552
548
543
532
546
562
563
548
543
555
561
567
570
572
560
519
496
516
530
520
516
518
527
530
535
542
544
530
521
520
528
532
527
535
535
535
529
528
532
525
530
525
524
521
527
539
532
520
519
516
528
535
525
523
535
530
521
525
538
542
546
529
520
524
532
555
572
567
528
502
514
530
532
523
513
520
537
556
548
524
515
525
528
525
519
528
537
535
538
562
575
543
506
492
519
537
519
515
541
548
535
518
525
533
535
551
557
560
561
563
561
548
552
551
534
530
530
524
530
535
524
524
523
523
524
529
527
516
521
533
511
476
463
496
562
648
713
756
771
770
767
761
724
634
518
460
437
430
455
476
495
505
513
523
527
511
516
527
523
515
518
509
510
513
513
515
509
507
510
507
518
513
506
506
511
510
513
506
514
519
519
518
507
515
515
515
510
516
521
524
530
524
527
525
523
520
535
527
514
528
532
527
528
533
539
543
539
542
542
543
542
546
549
551
563
577
580
566
551
548
557
560
556
546
543
548
551
548
546
539
538
539
543
538
543
537
534
533
534
537
530
528
533
533
533
528
528
535
537
537
538
535
530
538
534
528
537
544
533
537
547
542
535
534
543
543
543
539
542
542
539
543
542
548
543
538
543
539
534
532
530
529
530
532
539
537
533
532
533
533
532
528
532
537
533
530
533
532
534
534
532
537
537
538
533
530
535
529
530
537
537
537
535
533
537
535
530
535
541
537
530
532
528
535
542
541
535
538
541
537
539
542
537
529
525
525
532
535
535
533
532
524
530
533
533
533
535
533
530
528
528
537
537
534
524
530
538
538
539
544
544
546
538
535
551
556
553
553
561
574
570
571
566
552
552
553
546
534
538
547
534
523
523
527
530
530
530
528
530
529
530
520
511
504
502
520
566
648
718
755
765
767
767
753
704
617
519
465
435
417
435
465
492
509
513
515
515
516
510
513
516
520
514
510
511
518
519
511
500
513
521
525
530
532
515
511
516
520
521
527
525
529
530
535
529
523
530
532
533
533
533
535
530
529
528
529
534
543
543
535
529
532
539
542
544
546
546
542
553
557
552
556
560
557
563
569
567
567
569
569
567
567
567
572
567
567
567
563
555
558
565
561
556
556
557
558
558
549
551
549
555
557
552
551
555
551
548
548
551
551
548
556
557
556
560
560
555
556
556
552
560
555
551
547
553
551
555
558
555
556
553
553
556
560
556
551
551
542
549
552
552
548
546
548
549
544
551
546
542
544
551
548
547
546
542
543
542
546
548
547
544
544
546
553
546
544
543
546
544
542
539
542
547
552
553
553
553
553
551
551
539
539
538
544
546
543
543
546
541
542
543
543
542
547
549
552
547
547
543
548
552
548
547
543
548
548
547
544
543
546
546
552
553
552
548
548
547
553
552
553
556
557
566
565
567
570
574
585
586
583
579
576
572
571
562
553
547
546
548
542
542
539
541
541
543
542
541
539
539
543
534
520
505
505
546
602
677
737
769
772
770
770
751
691
591
507
464
430
444
479
497
516
528
532
538
533
530
532
530
529
530
524
530
532
532
532
530
534
533
533
532
534
533
532
534
533
533
527
533
533
533
533
535
537
537
535
534
538
538
535
538
535
539
539
541
542
542
541
542
544
544
548
551
548
553
551
553
556
556
558
561
566
567
569
571
571
572
572
574
570
575
570
563
562
561
560
558
557
556
552
551
552
551
549
547
547
551
546
542
543
543
541
542
542
542
539
539
538
539
541
537
538
539
539
539
538
539
537
538
539
539
539
538
534
539
538
539
539
537
538
537
535
534
535
534
535
533
533
534
527
530
529
532
533
532
529
530
528
530
532
530
528
530
530
532
528
530
530
530
528
530
530
530
528
530
529
528
527
528
528
529
528
529
529
530
528
528
528
528
528
529
530
523
528
530
529
528
528
529
528
528
528
528
528
527
530
530
530
523
527
527
528
528
527
527
527
527
525
527
528
527
525
525
527
524
523
525
530
530
533
534
533
534
535
537
542
546
548
553
558
563
562
557
548
547
543
537
533
530
527
524
516
521
521
521
523
520
520
519
518
519
518
505
490
490
514
563
637
705
752
769
769
767
760
719
627
520
467
436
414
428
458
481
495
505
510
510
511
513
511
513
511
511
511
510
513
514
513
513
511
513
513
511
511
513
511
513
514
515
516
510
515
515
518
516
515
516
519
516
516
519
519
520
521
523
524
523
525
525
528
530
530
533
535
535
538
538
539
543
544
548
549
552
552
555
556
558
560
558
558
556
556
556
561
553
551
548
546
546
541
539
539
537
535
533
534
534
532
532
527
533
535
533
528
530
528
530
530
530
530
530
530
532
530
532
532
532
529
529
530
530
528
530
530
530
530
529
530
534
533
532
530
533
532
532
530
529
525
523
532
534
533
520
521
519
521
533
538
534
537
534
535
537
525
519
514
507
511
510
511
515
518
513
518
516
515
515
516
516
516
520
523
523
520
515
518
521
520
518
514
514
515
519
519
516
511
518
518
516
519
520
520
524
523
520
519
516
516
516
520
516
513
518
519
523
523
530
534
530
525
520
520
519
524
524
523
525
521
525
525
527
527
534
539
543
548
557
556
557
557
551
544
544
539
530
524
520
521
523
520
519
515
514
520
518
519
519
518
515
505
487
472
474
510
575
664
735
775
780
777
779
766
721
608
484
431
406
420
449
472
486
500
505
506
505
505
500
501
500
502
505
502
501
501
497
500
506
506
510
511
509
505
497
498
498
502
501
501
502
502
505
504
502
500
507
507
510
509
510
510
510
510
514
516
516
516
518
520
523
519
524
527
523
528
532
535
535
535
534
538
541
546
549
551
551
551
547
547
551
549
547
546
543
542
538
537
533
533
534
529
530
528
528
527
525
524
523
516
520
523
519
520
514
519
520
519
520
519
519
519
519
516
519
520
519
519
521
519
516
521
524
523
523
523
523
523
524
523
521
521
523
521
520
520
520
519
518
515
516
515
515
515
514
515
515
510
515
515
513
516
515
514
514
516
516
515
514
515
516
515
515
511
516
518
516
516
518
518
518
516
518
520
520
519
518
520
519
514
520
519
519
520
523
520
520
519
521
524
521
521
523
523
524
521
525
525
527
525
525
527
527
525
527
528
523
528
528
528
529
525
530
529
529
528
532
534
534
538
539
543
544
541
546
548
548
556
562
569
569
561
553
551
551
543
539
538
532
530
530
530
530
529
528
527
527
527
530
530
528
516
501
487
497
543
607
688
755
786
790
791
786
763
687
577
490
449
425
436
468
490
506
516
521
523
523
523
527
525
521
516
524
529
527
521
521
523
524
523
523
525
524
523
524
528
525
523
525
525
525
527
527
528
527
527
527
529
525
528
527
533
535
533
537
535
537
539
539
544
546
547
547
548
557
553
556
557
557
558
562
566
567
567
569
574
575
576
575
574
577
571
570
569
566
562
560
558
558
556
555
552
551
551
547
546
547
546
544
546
543
542
542
541
541
542
541
547
544
542
539
542
543
544
547
547
546
543
546
544
546
547
544
553
547
547
547
546
544
544
543
543
543
542
544
543
542
539
542
543
541
538
538
538
535
538
538
537
537
534
535
534
535
537
537
535
533
533
533
530
535
537
537
535
534
533
528
533
533
533
535
532
533
534
533
532
533
535
535
535
534
537
533
534
535
534
533
535
533
533
534
535
533
533
533
535
533
533
534
535
534
535
534
535
533
533
534
532
534
532
534
532
535
535
534
535
535
537
537
538
538
539
539
542
542
551
546
548
552
558
565
567
571
570
565
560
560
553
547
542
538
542
534
532
530
532
532
532
530
529
534
533
532
530
524
510
500
507
544
602
681
747
784
790
790
789
780
735
637
520
468
441
428
448
477
496
510
520
525
524
523
527
527
525
520
528
530
529
527
525
530
528
529
530
530
529
528
530
530
529
530
529
532
530
534
535
534
535
535
534
535
534
537
538
539
541
542
541
546
546
543
546
551
553
553
553
555
561
561
565
566
567
571
571
572
576
577
581
583
583
585
584
583
585
581
581
577
574
571
569
566
563
561
556
555
555
555
552
551
551
548
549
546
543
544
544
543
546
546
542
543
542
543
546
542
542
544
546
546
546
547
547
547
548
548
547
552
548
547
546
546
547
547
548
546
546
546
546
544
546
544
543
544
539
541
541
542
542
542
538
537
538
538
539
538
539
539
538
534
537
539
538
538
537
537
535
537
535
535
543
537
537
537
539
535
535
535
537
537
538
532
535
537
535
537
541
537
537
537
537
535
538
535
538
537
535
535
537
537
537
538
543
539
538
537
538
533
535
538
537
538
539
539
539
539
533
535
541
537
546
546
546
551
548
551
551
552
553
562
562
566
571
575
579
576
567
566
563
558
553
551
547
546
541
546
539
539
537
538
537
539
538
538
539
534
520
502
496
516
565
645
719
770
788
786
788
784
772
719
588
476
439
430
451
481
500
514
527
533
533
533
534
534
534
532
535
534
528
534
533
532
537
535
533
532
532
533
535
535
538
535
537
537
530
534
537
539
538
535
538
539
538
542
539
542
544
544
544
544
549
551
553
555
558
558
561
562
565
567
569
576
576
579
581
583
586
588
589
591
593
591
593
590
588
586
585
588
577
577
574
571
567
567
565
562
560
557
557
556
555
553
555
557
549
551
549
551
551
551
551
549
547
547
549
548
548
547
546
549
548
547
547
547
546
547
548
549
548
547
555
549
547
547
547
551
548
548
548
548
547
548
546
546
546
544
551
547
546
543
542
543
542
543
543
543
541
543
542
541
541
539
544
539
541
541
542
539
541
542
541
542
541
542
542
539
539
542
542
539
539
541
539
539
539
541
542
542
541
547
542
543
541
541
542
541
541
542
541
542
542
541
539
542
541
546
541
542
543
543
543
542
542
542
543
542
542
544
546
543
542
543
543
544
542
543
546
544
542
544
548
549
552
552
553
553
553
556
560
562
566
570
576
581
580
576
571
565
567
561
556
551
547
544
542
542
539
539
538
542
539
539
539
539
542
533
520
501
495
519
567
649
724
771
786
783
784
783
762
700
576
482
445
436
464
491
507
524
535
535
535
530
535
535
533
534
532
533
534
534
535
537
532
534
537
535
539
532
537
537
538
537
539
538
538
538
537
537
538
539
541
542
538
537
542
543
544
543
546
547
549
551
549
552
555
556
557
558
560
562
562
566
566
567
569
574
575
577
579
580
585
583
581
583
580
581
577
577
576
572
567
567
566
562
561
558
561
557
556
553
552
552
549
552
551
548
547
547
546
543
542
542
543
542
542
542
542
543
541
539
539
542
542
544
544
544
543
539
543
544
542
543
541
542
542
543
542
542
541
546
538
538
539
538
539
539
537
535
535
537
537
535
535
533
535
530
532
533
532
532
532
532
533
533
530
530
528
530
533
532
530
528
530
532
530
530
528
532
530
530
528
530
525
528
525
527
528
527
525
527
528
527
528
524
525
527
527
527
520
525
527
527
527
528
525
527
528
528
527
525
521
523
527
529
523
527
527
524
525
530
528
527
527
528
528
527
527
527
524
525
525
525
527
525
525
525
528
530
532
532
535
530
537
537
542
542
546
551
558
561
560
555
552
546
541
535
533
525
528
524
521
521
521
519
521
521
520
523
519
519
515
511
501
486
491
530
591
668
737
772
780
776
775
766
720
616
495
444
425
422
444
469
486
501
510
513
513
511
510
511
506
510
511
513
514
515
514
515
514
514
516
514
513
513
515
515
513
513
514
515
516
516
516
516
515
516
516
519
518
519
521
523
523
523
521
529
528
532
532
534
535
535
538
546
544
546
548
549
553
553
558
558
560
561
562
563
565
562
562
567
561
560
558
555
553
547
546
544
542
539
537
535
533
532
532
528
528
529
527
527
527
527
528
525
524
525
523
525
525
525
525
523
525
527
525
527
527
527
527
527
527
527
519
525
527
527
528
527
527
525
527
525
527
525
525
525
524
524
519
523
521
521
520
520
521
521
520
521
520
519
520
520
520
521
516
518
519
519
520
519
520
520
519
520
521
521
520
519
518
520
519
520
518
519
519
519
520
519
519
520
520
515
520
520
520
521
519
518
519
519
518
519
520
519
519
520
520
516
521
521
523
525
524
523
521
521
521
523
524
523
523
523
521
521
521
523
523
521
523
523
525
527
527
530
530
532
529
535
538
541
543
546
553
557
557
553
547
543
539
537
525
525
524
519
516
516
519
515
513
516
516
513
515
518
516
510
487
474
481
520
583
665
737
775
780
779
777
762
715
591
465
428
412
427
454
476
491
504
507
510
507
507
507
504
510
510
510
510
510
510
513
515
514
513
509
513
511
513
514
510
515
516
515
515
515
518
519
518
520
519
520
523
524
524
527
524
530
530
532
533
537
538
542
543
544
547
551
553
555
557
561
566
567
571
572
574
574
576
576
576
575
572
576
569
566
562
558
557
557
551
547
546
542
539
537
538
537
534
529
534
532
532
530
530
530
530
529
528
528
530
527
530
527
527
527
528
528
529
530
530
530
530
529
530
530
530
529
530
530
529
528
528
529
529
528
528
527
527
527
525
525
520
525
523
524
524
523
520
521
523
521
521
521
521
523
521
521
519
520
520
520
519
520
521
520
519
521
523
525
523
520
520
523
521
521
521
521
520
523
523
521
521
521
523
520
520
521
523
520
521
521
523
523
521
524
516
520
524
521
523
519
524
521
523
523
521
521
523
524
521
525
523
521
523
521
523
521
523
525
525
523
524
525
523
524
524
527
525
530
530
532
533
533
534
538
539
542
544
551
553
558
562
561
560
548
547
544
538
532
530
525
523
524
523
521
523
523
523
527
518
521
523
516
501
483
483
516
574
655
730
775
788
786
784
775
737
623
493
435
418
439
469
490
505
516
521
521
519
518
519
518
519
520
519
520
520
519
521
521
521
523
524
518
521
524
525
524
523
528
527
527
527
525
527
528
528
524
527
520
530
534
535
535
532
535
539
546
547
546
547
547
548
548
551
558
561
563
565
566
566
566
565
566
571
574
580
581
577
579
583
581
572
566
558
557
558
555
552
553
553
552
556
549
547
547
542
542
541
542
542
538
538
538
541
539
537
538
533
533
537
542
546
543
542
542
542
538
542
551
552
541
530
528
529
532
533
530
529
538
544
548
552
549
548
552
537
532
527
525
527
530
530
538
539
542
547
542
539
534
539
552
543
539
530
521
521
520
525
528
530
530
534
534
535
535
544
551
542
533
532
533
537
530
523
515
516
525
532
535
534
527
523
528
537
538
534
529
530
523
519
521
529
537
524
525
528
533
534
535
537
538
538
534
525
529
528
523
515
516
515
527
530
529
530
533
538
530
527
527
530
532
534
528
525
527
532
542
543
534
530
529
534
530
535
541
544
551
562
569
571
566
561
551
551
549
541
538
533
530
527
525
527
520
523
523
530
532
532
532
530
523
515
502
495
510
546
617
696
758
781
784
781
775
746
659
539
470
441
431
460
486
504
514
525
527
528
529
528
516
514
513
513
515
513
515
513
520
525
527
533
533
527
530
534
529
527
515
521
525
525
530
527
534
533
533
528
527
530
529
529
534
534
533
538
537
539
539
546
542
546
547
547
551
552
555
556
556
560
562
565
566
570
570
572
574
574
574
574
571
572
571
570
565
562
567
561
556
555
551
551
551
551
548
546
544
546
546
546
543
542
547
543
543
542
542
542
542
543
543
543
542
543
544
543
546
544
549
546
546
547
547
544
546
544
546
546
542
544
544
542
543
544
543
544
543
543
542
542
543
541
539
539
541
543
539
539
539
539
538
538
537
535
538
537
537
538
537
537
538
533
537
537
537
538
535
537
535
535
537
535
537
537
537
535
533
535
537
537
535
535
537
537
537
537
535
537
534
535
535
537
535
535
535
533
535
534
535
530
533
535
537
537
530
535
537
535
535
539
537
537
537
537
537
535
535
537
535
539
543
538
538
537
538
537
538
539
539
539
538
543
542
543
547
547
549
552
553
556
557
563
572
574
574
569
562
566
557
552
546
542
538
537
538
539
542
538
535
542
539
535
533
525
525
519
507
500
519
561
620
697
760
784
783
788
781
749
672
569
488
451
430
445
476
497
516
524
528
530
527
529
525
532
537
539
538
533
530
524
527
530
528
530
530
532
528
530
532
532
535
533
533
533
535
537
535
533
535
534
538
537
542
539
539
541
539
542
544
546
548
549
548
551
552
553
553
556
560
562
561
562
566
567
570
572
576
576
575
580
577
577
577
572
572
572
570
569
563
562
561
558
556
556
553
560
557
565
565
560
551
547
547
542
539
534
535
541
539
538
542
547
547
548
542
539
537
542
542
551
549
544
546
547
551
544
539
534
538
539
539
543
543
539
535
533
537
537
544
539
534
534
535
535
534
534
535
539
539
533
530
528
527
532
528
533
529
532
532
532
532
532
533
533
535
532
529
530
528
532
530
533
528
532
529
530
532
532
532
530
530
527
527
529
534
537
535
537
533
533
535
534
533
532
530
528
532
529
532
528
529
532
533
533
529
527
528
530
532
530
533
532
530
524
530
530
527
530
533
533
537
538
535
534
530
527
525
525
530
533
539
538
538
542
542
543
542
546
549
551
561
571
572
567
557
551
549
552
548
544
539
532
525
524
523
527
521
530
529
528
533
527
525
515
501
496
514
553
604
677
737
776
789
786
783
763
693
590
501
450
425
442
470
490
507
519
518
519
516
516
519
521
518
516
519
527
520
521
520
519
523
524
524
523
523
525
525
525
527
525
520
527
525
524
527
520
528
532
530
529
528
530
529
530
532
530
535
535
538
537
539
547
547
549
548
547
551
553
556
558
558
562
566
571
569
571
575
579
576
577
577
577
577
572
567
566
563
562
569
560
552
546
548
548
542
544
543
544
542
543
543
547
548
551
553
541
538
537
541
541
548
552
551
546
539
544
551
556
555
547
548
543
543
548
548
548
547
542
542
546
542
539
543
539
542
549
546
544
538
535
537
537
539
542
543
544
542
549
542
539
534
533
535
539
537
537
533
538
535
532
535
539
543
547
538
538
535
537
534
530
538
539
537
538
535
533
538
533
535
534
530
537
538
539
535
537
537
537
537
538
539
537
535
538
538
538
538
535
533
532
538
537
537
534
533
535
532
541
541
537
537
537
538
537
534
532
530
530
537
535
533
534
530
535
537
539
541
549
548
546
548
555
552
558
566
576
577
574
569
560
561
556
546
543
542
539
533
533
533
528
530
532
532
530
528
532
529
521
510
501
505
539
594
673
733
776
781
779
775
760
702
609
511
460
430
432
460
484
509
520
525
520
523
525
523
525
527
525
523
523
525
527
525
525
528
529
525
525
527
530
527
527
528
530
528
528
528
530
524
530
528
528
529
528
530
530
532
533
533
534
535
537
537
537
537
543
546
544
546
547
549
552
555
556
557
560
561
565
565
566
570
570
571
572
571
569
567
567
563
563
560
557
556
553
551
549
548
547
543
541
541
541
539
539
539
538
539
544
539
539
539
539
538
539
538
539
539
538
538
538
539
541
539
542
539
539
538
539
538
539
538
538
537
537
535
537
537
533
534
534
535
533
533
533
532
530
532
532
530
532
527
530
528
528
530
527
529
530
530
530
530
523
527
528
532
532
525
529
528
528
529
530
529
530
528
530
529
528
527
528
529
529
524
528
528
528
527
528
528
528
528
530
530
530
530
530
532
530
528
530
530
530
528
530
530
530
529
530
530
525
532
530
530
530
530
532
530
532
530
532
532
533
533
533
535
528
533
532
534
537
537
539
541
542
542
546
552
552
553
561
567
575
572
566
561
560
555
547
542
538
538
534
532
532
533
532
532
532
533
532
530
533
529
519
507
510
538
585
658
721
766
776
775
775
767
719
620
520
476
449
428
445
476
496
505
520
523
524
524
525
527
527
525
525
527
528
525
527
527
525
527
527
528
527
527
528
529
528
528
530
532
530
530
532
530
532
533
533
535
533
535
537
534
537
538
538
542
551
543
543
546
547
549
552
551
552
552
555
557
555
558
558
562
569
562
563
567
571
571
571
569
567
567
565
563
562
561
558
557
555
553
553
552
551
548
547
547
547
544
546
552
546
546
544
546
547
544
546
547
546
543
547
547
547
544
546
551
548
547
548
549
547
549
548
547
547
546
543
543
543
542
542
548
542
539
541
539
535
539
535
535
535
538
537
535
535
535
535
533
534
535
534
533
535
535
532
532
533
532
528
533
533
532
533
529
532
533
533
533
534
533
532
533
532
533
527
533
533
533
532
534
535
530
532
532
534
534
530
533
532
533
530
533
534
535
535
533
534
534
537
535
537
537
533
535
537
537
533
534
537
535
535
538
535
537
538
537
535
530
537
539
539
542
544
544
547
547
546
548
553
558
561
567
575
577
574
567
562
560
555
551
546
542
539
538
537
535
539
535
537
535
537
537
537
538
530
518
504
502
533
588
669
729
767
777
776
774
767
729
641
530
478
442
437
464
490
507
519
533
532
533
532
533
533
533
534
533
535
533
533
532
533
534
529
533
534
533
534
538
538
538
539
538
537
538
539
539
539
539
542
543
543
543
544
546
546
547
547
548
548
557
553
552
555
555
557
558
560
558
561
561
563
567
567
569
570
577
574
576
577
579
580
581
580
579
577
576
576
575
572
571
569
571
567
566
566
563
562
562
561
560
558
556
558
555
556
555
553
557
557
557
556
557
557
558
560
560
560
558
565
561
561
561
561
561
561
561
563
562
561
562
561
561
562
561
566
561
561
560
557
558
560
558
558
557
555
556
553
555
553
552
553
553
555
553
552
552
552
552
552
552
551
555
552
552
552
551
552
552
551
549
551
551
552
552
552
552
552
556
553
553
552
552
553
555
552
552
552
552
552
552
553
553
552
558
553
553
555
553
553
555
555
556
553
552
555
556
553
553
553
555
553
556
556
553
555
553
553
555
556
553
560
556
556
555
555
557
557
556
557
558
561
562
563
563
563
566
575
574
577
583
588
590
591
588
581
579
574
572
566
561
558
557
560
555
556
556
555
556
552
555
552
551
553
546
524
513
523
562
634
702
758
783
786
786
784
763
702
602
525
483
459
468
498
521
535
547
551
551
548
548
551
551
551
551
551
557
553
549
551
549
552
555
552
553
555
549
552
553
553
552
552
556
555
553
553
556
555
555
555
557
553
555
560
558
558
558
560
562
562
561
562
563
565
566
566
569
570
570
575
574
576
576
579
584
585
584
588
588
590
589
589
589
589
588
589
583
583
580
581
577
576
574
574
572
567
569
569
567
565
562
565
563
562
561
561
561
561
561
561
561
560
562
560
558
561
561
561
561
561
561
561
560
561
561
561
561
561
566
561
561
561
560
561
561
561
558
557
555
557
556
556
555
552
560
553
552
551
551
551
551
551
551
551
548
551
549
548
548
547
551
548
546
547
547
547
548
548
547
547
544
551
548
546
546
544
546
546
544
544
546
543
544
544
542
543
542
548
542
546
543
539
542
543
543
542
543
539
542
542
542
539
539
542
543
541
539
539
538
542
539
538
537
541
539
538
539
538
541
538
537
539
539
539
537
535
537
535
538
538
544
539
539
541
542
546
543
547
548
551
552
558
565
571
569
563
561
555
549
544
538
535
532
530
528
527
527
527
525
521
523
523
523
524
523
515
500
486
487
520
575
649
721
772
783
785
781
767
710
611
511
456
426
417
435
469
486
498
507
502
507
510
506
506
506
506
507
507
506
510
507
506
506
506
506
502
506
504
505
505
505
506
509
506
505
507
505
505
505
504
504
504
506
507
510
511
511
513
510
513
515
516
510
516
516
516
520
520
523
524
525
527
528
530
532
535
538
541
548
543
544
546
544
546
546
543
543
541
537
537
535
530
530
529
523
523
521
521
519
518
515
515
515
514
515
513
510
511
511
511
510
509
510
511
511
513
513
511
510
513
513
506
513
515
514
514
511
511
511
513
513
514
513
513
511
513
511
509
510
507
511
511
510
507
509
510
506
510
507
506
505
505
505
504
506
505
505
505
506
505
506
505
505
505
504
506
506
506
509
505
505
505
505
506
506
502
505
504
507
509
502
506
506
504
506
506
506
506
507
506
506
506
509
510
506
507
502
509
506
507
507
507
506
510
507
510
510
509
510
510
510
510
507
510
510
510
509
510
510
510
510
507
511
505
511
511
515
516
516
518
521
520
521
527
527
530
533
542
543
553
548
539
533
532
528
521
515
513
513
510
506
507
506
506
506
505
509
507
507
505
502
491
472
468
487
539
613
693
752
784
786
784
777
743
656
537
456
422
403
420
450
472
481
497
502
502
501
502
501
504
502
502
504
506
504
502
506
506
500
505
505
506
505
505
506
506
506
509
510
507
510
506
507
510
507
509
513
513
511
514
511
511
511
515
518
518
518
520
523
525
525
527
528
532
533
532
533
537
539
542
543
551
548
548
551
552
552
551
552
553
553
551
548
547
544
543
538
542
537
535
532
533
530
525
525
527
525
525
521
523
525
523
520
519
520
520
521
521
521
521
519
519
520
524
519
523
523
523
523
521
524
524
525
525
525
519
524
524
523
525
520
524
521
523
521
521
520
519
519
519
520
519
516
515
516
515
513
515
515
513
516
516
514
513
515
515
518
516
518
516
516
515
516
514
516
515
518
521
519
518
518
516
519
513
519
521
519
521
520
520
520
521
520
519
521
521
523
521
523
518
520
521
521
523
521
521
523
521
523
525
523
520
524
525
525
521
523
524
525
527
527
527
527
528
525
528
528
528
528
529
528
527
530
532
535
535
538
539
538
539
541
544
555
553
558
565
570
569
562
556
555
549
543
541
537
533
530
533
527
528
529
532
533
530
530
530
532
528
516
497
490
510
558
628
706
763
788
790
790
786
766
700
577
479
442
428
446
474
495
511
520
527
527
527
525
527
523
527
527
527
527
521
527
527
528
529
525
527
528
528
528
530
529
532
533
529
533
529
533
532
533
533
533
534
534
534
535
538
538
538
538
539
539
542
546
546
546
547
548
548
551
551
552
553
562
560
561
563
566
570
571
571
572
574
574
574
576
574
574
572
575
570
571
567
565
561
561
562
561
557
555
556
555
555
552
552
557
551
549
547
547
547
547
547
547
547
546
544
547
548
546
546
549
548
548
546
548
548
548
548
548
549
548
553
548
548
547
546
547
547
546
547
546
543
546
543
544
543
542
547
543
542
541
539
539
542
539
539
541
539
539
541
541
539
539
541
538
538
541
543
539
538
537
539
538
539
538
538
539
538
541
541
542
542
539
541
538
538
538
535
537
539
542
538
539
538
537
539
538
537
538
538
537
538
538
539
539
541
543
538
539
538
539
537
539
537
537
539
537
537
539
537
538
539
542
539
541
542
539
538
539
539
541
541
542
549
544
547
546
546
548
551
553
557
561
563
571
576
576
572
563
565
558
556
549
547
543
541
538
534
532
533
535
535
538
535
533
532
535
527
513
504
511
551
613
691
756
786
788
789
788
775
724
613
509
469
444
436
459
484
504
518
525
530
525
530
529
528
529
530
532
533
532
532
535
532
530
530
530
533
530
533
532
533
533
534
535
534
533
535
535
535
538
537
537
538
538
537
538
539
542
542
546
543
546
548
548
552
553
555
557
556
560
561
562
563
567
570
572
574
577
576
577
586
584
588
588
584
585
580
577
576
574
571
570
566
560
557
558
561
558
557
555
556
553
556
556
558
562
560
561
561
562
563
561
560
556
552
548
547
543
547
552
557
560
556
560
552
551
553
553
555
557
557
556
555
553
552
553
553
551
549
549
546
546
546
546
548
548
547
542
539
535
538
539
542
542
543
553
548
546
542
538
534
538
538
543
539
539
539
541
543
539
537
537
537
538
537
538
538
539
539
539
538
538
543
538
538
538
537
537
533
529
532
537
537
541
542
539
539
537
530
535
535
539
538
538
535
535
535
532
530
532
534
534
530
535
541
535
538
538
535
533
532
532
535
539
541
539
537
537
538
543
547
542
544
552
553
552
553
561
570
579
574
569
556
548
547
546
542
539
533
529
529
528
528
530
529
528
528
527
529
527
523
507
490
486
513
569
651
725
772
793
793
790
788
761
679
527
446
423
440
472
492
506
519
523
525
523
523
524
521
521
525
524
527
527
523
521
524
527
530
528
523
524
524
525
523
523
524
524
527
528
527
523
523
528
530
529
527
528
532
532
533
533
535
538
538
539
538
543
544
547
548
548
553
556
552
549
552
556
560
560
563
569
571
579
575
577
577
574
576
572
575
567
565
561
562
558
553
553
552
556
549
546
543
543
544
546
547
546
541
538
537
538
538
537
534
529
533
535
533
532
533
532
532
529
530
532
532
532
533
532
534
532
533
535
535
538
533
534
532
532
530
533
528
530
532
532
530
527
528
528
529
529
530
528
525
525
525
528
524
527
525
523
524
523
524
523
525
527
528
527
529
527
525
525
524
527
527
525
525
528
529
527
527
528
528
527
527
528
530
530
529
529
530
529
530
527
525
530
532
530
528
524
530
530
530
530
530
529
529
530
532
530
529
530
530
529
529
525
530
532
532
529
529
532
530
530
532
533
533
532
532
533
535
539
539
539
539
542
543
548
555
562
569
566
571
561
556
549
543
538
537
530
528
525
521
516
523
525
524
521
518
523
523
521
516
502
491
495
527
584
663
734
780
791
791
788
777
727
614
497
453
428
422
442
469
487
501
510
513
513
514
514
511
513
514
515
515
514
516
518
515
513
518
511
518
518
518
516
516
518
516
518
518
520
520
519
519
518
521
516
520
520
521
521
523
524
525
527
530
532
532
533
534
538
537
543
542
543
547
548
548
552
555
557
557
561
563
566
567
567
567
569
567
567
563
562
561
558
553
551
548
546
547
539
538
538
537
532
533
530
530
530
530
528
525
530
525
527
521
525
528
527
527
528
528
528
527
528
529
527
527
528
528
528
527
528
528
528
529
527
527
525
524
523
524
521
521
519
518
518
516
516
520
516
515
515
510
513
514
515
511
509
513
510
511
509
510
510
507
507
510
510
510
510
509
510
510
504
510
509
510
506
507
507
507
507
506
507
507
505
505
505
505
506
507
506
506
506
507
506
507
506
505
506
502
507
506
506
506
506
509
506
507
507
510
507
507
506
509
507
505
510
510
510
510
509
509
510
510
507
510
510
510
510
510
511
510
515
518
520
520
524
523
524
530
532
538
543
547
548
543
538
533
533
528
520
516
513
511
507
510
507
506
501
510
507
506
510
506
506
496
477
464
472
514
577
664
733
775
784
781
780
763
704
576
458
420
407
431
456
476
490
501
502
501
500
502
501
500
501
501
500
501
502
504
505
504
502
502
504
504
501
505
505
504
506
505
505
506
506
506
507
502
510
511
511
511
510
513
513
514
515
518
518
519
520
521
523
520
527
528
528
530
532
533
535
535
538
538
542
546
547
548
549
553
556
553
553
552
552
551
551
548
543
542
548
542
539
537
535
533
532
530
530
532
529
523
529
528
525
527
521
525
525
523
523
524
521
525
523
524
525
525
525
527
528
525
521
527
525
525
525
527
528
525
527
527
527
525
525
525
527
525
524
524
527
523
523
523
523
521
521
520
521
515
519
521
520
520
519
519
519
519
519
519
520
519
518
519
520
515
518
519
518
516
520
519
520
520
519
520
523
518
519
515
516
515
519
521
520
521
523
520
521
523
521
524
523
523
523
524
524
523
523
524
525
523
527
525
530
528
524
527
523
527
530
525
527
528
528
527
528
530
528
528
528
532
530
532
527
532
532
530
535
537
539
542
539
543
544
548
552
556
561
567
571
569
562
557
556
551
544
539
534
533
529
527
530
529
528
532
528
528
530
527
528
528
510
497
491
511
562
641
714
762
780
784
781
774
734
640
523
465
444
437
462
490
505
513
521
528
528
521
523
521
527
527
525
527
527
524
523
528
527
524
525
527
528
529
529
528
532
533
528
528
525
532
529
532
534
532
535
534
533
535
537
535
535
538
537
538
543
539
539
541
543
547
551
549
546
547
549
552
552
557
557
558
565
565
565
567
570
570
571
567
571
572
571
571
569
567
566
562
563
562
557
558
560
556
558
555
551
552
551
557
549
549
549
551
552
551
549
553
548
551
553
551
553
551
552
553
548
555
552
551
551
555
553
551
552
553
556
555
553
552
549
551
551
552
552
552
551
549
548
551
548
547
549
547
547
546
543
546
544
543
546
547
544
544
546
543
544
542
547
543
543
542
544
546
542
544
542
542
543
542
542
542
543
542
547
542
543
544
542
539
539
542
542
544
542
542
542
542
544
543
543
541
542
544
543
544
543
542
542
544
542
551
544
543
543
543
547
546
546
543
544
544
544
547
547
546
547
553
549
549
552
553
557
557
557
562
566
566
572
579
584
591
586
585
575
572
566
558
552
553
551
547
546
542
543
544
544
546
542
542
546
539
533
521
510
510
539
597
670
732
771
785
784
780
761
697
609
527
482
448
446
474
495
515
528
533
529
533
533
532
533
532
530
532
532
534
533
533
533
533
533
533
530
530
533
533
532
532
532
532
532
532
532
532
530
533
532
532
532
532
532
535
530
535
533
535
537
534
537
530
535
537
537
537
538
539
542
547
547
549
556
557
561
566
570
577
577
581
580
579
581
583
577
577
574
572
567
563
565
561
557
557
557
558
556
553
557
556
556
553
553
552
557
555
555
557
551
552
552
551
551
551
548
551
548
547
544
542
549
543
544
543
543
547
546
542
542
541
538
541
539
539
539
539
542
538
535
537
535
535
534
534
532
532
533
532
530
532
532
532
529
530
529
530
530
530
530
532
530
528
528
524
530
528
527
530
528
528
530
530
527
528
528
527
528
528
530
523
527
528
528
527
527
528
528
528
527
525
527
527
528
525
527
524
525
525
525
528
527
525
528
530
530
530
528
524
523
527
533
533
533
528
528
525
521
520
521
521
521
528
527
534
539
538
542
544
548
551
560
563
569
567
561
556
548
543
533
530
527
525
519
520
518
516
514
515
516
516
516
516
520
519
507
495
493
529
586
664
734
780
791
789
784
752
676
580
492
442
411
404
430
459
476
490
492
498
500
502
502
497
501
502
502
504
502
502
502
504
505
505
505
505
505
505
506
501
506
506
505
507
507
507
507
510
510
510
510
510
513
510
511
513
515
514
516
520
518
518
519
520
521
524
520
528
528
528
533
533
534
538
539
539
544
547
549
551
551
551
555
551
548
548
548
547
543
539
537
538
533
532
533
530
530
527
521
525
523
524
525
525
525
524
524
523
525
524
523
527
525
529
527
527
527
527
528
530
528
529
528
529
527
521
527
527
527
527
524
525
525
524
521
525
524
523
521
521
521
514
516
516
518
518
518
516
516
515
516
516
516
515
513
516
516
511
511
513
515
513
511
513
513
513
511
513
513
511
511
511
513
511
511
513
511
511
511
510
514
514
514
515
509
513
513
514
516
515
516
516
516
516
516
515
515
515
516
516
511
514
515
514
516
519
515
520
519
516
518
518
518
516
519
520
520
523
525
528
528
530
532
533
538
539
544
557
561
562
560
551
548
546
542
534
530
527
520
520
518
518
516
511
516
516
516
516
516
519
513
498
487
486
515
571
649
725
774
793
790
788
775
711
608
506
454
420
420
465
497
505
521
519
510
502
506
516
525
529
539
544
530
505
492
491
486
497
502
502
505
506
507
510
518
518
520
523
528
521
515
513
516
530
530
532
532
525
521
516
516
525
537
542
538
533
532
533
530
529
527
530
535
535
539
535
539
543
546
551
551
552
548
547
552
553
557
557
556
561
560
557
552
553
557
560
542
533
533
542
553
556
547
532
528
538
537
532
521
520
521
519
528
528
528
527
527
528
535
537
538
537
525
521
529
543
546
535
528
527
530
532
533
544
548
548
535
530
527
530
520
519
523
533
543
548
541
521
502
496
507
521
528
521
507
514
520
520
520
511
507
518
525
520
505
492
498
505
510
513
507
510
511
510
507
510
509
510
507
510
511
513
510
509
509
510
510
513
510
510
510
510
507
507
511
510
510
506
509
506
506
507
507
510
511
513
511
511
513
513
513
515
511
506
514
515
511
513
515
514
516
519
521
524
524
521
525
529
529
530
537
547
551
553
547
539
535
533
528
524
520
516
513
513
511
513
514
514
513
511
513
513
510
510
501
487
477
497
543
612
688
749
777
779
777
766
713
620
525
467
426
406
420
455
474
490
501
511
511
510
510
510
510
511
513
510
511
510
509
511
511
513
510
515
510
513
514
513
515
516
518
516
518
519
516
519
519
519
520
521
519
524
525
525
525
521
527
528
530
532
532
533
535
535
537
538
538
538
542
543
544
553
549
552
553
556
558
561
563
563
561
561
561
560
557
555
551
552
547
546
544
543
542
538
538
538
535
537
542
535
534
533
533
533
535
535
535
534
535
533
537
537
537
539
542
538
541
541
539
541
541
541
539
539
538
541
542
541
541
538
542
538
541
538
538
535
535
535
537
534
535
534
533
533
532
532
530
530
532
530
529
530
532
530
529
530
532
525
530
530
529
530
527
532
530
530
530
528
529
529
530
530
532
527
532
532
530
530
530
530
532
532
532
533
532
530
532
530
532
532
532
534
532
534
532
533
533
533
533
534
532
533
532
534
533
532
534
533
532
533
533
533
532
532
533
534
529
537
537
537
539
539
542
542
546
548
552
557
563
567
569
565
562
556
552
544
541
537
535
533
528
527
530
530
529
530
530
529
527
530
527
515
501
495
505
544
608
681
742
776
776
779
775
748
672
566
484
445
423
431
456
484
501
513
520
515
519
521
518
521
520
521
520
520
523
523
523
521
520
520
520
516
520
521
523
521
521
521
525
525
525
525
525
524
523
524
525
527
529
532
528
530
529
530
532
534
535
537
532
539
539
542
539
542
542
546
548
549
548
552
555
555
556
560
567
563
562
565
563
563
563
562
561
557
556
556
553
551
548
546
548
544
542
541
539
538
538
535
535
533
535
535
533
533
535
534
533
532
533
533
533
534
537
535
535
535
538
544
539
539
538
538
538
541
541
538
539
538
539
539
538
537
539
532
535
534
534
534
537
537
530
530
532
532
530
530
533
532
532
530
528
529
530
530
530
527
529
528
530
530
527
528
525
527
527
527
528
527
525
529
530
527
532
532
529
530
525
530
530
532
532
528
532
533
533
530
530
530
528
527
525
530
525
529
532
530
528
528
528
525
525
529
527
525
525
523
523
527
527
528
527
525
521
525
525
530
530
530
533
528
533
535
537
539
543
548
552
558
560
560
558
552
548
543
537
530
529
528
527
527
523
523
523
521
520
521
519
519
523
520
511
493
490
505
549
621
695
751
772
775
771
771
756
702
577
472
436
418
426
454
477
491
505
513
515
513
515
515
511
515
515
514
515
515
516
516
516
516
516
516
518
519
516
518
514
519
518
519
518
518
520
519
518
520
521
523
523
521
524
524
524
528
530
530
530
532
532
534
537
538
537
543
543
544
546
546
548
552
553
553
556
557
558
561
562
562
561
565
558
557
555
552
552
551
548
543
543
539
537
537
537
535
535
530
533
533
530
532
530
530
527
528
527
527
527
527
525
527
527
527
527
527
527
528
530
530
530
530
532
532
527
530
532
532
532
530
530
530
530
530
528
523
527
528
525
527
520
523
523
523
521
523
521
521
520
520
521
519
518
520
519
516
516
520
518
518
520
519
519
519
519
519
520
520
518
519
519
519
519
518
519
518
519
518
519
519
518
519
516
513
518
519
519
519
516
518
519
518
516
520
519
518
519
518
520
515
518
520
520
520
520
520
520
519
519
520
519
521
518
518
520
518
520
520
519
519
520
523
524
524
527
530
530
530
532
535
537
542
546
552
557
557
551
546
543
541
535
532
523
524
520
518
519
515
515
516
518
515
516
519
516
515
507
491
472
473
502
562
644
719
762
772
772
771
761
730
649
516
439
409
421
455
476
490
505
511
511
511
510
510
510
507
509
510
509
510
510
510
510
511
513
511
505
511
514
513
513
507
514
515
514
515
515
515
515
516
515
518
516
519
516
518
520
519
521
524
524
528
528
530
529
532
534
534
535
538
539
542
543
547
548
551
556
556
556
560
561
561
562
561
567
560
558
556
552
551
547
547
543
543
538
538
537
535
534
535
529
533
530
530
530
528
527
524
524
523
524
523
521
523
523
524
523
524
523
524
525
525
524
524
525
525
524
524
521
525
523
524
523
523
524
523
525
524
524
523
521
523
524
518
521
521
520
520
519
519
519
518
520
519
520
518
519
519
520
514
519
518
520
519
516
518
516
516
516
520
518
518
516
518
519
515
518
516
516
519
516
516
518
516
516
516
519
519
516
516
519
518
516
515
515
515
516
515
518
516
518
519
514
516
516
515
516
516
519
519
518
519
519
518
518
518
519
520
516
521
521
520
521
520
519
518
520
519
519
520
518
518
519
519
518
520
519
519
519
521
521
523
524
525
528
523
529
532
532
538
544
551
556
556
551
543
541
535
532
527
523
518
518
515
515
513
513
514
511
513
511
513
513
515
513
501
486
470
486
527
591
670
733
765
770
769
767
753
696
590
482
440
413
416
445
469
486
498
506
505
506
507
510
507
502
506
506
509
507
507
509
510
511
510
510
510
513
513
513
514
507
513
514
514
515
516
515
518
516
516
518
516
516
516
518
518
516
520
521
523
525
525
527
530
529
530
533
535
535
538
538
539
546
546
548
552
553
553
556
557
561
561
561
562
557
556
552
551
549
548
546
542
538
538
537
535
535
533
533
527
530
528
527
525
527
525
524
524
523
524
523
525
525
523
524
524
523
525
525
525
525
528
527
527
528
530
527
529
529
530
530
527
528
529
527
528
530
523
527
529
528
528
521
524
525
524
523
525
525
525
523
524
523
523
524
521
523
523
516
521
521
520
518
520
520
520
519
518
519
519
518
519
518
520
519
520
519
519
521
519
520
519
520
519
520
515
519
518
520
519
519
518
518
516
519
520
519
520
520
520
520
516
520
521
521
520
520
519
520
520
519
521
519
520
520
520
520
519
521
521
520
521
520
521
520
521
520
521
521
523
523
523
521
521
523
521
521
523
524
525
527
530
529
534
527
533
535
538
542
546
548
557
563
563
558
551
547
546
539
537
525
530
527
524
524
525
520
521
521
523
523
521
523
523
518
506
487
481
502
552
623
705
755
776
775
775
775
752
683
557
463
428
416
436
465
486
501
514
511
515
516
518
516
510
516
516
518
519
518
518
518
518
516
520
518
516
516
520
519
514
519
521
520
519
520
520
520
521
521
521
523
524
524
525
527
527
529
530
529
530
533
535
535
538
539
543
548
544
547
548
548
552
552
556
558
560
561
563
566
566
566
566
572
567
563
563
562
561
560
553
552
551
547
546
547
544
543
539
543
539
537
537
537
534
534
533
533
533
535
533
533
532
532
533
530
533
532
533
532
532
530
533
534
533
532
527
533
534
533
533
533
537
533
535
533
534
535
533
533
532
530
527
529
529
529
528
530
528
529
528
528
530
527
528
528
529
525
527
528
528
527
528
527
527
528
527
529
529
528
530
530
527
527
525
528
528
528
528
530
525
527
528
528
530
521
528
528
527
529
528
528
527
529
529
528
530
528
528
528
529
523
528
528
528
527
528
529
529
528
528
530
528
527
528
528
530
528
530
528
529
528
528
528
528
527
527
528
527
528
529
528
530
527
527
530
532
528
530
527
532
529
530
530
527
530
529
533
535
537
538
539
539
542
542
544
549
553
557
562
571
569
563
557
552
549
548
543
537
533
530
528
528
527
530
528
527
527
528
527
527
528
521
507
490
484
506
558
627
702
751
771
771
770
769
751
687
561
470
434
428
458
482
496
518
523
523
521
523
523
521
523
524
523
523
524
523
523
523
521
524
525
527
525
525
525
525
525
525
527
528
528
529
530
528
527
527
529
530
532
530
529
532
533
533
535
530
537
535
537
538
542
541
542
543
543
543
546
549
552
553
553
562
561
561
562
565
567
567
569
569
569
567
566
566
563
562
560
560
557
553
552
553
551
551
548
548
547
546
551
546
543
543
542
542
541
541
539
538
535
539
537
537
538
537
533
537
537
537
538
535
535
535
538
535
537
539
537
537
537
539
541
538
537
537
537
535
538
537
538
535
535
533
534
534
533
534
532
533
533
532
532
532
530
532
530
532
532
525
529
532
530
532
532
533
530
530
530
530
530
530
532
530
530
525
530
530
530
532
530
529
530
530
529
530
528
528
529
530
530
527
529
530
530
530
530
530
530
530
532
532
530
530
530
530
532
530
532
533
533
533
533
534
535
533
533
534
528
532
532
534
534
532
532
533
533
533
532
533
533
534
532
534
528
533
532
534
534
534
532
533
534
533
535
538
538
539
539
542
546
544
546
546
549
552
556
561
567
571
567
566
557
555
552
546
542
539
537
533
532
533
530
533
530
530
530
524
528
530
529
523
506
493
497
528
584
658
720
760
771
771
767
760
710
617
516
470
440
435
463
487
501
516
524
525
524
524
525
523
523
525
524
525
525
524
525
525
525
525
520
525
525
527
525
524
525
527
527
528
530
525
528
530
530
530
525
529
530
530
533
534
533
533
535
535
537
537
538
538
538
539
547
543
546
547
548
549
551
553
556
556
558
561
563
566
569
567
571
570
571
570
567
566
565
562
560
556
553
557
549
547
547
543
544
544
541
539
539
538
538
538
538
535
537
530
537
535
535
537
535
534
535
537
538
535
534
534
535
537
539
538
537
539
538
538
535
537
537
537
535
537
537
535
535
533
533
532
532
533
533
533
532
530
530
530
528
530
524
532
528
528
527
527
525
527
527
527
527
525
523
524
525
527
520
525
525
525
525
527
528
527
525
527
527
525
525
525
525
525
524
524
524
523
525
525
524
525
523
525
528
521
523
524
524
523
523
524
525
524
525
527
520
523
524
523
523
519
523
521
524
524
525
524
524
524
523
523
523
524
524
527
527
521
525
525
527
525
525
527
525
525
525
523
524
524
527
527
528
525
532
532
532
533
533
537
539
546
548
553
563
560
552
546
542
543
537
532
528
525
525
524
521
520
519
521
516
521
520
521
520
519
513
502
490
492
521
574
642
713
756
769
772
767
758
710
618
516
464
435
420
439
467
487
500
510
513
515
511
511
513
516
515
516
514
515
513
515
516
511
516
516
516
516
515
516
516
516
518
520
520
519
518
518
519
516
520
519
518
521
521
523
523
524
521
523
525
527
527
529
530
530
533
533
534
534
535
537
539
544
548
548
553
552
552
557
558
561
562
561
561
562
560
560
557
556
553
549
553
547
546
542
539
539
538
537
538
537
535
533
532
530
532
533
528
530
528
532
533
533
535
530
533
530
529
533
534
530
529
532
532
530
532
533
533
532
530
533
532
532
528
525
532
530
527
530
530
528
528
527
527
527
523
527
525
523
525
519
523
523
524
521
521
521
523
524
523
524
521
521
521
520
523
519
521
521
520
523
523
521
523
521
521
523
523
521
523
521
524
521
523
524
523
525
525
525
523
523
523
524
519
525
527
525
525
523
525
527
525
527
528
528
527
527
525
529
523
529
530
530
530
530
530
530
530
530
532
530
530
533
530
532
530
532
532
532
533
533
533
535
538
538
542
544
543
543
544
547
552
556
561
567
571
566
562
558
556
551
546
546
537
535
532
532
530
530
530
530
529
530
529
532
530
525
511
486
486
515
566
644
720
772
790
789
788
783
749
663
527
449
425
431
460
483
500
514
520
521
521
520
521
521
518
521
520
523
521
521
521
521
519
523
524
518
523
521
523
523
518
524
523
523
525
527
524
527
527
525
528
528
529
530
532
535
528
534
535
537
539
539
546
546
547
547
547
553
556
557
557
560
563
565
567
571
570
572
576
576
574
575
572
577
571
566
563
561
561
557
553
552
547
547
547
544
543
543
541
546
539
537
535
537
537
537
533
535
534
533
532
533
533
534
532
530
533
534
535
533
533
534
532
534
535
534
533
533
533
534
535
533
535
533
535
533
534
534
532
533
534
532
527
533
532
533
530
530
530
532
530
532
532
530
530
530
530
530
525
529
530
530
528
530
530
530
528
530
530
528
528
528
529
530
528
529
528
529
527
530
528
528
528
528
529
525
527
528
528
530
525
529
528
529
530
529
525
529
528
530
528
524
529
532
532
532
528
528
529
528
529
530
527
530
529
530
532
525
530
530
529
532
532
533
532
532
532
534
532
532
532
533
535
534
538
538
541
542
542
546
547
551
553
556
567
567
570
566
558
557
556
549
543
539
537
530
532
530
529
529
524
530
528
528
528
529
525
520
501
483
487
525
589
674
747
788
797
794
790
780
728
606
479
430
421
450
476
491
510
519
520
520
518
515
518
516
518
520
519
518
519
519
519
513
519
518
516
520
518
518
520
520
520
524
520
521
520
519
523
516
521
521
523
524
524
525
527
525
525
529
529
530
532
532
533
533
537
537
539
539
539
544
548
549
551
551
557
558
561
558
557
561
561
565
563
563
562
561
557
553
553
549
552
549
549
546
539
542
542
538
537
537
537
533
529
532
533
534
528
528
525
527
528
530
530
530
527
528
528
527
525
528
528
527
525
527
528
530
527
527
521
521
525
529
530
520
525
523
525
524
520
521
523
524
521
525
521
523
523
523
521
518
523
523
523
523
519
516
520
520
520
519
520
518
515
518
520
514
518
520
520
516
516
516
515
516
516
521
520
518
519
519
519
516
518
516
518
518
519
519
519
519
519
520
511
520
520
518
520
519
520
520
519
516
519
520
519
519
520
518
513
521
519
520
519
521
523
520
523
521
521
523
523
523
523
523
523
524
523
525
525
527
525
527
527
530
532
532
533
537
538
541
542
543
546
551
556
558
563
567
561
555
551
556
551
541
537
534
528
530
529
527
528
530
529
528
528
530
530
523
520
504
490
498
543
611
686
755
788
794
790
791
777
723
597
479
440
428
441
469
487
504
516
521
523
523
519
523
523
523
525
523
521
524
525
521
523
519
523
525
523
524
518
523
523
523
524
525
525
524
525
525
527
527
528
530
530
532
525
532
532
533
538
537
537
538
542
543
543
544
546
547
547
547
553
552
555
556
560
560
562
566
567
570
569
576
571
571
569
567
567
566
562
560
557
556
555
553
552
551
547
552
547
547
543
543
543
543
542
541
541
538
539
538
538
539
538
542
539
539
538
541
538
539
538
538
539
539
538
537
538
538
538
538
537
537
537
538
538
535
537
537
535
539
530
534
534
535
533
534
533
534
532
534
533
530
532
532
529
532
525
530
530
528
528
529
529
530
530
530
529
530
528
530
530
530
528
530
532
528
530
530
529
528
530
530
530
528
527
529
527
528
527
529
527
528
528
528
525
530
528
530
530
525
528
530
529
530
530
530
529
530
529
530
530
530
530
530
530
525
528
530
533
532
532
530
530
532
532
532
532
532
532
534
533
532
533
533
535
537
537
539
541
542
543
544
549
546
548
552
556
563
567
571
571
563
558
557
555
548
542
538
541
533
533
530
530
530
530
530
530
530
530
530
528
515
495
484
495
546
617
695
756
786
788
786
783
761
693
563
467
436
432
460
487
505
519
523
525
527
523
524
521
525
523
519
525
525
523
524
523
525
525
525
525
525
525
525
525
527
528
523
528
529
528
527
529
530
530
530
530
530
532
532
530
532
534
533
535
535
537
538
535
538
539
538
541
541
546
544
544
547
547
552
552
556
560
561
561
562
566
567
565
565
570
566
563
563
561
562
561
557
556
555
553
555
556
552
549
548
553
551
547
546
546
546
543
543
544
544
542
543
543
544
543
542
546
544
543
543
544
544
546
546
546
543
546
551
546
544
544
546
547
546
546
544
543
542
546
543
543
542
541
547
544
542
539
539
539
539
541
537
538
537
538
537
538
538
539
544
537
537
538
537
535
538
539
535
537
537
538
538
539
538
539
539
538
535
538
538
535
535
535
537
538
537
532
539
535
537
537
535
534
535
534
537
535
537
537
535
537
534
532
538
537
535
538
535
538
538
537
539
537
539
538
538
538
539
539
537
538
538
538
538
539
538
537
538
537
538
539
539
539
542
539
539
546
547
547
551
552
556
557
560
562
576
576
581
577
569
562
562
557
551
546
546
541
537
532
529
532
532
538
535
534
533
535
537
535
525
507
501
515
561
630
702
761
786
788
788
783
748
660
551
479
451
440
469
491
506
520
527
525
521
519
520
527
532
529
527
533
534
532
530
518
519
525
528
525
527
527
525
523
521
528
530
530
539
543
538
528
530
525
525
525
527
529
530
532
533
535
535
537
534
532
530
528
532
533
535
538
538
546
539
538
535
535
543
543
552
556
556
561
560
560
558
561
562
561
563
566
567
561
563
557
556
556
551
548
548
548
549
548
546
547
547
547
547
546
548
543
546
543
542
547
547
549
556
548
541
542
543
547
548
542
543
544
542
542
543
543
544
541
535
534
534
546
546
542
535
538
539
537
539
542
538
533
537
535
538
544
539
532
530
530
532
529
532
532
533
532
533
539
542
533
533
533
539
549
538
523
519
521
524
530
532
532
535
529
527
532
537
535
534
534
537
537
534
530
533
530
535
535
528
527
524
533
535
530
530
532
539
534
529
530
537
537
539
537
537
539
547
537
529
528
535
535
528
530
533
537
530
528
529
527
532
537
530
532
533
528
533
538
551
558
555
546
543
551
556
562
553
551
562
571
571
561
552
544
546
538
527
523
523
521
530
532
527
527
523
519
521
520
516
511
498
486
498
546
614
693
749
779
785
783
776
735
641
533
465
434
425
442
469
490
507
513
514
516
520
514
510
504
511
520
527
527
524
525
519
511
516
516
520
519
527
535
533
524
510
516
519
530
546
529
511
509
520
528
556
581
576
562
560
567
565
577
617
599
507
490
539
567
572
553
544
523
516
524
530
528
528
542
543
537
533
538
538
546
553
555
557
561
562
557
549
553
551
566
572
566
551
539
537
533
525
525
537
561
560
527
504
510
547
546
510
501
509
520
527
520
519
528
528
527
519
513
524
527
529
523
521
525
523
521
521
513
511
519
520
519
516
518
515
511
518
523
524
521
519
513
513
518
519
518
513
511
515
518
514
516
515
518
515
516
523
516
513
518
519
520
511
520
519
519
515
515
515
518
524
519
519
520
524
524
524
523
523
529
525
523
525
525
527
525
525
521
521
513
521
523
523
521
521
523
525
525
530
525
523
529
532
529
528
527
530
523
527
528
530
529
533
533
534
538
530
533
533
535
534
543
544
543
543
547
555
556
558
563
572
577
575
567
562
561
556
546
533
533
528
525
529
528
529
532
530
530
525
527
529
521
515
506
504
530
580
659
730
767
781
783
779
762
704
604
514
462
431
422
445
478
497
513
521
520
519
515
515
511
514
516
521
521
521
520
519
518
518
518
519
516
520
521
521
520
519
520
519
520
518
521
518
520
520
523
523
519
523
525
527
528
527
525
528
529
529
533
534
535
535
538
537
546
542
543
542
543
547
553
555
556
558
561
562
562
566
563
563
562
562
561
561
558
553
555
551
551
546
547
552
546
542
542
542
539
542
538
537
541
539
539
542
539
539
539
544
542
544
547
542
542
543
542
542
544
544
542
543
543
538
542
547
543
538
537
538
537
538
538
539
538
537
535
535
537
535
535
533
532
530
532
535
533
533
532
530
530
538
528
529
529
530
532
532
528
528
532
532
529
532
532
534
534
530
528
532
532
532
535
534
532
530
532
534
535
530
534
534
533
535
532
537
534
533
530
533
534
535
537
537
538
537
535
533
533
530
532
534
532
533
534
542
539
530
533
539
541
546
538
546
548
547
552
556
560
563
571
576
580
579
574
570
562
562
553
547
542
537
535
537
537
538
537
535
535
534
535
537
535
528
521
520
537
584
650
724
766
779
779
777
771
725
644
552
491
456
436
444
477
502
518
523
530
532
530
532
529
538
533
532
535
530
532
534
533
529
534
535
535
533
533
537
533
538
538
539
538
537
535
539
538
541
537
539
541
539
539
539
543
543
542
543
543
547
547
551
549
551
551
560
555
558
560
560
562
563
566
567
570
569
572
575
575
579
577
581
577
575
574
572
571
569
566
562
561
560
557
557
556
555
552
557
549
547
551
551
548
549
551
548
549
551
551
551
551
552
549
552
549
551
548
551
551
551
548
549
549
547
552
547
549
547
546
546
542
543
542
542
539
541
539
538
538
539
543
537
535
535
535
535
535
535
533
533
533
534
534
532
533
534
532
534
532
534
535
532
533
533
533
532
535
530
532
533
532
533
532
532
532
533
534
533
527
533
533
532
533
528
532
532
532
533
533
532
532
532
532
532
532
533
533
532
533
529
535
537
539
539
542
542
546
549
551
553
558
567
570
570
562
557
553
551
542
537
535
533
527
527
527
528
518
525
527
527
527
525
525
520
513
506
518
555
617
686
743
771
774
772
767
739
668
572
506
462
432
420
444
478
493
510
519
520
516
520
519
521
520
523
521
521
520
523
523
521
521
523
523
523
523
523
525
524
525
527
523
525
527
527
530
524
529
528
530
533
530
533
537
535
537
537
539
539
543
543
544
551
547
547
547
548
549
551
552
555
558
556
560
561
562
566
566
569
567
567
567
566
566
562
562
561
558
555
553
552
549
551
546
547
543
543
543
539
541
542
542
542
539
542
546
541
543
542
543
544
544
544
544
544
542
546
544
547
548
543
548
544
544
543
541
542
543
544
542
542
537
539
538
538
538
537
533
533
535
535
533
532
532
533
532
530
532
525
530
530
528
530
529
530
529
528
528
530
524
528
528
528
528
524
527
525
528
527
525
525
525
527
527
527
527
527
525
524
527
523
525
524
525
524
525
524
525
525
525
524
525
525
525
524
525
525
527
525
525
525
527
525
525
527
529
530
525
532
533
535
535
538
542
546
547
553
557
562
562
557
549
547
548
538
532
527
527
524
521
521
521
520
523
521
519
519
521
520
514
504
493
492
520
567
640
710
755
770
771
766
757
706
614
519
464
427
411
430
460
483
496
506
511
513
514
506
511
513
515
513
513
515
515
515
515
515
515
515
515
515
515
511
516
515
515
519
516
518
519
518
520
521
521
521
519
520
521
521
523
524
525
527
527
528
529
532
535
533
533
539
539
538
539
543
543
546
549
549
552
555
557
560
560
560
563
558
558
558
556
555
552
553
551
547
543
543
543
542
538
538
530
532
533
529
528
530
528
530
530
533
532
532
530
530
530
530
530
532
532
533
532
535
539
539
538
539
539
533
538
542
543
542
546
547
543
539
537
533
530
530
527
527
530
523
529
528
525
529
528
527
528
530
530
530
527
528
528
528
529
528
527
523
527
528
529
530
532
533
532
525
520
518
514
513
520
521
523
523
521
524
524
523
525
527
525
527
520
523
527
528
527
527
527
527
528
527
527
525
525
525
527
528
523
527
530
532
532
529
527
524
519
520
523
524
525
527
528
533
533
534
533
535
537
538
542
544
544
552
557
565
566
562
557
551
548
544
537
533
530
530
523
525
525
523
520
518
523
523
523
524
521
516
502
491
492
524
576
650
721
765
777
780
776
763
714
613
510
456
425
413
437
469
487
500
510
516
518
515
518
515
518
519
516
516
516
515
518
518
513
516
516
516
518
516
516
515
518
518
520
516
519
520
523
521
516
520
521
521
525
524
525
527
527
528
529
532
533
533
535
538
542
538
542
543
543
546
549
549
551
552
553
556
561
562
562
563
567
566
565
565
563
561
561
557
556
555
549
553
546
544
541
541
538
539
535
535
533
533
532
530
528
530
530
525
530
530
530
530
530
534
532
533
534
534
534
533
534
535
539
538
538
539
538
538
538
541
538
538
539
535
537
539
539
537
537
533
535
535
533
535
532
533
532
532
530
532
524
530
528
529
529
527
528
530
527
528
528
527
527
527
528
527
521
525
527
527
528
527
527
525
524
527
527
525
525
528
530
530
527
528
525
525
525
525
523
524
524
527
525
521
525
527
527
527
527
528
527
525
527
529
523
527
528
528
528
523
528
528
527
532
530
530
539
539
542
551
549
552
548
538
533
527
535
538
542
553
561
562
562
557
548
549
547
544
538
535
533
527
528
527
528
530
527
528
528
524
524
528
518
511
495
484
502
548
616
691
746
776
781
775
777
763
700
580
470
432
414
431
460
487
505
518
523
520
516
519
518
520
521
519
516
520
523
521
524
523
523
523
525
521
523
525
523
524
525
527
525
524
525
527
525
527
528
525
525
530
529
523
530
532
529
532
533
534
535
538
539
538
542
543
546
543
544
552
548
551
552
556
557
562
563
563
566
567
567
566
566
565
563
562
561
560
558
552
552
551
547
547
543
542
546
543
541
538
538
538
535
534
535
534
535
530
533
533
533
534
528
533
534
533
534
534
535
534
535
535
535
534
538
538
535
537
542
538
537
537
538
537
538
537
538
537
538
534
535
533
534
533
532
533
532
532
530
530
530
530
529
528
532
525
529
530
529
530
527
528
528
530
528
529
528
527
527
527
530
524
528
528
528
527
528
528
527
530
530
529
529
527
527
527
528
525
527
528
528
528
527
528
528
527
530
530
528
529
528
530
530
530
528
529
529
530
532
528
530
530
530
529
524
530
529
532
532
530
530
530
532
532
533
535
537
539
539
542
546
544
548
551
552
558
565
569
567
562
556
552
551
544
539
538
532
530
529
527
527
527
527
527
525
527
527
527
524
519
502
490
492
530
591
665
732
770
776
776
775
761
706
613
507
460
427
426
455
481
500
515
521
523
521
521
520
521
523
520
521
523
521
523
523
523
523
523
524
527
525
527
525
525
525
525
528
528
529
529
528
528
528
530
530
530
527
533
534
534
535
535
538
539
539
542
542
546
546
547
548
551
558
553
556
557
560
562
563
566
567
570
571
575
575
576
577
575
577
571
571
567
562
561
561
560
556
553
551
551
549
548
547
546
546
543
543
542
541
539
541
539
539
541
539
546
541
541
538
542
539
541
542
542
542
541
542
542
542
543
542
547
546
543
543
542
542
543
544
543
542
541
542
542
539
539
541
541
539
538
537
537
538
538
535
535
538
538
535
537
535
537
535
534
533
535
535
534
534
535
535
534
532
537
529
535
535
535
533
534
534
534
535
537
534
535
537
535
537
537
532
535
535
535
535
535
534
535
535
533
535
535
534
535
537
535
533
535
534
534
534
535
534
534
535
537
534
534
537
537
535
535
538
537
537
537
535
538
532
538
537
537
538
544
538
538
538
539
542
544
546
546
548
548
549
551
555
556
557
567
571
575
576
569
563
562
558
552
546
543
542
538
537
537
535
533
533
537
535
535
537
535
534
530
516
501
497
528
579
653
716
760
776
776
775
770
734
654
551
484
449
435
454
484
505
519
529
532
530
532
529
530
530
530
530
532
532
532
530
532
532
533
532
535
534
533
535
535
534
535
535
535
538
535
534
538
537
539
538
537
539
539
539
542
542
548
542
547
547
546
548
549
552
555
552
555
557
560
561
561
563
571
567
570
571
572
576
581
579
581
583
581
579
580
576
576
574
572
569
567
567
562
560
560
558
556
556
553
556
552
551
552
552
551
548
551
551
549
548
548
549
551
548
547
553
551
551
548
548
551
548
551
551
551
547
551
551
551
549
551
553
552
551
549
548
551
549
549
547
547
546
546
544
544
543
542
546
544
543
541
542
538
541
539
539
539
539
544
538
539
538
538
537
537
538
539
539
535
537
538
537
538
537
541
538
537
537
535
537
537
535
537
537
537
537
537
535
537
538
532
537
534
535
537
538
537
534
535
535
534
537
535
537
537
538
533
537
535
535
535
537
535
535
535
534
535
530
535
534
534
535
533
535
533
534
535
535
534
535
535
533
534
530
538
538
538
542
541
543
544
546
551
552
555
558
566
570
567
563
558
553
548
542
541
539
534
533
532
529
532
530
532
532
532
528
529
529
530
516
505
495
510
556
625
701
753
770
771
770
767
752
695
574
490
454
434
440
465
490
502
516
516
521
521
524
524
523
523
523
521
523
525
525
523
525
523
524
524
525
525
525
527
527
525
527
527
525
527
523
529
527
530
530
528
529
530
530
530
532
528
535
534
535
537
546
539
543
546
546
547
548
551
552
553
553
556
560
562
562
566
570
569
571
569
567
567
567
566
562
561
558
556
553
552
549
547
547
544
543
542
541
539
538
538
538
537
535
528
533
533
534
533
532
533
535
537
537
533
533
533
534
535
535
530
535
535
538
535
538
537
535
535
537
535
533
535
537
535
537
534
537
534
537
535
533
534
535
534
533
533
532
532
532
530
530
528
528
527
528
528
528
527
527
527
528
525
520
528
527
527
527
524
524
524
524
523
525
525
525
524
525
524
516
523
524
524
525
525
525
523
525
523
523
524
524
525
523
527
524
524
524
527
525
523
525
527
525
527
527
525
527
527
525
527
525
525
527
525
527
530
524
527
527
527
530
524
528
527
528
530
529
529
528
530
528
530
530
533
535
535
537
532
538
542
543
546
548
552
561
565
566
561
556
551
547
544
539
533
532
530
528
527
527
527
527
525
525
525
521
524
524
520
498
482
486
525
584
665
732
761
771
769
770
763
730
628
497
441
420
432
460
484
498
513
523
523
523
524
523
523
518
523
523
523
521
523
525
525
525
527
525
525
525
524
525
525
527
527
528
527
528
528
528
530
530
532
534
528
532
533
535
534
535
538
539
539
541
539
542
546
547
547
548
553
552
555
555
557
558
561
562
566
567
569
571
570
571
571
569
571
570
567
563
561
560
557
556
553
549
547
549
547
547
543
539
542
538
537
537
538
537
537
535
537
535
535
530
535
535
533
535
535
534
534
535
534
535
535
534
535
537
534
532
535
535
534
535
535
533
533
535
533
533
532
532
533
533
534
529
530
530
529
527
529
528
530
527
527
528
523
527
527
525
527
528
528
525
523
524
525
521
524
523
525
525
518
523
523
523
524
521
524
523
521
523
521
523
523
521
523
523
519
523
523
523
521
521
523
521
521
521
523
523
523
523
521
521
521
521
523
521
521
521
524
521
521
521
521
518
521
521
521
521
521
521
521
521
521
521
523
523
523
521
521
516
521
523
523
524
524
521
523
525
525
527
528
532
534
533
534
533
539
542
544
551
557
560
553
547
544
541
538
532
527
525
523
519
519
519
518
519
519
516
518
519
518
519
510
496
478
476
506
565
642
714
756
767
769
761
760
724
634
511
446
418
425
456
478
495
510
515
515
515
515
515
513
514
514
515
513
515
515
515
515
515
515
515
515
515
518
516
516
516
516
516
516
518
519
520
520
520
515
521
521
523
524
520
527
525
528
528
530
530
532
532
535
537
538
539
539
542
543
549
548
548
553
552
556
557
560
561
562
563
563
563
563
563
561
561
557
556
555
551
548
546
544
546
542
539
546
539
538
537
534
535
533
534
532
530
533
532
532
530
530
529
523
528
530
529
530
530
529
532
532
530
533
533
533
532
533
533
530
532
534
533
532
533
533
532
532
529
533
530
530
530
532
528
528
529
528
528
527
529
527
527
527
528
528
521
527
525
527
528
524
524
525
525
525
525
525
525
523
525
523
520
525
525
525
527
527
525
523
527
525
530
525
525
525
525
525
524
525
524
525
525
524
524
525
527
527
525
527
527
525
525
527
527
528
527
528
528
527
524
528
530
530
530
524
529
530
529
530
528
530
529
528
530
532
530
530
532
533
530
527
532
533
532
532
533
534
532
532
533
535
535
539
538
541
542
543
543
547
549
552
556
562
567
571
567
560
560
553
548
542
538
534
533
532
529
530
530
530
530
530
528
532
525
530
523
509
491
490
520
575
653
724
763
776
777
776
767
720
620
509
460
431
435
467
490
505
516
525
527
525
525
523
523
523
523
523
523
524
525
525
523
525
523
525
525
521
525
528
527
527
528
530
529
528
529
530
530
532
530
532
533
528
533
534
535
534
538
539
538
541
544
543
543
546
548
548
548
552
553
553
556
557
560
561
565
566
567
569
571
572
572
572
571
571
567
565
563
560
560
560
557
555
553
551
553
551
547
546
543
543
546
543
542
539
542
541
539
539
538
541
544
539
539
541
539
541
542
541
542
542
539
541
542
539
539
539
538
539
541
544
541
539
539
539
538
537
539
543
538
537
538
538
533
535
535
535
535
537
530
533
534
534
533
530
534
534
532
533
532
534
532
533
533
532
530
530
533
534
533
530
532
533
532
533
534
532
533
532
532
533
530
532
532
530
533
532
530
532
532
532
534
534
533
533
532
534
527
530
528
532
533
530
530
532
532
532
534
532
532
533
534
534
527
530
533
532
534
532
532
532
533
534
533
532
533
534
530
534
533
533
529
532
533
532
533
534
533
535
537
534
538
535
537
538
539
542
543
542
543
546
551
552
556
561
567
572
565
562
557
553
547
541
538
538
537
530
527
527
529
530
533
525
528
530
530
529
521
510
498
507
546
607
684
747
780
784
784
780
771
727
618
506
462
439
431
453
481
500
511
519
525
525
525
527
525
525
525
527
528
525
527
527
528
529
523
529
527
528
530
524
527
530
529
530
530
530
530
530
530
532
528
532
533
532
535
534
537
537
539
539
541
543
546
546
548
551
553
555
557
558
561
562
562
567
572
571
570
579
577
577
577
576
584
583
577
574
572
569
566
566
562
560
555
561
555
551
549
548
547
546
546
543
541
543
541
538
538
537
538
543
541
539
538
541
538
535
537
539
539
539
543
543
539
538
542
544
546
544
544
543
542
539
541
541
542
539
544
542
538
537
537
538
537
539
538
537
537
537
535
534
534
535
533
534
530
532
535
530
529
532
530
529
528
534
537
537
537
534
530
532
534
534
533
533
533
534
534
533
534
532
532
532
532
534
532
534
532
534
534
535
533
535
535
532
535
542
534
535
535
533
532
533
535
535
533
535
537
532
533
535
538
541
538
538
538
538
538
538
538
537
537
537
537
537
537
538
537
538
539
541
542
541
542
546
548
549
549
553
562
562
567
572
575
571
561
558
557
553
546
542
541
538
535
533
528
533
533
533
529
532
534
535
528
516
504
497
515
572
654
734
784
795
793
794
791
777
702
553
453
426
427
449
473
492
510
525
527
525
528
527
528
527
528
525
525
528
530
523
528
532
530
532
530
530
530
530
532
532
529
530
529
534
533
528
535
535
535
535
537
538
537
538
538
539
544
546
546
548
549
556
556
557
561
562
563
567
571
574
576
577
580
584
586
589
589
590
590
593
589
588
588
583
579
576
574
571
571
563
562
558
556
555
552
552
548
547
547
547
544
543
543
539
548
542
543
539
539
537
538
538
538
538
537
541
541
539
539
539
539
539
538
539
542
541
543
542
541
542
542
544
541
539
538
539
538
538
539
539
537
535
537
538
534
535
535
530
533
533
534
534
532
534
534
534
533
533
534
533
532
532
533
527
530
532
532
530
532
532
532
532
530
530
530
532
532
530
532
532
530
530
530
532
529
528
528
527
529
532
525
532
529
528
530
530
530
530
530
528
528
527
528
530
530
530
524
530
529
529
532
530
528
529
528
530
532
530
530
528
530
532
527
530
532
533
533
537
538
538
539
539
542
546
548
552
557
561
565
562
556
552
551
546
538
532
532
530
529
519
523
525
524
523
523
525
524
523
520
510
486
472
486
538
617
709
767
793
793
793
790
781
729
589
458
416
418
453
478
491
507
516
519
518
518
516
518
519
516
516
519
519
520
519
519
521
520
516
519
518
519
520
521
519
523
524
521
523
520
525
525
527
528
530
529
530
530
533
534
533
535
539
539
542
548
543
547
548
549
555
558
560
561
563
563
570
571
575
574
576
580
580
579
577
577
576
572
571
567
563
561
563
558
555
551
547
547
546
543
542
542
538
538
539
538
537
537
532
538
535
534
533
534
532
532
530
532
530
528
530
529
530
532
523
527
530
530
532
530
532
530
532
532
533
533
533
532
533
534
532
532
534
532
532
532
532
530
532
533
530
525
530
530
530
530
529
529
530
530
530
532
530
528
530
530
530
525
530
528
528
528
530
530
530
528
532
529
528
530
530
529
529
530
530
528
530
530
530
530
529
530
530
532
532
532
530
528
530
528
532
533
530
532
532
529
530
530
532
533
527
533
533
533
533
532
532
533
534
533
534
533
533
533
533
534
530
535
534
535
533
535
534
535
538
541
544
546
547
548
549
547
553
560
563
567
571
575
572
562
561
561
557
556
543
543
538
538
533
537
537
534
533
535
532
535
534
533
525
502
484
490
527
593
681
749
788
797
794
795
784
755
642
496
436
426
460
488
505
520
532
533
532
529
530
530
530
529
532
532
533
529
530
532
532
530
530
530
530
533
533
533
527
533
532
533
533
533
532
535
534
535
534
537
537
538
539
539
544
541
542
542
544
543
547
551
551
552
553
556
560
561
563
566
572
572
576
579
580
583
586
586
588
586
585
585
584
583
581
576
574
571
566
563
565
561
558
558
557
552
551
558
553
553
553
551
551
548
549
548
547
546
546
546
544
544
543
547
542
542
542
538
539
543
539
539
539
539
538
538
539
538
539
538
537
539
539
538
537
539
538
537
538
537
535
535
537
537
537
534
537
535
537
535
533
529
534
533
534
535
529
533
534
533
533
533
534
534
532
532
534
532
530
533
533
530
528
532
530
532
533
533
533
530
533
534
535
532
534
532
532
533
533
534
534
533
532
534
533
532
532
534
534
528
533
533
533
532
533
533
532
532
533
530
532
532
533
534
532
527
533
533
532
532
530
530
534
533
533
533
533
532
532
533
532
529
530
532
535
537
535
537
539
543
542
542
544
548
551
552
560
562
567
567
562
557
553
556
551
543
535
535
527
528
528
528
530
527
529
528
527
524
528
527
514
495
479
488
527
598
678
743
776
781
781
777
763
709
586
468
432
426
454
479
496
513
523
524
524
519
520
521
519
519
521
523
521
520
520
521
521
520
523
520
520
523
520
521
521
520
521
518
523
524
523
523
523
524
525
524
525
528
527
528
530
529
530
527
530
532
535
533
535
538
539
538
539
537
542
544
544
544
548
553
555
556
556
556
560
561
562
566
566
563
567
562
561
560
560
560
557
552
551
548
551
549
551
547
546
543
551
544
544
542
539
542
541
539
541
539
537
539
541
542
539
539
546
542
542
538
538
538
538
541
542
539
539
538
541
538
538
541
542
542
541
538
539
537
539
537
537
537
537
530
535
537
537
534
533
533
533
534
533
533
534
532
533
533
533
527
534
532
532
532
533
530
527
529
533
533
534
529
533
533
532
529
530
533
532
530
530
529
532
532
532
533
530
533
533
534
535
533
530
530
532
532
530
533
537
533
533
535
527
530
533
528
530
527
528
532
530
528
530
532
530
530
530
530
524
530
529
528
530
530
529
528
528
525
528
530
532
529
529
535
534
538
538
538
541
542
546
548
551
556
561
571
563
556
552
551
547
538
535
530
530
528
523
525
525
523
524
521
524
523
525
527
524
510
496
490
510
561
634
706
756
775
775
776
766
719
627
524
468
439
432
454
478
496
513
520
521
520
520
518
520
520
521
520
520
521
520
520
520
521
516
520
521
520
523
521
521
520
521
523
523
521
525
525
523
525
520
523
524
524
523
525
525
525
527
527
528
528
529
530
532
530
529
533
533
533
533
535
537
537
539
541
543
546
548
551
552
556
558
558
557
558
557
557
558
555
553
553
551
555
551
548
547
542
544
543
541
541
539
537
538
538
537
537
538
541
538
538
538
539
535
537
538
538
538
537
538
538
538
538
538
541
538
538
538
541
537
538
538
538
537
539
539
538
538
537
538
533
535
534
537
533
534
530
533
533
533
533
527
533
533
533
532
532
533
533
532
532
532
532
530
530
532
533
527
530
532
532
532
530
532
530
530
530
532
532
530
532
530
532
528
529
530
529
530
530
532
530
530
530
529
525
529
528
528
530
529
530
530
530
530
530
527
530
530
530
532
523
530
529
530
530
530
529
528
529
532
529
530
529
530
528
530
525
530
530
532
533
533
534
535
538
538
535
542
546
549
552
555
562
566
562
557
549
551
544
541
535
534
528
520
527
524
523
523
521
521
523
521
521
524
520
510
497
492
511
557
617
690
744
771
774
774
766
729
644
542
479
450
430
432
462
481
496
506
514
513
515
513
515
514
515
515
516
515
515
515
514
515
515
516
515
516
516
515
515
515
516
518
511
519
518
518
520
519
520
523
521
521
523
521
523
525
525
527
521
528
530
530
530
530
534
532
533
535
535
537
537
539
543
543
546
548
549
553
556
556
557
558
558
560
557
562
557
556
553
552
551
548
546
546
542
542
542
539
537
537
537
532
535
535
535
535
535
535
533
533
535
537
535
535
533
535
535
532
535
534
537
535
535
537
537
537
538
537
534
533
538
537
537
533
534
535
535
534
532
533
532
532
530
532
525
530
528
528
529
529
527
529
527
528
528
527
527
527
527
525
520
527
527
529
527
525
525
525
527
525
527
527
525
527
528
527
523
527
527
527
527
528
527
528
528
528
527
527
525
528
527
528
527
529
529
528
525
530
528
530
528
529
529
525
530
529
529
528
528
530
530
527
528
530
530
530
530
530
529
525
532
532
529
530
530
528
530
532
532
532
533
534
535
537
538
542
542
543
544
548
553
556
561
567
569
567
563
556
553
551
546
541
537
535
535
533
530
527
530
530
530
532
528
530
532
530
516
502
496
514
561
630
706
760
783
785
784
781
757
678
562
490
455
435
436
463
490
505
518
523
525
527
528
525
525
528
528
527
527
527
525
525
525
527
527
523
528
528
527
530
530
530
529
532
533
533
530
532
535
534
533
529
534
537
537
535
538
538
538
539
539
542
542
543
546
547
547
552
551
552
552
555
555
558
560
562
565
566
567
567
570
569
571
572
571
572
570
567
567
569
565
562
560
557
562
560
556
553
551
552
551
549
548
544
543
547
546
544
546
544
551
547
546
548
548
547
547
547
544
546
548
548
551
551
548
548
553
552
552
551
551
552
551
548
551
551
548
547
547
547
547
546
547
546
543
543
544
543
542
543
542
542
541
546
541
539
541
538
542
541
538
538
538
537
538
538
539
538
538
542
537
538
538
538
535
538
538
538
539
537
538
537
537
537
537
533
538
538
538
539
537
539
538
539
537
539
543
538
537
537
537
537
537
535
537
535
537
535
538
538
537
539
544
537
537
539
538
538
538
537
537
539
537
537
538
538
538
538
542
541
539
542
541
543
544
543
544
546
547
548
552
556
560
561
567
574
574
569
561
560
557
553
546
542
538
532
532
534
533
532
532
533
533
533
534
535
533
527
511
505
515
557
612
684
743
776
780
779
779
769
727
627
514
463
440
431
449
474
495
511
524
525
527
527
527
527
527
528
527
527
525
527
528
527
530
527
525
530
529
529
528
528
528
529
523
530
529
530
533
532
533
532
533
533
534
535
535
537
535
538
541
539
543
543
542
546
547
549
549
551
549
553
557
557
557
560
563
562
565
566
566
570
571
571
570
572
571
572
569
567
566
563
562
561
558
556
555
551
549
551
548
547
543
551
544
543
543
543
543
542
542
542
542
541
543
543
543
542
543
551
546
546
546
544
546
547
548
547
548
546
547
549
548
546
546
547
547
547
546
546
543
544
542
542
542
538
546
539
538
538
539
538
538
537
537
535
537
535
535
535
537
537
530
533
534
537
535
537
534
534
533
533
535
533
532
534
534
534
529
534
534
533
532
533
535
533
535
533
535
534
532
533
533
534
530
532
532
532
532
532
533
532
532
533
533
527
532
533
532
534
532
532
533
533
532
535
534
532
532
533
533
529
534
534
534
534
535
535
535
533
535
538
535
537
538
542
542
544
546
546
547
547
549
555
557
562
567
569
569
562
557
556
552
549
542
539
537
534
533
530
533
532
530
530
527
530
530
530
528
515
496
490
506
555
623
702
757
777
780
777
777
761
705
583
481
440
425
450
481
498
511
523
525
527
525
525
524
523
524
523
523
525
524
524
523
525
525
520
525
527
525
527
524
527
528
530
527
528
525
528
527
530
530
525
530
532
532
533
532
534
534
535
538
537
539
543
542
543
543
551
546
549
551
552
553
555
557
560
561
562
565
567
569
571
571
570
571
570
569
567
563
565
562
561
556
553
558
552
549
547
546
548
543
544
542
541
538
539
537
538
537
533
528
533
533
532
533
532
532
532
532
533
535
533
535
533
533
537
532
535
535
534
535
537
535
534
534
535
535
534
533
535
535
535
532
533
534
533
533
532
532
532
530
529
529
527
530
530
528
530
527
530
528
530
527
530
528
530
527
530
528
524
527
528
530
530
528
528
528
530
528
528
529
530
528
528
528
527
527
528
528
530
528
528
529
529
527
530
527
528
528
528
528
529
529
529
529
530
529
524
530
530
530
530
525
530
530
529
529
530
530
533
532
530
532
530
532
532
532
533
527
532
533
532
533
532
532
533
532
533
533
533
535
538
539
543
543
543
543
548
551
553
557
563
569
572
569
566
557
555
553
546
538
537
533
533
530
532
530
530
529
530
530
525
530
530
527
518
498
486
496
538
602
682
741
776
781
780
777
765
710
598
495
454
430
440
469
491
509
521
525
525
525
524
525
524
524
524
525
523
525
523
523
525
527
527
520
525
525
527
528
527
529
527
527
530
528
528
529
530
530
532
528
532
533
532
532
535
535
539
539
539
538
542
546
546
546
547
551
549
549
553
553
556
560
561
562
563
566
572
570
572
574
575
574
572
572
574
571
567
567
563
562
560
557
561
555
552
552
551
551
548
547
546
546
543
543
543
543
543
539
546
541
539
539
539
537
538
538
538
538
537
537
537
538
538
539
539
542
539
538
539
538
539
539
539
538
538
544
539
537
538
538
538
535
535
534
533
535
532
532
533
532
532
527
529
530
530
532
532
529
529
530
530
530
530
528
529
530
530
528
530
530
530
528
530
529
530
528
530
530
528
527
529
530
529
525
529
528
530
530
530
527
527
527
530
530
523
528
527
525
528
527
527
528
529
527
528
528
528
527
527
525
521
527
528
525
527
528
529
528
528
528
530
528
529
528
527
530
527
528
528
525
528
529
529
528
525
528
529
529
528
528
532
532
532
535
537
535
538
539
541
543
547
548
553
563
563
567
562
555
551
548
544
538
533
530
529
527
524
523
524
520
523
527
524
523
523
521
521
510
492
482
498
547
620
696
752
776
780
779
775
747
668
552
477
440
425
445
469
492
505
515
516
516
516
516
516
518
518
513
516
518
518
519
513
516
519
518
518
516
518
519
518
520
521
520
519
520
521
523
519
521
523
523
524
527
525
527
528
528
530
530
532
530
533
535
534
538
539
539
541
546
547
548
551
551
552
560
556
557
561
562
566
566
566
566
565
563
563
562
562
557
556
558
551
547
548
546
544
543
542
539
539
535
535
533
533
534
533
530
532
530
528
530
530
529
528
530
529
530
530
532
530
530
532
530
532
533
533
533
533
532
533
533
533
534
530
534
532
532
533
530
533
530
530
530
530
530
528
528
527
527
521
527
527
525
527
527
525
524
525
527
525
525
524
525
525
525
525
524
527
527
527
525
525
525
524
525
525
525
525
525
527
525
524
527
527
525
525
528
523
527
527
525
527
520
525
527
527
528
527
527
527
527
527
527
529
525
528
528
530
524
528
528
529
530
529
528
530
530
529
528
530
530
530
529
532
529
530
533
530
530
532
532
530
533
532
530
527
532
533
530
533
530
534
533
534
537
535
538
542
541
543
542
552
551
553
561
565
569
571
566
560
555
551
548
542
537
537
533
530
532
529
532
532
530
532
529
532
530
530
523
510
492
493
524
580
658
729
771
784
784
785
775
732
635
524
469
439
434
460
486
501
516
523
527
525
525
525
527
524
525
525
521
527
527
528
525
527
528
528
528
527
528
527
529
529
528
532
530
530
529
532
532
532
535
533
533
534
538
537
537
539
539
539
543
543
546
546
548
548
549
552
553
555
556
561
558
562
561
565
569
570
571
574
574
576
575
576
576
576
572
576
571
570
565
562
561
561
561
557
557
553
553
552
551
551
548
548
547
544
543
544
543
544
542
542
542
542
549
543
544
544
546
546
544
547
546
543
544
547
548
546
547
546
552
547
547
548
547
548
546
544
546
544
542
543
546
543
543
541
546
541
541
539
541
538
539
539
539
541
538
539
538
538
538
539
538
538
538
537
538
535
537
537
537
537
538
542
538
537
538
539
538
538
538
537
537
535
538
539
537
537
538
542
538
538
538
539
535
538
537
539
538
535
538
537
537
537
538
539
538
539
539
539
535
539
539
538
537
539
539
539
539
539
539
539
541
539
539
539
542
542
541
541
541
541
546
542
541
539
542
542
539
541
542
542
539
544
546
544
547
551
556
552
553
557
561
562
567
575
579
580
574
567
562
562
557
551
548
544
542
538
537
535
538
538
537
537
537
542
538
537
529
515
498
498
527
580
659
729
770
786
788
786
777
738
641
530
477
446
440
467
491
506
521
530
530
530
528
530
530
524
530
530
529
530
530
530
530
532
530
532
532
530
530
532
532
530
530
533
533
532
533
534
533
533
533
534
529
534
535
537
538
539
539
542
542
542
543
547
547
548
551
551
557
556
557
558
561
563
566
567
570
572
572
575
579
583
579
579
581
577
574
572
571
569
567
565
561
558
557
557
555
552
552
551
551
548
546
544
543
543
543
544
544
543
541
547
542
542
541
541
542
542
542
542
542
543
542
543
543
546
543
551
546
546
543
543
543
544
546
544
546
543
546
543
542
543
543
543
541
542
539
539
537
538
538
537
537
537
538
538
537
537
538
538
538
537
537
537
537
533
537
537
537
535
530
537
538
535
535
534
535
534
534
534
535
535
535
537
535
535
541
537
537
538
538
537
535
535
537
537
538
535
537
535
535
537
537
539
538
535
535
537
535
535
537
535
537
530
537
535
535
535
538
537
537
538
538
537
539
538
538
539
539
544
537
538
537
537
538
537
538
538
539
537
539
542
543
544
542
551
547
547
551
553
557
560
565
570
574
575
571
565
561
558
552
548
546
543
539
538
537
537
535
535
535
537
542
538
537
534
523
506
497
511
553
620
696
753
779
783
781
779
758
686
577
501
464
441
446
474
496
513
524
530
530
530
529
530
528
529
530
532
530
532
530
532
530
532
534
532
533
532
532
533
533
534
533
533
532
533
534
535
534
534
535
532
538
538
538
539
539
542
542
542
542
543
547
549
549
549
549
557
555
556
557
560
561
563
566
567
567
567
571
572
572
572
572
575
572
572
571
567
566
566
563
562
557
555
558
553
552
551
548
548
547
546
546
542
539
542
542
543
543
541
547
542
543
543
544
546
542
543
543
543
543
546
543
544
546
543
547
544
547
543
543
542
543
543
543
543
541
542
542
539
541
538
541
539
538
537
537
537
537
537
533
533
535
530
533
537
534
535
533
533
532
532
533
534
533
532
532
532
532
527
532
532
530
530
532
530
532
532
532
530
529
530
529
532
530
527
530
530
529
532
533
532
528
530
530
532
530
530
528
530
530
530
530
530
530
530
530
530
529
530
528
530
525
530
529
532
530
530
530
530
529
530
530
530
528
528
530
530
527
532
529
530
530
532
534
534
535
538
538
538
538
541
543
547
551
556
561
569
569
561
557
553
548
543
539
534
534
530
528
527
525
525
527
528
527
527
521
525
520
507
492
487
516
569
653
725
767
779
777
776
770
739
641
511
450
428
426
449
477
495
507
516
520
520
521
520
519
521
521
520
520
521
521
521
520
521
521
523
524
523
523
524
524
525
520
525
525
525
525
525
528
528
528
530
529
529
529
532
532
535
530
533
537
537
539
539
543
543
544
546
547
548
551
552
556
556
562
560
561
563
565
565
567
567
567
566
566
566
563
562
560
556
556
553
551
551
547
547
546
543
542
539
539
546
539
538
537
539
535
537
535
535
537
538
537
537
535
535
535
533
538
538
537
538
538
538
539
538
538
535
538
537
538
539
538
538
537
537
535
537
537
537
534
534
533
535
534
533
532
533
533
532
532
532
530
532
532
530
530
532
532
532
527
532
532
530
532
528
530
530
529
530
532
530
530
530
530
530
527
529
532
530
530
532
529
530
532
532
532
530
530
530
528
530
528
530
530
530
530
529
529
530
530
530
532
527
530
530
530
532
530
530
530
532
532
532
528
532
532
532
532
529
532
533
532
534
532
532
533
534
532
534
533
533
532
533
533
532
535
538
539
542
539
543
543
546
547
551
557
561
566
571
566
562
556
553
551
543
539
538
535
532
530
533
527
530
530
532
530
530
530
530
524
510
492
490
515
567
648
724
770
781
780
777
772
741
653
527
460
430
436
468
488
505
519
525
523
523
521
523
524
523
523
525
524
524
523
524
525
524
524
525
523
524
524
524
525
525
525
525
527
527
528
523
528
530
532
532
529
533
533
533
535
535
535
535
538
538
543
547
546
547
548
548
548
551
552
553
556
557
560
562
563
567
567
571
572
574
571
572
570
571
567
566
563
561
563
557
556
555
553
551
548
548
548
546
544
544
542
542
542
539
533
539
539
538
539
539
539
538
537
539
537
539
538
539
538
539
543
539
539
539
539
539
541
542
542
542
541
543
541
542
542
539
542
541
539
539
538
537
538
539
537
537
537
530
537
535
537
535
537
535
535
535
535
535
535
533
534
533
535
530
535
533
534
534
534
534
533
533
532
533
532
533
533
533
533
532
532
532
533
532
532
530
532
532
532
533
532
532
533
532
532
532
530
532
532
532
533
532
530
532
533
533
527
533
533
530
532
530
530
532
532
532
532
532
532
533
533
534
527
534
533
533
533
534
532
533
533
534
532
533
533
533
535
535
538
539
539
542
539
542
546
551
553
556
561
570
569
567
561
556
553
551
543
538
537
533
527
530
528
530
528
523
527
528
528
528
527
524
510
493
484
509
558
632
710
763
784
786
784
779
743
656
535
470
439
430
455
482
498
514
519
521
521
520
521
521
520
521
521
521
520
521
523
523
518
521
521
521
521
521
524
524
523
525
525
523
527
525
525
527
523
530
528
530
529
529
530
532
535
533
535
535
535
538
538
539
547
543
543
546
548
548
552
552
556
557
557
561
563
566
566
569
570
570
569
570
567
566
563
562
561
560
556
558
552
551
549
547
546
543
543
542
542
538
539
539
538
538
538
530
535
533
533
535
533
533
535
534
535
535
537
534
535
535
537
535
538
537
537
537
535
537
538
537
535
538
538
537
538
535
537
533
535
535
534
532
532
532
533
532
533
533
527
532
532
532
532
530
529
530
530
530
530
530
530
532
530
530
527
529
528
530
529
530
528
528
530
528
529
528
528
529
527
527
524
527
527
527
528
527
527
525
527
527
527
525
525
527
528
528
528
528
527
527
527
530
524
528
527
528
528
523
527
530
529
528
528
530
530
528
528
530
530
528
528
530
530
527
532
530
529
530
530
532
530
530
530
532
530
532
532
533
534
530
533
534
535
538
538
542
542
544
546
547
556
553
561
567
571
569
562
557
552
551
544
542
538
533
532
530
523
528
528
530
528
530
528
530
530
528
519
501
491
505
548
618
702
762
788
791
790
785
761
687
575
492
451
430
436
465
488
506
516
519
523
521
520
523
521
521
523
521
523
518
523
523
524
524
523
525
524
524
523
524
523
524
525
524
525
520
527
528
528
528
530
530
529
532
533
530
532
534
535
535
538
539
541
541
539
543
544
551
551
552
552
551
560
558
560
562
563
567
571
570
571
572
572
574
572
570
569
567
569
561
561
558
556
557
555
552
548
547
547
548
547
546
544
542
546
539
541
543
542
541
543
542
543
543
542
543
544
546
546
546
547
546
546
546
547
546
546
544
546
547
546
552
547
547
548
548
547
543
546
543
543
543
542
541
542
542
539
546
539
538
538
537
537
538
539
538
538
534
535
538
538
537
538
544
538
537
537
537
535
535
537
534
533
535
535
535
535
534
535
535
537
537
535
535
537
537
535
534
533
534
529
537
535
533
533
534
535
535
535
533
535
535
532
535
535
537
529
534
533
533
535
535
537
537
534
535
535
537
535
535
533
537
539
535
535
534
534
535
535
537
535
537
537
537
535
535
535
537
538
538
539
539
542
543
546
547
547
552
553
562
562
567
574
577
574
569
563
561
557
551
547
542
541
538
538
532
534
537
537
534
534
535
534
537
532
523
507
505
525
572
640
715
767
789
791
789
788
772
715
595
490
454
432
437
464
491
506
518
528
530
529
532
529
525
532
530
530
532
527
530
532
534
533
534
532
533
532
532
533
532
532
532
535
537
532
534
535
535
535
535
535
535
535
537
537
538
542
539
543
542
546
546
548
549
549
551
556
556
556
557
557
566
563
563
566
567
570
572
574
575
574
572
575
574
574
572
570
571
565
565
563
561
557
557
556
552
551
548
548
547
546
544
542
546
543
544
543
542
541
542
539
541
541
539
543
541
539
542
541
543
544
544
543
543
543
546
544
543
543
542
548
544
543
542
539
542
542
541
541
541
537
538
537
538
537
538
533
537
535
535
535
533
533
533
532
533
533
534
533
533
532
532
530
532
533
532
530
532
532
532
530
532
530
530
530
530
529
530
528
530
530
530
529
530
525
530
528
528
530
524
528
528
528
530
528
530
528
530
529
530
530
530
532
530
530
527
529
532
530
530
532
530
532
530
532
533
532
530
532
533
532
532
532
533
530
532
532
532
532
532
530
533
527
533
532
533
533
533
535
535
538
539
537
541
543
544
547
548
556
557
561
566
567
566
561
556
553
551
542
538
537
533
530
528
527
528
528
528
527
527
527
529
527
523
515
496
482
493
534
602
683
747
777
784
781
779
767
723
616
493
444
418
440
470
490
505
516
521
523
520
519
521
521
521
519
520
523
516
521
521
520
520
521
523
519
520
523
521
521
521
524
523
525
523
524
524
525
525
525
527
528
528
527
530
529
530
532
532
535
535
535
535
539
538
542
543
543
546
549
548
556
553
555
557
557
560
561
563
566
567
567
569
566
566
566
565
566
561
558
556
553
551
551
547
546
543
543
543
541
539
538
538
538
537
537
535
535
534
532
532
529
530
532
527
532
530
533
530
529
529
530
532
532
533
530
532
532
530
532
530
535
533
535
533
535
534
533
533
530
533
530
532
530
532
530
524
528
528
525
527
527
525
525
524
525
525
524
524
523
521
524
521
523
523
521
521
521
521
521
521
520
523
516
521
520
521
520
519
519
520
520
519
521
520
519
518
519
519
515
519
519
519
518
519
519
519
519
519
519
519
519
519
516
518
516
518
519
519
520
520
519
520
520
520
520
520
520
519
518
520
518
519
519
519
516
520
519
519
518
516
520
513
520
519
519
520
520
521
520
520
521
521
521
523
523
523
524
520
527
527
530
532
533
534
533
534
538
538
543
548
556
561
561
560
553
547
546
542
537
532
529
527
524
524
518
524
521
521
521
520
521
521
521
519
511
490
481
488
523
585
669
732
767
779
777
776
766
719
620
505
455
430
431
459
481
496
507
516
518
519
516
515
516
516
516
519
518
518
520
520
520
519
518
520
520
520
520
521
520
521
521
524
523
516
521
521
523
524
523
524
525
527
528
530
528
530
532
530
533
529
535
538
538
539
539
543
543
544
546
548
551
552
556
557
558
563
562
566
567
567
567
570
570
569
567
567
567
566
563
561
557
557
552
553
551
549
547
547
546
544
542
539
547
539
539
539
539
539
537
539
537
537
537
538
539
537
537
537
542
539
537
539
538
538
539
541
539
541
538
541
541
541
541
539
542
539
539
541
539
538
542
539
539
539
539
541
537
537
535
535
535
537
537
535
537
535
530
533
535
535
537
530
535
534
535
534
533
537
535
535
534
537
537
535
535
534
535
530
534
534
535
538
535
535
535
535
535
535
535
537
538
537
534
535
535
537
538
537
534
537
538
537
535
538
543
538
535
535
535
535
535
535
535
537
535
537
539
538
538
539
542
539
538
538
539
537
538
538
538
539
535
537
538
539
538
538
542
538
538
539
538
538
539
539
541
539
538
539
542
544
546
544
546
547
548
551
549
555
561
563
570
574
576
577
566
561
560
555
551
546
544
542
537
538
537
537
535
537
537
532
538
535
535
533
521
507
498
510
551
609
684
743
771
777
779
775
760
705
603
510
469
441
445
472
495
514
525
528
529
529
530
530
529
530
530
533
532
529
529
530
532
532
527
533
533
533
533
532
530
530
532
534
537
535
535
535
537
538
532
537
535
537
538
538
539
542
542
544
546
546
547
551
551
552
556
556
557
560
561
562
561
563
567
571
572
577
574
576
575
577
579
576
576
576
574
572
570
569
565
565
561
566
561
556
556
553
553
552
553
551
548
546
546
546
544
544
544
551
544
544
543
543
543
542
543
543
544
544
548
546
546
546
546
547
546
548
546
547
547
547
546
547
548
546
551
547
548
547
546
547
547
547
542
542
542
543
543
543
542
539
546
539
538
539
539
539
542
543
541
539
537
539
541
541
541
539
543
539
539
539
539
538
539
538
539
541
542
542
539
538
537
539
543
539
538
539
542
542
543
541
541
538
538
546
542
541
542
538
542
543
543
543
539
539
542
542
541
541
539
544
539
542
538
538
541
542
541
541
541
539
541
542
543
542
542
543
543
543
542
542
542
543
542
541
542
541
546
542
543
543
543
547
543
547
546
549
551
553
555
552
552
556
565
562
563
569
577
581
579
574
567
562
558
556
551
547
547
543
546
542
541
541
539
539
542
539
541
539
541
530
514
510
533
580
656
728
774
788
786
784
783
765
696
567
482
454
444
453
479
502
515
527
533
533
535
535
533
533
535
537
535
530
537
535
533
533
537
533
535
535
535
538
537
538
535
535
538
543
538
537
537
538
537
535
538
539
541
539
543
543
546
544
542
548
552
552
556
556
557
557
560
561
562
565
572
569
571
574
574
579
580
581
581
584
584
584
583
581
583
580
583
576
572
570
566
563
561
561
558
557
552
552
551
548
547
547
547
546
544
543
542
541
543
543
543
543
539
544
543
543
541
542
543
544
543
542
542
542
543
542
542
543
542
549
543
542
542
539
541
539
538
537
538
537
537
537
537
537
538
530
534
533
533
532
532
532
533
534
532
533
533
532
532
533
533
530
532
530
530
532
530
529
532
530
530
530
525
530
530
530
530
530
528
528
528
530
529
527
530
530
528
529
524
528
528
528
530
530
530
528
529
530
529
529
527
527
528
530
524
530
527
527
528
527
528
528
528
528
529
530
529
530
529
530
528
530
530
530
529
530
530
530
530
530
530
525
528
530
530
532
530
533
534
535
538
535
539
541
539
542
547
555
553
560
562
566
565
561
553
552
548
542
537
533
532
530
528
527
525
525
528
527
525
525
527
527
521
510
488
482
505
560
640
716
767
785
784
781
781
757
682
548
454
421
420
454
478
495
507
515
518
516
516
518
518
516
516
518
519
519
514
518
518
518
516
519
519
518
519
520
521
521
519
521
521
521
520
521
523
523
525
525
527
527
528
527
532
529
533
533
535
537
539
539
541
543
546
547
548
552
552
555
556
562
561
563
566
567
567
571
571
572
572
570
569
570
567
566
563
565
557
556
552
551
548
547
546
544
542
542
539
539
538
538
537
534
535
533
534
533
530
530
532
532
530
532
527
530
530
532
532
532
530
532
533
534
533
533
532
534
533
534
530
533
535
533
534
534
533
533
533
532
530
529
530
530
528
530
527
528
528
527
527
528
525
525
527
527
527
527
527
525
527
527
525
527
527
525
527
525
525
525
525
525
527
520
524
525
525
529
525
525
525
525
525
527
525
523
525
524
525
521
525
527
525
525
525
525
527
525
527
527
525
525
525
524
525
523
525
525
525
527
527
527
525
524
527
527
525
525
527
529
527
527
528
527
527
527
525
523
525
527
528
528
520
527
527
530
528
527
528
528
530
528
530
530
528
530
533
532
532
538
537
539
541
539
546
551
552
560
562
566
562
555
549
548
547
538
535
532
529
528
527
527
527
525
527
523
528
527
527
527
521
513
493
484
505
549
622
700
756
781
784
785
776
753
683
563
479
442
428
451
478
495
509
518
519
520
519
515
519
519
518
519
520
520
520
518
520
520
519
519
520
520
520
520
521
521
521
521
523
524
525
525
527
527
520
527
527
528
530
528
529
530
532
533
535
534
535
537
537
542
546
544
546
546
547
551
553
553
556
557
560
561
565
567
567
567
570
570
567
569
567
565
562
562
558
557
553
555
552
551
547
546
547
544
542
542
538
539
537
539
537
535
537
530
533
534
533
530
532
532
533
530
532
534
532
533
533
534
535
532
537
537
537
538
535
538
537
537
537
537
537
535
535
535
535
533
534
534
533
533
532
533
530
530
530
530
525
530
530
530
532
528
528
529
528
528
530
524
530
528
527
528
523
528
528
528
529
530
528
528
527
530
528
528
529
528
528
530
524
530
528
529
530
528
529
530
530
528
530
529
527
529
528
529
527
528
530
528
529
529
528
530
528
530
529
523
529
530
528
530
527
530
528
529
529
530
528
530
529
530
530
524
529
530
530
530
529
530
532
530
530
530
530
530
532
530
529
528
529
530
530
534
533
533
537
538
538
542
542
547
551
552
557
563
566
566
561
555
552
548
543
538
534
534
527
530
528
529
530
528
528
528
528
529
530
527
523
510
495
495
519
577
655
729
772
785
783
781
770
724
628
518
467
440
437
464
488
502
515
521
523
524
523
524
525
524
525
523
524
523
525
525
525
527
525
525
527
528
521
527
527
525
527
523
529
530
530
533
529
532
532
535
534
533
535
535
537
539
537
537
539
542
542
543
546
547
549
549
552
552
553
557
558
560
562
569
569
572
572
576
576
576
577
577
576
572
577
572
570
570
566
565
561
560
557
556
553
555
552
551
548
548
552
546
544
543
542
543
542
541
539
542
538
539
538
538
542
539
546
542
542
542
539
539
542
542
542
542
541
542
543
543
542
539
541
542
542
542
539
538
539
539
539
538
538
532
535
538
538
538
533
535
537
533
533
534
537
535
537
534
535
530
533
535
533
532
534
532
532
533
535
535
533
533
530
530
533
530
530
532
532
530
530
530
533
532
530
532
530
530
529
530
532
530
532
532
533
532
530
530
530
530
529
530
523
529
529
530
528
530
530
532
532
530
529
530
528
530
533
532
527
530
529
530
530
530
530
530
529
530
533
530
533
530
529
533
530
532
532
532
532
533
535
535
537
537
538
546
543
547
551
552
558
565
569
567
562
556
552
549
546
541
538
529
534
532
530
530
529
530
529
529
530
532
532
527
519
504
496
511
561
632
706
763
789
789
786
784
762
695
563
477
451
435
444
472
493
510
520
525
525
525
525
525
525
525
520
525
527
527
527
525
527
527
528
527
527
527
528
530
528
530
524
528
528
532
529
530
530
532
532
532
532
532
532
533
538
537
534
539
539
539
542
543
546
547
549
549
549
556
558
560
561
562
567
569
571
572
572
572
576
576
572
572
571
572
567
566
562
560
560
556
553
552
549
549
548
547
547
543
543
546
542
541
542
539
537
538
539
538
539
535
538
538
537
538
539
539
539
538
538
539
537
538
538
538
538
541
543
538
538
538
539
537
537
537
537
537
538
530
533
533
535
535
528
532
533
530
532
532
530
530
528
530
530
528
528
528
527
530
523
528
528
530
529
527
528
528
527
527
528
527
527
527
525
530
527
528
527
528
528
528
527
528
529
528
528
523
527
527
530
530
528
530
530
528
528
530
530
530
529
530
530
525
530
532
529
530
532
530
532
532
532
532
530
532
533
534
532
530
533
532
532
533
533
533
532
533
533
533
534
533
534
534
535
535
538
539
543
543
547
546
548
551
552
553
565
565
569
572
569
563
558
557
553
546
542
538
535
535
533
533
527
532
533
532
532
533
532
532
523
505
492
500
538
607
686
749
781
786
784
783
767
718
597
487
445
431
456
484
501
518
527
530
528
528
528
528
528
530
525
530
530
530
532
524
530
533
532
534
530
533
532
534
535
534
535
533
535
535
538
539
537
538
538
539
539
539
542
543
542
543
546
547
549
551
552
556
557
560
560
561
562
566
567
570
571
571
579
577
579
581
584
584
586
586
584
584
579
580
579
577
574
572
574
569
566
563
562
561
560
557
557
556
553
553
553
552
549
548
553
551
548
547
547
547
547
548
548
547
546
549
548
549
548
548
548
551
551
551
548
551
551
551
552
551
549
555
552
551
551
551
553
552
552
552
549
549
548
548
548
547
547
551
547
546
546
546
546
547
544
546
546
544
542
544
544
543
546
546
543
543
543
544
543
544
542
542
543
542
543
544
543
543
542
542
543
544
543
539
542
543
542
542
542
542
546
543
542
542
542
543
542
539
542
543
542
543
542
542
543
542
547
543
544
544
542
542
544
544
544
543
543
543
546
543
543
544
547
546
543
546
546
546
544
547
546
546
543
552
548
551
552
552
556
556
557
558
561
563
569
575
579
581
580
579
569
566
561
556
551
548
547
547
543
541
541
539
539
539
541
543
539
539
534
519
501
498
524
580
654
727
769
788
786
786
776
737
644
533
477
444
441
469
495
511
523
530
528
533
530
532
532
529
528
530
530
530
533
533
530
530
530
532
525
532
530
530
532
530
528
530
532
533
533
532
533
532
533
535
533
535
535
538
539
538
541
542
541
546
546
548
551
552
555
557
560
558
561
565
567
567
572
576
575
579
580
585
583
581
580
579
577
575
574
569
562
561
561
558
555
552
549
553
547
544
543
544
539
538
538
535
535
535
533
533
533
533
532
533
530
530
529
533
532
530
533
533
533
535
532
533
532
535
534
532
533
533
534
535
535
530
535
533
533
533
527
534
532
532
533
530
530
530
529
530
530
530
529
528
527
529
523
527
527
524
525
528
525
523
525
528
525
525
525
524
525
525
523
523
523
524
524
525
525
523
523
524
525
519
523
523
523
524
521
524
523
525
525
525
523
525
524
523
525
518
525
525
523
525
525
525
527
524
525
528
528
527
527
527
528
524
527
528
529
528
528
528
528
528
530
530
528
529
530
533
535
535
537
538
542
542
543
546
551
552
561
562
570
562
555
552
551
549
541
535
533
530
528
527
527
525
527
527
521
527
525
524
524
519
497
482
484
521
580
663
734
772
781
777
777
770
737
628
491
435
420
437
468
487
502
515
520
521
519
518
519
518
519
519
520
521
518
519
520
519
520
514
520
521
521
520
521
523
521
521
523
524
523
525
523
525
527
523
529
530
529
532
532
532
535
537
537
538
543
543
546
547
549
553
555
557
558
560
561
567
567
571
574
575
584
581
580
581
579
581
579
575
572
571
569
565
561
558
555
552
556
551
548
547
547
546
543
544
543
543
544
544
543
539
538
539
542
535
535
537
537
535
535
537
535
535
535
535
535
534
537
537
533
533
533
534
534
533
533
533
533
532
533
528
533
532
533
532
532
533
530
532
530
530
529
530
530
530
529
524
528
527
527
529
527
527
527
527
528
527
528
529
527
525
527
525
528
527
527
529
528
527
527
528
527
528
528
528
528
529
529
527
528
528
528
530
530
527
529
530
529
528
521
530
528
529
528
527
529
530
530
530
530
530
528
530
528
532
525
530
532
532
532
532
532
530
532
534
532
532
532
534
533
532
530
533
533
533
533
532
533
535
537
537
542
551
544
546
546
547
552
556
561
566
569
566
562
558
556
552
548
546
538
537
532
530
530
530
530
530
532
532
528
532
529
525
514
492
484
504
556
631
709
761
780
781
780
776
751
677
539
455
430
436
469
491
506
520
525
523
523
524
523
524
518
523
525
524
525
523
523
524
521
525
527
524
525
525
525
528
523
528
528
529
528
530
528
529
532
532
532
533
533
533
534
534
534
538
539
539
539
539
544
543
547
547
548
551
552
556
557
561
562
563
567
570
571
572
574
576
576
576
575
580
572
572
572
565
565
562
560
557
556
552
552
549
549
548
546
551
546
544
543
542
541
542
539
539
539
538
538
539
537
537
538
538
538
538
538
537
535
537
537
537
535
537
541
537
537
539
537
537
535
533
534
534
537
533
535
534
533
534
528
534
532
533
533
534
533
533
533
533
534
534
533
534
533
533
530
533
533
532
533
532
532
532
533
532
532
532
530
532
530
532
532
532
532
533
533
533
533
532
532
533
533
528
533
532
532
533
532
533
534
534
534
534
532
533
533
533
534
528
533
535
534
532
533
534
535
533
535
535
533
533
533
534
532
530
533
533
533
535
535
534
533
533
534
535
533
535
533
534
533
532
535
537
537
537
542
544
543
543
546
547
556
556
557
562
567
574
572
567
560
558
555
551
548
539
537
537
530
533
533
534
534
532
533
534
532
533
532
524
506
491
496
533
597
670
737
770
776
777
775
761
706
593
490
454
435
454
482
501
515
525
527
528
525
530
525
525
528
527
527
521
525
527
527
527
528
527
525
527
529
528
525
528
528
529
530
525
530
530
533
534
533
533
533
533
535
537
533
533
535
535
538
538
541
539
541
539
543
546
546
546
547
551
556
553
552
556
558
561
565
566
569
569
569
571
572
569
570
569
572
567
566
565
562
561
560
557
555
552
549
551
551
551
548
547
552
546
547
547
547
546
546
543
543
542
543
543
544
543
543
544
547
543
542
543
543
544
546
546
544
543
541
547
542
543
542
542
543
542
542
542
542
538
538
541
542
539
539
543
539
539
539
542
538
539
537
538
538
535
538
538
537
537
535
539
538
535
535
538
537
537
535
535
537
538
535
537
537
537
535
534
537
538
537
538
537
538
538
535
537
537
530
538
537
537
537
535
535
535
538
537
538
538
537
537
537
537
532
537
538
538
537
535
537
537
537
538
537
538
537
539
537
539
539
538
538
538
538
537
538
539
538
538
538
542
538
539
538
539
539
542
546
547
548
548
548
551
555
556
556
566
567
574
577
572
567
562
560
555
551
546
542
539
537
535
534
530
535
535
533
533
533
534
535
534
525
511
498
506
546
603
676
737
771
779
779
776
756
692
588
505
472
446
441
472
496
510
523
529
528
530
530
532
530
530
532
530
530
530
527
530
529
532
532
532
529
530
532
532
532
530
533
532
532
533
530
530
535
533
533
534
534
533
535
535
537
538
538
538
539
539
541
542
543
542
544
544
546
547
548
549
549
560
556
556
557
558
562
562
565
567
569
567
566
569
569
567
563
567
562
560
557
553
553
552
552
551
548
547
547
546
546
544
542
543
543
539
542
542
539
538
539
539
542
542
542
542
543
542
542
543
543
542
542
539
542
539
539
542
542
539
544
538
538
539
539
541
539
539
537
537
537
537
535
535
533
533
529
535
533
534
533
532
529
530
530
530
528
530
529
528
528
530
527
530
528
530
529
528
528
527
528
528
528
523
527
527
527
527
524
527
525
527
525
528
523
527
525
527
528
519
525
527
527
525
525
525
523
524
523
525
524
523
525
525
527
521
525
524
524
523
523
524
525
524
524
523
525
523
525
525
525
525
525
525
527
525
524
524
523
525
527
527
521
525
525
529
529
529
529
533
537
535
538
539
543
544
549
556
565
562
560
552
547
544
542
537
534
532
527
525
524
523
523
523
521
521
521
521
520
521
516
507
490
483
501
549
613
687
747
775
777
779
772
741
659
548
478
446
422
426
455
476
492
504
510
514
510
510
510
510
511
513
513
513
514
513
513
509
514
514
511
511
514
513
515
514
514
514
513
515
515
515
515
515
515
515
518
518
520
519
520
519
520
521
518
521
524
525
527
529
530
532
530
532
535
532
537
539
539
543
549
548
551
552
552
553
556
557
558
557
556
556
555
552
552
547
549
543
544
542
539
539
538
537
537
533
532
533
533
534
532
532
529
530
529
530
533
533
530
532
530
532
533
530
533
534
533
533
533
535
537
533
533
533
532
533
534
535
535
530
535
535
534
534
534
534
533
534
533
534
532
532
529
530
530
527
530
530
528
528
529
530
530
530
528
528
530
528
529
529
528
528
530
530
528
527
529
527
528
529
527
528
523
527
525
525
523
523
521
525
530
529
527
530
533
530
527
525
518
527
533
556
576
561
546
533
515
501
500
502
507
511
513
515
518
519
521
523
524
524
523
524
525
525
525
523
524
523
525
525
523
528
527
530
528
530
524
528
530
532
535
529
533
537
537
538
541
544
547
549
552
558
562
563
558
552
548
551
539
534
530
530
523
524
521
521
523
524
523
523
523
521
521
521
515
500
487
491
528
588
665
737
780
786
786
784
775
725
617
500
450
426
420
441
470
484
498
510
516
516
513
515
515
515
516
516
518
518
519
518
518
519
518
518
520
519
515
516
518
519
520
521
521
521
521
525
525
527
525
525
527
528
528
530
530
532
533
534
535
537
538
538
543
547
544
544
547
548
551
551
552
555
557
560
561
563
566
567
570
575
570
571
570
570
566
566
563
562
560
557
556
553
551
548
547
548
546
543
542
539
539
538
537
537
535
535
535
535
535
535
537
535
537
538
537
537
537
537
538
539
537
539
542
539
539
542
539
538
539
539
539
539
538
538
539
537
538
537
533
537
535
535
533
533
534
533
533
532
533
532
530
532
529
530
528
530
529
530
530
530
529
530
528
528
529
525
528
528
528
528
527
527
529
529
528
530
523
528
528
528
528
523
530
528
529
530
530
529
528
530
530
530
527
528
528
530
530
527
530
530
530
529
532
532
530
530
532
530
529
530
532
530
529
530
532
532
532
532
532
532
532
532
532
533
527
532
533
534
532
534
537
538
538
542
538
544
546
547
551
553
562
566
567
567
558
555
552
548
544
538
535
533
529
528
527
528
525
525
527
525
525
528
527
521
510
491
482
497
546
622
701
758
781
786
785
784
766
710
584
474
434
416
439
463
486
501
515
519
519
520
520
519
516
519
516
515
516
518
518
513
518
516
516
518
516
518
516
519
518
519
519
518
519
520
521
519
523
521
521
524
524
525
525
524
524
527
527
528
529
530
533
532
535
535
537
537
538
539
542
542
543
546
553
551
553
555
557
560
560
561
561
562
561
561
561
561
558
552
556
552
548
547
544
544
542
539
538
538
535
535
535
533
532
532
529
530
528
530
529
527
528
528
528
529
530
521
527
530
528
530
528
530
532
530
530
532
529
530
530
530
530
525
530
530
530
528
530
529
527
528
525
527
525
523
524
523
521
520
524
521
520
520
519
521
520
523
519
521
520
516
520
518
516
518
520
519
520
518
518
518
516
518
520
518
515
519
519
518
516
516
518
519
519
520
520
519
516
519
519
519
513
519
520
518
516
520
520
518
518
518
519
519
520
519
518
519
519
519
519
519
519
519
520
519
519
518
519
518
519
519
520
519
516
519
519
519
519
519
516
519
520
521
520
516
521
524
525
525
527
530
530
532
532
537
539
543
548
556
558
562
548
542
543
539
532
528
523
519
519
520
516
516
515
515
515
514
515
516
514
514
505
487
472
482
523
589
679
739
776
783
783
779
765
701
580
474
436
411
430
454
476
495
500
510
510
510
507
509
507
507
507
510
510
507
507
510
510
510
505
510
510
513
511
511
511
511
511
511
516
515
516
515
516
515
515
519
518
516
518
519
519
520
521
521
523
518
525
527
529
530
528
530
533
533
533
537
539
539
542
544
546
553
551
553
553
556
557
558
558
558
556
555
556
553
553
551
547
551
547
543
542
542
541
539
537
535
534
535
535
534
534
532
532
530
532
532
532
533
532
532
532
533
533
533
530
532
533
532
533
533
535
535
533
534
535
534
533
534
535
534
529
535
535
534
532
533
533
533
532
532
533
532
532
530
530
532
527
529
528
528
528
530
528
527
527
528
528
527
528
528
528
530
529
530
527
528
528
528
523
529
527
527
528
521
527
527
528
527
527
529
527
527
527
528
528
528
525
527
529
524
528
525
525
528
528
527
527
527
525
528
527
525
527
527
528
524
527
528
527
527
527
528
527
527
527
528
521
527
528
528
528
527
527
527
528
530
529
530
528
530
529
532
527
534
534
537
538
539
541
543
546
549
549
556
562
567
571
567
563
553
549
547
539
537
532
530
527
527
525
525
525
524
524
525
524
524
524
523
513
498
487
498
538
602
679
743
775
784
783
780
756
687
583
492
454
425
428
456
482
496
511
513
516
516
516
516
518
516
516
516
516
516
516
515
516
516
515
515
518
516
516
518
518
518
519
519
520
519
518
520
520
521
520
519
520
523
521
523
525
523
525
527
527
530
524
530
533
534
535
535
538
539
539
541
543
544
547
551
553
552
561
558
560
562
562
563
563
562
561
560
557
556
552
552
548
547
548
546
543
542
539
538
538
537
535
535
534
530
535
534
533
534
533
534
534
533
534
535
529
534
533
535
533
530
537
537
537
537
538
538
537
537
538
535
537
534
535
535
537
530
535
534
533
534
532
532
533
530
529
530
530
529
527
528
529
525
528
528
528
527
528
528
528
528
525
528
521
527
528
528
528
525
525
527
527
527
530
528
528
524
527
528
525
530
525
528
527
529
528
532
533
527
530
528
530
532
530
532
528
530
530
532
530
530
530
532
530
532
534
535
534
535
533
534
532
534
533
534
534
534
534
535
535
535
537
530
535
534
538
532
535
535
535
535
533
535
535
535
537
537
538
542
539
539
542
543
546
546
548
551
551
556
561
569
572
574
572
566
561
560
555
547
542
538
538
533
533
533
529
533
534
534
533
533
529
532
530
520
505
490
506
547
609
687
749
777
781
780
775
755
679
574
493
456
434
444
472
492
507
521
520
527
527
527
525
525
525
527
527
527
528
528
525
528
528
527
525
528
528
528
528
527
528
532
529
530
530
525
529
532
533
533
532
533
533
533
535
535
537
537
537
539
541
546
541
543
546
546
548
551
552
552
553
555
558
561
562
563
566
572
571
572
572
572
570
571
570
570
569
566
563
562
560
558
557
557
552
551
551
549
547
546
544
544
543
539
547
542
542
541
542
539
542
541
542
542
541
542
542
542
543
542
547
543
543
544
542
542
542
544
543
542
539
539
541
542
539
541
539
539
539
538
538
537
537
535
535
535
535
530
532
533
532
533
532
530
532
532
530
533
528
530
530
532
532
525
530
530
530
530
528
530
530
529
530
530
530
530
530
530
530
525
530
530
529
530
528
528
528
530
529
532
528
529
529
528
529
528
529
530
529
530
529
530
529
528
528
530
523
530
530
530
530
528
528
530
529
530
530
528
529
529
530
530
524
530
532
532
530
532
532
532
532
534
533
532
530
532
534
535
532
537
538
538
542
541
542
543
547
552
552
557
562
570
569
562
557
556
555
548
541
538
537
532
530
530
529
523
528
528
528
530
527
528
529
524
510
498
497
524
577
650
720
763
774
775
775
763
716
625
525
477
445
431
453
478
498
513
521
521
524
524
524
525
523
523
525
524
523
525
525
523
523
525
525
524
525
525
525
525
528
523
525
525
525
525
523
527
528
527
527
527
528
530
530
532
533
530
533
534
537
537
542
539
539
539
541
543
546
547
548
551
549
553
557
557
558
560
563
563
563
566
566
566
565
563
562
561
557
561
553
553
553
551
549
547
546
544
543
539
542
541
539
538
539
543
538
537
537
538
537
538
538
538
538
535
538
538
539
539
541
546
539
539
539
539
539
542
541
542
539
539
539
538
538
538
539
538
538
538
537
537
535
537
535
535
533
535
530
533
535
533
533
530
532
533
532
533
533
533
532
533
533
532
527
532
532
532
533
532
529
530
532
532
532
532
532
533
532
532
529
532
533
534
532
533
532
532
530
532
533
532
532
533
534
534
532
534
533
534
534
534
534
533
533
533
535
530
533
533
533
533
533
535
537
535
534
537
537
537
537
538
539
541
537
538
537
539
537
539
539
538
538
535
537
538
538
539
538
539
538
538
539
542
543
546
547
547
547
548
557
557
561
563
569
575
575
571
565
562
558
553
548
544
542
541
543
537
537
537
537
535
538
537
537
537
538
533
523
506
502
525
577
644
714
762
777
779
776
771
732
641
538
490
456
440
462
488
507
521
533
534
535
534
535
535
535
537
537
530
537
538
537
538
535
538
538
535
535
537
539
539
538
539
541
544
539
538
539
541
539
542
541
543
542
541
546
544
543
544
546
551
548
551
552
552
553
555
556
557
557
557
561
563
562
565
567
571
572
572
574
576
577
579
577
576
577
575
580
574
574
571
567
567
563
563
562
561
558
560
557
556
556
555
557
553
552
555
552
552
551
552
552
552
549
552
553
552
552
551
556
556
553
555
556
556
556
556
555
556
555
557
552
552
552
552
552
552
552
552
549
551
548
548
547
551
549
555
548
548
547
544
547
546
544
547
546
543
543
543
546
546
546
549
546
544
546
544
542
546
547
547
544
546
546
547
547
546
543
546
544
544
543
544
546
547
546
544
544
544
551
544
543
543
543
544
544
544
544
546
544
546
546
543
546
546
551
542
543
543
544
544
546
546
544
542
546
546
546
547
546
546
549
544
546
546
546
544
544
544
544
547
544
546
546
547
546
546
546
548
548
551
553
552
556
556
553
556
558
569
567
570
576
583
584
576
571
567
562
558
553
549
551
544
542
546
542
542
542
542
542
542
541
539
539
532
516
510
530
579
648
723
769
785
784
783
780
762
696
577
493
464
445
449
477
498
515
527
533
534
534
535
533
534
534
535
533
535
529
533
533
534
535
533
534
534
535
534
535
533
535
533
535
535
530
535
534
537
537
535
537
538
538
538
537
539
539
539
542
543
546
546
547
548
547
548
552
553
555
555
556
562
561
562
563
566
567
569
570
572
574
571
572
571
570
569
566
571
563
560
558
557
556
552
548
551
546
544
546
546
546
543
541
546
543
542
542
541
543
539
539
542
539
541
542
543
543
541
541
544
543
544
543
544
544
546
547
546
546
543
548
543
542
542
539
542
539
539
539
537
537
535
535
534
533
533
528
532
532
532
533
533
530
533
529
530
530
530
530
530
529
530
527
528
528
527
528
527
527
527
528
527
528
528
527
527
525
527
525
527
525
525
523
524
525
524
525
524
521
519
523
523
523
523
523
524
521
521
523
524
524
523
525
523
525
520
523
523
525
523
523
524
521
525
525
525
524
524
524
524
524
523
525
524
525
525
525
525
525
525
525
527
525
525
527
528
532
533
532
534
534
537
538
543
546
551
555
557
566
560
551
546
546
543
537
530
528
525
524
521
521
520
520
519
516
520
520
520
519
513
496
479
482
519
584
668
739
776
783
785
780
770
727
621
496
441
416
426
456
478
495
504
513
513
513
513
510
510
511
513
515
515
513
514
515
513
513
510
513
513
513
515
516
516
516
516
516
516
515
516
516
518
520
518
523
521
520
523
523
521
520
521
521
529
528
527
532
533
534
533
538
538
538
538
538
542
546
547
548
552
560
557
560
561
560
562
563
563
561
556
553
553
551
551
547
543
546
539
539
537
537
534
532
530
530
530
525
524
520
521
521
524
520
521
520
523
521
520
519
519
521
523
523
525
525
527
524
525
525
528
525
525
527
527
524
527
529
527
527
523
528
527
527
527
525
525
525
523
523
523
521
520
519
519
520
515
519
519
519
519
518
518
516
518
516
519
516
518
518
519
520
516
518
519
520
520
519
516
516
518
519
518
514
520
519
519
520
519
519
521
523
520
521
518
523
520
519
519
515
520
521
521
521
523
523
523
521
524
523
523
523
524
521
521
519
523
523
525
525
528
525
524
525
525
525
527
527
527
527
527
523
523
524
525
525
527
527
527
527
528
530
525
532
535
537
537
537
539
542
544
547
553
558
562
561
553
548
551
543
535
530
528
525
523
521
520
519
518
519
519
520
520
519
515
507
491
472
476
516
585
669
741
777
785
779
783
771
727
599
460
420
414
440
467
487
498
510
514
511
510
505
513
510
511
511
510
511
510
510
510
514
511
510
510
511
513
507
514
513
515
515
515
515
515
516
518
516
518
515
516
519
520
519
521
524
524
525
527
525
528
530
532
535
532
537
539
539
542
543
546
549
552
552
551
556
560
561
562
562
567
562
561
561
560
558
556
553
551
547
544
546
543
541
538
538
532
535
534
533
534
533
533
532
530
528
530
529
528
527
528
527
523
525
527
525
525
525
524
524
527
525
524
516
525
527
525
525
524
524
527
528
527
529
527
527
527
527
528
521
529
528
527
525
527
527
527
527
525
525
525
525
527
527
527
521
527
525
524
524
525
524
525
525
527
527
524
525
525
524
524
523
525
523
521
523
524
524
524
524
525
527
519
524
523
524
524
521
524
523
523
524
525
524
523
524
525
525
520
524
524
524
525
525
523
523
524
523
523
525
523
523
523
524
523
525
527
525
524
527
525
527
528
529
529
528
527
527
528
529
528
528
528
528
530
532
530
534
537
538
539
546
543
548
551
553
561
562
566
562
557
552
551
547
542
538
535
527
530
530
528
528
530
529
530
530
530
529
528
521
504
486
492
530
595
677
744
776
784
783
781
765
710
597
482
445
430
445
472
491
510
521
523
523
524
519
523
523
524
525
519
524
523
524
523
525
525
525
525
525
525
525
528
525
527
528
523
528
529
528
527
529
530
532
532
532
533
533
534
535
537
537
538
538
539
539
541
543
543
546
546
548
549
555
552
553
556
557
561
562
565
566
567
569
571
570
572
572
571
575
569
567
567
563
563
561
561
557
556
553
553
551
551
549
546
548
547
543
544
543
543
543
544
543
542
541
542
543
543
543
543
546
543
544
543
543
544
546
547
547
546
544
551
546
547
547
544
548
546
546
543
543
543
543
544
543
541
542
546
541
542
539
542
538
539
538
538
539
537
538
538
538
538
539
538
538
538
537
539
538
538
537
538
537
538
543
538
538
538
538
537
538
538
537
538
534
537
538
538
537
538
542
535
537
537
537
537
537
535
537
537
537
538
538
538
538
538
532
538
537
538
538
537
537
538
538
538
535
539
539
539
538
539
538
539
539
539
539
537
543
541
541
539
539
546
542
542
539
542
546
546
548
551
551
551
553
556
560
562
566
576
579
580
577
571
566
565
561
556
548
547
543
541
542
539
541
543
538
539
537
539
537
538
535
525
510
501
518
561
630
700
757
777
781
781
777
747
676
570
496
462
440
454
477
504
520
530
532
530
530
532
533
532
533
534
532
530
532
532
527
533
533
532
529
537
533
530
530
532
529
530
529
529
533
533
532
535
534
535
539
543
542
542
543
541
542
551
549
548
551
547
548
548
549
551
548
551
557
561
560
561
563
572
566
566
569
571
575
576
576
577
580
576
576
574
576
577
574
577
569
563
563
562
561
560
561
560
556
553
552
551
551
551
551
552
549
551
551
551
547
548
548
548
547
546
553
548
546
548
551
551
549
549
551
548
547
551
551
552
551
551
555
551
553
551
544
544
544
543
543
544
543
544
543
543
542
539
537
542
542
541
538
537
538
543
542
539
537
538
538
534
537
538
533
537
537
537
538
539
539
538
538
538
539
542
535
534
537
537
532
535
535
535
533
535
535
535
533
534
533
530
537
538
535
533
538
538
538
537
537
534
533
533
535
533
535
538
537
534
534
535
535
533
533
534
535
537
537
537
535
537
535
533
537
537
538
534
535
535
539
539
539
541
549
543
543
546
551
556
558
565
571
572
566
562
558
555
549
546
546
538
537
533
532
532
533
532
530
532
532
532
532
530
525
516
500
500
525
577
649
720
765
776
775
775
771
748
667
538
462
445
432
441
470
492
505
516
518
524
525
523
523
519
521
521
523
524
523
524
524
524
524
523
523
523
525
525
525
521
528
525
524
527
528
530
530
530
530
532
532
533
530
533
535
533
535
537
538
542
539
546
546
547
548
551
558
555
556
557
558
561
562
563
566
570
571
572
576
576
574
574
579
572
571
571
567
566
563
561
558
557
552
552
548
548
546
543
548
544
543
543
542
539
539
539
539
538
539
538
539
538
539
542
542
539
539
539
541
539
542
541
539
539
542
544
539
539
539
538
538
538
537
537
537
537
535
535
535
533
535
530
532
533
533
532
529
530
530
529
530
530
528
528
529
529
528
528
528
529
528
528
527
527
525
527
525
527
521
527
527
527
527
525
525
527
527
525
527
520
527
525
525
527
520
525
525
525
527
525
525
525
525
525
525
525
525
525
525
527
521
525
527
527
527
527
525
527
525
525
527
527
525
525
528
525
525
525
525
527
528
530
527
525
525
525
530
524
532
532
533
537
534
537
537
539
544
547
555
557
562
562
558
556
551
548
543
537
534
530
528
524
524
523
524
523
523
523
523
519
521
521
515
497
482
482
514
569
648
719
758
774
772
771
766
741
659
525
450
425
428
456
479
496
506
515
510
515
513
514
516
514
514
513
513
514
514
515
513
514
513
515
509
513
515
515
515
515
514
515
515
516
518
519
520
519
519
520
518
520
521
523
523
524
521
525
525
527
530
529
532
534
535
538
538
539
539
539
542
543
547
551
551
553
552
561
560
560
561
561
561
560
560
560
557
555
556
553
551
547
544
548
542
539
539
538
537
537
535
535
533
533
533
533
530
530
532
527
528
530
530
530
530
530
528
528
530
530
525
530
530
530
529
530
532
530
530
533
532
529
530
532
530
532
525
530
529
530
530
529
527
528
527
527
527
525
525
524
525
525
520
524
523
523
524
525
523
523
523
525
525
523
520
523
523
523
521
523
521
521
521
523
521
521
521
523
523
518
523
525
521
519
520
524
520
521
520
521
523
524
521
523
525
519
520
521
523
524
521
523
523
525
523
523
524
521
521
525
525
524
524
525
525
524
523
523
523
525
525
524
525
524
525
525
528
523
525
527
527
525
527
528
532
532
532
535
530
537
537
539
542
551
552
556
561
563
556
551
547
544
539
535
528
525
523
523
521
521
520
520
521
521
520
519
520
520
515
498
481
481
504
552
625
701
751
770
771
770
763
735
649
527
458
428
426
451
474
491
505
515
511
513
513
515
513
507
511
513
511
513
513
513
513
515
516
514
515
516
515
515
516
511
518
515
516
518
519
519
516
518
520
521
519
521
521
521
523
520
523
525
525
527
525
530
529
529
528
534
529
538
535
538
538
542
544
544
543
548
551
552
556
557
558
560
562
560
561
561
558
556
556
555
552
551
548
551
546
546
543
539
546
541
539
539
539
538
537
535
537
535
539
535
534
535
537
534
535
537
538
535
538
537
537
537
537
537
537
542
539
538
537
537
534
538
537
537
537
537
535
537
533
534
535
530
532
532
530
532
529
530
530
530
529
530
528
528
528
528
529
525
528
529
528
530
527
525
527
527
527
528
527
527
527
527
528
527
528
529
527
530
529
524
527
527
525
527
521
527
528
528
528
528
530
528
530
530
530
528
529
527
527
528
524
527
528
527
527
530
527
527
529
530
525
528
528
527
528
530
528
530
529
528
529
530
530
532
528
530
533
525
530
530
532
534
534
535
537
539
539
538
542
546
548
552
555
567
567
571
567
561
556
553
549
543
539
535
535
532
530
530
530
527
528
529
529
530
528
529
524
515
502
497
515
558
621
693
747
770
772
772
766
733
653
556
491
458
435
441
467
492
510
519
523
523
524
524
523
525
525
524
525
525
524
527
520
525
524
525
528
525
525
527
525
525
527
527
528
529
528
530
528
530
530
530
530
532
532
532
533
535
535
537
538
538
537
539
541
542
544
543
546
546
547
551
552
552
553
561
557
560
562
565
566
567
567
570
569
567
569
567
567
566
562
567
561
556
557
553
552
552
548
551
547
543
546
544
542
542
542
544
542
542
542
542
541
542
543
544
542
542
548
544
546
543
542
544
546
546
546
544
546
546
544
543
543
543
548
543
544
544
543
542
542
541
539
539
538
538
538
539
537
539
532
537
535
537
535
535
535
535
537
535
535
537
534
534
535
535
533
533
535
535
535
535
535
534
535
535
534
530
535
537
534
535
533
534
534
533
534
533
532
534
532
534
535
528
534
532
533
535
535
535
535
535
533
534
535
534
535
533
535
539
538
537
537
537
537
537
539
537
535
537
538
538
537
537
538
534
535
537
537
538
537
539
538
538
541
542
547
546
548
548
546
549
556
557
561
566
572
572
569
562
560
556
556
546
542
542
539
537
537
535
537
535
534
535
535
535
534
537
529
519
507
506
529
574
644
715
762
777
776
776
767
729
639
534
486
459
439
449
476
498
510
525
529
528
529
527
533
530
530
533
529
530
532
532
532
532
530
532
533
532
532
528
534
534
533
533
535
535
535
537
538
535
537
538
538
537
539
539
539
541
541
541
542
543
546
547
548
548
557
551
556
556
556
560
561
562
563
566
566
569
572
572
575
576
581
579
577
577
576
572
571
571
569
567
563
563
561
561
557
557
558
555
553
553
552
551
549
548
548
547
548
551
551
551
549
548
552
551
551
551
549
552
553
553
552
551
551
558
552
552
552
552
552
552
551
552
551
551
552
551
551
551
551
552
547
548
546
546
546
546
546
546
543
542
542
542
542
539
542
542
543
542
542
539
539
542
538
539
539
538
542
541
539
539
539
538
538
538
539
539
538
539
541
539
538
539
544
541
541
539
541
543
542
539
539
542
539
543
543
542
543
543
548
543
543
542
541
541
542
541
541
539
539
539
539
539
539
542
542
542
539
539
541
541
542
543
544
544
544
552
549
551
552
553
558
560
565
572
576
575
571
567
566
562
555
556
547
547
546
541
539
539
538
538
539
538
538
539
538
537
535
516
510
514
547
603
676
742
776
783
783
780
771
743
653
530
468
446
436
455
483
505
518
527
532
530
533
534
528
534
535
532
533
533
535
534
535
534
534
535
535
535
535
537
530
537
537
537
537
537
538
537
538
539
537
539
538
539
539
541
546
543
543
546
546
546
548
551
549
553
552
558
560
561
562
563
566
567
570
572
574
574
577
579
579
580
579
584
579
577
576
574
574
571
567
566
565
562
561
558
557
553
552
556
552
552
551
548
547
546
544
546
544
543
543
543
543
544
544
546
546
546
546
543
544
546
546
546
546
547
552
549
547
547
548
548
547
547
546
546
543
543
546
542
542
539
544
538
537
537
538
537
537
535
535
535
535
535
534
533
533
533
529
532
532
530
532
532
529
530
530
532
530
530
529
530
530
530
528
530
529
527
529
528
529
530
530
530
528
523
528
528
528
530
527
528
528
528
529
530
530
530
530
530
528
524
527
530
527
530
530
530
530
530
530
532
530
532
528
528
530
530
530
529
530
530
530
530
530
532
535
538
537
539
539
541
542
544
546
548
551
557
562
567
570
565
556
553
557
551
543
537
534
530
529
527
525
524
528
528
527
525
525
525
520
519
504
484
484
514
566
645
719
767
786
783
783
780
760
688
557
465
428
418
446
476
491
506
514
518
516
516
516
515
516
516
515
516
518
516
516
518
514
516
519
519
519
513
516
516
520
519
519
519
520
521
520
523
520
521
520
521
523
520
525
524
525
527
527
527
529
532
535
534
535
537
539
539
539
544
543
546
548
549
552
555
558
558
561
561
569
566
566
