-225
-218
-217
-218
-213
-214
-217
-218
-220
-224
-226
-229
-233
-237
-239
-243
-247
-251
-253
-256
-258
-260
-264
-270
-274
-278
-276
-276
-275
-273
-268
-267
-262
-257
-248
-238
-231
-219
-210
-198
-187
-175
-164
-150
-140
-133
-119
-111
-105
-99
-94
-91
-88
-87
-85
-86
-87
-88
-91
-91
-94
-96
-96
-98
-99
-100
-99
-101
-100
-102
-103
-102
-99
-100
-100
-102
-100
-100
-100
-99
-99
-100
-98
-99
-100
-100
-99
-95
-96
-95
-95
-92
-87
-88
-85
-88
-88
-90
-96
-96
-98
-98
-100
-104
-107
-110
-111
-110
-112
-113
-115
-118
-118
-118
-118
-118
-118
-118
-119
-121
-122
-115
-91
-49
8
78
142
182
175
113
16
-94
-183
-230
-245
-239
-229
-222
-217
-213
-213
-214
-216
-217
-218
-221
-224
-228
-232
-234
-237
-240
-244
-248
-252
-256
-259
-260
-262
-265
-267
-270
-272
-274
-273
-271
-268
-267
-263
-259
-252
-245
-237
-227
-218
-206
-195
-182
-171
-157
-146
-135
-125
-114
-103
-95
-90
-88
-84
-83
-80
-81
-84
-85
-87
-88
-91
-92
-93
-92
-95
-96
-96
-96
-98
-99
-102
-100
-99
-100
-99
-99
-99
-100
-99
-98
-99
-98
-96
-98
-98
-99
-99
-98
-99
-98
-97
-96
-92
-91
-91
-88
-88
-87
-87
-87
-88
-90
-95
-93
-95
-97
-98
-102
-106
-107
-111
-111
-111
-112
-115
-114
-115
-115
-115
-115
-117
-118
-118
-119
-123
-116
-96
-58
-4
62
123
169
171
115
23
-78
-157
-205
-222
-226
-224
-220
-217
-214
-214
-217
-217
-218
-220
-221
-226
-228
-232
-235
-238
-241
-247
-249
-250
-252
-256
-256
-262
-266
-270
-270
-270
-275
-274
-273
-271
-272
-267
-262
-258
-249
-240
-232
-221
-210
-198
-188
-177
-163
-149
-137
-126
-116
-105
-97
-89
-87
-85
-83
-82
-82
-84
-84
-86
-87
-87
-88
-88
-91
-91
-91
-95
-96
-96
-98
-97
-98
-98
-95
-98
-98
-98
-97
-95
-96
-96
-97
-96
-96
-96
-97
-97
-98
-98
-97
-96
-97
-96
-97
-93
-92
-90
-88
-87
-86
-87
-90
-92
-95
-95
-97
-98
-103
-109
-111
-113
-111
-111
-111
-111
-116
-115
-118
-118
-118
-120
-118
-118
-121
-123
-118
-99
-67
-18
45
104
147
152
106
20
-88
-174
-224
-239
-238
-232
-225
-218
-213
-210
-207
-209
-212
-214
-215
-217
-219
-219
-222
-226
-230
-236
-238
-243
-247
-248
-252
-258
-259
-263
-265
-267
-267
-268
-267
-268
-270
-267
-264
-259
-252
-244
-238
-228
-218
-209
-195
-183
-173
-161
-149
-136
-125
-114
-104
-98
-92
-91
-88
-89
-88
-88
-90
-92
-92
-92
-93
-96
-96
-96
-98
-98
-100
-101
-100
-103
-103
-103
-104
-104
-106
-104
-104
-103
-103
-106
-105
-105
-103
-103
-103
-103
-103
-102
-101
-100
-98
-96
-95
-94
-93
-91
-88
-88
-90
-91
-95
-98
-100
-101
-102
-101
-108
-110
-115
-116
-118
-116
-118
-116
-118
-118
-119
-121
-123
-124
-125
-125
-123
-118
-100
-70
-23
35
94
143
158
114
24
-88
-185
-237
-251
-248
-239
-232
-227
-222
-219
-221
-219
-221
-222
-223
-227
-229
-233
-235
-240
-240
-244
-248
-252
-259
-260
-265
-268
-270
-272
-275
-277
-278
-278
-278
-277
-275
-270
-263
-258
-248
-240
-229
-220
-210
-201
-191
-180
-168
-156
-145
-133
-123
-115
-105
-99
-95
-90
-88
-89
-89
-85
-88
-88
-89
-88
-88
-92
-93
-96
-96
-97
-98
-97
-98
-99
-99
-100
-99
-101
-98
-99
-99
-100
-101
-102
-102
-102
-101
-102
-99
-100
-98
-98
-98
-96
-95
-92
-91
-91
-90
-88
-87
-83
-86
-90
-92
-95
-92
-97
-98
-102
-107
-107
-111
-110
-107
-107
-110
-111
-114
-114
-113
-114
-113
-113
-114
-118
-120
-118
-107
-80
-39
19
86
148
181
157
81
-21
-125
-191
-220
-226
-222
-218
-218
-214
-214
-212
-214
-215
-215
-218
-220
-224
-226
-229
-232
-236
-240
-245
-247
-248
-248
-252
-255
-258
-262
-263
-266
-270
-271
-271
-270
-271
-267
-265
-259
-255
-247
-238
-228
-220
-210
-198
-183
-168
-157
-146
-136
-125
-116
-103
-95
-88
-81
-73
-75
-73
-73
-73
-73
-74
-76
-77
-78
-78
-80
-83
-84
-83
-85
-84
-86
-87
-89
-88
-88
-88
-89
-88
-87
-86
-86
-86
-87
-87
-86
-84
-84
-83
-83
-86
-84
-83
-80
-81
-78
-73
-74
-71
-72
-70
-69
-73
-77
-79
-80
-81
-83
-86
-87
-91
-93
-96
-97
-97
-98
-99
-98
-98
-100
-100
-100
-100
-99
-102
-104
-106
-98
-78
-38
20
91
155
190
175
102
-3
-104
-179
-207
-213
-209
-205
-205
-198
-195
-195
-195
-199
-199
-201
-205
-208
-210
-215
-217
-218
-222
-221
-228
-232
-233
-238
-240
-242
-245
-248
-250
-253
-252
-252
-252
-251
-248
-246
-240
-234
-225
-218
-209
-199
-186
-174
-161
-152
-144
-130
-120
-110
-99
-89
-82
-75
-72
-69
-68
-67
-65
-64
-67
-69
-70
-71
-73
-75
-78
-78
-79
-80
-79
-80
-79
-79
-81
-81
-83
-82
-81
-81
-83
-83
-83
-84
-83
-82
-84
-85
-82
-84
-84
-83
-84
-80
-81
-80
-79
-77
-76
-75
-72
-72
-70
-71
-75
-78
-79
-79
-83
-85
-89
-93
-96
-99
-100
-100
-102
-101
-102
-99
-99
-100
-103
-105
-103
-106
-108
-112
-113
-104
-76
-41
12
74
134
170
153
86
-8
-113
-190
-225
-231
-222
-214
-206
-199
-197
-197
-196
-196
-195
-198
-199
-203
-206
-209
-210
-212
-214
-218
-224
-227
-232
-235
-237
-240
-243
-248
-252
-254
-255
-255
-257
-256
-254
-251
-250
-244
-240
-235
-226
-218
-208
-198
-187
-177
-164
-156
-144
-134
-123
-113
-100
-93
-86
-83
-78
-78
-77
-77
-77
-77
-79
-78
-83
-83
-86
-85
-87
-89
-91
-94
-93
-92
-92
-93
-93
-91
-88
-92
-93
-93
-93
-88
-93
-92
-96
-95
-95
-97
-96
-95
-90
-89
-88
-88
-87
-85
-85
-83
-81
-80
-79
-83
-85
-86
-88
-91
-93
-95
-96
-98
-102
-105
-105
-105
-106
-107
-110
-111
-115
-110
-110
-111
-112
-116
-115
-118
-111
-92
-53
3
69
131
163
144
68
-43
-156
-224
-249
-245
-235
-225
-218
-210
-206
-202
-202
-202
-205
-209
-215
-213
-215
-218
-220
-222
-230
-233
-235
-239
-240
-247
-252
-256
-258
-260
-262
-263
-267
-266
-267
-268
-265
-263
-259
-252
-247
-239
-229
-219
-209
-200
-190
-178
-168
-153
-144
-134
-123
-113
-105
-98
-93
-90
-85
-84
-83
-84
-84
-85
-87
-88
-88
-88
-91
-92
-93
-90
-94
-96
-97
-97
-94
-98
-98
-98
-98
-98
-99
-98
-99
-99
-98
-98
-98
-99
-99
-98
-99
-98
-97
-96
-97
-95
-90
-91
-91
-90
-87
-86
-88
-90
-93
-93
-95
-96
-98
-99
-104
-103
-110
-111
-113
-114
-117
-115
-115
-118
-119
-119
-118
-118
-118
-118
-122
-122
-121
-109
-79
-33
28
95
147
167
126
39
-73
-167
-220
-239
-237
-233
-226
-221
-218
-217
-214
-217
-218
-220
-221
-221
-228
-230
-235
-238
-243
-243
-247
-248
-252
-256
-258
-262
-265
-269
-272
-275
-276
-278
-278
-275
-274
-270
-264
-259
-252
-244
-238
-228
-219
-209
-198
-189
-178
-166
-154
-142
-130
-118
-111
-104
-98
-95
-91
-91
-90
-90
-87
-88
-91
-92
-93
-93
-96
-98
-100
-100
-100
-102
-102
-102
-103
-104
-105
-105
-105
-105
-105
-105
-103
-103
-104
-105
-104
-103
-103
-103
-103
-102
-100
-100
-98
-99
-97
-96
-95
-94
-92
-91
-87
-91
-93
-96
-97
-95
-98
-103
-105
-107
-112
-115
-115
-114
-115
-116
-118
-118
-120
-121
-118
-118
-118
-118
-120
-125
-126
-118
-97
-58
-6
57
119
167
178
136
50
-58
-154
-210
-232
-233
-226
-222
-219
-217
-214
-215
-214
-218
-220
-220
-226
-225
-228
-229
-233
-236
-239
-243
-247
-250
-252
-257
-259
-262
-265
-270
-271
-271
-272
-272
-274
-274
-271
-268
-262
-256
-248
-237
-232
-222
-212
-201
-189
-179
-168
-157
-145
-138
-125
-116
-107
-98
-93
-93
-89
-88
-88
-87
-89
-88
-89
-91
-90
-92
-96
-97
-98
-98
-99
-100
-102
-102
-104
-103
-102
-102
-100
-103
-102
-101
-102
-100
-103
-101
-99
-100
-99
-102
-102
-100
-102
-99
-99
-99
-94
-96
-95
-93
-93
-88
-89
-88
-93
-95
-97
-100
-101
-99
-100
-103
-107
-112
-115
-116
-116
-116
-118
-118
-120
-118
-118
-119
-118
-120
-122
-122
-127
-126
-119
-104
-72
-23
39
103
149
149
91
-6
-116
-198
-237
-244
-234
-226
-219
-214
-210
-209
-209
-210
-210
-212
-213
-215
-218
-220
-224
-228
-229
-233
-236
-239
-240
-244
-249
-252
-255
-258
-258
-265
-266
-266
-268
-265
-267
-267
-265
-259
-255
-244
-237
-229
-222
-214
-202
-191
-180
-172
-160
-151
-140
-128
-118
-107
-103
-98
-94
-92
-88
-87
-87
-86
-89
-92
-93
-94
-97
-98
-98
-99
-99
-99
-99
-99
-99
-101
-102
-104
-104
-102
-104
-102
-102
-102
-103
-99
-102
-102
-102
-103
-99
-100
-102
-103
-102
-99
-100
-97
-97
-95
-91
-91
-89
-88
-89
-92
-95
-96
-98
-98
-100
-104
-107
-110
-113
-113
-115
-117
-118
-118
-118
-120
-118
-120
-121
-122
-122
-126
-126
-126
-119
-98
-62
-16
42
100
142
146
90
-3
-114
-198
-240
-251
-242
-232
-224
-217
-213
-209
-209
-209
-209
-212
-213
-217
-217
-219
-221
-221
-225
-230
-234
-237
-239
-245
-248
-252
-255
-258
-259
-262
-266
-267
-270
-268
-270
-268
-265
-262
-258
-251
-244
-236
-227
-218
-206
-198
-185
-172
-160
-149
-138
-126
-118
-111
-103
-97
-93
-88
-87
-85
-84
-86
-88
-89
-91
-92
-92
-93
-95
-96
-99
-100
-99
-98
-94
-97
-98
-99
-99
-97
-99
-100
-101
-101
-102
-101
-99
-98
-98
-98
-99
-100
-102
-99
-99
-98
-95
-94
-93
-92
-91
-88
-87
-86
-88
-91
-93
-94
-95
-98
-98
-99
-104
-107
-110
-112
-118
-113
-113
-115
-116
-118
-115
-116
-115
-118
-122
-120
-121
-122
-118
-102
-73
-27
32
96
149
166
129
45
-61
-158
-218
-240
-239
-232
-224
-219
-217
-212
-210
-211
-213
-214
-217
-218
-221
-224
-225
-230
-234
-237
-241
-247
-248
-252
-255
-257
-261
-263
-267
-270
-271
-273
-274
-273
-272
-270
-265
-259
-255
-252
-245
-237
-227
-218
-206
-196
-185
-172
-158
-146
-136
-125
-118
-110
-102
-96
-89
-85
-85
-82
-83
-84
-85
-83
-89
-89
-90
-91
-87
-92
-92
-96
-95
-95
-96
-98
-98
-98
-97
-98
-97
-97
-96
-98
-97
-96
-97
-96
-97
-96
-97
-96
-96
-96
-95
-95
-93
-90
-90
-88
-86
-85
-84
-84
-80
-80
-85
-88
-90
-91
-88
-92
-95
-99
-102
-104
-106
-107
-107
-107
-107
-110
-111
-112
-113
-113
-112
-114
-116
-118
-118
-111
-93
-58
-11
49
111
161
175
135
52
-51
-145
-202
-225
-226
-220
-214
-213
-207
-209
-206
-209
-208
-210
-214
-216
-218
-220
-224
-230
-233
-237
-239
-241
-244
-247
-250
-255
-258
-262
-263
-267
-267
-267
-266
-265
-262
-260
-259
-255
-248
-241
-232
-222
-215
-205
-193
-181
-168
-158
-149
-138
-128
-118
-105
-97
-91
-86
-79
-79
-78
-77
-76
-76
-78
-78
-82
-84
-85
-87
-88
-89
-88
-90
-89
-89
-91
-91
-95
-94
-93
-95
-93
-93
-93
-93
-95
-92
-91
-91
-91
-90
-91
-92
-92
-90
-95
-95
-93
-90
-87
-89
-88
-87
-85
-84
-83
-81
-81
-84
-85
-87
-89
-91
-92
-97
-98
-100
-103
-104
-105
-104
-105
-105
-106
-107
-107
-107
-108
-110
-111
-110
-113
-114
-107
-88
-50
2
64
124
161
154
95
3
-97
-176
-214
-227
-223
-218
-213
-206
-202
-199
-201
-201
-202
-204
-208
-210
-212
-215
-218
-220
-221
-225
-228
-231
-235
-237
-240
-244
-249
-252
-251
-255
-256
-257
-258
-256
-258
-256
-254
-250
-245
-238
-230
-222
-212
-202
-191
-180
-169
-157
-148
-138
-126
-115
-104
-96
-92
-88
-87
-83
-83
-80
-81
-81
-83
-84
-87
-88
-88
-88
-91
-90
-91
-91
-92
-92
-93
-94
-95
-95
-95
-95
-92
-93
-92
-94
-95
-91
-94
-95
-96
-97
-92
-94
-95
-95
-95
-94
-92
-92
-92
-89
-88
-88
-85
-84
-83
-84
-84
-87
-88
-91
-93
-93
-96
-98
-100
-103
-105
-107
-108
-109
-110
-111
-111
-113
-111
-114
-113
-116
-114
-117
-118
-118
-103
-85
-50
2
60
114
145
128
62
-35
-136
-201
-230
-233
-226
-218
-212
-206
-204
-201
-200
-203
-204
-206
-209
-212
-214
-214
-217
-220
-221
-225
-227
-232
-236
-240
-244
-250
-249
-253
-256
-257
-261
-261
-263
-262
-260
-256
-252
-248
-242
-236
-225
-218
-207
-199
-189
-176
-166
-154
-145
-134
-123
-114
-107
-100
-93
-91
-87
-84
-81
-80
-83
-81
-84
-85
-84
-88
-90
-89
-90
-89
-91
-92
-91
-95
-95
-96
-94
-90
-93
-92
-95
-95
-95
-94
-96
-96
-95
-95
-95
-95
-95
-96
-95
-97
-95
-92
-92
-90
-88
-87
-87
-87
-85
-84
-82
-85
-86
-91
-91
-90
-92
-93
-96
-99
-99
-103
-105
-106
-107
-105
-110
-110
-111
-112
-111
-111
-110
-113
-114
-118
-114
-104
-79
-37
22
84
141
162
131
50
-55
-153
-214
-238
-237
-228
-219
-217
-210
-206
-203
-203
-205
-206
-209
-210
-214
-215
-218
-222
-224
-229
-232
-236
-239
-242
-244
-248
-252
-255
-258
-259
-262
-263
-263
-265
-266
-263
-260
-258
-254
-247
-240
-234
-225
-217
-209
-198
-187
-175
-161
-150
-136
-129
-119
-111
-104
-96
-92
-88
-83
-81
-80
-78
-83
-83
-86
-84
-83
-86
-87
-88
-91
-92
-93
-95
-96
-95
-94
-95
-94
-97
-96
-96
-95
-94
-95
-95
-95
-97
-96
-96
-95
-96
-95
-97
-97
-95
-95
-93
-92
-90
-89
-88
-87
-83
-85
-85
-84
-85
-83
-88
-88
-90
-91
-92
-96
-98
-102
-103
-106
-107
-109
-108
-108
-110
-109
-110
-113
-111
-111
-111
-113
-118
-118
-109
-88
-52
1
67
134
177
170
115
20
-85
-165
-211
-224
-224
-218
-214
-213
-207
-207
-207
-210
-210
-213
-214
-218
-219
-222
-225
-229
-232
-235
-238
-240
-243
-248
-252
-258
-260
-261
-262
-263
-267
-267
-268
-267
-265
-263
-259
-253
-248
-241
-233
-222
-210
-201
-191
-179
-171
-161
-148
-135
-122
-114
-99
-96
-87
-84
-80
-77
-76
-75
-77
-78
-76
-78
-79
-80
-82
-85
-87
-88
-88
-88
-88
-88
-89
-88
-88
-92
-92
-92
-92
-91
-91
-91
-91
-92
-90
-89
-89
-84
-88
-89
-90
-88
-87
-91
-91
-90
-88
-87
-85
-83
-82
-80
-79
-79
-77
-79
-80
-82
-84
-85
-88
-92
-95
-96
-98
-101
-102
-103
-103
-104
-105
-105
-107
-107
-109
-109
-110
-110
-110
-111
-112
-101
-81
-42
14
77
135
171
163
102
2
-105
-178
-214
-221
-217
-213
-209
-205
-202
-201
-201
-202
-203
-205
-209
-210
-214
-218
-219
-221
-225
-227
-229
-234
-236
-237
-243
-247
-249
-251
-251
-257
-260
-262
-263
-263
-262
-262
-259
-256
-251
-242
-234
-225
-218
-209
-198
-189
-179
-169
-158
-148
-136
-123
-113
-104
-95
-87
-83
-80
-79
-77
-77
-78
-79
-81
-83
-83
-83
-85
-87
-87
-88
-88
-87
-89
-90
-88
-92
-93
-92
-92
-88
-93
-90
-92
-92
-93
-95
-93
-95
-91
-92
-91
-91
-92
-94
-92
-91
-90
-91
-88
-88
-87
-87
-85
-84
-82
-78
-81
-84
-87
-92
-93
-93
-95
-97
-100
-102
-104
-107
-107
-107
-108
-105
-110
-110
-112
-111
-107
-111
-113
-115
-118
-119
-113
-94
-63
-12
52
114
149
133
60
-45
-146
-209
-236
-236
-225
-218
-212
-206
-202
-199
-198
-200
-202
-204
-206
-209
-210
-214
-217
-219
-221
-228
-227
-232
-234
-237
-242
-247
-250
-255
-256
-258
-260
-259
-259
-260
-259
-259
-258
-256
-249
-244
-236
-226
-219
-206
-196
-188
-178
-168
-158
-148
-138
-126
-117
-107
-101
-93
-87
-83
-80
-79
-79
-78
-80
-80
-83
-83
-81
-84
-87
-88
-90
-88
-89
-89
-91
-92
-93
-95
-96
-95
-92
-91
-90
-92
-93
-93
-92
-92
-92
-91
-91
-92
-91
-92
-91
-91
-91
-91
-90
-88
-86
-85
-83
-80
-78
-78
-79
-80
-80
-87
-89
-91
-91
-89
-96
-98
-102
-103
-102
-103
-104
-105
-105
-106
-107
-108
-108
-107
-110
-110
-111
-113
-111
-99
-72
-29
30
90
143
164
131
50
-64
-165
-222
-235
-229
-218
-210
-205
-204
-200
-198
-198
-199
-202
-204
-206
-210
-213
-217
-218
-221
-224
-228
-232
-235
-238
-242
-245
-248
-251
-254
-258
-260
-262
-262
-263
-263
-260
-258
-255
-251
-244
-236
-227
-218
-206
-199
-189
-179
-168
-158
-144
-133
-119
-110
-98
-94
-86
-81
-78
-76
-78
-79
-80
-78
-77
-78
-78
-82
-82
-84
-84
-85
-87
-87
-88
-88
-88
-88
-89
-89
-88
-89
-88
-88
-88
-88
-91
-90
-89
-88
-87
-86
-88
-88
-88
-88
-84
-87
-85
-85
-83
-78
-78
-78
-77
-76
-77
-80
-80
-83
-83
-82
-84
-87
-91
-95
-98
-98
-98
-99
-100
-102
-103
-103
-104
-105
-107
-105
-106
-106
-108
-111
-107
-96
-70
-30
26
90
151
182
171
108
17
-83
-160
-202
-215
-216
-210
-207
-202
-201
-199
-201
-203
-205
-206
-207
-209
-211
-214
-218
-224
-226
-232
-234
-237
-240
-244
-247
-252
-255
-258
-259
-260
-260
-263
-265
-265
-263
-256
-255
-250
-244
-237
-229
-218
-208
-198
-188
-178
-164
-154
-142
-129
-118
-106
-96
-87
-80
-76
-72
-70
-69
-69
-69
-70
-71
-73
-75
-76
-76
-77
-78
-78
-81
-79
-81
-81
-82
-83
-85
-85
-84
-84
-87
-85
-81
-83
-82
-82
-83
-80
-83
-83
-85
-83
-84
-83
-81
-82
-81
-83
-83
-80
-79
-77
-76
-73
-72
-71
-74
-77
-78
-81
-83
-83
-85
-87
-90
-92
-96
-98
-98
-98
-98
-99
-100
-98
-98
-102
-103
-104
-103
-100
-107
-108
-107
-91
-58
-15
44
107
159
179
141
55
-54
-149
-204
-221
-220
-212
-205
-198
-195
-195
-194
-192
-194
-195
-198
-200
-202
-209
-211
-212
-216
-218
-219
-224
-227
-232
-235
-238
-240
-244
-246
-245
-248
-247
-252
-252
-251
-252
-251
-245
-240
-233
-227
-218
-210
-201
-191
-180
-171
-159
-148
-135
-125
-113
-102
-95
-88
-84
-78
-77
-74
-75
-74
-77
-77
-77
-78
-78
-80
-80
-80
-78
-82
-83
-86
-85
-84
-87
-87
-89
-88
-88
-90
-91
-91
-88
-88
-86
-86
-90
-88
-89
-88
-89
-90
-91
-90
-88
-88
-85
-86
-87
-83
-82
-80
-80
-81
-78
-79
-80
-82
-85
-87
-84
-89
-90
-94
-96
-97
-101
-101
-103
-103
-102
-103
-106
-107
-107
-106
-109
-110
-110
-111
-113
-111
-103
-83
-45
8
70
126
161
152
88
-9
-118
-195
-229
-232
-222
-212
-207
-202
-198
-199
-198
-199
-201
-202
-205
-209
-206
-210
-213
-215
-219
-221
-226
-230
-236
-239
-243
-248
-251
-253
-255
-258
-261
-262
-263
-260
-258
-256
-253
-251
-247
-241
-232
-222
-214
-204
-194
-182
-172
-161
-152
-141
-130
-121
-112
-105
-97
-87
-83
-80
-80
-80
-77
-80
-80
-82
-83
-84
-86
-87
-89
-89
-91
-91
-92
-91
-90
-91
-92
-92
-95
-95
-94
-95
-93
-95
-95
-95
-92
-91
-92
-91
-95
-93
-96
-95
-96
-96
-94
-93
-92
-90
-88
-89
-84
-87
-85
-83
-84
-83
-86
-88
-90
-91
-92
-97
-99
-104
-105
-107
-108
-108
-111
-111
-113
-114
-113
-115
-115
-115
-116
-116
-118
-118
-108
-82
-42
11
77
141
175
156
91
-10
-118
-195
-233
-236
-229
-224
-220
-217
-212
-210
-210
-210
-211
-212
-217
-220
-222
-225
-229
-232
-233
-238
-240
-244
-245
-250
-255
-259
-260
-263
-266
-268
-267
-267
-266
-267
-265
-262
-259
-254
-248
-240
-232
-221
-214
-202
-194
-179
-168
-158
-145
-134
-122
-113
-102
-98
-92
-88
-86
-82
-83
-85
-86
-88
-89
-89
-89
-91
-92
-92
-94
-93
-96
-96
-97
-98
-98
-98
-98
-98
-98
-98
-98
-99
-100
-100
-99
-99
-98
-98
-98
-96
-98
-98
-98
-98
-96
-97
-97
-96
-94
-90
-88
-88
-88
-85
-83
-86
-88
-92
-95
-97
-98
-98
-99
-99
-102
-104
-107
-110
-111
-112
-112
-113
-115
-115
-117
-116
-118
-116
-118
-118
-122
-120
-105
-78
-32
29
99
154
176
138
51
-57
-152
-209
-229
-230
-225
-219
-218
-214
-210
-210
-210
-214
-217
-218
-220
-225
-227
-229
-233
-237
-239
-242
-245
-247
-250
-252
-253
-258
-263
-267
-267
-269
-271
-271
-271
-269
-267
-264
-259
-253
-244
-237
-226
-217
-204
-192
-180
-168
-156
-144
-135
-125
-115
-106
-98
-93
-90
-87
-84
-83
-83
-85
-85
-87
-88
-89
-93
-93
-96
-98
-98
-99
-98
-98
-100
-99
-98
-99
-96
-100
-102
-99
-99
-96
-99
-98
-99
-98
-99
-99
-101
-100
-99
-100
-102
-102
-102
-101
-100
-99
-96
-94
-92
-92
-91
-91
-88
-89
-94
-95
-97
-98
-99
-103
-103
-106
-110
-112
-115
-115
-118
-116
-118
-118
-120
-125
-122
-120
-120
-121
-126
-127
-125
-108
-78
-29
31
92
142
152
111
20
-92
-187
-236
-247
-240
-232
-224
-218
-213
-212
-213
-212
-212
-213
-214
-215
-220
-222
-225
-228
-228
-235
-237
-240
-243
-248
-250
-252
-258
-260
-263
-266
-267
-270
-270
-270
-268
-265
-262
-257
-252
-245
-237
-230
-221
-210
-201
-190
-177
-167
-154
-144
-134
-126
-118
-112
-103
-96
-92
-90
-92
-91
-92
-91
-92
-94
-94
-92
-98
-99
-101
-101
-98
-102
-102
-103
-104
-105
-105
-104
-105
-104
-102
-104
-106
-105
-105
-104
-103
-103
-102
-102
-102
-102
-101
-102
-101
-102
-99
-100
-98
-97
-96
-94
-92
-91
-92
-93
-97
-95
-99
-99
-98
-100
-98
-105
-111
-115
-115
-118
-116
-118
-118
-119
-120
-118
-119
-120
-120
-121
-125
-126
-120
-103
-69
-19
41
103
148
151
94
-12
-125
-209
-245
-248
-237
-227
-221
-217
-213
-206
-206
-207
-210
-214
-218
-217
-219
-221
-225
-229
-231
-233
-238
-240
-244
-249
-251
-256
-258
-262
-265
-268
-270
-270
-270
-268
-267
-265
-263
-261
-256
-251
-244
-235
-225
-214
-201
-194
-180
-169
-160
-150
-138
-130
-119
-111
-99
-96
-90
-87
-84
-81
-84
-86
-88
-88
-87
-88
-91
-94
-93
-96
-98
-98
-99
-98
-99
-97
-98
-98
-98
-98
-99
-98
-99
-99
-100
-98
-98
-98
-98
-99
-99
-100
-100
-99
-98
-96
-91
-92
-92
-92
-91
-88
-90
-89
-87
-86
-85
-91
-92
-95
-95
-95
-96
-100
-103
-107
-110
-112
-111
-111
-111
-111
-111
-111
-111
-111
-111
-111
-112
-115
-118
-118
-111
-90
-53
3
72
136
175
164
97
-8
-118
-198
-226
-229
-222
-218
-214
-210
-205
-202
-203
-206
-209
-209
-211
-214
-218
-219
-220
-224
-229
-233
-237
-239
-241
-244
-249
-252
-256
-259
-259
-262
-262
-262
-265
-265
-266
-263
-258
-256
-250
-243
-237
-230
-219
-209
-195
-184
-174
-160
-151
-141
-133
-121
-110
-99
-91
-83
-78
-74
-72
-71
-71
-73
-73
-73
-76
-76
-77
-79
-80
-82
-81
-81
-80
-82
-84
-85
-85
-84
-87
-84
-87
-87
-86
-85
-83
-83
-82
-81
-78
-83
-83
-83
-84
-83
-84
-83
-80
-80
-79
-78
-77
-74
-73
-72
-71
-73
-74
-75
-77
-78
-77
-78
-78
-81
-84
-87
-90
-93
-92
-92
-92
-93
-95
-98
-98
-99
-98
-98
-98
-98
-98
-103
-100
-87
-54
-2
58
122
177
204
188
112
8
-102
-178
-214
-217
-210
-204
-201
-195
-194
-192
-194
-194
-195
-198
-201
-202
-207
-210
-214
-215
-218
-221
-224
-229
-232
-237
-239
-240
-244
-248
-248
-248
-249
-250
-253
-249
-247
-245
-240
-232
-224
-215
-206
-195
-186
-175
-164
-153
-140
-128
-118
-107
-97
-85
-77
-69
-66
-63
-61
-61
-58
-60
-62
-64
-65
-65
-67
-65
-67
-70
-71
-73
-76
-76
-77
-76
-74
-77
-77
-78
-78
-73
-77
-78
-78
-78
-78
-79
-78
-78
-76
-75
-75
-76
-76
-73
-72
-72
-72
-73
-70
-67
-65
-64
-62
-62
-64
-67
-70
-72
-73
-76
-75
-78
-84
-88
-92
-92
-88
-91
-90
-91
-89
-88
-90
-92
-93
-94
-93
-96
-98
-92
-68
-27
29
99
166
204
193
122
21
-86
-163
-201
-211
-206
-201
-197
-194
-190
-187
-189
-190
-192
-194
-195
-199
-203
-206
-209
-212
-215
-218
-221
-225
-229
-232
-234
-237
-241
-244
-246
-246
-247
-248
-248
-247
-244
-240
-237
-233
-225
-218
-210
-202
-194
-183
-172
-161
-149
-136
-125
-112
-100
-89
-82
-74
-70
-67
-63
-63
-62
-62
-63
-64
-66
-67
-65
-69
-70
-71
-73
-72
-76
-77
-77
-77
-77
-79
-79
-80
-78
-78
-80
-80
-80
-80
-80
-80
-79
-79
-80
-81
-81
-78
-78
-76
-76
-74
-76
-74
-73
-72
-69
-69
-68
-69
-71
-71
-71
-78
-78
-80
-83
-84
-90
-92
-95
-93
-93
-95
-95
-98
-99
-100
-102
-102
-102
-101
-102
-104
-107
-107
-94
-71
-31
21
81
136
167
141
53
-57
-157
-212
-227
-220
-211
-204
-198
-196
-191
-192
-191
-191
-194
-196
-195
-199
-201
-205
-209
-211
-214
-215
-218
-221
-226
-232
-235
-237
-240
-242
-247
-248
-247
-250
-251
-253
-250
-247
-242
-237
-232
-225
-218
-210
-201
-190
-178
-167
-156
-144
-134
-125
-115
-104
-96
-86
-83
-79
-78
-78
-73
-75
-75
-77
-78
-78
-78
-78
-80
-81
-83
-85
-88
-88
-89
-90
-88
-90
-91
-91
-91
-90
-91
-91
-91
-90
-90
-90
-90
-90
-91
-91
-90
-89
-86
-87
-84
-80
-79
-78
-78
-77
-73
-78
-79
-83
-85
-87
-88
-92
-96
-98
-101
-103
-104
-105
-105
-107
-110
-110
-110
-110
-110
-111
-111
-114
-114
-115
-118
-114
-95
-66
-26
26
82
133
154
123
42
-78
-179
-235
-248
-239
-229
-218
-210
-206
-202
-204
-202
-202
-205
-209
-213
-215
-218
-219
-222
-225
-228
-234
-237
-240
-244
-247
-251
-256
-258
-259
-260
-262
-263
-265
-267
-267
-262
-262
-258
-253
-244
-236
-229
-219
-210
-198
-189
-177
-164
-152
-140
-133
-118
-112
-104
-98
-91
-87
-84
-82
-84
-84
-87
-88
-88
-89
-92
-92
-91
-92
-92
-92
-94
-95
-96
-96
-98
-97
-96
-98
-98
-98
-98
-98
-98
-97
-98
-97
-95
-98
-98
-96
-96
-93
-96
-92
-91
-89
-85
-86
-87
-86
-85
-88
-92
-92
-92
-93
-94
-97
-99
-104
-109
-111
-110
-110
-111
-111
-114
-115
-117
-118
-116
-117
-118
-118
-119
-122
-115
-97
-58
-3
65
134
177
171
110
10
-99
-184
-233
-242
-238
-229
-222
-218
-213
-211
-210
-211
-214
-215
-217
-220
-222
-224
-229
-233
-237
-239
-240
-244
-248
-252
-256
-259
-262
-262
-267
-270
-271
-274
-271
-273
-270
-268
-266
-260
-252
-243
-235
-226
-218
-206
-195
-184
-172
-162
-149
-138
-127
-118
-107
-102
-97
-92
-88
-87
-84
-84
-84
-85
-85
-88
-90
-91
-93
-96
-96
-98
-98
-99
-99
-98
-98
-98
-98
-99
-99
-98
-99
-99
-100
-98
-96
-99
-100
-102
-99
-98
-99
-99
-99
-98
-97
-96
-96
-93
-91
-88
-87
-85
-87
-87
-88
-91
-93
-95
-96
-97
-99
-103
-107
-110
-112
-110
-113
-114
-115
-115
-115
-117
-116
-117
-115
-116
-119
-118
-122
-120
-104
-72
-27
34
100
158
190
167
95
-8
-115
-192
-228
-236
-231
-225
-219
-217
-214
-210
-212
-212
-214
-217
-218
-221
-223
-225
-225
-230
-232
-238
-239
-240
-244
-248
-251
-255
-259
-261
-263
-266
-268
-272
-271
-269
-267
-263
-259
-254
-247
-238
-229
-219
-210
-201
-191
-179
-168
-158
-148
-137
-125
-115
-105
-96
-92
-88
-86
-84
-84
-83
-84
-84
-85
-87
-88
-89
-91
-90
-92
-93
-95
-96
-96
-93
-97
-96
-97
-96
-93
-98
-98
-99
-99
-98
-98
-96
-96
-97
-98
-98
-99
-99
-98
-96
-95
-92
-93
-93
-93
-90
-91
-89
-87
-85
-85
-87
-88
-92
-95
-95
-96
-98
-100
-105
-107
-107
-111
-113
-111
-112
-116
-114
-114
-116
-116
-116
-115
-116
-118
-120
-118
-99
-66
-18
39
100
149
166
126
38
-75
-175
-229
-244
-237
-228
-218
-212
-209
-205
-204
-203
-204
-208
-210
-211
-214
-218
-218
-221
-223
-226
-232
-233
-238
-243
-247
-249
-251
-255
-258
-262
-264
-266
-263
-263
-262
-262
-256
-252
-246
-237
-229
-219
-213
-202
-192
-179
-168
-158
-148
-136
-124
-114
-103
-95
-86
-84
-80
-79
-77
-77
-77
-77
-75
-79
-80
-81
-83
-82
-84
-87
-88
-90
-90
-89
-89
-88
-88
-89
-89
-89
-87
-87
-88
-87
-87
-86
-87
-88
-88
-87
-85
-85
-84
-81
-81
-81
-80
-79
-78
-77
-73
-71
-70
-72
-72
-78
-81
-81
-79
-75
-80
-85
-90
-92
-93
-95
-96
-98
-98
-99
-99
-99
-99
-99
-100
-100
-102
-106
-106
-97
-72
-31
22
85
147
185
167
99
-15
-132
-205
-232
-226
-215
-205
-198
-197
-194
-195
-195
-195
-198
-198
-199
-202
-205
-209
-211
-214
-218
-223
-225
-230
-233
-236
-240
-244
-247
-248
-250
-251
-254
-255
-255
-255
-253
-248
-244
-238
-230
-224
-217
-207
-197
-187
-176
-164
-153
-140
-129
-118
-107
-96
-81
-78
-71
-69
-65
-60
-62
-61
-64
-62
-64
-66
-67
-70
-72
-73
-75
-75
-77
-77
-78
-78
-78
-79
-78
-79
-80
-80
-80
-79
-78
-77
-78
-76
-77
-78
-77
-78
-78
-76
-78
-78
-73
-76
-74
-73
-72
-67
-67
-65
-63
-64
-66
-67
-69
-69
-71
-72
-74
-77
-80
-82
-85
-87
-87
-89
-89
-92
-90
-91
-93
-92
-92
-92
-92
-92
-96
-99
-88
-65
-26
34
102
168
209
206
148
56
-52
-147
-198
-216
-213
-205
-201
-195
-193
-191
-189
-189
-191
-195
-198
-199
-202
-206
-209
-212
-217
-220
-225
-227
-230
-233
-235
-237
-241
-244
-246
-247
-248
-248
-250
-250
-247
-242
-235
-229
-223
-215
-205
-195
-181
-171
-158
-148
-138
-125
-114
-103
-91
-80
-73
-67
-61
-60
-58
-58
-58
-58
-60
-64
-66
-66
-69
-68
-70
-69
-72
-73
-74
-77
-77
-78
-78
-78
-79
-77
-78
-77
-78
-77
-78
-75
-78
-77
-78
-78
-76
-79
-79
-78
-78
-77
-77
-76
-77
-77
-75
-73
-73
-72
-69
-68
-70
-72
-75
-76
-77
-77
-79
-82
-84
-91
-95
-98
-98
-96
-98
-98
-99
-99
-100
-102
-103
-104
-103
-104
-109
-107
-94
-72
-25
32
98
155
177
145
60
-55
-161
-219
-233
-227
-217
-209
-203
-198
-197
-195
-195
-198
-198
-202
-204
-207
-210
-212
-215
-217
-218
-222
-225
-232
-236
-237
-240
-240
-247
-250
-253
-255
-259
-258
-259
-258
-257
-252
-248
-240
-234
-225
-217
-205
-195
-183
-172
-160
-149
-138
-127
-118
-108
-99
-95
-88
-83
-80
-77
-78
-78
-80
-83
-83
-84
-84
-84
-86
-90
-93
-95
-95
-95
-96
-93
-97
-96
-98
-98
-97
-99
-98
-98
-96
-97
-98
-96
-97
-96
-96
-97
-97
-97
-96
-96
-95
-93
-92
-93
-91
-88
-87
-85
-87
-91
-93
-96
-96
-95
-95
-95
-99
-105
-110
-114
-113
-113
-113
-113
-117
-118
-121
-119
-120
-118
-122
-126
-126
-128
-122
-103
-69
-19
44
108
151
148
72
-43
-164
-240
-266
-256
-240
-230
-224
-218
-217
-214
-214
-214
-217
-218
-218
-222
-225
-231
-233
-236
-239
-243
-247
-251
-256
-258
-262
-264
-268
-272
-273
-276
-277
-277
-277
-275
-273
-271
-266
-259
-252
-244
-236
-224
-216
-204
-194
-180
-169
-157
-144
-134
-123
-115
-107
-100
-95
-93
-90
-91
-88
-88
-90
-91
-95
-95
-92
-96
-98
-100
-99
-98
-102
-102
-102
-102
-99
-102
-101
-102
-102
-102
-102
-101
-99
-99
-99
-102
-102
-103
-102
-102
-100
-99
-99
-98
-98
-97
-95
-94
-92
-93
-89
-88
-88
-88
-92
-93
-95
-97
-96
-99
-101
-102
-107
-110
-110
-110
-107
-112
-115
-115
-117
-118
-117
-118
-118
-118
-122
-121
-107
-81
-34
34
102
160
186
154
75
-34
-138
-212
-240
-242
-232
-222
-219
-214
-212
-212
-212
-214
-216
-215
-218
-224
-224
-227
-229
-233
-238
-239
-243
-247
-250
-252
-255
-257
-259
-263
-266
-269
-270
-270
-268
-270
-267
-265
-260
-256
-247
-238
-229
-218
-209
-198
-187
-179
-164
-155
-141
-131
-120
-110
-99
-92
-85
-80
-78
-78
-78
-79
-77
-80
-80
-82
-84
-83
-88
-88
-90
-90
-91
-92
-92
-94
-93
-92
-93
-94
-92
-92
-92
-93
-93
-92
-92
-90
-90
-91
-92
-93
-96
-92
-92
-89
-87
-87
-87
-86
-84
-81
-80
-77
-73
-78
-78
-81
-83
-81
-86
-87
-91
-93
-96
-98
-101
-102
-102
-103
-104
-104
-107
-106
-107
-108
-107
-107
-107
-110
-111
-102
-79
-41
19
89
152
194
182
117
22
-84
-163
-208
-222
-221
-218
-212
-206
-201
-198
-203
-203
-206
-208
-210
-213
-215
-218
-219
-222
-228
-231
-235
-237
-240
-244
-244
-248
-251
-254
-256
-258
-259
-259
-258
-258
-256
-252
-249
-244
-237
-228
-217
-207
-196
-186
-176
-162
-149
-138
-123
-114
-99
-95
-85
-79
-73
-69
-70
-67
-69
-70
-70
-72
-73
-73
-74
-76
-78
-79
-81
-81
-84
-84
-84
-83
-83
-84
-85
-84
-84
-84
-84
-83
-84
-83
-81
-80
-80
-83
-83
-83
-84
-82
-81
-83
-82
-80
-77
-73
-76
-73
-72
-70
-69
-73
-75
-79
-80
-79
-80
-84
-88
-92
-95
-97
-97
-98
-98
-98
-98
-98
-98
-99
-102
-103
-104
-102
-103
-108
-104
-93
-64
-18
42
110
162
174
131
40
-72
-171
-217
-229
-224
-214
-205
-198
-195
-193
-192
-192
-195
-198
-199
-202
-205
-206
-210
-212
-217
-218
-219
-224
-228
-232
-236
-239
-243
-244
-247
-248
-249
-248
-254
-252
-250
-244
-240
-239
-233
-225
-217
-207
-195
-183
-174
-161
-153
-138
-126
-114
-103
-96
-90
-84
-79
-77
-73
-73
-73
-73
-76
-78
-80
-80
-81
-83
-84
-84
-83
-85
-88
-88
-88
-89
-91
-91
-91
-89
-89
-88
-87
-88
-89
-87
-90
-88
-91
-91
-88
-91
-91
-89
-87
-85
-84
-83
-81
-79
-78
-78
-75
-76
-77
-80
-84
-87
-88
-88
-90
-95
-98
-103
-104
-103
-103
-103
-104
-105
-107
-107
-108
-108
-110
-111
-111
-115
-115
-103
-79
-38
22
82
140
168
144
64
-53
-160
-229
-248
-243
-229
-218
-209
-201
-198
-198
-198
-201
-202
-206
-209
-212
-215
-217
-218
-221
-226
-228
-233
-237
-240
-244
-247
-252
-257
-259
-260
-265
-267
-267
-266
-266
-262
-258
-252
-244
-237
-228
-218
-205
-194
-183
-172
-158
-146
-137
-125
-113
-104
-97
-92
-87
-83
-78
-76
-73
-73
-76
-77
-79
-80
-84
-85
-84
-84
-82
-87
-86
-88
-87
-87
-89
-90
-87
-91
-89
-89
-88
-84
-87
-88
-88
-88
-87
-89
-87
-88
-89
-88
-88
-88
-83
-80
-79
-77
-76
-73
-73
-72
-74
-76
-79
-82
-83
-84
-85
-88
-93
-95
-97
-98
-100
-100
-102
-102
-102
-103
-103
-105
-103
-101
-107
-111
-111
-97
-66
-23
37
105
165
191
156
72
-41
-148
-214
-233
-228
-218
-209
-202
-200
-198
-198
-198
-198
-198
-202
-206
-208
-209
-214
-217
-221
-224
-228
-232
-233
-237
-241
-247
-251
-256
-256
-256
-258
-259
-259
-257
-255
-252
-250
-244
-238
-230
-221
-211
-199
-187
-176
-164
-153
-138
-126
-115
-105
-96
-87
-79
-73
-72
-68
-68
-69
-69
-69
-70
-71
-73
-74
-75
-77
-80
-80
-78
-79
-80
-83
-85
-81
-83
-81
-81
-81
-80
-81
-81
-82
-83
-82
-81
-81
-80
-79
-81
-80
-79
-79
-78
-78
-76
-73
-73
-70
-69
-68
-67
-67
-69
-72
-74
-77
-77
-79
-81
-83
-87
-86
-91
-93
-92
-89
-92
-92
-93
-93
-89
-92
-92
-94
-98
-99
-94
-70
-28
29
96
159
197
183
109
1
-107
-179
-210
-214
-206
-198
-194
-190
-187
-189
-189
-188
-191
-195
-198
-201
-203
-206
-209
-211
-214
-218
-220
-225
-229
-233
-236
-237
-241
-243
-244
-248
-248
-250
-249
-248
-247
-243
-239
-233
-225
-217
-206
-195
-184
-172
-159
-149
-138
-126
-113
-101
-89
-81
-73
-68
-65
-62
-60
-58
-58
-59
-59
-59
-62
-61
-63
-64
-61
-67
-69
-70
-72
-70
-73
-75
-76
-78
-76
-78
-77
-78
-76
-75
-73
-71
-70
-70
-72
-73
-75
-75
-76
-78
-76
-75
-75
-73
-69
-67
-66
-65
-64
-62
-60
-61
-64
-66
-68
-69
-67
-70
-71
-73
-77
-80
-87
-88
-88
-88
-90
-91
-92
-95
-95
-93
-95
-95
-97
-98
-99
-98
-81
-51
0
62
129
178
183
133
37
-72
-164
-209
-218
-214
-206
-199
-198
-192
-190
-190
-191
-189
-191
-191
-195
-198
-198
-202
-206
-209
-210
-215
-218
-219
-225
-228
-232
-233
-236
-241
-245
-248
-248
-248
-248
-250
-248
-244
-239
-233
-225
-216
-209
-198
-189
-179
-171
-158
-148
-136
-123
-114
-103
-95
-85
-78
-73
-65
-66
-67
-67
-68
-68
-71
-72
-72
-70
-69
-72
-73
-75
-77
-77
-78
-79
-79
-80
-83
-83
-83
-81
-81
-85
-85
-85
-84
-84
-85
-83
-83
-83
-85
-84
-83
-80
-78
-77
-78
-76
-71
-73
-70
-67
-68
-68
-73
-76
-78
-80
-78
-80
-83
-88
-92
-95
-98
-98
-99
-98
-100
-99
-102
-102
-102
-99
-101
-104
-110
-110
-102
-78
-38
17
80
140
177
168
109
8
-111
-198
-240
-244
-233
-220
-211
-204
-198
-195
-197
-198
-201
-205
-207
-206
-210
-213
-217
-220
-225
-229
-234
-235
-238
-241
-245
-252
-253
-258
-259
-264
-267
-270
-271
-270
-265
-263
-258
-249
-243
-233
-224
-214
-202
-192
-179
-166
-157
-145
-133
-120
-111
-103
-91
-86
-80
-78
-75
-74
-76
-77
-78
-78
-78
-80
-81
-82
-83
-85
-85
-85
-86
-87
-87
-89
-91
-92
-91
-92
-91
-92
-90
-92
-92
-91
-90
-92
-93
-92
-92
-87
-89
-88
-87
-84
-81
-83
-82
-80
-80
-77
-76
-76
-79
-81
-84
-87
-87
-87
-90
-95
-98
-101
-102
-103
-105
-105
-106
-107
-108
-110
-110
-109
-110
-111
-113
-114
-113
-101
-77
-38
19
84
141
175
158
84
-17
-123
-195
-227
-231
-224
-218
-210
-206
-204
-205
-206
-207
-209
-211
-212
-216
-218
-221
-224
-227
-230
-235
-237
-242
-247
-250
-255
-258
-259
-265
-267
-268
-272
-274
-274
-271
-266
-267
-262
-256
-248
-243
-234
-226
-217
-205
-195
-179
-168
-156
-144
-131
-120
-110
-102
-93
-88
-85
-80
-79
-77
-79
-79
-81
-83
-82
-84
-84
-87
-88
-88
-89
-91
-92
-93
-95
-94
-94
-95
-95
-94
-96
-96
-90
-94
-95
-96
-95
-89
-91
-91
-93
-92
-91
-92
-91
-89
-87
-84
-83
-83
-80
-80
-80
-80
-84
-87
-88
-89
-89
-89
-92
-96
-101
-103
-105
-105
-104
-105
-106
-107
-110
-110
-110
-107
-107
-107
-110
-114
-112
-96
-67
-16
49
118
179
202
170
87
-25
-132
-201
-229
-232
-224
-218
-214
-209
-207
-206
-206
-210
-211
-214
-215
-218
-221
-225
-229
-234
-236
-239
-240
-247
-250
-252
-255
-256
-259
-263
-264
-267
-270
-268
-267
-266
-262
-259
-252
-245
-236
-225
-215
-205
-195
-182
-172
-161
-149
-135
-121
-110
-100
-91
-83
-76
-72
-72
-72
-70
-72
-74
-76
-76
-77
-77
-77
-79
-82
-85
-87
-86
-88
-87
-84
-87
-87
-88
-90
-87
-92
-91
-91
-88
-84
-87
-87
-88
-87
-86
-84
-83
-84
-87
-87
-87
-85
-82
-80
-80
-78
-76
-75
-74
-76
-77
-79
-80
-81
-84
-84
-88
-93
-98
-99
-100
-99
-99
-101
-104
-105
-103
-106
-105
-107
-107
-103
-107
-110
-111
-98
-70
-26
31
96
152
182
151
68
-46
-148
-206
-225
-225
-218
-214
-210
-206
-205
-202
-201
-204
-207
-209
-213
-215
-218
-219
-220
-224
-227
-232
-234
-239
-239
-244
-248
-257
-263
-263
-263
-265
-265
-264
-266
-264
-262
-259
-255
-249
-242
-235
-225
-211
-199
-189
-178
-166
-151
-138
-125
-113
-102
-96
-88
-81
-77
-73
-73
-76
-78
-78
-79
-79
-80
-81
-84
-85
-88
-91
-88
-91
-91
-92
-94
-92
-94
-96
-96
-95
-92
-93
-92
-95
-96
-97
-96
-95
-94
-95
-96
-95
-93
-93
-95
-93
-90
-87
-84
-80
-80
-78
-80
-81
-81
-83
-83
-87
-88
-89
-92
-96
-96
-103
-107
-109
-105
-101
-103
-104
-107
-108
-107
-107
-107
-110
-111
-113
-111
-103
-79
-35
26
92
152
181
151
63
-58
-174
-239
-257
-247
-232
-220
-214
-209
-206
-204
-204
-205
-207
-210
-211
-217
-218
-220
-222
-223
-229
-232
-237
-239
-244
-248
-250
-252
-256
-258
-260
-264
-268
-267
-268
-267
-264
-259
-255
-250
-244
-237
-228
-217
-206
-195
-181
-175
-158
-148
-138
-126
-116
-107
-98
-88
-80
-76
-72
-69
-68
-69
-66
-68
-70
-70
-72
-69
-74
-76
-77
-78
-78
-78
-78
-78
-77
-78
-78
-77
-78
-78
-80
-80
-80
-79
-78
-78
-78
-76
-76
-76
-78
-76
-78
-76
-75
-72
-70
-65
-64
-62
-61
-60
-55
-56
-59
-61
-64
-63
-70
-70
-75
-77
-80
-84
-85
-85
-87
-85
-87
-88
-89
-88
-90
-88
-88
-88
-87
-89
-89
-78
-49
1
68
140
197
226
198
122
25
-76
-145
-187
-198
-199
-198
-195
-191
-187
-187
-190
-188
-190
-193
-197
-199
-199
-201
-205
-207
-214
-218
-221
-225
-229
-231
-230
-233
-237
-239
-240
-241
-245
-245
-244
-242
-241
-239
-233
-228
-221
-217
-206
-197
-188
-177
-168
-156
-143
-129
-115
-104
-91
-82
-75
-67
-60
-53
-53
-47
-47
-45
-46
-47
-47
-48
-49
-51
-54
-57
-59
-62
-61
-63
-64
-64
-63
-64
-65
-65
-66
-65
-67
-65
-66
-66
-65
-66
-63
-64
-65
-68
-69
-67
-64
-66
-66
-66
-63
-59
-60
-60
-60
-58
-57
-54
-53
-53
-55
-58
-61
-63
-66
-67
-69
-72
-76
-78
-79
-80
-81
-81
-80
-83
-87
-87
-88
-88
-88
-88
-89
-90
-89
-80
-61
-26
31
96
161
194
173
97
-4
-102
-168
-195
-199
-195
-191
-186
-183
-181
-179
-181
-183
-184
-186
-188
-187
-191
-195
-198
-201
-204
-208
-212
-216
-219
-225
-227
-230
-235
-239
-239
-244
-245
-243
-247
-244
-247
-244
-240
-237
-233
-225
-217
-205
-191
-181
-167
-157
-146
-133
-122
-109
-98
-88
-78
-69
-65
-61
-60
-58
-58
-56
-57
-58
-59
-62
-61
-63
-64
-64
-69
-72
-75
-78
-77
-77
-78
-78
-77
-75
-76
-74
-71
-75
-75
-78
-78
-77
-80
-80
-81
-80
-78
-78
-76
-76
-74
-72
-72
-72
-71
-70
-69
-67
-67
-64
-61
-63
-63
-63
-66
-67
-72
-74
-78
-84
-88
-91
-90
-88
-87
-89
-93
-98
-98
-97
-96
-95
-94
-90
-96
-96
-90
-72
-33
19
79
139
185
206
172
90
-31
-145
-214
-236
-233
-221
-214
-207
-202
-198
-195
-195
-197
-198
-203
-204
-205
-209
-212
-214
-217
-219
-221
-225
-228
-236
-238
-242
-247
-252
-252
-255
-257
-258
-260
-258
-256
-256
-253
-248
-243
-237
-228
-217
-207
-197
-184
-173
-160
-149
-138
-126
-116
-105
-96
-86
-81
-76
-71
-69
-66
-65
-63
-62
-63
-65
-67
-68
-70
-72
-72
-70
-74
-76
-78
-79
-78
-80
-80
-81
-81
-81
-84
-85
-85
-83
-83
-84
-84
-82
-81
-81
-81
-79
-81
-79
-78
-77
-77
-76
-75
-73
-68
-63
-64
-62
-65
-66
-70
-72
-72
-73
-73
-77
-79
-84
-89
-91
-88
-91
-92
-95
-98
-97
-98
-98
-98
-97
-96
-96
-99
-100
-92
-65
-20
39
105
166
208
200
138
42
-68
-153
-195
-207
-209
-206
-205
-203
-199
-198
-198
-201
-203
-205
-209
-210
-212
-214
-221
-221
-226
-228
-230
-236
-238
-241
-245
-248
-251
-253
-256
-256
-258
-259
-260
-259
-258
-256
-254
-247
-241
-233
-225
-217
-206
-197
-187
-176
-164
-152
-140
-126
-115
-105
-95
-87
-80
-76
-73
-73
-68
-71
-73
-77
-78
-77
-80
-83
-85
-87
-85
-87
-85
-85
-88
-88
-90
-93
-93
-92
-93
-92
-93
-92
-93
-93
-94
-94
-92
-93
-93
-91
-90
-92
-93
-93
-92
-92
-90
-88
-88
-85
-84
-83
-82
-80
-80
-78
-85
-86
-90
-90
-88
-96
-99
-102
-104
-106
-107
-107
-107
-107
-107
-111
-110
-114
-115
-115
-115
-114
-115
-118
-118
-107
-84
-38
19
84
142
167
145
65
-42
-144
-207
-232
-233
-225
-221
-217
-209
-205
-202
-205
-207
-207
-206
-209
-210
-216
-219
-223
-225
-227
-229
-234
-239
-243
-247
-251
-255
-256
-258
-259
-263
-263
-265
-265
-265
-263
-262
-262
-256
-252
-243
-236
-224
-217
-207
-197
-187
-175
-164
-152
-141
-131
-125
-111
-103
-96
-93
-87
-87
-84
-84
-85
-85
-88
-89
-91
-93
-95
-97
-96
-98
-99
-102
-102
-102
-101
-98
-98
-98
-98
-98
-98
-101
-99
-100
-102
-102
-103
-102
-102
-102
-101
-99
-96
-92
-95
-92
-92
-91
-87
-89
-87
-87
-86
-87
-91
-92
-95
-97
-96
-100
-104
-108
-111
-115
-115
-117
-116
-115
-115
-118
-118
-118
-118
-118
-120
-122
-125
-122
-111
-87
-42
13
76
137
171
157
94
1
-105
-183
-225
-232
-227
-221
-217
-213
-209
-209
-207
-209
-210
-214
-218
-220
-221
-223
-228
-232
-233
-237
-239
-243
-247
-250
-254
-255
-256
-259
-259
-262
-263
-265
-263
-266
-266
-262
-258
-250
-247
-240
-234
-225
-218
-206
-195
-183
-172
-163
-153
-140
-126
-118
-107
-101
-96
-90
-88
-86
-84
-84
-84
-87
-88
-89
-91
-92
-92
-93
-96
-96
-98
-98
-100
-99
-99
-100
-100
-99
-99
-102
-102
-102
-103
-102
-99
-103
-103
-104
-104
-100
-103
-100
-101
-100
-99
-98
-93
-91
-88
-87
-85
-86
-88
-89
-93
-95
-96
-97
-98
-102
-105
-110
-113
-115
-115
-116
-118
-118
-121
-123
-123
-122
-122
-121
-122
-122
-125
-126
-122
-106
-77
-23
38
104
149
147
88
-15
-130
-217
-255
-260
-248
-234
-224
-217
-210
-210
-210
-212
-213
-213
-214
-217
-219
-222
-224
-225
-229
-232
-236
-240
-244
-247
-252
-256
-259
-260
-260
-265
-267
-271
-272
-275
-271
-270
-265
-263
-261
-255
-247
-237
-229
-219
-209
-198
-187
-178
-168
-158
-145
-133
-122
-112
-103
-100
-98
-96
-95
-91
-91
-92
-92
-95
-95
-96
-96
-98
-98
-98
-101
-102
-102
-104
-104
-100
-106
-105
-106
-104
-101
-105
-106
-106
-105
-103
-103
-103
-104
-105
-105
-104
-101
-101
-99
-98
-97
-93
-91
-88
-88
-88
-88
-93
-96
-100
-100
-100
-102
-103
-107
-108
-111
-114
-115
-116
-116
-118
-120
-118
-118
-118
-122
-120
-122
-122
-126
-124
-107
-79
-34
26
92
148
167
125
36
-79
-178
-233
-247
-240
-233
-222
-217
-211
-210
-209
-211
-211
-210
-213
-214
-218
-219
-224
-225
-229
-232
-233
-237
-242
-247
-250
-255
-255
-256
-259
-263
-268
-269
-269
-267
-265
-262
-259
-256
-252
-244
-238
-227
-218
-209
-197
-184
-174
-163
-154
-143
-131
-118
-110
-100
-92
-88
-83
-82
-80
-80
-79
-78
-79
-80
-83
-85
-87
-84
-88
-91
-92
-91
-87
-91
-92
-92
-93
-93
-93
-92
-93
-93
-94
-96
-93
-93
-93
-91
-90
-91
-91
-88
-89
-88
-84
-83
-81
-80
-78
-78
-78
-77
-79
-80
-84
-84
-84
-87
-89
-93
-98
-99
-102
-100
-97
-99
-102
-104
-106
-102
-106
-107
-107
-107
-106
-108
-111
-105
-85
-46
9
73
137
178
167
94
-15
-127
-201
-233
-232
-220
-211
-205
-198
-198
-194
-195
-196
-197
-198
-199
-202
-204
-206
-211
-218
-218
-220
-223
-224
-230
-233
-237
-240
-243
-247
-248
-250
-252
-253
-253
-253
-251
-248
-244
-239
-232
-226
-218
-207
-197
-187
-176
-164
-154
-143
-134
-125
-110
-98
-88
-79
-74
-72
-68
-66
-66
-65
-69
-69
-69
-70
-69
-75
-76
-77
-77
-77
-78
-79
-80
-80
-79
-82
-83
-83
-81
-83
-83
-82
-80
-78
-80
-79
-78
-81
-79
-79
-78
-77
-77
-74
-74
-72
-71
-68
-66
-63
-64
-66
-70
-72
-73
-74
-71
-76
-78
-81
-85
-85
-91
-90
-91
-92
-95
-96
-97
-97
-97
-97
-97
-97
-99
-100
-98
-87
-60
-18
39
102
157
187
166
92
-9
-110
-179
-206
-210
-207
-201
-198
-193
-189
-186
-183
-187
-186
-190
-194
-197
-202
-203
-206
-210
-214
-215
-218
-220
-226
-229
-234
-236
-239
-242
-244
-247
-248
-250
-252
-252
-253
-247
-244
-239
-233
-226
-218
-210
-198
-187
-178
-165
-154
-141
-132
-118
-107
-95
-87
-79
-73
-66
-61
-61
-60
-60
-61
-60
-63
-63
-67
-67
-67
-69
-72
-73
-75
-76
-76
-77
-77
-77
-77
-77
-75
-76
-78
-77
-77
-76
-78
-77
-78
-77
-77
-77
-76
-76
-75
-72
-71
-67
-67
-65
-61
-62
-61
-61
-64
-64
-69
-72
-73
-73
-78
-80
-84
-87
-88
-91
-91
-92
-92
-93
-95
-95
-95
-96
-97
-98
-97
-98
-99
-96
-84
-57
-13
44
107
161
178
134
50
-60
-154
-202
-218
-208
-199
-194
-190
-189
-184
-183
-185
-186
-187
-189
-194
-195
-198
-201
-202
-205
-210
-213
-214
-218
-221
-224
-228
-232
-234
-236
-238
-240
-242
-243
-247
-246
-244
-240
-238
-229
-225
-217
-209
-198
-186
-176
-166
-157
-148
-140
-126
-115
-104
-95
-83
-79
-73
-70
-70
-69
-70
-69
-69
-69
-70
-72
-74
-77
-78
-78
-80
-80
-79
-80
-80
-80
-80
-83
-83
-84
-85
-85
-83
-83
-83
-83
-83
-84
-85
-87
-86
-82
-83
-78
-77
-77
-73
-77
-75
-73
-70
-69
-68
-72
-75
-78
-79
-80
-80
-84
-87
-92
-97
-99
-100
-99
-99
-100
-102
-103
-104
-105
-105
-105
-103
-103
-107
-111
-115
-108
-93
-61
-12
54
112
160
167
122
31
-76
-168
-220
-237
-233
-223
-214
-206
-201
-198
-198
-198
-198
-198
-199
-202
-206
-209
-213
-214
-218
-220
-224
-228
-232
-235
-239
-240
-244
-250
-252
-252
-257
-258
-260
-262
-259
-259
-258
-252
-247
-241
-236
-228
-220
-211
-202
-191
-180
-171
-158
-148
-137
-127
-116
-106
-98
-93
-88
-88
-87
-84
-84
-80
-83
-85
-85
-85
-82
-83
-87
-93
-95
-95
-93
-92
-92
-93
-94
-96
-96
-98
-98
-94
-96
-97
-98
-98
-96
-98
-99
-99
-98
-95
-96
-94
-94
-92
-89
-87
-87
-84
-81
-79
-80
-83
-87
-89
-92
-94
-93
-95
-96
-100
-105
-107
-110
-110
-112
-113
-113
-115
-116
-116
-118
-115
-114
-116
-118
-118
-122
-110
-85
-42
16
84
142
171
145
64
-53
-160
-233
-259
-255
-240
-229
-220
-217
-215
-211
-213
-210
-212
-214
-218
-220
-223
-225
-229
-233
-235
-237
-240
-245
-249
-253
-256
-262
-264
-268
-270
-275
-274
-277
-278
-278
-278
-276
-273
-270
-262
-255
-246
-236
-225
-215
-202
-191
-180
-168
-157
-145
-136
-127
-116
-107
-100
-96
-92
-88
-87
-88
-88
-88
-91
-91
-92
-94
-93
-96
-96
-98
-98
-95
-99
-98
-99
-100
-98
-99
-99
-101
-100
-101
-103
-103
-103
-103
-100
-100
-99
-99
-99
-99
-98
-98
-95
-93
-91
-88
-88
-86
-85
-87
-85
-84
-88
-90
-94
-94
-96
-99
-102
-105
-107
-111
-113
-113
-113
-111
-117
-115
-115
-115
-116
-116
-113
-113
-116
-118
-111
-87
-42
21
89
156
189
172
96
-16
-130
-205
-240
-243
-235
-227
-221
-217
-212
-209
-210
-211
-210
-213
-217
-218
-222
-222
-225
-228
-232
-235
-239
-243
-247
-248
-253
-259
-260
-263
-265
-267
-270
-271
-272
-274
-275
-271
-267
-263
-257
-250
-244
-233
-220
-212
-199
-190
-179
-168
-156
-141
-129
-121
-110
-101
-94
-87
-80
-78
-78
-77
-77
-78
-76
-79
-78
-80
-83
-81
-87
-88
-88
-88
-88
-91
-91
-92
-94
-93
-95
-93
-92
-92
-95
-93
-94
-92
-90
-91
-93
-92
-90
-89
-89
-88
-85
-85
-81
-83
-79
-78
-78
-76
-76
-77
-77
-80
-80
-84
-84
-83
-88
-89
-94
-95
-95
-98
-99
-101
-102
-102
-104
-105
-104
-105
-103
-106
-108
-111
-111
-108
-92
-62
-16
46
116
172
199
171
91
-18
-125
-195
-222
-223
-218
-214
-209
-207
-204
-202
-202
-206
-206
-207
-210
-214
-219
-221
-224
-227
-231
-233
-237
-239
-244
-247
-248
-252
-257
-259
-262
-265
-266
-266
-267
-267
-266
-263
-258
-252
-247
-240
-232
-221
-212
-201
-191
-179
-168
-156
-145
-131
-120
-106
-100
-90
-82
-78
-71
-73
-73
-73
-72
-72
-73
-75
-77
-78
-79
-83
-83
-85
-86
-87
-86
-86
-88
-88
-90
-91
-91
-89
-88
-91
-89
-88
-89
-88
-88
-88
-89
-89
-90
-92
-90
-88
-86
-84
-83
-81
-77
-80
-78
-78
-78
-73
-78
-78
-83
-84
-84
-85
-88
-92
-95
-98
-101
-102
-103
-103
-104
-105
-105
-106
-107
-107
-106
-106
-107
-110
-114
-116
-107
-88
-50
3
68
126
166
158
90
-12
-126
-197
-229
-233
-225
-220
-214
-206
-202
-201
-202
-202
-202
-204
-206
-210
-212
-215
-218
-220
-221
-225
-229
-233
-236
-239
-243
-248
-251
-253
-256
-259
-263
-263
-266
-266
-268
-263
-263
-259
-256
-251
-240
-233
-223
-213
-202
-195
-179
-168
-156
-144
-133
-120
-110
-103
-95
-90
-87
-84
-83
-80
-80
-83
-83
-83
-84
-88
-90
-92
-93
-93
-95
-93
-95
-94
-95
-98
-99
-99
-102
-101
-100
-99
-98
-99
-99
-99
-98
-95
-97
-96
-96
-96
-92
-97
-97
-94
-91
-88
-89
-89
-88
-87
-84
-83
-85
-92
-94
-97
-96
-97
-98
-101
-107
-110
-111
-112
-113
-113
-116
-116
-118
-118
-118
-119
-122
-122
-122
-123
-125
-125
-111
-87
-49
6
72
131
162
137
50
-73
-186
-248
-263
-254
-240
-229
-221
-217
-214
-213
-214
-214
-218
-221
-224
-228
-229
-232
-233
-238
-241
-248
-251
-256
-260
-263
-263
-267
-270
-275
-278
-278
-283
-286
-286
-287
-287
-284
-279
-275
-270
-263
-252
-240
-229
-217
-205
-194
-181
-167
-156
-145
-134
-126
-118
-111
-105
-99
-96
-93
-91
-92
-92
-93
-94
-95
-96
-95
-96
-97
-98
-100
-100
-102
-103
-103
-106
-103
-100
-104
-104
-106
-105
-102
-105
-105
-106
-104
-102
-102
-102
-102
-103
-103
-104
-103
-101
-98
-97
-92
-92
-89
-88
-88
-89
-92
-95
-96
-97
-98
-99
-100
-103
-107
-108
-111
-111
-114
-115
-116
-118
-118
-118
-118
-118
-119
-118
-119
-121
-124
-122
-107
-77
-31
30
100
161
194
175
101
-8
-120
-205
-244
-248
-240
-232
-224
-218
-217
-213
-214
-218
-218
-219
-222
-224
-225
-232
-235
-238
-240
-241
-244
-248
-252
-257
-259
-262
-264
-268
-270
-275
-276
-278
-278
-276
-274
-272
-268
-265
-259
-252
-242
-234
-221
-211
-198
-186
-175
-163
-153
-140
-129
-118
-108
-100
-95
-88
-85
-83
-83
-83
-80
-83
-83
-83
-87
-87
-86
-92
-92
-95
-94
-91
-94
-95
-96
-97
-96
-96
-96
-98
-96
-94
-95
-93
-92
-93
-92
-91
-90
-93
-92
-90
-89
-89
-88
-87
-87
-84
-80
-79
-77
-77
-75
-77
-79
-81
-84
-83
-83
-86
-90
-95
-98
-98
-100
-100
-101
-100
-99
-103
-104
-105
-104
-104
-103
-103
-104
-107
-109
-102
-83
-45
8
76
144
193
195
134
27
-93
-178
-218
-224
-218
-210
-204
-202
-198
-198
-196
-197
-199
-199
-203
-206
-210
-212
-217
-218
-219
-224
-225
-229
-233
-237
-241
-244
-247
-248
-252
-255
-256
-258
-258
-258
-258
-255
-253
-248
-241
-236
-227
-218
-209
-196
-184
-172
-157
-148
-137
-125
-113
-102
-95
-84
-77
-67
-62
-64
-64
-62
-63
-61
-64
-66
-67
-68
-68
-68
-72
-71
-73
-73
-74
-75
-75
-76
-78
-77
-77
-78
-78
-77
-75
-76
-76
-75
-77
-76
-76
-75
-74
-76
-73
-73
-73
-72
-71
-69
-69
-70
-67
-65
-63
-58
-60
-61
-65
-67
-67
-70
-72
-71
-75
-79
-83
-85
-86
-88
-88
-91
-92
-92
-90
-93
-93
-92
-94
-93
-94
-98
-100
-96
-78
-42
6
65
127
178
195
158
67
-38
-140
-199
-219
-218
-207
-201
-197
-191
-190
-187
-186
-186
-187
-190
-194
-195
-198
-202
-205
-209
-210
-214
-218
-220
-226
-232
-237
-240
-244
-245
-247
-248
-252
-255
-255
-252
-252
-250
-244
-239
-232
-225
-217
-207
-198
-187
-178
-168
-158
-149
-139
-122
-110
-99
-91
-84
-79
-76
-72
-69
-68
-67
-68
-69
-70
-71
-74
-76
-78
-79
-78
-79
-80
-81
-83
-84
-84
-85
-86
-87
-88
-87
-87
-84
-83
-83
-83
-83
-85
-86
-89
-88
-84
-86
-84
-85
-84
-80
-83
-79
-78
-77
-76
-73
-73
-73
-76
-77
-79
-80
-83
-83
-87
-89
-93
-96
-98
-100
-100
-102
-105
-105
-108
-107
-107
-107
-108
-107
-106
-108
-111
-108
-98
-73
-25
31
96
153
185
171
101
-11
-128
-210
-245
-246
-235
-224
-217
-210
-204
-202
-202
-203
-205
-206
-209
-211
-214
-217
-220
-222
-225
-229
-235
-239
-243
-247
-251
-256
-259
-262
-267
-268
-271
-271
-271
-271
-273
-273
-270
-265
-258
-251
-244
-237
-228
-218
-209
-196
-186
-174
-162
-151
-138
-126
-116
-108
-98
-92
-87
-85
-85
-84
-84
-83
-87
-88
-90
-91
-92
-93
-93
-94
-95
-95
-97
-97
-98
-98
-98
-100
-100
-98
-99
-100
-100
-98
-97
-98
-96
-98
-98
-98
-98
-99
-98
-98
-95
-94
-92
-92
-91
-91
-89
-87
-85
-84
-85
-86
-91
-92
-93
-95
-97
-96
-99
-102
-107
-107
-110
-112
-113
-114
-115
-118
-115
-115
-114
-115
-118
-118
-119
-118
-106
-77
-31
31
101
160
192
171
94
-19
-134
-208
-239
-241
-235
-228
-221
-217
-212
-210
-212
-213
-215
-219
-220
-221
-225
-228
-228
-232
-233
-238
-240
-244
-251
-255
-256
-259
-264
-267
-270
-273
-275
-278
-278
-278
-278
-276
-273
-270
-263
-258
-249
-240
-232
-220
-210
-197
-185
-174
-163
-151
-140
-127
-115
-106
-98
-93
-92
-88
-87
-87
-87
-88
-87
-88
-88
-91
-93
-95
-93
-96
-97
-98
-98
-98
-99
-100
-101
-99
-100
-102
-100
-99
-101
-100
-100
-99
-98
-98
-98
-98
-99
-100
-100
-99
-100
-98
-98
-96
-95
-92
-91
-89
-88
-87
-87
-87
-87
-90
-95
-96
-93
-98
-98
-103
-106
-106
-111
-110
-113
-111
-113
-111
-113
-114
-116
-116
-117
-116
-115
-118
-119
-116
-99
-69
-19
50
123
176
183
130
30
-87
-179
-229
-241
-238
-229
-223
-218
-214
-213
-212
-212
-214
-217
-219
-221
-227
-229
-230
-233
-236
-240
-244
-247
-252
-255
-258
-260
-265
-269
-271
-275
-278
-278
-279
-278
-278
-278
-275
-270
-262
-255
-247
-237
-225
-217
-205
-194
-181
-171
-159
-149
-138
-125
-116
-108
-99
-95
-84
-83
-83
-82
-80
-79
-83
-84
-87
-87
-88
-90
-92
-93
-92
-93
-93
-95
-96
-97
-97
-97
-98
-97
-98
-98
-96
-97
-97
-96
-96
-96
-94
-95
-95
-96
-94
-95
-94
-95
-94
-94
-90
-90
-88
-88
-84
-80
-83
-80
-83
-83
-85
-89
-90
-90
-91
-93
-98
-100
-105
-106
-107
-106
-107
-110
-110
-112
-112
-111
-111
-110
-111
-113
-114
-118
-113
-97
-61
-16
42
108
167
190
151
69
-38
-138
-199
-229
-229
-222
-219
-213
-212
-205
-204
-205
-205
-206
-210
-213
-215
-218
-218
-221
-224
-226
-229
-235
-238
-242
-244
-248
-252
-253
-256
-258
-259
-263
-267
-265
-268
-267
-266
-261
-256
-253
-244
-237
-227
-220
-210
-199
-187
-176
-166
-152
-138
-126
-118
-105
-98
-91
-85
-81
-80
-79
-78
-79
-78
-79
-80
-83
-87
-88
-88
-90
-90
-91
-92
-93
-93
-93
-95
-96
-98
-97
-96
-96
-96
-97
-96
-93
-94
-93
-95
-94
-91
-93
-94
-95
-95
-93
-95
-95
-93
-91
-89
-87
-87
-85
-83
-80
-80
-81
-83
-87
-91
-90
-91
-92
-95
-98
-100
-103
-107
-107
-108
-110
-111
-112
-111
-111
-111
-112
-112
-113
-115
-118
-122
-120
-112
-89
-47
15
80
141
167
137
49
-65
-165
-225
-246
-242
-233
-224
-218
-210
-206
-206
-205
-205
-206
-209
-209
-212
-213
-217
-219
-221
-224
-230
-234
-238
-240
-242
-248
-252
-257
-259
-262
-263
-265
-269
-270
-271
-270
-269
-267
-262
-258
-255
-247
-239
-230
-219
-206
-195
-186
-174
-163
-153
-141
-129
-120
-111
-104
-97
-92
-89
-87
-84
-84
-85
-87
-88
-91
-92
-93
-92
-92
-95
-96
-97
-98
-98
-98
-96
-99
-99
-100
-103
-100
-102
-100
-101
-99
-99
-99
-99
-98
-99
-99
-99
-99
-100
-98
-98
-96
-96
-95
-93
-93
-91
-89
-88
-87
-87
-88
-89
-92
-93
-95
-96
-98
-100
-104
-109
-110
-106
-111
-111
-113
-116
-118
-115
-115
-116
-115
-114
-115
-118
-120
-113
-92
-53
4
71
137
178
175
115
8
-110
-200
-243
-248
-238
-226
-218
-212
-209
-206
-207
-207
-209
-209
-212
-213
-217
-218
-222
-224
-228
-232
-235
-240
-242
-245
-250
-252
-256
-259
-263
-266
-268
-270
-271
-271
-271
-270
-268
-263
-258
-252
-246
-237
-225
-215
-205
-194
-182
-169
-158
-145
-131
-119
-107
-98
-90
-84
-80
-77
-76
-76
-76
-77
-76
-76
-79
-80
-80
-83
-82
-87
-87
-88
-88
-88
-89
-91
-91
-90
-89
-89
-89
-88
-87
-86
-86
-87
-87
-87
-87
-87
-86
-85
-87
-86
-84
-83
-81
-80
-79
-78
-77
-75
-74
-73
-73
-69
-74
-76
-78
-78
-78
-80
-84
-87
-89
-93
-95
-96
-97
-98
-98
-96
-98
-98
-98
-99
-99
-98
-99
-103
-104
-95
-71
-34
22
89
153
191
185
116
7
-106
-187
-217
-218
-214
-208
-199
-198
-194
-194
-194
-198
-195
-198
-198
-201
-204
-206
-209
-213
-217
-218
-222
-225
-230
-233
-237
-240
-245
-247
-248
-253
-252
-253
-253
-252
-252
-250
-247
-241
-236
-228
-221
-211
-202
-193
-181
-172
-159
-146
-133
-118
-106
-90
-84
-77
-72
-65
-59
-61
-59
-58
-60
-62
-64
-64
-66
-67
-67
-68
-69
-72
-73
-75
-75
-76
-77
-77
-78
-77
-77
-78
-76
-76
-76
-75
-74
-73
-76
-74
-73
-73
-73
-74
-73
-71
-72
-72
-72
-70
-65
-66
-65
-65
-61
-60
-59
-60
-62
-64
-66
-68
-69
-70
-70
-76
-77
-81
-83
-85
-84
-86
-87
-89
-90
-92
-91
-91
-91
-90
-91
-91
-93
-93
-79
-52
-4
57
128
187
211
178
97
-16
-118
-183
-207
-209
-201
-196
-189
-186
-185
-184
-184
-186
-187
-191
-194
-197
-198
-201
-202
-206
-210
-215
-218
-222
-225
-228
-232
-235
-237
-239
-240
-244
-245
-246
-247
-245
-242
-242
-239
-233
-229
-221
-213
-201
-191
-182
-169
-158
-146
-136
-126
-115
-104
-92
-83
-75
-69
-64
-60
-58
-60
-58
-60
-62
-61
-64
-63
-65
-68
-69
-71
-73
-73
-74
-74
-76
-76
-78
-77
-78
-77
-75
-73
-77
-77
-77
-76
-75
-77
-78
-77
-77
-73
-74
-76
-76
-74
-72
-72
-71
-73
-72
-72
-69
-66
-64
-65
-70
-72
-75
-77
-78
-80
-82
-82
-85
-87
-89
-89
-91
-94
-96
-98
-97
-98
-98
-98
-100
-99
-98
-104
-107
-105
-92
-64
-23
38
109
165
184
137
42
-77
-172
-224
-237
-225
-211
-200
-190
-187
-189
-191
-195
-197
-199
-198
-198
-198
-201
-205
-208
-213
-218
-220
-225
-227
-232
-236
-239
-244
-248
-251
-254
-258
-260
-262
-262
-261
-259
-258
-253
-247
-240
-233
-225
-217
-205
-195
-187
-178
-168
-157
-143
-129
-118
-110
-100
-93
-84
-80
-78
-76
-74
-73
-74
-78
-80
-83
-84
-83
-87
-87
-87
-89
-91
-91
-93
-90
-95
-92
-93
-93
-91
-94
-93
-95
-94
-95
-94
-94
-95
-95
-95
-93
-93
-92
-91
-91
-90
-88
-87
-84
-85
-83
-79
-78
-78
-79
-82
-85
-87
-88
-90
-91
-92
-95
-99
-104
-106
-102
-106
-107
-108
-107
-106
-111
-110
-111
-110
-109
-111
-115
-115
-107
-84
-46
11
77
141
183
174
106
-2
-122
-211
-244
-243
-233
-221
-214
-209
-202
-202
-201
-202
-204
-204
-209
-210
-214
-217
-222
-223
-225
-229
-233
-240
-240
-245
-250
-254
-256
-258
-261
-262
-263
-265
-267
-267
-267
-264
-263
-259
-255
-248
-238
-229
-219
-207
-198
-187
-175
-163
-155
-138
-128
-116
-105
-97
-90
-82
-79
-77
-76
-76
-76
-78
-77
-75
-79
-81
-83
-83
-81
-85
-87
-87
-88
-88
-88
-89
-91
-90
-88
-88
-86
-89
-88
-89
-88
-86
-87
-87
-88
-89
-88
-87
-86
-87
-84
-83
-82
-80
-79
-77
-75
-74
-70
-71
-71
-72
-78
-78
-78
-78
-78
-84
-87
-92
-96
-97
-98
-98
-98
-98
-98
-99
-99
-102
-102
-102
-102
-103
-105
-106
-100
-83
-47
6
72
139
187
186
130
30
-87
-173
-216
-227
-222
-217
-210
-204
-200
-198
-198
-198
-202
-202
-206
-209
-210
-214
-217
-218
-222
-225
-230
-233
-237
-240
-244
-248
-250
-252
-256
-258
-259
-259
-259
-260
-258
-256
-254
-248
-240
-235
-225
-215
-202
-194
-183
-171
-159
-145
-134
-123
-110
-99
-87
-81
-76
-73
-72
-66
-66
-65
-67
-69
-70
-72
-73
-74
-76
-77
-79
-79
-81
-80
-83
-83
-83
-83
-83
-83
-83
-83
-82
-83
-85
-84
-83
-83
-81
-83
-80
-81
-81
-80
-81
-79
-76
-78
-77
-77
-74
-69
-71
-70
-68
-67
-69
-73
-76
-77
-77
-78
-78
-82
-84
-88
-92
-93
-92
-93
-93
-95
-96
-97
-96
-97
-98
-98
-97
-98
-101
-103
-97
-76
-35
23
91
155
191
171
90
-23
-127
-198
-219
-221
-214
-207
-199
-195
-194
-192
-191
-194
-194
-198
-200
-202
-202
-209
-210
-214
-217
-218
-219
-225
-231
-234
-237
-239
-241
-244
-248
-250
-252
-250
-254
-254
-251
-249
-242
-239
-233
-225
-217
-209
-195
-184
-172
-158
-149
-137
-126
-113
-102
-91
-83
-77
-73
-67
-63
-62
-61
-60
-60
-64
-63
-66
-67
-69
-71
-72
-72
-73
-75
-77
-76
-77
-77
-77
-78
-77
-79
-78
-78
-78
-77
-74
-76
-76
-77
-75
-74
-78
-77
-77
-76
-76
-75
-73
-73
-70
-69
-68
-66
-65
-61
-64
-64
-67
-69
-71
-71
-73
-76
-78
-81
-87
-87
-87
-89
-89
-91
-90
-93
-95
-95
-97
-95
-95
-96
-98
-100
-98
-81
-58
-13
49
114
174
202
180
106
3
-105
-179
-213
-214
-207
-198
-194
-190
-188
-189
-191
-195
-195
-198
-201
-202
-206
-207
-210
-214
-217
-218
-221
-227
-232
-235
-237
-239
-243
-247
-248
-249
-253
-253
-252
-251
-249
-247
-240
-235
-227
-220
-212
-202
-192
-182
-171
-161
-149
-138
-125
-115
-102
-91
-80
-73
-70
-66
-65
-65
-65
-65
-68
-67
-68
-69
-73
-73
-76
-78
-79
-79
-78
-80
-78
-81
-81
-83
-83
-78
-83
-82
-83
-81
-80
-81
-80
-83
-82
-81
-83
-82
-82
-81
-80
-80
-80
-78
-77
-75
-73
-72
-72
-70
-72
-73
-77
-79
-79
-81
-80
-83
-87
-91
-96
-97
-97
-97
-96
-100
-103
-99
-103
-102
-104
-104
-101
-106
-107
-108
-98
-72
-30
24
85
142
177
160
87
-22
-133
-208
-235
-232
-222
-212
-202
-198
-194
-194
-194
-194
-198
-200
-203
-205
-206
-209
-209
-215
-218
-221
-224
-232
-234
-237
-240
-245
-250
-252
-253
-256
-259
-262
-263
-266
-262
-259
-256
-249
-243
-233
-224
-213
-204
-194
-183
-172
-157
-146
-134
-122
-112
-103
-97
-90
-86
-83
-83
-78
-77
-77
-80
-80
-78
-78
-83
-85
-87
-88
-84
-88
-91
-92
-92
-92
-93
-95
-96
-95
-94
-96
-96
-97
-95
-93
-95
-97
-98
-98
-98
-98
-98
-99
-95
-87
-83
-79
-80
-80
-82
-80
-80
-81
-83
-86
-88
-91
-93
-95
-98
-98
-99
-103
-103
-107
-108
-107
-113
-115
-114
-117
-118
-116
-113
-115
-115
-119
-113
-96
-61
-12
50
113
164
182
142
49
-73
-179
-240
-255
-248
-237
-224
-218
-210
-207
-208
-209
-212
-213
-215
-217
-220
-219
-222
-227
-232
-236
-237
-240
-244
-247
-249
-256
-259
-263
-265
-267
-270
-273
-275
-275
-271
-268
-264
-262
-257
-251
-240
-232
-219
-207
-198
-186
-177
-163
-153
-138
-126
-116
-107
-99
-93
-87
-82
-83
-83
-83
-83
-80
-84
-84
-84
-87
-83
-87
-86
-88
-91
-90
-91
-93
-92
-93
-92
-94
-93
-97
-95
-96
-95
-95
-95
-92
-92
-91
-90
-88
-88
-89
-88
-89
-88
-87
-85
-80
-79
-78
-76
-77
-77
-76
-80
-82
-84
-83
-81
-84
-90
-96
-99
-99
-99
-100
-101
-99
-101
-103
-102
-103
-102
-103
-102
-103
-107
-110
-106
-90
-54
2
68
138
190
197
152
55
-64
-163
-218
-233
-227
-218
-213
-208
-201
-198
-197
-198
-202
-204
-206
-209
-212
-214
-217
-220
-224
-227
-230
-233
-237
-240
-244
-247
-248
-251
-255
-258
-262
-261
-262
-261
-259
-257
-253
-250
-242
-236
-227
-218
-206
-198
-189
-175
-160
-143
-129
-118
-107
-97
-84
-80
-77
-74
-71
-67
-69
-70
-69
-69
-70
-72
-76
-77
-77
-78
-78
-80
-83
-82
-84
-85
-85
-84
-84
-84
-84
-86
-87
-87
-87
-85
-84
-84
-83
-83
-80
-80
-80
-81
-82
-80
-77
-78
-76
-76
-73
-70
-70
-69
-67
-67
-70
-73
-77
-78
-78
-79
-83
-84
-88
-91
-92
-93
-96
-97
-97
-96
-96
-96
-96
-97
-98
-97
-98
-102
-105
-102
-84
-50
1
67
135
187
203
155
60
-58
-157
-218
-229
-225
-215
-207
-201
-197
-195
-195
-195
-198
-198
-202
-205
-209
-211
-217
-218
-222
-224
-228
-232
-236
-239
-242
-244
-247
-249
-250
-254
-256
-258
-256
-257
-255
-252
-249
-243
-242
-235
-228
-218
-211
-198
-186
-172
-160
-149
-137
-125
-111
-100
-89
-80
-74
-69
-65
-64
-62
-60
-60
-61
-65
-65
-69
-70
-73
-73
-73
-72
-73
-75
-77
-79
-80
-78
-78
-80
-80
-82
-80
-79
-81
-79
-77
-79
-78
-77
-76
-73
-76
-76
-77
-77
-77
-77
-76
-75
-71
-66
-65
-64
-64
-63
-67
-68
-70
-72
-73
-77
-78
-79
-82
-83
-87
-87
-90
-92
-92
-95
-93
-92
-92
-93
-95
-94
-94
-97
-99
-98
-81
-46
0
67
137
193
217
181
99
-17
-122
-191
-214
-215
-206
-201
-197
-193
-189
-187
-189
-190
-192
-197
-200
-202
-204
-207
-210
-214
-215
-218
-221
-224
-232
-235
-237
-239
-240
-244
-248
-248
-253
-255
-255
-254
-252
-248
-244
-238
-234
-227
-218
-206
-196
-186
-174
-163
-155
-141
-130
-118
-104
-96
-87
-79
-73
-67
-64
-62
-62
-61
-64
-67
-69
-72
-73
-72
-72
-73
-75
-78
-78
-80
-79
-77
-80
-80
-82
-82
-80
-83
-82
-82
-83
-83
-82
-80
-81
-83
-82
-83
-82
-83
-83
-82
-80
-78
-78
-76
-76
-73
-73
-69
-69
-72
-75
-79
-80
-81
-83
-85
-88
-92
-95
-96
-98
-99
-101
-101
-102
-102
-98
-103
-102
-103
-103
-103
-110
-111
-102
-82
-46
2
64
130
179
186
132
33
-90
-186
-237
-241
-233
-220
-212
-202
-199
-198
-198
-198
-199
-200
-201
-207
-209
-214
-217
-217
-219
-224
-228
-233
-240
-242
-245
-248
-253
-259
-259
-262
-265
-265
-267
-270
-270
-267
-263
-258
-253
-247
-239
-230
-219
-210
-199
-186
-175
-161
-151
-138
-128
-118
-107
-98
-92
-88
-84
-81
-79
-80
-82
-84
-88
-87
-84
-87
-88
-88
-92
-91
-94
-95
-96
-95
-94
-96
-96
-97
-94
-95
-96
-95
-96
-95
-95
-94
-96
-98
-97
-97
-94
-92
-93
-92
-93
-91
-88
-86
-82
-83
-81
-80
-80
-81
-84
-85
-86
-88
-89
-91
-94
-95
-101
-103
-105
-105
-103
-107
-107
-110
-111
-111
-111
-111
-114
-116
-118
-115
-102
-79
-38
19
80
141
182
176
113
7
-110
-195
-235
-240
-234
-224
-218
-214
-209
-206
-205
-207
-209
-214
-216
-218
-219
-223
-226
-230
-235
-236
-238
-240
-245
-248
-252
-257
-260
-264
-266
-267
-268
-270
-271
-270
-267
-265
-262
-257
-248
-239
-232
-221
-213
-201
-190
-178
-164
-153
-141
-130
-118
-110
-102
-96
-88
-80
-81
-79
-78
-77
-75
-78
-78
-80
-82
-81
-84
-84
-86
-86
-88
-88
-89
-91
-92
-92
-93
-91
-91
-91
-91
-91
-91
-91
-90
-89
-90
-91
-91
-92
-93
-91
-90
-87
-86
-84
-81
-78
-79
-77
-76
-75
-72
-76
-79
-82
-83
-80
-84
-85
-87
-91
-95
-98
-98
-99
-100
-99
-100
-102
-102
-102
-103
-103
-104
-105
-107
-107
-95
-67
-23
35
105
168
195
172
88
-29
-137
-206
-230
-229
-221
-214
-210
-202
-198
-195
-196
-198
-199
-202
-203
-206
-209
-213
-217
-218
-221
-224
-228
-232
-236
-238
-243
-247
-250
-254
-257
-259
-258
-259
-259
-256
-256
-252
-249
-242
-237
-229
-219
-211
-201
-191
-179
-165
-152
-140
-128
-116
-106
-95
-89
-81
-78
-73
-66
-67
-67
-68
-68
-68
-71
-73
-74
-76
-78
-78
-79
-79
-80
-81
-83
-83
-85
-84
-85
-85
-84
-86
-85
-85
-83
-83
-83
-83
-84
-83
-83
-83
-83
-82
-82
-78
-78
-79
-77
-76
-72
-73
-71
-68
-67
-69
-71
-76
-77
-78
-78
-79
-82
-87
-90
-94
-94
-95
-94
-95
-97
-96
-98
-98
-98
-99
-98
-99
-102
-102
-98
-79
-42
8
72
139
188
195
138
38
-85
-174
-220
-223
-218
-210
-203
-198
-194
-191
-192
-194
-195
-196
-198
-198
-201
-202
-206
-211
-217
-219
-221
-225
-229
-233
-237
-240
-244
-248
-248
-251
-253
-255
-253
-256
-255
-252
-249
-241
-238
-229
-222
-214
-206
-192
-179
-167
-156
-144
-130
-118
-108
-96
-85
-78
-72
-68
-65
-62
-61
-60
-60
-63
-67
-67
-67
-69
-70
-72
-74
-73
-76
-76
-77
-76
-79
-77
-78
-78
-77
-79
-79
-78
-81
-79
-76
-78
-78
-77
-78
-76
-79
-79
-77
-76
-74
-73
-71
-69
-69
-67
-66
-64
-63
-64
-67
-70
-70
-72
-71
-72
-77
-79
-84
-85
-89
-89
-90
-91
-91
-91
-92
-93
-92
-95
-96
-96
-96
-99
-98
-83
-52
3
67
139
197
202
149
46
-72
-163
-209
-218
-213
-204
-201
-197
-195
-192
-191
-192
-193
-193
-197
-198
-201
-205
-207
-210
-214
-218
-220
-222
-225
-229
-234
-238
-240
-244
-244
-249
-252
-252
-255
-255
-253
-248
-245
-238
-234
-224
-216
-206
-195
-186
-174
-161
-150
-137
-125
-112
-98
-90
-79
-74
-69
-66
-63
-62
-62
-61
-62
-63
-65
-69
-69
-69
-70
-73
-75
-76
-78
-77
-77
-78
-78
-77
-81
-80
-81
-80
-77
-79
-79
-79
-78
-78
-78
-78
-78
-76
-76
-76
-76
-75
-73
-72
-68
-66
-65
-61
-62
-64
-65
-67
-71
-74
-76
-77
-78
-79
-84
-88
-91
-92
-91
-95
-93
-93
-97
-97
-97
-98
-93
-96
-97
-99
-100
-94
-78
-40
12
76
145
192
195
139
41
-76
-164
-209
-218
-212
-204
-201
-198
-194
-192
-191
-192
-195
-197
-198
-202
-205
-207
-212
-214
-218
-220
-224
-228
-231
-236
-239
-244
-245
-248
-250
-253
-255
-256
-256
-257
-253
-250
-245
-240
-235
-228
-218
-209
-198
-186
-175
-160
-148
-136
-122
-111
-100
-91
-83
-78
-71
-67
-65
-66
-66
-66
-69
-69
-68
-70
-73
-74
-77
-74
-78
-79
-80
-80
-80
-83
-81
-82
-83
-82
-81
-81
-84
-83
-81
-83
-83
-81
-79
-80
-80
-81
-81
-81
-83
-80
-78
-78
-76
-75
-74
-73
-69
-68
-69
-70
-73
-76
-77
-80
-84
-86
-89
-92
-95
-95
-93
-98
-98
-100
-100
-98
-101
-100
-103
-103
-103
-108
-107
-107
-96
-70
-31
25
91
149
182
162
88
-18
-126
-199
-225
-224
-217
-207
-201
-197
-194
-196
-196
-198
-199
-201
-202
-206
-207
-211
-214
-217
-219
-224
-226
-232
-235
-239
-243
-246
-248
-254
-256
-258
-259
-260
-259
-261
-259
-255
-252
-247
-239
-232
-221
-214
-206
-198
-186
-172
-157
-145
-134
-121
-111
-102
-92
-85
-79
-77
-77
-76
-74
-78
-79
-80
-81
-79
-84
-86
-88
-89
-88
-89
-91
-93
-92
-93
-93
-94
-96
-95
-94
-93
-93
-94
-92
-92
-94
-95
-98
-97
-95
-90
-91
-91
-88
-87
-84
-83
-83
-79
-79
-78
-80
-83
-87
-90
-90
-89
-92
-95
-98
-102
-102
-108
-108
-111
-110
-111
-111
-111
-111
-111
-114
-115
-116
-118
-114
-99
-69
-22
39
103
160
173
128
34
-86
-190
-243
-252
-244
-231
-219
-210
-205
-204
-205
-205
-206
-209
-206
-210
-213
-217
-220
-219
-223
-227
-229
-235
-240
-246
-248
-252
-257
-260
-263
-267
-268
-270
-271
-271
-271
-269
-263
-259
-256
-250
-242
-236
-225
-218
-205
-192
-181
-169
-157
-144
-135
-123
-115
-103
-98
-90
-86
-82
-79
-80
-83
-82
-84
-82
-87
-88
-91
-92
-92
-93
-92
-95
-95
-96
-98
-98
-98
-96
-96
-94
-96
-95
-94
-94
-96
-96
-97
-95
-92
-92
-92
-92
-90
-86
-87
-84
-84
-82
-81
-78
-75
-78
-81
-87
-88
-85
-91
-93
-95
-97
-98
-102
-103
-106
-105
-105
-107
-107
-109
-110
-111
-111
-111
-111
-113
-118
-118
-108
-82
-44
11
77
141
185
180
115
7
-115
-198
-234
-237
-229
-221
-214
-208
-204
-202
-206
-205
-206
-209
-210
-213
-217
-218
-221
-224
-229
-232
-236
-239
-241
-244
-248
-252
-257
-258
-263
-264
-266
-270
-268
-267
-266
-266
-260
-255
-250
-243
-232
-223
-212
-201
-189
-176
-165
-154
-141
-130
-120
-107
-98
-91
-83
-78
-78
-73
-73
-74
-74
-77
-77
-79
-79
-80
-83
-84
-84
-87
-89
-88
-89
-90
-89
-91
-91
-91
-88
-88
-88
-88
-88
-89
-88
-88
-89
-89
-88
-90
-89
-88
-84
-86
-84
-82
-79
-76
-76
-75
-74
-72
-73
-75
-77
-80
-81
-81
-84
-87
-91
-95
-96
-98
-98
-99
-99
-102
-104
-104
-104
-105
-105
-105
-103
-107
-109
-108
-95
-65
-17
48
119
175
187
138
43
-73
-166
-221
-232
-225
-218
-210
-206
-201
-198
-198
-198
-198
-201
-202
-204
-205
-209
-212
-218
-220
-224
-228
-232
-235
-237
-242
-245
-248
-252
-255
-256
-258
-259
-258
-259
-258
-254
-248
-240
-237
-230
-221
-214
-205
-191
-179
-166
-154
-145
-131
-118
-108
-98
-88
-80
-73
-69
-67
-65
-65
-66
-68
-69
-72
-72
-73
-73
-76
-76
-77
-78
-79
-78
-81
-80
-80
-81
-81
-80
-79
-81
-81
-81
-83
-80
-77
-78
-79
-80
-80
-77
-79
-77
-75
-73
-72
-72
-71
-70
-69
-66
-65
-66
-67
-69
-73
-74
-75
-77
-78
-81
-85
-90
-92
-91
-92
-93
-93
-94
-95
-97
-96
-96
-98
-97
-99
-99
-96
-85
-57
-7
57
129
178
186
137
41
-71
-160
-206
-218
-213
-204
-198
-196
-191
-189
-187
-188
-191
-192
-195
-196
-199
-203
-206
-209
-210
-214
-217
-220
-222
-225
-229
-233
-239
-243
-244
-249
-249
-251
-251
-250
-248
-250
-244
-241
-238
-229
-223
-211
-201
-191
-181
-169
-158
-146
-134
-125
-116
-107
-98
-88
-80
-75
-69
-66
-67
-69
-71
-72
-72
-73
-73
-74
-73
-76
-77
-78
-78
-79
-81
-82
-83
-83
-83
-78
-83
-83
-84
-84
-79
-82
-82
-84
-83
-83
-84
-83
-84
-80
-80
-79
-78
-77
-75
-73
-72
-71
-70
-69
-72
-73
-77
-78
-79
-80
-83
-84
-88
-91
-95
-96
-98
-98
-98
-101
-100
-100
-101
-101
-102
-102
-102
-107
-110
-102
-82
-41
13
75
138
174
164
95
-8
-119
-199
-234
-233
-222
-213
-206
-201
-199
-198
-198
-195
-195
-198
-199
-201
-205
-207
-210
-213
-218
-221
-224
-225
-228
-236
-239
-240
-245
-251
-252
-256
-259
-262
-264
-262
-260
-258
-255
-251
-247
-242
-236
-227
-218
-207
-195
-185
-172
-158
-147
-134
-123
-113
-103
-97
-88
-83
-79
-78
-77
-79
-79
-79
-80
-80
-80
-84
-84
-88
-87
-84
-87
-88
-88
-88
-88
-91
-92
-92
-91
-91
-93
-92
-93
-91
-91
-92
-91
-92
-91
-92
-90
-88
-87
-84
-84
-82
-81
-80
-78
-79
-78
-77
-78
-83
-85
-84
-87
-88
-88
-93
-95
-98
-102
-102
-103
-105
-102
-107
-106
-108
-108
-104
-109
-110
-111
-115
-116
-104
-85
-49
4
69
131
174
168
103
-7
-125
-207
-236
-234
-221
-217
-209
-203
-202
-202
-202
-202
-206
-206
-209
-210
-212
-218
-220
-224
-226
-232
-235
-238
-242
-245
-251
-252
-256
-259
-260
-265
-263
-265
-263
-263
-261
-259
-255
-249
-240
-233
-222
-211
-198
-189
-178
-166
-155
-140
-131
-118
-107
-100
-92
-86
-84
-80
-78
-79
-77
-78
-79
-78
-83
-86
-86
-88
-85
-89
-90
-91
-91
-90
-92
-93
-95
-93
-93
-95
-94
-95
-93
-92
-91
-90
-91
-92
-95
-94
-93
-93
-91
-90
-88
-87
-84
-83
-83
-80
-80
-79
-79
-79
-83
-84
-84
-85
-88
-90
-90
-97
-99
-103
-105
-103
-107
-107
-108
-107
-107
-111
-110
-111
-110
-112
-115
-115
-103
-78
-38
20
83
143
185
179
111
3
-114
-195
-233
-238
-229
-224
-217
-213
-209
-207
-209
-210
-213
-216
-220
-219
-224
-226
-229
-235
-237
-239
-244
-247
-249
-252
-258
-259
-263
-266
-268
-270
-271
-271
-271
-270
-267
-267
-262
-257
-248
-241
-233
-222
-212
-201
-191
-178
-165
-153
-140
-128
-118
-107
-98
-89
-83
-80
-79
-79
-77
-74
-79
-80
-83
-83
-83
-85
-85
-87
-88
-87
-89
-91
-92
-91
-91
-93
-92
-92
-92
-93
-93
-92
-92
-91
-91
-90
-91
-91
-92
-93
-91
-91
-90
-88
-89
-87
-84
-81
-80
-79
-77
-72
-75
-76
-77
-81
-79
-84
-85
-85
-88
-91
-96
-98
-100
-99
-99
-100
-103
-105
-106
-106
-105
-105
-106
-107
-108
-111
-108
-95
-65
-20
37
103
163
190
161
75
-41
-140
-200
-222
-222
-218
-214
-210
-205
-204
-206
-204
-205
-207
-209
-210
-214
-217
-218
-222
-225
-228
-231
-233
-237
-240
-243
-247
-249
-252
-255
-257
-258
-262
-262
-262
-259
-258
-252
-248
-243
-237
-229
-222
-213
-201
-189
-179
-168
-158
-144
-133
-123
-110
-99
-92
-84
-76
-76
-73
-71
-72
-70
-73
-74
-76
-77
-78
-78
-80
-82
-83
-84
-84
-84
-86
-85
-84
-84
-85
-85
-87
-87
-85
-85
-84
-85
-86
-85
-84
-87
-87
-88
-86
-83
-83
-82
-80
-79
-74
-76
-76
-74
-71
-68
-69
-73
-78
-79
-80
-83
-82
-85
-88
-92
-96
-96
-98
-98
-99
-100
-102
-102
-102
-103
-102
-103
-104
-105
-110
-106
-92
-62
-16
44
104
157
172
134
45
-68
-171
-219
-233
-225
-218
-210
-204
-199
-195
-194
-194
-194
-195
-198
-201
-203
-205
-206
-210
-214
-217
-220
-221
-226
-228
-233
-238
-240
-244
-247
-250
-251
-252
-255
-256
-256
-256
-252
-251
-247
-241
-232
-225
-216
-207
-199
-189
-182
-169
-159
-146
-136
-125
-113
-104
-95
-87
-80
-78
-73
-74
-72
-71
-72
-73
-75
-78
-79
-79
-80
-83
-83
-84
-83
-85
-86
-87
-87
-87
-85
-84
-85
-87
-87
-83
-87
-87
-87
-88
-84
-88
-87
-85
-84
-81
-79
-78
-76
-74
-73
-74
-70
-72
-71
-75
-77
-78
-78
-78
-80
-83
-85
-92
-95
-98
-98
-98
-98
-100
-102
-102
-103
-103
-103
-104
-103
-104
-108
-106
-98
-71
-28
22
81
139
174
164
95
-14
-130
-209
-239
-239
-228
-217
-209
-203
-198
-195
-195
-196
-198
-201
-202
-204
-205
-209
-213
-217
-218
-220
-224
-228
-230
-236
-240
-244
-249
-250
-255
-257
-259
-259
-262
-262
-262
-261
-258
-255
-247
-239
-232
-225
-215
-205
-194
-182
-170
-158
-145
-134
-122
-113
-103
-95
-85
-79
-77
-75
-72
-73
-72
-74
-76
-77
-79
-80
-80
-80
-82
-83
-84
-83
-85
-86
-85
-88
-90
-89
-89
-86
-88
-87
-87
-87
-88
-88
-89
-88
-88
-88
-89
-88
-88
-85
-83
-80
-78
-77
-76
-76
-72
-71
-73
-77
-79
-79
-78
-81
-83
-86
-91
-95
-96
-97
-98
-98
-98
-98
-100
-100
-102
-99
-102
-102
-102
-104
-103
-110
-102
-80
-40
12
76
141
183
182
126
27
-87
-178
-221
-232
-224
-217
-209
-204
-198
-198
-198
-198
-200
-202
-206
-206
-212
-214
-219
-219
-222
-228
-230
-235
-238
-243
-244
-248
-250
-255
-258
-259
-260
-263
-263
-263
-260
-257
-254
-247
-242
-237
-227
-217
-205
-191
-179
-167
-156
-143
-132
-118
-108
-99
-88
-82
-76
-70
-67
-65
-65
-66
-67
-68
-68
-69
-72
-70
-73
-75
-77
-77
-74
-78
-79
-80
-78
-78
-80
-81
-82
-81
-83
-83
-83
-83
-80
-79
-78
-80
-80
-79
-78
-77
-77
-75
-72
-70
-67
-66
-65
-64
-65
-66
-69
-71
-72
-75
-76
-79
-83
-86
-89
-92
-90
-95
-94
-96
-97
-96
-98
-99
-99
-99
-99
-102
-103
-102
-88
-61
-18
42
106
166
206
198
134
34
-79
-166
-209
-218
-218
-217
-213
-209
-205
-205
-206
-207
-210
-210
-215
-218
-221
-222
-228
-230
-233
-237
-239
-243
-245
-248
-253
-256
-259
-260
-263
-266
-266
-266
-267
-263
-262
-258
-254
-247
-238
-230
-220
-210
-198
-188
-176
-164
-153
-143
-134
-118
-105
-95
-87
-80
-75
-70
-69
-69
-67
-69
-70
-72
-73
-71
-77
-78
-80
-81
-78
-83
-83
-85
-85
-86
-87
-87
-87
-88
-88
-89
-89
-89
-88
-88
-88
-88
-88
-87
-86
-86
-86
-84
-83
-80
-78
-77
-76
-73
-72
-70
-71
-73
-76
-78
-79
-77
-82
-86
-90
-94
-96
-98
-101
-100
-99
-100
-103
-103
-106
-105
-105
-105
-106
-107
-110
-107
-92
-64
-18
42
110
166
194
168
95
-8
-110
-182
-214
-218
-217
-214
-210
-209
-207
-206
-206
-212
-211
-213
-217
-218
-224
-225
-229
-231
-234
-238
-240
-244
-248
-252
-255
-258
-259
-263
-266
-267
-268
-267
-267
-267
-266
-262
-257
-251
-243
-237
-226
-220
-206
-197
-183
-172
-158
-146
-134
-119
-110
-101
-95
-87
-83
-78
-73
-74
-73
-77
-77
-75
-78
-80
-83
-84
-84
-86
-87
-89
-91
-91
-92
-92
-95
-93
-95
-93
-93
-92
-92
-95
-93
-93
-93
-95
-94
-92
-95
-95
-93
-95
-91
-91
-88
-84
-84
-84
-78
-81
-80
-83
-85
-84
-90
-90
-95
-97
-98
-104
-107
-110
-110
-110
-110
-108
-111
-113
-114
-115
-115
-114
-116
-118
-122
-121
-111
-88
-51
2
63
121
145
116
34
-78
-174
-226
-243
-239
-232
-222
-214
-210
-206
-207
-204
-205
-206
-209
-210
-214
-217
-221
-224
-228
-229
-232
-236
-237
-239
-245
-249
-255
-257
-260
-259
-262
-263
-268
-270
-270
-271
-268
-264
-262
-256
-247
-240
-234
-224
-217
-204
-195
-182
-171
-159
-152
-138
-127
-116
-107
-99
-98
-93
-92
-90
-90
-91
-93
-92
-95
-95
-98
-99
-102
-102
-103
-103
-104
-106
-105
-107
-107
-107
-109
-107
-108
-109
-109
-108
-107
-107
-107
-107
-108
-108
-108
-106
-101
-101
-99
-98
-97
-93
-95
-92
-91
-92
-92
-96
-98
-102
-102
-102
-104
-107
-114
-118
-118
-118
-118
-115
-119
-122
-125
-125
-125
-122
-120
-121
-125
-126
-126
-118
-99
-65
-17
42
106
149
152
96
-3
-122
-210
-258
-263
-255
-240
-232
-224
-218
-217
-217
-217
-217
-218
-220
-222
-225
-228
-230
-234
-236
-240
-244
-247
-248
-253
-256
-259
-262
-266
-269
-272
-276
-278
-275
-278
-277
-275
-271
-265
-259
-253
-244
-236
-226
-214
-202
-190
-181
-171
-158
-148
-137
-128
-118
-107
-99
-93
-88
-85
-85
-84
-84
-85
-85
-87
-87
-88
-91
-92
-94
-95
-95
-95
-96
-97
-96
-96
-98
-98
-99
-98
-96
-96
-96
-96
-92
-97
-97
-96
-95
-90
-93
-92
-91
-89
-85
-84
-83
-81
-78
-78
-78
-80
-82
-84
-84
-87
-87
-89
-92
-97
-98
-100
-102
-103
-105
-104
-105
-107
-105
-107
-107
-105
-107
-108
-111
-111
-108
-97
-67
-22
37
104
160
185
161
82
-26
-135
-206
-235
-232
-221
-215
-210
-205
-201
-198
-201
-202
-205
-206
-209
-210
-215
-217
-218
-220
-224
-226
-230
-232
-238
-240
-241
-247
-251
-252
-256
-256
-258
-259
-259
-258
-260
-256
-252
-248
-242
-235
-224
-214
-205
-194
-183
-172
-160
-148
-134
-121
-108
-98
-88
-80
-75
-70
-67
-65
-65
-65
-65
-66
-67
-68
-71
-73
-73
-76
-76
-77
-78
-78
-79
-80
-80
-80
-78
-80
-81
-82
-80
-78
-80
-78
-81
-80
-79
-79
-80
-80
-79
-77
-76
-73
-71
-70
-69
-67
-65
-64
-64
-65
-67
-70
-70
-72
-73
-74
-78
-80
-83
-87
-88
-90
-91
-91
-94
-94
-93
-93
-93
-94
-94
-91
-94
-97
-98
-93
-72
-40
9
70
133
183
190
139
43
-69
-158
-202
-214
-210
-202
-195
-191
-187
-186
-187
-187
-191
-194
-195
-198
-202
-205
-206
-210
-213
-216
-218
-218
-224
-226
-232
-236
-240
-243
-245
-248
-248
-250
-250
-248
-248
-245
-244
-239
-233
-225
-219
-210
-201
-191
-180
-171
-157
-148
-136
-124
-113
-100
-88
-80
-72
-67
-62
-60
-60
-59
-60
-62
-61
-62
-65
-67
-69
-69
-67
-70
-71
-73
-74
-72
-76
-75
-77
-77
-77
-78
-75
-76
-76
-75
-76
-77
-78
-76
-76
-76
-76
-75
-76
-75
-72
-71
-68
-67
-65
-66
-62
-63
-64
-68
-70
-73
-75
-74
-76
-78
-80
-84
-88
-91
-91
-89
-93
-93
-92
-93
-93
-98
-99
-98
-98
-98
-99
-102
-96
-76
-41
7
67
129
171
169
108
7
-107
-188
-225
-230
-220
-211
-204
-198
-195
-191
-192
-192
-195
-198
-198
-202
-205
-209
-212
-218
-218
-222
-225
-228
-233
-236
-241
-244
-248
-251
-256
-256
-258
-258
-260
-262
-260
-260
-258
-256
-248
-240
-232
-221
-214
-204
-194
-182
-171
-158
-145
-137
-122
-113
-100
-92
-84
-80
-78
-76
-75
-74
-76
-76
-77
-78
-76
-80
-82
-83
-84
-84
-87
-87
-89
-89
-88
-88
-90
-92
-92
-93
-93
-93
-95
-95
-95
-95
-95
-93
-93
-93
-91
-89
-89
-87
-87
-83
-82
-81
-80
-80
-78
-80
-83
-85
-87
-87
-84
-89
-95
-99
-102
-99
-104
-104
-107
-107
-107
-108
-108
-110
-108
-107
-110
-112
-115
-115
-111
-95
-61
-12
49
116
165
178
133
37
-88
-186
-239
-252
-243
-231
-221
-212
-209
-206
-206
-207
-210
-210
-212
-214
-216
-220
-221
-225
-229
-233
-236
-239
-242
-248
-251
-256
-260
-263
-266
-267
-271
-273
-274
-275
-274
-271
-268
-263
-259
-252
-244
-237
-230
-218
-206
-195
-185
-173
-163
-151
-138
-126
-115
-105
-96
-91
-85
-78
-80
-79
-80
-78
-76
-79
-80
-84
-84
-87
-88
-89
-91
-90
-91
-91
-92
-91
-92
-93
-93
-92
-95
-92
-93
-93
-93
-93
-95
-95
-92
-93
-93
-92
-92
-90
-91
-89
-87
-84
-83
-78
-80
-77
-77
-78
-78
-83
-84
-87
-87
-88
-92
-94
-98
-99
-100
-103
-103
-104
-106
-108
-106
-108
-108
-107
-107
-108
-111
-115
-115
-106
-83
-45
8
68
136
184
194
154
68
-40
-138
-202
-229
-233
-228
-222
-218
-213
-209
-206
-206
-209
-210
-213
-215
-218
-220
-222
-226
-228
-232
-234
-237
-240
-244
-248
-253
-256
-259
-260
-263
-267
-267
-268
-268
-270
-270
-267
-263
-261
-256
-247
-238
-229
-221
-211
-201
-189
-179
-164
-153
-141
-129
-120
-105
-98
-88
-82
-78
-76
-73
-73
-73
-74
-76
-77
-79
-80
-83
-82
-83
-84
-85
-87
-88
-88
-88
-88
-89
-88
-88
-90
-89
-91
-88
-88
-88
-87
-88
-87
-84
-86
-87
-87
-84
-80
-84
-82
-81
-78
-78
-76
-76
-74
-71
-71
-73
-76
-78
-80
-81
-82
-83
-88
-91
-95
-96
-96
-96
-98
-99
-99
-101
-99
-99
-102
-99
-101
-102
-104
-108
-105
-88
-62
-17
42
108
168
196
178
106
4
-100
-178
-214
-220
-218
-212
-206
-202
-198
-198
-198
-198
-201
-204
-206
-209
-213
-214
-218
-219
-222
-228
-230
-234
-237
-239
-243
-244
-250
-255
-257
-258
-258
-260
-260
-262
-259
-259
-255
-250
-245
-238
-232
-220
-210
-198
-187
-176
-163
-150
-138
-126
-116
-102
-95
-87
-78
-76
-71
-69
-67
-66
-69
-69
-70
-70
-73
-73
-75
-78
-79
-79
-82
-81
-83
-83
-83
-84
-84
-80
-83
-84
-84
-84
-82
-87
-85
-85
-84
-85
-85
-85
-84
-84
-82
-83
-82
-80
-78
-78
-77
-77
-75
-72
-72
-73
-77
-81
-80
-82
-84
-87
-88
-92
-96
-98
-98
-99
-99
-102
-102
-103
-105
-106
-107
-106
-102
-105
-106
-110
-111
-115
-102
-78
-37
20
85
142
164
125
38
-77
-175
-229
-243
-235
-221
-214
-206
-203
-198
-197
-198
-200
-200
-202
-205
-207
-206
-211
-211
-215
-219
-222
-228
-232
-236
-238
-244
-246
-248
-253
-257
-260
-263
-262
-264
-265
-265
-263
-262
-259
-256
-248
-243
-233
-225
-215
-204
-195
-182
-171
-160
-149
-138
-128
-118
-106
-99
-93
-88
-83
-80
-79
-78
-79
-78
-78
-81
-81
-80
-85
-87
-88
-88
-87
-92
-92
-92
-93
-92
-92
-92
-95
-95
-95
-95
-96
-95
-95
-95
-95
-95
-95
-94
-95
-94
-95
-95
-91
-92
-89
-87
-85
-83
-80
-80
-79
-82
-87
-91
-90
-91
-91
-92
-96
-98
-99
-104
-107
-108
-110
-107
-111
-110
-111
-111
-113
-113
-113
-114
-115
-118
-118
-111
-91
-55
-3
57
118
162
160
99
-8
-125
-210
-248
-253
-242
-229
-224
-217
-211
-209
-206
-209
-209
-213
-213
-220
-221
-222
-225
-227
-233
-235
-239
-242
-244
-248
-252
-256
-259
-262
-266
-270
-271
-274
-274
-276
-275
-272
-270
-265
-259
-255
-248
-242
-233
-224
-214
-204
-191
-179
-168
-156
-142
-133
-120
-108
-100
-91
-88
-83
-81
-80
-77
-79
-79
-80
-83
-80
-84
-85
-85
-87
-86
-89
-88
-92
-92
-92
-92
-90
-91
-91
-92
-91
-92
-92
-90
-90
-89
-88
-90
-91
-91
-89
-89
-90
-89
-90
-87
-87
-84
-80
-80
-79
-75
-76
-75
-77
-80
-79
-83
-84
-82
-87
-88
-94
-96
-99
-98
-98
-99
-99
-102
-102
-102
-103
-102
-104
-103
-103
-103
-106
-105
-95
-68
-20
43
114
175
199
165
76
-27
-129
-198
-225
-229
-218
-213
-207
-201
-201
-198
-198
-200
-201
-203
-205
-207
-211
-214
-217
-220
-224
-227
-230
-235
-238
-240
-245
-248
-250
-253
-257
-258
-262
-262
-263
-262
-260
-258
-253
-248
-240
-237
-227
-218
-206
-191
-182
-168
-154
-143
-133
-118
-107
-97
-87
-75
-70
-67
-64
-61
-62
-60
-63
-64
-64
-65
-65
-67
-68
-69
-72
-72
-72
-73
-73
-75
-75
-73
-73
-75
-75
-75
-76
-73
-75
-73
-73
-72
-72
-72
-73
-72
-69
-73
-71
-73
-70
-63
-65
-62
-62
-60
-58
-57
-57
-58
-60
-61
-64
-65
-65
-67
-70
-74
-78
-80
-81
-82
-82
-83
-85
-85
-87
-86
-87
-86
-87
-87
-87
-89
-91
-84
-66
-32
20
78
142
196
209
167
78
-29
-125
-179
-201
-199
-194
-189
-185
-180
-179
-178
-181
-183
-183
-186
-189
-192
-197
-198
-201
-206
-209
-210
-214
-217
-221
-225
-227
-232
-235
-235
-239
-240
-242
-244
-241
-240
-239
-236
-229
-226
-217
-208
-198
-188
-179
-168
-157
-147
-137
-122
-112
-98
-89
-77
-68
-61
-53
-51
-47
-47
-46
-45
-44
-46
-48
-49
-50
-51
-52
-54
-54
-57
-57
-58
-58
-58
-58
-58
-58
-58
-59
-55
-58
-57
-58
-58
-57
-58
-58
-58
-58
-57
-57
-57
-57
-56
-54
-54
-53
-51
-50
-50
-49
-47
-45
-45
-47
-50
-54
-54
-55
-56
-58
-61
-65
-69
-72
-73
-75
-76
-76
-77
-76
-73
-78
-79
-79
-79
-77
-80
-81
-79
-63
-34
12
71
137
187
206
167
84
-19
-118
-183
-207
-206
-198
-191
-186
-182
-178
-175
-176
-175
-177
-178
-179
-183
-185
-188
-189
-194
-197
-199
-202
-206
-210
-214
-218
-221
-229
-232
-233
-237
-239
-243
-241
-242
-243
-242
-238
-233
-227
-221
-216
-206
-198
-191
-180
-171
-161
-151
-140
-128
-115
-102
-93
-83
-74
-68
-67
-65
-63
-59
-60
-61
-62
-64
-65
-65
-68
-69
-67
-72
-72
-73
-73
-72
-74
-76
-78
-76
-75
-78
-78
-79
-78
-76
-77
-78
-78
-78
-78
-77
-77
-78
-77
-77
-76
-74
-74
-72
-73
-70
-69
-65
-63
-63
-65
-69
-70
-71
-73
-73
-76
-78
-82
-88
-90
-91
-97
-96
-96
-95
-93
-96
-97
-98
-98
-99
-100
-103
-107
-107
-98
-79
-45
7
69
136
179
181
125
29
-93
-186
-235
-243
-233
-224
-216
-206
-202
-200
-198
-201
-199
-202
-204
-207
-209
-213
-215
-218
-221
-224
-232
-235
-238
-240
-245
-250
-257
-259
-264
-267
-270
-271
-273
-273
-273
-273
-270
-265
-260
-256
-249
-240
-230
-220
-210
-198
-184
-171
-158
-149
-138
-126
-116
-106
-98
-93
-89
-83
-87
-84
-83
-81
-80
-82
-85
-85
-87
-88
-91
-97
-98
-99
-98
-98
-97
-96
-94
-96
-98
-98
-101
-104
-107
-103
-102
-102
-102
-101
-100
-100
-101
-102
-104
-101
-98
-98
-98
-97
-95
-92
-92
-91
-89
-88
-84
-86
-89
-95
-97
-96
-99
-101
-103
-107
-107
-114
-115
-116
-118
-118
-119
-118
-118
-121
-120
-120
-122
-122
-125
-125
-122
-107
-78
-31
30
96
154
186
162
87
-25
-145
-222
-259
-268
-262
-255
-244
-237
-232
-229
-229
-227
-231
-234
-236
-237
-239
-244
-247
-250
-252
-256
-260
-265
-270
-275
-278
-278
-282
-286
-291
-294
-295
-298
-298
-298
-296
-291
-290
-284
-278
-271
-262
-254
-241
-228
-215
-201
-191
-184
-172
-160
-150
-140
-130
-123
-114
-105
-103
-101
-100
-102
-100
-100
-98
-98
-99
-105
-108
-110
-113
-114
-113
-110
-107
-108
-112
-115
-118
-119
-120
-118
-115
-117
-117
-119
-119
-118
-118
-118
-117
-116
-115
-114
-118
-111
-108
-110
-110
-107
-108
-103
-103
-100
-98
-97
-95
-95
-98
-102
-107
-110
-113
-111
-110
-113
-117
-121
-123
-125
-126
-126
-125
-129
-127
-127
-122
-123
-127
-130
-134
-133
-134
-126
-106
-67
-5
62
130
181
192
149
58
-61
-171
-242
-277
-278
-269
-258
-250
-243
-240
-241
-240
-240
-240
-240
-242
-244
-248
-253
-256
-260
-264
-267
-271
-275
-279
-282
-288
-291
-293
-293
-298
-300
-301
-301
-299
-298
-298
-294
-290
-286
-278
-267
-256
-244
-233
-220
-209
-196
-183
-171
-159
-148
-135
-123
-114
-106
-104
-102
-98
-98
-97
-96
-98
-98
-100
-102
-103
-106
-106
-110
-110
-111
-115
-115
-114
-115
-116
-117
-115
-115
-115
-118
-115
-116
-115
-113
-115
-111
-111
-110
-109
-107
-108
-110
-108
-106
-102
-103
-99
-99
-96
-96
-92
-90
-91
-88
-90
-92
-96
-98
-98
-100
-102
-104
-107
-111
-115
-116
-115
-116
-118
-118
-120
-122
-120
-118
-118
-118
-121
-118
-121
-121
-113
-87
-42
18
87
151
198
190
125
22
-96
-190
-235
-244
-238
-233
-226
-224
-221
-221
-220
-221
-223
-228
-229
-232
-233
-237
-238
-242
-244
-249
-253
-255
-258
-262
-265
-270
-273
-273
-275
-278
-278
-278
-279
-278
-278
-273
-266
-262
-255
-246
-236
-225
-217
-204
-191
-179
-166
-154
-141
-131
-118
-106
-97
-89
-84
-79
-78
-75
-73
-74
-74
-76
-76
-78
-78
-80
-83
-83
-81
-87
-87
-88
-88
-87
-88
-89
-91
-89
-87
-90
-89
-90
-88
-89
-89
-88
-88
-87
-87
-86
-87
-86
-85
-85
-84
-83
-83
-82
-80
-78
-76
-75
-73
-73
-70
-69
-70
-74
-78
-78
-77
-80
-83
-86
-88
-89
-95
-96
-98
-97
-94
-97
-98
-99
-99
-98
-99
-99
-99
-102
-105
-103
-93
-65
-19
41
106
167
198
171
92
-19
-126
-191
-216
-215
-210
-205
-201
-198
-197
-195
-196
-198
-201
-203
-206
-210
-210
-214
-217
-221
-225
-227
-228
-235
-236
-239
-243
-244
-248
-250
-253
-256
-256
-256
-256
-256
-253
-252
-247
-242
-237
-229
-220
-210
-201
-191
-179
-164
-153
-138
-124
-113
-101
-90
-81
-74
-68
-62
-63
-62
-63
-63
-60
-64
-64
-67
-68
-70
-72
-72
-74
-73
-76
-77
-78
-77
-77
-78
-78
-78
-79
-78
-78
-77
-78
-78
-79
-81
-78
-78
-77
-77
-77
-78
-79
-78
-79
-79
-78
-76
-77
-75
-76
-75
-69
-70
-68
-67
-65
-63
-69
-71
-73
-76
-77
-78
-83
-87
-91
-93
-93
-94
-97
-97
-98
-97
-96
-99
-99
-101
-101
-100
-103
-104
-100
-87
-57
-11
50
115
161
171
128
42
-65
-157
-215
-230
-226
-217
-206
-201
-194
-192
-191
-194
-195
-196
-195
-198
-201
-204
-206
-209
-211
-214
-218
-223
-227
-231
-233
-239
-242
-245
-248
-249
-251
-256
-256
-259
-259
-259
-258
-254
-252
-247
-244
-237
-232
-218
-207
-195
-183
-177
-164
-151
-138
-127
-117
-105
-98
-90
-85
-83
-83
-82
-82
-84
-84
-87
-86
-88
-90
-90
-91
-92
-92
-93
-96
-96
-96
-97
-98
-101
-99
-100
-100
-100
-101
-99
-98
-99
-99
-100
-100
-96
-98
-98
-98
-101
-98
-99
-98
-99
-99
-98
-96
-94
-94
-93
-91
-91
-88
-89
-92
-95
-96
-97
-98
-99
-104
-106
-111
-115
-115
-117
-116
-118
-121
-121
-122
-122
-121
-120
-122
-122
-125
-130
-128
-118
-96
-54
5
65
129
164
143
62
-55
-171
-244
-268
-262
-248
-237
-229
-225
-221
-220
-219
-220
-224
-227
-232
-236
-236
-238
-239
-243
-244
-252
-257
-260
-265
-267
-272
-275
-280
-282
-285
-285
-285
-286
-291
-293
-290
-286
-281
-275
-269
-262
-252
-242
-232
-218
-207
-194
-182
-171
-158
-148
-135
-125
-118
-111
-107
-104
-103
-99
-99
-99
-98
-99
-102
-107
-108
-110
-112
-112
-112
-111
-114
-115
-118
-117
-118
-120
-118
-118
-118
-119
-122
-119
-119
-118
-118
-118
-118
-118
-116
-118
-120
-120
-120
-118
-118
-117
-115
-113
-113
-110
-110
-107
-105
-105
-105
-110
-111
-113
-115
-115
-118
-120
-124
-126
-130
-132
-133
-136
-133
-134
-135
-136
-138
-136
-136
-136
-137
-139
-138
-140
-129
-106
-64
-4
62
124
160
142
63
-54
-169
-240
-266
-264
-253
-243
-237
-233
-230
-229
-229
-232
-236
-239
-239
-242
-246
-248
-251
-253
-256
-259
-262
-267
-271
-273
-278
-280
-282
-285
-286
-289
-290
-290
-290
-290
-289
-285
-279
-276
-270
-262
-253
-242
-232
-220
-209
-198
-187
-174
-163
-150
-138
-126
-118
-110
-105
-99
-98
-98
-97
-96
-98
-97
-99
-99
-99
-104
-105
-107
-107
-105
-109
-107
-110
-110
-108
-111
-111
-112
-111
-111
-112
-111
-111
-109
-109
-108
-108
-110
-107
-107
-106
-107
-108
-107
-110
-107
-105
-103
-101
-99
-96
-95
-95
-91
-93
-92
-92
-98
-98
-100
-100
-101
-107
-110
-113
-115
-117
-115
-115
-116
-118
-119
-118
-118
-119
-118
-118
-118
-120
-124
-121
-107
-76
-24
42
111
169
184
138
49
-61
-157
-214
-235
-236
-232
-227
-222
-217
-216
-214
-214
-215
-219
-220
-221
-225
-227
-232
-233
-237
-239
-243
-246
-248
-253
-258
-260
-263
-265
-269
-270
-273
-275
-274
-275
-273
-271
-268
-263
-258
-251
-243
-236
-225
-214
-206
-195
-183
-172
-157
-145
-133
-119
-110
-96
-92
-84
-83
-79
-74
-76
-77
-77
-78
-79
-81
-83
-83
-85
-85
-87
-88
-89
-89
-90
-90
-90
-93
-92
-93
-91
-91
-91
-90
-91
-89
-89
-88
-87
-89
-88
-88
-91
-89
-88
-89
-85
-89
-87
-87
-85
-80
-83
-81
-78
-78
-76
-77
-78
-81
-83
-83
-84
-86
-88
-91
-95
-98
-99
-102
-102
-102
-103
-104
-106
-106
-107
-107
-107
-106
-107
-112
-111
-103
-81
-44
6
69
133
179
170
103
3
-100
-180
-217
-225
-219
-217
-209
-204
-201
-198
-198
-198
-199
-203
-206
-209
-210
-214
-218
-220
-222
-225
-232
-235
-238
-240
-243
-247
-249
-252
-255
-256
-256
-259
-262
-262
-260
-257
-256
-250
-243
-237
-229
-218
-209
-198
-188
-178
-164
-153
-141
-130
-121
-111
-102
-96
-88
-83
-82
-80
-80
-80
-81
-80
-82
-84
-87
-88
-89
-91
-92
-95
-96
-96
-97
-98
-98
-98
-98
-98
-98
-97
-98
-98
-93
-97
-98
-99
-98
-97
-98
-99
-99
-99
-99
-99
-98
-99
-96
-95
-94
-93
-93
-91
-89
-87
-88
-92
-93
-96
-98
-99
-102
-104
-110
-110
-115
-116
-115
-114
-116
-118
-118
-118
-119
-119
-118
-120
-120
-124
-127
-126
-105
-76
-26
35
103
153
166
129
42
-73
-177
-240
-259
-253
-241
-230
-221
-218
-217
-214
-218
-219
-219
-219
-222
-226
-226
-230
-233
-238
-241
-244
-251
-254
-259
-262
-264
-271
-275
-278
-278
-282
-285
-285
-287
-285
-285
-280
-275
-271
-265
-260
-253
-242
-233
-221
-212
-199
-189
-176
-163
-151
-140
-126
-116
-110
-105
-100
-99
-98
-98
-98
-98
-100
-103
-102
-103
-103
-103
-105
-110
-113
-113
-113
-114
-115
-116
-117
-119
-115
-113
-115
-115
-116
-116
-115
-117
-116
-118
-115
-116
-115
-118
-118
-115
-114
-114
-111
-112
-110
-109
-106
-103
-102
-101
-100
-103
-104
-107
-107
-110
-111
-111
-113
-116
-120
-125
-126
-128
-129
-134
-132
-134
-134
-133
-137
-135
-134
-134
-135
-138
-135
-121
-91
-41
24
94
149
169
130
40
-79
-187
-253
-278
-275
-264
-255
-248
-243
-239
-237
-235
-237
-238
-239
-240
-239
-246
-248
-251
-255
-259
-262
-267
-271
-274
-278
-278
-285
-290
-293
-295
-297
-298
-298
-298
-297
-293
-289
-284
-278
-271
-260
-249
-239
-228
-220
-214
-201
-190
-178
-165
-153
-145
-134
-126
-118
-113
-107
-104
-103
-102
-100
-100
-102
-103
-105
-105
-102
-109
-110
-113
-113
-117
-114
-116
-115
-115
-116
-116
-115
-116
-116
-118
-115
-114
-115
-115
-116
-115
-114
-115
-113
-115
-115
-115
-113
-111
-111
-109
-107
-106
-105
-103
-99
-98
-97
-97
-99
-102
-100
-105
-106
-110
-111
-117
-117
-120
-121
-122
-124
-122
-123
-125
-126
-127
-126
-126
-126
-127
-128
-130
-127
-111
-79
-27
39
107
166
186
148
61
-57
-156
-219
-245
-247
-239
-235
-231
-226
-222
-224
-222
-223
-224
-225
-231
-232
-235
-237
-240
-243
-245
-247
-251
-256
-259
-262
-266
-270
-273
-275
-276
-278
-278
-278
-278
-278
-275
-273
-267
-262
-255
-246
-237
-226
-214
-202
-190
-179
-166
-156
-143
-129
-118
-106
-98
-90
-82
-83
-79
-79
-78
-77
-80
-80
-83
-84
-84
-85
-88
-88
-90
-91
-91
-92
-92
-92
-92
-92
-93
-92
-92
-92
-90
-90
-91
-88
-90
-89
-88
-88
-88
-89
-88
-88
-89
-88
-88
-87
-81
-83
-79
-79
-77
-73
-73
-72
-73
-74
-76
-78
-79
-81
-81
-84
-87
-90
-95
-96
-96
-97
-97
-98
-98
-98
-98
-99
-99
-98
-99
-98
-102
-103
-97
-77
-36
20
90
153
198
198
137
39
-70
-158
-202
-218
-212
-206
-199
-195
-192
-189
-191
-191
-194
-195
-198
-198
-203
-204
-206
-209
-211
-214
-218
-220
-224
-226
-232
-234
-238
-240
-243
-244
-245
-245
-247
-247
-246
-244
-239
-234
-226
-219
-212
-202
-194
-186
-172
-160
-149
-138
-125
-110
-98
-86
-76
-65
-59
-56
-52
-50
-50
-48
-50
-50
-50
-54
-55
-56
-58
-58
-60
-58
-59
-62
-63
-64
-62
-63
-63
-64
-65
-62
-62
-64
-63
-61
-62
-58
-62
-60
-61
-61
-58
-60
-60
-61
-61
-60
-58
-57
-56
-54
-53
-50
-48
-47
-47
-49
-51
-54
-57
-58
-58
-58
-62
-65
-70
-73
-73
-72
-73
-74
-76
-77
-77
-76
-77
-79
-79
-78
-81
-83
-81
-68
-38
3
62
124
182
210
182
100
-9
-110
-177
-198
-199
-191
-184
-178
-175
-171
-171
-171
-172
-175
-176
-178
-180
-181
-185
-189
-192
-195
-198
-201
-202
-209
-214
-216
-220
-223
-227
-231
-233
-233
-236
-232
-233
-232
-228
-224
-218
-210
-206
-199
-189
-179
-168
-157
-147
-135
-125
-112
-99
-88
-78
-70
-64
-58
-52
-49
-47
-46
-49
-51
-53
-54
-57
-55
-55
-58
-58
-60
-61
-63
-65
-64
-63
-66
-66
-66
-65
-62
-66
-67
-66
-66
-64
-66
-67
-69
-67
-66
-65
-66
-67
-65
-66
-65
-62
-62
-60
-60
-57
-55
-54
-53
-57
-58
-63
-64
-63
-66
-66
-69
-74
-78
-81
-82
-82
-81
-84
-85
-86
-84
-87
-88
-90
-90
-86
-92
-93
-91
-76
-44
4
69
137
186
190
130
29
-87
-178
-224
-233
-222
-210
-198
-193
-187
-184
-181
-181
-183
-184
-186
-191
-194
-196
-198
-199
-205
-209
-213
-215
-220
-223
-225
-231
-233
-238
-239
-241
-244
-249
-248
-248
-248
-248
-244
-242
-237
-232
-223
-215
-202
-192
-179
-168
-158
-146
-134
-122
-110
-100
-93
-83
-77
-71
-68
-66
-65
-65
-65
-66
-65
-66
-65
-70
-73
-74
-76
-74
-78
-79
-78
-78
-79
-82
-83
-83
-83
-83
-82
-80
-80
-83
-83
-80
-78
-79
-80
-84
-84
-84
-83
-81
-83
-79
-78
-77
-76
-74
-71
-69
-69
-68
-70
-74
-78
-80
-81
-83
-84
-82
-88
-92
-96
-97
-95
-98
-98
-99
-100
-99
-99
-102
-102
-103
-103
-107
-107
-97
-72
-33
24
90
152
187
174
102
-12
-131
-210
-239
-239
-227
-218
-210
-205
-201
-199
-201
-201
-201
-202
-208
-209
-210
-215
-218
-223
-224
-228
-230
-233
-237
-241
-247
-251
-255
-258
-259
-262
-264
-265
-265
-264
-263
-258
-256
-250
-242
-233
-224
-217
-206
-195
-187
-172
-161
-149
-139
-126
-115
-102
-94
-82
-76
-73
-70
-69
-69
-68
-72
-72
-73
-73
-73
-77
-77
-79
-79
-80
-80
-81
-84
-83
-83
-84
-83
-84
-84
-83
-82
-80
-81
-81
-80
-80
-81
-81
-80
-83
-81
-83
-82
-80
-80
-77
-78
-75
-73
-73
-69
-65
-65
-65
-69
-71
-72
-76
-76
-77
-79
-83
-88
-88
-92
-92
-94
-95
-96
-96
-97
-96
-97
-96
-98
-97
-98
-99
-99
-91
-65
-23
33
100
168
208
195
122
11
-100
-178
-214
-218
-215
-209
-205
-198
-196
-197
-194
-195
-198
-198
-201
-201
-204
-209
-210
-215
-218
-221
-225
-229
-233
-237
-240
-243
-247
-250
-252
-255
-255
-256
-256
-256
-256
-252
-247
-241
-235
-224
-217
-207
-198
-188
-176
-165
-153
-140
-126
-118
-102
-91
-83
-74
-63
-64
-61
-59
-60
-60
-61
-64
-66
-65
-65
-68
-68
-70
-72
-74
-73
-74
-76
-75
-75
-76
-75
-76
-76
-77
-76
-77
-76
-77
-77
-76
-76
-73
-73
-73
-74
-72
-76
-73
-73
-71
-69
-69
-67
-65
-64
-61
-62
-60
-60
-60
-62
-66
-68
-69
-69
-73
-75
-78
-82
-85
-87
-87
-87
-87
-87
-87
-88
-91
-88
-89
-90
-88
-92
-95
-92
-80
-53
-5
48
114
175
210
201
134
39
-67
-150
-196
-206
-204
-198
-195
-191
-187
-186
-186
-187
-187
-189
-193
-194
-198
-198
-204
-206
-212
-216
-218
-220
-224
-228
-232
-233
-237
-238
-243
-244
-248
-249
-248
-248
-248
-246
-242
-240
-233
-225
-219
-210
-203
-190
-180
-170
-158
-145
-132
-118
-107
-98
-89
-80
-72
-68
-64
-64
-60
-61
-62
-61
-64
-64
-65
-67
-69
-72
-73
-73
-73
-74
-78
-77
-78
-78
-78
-78
-78
-74
-78
-79
-79
-79
-76
-78
-78
-80
-79
-78
-79
-79
-80
-80
-79
-78
-77
-77
-76
-71
-70
-69
-69
-68
-69
-67
-70
-71
-76
-77
-78
-79
-82
-87
-91
-93
-96
-96
-95
-97
-96
-97
-99
-100
-100
-99
-98
-101
-102
-106
-108
-99
-83
-49
2
64
129
168
169
107
4
-111
-195
-232
-238
-225
-217
-209
-201
-198
-195
-194
-195
-197
-198
-200
-202
-206
-208
-212
-215
-218
-221
-222
-229
-232
-236
-238
-242
-244
-248
-254
-258
-260
-260
-262
-263
-263
-262
-260
-256
-252
-245
-239
-232
-224
-216
-206
-196
-183
-172
-161
-150
-138
-127
-116
-105
-98
-92
-87
-84
-83
-81
-81
-80
-83
-84
-84
-88
-88
-87
-92
-94
-96
-95
-91
-95
-96
-97
-97
-96
-96
-97
-98
-99
-98
-98
-98
-98
-98
-98
-96
-96
-96
-98
-99
-99
-99
-98
-96
-97
-92
-92
-91
-89
-89
-85
-84
-86
-88
-93
-95
-95
-96
-98
-100
-102
-102
-108
-111
-113
-114
-117
-115
-117
-118
-118
-120
-118
-119
-119
-120
-122
-120
-106
-78
-34
23
87
145
172
147
67
-48
-158
-228
-252
-253
-246
-237
-231
-223
-218
-218
-217
-219
-221
-222
-225
-232
-232
-233
-235
-239
-244
-247
-251
-255
-257
-261
-267
-272
-275
-278
-280
-282
-283
-285
-287
-289
-286
-282
-279
-273
-266
-257
-248
-239
-229
-218
-206
-193
-179
-168
-157
-145
-134
-122
-115
-109
-102
-95
-95
-91
-92
-92
-88
-92
-92
-95
-96
-97
-99
-100
-103
-102
-102
-103
-104
-106
-105
-107
-107
-106
-106
-105
-105
-104
-104
-105
-105
-105
-103
-103
-104
-103
-103
-103
-104
-101
-102
-102
-99
-99
-96
-95
-93
-91
-88
-91
-91
-93
-95
-94
-97
-97
-98
-102
-107
-111
-113
-113
-114
-115
-115
-118
-118
-117
-119
-118
-118
-116
-119
-120
-122
-119
-102
-67
-16
46
110
171
192
160
75
-38
-141
-211
-240
-241
-237
-229
-222
-218
-214
-214
-213
-214
-217
-218
-221
-224
-226
-230
-234
-235
-239
-242
-245
-250
-255
-258
-262
-264
-265
-267
-271
-271
-271
-271
-271
-270
-267
-262
-256
-250
-243
-232
-225
-217
-206
-195
-183
-175
-161
-150
-139
-129
-114
-103
-96
-88
-81
-79
-77
-78
-78
-78
-79
-80
-79
-82
-84
-84
-87
-87
-88
-90
-90
-91
-91
-91
-91
-91
-91
-92
-90
-91
-90
-90
-89
-88
-88
-87
-86
-85
-86
-85
-84
-82
-86
-85
-84
-83
-78
-79
-77
-77
-75
-73
-70
-69
-70
-73
-75
-77
-77
-76
-78
-81
-85
-87
-90
-92
-92
-92
-92
-95
-95
-98
-96
-97
-97
-95
-98
-100
-98
-87
-62
-18
42
113
173
206
182
100
-9
-113
-179
-206
-209
-203
-198
-195
-190
-189
-187
-187
-188
-191
-194
-195
-199
-201
-203
-206
-210
-211
-214
-217
-219
-223
-225
-232
-233
-236
-239
-240
-240
-244
-244
-244
-243
-238
-237
-232
-226
-218
-213
-201
-193
-182
-171
-160
-149
-138
-127
-115
-103
-93
-83
-75
-67
-60
-58
-54
-51
-51
-52
-53
-54
-54
-55
-57
-57
-58
-60
-61
-63
-62
-64
-64
-63
-64
-64
-64
-63
-65
-65
-64
-62
-64
-64
-64
-64
-61
-64
-62
-63
-62
-62
-64
-63
-62
-61
-61
-60
-60
-59
-58
-57
-53
-53
-50
-51
-53
-54
-57
-58
-60
-64
-65
-67
-70
-73
-78
-78
-78
-77
-77
-79
-82
-78
-82
-81
-80
-80
-79
-86
-85
-77
-53
-14
37
99
160
195
182
110
12
-91
-159
-191
-198
-195
-188
-185
-178
-175
-172
-172
-174
-175
-177
-181
-183
-183
-184
-187
-189
-195
-198
-199
-204
-204
-210
-215
-218
-219
-224
-225
-227
-229
-233
-236
-233
-234
-232
-229
-225
-221
-217
-211
-202
-195
-184
-174
-161
-151
-140
-131
-118
-107
-94
-85
-73
-66
-60
-58
-57
-54
-54
-54
-54
-57
-55
-57
-58
-59
-61
-63
-63
-67
-66
-69
-67
-66
-69
-69
-68
-67
-67
-68
-68
-68
-68
-68
-67
-68
-70
-70
-72
-71
-70
-68
-67
-68
-66
-65
-64
-59
-60
-60
-60
-58
-56
-58
-59
-62
-64
-67
-69
-70
-68
-74
-77
-80
-83
-81
-84
-85
-86
-86
-88
-90
-91
-90
-90
-90
-93
-94
-95
-82
-56
-17
36
99
153
182
161
83
-23
-127
-195
-218
-217
-206
-198
-191
-185
-179
-178
-180
-181
-183
-183
-187
-190
-195
-197
-203
-202
-206
-209
-213
-219
-221
-225
-230
-232
-235
-236
-239
-241
-244
-248
-250
-250
-250
-247
-243
-238
-234
-228
-218
-210
-198
-186
-176
-163
-152
-140
-125
-117
-105
-96
-87
-79
-73
-69
-68
-65
-61
-64
-66
-69
-70
-68
-71
-73
-76
-77
-79
-78
-80
-79
-82
-83
-83
-83
-82
-81
-83
-84
-83
-83
-83
-83
-84
-83
-85
-84
-85
-83
-83
-84
-81
-80
-81
-79
-78
-77
-76
-73
-73
-70
-71
-72
-74
-73
-77
-79
-80
-80
-80
-88
-90
-95
-95
-96
-97
-96
-98
-98
-98
-99
-99
-99
-99
-103
-104
-104
-98
-77
-40
15
77
137
182
184
133
37
-72
-163
-215
-226
-221
-214
-206
-201
-197
-198
-195
-197
-198
-198
-203
-202
-205
-209
-213
-214
-217
-219
-224
-227
-230
-236
-238
-240
-245
-249
-252
-253
-257
-256
-258
-259
-258
-256
-253
-250
-244
-235
-230
-219
-209
-198
-187
-176
-165
-156
-144
-134
-121
-111
-102
-93
-80
-77
-72
-67
-66
-64
-66
-66
-67
-68
-70
-70
-71
-73
-73
-76
-77
-77
-78
-78
-79
-80
-80
-81
-82
-83
-81
-81
-78
-77
-75
-76
-76
-76
-75
-78
-77
-78
-78
-78
-78
-78
-73
-76
-75
-73
-69
-63
-65
-64
-61
-62
-65
-69
-72
-74
-75
-76
-78
-82
-87
-88
-90
-88
-90
-92
-95
-96
-95
-94
-90
-91
-93
-92
-95
-96
-98
-89
-63
-18
44
114
177
204
174
91
-17
-120
-182
-210
-209
-204
-199
-198
-194
-191
-191
-191
-194
-195
-198
-198
-199
-203
-206
-209
-210
-214
-218
-220
-224
-227
-232
-236
-239
-242
-243
-248
-248
-250
-253
-251
-251
-249
-247
-244
-239
-235
-230
-221
-214
-206
-194
-183
-172
-162
-149
-134
-119
-105
-95
-83
-77
-70
-65
-62
-61
-62
-62
-64
-62
-64
-64
-66
-68
-68
-70
-72
-72
-73
-73
-76
-75
-77
-77
-77
-77
-78
-77
-77
-75
-77
-77
-75
-78
-78
-77
-77
-73
-77
-77
-77
-77
-78
-77
-76
-76
-73
-70
-69
-68
-66
-64
-65
-65
-69
-72
-73
-73
-74
-77
-80
-83
-87
-90
-91
-90
-92
-93
-95
-97
-97
-96
-98
-98
-95
-98
-99
-104
-102
-91
-73
-36
21
79
138
171
161
94
-11
-120
-194
-222
-221
-214
-206
-201
-195
-191
-187
-187
-187
-190
-192
-194
-195
-198
-202
-202
-204
-209
-212
-214
-218
-221
-227
-231
-232
-237
-240
-246
-247
-253
-251
-252
-252
-251
-251
-248
-244
-240
-237
-229
-222
-214
-204
-194
-182
-172
-161
-149
-137
-125
-115
-103
-96
-89
-85
-79
-76
-76
-73
-73
-73
-75
-78
-79
-80
-79
-80
-81
-80
-84
-83
-80
-85
-85
-88
-89
-87
-89
-88
-89
-87
-88
-88
-88
-88
-88
-88
-88
-88
-89
-88
-90
-88
-87
-87
-84
-84
-82
-81
-79
-77
-76
-75
-77
-78
-81
-83
-84
-87
-90
-92
-96
-98
-96
-98
-99
-103
-105
-104
-108
-107
-107
-106
-108
-110
-112
-112
-111
-113
-107
-88
-54
-3
59
119
162
160
99
0
-113
-199
-240
-244
-233
-221
-217
-209
-204
-202
-201
-199
-201
-202
-206
-207
-207
-212
-215
-218
-221
-225
-225
-229
-233
-237
-242
-245
-248
-250
-253
-256
-258
-258
-259
-259
-258
-259
-258
-253
-248
-239
-230
-220
-213
-202
-194
-183
-172
-160
-152
-140
-132
-120
-110
-100
-94
-87
-81
-78
-79
-79
-80
-78
-82
-83
-84
-83
-82
-87
-87
-87
-88
-89
-91
-93
-96
-96
-95
-93
-91
-94
-95
-96
-95
-92
-91
-89
-93
-95
-95
-94
-92
-92
-91
-91
-88
-87
-84
-83
-84
-84
-83
-82
-80
-79
-86
-89
-93
-92
-89
-92
-92
-95
-98
-101
-106
-106
-107
-107
-107
-110
-112
-113
-113
-111
-112
-113
-115
-116
-108
-89
-53
-1
58
118
165
182
151
71
-41
-149
-216
-235
-232
-222
-216
-207
-205
-202
-202
-202
-206
-206
-210
-215
-218
-222
-221
-224
-225
-229
-233
-237
-240
-247
-248
-252
-256
-258
-260
-262
-265
-265
-265
-264
-262
-259
-257
-251
-246
-238
-228
-220
-209
-198
-190
-179
-169
-157
-145
-133
-119
-110
-97
-92
-86
-80
-76
-73
-73
-73
-75
-77
-77
-77
-77
-80
-80
-83
-84
-84
-84
-86
-88
-91
-91
-90
-88
-87
-87
-87
-88
-88
-91
-90
-88
-86
-87
-88
-87
-87
-89
-87
-90
-88
-84
-82
-80
-79
-77
-72
-75
-73
-73
-72
-71
-76
-78
-83
-83
-82
-86
-87
-93
-96
-99
-102
-104
-105
-106
-104
-104
-102
-104
-105
-105
-105
-107
-107
-112
-107
-93
-59
-12
47
113
171
198
180
107
7
-95
-177
-217
-229
-225
-218
-215
-209
-206
-206
-206
-206
-209
-213
-217
-218
-220
-223
-224
-229
-232
-235
-238
-240
-245
-249
-253
-256
-259
-262
-265
-267
-267
-264
-265
-263
-262
-258
-252
-248
-242
-236
-226
-218
-206
-195
-184
-172
-163
-148
-135
-125
-114
-102
-95
-84
-80
-77
-73
-73
-72
-71
-72
-75
-75
-78
-79
-81
-83
-83
-84
-87
-89
-91
-90
-91
-90
-90
-91
-92
-92
-91
-92
-92
-90
-89
-89
-90
-89
-88
-84
-88
-89
-88
-88
-84
-87
-84
-83
-80
-78
-76
-76
-75
-74
-73
-77
-77
-80
-80
-83
-84
-87
-88
-92
-98
-98
-99
-102
-102
-104
-104
-103
-103
-104
-105
-106
-103
-105
-107
-105
-92
-58
-12
55
122
177
201
175
103
7
-91
-166
-203
-218
-217
-213
-210
-205
-202
-201
-201
-202
-206
-208
-210
-213
-215
-218
-220
-221
-225
-230
-232
-233
-238
-240
-244
-249
-249
-253
-256
-258
-259
-260
-259
-258
-257
-253
-252
-244
-239
-232
-221
-213
-201
-191
-181
-171
-156
-145
-133
-120
-110
-99
-92
-83
-78
-76
-73
-70
-69
-70
-69
-71
-70
-72
-75
-75
-77
-77
-78
-79
-80
-83
-83
-83
-83
-82
-84
-83
-81
-85
-83
-84
-83
-82
-84
-84
-83
-83
-83
-84
-83
-83
-83
-83
-82
-80
-79
-75
-74
-71
-70
-69
-67
-69
-72
-74
-77
-78
-79
-79
-83
-86
-90
-93
-94
-94
-95
-97
-98
-99
-96
-99
-100
-99
-99
-98
-100
-103
-105
-99
-81
-47
7
75
140
178
160
85
-20
-120
-187
-213
-215
-210
-205
-198
-195
-192
-189
-189
-189
-192
-194
-196
-198
-199
-202
-205
-209
-213
-214
-218
-219
-224
-227
-229
-233
-238
-237
-240
-243
-244
-244
-246
-246
-246
-243
-240
-237
-232
-225
-218
-209
-201
-191
-178
-166
-155
-141
-129
-116
-103
-96
-85
-80
-74
-69
-66
-63
-65
-63
-66
-67
-67
-69
-69
-70
-72
-73
-71
-76
-76
-78
-78
-76
-79
-79
-78
-78
-79
-80
-81
-81
-79
-79
-80
-78
-78
-79
-79
-78
-78
-77
-75
-74
-72
-72
-71
-70
-67
-65
-63
-62
-64
-70
-71
-74
-75
-76
-78
-78
-80
-87
-90
-90
-89
-87
-92
-95
-97
-96
-96
-95
-96
-98
-95
-97
-98
-96
-86
-58
-15
44
107
157
165
122
33
-73
-167
-219
-232
-224
-214
-198
-190
-183
-180
-179
-182
-183
-183
-187
-187
-191
-195
-198
-201
-206
-206
-210
-214
-217
-219
-224
-226
-230
-232
-233
-238
-240
-244
-242
-240
-240
-240
-239
-236
-229
-222
-215
-205
-195
-184
-174
-164
-154
-144
-133
-124
-115
-103
-95
-85
-78
-74
-69
-67
-64
-62
-59
-64
-67
-70
-72
-72
-74
-76
-77
-78
-78
-78
-79
-79
-78
-78
-79
-81
-80
-81
-80
-79
-79
-79
-80
-81
-81
-81
-79
-79
-78
-76
-76
-75
-76
-72
-69
-70
-68
-66
-65
-66
-63
-72
-73
-75
-74
-73
-77
-81
-87
-89
-88
-90
-91
-93
-93
-95
-98
-98
-98
-97
-97
-98
-99
-102
-101
-90
-59
-12
49
110
160
177
135
45
-75
-176
-227
-233
-221
-210
-199
-195
-190
-192
-190
-190
-191
-196
-195
-198
-202
-205
-209
-211
-214
-217
-220
-225
-229
-234
-237
-239
-242
-244
-247
-250
-252
-255
-255
-252
-252
-248
-247
-240
-237
-229
-218
-209
-198
-186
-177
-164
-153
-144
-133
-122
-111
-100
-91
-78
-76
-70
-66
-63
-60
-62
-62
-64
-64
-66
-67
-69
-70
-71
-71
-73
-74
-75
-77
-78
-77
-77
-76
-78
-77
-78
-78
-78
-76
-77
-76
-76
-76
-75
-76
-78
-76
-75
-73
-74
-73
-68
-68
-66
-65
-63
-60
-61
-62
-65
-67
-67
-72
-72
-74
-77
-79
-82
-85
-87
-88
-88
-90
-91
-91
-93
-93
-93
-93
-93
-92
-96
-98
-95
-80
-56
-12
42
102
164
202
200
143
46
-60
-153
-202
-218
-217
-207
-201
-195
-190
-191
-190
-192
-194
-197
-198
-201
-205
-206
-211
-214
-218
-219
-224
-228
-232
-235
-238
-242
-244
-250
-251
-254
-255
-256
-257
-255
-252
-251
-247
-240
-237
-227
-221
-214
-205
-196
-188
-176
-164
-152
-140
-131
-115
-102
-94
-85
-78
-71
-66
-64
-62
-61
-62
-63
-64
-65
-68
-69
-70
-71
-71
-76
-76
-75
-78
-78
-80
-78
-78
-80
-79
-80
-79
-80
-79
-79
-80
-79
-78
-78
-78
-79
-78
-75
-78
-78
-77
-77
-71
-73
-72
-70
-68
-67
-66
-66
-66
-68
-70
-73
-73
-75
-77
-79
-83
-87
-91
-91
-93
-93
-95
-96
-97
-98
-98
-98
-99
-99
-99
-100
-102
-102
-92
-70
-30
24
83
144
188
186
130
39
-67
-154
-201
-217
-214
-210
-206
-201
-198
-195
-197
-197
-198
-201
-202
-206
-208
-210
-213
-217
-219
-224
-227
-229
-234
-234
-240
-243
-247
-249
-250
-255
-256
-258
-258
-259
-257
-256
-251
-248
-243
-235
-228
-218
-210
-199
-189
-178
-166
-156
-145
-134
-123
-110
-99
-93
-84
-79
-77
-73
-73
-72
-73
-74
-75
-78
-79
-80
-83
-83
-84
-84
-85
-87
-87
-88
-88
-88
-90
-90
-91
-91
-87
-89
-89
-89
-88
-85
-89
-91
-92
-91
-90
-90
-90
-90
-89
-89
-87
-85
-82
-80
-80
-80
-78
-78
-80
-85
-85
-87
-87
-89
-91
-92
-96
-99
-101
-104
-103
-105
-107
-108
-111
-112
-117
-114
-114
-115
-115
-120
-118
-116
-102
-76
-38
15
76
130
156
131
50
-61
-168
-230
-249
-243
-232
-221
-214
-206
-204
-203
-204
-204
-206
-209
-212
-216
-218
-221
-224
-225
-231
-233
-237
-240
-242
-246
-250
-253
-258
-262
-263
-267
-270
-271
-271
-271
-270
-268
-264
-259
-252
-247
-239
-232
-220
-211
-198
-189
-178
-169
-158
-149
-138
-129
-119
-111
-103
-99
-96
-96
-95
-95
-92
-92
-93
-95
-98
-99
-99
-100
-100
-99
-103
-105
-105
-104
-103
-105
-105
-107
-107
-107
-107
-107
-107
-105
-105
-105
-106
-106
-107
-105
-104
-102
-103
-104
-103
-102
-99
-96
-96
-97
-93
-92
-91
-95
-98
-98
-99
-102
-104
-107
-110
-118
-116
-118
-118
-118
-122
-120
-122
-121
-121
-123
-122
-123
-123
-125
-127
-123
-110
-81
-34
26
87
142
163
132
52
-59
-166
-235
-258
-258
-247
-238
-228
-221
-218
-215
-214
-216
-218
-218
-221
-222
-225
-228
-232
-236
-240
-240
-244
-249
-252
-257
-259
-264
-265
-268
-270
-273
-274
-275
-276
-276
-275
-271
-266
-262
-256
-248
-240
-230
-220
-209
-198
-188
-176
-165
-152
-143
-133
-122
-114
-105
-99
-95
-91
-88
-88
-87
-85
-88
-88
-88
-89
-88
-94
-95
-96
-96
-96
-98
-98
-99
-98
-97
-98
-98
-98
-98
-98
-98
-98
-97
-96
-96
-96
-96
-96
-96
-96
-95
-94
-92
-92
-91
-88
-87
-84
-83
-81
-78
-73
-78
-81
-84
-87
-84
-88
-88
-91
-95
-98
-100
-102
-103
-103
-102
-103
-105
-105
-106
-107
-105
-105
-107
-107
-111
-107
-93
-64
-18
42
107
164
187
149
63
-46
-148
-204
-225
-226
-220
-213
-209
-205
-201
-198
-202
-201
-202
-204
-208
-211
-213
-215
-218
-221
-222
-226
-230
-232
-235
-239
-243
-247
-249
-253
-256
-258
-259
-262
-259
-259
-258
-255
-252
-245
-239
-233
-222
-217
-205
-194
-183
-174
-163
-150
-138
-125
-118
-102
-92
-84
-77
-69
-69
-66
-65
-64
-65
-65
-66
-67
-69
-71
-72
-72
-76
-76
-78
-78
-79
-80
-79
-80
-80
-80
-79
-78
-80
-80
-80
-79
-79
-79
-79
-78
-79
-78
-79
-78
-77
-78
-78
-78
-76
-71
-71
-69
-69
-68
-65
-64
-64
-65
-69
-70
-73
-73
-74
-76
-78
-80
-84
-87
-87
-87
-89
-91
-90
-92
-93
-92
-93
-92
-92
-95
-96
-98
-90
-69
-27
30
99
163
200
187
118
11
-98
-175
-205
-209
-204
-198
-192
-187
-187
-186
-186
-187
-187
-191
-194
-198
-199
-201
-204
-206
-211
-217
-218
-220
-224
-228
-234
-236
-240
-240
-244
-244
-247
-248
-248
-248
-244
-245
-240
-233
-228
-221
-210
-201
-190
-179
-172
-159
-149
-138
-127
-115
-102
-93
-85
-78
-72
-67
-64
-61
-61
-61
-62
-62
-63
-66
-68
-67
-69
-72
-72
-74
-76
-77
-75
-76
-78
-77
-78
-78
-78
-77
-78
-76
-78
-77
-78
-77
-75
-77
-78
-78
-77
-76
-77
-75
-73
-73
-71
-71
-69
-69
-67
-65
-65
-65
-69
-71
-74
-76
-75
-77
-78
-83
-85
-88
-90
-91
-91
-93
-95
-95
-96
-98
-98
-98
-98
-98
-99
-103
-98
-95
-72
-34
20
82
137
168
145
69
-43
-143
-205
-221
-218
-209
-201
-198
-191
-187
-187
-187
-187
-189
-191
-192
-195
-198
-199
-202
-207
-210
-211
-214
-218
-220
-225
-225
-233
-236
-239
-241
-247
-247
-250
-252
-251
-252
-248
-245
-242
-237
-231
-224
-214
-206
-198
-188
-178
-168
-156
-141
-131
-118
-110
-100
-92
-84
-80
-78
-73
-73
-74
-74
-74
-75
-77
-79
-80
-80
-81
-81
-83
-83
-85
-85
-85
-88
-88
-85
-88
-88
-90
-89
-87
-88
-88
-87
-87
-88
-88
-86
-85
-84
-85
-85
-85
-84
-82
-81
-78
-77
-77
-74
-74
-76
-78
-81
-83
-85
-85
-86
-88
-91
-95
-98
-100
-101
-100
-104
-103
-102
-106
-107
-108
-107
-103
-107
-107
-112
-115
-112
-95
-64
-19
39
97
145
157
111
18
-99
-194
-238
-243
-233
-220
-214
-206
-205
-201
-201
-202
-202
-206
-207
-210
-214
-215
-218
-221
-225
-227
-232
-236
-239
-242
-247
-252
-252
-256
-258
-259
-262
-264
-263
-262
-262
-260
-258
-252
-246
-239
-230
-221
-210
-202
-191
-179
-171
-158
-146
-134
-122
-113
-104
-96
-88
-84
-80
-79
-77
-75
-76
-77
-78
-79
-80
-81
-83
-79
-84
-84
-86
-84
-83
-87
-88
-87
-88
-87
-87
-87
-85
-86
-87
-86
-85
-86
-84
-86
-85
-85
-85
-83
-86
-84
-84
-84
-81
-80
-79
-77
-76
-73
-73
-72
-75
-78
-80
-80
-81
-80
-85
-89
-94
-96
-95
-98
-98
-99
-101
-102
-101
-102
-102
-100
-101
-103
-107
-110
-104
-89
-57
-5
58
124
177
186
142
50
-61
-157
-208
-225
-218
-212
-206
-202
-198
-198
-198
-198
-201
-202
-206
-207
-209
-213
-218
-218
-221
-226
-227
-232
-235
-239
-242
-244
-247
-250
-253
-255
-255
-258
-259
-259
-257
-256
-253
-248
-240
-237
-228
-219
-210
-200
-189
-178
-164
-154
-141
-132
-121
-110
-98
-88
-80
-76
-71
-69
-65
-67
-66
-69
-69
-69
-71
-75
-77
-78
-78
-78
-80
-81
-79
-80
-83
-83
-82
-82
-84
-83
-82
-81
-82
-81
-80
-81
-80
-78
-80
-80
-81
-81
-82
-81
-79
-78
-76
-76
-76
-75
-69
-72
-69
-69
-70
-69
-75
-76
-78
-79
-80
-83
-87
-91
-92
-94
-93
-95
-96
-97
-98
-98
-98
-99
-99
-101
-100
-104
-104
-94
-69
-26
31
94
156
192
186
126
42
-54
-141
-191
-209
-212
-209
-205
-200
-198
-195
-196
-197
-197
-199
-201
-202
-205
-207
-211
-214
-217
-218
-221
-224
-227
-233
-236
-240
-244
-245
-248
-251
-253
-256
-256
-258
-258
-255
-253
-247
-241
-235
-229
-221
-213
-202
-195
-183
-175
-163
-156
-141
-130
-118
-110
-98
-93
-85
-80
-77
-74
-73
-74
-76
-75
-77
-78
-79
-80
-83
-85
-87
-86
-87
-87
-90
-88
-91
-91
-91
-92
-91
-90
-91
-89
-91
-91
-90
-90
-89
-91
-90
-88
-93
-92
-91
-89
-84
-85
-84
-85
-83
-82
-84
-81
-79
-78
-79
-83
-85
-88
-88
-88
-91
-95
-97
-102
-105
-107
-107
-107
-106
-109
-110
-110
-111
-111
-112
-111
-114
-116
-118
-115
-100
-78
-38
12
69
119
156
144
84
-13
-120
-204
-238
-244
-233
-224
-217
-211
-205
-204
-201
-202
-205
-208
-210
-213
-215
-218
-222
-225
-229
-232
-233
-238
-240
-245
-249
-254
-256
-259
-263
-264
-266
-268
-271
-271
-271
-268
-266
-261
-255
-252
-245
-238
-225
-215
-205
-192
-182
-172
-162
-152
-140
-130
-120
-111
-102
-97
-94
-93
-92
-90
-91
-92
-93
-95
-97
-97
-99
-100
-101
-102
-103
-104
-104
-105
-105
-104
-105
-105
-103
-106
-107
-109
-107
-103
-107
-104
-107
-105
-105
-107
-105
-104
-104
-102
-104
-102
-101
-98
-96
-94
-93
-92
-92
-97
-98
-103
-103
-103
-105
-105
-109
-113
-116
-118
-118
-119
-120
-120
-122
-123
-122
-120
-121
-122
-123
-128
-126
-122
-107
-76
-23
32
92
140
148
95
-1
-118
-209
-249
-255
-246
-237
-229
-224
-217
-218
-217
-217
-219
-221
-225
-227
-229
-232
-235
-238
-239
-243
-248
-252
-256
-256
-263
-268
-272
-274
-278
-278
-278
-280
-280
-280
-278
-277
-272
-265
-260
-252
-242
-232
-222
-210
-198
-189
-177
-164
-153
-143
-130
-120
-111
-104
-98
-94
-90
-88
-87
-87
-86
-87
-87
-88
-89
-93
-93
-96
-97
-97
-98
-96
-97
-98
-98
-96
-98
-98
-99
-99
-97
-100
-99
-99
-98
-98
-98
-98
-98
-98
-96
-98
-97
-94
-95
-93
-90
-89
-88
-88
-87
-85
-84
-85
-87
-91
-91
-92
-94
-96
-99
-103
-107
-108
-110
-110
-110
-106
-111
-111
-111
-111
-115
-111
-112
-113
-115
-115
-105
-83
-45
8
73
136
180
183
132
42
-64
-151
-205
-222
-224
-219
-214
-210
-206
-206
-204
-205
-207
-209
-212
-214
-215
-220
-224
-225
-229
-233
-236
-238
-240
-243
-248
-250
-253
-256
-259
-260
-262
-263
-263
-263
-262
-259
-257
-252
-248
-240
-233
-225
-218
-207
-198
-187
-177
-166
-156
-141
-130
-118
-106
-96
-91
-83
-78
-76
-74
-73
-73
-73
-74
-76
-77
-78
-77
-80
-81
-83
-83
-80
-84
-84
-86
-87
-86
-86
-86
-86
-85
-84
-86
-86
-86
-85
-87
-84
-85
-83
-83
-84
-83
-83
-82
-80
-80
-78
-77
-76
-72
-72
-69
-69
-70
-71
-76
-77
-75
-79
-79
-81
-85
-85
-92
-95
-96
-95
-96
-96
-97
-97
-98
-98
-100
-100
-99
-101
-106
-105
-98
-77
-38
16
82
144
182
167
96
-7
-115
-178
-209
-215
-210
-204
-202
-198
-195
-193
-192
-194
-194
-195
-198
-201
-202
-204
-208
-210
-214
-215
-218
-220
-224
-227
-230
-233
-238
-240
-243
-243
-247
-248
-248
-249
-249
-248
-247
-242
-237
-229
-222
-214
-204
-194
-183
-170
-158
-148
-138
-125
-115
-104
-96
-88
-81
-73
-74
-72
-72
-69
-65
-69
-69
-71
-74
-76
-77
-78
-80
-79
-80
-81
-82
-84
-83
-85
-85
-84
-84
-84
-84
-83
-83
-83
-84
-84
-83
-85
-85
-86
-85
-85
-83
-82
-78
-80
-77
-73
-75
-73
-72
-70
-68
-73
-76
-79
-79
-81
-82
-84
-87
-90
-93
-95
-97
-98
-99
-99
-98
-100
-102
-103
-103
-104
-103
-103
-106
-110
-108
-96
-70
-29
24
83
132
160
131
50
-61
-165
-221
-237
-232
-221
-214
-205
-198
-195
-195
-195
-197
-198
-201
-201
-204
-206
-210
-212
-216
-218
-221
-225
-228
-232
-238
-240
-245
-248
-251
-255
-259
-260
-262
-262
-262
-260
-256
-256
-251
-244
-240
-232
-224
-213
-202
-194
-186
-172
-163
-152
-140
-131
-117
-104
-97
-91
-85
-83
-81
-80
-81
-80
-83
-85
-87
-88
-89
-91
-91
-93
-93
-93
-95
-96
-98
-97
-98
-96
-96
-98
-98
-98
-96
-96
-98
-98
-97
-97
-93
-98
-97
-98
-96
-91
-94
-91
-92
-88
-87
-85
-83
-82
-79
-81
-85
-88
-89
-90
-95
-96
-98
-102
-103
-106
-108
-108
-109
-111
-111
-113
-116
-113
-113
-112
-113
-115
-117
-118
-113
-96
-62
-12
51
115
159
169
126
43
-68
-167
-229
-243
-240
-229
-221
-217
-210
-206
-206
-205
-207
-209
-210
-215
-217
-218
-222
-224
-227
-229
-235
-237
-240
-244
-249
-251
-256
-256
-262
-264
-266
-268
-268
-270
-270
-269
-266
-263
-257
-249
-243
-236
-228
-218
-209
-198
-184
-174
-161
-151
-138
-128
-118
-107
-99
-93
-88
-83
-80
-78
-79
-79
-79
-79
-81
-83
-83
-85
-87
-88
-89
-88
-91
-92
-93
-92
-93
-92
-91
-87
-91
-91
-91
-92
-88
-92
-90
-91
-90
-88
-90
-91
-91
-90
-88
-86
-87
-84
-82
-81
-78
-79
-77
-76
-77
-78
-80
-83
-84
-85
-87
-88
-92
-96
-99
-101
-100
-103
-102
-104
-104
-103
-105
-104
-106
-105
-102
-108
-108
-107
-90
-57
-12
49
113
167
197
176
104
1
-104
-181
-217
-222
-218
-212
-208
-204
-202
-201
-202
-201
-204
-206
-210
-213
-217
-218
-220
-224
-228
-230
-233
-237
-240
-244
-249
-252
-256
-256
-258
-262
-264
-267
-265
-263
-263
-259
-256
-250
-245
-237
-227
-219
-210
-198
-187
-177
-164
-153
-141
-130
-118
-108
-99
-91
-85
-79
-78
-75
-74
-73
-73
-74
-76
-77
-78
-78
-80
-80
-80
-83
-84
-84
-85
-83
-87
-88
-89
-86
-86
-88
-87
-87
-87
-87
-87
-85
-85
-87
-87
-87
-87
-87
-87
-86
-87
-87
-85
-84
-81
-79
-78
-77
-76
-76
-74
-76
-78
-79
-81
-82
-85
-87
-90
-96
-98
-96
-98
-100
-100
-100
-99
-103
-103
-107
-106
-104
-107
-110
-111
-107
-93
-64
-18
41
105
163
184
153
76
-26
-126
-187
-216
-220
-217
-213
-209
-202
-201
-199
-200
-199
-199
-202
-205
-209
-211
-214
-214
-217
-218
-221
-229
-229
-233
-237
-239
-242
-247
-250
-252
-255
-256
-257
-258
-258
-257
-255
-251
-248
-244
-237
-232
-223
-214
-205
-196
-186
-176
-165
-151
-138
-127
-117
-105
-98
-89
-85
-82
-80
-80
-78
-79
-80
-78
-80
-82
-84
-84
-84
-90
-91
-92
-92
-92
-93
-92
-93
-95
-96
-98
-98
-97
-98
-97
-94
-95
-94
-95
-96
-96
-96
-96
-95
-96
-94
-93
-93
-92
-92
-88
-87
-87
-84
-83
-82
-80
-86
-90
-94
-95
-92
-97
-98
-102
-107
-107
-110
-111
-111
-111
-113
-111
-111
-113
-115
-115
-115
-118
-117
-118
-120
-118
-103
-70
-19
44
105
142
133
61
-47
-156
-224
-249
-245
-235
-225
-217
-211
-207
-205
-205
-209
-210
-210
-213
-214
-215
-218
-219
-225
-228
-232
-234
-236
-240
-247
-250
-250
-255
-258
-261
-263
-265
-267
-271
-271
-272
-269
-268
-263
-259
-255
-247
-235
-225
-217
-206
-192
-179
-168
-157
-146
-138
-133
-119
-112
-103
-98
-89
-90
-88
-88
-89
-88
-89
-90
-90
-93
-95
-98
-98
-100
-99
-99
-100
-100
-102
-102
-104
-103
-103
-103
-102
-103
-100
-101
-102
-100
-100
-99
-100
-102
-102
-103
-101
-97
-96
-96
-95
-92
-87
-88
-87
-85
-86
-87
-90
-92
-95
-95
-95
-95
-98
-100
-106
-108
-111
-111
-112
-113
-111
-113
-114
-116
-116
-115
-115
-118
-118
-120
-120
-118
-104
-76
-30
31
91
143
159
114
12
-110
-204
-238
-242
-232
-224
-217
-212
-208
-205
-205
-206
-206
-209
-210
-214
-214
-218
-218
-224
-225
-227
-232
-237
-239
-242
-245
-248
-252
-256
-258
-260
-263
-262
-265
-265
-262
-262
-257
-252
-248
-242
-235
-229
-217
-207
-198
-186
-177
-163
-151
-138
-126
-116
-102
-95
-85
-79
-76
-74
-72
-72
-72
-72
-73
-74
-73
-74
-77
-77
-78
-79
-79
-81
-80
-81
-83
-82
-83
-82
-83
-83
-81
-83
-83
-78
-80
-80
-80
-80
-78
-79
-79
-78
-78
-77
-76
-73
-71
-70
-67
-66
-65
-64
-61
-61
-62
-66
-69
-69
-72
-72
-73
-77
-79
-84
-86
-85
-85
-85
-87
-88
-89
-88
-90
-89
-88
-88
-92
-93
-88
-68
-31
19
82
147
194
201
146
57
-47
-136
-187
-204
-202
-198
-194
-187
-184
-183
-183
-183
-184
-187
-187
-191
-195
-196
-199
-202
-205
-208
-210
-214
-215
-220
-222
-226
-228
-229
-234
-237
-239
-240
-244
-240
-239
-239
-237
-235
-227
-221
-214
-206
-195
-186
-174
-161
-149
-138
-126
-115
-103
-91
-82
-71
-62
-57
-53
-51
-48
-47
-49
-49
-50
-49
-53
-52
-54
-57
-56
-58
-58
-58
-60
-60
-58
-62
-62
-61
-61
-60
-62
-61
-61
-62
-60
-60
-60
-59
-60
-59
-58
-59
-60
-59
-60
-58
-56
-55
-54
-54
-51
-49
-49
-47
-47
-47
-50
-53
-53
-57
-57
-59
-62
-65
-67
-69
-70
-71
-73
-75
-73
-71
-77
-78
-78
-77
-76
-78
-78
-81
-79
-69
-40
2
61
125
182
205
183
113
19
-79
-145
-178
-185
-183
-179
-178
-177
-174
-175
-173
-176
-178
-179
-181
-186
-187
-189
-194
-197
-198
-202
-207
-209
-213
-215
-218
-222
-224
-226
-231
-232
-233
-236
-238
-235
-235
-233
-231
-225
-221
-214
-205
-197
-187
-176
-167
-157
-145
-133
-120
-108
-98
-87
-78
-67
-62
-58
-54
-53
-53
-53
-54
-55
-53
-58
-58
-60
-61
-58
-62
-64
-66
-67
-66
-67
-69
-69
-70
-71
-72
-72
-72
-71
-70
-70
-72
-71
-72
-72
-71
-70
-70
-70
-71
-70
-71
-70
-69
-67
-65
-65
-64
-62
-61
-61
-63
-65
-68
-71
-71
-70
-77
-79
-84
-85
-84
-88
-89
-91
-91
-91
-93
-95
-94
-94
-96
-97
-98
-99
-100
-97
-77
-48
-6
49
107
156
172
137
55
-57
-153
-213
-225
-221
-209
-201
-194
-189
-187
-187
-187
-193
-191
-194
-195
-198
-205
-205
-207
-210
-214
-218
-220
-225
-229
-231
-237
-239
-240
-244
-248
-252
-252
-253
-255
-255
-256
-255
-252
-247
-240
-235
-226
-220
-209
-198
-189
-179
-167
-158
-148
-136
-126
-115
-103
-95
-88
-81
-76
-77
-77
-78
-77
-76
-79
-80
-83
-83
-84
-85
-87
-88
-90
-88
-91
-92
-95
-95
-96
-95
-95
-94
-94
-96
-95
-95
-94
-94
-92
-92
-93
-96
-95
-96
-95
-92
-90
-88
-87
-85
-81
-85
-83
-82
-79
-78
-85
-90
-92
-91
-93
-96
-97
-102
-106
-107
-108
-111
-111
-113
-113
-113
-115
-115
-115
-116
-115
-118
-119
-118
-107
-84
-45
10
70
127
161
144
79
-26
-141
-218
-251
-248
-239
-230
-224
-219
-214
-210
-210
-210
-210
-213
-215
-218
-219
-222
-225
-229
-234
-237
-240
-243
-248
-251
-255
-258
-259
-262
-265
-267
-270
-268
-271
-268
-267
-267
-265
-256
-252
-247
-239
-229
-218
-210
-201
-190
-179
-168
-154
-141
-129
-120
-107
-103
-97
-94
-91
-88
-87
-86
-87
-87
-87
-89
-88
-92
-93
-94
-96
-95
-96
-97
-98
-98
-99
-100
-99
-99
-98
-98
-99
-99
-98
-99
-99
-98
-98
-99
-99
-96
-98
-98
-98
-98
-94
-96
-93
-92
-89
-87
-87
-87
-83
-82
-82
-85
-88
-92
-93
-95
-96
-99
-102
-107
-108
-109
-108
-110
-110
-112
-112
-111
-113
-113
-115
-113
-114
-116
-118
-111
-95
-58
-13
46
110
161
178
136
50
-60
-155
-210
-229
-229
-224
-220
-214
-209
-207
-207
-208
-209
-211
-214
-216
-218
-220
-225
-228
-232
-236
-239
-241
-246
-247
-252
-257
-260
-262
-266
-267
-268
-268
-266
-270
-268
-265
-262
-259
-253
-244
-237
-226
-220
-209
-198
-187
-177
-166
-156
-145
-134
-122
-111
-101
-93
-87
-83
-79
-78
-77
-77
-77
-78
-78
-80
-81
-82
-84
-86
-87
-86
-88
-90
-89
-91
-91
-92
-92
-93
-89
-91
-89
-91
-89
-84
-88
-88
-89
-88
-88
-90
-89
-90
-89
-88
-88
-87
-85
-84
-83
-80
-80
-78
-77
-77
-74
-76
-78
-80
-84
-84
-85
-88
-90
-95
-98
-98
-99
-99
-100
-100
-102
-103
-105
-106
-104
-100
-105
-106
-109
-108
-97
-73
-27
34
100
161
187
164
88
-16
-118
-184
-212
-218
-214
-210
-209
-205
-201
-198
-198
-201
-201
-202
-206
-209
-212
-214
-218
-220
-224
-225
-228
-232
-235
-238
-240
-244
-247
-249
-252
-255
-257
-259
-259
-261
-261
-259
-258
-254
-248
-242
-236
-225
-217
-208
-199
-189
-179
-169
-158
-145
-134
-123
-111
-102
-95
-88
-81
-77
-74
-73
-73
-75
-76
-78
-78
-80
-80
-78
-85
-86
-86
-86
-84
-88
-88
-91
-88
-87
-88
-91
-91
-91
-89
-90
-88
-88
-89
-91
-90
-88
-87
-86
-87
-88
-87
-86
-87
-87
-83
-81
-80
-78
-78
-76
-77
-77
-80
-83
-83
-84
-86
-88
-92
-96
-96
-101
-102
-103
-103
-99
-103
-105
-107
-107
-107
-108
-108
-107
-110
-111
-109
-98
-74
-33
24
84
136
161
126
42
-70
-168
-222
-237
-232
-221
-214
-209
-202
-198
-197
-196
-198
-198
-201
-202
-207
-206
-209
-213
-216
-220
-224
-226
-229
-232
-236
-240
-242
-245
-248
-252
-256
-259
-262
-262
-264
-263
-262
-260
-256
-253
-247
-240
-230
-221
-213
-203
-192
-183
-171
-158
-148
-135
-121
-111
-103
-96
-87
-84
-82
-83
-80
-77
-78
-80
-82
-83
-85
-88
-88
-88
-89
-91
-90
-92
-93
-95
-95
-97
-96
-96
-97
-95
-96
-96
-96
-95
-95
-96
-95
-94
-96
-96
-95
-95
-93
-94
-92
-89
-87
-87
-85
-84
-83
-79
-81
-83
-87
-88
-87
-88
-90
-91
-95
-97
-102
-106
-108
-109
-108
-109
-110
-112
-111
-113
-113
-111
-111
-113
-116
-120
-116
-99
-70
-23
33
91
145
165
128
36
-88
-188
-244
-256
-245
-233
-221
-214
-209
-205
-206
-205
-206
-206
-210
-211
-214
-216
-218
-221
-224
-227
-230
-233
-238
-242
-245
-248
-253
-256
-259
-262
-265
-266
-268
-270
-272
-270
-268
-266
-260
-256
-248
-240
-232
-224
-213
-201
-191
-179
-169
-157
-149
-138
-126
-116
-108
-98
-92
-88
-85
-81
-80
-80
-79
-80
-80
-82
-84
-85
-87
-88
-88
-88
-89
-91
-90
-92
-91
-91
-91
-91
-93
-92
-91
-92
-91
-91
-89
-91
-91
-91
-91
-91
-87
-90
-89
-89
-88
-84
-85
-83
-80
-80
-77
-76
-73
-76
-75
-78
-80
-83
-84
-85
-86
-88
-93
-96
-99
-99
-99
-98
-99
-102
-104
-103
-103
-103
-103
-105
-103
-105
-107
-107
-98
-68
-18
42
107
167
192
161
75
-35
-139
-201
-224
-224
-218
-210
-204
-198
-198
-197
-198
-198
-201
-202
-206
-209
-212
-214
-218
-220
-226
-230
-232
-234
-239
-239
-242
-247
-250
-250
-255
-256
-257
-258
-258
-258
-258
-255
-252
-248
-240
-233
-224
-214
-204
-194
-182
-171
-159
-149
-138
-125
-114
-103
-92
-84
-77
-73
-68
-65
-66
-63
-65
-65
-66
-67
-69
-69
-71
-73
-74
-77
-76
-78
-77
-78
-79
-79
-78
-79
-78
-76
-78
-79
-78
-78
-76
-77
-76
-77
-77
-77
-78
-76
-77
-76
-74
-72
-72
-70
-68
-67
-65
-64
-62
-62
-64
-67
-70
-70
-73
-75
-75
-79
-83
-84
-87
-87
-88
-89
-90
-91
-91
-88
-93
-92
-93
-93
-90
-96
-98
-95
-76
-41
11
80
150
197
194
125
22
-85
-161
-198
-205
-202
-199
-195
-192
-187
-187
-186
-188
-187
-191
-194
-196
-198
-201
-203
-206
-210
-214
-218
-220
-221
-226
-230
-233
-237
-242
-243
-247
-247
-249
-252
-252
-250
-248
-246
-242
-237
-232
-225
-218
-207
-198
-186
-176
-166
-154
-141
-130
-118
-107
-96
-87
-78
-69
-64
-61
-60
-61
-60
-59
-60
-61
-64
-65
-66
-67
-67
-66
-70
-71
-73
-72
-70
-74
-73
-74
-75
-75
-75
-74
-75
-75
-74
-74
-73
-73
-73
-75
-73
-73
-73
-73
-74
-71
-72
-70
-68
-70
-65
-64
-61
-60
-61
-64
-67
-72
-73
-73
-74
-73
-78
-82
-86
-88
-88
-90
-90
-92
-93
-91
-95
-94
-94
-94
-95
-98
-99
-102
-102
-95
-73
-42
1
55
110
154
174
141
56
-58
-153
-208
-220
-213
-202
-197
-189
-187
-187
-187
-188
-188
-191
-194
-195
-198
-202
-202
-205
-206
-210
-217
-218
-221
-226
-231
-235
-238
-241
-245
-245
-247
-248
-250
-251
-250
-248
-245
-244
-240
-237
-231
-220
-212
-202
-194
-183
-171
-159
-149
-137
-125
-116
-105
-96
-88
-83
-78
-71
-71
-70
-72
-72
-69
-76
-77
-78
-79
-79
-80
-83
-84
-84
-84
-84
-85
-85
-86
-88
-88
-91
-90
-88
-89
-88
-87
-87
-87
-88
-89
-88
-87
-85
-87
-84
-84
-84
-82
-80
-79
-78
-77
-76
-73
-74
-73
-79
-80
-80
-81
-83
-88
-90
-95
-98
-99
-102
-102
-103
-102
-103
-105
-103
-105
-105
-106
-106
-107
-111
-111
-106
-88
-55
-4
57
