1341
1334
1327
1319
1318
1314
1326
1332
1344
1341
1334
1326
1318
1314
1311
1313
1318
1324
1331
1331
1327
1321
1314
1309
1314
1321
1324
1326
1324
1324
1322
1318
1311
1311
1311
1318
1321
1331
1331
1326
1321
1321
1311
1314
1311
1314
1321
1321
1324
1324
1321
1319
1311
1311
1311
1314
1318
1324
1331
1327
1324
1316
1319
1327
1337
1355
1386
1419
1449
1472
1486
1501
1516
1531
1547
1545
1537
1519
1498
1460
1426
1377
1332
1303
1285
1285
1298
1314
1318
1311
1318
1318
1311
1309
1306
1313
1318
1322
1322
1321
1318
1311
1309
1308
1308
1309
1318
1331
1331
1321
1308
1301
1298
1301
1308
1318
1326
1327
1324
1319
1309
1311
1322
1332
1332
1329
1332
1331
1321
1316
1313
1308
1318
1319
1324
1331
1337
1336
1332
1331
1321
1313
1318
1319
1324
1326
1327
1331
1324
1324
1324
1322
1324
1327
1332
1339
1347
1345
1342
1336
1331
1326
1324
1331
1337
1341
1344
1347
1344
1337
1334
1341
1347
1354
1354
1360
1362
1360
1363
1360
1355
1354
1355
1368
1377
1380
1380
1383
1385
1382
1377
1372
1370
1373
1380
1391
1393
1393
1393
1391
1390
1386
1386
1386
1396
1408
1409
1403
1393
1386
1377
1375
1377
1382
1382
1385
1385
1380
1368
1360
1362
1355
1357
1354
1355
1362
1354
1347
1341
1334
1326
1327
1331
1341
1341
1342
1337
1336
1334
1331
1324
1322
1321
1326
1331
1334
1334
1329
1324
1321
1318
1314
1314
1326
1334
1339
1337
1336
1327
1321
1318
1314
1313
1326
1334
1341
1339
1322
1318
1314
1318
1321
1321
1329
1337
1337
1331
1327
1324
1318
1313
1316
1324
1331
1334
1337
1337
1337
1331
1324
1321
1319
1318
1321
1327
1334
1336
1334
1327
1321
1318
1316
1321
1331
1341
1342
1339
1332
1318
1303
1311
1318
1321
1324
1326
1334
1331
1326
1318
1313
1318
1322
1327
1334
1337
1329
1327
1324
1318
1309
1308
1318
1326
1332
1334
1336
1336
1327
1319
1318
1318
1316
1322
1327
1337
1336
1331
1331
1324
1322
1316
1313
1329
1334
1341
1339
1344
1329
1321
1319
1318
1322
1329
1334
1341
1341
1332
1327
1321
1321
1319
1326
1331
1334
1331
1327
1327
1324
1318
1318
1318
1326
1327
1332
1334
1337
1337
1332
1324
1318
1314
1321
1324
1327
1332
1326
1327
1327
1321
1324
1324
1329
1336
1344
1344
1341
1331
1321
1313
1316
1318
1322
1327
1334
1334
1327
1324
1321
1319
1321
1324
1326
1329
1334
1331
1327
1319
1313
1311
1316
1324
1324
1327
1334
1336
1334
1327
1324
1321
1319
1314
1327
1332
1334
1331
1324
1331
1324
1321
1321
1327
1334
1337
1341
1344
1339
1331
1322
1321
1321
1318
1324
1332
1341
1341
1342
1350
1360
1378
1406
1434
1465
1491
1518
1539
1555
1560
1557
1563
1557
1541
1519
1491
1449
1403
1360
1321
1288
1285
1298
1314
1331
1337
1334
1334
1332
1327
1321
1324
1327
1331
1337
1347
1347
1337
1329
1319
1321
1324
1324
1331
1339
1344
1341
1342
1332
1324
1327
1329
1341
1341
1342
1344
1349
1350
1347
1341
1332
1321
1314
1326
1334
1341
1347
1350
1344
1344
1337
1334
1326
1324
1327
1331
1337
1337
1337
1336
1334
1326
1327
1326
1327
1334
1344
1350
1349
1337
1332
1331
1332
1326
1334
1344
1347
1347
1347
1344
1339
1334
1341
1344
1355
1350
1354
1352
1352
1350
1341
1341
1342
1344
1350
1354
1360
1362
1362
1365
1360
1355
1350
1352
1357
1363
1368
1370
1372
1370
1362
1363
1363
1370
1368
1383
1393
1393
1382
1377
1372
1370
1368
1377
1385
1393
1401
1393
1386
1380
1368
1373
1372
1375
1372
1373
1378
1370
1362
1350
1344
1341
1339
1344
1345
1347
1347
1344
1341
1334
1327
1322
1321
1321
1326
1331
1334
1329
1326
1321
1318
1318
1314
1314
1318
1327
1336
1332
1326
1318
1311
1309
1313
1311
1324
1327
1331
1331
1321
1318
1311
1314
1322
1322
1326
1327
1329
1327
1327
1321
1316
1318
1319
1327
1329
1334
1334
1334
1341
1341
1327
1314
1314
1321
1326
1331
1334
1334
1334
1326
1321
1319
1318
1324
1329
1344
1341
1331
1331
1326
1313
1311
1311
1314
1321
1327
1334
1332
1327
1318
1314
1318
1321
1327
1331
1334
1332
1327
1326
1321
1318
1311
1316
1324
1331
1334
1334
1331
1331
1324
1316
1313
1316
1318
1321
1331
1332
1322
1324
1318
1318
1311
1304
1314
1322
1334
1334
1329
1326
1318
1309
1308
1313
1321
1327
1334
1334
1329
1324
1318
1318
1318
1321
1321
1327
1331
1329
1324
1319
1314
1314
1313
1319
1324
1329
1331
1331
1334
1334
1324
1318
1313
1316
1313
1313
1326
1327
1327
1321
1314
1314
1313
1319
1324
1329
1337
1337
1334
1327
1318
1314
1318
1322
1321
1331
1337
1341
1334
1327
1324
1321
1324
1327
1331
1337
1336
1334
1331
1326
1318
1308
1309
1321
1324
1326
1327
1322
1329
1324
1318
1311
1308
1314
1318
1327
1331
1331
1331
1329
1324
1314
1309
1314
1321
1332
1334
1329
1321
1313
1308
1308
1309
1314
1321
1327
1327
1326
1318
1314
1313
1318
1324
1322
1321
1321
1318
1314
1313
1309
1309
1318
1337
1357
1383
1401
1429
1457
1475
1495
1511
1527
1539
1547
1554
1544
1519
1488
1455
1414
1360
1316
1290
1286
1295
1308
1318
1321
1314
1308
1301
1303
1308
1309
1321
1327
1326
1316
1313
1313
1309
1308
1311
1319
1326
1324
1314
1319
1313
1308
1304
1306
1316
1316
1321
1327
1324
1326
1321
1319
1314
1311
1311
1318
1324
1329
1327
1327
1321
1316
1311
1313
1318
1324
1334
1341
1334
1327
1314
1311
1311
1314
1318
1327
1337
1341
1336
1332
1319
1322
1327
1339
1339
1347
1341
1344
1344
1345
1339
1327
1324
1329
1334
1341
1344
1352
1354
1354
1354
1345
1337
1339
1344
1350
1357
1354
1354
1355
1354
1345
1344
1347
1350
1355
1363
1367
1367
1360
1350
1354
1354
1357
1363
1373
1383
1391
1382
1382
1382
1378
1383
1386
1390
1396
1393
1395
1396
1386
1377
1372
1375
1378
1383
1382
1386
1383
1377
1373
1367
1357
1347
1344
1347
1350
1350
1347
1345
1339
1329
1321
1322
1326
1327
1337
1341
1339
1331
1314
1313
1308
1308
1308
1311
1327
1327
1324
1318
1313
1311
1314
1319
1326
1324
1329
1327
1327
1319
1311
1306
1306
1309
1311
1318
1326
1324
1316
1313
1311
1309
1303
1308
1311
1318
1321
1321
1321
1318
1313
1308
1303
1308
1308
1319
1326
1321
1321
1311
1306
1303
1301
1308
1314
1324
1326
1324
1322
1314
1308
1303
1309
1314
1314
1319
1322
1324
1321
1313
1308
1304
1308
1309
1313
1319
1324
1326
1321
1322
1314
1308
1309
1308
1311
1318
1322
1326
1321
1309
1309
1309
1311
1313
1316
1331
1334
1331
1319
1311
1308
1303
1308
1309
1316
1324
1327
1324
1319
1311
1308
1311
1322
1324
1326
1324
1327
1324
1318
1311
1309
1308
1309
1314
1321
1321
1321
1321
1321
1318
1308
1300
1308
1311
1316
1318
1311
1313
1313
1308
1303
1301
1303
1308
1314
1322
1321
1318
1316
1309
1301
1301
1303
1309
1318
1318
1321
1318
1311
1308
1308
1314
1318
1321
1326
1327
1326
1321
1316
1318
1313
1309
1311
1314
1321
1321
1324
1324
1314
1311
1303
1303
1303
1304
1314
1321
1321
1313
1308
1303
1301
1300
1301
1309
1324
1326
1321
1313
1308
1303
1300
1304
1304
1311
1314
1324
1324
1318
1309
1304
1308
1308
1309
1314
1318
1318
1316
1314
1311
1303
1298
1308
1313
1318
1321
1316
1322
1321
1314
1308
1308
1313
1324
1344
1365
1386
1406
1424
1445
1467
1485
1511
1537
1554
1563
1557
1537
1508
1468
1426
1383
1345
1314
1296
1295
1303
1303
1301
1301
1301
1313
1318
1318
1327
1327
1327
1321
1311
1311
1301
1303
1308
1309
1314
1318
1321
1324
1324
1318
1309
1309
1308
1314
1321
1327
1327
1327
1324
1316
1311
1308
1313
1324
1337
1337
1331
1321
1314
1308
1304
1309
1313
1321
1326
1329
1327
1321
1318
1314
1308
1316
1318
1326
1327
1322
1324
1324
1318
1309
1309
1314
1322
1326
1334
1339
1336
1331
1327
1321
1321
1321
1324
1329
1337
1337
1332
1334
1332
1327
1324
1327
1337
1344
1350
1350
1350
1344
1337
1339
1344
1341
1354
1360
1367
1363
1360
1363
1355
1357
1362
1365
1372
1373
1370
1370
1372
1372
1363
1368
1373
1380
1380
1386
1393
1398
1396
1390
1386
1375
1370
1367
1363
1370
1382
1373
1365
1360
1355
1350
1341
1337
1342
1342
1354
1359
1354
1342
1327
1314
1318
1316
1318
1322
1337
1337
1332
1327
1318
1314
1313
1318
1318
1316
1321
1324
1331
1324
1314
1308
1308
1314
1318
1318
1321
1324
1327
1326
1319
1316
1313
1313
1318
1322
1326
1326
1327
1326
1318
1313
1311
1311
1319
1327
1332
1329
1319
1318
1309
1308
1309
1311
1321
1329
1334
1331
1326
1321
1314
1313
1318
1324
1326
1327
1331
1327
1324
1318
1314
1314
1318
1324
1327
1332
1337
1337
1341
1337
1324
1314
1308
1314
1321
1319
1324
1324
1324
1318
1306
1311
1313
1322
1331
1341
1337
1327
1324
1314
1308
1308
1309
1316
1326
1331
1326
1321
1316
1314
1314
1316
1322
1327
1329
1334
1331
1324
1318
1309
1308
1309
1318
1324
1327
1331
1324
1321
1319
1318
1318
1318
1314
1327
1327
1331
1331
1319
1318
1314
1318
1318
1319
1334
1339
1334
1324
1314
1314
1314
1318
1321
1331
1334
1334
1331
1326
1319
1318
1321
1327
1326
1324
1326
1327
1324
1318
1311
1308
1308
1313
1314
1322
1327
1324
1327
1327
1326
1318
1313
1321
1322
1327
1327
1327
1331
1324
1318
1314
1314
1318
1326
1334
1332
1327
1321
1314
1309
1308
1308
1309
1318
1324
1327
1324
1318
1309
1306
1308
1313
1318
1321
1327
1326
1319
1314
1308
1309
1308
1311
1314
1313
1324
1321
1322
1321
1309
1303
1304
1313
1318
1318
1321
1321
1321
1316
1313
1313
1308
1314
1321
1331
1329
1321
1318
1314
1318
1324
1344
1365
1395
1418
1445
1467
1493
1508
1529
1554
1563
1562
1557
1544
1518
1482
1434
1386
1334
1298
1275
1280
1291
1308
1314
1321
1324
1316
1309
1308
1309
1314
1321
1327
1324
1322
1318
1314
1311
1308
1309
1318
1326
1327
1326
1326
1318
1311
1309
1309
1311
1316
1326
1332
1331
1327
1318
1311
1321
1322
1321
1329
1337
1334
1331
1327
1318
1311
1314
1318
1324
1327
1334
1334
1334
1334
1326
1322
1321
1321
1324
1334
1341
1341
1334
1331
1324
1324
1319
1324
1337
1347
1350
1347
1344
1331
1327
1327
1327
1334
1341
1347
1350
1350
1350
1337
1337
1342
1349
1350
1350
1354
1354
1354
1357
1349
1344
1345
1350
1357
1360
1367
1370
1368
1368
1360
1355
1355
1360
1360
1370
1378
1380
1378
1373
1372
1367
1370
1378
1383
1390
1391
1386
1382
1372
1363
1370
1365
1363
1365
1370
1377
1370
1360
1354
1349
1347
1344
1344
1347
1350
1347
1344
1337
1331
1319
1318
1322
1327
1331
1331
1334
1334
1332
1324
1316
1318
1313
1318
1327
1329
1327
1324
1324
1319
1314
1314
1319
1324
1339
1337
1334
1326
1313
1311
1314
1318
1321
1324
1334
1337
1331
1324
1316
1318
1326
1331
1332
1331
1336
1331
1332
1331
1327
1318
1316
1322
1327
1331
1337
1341
1339
1337
1329
1322
1319
1318
1324
1334
1334
1331
1334
1331
1327
1318
1308
1318
1326
1334
1341
1344
1331
1321
1318
1318
1318
1318
1324
1337
1341
1341
1329
1327
1326
1322
1327
1331
1332
1334
1334
1334
1332
1327
1321
1324
1331
1331
1331
1334
1339
1337
1337
1331
1326
1318
1321
1324
1324
1337
1339
1337
1332
1318
1316
1316
1327
1331
1341
1342
1344
1334
1327
1318
1318
1314
1318
1324
1334
1341
1337
1332
1331
1324
1322
1324
1331
1331
1334
1332
1331
1331
1322
1314
1313
1314
1316
1321
1327
1332
1332
1332
1331
1324
1314
1308
1321
1326
1327
1326
1321
1324
1319
1314
1318
1321
1327
1336
1342
1341
1337
1327
1321
1319
1316
1319
1326
1331
1334
1329
1321
1311
1309
1309
1314
1321
1324
1324
1326
1321
1314
1308
1309
1311
1316
1324
1327
1319
1322
1322
1319
1309
1300
1304
1311
1319
1327
1327
1331
1324
1316
1311
1309
1314
1324
1339
1339
1331
1321
1314
1314
1311
1313
1314
1321
1327
1329
1327
1324
1321
1321
1329
1341
1355
1373
1398
1426
1452
1470
1490
1508
1534
1552
1565
1570
1562
1539
1511
1478
1432
1380
1334
1306
1290
1295
1308
1319
1326
1321
1314
1313
1314
1316
1319
1331
1334
1334
1327
1322
1318
1311
1308
1313
1321
1327
1331
1331
1327
1321
1318
1313
1318
1321
1319
1326
1326
1324
1327
1324
1321
1316
1313
1321
1327
1334
1332
1334
1337
1336
1324
1318
1318
1321
1324
1331
1334
1334
1331
1326
1322
1322
1321
1329
1341
1344
1342
1339
1331
1324
1321
1321
1331
1337
1344
1347
1347
1342
1339
1326
1331
1337
1341
1341
1350
1350
1350
1345
1341
1341
1337
1339
1341
1347
1355
1357
1360
1360
1357
1347
1344
1347
1350
1360
1368
1370
1370
1367
1363
1360
1357
1365
1370
1380
1386
1385
1377
1377
1372
1367
1365
1367
1377
1382
1393
1393
1393
1380
1372
1368
1370
1373
1370
1375
1377
1372
1367
1355
1350
1347
1344
1344
1347
1350
1350
1352
1354
1345
1331
1324
1324
1326
1331
1339
1339
1337
1336
1327
1318
1313
1314
1324
1339
1345
1341
1334
1332
1321
1308
1314
1318
1326
1331
1339
1334
1331
1322
1316
1314
1319
1318
1324
1331
1332
1331
1324
1322
1316
1314
1316
1326
1332
1331
1334
1337
1339
1337
1329
1322
1318
1318
1322
1324
1331
1334
1334
1331
1326
1324
1316
1309
1321
1331
1339
1337
1344
1332
1324
1313
1313
1318
1321
1326
1332
1337
1337
1331
1324
1318
1319
1321
1322
1327
1329
1327
1327
1326
1324
1318
1313
1318
1321
1326
1332
1334
1337
1336
1331
1318
1313
1314
1318
1327
1334
1331
1331
1327
1314
1314
1314
1318
1327
1341
1334
1331
1329
1321
1314
1314
1314
1318
1322
1331
1336
1327
1322
1318
1316
1318
1318
1321
1327
1331
1331
1331
1327
1318
1311
1309
1313
1318
1321
1331
1331
1329
1324
1318
1314
1308
1303
1313
1319
1324
1321
1318
1324
1318
1311
1311
1313
1321
1331
1334
1331
1324
1313
1311
1313
1313
1313
1319
1329
1334
1331
1326
1322
1319
1319
1321
1324
1326
1329
1331
1327
1326
1319
1319
1324
1327
1332
1334
1341
1349
1345
1337
1327
1314
1321
1321
1327
1334
1337
1334
1329
1327
1318
1311
1316
1324
1331
1334
1337
1334
1324
1318
1313
1314
1314
1318
1327
1334
1337
1332
1329
1324
1314
1318
1321
1327
1327
1326
1329
1331
1326
1318
1314
1318
1321
1318
1327
1331
1334
1331
1321
1321
1318
1314
1316
1321
1327
1324
1329
1334
1339
1337
1354
1370
1400
1432
1470
1495
1513
1526
1539
1554
1557
1560
1552
1547
1522
1483
1445
1400
1349
1308
1290
1290
1301
1313
1322
1321
1327
1321
1322
1318
1319
1327
1329
1337
1337
1341
1339
1332
1321
1308
1309
1316
1327
1331
1329
1334
1327
1322
1316
1318
1322
1324
1337
1344
1341
1327
1324
1326
1319
1314
1316
1326
1339
1341
1337
1332
1331
1324
1321
1322
1326
1331
1342
1341
1339
1331
1321
1314
1319
1327
1329
1339
1349
1350
1347
1344
1341
1331
1329
1329
1339
1344
1347
1350
1352
1345
1334
1334
1334
1337
1342
1355
1360
1357
1354
1349
1344
1341
1341
1345
1357
1365
1367
1368
1375
1360
1355
1362
1367
1373
1367
1370
1375
1377
1380
1375
1372
1370
1373
1378
1386
1393
1393
1396
1393
1386
1382
1383
1386
1386
1393
1395
1400
1398
1390
1380
1373
1375
1377
1382
1385
1383
1377
1368
1359
1350
1347
1341
1344
1350
1355
1363
1357
1350
1337
1331
1331
1334
1332
1337
1339
1344
1337
1331
1327
1321
1321
1321
1324
1331
1329
1332
1334
1331
1321
1311
1313
1314
1321
1329
1334
1337
1334
1324
1321
1318
1321
1324
1337
1342
1337
1332
1326
1314
1314
1313
1319
1324
1327
1337
1341
1337
1332
1326
1331
1332
1334
1326
1331
1332
1329
1327
1326
1321
1316
1318
1321
1324
1334
1341
1345
1344
1337
1326
1321
1324
1326
1327
1334
1337
1336
1334
1332
1326
1319
1316
1326
1334
1342
1341
1345
1336
1326
1319
1321
1321
1327
1334
1339
1341
1337
1326
1321
1321
1324
1326
1329
1334
1341
1337
1337
1331
1326
1321
1327
1334
1334
1339
1344
1344
1342
1334
1326
1321
1321
1324
1334
1341
1347
1344
1334
1331
1321
1326
1332
1341
1354
1357
1350
1344
1332
1322
1318
1319
1324
1327
1334
1339
1341
1336
1326
1324
1324
1324
1327
1331
1334
1334
1332
1332
1327
1319
1321
1324
1327
1336
1334
1337
1341
1337
1331
1321
1321
1321
1321
1336
1334
1334
1334
1337
1329
1324
1326
1334
1341
1344
1347
1347
1342
1341
1332
1331
1329
1331
1341
1350
1355
1347
1339
1334
1329
1327
1329
1327
1334
1337
1339
1337
1337
1331
1322
1324
1327
1334
1339
1342
1350
1344
1339
1331
1324
1314
1318
1324
1334
1339
1341
1341
1337
1331
1326
1326
1334
1347
1352
1350
1342
1334
1327
1324
1321
1326
1326
1334
1342
1344
1337
1331
1334
1332
1344
1354
1368
1393
1414
1442
1467
1493
1504
1531
1552
1573
1582
1586
1583
1560
1519
1473
1426
1368
1321
1295
1290
1301
1314
1324
1327
1321
1313
1313
1321
1327
1334
1339
1341
1337
1331
1321
1316
1314
1319
1331
1341
1342
1341
1334
1327
1324
1326
1327
1332
1334
1337
1337
1337
1327
1326
1324
1326
1331
1339
1341
1344
1347
1347
1344
1336
1327
1324
1334
1342
1345
1345
1344
1342
1337
1327
1326
1329
1337
1352
1355
1357
1347
1339
1336
1329
1334
1332
1334
1347
1355
1359
1354
1350
1344
1341
1337
1342
1347
1350
1354
1363
1357
1349
1344
1347
1354
1352
1355
1362
1367
1365
1363
1363
1357
1352
1352
1360
1367
1372
1377
1377
1380
1373
1370
1368
1375
1383
1393
1395
1395
1391
1386
1382
1380
1382
1380
1390
1400
1409
1408
1400
1395
1393
1383
1383
1383
1386
1390
1386
1386
1380
1367
1363
1359
1357
1354
1355
1363
1365
1362
1355
1352
1344
1334
1329
1337
1344
1344
1347
1344
1339
1327
1326
1324
1331
1334
1349
1354
1345
1334
1327
1321
1318
1318
1314
1331
1339
1341
1337
1331
1331
1324
1321
1321
1322
1327
1329
1336
1336
1327
1319
1313
1314
1318
1321
1326
1334
1341
1341
1337
1334
1324
1316
1316
1322
1327
1329
1334
1337
1337
1331
1324
1321
1324
1331
1336
1344
1344
1341
1339
1332
1318
1319
1319
1326
1331
1341
1337
1341
1337
1331
1324
1331
1334
1334
1336
1339
1337
1334
1331
1324
1324
1321
1321
1326
1331
1334
1336
1337
1334
1324
1318
1316
1318
1327
1334
1334
1334
1329
1327
1319
1318
1314
1318
1334
1344
1341
1332
1321
1324
1314
1311
1309
1314
1327
1332
1337
1332
1326
1318
1314
1318
1319
1318
1321
1331
1334
1327
1322
1318
1311
1311
1314
1319
1326
1331
1332
1334
1334
1321
1318
1314
1316
1321
1321
1324
1329
1331
1331
1321
1311
1311
1309
1313
1321
1326
1334
1331
1327
1321
1311
1308
1304
1313
1319
1321
1329
1334
1336
1331
1322
1321
1326
1324
1324
1331
1332
1334
1334
1326
1321
1318
1314
1318
1321
1327
1331
1339
1344
1331
1319
1309
1303
1308
1313
1322
1326
1324
1324
1319
1313
1311
1309
1314
1326
1334
1334
1331
1327
1318
1309
1308
1308
1309
1313
1321
1327
1327
1321
1311
1309
1309
1313
1318
1326
1324
1326
1326
1319
1309
1303
1303
1313
1313
1314
1329
1337
1344
1347
1357
1367
1393
1426
1460
1496
1519
1539
1560
1563
1554
1544
1531
1514
1491
1457
1413
1365
1318
1288
1277
1288
1303
1314
1324
1332
1331
1327
1326
1326
1324
1322
1321
1321
1324
1324
1321
1318
1314
1308
1309
1311
1311
1321
1326
1332
1331
1321
1321
1313
1311
1311
1313
1322
1324
1324
1321
1319
1314
1311
1313
1321
1334
1341
1344
1339
1331
1326
1318
1318
1318
1319
1327
1339
1344
1337
1331
1327
1324
1321
1319
1324
1334
1341
1349
1339
1334
1327
1322
1319
1331
1327
1332
1344
1350
1347
1344
1339
1334
1331
1336
1345
1350
1354
1355
1357
1350
1341
1339
1345
1354
1355
1363
1370
1365
1360
1352
1349
1350
1355
1363
1375
1383
1382
1380
1377
1378
1377
1380
1380
1380
1390
1386
1393
1393
1386
1377
1372
1380
1382
1390
1398
1401
1400
1395
1386
1375
1367
1360
1362
1370
1373
1370
1370
1363
1354
1337
1334
1341
1342
1345
1349
1349
1347
1339
1329
1324
1316
1311
1313
1327
1337
1337
1337
1331
1322
1319
1319
1314
1327
1331
1332
1334
1329
1324
1319
1318
1321
1324
1327
1334
1339
1339
1334
1331
1324
1314
1314
1321
1329
1334
1334
1334
1332
1322
1318
1316
1321
1327
1339
1344
1342
1334
1327
1324
1314
1314
1314
1324
1334
1345
1341
1334
1329
1324
1322
1327
1327
1331
1334
1341
1339
1334
1327
1321
1321
1318
1318
1324
1332
1336
1339
1331
1327
1313
1314
1318
1321
1324
1327
1334
1337
1331
1319
1314
1318
1319
1319
1331
1337
1339
1331
1318
1319
1314
1318
1321
1324
1334
1334
1331
1327
1318
1314
1314
1316
1321
1326
1334
1334
1331
1322
1318
1314
1314
1318
1321
1329
1334
1334
1334
1327
1319
1309
1308
1316
1322
1331
1334
1334
1331
1321
1314
1313
1309
1321
1334
1341
1337
1326
1327
1321
1311
1308
1308
1316
1322
1326
1327
1324
1324
1319
1318
1319
1321
1319
1326
1327
1327
1324
1318
1314
1313
1314
1321
1324
1331
1337
1337
1337
1331
1321
1318
1324
1331
1336
1344
1334
1337
1334
1327
1313
1314
1313
1321
1329
1341
1337
1331
1329
1319
1311
1311
1314
1324
1331
1337
1334
1329
1322
1318
1316
1318
1318
1318
1321
1327
1326
1324
1321
1316
1314
1314
1316
1324
1331
1334
1336
1334
1326
1314
1314
1313
1308
1321
1327
1329
1327
1314
1316
1311
1313
1318
1334
1347
1357
1362
1373
1390
1404
1426
1450
1478
1506
1534
1557
1565
1560
1547
1526
1504
1477
1437
1400
1360
1322
1298
1288
1293
1298
1303
1308
1311
1321
1327
1341
1339
1332
1322
1314
1311
1318
1318
1324
1331
1331
1327
1324
1318
1314
1313
1316
1324
1332
1334
1336
1332
1326
1318
1316
1319
1321
1324
1327
1331
1334
1331
1324
1321
1321
1324
1326
1331
1334
1334
1339
1334
1324
1324
1324
1327
1334
1344
1342
1347
1349
1344
1327
1322
1321
1326
1334
1345
1350
1352
1350
1347
1337
1332
1331
1342
1359
1360
1362
1357
1352
1344
1339
1339
1347
1359
1368
1368
1370
1363
1360
1355
1357
1360
1367
1377
1380
1377
1377
1378
1370
1370
1377
1382
1390
1391
1400
1403
1400
1395
1390
1386
1386
1393
1406
1409
1409
1408
1408
1403
1400
1400
1403
1408
1413
1413
1408
1406
1396
1383
1377
1370
1372
1373
1380
1383
1375
1365
1355
1354
1350
1354
1347
1347
1347
1347
1354
1347
1339
1334
1329
1334
1332
1334
1342
1344
1345
1337
1327
1321
1319
1318
1324
1331
1334
1334
1339
1336
1327
1324
1327
1337
1341
1347
1342
1342
1336
1326
1321
1318
1319
1324
1332
1339
1344
1337
1337
1334
1327
1331
1332
1334
1334
1344
1341
1341
1334
1324
1321
1324
1331
1332
1341
1347
1347
1347
1341
1334
1326
1321
1326
1336
1341
1339
1342
1341
1337
1326
1321
1324
1332
1341
1347
1345
1344
1337
1329
1324
1322
1321
1316
1334
1342
1344
1339
1327
1331
1324
1331
1331
1337
1334
1337
1337
1337
1337
1329
1327
1331
1327
1334
1344
1350
1350
1350
1341
1331
1321
1321
1327
1337
1344
1342
1344
1344
1334
1327
1324
1329
1334
1341
1347
1357
1347
1341
1332
1326
1318
1319
1321
1332
1342
1344
1341
1337
1332
1329
1326
1331
1331
1336
1337
1341
1337
1329
1322
1321
1326
1327
1331
1339
1341
1341
1339
1337
1327
1321
1324
1329
1331
1337
1337
1339
1337
1329
1324
1322
1327
1331
1347
1354
1354
1347
1341
1326
1327
1326
1331
1336
1344
1347
1349
1349
1344
1339
1327
1327
1331
1329
1332
1339
1344
1342
1334
1331
1322
1322
1324
1326
1334
1341
1345
1349
1347
1334
1324
1319
1324
1331
1339
1339
1350
1342
1337
1331
1324
1316
1329
1334
1344
1350
1350
1344
1337
1334
1324
1319
1321
1329
1341
1341
1337
1334
1327
1321
1318
1321
1327
1334
1349
1365
1377
1391
1406
1426
1455
1488
1513
1544
1570
1583
1591
1590
1575
1544
1508
1467
1429
1393
1350
1321
1308
1303
1308
1316
1321
1326
1331
1342
1355
1349
1344
1337
1334
1327
1324
1327
1331
1337
1344
1349
1350
1347
1345
1341
1337
1344
1347
1344
1332
1331
1337
1341
1337
1332
1327
1326
1324
1331
1331
1342
1342
1345
1350
1350
1344
1332
1331
1336
1337
1341
1344
1347
1344
1339
1331
1327
1327
1332
1337
1347
1354
1357
1354
1350
1342
1334
1331
1334
1341
1347
1355
1357
1355
1347
1341
1341
1344
1345
1347
1354
1362
1370
1362
1355
1354
1352
1354
1354
1360
1365
1370
1373
1373
1367
1354
1355
1360
1362
1367
1380
1388
1386
1383
1377
1373
1370
1370
1380
1393
1400
1396
1393
1390
1391
1377
1377
1380
1390
1395
1403
1406
1406
1403
1400
1396
1396
1390
1393
1400
1396
1393
1388
1382
1373
1360
1360
1360
1362
1363
1362
1367
1367
1360
1347
1339
1336
1337
1341
1344
1347
1347
1341
1334
1327
1321
1321
1327
1332
1337
1337
1336
1336
1327
1324
1316
1318
1318
1326
1329
1337
1324
1326
1321
1319
1318
1314
1324
1327
1334
1334
1327
1327
1318
1316
1314
1318
1321
1327
1337
1341
1337
1327
1321
1318
1316
1316
1321
1331
1334
1332
1332
1331
1324
1316
1314
1321
1327
1337
1337
1334
1331
1324
1311
1313
1314
1314
1316
1321
1331
1327
1322
1321
1318
1319
1314
1318
1318
1324
1326
1324
1321
1314
1311
1313
1318
1314
1318
1321
1324
1324
1319
1316
1309
1309
1311
1313
1318
1327
1324
1327
1324
1319
1311
1308
1311
1321
1326
1331
1331
1321
1321
1313
1309
1308
1304
1318
1324
1329
1334
1329
1324
1316
1314
1314
1318
1321
1322
1326
1324
1324
1318
1311
1309
1309
1314
1318
1318
1326
1327
1326
1319
1314
1308
1303
1308
1316
1324
1321
1321
1324
1318
1303
1308
1309
1316
1326
1324
1329
1321
1318
1311
1308
1308
1308
1314
1324
1331
1327
1322
1324
1321
1324
1324
1322
1324
1327
1332
1336
1331
1321
1311
1314
1314
1318
1318
1329
1332
1331
1324
1322
1316
1313
1304
1308
1314
1319
1324
1321
1316
1318
1309
1303
1303
1303
1314
1324
1329
1326
1318
1311
1308
1308
1303
1303
1314
1324
1327
1324
1321
1318
1314
1314
1313
1318
1318
1319
1324
1319
1318
1313
1313
1313
1308
1309
1314
1321
1324
1326
1326
1326
1324
1342
1365
1391
1419
1455
1478
1498
1509
1522
1537
1549
1552
1549
1537
1518
1483
1434
1388
1337
1298
1275
1275
1295
1311
1321
1319
1319
1311
1306
1309
1311
1311
1314
1318
1326
1318
1316
1308
1303
1303
1303
1301
1314
1321
1324
1321
1314
1314
1306
1303
1303
1308
1313
1321
1326
1324
1321
1314
1308
1308
1309
1314
1326
1331
1331
1324
1318
1311
1309
1308
1311
1316
1324
1326
1331
1326
1327
1318
1318
1321
1322
1326
1327
1332
1336
1331
1327
1324
1314
1321
1324
1334
1341
1350
1345
1345
1337
1326
1319
1321
1329
1341
1345
1347
1349
1344
1341
1334
1336
1334
1341
1354
1362
1360
1357
1350
1347
1347
1344
1347
1355
1367
1373
1370
1368
1363
1359
1362
1363
1368
1378
1377
1382
1386
1383
1380
1373
1373
1373
1377
1380
1390
1393
1393
1393
1386
1372
1370
1367
1370
1370
1372
1373
1372
1368
1359
1350
1341
1341
1344
1347
1354
1354
1344
1336
1327
1319
1318
1321
1326
1334
1334
1334
1331
1326
1319
1321
1313
1318
1318
1326
1327
1321
1324
1321
1318
1313
1314
1322
1324
1327
1331
1336
1336
1322
1311
1311
1313
1314
1321
1327
1331
1331
1326
1321
1314
1313
1318
1321
1331
1331
1331
1329
1324
1314
1308
1303
1311
1318
1318
1331
1331
1331
1321
1309
1314
1316
1321
1322
1327
1331
1326
1327
1324
1318
1311
1313
1318
1327
1331
1336
1334
1334
1324
1316
1311
1316
1319
1326
1332
1332
1327
1327
1324
1321
1311
1314
1318
1329
1334
1329
1319
1319
1316
1311
1311
1311
1321
1327
1339
1337
1332
1326
1324
1331
1324
1316
1319
1322
1327
1327
1324
1319
1314
1311
1314
1319
1321
1327
1334
1341
1337
1327
1318
1314
1314
1316
1321
1327
1334
1334
1334
1326
1318
1313
1311
1319
1327
1341
1334
1332
1331
1322
1308
1309
1309
1309
1318
1327
1337
1334
1329
1324
1318
1316
1318
1322
1331
1336
1334
1332
1327
1321
1313
1318
1318
1322
1321
1331
1337
1341
1334
1327
1321
1316
1321
1329
1337
1344
1342
1349
1341
1336
1326
1321
1318
1334
1337
1336
1334
1329
1324
1319
1314
1311
1318
1324
1331
1337
1334
1327
1324
1321
1319
1316
1321
1324
1327
1327
1331
1327
1319
1314
1311
1316
1321
1327
1334
1337
1336
1332
1324
1314
1314
1314
1321
1324
1324
1327
1331
1334
1331
1321
1318
1322
1326
1331
1332
1336
1332
1332
1331
1334
1344
1357
1373
1400
1436
1462
1482
1504
1519
1541
1547
1552
1550
1537
1519
1493
1452
1413
1363
1322
1295
1285
1290
1308
1324
1334
1337
1327
1322
1318
1311
1309
1319
1327
1334
1332
1331
1331
1324
1314
1311
1318
1324
1334
1336
1332
1329
1321
1314
1314
1308
1309
1313
1321
1331
1334
1331
1327
1324
1327
1327
1327
1326
1327
1334
1337
1337
1327
1316
1324
1324
1326
1326
1341
1339
1341
1336
1334
1327
1326
1327
1334
1334
1342
1337
1341
1344
1341
1334
1329
1329
1341
1344
1350
1355
1360
1352
1347
1341
1337
1342
1339
1350
1355
1362
1360
1360
1360
1350
1347
1344
1349
1354
1355
1362
1368
1365
1360
1360
1360
1365
1363
1370
1380
1385
1393
1393
1390
1380
1373
1368
1377
1382
1390
1395
1395
1396
1390
1380
1380
1382
1390
1396
1409
1408
1401
1398
1390
1386
1380
1375
1377
1383
1393
1395
1386
1386
1385
1373
1360
1355
1355
1360
1355
1360
1362
1355
1354
1344
1334
1331
1329
1324
1331
1337
1341
1344
1344
1337
1327
1322
1321
1324
1329
1336
1339
1344
1342
1341
1332
1324
1322
1326
1327
1337
1345
1345
1339
1331
1321
1321
1319
1326
1329
1347
1344
1344
1341
1337
1331
1331
1329
1327
1326
1331
1337
1341
1336
1331
1324
1324
1326
1331
1334
1339
1344
1347
1350
1344
1332
1319
1321
1326
1331
1337
1341
1344
1344
1334
1327
1324
1326
1331
1342
1357
1354
1357
1344
1344
1334
1324
1321
1327
1334
1341
1342
1345
1344
1337
1334
1334
1332
1332
1334
1341
1347
1344
1339
1331
1329
1327
1329
1336
1339
1341
1347
1350
1347
1341
1331
1327
1334
1337
1341
1344
1350
1350
1350
1350
1334
1331
1331
1334
1350
1350
1350
1347
1344
1339
1327
1324
1331
1337
1342
1347
1347
1344
1341
1334
1334
1339
1337
1341
1345
1345
1342
1339
1334
1331
1322
1318
1324
1329
1341
1344
1350
1350
1341
1329
1321
1318
1322
1324
1334
1337
1347
1337
1334
1331
1321
1313
1321
1327
1337
1341
1339
1334
1329
1327
1321
1324
1327
1331
1341
1347
1342
1337
1334
1331
1329
1331
1334
1337
1342
1347
1344
1337
1334
1327
1326
1331
1331
1337
1339
1345
1342
1341
1321
1319
1321
1324
1326
1327
1341
1344
1339
1334
1329
1324
1319
1321
1329
1341
1345
1344
1341
1334
1326
1321
1319
1322
1327
1334
1341
1341
1336
1331
1332
1332
1331
1324
1327
1332
1337
1334
1334
1329
1324
1318
1313
1321
1327
1337
1354
1377
1385
1393
1406
1426
1454
1482
1506
1534
1557
1572
1577
1575
1560
1534
1500
1472
1439
1400
1355
1324
1301
1295
1298
1303
1313
1314
1324
1334
1339
1337
1336
1334
1331
1324
1321
1322
1327
1331
1329
1329
1327
1318
1321
1321
1326
1329
1326
1337
1341
1341
1337
1331
1327
1319
1316
1319
1327
1334
1337
1336
1336
1331
1324
1322
1327
1337
1349
1349
1347
1341
1337
1331
1327
1324
1324
1327
1339
1344
1342
1339
1337
1337
1337
1342
1337
1337
1342
1345
1355
1347
1342
1334
1332
1337
1337
1337
1347
1352
1355
1354
1350
1341
1341
1339
1341
1347
1354
1357
1359
1360
1360
1350
1344
1344
1347
1355
1362
1370
1368
1367
1362
1359
1355
1357
1359
1367
1378
1382
1378
1377
1380
1373
1373
1377
1380
1382
1385
1390
1390
1390
1383
1377
1383
1382
1386
1386
1393
1396
1396
1390
1380
1370
1359
1357
1360
1363
1368
1370
1367
1362
1354
1341
1334
1336
1344
1354
1354
1352
1345
1337
1331
1326
1313
1318
1319
1329
1336
1341
1329
1331
1331
1324
1321
1321
1321
1327
1331
1331
1331
1327
1321
1321
1319
1318
1316
1324
1334
1334
1334
1329
1327
1319
1321
1319
1324
1327
1327
1326
1331
1331
1326
1318
1319
1321
1316
1327
1337
1337
1334
1322
1321
1316
1316
1314
1319
1331
1336
1337
1334
1331
1326
1324
1326
1324
1324
1327
1334
1337
1332
1327
1321
1318
1316
1314
1319
1327
1334
1337
1341
1334
1326
1318
1318
1318
1322
1326
1322
1334
1334
1331
1319
1308
1314
1318
1321
1326
1337
1331
1326
1318
1314
1308
1311
1318
1327
1329
1331
1331
1324
1318
1314
1318
1316
1321
1324
1331
1331
1324
1314
1311
1314
1318
1318
1321
1326
1329
1332
1331
1324
1314
1308
1309
1314
1314
1324
1324
1329
1324
1311
1309
1308
1309
1313
1318
1329
1331
1327
1321
1316
1313
1303
1308
1313
1324
1327
1327
1326
1321
1314
1314
1314
1314
1316
1318
1324
1324
1326
1324
1322
1314
1313
1311
1316
1327
1332
1344
1342
1337
1327
1318
1311
1318
1321
1326
1329
1336
1332
1327
1322
1314
1311
1314
1321
1331
1332
1331
1324
1322
1314
1308
1308
1308
1314
1326
1329
1332
1326
1318
1314
1313
1313
1311
1316
1324
1331
1327
1322
1313
1309
1309
1311
1314
1314
1327
1329
1332
1331
1318
1311
1308
1309
1308
1311
1319
1327
1331
1326
1318
1313
1308
1304
1309
1326
1337
1347
1350
1359
1363
1380
1403
1436
1467
1495
1522
1544
1560
1557
1550
1544
1519
1498
1465
1431
1393
1355
1314
1290
1285
1288
1290
1303
1311
1316
1324
1331
1334
1327
1318
1309
1304
1309
1314
1321
1324
1324
1321
1321
1318
1308
1303
1308
1314
1324
1327
1329
1327
1321
1313
1308
1309
1309
1314
1326
1331
1329
1327
1321
1322
1318
1319
1319
1318
1327
1327
1331
1326
1321
1321
1318
1319
1322
1327
1332
1337
1341
1341
1337
1327
1321
1318
1319
1324
1331
1337
1339
1337
1334
1329
1326
1324
1327
1341
1345
1345
1345
1341
1339
1331
1329
1332
1334
1341
1347
1360
1352
1347
1342
1350
1357
1347
1342
1347
1355
1360
1360
1360
1352
1350
1350
1354
1357
1355
1363
1373
1380
1377
1370
1365
1365
1363
1363
1370
1378
1383
1386
1385
1382
1378
1373
1372
1377
1380
1385
1386
1386
1386
1373
1360
1354
1352
1360
1355
1365
1370
1363
1355
1350
1342
1337
1334
1334
1341
1341
1341
1344
1344
1337
1327
1324
1324
1327
1327
1331
1337
1342
1341
1334
1327
1316
1313
1314
1318
1324
1332
1331
1334
1329
1321
1313
1309
1316
1324
1339
1336
1334
1332
1324
1313
1314
1314
1316
1318
1324
1334
1336
1332
1327
1321
1321
1318
1321
1321
1326
1326
1327
1324
1318
1311
1313
1316
1318
1318
1327
1334
1337
1334
1329
1322
1318
1313
1316
1322
1334
1331
1324
1331
1331
1324
1311
1306
1318
1324
1329
1337
1345
1344
1342
1337
1332
1324
1321
1314
1311
1311
1321
1331
1336
1332
1327
1326
1319
1318
1316
1321
1326
1327
1334
1337
1331
1327
1321
1321
1322
1321
1324
1332
1339
1341
1341
1334
1329
1311
1314
1318
1326
1331
1334
1334
1334
1331
1322
1318
1321
1327
1339
1345
1345
1341
1329
1324
1318
1318
1314
1318
1326
1334
1337
1334
1334
1331
1327
1326
1326
1327
1329
1334
1341
1339
1334
1322
1318
1318
1322
1321
1326
1334
1341
1339
1345
1337
1329
1321
1319
1324
1329
1332
1331
1334
1334
1331
1326
1319
1321
1324
1331
1337
1341
1339
1334
1331
1326
1321
1321
1327
1334
1339
1341
1341
1341
1337
1331
1331
1332
1334
1334
1339
1341
1344
1341
1337
1329
1331
1327
1331
1337
1344
1347
1344
1347
1345
1332
1321
1314
1321
1326
1331
1334
1339
1337
1334
1334
1327
1326
1324
1329
1339
1347
1350
1337
1331
1331
1324
1318
1321
1326
1341
1342
1344
1339
1337
1331
1329
1322
1331
1329
1337
1345
1352
1341
1332
1331
1327
1327
1327
1329
1334
1341
1352
1360
1367
1373
1380
1398
1422
1447
1482
1514
1544
1567
1577
1583
1580
1577
1560
1537
1511
1473
1424
1373
1327
1301
1290
1300
1314
1326
1344
1347
1347
1342
1344
1334
1332
1337
1331
1331
1337
1342
1342
1339
1334
1329
1327
1326
1331
1336
1342
1350
1357
1362
1354
1337
1327
1327
1331
1339
1341
1350
1354
1354
1350
1342
1337
1336
1337
1342
1355
1359
1354
1354
1344
1339
1326
1334
1339
1344
1350
1355
1354
1352
1344
1341
1339
1339
1344
1350
1355
1360
1357
1355
1350
1347
1344
1350
1359
1363
1368
1368
1370
1368
1362
1354
1347
1352
1354
1363
1370
1377
1377
1375
1367
1362
1355
1360
1377
1386
1390
1386
1383
1386
1377
1370
1370
1378
1383
1390
1396
1403
1400
1396
1396
1396
1396
1393
1398
1408
1408
1406
1406
1403
1398
1395
1400
1400
1404
1408
1413
1419
1419
1413
1403
1395
1390
1386
1386
1390
1396
1390
1382
1378
1370
1367
1357
1359
1362
1367
1370
1367
1360
1354
1344
1339
1337
1341
1344
1352
1355
1354
1345
1344
1341
1341
1337
1339
1344
1347
1347
1349
1350
1339
1334
1332
1331
1334
1334
1337
1341
1347
1344
1337
1331
1327
1324
1319
1327
1334
1341
1341
1344
1339
1332
1326
1327
1334
1342
1347
1347
1347
1341
1336
1327
1327
1331
1332
1337
1344
1347
1345
1344
1342
1345
1344
1341
1341
1342
1344
1344
1344
1344
1337
1327
1327
1327
1334
1337
1350
1349
1349
1344
1341
1331
1331
1331
1329
1337
1344
1344
1341
1341
1336
1324
1321
1324
1332
1339
1341
1345
1344
1337
1332
1327
1324
1321
1327
1339
1347
1347
1339
1337
1331
1327
1324
1327
1332
1334
1337
1337
1344
1334
1329
1327
1326
1324
1329
1336
1344
1349
1349
1342
1334
1327
1321
1318
1327
1334
1341
1339
1339
1334
1329
1322
1319
1326
1334
1341
1344
1341
1329
1322
1319
1318
1316
1327
1337
1341
1337
1334
1334
1324
1322
1321
1321
1326
1329
1341
1337
1334
1326
1318
1313
1318
1319
1319
1326
1337
1342
1342
1339
1331
1324
1321
1324
1327
1334
1337
1339
1344
1337
1324
1319
1321
1327
1331
1334
1337
1341
1337
1332
1326
1321
1314
1318
1324
1334
1334
1334
1324
1327
1321
1322
1321
1316
1324
1327
1334
1334
1327
1326
1318
1318
1318
1318
1322
1327
1336
1339
1337
1332
1324
1316
1308
1311
1321
1331
1334
1336
1336
1332
1329
1316
1318
1322
1327
1337
1341
1344
1344
1350
1357
1370
1385
1416
1455
1495
1514
1531
1552
1568
1572
1565
1559
1539
1514
1485
1449
1404
1354
1309
1288
1288
1300
1308
1319
1331
1332
1336
1334
1337
1329
1316
1313
1314
1321
1327
1327
1332
1332
1324
1318
1314
1314
1316
1324
1334
1337
1341
1327
1324
1319
1314
1308
1318
1324
1334
1334
1337
1331
1327
1324
1327
1327
1329
1326
1332
1334
1337
1332
1331
1331
1327
1324
1326
1327
1337
1341
1344
1344
1334
1327
1321
1321
1327
1334
1336
1341
1342
1341
1331
1331
1327
1331
1332
1347
1350
1354
1347
1344
1344
1336
1331
1331
1337
1350
1357
1357
1354
1350
1344
1341
1342
1344
1347
1350
1360
1365
1365
1360
1354
1350
1357
1350
1355
1365
1375
1377
1382
1382
1375
1367
1360
1363
1365
1370
1377
1391
1391
1390
1386
1380
1383
1377
1382
1391
1396
1396
1390
1386
1380
1370
1363
1363
1367
1370
1372
1373
1370
1363
1355
1350
1347
1347
1342
1344
1347
1347
1341
1337
1334
1327
1321
1318
1321
1327
1329
1337
1347
1350
1331
1316
1311
1308
1309
1319
1327
1334
1332
1326
1326
1321
1314
1311
1314
1324
1329
1331
1327
1326
1316
1311
1311
1309
1316
1324
1332
1334
1332
1327
1319
1318
1316
1318
1319
1321
1327
1331
1331
1327
1319
1313
1314
1318
1326
1327
1324
1332
1337
1337
1331
1321
1321
1318
1324
1324
1329
1337
1339
1331
1327
1322
1318
1318
1324
1334
1339
1337
1334
1329
1322
1314
1314
1313
1318
1321
1329
1332
1334
1327
1322
1324
1321
1318
1316
1321
1329
1327
1322
1326
1319
1314
1309
1308
1318
1316
1321
1327
1331
1331
1324
1318
1313
1311
1311
1314
1321
1326
1327
1324
1319
1311
1303
1308
1314
1324
1326
1324
1326
1324
1316
1309
1303
1308
1311
1318
1326
1327
1324
1316
1306
1309
1308
1309
1313
1313
1322
1322
1324
1321
1316
1311
1308
1308
1309
1311
1321
1327
1334
1331
1329
1321
1316
1314
1308
1303
1308
1318
1326
1327
1327
1324
1321
1311
1303
1309
1318
1327
1331
1332
1331
1319
1313
1313
1313
1318
1316
1319
1332
1331
1327
1324
1321
1324
1316
1314
1314
1318
1322
1321
1322
1318
1311
1308
1308
1309
1311
1318
1322
1331
1327
1324
1318
1311
1308
1308
1308
1314
1321
1324
1326
1326
1324
1314
1309
1309
1314
1321
1327
1326
1329
1322
1314
1308
1303
1303
1303
1311
1324
1331
1331
1324
1321
1311
1309
1309
1311
1321
1331
1337
1354
1365
1375
1386
1408
1436
1462
1486
1511
1537
1560
1563
1563
1544
1519
1495
1467
1442
1413
1373
1337
1303
1298
1295
1295
1301
1303
1319
1324
1334
1337
1334
1327
1319
1314
1311
1311
1321
1332
1337
1329
1327
1327
1321
1316
1318
1318
1318
1324
1332
1336
1334
1324
1321
1318
1318
1316
1319
1327
1334
1341
1337
1334
1331
1324
1314
1314
1318
1322
1334
1341
1339
1339
1324
1321
1318
1324
1331
1339
1347
1347
1341
1337
1334
1329
1326
1326
1331
1341
1347
1345
1341
1339
1334
1331
1331
1332
1337
1341
1347
1349
1345
1341
1337
1339
1337
1339
1341
1349
1360
1368
1363
1363
1354
1347
1344
1342
1354
1360
1370
1378
1377
1372
1362
1360
1362
1370
1380
1390
1393
1391
1386
1382
1380
1375
1375
1380
1386
1395
1398
1400
1401
1400
1386
1386
1390
1393
1390
1391
1393
1393
1390
1380
1373
1370
1365
1363
1368
1370
1373
1368
1367
1363
1352
1341
1337
1339
1344
1341
1344
1345
1344
1337
1331
1327
1324
1331
1337
1345
1345
1341
1336
1334
1327
1322
1324
1331
1337
1341
1342
1339
1334
1329
1324
1327
1324
1327
1334
1337
1347
1341
1337
1332
1327
1321
1324
1327
1334
1337
1344
1345
1344
1337
1326
1318
1319
1327
1332
1334
1339
1341
1341
1334
1331
1327
1327
1331
1341
1342
1342
1336
1331
1329
1324
1319
1324
1329
1339
1344
1344
1341
1327
1331
1327
1329
1327
1326
1337
1342
1342
1339
1332
1329
1327
1327
1324
1327
1334
1341
1344
1347
1341
1331
1321
1322
1326
1331
1331
1341
1344
1341
1334
1329
1329
1326
1322
1334
1344
1349
1344
1341
1336
1327
1321
1324
1331
1334
1337
1347
1341
1341
1337
1334
1344
1332
1327
1329
1334
1339
1337
1334
1334
1327
1324
1324
1327
1332
1334
1337
1345
1347
1337
1326
1321
1319
1321
1324
1331
1339
1344
1341
1334
1327
1324
1322
1326
1336
1339
1341
1341
1345
1331
1322
1321
1322
1324
1341
1347
1350
1350
1344
1337
1334
1334
1336
1332
1339
1344
1342
1341
1341
1334
1327
1326
1327
1334
1337
1339
1344
1347
1342
1337
1332
1327
1327
1331
1337
1344
1347
1344
1344
1341
1331
1329
1331
1341
1349
1354
1345
1341
1337
1332
1327
1331
1334
1337
1345
1350
1350
1345
1339
1337
1336
1334
1332
1337
1341
1344
1345
1344
1337
1334
1334
1341
1350
1367
1390
1414
1445
1470
1495
1509
1526
1547
1560
1577
1586
1586
1573
1552
1513
1472
1419
1370
1341
1318
1314
1324
1336
1344
1344
1334
1334
1331
1334
1341
1350
1355
1354
1347
1342
1341
1339
1337
1341
1347
1350
1354
1350
1347
1344
1337
1334
1339
1339
1341
1345
1354
1359
1354
1350
1350
1339
1337
1337
1345
1359
1357
1360
1355
1349
1344
1341
1345
1354
1362
1368
1367
1360
1352
1345
1342
1345
1350
1355
1365
1370
1367
1363
1360
1362
1363
1360
1365
1360
1362
1362
1365
1362
1355
1350
1349
1350
1352
1357
1365
1370
1368
1373
1362
1355
1357
1355
1362
1370
1373
1377
1377
1383
1380
1373
1372
1375
1380
1390
1398
1403
1401
1395
1391
1388
1383
1386
1393
1404
1416
1416
1413
1409
1408
1403
1400
1400
1404
1408
1413
1419
1419
1413
1406
1409
1400
1395
1396
1398
1409
1406
1404
1396
1386
1377
1367
1367
1370
1377
1378
1378
1377
1372
1362
1354
1352
1355
1362
1367
1365
1362
1354
1347
1344
1341
1336
1337
1344
1350
1350
1349
1344
1342
1341
1341
1341
1347
1344
1349
1352
1354
1355
1344
1341
1341
1341
1344
1344
1354
1355
1360
1357
1350
1342
1339
1339
1342
1349
1354
1354
1355
1355
1347
1344
1341
1345
1349
1355
1360
1360
1355
1352
1347
1344
1342
1344
1350
1355
1360
1360
1360
1354
1347
1350
1347
1350
1347
1350
1360
1357
1357
1347
1347
1347
1344
1347
1350
1357
1363
1363
1362
1360
1352
1344
1342
1347
1347
1350
1355
1360
1359
1347
1342
1341
1345
1354
1368
1373
1367
1360
1354
1350
1347
1337
1341
1354
1354
1355
1355
1360
1365
1350
1347
1347
1352
1355
1355
1360
1362
1357
1354
1350
1347
1344
1341
1345
1355
1355
1360
1357
1355
1347
1341
1334
1337
1341
1345
1354
1354
1357
1354
1349
1344
1341
1341
1347
1357
1360
1354
1350
1344
1341
1329
1337
1345
1357
1363
1368
1365
1360
1354
1352
1354
1352
1350
1347
1354
1360
1355
1354
1347
1344
1341
1341
1345
1352
1355
1360
1365
1363
1355
1345
1341
1341
1341
1342
1347
1350
1354
1350
1345
1337
1337
1341
1357
1355
1360
1354
1352
1354
1342
1337
1334
1337
1347
1350
1352
1354
1350
1347
1339
1341
1341
1339
1344
1350
1355
1355
1354
1345
1337
1331
1331
1334
1342
1355
1372
1393
1413
1432
1454
1475
1504
1531
1560
1583
1613
1622
1618
1604
1577
1539
1495
1452
1406
1367
1337
1319
1326
1332
1332
1331
1337
1341
1344
1347
1354
1357
1360
1357
1350
1344
1344
1337
1339
1336
1339
1344
1347
1341
1342
1337
1334
1327
1332
1337
1341
1347
1352
1355
1355
1342
1334
1324
1329
1334
1341
1347
1360
1354
1350
1347
1342
1337
1339
1350
1360
1362
1355
1350
1347
1342
1339
1337
1339
1344
1347
1355
1355
1354
1347
1344
1342
1342
1344
1347
1354
1357
1355
1357
1352
1347
1344
1342
1349
1359
1357
1360
1367
1370
1373
1363
1355
1354
1355
1360
1367
1373
1375
1373
1373
1370
1367
1363
1368
1377
1385
1393
1393
1393
1386
1383
1380
1382
1388
1390
1400
1408
1409
1403
1401
1403
1400
1401
1396
1396
1406
1414
1416
1418
1411
1406
1403
1396
1396
1395
1400
1404
1409
1408
1395
1383
1377
1367
1367
1362
1370
1368
1373
1373
1370
1357
1345
1341
1345
1352
1354
1354
1357
1350
1342
1334
1332
1327
1327
1332
1341
1344
1341
1337
1334
1331
1327
1322
1321
1334
1334
1336
1334
1327
1331
1321
1321
1321
1321
1327
1332
1341
1344
1344
1337
1327
1324
1318
1319
1327
1334
1339
1341
1337
1334
1324
1318
1318
1327
1336
1342
1344
1342
1337
1332
1327
1324
1324
1327
1334
1347
1342
1339
1337
1337
1339
1331
1327
1327
1331
1331
1334
1337
1334
1331
1324
1322
1324
1324
1324
1334
1341
1344
1339
1329
1324
1319
1314
1321
1327
1331
1331
1329
1332
1326
1318
1316
1319
1327
1331
1337
1341
1332
1324
1316
1314
1309
1303
1321
1331
1341
1334
1327
1331
1326
1324
1321
1321
1326
1327
1334
1337
1332
1326
1316
1318
1319
1318
1321
1326
1334
1337
1337
1336
1326
1314
1313
1319
1324
1327
1331
1331
1331
1321
1311
1311
1318
1327
1329
1341
1334
1331
1324
1319
1309
1311
1314
1321
1327
1331
1331
1331
1326
1321
1316
1318
1319
1321
1326
1331
1334
1331
1324
1321
1321
1321
1322
1327
1337
1344
1342
1342
1339
1327
1321
1319
1326
1331
1334
1339
1341
1341
1324
1314
1318
1318
1321
1331
1339
1337
1334
1327
1324
1318
1313
1314
1322
1331
1334
1332
1332
1331
1324
1318
1318
1316
1321
1324
1331
1334
1329
1326
1322
1318
1316
1318
1326
1331
1334
1337
1334
1331
1321
1313
1314
1321
1324
1331
1341
1332
1327
1321
1321
1318
1336
1354
1378
1396
1416
1436
1459
1482
1500
1524
1552
1573
1588
1590
1578
1557
1524
1486
1449
1400
1354
1318
1303
1309
1321
1321
1321
1318
1316
1319
1321
1324
1334
1337
1339
1341
1327
1321
1318
1321
1321
1314
1321
1327
1329
1326
1321
1318
1314
1318
1326
1331
1339
1334
1332
1327
1324
1318
1318
1321
1326
1331
1334
1334
1331
1324
1322
1324
1321
1321
1321
1331
1334
1337
1334
1331
1326
1318
1313
1321
1324
1331
1334
1344
1337
1327
1319
1314
1314
1324
1331
1334
1341
1344
1339
1334
1327
1322
1326
1334
1342
1344
1344
1344
1337
1331
1322
1321
1327
1337
1344
1344
1347
1347
1345
1344
1342
1344
1341
1344
1354
1360
1360
1359
1354
1360
1350
1350
1350
1357
1373
1373
1380
1380
1375
1370
1367
1365
1365
1373
1382
1386
1386
1378
1373
1367
1360
1362
1367
1373
1378
1377
1373
1363
1357
1344
1341
1344
1344
1344
1350
1355
1345
1334
1331
1326
1321
1311
1316
1321
1329
1327
1321
1324
1319
1313
1309
1308
1313
1318
1329
1344
1339
1321
1308
1303
1303
1308
1314
1319
1324
1319
1314
1308
1303
1308
1314
1321
1324
1327
1324
1318
1311
1303
1303
1303
1311
1321
1326
1326
1322
1318
1314
1313
1303
1311
1316
1321
1322
1318
1321
1318
1313
1303
1308
1313
1319
1324
1327
1331
1327
1321
1314
1309
1313
1314
1324
1331
1334
1334
1329
1324
1313
1308
1314
1324
1331
1331
1329
1327
1321
1314
1313
1313
1318
1319
1319
1331
1327
1321
1321
1318
1319
1311
1314
1318
1319
1324
1326
1324
1319
1311
1313
1313
1319
1321
1326
1332
1334
1331
1324
1318
1311
1308
1311
1318
1327
1327
1327
1324
1318
1308
1308
1313
1321
1326
1329
1331
1326
1324
1314
1311
1309
1304
1314
1322
1332
1331
1322
1321
1319
1316
1313
1313
1318
1321
1327
1331
1331
1324
1314
1314
1313
1314
1314
1321
1331
1331
1329
1321
1313
1308
1308
1314
1321
1327
1329
1332
1332
1324
1316
1314
1321
1334
1337
1344
1334
1331
1327
1319
1311
1313
1316
1322
1331
1331
1327
1324
1326
1322
1316
1314
1314
1318
1316
1321
1326
1324
1319
1313
1309
1309
1311
1314
1324
1334
1329
1326
1321
1318
1311
1308
1311
1318
1321
1324
1331
1324
1324
1316
1311
1313
1311
1324
1331
1331
1327
1321
1321
1318
1311
1308
1309
1314
1321
1327
1327
1332
1339
1342
1349
1360
1382
1403
1432
1465
1486
1504
1518
1537
1544
1544
1539
1527
1508
1485
1450
1406
1360
1309
1285
1280
1295
1309
1318
1326
1327
1324
1318
1311
1321
1321
1327
1334
1337
1329
1326
1321
1316
1313
1309
1314
1321
1331
1332
1334
1327
1324
1319
1324
1321
1321
1326
1331
1337
1337
1331
1327
1324
1326
1322
1324
1329
1336
1344
1341
1342
1331
1319
1319
1324
1324
1331
1332
1341
1342
1337
1324
1324
1324
1327
1337
1342
1347
1344
1339
1334
1331
1329
1331
1341
1347
1352
1354
1354
1357
1347
1344
1341
1341
1341
1344
1350
1357
1360
1357
1352
1350
1349
1344
1354
1360
1370
1383
1386
1383
1377
1363
1360
1360
1367
1370
1372
1377
1386
1391
1386
1382
1380
1380
1382
1390
1400
1403
1406
1406
1406
1403
1393
1386
1385
1393
1400
1404
1406
1406
1406
1396
1391
1385
1380
1380
1383
1386
1386
1382
1372
1363
1357
1355
1355
1352
1355
1359
1357
1359
1354
1344
1334
1331
1329
1332
1337
1344
1347
1342
1339
1334
1329
1324
1326
1334
1341
1344
1341
1334
1329
1324
1321
1319
1327
1332
1337
1341
1342
1339
1337
1327
1337
1331
1327
1318
1319
1334
1337
1337
1329
1326
1326
1324
1327
1331
1334
1339
1342
1344
1336
1327
1324
1321
1321
1321
1327
1336
1334
1334
1327
1324
1321
1321
1331
1339
1341
1341
1342
1337
1331
1324
1321
1318
1327
1332
1341
1345
1349
1341
1334
1331
1326
1321
1327
1336
1344
1344
1342
1339
1334
1331
1326
1327
1332
1336
1342
1350
1349
1341
1334
1329
1326
1331
1334
1337
1344
1342
1341
1339
1331
1324
1326
1334
1344
1344
1342
1341
1339
1334
1319
1321
1324
1331
1334
1345
1345
1344
1337
1336
1341
1337
1329
1331
1334
1344
1342
1339
1337
1331
1327
1322
1321
1327
1329
1341
1345
1349
1341
1334
1331
1327
1327
1331
1337
1341
1342
1344
1339
1334
1327
1324
1321
1331
1339
1342
1345
1347
1337
1331
1332
1327
1329
1334
1341
1347
1350
1347
1344
1341
1337
1331
1331
1331
1337
1344
1342
1337
1337
1332
1331
1331
1334
1334
1334
1342
1350
1347
1339
1331
1321
1318
1324
1327
1337
1341
1344
1337
1332
1318
1321
1324
1337
1342
1349
1347
1342
1337
1331
1322
1321
1324
1327
1334
1342
1347
1347
1344
1342
1337
1331
1331
1334
1337
1341
1341
1341
1337
1336
1337
1349
1363
1383
1409
1445
1478
1506
1526
1544
1557
1565
1573
1573
1567
1549
1518
1483
1436
1378
1326
1301
1290
1308
1324
1337
1342
1344
1334
1332
1331
1331
1331
1341
1345
1350
1344
1341
1339
1334
1331
1331
1332
1332
1337
1341
1342
1341
1334
1327
1326
1331
1334
1337
1344
1350
1350
1341
1336
1321
1319
1324
1331
1337
1344
1345
1347
1344
1337
1329
1334
1344
1352
1355
1355
1354
1344
1337
1337
1334
1327
1331
1337
1347
1347
1347
1347
1347
1347
1342
1341
1344
1344
1350
1355
1354
1347
1341
1344
1341
1339
1347
1345
1355
1360
1360
1365
1357
1350
1347
1350
1359
1360
1367
1373
1377
1370
1363
1355
1362
1367
1368
1383
1390
1390
1388
1382
1377
1377
1373
1380
1386
1393
1395
1401
1400
1395
1393
1390
1390
1390
1390
1390
1403
1398
1396
1393
1386
1386
1377
1380
1382
1390
1393
1386
1380
1367
1354
1350
1350
1350
1352
1352
1359
1357
1347
1334
1331
1327
1332
1337
1342
1347
1342
1337
1339
1326
1318
1314
1321
1327
1334
1334
1337
1334
1329
1327
1322
1324
1324
1321
1332
1337
1339
1334
1322
1327
1324
1322
1326
1331
1337
1339
1339
1337
1329
1324
1319
1319
1326
1331
1339
1344
1342
1334
1327
1324
1324
1327
1334
1341
1342
1339
1336
1331
1331
1324
1321
1324
1329
1339
1344
1350
1341
1334
1334
1334
1327
1329
1331
1337
1342
1344
1337
1332
1329
1324
1321
1324
1329
1341
1350
1350
1342
1331
1322
1324
1327
1329
1334
1341
1342
1339
1331
1324
1321
1319
1326
1331
1341
1341
1339
1337
1332
1319
1318
1318
1327
1334
1347
1341
1342
1339
1334
1324
1326
1324
1327
1331
1337
1339
1341
1337
1329
1327
1326
1327
1329
1336
1339
1342
1337
1331
1322
1324
1327
1331
1341
1344
1344
1344
1337
1331
1329
1334
1345
1350
1347
1342
1339
1337
1324
1324
1327
1331
1334
1344
1345
1347
1347
1344
1345
1337
1331
1331
1331
1337
1339
1337
1337
1332
1327
1321
1319
1326
1332
1337
1342
1344
1341
1337
1334
1326
1324
1327
1332
1337
1341
1339
1336
1327
1324
1318
1318
1331
1337
1341
1339
1341
1331
1326
1326
1324
1324
1331
1334
1344
1342
1337
1331
1327
1327
1324
1324
1324
1329
1337
1336
1332
1336
1337
1345
1360
1380
1406
1444
1478
1504
1519
1531
1544
1559
1567
1570
1567
1547
1519
1483
1436
1386
1326
1301
1295
1309
1322
1327
1334
1331
1324
1321
1318
1321
1324
1332
1337
1344
1341
1334
1334
1334
1329
1321
1321
1327
1334
1334
1334
1331
1327
1321
1324
1324
1326
1331
1334
1342
1339
1331
1321
1316
1321
1319
1318
1329
1334
1339
1339
1339
1321
1318
1324
1329
1334
1334
1337
1341
1339
1332
1324
1319
1321
1326
1331
1341
1345
1344
1342
1337
1336
1331
1331
1334
1337
1345
1344
1347
1349
1341
1337
1334
1337
1339
1344
1355
1370
1360
1354
1345
1342
1344
1344
1350
1359
1362
1362
1362
1360
1354
1352
1360
1368
1375
1377
1380
1380
1378
1370
1368
1367
1370
1377
1386
1393
1396
1390
1390
1390
1383
1377
1380
1382
1391
1395
1400
1396
1385
1377
1377
1375
1370
1370
1382
1380
1377
1367
1360
1355
1344
1337
1341
1345
1350
1350
1350
1345
1339
1327
1326
1327
1331
1331
1336
1339
1334
1324
1321
1316
1311
1311
1316
1324
1332
1331
1329
1327
1324
1321
1316
1318
1319
1321
1327
1332
1326
1321
1314
1316
1318
1311
1322
1331
1339
1341
1334
1324
1314
1308
1311
1318
1322
1326
1334
1332
1331
1318
1311
1313
1321
1326
1329
1334
1334
1331
1327
1321
1318
1309
1313
1318
1327
1326
1327
1327
1329
1321
1309
1313
1313
1321
1324
1324
1332
1331
1327
1329
1322
1322
1322
1321
1318
1324
1329
1331
1332
1327
1326
1322
1311
1309
1309
1318
1319
1324
1329
1332
1331
1324
1314
1314
1318
1324
1329
1334
1334
1327
1322
1318
1311
1309
1314
1324
1327
1324
1329
1331
1332
1331
1321
1321
1318
1318
1324
1329
1334
1327
1324
1319
1314
1311
1314
1321
1331
1331
1337
1331
1326
1318
1311
1311
1318
1324
1329
1337
1337
1331
1324
1319
1319
1314
1316
1324
1332
1331
1326
1316
1318
1308
1306
1308
1308
1318
1322
1324
1322
1314
1309
1308
1309
1309
1309
1316
1321
1324
1316
1314
1313
1308
1303
1308
1313
1318
1324
1331
1326
1318
1303
1298
1301
1303
1313
1318
1324
1324
1319
1313
1309
1303
1308
1316
1322
1324
1316
1319
1318
1311
1303
1290
1303
1311
1327
1337
1355
1367
1382
1400
1426
1449
1468
1490
1514
1534
1550
1547
1537
1519
1486
1455
1426
1390
1350
1319
1303
1301
1301
1301
1301
1308
1309
1313
1321
1331
1334
1331
1318
1313
1308
1303
1311
1314
1326
1324
1324
1319
1314
1311
1304
1303
1311
1319
1327
1331
1332
1329
1327
1321
1316
1313
1314
1324
1327
1329
1331
1326
1326
1321
1318
1318
1321
1331
1334
1344
1341
1334
1331
1321
1314
1321
1322
1331
1337
1347
1339
1334
1334
1326
1324
1334
1344
1345
1349
1347
1347
1342
1334
1329
1334
1334
1341
1341
1350
1350
1347
1341
1342
1339
1334
1334
1342
1354
1359
1359
1355
1355
1354
1347
1347
1352
1355
1363
1377
1377
1372
1372
1363
1362
1362
1363
1373
1377
1386
1390
1393
1386
1380
1373
1377
1386
1391
1396
1395
1396
1393
1385
1378
1377
1380
1383
1383
1390
1390
1386
1382
1377
1372
1363
1359
1355
1359
1359
1355
1355
1354
1342
1336
1331
1339
1337
1341
1347
1357
1344
1334
1326
1318
1318
1321
1326
1334
1336
1334
1332
1326
1318
1313
1321
1331
1339
1337
1341
1339
1331
1327
1324
1321
1324
1324
1331
1337
1341
1336
1334
1332
1331
1326
1322
1322
1327
1334
1336
1332
1331
1321
1324
1322
1324
1324
1327
1341
1345
1342
1344
1337
1327
1324
1324
1331
1334
1337
1344
1339
1337
1334
1326
1327
1334
1341
1344
1350
1347
1341
1334
1332
1327
1327
1331
1339
1344
1350
1347
1344
1341
1337
1334
1326
1334
1341
1344
1352
1355
1347
1341
1334
1331
1326
1331
1341
1355
1360
1357
1344
1332
1327
1326
1331
1331
1339
1342
1350
1347
1341
1331
1331
1334
1337
1344
1345
1350
1354
1347
1344
1337
1329
1332
1341
1347
1360
1354
1352
1347
1342
1344
1332
1332
1336
1337
1337
1341
1337
1331
1327
1324
1326
1327
1334
1341
1342
1345
1341
1337
1327
1321
1319
1324
1334
1339
1341
1341
1341
1331
1322
1326
1327
1334
1339
1341
1341
1339
1334
1334
1327
1324
1321
1319
1334
1339
1342
1341
1347
1341
1334
1334
1334
1334
1334
1341
1349
1354
1360
1370
1382
1400
1424
1459
1498
1531
1555
1570
1583
1578
1575
1563
1550
1522
1491
1449
1406
1357
1318
1295
1295
1303
1321
1339
1347
1352
1341
1334
1334
1331
1321
1331
1339
1342
1345
1344
1342
1339
1334
1327
1327
1331
1331
1337
1347
1347
1341
1336
1334
1334
1334
1337
1342
1350
1355
1354
1347
1342
1334
1331
1339
1337
1342
1347
1354
1352
1344
1337
1336
1337
1344
1350
1362
1354
1352
1344
1342
1344
1336
1337
1342
1349
1357
1355
1354
1354
1354
1350
1350
1349
1352
1357
1363
1363
1360
1355
1355
1354
1350
1354
1362
1370
1378
1380
1373
1360
1357
1354
1360
1365
1370
1377
1380
1380
1383
1370
1368
1370
1377
1386
1393
1396
1396
1396
1391
1382
1375
1377
1386
1396
1401
1403
1403
1400
1395
1391
1390
1386
1390
1393
1396
1398
1393
1386
1382
1375
1363
1365
1367
1372
1378
1377
1373
1362
1349
1344
1347
1341
1344
1350
1354
1355
1345
1337
1332
1327
1327
1334
1342
1345
1344
1341
1337
1332
1327
1324
1327
1329
1334
1341
1342
1344
1342
1337
1337
1327
1327
1327
1334
1341
1341
1337
1334
1331
1327
1324
1329
1334
1342
1349
1350
1342
1334
1321
1327
1326
1332
1334
1347
1345
1344
1337
1329
1326
1327
1331
1336
1342
1347
1347
1347
1342
1332
1326
1324
1331
1334
1341
1342
1347
1344
1337
1329
1327
1326
1327
1332
1341
1344
1344
1344
1339
1327
1324
1324
1321
1331
1334
1342
1344
1339
1322
1316
1319
1321
1324
1334
1337
1341
1341
1337
1331
1324
1321
1329
1341
1344
1337
1336
1334
1331
1321
1316
1318
1326
1331
1334
1344
1341
1337
1337
1337
1334
1326
1327
1339
1339
1344
1341
1334
1331
1324
1316
1324
1327
1334
1341
1345
1341
1334
1327
1321
1318
1318
1321
1327
1331
1337
1334
1331
1321
1314
1318
1321
1327
1331
1332
1334
1331
1324
1316
1314
1318
1314
1321
1327
1332
1331
1327
1324
1319
1314
1314
1314
1318
1331
1334
1332
1327
1318
1318
1316
1321
1321
1326
1337
1337
1331
1316
1314
1321
1331
1347
1370
1391
1422
1450
1478
1498
1514
1534
1560
1583
1590
1591
1586
1557
1519
1473
1422
1373
1326
1301
1295
1304
1318
1316
1326
1326
1319
1314
1311
1319
1324
1331
1334
1327
1318
1311
1309
1309
1309
1314
1324
1334
1331
1327
1324
1319
1313
1314
1319
1327
1331
1331
1332
1331
1321
1314
1313
1321
1326
1327
1332
1334
1331
1326
1316
1313
1311
1316
1324
1331
1337
1329
1329
1331
1324
1314
1318
1321
1324
1327
1334
1334
1331
1327
1321
1324
1327
1329
1337
1347
1355
1367
1360
1349
1341
1329
1321
1319
1326
1334
1339
1345
1345
1342
1341
1334
1334
1342
1350
1357
1359
1360
1362
1354
1352
1347
1344
1347
1345
1355
1362
1365
1363
1363
1359
1355
1355
1360
1363
1373
1383
1385
1377
1375
1375
1373
1373
1373
1377
1382
1386
1383
1375
1368
1360
1357
1355
1360
1360
1360
1367
1367
1360
1352
1344
1336
1334
1337
1337
1347
1341
1334
1331
1322
1314
1313
1311
1319
1326
1331
1331
1329
1327
1324
1318
1311
1308
1308
1311
1321
1324
1321
1314
1311
1308
1306
1308
1314
1324
1331
1327
1321
1314
1303
1303
1308
1311
1313
1321
1327
1327
1314
1314
1311
1311
1314
1311
1324
1327
1331
1327
1321
1319
1313
1308
1311
1318
1324
1324
1329
1326
1326
1314
1311
1313
1314
1318
1324
1329
1329
1324
1321
1318
1311
1308
1313
1321
1331
1334
1334
1327
1321
1311
1303
1314
1319
1324
1329
1337
1332
1331
1324
1318
1313
1318
1322
1327
1331
1326
1324
1319
1318
1313
1313
1316
1319
1326
1327
1331
1331
1331
1329
1326
1319
1314
1314
1324
1327
1327
1322
1318
1314
1309
1311
1318
1321
1334
1341
1341
1334
1321
1321
1318
1322
1324
1322
1339
1344
1341
1331
1324
1319
1314
1314
1319
1327
1331
1329
1327
1326
1318
1308
1301
1306
1311
1321
1326
1331
1327
1321
1318
1313
1311
1309
1311
1321
1326
1326
1321
1318
1318
1311
1308
1318
1316
1327
1331
1339
1327
1316
1309
1308
1309
1314
1324
1332
1331
1327
1324
1319
1314
1314
1321
1327
1327
1327
1324
1326
1321
1318
1318
1327
1347
1373
1400
1429
1459
1486
1513
1531
1552
1565
1575
1580
1578
1560
1526
1488
1442
1390
1334
1301
1293
1300
1314
1334
1332
1327
1318
1313
1318
1321
1321
1326
1334
1337
1336
1331
1324
1314
1311
1318
1324
1327
1331
1331
1327
1324
1318
1313
1311
1316
1322
1326
1331
1332
1329
1331
1324
1321
1314
1311
1324
1329
1332
1331
1324
1324
1318
1318
1318
1324
1331
1339
1344
1342
1337
1331
1324
1318
1318
1321
1331
1339
1341
1344
1342
1334
1327
1327
1334
1341
1344
1344
1344
1342
1341
1334
1334
1334
1337
1342
1347
1360
1355
1352
1350
1354
1352
1344
1344
1349
1354
1359
1360
1360
1357
1355
1355
1355
1357
1365
1373
1380
1377
1372
1370
1367
1367
1372
1377
1380
1388
1393
1396
1400
1391
1385
1377
1382
1388
1393
1393
1393
1390
1383
1373
1367
1363
1363
1370
1370
1370
1370
1365
1365
1357
1347
1337
1341
1342
1341
1344
1342
1341
1332
1324
1324
1326
1326
1331
1339
1342
1337
1331
1322
1318
1314
1314
1321
1329
1331
1331
1329
1324
1319
1308
1309
1319
1327
1331
1329
1324
1327
1319
1316
1314
1309
1318
1324
1329
1331
1331
1329
1327
1322
1314
1313
1318
1322
1327
1331
1329
1326
1324
1321
1314
1313
1318
1327
1337
1337
1334
1329
1324
1318
1311
1314
1319
1326
1331
1334
1331
1327
1309
1314
1318
1326
1326
1322
1331
1327
1321
1314
1308
1308
1309
1316
1324
1327
1327
1327
1327
1326
1318
1318
1314
1318
1321
1331
1334
1331
1324
1318
1314
1314
1314
1322
1331
1339
1337
1326
1319
1313
1309
1311
1314
1321
1327
1334
1332
1321
1314
1311
1314
1318
1318
1321
1321
1326
1324
1316
1314
1313
1314
1322
1326
1331
1331
1334
1329
1326
1318
1316
1318
1319
1319
1322
1321
1318
1314
1314
1311
1309
1311
1319
1327
1331
1327
1326
1318
1311
1304
1303
1316
1321
1324
1327
1319
1321
1313
1311
1311
1314
1318
1322
1324
1319
1313
1314
1314
1308
1308
1311
1318
1321
1324
1324
1324
1321
1318
1314
1314
1313
1318
1324
1327
1321
1321
1314
1309
1308
1311
1327
1344
1368
1380
1400
1422
1439
1465
1486
1514
1539
1567
1583
1585
1577
1554
1524
1486
1447
1400
1355
1322
1301
1295
1301
1308
1303
1303
1308
1314
1322
1327
1332
1331
1327
1321
1314
1313
1313
1318
1324
1326
1321
1316
1314
1314
1309
1308
1311
1313
1331
1331
1329
1326
1311
1311
1311
1314
1314
1318
1329
1334
1332
1321
1314
1313
1314
1318
1321
1324
1331
1331
1327
1326
1321
1318
1321
1324
1326
1331
1334
1332
1327
1324
1324
1319
1318
1321
1327
1334
1334
1326
1332
1327
1326
1324
1321
1334
1344
1350
1355
1350
1337
1327
1327
1331
1337
1337
1347
1354
1355
1354
1350
1347
1344
1344
1352
1360
1365
1370
1372
1370
1367
1363
1355
1365
1372
1377
1382
1391
1391
1386
1386
1382
1383
1380
1382
1393
1400
1393
1390
1388
1383
1377
1377
1380
1385
1386
1386
1383
1377
1367
1355
1352
1349
1352
1354
1360
1360
1350
1342
1334
1331
1324
1327
1334
1341
1341
1336
1334
1332
1327
1319
1316
1318
1319
1327
1332
1334
1327
1321
1326
1321
1314
1309
1308
1321
1326
1327
1324
1321
1318
1311
1313
1318
1318
1324
1331
1334
1327
1321
1314
1313
1311
1311
1313
1319
1327
1327
1324
1321
1314
1311
1316
1321
1327
1329
1329
1327
1321
1316
1311
1306
1311
1318
1324
1331
1324
1329
1327
1326
1318
1314
1313
1319
1324
1327
1327
1327
1324
1316
1313
1318
1318
1321
1327
1334
1334
1329
1319
1314
1311
1314
1318
1322
1331
1334
1341
1336
1331
1321
1314
1322
1331
1329
1331
1332
1331
1329
1321
1321
1318
1314
1313
1311
1321
1327
1332
1331
1327
1336
1332
1326
1321
1321
1324
1329
1331
1329
1326
1322
1318
1316
1313
1318
1324
1334
1344
1341
1334
1327
1321
1313
1311
1316
1322
1327
1334
1329
1329
1324
1311
1318
1319
1326
1331
1341
1341
1341
1337
1327
1321
1314
1314
1322
1331
1334
1331
1327
1327
1326
1319
1316
1318
1321
1324
1332
1334
1332
1327
1321
1321
1318
1318
1321
1332
1341
1341
1331
1327
1319
1314
1314
1313
1324
1331
1337
1337
1339
1324
1316
1318
1321
1327
1334
1337
1342
1337
1327
1324
1321
1318
1321
1324
1329
1331
1331
1331
1337
1341
1344
1352
1372
1396
1426
1460
1491
1516
1537
1557
1575
1591
1603
1604
1606
1586
1557
1513
1467
1408
1355
1316
1303
1308
1321
1341
1345
1342
1334
1326
1321
1327
1334
1339
1342
1347
1342
1339
1339
1334
1327
1324
1327
1334
1341
1342
1344
1341
1337
1331
1331
1331
1327
1331
1334
1341
1341
1336
1332
1327
1326
1326
1326
1341
1347
1347
1344
1344
1332
1322
1322
1327
1339
1341
1345
1347
1354
1354
1344
1337
1334
1339
1344
1344
1347
1344
1344
1344
1342
1336
1332
1334
1341
1347
1354
1350
1350
1350
1350
1345
1345
1344
1347
1359
1365
1367
1360
1357
1355
1362
1352
1355
1367
1373
1382
1380
1380
1377
1373
1373
1377
1380
1383
1390
1400
1406
1403
1396
1390
1390
1395
1400
1406
1413
1413
1409
1408
1408
1406
1400
1406
1413
1418
1422
1421
1419
1413
1409
1404
1395
1391
1393
1393
1396
1395
1386
1386
1377
1367
1357
1355
1362
1368
1375
1373
1367
1357
1344
1337
1339
1339
1341
1342
1350
1350
1344
1336
1326
1324
1327
1329
1341
1344
1347
1342
1341
1334
1324
1321
1321
1331
1337
1337
1344
1344
1341
1334
1326
1322
1331
1329
1332
1341
1344
1341
1334
1332
1326
1324
1327
1334
1341
1342
1345
1347
1344
1337
1327
1329
1331
1336
1337
1344
1347
1347
1342
1334
1331
1327
1329
1339
1344
1350
1347
1344
1339
1334
1326
1324
1327
1341
1337
1344
1344
1342
1345
1337
1334
1334
1329
1339
1344
1347
1344
1341
1337
1334
1327
1322
1324
1334
1341
1350
1355
1352
1341
1331
1324
1324
1326
1332
1337
1344
1347
1345
1337
1336
1327
1327
1331
1341
1344
1350
1341
1339
1334
1331
1318
1324
1331
1334
1337
1342
1339
1334
1331
1329
1324
1321
1321
1324
1331
1334
1331
1327
1326
1324
1324
1324
1327
1332
1337
1342
1344
1344
1327
1321
1322
1324
1327
1329
1337
1341
1344
1341
1334
1331
1324
1324
1329
1341
1344
1339
1334
1331
1331
1321
1321
1326
1327
1334
1337
1341
1339
1337
1339
1339
1331
1327
1329
1334
1339
1341
1339
1332
1327
1322
1321
1326
1327
1329
1337
1344
1344
1336
1329
1324
1324
1321
1324
1327
1344
1341
1341
1334
1334
1321
1324
1327
1334
1337
1336
1332
1331
1329
1324
1327
1341
1360
1390
1422
1454
1480
1504
1531
1552
1577
1591
1609
1616
1618
1609
1582
1537
1491
1432
1370
1326
1308
1311
1331
1344
1350
1349
1337
1331
1327
1326
1324
1337
1342
1347
1345
1341
1334
1324
1319
1324
1334
1339
1344
1344
1337
1331
1321
1321
1321
1324
1331
1339
1342
1341
1339
1337
1337
1334
1324
1324
1331
1334
1339
1341
1337
1337
1331
1327
1327
1331
1334
1344
1357
1352
1344
1334
1326
1321
1324
1327
1334
1341
1347
1347
1347
1337
1332
1327
1332
1339
1344
1344
1350
1350
1344
1337
1329
1331
1331
1334
1345
1354
1354
1350
1347
1344
1341
1341
1344
1347
1354
1362
1367
1368
1370
1362
1360
1363
1370
1380
1382
1393
1393
1386
1380
1373
1373
1377
1386
1393
1400
1406
1409
1408
1404
1395
1391
1396
1403
1404
1403
1403
1396
1390
1382
1378
1378
1377
1382
1383
1385
1380
1378
1378
1375
1363
1355
1350
1352
1350
1354
1355
1344
1337
1334
1331
1322
1326
1329
1334
1341
1341
1334
1331
1324
1314
1311
1314
1319
1321
1324
1331
1331
1327
1316
1314
1318
1321
1324
1331
1332
1331
1324
1321
1314
1308
1311
1318
1326
1331
1329
1331
1327
1318
1319
1318
1322
1326
1324
1336
1339
1337
1332
1326
1322
1318
1316
1318
1326
1337
1345
1344
1339
1331
1321
1318
1322
1326
1329
1334
1337
1337
1329
1326
1322
1324
1329
1331
1334
1337
1337
1334
1331
1331
1321
1314
1326
1331
1334
1334
1341
1337
1334
1331
1322
1318
1321
1321
1327
1334
1334
1326
1319
1318
1314
1318
1319
1327
1336
1341
1341
1337
1334
1326
1316
1313
1316
1318
1322
1334
1337
1334
1322
1318
1316
1318
1319
1321
1329
1332
1334
1334
1327
1327
1319
1321
1324
1324
1334
1337
1337
1334
1326
1324
1319
1321
1319
1324
1331
1334
1332
1331
1329
1324
1318
1318
1321
1327
1334
1344
1341
1334
1327
1313
1311
1314
1321
1327
1331
1337
1337
1331
1327
1321
1313
1321
1329
1332
1332
1324
1327
1324
1321
1311
1308
1309
1318
1326
1327
1326
1327
1318
1316
1314
1318
1313
1314
1321
1326
1327
1321
1321
1319
1318
1314
1313
1316
1321
1324
1331
1331
1324
1314
1311
1313
1318
1313
1321
1327
1331
1327
1321
1321
1314
1311
1318
1321
1326
1327
1324
1319
1313
1309
1306
1313
1324
1339
1354
1373
1395
1421
1449
1477
1500
1518
1539
1565
1588
1598
1596
1582
1560
1524
1478
1431
1380
1329
1304
1303
1318
1327
1327
1319
1311
1316
1321
1324
1324
1327
1337
1347
1344
1337
1329
1326
1318
1311
1311
1318
1319
1324
1326
1327
1324
1316
1308
1306
1308
1314
1319
1322
1326
1327
1327
1326
1324
1318
1318
1321
1324
1327
1327
1327
1331
1329
1316
1318
1318
1322
1327
1339
1341
1341
1334
1327
1318
1319
1318
1321
1326
1336
1341
1337
1337
1329
1321
1318
1321
1329
1336
1339
1344
1342
1342
1341
1337
1342
1354
1359
1367
1377
1391
1403
1413
1416
1404
1390
1380
1386
1396
1403
1409
1418
1422
1432
1439
1455
1498
1550
1591
1593
1537
1445
1370
1339
1334
1336
1337
1349
1360
1370
1373
1373
1372
1367
1363
1368
1373
1380
1383
1391
1391
1386
1378
1372
1367
1363
1363
1373
1380
1380
1377
1368
1363
1360
1350
1345
1342
1345
1354
1350
1347
1339
1332
1326
1324
1327
1326
1324
1331
1344
1344
1336
1326
1319
1313
1308
1311
1318
1321
1324
1321
1321
1314
1308
1303
1309
1318
1316
1318
1314
1314
1309
1303
1303
1304
1300
1309
1318
1324
1324
1318
1324
1324
1319
1311
1311
1314
1316
1322
1326
1324
1316
1311
1309
1309
1314
1319
1322
1331
1334
1332
1326
1321
1314
1309
1309
1311
1316
1321
1327
1334
1329
1319
1314
1311
1318
1324
1327
1331
1329
1327
1321
1311
1309
1306
1308
1313
1314
1324
1322
1324
1324
1324
1319
1313
1314
1318
1321
1327
1327
1327
1322
1321
1316
1313
1314
1311
1321
1331
1334
1331
1327
1324
1314
1308
1311
1318
1327
1331
1329
1327
1324
1318
1314
1311
1326
1327
1331
1334
1324
1327
1318
1314
1308
1304
1311
1319
1331
1327
1329
1326
1327
1327
1316
1314
1318
1318
1322
1331
1334
1327
1324
1321
1318
1314
1313
1318
1327
1336
1337
1332
1329
1324
1316
1318
1319
1318
1324
1327
1336
1336
1321
1321
1319
1318
1321
1321
1331
1334
1334
1324
1318
1311
1304
1306
1313
1318
1321
1324
1329
1327
1326
1318
1316
1313
1316
1321
1326
1331
1329
1326
1321
1314
1314
1313
1314
1324
1327
1339
1339
1334
1329
1318
1303
1309
1311
1318
1322
1321
1327
1324
1318
1311
1311
1314
1319
1324
1327
1326
1324
1321
1321
1314
1308
1303
1308
1314
1321
1331
1342
1350
1360
1372
1395
1422
1452
1485
1511
1537
1562
1570
1578
1583
1573
1552
1537
1509
1475
1429
1377
1324
1298
1285
1288
1295
1308
1313
1316
1329
1332
1331
1326
1318
1314
1309
1309
1313
1321
1327
1324
1318
1314
1309
1303
1300
1303
1311
1318
1324
1326
1324
1319
1318
1318
1311
1309
1308
1313
1321
1324
1319
1314
1308
1309
1309
1314
1318
1316
1327
1334
1334
1327
1318
1311
1308
1314
1321
1321
1331
1336
1332
1326
1318
1314
1314
1322
1334
1339
1341
1339
1334
1334
1331
1321
1321
1326
1331
1337
1341
1342
1341
1339
1337
1334
1324
1331
1332
1339
1345
1354
1341
1342
1342
1341
1332
1337
1341
1347
1354
1363
1363
1360
1352
1349
1347
1352
1354
1355
1365
1375
1377
1377
1373
1367
1362
1365
1377
1383
1383
1382
1382
1378
1370
1367
1367
1372
1383
1382
1390
1390
1383
1386
1378
1370
1360
1355
1359
1362
1362
1360
1355
1354
1344
1334
1327
1326
1331
1337
1344
1352
1347
1337
1329
1321
1319
1316
1319
1324
1331
1337
1334
1327
1318
1314
1309
1313
1321
1326
1329
1331
1327
1324
1314
1303
1308
1313
1319
1322
1324
1329
1327
1322
1318
1314
1314
1314
1319
1326
1327
1326
1324
1321
1318
1314
1314
1316
1322
1327
1332
1329
1322
1318
1311
1311
1314
1322
1332
1339
1336
1331
1324
1318
1313
1318
1324
1322
1334
1334
1334
1327
1313
1313
1311
1314
1318
1319
1331
1334
1334
1331
1327
1322
1313
1313
1313
1316
1324
1327
1331
1331
1324
1319
1318
1321
1321
1326
1332
1342
1342
1336
1327
1316
1314
1313
1318
1324
1331
1334
1337
1334
1327
1314
1309
1324
1332
1337
1337
1337
1329
1324
1318
1311
1309
1314
1324
1329
1332
1331
1327
1326
1322
1314
1314
1316
1324
1331
1331
1329
1329
1322
1321
1316
1318
1318
1318
1326
1334
1339
1337
1332
1327
1322
1318
1319
1319
1334
1337
1341
1339
1339
1324
1318
1321
1326
1327
1329
1334
1332
1326
1321
1318
1313
1313
1316
1327
1331
1327
1326
1327
1334
1331
1321
1318
1319
1326
1329
1334
1332
1327
1321
1316
1316
1311
1314
1324
1331
1344
1334
1331
1331
1324
1311
1318
1319
1324
1327
1337
1339
1334
1327
1321
1318
1318
1316
1321
1326
1331
1332
1334
1341
1350
1365
1391
1424
1460
1495
1519
1544
1568
1578
1580
1583
1578
1560
1542
1513
1475
1429
1373
1326
1298
1295
1298
1308
1327
1339
1344
1341
1344
1329
1324
1324
1326
1327
1332
1337
1344
1341
1331
1321
1311
1316
1324
1331
1334
1339
1339
1332
1331
1324
1318
1314
1321
1329
1336
1337
1337
1339
1337
1332
1326
1324
1326
1332
1334
1347
1344
1337
1334
1329
1322
1326
1324
1332
1344
1352
1350
1347
1339
1331
1318
1321
1326
1334
1337
1342
1347
1345
1337
1334
1334
1334
1341
1347
1354
1357
1352
1350
1342
1341
1334
1336
1344
1352
1355
1355
1360
1360
1360
1355
1350
1352
1360
1360
1367
1373
1373
1373
1368
1370
1362
1360
1367
1372
1383
1393
1393
1386
1380
1368
1367
1372
1377
1386
1395
1400
1400
1393
1385
1385
1383
1393
1396
1403
1403
1403
1396
1391
1383
1373
1367
1370
1370
1377
1382
1378
1373
1365
1360
1360
1355
1350
1347
1347
1354
1360
1360
1352
1344
1341
1334
1331
1326
1324
1331
1339
1344
1344
1342
1332
1321
1314
1318
1319
1324
1327
1339
1341
1332
1327
1321
1318
1314
1321
1331
1334
1341
1332
1329
1324
1314
1303
1318
1326
1331
1329
1332
1334
1331
1329
1326
1318
1318
1321
1326
1334
1341
1339
1334
1334
1324
1316
1314
1319
1324
1327
1334
1334
1334
1327
1318
1314
1311
1316
1321
1326
1334
1334
1327
1324
1318
1316
1319
1322
1334
1334
1336
1331
1321
1321
1311
1309
1311
1316
1322
1331
1334
1336
1327
1326
1324
1321
1319
1321
1327
1336
1337
1332
1327
1326
1319
1314
1309
1314
1321
1326
1334
1334
1332
1326
1318
1313
1309
1314
1318
1321
1334
1332
1324
1316
1309
1313
1311
1322
1324
1327
1331
1327
1326
1319
1311
1313
1318
1321
1324
1329
1331
1326
1318
1316
1318
1311
1309
1309
1314
1326
1326
1324
1322
1318
1311
1306
1308
1313
1321
1336
1347
1349
1331
1318
1311
1309
1309
1318
1321
1327
1331
1327
1326
1321
1313
1311
1313
1324
1326
1327
1326
1321
1313
1308
1301
1301
1308
1311
1319
1326
1322
1321
1314
1314
1308
1303
1313
1318
1324
1324
1319
1319
1311
1308
1303
1308
1311
1314
1314
1326
1331
1334
1326
1313
1311
1313
1313
1321
1331
1336
1334
1332
1324
1313
1303
1309
1324
1337
1345
1360
1375
1391
1409
1427
1452
1482
1511
1541
1570
1578
1577
1575
1563
1537
1498
1452
1416
1372
1331
1303
1286
1290
1298
1308
1309
1308
1316
1319
1331
1341
1341
1331
1324
1316
1311
1308
1311
1316
1322
1326
1324
1319
1314
1309
1308
1314
1319
1326
1331
1334
1331
1321
1314
1311
1313
1318
1321
1324
1329
1331
1331
1327
1324
1321
1318
1316
1319
1319
1327
1329
1331
1326
1318
1318
1318
1314
1318
1324
1334
1339
1334
1329
1327
1324
1318
1321
1324
1332
1341
1342
1341
1339
1329
1327
1332
1337
1337
1341
1342
1342
1337
1334
1332
1332
1334
1341
1347
1354
1355
1362
1359
1362
1355
1347
1350
1349
1354
1360
1365
1370
1368
1363
1360
1357
1355
1360
1367
1380
1390
1386
1380
1375
1367
1360
1362
1373
1377
1383
1391
1396
1390
1380
1373
1370
1368
1373
1377
1385
1386
1380
1375
1370
1354
1347
1347
1355
1367
1360
1357
1352
1347
1342
1334
1331
1327
1327
1334
1339
1337
1334
1327
1319
1318
1314
1313
1318
1326
1337
1341
1332
1324
1316
1308
1309
1311
1321
1327
1332
1334
1329
1324
1318
1311
1316
1324
1331
1334
1337
1339
1327
1324
1321
1314
1309
1318
1321
1326
1326
1324
1326
1324
1318
1314
1316
1319
1321
1327
1332
1331
1326
1321
1321
1319
1318
1318
1321
1332
1337
1337
1334
1326
1321
1318
1321
1324
1326
1326
1334
1341
1334
1318
1316
1318
1319
1321
1316
1327
1331
1331
1329
1326
1321
1318
1322
1331
1339
1337
1341
1339
1336
1331
1322
1318
1318
1318
1321
1326
1337
1337
1334
1331
1327
1324
1321
1324
1332
1337
1342
1344
1337
1327
1316
1304
1314
1318
1322
1329
1345
1341
1336
1331
1327
1321
1331
1342
1344
1344
1344
1337
1332
1326
1316
1314
1321
1327
1329
1331
1334
1337
1336
1331
1327
1324
1324
1327
1341
1345
1347
1341
1337
1337
1334
1327
1324
1331
1341
1342
1344
1344
1347
1334
1322
1319
1321
1321
1331
1337
1341
1341
1341
1332
1327
1326
1331
1337
1344
1347
1347
1345
1342
1337
1334
1334
1337
1341
1345
1352
1355
1354
1350
1350
1345
1337
1334
1337
1341
1347
1347
1350
1347
1345
1345
1334
1337
1344
1352
1363
1355
1347
1336
1332
1334
1344
1359
1380
1408
1442
1467
1491
1513
1534
1555
1573
1590
1600
1596
1586
1552
1511
1457
1403
1354
1321
1313
1311
1327
1341
1344
1344
1341
1336
1334
1334
1341
1350
1357
1354
1350
1352
1341
1334
1334
1334
1341
1341
1350
1354
1349
1344
1334
1331
1337
1334
1342
1350
1359
1355
1354
1347
1341
1337
1347
1350
1350
1354
1354
1350
1347
1341
1336
1337
1342
1347
1354
1355
1355
1357
1357
1352
1345
1344
1337
1344
1349
1354
1362
1357
1355
1350
1342
1344
1347
1355
1363
1375
1380
1370
1359
1350
1350
1350
1354
1360
1370
1373
1375
1373
1370
1360
1360
1368
1378
1377
1378
1382
1383
1383
1377
1373
1373
1377
1382
1391
1393
1395
1395
1398
1404
1393
1390
1388
1393
1396
1400
1403
1400
1400
1400
1396
1400
1401
1400
1406
1418
1418
1414
1408
1403
1396
1390
1386
1391
1396
1403
1403
1396
1386
1377
1370
1373
1378
1380
1377
1380
1377
1368
1359
1350
1350
1354
1347
1350
1355
1362
1363
1360
1355
1350
1341
1341
1341
1342
1347
1349
1350
1347
1344
1339
1334
1339
1337
1344
1354
1360
1357
1349
1342
1337
1329
1334
1337
1347
1354
1355
1350
1347
1337
1332
1334
1341
1342
1354
1354
1354
1349
1344
1331
1332
1334
1345
1350
1355
1354
1354
1350
1347
1341
1332
1334
1339
1341
1347
1352
1355
1354
1347
1344
1342
1341
1341
1347
1355
1360
1360
1352
1341
1336
1326
1331
1341
1342
1347
1350
1347
1342
1334
1334
1334
1347
1345
1350
1350
1347
1344
1339
1334
1329
1331
1334
1342
1350
1347
1347
1349
1352
1347
1334
1334
1334
1339
1344
1350
1347
1344
1337
1334
1332
1331
1331
1337
1350
1357
1350
1342
1339
1331
1327
1327
1336
1341
1354
1354
1354
1344
1334
1327
1334
1339
1341
1349
1357
1352
1345
1341
1332
1327
1326
1332
1344
1352
1350
1355
1355
1354
1350
1347
1337
1334
1334
1329
1331
1326
1337
1345
1342
1337
1332
1329
1327
1327
1331
1341
1355
1359
1350
1342
1334
1319
1324
1331
1337
1341
1347
1350
1347
1337
1331
1329
1337
1345
1347
1350
1350
1349
1344
1337
1331
1321
1318
1324
1332
1341
1347
1363
1380
1390
1403
1421
1449
1480
1509
1544
1575
1596
1604
1616
1613
1600
1573
1550
1513
1472
1416
1360
1318
1309
1308
1318
1327
1334
1334
1341
1347
1349
1347
1339
1334
1334
1334
1339
1344
1345
1337
1337
1334
1331
1324
1321
1327
1337
1341
1344
1347
1345
1341
1336
1327
1327
1327
1329
1336
1347
1344
1341
1339
1339
1326
1327
1326
1334
1344
1354
1354
1350
1344
1334
1326
1327
1331
1334
1341
1350
1350
1347
1337
1334
1332
1332
1337
1344
1350
1347
1347
1352
1344
1341
1342
1344
1345
1352
1357
1362
1362
1360
1360
1359
1350
1347
1350
1352
1355
1360
1360
1362
1355
1355
1354
1355
1367
1373
1382
1388
1388
1380
1368
1365
1363
1368
1372
1380
1390
1396
1395
1386
1383
1380
1380
1388
1396
1403
1403
1406
1403
1395
1385
1380
1383
1390
1390
1393
1403
1395
1391
1383
1377
1373
1363
1360
1363
1368
1370
1362
1360
1354
1344
1339
1337
1337
1342
1347
1354
1347
1334
1324
1314
1316
1321
1326
1334
1337
1334
1334
1327
1324
1319
1321
1331
1334
1332
1332
1334
1329
1318
1316
1311
1314
1319
1319
1331
1334
1334
1331
1327
1327
1318
1314
1318
1321
1331
1332
1327
1324
1321
1314
1309
1311
1318
1322
1331
1337
1337
1332
1327
1322
1318
1314
1314
1321
1331
1334
1331
1329
1327
1321
1321
1329
1332
1337
1329
1341
1334
1326
1324
1316
1311
1321
1324
1329
1337
1339
1334
1334
1331
1324
1318
1316
1319
1327
1331
1334
1336
1331
1321
1314
1313
1318
1324
1334
1344
1345
1336
1327
1321
1314
1311
1314
1322
1331
1337
1337
1334
1319
1318
1314
1319
1322
1318
1327
1331
1332
1326
1316
1314
1311
1318
1321
1324
1332
1334
1334
1331
1331
1322
1316
1319
1326
1327
1329
1331
1334
1331
1331
1321
1319
1318
1321
1327
1334
1337
1334
1327
1321
1309
1301
1304
1311
1321
1327
1339
1339
1334
1324
1313
1309
1318
1321
1326
1331
1334
1327
1321
1319
1314
1313
1313
1319
1327
1329
1334
1334
1334
1334
1321
1314
1311
1316
1324
1331
1334
1334
1327
1322
1318
1314
1311
1318
1324
1339
1336
1329
1316
1321
1324
1336
1355
1383
1408
1439
1473
1498
1518
1537
1557
1578
1590
1596
1600
1586
1552
1509
1462
1406
1347
1308
1291
1301
1316
1331
1337
1336
1334
1327
1318
1321
1321
1322
1324
1334
1337
1331
1331
1327
1316
1318
1314
1321
1327
1344
1334
1329
1324
1319
1314
1318
1324
1327
1332
1342
1344
1341
1334
1327
1327
1332
1334
1334
1337
1341
1337
1337
1332
1327
1324
1326
1329
1337
1341
1341
1344
1347
1344
1334
1329
1322
1324
1327
1337
1342
1342
1347
1337
1337
1331
1327
1327
1339
1350
1354
1354
1350
1344
1334
1329
1332
1337
1341
1347
1354
1357
1354
1345
1341
1344
1347
1350
1357
1360
1365
1367
1365
1363
1355
1349
1354
1360
1367
1370
1375
1382
1380
1378
1377
1373
1377
1380
1386
1396
1396
1396
1396
1396
1393
1386
1386
1393
1400
1406
1403
1400
1395
1383
1373
1370
1368
1373
1380
1383
1380
1372
1360
1355
1352
1352
1354
1357
1355
1350
1345
1341
1329
1327
1327
1329
1341
1341
1344
1344
1345
1352
1341
1331
1324
1318
1319
1327
1334
1334
1332
1327
1327
1321
1319
1321
1329
1334
1339
1337
1334
1324
1318
1314
1316
1318
1321
1331
1337
1334
1326
1318
1314
1314
1318
1324
1334
1339
1337
1334
1329
1327
1316
1309
1321
1324
1331
1337
1347
1342
1332
1327
1321
1318
1319
1316
1329
1334
1339
1337
1334
1334
1324
1319
1322
1324
1331
1337
1341
1336
1324
1311
1308
1311
1316
1318
1324
1332
1332
1327
1324
1318
1314
1321
1327
1324
1334
1332
1329
1331
1318
1311
1308
1313
1319
1324
1332
1332
1331
1324
1321
1319
1316
1316
1313
1324
1331
1331
1327
1324
1324
1318
1309
1308
1311
1321
1327
1334
1332
1326
1316
1311
1313
1311
1314
1324
1331
1327
1327
1324
1321
1311
1309
1318
1326
1332
1337
1339
1332
1326
1321
1313
1314
1319
1324
1329
1331
1331
1327
1327
1327
1318
1309
1303
1308
1318
1324
1324
1321
1318
1311
1308
1313
1314
1321
1331
1337
1337
1329
1318
1314
1308
1308
1306
1308
1324
1326
1324
1319
1309
1311
1314
1324
1324
1324
1331
1331
1331
1324
1313
1311
1311
1316
1318
1321
1327
1329
1324
1318
1311
1308
1313
1326
1344
1368
1390
1413
1439
1470
1495
1514
1531
1557
1572
1586
1591
1588
1557
1516
1465
1413
1362
1313
1290
1295
1308
1321
1327
1322
1314
1311
1318
1324
1327
1334
1334
1329
1324
1313
1309
1309
1313
1318
1321
1329
1332
1334
1332
1331
1324
1313
1311
1314
1319
1326
1331
1337
1334
1322
1314
1311
1314
1319
1321
1341
1341
1339
1331
1321
1318
1313
1313
1316
1326
1332
1337
1337
1332
1321
1318
1321
1326
1327
1334
1337
1337
1337
1331
1324
1318
1318
1324
1329
1339
1341
1337
1334
1334
1331
1321
1319
1324
1332
1339
1349
1357
1349
1347
1342
1339
1344
1337
1342
1357
1365
1363
1360
1354
1350
1344
1344
1350
1357
1362
1368
1375
1377
1373
1367
1362
1363
1370
1373
1377
1385
1390
1386
1385
1383
1377
1373
1378
1385
1390
1395
1400
1398
1400
1396
1390
1380
1375
1377
1373
1373
1380
1380
1373
1367
1360
1354
1350
1350
1352
1360
1363
1355
1344
1337
1327
1326
1327
1332
1334
1337
1341
1341
1332
1322
1318
1316
1321
1326
1327
1332
1336
1332
1327
1321
1313
1309
1311
1321
1326
1327
1334
1341
1337
1332
1318
1314
1314
1319
1321
1326
1331
1331
1327
1327
1322
1321
1318
1321
1326
1334
1337
1337
1334
1326
1318
1314
1318
1326
1327
1334
1334
1332
1326
1316
1314
1319
1324
1327
1331
1334
1331
1321
1326
1321
1314
1311
1309
1321
1326
1327
1329
1334
1331
1327
1318
1313
1311
1314
1321
1331
1327
1324
1321
1316
1313
1306
1308
1316
1324
1329
1331
1329
1321
1311
1303
1301
1303
1308
1318
1331
1326
1324
1318
1313
1308
1308
1308
1313
1314
1327
1324
1321
1318
1303
1308
1309
1314
1321
1321
1327
1327
1329
1324
1314
1311
1311
1308
1311
1318
1324
1324
1321
1318
1316
1316
1318
1321
1327
1337
1341
1337
1327
1318
1311
1311
1311
1311
1313
1322
1327
1319
1319
1311
1311
1314
1313
1324
1327
1327
1324
1321
1321
1313
1308
1308
1311
1314
1318
1324
1327
1326
1327
1318
1311
1308
1309
1313
1324
1327
1322
1321
1321
1318
1308
1304
1313
1319
1326
1331
1334
1331
1321
1308
1309
1311
1313
1318
1316
1331
1327
1331
1334
1341
1354
1373
1401
1432
1465
1488
1513
1537
1552
1563
1570
1577
1575
1563
1544
1511
1465
1416
1365
1318
1288
1282
1295
1314
1336
1334
1334
1331
1322
1318
1319
1324
1334
1347
1355
1354
1347
1327
1319
1321
1321
1316
1327
1337
1341
1337
1334
1331
1326
1327
1334
1341
1339
1339
1341
1341
1334
1324
1319
1321
1327
1331
1329
1337
1344
1341
1334
1332
1326
1324
1324
1331
1337
1344
1342
1341
1344
1337
1326
1331
1334
1337
1342
1360
1357
1352
1342
1339
1334
1337
1337
1342
1350
1360
1360
1355
1352
1347
1342
1350
1359
1360
1362
1363
1368
1367
1363
1354
1352
1354
1362
1360
1370
1377
1380
1378
1380
1375
1368
1368
1373
1380
1390
1390
1396
1403
1393
1386
1380
1380
1385
1390
1400
1406
1403
1395
1386
1385
1382
1388
1391
1403
1406
1409
1406
1396
1390
1380
1377
1377
1380
1380
1385
1383
1382
1377
1367
1360
1354
1354
1355
1357
1360
1355
1354
1350
1349
1344
1331
1327
1329
1334
1344
1339
1341
1339
1332
1324
1324
1324
1331
1337
1347
1347
1342
1337
1329
1322
1319
1321
1327
1334
1341
1341
1341
1337
1327
1331
1336
1337
1337
1341
1342
1344
1339
1331
1329
1326
1324
1318
1327
1336
1341
1341
1342
1341
1336
1324
1321
1321
1332
1341
1347
1347
1344
1337
1327
1326
1324
1324
1334
1345
1354
1350
1341
1332
1326
1318
1321
1326
1334
1341
1345
1345
1341
1331
1321
1324
1327
1331
1332
1337
1344
1341
1339
1332
1318
1318
1321
1331
1337
1347
1342
1341
1339
1332
1324
1321
1324
1327
1334
1339
1341
1341
1336
1327
1326
1326
1326
1329
1341
1347
1347
1341
1334
1327
1322
1319
1324
1332
1337
1341
1344
1341
1334
1324
1326
1331
1342
1339
1342
1344
1342
1344
1334
1331
1326
1321
1322
1331
1337
1341
1341
1341
1341
1332
1327
1321
1324
1327
1332
1337
1334
1332
1332
1327
1324
1319
1321
1326
1337
1337
1334
1334
1329
1324
1319
1321
1321
1324
1326
1337
1334
1326
1318
1308
1316
1321
1324
1327
1334
1331
1331
1327
1321
1314
1319
1324
1331
1331
1334
1337
1337
1331
1321
1314
1313
1314
1326
1337
1354
1363
1377
1396
1416
1442
1467
1498
1531
1563
1590
1598
1590
1577
1555
1532
1500
1465
1416
1372
1334
1308
1295
1303
1314
1326
1331
1326
1331
1332
1339
1337
1334
1331
1321
1319
1324
1327
1326
1331
1334
1337
1337
1331
1322
1316
1321
1324
1327
1331
1331
1331
1329
1324
1319
1314
1321
1329
1334
1344
1339
1339
1334
1324
1313
1321
1322
1327
1334
1344
1344
1334
1329
1324
1321
1324
1327
1337
1341
1341
1337
1337
1334
1324
1321
1321
1331
1334
1339
1341
1345
1350
1342
1339
1332
1331
1329
1337
1345
1350
1347
1345
1347
1341
1337
1337
1350
1354
1360
1363
1365
1360
1350
1345
1344
1349
1355
1367
1377
1380
1377
1373
1372
1370
1367
1370
1375
1380
1386
1386
1386
1386
1382
1377
1377
1383
1386
1390
1396
1398
1400
1391
1386
1383
1377
1373
1372
1382
1390
1380
1377
1375
1367
1362
1354
1354
1354
1359
1365
1363
1355
1344
1336
1331
1329
1331
1334
1341
1342
1341
1336
1331
1327
1326
1327
1331
1337
1336
1336
1332
1329
1324
1318
1314
1316
1321
1326
1331
1339
1339
1339
1331
1326
1322
1319
1318
1329
1334
1337
1334
1329
1324
1318
1316
1321
1327
1339
1345
1347
1341
1332
1324
1321
1319
1321
1327
1337
1344
1341
1339
1334
1324
1322
1331
1331
1332
1334
1334
1337
1334
1331
1321
1316
1321
1321
1324
1329
1341
1334
1331
1331
1321
1313
1318
1326
1334
1334
1327
1327
1329
1326
1318
1314
1318
1322
1331
1339
1337
1331
1324
1316
1316
1313
1318
1326
1334
1337
1334
1331
1327
1321
1314
1321
1324
1326
1326
1329
1332
1327
1318
1319
1318
1321
1318
1318
1331
1334
1337
1337
1337
1326
1314
1316
1318
1322
1331
1334
1337
1337
1334
1334
1327
1322
1318
1316
1314
1319
1327
1334
1334
1327
1326
1316
1314
1313
1314
1321
1327
1332
1331
1324
1314
1309
1308
1313
1318
1313
1322
1327
1326
1319
1308
1303
1303
1306
1308
1313
1321
1324
1326
1324
1318
1313
1308
1309
1316
1318
1321
1324
1326
1319
1311
1304
1303
1309
1311
1324
1329
1331
1322
1321
1314
1309
1309
1311
1319
1326
1324
1316
1314
1308
1301
1309
1319
1339
1354
1368
1395
1422
1449
1475
1495
1514
1537
1560
1573
1580
1573
1560
1531
1486
1432
1380
1331
1300
1291
1300
1311
1321
1321
1316
1318
1314
1318
1322
1334
1341
1334
1329
1321
1303
1304
1303
1309
1314
1314
1327
1331
1331
1324
1314
1314
1318
1318
1321
1326
1331
1331
1327
1321
1319
1314
1316
1324
1327
1336
1336
1337
1337
1336
1327
1322
1324
1327
1331
1339
1347
1344
1334
1329
1327
1326
1326
1329
1344
1349
1347
1345
1336
1327
1324
1324
1324
1332
1339
1342
1349
1344
1337
1329
1334
1341
1342
1341
1344
1349
1350
1347
1345
1337
1334
1334
1337
1344
1350
1352
1357
1355
1354
1347
1344
1347
1350
1355
1360
1365
1362
1363
1365
1370
1355
1355
1360
1372
1383
1383
1383
1380
1375
1368
1367
1372
1377
1380
1386
1393
1390
1382
1377
1370
1368
1375
1375
1373
1377
1373
1372
1363
1355
1347
1341
1344
1347
1350
1349
1350
1350
1347
1337
1331
1321
1313
1319
1327
1334
1336
1327
1331
1324
1318
1314
1311
1322
1334
1339
1334
1327
1321
1313
1311
1311
1314
1318
1331
1337
1336
1331
1324
1321
1318
1318
1318
1324
1331
1332
1331
1329
1321
1313
1311
1316
1322
1321
1324
1329
1332
1332
1329
1314
1316
1318
1318
1322
1324
1331
1324
1324
1319
1313
1311
1316
1324
1331
1334
1334
1331
1327
1314
1311
1313
1314
1318
1327
1334
1332
1327
1321
1318
1318
1318
1321
1326
1331
1332
1329
1327
1324
1318
1316
1314
1313
1318
1316
1327
1331
1337
1327
1318
1314
1311
1311
1321
1327
1329
1327
1324
1324
1313
1309
1311
1318
1324
1329
1334
1332
1324
1314
1309
1308
1309
1314
1322
1332
1331
1324
1324
1318
1311
1308
1311
1319
1321
1322
1326
1326
1321
1311
1298
1309
1318
1327
1331
1339
1334
1329
1327
1321
1314
1311
1309
1314
1324
1324
1327
1326
1319
1313
1306
1308
1309
1321
1329
1334
1331
1322
1314
1309
1309
1303
1308
1314
1324
1327
1322
1319
1313
1311
1314
1319
1313
1321
1321
1322
1321
1314
1311
1308
1308
1309
1309
1314
1321
1327
1324
1321
1318
1311
1309
1308
1311
1316
1318
1313
1309
1311
1311
1316
1327
1349
1367
1400
1432
1465
1488
1504
1519
1534
1552
1559
1563
1563
1552
1524
1485
1434
1383
1339
1301
1285
1288
1301
1314
1327
1326
1321
1311
1308
1309
1313
1314
1321
1324
1324
1321
1321
1314
1308
1303
1309
1314
1321
1324
1324
1324
1319
1311
1313
1311
1314
1322
1329
1334
1331
1318
1311
1308
1311
1311
1313
1326
1332
1331
1329
1321
1319
1311
1316
1324
1326
1327
1327
1331
1327
1319
1316
1314
1318
1316
1324
1331
1334
1334
1332
1334
1327
1318
1316
1318
1326
1327
1329
1331
1331
1331
1324
1319
1324
1327
1341
1347
1354
1344
1341
1339
1332
1324
1334
1342
1350
1355
1360
1355
1352
1347
1352
1359
1360
1360
1367
1373
1373
1367
1363
1360
1362
1362
1367
1377
1380
1385
1382
1382
1383
1370
1367
1370
1378
1380
1390
1391
1386
1380
1368
1363
1362
1360
1365
1380
1380
1373
1362
1354
1349
1337
1337
1339
1344
1347
1350
1347
1341
1334
1327
1324
1327
1324
1321
1324
1327
1327
1327
1321
1316
1311
1314
1319
1327
1331
1329
1331
1331
1324
1314
1311
1313
1314
1316
1324
1326
1321
1322
1316
1318
1309
1308
1321
1332
1339
1339
1334
1327
1321
1314
1313
1318
1324
1329
1336
1339
1337
1334
1326
1324
1324
1327
1327
1331
1337
1337
1331
1326
1321
1316
1313
1318
1324
1331
1336
1339
1341
1345
1344
1326
1321
1322
1321
1322
1334
1339
1334
1327
1321
1318
1314
1318
1324
1341
1344
1339
1331
1327
1321
1318
1321
1324
1326
1332
1341
1341
1329
1321
1318
1316
1319
1322
1326
1336
1334
1332
1324
1321
1318
1309
1311
1321
1326
1332
1334
1324
1331
1326
1321
1318
1311
1319
1324
1336
1339
1334
1324
1321
1316
1313
1314
1321
1334
1344
1341
1334
1327
1314
1311
1314
1321
1331
1334
1342
1344
1336
1331
1324
1324
1327
1331
1329
1331
1331
1331
1327
1324
1311
1309
1314
1321
1326
1321
1331
1331
1332
1324
1314
1311
1313
1316
1324
1331
1334
1327
1324
1321
1313
1303
1308
1318
1326
1331
1329
1327
1322
1314
1311
1309
1313
1318
1321
1334
1334
1327
1324
1319
1319
1314
1314
1327
1331
1331
1322
1311
1313
1309
1309
1321
1339
1355
1375
1403
1429
1459
1482
1504
1522
1539
1557
1568
1575
1570
1547
1513
1470
1416
1355
1314
1293
1295
1304
1314
1321
1321
1314
1311
1313
1314
1321
1329
1339
1334
1327
1318
1313
1304
1314
1318
1321
1326
1322
1331
1327
1324
1314
1308
1313
1318
1321
1326
1334
1334
1331
1326
1318
1314
1311
1311
1319
1327
1329
1332
1331
1331
1321
1318
1319
1324
1329
1336
1339
1337
1327
1321
1314
1318
1316
1313
1327
1337
1341
1337
1327
1327
1327
1327
1332
1337
1341
1344
1344
1344
1337
1326
1324
1331
1337
1341
1347
1354
1352
1355
1355
1354
1347
1339
1334
1337
1345
1360
1359
1360
1360
1355
1350
1341
1347
1354
1362
1373
1386
1386
1380
1375
1373
1367
1365
1367
1373
1382
1383
1383
1383
1383
1380
1377
1380
1383
1386
1390
1391
1390
1386
1383
1375
1368
1367
1370
1368
1377
1378
1373
1367
1357
1350
1344
1337
1339
1341
1341
1337
1336
1332
1327
1324
1318
1314
1321
1326
1334
1334
1324
1316
1311
1308
1304
1303
1311
1321
1326
1329
1324
1324
1318
1309
1311
1314
1314
1316
1321
1322
1324
1319
1311
1308
1308
1309
1318
1324
1327
1324
1326
1326
1319
1314
1311
1318
1321
1316
1326
1327
1324
1314
1303
1309
1314
1316
1326
1334
1337
1327
1322
1318
1309
1309
1309
1318
1319
1327
1326
1322
1321
1314
1311
1316
1318
1322
1324
1331
1327
1324
1318
1308
1303
1308
1314
1321
1324
1327
1327
1327
1327
1319
1311
1311
1311
1324
1327
1331
1327
1321
1318
1309
1311
1313
1318
1331
1337
1337
1331
1322
1318
1309
1306
1308
1318
1326
1327
1332
1327
1324
1313
1313
1318
1324
1326
1322
1324
1326
1322
1319
1314
1311
1309
1314
1321
1326
1321
1326
1331
1331
1318
1303
1308
1314
1321
1324
1327
1326
1324
1319
1311
1308
1308
1314
1324
1334
1332
1327
1324
1316
1309
1303
1306
1309
1318
1327
1331
1327
1319
1313
1308
1309
1313
1313
1318
1324
1327
1319
1308
1303
1301
1304
1308
1308
1321
1326
1326
1322
1313
1311
1308
1306
1308
1309
1314
1324
1324
1318
1308
1304
1303
1303
1311
1321
1331
1327
1321
1316
1311
1304
1304
1308
1309
1314
1318
1324
1331
1334
1341
1354
1377
1409
1439
1472
1501
1531
1549
1565
1577
1578
1580
1572
1557
1526
1483
1439
1382
1326
1288
1275
1285
1301
1313
1321
1324
1324
1319
1319
1314
1311
1309
1314
1321
1327
1327
1327
1324
1316
1303
1304
1308
1313
1318
1324
1327
1331
1324
1313
1318
1318
1318
1321
1321
1332
1331
1329
1324
1319
1311
1309
1314
1321
1326
1332
1334
1336
1331
1324
1318
1318
1314
1321
1331
1334
1331
1327
1321
1319
1311
1311
1319
1332
1341
1345
1341
1334
1326
1321
1318
1321
1324
1329
1341
1347
1350
1341
1337
1337
1337
1342
1341
1347
1350
1352
1354
1349
1345
1342
1347
1354
1355
1360
1367
1372
1370
1368
1367
1362
1360
1362
1370
1377
1380
1380
1382
1380
1377
1373
1377
1382
1391
1401
1403
1400
1393
1382
1383
1378
1380
1380
1385
1396
1393
1386
1377
1367
1360
1360
1359
1360
1357
1360
1357
1355
1350
1341
1334
1332
1334
1334
1334
1334
1334
1334
1332
1321
1314
1309
1309
1318
1324
1326
1322
1321
1318
1311
1308
1308
1309
1321
1331
1334
1327
1314
1314
1308
1309
1309
1309
1319
1331
1331
1324
1321
1318
1311
1311
1314
1321
1327
1327
1332
1324
1321
1311
1308
1311
1316
1322
1326
1327
1329
1327
1327
1319
1313
1309
1313
1321
1327
1327
1329
1327
1326
1316
1304
1314
1321
1327
1334
1344
1334
1326
1324
1319
1314
1314
1318
1327
1332
1334
1329
1324
1321
1318
1321
1324
1324
1327
1331
1331
1329
1326
1322
1314
1314
1314
1314
1319
1327
1334
1334
1331
1321
1313
1309
1308
1311
1321
1327
1331
1329
1319
1316
1311
1311
1313
1314
1326
1332
1334
1327
1318
1316
1313
1313
1314
1324
1331
1331
1324
1321
1318
1314
1311
1314
1314
1319
1321
1324
1324
1319
1314
1309
1311
1316
1321
1332
1334
1332
1331
1322
1318
1318
1313
1326
1327
1334
1334
1327
1329
1321
1318
1316
1318
1327
1334
1337
1332
1324
1318
1311
1308
1308
1314
1324
1331
1331
1327
1327
1321
1314
1314
1319
1321
1319
1324
1327
1324
1321
1314
1309
1309
1311
1318
1321
1321
1326
1327
1329
1321
1304
1303
1308
1318
1322
1324
1331
1324
1319
1311
1308
1311
1321
1337
1360
1383
1404
1422
1445
1470
1491
1514
1537
1563
1590
1606
1609
1596
1575
1539
1500
1459
1411
1360
1327
1311
1311
1311
1321
1319
1319
1316
1316
1327
1337
1341
1337
1337
1332
1324
1314
1314
1321
1324
1329
1341
1337
1334
1327
1319
1318
1314
1316
1329
1339
1344
1337
1334
1327
1318
1314
1318
1326
1331
1337
1341
1344
1337
1332
1327
1331
1331
1329
1331
1341
1341
1342
1336
1327
1318
1322
1327
1334
1337
1337
1337
1341
1341
1334
1327
1327
1331
1336
1337
1344
1347
1342
1344
1337
1331
1329
1334
1344
1354
1355
1355
1352
1352
1342
1339
1339
1344
1347
1354
1362
1367
1368
1360
1355
1354
1355
1367
1365
1370
1375
1375
1375
1375
1368
1363
1365
1373
1382
1383
1388
1395
1395
1393
1385
1380
1382
1390
1393
1400
1403
1403
1398
1398
1393
1382
1382
1385
1393
1396
1388
1377
1367
1362
1350
1347
1349
1347
1354
1362
1355
1350
1339
1337
1329
1336
1332
1331
1329
1334
1332
1327
1327
1324
1318
1318
1316
1321
1324
1331
1334
1331
1326
1318
1316
1318
1314
1318
1322
1327
1326
1329
1327
1321
1318
1316
1321
1327
1331
1331
1332
1321
1322
1314
1314
1318
1313
1324
1329
1339
1337
1331
1327
1322
1327
1324
1326
1334
1337
1337
1334
1334
1327
1319
1324
1327
1331
1331
1337
1341
1344
1334
1327
1319
1319
1321
1329
1336
1339
1334
1334
1331
1322
1308
1316
1324
1332
1337
1347
1344
1339
1331
1321
1318
1319
1318
1327
1334
1336
1334
1329
1327
1321
1318
1319
1322
1331
1331
1329
1331
1331
1321
1318
1318
1319
1324
1327
1334
1339
1332
1327
1322
1318
1314
1316
1322
1331
1331
1334
1331
1324
1324
1321
1324
1331
1337
1337
1344
1347
1350
1347
1334
1324
1313
1311
1311
1318
1321
1329
1336
1332
1327
1326
1322
1321
1318
1314
1318
1321
1324
1327
1331
1324
1318
1314
1313
1318
1318
1324
1331
1334
1334
1324
1324
1314
1311
1314
1316
1331
1331
1334
1329
1322
1318
1314
1318
1319
1327
1334
1334
1331
1319
1316
1314
1309
1308
1308
1318
1324
1327
1324
1321
1321
1314
1313
1318
1319
1324
1327
1329
1327
1318
1309
1303
1303
1311
1314
1319
1326
1321
1329
1327
1319
1311
1303
1313
1319
1324
1324
1327
1326
1318
1309
1303
1306
1311
1326
1341
1352
1355
1368
1382
1404
1429
1460
1495
1529
1552
1573
1586
1593
1583
1577
1557
1526
1482
1429
1386
1344
1309
1290
1288
1301
1309
1314
1318
1322
1331
1334
1337
1331
1321
1313
1309
1314
1318
1321
1321
1324
1324
1321
1311
1309
1309
1313
1321
1332
1331
1327
1324
1321
1318
1311
1303
1308
1318
1327
1331
1332
1331
1324
1318
1313
1309
1316
1321
1332
1334
1327
1327
1324
1321
1316
1318
1322
1331
1337
1341
1344
1339
1329
1324
1321
1327
1329
1334
1341
1344
1341
1334
1331
1327
1327
1336
1341
1350
1352
1347
1341
1337
1334
1329
1332
1337
1342
1350
1354
1354
1349
1344
1347
1344
1349
1350
1354
1365
1367
1365
1362
1360
1363
1360
1362
1367
1377
1382
1386
1390
1386
1378
1372
1373
1377
1378
1383
1391
1393
1391
1385
1377
1375
1373
1375
1380
1386
1386
1382
1377
1367
1355
1352
1352
1359
1354
1354
1354
1354
1350
1341
1332
1329
1331
1327
1334
1337
1337
1331
1324
1316
1314
1313
1313
1321
1324
1326
1327
1329
1324
1311
1301
1301
1303
1309
1316
1324
1326
1321
1319
1311
1308
1303
1308
1324
1332
1327
1326
1321
1318
1309
1298
1303
1308
1314
1319
1321
1324
1321
1314
1311
1309
1311
1311
1321
1324
1326
1322
1316
1311
1308
1304
1309
1309
1318
1321
1324
1324
1319
1311
1308
1308
1308
1311
1321
1324
1326
1318
1316
1314
1308
1308
1309
1311
1327
1327
1327
1324
1314
1311
1308
1309
1313
1318
1327
1331
1332
1319
1311
1309
1309
1311
1311
1313
1319
1321
1324
1321
1318
1304
1300
1301
1308
1311
1316
1324
1331
1326
1316
1308
1303
1301
1303
1313
1318
1313
1322
1322
1319
1308
1300
1308
1319
1327
1327
1324
1319
1311
1303
1303
1303
1301
1303
1311
1319
1318
1311
1308
1303
1303
1301
1304
1309
1314
1314
1318
1314
1309
1298
1298
1304
1303
1304
1311
1318
1321
1318
1308
1301
1300
1301
1308
1314
1324
1322
1324
1321
1308
1303
1298
1303
1311
1321
1324
1326
1324
1314
1308
1308
1308
1308
1308
1316
1321
1316
1314
1311
1311
1309
1308
1308
1309
1316
1318
1321
1321
1314
1308
1303
1304
1303
1308
1318
1324
1324
1326
1314
1308
1303
1298
1309
1314
1321
1321
1324
1324
1316
1308
1303
1309
1316
1324
1327
1327
1322
1313
1308
1309
1321
1334
1357
1386
1419
1449
1475
1498
1513
1534
1550
1565
1572
1562
1550
1524
1486
1436
1383
1331
1295
1277
1285
1295
1318
1324
1327
1321
1314
1309
1308
1311
1319
1324
1327
1321
1314
1308
1301
1306
1309
1318
1324
1326
1327
1321
1313
1308
1306
1308
1318
1326
1327
1326
1326
1324
1318
1314
1314
1314
1316
1324
1327
1331
1324
1311
1314
1311
1314
1313
1313
1326
1329
1331
1331
1324
1316
1309
1313
1318
1324
1326
1331
1334
1329
1324
1318
1314
1316
1321
1331
1334
1336
1331
1327
1324
1318
1318
1319
1327
1341
1341
1339
1337
1334
1334
1332
1331
1341
1344
1347
1354
1360
1352
1349
1347
1347
1350
1354
1362
1367
1372
1373
1370
1367
1360
1357
1355
1367
1377
1383
1386
1390
1386
1378
1375
1377
1377
1386
1400
1400
1393
1380
1375
1368
1367
1365
1357
1360
1365
1370
1365
1362
1355
1352
1345
1347
1342
1337
1334
1341
1337
1334
1326
1316
1314
1314
1318
1316
1321
1324
1324
1327
1319
1313
1309
1311
1314
1321
1324
1327
1331
1327
1318
1314
1311
1313
1318
1324
1334
1332
1331
1324
1321
1314
1308
1303
1318
1324
1331
1334
1339
1326
1318
1314
1318
1319
1318
1324
1331
1332
1331
1327
1324
1319
1309
1308
1313
1319
1327
1331
1337
1331
1318
1308
1304
1311
1318
1321
1327
1331
1331
1327
1321
1318
1311
1313
1321
1326
1334
1327
1326
1321
1311
1311
1309
1314
1318
1326
1331
1331
1331
1327
1319
1318
1314
1313
1318
1329
1331
1327
1321
1316
1311
1311
1313
1318
1321
1327
1332
1334
1332
1321
1313
1308
1308
1309
1314
1327
1331
1334
1327
1321
1318
1313
1306
1318
1327
1337
1336
1324
1327
1324
1318
1311
1311
1316
1321
1327
1331
1334
1327
1321
1321
1322
1319
1318
1318
1327
1329
1326
1319
1316
1313
1313
1314
1316
1318
1324
1327
1334
1326
1314
1309
1308
1314
1318
1318
1334
1339
1337
1331
1316
1313
1309
1316
1324
1331
1334
1334
1334
1331
1319
1308
1308
1309
1319
1327
1331
1329
1326
1321
1318
1313
1313
1308
1314
1324
1326
1326
1327
1324
1319
1311
1311
1318
1321
1326
1329
1327
1331
1321
1316
1309
1303
1311
1321
1331
1329
1324
1324
1321
1314
1309
1309
1321
1332
1337
1329
1322
1316
1308
1301
1301
1303
1313
1327
1350
1367
1380
1395
1422
1452
1482
1500
1524
1547
1570
1583
1586
1575
1549
1524
1498
1475
1445
1416
1377
1345
1321
1308
1301
1309
1311
1314
1311
1308
1314
1321
1326
1327
1327
1327
1318
1309
1304
1309
1313
1318
1324
1327
1326
1319
1311
1308
1306
1308
1308
1314
1327
1332
1331
1321
1314
1311
1311
1314
1321
1318
1324
1327
1327
1324
1308
1311
1314
1318
1318
1329
1336
1341
1337
1327
1313
1309
1309
1314
1326
1332
1337
1337
1334
1327
1318
1311
1314
1326
1334
1339
1341
1344
1334
1326
1321
1321
1321
1324
1334
1341
1344
1342
1341
1341
1337
1329
1327
1341
1344
1347
1350
1355
1347
1342
1341
1344
1350
1354
1360
1365
1370
1368
1370
1363
1355
1354
1359
1367
1377
1380
1380
1383
1383
1377
1368
1368
1375
1382
1391
1400
1396
1390
1382
1377
1373
1368
1367
1373
1386
1382
1378
1373
1367
1362
1354
1349
1344
1349
1350
1352
1350
1342
1334
1331
1327
1326
1322
1326
1332
1339
1341
1334
1326
1318
1309
1308
1318
1322
1327
1326
1331
1327
1318
1309
1309
1313
1318
1326
1334
1334
1321
1321
1314
1311
1308
1304
1318
1327
1334
1331
1327
1327
1321
1318
1318
1321
1321
1322
1331
1329
1324
1313
1308
1313
1314
1319
1324
1331
1334
1334
1331
1324
1318
1313
1311
1319
1322
1324
1331
1334
1334
1324
1311
1311
1316
1326
1331
1342
1334
1332
1326
1321
1311
1313
1311
1321
1327
1327
1327
1327
1329
1324
1321
1321
1319
1321
1324
1329
1332
1324
1321
1314
1314
1318
1318
1324
1327
1331
1331
1329
1327
1318
1314
1314
1318
1321
1324
1329
1331
1321
1321
1311
1311
1311
1309
1321
1331
1332
1324
1321
1319
1313
1308
1304
1311
1322
1329
1334
1329
1326
1318
1316
1314
1318
1318
1321
1326
1326
1324
1321
1318
1313
1309
1303
1313
1321
1327
1329
1329
1326
1314
1308
1311
1314
1318
1327
1339
1337
1331
1327
1319
1313
1318
1321
1329
1339
1337
1334
1326
1319
1311
1308
1308
1313
1321
1327
1331
1332
1327
1321
1314
1318
1311
1311
1318
1322
1329
1324
1318
1316
1311
1311
1314
1319
1324
1327
1334
1332
1321
1314
1308
1311
1311
1311
1321
1327
1331
1329
1324
1318
1314
1313
1313
1321
1331
1334
1332
1326
1319
1311
1303
1306
1314
1327
1344
1362
1383
1401
1422
1445
1468
1495
1521
1547
1560
1563
1557
1544
1518
1478
1439
1393
1352
1318
1298
1295
1311
1321
1318
1311
1308
1313
1318
1331
1337
1337
1332
1327
1324
1314
1309
1311
1324
1337
1339
1332
1327
1321
1313
1309
1309
1311
1321
1327
1334
1332
1327
1321
1318
1316
1318
1314
1318
1327
1329
1331
1326
1313
1314
1314
1321
1321
1319
1331
1334
1342
1334
1327
1327
1324
1324
1327
1336
1341
1341
1341
1337
1334
1327
1322
1327
1334
1342
1345
1347
1341
1334
1331
1326
1327
1331
1339
1344
1350
1350
1345
1337
1341
1341
1347
1339
1342
1350
1357
1363
1355
1354
1345
1345
1354
1355
1360
1367
1377
1383
1375
1367
1360
1360
1362
1370
1377
1383
1385
1386
1385
1377
1370
1368
1373
1382
1386
1386
1385
1382
1382
1373
1370
1367
1367
1368
1382
1378
1373
1362
1355
1357
1347
1344
1342
1347
1350
1344
1342
1337
1332
1324
1324
1326
1327
1331
1334
1341
1334
1331
1324
1318
1311
1311
1318
1327
1332
1331
1332
1331
1319
1309
1308
1309
1318
1324
1327
1331
1324
1318
1313
1313
1313
1308
1321
1327
1332
1327
1321
1327
1326
1326
1321
1318
1322
1327
1329
1331
1327
1324
1321
1319
1319
1318
1326
1336
1341
1337
1329
1318
1314
1311
1314
1321
1324
1326
1334
1331
1324
1313
1308
1313
1318
1324
1329
1341
1332
1324
1316
1309
1301
1308
1311
1322
1327
1327
1327
1327
1326
1318
1311
1318
1321
1324
1327
1327
1324
1318
1314
1314
1319
1318
1322
1331
1337
1337
1334
1332
1318
1309
1309
1318
1326
1327
1329
1334
1332
1324
1316
1314
1321
1324
1341
1337
1337
1334
1327
1314
1318
1314
1314
1322
1331
1334
1334
1332
1331
1324
1322
1318
1321
1324
1327
1331
1332
1329
1321
1314
1314
1313
1314
1321
1332
1334
1336
1331
1331
1326
1316
1318
1322
1327
1337
1339
1350
1344
1337
1331
1324
1314
1321
1326
1337
1339
1341
1332
1327
1326
1316
1314
1319
1327
1336
1337
1336
1331
1327
1324
1326
1324
1327
1327
1334
1337
1337
1327
1321
1318
1316
1321
1324
1331
1337
1342
1341
1337
1322
1318
1314
1321
1326
1327
1334
1341
1337
1331
1321
1318
1316
1321
1326
1331
1341
1341
1345
1350
1357
1367
1385
1414
1447
1482
1511
1536
1557
1565
1575
1577
1572
1547
1518
1485
1447
1403
1357
1318
1295
1288
1295
1308
1319
1331
1332
1341
1336
1331
1326
1321
1321
1327
1331
1331
1334
1337
1334
1327
1321
1318
1318
1322
1329
1341
1341
1334
1331
1326
1321
1313
1318
1324
1332
1337
1339
1337
1334
1327
1324
1319
1319
1318
1324
1332
1339
1337
1332
1321
1319
1318
1321
1327
1345
1347
1355
1354
1345
1331
1327
1326
1326
1331
1339
1345
1352
1352
1347
1341
1337
1332
1337
1347
1357
1355
1347
1347
1345
1337
1334
1339
1344
1350
1360
1363
1362
1359
1355
1352
1350
1352
1354
1362
1370
1373
1377
1365
1365
1363
1363
1372
1375
1382
1388
1396
1400
1390
1382
1377
1378
1383
1386
1396
1403
1406
1406
1404
1401
1396
1393
1396
1404
1413
1416
1413
1404
1403
1395
1386
1377
1368
1373
1375
1377
1377
1377
1373
1373
1360
1355
1354
1349
1354
1352
1355
1354
1352
1347
1337
1334
1332
1339
1342
1344
1344
1347
1350
1344
1329
1321
1319
1322
1327
1334
1337
1339
1337
1334
1331
1326
1324
1322
1332
1341
1344
1341
1341
1339
1331
1321
1324
1326
1327
1337
1350
1344
1341
1337
1336
1337
1331
1332
1337
1345
1345
1342
1341
1337
1334
1334
1334
1339
1341
1342
1350
1350
1347
1341
1337
1337
1334
1337
1342
1347
1350
1342
1337
1334
1331
1327
1326
1334
1344
1350
1345
1347
1347
1334
1327
1331
1327
1337
1341
1349
1345
1344
1342
1337
1341
1337
1331
1332
1337
1341
1341
1344
1341
1332
1329
1332
1334
1337
1344
1350
1354
1350
1341
1334
1334
1337
1336
1344
1344
1347
1345
1345
1337
1327
1318
1327
1331
1341
1342
1352
1347
1341
1334
1327
1327
1331
1331
1339
1345
1354
1347
1345
1341
1341
1339
1341
1344
1347
1347
1347
1347
1347
1337
1332
1334
1337
1341
1344
1350
1355
1355
1350
1341
1334
1331
1331
1331
1342
1347
1349
1347
1349
1334
1327
1326
1334
1350
1354
1352
1347
1344
1341
1331
1327
1327
1327
1334
1342
1347
1344
1341
1339
1334
1327
1331
1334
1341
1347
1344
1342
1341
1334
1331
1329
1331
1332
1337
1339
1339
1337
1339
1342
1350
1368
1382
1408
1444
1472
1501
1524
1545
1557
1560
1567
1570
1565
1552
1529
1486
1436
1373
1324
1298
1291
1298
1314
1337
1349
1347
1345
1342
1341
1337
1337
1339
1341
1341
1347
1345
1339
1331
1331
1332
1337
1336
1347
1345
1354
1354
1349
1347
1334
1331
1329
1334
1344
1347
1347
1349
1347
1339
1329
1331
1332
1339
1350
1357
1354
1349
1341
1334
1331
1327
1329
1332
1344
1350
1360
1354
1350
1344
1339
1339
1344
1344
1347
1354
1357
1350
1342
1337
1337
1344
1341
1344
1350
1357
1367
1362
1359
1350
1342
1347
1354
1360
1365
1367
1370
1373
1370
1360
1357
1360
1363
1370
1380
1383
1382
1380
1375
1370
1367
1367
1378
1390
1395
1400
1396
1395
1390
1390
1393
1396
1395
1403
1406
1408
1408
1406
1406
1396
1396
1395
1400
1409
1413
1413
1413
1404
1393
1377
1373
1370
1373
1377
1378
1380
1380
1373
1367
1360
1354
1350
1357
1363
1367
1360
1354
1345
1341
1332
1326
1331
1339
1345
1349
1350
1344
1337
1334
1331
1324
1331
1334
1344
1345
1341
1331
1319
1321
1321
1321
1326
1329
1341
1344
1344
1341
1334
1324
1321
1327
1327
1332
1337
1342
1342
1337
1331
1321
1318
1321
1329
1341
1347
1347
1339
1341
1334
1327
1324
1327
1331
1341
1337
1342
1341
1332
1324
1329
1331
1329
1331
1337
1342
1345
1341
1339
1332
1327
1327
1329
1334
1337
1344
1347
1344
1334
1324
1319
1319
1326
1331
1337
1337
1339
1334
1329
1324
1319
1316
1326
1337
1339
1337
1327
1331
1322
1314
1311
1311
1327
1334
1341
1339
1331
1329
1321
1318
1318
1316
1324
1327
1332
1331
1329
1322
1319
1318
1316
1319
1324
1327
1331
1334
1334
1327
1324
1314
1316
1318
1324
1334
1341
1341
1336
1331
1324
1321
1321
1331
1339
1344
1337
1331
1327
1318
1309
1313
1314
1319
1324
1327
1331
1327
1324
1324
1327
1324
1318
1321
1327
1331
1327
1324
1319
1311
1313
1313
1319
1324
1327
1336
1339
1334
1324
1314
1311
1311
1314
1319
1327
1334
1331
1321
1319
1311
1313
1314
1318
1329
1337
1337
1334
1324
1316
1308
1313
1324
1341
1360
1388
1408
1432
1459
1485
1509
1534
1563
1586
1601
1603
1596
1577
1547
1500
1449
1404
1355
1321
1301
1308
1321
1329
1329
1318
1308
1314
1318
1327
1339
1347
1337
1334
1327
1318
1311
1318
1331
1334
1334
1334
1327
1321
1314
1313
1314
1321
1327
1337
1337
1334
1331
1326
1324
1321
1321
1322
1327
1327
1327
1331
1324
1318
1311
1314
1321
1324
1329
1337
1344
1341
1337
1327
1324
1321
1319
1326
1327
1336
1334
1339
1334
1327
1324
1322
1331
1337
1349
1347
1347
1341
1337
1334
1331
1327
1331
1339
1350
1354
1347
1339
1341
1339
1337
1341
1344
1350
1354
1360
1360
1362
1357
1347
1350
1360
1357
1363
1373
1383
1391
1383
1377
1367
1363
1368
1377
1386
1391
1395
1400
1400
1393
1386
1385
1390
1396
1403
1406
1404
1395
1386
1378
1373
1370
1372
1377
1382
1380
1372
1360
1357
1354
1349
1345
1342
1342
1344
1344
1342
1337
1326
1311
1321
1324
1329
1327
1334
1337
1337
1334
1329
1318
1309
1308
1313
1314
1318
1319
1326
1331
1322
1314
1309
1309
1316
1321
1329
1331
1331
1324
1316
1313
1309
1309
1313
1321
1327
1327
1327
1326
1322
1318
1313
1304
1313
1318
1321
1324
1318
1318
1316
1314
1313
1309
1314
1324
1332
1334
1336
1327
1318
1309
1303
1308
1313
1318
1324
1326
1327
1326
1314
1309
1309
1314
1322
1327
1332
1327
1322
1313
1308
1301
1298
1303
1314
1318
1327
1324
1324
1318
1304
1309
1313
1314
1314
1321
1327
1324
1319
1311
1309
1308
1309
1309
1318
1324
1327
1326
1324
1319
1313
1309
1308
1311
1314
1321
1326
1327
1324
1318
1311
1309
1309
1313
1321
1324
1324
1318
1313
1308
1303
1301
1301
1311
1321
1324
1322
1318
1316
1313
1313
1314
1314
1318
1322
1331
1334
1334
1327
1324
1322
1321
1322
1321
1316
1318
1318
1324
1326
1332
1336
1327
1318
1301
1301
1303
1309
1316
1321
1324
1324
1316
1311
1303
1301
1308
1313
1324
1327
1316
1321
1314
1309
1301
1296
1303
1309
1313
1318
1318
1316
1314
1311
1311
1314
1313
1318
1324
1324
1324
1319
1318
1318
1311
1309
1313
1318
1324
1324
1324
1322
1318
1311
1318
1329
1350
1380
1409
1439
1472
1498
1519
1534
1552
1570
1583
1600
1600
1575
1537
1498
1445
1390
1337
1301
1290
1298
1311
1324
1329
1327
1324
1327
1326
1319
1318
1321
1326
1326
1318
1314
1311
1309
1308
1309
1314
1321
1324
1326
1326
1321
1313
1309
1300
1306
1308
1311
1318
1318
1324
1319
1314
1309
1306
1308
1313
1324
1331
1327
1329
1324
1318
1309
1308
1309
1314
1321
1329
1332
1324
1321
1316
1319
1321
1316
1321
1327
1331
1334
1334
1327
1319
1314
1318
1321
1318
1327
1334
1344
1344
1342
1326
1322
1324
1326
1329
1341
1344
1342
1344
1341
1332
1327
1329
1339
1350
1355
1355
1355
1350
1347
1344
1345
1347
1354
1360
1370
1377
1368
1367
1365
1363
1367
1365
1372
1380
1390
1390
1390
1388
1378
1377
1382
1377
1380
1386
1390
1393
1390
1380
1370
1360
1360
1355
1359
1360
1367
1368
1362
1355
1342
1329
1326
1327
1337
1341
1341
1334
1329
1321
1313
1311
1313
1313
1319
1326
1329
1327
1318
1314
1311
1309
1311
1309
1309
1319
1321
1321
1316
1308
1309
1311
1313
1314
1314
1324
1334
1339
1331
1318
1308
1301
1304
1303
1314
1319
1322
1321
1319
1313
1304
1304
1309
1321
1331
1329
1329
1326
1319
1309
1304
1301
1303
1309
1318
1324
1318
1321
1316
1313
1309
1301
1313
1314
1322
1324
1324
1324
1318
1311
1308
1309
1313
1314
1319
1327
1331
1322
1316
1311
1309
1308
1311
1318
1322
1324
1324
1321
1318
1308
1301
1308
1314
1321
1327
1331
1327
1319
1313
1309
1309
1311
1319
1319
1331
1327
1324
1324
1318
1321
1316
1314
1314
1319
1324
1331
1327
1318
1311
1309
1311
1311
1314
1324
1332
1332
1329
1324
1321
1311
1306
1304
1303
1311
1316
1318
1318
1311
1303
1303
1303
1308
1311
1322
1327
1321
1322
1319
1319
1311
1303
1314
1322
1331
1327
1321
1319
1314
1311
1308
1303
1308
1313
1311
1314
1311
1303
1298
1298
1301
1303
1303
1309
1321
1327
1331
1321
1314
1308
1298
1298
1303
1309
1311
1318
1318
1314
1304
1298
1295
1301
1301
1301
1308
1311
1309
1303
1295
1295
1295
1298
1306
1314
1324
1321
1318
1314
1308
1300
1298
1303
1309
1322
1344
1372
1393
1414
1441
1465
1493
1516
1544
1570
1586
1590
1590
1572
1539
1498
1452
1406
1360
1319
1298
1290
1308
1309
1308
1303
1298
1308
1318
1329
1332
1332
1321
1318
1308
1301
1295
1298
1303
1316
1318
1321
1318
1313
1309
1308
1309
1314
1318
1321
1322
1324
1318
1313
1311
1309
1309
1309
1318
1326
1327
1334
1334
1324
1321
1314
1314
1319
1318
1327
1331
1331
1324
1316
1314
1313
1314
1321
1334
1339
1337
1332
1324
1324
1318
1318
1318
1321
1332
1339
1342
1339
1334
1327
1324
1331
1331
1334
1344
1347
1350
1347
1344
1339
1337
1332
1332
1334
1344
1350
1362
1360
1359
1350
1344
1349
1350
1354
1355
1362
1370
1373
1368
1365
1360
1360
1359
1367
1377
1382
1385
1383
1380
1377
1372
1370
1377
1386
1390
1396
1393
1393
1385
1378
1377
1368
1368
1363
1367
1368
1370
1360
1360
1347
1344
1341
1344
1347
1344
1344
1350
1347
1337
1319
1309
1308
1311
1316
1319
1324
1324
1321
1311
1308
1303
1303
1308
1321
1327
1326
1324
1321
1314
1304
1298
1300
1308
1318
1319
1321
1321
1313
1311
1309
1303
1309
1311
1322
1326
1318
1314
1309
1303
1300
1293
1295
1298
1304
1309
1311
1309
1301
1295
1290
1290
1291
1300
1303
1308
1311
1311
1311
1308
1306
1309
1316
1324
1331
1327
1324
1319
1311
1303
1303
1308
1311
1314
1321
1319
1318
1309
1303
1308
1303
1300
1298
1298
1303
1308
1308
1301
1296
1290
1295
1301
1306
1311
1319
1326
1326
1314
1303
1298
1298
1298
1301
1308
1313
1314
1314
1309
1308
1301
1303
1308
1313
1318
1316
1318
1313
1303
1295
1295
1295
1303
1313
1321
1327
1318
1321
1318
1314
1309
1309
1318
1324
1327
1324
1321
1321
1314
1309
1309
1318
1322
1327
1336
1339
1337
1334
1327
1319
1309
1311
1311
1319
1327
1329
1331
1326
1318
1308
1303
1313
1324
1324
1327
1326
1324
1318
1304
1304
1300
1303
1309
1313
1324
1321
1316
1313
1309
1308
1308
1311
1314
1319
1322
1321
1318
1314
1309
1306
1303
1308
1311
1318
1324
1329
1327
1322
1322
1313
1308
1309
1313
1316
1318
1311
1311
1309
1309
1314
1324
1354
1380
1413
1444
1478
1498
1518
1544
1565
1578
1591
1598
1591
1565
1531
1486
1441
1383
1334
1301
1288
1296
1309
1321
1327
1324
1318
1309
1309
1311
1311
1314
1321
1327
1327
1321
1313
1308
1304
1303
1306
1308
1322
1324
1326
1321
1309
1308
1308
1314
1321
1324
1327
1327
1321
1311
1309
1308
1303
1308
1314
1324
1327
1331
1327
1324
1324
1318
1318
1321
1322
1326
1327
1331
1327
1321
1314
1311
1314
1314
1314
1324
1332
1337
1337
1334
1332
1321
1311
1316
1324
1334
1334
1344
1341
1337
1331
1324
1324
1327
1336
1344
1354
1355
1350
1347
1345
1341
1334
1334
1334
1347
1354
1355
1354
1352
1349
1347
1349
1347
1345
1344
1347
1354
1363
1367
1367
1360
1355
1360
1367
1362
1368
1380
1386
1398
1393
1386
1378
1373
1373
1377
1382
1390
1393
1395
1396
1390
1380
1372
1367
1363
1367
1377
1378
1373
1367
1360
1350
1342
1337
1337
1345
1350
1350
1345
1344
1337
1329
1324
1327
1326
1321
1327
1334
1337
1334
1318
1318
1318
1321
1318
1319
1327
1334
1334
1332
1331
1327
1316
1318
1321
1327
1329
1334
1337
1334
1326
1313
1308
1313
1318
1327
1336
1339
1334
1327
1327
1322
1318
1316
1318
1324
1331
1332
1331
1329
1324
1321
1311
1321
1321
1322
1327
1326
1332
1326
1324
1319
1313
1314
1314
1321
1324
1327
1331
1329
1327
1321
1311
1309
1311
1319
1321
1327
1329
1331
1326
1316
1316
1311
1311
1316
1324
1327
1321
1316
1318
1309
1303
1301
1304
1318
1324
1326
1321
1314
1314
1309
1309
1309
1308
1309
1318
1326
1324
1316
1314
1308
1304
1298
1304
1308
1318
1324
1327
1327
1314
1301
1295
1295
1301
1303
1314
1324
1327
1327
1321
1314
1309
1309
1321
1334
1337
1334
1331
1327
1321
1308
1311
1313
1321
1327
1327
1334
1331
1326
1319
1319
1318
1314
1311
1318
1324
1327
1324
1319
1314
1311
1309
1308
1309
1313
1321
1326
1331
1327
1318
1311
1303
1308
1309
1314
1318
1321
1321
1321
1318
1314
1304
1301
1314
1327
1331
1326
1318
1321
1313
1308
1304
1306
1316
1321
1327
1327
1321
1313
1309
1308
1308
1313
1321
1337
1357
1377
1396
1426
1452
1478
1503
1526
1550
1570
1586
1596
1596
1570
1527
1486
1442
1396
1350
1309
1301
1304
1308
1316
1313
1318
1309
1314
1321
1326
1331
1331
1331
1324
1314
1308
1308
1313
1318
1327
1334
1332
1327
1322
1319
1313
1311
1311
1318
1324
1331
1334
1334
1326
1321
1314
1314
1319
1321
1327
1332
1339
1337
1329
1324
1318
1311
1316
1318
1331
1337
1347
1341
1337
1331
1321
1318
1326
1334
1337
1339
1341
1334
1327
1319
1319
1324
1327
1331
1339
1349
1347
1344
1341
1341
1339
1334
1334
1337
1344
1345
1347
1349
1342
1341
1337
1344
1347
1357
1354
1360
1367
1367
1365
1352
1347
1347
1350
1360
1370
1377
1378
1380
1380
1367
1360
1362
1367
1373
1383
1386
1393
1390
1383
1377
1373
1377
1383
1390
1400
1404
1398
1393
1391
1380
1370
1360
1360
1363
1367
1363
1367
1367
1362
1354
1350
1341
1339
1339
1342
1354
1354
1344
1334
1324
1314
1311
1314
1324
1332
1332
1334
1331
1331
1318
1314
1314
1319
1326
1327
1331
1327
1321
1314
1308
1303
1304
1309
1321
1327
1331
1326
1319
1319
1314
1309
1303
1301
1311
1316
1324
1327
1318
1314
1308
1308
1308
1306
1309
1318
1324
1324
1321
1319
1311
1309
1308
1313
1314
1321
1327
1332
1331
1324
1313
1309
1309
1311
1318
1324
1327
1327
1324
1319
1314
1314
1314
1322
1324
1327
1332
1331
1331
1324
1314
1318
1318
1319
1318
1319
1327
1329
1326
1319
1311
1311
1313
1314
1318
1327
1331
1332
1331
1324
1318
1306
1303
1309
1313
1321
1324
1324
1324
1318
1311
1308
1309
1314
1319
1327
1327
1324
1318
1314
1313
1306
1300
1309
1318
1321
1319
1313
1318
1311
1309
1308
1308
1311
1314
1324
1329
1327
1324
1324
1324
1318
1311
1311
1318
1324
1327
1327
1326
1319
1313
1308
1308
1309
1311
1316
1321
1326
1321
1311
1308
1303
1308
1311
1311
1321
1318
1309
1301
1295
1298
1298
1303
1313
1318
1324
1324
1324
1318
1311
1311
1308
1303
1301
1308
1318
1321
1318
1308
1303
1301
1301
1303
1308
1314
1321
1326
1326
1318
1308
1298
1295
1296
1296
1303
1314
1324
1342
1354
1365
1390
1424
1455
1491
1524
1549
1562
1565
1560
1545
1519
1495
1468
1434
1390
1347
1309
1290
1288
1295
1301
1309
1311
1314
1319
1324
1324
1321
1318
1311
1308
1309
1309
1311
1314
1319
1324
1321
1311
1303
1298
1303
1304
1303
1318
1324
1326
1319
1309
1308
1306
1309
1318
1324
1327
1324
1321
1316
1311
1303
1303
1311
1321
1329
1331
1334
1332
1327
1326
1321
1314
1318
1324
1329
1329
1326
1324
1316
1314
1311
1314
1318
1327
1334
1337
1342
1331
1324
1321
1322
1318
1329
1331
1341
1344
1344
1337
1331
1326
1326
1331
1341
1345
1349
1350
1347
1341
1339
1337
1342
1347
1357
1362
1367
1365
1359
1354
1355
1352
1354
1355
1367
1373
1378
1380
1377
1372
1360
1355
1355
1362
1370
1380
1382
1386
1380
1370
1362
1357
1357
1357
1365
1375
1373
1370
1362
1350
1344
1337
1342
1350
1352
1350
1345
1341
1336
1324
1316
1318
1321
1321
1327
1332
1332
1327
1324
1321
1321
1314
1314
1321
1326
1331
1329
1321
1324
1313
1308
1301
1296
1308
1311
1318
1319
1314
1314
1308
1308
1303
1301
1308
1318
1321
1321
1318
1314
1303
1304
1303
1309
1318
1321
1326
1327
1326
1316
1311
1308
1309
1313
1318
1326
1329
1324
1321
1318
1311
1313
1308
1308
1308
1309
1321
1318
1321
1319
1314
1314
1314
1316
1318
1321
1331
1334
1324
1313
1303
1301
1300
1306
1311
1324
1326
1327
1324
1316
1311
1304
1308
1313
1318
1326
1331
1336
1329
1321
1311
1306
1301
1301
1303
1314
1319
1319
1324
1324
1326
1319
1309
1308
1309
1314
1318
1316
1321
1324
1321
1314
1309
1309
1311
1313
1314
1321
1327
1327
1324
1318
1309
1303
1303
1308
1314
1324
1327
1331
1331
1322
1316
1314
1319
1331
1336
1334
1334
1324
1322
1313
1311
1308
1304
1311
1321
1326
1326
1321
1324
1318
1313
1309
1308
1316
1318
1326
1329
1329
1324
1319
1314
1314
1314
1316
1321
1329
1337
1334
1331
1334
1319
1313
1309
1314
1324
1331
1332
1336
1332
1321
1318
1314
1321
1321
1324
1337
1341
1334
1327
1314
1314
1311
1309
1314
1331
1347
1355
1367
1382
1403
1426
1452
1478
1501
1524
1550
1570
1583
1577
1565
1544
1514
1475
1441
1400
1363
1334
1316
1313
1318
1314
1311
1314
1324
1331
1341
1350
1347
1344
1334
1324
1313
1321
1327
1334
1334
1337
1334
1327
1326
1321
1316
1318
1327
1334
1337
1337
1337
1339
1334
1327
1324
1327
1327
1326
1331
1337
1339
1331
1324
1321
1322
1321
1326
1334
1342
1344
1347
1347
1339
1331
1326
1324
1324
1336
1334
1341
1342
1344
1332
1327
1329
1334
1341
1347
1354
1349
1344
1341
1341
1334
1332
1334
1341
1347
1354
1355
1355
1354
1352
1350
1349
1347
1347
1350
1360
1367
1363
1362
1360
1359
1354
1354
1355
1365
1383
1386
1390
1380
1370
1367
1363
1370
1375
1377
1385
1386
1386
1380
1378
1378
1378
1380
1386
1396
1396
1393
1390
1382
1377
1370
1367
1373
1383
1386
1386
1382
1378
1370
1360
1355
1354
1350
1350
1354
1357
1355
1354
1341
1334
1331
1329
1324
1332
1337
1341
1347
1345
1331
1321
1318
1319
1321
1324
1332
1341
1341
1334
1327
1321
1318
1321
1331
1334
1337
1339
1337
1332
1327
1319
1318
1319
1324
1327
1331
1332
1331
1332
1327
1324
1324
1319
1321
1326
1337
1337
1331
1329
1324
1318
1318
1319
1324
1327
1331
1339
1337
1332
1322
1314
1313
1316
1321
1327
1332
1337
1332
1331
1324
1321
1318
1322
1334
1337
1336
1336
1331
1327
1316
1311
1308
1314
1321
1327
1334
1334
1326
1327
1326
1326
1318
1313
1321
1327
1334
1331
1324
1324
1321
1318
1314
1314
1322
1327
1339
1337
1334
1324
1314
1313
1314
1318
1321
1329
1336
1331
1324
1316
1313
1318
1324
1337
1341
1339
1337
1336
1332
1327
1314
1321
1326
1334
1337
1347
1344
1341
1337
1332
1331
1331
1324
1321
1324
1326
1329
1326
1324
1321
1318
1316
1318
1321
1321
1326
1331
1326
1321
1316
1313
1313
1318
1319
1321
1331
1334
1337
1331
1319
1311
1309
1316
1321
1324
1329
1327
1321
1321
1314
1314
1311
1309
1316
1327
1331
1327
1324
1324
1326
1324
1316
1311
1314
1314
1314
1313
1318
1318
1321
1326
1337
1355
1382
1418
1459
1488
1506
1518
1529
1541
1547
1547
1544
1524
1500
1465
1422
1370
1313
1288
1277
1290
1303
1313
1324
1324
1321
1313
1308
1309
1311
1319
1326
1327
1327
1319
1319
1314
1311
1304
1303
1309
1314
1321
1321
1321
1316
1313
1311
1308
1308
1308
1313
1327
1334
1331
1322
1318
1314
1314
1311
1321
1329
1337
1337
1341
1327
1321
1319
1318
1321
1327
1332
1337
1334
1326
1321
1318
1321
1319
1321
1327
1332
1337
1334
1334
1334
1332
1326
1321
1324
1326
1331
1337
1342
1342
1337
1334
1329
1331
1332
1337
1347
1355
1357
1350
1342
1342
1334
1332
1342
1354
1363
1367
1368
1363
1355
1347
1347
1352
1355
1362
1368
1373
1378
1377
1373
1370
1372
1377
1385
1393
1393
1390
1390
1390
1383
1370
1363
1362
1365
1368
1368
1370
1367
1360
1352
1345
1344
1347
1342
1349
1354
1357
1354
1342
1332
1321
1311
1314
1322
1331
1334
1337
1334
1327
1316
1318
1319
1327
1329
1331
1332
1326
1316
1314
1311
1306
1303
1308
1318
1324
1331
1331
1331
1324
1316
1313
1311
1313
1314
1321
1327
1324
1321
1316
1308
1311
1309
1314
1321
1326
1337
1334
1334
1327
1316
1316
1318
1324
1324
1329
1334
1336
1329
1321
1318
1318
1316
1319
1324
1332
1334
1332
1331
1326
1322
1318
1319
1327
1329
1337
1339
1337
1336
1327
1326
1321
1316
1318
1321
1324
1332
1339
1331
1327
1322
1321
1318
1324
1329
1341
1344
1341
1334
1321
1313
1309
1313
1318
1321
1331
1334
1334
1331
1324
1316
1318
1321
1327
1329
1326
1321
1319
1316
1314
1308
1314
1327
1336
1341
1334
1337
1336
1331
1324
1329
1331
1334
1337
1345
1347
1341
1337
1336
1331
1327
1324
1327
1334
1337
1344
1344
1337
1327
1321
1318
1324
1327
1327
1334
1331
1326
1319
1316
1314
1318
1326
1334
1337
1334
1327
1329
1327
1321
1321
1324
1324
1334
1337
1339
1339
1341
1334
1334
1334
1327
1324
1329
1337
1341
1334
1327
1324
1321
1319
1321
1321
1326
1332
1347
1350
1344
1344
1350
1368
1395
1422
1462
1495
1522
1545
1560
1567
1567
1567
1560
1539
1513
1482
1439
1393
1344
1304
1285
1295
1309
1327
1336
1341
1337
1331
1329
1326
1326
1327
1329
1334
1339
1337
1336
1327
1327
1324
1321
1322
1327
1327
1334
1339
1344
1344
1329
1327
1332
1337
1342
1350
1359
1355
1355
1350
1344
1334
1337
1349
1360
1355
1355
1355
1355
1350
1342
1337
1344
1349
1354
1355
1359
1360
1355
1362
1365
1360
1354
1350
1352
1355
1360
1355
1355
1350
1344
1344
1344
1345
1354
1355
1360
1360
1355
1354
1352
1347
1347
1344
1345
1350
1360
1355
1352
1344
1342
1357
1357
1362
1368
1373
1370
1367
1367
1360
1357
1362
1368
1373
1380
1383
1380
1377
1375
1377
1377
1375
1373
1377
1385
1390
1393
1393
1390
1386
1380
1380
1382
1382
1380
1380
1390
1398
1396
1378
1367
1355
1354
1355
1350
1354
1355
1357
1354
1347
1341
1331
1334
1341
1345
1345
1342
1344
1339
1331
1327
1324
1321
1322
1324
1329
1334
1334
1334
1331
1331
1327
1322
1319
1322
1326
1329
1329
1331
1321
1316
1314
1314
1318
1321
1322
1337
1341
1334
1331
1321
1319
1318
1322
1326
1331
1337
1337
1334
1326
1314
1309
1318
1331
1341
1345
1350
1347
1342
1337
1332
1327
1326
1327
1334
1341
1341
1337
1337
1341
1337
1331
1327
1324
1329
1334
1341
1347
1336
1332
1327
1324
1316
1324
1331
1339
1349
1350
1337
1331
1327
1319
1321
1324
1334
1341
1345
1344
1341
1331
1324
1319
1329
1332
1336
1341
1342
1341
1334
1331
1321
1318
1319
1324
1331
1339
1341
1337
1339
1331
1331
1324
1329
1334
1345
1344
1350
1347
1345
1337
1334
1332
1332
1327
1329
1344
1350
1350
1342
1334
1324
1319
1322
1331
1332
1337
1341
1344
1337
1331
1321
1322
1327
1331
1334
1337
1341
1337
1329
1329
1326
1324
1324
1327
1334
1332
1327
1334
1334
1334
1329
1319
1327
1326
1332
1334
1339
1334
1329
1327
1322
1321
1321
1324
1332
1337
1337
1331
1326
1319
1318
1324
1339
1355
1377
1406
1442
1473
1495
1519
1544
1570
1590
1600
1616
1613
1591
1552
1519
1472
1419
1363
1327
1303
1313
1322
1332
1341
1342
1337
1332
1326
1327
1327
1332
1337
1341
1337
1332
1327
1324
1318
1319
1326
1332
1341
1342
1341
1337
1331
1326
1318
1324
1334
1341
1347
1350
1344
1336
1326
1327
1329
1339
1344
1347
1354
1344
1339
1339
1332
1319
1324
1327
1334
1341
1350
1352
1350
1347
1342
1341
1337
1334
1334
1341
1347
1352
1345
1342
1341
1337
1334
1341
1347
1354
1360
1363
1360
1350
1344
1341
1345
1349
1355
1362
1368
1370
1370
1355
1352
1352
1354
1367
1368
1377
1373
1373
1372
1365
1359
1355
1362
1370
1377
1380
1383
1383
1380
1378
1375
1375
1377
1380
1386
1396
1401
1395
1396
1391
1383
1382
1382
1390
1396
1400
1403
1396
1382
1368
1363
1359
1360
1363
1365
1373
1370
1363
1355
1347
1344
1337
1347
1352
1350
1347
1341
1334
