-144
-145
-145
-145
-144
-144
-143
-144
-144
-144
-142
-143
-144
-141
-142
-142
-141
-139
-141
-139
-141
-140
-140
-141
-140
-141
-141
-141
-141
-139
-136
-132
-131
-129
-129
-128
-129
-129
-128
-126
-125
-127
-127
-127
-127
-129
-130
-134
-138
-138
-139
-138
-139
-140
-142
-145
-147
-147
-148
-148
-150
-150
-150
-150
-151
-152
-152
-151
-149
-151
-150
-147
-146
-160
-182
-196
-200
-189
-173
-160
-159
-173
-207
-236
-252
-245
-213
-191
-181
-176
-165
-152
-143
-139
-139
-139
-139
-139
-138
-136
-136
-137
-135
-136
-135
-135
-134
-133
-132
-132
-132
-131
-131
-130
-129
-128
-129
-129
-129
-130
-129
-129
-128
-127
-129
-130
-130
-127
-128
-128
-127
-124
-127
-126
-125
-127
-125
-124
-123
-124
-123
-121
-120
-118
-118
-117
-115
-113
-111
-109
-106
-105
-103
-102
-100
-98
-98
-98
-98
-98
-99
-102
-105
-109
-113
-117
-122
-124
-127
-128
-131
-134
-136
-137
-137
-138
-139
-139
-139
-140
-141
-141
-140
-141
-141
-143
-140
-142
-144
-144
-144
-144
-142
-143
-145
-144
-145
-145
-142
-145
-146
-144
-143
-143
-144
-144
-144
-145
-145
-144
-143
-143
-143
-144
-144
-146
-146
-147
-146
-146
-145
-145
-144
-145
-146
-146
-145
-145
-145
-143
-146
-146
-146
-146
-147
-146
-146
-145
-148
-146
-146
-143
-143
-144
-144
-146
-146
-146
-147
-146
-145
-145
-145
-144
-147
-147
-146
-146
-146
-145
-145
-144
-144
-143
-142
-145
-146
-145
-144
-145
-145
-143
-145
-144
-144
-144
-144
-144
-145
-145
-144
-145
-144
-143
-139
-137
-133
-131
-131
-131
-133
-131
-129
-127
-125
-123
-121
-125
-124
-124
-127
-130
-133
-137
-137
-136
-138
-141
-142
-145
-146
-146
-148
-148
-150
-153
-153
-154
-155
-154
-154
-154
-155
-156
-156
-156
-153
-150
-159
-181
-198
-200
-195
-182
-172
-163
-164
-176
-196
-211
-224
-222
-207
-195
-189
-184
-174
-158
-153
-149
-148
-145
-147
-145
-143
-144
-144
-143
-144
-145
-143
-143
-140
-141
-139
-140
-139
-139
-139
-139
-140
-139
-139
-139
-139
-139
-139
-139
-137
-138
-138
-138
-139
-138
-137
-137
-136
-136
-136
-136
-134
-134
-131
-133
-133
-133
-132
-134
-132
-131
-128
-125
-123
-123
-122
-121
-117
-117
-116
-113
-113
-109
-108
-107
-105
-104
-104
-104
-107
-108
-112
-113
-117
-120
-122
-123
-126
-129
-131
-132
-136
-137
-138
-139
-141
-141
-139
-140
-140
-140
-142
-141
-143
-143
-143
-142
-144
-143
-143
-143
-144
-145
-144
-144
-146
-145
-146
-144
-146
-146
-146
-146
-148
-147
-147
-148
-146
-145
-146
-146
-146
-146
-146
-146
-145
-145
-146
-145
-146
-146
-145
-145
-145
-144
-147
-145
-143
-144
-145
-144
-144
-144
-143
-143
-143
-143
-142
-141
-141
-140
-140
-139
-140
-139
-139
-139
-139
-139
-138
-139
-139
-138
-137
-139
-138
-138
-135
-137
-136
-138
-138
-136
-137
-137
-136
-137
-135
-136
-135
-136
-136
-135
-135
-135
-133
-131
-129
-126
-121
-120
-120
-121
-122
-118
-115
-113
-111
-111
-109
-106
-105
-106
-109
-113
-120
-126
-125
-124
-127
-129
-131
-132
-134
-136
-137
-138
-139
-136
-139
-140
-141
-139
-141
-141
-142
-142
-139
-140
-139
-139
-153
-175
-189
-191
-181
-166
-155
-154
-166
-195
-220
-237
-234
-209
-186
-179
-174
-165
-153
-143
-139
-139
-138
-138
-138
-136
-136
-137
-137
-136
-136
-133
-134
-134
-133
-133
-133
-132
-131
-131
-131
-131
-128
-129
-128
-128
-126
-127
-127
-127
-127
-127
-127
-126
-127
-126
-125
-124
-124
-123
-122
-122
-122
-122
-121
-120
-119
-118
-116
-116
-115
-113
-112
-110
-109
-106
-105
-105
-102
-99
-99
-98
-96
-94
-94
-95
-95
-96
-97
-99
-104
-105
-109
-113
-115
-120
-123
-123
-127
-129
-131
-131
-134
-135
-136
-135
-136
-137
-138
-139
-138
-138
-138
-139
-138
-139
-139
-139
-138
-138
-138
-138
-138
-138
-138
-138
-138
-139
-138
-139
-139
-139
-138
-139
-139
-139
-139
-139
-139
-139
-139
-139
-139
-139
-139
-139
-139
-137
-139
-139
-139
-139
-138
-138
-137
-138
-136
-139
-137
-136
-135
-138
-136
-137
-138
-138
-138
-138
-136
-135
-136
-138
-136
-137
-137
-138
-138
-138
-135
-136
-137
-136
-135
-135
-135
-136
-136
-136
-135
-137
-137
-138
-137
-137
-137
-137
-135
-136
-137
-136
-136
-137
-137
-136
-137
-136
-139
-136
-138
-136
-131
-124
-124
-121
-120
-118
-122
-120
-118
-118
-115
-115
-115
-117
-114
-116
-119
-120
-129
-134
-131
-131
-133
-137
-139
-140
-142
-142
-143
-143
-144
-145
-146
-147
-147
-146
-146
-148
-148
-148
-148
-147
-146
-145
-153
-174
-192
-198
-194
-180
-165
-158
-165
-186
-226
-248
-258
-238
-207
-188
-180
-177
-164
-150
-145
-141
-139
-139
-141
-138
-138
-138
-135
-137
-137
-137
-136
-136
-135
-135
-135
-135
-134
-133
-131
-132
-131
-131
-131
-131
-130
-130
-130
-130
-129
-129
-130
-130
-130
-128
-129
-130
-130
-129
-126
-125
-126
-124
-123
-123
-124
-123
-123
-122
-121
-118
-121
-120
-117
-117
-113
-113
-111
-109
-106
-105
-105
-102
-99
-98
-97
-96
-96
-98
-99
-102
-105
-109
-113
-116
-120
-121
-125
-129
-130
-131
-134
-136
-137
-138
-140
-141
-143
-143
-143
-143
-143
-143
-143
-142
-142
-143
-143
-145
-144
-144
-144
-146
-146
-146
-142
-146
-146
-147
-148
-146
-145
-146
-148
-146
-146
-146
-147
-146
-144
-146
-146
-148
-147
-147
-146
-146
-145
-145
-146
-148
-148
-148
-148
-148
-148
-149
-149
-150
-148
-148
-147
-148
-148
-147
-146
-146
-148
-146
-146
-144
-144
-143
-146
-147
-146
-145
-148
-148
-148
-145
-146
-147
-146
-146
-147
-147
-146
-146
-146
-146
-146
-146
-146
-145
-146
-146
-146
-146
-146
-146
-148
-147
-148
-148
-148
-148
-150
-150
-147
-144
-141
-139
-135
-134
-134
-134
-133
-133
-131
-129
-125
-122
-123
-122
-122
-122
-125
-130
-134
-139
-137
-140
-143
-146
-145
-148
-149
-149
-149
-152
-155
-156
-156
-154
-154
-156
-157
-157
-157
-157
-157
-155
-154
-157
-174
-195
-202
-200
-191
-180
-170
-167
-174
-193
-211
-223
-229
-217
-201
-193
-189
-180
-165
-156
-151
-150
-149
-148
-149
-149
-148
-147
-147
-148
-148
-144
-145
-143
-141
-141
-143
-143
-144
-145
-143
-143
-141
-140
-140
-138
-139
-139
-139
-137
-138
-137
-137
-138
-139
-139
-139
-139
-138
-136
-137
-136
-136
-134
-134
-134
-134
-131
-131
-131
-130
-128
-127
-125
-124
-123
-122
-120
-118
-115
-114
-111
-109
-109
-108
-105
-104
-105
-106
-110
-112
-113
-118
-121
-125
-127
-130
-131
-136
-136
-137
-139
-143
-143
-144
-146
-146
-146
-146
-146
-146
-145
-146
-146
-146
-145
-146
-146
-146
-147
-148
-148
-146
-146
-146
-148
-147
-148
-148
-148
-147
-148
-147
-148
-148
-148
-146
-146
-148
-148
-149
-148
-148
-148
-149
-145
-147
-148
-148
-149
-149
-148
-148
-148
-148
-148
-146
-148
-148
-148
-148
-147
-147
-147
-146
-147
-148
-146
-146
-147
-146
-146
-146
-146
-146
-145
-146
-144
-144
-144
-144
-143
-144
-145
-144
-144
-144
-143
-143
-144
-143
-145
-144
-144
-143
-142
-143
-144
-144
-143
-141
-144
-143
-144
-142
-143
-140
-138
-136
-132
-130
-129
-129
-128
-127
-124
-121
-120
-116
-115
-118
-115
-113
-114
-120
-125
-131
-132
-131
-135
-138
-139
-141
-143
-144
-145
-145
-146
-146
-148
-148
-149
-148
-149
-149
-149
-149
-150
-149
-148
-146
-145
-162
-183
-196
-199
-188
-172
-160
-154
-165
-188
-218
-235
-243
-226
-200
-185
-180
-174
-164
-149
-141
-139
-139
-141
-139
-138
-137
-138
-137
-135
-134
-135
-133
-133
-134
-131
-131
-131
-131
-131
-131
-130
-131
-129
-128
-129
-129
-128
-128
-128
-128
-128
-126
-127
-125
-126
-127
-126
-123
-126
-126
-124
-121
-122
-122
-122
-122
-120
-120
-117
-118
-116
-114
-113
-110
-112
-111
-110
-108
-105
-105
-104
-101
-98
-96
-96
-94
-93
-92
-94
-95
-97
-101
-105
-109
-113
-116
-120
-122
-125
-128
-129
-131
-134
-134
-136
-137
-139
-139
-138
-139
-140
-141
-139
-141
-141
-141
-139
-141
-141
-141
-143
-143
-143
-143
-142
-142
-142
-143
-140
-143
-143
-145
-145
-145
-145
-146
-145
-145
-145
-146
-146
-145
-145
-146
-146
-146
-144
-145
-144
-144
-144
-145
-144
-142
-143
-144
-143
-145
-145
-145
-145
-145
-143
-143
-144
-142
-144
-140
-142
-142
-144
-140
-141
-141
-141
-141
-140
-141
-143
-143
-141
-141
-140
-139
-141
-141
-141
-142
-143
-141
-139
-141
-141
-141
-140
-139
-139
-139
-139
-139
-139
-139
-139
-139
-139
-138
-139
-138
-138
-136
-135
-131
-128
-125
-123
-122
-122
-121
-119
-118
-114
-113
-111
-113
-113
-112
-113
-117
-121
-127
-131
-129
-131
-133
-136
-137
-139
-143
-143
-141
-143
-145
-146
-145
-146
-148
-147
-147
-147
-147
-146
-145
-145
-144
-145
-157
-180
-192
-197
-189
-171
-158
-156
-167
-201
-237
-256
-250
-218
-191
-182
-175
-167
-153
-142
-139
-138
-135
-138
-138
-137
-134
-135
-136
-134
-134
-133
-134
-133
-134
-133
-133
-133
-133
-131
-131
-131
-130
-130
-129
-128
-128
-129
-127
-127
-125
-125
-126
-124
-124
-123
-123
-124
-124
-124
-123
-124
-124
-123
-122
-121
-121
-120
-118
-118
-116
-116
-113
-113
-109
-109
-108
-104
-102
-100
-99
-96
-95
-95
-92
-93
-89
-88
-90
-94
-96
-99
-103
-107
-111
-113
-116
-121
-122
-125
-129
-128
-131
-133
-134
-133
-135
-134
-135
-136
-134
-136
-135
-136
-136
-136
-136
-136
-136
-138
-138
-137
-136
-136
-137
-139
-138
-137
-135
-136
-136
-136
-134
-137
-138
-138
-135
-137
-139
-139
-139
-139
-139
-139
-139
-138
-138
-137
-138
-138
-138
-138
-138
-137
-137
-138
-138
-138
-137
-138
-137
-137
-137
-137
-139
-136
-137
-137
-137
-136
-136
-136
-136
-136
-137
-137
-136
-137
-135
-135
-134
-136
-136
-135
-136
-133
-131
-131
-133
-132
-134
-134
-136
-135
-134
-135
-134
-133
-134
-136
-135
-134
-136
-135
-135
-136
-136
-136
-134
-133
-134
-135
-133
-133
-131
-126
-123
-120
-120
-119
-120
-119
-117
-114
-113
-111
-110
-113
-112
-110
-113
-116
-121
-126
-127
-125
-130
-133
-134
-135
-137
-139
-140
-143
-144
-144
-142
-145
-145
-145
-146
-146
-148
-147
-148
-148
-147
-142
-147
-169
-191
-197
-195
-183
-172
-163
-159
-167
-188
-206
-221
-226
-211
-196
-187
-183
-175
-164
-153
-146
-145
-145
-143
-142
-141
-140
-141
-141
-139
-138
-138
-138
-138
-137
-137
-137
-136
-134
-137
-137
-137
-133
-135
-131
-134
-133
-133
-132
-130
-131
-131
-131
-131
-132
-131
-130
-130
-131
-131
-131
-132
-131
-131
-128
-127
-127
-127
-127
-126
-123
-122
-121
-120
-119
-116
-114
-115
-113
-110
-106
-105
-105
-104
-101
-100
-99
-98
-96
-98
-100
-103
-106
-106
-111
-113
-114
-115
-120
-123
-124
-124
-130
-133
-135
-136
-136
-137
-138
-138
-139
-139
-138
-138
-139
-139
-139
-139
-139
-139
-139
-139
-139
-139
-139
-139
-139
-140
-141
-141
-143
-143
-144
-144
-144
-142
-143
-141
-141
-141
-140
-141
-141
-140
-140
-139
-141
-141
-139
-141
-141
-141
-139
-141
-141
-143
-139
-141
-143
-143
-142
-140
-140
-141
-143
-141
-141
-142
-140
-142
-142
-142
-143
-142
-140
-140
-139
-140
-140
-139
-139
-139
-138
-136
-135
-137
-137
-137
-135
-136
-138
-136
-135
-136
-137
-135
-134
-134
-134
-134
-134
-134
-134
-133
-134
-135
-134
-132
-133
-128
-124
-120
-120
-119
-119
-120
-117
-113
-113
-113
-107
-106
-106
-103
-105
-107
-113
-118
-123
-124
-123
-126
-130
-132
-132
-135
-137
-137
-138
-139
-139
-140
-140
-140
-140
-141
-141
-140
-141
-141
-139
-139
-139
-146
-166
-184
-190
-186
-169
-157
-150
-155
-168
-200
-219
-233
-227
-200
-183
-175
-172
-163
-149
-140
-135
-135
-135
-136
-134
-134
-134
-133
-131
-131
-131
-131
-131
-131
-134
-130
-131
-130
-129
-128
-127
-127
-126
-126
-126
-125
-124
-124
-124
-124
-123
-122
-123
-123
-122
-121
-121
-121
-121
-121
-120
-119
-119
-116
-117
-118
-116
-113
-114
-113
-111
-113
-111
-109
-107
-106
-104
-101
-99
-101
-99
-96
-95
-93
-92
-91
-88
-88
-91
-91
-95
-99
-103
-106
-110
-113
-116
-120
-123
-124
-127
-128
-131
-131
-131
-131
-132
-132
-134
-134
-134
-134
-134
-133
-135
-136
-135
-136
-132
-134
-134
-136
-132
-136
-136
-135
-137
-136
-136
-139
-139
-139
-139
-138
-139
-138
-138
-139
-138
-138
-138
-138
-139
-139
-139
-139
-139
-139
-139
-139
-139
-139
-138
-139
-137
-137
-137
-138
-138
-137
-138
-137
-137
-137
-136
-135
-137
-137
-136
-137
-136
-136
-136
-134
-137
-138
-135
-134
-138
-138
-138
-139
-138
-137
-138
-138
-136
-136
-136
-135
-136
-136
-136
-136
-137
-136
-136
-136
-135
-133
-132
-134
-132
-133
-134
-134
-132
-132
-133
-132
-128
-126
-122
-121
-119
-117
-120
-120
-120
-119
-119
-118
-118
-120
-120
-119
-120
-122
-124
-128
-129
-129
-126
-130
-132
-132
-136
-137
-138
-138
-139
-140
-140
-140
-142
-143
-144
-143
-142
-143
-144
-141
-140
-139
-140
-156
-177
-188
-188
-177
-160
-150
-152
-167
-204
-231
-247
-242
-212
-184
-174
-168
-160
-148
-136
-131
-130
-131
-131
-129
-131
-130
-128
-125
-127
-126
-126
-123
-126
-126
-125
-127
-126
-125
-124
-124
-124
-123
-123
-123
-123
-121
-122
-122
-122
-121
-121
-120
-120
-120
-120
-120
-119
-118
-119
-118
-118
-116
-116
-116
-115
-116
-118
-114
-113
-113
-113
-111
-110
-108
-107
-105
-105
-103
-100
-100
-98
-96
-92
-93
-91
-89
-87
-89
-91
-95
-96
-99
-103
-108
-113
-113
-117
-120
-124
-125
-127
-129
-131
-131
-132
-134
-135
-136
-135
-137
-137
-137
-138
-138
-137
-137
-137
-139
-138
-139
-139
-139
-140
-141
-142
-142
-141
-141
-143
-142
-143
-142
-142
-143
-142
-141
-140
-139
-140
-141
-140
-139
-140
-141
-141
-140
-141
-141
-141
-141
-140
-139
-141
-141
-141
-142
-141
-141
-143
-142
-141
-141
-141
-141
-142
-142
-140
-141
-143
-141
-140
-140
-141
-141
-141
-141
-142
-142
-143
-143
-142
-143
-143
-142
-140
-140
-141
-140
-139
-140
-140
-143
-140
-141
-141
-142
-139
-140
-139
-141
-138
-139
-139
-141
-143
-139
-139
-139
-141
-139
-139
-138
-136
-135
-133
-131
-131
-130
-129
-128
-128
-128
-126
-124
-124
-124
-124
-122
-121
-124
-127
-131
-136
-136
-136
-137
-138
-139
-143
-143
-146
-146
-146
-148
-148
-147
-147
-148
-149
-150
-151
-149
-152
-150
-151
-148
-147
-150
-172
-194
-200
-197
-184
-173
-165
-164
-177
-197
-217
-231
-226
-208
-193
-185
-181
-168
-156
-148
-144
-143
-143
-143
-142
-140
-139
-139
-138
-139
-140
-139
-139
-139
-139
-138
-137
-136
-137
-135
-135
-135
-137
-135
-132
-134
-135
-134
-131
-133
-133
-134
-131
-133
-134
-132
-131
-132
-133
-134
-135
-133
-131
-131
-128
-131
-131
-131
-128
-125
-125
-123
-122
-122
-121
-119
-118
-115
-111
-112
-111
-109
-107
-106
-105
-103
-104
-105
-105
-106
-110
-114
-117
-122
-126
-127
-129
-131
-134
-134
-138
-140
-141
-139
-141
-140
-140
-139
-142
-143
-144
-146
-147
-145
-145
-145
-145
-145
-145
-144
-148
-147
-146
-144
-144
-144
-143
-145
-146
-148
-148
-147
-146
-146
-146
-145
-146
-147
-148
-146
-145
-146
-148
-146
-147
-148
-146
-146
-145
-145
-144
-145
-142
-142
-143
-146
-146
-144
-143
-143
-144
-143
-141
-144
-144
-142
-143
-144
-145
-145
-145
-146
-144
-144
-143
-145
-144
-144
-145
-144
-144
-145
-145
-145
-144
-144
-143
-143
-143
-145
-144
-144
-142
-142
-142
-142
-143
-141
-143
-143
-143
-142
-143
-143
-142
-143
-142
-143
-143
-142
-140
-138
-136
-131
-129
-128
-129
-128
-128
-127
-124
-122
-119
-118
-120
-118
-117
-119
-125
-131
-134
-136
-136
-139
-142
-142
-143
-145
-146
-147
-146
-148
-149
-151
-150
-150
-151
-152
-152
-151
-151
-151
-151
-149
-151
-168
-189
-198
-197
-185
-172
-161
-159
-167
-192
-213
-230
-226
-211
-191
-184
-181
-166
-155
-145
-143
-144
-144
-145
-145
-142
-141
-140
-141
-141
-139
-139
-139
-139
-139
-138
-137
-136
-136
-135
-135
-135
-134
-134
-133
-133
-133
-133
-132
-131
-131
-131
-132
-131
-131
-131
-130
-130
-130
-128
-127
-128
-127
-127
-126
-124
-123
-123
-121
-122
-121
-120
-118
-117
-116
-114
-115
-113
-111
-111
-107
-105
-104
-104
-102
-99
-98
-99
-101
-103
-105
-109
-112
-115
-120
-122
-124
-127
-131
-132
-133
-135
-137
-139
-140
-141
-141
-141
-140
-141
-141
-142
-142
-142
-143
-142
-142
-141
-142
-143
-143
-143
-142
-143
-143
-144
-145
-143
-144
-145
-146
-148
-146
-146
-146
-147
-148
-148
-148
-147
-147
-147
-148
-148
-148
-148
-148
-148
-149
-148
-147
-148
-148
-148
-148
-148
-148
-148
-148
-146
-146
-146
-146
-146
-146
-146
-147
-145
-146
-145
-146
-145
-145
-146
-146
-146
-146
-145
-143
-144
-145
-145
-144
-145
-145
-144
-144
-145
-144
-142
-144
-144
-145
-143
-143
-143
-143
-143
-142
-143
-144
-143
-142
-143
-142
-144
-142
-143
-144
-143
-141
-137
-135
-132
-131
-130
-128
-131
-130
-129
-128
-128
-129
-130
-129
-128
-131
-131
-135
-139
-140
-139
-139
-139
-142
-145
-146
-145
-148
-147
-148
-150
-151
-151
-150
-152
-152
-151
-151
-153
-150
-150
-148
-147
-154
-176
-192
-199
-192
-176
-165
-160
-170
-202
-236
-256
-258
-230
-200
-185
-180
-174
-161
-148
-143
-141
-141
-140
-140
-139
-139
-139
-137
-137
-135
-135
-136
-133
-131
-133
-132
-131
-131
-132
-131
-131
-128
-128
-129
-129
-131
-128
-129
-129
-128
-127
-127
-128
-128
-128
-127
-128
-129
-128
-128
-129
-127
-127
-125
-125
-124
-123
-122
-122
-121
-121
-118
-117
-116
-114
-113
-111
-109
-106
-105
-104
-102
-99
-99
-96
-96
-96
-97
-99
-104
-107
-111
-113
-119
-122
-126
-127
-131
-131
-135
-138
-139
-139
-139
-141
-141
-143
-141
-139
-142
-142
-143
-142
-143
-143
-145
-145
-145
-144
-145
-145
-146
-146
-146
-146
-146
-146
-146
-145
-146
-145
-146
-145
-145
-145
-146
-146
-146
-145
-146
-145
-146
-145
-143
-146
-145
-145
-143
-145
-145
-146
-142
-145
-144
-144
-145
-144
-145
-144
-144
-145
-142
-143
-142
-144
-145
-145
-144
-146
-145
-146
-145
-146
-144
-144
-142
-143
-143
-143
-143
-143
-143
-144
-144
-144
-142
-143
-143
-143
-143
-143
-142
-143
-143
-143
-144
-144
-144
-144
-144
-142
-142
-140
-142
-141
-142
-140
-143
-143
-143
-144
-141
-141
-141
-142
-139
-138
-136
-131
-133
-131
-131
-133
-131
-131
-131
-130
-131
-133
-131
-131
-132
-136
-139
-140
-141
-141
-142
-142
-144
-145
-148
-150
-148
-148
-148
-149
-150
-152
-153
-153
-154
-154
-155
-156
-155
-152
-149
-150
-161
-186
-203
-202
-192
-179
-167
-164
-174
-198
-216
-226
-239
-238
-220
-201
-189
-187
-178
-165
-154
-148
-148
-148
-146
-146
-145
-145
-143
-145
-143
-141
-141
-141
-140
-139
-139
-138
-138
-138
-138
-137
-135
-135
-136
-138
-137
-136
-137
-136
-135
-135
-136
-133
-136
-135
-135
-131
-134
-133
-134
-135
-134
-134
-134
-132
-133
-131
-131
-131
-129
-129
-129
-128
-125
-123
-122
-120
-118
-116
-115
-113
-111
-111
-109
-108
-106
-105
-105
-105
-107
-109
-113
-114
-116
-120
-123
-125
-128
-131
-134
-139
-139
-139
-141
-140
-140
-141
-141
-144
-144
-143
-141
-144
-143
-142
-142
-141
-143
-145
-143
-141
-141
-140
-142
-141
-143
-142
-143
-144
-143
-141
-141
-140
-139
-140
-143
-147
-144
-142
-141
-140
-139
-139
-141
-141
-142
-141
-139
-139
-137
-133
-136
-134
-131
-127
-122
-121
-122
-117
-115
-117
-116
-112
-113
-120
-126
-129
-134
-136
-138
-138
-138
-139
-140
-141
-141
-141
-144
-145
-144
-144
-145
-144
-142
-144
-164
-189
-198
-193
-181
-167
-159
-160
-169
-187
-200
-216
-216
-201
-188
-179
-174
-164
-151
-142
-138
-138
-138
-137
-139
-138
-135
-134
-132
-134
-135
-134
-131
-132
-132
-131
-129
-131
-131
-131
-131
-131
-131
-130
-130
-129
-130
-130
-130
-128
-127
-129
-129
-128
-128
-127
-126
-127
-127
-126
-125
-125
-124
-123
-125
-123
-122
-122
-119
-118
-116
-113
-112
-111
-111
-106
-105
-104
-104
-103
-99
-99
-99
-99
-100
-103
-107
-108
-113
-116
-120
-121
-125
-127
-129
-131
-133
-136
-134
-136
-136
-135
-138
-139
-139
-139
-140
-141
-141
-140
-139
-139
-139
-141
-140
-140
-139
-141
-140
-140
-140
-140
-140
-139
-139
-138
-139
-139
-140
-139
-139
-139
-141
-140
-141
-142
-143
-143
-142
-142
-142
-142
-140
-142
-143
-143
-140
-143
-142
-142
-142
-143
-143
-142
-144
-142
-142
-142
-144
-141
-141
-143
-143
-141
-142
-142
-142
-142
-142
-143
-140
-139
-139
-139
-140
-140
-139
-140
-139
-140
-141
-141
-139
-139
-139
-139
-139
-139
-139
-139
-139
-139
-140
-141
-141
-141
-141
-141
-141
-141
-140
-138
-140
-141
-140
-139
-140
-140
-141
-142
-141
-140
-142
-142
-141
-141
-142
-142
-143
-143
-144
-142
-142
-143
-143
-143
-143
-143
-143
-143
-142
-142
-144
-143
-143
-143
-144
-144
-144
-144
-145
-142
-144
-142
-142
-143
-142
-142
-143
-142
-142
-142
-141
-143
-143
-143
-141
-143
-142
-144
-142
-144
-144
-144
-145
-144
-144
-145
-144
-144
-143
-143
-142
-144
-143
-143
-143
-144
-141
-139
-136
-131
-131
-129
-129
-129
-130
-127
-127
-126
-126
-127
-126
-126
-129
-131
-135
-138
-139
-140
-139
-139
-141
-142
-146
-148
-148
-146
-149
-150
-150
-148
-149
-150
-150
-148
-152
-151
-152
-151
-148
-148
-152
-173
-191
-200
-195
-179
-165
-157
-166
-197
-237
-260
-262
-236
-202
-185
-179
-171
-157
-146
-139
-139
-139
-139
-139
-139
-138
-137
-138
-138
-138
-135
-136
-135
-135
-135
-134
-134
-134
-133
-132
-133
-131
-132
-131
-132
-129
-130
-127
-128
-129
-128
-128
-127
-126
-127
-129
-128
-127
-126
-123
-124
-124
-124
-123
-122
-121
-121
-119
-118
-117
-116
-113
-113
-113
-110
-106
-105
-103
-103
-100
-98
-96
-96
-94
-92
-91
-93
-94
-95
-98
-101
-105
-108
-113
-115
-119
-122
-124
-125
-129
-131
-133
-131
-134
-136
-138
-138
-137
-139
-139
-139
-139
-139
-139
-139
-140
-140
-141
-141
-142
-140
-140
-141
-142
-143
-143
-143
-142
-143
-144
-143
-144
-144
-144
-143
-143
-142
-143
-143
-142
-141
-141
-141
-140
-141
-141
-143
-141
-141
-141
-143
-142
-144
-143
-144
-143
-143
-140
-142
-143
-144
-145
-143
-145
-143
-143
-142
-142
-143
-144
-143
-143
-142
-143
-143
-144
-143
-141
-141
-140
-141
-142
-141
-141
-142
-141
-141
-141
-142
-142
-142
-141
-142
-141
-141
-140
-140
-140
-141
-140
-139
-140
-141
-141
-140
-140
-141
-140
-139
-139
-141
-141
-138
-139
-139
-139
-140
-140
-141
-140
-140
-140
-139
-137
-134
-131
-129
-127
-127
-129
-129
-128
-127
-125
-125
-127
-127
-126
-129
-130
-134
-139
-139
-139
-139
-140
-143
-144
-145
-146
-148
-148
-147
-148
-150
-149
-149
-150
-149
-150
-151
-149
-149
-148
-149
-148
-162
-184
-200
-201
-191
-174
-163
-163
-175
-214
-246
-262
-254
-220
-195
-185
-181
-168
-155
-146
-143
-142
-142
-141
-141
-140
-141
-139
-139
-139
-138
-138
-138
-139
-138
-138
-137
-137
-137
-136
-134
-134
-134
-134
-132
-132
-133
-133
-133
-134
-133
-131
-129
-131
-131
-131
-130
-131
-131
-129
-131
-130
-131
-130
-131
-127
-128
-127
-129
-126
-123
-122
-122
-120
-117
-116
-114
-113
-112
-109
-105
-104
-102
-100
-101
-102
-103
-102
-103
-105
-110
-113
-117
-120
-124
-128
-131
-132
-135
-136
-138
-140
-143
-144
-144
-145
-146
-145
-146
-144
-144
-144
-148
-149
-150
-149
-148
-148
-149
-148
-148
-148
-148
-149
-149
-148
-149
-149
-150
-149
-150
-150
-150
-151
-152
-150
-150
-149
-150
-148
-148
-148
-151
-150
-151
-152
-153
-152
-152
-152
-152
-151
-153
-153
-152
-152
-152
-152
-150
-151
-152
-152
-150
-151
-150
-150
-148
-150
-150
-149
-150
-149
-151
-151
-152
-151
-149
-150
-150
-149
-150
-150
-150
-149
-148
-150
-150
-150
-149
-150
-149
-149
-148
-148
-149
-150
-149
-148
-148
-148
-148
-149
-151
-150
-150
-151
-150
-150
-150
-148
-147
-143
-143
-140
-139
-139
-139
-136
-136
-133
-131
-129
-128
-129
-131
-127
-127
-127
-131
-138
-141
-143
-143
-146
-150
-151
-152
-153
-154
-155
-157
-158
-158
-159
-160
-161
-159
-159
-158
-160
-161
-161
-161
-159
-157
-165
-189
-208
-212
-206
-191
-178
-171
-173
-184
-203
-218
-233
-229
-215
-205
-199
-191
-182
-168
-156
-151
-155
-155
-154
-152
-152
-150
-150
-152
-152
-150
-150
-149
-149
-149
-148
-146
-148
-148
-148
-148
-148
-149
-152
-150
-148
-146
-146
-146
-144
-143
-143
-145
-143
-145
-146
-144
-142
-143
-142
-142
-144
-143
-142
-141
-140
-138
-137
-136
-136
-134
-131
-131
-130
-129
-125
-126
-125
-125
-120
-120
-119
-118
-117
-113
-113
-113
-117
-118
-120
-122
-122
-129
-131
-131
-136
-141
-143
-144
-144
-145
-148
-146
-148
-151
-153
-154
-154
-153
-152
-153
-153
-152
-152
-154
-155
-156
-155
-154
-154
-151
-151
-153
-156
-155
-156
-155
-156
-155
-155
-151
-154
-155
-155
-153
-156
-156
-157
-156
-155
-156
-156
-156
-155
-155
-156
-153
-155
-155
-156
-155
-154
-154
-154
-154
-155
-153
-156
-155
-154
-153
-155
-155
-154
-153
-153
-152
-152
-152
-153
-152
-153
-152
-152
-152
-152
-154
-154
-153
-151
-151
-148
-148
-150
-150
-148
-149
-148
-148
-147
-148
-148
-147
-148
-147
-148
-146
-147
-148
-147
-147
-145
-146
-145
-143
-138
-136
-132
-131
-129
-131
-131
-128
-125
-123
-121
-118
-119
-117
-113
-118
-121
-127
-134
-137
-135
-139
-141
-142
-144
-146
-147
-148
-149
-149
-151
-151
-153
-153
-154
-152
-154
-154
-155
-152
-154
-152
-152
-165
-189
-203
-203
-192
-177
-165
-162
-172
-197
-226
-241
-248
-228
-203
-191
-185
-178
-165
-155
-148
-148
-148
-148
-147
-146
-145
-145
-146
-147
-145
-145
-142
-143
-144
-142
-142
-141
-141
-140
-140
-139
-138
-136
-136
-136
-135
-133
-134
-134
-133
-130
-131
-130
-130
-131
-130
-129
-128
-127
-126
-127
-125
-126
-123
-124
-122
-122
-120
-120
-120
-120
-119
-117
-116
-113
-112
-109
-107
-106
-105
-102
-104
-99
-97
-95
-95
-95
-95
-96
-102
-105
-109
-113
-115
-119
-121
-123
-126
-129
-131
-132
-133
-136
-136
-138
-137
-139
-139
-139
-141
-139
-140
-141
-142
-141
-142
-141
-144
-144
-144
-145
-143
-143
-144
-145
-142
-142
-144
-144
-144
-142
-144
-145
-145
-146
-145
-146
-146
-146
-146
-147
-146
-146
-145
-145
-146
-146
-145
-146
-146
-145
-145
-144
-144
-145
-145
-144
-146
-145
-144
-143
-145
-145
-144
-145
-142
-143
-143
-144
-143
-143
-144
-142
-144
-142
-144
-142
-144
-143
-143
-143
-143
-142
-143
-142
-141
-141
-141
-141
-142
-141
-141
-141
-141
-140
-140
-141
-139
-140
-139
-140
-140
-140
-140
-139
-139
-139
-139
-138
-135
-131
-127
-128
-125
-125
-124
-126
-123
-123
-123
-122
-123
-123
-123
-123
-125
-129
-132
-136
-137
-137
-137
-139
-140
-142
-144
-145
-146
-146
-146
-146
-148
-148
-148
-148
-148
-150
-150
-149
-150
-149
-148
-148
-146
-153
-174
-192
-200
-194
-177
-163
-156
-166
-195
-235
-257
-262
-231
-199
-185
-179
-174
-159
-148
-144
-142
-142
-141
-141
-140
-140
-139
-139
-139
-138
-138
-137
-137
-136
-135
-136
-134
-133
-132
-132
-131
-130
-131
-131
-130
-130
-130
-129
-128
-127
-128
-128
-127
-126
-125
-125
-124
-123
-122
-122
-122
-121
-120
-119
-119
-119
-117
-116
-116
-113
-111
-111
-110
-109
-109
-106
-105
-104
-104
-100
-98
-96
-97
-96
-92
-92
-92
-95
-97
-101
-104
-107
-112
-114
-120
-122
-125
-127
-128
-131
-134
-135
-137
-137
-138
-139
-140
-139
-139
-139
-139
-140
-140
-140
-141
-141
-142
-143
-142
-142
-143
-142
-145
-145
-145
-143
-145
-144
-143
-142
-146
-145
-146
-147
-146
-146
-146
-146
-146
-146
-145
-144
-145
-143
-145
-145
-145
-144
-145
-145
-145
-145
-146
-145
-145
-145
-145
-145
-146
-146
-147
-146
-146
-147
-146
-144
-142
-144
-144
-144
-144
-145
-144
-143
-143
-142
-141
-143
-142
-143
-139
-141
-141
-141
-139
-142
-144
-141
-141
-143
-143
-144
-143
-143
-141
-141
-139
-141
-142
-144
-142
-141
-141
-141
-142
-142
-145
-143
-138
-133
-131
-128
-126
-128
-128
-129
-125
-122
-120
-118
-120
-122
-121
-119
-120
-123
-129
-135
-136
-136
-139
-138
-140
-144
-146
-145
-147
-148
-148
-146
-148
-150
-150
-150
-152
-152
-152
-153
-151
-150
-149
-145
-159
-184
-200
-203
-196
-181
-172
-162
-165
-184
-207
-224
-236
-227
-207
-194
-189
-183
-168
-155
-146
-144
-145
-144
-145
-146
-146
-144
-143
-141
-139
-140
-139
-139
-139
-139
-140
-140
-137
-138
-139
-137
-135
-138
-137
-136
-136
-135
-136
-136
-137
-137
-137
-137
-133
-135
-134
-134
-136
-136
-135
-136
-134
-131
-131
-130
-129
-130
-128
-127
-125
-124
-125
-125
-125
-121
-119
-117
-113
-112
-111
-111
-109
-105
-104
-104
-105
-106
-108
-111
-113
-114
-115
-118
-124
-129
-131
-131
-135
-136
-137
-141
-143
-143
-144
-146
-148
-147
-146
-146
-147
-147
-146
-146
-147
-148
-150
-151
-150
-149
-148
-147
-146
-148
-148
-149
-150
-153
-154
-153
-151
-148
-148
-148
-148
-148
-147
-150
-152
-151
-149
-150
-150
-150
-149
-150
-148
-148
-148
-151
-148
-147
-145
-148
-148
-148
-148
-148
-148
-147
-148
-148
-149
-149
-148
-148
-147
-148
-148
-146
-146
-146
-146
-145
-145
-146
-145
-145
-145
-146
-145
-145
-144
-144
-144
-143
-141
-141
-142
-144
-145
-144
-144
-140
-139
-139
-140
-142
-143
-141
-142
-141
-140
-138
-138
-137
-134
-131
-130
-130
-130
-129
-124
-122
-120
-120
-116
-116
-114
-115
-114
-118
-124
-131
-136
-135
-134
-137
-139
-141
-142
-143
-146
-148
-148
-148
-151
-154
-156
-154
-156
-156
-157
-156
-155
-154
-152
-152
-151
-153
-171
-194
-203
-202
-188
-174
-168
-166
-171
-191
-205
-220
-226
-213
-200
-192
-185
-174
-163
-154
-150
-149
-148
-148
-150
-149
-150
-148
-146
-145
-146
-146
-145
-145
-142
-144
-143
-143
-143
-144
-144
-145
-145
-145
-143
-141
-140
-141
-142
-141
-140
-140
-140
-140
-139
-139
-139
-139
-139
-139
-139
-138
-139
-135
-137
-136
-136
-131
-132
-131
-131
-131
-128
-128
-125
-124
-123
-121
-120
-119
-116
-115
-113
-112
-111
-111
-110
-113
-113
-117
-120
-122
-126
-129
-131
-134
-136
-137
-139
-141
-141
-144
-144
-145
-146
-146
-146
-146
-146
-147
-146
-147
-148
-148
-148
-148
-147
-148
-147
-148
-148
-148
-145
-148
-148
-148
-150
-148
-148
-147
-148
-148
-147
-146
-146
-146
-145
-146
-148
-148
-146
-146
-146
-146
-146
-146
-146
-147
-148
-148
-146
-146
-146
-146
-146
-146
-146
-146
-146
-145
-144
-145
-144
-144
-142
-142
-144
-144
-144
-142
-143
-141
-141
-140
-143
-142
-143
-140
-143
-142
-142
-141
-141
-142
-143
-142
-140
-142
-143
-143
-141
-142
-143
-141
-139
-140
-140
-140
-141
-140
-139
-139
-134
-131
-126
-124
-123
-122
-123
-121
-119
-117
-115
-113
-113
-114
-113
-111
-113
-117
-122
-130
-132
-132
-134
-138
-140
-143
-143
-145
-144
-146
-145
-148
-148
-148
-147
-149
-150
-150
-152
-152
-150
-150
-149
-148
-157
-180
-195
-200
-193
-175
-163
-162
-176
-216
-251
-267
-259
-222
-195
-184
-179
-170
-157
-146
-142
-142
-142
-140
-140
-141
-140
-139
-139
-139
-139
-139
-138
-136
-138
-138
-138
-134
-135
-136
-135
-132
-133
-133
-131
-130
-131
-131
-131
-131
-131
-131
-131
-130
-130
-129
-129
-127
-128
-128
-128
-127
-127
-128
-129
-127
-125
-123
-122
-122
-121
-119
-118
-114
-113
-112
-109
-106
-104
-103
-100
-98
-98
-96
-95
-93
-95
-96
-97
-101
-103
-106
-110
-113
-118
-121
-122
-126
-129
-131
-131
-136
-138
-138
-139
-138
-139
-140
-140
-141
-142
-143
-141
-145
-144
-145
-144
-145
-145
-146
-145
-145
-145
-146
-146
-146
-146
-146
-146
-146
-146
-147
-146
-146
-146
-146
-147
-147
-146
-147
-146
-146
-146
-147
-146
-146
-145
-144
-144
-145
-146
-144
-146
-146
-146
-144
-145
-145
-146
-148
-146
-146
-147
-146
-146
-146
-146
-144
-145
-144
-145
-144
-144
-144
-144
-143
-143
-143
-145
-143
-143
-143
-143
-143
-142
-142
-144
-142
-143
-143
-144
-142
-143
-143
-142
-143
-143
-141
-141
-141
-143
-143
-142
-143
-142
-141
-137
-135
-132
-131
-127
-129
-131
-131
-129
-129
-128
-128
-129
-129
-128
-129
-131
-133
-137
-139
-139
-138
-139
-140
-141
-144
-145
-146
-146
-146
-148
-149
-149
-149
-150
-150
-150
-151
-151
-150
-149
-148
-146
-146
-153
-169
-187
-197
-199
-188
-171
-160
-160
-172
-207
-241
-256
-252
-220
-191
-184
-181
-169
-155
-145
-141
-141
-140
-140
-139
-139
-139
-138
-137
-136
-138
-138
-137
-137
-137
-136
-134
-134
-134
-133
-131
-131
-131
-131
-131
-131
-131
-130
-131
-131
-131
-130
-129
-129
-129
-130
-130
-129
-128
-129
-129
-129
-128
-127
-126
-125
-125
-123
-123
-120
-122
-121
-117
-117
-114
-113
-111
-109
-107
-104
-102
-102
-99
-97
-96
-96
-97
-97
-99
-102
-106
-108
-112
-114
-117
-122
-126
-129
-131
-131
-134
-136
-135
-138
-139
-141
-141
-141
-142
-143
-144
-144
-144
-144
-143
-145
-144
-144
-144
-145
-145
-146
-146
-146
-145
-147
-146
-147
-148
-146
-145
-148
-148
-145
-143
-144
-146
-145
-146
-145
-145
-144
-145
-146
-146
-146
-146
-145
-146
-146
-146
-146
-145
-146
-145
-145
-144
-144
-144
-145
-145
-144
-143
-144
-143
-142
-142
-144
-146
-146
-145
-144
-143
-143
-144
-143
-143
-141
-140
-139
-141
-140
-140
-142
-141
-143
-143
-143
-143
-144
-142
-141
-143
-143
-142
-144
-145
-142
-143
-144
-144
-143
-144
-144
-145
-143
-140
-139
-139
-136
-134
-133
-134
-134
-131
-129
-127
-124
-123
-123
-123
-121
-122
-125
-129
-135
-138
-138
-139
-143
-143
-146
-148
-148
-148
-151
-153
-154
-158
-158
-158
-157
-157
-157
-159
-160
-159
-157
-157
-157
-159
-177
-199
-208
-206
-193
-180
-171
-170
-179
-201
-218
-234
-234
-217
-204
-197
-191
-181
-167
-157
-154
-151
-152
-151
-150
-150
-148
-148
-149
-150
-148
-147
-148
-149
-148
-147
-147
-147
-144
-146
-146
-146
-145
-142
-143
-143
-143
-145
-146
-147
-145
-143
-142
-142
-143
-143
-141
-141
-139
-140
-139
-139
-139
-139
-140
-139
-137
-135
-135
-135
-133
-133
-131
-130
-128
-126
-124
-123
-122
-121
-118
-114
-113
-114
-112
-111
-112
-113
-115
-117
-122
-123
-124
-126
-131
-134
-139
-139
-143
-145
-145
-147
-146
-146
-148
-148
-149
-150
-151
-150
-150
-153
-152
-152
-152
-154
-154
-156
-156
-154
-153
-151
-152
-153
-155
-157
-158
-157
-157
-157
-155
-154
-156
-157
-159
-158
-158
-157
-157
-156
-156
-155
-156
-156
-156
-158
-157
-156
-155
-157
-155
-155
-153
-157
-157
-158
-157
-157
-155
-154
-154
-154
-157
-157
-154
-155
-156
-157
-156
-156
-155
-157
-157
-156
-155
-155
-152
-151
-154
-155
-154
-153
-152
-152
-153
-153
-154
-154
-154
-153
-152
-152
-152
-152
-153
-152
-152
-154
-154
-149
-148
-145
-142
-139
-138
-137
-139
-137
-138
-136
-132
-131
-131
-130
-129
-130
-125
-123
-127
-128
-135
-139
-138
-139
-145
-148
-150
-151
-152
-154
-155
-156
-157
-156
-157
-157
-156
-156
-157
-159
-158
-157
-158
-157
-155
-159
-180
-200
-206
-200
-185
-174
-165
-165
-167
-176
-189
-203
-220
-224
-217
-204
-192
-191
-184
-173
-162
-154
-152
-152
-152
-151
-149
-148
-146
-147
-147
-147
-147
-146
-146
-146
-144
-145
-144
-144
-145
-145
-145
-144
-143
-143
-143
-143
-143
-143
-143
-141
-140
-139
-140
-139
-139
-138
-138
-137
-137
-135
-136
-134
-136
-135
-133
-131
-131
-131
-131
-129
-128
-129
-129
-129
-126
-123
-122
-120
-118
-115
-113
-114
-112
-110
-108
-107
-109
-110
-112
-114
-118
-121
-123
-126
-130
-131
-134
-137
-138
-139
-141
-143
-145
-145
-146
-146
-146
-146
-146
-146
-146
-146
-146
-146
-146
-146
-146
-146
-146
-146
-145
-146
-146
-147
-146
-148
-148
-146
-148
-146
-148
-148
-148
-148
-148
-148
-149
-148
-148
-148
-148
-148
-148
-148
-148
-148
-148
-148
-148
-148
-149
-149
-150
-150
-148
-148
-148
-148
-148
-148
-147
-146
-147
-146
-147
-148
-146
-146
-146
-146
-146
-146
-146
-148
-146
-146
-147
-147
-146
-145
-146
-146
-146
-146
-145
-145
-146
-146
-146
-145
-146
-148
-147
-146
-146
-146
-146
-144
-145
-145
-146
-146
-145
-142
-138
-135
-131
-130
-128
-128
-129
-125
-124
-123
-121
-122
-122
-121
-121
-122
-125
-130
-136
-139
-139
-140
-142
-145
-148
-150
-147
-151
-150
-152
-151
-155
-156
-156
-155
-155
-157
-157
-158
-157
-156
-156
-154
-153
-161
-183
-198
-202
-198
-180
-167
-163
-174
-204
-245
-269
-270
-241
-206
-190
-183
-175
-163
-152
-147
-146
-147
-145
-146
-147
-145
-146
-145
-144
-144
-143
-142
-142
-141
-141
-140
-139
-141
-139
-139
-138
-139
-139
-138
-139
-138
-137
-136
-135
-135
-135
-134
-133
-133
-131
-131
-131
-131
-130
-129
-129
-127
-126
-127
-127
-126
-124
-124
-122
-121
-120
-120
-119
-117
-115
-114
-113
-110
-107
-106
-103
-102
-101
-99
-99
-98
-98
-99
-102
-105
-109
-111
-117
-122
-125
-125
-131
-134
-137
-139
-139
-139
-141
-142
-144
-142
-145
-146
-146
-146
-146
-146
-148
-148
-148
-148
-148
-147
-147
-148
-148
-149
-149
-148
-149
-148
-150
-148
-149
-148
-150
-148
-148
-148
-148
-148
-148
-147
-146
-146
-145
-145
-145
-145
-143
-144
-142
-144
-143
-144
-141
-144
-144
-145
-145
-145
-144
-145
-145
-144
-144
-145
-145
-143
-144
-143
-144
-144
-144
-145
-147
-145
-145
-145
-146
-145
-144
-146
-145
-144
-143
-144
-144
-143
-144
-145
-145
-145
-145
-144
-143
-145
-144
-144
-143
-144
-142
-142
-144
-145
-145
-143
-144
-144
-143
-139
-137
-134
-131
-131
-131
-131
-131
-130
-129
-127
-126
-129
-128
-128
-129
-128
-131
-137
-139
-140
-140
-141
-144
-145
-147
-148
-150
-149
-150
-149
-152
-151
-152
-152
-153
-153
-154
-154
-155
-155
-154
-153
-150
-154
-171
-192
-202
-201
-188
-174
-163
-172
-194
-232
-258
-261
-240
-209
-192
-189
-185
-177
-166
-154
-147
-146
-146
-146
-146
-145
-144
-144
-144
-143
-143
-143
-142
-142
-139
-139
-139
-138
-138
-137
-138
-137
-136
-135
-135
-137
-136
-135
-134
-136
-134
-134
-134
-134
-133
-134
-136
-133
-133
-131
-133
-131
-133
-132
-131
-129
-131
-131
-131
-128
-128
-127
-127
-126
-123
-124
-122
-122
-118
-116
-113
-111
-111
-110
-109
-107
-107
-107
-109
-111
-113
-116
-120
-123
-127
-131
-132
-136
-139
-141
-142
-143
-145
-146
-148
-148
-148
-148
-148
-148
-148
-150
-150
-149
-149
-149
-152
-154
-152
-150
-149
-151
-152
-152
-150
-151
-149
-150
-151
-151
-152
-152
-154
-152
-151
-152
-149
-151
-151
-150
-150
-151
-151
-153
-152
-152
-152
-152
-151
-151
-150
-150
-151
-150
-149
-150
-151
-151
-151
-152
-152
-152
-150
-151
-150
-151
-150
-149
-149
-149
-148
-148
-148
-148
-150
-147
-148
-148
-148
-149
-152
-152
-150
-150
-150
-150
-149
-150
-149
-148
-148
-148
-149
-148
-148
-148
-150
-149
-149
-148
-148
-146
-142
-138
-137
-136
-135
-137
-139
-138
-134
-131
-126
-124
-124
-124
-123
-122
-123
-129
-131
-135
-139
-140
-145
-148
-148
-148
-150
-150
-149
-152
-155
-157
-153
-156
-157
-157
-157
-157
-157
-157
-157
-155
-152
-152
-168
-193
-206
-207
-196
-182
-171
-167
-173
-190
-205
-218
-229
-222
-209
-195
-189
-185
-174
-161
-152
-149
-148
-148
-148
-147
-148
-148
-146
-146
-145
-143
-141
-142
-143
-144
-143
-145
-145
-145
-145
-144
-142
-139
-142
-142
-142
-143
-143
-140
-141
-141
-142
-141
-142
-142
-141
-140
-139
-138
-138
-138
-136
-136
-139
-137
-137
-137
-136
-134
-131
-130
-130
-129
-129
-127
-123
-122
-123
-122
-117
-115
-113
-113
-111
-111
-112
-113
-113
-113
-118
-121
-123
-127
-129
-131
-135
-139
-139
-141
-143
-142
-145
-147
-148
-148
-149
-148
-148
-149
-151
-149
-148
-148
-149
-148
-147
-147
-148
-150
-150
-148
-148
-149
-149
-149
-148
-148
-148
-147
-148
-148
-148
-149
-148
-150
-150
-150
-150
-150
-149
-150
-150
-150
-151
-151
-151
-150
-150
-148
-150
-149
-151
-148
-151
-149
-150
-150
-149
-149
-149
-149
-149
-148
-148
-147
-148
-147
-148
-148
-148
-148
-148
-146
-146
-146
-148
-146
-145
-146
-146
-146
-146
-145
-146
-145
-144
-142
-144
-145
-144
-144
-145
-145
-146
-145
-144
-142
-138
-136
-134
-131
-130
-128
-127
-127
-124
-121
-118
-117
-115
-115
-116
-113
-115
-119
-125
-130
-131
-131
-135
-137
-139
-140
-142
-143
-143
-145
-146
-146
-148
-148
-148
-149
-150
-149
-148
-148
-148
-148
-146
-146
-160
-183
-195
-195
-186
-172
-159
-157
-168
-196
-222
-235
-244
-242
-222
-199
-184
-177
-171
-159
-148
-139
-140
-140
-140
-139
-139
-139
-139
-139
-138
-136
-137
-138
-138
-136
-136
-136
-134
-132
-132
-133
-131
-131
-131
-131
-131
-131
-131
-130
-130
-130
-128
-128
-126
-126
-127
-125
-125
-124
-124
-123
-123
-122
-122
-121
-120
-120
-117
-118
-116
-116
-113
-113
-111
-110
-106
-106
-105
-103
-99
-98
-96
-96
-95
-92
-92
-89
-90
-90
-92
-95
-97
-104
-106
-109
-113
-118
-120
-123
-126
-128
-130
-131
-133
-134
-135
-136
-137
-137
-136
-138
-139
-138
-138
-139
-138
-139
-139
-139
-139
-139
-140
-140
-139
-139
-141
-139
-139
-140
-141
-139
-140
-139
-140
-139
-140
-139
-139
-140
-140
-140
-139
-140
-140
-141
-141
-140
-141
-140
-140
-139
-139
-138
-138
-139
-139
-139
-140
-139
-139
-139
-140
-139
-139
-139
-139
-138
-138
-138
-139
-138
-136
-136
-138
-138
-138
-137
-137
-138
-139
-139
-135
-138
-138
-137
-135
-135
-136
-135
-132
-135
-136
-136
-135
-136
-136
-136
-136
-134
-134
-131
-125
-123
-121
-120
-120
-120
-118
-116
-114
-114
-114
-114
-116
-113
-116
-118
-121
-127
-131
-131
-130
-133
-135
-138
-138
-139
-139
-141
-141
-141
-142
-144
-144
-144
-145
-143
-146
-146
-147
-143
-145
-141
-145
-161
-186
-193
-192
-179
-164
-153
-157
-175
-216
-246
-258
-241
-207
-185
-178
-170
-157
-143
-136
-134
-135
-134
-135
-134
-134
-133
-132
-131
-131
-131
-132
-131
-131
-131
-129
-130
-130
-129
-126
-127
-126
-127
-126
-127
-127
-126
-123
-124
-124
-123
-122
-123
-122
-122
-121
-123
-122
-121
-122
-121
-122
-122
-121
-121
-119
-119
-116
-116
-113
-113
-112
-110
-108
-106
-105
-102
-100
-99
-97
-96
-94
-93
-89
-88
-88
-90
-93
-93
-95
-101
-104
-109
-113
-116
-120
-122
-125
-127
-130
-130
-133
-134
-137
-136
-135
-136
-137
-136
-137
-135
-139
-139
-139
-139
-139
-139
-139
-139
-140
-139
-140
-141
-140
-139
-140
-141
-140
-141
-141
-140
-139
-139
-140
-140
-139
-139
-140
-140
-140
-141
-142
-140
-139
-138
-140
-140
-140
-139
-140
-140
-141
-142
-141
-140
-140
-143
-141
-140
-141
-141
-138
-139
-139
-140
-137
-139
-139
-138
-139
-139
-139
-139
-140
-140
-139
-139
-139
-139
-139
-139
-139
-139
-139
-138
-139
-139
-139
-139
-138
-138
-139
-137
-136
-139
-138
-138
-136
-136
-135
-133
-130
-127
-124
-122
-123
-122
-122
-121
-117
-113
-113
-111
-112
-113
-113
-111
-116
-119
-125
-129
-129
-128
-131
-136
-135
-137
-139
-140
-139
-141
-143
-146
-145
-145
-146
-145
-144
-145
-144
-145
-145
-145
-144
-148
-169
-191
-197
-194
-178
-165
-156
-157
-172
-197
-213
-227
-220
-203
-189
-183
-177
-165
-151
-142
-139
-142
-140
-139
-139
-140
-138
-139
-138
-138
-135
-137
-138
-136
-137
-137
-135
-135
-136
-134
-134
-133
-135
-133
-133
-133
-133
-133
-134
-134
-134
-135
-133
-131
-131
-131
-128
-131
-130
-131
-129
-129
-129
-129
-128
-128
-125
-121
-121
-121
-122
-120
-120
-120
-116
-114
-113
-112
-108
-106
-106
-104
-104
-102
-99
-98
-101
-101
-102
-105
-105
-110
-114
-120
-122
-123
-124
-129
-131
-131
-131
-131
-132
-133
-136
-137
-138
-139
-139
-139
-139
-139
-139
-139
-140
-141
-141
-140
-141
-141
-141
-141
-138
-139
-139
-139
-140
-142
-139
-140
-141
-141
-140
-141
-141
-141
-139
-139
-139
-139
-138
-139
-140
-139
-141
-140
-139
-139
-139
-139
-139
-139
-136
-134
-133
-136
-138
-139
-138
-139
-139
-139
-139
-139
-139
-138
-138
-139
-138
-137
-137
-136
-136
-136
-139
-138
-139
-138
-138
-138
-136
-135
-137
-135
-134
-134
-135
-135
-137
-137
-137
-134
-138
-137
-135
-132
-134
-131
-129
-124
-123
-123
-123
-125
-123
-120
-116
-113
-111
-111
-111
-108
-109
-113
-120
-124
-127
-125
-129
-132
-136
-139
-140
-140
-141
-141
-141
-144
-143
-146
-147
-147
-148
-148
-148
-148
-148
-146
-145
-143
-152
-177
-193
-196
-187
-172
-159
-155
-161
-176
-191
-209
-218
-209
-193
-186
-182
-174
-160
-148
-142
-143
-142
-141
-142
-141
-139
-140
-139
-138
-138
-138
-137
-138
-136
-137
-135
-136
-135
-134
-133
-133
-133
-135
-134
-134
-134
-132
-131
-131
-131
-132
-132
-131
-131
-131
-131
-130
-129
-129
-127
-124
-126
-127
-123
-122
-123
-123
-121
-118
-118
-117
-116
-116
-113
-112
-111
-111
-106
-105
-104
-101
-101
-100
-99
-99
-102
-104
-105
-108
-111
-115
-117
-120
-122
-124
-127
-129
-131
-131
-134
-134
-134
-135
-135
-137
-138
-137
-137
-138
-138
-138
-139
-139
-139
-139
-139
-139
-140
-139
-138
-139
-139
-139
-138
-139
-139
-139
-139
-139
-138
-139
-139
-139
-139
-140
-139
-139
-139
-140
-139
-141
-140
-139
-139
-139
-139
-139
-139
-139
-139
-139
-139
-139
-139
-139
-139
-139
-139
-139
-139
-138
-138
-138
-139
-138
-138
-138
-138
-138
-138
-137
-138
-137
-138
-136
-138
-137
-136
-134
-135
-136
-135
-136
-134
-135
-134
-134
-133
-132
-134
-133
-136
-134
-134
-134
-134
-133
-134
-134
-132
-129
-125
-122
-120
-119
-119
-117
-116
-113
-113
-111
-111
-109
-111
-109
-107
-110
-113
-118
-125
-129
-127
-130
-131
-134
-136
-138
-139
-140
-139
-141
-144
-143
-142
-145
-146
-146
-148
-147
-146
-145
-145
-144
-142
-157
-178
-192
-195
-183
-165
-155
-159
-184
-229
-261
-270
-248
-209
-183
-176
-170
-157
-146
-138
-137
-135
-133
-133
-133
-133
-133
-131
-131
-132
-131
-131
-131
-130
-130
-130
-128
-129
-127
-127
-124
-126
-126
-125
-122
-123
-125
-125
-125
-122
-122
-122
-123
-122
-122
-121
-121
-120
-119
-118
-118
-118
-118
-114
-116
-116
-113
-113
-112
-111
-110
-109
-107
-105
-103
-104
-102
-100
-98
-97
-95
-93
-91
-90
-88
-87
-87
-88
-91
-92
-94
-97
-102
-105
-109
-112
-118
-119
-121
-122
-127
-129
-130
-131
-131
-133
-133
-135
-135
-136
-135
-137
-135
-137
-137
-136
-136
-136
-136
-137
-137
-137
-136
-138
-138
-138
-139
-138
-138
-139
-139
-139
-139
-139
-138
-139
-139
-139
-138
-137
-138
-138
-136
-138
-137
-138
-138
-138
-138
-138
-137
-138
-137
-138
-137
-139
-137
-136
-138
-137
-136
-136
-137
-137
-136
-137
-136
-135
-137
-137
-137
-137
-136
-136
-135
-136
-136
-136
-136
-136
-136
-136
-136
-136
-136
-135
-136
-134
-133
-134
-134
-135
-134
-135
-134
-134
-134
-133
-134
-134
-134
-133
-132
-134
-134
-132
-131
-127
-125
-122
-121
-120
-121
-122
-120
-120
-119
-119
-120
-121
-122
-123
-122
-126
-131
-131
-131
-131
-132
-133
-136
-137
-139
-140
-139
-140
-142
-143
-143
-143
-143
-143
-145
-146
-145
-144
-144
-143
-141
-144
-161
-183
-192
-194
-183
-169
-157
-160
-174
-212
-242
-250
-237
-206
-183
-180
-173
-161
-151
-142
-140
-140
-139
-138
-136
-134
-135
-134
-133
-134
-132
-132
-131
-131
-131
-131
-131
-132
-131
-131
-131
-131
-131
-131
-131
-131
-130
-129
-128
-128
-125
-125
-127
-129
-129
-127
-127
-126
-125
-126
-127
-127
-127
-125
-124
-122
-123
-121
-120
-118
-119
-115
-113
-113
-111
-109
-107
-108
-105
-104
-103
-104
-101
-100
-99
-100
-101
-102
-104
-107
-109
-113
-117
-120
-123
-126
-128
-130
-131
-136
-138
-138
-139
-139
-139
-140
-140
-141
-141
-143
-144
-144
-143
-141
-142
-142
-143
-145
-145
-144
-144
-147
-146
-143
-141
-144
-145
-145
-145
-146
-145
-146
-145
-146
-146
-146
-145
-146
-146
-146
-145
-146
-144
-146
-146
-146
-147
-148
-148
-150
-148
-148
-147
-146
-145
-146
-145
-146
-146
-146
-145
-146
-145
-145
-144
-143
-142
-143
-144
-144
-145
-145
-143
-142
-143
-141
-143
-142
-141
-139
-142
-141
-141
-139
-141
-142
-140
-139
-139
-139
-140
-140
-141
-141
-142
-140
-143
-143
-141
-139
-138
-137
-134
-130
-128
-130
-128
-128
-127
-123
-122
-121
-118
-116
-119
-118
-116
-116
-120
-127
-131
-133
-132
-138
-140
-140
-139
-143
-145
-144
-143
-148
-148
-148
-148
-151
-151
-154
-150
-151
-152
-151
-150
-146
-146
-163
-187
-200
-200
-191
-174
-169
-165
-168
-183
-199
-214
-222
-213
-201
-191
-184
-174
-161
-152
-147
-145
-146
-146
-146
-145
-145
-145
-145
-143
-140
-139
-139
-139
-138
-139
-139
-138
-139
-138
-136
-139
-139
-139
-138
-139
-141
-141
-139
-139
-140
-139
-139
-138
-138
-137
-136
-133
-134
-135
-133
-133
-131
-133
-132
-131
-130
-131
-130
-127
-125
-122
-122
-123
-122
-121
-118
-116
-115
-112
-111
-111
-111
-107
-104
-105
-103
-103
-104
-105
-106
-110
-112
-116
-120
-122
-123
-128
-130
-131
-133
-134
-135
-134
-138
-139
-139
-140
-141
-141
-143
-142
-141
-140
-140
-139
-142
-141
-141
-141
-141
-140
-141
-142
-141
-141
-143
-143
-143
-143
-143
-143
-144
-143
-144
-143
-142
-143
-142
-143
-142
-143
-143
-143
-143
-143
-141
-141
-141
-141
-140
-140
-140
-142
-139
-139
-139
-140
-139
-141
-141
-139
-141
-141
-140
-140
-140
-139
-139
-138
-139
-139
-139
-138
-137
-137
-136
-136
-135
-135
-135
-137
-136
-136
-135
-135
-134
-134
-134
-134
-133
-133
-133
-134
-134
-133
-132
-132
-131
-130
-126
-123
-120
-117
-117
-116
-116
-114
-111
-108
-107
-106
-105
-103
-102
-102
-105
-111
-118
-124
-124
-125
-128
-131
-132
-135
-136
-136
-136
-137
-138
-139
-140
-140
-141
-143
-144
-143
-142
-141
-143
-141
-139
-142
-159
-181
-189
-188
-174
-159
-151
-156
-175
-211
-234
-243
-227
-198
-182
-175
-168
-156
-145
-139
-132
-135
-134
-133
-131
-133
-132
-133
-134
-134
-132
-131
-132
-131
-130
-131
-131
-129
-129
-127
-126
-125
-126
-124
-124
-124
-124
-123
-123
-123
-123
-123
-122
-123
-122
-122
-121
-121
-121
-122
-122
-121
-119
-119
-116
-115
-113
-113
-113
-112
-111
-109
-106
-105
-104
-101
-100
-96
-96
-92
-93
-92
-90
-90
-88
-87
-89
-93
-94
-97
-101
-105
-108
-112
-115
-120
-122
-125
-127
-129
-130
-131
-131
-131
-133
-134
-134
-134
-134
-133
-134
-135
-135
-135
-136
-137
-138
-139
-139
-139
-138
-139
-138
-138
-138
-139
-138
-137
-136
-138
-135
-138
-137
-136
-136
-138
-138
-137
-139
-137
-137
-137
-136
-136
-137
-136
-136
-137
-136
-136
-136
-136
-137
-138
-136
-137
-135
-136
-134
-134
-134
-136
-134
-136
-135
-136
-134
-134
-133
-134
-134
-133
-133
-133
-133
-132
-133
-132
-133
-134
-134
-132
-134
-133
-134
-131
-132
-131
-133
-131
-132
-131
-131
-133
-133
-133
-133
-133
-131
-131
-131
-131
-129
-124
-121
-120
-117
-118
-118
-118
-116
-114
-114
-113
-113
-114
-113
-114
-115
-118
-123
-124
-126
-126
-125
-126
-128
-131
-134
-134
-136
-136
-135
-137
-137
-138
-138
-139
-140
-139
-138
-139
-139
-139
-136
-135
-142
-163
-180
-188
-184
-168
-157
-149
-158
-190
-229
-250
-252
-226
-192
-177
-172
-163
-149
-138
-131
-131
-131
-132
-131
-131
-131
-130
-128
-129
-128
-128
-127
-127
-127
-126
-126
-125
-123
-123
-123
-122
-123
-122
-122
-121
-121
-121
-121
-120
-120
-121
-120
-120
-120
-118
-117
-115
-116
-116
-116
-117
-116
-114
-113
-113
-113
-112
-111
-109
-108
-106
-105
-105
-103
-102
-100
-98
-96
-95
-93
-92
-90
-88
-87
-87
-87
-87
-90
-92
-95
-97
-102
-105
-109
-113
-114
-120
-121
-123
-124
-126
-129
-130
-129
-131
-131
-131
-131
-132
-132
-133
-131
-133
-134
-132
-134
-134
-135
-134
-137
-136
-134
-132
-132
-135
-133
-134
-133
-135
-135
-136
-134
-135
-134
-132
-134
-134
-134
-135
-134
-134
-135
-135
-135
-136
-135
-136
-135
-134
-133
-132
-133
-134
-134
-134
-136
-134
-133
-132
-134
-134
-133
-131
-134
-135
-134
-131
-131
-131
-131
-131
-131
-132
-133
-132
-128
-130
-131
-128
-131
-131
-130
-130
-131
-129
-130
-131
-131
-131
-129
-131
-131
-131
-131
-131
-131
-131
-131
-131
-133
-131
-128
-123
-121
-119
-117
-117
-119
-119
-117
-113
-112
-109
-109
-110
-107
-106
-107
-112
-115
-120
-122
-123
-126
-131
-131
-133
-136
-137
-137
-139
-139
-139
-136
-140
-141
-140
-141
-141
-142
-143
-142
-142
-141
-139
-143
-160
-182
-190
-188
-174
-163
-156
-156
-164
-184
-200
-216
-220
-203
-187
-181
-177
-168
-153
-143
-138
-138
-137
-137
-137
-137
-133
-134
-131
-131
-130
-132
-131
-131
-134
-132
-134
-132
-131
-131
-130
-128
-131
-131
-130
-128
-128
-128
-129
-127
-126
-127
-126
-125
-124
-124
-125
-126
-126
-127
-127
-126
-123
-123
-123
-123
-121
-121
-119
-117
-116
-116
-115
-114
-113
-109
-109
-107
-106
-105
-101
-98
-98
-96
-96
-93
-94
-96
-98
-102
-105
-106
-110
-114
-114
-118
-121
-123
-125
-128
-131
-131
-129
-130
-131
-131
-131
-134
-136
-137
-136
-135
-136
-136
-136
-136
-135
-135
-135
-135
-135
-134
-136
-138
-137
-136
-137
-138
-138
-138
-137
-136
-137
-138
-138
-139
-136
-138
-138
-139
-136
-138
-136
-135
-138
-139
-139
-139
-139
-139
-139
-138
-135
-136
-138
-139
-138
-139
-139
-138
-138
-138
-139
-138
-135
-138
-138
-136
-135
-138
-138
-138
-140
-141
-139
-137
-138
-139
-138
-138
-136
-139
-139
-139
-139
-139
-139
-135
-135
-135
-134
-133
-136
-136
-134
-133
-136
-136
-135
-134
-128
-125
-124
-125
-123
-123
-121
-119
-116
-113
-109
-106
-108
-109
-107
-106
-111
-116
-121
-124
-127
-129
-131
-133
-136
-138
-138
-138
-136
-139
-140
-143
-143
-143
-143
-143
-143
-142
-142
-142
-143
-141
-139
-139
-150
-174
-186
-191
-183
-170
-157
-151
-153
-166
-185
-200
-211
-209
-196
-184
-178
-171
-160
-148
-139
-136
-136
-137
-135
-135
-134
-133
-133
-132
-132
-133
-133
-133
-133
-131
-131
-131
-131
-131
-131
-131
-130
-129
-128
-129
-130
-129
-129
-129
-127
-126
-126
-127
-125
-124
-123
-122
-123
-123
-122
-120
-121
-121
-120
-120
-118
-117
-116
-115
-113
-113
-113
-112
-109
-106
-107
-104
-101
-99
-98
-96
-95
-94
-93
-93
-93
-93
-94
-96
-96
-98
-100
-102
-105
-111
-113
-114
-116
-118
-121
-122
-123
-125
-127
-127
-129
-129
-129
-130
-130
-131
-129
-131
-132
-132
-131
-133
-134
-134
-133
-133
-133
-132
-134
-133
-134
-133
-134
-132
-133
-134
-134
-134
-134
-134
-134
-133
-134
-133
-134
-134
-133
-134
-134
-135
-134
-136
-134
-134
-134
-134
-134
-133
-134
-134
-134
-134
-134
-134
-133
-133
-134
-134
-133
-134
-134
-131
-132
-132
-132
-131
-134
-131
-131
-131
-131
-131
-131
-131
-131
-131
-131
-131
-131
-131
-131
-131
-131
-131
-131
-130
-131
-131
-131
-131
-130
-129
-130
-130
-129
-129
-131
-128
-128
-127
-124
-121
-117
-114
-113
-111
-111
-111
-106
-105
-104
-103
-102
-104
-104
-102
-102
-105
-108
-114
-117
-120
-119
-122
-122
-126
-128
-128
-132
-131
-131
-133
-135
-135
-136
-135
-134
-138
-137
-138
-138
-137
-136
-136
-134
-138
-153
-174
-183
-183
-170
-156
-146
-153
-174
-219
-250
-259
-239
-200
-177
-168
-163
-150
-139
-131
-128
-128
-128
-127
-128
-126
-126
-125
-126
-124
-125
-124
-124
-123
-123
-123
-123
-124
-121
-122
-121
-122
-120
-119
-119
-115
-118
-117
-116
-117
-116
-115
-115
-114
-114
-114
-113
-113
-113
-113
-113
-113
-112
-111
-111
-111
-109
-109
-109
-106
-105
-103
-102
-101
-99
-96
-95
-94
-91
-88
-87
-85
-83
-81
-80
-80
-81
-81
-83
-88
-93
-96
-102
-105
-106
-110
-114
-114
-116
-120
-122
-123
-124
-125
-128
-129
-128
-129
-130
-130
-131
-131
-131
-132
-131
-131
-131
-132
-133
-134
-134
-134
-133
-134
-134
-134
-134
-132
-134
-134
-133
-133
-133
-133
-133
-131
-131
-131
-131
-131
-132
-131
-132
-130
-131
-132
-132
-133
-131
-131
-131
-133
-131
-132
-132
-131
-131
-131
-131
-131
-131
-132
-132
-131
-131
-131
-132
-131
-131
-131
-131
-132
-131
-131
-131
-131
-131
-131
-131
-131
-131
-130
-129
-129
-130
-131
-129
-130
-130
-130
-130
-130
-130
-128
-127
-129
-130
-131
-128
-129
-131
-130
-131
-130
-128
-128
-128
-123
-120
-118
-118
-114
-113
-113
-113
-114
-113
-111
-111
-113
-113
-113
-112
-113
-119
-122
-123
-124
-123
-124
-126
-128
-131
-132
-133
-133
-133
-134
-137
-137
-137
-136
-135
-135
-137
-136
-138
-137
-136
-134
-134
-143
-165
-178
-186
-183
-166
-155
-149
-157
-187
-226
-244
-248
-226
-192
-176
-171
-165
-149
-138
-132
-131
-131
-131
-130
-129
-128
-128
-128
-128
-128
-127
-127
-127
-124
-124
-124
-123
-122
-122
-122
-123
-122
-123
-124
-123
-122
-124
-124
-124
-123
-121
-120
-119
-120
-119
-120
-118
-122
-121
-120
-122
-119
-119
-119
-120
-119
-118
-117
-116
-114
-113
-111
-109
-108
-106
-103
-101
-100
-96
-95
-92
-91
-91
-89
-90
-90
-92
-95
-96
-98
-103
-107
-110
-113
-115
-120
-122
-124
-126
-127
-129
-129
-131
-131
-132
-133
-135
-133
-135
-136
-135
-134
-136
-135
-136
-138
-135
-136
-137
-138
-137
-139
-138
-138
-138
-137
-138
-138
-139
-139
-138
-139
-138
-138
-137
-137
-137
-138
-138
-137
-136
-139
-139
-137
-137
-136
-137
-135
-136
-135
-137
-138
-139
-138
-137
-138
-139
-137
-137
-137
-135
-135
-134
-134
-135
-137
-135
-137
-139
-138
-137
-138
-137
-137
-137
-138
-137
-137
-136
-136
-135
-135
-137
-136
-136
-136
-136
-137
-138
-138
-137
-135
-137
-135
-138
-139
-139
-139
-139
-139
-138
-139
-137
-135
-133
-131
-129
-126
-124
-123
-125
-125
-123
-120
-119
-118
-118
-116
-116
-113
-113
-118
-123
-129
-132
-131
-134
-139
-139
-140
-139
-141
-143
-144
-146
-147
-148
-149
-148
-148
-147
-146
-147
-148
-147
-147
-146
-145
-153
-174
-192
-196
-190
-176
-165
-157
-160
-173
-189
-202
-213
-211
-200
-189
-181
-178
-166
-152
-142
-140
-141
-139
-139
-141
-140
-141
-139
-139
-140
-140
-138
-139
-136
-139
-139
-136
-136
-136
-136
-134
-134
-134
-133
-134
-134
-134
-135
-134
-132
-133
-131
-132
-131
-132
-131
-131
-133
-131
-129
-128
-129
-129
-127
-127
-127
-127
-126
-127
-125
-123
-122
-120
-118
-118
-118
-115
-113
-109
-109
-105
-105
-100
-100
-97
-98
-98
-102
-104
-106
-112
-113
-112
-113
-119
-121
-123
-127
-126
-130
-131
-134
-132
-134
-134
-134
-135
-137
-138
-138
-139
-138
-139
-139
-139
-139
-138
-139
-140
-140
-139
-139
-138
-139
-138
-139
-138
-139
-139
-139
-140
-139
-139
-136
-138
-136
-138
-136
-139
-139
-138
-136
-139
-138
-139
-139
-138
-137
-138
-138
-137
-137
-138
-134
-135
-137
-136
-134
-134
-135
-136
-134
-134
-136
-136
-135
-135
-136
-137
-136
-134
-133
-134
-132
-132
-132
-131
-131
-132
-133
-131
-131
-131
-131
-129
-130
-130
-130
-129
-129
-130
-130
-127
-129
-129
-128
-127
-130
-131
-130
-129
-129
-129
-127
-127
-122
-119
-116
-113
-113
-113
-113
-112
-110
-106
-105
-104
-104
-103
-101
-100
-104
-108
-116
-122
-122
-122
-126
-127
-128
-131
-134
-133
-134
-132
-135
-135
-135
-137
-135
-138
-138
-138
-138
-138
-137
-137
-134
-138
-154
-176
-184
-185
-170
-157
-146
-150
-166
-201
-223
-235
-223
-194
-176
-169
-164
-154
-140
-132
-130
-128
-127
-127
-127
-127
-127
-126
-126
-127
-125
-125
-124
-124
-124
-123
-123
-123
-122
-121
-122
-120
-120
-121
-119
-119
-119
-119
-118
-118
-116
-117
-115
-113
-115
-115
-113
-112
-113
-113
-113
-113
-112
-112
-111
-111
-109
-107
-105
-107
-105
-104
-101
-101
-98
-96
-92
-91
-88
-86
-84
-82
-81
-79
-78
-78
-77
-78
-78
-83
-85
-88
-92
-96
-101
-104
-106
-111
-113
-115
-116
-118
-121
-122
-123
-124
-125
-127
-125
-128
-129
-129
-128
-130
-129
-130
-130
-130
-130
-131
-131
-129
-129
-130
-130
-129
-129
-129
-128
-130
-131
-131
-130
-130
-130
-128
-129
-129
-131
-131
-131
-131
-131
-131
-132
-132
-131
-132
-131
-131
-131
-131
-131
-131
-131
-131
-132
-131
-131
-132
-131
-131
-131
-130
-131
-131
-131
-128
-130
-131
-130
-131
-130
-128
-129
-129
-128
-128
-130
-128
-130
-129
-129
-129
-128
-128
-128
-129
-128
-128
-128
-128
-130
-128
-128
-129
-129
-128
-128
-127
-127
-128
-127
-127
-128
-128
-127
-127
-127
-127
-128
-128
-125
-122
-120
-117
-116
-113
-111
-113
-113
-112
-109
-112
-109
-111
-113
-112
-111
-111
-113
-118
-121
-122
-123
-121
-123
-125
-128
-130
-131
-132
-132
-133
-136
-134
-136
-134
-134
-134
-135
-135
-136
-135
-136
-135
-132
-135
-155
-175
-184
-184
-170
-156
-146
-152
-178
-219
-244
-249
-226
-191
-174
-168
-161
-148
-135
-127
-129
-131
-130
-130
-129
-127
-125
-125
-125
-123
-123
-124
-124
-122
-122
-123
-123
-122
-122
-121
-121
-122
-122
-121
-119
-120
-119
-119
-118
-118
-118
-118
-117
-116
-116
-114
-115
-115
-116
-114
-113
-113
-113
-112
-111
-111
-109
-107
-108
-106
-103
-104
-102
-102
-99
-98
-96
-96
-94
-92
-91
-89
-90
-86
-86
-86
-86
-84
-86
-87
-92
-96
-98
-101
-105
-108
-111
-113
-116
-119
-122
-122
-123
-123
-125
-127
-125
-127
-127
-127
-127
-127
-127
-128
-129
-128
-127
-127
-127
-127
-128
-128
-128
-128
-130
-129
-131
-130
-130
-126
-131
-131
-130
-130
-131
-132
-131
-131
-131
-131
-131
-131
-132
-131
-132
-132
-131
-132
-133
-132
-131
-133
-132
-134
-132
-131
-133
-133
-134
-134
-133
-135
-135
-136
-136
-134
-134
-135
-136
-134
-136
-135
-135
-135
-136
-136
-136
-134
-133
-134
-132
-134
-134
-136
-134
-135
-134
-135
-131
-134
-134
-135
-136
-136
-135
-134
-134
-134
-134
-134
-133
-134
-134
-135
-134
-135
-134
-133
-133
-131
-134
-133
-131
-130
-127
-125
-123
-121
-121
-122
-123
-121
-117
-118
-117
-120
-119
-117
-118
-121
-124
-129
-131
-131
-131
-131
-131
-133
-136
-135
-137
-137
-138
-137
-140
-140
-141
-143
-144
-142
-141
-143
-141
-141
-141
-137
-139
-150
-174
-191
-195
-188
-172
-160
-155
-158
-174
-197
-213
-226
-217
-197
-183
-179
-175
-161
-146
-139
-136
-136
-134
-135
-135
-137
-136
-136
-134
-133
-133
-134
-131
-134
-131
-130
-127
-129
-129
-130
-127
-130
-131
-131
-130
-128
-131
-128
-128
-126
-127
-128
-125
-125
-127
-128
-127
-126
-128
-128
-126
-125
-125
-125
-125
-124
-123
-122
-120
-119
-116
-117
-116
-114
-113
-111
-109
-106
-106
-106
-105
-102
-101
-98
-96
-95
-95
-95
-96
-98
-99
-100
-104
-106
-110
-112
-116
-121
-123
-126
-128
-131
-133
-134
-134
-136
-135
-136
-138
-138
-139
-139
-139
-139
-140
-142
-143
-141
-143
-142
-145
-145
-145
-145
-146
-145
-145
-142
-142
-143
-145
-148
-146
-145
-145
-144
-143
-144
-145
-145
-144
-143
-144
-144
-143
-142
-142
-144
-144
-143
-141
-144
-143
-144
-146
-146
-146
-145
-145
-145
-144
-146
-146
-146
-146
-148
-146
-144
-145
-145
-145
-145
-143
-144
-143
-145
-145
-145
-145
-144
-143
-143
-142
-144
-144
-145
-146
-146
-147
-144
-143
-144
-146
-145
-147
-147
-146
-145
-146
-145
-146
-144
-145
-145
-144
-141
-143
-138
-136
-132
-131
-130
-132
-133
-128
-127
-123
-121
-118
-118
-117
-117
-116
-121
-128
-132
-135
-135
-138
-141
-143
-146
-147
-148
-149
-150
-152
-152
-153
-154
-154
-154
-155
-153
-153
-154
-155
-155
-152
-150
-155
-176
-195
-203
-197
-184
-171
-164
-163
-174
-191
-209
-223
-220
-208
-196
-190
-183
-173
-160
-149
-147
-147
-146
-146
-145
-144
-144
-142
-140
-141
-141
-139
-139
-139
-139
-138
-136
-137
-135
-136
-137
-136
-136
-135
-136
-136
-135
-134
-133
-133
-131
-131
-131
-131
-131
-131
-131
-131
-128
-129
-127
-128
-128
-128
-125
-126
-124
-122
-123
-122
-122
-120
-118
-116
-115
-113
-113
-111
-109
-108
-107
-104
-102
-101
-100
-98
-96
-98
-99
-102
-103
-107
-111
-116
-117
-121
-123
-126
-128
-131
-131
-131
-132
-134
-135
-138
-138
-138
-138
-139
-139
-139
-139
-140
-141
-139
-140
-141
-141
-139
-141
-141
-143
-143
-143
-143
-142
-145
-142
-143
-143
-144
-145
-144
-144
-143
-143
-143
-143
-145
-145
-145
-146
-146
-146
-145
-145
-144
-144
-143
-142
-143
-143
-143
-143
-145
-144
-144
-145
-145
-144
-143
-143
-143
-143
-142
-142
-141
-142
-142
-139
-141
-142
-142
-139
-141
-141
-141
-141
-140
-139
-140
-141
-140
-139
-139
-139
-139
-139
-139
-140
-139
-139
-140
-139
-138
-139
-139
-139
-139
-140
-139
-139
-139
-139
-140
-139
-139
-138
-133
-129
-126
-124
-122
-122
-122
-120
-116
-115
-114
-113
-113
-113
-113
-113
-114
-120
-124
-130
-129
-131
-134
-136
-137
-140
-143
-143
-144
-144
-147
-148
-147
-146
-148
-148
-148
-149
-150
-150
-148
-148
-146
-151
-172
-191
-199
-196
-180
-165
-158
-170
-200
-242
-267
-269
-242
-205
-187
-181
-174
-159
-147
-141
-142
-141
-142
-140
-139
-139
-138
-136
-138
-137
-137
-134
-135
-136
-136
-134
-134
-134
-132
-134
-132
-132
-131
-131
-130
-129
-128
-127
-126
-126
-127
-125
-125
-125
-124
-124
-123
-123
-123
-122
-122
-121
-121
-121
-120
-120
-117
-117
-115
-113
-113
-111
-110
-108
-105
-105
-102
-99
-99
-96
-95
-92
-90
-90
-90
-88
-88
-93
-94
-96
-98
-104
-106
-111
-113
-115
-117
-122
-125
-128
-131
-131
-131
-136
-136
-138
-138
-139
-139
-139
-139
-139
-141
-141
-141
-141
-142
-143
-143
-143
-143
-145
-143
-143
-143
-143
-144
-145
-143
-145
-144
-142
-143
-143
-144
-145
-145
-144
-144
-144
-143
-141
-143
-143
-143
-140
-142
-141
-142
-142
-142
-142
-141
-141
-141
-142
-141
-139
-139
-140
-141
-140
-140
-141
-141
-141
-141
-140
-140
-140
-141
-141
-141
-140
-140
-140
-140
-140
-140
-139
-139
-140
-140
-139
-140
-139
-139
-139
-139
-139
-139
-139
-139
-139
-139
-139
-137
-139
-139
-139
-138
-139
-138
-139
-139
-139
-138
-138
-139
-138
-138
-137
-134
-133
-131
-127
-127
-123
-124
-126
-126
-124
-122
-120
-120
-121
-122
-122
-123
-125
-131
-134
-134
-135
-136
-137
-137
-138
-140
-144
-144
-144
-146
-146
-146
-146
-146
-146
-148
-148
-147
-146
-147
-148
-148
-144
-152
-174
-192
-199
-192
-175
-165
-160
-171
-204
-237
-255
-252
-223
-194
-185
-181
-171
-157
-146
-141
-141
-141
-141
-141
-139
-139
-139
-139
-139
-139
-139
-138
-137
-138
-136
-136
-134
-134
-134
-136
-135
-134
-134
-134
-133
-133
-134
-136
-132
-131
-131
-131
-131
-130
-131
-130
-131
-131
-130
-128
-128
-130
-131
-130
-130
-128
-125
-125
-124
-122
-122
-121
-121
-119
-116
-113
-111
-107
-106
-105
-105
-102
-100
-99
-102
-102
-103
-105
-106
-111
-113
-117
-123
-126
-128
-131
-131
-132
-135
-137
-139
-139
-139
-139
-139
-143
-143
-143
-142
-144
-145
-143
-144
-143
-143
-143
-145
-143
-145
-145
-145
-145
-146
-146
-146
-145
-146
-146
-145
-146
-148
-150
-146
-145
-145
-146
-147
-148
-146
-146
-145
-145
-144
-146
-145
-146
-148
-146
-147
-147
-147
-146
-148
-148
-148
-148
-148
-148
-148
-145
-146
-146
-148
-145
-146
-146
-147
-147
-146
-146
-146
-148
-148
-146
-145
-145
-145
-144
-145
-146
-146
-145
-146
-146
-144
-143
-145
-144
-143
-142
-143
-142
-142
-145
-145
-143
-143
-144
-143
-141
-142
-145
-143
-141
-138
-136
-133
-131
-131
-131
-130
-127
-125
-123
-122
-119
-117
-117
-113
-116
-121
-126
-132
-136
-135
-139
-143
-142
-145
-148
-148
-146
-148
-148
-150
-152
-154
-154
-155
-154
-154
-155
-157
-152
-152
-152
-155
-177
-197
-202
-197
-182
-167
-161
-159
-170
-188
-202
-217
-221
-211
-200
-191
-183
-171
-159
-152
-147
-146
-144
-148
-146
-146
-143
-145
-144
-145
-146
-145
-142
-141
-141
-140
-140
-140
-143
-142
-141
-140
-141
-141
-141
-140
-139
-139
-139
-138
-136
-137
-136
-137
-138
-137
-137
-137
-135
-136
-135
-135
-134
-134
-134
-132
-130
-128
-127
-128
-126
-125
-124
-120
-118
-116
-118
-115
-113
-112
-111
-109
-109
-108
-106
-103
-106
-109
-109
-113
-113
-117
-120
-123
-125
-128
-131
-134
-137
-139
-140
-141
-143
-144
-146
-146
-146
-146
-148
-147
-146
-146
-148
-147
-146
-146
-147
-148
-147
-148
-148
-148
-148
-148
-148
-150
-148
-148
-148
-149
-148
-148
-147
-148
-148
-148
-147
-148
-147
-147
-144
-147
-147
-146
-147
-146
-143
-144
-143
-144
-143
-144
-142
-144
-143
-143
-143
-142
-141
-142
-143
-142
-142
-139
-140
-141
-141
-140
-140
-139
-139
-139
-139
-139
-139
-139
-139
-139
-137
-136
-137
-137
-138
-139
-138
-138
-136
-136
-138
-138
-138
-136
-137
-137
-136
-133
-135
-137
-137
-137
-134
-131
-128
-125
-122
-121
-121
-118
-119
-116
-114
-113
-110
-109
-110
-108
-106
-107
-112
-117
-123
-129
-128
-131
-133
-135
-138
-139
-141
-142
-144
-145
-146
-146
-147
-147
-148
-148
-148
-149
-148
-148
-145
-144
-146
-162
-182
-195
-195
-184
-166
-157
-164
-186
-221
-244
-254
-236
-205
-187
-181
-174
-157
-149
-142
-141
-142
-141
-140
-140
-139
-139
-139
-139
-138
-138
-138
-136
-135
-135
-135
-134
-134
-134
-134
-133
-133
-132
-132
-131
-131
-130
-130
-130
-130
-130
-128
-128
-127
-127
-126
-123
-125
-124
-123
-121
-124
-123
-122
-122
-121
-120
-118
-120
-117
-115
-113
-111
-109
-106
-105
-104
-100
-97
-96
-96
-94
-90
-90
-91
-90
-93
-96
-98
-103
-106
-111
-113
-116
-121
-123
-126
-128
-128
-131
-131
-132
-134
-135
-135
-137
-136
-136
-135
-138
-139
-137
-139
-139
-139
-138
-139
-139
-140
-140
-139
-140
-140
-141
-140
-140
-142
-141
-141
-142
-142
-141
-142
-142
-142
-140
-139
-140
-140
-141
-139
-141
-140
-141
-142
-143
-143
-143
-143
-144
-143
-143
-143
-142
-143
-143
-143
-142
-141
-141
-141
-141
-141
-142
-141
-142
-139
-141
-141
-141
-139
-141
-140
-141
-141
-139
-139
-140
-140
-139
-139
-139
-141
-139
-138
-139
-139
-138
-138
-139
-139
-139
-139
-139
-139
-139
-138
-139
-138
-138
-137
-139
-138
-137
-135
-135
-131
-128
-124
-122
-121
-121
-121
-120
-118
-116
-115
-113
-116
-118
-116
-116
-120
-123
-129
-131
-131
-131
-134
-138
-139
-141
-142
-144
-145
-144
-146
-147
-148
-148
-148
-148
-148
-150
-149
-148
-148
-148
-146
-150
-171
-191
-196
-192
-177
-163
-156
-164
-189
-226
-249
-256
-233
-200
-184
-180
-174
-160
-148
-141
-139
-139
-138
-137
-138
-135
-134
-135
-136
-135
-133
-134
-132
-133
-133
-131
-131
-131
-132
-131
-130
-131
-130
-128
-129
-128
-128
-127
-126
-125
-126
-125
-124
-124
-124
-123
-123
-123
-123
-122
-122
-122
-121
-121
-120
-118
-116
-115
-116
-113
-113
-113
-112
-110
-108
-105
-103
-101
-98
-97
-96
-93
-93
-91
-88
-87
-88
-92
-96
-99
-102
-105
-109
-113
-116
-119
-122
-124
-127
-129
-131
-131
-132
-133
-133
-135
-136
-138
-139
-138
-138
-139
-139
-139
-139
-139
-140
-139
-140
-139
-141
-141
-142
-140
-141
-141
-143
-142
-141
-139
-141
-142
-142
-142
-143
-142
-142
-143
-143
-144
-141
-142
-142
-141
-142
-140
-140
-140
-140
-141
-141
-141
-141
-139
-139
-139
-139
-140
-140
-139
-139
-140
-140
-141
-141
-141
-141
-141
-141
-141
-139
-139
-139
-139
-137
-138
-139
-139
-139
-139
-139
-140
-139
-139
-139
-138
-139
-139
-141
-140
-140
-138
-139
-139
-138
-136
-139
-139
-139
-137
-138
-138
-137
-134
-131
-131
-129
-127
-127
-127
-125
-124
-121
-117
-113
-114
-115
-115
-115
-113
-118
-121
-127
-131
-131
-131
-137
-139
-140
-142
-146
-145
-145
-147
-148
-150
-150
-148
-148
-150
-149
-150
-151
-150
-148
-148
-145
-153
-175
-196
-203
-197
-182
-170
-158
-159
-171
-194
-211
-226
-226
-207
-195
-189
-181
-170
-157
-148
-145
-144
-142
-141
-141
-141
-140
-142
-143
-143
-142
-139
-139
-139
-138
-138
-137
-137
-137
-139
-139
-138
-137
-134
-134
-134
-136
-135
-136
-133
-133
-133
-133
-131
-131
-131
-133
-131
-134
-133
-131
-127
-129
-131
-131
-130
-127
-126
-125
-123
-122
-120
-119
-116
-116
-114
-114
-113
-111
-106
-105
-104
-104
-103
-102
-100
-102
-105
-108
-109
-112
-116
-120
-122
-125
-130
-131
-134
-136
-138
-139
-140
-139
-141
-143
-145
-145
-145
-144
-146
-146
-146
-145
-146
-145
-146
-142
-144
-144
-143
-145
-146
-147
-146
-148
-148
-148
-148
-144
-147
-146
-148
-148
-148
-148
-148
-145
-145
-143
-145
-146
-145
-147
-150
-149
-149
-148
-148
-146
-148
-148
-146
-146
-146
-145
-145
-146
-146
-146
-145
-148
-148
-148
-148
-147
-146
-145
-143
-144
-145
-145
-145
-147
-145
-144
-145
-143
-141
-143
-143
-141
-141
-143
-141
-142
-143
-142
-143
-142
-143
-145
-143
-141
-143
-141
-141
-139
-139
-136
-133
-130
-128
-129
-130
-129
-125
-123
-120
-116
-113
-115
-114
-113
-113
-116
-122
-127
-131
-131
-133
-138
-139
-138
-142
-143
-144
-142
-145
-148
-148
-148
-148
-147
-148
-149
-148
-148
-147
-146
-145
-143
-153
-177
-194
-196
-185
-174
-162
-156
-156
-171
-189
-203
-213
-208
-196
-187
-182
-174
-161
-148
-141
-139
-138
-138
-137
-137
-135
-136
-136
-136
-136
-134
-134
-134
-133
-131
-131
-131
-131
-131
-128
-131
-131
-130
-129
-128
-128
-128
-128
-127
-127
-127
-127
-126
-125
-125
-124
-124
-124
-124
-124
-122
-123
-122
-121
-121
-121
-121
-120
-118
-117
-117
-116
-113
-113
-110
-107
-106
-105
-104
-102
-101
-99
-99
-97
-96
-96
-96
-99
-101
-104
-106
-110
-113
-118
-118
-121
-124
-127
-130
-131
-131
-133
-135
-134
-134
-135
-136
-135
-135
-136
-136
-136
-135
-135
-136
-136
-136
-135
-137
-137
-137
-138
-138
-138
-137
-139
-139
-139
-139
-139
-139
-139
-138
-138
-138
-139
-139
-139
-139
-139
-139
-138
-139
-139
-139
-138
-139
-140
-140
-138
-139
-139
-139
-139
-139
-138
-137
-138
-135
-135
-137
-135
-135
-136
-136
-135
-135
-134
-136
-135
-136
-136
-134
-134
-134
-135
-135
-134
-135
-136
-135
-134
-135
-134
-135
-134
-134
-132
-134
-134
-133
-133
-134
-134
-134
-132
-132
-129
-124
-121
-117
-118
-117
-116
-112
-113
-113
-111
-110
-109
-110
-107
-108
-111
-113
-118
-125
-126
-126
-129
-131
-133
-135
-137
-139
-139
-140
-142
-144
-143
-145
-146
-146
-146
-146
-146
-145
-146
-145
-144
-144
-157
-178
-191
-194
-185
-167
-154
-157
-175
-220
-255
-268
-252
-213
-185
-178
-174
-161
-146
-139
-138
-137
-139
-136
-136
-136
-136
-135
-135
-136
-136
-134
-134
-134
-133
-132
-133
-132
-131
-130
-130
-128
-128
-127
-126
-128
-127
-127
-125
-126
-125
-124
-123
-124
-124
-123
-122
-122
-120
-121
-120
-121
-121
-120
-119
-118
-116
-115
-113
-110
-111
-110
-107
-105
-105
-102
-100
-96
-96
-93
-91
-91
-88
-87
-86
-87
-87
-88
-90
-94
-98
-104
-106
-111
-114
-118
-121
-122
-125
-127
-129
-130
-131
-132
-133
-132
-134
-133
-134
-134
-136
-134
-135
-136
-137
-135
-137
-138
-137
-138
-137
-137
-137
-136
-136
-139
-138
-138
-136
-138
-137
-136
-135
-137
-138
-138
-138
-138
-137
-137
-137
-135
-136
-137
-136
-137
-137
-137
-138
-137
-136
-137
-137
-137
-137
-136
-135
-135
-135
-136
-135
-137
-136
-136
-134
-136
-137
-137
-136
-136
-136
-135
-136
-134
-135
-135
-136
-134
-133
-132
-132
-133
-133
-131
-133
-131
-131
-131
-133
-134
-132
-134
-131
-131
-128
-125
-122
-118
-113
-113
-113
-113
-109
-106
-105
-104
-103
-103
-104
-103
-105
-107
-110
-116
-123
-123
-122
-125
-128
-130
-132
-132
-135
-133
-134
-135
-136
-138
-138
-139
-139
-139
-139
-139
-137
-138
-137
-136
-132
-144
-166
-186
-189
-185
-170
-156
-152
-163
-198
-235
-252
-249
-216
-189
-174
-171
-161
-147
-137
-131
-131
-130
-130
-129
-129
-129
-127
-127
-127
-127
-126
-127
-127
-126
-124
-124
-124
-125
-124
-123
-123
-121
-121
-121
-122
-121
-122
-121
-120
-120
-120
-121
-119
-118
-120
-120
-118
-118
-119
-120
-119
-119
-117
-118
-115
-114
-113
-113
-111
-107
-108
-106
-106
-105
-104
-102
-100
-98
-96
-94
-92
-90
-88
-87
-88
-90
-92
-95
-97
-101
-105
-109
-110
-113
-116
-117
-121
-122
-125
-127
-127
-128
-131
-131
-131
-131
-132
-133
-133
-136
-136
-137
-135
-138
-134
-134
-136
-136
-134
-135
-137
-136
-136
-136
-135
-138
-138
-139
-138
-138
-137
-138
-139
-138
-137
-138
-139
-139
-139
-139
-137
-136
-136
-138
-139
-139
-139
-138
-138
-136
-138
-138
-139
-139
-140
-139
-139
-140
-139
-138
-139
-139
-140
-139
-140
-140
-139
-137
-138
-139
-139
-139
-139
-139
-138
-138
-138
-139
-139
-139
-139
-139
-139
-140
-138
-137
-137
-138
-138
-139
-139
-139
-138
-137
-135
-131
-130
-127
-126
-127
-125
-124
-122
-119
-116
-113
-112
-113
-113
-111
-111
-113
-116
-122
-126
-126
-127
-133
-135
-139
-139
-140
-139
-139
-140
-143
-145
-146
-146
-148
-148
-146
-146
-146
-147
-144
-144
-143
-141
-148
-174
-194
-198
-194
-179
-167
-158
-157
-169
-188
-204
-219
-219
-208
-195
-187
-182
-172
-161
-148
-141
-140
-140
-141
-139
-139
-141
-139
-139
-139
-139
-139
-135
-133
-137
-135
-135
-134
-137
-137
-135
-136
-136
-136
-135
-136
-136
-137
-137
-136
-133
-132
-131
-131
-133
-132
-130
-130
-128
-128
-129
-129
-128
-127
-127
-127
-125
-124
-127
-124
-121
-120
-119
-118
-116
-114
-115
-112
-109
-108
-105
-105
-104
-104
-102
-102
-103
-105
-105
-109
-111
-116
-116
-121
-124
-129
-131
-131
-132
-135
-137
-139
-139
-140
-141
-139
-140
-140
-140
-140
-141
-143
-141
-141
-143
-143
-142
-140
-141
-141
-143
-143
-142
-144
-143
-141
-143
-143
-141
-139
-140
-139
-140
-140
-139
-139
-139
-140
-140
-139
-139
-140
-140
-139
-139
-139
-140
-138
-139
-139
-139
-139
-137
-137
-138
-139
-138
-136
-135
-136
-134
-134
-134
-136
-135
-136
-136
-136
-135
-134
-135
-133
-133
-133
-132
-131
-131
-132
-134
-132
-134
-132
-133
-132
-133
-132
-132
-131
-131
-131
-131
-131
-130
-129
-125
-123
-120
-116
-113
-115
-115
-113
-107
-108
-106
-105
-102
-103
-102
-98
-100
-103
-108
-117
-123
-121
-121
-126
-129
-131
-131
-133
-134
-134
-135
-137
-138
-139
-139
-138
-139
-140
-143
-141
-140
-139
-139
-135
-136
-151
-174
-187
-189
-178
-163
-150
-149
-164
-200
-231
-246
-237
-206
-181
-173
-168
-157
-142
-134
-130
-130
-128
-131
-129
-127
-129
-128
-127
-126
-127
-127
-125
-125
-124
-123
-122
-122
-122
-122
-121
-121
-120
-118
-118
-117
-119
-116
-116
-116
-116
-116
-115
-115
-115
-114
-114
-114
-113
-113
-112
-112
-111
-111
-111
-109
-109
-108
-106
-104
-105
-104
-103
-100
-100
-97
-96
-92
-91
-90
-88
-87
-85
-82
-80
-82
-82
-83
-86
-87
-93
-97
-99
-103
-106
-110
-113
-117
-120
-121
-123
-123
-125
-125
-126
-127
-127
-128
-130
-130
-129
-130
-131
-131
-132
-131
-131
-132
-131
-131
-131
-131
-131
-131
-131
-133
-132
-131
-130
-131
-131
-131
-129
-130
-130
-130
-130
-130
-129
-129
-130
-129
-129
-128
-127
-128
-128
-130
-130
-132
-131
-132
-132
-131
-132
-131
-132
-133
-133
-133
-132
-133
-133
-133
-132
-131
-132
-131
-132
-131
-131
-131
-133
-131
-131
-131
-133
-131
-131
-129
-131
-131
-131
-128
-131
-131
-131
-128
-131
-131
-131
-131
-130
-129
-129
-129
-125
-122
-118
-113
-113
-112
-113
-113
-113
-112
-112
-111
-111
-113
-113
-113
-113
-113
-118
-122
-121
-122
-121
-122
-124
-125
-128
-128
-130
-130
-131
-131
-133
-134
-134
-134
-135
-135
-134
-135
-134
-131
-131
-131
-131
-148
-168
-184
-186
-177
-158
-147
-150
-169
-211
-242
-252
-236
-200
-179
-172
-164
-151
-138
-131
-129
-128
-128
-128
-127
-127
-125
-125
-125
-124
-123
-122
-122
-122
-121
-121
-120
-119
-118
-118
-116
-116
-116
-116
-116
-116
-116
-117
-115
-114
-114
-113
-111
-113
-112
-111
-109
-111
-109
-109
-111
-109
-111
-108
-109
-106
-106
-105
-106
-105
-105
-102
-100
-99
-97
-96
-95
-95
-93
-90
-88
-86
-84
-83
-81
-80
-81
-82
-86
-87
-90
-93
-98
-101
-105
-111
-113
-115
-118
-119
-122
-125
-127
-128
-127
-129
-128
-128
-130
-130
-131
-128
-131
-131
-132
-131
-131
-132
-131
-133
-131
-131
-131
-135
-134
-135
-136
-135
-133
-133
-134
-132
-133
-134
-132
-131
-131
-131
-131
-131
-131
-131
-131
-132
-132
-132
-131
-131
-130
-130
-129
-131
-131
-131
-131
-131
-131
-133
-134
-133
-134
-132
-131
-131
-131
-131
-129
-131
-131
-130
-131
-131
-131
-131
-130
-128
-130
-131
-131
-128
-130
-131
-130
-131
-131
-130
-129
-130
-128
-128
-128
-128
-125
-122
-120
-117
-116
-116
-116
-114
-113
-111
-106
-105
-104
-105
-105
-105
-102
-102
-106
-112
-118
-120
-120
-124
-129
-130
-131
-133
-136
-133
-138
-139
-141
-141
-139
-139
-139
-143
-143
-143
-142
-143
-142
-139
-138
-148
-172
-189
-192
-185
-171
-160
-156
-158
-174
-196
-211
-223
-211
-195
-186
-182
-174
-158
-145
-139
-136
-138
-139
-139
-137
-137
-134
-133
-131
-133
-132
-133
-132
-133
-132
-133
-133
-133
-131
-133
-133
-131
-134
-133
-132
-131
-131
-131
-131
-129
-130
-129
-128
-126
-126
-125
-123
-125
-125
-125
-122
-122
-122
-122
-120
-120
-120
-120
-119
-116
-116
-113
-111
-111
-109
-106
-106
-106
-103
-99
-96
-96
-96
-95
-96
-96
-96
-98
-101
-105
-110
-112
-113
-115
-121
-122
-124
-128
-131
-131
-132
-135
-134
-136
-135
-137
-138
-137
-138
-138
-139
-139
-141
-140
-139
-139
-140
-140
-141
-142
-141
-142
-143
-142
-139
-139
-139
-138
-141
-143
-144
-144
-144
-141
-142
-143
-145
-144
-145
-143
-142
-144
-144
-143
-142
-142
-141
-141
-142
-142
-140
-139
-138
-141
-139
-140
-142
-142
-141
-142
-140
-139
-141
-141
-139
-140
-141
-141
-142
-140
-140
-140
-140
-139
-139
-138
-139
-138
-139
-139
-139
-139
-138
-138
-138
-137
-136
-137
-137
-137
-138
-137
-136
-134
-131
-129
-127
-123
-123
-121
-121
-117
-115
-113
-111
-108
-108
-105
-105
-105
-106
-114
-120
-125
-124
-125
-130
-133
-136
-134
-136
-136
-136
-136
-138
-140
-139
-139
-141
-143
-141
-140
-141
-141
-140
-139
-138
-139
-157
-179
-190
-189
-176
-162
-151
-146
-155
-180
-203
-218
-223
-206
-186
-175
-168
-161
-148
-137
-131
-131
-131
-131
-128
-129
-129
-129
-130
-128
-129
-130
-130
-128
-129
-128
-125
-127
-127
-127
-125
-126
-125
-123
-124
-124
-124
-122
-123
-123
-122
-123
-122
-121
-121
-120
-120
-120
-121
-121
-119
-119
-117
-117
-118
-116
-115
-115
-115
-114
-113
-111
-109
-107
-105
-101
-101
-98
-97
-94
-93
-92
-91
-89
-87
-87
-88
-90
-91
-94
-96
-99
-103
-107
-111
-114
-117
-120
-121
-122
-124
-125
-126
-127
-127
-128
-128
-129
-129
-129
-128
-129
-129
-130
-131
-130
-130
-130
-130
-130
-131
-132
-132
-131
-131
-131
-131
-131
-132
-133
-131
-131
-131
-131
-130
-131
-131
-131
-131
-131
-131
-131
-131
-131
-131
-132
-131
-131
-131
-131
-131
-131
-131
-132
-131
-131
-131
-131
-131
-131
-131
-131
-131
-131
-129
-130
-130
-130
-130
-131
-131
-131
-129
-127
-127
-129
-129
-129
-129
-128
-129
-128
-128
-129
-129
-127
-129
-127
-129
-126
-127
-128
-130
-130
-131
-130
-129
-130
-126
-123
-120
-120
-116
-114
-115
-117
-116
-113
-113
-113
-113
-115
-114
-114
-116
-119
-122
-124
-126
-127
-126
-128
-130
-131
-136
-135
-138
-139
-139
-141
-141
-142
-142
-143
-143
-142
-143
-143
-142
-140
-139
-140
-145
-165
-181
-191
-191
-177
-162
-154
-163
-192
-235
-257
-258
-229
-193
-177
-172
-164
-149
-139
-134
-134
-133
-132
-131
-132
-131
-131
-129
-129
-129
-129
-128
-127
-126
-126
-125
-124
-125
-126
-125
-125
-124
-124
-123
-123
-123
-122
-124
-122
-122
-122
-123
-121
-122
-121
-122
-120
-121
-121
-119
-121
-120
-118
-117
-117
-117
-115
-114
-113
-113
-111
-109
-107
-106
-105
-105
-104
-99
-98
-96
-92
-91
-90
-88
-88
-88
-88
-93
-95
-99
-103
-108
-111
-116
-119
-122
-124
-126
-129
-129
-130
-131
-131
-133
-134
-136
-135
-134
-135
-135
-137
-134
-135
-138
-138
-139
-138
-139
-139
-140
-139
-139
-139
-139
-139
-139
-139
-139
-139
-139
-139
-138
-139
-139
-139
-139
-139
-139
-138
-137
-137
-138
-138
-136
-137
-137
-137
-137
-137
-137
-137
-137
-137
-136
-136
-137
-137
-137
-137
-138
-138
-138
-136
-137
-137
-136
-133
-135
-135
-133
-134
-133
-133
-136
-135
-132
-131
-131
-132
-131
-131
-132
-131
-132
-133
-135
-134
-134
-134
-133
-132
-131
-131
-131
-131
-131
-131
-131
-128
-125
-122
-121
-118
-116
-116
-116
-116
-116
-115
-116
-113
-114
-114
-117
-118
-118
-118
-121
-124
-126
-127
-123
-125
-127
-129
-131
-132
-134
-135
-137
-136
-137
-139
-138
-139
-139
-139
-138
-137
-135
-135
-134
-134
-135
-154
-177
-188
-190
-178
-162
-151
-156
-177
-214
-238
-245
-228
-199
-180
-175
-169
-157
-142
-134
-131
-130
-131
-131
-131
-131
-130
-130
-127
-130
-130
-128
-127
-128
-128
-126
-125
-124
-125
-123
-122
-122
-122
-122
-125
-124
-123
-123
-123
-123
-123
-123
-123
-123
-122
-122
-121
-121
-121
-121
-120
-121
-120
-121
-121
-120
-118
-120
-117
-116
-116
-115
-113
-110
-108
-109
-105
-103
-102
-99
-97
-97
-97
-96
-97
-97
-99
-100
-105
-108
-112
-114
-120
-123
-125
-128
-130
-131
-133
-134
-134
-136
-137
-137
-139
-138
-139
-138
-138
-139
-139
-139
-139
-141
-141
-142
-143
-143
-140
-140
-140
-141
-141
-142
-143
-144
-144
-141
-140
-142
-142
-141
-143
-143
-143
-143
-143
-142
-140
-143
-143
-143
-140
-143
-141
-141
-139
-144
-144
-142
-144
-145
-142
-143
-143
-144
-144
-144
-141
-144
-143
-144
-144
-143
-146
-146
-146
-145
-146
-144
-142
-143
-143
-146
-146
-144
-143
-144
-143
-140
-141
-143
-140
-141
-141
-141
-143
-142
-142
-141
-139
-140
-143
-143
-143
-143
-143
-139
-136
-133
-133
-130
-131
-131
-130
-129
-129
-128
-123
-122
-121
-121
-119
-115
-121
-129
-135
-137
-134
-136
-140
-142
-144
-144
-146
-145
-144
-145
-146
-148
-150
-150
-151
-151
-151
-150
-151
-149
-150
-149
-148
-148
-165
-188
-196
-195
-181
-169
-161
-160
-166
-182
-194
-211
-215
-208
-192
-186
-178
-171
-159
-148
-141
-141
-142
-143
-142
-143
-139
-139
-138
-137
-138
-135
-133
-134
-135
-137
-136
-136
-136
-135
-134
-134
-134
-133
-133
-133
-132
-133
-133
-133
-133
-133
-132
-133
-133
-132
-131
-129
-130
-131
-131
-130
-130
-130
-130
-128
-129
-127
-127
-123
-124
-123
-122
-121
-118
-117
-115
-113
-111
-109
-108
-107
-105
-105
-104
-105
-107
-110
-113
-113
-118
-121
-123
-125
-129
-131
-131
-133
-136
-137
-138
-139
-139
-141
-143
-143
-143
-143
-143
-143
-143
-144
-142
-144
-143
-143
-144
-143
-143
-142
-140
-141
-140
-140
-139
-140
-140
-139
-140
-139
-140
-140
-140
-140
-140
-139
-141
-140
-139
-139
-139
-139
-139
-139
-139
-139
-139
-137
-138
-138
-137
-137
-138
-138
-138
-138
-138
-138
-138
-138
-136
-137
-137
-138
-139
-139
-138
-137
-135
-136
-135
-134
-135
-134
-134
-132
-134
-133
-135
-133
-134
-133
-135
-134
-133
-134
-134
-134
-133
-133
-132
-134
-134
-133
-132
-132
-131
-131
-131
-131
-131
-130
-126
-122
-118
-118
-119
-118
-119
-116
-113
-113
-111
-109
-111
-112
-111
-109
-111
-113
-116
-122
-128
-128
-128
-131
-131
-134
-137
-139
-138
-139
-141
-141
-141
-142
-142
-142
-146
-146
-145
-145
-145
-143
-142
-143
-143
-153
-174
-189
-191
-184
-167
-157
-157
-171
-209
-242
-259
-251
-217
-189
-178
-174
-163
-151
-141
-138
-139
-139
-138
-138
-137
-136
-135
-134
-132
-132
-132
-131
-131
-131
-131
-129
-129
-126
-128
-129
-128
-125
-127
-127
-127
-127
-124
-125
-125
-125
-124
-124
-125
-125
-124
-124
-122
-122
-122
-122
-121
-119
-120
-118
-118
-116
-114
-114
-113
-113
-111
-107
-106
-105
-103
-100
-100
-99
-98
-96
-96
-95
-93
-91
-91
-94
-96
-100
-104
-106
-111
-113
-116
-120
-122
-125
-127
-131
-132
-135
-136
-136
-135
-137
-138
-138
-138
-139
-139
-139
-140
-139
-142
-142
-142
-143
-143
-143
-143
-144
-143
-143
-144
-143
-142
-142
-143
-143
-142
-143
-143
-142
-142
-143
-141
-143
-142
-142
-141
-142
-142
-142
-142
-143
-143
-141
-142
-140
-143
-142
-143
-139
-140
-142
-141
-141
-142
-142
-141
-141
-141
-142
-141
-140
-139
-140
-140
-140
-139
-140
-139
-139
-138
-138
-138
-138
-138
-138
-138
-138
-138
-138
-138
-139
-139
-138
-139
-139
-139
-138
-139
-139
-139
-139
-138
-139
-139
-139
-138
-139
-139
-139
-136
-135
-131
-129
-123
-123
-123
-123
-123
-123
-122
-122
-123
-123
-123
-123
-124
-123
-125
-130
-131
-135
-136
-134
-135
-138
-139
-140
-143
-144
-144
-143
-144
-144
-145
-146
-145
-145
-145
-146
-146
-144
-144
-144
-142
-145
-165
-183
-193
-193
-180
-165
-157
-164
-186
-226
-248
-256
-235
-204
-183
-178
-170
-156
-146
-139
-138
-139
-138
-138
-138
-138
-137
-135
-136
-132
-134
-133
-134
-134
-133
-133
-133
-131
-131
-130
-131
-130
-129
-128
-128
-128
-129
-128
-127
-128
-128
-129
-127
-127
-126
-126
-125
-124
-124
-125
-123
-122
-122
-121
-120
-120
-119
-117
-114
-115
-113
-111
-108
-107
-106
-105
-103
-102
-100
-98
-98
-95
-95
-93
-91
-93
-94
-96
-98
-101
-105
-107
-113
-116
-117
-121
-124
-127
-128
-131
-131
-133
-133
-136
-137
-135
-135
-137
-137
-138
-139
-137
-138
-139
-138
-138
-139
-139
-139
-139
-139
-141
-141
-139
-139
-139
-139
-138
-139
-141
-141
-141
-139
-140
-139
-141
-140
-139
-139
-138
-140
-140
-139
-140
-141
-139
-140
-141
-142
-141
-142
-144
-143
-141
-142
-141
-143
-143
-143
-143
-143
-144
-143
-143
-140
-141
-143
-143
-141
-141
-141
-143
-143
-141
-141
-141
-140
-139
-139
-141
-140
-141
-139
-141
-141
-140
-141
-142
-144
-143
-141
-140
-139
-141
-139
-139
-141
-143
-143
-141
-141
-142
-143
-143
-141
-139
-136
-131
-131
-128
-129
-127
-127
-128
-127
-125
-123
-120
-118
-120
-120
-117
-118
-121
-127
-131
-134
-133
-136
-139
-139
-142
-145
-145
-146
-146
-146
-146
-148
-149
-148
-149
-153
-150
-151
-153
-153
-150
-152
-151
-150
-151
-168
-192
-202
-201
-189
-175
-165
-162
-170
-191
-209
-222
-231
-221
-206
-196
-191
-184
-170
-158
-152
-148
-148
-148
-146
-145
-146
-148
-146
-145
-145
-145
-144
-143
-142
-141
-139
-139
-139
-140
-139
-141
-141
-141
-139
-139
-138
-139
-140
-139
-139
-139
-139
-138
-137
-136
-135
-135
-136
-137
-138
-134
-134
-134
-133
-133
-133
-131
-128
-126
-124
-123
-121
-120
-120
-118
-116
-114
-113
-113
-109
-105
-104
-104
-104
-102
-103
-105
-106
-109
-112
-114
-121
-124
-127
-128
-131
-134
-138
-139
-140
-141
-143
-143
-143
-141
-142
-142
-143
-143
-143
-144
-144
-144
-145
-145
-143
-143
-145
-146
-144
-144
-145
-145
-144
-145
-146
-146
-146
-146
-148
-148
-148
-147
-147
-147
-148
-147
-146
-147
-147
-147
-146
-146
-146
-146
-144
-146
-145
-145
-143
-145
-145
-146
-146
-146
-143
-144
-145
-144
-144
-145
-143
-143
-143
-143
-142
-143
-143
-140
-140
-140
-140
-139
-139
-139
-140
-139
-137
-137
-139
-139
-138
-137
-136
-138
-137
-136
-136
-137
-137
-137
-135
-137
-136
-136
-135
-135
-134
-134
-134
-132
-133
-133
-131
-126
-125
-122
-121
-120
-117
-119
-119
-118
-114
-113
-112
-111
-110
-109
-106
-108
-111
-116
-122
-125
-126
-126
-129
-131
-133
-135
-138
-139
-139
-141
-142
-143
-144
-145
-145
-145
-146
-147
-148
-146
-146
-146
-143
-142
-156
-181
-191
-194
-185
-168
-156
-154
-164
-196
-227
-242
-238
-212
-189
-180
-174
-165
-151
-141
-139
-138
-138
-137
-136
-135
-134
-134
-135
-134
-133
-133
-131
-131
-131
-131
-130
-130
-130
-130
-128
-129
-128
-128
-125
-126
-125
-126
-125
-126
-124
-125
-122
-123
-123
-123
-123
-122
-122
-121
-121
-120
-121
-120
-120
-118
-119
-117
-115
-113
-113
-111
-109
-109
-105
-104
-101
-102
-99
-98
-96
-95
-93
-91
-91
-92
-93
-95
-97
-102
-104
-108
-111
-115
-118
-121
-124
-126
-129
-131
-132
-131
-133
-136
-136
-134
-136
-136
-138
-136
-136
-137
-137
-138
-138
-138
-136
-136
-138
-138
-135
-137
-138
-138
-137
-139
-139
-138
-138
-138
-138
-138
-139
-138
-139
-139
-137
-138
-139
-139
-140
-140
-140
-141
-141
-141
-141
-140
-140
-139
-139
-139
-139
-139
-139
-139
-139
-140
-139
-140
-139
-139
-139
-139
-139
-139
-139
-139
-140
-141
-140
-139
-139
-139
-140
-139
-139
-139
-139
-137
-138
-137
-139
-139
-138
-137
-137
-137
-136
-137
-137
-134
-137
-137
-136
-137
-135
-136
-135
-136
-136
-135
-135
-136
-135
-136
-136
-136
-134
-131
-127
-124
-121
-120
-120
-120
-120
-119
-120
-120
-119
-120
-120
-121
-122
-121
-124
-130
-131
-131
-127
-130
-133
-134
-134
-138
-139
-139
-139
-139
-141
-141
-144
-144
-144
-144
-142
-146
-146
-145
-145
-143
-142
-141
-149
-173
-189
-193
-184
-166
-155
-156
-170
-209
-242
-258
-251
-217
-189
-178
-174
-164
-150
-140
-137
-136
-135
-134
-134
-133
-132
-131
-131
-131
-131
-128
-129
-129
-128
-125
-127
-126
-124
-125
-124
-123
-123
-123
-122
-122
-122
-122
-121
-121
-121
-122
-121
-120
-120
-120
-119
-119
-117
-117
-117
-115
-113
-113
-113
-113
-111
-110
-111
-108
-106
-105
-104
-102
-100
-96
-96
-94
-91
-88
-87
-85
-83
-81
-81
-80
-79
-83
-86
-88
-92
-97
-101
-105
-111
-112
-114
-117
-120
-123
-124
-125
-129
-128
-128
-129
-130
-131
-131
-131
-131
-132
-133
-134
-136
-134
-134
-134
-134
-135
-136
-136
-136
-136
-136
-137
-136
-137
-138
-138
-137
-138
-138
-138
-137
-136
-136
-135
-136
-137
-135
-134
-136
-137
-137
-135
-137
-138
-138
-138
-136
-136
-136
-138
-138
-138
-139
-139
-135
-137
-138
-137
-137
-137
-137
-137
-138
-136
-136
-136
-136
-136
-135
-136
-136
-135
-134
-136
-136
-135
-134
-134
-134
-136
-135
-133
-134
-136
-136
-135
-134
-135
-134
-135
-134
-135
-134
-135
-135
-133
-134
-135
-136
-136
-138
-136
-137
-137
-138
-138
-134
-131
-129
-126
-124
-123
-123
-126
-125
-122
-122
-121
-122
-123
-122
-122
-124
-127
-131
-133
-134
-136
-136
-137
-138
-139
-142
-143
-143
-144
-144
-146
-147
-148
-148
-148
-148
-148
-148
-147
-147
-144
-145
-142
-143
-158
-183
-195
-197
-188
-172
-160
-157
-165
-192
-218
-235
-242
-222
-199
-189
-184
-177
-163
-148
-139
-139
-139
-139
-138
-138
-136
-136
-135
-135
-136
-137
-136
-135
-135
-138
-136
-135
-134
-133
-133
-133
-132
-131
-131
-131
-130
-130
-131
-128
-128
-127
-130
-130
-130
-127
-131
-130
-130
-130
-128
-127
-127
-127
-126
-125
-125
-125
-124
-124
-121
-118
-116
-113
-113
-111
-110
-107
-106
-105
-102
-100
-99
-99
-96
-95
-97
-98
-100
-103
-106
-111
-113
-115
-119
-122
-125
-129
-130
-131
-131
-134
-135
-136
-137
-139
-138
-141
-140
-143
-140
-141
-140
-139
-141
-141
-141
-141
-143
-141
-141
-141
-142
-141
-142
-142
-143
-144
-144
-144
-144
-143
-143
-144
-144
-144
-145
-146
-145
-144
-144
-145
-145
-146
-144
-146
-144
-145
-144
-145
-144
-144
-144
-146
-146
-147
-146
-146
-148
-148
-147
-145
-148
-146
-145
-143
-145
-146
-147
-145
-146
-146
-145
-146
-146
-146
-146
-146
-143
-143
-145
-146
-147
-146
-146
-148
-148
-148
-148
-146
-143
-143
-143
-146
-146
-146
-145
-142
-141
-140
-141
-141
-143
-145
-145
-146
-146
-144
-141
-138
-134
-131
-130
-130
-130
-130
-129
-127
-125
-124
-121
-124
-123
-118
-116
-122
-128
-134
-138
-136
-138
-141
-141
-143
-146
-146
-144
-145
-146
-146
-148
-150
-150
-151
-150
-152
-152
-153
-151
-150
-149
-150
-148
-150
-163
-188
-201
-203
-193
-179
-168
-160
-163
-177
-198
-211
-226
-220
-204
-191
-185
-178
-168
-155
-148
-141
-143
-143
-141
-139
-140
-139
-139
-139
-139
-137
-137
-139
-138
-137
-138
-133
-135
-135
-133
-133
-131
-131
-131
-131
-130
-129
-128
-128
-128
-129
-128
-129
-127
-126
-127
-127
-125
-125
-124
-124
-123
-123
-122
-122
-121
-120
-118
-117
-116
-115
-113
-113
-111
-108
-105
-106
-105
-103
-100
-100
-97
-96
-96
-92
-91
-90
-94
-95
-96
-100
-102
-107
-110
-113
-116
-121
-122
-124
-125
-127
-129
-130
-130
-131
-131
-131
-132
-133
-134
-134
-134
-133
-134
-134
-134
-134
-133
-135
-134
-135
-135
-135
-136
-135
-135
-135
-136
-135
-136
-134
-137
-138
-138
-136
-139
-139
-138
-139
-137
-138
-139
-139
-138
-136
-138
-136
-137
-137
-137
-137
-137
-137
-137
-136
-136
-136
-135
-136
-136
-135
-137
-137
-137
-136
-137
-136
-136
-136
-135
-136
-136
-137
-136
-135
-135
-135
-137
-136
-136
-136
-136
-136
-135
-135
-135
-136
-136
-135
-134
-136
-136
-135
-135
-136
-135
-135
-136
-135
-133
-134
-135
-133
-133
-133
-133
-133
-132
-132
-131
-129
-125
-122
-119
-117
-116
-116
-117
-116
-113
-116
-113
-113
-114
-115
-114
-115
-117
-122
-126
-126
-129
-128
-131
-132
-133
-135
-136
-137
-138
-136
-139
-140
-140
-139
-140
-140
-141
-141
-141
-141
-141
-139
-139
-138
-151
-174
-189
-191
-180
-160
-150
-151
-169
-213
-247
-261
-248
-212
-186
-174
-170
-158
-145
-136
-132
-131
-131
-131
-131
-130
-128
-127
-126
-127
-126
-126
-125
-124
-123
-122
-123
-123
-121
-122
-120
-122
-122
-121
-117
-120
-120
-120
-120
-119
-118
-118
-118
-118
-117
-116
-116
-113
-113
-113
-113
-113
-113
-113
-111
-112
-109
-111
-109
-106
-106
-106
-106
-105
-103
-103
-100
-98
-96
-94
-91
-88
-88
-87
-84
-83
-83
-83
-85
-87
-90
-95
-99
-102
-105
-108
-113
-116
-119
-120
-123
-125
-125
-128
-130
-130
-130
-131
-131
-131
-131
-132
-132
-131
-131
-131
-132
-131
-133
-134
-134
-135
-136
-135
-134
-135
-134
-135
-136
-136
-136
-135
-136
-136
-134
-134
-134
-134
-134
-133
-133
-133
-133
-132
-131
-132
-131
-132
-131
-132
-131
-131
-133
-132
-131
-132
-132
-131
-133
-133
-133
-132
-134
-134
-134
-134
-133
-131
-131
-131
-131
-131
-131
-131
-131
-132
-131
-131
-130
-131
-129
-131
-130
-130
-129
-131
-130
-129
-130
-131
-131
-131
-131
-130
-130
-129
-129
-129
-130
-128
-129
-128
-129
-129
-128
-125
-129
-129
-129
-127
-129
-129
-127
-123
-119
-117
-114
-114
-114
-113
-114
-115
-113
-113
-113
-113
-113
-113
-113
-113
-113
-116
-122
-122
-123
-123
-122
-123
-127
-131
-132
-133
-133
-134
-134
-134
-134
-136
-136
-136
-136
-135
-136
-137
-136
-135
-133
-131
-141
-164
-181
-189
-186
-169
-154
-148
-154
-176
-221
-244
-251
-226
-193
-177
-171
-166
-153
-140
-133
-132
-132
-132
-131
-130
-129
-129
-128
-128
-126
-125
-126
-124
-125
-125
-125
-123
-125
-124
-126
-127
-124
-122
-122
-122
-122
-122
-121
-122
-122
-122
-122
-122
-122
-122
-120
-117
-120
-120
-119
-116
-117
-116
-116
-114
-114
-113
-113
-113
-111
-111
-111
-109
-107
-105
-103
-102
-101
-98
-97
-96
-93
-92
-89
-90
-88
-87
-88
-87
-87
-91
-95
-98
-103
-107
-111
-113
-117
-119
-120
-120
-124
-126
-128
-130
-131
-131
-131
-131
-131
-131
-130
-132
-131
-131
-131
-134
-133
-132
-131
-135
-135
-135
-136
-135
-134
-135
-134
-133
-134
-135
-136
-135
-134
-134
-135
-136
-135
-135
-136
-137
-135
-134
-133
-132
-131
-132
-133
-134
-134
-134
-135
-135
-136
-135
-136
-136
-135
-136
-134
-135
-136
-135
-135
-136
-135
-134
-134
-134
-135
-133
-136
-135
-135
-133
-135
-136
-134
-133
-134
-134
-135
-136
-134
-134
-136
-131
-132
-134
-135
-136
-135
-135
-133
-133
-133
-136
-136
-136
-134
-131
-132
-134
-133
-132
-135
-134
-132
-132
-131
-129
-127
-125
-121
-122
-122
-123
-123
-121
-120
-120
-117
-115
-113
-112
-107
-113
-118
-121
-122
-125
-123
-127
-131
-134
-136
-139
-142
-141
-140
-143
-141
-145
-146
-148
-148
-147
-145
-146
-145
-145
-144
-142
-141
-144
-163
-186
-193
-191
-180
-168
-157
-153
-157
-176
-191
-208
-215
-209
-196
-189
-183
-174
-163
-150
-141
-139
-140
-139
-139
-137
-139
-137
-136
-135
-138
-137
-136
-136
-135
-135
-134
-134
-131
-132
-134
-135
-131
-131
-132
-131
-131
-131
-131
-131
-133
-134
-131
-131
-131
-131
-131
-129
-131
-131
-130
-130
-128
-129
-129
-124
-123
-124
-124
-124
-125
-122
-122
-122
-116
-116
-114
-113
-111
-110
-108
-107
-102
-101
-99
-101
-99
-99
-104
-103
-109
-115
-120
-117
-118
-121
-127
-127
-127
-130
-131
-133
-136
-137
-137
-136
-138
-139
-139
-139
-139
-140
-141
-140
-139
-139
-143
-144
-145
-144
-142
-141
-143
-140
-139
-139
-142
-144
-142
-143
-145
-142
-141
-142
-140
-139
-139
-139
-139
-138
-140
-139
-139
-141
-141
-142
-140
-140
-139
-139
-139
-143
-141
-140
-140
-140
-141
-143
-142
-141
-145
-145
-145
-145
-145
-144
-147
-147
-144
-145
-144
-140
-142
-146
-145
-144
-149
-149
-144
-144
-142
-141
-141
-141
-141
-142
-143
-142
-143
-143
-139
-141
-142
-145
-141
-143
-140
-141
-143
-142
-143
-142
-145
-143
-141
-140
-139
-135
-131
-131
-131
-131
-131
-132
-130
-126
-122
-121
-118
-116
-117
-113
-113
-116
-123
-129
-131
-133
-132
-134
-139
-143
-143
-143
-143
-141
-145
-146
-148
-149
-149
-148
-149
-148
-147
-146
-148
-148
-148
-144
-144
-153
-177
-194
-195
-189
-174
-161
-149
-146
-156
-171
-187
-201
-203
-196
-187
-179
-174
-162
-151
-141
-139
-138
-138
-137
-135
-134
-134
-133
-133
-132
-132
-130
-131
-131
-130
-130
-131
-130
-128
-129
-128
-130
-130
-128
-127
-128
-127
-125
-122
-124
-124
-124
-121
-123
-122
-122
-125
-123
-123
-122
-122
-120
-121
-121
-121
-119
-118
-118
-116
-116
-113
-113
-112
-109
-108
-107
-106
-105
-104
-101
-99
-97
-96
-94
-90
-90
-89
-88
-88
-88
-92
-97
-100
-104
-106
-110
-113
-115
-118
-120
-122
-124
-124
-123
-127
-128
-127
-127
-130
-128
-130
-129
-128
-130
-131
-131
-131
-131
-131
-131
-131
-131
-131
-131
-131
-131
-131
-131
-131
-131
-131
-131
-131
-131
-131
-131
-131
-131
-131
-131
-131
-131
-131
-131
-131
-131
-131
-131
-131
-131
-131
-131
-132
-131
-131
-131
-131
-131
-131
-131
-131
-131
-129
-131
-131
-131
-129
-129
-131
-131
-130
-129
-130
-129
-129
-129
-129
-128
-129
-128
-130
-129
-129
-129
-128
-130
-131
-130
-129
-130
-129
-128
-128
-128
-127
-126
-127
-127
-125
-125
-122
-120
-116
-113
-109
-111
-109
-107
-106
-105
-103
-102
-101
-99
-98
-96
-97
-99
-107
-113
-119
-116
-119
-122
-125
-129
-130
-131
-131
-134
-135
-135
-137
-136
-138
-139
-139
-139
-139
-139
-139
-139
-139
-137
-141
-159
-180
-188
-186
-172
-156
-147
-154
-182
-222
-244
-249
-226
-192
-176
-169
-161
-148
-139
-133
-131
-131
-131
-129
-131
-129
-128
-125
-127
-125
-126
-124
-126
-124
-123
-123
-121
-121
-122
-122
-121
-121
-120
-117
-120
-121
-121
-120
-119
-119
-119
-117
-118
-118
-116
-116
-115
-117
-117
-113
-113
-112
-113
-112
-111
-111
-111
-109
-108
-106
-105
-104
-104
-101
-97
-96
-96
-93
-91
-89
-87
-87
-83
-83
-83
-83
-82
-86
-88
-91
-96
-100
-103
-106
-112
-114
-118
-121
-121
-124
-126
-127
-130
-130
-131
-131
-131
-132
-133
-134
-134
-134
-134
-136
-134
-134
-135
-136
-135
-134
-134
-136
-136
-134
-135
-136
-136
-136
-136
-135
-135
-137
-138
-136
-138
-139
-139
-137
-137
-138
-138
-136
-138
-139
-139
-139
-138
-138
-138
-138
-136
-136
-135
-137
-136
-135
-136
-135
-136
-136
-135
-134
-136
-136
-135
-136
-136
-135
-135
-135
-134
-134
-136
-133
-134
-134
-134
-133
-133
-132
-132
-132
-131
-131
-132
-132
-132
-131
-131
-131
-131
-131
-130
-131
-131
-129
-123
-121
-117
-115
-115
-115
-113
-111
-111
-108
-107
-106
-109
-106
-105
-108
-111
-114
-120
-124
-123
-123
-125
-129
-131
-131
-133
-135
-134
-135
-136
-138
-138
-139
-139
-139
-140
-141
-141
-140
-139
-139
-139
-138
-138
-149
-174
-185
-189
-181
-165
-151
-152
-166
-203
-235
-247
-239
-208
-183
-174
-169
-157
-146
-137
-134
-134
-135
-134
-133
-132
-132
-131
-131
-131
-131
-131
-131
-129
-130
-129
-129
-128
-128
-127
-126
-126
-127
-127
-126
-127
-126
-124
-124
-124
-124
-123
-121
-121
-123
-122
-121
-122
-120
-119
-119
-115
-114
-115
-114
-114
-115
-113
-113
-114
-113
-109
-106
-107
-104
-102
-101
-99
-96
-95
-93
-90
-88
-87
-85
-84
-85
-86
-88
-93
-96
-101
-106
-109
-113
-116
-120
-123
-126
-128
-128
-131
-132
-132
-134
-133
-132
-134
-133
-135
-136
-138
-138
-138
-139
-138
-137
-140
-139
-139
-139
-140
-140
-140
-141
-139
-139
-139
-139
-138
-139
-140
-143
-140
-140
-141
-141
-143
-143
-140
-139
-142
-142
-143
-143
-143
-143
-140
-140
-140
-141
-142
-143
-142
-143
-143
-140
-140
-142
-142
-141
-140
-142
-141
-141
-139
-141
-142
-140
-141
-141
-139
-140
-139
-139
-138
-139
-139
-140
-140
-140
-141
-141
-143
-143
-143
-142
-142
-139
-138
-135
-131
-127
-124
-125
-127
-127
-124
-123
-121
-117
-113
-113
-113
-113
-111
-113
-121
-127
-134
-134
-135
-135
-137
-139
-139
-140
-141
-143
-144
-144
-146
-147
-151
-149
-149
-147
-146
-147
-148
-146
-148
-146
-150
-172
-192
-199
-194
-182
-169
-159
-156
-164
-183
-201
-217
-223
-212
-197
-188
-183
-174
-163
-149
-141
-142
-143
-145
-143
-143
-144
-142
-141
-143
-143
-142
-141
-142
-140
-140
-140
-140
-138
-138
-139
-140
-141
-139
-139
-139
-138
-135
-136
-134
-133
-131
-135
-135
-136
-135
-135
-135
-134
-132
-128
-129
-130
-130
-127
-127
-126
-126
-126
-122
-120
-119
-120
-118
-116
-115
-113
-113
-109
-109
-108
-105
-105
-102
-100
-104
-105
-105
-105
-106
-111
-114
-119
-123
-125
-128
-131
-135
-136
-136
-139
-141
-140
-141
-143
-143
-139
-142
-144
-145
-143
-146
-146
-145
-144
-142
-148
-149
-148
-146
-145
-148
-148
-148
-148
-148
-149
-150
-150
-150
-150
-151
-148
-150
-151
-151
-151
-152
-151
-149
-148
-151
-151
-149
-154
-151
-149
-155
-155
-153
-152
-151
-151
-151
-150
-148
-148
-148
-150
-150
-150
-148
-150
-149
-148
-147
-148
-149
-152
-151
-153
-152
-148
-149
-148
-149
-152
-150
-151
-152
-150
-148
-148
-149
-144
-139
-138
-139
-135
-137
-136
-136
-133
-131
-130
-127
-128
-129
-129
-124
-120
-123
-129
-135
-140
-144
-140
-146
-152
-154
-158
-157
-155
-157
-157
-161
-160
-162
-159
-162
-165
-168
-161
-164
-166
-166
-166
-164
-160
-168
-194
-208
-209
-202
-191
-181
-170
-179
-197
-214
-227
-244
-242
-229
-226
-216
-208
-201
-189
-179
-173
-164
-158
-164
-169
-166
-162
-163
-161
-162
-161
-162
-160
-163
-164
-159
-157
-158
-161
-162
-160
-160
-161
-159
-160
-159
-161
-159
-158
-160
-164
-158
-157
-158
-159
-157
-158
-162
-160
-159
-159
-157
-158
-159
-158
-156
-154
-157
-154
-148
-148
-148
-149
-145
-146
-148
-144
-138
-133
-139
-139
-134
-130
-127
-121
-121
-122
-123
-130
-131
-138
-140
-139
-139
-143
-145
-146
-146
-146
-148
-147
-151
-151
-153
-150
-156
-159
-157
-153
-149
-152
-160
-163
-163
-150
-143
-149
-157
-161
-161
-157
-160
-155
-157
-160
-155
-157
-162
-162
-153
-149
-161
-170
-160
-155
-157
-155
-157
-157
-154
-152
-150
-156
-162
-160
-158
-157
-156
-157
-160
-161
-155
-153
-150
-156
-156
-160
-154
-150
-157
-154
-148
-148
-147
-145
-143
-143
-149
-151
-156
-154
-141
-141
-150
-151
-155
-150
-135
-137
-141
-139
-139
-131
-127
-129
-136
-135
-125
-116
-112
-116
-119
-119
-119
-113
-117
-120
-123
-126
-135
-137
-138
-134
-136
-142
-156
-148
-137
-136
-146
-143
-145
-146
-145
-148
-145
-142
-137
-141
-148
-151
-153
-147
-147
-164
-183
-194
-186
-173
-157
-149
-153
-168
-184
-195
-216
-213
-192
-168
-161
-167
-165
-149
-141
-132
-124
-124
-133
-133
-135
-131
-128
-128
-128
-134
-127
-123
-129
-123
-116
-118
-118
-122
-131
-130
-120
-119
-128
-129
-128
-127
-122
-119
-121
-120
-114
-117
-117
-120
-113
-118
-115
-114
-116
-118
-119
-117
-116
-113
-112
-113
-113
-113
-114
-107
-102
-98
-108
-106
-98
-101
-96
-96
-95
-93
-91
-93
-93
-96
-95
-94
-95
-100
-105
-106
-113
-116
-113
-109
-121
-126
-126
-121
-130
-138
-135
-134
-135
-133
-127
-129
-130
-124
-137
-146
-139
-129
-134
-139
-134
-131
-135
-150
-150
-139
-131
-139
-141
-136
-139
-140
-134
-146
-151
-154
-146
-139
-138
-143
-146
-139
-139
-137
-145
-150
-139
-134
-136
-139
-142
-153
-158
-146
-138
-136
-135
-147
-148
-153
-144
-134
-139
-148
-158
-157
-156
-154
-141
-132
-137
-142
-148
-150
-148
-143
-131
-129
-131
-139
-141
-140
-135
-131
-135
-135
-134
-130
-113
-101
-105
-122
-124
-128
-131
-133
-139
-130
-107
-112
-134
-157
-156
-139
-145
-168
-171
-155
-151
-128
-126
-140
-161
-162
-151
-154
-165
-161
-152
-153
-147
-141
-165
-186
-196
-188
-174
-174
-178
-160
-163
-200
-226
-234
-223
-205
-199
-198
-190
-163
-142
-141
-150
-139
-131
-131
-123
-121
-137
-123
-105
-124
-139
-148
-139
-125
-114
-116
-118
-124
-153
-168
-150
-138
-122
-113
-114
-123
-137
-146
-120
-118
-131
-142
-143
-143
-136
-120
-111
-113
-132
-142
-136
-122
-118
-129
-131
-129
-114
-105
-105
-124
-144
-128
-118
-114
-122
-104
-87
-102
-124
-129
-114
-105
-96
-100
-112
-123
-116
-107
-114
-113
-105
-111
-117
-113
-128
-132
-118
-124
-125
-131
-143
-151
-154
-149
-151
-156
-143
-138
-141
-155
-151
-138
-129
-134
-139
-148
-141
-115
-136
-168
-164
-156
-148
-150
-152
-143
-145
-135
-133
-148
-158
-143
-127
-138
-164
-171
-146
-131
-138
-163
-158
-138
-139
-152
-161
-155
-154
-154
-156
-143
-133
-156
-165
-140
-120
-134
-162
-156
-134
-150
-154
-146
-140
-146
-154
-151
-135
-121
-123
-123
-127
-123
-125
-148
-145
-113
-113
-127
-120
-118
-121
-125
-138
-122
-105
-122
-131
-131
-127
-139
-152
-151
-132
-131
-139
-146
-152
-157
-161
-158
-159
-163
-150
-139
-137
-150
-165
-157
-139
-139
-153
-167
-186
-183
-187
-186
-182
-164
-160
-182
-208
-219
-226
-222
-192
-175
-192
-180
-148
-124
-119
-132
-151
-148
-155
-158
-134
-128
-128
-135
-131
-128
-131
-127
-128
-139
-121
-118
-132
-128
-125
-131
-138
-122
-120
-122
-121
-121
-125
-125
-113
-105
-112
-133
-141
-136
-127
-128
-127
-120
-113
-123
-121
-99
-101
-113
-118
-121
-121
-123
-120
-106
-113
-122
-101
-96
-98
-104
-103
-105
-98
-74
-78
-80
-80
-108
-109
-103
-105
-102
-91
-105
-113
-119
-124
-117
-106
-109
-100
-95
-113
-125
-127
-122
-121
-123
-109
-102
-121
-131
-121
-118
-120
-125
-122
-108
-104
-104
-108
-113
-123
-134
-132
-128
-121
-113
-101
-104
-106
-121
-125
-115
-96
-93
-111
-129
-130
-123
-114
-100
-105
-121
-120
-117
-111
-105
-116
-111
-103
-96
-101
-100
-105
-115
-117
-98
-108
-115
-96
-87
-93
-91
-106
-107
-104
-113
-98
-75
-65
-77
-89
-88
-85
-80
-77
-66
-74
-80
-78
-70
-74
-78
-87
-87
-91
-87
-85
-88
-96
-90
-90
-99
-101
-100
-103
-97
-92
-96
-109
-109
-95
-101
-111
-116
-113
-105
-93
-92
-113
-140
-146
-133
-136
-141
-136
-135
-134
-155
-177
-189
-189
-149
-135
-133
-128
-114
-105
-102
-105
-96
-80
-84
-91
-99
-108
-96
-78
-82
-96
-102
-95
-79
-63
-78
-84
-87
-91
-84
-83
-86
-95
-96
-87
-82
-82
-78
-74
-76
-76
-78
-86
-82
-73
-64
-71
-80
-88
-94
-77
-52
-44
-62
-88
-124
-99
-68
-59
-61
-62
-73
-79
-74
-63
-47
-52
-48
-50
-56
-62
-62
-55
-46
-49
-52
-54
-60
-66
-80
-81
-77
-77
-74
-81
-90
-94
-95
-90
-85
-87
-98
-106
-99
-90
-97
-89
-95
-105
-111
-111
-102
-98
-98
-95
-96
-94
-96
-98
-92
-88
-85
-85
-78
-88
-106
-117
-96
-82
-91
-98
-94
-90
-93
-92
-95
-96
-89
-84
-87
-96
-101
-93
-88
-88
-84
-78
-77
-79
-93
-97
-84
-68
-73
-96
-100
-90
-90
-91
-81
-70
-71
-70
-69
-60
-59
-63
-61
-67
-69
-60
-60
-56
-50
-50
-49
-50
-58
-71
-78
-74
-69
-73
-83
-85
-81
-77
-75
-82
-87
-87
-84
-78
-80
-87
-85
-85
-86
-90
-91
-84
-78
-78
-71
-82
-113
-128
-131
-129
-116
-97
-88
-96
-111
-135
-139
-143
-140
-121
-111
-115
-105
-92
-87
-81
-82
-81
-77
-80
-88
-83
-68
-71
-87
-91
-77
-63
-67
-77
-81
-79
-75
-70
-68
-67
-76
-83
-81
-82
-84
-82
-78
-63
-62
-69
-74
-78
-87
-85
-74
-73
-78
-82
-89
-87
-82
-78
-77
-78
-82
-78
-76
-78
-74
-67
-70
-75
-70
-66
-71
-67
-65
-70
-66
-60
-65
-63
-61
-62
-64
-64
-70
-71
-70
-71
-78
-85
-88
-93
-96
-95
-91
-98
-96
-93
-98
-96
-103
-105
-104
-102
-101
-99
-98
-96
-97
-104
-108
-106
-102
-99
-105
-110
-105
-97
-104
-105
-104
-106
-113
-110
-105
-103
-108
-113
-110
-108
-110
-114
-117
-114
-105
-109
-112
-113
-106
-101
-98
-105
-111
-117
-113
-113
-113
-109
-107
-108
-111
-113
-116
-116
-113
-116
-113
-110
-111
-112
-107
-105
-106
-105
-104
-100
-97
-98
-99
-98
-98
-98
-96
-103
-109
-118
-123
-118
-116
-119
-118
-123
-132
-134
-131
-134
-138
-135
-139
-143
-146
-145
-145
-141
-139
-136
-134
-131
-131
-143
-155
-171
-185
-192
-188
-168
-150
-139
-148
-175
-215
-242
-243
-211
-182
-172
-167
-161
-154
-138
-130
-133
-137
-138
-138
-135
-131
-131
-137
-137
-129
-130
-133
-136
-143
-146
-142
-137
-137
-140
-139
-140
-137
-131
-139
-143
-146
-139
-131
-142
-145
-143
-143
-146
-145
-137
-137
-141
-139
-138
-136
-137
-131
-128
-131
-138
-139
-136
-128
-123
-118
-122
-125
-128
-135
-128
-119
-125
-125
-115
-112
-102
-100
-98
-88
-78
-87
-115
-124
-123
-131
-139
-140
-131
-116
-117
-131
-148
-154
-145
-145
-145
-148
-148
-146
-154
-159
-159
-160
-155
-144
-148
-148
-154
-157
-152
-150
-158
-161
-160
-155
-153
-152
-148
-148
-159
-170
-166
-159
-159
-163
-162
-154
-154
-156
-155
-159
-163
-162
-161
-164
-164
-165
-168
-171
-173
-168
-167
-165
-168
-157
-152
-157
-159
-161
-158
-158
-157
-154
-155
-157
-151
-148
-146
-142
-134
-131
-132
-131
-133
-132
-135
-144
-150
-152
-150
-150
-156
-164
-161
-161
-170
-172
-166
-175
-184
-174
-168
-173
-173
-172
-168
-170
-174
-175
-177
-174
-163
-163
-173
-196
-210
-213
-212
-195
-185
-182
-191
-211
-239
-261
-270
-251
-222
-200
-196
-196
-183
-165
-157
-161
-165
-162
-159
-160
-158
-157
-159
-163
-163
-162
-158
-154
-155
-157
-157
-156
-156
-157
-154
-152
-148
-148
-149
-150
-148
-150
-153
-154
-155
-152
-151
-149
-149
-151
-150
-148
-148
-149
-146
-145
-144
-144
-141
-143
-144
-144
-142
-139
-139
-140
-143
-137
-135
-134
-131
-131
-131
-127
-125
-124
-123
-121
-122
-125
-124
-126
-129
-131
-135
-139
-145
-146
-150
-153
-153
-154
-156
-157
-160
-162
-163
-162
-159
-159
-161
-164
-165
-165
-162
-163
-162
-163
-164
-165
-165
-165
-164
-164
-162
-159
-158
-161
-161
-162
-162
-162
-159
-162
-159
-158
-159
-160
-159
-159
-158
-159
-158
-157
-157
-156
-157
-157
-158
-157
-160
-160
-159
-158
-158
-157
-157
-157
-157
-153
-150
-147
-143
-144
-143
-142
-138
-136
-137
-135
-131
-131
-131
-131
-127
-127
-134
-143
-148
-145
-146
-150
-152
-151
-153
-157
-160
-160
-162
-165
-165
-163
-163
-164
-163
-163
-163
-164
-164
-163
-162
-160
-168
-189
-209
-213
-203
-190
-177
-167
-173
-189
-205
-222
-233
-226
-213
-202
-196
-189
-174
-162
-156
-154
-156
-159
-155
-152
-152
-153
-152
-153
-152
-151
-150
-150
-150
-149
-148
-150
-151
-152
-151
-149
-146
-147
-146
-148
-146
-145
-146
-147
-149
-149
-147
-147
-147
-146
-144
-145
-145
-143
-144
-144
-146
-144
-141
-139
-141
-139
-136
-135
-136
-138
-137
-132
-131
-128
-128
-127
-123
-124
-122
-120
-119
-117
-120
-122
-123
-130
-132
-137
-139
-140
-145
-145
-148
-146
-148
-152
-156
-155
-157
-157
-157
-156
-157
-158
-158
-159
-156
-153
-152
-151
-156
-157
-157
-156
-157
-159
-158
-156
-157
-159
-157
-154
-153
-154
-154
-154
-156
-156
-156
-155
-154
-155
-156
-155
-154
-153
-151
-152
-155
-156
-154
-155
-154
-152
-148
-151
-152
-153
-151
-154
-154
-154
-150
-150
-147
-143
-141
-140
-139
-137
-136
-134
-131
-129
-122
-121
-121
-122
-121
-122
-126
-131
-139
-143
-141
-145
-146
-148
-149
-152
-154
-155
-154
-155
-158
-160
-162
-162
-160
-160
-162
-162
-161
-160
-160
-158
-159
-171
-195
-211
-209
-195
-180
-165
-161
-172
-199
-221
-235
-240
-224
-205
-194
-188
-180
-167
-158
-152
-150
-150
-149
-150
-152
-151
-149
-151
-153
-151
-151
-150
-148
-147
-148
-150
-149
-147
-147
-146
-145
-144
-142
-143
-144
-144
-143
-144
-144
-143
-141
-140
-140
-141
-141
-141
-141
-141
-141
-140
-140
-140
-139
-139
-136
-136
-136
-135
-134
-131
-129
-127
-125
-124
-123
-120
-119
-114
-113
-113
-113
-113
-113
-115
-117
-119
-121
-127
-131
-134
-136
-138
-141
-142
-145
-146
-148
-149
-149
-148
-148
-148
-150
-150
-149
-150
-149
-148
-150
-151
-150
-150
-150
-150
-149
-148
-149
-150
-150
-148
-151
-150
-150
-149
-150
-150
-149
-148
-149
-149
-148
-148
-148
-147
-146
-146
-148
-148
-147
-148
-148
-147
-146
-144
-145
-146
-145
-144
-144
-144
-144
-142
-140
-139
-136
-133
-131
-130
-129
-129
-126
-123
-121
-120
-118
-115
-115
-116
-113
-113
-114
-119
-126
-134
-132
-132
-137
-139
-142
-144
-146
-146
-147
-148
-148
-150
-151
-150
-150
-152
-152
-152
-150
-149
-148
-150
-148
-152
-172
-191
-198
-195
-180
-163
-155
-165
-191
-228
-250
-252
-227
-199
-184
-180
-173
-159
-148
-142
-139
-139
-140
-141
-141
-140
-140
-138
-139
-139
-139
-137
-139
-138
-137
-135
-136
-137
-135
-135
-132
-131
-132
-131
-131
-131
-131
-130
-130
-131
-129
-128
-128
-129
-127
-127
-127
-126
-125
-125
-124
-123
-124
-124
-122
-121
-121
-120
-120
-117
-115
-113
-112
-111
-109
-106
-105
-102
-101
-99
-97
-96
-96
-98
-102
-105
-105
-110
-113
-118
-124
-125
-128
-130
-131
-131
-132
-135
-136
-136
-137
-138
-137
-136
-138
-138
-138
-138
-139
-138
-137
-138
-138
-138
-138
-138
-139
-140
-139
-138
-138
-138
-137
-137
-136
-136
-135
-136
-136
-136
-135
-135
-134
-134
-135
-136
-135
-132
-136
-136
-134
-131
-135
-135
-134
-134
-133
-132
-133
-133
-133
-134
-134
-134
-132
-133
-131
-128
-125
-124
-122
-120
-120
-121
-120
-118
-116
-115
-116
-117
-117
-117
-118
-120
-123
-126
-128
-128
-126
-128
-131
-131
-132
-134
-136
-134
-136
-135
-136
-138
-136
-137
-135
-137
-135
-136
-134
-135
-134
-132
-139
-162
-180
-186
-183
-165
-152
-144
-151
-174
-209
-227
-236
-218
-188
-173
-168
-161
-145
-133
-125
-125
-125
-125
-126
-125
-124
-123
-123
-122
-122
-122
-123
-122
-121
-121
-120
-120
-118
-119
-119
-119
-119
-118
-118
-119
-119
-116
-118
-118
-118
-116
-118
-117
-118
-116
-116
-116
-116
-117
-114
-115
-115
-114
-113
-113
-112
-111
-110
-109
-108
-107
-105
-104
-104
-102
-98
-97
-96
-96
-95
-93
-93
-92
-92
-93
-96
-98
-101
-104
-107
-111
-113
-116
-120
-122
-123
-124
-126
-128
-128
-128
-129
-130
-129
-130
-129
-131
-131
-131
-130
-131
-131
-130
-131
-131
-130
-130
-131
-131
-129
-130
-128
-131
-130
-131
-129
-129
-128
-129
-129
-128
-129
-129
-129
-128
-128
-128
-128
-126
-127
-128
-127
-125
-126
-127
-127
-126
-126
-127
-127
-128
-128
-129
-129
-128
-128
-126
-126
-123
-121
-116
-116
-114
-113
-113
-114
-113
-111
-111
-108
-109
-109
-111
-111
-112
-113
-116
-121
-121
-120
-121
-122
-124
-127
-130
-130
-130
-130
-131
-131
-131
-131
-131
-131
-132
-132
-131
-132
-132
-131
-129
-129
-143
-167
-179
-180
-170
-152
-140
-143
-156
-191
-218
-233
-226
-200
-176
-168
-164
-152
-138
-127
-122
-122
-122
-122
-122
-123
-121
-120
-120
-118
-119
-118
-120
-119
-118
-116
-116
-116
-116
-115
-113
-116
-114
-113
-113
-113
-113
-112
-113
-113
-113
-113
-113
-114
-113
-113
-113
-113
-112
-113
-113
-112
-110
-111
-111
-110
-111
-109
-106
-106
-106
-105
-101
-102
-100
-99
-96
-95
-94
-92
-89
-87
-88
-87
-88
-88
-90
-94
-97
-99
-102
-105
-109
-111
-113
-115
-118
-119
-122
-122
-123
-124
-125
-126
-126
-128
-127
-128
-129
-128
-129
-129
-128
-131
-130
-128
-130
-130
-129
-130
-129
-128
-128
-126
-127
-127
-126
-124
-125
-124
-124
-127
-126
-125
-123
-125
-125
-125
-125
-126
-124
-124
-125
-125
-124
-124
-127
-127
-126
-125
-127
-127
-126
-125
-126
-124
-125
-124
-125
-124
-123
-124
-126
-126
-123
-121
-118
-114
-112
-109
-108
-110
-109
-108
-105
-105
-104
-105
-104
-105
-106
-108
-109
-113
-116
-117
-116
-115
-118
-119
-122
-123
-124
-124
-126
-125
-126
-126
-127
-127
-126
-127
-127
-127
-126
-126
-126
-123
-124
-143
-166
-174
-174
-159
-145
-136
-138
-157
-192
-214
-226
-213
-184
-168
-161
-156
-143
-128
-118
-115
-116
-118
-116
-113
-115
-113
-115
-113
-114
-113
-113
-114
-113
-111
-112
-113
-111
-111
-110
-111
-109
-109
-109
-109
-107
-108
-108
-107
-106
-106
-106
-106
-105
-105
-105
-105
-104
-103
-104
-105
-104
-103
-105
-105
-103
-102
-102
-100
-99
-98
-98
-97
-96
-95
-91
-88
-87
-87
-84
-83
-83
-84
-82
-86
-87
-89
-96
-96
-101
-105
-109
-112
-113
-115
-118
-119
-120
-121
-122
-122
-123
-123
-123
-123
-123
-123
-124
-124
-126
-125
-125
-126
-125
-125
-124
-127
-125
-124
-123
-124
-123
-124
-123
-124
-123
-122
-123
-123
-124
-122
-123
-122
-122
-122
-123
-122
-122
-120
-122
-122
-122
-123
-123
-122
-123
-124
-122
-122
-123
-123
-122
-122
-122
-123
-122
-122
-122
-123
-122
-122
-123
-123
-122
-122
-121
-121
-118
-113
-111
-111
-107
-105
-106
-106
-105
-104
-102
-100
-101
-104
-105
-105
-106
-106
-112
-113
-114
-114
-113
-115
-116
-119
-119
-122
-124
-124
-125
-127
-128
-125
-127
-127
-127
-128
-127
-126
-125
-125
-122
-122
-137
-160
-174
-176
-166
-150
-139
-139
-150
-187
-211
-224
-218
-193
-174
-165
-162
-151
-136
-124
-119
-120
-118
-118
-120
-120
-119
-117
-118
-115
-116
-115
-114
-114
-114
-115
-115
-113
-114
-114
-113
-111
-110
-112
-112
-113
-111
-111
-113
-113
-113
-112
-111
-111
-111
-109
-108
-111
-111
-111
-111
-109
-108
-108
-107
-108
-106
-105
-105
-103
-104
-103
-102
-101
-98
-96
-96
-95
-93
-91
-88
-87
-86
-86
-87
-88
-88
-91
-95
-99
-104
-107
-108
-113
-117
-118
-117
-120
-121
-122
-125
-124
-123
-124
-124
-123
-123
-124
-125
-127
-127
-129
-128
-129
-127
-126
-127
-126
-125
-125
-127
-127
-129
-129
-128
-128
-128
-130
-130
-129
-129
-128
-128
-128
-126
-127
-129
-128
-128
-128
-129
-128
-127
-126
-129
-128
-128
-126
-129
-129
-130
-126
-129
-128
-129
-128
-127
-128
-129
-129
-128
-128
-129
-127
-129
-130
-131
-130
-129
-127
-126
-122
-118
-116
-116
-113
-113
-111
-113
-111
-110
-108
-106
-108
-109
-106
-108
-111
-111
-116
-119
-121
-121
-122
-123
-125
-128
-129
-127
-128
-128
-131
-130
-131
-131
-131
-131
-131
-131
-130
-130
-131
-131
-130
-129
-137
-157
-175
-179
-174
-159
-150
-142
-141
-153
-177
-193
-208
-209
-193
-179
-171
-167
-157
-144
-133
-125
-124
-124
-124
-124
-123
-123
-122
-122
-122
-122
-122
-122
-121
-120
-120
-119
-118
-120
-118
-118
-114
-116
-116
-116
-115
-116
-116
-117
-117
-115
-116
-115
-117
-116
-115
-114
-113
-114
-114
-113
-113
-113
-112
-111
-111
-109
-109
-108
-107
-106
-105
-103
-102
-99
-98
-97
-95
-92
-91
-91
-89
-87
-88
-90
-91
-93
-96
-99
-102
-105
-108
-113
-113
-116
-118
-117
-120
-121
-122
-121
-123
-124
-124
-125
-125
-125
-124
-125
-124
-124
-125
-126
-125
-125
-126
-126
-125
-125
-125
-126
-126
-127
-128
-128
-128
-129
-128
-130
-130
-129
-129
-128
-128
-129
-128
-128
-128
-128
-128
-127
-127
-127
-127
-128
-128
-127
-127
-127
-127
-127
-124
-125
-124
-126
-123
-124
-124
-124
-125
-124
-123
-123
-125
-124
-124
-125
-127
-125
-124
-123
-124
-123
-123
-119
-115
-113
-112
-109
-106
-107
-108
-106
-105
-105
-105
-106
-106
-106
-108
-110
-113
-117
-120
-121
-118
-118
-118
-120
-122
-124
-125
-126
-127
-127
-125
-126
-128
-128
-130
-128
-130
-131
-131
-129
-129
-126
-129
-146
-166
-175
-177
-165
-148
-138
-143
-159
-196
-221
-234
-224
-191
-172
-165
-160
-149
-134
-124
-122
-121
-121
-121
-121
-122
-121
-122
-119
-120
-120
-120
-118
-117
-116
-115
-115
-114
-113
-113
-113
-113
-113
-111
-112
-111
-110
-108
-110
-111
-109
-110
-109
-109
-109
-110
-108
-107
-105
-107
-106
-108
-106
-106
-105
-106
-105
-105
-104
-102
-101
-98
-97
-96
-96
-94
-91
-89
-88
-87
-86
-85
-83
-83
-83
-83
-86
-88
-91
-96
-98
-102
-105
-108
-110
-113
-114
-114
-116
-118
-120
-121
-121
-121
-122
-124
-127
-126
-126
-126
-128
-127
-127
-127
-127
-124
-125
-125
-125
-124
-124
-124
-123
-123
-125
-125
-124
-125
-125
-125
-123
-123
-123
-123
-123
-125
-125
-127
-127
-127
-127
-128
-129
-129
-128
-127
-127
-127
-126
-127
-126
-124
-124
-122
-123
-124
-122
-121
-123
-123
-123
-124
-122
-123
-123
-124
-123
-124
-123
-124
-123
-122
-122
-123
-122
-122
-122
-122
-121
-118
-113
-111
-108
-106
-106
-107
-107
-106
-105
-103
-104
-105
-107
-106
-106
-109
-113
-116
-118
-118
-117
-118
-120
-122
-123
-127
-127
-127
-125
-129
-129
-129
-127
-130
-130
-131
-131
-130
-130
-128
-129
-128
-124
-124
-140
-164
-176
-178
-168
-152
-139
-138
-145
-177
-209
-224
-224
-200
-177
-168
-162
-153
-139
-128
-123
-123
-122
-123
-122
-121
-121
-121
-120
-119
-120
-119
-119
-119
-119
-118
-118
-118
-117
-113
-115
-114
-114
-113
-114
-113
-113
-111
-113
-113
-111
-113
-111
-112
-111
-112
-111
-111
-110
-109
-109
-109
-110
-109
-109
-107
-106
-106
-106
-105
-102
-103
-101
-99
-98
-96
-94
-92
-91
-89
-87
-86
-85
-85
-84
-83
-85
-87
-90
-95
-99
-105
-108
-111
-113
-116
-117
-119
-121
-123
-123
-124
-122
-125
-127
-126
-127
-127
-127
-128
-128
-127
-128
-128
-125
-129
-129
-130
-130
-129
-128
-130
-129
-128
-129
-128
-130
-130
-129
-129
-128
-127
-127
-128
-127
-127
-127
-127
-127
-127
-127
-126
-125
-127
-127
-126
-127
-127
-127
-127
-127
-129
-127
-125
-127
-127
-127
-125
-127
-126
-127
-128
-127
-125
-126
-128
-127
-126
-126
-123
-125
-125
-124
-124
-125
-126
-126
-126
-125
-125
-124
-123
-121
-118
-116
-112
-109
-109
-109
-110
-111
-109
-109
-108
-109
-111
-109
-109
-111
-111
-115
-119
-121
-122
-121
-122
-123
-123
-123
-127
-128
-129
-127
-129
-131
-131
-131
-131
-131
-131
-131
-131
-131
-131
-129
-129
-143
-167
-181
-180
-166
-152
-139
-139
-148
-184
-211
-226
-221
-196
-177
-170
-166
-155
-141
-130
-123
-123
-123
-122
-122
-122
-121
-121
-122
-119
-120
-120
-119
-119
-118
-117
-115
-114
-116
-114
-114
-113
-114
-115
-115
-115
-114
-113
-112
-113
-111
-111
-111
-113
-111
-111
-110
-108
-109
-108
-108
-108
-106
-106
-108
-105
-105
-105
-105
-104
-102
-101
-100
-98
-96
-96
-95
-92
-91
-88
-87
-86
-85
-85
-85
-87
-90
-92
-96
-100
-105
-108
-111
-115
-118
-119
-119
-122
-124
-124
-126
-126
-126
-127
-129
-127
-127
-128
-130
-129
-128
-129
-128
-129
-129
-130
-129
-129
-131
-130
-130
-130
-131
-131
-131
-132
-131
-133
-132
-132
-133
-133
-132
-131
-131
-131
-131
-131
-131
-131
-133
-134
-134
-132
-132
-131
-131
-130
-131
-131
-131
-130
-131
-131
-131
-132
-131
-131
-131
-133
-131
-132
-131
-133
-131
-131
-131
-132
-131
-131
-131
-131
-131
-131
-131
-131
-131
-131
-131
-130
-129
-130
-130
-130
-129
-130
-131
-128
-126
-122
-120
-117
-114
-113
-114
-116
-113
-113
-113
-112
-113
-115
-113
-115
-117
-119
-121
-126
-127
-125
-128
-129
-131
-131
-134
-134
-134
-134
-136
-136
-136
-135
-136
-134
-136
-136
-136
-136
-135
-134
-133
-135
-152
-174
-186
-186
-174
-160
-148
-146
-157
-191
-215
-230
-224
-200
-181
-175
-172
-158
-142
-132
-131
-129
-129
-129
-130
-127
-129
-126
-125
-124
-125
-124
-125
-125
-123
-122
-122
-124
-122
-122
-121
-121
-120
-121
-120
-120
-118
-118
-119
-118
-117
-116
-117
-116
-116
-116
-116
-116
-115
-113
-113
-113
-113
-113
-111
-111
-111
-110
-109
-107
-107
-106
-105
-104
-103
-101
-98
-97
-96
-94
-91
-91
-88
-88
-86
-88
-88
-90
-95
-96
-100
-105
-109
-112
-113
-117
-121
-122
-124
-125
-126
-128
-129
-131
-130
-128
-131
-131
-131
-131
-131
-131
-131
-131
-131
-131
-131
-131
-131
-131
-131
-131
-131
-131
-131
-131
-131
-131
-131
-131
-131
-130
-131
-130
-131
-128
-129
-130
-131
-128
-130
-129
-130
-130
-131
-131
-131
-132
-131
-131
-131
-133
-132
-132
-133
-132
-132
-131
-131
-131
-131
-131
-131
-129
-130
-131
-130
-130
-128
-128
-130
-129
-129
-131
-129
-129
-129
-128
-130
-128
-128
-128
-128
-129
-127
-127
-128
-128
-129
-128
-126
-127
-123
-120
-116
-115
-113
-113
-112
-113
-113
-113
-112
-111
-113
-114
-113
-113
-114
-119
-121
-123
-123
-122
-123
-127
-127
-129
-131
-131
-129
-131
-131
-131
-131
-132
-133
-134
-133
-134
-132
-133
-132
-131
-131
-145
-170
-182
-182
-174
-158
-146
-141
-147
-175
-208
-221
-226
-206
-181
-173
-168
-159
-140
-131
-125
-126
-128
-125
-126
-124
-124
-124
-123
-123
-122
-122
-123
-122
-122
-122
-121
-122
-121
-121
-120
-119
-118
-117
-116
-115
-114
-113
-114
-115
-114
-113
-113
-113
-113
-113
-112
-113
-111
-111
-111
-109
-111
-110
-109
-106
-106
-107
-107
-103
-104
-102
-101
-97
-96
-95
-94
-92
-88
-87
-84
-84
-82
-81
-81
-81
-86
-88
-91
-96
-99
-104
-106
-112
-116
-117
-119
-120
-122
-123
-125
-126
-126
-128
-129
-128
-126
-128
-128
-129
-128
-129
-128
-128
-128
-128
-128
-129
-127
-128
-127
-128
-129
-129
-127
-129
-128
-127
-125
-128
-129
-128
-130
-128
-130
-130
-130
-128
-130
-130
-127
-128
-128
-128
-128
-127
-129
-129
-129
-128
-129
-128
-129
-129
-129
-129
-127
-126
-125
-126
-126
-126
-126
-128
-127
-127
-126
-127
-126
-127
-127
-127
-126
-126
-125
-125
-125
-125
-124
-122
-123
-124
-123
-122
-124
-124
-123
-124
-123
-123
-124
-123
-119
-116
-112
-112
-111
-110
-111
-112
-110
-108
-108
-107
-109
-111
-112
-112
-113
-113
-117
-122
-123
-123
-122
-123
-124
-126
-128
-130
-131
-130
-130
-131
-131
-131
-132
-131
-132
-131
-132
-131
-131
-131
-130
-129
-136
-159
-174
-182
-177
-160
-150
-141
-145
-168
-202
-220
-229
-214
-191
-177
-171
-165
-150
-135
-127
-124
-123
-125
-125
-123
-123
-122
-122
-121
-122
-120
-121
-121
-120
-119
-121
-120
-119
-117
-117
-119
-118
-117
-116
-116
-116
-115
-113
-114
-114
-115
-113
-112
-113
-114
-113
-112
-113
-113
-113
-113
-111
-111
-109
-110
-107
-107
-106
-106
-104
-102
-100
-99
-98
-96
-95
-93
-92
-89
-88
-87
-87
-87
-85
-86
-88
-89
-94
-97
-100
-103
-106
-109
-111
-114
-118
-118
-121
-123
-124
-125
-128
-128
-128
-130
-129
-131
-128
-131
-131
-130
-130
-131
-131
-131
-133
-131
-131
-131
-131
-131
-131
-131
-131
-131
-131
-131
-131
-131
-131
-131
-131
-130
-130
-130
-131
-131
-130
-130
-130
-129
-128
-129
-129
-129
-128
-129
-129
-129
-127
-129
-129
-128
-129
-127
-127
-128
-128
-126
-126
-127
-127
-124
-125
-127
-126
-124
-125
-124
-125
-127
-125
-123
-123
-123
-123
-122
-122
-123
-122
-122
-121
-122
-122
-122
-123
-122
-122
-122
-122
-121
-121
-122
-122
-118
-116
-113
-112
-110
-109
-110
-110
-109
-109
-109
-109
-110
-111
-112
-112
-113
-114
-118
-121
-121
-121
-121
-121
-124
-127
-128
-127
-128
-130
-131
-131
-131
-131
-131
-132
-131
-131
-133
-132
-130
-130
-127
-131
-150
-171
-181
