-800
-790
-780
-770
-764
-763
-764
-764
-763
-762
-760
-760
-759
-760
-758
-759
-759
-759
-758
-759
-760
-759
-758
-759
-759
-759
-756
-758
-759
-760
-757
-755
-757
-759
-757
-754
-754
-752
-755
-759
-757
-757
-755
-755
-755
-751
-750
-750
-752
-750
-754
-754
-751
-744
-743
-746
-746
-744
-744
-742
-741
-741
-742
-741
-740
-737
-736
-733
-734
-735
-734
-732
-733
-735
-739
-740
-739
-742
-743
-747
-750
-752
-753
-754
-754
-754
-757
-757
-758
-759
-756
-756
-758
-760
-760
-759
-760
-758
-759
-759
-759
-758
-759
-757
-757
-759
-759
-759
-757
-760
-761
-759
-753
-753
-755
-757
-757
-759
-759
-758
-758
-756
-755
-754
-755
-757
-759
-760
-760
-760
-757
-759
-759
-757
-756
-757
-760
-762
-760
-759
-759
-759
-759
-761
-762
-762
-763
-764
-762
-759
-758
-757
-760
-763
-762
-763
-761
-758
-757
-757
-759
-759
-760
-759
-759
-759
-760
-761
-762
-760
-760
-760
-762
-760
-759
-759
-760
-760
-760
-760
-759
-759
-759
-757
-759
-760
-763
-759
-758
-757
-759
-760
-760
-760
-759
-760
-760
-759
-757
-759
-758
-757
-759
-759
-761
-761
-760
-758
-759
-760
-759
-760
-760
-759
-759
-759
-759
-759
-757
-759
-759
-757
-750
-750
-747
-748
-745
-747
-749
-749
-746
-741
-736
-736
-737
-739
-738
-739
-739
-741
-742
-744
-749
-757
-762
-764
-762
-764
-764
-766
-765
-765
-767
-766
-767
-767
-767
-768
-768
-768
-767
-768
-768
-768
-768
-767
-767
-767
-767
-763
-754
-748
-750
-747
-743
-750
-770
-790
-796
-803
-821
-851
-850
-813
-795
-798
-810
-824
-834
-843
-849
-839
-818
-800
-788
-775
-765
-759
-760
-760
-759
-760
-758
-757
-757
-756
-756
-754
-755
-753
-754
-753
-753
-755
-753
-754
-752
-752
-752
-751
-752
-750
-749
-750
-749
-750
-749
-750
-749
-749
-749
-747
-746
-747
-747
-747
-745
-747
-745
-744
-744
-744
-743
-742
-742
-740
-741
-740
-737
-738
-737
-737
-735
-734
-732
-732
-731
-731
-730
-728
-727
-727
-726
-724
-726
-725
-727
-727
-727
-730
-732
-736
-736
-739
-741
-742
-745
-744
-746
-745
-747
-747
-747
-747
-749
-749
-749
-747
-749
-748
-750
-747
-748
-747
-747
-747
-746
-747
-746
-747
-747
-747
-747
-745
-747
-746
-746
-746
-745
-747
-745
-746
-744
-745
-746
-745
-747
-745
-745
-744
-744
-744
-743
-745
-744
-745
-744
-745
-745
-744
-745
-746
-746
-747
-746
-747
-746
-747
-747
-747
-747
-746
-747
-748
-747
-749
-744
-747
-747
-747
-747
-747
-747
-746
-747
-747
-747
-747
-746
-746
-746
-746
-746
-746
-747
-747
-747
-747
-746
-747
-746
-747
-745
-745
-746
-745
-746
-745
-744
-743
-742
-744
-743
-744
-744
-744
-744
-744
-744
-742
-743
-744
-744
-745
-744
-744
-745
-743
-745
-744
-744
-742
-743
-744
-744
-745
-744
-745
-745
-744
-743
-743
-744
-743
-742
-744
-742
-742
-743
-743
-745
-744
-745
-744
-744
-743
-740
-738
-736
-735
-733
-732
-734
-735
-736
-733
-729
-726
-723
-726
-726
-728
-728
-730
-731
-732
-735
-738
-745
-748
-748
-750
-748
-752
-754
-754
-752
-754
-755
-755
-755
-755
-755
-757
-755
-757
-755
-757
-757
-756
-756
-755
-755
-755
-752
-744
-733
-739
-737
-732
-735
-752
-777
-791
-801
-816
-838
-854
-829
-796
-793
-799
-813
-821
-830
-839
-833
-817
-797
-780
-769
-757
-754
-752
-751
-751
-750
-749
-748
-748
-747
-744
-747
-747
-747
-747
-744
-746
-744
-745
-743
-744
-744
-743
-744
-743
-744
-743
-742
-743
-742
-742
-742
-743
-743
-741
-743
-742
-742
-742
-741
-741
-741
-741
-741
-740
-739
-739
-738
-737
-737
-736
-736
-734
-732
-731
-730
-731
-729
-729
-727
-726
-723
-723
-722
-720
-719
-719
-719
-719
-720
-719
-721
-723
-726
-727
-729
-732
-734
-736
-737
-739
-740
-739
-742
-742
-742
-742
-742
-744
-743
-744
-744
-744
-744
-744
-745
-744
-744
-744
-743
-744
-743
-743
-742
-741
-742
-742
-743
-742
-742
-742
-741
-741
-740
-741
-739
-738
-740
-739
-741
-739
-740
-741
-740
-741
-741
-741
-742
-742
-743
-742
-744
-744
-744
-743
-744
-744
-744
-745
-745
-744
-745
-743
-745
-745
-746
-746
-746
-747
-745
-747
-746
-746
-747
-746
-747
-746
-745
-745
-746
-745
-744
-745
-743
-744
-744
-744
-744
-744
-745
-744
-742
-744
-743
-745
-742
-744
-744
-743
-743
-743
-742
-743
-742
-743
-742
-743
-742
-743
-743
-742
-743
-742
-743
-742
-743
-743
-742
-744
-742
-742
-742
-742
-742
-741
-742
-742
-741
-741
-741
-743
-741
-742
-742
-741
-743
-742
-743
-743
-743
-744
-741
-738
-735
-733
-732
-729
-732
-733
-734
-731
-728
-724
-721
-721
-723
-724
-728
-728
-731
-732
-734
-736
-739
-747
-748
-748
-748
-750
-752
-750
-752
-750
-753
-752
-752
-753
-753
-754
-752
-752
-753
-751
-752
-750
-752
-752
-752
-752
-750
-749
-737
-735
-739
-733
-733
-744
-767
-788
-798
-808
-831
-849
-834
-795
-782
-783
-797
-814
-823
-832
-835
-824
-806
-787
-775
-762
-751
-749
-749
-749
-746
-747
-747
-745
-744
-743
-743
-745
-743
-744
-743
-743
-742
-741
-743
-742
-741
-741
-741
-741
-740
-741
-739
-740
-740
-741
-741
-740
-740
-739
-739
-739
-737
-739
-737
-736
-736
-736
-736
-732
-734
-734
-734
-732
-732
-732
-731
-732
-729
-728
-726
-724
-724
-721
-721
-719
-719
-717
-716
-716
-713
-716
-713
-715
-715
-719
-719
-721
-724
-725
-730
-731
-732
-733
-737
-738
-740
-742
-742
-744
-743
-743
-744
-743
-744
-744
-746
-747
-746
-746
-744
-746
-745
-745
-742
-745
-746
-747
-745
-747
-747
-745
-742
-742
-744
-745
-746
-743
-745
-742
-743
-743
-744
-742
-742
-743
-743
-745
-745
-745
-747
-749
-749
-746
-744
-744
-742
-745
-746
-747
-749
-747
-749
-747
-749
-748
-747
-749
-749
-749
-749
-749
-748
-747
-749
-749
-750
-749
-750
-747
-748
-749
-749
-747
-749
-749
-749
-747
-747
-747
-749
-749
-749
-749
-749
-749
-749
-749
-749
-747
-747
-747
-750
-750
-749
-749
-748
-749
-749
-748
-749
-747
-748
-747
-750
-750
-750
-747
-746
-749
-749
-749
-749
-748
-748
-745
-746
-748
-747
-747
-747
-749
-750
-750
-750
-750
-749
-747
-747
-750
-747
-742
-739
-739
-738
-739
-738
-739
-741
-737
-733
-728
-728
-730
-730
-734
-733
-736
-737
-740
-742
-746
-756
-759
-757
-759
-760
-762
-760
-760
-762
-763
-762
-762
-763
-764
-765
-764
-763
-762
-761
-765
-766
-766
-763
-763
-765
-763
-760
-749
-748
-750
-746
-742
-756
-782
-797
-805
-818
-840
-855
-832
-794
-780
-785
-805
-824
-830
-841
-846
-836
-817
-800
-788
-777
-770
-767
-764
-764
-764
-764
-762
-760
-761
-760
-761
-760
-760
-759
-757
-759
-759
-757
-757
-759
-759
-756
-759
-758
-757
-755
-755
-754
-755
-754
-757
-759
-760
-757
-756
-754
-757
-757
-758
-757
-754
-754
-752
-752
-752
-752
-755
-754
-752
-750
-750
-748
-747
-748
-747
-746
-743
-741
-738
-737
-736
-737
-739
-735
-734
-732
-735
-734
-735
-736
-737
-739
-741
-744
-744
-749
-749
-752
-752
-752
-755
-757
-760
-760
-759
-760
-763
-765
-763
-764
-760
-762
-762
-762
-763
-762
-762
-760
-762
-764
-762
-762
-761
-761
-759
-758
-761
-760
-760
-760
-760
-764
-762
-760
-758
-758
-760
-760
-762
-760
-763
-764
-763
-762
-762
-761
-760
-760
-760
-761
-764
-765
-765
-760
-762
-763
-764
-765
-764
-760
-762
-764
-764
-760
-762
-760
-765
-767
-765
-762
-761
-762
-764
-765
-764
-762
-763
-762
-763
-762
-761
-762
-762
-763
-763
-762
-760
-762
-762
-762
-764
-762
-760
-760
-760
-763
-762
-760
-758
-760
-763
-763
-764
-762
-760
-762
-762
-762
-759
-759
-757
-758
-760
-760
-760
-761
-760
-760
-758
-760
-760
-760
-759
-759
-759
-758
-759
-757
-755
-752
-750
-749
-747
-749
-747
-750
-748
-745
-741
-739
-740
-740
-740
-741
-741
-742
-743
-746
-749
-752
-759
-762
-763
-765
-765
-767
-767
-768
-768
-768
-768
-769
-768
-769
-770
-770
-770
-769
-769
-773
-770
-772
-769
-772
-770
-770
-762
-749
-752
-753
-748
-750
-763
-785
-799
-806
-820
-844
-861
-838
-807
-803
-809
-823
-833
-842
-849
-842
-828
-809
-795
-783
-770
-765
-762
-762
-762
-762
-762
-760
-760
-760
-760
-760
-759
-759
-759
-759
-759
-757
-757
-757
-757
-755
-754
-754
-753
-754
-750
-753
-754
-752
-752
-753
-752
-752
-750
-750
-748
-749
-748
-747
-747
-747
-745
-746
-747
-746
-745
-745
-742
-742
-739
-741
-740
-739
-739
-736
-736
-734
-733
-732
-730
-730
-728
-728
-726
-728
-727
-728
-726
-728
-728
-729
-731
-734
-737
-739
-743
-744
-746
-747
-748
-749
-750
-752
-752
-750
-753
-753
-753
-754
-754
-753
-753
-752
-752
-752
-752
-750
-750
-750
-750
-749
-748
-748
-750
-749
-748
-749
-750
-749
-747
-749
-747
-747
-747
-747
-748
-747
-747
-747
-746
-747
-746
-747
-746
-747
-747
-747
-749
-747
-749
-747
-747
-747
-749
-750
-747
-749
-749
-750
-747
-749
-750
-750
-752
-752
-752
-753
-751
-752
-750
-750
-750
-750
-750
-750
-751
-750
-750
-749
-748
-750
-750
-752
-750
-750
-750
-750
-751
-750
-750
-750
-750
-749
-749
-750
-750
-749
-748
-749
-748
-748
-748
-747
-749
-750
-749
-749
-749
-750
-749
-749
-750
-750
-750
-747
-750
-749
-749
-750
-748
-750
-750
-750
-749
-750
-749
-749
-750
-749
-749
-749
-749
-749
-749
-750
-750
-749
-750
-749
-749
-748
-750
-750
-750
-749
-750
-748
-744
-741
-740
-737
-738
-737
-739
-740
-739
-735
-728
-729
-729
-730
-731
-732
-733
-734
-737
-739
-741
-747
-750
-753
-753
-755
-757
-757
-759
-757
-758
-757
-759
-759
-759
-759
-759
-760
-759
-759
-759
-759
-760
-760
-760
-759
-759
-758
-750
-741
-740
-742
-736
-739
-758
-785
-801
-811
-828
-854
-864
-830
-801
-800
-809
-823
-831
-840
-844
-834
-815
-796
-782
-770
-760
-755
-754
-752
-753
-752
-750
-752
-750
-750
-750
-750
-750
-749
-750
-748
-749
-749
-749
-749
-747
-747
-747
-747
-747
-747
-747
-746
-746
-746
-746
-746
-745
-746
-745
-745
-744
-744
-744
-743
-745
-743
-742
-743
-742
-742
-739
-740
-738
-739
-737
-736
-736
-734
-732
-731
-731
-729
-727
-728
-726
-727
-725
-724
-724
-723
-721
-721
-721
-723
-726
-727
-731
-733
-737
-739
-742
-744
-742
-745
-744
-748
-748
-749
-749
-750
-750
-750
-752
-750
-752
-752
-751
-752
-752
-752
-750
-750
-750
-750
-752
-749
-750
-750
-750
-749
-748
-748
-747
-746
-748
-747
-747
-745
-747
-746
-747
-748
-747
-749
-747
-749
-747
-747
-747
-745
-746
-746
-747
-747
-747
-747
-748
-749
-748
-748
-749
-749
-750
-750
-750
-749
-750
-750
-750
-752
-750
-750
-750
-751
-751
-752
-752
-752
-752
-752
-750
-752
-750
-752
-750
-750
-750
-750
-749
-750
-750
-750
-749
-750
-750
-750
-749
-750
-750
-750
-750
-749
-750
-749
-750
-750
-750
-750
-750
-750
-749
-751
-750
-750
-750
-750
-750
-749
-750
-749
-748
-749
-749
-750
-750
-750
-749
-750
-750
-749
-749
-749
-750
-750
-749
-750
-749
-749
-750
-750
-750
-750
-750
-749
-752
-750
-752
-750
-750
-750
-750
-750
-750
-747
-744
-742
-742
-739
-741
-740
-742
-743
-739
-734
-731
-731
-733
-733
-736
-737
-740
-741
-743
-744
-748
-755
-755
-756
-757
-757
-759
-758
-759
-758
-760
-760
-760
-760
-760
-760
-760
-761
-762
-762
-760
-760
-762
-762
-760
-760
-760
-755
-743
-746
-748
-745
-744
-759
-786
-802
-810
-824
-845
-860
-830
-797
-792
-798
-816
-827
-835
-844
-839
-823
-800
-786
-774
-763
-759
-757
-756
-755
-755
-754
-753
-754
-753
-753
-752
-752
-753
-752
-751
-750
-752
-750
-750
-750
-750
-750
-750
-749
-749
-747
-749
-748
-748
-746
-748
-747
-747
-745
-746
-747
-747
-747
-745
-745
-745
-744
-745
-744
-743
-741
-741
-741
-741
-741
-737
-737
-737
-736
-734
-731
-731
-730
-730
-728
-728
-726
-725
-724
-724
-724
-724
-728
-728
-729
-732
-735
-737
-741
-744
-744
-747
-748
-752
-752
-752
-754
-754
-754
-752
-755
-755
-755
-754
-757
-757
-755
-757
-757
-757
-755
-755
-754
-754
-754
-752
-755
-755
-755
-756
-754
-753
-753
-754
-754
-752
-755
-754
-755
-755
-754
-754
-753
-753
-752
-753
-753
-754
-754
-754
-757
-757
-758
-759
-759
-757
-755
-755
-757
-759
-759
-760
-759
-759
-759
-760
-760
-760
-759
-760
-759
-760
-760
-760
-760
-761
-759
-756
-757
-757
-759
-760
-760
-759
-757
-759
-758
-759
-759
-759
-759
-759
-759
-759
-760
-760
-759
-759
-759
-760
-757
-756
-757
-757
-758
-757
-758
-758
-759
-758
-759
-759
-759
-757
-755
-755
-758
-759
-759
-755
-757
-757
-759
-755
-755
-755
-755
-757
-757
-758
-758
-759
-757
-756
-757
-757
-759
-758
-757
-759
-759
-759
-755
-753
-754
-753
-752
-749
-747
-747
-747
-748
-749
-748
-744
-739
-735
-736
-737
-736
-739
-740
-741
-742
-746
-750
-755
-764
-764
-763
-763
-764
-767
-767
-765
-765
-767
-768
-770
-767
-766
-768
-768
-768
-768
-768
-769
-769
-768
-767
-767
-769
-768
-762
-755
-755
-753
-750
-757
-777
-796
-804
-815
-835
-855
-849
-809
-787
-786
-801
-824
-832
-844
-849
-840
-821
-802
-789
-778
-768
-767
-764
-762
-760
-762
-760
-762
-764
-762
-759
-759
-759
-759
-759
-762
-760
-759
-756
-755
-759
-759
-757
-755
-757
-757
-755
-754
-755
-757
-757
-759
-759
-757
-754
-752
-753
-755
-756
-753
-750
-750
-750
-752
-752
-750
-748
-748
-747
-747
-744
-741
-742
-744
-743
-737
-735
-735
-733
-733
-732
-730
-729
-731
-730
-729
-729
-730
-732
-735
-741
-745
-746
-749
-752
-754
-757
-756
-757
-759
-760
-760
-759
-760
-760
-763
-763
-764
-765
-764
-762
-762
-763
-764
-765
-765
-764
-764
-763
-764
-765
-763
-759
-757
-760
-764
-765
-762
-759
-759
-759
-760
-760
-763
-764
-760
-757
-757
-759
-759
-760
-765
-763
-762
-758
-762
-762
-764
-764
-762
-763
-762
-763
-763
-764
-762
-762
-763
-762
-766
-765
-764
-765
-765
-766
-764
-762
-763
-763
-764
-764
-764
-762
-763
-762
-760
-762
-762
-760
-760
-760
-760
-762
-765
-764
-762
-762
-762
-762
-762
-762
-762
-761
-760
-762
-759
-760
-762
-762
-760
-762
-760
-760
-758
-760
-760
-762
-760
-760
-760
-760
-760
-759
-759
-759
-760
-760
-760
-760
-759
-760
-759
-760
-760
-760
-759
-759
-759
-760
-759
-759
-758
-759
-757
-755
-752
-750
-748
-747
-749
-749
-750
-747
-743
-739
-737
-740
-739
-739
-741
-741
-743
-746
-750
-750
-759
-763
-765
-763
-765
-766
-766
-768
-767
-767
-768
-768
-768
-767
-767
-768
-769
-770
-768
-769
-768
-768
-767
-768
-768
-766
-762
-750
-750
-752
-749
-750
-762
-787
-801
-809
-822
-846
-864
-837
-804
-803
-813
-829
-839
-849
-852
-842
-824
-803
-790
-777
-764
-760
-756
-759
-759
-759
-756
-757
-757
-756
-757
-756
-755
-756
-755
-755
-754
-755
-753
-754
-754
-753
-754
-752
-752
-753
-750
-752
-750
-752
-752
-752
-750
-750
-749
-748
-749
-749
-747
-747
-747
-747
-744
-745
-745
-744
-744
-742
-742
-739
-741
-737
-737
-734
-735
-733
-732
-730
-729
-729
-729
-726
-724
-725
-724
-724
-725
-727
-728
-731
-735
-736
-741
-741
-746
-749
-750
-750
-752
-754
-754
-755
-755
-757
-757
-757
-757
-756
-759
-757
-757
-757
-757
-757
-755
-756
-755
-755
-755
-755
-755
-754
-754
-753
-754
-753
-753
-754
-750
-754
-752
-752
-749
-750
-752
-750
-750
-750
-752
-752
-752
-752
-750
-752
-751
-752
-753
-752
-750
-752
-753
-753
-754
-752
-754
-754
-755
-755
-755
-755
-755
-756
-755
-755
-756
-755
-754
-755
-754
-755
-753
-754
-754
-753
-754
-754
-754
-754
-754
-752
-754
-754
-753
-752
-752
-754
-752
-752
-754
-752
-754
-749
-752
-752
-754
-753
-752
-753
-753
-754
-753
-754
-755
-754
-755
-754
-757
-755
-756
-755
-755
-755
-755
-755
-755
-754
-754
-754
-754
-752
-754
-754
-755
-754
-754
-755
-753
-753
-754
-754
-754
-753
-753
-752
-753
-752
-754
-754
-752
-750
-749
-746
-741
-742
-742
-741
-741
-744
-742
-738
-736
-733
-734
-735
-737
-739
-739
-742
-742
-745
-747
-753
-757
-756
-759
-759
-759
-759
-759
-760
-760
-760
-760
-761
-760
-760
-760
-760
-760
-759
-760
-759
-759
-759
-760
-759
-757
-750
-739
-741
-741
-737
-744
-763
-789
-805
-815
-833
-855
-859
-823
-799
-800
-811
-824
-832
-842
-840
-826
-807
-788
-776
-766
-756
-755
-754
-755
-753
-752
-752
-752
-750
-750
-749
-750
-750
-749
-747
-749
-747
-749
-748
-747
-749
-747
-748
-747
-747
-746
-746
-746
-744
-745
-744
-744
-744
-743
-744
-742
-743
-742
-742
-741
-741
-741
-739
-737
-737
-738
-736
-737
-736
-735
-735
-732
-732
-729
-729
-728
-725
-724
-723
-723
-721
-720
-719
-718
-717
-718
-720
-722
-724
-727
-731
-733
-736
-737
-741
-742
-744
-746
-747
-749
-748
-750
-749
-750
-750
-750
-750
-750
-750
-750
-750
-750
-749
-749
-747
-748
-746
-746
-744
-745
-744
-743
-743
-741
-742
-742
-742
-742
-741
-743
-744
-744
-743
-743
-745
-744
-745
-745
-744
-745
-744
-745
-744
-746
-747
-747
-747
-748
-749
-749
-750
-750
-750
-750
-748
-750
-749
-750
-750
-750
-750
-750
-750
-750
-750
-750
-750
-750
-749
-749
-749
-749
-749
-747
-750
-748
-749
-749
-748
-749
-748
-748
-747
-747
-747
-747
-747
-747
-748
-747
-747
-749
-749
-749
-748
-749
-748
-749
-749
-750
-750
-748
-748
-749
-749
-747
-749
-750
-748
-748
-747
-748
-747
-747
-748
-748
-748
-747
-747
-747
-745
-747
-746
-746
-744
-747
-748
-749
-746
-747
-748
-748
-747
-749
-747
-748
-748
-747
-744
-742
-739
-738
-739
-737
-739
-739
-739
-734
-731
-731
-730
-732
-733
-734
-735
-736
-741
-742
-745
-753
-758
-757
-756
-759
-757
-758
-759
-759
-759
-760
-760
-760
-760
-760
-762
-760
-760
-761
-762
-761
-762
-763
-764
-760
-764
-756
-748
-749
-750
-747
-750
-771
-794
-803
-813
-829
-854
-853
-814
-790
-791
-806
-824
-834
-842
-844
-834
-816
-799
-788
-776
-767
-760
-760
-760
-759
-759
-756
-757
-757
-758
-759
-758
-757
-756
-755
-754
-755
-755
-755
-755
-755
-757
-755
-754
-754
-755
-755
-752
-754
-754
-755
-752
-752
-752
-752
-752
-752
-752
-750
-750
-750
-750
-750
-747
-747
-747
-747
-746
-746
-745
-740
-739
-737
-738
-739
-737
-736
-732
-731
-728
-727
-727
-728
-728
-728
-726
-728
-731
-735
-737
-737
-741
-743
-747
-752
-755
-757
-757
-757
-760
-760
-759
-757
-762
-763
-764
-760
-763
-762
-762
-762
-760
-761
-761
-763
-762
-762
-759
-757
-759
-759
-759
-759
-760
-760
-760
-760
-760
-760
-760
-760
-759
-759
-759
-757
-759
-758
-760
-760
-759
-759
-759
-762
-760
-760
-760
-760
-760
-760
-761
-761
-760
-760
-760
-764
-763
-762
-760
-764
-763
-762
-760
-764
-765
-763
-762
-760
-761
-764
-763
-762
-760
-760
-759
-759
-760
-762
-762
-761
-760
-759
-759
-760
-759
-760
-760
-761
-760
-760
-759
-759
-759
-760
-760
-760
-760
-760
-759
-759
-760
-760
-760
-758
-760
-760
-762
-762
-762
-758
-757
-757
-759
-758
-759
-759
-759
-755
-760
-759
-760
-760
-760
-762
-764
-762
-759
-758
-759
-759
-757
-754
-752
-752
-753
-750
-748
-747
-748
-747
-743
-739
-739
-741
-743
-741
-743
-742
-744
-746
-749
-754
-762
-767
-768
-769
-770
-769
-770
-769
-771
-769
-770
-772
-772
-769
-768
-770
-773
-773
-773
-773
-775
-772
-773
-770
-770
-769
-760
-752
-754
-757
-750
-755
-772
-794
-805
-817
-834
-859
-859
-824
-803
-805
-816
-831
-840
-848
-853
-841
-822
-803
-792
-782
-770
-764
-764
-762
-760
-758
-759
-760
-759
-760
-760
-760
-757
-757
-759
-757
-759
-758
-757
-754
-757
-757
-755
-753
-755
-757
-755
-754
-754
-753
-754
-752
-752
-752
-753
-752
-750
-750
-750
-750
-749
-749
-749
-747
-747
-745
-745
-743
-742
-741
-740
-739
-737
-737
-736
-734
-732
-731
-729
-728
-728
-726
-726
-726
-725
-725
-724
-727
-728
-732
-735
-739
-742
-746
-747
-750
-753
-753
-754
-755
-757
-759
-759
-760
-759
-759
-760
-760
-760
-760
-760
-760
-760
-759
-758
-758
-758
-759
-756
-757
-755
-755
-755
-753
-754
-755
-753
-752
-751
-754
-753
-753
-752
-752
-753
-752
-753
-752
-752
-752
-752
-751
-752
-754
-753
-752
-752
-752
-753
-750
-753
-752
-752
-750
-752
-754
-753
-753
-753
-752
-755
-752
-754
-752
-752
-752
-752
-753
-752
-752
-750
-752
-752
-750
-750
-750
-750
-750
-750
-750
-749
-750
-749
-749
-749
-749
-749
-749
-749
-749
-749
-749
-747
-748
-747
-748
-747
-747
-749
-747
-747
-747
-747
-747
-745
-747
-746
-748
-745
-747
-747
-747
-747
-747
-747
-746
-747
-747
-745
-746
-746
-746
-745
-745
-745
-744
-744
-745
-745
-745
-745
-745
-743
-743
-739
-737
-734
-731
-731
-729
-730
-732
-732
-730
-724
-721
-721
-723
-723
-725
-728
-727
-731
-731
-734
-739
-746
-750
-749
-750
-752
-752
-753
-750
-754
-752
-755
-754
-754
-754
-753
-754
-754
-754
-754
-754
-754
-754
-754
-753
-754
-752
-744
-735
-735
-736
-731
-733
-750
-776
-793
-806
-821
-847
-862
-834
-804
-800
-806
-818
-828
-836
-839
-829
-809
-790
-776
-762
-752
-747
-747
-747
-747
-746
-742
-744
-741
-742
-741
-741
-742
-742
-742
-742
-743
-744
-743
-742
-742
-742
-741
-741
-742
-741
-741
-740
-740
-740
-739
-740
-739
-740
-738
-739
-738
-737
-737
-736
-736
-735
-735
-735
-732
-734
-731
-731
-730
-729
-728
-727
-726
-724
-723
-721
-718
-716
-716
-716
-713
-712
-712
-713
-712
-710
-711
-711
-715
-714
-719
-723
-727
-730
-734
-737
-738
-741
-741
-744
-744
-745
-747
-747
-748
-747
-747
-748
-748
-749
-748
-749
-749
-749
-749
-747
-748
-747
-747
-747
-747
-747
-747
-747
-745
-746
-744
-743
-745
-744
-744
-745
-744
-744
-742
-744
-742
-744
-744
-744
-743
-743
-745
-746
-744
-747
-746
-747
-747
-747
-747
-748
-748
-746
-747
-747
-746
-747
-746
-747
-746
-747
-747
-747
-747
-747
-749
-749
-747
-749
-747
-747
-747
-747
-747
-747
-747
-746
-747
-746
-747
-747
-747
-747
-745
-747
-746
-746
-746
-744
-746
-744
-746
-746
-745
-743
-744
-745
-744
-744
-746
-745
-746
-745
-746
-743
-744
-744
-744
-745
-744
-742
-743
-743
-745
-743
-744
-742
-744
-744
-743
-744
-744
-744
-744
-744
-744
-743
-745
-743
-745
-744
-744
-744
-741
-739
-735
-732
-731
-730
-731
-732
-733
-731
-726
-724
-722
-725
-726
-728
-729
-729
-733
-735
-734
-739
-744
-750
-750
-750
-750
-753
-753
-753
-754
-754
-754
-754
-755
-756
-755
-756
-756
-757
-757
-757
-757
-757
-757
-755
-757
-757
-754
-745
-737
-741
-738
-736
-744
-765
-788
-801
-812
-829
-852
-851
-816
-790
-790
-800
-817
-828
-836
-840
-829
-811
-790
-777
-765
-751
-750
-749
-747
-749
-747
-746
-744
-744
-744
-742
-743
-742
-742
-742
-742
-742
-741
-742
-742
-741
-741
-741
-742
-741
-741
-741
-739
-739
-739
-740
-740
-739
-739
-738
-740
-738
-737
-737
-736
-736
-736
-737
-735
-735
-733
-731
-732
-731
-730
-729
-728
-728
-724
-724
-721
-721
-719
-719
-718
-714
-713
-711
-713
-709
-709
-710
-711
-714
-715
-720
-724
-728
-732
-736
-737
-738
-739
-741
-744
-745
-747
-749
-749
-750
-749
-748
-747
-749
-750
-749
-750
-749
-750
-750
-750
-749
-746
-748
-748
-750
-750
-746
-747
-747
-748
-747
-748
-749
-747
-746
-746
-746
-747
-747
-747
-747
-747
-749
-749
-750
-748
-750
-749
-749
-750
-750
-752
-750
-749
-749
-750
-753
-754
-752
-750
-750
-750
-749
-750
-750
-751
-750
-751
-750
-752
-751
-750
-750
-750
-752
-754
-752
-752
-750
-749
-747
-747
-749
-750
-750
-747
-750
-750
-750
-748
-749
-751
-750
-750
-750
-749
-750
-751
-752
-752
-750
-749
-748
-750
-750
-750
-750
-749
-750
-750
-750
-749
-750
-750
-750
-750
-750
-750
-750
-750
-749
-749
-750
-750
-749
-748
-749
-750
-750
-749
-749
-747
-747
-747
-747
-743
-741
-743
-742
-740
-736
-740
-740
-738
-734
-730
-728
-730
-732
-735
-732
-732
-735
-740
-742
-743
-750
-755
-758
-759
-760
-760
-759
-759
-759
-760
-760
-762
-765
-765
-762
-762
-763
-764
-763
-762
-762
-764
-763
-764
-764
-762
-759
-748
-745
-749
-747
-744
-750
-772
-794
-805
-817
-834
-857
-849
-804
-785
-790
-809
-827
-834
-844
-848
-838
-816
-798
-790
-776
-762
-755
-754
-757
-755
-754
-754
-755
-754
-752
-752
-754
-755
-755
-749
-750
-750
-752
-750
-749
-750
-748
-749
-749
-749
-750
-747
-749
-747
-750
-750
-747
-746
-744
-746
-746
-747
-746
-744
-746
-744
-743
-742
-741
-742
-741
-742
-740
-739
-735
-735
-735
-732
-732
-730
-731
-731
-728
-726
-723
-725
-724
-724
-721
-720
-721
-721
-724
-726
-730
-732
-736
-738
-741
-745
-749
-750
-753
-757
-756
-755
-757
-758
-759
-758
-760
-760
-760
-760
-762
-763
-763
-762
-760
-760
-762
-758
-762
-764
-764
-759
-759
-760
-759
-757
-758
-757
-759
-760
-760
-761
-763
-762
-760
-757
-759
-759
-759
-759
-760
-760
-760
-758
-759
-760
-760
-760
-760
-762
-762
-762
-760
-757
-759
-759
-762
-762
-759
-757
-757
-760
-760
-761
-760
-760
-763
-763
-762
-760
-759
-759
-759
-762
-760
-759
-757
-758
-759
-759
-757
-757
-759
-759
-759
-759
-757
-758
-757
-759
-757
-755
-755
-757
-757
-757
-755
-755
-755
-757
-756
-757
-757
-757
-757
-757
-757
-755
-755
-755
-755
-757
-757
-756
-755
-755
-757
-755
-755
-753
-754
-755
-755
-754
-753
-755
-754
-753
-754
-754
-755
-753
-755
-754
-752
-745
-744
-743
-741
-741
-742
-743
-744
-739
-734
-730
-731
-731
-732
-735
-733
-736
-737
-739
-741
-744
-753
-757
-759
-759
-759
-760
-760
-760
-760
-760
-762
-762
-762
-762
-763
-763
-763
-764
-762
-762
-763
-763
-762
-762
-763
-762
-757
-747
-741
-744
-738
-737
-742
-765
-790
-799
-809
-825
-851
-860
-824
-798
-800
-811
-825
-836
-845
-846
-832
-812
-791
-778
-764
-755
-752
-750
-750
-750
-748
-749
-747
-748
-747
-747
-747
-745
-746
-745
-746
-746
-745
-744
-743
-743
-744
-744
-744
-742
-743
-742
-744
-743
-742
-742
-741
-740
-741
-741
-741
-737
-739
-737
-739
-737
-736
-735
-733
-734
-731
-731
-729
-728
-728
-727
-725
-723
-723
-720
-719
-717
-713
-713
-709
-709
-705
-705
-705
-704
-705
-705
-708
-709
-713
-719
-723
-728
-731
-734
-737
-741
-741
-743
-746
-746
-747
-747
-748
-749
-749
-750
-748
-750
-749
-749
-747
-750
-749
-748
-749
-749
-748
-748
-747
-749
-746
-747
-747
-746
-746
-744
-746
-744
-744
-744
-744
-745
-744
-745
-744
-744
-744
-743
-744
-743
-744
-744
-744
-744
-743
-745
-743
-745
-744
-744
-746
-745
-746
-746
-746
-747
-747
-746
-746
-747
-747
-746
-748
-747
-749
-746
-747
-747
-747
-747
-747
-749
-747
-747
-747
-747
-747
-746
-747
-745
-746
-747
-746
-746
-746
-745
-744
-745
-746
-745
-746
-745
-745
-746
-745
-746
-746
-747
-746
-745
-746
-744
-746
-745
-744
-745
-745
-745
-743
-745
-744
-745
-744
-744
-744
-744
-744
-745
-745
-744
-741
-745
-744
-745
-745
-744
-744
-742
-744
-741
-741
-741
-741
-741
-741
-742
-741
-741
-741
-739
-737
-733
-731
-730
-730
-730
-730
-732
-732
-728
-725
-723
-725
-724
-728
-730
-729
-731
-733
-736
-736
-741
-749
-749
-750
-750
-752
-750
-752
-753
-754
-752
-754
-754
-756
-753
-755
-755
-756
-755
-754
-755
-754
-755
-754
-754
-754
-753
-749
-737
-735
-736
-734
-732
-745
-772
-793
-806
-821
-842
-867
-845
-805
-794
-799
-811
-823
-834
-840
-834
-818
-797
-780
-768
-755
-748
-745
-744
-743
-742
-743
-741
-741
-741
-740
-741
-737
-740
-739
-739
-739
-739
-740
-738
-738
-738
-738
-737
-737
-737
-736
-736
-736
-736
-736
-736
-736
-734
-734
-735
-734
-733
-732
-733
-732
-731
-732
-730
-729
-728
-728
-727
-724
-725
-723
-723
-721
-719
-718
-715
-715
-712
-712
-710
-709
-707
-705
-705
-703
-704
-703
-703
-709
-713
-717
-719
-727
-728
-733
-736
-739
-742
-742
-744
-744
-745
-744
-745
-746
-746
-747
-747
-747
-746
-747
-747
-746
-747
-746
-746
-747
-746
-747
-746
-746
-747
-746
-745
-745
-746
-745
-746
-745
-745
-745
-743
-745
-744
-744
-744
-742
-743
-742
-745
-745
-745
-743
-745
-746
-744
-742
-744
-744
-747
-745
-746
-745
-747
-747
-747
-748
-747
-747
-747
-749
-749
-747
-749
-747
-749
-748
-749
-749
-749
-749
-749
-749
-749
-747
-748
-747
-747
-747
-747
-748
-747
-747
-747
-747
-747
-746
-747
-747
-747
-747
-747
-746
-745
-746
-745
-746
-744
-745
-745
-744
-744
-744
-745
-746
-743
-746
-746
-746
-746
-746
-746
-745
-746
-745
-746
-744
-744
-746
-746
-747
-746
-746
-746
-746
-747
-746
-746
-746
-747
-748
-746
-746
-747
-749
-748
-749
-749
-748
-750
-746
-745
-741
-739
-739
-737
-739
-739
-739
-737
-732
-731
-728
-730
-731
-733
-733
-733
-737
-739
-739
-742
-747
-753
-754
-754
-757
-759
-761
-760
-759
-759
-757
-760
-760
-762
-760
-759
-760
-761
-760
-759
-760
-760
-760
-762
-762
-762
-762
-760
-750
-743
-747
-746
-745
-752
-770
-791
-802
-813
-828
-849
-848
-812
-785
-785
-795
-817
-829
-838
-842
-834
-816
-796
-783
-776
-762
-754
-750
-750
-751
-752
-753
-751
-749
-747
-747
-747
-747
-749
-747
-747
-746
-746
-747
-747
-748
-747
-746
-745
-743
-746
-746
-746
-745
-744
-746
-745
-745
-743
-743
-742
-741
-741
-738
-739
-739
-741
-740
-737
-737
-736
-735
-732
-732
-731
-728
-730
-726
-726
-723
-723
-721
-719
-718
-714
-713
-711
-713
-713
-710
-710
-710
-714
-716
-721
-726
-731
-737
-741
-744
-744
-747
-750
-750
-752
-754
-755
-752
-754
-755
-757
-756
-755
-756
-757
-758
-757
-757
-757
-757
-757
-755
-755
-755
-755
-757
-754
-755
-753
-753
-752
-753
-752
-752
-752
-755
-755
-755
-754
-755
-753
-755
-755
-755
-754
-753
-755
-754
-755
-759
-760
-759
-755
-756
-754
-755
-757
-757
-756
-755
-757
-758
-758
-757
-756
-757
-756
-754
-757
-757
-759
-758
-758
-757
-757
-757
-757
-756
-755
-758
-759
-757
-755
-753
-754
-754
-756
-757
-755
-751
-752
-753
-753
-753
-755
-754
-755
-752
-754
-753
-754
-754
-752
-754
-752
-753
-755
-755
-754
-750
-749
-750
-751
-750
-750
-753
-752
-750
-750
-750
-750
-751
-753
-752
-752
-752
-750
-750
-750
-752
-752
-752
-752
-753
-753
-750
-750
-750
-748
-747
-741
-740
-736
-737
-737
-739
-742
-740
-737
-731
-730
-730
-732
-735
-739
-739
-735
-733
-739
-742
-749
-754
-759
-760
-760
-760
-763
-767
-763
-762
-763
-763
-763
-762
-764
-763
-764
-765
-764
-765
-764
-765
-765
-763
-764
-765
-763
-755
-747
-746
-749
-742
-742
-759
-785
-803
-811
-823
-849
-866
-836
-805
-802
-812
-824
-834
-841
-845
-839
-820
-800
-785
-772
-760
-755
-755
-755
-752
-754
-752
-752
-750
-749
-749
-749
-749
-749
-747
-748
-747
-747
-744
-746
-746
-747
-746
-744
-745
-746
-746
-745
-743
-742
-741
-742
-740
-738
-739
-739
-739
-736
-737
-737
-737
-735
-735
-735
-732
-734
-733
-732
-731
-729
-728
-724
-725
-723
-721
-719
-716
-716
-714
-713
-710
-709
-708
-706
-707
-707
-713
-714
-719
-723
-728
-731
-734
-737
-740
-745
-746
-749
-750
-751
-752
-752
-754
-753
-754
-755
-755
-755
-755
-755
-755
-755
-755
-755
-754
-753
-752
-753
-753
-752
-752
-752
-752
-751
-750
-750
-752
-750
-750
-749
-749
-750
-749
-750
-749
-750
-749
-749
-749
-748
-749
-747
-747
-748
-747
-748
-747
-748
-747
-748
-748
-747
-749
-748
-749
-749
-750
-750
-749
-750
-750
-752
-751
-750
-752
-751
-753
-750
-750
-750
-750
-749
-749
-750
-750
-749
-750
-749
-750
-749
-749
-748
-749
-749
-748
-749
-749
-748
-749
-748
-749
-748
-749
-748
-749
-748
-747
-748
-748
-748
-747
-748
-750
-747
-749
-747
-747
-747
-747
-747
-747
-746
-745
-747
-745
-746
-747
-746
-745
-745
-745
-744
-743
-746
-745
-746
-743
-745
-746
-745
-744
-744
-745
-744
-744
-744
-745
-745
-744
-744
-741
-737
-734
-733
-732
-731
-732
-735
-734
-733
-728
-724
-725
-725
-728
-730
-731
-731
-734
-736
-736
-741
-746
-750
-750
-750
-752
-752
-753
-752
-753
-754
-755
-754
-755
-755
-754
-754
-755
-755
-755
-752
-755
-754
-754
-750
-753
-754
-750
-741
-732
-733
-734
-730
-736
-759
-785
-800
-813
-829
-856
-863
-828
-802
-804
-813
-824
-833
-840
-838
-823
-802
-782
-769
-757
-749
-744
-743
-742
-742
-741
-741
-740
-739
-741
-739
-741
-740
-739
-741
-739
-740
-739
-739
-738
-739
-737
-737
-737
-737
-735
-736
-736
-737
-737
-737
-736
-736
-736
-734
-734
-733
-732
-732
-731
-731
-729
-728
-726
-727
-724
-724
-723
-721
-721
-719
-717
-716
-714
-713
-709
-709
-705
-704
-698
-700
-698
-699
-699
-699
-702
-704
-709
-713
-719
-723
-728
-734
-736
-740
-743
-744
-747
-747
-748
-747
-750
-750
-751
-750
-750
-750
-750
-752
-751
-752
-753
-752
-752
-752
-754
-752
-752
-750
-750
-750
-749
-750
-749
-748
-749
-748
-748
-747
-748
-747
-747
-747
-747
-747
-746
-746
-746
-747
-747
-747
-747
-747
-747
-746
-747
-746
-746
-747
-745
-746
-744
-747
-749
-746
-745
-747
-749
-748
-749
-750
-750
-750
-750
-750
-750
-750
-750
-750
-750
-750
-750
-748
-749
-749
-747
-749
-747
-749
-749
-748
-749
-747
-748
-747
-747
-747
-747
-747
-747
-747
-746
-747
-747
-746
-748
-747
-747
-747
-747
-748
-747
-748
-747
-747
-747
-745
-747
-747
-747
-744
-747
-747
-747
-747
-746
-747
-747
-748
-747
-747
-748
-747
-747
-746
-747
-747
-747
-749
-746
-747
-746
-746
-747
-747
-747
-746
-747
-747
-746
-747
-747
-748
-747
-747
-747
-747
-747
-747
-745
-741
-739
-736
-736
-737
-737
-737
-735
-734
-728
-726
-726
-728
-729
-730
-729
-733
-736
-739
-740
-746
-750
-752
-754
-753
-754
-755
-756
-755
-755
-756
-757
-757
-755
-757
-757
-757
-757
-757
-757
-755
-757
-757
-755
-755
-754
-755
-748
-740
-741
-742
-739
-740
-760
-785
-798
-810
-824
-847
-852
-815
-791
-792
-801
-816
-826
-835
-832
-820
-800
-785
-772
-760
-752
-748
-747
-747
-745
-745
-744
-743
-742
-742
-741
-740
-739
-739
-739
-739
-739
-737
-736
-736
-734
-736
-735
-736
-736
-735
-736
-735
-736
-735
-735
-735
-734
-734
-732
-733
-733
-732
-732
-730
-730
-728
-729
-727
-726
-726
-724
-723
-718
-720
-719
-717
-714
-713
-712
-708
-709
-705
-703
-701
-700
-700
-699
-700
-701
-704
-705
-708
-712
-719
-722
-726
-732
-735
-738
-739
-742
-745
-746
-748
-747
-748
-747
-749
-750
-750
-750
-750
-750
-750
-749
-750
-749
-750
-750
-750
-750
-749
-749
-749
-750
-749
-749
-746
-749
-749
-749
-748
-749
-747
-748
-747
-748
-747
-748
-747
-749
-749
-750
-750
-750
-750
-750
-749
-748
-748
-749
-749
-751
-752
-752
-751
-752
-752
-752
-753
-754
-753
-753
-753
-754
-754
-755
-755
-755
-757
-755
-754
-753
-753
-754
-754
-755
-754
-754
-754
-756
-756
-754
-754
-752
-752
-749
-752
-753
-753
-752
-755
-757
-753
-750
-751
-752
-753
-753
-754
-755
-755
-754
-752
-754
-754
-756
-757
-754
-752
-750
-752
-754
-757
-759
-755
-752
-750
-752
-754
-755
-755
-754
-752
-750
-752
-752
-752
-751
-750
-751
-752
-754
-755
-753
-754
-752
-752
-753
-755
-757
-752
-753
-752
-754
-752
-755
-755
-755
-754
-753
-753
-750
-747
-745
-741
-739
-740
-744
-743
-740
-741
-737
-733
-731
-732
-736
-736
-737
-735
-737
-741
-745
-748
-754
-760
-760
-759
-759
-759
-762
-762
-762
-764
-765
-764
-762
-760
-759
-761
-762
-765
-764
-765
-764
-765
-762
-764
-764
-764
-756
-750
-750
-752
-748
-752
-772
-793
-801
-813
-829
-854
-850
-813
-787
-782
-799
-822
-834
-841
-846
-835
-815
-795
-782
-770
-760
-754
-754
-755
-756
-754
-750
-750
-749
-749
-749
-750
-750
-748
-750
-750
-749
-747
-747
-750
-749
-746
-746
-747
-747
-747
-750
-749
-747
-743
-747
-745
-747
-745
-743
-744
-742
-743
-742
-743
-742
-738
-739
-739
-739
-737
-737
-736
-735
-735
-731
-730
-729
-728
-726
-724
-724
-719
-719
-715
-717
-716
-717
-716
-717
-716
-719
-724
-729
-734
-741
-746
-749
-750
-755
-755
-757
-758
-760
-760
-760
-762
-761
-762
-759
-760
-764
-765
-765
-762
-762
-760
-764
-764
-764
-763
-760
-762
-762
-763
-763
-762
-761
-759
-758
-759
-761
-761
-758
-759
-760
-762
-759
-762
-762
-759
-759
-759
-760
-762
-760
-762
-762
-765
-763
-762
-762
-759
-760
-760
-760
-760
-762
-764
-762
-759
-759
-760
-761
-760
-762
-762
-763
-762
-762
-762
-762
-760
-759
-760
-760
-759
-760
-759
-760
-759
-760
-759
-760
-760
-758
-757
-757
-757
-757
-757
-756
-757
-759
-757
-757
-757
-757
-758
-758
-759
-756
-757
-756
-758
-757
-757
-757
-756
-757
-758
-757
-757
-757
-759
-754
-757
-755
-757
-755
-753
-755
-755
-755
-755
-755
-757
-755
-757
-757
-757
-757
-757
-757
-755
-753
-750
-749
-745
-744
-746
-744
-744
-742
-741
-739
-735
-735
-736
-737
-739
-739
-740
-739
-744
-744
-747
-755
-760
-762
-762
-763
-764
-763
-765
-766
-767
-765
-765
-764
-763
-765
-765
-767
-768
-767
-767
-765
-767
-765
-765
-765
-765
-760
-750
-748
-750
-747
-744
-753
-776
-795
-806
-820
-839
-865
-852
-813
-800
-808
-823
-834
-844
-846
-839
-821
-800
-785
-772
-760
-754
-750
-752
-750
-750
-749
-749
-747
-745
-746
-746
-745
-744
-744
-746
-742
-744
-742
-743
-741
-742
-742
-741
-742
-740
-739
-741
-739
-739
-739
-738
-737
-736
-738
-737
-737
-735
-735
-736
-733
-733
-731
-732
-730
-729
-728
-725
-724
-723
-724
-721
-719
-718
-715
-714
-711
-709
-707
-706
-704
-701
-703
-701
-702
-703
-705
-708
-714
-719
-724
-728
-732
-738
-741
-742
-747
-747
-748
-749
-750
-750
-752
-753
-754
-754
-754
-754
-754
-755
-755
-754
-755
-752
-755
-754
-754
-753
-753
-752
-750
-752
-752
-750
-750
-749
-750
-750
-750
-750
-749
-749
-747
-748
-747
-747
-747
-747
-747
-747
-747
-747
-747
-747
-747
-748
-747
-750
-749
-750
-748
-750
-750
-750
-750
-750
-752
-752
-750
-752
-750
-752
-750
-752
-751
-750
-752
-750
-751
-750
-750
-750
-750
-750
-749
-749
-749
-749
-749
-748
-749
-749
-749
-749
-749
-750
-749
-749
-749
-749
-749
-749
-748
-747
-748
-748
-749
-749
-748
-749
-748
-747
-749
-748
-750
-745
-749
-748
-748
-748
-749
-749
-747
-748
-748
-749
-749
-748
-749
-747
-747
-747
-746
-747
-746
-748
-747
-747
-747
-747
-747
-746
-749
-748
-749
-748
-748
-748
-747
-748
-748
-746
-742
-740
-739
-737
-738
-739
-738
-737
-735
-731
-724
-725
-725
-728
-729
-730
-732
-733
-735
-737
-742
-750
-752
-754
-753
-754
-755
-755
-757
-755
-757
-757
-757
-757
-755
-758
-757
-759
-757
-758
-758
-757
-759
-757
-757
-757
-757
-755
-744
-739
-741
-741
-736
-744
-768
-790
-805
-819
-836
-864
-861
-820
-800
-802
-814
-826
-835
-842
-838
-824
-801
-783
-768
-754
-748
-745
-747
-743
-742
-742
-741
-742
-741
-741
-741
-739
-739
-737
-739
-736
-737
-739
-738
-738
-737
-739
-737
-737
-736
-736
-737
-736
-736
-734
-735
-734
-731
-732
-732
-732
-732
-732
-732
-731
-731
-730
-730
-729
-728
-727
-724
-724
-722
-720
-718
-716
-714
-710
-709
-709
-708
-705
-701
-702
-700
-699
-700
-700
-699
-701
-706
-709
-714
-719
-724
-728
-734
-739
-742
-745
-747
-750
-750
-752
-752
-753
-753
-753
-754
-755
-753
-755
-754
-755
-754
-755
-754
-754
-755
-753
-755
-753
-755
-753
-753
-752
-752
-752
-751
-750
-750
-750
-750
-747
-750
-750
-750
-747
-749
-750
-750
-750
-750
-750
-750
-750
-750
-750
-752
-749
-750
-752
-752
-752
-752
-752
-753
-752
-753
-752
-754
-752
-753
-753
-753
-755
-754
-754
-754
-754
-755
-754
-754
-753
-753
-753
-753
-753
-752
-754
-752
-752
-752
-752
-752
-750
-750
-750
-749
-750
-750
-750
-749
-751
-750
-750
-750
-749
-749
-749
-749
-749
-750
-749
-749
-749
-748
-749
-748
-749
-749
-749
-749
-749
-748
-748
-747
-747
-747
-748
-747
-749
-747
-747
-748
-747
-747
-747
-747
-747
-747
-747
-748
-749
-748
-749
-749
-749
-749
-748
-749
-747
-746
-741
-741
-739
-739
-737
-740
-740
-740
-738
-733
-730
-729
-731
-732
-733
-734
-739
-739
-742
-742
-747
-754
-755
-756
-757
-759
-759
-759
-759
-759
-759
-760
-760
-760
-760
-761
-760
-762
-761
-762
-762
-761
-762
-760
-760
-760
-760
-759
-752
-745
-747
-747
-741
-745
-768
-796
-809
-819
-832
-858
-858
-820
-793
-792
-804
-822
-833
-839
-843
-832
-812
-793
-780
-767
-755
-749
-750
-749
-750
-749
-746
-745
-744
-745
-745
-745
-746
-746
-744
-742
-742
-742
-742
-744
-741
-741
-739
-741
-742
-742
-742
-738
-739
-740
-739
-739
-738
-742
-742
-741
-736
-736
-737
-736
-735
-734
-733
-732
-732
-731
-728
-728
-726
-723
-719
-717
-718
-714
-715
-711
-710
-707
-708
-709
-707
-703
-700
-704
-705
-709
-713
-719
-721
-728
-733
-737
-744
-746
-750
-753
-757
-759
-760
-757
-755
-755
-758
-760
-762
-762
-763
-762
-763
-762
-763
-762
-764
-765
-763
-760
-760
-760
-762
-760
-760
-760
-760
-761
-762
-760
-760
-762
-760
-760
-759
-757
-759
-759
-762
-763
-763
-760
-759
-760
-759
-760
-759
-760
-760
-759
-759
-759
-760
-760
-762
-762
-760
-760
-760
-762
-760
-760
-760
-762
-763
-763
-763
-762
-760
-760
-759
-762
-760
-760
-758
-762
-760
-759
-759
-759
-761
-762
-762
-760
-758
-759
-757
-758
-757
-758
-759
-757
-759
-758
-759
-758
-759
-759
-759
-759
-757
-758
-759
-759
-759
-757
-755
-755
-759
-759
-760
-758
-757
-757
-759
-760
-757
-759
-759
-759
-757
-753
-750
-748
-748
-745
-745
-747
-747
-744
-739
-737
-737
-738
-739
-737
-738
-740
-745
-749
-749
-754
-762
-765
-763
-765
-769
-770
-770
-769
-769
-768
-772
-772
-770
-769
-768
-771
-772
-773
-773
-773
-772
-772
-773
-773
-773
-772
-766
-759
-755
-758
-755
-752
-764
-788
-808
-820
-834
-851
-874
-859
-823
-809
-816
-826
-839
-848
-854
-850
-834
-813
-794
-780
-770
-763
-762
-760
-757
-755
-752
-754
-752
-753
-753
-751
-752
-752
-753
-754
-755
-755
-752
-752
-752
-754
-752
-750
-750
-751
-750
-749
-749
-749
-749
-747
-747
-748
-747
-747
-747
-747
-745
-743
-743
-742
-741
-739
-737
-736
-736
-736
-732
-728
-728
-728
-727
-724
-723
-719
-718
-715
-713
-712
-711
-711
-710
-711
-713
-716
-719
-723
-730
-735
-741
-745
-750
-754
-757
-759
-760
-762
-762
-764
-765
-767
-767
-767
-767
-767
-767
-766
-767
-766
-767
-768
-765
-765
-764
-766
-763
-766
-765
-765
-763
-764
-765
-763
-760
-764
-764
-763
-764
-764
-764
-762
-763
-762
-762
-762
-760
-762
-762
-763
-762
-763
-762
-762
-762
-761
-761
-760
-760
-760
-760
-760
-760
-760
-759
-760
-759
-760
-759
-759
-760
-760
-760
-758
-759
-759
-758
-759
-759
-759
-759
-757
-757
-755
-757
-754
-755
-755
-754
-754
-754
-755
-754
-755
-755
-753
-754
-752
-754
-752
-753
-752
-754
-753
-752
-752
-750
-750
-750
-750
-752
-750
-752
-752
-752
-750
-750
-750
-749
-750
-750
-750
-749
-749
-750
-747
-745
-740
-738
-737
-737
-738
-737
-739
-739
-735
-730
-728
-729
-728
-730
-732
-732
-735
-735
-739
-741
-749
-755
-755
-756
-755
-756
-756
-759
-758
-757
-759
-759
-760
-760
-760
-760
-759
-760
-760
-760
-760
-760
-760
-760
-760
-759
-757
-745
-737
-741
-739
-736
-744
-768
-793
-808
-821
-840
-868
-870
-830
-809
-813
-819
-829
-837
-844
-837
-822
-799
-780
-768
-755
-749
-748
-747
-746
-746
-744
-744
-743
-742
-742
-742
-742
-741
-741
-741
-741
-741
-740
-741
-739
-739
-739
-738
-738
-737
-738
-736
-736
-736
-734
-735
-734
-734
-733
-734
-732
-731
-731
-731
-731
-732
-731
-730
-728
-728
-726
-724
-722
-720
-719
-716
-715
-711
-710
-705
-705
-703
-698
-698
-695
-695
-693
-695
-695
-696
-701
-705
-711
-716
-723
-728
-733
-739
-743
-746
-747
-750
-750
-752
-754
-753
-755
-754
-755
-755
-755
-756
-755
-756
-756
-757
-756
-757
-757
-755
-757
-757
-756
-757
-755
-755
-754
-755
-754
-753
-752
-752
-754
-752
-750
-752
-752
-752
-750
-752
-752
-753
-752
-752
-754
-752
-752
-752
-752
-753
-752
-753
-752
-754
-754
-754
-754
-754
-753
-752
-754
-754
-753
-754
-754
-754
-753
-753
-754
-754
-754
-754
-754
-752
-753
-753
-752
-752
-751
-750
-750
-750
-749
-749
-749
-747
-749
-750
-749
-748
-749
-750
-749
-750
-749
-748
-749
-749
-749
-748
-750
-750
-749
-749
-749
-750
-749
-749
-748
-748
-748
-747
-748
-746
-747
-747
-746
-747
-746
-746
-746
-745
-746
-744
-746
-746
-745
-747
-746
-747
-745
-745
-741
-737
-736
-733
-734
-735
-736
-736
-733
-732
-726
-724
-724
-728
-729
-731
-732
-732
-736
-737
-739
-746
-752
-754
-753
-755
-756
-757
-757
-757
-758
-759
-757
-757
-757
-758
-757
-757
-757
-758
-759
-759
-759
-759
-759
-758
-758
-759
-754
-744
-736
-740
-739
-735
-746
-773
-798
-814
-828
-847
-875
-865
-824
-805
-807
-816
-829
-841
-846
-843
-824
-804
-783
-768
-757
-747
-745
-744
-743
-743
-741
-742
-741
-739
-741
-739
-740
-739
-738
-739
-738
-739
-738
-739
-739
-737
-737
-736
-736
-734
-735
-735
-735
-735
-733
-733
-732
-732
-732
-731
-731
-729
-730
-729
-730
-728
-727
-725
-721
-722
-720
-720
-717
-716
-715
-711
-709
-707
-705
-703
-701
-700
-696
-696
-694
-694
-692
-693
-695
-699
-705
-708
-716
-720
-726
-732
-736
-741
-743
-747
-747
-750
-750
-752
-753
-752
-754
-752
-754
-752
-754
-755
-754
-755
-755
-754
-754
-755
-754
-752
-753
-752
-754
-750
-750
-750
-750
-748
-750
-750
-750
-747
-749
-748
-747
-748
-748
-749
-749
-750
-748
-748
-749
-747
-750
-749
-751
-750
-751
-751
-750
-751
-750
-750
-751
-750
-751
-750
-752
-752
-753
-752
-753
-754
-753
-753
-754
-754
-754
-753
-754
-754
-753
-754
-753
-754
-752
-754
-750
-751
-750
-750
-750
-750
-750
-750
-747
-750
-749
-749
-749
-748
-748
-748
-750
-748
-749
-748
-747
-749
-748
-750
-749
-750
-749
-750
-750
-750
-750
-750
-750
-748
-747
-749
-749
-750
-750
-750
-750
-749
-749
-748
-750
-749
-749
-747
-749
-750
-750
-748
-748
-750
-749
-748
-750
-748
-747
-747
-749
-746
-742
-740
-739
-739
-740
-741
-742
-743
-742
-736
-731
-731
-730
-731
-731
-735
-734
-736
-740
-741
-743
-748
-756
-757
-759
-760
-760
-760
-760
-759
-759
-760
-762
-761
-763
-762
-762
-762
-760
-759
-759
-761
-762
-762
-761
-759
-758
-759
-757
-751
-741
-745
-745
-744
-745
-762
-792
-806
-819
-837
-859
-867
-828
-791
-788
-798
-817
-830
-837
-843
-836
-819
-796
-781
-769
-755
-747
-747
-745
-745
-744
-743
-742
-742
-742
-742
-741
-739
-742
-742
-742
-742
-739
-740
-739
-739
-738
-737
-739
-737
-736
-736
-736
-736
-734
-735
-732
-732
-734
-732
-732
-730
-732
-731
-730
-730
-729
-730
-728
-728
-725
-723
-721
-719
-720
-719
-716
-711
-708
-707
-705
-706
-702
-702
-700
-697
-696
-696
-699
-698
-703
-705
-713
-719
-724
-731
-738
-744
-745
-745
-747
-751
-753
-754
-757
-757
-758
-759
-757
-759
-759
-759
-757
-760
-760
-760
-758
-759
-758
-760
-760
-758
-757
-756
-757
-758
-759
-759
-757
-757
-757
-755
-755
-754
-756
-755
-752
-752
-750
-752
-752
-754
-757
-755
-755
-755
-754
-753
-754
-755
-755
-757
-758
-758
-757
-757
-759
-760
-757
-755
-755
-759
-759
-759
-760
-762
-761
-757
-758
-759
-759
-757
-759
-760
-760
-760
-758
-760
-759
-760
-759
-757
-759
-760
-760
-759
-757
-755
-755
-757
-757
-757
-758
-760
-759
-757
-755
-754
-757
-760
-760
-759
-756
-757
-756
-757
-757
-757
-758
-755
-755
-755
-757
-757
-755
-755
-755
-757
-757
-759
-759
-757
-754
-754
-755
-755
-754
-759
-759
-758
-757
-754
-755
-755
-756
-755
-755
-759
-759
-759
-757
-754
-753
-753
-752
-750
-749
-746
-747
-746
-746
-747
-747
-745
-737
-736
-736
-736
-738
-740
-741
-742
-744
-746
-749
-754
-760
-765
-765
-768
-768
-767
-766
-765
-767
-767
-767
-769
-766
-767
-767
-770
-770
-770
-768
-770
-769
-768
-770
-770
-768
-767
-767
-763
-754
-750
-754
-750
-749
-760
-784
-801
-811
-826
-847
-870
-847
-813
-810
-815
-828
-838
-846
-847
-835
-819
-800
-785
-773
-760
-755
-754
-753
-752
-750
-750
-749
-749
-749
-747
-749
-749
-747
-748
-747
-746
-744
-746
-744
-743
-742
-742
-742
-741
-742
-740
-741
-741
-741
-742
-740
-741
-739
-738
-737
-736
-736
-734
-735
-735
-735
-734
-733
-732
-731
-731
-728
-726
-723
-721
-720
-718
-717
-713
-711
-709
-705
-702
-701
-701
-700
-701
-701
-705
-708
-714
-720
-723
-731
-735
-741
-742
-749
-750
-755
-754
-757
-759
-759
-759
-759
-760
-760
-759
-760
-759
-760
-759
-760
-759
-759
-760
-758
-759
-758
-759
-757
-757
-757
-757
-757
-756
-755
-754
-752
-752
-752
-752
-750
-750
-751
-750
-750
-750
-750
-750
-750
-750
-749
-750
-750
-750
-749
-750
-750
-749
-749
-750
-751
-752
-749
-752
-750
-752
-752
-752
-753
-752
-754
-752
-754
-753
-751
-754
-754
-754
-753
-753
-754
-753
-753
-753
-754
-754
-752
-753
-753
-754
-752
-753
-752
-752
-752
-752
-752
-750
-750
-752
-750
-750
-750
-752
-750
-750
-750
-750
-750
-750
-750
-750
-749
-748
-749
-750
-750
-747
-749
-748
-749
-748
-750
-750
-750
-750
-749
-750
-749
-748
-750
-750
-750
-750
-750
-750
-750
-750
-750
-750
-750
-750
-750
-750
-750
-750
-750
-750
-750
-750
-749
-750
-749
-750
-750
-750
-749
-750
-751
-750
-748
-744
-742
-740
-737
-739
-737
-738
-738
-739
-735
-730
-729
-732
-732
-733
-735
-736
-739
-740
-741
-745
-752
-754
-753
-755
-757
-757
-757
-759
-756
-759
-759
-760
-760
-759
-760
-759
-759
-759
-757
-759
-759
-759
-758
-758
-758
-758
-758
-754
-744
-737
-740
-739
-734
-741
-763
-788
-804
-818
-834
-865
-865
-829
-808
-813
-819
-828
-836
-840
-833
-815
-795
-778
-765
-752
-745
-741
-743
-741
-741
-739
-739
-739
-737
-739
-737
-737
-737
-736
-735
-733
-735
-734
-734
-733
-732
-732
-732
-732
-731
-731
-732
-731
-732
-731
-729
-728
-729
-728
-727
-729
-728
-727
-728
-726
-728
-725
-723
-724
-723
-723
-719
-720
-717
-715
-713
-709
-707
-703
-704
-698
-699
-697
-696
-695
-691
-692
-690
-693
-692
-693
-699
-705
-713
-717
-724
-729
-735
-739
-742
-745
-749
-750
-750
-752
-752
-754
-755
-755
-755
-754
-755
-755
-755
-755
-755
-756
-755
-755
-755
-755
-755
-752
-755
-753
-753
-750
-751
-751
-751
-752
-750
-750
-750
-750
-749
-747
-748
-749
-748
-748
-749
-749
-749
-748
-750
-749
-748
-748
-750
-750
-750
-750
-750
-750
-749
-750
-750
-750
-750
-750
-751
-752
-752
-752
-751
-752
-752
-752
-750
-751
-752
-752
-752
-752
-752
-752
-750
-752
-752
-754
-750
-754
-754
-753
-754
-753
-753
-754
-754
-754
-753
-754
-753
-753
-753
-753
-754
-753
-754
-754
-753
-755
-752
-754
-753
-753
-753
-754
-753
-752
-753
-753
-752
-752
-751
-753
-752
-752
-752
-750
-751
-750
-750
-750
-750
-750
-750
-750
-750
-750
-750
-749
-750
-750
-750
-748
-750
-750
-750
-751
-750
-751
-750
-750
-750
-749
-750
-750
-750
-750
-749
-749
-749
-749
-749
-750
-749
-750
-749
-750
-750
-750
-750
-749
-749
-747
-744
-741
-739
-740
-739
-739
-741
-741
-741
-735
-731
-730
-730
-731
-732
-734
-735
-736
-739
-740
-741
-749
-754
-755
-752
-755
-755
-757
-757
-757
-759
-758
-758
-759
-759
-759
-759
-760
-760
-760
-759
-759
-758
-759
-759
-758
-759
-758
-757
-754
-742
-739
-741
-739
-736
-745
-770
-793
-806
-819
-837
-863
-857
-817
-802
-805
-814
-823
-832
-838
-832
-817
-797
-778
-766
-752
-747
-743
-743
-741
-741
-740
-738
-737
-737
-737
-738
-737
-738
-736
-736
-736
-735
-736
-735
-734
-734
-735
-735
-732
-733
-732
-732
-732
-730
-731
-730
-731
-729
-729
-731
-730
-730
-728
-730
-728
-728
-728
-726
-726
-724
-723
-723
-721
-720
-716
-716
-713
-708
-706
-702
-704
-700
-699
-695
-695
-693
-694
-695
-694
-695
-698
-705
-708
-714
-721
-726
-732
-736
-742
-745
-749
-751
-752
-754
-754
-757
-757
-757
-756
-757
-759
-756
-757
-758
-760
-759
-758
-758
-757
-757
-755
-757
-756
-754
-755
-753
-755
-757
-755
-754
-752
-754
-754
-752
-748
-750
-750
-752
-752
-754
-753
-752
-748
-751
-750
-752
-752
-750
-752
-752
-750
-750
-750
-752
-752
-755
-755
-754
-753
-752
-752
-750
-753
-754
-754
-755
-755
-757
-757
-757
-757
-757
-757
-755
-755
-756
-757
-757
-757
-759
-757
-756
-755
-754
-757
-757
-759
-759
-759
-755
-757
-757
-755
-755
-759
-759
-759
-754
-757
-756
-760
-760
-759
-757
-756
-758
-757
-758
-757
-755
-759
-757
-759
-757
-757
-759
-757
-759
-759
-760
-759
-759
-758
-757
-760
-760
-760
-762
-760
-760
-760
-761
-760
-758
-760
-762
-761
-759
-758
-759
-758
-760
-760
-760
-758
-760
-760
-762
-760
-760
-760
-760
-759
-762
-762
-762
-759
-759
-760
-762
-762
-762
-762
-762
-759
-759
-759
-760
-760
-761
-760
-762
-760
-760
-760
-757
-755
-752
-750
-748
-747
-749
-750
-750
-746
-739
-738
-737
-741
-741
-741
-741
-742
-746
-747
-752
-759
-762
-764
-762
-767
-768
-767
-765
-768
-770
-769
-771
-770
-770
-770
-767
-768
-768
-772
-773
-770
-768
-767
-767
-769
-769
-767
-767
-760
-755
-757
-755
-751
-759
-778
-797
-803
-813
-833
-854
-853
-818
-793
-793
-805
-824
-836
-845
-846
-833
-812
-792
-779
-770
-759
-754
-754
-752
-752
-750
-750
-750
-749
-748
-746
-747
-741
-742
-743
-743
-745
-744
-744
-744
-744
-744
-742
-741
-738
-741
-743
-743
-741
-739
-741
-738
-741
-742
-741
-739
-736
-736
-735
-737
-736
-734
-734
-734
-732
-730
-728
-727
-722
-721
-718
-717
-715
-712
-709
-709
-709
-707
-706
-703
-700
-700
-699
-700
-702
-707
-711
-715
-719
-727
-732
-737
-744
-749
-752
-754
-755
-757
-761
-764
-764
-765
-764
-764
-765
-766
-767
-765
-765
-766
-766
-767
-765
-766
-764
-765
-764
-765
-765
-764
-765
-763
-762
-763
-762
-763
-762
-763
-762
-761
-760
-760
-760
-759
-759
-759
-760
-761
-759
-760
-760
-760
-759
-760
-760
-760
-761
-760
-759
-760
-759
-760
-760
-760
-760
-761
-762
-761
-762
-760
-760
-762
-762
-763
-760
-762
-761
-760
-762
-760
-762
-760
-760
-759
-759
-760
-759
-759
-758
-758
-759
-759
-759
-759
-759
-759
-760
-759
-758
-758
-757
-759
-758
-757
-759
-759
-759
-757
-759
-759
-759
-757
-757
-757
-757
-757
-757
-755
-755
-755
-755
-755
-755
-755
-754
-755
-756
-755
-756
-757
-757
-755
-756
-755
-755
-755
-755
-755
-755
-755
-754
-754
-755
-754
-755
-754
-755
-754
-753
-754
-753
-754
-753
-753
-752
-753
-754
-755
-754
-754
-753
-752
-748
-748
-745
-743
-741
-741
-742
-741
-742
-739
-736
-732
-731
-735
-735
-736
-736
-737
-739
-741
-743
-745
-750
-757
-757
-759
-759
-760
-759
-759
-760
-760
-760
-760
-760
-760
-762
-762
-762
-762
-760
-760
-760
-760
-763
-762
-762
-762
-762
-757
-745
-742
-745
-742
-741
-750
-776
-794
-806
-821
-843
-869
-854
-816
-810
-813
-822
-829
-840
-841
-831
-815
-794
-777
-764
-752
-747
-745
-744
-744
-741
-742
-741
-740
-739
-737
-739
-737
-737
-736
-736
-736
-734
-733
-735
-734
-734
-732
-734
-732
-732
-732
-732
-732
-731
-732
-730
-731
-731
-729
-728
-727
-728
-728
-725
-728
-725
-726
-724
-723
-721
-719
-720
-717
-717
-714
-711
-710
-707
-706
-702
-701
-698
-695
-694
-691
-693
-688
-690
-688
-691
-695
-698
-705
-710
-718
-723
-730
-735
-739
-743
-745
-749
-748
-750
-752
-753
-754
-754
-754
-755
-754
-755
-755
-757
-754
-757
-755
-755
-753
-754
-754
-753
-753
-752
-752
-754
-752
-753
-752
-752
-750
-750
-752
-750
-750
-750
-750
-750
-749
-750
-749
-750
-750
-750
-749
-748
-749
-750
-748
-750
-749
-750
-749
-750
-750
-750
-750
-750
-750
-749
-752
-750
-750
-750
-752
-751
-752
-754
-753
-752
-753
-754
-755
-752
-754
-754
-754
-755
-754
-755
-753
-754
-754
-754
-753
-750
-754
-753
-754
-752
-752
-753
-752
-753
-752
-752
-753
-752
-752
-752
-753
-752
-752
-754
-753
-753
-752
-752
-753
-752
-754
-752
-753
-752
-752
-752
-750
-752
-752
-752
-752
-752
-753
-751
-750
-753
-754
-755
-750
-753
-752
-752
-752
-752
-752
-752
-752
-752
-752
-752
-750
-752
-750
-750
-750
-750
-750
-750
-750
-749
-750
-749
-749
-749
-749
-750
-749
-750
-750
-750
-750
-749
-748
-747
-743
-742
-740
-741
-739
-741
-742
-740
-738
-732
-731
-731
-732
-734
-734
-734
-736
-739
-742
-740
-748
-753
-755
-756
-757
-759
-759
-758
-759
-759
-759
-759
-760
-759
-760
-758
-759
-759
-759
-759
-758
-759
-759
-760
-760
-759
-759
-757
-748
-739
-741
-742
-736
-739
-759
-785
-801
-814
-831
-859
-869
-834
-806
-806
-813
-825
-837
-842
-842
-826
-806
-784
-768
-755
-743
-738
-737
-736
-736
-734
-733
-734
-732
-732
-732
-731
-732
-731
-731
-730
-730
-730
-729
-730
-729
-729
-729
-728
-729
-727
-728
-728
-729
-729
-727
-728
-724
-727
-725
-726
-728
-724
-725
-723
-724
-723
-722
-721
-720
-721
-719
-718
-718
-714
-713
-708
-709
-705
-703
-701
-700
-698
-695
-695
-691
-690
-689
-689
-689
-689
-695
-701
-706
-713
-719
-726
-731
-737
-740
-744
-748
-750
-753
-753
-753
-754
-756
-755
-755
-757
-757
-758
-757
-759
-759
-758
-759
-757
-758
-757
-759
-758
-755
-757
-755
-755
-754
-753
-754
-754
-752
-753
-753
-752
-750
-752
-750
-752
-751
-752
-752
-751
-753
-751
-753
-753
-752
-752
-752
-752
-752
-752
-752
-752
-753
-752
-753
-753
-754
-754
-753
-754
-754
-754
-754
-755
-755
-755
-757
-755
-757
-758
-756
-757
-754
-754
-754
-754
-755
-753
-755
-755
-756
-756
-757
-754
-755
-757
-757
-755
-757
-757
-757
-756
-757
-757
-757
-755
-753
-754
-755
-756
-755
-755
-757
-756
-757
-755
-757
-757
-757
-757
-757
-758
-758
-757
-756
-755
-757
-758
-760
-758
-755
-757
-757
-757
-757
-757
-759
-759
-758
-757
-756
-758
-758
-759
-759
-759
-759
-759
-755
-759
-759
-757
-754
-757
-757
-759
-759
-759
-759
-759
-759
-759
-760
-759
-759
-759
-759
-759
-757
-759
-760
-760
-760
-760
-757
-753
-750
-750
-750
-750
-750
-752
-750
-747
-742
-738
-739
-738
-740
-743
-744
-746
-749
-750
-750
-753
-761
-765
-765
-764
-768
-770
-769
-772
-769
-769
-768
-771
-770
-769
-770
-773
-770
-770
-770
-773
-772
-770
-769
-768
-768
-768
-769
-767
-760
-760
-760
-755
-750
-763
-787
-804
-811
-825
-844
-861
-837
-798
-785
-790
-810
-829
-839
-844
-842
-830
-808
-789
-774
-761
-754
-752
-753
-750
-746
-745
-744
-744
-742
-743
-745
-743
-741
-741
-744
-745
-743
-743
-742
-743
-741
-738
-739
-738
-739
-737
-739
-738
-737
-741
-739
-739
-736
-735
-733
-732
-733
-734
-736
-733
-732
-733
-734
-735
-731
-728
-728
-726
-726
-723
-722
-719
-717
-714
-711
-709
-704
-703
-703
-703
-703
-699
-698
-695
-698
-703
-708
-713
-719
-725
-731
-736
-744
-750
-754
-755
-757
-760
-763
-763
-765
-767
-767
-767
-766
-767
-767
-769
-769
-767
-768
-769
-769
-768
-767
-767
-767
-766
-764
-765
-767
-768
-767
-767
-768
-767
-766
-765
-765
-767
-767
-766
-765
-764
-764
-764
-765
-765
-768
-766
-765
-764
-762
-767
-767
-767
-768
-765
-767
-766
-767
-766
-766
-768
-768
-767
-767
-769
-767
-768
-768
-768
-771
-772
-770
-768
-767
-768
-768
-770
-769
-770
-768
-767
-767
-767
-767
-768
-767
-767
-763
-764
-765
-764
-764
-765
-766
-765
-765
-765
-765
-765
-763
-762
-762
-764
-767
-765
-764
-763
-765
-764
-765
-764
-762
-764
-763
-764
-764
-765
-764
-763
-765
-763
-765
-765
-765
-765
-764
-764
-764
-763
-763
-762
-764
-765
-764
-763
-763
-763
-762
-764
-762
-764
-764
-763
-765
-763
-764
-765
-765
-765
-764
-764
-760
-759
-755
-754
-752
-750
-753
-754
-753
-752
-747
-744
-741
-745
-743
-744
-747
-747
-747
-750
-753
-755
-762
-767
-767
-770
-770
-770
-772
-772
-770
-771
-772
-772
-771
-770
-772
-772
-772
-773
-773
-773
-772
-772
-772
-772
-772
-772
-770
-764
-756
-757
-757
-752
-755
-770
-793
-805
-813
-826
-848
-861
-829
-804
-803
-811
-827
-838
-844
-844
-834
-814
-794
-780
-767
-755
-752
-750
-750
-750
-747
-747
-747
-747
-745
-742
-743
-741
-742
-742
-742
-740
-741
-741
-741
-741
-740
-740
-741
-739
-738
-737
-737
-736
-735
-735
-734
-736
-734
-734
-734
-732
-732
-731
-731
-729
-729
-728
-728
-728
-726
-726
-722
-723
-721
-720
-720
-717
-715
-711
-711
-709
-707
-705
-703
-702
-700
-699
-700
-705
-708
-711
-716
-719
-728
-732
-739
-742
-749
-750
-753
-756
-757
-760
-759
-760
-760
-760
-760
-760
-760
-760
-760
-760
-762
-761
-762
-762
-761
-760
-762
-760
-760
-757
-759
-759
-759
-755
-756
-757
-757
-755
-754
-754
-754
-753
-753
-753
-754
-754
-754
-754
-754
-755
-755
-756
-757
-756
-757
-756
-756
-755
-757
-757
-757
-757
-757
-757
-757
-759
-759
-759
-760
-759
-759
-760
-759
-760
-759
-760
-759
-758
-759
-759
-759
-758
-759
-759
-757
-758
-757
-757
-754
-757
-757
-756
-757
-756
-757
-755
-755
-755
-755
-756
-755
-755
-755
-755
-756
-754
-755
-755
-754
-755
-754
-755
-753
-755
-754
-754
-754
-753
-754
-752
-753
-753
-753
-754
-754
-754
-754
-753
-754
-752
-754
-752
-753
-753
-753
-752
-752
-754
-754
-750
-753
-753
-754
-750
-754
-752
-752
-754
-752
-754
-753
-754
-754
-754
-753
-752
-750
-747
-744
-742
-742
-742
-742
-745
-744
-741
-736
-732
-733
-733
-735
-736
-737
-739
-741
-744
-745
-748
-755
-759
-759
-760
-762
-762
-762
-763
-762
-764
-762
-762
-762
-762
-762
-762
-762
-764
-763
-765
-762
-765
-763
-765
-762
-763
-762
-755
-747
-744
-746
-741
-746
-765
-790
-806
-818
-833
-859
-872
-840
-812
-811
-819
-828
-839
-844
-840
-826
-805
-786
-770
-757
-749
-743
-744
-742
-741
-741
-739
-739
-737
-737
-736
-735
-737
-736
-737
-736
-737
-736
-732
-736
-734
-734
-731
-733
-733
-734
-732
-731
-732
-731
-731
-731
-730
-730
-728
-728
-727
-727
-728
-726
-724
-723
-723
-721
-719
-719
-717
-717
-713
-712
-709
-707
-707
-704
-703
-701
-700
-698
-695
-693
-690
-688
-688
-691
-692
-696
-701
-705
-714
-719
-728
-733
-740
-741
-749
-750
-753
-754
-756
-758
-759
-757
-759
-758
-759
-759
-760
-760
-762
-760
-760
-761
-760
-759
-760
-760
-759
-759
-759
-759
-759
-759
-759
-758
-759
-759
-757
-758
-757
-757
-757
-757
-757
-756
-757
-756
-756
-756
-755
-757
-755
-757
-757
-757
-757
-757
-759
-759
-757
-759
-759
-759
-757
-760
-760
-760
-759
-760
-760
-759
-761
-760
-762
-761
-760
-762
-760
-760
-758
-760
-760
-760
-760
-759
-760
-760
-760
-759
-758
-760
-759
-759
-759
-759
-759
-759
-759
-759
-760
-758
-759
-759
-759
-759
-757
-759
-758
-757
-759
-758
-759
-759
-759
-757
-759
-758
-757
-757
-757
-758
-757
-755
-757
-757
-758
-757
-757
-757
-757
-757
-757
-757
-756
-754
-756
-756
-756
-755
-756
-755
-757
-756
-757
-757
-757
-758
-757
-759
-757
-757
-756
-755
-755
-750
-749
-746
-744
-744
-744
-744
-746
-746
-742
-737
-736
-736
-738
-737
-739
-741
-742
-745
-744
-748
-754
-760
-759
-760
-762
-763
-764
-764
-765
-765
-765
-766
-765
-766
-764
-765
-766
-767
-767
-767
-765
-765
-765
-765
-765
-765
-764
-759
-746
-748
-750
-745
-747
-765
-792
-808
-819
-834
-857
-872
-840
-807
-805
-813
-826
-836
-843
-840
-826
-806
-785
-770
-760
-747
-745
-743
-742
-741
-742
-740
-739
-739
-739
-739
-739
-739
-738
-736
-736
-736
-736
-737
-736
-736
-735
-736
-735
-734
-733
-731
-732
-731
-731
-731
-731
-732
-732
-732
-729
-729
-728
-728
-729
-726
-726
-724
-724
-723
-721
-721
-719
-716
-711
-709
-707
-706
-706
-702
-700
-698
-696
-693
-690
-691
-693
-695
-695
-700
-705
-711
-715
-719
-728
-736
-745
-747
-750
-752
-754
-757
-760
-761
-760
-762
-762
-764
-764
-764
-766
-765
-765
-764
-767
-767
-767
-764
-763
-764
-765
-764
-763
-762
-762
-761
-763
-760
-763
-765
-762
-760
-760
-760
-759
-758
-759
-760
-761
-760
-764
-762
-764
-762
-762
-763
-762
-762
-762
-762
-763
-764
-765
-764
-764
-764
-765
-765
-765
-765
-763
-762
-762
-766
-765
-765
-767
-764
-764
-762
-765
-767
-766
-765
-764
-765
-764
-764
-763
-763
-765
-765
-765
-764
-762
-760
-758
-760
-760
-762
-760
-764
-762
-760
-759
-761
-762
-762
-762
-762
-760
-760
-760
-760
-762
-764
-765
-762
-762
-760
-760
-760
-760
-760
-759
-759
-757
-759
-760
-759
-759
-757
-759
-760
-762
-762
-761
-762
-761
-760
-759
-759
-759
-760
-762
-762
-761
-757
-755
-754
-753
-750
-749
-750
-751
-750
-750
-746
-742
-737
-742
-742
-742
-744
-743
-743
-745
-752
-753
-760
-768
-772
-770
-767
-767
-769
-770
-770
-770
-773
-776
-776
-773
-773
-772
-770
-770
-768
-770
-772
-774
-774
-774
-773
-772
-772
-768
-759
-756
-760
-757
-755
-767
-793
-810
-818
-829
-850
-868
-841
-808
-800
-809
-824
-837
-844
-847
-843
-825
-803
-784
-772
-764
-757
-753
-752
-749
-749
-746
-745
-743
-744
-744
-744
-744
-743
-745
-746
-746
-744
-742
-742
-741
-742
-741
-741
-739
-739
-739
-737
-737
-735
-736
-737
-737
-737
-737
-737
-736
-735
-735
-735
-736
-735
-735
-731
-729
-729
-727
-725
-725
-724
-724
-719
-716
-713
-713
-710
-708
-705
-701
-701
-697
-700
-698
-701
-706
-710
-715
-721
-729
-734
-742
-745
-749
-755
-760
-763
-764
-765
-764
-765
-766
-767
-767
-768
-770
-768
-769
-768
-768
-769
-770
-770
-767
-767
-767
-767
-767
-767
-770
-766
-766
-765
-761
-764
-763
-764
-762
-763
-764
-763
-765
-764
-764
-764
-764
-763
-764
-765
-762
-764
-765
-765
-764
-764
-765
-765
-766
-765
-765
-765
-765
-766
-765
-765
-763
-763
-764
-762
-763
-763
-765
-763
-764
-764
-762
-762
-762
-763
-762
-760
-762
-760
-762
-760
-761
-762
-761
-758
-758
-760
-759
-759
-759
-759
-760
-759
-760
-759
-759
-759
-759
-759
-759
-756
-757
-757
-757
-755
-756
-754
-755
-755
-755
-755
-755
-755
-755
-756
-754
-755
-755
-755
-754
-754
-755
-754
-755
-754
-753
-754
-752
-754
-753
-753
-753
-754
-754
-754
-753
-754
-753
-750
-745
-743
-740
-740
-739
-741
-741
-740
-741
-735
-731
-731
-731
-732
-732
-734
-732
-737
-740
-740
-745
-752
-759
-759
-759
-758
-759
-760
-760
-761
-762
-762
-762
-762
-762
-762
-762
-760
-762
-762
-760
-761
-760
-760
-759
-760
-760
-757
-749
-738
-741
-740
-736
-742
-765
-792
-805
-816
-835
-864
-867
-828
-803
-806
-816
-826
-836
-839
-834
-816
-794
-773
-760
-749
-739
-737
-736
-736
-735
-732
-732
-730
-731
-730
-730
-730
-728
-730
-728
-728
-728
-727
-728
-727
-728
-726
-724
-725
-724
-726
-723
-723
-721
-721
-721
-720
-721
-719
-720
-719
-717
-719
-718
-719
-714
-716
-716
-714
-713
-711
-710
-706
-707
-705
-701
-701
-697
-695
-690
-689
-687
-683
-683
-680
-680
-679
-681
-682
-686
-691
-696
-705
-710
-719
-725
-732
-739
-742
-745
-747
-750
-750
-752
-752
-752
-754
-754
-753
-753
-755
-755
-754
-754
-755
-755
-753
-755
-755
-755
-754
-755
-755
-754
-754
-752
-754
-753
-752
-753
-753
-753
-752
-752
-752
-750
-752
-752
-753
-752
-752
-754
-754
-755
-754
-755
-754
-755
-755
-754
-755
-754
-754
-754
-755
-757
-756
-756
-757
-755
-757
-756
-757
-755
-758
-757
-758
-757
-757
-757
-757
-755
-757
-757
-757
-754
-757
-755
-756
-755
-755
-755
-755
-755
-754
-755
-755
-754
-755
-755
-754
-753
-755
-755
-755
-754
-754
-755
-755
-755
-754
-753
-754
-754
-753
-754
-754
-753
-753
-754
-754
-753
-754
-753
-754
-752
-754
-753
-752
-753
-752
-754
-752
-752
-752
-752
-750
-752
-753
-752
-750
-752
-752
-752
-752
-752
-752
-753
-752
-752
-752
-752
-750
-747
-745
-742
-741
-741
-741
-743
-742
-742
-737
-733
-732
-733
-736
-737
-739
-739
-740
-744
-744
-748
-754
-759
-758
-758
-760
-760
-761
-761
-760
-762
-761
-762
-762
-762
-763
-762
-763
-760
-763
-762
-762
-760
-762
-762
-762
-762
-760
-758
-747
-742
-747
-743
-742
-754
-778
-800
-812
-826
-846
-870
-856
-818
-803
-808
-818
-829
-836
-841
-834
-816
-795
-774
-762
-750
-742
-741
-739
-739
-737
-736
-735
-732
-734
-732
-732
-732
-731
-732
-731
-731
-729
-729
-730
-729
-731
-730
-728
-730
-730
-729
-728
-729
-728
-728
-729
-729
-728
-726
-727
-726
-724
-725
-725
-726
-724
-724
-721
-719
-719
-717
-716
-712
-711
-710
-707
-705
-701
-700
-697
-695
-692
-689
-690
-687
-687
-687
-688
-690
-694
-700
-703
-712
-718
-725
-732
-737
-742
-744
-750
-752
-755
-755
-759
-759
-760
-759
-759
-760
-760
-760
-762
-760
-761
-760
-762
-762
-762
-760
-761
-762
-760
-760
-760
-760
-760
-759
-759
-760
-760
-759
-760
-759
-759
-760
-759
-758
-759
-759
-760
-759
-759
-759
-759
-759
-758
-760
-759
-759
-759
-760
-760
-760
-759
-760
-762
-762
-759
-762
-760
-762
-759
-760
-762
-762
-762
-762
-763
-762
-764
-764
-763
-762
-759
-760
-761
-762
-762
-760
-760
-760
-760
-762
-763
-762
-760
-760
-760
-762
-763
-764
-762
-760
-760
-760
-760
-760
-760
-762
-762
-761
-762
-762
-762
-760
-762
-762
-761
-757
-759
-760
-760
-759
-760
-760
-764
-761
-761
-759
-759
-758
-759
-759
-760
-760
-760
-760
-760
-758
-760
-760
-760
-759
-760
-761
-761
-759
-756
-755
-753
-752
-750
-750
-749
-749
-750
-750
-746
-739
-737
-741
-741
-743
-745
-745
-747
-750
-753
-755
-762
-768
-769
-768
-771
-771
-772
-770
-772
-770
-770
-770
-774
-774
-775
-773
-773
-772
-772
-772
-770
-772
-772
-773
-773
-772
-772
-770
-763
-757
-760
-759
-754
-760
-780
-803
-811
-820
-837
-857
-856
-820
-795
-793
-805
-824
-835
-842
-847
-836
-818
-796
-780
-767
-755
-747
-746
-747
-747
-744
-742
-743
-741
-740
-742
-744
-742
-737
-741
-741
-743
-743
-742
-738
-735
-734
-734
-735
-734
-734
-737
-736
-734
-734
-735
-732
-731
-732
-732
-733
-734
-730
-728
-728
-726
-726
-726
-723
-722
-723
-722
-720
-717
-715
-712
-711
-709
-706
-701
-695
-695
-693
-691
-689
-687
-688
-689
-691
-692
-701
-707
-714
-719
-728
-736
-742
-748
-750
-755
-758
-763
-767
-767
-765
-762
-765
-767
-766
-764
-765
-768
-767
-769
-769
-767
-766
-766
-767
-767
-767
-765
-765
-767
-767
-767
-764
-764
-763
-762
-762
-762
-765
-766
-767
-766
-766
-766
-765
-764
-762
-765
-766
-764
-764
-765
-767
-765
-762
-765
-765
-765
-765
-764
-765
-767
-770
-767
-764
-762
-760
-760
-764
-765
-764
-764
-763
-765
-763
-764
-766
-764
-763
-765
-767
-766
-762
-762
-760
-763
-763
-764
-763
-760
-761
-760
-763
-762
-762
-760
-760
-760
-762
-762
-760
-757
-759
-760
-763
-760
-760
-757
-755
-756
-759
-760
-759
-758
-757
-759
-760
-760
-762
-760
-760
-760
-759
-757
-757
-760
-758
-759
-760
-760
-762
-759
-757
-757
-755
-752
-747
-747
-747
-747
-747
-747
-746
-742
-739
-736
-736
-739
-736
-739
-739
-741
-742
-744
-749
-754
-762
-765
-765
-766
-768
-768
-768
-770
-773
-769
-769
-769
-772
-772
-772
-770
-770
-770
-770
-770
-772
-771
-770
-770
-772
-770
-769
-765
-754
-754
-755
-752
-750
-765
-787
-803
-811
-825
-847
-871
-850
-815
-806
-810
-824
-835
-844
-845
-838
-819
-795
-780
-767
-755
-749
-746
-746
-744
-743
-741
-741
-742
-741
-739
-739
-739
-739
-739
-739
-737
-736
-737
-735
-736
-734
-736
-734
-733
-734
-732
-734
-731
-732
-732
-731
-732
-729
-729
-728
-729
-728
-726
-726
-723
-725
-723
-721
-719
-717
-716
-712
-711
-710
-708
-708
-703
-702
-698
-696
-694
-691
-690
-687
-685
-684
-688
-690
-691
-697
-701
-708
-714
-721
-727
-733
-741
-746
-750
-752
-755
-757
-759
-760
-760
-760
-760
-762
-762
-762
-762
-763
-764
-762
-762
-762
-763
-763
-762
-762
-760
-760
-759
-760
-760
-759
-759
-759
-759
-759
-758
-759
-756
-757
-757
-757
-757
-757
-758
-757
-756
-759
-759
-759
-757
-759
-759
-760
-758
-759
-760
-760
-759
-759
-759
-760
-758
-760
-759
-759
-759
-759
-759
-759
-760
-759
-759
-760
-759
-759
-759
-759
-759
-759
-759
-757
-759
-757
-759
-757
-757
-757
-757
-757
-757
-757
-756
-755
-755
-754
-755
-754
-755
-755
-755
-754
-755
-755
-755
-752
-755
-754
-752
-750
-753
-752
-752
-752
-752
-752
-750
-751
-750
-750
-752
-749
-750
-750
-750
-750
-750
-750
-750
-749
-749
-748
-750
-749
-749
-749
-749
-750
-749
-749
-747
-744
-741
-739
-738
-736
-736
-736
-738
-739
-735
-732
-731
-733
-734
-735
-736
-737
-739
-741
-742
-746
-750
-759
-757
-760
-760
-760
-761
-763
-764
-762
-763
-764
-763
-764
-762
-765
-763
-764
-764
-764
-765
-764
-764
-764
-763
-764
-762
-763
-759
-748
-743
-746
-743
-739
-749
-776
-798
-809
-824
-842
-872
-870
-833
-812
-814
-822
-829
-837
-842
-839
-824
-801
-783
-770
-753
-744
-741
-737
-739
-737
-737
-737
-735
-736
-733
-733
-731
-731
-731
-729
-732
-731
-731
-730
-729
-730
-728
-728
-728
-728
-726
-725
-728
-726
-726
-725
-724
-723
-722
-722
-719
-719
-720
-718
-718
-716
-715
-713
-712
-712
-709
-708
-705
-704
-700
-698
-697
-694
-690
-689
-687
-684
-680
-681
-678
-677
-676
-675
-677
-679
-687
-690
-698
-703
-710
-719
-724
-733
-739
-743
-747
-750
-752
-755
-755
-757
-757
-756
-757
-759
-759
-759
-759
-759
-759
-760
-758
-759
-759
-757
-758
-757
-757
-757
-757
-755
-755
-757
-757
-755
-756
-755
-755
-753
-755
-755
-755
-753
-754
-754
-754
-754
-754
-755
-755
-755
-755
-754
-755
-755
-755
-755
-754
-755
-755
-755
-756
-755
-756
-757
-757
-757
-757
-759
-759
-757
-759
-757
-759
-759
-758
-759
-759
-759
-757
-759
-757
-756
-757
-757
-756
-755
-756
-757
-754
-755
-754
-755
-753
-754
-755
-754
-752
-753
-754
-753
-753
-753
-752
-753
-753
-752
-753
-753
-754
-752
-753
-752
-752
-752
-752
-752
-752
-752
-752
-752
-752
-750
-750
-750
-750
-750
-750
-752
-750
-750
-750
-752
-752
-751
-752
-750
-752
-752
-750
-747
-744
-742
-741
-739
-740
-741
-743
-740
-737
-732
-730
-730
-733
-735
-736
-737
-739
-741
-743
-746
-752
-759
-760
-762
-762
-763
-764
-764
-765
-764
-766
-764
-765
-765
-767
-767
-765
-766
-767
-767
-767
-767
-766
-767
-767
-766
-766
-766
-763
-755
-745
-747
-748
-742
-746
-767
-796
-812
-824
-841
-868
-875
-841
-811
-808
-814
-828
-836
-843
-842
-825
-804
-785
-768
-756
-746
-741
-741
-738
-739
-737
-734
-734
-734
-734
-732
-732
-732
-733
-734
-733
-732
-731
-731
-730
-730
-731
-730
-729
-728
-728
-728
-727
-728
-725
-726
-726
-725
-725
-724
-724
-723
-722
-721
-719
-719
-718
-717
-716
-715
-713
-707
-707
-704
-703
-702
-700
-695
-690
-688
-683
-683
-680
-681
-680
-680
-682
-682
-687
-689
-696
-702
-709
-719
-727
-734
-739
-744
-749
-754
-757
-759
-763
-764
-764
-764
-765
-765
-765
-765
-765
-765
-767
-767
-768
-766
-767
-767
-767
-765
-764
-763
-762
-764
-764
-763
-760
-760
-762
-762
-762
-763
-763
-764
-760
-762
-762
-763
-764
-764
-763
-762
-760
-760
-762
-763
-763
-765
-764
-763
-760
-761
-764
-764
-765
-763
-764
-763
-764
-765
-764
-765
-765
-764
-765
-764
-763
-762
-763
-763
-764
-765
-764
-763
-764
-764
-763
-760
-763
-762
-762
-757
-760
-760
-762
-760
-760
-760
-760
-761
-760
-760
-762
-760
-761
-760
-760
-760
-760
-760
-760
-760
-760
-760
-759
-759
-759
-759
-759
-759
-759
-760
-760
-760
-757
-759
-759
-758
-759
-760
-760
-759
-757
-759
-760
-762
-760
-759
-759
-758
-759
-759
-755
-755
-752
-750
-746
-748
-749
-750
-749
-746
-744
-739
-739
-740
-739
-738
-740
-742
-743
-745
-748
-750
-755
-762
-764
-765
-765
-767
-771
-772
-772
-770
-772
-770
-769
-768
-770
-770
-768
-769
-768
-770
-772
-773
-773
-771
-770
-770
-770
-772
-769
-762
-752
-754
-756
-750
-752
-766
-792
-810
-820
-837
-857
-870
-841
-803
-796
-805
-819
-833
-840
-845
-843
-829
-805
-785
-773
-760
-749
-746
-744
-743
-742
-741
-742
-741
-742
-742
-744
-744
-742
-741
-739
-737
-736
-736
-739
-736
-736
-736
-736
-736
-733
-734
-733
-735
-734
-733
-732
-732
-732
-731
-731
-729
-724
-728
-726
-727
-725
-724
-724
-721
-723
-718
-716
-714
-714
-713
-708
-705
-699
-700
-698
-693
-692
-688
-689
-688
-688
-688
-687
-693
-696
-703
-708
-714
-723
-731
-740
-746
-752
-752
-756
-760
-761
-764
-763
-764
-767
-768
-765
-763
-766
-766
-767
-763
-766
-766
-766
-764
-764
-765
-765
-760
-762
-763
-765
-765
-764
-763
-764
-763
-760
-760
-762
-762
-762
-762
-760
-759
-762
-762
-760
-760
-762
-765
-764
-763
-760
-760
-760
-759
-760
-760
-760
-760
-761
-762
-760
-760
-759
-760
-760
-760
-762
-760
-760
-759
-759
-759
-759
-759
-759
-759
-757
-759
-759
-758
-756
-758
-757
-757
-755
-755
-754
-756
-755
-753
-754
-753
-754
-754
-753
-753
-752
-753
-753
-754
-754
-752
-752
-750
-750
-750
-750
-750
-750
-751
-749
-750
-750
-749
-750
-750
-749
-749
-750
-750
-749
-750
-748
-748
-747
-748
-749
-747
-749
-749
-749
-747
-749
-750
-749
-747
-746
-742
-740
-738
-737
-736
-737
-737
-738
-736
-729
-728
-724
-728
-728
-728
-730
-729
-732
-733
-736
-741
-749
-755
-757
-757
-758
-758
-759
-758
-760
-759
-760
-759
-760
-760
-760
-760
-759
-760
-760
-760
-760
-760
-760
-760
-759
-760
-760
-758
-748
-741
-742
-742
-736
-739
-757
-780
-794
-803
-819
-846
-861
-831
-802
-799
-804
-815
-826
-834
-830
-819
-798
-777
-762
-748
-739
-735
-732
-732
-732
-733
-731
-728
-728
-726
-726
-724
-724
-724
-723
-724
-723
-723
-723
-722
-723
-721
-721
-720
-718
-719
-718
-719
-719
-718
-719
-718
-719
-714
-716
-713
-714
-715
-712
-713
-711
-711
-708
-706
-705
-703
-702
-698
-697
-696
-693
-691
-687
-687
-684
-681
-679
-677
-677
-672
-672
-671
-673
-675
-678
-685
-692
-701
-707
-714
-721
-728
-733
-737
-742
-743
-746
-747
-749
-749
-750
-750
-750
-750
-750
-752
-752
-752
-750
-752
-753
-752
-752
-752
-751
-751
-750
-750
-750
-750
-750
-749
-750
-749
-750
-749
-749
-750
-748
-749
-750
-750
-749
-748
-748
-749
-749
-749
-749
-750
-749
-750
-750
-750
-750
-750
-752
-750
-752
-752
-752
-752
-752
-752
-752
-752
-752
-750
-752
-750
-750
-750
-752
-749
-751
-752
-752
-752
-752
-752
-752
-751
-752
-752
-752
-752
-750
-752
-750
-752
-750
-750
-750
-749
-750
-750
-750
-750
-750
-750
-750
-750
-750
-749
-750
-750
-750
-749
-750
-749
-750
-749
-749
-749
-749
-748
-748
-749
-749
-748
-749
-750
-750
-750
-747
-750
-749
-750
-747
-750
-750
-750
-748
-750
-749
-749
-749
-750
-749
-750
-750
-750
-749
-748
-746
-742
-739
-739
-736
-736
-736
-739
-737
-735
-729
-724
-725
-725
-726
-730
-730
-732
-734
-739
-741
-744
-750
-755
-755
-755
-757
-757
-759
-760
-759
-759
-760
-759
-760
-758
-760
-760
-760
-759
-760
-760
-759
-759
-760
-760
-760
-759
-759
-759
-755
-744
-737
-742
-739
-735
-742
-767
-793
-807
-819
-839
-869
-870
-830
-808
-809
-816
-825
-833
-840
-833
-816
-794
-772
-757
-744
-733
-732
-731
-731
-729
-729
-729
-728
-728
-728
-727
-729
-726
-724
-725
-725
-724
-722
-724
-723
-724
-720
-721
-723
-720
-721
-719
-718
-719
-718
-718
-716
-716
-713
-713
-715
-714
-713
-713
-711
-713
-710
-709
-706
-708
-704
-703
-702
-699
-697
-694
-691
-688
-685
-684
-680
-679
-674
-673
-675
-674
-675
-675
-680
-684
-689
-696
-703
-711
-718
-726
-732
-736
-742
-745
-749
-749
-752
-753
-754
-755
-754
-755
-755
-756
-757
-757
-759
-754
-757
-757
-757
-756
-757
-755
-755
-754
-754
-754
-754
-752
-753
-752
-753
-752
-752
-752
-752
-752
-751
-752
-752
-752
-752
-750
-752
-752
-753
-753
-753
-754
-753
-754
-752
-754
-753
-755
-754
-755
-755
-755
-753
-754
-754
-754
-755
-755
-755
-755
-754
-754
-754
-754
-753
-754
-754
-755
-755
-755
-754
-754
-753
-752
-753
-753
-753
-752
-752
-753
-750
-752
-752
-752
-751
-750
-752
-750
-750
-750
-750
-750
-750
-750
-750
-749
-750
-750
-750
-750
-750
-750
-750
-750
-749
-750
-750
-747
-750
-750
-750
-750
-750
-750
-750
-750
-749
-750
-749
-749
-750
-748
-750
-748
-749
-747
-750
-749
-750
-750
-752
-750
-748
-746
-743
-741
-741
-740
-741
-742
-742
-742
-737
-733
-731
-731
-732
-731
-732
-734
-737
-740
-742
-746
-752
-758
-757
-757
-755
-760
-761
-762
-760
-761
-762
-762
-762
-763
-764
-765
-765
-762
-762
-762
-763
-762
-763
-764
-764
-763
-762
-762
-759
-748
-743
-747
-747
-742
-751
-775
-798
-809
-822
-839
-867
-865
-825
-800
-800
-810
-824
-833
-837
-834
-819
-798
-780
-766
-752
-741
-735
-736
-736
-733
-733
-732
-732
-727
-727
-724
-725
-728
-728
-727
-725
-727
-724
-724
-726
-728
-728
-727
-728
-728
-723
-722
-720
-722
-722
-722
-723
-723
-723
-721
-721
-721
-721
-721
-719
-719
-715
-715
-714
-710
-709
-705
-707
-702
-700
-699
-696
-693
-688
-689
-687
-685
-683
-681
-682
-685
-689
-690
-690
-698
-702
-711
-718
-725
-732
-738
-744
-748
-753
-755
-759
-760
-763
-762
-760
-760
-759
-762
-762
-763
-764
-762
-760
-762
-764
-763
-765
-764
-763
-763
-760
-760
-760
-762
-762
-761
-760
-759
-759
-760
-762
-762
-760
-760
-758
-759
-759
-759
-760
-760
-763
-760
-759
-757
-761
-764
-760
-760
-760
-759
-759
-760
-760
-759
-760
-761
-762
-760
-759
-760
-760
-760
-759
-758
-759
-757
-761
-763
-764
-765
-762
-760
-758
-759
-759
-761
-761
-760
-760
-759
-759
-758
-760
-760
-762
-761
-759
-759
-757
-757
-757
-757
-757
-757
-756
-759
-757
-759
-757
-760
-759
-758
-759
-759
-760
-759
-758
-757
-756
-757
-757
-757
-759
-760
-760
-760
-759
-757
-757
-757
-757
-757
-757
-759
-757
-757
-759
-757
-757
-757
-756
-754
-752
-750
-749
-750
-751
-754
-749
-744
-739
-737
-740
-739
-740
-741
-744
-745
-747
-749
-754
-759
-765
-768
-767
-767
-769
-771
-769
-770
-770
-773
-772
-772
-771
-773
-773
-772
-772
-773
-772
-772
-772
-773
-773
-775
-770
-772
-770
-769
-764
-755
-760
-757
-754
-760
-780
-798
-808
-818
-836
-857
-854
-816
-799
-801
-813
-826
-832
-840
-838
-825
-805
-784
-773
-759
-749
-745
-741
-741
-739
-737
-735
-735
-736
-732
-732
-731
-732
-734
-732
-732
-732
-732
-731
-731
-734
-733
-732
-732
-731
-731
-730
-729
-727
-729
-731
-729
-728
-726
-725
-724
-724
-724
-723
-723
-719
-721
-719
-717
-716
-711
-711
-708
-706
-705
-705
-701
-697
-696
-691
-690
-687
-685
-688
-688
-691
-691
-696
-700
-705
-713
-720
-728
-734
-741
-745
-749
-754
-757
-760
-761
-763
-765
-766
-765
-765
-766
-767
-766
-767
-768
-767
-767
-767
-766
-767
-765
-767
-765
-765
-765
-765
-765
-764
-765
-762
-765
-764
-763
-763
-763
-764
-762
-761
-762
-763
-764
-760
-764
-764
-764
-760
-763
-765
-764
-764
-762
-762
-762
-762
-762
-762
-763
-760
-762
-762
-761
-761
-760
-762
-763
-762
-762
-760
-762
-760
-762
-760
-760
-760
-760
-760
-760
-760
-760
-759
-759
-757
-757
-757
-757
-758
-757
-758
-756
-757
-756
-757
-756
-755
-756
-755
-753
-755
-754
-755
-753
-755
-753
-753
-755
-754
-755
-754
-753
-753
-753
-754
-752
-753
-752
-752
-752
-752
-754
-752
-753
-752
-753
-752
-752
-753
-752
-753
-752
-752
-752
-750
-747
-744
-742
-741
-741
-741
-742
-743
-741
-737
-731
-731
-732
-732
-735
-734
-736
-737
-739
-741
-744
-752
-757
-755
-758
-759
-760
-760
-762
-760
-762
-762
-762
-764
-763
-763
-762
-764
-763
-762
-763
-762
-763
-760
-761
-761
-762
-760
-756
-747
-739
-742
-741
-736
-747
-772
-795
-806
-818
-839
-868
-861
-822
-805
-810
-817
-826
-835
-837
-827
-805
-784
-767
-751
-739
-734
-733
-731
-729
-730
-728
-728
-728
-726
-725
-725
-725
-724
-723
-721
-722
-722
-721
-722
-721
-721
-720
-721
-719
-718
-718
-718
-719
-717
-716
-718
-716
-716
-714
-715
-714
-712
-713
-711
-711
-708
-708
-707
-705
-703
-699
-699
-695
-694
-690
-689
-687
-682
-680
-673
-676
-675
-671
-672
-672
-677
-678
-685
-689
-696
-704
-711
-719
-727
-735
-740
-744
-749
-750
-752
-752
-753
-755
-755
-755
-757
-757
-756
-757
-757
-759
-758
-757
-759
-757
-758
-758
-757
-757
-757
-756
-754
-754
-755
-755
-755
-753
-755
-753
-755
-754
-755
-755
-755
-754
-755
-755
-755
-754
-755
-754
-755
-755
-755
-755
-756
-757
-755
-756
-756
-757
-757
-754
-755
-755
-755
-755
-755
-755
-754
-755
-755
-755
-757
-757
-757
-756
-757
-755
-757
-755
-755
-755
-755
-755
-754
-755
-755
-754
-753
-754
-754
-754
-754
-754
-752
-752
-752
-752
-750
-752
-751
-752
-750
-750
-750
-750
-752
-752
-750
-752
-750
-751
-750
-750
-750
-750
-750
-750
-750
-750
-750
-750
-750
-750
-750
-750
-750
-750
-750
-750
-752
-750
-752
-752
-752
-750
-748
-746
-742
-742
-741
-741
-741
-741
-742
-738
-736
-731
-732
-733
-733
-737
-739
-737
-741
-741
-743
-745
-753
-757
-759
-759
-760
-762
-762
-762
-760
-762
-762
-762
-764
-764
-763
-763
-763
-763
-763
-764
-763
-764
-764
-763
-764
-763
-763
-760
-752
-743
-746
-745
-741
-749
-773
-797
-809
-821
-839
-865
-864
-823
-803
-806
-814
-824
-832
-837
-830
-812
-791
-770
-757
-746
-736
-736
-735
-734
-732
-730
-731
-728
-730
-729
-728
-728
-728
-728
-727
-727
-726
-724
-725
-724
-724
-723
-722
-721
-718
-719
-719
-721
-719
-720
-719
-719
-718
-716
-716
-715
-714
-713
-711
-711
-708
-708
-705
-703
-701
-699
-700
-695
-695
-691
-689
-685
-680
-680
-675
-674
-672
-671
-671
-673
-677
-680
-687
-693
-699
-706
-714
-724
-730
-737
-743
-747
-751
-754
-755
-757
-759
-759
-760
-759
-760
-760
-760
-762
-760
-762
-762
-762
-762
-760
-760
-760
-761
-760
-760
-760
-760
-760
-759
-758
-759
-760
-759
-759
-759
-759
-757
-759
-759
-759
-756
-760
-759
-760
-758
-762
-762
-762
-762
-760
-760
-760
-762
-761
-763
-765
-763
-763
-761
-762
-762
-762
-763
-764
-763
-763
-763
-763
-762
-762
-762
-764
-765
-767
-767
-765
-763
-763
-763
-760
-762
-760
-760
-758
-760
-762
-762
-761
-760
-759
-758
-757
-759
-759
-759
-757
-760
-761
-760
-759
-760
-762
-760
-760
-759
-758
-759
-760
-759
-759
-760
-758
-760
-760
-760
-761
-760
-759
-759
-760
-762
-760
-759
-759
-760
-760
-760
-760
-759
-760
-758
-755
-752
-750
-749
-745
-746
-748
-752
-749
-741
-737
-736
-741
-742
-743
-743
-743
-747
-750
-752
-759
-767
-768
-770
-769
-770
-770
-769
-770
-770
-770
-773
-774
-773
-772
-773
-772
-771
-771
-772
-773
-772
-770
-770
-770
-772
-769
-769
-768
-761
-755
-758
-759
-753
-760
-779
-800
-809
-819
-840
-862
-852
-812
-792
-795
-810
-825
-831
-838
-839
-824
-803
-782
-767
-750
-743
-742
-741
-737
-739
-737
-738
-736
-733
-733
-734
-736
-735
-734
-731
-729
-731
-731
-732
-729
-727
-725
-727
-728
-729
-729
-727
-728
-729
-728
-727
-724
-724
-722
-724
-724
-723
-721
-720
-721
-717
-716
-714
-709
-708
-707
-705
-701
-700
-695
-691
-688
-686
-689
-685
-687
-685
-685
-688
-689
-692
-693
-701
-705
-713
-723
-731
-739
-744
-752
-757
-760
-760
-764
-765
-765
-770
-770
-772
-770
-768
-767
-768
-770
-770
-770
-770
-770
-770
-769
-772
-772
-770
-765
-766
-767
-768
-768
-767
-768
-768
-768
-767
-765
-767
-769
-771
-770
-766
-768
-765
-767
-768
-773
-773
-772
-770
-768
-769
-770
-769
-771
-770
-767
-767
-770
-770
-770
-767
-768
-770
-768
-768
-768
-770
-770
-767
-769
-769
-772
-772
-770
-769
-767
-767
-768
-769
-769
-767
-768
-768
-768
-767
-764
-765
-766
-768
-768
-767
-767
-766
-765
-766
-766
-763
-765
-765
-767
-761
-762
-762
-763
-763
-762
-764
-764
-764
-764
-764
-763
-761
-760
-761
-762
-762
-760
-760
-759
-762
-760
-760
-762
-763
-762
-762
-764
-764
-764
-764
-764
-764
-760
-757
-754
-752
-751
-751
-752
-752
-753
-750
-744
-741
-741
-744
-742
-744
-747
-746
-747
-750
-753
-757
-762
-770
-770
-771
-772
-773
-773
-773
-773
-773
-773
-772
-773
-775
-774
-774
-774
-775
-775
-776
-776
-776
-775
-772
-774
-772
-773
-772
-767
-757
-755
-759
-752
-752
-767
-788
-803
-811
-827
-854
-866
-836
-806
-803
-810
-823
-832
-838
-840
-829
-809
-790
-773
-760
-750
-740
-741
-739
-739
-738
-737
-737
-735
-735
-732
-733
-732
-732
-734
-732
-732
-731
-729
-730
-728
-729
-728
-728
-726
-725
-725
-724
-724
-722
-721
-719
-718
-719
-716
-717
-714
-716
-716
-714
-713
-708
-708
-706
-706
-705
-703
-701
-697
-696
-693
-690
-686
-683
-681
-675
-674
-672
-672
-673
-672
-677
-679
-687
-693
-700
-709
-718
-728
-734
-741
-746
-750
-754
-755
-759
-759
-760
-760
-762
-762
-762
-762
-762
-764
-763
-763
-762
-762
-762
-760
-760
-760
-760
-760
-760
-760
-760
-759
-759
-759
-759
-757
-757
-757
-757
-757
-756
-759
-759
-759
-756
-760
-759
-760
-758
-762
-761
-759
-759
-759
-760
-760
-759
-760
-759
-760
-759
-759
-760
-759
-760
-759
-760
-759
-759
-759
-759
-760
-759
-759
-758
-759
-758
-758
-758
-757
-757
-757
-757
-757
-757
-757
-757
-757
-756
-757
-755
-755
-756
-755
-755
-752
-755
-755
-755
-753
-754
-754
-753
-751
-754
-753
-753
-752
-752
-750
-752
-752
-750
-750
-750
-750
-750
-750
-752
-752
-750
-749
-751
-750
-750
-750
-750
-750
-749
-750
-750
-750
-750
-748
-746
-741
-739
-737
-737
-739
-739
-739
-739
-735
-729
-728
-730
-729
-730
-732
-731
-734
-737
-739
-740
-750
-754
-755
-755
-757
-759
-759
-760
-760
-760
-762
-761
-762
-762
-762
-759
-762
-761
-762
-762
-762
-762
-762
-761
-762
-762
-762
-760
-755
-744
-742
-745
-738
-739
-752
-778
-798
-809
-822
-846
-873
-856
-818
-810
-815
-820
-829
-837
-836
-820
-800
-777
-760
-749
-735
-731
-730
-728
-728
-727
-725
-724
-725
-725
-722
-722
-721
-721
-721
-719
-719
-719
-719
-719
-718
-719
-717
-719
-717
-717
-718
-716
-716
-714
-714
-714
-713
-712
-709
-711
-709
-708
-706
-705
-705
-703
-701
-698
-697
-696
-692
-692
-688
-687
-684
-680
-679
-675
-674
-668
-668
-665
-664
-667
-668
-673
-676
-682
-687
-692
-701
-709
-717
-724
-731
-737
-742
-746
-749
-752
-754
-755
-755
-756
-757
-757
-758
-757
-759
-759
-759
-759
-759
-759
-759
-758
-759
-759
-758
-757
-759
-755
-755
-757
-756
-757
-755
-755
-755
-755
-754
-754
-755
-754
-753
-756
-755
-757
-753
-756
-755
-757
-757
-757
-756
-757
-757
-757
-757
-759
-759
-759
-760
-760
-760
-760
-760
-760
-760
-760
-760
-762
-762
-762
-761
-763
-762
-762
-762
-762
-762
-762
-762
-762
-760
-760
-760
-760
-760
-760
-760
-757
-758
-759
-759
-758
-759
-758
-757
-756
-757
-759
-759
-757
-758
-759
-758
-757
-757
-757
-757
-757
-757
-759
-757
-759
-757
-757
-757
-756
-756
-757
-757
-757
-757
-757
-755
-756
-755
-755
-757
-757
-757
-755
-757
-755
-755
-756
-755
-757
-755
-757
-757
-757
-757
-755
-753
-750
-747
-746
-745
-746
-746
-747
-745
-744
-738
-735
-735
-737
-739
-741
-741
-743
-745
-749
-750
-755
-760
-763
-764
-764
-766
-766
-767
-767
-767
-767
-767
-768
-768
-768
-770
-768
-768
-768
-768
-768
-768
-770
-768
-768
-767
-767
-767
-766
-764
-754
-746
-748
-747
-742
-746
-768
-795
-812
-823
-839
-867
-880
-842
-814
-813
-820
-828
-835
-842
-839
-825
-803
-780
-767
-752
-742
-737
-735
-734
-732
-732
-730
-728
-729
-729
-729
-728
-727
-728
-726
-727
-724
-726
-725
-725
-724
-724
-724
-722
-723
-723
-723
-722
-720
-722
-721
-721
-720
-718
-719
-718
-718
-714
-714
-714
-712
-713
-708
-707
-704
-700
-700
-695
-695
-692
-688
-685
-684
-685
-678
-679
-676
-674
-674
-673
-677
-678
-685
-690
-697
-704
-711
-719
-727
-736
-741
-748
-754
-757
-762
-765
-767
-767
-770
-770
-770
-772
-772
-773
-773
-774
-772
-772
-773
-772
-774
-772
-774
-773
-772
-772
-773
-772
-770
-772
-773
-770
-770
-769
-772
-768
-768
-770
-770
-770
-767
-769
-770
-772
-770
-770
-772
-771
-770
-769
-768
-770
-770
-770
-770
-773
-774
-773
-775
-773
-773
-773
-776
-775
-773
-773
-773
-775
-776
-776
-776
-776
-774
-773
-774
-775
-775
-773
-772
-775
-774
-777
-775
-774
-772
-772
-773
-772
-772
-772
-770
-772
-772
-772
-770
-770
-770
-770
-769
-769
-770
-770
-769
-768
-768
-770
-770
-772
-770
-770
-769
-768
-767
-767
-767
-767
-767
-770
-769
-769
-768
-769
-768
-768
-767
-765
-767
-767
-769
-769
-768
-767
-770
-770
-770
-770
-770
-767
-767
-768
-770
-770
-770
-770
-770
-768
-767
-770
-767
-763
-760
-759
-759
-760
-760
-758
-754
-755
-750
-750
-749
-750
-750
-750
-752
-752
-757
-760
-765
-770
-778
-780
-778
-778
-778
-780
-782
-782
-779
-778
-782
-782
-780
-780
-782
-783
-782
-784
-783
-780
-782
-783
-782
-782
-782
-782
-780
-780
-773
-765
-768
-768
-761
-762
-780
-803
-812
-817
-834
-859
-867
-828
-803
-800
-809
-828
-838
-846
-848
-840
-819
-798
-782
-770
-757
-748
-747
-747
-747
-744
-742
-739
-739
-737
-740
-739
-738
-739
-735
-733
-729
-731
-734
-732
-732
-728
-727
-726
-727
-730
-728
-728
-724
-723
-722
-725
-726
-724
-725
-722
-721
-721
-721
-720
-716
-714
-713
-711
-710
-708
-705
-703
-701
-696
-690
-687
-683
-682
-678
-674
-677
-678
-680
-677
-679
-681
-685
-694
-698
-707
-712
-720
-727
-732
-741
-747
-755
-760
-767
-768
-768
-769
-770
-774
-774
-776
-772
-770
-772
-774
-772
-772
-772
-772
-773
-772
-770
-772
-772
-770
-772
-773
-773
-771
-769
-770
-770
-771
-770
-772
-770
-770
-770
-768
-769
-769
-770
-772
-770
-769
-770
-770
-770
-770
-770
-772
-772
-772
-770
-768
-768
-768
-770
-770
-769
-767
-768
-768
-768
-767
-770
-767
-765
-766
-767
-767
-767
-767
-767
-767
-766
-765
-765
-764
-765
-765
-764
-765
-764
-764
-762
-762
-761
-760
-762
-762
-761
-760
-760
-760
-760
-762
-760
-760
-759
-758
-759
-758
-758
-759
-757
-759
-757
-757
-759
-759
-759
-759
-759
-757
-758
-757
-757
-757
-757
-756
-758
-759
-759
-755
-758
-754
-752
-749
-747
-746
-745
-747
-747
-749
-747
-741
-737
-736
-738
-737
-738
-740
-740
-743
-745
-747
-750
-755
-762
-764
-766
-767
-768
-768
-769
-770
-770
-770
-769
-770
-770
-769
-770
-770
-770
-770
-772
-772
-770
-772
-770
-770
-770
-770
-770
-758
-750
-750
-749
-744
-747
-767
-791
-806
-815
-830
-856
-875
-844
-816
-811
-817
-826
-833
-843
-840
-828
-806
-783
-767
-752
-741
-736
-733
-735
-732
-732
-729
-728
-730
-727
-728
-725
-724
-725
-725
-726
-724
-723
-721
-719
-721
-719
-719
-718
-717
-718
-718
-719
-714
-714
-714
-713
-712
-713
-713
-713
-714
-713
-710
-708
-708
-705
-704
-701
-701
-697
-697
-694
-690
-689
-681
-681
-677
-673
-674
-670
-670
-668
-668
-669
-667
-670
-670
-675
-681
-688
-696
-703
-713
-719
-727
-734
-742
-747
-749
-752
-755
-757
-757
-758
-759
-759
-760
-758
-760
-760
-760
-760
-760
-760
-760
-760
-760
-760
-761
-760
-760
-760
-760
-759
-759
-759
-759
-760
-758
-759
-759
-758
-759
-757
-757
-757
-757
-757
-757
-757
-757
-757
-757
-757
-758
-757
-759
-758
-757
-757
-757
-757
-757
-758
-757
-756
-756
-757
-756
-755
-756
-757
-755
-757
-755
-755
-753
-755
-757
-755
-755
-754
-755
-754
-752
-754
-753
-752
-751
-750
-750
-750
-749
-749
-748
-748
-747
-749
-747
-749
-747
-749
-749
-747
-747
-747
-749
-747
-747
-747
-747
-747
-747
-747
-746
-747
-747
-747
-747
-747
-747
-747
-747
-748
-748
-747
-743
-739
-740
-737
-737
-735
-736
-737
-736
-734
-727
-724
-725
-725
-727
-728
-729
-731
-733
-736
-736
-741
-748
-753
-755
-754
-755
-756
-759
-758
-758
-759
-759
-759
-758
-760
-760
-760
-761
-760
-760
-760
-760
-762
-760
-760
-760
-760
-760
-755
-745
-738
-742
-739
-735
-745
-771
-793
-805
-816
-837
-863
-861
-825
-806
-805
-811
-819
-827
-833
-830
-812
-792
-773
-758
-747
-735
-732
-731
-731
-730
-727
-726
-726
-724
-726
-723
-723
-723
-721
-723
-721
-721
-720
-720
-721
-719
-720
-718
-719
-719
-718
-718
-716
-717
-716
-717
-716
-713
-713
-712
-711
-713
-710
-710
-705
-706
-704
-701
-699
-696
-696
-692
-691
-688
-683
-684
-680
-677
-672
-669
-667
-664
-665
-664
-668
-671
-671
-676
-678
-687
-695
-700
-709
-718
-728
-733
-739
-745
-748
-750
-752
-753
-754
-756
-756
-757
-758
-757
-759
-758
-759
-758
-758
-759
-759
-758
-757
-757
-757
-754
-757
-755
-757
-754
-757
-756
-755
-757
-757
-755
-757
-755
-755
-754
-757
-755
-756
-755
-754
-754
-754
-754
-754
-753
-754
-754
-755
-754
-755
-755
-754
-754
-753
-754
-755
-755
-755
-754
-754
-754
-754
-755
-755
-755
-754
-755
-755
-757
-757
-757
-756
-754
-754
-755
-753
-755
-753
-753
-749
-750
-752
-752
-752
-752
-752
-752
-749
-750
-750
-752
-750
-750
-752
-750
-750
-750
-750
-752
-748
-748
-748
-751
-752
-750
-750
-750
-750
-750
-750
-750
-750
-752
-750
-750
-750
-750
-750
-750
-750
-749
-747
-745
-742
-742
-739
-739
-740
-741
-742
-738
-734
-730
-729
-728
-731
-735
-734
-737
-739
-741
-744
-747
-755
-757
-759
-759
-759
-760
-762
-765
-767
-766
-765
-764
-765
-763
-765
-765
-767
-765
-766
-768
-767
-768
-770
-770
-767
-765
-766
-765
-756
-750
-750
-750
-744
-750
-770
-796
-810
-819
-834
-858
-863
-828
-802
-798
-807
-820
-831
-836
-838
-827
-806
-788
-770
-757
-746
-738
-736
-735
-734
-734
-731
-731
-729
-727
-731
-731
-731
-728
-727
-726
-726
-728
-724
-725
-726
-728
-724
-724
-728
-724
-723
-724
-722
-722
-720
-723
-722
-721
-719
-718
-717
-713
-711
-711
-708
-708
-706
-703
-700
-695
-696
-694
-695
-691
-690
-691
-683
-680
-677
-680
-680
-678
-680
-680
-684
-687
-691
-698
-702
-708
-712
-721
-731
-741
-750
-755
-755
-757
-762
-766
-770
-770
-767
-765
-766
-767
-765
-767
-765
-767
-768
-767
-768
-768
-773
-774
-772
-770
-765
-767
-770
-769
-770
-764
-767
-766
-765
-765
-764
-765
-767
-770
-769
-767
-765
-764
-762
-760
-765
-763
-762
-765
-765
-765
-764
-764
-760
-757
-761
-767
-768
-765
-763
-762
-759
-760
-759
-759
-759
-764
-765
-760
-758
-759
-764
-759
-756
-762
-760
-759
-758
-757
-760
-759
-758
-758
-758
-750
-754
-755
-749
-746
-752
-758
-760
-757
-755
-755
-757
-755
-754
-754
-755
-759
-757
-756
-753
-754
-760
-758
-755
-754
-755
-754
-753
-757
-759
-760
-757
-754
-752
-754
-754
-750
-749
-750
-748
-746
-745
-745
-748
-749
-739
-737
-739
-733
-729
-731
-737
-744
-749
-748
-748
-754
-760
-766
-763
-765
-769
-766
-767
-767
-767
-769
-772
-772
-768
-769
-770
-768
-770
-770
-772
-769
-768
-773
-778
-774
-768
-770
-772
-760
-748
-753
-755
-746
-750
-772
-799
-809
-816
-833
-851
-849
-810
-782
-780
-792
-810
-818
-825
-829
-823
-806
-789
-776
-759
-740
-733
-730
-724
-723
-726
-727
-733
-733
-732
-729
-725
-725
-721
-721
-717
-721
-723
-720
-721
-719
-720
-721
-723
-718
-712
-715
-711
-714
-715
-713
-711
-708
-709
-707
-705
-709
-713
-713
-708
-708
-700
-695
-698
-693
-691
-686
-683
-681
-676
-679
-678
-677
-677
-675
-673
-669
-676
-677
-680
-684
-685
-693
-695
-700
-707
-718
-730
-737
-742
-744
-749
-752
-754
-755
-754
-755
-753
-755
-759
-755
-754
-756
-758
-759
-759
-756
-757
-759
-755
-753
-751
-753
-753
-754
-755
-753
-755
-755
-751
-748
-743
-739
-746
-754
-755
-755
-752
-750
-753
-750
-751
-750
-748
-742
-749
-753
-752
-750
-754
-752
-750
-746
-747
-749
-746
-747
-749
-752
-749
-744
-744
-740
-739
-741
-745
-750
-757
-757
-754
-747
-740
-742
-744
-743
-747
-750
-749
-745
-743
-742
-742
-743
-743
-745
-742
-741
-742
-742
-742
-741
-742
-740
-739
-739
-739
-737
-740
-746
-745
-742
-738
-744
-743
-739
-737
-736
-736
-732
-726
-728
-731
-733
-736
-736
-732
-728
-726
-725
-722
-725
-723
-725
-728
-730
-731
-737
-740
-743
-753
-756
-757
-755
-750
-750
-755
-765
-762
-756
-764
-746
-736
-737
-741
-731
-749
-741
-732
-749
-758
-768
-768
-755
-745
-742
-737
-723
-722
-718
-713
-732
-777
-799
-810
-812
-826
-849
-833
-784
-765
-767
-778
-790
-802
-815
-811
-790
-765
-752
-739
-727
-718
-718
-716
-707
-713
-719
-718
-710
-709
-711
-705
-714
-712
-708
-710
-704
-710
-707
-699
-709
-713
-713
-709
-705
-701
-700
-704
-711
-709
-704
-700
-697
-697
-701
-706
-705
-703
-698
-696
-694
-697
-695
-695
-690
-687
-683
-683
-683
-675
-671
-680
-675
-668
-667
-670
-673
-671
-675
-675
-677
-678
-678
-690
-700
-708
-715
-722
-731
-735
-740
-746
-750
-754
-756
-758
-755
-756
-758
-756
-760
-764
-763
-764
-760
-758
-755
-758
-757
-759
-759
-762
-763
-760
-759
-759
-760
-760
-759
-759
-757
-757
-757
-759
-755
-759
-762
-760
-759
-756
-757
-755
-754
-755
-755
-754
-753
-755
-753
-755
-757
-755
-755
-758
-756
-753
-752
-755
-752
-754
-753
-754
-752
-752
-754
-752
-753
-750
-750
-750
-750
-750
-751
-747
-747
-752
-751
-750
-752
-753
-752
-750
-749
-748
-746
-747
-747
-750
-749
-747
-750
-750
-749
-747
-746
-747
-748
-749
-746
-745
-740
-737
-735
-734
-737
-737
-738
-736
-731
-729
-725
-726
-728
-730
-729
-728
-730
-728
-733
-737
-739
-746
-752
-755
-750
-755
-758
-757
-752
-754
-754
-754
-757
-760
-758
-757
-757
-758
-757
-753
-755
-758
-755
-753
-755
-752
-753
-755
-750
-742
-742
-745
-740
-740
-760
-791
-813
-819
-831
-854
-860
-823
-790
-778
-779
-787
-799
-807
-803
-802
-793
-778
-760
-739
-727
-721
-718
-719
-718
-717
-714
-713
-717
-721
-723
-716
-713
-717
-719
-714
-709
-710
-703
-706
-709
-711
-716
-714
-712
-706
-705
-706
-704
-703
-700
-700
-700
-702
-702
-695
-695
-693
-693
-697
-697
-696
-693
-693
-691
-685
-679
-674
-676
-672
-671
-670
-666
-671
-672
-669
-669
-669
-675
-674
-680
-685
-688
-696
-702
-711
-715
-725
-733
-741
-750
-750
-749
-750
-757
-757
-757
-760
-753
-752
-757
-754
-750
-752
-752
-754
-760
-758
-755
-754
-755
-756
-754
-750
-746
-747
-750
-754
-753
-747
-747
-752
-750
-751
-753
-752
-747
-745
-740
-741
-755
-750
-735
-739
-751
-759
-764
-753
-742
-745
-755
-759
-754
-750
-752
-750
-750
-752
-754
-757
-752
-748
-755
-762
-754
-749
-754
-754
-750
-746
-748
-760
-762
-759
-752
-747
-739
-742
-762
-759
-752
-755
-757
-753
-744
-741
-747
-761
-767
-761
-755
-751
-753
-755
-754
-754
-757
-759
-757
-756
-750
-749
-747
-745
-741
-741
-747
-750
-747
-741
-735
-736
-734
-735
-736
-737
-741
-742
-743
-742
-742
-753
-762
-766
-766
-768
-767
-768
-767
-768
-769
-767
-772
-772
-768
-768
-773
-775
-772
-773
-772
-773
-776
-773
-771
-775
-776
-777
-776
-769
-762
-764
-766
-762
-767
-790
-819
-837
-848
-870
-891
-888
-842
-806
-794
-799
-818
-825
-834
-839
-830
-809
-788
-774
-763
-747
-744
-743
-745
-747
-742
-742
-740
-739
-742
-742
-745
-741
-739
-739
-737
-739
-737
-736
-737
-739
-737
-734
-736
-735
-736
-731
-729
-731
-729
-731
-729
-727
-728
-726
-724
-723
-723
-720
-715
-716
-712
-714
-710
-709
-706
-702
-702
-697
-695
-692
-693
-695
-693
-694
-690
-693
-699
-700
-704
-706
-712
-719
-729
-737
-741
-752
-759
-764
-764
-768
-771
-774
-776
-777
-779
-778
-777
-776
-776
-776
-776
-776
-774
-774
-777
-779
-777
-773
-772
-772
-773
-774
-773
-775
-770
-770
-770
-770
-768
-770
-770
-769
-770
-770
-769
-770
-770
-770
-766
-765
-768
-770
-769
-767
-768
-769
-769
-765
-767
-768
-767
-768
-768
-769
-767
-765
-764
-764
-767
-765
-767
-766
-767
-770
-770
-771
-769
-767
-765
-765
-767
-765
-765
-767
-768
-763
-762
-765
-768
-765
-762
-762
-759
-763
-765
-765
-764
-760
-762
-760
-757
-755
-750
-748
-746
-749
-749
-747
-747
-744
-738
-740
-742
-743
-742
-744
-741
-741
-741
-743
-748
-750
-757
-761
-767
-766
-765
-765
-767
-767
-764
-765
-765
-767
-767
-767
-767
-767
-768
-770
-769
-769
-770
-773
-771
-768
-767
-772
-770
-762
-760
-760
-759
-756
-763
-787
-810
-819
-830
-850
-870
-847
-805
-790
-783
-795
-813
-820
-828
-830
-817
-795
-776
-764
-752
-744
-737
-736
-734
-735
-736
-735
-735
-732
-732
-734
-733
-733
-729
-732
-731
-732
-734
-731
-732
-731
-732
-731
-729
-731
-728
-730
-725
-727
-728
-727
-726
-721
-721
-720
-721
-720
-716
-715
-713
-713
-709
-705
-704
-701
-701
-698
-696
-695
-693
-695
-691
-693
-692
-694
-696
-697
-700
-700
-705
-711
-716
-725
-731
-741
-747
-755
-760
-765
-765
-767
-770
-768
-770
-770
-769
-769
-768
-772
-769
-769
-768
-770
-768
-766
-765
-767
-767
-765
-767
-765
-764
-765
-764
-764
-763
-762
-763
-761
-762
-762
-762
-759
-759
-760
-759
-760
-760
-760
-759
-759
-760
-760
-759
-757
-760
-759
-758
-759
-758
-759
-757
-757
-755
-755
-755
-754
-755
-754
-753
-753
-753
-754
-750
-752
-752
-752
-752
-752
-752
-752
-753
-753
-752
-753
-751
-752
-750
-750
-749
-749
-750
-749
-750
-750
-748
-750
-748
-750
-749
-750
-749
-746
-744
-742
-740
-737
-736
-738
-737
-741
-737
-733
-728
-729
-732
-731
-731
-731
-731
-734
-734
-737
-737
-744
-752
-755
-757
-754
-756
-756
-755
-753
-755
-755
-755
-755
-755
-757
-756
-757
-757
-757
-758
-757
-756
-758
-759
-759
-758
-758
-756
-747
-741
-744
-743
-739
-749
-774
-800
-816
-829
-853
-880
-862
-818
-797
-793
-798
-805
-810
-814
-810
-794
-772
-755
-742
-732
-727
-723
-724
-722
-721
-718
-718
-719
-716
-717
-716
-716
-716
-714
-716
-714
-716
-716
-714
-714
-712
-714
-711
-711
-710
-709
-709
-707
-709
-708
-707
-706
-705
-705
-702
-701
-699
-697
-696
-693
-695
-690
-688
-685
-681
-679
-673
-672
-669
-667
-667
-662
-664
-662
-665
-665
-667
-674
-675
-681
-685
-693
-701
-708
-718
-727
-735
-739
-744
-750
-752
-755
-755
-757
-757
-759
-759
-758
-759
-759
-757
-758
-759
-759
-759
-760
-759
-759
-758
-758
-759
-758
-758
-755
-757
-755
-755
-755
-754
-757
-754
-755
-754
-754
-754
-752
-752
-749
-752
-750
-750
-750
-750
-750
-750
-749
-750
-750
-750
-747
-750
-750
-750
-749
-749
-749
-749
-751
-750
-750
-750
-749
-750
-748
-750
-749
-749
-749
-749
-750
-749
-749
-749
-749
-748
-747
-749
-747
-747
-746
-746
-745
-744
-745
-745
-745
-744
-744
-746
-744
-746
-745
-745
-745
-743
-742
-737
-737
-735
-735
-733
-733
-734
-734
-731
-728
-728
-729
-727
-730
-730
-730
-731
-733
-736
-737
-742
-748
-752
-752
-750
-753
-753
-754
-753
-754
-755
-756
-757
-755
-756
-755
-755
-755
-756
-755
-754
-756
-755
-755
-756
-755
-756
-754
-746
-737
-740
-742
-737
-743
-765
-795
-816
-826
-847
-875
-870
-826
-797
-796
-795
-802
-808
-816
-812
-795
-776
-757
-744
-733
-725
-724
-721
-721
-722
-719
-720
-718
-719
-717
-717
-718
-717
-716
-715
-714
-716
-714
-716
-713
-714
-712
-711
-711
-710
-710
-708
-710
-708
-708
-707
-705
-703
-700
-701
-699
-698
-696
-693
-693
-689
-688
-683
-680
-676
-671
-670
-667
-665
-663
-660
-660
-660
-660
-659
-660
-667
-668
-673
-675
-685
-691
-701
-710
-718
-726
-732
-739
-742
-746
-749
-750
-750
-752
-754
-754
-754
-753
-753
-755
-754
-754
-753
-755
-755
-755
-755
-753
-755
-754
-754
-754
-754
-753
-754
-753
-752
-753
-752
-750
-750
-750
-752
-749
-752
-751
-752
-752
-752
-752
-752
-752
-750
-750
-752
-752
-750
-750
-752
-750
-750
-750
-750
-752
-752
-752
-752
-752
-752
-750
-752
-752
-752
-752
-752
-753
-751
-754
-752
-750
-750
-750
-750
-750
-750
-750
-748
-749
-749
-750
-748
-749
-749
-748
-747
-747
-749
-746
-743
-746
-746
-747
-745
-746
-746
-745
-746
-744
-744
-745
-745
-745
-745
-745
-744
-746
-745
-746
-745
-744
-746
-746
-747
-746
-747
-747
-747
-747
-746
-747
-745
-745
-742
-739
-737
-734
-735
-733
-735
-735
-735
-732
-726
-726
-728
-728
-728
-730
-731
-730
-737
-739
-741
-745
-753
-757
-757
-758
-757
-757
-759
-759
-759
-758
-760
-760
-760
-761
-760
-760
-760
-760
-760
-760
-762
-760
-762
-760
-762
-762
-760
-760
-755
-745
-744
-746
-742
-741
-761
-792
-815
-825
-839
-867
-882
-845
-805
-795
-795
-804
-811
-816
-818
-809
-792
-770
-754
-740
-728
-724
-726
-724
-724
-724
-722
-724
-722
-719
-720
-721
-722
-718
-718
-718
-719
-719
-716
-717
-714
-716
-716
-714
-716
-713
-714
-713
-712
-712
-710
-711
-709
-709
-705
-703
-703
-700
-701
-700
-697
-695
-691
-690
-685
-685
-681
-677
-675
-668
-668
-667
-669
-665
-665
-667
-666
-670
-670
-677
-683
-688
-695
-703
-711
-719
-728
-736
-744
-752
-756
-759
-760
-764
-764
-762
-762
-764
-765
-764
-765
-764
-764
-765
-765
-765
-767
-766
-764
-764
-763
-762
-764
-765
-766
-765
-762
-760
-760
-765
-762
-761
-760
-762
-762
-759
-757
-759
-760
-759
-760
-764
-764
-765
-760
-762
-760
-760
-760
-762
-763
-762
-762
-762
-762
-763
-762
-764
-764
-766
-765
-765
-765
-765
-766
-765
-766
-767
-767
-767
-765
-766
-765
-766
-766
-767
-765
-764
-765
-765
-766
-764
-765
-767
-766
-765
-761
-762
-762
-762
-764
-762
-765
-763
-762
-760
-762
-764
-764
-762
-763
-762
-763
-762
-765
-764
-764
-764
-765
-764
-762
-762
-762
-762
-760
-761
-765
-764
-765
-762
-760
-762
-762
-762
-760
-763
-762
-762
-760
-762
-765
-762
-763
-760
-763
-766
-767
-766
-765
-767
-765
-766
-767
-767
-767
-763
-759
-759
-757
-759
-759
-760
-757
-757
-754
-754
-750
-747
-749
-746
-749
-751
-752
-754
-754
-756
-757
-767
-773
-775
-775
-772
-773
-776
-778
-777
-776
-774
-776
-776
-775
-776
-776
-777
-777
-777
-777
-777
-777
-775
-776
-777
-777
-780
-777
-773
-764
-764
-767
-762
-760
-765
-789
-809
-820
-831
-851
-867
-844
-804
-790
-790
-805
-818
-821
-828
-828
-814
-795
-777
-764
-747
-740
-737
-736
-736
-734
-734
-731
-731
-731
-732
-734
-732
-732
-730
-729
-729
-728
-728
-727
-727
-728
-728
-728
-724
-724
-724
-724
-723
-720
-721
-720
-722
-719
-717
-714
-713
-713
-711
-710
-708
-705
-705
-700
-698
-693
-693
-691
-688
-685
-684
-687
-682
-685
-683
-683
-683
-684
-690
-693
-701
-705
-709
-716
-723
-731
-741
-749
-755
-762
-764
-768
-769
-770
-771
-772
-772
-772
-772
-770
-772
-770
-772
-770
-769
-770
-771
-772
-770
-770
-770
-768
-769
-770
-771
-770
-768
-768
-765
-767
-767
-767
-767
-766
-767
-766
-767
-767
-767
-768
-768
-770
-768
-767
-768
-767
-770
-767
-768
-770
-770
-769
-770
-770
-767
-767
-767
-767
-766
-767
-768
-766
-765
-767
-765
-765
-765
-767
-765
-766
-767
-766
-767
-766
-767
-766
-766
-765
-764
-762
-764
-765
-764
-762
-764
-763
-764
-764
-764
-762
-763
-762
-761
-762
-762
-760
-759
-760
-760
-760
-760
-760
-760
-760
-759
-758
-758
-759
-758
-759
-757
-757
-757
-757
-757
-757
-757
-756
-757
-756
-756
-758
-756
-757
-756
-757
-755
-755
-757
-757
-757
-757
-757
-757
-754
-757
-755
-752
-746
-747
-749
-749
-747
-743
-744
-744
-741
-739
-737
-739
-741
-739
-741
-742
-747
-749
-753
-757
-761
-762
-761
-762
-762
-762
-761
-764
-763
-763
-764
-764
-763
-763
-762
-763
-762
-763
-762
-762
-763
-762
-763
-762
-764
-762
-760
-750
-742
-747
-744
-739
-747
-773
-802
-820
-829
-852
-880
-870
-824
-802
-800
-804
-812
-817
-823
-818
-803
-782
-760
-744
-732
-725
-723
-720
-720
-718
-718
-716
-714
-715
-712
-714
-712
-711
-711
-709
-711
-710
-713
-711
-711
-711
-709
-709
-706
-705
-705
-704
-703
-701
-703
-701
-700
-699
-695
-697
-695
-694
-693
-693
-693
-689
-689
-684
-683
-681
-678
-677
-671
-670
-669
-664
-662
-659
-661
-660
-661
-662
-664
-669
-671
-677
-681
-688
-696
-705
-714
-719
-729
-736
-743
-748
-752
-755
-755
-757
-759
-759
-759
-760
-760
-759
-760
-759
-760
-759
-759
-759
-759
-759
-759
-760
-759
-757
-758
-757
-758
-757
-758
-757
-757
-757
-755
-755
-755
-757
-755
-754
-755
-755
-755
-755
-754
-755
-754
-755
-755
-756
-756
-757
-758
-757
-758
-758
-759
-758
-759
-759
-760
-760
-759
-759
-759
-759
-759
-759
-759
-759
-759
-760
-758
-760
-760
-760
-759
-760
-760
-759
-759
-760
-760
-759
-756
-758
-759
-759
-759
-757
-759
-757
-758
-757
-759
-757
-756
-757
-756
-757
-755
-756
-755
-755
-755
-755
-755
-755
-755
-755
-755
-756
-755
-755
-755
-755
-755
-755
-755
-755
-755
-754
-754
-754
-754
-753
-752
-752
-754
-752
-754
-750
-752
-752
-753
-752
-753
-754
-754
-752
-754
-754
-754
-754
-754
-754
-755
-755
-755
-756
-755
-755
-752
-750
-750
-748
-750
-747
-747
-749
-750
-752
-752
-754
-755
-759
-759
-760
-762
-761
-760
-760
-760
-760
-759
-759
-759
-760
-760
-761
-761
-760
-760
-760
-760
-758
-757
-759
-759
-759
-757
-759
-759
-758
-756
-757
-758
-757
-752
-740
-740
-743
-737
-739
-757
-788
-809
-820
-834
-861
-873
-835
-798
-790
-793
-803
-808
-814
-818
-807
-788
-767
-749
-736
-724
-718
-718
-715
-715
-713
-713
-713
-711
-711
-709
-709
-709
-707
-709
-707
-707
-706
-706
-708
-705
-704
-703
-703
-703
-700
-703
-700
-700
-701
-698
-698
-695
-696
-693
-693
-691
-688
-688
-685
-685
-683
-680
-678
-675
-675
-672
-669
-667
-664
-662
-657
-654
-654
-653
-652
-649
-652
-652
-655
-657
-661
-670
-674
-683
-691
-701
-712
-721
-730
-737
-744
-747
-750
-753
-755
-755
-756
-757
-757
-755
-757
-757
-757
-757
-757
-757
-757
-757
-757
-756
-757
-755
-755
-755
-755
-755
-755
-754
-755
-754
-754
-753
-753
-754
-752
-754
-754
-754
-753
-753
-755
-754
-754
-755
-755
-755
-755
-755
-754
-755
-755
-756
-755
-754
-755
-754
-754
-755
-754
-755
-752
-753
-754
-754
-751
-752
-753
-753
-754
-754
-753
-754
-753
-753
-753
-754
-753
-752
-752
-751
-751
-750
-750
-750
-749
-750
-750
-750
-749
-748
-749
-747
-749
-749
-748
-749
-747
-748
-747
-748
-747
-747
-747
-747
-747
-747
-747
-747
-747
-747
-746
-747
-746
-746
-746
-744
-747
-746
-747
-744
-747
-747
-747
-747
-747
-747
-747
-748
-749
-749
-750
-749
-748
-749
-749
-749
-749
-750
-750
-750
-750
-750
-752
-752
-755
-755
-759
-759
-757
-757
-762
-768
-773
-774
-770
-767
-764
-766
-770
-771
-770
-764
-760
-759
-758
-757
-754
-752
-752
-752
-750
-752
-753
-754
-750
-753
-751
-752
-752
-750
-750
-750
-750
-750
-750
-750
-748
-739
-732
-736
-733
-728
-736
-760
-790
-809
-817
-835
-861
-857
-810
-777
-776
-782
-793
-799
-809
-809
-794
-774
-752
-737
-725
-712
-709
-709
-707
-708
-705
-704
-703
-703
-703
-701
-702
-699
-700
-700
-697
-697
-697
-699
-696
-697
-695
-695
-697
-696
-695
-693
-691
-693
-690
-692
-690
-690
-691
-689
-690
-687
-686
-682
-680
-680
-677
-679
-674
-671
-665
-660
-660
-655
-657
-656
-653
-653
-649
-651
-650
-654
-656
-657
-663
-665
-670
-675
-683
-693
-700
-709
-714
-724
-732
-741
-744
-748
-751
-755
-759
-759
-759
-759
-759
-759
-758
-760
-760
-760
-759
-760
-760
-760
-759
-760
-762
-764
-762
-760
-757
-755
-755
-756
-759
-759
-760
-758
-757
-757
-757
-759
-757
-758
-755
-755
-757
-757
-759
-759
-760
-759
-758
-759
-759
-762
-762
-759
-759
-757
-759
-758
-762
-762
-762
-760
-759
-759
-759
-762
-762
-760
-760
-760
-763
-762
-761
-762
-762
-761
-760
-760
-760
-762
-762
-760
-760
-759
-759
-760
-762
-760
-759
-760
-758
-759
-758
-757
-758
-757
-757
-759
-759
-760
-760
-759
-756
-757
-757
-757
-757
-757
-756
-757
-757
-757
-755
-757
-756
-756
-756
-757
-757
-754
-755
-755
-756
-759
-760
-760
-759
-759
-755
-757
-759
-759
-759
-760
-762
-760
-759
-760
-760
-762
-761
-762
-762
-764
-765
-767
-770
-775
-776
-777
-785
-790
-795
-793
-788
-783
-778
-780
-783
-786
-786
-780
-775
-772
-770
-770
-767
-764
-766
-766
-765
-764
-764
-765
-766
-765
-766
-764
-765
-766
-764
-765
-763
-760
-762
-763
-760
-751
-752
-755
-751
-750
-763
-788
-808
-815
-824
-846
-856
-820
-778
-770
-772
-790
-803
-808
-816
-817
-801
-778
-762
-749
-733
-724
-721
-721
-720
-719
-720
-717
-717
-716
-713
-715
-713
-714
-710
-711
-711
-709
-711
-707
-709
-709
-709
-709
-706
-709
-706
-706
-707
-709
-711
-708
-706
-703
-703
-704
-702
-701
-697
-697
-695
-695
-695
-691
-690
-684
-682
-680
-675
-674
-670
-668
-668
-667
-669
-669
-670
-669
-671
-673
-677
-684
-688
-698
-705
-711
-721
-730
-739
-743
-752
-754
-759
-761
-763
-764
-764
-764
-765
-765
-764
-762
-762
-762
-764
-764
-763
-762
-762
-760
-760
-760
-760
-762
-760
-759
-759
-759
-759
-759
-758
-759
-758
-757
-756
-756
-757
-757
-757
-757
-759
-757
-759
-760
-760
-759
-757
-757
-758
-759
-757
-760
-760
-759
-758
-759
-759
-759
-758
-757
-757
-759
-758
-757
-757
-758
-756
-757
-757
-757
-757
-757
-756
-757
-755
-755
-755
-755
-755
-754
-754
-755
-754
-754
-754
-754
-752
-753
-752
-752
-752
-750
-750
-752
-752
-750
-750
-750
-750
-750
-750
-750
-749
-750
-749
-747
-750
-750
-749
-747
-747
-748
-747
-748
-747
-749
-750
-747
-748
-747
-748
-747
-747
-748
-747
-749
-749
-749
-749
-747
-748
-749
-750
-748
-749
-750
-750
-750
-750
-750
-750
-750
-750
-750
-752
-752
-754
-755
-758
-763
-765
-768
-773
-778
-783
-783
-779
-773
-768
-767
-772
-774
-773
-770
-762
-760
-758
-757
-754
-752
-754
-753
-754
-753
-752
-753
-752
-753
-752
-752
-752
-752
-752
-750
-750
-750
-750
-750
-749
-741
-731
-733
-734
-730
-735
-755
-784
-804
-814
-829
-857
-857
-814
-783
-780
-784
-793
-798
-805
-804
-791
-773
-752
-736
-725
-711
-708
-707
-704
-703
-702
-702
-701
-701
-700
-698
-700
-699
-697
-698
-696
-698
-696
-697
-698
-695
-696
-695
-694
-694
-693
-694
-692
-694
-693
-692
-691
-688
-690
-687
-685
-684
-684
-683
-680
-681
-677
-675
-673
-669
-667
-662
-660
-655
-655
-654
-650
-650
-649
-650
-649
-649
-654
-655
-661
-665
-669
-675
-681
-689
-695
-707
-715
-724
-731
-737
-742
-746
-749
-750
-750
-750
-752
-753
-752
-752
-750
-752
-750
-752
-751
-752
-752
-751
-750
-750
-749
-750
-750
-750
-749
-748
-748
-749
-749
-747
-747
-746
-747
-746
-745
-745
-745
-745
-745
-743
-744
-744
-744
-742
-744
-745
-745
-745
-745
-745
-745
-746
-745
-746
-747
-747
-747
-747
-747
-748
-747
-749
-748
-749
-748
-748
-750
-750
-750
-749
-750
-750
-750
-750
-750
-750
-750
-750
-751
-750
-752
-750
-752
-752
-752
-751
-750
-754
-752
-752
-752
-752
-753
-752
-752
-752
-753
-752
-750
-754
-754
-755
-753
-754
-753
-754
-754
-754
-755
-755
-755
-754
-754
-755
-753
-755
-754
-754
-754
-754
-754
-754
-753
-754
-754
-755
-753
-755
-754
-755
-754
-754
-755
-754
-754
-754
-755
-755
-754
-755
-754
-754
-755
-755
-756
-755
-756
-755
-757
-755
-756
-757
-755
-752
-753
-754
-755
-753
-754
-755
-754
-753
-754
-755
-755
-755
-754
-755
-754
-754
-755
-755
-755
-752
-754
-755
-755
-754
-754
-755
-754
-750
-747
-744
-746
-745
-743
-739
-739
-741
-739
-736
-733
-735
-736
-736
-736
-739
-743
-747
-750
-753
-755
-755
-750
-754
-752
-754
-753
-755
-755
-754
-753
-755
-755
-755
-755
-755
-754
-755
-755
-755
-755
-754
-754
-754
-754
-753
-750
-742
-734
-739
-736
-731
-739
-765
-794
-810
-816
-833
-859
-853
-805
-782
-781
-786
-796
-800
-806
-808
-795
-777
-757
-741
-728
-716
-710
-709
-708
-706
-705
-704
-703
-698
-701
-700
-701
-699
-701
-701
-700
-701
-697
-698
-699
-697
-698
-695
-695
-693
-694
-695
-693
-695
-692
-691
-691
-690
-691
-687
-687
-687
-684
-683
-681
-680
-676
-673
-670
-665
-665
-660
-657
-655
-650
-650
-647
-647
-646
-646
-647
-644
-647
-646
-650
-654
-657
-665
-670
-681
-689
-698
-705
-714
-724
-730
-736
-740
-744
-746
-747
-747
-749
-749
-746
-749
-747
-748
-749
-747
-749
-747
-747
-747
-747
-747
-746
-747
-746
-746
-744
-745
-743
-743
-744
-743
-744
-744
-743
-745
-742
-743
-742
-742
-742
-740
-741
-741
-741
-741
-742
-742
-742
-741
-742
-744
-743
-742
-744
-744
-744
-745
-744
-743
-743
-746
-744
-744
-744
-744
-745
-743
-746
-747
-747
-747
-747
-747
-746
-747
-747
-747
-746
-745
-746
-745
-745
-745
-746
-746
-746
-746
-744
-744
-745
-745
-745
-745
-744
-744
-743
-744
-745
-746
-744
-744
-743
-744
-742
-743
-744
-745
-742
-742
-742
-744
-743
-745
-744
-744
-743
-742
-742
-742
-742
-743
-744
-745
-743
-744
-742
-744
-742
-742
-741
-741
-742
-741
-741
-742
-741
-742
-743
-743
-742
-742
-743
-742
-745
-744
-747
-746
-747
-747
-746
-747
-746
-747
-748
-747
-749
-745
-744
-739
-740
-740
-738
-736
-737
-739
-739
-736
-733
-733
-736
-737
-736
-739
-744
-749
-754
-755
-757
-755
-752
-750
-754
-753
-754
-754
-755
-756
-754
-755
-755
-759
-756
-753
-754
-754
-755
-755
-755
-754
-755
-755
-752
-753
-752
-745
-736
-737
-740
-735
-737
-759
-789
-810
-820
-829
-854
-856
-815
-778
-772
-776
-790
-799
-803
-810
-805
-787
-765
-746
-732
-720
-712
-711
-709
-707
-708
-706
-706
-704
-704
-703
-701
-703
-703
-703
-701
-700
-701
-703
-702
-700
-698
-700
-696
-698
-696
-698
-696
-696
-696
-696
-696
-693
-692
-692
-690
-691
-687
-683
-678
-675
-676
-672
-674
-670
-668
-667
-662
-662
-657
-659
-654
-652
-653
-653
-655
-656
-660
-660
-662
-665
-670
-682
-690
-699
-707
-715
-723
-734
-741
-744
-747
-751
-755
-756
-757
-757
-758
-756
-757
-759
-759
-757
-756
-759
-758
-756
-756
-756
-757
-755
-753
-756
-754
-755
-755
-756
-752
-754
-755
-755
-753
-752
-753
-752
-750
-752
-754
-755
-754
-754
-755
-757
-756
-755
-755
-754
-755
-755
-755
-755
-754
-756
-757
-757
-755
-757
-757
-757
-759
-757
-758
-759
-757
-758
-757
-757
-757
-759
-758
-759
-762
-762
-762
-759
-757
-756
-757
-757
-757
-757
-756
-755
-758
-757
-757
-755
-757
-757
-755
-757
-757
-756
-755
-757
-757
-756
-757
-755
-756
-755
-756
-756
-755
-755
-754
-755
-755
-755
-755
-755
-754
-755
-757
-755
-754
-754
-752
-754
-755
-755
-755
-754
-753
-754
-753
-753
-754
-755
-755
-754
-752
-753
-752
-754
-755
-754
-752
-755
-755
-755
-755
-756
-755
-755
-755
-756
-759
-759
-757
-756
-757
-757
-754
-753
-750
-750
-749
-747
-746
-743
-744
-745
-743
-740
-739
-741
-741
-742
-741
-746
-750
-755
-759
-763
-765
-762
-760
-760
-760
-762
-764
-765
-763
-763
-764
-764
-762
-760
-762
-762
-764
-762
-762
-764
-764
-762
-764
-762
-762
-760
-759
-752
-746
-748
-747
-742
-744
-765
-795
-813
-820
-832
-855
-863
-816
-780
-777
-782
-798
-805
-810
-816
-809
-790
-768
-754
-740
-728
-723
-719
-719
-717
-714
-714
-714
-714
-713
-711
-709
-709
-712
-710
-708
-706
-708
-710
-706
-709
-708
-709
-705
-703
-705
-703
-703
-701
-702
-704
-705
-706
-704
-700
-697
-701
-700
-696
-695
-690
-694
-690
-685
-683
-680
-681
-676
-674
-671
-667
-665
-663
-664
-664
-666
-669
-669
-671
-671
-676
-680
-689
-697
-705
-716
-723
-732
-739
-747
-752
-759
-761
-764
-763
-766
-765
-766
-768
-764
-767
-767
-767
-767
-765
-767
-766
-767
-764
-765
-765
-765
-765
-764
-764
-764
-764
-764
-762
-762
-762
-761
-762
-762
-764
-764
-762
-760
-762
-762
-760
-760
-759
-760
-760
-760
-760
-760
-762
-762
-762
-762
-763
-764
-762
-763
-763
-764
-764
-760
-764
-764
-765
-762
-764
-764
-764
-764
-763
-765
-765
-764
-764
-764
-766
-764
-763
-764
-764
-763
-762
-763
-763
-762
-763
-762
-762
-762
-762
-762
-762
-762
-762
-762
-760
-760
-760
-760
-760
-759
-759
-759
-758
-759
-760
-759
-757
-759
-759
-759
-758
-759
-759
-758
-757
-759
-757
-759
-755
-759
-757
-758
-757
-756
-757
-757
-757
-757
-756
-756
-755
-755
-756
-757
-756
-755
-757
-757
-757
-757
-757
-757
-757
-757
-757
-759
-759
-759
-759
-759
-758
-757
-757
-756
-750
-749
-750
-750
-750
-747
-745
-742
-744
-741
-740
-741
-743
-743
-742
-745
-750
-755
-760
-760
-764
-763
-761
-762
-762
-764
-765
-765
-764
-764
-765
-764
-765
-764
-765
-764
-764
-765
-764
-764
-764
-764
-763
-763
-763
-761
-761
-750
-741
-744
-743
-739
-741
-764
-793
-813
-821
-832
-860
-863
-817
-790
-790
-793
-803
-806
-812
-810
-800
-778
-758
-745
-729
-722
-716
-716
-716
-714
-715
-711
-709
-711
-709
-709
-708
-707
-708
-705
-707
-706
-707
-705
-704
-702
-701
-701
-698
-700
-698
-698
-699
-698
-698
-696
-697
-696
-693
-693
-691
-693
-688
-688
-687
-682
-681
-677
-676
-671
-668
-668
-661
-662
-660
-658
-656
-653
-654
-653
-655
-654
-657
-661
-664
-673
-676
-685
-688
-699
-707
-717
-726
-732
-738
-744
-749
-750
-753
-754
-755
-755
-755
-755
-755
-755
-755
-755
-755
-753
-755
-754
-755
-755
-755
-755
-754
-754
-754
-755
-754
-753
-752
-752
-752
-750
-750
-750
-750
-750
-748
-750
-748
-750
-750
-749
-747
-748
-750
-749
-750
-749
-750
-749
-750
-749
-749
-750
-750
-749
-750
-750
-750
-750
-752
-752
-752
-753
-752
-753
-752
-752
-753
-754
-753
-753
-753
-754
-754
-753
-754
-755
-754
-754
-755
-755
-754
-754
-755
-753
-755
-755
-755
-756
-754
-755
-757
-755
-757
-757
-757
-755
-757
-759
-757
-759
-758
-759
-759
-758
-759
-758
-759
-759
-759
-759
-759
-759
-760
-760
-759
-759
-760
-759
-759
-759
-760
-758
-759
-760
-760
-759
-759
-760
-760
-760
-759
-759
-759
-759
-760
-759
-760
-759
-758
-759
-759
-759
-759
-759
-760
-759
-758
-759
-759
-758
-758
-759
-758
-760
-758
-759
-759
-759
-758
-757
-757
-757
-757
-757
-757
-757
-757
-757
-756
-757
-755
-757
-757
-757
-757
-756
-757
-757
-755
-756
-754
-752
-749
-746
-746
-746
-746
-741
-741
-742
-739
-737
-735
-736
-737
-737
-739
-741
-747
-750
-754
-754
-759
-758
-755
-753
-755
-757
-756
-755
-756
-755
-757
-757
-757
-755
-757
-757
-755
-755
-755
-755
-755
-755
-756
-755
-755
-754
-755
-754
-753
-754
-749
-738
-734
-739
-735
-731
-745
-775
-800
-814
-821
-843
-864
-836
-793
-780
-780
-787
-794
-798
-804
-800
-783
-762
-744
-731
-720
-711
-707
-709
-706
-705
-701
-702
-702
-701
-702
-700
-700
-698
-697
-696
-695
-695
-692
-695
-695
-693
-693
-690
-691
-689
-687
-685
-685
-687
-685
-684
-683
-680
-680
-678
-679
-675
-675
-673
-672
-671
-667
-667
-661
-660
-657
-654
-653
-648
-647
-646
-643
-644
-643
-648
-647
-650
-650
-654
-659
-661
-670
-675
-683
-692
-701
-708
-717
-727
-730
-736
-739
-742
-745
-747
-748
-748
-749
-749
-749
-747
-748
-749
-748
-749
-747
-748
-747
-749
-747
-747
-748
-747
-747
-747
-747
-745
-745
-745
-744
-745
-744
-744
-744
-744
-744
-742
-742
-742
-741
-742
-741
-742
-742
-742
-741
-742
-743
-742
-744
-744
-743
-743
-742
-744
-745
-746
-746
-746
-747
-747
-747
-745
-746
-746
-747
-747
-747
-749
-748
-749
-750
-750
-749
-747
-747
-747
-749
-749
-748
-750
-750
-749
-747
-746
-747
-747
-750
-750
-750
-749
-750
-750
-750
-750
-749
-748
-752
-753
-755
-753
-755
-752
-750
-750
-749
-752
-753
-754
-755
-754
-755
-753
-754
-754
-756
-756
-757
-757
-757
-759
-759
-757
-757
-759
-758
-757
-756
-755
-755
-757
-759
-760
-760
-760
-758
-758
-759
-759
-760
-759
-760
-763
-761
-762
-760
-762
-760
-762
-764
-762
-757
-759
-762
-763
-763
-765
-764
-763
-762
-760
-760
-760
-760
-762
-765
-764
-763
-762
-762
-761
-762
-765
-762
-760
-760
-762
-762
-762
-761
-759
-760
-761
-762
-760
-758
-760
-760
-759
-759
-760
-759
-759
-762
-761
-762
-760
-759
-757
-757
-759
-759
-757
-757
-757
-759
-757
-760
-759
-761
-762
-766
-765
-767
-772
-775
-779
-777
-775
-769
-767
-771
-776
-776
-771
-766
-763
-762
-762
-759
-757
-755
-750
-753
-754
-753
-753
-755
-755
-754
-753
-752
-753
-753
-754
-753
-750
-753
-755
-753
-750
-748
-749
-750
-754
-752
-750
-747
-739
-739
-742
-737
-738
-747
-768
-787
-796
-805
-824
-839
-805
-759
-747
-748
-768
-786
-791
-799
-801
-790
-767
-749
-732
-717
-708
-705
-705
-705
-705
-703
-700
-699
-700
-703
-701
-699
-697
-698
-701
-697
-697
-698
-696
-696
-696
-696
-697
-696
-696
-698
-699
-696
-696
-694
-694
-695
-692
-694
-691
-693
-689
-687
-687
-685
-687
-682
-680
-679
-677
-675
-670
-668
-667
-665
-665
-660
-660
-657
-659
-658
-659
-664
-665
-672
-675
-680
-686
-695
-703
-714
-724
-732
-739
-743
-749
-753
-756
-757
-760
-763
-763
-759
-759
-761
-762
-764
-765
-763
-759
-758
-760
-759
-760
-760
-760
-760
-762
-761
-757
-758
-760
-759
-760
-760
-760
-760
-762
-760
-759
-759
-760
-762
-760
-759
-760
-759
-758
-760
-762
-762
-762
-762
-762
-764
-763
-765
-764
-765
-766
-763
-762
-762
-764
-764
-763
-765
-766
-766
-763
-763
-762
-762
-764
-764
-766
-766
-765
-766
-764
-765
-762
-766
-765
-766
-765
-766
-767
-767
-767
-767
-765
-765
-765
-767
-766
-767
-767
-766
-766
-767
-768
-767
-767
-766
-765
-767
-767
-767
-766
-767
-767
-764
-767
-764
-765
-765
-765
-767
-765
-765
-765
-765
-765
-765
-767
-764
-766
-764
-766
-764
-764
-763
-764
-765
-764
-762
-764
-764
-764
-760
-763
-763
-763
-764
-763
-764
-764
-764
-762
-762
-762
-760
-762
-760
-763
-762
-762
-760
-762
-762
-761
-762
-762
-760
-760
-760
-761
-760
-760
-760
-760
-760
-760
-760
-760
-760
-760
-760
-759
-759
-760
-760
-759
-762
-762
-765
-769
-770
-773
-778
-787
-788
-785
-777
-775
-770
-770
-773
-777
-776
-770
-764
-758
-757
-757
-754
-752
-752
-754
-754
-752
-753
-752
-752
-750
-749
-749
-749
-749
-747
-748
-747
-746
-747
-746
-747
-746
-746
-746
-746
-742
-731
-726
-728
-725
-723
-730
-755
-780
-797
-805
-824
-852
-839
-790
-775
-773
-778
-787
-792
-795
-790
-774
-750
-731
-718
-704
-699
-695
-694
-695
-690
-691
-689
-688
-687
-685
-688
-687
-688
-688
-686
-688
-685
-687
-685
-685
-685
-685
-685
-683
-683
-681
-680
-683
-680
-681
-681
-681
-681
-680
-680
-677
-679
-678
-675
-675
-672
-672
-668
-665
-664
-659
-658
-653
-651
-646
-646
-646
-641
-643
-640
-644
-642
-644
-647
-652
-660
-665
-673
-679
-688
-696
-705
-714
-722
-730
-735
-741
-744
-746
-749
-750
-750
-750
-750
-749
-750
-749
-749
-749
-750
-750
-749
-750
-750
-750
-750
-750
-750
-750
-750
-750
-749
-749
-747
-749
-749
-748
-745
-746
-747
-745
-747
-747
-746
-747
-746
-747
-746
-747
-747
-747
-747
-748
-748
-748
-749
-749
-750
-750
-750
-750
-749
-750
-752
-752
-752
-750
-750
-752
-752
-751
-752
-753
-752
-754
-754
-754
-754
-754
-754
-754
-755
-756
-755
-754
-755
-755
-755
-754
-756
-756
-757
-754
-755
-755
-756
-755
-755
-756
-757
-756
-755
-757
-759
-757
-757
-758
-758
-757
-758
-759
-757
-757
-757
-759
-757
-757
-757
-757
-757
-757
-757
-757
-759
-759
-757
-758
-757
-757
-756
-757
-757
-757
-758
-757
-757
-758
-758
-758
-757
-758
-759
-759
-757
-759
-759
-759
-756
-758
-759
-759
-759
-760
-759
-760
-759
-758
-759
-760
-760
-759
-760
-760
-759
-760
-762
-762
-760
-760
-762
-761
-761
-760
-761
-761
-760
-760
-760
-762
-763
-764
-765
-767
-772
-775
-777
-783
-789
-793
-791
-785
-778
-776
-776
-778
-783
-782
-776
-770
-765
-764
-762
-759
-759
-759
-759
-759
-759
-759
-759
-757
-757
-757
-757
-757
-757
-757
-755
-755
-754
-754
-755
-754
-754
-754
-752
-745
-735
-736
-736
-731
-733
-754
-783
-805
-815
-826
-854
-861
-816
-782
-779
-782
-792
-796
-801
-803
-793
-773
-750
-736
-721
-710
-706
-705
-706
-703
-701
-702
-700
-701
-701
-701
-700
-699
-700
-696
-698
-696
-696
-696
-695
-695
-695
-695
-695
-695
-695
-695
-695
-693
-695
-692
-691
