-13
-11
-11
-10
-9
-8
-7
-7
-7
-6
-5
-5
-5
-4
-3
-2
-1
0
1
2
3
6
7
7
8
10
12
14
17
20
21
22
24
26
28
30
31
32
33
34
36
38
40
41
40
39
37
35
30
25
19
14
9
4
0
-4
-8
-11
-13
-15
-16
-17
-19
-21
-22
-23
-23
-23
-22
-21
-22
-23
-23
-23
-22
-21
-21
-21
-22
-23
-22
-21
-21
-21
-21
-21
-21
-21
-21
-21
-21
-20
-19
-18
-17
-17
-17
-18
-19
-19
-19
-18
-17
-18
-19
-19
-19
-19
-19
-20
-21
-21
-21
-21
-21
-20
-20
-22
-23
-22
-21
-21
-21
-21
-21
-21
-21
-21
-19
-17
-16
-15
-14
-13
-12
-11
-10
-9
-8
-6
-3
-1
-1
-1
-2
-3
-3
-5
-10
-13
-14
-16
-18
-19
-20
-21
-22
-23
-23
-23
-24
-25
-24
-23
-24
-25
-25
-25
-25
-24
-23
-23
-23
-23
-23
-22
-21
-20
-20
-28
-29
-16
7
47
93
147
184
202
179
113
48
-18
-55
-72
-64
-41
-26
-14
-11
-12
-13
-14
-15
-15
-15
-15
-15
-15
-15
-13
-14
-15
-14
-13
-12
-11
-10
-9
-7
-5
-6
-7
-6
-5
-4
-3
-3
-3
-1
1
2
3
4
6
8
9
10
12
14
16
18
19
20
22
24
27
30
32
34
36
35
40
41
41
41
42
43
40
37
34
31
26
22
17
12
7
2
-4
-8
-11
-13
-16
-18
-20
-21
-22
-23
-24
-25
-24
-23
-24
-25
-24
-23
-23
-23
-23
-23
-23
-23
-23
-22
-21
-21
-21
-21
-21
-20
-19
-20
-21
-20
-19
-20
-21
-20
-19
-18
-17
-18
-19
-18
-17
-18
-19
-19
-19
-19
-19
-20
-21
-20
-19
-20
-21
-21
-21
-21
-21
-21
-21
-21
-21
-21
-22
-23
-23
-23
-22
-21
-21
-21
-21
-21
-20
-19
-17
-15
-13
-11
-11
-11
-11
-11
-8
-7
-6
-4
-2
-1
-1
-1
-2
-3
-3
-6
-12
-13
-14
-16
-18
-19
-20
-21
-21
-23
-23
-23
-23
-23
-23
-23
-23
-23
-23
-23
-23
-22
-21
-21
-21
-20
-19
-20
-21
-22
-24
-27
-18
3
39
86
139
194
204
192
140
75
9
-56
-62
-56
-38
-19
-16
-14
-14
-15
-15
-15
-15
-15
-15
-15
-15
-15
-14
-13
-14
-15
-13
-11
-11
-11
-9
-7
-7
-7
-6
-5
-5
-4
-2
-1
-2
-2
0
2
4
5
6
8
10
11
12
13
14
17
21
23
25
27
29
31
33
35
37
40
43
43
43
44
45
45
44
41
37
32
28
23
18
12
7
3
-2
-7
-11
-14
-16
-18
-20
-22
-23
-23
-23
-23
-23
-23
-23
-23
-24
-25
-25
-25
-24
-23
-24
-25
-24
-23
-23
-23
-22
-21
-21
-21
-21
-21
-21
-21
-20
-19
-20
-21
-21
-21
-20
-19
-19
-19
-19
-19
-20
-21
-21
-21
-21
-21
-22
-23
-23
-22
-21
-22
-23
-23
-23
-23
-23
-23
-23
-23
-23
-23
-23
-23
-23
-23
-23
-23
-23
-23
-22
-20
-19
-18
-17
-16
-15
-15
-15
-14
-13
-12
-8
-4
-3
-2
-1
-2
-3
-3
-4
-7
-12
-17
-18
-19
-21
-23
-23
-23
-24
-25
-25
-25
-26
-27
-27
-27
-28
-29
-28
-27
-27
-27
-27
-27
-26
-25
-25
-25
-25
-27
-30
-29
-26
-1
28
82
139
180
219
177
221
64
-1
-46
-85
-63
-42
-31
-21
-19
-17
-19
-21
-21
-21
-21
-21
-21
-21
-21
-21
-20
-19
-20
-21
-20
-19
-18
-17
-16
-15
-15
-14
-12
-11
-11
-11
-10
-9
-9
-9
-8
-5
-3
-2
-1
0
1
3
5
7
9
11
13
14
15
17
20
23
25
27
29
31
33
34
35
35
35
35
34
30
26
21
16
12
7
1
-4
-8
-12
-16
-19
-22
-24
-27
-28
-29
-31
-33
-33
-33
-33
-33
-33
-33
-33
-33
-33
-33
-33
-33
-33
-33
-33
-33
-30
-29
-29
-29
-29
-29
-29
-29
-29
-29
-28
-27
-28
-29
-28
-27
-27
-27
-27
-27
-27
-27
-27
-28
-29
-29
-29
-30
-31
-31
-31
-31
-31
-30
-29
-29
-29
-30
-31
-31
-31
-31
-31
-32
-33
-32
-31
-31
-31
-31
-31
-31
-31
-31
-31
-31
-29
-26
-25
-25
-25
-24
-22
-21
-19
-17
-16
-15
-13
-11
-10
-9
-10
-11
-12
-14
-18
-21
-22
-23
-25
-27
-27
-28
-30
-31
-32
-33
-32
-31
-32
-33
-34
-35
-34
-33
-33
-33
-33
-33
-32
-31
-31
-31
-29
-30
-31
-36
-40
-30
-16
16
54
108
156
187
191
127
63
-3
-52
-75
-80
-57
-40
-27
-21
-22
-24
-26
-27
-27
-27
-27
-27
-26
-25
-26
-27
-26
-25
-24
-23
-22
-21
-21
-20
-19
-18
-17
-17
-17
-16
-15
-14
-13
-12
-11
-10
-9
-8
-7
-5
-3
-1
1
4
5
5
6
9
12
14
17
20
22
24
25
25
26
28
29
30
31
30
29
28
24
21
17
13
8
3
-2
-7
-11
-15
-18
-21
-24
-27
-29
-31
-31
-31
-31
-31
-32
-33
-33
-33
-34
-35
-34
-33
-34
-35
-34
-33
-32
-31
-31
-31
-30
-29
-30
-31
-31
-31
-29
-30
-31
-30
-29
-28
-27
-27
-27
-28
-29
-29
-29
-29
-29
-28
-27
-29
-31
-30
-29
-29
-29
-29
-29
-29
-29
-29
-29
-30
-31
-30
-30
-32
-33
-32
-31
-31
-31
-30
-29
-29
-29
-29
-29
-29
-28
-27
-27
-27
-24
-21
-20
-19
-19
-19
-18
-16
-13
-11
-10
-9
-8
-8
-10
-11
-12
-14
-17
-20
-22
-23
-24
-25
-26
-28
-30
-31
-31
-31
-31
-31
-31
-31
-31
-30
-29
-30
-31
-30
-29
-29
-29
-28
-27
-28
-29
-29
-30
-34
-32
-17
7
44
89
142
174
187
155
89
24
-42
-71
-83
-69
-45
-31
-19
-17
-17
-18
-20
-21
-21
-21
-21
-21
-21
-22
-23
-21
-19
-18
-17
-17
-17
-16
-15
-15
-15
-15
-15
-13
-11
-11
-11
-10
-9
-8
-7
-6
-5
-4
-2
0
2
4
5
6
7
8
11
14
16
18
20
19
24
25
27
29
30
31
31
31
30
29
30
31
28
24
20
16
12
7
2
-2
-7
-11
-15
-19
-23
-25
-25
-25
-26
-27
-28
-29
-28
-27
-27
-27
-28
-29
-29
-29
-30
-30
-29
-28
-27
-27
-27
-26
-25
-25
-25
-25
-25
-25
-25
-25
-25
-25
-25
-24
-23
-23
-23
-23
-23
-23
-23
-23
-23
-24
-25
-25
-25
-25
-25
-25
-25
-26
-27
-27
-27
-27
-27
-27
-27
-27
-28
-29
-27
-25
-26
-27
-27
-27
-26
-25
-26
-27
-25
-23
-22
-21
-21
-21
-18
-17
-16
-15
-15
-14
-11
-9
-8
-7
-7
-7
-7
-8
-10
-13
-16
-19
-22
-23
-23
-26
-27
-28
-29
-29
-29
-31
-33
-32
-31
-31
-31
-30
-29
-28
-27
-28
-29
-28
-27
-27
-27
-28
-30
-33
-32
-26
-3
27
74
127
166
200
164
110
46
-19
-58
-92
-72
-48
-33
-19
-18
-17
-18
-19
-21
-23
-22
-21
-21
-21
-21
-21
-20
-19
-18
-17
-16
-15
-14
-13
-14
-15
-14
-13
-12
-11
-12
-13
-12
-10
-8
-7
-6
-4
-2
-1
0
1
2
4
7
8
9
11
13
15
17
19
21
23
25
27
29
30
31
32
32
29
27
28
28
25
21
17
13
7
2
-3
-7
-11
-15
-18
-22
-26
-27
-28
-29
-30
-31
-31
-31
-31
-31
-31
-32
-33
-32
-31
-32
-33
-33
-33
-32
-31
-30
-29
-30
-31
-31
-31
-30
-29
-29
-29
-29
-29
-29
-29
-28
-27
-27
-27
-27
-27
-27
-27
-28
-29
-28
-27
-28
-29
-29
-29
-29
-29
-29
-30
-31
-30
-29
-29
-29
-30
-31
-31
-31
-32
-33
-32
-31
-31
-31
-31
-31
-30
-29
-30
-31
-31
-31
-30
-29
-28
-26
-24
-23
-22
-21
-20
-19
-18
-16
-14
-13
-11
-10
-9
-11
-13
-13
-13
-17
-21
-22
-23
-26
-29
-30
-31
-31
-31
-31
-31
-32
-33
-33
-33
-32
-31
-32
-33
-33
-33
-33
-33
-32
-31
-31
-31
-31
-31
-32
-33
-34
-11
-35
65
115
162
203
175
142
77
12
-47
-89
-69
-51
-36
-25
-23
-21
-23
-25
-26
-27
-26
-25
-25
-25
-25
-25
-24
-23
-23
-23
-22
-21
-20
-19
-19
-19
-18
-17
-17
-17
-16
-13
-11
-10
-9
-8
-7
-6
-5
-4
-3
-1
1
2
3
5
7
9
12
15
17
19
21
22
24
26
28
30
31
32
33
33
33
32
30
28
24
20
14
8
3
-2
-6
-11
-16
-21
-23
-25
-27
-29
-29
-29
-30
-31
-32
-33
-33
-33
-33
-33
-34
-35
-34
-33
-32
-31
-31
-31
-31
-31
-31
-31
-31
-31
-30
-29
-29
-29
-29
-29
-28
-27
-27
-27
-27
-27
-27
-27
-27
-27
-27
-27
-27
-28
-29
-28
-27
-27
-27
-28
-29
-29
-29
-29
-29
-28
-27
-27
-27
-28
-29
-28
-27
-27
-27
-27
-27
-26
-25
-26
-27
-27
-27
-27
-27
-27
-25
-23
-21
-19
-18
-17
-16
-15
-15
-15
-13
-11
-9
-7
-6
-5
-5
-5
-5
-6
-9
-12
-15
-18
-20
-21
-22
-23
-24
-25
-26
-27
-27
-27
-27
-27
-26
-25
-26
-27
-27
-27
-25
-26
-27
-26
-25
-25
-25
-24
-24
-29
-30
-18
1
37
81
139
182
200
183
117
52
-14
-52
-65
-58
-36
-24
-18
-15
-16
-17
-18
-19
-20
-21
-20
-19
-18
-17
-17
-17
-17
-15
-15
-15
-15
-14
-13
-13
-13
-11
-9
-9
-9
-7
-5
-4
-3
-2
-1
0
1
4
5
4
4
6
8
10
12
14
17
20
21
22
24
26
28
30
31
31
33
36
38
39
40
41
39
37
34
31
25
21
17
12
7
2
-3
-8
-11
-13
-14
-15
-17
-20
-22
-23
-23
-23
-24
-25
-25
-25
-25
-25
-25
-25
-24
-23
-23
-23
-23
-23
-23
-23
-21
-21
-21
-21
-21
-21
-21
-20
-19
-19
-19
-19
-19
-19
-19
-19
-19
-20
-21
-21
-21
-21
-21
-21
-21
-21
-21
-22
-23
-23
-23
-22
-21
-22
-23
-23
-23
-23
-23
-23
-23
-23
-23
-23
-23
-23
-23
-23
-23
-23
-23
-23
-23
-23
-21
-19
-18
-17
-15
-13
-13
-13
-10
-9
-9
-8
-6
-4
-2
-1
-1
-1
-1
-3
-6
-9
-12
-14
-16
-18
-20
-21
-22
-23
-23
-23
-23
-23
-23
-23
-23
-24
-25
-24
-23
-24
-25
-25
-25
-23
-21
-21
-21
-21
-22
-24
-25
-25
-12
12
52
101
150
199
192
162
104
39
-15
-66
-67
-60
-41
-20
-16
-11
-13
-15
-16
-17
-16
-15
-15
-15
-15
-15
-14
-13
-13
-13
-12
-11
-11
-11
-11
-11
-10
-9
-8
-7
-6
-5
-4
-3
-2
-1
0
1
2
3
3
4
6
9
12
13
13
16
19
20
21
24
27
28
29
30
31
34
37
38
39
40
41
40
39
37
34
31
26
20
15
9
6
3
-1
-5
-9
-12
-14
-16
-17
-18
-19
-20
-21
-22
-23
-24
-24
-23
-23
-23
-22
-21
-22
-23
-22
-21
-21
-21
-21
-21
-21
-21
-20
-19
-18
-17
-17
-17
-17
-17
-17
-17
-17
-17
-18
-19
-19
-19
-19
-19
-18
-17
-17
-17
-18
-19
-20
-21
-19
-21
-23
-22
-21
-21
-21
-20
-19
-19
-19
-20
-21
-20
-19
-20
-21
-21
-21
-21
-21
-20
-18
-16
-15
-14
-13
-12
-11
-10
-9
-8
-7
-7
-5
-2
-1
0
1
1
1
1
-4
-7
-9
-11
-14
-17
-18
-19
-21
-23
-22
-21
-21
-21
-21
-21
-21
-21
-22
-23
-22
-21
-22
-23
-23
-23
-22
-20
-18
-17
-18
-22
-27
-15
4
45
90
139
189
183
172
107
42
-22
-80
-67
-53
-34
-17
-13
-9
-10
-11
-13
-15
-15
-15
-14
-13
-12
-11
-11
-11
-11
-11
-11
-10
-8
-7
-8
-9
-8
-7
-6
-5
-4
-3
-2
-1
-1
0
2
3
5
4
3
6
9
11
13
15
17
19
21
22
23
25
27
29
31
31
31
32
34
37
39
39
39
39
37
33
29
26
23
18
13
7
3
0
-3
-6
-9
-12
-13
-13
-17
-19
-19
-19
-19
-19
-21
-23
-23
-23
-22
-21
-21
-21
-21
-21
-20
-19
-19
-19
-18
-17
-18
-19
-18
-17
-17
-17
-17
-17
-17
-17
-17
-17
-16
-15
-15
-15
-16
-17
-18
-18
-17
-17
-17
-18
-19
-18
-17
-18
-19
-19
-19
-19
-19
-20
-21
-21
-21
-20
-19
-19
-19
-19
-19
-19
-19
-19
-19
-19
-18
-16
-14
-12
-11
-10
-9
-8
-7
-7
-5
-2
0
3
2
1
1
1
-2
-5
-7
-9
-11
-13
-15
-17
-18
-19
-19
-19
-20
-21
-20
-19
-19
-19
-19
-19
-18
-18
-20
-21
-20
-19
-18
-17
-18
-19
-18
-20
-24
-21
-16
13
-15
94
144
180
209
156
102
37
-23
-55
-76
-52
-31
-17
-7
-7
-7
-9
-11
-12
-13
-10
-10
-12
-12
-10
-9
-9
-9
-9
-8
-6
-5
-5
-5
-5
-5
-4
-3
-3
-3
-2
1
3
3
3
4
5
7
9
9
9
11
13
14
15
17
19
21
23
25
27
29
32
34
35
36
37
38
39
40
41
41
41
40
39
38
34
30
26
22
16
10
7
3
0
-3
-8
-13
-14
-15
-16
-17
-18
-19
-19
-19
-20
-21
-20
-19
-19
-19
-20
-21
-20
-19
-18
-17
-17
-17
-16
-15
-15
-15
-15
-15
-15
-15
-16
-17
-16
-15
-14
-13
-13
-13
-13
-13
-13
-13
-13
-14
-15
-16
-17
-17
-17
-17
-17
-16
-15
-15
-15
-16
-17
-17
-17
-17
-17
-18
-19
-18
-17
-18
-19
-18
-17
-17
-17
-16
-15
-14
-12
-10
-9
-9
-8
-7
-6
-5
-3
-1
2
5
4
3
2
1
-1
-4
-8
-11
-12
-13
-15
-17
-18
-19
-19
-19
-20
-21
-21
-21
-21
-21
-22
-23
-22
-21
-21
-21
-21
-21
-20
-19
-19
-19
-19
-25
-31
-17
-1
37
77
134
183
204
205
140
74
9
-42
-62
-67
-44
-27
-18
-13
-12
-12
-14
-15
-15
-15
-14
-13
-14
-15
-15
-15
-14
-13
-14
-15
-14
-13
-12
-11
-11
-8
-7
-7
-7
-5
-3
-3
-3
-1
1
2
3
5
7
8
9
11
13
14
16
19
21
21
22
25
28
31
33
34
36
38
39
40
41
40
39
39
37
34
30
26
21
17
12
7
2
-3
-7
-11
-14
-17
-19
-21
-23
-25
-26
-27
-27
-27
-26
-25
-25
-25
-26
-27
-26
-25
-26
-27
-26
-25
-26
-27
-26
-25
-24
-23
-24
-25
-24
-23
-23
-23
-21
-23
-25
-24
-23
-23
-23
-22
-21
-21
-21
-22
-23
-23
-23
-23
-23
-25
-27
-26
-25
-25
-25
-25
-25
-25
-25
-26
-27
-26
-25
-25
-25
-26
-27
-27
-27
-26
-25
-24
-22
-23
-18
-17
-16
-15
-14
-13
-14
-15
-13
-11
-6
-3
-3
-3
-5
-7
-8
-10
-14
-17
-18
-20
-22
-24
-26
-27
-27
-27
-27
-27
-27
-27
-28
-29
-29
-29
-28
-27
-28
-29
-29
-29
-29
-28
-27
-26
-25
-26
-27
-31
-32
-16
7
48
93
146
185
199
181
115
50
-16
-55
-67
-62
-40
-27
-20
-17
-17
-19
-22
-23
-23
-23
-22
-21
-21
-20
-18
-17
-18
-19
-17
-17
-17
-17
-17
-15
-13
-13
-13
-12
-11
-9
-7
-7
-7
-6
-5
-4
-3
-2
-1
2
4
6
7
8
10
12
14
16
19
22
24
26
27
27
29
32
33
34
35
35
36
35
33
31
27
23
16
11
5
1
-2
-6
-10
-14
-17
-19
-21
-23
-25
-27
-27
-27
-28
-29
-29
-29
-29
-29
-28
-27
-27
-27
-28
-29
-28
-27
-27
-27
-28
-29
-28
-26
-25
-24
-23
-23
-23
-23
-23
-24
-25
-24
-23
-24
-25
-24
-23
-23
-23
-23
-23
-24
-25
-25
-25
-25
-25
-25
-25
-26
-27
-27
-27
-26
-25
-25
-25
-26
-27
-26
-25
-26
-27
-25
-26
-27
-27
-27
-26
-25
-23
-21
-19
-17
-17
-17
-16
-15
-14
-13
-12
-10
-7
-5
-4
-4
-6
-7
-7
-9
-13
-16
-18
-20
-22
-23
-24
-26
-28
-29
-28
-27
-27
-27
-27
-28
-29
-29
-29
-28
-27
-28
-29
-29
-29
-28
-27
-26
-25
-25
-27
-33
-32
-19
6
43
90
147
182
198
166
100
34
-31
-58
-68
-55
-34
-24
-17
-15
-16
-18
-20
-21
-22
-22
-21
-20
-19
-19
-19
-18
-17
-17
-17
-16
-15
-15
-15
-15
-15
-14
-13
-12
-11
-9
-7
-7
-7
-6
-5
-4
-3
-2
-1
0
2
4
6
8
10
12
13
14
17
20
22
25
25
25
27
29
30
31
32
33
34
35
32
28
24
20
16
11
5
0
-3
-6
-11
-14
-16
-18
-20
-22
-24
-25
-26
-27
-27
-28
-30
-31
-30
-29
-28
-27
-27
-27
-27
-27
-27
-27
-27
-26
-25
-26
-27
-27
-27
-26
-25
-24
-23
-23
-23
-23
-23
-24
-25
-24
-24
-26
-27
-26
-25
-25
-25
-24
-23
-23
-24
-26
-27
-27
-27
-26
-26
-28
-29
-28
-27
-27
-27
-27
-27
-27
-27
-27
-27
-27
-27
-27
-26
-25
-23
-21
-19
-17
-16
-15
-15
-15
-14
-12
-10
-8
-6
-5
-6
-7
-8
-10
-12
-15
-18
-19
-20
-22
-24
-26
-28
-29
-27
-29
-31
-31
-31
-30
-29
-29
-29
-29
-29
-29
-29
-29
-29
-28
-27
-28
-29
-29
-30
-35
-32
-20
4
38
84
137
169
190
152
88
23
-42
-69
-86
-68
-44
-30
-18
-17
-17
-19
-21
-22
-23
-22
-21
-23
-25
-23
-21
-21
-21
-20
-19
-18
-17
-17
-17
-17
-17
-16
-15
-15
-15
-14
-13
-12
-10
-8
-7
-6
-5
-5
-4
-2
-1
0
1
2
4
6
9
11
13
15
17
19
20
21
22
23
25
27
27
27
27
27
27
27
25
22
18
13
8
3
-1
-6
-11
-14
-18
-21
-24
-26
-28
-29
-29
-29
-29
-29
-30
-31
-31
-31
-31
-31
-31
-32
-33
-32
-31
-30
-29
-30
-31
-29
-27
-28
-29
-28
-27
-27
-27
-28
-29
-29
-29
-28
-27
-27
-27
-26
-26
-28
-29
-29
-29
-28
-28
-30
-31
-30
-29
-29
-29
-29
-29
-29
-30
-31
-31
-31
-30
-29
-31
-33
-32
-31
-31
-31
-31
-31
-29
-27
-26
-25
-22
-21
-20
-19
-19
-18
-16
-14
-12
-11
-10
-9
-10
-11
-12
-16
-20
-23
-26
-28
-30
-31
-31
-32
-33
-33
-33
-33
-33
-33
-33
-33
-33
-34
-35
-35
-35
-35
-35
-34
-33
-32
-31
-31
-32
-34
-36
-38
-26
-4
36
85
133
180
175
153
95
30
-31
-92
-83
-68
-48
-27
-25
-23
-24
-25
-25
-25
-25
-25
-24
-23
-23
-23
-23
-23
-22
-21
-21
-21
-21
-21
-20
-18
-16
-15
-15
-15
-15
-15
-14
-12
-10
-9
-9
-8
-6
-5
-4
-2
0
2
1
6
7
9
11
13
15
16
17
19
21
23
25
27
29
29
29
29
29
29
29
26
23
18
13
9
4
-1
-5
-9
-13
-16
-19
-22
-24
-26
-27
-27
-28
-30
-31
-31
-31
-31
-31
-31
-31
-31
-30
-29
-29
-29
-29
-29
-29
-29
-29
-29
-28
-27
-26
-25
-25
-25
-25
-25
-26
-27
-26
-25
-25
-25
-25
-25
-24
-23
-23
-23
-24
-25
-25
-25
-25
-25
-25
-26
-27
-27
-27
-27
-27
-27
-27
-26
-25
-25
-25
-26
-27
-26
-25
-27
-29
-27
-25
-22
-20
-18
-17
-16
-15
-15
-15
-15
-14
-12
-10
-8
-7
-6
-5
-5
-5
-5
-7
-5
-14
-17
-19
-21
-22
-23
-25
-27
-27
-27
-27
-27
-26
-25
-26
-27
-27
-27
-27
-27
-27
-27
-28
-29
-28
-27
-26
-25
-24
-25
-29
-29
-26
-5
21
66
115
164
213
186
152
87
22
-36
-88
-69
-49
-33
-19
-17
-15
-17
-19
-19
-19
-20
-21
-20
-19
-19
-19
-18
-17
-16
-15
-16
-16
-14
-13
-12
-11
-12
-12
-10
-9
-8
-7
-6
-5
-4
-3
-3
-2
1
3
5
5
5
7
9
11
13
15
17
20
23
25
27
29
31
33
35
35
35
38
39
40
41
40
38
35
31
27
21
15
10
6
1
-6
-8
-10
-13
-16
-18
-17
-22
-23
-24
-25
-25
-25
-26
-27
-28
-29
-28
-27
-26
-25
-25
-25
-25
-25
-25
-25
-24
-23
-24
-25
-24
-23
-22
-21
-20
-19
-19
-19
-19
-19
-19
-18
-16
-15
-15
-12
-8
-2
3
14
27
55
83
102
121
137
151
165
177
187
203
229
251
262
264
251
232
208
183
159
145
141
115
74
35
-4
-30
-49
-57
-60
-61
-60
-59
-59
-59
-60
-61
-61
-60
-57
-57
-57
-58
-59
-59
-59
-61
-63
-67
-71
-74
-77
-80
-83
-85
-87
-89
-92
-95
-97
-98
-100
-103
-106
-108
-110
-113
-117
-120
-122
-124
-125
-126
-127
-126
-124
-122
-117
-112
-107
-111
-94
-87
-81
-75
-68
-61
-54
-49
-46
-43
-38
-35
-32
-29
-28
-27
-26
-25
-26
-27
-28
-29
-28
-27
-28
-29
-29
-29
-29
-29
-28
-27
-26
-25
-26
-27
-26
-25
-24
-23
-24
-24
-23
-23
-23
-22
-21
-20
-19
-20
-21
-21
-21
-21
-21
-22
-23
-22
-21
-20
-19
-20
-21
-20
-19
-20
-21
-21
-21
-20
-19
-20
-21
-21
-21
-20
-19
-20
-21
-20
-19
-19
-19
-19
-19
-19
-20
-21
-20
-19
-19
-19
-19
-19
-19
-19
-19
-19
-18
-17
-18
-19
-19
-19
-18
-17
-17
-17
-17
-17
-17
-17
-17
-17
-16
-16
-18
-19
-18
-17
-17
-17
-16
-15
-15
-15
-15
-15
-15
-15
-15
-14
-13
-15
-17
-16
-15
-14
-13
-14
-15
-14
-13
-14
-15
-14
-13
-14
-15
-16
-17
-16
-15
-14
-13
-14
-15
-15
-15
-14
-13
-13
-13
-13
-13
-14
-13
-11
-12
-13
-11
-9
-8
-7
-6
-5
-3
-1
-3
-5
-1
2
5
7
8
9
10
10
8
6
3
0
-3
-7
-11
-13
-13
-13
-13
-13
-14
-15
-15
-15
-16
-17
-17
-17
-15
-17
-19
-18
-17
-16
-15
-15
-15
-19
-20
-4
18
57
101
155
192
200
177
111
46
-20
-54
-60
-51
-30
-17
-10
-7
-8
-9
-10
-11
-12
-13
-12
-11
-11
-11
-11
-11
-11
-9
-9
-8
-7
-6
-5
-6
-7
-6
-5
-4
-3
-2
-1
0
1
2
3
4
5
5
5
5
6
9
12
14
15
16
18
20
21
22
23
24
26
28
29
29
30
32
34
35
36
37
37
37
35
33
31
29
26
22
18
15
11
8
5
2
-1
-3
-4
-6
-8
-9
-10
-11
-12
-13
-14
-15
-14
-13
-12
-11
-11
-11
-10
-9
-9
-9
-10
-11
-9
-10
-11
-10
-9
-9
-9
-7
-5
-6
-7
-7
-7
-8
-9
-8
-7
-8
-9
-9
-9
-10
-11
-10
-10
-12
-13
-12
-11
-12
-13
-13
-13
-13
-13
-14
-15
-14
-13
-14
-15
-15
-15
-15
-14
-13
-14
-15
-14
-13
-13
-13
-11
-9
-8
-7
-6
-5
-4
-3
-1
1
4
5
6
6
4
3
4
3
0
-2
-4
-7
-10
-12
-14
-15
-16
-17
-16
-16
-18
-18
-17
-17
-17
-18
-19
-18
-17
-17
-17
-16
-15
-15
-15
-15
-15
-17
-19
-19
-9
13
47
92
138
184
191
169
120
54
-7
-65
-69
-53
-33
-13
-7
-4
-4
-6
-7
-8
-9
-9
-8
-7
-7
-7
-7
-7
-6
-5
-5
-5
-3
-1
-2
-3
-2
-1
0
1
1
1
4
5
5
5
6
8
10
11
11
12
14
17
20
21
21
22
24
26
28
30
29
35
37
38
39
39
39
40
41
41
41
40
39
36
32
28
24
18
14
10
6
1
-3
-7
-10
-12
-13
-14
-15
-16
-17
-17
-17
-17
-17
-17
-17
-17
-17
-18
-19
-18
-17
-17
-16
-15
-15
-15
-15
-15
-15
-15
-14
-13
-14
-15
-15
-15
-14
-13
-13
-13
-13
-13
-13
-13
-13
-13
-13
-14
-16
-17
-16
-15
-15
-15
-15
-15
-15
-15
-16
-17
-17
-17
-15
-17
-19
-18
-17
-17
-17
-16
-15
-13
-11
-10
-9
-9
-9
-7
-5
-6
-6
-2
1
2
3
3
3
3
3
3
1
-3
-6
-8
-12
-16
-17
-17
-17
-17
-17
-18
-19
-19
-19
-19
-19
-19
-19
-19
-20
-21
-21
-21
-20
-19
-18
-17
-16
-16
-20
-23
-21
-7
21
60
109
154
196
190
151
94
29
-24
-72
-69
-46
-29
-14
-10
-8
-9
-12
-13
-13
-12
-11
-11
-11
-10
-9
-9
-9
-9
-9
-8
-7
-8
-9
-8
-7
-6
-5
-3
-1
-1
-1
0
1
1
2
4
5
5
6
8
9
10
12
14
16
18
20
22
24
26
27
29
31
33
34
35
37
39
40
41
41
41
40
39
36
32
27
21
16
11
6
2
-3
-6
-9
-12
-15
-18
-20
-21
-22
-23
-23
-23
-24
-25
-25
-25
-25
-25
-25
-25
-25
-24
-25
-24
-23
-22
-21
-22
-23
-23
-23
-22
-21
-21
-21
-20
-19
-20
-21
-21
-21
-20
-19
-19
-19
-20
-21
-21
-21
-21
-21
-21
-21
-21
-21
-22
-23
-23
-23
-23
-23
-24
-24
-23
-23
-23
-23
-23
-23
-23
-24
-25
-24
-23
-21
-19
-19
-19
-17
-15
-14
-13
-14
-13
-9
-7
-6
-5
-4
-3
-4
-5
-6
-10
-14
-16
-18
-21
-24
-25
-24
-24
-26
-27
-27
-27
-27
-28
-29
-29
-29
-28
-27
-27
-27
-27
-27
-27
-27
-26
-25
-25
-27
-33
-32
-19
6
41
91
150
187
211
175
110
44
-21
-52
-73
-59
-37
-26
-16
-15
-16
-17
-17
-20
-21
-21
-21
-20
-19
-20
-21
-19
-17
-17
-17
-16
-15
-14
-13
-13
-13
-13
-13
-10
-9
-10
-10
-8
-6
-4
-2
0
1
2
3
4
5
6
8
10
11
12
15
18
22
25
27
29
31
33
35
37
38
39
41
43
41
39
37
34
31
27
21
15
9
3
-2
-7
-11
-14
-17
-20
-24
-25
-26
-27
-28
-29
-29
-29
-29
-29
-29
-29
-29
-29
-27
-29
-31
-30
-29
-29
-29
-28
-27
-27
-27
-27
-27
-26
-25
-25
-25
-26
-27
-26
-25
-24
-23
-23
-23
-23
-23
-24
-25
-24
-23
-23
-24
-26
-27
-26
-25
-25
-25
-25
-25
-25
-26
-27
-27
-27
-27
-27
-28
-29
-28
-27
-26
-25
-23
-21
-20
-19
-19
-19
-17
-15
-14
-13
-13
-12
-10
-9
-8
-7
-7
-7
-8
-12
-17
-19
-20
-22
-24
-26
-28
-29
-29
-29
-29
-29
-29
-29
-29
-30
-31
-31
-31
-30
-29
-30
-31
-30
-29
-29
-29
-28
-28
-31
-32
-30
-15
10
52
104
151
196
188
154
97
32
-26
-81
-76
-58
-41
-25
-22
-20
-19
-21
-23
-25
-25
-25
-24
-23
-23
-23
-21
-19
-20
-21
-21
-21
-20
-19
-18
-17
-16
-15
-14
-13
-12
-11
-10
-9
-9
-9
-8
-6
-4
-3
-3
-2
0
2
4
6
8
10
9
15
17
19
21
23
25
27
29
30
31
33
35
36
37
36
34
31
27
22
17
12
7
2
-3
-9
-12
-15
-18
-20
-23
-26
-27
-28
-29
-30
-31
-31
-31
-32
-33
-33
-32
-31
-31
-31
-31
-31
-31
-31
-31
-31
-31
-31
-31
-31
-30
-29
-28
-27
-27
-27
-27
-27
-27
-27
-26
-25
-24
-23
-24
-25
-25
-23
-20
-18
-16
-11
-6
0
6
29
54
76
99
117
135
151
166
178
191
210
228
245
259
256
247
224
200
172
153
147
131
102
65
19
-16
-40
-53
-59
-60
-57
-56
-58
-59
-59
-59
-60
-65
-70
-72
-74
-78
-82
-84
-83
-88
-89
-90
-91
-92
-93
-95
-97
-98
-99
-101
-103
-105
-108
-111
-113
-115
-118
-121
-124
-127
-130
-133
-135
-136
-137
-136
-134
-132
-129
-125
-120
-116
-111
-104
-96
-87
-80
-74
-67
-60
-53
-47
-44
-41
-38
-35
-34
-33
-33
-33
-32
-31
-33
-35
-35
-35
-34
-33
-33
-33
-33
-33
-33
-33
-32
-31
-31
-31
-32
-33
-32
-31
-31
-30
-28
-27
-27
-27
-28
-29
-28
-27
-25
-27
-29
-29
-29
-28
-27
-26
-25
-24
-23
-25
-27
-26
-25
-25
-25
-26
-27
-27
-27
-27
-27
-26
-25
-25
-25
-25
-25
-26
-27
-26
-25
-25
-25
-26
-27
-27
-26
-24
-23
-23
-24
-23
-24
-25
-25
-25
-25
-25
-26
-27
-26
-25
-25
-25
-24
-23
-23
-23
-24
-25
-25
-25
-25
-25
-25
-25
-25
-25
-25
-25
-25
-25
-24
-23
-23
-23
-23
-23
-23
-23
-24
-24
-23
-23
-23
-23
-23
-22
-21
-22
-23
-22
-21
-21
-21
-22
-23
-22
-21
-21
-21
-21
-21
-21
-21
-21
-20
-18
-16
-14
-13
-14
-14
-12
-11
-10
-8
-6
-4
-2
-1
-1
-1
-1
-2
-3
-9
-15
-15
-15
-17
-19
-20
-21
-22
-23
-24
-25
-25
-25
-25
-25
-26
-27
-26
-25
-25
-25
-25
-24
-22
-22
-24
-27
-30
-19
-3
30
67
116
166
175
180
119
181
-12
-75
-75
-73
-49
-26
-19
-13
-15
-17
-19
-21
-20
-19
-18
-17
-18
-19
-18
-17
-16
-16
-18
-19
-18
-17
-16
-15
-14
-13
-13
-12
-10
-9
-8
-7
-7
-7
-7
-6
-4
-2
-1
1
3
4
5
6
7
9
11
12
13
14
15
17
19
21
23
24
25
27
29
28
27
27
27
27
25
21
18
16
14
12
8
4
0
-4
-7
-10
-13
-16
-17
-19
-20
-21
-23
-25
-25
-25
-24
-23
-23
-23
-22
-21
-21
-21
-21
-21
-21
-21
-21
-21
-20
-19
-19
-19
-18
-17
-17
-17
-18
-19
-18
-17
-18
-19
-18
-17
-18
-19
-19
-19
-19
-19
-19
-20
-21
-22
-23
-24
-25
-24
-23
-24
-25
-24
-23
-23
-23
-24
-25
-24
-23
-20
-19
-20
-20
-18
-17
-16
-14
-12
-11
-10
-8
-6
-5
-5
-5
-5
-5
-6
-9
-12
-14
-15
-18
-21
-22
-23
-24
-25
-25
-25
-25
-25
-27
-29
-28
-27
-26
-25
-25
-25
-25
-25
-25
-25
-25
-24
-22
-23
-27
-29
-30
-14
9
55
106
151
195
179
153
91
26
-32
-89
-75
-60
-39
-19
-15
-11
-13
-15
-15
-15
-16
-17
-17
-17
-16
-15
-15
-15
-15
-15
-14
-13
-12
-11
-10
-9
-9
-9
-8
-7
-6
-5
-4
-3
-3
-2
0
2
4
5
5
7
9
10
11
14
17
18
19
20
21
24
27
29
31
33
35
37
39
39
39
40
41
40
38
36
32
27
23
19
13
7
2
-2
-6
-10
-13
-16
-18
-20
-22
-24
-25
-25
-25
-25
-25
-25
-25
-25
-25
-25
-25
-25
-25
-25
-26
-27
-25
-23
-23
-23
-23
-23
-23
-23
-22
-21
-21
-21
-21
-21
-22
-23
-22
-21
-20
-19
-19
-19
-19
-19
-19
-19
-19
-20
-21
-21
-21
-21
-21
-21
-21
-21
-21
-21
-21
-21
-21
-21
-21
-21
-21
-21
-21
-18
-16
-14
-13
-12
-11
-10
-9
-9
-7
-4
-3
-2
-1
-2
-3
-2
-3
-6
-8
-7
-14
-17
-18
-19
-20
-21
-23
-25
-25
-25
-24
-23
-23
-23
-23
-23
-24
-25
-25
-25
-24
-23
-24
-25
-24
-24
-26
-27
-28
-13
11
53
101
151
203
193
172
111
46
-20
-85
-70
-53
-34
-17
-14
-11
-13
-15
-17
-19
-18
-17
-18
-19
-17
-15
-15
-15
-14
-13
-12
-11
-12
-13
-12
-11
-10
-9
-9
-8
-6
-5
-4
-2
0
1
1
1
2
3
4
6
9
10
11
13
15
17
19
22
25
27
29
31
33
34
36
39
41
41
41
43
45
44
42
40
37
31
26
20
14
9
4
-1
-6
-12
-15
-18
-19
-20
-21
-22
-23
-23
-24
-25
-26
-27
-26
-25
-26
-27
-27
-27
-26
-25
-25
-25
-25
-25
-25
-25
-25
-25
-25
-25
-24
-23
-23
-23
-23
-23
-22
-21
-21
-21
-20
-19
-20
-21
-22
-23
-22
-21
-22
-23
-23
-22
-21
-21
-21
-22
-23
-22
-21
-22
-23
-23
-23
-23
-23
-22
-21
-19
-17
-16
-15
-15
-15
-14
-13
-12
-11
-10
-8
-6
-5
-4
-3
-3
-3
-3
-7
-12
-15
-18
-19
-21
-23
-25
-25
-25
-25
-25
-25
-25
-25
-25
-26
-27
-27
-27
-26
-25
-27
-29
-27
-25
-24
-23
-23
-24
-26
-27
-27
-10
17
59
107
155
202
191
165
105
40
-20
-80
-69
-83
-36
-19
-16
-13
-14
-15
-17
-19
-19
-19
-18
-17
-16
-15
-15
-15
-15
-15
-14
-13
-12
-11
-11
-11
-10
-9
-8
-7
-6
-5
-4
-3
-2
-1
0
1
2
3
4
5
6
9
11
13
15
17
19
21
23
24
25
27
30
34
37
38
39
40
41
43
45
45
44
42
39
34
28
23
18
11
5
-3
-7
-10
-13
-16
-18
-20
-21
-21
-21
-22
-23
-25
-25
-25
-26
-27
-26
-25
-25
-25
-25
-25
-25
-25
-25
-25
-24
-23
-23
-23
-24
-25
-24
-23
-23
-23
-22
-21
-21
-21
-21
-21
-21
-21
-21
-21
-21
-21
-21
-21
-21
-21
-21
-22
-23
-23
-23
-22
-21
-22
-23
-23
-23
-23
-23
-23
-23
-22
-21
-21
-21
-19
-17
-14
-13
-14
-15
-14
-12
-10
-7
-4
-3
-2
-2
-4
-5
-4
-5
-8
-12
-16
-18
-20
-21
-21
-22
-23
-23
-23
-24
-25
-25
-25
-24
-23
-25
-27
-27
-27
-26
-25
-25
-25
-23
-21
-22
-23
-23
-25
-29
-23
-10
21
60
111
166
188
200
149
84
18
-47
-62
-72
-50
-25
-20
-15
-15
-15
-15
-15
-15
-15
-15
-15
-15
-15
-15
-15
-14
-13
-14
-15
-14
-13
-12
-11
-10
-8
-6
-5
-5
-5
-4
-3
-2
-1
-1
-1
0
2
4
6
8
10
9
13
13
15
17
20
23
24
25
27
29
32
35
36
37
39
41
42
43
43
43
40
37
33
29
23
18
13
8
3
-1
-4
-8
-12
-14
-16
-18
-20
-21
-22
-23
-23
-23
-23
-23
-23
-22
-21
-21
-21
-22
-23
-23
-23
-23
-23
-23
-23
-22
-21
-21
-21
-20
-19
-19
-19
-19
-19
-18
-17
-18
-19
-19
-19
-19
-19
-18
-17
-17
-17
-18
-19
-19
-19
-19
-19
-19
-19
-19
-19
-19
-19
-19
-19
-19
-20
-21
-20
-19
-18
-17
-16
-15
-14
-13
-12
-10
-8
-7
-6
-4
-2
-1
-2
-2
0
0
-2
-3
-3
-4
-6
-10
-14
-16
-15
-20
-21
-21
-21
-22
-23
-24
-25
-23
-21
-22
-23
-23
-23
-22
-21
-22
-23
-22
-21
-20
-20
-22
-25
-29
-23
-8
21
59
106
156
181
197
149
84
18
-47
-69
-85
-63
-36
-22
-9
-9
-9
-11
-13
-14
-15
-15
-15
-14
-13
-14
-15
-14
-13
-12
-11
-11
-11
-9
-7
-7
-7
-6
-5
-5
-5
-5
-4
-2
-1
0
1
2
3
4
6
8
9
10
12
15
16
17
20
23
25
27
29
31
33
35
37
39
39
39
41
43
43
42
39
36
33
29
25
20
14
8
3
-1
-5
-9
-12
-15
-18
-20
-22
-23
-23
-23
-23
-23
-23
-25
-25
-25
-25
-25
-25
-25
-25
-25
-25
-25
-25
-25
-25
-25
-25
-25
-25
-24
-23
-22
-22
-24
-24
-22
-21
-21
-21
-21
-21
-20
-19
-20
-21
-21
-21
-21
-22
-24
-25
-24
-23
-23
-23
-23
-22
-21
-22
-23
-23
-23
-23
-23
-25
-27
-25
-23
-22
-21
-19
-17
-16
-15
-14
-13
-13
-12
-10
-9
-8
-7
-6
-5
-5
-5
-5
-6
-8
-11
-14
-18
-22
-23
-23
-26
-29
-29
-29
-29
-29
-29
-29
-28
-27
-28
-29
-29
-29
-28
-27
-29
-31
-29
-27
-27
-27
-27
-29
-33
-25
-9
22
60
107
159
183
199
150
85
19
-46
-66
-82
-60
-83
-26
-17
-18
-19
-20
-21
-22
-23
-24
-25
-23
-21
-20
-19
-19
-19
-19
-19
-19
-19
-18
-17
-17
-17
-16
-14
-12
-11
-10
-9
-9
-8
-6
-5
-5
-4
-2
-1
0
2
4
7
9
11
13
15
17
19
21
24
27
29
31
33
35
37
39
40
41
40
38
35
31
26
20
12
6
1
-4
-9
-13
-17
-20
-22
-24
-26
-27
-28
-29
-30
-31
-32
-33
-33
-35
-37
-35
-33
-33
-33
-32
-31
-31
-31
-32
-33
-32
-31
-31
-31
-32
-33
-32
-31
-31
-31
-30
-29
-28
-27
-28
-29
-29
-29
-28
-28
-30
-31
-30
-29
-29
-29
-28
-27
-27
-28
-29
-29
-29
-29
-29
-30
-31
-31
-31
-31
-31
-30
-29
-29
-29
-29
-29
-29
-29
-28
-27
-27
-26
-24
-23
-22
-20
-18
-17
-17
-15
-12
-11
-10
-9
-9
-10
-12
-13
-13
-16
-19
-21
-23
-25
-27
-29
-31
-31
-31
-31
-31
-32
-33
-33
-33
-33
-33
-33
-33
-33
-33
-33
-33
-33
-33
-32
-31
-31
-32
-34
-35
-34
-15
8
53
102
152
201
189
172
108
42
-23
-85
-72
-59
-41
-25
-22
-19
-21
-23
-23
-23
-23
-23
-23
-23
-24
-25
-23
-21
-21
-21
-20
-19
-18
-17
-17
-17
-16
-14
-12
-11
-12
-13
-12
-10
-8
-7
-6
-4
-5
0
1
3
5
6
7
8
9
12
15
18
21
23
26
29
31
33
35
37
39
40
41
42
42
40
38
35
31
27
21
15
9
3
-3
-10
-13
-16
-18
-20
-23
-26
-27
-27
-29
-31
-31
-31
-31
-31
-31
-31
-31
-31
-31
-31
-31
-31
-30
-29
-29
-29
-29
-29
-28
-27
-28
-29
-29
-29
-28
-27
-28
-29
-28
-27
-26
-25
-25
-25
-25
-25
-26
-27
-25
-27
-29
-29
-29
-28
-27
-27
-27
-27
-27
-27
-27
-28
-29
-28
-27
-28
-29
-28
-27
-27
-27
-27
-27
-27
-27
-27
-27
-26
-24
-22
-21
-22
-22
-20
-19
-18
-16
-14
-11
-13
-7
-7
-7
-7
-7
-7
-10
-13
-15
-17
-20
-23
-24
-25
-26
-27
-28
-29
-29
-29
-29
-30
-32
-33
-32
-31
-30
-29
-30
-31
-30
-29
-29
-29
-29
-29
-28
-32
-38
-30
-20
13
46
99
151
183
205
149
92
27
-32
-67
-88
-66
-47
-33
-23
-22
-21
-21
-21
-22
-23
-23
-23
-23
-23
-23
-23
-23
-23
-23
-22
-20
-19
-18
-17
-17
-17
-16
-15
-15
-14
-11
-10
-9
-10
-11
-9
-7
-5
-3
-2
-1
1
3
4
5
7
9
11
13
14
16
21
24
26
28
30
32
34
35
36
37
38
37
34
31
28
22
16
11
6
1
5
-10
-15
-18
-21
-23
-25
-28
-31
-30
-29
-30
-31
-31
-31
-31
-31
-31
-31
-31
-31
-31
-31
-32
-33
-33
-33
-32
-31
-31
-30
-28
-27
-27
-27
-28
-29
-28
-27
-27
-27
-27
-25
-23
-21
-19
-17
-15
-10
-5
1
11
38
64
83
101
115
129
140
151
162
177
195
214
232
238
230
214
190
164
136
124
119
99
73
35
-7
-31
-52
-57
-60
-61
-61
-61
-63
-63
-63
-62
-61
-58
-55
-56
-57
-58
-59
-59
-59
-61
-64
-68
-73
-78
-81
-83
-85
-86
-88
-90
-92
-94
-96
-98
-101
-104
-105
-106
-110
-114
-115
-116
-117
-118
-118
-116
-113
-115
-106
-103
-98
-93
-86
-79
-72
-66
-60
-54
-49
-45
-42
-39
-37
-35
-33
-31
-32
-33
-34
-36
-38
-39
-38
-37
-38
-39
-39
-39
-38
-37
-38
-39
-39
-39
-38
-38
-40
-40
-38
-37
-37
-36
-35
-34
-33
-34
-35
-35
-35
-35
-35
-36
-37
-36
-35
-35
-35
-34
-33
-32
-32
-34
-35
-35
-34
-32
-32
-34
-35
-35
-35
-35
-35
-34
-33
-32
-31
-32
-33
-34
-35
-33
-34
-35
-34
-33
-33
-33
-32
-31
-31
-31
-31
-31
-32
-33
-32
-31
-32
-33
-33
-33
-33
-32
-30
-29
-30
-31
-31
-31
-32
-32
-30
-30
-32
-33
-32
-31
-30
-29
-29
-29
-29
-29
-29
-29
-29
-28
-27
-29
-31
-31
-31
-30
-29
-28
-27
-27
-27
-27
-27
-28
-29
-28
-27
-28
-29
-29
-29
-28
-27
-27
-27
-27
-27
-26
-25
-25
-25
-25
-25
-25
-25
-26
-26
-25
-25
-25
-25
-25
-24
-23
-22
-21
-19
-17
-16
-15
-15
-15
-14
-12
-8
-5
-5
-5
-4
-3
-4
-5
-6
-8
-10
-13
-17
-21
-24
-25
-24
-24
-26
-27
-27
-27
-27
-27
-27
-28
-29
-29
-29
-28
-27
-27
-27
-27
-27
-27
-28
-33
-31
-11
18
63
111
164
186
173
133
67
2
-64
-80
-65
-47
-29
-21
-18
-19
-22
-23
-23
-23
-23
-23
-22
-21
-21
-21
-21
-20
-19
-18
-17
-18
-19
-18
-17
-16
-15
-13
-11
-10
-9
-9
-9
-8
-7
-6
-5
-5
-4
-2
0
2
3
4
6
8
10
12
13
14
16
18
19
20
22
24
27
29
31
33
34
35
35
35
34
33
32
30
25
20
16
13
11
7
2
-2
-6
-10
-12
-14
-17
-19
-20
-21
-22
-23
-24
-25
-25
-25
-24
-23
-23
-23
-22
-21
-22
-23
-21
-21
-21
-22
-23
-22
-21
-20
-19
-19
-19
-18
-17
-17
-17
-17
-17
-17
-17
-18
-19
-19
-19
-18
-17
-18
-19
-19
-19
-20
-21
-21
-21
-21
-22
-24
-25
-24
-23
-23
-23
-23
-22
-21
-22
-23
-23
-23
-23
-23
-24
-25
-23
-21
-20
-19
-18
-17
-15
-13
-13
-13
-12
-10
-8
-7
-6
-4
-2
-1
-2
-3
-3
-5
-8
-11
-14
-17
-20
-21
-22
-23
-24
-25
-25
-24
-23
-24
-25
-25
-25
-25
-25
-25
-25
-25
-25
-25
-25
-24
-23
-22
-23
-28
-27
-19
4
38
87
144
182
208
172
107
41
-24
-52
-70
-54
-30
-21
-14
-13
-14
-15
-17
-18
-19
-18
-17
-16
-15
-14
-13
-13
-13
-13
-13
-12
-11
-11
-11
-11
-11
-9
-7
-6
-5
-4
-3
-2
-1
0
1
2
3
4
5
4
5
8
10
12
15
18
20
19
25
27
29
31
33
35
35
35
37
39
40
41
41
41
39
36
32
27
22
17
10
4
-2
-6
-9
-12
-15
-18
-20
-21
-22
-24
-26
-27
-27
-27
-27
-27
-28
-29
-28
-27
-27
-27
-27
-27
-27
-27
-27
-27
-27
-26
-25
-25
-25
-25
-25
-24
-23
-23
-23
-23
-23
-23
-23
-22
-21
-21
-21
-22
-23
-23
-23
-23
-23
-23
-23
-23
-23
-24
-25
-25
-25
-25
-26
-27
-26
-25
-25
-25
-24
-23
-24
-25
-25
-25
-25
-24
-21
-19
-20
-21
-19
-17
-16
-15
-14
-12
-10
-8
-6
-5
-4
-3
-3
-4
-6
-8
-10
-12
-14
-18
-22
-23
-23
-24
-25
-27
-29
-27
-25
-27
-29
-28
-27
-27
-27
-26
-25
-25
-25
-25
-25
-26
-27
-26
-26
-28
-30
-33
-26
-9
23
63
110
160
184
199
151
86
20
-45
-64
-78
-57
-34
-24
-15
-15
-15
-17
-19
-19
-19
-19
-19
-19
-19
-17
-15
-17
-19
-17
-15
-14
-13
-13
-13
-12
-11
-11
-11
-11
-10
-6
-5
-6
-6
-4
-3
-2
0
2
3
4
5
6
8
11
13
15
16
17
20
23
25
27
28
29
32
35
36
37
38
39
38
37
36
35
34
31
27
23
19
14
9
3
-3
-7
-10
-13
-16
-19
-22
-23
-24
-25
-25
-25
-25
-26
-27
-26
-25
-25
-25
-25
-25
-26
-27
-27
-27
-26
-25
-25
-25
-24
-23
-23
-23
-23
-23
-22
-21
-22
-23
-22
-21
-21
-21
-21
-21
-21
-21
-21
-21
-22
-23
-22
-21
-22
-23
-23
-23
-23
-23
-23
-23
-23
-24
-25
-24
-23
-24
-25
-25
-25
-23
-21
-20
-19
-18
-17
-16
-15
-15
-14
-12
-10
-6
-5
-5
-5
-5
-5
-4
-4
-6
-9
-12
-16
-20
-21
-23
-25
-27
-27
-27
-26
-25
-25
-25
-25
-25
-26
-27
-27
-27
-26
-25
-27
-29
-27
-25
-24
-23
-24
-27
-31
-21
0
38
85
134
183
183
167
110
45
-21
-86
-79
-62
-41
-61
-16
-13
-15
-17
-17
-17
-18
-19
-19
-19
-18
-17
-15
-13
-13
-13
-13
-13
-12
-11
-10
-9
-10
-11
-10
-8
-6
-5
-4
-3
-3
-2
0
1
1
2
4
5
6
8
10
13
15
18
21
22
23
24
25
27
29
31
33
33
33
35
37
37
37
38
39
37
33
29
25
20
14
9
4
-1
-5
-8
-11
-14
-16
-18
-19
-20
-21
-22
-23
-23
-23
-23
-23
-23
-23
-23
-22
-21
-22
-23
-23
-23
-22
-21
-21
-21
-21
-21
-20
-19
-20
-21
-21
-21
-20
-19
-18
-17
-17
-17
-18
-19
-18
-17
-18
-19
-20
-21
-20
-19
-19
-19
-19
-19
-19
-20
-21
-21
-21
-21
-21
-21
-21
-21
-21
-20
-19
-20
-21
-19
-17
-16
-15
-14
-12
-10
-9
-10
-10
-8
-5
-2
-1
0
1
1
1
1
-1
-4
-5
-6
-11
-16
-18
-19
-20
-21
-22
-23
-23
-23
-22
-21
-22
-23
-22
-21
-22
-23
-23
-23
-22
-21
-21
-21
-20
-19
-20
-22
-25
-13
9
51
101
148
194
185
160
101
36
-24
-82
-71
-52
-32
-11
-9
-7
-9
-11
-11
-11
-11
-11
-11
-11
-11
-11
-10
-9
-8
-7
-7
-7
-7
-7
-6
-5
-4
-3
-2
-1
-1
-1
0
2
4
5
5
5
6
8
10
12
14
15
15
19
21
23
25
27
29
31
33
34
35
38
41
42
43
44
45
45
45
44
42
39
35
31
26
20
15
11
7
3
-1
-5
-9
-12
-14
-16
-17
-18
-19
-20
-21
-21
-20
-19
-19
-19
-19
-19
-19
-19
-19
-19
-18
-17
-18
-19
-19
-19
-18
-17
-16
-15
-15
-15
-15
-15
-15
-15
-15
-15
-16
-17
-16
-15
-15
-15
-14
-13
-13
-14
-16
-17
-17
-17
-15
-17
-19
-19
-19
-19
-19
-18
-17
-18
-19
-18
-17
-18
-19
-18
-17
-18
-19
-18
-16
-13
-11
-11
-11
-10
-9
-8
-7
-6
-3
0
1
2
1
-2
-2
0
-1
-4
-6
-5
-12
-15
-17
-19
-20
-21
-22
-23
-24
-25
-24
-23
-23
-23
-23
-23
-23
-23
-24
-25
-24
-23
-23
-23
-23
-24
-26
-27
-27
-9
18
61
111
160
209
188
153
91
26
-31
-88
-67
-45
-30
-15
-14
-13
-15
-17
-17
-17
-17
-17
-18
-19
-18
-17
-16
-15
-15
-15
-14
-13
-13
-13
-12
-11
-11
-11
-11
-11
-10
-8
-6
-5
-4
-3
-2
-1
0
1
2
4
7
8
9
11
13
15
17
19
21
23
25
27
29
32
35
36
37
39
41
40
39
40
40
37
33
27
22
17
11
5
0
-5
-9
-12
-15
-18
-20
-22
-23
-24
-25
-25
-27
-27
-28
-29
-29
-29
-29
-29
-30
-31
-30
-29
-28
-27
-28
-29
-28
-27
-27
-27
-26
-25
-24
-24
-26
-26
-24
-23
-23
-23
-23
-23
-22
-20
-18
-17
-16
-9
-2
5
12
42
71
92
112
128
144
157
171
185
202
229
250
258
258
241
218
186
162
147
136
129
101
52
9
-28
-50
-62
-67
-67
-67
-67
-67
-67
-67
-67
-66
-64
-63
-62
-61
-61
-61
-63
-64
-65
-68
-71
-73
-75
-80
-85
-87
-89
-92
-95
-97
-99
-101
-104
-108
-112
-116
-119
-120
-122
-124
-126
-129
-131
-132
-133
-132
-129
-126
-122
-118
-113
-108
-101
-94
-86
-78
-71
-77
-58
-53
-49
-45
-42
-39
-37
-35
-35
-35
-33
-31
-31
-31
-32
-33
-33
-33
-33
-33
-33
-33
-33
-33
-33
-33
-32
-31
-30
-29
-30
-30
-28
-27
-28
-29
-28
-27
-27
-27
-28
-28
-27
-26
-25
-25
-25
-25
-25
-25
-25
-25
-25
-25
-25
-26
-27
-26
-25
-25
-25
-25
-25
-24
-23
-24
-25
-25
-25
-24
-23
-24
-25
-25
-25
-24
-23
-23
-23
-23
-23
-24
-25
-23
-23
-23
-24
-25
-24
-23
-23
-23
-22
-21
-21
-21
-22
-23
-22
-21
-21
-21
-22
-23
-22
-21
-21
-21
-21
-21
-21
-21
-21
-21
-20
-19
-20
-21
-21
-21
-20
-19
-19
-19
-19
-20
-19
-20
-21
-20
-19
-20
-21
-21
-21
-20
-19
-19
-19
-18
-17
-18
-19
-19
-19
-19
-19
-19
-19
-19
-19
-19
-19
-19
-19
-18
-17
-17
-17
-18
-19
-18
-17
-17
-16
-14
-12
-11
-10
-9
-7
-5
-5
-5
-2
1
3
5
3
1
2
3
2
1
-1
-4
-7
-11
-15
-17
-17
-17
-18
-20
-22
-23
-22
-21
-21
-21
-21
-21
-21
-21
-21
-21
-21
-21
-19
-22
-25
-27
-27
-6
19
62
106
152
185
177
152
87
23
-38
-73
-68
-56
-35
-21
-14
-11
-12
-13
-14
-15
-16
-17
-17
-17
-16
-15
-16
-17
-17
-17
-16
-15
-14
-13
-13
-11
-11
-10
-9
-8
-7
-7
-7
-6
-5
-4
-3
-2
-1
0
1
2
3
4
5
8
9
9
10
13
15
16
18
20
21
22
23
24
25
24
24
26
27
26
25
26
26
25
22
19
17
15
10
5
2
-1
-4
-7
-10
-13
-14
-15
-16
-17
-18
-19
-19
-19
-20
-21
-20
-19
-19
-19
-20
-21
-20
-19
-18
-17
-16
-15
-15
-15
-15
-15
-16
-17
-15
-17
-19
-18
-17
-17
-17
-16
-15
-16
-17
-18
-19
-19
-19
-19
-19
-21
-23
-23
-23
-23
-23
-23
-23
-22
-21
-22
-23
-24
-25
-24
-23
-24
-25
-24
-23
-24
-25
-24
-23
-23
-20
-19
-18
-17
-16
-15
-16
-17
-15
-13
-10
-7
-5
-3
-3
-3
-4
-5
-5
-5
-8
-10
-13
-17
-21
-23
-24
-25
-26
-27
-27
-27
-27
-27
-27
-27
-27
-27
-28
-29
-28
-27
-27
-27
-27
-27
-27
-26
-25
-26
-27
-31
-31
-16
7
47
91
142
175
180
154
88
24
-40
-72
-78
-67
-42
-28
-18
-16
-18
-19
-19
-19
-20
-21
-21
-21
-20
-19
-19
-19
-17
-17
-17
-17
-17
-16
-15
-14
-13
-13
-13
-12
-11
-10
-9
-8
-7
-6
-5
-5
-5
-2
-1
0
2
4
6
8
9
10
11
12
15
18
19
18
18
20
22
24
25
25
28
29
28
27
25
23
21
18
12
7
2
-1
-4
-8
-12
-15
-17
-20
-23
-25
-28
-29
-29
-30
-32
-33
-32
-31
-31
-31
-31
-31
-30
-29
-30
-31
-31
-31
-31
-31
-31
-30
-29
-29
-29
-28
-27
-27
-27
-27
-27
-28
-29
-28
-27
-28
-29
-28
-27
-28
-29
-29
-29
-28
-28
-30
-31
-30
-29
-29
-29
-30
-31
-31
-31
-31
-31
-31
-31
-30
-29
-30
-31
-31
-31
-31
-32
-33
-32
-31
-30
-29
-28
-27
-25
-23
-23
-23
-22
-21
-20
-19
-18
-16
-13
-11
-10
-9
-10
-10
-8
-9
-13
-16
-18
-22
-26
-28
-30
-31
-31
-31
-31
-31
-31
-32
-31
-32
-33
-33
-33
-33
-33
-34
-35
-34
-33
-32
-31
-31
-31
-31
-32
-36
-30
-11
23
71
121
173
184
167
118
53
-12
-76
-80
-63
-45
-26
-22
-20
-21
-24
-25
-26
-26
-25
-24
-23
-23
-23
-23
-23
-23
-23
-21
-19
-20
-21
-20
-19
-18
-17
-15
-13
-12
-11
-10
-9
-9
-8
-6
-5
-5
-5
-4
-1
2
4
6
8
10
11
12
14
16
18
21
22
23
25
27
28
29
31
33
33
33
32
30
26
22
18
13
7
2
-2
-6
-9
-13
-17
-20
-22
-24
-26
-27
-28
-29
-29
-30
-32
-33
-32
-31
-31
-31
-31
-31
-31
-29
-29
-29
-29
-28
-27
-28
-29
-29
-29
-28
-27
-26
-25
-25
-25
-25
-25
-25
-25
-25
-25
-26
-27
-26
-25
-25
-25
-24
-23
-23
-24
-26
-27
-27
-27
-27
-27
-28
-29
-28
-27
-27
-27
-27
-27
-27
-27
-27
-27
-27
-27
-27
-28
-29
-28
-27
-27
-27
-26
-25
-24
-23
-22
-20
-18
-17
-16
-15
-16
-17
-16
-13
-10
-8
-6
-4
-2
-2
-4
-5
-5
-7
-11
-14
-17
-20
-23
-23
-23
-24
-25
-25
-25
-26
-27
-27
-27
-26
-25
-27
-29
-28
-27
-27
-27
-26
-25
-24
-23
-24
-25
-24
-26
-31
-26
-15
16
51
106
163
192
217
157
219
26
-38
-59
-77
-53
-30
-22
-15
-15
-15
-16
-17
-17
-17
-17
-17
-17
-17
-16
-15
-15
-15
-14
-13
-13
-13
-12
-11
-10
-9
-8
-7
-6
-5
-5
-4
-2
-1
0
1
1
2
3
6
9
10
11
12
13
15
17
19
21
22
23
25
28
31
33
35
37
38
39
39
39
39
38
36
34
30
26
21
16
11
6
2
-2
-6
-9
-12
-15
-18
-19
-19
-21
-23
-24
-25
-24
-23
-23
-23
-24
-25
-24
-23
-24
-25
-24
-23
-23
-23
-23
-23
-22
-21
-21
-21
-20
-19
-19
-19
-19
-19
-19
-19
-20
-21
-21
-21
-20
-19
-19
-19
-19
-19
-19
-19
-19
-19
-19
-19
-19
-21
-23
-22
-21
-21
-21
-21
-21
-21
-21
-21
-21
-21
-21
-22
-23
-23
-23
-23
-23
-22
-21
-22
-23
-22
-21
-21
-21
-21
-21
-21
-21
-21
-21
-21
-20
-19
-18
-17
-15
-13
-13
-13
-12
-11
-10
-9
-9
-8
-5
-2
1
3
3
3
2
0
-2
-5
-9
-12
-14
-16
-18
-19
-19
-19
-20
-21
-20
-19
-20
-21
-21
-21
-21
-22
-23
-22
-21
-21
-21
-20
-19
-19
-19
-19
-19
-22
-25
-23
-13
10
44
95
144
192
200
172
122
56
-4
-60
-66
-47
-30
-15
-11
-11
-11
-12
-13
-14
-15
-14
-13
-13
-12
-11
-11
-11
-11
-11
-11
-11
-10
-9
-8
-7
-6
-5
-4
-3
-2
-1
-1
-1
0
1
1
2
4
6
8
9
10
12
14
16
18
19
20
22
24
25
26
28
30
33
35
37
39
39
39
40
41
40
39
38
36
32
28
21
16
12
8
5
2
-2
-6
-9
-12
-14
-16
-18
-19
-19
-20
-22
-23
-22
-21
-21
-21
-21
-21
-21
-21
-21
-21
-19
-19
-19
-19
-19
-18
-17
-17
-17
-18
-19
-17
-15
-16
-17
-16
-15
-16
-17
-17
-17
-16
-15
-15
-15
-15
-15
-16
-17
-18
-19
-18
-17
-18
-19
-19
-19
-19
-19
-19
-19
-19
-18
-19
-19
-19
-19
-19
-20
-21
-20
-19
-19
-19
-19
-19
-18
-17
-15
-13
-12
-11
-8
-7
-8
-8
-6
-4
-1
1
2
3
3
3
3
2
0
-3
-6
-10
-14
-15
-16
-18
-19
-19
-19
-20
-21
-20
-19
-20
-21
-21
-21
-21
-21
-22
-23
-22
-21
-20
-19
-19
-19
-19
-19
-20
-21
-22
-11
8
45
91
139
188
191
181
125
60
-6
-71
-69
-60
-39
-17
-13
-9
-10
-11
-12
-13
-12
-11
-11
-11
-11
-11
-10
-9
-9
-9
-9
-9
-8
-7
-6
-5
-4
-3
-3
-3
-2
-1
0
1
2
3
3
3
4
6
8
10
12
13
13
17
19
21
23
25
27
28
29
30
31
34
37
38
39
40
41
41
41
40
39
38
35
30
25
21
16
11
7
3
-1
-4
-7
-10
-12
-14
-15
-16
-17
-18
-19
-19
-20
-21
-20
-19
-18
-17
-17
-17
-17
-17
-17
-17
-18
-19
-18
-17
-16
-15
-14
-13
-14
-15
-15
-15
-14
-13
-13
-13
-13
-13
-14
-15
-14
-13
-13
-13
-13
-13
-13
-13
-14
-15
-15
-16
-17
-17
-17
-17
-17
-16
-15
-15
-15
-15
-15
-16
-17
-16
-15
-17
-19
-18
-17
-16
-15
-15
-15
-15
-15
-15
-15
-15
-13
-10
-9
-10
-10
-8
-7
-6
-5
-4
-2
-3
3
5
5
5
5
5
5
5
1
-3
-3
-4
-8
-11
-12
-13
-14
-15
-16
-17
-16
-16
-18
-19
-18
-17
-17
-17
-16
-15
-15
-15
-16
-17
-17
-16
-14
-13
-13
-17
-22
-17
-11
19
51
102
151
190
215
168
117
52
-8
-51
-74
-51
-30
-15
-5
-4
-3
-5
-7
-7
-7
-7
-7
-7
-7
-6
-5
-6
-7
-6
-5
-5
-4
-2
-1
0
1
1
1
3
4
5
4
3
5
7
8
9
10
11
13
15
15
16
19
21
22
23
24
25
28
30
33
35
36
38
41
43
43
43
44
45
46
46
44
42
40
37
34
29
33
18
13
9
5
2
-1
-4
-7
-10
-13
-13
-13
-13
-13
-14
-15
-15
-15
-15
-15
-15
-15
-15
-15
-16
-17
-16
-15
-14
-13
-13
-13
-13
-13
-13
-13
-12
-11
-11
-11
-12
-12
-11
-10
-9
-10
-11
-11
-11
-11
-11
-11
-11
-12
-13
-14
-15
-15
-15
-14
-13
-14
-15
-15
-15
-15
-15
-15
-15
-16
-17
-17
-17
-16
-15
-15
-15
-15
-15
-16
-17
-16
-15
-15
-17
-19
-17
-15
-15
-15
-15
-15
-15
-15
-13
-11
-10
-9
-7
-5
-5
-5
-4
-3
-2
0
3
5
6
7
6
5
5
5
4
0
-4
-7
-10
-11
-12
-13
-14
-15
-15
-18
-19
-18
-17
-18
-19
-19
-19
-20
-21
-20
-19
-19
-19
-19
-19
-17
-15
-16
-17
-18
-20
-22
-13
7
42
87
140
197
203
186
132
67
1
-64
-65
-53
-35
-17
-13
-10
-10
-11
-12
-13
-13
-13
-12
-11
-11
-11
-11
-11
-10
-9
-10
-11
-10
-9
-7
-5
-5
-5
-4
-3
-2
-1
0
1
1
1
2
4
6
8
10
12
14
15
15
16
18
20
23
24
25
27
29
32
35
37
39
41
43
42
41
41
41
41
40
36
32
28
23
18
13
9
5
-1
-4
-7
-11
-14
-16
-18
-20
-22
-23
-23
-23
-23
-23
-23
-23
-23
-24
-25
-24
-23
-23
-23
-23
-23
-24
-25
-24
-23
-22
-21
-21
-21
-21
-21
-21
-21
-21
-21
-21
-21
-21
-21
-20
-19
-19
-19
-19
-19
-20
-21
-21
-21
-21
-21
-21
-21
-22
-22
-21
-22
-23
-24
-25
-24
-23
-24
-25
-24
-23
-23
-23
-25
-27
-26
-25
-24
-23
-23
-23
-24
-25
-24
-23
-23
-23
-23
-23
-24
-25
-24
-23
-22
-20
-18
-16
-14
-13
-13
-13
-13
-12
-11
-8
-5
-4
-3
-2
-1
-1
-1
-1
-2
-7
-12
-15
-17
-19
-21
-22
-23
-24
-25
-25
-25
-25
-25
-25
-25
-25
-25
-26
-27
-26
-25
-26
-27
-26
-25
-24
-23
-23
-27
-31
-25
-17
15
51
109
162
194
204
139
73
8
-43
-61
-65
-43
-26
-19
-15
-15
-16
-19
-21
-21
-21
-20
-19
-18
-17
-17
-17
-16
-15
-15
-15
-14
-13
-13
-13
-13
-11
-9
-8
-7
-7
-7
-6
-5
-4
-3
-2
-1
1
3
3
3
5
7
9
11
13
16
18
20
22
24
26
27
28
30
32
34
36
37
37
37
37
37
36
31
26
23
19
14
9
3
-3
-7
-11
-13
-15
-18
-21
-23
-25
-26
-27
-26
-25
-27
-29
-29
-29
-28
-27
-26
-25
-25
-25
-25
-25
-25
-25
-25
-25
-25
-25
-24
-23
-23
-23
-23
-23
-23
-22
-23
-23
-23
-22
-21
-23
-25
-24
-23
-23
-23
-22
-21
-21
-21
-22
-23
-24
-25
-24
-24
-26
-27
-26
-25
-25
-25
-24
-23
-23
-23
-24
-25
-26
-27
-26
-25
-26
-27
-26
-25
-25
-25
-25
-24
-23
-24
-25
-25
-25
-24
-23
-25
-27
-25
-22
-19
-17
-16
-15
-14
-13
-13
-13
-13
-11
-7
-5
-5
-5
-4
-3
-3
-3
-3
-5
-8
-13
-18
-20
-22
-23
-23
-25
-27
-26
-25
-25
-25
-25
-25
-25
-25
-25
-25
-25
-25
-26
-27
-27
-27
-26
-25
-24
-23
-24
-27
-31
-24
-9
23
63
116
173
190
196
144
79
13
-52
-63
-68
-50
-69
-21
-13
-14
-15
-16
-17
-18
-19
-19
-19
-18
-17
-17
-17
-16
-15
-15
-15
-14
-13
-12
-11
-11
-11
-12
-12
-9
-7
-7
-7
-6
-5
-4
-3
-3
-2
0
2
4
5
5
7
9
11
13
14
15
18
21
22
23
25
27
29
31
31
31
32
33
34
35
34
33
32
29
24
19
15
10
5
0
-5
-9
-12
-14
-16
-18
-20
-21
-21
-22
-24
-25
-25
-25
-25
-26
-27
-27
-27
-27
-27
-26
-25
-24
-23
-24
-25
-24
-23
-22
-21
-23
-25
-24
-22
-20
-19
-20
-21
-20
-19
-20
-21
-22
-23
-22
-21
-22
-23
-22
-21
-21
-21
-21
-21
-21
-22
-23
-23
-23
-23
-23
-24
-25
-24
-23
-23
-23
-24
-25
-23
-21
-22
-23
-24
-25
-24
-23
-24
-25
-24
-23
-23
-23
-23
-23
-22
-21
-21
-21
-20
-18
-16
-15
-15
-14
-13
-13
-13
-9
-5
-3
-1
-2
-3
-3
-3
-3
-4
-8
-11
-13
-16
-19
-21
-21
-21
-22
-23
-24
-25
-25
-25
-25
-25
-26
-27
-26
-25
-26
-27
-27
-27
-26
-25
-25
-25
-25
-25
-25
-30
-34
-16
5
46
89
141
181
182
164
99
33
-33
-73
-73
-63
-40
-25
-18
-16
-18
-19
-20
-21
-21
-21
-21
-21
-20
-19
-19
-19
-19
-19
-18
-17
-16
-15
-15
-14
-13
-12
-11
-11
-11
-10
-9
-9
-9
-7
-5
-4
-3
-2
-1
1
3
4
5
8
9
10
12
14
16
18
20
22
24
26
27
28
29
30
31
31
30
28
26
24
19
15
10
5
2
-1
-6
-11
-15
-19
-20
-21
-24
-27
-27
-27
-27
-27
-27
-27
-28
-29
-29
-29
-29
-29
-28
-27
-28
-29
-28
-27
-27
-27
-26
-25
-24
-24
-26
-26
-24
-23
-23
-24
-25
-24
-23
-22
-21
-21
-21
-19
-17
-16
-15
-12
-8
-3
6
19
38
65
86
103
118
132
144
155
171
190
211
232
242
247
235
217
191
163
148
135
130
126
92
125
14
-27
-45
-61
-65
-69
-69
-69
-71
-73
-72
-71
-70
-69
-69
-69
-68
-67
-67
-67
-66
-64
-62
-61
-61
-61
-61
-61
-62
-63
-64
-67
-70
-75
-80
-86
-92
-96
-100
-104
-108
-111
-113
-115
-117
-118
-119
-119
-119
-119
-119
-117
-114
-110
-106
-102
-97
-91
-84
-76
-69
-63
-57
-52
-48
-45
-42
-39
-36
-32
-31
-32
-33
-32
-31
-30
-29
-30
-31
-30
-29
-30
-31
-31
-30
-29
-30
-31
-30
-29
-29
-29
-28
-27
-26
-25
-25
-25
-26
-27
-26
-25
-25
-25
-25
-25
-24
-23
-23
-23
-23
-23
-23
-23
-22
-21
-22
-23
-23
-23
-22
-21
-21
-21
-21
-21
-21
-21
-21
-21
-21
-21
-21
-21
-21
-20
-19
-19
-19
-19
-19
-19
-19
-19
-19
-18
-17
-18
-19
-19
-19
-18
-17
-17
-17
-17
-17
-16
-15
-16
-17
-17
-17
-17
-17
-17
-17
-17
-16
-15
-15
-15
-15
-15
-16
-17
-16
-15
-15
-15
-16
-17
-16
-15
-14
-13
-14
-15
-14
-13
-14
-15
-14
-13
-14
-15
-15
-15
-14
-13
-13
-13
-13
-13
-13
-13
-12
-11
-11
-12
-13
-13
-13
-12
-11
-11
-11
-11
-11
-11
-11
-11
-11
-11
-11
-11
-11
-12
-13
-12
-11
-10
-9
-9
-9
-9
-9
-9
-9
-9
-9
-8
-6
-4
-3
-2
0
2
3
3
5
7
9
11
12
13
11
9
9
9
7
5
3
0
-3
-5
-7
-9
-10
-11
-11
-11
-12
-13
-13
-13
-13
-13
-12
-11
-11
-11
-12
-13
-12
-11
-11
-15
-20
-18
-14
13
40
90
140
182
215
180
140
75
13
-38
-70
-50
-31
-18
-9
-7
-5
-6
-7
-9
-11
-10
-9
-9
-9
-8
-7
-8
-9
-9
-8
-6
-5
-5
-5
-4
-3
-3
-3
-2
-1
1
0
-1
1
3
4
5
6
7
8
9
11
13
14
15
17
19
19
19
21
23
26
28
30
32
34
35
35
35
35
36
38
39
38
37
36
35
34
32
30
27
29
18
13
10
7
4
1
-2
-5
-6
-7
-9
-11
-11
-11
-11
-11
-11
-11
-12
-13
-13
-13
-12
-11
-12
-13
-12
-11
-11
-11
-10
-9
-9
-9
-9
-9
-9
-9
-8
-8
-10
-10
-9
-9
-9
-9
-9
-9
-9
-10
-11
-11
-11
-11
-11
-13
-15
-14
-13
-13
-13
-13
-13
-13
-13
-14
-15
-15
-15
-15
-15
-16
-17
-16
-15
-15
-15
-15
-15
-15
-15
-16
-17
-15
-15
-15
-15
-15
-12
-9
-8
-7
-6
-5
-4
-3
-3
-2
2
5
6
7
5
3
4
4
1
-2
-4
-7
-11
-13
-14
-15
-15
-16
-18
-19
-19
-19
-18
-17
-17
-17
-17
-19
-19
-19
-19
-18
-17
-18
-19
-18
-17
-19
-21
-21
-14
8
41
89
137
186
200
171
124
58
-1
-55
-68
-51
-34
-17
-9
-6
-7
-10
-11
-11
-11
-11
-11
-12
-13
-12
-10
-9
-9
-9
-8
-7
-7
-7
-6
-5
-3
-1
-3
-5
-1
1
2
3
4
5
6
7
8
9
10
12
14
15
15
16
18
20
22
24
26
29
32
33
33
33
34
36
39
38
37
38
39
39
39
37
35
32
28
24
20
15
10
5
0
-3
-6
-10
-13
-14
-15
-16
-17
-18
-19
-20
-21
-21
-21
-21
-21
-21
-21
-21
-21
-20
-19
-19
-19
-19
-19
-19
-19
-19
-19
-19
-19
-19
-19
-19
-18
-17
-16
-15
-16
-17
-16
-15
-16
-17
-16
-15
-16
-17
-18
-19
-19
-19
-18
-17
-18
-19
-18
-17
-18
-19
-19
-19
-19
-19
-20
-20
-19
-19
-19
-19
-19
-18
-17
-17
-17
-17
-17
-16
-15
-14
-13
-12
-11
-9
-7
-7
-7
-6
-4
-1
1
2
3
2
1
1
0
-2
-4
-6
-10
-14
-15
-16
-17
-18
-19
-21
-21
-21
-21
-21
-21
-21
-21
-21
-20
-19
-20
-21
-20
-19
-19
-19
-19
-19
-21
-23
-23
-10
14
55
109
155
198
182
135
74
9
-36
-75
-67
-46
-29
-13
-10
-8
-8
-7
-12
-13
-13
-13
-12
-11
-12
-13
-13
-13
-11
-9
-9
-9
-9
-9
-7
-5
-5
-5
-4
-3
-2
-1
-1
-1
0
2
4
5
5
6
8
9
10
12
14
15
16
18
20
22
23
26
29
30
31
33
35
36
37
38
39
40
41
40
39
38
36
32
28
24
19
15
11
7
3
-1
-4
-8
-11
-14
-15
-15
-15
-16
-17
-18
-19
-19
-19
-19
-19
-19
-19
-19
-19
-19
-18
-17
-17
-17
-15
-13
-15
-17
-16
-15
-14
-13
-14
-15
-14
-13
-13
-13
-13
-13
-13
-13
-13
-13
-14
-15
-14
-13
-14
-15
-15
-15
-15
-15
-15
-15
-15
-15
-15
-16
-17
-16
-15
-17
-19
-18
-17
-16
-15
-15
-15
-13
-11
-11
-11
-9
-7
-6
-5
-6
-7
-6
-2
3
5
5
5
6
7
6
4
2
0
-2
-6
-10
-12
-14
-15
-15
-16
-17
-16
-15
-16
-17
-18
-19
-19
-19
-20
-21
-19
-17
-17
-17
-17
-17
-16
-15
-16
-19
-24
-17
0
29
64
110
163
183
191
142
77
15
-47
-64
-76
-55
-30
-18
-5
-6
-7
-9
-11
-11
-11
-10
-9
-9
-9
-9
-9
-8
-7
-6
-5
-5
-5
-5
-5
-4
-3
-2
-1
0
1
2
3
4
5
5
5
5
6
8
9
10
12
14
16
15
20
21
23
25
27
29
30
31
32
33
35
37
38
39
39
39
40
41
39
36
33
30
27
23
17
13
9
5
2
-1
-5
-8
-10
-12
-14
-15
-16
-17
-18
-19
-19
-19
-19
-19
-19
-18
-17
-17
-17
-17
-17
-17
-17
-17
-17
-17
-17
-16
-15
-15
-15
-15
-15
-15
-15
-14
-13
-13
-13
-14
-15
-15
-15
-15
-15
-15
-15
-15
-15
-15
-15
-15
-15
-17
-17
-17
-17
-17
-17
-17
-17
-17
-17
-17
-17
-17
-17
-17
-16
-15
-14
-13
-13
-13
-10
-9
-8
-7
-6
-4
-2
-1
0
1
1
1
0
-1
-2
-4
-6
-10
-14
-15
-15
-18
-19
-20
-21
-21
-21
-22
-23
-23
-23
-23
-23
-22
-21
-21
-21
-21
-21
-21
-21
-20
-21
-25
-28
-30
-20
-2
33
77
125
174
187
188
137
72
6
-59
-70
-74
-52
-28
-19
-11
-12
-13
-14
-15
-16
-17
-16
-15
-14
-13
-14
-15
-14
-13
-12
-11
-10
-9
-9
-9
-8
-7
-8
-8
-6
-5
-5
-5
-4
-2
0
1
2
3
4
6
8
9
10
11
13
15
17
18
19
22
25
26
27
29
31
32
33
34
35
36
37
37
37
35
33
30
27
22
17
11
7
3
-1
-5
-9
-12
-15
-18
-21
-24
-25
-25
-25
-25
-25
-25
-26
-25
-26
-27
-27
-27
-26
-25
-26
-27
-27
-27
-25
-23
-24
-25
-24
-23
-23
-23
-22
-21
-22
-23
-23
-23
-22
-21
-20
-19
-19
-19
-20
-21
-21
-21
-21
-21
-22
-23
-23
-23
-23
-23
-23
-23
-23
-23
-23
-24
-25
-24
-23
-25
-27
-26
-25
-23
-21
-19
-17
-16
-15
-15
-15
-15
-14
-11
-9
-8
-6
-4
-3
-4
-5
-5
-7
-10
-12
-14
-18
-22
-23
-23
-25
-27
-27
-27
-27
-27
-27
-27
-27
-27
-27
-27
-27
-27
-27
-27
-27
-27
-27
-27
-26
-25
-25
-27
-33
-26
-11
20
58
108
162
187
203
154
89
23
-42
-61
-74
-55
-75
-24
-15
-16
-17
-18
-19
-20
-21
-21
-21
-20
-19
-19
-19
-19
-19
-18
-17
-16
-15
-14
-13
-13
-13
-13
-13
-12
-10
-8
-7
-7
-6
-4
-3
-2
-1
0
1
2
3
4
7
9
12
15
16
17
20
23
25
27
29
31
33
35
35
35
37
39
39
39
37
34
31
27
22
16
11
6
1
-5
-11
-14
-16
-18
-20
-22
-24
-25
-25
-26
-28
-29
-27
-28
-29
-29
-29
-28
-27
-27
-27
-27
-27
-27
-27
-27
-27
-26
-25
-26
-27
-27
-27
-24
-23
-23
-23
-23
-23
-23
-23
-23
-23
-23
-23
-24
-25
-24
-23
-23
-23
-23
-23
-23
-23
-23
-24
-25
-25
-25
-26
-27
-27
-27
-27
-27
-26
-25
-23
-21
-21
-21
-20
-19
-16
-16
-18
-18
-16
-13
-9
-7
-6
-5
-5
-5
-5
-5
-6
-9
-12
-16
-20
-22
-24
-24
-23
-25
-27
-27
-27
-27
-27
-28
-29
-28
-27
-29
-31
-30
-29
-29
-29
-28
-27
-27
-27
-27
-28
-30
-31
-30
-15
7
49
99
148
196
182
149
89
24
-30
-82
-70
-50
-35
-19
-19
-19
-20
-21
-22
-23
-21
-19
-19
-19
-19
-19
-18
-17
-17
-17
-17
-17
-16
-15
-14
-13
-13
-12
-10
-9
-9
-9
-9
-8
-6
-5
-4
-3
-2
-1
0
2
4
6
5
10
11
12
13
16
19
20
21
23
25
27
29
32
35
36
37
36
35
35
34
31
27
22
17
11
7
3
-1
-5
-9
-12
-15
-18
-21
-24
-25
-26
-27
-28
-29
-29
-29
-29
-28
-27
-26
-25
-26
-27
-28
-29
-28
-27
-28
-29
-28
-27
-27
-27
-26
-25
-25
-25
-25
-25
-26
-26
-24
-24
-28
-27
-24
-23
-23
-23
-23
-23
-23
-23
-23
-24
-26
-27
-25
-27
-29
-28
-27
-26
-25
-26
-27
-26
-25
-25
-25
-25
-25
-23
-21
-22
-23
-21
-19
-18
-17
-16
-14
-11
-9
-8
-7
-7
-7
-7
-8
-10
-13
-16
-17
-18
-22
-26
-27
-27
-28
-29
-30
-31
-31
-31
-32
-33
-32
-31
-31
-31
-31
-31
-31
-31
-31
-31
-30
-29
-29
-30
-32
-34
-37
-28
-8
28
73
120
168
176
169
115
50
-14
-78
-81
-76
-54
-32
-25
-19
-20
-21
-22
-23
-23
-23
-23
-23
-23
-23
-22
-21
-21
-21
-20
-19
-19
-19
-18
-17
-16
-15
-15
-15
-14
-13
-12
-11
-11
-10
-8
-7
-7
-7
-6
-4
-2
-1
0
2
5
8
11
11
11
14
17
18
19
21
23
24
25
26
27
28
29
29
28
25
22
19
15
10
5
-1
-5
-9
-14
-19
-22
-24
-26
-28
-30
-32
-32
-30
-29
-30
-31
-31
-33
-33
-32
-31
-32
-33
-32
-31
-32
-33
-32
-31
-31
-31
-30
-29
-28
-27
-28
-29
-29
-29
-29
-29
-29
-29
-29
-29
-29
-29
-28
-27
-27
-27
-28
-29
-29
-29
-29
-29
-30
-31
-31
-31
-31
-31
-31
-31
-31
-31
-31
-31
-31
-31
-31
-29
-27
-26
-25
-23
-21
-20
-19
-18
-16
-14
-13
-12
-12
-14
-15
-14
-15
-18
-20
-22
-25
-28
-29
-30
-31
-32
-33
-33
-35
-37
-36
-35
-36
-37
-35
-33
-33
-33
-34
-35
-35
-35
-34
-33
-33
-33
-33
-34
-39
-33
-18
10
48
93
142
169
184
142
77
11
-54
-76
-87
-67
-42
-30
-20
-19
-19
-23
-25
-25
-25
-25
-25
-25
-25
-24
-23
-23
-23
-22
-21
-20
-19
-19
-19
-18
-17
-17
-16
-14
-13
-13
-13
-12
-10
-8
-7
-7
-6
-4
-3
-2
0
2
4
6
7
8
12
15
17
19
21
23
25
27
28
29
31
33
33
33
32
31
29
26
22
17
12
7
2
-3
-8
-12
-15
-19
-23
-26
-28
-29
-29
-29
-30
-31
-31
-31
-31
-31
-32
-32
-29
-31
-33
-32
-31
-31
-31
-29
-27
-27
-27
-28
-29
-29
-29
-28
-27
-28
-29
-28
-27
-27
-27
-26
-25
-24
-23
-24
-25
-25
-25
-25
-25
-26
-27
-27
-27
-27
-27
-27
-27
-27
-27
-27
-27
-27
-27
-27
-28
-29
-28
-27
-26
-25
-23
-21
-21
-21
-19
-17
-17
-17
-16
-14
-11
-9
-9
-9
-9
-9
-8
-7
-8
-12
-16
-19
-22
-24
-26
-27
-28
-29
-30
-30
-29
-29
-29
-29
-29
-29
-29
-30
-31
-30
-29
-30
-31
-31
-31
-29
-27
-27
-29
-34
-33
-24
-2
30
76
132
175
210
179
116
51
-14
-52
-81
-67
-43
-30
-18
-17
-18
-19
-21
-22
-23
-23
-23
-22
-21
-20
-19
-19
-19
-19
-19
-18
-17
-16
-15
-15
-15
-14
-13
-12
-10
-8
-7
-7
-7
-6
-5
-4
-2
0
1
2
4
6
8
10
12
14
16
15
22
25
26
27
30
33
33
33
36
39
40
41
41
40
37
34
28
23
18
13
8
3
-2
-7
-11
-14
-17
-19
-20
-22
-24
-25
-26
-27
-28
-29
-29
-29
-29
-29
-29
-28
-27
-27
-27
-27
-27
-27
-27
-27
-27
-27
-27
-28
-29
-28
-27
-25
-23
-23
-23
-23
-23
-23
-23
-23
-23
-22
-21
-22
-23
-24
-25
-24
-23
-23
-23
-23
-23
-23
-23
-24
-25
-25
-26
-27
-26
-25
-25
-25
-25
-25
-23
-21
-21
-21
-20
-19
-17
-15
-15
-15
-15
-14
-9
-7
-6
-5
-5
-5
-5
-5
-6
-9
-12
-16
-22
-23
-24
-25
-25
-25
-26
-27
-27
-27
-27
-28
-29
-28
-27
-28
-29
-29
-29
-28
-27
-27
-27
-26
-25
-25
-26
-29
-31
-30
-17
6
46
98
149
199
199
172
117
52
-12
-76
-75
-56
-39
-21
-19
-18
-17
-18
-20
-21
-20
-19
-19
-19
-19
-19
-18
-17
-16
-15
-16
-17
-16
-15
-14
-13
-12
-11
-9
-7
-7
-7
-6
-4
-2
-1
-2
-2
0
2
4
6
8
10
12
13
14
16
18
21
25
25
25
28
31
32
33
36
39
40
41
42
43
41
38
35
31
25
19
13
8
3
-1
-6
-10
-13
-16
-18
-20
-22
-23
-24
-25
-26
-27
-27
-27
-26
-25
-25
-25
-25
-25
-25
-25
-25
-25
-25
-26
-27
-25
-23
-23
-23
-22
-21
-21
-21
-22
-23
-22
-21
-20
-19
-20
-21
-21
-21
-21
-21
-21
-21
-21
-21
-21
-21
-21
-21
-21
-21
-22
-23
-24
-23
-21
-21
-21
-22
-23
-23
-23
-23
-23
-22
-21
-20
-19
-18
-17
-16
-15
-14
-13
-12
-10
-7
-5
-4
-3
-3
-3
-3
-3
-4
-7
-10
-12
-14
-17
-20
-21
-20
-20
-22
-23
-25
-24
-23
-25
-27
-26
-25
-25
-25
-24
-23
-23
-23
-23
-23
-23
-23
-23
-23
-25
-27
-30
-22
-5
26
67
116
171
189
189
142
77
11
-54
-67
-67
-47
-24
-17
-12
-12
-11
-15
-15
-16
-17
-16
-15
-15
-15
-15
-15
-14
-13
-12
-11
-11
-11
-9
-7
-7
-7
-6
-5
-5
-5
-4
-3
-3
-2
0
2
4
5
5
6
8
11
14
15
15
16
18
21
23
26
29
31
33
35
37
38
39
40
41
40
39
38
36
33
29
24
19
14
8
2
-2
-5
-8
-11
-14
-18
-19
-20
-21
-21
-21
-21
-21
-21
-21
-22
-23
-22
-21
-21
-22
-23
-23
-23
-21
-19
-19
-19
-19
-19
-19
-19
-19
-19
-18
-17
-18
-19
-18
-17
-17
-17
-17
-17
-16
-16
-18
-19
-18
-17
-17
-17
-18
-19
-18
-17
-18
-19
-19
-19
-19
-19
-19
-20
-21
-20
-19
-20
-21
-20
-19
-17
-15
-14
-13
-12
-11
-9
-7
-7
-7
-4
-2
0
1
1
1
1
1
2
2
0
-3
-6
-10
-14
-15
-16
-17
-18
-19
-20
-21
-21
-20
-19
-19
-19
-20
-21
-21
-21
-20
-19
-19
-19
-20
-21
-20
-19
-18
-19
-24
-21
-8
19
57
104
156
183
196
156
91
25
-40
-64
-76
-57
-29
-17
-6
-5
-6
-7
-9
-11
-13
-12
-11
-11
-11
-9
-7
-8
-9
-8
-7
-6
-5
-4
-3
-4
-5
-4
-3
0
1
2
3
4
5
5
6
8
9
10
11
12
13
14
17
20
23
26
28
27
33
35
36
37
39
41
41
41
43
45
46
47
46
44
41
38
32
27
22
18
13
8
2
-2
-5
-8
-10
-11
-12
-13
-14
-15
-16
-17
-18
-19
-18
-17
-18
-19
-19
-18
-17
-17
-17
-16
-15
-16
-17
-16
-15
-14
-13
-14
-15
-15
-15
-14
-13
-12
-11
-11
-11
-11
-11
-12
-13
-12
-12
-14
-15
-15
-15
-15
-15
-14
-13
-13
-13
-13
-13
-14
-15
-13
-15
-17
-17
-17
-16
-15
-15
-15
-15
-15
-13
-11
-10
-9
-8
-7
-6
-5
-5
-5
-4
-2
1
3
4
5
5
5
5
5
4
0
-4
-7
-10
-12
-14
-15
-16
-17
-17
-17
-17
-18
-19
-19
-19
-19
-19
-20
-21
-20
-19
-19
-19
-19
-19
-17
-15
-15
-16
-19
-21
-20
-7
16
54
104
152
200
194
163
106
41
-18
-76
-66
-44
-27
-11
-9
-9
-10
-11
-11
-11
-11
-11
-10
-9
-9
-9
-9
-9
-9
-9
-9
-9
-8
-7
-6
-5
-4
-3
-2
-1
-1
0
2
3
4
5
5
6
8
10
12
13
14
15
16
19
22
24
27
29
31
33
35
37
39
41
43
45
47
48
49
48
46
43
39
34
29
24
19
12
7
3
-1
-5
-8
-11
-15
-18
-19
-19
-20
-22
-23
-23
-23
-23
-23
-23
-23
-23
-23
-23
-23
-23
-23
-23
-24
-25
-24
-23
-22
-21
-21
-21
-21
-21
-21
-21
-21
-21
-20
-19
-20
-21
-21
-21
-20
-19
-19
-19
-20
-21
-21
-21
-21
-21
-21
-21
-22
-23
-23
-23
-23
-23
-23
-23
-23
-23
-23
-24
-25
-24
-23
-24
-25
-25
-25
-23
-21
-19
-17
-17
-16
-14
-13
-13
-12
-10
-8
-6
-5
-5
-5
-5
-5
-5
-6
-8
-10
-12
-17
-22
-23
-25
-25
-25
-26
-27
-27
-27
-27
-27
-27
-27
-27
-27
-28
-29
-28
-27
-27
-27
-28
-29
-26
-25
-25
-27
-33
-28
-16
13
48
97
150
184
213
166
101
35
-30
-57
-79
-58
-81
-24
-15
-17
-19
-20
-21
-22
-23
-23
-23
-22
-21
-20
-19
-19
-19
-18
-17
-17
-17
-16
-15
-15
-15
-14
-13
-12
-10
-8
-7
-6
-5
-4
-3
-2
0
2
3
3
4
6
9
11
14
17
20
23
24
25
28
31
33
35
35
35
37
39
39
39
39
38
35
30
23
17
12
6
1
-4
-11
-14
-16
-18
-20
-21
-22
-23
-24
-25
-26
-27
-28
-29
-29
-30
-31
-30
-29
-29
-29
-28
-27
-27
-27
-28
-29
-28
-27
-27
-27
-27
-27
-27
-27
-26
-25
-25
-25
-25
-25
-24
-23
-24
-25
-24
-23
-23
-23
-24
-25
-25
-25
-25
-25
-25
-24
-23
-24
-25
-25
-25
-25
-25
-26
-27
-27
-27
-26
-25
-25
-25
-24
-23
-25
-27
-26
-25
-24
-23
-23
-22
-19
-17
-17
-16
-14
-13
-13
-12
-10
-8
-6
-5
-4
-4
-6
-6
-5
-8
-11
-14
-17
-19
-21
-23
-25
-26
-27
-27
-27
-28
-29
-28
-27
-28
-29
-29
-29
-28
-27
-28
-29
-28
-27
-27
-27
-27
-29
-32
-31
-28
-5
23
72
124
171
217
175
128
63
-1
-49
-89
-64
-42
-29
-19
-19
-19
-20
-21
-22
-23
-23
-23
-24
-25
-23
-21
-21
-20
-18
-17
-17
-17
-17
-17
-16
-15
-14
-13
-14
-13
-10
-9
-8
-7
-6
-5
-5
-2
-1
0
1
3
5
6
7
10
13
15
17
20
23
24
25
27
29
30
31
34
35
34
33
34
34
32
29
25
21
17
11
5
-1
-6
-9
-12
-16
-20
-22
-24
-26
-27
-27
-27
-28
-29
-29
-29
-30
-31
-30
-29
-30
-31
-30
-29
-29
-29
-29
-29
-29
-29
-29
-29
-29
-29
-29
-29
-29
-29
-28
-27
-27
-27
-27
-27
-27
-27
-27
-27
-27
-27
-27
-27
-27
-27
-27
-27
-27
-26
-25
-26
-27
-24
-21
-19
-16
-11
-6
-2
8
26
46
71
95
119
141
162
178
190
202
213
225
238
251
266
265
258
242
223
205
186
178
185
124
79
24
-28
-44
-59
-60
-61
-64
-67
-70
-74
-78
-82
-85
-87
-88
-89
-91
-93
-94
-95
-96
-98
-101
-103
-103
-103
-104
-106
-108
-109
-110
-113
-116
-119
-122
-125
-128
-131
-134
-138
-141
-144
-147
-149
-151
-152
-153
-153
-153
-150
-146
-142
-138
-134
-129
-120
-113
-105
-97
-88
-80
-73
-66
-60
-54
-49
-45
-41
-39
-38
-36
-34
-33
-33
-33
-32
-31
-31
-31
-31
-31
-29
-30
-31
-30
-29
-29
-29
-29
-29
-28
-27
-27
-27
-27
-27
-26
-25
-26
-27
-27
-27
-26
-25
-25
-25
-25
-25
-24
-23
-23
-23
-24
-25
-25
-25
-26
-26
-24
-23
-24
-25
-25
-25
-25
-26
-27
-26
-25
-26
-27
-27
-27
-26
-25
-25
-25
-25
-25
-25
-25
-26
-27
-26
-25
-26
-27
-27
-27
-26
-25
-25
-25
-25
-25
-25
-25
-25
-25
-24
-24
-26
-27
-27
-26
-25
-24
-23
-24
-25
-24
-23
-24
-25
-26
-27
-26
-25
-25
-25
-25
-25
-25
-25
-25
-25
-25
-25
-25
-25
-24
-23
-24
-25
-25
-25
-25
-25
-24
-23
-22
-21
-22
-23
-23
-22
-19
-20
-21
-19
-17
-15
-13
-12
-11
-11
-10
-6
-3
-2
-1
-1
-1
-2
-3
-4
-6
-9
-13
-17
-19
-20
-22
-24
-25
-26
-27
-26
-26
-28
-29
-28
-27
-27
-27
-26
-25
-25
-28
-29
-28
-27
-25
-23
-28
-33
-30
-21
5
38
87
133
169
179
139
88
22
-32
-73
-82
-61
-43
-27
-20
-18
-18
-20
-21
-22
-23
-22
-21
-22
-23
-22
-21
-20
-20
-22
-21
-19
-18
-17
-17
-17
-16
-15
-15
-15
-14
-13
-12
-11
-11
-11
-10
-9
-8
-7
-5
-2
0
1
1
1
2
4
8
9
9
10
12
14
16
17
18
20
22
23
23
23
25
24
23
22
21
19
17
14
11
8
4
0
-3
-6
-10
-13
-15
-17
-20
-24
-27
-26
-25
-25
-25
-25
-25
-25
-25
-25
-25
-24
-23
-23
-23
-23
-23
-22
-21
-21
-21
-21
-20
-19
-20
-21
-20
-19
-20
-21
-20
-19
-19
-19
-19
-19
-19
-19
-20
-21
-21
-21
-21
-21
-22
-23
-24
-25
-24
-23
-23
-23
-23
-23
-24
-25
-25
-25
-25
-25
-26
-27
-26
-25
-25
-24
-23
-22
-21
-20
-19
-18
-17
-15
-13
-14
-15
-14
-12
-8
-5
-4
-3
-3
-3
-4
-6
-8
-10
-12
-16
-21
-23
-24
-25
-25
-25
-26
-27
-26
-25
-26
-27
-27
-27
-27
-28
-29
-28
-27
-27
-27
-26
-25
-24
-23
-24
-26
-30
-27
-9
17
55
101
157
190
199
169
103
38
-28
-60
-71
-60
-36
-24
-15
-15
-18
-19
-20
-21
-20
-19
-18
-17
-17
-17
-17
-16
-15
-15
-15
-15
-15
-13
-11
-10
-9
-8
-7
-6
-5
-5
-5
-4
-3
0
1
1
1
2
4
6
7
8
10
12
14
16
18
20
23
26
27
28
29
30
33
35
36
37
38
39
39
39
37
35
31
26
20
14
9
4
-1
-6
-9
-12
-15
-18
-20
-21
-22
-23
-24
-25
-26
-27
-28
-29
-28
-27
-27
-27
-27
-27
-26
-25
-25
-25
-25
-25
-25
-26
-27
-25
-23
-23
-23
-23
-23
-22
-21
-21
-21
-21
-21
-21
-21
-22
-23
-22
-21
-21
-21
-22
-23
-22
-21
-22
-23
-23
-23
-23
-24
-26
-27
-26
-25
-24
-23
-23
-22
-21
-22
-23
-23
-23
-23
-23
-24
-25
-22
-19
-17
-15
-15
-15
-13
-11
-12
-12
-9
-6
-3
-2
-4
-5
-5
-5
-4
-5
-8
-10
-12
-16
-20
-21
-22
-23
-24
-25
-26
-27
-27
-27
-27
-27
-27
-26
-25
-26
-27
-27
-27
-26
-25
-26
-27
-25
-25
-30
-30
-22
-2
29
74
131
173
203
174
108
42
-23
-53
-71
-58
-35
-25
-17
-15
-15
-16
-18
-19
-17
-18
-19
-19
-19
-18
-17
-16
-15
-15
-15
-14
-13
-13
-13
-12
-11
-10
-9
-9
-9
-6
-5
-4
-3
-3
-2
0
1
2
4
6
7
8
9
10
13
16
18
20
21
21
25
27
29
31
33
35
35
35
36
37
37
37
35
32
29
25
18
11
6
2
-3
-7
-11
-14
-17
-19
-20
-22
-24
-25
-25
-25
-26
-27
-28
-29
-28
-27
-28
-29
-29
-28
-27
-26
-25
-25
-25
-25
-25
-25
-25
-24
-23
-25
-27
-25
-23
-23
-23
-22
-21
-21
-21
-22
-23
-23
-23
-22
-22
-24
-25
-24
-23
-23
-23
-23
-23
-23
-23
-24
-25
-24
-23
-25
-26
-27
-26
-25
-25
-25
-24
-23
-23
-23
-23
-23
-21
-19
-17
-15
-15
-15
-15
-15
-14
-13
-12
-10
-7
-5
-4
-3
-4
-5
-4
-5
-8
-12
-16
-19
-22
-23
-23
-23
-23
-25
-25
-25
-25
-26
-27
-27
-27
-28
-29
-28
-27
-27
-27
-26
-25
-25
-25
-25
-25
-28
-29
-29
-17
6
46
97
147
198
190
158
100
35
-23
-78
-69
-48
-35
-22
-20
-18
-17
-17
-18
-19
-18
-17
-18
-19
-18
-17
-16
-15
-17
-19
-18
-17
-15
-13
-12
-11
-10
-9
-9
-9
-8
-7
-6
-5
-5
-4
-2
-1
0
2
4
5
6
8
10
12
14
16
19
19
19
22
25
27
29
31
33
34
35
36
37
37
37
37
36
32
27
22
18
13
9
4
0
-3
-8
-13
-16
-18
-19
-20
-23
-26
-27
-27
-27
-26
-25
-25
-25
-25
-24
-23
-24
-25
-24
-23
-24
-25
-25
-25
-24
-23
-22
-21
-22
-23
-22
-21
-21
-21
-21
-21
-20
-19
-20
-21
-20
-19
-20
-21
-21
-21
-20
-19
-20
-21
-21
-21
-22
-23
-24
-24
-23
-23
-23
-23
-23
-23
-23
-23
-23
-23
-23
-23
-23
-24
-25
-24
-23
-21
-19
-18
-16
-14
-13
-12
-11
-11
-11
-10
-8
-6
-5
-4
-3
-2
-1
-2
-4
-6
-9
-12
-15
-19
-20
-21
-23
-25
-25
-25
-25
-25
-24
-23
-23
-23
-24
-25
-25
-25
-25
-25
-26
-27
-24
-23
-23
-23
-23
-26
-31
-25
-13
18
56
106
160
189
211
159
94
28
-37
-56
-41
-50
-27
-20
-13
-14
-15
-16
-17
-18
-19
-18
-17
-16
-15
-15
-15
-14
-13
-13
-13
-12
-11
-10
-9
-10
-10
-8
-7
-6
-5
-4
-2
0
1
1
1
2
3
4
5
6
9
11
13
15
17
19
22
25
26
27
28
29
31
33
33
34
37
39
39
39
39
38
36
32
26
20
15
12
8
3
-3
-7
-10
-13
-16
-18
-20
-21
-21
-21
-22
-23
-23
-23
-23
-24
-25
-25
-25
-23
-21
-22
-23
-22
-21
-21
-21
-20
-19
-20
-21
-20
-19
-19
-19
-19
-19
-18
-17
-17
-17
-17
-17
-18
-19
-19
-19
-19
-19
-19
-19
-19
-19
-19
-20
-21
-21
-21
-21
-21
-22
-23
-23
-23
-22
-21
-21
-21
-21
-21
-21
-21
-21
-21
-18
-17
-16
-15
-15
-14
-12
-11
-10
-9
-9
-7
-4
-3
-2
-1
0
1
0
-3
-6
-10
-13
-14
-15
-17
-19
-20
-21
-22
-23
-23
-23
-24
-25
-25
-25
-25
-25
-24
-23
-23
-23
-23
-23
-23
-23
-22
-21
-21
-24
-29
-25
-17
9
41
97
157
188
214
157
92
26
-39
-61
-82
-58
-36
-24
-13
-12
-11
-13
-15
-16
-17
-17
-17
-16
-15
-16
-17
-16
-15
-14
-13
-12
-11
-11
-11
-10
-9
-9
-9
-8
-7
-6
-5
-5
-4
-2
0
2
3
3
6
7
9
11
12
13
14
15
17
19
21
23
26
29
30
31
32
33
35
37
37
36
34
33
32
30
28
24
19
14
9
4
-1
-5
-8
-11
-14
-16
-18
-20
-22
-23
-23
-23
-23
-24
-25
-25
-25
-25
-25
-25
-25
-25
-25
-26
-27
-26
-25
-25
-25
-24
-23
-23
-23
-22
-21
-21
-21
-21
-21
-22
-23
-22
-21
-21
-21
-21
-21
-21
-21
-22
-23
-21
-22
-23
-24
-25
-24
-23
-23
-23
-24
-25
-24
-23
-24
-25
-25
-25
-25
-25
-25
-25
-25
-25
-24
-22
-20
-19
-18
-17
-17
-16
-14
-13
-13
-11
-8
-7
-6
-5
-5
-5
-5
-10
-13
-15
-17
-20
-23
-24
-25
-27
-29
-29
-29
-28
-27
-28
-29
-29
-29
-29
-29
-30
-31
-30
-29
-29
-29
-28
-27
-27
-27
-27
-30
-35
-24
-6
32
74
123
173
177
178
115
49
-16
-77
-74
-69
-45
-25
-19
-15
-16
-17
-20
-23
-23
-23
-22
-21
-19
-17
-18
-19
-19
-19
-18
-17
-16
-15
-15
-15
-15
-14
-12
-11
-10
-9
-8
-7
-6
-5
-5
-4
-1
-1
-1
1
3
5
7
9
11
13
15
17
19
20
21
23
25
25
25
27
29
32
33
33
33
32
30
27
23
19
14
9
4
-2
-6
-10
-13
-16
-18
-20
-21
-21
-25
-27
-27
-27
-27
-27
-29
-31
-30
-29
-29
-29
-28
-27
-27
-27
-27
-27
-26
-25
-25
-25
-26
-27
-26
-25
-24
-23
-23
-23
-23
-23
-23
-23
-23
-23
-23
-23
-23
-23
-24
-23
-21
-22
-23
-24
-25
-25
-25
-25
-25
-26
-27
-26
-25
-26
-27
-26
-25
-25
-25
-26
-27
-26
-25
-24
-23
-22
-21
-20
-19
-18
-16
-14
-13
-13
-12
-10
-8
-6
-5
-6
-7
-7
-11
-15
-18
-21
-22
-23
-25
-27
-28
-29
-29
-29
-29
-29
-29
-29
-29
-29
-31
-33
-30
-29
-29
-29
-29
-29
-28
-27
-28
-28
-26
-28
-34
-30
-23
3
32
85
140
177
143
162
110
45
-18
-57
-88
-63
-41
-29
-19
-18
-17
-18
-19
-20
-21
-20
-19
-19
-19
-19
-19
-18
-17
-18
-18
-16
-15
-15
-15
-14
-13
-12
-11
-10
-9
-8
-7
-6
-5
-6
-4
-1
0
1
3
5
6
7
8
9
12
15
16
17
19
22
25
27
29
31
33
35
35
35
36
37
36
33
29
25
21
16
11
6
2
-3
-8
-11
-14
-17
-20
-21
-23
-26
-29
-29
-29
-29
-29
-29
-29
-29
-29
-29
-29
-29
-29
-28
-27
-28
-29
-29
-29
-28
-27
-26
-25
-25
-25
-25
-25
-25
-25
-24
-23
-24
-25
-24
-23
-23
-23
-23
-23
-23
-23
-23
-23
-23
-23
-23
-24
-25
-26
-27
-26
-25
-24
-23
-24
-25
-25
-25
-25
-25
-25
-25
-25
-25
-26
-26
-24
-22
-20
-19
-18
-17
-16
-15
-14
-13
-13
-10
-6
-5
-6
-7
-7
-7
-7
-11
-15
-16
-17
-20
-23
-24
-25
-26
-27
-29
-31
-30
-29
-29
-29
-29
-29
-28
-27
-28
-29
-29
-29
-28
-28
-30
-31
-30
-29
-28
-31
-36
-21
-3
36
77
134
191
198
201
136
70
5
-52
-59
-61
-40
-23
-21
-19
-19
-19
-20
-21
-22
-23
-23
-23
-22
-21
-21
-21
-20
-19
-18
-17
-17
-17
-16
-15
-15
-15
-14
-13
-12
-10
-8
-7
-7
-4
-3
-2
-1
1
3
3
3
5
7
10
13
15
17
19
21
23
25
26
27
30
32
34
35
36
37
38
38
36
33
29
24
19
13
6
2
-2
-8
-14
-17
-20
-23
-25
-26
-27
-27
-27
-29
-31
-31
-31
-31
-31
-32
-33
-32
-31
-31
-31
-30
-29
-29
-29
-29
-29
-29
-29
-28
-27
-28
-29
-28
-27
-27
-27
-26
-25
-25
-25
-26
-27
-26
-25
-25
-27
-29
-28
-27
-27
-27
-27
-27
-27
-27
-27
-27
-28
-29
-28
-27
-28
-29
-29
-29
-29
-29
-29
-29
-29
-29
-29
-29
-28
-26
-24
-23
-22
-21
-21
-21
-20
-18
-16
-14
-15
-9
-7
-10
-13
-13
-13
-16
-19
-22
-25
-26
-27
-29
-31
-32
-33
-33
-33
-33
-33
-33
-33
-33
-33
-34
-35
-35
-35
-34
-33
-33
-33
-32
-31
-31
-31
-31
-36
-42
-31
-18
19
56
115
170
194
207
142
76
11
-45
-68
-79
-56
-37
-29
-23
-23
-23
-25
-27
-27
-27
-26
-25
-25
-25
-25
-25
-25
-25
-25
-24
-22
-21
-21
-21
-21
-21
-20
-19
-18
-17
-15
-14
-13
-13
-13
-11
-9
-7
-5
-4
-3
-1
1
3
5
6
8
11
13
13
14
17
20
22
24
26
28
30
31
31
31
31
30
28
23
18
13
8
3
-2
-7
-3
-16
-19
-22
-25
-28
-31
-31
-31
-33
-35
-35
-35
-35
-35
-35
-35
-35
-35
-36
-37
-34
-33
-34
-35
-35
-35
-34
-33
-33
-33
-32
-31
-31
-31
-31
-31
-31
-31
-31
-31
-31
-31
-31
-30
-29
-29
-29
-29
-29
-29
-29
-30
-31
-31
-31
-32
-33
-32
-31
-30
-29
-31
-33
-32
-31
-32
-33
-32
-31
-31
-31
-32
-33
-32
-30
-28
-26
-24
-23
-22
-21
-20
-19
-19
-17
-15
-14
-13
-11
-9
-11
-13
-13
-14
-18
-21
-23
-25
-27
-29
-30
-31
-32
-33
-32
-31
-31
-31
-31
-31
-32
-33
-33
-33
-33
-33
-32
-31
-32
-33
-32
-31
-30
-30
-29
-33
-32
-11
13
62
112
162
197
165
124
59
-3
-57
-87
-66
-48
-32
-23
-21
-19
-20
-22
-24
-25
-24
-23
-22
-21
-21
-21
-20
-19
-20
-20
-18
-17
-16
-16
-18
-18
-16
-14
-13
-11
-9
-8
-7
-7
-7
-6
-5
-3
-1
-1
-1
1
3
5
7
9
11
13
16
18
19
20
22
24
26
28
29
29
30
32
33
34
34
32
30
28
24
20
15
9
6
3
-2
-7
-10
-13
-16
-19
-21
-23
-23
-23
-25
-27
-27
-27
-27
-27
-28
-29
-28
-27
-27
-27
-27
-27
-26
-25
-26
-27
-26
-25
-25
-25
-25
-25
-24
-23
-23
-23
-23
-22
-21
-21
-21
-22
-23
-22
-21
-23
-25
-24
-23
-23
-23
-23
-23
-22
-21
-23
-25
-24
-23
-24
-25
-26
-27
-26
-25
-24
-23
-24
-25
-24
-23
-23
-23
-22
-20
-18
-17
-18
-16
-13
-12
-11
-11
-11
-6
-1
-1
-1
-3
-5
-6
-8
-12
-15
-16
-17
-18
-20
-23
-25
-25
-25
-25
-25
-26
-27
-27
-27
-27
-27
-26
-25
-25
-25
-24
-23
-24
-25
-25
-24
-21
-26
-31
-24
-14
15
49
101
149
182
194
142
86
21
-34
-69
-82
-59
-39
-23
-15
-12
-11
-12
-13
-14
-15
-15
-15
-14
-13
-13
-13
-14
-15
-14
-13
-12
-11
-10
-9
-9
-7
-7
-7
-7
-5
-3
-4
-5
-3
-1
0
1
3
5
6
7
9
11
12
13
16
17
17
19
23
25
26
29
32
33
34
35
35
35
36
37
37
36
34
31
28
22
17
12
7
4
1
-3
-7
-11
-15
-17
-19
-22
-25
-24
-23
-23
-23
-23
-23
-23
-23
-24
-25
-25
-25
-24
-23
-23
-23
-23
-23
-23
-23
-22
-21
-21
-21
-21
-21
-21
-21
-19
-20
-21
-20
-19
-20
-21
-20
-19
-19
-19
-19
-19
-20
-21
-21
-21
-22
-23
-22
-21
-21
-21
-21
-21
-21
-21
-22
-23
-23
-23
-22
-22
-24
-24
-22
-19
-16
-15
-14
-13
-13
-10
-9
-10
-11
-7
-3
-3
-3
-3
-3
-3
-3
-5
-7
-9
-12
-15
-17
-18
-19
-20
-22
-25
-27
-26
-25
-24
-23
-23
-23
-24
-25
-25
-25
-25
-25
-24
-23
-24
-25
-24
-22
-21
-26
-31
-25
-16
10
41
93
141
180
198
152
101
35
-22
-66
-85
-63
-44
-26
-16
-13
-12
-14
-15
-16
-17
-17
-17
-17
-17
-16
-15
-15
-15
-14
-13
-12
-11
-11
-11
-9
-8
-7
-7
-7
-6
-5
-4
-3
-2
-1
0
1
2
3
4
5
7
9
10
11
14
16
19
22
24
26
28
29
30
31
32
35
38
39
39
39
40
41
41
39
41
32
29
23
17
13
9
4
-1
-5
-9
-12
-15
-17
-19
-20
-21
-21
-21
-22
-23
-24
-25
-24
-23
-24
-25
-24
-23
-22
-21
-21
-21
-21
-21
-22
-23
-22
-21
-21
-21
-21
-21
-21
-20
-19
-19
-19
-18
-17
-18
-19
-19
-19
-18
-17
-18
-19
-19
-19
-19
-19
-19
-19
-19
-19
-20
-21
-21
-21
-20
-20
-22
-23
-23
-22
-20
-19
-20
-21
-21
-21
-21
-21
-19
-17
-15
-15
-15
-13
-11
-11
-11
-9
-6
-2
1
1
1
0
-1
-1
-3
-8
-11
-12
-14
-17
-19
-20
-21
-21
-22
-24
-25
-24
-23
-23
-23
-24
-25
-24
-23
-23
-23
-23
-22
-21
-21
-21
-20
-19
-22
-25
-25
-20
4
34
82
132
184
209
185
144
78
13
-53
-76
-58
-40
-22
-14
-12
-11
-12
-13
-14
-15
-15
-15
-15
-15
-14
-13
-13
-13
-12
-11
-11
-10
-9
-8
-7
-7
-7
-6
-5
-4
-3
-3
-3
-1
1
3
5
6
7
8
10
12
13
14
16
19
21
22
25
28
30
32
34
36
39
42
43
44
45
46
47
47
45
43
39
35
29
23
19
14
8
2
-2
-6
-10
-13
-14
-16
-19
-21
-22
-23
-23
-23
-22
-21
-21
-21
-22
-23
-22
-21
-20
-20
-22
-23
-23
-23
-22
-21
-20
-19
-19
-17
-17
-17
-17
-17
-17
-18
-19
-19
-19
-18
-17
-16
-15
-16
-17
-17
-17
-17
-17
-17
-17
-18
-19
-19
-19
-18
-17
-17
-17
-17
-17
-18
-19
-19
-19
-18
-18
-20
-21
-20
-18
-17
-15
-13
-12
-11
-11
-11
-9
-7
-7
-7
-6
-5
-1
1
2
3
3
3
4
4
1
-2
-5
-8
-11
-14
-16
-17
-18
-19
-18
-17
-17
-17
-17
-17
-18
-19
-19
-19
-17
-19
-21
-20
-19
-18
-17
-16
-15
-15
-16
-21
-23
-14
4
37
78
133
179
213
201
137
73
7
-36
-63
-59
-37
-22
-11
-7
-7
-8
-10
-11
-12
-13
-12
-11
-10
-9
-9
-9
-9
-8
-7
-7
-7
-6
-5
-5
-5
-3
-1
-1
-1
1
3
4
5
5
5
8
9
9
10
12
14
16
18
20
22
24
26
28
30
32
34
36
38
40
41
42
44
45
47
49
49
49
48
47
43
39
35
30
24
18
11
6
3
0
-3
-6
-9
-12
-14
-15
-16
-17
-17
-17
-17
-17
-18
-19
-19
-19
-18
-17
-18
-18
-16
-15
-16
-17
-17
-16
-15
-15
-15
-15
-15
-14
-13
-13
-13
-13
-13
-13
-13
-13
-13
-13
-13
-14
-15
-14
-13
-13
-13
-14
-15
-15
-15
-15
-15
-16
-17
-18
-19
-18
-17
-16
-15
-15
-15
-15
-18
-19
-19
-19
-17
-15
-16
-17
-14
-11
-10
-9
-8
-7
-6
-5
-4
-2
1
3
4
4
2
1
2
2
-1
-4
-6
-9
-12
-13
-14
-15
-16
-17
-17
-18
-20
-21
-20
-19
-19
-19
-19
-19
-19
-19
-19
-19
-19
-19
-19
-20
-21
-20
-20
-24
-21
-4
23
64
111
163
191
199
165
99
34
-32
-60
-70
-55
-29
-17
-9
-7
-8
-10
-12
-13
-14
-15
-13
-14
-15
-13
-11
-12
-13
-11
-9
-8
-7
-7
-7
-7
-7
-5
-3
-4
-5
-4
-3
0
1
2
3
4
5
6
7
8
10
12
13
13
15
18
20
22
24
26
27
27
32
35
36
37
38
39
39
39
39
39
38
37
34
30
25
20
16
11
5
0
-3
-6
-9
-12
-15
-17
-18
-19
-19
-19
-20
-21
-20
-20
-22
-23
-22
-21
-21
-21
-22
-22
-21
-22
-23
-21
-19
-19
-19
-19
-19
-20
-21
-20
-19
-19
-19
-18
-17
-17
-17
-17
-17
-18
-19
-18
-17
-17
-17
-18
-19
-19
-19
-19
-19
-20
-21
-21
-21
-21
-21
-20
-19
-21
-21
-21
-21
-21
-21
-21
-20
-19
-18
-17
-15
-13
-13
-13
-13
-13
-12
-11
-9
-6
-3
-1
0
1
1
1
1
-2
-7
-10
-12
-15
-18
-19
-20
-21
-21
-21
-21
-21
-21
-22
-23
-24
-25
-25
-25
-25
-25
-25
-25
-24
-23
-22
-21
-20
-20
-24
-27
-26
-13
12
51
102
146
185
180
145
90
25
-29
-78
-76
-56
-37
-18
-13
-10
-11
-14
-15
-15
-14
-13
-13
-13
-12
-11
-12
-13
-12
-11
-10
-9
-10
-11
-10
-9
-8
-7
-5
-3
-2
-1
-1
-1
0
1
2
3
3
4
6
8
10
12
14
15
16
18
20
21
22
25
29
29
29
31
33
35
37
38
39
39
39
37
35
32
28
24
19
12
6
3
0
-3
-6
-9
-12
-14
-16
-18
-19
-20
-21
-21
-21
-22
-23
-23
-23
-23
-23
-22
-21
-21
-22
-21
-21
-21
-21
-21
-22
-23
-22
-21
-20
-19
-18
-17
-18
-19
-19
-19
-18
-17
-18
-19
-20
-21
-21
-21
-20
-19
-19
-19
-19
-19
-20
-21
-21
-21
-21
-21
-22
-23
-23
-23
-23
-22
-21
-21
-21
-22
-23
-22
-21
-19
-17
-17
-17
-16
-15
-13
-11
-10
-9
-8
-6
-4
-3
-2
-1
-2
-3
-4
-6
-8
-10
-12
-15
-18
-19
-20
-21
-22
-23
-24
-25
-23
-25
-27
-26
-25
-25
-25
-25
-25
-25
-25
-25
-25
-25
-25
-24
-23
-23
-25
-30
-29
-20
2
36
81
135
175
208
179
118
54
-11
-49
-79
-66
-41
-27
-15
-13
-13
-13
-13
-16
-17
-17
-17
-16
-15
-15
-15
-16
-17
-15
-13
-12
-11
-11
-11
-10
-9
-9
-9
-8
-7
-6
-5
-5
-4
-1
1
1
2
4
5
6
8
10
12
14
15
16
17
18
22
25
28
31
32
33
35
37
39
41
41
41
41
41
37
34
30
25
20
15
10
5
0
-5
-9
-12
-15
-18
-20
-22
-24
-25
-24
-23
-24
-25
-25
-25
-26
-27
-26
-25
-25
-26
-27
-26
-25
-25
-25
-24
-23
-23
-23
-23
-23
-23
-23
-23
-23
-23
-23
-23
-23
-22
-21
-20
-19
-20
-21
-21
-21
-21
-21
-21
-21
-22
-23
-23
-23
-23
-23
-23
-23
-23
-24
-25
-24
-23
-23
-23
-24
-25
-25
-25
-24
-23
-21
-19
-18
-17
-16
-15
-14
-13
-13
-13
-13
-11
-7
-5
-4
-3
-4
-5
-5
-8
-12
-14
-16
-19
-22
-24
-26
-27
-27
-27
-27
-27
-27
-27
-27
-28
-29
-29
-29
-29
-29
-30
-31
-30
-29
-29
-29
-28
-27
-27
-29
-34
-32
-22
1
31
77
132
174
211
184
133
70
5
-42
-85
-70
-45
-33
-22
-21
-21
-23
-25
-26
-27
-25
-23
-23
-23
-23
-23
-23
-23
-22
-21
-20
-19
-19
-19
-19
-19
-18
-16
-14
-13
-12
-11
-11
-11
-10
-8
-6
-5
-5
-4
-2
0
2
4
6
8
7
13
15
17
19
21
23
24
25
27
29
31
33
34
35
35
34
31
28
24
19
14
8
1
-5
-9
-13
-17
-20
-22
-24
-26
-28
-30
-31
-32
-33
-33
-33
-34
-35
-35
-35
-35
-35
-35
-34
-33
-33
-33
-33
-33
-32
-31
-32
-33
-33
-33
-31
-29
-29
-29
-28
-27
-27
-27
-26
-24
-21
-18
-14
-10
-5
12
34
60
88
107
124
139
153
164
174
194
215
238
261
260
257
237
214
182
154
147
136
116
85
31
-14
-42
-61
-66
-69
-71
-73
-70
-69
-69
-69
-69
-68
-66
-65
-65
-65
-66
-67
-68
-72
-76
-78
-80
-83
-86
-88
-87
-94
-97
-99
-101
-103
-105
-108
-111
-113
-115
-117
-119
-121
-124
-127
-129
-130
-131
-130
-129
-126
-124
-121
-117
-111
-105
-96
-89
-82
-75
-69
-62
-55
-50
-46
-42
-38
-37
-37
-37
-36
-35
-35
-35
-35
-35
-35
-36
-37
-37
-37
-36
-35
-36
-37
-38
-39
-37
-35
-34
-33
-33
-33
-33
-33
-33
-33
-32
-31
-32
-33
-33
-32
-30
-29
-29
-29
-29
-29
-30
-31
-30
-29
-27
-29
-31
-30
-29
-29
-29
-28
-27
-27
-27
-27
-27
-27
-27
-27
-27
-27
-27
-27
-27
-27
-27
-27
-27
-27
-27
-26
-25
-26
-27
-26
-25
-25
-25
-26
-27
-26
-25
-25
-25
-25
-24
-23
-24
-25
-24
-23
-23
-23
-24
-25
-24
-23
-22
-21
-22
-23
-22
-21
-21
-21
-21
-21
-21
-21
-21
-21
-21
-21
-21
-21
-21
-20
-18
-17
-18
-19
-19
-19
-19
-19
-20
-20
-19
-19
-19
-18
-17
-17
-17
-17
-17
-17
-17
-18
-19
-18
-17
-17
-17
-16
-15
-13
-11
-10
-9
-8
-7
-6
-6
-8
-7
-3
1
4
5
6
7
7
7
7
4
0
-2
-5
-10
-15
-15
-15
-15
-15
-16
-17
-16
-15
-16
-17
-18
-19
-18
-17
-18
-19
-19
-19
-18
-17
-16
-16
-19
-20
-18
0
25
63
106
144
180
180
171
113
48
-12
-72
-68
-75
-36
-13
-9
-5
-6
-7
-9
-11
-11
-11
-11
-11
-9
-7
-7
-7
-7
-7
-8
-9
-6
-5
-6
-7
-7
-5
-1
1
0
-1
0
1
1
1
1
2
4
5
6
7
8
11
13
15
17
17
17
19
21
22
23
25
27
28
29
29
29
30
31
32
33
34
35
34
32
30
29
28
26
24
20
15
10
6
5
4
1
-2
-3
-3
-4
-6
-8
-11
-12
-13
-13
-13
-12
-11
-10
-9
-10
-11
-11
-11
-10
-9
-9
-9
-8
-7
-9
-11
-10
-9
-8
-7
-7
-7
-6
-6
-8
-9
-9
-9
-9
-9
-10
-11
-10
-9
-10
-11
-11
-12
-13
-13
-13
-13
-13
-13
-13
-14
-15
-14
-13
-13
-13
-13
-13
-11
-9
-8
-7
-6
-5
-5
-5
-4
-2
1
4
6
7
6
5
5
3
0
-2
-4
-9
-14
-15
-16
-17
-17
-17
-17
-17
-17
-18
-19
-19
-19
-19
-19
-21
-23
-22
-21
-20
-19
-18
-17
-16
-16
-19
-22
-25
-14
8
42
82
129
179
185
174
120
55
-9
-73
-72
-60
-39
-16
-12
-7
-9
-11
-12
-13
-13
-13
-13
-13
-12
-11
-11
-11
-10
-9
-9
-9
-9
-9
-8
-7
-6
-5
-4
-3
-3
-2
0
1
2
3
3
3
4
5
6
8
10
12
14
15
15
19
21
23
25
26
27
29
31
32
33
35
37
38
39
39
39
39
38
35
32
27
23
18
13
7
3
-1
-5
-8
-11
-14
-15
-16
-18
-20
-21
-21
-21
-22
-23
-23
-23
-23
-22
-21
-21
-21
-21
-21
-21
-21
-21
-21
-20
-19
-20
-21
-21
-21
-20
-19
-18
-17
-18
-19
-19
-19
-19
-19
-19
-19
-20
-21
-20
-19
-19
-19
-19
-19
-19
-19
-20
-21
-19
-20
-21
-21
-21
-20
-19
-17
-15
-13
-10
-5
0
5
11
20
35
60
86
111
137
163
183
200
212
221
230
238
247
258
261
261
251
238
219
198
187
176
170
164
101
163
-11
-55
-65
-75
-75
-75
-78
-81
-82
-83
-83
-83
-83
-83
-84
-85
-86
-87
-88
-89
-90
-92
-94
-96
-98
-99
-99
-101
-104
-106
-108
-111
-114
-117
-120
-124
-128
-132
-136
-141
-146
-150
-153
-154
-155
-157
-159
-159
-159
-157
-155
-151
-146
-140
-134
-127
-120
-110
-100
-91
-82
-74
-65
-57
-51
-46
-40
-35
-31
-27
-25
-24
-22
-20
-19
-18
-17
-16
-15
-15
-15
-15
-15
-13
-13
-13
-13
-13
-13
-13
-11
-9
-10
-11
-10
-9
-9
-9
-8
-7
-8
-9
-9
-9
-9
-9
-8
-7
-7
-7
-7
-7
-7
-7
-8
-9
-10
-11
-10
-9
-9
-9
-8
-7
-7
-9
-9
-9
-9
-9
-9
-10
-11
-11
-11
-10
-9
-9
-9
-8
-7
-8
-9
-9
-9
-8
-7
-8
-9
-9
-9
-9
-8
-6
-5
-6
-7
-7
-7
-7
-7
-6
-7
-10
-10
-8
-7
-7
-6
-5
-5
-5
-6
-7
-6
-5
-4
-3
-3
-3
1
3
3
3
5
7
8
10
12
14
16
17
17
16
14
12
10
8
6
5
4
0
-4
-5
-5
-5
-6
-7
-7
-7
-7
-8
-9
-9
-9
-8
-7
-7
-7
-7
-7
-7
-7
-7
-7
-9
-12
-15
-7
14
49
95
145
199
211
198
149
84
18
-47
-56
-47
-31
-12
-5
0
1
0
-1
-1
-3
-3
-3
-3
-3
-3
-2
-1
-2
-3
-1
1
1
1
2
3
4
5
5
5
6
7
8
9
10
11
12
13
14
15
16
18
20
21
21
22
24
26
28
30
32
35
37
39
41
42
43
44
45
46
47
48
49
49
49
47
45
43
40
36
31
26
21
17
13
9
6
3
0
-2
-4
-6
-7
-8
-9
-9
-9
-9
-9
-9
-9
-10
-11
-9
-9
-9
-9
-9
-8
-7
-7
-7
-7
-7
-6
-5
-5
-5
-4
-3
-4
-5
-5
-5
-5
-5
-5
-5
-5
-5
-5
-5
-5
-5
-6
-7
-7
-8
-10
-10
-8
-7
-8
-9
-9
-9
-9
-8
-7
-7
-7
-6
-5
-4
-3
-1
1
2
3
3
3
5
7
9
11
11
10
8
6
3
0
-2
-4
-6
-7
-8
-10
-12
-13
-13
-13
-13
-13
-14
-15
-15
-14
-13
-14
-15
-15
-15
-14
-13
-13
-13
-12
-11
-11
-12
-19
-20
-11
7
38
80
136
179
209
192
135
73
7
-35
-64
-58
-35
-20
-6
-3
-3
-3
-4
-5
-6
-7
-7
-7
-7
-6
-5
-6
-7
-5
-3
-3
-3
-3
-3
-1
1
1
1
2
3
4
5
4
3
6
8
10
11
12
14
16
17
17
19
22
23
24
25
26
28
30
32
34
36
35
40
41
42
43
44
45
44
43
39
35
32
28
24
20
15
10
6
2
-2
-6
-9
-12
-15
-17
-18
-19
-19
-19
-19
-19
-20
-21
-21
-21
-21
-21
-21
-21
-21
-21
-21
-20
-19
-19
-19
-19
-19
-19
-19
-19
-19
-18
-17
-18
-19
-18
-17
-17
-17
-16
-15
-16
-17
-17
-17
-17
-17
-18
-19
-20
-21
-21
-21
-20
-19
-18
-17
-18
-19
-20
-21
-21
-21
-19
-19
-19
-17
-15
-13
-11
-10
-9
-8
-7
-6
-5
-2
1
1
0
-3
-5
-5
-6
-11
-13
-14
-15
-16
-18
-20
-22
-24
-24
-22
-23
-26
-27
-26
-25
-24
-23
-23
-23
-23
-24
-25
-24
-23
-22
-21
-21
-21
-24
-27
-27
-21
3
34
82
129
173
189
163
119
53
-8
-65
-82
-66
-47
-27
-16
-11
-11
-14
-15
-15
-15
-16
-17
-16
-15
-15
-15
-15
-14
-13
-12
-11
-11
-11
-11
-11
-10
-9
-8
-7
-7
-7
-6
-5
-3
-1
0
1
2
4
6
7
8
10
12
13
13
15
18
20
22
24
26
28
30
31
31
31
32
33
35
34
33
32
31
28
25
21
17
13
8
3
-2
-6
-10
-13
-16
-19
-21
-22
-23
-23
-23
-23
-23
-23
-23
-24
-25
-25
-25
-24
-24
-26
-27
-26
-25
-24
-23
-22
-21
-21
-21
-21
-21
-21
-21
-21
-21
-21
-21
-21
-20
-19
-19
-19
-19
-19
-20
-21
-21
-21
-21
-21
-22
-23
-23
-23
-22
-21
-21
-21
-21
-21
-21
-21
-22
-23
-22
-22
-24
-23
-20
-18
-17
-16
-15
-13
-11
-11
-11
-10
-9
-6
-3
-4
-5
-5
-5
-5
-6
-9
-11
-13
-16
-19
-21
-22
-23
-23
-24
-26
-27
-27
-27
-26
-25
-25
-25
-25
-25
-26
-27
-26
-25
-25
-25
-25
-25
-25
-24
-23
-27
-30
-25
-15
12
45
96
144
188
201
164
115
49
-10
-64
-79
-60
-41
-24
-16
-14
-14
-16
-17
-18
-19
-18
-17
-18
-19
-18
-17
-16
-15
-15
-12
-11
-11
-11
-11
-11
-10
-9
-9
-9
-8
-7
-5
-3
-2
-1
1
3
3
3
4
6
8
9
10
12
14
17
20
21
22
25
28
29
30
32
34
35
36
37
37
38
39
37
35
31
27
22
17
11
6
1
-3
-6
-10
-14
-17
-19
-21
-22
-23
-24
-25
-25
-25
-26
-27
-27
-27
-27
-27
-28
-29
-28
-27
-27
-27
-28
-28
-26
-25
-26
-27
-25
-26
-27
-26
-25
-24
-23
-23
-23
-23
-23
-22
-21
-22
-23
-23
-23
-25
-27
-26
-25
-25
-25
-24
-23
-23
-23
-24
-25
-26
-27
-26
-26
-28
-29
-28
-27
-26
-25
-25
-25
-25
-26
-27
-26
-25
-24
-23
-23
-23
-21
-19
-17
-15
-14
-13
-12
-11
-9
-7
-6
-5
-5
-6
-8
-9
-10
-12
-15
-17
-18
-20
-22
-23
-24
-25
-26
-27
-27
-27
-28
-29
-29
-29
-29
-28
-27
-27
-27
-27
-27
-27
-27
-27
-27
-26
-25
-26
-28
-32
-28
-11
17
58
106
160
188
196
161
95
30
-36
-61
-69
-55
-32
-23
-17
-16
-18
-19
-20
-21
-21
-21
-21
-21
-21
-21
-21
-20
-19
-19
-19
-18
-17
-16
-15
-15
-15
-14
-13
-12
-11
-11
-11
-8
-7
-6
-4
-2
-1
0
1
2
3
4
6
8
9
10
13
16
18
20
23
21
28
29
30
31
32
33
33
33
32
31
28
24
19
14
10
5
-1
-6
-10
-14
-19
-22
-25
-27
-28
-29
-30
-31
-31
-31
-31
-31
-32
-33
-33
-33
-33
-33
-34
-35
-34
-33
-33
-32
-31
-30
-29
-30
-31
-31
-31
-29
-27
-29
-31
-30
-29
-29
-29
-28
-27
-28
-29
-29
-29
-29
-29
-29
-30
-32
-33
-32
-31
-31
-31
-31
-31
-31
-31
-31
-31
-31
-31
-31
-32
-33
-33
-33
-33
-33
-32
-31
-32
-33
-33
-33
-32
-31
-29
-27
-26
-25
-25
-25
-22
-21
-20
-19
-18
-16
-14
-13
-12
-11
-12
-13
-13
-16
-20
-21
-22
-24
-26
-28
-27
-32
-33
-34
-35
-34
-33
-33
-33
-35
-37
-36
-35
-35
-35
-35
-35
-34
-33
-33
-33
-33
-33
-32
-33
-39
-38
-32
-9
21
69
123
167
208
172
114
50
-15
-53
-86
-68
-46
-34
-23
-23
-23
-25
-27
-27
-27
-27
-27
-27
-27
-27
-27
-26
-25
-24
-23
-22
-21
-21
-21
-20
-19
-19
-19
-18
-17
-16
-15
-14
-13
-12
-10
-8
-7
-6
-4
-2
-1
0
2
5
5
5
7
9
13
17
18
19
21
23
24
25
27
29
30
31
29
26
23
20
17
13
8
3
-1
-6
-11
-15
-19
-22
-24
-27
-30
-31
-31
-31
-32
-33
-33
-33
-33
-34
-35
-35
-35
-34
-33
-34
-35
-34
-33
-32
-31
-31
-31
-30
-29
-30
-31
-30
-29
-29
-29
-30
-31
-30
-29
-28
-27
-27
-27
-26
-25
-26
-27
-28
-29
-28
-28
-30
-31
-30
-29
-29
-28
-27
-28
-29
-29
-29
-29
-29
-29
-29
-29
-29
-30
-31
-30
-29
-29
-29
-29
-29
-29
-29
-29
-29
-28
-27
-27
-26
-24
-22
-20
-19
-19
-19
-19
-18
-16
-14
-12
-10
-7
-7
-7
-8
-9
-10
-11
-14
-17
-19
-21
-23
-25
-26
-27
-28
-29
-29
-29
-30
-31
-30
-29
-29
-29
-30
-31
-30
-29
-29
-29
-29
-28
-26
-25
-26
-28
-30
-31
-31
-5
-31
75
127
171
208
167
122
57
-6
-54
-86
-64
-43
-29
-19
-18
-17
-18
-19
-21
-23
-22
-21
-21
-21
-21
-21
-20
-19
-18
-17
-16
-15
-15
-15
-14
-13
-12
-11
-11
-10
-8
-7
-7
-5
-3
-2
-1
-1
-1
1
3
5
7
8
9
11
13
15
17
19
21
23
26
28
29
30
32
34
35
34
34
36
35
32
28
24
21
18
12
6
2
-2
-6
-11
-14
-17
-18
-19
-21
-23
-23
-23
-24
-25
-25
-25
-25
-25
-25
-25
-25
-25
-26
-27
-26
-25
-24
-23
-23
-23
-23
-23
-23
-23
-22
-21
-20
-19
-20
-21
-20
-19
-19
-19
-19
-16
-15
-13
-11
-10
-8
-1
6
13
25
54
80
99
117
132
145
159
173
190
210
233
249
258
254
238
213
184
162
145
131
119
82
37
1
-31
-48
-61
-63
-62
-61
-62
-62
-61
-61
-61
-60
-59
-58
-57
-56
-55
-54
-53
-54
-55
-56
-57
-58
-60
-64
-69
-74
-78
-80
-82
-85
-88
-90
-92
-96
-99
-103
-105
-106
-108
-110
-111
-112
-113
-114
-115
-114
-112
-109
-104
-99
-94
-89
-82
-74
-67
-60
-53
-46
-41
-37
-34
-31
-29
-27
-27
-27
-26
-25
-25
-25
-26
-27
-27
-27
-28
-29
-29
-29
-29
-29
-29
-29
-28
-27
-27
-27
-26
-25
-25
-25
-25
-25
-25
-25
-25
-26
-27
-26
-25
-24
-23
-23
-23
-22
-21
-22
-23
-23
-23
-22
-21
-22
-23
-23
-23
-23
-23
-22
-21
-20
-19
-20
-21
-21
-21
-21
-21
-22
-23
-22
-21
-21
-21
-21
-20
-19
-19
-19
-20
-21
-20
-19
-20
-21
-20
-19
-19
-19
-18
-17
-18
-19
-19
-19
-19
-19
-18
-17
-18
-19
-19
-19
-18
-17
-16
-15
-16
-17
-17
-17
-17
-17
-17
-17
-17
-17
-17
-16
-15
-16
-17
-16
-15
-15
-15
-15
-15
-15
-15
-16
-17
-17
-17
-16
-15
-15
-15
-15
-15
-15
-15
-14
-13
-14
-15
-15
-15
-15
-15
-15
-15
-15
-15
-15
-13
-13
-14
-15
-14
-13
-13
-13
-14
-15
-14
-13
-11
-9
-7
-5
-5
-5
-4
-3
-2
0
2
4
6
7
8
9
8
7
8
6
2
0
-2
-6
-10
-11
-11
-12
-14
-15
-15
-15
-15
-15
-15
-15
-15
-16
-17
-16
-15
-16
-17
-17
-17
-16
-17
-22
-19
-3
23
61
108
162
192
204
168
102
36
-29
-53
-61
-46
-23
-14
-6
-6
-8
-9
-10
-11
-11
-13
-15
-13
-11
-10
-9
-9
-9
-8
-7
-7
-7
-7
-7
-6
-5
-5
-5
-4
-3
-2
-1
0
2
4
5
5
5
5
6
8
9
10
11
12
15
18
19
20
22
21
26
27
28
29
31
33
33
33
34
35
36
37
37
37
36
35
33
30
26
22
19
16
13
9
3
0
-2
-3
-4
-6
-8
-9
-10
-11
-12
-13
-13
-13
-13
-13
-14
-14
-13
-12
-11
-11
-11
-10
-9
-9
-9
-10
-11
-10
-9
-10
-11
-9
-7
-8
-9
-9
-9
-8
-7
-8
-9
-9
-9
-9
-9
-10
-11
-11
-11
-11
-11
-12
-13
-12
-12
-14
-15
-15
-14
-13
-15
-17
-17
-17
-16
-15
-15
-15
-15
-15
-15
-15
-16
-17
-16
-15
-16
-17
-16
-14
-12
-11
-10
-8
-5
-3
-4
-5
-4
-1
2
3
3
3
4
5
5
5
5
-1
-5
-8
-11
-12
-13
-15
-17
-17
-17
-17
-17
-16
-15
-16
-17
-17
-17
-17
-17
-17
-17
-18
-19
-18
-17
-16
-15
-15
-18
-23
-13
3
38
78
132
188
196
198
138
73
7
-57
-57
-56
-35
-17
-11
-5
-7
-9
-9
-9
-10
-11
-11
-11
-10
-9
-9
-9
-8
-7
-7
-7
-6
-4
-2
-1
-2
-3
-2
0
2
3
4
5
5
5
6
7
8
10
13
14
15
16
17
19
21
23
25
27
29
31
33
34
35
37
39
40
41
42
43
44
45
45
45
44
42
39
34
29
24
19
14
10
5
0
-3
-6
-8
-10
-12
-11
-15
-15
-16
-17
-18
-19
-19
-19
-20
-21
-20
-19
-18
-17
-18
-19
-18
-17
-17
-17
-17
-17
-16
-15
-16
-17
-16
-15
-15
-15
-15
-15
-14
-13
-13
-13
-13
-13
-13
-13
-14
-15
-15
-15
-15
-15
-15
-15
-15
-15
-15
-15
-15
-15
-15
-16
-17
-16
-15
-16
-17
-16
-15
-16
-17
-17
-17
-16
-16
-18
-19
-18
-16
-14
-12
-10
-9
-8
-7
-7
-7
-6
-5
-3
-1
1
3
5
5
5
5
5
4
2
-2
-5
-8
-11
-12
-14
-17
-19
-18
-17
-17
-17
-17
-17
-17
-17
-18
-19
-19
-19
-19
-19
-20
-21
-20
-19
-18
-17
-16
-19
-15
-12
2
44
88
142
190
200
197
132
66
1
-49
-57
-57
-36
-20
-12
-7
-8
-9
-10
-11
-12
-13
-13
-13
-12
-11
-10
-9
-9
-9
-9
-9
-8
-7
-6
-5
-6
-6
-4
-3
-3
-2
-1
1
3
4
5
5
5
7
9
9
9
11
13
15
17
19
21
22
24
26
28
30
31
32
33
34
36
38
39
40
41
41
41
40
36
32
28
24
19
13
8
3
-1
-5
-8
-11
-13
-15
-17
-19
-19
-19
-20
-21
-21
-21
-22
-23
-23
-23
-23
-23
-22
-21
-21
-21
-21
-21
-21
-21
-20
-19
-18
-18
-20
-20
-18
-17
-17
-17
-17
-17
-17
-17
-17
-18
-19
-19
-19
-20
-21
-20
-19
-19
-19
-19
-19
-19
-19
-20
-21
-21
-21
-21
-21
-22
-23
-22
-21
-21
-21
-21
-21
-22
-23
-23
-23
-22
-21
-22
-23
-22
-21
-21
-20
-19
-17
-15
-15
-15
-13
-11
-11
-11
-11
-11
-7
-5
-3
-1
0
1
0
-1
-2
-5
-9
-11
-12
-15
-19
-21
-22
-23
-23
-23
-23
-23
-24
-25
-24
-23
-24
-25
-25
-25
-25
-25
-25
-24
-23
-23
-23
-23
-23
-24
-25
-28
-25
-5
25
71
119
172
191
174
131
65
1
-63
-78
-63
-44
-25
-17
-14
-13
-14
-16
-18
-19
-18
-17
-17
-17
-17
-15
-15
-15
-15
-14
-13
-12
-11
-12
-13
-12
-11
-9
-7
-7
-7
-5
-3
-3
-3
-2
0
2
3
2
2
4
7
10
11
12
15
18
19
19
21
24
26
28
29
30
31
31
32
33
34
35
35
35
32
29
25
20
15
10
5
0
-4
-8
-11
-13
-15
-18
-20
-21
-22
-23
-23
-23
-24
-25
-25
-25
-24
-23
-23
-23
-23
-23
-23
-23
-23
-23
-21
-23
-25
-23
-21
-21
-21
-20
-19
-19
-19
-20
-21
-20
-19
-18
-17
-19
-21
-20
-19
-19
-19
-20
-21
-21
-21
-21
-21
-21
-21
-21
-22
-24
-25
-24
-23
-23
-23
-22
-21
-21
-22
-23
-23
-23
-22
-21
-22
-23
-22
-21
-20
-19
-18
-17
-16
-15
-14
-13
-12
-11
-11
-11
-11
-9
-5
-2
0
1
0
-1
0
-2
-7
-10
-12
-16
-20
-22
-24
-25
-24
-24
-25
-24
-23
-23
-23
-24
-25
-25
-25
-25
-25
-26
-27
-26
-25
-24
-23
-22
-21
-23
-26
-29
-21
-1
33
78
126
175
183
171
119
54
-9
-72
-77
-69
-49
-27
-19
-12
-11
-13
-15
-17
-18
-19
-18
-17
-16
-15
-14
-13
-13
-13
-13
-13
-12
-11
-11
-11
-10
-9
-8
-7
-6
-5
-4
-3
-3
-3
-2
-1
0
2
4
5
5
7
10
11
12
15
13
20
21
23
25
27
29
29
29
31
33
34
35
35
35
35
34
31
28
24
20
15
11
6
1
-3
-6
-8
-11
-14
-16
-18
-19
-20
-22
-24
-25
-24
-23
-24
-25
-25
-24
-23
-23
-23
-23
-23
-23
-23
-23
-23
-22
-21
-21
-21
-22
-23
-22
-21
-20
-19
-19
-19
-18
-17
-18
-19
-19
-19
-19
-19
-20
-21
-20
-19
-19
-19
-20
-21
-20
-19
-20
-21
-21
-21
-21
-22
-23
-23
-23
-23
-23
-23
-23
-22
-21
-22
-23
-23
-23
-23
-23
-23
-23
-23
-23
-22
-20
-17
-15
-14
-13
-13
-13
-13
-12
-10
-9
-8
-5
-2
-1
-1
-1
-1
-3
-3
-7
-11
-14
-17
-19
-21
-23
-25
-24
-23
-24
-25
-25
-25
-24
-23
-25
-27
-27
-27
-27
-27
-27
-27
-26
-25
-24
-23
-23
-26
-30
-25
-17
12
45
98
153
184
214
159
101
36
-27
-58
-82
-57
-34
-23
-15
-16
-17
-18
-19
-21
-23
-22
-21
-20
-19
-19
-19
-18
-17
-16
-15
-15
-15
-14
-13
-13
-13
-12
-11
-10
-8
-6
-5
-5
-5
-4
-3
-1
0
1
2
3
6
9
11
13
14
15
18
21
22
24
27
29
29
29
31
33
34
35
36
37
36
34
31
25
19
14
9
3
-3
-7
-10
-14
-18
-20
-22
-23
-23
-27
-29
-29
-29
-29
-29
-30
-31
-31
-31
-30
-29
-29
-29
-29
-29
-29
-29
-29
-29
-29
-29
-30
-31
-30
-29
-28
-27
-26
-25
-24
-24
-26
-27
-27
-27
-26
-25
-26
-27
-27
-26
-25
-25
-25
-25
-25
-26
-27
-28
-29
-28
-27
-29
-31
-30
-29
-29
-29
-29
-29
-29
-29
-29
-29
-30
-30
-28
-28
-30
-31
-30
-29
-30
-30
-28
-26
-24
-23
-23
-22
-20
-19
-19
-20
-21
-16
-11
-9
-7
-7
-7
-8
-9
-10
-11
-14
-18
-21
-24
-27
-29
-29
-29
-29
-29
-30
-31
-32
-33
-32
-31
-31
-32
-34
-35
-34
-33
-33
-33
-32
-31
-31
-31
-31
-31
-31
-35
-38
-19
3
50
98
147
185
186
169
104
38
-28
-68
-65
-56
-37
-26
-23
-22
-24
-25
-26
-27
-27
-27
-26
-25
-25
-25
-24
-23
-23
-23
-22
-21
-21
-21
-21
-19
-17
-16
-15
-15
-15
-13
-11
-11
-11
-9
-7
-6
-5
-5
-5
-3
0
3
5
6
8
10
12
14
16
18
20
22
23
24
25
26
28
30
31
32
32
30
27
24
20
15
8
1
-4
-9
-12
-15
-18
-21
-23
-25
-27
-29
-30
-31
-32
-33
-34
-35
-35
-35
-34
-33
-33
-33
-32
-31
-31
-31
-31
-31
-31
-31
-32
-32
-30
-29
-29
-29
-28
-27
-27
-27
-27
-27
-27
-27
-27
-28
-29
-28
-27
-27
-27
-27
-27
-27
-27
-28
-29
-29
-29
-29
-29
-30
-31
-32
-32
-30
-29
-29
-29
-29
-29
-30
-31
-31
-31
-30
-29
-30
-31
-31
-30
-29
-29
-29
-29
-29
-28
-27
-25
-23
-22
-21
-20
-19
-19
-19
-17
-14
-11
-9
-8
-7
-6
-6
-8
-9
-9
-11
-15
-19
-22
-23
-24
-25
-26
-27
-28
-29
-30
-31
-30
-29
-29
-29
-29
-30
-31
-30
-29
-29
-29
-29
-29
-28
-27
-27
-28
-33
-33
-20
3
41
87
141
178
201
174
108
43
-23
-57
-75
-65
-41
-30
-23
-21
-20
-20
-22
-23
-22
-21
-21
-21
-21
-20
-19
-18
-17
-18
-19
-18
-17
-16
-15
-14
-13
-12
-11
-11
-11
-10
-9
-8
-7
-7
-6
-4
-3
-2
1
4
5
6
7
8
10
12
15
18
19
19
20
22
26
29
30
31
33
35
35
35
35
35
33
30
26
22
17
12
8
4
0
-4
-7
-11
-16
-19
-20
-21
-22
-24
-26
-27
-27
-27
-27
-27
-27
-27
-26
-25
-26
-27
-27
-27
-25
-26
-27
-26
-25
-24
-23
-23
-23
-23
-23
-23
-23
-23
-23
-22
-21
-22
-23
-22
-21
-21
-21
-21
-21
-21
-21
-21
-21
-22
-23
-23
-23
-23
-23
-24
-25
-24
-23
-23
-23
-23
-24
-23
-24
-25
-24
-23
-24
-25
-26
-27
-26
-25
-24
-23
-24
-25
-24
-23
-23
-23
-22
-21
-20
-19
-18
-16
-14
-13
-13
-13
-12
-8
-4
-3
-2
-1
-2
-3
-3
-5
-8
-11
-13
-16
-19
-20
-21
-23
-25
-25
-25
-25
-25
-26
-27
-27
-27
-27
-27
-27
-27
-26
-25
-25
-25
-26
-27
-26
-25
-25
-27
-31
-29
-23
2
31
83
139
176
210
157
95
30
-35
-63
-88
-63
-40
-28
-17
-16
-15
-16
-17
-18
-19
-19
-19
-18
-17
-18
-19
-19
-19
-18
-16
-14
-13
-13
-13
-12
-11
-11
-10
-8
-7
-8
-8
-6
-5
-4
-2
0
1
1
3
5
6
7
9
11
12
13
15
17
19
21
23
25
27
29
30
31
32
33
34
35
35
34
32
30
27
23
19
15
11
6
1
-4
-8
-11
-14
-17
-20
-21
-22
-24
-25
-24
-23
-23
-23
-24
-25
-25
-25
-24
-23
-24
-25
-25
-25
-24
-23
-22
-21
-21
-21
-21
-21
-21
-21
-20
-19
-20
-21
-21
-21
-20
-19
-19
-19
-20
-21
-20
-19
-19
-19
-21
-21
-21
-21
-21
-21
-21
-22
-23
-22
-21
-21
-21
-22
-23
-23
-23
-23
-23
-23
-23
-22
-21
-21
-21
-22
-23
-23
-23
-23
-23
-22
-21
-21
-20
-18
-17
-16
-15
-14
-13
-13
-10
-9
-6
-3
-2
-1
-1
-1
-2
-3
-3
-3
-5
-8
-12
-15
-17
-19
-20
-21
-22
-23
-22
-21
-22
-23
-23
-23
-23
-23
-23
-23
-23
-23
-23
-23
-23
-23
-23
-23
-22
-25
-29
-22
-13
15
48
105
158
192
206
145
82
17
-37
-62
-71
-47
-29
-18
-11
-12
-13
-14
-15
-16
-17
-16
-15
-16
-17
-16
-15
-14
-13
-12
-11
-10
-9
-10
-11
-10
-9
-7
-7
-7
-6
-5
-4
-3
-1
1
2
3
4
5
7
9
11
13
13
13
15
18
21
23
24
26
29
31
32
33
34
36
38
39
39
39
39
39
38
35
32
28
31
18
13
8
3
0
-3
-7
-11
-14
-17
-18
-19
-20
-21
-22
-23
-23
-23
-23
-23
-23
-23
-23
-23
-23
-23
-23
-23
-22
-21
-21
-21
-20
-19
-20
-20
-18
-17
-18
-19
-19
-19
-19
-18
-17
-17
-17
-18
-19
-19
-19
-18
-17
-18
-19
-19
-19
-19
-19
-19
-19
-19
-19
-19
-19
-20
-21
-20
-19
-19
-19
-20
-21
-21
-21
-21
-21
-21
-21
-20
-19
-19
-19
-19
-19
-19
-19
-19
-17
-15
-13
-11
-11
-11
-9
-7
-8
-8
-5
-3
-1
1
2
3
0
-1
0
0
-3
-6
-8
-11
-15
-17
-18
-19
-20
-21
-21
-21
-20
-19
-20
-21
-21
-21
-21
-21
-21
-21
-21
-21
-21
-21
-21
-20
-19
-19
-20
-25
-24
-10
14
51
96
150
187
208
181
115
50
-16
-47
-61
-50
-27
-17
-11
-9
-10
-11
-12
-13
-13
-13
-13
-12
-11
-11
-11
-10
-9
-8
-7
-7
-7
-6
-5
-6
-7
-5
-3
-2
-1
0
1
2
3
4
5
6
8
11
13
12
13
17
19
20
22
24
26
28
30
32
33
34
36
39
39
39
41
43
44
45
44
43
41
38
33
28
23
18
13
7
2
-2
-5
-8
-11
-13
-14
-15
-16
-17
-18
-19
-20
-21
-21
-21
-22
-23
-22
-21
-21
-21
-20
-19
-19
-19
-19
-18
-17
-16
-15
-17
-19
-18
-17
-16
-15
-15
-15
-14
-13
-14
-15
-15
-15
-14
-14
-16
-17
-17
-17
-16
-15
-15
-15
-15
-15
-16
-17
-17
-17
-17
-17
-18
-19
-19
-18
-17
-17
-17
-17
-17
-17
-17
-17
-17
-17
-17
-17
-17
-18
-19
-17
-15
-15
-15
-13
-11
-10
-9
-8
-7
-7
-7
-6
-4
-2
1
4
5
5
5
4
3
4
2
-2
-5
-9
-11
-13
-16
-19
-19
-19
-19
-19
-19
-19
-19
-19
-19
-19
-20
-21
-20
-19
-20
-21
-20
-19
-18
-17
-17
-17
-17
-20
-25
-17
-3
29
66
116
169
188
201
144
79
13
75
-57
-60
-39
-19
-13
-7
-9
-11
-12
-13
-13
-13
-12
-11
-11
-11
-10
-9
-10
-11
-10
-9
-8
-7
-8
-8
-6
-5
-4
-3
-3
-2
0
1
1
1
2
3
4
5
5
7
9
11
13
15
17
20
23
23
23
26
29
31
33
33
33
35
37
39
41
41
41
40
38
35
31
27
22
17
12
7
2
-2
-5
-8
-10
-12
-15
-18
-19
-20
-21
-21
-22
-23
-23
-23
-23
-23
-22
-21
-21
-21
-21
-21
-21
-21
-20
-19
-21
-23
-22
-21
-20
-19
-18
-17
-17
-17
-17
-17
-17
-17
-17
-17
-18
-19
-19
-19
-18
-17
-17
-17
-17
-18
-19
-20
-21
-20
-19
-20
-21
-21
-21
-21
-21
-20
-19
-20
-21
-22
-23
-22
-21
-21
-21
-22
-23
-22
-21
-21
-21
-20
-19
-18
-17
-16
-15
-14
-13
-12
-11
-12
-11
-8
-4
-1
-1
-1
-1
-1
-1
-1
-5
-9
-12
-16
-20
-23
-22
-21
-22
-23
-23
-23
-22
-22
-24
-25
-25
-25
-24
-24
-26
-27
-26
-25
-24
-23
-22
-21
-21
-23
-26
-27
-28
-10
11
57
104
154
197
176
147
82
17
-42
-84
-70
-53
-33
-18
-14
-12
-15
-17
-17
-17
-16
-15
-15
-15
-14
-13
-13
-13
-13
-13
-12
-11
-12
-13
-12
-10
-8
-7
-6
-5
-5
-3
-3
-2
-1
1
3
3
3
4
5
7
9
11
13
15
17
19
21
22
23
26
27
28
30
32
33
34
35
36
37
38
38
36
33
30
27
24
18
12
8
4
-1
-5
-8
-11
-13
-15
-17
-19
-19
-19
-20
-21
-23
-25
-24
-23
-22
-21
-21
-21
-21
-21
-21
-21
-21
-21
-21
-21
-22
-23
-22
-21
-20
-19
-19
-19
-18
-17
-17
-17
-18
-19
-17
-18
-19
-18
-17
-17
-17
-17
-17
-17
-17
-18
-19
-19
-19
-19
-19
-20
-21
-21
-21
-20
-19
-19
-19
-19
-19
-20
-21
-21
-21
-21
-21
-22
-23
-22
-21
-20
-18
-16
-15
-15
-12
-11
-11
-11
-10
-9
-7
-5
-3
-1
-1
-1
-1
-1
-1
-2
-5
-8
-11
-14
-17
-19
-20
-21
-22
-23
-23
-23
-22
-21
-22
-23
-23
-23
-24
-25
-24
-23
-24
-25
-24
-22
-21
-21
-21
-23
-25
-27
-26
-8
15
55
99
152
189
188
164
98
33
-33
-68
-65
-53
-33
-21
-17
-15
-16
-17
-17
-17
-18
-19
-19
-19
-18
-17
-16
-15
-15
-15
-15
-15
-13
-12
-11
-11
-11
-10
-9
-8
-7
-6
-5
-4
-3
-2
-1
0
1
3
5
5
5
8
10
13
15
16
18
21
24
26
28
30
31
32
34
36
37
37
37
38
39
39
36
33
28
23
18
13
8
3
-3
-7
-10
-13
-16
-19
-20
-21
-22
-23
-25
-27
-27
-27
-26
-26
-28
-29
-28
-27
-27
-27
-27
-27
-26
-25
-25
-25
-25
-25
-25
-25
-26
-26
-25
-24
-23
-23
-23
-22
-21
-21
-21
-21
-21
-20
-19
-19
-19
-18
-16
-13
-10
-7
-2
4
12
22
42
67
93
119
143
166
182
196
204
211
223
235
248
261
260
256
238
219
197
175
164
150
116
79
21
-28
-48
-63
-64
-65
-66
-67
-65
-63
-64
-65
-66
-67
-67
-68
-71
-74
-77
-82
-87
-90
-92
-94
-96
-98
-100
-101
-101
-102
-104
-106
-108
-111
-109
-118
-121
-125
-129
-132
-135
-138
-141
-144
-147
-148
-149
-148
-147
-147
-146
-142
-137
-132
-127
-120
-113
-105
-97
-89
-81
-72
-65
-58
-52
-47
-43
-40
-38
-36
-35
-34
-33
-33
-33
-32
-31
-31
-30
-29
-29
-29
-29
-29
-29
-29
-28
-27
-28
-29
-28
-27
-26
-25
-25
-25
-24
-23
-24
-25
-24
-23
-23
-23
-24
-25
-24
-23
-22
-21
-21
-21
-21
-21
-22
-23
-23
-23
-23
-24
-25
-24
-23
-23
-23
-23
-23
-22
-21
-22
-23
-23
-23
-23
-23
-24
-25
-24
-23
-23
-23
-22
-21
-21
-21
-22
-23
-23
-23
-22
-22
-24
-24
-22
-21
-22
-23
-22
-21
-21
-22
-23
-23
-23
-22
-21
-22
-23
-22
-21
-21
-21
-21
-21
-21
-21
-21
-21
-21
-21
-21
-21
-22
-23
-22
-21
-21
-21
-21
-21
-21
-21
-21
-21
-21
-21
-20
-19
-20
-21
-21
-21
-21
-20
-19
-19
-19
-19
-19
-19
-19
-19
-19
-20
-21
-20
-19
-17
-15
-14
-13
-12
-11
-11
-11
-10
-8
-5
-3
-2
-1
0
1
0
-1
0
-2
-6
-9
-12
-15
-18
-19
-21
-23
-25
-24
-23
-24
-25
-24
-23
-23
-23
-24
-25
-25
-25
-24
-23
-24
-25
-25
-26
-31
-27
-15
12
49
95
147
177
195
154
89
23
-42
-64
-75
-57
-34
-24
-16
-15
-15
-18
-21
-21
-21
-20
-19
-21
-23
-22
-21
-19
-17
-17
-17
-16
-15
-15
-15
-15
-15
-12
-12
-14
-14
-12
-11
-10
-8
-6
-5
-5
-5
-4
-2
0
1
2
3
3
5
8
10
11
13
15
17
19
19
19
21
23
25
27
26
25
26
27
27
27
26
25
23
19
14
9
5
2
-1
-6
-11
-13
-14
-17
-20
-21
-21
-21
-21
-21
-22
-23
-23
-23
-23
-24
-25
-23
-21
-21
-21
-20
-19
-19
-19
-19
-19
-19
-19
-19
-19
-20
-21
-20
-19
-19
-19
-19
-19
-19
-19
-19
-19
-19
-19
-19
-20
-22
-23
-22
-21
-22
-23
-22
-21
-21
-23
-23
-24
-25
-24
-23
-25
-27
-26
-25
-25
-25
-24
-23
-23
-23
-22
-21
-20
-19
-18
-17
-17
-17
-16
-14
-12
-9
-6
-5
-4
-3
-4
-5
-5
-7
-10
-14
-18
-20
-22
-23
-23
-24
-25
-25
-25
-26
-27
-27
-27
-26
-25
-28
-31
-29
-27
-27
-27
-26
-25
-24
-23
-24
-25
-25
-27
-31
-26
-13
17
54
104
159
180
192
141
76
12
-52
-65
-74
-55
-33
-24
-15
-16
-17
-18
-19
-19
-19
-19
-19
-18
-17
-17
-17
-16
-15
-15
-15
-14
-13
-13
-13
-12
-11
-10
-9
-8
-7
-6
-5
-4
-3
-3
-3
-2
0
2
4
6
8
7
11
11
13
15
17
19
20
21
23
25
27
29
31
33
34
35
35
35
33
31
30
27
23
19
15
11
7
3
-1
-5
-8
-12
-16
-17
-18
-20
-22
-24
-26
-27
-26
-24
-23
-24
-25
-25
-25
-25
-25
-24
-23
-23
-23
-24
-25
-23
-21
-22
-23
-22
-21
-20
-19
-20
-21
-21
-21
-20
-19
-20
-21
-21
-21
-20
-19
-18
-17
-18
-19
-20
-21
-21
-21
-21
-23
-25
-24
-23
-23
-23
-22
-21
-21
-21
-22
-23
-23
-23
-22
-21
-21
-21
-19
-17
-14
-13
-13
-13
-12
-11
-10
-7
-4
-3
-2
-2
-4
-5
-4
-5
-8
-10
-12
-15
-13
-20
-21
-22
-23
-24
-25
-25
-25
-25
-25
-25
-25
-24
-23
-23
-23
-24
-25
-24
-23
-23
-23
-23
-23
-23
-26
-31
-25
-13
17
55
102
152
177
196
144
79
13
-52
-68
-80
-56
-31
-22
-13
-13
-13
-15
-17
-18
-19
-18
-17
-18
-19
-17
-15
-15
-15
-14
-13
-12
-11
-11
-11
-10
-9
-8
-8
-10
-9
-6
-5
-5
-4
-2
-1
0
1
2
4
6
7
9
9
9
12
15
18
21
23
25
27
29
29
29
30
31
33
35
34
33
34
35
32
30
27
23
17
12
6
1
-2
-5
-10
-14
-18
-19
-20
-21
-21
-21
-22
-23
-23
-24
-25
-25
-25
-25
-25
-26
-27
-26
-25
-25
-25
-23
-21
-22
-23
-22
-21
-22
-23
-22
-22
-24
-24
-22
-21
-20
-19
-19
-19
-19
-19
-20
-21
-21
-21
-21
-21
-22
-23
-22
-21
-21
-21
-21
-21
-21
-22
-23
-23
-23
-22
-21
-23
-25
-24
-23
-21
-19
-18
-17
-15
-13
-13
-13
-13
-12
-10
-9
-8
-6
-4
-3
-4
-4
-2
-4
-8
-11
-14
-17
-20
-21
-21
-24
-27
-26
-25
-25
-25
-25
-25
-25
-25
-26
-27
-26
-25
-25
-25
-26
-27
-26
-25
-24
-23
-23
-25
-29
-28
-22
-1
27
72
124
165
202
168
117
53
-12
-51
-87
-66
-89
-28
-15
-14
-13
-14
-15
-17
-19
-18
-17
-16
-15
-15
-15
-14
-13
-13
-13
-13
-13
-12
-11
-11
-11
-10
-8
-6
-5
-4
-3
-2
-1
-1
-1
0
2
4
5
5
6
8
11
13
16
19
21
23
25
27
29
31
33
35
34
33
35
37
38
39
39
39
37
33
28
23
18
13
9
4
-3
-7
-10
-12
-14
-16
-18
-19
-19
-20
-22
-23
-23
-23
-23
-25
-27
-26
-25
-24
-23
-23
-23
-22
-21
-22
-23
-23
-23
-22
-21
-21
-21
-21
-21
-21
-21
-20
-19
-18
-17
-18
-19
-19
-19
-18
-18
-20
-21
-20
-19
-19
-19
-18
-17
-17
-18
-19
-19
-19
-19
-19
-21
-23
-22
-21
-21
-21
-20
-19
-19
-19
-19
-19
-17
-15
-14
-13
-13
-13
-12
-11
-10
-7
-4
-2
0
1
1
1
0
-1
-1
-5
-10
-11
-12
-16
-19
-19
-19
-20
-21
-21
-21
-22
-23
-22
-21
-22
-23
-24
-25
-24
-23
-23
-23
-23
-23
-22
-21
-22
-22
-20
-22
-27
-21
-9
21
57
109
165
194
218
164
99
33
-32
-53
-73
-50
-27
-19
-11
-11
-11
-12
-13
-14
-15
-15
-15
-14
-13
-13
-13
-12
-11
-11
-11
-10
-8
-6
-5
-5
-5
-4
-3
-3
-3
-2
0
2
3
3
4
6
8
10
11
11
15
17
18
19
21
23
25
27
30
33
35
37
39
41
43
45
47
49
49
49
49
48
45
41
35
30
24
19
15
10
5
0
-4
-7
-10
-12
-14
-15
-16
-17
-18
-18
-17
-17
-17
-17
-17
-18
-19
-19
-19
-18
-17
-18
-19
-18
-17
-17
-17
-16
-15
-14
-14
-16
-17
-16
-15
-14
-13
-14
-15
-14
-13
-13
-13
-13
-13
-12
-11
-12
-13
-13
-13
-13
-14
-15
-15
-15
-15
-15
-15
-15
-15
-15
-15
-15
-15
-15
-14
-13
-15
-17
-16
-15
-14
-13
-12
-10
-8
-7
-6
-5
-5
-5
-4
-3
-2
1
4
5
6
7
6
5
5
2
-1
-3
-5
-8
-11
-13
-15
-16
-17
-17
-17
-17
-17
-17
-17
-17
-17
-17
-17
-17
-17
-18
-19
-19
-19
-18
-17
-17
-17
-16
-17
-20
-20
-18
6
33
86
141
184
226
187
145
80
16
-35
-77
-56
-37
-23
-11
-10
-9
-10
-11
-12
-13
-13
-13
-11
-9
-9
-9
-9
-9
-9
-9
-8
-7
-7
-7
-6
-5
-4
-3
-2
-1
0
1
2
3
3
4
7
7
7
9
11
14
17
18
19
22
25
26
27
29
32
35
37
37
38
41
43
44
45
46
47
47
46
43
39
35
30
25
19
13
7
2
-1
-4
-7
-10
-12
-11
-16
-17
-18
-19
-19
-19
-21
-23
-23
-23
-22
-21
-21
-21
-20
-19
-20
-21
-21
-21
-20
-20
-22
-23
-22
-21
-20
-19
-18
-17
-16
-15
-16
-17
-17
-17
-16
-15
-16
-17
-16
-14
-13
-12
-11
-9
-7
-3
1
7
16
40
64
84
104
121
137
149
161
172
188
208
230
252
263
263
253
236
209
176
160
152
137
119
77
28
-4
-33
-45
-54
-55
-56
-57
-57
-57
-57
-55
-53
-53
-53
-53
-53
-53
-54
-58
-61
-64
-68
-72
-76
-79
-81
-82
-83
-86
-88
-90
-91
-92
-94
-97
-101
-105
-108
-110
-113
-116
-119
-122
-124
-126
-127
-127
-127
-127
-123
-121
-117
-113
-107
-101
-94
-88
-81
-74
-65
-58
-52
-46
-41
-37
-35
-33
-31
-29
-28
-27
-28
-29
-28
-27
-27
-27
-26
-25
-25
-25
-26
-27
-26
-25
-24
-24
-26
-27
-26
-24
-23
-22
-21
-21
-21
-21
-21
-21
-21
-20
-19
-20
-21
-20
-19
-20
-21
-20
-19
-18
-17
-18
-19
-19
-19
-19
-19
-20
-21
-21
-21
-20
-19
-18
-17
-17
-17
-18
-19
-19
-19
-19
-20
-21
-20
-19
-19
-19
-18
-17
-17
-17
-18
-19
-19
-19
-19
-19
-20
-21
-20
-19
-18
-17
-17
-17
-17
-17
-17
-17
-17
-17
-17
-17
-18
-19
-18
-17
-16
-15
-15
-15
-15
-16
-17
-17
-17
-16
-15
-16
-17
-17
-17
-16
-15
-15
-15
-14
-13
-14
-15
-15
-15
-15
-15
-16
-17
-16
-15
-14
-13
-13
-13
-13
-13
-14
-15
-14
-13
-13
-13
-14
-15
-14
-13
-13
-13
-13
-12
-11
-11
-11
-11
-11
-9
-7
-6
-5
-5
-5
-4
-3
-2
0
3
6
9
11
10
9
9
9
8
5
2
1
0
-4
-8
-9
-10
-11
-12
-13
-14
-15
-15
-15
-15
-15
-15
-15
-15
-16
-17
-16
-15
-14
-13
-14
-16
-19
-19
-14
1
28
67
117
158
191
179
133
75
9
-35
-69
-63
-41
-25
-10
-7
-6
-6
-8
-9
-10
-11
-11
-10
-9
-10
-11
-10
-9
-8
-7
-8
-9
-8
-7
-7
-7
-5
-3
-2
-1
-1
-1
0
1
2
3
3
4
6
7
8
9
10
12
14
16
18
19
19
20
22
23
24
27
29
31
33
34
35
35
35
36
37
36
35
33
31
29
26
23
20
17
14
11
7
3
0
-2
-4
-6
-8
-12
-13
-12
-11
-12
-13
-13
-13
-13
-13
-13
-13
-13
-13
-11
-12
-13
-12
-11
-11
-11
-10
-9
-8
-7
-8
-9
-9
-9
-9
-9
-10
-11
-11
-11
-11
-11
-10
-9
-10
-11
-12
-13
-12
-11
-11
-12
-14
-15
-16
-17
-16
-15
-14
-13
-13
-15
-15
-16
-17
-16
-15
-16
-17
-17
-17
-16
-15
-14
-13
-13
-13
-11
-9
-9
-9
-8
-7
-8
-7
-3
0
2
3
4
5
4
3
2
-1
-4
-6
-8
-13
-18
-19
-19
-19
-19
-19
-19
-19
-19
-20
-21
-22
-23
-22
-21
-22
-23
-22
-21
-20
-19
-19
-19
-18
-18
-20
-22
-25
-15
7
42
85
132
180
187
179
126
61
-4
-68
-71
-64
-43
-20
-14
-7
-10
-13
-14
-15
-14
-13
-13
-13
-12
-11
-11
-11
-11
-11
-11
-11
-11
-11
-10
-9
-8
-7
-6
-4
-2
-1
-2
-2
0
1
2
3
3
3
4
6
8
10
12
14
13
19
21
22
23
25
27
28
29
31
33
35
37
39
41
41
41
39
36
33
30
25
20
14
9
5
1
-3
-7
-10
-12
-14
-17
-20
-21
-22
-23
-23
-24
-26
-27
-26
-25
-25
-25
-25
-24
-23
-24
-25
-25
-25
-24
-23
-24
-25
-25
-25
-24
-23
-22
-21
-21
-21
-22
-23
-22
-21
-21
-22
-24
-24
-22
-21
-21
-21
-21
-21
-21
-21
-22
-23
-24
-25
-23
-24
-25
-24
-23
-24
-25
-25
-25
-24
-23
-24
-25
-25
-25
-25
-25
-26
-27
-26
-25
-24
-23
-22
-21
-20
-19
-18
-17
-16
-15
-14
-13
-12
-10
-8
-7
-6
-5
-6
-7
-7
-9
-13
-15
-17
-20
-23
-26
-29
-29
-29
-29
-29
-28
-27
-28
-29
-29
-29
-29
-29
-29
-30
-32
-32
-30
-29
-29
-29
-28
-27
-28
-32
-36
-22
-3
37
80
128
177
188
196
133
67
2
-59
-66
-71
-49
-30
-24
-19
-19
-19
-22
-25
-25
-25
-24
-23
-23
-23
-22
-21
-21
-21
-20
-19
-19
-19
-19
-19
-18
-17
-16
-15
-14
-13
-12
-10
-8
-7
-6
-5
-5
-4
-3
-1
1
2
3
6
9
11
13
15
17
19
21
23
25
26
27
29
31
34
35
35
35
36
36
33
28
23
18
13
7
1
-5
-10
-13
-16
-19
-22
-24
-23
-28
-29
-30
-31
-32
-33
-33
-33
-34
-35
-34
-33
-33
-33
-33
-33
-32
-31
-32
-33
-32
-31
-31
-31
-31
-31
-31
-31
-30
-29
-28
-27
-27
-27
-28
-29
-28
-27
-28
-29
-28
-28
-29
-28
-27
-28
-29
-29
-29
-30
-31
-30
-29
-30
-31
-31
-31
-31
-31
-30
-29
-29
-29
-29
-29
-30
-31
-30
-30
-32
-33
-32
-31
-30
-28
-26
-24
-22
-21
-21
-21
-20
-19
-17
-16
-15
-12
-9
-9
-9
-9
-9
-9
-10
-14
-17
-20
-23
-24
-26
-29
-31
-31
-31
-31
-31
-30
-29
-29
-29
-30
-31
-32
-32
-30
-30
-32
-33
-32
-31
-30
-29
-28
-28
-27
-31
-30
-7
19
64
109
156
193
177
150
85
20
-44
-82
-67
-51
-35
-24
-21
-19
-20
-22
-24
-25
-24
-23
-23
-23
-22
-21
-20
-19
-19
-19
-19
-19
-18
-17
-17
-17
-16
-14
-13
-11
-9
-8
-7
-7
-7
-6
-5
-3
-1
-1
-1
1
4
7
9
10
12
15
17
18
20
22
24
27
29
30
31
32
34
36
37
38
39
39
36
32
27
22
18
13
6
-1
-5
-9
-12
-15
-18
-21
-22
-23
-25
-27
-27
-27
-27
-27
-29
-31
-31
-31
-30
-29
-28
-27
-27
-27
-27
-27
-27
-27
-27
-27
-27
-27
-27
-27
-26
-25
-24
-23
-23
-23
-23
-23
-23
-23
-23
-24
-25
-24
-23
-23
-23
-23
-23
-23
-23
-23
-23
-24
-25
-24
-24
-26
-27
-26
-25
-24
-23
-23
-23
-24
-25
-25
-25
-25
-25
-25
-26
-28
-28
-26
-24
-23
-23
-23
-21
-19
-18
-17
-17
-17
-15
-13
-13
-13
-12
-10
-7
-5
-4
-3
-3
-3
-3
-4
-6
-8
-10
-12
-16
-19
-22
-23
-24
-25
-25
-25
-25
-25
-24
-23
-24
-25
-27
-26
-25
-27
-29
-28
-27
-27
-27
-26
-25
-24
-23
-26
-29
-30
-21
6
42
91
140
188
196
166
116
50
-10
-68
-74
-53
-36
-21
-17
-16
-16
-18
-19
-19
-19
-19
-19
-19
-17
-17
-17
-17
-16
-15
-15
-15
-15
-15
-14
-13
-11
-9
-8
-7
-6
-5
-5
-5
-4
-3
-2
-1
0
2
4
6
8
10
12
14
16
18
20
22
24
25
26
29
32
35
37
38
39
40
41
40
39
36
33
30
26
20
14
10
6
1
-4
-7
-9
-11
-15
-19
-21
-22
-23
-23
-24
-28
-29
-28
-27
-26
-25
-24
-23
-23
-23
-24
-25
-25
-25
-23
-24
-25
-25
-25
-24
-23
-23
-23
-22
-21
-22
-23
-22
-21
-21
-21
-22
-23
-22
-21
-21
-21
-21
-21
-21
-21
-21
-21
-21
-21
-22
-23
-24
-25
-25
-25
-25
-25
-24
-23
-23
-23
-23
-23
-23
-22
-21
-23
-25
-24
-23
-23
-23
-22
-21
-19
-17
-17
-17
-16
-15
-14
-13
-13
-12
-9
-6
-3
-1
-1
-1
-1
-1
-2
-5
-8
-10
-12
-17
-22
-23
-23
-22
-21
-22
-23
-23
-23
-24
-25
-25
-25
-25
-25
-26
-27
-26
-25
-25
-25
-24
-23
-22
-21
-21
-23
-28
-25
-14
11
43
87
137
171
198
159
100
35
-30
-57
-79
-58
-32
-22
-11
-13
-15
-15
-15
-15
-15
-15
-15
-14
-13
-13
-13
-13
-13
-12
-11
-12
-13
-12
-11
-8
-7
-6
-5
-4
-3
-3
-3
-2
-1
0
1
2
3
4
6
8
10
12
13
13
17
19
21
23
26
29
30
31
32
33
35
37
39
41
42
43
42
40
37
35
32
28
21
16
13
8
3
-1
-4
-7
-10
-12
-14
-16
-18
-19
-20
-21
-22
-23
-22
-21
-21
-22
-23
-22
-21
-21
-21
-21
-21
-21
-21
-22
-23
-22
-21
-20
-19
-19
-19
-18
-17
-18
-19
-19
-19
-18
-17
-18
-19
-18
-17
-17
-17
-17
-17
-17
-17
-18
-19
-19
-19
-17
-18
-19
-20
-21
-21
-21
-21
-21
-20
-19
-19
-19
-19
-19
-20
-21
-20
-19
-20
-21
-21
-21
-20
-18
-16
-14
-12
-11
-11
-11
-10
-9
-9
-9
-8
-4
0
1
2
3
3
3
5
1
-3
-5
-7
-11
-15
-17
-19
-18
-17
-18
-19
-19
-19
-19
-19
-19
-19
-19
-19
-19
-20
-22
-23
-22
-21
-20
-19
-18
-17
-16
-18
-22
-23
-22
3
31
76
122
167
210
171
130
65
2
-44
-79
-56
-34
-19
-7
-6
-5
-9
-11
-11
-11
-11
-11
-10
-9
-8
-7
-7
-7
-7
-6
-4
-3
-4
-5
-4
-3
-2
-1
0
1
2
3
4
6
9
9
9
10
11
14
17
18
19
21
23
25
27
30
33
35
37
37
38
41
43
46
47
48
49
50
50
48
45
42
39
34
28
21
15
10
6
2
0
-2
-5
-3
-11
-13
-14
-15
-15
-15
-17
-19
-18
-17
-17
-17
-16
-15
-15
-15
-15
-15
-15
-15
-15
-15
-15
-15
-15
-15
-14
-13
-12
-11
-11
-11
-11
-11
-11
-11
-10
-9
-10
-11
-11
-11
-11
-10
-9
-9
-9
-10
-11
-11
-11
-11
-11
-12
-13
-13
-13
-13
-13
-12
-11
-12
-13
-13
-13
-13
-13
-13
-13
-13
-13
-13
-13
-12
-11
-11
-11
-11
-11
-11
-9
-6
-5
-3
-3
-3
-2
-1
0
1
5
9
10
11
10
9
9
9
7
4
1
-2
-5
-7
-10
-11
-11
-11
-12
-13
-14
-15
-15
-15
-14
-14
-16
-17
-16
-15
-15
-15
-15
-15
-15
-13
-13
-12
-11
-14
-17
-19
-17
6
36
84
133
183
212
197
163
97
32
-34
-63
-50
-35
-19
-10
-7
-5
-6
-7
-7
-7
-7
-7
-7
-7
-7
-7
-6
-5
-6
-7
-6
-4
-3
-2
-1
0
1
1
1
2
3
4
5
5
5
7
9
11
13
14
15
16
18
21
23
24
26
29
31
32
34
36
38
40
43
46
47
48
50
52
53
54
55
53
49
45
41
37
31
25
20
14
9
5
2
-2
-6
-9
-11
-13
-14
-15
-16
-17
-17
-17
-17
-17
-18
-19
-19
-19
-19
-19
-19
-19
-19
-19
-20
-20
-18
-17
-17
-17
-17
-16
-15
-16
-17
-16
-15
-14
-13
-14
-15
-14
-13
-13
-13
-13
-13
-12
-11
-9
-6
-3
2
8
16
25
47
78
101
121
137
153
165
176
190
204
226
248
259
268
255
240
211
183
166
149
145
135
87
41
4
-28
-43
-55
-56
-57
-58
-59
-58
-57
-57
-57
-57
-56
-54
-53
-52
-51
-51
-51
-52
-53
-54
-56
-58
-61
-64
-69
-74
-76
-78
-82
-86
-88
-91
-94
-97
-101
-105
-107
-109
-111
-113
-116
-119
-120
-121
-121
-120
-117
-114
-110
-106
-102
-96
-87
-79
-71
-64
-58
-52
-47
-43
-39
-35
-30
-29
-29
-29
-28
-27
-26
-25
-25
-25
-25
-26
-27
-27
-27
-27
-27
-27
-27
-27
-27
-26
-25
-24
-23
-23
-23
-23
-23
-23
-23
-22
-21
-22
-23
-22
-21
-20
-19
-19
-19
-18
-17
-18
-19
-19
-19
-18
-18
-20
-20
-18
-18
-19
-18
-17
-17
-17
-18
-19
-18
-17
-17
-17
-19
-21
-20
-19
-19
-19
-17
-15
-15
-15
-16
-17
-17
-17
-17
-17
-18
-19
-18
-17
-17
-17
-16
-15
-15
-15
-15
-15
-16
-17
-15
-17
-19
-18
-17
-16
-15
-15
-15
-15
-15
-15
-15
-15
-15
-15
-15
-14
-13
-14
-15
-15
-15
-14
-13
-14
-15
-14
-13
-14
-15
-14
-13
-13
-13
-14
-15
-14
-13
-13
-13
-13
-14
-13
-13
-13
-13
-13
-12
-11
-12
-13
-13
-13
-12
-11
-11
-11
-11
-11
-12
-13
-13
-13
-13
-13
-13
-13
-13
-12
-10
-9
-8
-6
-4
-3
-3
-3
-2
-1
-1
1
4
7
9
10
11
11
11
8
5
3
1
-2
-5
-8
-11
-12
-13
-14
-15
-14
-13
-13
-13
-14
-15
-15
-15
-15
-15
-16
-17
-17
-16
-14
-14
-16
-18
-20
-6
11
52
95
146
197
187
173
108
42
-22
-76
-64
-51
-31
-14
-8
-3
-6
-9
-9
-9
-11
-13
-12
-11
-8
-7
-7
-7
-7
-7
-7
-7
-7
-7
-6
-5
-5
-5
-5
-4
-2
0
2
3
3
3
3
4
5
6
7
9
11
12
13
15
17
19
21
22
23
25
27
27
27
30
31
32
33
33
34
36
37
38
39
38
37
36
33
30
27
24
20
16
11
6
3
1
-1
-3
-6
-9
-9
-9
-11
-13
-14
-15
-15
-15
-15
-15
-14
-13
-13
-13
-13
-13
-12
-11
-11
-11
-10
-9
-10
-11
-11
-11
-10
-9
-9
-9
-10
-11
-10
-9
-9
-9
-11
-11
-11
-12
-13
-13
-13
-13
-13
-14
-15
-15
-15
-16
-17
-16
-15
-16
-17
-18
-19
-18
-17
-17
-17
-17
-17
-17
-17
-18
-19
-19
-19
-19
-19
-18
-15
-12
-11
-10
-9
-9
-7
-7
-6
-5
-2
1
1
1
1
1
1
1
-1
-3
-5
-8
-12
-15
-17
-19
-19
-20
-22
-23
-22
-21
-21
-21
-21
-21
-21
-21
-22
-23
-22
-21
-21
-21
-22
-23
-22
-22
-23
-26
-28
-7
16
63
110
157
191
177
150
85
19
-45
-85
-76
-61
-34
-17
-12
-9
-10
-12
-14
-15
-14
-13
-14
-15
-14
-13
-12
-11
-11
-11
-11
-11
-11
-11
-10
-9
-7
-6
-5
-5
-5
-4
-3
-2
-1
0
1
2
3
4
5
6
7
9
11
12
13
16
18
20
22
25
27
28
29
30
31
32
34
36
37
37
37
37
37
36
32
35
24
21
15
9
5
1
-2
-5
-11
-15
-17
-19
-20
-21
-22
-23
-23
-23
-24
-25
-25
-25
-25
-25
-26
-27
-26
-25
-25
-25
-25
-25
-24
-23
-23
-23
-23
-23
-23
-23
-24
-24
-23
-23
-23
-23
-23
-22
-21
-22
-23
-23
-23
-23
-23
-24
-25
-24
-23
-24
-25
-25
-25
-25
-25
-25
-25
-25
-25
-25
-26
-28
-28
-26
-25
-25
-25
-25
-25
-24
-23
-22
-21
-19
-18
-17
-16
-15
-14
-13
-11
-9
-7
-5
-5
-5
-5
-5
-7
-10
-13
-16
-20
-23
-24
-25
-25
-26
-29
-31
-30
-29
-29
-29
-29
-29
-30
-31
-31
-31
-31
-31
-31
-30
-31
-28
-29
-29
-29
-34
-37
-18
5
48
93
147
187
189
170
104
39
-27
-68
-78
-71
-46
-29
-21
-17
-18
-20
-22
-23
-23
-23
-23
-23
-22
-21
-22
-22
-20
-19
-19
-19
-19
-18
-17
-17
-17
-15
-13
-12
-11
-11
-11
-10
-9
-8
-7
-6
-5
-4
-3
-1
1
3
6
8
9
10
12
14
16
20
21
22
25
28
30
32
33
34
35
36
37
37
36
33
30
27
20
13
8
3
-2
-7
-11
-15
-18
-21
-24
-27
-29
-31
-32
-33
-34
-35
-35
-35
-34
-33
-34
-35
-34
-33
-34
-35
-34
-33
-33
-33
-33
-33
-32
-31
-32
-33
-33
-31
-31
-31
-31
-30
-29
-29
-29
-30
-31
-30
-29
-29
-29
-29
-29
-29
-29
-29
-29
-29
-29
-29
-30
-32
-33
-32
-31
-31
-31
-31
-31
-31
-31
-31
-31
-31
-31
-32
-33
-33
-31
-29
-27
-25
-24
-23
-22
-21
-20
-19
-18
-17
-15
-13
-12
-11
-10
-9
-9
-9
-10
-12
-15
-18
-20
-22
-25
-28
-30
-31
-32
-33
-32
-31
-31
-31
-31
-31
-31
-31
-32
-33
-31
-32
-33
-32
-31
-30
-29
-29
-29
-33
-37
-34
-24
2
36
87
137
185
199
166
118
52
-10
-68
-82
-63
-45
-27
-21
-20
-20
-22
-23
-23
-23
-24
-24
-22
-21
-21
-21
-21
-20
-19
-19
-19
-18
-17
-16
-15
-15
-15
-13
-11
-11
-11
-10
-9
-7
-5
-4
-3
-2
0
2
3
3
4
7
10
12
14
16
19
22
24
26
29
32
34
36
37
37
39
41
42
43
41
39
36
32
26
20
14
8
3
-2
-7
-12
-15
-17
-19
-21
-23
-25
-26
-27
-28
-29
-29
-29
-29
-29
-30
-30
-28
-27
-27
-27
-28
-29
-28
-27
-27
-27
-27
-27
-27
-27
-27
-26
-25
-25
-25
-24
-23
-24
-25
-25
-25
-24
-23
-24
-25
-25
-25
-24
-23
-24
-25
-24
-23
-24
-25
-25
-25
-25
-25
-26
-27
-26
-25
-25
-25
-25
-25
-25
-24
-25
-26
-27
-26
-25
-25
-25
-22
-19
-18
-17
-15
-13
-13
-13
-13
-12
-9
-7
-4
-3
-4
-5
-5
-5
-6
-8
-10
-13
-16
-20
-24
-25
-25
-25
-25
-26
-28
-29
-29
-29
-29
-28
-27
-27
-27
-27
-27
-27
-27
-27
-27
-26
-25
-26
-27
-28
-29
-29
-18
6
43
92
141
191
199
177
128
62
-4
-69
-75
-59
-42
-24
-19
-16
-16
-18
-19
-19
-19
-19
-20
-21
-20
-19
-18
-17
-16
-15
-15
-15
-14
-13
-12
-11
-10
-9
-10
-11
-10
-9
-6
-5
-4
-2
0
1
1
1
2
5
8
9
9
11
14
17
20
22
24
26
25
31
33
35
37
39
41
40
39
40
41
40
39
36
31
25
19
13
7
2
-2
-5
-9
-14
-18
-20
-21
-22
-23
-24
-25
-25
-25
-26
-27
-27
-27
-27
-27
-27
-27
-27
-27
-27
-26
-25
-25
-25
-25
-25
-26
-27
-25
-23
-24
-25
-25
-25
-25
-25
-23
-21
-22
-23
-23
-23
-23
-23
-23
-23
-23
-23
-24
-25
-24
-23
-23
-23
-23
-23
-23
-23
-23
-23
-25
-25
-25
-25
-25
-24
-23
-23
-23
-24
-25
-25
-25
-25
-25
-23
-21
-19
-17
-18
-19
-16
-15
-14
-12
-10
-8
-5
-3
-3
-3
-4
-5
-4
-6
-10
-11
-12
-15
-18
-20
-19
-23
-23
-24
-25
-25
-25
-25
-25
-27
-29
-28
-27
-26
-25
-25
-25
-25
-25
-25
-25
-25
-25
-24
-24
-27
-29
-29
-15
6
47
96
143
189
190
177
120
55
-11
-76
-76
-70
-47
-25
-18
-11
-13
-15
-16
-17
-17
-17
-17
-17
-16
-15
-15
-15
-15
-15
-14
-13
-13
-12
-10
-9
-9
-9
-8
-7
-7
-7
-6
-5
-4
-2
0
1
2
4
6
7
8
10
13
15
17
18
19
21
23
26
29
31
33
35
37
39
41
42
43
43
42
39
37
34
31
26
20
14
9
5
0
-5
-9
-14
-15
-16
-19
-22
-23
-23
-23
-23
-23
-23
-24
-23
-23
-23
-23
-23
-23
-23
-23
-23
-23
-23
-22
-21
-22
-23
-22
-21
-21
-21
-20
-19
-20
-21
-20
-19
-19
-19
-18
-17
-18
-19
-19
-19
-19
-19
-20
-21
-21
-21
-21
-21
-21
-21
-21
-21
-21
-21
-21
-22
-23
-22
-21
-22
-23
-23
-23
-22
-21
-21
-21
-20
-19
-18
-17
-16
-14
-12
-11
-12
-13
-12
-9
-6
-3
0
1
1
1
0
-1
-1
-3
-7
-9
-11
-15
-19
-20
-21
-21
-21
-21
-21
-22
-23
-23
-23
-23
-23
-24
-25
-25
-25
-24
-23
-22
-21
-22
-23
-22
-21
-21
-23
-26
-24
-18
7
36
85
138
177
215
171
217
56
-9
-52
-89
-66
-43
-27
-13
-12
-11
-13
-15
-15
-15
-14
-13
-13
-13
-13
-13
-12
-11
-11
-11
-11
-10
-8
-7
-7
-7
-6
-5
-4
-3
-2
-1
0
2
4
5
4
6
9
10
11
13
15
17
19
20
21
23
25
28
31
32
34
37
40
43
45
45
46
48
49
48
47
46
42
37
32
27
21
15
10
6
1
-4
-7
-10
-12
-14
-15
-17
-19
-21
-21
-21
-21
-21
-21
-21
-21
-21
-20
-19
-20
-21
-20
-19
-20
-21
-20
-19
-19
-19
-18
-17
-17
-17
-17
-17
-16
-15
-15
-15
-15
-15
-16
-16
-14
-13
-13
-13
-13
-14
-13
-14
-15
-15
-15
-15
-15
-16
-17
-16
-15
-15
-15
-16
-17
-17
-17
-17
-17
-16
-15
-16
-17
-17
-17
-16
-15
-15
-15
-15
-15
-15
-15
-14
-12
-10
-9
-8
-7
-6
-5
-5
-4
-3
0
3
4
5
6
7
6
5
5
5
1
-1
-3
-6
-9
-11
-12
-13
-14
-15
-16
-17
-16
-15
-16
-17
-17
-17
-17
-17
-16
-15
-16
-17
-16
-15
-15
-15
-13
-15
-17
-20
-21
3
30
77
125
175
210
198
170
105
39
-27
-64
-56
-43
-24
-12
-7
-5
-6
-7
-8
-9
-9
-9
-9
-9
-8
-7
-7
-7
-7
-7
-6
-5
-4
-3
-3
-1
-1
0
1
2
3
4
5
5
5
7
9
11
13
14
15
17
19
20
21
24
25
26
28
31
34
37
41
44
46
48
49
50
51
52
53
54
54
52
48
44
39
35
28
21
16
11
7
3
-3
-7
-10
-13
-15
-17
-18
-19
-19
-19
-19
-19
-19
-19
-20
-21
-20
-19
-19
-19
-20
-21
-21
-21
-20
-19
-18
-17
-18
-19
-19
-19
-18
-17
-19
-18
-17
-17
-17
-17
-17
-16
-15
-16
-17
-16
-15
-16
-17
-17
-17
-17
-17
-18
-19
-18
-17
-17
-17
-18
-19
-19
-19
-20
-21
-20
-19
-19
-19
-20
-21
-21
-21
-21
-21
-21
-20
-19
-20
-21
-20
-19
-19
-19
-20
-21
-19
-17
-15
-13
-13
-13
-11
-9
-9
-9
-6
-4
-1
1
1
1
1
1
1
0
-2
-3
-4
-8
-12
-15
-18
-19
-19
-20
-22
-22
-21
-21
-21
-21
-21
-21
-21
-22
-23
-23
-23
-23
-23
-23
-23
-22
-21
-20
-21
-26
-25
-16
6
39
86
142
185
220
189
126
61
-4
-42
-71
-57
-33
-21
-12
-12
-14
-15
-15
-17
-19
-19
-19
-18
-17
-15
-13
-13
-13
-13
-13
-12
-11
-10
-9
-9
-9
-9
-9
-6
-5
-4
-3
-2
-1
-1
0
2
4
6
7
7
8
10
12
14
16
18
21
19
26
27
30
33
35
37
38
39
41
43
44
45
44
43
42
40
34
28
21
16
11
6
-1
-6
-9
-12
-15
-17
-18
-20
-22
-23
-24
-25
-26
-27
-26
-26
-28
-29
-28
-26
-25
-25
-25
-25
-25
-25
-25
-25
-25
-24
-23
-24
-25
-24
-23
-23
-23
-22
-21
-21
-21
-21
-21
-22
-23
-22
-21
-21
-21
-21
-21
-21
-21
-21
-21
-21
-21
-21
-21
-22
-23
-23
-23
-23
-24
-25
-24
-23
-23
-23
-23
-23
-23
-23
-23
-23
-23
-23
-23
-23
-24
-25
-24
-23
-23
-23
-23
-23
-23
-23
-23
-23
-22
-20
-18
-17
-17
-16
-14
-13
-12
-11
-11
-6
-3
-2
-1
-1
-1
-1
-1
-2
-3
-6
-9
-11
-14
-17
-19
-19
-19
-21
-23
-23
-23
-23
-23
-24
-25
-25
-25
-24
-23
-23
-23
-23
-23
-23
-23
-22
-21
-21
-24
-28
-26
-23
4
33
88
142
186
215
168
117
52
-9
-55
-80
-57
-36
-22
-13
-13
-13
-14
-15
-16
-17
-17
-17
-16
-15
-16
-17
-16
-15
-14
-13
-12
-11
-10
-9
-9
-9
-9
-8
-5
-6
-7
-6
-5
-3
-1
0
1
3
5
5
5
6
8
11
13
14
15
17
20
23
26
28
30
32
34
36
37
38
40
42
43
43
43
42
39
36
32
28
23
27
12
7
1
-5
-8
-11
-14
-17
-20
-23
-22
-21
-22
-23
-23
-23
-23
-23
-23
-23
-23
-23
-24
-25
-25
-25
-24
-23
-23
-23
-23
-23
-22
-21
-21
-21
-21
-21
-21
-21
-21
-21
-21
-20
-19
-19
-19
-19
-19
-20
-21
-21
-21
-21
-21
-22
-23
-22
-21
-22
-23
-22
-21
-22
-23
-23
-23
-23
-23
-23
-23
-24
-25
-24
-23
-23
-23
-23
-23
-23
-23
-23
-23
-23
-22
-21
-23
-25
-23
-21
-19
-17
-16
-15
-14
-13
-13
-13
-12
-11
-10
-8
-5
-3
-2
-1
-1
-1
-1
-4
-9
-11
-12
-15
-20
-21
-22
-23
-24
-25
-24
-23
-23
-23
-23
-24
-25
-25
-25
-24
-23
-25
-27
-26
-25
-24
-23
-21
-20
-23
-25
-26
-18
3
38
88
135
179
191
177
132
66
1
-63
-77
-68
-49
-28
-19
-12
-12
-14
-16
-18
-19
-19
-19
-19
-18
-17
-16
-15
-15
-15
-14
-13
-13
-13
-12
-11
-11
-11
-11
-11
-9
-7
-7
-7
-6
-5
-4
-3
-2
0
4
5
5
5
6
9
12
14
16
18
20
22
24
26
29
30
31
32
33
35
37
38
39
38
37
36
34
29
24
20
16
12
7
1
-4
-9
-12
-15
-18
-20
-21
-22
-24
-26
-27
-27
-27
-27
-27
-28
-29
-28
-27
-27
-27
-27
-26
-25
-26
-27
-27
-27
-26
-25
-26
-27
-26
-25
-25
-25
-25
-25
-25
-25
-24
-23
-23
-23
-24
-25
-25
-25
-25
-25
-24
-23
-24
-25
-25
-25
-26
-27
-27
-27
-28
-29
-29
-28
-27
-27
-27
-27
-27
-28
-29
-29
-29
-28
-27
-29
-31
-30
-29
-29
-29
-29
-29
-28
-27
-26
-24
-22
-21
-20
-19
-20
-21
-20
-19
-18
-14
-10
-9
-8
-7
-7
-7
-8
-9
-9
-13
-17
-19
-21
-23
-25
-26
-27
-28
-29
-30
-31
-31
-31
-30
-29
-31
-33
-32
-31
-31
-31
-30
-29
-29
-29
-29
-29
-29
-29
-30
-33
-36
-18
5
51
100
151
202
185
205
98
32
-33
-92
-78
-63
-44
-29
-25
-21
-21
-21
-22
-23
-23
-23
-23
-23
-23
-23
-22
-21
-21
-21
-21
-21
-20
-19
-18
-17
-16
-15
-14
-13
-13
-13
-12
-11
-10
-9
-9
-8
-7
-5
-3
-2
-1
1
3
4
5
7
9
12
15
16
18
21
23
25
27
28
30
33
35
35
35
35
35
34
31
27
22
18
13
7
1
-4
-8
-12
-16
-20
-23
-27
-28
-29
-31
-33
-33
-33
-33
-33
-33
-33
-33
-33
-33
-33
-33
-33
-33
-33
-33
-33
-32
-31
-31
-31
-30
-29
-30
-31
-30
-29
-29
-29
-29
-29
-30
-30
-28
-27
-27
-27
-27
-27
-27
-28
-29
-28
-27
-29
-31
-31
-31
-30
-29
-29
-29
-29
-29
-30
-31
-30
-29
-30
-31
-31
-31
-32
-33
-32
-31
-30
-29
-29
-29
-29
-29
-29
-29
-29
-29
-30
-31
-30
-27
-25
-23
-21
-20
-19
-18
-17
-17
-17
-14
-11
-9
-7
-7
-7
-7
-7
-7
-7
-9
-12
-15
-19
-23
-25
-25
-26
-28
-29
-30
-31
-31
-31
-30
-29
-29
-29
-30
-31
-31
-31
-29
-31
-33
-31
-29
-29
-29
-29
-29
-32
-31
-14
11
53
100
155
192
201
179
113
48
-18
-54
-66
-59
-38
-26
-20
-18
-20
-21
-21
-21
-22
-23
-23
-23
-22
-21
-20
-19
-19
-17
-17
-17
-17
-15
-13
-14
-15
-14
-13
-11
-9
-8
-7
-5
-3
-3
-3
-2
-1
2
3
3
4
7
9
10
13
16
18
20
22
24
26
28
30
32
33
34
35
36
39
41
42
43
40
37
32
27
23
18
12
6
0
-6
-10
-13
-15
-17
-19
-21
-22
-24
-26
-27
-27
-27
-26
-26
-28
-29
-28
-27
-27
-27
-27
-27
-26
-25
-25
-25
-25
-25
-23
-24
-25
-24
-23
-23
-23
-22
-21
-21
-21
-22
-23
-23
-23
-22
-21
-23
-25
-24
-23
-23
-23
-23
-23
-23
-23
-23
-23
-24
-25
-25
-25
-26
-27
-26
-25
-25
-25
-25
-25
-25
-25
-25
-25
-25
-25
-25
-26
-27
-26
-25
-25
-25
-24
-23
-23
-23
-23
-23
-23
-23
-20
-19
-18
-17
-17
-16
-14
-13
-13
-12
-10
-7
-4
-3
-3
-3
-3
-3
-3
-6
-10
-12
-13
-17
-21
-22
-23
-23
-23
-25
-27
-27
-27
-26
-25
-26
-27
-27
-27
-27
-27
-27
-27
-26
-25
-25
-25
-24
-23
-22
-24
-29
-31
-30
-9
18
67
120
167
213
192
164
100
35
-27
-85
-69
-54
-36
-21
-17
-13
-15
-17
-17
-17
-18
-19
-18
-17
-17
-17
-18
-19
-16
-15
-15
-15
-14
-12
-10
-9
-10
-11
-10
-8
-6
-5
-6
-6
-4
-3
-2
0
-1
5
7
7
7
9
11
13
15
16
17
19
21
24
27
29
31
33
35
36
37
40
41
40
38
36
34
31
27
23
18
13
8
3
-3
-8
-11
-14
-17
-20
-21
-22
-24
-25
-25
-25
-25
-25
-26
-27
-26
-25
-25
-25
-26
-27
-27
-27
-26
-25
-24
-23
-23
-23
-24
-25
-24
-23
-22
-22
-24
-25
-24
-23
-22
-21
-21
-21
-21
-21
-21
-21
-22
-23
-21
-23
-25
-24
-23
-23
-23
-23
-23
-23
-23
-24
-25
-25
-25
-25
-25
-26
-27
-27
-27
-26
-25
-25
-25
-25
-25
-25
-25
-25
-25
-25
-25
-26
-27
-26
-23
-20
-19
-18
-17
-17
-14
-13
-13
-13
-10
-7
-5
-3
-3
-3
-4
-5
-4
-4
-7
-10
-13
-16
-19
-21
-21
-22
-24
-25
-26
-27
-26
-25
-25
-25
-26
-27
-26
-25
-25
-25
-25
-25
-25
-25
-26
-25
-23
-23
-23
-28
-32
-17
1
41
84
139
180
186
171
105
40
-26
-66
-69
-61
-39
-24
-17
-13
-14
-15
-16
-18
-20
-21
-21
-20
-18
-17
-16
-15
-15
-15
-15
-15
-14
-13
-11
-11
-11
-11
-11
-10
-9
-7
-5
-5
-5
-3
-1
0
1
2
3
4
5
7
9
12
14
16
17
18
20
23
26
28
29
30
31
32
33
34
36
38
39
38
36
37
29
25
20
15
11
7
2
-3
-7
-11
-13
-15
-17
-19
-21
-23
-23
-23
-24
-25
-24
-24
-26
-26
-24
-23
-23
-23
-23
-23
-22
-21
-22
-23
-22
-21
-21
-21
-22
-23
-22
-20
-19
-19
-19
-19
-19
-20
-21
-20
-19
-19
-19
-20
-21
-21
-21
-20
-19
-19
-19
-20
-21
-21
-21
-22
-23
-22
-21
-22
-23
-23
-23
-23
-23
-23
-23
-23
-23
-22
-21
-22
-23
-23
-22
-21
-22
-23
-22
-21
-20
-19
-17
-15
-13
-11
-11
-11
-11
-11
-9
-7
-5
-3
0
1
0
-1
0
0
-2
-5
-8
-11
-16
-17
-18
-19
-20
-21
-21
-21
-22
-23
-23
-23
-23
-24
-25
-23
-21
-21
-21
-22
-23
-22
-21
-20
-19
-19
-20
-26
-23
-8
18
56
103
158
185
189
152
86
20
-45
-68
-73
-56
-31
-18
-9
-7
-8
-10
-12
-13
-14
-14
-13
-12
-11
-11
-11
-10
-9
-9
-9
-8
-7
-7
-7
-6
-5
-4
-3
-2
-1
0
1
2
3
3
4
6
7
7
8
10
13
16
17
18
20
22
24
26
28
30
32
35
36
37
39
41
42
43
44
45
44
43
41
38
34
30
25
19
14
10
6
2
-1
-4
-7
-10
-12
-14
-16
-17
-18
-19
-19
-19
-19
-19
-20
-21
-20
-19
-18
-17
-17
-17
-17
-17
-17
-17
-17
-17
-17
-16
-15
-15
-15
-14
-13
-13
-13
-13
-13
-13
-13
-13
-13
-14
-15
-15
-15
-14
-13
-14
-15
-14
-13
-14
-15
-15
-15
-15
-15
-16
-17
-17
-17
-17
-16
-15
-16
-17
-16
-15
-15
-15
-15
-15
-15
-15
-16
-17
-16
-15
-14
-13
-11
-9
-8
-7
-7
-7
-6
-5
-4
-2
0
2
4
5
6
7
6
5
5
2
-2
-4
-7
-10
-13
-14
-15
-16
-17
-17
-17
-17
-17
-17
-17
-17
-17
-17
-17
-17
-17
-18
-19
-18
-17
-16
-15
-15
-15
-16
-19
-23
-10
11
56
109
158
206
201
187
126
61
-5
57
-62
-53
-32
-13
-10
-7
-9
-11
-12
-13
-13
-13
-12
-11
-11
-11
-10
-9
-9
-9
-8
-7
-7
-7
-7
-6
-4
-3
-2
-1
-1
-1
0
1
2
4
6
7
7
7
8
12
15
16
17
19
21
23
25
27
29
31
33
34
35
37
40
43
45
45
45
46
47
46
43
39
35
31
26
19
14
9
4
0
-4
-8
-10
-12
-14
-16
-18
-20
-21
-21
-22
-23
-23
-23
-23
-23
-22
-21
-21
-21
-22
-23
-22
-21
-21
-21
-22
-23
-22
-21
-21
-21
-20
-19
-19
-19
-19
-19
-19
-19
-18
-17
-18
-19
-20
-21
-20
-19
-18
-17
-17
-20
-21
-21
-21
-21
-21
-22
-23
-23
-23
-22
-21
-21
-21
-21
-21
-22
-23
-23
-23
-23
-23
-23
-23
-23
-23
-23
-23
-22
-21
-22
-22
-20
-19
-18
-16
-14
-13
-13
-13
-12
-10
-9
-6
-3
-1
1
0
-1
-2
-3
-4
-5
-8
-11
-15
-17
-19
-21
-22
-23
-24
-25
-24
-23
-24
-25
-25
-25
-25
-25
-26
-27
-27
-27
-27
-27
-26
-25
-24
-23
-24
-25
-27
-29
-30
-9
15
60
107
161
204
199
179
114
48
-17
-62
-66
-61
-38
-23
-18
-15
-16
-17
-18
-19
-19
-19
-19
-19
-18
-17
-17
-17
-17
-17
-17
-16
-14
-13
-12
-11
-11
-10
-9
-9
-9
-7
-5
-4
-3
-3
-3
-1
1
2
3
5
7
9
11
12
13
16
18
21
23
23
24
27
31
34
35
36
38
40
41
41
41
41
40
38
32
26
21
17
12
7
2
-3
-8
-13
-15
-17
-19
-21
-22
-23
-24
-25
-25
-25
-25
-25
-24
-23
-24
-25
-25
-25
-25
-25
-26
-27
-26
-25
-24
-23
-23
-23
-22
-21
-21
-21
-21
-21
-21
-21
-21
-22
-23
-22
-21
-21
-21
-20
-19
-20
-21
-21
-21
-21
-21
-23
-25
-24
-23
-23
-23
-23
-23
-23
-23
-23
-23
-23
-23
-23
-23
-24
-25
-25
-25
-24
-23
-23
-23
-23
-24
-23
-23
-23
-23
-23
-21
-19
-18
-17
-16
-15
-13
-11
-12
-13
-11
-8
-5
-3
-2
-1
-1
-2
-4
-5
-5
-7
-10
-13
-17
-19
-19
-20
-22
-23
-24
-25
-25
-25
-26
-26
-25
-25
-25
-25
-25
-25
-25
-25
-25
-25
-25
-24
-23
-24
-25
-26
-27
-28
-19
5
39
84
133
184
197
183
136
70
4
-61
-70
-56
-40
-22
-17
-14
-14
-16
-17
-18
-19
-17
-18
-19
-18
-17
-16
-15
-14
-13
-13
-13
-12
-11
-11
-11
-10
-9
-9
-9
-7
-5
-4
-3
-2
0
2
3
3
4
6
8
10
11
11
12
14
17
20
23
26
28
27
32
33
35
37
37
37
38
39
39
39
40
41
39
36
31
26
20
15
10
6
1
-3
-8
-12
-15
-18
-20
-21
-21
-21
-22
-23
-23
-23
-24
-25
-24
-23
-24
-25
-25
-24
-23
-22
-21
-21
-21
-21
-21
-21
-21
-21
-21
-21
-21
-21
-21
-20
-19
-19
-19
-19
-19
-19
-19
-19
-19
-19
-19
-20
-21
-21
-21
-21
-21
-21
-21
-21
-21
-21
-21
-22
-23
-23
-24
-25
-24
-23
-23
-23
-22
-21
-22
-23
-23
-23
-23
-23
-22
-21
-22
-23
-23
-23
-22
-21
-20
-18
-16
-15
-14
-13
-12
-11
-11
-11
-11
-9
-6
-4
-2
-1
-1
-1
-1
-4
-5
-9
-13
-14
-15
-19
-23
-24
-25
-25
-25
-25
-25
-26
-27
-27
-27
-27
-27
-27
-27
-28
-29
-29
-29
-28
-27
-26
-25
-25
-26
-28
-30
-32
-16
4
47
92
142
192
186
177
112
46
-19
-77
-69
-60
-41
-25
-21
-17
-20
-23
-22
-21
-22
-23
-21
-19
-19
-19
-19
-19
-19
-19
-18
-17
-18
-19
-18
-17
-16
-15
-14
-12
-10
-9
-10
-11
-10
-8
-5
-5
-5
-4
-3
-1
1
3
5
7
9
