-297
-299
-300
-300
-302
-300
-300
-300
-301
-300
-304
-302
-304
-305
-305
-306
-309
-307
-308
-309
-311
-311
-312
-311
-311
-312
-313
-318
-315
-314
-317
-316
-318
-318
-318
-317
-317
-318
-318
-318
-318
-318
-319
-321
-318
-318
-319
-319
-319
-319
-319
-319
-321
-319
-321
-321
-321
-321
-322
-322
-322
-321
-321
-321
-322
-321
-321
-322
-323
-319
-324
-321
-323
-322
-322
-322
-322
-323
-323
-322
-322
-324
-322
-322
-323
-321
-326
-322
-323
-321
-322
-322
-322
-321
-322
-321
-320
-321
-322
-321
-321
-322
-324
-322
-321
-321
-321
-320
-320
-321
-320
-321
-320
-319
-320
-320
-319
-318
-317
-314
-313
-310
-310
-310
-309
-306
-301
-300
-301
-299
-306
-308
-308
-309
-310
-311
-314
-316
-319
-322
-322
-321
-321
-323
-322
-325
-322
-324
-322
-321
-320
-321
-320
-319
-318
-317
-321
-331
-331
-310
-277
-227
-157
-104
-87
-94
-111
-143
-207
-276
-324
-342
-334
-326
-314
-308
-306
-309
-309
-309
-310
-309
-309
-311
-310
-309
-306
-306
-311
-306
-306
-305
-305
-306
-303
-302
-301
-300
-300
-300
-297
-298
-296
-296
-293
-293
-293
-292
-293
-292
-290
-289
-288
-288
-287
-287
-286
-287
-287
-287
-287
-287
-287
-287
-289
-291
-293
-294
-297
-299
-300
-298
-303
-306
-307
-310
-311
-312
-311
-312
-311
-312
-313
-311
-311
-309
-307
-311
-307
-306
-306
-306
-306
-305
-306
-306
-305
-307
-307
-306
-306
-306
-306
-309
-306
-307
-306
-306
-307
-307
-307
-307
-306
-307
-307
-307
-308
-308
-308
-309
-307
-307
-307
-308
-308
-308
-309
-308
-308
-307
-312
-309
-309
-309
-309
-310
-311
-312
-312
-312
-312
-312
-315
-316
-316
-316
-320
-318
-319
-319
-320
-320
-320
-319
-321
-320
-320
-321
-321
-322
-323
-323
-323
-323
-324
-323
-324
-324
-326
-325
-324
-325
-324
-325
-326
-327
-324
-325
-327
-327
-327
-326
-324
-324
-327
-326
-326
-324
-327
-330
-327
-326
-326
-326
-327
-326
-327
-326
-325
-324
-325
-325
-324
-325
-324
-329
-325
-325
-324
-326
-325
-326
-324
-326
-324
-326
-324
-325
-324
-324
-325
-325
-324
-324
-324
-325
-324
-324
-324
-323
-322
-323
-324
-321
-323
-322
-321
-321
-322
-322
-321
-321
-318
-318
-315
-315
-312
-311
-314
-309
-304
-302
-302
-302
-305
-309
-310
-309
-310
-312
-314
-318
-320
-322
-324
-323
-323
-323
-324
-324
-324
-324
-324
-324
-322
-321
-322
-320
-318
-319
-318
-324
-330
-324
-297
-263
-209
-145
-107
-98
-105
-128
-170
-238
-304
-346
-354
-340
-330
-320
-312
-309
-312
-311
-312
-312
-311
-313
-311
-310
-310
-309
-309
-308
-307
-306
-306
-306
-305
-303
-302
-302
-300
-298
-297
-298
-296
-294
-293
-293
-293
-290
-290
-289
-286
-287
-286
-286
-284
-284
-284
-283
-283
-285
-283
-283
-284
-285
-286
-287
-285
-290
-290
-294
-296
-297
-300
-300
-303
-306
-307
-307
-309
-309
-311
-309
-313
-310
-309
-307
-307
-306
-305
-305
-303
-303
-303
-302
-302
-302
-301
-302
-302
-302
-301
-300
-301
-301
-302
-300
-300
-300
-300
-295
-300
-300
-300
-299
-298
-299
-299
-298
-299
-299
-297
-299
-300
-300
-301
-298
-300
-302
-300
-302
-303
-303
-304
-305
-306
-306
-307
-307
-309
-309
-309
-312
-311
-312
-312
-312
-312
-314
-315
-314
-315
-316
-316
-317
-317
-318
-318
-319
-319
-320
-318
-318
-318
-320
-318
-319
-319
-319
-322
-319
-318
-320
-320
-321
-321
-321
-322
-320
-319
-320
-322
-320
-319
-320
-323
-320
-320
-319
-318
-319
-319
-320
-318
-319
-318
-320
-320
-319
-319
-318
-319
-318
-318
-318
-319
-318
-318
-318
-318
-318
-318
-318
-318
-318
-318
-318
-318
-318
-318
-318
-318
-316
-320
-317
-317
-317
-316
-319
-316
-314
-313
-312
-309
-307
-307
-305
-305
-305
-299
-297
-297
-298
-300
-300
-306
-306
-305
-306
-308
-311
-313
-316
-318
-318
-320
-318
-318
-318
-318
-320
-318
-318
-317
-318
-315
-316
-314
-314
-312
-312
-318
-312
-294
-268
-232
-172
-134
-131
-151
-193
-238
-288
-338
-368
-366
-341
-332
-318
-309
-305
-303
-306
-306
-305
-306
-305
-305
-305
-305
-305
-303
-302
-299
-300
-300
-299
-298
-297
-297
-295
-293
-292
-294
-292
-293
-290
-290
-290
-288
-287
-287
-287
-286
-285
-282
-282
-281
-281
-281
-277
-279
-279
-279
-280
-279
-281
-281
-282
-283
-285
-287
-290
-291
-294
-297
-295
-300
-304
-305
-306
-308
-309
-311
-312
-312
-310
-310
-311
-310
-310
-309
-307
-306
-306
-306
-305
-305
-305
-305
-305
-303
-304
-302
-303
-303
-303
-304
-302
-302
-302
-300
-300
-300
-300
-299
-299
-300
-300
-294
-299
-300
-299
-300
-299
-299
-300
-300
-300
-301
-301
-303
-303
-304
-305
-307
-306
-306
-306
-306
-307
-307
-309
-309
-309
-310
-311
-311
-312
-312
-313
-316
-314
-316
-316
-317
-316
-317
-318
-317
-316
-318
-323
-318
-318
-318
-318
-318
-318
-318
-318
-318
-318
-318
-318
-319
-318
-319
-323
-320
-319
-319
-319
-318
-319
-320
-320
-320
-319
-320
-320
-321
-320
-321
-321
-320
-321
-320
-321
-321
-321
-321
-320
-321
-319
-318
-320
-321
-318
-318
-321
-320
-319
-320
-320
-318
-318
-320
-320
-320
-318
-321
-318
-318
-318
-317
-318
-318
-318
-317
-318
-318
-318
-317
-316
-317
-314
-318
-313
-311
-309
-308
-308
-308
-306
-305
-301
-297
-298
-297
-300
-305
-306
-306
-306
-309
-310
-312
-314
-318
-319
-319
-319
-318
-319
-318
-319
-318
-319
-319
-318
-318
-317
-315
-313
-317
-312
-319
-324
-307
-275
-235
-174
-124
-102
-105
-127
-161
-211
-278
-324
-347
-340
-328
-318
-306
-299
-304
-306
-306
-306
-306
-306
-306
-305
-304
-306
-303
-302
-303
-302
-302
-300
-300
-298
-298
-298
-298
-295
-294
-293
-293
-293
-288
-290
-289
-288
-287
-286
-287
-285
-283
-284
-283
-281
-282
-282
-280
-281
-278
-281
-281
-282
-286
-286
-286
-287
-290
-293
-294
-297
-300
-300
-304
-305
-309
-306
-309
-308
-308
-309
-310
-309
-309
-307
-306
-306
-307
-306
-306
-306
-305
-305
-304
-306
-306
-306
-305
-306
-305
-305
-304
-301
-305
-305
-305
-305
-306
-305
-304
-305
-304
-305
-303
-303
-304
-305
-303
-300
-305
-305
-305
-305
-306
-305
-306
-306
-306
-306
-306
-306
-308
-309
-310
-311
-312
-312
-313
-313
-314
-314
-314
-314
-316
-316
-319
-318
-318
-318
-318
-320
-320
-320
-321
-320
-321
-325
-322
-323
-323
-322
-326
-323
-323
-323
-323
-324
-324
-324
-324
-324
-324
-325
-324
-324
-324
-325
-328
-324
-324
-325
-326
-324
-328
-327
-327
-326
-326
-328
-329
-328
-326
-327
-327
-326
-325
-325
-324
-324
-324
-325
-325
-325
-324
-328
-324
-326
-324
-326
-326
-326
-325
-325
-325
-324
-325
-325
-327
-324
-324
-328
-324
-324
-324
-324
-324
-324
-324
-323
-324
-324
-324
-323
-323
-323
-322
-323
-321
-322
-322
-321
-320
-318
-316
-314
-313
-312
-311
-312
-308
-305
-305
-300
-303
-307
-311
-312
-312
-312
-312
-316
-318
-321
-326
-324
-324
-324
-324
-324
-324
-324
-324
-324
-324
-324
-324
-323
-321
-320
-322
-321
-330
-335
-318
-286
-233
-163
-106
-81
-87
-108
-140
-199
-273
-324
-344
-337
-328
-318
-311
-307
-311
-311
-313
-312
-312
-313
-311
-312
-310
-310
-311
-307
-308
-306
-306
-306
-305
-305
-303
-300
-300
-296
-300
-298
-298
-295
-295
-293
-293
-291
-292
-292
-290
-289
-289
-289
-287
-285
-287
-286
-285
-286
-287
-287
-286
-288
-287
-290
-291
-292
-293
-295
-298
-299
-301
-305
-306
-308
-308
-309
-309
-312
-311
-310
-314
-311
-311
-309
-309
-308
-306
-306
-305
-305
-307
-305
-305
-306
-306
-305
-302
-306
-306
-306
-305
-306
-307
-306
-306
-305
-306
-306
-305
-306
-305
-305
-303
-305
-306
-306
-306
-306
-307
-307
-306
-307
-308
-308
-307
-306
-308
-309
-310
-310
-312
-312
-311
-312
-313
-314
-315
-315
-314
-318
-316
-318
-318
-318
-318
-318
-320
-319
-321
-321
-323
-321
-321
-321
-322
-325
-322
-322
-324
-323
-322
-323
-324
-323
-322
-321
-322
-323
-323
-323
-322
-324
-323
-324
-324
-323
-323
-323
-322
-324
-323
-323
-324
-323
-323
-323
-323
-324
-323
-324
-324
-323
-322
-326
-322
-321
-322
-322
-324
-323
-322
-323
-322
-323
-322
-321
-321
-321
-318
-320
-322
-321
-322
-321
-324
-320
-321
-321
-322
-319
-321
-321
-321
-321
-319
-320
-318
-319
-319
-319
-321
-321
-318
-318
-318
-316
-314
-312
-313
-312
-309
-312
-307
-305
-300
-300
-297
-300
-305
-306
-306
-308
-308
-308
-311
-314
-316
-321
-318
-319
-318
-318
-318
-319
-318
-318
-318
-317
-316
-318
-316
-313
-314
-312
-315
-323
-320
-296
-263
-216
-151
-106
-91
-100
-129
-170
-235
-306
-349
-355
-337
-324
-312
-305
-302
-302
-303
-305
-303
-304
-300
-302
-302
-300
-300
-300
-300
-299
-299
-298
-297
-295
-295
-294
-293
-292
-288
-290
-289
-289
-288
-287
-286
-284
-281
-281
-281
-280
-279
-278
-277
-277
-275
-275
-275
-275
-275
-275
-274
-275
-277
-277
-279
-277
-282
-283
-287
-289
-290
-293
-294
-297
-300
-300
-301
-300
-303
-303
-304
-299
-303
-302
-301
-300
-300
-297
-296
-297
-298
-296
-295
-293
-295
-294
-296
-292
-294
-295
-295
-294
-296
-296
-295
-295
-296
-296
-294
-293
-294
-296
-294
-293
-293
-294
-294
-294
-293
-293
-294
-295
-296
-296
-293
-295
-298
-298
-300
-299
-301
-301
-304
-304
-305
-305
-305
-306
-306
-306
-311
-307
-307
-306
-308
-309
-310
-310
-311
-312
-312
-311
-313
-312
-313
-312
-315
-314
-314
-313
-315
-316
-316
-316
-315
-317
-316
-316
-318
-317
-316
-316
-316
-316
-316
-317
-317
-317
-318
-318
-318
-318
-318
-322
-318
-318
-318
-318
-318
-318
-318
-319
-318
-318
-318
-318
-319
-319
-318
-322
-318
-319
-319
-319
-318
-319
-318
-319
-318
-318
-318
-318
-318
-319
-318
-319
-320
-319
-318
-318
-319
-318
-318
-318
-318
-317
-320
-317
-317
-316
-312
-311
-310
-307
-306
-306
-306
-302
-299
-297
-298
-299
-300
-306
-306
-307
-306
-308
-311
-314
-318
-319
-320
-321
-319
-321
-320
-322
-324
-320
-319
-319
-318
-317
-317
-316
-315
-313
-311
-314
-312
-299
-275
-245
-190
-136
-118
-133
-173
-227
-275
-331
-368
-376
-350
-336
-323
-312
-305
-304
-305
-306
-306
-306
-305
-306
-303
-302
-302
-302
-301
-298
-300
-300
-300
-299
-298
-297
-296
-297
-296
-294
-293
-292
-291
-290
-289
-287
-287
-287
-286
-287
-284
-283
-283
-282
-282
-282
-281
-282
-281
-281
-281
-280
-282
-282
-283
-285
-287
-289
-290
-292
-295
-299
-296
-302
-305
-306
-307
-311
-310
-311
-311
-312
-312
-312
-311
-309
-309
-307
-310
-305
-305
-304
-303
-302
-301
-301
-301
-300
-301
-300
-300
-299
-300
-300
-297
-299
-298
-299
-298
-298
-298
-297
-297
-295
-298
-293
-297
-295
-296
-297
-297
-296
-298
-297
-299
-300
-300
-300
-301
-300
-303
-300
-305
-305
-306
-306
-307
-307
-309
-307
-308
-307
-310
-310
-311
-312
-312
-315
-313
-315
-314
-314
-316
-316
-316
-315
-316
-316
-316
-316
-316
-317
-316
-317
-317
-316
-315
-316
-317
-316
-318
-317
-317
-316
-320
-317
-317
-316
-316
-317
-317
-318
-318
-318
-317
-317
-318
-317
-317
-316
-319
-316
-317
-316
-315
-317
-317
-318
-317
-317
-317
-316
-316
-316
-317
-316
-318
-316
-316
-316
-315
-316
-316
-316
-315
-315
-314
-314
-314
-315
-315
-314
-316
-316
-316
-315
-314
-313
-315
-314
-314
-315
-313
-316
-314
-314
-313
-312
-310
-309
-308
-306
-305
-304
-304
-301
-296
-294
-294
-292
-297
-303
-304
-305
-305
-305
-307
-309
-312
-314
-316
-316
-317
-317
-315
-316
-316
-315
-315
-314
-314
-313
-314
-313
-313
-311
-315
-318
-324
-315
-293
-267
-227
-163
-111
-85
-87
-110
-136
-185
-251
-306
-340
-340
-330
-318
-307
-300
-300
-302
-305
-304
-305
-305
-305
-305
-304
-302
-299
-300
-300
-300
-300
-300
-297
-297
-297
-297
-296
-294
-294
-294
-292
-291
-290
-291
-289
-288
-287
-287
-285
-283
-283
-283
-282
-277
-281
-280
-279
-278
-277
-279
-277
-278
-279
-281
-281
-281
-282
-286
-287
-286
-290
-293
-294
-297
-300
-300
-301
-302
-303
-305
-306
-305
-306
-305
-305
-304
-303
-303
-301
-302
-301
-300
-300
-300
-300
-300
-300
-302
-301
-300
-302
-300
-301
-301
-300
-301
-302
-300
-301
-303
-303
-305
-300
-303
-303
-302
-304
-303
-303
-305
-305
-305
-306
-305
-304
-305
-306
-305
-303
-307
-306
-308
-306
-309
-308
-309
-310
-311
-311
-312
-312
-312
-313
-314
-315
-317
-317
-317
-317
-318
-318
-318
-318
-318
-319
-321
-319
-319
-318
-319
-320
-320
-320
-319
-320
-320
-322
-322
-321
-322
-320
-325
-321
-321
-322
-321
-322
-322
-323
-323
-322
-322
-322
-321
-322
-323
-322
-324
-321
-323
-324
-323
-323
-323
-323
-323
-322
-322
-323
-323
-324
-323
-324
-325
-324
-323
-323
-323
-322
-322
-324
-321
-322
-323
-324
-322
-322
-322
-323
-323
-323
-323
-323
-323
-322
-322
-322
-321
-321
-320
-324
-322
-322
-321
-321
-322
-321
-321
-321
-319
-319
-319
-320
-319
-319
-315
-314
-312
-312
-310
-308
-309
-306
-303
-300
-299
-300
-300
-306
-308
-307
-306
-308
-311
-313
-317
-319
-318
-323
-320
-320
-319
-320
-323
-319
-319
-318
-319
-318
-317
-317
-316
-313
-312
-314
-322
-330
-318
-287
-240
-178
-114
-80
-70
-81
-104
-147
-220
-285
-326
-338
-330
-322
-312
-306
-303
-306
-307
-306
-306
-307
-306
-306
-307
-306
-306
-302
-305
-306
-305
-303
-303
-303
-300
-301
-300
-300
-299
-298
-296
-295
-293
-290
-290
-290
-290
-290
-288
-288
-287
-286
-286
-286
-285
-285
-283
-283
-283
-280
-282
-283
-286
-286
-287
-288
-290
-290
-293
-295
-299
-300
-302
-304
-305
-307
-307
-310
-311
-311
-311
-311
-312
-309
-309
-308
-312
-306
-306
-304
-303
-303
-302
-302
-304
-303
-305
-303
-305
-305
-305
-303
-300
-305
-305
-305
-305
-305
-305
-303
-303
-303
-305
-305
-305
-303
-305
-305
-306
-306
-306
-305
-305
-306
-305
-306
-306
-306
-306
-308
-308
-307
-307
-308
-309
-309
-309
-310
-311
-312
-314
-311
-312
-313
-313
-317
-312
-314
-315
-316
-318
-318
-318
-319
-318
-318
-318
-319
-318
-319
-319
-322
-319
-319
-319
-318
-319
-320
-320
-320
-319
-319
-320
-321
-319
-320
-320
-323
-321
-321
-321
-323
-321
-322
-322
-322
-321
-321
-326
-323
-323
-323
-323
-324
-323
-324
-322
-322
-321
-322
-322
-322
-321
-322
-325
-322
-321
-323
-322
-321
-322
-321
-321
-320
-319
-320
-320
-320
-321
-320
-321
-321
-319
-319
-319
-319
-319
-321
-320
-318
-319
-319
-318
-318
-317
-318
-318
-317
-316
-314
-311
-309
-307
-307
-306
-306
-303
-296
-297
-296
-296
-300
-302
-304
-305
-305
-306
-309
-312
-314
-317
-318
-318
-321
-319
-318
-318
-318
-318
-318
-316
-316
-315
-314
-313
-312
-312
-310
-316
-323
-311
-286
-252
-197
-134
-99
-93
-107
-140
-189
-253
-318
-354
-355
-336
-327
-313
-306
-306
-305
-308
-306
-306
-306
-306
-306
-301
-306
-304
-303
-303
-301
-301
-300
-299
-300
-299
-297
-298
-298
-296
-295
-290
-292
-290
-290
-288
-287
-287
-286
-286
-284
-283
-282
-282
-281
-281
-281
-280
-279
-279
-280
-281
-281
-281
-282
-283
-284
-288
-286
-290
-292
-294
-296
-298
-299
-300
-305
-305
-307
-307
-308
-307
-308
-306
-303
-306
-306
-305
-303
-300
-300
-299
-298
-298
-298
-298
-297
-299
-298
-298
-295
-298
-298
-298
-298
-298
-298
-297
-297
-296
-296
-295
-296
-297
-295
-297
-296
-296
-296
-298
-298
-298
-297
-298
-299
-300
-300
-295
-300
-300
-301
-303
-303
-303
-306
-305
-306
-307
-308
-307
-308
-309
-310
-313
-311
-311
-312
-312
-312
-315
-314
-314
-315
-314
-316
-317
-317
-316
-317
-318
-318
-317
-318
-318
-317
-316
-318
-318
-318
-318
-319
-318
-317
-317
-318
-318
-318
-318
-317
-317
-318
-319
-318
-318
-318
-317
-322
-318
-318
-318
-317
-318
-317
-318
-318
-318
-318
-318
-318
-318
-318
-317
-319
-318
-318
-317
-317
-318
-318
-318
-318
-318
-317
-317
-316
-317
-317
-316
-316
-317
-317
-317
-317
-316
-315
-316
-316
-315
-315
-319
-314
-312
-311
-307
-308
-306
-306
-305
-304
-300
-297
-297
-296
-298
-301
-308
-305
-305
-305
-306
-308
-311
-314
-317
-317
-317
-318
-318
-317
-318
-317
-318
-317
-316
-316
-315
-313
-312
-312
-311
-312
-312
-305
-285
-258
-216
-157
-124
-122
-146
-190
-239
-292
-342
-369
-363
-338
-325
-318
-305
-303
-302
-303
-303
-303
-302
-303
-302
-303
-301
-301
-299
-301
-300
-294
-297
-298
-296
-294
-295
-293
-292
-291
-290
-290
-289
-288
-287
-287
-287
-285
-283
-283
-282
-281
-282
-281
-279
-277
-278
-278
-274
-277
-278
-279
-279
-280
-281
-282
-284
-286
-289
-290
-293
-295
-297
-300
-300
-305
-306
-310
-310
-311
-312
-312
-312
-311
-312
-312
-311
-309
-308
-306
-303
-305
-305
-303
-303
-303
-302
-302
-301
-301
-302
-302
-302
-303
-303
-303
-302
-302
-300
-301
-301
-300
-300
-301
-300
-300
-300
-296
-299
-300
-299
-300
-300
-300
-300
-301
-300
-303
-302
-302
-304
-306
-305
-304
-306
-307
-309
-309
-309
-310
-312
-312
-311
-311
-312
-312
-313
-313
-313
-314
-314
-315
-314
-316
-316
-317
-318
-318
-318
-317
-316
-317
-317
-317
-318
-317
-318
-318
-318
-318
-317
-318
-319
-318
-318
-318
-321
-318
-318
-318
-316
-318
-318
-318
-319
-319
-318
-318
-318
-318
-318
-317
-321
-318
-319
-318
-318
-318
-319
-318
-318
-318
-318
-319
-318
-319
-320
-318
-319
-319
-319
-320
-319
-318
-319
-319
-318
-318
-318
-320
-318
-318
-318
-318
-318
-318
-318
-318
-318
-318
-321
-318
-318
-318
-318
-321
-318
-317
-318
-317
-316
-317
-317
-315
-312
-310
-310
-308
-308
-306
-304
-297
-298
-297
-299
-300
-305
-306
-306
-307
-308
-307
-311
-315
-317
-318
-318
-320
-319
-319
-318
-318
-318
-318
-317
-317
-316
-314
-318
-313
-312
-314
-321
-322
-303
-269
-223
-160
-112
-93
-93
-110
-140
-193
-259
-310
-337
-337
-327
-318
-306
-304
-305
-306
-306
-306
-306
-307
-306
-306
-305
-306
-306
-306
-305
-305
-304
-303
-302
-301
-300
-298
-298
-297
-298
-296
-295
-295
-293
-293
-291
-291
-290
-290
-288
-287
-287
-282
-286
-286
-283
-285
-284
-283
-283
-284
-284
-283
-284
-283
-285
-287
-290
-287
-293
-293
-295
-298
-300
-301
-302
-305
-306
-306
-306
-308
-309
-308
-308
-308
-308
-307
-306
-306
-305
-305
-303
-304
-305
-303
-300
-305
-306
-305
-305
-305
-306
-306
-306
-306
-306
-310
-307
-308
-307
-306
-310
-306
-306
-306
-306
-306
-306
-307
-307
-307
-308
-307
-307
-309
-308
-308
-312
-310
-308
-309
-308
-309
-312
-311
-312
-312
-312
-313
-314
-315
-314
-315
-317
-317
-317
-318
-319
-319
-319
-319
-320
-320
-320
-324
-321
-322
-321
-323
-324
-324
-324
-324
-325
-324
-324
-324
-325
-326
-324
-329
-326
-327
-326
-326
-326
-328
-328
-328
-330
-329
-328
-328
-329
-328
-328
-330
-328
-330
-328
-328
-329
-328
-330
-329
-328
-329
-328
-330
-328
-330
-329
-330
-328
-329
-328
-329
-328
-330
-329
-330
-330
-330
-334
-330
-328
-329
-330
-329
-328
-328
-328
-328
-326
-327
-328
-328
-326
-326
-330
-327
-327
-326
-327
-326
-326
-326
-326
-328
-325
-324
-324
-325
-326
-325
-324
-322
-319
-318
-317
-316
-314
-316
-313
-307
-306
-302
-306
-308
-312
-312
-313
-314
-316
-318
-320
-322
-326
-324
-325
-327
-326
-330
-326
-326
-325
-325
-325
-324
-325
-324
-324
-323
-321
-320
-324
-333
-335
-326
-297
-258
-198
-137
-104
-99
-106
-125
-164
-227
-290
-330
-344
-336
-330
-320
-312
-311
-313
-315
-315
-316
-316
-316
-314
-315
-318
-314
-313
-313
-312
-313
-311
-310
-309
-308
-308
-307
-306
-306
-305
-303
-299
-300
-300
-300
-299
-298
-298
-296
-295
-294
-294
-294
-293
-293
-293
-293
-290
-291
-292
-292
-292
-293
-293
-294
-295
-298
-300
-300
-302
-305
-307
-307
-312
-312
-314
-315
-318
-317
-318
-318
-318
-317
-316
-319
-314
-313
-313
-311
-311
-309
-307
-308
-306
-306
-306
-308
-307
-308
-308
-311
-307
-309
-310
-308
-309
-307
-307
-309
-307
-307
-308
-308
-307
-308
-309
-309
-309
-308
-307
-308
-307
-310
-309
-308
-309
-309
-312
-308
-311
-310
-310
-311
-312
-312
-312
-313
-312
-315
-314
-315
-315
-313
-318
-317
-316
-316
-318
-318
-319
-320
-320
-321
-321
-321
-321
-320
-321
-323
-324
-322
-321
-321
-321
-322
-321
-322
-322
-323
-321
-321
-322
-324
-321
-323
-323
-323
-321
-324
-324
-324
-323
-323
-323
-324
-323
-326
-323
-324
-321
-322
-324
-322
-323
-321
-321
-322
-321
-321
-323
-322
-321
-324
-321
-321
-321
-320
-321
-322
-321
-321
-322
-323
-320
-322
-321
-322
-321
-321
-320
-320
-318
-319
-319
-321
-319
-320
-319
-319
-319
-319
-320
-319
-318
-319
-318
-318
-318
-318
-317
-319
-316
-316
-313
-311
-314
-310
-309
-309
-307
-302
-300
-300
-299
-301
-306
-307
-307
-309
-308
-310
-316
-315
-318
-319
-319
-319
-319
-319
-319
-320
-319
-319
-319
-318
-318
-318
-316
-314
-313
-313
-315
-318
-318
-303
-279
-242
-185
-136
-116
-118
-141
-178
-232
-296
-343
-360
-343
-328
-321
-310
-305
-306
-305
-303
-306
-306
-305
-305
-305
-304
-305
-303
-302
-303
-302
-301
-300
-300
-299
-294
-298
-296
-294
-294
-294
-292
-290
-291
-290
-290
-290
-289
-288
-287
-287
-284
-285
-283
-282
-281
-281
-281
-281
-281
-282
-282
-279
-283
-285
-287
-287
-288
-290
-291
-294
-297
-300
-300
-302
-306
-306
-307
-312
-310
-309
-310
-309
-309
-307
-307
-306
-306
-305
-304
-302
-301
-301
-300
-298
-300
-299
-300
-300
-300
-299
-300
-300
-300
-299
-296
-299
-297
-295
-297
-295
-296
-295
-294
-295
-297
-294
-293
-295
-298
-298
-293
-297
-297
-299
-298
-298
-300
-301
-300
-301
-303
-302
-303
-305
-306
-304
-303
-306
-308
-307
-308
-307
-309
-309
-310
-310
-311
-312
-312
-313
-313
-312
-314
-313
-313
-312
-313
-315
-315
-314
-315
-316
-315
-319
-317
-317
-316
-316
-318
-317
-317
-318
-317
-317
-320
-319
-318
-318
-318
-321
-319
-319
-318
-318
-318
-318
-318
-318
-318
-318
-318
-319
-319
-318
-318
-320
-318
-318
-318
-318
-318
-318
-318
-318
-317
-316
-317
-316
-317
-316
-315
-316
-317
-316
-315
-316
-314
-316
-315
-317
-316
-314
-319
-316
-315
-315
-315
-316
-314
-314
-315
-315
-313
-312
-310
-306
-306
-305
-301
-305
-302
-299
-295
-294
-294
-296
-300
-302
-303
-305
-305
-307
-308
-312
-314
-316
-316
-316
-317
-316
-317
-318
-316
-316
-316
-316
-316
-314
-313
-312
-312
-310
-311
-314
-311
-293
-267
-227
-170
-130
-124
-140
-179
-222
-269
-322
-356
-363
-342
-329
-318
-308
-303
-302
-303
-302
-304
-300
-303
-302
-301
-302
-302
-300
-300
-300
-300
-300
-300
-297
-297
-297
-297
-294
-293
-293
-293
-290
-291
-290
-290
-288
-289
-289
-283
-287
-286
-285
-286
-283
-285
-283
-282
-284
-284
-284
-284
-285
-284
-286
-283
-288
-289
-290
-292
-294
-297
-300
-302
-305
-306
-309
-310
-312
-312
-313
-316
-313
-313
-312
-312
-311
-310
-307
-306
-306
-306
-304
-303
-303
-301
-303
-302
-302
-302
-302
-303
-303
-303
-300
-301
-302
-303
-298
-300
-300
-300
-300
-300
-300
-299
-299
-299
-300
-299
-299
-300
-300
-300
-295
-300
-300
-302
-300
-302
-304
-305
-305
-306
-306
-308
-309
-309
-308
-311
-312
-310
-312
-313
-312
-314
-315
-315
-314
-316
-315
-317
-316
-317
-318
-317
-318
-318
-318
-318
-318
-318
-321
-319
-319
-319
-319
-322
-319
-318
-318
-319
-319
-318
-319
-318
-319
-319
-320
-321
-319
-318
-320
-324
-321
-320
-319
-320
-319
-320
-320
-323
-320
-319
-321
-321
-320
-320
-319
-320
-319
-319
-320
-320
-319
-320
-320
-320
-319
-318
-322
-319
-319
-318
-318
-319
-318
-318
-317
-317
-316
-317
-318
-318
-318
-317
-320
-318
-314
-317
-317
-317
-318
-316
-317
-317
-316
-317
-317
-317
-316
-315
-318
-315
-314
-311
-311
-309
-308
-307
-307
-306
-301
-299
-298
-300
-302
-305
-306
-306
-308
-308
-310
-312
-317
-318
-318
-318
-318
-321
-318
-320
-319
-318
-319
-319
-318
-318
-317
-315
-314
-313
-314
-321
-324
-317
-286
-245
-185
-131
-102
-103
-118
-146
-200
-268
-314
-335
-334
-324
-316
-306
-304
-306
-307
-306
-306
-307
-307
-307
-306
-305
-302
-306
-305
-305
-302
-301
-300
-300
-299
-299
-298
-297
-297
-295
-294
-293
-290
-292
-292
-291
-291
-289
-288
-287
-287
-287
-287
-286
-283
-284
-283
-286
-283
-286
-287
-286
-287
-288
-288
-290
-290
-292
-293
-294
-298
-299
-300
-303
-304
-306
-307
-308
-307
-309
-309
-310
-309
-309
-307
-311
-307
-307
-306
-305
-305
-304
-305
-305
-304
-304
-303
-303
-302
-303
-303
-301
-305
-306
-305
-304
-305
-305
-305
-306
-305
-306
-306
-306
-306
-305
-306
-304
-306
-305
-306
-306
-308
-306
-307
-307
-307
-307
-308
-309
-307
-309
-308
-311
-309
-310
-311
-310
-312
-312
-313
-313
-315
-314
-318
-316
-316
-317
-319
-321
-319
-319
-321
-321
-319
-320
-321
-321
-321
-321
-324
-321
-321
-321
-321
-322
-323
-324
-323
-324
-323
-324
-324
-324
-323
-323
-324
-324
-324
-323
-324
-324
-323
-323
-324
-324
-325
-325
-324
-324
-325
-324
-326
-324
-325
-325
-325
-324
-328
-324
-324
-324
-324
-329
-324
-324
-325
-325
-324
-324
-325
-326
-325
-324
-324
-325
-324
-324
-325
-327
-324
-324
-324
-324
-324
-324
-324
-324
-321
-323
-324
-324
-323
-322
-321
-322
-321
-321
-321
-321
-320
-321
-321
-320
-320
-318
-321
-319
-319
-318
-314
-313
-312
-310
-309
-310
-307
-304
-300
-300
-300
-302
-309
-307
-307
-309
-309
-311
-315
-317
-320
-322
-320
-321
-321
-321
-321
-322
-321
-322
-321
-320
-320
-319
-318
-318
-316
-315
-318
-328
-329
-306
-272
-221
-154
-110
-95
-103
-121
-157
-218
-283
-327
-339
-330
-324
-312
-306
-307
-307
-312
-311
-310
-311
-309
-310
-310
-310
-307
-308
-307
-310
-306
-306
-306
-306
-305
-303
-301
-301
-300
-300
-297
-297
-295
-294
-295
-293
-292
-292
-291
-290
-290
-290
-290
-289
-289
-289
-286
-289
-289
-290
-291
-290
-292
-293
-295
-296
-299
-300
-302
-304
-306
-306
-313
-311
-312
-315
-315
-317
-317
-316
-315
-314
-312
-312
-312
-310
-307
-306
-300
-304
-302
-303
-302
-301
-300
-302
-301
-302
-302
-301
-302
-300
-301
-302
-301
-302
-302
-301
-302
-302
-300
-302
-303
-301
-300
-298
-302
-303
-302
-303
-303
-304
-305
-305
-305
-306
-306
-306
-306
-306
-306
-312
-308
-308
-309
-310
-308
-311
-312
-312
-312
-312
-312
-313
-314
-314
-314
-318
-317
-317
-318
-318
-318
-319
-319
-319
-318
-318
-319
-318
-319
-319
-319
-320
-320
-320
-321
-321
-320
-322
-321
-321
-321
-319
-323
-320
-321
-320
-321
-321
-318
-318
-318
-319
-318
-320
-320
-320
-320
-319
-321
-321
-322
-321
-319
-320
-320
-320
-319
-320
-319
-318
-319
-320
-320
-320
-319
-320
-319
-319
-319
-319
-318
-319
-319
-318
-319
-323
-319
-319
-319
-319
-319
-319
-319
-318
-318
-318
-320
-318
-319
-318
-318
-321
-319
-319
-318
-318
-316
-318
-319
-318
-318
-316
-315
-312
-312
-310
-310
-311
-308
-307
-305
-300
-299
-299
-298
-300
-305
-303
-305
-306
-306
-308
-312
-316
-316
-316
-318
-319
-318
-318
-318
-318
-318
-316
-319
-317
-316
-316
-313
-314
-312
-311
-313
-318
-316
-296
-267
-228
-169
-122
-103
-110
-135
-175
-234
-305
-348
-360
-341
-328
-316
-306
-303
-303
-306
-305
-303
-305
-305
-304
-304
-304
-302
-301
-300
-300
-300
-298
-298
-297
-296
-296
-293
-293
-293
-293
-291
-291
-290
-290
-288
-287
-287
-282
-285
-286
-286
-285
-283
-283
-282
-281
-281
-281
-282
-281
-282
-282
-283
-282
-286
-287
-289
-291
-293
-295
-299
-300
-302
-306
-306
-306
-308
-311
-311
-312
-312
-311
-312
-311
-310
-308
-306
-306
-305
-301
-299
-301
-300
-300
-299
-298
-298
-300
-299
-300
-300
-300
-299
-299
-300
-300
-295
-298
-299
-298
-299
-299
-298
-297
-297
-298
-299
-299
-299
-300
-300
-300
-297
-300
-300
-300
-300
-301
-301
-303
-305
-305
-306
-305
-306
-307
-307
-309
-309
-310
-311
-311
-311
-312
-312
-313
-312
-314
-314
-319
-314
-317
-317
-317
-318
-317
-318
-318
-318
-317
-317
-318
-318
-319
-318
-322
-319
-320
-320
-319
-319
-319
-320
-320
-318
-319
-320
-320
-319
-319
-320
-321
-320
-321
-320
-320
-319
-321
-321
-320
-320
-319
-320
-321
-320
-319
-321
-323
-322
-321
-322
-321
-321
-323
-322
-323
-321
-320
-325
-322
-321
-321
-320
-323
-321
-320
-320
-321
-320
-321
-322
-322
-320
-318
-322
-320
-319
-319
-318
-318
-318
-319
-317
-314
-312
-311
-312
-310
-308
-307
-302
-301
-300
-300
-303
-307
-308
-309
-310
-311
-312
-317
-318
-320
-321
-321
-323
-322
-321
-322
-321
-320
-323
-322
-320
-320
-319
-320
-316
-316
-315
-316
-316
-304
-281
-248
-194
-140
-124
-135
-168
-215
-264
-325
-360
-372
-352
-335
-324
-314
-308
-308
-308
-308
-309
-310
-307
-308
-307
-306
-306
-305
-306
-305
-304
-303
-304
-301
-302
-302
-298
-300
-298
-298
-298
-295
-296
-295
-294
-293
-293
-293
-290
-290
-289
-289
-286
-288
-287
-288
-288
-288
-287
-287
-287
-290
-290
-290
-292
-294
-297
-300
-300
-303
-306
-308
-309
-312
-314
-317
-318
-319
-320
-320
-322
-319
-319
-318
-316
-315
-314
-312
-311
-311
-311
-307
-307
-306
-304
-301
-306
-305
-305
-304
-302
-304
-305
-304
-303
-305
-304
-303
-302
-302
-301
-297
-300
-300
-300
-301
-301
-300
-300
-301
-300
-300
-300
-300
-300
-302
-303
-303
-305
-305
-305
-306
-306
-306
-307
-309
-307
-309
-313
-311
-312
-312
-312
-313
-315
-315
-314
-316
-314
-318
-316
-317
-318
-318
-322
-318
-319
-319
-318
-319
-319
-319
-319
-320
-319
-318
-320
-320
-318
-319
-321
-320
-319
-319
-318
-319
-319
-321
-320
-320
-319
-319
-319
-320
-319
-320
-321
-322
-321
-319
-320
-320
-322
-320
-319
-320
-319
-323
-319
-319
-319
-319
-320
-319
-321
-320
-320
-320
-319
-320
-319
-319
-319
-323
-320
-322
-321
-321
-319
-320
-319
-320
-320
-318
-319
-320
-319
-318
-319
-319
-318
-318
-318
-318
-316
-318
-318
-317
-315
-311
-312
-309
-309
-307
-306
-308
-303
-299
-298
-299
-300
-304
-306
-306
-306
-307
-312
-311
-314
-317
-318
-319
-320
-320
-320
-320
-321
-320
-319
-318
-318
-318
-321
-317
-316
-316
-316
-322
-329
-311
-282
-239
-172
-119
-93
-89
-102
-131
-184
-253
-308
-338
-340
-329
-320
-309
-306
-308
-308
-312
-309
-310
-309
-308
-309
-308
-308
-306
-307
-306
-306
-305
-305
-305
-305
-299
-300
-300
-300
-300
-298
-298
-297
-297
-295
-295
-294
-293
-292
-291
-291
-286
-289
-289
-288
-288
-287
-288
-287
-287
-287
-288
-287
-288
-289
-290
-293
-293
-295
-297
-300
-303
-305
-307
-309
-310
-311
-312
-316
-313
-312
-313
-312
-312
-312
-311
-309
-307
-306
-306
-306
-306
-305
-303
-301
-305
-305
-305
-305
-306
-306
-306
-306
-306
-307
-306
-306
-306
-306
-306
-309
-306
-306
-307
-307
-307
-308
-307
-307
-310
-307
-310
-310
-311
-309
-311
-312
-311
-312
-312
-312
-311
-312
-312
-313
-313
-314
-319
-315
-315
-316
-317
-318
-318
-319
-320
-320
-321
-320
-321
-321
-323
-321
-325
-324
-324
-324
-324
-324
-324
-325
-325
-324
-324
-326
-326
-327
-326
-326
-328
-327
-327
-327
-327
-326
-327
-328
-325
-328
-325
-331
-327
-329
-327
-326
-327
-327
-328
-326
-327
-326
-327
-326
-328
-327
-327
-328
-325
-326
-327
-326
-324
-325
-324
-326
-326
-325
-324
-325
-325
-326
-326
-326
-324
-325
-324
-326
-324
-326
-325
-325
-325
-324
-325
-325
-325
-324
-324
-325
-324
-324
-324
-323
-324
-324
-324
-323
-323
-323
-327
-324
-322
-320
-318
-317
-316
-314
-314
-312
-311
-307
-305
-303
-303
-305
-311
-312
-311
-311
-312
-314
-318
-321
-322
-324
-324
-324
-324
-325
-325
-324
-324
-325
-325
-324
-323
-323
-321
-320
-320
-319
-323
-334
-331
-306
-269
-210
-142
-94
-83
-88
-108
-142
-206
-273
-324
-344
-337
-332
-319
-312
-310
-311
-313
-314
-314
-313
-313
-312
-313
-312
-311
-311
-310
-312
-309
-307
-306
-306
-306
-306
-305
-303
-303
-302
-300
-300
-300
-299
-300
-297
-297
-294
-295
-295
-294
-292
-290
-291
-291
-290
-286
-288
-287
-289
-289
-288
-289
-290
-291
-293
-296
-297
-298
-300
-302
-305
-309
-308
-311
-312
-314
-316
-317
-318
-318
-318
-317
-316
-314
-314
-312
-309
-312
-308
-308
-306
-304
-305
-303
-302
-302
-302
-303
-300
-301
-302
-303
-302
-303
-303
-303
-302
-303
-303
-303
-302
-303
-301
-303
-300
-301
-301
-301
-300
-300
-302
-303
-300
-302
-304
-305
-305
-303
-305
-305
-303
-306
-306
-307
-306
-306
-307
-308
-309
-310
-309
-310
-309
-312
-312
-311
-314
-313
-314
-314
-314
-315
-316
-317
-316
-317
-316
-318
-316
-316
-317
-317
-318
-317
-318
-318
-318
-317
-320
-318
-318
-318
-318
-321
-318
-318
-318
-318
-318
-319
-318
-319
-320
-318
-318
-319
-319
-319
-318
-322
-318
-318
-318
-318
-318
-319
-319
-318
-318
-317
-317
-318
-319
-318
-318
-319
-318
-318
-318
-318
-318
-317
-318
-317
-318
-317
-320
-318
-317
-317
-317
-317
-316
-316
-316
-315
-314
-316
-316
-314
-314
-314
-317
-314
-315
-311
-312
-311
-309
-307
-306
-305
-305
-304
-303
-300
-295
-293
-290
-294
-297
-300
-303
-303
-302
-304
-306
-308
-311
-314
-315
-317
-317
-315
-317
-317
-316
-316
-316
-315
-315
-313
-313
-313
-312
-314
-309
-311
-316
-313
-297
-271
-234
-177
-125
-101
-110
-132
-176
-228
-295
-345
-364
-348
-331
-319
-308
-303
-302
-303
-303
-304
-304
-302
-303
-303
-303
-300
-300
-301
-300
-300
-300
-298
-298
-296
-296
-296
-292
-293
-293
-293
-292
-290
-290
-289
-289
-288
-287
-286
-286
-285
-283
-283
-279
-281
-281
-281
-281
-279
-278
-279
-280
-281
-281
-282
-283
-286
-288
-290
-290
-296
-297
-299
-302
-305
-306
-307
-309
-311
-312
-311
-311
-312
-310
-310
-307
-306
-306
-303
-301
-300
-299
-297
-297
-297
-296
-293
-295
-296
-296
-296
-295
-296
-296
-297
-297
-296
-295
-297
-295
-296
-297
-293
-295
-295
-295
-295
-295
-295
-294
-295
-295
-298
-297
-297
-298
-298
-300
-297
-301
-300
-302
-303
-304
-305
-306
-305
-306
-305
-306
-306
-307
-308
-309
-311
-312
-312
-312
-313
-312
-314
-314
-316
-314
-316
-319
-316
-316
-315
-317
-318
-316
-317
-316
-318
-316
-317
-316
-318
-316
-317
-320
-317
-318
-318
-318
-318
-318
-318
-318
-318
-318
-318
-318
-318
-318
-318
-318
-318
-318
-317
-318
-319
-318
-318
-318
-318
-318
-318
-319
-319
-319
-318
-319
-319
-318
-318
-318
-318
-321
-318
-318
-318
-318
-321
-318
-318
-318
-318
-318
-318
-318
-318
-318
-317
-318
-318
-318
-317
-318
-320
-317
-317
-316
-314
-312
-311
-309
-309
-307
-305
-305
-305
-300
-297
-298
-296
-297
-302
-306
-306
-307
-309
-309
-312
-314
-317
-321
-320
-320
-321
-319
-321
-321
-320
-320
-320
-320
-318
-319
-319
-318
-317
-318
-316
-318
-318
-299
-275
-238
-178
-131
-117
-130
-171
-216
-264
-321
-360
-372
-351
-336
-325
-314
-308
-308
-309
-307
-307
-306
-307
-306
-306
-305
-305
-305
-305
-305
-306
-303
-301
-300
-300
-299
-299
-299
-294
-295
-294
-294
-294
-292
-291
-291
-290
-289
-288
-287
-287
-287
-286
-285
-281
-283
-282
-283
-282
-283
-281
-281
-284
-285
-287
-288
-288
-292
-293
-296
-297
-300
-305
-306
-309
-312
-314
-314
-317
-318
-318
-321
-318
-318
-316
-314
-314
-312
-310
-308
-307
-307
-305
-305
-303
-302
-303
-299
-302
-300
-303
-302
-301
-300
-302
-301
-300
-300
-300
-300
-300
-301
-300
-296
-297
-299
-298
-300
-300
-299
-300
-300
-301
-300
-301
-300
-302
-302
-303
-302
-304
-305
-305
-305
-306
-307
-307
-310
-310
-309
-315
-312
-312
-312
-313
-314
-314
-314
-315
-316
-316
-317
-317
-318
-318
-318
-322
-318
-319
-318
-318
-318
-319
-319
-319
-318
-318
-319
-318
-319
-318
-318
-320
-319
-319
-318
-319
-320
-321
-319
-320
-319
-318
-318
-318
-320
-321
-319
-320
-320
-320
-319
-319
-320
-320
-319
-318
-319
-320
-323
-320
-319
-319
-319
-320
-319
-319
-319
-318
-318
-319
-319
-318
-318
-318
-321
-319
-318
-319
-318
-318
-318
-318
-318
-317
-318
-319
-318
-318
-318
-318
-319
-317
-318
-317
-316
-317
-317
-316
-314
-314
-312
-313
-309
-307
-306
-306
-305
-300
-298
-297
-298
-300
-303
-306
-306
-307
-307
-311
-312
-314
-318
-318
-319
-319
-318
-318
-319
-318
-319
-319
-318
-318
-317
-319
-315
-315
-311
-313
-321
-327
-312
-281
-237
-174
-116
-85
-79
-90
-120
-172
-247
-306
-336
-336
-326
-316
-306
-303
-305
-306
-310
-306
-308
-307
-306
-305
-305
-306
-305
-304
-305
-303
-300
-300
-300
-300
-293
-297
-297
-296
-294
-294
-292
-292
-291
-290
-291
-289
-288
-287
-286
-287
-285
-284
-285
-283
-283
-283
-283
-285
-285
-283
-286
-285
-287
-288
-290
-292
-293
-296
-299
-302
-305
-306
-307
-309
-310
-311
-312
-317
-312
-311
-312
-312
-311
-310
-307
-306
-305
-305
-302
-302
-301
-301
-301
-300
-302
-302
-302
-303
-303
-303
-302
-302
-302
-303
-300
-303
-303
-303
-303
-302
-303
-302
-302
-302
-302
-303
-304
-303
-305
-306
-300
-303
-306
-306
-305
-306
-306
-307
-308
-308
-307
-310
-307
-309
-311
-310
-315
-312
-313
-313
-314
-314
-317
-317
-316
-317
-317
-318
-319
-318
-320
-320
-323
-321
-321
-323
-321
-321
-321
-322
-321
-322
-321
-324
-323
-323
-323
-322
-323
-324
-324
-324
-324
-323
-324
-324
-323
-325
-325
-329
-325
-324
-324
-326
-326
-325
-327
-327
-325
-326
-326
-327
-326
-326
-326
-329
-326
-326
-327
-327
-325
-326
-324
-327
-326
-325
-325
-325
-326
-326
-326
-326
-326
-325
-325
-324
-325
-325
-324
-324
-325
-324
-324
-324
-325
-323
-324
-324
-323
-324
-322
-322
-321
-324
-322
-322
-321
-320
-324
-318
-316
-314
-312
-312
-312
-311
-310
-305
-305
-300
-301
-304
-307
-309
-313
-311
-312
-314
-318
-319
-324
-323
-324
-325
-324
-324
-324
-324
-324
-324
-324
-322
-323
-322
-320
-319
-319
-322
-330
-335
-316
-278
-229
-157
-97
-70
-72
-89
-118
-172
-257
-315
-347
-341
-332
-324
-313
-312
-312
-313
-314
-314
-313
-314
-312
-312
-312
-311
-312
-311
-312
-311
-308
-310
-307
-307
-306
-306
-305
-303
-301
-300
-300
-299
-298
-296
-296
-294
-293
-293
-293
-291
-291
-291
-290
-289
-289
-289
-290
-290
-286
-289
-291
-293
-292
-293
-296
-297
-299
-303
-305
-306
-308
-312
-313
-316
-319
-319
-320
-321
-319
-319
-319
-319
-316
-316
-313
-313
-312
-310
-307
-306
-303
-304
-303
-304
-302
-303
-304
-303
-302
-303
-305
-302
-302
-303
-303
-303
-301
-302
-303
-303
-303
-302
-302
-303
-301
-301
-302
-300
-302
-303
-303
-305
-305
-306
-305
-306
-305
-306
-306
-306
-306
-306
-306
-311
-307
-308
-308
-309
-309
-310
-311
-310
-312
-312
-313
-314
-313
-315
-316
-317
-314
-317
-318
-317
-318
-318
-318
-318
-318
-316
-321
-318
-318
-318
-318
-320
-318
-318
-318
-318
-319
-320
-319
-320
-319
-319
-322
-319
-318
-318
-318
-319
-318
-318
-319
-319
-318
-318
-318
-320
-319
-320
-323
-320
-321
-320
-321
-321
-322
-321
-322
-321
-320
-321
-321
-321
-322
-321
-323
-322
-321
-321
-320
-321
-321
-320
-321
-321
-319
-324
-320
-321
-321
-320
-321
-320
-318
-318
-317
-313
-312
-312
-310
-309
-307
-310
-304
-297
-298
-297
-299
-302
-306
-306
-306
-307
-307
-310
-313
-315
-318
-318
-318
-318
-319
-319
-318
-319
-319
-318
-318
-318
-316
-316
-314
-313
-312
-314
-316
-305
-284
-252
-201
-136
-99
-95
-121
-167
-217
-278
-339
-373
-369
-342
-329
-317
-306
-303
-303
-302
-305
-304
-303
-305
-299
-301
-300
-301
-301
-300
-298
-299
-299
-298
-297
-296
-293
-295
-294
-293
-292
-293
-291
-289
-289
-289
-287
-286
-287
-286
-285
-281
-282
-281
-281
-281
-282
-281
-281
-281
-281
-281
-281
-281
-283
-285
-286
-283
-289
-293
-294
-297
-301
-302
-306
-308
-312
-312
-313
-314
-314
-314
-316
-317
-314
-312
-311
-310
-307
-306
-306
-304
-302
-300
-300
-297
-298
-296
-297
-296
-296
-296
-296
-296
-295
-296
-296
-296
-295
-295
-290
-293
-293
-293
-293
-293
-294
-293
-292
-293
-292
-292
-292
-293
-292
-293
-291
-293
-293
-294
-295
-297
-298
-297
-299
-300
-301
-301
-302
-303
-305
-305
-305
-306
-306
-307
-307
-308
-307
-310
-309
-311
-312
-312
-312
-311
-312
-312
-313
-313
-313
-313
-313
-313
-315
-314
-313
-314
-314
-318
-316
-316
-314
-316
-315
-316
-315
-316
-316
-315
-316
-316
-315
-315
-315
-319
-316
-317
-316
-317
-317
-316
-317
-316
-318
-316
-316
-317
-318
-317
-316
-318
-317
-317
-316
-316
-316
-316
-316
-316
-316
-316
-318
-316
-315
-316
-315
-316
-316
-316
-316
-315
-314
-315
-314
-314
-312
-311
-312
-306
-306
-306
-306
-304
-301
-296
-293
-293
-294
-297
-300
-301
-302
-304
-300
-305
-308
-310
-314
-316
-316
-317
-316
-317
-318
-317
-316
-317
-318
-317
-316
-316
-315
-315
-312
-312
-318
-321
-306
-277
-238
-177
-121
-88
-87
-108
-145
-194
-259
-318
-354
-355
-336
-324
-312
-303
-302
-300
-303
-305
-305
-305
-305
-303
-302
-301
-300
-301
-300
-299
-299
-298
-298
-297
-295
-294
-293
-293
-292
-290
-289
-289
-290
-289
-285
-287
-287
-286
-285
-283
-281
-281
-281
-282
-282
-281
-280
-281
-282
-281
-278
-281
-283
-283
-286
-287
-289
-291
-294
-297
-300
-302
-306
-308
-309
-312
-316
-314
-316
-315
-316
-315
-314
-314
-314
-312
-310
-307
-306
-306
-305
-303
-303
-301
-300
-301
-301
-302
-300
-302
-301
-300
-300
-298
-300
-301
-301
-301
-300
-300
-301
-300
-300
-300
-299
-299
-300
-300
-299
-295
-300
-299
-299
-301
-300
-300
-300
-300
-301
-303
-302
-303
-305
-306
-305
-304
-307
-306
-306
-306
-307
-308
-307
-309
-310
-310
-310
-312
-312
-312
-312
-314
-314
-315
-316
-315
-315
-315
-314
-315
-315
-317
-320
-318
-318
-318
-318
-318
-319
-319
-318
-318
-318
-319
-319
-319
-319
-318
-321
-319
-321
-321
-319
-318
-318
-321
-321
-320
-321
-320
-322
-320
-321
-320
-321
-321
-320
-321
-320
-320
-321
-321
-321
-320
-319
-322
-321
-321
-322
-322
-321
-321
-321
-322
-322
-319
-324
-321
-320
-320
-320
-324
-319
-319
-320
-319
-319
-318
-318
-318
-319
-318
-318
-318
-319
-318
-318
-320
-317
-317
-316
-311
-309
-310
-309
-308
-308
-306
-303
-300
-298
-299
-300
-302
-306
-306
-307
-307
-307
-310
-313
-317
-318
-318
-323
-321
-321
-320
-320
-321
-319
-320
-321
-322
-319
-318
-318
-317
-314
-315
-323
-330
-329
-302
-262
-201
-125
-77
-60
-67
-87
-132
-199
-275
-322
-341
-336
-327
-317
-306
-306
-306
-307
-309
-309
-310
-307
-308
-308
-309
-308
-307
-307
-306
-306
-305
-306
-305
-304
-303
-302
-301
-300
-297
-300
-297
-299
-298
-293
-295
-293
-294
-293
-293
-291
-290
-289
-289
-289
-286
-288
-287
-288
-287
-288
-288
-289
-290
-291
-291
-294
-293
-295
-299
-300
-303
-306
-309
-311
-312
-314
-316
-316
-318
-319
-318
-319
-317
-315
-314
-312
-311
-308
-306
-305
-303
-305
-302
-300
-300
-300
-300
-296
-300
-301
-301
-300
-300
-301
-301
-300
-302
-302
-301
-300
-302
-301
-303
-300
-303
-303
-304
-305
-304
-303
-303
-305
-304
-306
-304
-305
-306
-306
-306
-306
-306
-306
-307
-306
-307
-308
-309
-310
-311
-310
-315
-312
-312
-312
-314
-314
-316
-317
-316
-316
-317
-318
-319
-318
-319
-320
-324
-320
-319
-320
-320
-321
-322
-321
-322
-321
-321
-321
-322
-321
-322
-323
-324
-321
-321
-322
-323
-321
-321
-321
-324
-321
-322
-323
-322
-324
-324
-322
-324
-324
-322
-321
-323
-323
-323
-324
-324
-323
-321
-327
-324
-323
-323
-323
-324
-323
-324
-324
-324
-323
-324
-322
-323
-321
-322
-325
-324
-324
-323
-321
-323
-321
-322
-321
-321
-319
-321
-321
-322
-321
-322
-321
-321
-319
-319
-318
-318
-319
-318
-315
-312
-312
-314
-309
-310
-309
-306
-300
-297
-299
-301
-303
-306
-309
-306
-307
-307
-311
-317
-317
-319
-319
-320
-321
-321
-320
-320
-320
-318
-319
-319
-319
-318
-318
-319
-314
-313
-314
-320
-327
-318
-289
-250
-185
-117
-81
-70
-82
-106
-155
-233
-305
-347
-349
-335
-324
-312
-306
-306
-306
-306
-311
-306
-307
-306
-306
-306
-306
-306
-305
-305
-304
-303
-303
-302
-302
-302
-298
-299
-298
-297
-296
-296
-294
-293
-292
-292
-293
-291
-290
-287
-287
-288
-286
-286
-285
-286
-286
-284
-284
-286
-285
-287
-287
-287
-289
-290
-292
-294
-295
-298
-301
-305
-306
-309
-310
-313
-314
-316
-317
-322
-318
-317
-317
-317
-316
-312
-312
-311
-308
-306
-304
-302
-301
-299
-299
-294
-298
-296
-296
-297
-298
-298
-297
-297
-297
-298
-296
-297
-298
-296
-299
-297
-297
-297
-296
-296
-298
-297
-297
-296
-298
-299
-296
-300
-300
-300
-302
-301
-302
-304
-303
-303
-305
-307
-306
-306
-307
-306
-310
-307
-306
-306
-306
-308
-309
-311
-311
-311
-312
-312
-312
-313
-313
-313
-316
-315
-314
-316
-316
-315
-316
-316
-316
-317
-314
-316
-318
-318
-316
-317
-318
-317
-316
-317
-317
-317
-316
-316
-316
-316
-316
-320
-317
-317
-318
-316
-318
-317
-316
-316
-318
-318
-316
-318
-318
-318
-318
-319
-318
-318
-318
-317
-317
-317
-318
-316
-317
-316
-316
-317
-316
-317
-316
-317
-315
-315
-314
-314
-314
-314
-314
-316
-315
-314
-313
-314
-313
-313
-313
-312
-310
-306
-306
-304
-304
-303
-300
-295
-293
-293
-289
-293
-299
-301
-300
-300
-303
-305
-308
-310
-313
-315
-314
-315
-316
-316
-319
-315
-316
-316
-316
-316
-314
-313
-313
-312
-312
-310
-312
-311
-306
-287
-259
-222
-158
-114
-107
-128
-172
-223
-272
-330
-366
-372
-343
-328
-318
-307
-302
-304
-304
-306
-305
-305
-303
-302
-303
-300
-301
-297
-301
-300
-300
-299
-298
-297
-295
-294
-294
-294
-293
-292
-292
-291
-290
-287
-288
-288
-288
-288
-287
-285
-285
-283
-281
-284
-282
-282
-282
-281
-281
-281
-281
-281
-282
-283
-286
-288
-289
-290
-294
-298
-296
-302
-306
-309
-312
-314
-314
-318
-318
-317
-316
-316
-316
-314
-312
-310
-311
-306
-304
-302
-301
-300
-299
-296
-296
-296
-297
-295
-296
-296
-295
-296
-293
-295
-294
-293
-294
-294
-293
-293
-294
-293
-293
-293
-293
-293
-291
-293
-293
-293
-294
-293
-294
-295
-295
-295
-296
-297
-298
-295
-300
-300
-300
-302
-301
-303
-304
-304
-305
-306
-305
-306
-306
-307
-308
-310
-307
-308
-309
-310
-310
-311
-311
-312
-311
-312
-312
-312
-311
-311
-312
-313
-313
-314
-312
-312
-312
-312
-312
-312
-312
-311
-314
-312
-312
-311
-312
-312
-312
-311
-312
-312
-312
-315
-312
-313
-313
-312
-316
-312
-312
-312
-312
-312
-313
-313
-312
-313
-312
-313
-314
-313
-313
-313
-316
-312
-313
-313
-313
-312
-312
-312
-313
-312
-312
-313
-312
-312
-312
-311
-312
-312
-312
-312
-312
-312
-311
-311
-312
-311
-310
-313
-307
-306
-306
-305
-302
-300
-300
-297
-294
-292
-292
-293
-295
-300
-301
-297
-300
-303
-305
-307
-310
-312
-313
-313
-314
-313
-313
-314
-314
-315
-313
-314
-312
-312
-310
-310
-306
-307
-307
-316
-316
-300
-263
-218
-149
-100
-81
-85
-114
-156
-218
-287
-333
-348
-332
-320
-308
-300
-293
-297
-299
-300
-300
-297
-299
-298
-299
-297
-299
-298
-298
-297
-295
-296
-291
-293
-292
-292
-290
-290
-290
-289
-288
-289
-287
-286
-286
-284
-283
-283
-282
-282
-281
-280
-281
-279
-279
-279
-280
-280
-280
-276
-280
-281
-282
-282
-283
-286
-287
-287
-291
-293
-295
-297
-300
-303
-305
-312
-310
-311
-312
-312
-313
-313
-312
-312
-310
-306
-306
-305
-301
-300
-300
-295
-298
-296
-295
-295
-296
-296
-294
-294
-295
-297
-295
-293
-295
-296
-293
-295
-295
-296
-294
-294
-295
-295
-295
-294
-293
-295
-292
-294
-294
-296
-297
-296
-298
-297
-298
-298
-299
-298
-299
-300
-300
-302
-299
-302
-302
-305
-302
-305
-305
-306
-306
-307
-307
-308
-309
-309
-309
-311
-312
-312
-311
-312
-312
-312
-313
-312
-312
-312
-312
-312
-312
-313
-312
-312
-315
-314
-314
-313
-313
-313
-315
-314
-312
-313
-312
-317
-315
-313
-313
-313
-314
-313
-313
-314
-315
-314
-314
-314
-313
-314
-313
-317
-314
-314
-315
-313
-315
-314
-315
-314
-314
-313
-314
-314
-314
-314
-313
-315
-314
-313
-314
-313
-312
-313
-313
-314
-313
-313
-317
-313
-312
-313
-312
-313
-312
-313
-312
-313
-312
-313
-312
-312
-313
-312
-316
-311
-308
-306
-305
-305
-304
-302
-302
-300
-296
-294
-292
-293
-294
-300
-298
-300
-300
-301
-305
-308
-312
-312
-312
-313
-312
-314
-313
-312
-312
-312
-313
-312
-312
-312
-310
-310
-307
-306
-309
-316
-321
-308
-271
-226
-154
-96
-68
-70
-87
-115
-168
-242
-301
-332
-328
-319
-309
-299
-299
-300
-300
-303
-304
-303
-302
-301
-304
-303
-302
-301
-301
-301
-300
-298
-300
-297
-298
-298
-298
-295
-293
-293
-293
-294
-290
-291
-289
-289
-287
-286
-287
-284
-287
-285
-285
-283
-283
-285
-285
-285
-281
-287
-287
-288
-289
-290
-291
-293
-295
-299
-300
-303
-305
-307
-310
-311
-316
-316
-317
-315
-317
-317
-317
-314
-313
-310
-307
-306
-305
-302
-300
-300
-297
-294
-296
-294
-295
-296
-295
-296
-297
-298
-299
-293
-298
-298
-297
-297
-299
-299
-299
-298
-299
-300
-300
-299
-299
-300
-300
-297
-300
-300
-301
-302
-302
-302
-304
-304
-302
-305
-305
-306
-306
-306
-306
-310
-308
-307
-307
-310
-310
-310
-309
-311
-311
-311
-312
-313
-312
-313
-314
-315
-314
-316
-316
-317
-317
-317
-317
-318
-318
-317
-320
-318
-318
-319
-318
-321
-319
-319
-318
-320
-319
-319
-318
-319
-319
-318
-321
-321
-319
-320
-320
-319
-318
-318
-318
-320
-319
-319
-320
-319
-319
-318
-319
-320
-319
-319
-319
-319
-318
-319
-318
-320
-318
-319
-319
-319
-319
-319
-319
-319
-318
-319
-318
-318
-321
-318
-318
-318
-317
-322
-318
-318
-318
-317
-318
-318
-318
-317
-318
-317
-318
-317
-316
-317
-316
-319
-316
-315
-312
-312
-309
-307
-306
-306
-305
-305
-299
-296
-295
-296
-299
-300
-303
-303
-305
-305
-308
-311
-312
-316
-317
-317
-322
-318
-318
-317
-316
-317
-317
-317
-316
-314
-312
-313
-312
-310
-310
-313
-323
-312
-286
-250
-190
-126
-94
-90
-108
-142
-195
-269
-326
-354
-342
-329
-319
-307
-301
-301
-302
-303
-303
-303
-302
-302
-303
-300
-300
-300
-300
-301
-298
-298
-297
-296
-295
-294
-294
-293
-292
-292
-292
-287
-289
-289
-288
-287
-287
-286
-284
-283
-283
-285
-283
-283
-283
-283
-283
-281
-284
-284
-286
-287
-288
-289
-290
-291
-293
-296
-298
-298
-300
-305
-306
-310
-312
-314
-315
-316
-316
-317
-316
-315
-312
-312
-311
-309
-306
-304
-302
-300
-299
-298
-296
-296
-295
-293
-293
-293
-293
-293
-290
-293
-292
-293
-293
-291
-292
-292
-293
-292
-292
-291
-290
-290
-290
-291
-288
-290
-291
-291
-292
-293
-293
-294
-295
-295
-295
-295
-296
-297
-298
-300
-298
-300
-300
-301
-303
-303
-302
-303
-305
-306
-305
-302
-307
-307
-307
-308
-310
-310
-309
-310
-311
-311
-312
-312
-312
-312
-312
-314
-312
-313
-313
-312
-312
-312
-313
-312
-312
-311
-312
-312
-313
-312
-312
-313
-313
-313
-312
-312
-313
-313
-313
-313
-313
-314
-313
-313
-313
-312
-312
-313
-312
-313
-313
-313
-312
-312
-312
-312
-312
-311
-316
-312
-313
-313
-312
-313
-312
-312
-311
-312
-312
-312
-312
-312
-312
-311
-314
-310
-312
-311
-311
-309
-310
-308
-307
-304
-303
-302
-300
-299
-299
-299
-292
-291
-290
-290
-292
-296
-298
-299
-299
-300
-301
-300
-306
-309
-312
-311
-312
-311
-312
-312
-312
-312
-315
-312
-310
-310
-310
-312
-309
-308
-308
-306
-309
-303
-288
-263
-224
-165
-132
-130
-154
-199
-244
-287
-337
-366
-365
-340
-326
-318
-306
-301
-300
-301
-302
-301
-301
-300
-300
-298
-299
-298
-298
-296
-295
-294
-293
-293
-293
-293
-288
-290
-290
-290
-289
-287
-287
-287
-285
-285
-287
-285
-281
-281
-280
-279
-275
-278
-279
-278
-278
-278
-278
-278
-278
-279
-281
-280
-281
-283
-285
-287
-287
-291
-294
-297
-300
-303
-305
-307
-312
-313
-314
-315
-316
-316
-314
-315
-313
-311
-309
-307
-306
-305
-300
-299
-297
-296
-295
-291
-294
-293
-292
-293
-292
-293
-292
-292
-293
-292
-291
-291
-291
-292
-292
-288
-290
-290
-289
-288
-290
-289
-289
-290
-290
-290
-291
-291
-292
-293
-292
-293
-293
-295
-295
-296
-297
-297
-299
-300
-300
-300
-298
-301
-303
-303
-302
-303
-305
-305
-306
-305
-306
-310
-307
-307
-308
-307
-312
-310
-308
-310
-309
-310
-310
-311
-312
-310
-312
-311
-311
-312
-312
-311
-315
-312
-311
-313
-312
-313
-313
-313
-315
-313
-313
-314
-313
-313
-314
-313
-314
-313
-314
-314
-315
-314
-314
-314
-314
-314
-313
-318
-312
-314
-313
-313
-315
-314
-313
-313
-312
-312
-312
-313
-312
-313
-312
-317
-313
-312
-313
-312
-312
-312
-313
-313
-313
-312
-312
-312
-312
-312
-310
-312
-312
-310
-310
-309
-307
-306
-305
-303
-300
-300
-300
-298
-293
-291
-291
-291
-294
-298
-299
-300
-300
-300
-303
-306
-307
-310
-314
-311
-312
-312
-312
-312
-312
-312
-312
-311
-309
-310
-309
-309
-307
-308
-311
-317
-316
-299
-268
-223
-163
-116
-96
-97
-114
-148
-196
-263
-314
-341
-336
-324
-312
-300
-300
-300
-300
-302
-302
-303
-305
-299
-301
-302
-302
-302
-300
-300
-300
-300
-300
-297
-295
-296
-295
-294
-293
-290
-292
-292
-292
-290
-288
-287
-287
-286
-286
-286
-283
-283
-282
-283
-283
-280
-281
-282
-282
-282
-282
-281
-282
-284
-286
-287
-290
-291
-294
-296
-299
-301
-304
-306
-308
-310
-313
-313
-315
-316
-316
-314
-318
-313
-311
-310
-307
-307
-303
-302
-300
-301
-300
-300
-299
-298
-299
-300
-295
-300
-300
-300
-300
-301
-300
-300
-300
-300
-300
-300
-300
-301
-301
-302
-300
-302
-302
-302
-300
-303
-303
-303
-304
-305
-305
-303
-303
-304
-305
-305
-305
-305
-306
-306
-306
-308
-309
-309
-307
-309
-309
-313
-310
-312
-312
-313
-313
-313
-315
-315
-314
-314
-316
-317
-314
-316
-316
-318
-316
-317
-317
-317
-317
-318
-318
-317
-317
-317
-318
-317
-318
-318
-318
-319
-317
-318
-318
-318
-317
-318
-318
-319
-318
-318
-321
-318
-318
-318
-318
-320
-319
-319
-319
-319
-319
-324
-321
-321
-321
-322
-325
-320
-320
-321
-320
-321
-321
-320
-321
-321
-319
-320
-320
-321
-319
-319
-324
-320
-322
-321
-322
-321
-320
-320
-320
-321
-320
-320
-319
-320
-320
-321
-321
-318
-318
-314
-314
-312
-311
-310
-309
-306
-302
-297
-300
-301
-305
-306
-310
-309
-309
-310
-312
-316
-318
-321
-321
-323
-322
-324
-322
-322
-321
-321
-320
-321
-320
-319
-318
-317
-316
-316
-318
-324
-331
-316
-283
-238
-167
-104
-76
-75
-93
-124
-182
-261
-318
-342
-336
-328
-318
-309
-307
-310
-310
-310
-310
-312
-312
-311
-311
-309
-312
-309
-308
-308
-307
-308
-306
-306
-305
-305
-305
-305
-302
-300
-300
-300
-295
-297
-298
-296
-295
-296
-295
-293
-293
-293
-293
-292
-292
-292
-292
-293
-292
-293
-293
-295
-296
-297
-299
-300
-302
-306
-307
-313
-312
-314
-317
-319
-321
-324
-324
-324
-326
-324
-326
-324
-324
-321
-319
-321
-314
-313
-312
-309
-306
-305
-304
-302
-300
-301
-300
-302
-301
-300
-302
-299
-300
-302
-302
-303
-302
-301
-302
-303
-304
-304
-303
-303
-302
-304
-303
-303
-303
-303
-305
-305
-306
-306
-306
-306
-305
-305
-309
-306
-306
-307
-308
-310
-309
-309
-310
-311
-310
-312
-312
-313
-313
-313
-318
-316
-316
-317
-316
-318
-318
-320
-320
-320
-321
-322
-322
-321
-321
-323
-324
-323
-323
-323
-322
-322
-323
-323
-322
-321
-321
-321
-322
-322
-321
-323
-323
-323
-321
-324
-323
-322
-323
-323
-324
-324
-323
-327
-323
-324
-324
-323
-324
-322
-321
-321
-323
-322
-323
-324
-324
-322
-323
-325
-323
-323
-321
-322
-323
-323
-321
-322
-321
-320
-321
-321
-321
-321
-320
-321
-320
-321
-319
-319
-319
-318
-318
-317
-316
-313
-314
-311
-311
-311
-309
-310
-305
-300
-299
-300
-302
-305
-309
-309
-310
-310
-314
-314
-318
-320
-321
-323
-322
-323
-323
-322
-322
-323
-323
-321
-322
-320
-323
-320
-318
-318
-316
-317
-320
-326
-316
-288
-251
-190
-130
-100
-100
-118
-156
-211
-281
-338
-366
-354
-339
-329
-316
-308
-307
-312
-309
-307
-308
-308
-310
-309
-308
-308
-308
-306
-305
-306
-305
-303
-301
-299
-301
-300
-299
-297
-297
-296
-293
-293
-294
-293
-291
-290
-290
-290
-290
-287
-287
-287
-287
-287
-288
-287
-287
-287
-288
-290
-288
-290
-291
-292
-295
-296
-299
-300
-305
-306
-309
-314
-315
-318
-321
-323
-327
-324
-325
-324
-323
-321
-319
-319
-317
-314
-312
-310
-308
-306
-305
-302
-300
-301
-300
-300
-300
-300
-300
-301
-300
-300
-300
-299
-299
-299
-298
-299
-297
-297
-298
-298
-297
-297
-298
-298
-297
-296
-299
-293
-298
-297
-300
-299
-298
-300
-299
-300
-302
-302
-302
-304
-304
-306
-305
-303
-306
-306
-307
-307
-308
-309
-309
-310
-312
-311
-312
-311
-313
-313
-312
-316
-313
-313
-312
-314
-313
-314
-314
-315
-316
-315
-317
-316
-314
-315
-314
-317
-316
-317
-316
-316
-315
-316
-316
-314
-316
-315
-318
-316
-316
-317
-316
-317
-315
-314
-315
-316
-316
-316
-316
-315
-315
-316
-318
-314
-316
-317
-316
-317
-317
-315
-316
-316
-317
-316
-315
-317
-316
-317
-318
-316
-317
-317
-316
-316
-317
-317
-316
-316
-315
-316
-315
-315
-313
-313
-312
-308
-308
-306
-305
-305
-305
-300
-296
-295
-296
-295
-302
-306
-306
-306
-307
-309
-312
-314
-316
-317
-318
-318
-319
-318
-318
-321
-318
-318
-318
-318
-316
-316
-315
-315
-312
-312
-312
-315
-308
-286
-255
-209
-145
-108
-100
-110
-139
-185
-236
-295
-346
-374
-367
-340
-328
-317
-308
-303
-303
-305
-305
-305
-305
-305
-303
-303
-302
-303
-298
-302
-300
-300
-300
-297
-298
-295
-296
-295
-295
-293
-292
-291
-290
-290
-287
-287
-287
-288
-287
-287
-286
-285
-285
-284
-286
-283
-284
-283
-285
-285
-285
-285
-286
-286
-288
-290
-291
-294
-298
-300
-302
-301
-309
-313
-316
-318
-321
-323
-324
-324
-325
-324
-324
-324
-321
-319
-316
-318
-312
-311
-307
-305
-305
-303
-300
-300
-300
-300
-298
-298
-299
-297
-299
-296
-298
-297
-297
-298
-296
-296
-295
-295
-294
-296
-292
-293
-294
-293
-294
-293
-295
-296
-295
-295
-296
-297
-297
-298
-298
-300
-297
-300
-302
-303
-305
-303
-305
-306
-306
-306
-306
-307
-307
-310
-310
-310
-314
-311
-311
-313
-312
-313
-313
-314
-315
-316
-314
-314
-314
-317
-316
-316
-316
-316
-317
-317
-317
-317
-316
-317
-316
-317
-317
-321
-318
-318
-317
-317
-318
-318
-318
-318
-318
-318
-318
-318
-318
-318
-318
-321
-319
-320
-319
-320
-318
-320
-319
-320
-318
-318
-318
-319
-319
-320
-320
-322
-319
-320
-319
-320
-320
-319
-320
-320
-319
-319
-321
-319
-319
-319
-319
-321
-318
-319
-319
-320
-318
-318
-318
-318
-319
-318
-322
-319
-318
-318
-317
-317
-317
-317
-316
-315
-312
-311
-308
-307
-307
-306
-300
-299
-299
-298
-300
-303
-306
-306
-306
-306
-307
-310
-313
-317
-318
-319
-320
-319
-319
-319
-318
-320
-320
-320
-319
-319
-318
-319
-317
-316
-314
-318
-330
-330
-309
-273
-226
-155
-100
-73
-74
-90
-118
-174
-251
-310
-340
-339
-328
-316
-306
-306
-306
-309
-307
-308
-307
-309
-307
-311
-306
-306
-307
-307
-306
-306
-304
-305
-303
-303
-299
-300
-300
-300
-298
-296
-296
-296
-293
-293
-294
-293
-293
-291
-293
-293
-287
-290
-289
-289
-289
-288
-288
-287
-289
-289
-291
-291
-292
-293
-295
-296
-293
-300
-305
-306
-307
-311
-314
-317
-319
-320
-323
-322
-321
-322
-324
-321
-322
-319
-318
-316
-313
-312
-310
-307
-307
-305
-305
-305
-302
-302
-302
-303
-300
-302
-302
-302
-302
-303
-304
-303
-305
-304
-303
-301
-302
-303
-305
-305
-305
-305
-306
-306
-306
-306
-306
-306
-306
-306
-306
-311
-307
-307
-309
-307
-307
-307
-309
-310
-310
-311
-311
-312
-313
-313
-313
-316
-316
-317
-318
-318
-318
-318
-318
-319
-319
-319
-322
-322
-322
-322
-321
-322
-323
-323
-323
-322
-321
-324
-322
-322
-321
-323
-325
-323
-323
-323
-324
-324
-323
-322
-323
-324
-321
-323
-323
-324
-323
-324
-326
-324
-325
-323
-324
-324
-324
-324
-324
-324
-323
-323
-323
-324
-324
-324
-324
-324
-324
-324
-324
-324
-323
-324
-324
-324
-323
-326
-323
-324
-323
-324
-324
-322
-321
-323
-323
-322
-322
-322
-322
-322
-322
-325
-322
-322
-321
-322
-323
-321
-322
-321
-320
-321
-321
-320
-320
-318
-314
-316
-313
-311
-309
-310
-310
-306
-300
-300
-300
-302
-304
-308
-309
-308
-307
-312
-313
-318
-319
-320
-322
-323
-321
-321
-322
-321
-325
-322
-320
-320
-319
-319
-318
-317
-316
-314
-315
-324
-330
-319
-288
-246
-179
-111
-71
-63
-75
-97
-142
-215
-285
-330
-339
-332
-324
-313
-306
-306
-307
-309
-311
-310
-312
-311
-310
-308
-309
-308
-307
-310
-306
-307
-305
-304
-304
-302
-301
-301
-300
-300
-299
-297
-297
-296
-297
-293
-293
-293
-293
-293
-291
-290
-289
-289
-290
-289
-289
-288
-289
-289
-290
-287
-291
-293
-294
-295
-298
-299
-302
-303
-306
-309
-312
-314
-318
-319
-321
-324
-325
-324
-324
-324
-323
-322
-321
-319
-316
-313
-317
-311
-309
-306
-305
-303
-301
-300
-300
-300
-300
-300
-300
-301
-300
-302
-300
-302
-300
-302
-302
-303
-302
-300
-300
-302
-300
-300
-302
-303
-302
-303
-300
-303
-304
-303
-305
-304
-305
-303
-304
-306
-305
-305
-306
-307
-306
-307
-309
-310
-309
-311
-312
-310
-312
-310
-311
-311
-312
-318
-316
-315
-314
-317
-318
-318
-318
-319
-319
-320
-321
-319
-318
-319
-318
-321
-318
-320
-319
-320
-319
-320
-319
-319
-320
-321
-321
-321
-321
-320
-321
-322
-321
-321
-321
-320
-320
-321
-321
-322
-322
-320
-323
-321
-322
-321
-321
-324
-321
-322
-321
-322
-321
-324
-321
-321
-322
-321
-325
-322
-323
-322
-321
-323
-322
-321
-321
-321
-321
-322
-323
-323
-322
-320
-323
-320
-320
-321
-322
-321
-320
-320
-319
-320
-320
-319
-318
-319
-318
-315
-313
-312
-312
-310
-307
-308
-306
-303
-299
-300
-301
-299
-305
-308
-308
-307
-307
-310
-313
-316
-318
-318
-320
-321
-322
-320
-321
-324
-320
-320
-320
-320
-318
-318
-318
-317
-315
-312
-317
-320
-312
-291
-261
-214
-153
-112
-103
-119
-158
-204
-261
-324
-364
-367
-342
-331
-319
-310
-306
-305
-306
-306
-306
-306
-305
-305
-306
-305
-305
-304
-300
-303
-302
-300
-301
-300
-300
-300
-299
-297
-298
-296
-294
-293
-294
-292
-288
-290
-290
-289
-290
-289
-288
-288
-287
-287
-288
-287
-287
-287
-287
-288
-286
-289
-290
-291
-293
-295
-298
-300
-300
-305
-307
-312
-312
-314
-317
-319
-322
-324
-324
-324
-325
-324
-325
-321
-320
-318
-316
-318
-313
-311
-307
-306
-305
-304
-302
-300
-300
-300
-299
-298
-300
-300
-298
-296
-298
-297
-298
-299
-299
-297
-297
-296
-298
-297
-295
-295
-296
-296
-296
-296
-297
-297
-295
-296
-297
-296
-298
-299
-297
-300
-295
-300
-300
-301
-302
-300
-302
-305
-305
-305
-306
-307
-307
-307
-307
-310
-312
-310
-311
-311
-312
-311
-312
-313
-312
-312
-312
-313
-312
-314
-313
-313
-315
-312
-313
-313
-313
-314
-313
-314
-313
-313
-313
-313
-314
-314
-313
-313
-314
-314
-314
-313
-313
-315
-315
-315
-314
-313
-313
-317
-313
-314
-315
-313
-314
-315
-314
-313
-315
-314
-314
-313
-315
-312
-312
-317
-313
-314
-313
-313
-314
-313
-314
-313
-312
-313
-313
-313
-312
-313
-312
-313
-312
-312
-312
-310
-309
-307
-306
-305
-305
-303
-300
-300
-295
-294
-293
-293
-297
-302
-304
-303
-305
-305
-306
-310
-312
-314
-318
-316
-316
-317
-316
-317
-316
-316
-315
-316
-313
-314
-312
-311
-312
-309
-313
-314
-316
-301
-274
-236
-174
-119
-95
-99
-122
-165
-209
-274
-328
-358
-349
-333
-319
-307
-301
-302
-302
-303
-303
-304
-304
-300
-302
-303
-300
-300
-300
-300
-299
-300
-299
-299
-296
-295
-295
-295
-293
-290
-292
-290
-290
-289
-289
-288
-287
-286
-287
-286
-286
-283
-286
-286
-282
-281
-281
-283
-283
-282
-283
-283
-285
-284
-287
-288
-290
-292
-295
-298
-300
-303
-307
-310
-312
-312
-314
-318
-319
-318
-318
-318
-319
-317
-316
-314
-312
-310
-307
-306
-305
-302
-301
-300
-299
-297
-299
-300
-296
-300
-300
-300
-300
-300
-300
-300
-299
-299
-300
-298
-299
-299
-300
-300
-299
-298
-297
-297
-299
-300
-299
-299
-299
-300
-300
-296
-299
-301
-301
-303
-300
-302
-303
-305
-306
-307
-306
-307
-308
-307
-307
-312
-309
-310
-312
-311
-312
-313
-314
-315
-314
-316
-316
-317
-316
-317
-317
-319
-318
-318
-319
-318
-318
-319
-319
-318
-318
-319
-319
-319
-319
-318
-319
-319
-320
-319
-319
-318
-318
-320
-319
-319
-318
-318
-322
-319
-319
-318
-318
-319
-318
-319
-320
-320
-319
-319
-320
-319
-319
-320
-324
-320
-319
-319
-319
-319
-319
-320
-320
-320
-319
-318
-320
-320
-319
-318
-319
-318
-318
-318
-318
-318
-319
-319
-319
-318
-318
-318
-319
-319
-318
-318
-318
-318
-318
-317
-315
-311
-312
-309
-307
-307
-306
-300
-301
-300
-299
-300
-302
-306
-307
-308
-307
-308
-311
-311
-317
-318
-319
-324
-320
-321
-321
-320
-321
-321
-321
-320
-320
-318
-318
-318
-318
-317
-314
-317
-323
-330
-324
-293
-254
-192
-124
-87
-77
-90
-114
-163
-238
-300
-335
-340
-330
-322
-312
-306
-306
-310
-309
-310
-310
-308
-312
-310
-308
-307
-308
-307
-306
-306
-306
-305
-306
-305
-302
-303
-302
-301
-295
-299
-299
-298
-298
-296
-295
-295
-293
-294
-293
-291
-291
-291
-290
-289
-289
-290
-289
-289
-291
-291
-292
-292
-293
-293
-297
-293
-299
-302
-304
-306
-309
-312
-314
-317
-318
-319
-322
-324
-323
-324
-324
-324
-322
-319
-318
-315
-312
-312
-308
-307
-306
-306
-305
-304
-305
-304
-305
-303
-303
-302
-303
-305
-303
-303
-305
-305
-305
-303
-302
-305
-306
-306
-305
-306
-305
-305
-305
-306
-306
-306
-306
-306
-306
-306
-303
-306
-306
-306
-307
-307
-307
-307
-310
-310
-309
-310
-311
-312
-312
-313
-316
-314
-314
-316
-316
-317
-317
-316
-317
-318
-318
-318
-319
-318
-319
-320
-320
-320
-318
-319
-319
-320
-319
-320
-320
-321
-319
-324
-321
-321
-320
-321
-322
-321
-321
-321
-321
-321
-323
-321
-321
-321
-321
-324
-323
-322
-321
-322
-320
-321
-321
-323
-321
-320
-322
-322
-320
-323
-321
-324
-322
-323
-322
-320
-321
-323
-321
-321
-322
-321
-321
-321
-321
-321
-321
-321
-321
-321
-322
-320
-320
-321
-321
-320
-319
-321
-323
-320
-320
-319
-319
-320
-319
-319
-318
-318
-315
-313
-313
-312
-310
-309
-312
-307
-305
-300
-300
-300
-302
-307
-308
-307
-308
-309
-312
-316
-318
-319
-321
-319
-320
-321
-319
-320
-321
-321
-319
-320
-318
-318
-318
-317
-316
-315
-314
-316
-325
-330
-312
-280
-231
-160
-96
-69
-69
-81
-105
-151
-226
-290
-332
-337
-327
-320
-308
-305
-304
-305
-306
-307
-307
-311
-307
-307
-306
-307
-306
-306
-305
-305
-305
-306
-303
-301
-300
-301
-300
-297
-298
-296
-296
-296
-295
-293
-293
-293
-292
-293
-288
-291
-290
-290
-290
-290
-290
-290
-291
-290
-291
-291
-292
-293
-293
-296
-294
-300
-302
-306
-306
-310
-311
-314
-318
-320
-321
-323
-324
-324
-326
-324
-324
-323
-321
-319
-318
-314
-312
-310
-308
-306
-306
-302
-301
-301
-300
-301
-299
-300
-299
-298
-298
-300
-299
-299
-300
-300
-300
-296
-300
-300
-301
-300
-300
-300
-300
-300
-300
-301
-300
-300
-300
-301
-300
-298
-301
-302
-300
-303
-302
-303
-305
-304
-304
-306
-306
-308
-306
-307
-307
-310
-310
-311
-312
-312
-311
-311
-312
-314
-314
-315
-316
-316
-316
-315
-318
-318
-317
-318
-318
-319
-318
-322
-319
-319
-319
-318
-323
-320
-320
-320
-318
-320
-320
-320
-319
-320
-319
-319
-319
-319
-320
-320
-321
-319
-320
-320
-321
-320
-320
-320
-319
-318
-319
-320
-321
-321
-320
-320
-321
-321
-320
-321
-319
-320
-320
-320
-319
-320
-319
-324
-319
-319
-318
-319
-319
-319
-318
-319
-318
-317
-318
-320
-318
-318
-318
-320
-317
-318
-318
-318
-318
-318
-318
-318
-317
-315
-316
-315
-312
-309
-309
-311
-307
-306
-305
-300
-298
-296
-298
-301
-305
-305
-305
-305
-306
-307
-310
-314
-316
-318
-317
-316
-316
-318
-318
-318
-316
-317
-320
-318
-316
-315
-313
-313
-312
-310
-313
-318
-312
-291
-263
-219
-155
-112
-100
-117
-155
-206
-269
-330
-366
-360
-338
-326
-314
-306
-302
-303
-305
-305
-303
-305
-305
-304
-303
-302
-301
-300
-300
-300
-299
-294
-298
-297
-295
-295
-294
-293
-294
-293
-293
-292
-291
-290
-288
-287
-288
-284
-286
-286
-286
-284
-283
-283
-283
-284
-284
-286
-286
-286
-286
-287
-288
-286
-290
-293
-297
-300
-301
-305
-308
-310
-312
-315
-318
-319
-321
-322
-323
-324
-323
-321
-319
-318
-314
-312
-312
-308
-306
-306
-299
-301
-301
-299
-300
-298
-299
-300
-299
-298
-300
-297
-298
-298
-297
-297
-294
-296
-296
-297
-297
-296
-296
-297
-297
-298
-297
-297
-298
-298
-299
-300
-295
-298
-300
-300
-301
-302
-303
-303
-304
-304
-305
-305
-306
-307
-306
-308
-309
-308
-308
-308
-309
-309
-310
-311
-312
-312
-312
-317
-312
-315
-313
-313
-313
-313
-313
-314
-313
-315
-314
-315
-315
-314
-314
-317
-314
-313
-314
-314
-314
-316
-314
-314
-315
-313
-314
-316
-316
-315
-316
-316
-315
-315
-316
-316
-315
-315
-315
-316
-314
-314
-317
-315
-316
-316
-316
-317
-316
-316
-316
-316
-314
-318
-315
-315
-314
-314
-318
-314
-314
-315
-313
-313
-312
-313
-313
-313
-312
-313
-313
-312
-312
-312
-316
-311
-312
-310
-306
-306
-305
-303
-302
-301
-299
-295
-293
-293
-293
-295
-299
-300
-300
-303
-305
-306
-307
-312
-313
-316
-314
-319
-316
-316
-316
-316
-317
-316
-314
-314
-315
-313
-312
-312
-312
-311
-312
-322
-311
-287
-251
-196
-135
-105
-105
-124
-161
-212
-281
-330
-354
-342
-328
-319
-307
-303
-302
-305
-305
-305
-305
-305
-306
-303
-302
-303
-303
-302
-300
-300
-299
-297
-297
-297
-296
-294
-294
-293
-293
-293
-289
-290
-290
-289
-289
-287
-287
-287
-285
-285
-285
-283
-283
-283
-284
-283
-280
-284
-283
-285
-287
-288
-289
-290
-293
-295
-297
-300
-300
-304
-307
-308
-313
-314
-318
-319
-319
-322
-322
-322
-319
-319
-318
-318
-314
-312
-310
-307
-304
-303
-302
-302
-300
-302
-301
-300
-299
-300
-300
-297
-300
-300
-299
-300
-299
-299
-300
-300
-300
-300
-300
-300
-299
-300
-300
-296
-300
-300
-300
-300
-300
-300
-302
-302
-302
-302
-303
-304
-305
-304
-305
-306
-306
-308
-308
-310
-309
-310
-312
-311
-312
-312
-317
-313
-313
-313
-314
-316
-314
-316
-316
-317
-316
-317
-317
-317
-318
-317
-321
-317
-316
-318
-317
-317
-318
-318
-318
-318
-318
-318
-319
-320
-319
-318
-319
-319
-318
-319
-319
-320
-320
-320
-320
-321
-319
-320
-321
-321
-321
-320
-322
-320
-320
-322
-320
-320
-322
-321
-322
-323
-321
-324
-320
-322
-321
-320
-321
-321
-321
-320
-321
-321
-321
-321
-322
-321
-320
-324
-320
-321
-321
-320
-320
-322
-321
-322
-321
-321
-320
-320
-319
-320
-319
-319
-320
-318
-318
-316
-315
-313
-312
-311
-310
-309
-309
-305
-301
-300
-300
-302
-306
-308
-307
-307
-308
-314
-315
-318
-318
-320
-324
-322
-321
-321
-320
-320
-320
-320
-319
-318
-317
-317
-316
-315
-313
-313
-326
-330
-314
-281
-235
-168
-107
-81
-81
-96
-121
-178
-253
-312
-340
-335
-326
-315
-307
-308
-309
-310
-310
-311
-312
-310
-309
-313
-309
-309
-308
-308
-307
-306
-306
-305
-305
-306
-303
-303
-300
-300
-300
-296
-299
-297
-296
-297
-297
-295
-294
-293
-294
-293
-293
-292
-292
-293
-293
-292
-292
-293
-293
-294
-295
-296
-300
-300
-300
-306
-306
-310
-312
-313
-316
-319
-320
-323
-324
-324
-325
-326
-325
-324
-323
-321
-323
-318
-316
-312
-310
-308
-306
-305
-305
-303
-303
-302
-303
-303
-302
-303
-300
-303
-304
-305
-303
-303
-305
-305
-305
-305
-306
-305
-305
-306
-305
-304
-306
-306
-306
-306
-306
-306
-305
-306
-306
-306
-307
-310
-307
-307
-309
-308
-310
-311
-312
-312
-312
-312
-316
-313
-314
-315
-314
-318
-316
-318
-318
-319
-319
-319
-319
-321
-320
-321
-321
-321
-321
-319
-321
-323
-321
-322
-322
-321
-321
-323
-321
-322
-321
-321
-321
-321
-322
-322
-321
-324
-322
-323
-321
-324
-321
-322
-321
-324
-324
-323
-327
-324
-324
-324
-323
-324
-323
-322
-323
-323
-322
-322
-323
-322
-322
-323
-325
-321
-322
-323
-321
-321
-322
-322
-321
-323
-321
-322
-321
-321
-322
-322
-323
-321
-320
-322
-322
-322
-323
-323
-323
-321
-322
-320
-321
-321
-320
-321
-322
-320
-319
-318
-318
-318
-317
-315
-312
-312
-311
-313
-309
-308
-306
-302
-299
-299
-299
-304
-306
-307
-306
-306
-307
-312
-315
-321
-319
-320
-320
-319
-321
-321
-321
-321
-319
-320
-320
-320
-319
-318
-317
-316
-314
-314
-315
-323
-328
-313
-279
-233
-167
-101
-70
-69
-82
-106
-154
-231
-294
-334
-335
-327
-318
-311
-305
-306
-308
-307
-312
-309
-309
-308
-308
-307
-308
-308
-307
-306
-308
-306
-305
-305
-305
-303
-300
-300
-299
-298
-299
-297
-296
-295
-295
-295
-295
-293
-292
-292
-292
-292
-291
-291
-290
-290
-291
-292
-291
-292
-293
-294
-295
-293
-297
-300
-300
-304
-307
-309
-312
-314
-318
-320
-321
-325
-326
-328
-327
-331
-328
-327
-325
-324
-320
-319
-316
-314
-311
-309
-307
-305
-302
-301
-300
-298
-299
-300
-299
-300
-300
-300
-299
-299
-300
-301
-300
-301
-300
-301
-302
-300
-301
-301
-300
-301
-301
-302
-300
-301
-302
-302
-298
-301
-303
-303
-302
-302
-304
-303
-304
-304
-306
-306
-306
-307
-308
-309
-312
-309
-310
-311
-312
-312
-311
-311
-312
-312
-312
-313
-314
-315
-315
-315
-316
-316
-316
-315
-314
-317
-317
-317
-318
-318
-318
-321
-318
-318
-318
-318
-319
-318
-318
-318
-319
-318
-318
-319
-319
-318
-318
-321
-318
-318
-319
-318
-319
-318
-319
-320
-319
-319
-319
-319
-319
-318
-318
-320
-318
-318
-318
-318
-318
-318
-318
-318
-318
-317
-318
-318
-318
-318
-318
-318
-316
-318
-316
-315
-315
-316
-317
-317
-316
-315
-320
-316
-314
-315
-313
-315
-314
-315
-314
-314
-312
-312
-313
-311
-309
-308
-310
-306
-305
-303
-303
-302
-298
-293
-292
-292
-293
-296
-299
-300
-299
-300
-301
-305
-306
-310
-312
-312
-312
-313
-313
-313
-312
-313
-313
-312
-312
-309
-311
-308
-307
-306
-305
-307
-309
-314
-306
-282
-248
-194
-135
-101
-96
-110
-146
-196
-263
-323
-354
-349
-329
-318
-308
-300
-298
-294
-300
-297
-299
-298
-299
-298
-298
-298
-296
-296
-295
-295
-293
-293
-294
-291
-291
-291
-290
-290
-289
-287
-287
-287
-286
-286
-281
-284
-283
-282
-282
-280
-281
-280
-280
-279
-279
-278
-279
-278
-278
-281
-278
-281
-281
-282
-283
-286
-287
-290
-292
-295
-299
-301
-305
-307
-309
-311
-316
-316
-317
-318
-318
-315
-314
-313
-311
-308
-306
-303
-302
-300
-297
-294
-292
-293
-292
-290
-290
-289
-289
-289
-289
-289
-290
-286
-289
-288
-288
-288
-289
-289
-288
-287
-287
-288
-288
-287
-287
-288
-288
-284
-287
-287
-288
-289
-289
-288
-287
-289
-289
-291
-290
-290
-293
-294
-296
-294
-295
-295
-297
-297
-299
-299
-299
-300
-300
-301
-300
-301
-302
-303
-304
-303
-305
-306
-305
-305
-306
-306
-306
-306
-306
-306
-303
-306
-306
-306
-306
-306
-306
-306
-306
-308
-306
-307
-307
-309
-307
-307
-310
-308
-307
-307
-307
-308
-309
-308
-308
-309
-307
-309
-310
-310
-309
-310
-310
-310
-309
-308
-309
-308
-307
-310
-309
-308
-308
-312
-310
-309
-309
-308
-308
-307
-306
-307
-307
-307
-309
-308
-307
-309
-307
-312
-307
-306
-306
-308
-306
-306
-306
-306
-306
-306
-303
-300
-300
-297
-299
-293
-294
-293
-291
-288
-287
-286
-288
-291
-295
-296
-295
-297
-299
-301
-304
-307
-309
-310
-309
-309
-308
-309
-307
-308
-308
-309
-312
-307
-306
-306
-305
-305
-303
-302
-306
-308
-296
-267
-233
-177
-121
-94
-94
-119
-155
-204
-267
-318
-348
-344
-326
-316
-305
-296
-294
-295
-296
-296
-295
-296
-295
-295
-295
-295
-294
-294
-293
-293
-293
-290
-292
-290
-291
-291
-289
-289
-288
-287
-287
-286
-283
-283
-283
-281
-281
-276
-281
-280
-278
-279
-278
-277
-277
-278
-277
-277
-278
-277
-279
-280
-281
-280
-282
-286
-288
-290
-294
-295
-299
-301
-306
-306
-311
-313
-314
-317
-318
-320
-319
-319
-318
-317
-315
-313
-312
-309
-307
-306
-299
-300
-299
-297
-296
-295
-294
-294
-293
-293
-293
-293
-293
-293
-293
-293
-290
-293
-293
-293
-293
-292
-292
-292
-293
-293
-292
-293
-293
-293
-292
-293
-290
-293
-293
-294
-295
-296
-296
-297
-298
-299
-300
-300
-300
-300
-302
-304
-302
-303
-302
-304
-305
-306
-306
-306
-307
-308
-308
-312
-310
-310
-309
-312
-311
-311
-312
-312
-311
-311
-312
-313
-313
-313
-312
-317
-314
-315
-314
-316
-314
-315
-313
-314
-314
-314
-316
-316
-316
-316
-316
-317
-316
-317
-315
-316
-317
-317
-318
-317
-318
-317
-318
-318
-318
-318
-317
-318
-318
-319
-319
-319
-319
-321
-318
-318
-318
-320
-324
-320
-320
-322
-321
-321
-322
-323
-323
-323
-324
-322
-323
-323
-323
-323
-326
-323
-324
-324
-323
-323
-323
-322
-323
-324
-322
-323
-323
-321
-321
-321
-321
-321
-318
-317
-315
-314
-312
-311
-312
-310
-306
-300
-301
-301
-303
-306
-309
-309
-309
-310
-312
-313
-317
-320
-321
-322
-323
-326
-324
-324
-323
-323
-323
-322
-322
-322
-322
-321
-320
-319
-318
-318
-326
-334
-322
-292
-251
-185
-119
-85
-82
-91
-116
-163
-237
-297
-336
-341
-332
-324
-314
-309
-310
-311
-313
-313
-314
-313
-314
-313
-317
-313
-312
-312
-311
-311
-311
-310
-309
-308
-308
-308
-306
-306
-305
-303
-301
-302
-301
-300
-300
-300
-298
-298
-297
-297
-297
-296
-296
-296
-295
-296
-294
-295
-295
-296
-297
-299
-299
-300
-301
-305
-306
-309
-310
-313
-314
-318
-320
-322
-323
-325
-327
-328
-332
-330
-330
-329
-329
-330
-325
-324
-323
-319
-318
-316
-312
-311
-309
-307
-307
-306
-307
-306
-306
-304
-306
-306
-307
-307
-306
-307
-307
-309
-307
-306
-308
-307
-307
-307
-307
-309
-308
-309
-307
-308
-310
-310
-311
-311
-311
-311
-314
-312
-312
-311
-312
-313
-313
-312
-313
-314
-313
-315
-316
-317
-316
-317
-319
-318
-318
-319
-319
-319
-321
-322
-321
-324
-323
-324
-323
-324
-324
-324
-325
-324
-324
-324
-324
-324
-324
-324
-325
-324
-324
-324
-325
-324
-324
-324
-325
-325
-324
-326
-325
-326
-326
-324
-325
-325
-325
-329
-325
-326
-325
-325
-325
-324
-324
-324
-325
-324
-325
-324
-324
-324
-325
-327
-325
-324
-325
-324
-325
-324
-324
-324
-326
-324
-324
-324
-325
-325
-324
-324
-325
-324
-324
-324
-322
-324
-323
-324
-324
-324
-324
-324
-324
-324
-323
-324
-323
-323
-322
-321
-321
-324
-321
-320
-321
-320
-324
-320
-319
-316
-312
-313
-312
-312
-311
-309
-306
-300
-300
-300
-303
-306
-309
-308
-308
-311
-312
-314
-318
-321
-323
-322
-323
-323
-324
-324
-323
-323
-323
-322
-324
-322
-321
-319
-319
-318
-318
-320
-330
-336
-312
-276
-228
-162
-104
-80
-82
-96
-125
-184
-264
-320
-344
-336
-328
-322
-310
-308
-310
-312
-312
-313
-312
-313
-313
-313
-312
-313
-312
-311
-309
-312
-309
-308
-307
-306
-306
-305
-305
-303
-303
-302
-300
-300
-300
-300
-299
-297
-298
-297
-295
-295
-295
-294
-293
-293
-293
-294
-292
-293
-295
-296
-298
-299
-300
-301
-302
-306
-309
-311
-312
-316
-318
-320
-325
-326
-328
-330
-331
-332
-333
-332
-330
-329
-326
-324
-321
-319
-317
-314
-312
-309
-307
-306
-305
-303
-303
-303
-302
-301
-303
-300
-304
-303
-306
-305
-305
-304
-305
-305
-305
-306
-306
-306
-306
-306
-305
-302
-305
-305
-305
-306
-305
-306
-305
-306
-306
-306
-306
-307
-307
-308
-308
-313
-311
-312
-312
-311
-312
-314
-313
-314
-313
-313
-315
-315
-314
-316
-316
-318
-318
-318
-318
-318
-318
-319
-319
-319
-319
-320
-323
-320
-320
-321
-319
-320
-320
-322
-321
-321
-320
-321
-321
-321
-321
-320
-324
-321
-321
-321
-321
-321
-322
-320
-321
-320
-319
-321
-321
-320
-319
-320
-322
-321
-321
-322
-320
-320
-320
-321
-321
-323
-319
-321
-320
-322
-320
-321
-321
-322
-321
-320
-321
-320
-320
-320
-320
-321
-320
-324
-321
-322
-321
-321
-320
-319
-319
-318
-318
-318
-319
-318
-318
-318
-316
-320
-317
-316
-316
-314
-312
-310
-309
-307
-306
-305
-305
-302
-297
-294
-295
-293
-296
-298
-302
-303
-303
-302
-305
-308
-311
-313
-318
-315
-316
-317
-316
-317
-317
-317
-315
-316
-315
-318
-314
-315
-312
-311
-312
-310
-313
-318
-309
-283
-250
-193
-131
-95
-94
-115
-146
-196
-266
-325
-360
-354
-336
-324
-312
-305
-301
-302
-302
-303
-303
-300
-302
-301
-302
-303
-300
-300
-300
-298
-298
-298
-297
-297
-295
-294
-295
-291
-292
-292
-292
-290
-289
-288
-288
-287
-287
-287
-286
-286
-285
-283
-285
-281
-282
-282
-282
-283
-285
-283
-285
-286
-287
-288
-290
-292
-293
-296
-300
-300
-306
-307
-310
-314
-316
-318
-320
-322
-321
-323
-323
-322
-320
-319
-318
-316
-312
-312
-309
-306
-306
-302
-300
-300
-298
-299
-295
-297
-297
-297
-298
-296
-295
-295
-295
-294
-296
-293
-294
-294
-293
-294
-291
-293
-294
-295
-295
-294
-294
-293
-294
-293
-295
-295
-294
-295
-295
-297
-296
-297
-298
-298
-300
-300
-301
-300
-302
-303
-305
-306
-304
-306
-306
-307
-309
-306
-307
-309
-311
-310
-312
-312
-311
-311
-312
-316
-313
-312
-312
-312
-312
-313
-312
-313
-313
-312
-312
-313
-313
-313
-312
-317
-313
-314
-312
-314
-312
-313
-312
-314
-313
-313
-312
-313
-313
-313
-313
-313
-314
-314
-314
-312
-314
-315
-314
-314
-313
-313
-316
-314
-313
-312
-312
-314
-313
-314
-314
-313
-313
-313
-315
-315
-314
-314
-318
-314
-315
-314
-314
-313
-313
-311
-308
-305
-306
-305
-304
-303
-302
-297
-292
-293
-294
-294
-300
-302
-303
-304
-305
-306
-306
-310
-312
-315
-316
-317
-318
-315
-318
-317
-316
-315
-315
-316
-314
-314
-312
-315
-312
-310
-311
-313
-309
-290
-265
-227
-168
-125
-122
-137
-177
-222
-274
-332
-364
-363
-341
-328
-316
-306
-302
-302
-300
-302
-300
-301
-300
-300
-300
-300
-300
-299
-298
-297
-298
-296
-295
-295
-293
-294
-289
-291
-292
-290
-290
-288
-288
-287
-287
-287
-287
-284
-283
-283
-282
-284
-280
-282
-282
-281
-281
-282
-282
-282
-284
-283
-286
-287
-289
-290
-293
-296
-294
-300
-303
-308
-310
-313
-316
-318
-320
-321
-321
-324
-323
-323
-322
-319
-318
-315
-312
-312
-310
-306
-305
-303
-302
-302
-301
-296
-299
-298
-299
-300
-297
-300
-299
-298
-299
-300
-298
-298
-297
-297
-299
-294
-297
-297
-295
-296
-296
-296
-295
-294
-295
-296
-295
-295
-296
-298
-298
-297
-297
-300
-300
-300
-302
-301
-302
-301
-305
-303
-304
-305
-305
-306
-305
-306
-307
-306
-308
-308
-307
-310
-309
-312
-311
-311
-314
-312
-312
-313
-312
-314
-314
-314
-314
-314
-314
-314
-315
-315
-316
-316
-318
-314
-316
-316
-316
-315
-317
-317
-314
-316
-315
-316
-317
-318
-317
-316
-318
-318
-318
-318
-318
-317
-318
-318
-318
-318
-318
-321
-318
-318
-318
-317
-318
-317
-317
-317
-317
-317
-318
-318
-317
-318
-317
-319
-316
-317
-317
-317
-316
-317
-316
-316
-314
-314
-315
-315
-314
-314
-315
-317
-314
-312
-310
-307
-307
-306
-305
-306
-300
-297
-296
-296
-297
-299
-303
-306
-305
-305
-306
-307
-312
-312
-316
-318
-318
-317
-320
-318
-317
-317
-316
-318
-316
-316
-315
-314
-314
-312
-312
-316
-324
-323
-296
-263
-206
-137
-94
-82
-90
-111
-149
-212
-282
-324
-339
-333
-323
-312
-303
-303
-306
-306
-306
-306
-306
-306
-307
-306
-306
-305
-306
-306
-306
-304
-303
-303
-300
-300
-300
-300
-298
-298
-296
-296
-296
-291
-293
-293
-292
-291
-289
-289
-290
-288
-288
-287
-287
-286
-286
-286
-287
-283
-286
-287
-289
-288
-290
-291
-293
-294
-296
-300
-301
-303
-306
-308
-309
-313
-314
-316
-317
-318
-317
-318
-316
-316
-314
-311
-314
-309
-307
-306
-306
-303
-303
-302
-302
-303
-304
-303
-303
-303
-303
-305
-300
-305
-305
-305
-306
-306
-306
-306
-306
-306
-306
-306
-306
-307
-306
-306
-304
-306
-307
-308
-306
-306
-308
-307
-308
-309
-307
-308
-308
-308
-308
-308
-309
-309
-310
-310
-309
-310
-312
-312
-312
-313
-313
-317
-314
-315
-315
-316
-316
-317
-318
-318
-318
-318
-318
-318
-319
-319
-318
-322
-319
-318
-318
-319
-320
-319
-320
-321
-319
-320
-321
-321
-321
-320
-320
-321
-320
-320
-320
-320
-319
-321
-320
-321
-319
-319
-319
-320
-319
-320
-319
-323
-320
-320
-320
-320
-319
-324
-320
-321
-321
-321
-324
-323
-321
-323
-321
-322
-321
-321
-322
-323
-321
-323
-322
-323
-321
-322
-324
-323
-323
-322
-323
-323
-321
-322
-321
-323
-321
-321
-321
-320
-321
-318
-318
-315
-314
-314
-311
-311
-312
-307
-303
-301
-300
-299
-304
-307
-306
-307
-307
-311
-312
-316
-318
-320
-321
-322
-321
-321
-321
-324
-320
-321
-321
-320
-318
-318
-318
-317
-317
-315
-322
-332
-327
-299
-259
-197
-127
-83
-70
-77
-93
-126
-185
-262
-318
-338
-333
-324
-315
-307
-306
-308
-310
-310
-311
-310
-311
-311
-312
-312
-309
-308
-312
-309
-308
-308
-306
-306
-306
-305
-305
-303
-303
-301
-301
-300
-299
-300
-293
-297
-296
-294
-295
-294
-294
-293
-292
-292
-293
-292
-292
-293
-292
-293
-292
-292
-293
-294
-295
-297
-297
-301
-303
-306
-308
-311
-312
-315
-318
-320
-323
-324
-324
-324
-325
-324
-327
-322
-319
-319
-316
-317
-312
-310
-308
-306
-305
-305
-303
-302
-302
-303
-301
-300
-302
-301
-302
-299
-303
-303
-302
-302
-303
-304
-303
-303
-303
-303
-303
-305
-305
-305
-303
-304
-305
-305
-305
-303
-306
-305
-305
-306
-306
-305
-302
-306
-308
-306
-307
-309
-309
-310
-310
-310
-311
-312
-312
-311
-312
-313
-318
-315
-314
-316
-316
-318
-319
-318
-318
-320
-319
-319
-321
-321
-320
-321
-323
-321
-321
-321
-321
-323
-321
-322
-322
-323
-321
-322
-322
-322
-323
-323
-323
-322
-321
-322
-321
-322
-321
-323
-322
-322
-321
-324
-323
-323
-321
-322
-323
-322
-321
-322
-321
-321
-321
-322
-322
-321
-321
-325
-321
-321
-319
-320
-321
-321
-320
-320
-320
-319
-319
-320
-320
-320
-319
-322
-320
-319
-318
-319
-318
-318
-318
-318
-317
-317
-315
-312
-312
-311
-308
-309
-307
-306
-301
-300
-300
-299
-301
-304
-305
-304
-302
-306
-310
-312
-313
-316
-319
-318
-319
-319
-320
-320
-320
-319
-318
-318
-321
-317
-317
-315
-314
-312
-314
-318
-321
-312
-288
-255
-209
-146
-109
-101
-118
-149
-196
-259
-325
-363
-359
-338
-328
-314
-306
-300
-302
-303
-305
-305
-306
-305
-305
-303
-302
-302
-301
-301
-299
-299
-299
-294
-298
-296
-296
-296
-293
-293
-293
-292
-292
-291
-290
-289
-289
-287
-286
-282
-286
-283
-283
-283
-283
-282
-281
-282
-283
-283
-281
-283
-283
-285
-287
-287
-290
-291
-293
-297
-299
-301
-305
-308
-311
-312
-318
-315
-317
-317
-318
-318
-318
-317
-314
-313
-312
-309
-306
-305
-305
-303
-299
-300
-301
-299
-299
-299
-298
-298
-299
-297
-298
-299
-299
-297
-297
-298
-296
-297
-297
-297
-296
-296
-296
-294
-295
-297
-298
-294
-296
-297
-297
-298
-295
-296
-298
-299
-300
-299
-299
-300
-300
-300
-302
-300
-305
-303
-305
-305
-305
-306
-307
-307
-308
-309
-311
-312
-313
-313
-312
-316
-314
-314
-314
-314
-314
-316
-314
-314
-315
-315
-316
-317
-317
-316
-316
-317
-316
-314
-314
-316
-317
-317
-316
-317
-316
-315
-319
-318
-317
-317
-316
-317
-316
-317
-317
-315
-315
-316
-314
-316
-316
-315
-319
-315
-316
-315
-316
-315
-316
-316
-316
-315
-316
-315
-316
-316
-318
-315
-318
-316
-317
-315
-314
-315
-316
-315
-314
-315
-314
-314
-315
-314
-313
-311
-310
-307
-306
-306
-305
-306
-303
-299
-295
-295
-298
-293
-300
-305
-305
-304
-305
-306
-310
-311
-314
-316
-317
-317
-318
-316
-316
-320
-316
-317
-316
-316
-314
-315
-314
-313
-312
-311
-312
-312
-316
-314
-294
-264
-224
-162
-115
-100
-113
-147
-195
-253
-317
-354
-360
-339
-326
-314
-305
-301
-302
-302
-302
-303
-300
-301
-300
-300
-300
-300
-296
-298
-298
-299
-297
-296
-296
-296
-294
-294
-294
-293
-291
-290
-289
-288
-285
-287
-286
-283
-282
-282
-282
-281
-280
-280
-281
-278
-278
-280
-279
-279
-278
-281
-281
-281
-285
-286
-288
-290
-292
-294
-297
-296
-302
-306
-308
-309
-312
-313
-314
-316
-316
-314
-315
-314
-313
-312
-309
-311
-306
-305
-302
-301
-302
-300
-299
-300
-300
-300
-299
-300
-300
-300
-300
-297
-300
-300
-300
-300
-300
-300
-299
-300
-299
-300
-299
-299
-300
-299
-299
-298
-298
-297
-299
-300
-299
-300
-299
-300
-300
-300
-298
-300
-301
-303
-305
-305
-305
-306
-306
-306
-306
-307
-306
-307
-308
-308
-312
-310
-310
-311
-311
-312
-312
-311
-312
-312
-311
-311
-312
-312
-313
-312
-312
-313
-313
-313
-312
-312
-312
-312
-313
-314
-313
-316
-313
-314
-313
-313
-312
-313
-314
-314
-313
-313
-317
-314
-314
-314
-314
-317
-314
-314
-315
-314
-314
-314
-314
-314
-315
-315
-315
-315
-317
-315
-315
-318
-316
-315
-316
-316
-314
-315
-316
-315
-316
-316
-317
-317
-316
-317
-316
-315
-315
-316
-315
-316
-315
-314
-313
-314
-315
-314
-319
-315
-315
-314
-314
-315
-314
-314
-314
-314
-312
-312
-312
-311
-307
-306
-302
-304
-304
-303
-300
-296
-293
-294
-295
-300
-302
-302
-303
-303
-305
-306
-312
-313
-314
-316
-316
-317
-317
-317
-318
-317
-316
-316
-316
-316
-315
-313
-314
-313
-312
-311
-317
-327
-321
-293
-251
-191
-125
-86
-77
-82
-100
-136
-200
-271
-318
-335
-328
-318
-306
-300
-300
-305
-303
-300
-304
-305
-305
-303
-305
-303
-300
-301
-301
-301
-300
-299
-298
-297
-298
-297
-296
-294
-293
-293
-293
-291
-291
-290
-289
-289
-286
-287
-287
-286
-286
-283
-284
-283
-285
-283
-284
-283
-285
-285
-287
-287
-283
-288
-290
-291
-292
-294
-295
-300
-300
-303
-305
-308
-311
-312
-312
-313
-316
-314
-312
-313
-310
-309
-308
-306
-305
-304
-301
-300
-299
-300
-299
-300
-298
-300
-299
-300
-301
-300
-300
-300
-300
-301
-302
-300
-302
-303
-304
-303
-302
-303
-303
-304
-304
-306
-305
-306
-305
-306
-306
-304
-306
-306
-307
-308
-307
-307
-308
-309
-309
-308
-309
-310
-309
-310
-311
-312
-312
-312
-314
-314
-315
-316
-316
-317
-318
-318
-318
-319
-319
-321
-321
-322
-321
-322
-321
-321
-319
-321
-321
-320
-321
-322
-324
-321
-321
-322
-320
-322
-321
-321
-321
-323
-322
-321
-322
-320
-320
-320
-324
-322
-321
-321
-321
-321
-323
-321
-321
-322
-319
-320
-321
-323
-321
-322
-323
-322
-322
-322
-321
-323
-321
-322
-322
-322
-321
-324
-322
-323
-321
-322
-323
-324
-321
-321
-321
-321
-323
-322
-322
-322
-321
-324
-321
-323
-321
-324
-322
-322
-321
-321
-321
-323
-323
-322
-321
-323
-320
-322
-320
-321
-320
-320
-320
-322
-321
-319
-319
-318
-316
-314
-312
-312
-312
-312
-308
-307
-305
-300
-299
-300
-301
-305
-306
-306
-312
-310
-310
-314
-316
-318
-319
-320
-319
-320
-318
-319
-319
-319
-318
-318
-321
-318
-317
-316
-314
-313
-313
-314
-324
-332
-318
-287
-245
-179
-111
-75
-65
-76
-96
-138
-211
-280
-324
-334
-326
-319
-307
-301
-304
-305
-306
-305
-306
-306
-306
-306
-306
-306
-305
-305
-304
-303
-303
-298
-300
-300
-300
-299
-298
-298
-296
-296
-295
-295
-293
-291
-291
-291
-290
-287
-290
-288
-288
-288
-289
-288
-288
-287
-288
-288
-288
-289
-290
-290
-293
-292
-293
-296
-297
-300
-302
-306
-307
-310
-312
-314
-319
-318
-318
-320
-320
-320
-318
-317
-316
-313
-311
-312
-308
-306
-305
-302
-298
-299
-299
-299
-298
-297
-297
-296
-297
-297
-298
-296
-297
-297
-298
-300
-296
-297
-298
-298
-299
-299
-298
-298
-299
-300
-300
-298
-299
-297
-300
-300
-300
-300
-301
-300
-302
-302
-300
-300
-302
-303
-305
-300
-306
-306
-306
-306
-309
-308
-309
-308
-310
-310
-309
-312
-311
-311
-312
-316
-314
-315
-314
-314
-314
-317
-314
-315
-316
-317
-318
-317
-317
-317
-316
-317
-317
-317
-318
-318
-318
-318
-317
-317
-317
-317
-318
-318
-318
-318
-318
-318
-318
-318
-318
-318
-318
-320
-318
-318
-318
-318
-321
-318
-318
-318
-318
-318
-318
-318
-318
-317
-315
-317
-318
-317
-317
-316
-318
-316
-315
-315
-314
-314
-315
-315
-315
-315
-316
-316
-314
-314
-316
-315
-316
-316
-317
-316
-314
-314
-314
-316
-314
-314
-313
-318
-314
-314
-313
-313
-312
-310
-307
-308
-307
-307
-305
-305
-301
-297
-298
-291
-296
-300
-303
-304
-305
-306
-306
-310
-313
-315
-317
-317
-317
-318
-317
-319
-318
-318
-317
-317
-315
-315
-314
-313
-313
-312
-312
-311
-315
-316
-299
-271
-234
-172
-122
-102
-113
-142
-188
-242
-308
-352
-371
-349
-332
-321
-309
-301
-301
-300
-302
-301
-301
-301
-301
-300
-301
-301
-297
-299
-298
-298
-298
-297
-295
-294
-294
-294
-294
-292
-290
-290
-290
-290
-288
-287
-287
-286
-285
-285
-284
-284
-283
-283
-281
-280
-281
-279
-280
-281
-281
-281
-282
-284
-286
-287
-288
-290
-291
-295
-298
-298
-304
-306
-307
-310
-313
-315
-316
-317
-317
-316
-316
-317
-316
-314
-312
-313
-310
-308
-306
-303
-302
-300
-299
-299
-299
-297
-298
-296
-296
-295
-296
-296
-298
-297
-297
-296
-295
-295
-294
-294
-296
-295
-290
-293
-293
-293
-293
-292
-292
-293
-294
-293
-294
-294
-295
-294
-294
-297
-294
-297
-297
-297
-299
-300
-300
-300
-300
-301
-302
-301
-302
-303
-305
-305
-304
-305
-307
-308
-309
-308
-309
-310
-311
-310
-312
-311
-311
-312
-312
-311
-312
-313
-313
-313
-314
-312
-313
-313
-312
-313
-311
-316
-313
-313
-313
-314
-314
-314
-314
-314
-313
-314
-313
-313
-313
-314
-312
-317
-314
-313
-313
-313
-314
-313
-313
-314
-313
-312
-312
-313
-314
-314
-313
-314
-312
-313
-312
-312
-313
-313
-313
-313
-312
-312
-312
-311
-312
-312
-311
-312
-312
-312
-312
-311
-311
-313
-311
-311
-312
-310
-314
-310
-309
-310
-309
-309
-306
-306
-303
-302
-300
-298
-298
-297
-294
-291
-287
-289
-291
-295
-299
-300
-299
-301
-300
-304
-306
-310
-312
-312
-312
-314
-314
-312
-312
-313
-312
-312
-312
-312
-312
-311
-309
-312
-306
-307
-313
-318
-306
-275
-238
-178
-121
-97
-101
-118
-155
-211
-281
-334
-348
-336
-323
-312
-301
-297
-298
-300
-300
-300
-299
-299
-299
-298
-298
-293
-296
-295
-295
-295
-293
-293
-292
-293
-291
-290
-289
-287
-288
-287
-286
-283
-285
-282
-281
-281
-281
-280
-279
-279
-278
-277
-274
-277
-277
-277
-277
-275
-276
-277
-279
-280
-281
-283
-283
-287
-289
-291
-290
-296
-300
-302
-305
-307
-308
-310
-312
-313
-312
-312
-312
-311
-310
-307
-305
-305
-303
-300
-301
-299
-298
-296
-295
-295
-296
-292
-295
-296
-295
-297
-293
-296
-295
-296
-295
-297
-297
-297
-295
-296
-297
-293
-295
-294
-296
-296
-293
-296
-297
-298
-297
-299
-297
-298
-299
-298
-300
-296
-299
-300
-301
-302
-302
-303
-303
-305
-305
-305
-306
-306
-307
-307
-308
-309
-307
-309
-311
-311
-311
-311
-312
-311
-312
-312
-316
-311
-312
-312
-312
-314
-312
-313
-313
-313
-312
-314
-314
-314
-313
-314
-318
-314
-314
-315
-315
-316
-314
-315
-317
-316
-316
-317
-318
-317
-316
-316
-318
-317
-316
-316
-318
-318
-318
-317
-318
-318
-318
-317
-319
-318
-318
-318
-318
-318
-319
-319
-319
-320
-319
-318
-318
-318
-318
-321
-318
-319
-318
-318
-318
-318
-318
-318
-318
-317
-317
-318
-318
-318
-318
-320
-318
-318
-318
-317
-317
-316
-316
-315
-314
-316
-314
-314
-314
-312
-309
-310
-307
-306
-306
-304
-304
-299
-295
-294
-296
-300
-300
-303
-305
-306
-306
-306
-309
-313
-316
-317
-316
-320
-318
-318
-318
-318
-321
-318
-318
-317
-316
-316
-314
-314
-312
-311
-311
-320
-330
-314
-282
-238
-170
-107
-76
-75
-87
-111
-162
-239
-300
-334
-332
-324
-314
-305
-301
-303
-304
-305
-306
-306
-306
-307
-305
-305
-305
-305
-303
-300
-302
-302
-301
-301
-300
-300
-299
-297
-298
-298
-296
-295
-293
-293
-293
-289
-291
-291
-290
-292
-290
-289
-288
-288
-288
-290
-289
-287
-288
-288
-289
-287
-290
-291
-293
-294
-297
-299
-301
-305
-306
-307
-312
-313
-314
-317
-319
-321
-322
-322
-322
-322
-319
-319
-317
-314
-312
-310
-312
-306
-304
-302
-302
-300
-300
-301
-300
-300
-300
-300
-300
-300
-300
-301
-300
-303
-302
-301
-303
-303
-300
-302
-302
-302
-302
-303
-303
-303
-305
-304
-303
-305
-305
-305
-304
-306
-305
-305
-306
-306
-306
-309
-307
-308
-308
-307
-310
-311
-311
-311
-311
-311
-314
-313
-314
-314
-315
-318
-317
-317
-318
-317
-318
-318
-318
-317
-318
-317
-318
-318
-318
-318
-318
-321
-319
-318
-320
-320
-320
-320
-321
-320
-320
-321
-321
-321
-321
-321
-320
-322
-322
-321
-321
-322
-322
-323
-322
-322
-322
-322
-325
-321
-321
-322
-321
-321
-322
-321
-322
-321
-322
-322
-322
-321
-322
-321
-324
-322
-322
-323
-322
-322
-322
-322
-321
-321
-322
-321
-321
-321
-321
-320
-321
-321
-319
-319
-318
-319
-319
-318
-318
-318
-318
-319
-318
-318
-318
-318
-318
-318
-318
-315
-314
-315
-316
-314
-312
-310
-308
-310
-306
-306
-306
-303
-296
-294
-297
-300
-303
-303
-305
-305
-305
-306
-309
-316
-314
-316
-316
-317
-318
-318
-319
-318
-318
-317
-318
-317
-316
-314
-314
-315
-312
-310
-314
-324
-327
-308
-272
-224
-152
-96
-67
-68
-81
-110
-164
-246
-309
-336
-329
-321
-312
-306
-300
-302
-305
-303
-301
-305
-305
-304
-305
-305
-305
-303
-304
-303
-305
-301
-300
-300
-299
-299
-296
-297
-295
-295
-294
-294
-292
-291
-291
-291
-291
-289
-287
-289
-287
-287
-287
-287
-287
-286
-286
-287
-287
-287
-287
-289
-290
-288
-292
-294
-298
-300
-300
-305
-306
-309
-312
-315
-316
-320
-320
-321
-321
-326
-323
-322
-319
-318
-315
-314
-310
-310
-306
-306
-302
-301
-300
-300
-299
-296
-297
-297
-298
-297
-297
-297
-298
-298
-298
-300
-297
-298
-297
-297
-298
-298
-297
-297
-298
-297
-297
-297
-298
-297
-300
-300
-295
-300
-300
-300
-300
-300
-300
-300
-300
-302
-302
-303
-305
-305
-305
-306
-305
-307
-307
-308
-307
-309
-309
-310
-311
-311
-311
-313
-312
-313
-312
-314
-314
-314
-315
-315
-314
-316
-316
-316
-314
-316
-316
-319
-318
-318
-316
-316
-318
-316
-318
-317
-318
-317
-319
-318
-318
-318
-318
-321
-318
-317
-318
-319
-319
-318
-319
-318
-318
-319
-318
-320
-319
-319
-319
-322
-319
-319
-319
-318
-318
-318
-318
-318
-318
-318
-318
-320
-318
-318
-318
-319
-318
-318
-318
-317
-316
-316
-316
-316
-316
-314
-318
-316
-315
-314
-313
-316
-314
-313
-313
-314
-312
-312
-312
-312
-312
-312
-314
-310
-306
-305
-305
-306
-300
-301
-300
-295
-294
-293
-293
-294
-299
-302
-299
-301
-300
-306
-308
-311
-312
-314
-315
-315
-315
-314
-315
-315
-314
-316
-315
-316
-314
-314
-313
-313
-312
-311
-312
-316
-312
-289
-264
-222
-160
-118
-113
-128
-166
-211
-264
-324
-363
-369
-346
-332
-319
-311
-303
-301
-302
-305
-304
-304
-302
-303
-302
-301
-299
-301
-300
-300
-300
-297
-297
-297
-296
-294
-294
-294
-292
-292
-293
-292
-287
-289
-287
-287
-287
-286
-285
-285
-285
-285
-284
-283
-283
-283
-284
-284
-282
-283
-285
-283
-286
-287
-288
-289
-292
-296
-299
-300
-302
-306
-309
-311
-317
-318
-319
-320
-321
-321
-324
-324
-321
-320
-318
-316
-312
-310
-307
-305
-303
-301
-301
-300
-300
-298
-297
-298
-298
-298
-299
-293
-298
-298
-298
-298
-298
-298
-297
-296
-298
-298
-297
-297
-295
-295
-297
-294
-295
-296
-296
-297
-298
-296
-297
-298
-299
-300
-300
-301
-300
-303
-305
-305
-305
-305
-306
-307
-308
-308
-309
-311
-310
-310
-310
-311
-312
-311
-312
-314
-313
-313
-313
-314
-312
-314
-313
-313
-314
-313
-318
-315
-314
-314
-314
-315
-315
-315
-316
-316
-314
-316
-315
-314
-314
-315
-318
-315
-316
-317
-317
-315
-316
-316
-316
-317
-316
-316
-316
-316
-316
-314
-316
-315
-315
-315
-316
-315
-315
-315
-315
-315
-315
-318
-316
-315
-314
-315
-316
-315
-314
-314
-314
-315
-317
-314
-314
-315
-314
-318
-315
-316
-314
-313
-314
-314
-314
-314
-313
-312
-312
-313
-313
-312
-312
-313
-312
-311
-309
-309
-306
-306
-305
-303
-303
-303
-300
-294
-293
-293
-293
-294
-300
-303
-302
-303
-304
-305
-309
-310
-313
-314
-318
-316
-317
-315
-316
-317
-316
-316
-314
-315
-314
-313
-312
-312
-310
-309
-316
-318
-311
-289
-255
-207
-148
-113
-103
-113
-136
-182
-242
-301
-339
-343
-330
-320
-308
-301
-300
-303
-303
-303
-302
-302
-302
-300
-302
-300
-301
-300
-299
-300
-298
-297
-298
-296
-295
-294
-293
-293
-293
-287
-290
-289
-287
-288
-287
-285
-285
-285
-283
-283
-282
-281
-281
-281
-281
-277
-278
-280
-281
-281
-283
-283
-284
-283
-286
-287
-288
-290
-293
-296
-299
-300
-304
-306
-307
-311
-312
-316
-318
-318
-318
-318
-321
-318
-315
-313
-311
-310
-308
-306
-305
-303
-302
-300
-300
-300
-299
-300
-296
-297
-298
-298
-300
-299
-299
-300
-300
-300
-300
-300
-300
-300
-300
-300
-295
-300
-300
-300
-300
-301
-301
-300
-300
-301
-302
-302
-301
-303
-303
-303
-303
-305
-305
-305
-305
-306
-305
-306
-306
-306
-306
-312
-307
-310
-309
-310
-312
-313
-313
-313
-314
-313
-315
-314
-316
-317
-314
-319
-317
-317
-316
-317
-315
-317
-316
-318
-318
-317
-318
-319
-319
-318
-319
-319
-318
-319
-319
-319
-319
-320
-319
-320
-319
-319
-319
-320
-320
-321
-320
-322
-320
-321
-321
-321
-320
-323
-322
-321
-321
-321
-325
-322
-322
-323
-321
-321
-321
-322
-322
-321
-321
-322
-322
-321
-320
-321
-323
-322
-321
-321
-320
-320
-320
-321
-320
-320
-319
-319
-319
-319
-320
-318
-320
-320
-319
-319
-318
-317
-318
-318
-318
-318
-317
-320
-316
-317
-317
-314
-312
-311
-310
-309
-308
-307
-308
-303
-299
-299
-300
-297
-305
-307
-307
-307
-307
-309
-313
-315
-318
-319
-321
-322
-320
-323
-322
-324
-320
-321
-322
-320
-319
-319
-318
-318
-318
-316
-322
-332
-329
-304
-269
-215
-148
-103
-87
-93
-108
-141
-202
-272
-323
-339
-336
-325
-316
-309
-306
-310
-311
-312
-312
-312
-312
-312
-312
-311
-310
-309
-312
-310
-307
-308
-306
-306
-306
-306
-306
-304
-305
-303
-301
-301
-300
-300
-298
-297
-296
-295
-294
-294
-293
-292
-293
-293
-293
-290
-293
-293
-292
-294
-293
-296
-298
-300
-300
-303
-306
-306
-310
-313
-314
-321
-321
-324
-326
-328
-330
-330
-332
-330
-332
-330
-329
-325
-324
-321
-318
-319
-315
-313
-312
-308
-306
-306
-307
-306
-306
-307
-307
-306
-306
-307
-307
-307
-307
-307
-307
-307
-307
-307
-308
-307
-307
-307
-311
-307
-307
-308
-307
-310
-308
-308
-309
-310
-309
-311
-309
-309
-310
-311
-314
-312
-311
-311
-312
-313
-313
-312
-313
-313
-312
-314
-314
-316
-317
-317
-319
-318
-319
-319
-319
-320
-321
-322
-321
-322
-321
-321
-322
-323
-324
-321
-321
-321
-322
-322
-321
-323
-323
-323
-321
-323
-322
-325
-323
-324
-323
-322
-325
-324
-323
-323
-323
-324
-324
-324
-325
-324
-324
-328
-325
-324
-324
-324
-324
-324
-326
-324
-324
-324
-324
-324
-325
-324
-324
-325
-325
-324
-325
-324
-324
-324
-324
-324
-324
-324
-324
-324
-324
-324
-324
-324
-323
-323
-323
-323
-321
-325
-323
-323
-322
-321
-325
-321
-321
-320
-319
-321
-319
-321
-318
-319
-318
-318
-318
-316
-314
-312
-314
-310
-307
-308
-306
-301
-298
-297
-297
-300
-304
-305
-305
-305
-306
-310
-314
-317
-318
-318
-319
-319
-318
-318
-318
-319
-318
-323
-318
-318
-318
-316
-317
-314
-314
-316
-324
-329
-312
-275
-227
-159
-101
-81
-85
-97
-118
-165
-239
-297
-333
-332
-325
-317
-307
-305
-306
-308
-307
-311
-309
-309
-307
-307
-306
-307
-307
-307
-307
-306
-306
-305
-305
-306
-303
-303
-302
-301
-300
-298
-299
-296
-296
-295
-293
-293
-290
-291
-290
-290
-290
-290
-289
-289
-290
-289
-289
-289
-290
-290
-292
-293
-290
-293
-297
-300
-303
-305
-307
-309
-312
-315
-318
-319
-321
-324
-324
-324
-325
-324
-324
-323
-319
-318
-316
-313
-312
-307
-306
-300
-300
-300
-299
-298
-298
-298
-297
-297
-299
-298
-299
-299
-299
-300
-300
-298
-300
-302
-302
-302
-300
-301
-300
-300
-301
-301
-301
-300
-300
-301
-300
-300
-302
-304
-306
-305
-306
-306
-306
-307
-306
-307
-309
-309
-307
-310
-307
-311
-309
-310
-311
-311
-312
-312
-312
-311
-312
-313
-317
-314
-313
-314
-314
-315
-316
-316
-316
-317
-316
-317
-317
-318
-318
-317
-319
-317
-318
-318
-318
-317
-318
-318
-318
-318
-318
-319
-319
-318
-318
-318
-320
-320
-318
-320
-319
-318
-319
-319
-319
-320
-318
-318
-319
-318
-318
-318
-320
-319
-319
-319
-318
-318
-318
-319
-319
-318
-318
-321
-319
-318
-319
-318
-319
-319
-319
-318
-318
-318
-318
-318
-318
-318
-316
-319
-317
-318
-318
-317
-317
-318
-316
-316
-317
-315
-316
-317
-316
-316
-314
-314
-312
-311
-307
-306
-306
-306
-306
-306
-300
-300
-293
-295
-298
-302
-305
-305
-306
-307
-307
-310
-312
-318
-318
-318
-318
-318
-321
-318
-317
-318
-318
-317
-317
-317
-314
-314
-312
-312
-312
-312
-314
-315
-299
-275
-239
-184
-132
-108
-115
-143
-186
-235
-296
-346
-369
-356
-334
-324
-315
-305
-302
-304
-305
-305
-303
-303
-303
-303
-305
-300
-302
-301
-301
-302
-300
-300
-300
-300
-299
-299
-296
-296
-296
-296
-294
-289
-291
-291
-290
-290
-290
-290
-289
-288
-288
-288
-287
-286
-286
-286
-286
-283
-285
-284
-286
-288
-288
-289
-292
-293
-295
-297
-300
-302
-305
-308
-312
-315
-317
-318
-321
-323
-323
-324
-324
-324
-322
-322
-324
-318
-314
-312
-309
-309
-306
-303
-300
-300
-300
-298
-299
-297
-297
-296
-293
-297
-297
-297
-296
-296
-295
-294
-295
-295
-295
-294
-293
-293
-293
-293
-293
-293
-293
-293
-293
-293
-293
-292
-293
-294
-294
-292
-294
-294
-297
-298
-297
-300
-301
-300
-301
-302
-302
-303
-304
-306
-305
-302
-306
-306
-306
-309
-309
-310
-311
-310
-311
-311
-312
-311
-312
-311
-312
-314
-311
-312
-312
-313
-312
-311
-313
-313
-313
-312
-312
-313
-313
-312
-312
-315
-313
-314
-314
-314
-313
-314
-313
-313
-314
-313
-318
-314
-315
-314
-312
-316
-316
-316
-314
-316
-314
-315
-314
-317
-317
-316
-319
-316
-316
-317
-317
-317
-317
-317
-316
-315
-316
-316
-316
-316
-317
-316
-317
-316
-317
-316
-314
-314
-315
-314
-313
-313
-312
-312
-312
-312
-312
-311
-312
-308
-306
-306
-302
-303
-300
-301
-300
-296
-293
-290
-292
-294
-297
-300
-300
-300
-300
-303
-305
-308
-310
-312
-312
-314
-313
-317
-313
-313
-314
-313
-312
-312
-312
-311
-310
-309
-308
-307
-307
-312
-318
-303
-279
-242
-187
-131
-104
-100
-112
-136
-176
-233
-289
-332
-343
-331
-322
-311
-300
-300
-300
-301
-300
-300
-300
-300
-300
-302
-297
-300
-299
-300
-300
-298
-299
-298
-298
-297
-296
-295
-294
-294
-293
-293
-288
-289
-288
-287
-288
-287
-286
-286
-285
-284
-283
-282
-282
-282
-282
-281
-281
-282
-282
-283
-283
-286
-287
-288
-290
-293
-295
-293
-299
-303
-306
-306
-311
-313
-315
-317
-318
-319
-319
-321
-320
-320
-318
-320
-316
-313
-312
-310
-307
-306
-305
-303
-302
-302
-300
-298
-300
-300
-299
-298
-300
-300
-299
-300
-300
-301
-300
-300
-300
-300
-300
-300
-300
-300
-301
-300
-300
-301
-301
-300
-302
-301
-300
-301
-303
-303
-300
-303
-305
-306
-305
-305
-306
-306
-308
-308
-308
-310
-311
-312
-311
-311
-315
-313
-313
-313
-314
-316
-316
-317
-318
-318
-318
-318
-319
-319
-319
-318
-319
-321
-319
-319
-319
-319
-320
-321
-320
-321
-321
-324
-322
-322
-322
-322
-321
-322
-322
-322
-321
-322
-325
-321
-320
-323
-322
-324
-322
-321
-322
-322
-321
-323
-324
-324
-323
-323
-325
-324
-324
-324
-324
-327
-324
-324
-324
-324
-324
-324
-324
-324
-323
-322
-324
-324
-322
-323
-323
-324
-323
-322
-322
-323
-322
-322
-322
-322
-321
-321
-325
-321
-322
-321
-320
-321
-322
-321
-320
-321
-321
-320
-320
-321
-320
-319
-323
-319
-318
-314
-314
-313
-312
-312
-311
-312
-305
-304
-303
-303
-306
-307
-312
-311
-310
-312
-314
-318
-319
-322
-323
-324
-323
-323
-323
-324
-324
-323
-324
-323
-323
-322
-321
-320
-319
-318
-318
-323
-331
-333
-306
-269
-217
-148
-105
-91
-96
-109
-138
-187
-245
-288
-326
-341
-335
-331
-319
-311
-307
-309
-312
-312
-312
-312
-312
-311
-312
-312
-311
-310
-309
-310
-308
-309
-307
-306
-305
-305
-305
-303
-303
-302
-298
-300
-300
-299
-299
-295
-296
-296
-293
-293
-293
-293
-292
-291
-291
-293
-290
-292
-292
-293
-293
-293
-295
-297
-298
-299
-301
-303
-306
-308
-311
-313
-319
-320
-322
-324
-326
-328
-329
-330
-330
-330
-327
-327
-325
-323
-320
-318
-316
-312
-310
-309
-307
-306
-305
-306
-305
-306
-303
-300
-305
-305
-305
-304
-306
-305
-305
-305
-305
-308
-306
-306
-306
-306
-306
-305
-308
-307
-306
-306
-306
-306
-306
-306
-307
-307
-307
-307
-307
-308
-309
-309
-307
-310
-310
-309
-311
-312
-311
-312
-313
-313
-313
-314
-315
-315
-316
-317
-318
-317
-318
-318
-318
-320
-319
-319
-319
-320
-323
-320
-319
-320
-320
-321
-321
-322
-321
-321
-322
-321
-322
-322
-321
-321
-325
-322
-321
-322
-323
-321
-321
-321
-323
-323
-321
-323
-323
-324
-323
-324
-325
-324
-324
-324
-324
-324
-324
-323
-323
-324
-323
-326
-323
-324
-323
-323
-324
-324
-324
-324
-324
-324
-326
-324
-324
-324
-324
-326
-324
-324
-323
-323
-322
-323
-323
-324
-324
-324
-323
-323
-322
-322
-321
-324
-322
-322
-321
-322
-321
-321
-319
-319
-319
-318
-318
-318
-318
-316
-316
-316
-313
-311
-309
-309
-308
-306
-306
-300
-298
-297
-293
-300
-305
-306
-305
-306
-308
-311
-313
-318
-317
-318
-319
-320
-320
-319
-323
-320
-320
-320
-318
-317
-318
-317
-316
-314
-313
-313
-319
-330
-322
-293
-250
-189
-123
-87
-85
-91
-114
-153
-220
-287
-330
-337
-328
-322
-312
-306
-306
-308
-309
-310
-309
-310
-312
-311
-309
-310
-310
-312
-307
-308
-307
-306
-305
-305
-305
-305
-302
-305
-302
-300
-299
-298
-298
-293
-296
-293
-294
-294
-294
-293
-293
-292
-291
-291
-292
-290
-291
-291
-293
-291
-292
-293
-296
-297
-299
-301
-302
-306
-307
-312
-318
-318
-322
-323
-325
-328
-328
-329
-330
-330
-328
-328
-324
-324
-319
-317
-318
-311
-309
-306
-305
-306
-302
-301
-301
-301
-300
-301
-301
-301
-302
-303
-301
-305
-303
-303
-303
-305
-304
-304
-303
-304
-305
-304
-304
-306
-306
-303
-305
-305
-306
-306
-305
-306
-306
-306
-307
-306
-306
-311
-307
-309
-307
-307
-310
-310
-311
-311
-310
-311
-312
-312
-312
-313
-312
-317
-314
-316
-316
-315
-316
-317
-318
-318
-318
-318
-316
-318
-318
-318
-318
-318
-318
-318
-318
-318
-317
-318
-319
-320
-318
-319
-319
-319
-320
-320
-319
-320
-319
-319
-319
-318
-319
-322
-319
-319
-319
-319
-323
-321
-322
-321
-322
-321
-322
-321
-322
-321
-321
-321
-321
-321
-320
-321
-323
-320
-320
-321
-320
-320
-320
-320
-320
-320
-320
-320
-319
-320
-320
-320
-319
-318
-318
-318
-318
-317
-318
-318
-318
-316
-316
-318
-314
-312
-310
-309
-309
-307
-306
-306
-302
-299
-295
-295
-297
-300
-305
-301
-304
-305
-306
-309
-312
-314
-316
-318
-317
-317
-318
-317
-317
-316
-317
-318
-316
-316
-316
-316
-312
-313
-312
-312
-316
-314
-298
-270
-233
-172
-121
-100
-108
-132
-172
-228
-295
-346
-366
-348
-332
-320
-312
-306
-306
-306
-305
-306
-305
-305
-305
-304
-305
-303
-303
-302
-301
-301
-299
-300
-299
-299
-298
-299
-296
-296
-296
-295
-293
-293
-293
-293
-291
-291
-289
-289
-288
-287
-288
-288
-287
-287
-287
-287
-287
-285
-287
-288
-288
-290
-290
-293
-295
-298
-300
-305
-306
-307
-311
-313
-316
-323
-321
-324
-325
-324
-324
-324
-325
-323
-321
-318
-317
-312
-309
-307
-305
-300
-301
-300
-299
-298
-297
-296
-295
-296
-295
-296
-295
-296
-294
-294
-295
-293
-294
-293
-293
-292
-293
-293
-293
-293
-293
-293
-290
-293
-293
-295
-295
-293
-293
-293
-293
-293
-295
-294
-295
-295
-297
-299
-297
-300
-301
-301
-302
-303
-303
-303
-305
-305
-306
-306
-306
-306
-306
-307
-312
-310
-311
-311
-312
-311
-312
-311
-312
-312
-310
-310
-312
-311
-312
-311
-313
-312
-312
-311
-311
-312
-311
-311
-312
-313
-312
-315
-312
-312
-312
-311
-312
-312
-312
-312
-311
-312
-312
-311
-312
-312
-310
-313
-312
-311
-311
-311
-312
-312
-311
-311
-312
-311
-310
-310
-309
-310
-310
-311
-309
-310
-312
-311
-312
-312
-311
-310
-312
-310
-312
-310
-307
-306
-305
-303
-302
-300
-301
-300
-298
-293
-292
-292
-292
-298
-298
-302
-300
-302
-305
-306
-307
-312
-313
-314
-314
-315
-316
-314
-314
-313
-317
-315
-313
-313
-312
-312
-309
-308
-309
-309
-312
-306
-282
-252
-207
-149
-118
-114
-135
-172
-217
-277
-330
-361
-356
-335
-320
-313
-300
-297
-297
-300
-298
-298
-298
-298
-297
-297
-296
-296
-294
-294
-294
-290
-294
-293
-292
-291
-290
-289
-289
-289
-288
-287
-286
-283
-283
-282
-282
-279
-281
-281
-280
-279
-279
-278
-279
-278
-279
-278
-278
-279
-280
-281
-282
-282
-285
-286
-287
-290
-293
-297
-299
-302
-306
-308
-314
-313
-317
-318
-318
-322
-320
-320
-319
-318
-315
-314
-312
-309
-307
-306
-299
-300
-300
-300
-298
-297
-296
-295
-294
-294
-296
-295
-295
-296
-295
-296
-295
-296
-296
-295
-295
-295
-295
-296
-293
-293
-294
-291
-293
-294
-294
-293
-294
-296
-296
-296
-297
-297
-296
-297
-298
-297
-298
-296
-299
-300
-300
-303
-300
-303
-306
-304
-304
-306
-306
-306
-306
-306
-306
-310
-308
-308
-308
-307
-307
-309
-310
-310
-309
-310
-310
-311
-311
-311
-310
-311
-311
-312
-311
-310
-312
-311
-311
-311
-312
-312
-315
-311
-312
-312
-312
-312
-311
-312
-312
-313
-312
-313
-313
-311
-312
-312
-316
-313
-312
-312
-312
-312
-312
-312
-313
-313
-312
-313
-313
-313
-312
-312
-314
-313
-312
-313
-312
-312
-312
-313
-312
-311
-312
-312
-311
-311
-312
-312
-312
-312
-312
-312
-312
-311
-312
-312
-312
-311
-309
-313
-308
-306
-305
-304
-300
-302
-300
-299
-293
-293
-291
-293
-295
-300
-300
-299
-300
-300
-305
-306
-310
-312
-313
-312
-314
-314
-313
-313
-314
-314
-312
-315
-313
-312
-312
-311
-310
-309
-312
-323
-322
-298
-259
-212
-145
-98
-81
-81
-103
-142
-210
-278
-323
-338
-326
-318
-306
-302
-297
-301
-305
-305
-305
-302
-302
-303
-302
-300
-301
-300
-301
-301
-301
-300
-297
-299
-298
-297
-298
-297
-296
-295
-293
-293
-294
-293
-292
-291
-291
-290
-289
-288
-287
-288
-287
-287
-287
-286
-286
-286
-287
-283
-287
-287
-290
-293
-294
-295
-297
-300
-302
-306
-309
-310
-313
-316
-317
-323
-321
-321
-321
-322
-319
-318
-318
-317
-313
-312
-310
-307
-306
-303
-303
-301
-302
-302
-302
-303
-302
-302
-300
-303
-304
-304
-304
-305
-306
-304
-304
-305
-305
-306
-306
-305
-306
-306
-306
-306
-306
-305
-301
-306
-306
-306
-305
-306
-306
-306
-306
-307
-308
-307
-310
-309
-309
-310
-312
-311
-312
-311
-312
-312
-314
-315
-314
-316
-314
-316
-316
-317
-317
-316
-318
-318
-318
-318
-318
-318
-318
-318
-318
-318
-318
-320
-318
-320
-319
-319
-320
-320
-319
-320
-319
-318
-322
-319
-320
-321
-319
-324
-321
-321
-319
-321
-321
-321
-321
-321
-322
-321
-321
-321
-320
-323
-321
-325
-323
-322
-321
-321
-322
-323
-323
-322
-322
-321
-322
-322
-323
-323
-323
-323
-322
-324
-323
-324
-323
-324
-323
-323
-322
-322
-325
-321
-321
-321
-320
-322
-321
-321
-322
-321
-319
-320
-320
-320
-319
-318
-321
-318
-317
-314
-313
-311
-310
-310
-309
-306
-303
-299
-299
-300
-301
-305
-305
-306
-306
-308
-309
-313
-316
-318
-319
-318
-318
-319
-319
-320
-319
-319
-319
-318
-317
-317
-314
-314
-313
-312
-312
-321
-329
-318
-283
-244
-190
-137
-103
-81
-81
-93
-116
-162
-233
-293
-332
-335
-327
-322
-310
-305
-305
-306
-307
-307
-310
-310
-309
-308
-308
-308
-307
-307
-306
-307
-306
-306
-305
-305
-305
-302
-300
-301
-301
-300
-295
-297
-296
-296
-295
-294
-293
-293
-293
-293
-292
-291
-290
-291
-291
-292
-288
-291
-292
-293
-293
-293
-295
-297
-299
-300
-303
-306
-307
-310
-312
-314
-320
-320
-324
-325
-324
-326
-326
-326
-324
-324
-322
-320
-318
-316
-312
-310
-308
-306
-304
-302
-301
-300
-299
-298
-299
-300
-299
-296
-300
-300
-300
-301
-300
-301
-300
-300
-301
-303
-302
-302
-303
-303
-303
-299
-304
-305
-304
-304
-304
-304
-305
-306
-304
-306
-305
-306
-306
-306
-306
-305
-306
-307
-308
-310
-310
-311
-312
-312
-311
-312
-313
-313
-314
-317
-318
-318
-318
-318
-318
-318
-318
-320
-319
-318
-318
-320
-323
-320
-320
-319
-319
-321
-320
-320
-321
-322
-320
-320
-320
-321
-322
-321
-323
-322
-320
-320
-319
-319
-318
-321
-319
-319
-320
-319
-319
-319
-320
-320
-320
-320
-321
-321
-319
-319
-320
-321
-320
-321
-319
-323
-319
-320
-320
-320
-321
-320
-318
-319
-319
-318
-320
-319
-319
-318
-318
-321
-317
-316
-317
-317
-314
-316
-315
-315
-314
-312
-313
-315
-315
-314
-313
-317
-314
-313
-312
-311
-307
-307
-306
-306
-305
-304
-300
-295
-293
-293
-296
-297
-302
-302
-303
-305
-305
-307
-312
-315
-316
-316
-318
-318
-318
-317
-317
-317
-315
-316
-315
-315
-314
-313
-312
-312
-311
-310
-317
-317
-301
-272
-232
-172
-124
-107
-114
-142
-185
-245
-309
-352
-362
-343
-331
-320
-310
-305
-306
-305
-306
-306
-306
-305
-306
-305
-305
-305
-305
-303
-302
-303
-303
-300
-301
-300
-299
-299
-297
-297
-298
-292
-294
-295
-293
-293
-290
-290
-290
-290
-289
-288
-287
-287
-286
-286
-287
-282
-283
-283
-287
-287
-287
-287
-288
-291
-293
-294
-297
-300
-303
-305
-307
-313
-314
-318
-319
-321
-321
-324
-324
-324
-323
-322
-321
-318
-315
-313
-312
-309
-306
-305
-304
-301
-302
-300
-299
-300
-299
-300
-295
-298
-298
-297
-297
-298
-298
-297
-298
-298
-298
-298
-298
-297
-296
-297
-293
-296
-296
-296
-298
-298
-298
-298
-299
-300
-300
-300
-301
-300
-302
-303
-300
-303
-305
-305
-304
-306
-306
-306
-307
-307
-307
-311
-307
-308
-309
-310
-312
-311
-312
-312
-312
-312
-312
-312
-312
-313
-312
-315
-312
-313
-314
-313
-313
-313
-314
-313
-314
-313
-313
-315
-314
-314
-313
-315
-314
-314
-314
-314
-315
-313
-316
-316
-314
-316
-316
-316
-314
-314
-315
-316
-314
-314
-316
-315
-314
-316
-313
-314
-314
-314
-318
-316
-315
-314
-315
-317
-314
-314
-314
-314
-314
-314
-313
-314
-315
-313
-316
-313
-314
-314
-313
-313
-312
-312
-312
-311
-312
-312
-311
-310
-307
-306
-305
-303
-303
-301
-301
-297
-293
-293
-293
-295
-298
-296
-300
-300
-302
-303
-306
-310
-312
-313
-313
-313
-314
-313
-314
-314
-314
-316
-313
-313
-313
-312
-310
-310
-307
-307
-309
-313
-313
-296
-264
-222
-159
-110
-94
-102
-128
-167
-222
-290
-337
-355
-341
-324
-316
-303
-299
-300
-302
-300
-301
-301
-302
-302
-302
-301
-300
-300
-298
-298
-295
-297
-296
-295
-295
-293
-292
-291
-292
-290
-290
-289
-289
-287
-287
-286
-281
-283
-282
-281
-283
-283
-281
-281
-281
-281
-281
-282
-282
-282
-283
-286
-285
-287
-288
-292
-294
-298
-300
-305
-308
-310
-312
-314
-318
-318
-321
-322
-324
-324
-323
-321
-320
-318
-318
-314
-312
-309
-305
-300
-302
-300
-300
-300
-298
-298
-299
-297
-299
-300
-299
-299
-300
-300
-300
-296
-300
-300
-300
-300
-301
-300
-300
-299
-299
-300
-300
-300
-300
-300
-302
-301
-300
-301
-303
-303
-303
-304
-305
-304
-305
-305
-302
-306
-307
-307
-307
-309
-309
-311
-310
-311
-311
-313
-312
-313
-312
-313
-317
-313
-315
-316
-315
-316
-315
-317
-316
-317
-317
-318
-318
-318
-318
-318
-319
-317
-317
-318
-318
-317
-318
-318
-318
-318
-318
-318
-318
-318
-318
-318
-318
-319
-319
-319
-318
-318
-318
-318
-319
-319
-319
-322
-320
-320
-319
-319
-320
-320
-320
-320
-320
-320
-319
-320
-321
-320
-319
-324
-320
-321
-319
-320
-320
-321
-320
-320
-320
-320
-319
-321
-321
-321
-319
-321
-320
-320
-319
-320
-320
-321
-319
-319
-320
-319
-319
-319
-320
-318
-318
-314
-313
-313
-312
-312
-310
-311
-305
-301
-301
-302
-300
-306
-309
-309
-307
-310
-312
-317
-319
-320
-322
-323
-323
-324
-322
-323
-325
-323
-321
-322
-320
-319
-320
-318
-318
-317
-315
-321
-332
-328
-300
-261
-199
-128
-85
-73
-83
-101
-148
-228
-298
-337
-342
-336
-324
-312
-306
-308
-312
-312
-311
-311
-311
-310
-311
-310
-309
-309
-309
-311
-307
-306
-306
-304
-306
-304
-302
-303
-302
-302
-300
-300
-299
-300
-299
-295
-298
-296
-296
-297
-295
-295
-295
-295
-293
-295
-293
-293
-293
-294
-295
-294
-297
-298
-299
-300
-302
-305
-307
-309
-313
-314
-320
-320
-321
-324
-327
-331
-330
-332
-333
-332
-330
-330
-328
-326
-323
-321
-321
-316
-312
-312
-308
-307
-307
-307
-306
-304
-305
-305
-305
-306
-305
-304
-305
-306
-306
-307
-307
-307
-308
-306
-306
-308
-307
-307
-307
-309
-308
-308
-310
-308
-309
-308
-309
-308
-312
-310
-309
-310
-309
-313
-312
-311
-312
-312
-313
-313
-315
-314
-315
-315
-316
-317
-318
-318
-318
-322
-319
-320
-322
-321
-321
-323
-323
-323
-322
-324
-323
-324
-324
-325
-324
-324
-324
-324
-325
-324
-324
-325
-325
-324
-326
-327
-330
-327
-326
-326
-326
-326
-327
-327
-327
-327
-327
-327
-328
-327
-327
-327
-330
-327
-328
-327
-327
-327
-327
-327
-326
-326
-324
-324
-326
-327
-326
-324
-329
-327
-327
-327
-326
-326
-325
-326
-325
-325
-326
-326
-325
-325
-326
-324
-325
-324
-324
-324
-324
-325
-324
-324
-323
-324
-324
-327
-323
-324
-323
-324
-323
-323
-322
-323
-322
-322
-321
-319
-316
-314
-313
-315
-312
-311
-307
-303
-301
-301
-302
-306
-309
-309
-310
-311
-312
-316
-318
-323
-323
-324
-325
-324
-324
-324
-324
-324
-325
-324
-324
-324
-325
-323
-322
-323
-322
-323
-330
-338
-327
-296
-250
-182
-113
-80
-75
-86
-104
-144
-215
-286
-332
-338
-330
-322
-312
-307
-308
-310
-309
-310
-313
-311
-311
-310
-310
-310
-310
-309
-308
-307
-306
-306
-306
-306
-303
-302
-301
-301
-300
-300
-300
-297
-295
-295
-296
-294
-295
-290
-292
-292
-292
-292
-290
-292
-290
-291
-293
-294
-292
-293
-293
-296
-299
-297
-302
-306
-307
-308
-312
-316
-318
-321
-324
-326
-329
-331
-334
-334
-335
-335
-334
-334
-330
-328
-324
-322
-319
-316
-313
-311
-309
-307
-306
-306
-306
-305
-305
-305
-305
-303
-305
-305
-305
-306
-305
-305
-302
-305
-305
-305
-305
-305
-304
-305
-306
-304
-305
-305
-305
-305
-305
-305
-302
-305
-306
-306
-306
-308
-307
-307
-306
-309
-307
-310
-309
-311
-311
-311
-313
-313
-314
-314
-314
-315
-315
-315
-316
-317
-317
-319
-318
-318
-318
-319
-321
-321
-321
-320
-319
-321
-325
-322
-321
-321
-321
-324
-320
-321
-322
-322
-321
-321
-322
-322
-321
-322
-322
-323
-321
-321
-322
-324
-321
-323
-324
-323
-323
-324
-324
-324
-324
-323
-323
-324
-323
-322
-322
-324
-323
-323
-324
-324
-324
-324
-324
-324
-324
-324
-327
-324
-324
-323
-322
-324
-324
-324
-324
-323
-323
-323
-322
-324
-323
-323
-325
-323
-323
-321
-322
-320
-322
-322
-321
-321
-319
-321
-320
-320
-319
-318
-318
-316
-314
-313
-313
-311
-309
-310
-306
-301
-299
-298
-298
-302
-306
-306
-307
-306
-307
-312
-315
-317
-319
-321
-321
-320
-321
-325
-323
-322
-321
-321
-321
-321
-319
-318
-320
-318
-316
-315
-316
-323
-324
-309
-275
-233
-167
-113
-91
-98
-122
-165
-225
-299
-345
-368
-354
-338
-326
-316
-309
-308
-309
-309
-310
-310
-310
-308
-307
-306
-302
-306
-306
-306
-302
-302
-302
-302
-301
-300
-300
-297
-297
-297
-296
-295
-290
-293
-293
-293
-292
-290
-290
-287
-289
-288
-289
-287
-286
-286
-286
-286
-284
-285
-285
-287
-288
-290
-289
-291
-294
-296
-299
-300
-304
-306
-310
-313
-318
-320
-322
-324
-326
-326
-328
-328
-326
-327
-324
-325
-319
-318
-314
-311
-307
-306
-305
-303
-300
-300
-298
-297
-298
-296
-296
-293
-298
-298
-296
-297
-297
-298
-298
-296
-296
-297
-296
-296
-295
-296
-298
-293
-295
-296
-296
-296
-295
-296
-296
-296
-298
-299
-298
-299
-301
-301
-300
-300
-300
-301
-303
-301
-302
-301
-303
-303
-303
-306
-309
-305
-305
-307
-307
-310
-308
-309
-310
-309
-309
-310
-311
-311
-310
-310
-314
-311
-311
-311
-310
-311
-312
-312
-313
-313
-312
-313
-314
-313
-313
-313
-315
-313
-312
-312
-313
-313
-312
-313
-313
-313
-312
-314
-313
-313
-312
-312
-313
-313
-315
-314
-314
-312
-316
-313
-313
-315
-312
-318
-313
-314
-315
-313
-313
-313
-313
-313
-313
-314
-314
-312
-313
-313
-312
-314
-312
-312
-313
-312
-311
-311
-312
-312
-311
-310
-309
-310
-308
-306
-305
-300
-301
-300
-299
-299
-298
-291
-289
-290
-292
-293
-293
-298
-299
-300
-302
-305
-306
-310
-313
-314
-313
-315
-314
-315
-316
-314
-318
-314
-316
-315
-314
-313
-313
-312
-311
-310
-310
-314
-308
-289
-261
-220
-160
-118
-112
-125
-157
-201
-250
-309
-351
-367
-349
-332
-321
-310
-304
-302
-302
-302
-303
-302
-302
-301
-301
-301
-300
-300
-301
-298
-300
-300
-299
-298
-297
-296
-296
-295
-294
-295
-293
-293
-291
-290
-290
-286
-287
-286
-287
-287
-286
-283
-282
-282
-281
-283
-282
-282
-282
-282
-283
-283
-285
-286
-287
-290
-292
-293
-296
-300
-303
-306
-312
-312
-315
-318
-320
-324
-325
-327
-328
-328
-327
-329
-324
-321
-319
-317
-317
-311
-309
-306
-305
-301
-300
-300
-299
-297
-299
-298
-297
-297
-299
-300
-296
-298
-298
-298
-298
-297
-298
-298
-297
-298
-298
-298
-298
-297
-297
-298
-296
-297
-298
-298
-300
-299
-299
-299
-300
-301
-300
-297
-301
-300
-302
-305
-306
-306
-306
-306
-306
-306
-306
-307
-307
-309
-307
-312
-310
-311
-312
-312
-311
-312
-312
-314
-313
-313
-314
-316
-315
-316
-314
-316
-317
-316
-316
-317
-317
-317
-318
-318
-318
-317
-316
-318
-318
-318
-318
-318
-318
-318
-318
-318
-318
-319
-318
-318
-318
-318
-323
-319
-319
-319
-319
-321
-320
-320
-319
-320
-318
-320
-320
-320
-320
-320
-322
-320
-320
-320
-319
-320
-319
-319
-320
-320
-319
-320
-319
-321
-320
-320
-320
-320
-320
-320
-319
-320
-321
-321
-319
-320
-320
-323
-319
-321
-320
-318
-319
-318
-315
-313
-312
-311
-313
-311
-310
-306
-303
-297
-301
-302
-306
-309
-309
-310
-308
-310
-312
-315
-318
-322
-321
-323
-323
-324
-322
-322
-321
-322
-322
-321
-320
-320
-319
-318
-318
-317
-316
-321
-331
-330
-306
-271
-221
-156
-106
-85
-86
-100
-130
-186
-257
-311
-340
-337
-328
-320
-309
-307
-307
-309
-311
-310
-310
-311
-311
-311
-313
-310
-309
-309
-309
-307
-308
-307
-306
-306
-306
-306
-305
-306
-303
-303
-301
-301
-300
-300
-300
-300
-299
-298
-298
-297
-297
-294
-295
-295
-295
-295
-293
-293
-292
-293
-295
-296
-295
-298
-300
-302
-305
-303
-309
-311
-315
-318
-321
-322
-323
-327
-329
-330
-331
-332
-332
-330
-328
-330
-326
-324
-320
-317
-316
-314
-312
-310
-308
-307
-307
-306
-307
-306
-306
-307
-306
-307
-306
-307
-307
-308
-309
-308
-309
-309
-312
-309
-310
-310
-309
-312
-312
-310
-309
-310
-309
-312
-311
-311
-310
-311
-315
-312
-312
-311
-312
-312
-312
-313
-313
-314
-314
-315
-314
-315
-317
-318
-319
-318
-320
-320
-320
-321
-322
-322
-323
-324
-323
-324
-325
-324
-324
-324
-325
-325
-324
-324
-325
-325
-324
-324
-325
-325
-324
-329
-326
-325
-325
-324
-325
-324
-324
-324
-326
-326
-324
-325
-325
-324
-324
-330
-325
-325
-326
-324
-325
-324
-324
-324
-325
-324
-326
-327
-328
-327
-327
-328
-328
-328
-327
-327
-326
-327
-327
-328
-326
-326
-326
-327
-326
-326
-327
-327
-327
-327
-326
-326
-325
-330
-328
-328
-326
-327
-330
-326
-326
-324
-327
-327
-326
-324
-324
-324
-325
-325
-324
-324
-325
-324
-327
-324
-325
-324
-324
-324
-323
-322
-320
-317
-314
-314
-314
-313
-312
-307
-305
-304
-305
-305
-306
-311
-312
-310
-311
-313
-314
-322
-322
-324
-324
-324
-324
-324
-324
-324
-323
-322
-325
-322
-321
-320
-319
-322
-318
-317
-319
-330
-332
-312
-275
-226
-155
-97
-80
-77
-91
-121
-177
-250
-307
-337
-335
-328
-319
-311
-309
-309
-311
-311
-313
-313
-313
-313
-312
-312
-312
-311
-312
-310
-310
-310
-309
-308
-307
-305
-302
-306
-305
-303
-302
-301
-301
-300
-299
-300
-300
-298
-298
-297
-296
-296
-293
-296
-294
-295
-296
-296
-296
-295
-295
-297
-300
-300
-300
-304
-306
-307
-311
-312
-316
-318
-319
-321
-324
-327
-330
-332
-333
-336
-335
-334
-333
-332
-330
-327
-326
-322
-318
-316
-315
-310
-306
-306
-302
-297
-300
-300
-300
-300
-299
-299
-300
-300
-300
-300
-300
-300
-300
-301
-303
-300
-300
-302
-302
-303
-302
-301
-303
-304
-303
-305
-303
-305
-305
-303
-305
-303
-304
-303
-304
-305
-306
-306
-306
-306
-307
-307
-312
-309
-309
-310
-309
-311
-312
-312
-312
-311
-312
-315
-314
-313
-316
-317
-322
-317
-318
-318
-316
-317
-318
-318
-319
-319
-318
-318
-318
-320
-319
-319
-322
-320
-319
-320
-318
-318
-319
-320
-318
-319
-318
-319
-318
-318
-318
-318
-319
-318
-318
-318
-318
-318
-319
-318
-319
-319
-319
-323
-320
-319
-319
-320
-320
-320
-321
-321
-320
-319
-319
-320
-320
-320
-319
-322
-320
-318
-319
-318
-319
-318
-319
-318
-318
-318
-318
-318
-318
-318
-318
-318
-318
-317
-318
-318
-317
-317
-315
-315
-314
-314
-314
-313
-312
-312
-307
-307
-306
-306
-305
-304
-305
-297
-293
-293
-293
-296
-295
-303
-302
-302
-305
-306
-308
-311
-314
-316
-317
-318
-318
-318
-318
-318
-319
-317
-318
-318
-316
-315
-316
-315
-312
-313
-313
-319
-314
-293
-263
-218
-157
-117
-107
-121
-154
-196
-256
-320
-360
-363
-342
-333
-316
-307
-306
-306
-306
-306
-306
-306
-305
-306
-305
-305
-303
-302
-302
-299
-300
-300
-300
-300
-300
-300
-298
-297
-297
-298
-295
-296
-294
-293
-294
-290
-291
-290
-290
-290
-290
-289
-288
-288
-289
-289
-288
-289
-289
-289
-290
-289
-292
-293
-294
-298
-299
-300
-305
-307
-309
-312
-318
-318
-320
-323
-324
-327
-329
-328
-328
-324
-325
-323
-319
-317
-315
-312
-311
-306
-306
-302
-300
-297
-297
-295
-296
-294
-296
-295
-296
-294
-295
-297
-294
-295
-295
-296
-295
-296
-295
-295
-293
-293
-293
-291
-293
-293
-293
-293
-293
-294
-295
-295
-293
-295
-295
-296
-297
-297
-300
-296
-300
-300
-300
-302
-301
-302
-302
-304
-305
-306
-305
-305
-306
-306
-307
-310
-309
-308
-307
-310
-310
-311
-310
-311
-312
-311
-312
-312
-312
-311
-312
-312
-312
-311
-311
-312
-311
-311
-312
-312
-312
-311
-314
-312
-311
-312
-312
-313
-312
-313
-312
-312
-312
-312
-313
-313
-313
-313
-316
-312
-313
-313
-312
-313
-314
-314
-315
-314
-315
-315
-315
-314
-314
-314
-316
-314
-314
-314
-314
-314
-314
-316
-314
-314
-314
-315
-314
-313
-314
-314
-314
-314
-313
-314
-312
-312
-312
-312
-312
-311
-310
-312
-306
-305
-304
-303
-301
-301
-299
-295
-293
-293
-290
-291
-293
-298
-300
-296
-301
-301
-303
-306
-307
-310
-312
-312
-312
-312
-313
-313
-312
-312
-312
-313
-311
-310
-310
-308
-307
-306
-306
-309
-318
-314
-287
-256
-205
-137
-93
-78
-90
-117
-160
-226
-292
-335
-342
-329
-318
-306
-295
-297
-300
-300
-301
-300
-300
-300
-300
-300
-300
-300
-299
-297
-298
-298
-294
-295
-295
-294
-294
-293
-292
-293
-291
-290
-290
-289
-288
-287
-287
-286
-285
