9
12
12
12
9
11
11
12
12
11
7
4
3
6
6
3
6
6
6
3
2
-1
3
8
9
8
3
2
3
2
2
-1
-2
-5
3
3
2
-1
-5
-2
-2
-2
-2
-2
-5
-5
-2
0
3
3
3
4
8
12
12
16
21
22
24
25
24
21
16
13
9
3
0
-2
-2
-1
-1
-7
-9
-9
-9
-9
-9
-11
-11
-9
-11
-9
-7
-6
-2
3
20
42
61
78
103
138
171
190
186
143
54
-50
-117
-139
-130
-96
-54
-19
2
3
-9
-13
-10
-2
4
6
6
-2
-2
-1
2
3
3
4
3
8
11
19
19
16
13
13
19
20
22
24
26
28
26
26
28
28
28
29
29
33
37
41
45
50
54
54
55
60
65
71
76
78
86
90
97
102
107
112
116
120
128
136
138
136
133
128
120
113
103
94
82
71
58
45
35
30
26
19
13
11
8
8
8
3
3
3
4
3
2
0
2
6
8
4
-1
3
3
6
6
8
7
8
8
6
6
4
6
8
9
8
9
8
8
7
6
8
9
6
3
-4
-5
-7
-6
-5
-4
-6
-5
-5
-6
-7
-9
-10
-9
-9
-7
-6
-7
-9
-11
-11
-9
-9
-11
-13
-13
-13
-13
-11
-7
-4
-2
-6
-5
-9
-7
-5
-6
-9
-13
-18
-15
-13
-13
-11
-7
-4
-5
-6
-7
-5
-4
3
4
9
13
12
13
13
19
20
19
16
8
3
-7
-9
-9
-6
-5
-9
-15
-22
-22
-23
-13
-13
-13
-13
-13
-9
-11
-13
-11
-5
9
29
48
64
85
116
149
169
175
146
72
-39
-114
-143
-137
-106
-66
-28
-6
-1
-6
-13
-7
-5
-2
-2
3
3
4
4
3
6
7
8
8
8
8
13
16
19
15
12
9
12
15
19
22
28
29
29
26
29
33
35
39
45
48
50
54
54
55
60
65
72
78
82
82
86
91
95
102
107
115
120
124
128
130
136
141
138
138
136
133
128
119
107
95
81
71
60
52
45
34
26
24
21
19
17
16
12
11
9
9
8
3
3
3
-1
3
2
2
3
4
6
6
6
3
3
3
3
2
-1
-5
-7
-4
-2
-2
-2
-4
-1
3
3
-2
-7
-7
-9
-10
-13
-11
-6
-5
-5
-9
-13
-14
-14
-13
-6
-5
-7
-10
-13
-14
-13
-14
-13
-9
-5
-6
-13
-18
-18
-18
-19
-17
-15
-15
-18
-19
-22
-22
-22
-26
-23
-23
-26
-28
-28
-26
-24
-26
-28
-28
-27
-23
-23
-22
-19
-18
-15
-13
-6
-1
3
9
12
12
8
3
-1
-7
-15
-22
-23
-23
-23
-23
-28
-31
-33
-31
-31
-31
-31
-33
-30
-30
-28
-28
-28
-27
-22
-9
6
19
29
50
82
124
159
177
162
97
-5
-92
-136
-152
-150
-127
-88
-50
-26
-19
-22
-23
-23
-18
-18
-14
-14
-13
-11
-11
-9
-5
-5
-7
-6
-6
-5
-2
-1
3
3
3
3
3
3
6
3
6
8
11
15
19
20
20
21
22
24
29
34
39
41
45
50
54
55
60
64
71
74
81
87
95
97
102
106
112
111
115
116
115
116
107
100
89
78
68
59
50
41
33
24
16
8
8
6
6
4
6
2
2
3
0
-2
-1
-2
-2
-2
-2
-1
-1
-1
2
3
0
0
-1
-1
-4
2
2
-1
2
0
6
3
2
-1
3
2
-1
-2
-2
-2
-5
-5
-5
-5
-5
-5
-7
-5
-5
-5
-5
-5
-7
-9
-6
-6
-9
-7
-9
-11
-11
-7
-7
-6
-9
-9
-10
-11
-11
-13
-9
-13
-11
-11
-13
-9
-9
-9
-13
-15
-13
-11
-10
-9
-10
-11
-11
-6
-2
0
3
8
9
12
12
13
19
21
22
16
11
7
2
-2
-7
-10
-9
-11
-11
-13
-13
-13
-14
-18
-18
-18
-18
-14
-15
-9
-9
-11
-9
-2
13
38
61
86
117
149
177
185
172
124
33
-75
-143
-154
-130
-89
-46
-15
-2
-1
-4
-4
-2
-2
-4
-2
2
-1
-2
-2
-1
-1
2
3
8
11
8
13
13
12
13
16
20
21
24
26
28
28
26
26
29
29
29
33
39
45
45
46
50
54
55
60
68
72
81
85
90
94
102
111
116
119
124
130
137
141
143
139
143
143
141
136
128
120
111
99
86
77
65
55
45
37
32
29
24
16
8
3
6
11
12
13
11
8
6
3
6
12
13
15
9
-2
-5
-2
6
11
11
7
4
3
3
8
8
8
8
7
12
12
12
9
8
6
6
4
6
6
6
4
6
3
-1
-2
-2
-2
-6
-9
-11
-11
-9
-7
-5
-5
-2
-1
-1
-4
-7
-7
-7
-6
-7
-5
-2
3
-1
-7
-9
-13
-11
-13
-15
-13
-10
-5
-2
-6
-13
-15
-15
-13
-11
-7
-5
-5
-5
-2
-1
4
6
9
13
16
20
21
20
16
11
3
-2
-6
-9
-9
-9
-9
-9
-13
-18
-18
-14
-14
-15
-18
-19
-20
-22
-18
-13
-7
-1
7
22
43
68
97
130
156
168
162
130
55
-46
-128
-161
-150
-114
-70
-30
-7
-7
-18
-22
-22
-18
-13
-7
-7
-7
-9
-11
-10
-9
-9
-2
0
6
4
3
3
2
3
4
6
7
8
8
9
13
13
13
12
13
16
17
19
20
24
29
33
37
41
45
50
52
52
58
64
71
78
86
89
91
94
99
107
111
112
116
119
120
119
113
106
99
94
81
68
54
42
32
21
8
-5
-10
-13
-18
-18
-23
-24
-28
-28
-26
-23
-26
-28
-30
-28
-30
-32
-31
-30
-22
-22
-26
-32
-33
-31
-30
-26
-26
-28
-30
-28
-28
-27
-23
-24
-27
-30
-31
-31
-30
-28
-28
-30
-35
-36
-33
-33
-30
-31
-31
-32
-31
-36
-36
-36
-33
-36
-39
-40
-43
-44
-43
-44
-43
-39
-40
-41
-44
-43
-43
-40
-40
-39
-41
-41
-39
-43
-43
-44
-48
-45
-43
-39
-40
-43
-44
-43
-43
-39
-39
-39
-39
-39
-44
-45
-44
-39
-33
-30
-30
-30
-28
-24
-22
-13
-7
-5
-9
-14
-24
-33
-39
-36
-33
-31
-32
-36
-44
-46
-43
-43
-44
-46
-49
-48
-46
-45
-40
-36
-31
-30
-22
-5
16
34
50
72
106
136
152
152
116
32
-79
-157
-182
-167
-126
-80
-43
-26
-26
-28
-26
-27
-23
-23
-23
-23
-22
-18
-11
-7
-7
-13
-18
-14
-13
-7
-6
-2
-2
3
3
4
6
8
8
8
8
11
13
20
28
29
33
34
34
35
35
37
41
45
54
60
64
71
76
82
86
86
95
107
112
119
120
128
137
138
141
141
143
145
138
130
123
113
102
91
81
69
56
48
41
37
33
26
22
19
16
16
16
16
16
13
16
19
21
20
22
20
19
16
16
16
17
20
20
19
19
24
28
29
29
25
25
22
19
17
19
20
24
25
24
24
24
22
20
20
22
22
24
24
24
24
21
24
24
25
24
20
20
20
22
24
25
22
16
13
16
19
19
22
22
24
24
22
25
26
24
22
20
21
26
28
24
22
20
19
16
15
19
20
22
24
24
25
22
21
22
28
30
34
34
39
45
45
47
50
52
54
54
47
45
39
34
29
22
19
22
22
20
19
19
19
20
20
19
16
16
19
19
22
24
30
41
58
78
95
116
149
181
199
203
181
120
17
-70
-111
-113
-88
-52
-5
29
37
29
22
22
26
30
29
35
37
39
39
41
45
48
48
47
42
45
43
50
52
50
47
50
55
59
61
64
64
61
64
65
68
71
71
73
76
80
81
85
86
90
97
103
106
107
108
116
130
136
141
143
145
147
152
163
177
181
182
182
182
186
185
182
177
171
169
165
158
141
123
106
97
93
86
80
74
68
64
61
59
54
54
52
50
51
52
50
50
52
52
55
55
55
55
55
58
58
55
54
52
54
55
55
54
54
55
56
58
58
58
58
58
58
54
50
50
51
52
51
50
50
50
50
50
50
45
45
42
39
41
42
42
39
39
39
38
34
37
37
39
39
35
39
41
43
39
34
34
37
35
34
37
39
39
39
38
37
37
34
33
33
35
37
39
41
35
29
29
34
37
39
42
45
47
52
55
60
61
68
63
58
51
43
34
34
33
29
30
29
28
22
20
19
19
19
20
22
22
19
19
20
22
25
30
41
54
71
81
102
137
172
201
211
186
119
15
-59
-95
-106
-101
-74
-33
3
20
22
16
19
17
19
20
20
26
29
29
26
26
28
29
29
29
30
33
33
35
37
37
38
38
39
38
41
43
48
52
52
52
54
54
55
58
61
65
68
71
76
78
80
86
86
94
97
103
112
112
119
124
130
137
143
149
149
152
154
158
158
155
149
141
130
120
107
98
89
82
74
67
61
55
50
45
43
39
39
39
39
41
39
41
39
37
34
34
37
37
35
39
41
41
39
34
37
41
42
41
39
39
41
43
41
41
39
39
39
39
41
39
41
39
37
37
37
39
41
39
39
37
35
34
32
34
35
34
34
33
33
33
29
33
33
33
30
28
30
29
30
33
34
34
35
33
33
33
33
33
32
33
33
30
30
29
29
30
33
33
34
37
41
42
47
50
52
59
64
64
61
55
50
45
34
33
32
33
30
24
21
19
22
21
22
20
22
24
26
24
24
24
28
29
39
51
68
77
86
111
149
190
221
228
195
111
3
-65
-96
-109
-101
-65
-23
13
30
29
26
24
26
29
33
30
34
34
34
39
39
39
39
39
39
39
41
39
41
41
45
48
48
50
50
50
48
51
55
58
61
63
65
69
71
72
74
77
76
81
82
89
91
97
103
111
116
123
123
130
136
138
143
147
152
151
155
155
158
158
154
147
138
126
115
103
94
86
78
71
63
56
54
50
48
45
41
39
35
37
39
39
39
37
37
37
37
37
34
35
37
35
38
37
37
37
34
35
35
34
38
37
37
34
33
33
32
33
30
30
30
33
33
33
32
29
28
28
25
26
26
22
22
21
22
22
24
24
28
28
22
20
19
19
19
19
17
19
17
17
19
17
20
21
20
19
17
17
15
16
19
16
16
15
16
17
19
19
22
26
30
33
33
34
38
39
45
42
39
35
28
19
16
13
13
12
9
12
8
8
9
11
11
4
2
-1
0
2
3
8
13
19
30
45
61
78
97
130
169
201
207
189
128
19
-80
-128
-131
-109
-67
-23
8
16
15
12
9
13
13
11
13
16
20
24
20
16
15
13
19
21
24
28
29
29
29
28
26
29
34
37
39
42
41
39
38
39
39
41
45
50
54
56
60
65
68
72
76
78
86
90
97
103
107
112
116
123
130
138
141
143
143
147
152
151
154
145
138
128
119
111
99
87
74
65
59
58
51
45
39
34
30
30
29
29
28
28
25
25
26
25
22
22
20
20
24
29
30
30
29
26
26
24
30
34
34
32
25
26
28
30
30
29
26
28
26
25
24
24
26
25
24
22
22
22
22
22
24
24
22
22
20
20
20
19
21
22
24
21
19
13
13
12
12
12
12
13
16
16
9
12
13
13
12
8
9
12
13
11
4
4
7
11
9
9
9
12
16
19
24
29
33
37
39
39
35
30
24
15
11
9
8
6
4
3
2
-1
-1
-1
2
-1
-7
-5
-2
3
3
0
2
6
19
41
64
86
116
149
180
197
194
164
89
-19
-106
-137
-122
-88
-44
-7
7
3
-2
-4
-2
3
4
6
8
9
9
12
12
12
13
17
15
19
17
20
24
24
26
24
24
24
29
30
32
33
33
33
37
39
46
50
52
54
58
61
61
64
64
68
74
81
89
98
103
107
111
116
123
130
137
143
143
147
149
152
155
154
149
143
128
119
106
97
87
77
65
55
47
39
35
30
28
21
19
17
16
16
16
17
13
12
11
9
12
12
12
13
16
16
19
19
19
16
19
21
22
19
17
16
19
15
22
22
22
19
13
19
20
20
15
9
8
11
12
13
15
13
8
8
9
9
6
6
6
8
8
7
8
8
9
6
4
3
4
4
3
3
3
4
3
3
0
-4
2
3
3
4
2
3
2
2
2
3
3
2
-1
-2
-5
-2
3
8
9
12
13
16
19
22
29
30
34
29
26
20
9
-1
-2
-5
-2
-1
-1
-2
-4
-2
-2
-2
-2
-1
-1
-1
-5
-2
-1
3
8
15
34
55
76
106
145
178
195
188
154
74
-36
-117
-147
-134
-95
-49
-13
3
-1
-5
-6
-5
2
8
12
11
7
2
4
8
8
9
11
12
11
12
11
19
16
12
12
12
19
22
29
33
33
33
34
35
37
41
43
45
48
51
55
55
60
61
68
72
80
85
87
95
103
111
119
128
130
129
133
133
138
143
149
151
154
145
137
123
112
102
89
78
68
59
50
41
34
26
20
12
8
8
9
8
8
7
8
8
6
7
8
8
9
12
12
12
11
8
7
8
9
12
12
13
15
15
12
6
2
2
6
3
6
8
9
13
9
9
7
3
4
6
8
3
3
4
8
8
3
-1
-2
-4
-5
-7
-6
-6
-2
-1
-1
-2
-2
-7
-10
-9
-7
-4
-5
-5
-6
-9
-9
-9
-7
-7
-1
-2
-4
-9
-14
-14
-18
-15
-11
-9
-11
-9
-6
-6
-9
-11
-7
-2
0
2
2
3
8
13
19
24
28
24
19
13
7
-2
-6
-9
-7
-7
-7
-9
-13
-17
-19
-22
-20
-18
-18
-14
-18
-13
-9
-9
-7
0
16
37
58
81
120
155
178
182
162
106
7
-92
-144
-150
-123
-80
-36
-6
-1
-7
-13
-14
-13
-9
-5
-4
-1
-2
-1
-1
-1
2
2
3
3
3
6
11
13
7
3
2
8
13
16
19
20
20
20
20
24
26
30
33
39
43
45
47
51
56
61
64
67
74
82
89
91
97
102
106
112
115
121
124
129
133
137
138
145
143
138
128
116
107
95
85
71
61
50
39
29
25
22
16
9
7
6
8
8
8
8
6
6
8
9
8
8
3
2
2
-1
6
6
6
6
8
9
12
13
13
13
12
12
13
13
9
12
13
12
11
6
8
11
8
6
4
2
3
2
6
6
7
6
3
4
3
2
0
3
3
8
7
6
-1
-4
-5
-1
3
4
4
3
3
-1
-2
-2
2
4
2
2
-2
-4
-2
-1
3
6
4
3
3
2
-1
-1
3
2
-1
-1
-1
2
0
-1
3
6
8
12
13
16
16
20
24
30
34
34
29
24
17
13
11
6
2
-1
-2
-4
-5
-5
-5
-7
-5
-2
-1
-1
-4
-2
-5
-4
2
9
28
48
65
84
113
152
182
197
194
160
82
-24
-105
-136
-128
-98
-54
-17
4
7
3
4
3
6
8
12
16
19
13
12
12
11
13
13
12
11
12
16
17
15
16
13
17
22
24
24
25
29
29
33
34
39
39
39
42
45
48
50
51
55
59
63
65
68
74
81
86
91
95
102
111
115
120
129
130
136
137
138
143
138
136
126
115
107
95
85
71
63
52
45
39
33
22
16
13
13
13
15
13
9
6
6
6
6
7
8
8
9
8
6
6
6
6
6
7
6
8
8
9
13
12
13
12
15
13
13
13
15
19
19
17
16
16
15
13
12
11
9
8
8
12
9
12
12
8
4
3
6
7
8
7
8
8
6
6
8
8
9
8
3
-1
-1
-4
0
0
3
2
-1
3
-1
-1
-1
-1
2
2
2
3
2
3
6
3
2
3
3
3
8
12
12
11
8
9
17
24
30
33
35
37
35
29
22
13
11
8
6
-1
2
0
-1
-2
-4
-1
-2
-4
-4
-2
-1
-1
-1
2
3
6
13
30
50
65
84
115
155
189
206
193
141
37
-65
-121
-131
-117
-80
-40
-5
11
9
3
3
6
8
9
9
11
9
12
9
15
16
19
22
20
24
24
24
22
20
21
22
28
29
29
29
30
34
37
37
38
39
42
45
46
50
54
58
60
64
65
73
77
81
86
90
95
102
108
116
123
136
137
137
137
138
143
143
143
138
130
121
112
103
91
81
73
61
50
41
33
29
25
21
20
19
16
12
11
6
3
3
3
8
6
6
3
3
4
6
3
2
2
-1
-1
-1
0
2
-2
3
2
2
3
0
0
-1
3
2
-1
-6
-6
-7
-9
-7
-9
-7
-7
-7
-9
-10
-13
-11
-13
-14
-13
-15
-13
-11
-11
-11
-13
-15
-18
-18
-19
-18
-17
-13
-13
-13
-15
-14
-14
-14
-13
-14
-13
-13
-13
-11
-11
-11
-11
-9
-9
-13
-15
-15
-13
-9
-9
-11
-13
-13
-9
-7
-5
-5
-2
0
3
4
4
7
12
19
24
24
19
9
2
-6
-11
-9
-7
-5
-6
-13
-15
-18
-18
-18
-18
-18
-18
-15
-15
-15
-13
-13
-9
-2
11
28
42
60
86
123
162
189
190
155
71
-33
-105
-134
-143
-128
-96
-52
-23
-13
-11
-15
-18
-15
-13
-9
-7
-7
-4
-2
-5
-2
-1
2
4
6
3
4
6
8
8
8
8
9
12
13
15
19
22
26
29
26
28
28
29
34
37
39
41
45
48
55
60
64
65
71
80
86
91
99
99
102
103
111
117
120
124
125
124
120
113
110
102
95
86
76
67
58
50
41
33
24
16
11
6
4
3
3
4
3
-1
-5
-7
-2
-1
3
2
-1
-1
3
6
4
3
-2
-2
2
0
3
3
2
-1
-1
2
3
3
3
6
6
6
2
-1
2
3
4
3
-2
-5
-2
-1
2
-1
-2
-2
-5
-2
-4
-5
-5
-6
-7
-9
-6
-6
-4
-4
-6
-5
-6
-7
-7
-9
-11
-13
-13
-13
-11
-9
-9
-6
-5
-5
-7
-9
-11
-11
-9
-7
-9
-11
-14
-14
-13
-13
-9
-6
-6
-7
-13
-13
-13
-11
-9
-7
-5
-1
3
6
12
19
20
16
17
13
6
-2
-11
-9
-9
-11
-13
-14
-18
-18
-15
-18
-19
-22
-26
-26
-22
-20
-18
-15
-11
-5
8
29
55
78
107
141
169
180
180
149
71
-39
-122
-150
-136
-97
-50
-20
-10
-11
-14
-13
-13
-6
-6
-5
-5
-2
3
3
3
3
2
3
6
4
3
4
6
8
9
12
13
16
19
21
22
22
21
20
25
29
33
34
39
39
45
50
54
55
60
65
68
73
81
82
89
94
102
112
119
123
124
124
130
136
138
143
145
143
141
137
128
119
107
94
78
65
59
50
39
29
24
21
16
13
11
9
9
12
12
9
8
6
6
4
2
6
6
6
6
3
8
7
6
6
6
7
8
11
12
13
12
11
9
12
15
12
6
3
6
8
8
6
8
8
8
9
9
8
3
0
-2
-2
-1
3
6
6
3
2
3
3
2
-6
-6
-6
-4
-1
-1
-1
-2
-2
-2
-4
-1
-1
-1
-2
-2
-5
-6
-6
-5
-4
-5
-2
-2
-4
-4
-2
-5
-6
-5
-4
-2
-1
-2
-6
-7
-5
-1
0
3
2
2
-2
3
8
13
19
20
24
26
28
29
25
22
19
12
2
-5
-6
-2
0
2
-2
-9
-13
-13
-9
-9
-9
-9
-9
-7
-1
2
6
12
25
48
65
85
110
147
177
190
189
147
64
-41
-114
-137
-122
-85
-44
-13
2
0
-2
-2
-1
2
2
6
12
16
16
13
12
11
13
19
20
21
24
24
28
28
26
30
30
33
35
39
41
42
43
45
48
52
52
54
58
59
67
68
71
76
80
81
82
85
90
97
103
111
116
123
128
136
141
149
155
160
162
164
162
159
155
147
136
123
112
102
91
81
71
60
51
45
39
34
33
34
32
26
22
19
22
24
22
24
24
24
22
22
26
29
30
30
29
26
28
25
24
28
29
29
29
26
24
22
24
29
30
30
28
26
24
26
29
30
29
24
21
19
20
20
24
21
20
20
20
22
19
19
22
24
24
19
15
13
13
19
19
19
19
19
19
19
20
20
21
21
19
20
21
22
19
13
16
19
20
24
26
29
28
26
22
22
20
22
26
22
16
19
17
17
19
20
24
24
24
26
29
34
39
42
41
43
45
47
54
60
61
58
51
39
29
22
20
22
22
20
17
16
16
16
16
19
19
19
19
19
20
21
22
33
45
61
81
102
123
155
194
215
219
194
126
22
-65
-105
-101
-74
-36
3
21
24
22
20
22
26
30
35
37
39
39
39
42
43
41
45
46
48
48
46
50
52
52
55
54
54
51
54
61
64
61
60
60
65
71
74
76
76
77
80
82
86
89
94
97
103
107
110
116
123
130
137
143
145
149
154
159
162
167
169
171
169
169
163
154
143
128
119
111
102
89
78
67
60
54
51
45
39
37
32
33
29
28
24
29
33
30
26
24
22
20
21
22
24
24
24
22
20
20
24
25
25
24
24
24
24
28
24
22
19
19
15
19
20
19
19
15
19
20
20
19
16
16
16
17
19
16
13
13
12
13
13
13
12
12
9
13
13
13
13
9
9
8
8
8
12
12
13
15
15
13
13
15
13
12
9
8
8
7
12
12
13
12
12
9
12
12
12
9
9
12
13
16
16
16
19
21
28
30
32
34
37
39
42
39
33
28
19
16
16
16
13
9
8
4
2
-2
-2
-2
-2
-5
-1
2
2
2
2
8
19
33
50
65
86
119
158
195
216
211
169
81
-26
-96
-122
-122
-102
-67
-28
-5
6
6
6
7
8
12
13
16
19
19
16
15
19
20
22
20
22
24
26
29
22
22
24
28
26
29
33
35
35
37
41
42
45
50
50
52
52
55
60
61
65
67
71
73
78
81
87
95
102
112
116
116
119
121
128
132
137
143
145
145
145
139
137
128
119
106
94
82
71
61
52
45
38
34
33
26
22
19
19
16
13
13
16
15
16
13
13
16
16
16
13
12
12
12
15
13
16
16
16
13
12
12
13
13
13
19
20
19
16
9
12
12
9
9
8
8
11
12
9
8
8
6
6
8
8
4
3
3
3
3
2
-1
-1
2
2
-1
-1
-1
6
8
6
2
-2
-6
-2
-1
-2
3
3
2
3
-2
-2
-2
-2
-1
-1
0
2
3
0
-1
-2
-5
-7
-4
-2
-5
-5
-2
-1
3
2
2
2
3
8
8
9
16
20
21
22
28
30
30
28
20
11
0
-2
-2
4
3
3
-5
-9
-13
-13
-13
-13
-13
-9
-6
-7
-5
-2
3
9
24
43
61
77
102
138
173
194
190
152
63
-40
-109
-132
-121
-84
-40
-10
3
2
-1
-1
3
6
7
6
3
4
3
6
8
9
15
13
12
12
13
16
19
19
19
19
20
24
26
30
33
34
33
29
30
34
38
43
48
48
50
52
55
58
60
64
65
68
73
81
86
91
102
102
107
111
112
121
128
133
134
138
139
141
141
138
130
123
116
104
95
81
68
60
52
45
34
28
20
16
13
12
11
6
2
2
2
2
0
2
-1
-1
-1
0
-1
-1
-2
-1
-1
-1
3
2
-1
-2
-4
2
3
2
0
-1
-2
-5
-5
-5
-5
-7
-7
-9
-9
-9
-7
-9
-13
-13
-11
-13
-13
-14
-15
-18
-18
-14
-15
-18
-20
-22
-20
-19
-22
-23
-23
-26
-23
-23
-23
-26
-30
-28
-28
-28
-28
-28
-26
-26
-28
-28
-28
-28
-28
-28
-26
-23
-26
-23
-24
-23
-26
-28
-28
-26
-26
-23
-26
-27
-28
-28
-28
-27
-23
-19
-18
-18
-22
-22
-15
-11
-5
-1
2
6
3
-7
-13
-19
-23
-23
-23
-26
-30
-31
-33
-36
-39
-39
-40
-37
-39
-36
-33
-32
-31
-30
-27
-19
-9
6
19
33
55
94
136
164
175
147
65
-41
-114
-147
-156
-143
-109
-65
-37
-23
-23
-28
-26
-23
-20
-18
-18
-14
-14
-18
-18
-15
-14
-11
-9
-5
-2
-6
-7
-9
-9
-7
-4
-1
2
3
4
8
7
6
4
8
11
13
15
16
19
22
24
33
35
38
42
45
51
54
56
61
69
74
80
81
87
94
99
104
111
112
107
106
103
102
95
86
74
63
51
41
33
24
15
12
6
3
-2
-5
-11
-14
-14
-13
-13
-14
-18
-18
-18
-18
-13
-13
-11
-9
-9
-10
-11
-13
-14
-15
-14
-14
-14
-13
-13
-13
-13
-11
-13
-13
-11
-11
-11
-13
-13
-15
-13
-13
-13
-13
-15
-18
-19
-22
-22
-18
-18
-18
-18
-23
-26
-28
-28
-28
-24
-23
-23
-23
-23
-23
-22
-23
-23
-27
-28
-28
-24
-22
-22
-23
-24
-26
-30
-30
-30
-28
-30
-31
-32
-30
-28
-28
-28
-26
-26
-28
-28
-23
-23
-28
-30
-31
-30
-28
-20
-18
-13
-13
-13
-11
-6
-1
8
12
13
13
7
-1
-9
-13
-14
-19
-22
-23
-26
-27
-28
-30
-28
-28
-30
-30
-28
-27
-26
-28
-23
-23
-22
-18
-4
15
34
54
74
106
141
165
175
162
116
13
-92
-153
-163
-136
-95
-52
-30
-24
-28
-28
-27
-22
-18
-15
-14
-17
-17
-14
-17
-18
-15
-11
-9
-7
-5
-2
-5
-6
-2
-5
-5
-4
-1
2
3
8
9
13
13
16
16
22
28
33
37
37
39
38
39
45
50
55
58
61
65
73
78
86
94
99
103
110
113
124
130
136
133
128
124
124
124
120
112
102
94
81
71
58
47
39
34
29
20
13
7
2
-2
-6
-6
-9
-11
-9
-7
-7
-5
-2
-2
-2
-4
-6
-7
-5
-2
-2
-1
-2
-5
-2
0
0
-2
-5
-5
-2
3
4
3
-2
-6
-7
-5
-2
-1
2
2
2
3
-2
-2
-6
-5
-4
-2
-5
-9
-11
-9
-9
-6
-7
-5
-6
-6
-11
-15
-13
-13
-13
-13
-13
-11
-11
-14
-13
-13
-13
-7
-5
-5
-9
-15
-18
-19
-18
-15
-11
-10
-13
-18
-18
-18
-18
-13
-13
-13
-13
-15
-11
-11
-13
-13
-15
-15
-11
-7
-2
-1
6
12
13
12
9
13
13
13
9
7
2
-5
-11
-18
-19
-19
-18
-18
-19
-18
-18
-14
-15
-18
-22
-23
-23
-22
-18
-17
-15
-7
15
42
65
91
128
158
178
185
164
107
8
-85
-137
-147
-127
-92
-54
-27
-15
-13
-18
-20
-14
-11
-6
-4
-5
-6
-6
-4
-2
-1
-1
-1
-1
3
3
4
2
-2
-2
0
8
12
13
13
9
13
15
20
21
24
28
26
29
29
30
38
41
48
52
55
55
60
65
71
76
78
85
91
98
103
111
116
121
124
126
133
134
137
134
126
116
107
93
81
68
55
41
34
30
24
19
15
12
7
3
2
-1
-1
-1
-2
-2
-5
-9
-9
-7
-5
-6
-11
-11
-6
-6
-2
-1
-5
-5
-5
-5
-2
-1
-1
-1
-2
-5
-6
-6
-5
-5
-4
-7
-5
-7
-7
-5
-1
2
-1
-7
-11
-13
-15
-11
-11
-13
-15
-18
-14
-14
-14
-18
-18
-18
-18
-14
-13
-15
-13
-11
-11
-11
-11
-11
-18
-23
-28
-28
-23
-23
-26
-26
-23
-23
-18
-13
-11
-13
-15
-13
-18
-23
-28
-28
-23
-18
-14
-17
-20
-23
-24
-23
-19
-17
-14
-11
-6
-7
-5
-1
2
3
3
8
11
13
13
9
6
-2
-7
-11
-14
-18
-20
-23
-23
-23
-22
-23
-22
-22
-26
-28
-28
-23
-20
-18
-18
-11
4
28
45
67
97
133
164
178
168
123
29
-72
-132
-148
-131
-100
-59
-30
-14
-14
-19
-19
-13
-11
-7
-5
-6
-6
-5
-2
3
3
-2
-1
-2
-1
3
3
8
9
9
13
12
12
16
19
19
19
22
28
29
26
29
33
37
41
43
45
50
55
60
60
60
60
64
72
82
91
99
106
112
116
120
128
133
133
136
142
145
146
143
143
137
126
116
106
97
86
78
68
55
50
45
39
35
33
29
26
26
26
28
29
29
26
22
21
20
24
29
30
29
29
29
29
30
33
32
34
35
38
41
39
41
39
39
37
35
35
35
37
37
35
38
39
38
38
37
37
37
35
37
37
37
37
37
39
39
37
34
33
35
35
34
34
37
39
41
39
38
37
37
37
35
33
39
39
39
39
34
39
39
39
37
34
37
39
41
45
41
43
46
47
45
43
42
47
47
50
48
48
50
52
55
60
65
68
68
71
74
78
81
78
71
61
58
54
55
55
56
55
50
50
48
47
48
47
48
50
50
48
45
45
46
52
60
74
94
107
120
139
175
211
238
243
207
120
20
-48
-72
-71
-52
-11
29
54
58
60
55
58
59
60
60
61
60
68
68
71
71
76
77
78
76
74
73
72
74
78
81
86
86
87
87
89
89
93
95
95
97
99
106
112
116
117
119
113
111
111
115
120
128
133
143
149
154
155
164
172
178
185
186
189
191
197
202
203
202
197
193
185
177
169
155
145
133
123
111
102
97
97
94
89
86
85
86
82
81
78
78
80
81
76
76
76
76
74
74
77
81
81
81
86
86
86
82
81
82
86
87
86
85
84
86
86
86
86
81
81
76
78
82
86
86
81
78
78
78
81
81
82
81
81
78
76
76
78
78
80
80
82
81
81
85
89
91
86
73
72
74
78
82
82
81
76
73
76
77
80
76
76
77
78
80
81
81
81
80
81
78
80
81
86
91
95
99
104
112
116
119
117
113
113
112
106
99
95
93
95
91
86
73
63
59
68
76
81
81
80
76
76
77
76
80
82
89
100
116
128
149
181
219
253
280
279
232
138
37
-28
-59
-67
-50
-11
38
68
78
72
65
64
71
81
81
81
82
86
91
89
91
95
97
95
86
86
86
90
91
95
95
91
89
89
94
97
97
97
95
97
102
106
112
115
120
124
126
128
123
123
128
138
142
138
139
143
147
154
155
160
169
177
188
191
189
186
189
189
186
182
175
164
152
137
128
123
119
111
103
94
89
86
86
82
78
72
68
65
68
72
76
76
72
64
60
61
65
72
72
65
60
58
56
65
65
64
60
55
60
60
60
61
65
65
67
68
65
65
65
64
61
60
60
64
65
63
61
61
60
58
55
54
54
54
55
59
54
48
42
41
41
42
42
39
41
45
47
47
46
46
50
50
48
45
45
47
48
46
46
47
47
47
45
45
48
46
42
41
48
58
60
55
50
51
61
72
69
59
54
55
56
56
52
50
48
45
39
39
39
38
35
29
33
34
34
35
33
37
37
34
30
29
33
45
64
87
111
128
155
190
219
230
220
178
91
-11
-80
-98
-84
-49
-6
29
41
41
37
33
34
37
41
45
42
41
41
43
48
50
52
55
51
51
48
50
51
55
60
63
65
65
65
64
65
71
77
81
81
76
77
80
81
86
86
85
86
86
95
99
102
102
107
116
123
128
130
137
143
154
160
167
171
177
180
178
177
172
169
164
155
149
137
123
104
90
78
65
60
56
54
50
45
39
37
34
37
35
37
39
39
39
39
39
39
41
39
35
38
43
47
46
42
42
41
39
34
37
37
38
37
33
35
37
37
41
41
41
41
39
41
42
42
41
39
38
41
43
46
46
41
37
30
29
29
29
28
24
25
29
29
29
29
29
29
29
28
26
28
30
26
25
28
26
33
30
29
26
26
25
24
24
22
26
30
30
24
20
19
17
19
20
24
30
30
30
33
37
41
47
50
55
54
47
39
33
29
26
28
29
30
30
24
13
8
8
13
16
13
12
4
6
4
8
13
22
33
50
69
86
103
130
169
201
211
197
141
41
-54
-104
-113
-95
-59
-19
8
19
21
20
20
22
24
24
28
25
24
24
28
24
29
30
35
34
34
39
41
43
42
39
45
45
48
50
50
54
55
55
58
60
60
64
64
68
71
72
74
80
85
89
91
91
95
103
111
119
123
128
136
143
151
159
158
162
164
168
169
163
158
151
145
136
120
111
99
91
86
76
69
59
51
47
45
45
46
43
39
35
32
33
30
30
30
33
33
32
34
34
35
33
30
30
33
33
33
33
33
34
33
39
39
39
34
30
34
33
30
30
29
29
29
29
29
28
29
29
33
30
29
29
29
29
29
29
29
29
25
21
22
24
24
26
24
22
22
24
22
22
20
19
16
20
22
24
24
20
20
20
20
20
21
25
24
22
21
20
20
22
24
26
29
29
30
34
37
45
50
51
54
50
50
41
29
26
24
24
22
24
22
22
20
19
17
15
16
19
20
16
16
13
13
19
22
33
45
60
73
86
107
143
186
217
228
193
106
2
-66
-96
-105
-92
-59
-19
13
26
29
26
22
24
25
26
29
30
33
32
33
34
34
34
34
33
35
39
37
39
39
43
43
43
42
43
45
46
50
52
52
54
55
58
58
64
69
74
77
76
76
81
86
89
97
102
111
113
119
124
128
136
139
145
149
154
154
155
154
154
154
149
145
129
120
111
102
91
78
71
64
61
58
54
48
43
39
37
35
37
38
37
34
33
34
38
37
37
34
34
39
37
37
38
38
39
39
41
39
39
41
37
35
33
30
33
33
35
38
35
39
37
34
33
29
29
29
33
35
35
34
30
28
24
24
24
22
24
29
29
29
28
22
22
20
19
20
22
22
22
22
22
20
19
17
19
19
21
20
20
19
19
21
22
20
19
20
20
21
22
24
24
28
26
26
29
29
29
26
29
37
45
50
50
45
37
30
26
24
21
20
20
16
13
9
12
13
9
9
12
12
9
9
9
12
12
16
24
39
61
81
98
123
158
189
206
206
175
102
-2
-89
-131
-132
-102
-54
-11
13
19
19
16
13
16
19
19
20
22
22
21
20
22
24
26
29
29
28
22
26
29
29
29
33
39
41
42
43
45
48
50
50
45
45
48
52
55
55
60
61
65
69
74
78
86
91
95
102
107
112
113
120
130
139
145
147
152
155
155
154
154
152
150
143
133
123
106
93
81
74
65
59
52
45
34
25
25
24
24
21
20
20
20
19
19
19
16
17
19
16
16
15
15
19
16
13
12
13
17
21
20
16
13
16
19
19
16
9
12
12
13
16
16
16
15
12
9
11
8
7
8
8
9
8
6
3
-1
-2
-1
3
6
4
4
3
2
2
2
3
-1
-1
-2
-2
-2
-1
-1
-5
-5
-2
-1
-2
-1
-2
2
2
-2
-1
-1
3
-1
-2
-1
-2
-5
-2
2
3
3
0
2
3
6
8
12
12
16
19
20
28
32
33
30
22
13
9
8
3
-2
-6
-5
-4
-2
-9
-10
-9
-7
-6
-7
-6
-5
-1
2
3
8
16
24
35
48
65
82
112
149
180
195
184
133
34
-67
-127
-140
-124
-84
-43
-13
-4
-2
-5
-5
-5
-1
3
3
4
3
3
4
8
8
6
3
6
7
6
3
3
8
11
12
13
13
16
16
15
16
19
22
26
30
30
29
29
33
35
38
41
45
47
52
58
63
65
69
74
78
82
89
94
98
103
111
115
123
124
128
128
128
128
120
112
102
91
81
71
58
45
35
26
20
13
9
4
-2
-5
-6
-9
-9
-11
-9
-9
-9
-11
-11
-11
-11
-11
-11
-9
-7
-5
-6
-9
-11
-13
-14
-11
-11
-11
-11
-11
-9
-7
-7
-7
-9
-7
-7
-9
-9
-6
-7
-7
-6
-6
-9
-13
-14
-14
-13
-11
-11
-14
-18
-18
-14
-15
-18
-17
-18
-19
-20
-20
-19
-19
-18
-18
-15
-14
-18
-20
-23
-26
-22
-20
-19
-19
-23
-22
-23
-23
-20
-18
-18
-23
-28
-28
-28
-26
-23
-24
-23
-23
-24
-23
-22
-19
-18
-14
-14
-13
-10
-5
-1
3
7
4
-1
-11
-18
-22
-22
-22
-22
-28
-30
-31
-31
-30
-30
-28
-32
-33
-35
-31
-30
-28
-23
-22
-18
-7
11
24
34
51
85
130
169
190
177
115
9
-85
-137
-161
-158
-130
-89
-50
-28
-19
-19
-23
-22
-20
-18
-14
-13
-11
-13
-13
-14
-13
-13
-11
-7
-5
-2
-2
0
0
2
3
3
4
6
9
12
13
11
8
8
9
15
22
24
26
26
24
30
34
41
45
52
56
61
65
72
76
82
87
95
102
111
111
113
116
119
123
120
119
116
115
107
97
86
72
60
50
41
35
26
21
16
12
9
6
-1
-1
-2
-4
-2
-2
-5
-4
-1
2
2
0
-2
-5
-5
-2
2
3
0
3
6
3
6
3
8
6
6
6
6
8
6
6
6
6
3
3
2
3
2
0
2
3
3
3
3
3
2
2
3
3
3
4
-4
-6
-7
-4
-2
-4
-5
-5
-4
-5
-5
-5
-5
-5
-1
-1
0
-2
-5
-5
-7
-6
-6
-4
-2
-5
-7
-9
-7
-2
-1
-2
-5
-5
-2
-1
3
3
0
-2
2
3
8
17
24
29
25
21
16
12
11
8
6
-1
-5
-7
-2
-4
-5
-11
-14
-13
-13
-15
-13
-14
-11
-9
-7
-5
-4
-5
-2
12
33
56
81
112
147
181
197
190
159
81
-31
-119
-152
-140
-104
-59
-19
-2
2
-4
-5
-4
-1
-6
-1
2
6
6
3
6
7
11
12
15
16
16
16
16
15
17
19
21
22
20
19
19
20
22
24
24
29
33
37
37
39
39
45
50
54
54
58
64
72
81
86
95
102
103
103
106
112
116
128
137
145
149
143
141
143
145
146
141
134
123
112
99
87
78
65
58
48
39
29
25
22
24
24
22
20
16
13
9
12
13
13
17
16
19
19
20
19
19
12
13
9
9
12
13
19
19
16
13
13
16
19
20
22
20
16
13
16
19
20
19
16
16
16
19
19
19
13
13
17
17
19
13
13
12
13
13
13
13
13
15
11
13
13
19
16
12
13
12
11
11
11
9
9
8
6
6
6
6
8
9
9
11
9
9
12
12
9
12
12
12
13
16
16
12
8
7
8
11
12
15
16
19
24
26
30
34
37
32
33
24
19
12
6
3
4
3
6
3
2
-1
-4
-2
-2
-1
-2
-2
-5
-5
-2
-2
6
17
33
51
65
81
110
145
178
195
195
164
86
-20
-102
-136
-135
-109
-65
-28
-4
0
-2
-5
-7
-2
2
3
2
3
6
6
7
8
8
9
7
8
9
12
13
13
16
16
19
19
19
19
20
22
24
24
24
24
26
26
29
33
39
41
45
43
47
52
59
63
72
72
76
81
91
99
103
107
111
113
123
124
128
130
134
136
134
130
128
120
112
102
86
72
60
52
41
33
29
24
20
16
11
6
4
4
4
6
2
-1
-2
-2
-6
-4
-2
-2
-2
-5
-2
-2
-2
-4
-2
-1
-1
-1
-1
-2
0
2
3
4
2
-1
-1
-1
2
-1
-2
-2
-2
-2
-1
-1
-1
-4
-4
-5
-7
-5
-5
-5
-6
-4
-6
-2
-7
-6
-2
-6
-7
-7
-9
-11
-11
-10
-7
-9
-11
-13
-13
-13
-15
-13
-11
-13
-11
-9
-7
-9
-9
-9
-9
-9
-9
-11
-13
-11
-11
-11
-11
-9
-9
-7
-6
-6
-4
-5
-5
3
8
8
13
13
19
22
22
20
13
6
2
-2
-5
-7
-7
-9
-11
-11
-9
-6
-7
-11
-13
-13
-11
-7
-9
-6
-4
-1
6
21
37
50
61
82
123
164
197
206
177
95
-13
-96
-132
-140
-126
-88
-46
-14
-2
-2
-2
-2
2
3
3
6
8
6
6
4
8
11
12
9
12
11
13
16
15
16
16
19
20
24
22
24
24
22
24
26
30
33
35
34
39
41
45
50
50
54
56
61
68
72
72
76
81
89
95
102
103
107
113
120
124
128
133
133
130
128
124
119
112
103
94
80
65
56
45
37
30
28
22
19
15
13
9
8
6
6
4
8
8
8
8
3
3
3
3
3
6
8
9
9
9
11
12
12
12
12
12
12
12
12
11
12
11
9
12
13
13
11
8
8
7
8
8
6
6
6
6
3
3
6
6
8
7
3
7
8
6
3
3
6
8
8
8
8
8
6
8
8
8
6
4
8
9
11
8
8
8
8
9
9
9
11
8
8
6
6
7
7
6
8
8
13
15
19
20
19
24
29
30
34
39
42
41
39
34
29
24
20
16
12
9
9
13
12
8
8
6
3
2
3
6
8
9
12
13
16
19
26
45
69
86
115
149
185
211
215
195
141
37
-67
-126
-131
-104
-58
-13
13
20
16
13
12
13
17
19
20
20
22
24
28
26
29
29
28
30
33
34
37
37
38
35
37
39
39
43
41
43
50
52
55
55
51
55
58
60
61
60
69
73
76
81
86
89
97
99
106
112
115
120
125
130
137
145
149
152
155
158
160
160
163
160
154
147
138
130
120
107
95
84
74
67
61
54
50
47
42
39
37
34
37
35
33
30
29
34
34
34
33
30
33
34
34
35
35
35
35
37
37
37
34
37
37
39
43
45
45
39
38
39
37
39
39
39
37
34
33
33
35
35
34
34
35
33
33
30
29
33
33
30
30
29
33
32
30
29
24
24
25
24
25
28
29
30
30
33
32
30
29
29
26
29
26
29
29
33
32
30
28
24
22
22
20
20
25
26
28
24
20
24
22
24
29
33
34
37
37
34
35
39
43
50
42
32
24
22
22
22
22
20
19
17
19
20
19
13
17
19
19
20
24
24
26
33
50
71
86
106
133
169
206
216
206
164
81
-28
-97
-119
-106
-71
-27
8
22
20
16
16
19
20
21
21
24
24
25
26
29
29
29
30
32
34
35
35
35
34
34
37
37
39
41
45
45
45
39
43
45
46
48
47
52
52
55
58
58
61
65
68
73
81
86
90
93
99
106
110
116
121
126
132
138
143
145
145
145
143
134
129
120
111
98
86
72
60
54
46
35
30
26
22
19
13
13
9
11
8
7
8
7
8
8
7
6
3
3
3
6
6
6
3
3
4
4
3
6
6
6
4
6
8
6
6
3
6
6
6
3
3
3
3
3
-1
-1
-2
-1
-1
0
2
-5
-4
-4
-4
-5
-5
-5
-5
-5
-7
-7
-6
-6
-9
-9
-9
-10
-10
-7
-7
-9
-9
-11
-11
-11
-11
-11
-11
-11
-11
-13
-11
-9
-11
-11
-11
-11
-13
-9
-7
-10
-9
-13
-7
-5
-4
-2
-2
3
3
8
12
16
20
17
13
8
3
-4
-7
-9
-11
-13
-13
-17
-18
-19
-18
-19
-18
-19
-19
-19
-18
-14
-15
-14
-11
-5
8
24
38
54
80
123
162
189
185
136
30
-70
-126
-148
-148
-124
-84
-44
-20
-15
-13
-14
-13
-13
-11
-9
-7
-7
-4
-5
-4
-4
-6
-5
-2
-1
3
3
3
2
2
3
4
3
4
3
4
4
8
11
13
17
19
22
24
26
29
29
34
38
41
45
48
54
60
63
71
77
82
86
89
94
98
106
112
116
117
120
123
120
119
113
107
99
87
78
68
59
50
38
34
29
26
21
13
12
4
3
0
-1
2
3
3
2
-1
-1
2
2
2
2
3
3
2
3
2
2
3
3
2
2
3
3
3
4
3
3
3
6
8
6
2
2
2
-1
2
-1
-7
-2
-1
-1
-1
-2
-2
-2
-4
-5
-7
-7
-7
-5
-2
-1
-1
-2
-2
-4
-5
-5
-2
-4
-7
-9
-7
-7
-7
-6
-5
-5
-2
-2
-5
-7
-6
-5
-2
-2
-2
-5
-10
-9
-10
-6
-5
-5
-1
3
2
2
3
8
13
19
22
22
26
25
20
15
9
3
-2
-5
-7
-7
-7
-9
-10
-10
-11
-11
-11
-13
-7
-6
-5
-4
-2
-2
4
15
30
52
71
86
115
154
181
195
185
143
55
-54
-128
-153
-134
-91
-44
-9
4
4
2
-1
-2
0
2
6
9
13
13
9
8
7
6
13
15
16
17
16
16
15
20
22
22
22
24
28
29
28
33
35
39
42
41
45
46
48
50
54
54
55
58
61
71
76
81
86
89
97
107
113
119
123
128
130
137
141
143
143
145
143
143
136
128
119
107
97
86
76
68
55
50
41
37
33
26
25
22
19
16
17
20
19
16
13
13
13
13
12
12
16
19
20
20
20
20
19
19
22
22
24
22
24
26
24
24
20
22
24
24
24
24
21
21
22
22
22
20
24
24
24
22
20
19
20
20
19
16
17
16
16
15
13
12
13
13
13
12
12
12
13
16
12
6
3
6
8
9
9
11
8
8
8
9
9
7
7
6
8
6
8
6
6
3
-1
2
3
7
8
8
8
8
12
13
19
22
25
29
35
39
39
39
30
22
13
8
4
6
8
8
11
8
3
-1
-1
0
-1
3
3
3
2
-1
-2
-4
0
12
29
55
73
93
123
159
186
195
175
111
3
-85
-130
-131
-102
-62
-22
-1
4
-1
-2
0
6
9
12
12
12
12
13
15
16
16
16
16
19
20
20
20
22
21
22
24
24
29
29
28
29
29
33
37
39
39
39
39
45
47
50
54
58
60
63
64
65
71
74
81
86
95
97
102
107
113
119
124
126
132
137
138
139
137
133
126
119
110
102
86
73
64
55
43
37
29
22
19
13
11
8
6
3
2
3
2
3
2
-2
-7
-7
-5
-2
-1
-1
-1
-2
-5
-4
-1
3
-1
-2
-1
-1
-1
-1
0
-2
-2
-7
-2
-2
0
-2
-6
-5
-5
-7
-6
-5
-6
-7
-10
-9
-9
-9
-9
-9
-9
-9
-11
-13
-15
-14
-15
-13
-13
-13
-13
-14
-14
-18
-14
-15
-14
-15
-14
-18
-18
-18
-18
-18
-19
-20
-19
-19
-19
-18
-18
-22
-22
-23
-22
-18
-19
-20
-19
-18
-20
-18
-14
-13
-11
-11
-11
-10
-5
-1
3
8
12
9
6
-1
-6
-11
-15
-18
-18
-19
-22
-23
-23
-23
-26
-27
-26
-23
-26
-23
-23
-23
-22
-22
-18
-13
-1
15
29
45
64
102
141
169
178
152
72
-37
-115
-148
-154
-143
-111
-71
-39
-22
-19
-22
-22
-19
-14
-13
-13
-15
-15
-11
-9
-7
-9
-9
-11
-7
-5
-4
-2
-5
-2
-4
-4
-1
2
3
3
3
6
6
8
11
13
13
16
19
19
22
25
29
30
32
37
42
48
54
58
63
68
71
76
81
87
95
102
107
112
112
115
116
113
116
111
103
95
86
76
61
52
45
37
29
22
16
9
8
3
3
0
-2
-6
-9
-9
-7
-7
-6
-7
-7
-7
-5
-6
-5
-5
-2
-2
-2
-2
-4
-4
-1
-1
-1
-2
-7
-2
-1
-1
-1
-2
-1
2
0
-1
-4
-4
-2
-1
-2
-4
-4
-4
-5
-7
-4
-6
-5
-7
-5
-5
-4
-5
-7
-9
-9
-6
-7
-7
-9
-7
-5
-2
-5
-6
-4
-5
-7
-7
-5
-2
-4
-7
-5
-2
-5
-5
-7
-7
-5
-5
-5
-5
-5
-2
-1
-1
-1
-1
-1
-1
3
6
8
9
13
20
24
26
28
26
24
19
13
8
4
3
3
-2
-1
-2
-2
-5
-7
-9
-6
-6
-7
-7
-9
-7
-9
-7
-5
0
9
26
48
68
90
117
152
181
193
177
112
3
-96
-140
-147
-119
-75
-30
-2
4
-1
-4
-2
0
4
4
6
4
8
9
12
8
9
13
16
19
16
19
20
22
22
20
20
20
22
26
29
30
29
30
33
37
39
45
47
50
50
52
52
55
58
61
65
65
74
78
82
89
95
102
106
112
117
128
130
139
146
149
152
147
145
143
138
136
123
110
99
90
82
74
65
55
50
43
37
34
30
28
28
24
21
19
20
21
21
22
20
19
17
20
22
22
20
19
16
20
24
24
22
22
19
22
24
26
24
22
21
20
20
22
22
22
21
20
21
22
24
22
21
20
20
19
19
19
19
19
16
13
12
13
13
13
13
13
16
19
19
19
15
13
13
16
13
15
12
11
11
9
9
11
11
12
12
9
12
13
13
12
13
13
12
13
12
12
12
13
13
13
9
11
12
13
16
19
19
22
21
20
20
26
33
37
41
45
46
41
30
21
16
13
19
16
13
12
8
8
7
8
8
8
8
8
8
12
12
13
20
29
47
65
81
103
129
164
193
206
198
162
81
-23
-95
-117
-106
-74
-33
2
20
21
16
15
19
17
22
24
24
25
24
29
30
33
33
33
34
34
34
38
37
39
39
41
45
45
45
45
41
41
43
47
50
55
56
60
60
63
64
67
69
72
76
76
77
81
86
97
97
103
107
113
120
120
125
133
138
146
150
154
155
158
155
154
145
136
123
112
103
94
82
72
64
55
50
47
45
39
35
30
29
26
25
24
24
24
24
24
24
22
22
24
24
22
20
24
24
24
24
22
26
28
26
29
29
28
26
26
28
24
26
26
28
24
24
24
22
20
20
19
20
20
19
19
16
16
17
19
16
16
15
19
19
16
13
9
6
8
8
8
11
9
13
12
12
8
8
8
11
9
9
8
8
8
8
6
7
6
6
6
6
6
6
6
8
8
8
4
3
3
4
8
12
13
12
13
13
19
22
28
29
34
34
30
29
26
19
12
6
3
3
2
3
-2
-7
-7
-6
-5
-5
-5
-6
-6
-6
-2
-2
-2
2
8
20
39
55
68
86
120
159
186
194
162
78
-30
-106
-137
-137
-114
-72
-36
-7
2
0
0
-1
3
3
6
8
8
11
12
9
12
12
13
13
15
19
19
19
20
20
19
21
24
28
28
29
29
30
33
35
35
37
38
41
42
46
50
50
50
55
59
61
68
76
76
82
87
94
102
106
110
116
123
126
128
133
137
139
139
138
137
132
128
119
111
98
86
78
68
58
48
41
37
33
30
29
24
22
22
22
21
20
19
16
13
9
16
16
16
16
15
16
16
15
15
13
16
19
19
20
22
25
22
20
19
20
21
20
21
20
19
19
19
19
20
22
20
16
15
13
15
13
16
15
16
13
12
8
9
12
12
11
8
8
9
8
11
8
11
11
9
9
12
11
8
8
9
11
9
8
8
6
6
6
8
6
2
3
3
6
6
3
6
3
8
7
9
9
13
13
19
20
25
29
26
30
33
38
41
37
32
24
16
12
9
9
12
11
12
9
7
4
2
2
3
6
8
8
9
8
6
6
16
30
52
71
86
112
145
178
199
202
180
119
13
-78
-128
-132
-111
-70
-28
-4
8
8
8
12
13
13
13
16
19
20
22
22
24
22
22
20
22
24
26
29
30
29
30
29
30
30
34
37
39
39
41
42
43
45
50
54
54
58
60
60
61
69
68
73
76
81
89
94
98
102
107
115
120
128
134
138
141
145
149
152
152
152
145
138
130
123
112
102
89
78
68
60
54
50
45
41
37
30
24
22
22
22
22
19
19
20
21
20
22
20
19
17
16
19
19
20
22
24
28
28
24
24
24
25
25
28
26
29
30
30
29
26
25
28
26
24
24
24
24
22
20
19
19
21
20
16
20
19
19
16
13
19
19
16
19
19
20
22
22
24
24
22
19
17
19
20
20
19
19
19
20
19
16
13
12
13
15
16
17
19
19
20
20
19
19
20
21
17
22
24
26
26
26
33
37
41
48
52
54
50
39
33
25
21
17
19
19
17
13
12
12
9
9
11
12
11
12
11
9
11
16
16
20
33
54
74
91
107
137
169
195
203
185
124
20
-67
-115
-119
-92
-53
-11
12
20
16
12
12
12
16
17
20
24
25
26
28
29
29
28
29
30
34
34
35
35
34
37
35
41
45
45
45
41
41
43
46
47
46
45
52
58
61
69
77
76
74
71
72
80
86
94
99
103
111
113
119
120
123
128
137
143
147
152
154
155
155
155
152
143
136
124
111
97
86
74
65
60
51
47
42
37
39
34
33
29
22
21
20
19
17
16
16
19
22
25
22
22
22
24
24
24
24
24
22
22
22
24
24
26
26
29
28
21
21
19
16
16
20
22
22
22
21
22
20
19
17
19
16
19
16
13
12
8
9
9
11
9
8
8
6
6
8
8
11
11
8
11
11
8
6
6
8
7
4
2
2
0
3
6
4
3
-2
0
-1
2
-2
-1
3
3
-2
3
3
4
8
6
12
15
20
24
28
29
33
30
28
19
12
7
6
3
2
-2
-6
-9
-11
-10
-11
-13
-13
-11
-13
-11
-7
-7
-5
-5
0
12
29
48
61
74
106
141
175
189
169
102
-7
-93
-130
-139
-128
-97
-57
-18
-1
0
3
2
3
6
8
9
12
13
16
19
19
16
11
9
8
11
12
15
19
19
22
24
24
24
24
24
28
29
33
33
34
34
41
43
42
43
41
46
50
54
58
60
63
67
72
80
86
86
91
95
99
102
111
117
123
128
128
130
133
133
130
123
112
102
91
82
71
58
48
41
34
30
22
11
7
3
3
3
2
4
-1
-2
-5
-2
-2
-2
-1
2
3
3
2
3
3
8
8
11
11
8
8
8
11
12
13
16
16
12
13
12
13
13
13
12
8
7
7
8
11
9
8
6
3
8
8
8
6
7
9
12
11
8
6
3
3
3
3
3
-5
-7
-7
-5
-5
-2
-1
2
3
2
3
3
3
3
7
8
11
12
13
13
13
16
16
19
16
19
19
30
37
39
34
20
12
0
-5
-7
-5
-1
2
2
-1
-4
-7
-7
-5
-2
-1
3
3
-1
-4
-2
3
6
13
24
39
51
71
103
147
185
206
199
158
64
-46
-113
-134
-122
-100
-65
-30
-7
3
3
3
3
2
0
-1
-2
0
3
11
11
8
3
3
8
12
15
13
9
9
13
15
22
29
33
30
35
38
42
45
50
54
51
50
45
41
39
37
35
34
37
50
60
68
78
87
94
102
104
111
115
123
134
143
152
156
159
155
152
145
137
130
123
112
102
95
89
82
72
69
61
55
46
35
28
26
26
28
24
22
20
20
19
24
24
28
26
22
24
24
25
20
9
6
8
16
22
24
24
24
29
30
34
34
34
29
20
19
19
20
20
19
16
16
20
20
20
20
22
25
25
28
28
24
22
24
24
25
26
24
29
26
29
30
29
26
20
13
12
12
13
13
13
12
13
13
19
22
26
29
29
34
34
37
39
41
45
55
60
61
60
58
54
46
41
33
29
25
22
20
19
15
16
13
9
8
6
6
6
6
8
8
12
15
19
22
37
59
82
97
112
141
178
210
221
199
128
20
-70
-109
-114
-100
-63
-18
16
29
29
22
20
20
24
29
33
30
33
29
26
28
30
38
43
41
41
41
45
45
45
46
50
54
58
54
48
48
48
50
55
55
59
64
65
71
74
76
85
89
93
91
89
94
100
110
120
124
130
139
143
143
143
146
154
160
169
175
176
175
169
164
158
147
136
123
111
97
89
81
81
76
71
61
55
52
51
48
43
39
35
34
34
33
34
37
41
45
42
41
41
39
41
43
46
45
37
41
46
47
45
39
43
45
41
38
39
45
46
48
48
48
47
45
48
47
47
45
41
39
38
34
32
30
33
37
38
37
34
33
33
30
30
30
30
33
33
33
29
33
35
35
34
29
28
26
29
29
29
29
29
30
30
29
33
37
41
43
45
41
39
41
45
52
60
63
61
58
52
45
37
33
29
29
29
28
28
26
24
24
22
19
13
12
13
12
13
13
13
13
13
16
19
26
42
61
78
94
120
159
194
211
201
149
51
-48
-104
-119
-109
-80
-43
-9
9
13
9
11
11
12
13
13
17
19
21
22
24
22
19
16
20
24
29
33
30
33
29
29
30
35
38
37
37
39
39
41
39
42
43
45
43
43
50
51
58
60
61
64
67
73
81
86
91
95
97
102
107
116
124
128
130
137
137
138
138
137
138
136
128
120
112
99
86
76
65
60
50
42
37
30
26
26
26
22
20
17
16
13
15
15
13
13
12
9
13
13
16
15
16
16
19
19
19
22
20
19
20
20
16
20
22
22
20
16
16
16
17
19
16
15
17
19
16
15
9
8
9
11
13
16
15
13
9
8
9
11
9
9
9
8
8
6
7
8
6
6
6
4
6
8
3
8
6
4
3
3
4
6
6
6
4
8
9
13
12
11
13
19
26
33
37
37
37
33
29
28
20
13
6
3
4
4
6
3
-1
-2
-1
3
6
4
3
-1
-2
2
6
6
6
4
19
33
50
60
78
111
154
193
220
211
152
46
-52
-97
-117
-117
-92
-54
-15
8
16
13
12
13
19
20
20
22
20
20
22
24
26
25
24
24
28
29
32
34
34
34
38
39
39
37
34
37
42
45
45
46
50
52
58
61
61
64
65
71
74
74
80
82
86
91
95
102
107
112
117
123
128
136
143
147
147
149
151
154
154
147
143
141
133
124
112
97
89
77
71
63
60
55
52
47
41
39
39
41
43
41
39
35
33
37
39
42
42
39
38
38
45
47
46
42
43
47
50
45
39
41
47
54
54
45
34
26
26
29
30
34
35
35
35
34
34
35
37
34
34
35
34
37
37
35
34
34
37
37
43
48
45
30
26
26
29
29
30
29
29
29
29
26
24
24
26
28
29
29
30
33
30
37
35
33
26
24
29
33
33
33
37
43
50
52
55
55
61
65
63
59
55
54
50
37
26
24
24
29
30
33
30
29
29
29
25
24
26
26
25
21
22
24
24
34
54
74
99
126
151
182
211
225
227
195
123
9
-74
-109
-104
-72
-31
6
25
26
26
28
30
34
37
37
37
37
41
45
41
48
50
45
38
38
45
50
51
46
45
45
47
51
55
55
64
67
68
69
61
61
65
71
76
78
78
84
89
89
86
86
94
102
113
119
119
119
120
124
128
136
143
149
155
164
169
169
172
175
175
175
168
162
154
145
136
128
112
97
81
73
72
69
64
60
55
46
41
41
45
50
51
50
52
50
48
47
45
46
50
50
52
52
54
55
54
52
52
55
60
65
60
58
52
52
54
54
50
45
50
54
55
55
51
55
54
56
58
59
61
60
58
51
50
50
47
43
45
50
51
48
42
45
50
54
54
50
45
41
41
38
39
39
43
45
50
55
55
54
50
48
50
48
45
37
33
37
41
43
41
35
37
37
41
45
45
50
55
58
51
46
45
54
61
68
74
76
76
71
64
54
45
39
41
43
50
50
47
37
33
29
29
29
33
38
41
37
29
29
34
45
54
73
86
102
116
145
185
215
227
227
199
128
24
-63
-97
-89
-54
-14
19
29
34
35
37
39
37
35
41
45
47
50
50
56
64
68
61
52
47
50
48
52
55
63
64
58
60
64
65
69
71
71
71
76
82
87
86
78
76
81
90
97
99
102
107
113
120
123
123
130
136
136
138
147
155
163
163
162
168
175
178
185
188
186
182
173
164
158
145
130
117
107
103
89
76
65
65
65
60
51
50
50
54
55
51
47
46
50
51
54
54
50
47
47
51
52
50
47
43
43
47
50
55
54
50
45
43
50
54
50
48
43
41
42
43
55
60
58
47
33
26
30
41
45
42
33
29
29
34
41
43
42
37
30
26
29
34
33
29
29
25
24
25
24
24
20
19
21
24
29
26
29
30
29
26
24
22
29
30
32
30
28
26
29
26
20
13
11
13
16
19
19
22
20
19
17
20
24
29
34
38
45
51
54
55
54
51
42
35
33
34
34
34
35
26
12
-1
-6
-11
-5
-1
-1
-2
0
8
8
11
13
24
41
60
73
94
124
164
202
216
194
123
16
-74
-114
-122
-106
-75
-31
7
20
13
11
16
16
8
-5
-4
8
17
19
13
13
19
35
39
30
13
3
8
17
26
33
29
26
29
35
39
39
37
33
37
42
45
45
43
43
50
52
54
59
64
69
72
76
81
85
94
102
111
112
115
117
124
130
133
136
137
141
147
154
149
141
136
128
120
106
91
81
76
71
63
55
50
41
38
37
39
37
29
26
29
29
22
16
12
13
20
24
25
29
28
29
29
28
26
29
32
35
37
38
34
29
34
34
32
28
22
30
34
35
30
29
30
33
30
24
20
22
24
20
9
8
13
20
24
29
30
30
24
19
19
15
12
-1
-11
-7
3
8
12
9
8
3
-1
-4
2
3
3
0
-2
3
6
8
8
2
-1
-2
2
6
11
9
3
-2
-2
-1
-1
-1
6
13
20
19
19
24
32
35
29
19
16
19
21
19
9
-2
-9
-7
-2
6
9
11
8
0
-5
2
6
3
-2
-5
-7
-11
-9
2
21
48
63
71
86
120
159
184
185
152
71
-32
-109
-147
-150
-130
-88
-46
-14
-2
-2
-5
-5
-1
6
8
6
4
3
3
-1
-4
-5
3
6
8
8
6
6
-1
-1
3
9
15
17
15
13
15
21
24
26
20
16
13
20
30
39
39
30
25
26
35
46
54
61
69
74
80
82
89
93
95
99
107
119
120
121
124
128
133
130
128
116
103
95
82
72
60
48
30
19
13
16
19
13
4
2
3
6
4
3
6
6
-4
-18
-23
-23
-22
-23
-28
-23
-15
-9
-11
-14
-18
-18
-14
-10
-7
-9
-14
-13
-10
-9
-11
-9
-1
-5
-22
-33
-31
-19
-7
-7
-28
-52
-63
-54
-40
-26
-20
-26
-33
-39
-46
-46
-44
-39
-39
-40
-36
-33
-31
-33
-40
-50
-52
-46
-40
-32
-30
-39
-54
-59
-61
-59
-54
-50
-48
-44
-40
-30
-23
-31
-43
-45
-36
-23
-15
-22
-39
-54
-67
-65
-59
-57
-58
-52
-45
-39
-41
-44
-43
-36
-30
-19
-13
-11
-15
-22
-30
-33
-36
-28
-24
-32
-45
-54
-61
-63
-61
-62
-59
-56
-54
-52
-56
-59
-54
-49
-43
-40
-31
-14
6
24
50
85
119
138
137
103
29
-75
-157
-186
-178
-148
-105
-65
-43
-33
-41
-49
-58
-58
-50
-52
-53
-50
-46
-49
-46
-44
-43
-40
-39
-40
-43
-43
-39
-33
-28
-28
-28
-30
-26
-18
-18
-19
-20
-18
-18
-23
-28
-28
-22
-10
-1
4
3
-2
-2
6
11
16
19
22
30
39
46
50
54
52
60
67
74
81
89
86
86
86
82
78
71
64
55
45
33
24
13
7
-1
-7
-18
-28
-39
-43
-44
-44
-39
-43
-44
-46
-48
-52
-50
-50
-49
-48
-49
-50
-54
-54
-52
-52
-50
-50
-46
-44
-45
-45
-49
-53
-50
-50
-49
-48
-50
-50
-49
-50
-50
-50
-50
-52
-50
-50
-54
-56
-54
-54
-54
-54
-54
-57
-59
-59
-58
-59
-61
-61
-61
-59
-58
-56
-61
-61
-63
-63
-63
-62
-63
-61
-59
-57
-54
-59
-63
-69
-67
-65
-65
-63
-63
-63
-63
-65
-65
-67
-71
-70
-70
-67
-65
-65
-63
-65
-61
-59
-59
-59
-59
-59
-54
-50
-46
-41
-37
-30
-26
-26
-30
-39
-48
-53
-56
-59
-65
-70
-70
-71
-72
-74
-72
-71
-70
-70
-67
-65
-63
-61
-61
-61
-59
-52
-40
-23
-11
3
19
47
82
112
123
104
37
-65
-144
-179
-192
-184
-157
-113
-78
-63
-58
-59
-59
-59
-57
-58
-52
-50
-48
-46
-48
-48
-50
-50
-46
-44
-39
-39
-36
-36
-39
-39
-43
-40
-39
-36
-36
-33
-31
-28
-26
-23
-23
-23
-19
-18
-15
-13
-9
-5
-2
3
8
9
12
13
16
20
30
35
41
45
46
55
61
65
72
76
81
82
80
76
71
61
56
51
41
29
16
4
-1
-5
-10
-18
-26
-30
-32
-28
-28
-31
-33
-39
-39
-36
-33
-33
-33
-33
-33
-32
-31
-30
-27
-27
-31
-30
-32
-31
-30
-30
-28
-31
-31
-28
-26
-23
-26
-23
-23
-23
-26
-28
-28
-30
-30
-30
-28
-28
-28
-28
-28
-28
-26
-24
-26
-28
-31
-36
-33
-31
-28
-26
-28
-30
-31
-30
-31
-28
-26
-27
-28
-31
-30
-28
-28
-30
-30
-28
-26
-23
-18
-22
-28
-32
-31
-32
-33
-37
-36
-32
-28
-23
-22
-22
-20
-18
-19
-17
-13
-5
3
6
8
8
6
-1
-7
-14
-23
-23
-23
-22
-22
-23
-22
-28
-31
-33
-33
-32
-30
-30
-28
-28
-26
-23
-23
-18
-5
13
33
47
64
91
128
160
175
162
104
3
-101
-152
-163
-148
-113
-70
-39
-22
-19
-18
-15
-13
-13
-13
-15
-18
-13
-9
-6
-4
-4
-1
-2
-4
-2
-1
-1
-5
-5
-6
-4
-1
3
6
8
8
11
12
12
13
16
20
24
29
33
35
33
33
35
39
45
54
61
65
65
65
72
81
82
91
97
103
112
117
123
128
132
133
128
120
116
112
102
91
80
68
58
47
38
33
29
24
20
12
8
8
6
6
3
7
7
8
6
4
4
8
9
9
13
9
11
9
8
3
3
8
9
9
11
12
13
12
12
12
12
12
12
12
13
13
12
9
13
15
15
13
16
16
16
13
13
13
13
16
17
16
13
12
13
16
16
16
17
19
19
16
9
13
12
11
9
8
11
9
12
16
16
13
12
9
11
13
13
15
15
16
16
16
19
19
19
19
16
16
17
19
22
26
29
30
35
39
45
48
50
52
50
43
30
29
24
21
20
19
21
21
19
16
13
16
16
19
19
19
20
19
17
20
22
30
45
65
86
106
129
162
189
206
206
178
111
7
-79
-114
-110
-75
-33
8
29
30
25
26
28
24
25
26
34
37
37
34
37
39
41
39
38
38
37
41
45
45
50
52
54
55
56
60
58
55
54
55
60
65
68
68
65
64
67
68
72
77
80
85
89
94
97
97
103
112
116
121
128
137
145
145
149
152
158
162
168
172
177
175
169
162
152
141
130
119
108
99
91
82
76
68
65
60
56
54
52
48
45
45
45
43
43
43
45
42
41
39
45
47
50
45
41
45
45
47
45
46
50
48
47
48
50
50
50
48
43
45
45
48
50
47
45
39
38
39
39
43
43
41
45
41
37
35
35
35
34
34
35
35
34
33
33
33
33
34
33
30
29
29
30
32
29
26
24
26
29
29
29
25
24
26
28
30
32
30
29
29
25
25
28
29
30
30
29
29
29
30
29
33
34
39
45
48
50
54
54
58
54
48
41
32
30
26
29
29
29
25
20
15
13
16
19
21
20
22
22
22
22
24
28
37
50
65
81
91
108
143
180
207
219
195
125
20
-61
-97
-105
-85
-46
-7
20
30
29
24
28
29
33
34
35
39
41
43
45
45
45
47
47
50
50
50
51
51
54
55
54
55
56
58
58
54
50
54
58
61
67
71
71
68
69
72
77
81
86
89
95
99
97
103
111
116
124
128
128
130
138
143
147
151
158
160
164
164
159
155
152
141
130
123
112
102
89
76
69
60
54
52
48
45
45
45
45
41
38
39
38
38
39
33
37
41
43
43
39
39
34
35
41
43
42
41
41
43
43
45
45
46
45
43
45
43
42
41
39
41
42
41
39
39
38
39
41
39
41
39
38
38
37
39
37
33
34
38
37
39
35
37
37
34
37
39
39
38
34
29
28
26
25
29
30
30
34
34
35
33
34
33
33
33
30
29
28
26
34
39
41
41
39
39
39
43
47
51
55
60
63
68
71
61
54
43
37
30
34
37
38
35
29
26
25
26
29
29
30
29
25
22
22
22
24
26
37
55
76
94
111
137
175
211
227
221
180
82
-22
-88
-106
-101
-71
-30
4
26
29
26
24
24
29
34
37
39
41
45
45
50
50
52
54
54
52
52
50
47
45
45
50
54
55
58
60
63
61
64
60
61
64
65
71
72
72
72
74
81
86
89
93
97
106
116
116
121
126
126
130
137
147
155
159
164
162
160
162
165
165
164
163
159
150
137
123
107
95
86
71
60
54
52
54
55
54
47
42
41
45
43
45
45
45
39
34
30
35
35
32
29
24
29
34
39
41
41
41
41
45
43
43
42
41
41
43
45
45
39
43
45
45
41
34
26
24
26
30
33
33
33
34
35
38
37
34
34
35
34
39
39
37
33
25
26
29
26
26
29
35
35
29
22
20
21
26
33
35
33
29
26
25
24
25
29
34
41
41
34
22
13
16
19
24
29
35
34
33
34
34
39
41
46
51
55
55
60
55
50
39
30
29
29
28
32
30
26
20
19
21
20
19
20
25
26
22
21
22
29
39
60
82
99
115
141
175
206
216
210
175
91
-13
-89
-113
-97
-63
-23
4
22
24
28
33
33
37
34
35
34
33
35
37
43
47
51
51
47
39
37
37
39
41
45
50
54
58
60
61
64
61
61
61
64
67
71
78
78
72
69
68
71
78
81
91
95
97
102
99
107
113
123
130
136
141
145
147
149
155
164
169
172
175
175
169
154
141
126
120
113
106
97
86
81
72
65
61
60
58
52
46
45
50
50
50
43
39
45
46
43
45
43
50
52
47
50
48
48
47
45
43
45
45
45
45
45
45
47
48
43
41
39
43
43
47
50
46
43
39
39
41
43
45
39
38
37
37
37
37
37
37
34
34
34
30
29
22
24
24
26
26
29
28
24
22
22
24
29
30
29
20
17
19
24
29
29
29
24
20
16
13
16
19
20
22
21
20
20
25
26
29
32
34
37
45
45
46
48
45
45
39
34
29
24
24
19
16
16
15
13
11
13
13
13
16
19
19
13
12
12
16
22
29
39
52
64
72
91
128
169
199
211
185
111
3
-75
-106
-111
-96
-61
-23
9
19
19
13
13
21
24
26
28
29
30
33
30
29
28
30
33
33
37
39
39
41
39
38
41
45
47
48
45
45
46
50
54
54
55
59
63
64
63
65
71
78
78
81
81
86
94
97
104
112
115
115
116
123
130
137
141
143
146
152
154
154
149
143
130
123
112
102
90
81
74
65
61
55
50
43
42
41
41
37
30
29
30
33
37
37
37
34
29
29
29
32
34
37
39
37
34
35
37
41
43
41
38
37
34
37
39
37
39
39
43
43
41
39
34
34
39
39
39
39
39
37
34
34
34
35
34
34
35
33
30
33
33
30
30
29
30
29
30
30
30
30
30
32
30
30
30
33
32
30
28
25
24
26
29
33
34
30
29
29
30
30
33
34
34
37
39
39
39
45
50
58
68
69
65
58
50
37
35
33
30
30
33
34
34
30
24
20
20
22
24
24
26
29
30
29
29
30
39
55
76
94
107
133
171
207
228
225
180
81
-30
-95
-113
-101
-65
-23
13
26
29
24
29
30
35
34
34
35
35
39
41
41
41
43
47
45
45
47
50
52
52
55
59
60
63
65
64
64
64
65
65
64
67
68
68
71
71
76
81
86
91
94
97
103
103
111
119
124
133
130
136
138
143
154
160
168
169
165
169
169
165
160
154
143
136
125
116
106
97
89
81
76
68
63
54
50
48
48
50
50
48
50
48
47
46
43
43
45
47
46
41
41
39
42
43
41
43
47
52
52
50
51
51
55
55
51
50
47
50
50
45
45
46
50
50
50
45
42
46
48
45
39
39
39
41
42
41
39
38
38
41
45
41
43
43
41
38
30
37
45
48
50
48
50
43
34
33
37
41
38
29
16
12
19
26
35
37
37
33
30
33
30
30
33
37
38
38
39
41
46
50
50
50
50
47
54
55
55
48
37
37
34
33
33
34
37
34
33
28
24
22
22
22
24
29
28
24
24
22
29
38
54
74
95
113
143
178
210
221
211
160
63
-40
-98
-111
-85
-44
-4
20
29
26
19
22
22
24
29
33
35
34
37
37
37
39
42
47
52
50
43
37
33
33
34
39
45
48
54
58
60
58
58
60
61
58
52
55
58
60
61
68
72
78
80
82
89
91
99
103
111
120
124
128
130
130
133
137
143
147
149
151
154
152
145
138
128
120
111
99
86
71
56
48
45
41
39
37
35
37
35
29
22
16
16
19
22
22
19
20
20
22
22
22
22
20
20
25
28
24
21
19
19
19
19
20
20
21
20
19
20
22
22
22
22
22
21
20
19
19
16
17
11
8
8
12
12
12
13
13
13
11
8
6
3
-1
2
3
6
8
8
9
11
8
7
7
8
8
6
0
-1
3
6
3
2
-4
-9
-11
-10
-7
-1
2
3
-1
-1
-1
-1
-1
-1
6
11
13
13
15
19
16
13
15
22
24
24
16
7
3
-2
-7
-9
-9
-7
-9
-9
-9
-13
-18
-18
-13
-11
-9
-10
-7
-4
-1
2
6
17
34
52
68
95
136
169
185
178
121
16
-80
-130
-147
-139
-111
-65
-28
-9
-2
-5
-7
-6
-9
-6
-1
3
8
8
6
3
2
3
6
8
12
13
12
9
9
12
12
12
13
16
17
20
19
20
20
22
24
30
38
41
45
41
39
39
43
50
54
54
63
68
72
77
82
86
91
99
107
116
120
123
128
128
128
128
123
115
111
102
97
86
72
60
50
41
33
28
24
22
19
16
9
4
6
8
12
9
3
-5
-9
-7
-2
-1
0
-2
-1
3
4
4
6
6
6
3
6
8
12
15
16
11
4
3
3
3
2
0
3
3
4
4
3
3
3
4
6
6
6
3
3
3
6
6
-1
-9
-7
-4
-1
3
2
3
3
-2
-4
-4
-1
-1
-1
0
3
3
2
-1
3
3
3
3
3
-2
-2
-1
0
3
2
3
8
11
9
8
6
6
8
7
7
11
12
17
22
26
29
33
29
30
24
20
15
11
9
8
8
6
2
2
2
-1
0
-1
0
-1
-1
-1
2
-1
0
4
12
24
41
63
81
97
128
165
197
211
195
138
34
-70
-123
-131
-109
-67
-26
4
12
8
6
3
11
13
16
17
16
16
20
24
26
28
26
26
26
29
30
29
33
33
33
32
33
35
41
42
45
47
48
51
52
54
58
60
64
65
71
71
76
78
81
82
85
91
97
106
113
119
124
128
133
138
143
147
149
152
154
158
158
155
152
143
136
123
112
102
86
76
65
58
54
50
45
41
34
33
32
32
34
30
30
33
34
37
34
33
32
32
29
29
30
33
33
32
29
29
29
33
34
37
38
39
43
45
41
39
39
37
38
38
42
41
39
42
39
35
32
33
34
37
37
33
33
30
33
34
34
30
33
30
30
29
29
34
37
41
41
34
29
28
29
33
34
33
29
25
26
29
29
29
30
30
33
32
29
28
26
25
26
24
32
34
37
35
33
30
33
35
37
41
45
47
51
55
55
61
60
51
43
33
30
29
29
29
30
29
26
22
20
19
19
19
19
20
24
22
22
22
26
33
41
56
76
97
116
138
169
197
211
206
164
80
-18
-80
-96
-80
-49
-10
19
28
25
22
25
22
21
22
26
34
37
37
34
35
38
38
37
37
37
39
43
48
46
43
43
45
50
54
55
54
51
54
54
54
55
59
61
65
67
68
74
74
76
81
86
95
95
97
103
112
120
124
130
137
141
147
150
155
159
162
163
163
162
158
152
143
128
116
106
95
85
78
68
61
55
54
50
45
43
41
39
35
32
29
29
28
30
29
33
30
30
29
26
29
29
30
29
29
29
30
34
37
33
29
29
29
32
33
29
29
28
26
26
28
26
29
28
24
24
24
21
20
20
21
21
17
13
9
9
8
13
15
13
12
9
12
12
13
13
13
9
8
8
9
9
8
3
-1
-1
-1
2
3
6
6
6
6
6
6
3
3
3
-1
-1
0
3
6
6
2
2
3
3
6
9
12
12
12
13
22
29
35
33
28
21
17
13
4
-2
-6
-6
-4
-2
-5
-7
-5
-7
-7
-9
-11
-11
-7
-7
-6
-7
-4
2
12
29
46
60
72
95
133
171
193
195
154
60
-46
-114
-132
-127
-111
-78
-43
-13
-4
-2
-2
-2
-2
-6
-4
-1
3
6
8
9
8
7
4
6
8
9
13
20
20
19
16
12
11
11
13
16
22
26
29
24
22
24
25
26
33
35
37
41
41
50
54
60
60
60
64
68
74
80
85
93
97
102
104
111
113
120
123
128
128
128
124
115
106
97
89
81
69
56
46
39
30
24
20
16
13
13
12
9
3
2
-1
3
3
3
3
-1
-2
-2
-1
2
4
8
6
6
6
6
6
6
3
3
3
6
8
8
6
3
6
8
12
11
6
0
2
-2
-2
-2
0
6
11
9
4
-1
-5
-1
0
2
-2
-7
-5
-2
-1
-1
-1
-2
-2
-1
3
2
3
3
2
2
-1
-1
-1
-2
-1
-1
2
3
3
4
3
2
3
-1
0
3
6
8
8
3
-1
-1
0
8
11
12
15
16
24
30
34
29
20
9
4
2
-1
-1
-1
-2
-2
-5
-7
-7
-6
-7
-9
-9
-9
-6
-2
-5
-7
-5
-5
8
24
48
64
81
111
149
182
193
169
91
-22
-106
-137
-136
-108
-70
-30
-7
-2
-4
-6
-5
-1
2
3
3
7
8
11
12
13
13
16
13
9
9
12
15
16
15
12
8
6
8
12
13
17
26
37
39
41
43
45
45
45
43
52
55
56
55
54
60
63
71
78
86
93
97
95
94
97
102
106
110
115
119
124
128
128
123
113
107
102
91
80
69
60
54
45
37
29
24
20
16
13
9
6
2
3
4
6
4
2
3
3
3
6
6
6
2
2
2
2
-1
-2
2
3
4
4
6
7
8
8
8
8
8
8
8
8
8
8
8
6
6
8
9
8
7
8
9
11
3
-4
-10
-13
-11
-9
-7
-6
-6
-5
-2
-2
-1
-1
0
-1
-4
-7
-6
-5
-5
-2
-5
-5
-5
-4
-7
-9
-9
-6
-2
-5
-9
-13
-11
-9
-9
-9
-7
-5
-2
-1
2
3
7
4
9
12
13
16
20
28
29
30
24
16
8
-1
-5
-5
-1
-1
-5
-9
-13
-11
-11
-9
-9
-7
-7
-6
-5
-4
-4
3
7
9
22
37
55
76
106
147
182
195
180
128
29
-67
-119
-130
-111
-75
-36
-9
3
3
3
3
-1
0
3
7
6
2
3
3
6
8
12
12
12
8
7
12
13
17
22
22
24
24
26
24
24
25
26
30
30
33
34
35
39
42
43
52
55
60
64
61
65
71
72
80
86
91
95
97
103
111
116
123
128
130
133
137
138
138
136
128
123
116
110
97
82
68
59
46
37
30
29
29
24
22
19
13
6
8
11
12
9
9
16
15
13
9
8
11
13
13
12
12
13
17
16
16
13
13
16
16
15
15
15
19
22
22
20
16
13
13
13
11
8
9
13
13
13
11
12
12
12
12
9
3
7
8
8
11
6
4
3
3
3
3
6
7
8
4
2
-4
-5
-5
-2
-1
-1
-1
-2
-1
-1
0
2
3
2
-2
-2
-2
-1
2
6
3
2
-2
-5
-2
3
-1
3
3
3
3
7
16
20
22
26
29
26
20
12
3
-2
-2
2
-1
-2
-4
-9
-11
-11
-13
-11
-13
-14
-18
-15
-13
-10
-10
-11
-9
3
20
45
61
76
95
128
165
181
180
146
65
-44
-115
-139
-132
-105
-67
-33
-13
-9
-11
-11
-10
-9
-10
-7
-2
-1
2
2
3
3
2
2
3
3
3
3
3
8
8
12
12
12
12
13
13
16
20
24
28
29
29
24
29
32
39
43
43
43
42
43
47
52
58
61
65
74
82
89
95
102
104
111
113
120
128
133
136
137
133
128
120
111
103
95
86
72
59
50
45
37
32
29
28
22
20
16
8
3
2
6
6
4
3
3
6
8
12
12
8
6
7
8
6
6
8
12
13
16
16
16
13
9
8
8
7
6
9
11
13
13
13
9
11
8
9
8
11
8
8
6
3
3
6
4
3
3
3
6
4
2
2
-1
-1
-1
2
4
6
6
6
3
3
4
2
-1
-2
-1
0
2
3
-1
-1
-2
3
2
2
3
3
3
2
2
3
4
3
8
12
16
20
20
22
26
29
35
33
30
25
22
19
13
13
11
11
8
4
3
3
4
4
3
-1
-1
-1
0
3
4
7
8
13
28
43
60
74
91
123
164
199
215
199
128
22
-70
-109
-123
-113
-78
-33
-2
11
9
9
9
13
16
16
13
13
17
19
22
22
22
22
24
28
28
25
24
22
29
33
38
37
33
30
30
33
37
39
41
42
45
47
45
52
55
55
58
58
63
67
72
78
81
86
91
95
99
107
116
123
123
123
124
130
137
141
143
145
145
141
133
124
115
107
102
94
86
74
65
56
50
42
41
37
34
34
33
28
24
21
26
29
32
33
30
24
22
26
29
33
34
33
29
29
29
29
30
35
35
34
34
34
32
30
33
30
34
34
38
35
30
29
26
29
30
30
28
29
25
24
24
22
26
26
29
28
25
29
30
32
33
30
29
24
20
20
22
22
24
24
26
25
26
29
29
28
24
24
22
24
24
26
29
29
26
26
28
28
24
24
24
24
28
25
30
35
38
41
39
45
46
50
54
55
55
50
45
37
33
29
29
29
29
29
28
24
21
19
19
22
22
21
21
20
19
16
20
28
42
60
81
97
119
149
186
216
221
203
152
58
-43
-91
-101
-80
-50
-13
13
24
24
24
24
29
33
33
34
35
34
37
37
37
37
34
34
37
39
41
41
41
43
43
45
45
46
50
51
54
54
51
54
58
60
60
58
64
68
71
74
80
81
86
89
94
97
102
106
112
120
128
129
128
129
136
143
152
155
158
159
164
164
162
158
152
143
133
120
111
97
86
76
71
64
60
58
51
45
46
45
45
42
34
39
39
38
34
30
29
24
25
28
33
35
37
37
37
35
34
37
37
37
34
35
35
35
35
37
33
32
33
33
32
32
33
30
30
33
33
30
34
33
34
30
28
24
24
24
24
24
22
22
20
22
24
22
22
24
25
25
22
20
20
20
20
21
21
22
22
20
19
16
20
19
19
19
20
22
24
24
20
17
13
12
11
8
7
13
20
22
26
29
29
34
34
39
41
45
43
41
35
29
21
19
13
13
16
15
12
9
7
6
6
4
8
9
11
9
8
4
3
6
8
19
33
54
72
94
128
160
186
195
181
133
37
-57
-109
-119
-101
-65
-30
-4
4
3
3
4
6
6
9
12
13
13
13
13
15
19
19
13
13
13
19
20
20
20
13
9
9
13
19
19
17
22
24
26
29
26
29
30
33
37
39
42
43
47
50
50
56
63
65
71
76
78
86
93
102
104
107
111
119
128
133
137
138
141
138
137
128
119
107
94
78
65
55
45
39
33
28
13
8
3
-1
0
-2
-2
-2
-1
-1
-1
-2
-2
-2
-2
-2
-2
-2
-2
-2
-2
-1
-1
-1
-1
2
3
3
3
2
-2
-4
-2
-4
-2
-2
-2
-2
-5
-5
-5
-7
-9
-7
-7
-7
-6
-11
-9
-7
-5
-5
-9
-9
-7
-5
-7
-7
-9
-10
-11
-11
-13
-14
-13
-15
-13
-11
-11
-13
-13
-13
-14
-15
-15
-14
-15
-13
-11
-13
-18
-18
-19
-18
-18
-15
-14
-14
-14
-18
-13
-13
-11
-11
-9
-6
-2
3
9
11
9
3
-2
-6
-11
-14
-15
-14
-18
-19
-23
-26
-23
-23
-23
-23
-26
-26
-27
-26
-23
-20
-22
-22
-18
-9
6
21
33
45
71
113
151
173
171
123
20
-71
-122
-143
-144
-126
-91
-54
-30
-22
-20
-19
-18
-17
-14
-14
-15
-14
-13
-11
-13
-13
-13
-13
-11
-9
-6
-6
-9
-7
-7
-5
-1
0
2
-1
-1
-2
2
3
6
7
6
11
9
13
15
19
20
24
26
29
30
37
41
45
50
55
61
64
65
68
72
81
86
91
94
95
97
98
99
97
91
86
78
71
60
50
39
30
24
17
12
6
-1
-2
-5
-11
-13
-14
-14
-14
-18
-18
-18
-18
-18
-17
-13
-13
-17
-18
-18
-14
-13
-13
-14
-14
-14
-15
-13
-13
-13
-15
-14
-14
-14
-15
-14
-18
-18
-18
-18
-18
-19
-19
-20
-18
-14
-15
-18
-23
-23
-23
-19
-18
-18
-18
-18
-19
-22
-22
-22
-20
-19
-20
-22
-22
-20
-19
-23
-22
-20
-22
-19
-19
-22
-23
-23
-22
-22
-22
-23
-22
-23
-24
-23
-23
-26
-22
-22
-22
-22
-23
-18
-13
-10
-9
-11
-11
-7
-2
4
6
2
-5
-11
-17
-22
-23
-23
-22
-22
-20
-23
-26
-24
-24
-23
-23
-26
-23
-23
-23
-22
-18
-13
-6
6
22
43
55
71
97
133
162
169
152
95
3
-91
-134
-137
-117
-84
-49
-26
-18
-18
-18
-19
-18
-18
-18
-18
-13
-13
-10
-9
-9
-9
-7
-5
-5
-4
-4
-2
-1
0
2
-1
-1
-1
-1
2
2
4
3
9
12
13
17
16
20
22
24
24
28
29
33
39
41
43
47
50
52
55
63
68
72
76
82
87
95
100
104
111
111
112
111
107
102
93
86
78
65
54
43
34
21
19
12
6
2
-2
-1
-2
-6
-7
-7
-9
-7
-6
-7
-7
-9
-9
-7
-9
-9
-9
-11
-11
-13
-13
-11
-9
-9
-7
-7
-5
-7
-5
-2
-2
-2
-2
-2
-1
-1
0
0
-1
-1
-1
-2
-5
-2
-5
-4
-2
-4
-2
-4
-4
-6
-7
-9
-9
-6
-5
-2
-2
-6
-9
-9
-9
-9
-7
-9
-9
-7
-7
-7
-5
-5
-7
-6
-5
-6
-9
-9
-10
-6
-7
-7
-7
-9
-11
-6
-7
-6
-7
-7
-1
3
3
3
3
3
3
6
9
13
16
19
20
20
19
13
9
4
3
2
-1
-5
-9
-14
-15
-14
-13
-14
-14
-14
-14
-14
-14
-13
-11
-9
-2
8
22
37
50
60
86
119
152
175
169
138
64
-33
-101
-123
-115
-84
-50
-20
-6
-5
-9
-7
-2
3
4
4
6
3
3
2
2
4
8
12
13
12
6
2
3
3
8
8
11
11
8
3
8
11
12
13
13
13
13
16
19
24
28
29
33
33
33
37
39
47
55
65
65
61
60
68
76
82
86
90
97
102
103
103
104
107
111
108
107
102
97
89
81
71
54
35
26
24
24
21
12
3
-6
-13
-14
-18
-14
-11
-9
-9
-13
-18
-19
-20
-22
-19
-18
-13
-11
-9
-9
-9
-13
-20
-28
-30
-28
-22
-15
-11
-10
-13
-13
-11
-18
-24
-26
-23
-23
-20
-18
-15
-18
-22
-23
-22
-18
-13
-13
-18
-20
-20
-18
-14
-14
-15
-18
-22
-23
-23
-22
-22
-18
-17
-15
-18
-18
-22
-23
-26
-26
-26
-19
-19
-22
-23
-23
-22
-22
-20
-18
-18
-18
-19
-23
-23
-22
-20
-18
-14
-14
-13
-9
-9
-5
-4
-1
3
9
15
13
12
6
-7
-14
-19
-18
-18
-18
-19
-20
-22
-20
-18
-18
-23
-22
-22
-22
-20
-19
-19
-18
-14
-7
11
24
37
47
63
102
146
181
195
165
86
-13
-80
-113
-126
-119
-95
-58
-28
-13
-11
-9
-7
-5
-6
-5
-4
-1
3
2
-1
-2
3
8
9
11
11
9
8
11
12
12
12
13
15
19
17
22
24
26
24
24
29
33
34
35
37
39
39
45
50
51
55
55
56
63
68
74
78
82
86
93
103
111
112
116
119
124
123
128
126
126
123
116
107
97
90
82
77
61
52
47
41
35
34
29
24
20
19
19
20
20
19
19
19
19
19
20
20
20
20
22
22
22
22
21
22
22
24
24
26
28
25
25
24
24
24
24
24
22
20
22
20
20
20
20
22
21
20
19
16
19
20
21
22
22
21
22
21
20
20
19
22
22
24
24
22
24
24
24
24
20
19
22
21
22
22
21
20
19
17
19
20
20
24
26
29
26
34
34
39
43
43
51
55
63
64
58
54
48
43
39
34
30
29
26
28
26
25
24
22
20
20
20
20
20
21
24
28
29
30
34
45
58
76
87
102
128
165
207
232
241
215
137
24
-50
-84
-95
-80
-45
-7
25
35
37
34
37
39
43
43
47
47
46
50
50
48
50
50
50
50
52
54
55
58
60
59
60
61
63
65
65
69
72
71
76
77
81
82
81
86
86
91
94
94
97
102
103
107
112
117
124
128
133
138
143
149
152
158
164
169
172
175
177
178
178
180
176
169
159
143
136
123
112
106
98
93
86
78
73
77
71
67
64
60
59
63
65
65
65
61
61
61
64
64
64
61
61
61
60
61
63
65
65
65
65
65
68
65
68
65
68
69
65
67
65
69
68
67
68
65
63
59
64
65
64
65
61
65
63
60
60
60
63
61
61
63
60
58
58
58
58
56
55
52
55
58
58
58
58
59
58
59
58
55
58
60
60
61
64
65
68
68
71
77
80
86
91
94
97
91
86
81
80
77
72
71
67
65
64
60
55
51
52
52
52
50
51
50
51
51
52
52
51
54
58
69
86
104
120
139
175
216
247
253
217
130
22
-53
-80
-78
-56
-19
20
46
54
50
50
50
52
54
55
58
60
61
61
60
60
60
61
63
64
63
63
61
64
65
68
69
71
72
74
76
76
77
78
78
81
81
85
89
91
94
97
95
95
98
103
112
116
119
120
124
128
136
141
147
154
158
163
167
169
175
177
176
178
178
177
171
163
151
138
128
116
107
98
91
86
78
73
71
63
60
58
55
55
55
55
55
55
54
54
51
52
52
48
50
54
55
54
52
51
51
55
55
55
54
52
54
55
55
54
54
54
52
52
51
51
52
52
51
51
52
50
50
48
47
48
46
45
45
43
39
43
45
45
45
45
45
43
42
43
45
42
39
39
38
39
41
46
50
51
51
54
55
58
63
65
71
76
78
76
71
65
60
55
52
50
46
45
41
39
37
33
30
30
30
30
29
24
26
26
28
26
29
33
37
43
55
74
91
107
128
159
194
216
219
197
138
43
-46
-96
-106
-84
-45
-5
22
33
30
29
29
29
30
33
35
37
39
35
35
35
37
34
38
39
41
45
41
45
43
43
45
43
46
48
52
54
54
55
55
58
59
64
64
63
64
68
71
74
80
82
86
89
94
99
103
107
112
119
124
130
137
139
145
152
154
158
160
160
158
150
143
136
128
117
106
95
86
76
71
60
54
50
45
41
41
37
35
33
33
29
29
26
29
30
29
29
29
29
28
26
29
28
29
30
33
30
30
30
30
29
24
29
30
32
33
30
30
29
30
30
29
29
24
29
29
29
29
26
25
24
25
22
21
20
20
21
21
22
22
20
20
19
20
19
19
19
19
19
19
19
20
22
22
26
29
30
29
29
30
37
43
48
52
52
50
42
39
33
29
24
20
16
19
16
12
6
3
2
2
2
2
2
3
3
4
6
3
7
8
13
24
42
61
80
102
128
162
186
194
176
119
22
-74
-123
-130
-106
-67
-28
-2
6
3
2
2
3
11
12
11
9
11
12
13
12
12
12
15
16
16
20
21
21
19
20
22
24
28
26
29
30
35
35
33
29
35
37
39
41
45
47
50
54
55
58
63
64
67
72
80
86
93
97
103
106
107
111
116
130
137
136
128
123
124
120
117
110
99
86
76
71
71
61
47
34
28
19
19
11
3
-2
-7
-5
-5
-2
-1
2
3
3
2
2
3
6
7
6
7
8
9
11
11
9
12
13
12
8
4
2
3
3
-1
2
4
9
12
6
0
-1
2
0
6
6
6
6
4
6
2
-1
2
3
4
2
-2
-2
-2
-2
-4
-7
-6
-5
-5
-6
-7
-7
-6
-6
-7
-6
-5
-5
-2
0
4
6
6
2
3
6
13
22
28
34
33
26
19
9
2
3
3
-1
-7
-18
-18
-18
-18
-18
-19
-19
-18
-13
-5
-9
-20
-28
-30
-28
-20
-13
-6
3
19
37
52
68
95
130
160
173
159
106
8
-89
-136
-140
-130
-97
-61
-30
-18
-20
-24
-22
-19
-14
-13
-13
-13
-13
-11
-7
-2
-1
-1
-1
-1
0
-2
-5
-6
-10
-9
-5
0
3
2
2
3
4
7
4
4
6
8
13
16
19
20
19
19
20
22
26
33
39
45
48
55
58
64
71
81
86
91
90
86
86
89
95
99
102
102
97
89
81
71
60
47
39
32
26
22
12
3
2
3
2
-2
-11
-18
-18
-18
-18
-14
-14
-15
-18
-18
-22
-17
-15
-13
-11
-13
-9
-9
-9
-7
-9
-11
-11
-9
-9
-9
-9
-7
-7
-9
-11
-11
-9
-6
-7
-7
-9
-10
-11
-11
-11
-11
-13
-13
-13
-13
-9
-5
-4
-2
-5
-7
-15
-11
-11
-10
-15
-19
-14
-13
-6
-9
-13
-15
-13
-7
3
8
6
3
3
2
-1
3
13
16
12
3
2
3
-2
-13
-22
-28
-28
-26
-28
-31
-36
-36
-36
-36
-37
-39
-39
-40
-40
-43
-39
-33
-28
-28
-23
-10
8
29
54
81
113
136
138
116
55
-39
-123
-158
-156
-136
-104
-67
-40
-31
-36
-39
-36
-32
-28
-28
-27
-23
-18
-13
-9
-6
-6
-4
-4
-5
-7
-7
-7
-9
-7
-1
3
8
3
6
8
8
8
3
-2
-2
0
2
3
3
6
9
16
22
25
25
21
22
24
29
34
41
47
54
58
61
65
71
76
81
86
94
97
97
95
89
74
64
58
51
45
41
26
13
3
-2
-11
-18
-18
-18
-22
-27
-33
-33
-32
-30
-30
-31
-32
-33
-31
-31
-30
-28
-26
-22
-22
-23
-24
-28
-28
-23
-18
-14
-14
-15
-11
-5
-6
-7
-13
-18
-18
-13
-10
-9
-11
-15
-13
-11
-11
-9
-11
-13
-13
-10
-7
-9
-13
-15
-13
-11
-7
-9
-10
-11
-11
-9
-11
-13
-14
-15
-13
-13
-13
-13
-13
-13
-11
-7
-5
-2
0
3
6
8
8
12
19
20
29
29
30
29
28
24
19
11
6
3
6
6
6
4
3
-1
-4
-7
-6
-5
-5
-4
-1
-1
-2
-2
0
3
8
13
22
35
52
67
81
103
141
169
186
182
147
72
-28
-95
-119
-113
-85
-50
-13
9
16
11
8
8
9
12
13
16
20
22
25
26
28
28
28
26
29
30
32
34
37
37
35
39
43
45
45
43
45
48
48
51
51
52
56
59
64
65
71
71
74
77
81
86
86
91
95
100
106
112
116
120
126
136
143
145
146
147
152
154
155
154
152
146
138
130
124
115
103
91
82
76
71
64
58
50
50
45
42
39
34
37
35
34
34
35
37
39
41
39
41
42
45
45
41
41
39
41
45
43
45
45
46
47
50
48
45
42
45
45
46
46
48
48
47
45
45
45
43
45
46
45
39
43
43
45
45
43
45
45
45
42
43
41
41
41
39
37
37
37
39
39
41
39
41
43
45
45
41
37
37
39
45
48
50
50
51
54
55
60
65
72
77
80
81
72
65
61
58
50
46
43
45
45
45
41
37
35
33
33
34
37
37
34
35
35
34
38
39
41
46
58
71
86
97
116
145
181
212
229
220
169
74
-17
-67
-89
-89
-66
-26
13
37
39
39
37
37
39
43
45
48
50
50
50
54
55
58
55
54
55
58
60
60
59
58
58
58
58
61
61
58
63
65
69
71
73
76
81
81
82
85
86
91
97
97
103
103
106
111
115
123
124
130
136
138
143
147
154
158
160
162
165
168
165
162
155
149
138
128
120
111
104
97
89
81
76
72
71
67
65
64
60
56
52
54
55
55
52
55
55
55
55
51
54
58
59
58
54
54
54
55
58
60
60
60
58
58
56
55
55
55
56
58
58
55
55
55
55
55
58
58
56
55
54
50
46
45
46
50
47
50
50
50
52
50
50
50
50
50
48
51
51
50
50
50
52
50
46
43
45
43
42
45
43
45
48
55
60
64
64
61
60
60
63
68
77
81
81
76
71
63
58
54
50
50
50
45
50
46
45
41
37
37
34
34
35
35
37
39
39
45
50
54
55
61
76
95
112
130
159
197
221
228
207
147
52
-39
-84
-84
-65
-28
9
35
45
41
41
39
41
39
43
47
50
50
48
50
52
51
52
54
55
55
58
55
55
59
60
60
60
64
63
64
65
67
67
68
71
72
76
76
78
82
86
87
90
94
93
95
99
103
110
117
123
128
136
138
147
147
152
155
160
165
169
172
172
169
165
160
152
145
136
124
112
102
94
86
78
71
65
64
61
60
55
54
50
47
48
50
50
45
43
45
46
48
50
48
54
51
46
48
50
51
50
47
47
47
48
50
47
50
50
50
52
51
52
54
52
51
50
50
46
43
43
43
41
41
41
41
41
39
41
43
43
43
43
42
37
37
37
37
33
37
34
34
33
26
33
34
39
38
33
30
28
29
29
30
35
37
37
34
37
39
43
45
46
47
50
52
55
60
64
64
55
51
43
39
35
33
33
29
29
26
25
22
20
20
22
20
20
20
19
20
20
22
26
30
33
39
55
74
94
112
137
169
195
203
189
143
54
-43
-97
-106
-89
-52
-13
16
28
25
22
24
24
28
29
30
29
33
34
37
35
30
33
34
37
38
38
41
45
45
43
43
45
41
41
45
48
51
58
60
60
58
54
55
56
61
64
68
71
74
76
78
81
86
91
97
102
103
107
113
117
124
130
136
137
137
142
145
149
146
143
137
128
117
107
97
89
81
74
63
54
45
38
34
30
29
29
26
24
22
20
20
20
20
24
20
24
22
22
20
20
20
19
19
20
22
22
20
20
20
19
24
28
28
24
20
19
19
20
21
19
19
13
12
11
12
12
12
12
12
12
12
11
7
8
8
6
6
4
6
6
6
4
3
3
3
2
3
3
2
3
3
-1
-1
-4
-2
-2
-5
-1
-1
-1
3
2
2
-1
-2
-2
-1
3
3
4
3
6
8
13
16
19
20
25
29
28
20
15
8
3
-1
-1
2
-1
-2
-7
-9
-11
-11
-13
-11
-11
-11
-11
-14
-14
-13
-10
-2
6
16
29
45
55
74
103
141
168
177
154
87
-13
-96
-131
-136
-122
-92
-56
-28
-14
-13
-15
-13
-11
-7
-5
-5
-5
-5
-4
-2
3
3
3
4
3
-1
3
6
6
8
8
9
8
6
7
8
11
16
19
20
19
20
20
22
28
29
33
37
39
39
42
45
50
54
58
61
65
71
76
81
86
90
95
98
102
103
107
112
108
110
106
102
97
86
76
65
54
43
34
28
20
16
11
8
3
0
-2
-4
-5
-6
-7
-5
-5
-7
-7
-9
-7
-5
-5
-7
-6
-7
-7
-7
-5
-5
-5
-2
-2
-4
-2
-1
3
3
-2
-2
-2
-2
-2
-2
-2
-1
-2
-5
-5
-6
-5
-5
-5
-5
-7
-9
-7
-6
-5
-7
-6
-7
-7
-7
-6
-7
-7
-6
-6
-7
-9
-11
-13
-11
-11
-11
-11
-11
-9
-9
-13
-11
-11
-11
-11
-13
-7
-9
-11
-11
-10
-9
-6
-4
-2
-1
3
8
9
13
16
17
16
9
3
-4
-7
-9
-9
-9
-9
-13
-14
-19
-22
-19
-19
-14
-17
-18
-18
-18
-19
-18
-18
-13
-4
9
29
46
60
81
113
147
172
178
152
76
-32
-113
-148
-147
-123
-85
-46
-20
-14
-13
-13
-11
-11
-9
-6
-5
-2
2
3
3
2
4
6
8
9
12
12
11
12
12
12
9
15
19
19
19
17
20
22
26
29
29
30
33
33
37
41
43
45
48
52
55
59
61
69
76
80
86
91
95
102
103
107
112
120
125
128
128
124
120
116
111
102
95
81
72
61
54
45
41
34
29
24
20
16
12
8
6
7
8
11
9
9
9
9
8
8
8
9
11
12
12
12
13
13
13
12
12
13
15
15
13
13
13
12
9
12
12
13
13
8
8
6
3
4
3
2
2
2
3
6
6
3
3
3
2
0
-1
-1
-2
3
2
3
2
2
2
-2
-4
-2
-2
-1
2
6
3
-2
-9
-9
-4
-6
-6
-5
-4
-5
-1
-2
-1
-1
-4
-2
-5
-5
-2
-2
0
3
6
7
7
9
16
20
21
24
28
29
30
28
19
13
6
3
3
3
4
3
3
-4
-7
-9
-9
-11
-11
-9
-9
-11
-9
-6
-2
3
13
33
51
67
86
116
147
169
169
143
71
-37
-117
-148
-140
-109
-67
-31
-15
-13
-13
-13
-13
-11
-11
-11
-11
-9
-5
-5
-5
-2
-2
-7
-9
-9
-10
-6
-1
0
2
3
-1
2
2
3
3
7
9
12
16
19
20
20
20
22
28
33
35
38
41
45
48
51
54
58
63
67
72
78
86
91
94
97
97
102
111
113
116
112
107
102
95
89
86
72
64
55
43
29
22
13
6
3
-2
-6
-7
-7
-5
-7
-9
-11
-15
-18
-19
-22
-20
-18
-18
-17
-18
-18
-18
-19
-18
-18
-18
-18
-18
-18
-15
-14
-14
-15
-13
-13
-18
-15
-14
-18
-17
-18
-14
-14
-18
-22
-22
-23
-23
-23
-23
-26
-28
-30
-32
-31
-31
-33
-33
-31
-31
-30
-31
-30
-30
-31
-33
-36
-36
-33
-35
-39
-40
-37
-39
-39
-39
-40
-39
-39
-43
-43
-43
-44
-39
-43
-44
-46
-46
-44
-43
-43
-44
-46
-46
-43
-39
-39
-36
-33
-31
-28
-26
-23
-18
-17
-18
-23
-31
-39
-44
-46
-46
-46
-49
-50
-52
-54
-57
-54
-54
-57
-57
-58
-54
-57
-54
-53
-50
-46
-39
-22
-2
13
29
54
86
119
128
106
35
-66
-144
-178
-178
-161
-130
-93
-65
-52
-52
-52
-50
-48
-45
-43
-41
-40
-39
-39
-39
-40
-39
-39
-37
-36
-36
-39
-33
-33
-32
-31
-31
-28
-28
-28
-27
-23
-22
-19
-18
-18
-14
-13
-11
-9
-7
-5
-1
2
6
11
12
15
19
24
29
35
39
39
48
54
60
63
67
69
74
78
81
81
81
74
65
55
45
37
26
19
8
-2
-9
-13
-18
-22
-26
-28
-33
-37
-37
-36
-36
-36
-36
-36
-36
-39
-36
-33
-33
-33
-36
-35
-33
-30
-28
-26
-28
-31
-32
-31
-32
-30
-30
-28
-26
-26
-30
-28
-28
-28
-28
-31
-30
-28
-28
-28
-30
-30
-32
-30
-28
-32
-31
-31
-31
-31
-30
-31
-33
-33
-33
-31
-33
-33
-33
-33
-32
-31
-30
-33
-36
-36
-33
-33
-33
-31
-31
-31
-32
-30
-31
-31
-31
-32
-30
-28
-28
-26
-23
-23
-22
-22
-20
-17
-13
-11
-7
-4
-1
3
6
8
8
3
-5
-13
-15
-18
-18
-18
-18
-18
-22
-23
-26
-23
-24
-26
-24
-23
-22
-19
-18
-14
-11
-7
9
24
38
45
60
99
143
175
185
154
71
-39
-110
-137
-139
-119
-78
-39
-13
-7
-11
-9
-7
-2
0
3
3
2
2
6
8
12
13
12
9
6
8
8
11
9
13
12
16
15
19
20
20
24
24
28
26
29
34
35
37
39
45
45
48
52
55
60
65
68
68
74
78
84
91
97
102
107
113
113
116
117
119
123
123
123
116
107
102
94
84
74
64
56
47
45
37
30
24
21
20
20
19
19
19
19
16
13
13
16
16
16
19
19
20
21
21
19
19
19
19
22
22
22
22
20
22
21
22
21
20
22
20
20
20
19
16
19
20
20
21
20
22
20
19
15
13
13
13
13
15
16
16
15
16
13
13
16
19
19
16
13
13
11
9
12
16
16
17
16
16
16
19
19
19
19
19
19
16
19
20
21
20
19
22
22
22
22
26
33
37
38
39
43
50
50
50
43
37
29
22
20
19
19
20
20
19
15
13
12
12
13
12
13
13
16
17
19
22
29
41
60
82
99
119
147
178
199
206
186
136
33
-67
-118
-113
-78
-32
7
22
22
19
17
20
24
26
29
29
30
33
34
37
37
38
38
39
39
42
43
45
48
50
48
48
48
46
50
52
52
58
60
63
61
60
65
68
71
72
76
76
81
85
86
91
97
106
111
116
120
128
130
137
143
147
152
155
162
165
169
169
165
164
160
151
142
129
123
112
102
91
89
78
71
61
55
47
47
45
43
43
45
43
45
47
48
45
43
45
43
42
45
48
52
50
45
43
45
45
46
47
47
47
45
47
45
46
46
50
50
50
50
50
50
50
50
50
50
45
47
48
48
48
46
50
47
46
42
41
41
41
41
39
38
37
34
37
37
39
41
43
45
41
39
38
39
41
39
41
39
39
38
34
37
37
37
39
39
39
37
35
43
45
48
50
48
54
56
61
64
67
65
60
54
45
39
34
35
34
33
33
29
29
30
30
30
29
29
29
24
24
28
33
34
42
54
68
86
99
116
141
175
206
215
202
149
54
-46
-93
-97
-78
-44
-5
22
35
35
34
35
37
38
39
39
41
43
47
50
50
50
52
55
55
55
55
55
55
55
58
63
63
67
68
65
65
67
71
72
77
76
78
82
82
86
89
95
103
103
104
107
112
119
126
130
136
141
145
152
158
164
169
172
175
180
181
178
175
168
162
154
145
136
123
111
99
94
86
81
76
71
68
65
63
59
60
60
61
60
55
58
55
58
56
55
59
58
61
63
65
65
64
59
55
59
60
60
63
63
64
65
64
65
68
65
64
63
64
64
63
61
61
63
63
61
61
65
64
61
60
58
55
60
64
61
60
55
55
55
58
58
55
54
54
54
54
55
59
59
59
58
58
56
55
54
51
55
55
60
60
56
55
55
60
64
65
65
71
71
76
82
89
94
97
86
76
67
61
56
61
60
60
58
55
56
55
54
52
51
54
55
59
59
60
58
59
64
72
86
102
115
128
152
191
232
255
253
197
102
8
-46
-69
-67
-40
3
39
64
65
63
61
60
68
71
71
73
76
73
74
74
74
74
76
77
81
81
81
86
82
82
86
86
86
89
91
93
94
95
97
100
102
102
103
106
108
112
111
119
123
128
130
132
137
145
149
154
160
164
172
175
181
186
190
195
197
198
201
197
194
188
181
171
159
149
138
128
120
113
106
102
94
91
89
89
86
86
81
80
81
82
82
81
81
77
76
82
81
81
81
81
84
81
82
82
81
82
84
86
86
86
86
81
81
81
81
80
81
81
81
78
76
74
74
76
76
76
76
74
76
76
74
74
72
72
74
74
76
78
74
71
71
71
72
71
72
72
72
71
68
69
68
68
69
65
69
65
67
69
71
71
73
76
78
81
81
86
86
89
91
97
100
97
94
86
82
76
73
72
71
69
68
64
60
59
56
58
56
54
54
52
59
60
61
60
60
67
78
97
119
136
155
185
221
247
255
236
175
71
-31
-80
-75
-41
6
45
64
65
64
60
60
63
64
64
64
64
64
65
71
71
72
72
76
80
76
78
77
81
81
82
86
86
86
86
86
86
89
94
94
95
97
97
102
103
104
107
112
117
121
128
128
130
132
138
145
152
156
162
169
175
182
185
189
191
197
201
198
195
190
180
169
158
145
136
124
116
107
99
94
87
82
78
74
71
71
69
67
68
68
69
64
60
58
60
61
63
64
61
61
61
64
68
68
68
68
65
69
72
68
69
65
65
68
68
71
71
72
71
69
65
64
61
60
60
64
64
63
60
60
60
59
60
60
60
59
60
60
60
59
59
58
55
55
55
55
55
55
55
52
45
50
54
55
55
51
54
52
52
54
55
60
64
63
61
60
65
72
76
81
77
74
67
64
60
55
50
45
45
45
45
45
37
38
39
43
45
43
38
33
35
35
34
37
39
50
60
82
99
119
137
165
202
221
223
197
128
29
-54
-92
-92
-65
-23
13
33
39
37
34
37
37
39
39
41
39
45
45
48
48
47
47
48
47
47
45
45
47
50
51
54
52
54
55
55
58
55
60
61
63
64
65
67
71
73
76
78
81
86
91
94
94
95
102
106
113
120
128
136
141
145
147
152
152
155
158
160
158
151
143
136
124
115
107
91
81
72
67
58
59
58
55
47
39
34
35
33
30
29
30
30
29
28
26
29
30
30
30
29
29
29
29
29
30
33
30
35
35
32
30
33
33
33
29
30
30
30
33
35
33
29
29
30
29
29
24
28
26
26
21
20
22
24
24
22
20
19
19
20
20
19
19
16
16
16
16
16
13
13
12
12
9
13
16
19
22
26
29
28
26
25
29
30
39
48
50
41
29
25
20
19
15
13
12
9
9
8
6
3
2
0
2
-1
-2
-2
2
3
2
-1
2
6
19
37
58
77
91
119
154
178
185
160
87
-18
-101
-134
-126
-95
-52
-18
2
7
3
0
3
8
8
8
7
11
13
13
16
16
13
13
13
16
20
22
24
22
20
19
20
24
28
29
28
28
29
33
34
34
35
37
37
41
45
50
55
60
60
65
71
71
76
86
86
91
95
102
107
113
124
128
133
137
137
136
133
128
123
119
111
97
86
74
65
58
50
43
39
33
29
22
19
16
16
16
13
11
11
8
8
12
9
9
12
12
19
19
15
12
11
12
15
16
15
13
13
16
20
21
22
20
19
19
16
16
13
13
13
16
16
17
13
13
16
19
20
19
19
16
16
13
13
16
16
16
16
12
12
12
13
13
13
12
12
13
16
13
13
13
15
17
19
19
20
24
26
29
30
35
41
46
50
50
50
47
41
37
29
24
20
20
20
19
13
6
2
-2
2
-1
3
3
2
3
0
3
3
3
4
9
24
45
65
80
97
124
158
176
177
143
69
-31
-101
-122
-113
-84
-49
-18
-2
2
2
3
2
3
2
-1
2
3
8
8
8
8
11
12
11
8
9
13
16
17
13
13
16
20
22
22
20
20
22
24
26
29
30
33
34
37
37
37
41
45
52
55
61
61
65
65
71
78
86
91
97
102
104
111
112
117
120
124
128
123
116
106
97
90
81
71
60
50
43
37
29
20
16
16
15
9
8
4
3
6
6
6
3
3
6
8
8
8
9
11
12
9
12
12
12
12
12
11
9
11
9
13
13
13
16
13
16
13
13
12
13
13
13
11
6
4
6
11
13
13
13
12
8
8
8
11
9
8
9
7
9
8
9
8
8
8
4
3
4
8
9
11
6
6
6
6
8
8
13
15
13
13
12
13
20
26
33
39
45
42
34
28
20
16
12
11
8
8
8
8
6
3
2
-2
-9
-4
-1
-1
-1
-2
-2
-2
3
6
11
19
33
48
60
74
97
138
178
202
195
139
41
-54
-105
-122
-122
-101
-63
-23
2
8
4
2
2
3
8
9
13
13
13
13
13
16
19
21
22
20
20
21
22
20
19
19
17
20
24
24
29
29
29
33
33
37
41
45
47
50
52
51
51
54
59
65
72
74
78
82
86
89
94
97
102
106
112
116
120
124
128
126
124
123
115
107
95
86
76
65
58
48
39
34
30
28
20
20
20
19
19
17
16
13
13
15
16
15
13
13
16
15
13
13
12
13
19
22
22
20
16
19
19
20
19
19
19
16
20
20
21
22
22
20
20
20
20
20
17
19
19
19
19
15
21
22
19
16
13
15
15
16
16
16
16
16
19
16
16
16
13
13
16
13
13
13
15
15
16
16
19
20
19
16
15
19
20
21
24
28
25
34
41
45
46
42
43
39
33
26
20
19
16
19
19
19
16
13
12
12
12
12
13
11
9
12
12
12
13
15
22
33
50
71
89
112
143
180
206
216
203
152
54
-46
-105
-122
-109
-80
-36
0
16
17
13
16
20
24
26
28
29
29
29
30
33
30
30
33
33
34
34
34
37
39
45
43
43
45
45
46
48
52
55
55
54
54
55
59
64
65
68
76
76
81
82
86
89
91
97
104
111
113
120
124
129
136
143
147
149
150
154
154
155
154
149
145
138
128
113
99
90
80
71
61
55
50
46
43
43
41
41
42
39
33
35
33
33
33
30
33
34
37
35
33
33
33
37
42
43
41
39
37
38
45
46
45
43
41
39
41
42
45
46
43
41
35
38
38
41
39
41
42
43
45
41
41
39
37
37
34
35
41
41
38
37
35
37
34
34
37
34
34
34
35
35
32
30
29
28
33
35
35
33
33
33
33
33
34
34
33
32
30
33
33
34
39
41
45
47
46
47
47
48
55
63
65
65
59
54
47
43
34
28
28
29
33
33
30
29
26
22
22
24
26
30
30
29
29
29
29
34
43
60
81
102
119
138
169
201
215
211
180
107
8
-72
-97
-88
-57
-18
9
26
29
26
28
26
30
34
37
34
34
34
35
37
39
41
43
41
39
39
45
45
43
47
48
47
50
47
47
46
46
50
54
58
60
61
58
56
59
63
65
72
80
78
81
82
89
97
99
103
104
111
115
124
129
136
138
145
151
158
160
164
163
162
152
143
133
120
110
99
89
81
71
63
60
58
54
50
43
37
35
35
34
34
29
30
29
30
29
29
33
33
33
33
30
33
35
35
34
32
33
33
33
34
35
34
33
29
32
34
37
37
37
37
37
30
28
26
29
30
29
29
26
24
24
24
24
24
24
22
21
19
20
19
19
20
19
19
19
19
16
13
13
13
11
8
8
8
8
8
8
12
12
13
13
12
9
8
8
9
11
9
8
7
8
11
12
12
11
8
8
9
12
12
16
19
22
28
29
34
37
37
34
29
22
16
8
8
8
9
8
8
3
4
3
3
3
0
2
2
3
3
4
6
6
9
15
26
45
60
76
95
128
163
186
197
175
111
7
-80
-122
-122
-105
-69
-28
-1
9
11
8
8
8
12
13
16
17
20
19
19
21
22
22
24
25
24
24
24
26
26
32
33
33
34
37
37
37
39
41
42
41
41
43
46
46
51
54
58
59
61
69
72
74
78
82
86
94
97
103
108
112
116
123
128
133
136
138
137
137
137
136
130
123
111
97
86
78
68
61
58
50
43
34
33
32
30
22
21
19
20
20
19
22
22
22
21
20
19
19
19
20
20
22
24
24
26
28
29
28
26
28
26
25
26
29
29
29
30
32
30
28
29
28
29
29
29
28
24
20
24
24
25
25
22
22
20
20
21
22
22
21
22
22
19
17
16
16
19
20
20
19
19
19
19
20
21
21
19
20
19
16
19
19
16
16
16
16
15
17
19
19
19
19
16
16
15
22
24
24
24
24
29
30
34
35
41
47
50
50
43
37
29
24
22
20
20
20
22
21
19
16
15
13
13
16
16
15
16
16
17
20
22
29
43
61
77
91
117
146
180
203
207
180
99
-7
-80
-111
-111
-91
-57
-19
9
20
19
19
19
22
26
29
29
29
29
30
33
34
37
35
34
34
37
41
41
39
38
37
39
43
47
50
50
54
52
52
52
51
60
63
64
65
68
69
71
74
78
82
86
89
94
97
102
107
112
117
123
128
130
137
139
145
149
152
150
147
147
145
139
129
120
110
99
89
81
71
63
58
54
45
45
43
43
39
33
33
33
30
29
26
29
33
33
29
29
29
29
30
30
29
30
30
33
33
34
34
34
35
33
33
30
30
33
34
33
35
35
32
30
29
26
22
24
24
24
25
24
28
24
24
24
24
22
24
22
22
21
22
22
19
13
15
16
19
19
19
17
13
16
17
15
16
15
12
13
13
13
12
13
12
13
13
12
12
12
13
12
11
6
6
3
6
6
7
8
11
13
12
9
8
9
12
16
16
16
17
24
28
29
29
30
30
26
24
19
12
6
2
-1
-2
0
0
-1
-5
-5
-2
-7
-7
-11
-13
-13
-11
-9
-7
-7
-5
9
29
51
67
85
107
137
160
165
149
95
-1
-96
-144
-148
-122
-85
-50
-26
-19
-20
-23
-23
-22
-18
-18
-18
-20
-19
-18
-18
-14
-18
-15
-15
-14
-14
-9
-9
-10
-13
-18
-15
-13
-9
-7
-7
-5
-2
-2
-2
-1
-1
3
7
11
13
15
19
21
25
29
30
35
37
38
43
46
50
56
60
64
71
76
80
85
89
95
97
94
93
89
82
81
71
60
50
39
26
20
13
4
-2
-11
-15
-18
-22
-24
-26
-27
-28
-28
-30
-33
-32
-33
-33
-33
-33
-33
-33
-36
-33
-33
-31
-30
-30
-31
-33
-36
-33
-33
-32
-31
-30
-33
-33
-35
-37
-37
-40
-36
-39
-37
-39
-39
-39
-39
-40
-41
-43
-44
-45
-46
-44
-44
-48
-50
-50
-50
-52
-52
-52
-52
-50
-53
-52
-50
-52
-52
-54
-54
-54
-56
-54
-56
-54
-57
-54
-57
-57
-59
-61
-59
-59
-59
-56
-56
-57
-59
-59
-59
-61
-65
-65
-62
-61
-61
-63
-62
-63
-63
-65
-65
-61
-61
-59
-59
-59
-61
-61
-58
-53
-49
-44
-43
-39
-36
-31
-32
-36
-44
-49
-54
-59
-59
-61
-63
-65
-67
-70
-74
-76
-75
-74
-74
-70
-69
-69
-70
-71
-70
-65
-62
-52
-36
-19
-9
3
24
59
93
119
113
63
-37
-134
-180
-192
-186
-161
-119
-88
-70
-65
-67
-66
-61
-59
-59
-59
-58
-54
-56
-56
-56
-56
-54
-52
-50
-49
-46
-46
-46
-46
-46
-40
-39
-39
-39
-40
-36
-35
-31
-32
-33
-33
-31
-30
-28
-26
-22
-18
-14
-15
-13
-9
-2
2
3
7
9
16
20
29
32
39
43
47
54
59
61
63
64
64
61
60
54
48
39
28
15
6
-2
-7
-14
-20
-28
-32
-33
-36
-39
-43
-43
-43
-43
-46
-48
-48
-46
-44
-45
-44
-44
-44
-44
-43
-43
-43
-41
-44
-39
-40
-40
-36
-36
-37
-37
-37
-39
-40
-41
-43
-43
-39
-37
-36
-39
-43
-44
-45
-46
-44
-43
-39
-39
-39
-40
-45
-44
-44
-43
-40
-44
-46
-49
-46
-49
-44
-41
-40
-43
-45
-44
-44
-43
-43
-43
-44
-44
-46
-46
-49
-48
-49
-48
-49
-46
-45
-44
-40
-41
-43
-44
-44
-44
-44
-44
-45
-46
-44
-43
-44
-44
-43
-43
-40
-39
-37
-33
-35
-31
-28
-26
-26
-22
-17
-15
-13
-17
-18
-23
-28
-33
-37
-37
-39
-39
-39
-43
-44
-44
-44
-46
-45
-44
-44
-44
-44
-43
-39
-37
-33
-30
-15
3
22
37
60
93
128
149
150
123
45
-63
-144
-170
-167
-147
-113
-78
-48
-36
-36
-36
-33
-30
-30
-28
-28
-28
-24
-23
-22
-22
-18
-18
-18
-18
-14
-13
-11
-11
-11
-13
-11
-13
-7
-7
-2
-2
-1
2
6
8
9
12
13
19
20
21
24
22
26
29
33
35
39
45
50
55
60
64
71
77
81
86
91
97
99
103
107
111
112
111
103
91
76
65
58
50
39
32
22
16
8
2
-2
-4
-5
-7
-9
-11
-13
-18
-13
-15
-13
-13
-13
-11
-11
-13
-11
-9
-7
-7
-5
-5
-7
-7
-9
-9
-6
-7
-10
-11
-13
-11
-7
-9
-7
-7
-7
-6
-9
-7
-9
-9
-13
-14
-11
-13
-14
-17
-18
-18
-17
-18
-18
-19
-19
-18
-18
-18
-15
-18
-18
-22
-26
-26
-27
-23
-26
-26
-23
-22
-23
-23
-23
-18
-18
-20
-22
-23
-23
-23
-23
-22
-23
-20
-19
-22
-19
-23
-23
-23
-23
-23
-22
-22
-22
-23
-28
-26
-26
-23
-22
-22
-18
-17
-13
-10
-7
-4
-2
-1
2
8
9
6
2
-5
-11
-18
-20
-22
-19
-18
-18
-22
-23
-23
-24
-23
-23
-23
-23
-23
-23
-23
-26
-27
-22
-13
2
22
41
60
81
115
143
160
154
117
39
-65
-137
-154
-130
-88
-46
-23
-18
-22
-23
-18
-14
-13
-13
-13
-11
-9
-6
-5
-4
-5
-5
-7
-5
-5
-2
-1
2
3
6
7
4
6
6
8
9
12
17
20
22
24
26
25
26
29
29
29
34
39
45
50
52
54
59
63
65
71
74
78
86
89
94
102
107
112
119
123
123
123
120
119
112
103
97
85
76
65
59
47
41
32
25
21
15
12
9
8
8
8
8
4
0
-1
-1
0
-1
-1
-1
2
0
3
3
3
3
3
3
3
6
4
4
7
8
8
7
7
8
8
8
6
6
3
6
3
3
3
0
6
8
8
3
-2
-5
-2
-1
0
-2
-2
-4
-4
-2
-2
-2
-2
-2
-5
-5
-5
-5
-6
-2
-4
-2
-2
-5
-4
-2
-1
-1
-1
-2
-2
-4
-5
2
3
-1
-2
-11
-11
-13
-11
-11
-9
-7
-7
-6
-6
-6
-5
-7
-6
-7
-4
-1
3
7
8
13
16
19
20
26
29
29
24
22
16
9
4
2
-2
-4
-5
-7
-6
-7
-9
-9
-11
-13
-7
-7
-2
-2
-5
-4
-5
0
9
29
50
68
86
111
141
165
175
159
107
17
-71
-119
-122
-102
-67
-32
-6
2
2
0
-1
0
2
2
3
6
8
8
11
12
13
12
13
13
17
19
16
20
22
24
24
24
26
29
30
30
30
32
34
34
39
45
48
50
51
55
54
54
52
54
55
60
64
72
77
81
89
94
99
107
115
119
123
128
128
130
137
142
147
145
138
128
119
107
97
86
78
71
61
54
48
41
39
35
33
29
28
26
26
24
22
22
22
21
20
16
19
21
22
24
24
22
20
20
22
26
28
29
29
29
22
26
24
28
28
25
24
20
19
20
21
20
20
21
24
26
29
25
20
19
19
20
21
24
22
22
20
19
19
19
19
19
20
19
20
20
19
16
15
15
15
16
13
19
16
13
16
19
20
19
16
13
13
16
19
20
19
16
16
19
20
19
22
24
22
20
16
16
16
21
25
29
29
29
29
34
41
47
50
47
41
35
30
29
24
21
19
19
19
16
16
16
15
15
13
13
12
13
13
13
16
19
20
24
33
48
65
81
94
112
143
175
195
195
164
93
-7
-78
-102
-96
-67
-28
4
20
24
24
24
22
24
24
24
24
29
30
30
30
30
34
37
39
39
39
42
43
45
43
43
47
52
55
52
48
47
46
48
51
54
55
59
61
64
64
67
68
71
73
76
81
82
87
91
95
99
107
111
112
116
117
128
129
137
141
146
149
151
154
152
143
137
128
121
113
103
91
86
76
69
61
58
52
48
41
37
37
33
30
29
30
30
29
29
29
29
29
29
30
33
33
33
29
29
34
34
34
33
33
34
34
35
33
30
30
33
33
34
37
33
30
29
29
30
30
32
30
30
30
26
26
29
26
24
26
29
29
28
24
28
26
25
22
20
20
17
20
20
22
22
19
20
19
21
22
22
21
20
22
22
21
21
22
22
22
21
22
22
20
20
22
22
24
26
25
22
20
24
26
29
30
33
37
39
43
48
51
48
48
39
33
24
19
22
22
21
19
16
19
19
19
16
13
13
13
17
20
20
20
20
21
30
42
54
64
73
89
119
155
190
214
207
159
73
-18
-67
-91
-98
-87
-52
-13
13
22
24
20
24
24
26
29
29
30
30
34
37
38
37
34
37
41
41
41
39
43
43
41
38
38
41
43
45
48
50
51
54
54
55
58
64
67
67
65
67
71
76
81
82
86
86
91
97
103
111
116
120
128
133
137
138
141
143
145
147
147
146
141
136
128
120
112
103
95
86
81
72
65
63
60
56
54
50
50
48
45
43
41
39
39
39
39
41
45
45
47
43
47
45
45
47
48
48
47
45
43
42
43
45
45
43
45
45
45
46
47
48
50
48
43
41
41
37
34
37
38
37
37
37
39
39
42
39
39
37
37
38
39
39
41
38
34
33
29
33
33
34
33
33
34
34
35
35
33
34
34
35
35
38
34
35
34
34
35
35
38
39
41
45
46
50
54
55
59
61
64
61
60
55
50
39
37
33
34
33
32
34
34
29
24
24
24
29
29
29
28
28
29
29
33
35
45
60
78
95
111
136
169
206
224
221
185
94
-9
-78
-105
-101
-70
-28
9
29
34
34
33
33
33
34
33
39
41
43
43
43
45
43
46
47
50
50
50
50
51
51
54
54
58
59
61
60
60
60
63
65
65
67
67
69
71
76
78
82
86
86
94
95
99
102
107
113
123
124
128
136
138
146
152
158
163
169
175
172
169
164
160
154
145
136
124
115
103
97
91
81
76
71
64
58
55
54
51
50
50
45
42
43
42
43
43
45
45
45
43
47
48
50
50
50
52
50
47
45
46
47
47
45
47
48
50
50
50
50
52
50
50
48
47
46
47
47
47
47
47
43
39
42
43
45
45
45
43
43
45
45
43
45
46
45
43
39
41
39
39
38
37
37
34
34
34
34
37
34
34
37
35
39
41
41
41
39
41
39
41
43
47
47
48
50
48
50
55
60
68
72
72
67
60
54
48
43
41
37
39
39
41
37
29
28
25
28
26
26
29
29
33
33
33
37
39
45
58
78
97
116
136
165
199
216
217
194
128
24
-61
-96
-95
-70
-35
3
24
30
29
30
33
30
35
37
39
41
41
45
42
39
41
41
43
43
48
50
52
51
51
52
52
54
54
55
58
58
60
60
60
60
61
64
68
71
74
74
73
76
82
86
91
94
97
102
107
116
123
128
137
138
145
145
149
154
154
160
165
169
168
164
160
152
143
128
116
106
94
86
78
68
61
55
51
50
47
45
43
39
39
39
39
39
35
37
35
37
39
39
41
39
38
41
41
41
41
41
43
42
43
45
45
50
48
48
45
42
45
45
47
43
39
39
39
41
45
41
41
39
41
41
41
38
34
37
34
37
39
41
41
38
34
33
33
34
34
33
33
30
34
33
33
29
30
33
33
34
33
29
30
30
32
35
38
41
45
47
48
50
48
55
63
71
71
65
55
50
45
41
38
34
33
33
33
29
26
22
20
21
22
20
22
19
19
22
22
29
35
45
60
78
95
111
136
169
202
216
211
175
97
-5
-80
-106
-97
-71
-30
6
24
30
29
29
33
35
35
34
35
38
41
39
39
39
39
37
42
45
50
50
47
50
47
46
50
50
50
51
55
58
60
64
67
65
65
65
68
72
76
81
81
86
89
95
99
102
103
106
112
119
123
128
136
141
145
149
154
158
162
168
169
169
169
162
151
141
133
126
116
107
99
91
85
78
71
61
60
58
55
54
52
52
51
51
51
50
47
45
45
47
47
46
50
50
51
54
54
54
52
50
54
54
55
55
51
55
54
54
55
52
58
58
60
58
55
52
51
55
58
56
55
55
55
59
60
55
48
45
47
52
50
50
50
48
48
50
52
52
50
50
48
47
50
50
52
50
43
43
45
47
48
46
51
54
58
61
64
65
68
71
72
73
74
80
86
89
85
80
72
65
60
59
58
55
55
56
54
52
45
48
50
50
50
51
52
50
50
48
52
54
58
71
90
116
128
143
169
206
232
237
212
151
55
-33
-74
-72
-50
-18
22
50
60
60
58
56
58
61
64
65
65
65
68
71
74
72
72
74
76
78
80
82
86
86
86
86
89
91
86
86
82
86
90
94
97
97
97
97
97
102
103
107
112
112
119
123
128
129
136
137
141
147
154
160
165
171
177
181
186
189
190
186
182
182
176
175
165
158
149
138
125
116
102
97
94
86
80
71
67
67
65
65
64
64
64
61
60
60
60
61
60
59
55
55
55
55
55
55
56
59
60
60
61
61
61
60
58
56
59
60
59
59
60
60
58
56
51
55
55
55
55
52
54
54
55
54
51
50
51
50
50
46
45
45
43
45
45
45
43
43
47
47
48
50
48
45
45
42
43
45
45
43
45
45
41
42
43
41
39
43
43
47
47
45
50
51
55
59
60
65
71
74
74
71
61
56
50
45
43
41
41
39
39
34
33
30
30
30
30
29
29
29
30
33
33
34
34
38
48
60
81
90
106
133
171
211
227
211
142
37
-50
-88
-97
-89
-65
-28
6
22
28
29
29
29
33
34
34
35
35
35
39
39
39
34
34
35
37
43
45
45
41
42
45
47
50
48
48
50
52
51
60
63
64
65
71
65
64
63
68
73
74
74
76
81
86
91
97
102
107
112
115
120
124
128
133
138
145
149
154
152
149
143
141
133
124
116
103
94
84
76
68
58
55
50
50
45
41
43
39
39
35
33
34
34
34
34
35
37
38
37
37
37
39
42
43
41
39
37
39
41
39
37
34
29
33
35
37
37
38
38
37
35
35
38
41
50
64
67
48
30
22
24
24
19
19
9
3
3
11
16
20
22
22
22
21
22
24
24
26
28
26
24
24
24
24
26
29
30
28
20
17
19
22
24
22
19
16
16
16
20
19
26
30
33
35
34
39
45
52
52
50
45
41
34
26
22
20
20
22
20
19
16
16
13
13
13
16
19
15
9
8
6
12
17
28
41
58
76
91
113
149
186
215
216
180
94
-15
-92
-117
-115
-89
-50
-11
13
20
19
16
17
19
19
22
22
22
24
24
26
29
30
33
38
38
35
37
37
34
39
38
34
34
37
39
41
43
47
52
55
60
61
61
55
60
69
71
72
81
82
86
84
81
78
81
95
104
113
120
117
117
123
130
141
147
152
154
154
149
141
133
128
117
111
102
91
86
77
64
55
48
48
45
39
34
29
30
30
33
33
33
35
33
29
29
29
29
29
33
38
41
38
30
29
30
34
38
42
47
45
42
37
34
34
37
38
37
37
37
34
33
33
35
38
41
45
39
34
33
35
35
34
30
30
30
30
35
35
33
26
24
24
25
29
29
29
26
26
26
30
35
34
33
29
24
24
24
28
26
24
22
22
24
24
24
24
26
25
24
24
24
26
29
32
30
34
39
41
43
41
47
50
50
50
45
39
33
29
24
22
22
24
24
19
16
15
16
19
19
13
9
11
9
12
13
16
22
33
51
72
89
107
133
165
195
207
195
143
46
-52
-105
-114
-97
-67
-33
-2
12
12
9
12
16
19
20
20
22
24
24
19
17
20
24
29
25
20
20
24
29
30
33
37
39
39
34
37
37
41
43
45
45
43
46
47
50
52
58
56
55
58
60
69
74
78
81
86
94
97
104
112
116
116
120
125
130
136
138
138
134
130
128
123
116
111
102
89
78
65
55
47
45
41
37
33
33
33
30
28
26
21
17
19
19
21
20
19
16
16
19
16
19
21
21
24
24
24
26
28
24
25
26
28
32
34
35
29
24
22
24
29
29
29
29
29
26
25
24
28
26
20
21
22
24
24
21
28
26
29
26
22
19
19
21
22
24
25
22
16
16
17
19
19
22
24
22
22
24
24
22
21
20
16
16
15
16
19
19
20
20
22
22
28
26
26
24
24
24
33
39
45
45
48
54
52
48
41
34
29
25
22
22
22
20
19
13
13
16
19
20
19
19
19
19
19
21
22
22
25
34
50
71
84
99
124
162
199
219
211
160
55
-45
-97
-111
-101
-70
-28
8
20
19
17
20
24
29
28
29
29
29
33
37
38
35
33
34
34
35
37
41
45
45
46
50
50
50
50
51
52
54
51
55
55
55
61
64
65
71
76
74
74
76
81
86
90
95
102
111
113
116
116
119
125
133
138
145
150
155
159
160
160
154
147
141
133
124
116
104
95
86
76
68
64
60
55
48
48
45
43
39
33
35
34
34
37
33
39
41
41
39
35
33
33
34
37
41
41
42
42
39
41
41
43
45
43
43
45
47
45
39
34
34
39
39
38
39
35
35
34
34
35
34
33
34
35
35
37
34
30
28
26
29
29
30
29
26
25
26
26
26
29
29
30
30
33
33
34
33
29
29
26
29
30
29
29
30
29
29
29
30
29
29
28
30
28
28
25
25
29
28
33
34
35
34
34
41
45
50
51
55
55
55
55
52
45
38
30
28
24
24
25
26
22
22
24
22
19
19
20
22
22
25
29
33
33
37
51
76
97
120
149
185
207
219
207
164
74
-33
-98
-111
-89
-52
-11
19
29
26
24
24
24
28
26
29
29
32
33
33
33
34
34
35
35
35
37
42
45
48
48
48
50
50
51
52
50
45
50
52
58
60
59
64
63
64
65
71
77
81
81
82
86
90
95
99
103
106
112
117
128
137
142
147
147
149
150
154
160
160
159
154
145
137
128
120
104
86
76
71
64
59
50
43
34
35
34
33
29
24
25
28
28
28
26
29
29
30
29
29
29
33
34
35
33
29
28
29
29
30
29
29
29
28
26
26
28
26
26
29
29
29
29
24
22
22
20
22
20
19
19
19
20
19
16
13
12
13
13
16
16
13
13
9
12
12
12
9
8
8
12
12
8
6
6
6
3
3
8
8
6
7
6
6
3
4
6
8
7
7
4
2
-1
-2
2
3
3
2
2
3
6
7
8
9
12
15
19
20
21
24
29
34
29
22
13
6
3
3
0
-1
-2
-1
-7
-9
-9
-7
-7
-9
-11
-11
-10
-10
-6
-5
-1
3
20
39
58
72
97
128
160
177
173
141
64
-39
-111
-137
-132
-98
-59
-26
-13
-9
-11
-11
-7
-5
-4
-5
-5
-1
-1
-2
-5
-5
-5
-2
-1
-1
-1
0
2
6
8
3
7
7
8
12
9
15
16
16
16
15
16
19
22
26
24
26
25
26
30
34
37
39
46
50
51
55
61
67
71
78
86
91
95
97
97
102
106
104
102
93
82
78
69
60
50
39
29
22
13
3
-1
-7
-7
-10
-13
-17
-18
-18
-19
-22
-20
-19
-22
-23
-24
-26
-23
-22
-20
-19
-20
-22
-22
-22
-19
-22
-22
-23
-22
-19
-18
-19
-22
-22
-23
-23
-22
-18
-17
-13
-19
-23
-28
-30
-28
-28
-26
-26
-23
-23
-23
-27
-28
-28
-26
-23
-23
-28
-31
-36
-36
-32
-30
-31
-31
-33
-33
-32
-30
-30
-28
-30
-30
-31
-32
-33
-33
-33
-31
-32
-33
-33
-36
-37
-36
-37
-31
-32
-31
-35
-33
-33
-33
-31
-33
-36
-36
-33
-30
-28
-28
-28
-24
-23
-19
-19
-17
-9
-2
-1
-4
-9
-18
-23
-33
-36
-39
-33
-36
-39
-43
-41
-40
-39
-43
-40
-40
-43
-39
-39
-36
-33
-30
-22
-9
6
19
33
60
98
137
160
158
115
24
-71
-127
-148
-156
-148
-119
-80
-44
-28
-30
-37
-39
-35
-30
-23
-22
-22
-19
-22
-19
-15
-13
-13
-14
-18
-18
-14
-13
-11
-13
-9
-9
-7
-7
-2
-2
-4
-5
-4
-1
3
7
9
12
15
19
19
19
16
19
22
29
34
41
48
48
54
55
60
63
68
74
78
84
89
95
99
97
97
95
91
89
82
76
64
55
48
39
32
28
19
8
2
-2
-2
-7
-9
-9
-11
-10
-11
-13
-13
-11
-9
-11
-10
-9
-9
-9
-10
-9
-11
-9
-7
-7
-5
-5
-6
-11
-11
-13
-11
-13
-9
-11
-11
-13
-13
-13
-14
-15
-13
-9
-5
-7
-14
-18
-19
-18
-18
-19
-22
-23
-23
-18
-14
-17
-18
-19
-18
-18
-18
-14
-17
-15
-18
-19
-19
-19
-18
-18
-19
-18
-22
-23
-22
-18
-18
-18
-18
-15
-18
-23
-23
-23
-22
-22
-22
-22
-19
-19
-18
-18
-19
-18
-14
-13
-11
-11
-9
-4
-1
0
2
6
12
15
13
9
3
-5
-11
-13
-11
-10
-9
-13
-11
-11
-13
-17
-19
-18
-22
-23
-26
-27
-23
-18
-13
-7
6
24
41
52
72
106
143
169
178
159
87
-23
-111
-145
-148
-134
-101
-65
-33
-22
-18
-18
-14
-14
-17
-14
-13
-13
-14
-15
-15
-14
-15
-9
-5
-4
-2
-4
-2
-2
-2
-2
-2
3
3
4
3
3
3
3
6
11
16
16
16
19
22
25
25
29
30
37
41
45
45
51
60
65
69
71
72
80
86
91
97
99
103
107
111
113
111
104
97
91
85
76
65
56
50
41
37
33
26
24
20
11
3
3
8
8
3
-2
-5
-5
2
2
-1
-2
-5
-4
-2
-2
-1
2
3
3
3
6
8
11
8
4
6
6
6
8
8
8
8
6
3
0
-1
0
3
7
6
2
-2
-2
-2
-2
-1
-1
2
2
3
-1
-2
-4
-1
-1
-4
-5
-5
-5
-5
-7
-9
-11
-9
-7
-7
-9
-7
-7
-5
-9
-13
-13
-7
-5
-5
-7
-11
-10
-9
-10
-7
-11
-13
-13
-13
-11
-7
-7
-5
-5
-5
-7
-7
-9
-7
-2
4
9
11
13
19
20
20
16
9
3
-7
-15
-13
-11
-11
-11
-14
-14
-18
-18
-19
-19
-18
-15
-14
-18
-19
-18
-15
-9
2
21
39
58
74
102
134
162
169
149
87
-17
-102
-140
-137
-118
-85
-54
-28
-18
-19
-20
-22
-18
-18
-18
-18
-18
-18
-13
-9
-9
-9
-11
-9
-11
-13
-13
-11
-6
-4
-5
-5
-6
-7
-7
-2
-1
0
2
8
11
9
8
8
11
12
16
21
22
26
29
30
35
38
45
48
50
55
60
60
65
71
71
76
86
89
93
95
95
95
91
86
81
71
59
50
39
30
24
19
12
6
0
-7
-14
-18
-20
-19
-18
-19
-20
-19
-22
-23
-22
-23
-23
-22
-22
-22
-22
-23
-20
-19
-18
-18
-20
-18
-19
-18
-18
-18
-13
-13
-13
-11
-14
-18
-18
-18
-18
-18
-18
-19
-22
-22
-23
-23
-23
-23
-22
-23
-23
-26
-23
-23
-22
-23
-23
-26
-23
-22
-20
-19
-23
-24
-24
-22
-23
-20
-20
-22
-22
-23
-20
-19
-22
-23
-23
-19
-18
-22
-23
-22
-19
-18
-22
-23
-22
-18
-19
-18
-18
-15
-15
-14
-13
-9
-5
-2
3
4
9
13
11
8
2
-2
-7
-13
-17
-14
-18
-19
-22
-27
-23
-24
-26
-24
-23
-26
-26
-23
-22
-22
-20
-15
-2
15
33
43
58
82
116
149
169
159
99
-7
-101
-143
-150
-144
-114
-74
-37
-18
-19
-23
-24
-23
-18
-18
-15
-15
-14
-15
-11
-9
-9
-9
-9
-7
-7
-5
-4
-2
-1
-1
-1
-1
3
0
0
3
3
8
8
9
12
13
15
13
13
19
22
28
33
37
39
39
45
43
45
48
55
61
65
74
74
81
86
94
97
97
98
97
99
97
94
87
81
69
58
48
39
33
26
20
11
2
0
-2
-1
-1
-4
-7
-7
-7
-7
-7
-6
-6
-7
-5
-2
-4
-7
-9
-10
-9
-5
-2
-1
-1
-4
-1
-1
0
-1
-4
-5
-2
-1
-1
2
0
0
2
-1
0
-1
-1
-1
-2
-4
-2
-4
-5
-7
-7
-6
-7
-4
-5
-7
-7
-5
-7
-6
-5
-4
-7
-6
-7
-7
-9
-9
-7
-7
-5
-6
-9
-13
-11
-13
-11
-10
-6
-7
-7
-9
-9
-9
-9
-9
-9
-6
-5
-2
-2
-4
-7
-5
-2
-2
2
3
8
12
13
17
22
24
21
13
6
-1
-5
-9
-7
-6
-1
-2
-7
-9
-13
-14
-17
-14
-14
-13
-13
-13
-13
-9
-2
3
16
34
54
71
91
123
155
175
172
138
60
-44
-113
-130
-117
-84
-46
-20
-9
-9
-9
-9
-5
-6
-4
-5
-4
-2
-2
2
3
3
3
4
8
8
8
7
6
7
8
13
16
19
19
19
20
22
24
24
26
28
28
33
34
33
37
38
43
46
51
54
58
61
67
74
78
82
86
90
97
102
106
107
111
116
119
123
124
124
123
123
116
102
86
74
60
52
45
39
35
33
30
29
24
22
20
19
17
16
15
13
13
13
13
17
16
19
19
16
15
13
11
15
13
12
9
6
6
8
13
17
20
22
22
20
20
19
19
16
19
19
20
17
13
12
13
13
15
13
16
16
19
13
12
8
8
7
6
8
9
12
13
16
12
12
8
4
3
3
8
9
12
11
6
7
8
11
12
8
8
6
6
7
8
3
3
3
6
3
3
4
3
3
2
2
2
6
8
8
6
9
13
16
16
19
24
33
37
37
29
17
12
3
2
2
2
3
3
-1
-2
-5
-5
-4
-1
-1
-2
-7
-7
-5
-2
-2
2
9
24
41
56
69
89
123
159
185
184
141
52
-44
-97
-111
-111
-101
-71
-33
-9
-1
2
0
-1
2
2
3
3
6
8
12
16
13
13
12
13
16
17
16
16
15
16
19
22
22
22
21
20
20
22
26
33
35
34
33
33
33
35
38
41
48
48
50
54
58
64
68
74
72
74
78
86
94
95
97
102
107
112
115
117
119
116
112
104
99
91
82
72
64
56
48
41
30
24
20
19
13
9
8
9
11
9
9
9
8
6
8
9
11
6
8
9
11
9
8
13
16
16
16
16
15
13
16
16
19
19
16
13
12
9
8
9
11
12
13
13
13
13
13
13
12
12
11
12
16
16
16
15
13
9
7
3
4
6
6
6
3
6
7
8
8
7
6
6
7
8
8
9
7
4
7
8
8
8
6
8
8
8
8
9
8
9
12
12
16
17
16
19
20
24
29
32
35
41
41
39
33
24
13
13
12
9
8
6
8
8
7
8
8
8
7
6
4
6
8
8
11
12
16
24
39
60
73
87
116
155
190
211
203
149
47
-52
-101
-114
-108
-78
-43
-7
9
13
8
9
15
19
22
21
24
22
22
24
25
26
29
30
32
30
30
30
34
34
38
41
42
41
41
43
46
45
45
45
50
52
54
55
58
58
58
61
65
71
72
74
81
81
87
94
99
111
112
115
119
124
128
133
138
142
143
143
145
143
138
136
128
120
112
104
97
87
81
72
64
52
45
39
37
39
35
35
32
33
33
32
33
30
32
34
34
34
35
32
34
37
39
38
38
41
41
45
41
39
37
38
41
43
41
39
37
39
41
45
39
34
30
29
33
34
35
37
37
39
37
34
34
34
37
34
34
33
33
33
30
26
30
30
34
34
30
30
29
30
29
29
29
30
30
32
33
35
37
35
33
33
33
34
34
30
29
29
29
29
28
29
29
34
35
37
35
34
35
38
39
45
50
48
50
50
50
52
58
61
60
54
48
39
37
37
37
34
33
30
29
29
29
29
26
26
29
30
29
32
35
35
39
45
55
74
94
107
123
154
190
216
220
186
107
3
-67
-87
-75
-48
-14
19
34
43
39
34
34
37
39
41
42
45
46
46
46
45
48
50
50
50
50
52
52
55
56
58
60
61
64
64
61
64
65
68
68
71
77
76
78
81
78
81
91
94
97
99
103
110
111
113
119
123
128
133
136
141
147
151
158
162
165
169
169
172
169
169
164
154
145
133
123
116
106
95
86
81
73
69
65
64
61
58
58
54
50
50
50
51
54
48
50
50
52
50
46
47
50
54
55
51
48
46
50
50
50
52
54
55
55
55
55
55
55
54
51
52
52
52
50
48
47
45
43
42
45
43
43
43
45
45
43
39
41
39
41
41
37
38
41
41
39
39
41
43
45
43
39
37
37
37
39
41
41
41
39
37
34
34
35
38
37
37
35
34
37
38
38
39
37
34
34
34
35
33
35
37
41
43
39
43
45
48
50
55
58
63
65
64
60
54
46
42
41
41
38
37
37
35
32
29
28
26
26
29
29
24
30
29
33
33
34
39
52
71
86
102
121
159
195
224
227
185
97
-7
-70
-91
-91
-70
-33
3
26
34
37
35
35
34
35
37
38
39
41
45
46
45
45
45
47
50
52
52
51
54
54
55
55
58
58
58
59
60
63
64
68
68
69
71
72
76
74
76
80
82
86
86
94
97
103
107
111
116
120
128
130
137
141
145
149
154
158
159
159
159
154
151
145
138
130
120
111
102
91
86
80
76
72
61
55
54
52
46
50
47
47
45
43
43
45
45
46
45
45
45
45
45
47
48
50
50
50
48
50
50
51
50
48
48
48
50
50
52
52
50
48
48
50
50
50
47
45
43
43
39
45
43
43
43
41
43
43
43
45
41
43
43
45
41
41
42
41
42
43
41
39
39
42
45
45
45
42
39
37
38
37
34
35
35
39
39
41
39
39
41
41
37
38
41
41
41
41
47
47
50
46
47
48
54
58
60
65
69
71
71
65
61
55
48
45
41
42
43
45
41
35
34
33
33
35
34
37
39
41
39
37
38
39
47
64
84
97
113
139
177
215
238
230
180
81
-20
-78
-92
-82
-52
-13
22
41
45
41
39
41
45
47
48
50
50
52
54
54
55
60
60
61
64
64
64
65
65
69
68
68
72
72
74
76
76
77
78
81
86
85
89
90
93
95
97
97
98
103
106
111
116
120
128
130
136
141
145
149
154
159
164
171
177
178
181
181
182
180
175
167
159
152
138
124
116
107
97
89
81
78
76
68
65
61
60
60
59
58
55
55
52
54
55
55
55
55
55
55
58
56
59
58
60
61
60
60
60
58
60
60
61
61
60
60
61
61
64
63
61
58
54
51
48
50
50
50
52
52
54
52
52
52
54
55
55
54
51
50
50
52
50
50
48
50
50
51
51
52
52
54
54
52
51
50
50
46
45
45
43
45
46
46
47
45
43
48
50
50
47
42
45
45
47
46
45
48
48
50
52
52
54
55
55
58
60
65
72
74
76
76
76
74
68
63
60
55
51
48
50
52
50
46
43
41
43
43
39
45
46
48
47
45
48
51
60
74
93
112
128
152
185
217
232
221
177
86
-11
-69
-78
-61
-28
11
37
48
50
50
47
45
46
52
54
58
59
58
55
54
54
55
58
59
63
61
64
71
65
65
65
65
72
71
72
73
74
77
78
82
86
86
86
86
86
89
91
93
95
100
106
111
116
119
123
126
133
137
143
146
154
162
169
169
171
175
177
178
178
178
169
164
158
149
141
128
119
107
97
91
82
74
68
67
64
64
61
59
60
58
58
55
55
55
55
54
50
50
51
54
55
54
55
55
54
54
54
54
55
56
55
51
51
52
54
54
52
55
55
55
54
52
51
48
45
45
41
41
41
41
41
41
41
39
39
39
39
39
39
39
39
37
35
34
34
37
37
37
37
37
35
34
34
33
33
33
34
37
33
34
30
28
24
24
26
29
29
28
29
29
29
29
28
26
28
25
24
28
29
29
26
24
24
22
21
22
24
26
29
29
29
29
33
35
34
37
39
45
50
51
50
50
41
33
24
19
22
24
26
22
17
13
12
12
12
13
13
13
13
13
13
13
15
16
22
37
54
68
81
97
133
172
201
207
175
86
-19
-95
-122
-119
-95
-54
-18
6
12
11
8
8
13
15
17
17
19
21
22
24
24
24
24
24
24
24
24
26
29
30
32
33
34
37
37
34
34
37
38
39
41
41
43
46
50
54
58
60
61
64
65
68
72
78
78
82
87
97
106
107
111
112
120
128
130
136
137
136
136
129
124
116
107
97
87
80
71
63
55
50
45
41
37
33
29
28
24
22
21
20
19
19
16
16
19
13
19
20
19
19
16
20
21
22
22
19
19
20
22
22
21
22
24
26
25
24
19
16
16
19
19
20
19
19
19
19
16
13
19
19
19
19
16
15
16
16
19
19
17
15
13
12
8
12
12
13
12
12
13
13
12
8
7
8
11
9
12
12
12
13
15
13
16
13
12
9
9
11
12
12
13
13
16
15
13
13
9
12
12
13
12
12
13
13
12
13
13
13
19
16
19
22
26
29
33
38
43
43
43
39
32
22
15
12
13
13
13
13
12
11
8
8
6
6
8
8
9
11
9
12
13
20
33
51
71
85
111
138
175
197
199
168
86
-22
-96
-126
-119
-96
-57
-18
4
11
11
11
9
13
16
17
19
20
20
20
20
20
21
22
24
28
24
26
28
29
33
34
34
33
30
33
33
35
38
42
45
45
46
47
50
50
51
58
61
61
65
68
72
74
81
87
94
97
102
107
112
116
123
126
133
138
141
143
147
147
147
143
138
128
119
107
95
86
78
71
65
58
50
41
41
37
34
30
25
28
22
20
22
22
21
22
22
22
22
24
24
28
28
29
30
30
29
26
28
29
30
29
29
26
22
21
22
24
24
24
24
24
24
25
24
20
22
22
22
22
20
22
19
16
16
17
19
19
19
20
20
19
13
12
9
12
16
19
20
19
19
19
16
13
13
15
13
12
13
13
13
13
13
13
16
16
13
16
19
19
19
16
12
13
13
16
16
13
19
20
19
16
12
12
13
12
12
13
13
13
13
9
11
16
19
20
24
28
29
30
35
37
41
43
45
41
35
30
22
21
20
20
20
19
12
9
9
11
11
7
8
3
3
3
8
11
12
17
30
45
64
78
94
123
155
186
197
177
119
20
-67
-111
-114
-92
-57
-19
2
13
13
13
13
12
9
13
15
20
22
20
20
21
20
19
22
24
28
26
28
29
29
29
29
30
32
35
37
38
39
41
41
43
45
50
50
50
52
54
58
60
64
65
68
68
72
78
82
89
91
97
102
107
111
116
123
128
129
136
138
142
143
138
138
133
126
120
111
99
86
78
69
60
52
48
43
38
34
30
33
33
30
28
20
16
13
13
16
20
22
22
22
19
19
19
20
22
22
20
22
21
20
22
21
24
25
26
26
26
26
22
20
19
19
20
22
22
22
20
16
16
15
16
19
19
16
16
15
16
13
11
12
12
12
12
12
12
12
9
11
9
9
11
12
11
8
11
8
8
9
8
9
12
12
11
8
8
6
6
4
4
6
2
3
3
4
3
3
2
3
6
6
4
3
3
3
2
3
3
3
4
6
6
6
6
7
8
8
16
19
24
29
29
37
35
29
21
15
12
8
6
3
3
3
-1
-2
-2
-2
-2
-2
-2
-2
-1
-1
3
2
2
3
8
22
37
51
65
86
120
158
186
195
164
82
-26
-95
-123
-127
-113
-75
-35
-7
2
-1
-2
-1
3
6
8
8
12
12
13
13
12
13
15
16
16
16
20
22
22
22
21
19
22
24
26
26
28
29
29
33
35
38
39
39
45
47
45
50
54
55
58
55
61
65
71
76
81
86
91
97
102
106
111
115
120
124
128
128
130
130
128
125
120
112
102
94
81
72
63
55
48
45
37
33
29
24
24
22
19
20
19
16
16
12
16
19
19
19
19
20
20
20
20
20
21
22
21
22
22
20
19
22
24
25
24
22
22
21
21
19
19
19
15
13
13
16
17
19
16
15
13
16
17
16
16
9
12
12
13
16
13
13
13
12
11
9
9
12
12
12
9
9
12
13
16
15
13
13
9
11
11
8
7
8
8
8
8
9
9
9
9
12
12
13
12
9
6
3
8
9
11
8
6
8
8
8
8
9
11
11
12
13
15
17
19
20
24
29
33
39
41
39
37
30
24
17
12
12
12
11
9
9
11
8
7
3
3
6
8
8
11
9
8
8
7
16
29
50
65
81
97
128
164
189
195
176
116
20
-62
-102
-109
-91
-59
-23
3
12
12
11
12
15
19
19
20
22
25
26
28
26
29
29
30
32
29
29
30
30
29
34
37
37
37
37
39
41
43
46
46
48
50
52
54
55
58
60
61
65
65
68
72
76
78
81
86
94
99
104
107
113
119
123
128
130
136
138
141
145
145
146
149
143
136
123
111
102
91
82
74
65
58
54
45
39
34
33
30
30
30
30
30
30
29
29
29
29
26
26
28
26
25
25
28
26
25
24
24
24
24
28
29
30
29
29
29
26
26
24
29
29
29
29
28
26
26
26
28
24
24
24
24
24
21
20
19
19
19
19
16
16
16
19
20
20
17
19
19
19
19
19
13
12
12
15
16
16
13
13
13
12
16
16
16
16
13
13
16
16
15
13
12
13
16
16
13
12
12
13
12
12
9
9
12
13
13
13
13
13
12
12
13
13
12
13
16
19
21
24
29
34
37
35
45
45
43
37
28
24
20
20
20
16
15
13
12
7
3
4
4
4
4
8
8
8
8
8
12
19
34
52
69
81
97
128
162
189
199
177
116
19
-66
-105
-106
-91
-56
-19
7
16
13
9
11
9
9
9
12
16
20
20
20
19
20
22
20
24
24
24
28
29
29
29
29
29
32
34
37
34
35
39
45
43
43
46
47
50
50
52
55
58
60
64
71
69
68
68
73
82
86
94
95
99
106
110
119
123
128
129
133
134
136
136
129
126
120
111
100
90
81
72
64
58
50
45
39
34
29
25
20
20
20
22
20
16
12
16
16
19
19
13
16
16
19
19
16
16
19
19
19
19
19
22
22
20
20
21
20
19
19
17
19
19
19
19
20
17
13
12
11
9
12
12
8
8
6
8
8
8
4
3
3
0
3
3
3
2
3
6
3
3
6
6
6
6
4
2
-2
-2
0
2
3
6
4
6
3
2
-2
-4
-2
-1
-1
-1
-2
-1
-1
-1
-1
3
2
2
-2
-1
0
-2
0
-1
-1
-2
-2
2
3
6
6
3
8
12
15
19
20
29
33
34
29
24
16
9
4
2
-1
-2
-1
-2
-6
-7
-9
-6
-9
-7
-9
-7
-5
-5
-5
-2
-1
2
13
30
47
60
78
102
138
169
185
165
93
-11
-87
-117
-122
-111
-78
-39
-9
6
4
2
-2
-1
2
2
3
4
4
8
8
6
9
12
12
13
12
12
13
16
19
20
20
20
20
20
19
24
24
28
28
29
33
35
37
37
34
38
39
41
43
48
52
52
54
58
60
67
74
76
81
86
91
97
102
106
107
111
115
119
117
119
113
112
107
102
91
81
72
60
50
41
32
24
20
19
16
16
13
13
9
8
8
3
3
6
6
8
12
12
12
8
6
6
6
6
8
9
12
12
12
12
12
13
15
13
12
9
9
12
11
9
8
3
3
-1
2
3
3
2
3
3
3
4
4
4
3
3
3
6
6
4
3
3
3
3
2
0
3
3
2
4
4
8
8
6
-1
-2
-5
-2
-2
-2
-1
-1
-4
-5
-4
-5
-2
-2
-2
-2
-6
-2
-4
-2
-2
-1
-1
2
3
2
-1
2
2
0
0
2
3
3
2
2
6
9
16
22
28
32
34
29
22
15
9
3
3
-1
0
-2
-2
-7
-7
-7
-9
-9
-11
-7
-6
-5
-5
-5
-5
-2
3
12
29
45
56
71
90
128
162
182
185
152
67
-40
-113
-137
-131
-102
-61
-23
-4
-1
-2
-2
-1
0
3
3
6
8
8
8
9
9
8
13
16
19
19
16
16
19
20
20
21
20
21
22
22
26
29
30
34
35
35
35
38
42
45
50
54
55
58
60
63
65
71
76
80
81
89
93
99
106
112
116
124
123
124
128
130
136
130
124
119
113
107
99
94
82
71
55
46
41
37
30
29
24
22
20
17
19
16
16
16
16
19
16
16
19
16
17
16
20
20
19
19
16
11
11
13
16
16
15
19
17
19
20
21
21
19
15
13
13
15
16
17
19
16
13
13
12
11
12
13
13
12
13
16
15
12
11
8
6
3
2
3
6
6
6
8
8
8
7
6
4
6
6
8
9
8
6
7
6
6
6
6
8
8
9
13
15
12
9
3
-2
-4
-1
0
2
4
3
3
4
3
7
8
9
11
9
9
12
13
13
16
20
22
22
29
34
38
39
34
35
32
24
16
8
3
3
4
6
3
-1
-2
-4
-1
0
2
2
3
2
4
6
9
13
24
39
55
71
91
124
159
185
190
169
102
-2
-85
-123
-119
-89
-50
-18
-4
-1
-2
-2
-1
2
4
8
8
7
8
9
11
13
13
15
13
16
19
19
22
24
24
24
26
28
29
26
29
29
29
30
35
37
37
34
37
39
43
48
52
52
54
56
60
63
65
74
78
86
89
94
97
99
103
107
113
120
128
129
130
128
126
128
128
123
117
111
99
89
78
68
56
48
41
37
33
30
26
24
19
17
17
19
16
19
19
20
19
13
13
13
16
19
21
20
20
19
16
16
17
20
20
20
20
20
22
24
24
24
24
24
20
19
19
20
19
20
20
20
16
16
13
16
17
16
11
11
11
12
12
11
12
12
12
12
11
12
13
9
11
8
8
11
12
9
9
9
11
9
8
9
12
12
9
9
8
8
9
9
11
12
12
9
8
4
4
7
11
9
8
6
3
2
3
6
6
7
6
9
11
12
13
13
16
16
19
22
24
29
32
37
39
37
29
21
16
9
8
8
8
7
6
6
3
3
2
2
3
2
2
2
3
6
8
9
22
38
55
68
86
110
147
177
186
164
97
-1
-75
-105
-109
-97
-75
-43
-13
6
11
9
13
12
11
8
7
9
11
13
15
15
19
19
19
20
22
21
22
24
24
26
29
29
30
33
30
34
37
39
39
41
45
43
45
48
50
52
55
58
61
65
65
68
69
71
74
78
82
89
95
100
106
111
115
119
123
125
128
128
130
130
128
120
113
103
93
81
77
65
60
54
48
37
33
26
24
22
20
20
20
19
20
19
19
16
19
20
20
20
20
21
22
24
24
24
24
24
24
24
24
24
24
24
24
26
25
24
20
16
12
16
17
19
16
13
16
13
13
16
16
16
16
13
13
13
13
16
16
13
13
13
13
15
13
12
8
8
9
12
12
11
4
6
6
8
8
9
12
11
8
9
11
9
9
8
8
6
8
12
12
9
8
9
8
8
7
8
8
8
8
8
8
7
8
9
13
15
13
13
15
19
22
26
30
37
39
37
29
21
16
12
11
11
13
13
9
6
0
-2
3
8
8
6
-1
-1
0
3
4
8
13
26
45
60
76
91
120
154
178
182
160
94
-7
-80
-111
-105
-82
-50
-19
3
8
8
8
8
8
12
13
15
17
19
19
16
17
20
19
20
17
20
20
24
24
24
28
29
26
30
30
33
33
32
35
37
39
39
41
42
43
47
50
54
55
60
58
59
63
68
72
81
86
90
94
95
99
108
113
120
123
123
126
125
128
128
128
123
111
102
91
82
76
65
55
48
42
37
33
29
29
26
24
22
19
13
12
9
12
13
16
16
17
16
13
13
13
13
16
19
16
13
12
12
12
16
19
19
16
13
16
13
13
16
16
16
13
15
12
12
9
8
8
8
8
8
8
8
9
9
8
6
4
6
6
3
3
3
3
6
4
6
3
0
0
0
-1
2
2
2
3
-2
-1
-1
-1
2
0
0
-1
0
2
3
3
3
2
2
3
0
0
-1
-2
-2
-2
-1
-1
-1
0
3
3
3
7
8
9
13
15
19
22
26
32
30
28
20
13
8
8
6
2
-1
-4
-4
-2
-2
-5
-7
-7
-6
-6
-7
-5
-5
-2
-2
0
9
24
39
50
61
86
124
162
186
178
123
24
-61
-105
-122
-121
-98
-59
-23
-5
-1
-4
-7
-1
2
4
6
3
6
8
8
9
9
12
9
12
13
13
13
13
16
19
20
17
19
20
22
24
26
28
28
29
30
33
33
38
39
42
45
50
51
54
58
60
64
67
68
72
76
86
86
91
95
99
103
106
110
113
119
121
120
116
111
103
98
91
81
68
60
54
45
39
35
30
26
22
20
16
12
9
9
12
12
12
9
12
13
13
13
11
11
7
9
11
12
12
8
13
13
13
13
12
13
12
13
13
12
13
12
12
9
9
8
11
12
12
12
9
8
8
8
8
8
8
6
3
3
3
6
6
4
4
2
-1
4
4
6
6
3
6
6
3
2
2
2
3
3
3
2
3
4
4
6
3
2
-1
-1
2
2
2
2
3
2
2
-1
-1
0
0
-1
0
2
4
8
8
11
13
16
19
20
24
24
33
34
33
26
19
13
8
6
4
6
8
6
3
-1
-2
-2
-1
-2
-2
-2
-2
-2
-2
0
3
8
16
30
47
64
77
103
141
177
190
182
128
33
-63
-113
-122
-109
-78
-40
-11
3
3
6
6
8
6
6
6
6
8
12
13
16
16
19
16
16
19
20
21
22
24
24
24
24
26
26
29
33
34
37
37
37
39
41
45
45
48
47
50
52
55
60
60
68
73
72
74
76
82
87
95
102
106
111
115
117
120
124
128
133
136
132
128
126
123
117
111
97
86
76
64
56
52
45
39
34
29
24
22
20
20
17
16
16
13
16
16
19
17
12
12
13
16
19
19
20
19
17
19
19
19
19
19
20
20
19
20
20
19
20
20
20
19
16
16
13
15
16
16
15
15
13
11
8
8
9
8
9
9
9
9
8
9
9
11
8
8
6
4
3
3
3
4
6
8
9
8
6
3
6
6
6
4
3
3
4
6
6
3
3
6
6
3
-1
-2
-1
3
2
2
3
3
2
3
2
3
3
3
3
3
3
3
6
6
6
8
13
16
22
26
30
33
33
29
26
20
13
8
6
6
4
3
3
3
3
0
-2
-6
-9
-11
-7
-6
-5
-2
-1
3
3
15
29
45
58
71
86
119
152
177
182
160
102
6
-75
-114
-119
-98
-65
-28
-5
4
6
3
0
-1
-1
3
2
6
8
8
9
13
12
12
12
13
12
12
13
15
13
19
20
22
24
22
28
30
29
30
29
29
30
33
37
39
43
43
45
43
47
50
54
58
61
64
69
73
81
86
89
95
99
103
107
112
115
120
124
128
128
128
124
115
104
97
89
82
71
61
54
45
34
30
26
21
19
16
13
15
13
12
9
7
6
8
8
9
8
8
8
8
9
9
8
8
8
11
11
12
12
12
12
8
8
8
11
9
9
6
8
8
4
6
4
8
8
8
6
3
3
3
3
2
3
3
3
2
2
3
3
-1
-2
-2
-2
-2
2
-1
-1
-1
-2
-2
-5
-5
-5
-7
-2
-4
-5
-2
-2
-7
-5
-6
-6
-5
-7
-5
-6
-5
-5
-5
-2
-2
-2
-4
-5
-4
-7
-6
-5
-4
-2
-6
-5
-5
-7
-6
-7
-4
-2
-4
-2
-5
-1
3
8
9
13
13
19
21
21
19
12
4
2
-2
-5
-2
-2
-6
-10
-15
-14
-13
-11
-13
-11
-9
-9
-10
-11
-9
-9
-7
-1
9
24
38
50
60
86
123
158
178
172
124
29
-59
-106
-123
-122
-104
-69
-33
-13
-5
-7
-9
-11
-6
-5
-4
0
-2
-1
0
0
3
4
8
8
8
8
7
6
8
8
12
16
13
13
15
16
13
13
16
20
22
26
26
26
29
32
33
34
39
43
45
50
54
55
59
60
64
71
80
82
86
93
97
102
102
103
106
112
112
112
111
104
102
95
86
78
68
58
48
41
35
29
22
19
13
9
8
4
6
6
8
6
4
2
-1
2
3
3
7
8
3
3
0
2
3
4
9
12
11
8
3
3
7
7
8
6
4
3
3
6
6
6
4
6
3
4
3
6
6
7
8
6
6
3
-1
-1
3
6
6
3
3
0
-2
-1
-2
0
2
-1
3
2
2
3
3
3
0
-2
-1
0
2
3
3
2
-1
-1
-1
-1
-2
-1
-1
2
2
0
3
-1
-1
2
2
4
3
6
3
4
6
9
13
16
17
20
22
24
29
26
24
19
9
8
6
4
3
3
3
-1
-5
-9
-9
-7
-5
-5
-2
-4
-1
-1
3
4
7
12
22
41
55
71
89
121
158
186
195
175
108
6
-84
-126
-134
-117
-80
-43
-10
2
-5
-4
-4
-2
-2
-1
3
6
11
9
9
11
12
13
13
13
13
15
17
19
21
22
24
24
24
24
24
24
24
26
33
34
35
32
34
37
39
37
42
45
50
54
55
60
61
67
74
81
86
91
93
98
102
106
111
116
123
124
128
130
130
128
126
121
116
108
102
91
82
74
65
58
50
41
34
29
22
20
17
19
16
13
13
12
11
13
13
12
9
9
13
13
16
16
16
16
16
15
15
15
15
16
16
19
15
16
16
16
16
17
16
16
13
12
13
13
13
13
13
13
13
13
12
12
12
13
12
13
8
6
3
0
3
7
8
7
4
3
4
6
6
6
3
3
4
6
4
3
3
2
0
3
3
3
3
2
-1
2
2
3
3
3
3
3
3
3
3
8
8
12
9
12
13
16
24
26
30
29
29
29
24
17
9
6
6
6
6
6
6
3
0
-5
-5
-5
-5
-5
-5
-4
-4
-2
-2
3
9
22
42
63
76
93
124
162
185
189
160
82
-18
-101
-126
-119
-91
-48
-13
8
8
2
-2
-2
0
3
6
8
9
12
13
13
13
16
16
16
19
19
19
20
22
24
25
28
29
28
29
29
33
30
33
35
37
38
39
39
46
50
50
50
50
54
58
61
65
71
74
80
82
89
94
97
102
106
111
116
120
124
128
130
136
136
137
134
130
124
116
104
95
86
78
71
61
55
52
46
39
34
30
29
25
22
19
20
20
22
22
20
21
22
20
21
21
24
24
26
25
26
24
24
25
26
28
26
26
29
29
29
28
29
30
32
34
33
30
28
24
22
21
22
21
22
20
21
19
22
22
22
19
16
20
21
21
22
20
20
19
19
19
19
20
19
20
20
20
20
20
22
21
22
22
22
24
19
11
9
12
13
13
16
13
16
16
17
17
19
13
16
17
19
19
16
21
22
28
26
29
34
39
43
46
50
50
50
42
34
24
19
17
16
13
11
9
9
8
9
9
12
8
8
8
8
11
13
16
16
19
26
46
65
78
89
111
147
177
195
188
152
72
-26
-88
-106
-96
-70
-33
2
19
21
19
13
12
13
15
15
13
13
16
19
20
21
21
22
24
26
26
29
30
32
33
33
35
35
37
41
41
39
43
45
50
50
48
48
50
51
50
52
54
58
63
68
72
73
76
78
82
86
91
97
103
111
116
117
123
126
128
132
137
141
141
138
136
130
123
116
107
97
85
78
64
55
50
45
39
35
33
33
29
29
29
24
22
20
22
24
25
24
24
24
26
26
26
29
29
28
26
29
29
30
29
29
29
28
26
26
29
29
29
29
29
26
25
26
29
26
21
22
24
22
20
19
20
21
22
19
19
19
19
21
22
22
21
20
19
19
19
19
19
20
22
20
13
12
12
12
13
12
15
13
13
19
16
16
12
11
12
12
11
12
12
12
13
9
12
12
12
13
13
13
12
12
12
12
13
13
17
17
16
13
12
9
8
12
17
21
29
30
35
39
39
37
29
22
16
13
12
9
11
8
7
6
6
6
3
0
0
3
3
3
6
7
6
8
12
22
39
55
67
77
103
138
169
186
181
136
43
-50
-97
-114
-111
-92
-59
-23
-2
6
3
2
3
3
8
8
9
11
11
9
12
11
13
15
13
16
16
20
20
20
22
22
20
20
22
24
28
26
24
24
22
24
25
30
33
35
38
41
41
43
46
50
52
55
59
64
65
72
76
80
81
89
94
98
99
103
107
112
119
117
119
117
113
112
103
95
82
72
63
55
50
45
39
34
26
22
17
15
16
13
12
9
11
9
12
12
12
12
13
16
13
12
9
12
12
9
8
8
11
11
8
9
11
12
12
11
12
12
9
9
11
9
12
9
11
9
8
8
8
7
7
8
8
8
8
8
8
8
8
8
6
-1
-2
-5
-2
-1
2
3
0
-1
0
2
-1
2
0
2
3
-2
2
-1
-1
-1
-2
-1
-1
-1
0
2
-2
-1
-1
2
4
3
3
2
-1
-2
-2
-2
-2
-2
-4
-5
-4
-2
-1
2
3
8
8
11
11
12
12
19
22
26
29
30
33
29
22
16
8
4
3
3
3
3
0
-5
-13
-14
-13
-11
-9
-7
-7
-5
-5
-6
-6
-2
4
16
33
54
65
82
112
149
177
185
162
97
-2
-85
-122
-122
-97
-65
-30
-7
-2
-6
-13
-10
-6
-4
-2
2
3
6
6
8
8
8
8
9
11
11
9
12
13
15
17
19
19
20
20
22
22
24
26
30
33
35
34
34
35
34
39
39
45
45
48
54
52
60
65
68
72
80
82
86
86
91
95
102
107
112
119
121
128
128
128
128
123
120
116
107
97
86
76
65
58
50
43
37
34
30
26
22
20
16
20
22
20
17
11
11
12
13
13
12
13
16
19
19
15
19
21
22
20
21
19
19
19
19
20
20
20
19
17
16
16
16
19
20
20
19
16
13
12
12
13
16
13
11
7
8
6
8
9
12
12
9
12
13
12
9
8
8
8
6
4
3
3
3
6
6
8
8
11
13
13
13
9
6
3
2
6
4
3
3
3
4
4
6
6
6
8
8
4
8
6
6
6
6
11
9
8
8
8
8
8
9
8
8
9
11
13
16
21
24
29
33
38
39
41
37
33
24
19
16
13
13
13
13
9
9
6
3
6
6
6
6
4
6
6
4
8
12
16
30
46
61
74
89
119
154
178
189
175
119
22
-67
-109
-111
-95
-63
-28
-2
8
8
8
8
8
8
6
6
11
13
16
15
13
12
12
13
15
19
19
16
20
19
19
20
20
24
24
26
28
26
29
29
33
34
34
37
37
39
41
45
48
50
52
54
55
58
64
69
74
74
78
82
86
94
99
104
107
111
115
119
120
124
124
125
124
120
116
106
99
87
81
76
64
55
50
41
35
33
29
29
28
24
21
19
16
16
16
17
16
16
17
20
20
16
19
15
16
16
19
19
20
20
19
22
21
21
21
22
19
21
21
24
22
22
22
22
20
20
19
19
20
19
17
19
20
19
17
19
19
19
17
20
19
19
17
16
15
16
17
16
19
16
16
19
16
17
16
19
19
20
17
20
19
15
13
12
13
13
12
11
8
8
9
13
13
13
13
11
12
13
16
15
16
16
13
12
12
13
13
15
16
19
21
22
22
24
25
30
33
37
43
48
45
41
33
28
19
13
15
16
16
13
9
8
8
8
8
9
8
8
8
8
8
9
12
19
25
39
59
72
86
107
143
178
202
206
175
97
-6
-84
-115
-117
-102
-70
-30
-2
12
13
9
9
11
13
16
19
16
20
22
22
24
24
24
26
29
30
34
34
33
30
30
33
33
35
38
41
39
39
42
43
45
48
50
50
54
55
59
61
64
65
71
72
76
81
80
86
89
95
102
102
107
115
123
128
130
133
136
138
141
143
143
143
138
136
126
120
107
99
89
82
73
64
58
55
52
47
46
43
39
37
34
33
33
35
34
34
35
33
33
30
29
30
33
34
37
37
37
38
37
37
38
37
38
37
34
37
37
37
34
37
35
33
33
33
33
33
34
33
33
29
30
29
30
30
29
26
26
26
26
26
28
26
21
26
28
26
24
22
24
24
25
26
28
26
24
24
22
24
24
24
24
24
24
24
24
26
25
26
26
25
24
24
24
21
21
22
20
19
21
24
22
24
24
22
19
22
20
22
22
22
26
29
29
33
34
39
45
46
50
50
52
54
51
48
45
35
29
26
24
22
22
22
20
16
13
16
13
16
19
19
19
20
19
19
21
29
39
60
78
91
110
141
175
203
211
188
123
19
-65
-101
-101
-79
-43
-5
19
22
19
19
19
21
24
26
29
29
26
26
29
26
28
30
29
33
33
34
37
37
39
41
45
42
42
45
48
46
51
52
52
54
52
55
58
61
65
68
71
74
76
81
82
87
94
94
99
103
107
113
116
121
125
129
133
137
143
147
149
150
152
154
154
151
145
137
128
120
111
103
91
81
69
64
54
51
50
43
39
33
33
29
30
32
33
34
35
35
34
33
33
35
37
37
34
34
34
37
41
43
43
39
37
33
29
30
35
34
33
30
29
30
29
29
28
26
24
29
28
25
25
24
28
26
24
24
24
24
25
29
28
26
24
22
20
20
20
20
22
24
25
24
22
22
22
20
19
20
20
20
19
16
16
19
19
19
20
22
16
16
16
15
19
16
17
17
19
19
16
19
19
16
13
12
13
16
17
19
20
19
19
20
20
20
24
24
28
29
34
37
39
41
43
45
41
38
29
22
19
16
13
16
19
16
13
9
12
11
8
8
8
9
9
12
11
9
13
19
30
50
71
82
97
123
156
185
199
185
133
37
-54
-101
-106
-84
-52
-18
3
12
12
9
12
13
16
19
19
19
19
16
21
20
20
24
22
24
29
29
29
29
29
29
29
30
33
34
37
37
37
37
37
41
45
45
48
52
54
55
55
55
55
58
61
68
71
74
78
81
89
91
95
103
104
111
112
119
125
126
133
134
134
136
133
130
124
116
106
95
86
78
72
64
54
43
39
34
30
26
22
22
20
22
20
19
16
16
19
20
20
20
20
20
19
13
13
13
16
16
13
19
19
19
16
16
16
19
19
20
19
16
16
16
19
17
16
13
12
8
8
8
8
8
8
8
7
6
8
9
11
8
6
3
3
6
3
6
6
3
4
3
-1
4
6
3
3
-1
0
-1
0
2
2
2
3
-1
-1
-2
-4
-5
-4
-5
-5
-4
-4
-2
-5
-4
-4
-4
-6
-5
-5
-5
-2
-2
-2
2
-1
-1
-4
-2
-5
-4
-5
-2
-1
-1
2
3
11
13
19
24
28
25
20
13
6
0
-2
-1
-1
-2
-5
-7
-6
-9
-9
-10
-9
-9
-7
-7
-6
-5
-5
-1
2
9
22
35
47
56
76
113
158
189
203
175
94
-15
-83
-113
-126
-122
-96
-56
-22
-2
-1
-2
-4
-2
0
3
6
8
8
9
11
12
9
12
12
13
16
19
19
20
21
22
22
22
24
26
24
24
26
30
32
33
34
34
39
39
41
45
45
50
52
55
60
65
67
72
72
76
81
86
89
91
97
103
107
112
116
119
120
123
123
120
119
112
106
97
89
80
71
64
58
52
45
39
37
30
29
30
29
26
22
26
28
24
26
26
28
25
25
24
22
24
24
24
26
26
26
24
26
26
26
26
24
24
22
22
22
20
24
22
24
21
20
19
19
19
19
19
16
16
16
17
13
16
17
15
16
13
17
16
15
19
19
16
16
16
19
17
20
19
17
13
12
8
8
9
9
12
12
12
12
12
13
13
13
13
13
13
13
13
15
16
15
13
9
15
16
17
16
12
13
13
13
13
16
19
22
24
24
26
30
34
37
42
46
45
41
34
29
24
20
17
17
19
19
16
15
13
12
13
12
13
13
13
13
13
13
19
24
39
55
76
89
110
145
182
207
211
185
112
3
-85
-119
-110
-75
-35
-1
13
15
13
12
13
16
19
20
22
22
21
22
25
25
24
24
26
26
30
33
33
34
34
35
35
37
34
39
41
43
46
45
50
52
54
55
54
55
58
60
63
67
71
77
81
86
89
94
97
102
106
111
116
119
123
128
136
138
143
149
152
151
154
149
145
138
126
119
112
97
86
77
71
59
58
52
48
43
39
39
35
29
26
28
29
30
30
29
30
29
30
29
29
29
30
30
32
33
35
35
33
34
34
37
35
34
34
33
34
34
34
35
37
39
38
33
30
26
26
26
26
26
24
24
26
26
26
28
26
24
22
21
21
20
20
20
22
22
24
24
24
22
22
22
22
24
24
22
20
20
22
20
21
21
22
20
20
16
19
19
20
19
16
19
20
21
20
19
19
19
19
19
19
20
20
22
24
25
26
29
29
29
30
30
35
41
45
48
48
50
45
39
29
24
22
20
20
20
20
13
13
13
13
13
9
13
12
13
13
15
15
16
20
29
45
64
81
95
119
152
185
204
203
169
86
-17
-89
-114
-105
-71
-32
-1
16
17
15
12
13
16
16
19
20
22
22
22
25
26
24
29
30
30
33
29
30
33
34
37
37
37
38
37
38
39
41
45
45
45
47
50
50
52
55
60
63
67
68
69
71
76
82
86
90
93
99
103
110
113
120
128
133
134
138
141
141
143
138
137
130
128
119
110
99
89
81
71
61
54
50
45
39
34
30
29
26
26
24
24
22
24
24
28
26
25
24
24
24
26
25
24
26
26
24
28
26
26
28
24
24
24
24
24
24
25
26
28
28
24
26
24
24
22
22
20
19
19
19
20
21
21
22
22
22
19
12
13
16
19
19
16
13
9
9
11
9
9
11
13
13
11
13
13
13
13
12
13
13
13
13
12
9
8
8
9
11
12
12
13
15
16
16
13
13
13
9
8
6
7
8
8
8
9
9
11
12
13
16
16
17
20
24
24
33
34
37
41
39
38
34
28
19
13
8
8
9
9
8
8
3
0
-2
-1
3
3
3
3
4
3
3
8
16
33
51
64
78
102
136
169
185
180
137
45
-57
-117
-127
-113
-80
-43
-13
3
3
-2
-2
0
3
8
9
11
7
8
7
6
6
8
11
11
12
13
13
13
13
16
19
22
24
26
28
29
29
28
29
30
35
38
38
39
39
39
41
41
41
47
52
55
60
61
69
72
78
86
87
94
97
102
107
112
116
120
126
128
128
128
120
113
107
99
89
78
68
58
50
45
37
33
28
24
19
16
13
12
12
12
8
8
7
8
8
6
8
9
12
11
9
8
8
6
8
11
13
13
9
8
9
8
9
12
12
11
8
8
8
8
9
8
8
8
8
6
6
8
8
8
8
6
4
4
6
6
6
4
8
6
6
4
2
3
-1
0
-1
-5
-5
-4
-1
3
2
0
2
3
-1
-2
-2
-2
-1
-1
2
0
-1
-2
-1
-1
-1
-1
-2
-1
2
0
-1
-1
-1
-1
3
-1
3
2
2
3
-1
-1
-1
3
6
8
13
13
19
24
29
32
29
20
13
8
6
6
4
3
3
-1
-1
-2
-4
-2
-2
3
3
2
3
-1
0
-1
4
12
26
39
55
65
89
128
169
197
204
169
85
-22
-88
-119
-130
-118
-84
-44
-11
3
4
3
3
6
9
13
13
16
16
16
16
19
19
16
16
16
19
21
22
20
21
22
24
28
26
26
29
29
29
34
34
35
37
34
39
41
45
46
50
52
54
58
60
64
68
74
76
81
82
87
94
98
102
104
110
112
115
119
121
124
123
120
116
107
102
94
86
80
71
63
51
47
42
38
34
29
26
25
24
24
24
24
20
19
19
20
22
22
24
21
22
20
20
21
21
22
24
24
24
24
26
25
24
24
24
22
22
22
21
20
22
20
19
19
19
19
19
13
16
13
13
12
12
12
12
12
9
8
9
9
9
11
9
8
11
11
9
9
9
8
8
8
6
3
3
4
3
3
3
4
3
3
3
3
3
3
3
2
2
-2
2
0
2
-1
-4
-1
-1
-1
-1
-1
-2
-1
0
-1
-2
3
6
8
9
13
16
19
22
29
34
37
34
28
19
13
8
6
2
-1
-2
-1
-1
-5
-5
-5
-5
-5
-2
-1
-4
-5
-7
-2
2
7
16
33
54
71
94
128
164
190
202
182
120
13
-84
-131
-134
-106
-67
-28
-4
4
3
3
3
3
6
8
9
9
13
13
13
13
13
13
19
19
20
20
19
24
24
28
26
26
26
29
29
33
32
35
37
39
42
42
43
46
48
54
55
56
60
63
65
68
71
74
78
86
86
94
99
106
111
113
120
124
129
133
137
141
143
138
136
130
123
116
103
94
82
74
65
58
52
45
39
33
30
28
26
24
24
22
22
22
22
22
20
19
19
19
19
19
22
22
22
20
19
19
19
20
22
24
20
24
24
24
24
20
22
24
22
19
19
19
19
20
22
21
21
20
19
19
19
19
19
19
15
13
13
13
15
17
19
16
11
12
11
11
9
13
13
13
13
9
9
11
9
9
12
11
13
13
13
13
13
13
16
16
16
16
15
12
9
9
9
11
8
8
9
12
9
8
9
8
11
8
9
11
11
13
19
21
22
24
26
32
38
41
42
43
39
29
26
20
19
16
15
16
13
9
9
8
8
8
6
4
4
7
8
11
9
12
13
22
39
60
76
93
120
158
188
203
193
146
58
-44
-106
-122
-101
-67
-28
0
9
6
3
7
4
8
8
13
13
13
13
13
13
13
16
19
20
20
22
21
22
24
24
25
26
26
28
29
33
35
35
38
37
35
39
42
47
47
50
50
51
54
58
61
65
69
72
76
82
86
93
98
104
112
112
115
117
123
128
132
136
137
137
136
128
120
111
99
89
81
72
63
55
47
41
38
35
30
28
22
19
19
17
19
19
19
16
17
16
16
13
17
19
19
17
16
20
20
22
21
20
20
20
21
20
20
20
20
22
22
22
21
22
20
19
19
17
16
19
17
19
16
16
16
17
16
13
13
9
11
11
13
13
12
9
9
9
7
8
8
8
7
6
8
9
11
9
9
12
12
12
8
8
7
8
7
6
6
8
8
8
8
7
7
6
6
6
6
6
8
8
7
3
3
3
3
6
8
8
2
6
8
9
9
8
12
13
16
20
24
29
34
39
39
33
26
20
13
9
9
12
12
12
8
3
-1
-1
-1
-1
3
2
4
3
4
3
2
8
16
32
51
68
86
106
143
175
186
171
112
9
-80
-122
-123
-102
-70
-33
-11
-2
-5
-7
-7
-5
-2
-2
-1
0
-1
2
2
2
3
6
8
7
3
3
4
8
6
8
8
9
12
12
13
16
19
16
13
12
19
21
24
29
30
35
39
39
41
43
46
51
55
61
68
74
77
76
82
86
95
102
106
110
111
112
112
113
113
113
112
111
107
102
91
82
74
64
55
48
41
33
29
25
19
19
13
13
12
11
9
12
9
9
9
9
11
12
9
12
12
13
13
13
13
13
15
15
16
19
19
19
20
20
20
22
22
20
20
16
13
12
9
8
12
13
13
13
12
13
13
13
13
13
13
12
12
12
12
13
12
12
9
12
11
9
8
6
8
9
9
8
8
8
8
6
11
12
12
9
11
7
8
6
6
6
3
6
4
3
-1
3
3
4
6
3
6
6
6
6
6
8
9
13
13
13
19
20
21
24
30
39
45
43
37
30
20
16
13
12
13
13
12
8
3
3
3
2
3
3
8
9
6
8
6
8
11
16
37
55
71
86
112
150
186
208
201
145
45
-54
-110
-126
-122
-95
-52
-14
6
9
8
8
12
13
16
16
19
20
22
24
22
21
19
22
24
24
25
30
30
33
34
33
35
35
35
39
41
45
46
50
50
51
55
60
65
74
78
81
82
84
86
86
89
91
94
93
95
98
100
106
111
112
119
123
128
128
133
136
133
133
128
121
113
111
97
87
80
69
55
51
45
39
34
29
28
21
20
19
19
19
19
16
13
13
13
13
13
13
15
16
15
16
16
16
13
13
12
13
13
13
13
16
13
13
13
12
13
13
13
13
11
13
13
9
12
9
13
11
12
12
11
13
13
13
11
9
8
8
8
9
11
11
8
8
6
3
2
0
3
4
4
3
4
2
2
0
3
-1
-1
-1
-1
-1
-2
3
3
3
3
-1
0
0
2
-1
-1
-1
0
-1
-5
-4
-5
-4
-5
-5
-7
-7
-6
-2
2
6
6
8
12
15
15
19
20
19
11
3
-1
-2
-9
-11
-11
-10
-11
-9
-9
-5
-6
-9
-11
-11
-10
-9
-10
-9
-6
0
12
30
50
69
87
119
154
180
182
149
71
-26
-88
-111
-114
-101
-75
-39
-11
-2
-1
-2
-2
0
2
3
4
6
3
9
12
12
13
13
20
24
29
28
19
16
19
22
22
20
21
26
30
34
37
37
37
39
41
45
45
45
45
45
50
52
50
59
61
63
65
72
72
73
76
81
87
93
97
102
107
115
119
123
128
128
126
121
116
111
104
97
86
76
64
55
50
41
34
30
28
24
21
20
19
17
15
16
13
13
12
11
11
9
12
13
13
12
9
8
11
12
12
9
13
16
20
20
16
19
16
16
13
13
13
13
13
13
11
12
12
9
9
8
8
11
12
9
11
8
8
9
13
13
12
9
6
8
9
9
3
3
2
3
3
-1
2
3
3
4
2
0
-5
-5
-2
-1
0
0
0
-1
-1
2
3
3
3
3
2
3
11
9
7
8
7
2
-4
-5
-5
-2
3
3
3
6
12
16
16
19
19
21
24
28
30
35
33
30
22
16
8
3
3
9
12
9
8
6
11
12
8
2
-2
-2
-4
-1
3
6
7
8
19
39
60
72
81
99
136
169
190
185
138
47
-44
-89
-98
-85
-59
-23
-1
12
11
9
8
12
22
30
29
19
9
13
17
16
13
15
20
21
24
28
33
37
37
37
37
39
35
30
37
45
48
39
33
35
41
45
43
43
41
45
51
55
58
61
68
72
73
77
81
87
86
86
89
95
106
112
116
123
130
133
137
137
130
128
124
123
119
107
90
81
73
71
63
58
50
46
41
37
30
29
29
30
29
33
37
30
16
9
13
19
29
32
24
19
13
19
22
30
30
21
13
13
22
28
24
24
24
29
29
29
28
28
22
19
20
33
41
37
29
22
16
19
16
13
13
13
13
15
16
22
24
19
15
13
19
24
24
22
16
13
16
19
19
19
19
20
19
13
8
8
12
19
20
17
12
9
9
12
12
12
9
13
13
13
19
19
16
13
13
13
13
13
16
19
19
16
12
9
11
16
21
26
33
38
45
47
41
30
29
33
35
32
24
20
19
19
17
16
15
13
13
13
13
13
12
13
16
19
20
20
22
28
33
47
64
80
91
111
139
169
193
193
164
89
-2
-65
-80
-75
-59
-31
-2
15
21
22
22
22
22
22
24
24
26
33
39
43
41
37
33
30
29
30
33
34
38
39
41
43
42
45
48
50
48
48
45
50
55
60
63
60
63
65
69
71
71
71
74
80
86
91
91
91
95
103
111
115
120
124
130
136
137
139
147
152
152
149
143
138
136
124
113
102
94
86
74
68
61
58
54
50
45
39
45
41
38
37
33
38
39
39
41
39
39
39
41
43
45
45
45
43
43
45
45
46
46
47
47
48
45
41
38
39
38
39
39
39
43
43
42
39
38
38
37
34
38
39
37
35
29
33
33
35
37
37
35
30
33
34
35
33
33
33
33
30
30
34
35
35
34
34
35
35
34
37
37
37
34
34
39
45
50
51
45
35
30
29
33
33
33
30
29
33
33
32
35
34
35
34
37
38
39
41
45
48
54
60
61
60
60
55
50
41
34
33
30
30
34
34
35
29
25
22
22
24
26
30
33
30
29
30
35
43
54
72
86
99
120
159
197
219
220
190
115
12
-65
-98
-97
-75
-36
6
29
33
29
24
28
29
30
33
33
35
37
35
37
37
39
43
45
48
50
50
47
48
50
47
45
50
54
55
56
55
58
55
55
56
60
68
73
76
78
81
82
86
91
97
102
104
104
107
113
120
124
128
130
137
143
149
158
164
171
176
178
176
177
172
169
164
159
147
138
130
124
123
111
99
90
82
78
71
68
68
69
68
64
64
64
64
61
60
60
60
60
60
61
61
61
64
65
68
68
71
72
71
69
71
69
71
68
71
71
71
69
68
71
72
68
68
65
68
71
65
64
61
60
58
58
55
58
60
60
60
60
58
58
58
58
58
58
58
59
60
60
60
59
58
55
54
54
54
52
50
52
52
54
54
52
48
50
51
50
52
50
54
54
54
55
55
54
54
52
50
50
50
54
55
59
60
60
63
67
72
77
81
81
76
71
61
59
55
54
52
52
50
50
47
46
43
39
39
37
39
39
39
37
41
39
43
55
72
86
102
112
138
178
216
238
236
195
106
3
-59
-80
-75
-52
-20
15
37
43
41
37
37
38
41
42
43
45
47
50
51
52
51
54
55
55
55
52
58
59
60
60
56
60
61
61
64
65
68
69
69
71
72
72
74
74
77
77
82
85
87
94
95
97
102
104
111
112
119
123
128
129
137
143
147
152
156
162
164
168
169
169
168
158
143
128
115
103
97
87
81
72
65
61
58
55
52
50
48
50
48
50
48
48
47
48
50
48
45
39
39
34
38
39
41
39
41
39
39
39
41
41
39
38
41
39
34
37
37
37
37
33
37
37
38
38
39
41
45
45
45
41
39
42
43
41
39
39
39
37
34
32
30
29
30
34
34
32
29
25
24
22
20
19
15
13
12
13
9
13
13
12
13
9
12
13
13
13
13
13
9
8
8
9
12
12
13
12
12
12
13
19
22
26
29
34
41
45
45
42
39
30
22
19
13
13
13
11
7
3
2
0
-1
-2
-2
-7
-5
-5
-2
0
2
6
13
24
38
48
60
86
124
169
202
210
169
74
-30
-91
-114
-126
-119
-88
-52
-19
-7
-6
-7
-9
-7
-2
-1
3
2
-1
2
3
6
8
8
4
8
9
12
13
9
13
13
13
16
19
19
20
22
24
24
24
24
