28
11
4
-1
-6
-1
3
-5
-12
-13
-14
-13
-13
-18
-22
-24
-23
-15
-13
-20
-24
-21
-19
-16
-16
-22
-22
-18
-13
-8
-13
-25
-19
-5
-5
-9
-14
-19
-19
-17
-14
-11
-14
-18
-8
5
53
104
169
234
299
336
271
205
140
74
8
-57
-123
-188
-254
-286
-277
-256
-222
-201
-191
-182
-173
-152
-123
-107
-97
-80
-61
-48
-36
-28
-20
-14
-9
-15
-23
-14
-2
-12
-22
-16
-10
-10
-10
-9
-8
-5
0
8
14
11
9
13
16
18
21
25
32
43
50
54
61
72
83
95
107
118
129
139
149
158
162
165
166
167
167
165
152
164
122
106
96
85
73
61
48
38
34
29
20
13
9
6
6
5
-1
-5
-8
-9
-4
-2
-3
-6
-10
-10
-6
-2
2
1
-4
0
8
8
5
4
4
6
9
7
3
0
-2
0
2
1
0
-1
-2
-1
0
-3
-6
-3
0
0
-1
-4
-6
-5
-3
1
4
4
6
11
16
20
22
21
14
5
4
7
6
3
-1
-5
-7
-9
-12
-15
-19
-24
-20
-16
-16
-16
-11
-6
-5
-5
-12
-16
-7
-1
-7
-12
-10
-9
-13
-16
-14
-12
-13
-15
-17
-17
-14
-12
-12
-12
-13
-12
-9
-8
-7
-5
-3
-3
-5
-6
-6
-4
-6
45
91
156
221
286
346
380
396
331
265
200
134
69
3
-63
-128
-194
-228
-218
-203
-182
-170
-165
-150
-127
-109
-92
-81
-73
-60
-46
-35
-25
-22
-22
-18
-13
-15
-19
-20
-21
-20
-18
-15
-12
-14
-16
-14
-12
-11
-10
-10
-8
0
6
5
5
8
11
14
18
23
28
32
39
48
58
68
77
87
96
105
117
131
140
148
156
164
170
175
173
169
162
154
144
134
120
107
98
89
77
67
57
50
53
53
43
35
30
26
27
27
23
19
14
19
32
38
39
40
39
42
48
45
36
23
7
0
-5
23
58
120
185
250
189
251
185
120
54
-11
-77
-142
-208
-273
-324
-327
-312
-247
-191
-151
-114
-80
-51
-28
-16
-15
-14
-13
-9
-3
-1
-4
-4
-1
0
1
2
3
6
9
12
15
15
13
17
23
27
30
32
34
40
46
54
60
63
68
77
88
107
122
132
143
158
173
186
198
208
219
229
236
241
244
244
244
244
241
236
225
211
194
176
161
148
130
112
99
87
73
58
50
42
41
40
36
31
23
16
18
21
26
30
28
25
22
21
24
25
22
19
14
12
12
12
13
12
8
8
12
10
4
6
12
11
7
6
5
4
5
4
6
0
0
1
2
0
-2
-3
-4
-6
-8
-3
0
0
0
1
2
0
-3
-6
-8
-8
-8
-7
-6
-7
-9
-12
-13
-11
-8
-5
-3
-1
4
9
12
15
16
16
18
21
13
4
0
-4
-5
-6
-10
-15
-21
-26
-24
-22
-23
-24
-22
-20
-18
-14
-8
-4
-2
-2
-7
-9
-7
-11
-20
-21
-16
-16
-20
-20
-17
-15
-13
-12
-13
-10
-5
-12
-21
-22
-22
-22
-22
-16
-10
-15
-20
-20
-20
-16
-12
-14
-8
22
64
129
194
259
324
389
392
326
261
195
130
64
-1
-67
-133
-198
-237
-265
-243
-206
-189
-178
-166
-154
-133
-112
-100
-110
-74
-60
-58
-56
-53
-50
-49
-47
-40
-34
-34
-34
-34
-33
-29
-26
-26
-28
-34
-35
-28
-25
-28
-26
-19
-16
-15
-14
-15
-14
-10
-3
4
14
24
27
29
34
39
51
63
74
84
88
92
104
114
120
127
135
142
140
140
152
155
136
123
120
111
91
78
72
64
56
48
40
30
19
13
9
5
0
1
5
2
-4
-6
-7
-8
-7
-6
-6
-6
-8
-2
4
10
16
13
10
12
13
8
4
2
0
-1
-3
-6
-8
-9
-11
-14
-16
-16
-16
-16
-15
-13
-9
-3
-2
-5
-6
-7
-7
-5
-6
-9
-14
-19
-18
-15
-19
-14
-25
-24
-23
-22
-25
-28
-28
-28
-26
-24
-24
-24
-23
-21
-18
-16
-18
-19
-16
-14
-13
-6
6
48
113
178
243
308
373
347
282
216
151
85
20
-46
-111
-177
-242
-251
-255
-219
-182
-180
-177
-161
-144
-125
-106
-92
-77
-61
-46
-38
-31
-26
-22
-22
-22
-23
-24
-22
-20
-20
-21
-24
-22
-15
-14
-18
-20
-19
-14
-8
-6
-5
-3
-1
7
15
15
13
15
20
26
32
42
52
59
67
80
91
98
106
115
124
133
141
144
146
146
146
146
141
130
118
106
98
94
79
58
46
40
35
30
27
25
20
13
11
9
7
5
1
4
-5
-6
-1
4
7
11
18
24
24
24
26
28
30
30
24
19
13
10
9
7
4
-1
-7
-11
-14
-16
-16
-16
-16
-11
-4
-1
1
-1
-5
-3
1
-1
-5
-7
-9
-11
-12
-15
-18
-18
-18
-13
-8
-12
-16
-17
-17
-13
-10
-9
-9
-13
-16
-15
-14
-14
-14
-15
-14
-10
-10
-14
-4
15
66
131
196
261
326
391
349
284
218
153
87
22
-44
-110
-175
-237
-251
-260
-219
-184
-180
-173
-154
-135
-111
-91
-81
-69
-52
-40
-33
-26
-20
-16
-16
-15
-13
-11
-8
-9
-14
-14
-10
-9
-11
-9
-5
-5
-7
-1
7
7
5
4
4
11
16
16
16
21
27
38
49
55
62
75
89
108
124
132
140
147
155
162
166
169
172
177
179
176
169
160
152
146
133
117
105
95
89
85
80
75
66
57
49
41
33
26
18
10
11
12
11
10
6
2
4
6
9
12
10
8
10
12
12
10
5
2
2
4
9
12
11
10
9
9
11
9
5
12
22
32
42
92
147
211
276
341
405
340
274
209
143
78
12
-53
-119
-184
-237
-249
-249
-216
-193
-190
-182
-164
-143
-118
-99
-86
-71
-54
-39
-27
-19
-14
-8
-1
0
-5
-5
-3
2
9
9
7
6
5
8
4
12
10
11
12
23
32
28
24
27
31
38
46
54
64
77
89
97
105
113
123
134
143
149
154
158
166
176
176
169
163
158
153
148
139
130
118
106
91
75
67
59
49
40
31
22
21
20
16
12
8
4
5
6
4
2
4
6
8
9
5
2
1
2
6
6
1
-1
1
3
5
6
5
6
9
10
9
6
3
4
7
2
-5
-5
-2
-3
-4
-7
-10
-5
-1
-9
-16
-14
-11
-5
-1
-6
-9
-4
1
4
1
-11
-13
-2
4
3
6
13
17
20
24
27
22
13
11
13
8
0
-1
1
-6
-15
-9
-16
-9
-18
-19
-20
-19
-17
-10
-4
-4
-4
-7
-10
-10
-10
-10
-9
-6
-5
-8
-11
-16
-18
-18
-20
-26
-25
-19
-16
-16
-16
-17
-18
-18
-18
-19
-20
-21
-15
-7
-5
-3
-8
-14
12
41
106
171
236
301
366
403
338
272
207
141
75
10
-56
-121
-187
-234
-260
-255
-216
-194
-186
-175
-163
-146
-127
-111
-98
-81
-63
-56
-53
-48
-43
-42
-41
-37
-33
-32
-32
-36
-40
-37
-34
-33
-32
-32
-32
-29
-26
-27
-28
-27
-23
-11
-4
-4
-4
-2
3
12
18
22
25
28
36
46
58
72
79
84
95
107
116
124
133
143
152
161
163
162
156
146
142
137
124
111
97
85
76
67
60
51
37
28
26
24
23
19
11
5
2
0
0
-2
-8
-9
-6
-3
-1
0
1
5
10
14
17
18
18
16
13
12
11
4
-2
-3
-4
-4
-4
-12
-18
-12
-8
-5
-2
-3
-2
5
10
12
13
9
6
4
2
2
0
-4
-8
-12
-13
-11
-11
-13
-13
-11
-10
-11
-13
-15
-12
-7
-6
-6
-8
-12
-9
-6
-4
-2
-4
-6
-6
-3
13
41
104
167
232
297
362
377
311
246
180
115
49
-16
-82
-147
-213
-241
-247
-227
-192
-180
-177
-162
-142
-124
-107
-90
-72
-56
-39
-36
-38
-23
-14
-13
-12
-14
-16
-16
-16
-10
-7
-13
-18
-18
-17
-13
-10
-8
-5
-2
0
3
4
4
4
5
9
14
17
19
22
26
37
51
58
65
73
82
95
109
119
129
133
136
142
148
152
156
151
146
142
136
126
115
102
90
80
72
65
57
49
43
39
33
27
21
13
10
11
9
2
3
8
16
24
23
19
22
27
35
43
39
33
28
22
20
18
18
17
6
-4
-2
0
-4
-8
-11
-13
-8
-4
-3
0
5
8
8
8
5
1
-5
-8
-7
-9
-15
-18
-19
-17
-12
-11
-13
-16
-19
-18
-15
-14
-15
-16
-16
-16
-14
-16
-18
-20
-22
-19
-16
-16
-16
-15
-13
-7
15
70
128
193
258
323
358
355
321
255
190
124
59
-7
-73
-138
-201
-264
-257
-227
-211
-198
-184
-170
-148
-126
-112
-99
-84
-70
-58
-46
-44
-42
-39
-36
-34
-32
-31
-30
-30
-30
-28
-26
-27
-27
-23
-20
-19
-17
-15
-14
-14
-14
-13
-12
-13
-9
-1
8
17
20
19
24
32
47
62
71
79
89
100
112
124
127
131
141
150
152
154
153
152
149
143
132
120
108
97
89
80
70
59
46
36
28
20
13
7
2
-5
-13
-17
-19
-21
-23
-25
-27
-26
-23
-18
-13
-12
-12
-8
-2
0
2
-3
-8
-15
-20
-14
-11
-18
-23
-19
-19
-30
-37
-34
-31
-28
-26
-26
-27
-30
-27
-18
-14
-13
-19
-30
-29
-21
-21
-25
-30
-35
-36
-35
-33
-31
-30
-30
-31
-32
-30
-28
-32
-36
-37
-38
-35
-32
-34
-35
-31
-28
-29
-31
-34
-33
-24
-18
-17
1
37
89
154
219
284
340
392
363
298
232
167
101
36
-30
-95
-161
-226
-238
-245
-218
-188
-179
-169
-152
-134
-114
-96
-92
-85
-68
-53
-48
-41
-31
-25
-29
-33
-36
-34
-25
-19
-14
-16
-24
-24
-17
-21
-32
-30
-19
-17
-19
-17
-13
-16
-21
-9
6
3
-3
4
-4
22
30
36
42
53
63
72
80
83
89
102
114
121
126
126
125
119
122
136
133
110
98
99
92
76
66
57
48
38
24
10
6
5
-2
-10
-15
-19
-18
-15
-16
-19
-23
-26
-16
-7
-21
-33
-20
-8
-8
-8
-9
-10
-13
-16
-16
0
46
100
165
230
295
296
230
165
99
34
-32
-97
-163
-229
-294
-338
-374
-332
-267
-217
-170
-130
-90
-69
-49
-37
-24
-22
-20
-19
-18
-18
-18
-16
-14
-15
-15
-11
-8
-6
-4
-4
-2
3
6
5
5
8
14
24
29
32
37
42
50
59
70
83
91
98
115
135
146
157
170
185
200
186
227
238
237
236
241
246
244
239
223
208
195
182
166
148
127
110
98
83
66
55
52
47
40
33
27
21
15
12
13
12
9
7
5
4
4
5
7
8
7
3
-1
3
8
5
2
-1
-4
-2
0
-4
-8
-7
-6
-5
-4
-6
-8
-10
-12
-10
-8
-10
-12
-11
-10
-10
-10
-11
-12
-12
-12
-12
-15
-19
-20
-19
-16
-13
-14
-17
-18
-17
-16
-14
-13
-12
-12
-12
-12
-12
-16
-20
-19
-18
-16
-14
-17
-19
-14
-7
1
6
7
9
14
18
22
22
16
11
5
0
-3
-6
-11
-15
-19
-20
-21
-24
-27
-28
-27
-21
-26
-11
-8
-8
-8
-9
-10
-9
-9
-17
-24
-26
-27
-23
-20
-22
-23
-19
-17
-20
-21
-18
-15
-12
-12
-16
-18
-19
-18
-14
-14
-17
-19
-21
-20
-17
-17
-19
5
34
96
161
227
292
357
412
347
281
216
150
85
19
-46
-112
-177
-231
-259
-264
-223
-198
-198
-190
-170
-151
-131
-116
-105
-91
-74
-67
-63
-60
-56
-54
-54
-51
-47
-46
-46
-46
-47
-48
-47
-43
-38
-39
-40
-35
-30
-32
-34
-36
-37
-31
-26
-25
-24
-21
-16
-9
-2
5
10
11
19
34
46
54
61
67
79
94
106
115
120
125
136
151
154
153
149
145
138
131
123
130
104
94
86
77
66
55
48
41
30
22
17
12
4
-2
-4
-6
-6
-9
-17
-21
-18
-14
-9
-3
3
5
3
5
10
10
6
0
-6
-9
-11
-16
-21
-23
-25
-26
-25
-28
-32
-34
-36
-34
-32
-31
-30
-28
-26
-22
-20
-28
-33
-28
-25
-30
-34
-34
-34
-34
-34
-34
-36
-41
-44
-43
-40
-36
-36
-39
-40
-40
-41
-43
-42
-39
-44
-51
-45
-37
-37
-40
-41
-42
-28
-13
14
48
113
178
243
297
321
319
254
188
122
57
-9
-74
-140
-205
-271
-292
-271
-248
-224
-207
-196
-179
-158
-141
-126
-118
-112
-96
-79
-72
-67
-64
-61
-59
-60
-56
-56
-52
-48
-47
-46
-49
-52
-49
-46
-41
-40
-47
-51
-46
-41
-35
-32
-33
-32
-25
-20
-16
-10
-2
6
13
25
39
42
38
49
66
74
81
86
91
100
109
110
111
114
116
110
104
101
97
88
78
65
52
43
32
14
2
1
-2
-9
-15
-18
-23
-30
-34
-34
-33
-30
-30
-34
-37
-39
-37
-32
-30
-31
-27
-20
-18
-18
-15
-11
-10
-10
-11
-14
-21
-28
-31
-34
-34
-34
-37
-40
-39
-39
-45
-50
-48
-46
-44
-42
-43
-42
-36
-34
-41
-44
-43
-42
-43
-44
-45
-50
-56
-55
-50
-51
-55
-56
-56
-50
-43
-50
-59
-63
-60
-67
-66
-58
-50
-61
-70
-63
-57
-51
-46
-48
-50
-50
-36
9
62
127
192
257
273
232
179
113
48
-18
-83
-149
-215
-280
-307
-319
-294
-256
-236
-221
-207
-194
-174
-154
-138
-123
-110
-98
-84
-70
-61
-52
-48
-44
-44
-44
-44
-43
-39
-38
-48
-53
-49
-44
-38
-34
-35
-38
-43
-43
-37
-32
-28
-26
-26
-22
-14
-9
-5
-2
1
4
7
20
34
45
55
60
66
79
92
100
108
117
124
129
134
135
135
130
123
112
100
85
71
58
49
45
38
27
18
8
4
4
1
-5
-11
-16
-18
-19
-21
-23
-24
-23
-22
-21
-19
-17
-10
-16
-2
-2
5
12
9
6
4
2
-4
-8
-8
-10
-17
-22
-22
-22
-24
-25
-22
-20
-17
-10
2
25
57
109
174
230
282
252
187
121
56
-10
-75
-138
-201
-259
-318
-301
-279
-259
-241
-279
-316
-348
-375
-366
-352
-316
-282
-255
-224
-184
-148
-119
-90
-60
-43
-46
-46
-41
-37
-34
-31
-29
-24
-15
-12
-13
-12
-8
-6
-6
-6
-6
-3
1
2
3
4
4
8
14
17
20
24
29
39
49
61
71
79
90
109
126
140
155
173
194
221
241
255
267
278
290
302
309
312
311
306
296
282
267
252
230
207
188
169
144
119
104
89
83
88
62
48
43
38
38
38
39
39
31
24
25
26
24
21
17
14
12
10
11
12
13
14
14
14
15
15
12
14
21
26
29
22
11
8
8
8
8
4
-1
-1
1
2
2
-1
-4
-3
-2
2
6
3
0
0
0
1
1
-6
-9
-6
-3
0
1
-3
-4
0
3
6
8
8
11
18
50
96
155
220
285
350
351
338
279
214
148
83
17
-49
-114
-178
-218
-251
-224
-198
-185
-172
-162
-149
-126
-106
-91
-78
-72
-59
-36
-22
-22
-21
-18
-14
-10
-9
-11
-9
-3
-1
-3
-4
-3
-2
-2
0
3
4
4
4
5
7
6
13
16
18
20
30
38
45
50
56
62
73
84
93
102
109
117
125
135
147
154
157
163
173
176
170
167
164
159
154
142
126
113
101
91
82
71
60
50
41
37
33
29
26
20
14
11
8
11
14
8
4
5
6
5
4
4
4
4
4
5
6
5
6
10
12
12
10
6
9
19
22
21
18
15
14
13
12
13
13
11
8
5
5
8
9
10
18
26
31
36
34
33
38
42
43
40
26
16
14
11
8
4
-2
-6
-5
-6
-10
-12
-13
-11
-5
0
3
7
12
11
5
6
9
3
-7
-8
-8
-4
-8
-3
-8
-10
-12
-7
-2
-4
-6
-6
-6
-7
-8
-8
-8
-8
-8
-8
-8
-9
-10
-7
-4
1
21
52
103
168
233
298
363
428
396
331
265
200
134
69
3
-62
-128
-193
-215
-235
-203
-171
-156
-141
-130
-117
-98
-81
-73
-64
-52
-41
-30
-22
-20
-17
-14
-14
-19
-20
-15
-13
-15
-16
-15
-10
-3
-4
-12
-6
5
1
-8
-5
1
5
9
11
13
14
14
21
28
31
35
45
55
62
70
81
92
102
110
113
119
131
138
140
141
138
137
142
140
130
124
120
106
85
74
68
63
58
50
42
29
15
11
9
9
11
4
12
-4
-2
-5
-8
3
11
2
-3
14
28
25
22
24
24
16
7
-4
17
82
147
212
277
342
335
269
204
138
72
7
-59
-124
-190
-255
-280
-295
-248
-189
-158
-130
-96
-61
-41
-22
-17
-12
-12
-12
-10
-7
0
6
6
6
3
1
6
10
12
14
14
15
18
22
26
30
34
38
42
49
57
64
72
81
91
103
115
127
138
149
161
176
191
205
220
233
246
249
252
253
254
254
254
250
243
230
215
197
178
160
141
121
106
94
82
67
57
50
42
34
30
29
28
27
26
26
24
21
17
13
12
13
15
17
15
18
13
16
14
12
12
12
15
18
16
14
15
16
13
10
10
9
5
3
6
8
8
8
8
7
4
3
5
6
7
8
9
10
10
8
5
4
5
5
3
1
-1
0
2
3
4
0
-4
1
6
7
8
5
3
8
13
18
22
23
26
32
36
35
33
31
30
29
27
24
19
14
12
12
10
7
1
-6
-8
-7
-3
1
1
-1
3
10
9
8
3
-2
1
4
5
6
3
0
3
6
3
-1
-4
-6
-4
-2
-1
-2
-9
-10
-5
-3
-5
-6
-5
-1
4
7
9
7
3
9
18
71
132
196
261
326
265
327
261
196
130
65
-1
-66
-132
-197
-249
-255
-249
-209
-183
-186
-182
-163
-145
-126
-110
-97
-83
-67
-54
-43
-37
-34
-28
-21
-16
-13
-12
-12
-12
-12
-12
-13
-14
-14
-11
-7
-7
-8
-8
-8
-5
-2
0
2
6
10
13
17
23
28
32
36
42
49
57
66
75
85
95
106
117
125
130
139
152
163
175
178
179
179
177
174
171
161
149
135
121
110
98
88
78
70
62
56
49
42
36
35
34
32
29
24
20
20
22
28
32
32
32
32
33
35
35
33
29
24
21
19
16
13
9
3
3
5
-1
-11
-13
-15
-11
-16
-6
-8
-1
6
5
4
0
-4
-2
0
-3
-6
-5
-5
-10
-13
-10
-11
-18
-22
-21
-20
-19
-18
-18
-18
-19
-18
-15
-13
-11
-13
-18
-20
-19
-16
-13
-14
-17
-1
17
82
147
212
277
342
391
326
260
195
129
64
-2
-67
-133
-199
-250
-275
-273
-230
-206
-206
-196
-174
-156
-139
-125
-111
-95
-76
-66
-60
-55
-51
-46
-41
-40
-39
-39
-41
-43
-45
-44
-40
-41
-42
-39
-36
-32
-28
-32
-35
-29
-23
-19
-16
-16
-15
-11
-7
-4
-2
0
6
17
26
34
42
49
60
73
82
89
97
106
114
122
124
123
120
117
116
116
99
116
72
64
56
48
38
29
19
10
6
2
3
2
-5
-12
-18
-22
-21
-20
-22
-23
-20
-18
-18
-19
-22
-16
-3
2
1
-1
-3
-1
3
4
3
-7
-18
-20
-19
-23
-29
-28
-26
-36
-46
-42
-38
-37
-36
-37
-36
-22
-13
-18
-22
-26
-28
-29
-30
-32
-34
-33
-33
-35
-40
-48
-51
-48
-44
-40
-39
-41
-40
-37
-32
-26
-35
-48
-45
-39
-40
-43
-43
-40
-44
-48
-41
-33
-24
-9
38
89
154
219
284
311
246
180
114
49
-17
-82
-148
-213
-279
-308
-304
-280
-241
-220
-210
-195
-177
-157
-136
-118
-102
-88
-74
-70
-67
-59
-51
-50
-50
-50
-52
-48
-44
-44
-44
-45
-46
-43
-40
-37
-34
-35
-35
-32
-30
-30
-30
-31
-31
-26
-22
-17
-13
-11
-3
9
19
27
35
42
56
72
80
87
94
101
112
123
124
125
128
130
131
132
123
113
100
87
78
68
59
49
37
27
22
16
9
1
-7
-13
-17
-20
-19
-21
-27
-30
-29
-28
-28
-28
-28
-21
-11
-4
2
4
5
10
15
13
9
5
0
-1
-2
-4
-6
-12
-18
-15
-13
-18
-21
-17
-14
-12
-9
-5
-2
-4
-6
-5
-5
-8
-11
-14
-15
-12
0
18
67
131
196
261
261
239
181
116
62
9
-24
-56
-120
-58
-239
-290
-271
-254
-249
-252
-314
-367
-383
-391
-369
-342
-307
-266
-216
-173
-142
-112
-82
-56
-35
-26
-30
-30
-26
-24
-25
-24
-20
-18
-19
-18
-15
-14
-15
-16
-16
-16
-16
-17
-19
-20
-20
-18
-16
-16
-16
-18
-20
-14
-9
-4
2
10
19
30
42
53
68
88
107
125
143
161
183
208
224
235
247
258
266
272
275
277
272
264
251
236
218
200
182
163
140
116
104
91
73
56
50
43
35
27
17
10
9
8
8
7
4
2
2
2
3
2
-3
-4
0
2
1
-1
-3
-4
-5
-4
1
5
9
11
13
18
23
24
23
23
22
22
18
12
6
4
2
-3
-9
-15
-20
-19
-18
-18
-20
-26
-29
-23
-18
-12
-8
-8
-9
-12
-13
-10
-11
-16
-18
-17
-17
-19
-20
-20
-19
-17
-15
-13
-16
-21
-23
-25
-24
-22
-23
-24
-24
-24
-24
-24
-22
-20
-20
-20
-17
-14
-18
-13
7
46
111
176
241
306
371
366
300
235
169
104
38
-28
-93
-159
-224
-253
-270
-241
-200
-196
-199
-178
-153
-137
-120
-112
-103
-85
-68
-62
-55
-48
-42
-40
-38
-35
-32
-31
-30
-30
-30
-29
-28
-30
-32
-33
-32
-28
-26
-27
-28
-28
-26
-22
-16
-10
-7
-5
2
10
14
17
26
35
44
36
63
72
79
87
101
115
122
128
134
138
139
142
153
157
147
137
126
117
110
99
82
70
61
54
48
40
28
25
27
18
2
-2
-2
-3
-5
-7
-9
-12
-15
-16
-17
-21
-24
-26
-28
-26
-24
-19
-14
-18
-22
-22
-22
-20
-18
-18
-18
-17
-16
-17
-18
-17
-16
-16
-14
-9
16
54
109
174
239
304
325
330
281
216
150
85
19
-46
-112
-177
-239
-300
-272
-245
-226
-207
-197
-185
-166
-146
-126
-107
-95
-80
-60
-43
-34
-28
-28
-28
-26
-24
-25
-28
-33
-33
-27
-24
-23
-22
-23
-24
-23
-19
-15
-7
2
2
-1
4
11
19
12
32
36
35
35
53
68
73
80
91
102
113
122
122
125
135
142
140
137
134
130
123
110
91
80
76
66
51
43
38
31
23
10
-5
-7
-5
-4
-4
-4
-3
-11
-21
-14
-6
-15
-24
-19
-14
-18
-22
-20
-18
-17
-16
-13
-12
-22
-27
-23
-18
-13
-13
-21
-22
-14
-17
-30
-34
-30
-27
-25
-24
-23
-25
-29
-31
-33
-26
-16
-18
-23
-25
-27
-26
-22
-26
-30
-33
-36
-32
-28
-32
-35
-29
-24
-23
-22
-21
-17
-7
0
2
3
-1
-5
-10
-13
-15
-20
-27
-30
-30
-30
-31
-34
-39
-40
-41
-37
-30
-28
-28
-23
-17
-16
-16
-20
-26
-28
-30
-30
-30
-30
-30
-29
-28
-28
-28
-30
-32
-30
-26
-20
-18
-24
-27
-24
-21
-19
-21
-27
-29
-26
-23
-21
-20
-20
-1
26
83
148
213
278
343
408
352
287
221
155
90
24
-41
-107
-172
-231
-255
-265
-220
-186
-185
-180
-166
-149
-129
-110
-95
-80
-67
-58
-53
-48
-43
-40
-40
-37
-30
-28
-29
-30
-31
-31
-29
-28
-27
-24
-21
-20
-21
-21
-18
-19
-20
-12
-4
-4
-4
-2
1
9
16
17
20
28
38
50
62
75
86
95
105
116
126
136
141
144
153
164
169
171
168
162
155
148
135
121
111
103
95
87
74
86
50
40
37
34
24
16
13
10
9
8
5
1
-4
-6
1
7
13
16
18
21
24
26
27
26
20
18
17
13
8
6
6
4
1
0
1
1
-1
-2
-3
-1
3
8
12
17
22
15
8
8
8
6
4
3
2
-1
-4
-2
0
1
2
0
-2
-3
-3
0
-1
-7
-10
-9
-7
-5
-6
-9
-7
-2
0
-1
-2
-2
-1
1
28
57
120
186
251
316
381
432
367
301
236
170
105
39
-26
-92
-157
-206
-222
-219
-186
-166
-166
-155
-132
-111
-94
-82
-74
-58
-39
-28
-22
-16
-10
-9
-11
-11
-9
-7
-5
-3
-1
-3
0
-7
-6
-4
-2
-4
-6
-2
2
6
10
9
9
13
18
25
32
38
45
52
58
65
71
78
87
98
108
120
128
134
138
141
148
158
159
157
153
149
148
148
133
117
107
98
90
82
69
57
47
38
34
29
22
16
13
10
11
11
8
6
6
6
7
8
7
7
10
13
16
19
23
26
30
33
35
36
35
28
20
18
19
18
15
11
6
5
4
0
-4
-8
-12
-9
-6
-3
0
3
6
4
1
-2
-4
-3
-2
-2
-2
-5
-6
-7
-9
-11
-12
-11
-12
-15
-16
-15
-14
-13
-13
-15
-16
-17
-13
-7
-8
-6
-10
-8
-6
-4
-7
-7
16
48
113
178
243
308
373
396
330
265
199
134
68
3
-63
-128
-194
-231
-247
-231
-194
-180
-180
-163
-139
-116
-93
-83
-76
-56
-35
-28
-23
-21
-19
-16
-14
-8
-2
-8
-14
-10
-6
-5
-4
-7
-10
-8
-6
-6
-5
-2
1
5
10
16
20
19
18
19
25
34
38
37
44
56
68
79
84
87
99
112
118
123
134
145
156
168
168
168
165
161
149
137
129
120
105
91
77
65
61
55
43
34
27
22
21
19
14
9
3
-1
-3
-6
-10
-13
-15
-16
-17
-18
-19
-18
-15
-8
-1
0
1
11
2
28
34
30
26
19
12
11
10
4
-1
-6
-9
-5
-4
-10
-14
-16
-15
-7
-1
2
5
7
8
9
6
-3
-4
0
-2
-8
-12
-15
-16
-15
-14
-13
-12
-13
-14
-13
-8
-4
-11
-18
-22
-25
-17
-10
-16
-20
-20
-20
-19
-18
-18
-18
-16
-3
24
69
134
199
264
328
392
380
314
249
183
117
52
-14
-79
-145
-210
-234
-250
-226
-195
-180
-167
-159
-150
-120
-92
-92
-90
-66
-46
-43
-40
-38
-36
-33
-29
-24
-21
-24
-26
-27
-25
-18
-14
-13
-16
-26
-25
-16
-11
-9
-9
-11
-7
2
1
-5
6
21
24
23
26
31
40
32
61
72
77
82
93
103
112
120
121
123
129
134
134
132
125
118
112
105
95
85
74
63
53
44
37
27
15
8
5
2
-2
-7
-12
-15
-17
-18
-18
-18
-19
-20
-19
-17
-16
-15
-14
-10
-6
-1
4
5
6
9
12
12
11
4
-1
-4
-6
-6
-6
-7
-9
-11
-13
-15
-17
-20
-21
-19
-16
-12
-10
-11
-13
-15
-13
-9
-13
-19
-22
-25
-22
-16
-17
-18
-23
-28
-21
-14
-21
-26
-26
-26
-26
-26
-27
-28
-26
-23
-20
-19
-22
-22
-17
-13
-11
-12
-16
3
36
91
156
221
286
351
416
376
311
245
180
114
49
-17
45
-148
-211
-227
-239
-206
-176
-177
-175
-155
-136
-118
-102
-95
-85
-67
-54
-47
-42
-41
-39
-34
-29
-23
-22
-26
-28
-29
-30
-29
-26
-23
-23
-25
-24
-21
-17
-13
-12
-12
-8
-3
1
4
9
14
18
22
30
37
44
52
64
75
83
90
100
110
122
132
137
142
148
152
152
150
145
135
123
115
108
97
84
72
61
52
44
34
24
17
11
7
3
2
0
-3
-6
-7
-8
-10
-12
-12
-11
-4
2
3
4
6
9
13
15
11
7
4
2
5
4
-1
-5
-8
-10
-10
-14
-20
-23
-25
-23
-19
-17
-15
-14
-13
-11
-9
-8
-8
-14
-18
-18
-18
-17
-16
-20
-24
-21
-18
-20
-22
-25
-28
-26
-24
-22
-22
-27
-26
-17
-14
-19
-22
-21
-19
-16
-14
-15
-19
-24
-1
33
91
156
221
286
351
416
360
295
229
163
98
32
-33
-99
-164
-221
-237
-244
-216
-193
-187
-175
-153
-131
-109
-95
-92
-81
-59
-44
-36
-31
-28
-26
-25
-23
-21
-22
-25
-26
-25
-24
-25
-25
-23
-22
-23
-23
-21
-20
-18
-12
-6
-1
4
1
-2
0
3
10
17
23
30
38
46
55
63
71
81
93
105
116
123
125
130
137
142
146
142
131
121
111
104
98
87
74
63
52
45
39
29
38
16
14
12
9
-2
-12
-11
-10
-10
-11
-16
-20
-23
-25
-20
-16
-18
-20
-22
-20
-11
-2
6
11
13
14
14
14
15
14
10
7
5
-1
-8
-13
-17
-19
-21
-25
-29
-33
-36
-28
-20
-24
-28
-24
-20
-18
-18
-28
-34
-26
-21
-25
-29
-32
-34
-36
-35
-27
-23
-26
-28
-28
-28
-27
-27
-31
-31
-29
-31
-35
-36
-36
-36
-35
-34
-33
-32
-32
-31
-28
-11
9
58
109
174
239
304
343
278
212
147
81
16
-50
-116
-181
-247
-284
-285
-269
-233
-213
-206
-190
-169
-149
-131
-118
-109
-91
-70
-62
-59
-54
-49
-45
-41
-40
-40
-41
-40
-40
-36
-34
-32
-33
-34
-32
-30
-29
-28
-30
-31
-27
-24
-23
-21
-17
-13
-9
-6
-3
2
10
19
30
40
50
60
70
76
80
94
110
121
130
138
147
153
159
159
157
146
136
127
117
102
87
77
67
56
46
34
24
22
17
7
0
0
0
-2
-8
-17
-20
-16
-13
-10
-11
-16
-18
-18
-17
-15
-19
-26
-25
-21
-21
-23
-23
-21
-21
-23
-21
-16
-15
-14
-16
-18
-15
-12
-11
-11
-16
-20
-23
-25
-19
-15
-19
-18
-7
21
69
125
190
255
320
311
245
180
114
48
-17
-83
-148
-214
-279
-288
-281
-248
-210
-205
-203
-189
-202
-148
-122
-107
-94
-84
-74
-57
-42
-40
-37
-28
-23
-28
-32
-31
-29
-23
-20
-20
-20
-20
-17
-11
-8
-7
-7
-10
-7
1
5
7
8
9
19
32
37
41
50
59
67
75
91
106
113
120
133
144
148
152
156
160
160
158
150
141
130
119
109
98
88
75
59
48
43
37
31
24
15
12
11
8
5
0
-6
-8
-8
-8
-7
-9
-13
-14
-13
-8
-2
-4
-6
-4
-2
-2
-2
-5
-8
-6
-4
-7
-10
-10
-10
-8
-6
-8
-10
-10
-10
-9
-7
-5
-6
-10
-11
-8
-6
-7
-10
-13
-14
-14
-14
-14
-14
-13
-12
-13
-14
-14
-14
-12
-7
-2
-5
-7
0
6
10
14
14
14
15
15
11
7
4
0
-5
-8
-11
-12
-11
-13
-19
-21
-19
-19
-21
-21
-19
-15
-10
-7
-5
-10
-17
-13
-7
-8
-11
-13
-14
-14
-14
-11
-8
-9
-10
-14
-18
-16
-14
-15
-16
-20
-21
-18
-16
-18
-20
-18
-14
-9
-6
-7
2
19
67
132
197
262
327
392
356
291
225
160
94
29
-37
-102
-168
-233
-243
-252
-210
-172
-174
-173
-150
-130
-115
-102
-92
-79
-61
-47
-42
-38
-36
-33
-30
-27
-24
-22
-21
-21
-23
-24
-23
-23
-25
-26
-26
-24
-21
-20
-20
-19
-17
-13
-9
-8
-8
-4
2
13
24
23
22
29
36
48
59
66
74
82
91
102
113
122
130
136
145
156
162
162
162
163
163
160
148
133
118
104
94
86
74
61
52
43
38
33
27
21
14
8
11
14
8
2
2
2
2
2
1
0
0
3
14
22
23
24
22
20
22
22
18
16
15
14
13
9
4
0
-3
-6
-9
-13
-17
-17
-15
-11
-7
-4
-1
-1
-4
-7
-10
-6
-2
-7
-12
-14
-16
-17
-19
-23
-26
-25
-24
-25
-26
-25
-25
-28
-30
-27
-26
-25
-24
-23
-22
-22
-22
-23
-22
-19
-18
-19
-16
-9
36
87
150
215
280
219
343
337
272
206
141
75
10
-56
-121
-184
-236
-264
-227
-201
-196
-186
-169
-149
-126
-107
-90
-77
-65
-54
-41
-33
-27
-24
-24
-24
-24
-25
-27
-29
-31
-29
-25
-24
-25
-26
-26
-23
-20
-14
-8
-9
-10
-10
-9
-3
2
3
5
11
16
20
23
28
36
49
59
67
76
85
96
109
118
127
130
131
134
137
138
138
130
118
110
102
94
87
72
57
51
44
35
26
19
12
10
8
8
7
0
-6
-7
-8
-9
-10
-12
-14
-15
-16
-17
-18
-18
-15
-9
-2
5
11
16
20
23
24
25
25
23
14
4
2
1
-1
-3
-10
-4
-15
-12
-18
-24
-23
-22
-22
-22
-22
-21
-16
-11
-6
-5
-16
-23
-19
-16
-16
-17
-22
-24
-24
-22
-16
-14
-15
-14
-10
-8
-9
-14
-20
-20
-17
-15
-13
-13
-15
-16
-16
-13
-10
-10
-10
-8
-3
25
59
124
189
254
319
384
409
343
278
212
147
81
16
-50
-115
-181
-223
-246
-236
-201
-186
-182
-165
-142
-124
-106
-97
-90
-73
-55
-50
-47
-42
-37
-35
-32
-33
-34
-31
-28
-23
-18
-20
-22
-21
-20
-17
-14
-15
-15
-12
-8
-3
0
-1
0
7
11
13
19
30
34
34
42
56
63
68
77
88
99
112
119
125
132
139
150
140
159
156
153
150
150
148
131
114
101
88
79
69
58
48
40
33
30
25
17
12
12
10
5
1
-2
-4
-4
-5
-7
-8
-8
-9
-11
-12
-12
-12
-11
-5
1
5
9
14
18
20
22
23
24
23
22
21
18
4
-5
-1
1
-3
0
17
54
119
184
249
255
200
139
73
8
-58
-123
-189
-255
-320
-346
-357
-350
-337
-356
-382
-417
-453
-437
-415
-369
-322
-290
-257
-205
-154
-116
-80
-49
-26
-36
-43
-36
-30
-27
-23
-19
-16
-14
-11
-7
-2
3
6
7
10
16
21
26
29
31
34
39
44
50
53
55
66
78
88
97
108
98
132
145
166
187
208
228
242
257
275
292
303
314
321
329
338
343
339
333
323
313
300
287
271
251
226
208
193
173
149
128
108
93
79
66
53
42
32
29
27
21
15
11
8
7
6
7
8
8
8
8
8
6
4
2
0
0
-1
-6
-10
-11
-11
-8
-6
-7
-9
-11
-11
-8
-7
-9
-11
-13
-11
-7
-8
-11
-14
-17
-17
-15
-15
-17
-18
-20
-20
-20
-17
-14
-13
-12
-9
-6
-2
3
7
10
8
6
7
7
3
-1
-5
-9
-14
-18
-22
-24
-24
-25
-27
-31
-36
-36
-33
-30
-27
-23
-19
-19
-21
-22
-23
-22
-24
-21
-24
-23
-22
-22
-22
-18
-14
-16
-18
-18
-18
-17
-16
-16
-16
-18
-20
-19
-17
-12
-10
-9
-8
-8
-5
1
4
3
4
8
46
96
157
222
287
352
346
330
267
202
136
70
5
-61
-126
-188
-226
-252
-215
-186
-182
-175
-162
-146
-127
-111
-101
-88
-73
-59
-47
-38
-33
-28
-24
-22
-21
-19
-17
-16
-17
-17
-15
-15
-17
-18
-17
-16
-15
-14
-13
-11
-8
-5
-2
1
4
5
7
15
22
24
26
29
35
45
54
61
69
78
89
103
113
122
130
140
149
158
167
175
178
179
177
172
160
147
133
119
107
96
85
75
64
74
45
38
34
30
26
22
21
20
16
12
10
8
7
6
8
11
15
18
20
23
26
28
27
24
18
16
17
16
12
10
10
7
3
6
11
26
44
103
168
202
233
176
116
51
-13
-60
-110
-175
-234
-257
-272
-254
-246
-272
-303
-347
-377
-381
-373
-346
-316
-284
-245
-198
-161
-132
-105
-80
-57
-35
-28
-27
-26
-25
-25
-27
-24
-19
-17
-15
-14
-14
-11
-6
-1
4
4
4
10
17
24
30
31
33
39
45
51
57
62
71
85
101
119
135
150
169
192
213
234
255
276
298
319
334
345
353
360
362
361
354
347
332
315
298
314
261
241
215
189
168
148
131
114
99
85
72
59
48
39
34
29
23
19
16
13
8
7
9
11
13
11
6
5
7
11
16
14
8
6
5
4
4
4
3
1
-1
-4
-6
-6
-6
-7
-8
-5
-2
-4
-6
-8
-9
-5
-3
-7
-10
-12
-14
-13
-12
-13
-14
-13
-12
-13
-14
-14
-11
-6
0
6
10
13
12
9
13
21
16
9
3
-3
-5
-8
-12
-16
-20
-24
-24
-24
-27
-30
-26
-22
-21
-20
-17
-14
-14
-16
-21
-22
-17
-16
-21
-25
-27
-28
-29
-27
-22
-20
-21
-22
-23
-24
-23
-22
-21
-20
-21
-24
-27
-23
-28
-19
-22
-20
-18
-17
-16
-12
-8
-8
2
46
96
161
226
291
334
340
317
251
186
120
55
-11
-76
-142
-207
-271
-275
-245
-220
-196
-188
-185
-166
-142
-126
-110
-101
-93
-77
-61
-54
-48
-49
-50
-46
-42
-40
-38
-38
-38
-35
-32
-34
-36
-36
-36
-37
-38
-36
-34
-33
-31
-29
-27
-25
-23
-20
-15
-8
-3
2
5
7
15
24
32
40
49
57
67
77
87
98
103
108
121
132
134
136
137
138
136
132
124
115
103
91
79
69
60
50
38
31
28
23
16
10
4
0
-4
-4
-1
-4
-10
-12
-12
-12
-12
-12
-13
-9
-3
3
-2
8
6
11
16
16
15
5
-4
-2
0
0
-1
-7
-13
-16
-18
-20
-23
-26
-28
-25
-22
-18
-16
-15
-15
-18
-18
-14
-17
-24
-27
-29
-27
-23
-26
-31
-32
-33
-33
-31
-30
-30
-33
-36
-34
-32
-32
-32
-30
-28
-26
-24
-26
-28
-27
-25
-20
-18
-24
-17
7
52
117
182
247
312
377
360
294
228
163
97
32
-34
-99
-165
-230
-251
-264
-232
-194
-192
-194
-174
-153
-131
-110
-105
-98
-83
-68
-58
-50
-47
-44
-45
-46
-44
-42
-40
-40
-46
-49
-44
-42
-42
-43
-45
-44
-40
-38
-38
-37
-35
-31
-25
-24
-24
-24
-24
-18
-11
-7
-10
6
14
24
34
42
50
55
62
75
87
96
103
107
112
118
121
118
112
100
90
79
69
59
50
42
32
22
16
12
6
0
-5
-10
-13
-15
-19
-23
-24
-24
-24
-24
-26
-28
-21
-14
-10
-6
-3
0
2
5
11
14
4
-4
-6
-8
-8
-11
-19
-25
-28
-30
-31
-34
-38
-39
-37
-35
-33
-30
-26
-21
-17
-19
-23
-24
-25
-29
-33
-35
-37
-38
-40
-45
-50
-49
-48
-47
-46
-45
-44
-45
-46
-46
-46
-45
-44
-44
-44
-46
-48
-48
-48
-48
-48
-49
-49
-47
-20
23
81
146
211
276
331
384
341
276
210
145
79
14
-52
10
-183
-246
-245
-243
-231
-219
-211
-200
-173
-148
-130
-114
-107
-97
-82
-70
-64
-59
-56
-54
-51
-50
-50
-50
-49
-47
-44
-42
-43
-42
-39
-35
-31
-30
-29
-27
-25
-23
-21
-18
-15
-12
-10
-6
-2
4
10
16
23
29
36
50
62
72
83
96
107
116
123
127
133
141
146
146
145
142
135
126
116
106
93
78
69
62
52
40
36
33
24
13
8
3
1
-2
-3
-4
-8
-12
-15
-18
-14
-10
-14
-18
-17
-14
-5
3
6
8
9
11
15
18
15
11
5
2
2
1
-1
-6
-13
-17
-19
-19
-17
-17
-19
-20
-19
-18
-18
-17
-18
-14
-14
-16
-18
-20
-22
-22
-22
-23
-24
-25
-26
-25
-23
-20
-19
-25
-28
-29
-30
-30
-30
-30
-30
-30
-30
-29
-28
-28
-22
-13
-7
-3
27
64
124
189
254
319
384
449
515
576
511
445
380
314
249
183
118
52
-13
-61
-56
-52
-52
-52
-53
-55
-58
-58
-53
-52
-57
-60
-59
-57
-55
-56
-60
-60
-57
-56
-55
-55
-57
-58
-58
-56
-53
-57
-63
-64
-66
-64
-62
-67
-72
-73
-74
-70
-67
-72
-76
-73
-70
-71
-72
-73
-74
-72
-70
-68
-64
-59
-56
-55
-49
-38
-34
-34
-28
-17
-9
-2
0
1
6
11
14
17
9
-1
1
-2
-1
-8
-9
-10
-15
-20
-17
-14
-18
-22
-24
-25
-20
-16
-17
-18
-19
-20
-19
-18
-18
-20
-25
-23
-14
-10
-10
-7
-2
1
3
4
4
6
9
9
7
2
-3
-6
-9
-12
-14
-19
-24
-27
-30
-26
-22
-23
-23
-18
-14
-11
-8
-8
-8
-8
-9
-13
-16
-15
-15
-18
-21
-23
-22
-18
-19
-24
-24
-21
-20
-21
-23
-25
-24
-21
-19
-17
-19
-23
-21
-16
-14
-12
-15
-18
-14
-7
16
47
112
177
242
307
372
393
327
262
196
131
65
0
-66
-131
-197
-233
-248
-231
-193
-177
-172
-159
-144
-130
-115
-96
-75
-58
-42
-40
-39
-32
-38
-19
-14
-17
-20
-23
-25
-17
-10
-13
-16
-15
-14
-13
-12
-10
-6
1
6
5
4
1
1
4
9
15
19
21
25
30
37
45
55
65
79
93
108
124
136
149
159
169
176
182
182
182
179
175
167
158
145
131
117
104
94
84
74
66
57
51
47
42
37
30
22
19
22
18
8
3
-1
-2
-1
-1
-3
-4
-4
-1
3
5
7
6
3
4
8
8
8
6
4
6
8
9
10
11
12
11
10
12
14
14
14
16
18
18
34
69
120
185
250
315
361
396
364
299
233
168
102
37
-29
-94
-160
-225
-220
-205
-199
-204
-180
-167
-145
-123
-112
-100
-85
-70
-54
-40
-31
-24
-21
-19
-22
-21
-13
-8
-7
-6
-3
-3
-5
-5
-2
0
-1
0
3
6
9
12
15
20
25
30
35
45
55
58
61
76
90
96
102
110
119
130
141
147
153
158
162
163
164
162
159
154
146
136
123
107
94
86
76
65
54
44
35
27
23
21
16
10
6
3
3
5
6
5
4
3
2
4
2
0
1
2
1
0
-3
-6
-7
-7
-2
2
-1
-4
-6
-6
-1
2
2
2
1
0
-1
-2
-3
-6
-10
-11
-9
-10
-13
-14
-13
-12
-12
-12
-11
-10
-10
-9
-10
-5
-4
-7
-10
-11
-12
-10
-8
-4
1
8
14
14
14
14
14
13
10
5
1
-4
-7
-9
-12
-16
-20
-24
-26
-27
-30
-34
-34
-31
-26
-19
-16
-13
-15
-19
-16
-11
-15
-20
-23
-26
-24
-22
-23
-24
-23
-22
-21
-20
-19
-18
-22
-23
-20
-16
-11
-10
-15
-16
-12
-10
-11
-12
-13
-14
-13
11
45
101
166
231
296
361
426
378
313
247
182
116
50
-15
-81
-146
-207
-232
-250
-219
-193
-188
-179
-156
-136
-121
-107
-98
-85
-65
-52
-47
-44
-41
-38
-34
-33
-35
-36
-36
-34
-30
-28
-29
-30
-31
-32
-32
-31
-29
-24
-19
-16
-18
-11
-10
-7
-4
-1
2
3
5
12
19
26
34
42
51
61
73
87
99
107
117
130
140
149
156
160
165
171
169
161
150
138
128
120
109
96
83
70
60
51
48
45
38
32
29
26
20
14
11
8
6
4
1
-2
-5
-8
-6
-4
-4
-4
-2
2
8
12
13
16
20
22
22
25
30
25
15
12
11
10
9
3
-5
-7
-9
-10
-10
-10
-8
-8
-8
-6
-4
-5
-6
-1
3
-4
-10
-9
-10
-17
-21
-18
-16
-17
-18
-17
-16
-16
-15
-12
-10
-11
-12
-12
-14
-17
-18
-17
-12
-6
-12
-22
-20
-15
-7
1
-4
2
19
53
118
183
248
313
378
419
354
288
223
157
92
26
-40
-105
-171
-218
-240
-233
-192
-171
-168
-157
-139
-121
-103
-92
-85
-70
-51
-43
-39
-34
-27
-26
-27
-26
-23
-22
-21
-20
-20
-16
-12
-13
-14
-15
-16
-10
-6
-6
-6
-5
-4
-2
1
4
7
11
17
25
33
39
44
49
58
68
77
85
92
98
107
117
124
129
134
139
144
149
148
145
140
134
126
118
105
93
79
65
56
47
40
32
24
18
15
11
8
5
1
-1
3
6
3
1
-1
-2
-1
0
1
0
-3
1
8
14
20
22
23
31
39
40
39
40
38
39
34
33
32
24
16
14
12
10
7
0
-6
-3
0
1
2
3
6
12
17
20
20
15
12
12
11
9
6
2
0
0
2
5
2
-5
-4
-1
2
5
2
-3
2
8
7
6
5
4
5
6
7
8
8
8
8
10
18
42
93
150
215
280
345
365
337
289
223
158
92
27
-39
-105
-170
-208
-235
-218
-188
-173
-162
-149
-136
-118
-101
-81
-60
-49
-38
-31
-23
-12
-2
0
2
-2
-6
-5
-4
-3
-2
-4
-6
-5
-3
1
4
5
7
9
12
16
15
9
10
16
19
21
24
27
32
37
44
51
58
65
74
66
98
112
121
130
138
147
155
162
165
168
169
169
164
159
154
144
127
113
103
94
85
74
62
55
53
48
41
32
22
18
19
17
13
11
9
8
9
10
9
8
9
19
28
33
38
37
36
41
46
43
39
34
29
25
22
21
19
14
10
8
5
2
0
0
2
7
10
11
12
11
9
7
5
3
-3
-10
-8
-3
-3
-5
-7
-9
-10
-10
-5
0
-2
-4
-5
-6
-6
-6
-9
-12
-9
-6
-5
-5
-8
-10
-8
-3
4
5
-2
1
15
58
122
186
251
316
381
353
288
222
157
91
26
-40
-105
-171
-236
-248
-240
-219
-180
-182
-183
-163
-143
-120
-99
-90
-79
-62
-48
-41
-35
-32
-30
-29
-28
-26
-25
-30
-30
-26
-20
-13
-12
-16
-17
-15
-14
-13
-12
-13
-13
-11
-7
-3
-2
-2
4
11
17
22
27
32
43
52
58
65
73
82
91
100
108
117
127
134
136
141
149
149
138
132
132
129
123
110
91
77
66
59
54
43
29
22
16
14
13
7
1
-4
-9
-10
-10
-8
-6
-7
-8
-10
-12
-15
-18
-16
-14
-13
-12
-10
-8
-6
-2
4
8
8
10
15
18
18
15
9
5
3
-2
-8
-12
-15
-19
-23
-24
-25
-26
-27
-28
-28
-22
-28
-9
-4
-11
-18
-13
-8
-12
-16
-17
-18
-18
-18
-20
-22
-21
-20
-19
-18
-18
-18
-19
-18
-14
-12
-11
-13
-19
-20
-17
-16
-16
-15
-13
-13
-15
-18
-21
16
59
122
187
253
317
352
381
316
250
185
119
54
-12
-77
-143
-208
-251
-238
-222
-198
-181
-172
-160
-147
-129
-105
-88
-77
-65
-53
-43
-35
-30
-27
-27
-29
-30
-30
-30
-30
-29
-27
-25
-23
-23
-26
-22
-18
-17
-16
-17
-18
-19
-19
-14
-9
-5
-2
-1
2
8
13
17
24
33
43
56
67
79
88
96
106
116
124
130
134
139
141
143
138
130
122
115
102
89
79
88
56
44
36
28
24
19
11
3
-3
-8
-11
-15
-20
-24
-23
-22
-24
-26
-26
-26
-25
-24
-25
-26
-26
-23
-17
-13
-11
-8
-4
1
6
8
7
6
5
2
-1
-7
-13
-17
-20
-21
-22
-21
-20
-28
-34
-31
-28
-27
-27
-35
-37
-26
-19
-22
-25
-28
-30
-31
-33
-36
-39
-41
-40
-36
-34
-34
-36
-39
-40
-40
-40
-41
-44
-47
-47
-45
-42
-39
-40
-44
-45
-46
-40
-34
-35
-36
-32
-27
-17
3
57
115
180
245
310
325
259
194
128
63
-3
-68
-134
-199
-265
-284
-274
-248
-216
-201
-192
-183
-172
-156
-137
-122
-108
-90
-71
-67
-70
-53
-44
-38
-32
-32
-32
-33
-34
-32
-30
-31
-32
-31
-30
-29
-28
-29
-29
-26
-23
-20
-19
-22
-20
-13
-6
3
6
7
10
13
22
33
39
43
51
60
72
83
92
101
108
114
123
132
134
136
137
137
129
121
113
103
90
77
67
57
47
36
26
19
16
10
1
-5
-7
-7
-5
-7
-14
-16
-17
-18
-18
-19
-21
-23
-25
-22
-17
-16
-15
-10
-4
4
12
10
8
12
16
13
10
6
1
-5
-10
-13
-17
-22
-27
-30
-33
-37
-39
-36
-35
-37
-34
-26
-22
-21
-24
-30
-29
-24
-26
-32
-37
-41
-42
-42
-41
-39
-40
-38
-43
-42
-41
-40
-42
-44
-40
-36
-37
-38
-41
-44
-41
-38
-39
-40
-41
-41
-37
-34
-37
-19
19
72
137
202
267
332
397
371
306
240
175
109
44
-22
-87
-153
-218
-235
-247
-225
-202
-196
-189
-168
-147
-122
-100
-96
-90
-76
-65
-59
-53
-49
-48
-54
-56
-50
-46
-48
-51
-53
-53
-50
-47
-45
-44
-45
-44
-40
-38
-39
-39
-37
-36
-35
-30
-25
-24
-24
-18
-10
0
10
13
17
33
48
61
73
80
87
94
102
110
117
121
124
125
126
127
124
113
103
93
81
69
59
51
44
37
30
24
14
3
-1
-3
-9
-15
-16
-15
-16
-14
-20
-20
-23
-26
-24
-22
-20
-18
-20
-22
-20
-17
-11
-6
-4
-2
-1
1
4
7
10
11
8
5
2
-1
-4
-6
-7
-11
-16
-21
-26
-29
-31
-32
-32
-32
-33
-30
-25
-17
-10
-22
-34
-29
-24
-24
-24
-26
-28
-26
-24
-26
-28
-32
-34
-33
-31
-28
-27
-30
-32
-31
-28
-24
-23
-25
-25
-23
-20
-16
-16
-19
-18
-15
-16
-19
8
41
103
168
233
299
364
421
356
290
225
159
94
28
-37
-103
-168
-219
-232
-234
-209
-192
-187
-176
-155
-135
-116
-101
-91
-78
-62
-54
-50
-42
-31
-28
-29
-31
-33
-34
-33
-32
-33
-34
-34
-31
-34
-26
-26
-26
-26
-22
-18
-19
-20
-16
-11
-4
2
5
8
10
14
21
30
40
50
61
72
84
96
107
116
123
132
142
146
147
147
145
144
145
134
120
107
93
86
79
70
62
53
44
38
31
23
16
18
19
13
7
1
-4
-6
-8
-8
-10
-15
-18
-18
-17
-14
-12
-12
-12
-12
-12
-12
-10
-6
-4
-5
-4
-1
-3
-7
-8
-8
-7
-5
-5
-8
-6
-4
-3
-1
13
36
101
166
231
296
361
388
323
257
191
126
60
-5
-71
-136
-202
-241
-258
-246
-210
-196
-195
-182
-164
-141
-116
-100
-85
-70
-55
-48
-43
-32
-21
-20
-20
-20
-20
-20
-20
-14
-8
-11
-13
-5
2
0
-2
0
2
3
5
11
14
14
17
24
29
32
38
46
55
64
76
88
100
112
123
133
145
158
158
155
159
165
166
165
157
150
139
128
119
109
96
83
77
70
56
44
36
29
25
21
18
13
4
-1
2
3
1
-3
-9
-10
-6
-4
-5
-4
-1
0
0
-1
-3
-4
-5
-7
-9
-9
-7
-8
-12
-13
-14
-13
-12
-11
-10
-13
-16
-13
-10
-11
-12
-11
-10
-8
-8
-13
-16
-15
-14
-13
-12
-13
-14
-14
-13
-11
-12
-15
-14
-9
-7
-5
-6
-9
-10
-10
-8
-5
-5
-4
-10
-12
-11
-10
-9
-8
-7
-6
-6
-6
-6
-5
1
8
14
18
17
16
18
21
24
22
14
8
4
1
-2
-6
-9
-10
-11
-12
-12
-16
-21
-22
-21
-18
-15
-13
-11
-8
-6
-7
-8
-10
-12
-15
-18
-20
-22
-18
-14
-14
-14
-12
-11
-14
-16
-16
-16
-17
-18
-19
-20
-20
-18
-14
-12
-13
-13
-11
-5
2
2
-1
16
39
98
163
228
293
358
422
357
291
226
160
95
29
-36
-102
-167
-221
-238
-239
-200
-174
-172
-165
-152
-136
-115
-101
-92
-78
-59
-48
-44
-39
-33
-29
-27
-23
-18
-16
-17
-17
-15
-15
-17
-18
-19
-20
-20
-17
-14
-13
-12
-12
-12
-9
-6
-2
2
5
9
13
18
24
29
33
38
44
53
64
75
85
96
109
121
133
142
148
157
167
173
178
179
177
170
161
156
151
131
111
100
90
82
74
62
52
49
46
40
34
23
16
24
30
26
22
16
12
10
9
13
13
6
4
8
10
9
9
13
19
27
31
33
34
34
38
43
43
41
33
25
21
16
14
12
9
6
2
-2
-6
-10
-12
-13
-9
-4
3
8
8
6
0
-1
6
5
-6
-14
-18
-18
-14
-12
-12
-14
-17
-16
-11
-10
-11
-12
-12
-10
-7
-8
-11
-12
-12
-9
-6
-10
-14
-14
-13
-6
0
-3
0
29
68
133
198
263
328
393
404
338
273
207
142
76
11
-55
-120
-186
-221
-240
-223
-191
-179
-174
-155
-132
-110
-89
-82
-77
-62
-47
-36
-26
-29
-32
-28
-24
-24
-24
-24
-24
-26
-28
-25
-22
-20
-18
-19
-20
-18
-16
-15
-15
-18
-18
-13
-10
-10
-9
-5
0
6
11
15
22
30
42
54
59
63
72
81
90
100
105
110
113
116
121
126
124
120
109
98
90
82
73
64
57
49
41
33
25
16
7
1
-1
-3
-6
-11
-16
-18
-19
-20
-19
-20
-23
-22
-19
-18
-19
-20
-19
-19
-18
-22
-22
-23
-24
-18
-12
-9
-6
-4
-1
5
10
10
10
10
10
8
5
2
-2
-9
-14
-18
-20
-21
-25
-30
-32
-32
-30
-26
-24
-25
-19
-10
-8
-7
-12
-19
-20
-20
-19
-18
-23
-28
-28
-28
-24
-20
-23
-26
-26
-25
-21
-18
-18
-19
-22
-23
-19
-16
-18
-20
-20
-19
-16
-15
-17
-18
-17
7
41
97
162
227
292
357
422
374
309
243
178
112
46
-19
-85
-150
-211
-233
-248
-216
-188
-178
-165
-142
-123
-113
-101
-84
-68
-53
-42
-37
-33
-28
-25
-23
-24
-30
-27
-18
-14
-15
-18
-23
-24
-23
-21
-19
-15
-11
-9
-7
-6
-6
-6
-4
-2
0
4
8
12
16
22
28
38
46
49
56
71
85
99
112
122
129
134
141
153
158
157
157
160
158
151
139
126
114
103
93
84
71
58
55
53
44
35
26
18
14
10
9
8
4
0
0
0
-3
-6
-8
-10
-9
-7
-4
-2
-2
-3
-6
-6
-2
1
3
5
7
11
16
20
24
26
25
25
27
23
15
14
13
13
15
8
-2
-6
-10
-11
-12
-16
-20
-18
-16
-14
-12
-9
-6
-5
-5
-8
-9
-6
-6
-11
-14
-17
-17
-15
-15
-18
-20
-20
-20
-19
-19
-21
-19
-15
-14
-15
-17
-19
-15
-9
-8
-8
-10
-14
-10
-6
-5
-3
4
20
78
137
202
267
332
355
289
224
158
93
27
-38
-104
-169
-235
-263
-260
-232
-188
-171
-169
-161
-151
-132
-109
-93
-79
-64
-48
-41
-35
-22
-9
-8
-8
-9
-10
-7
-4
-6
-8
-6
-4
-3
-2
-2
-2
-2
-1
2
5
8
10
10
12
17
20
21
23
26
31
38
44
52
57
61
70
82
90
98
109
121
137
153
156
160
163
166
169
172
165
157
147
137
127
117
105
93
79
69
64
56
45
37
34
31
28
24
20
16
12
11
13
13
11
8
5
7
11
10
7
6
5
11
19
22
20
31
36
43
50
48
46
48
49
40
32
31
29
24
19
15
12
11
8
3
0
3
4
4
4
4
7
13
16
17
12
3
2
5
6
5
-1
-7
-5
-1
0
0
-1
-2
0
2
2
2
-3
-8
-5
-2
0
2
-1
-4
-3
-2
-1
0
-1
0
5
10
14
40
84
140
205
270
335
360
366
320
255
189
124
58
-7
-73
-138
-194
-250
-224
-194
-181
-168
-155
-143
-126
-110
-91
-73
-58
-46
-45
-41
-31
-23
-18
-15
-18
-19
-15
-12
-12
-12
-13
-13
-11
-10
-9
-10
-14
-16
-15
-9
-2
-3
-7
-8
-7
0
7
9
8
18
24
33
42
47
53
60
67
78
87
94
103
114
124
132
141
149
154
156
158
157
154
149
138
122
110
98
88
79
67
54
45
38
31
24
19
15
13
11
8
5
5
6
7
8
4
0
-1
-2
-1
0
-3
-6
-8
-9
-2
4
13
18
19
20
21
25
31
33
30
22
12
9
11
10
6
-2
-10
-13
-15
-19
-23
-24
-23
-22
-21
-18
-14
-9
-4
-6
-8
-11
-14
-16
-18
-20
-23
-28
-32
-29
-26
-28
-30
-29
-29
-33
-35
-30
-29
-32
-33
-30
-28
-29
-33
-38
-40
-39
-38
-37
-36
-36
-36
-36
-13
12
75
14
206
271
336
389
324
258
193
127
62
-4
-69
-135
-200
-250
-268
-267
-230
-207
-203
-189
-166
-143
-122
-107
-96
-81
-61
-54
-53
-47
-39
-37
-39
-39
-37
-36
-37
-37
-35
-34
-33
-33
-34
-31
-28
-27
-26
-26
-26
-20
-16
-19
-22
-19
-14
-6
0
-2
0
10
20
29
38
47
57
66
76
86
95
103
108
112
120
129
130
127
126
126
121
115
103
91
79
66
60
54
46
37
27
18
14
9
2
-4
-4
-5
-10
-15
-18
-20
-20
-20
-18
-17
-22
-23
-21
-20
-19
-18
-19
-20
-19
-20
-23
-22
-19
-15
-11
-5
1
2
1
3
0
8
8
-1
-10
-9
-8
-13
-19
-26
-32
-32
-33
-39
-44
-43
-41
-38
-36
-34
-32
-29
-28
-29
-29
-26
-27
-33
-36
-37
-39
-41
-42
-42
-45
-49
-50
-49
-49
-51
-51
-49
-46
-44
-45
-46
-45
-44
-38
-32
-38
-42
-40
-38
-36
-34
-38
-31
-3
40
105
170
235
300
365
360
294
229
163
98
32
-34
-99
-165
-230
-256
-271
-243
-205
-198
-195
-176
-155
-139
-122
-113
-103
-83
-64
-57
-50
-49
-48
-45
-42
-42
-42
-41
-41
-44
-45
-42
-40
-40
-40
-40
-39
-36
-33
-30
-27
-25
-22
-18
-15
-13
-11
-9
-3
4
10
15
20
25
38
26
64
76
87
99
113
127
137
146
147
149
156
162
159
152
139
130
128
122
112
99
84
71
61
55
52
44
32
26
22
20
20
16
10
4
-3
-4
-4
-9
-15
-16
-16
-11
-6
-10
-14
-13
-12
-8
-4
-4
-4
-5
-6
-6
-6
-6
-5
-2
0
0
-1
-4
-6
-7
-4
4
5
0
3
11
47
95
155
220
285
350
319
267
203
138
72
7
-59
-125
-190
-252
-256
-256
-220
-188
-191
-192
-177
-161
-138
-119
-109
-95
-75
-59
-51
-43
-36
-31
-26
-23
-21
-22
-28
-25
-17
-12
-9
-9
-11
-12
-11
-6
-1
-2
-5
-4
-1
3
0
13
18
25
32
37
43
52
62
73
84
94
104
111
118
124
132
146
154
154
154
155
155
152
145
136
128
119
110
100
88
76
63
51
44
39
30
20
14
9
8
8
3
-2
-2
-2
-3
-4
-2
0
0
0
3
5
1
-2
0
2
1
0
-1
-2
-3
-4
-4
-5
-8
-10
-11
-9
-4
-3
-5
-6
-7
-7
-5
-9
-15
-15
-13
-12
-13
-16
-20
-20
-20
-18
-16
-17
-18
-18
-18
-16
-14
-16
-18
-19
-20
-20
-20
-22
-24
-22
-20
-20
-20
-20
-20
-20
-15
-7
-2
1
2
3
6
9
10
9
3
-3
-5
-7
-11
-8
-21
-26
-29
-32
-34
-36
-37
-38
-35
-32
-34
-34
-27
-22
-21
-22
-29
-34
-32
-30
-31
-33
-35
-36
-37
-35
-30
-28
-28
-29
-31
-32
-31
-30
-30
-30
-31
-31
-29
-29
-31
-31
-30
-29
-28
-27
-26
-22
-11
30
76
141
206
271
321
338
327
261
196
130
65
-1
-66
-132
-197
-263
-277
-253
-229
-206
-192
-183
-165
-145
-128
-111
-100
-90
-79
-67
-60
-53
-51
-48
-47
-46
-49
-52
-49
-46
-46
-46
-44
-42
-44
-46
-44
-42
-42
-42
-42
-40
-35
-33
-36
-34
-24
-18
-12
-9
-7
0
9
15
20
29
40
49
58
67
77
88
99
107
100
135
154
151
148
148
148
147
145
138
128
110
96
93
84
66
51
40
33
30
25
16
12
13
11
5
2
1
-1
-3
-3
-1
-1
-3
-6
-9
-10
-11
-12
-13
-15
-17
-14
-10
-7
-4
-7
-9
1
10
14
18
16
14
11
7
3
-1
-4
-9
-17
-22
-23
-25
-28
-30
-30
-28
-24
-22
-23
-17
-7
-6
-9
-12
-15
-16
-16
-17
-19
-25
-31
-26
-18
-22
-26
-27
-28
-31
-34
-29
-24
-26
-28
-28
-28
-26
-25
-28
-30
-29
-28
-26
-25
-30
-29
-22
-15
-9
24
72
131
196
261
326
292
227
161
96
30
-35
-101
-166
-232
-170
-286
-273
-235
-200
-190
-180
-165
-149
-128
-109
-95
-80
-65
-53
-48
-41
-32
-26
-24
-22
-23
-24
-23
-21
-18
-16
-16
-15
-13
-12
-11
-10
-9
-7
-5
-2
1
1
-1
-2
-2
7
16
15
14
17
21
29
37
44
53
69
83
89
96
103
110
119
128
138
145
148
149
147
146
146
142
133
122
109
100
94
86
77
66
56
49
41
36
31
24
17
16
18
14
10
10
10
11
12
9
6
10
14
17
19
13
9
12
14
16
19
22
25
28
33
40
44
44
43
40
36
33
32
31
27
21
19
17
12
7
1
-5
-6
-6
-2
0
-1
-2
5
12
13
14
11
8
9
9
4
-1
-4
-5
-2
-1
-4
-6
-7
-7
-4
-3
-5
-6
-6
-6
-6
-4
-1
0
1
2
2
2
2
2
1
0
1
13
25
85
145
210
275
340
383
318
252
187
121
56
-10
-76
-141
-207
-246
-247
-234
-201
-182
-177
-163
-143
-125
-108
-91
-72
-56
-41
-34
-31
-22
-12
-8
-5
-7
-11
-10
-7
-6
-8
-11
-14
-10
-6
-7
-8
-7
-6
-2
3
7
10
7
5
10
14
14
15
19
24
29
37
47
55
61
71
83
91
96
107
120
131
142
150
158
161
163
164
165
164
166
149
138
126
114
104
95
84
72
57
46
43
40
39
36
28
22
20
16
10
6
6
6
7
7
4
2
1
3
8
13
18
23
27
32
39
40
40
40
40
38
35
26
18
17
16
15
14
6
0
-2
-4
-4
-4
-1
2
3
6
12
15
11
6
0
-3
0
1
-2
-5
-7
-7
-3
-4
-7
-8
-9
-5
2
2
-1
-3
-5
-6
-6
-7
-10
-9
-8
-5
-2
-5
-8
-6
-4
-3
0
9
30
79
134
199
264
329
338
272
207
141
76
10
-55
-121
-186
-252
-272
-268
-241
-205
-189
-178
-167
-154
-133
-111
-95
-79
-66
-78
-49
-46
-35
-24
-25
-26
-27
-28
-24
-20
-19
-18
-18
-17
-13
-10
-12
-15
-18
-19
-16
-14
-13
-12
-12
-9
-3
0
-1
0
3
13
25
30
33
42
52
64
75
82
89
95
100
111
122
126
130
138
144
147
150
146
140
132
125
120
111
94
78
63
54
53
45
31
23
20
15
9
5
1
-1
-3
-4
-5
-5
-3
-3
-5
-6
-5
-6
-9
-7
-2
-5
-8
-2
4
5
7
17
26
22
19
23
26
26
23
14
8
7
6
4
-4
-17
-23
-21
-21
-23
-24
-23
-22
-22
-15
-5
-2
-3
-4
-5
-10
-15
-15
-13
-14
-12
-20
-22
-22
-22
-25
-28
-21
-16
-18
-20
-22
-23
-17
-12
-13
-14
-12
-10
-12
-14
-13
-12
-12
-12
-13
-11
-5
33
87
149
214
279
344
306
241
175
110
44
-21
-87
-152
-218
-282
-279
-274
-242
-213
-200
-186
-169
-153
-139
-123
-104
-87
-77
-66
-54
-45
-41
-37
-33
-32
-36
-35
-29
-27
-29
-31
-33
-33
-31
-30
-29
-25
-21
-20
-19
-16
-13
-13
-15
-13
-8
-9
-10
-4
2
7
13
21
29
36
44
54
65
79
90
97
106
117
127
134
138
139
140
139
138
137
130
120
107
93
83
74
64
53
46
39
33
27
19
11
9
10
2
-2
-5
-8
-10
-12
-11
-10
-10
-10
-10
-9
-4
0
-1
-1
3
8
14
18
15
17
23
28
32
34
33
29
24
22
23
18
10
10
13
9
3
0
-3
-4
-4
-3
-2
-4
-6
3
12
10
8
2
-2
0
2
3
4
3
2
2
2
2
1
-2
-4
-4
-4
-5
-7
-9
-9
-7
-4
-1
-3
-7
-6
-3
-1
1
3
5
6
7
18
30
83
136
201
266
331
376
311
245
180
114
49
-17
-82
-148
-214
-251
-242
-220
-184
-164
-164
-156
-139
-122
-103
-88
-75
-58
-40
-34
-33
-25
-14
-7
0
0
-3
-6
-9
-6
-10
-2
-4
-6
-8
-7
-6
-3
0
1
2
3
4
2
2
10
19
28
33
29
28
33
40
48
54
60
67
76
88
102
111
119
126
132
142
152
159
165
165
163
162
161
146
132
124
115
101
87
79
71
59
49
44
39
31
25
21
19
22
22
16
12
11
10
9
6
2
0
0
3
10
16
24
27
29
31
33
41
50
44
35
34
34
30
24
20
16
12
8
7
6
-1
-6
-7
-7
-3
0
-1
1
13
19
16
12
7
4
4
1
-6
-10
-10
-10
-9
-8
-8
-8
-9
-10
-10
-8
-5
-5
-7
-8
-8
-8
-8
-9
-10
-9
-8
-8
-8
-10
-12
-8
-2
8
33
97
161
226
291
356
367
301
236
170
105
39
-26
-92
-157
-223
-249
-254
-230
-192
-181
-179
-161
-140
-119
-99
-85
-71
-56
-41
-35
-30
-22
-14
-16
-18
-20
-22
-18
-14
-14
-14
-17
-20
-16
-13
-9
-6
-6
-6
-6
-5
-3
-2
-2
-2
-1
3
8
11
13
19
26
36
48
52
55
67
80
97
113
117
122
129
136
145
154
159
164
162
160
156
150
138
127
113
102
96
87
73
62
56
49
42
34
24
17
11
8
9
8
5
2
-3
-4
-4
-6
-9
-7
-3
-3
-5
-8
-6
-8
-4
1
6
6
6
9
12
15
18
19
17
3
-3
8
13
2
-4
-2
-2
-9
-14
-19
-22
-23
-20
-13
-14
-21
-20
-14
-8
-2
-4
-11
-11
-9
-8
-9
-11
-13
-14
-14
-13
-12
-19
-26
-23
-20
-18
-16
-16
-17
-22
-25
-20
-16
-15
-14
-16
-17
-13
-10
-9
-9
-12
-8
2
40
95
156
221
286
351
315
250
184
119
53
-12
-78
-143
-209
-274
-272
-268
-230
-195
-186
-175
-155
-136
-121
-108
-96
-82
-62
-47
-44
-40
-35
-30
-25
-22
-23
-24
-24
-25
-28
-27
-21
-21
-26
-24
-18
-19
-23
-24
-23
-11
2
-4
-13
-11
-14
-2
2
3
4
10
17
25
32
38
44
53
62
71
80
86
94
105
115
123
128
129
132
136
133
124
112
99
91
86
77
67
55
41
30
20
17
15
13
11
6
1
0
0
-9
-18
-14
-10
-8
-7
-13
-18
-18
-17
-9
-6
-16
-26
-38
-44
-38
-16
25
78
143
208
273
262
196
131
65
-1
-66
-132
-197
-263
-328
-356
-375
-322
-257
-213
-172
-131
-90
-67
-44
-40
-35
-19
-7
-17
-25
-15
-9
-13
-16
-14
-12
-14
-16
-15
-12
-7
-4
-3
-1
1
3
6
9
11
15
20
25
30
37
44
55
66
76
87
99
111
127
112
159
174
182
191
205
218
223
228
228
228
228
228
225
217
201
184
168
152
138
123
108
93
79
66
53
43
34
26
19
16
15
9
2
0
1
3
5
3
-1
0
3
8
12
6
0
-2
-4
-1
2
2
2
-1
-3
1
3
-4
-8
-10
-11
-7
-4
-4
-4
-5
-5
-2
-2
-6
-8
-9
-9
-7
-7
-9
-13
-17
-16
-13
-12
-11
-10
-10
-10
-8
-8
-8
-8
-8
-6
-4
-5
-7
-13
-17
-13
-10
-13
-16
-16
-16
-14
-12
-11
-10
-13
-13
-10
-8
-9
-11
-14
-17
-19
-18
-15
-14
-15
-16
-15
-13
-11
-10
-9
2
-8
18
22
19
16
19
22
21
19
8
0
-2
-4
-4
-6
-13
-18
-17
-16
-18
-20
-17
-15
-12
-6
2
2
-7
-10
-10
-7
-2
-6
-16
-18
-17
-14
-11
-14
-19
-18
-15
-14
-14
-13
-12
-13
-14
-13
-12
-16
-20
-18
-16
-13
-10
-8
-6
-6
-5
-2
14
46
94
159
224
289
354
419
402
336
270
205
139
74
8
-57
-123
-188
-220
-247
-219
-186
-179
-172
-156
-139
-119
-100
-91
-82
-64
-50
-48
-44
-36
-30
-32
-33
-30
-27
-24
-22
-24
-26
-25
-22
-18
-16
-17
-18
-17
-16
-17
-18
-18
-13
-6
-4
-4
-3
-1
7
15
19
16
32
40
48
57
70
83
91
99
110
120
131
141
147
154
161
169
177
182
180
175
168
161
154
144
133
119
102
92
85
75
63
52
41
34
29
27
25
19
13
11
9
9
10
9
8
6
4
3
2
3
4
6
9
13
17
22
26
27
28
27
23
15
10
11
10
5
1
-2
-5
-9
-11
-13
-18
-24
-26
-25
-24
-25
-21
-15
-12
-9
-11
-16
-12
-8
-13
-18
-19
-20
-21
-22
-23
-24
-24
-25
-29
-31
-28
-26
-26
-25
-22
-21
-26
-26
-22
-21
-23
-19
-11
-6
-3
0
3
29
61
120
185
250
315
380
445
387
449
256
190
125
59
-6
-67
-103
-125
-84
-53
-59
-64
-66
-67
-64
-60
-54
-51
-55
-58
-61
-61
-58
-56
-55
-53
-51
-52
-55
-58
-61
-62
-62
-62
-63
-64
-65
-66
-67
-68
-67
-71
-76
-69
-62
-64
-66
-69
-72
-71
-70
-70
-70
-73
-76
-74
-71
-68
-66
-65
-63
-60
-54
-46
-40
-36
-28
-18
-7
4
6
2
4
10
12
12
10
7
6
6
6
6
3
-2
-2
-2
2
6
1
-4
-5
-6
-3
-1
-6
-10
-9
-8
-9
-10
-12
-14
-15
-15
-12
-11
-13
-13
-10
-1
10
10
4
4
9
13
19
20
21
15
5
4
4
1
4
-8
-12
-5
2
-8
-16
-16
-16
-19
-22
-22
-21
-15
-9
-4
-1
-4
-7
-10
-15
-22
-25
-23
-20
-16
-18
-25
-24
-18
-18
-21
-17
-10
-19
-33
-33
-29
-26
-23
-27
-33
-31
-28
-27
-26
-20
-14
-22
-28
-22
-9
35
85
150
215
280
321
318
290
224
159
93
28
-38
-103
-169
-220
-261
-262
-240
-216
-191
-175
-161
-144
-126
-114
-104
-92
-79
-62
-45
-41
-36
-32
-28
-27
-26
-21
-16
-15
-14
-15
-16
-18
-20
-17
-14
-12
-11
-14
-16
-14
-11
-8
-5
-3
-1
1
8
18
22
22
25
30
39
48
54
61
69
77
93
111
113
112
128
140
147
154
155
156
160
164
158
151
138
125
111
98
83
71
63
55
48
43
38
32
23
17
15
15
17
14
7
4
4
5
7
5
1
-2
-5
-5
-3
-1
1
5
8
14
20
25
30
33
36
38
39
33
27
21
16
16
14
8
3
-1
-4
-2
-3
-9
-10
-6
-4
-3
2
9
9
4
2
1
-1
-3
-1
3
16
30
91
156
218
278
248
216
151
87
36
-13
-48
-89
-154
-216
-264
-294
-277
-264
-258
-277
-336
-376
-392
-388
-361
-330
-295
-251
-201
-161
-128
-96
-65
-43
-25
-19
-17
-16
-17
-15
-11
-7
-3
-2
-2
-3
-4
0
4
1
-2
3
8
9
10
8
6
6
6
7
7
4
3
7
13
22
26
26
30
38
51
66
81
95
114
134
154
174
191
209
226
244
258
273
275
277
283
288
287
285
271
257
248
238
226
212
194
175
155
136
122
107
90
73
56
45
41
35
28
22
17
13
10
8
7
6
5
8
14
12
7
6
5
9
15
10
3
1
-2
-3
-4
-1
2
-1
-4
-2
0
0
0
-2
-3
1
3
-2
-6
-6
-6
-7
-8
-5
-4
-5
-5
-2
-1
-4
-5
-3
3
12
10
4
23
50
109
174
239
304
369
308
370
304
239
173
108
42
-23
-89
-154
-208
-224
-227
-195
-173
-176
-170
-148
-125
-104
-90
-83
-69
-48
-35
-29
-26
-25
-24
-23
-17
-10
-11
-15
-16
-17
-15
-11
-11
-13
-16
-19
-13
-6
-7
-8
-9
-10
-2
5
11
16
20
26
34
40
44
48
55
64
75
85
92
101
112
124
137
145
150
153
155
160
166
164
158
146
133
122
112
98
84
70
57
50
42
33
24
17
10
7
4
0
-4
-8
-12
-11
-10
-12
-15
-18
-20
-21
-22
-22
-22
-25
-25
-23
-22
-22
-22
-21
-20
-20
-18
-15
-14
-14
-17
-21
-19
-15
-14
-14
-16
-14
-18
-16
-19
-22
-21
-20
-19
-19
-25
-29
-20
-14
-16
-19
-23
-26
-24
-22
-20
-18
-17
-14
-10
-7
-5
-4
-5
-8
-11
-12
-12
-18
-26
-28
-27
-30
-35
-39
-43
-44
-45
-47
-48
-49
-50
-41
-32
-29
-27
-34
-39
-31
-25
-29
-32
-36
-38
-40
-41
-38
-38
-44
-47
-44
-42
-43
-43
-40
-35
-28
-29
-34
-36
-35
-33
-31
-29
-27
-31
-37
-25
-11
35
83
148
213
278
329
264
198
133
67
2
-64
-129
-195
-260
-302
-296
-279
-246
-220
-206
-194
-183
-168
-149
-134
-123
-108
-92
-83
-78
-70
-61
-57
-55
-54
-54
-55
-57
-56
-53
-52
-52
-54
-54
-57
-59
-48
-39
-46
-52
-53
-53
-46
-38
-27
-22
-28
-31
-25
-22
-24
-22
-11
-1
11
16
16
22
34
47
61
71
79
86
92
102
114
116
116
116
115
114
114
94
74
67
60
52
43
32
21
15
10
6
2
-1
-4
-6
-9
-12
-15
-19
-22
-23
-24
-25
-27
-30
-30
-26
-22
-18
-16
-15
-13
-11
-5
2
4
5
0
-7
-9
-11
-12
-12
-20
-28
-30
-32
-33
-34
-37
-40
-36
-32
-34
-34
-26
-20
-20
-21
-24
-26
-26
-28
-33
-38
-43
-46
-45
-44
-43
-42
-42
-42
-42
-41
-39
-39
-41
-42
-43
-42
-39
-40
-38
-43
-42
-43
-44
-34
-27
-36
-43
-34
-13
44
104
169
234
299
324
280
227
161
96
30
-35
-101
-166
-232
-260
-264
-245
-212
-200
-197
-184
-168
-147
-126
-112
-100
-88
-77
-67
-57
-50
-44
-44
-44
-40
-36
-36
-36
-39
-41
-36
-32
-33
-34
-30
-28
-26
-25
-28
-30
-28
-24
-20
-18
-19
-18
-14
-8
-1
3
5
11
18
28
40
48
56
65
73
88
103
104
104
112
120
129
138
131
124
122
119
113
105
92
79
67
56
50
44
37
28
19
12
5
-1
-8
-13
-16
-18
-19
-20
-21
-22
-21
-15
-8
-4
-1
2
5
6
6
4
6
-1
-2
-8
-14
-18
-22
-25
-28
-25
-23
-30
-36
-36
-34
-28
-23
-20
-15
-8
-6
-13
-17
-20
-23
-25
-26
-25
-25
-27
-29
-31
-29
-24
-23
-25
-25
-23
-19
-15
-17
-21
-22
-22
-22
-22
-22
-22
-23
-23
-15
-8
-11
-14
-13
2
48
101
166
231
296
353
400
392
326
261
195
130
64
-1
-67
-133
-198
-210
-202
-194
-186
-172
-156
-134
-110
-99
-89
-76
-62
-50
-38
-33
-28
-29
-30
-25
-20
-24
-28
-27
-26
-28
-29
-25
-22
-22
-22
-20
-20
-25
-28
-28
-26
-22
-21
-23
-22
-18
-14
-9
-8
-7
0
8
18
29
38
47
57
48
80
92
99
106
109
113
124
134
137
140
135
130
121
111
102
93
84
76
70
62
51
42
34
29
27
20
10
5
3
2
2
-1
-5
-6
-5
-3
-1
10
23
21
17
18
20
24
28
19
10
9
8
2
-2
-6
-10
-12
-14
-14
-16
-22
-24
-19
-16
-14
-11
-9
-7
-5
-7
-13
-16
-17
-18
-17
-18
-21
-22
-23
-24
-24
-20
-15
-20
-27
-28
-26
-25
-24
-21
-18
-21
-24
-23
-22
-24
-26
-26
-23
-13
-10
-25
-29
-15
15
66
123
188
253
318
309
243
178
112
46
-19
-85
-150
-216
-281
-289
-282
-244
-201
-194
-191
-175
-190
-136
-114
-106
-97
-81
-65
-58
-52
-48
-44
-44
-43
-37
-33
-37
-39
-33
-30
-29
-29
-32
-33
-30
-28
-29
-31
-33
-32
-29
-28
-27
-25
-23
-18
-13
-9
-5
2
9
18
27
36
44
51
58
63
69
85
98
99
102
112
120
123
126
124
118
107
100
99
93
81
69
59
51
43
33
21
13
6
3
1
-4
-10
-14
-17
-18
-18
-18
-18
-16
-13
-11
-8
-11
-14
-9
-4
2
8
3
-1
5
9
4
0
-2
-4
-6
-9
-12
-14
-15
-16
-19
-20
-21
-22
-23
-21
-15
-12
-12
-12
-13
-17
-23
-20
-13
-16
-21
-22
-22
-17
-22
-14
-18
-23
-28
-29
-30
-29
-28
-32
-36
-31
-28
-30
-32
-31
-29
-25
-22
-23
-23
-18
-18
-23
-12
14
63
128
193
258
323
388
356
291
225
160
94
29
-37
-102
-168
-233
-252
-269
-229
-192
-185
-177
-164
-150
-133
-117
-102
-87
-74
-63
-58
-52
-46
-42
-40
-38
-36
-33
-30
-28
-28
-28
-28
-27
-23
-24
-27
-28
-29
-27
-23
-22
-22
-21
-19
-16
-13
-6
2
5
8
17
26
28
31
38
46
58
70
79
88
97
108
120
130
135
140
146
149
144
141
138
129
115
105
96
83
69
58
49
40
32
26
19
13
7
4
1
1
0
-2
-8
-8
-8
-6
-4
-4
-4
-1
3
8
12
13
15
19
22
20
16
11
8
9
10
9
4
-3
-6
-7
-11
-16
-17
-15
-14
-15
-12
-5
-4
-3
-5
-9
-6
-1
-4
-8
-4
0
1
2
8
24
87
150
215
260
249
222
164
108
56
11
-22
-69
-135
-192
-241
-252
-230
-214
-203
-239
-305
-342
-367
-363
-348
-316
-281
-236
-190
-159
-129
-96
-64
-35
-6
-11
-16
-14
-12
-12
-12
-12
-12
-11
-10
-13
-15
-11
-8
-8
-8
-9
-10
-10
-10
-7
-6
-5
-4
-5
-4
0
2
1
0
1
6
12
17
21
36
52
67
83
103
84
144
165
187
209
223
237
251
264
276
286
285
282
275
268
261
250
234
216
197
178
161
142
123
108
95
82
69
58
48
39
31
26
23
21
19
15
11
10
10
10
11
13
14
20
26
19
12
15
18
24
28
27
27
33
39
44
48
48
47
43
39
35
30
26
24
24
20
11
5
0
-3
-5
-8
-11
-10
-7
-6
-7
-1
7
8
7
3
-2
1
4
4
4
0
-4
-3
-2
-5
-8
-8
-8
-7
-6
-6
-6
-7
-8
-8
-8
-5
-4
-4
-3
0
2
1
1
3
2
-1
6
17
60
110
173
238
303
368
345
372
251
185
120
54
-11
-77
-142
-202
-236
-256
-226
-202
-191
-178
-157
-139
-123
-106
-87
-71
-58
-47
-37
-29
-23
-20
-21
-21
-19
-18
-17
-16
-17
-21
-25
-24
-21
-21
-23
-24
-23
-21
-20
-14
-8
-11
-14
-10
-6
-3
0
3
7
12
18
26
34
40
47
55
65
77
86
91
102
117
125
128
133
140
144
147
146
143
136
128
121
115
102
88
79
71
61
50
45
40
34
28
25
21
13
6
3
0
-1
-3
-7
-10
-10
-9
-6
-3
1
4
4
8
16
20
21
19
13
9
7
4
-1
-4
-7
-10
-13
-14
-14
-20
-27
-21
-28
-14
-16
-10
-4
1
6
6
6
2
-2
-5
-8
-9
-13
-22
-27
-23
-20
-22
-23
-20
-20
-24
-24
-18
-16
-17
-19
-21
-18
-12
-15
-22
-27
-31
-26
-17
-17
-19
-12
-3
49
102
167
232
297
347
287
225
160
94
29
-37
-102
-168
-234
-273
-264
-247
-220
-197
-181
-164
-148
-133
-118
-103
-88
-72
-56
-45
-37
-32
-29
-26
-23
-22
-23
-20
-15
-24
-35
-26
-14
-18
-22
-20
-18
-17
-16
-15
-14
-15
-15
-10
-6
-5
-4
-5
-2
11
19
23
26
25
33
50
60
66
73
81
93
107
114
117
121
125
131
138
136
131
127
123
114
122
93
82
74
66
62
57
46
36
32
27
22
17
12
7
2
-2
-2
-2
-2
-4
-9
-11
-8
-5
-2
-1
-3
0
7
11
13
16
19
23
27
28
29
21
11
11
13
7
0
-2
-4
-6
-8
-6
-4
-10
-14
-11
-8
-11
-13
-9
-6
-4
-3
-7
-10
-10
-10
-11
-13
-15
-16
-15
-14
-15
-14
-11
-12
-15
-16
-15
-14
-13
-12
-12
-12
-11
-10
-12
-11
-10
-8
-6
1
8
4
1
8
26
76
131
196
261
326
356
328
284
218
153
87
22
-44
-109
-175
-214
-236
-223
-191
-177
-168
-159
-148
-129
-108
-95
-84
-73
-63
-49
-62
-26
-18
-16
-14
-13
-12
-9
-6
-8
-10
-8
-6
-8
-10
-10
-10
-9
-8
-9
-10
-10
-7
-1
2
3
5
7
12
18
23
28
32
35
45
58
65
71
82
95
104
113
124
134
137
140
151
160
158
156
154
152
148
141
128
115
102
90
76
65
56
48
42
36
31
25
17
11
5
4
8
9
7
6
5
11
20
22
21
20
21
23
25
26
24
18
12
15
18
12
6
6
6
5
4
1
-3
-7
-9
-5
-2
-4
-4
2
6
9
7
1
-2
-2
-1
1
1
-1
-4
-9
-9
-7
-7
-9
-10
-11
-12
-12
-12
-12
-16
-18
-15
-12
-15
-18
-15
-12
-11
-10
-7
-4
-7
-6
9
37
91
149
214
279
344
343
277
212
146
81
15
-51
-116
-182
-247
-264
-264
-233
-195
-188
-189
-175
-158
-135
-113
-101
-90
-69
-50
-46
-42
-41
-39
-28
-20
-21
-22
-24
-26
-22
-20
-21
-24
-29
-30
-25
-23
-25
-26
-25
-22
-18
-15
-13
-11
-9
-5
0
5
9
10
11
20
29
38
47
51
56
69
82
88
94
100
107
117
126
130
134
135
133
123
114
107
96
80
68
63
55
44
34
24
16
9
7
9
6
-1
-6
-9
-10
-10
-13
-17
-18
-18
-18
-19
-20
-20
-17
-14
-6
2
3
4
6
9
16
21
15
10
10
8
0
-6
-8
-12
-17
-20
-21
-22
-23
-28
-36
-34
-24
-20
-21
-17
-10
-8
-8
-10
-13
-17
-21
-22
-21
-24
-29
-30
-30
-31
-32
-30
-28
-29
-30
-30
-30
-30
-30
-29
-27
-20
-19
-29
-34
-29
-26
-28
-29
-27
-29
-37
-14
30
87
152
217
282
338
390
351
286
220
155
89
24
-42
-107
-173
-238
-250
-260
-228
-198
-195
-188
-163
-139
-119
-103
-99
-90
-67
-51
-47
-43
-40
-38
-38
-38
-38
-38
-39
-39
-36
-36
-40
-41
-39
-38
-38
-33
-26
-27
-31
-32
-32
-27
-21
-24
-20
-18
-6
-14
-22
-12
-3
11
22
24
29
44
57
61
68
83
93
99
104
110
118
129
128
116
108
102
98
94
84
70
56
42
37
35
25
12
6
1
-2
-5
-12
-19
-20
-20
-27
-34
-27
-21
-30
-37
-30
-24
-28
-30
-22
-16
-16
-16
-17
-15
-6
4
14
13
-3
-9
-6
-4
-4
-7
-12
-16
-19
-20
-19
-18
-18
-19
-21
-20
-17
-25
-35
-19
0
-20
-40
-33
-26
-22
-18
-18
-20
-32
-41
-35
-30
-27
-26
-35
-37
-28
-26
-35
-40
-43
-43
-41
-40
-40
-41
-43
-42
-38
-36
-36
-33
-29
-29
-31
-32
-31
-12
9
67
10
193
258
323
376
311
245
180
114
49
-17
-82
-148
-213
-262
-274
-266
-221
-193
-189
-180
-167
-152
-134
-119
-106
-92
-77
-68
-61
-51
-41
-35
-31
-30
-31
-31
-29
-26
-23
-25
-29
-27
-24
-26
-28
-28
-28
-24
-20
-16
-12
-10
-8
-5
0
7
12
14
18
24
34
47
55
58
66
77
91
106
112
112
118
127
133
138
142
145
149
153
148
141
125
109
101
92
83
74
60
47
38
30
31
31
25
18
10
4
3
1
-3
-6
-7
-8
-7
-7
-12
-14
-15
-14
-8
-7
-10
-12
-12
-10
-5
-4
-5
-4
-1
0
1
0
-3
-2
-4
2
2
-3
-8
-6
0
28
64
129
194
259
324
389
412
346
281
215
150
84
19
-47
-112
-178
-219
-243
-234
-203
-193
-195
-183
-163
-143
-123
-112
-104
-78
-50
-42
-37
-31
-25
-19
-14
-15
-16
-17
-18
-12
-6
-8
-10
-8
-6
-5
-4
-2
1
5
10
16
21
24
26
27
34
45
51
53
59
69
79
91
102
113
121
128
139
150
158
165
167
169
171
174
170
166
152
140
135
128
113
98
84
73
67
60
52
45
40
34
29
26
26
25
22
20
19
18
17
15
13
10
7
8
13
11
7
6
7
9
11
12
11
14
10
19
18
13
8
7
6
9
12
9
6
5
4
4
4
2
1
5
8
9
9
6
4
5
7
10
9
3
0
1
3
5
5
3
2
3
7
11
20
29
33
37
40
42
40
38
36
34
30
26
20
15
10
6
7
7
2
-3
-8
-11
-7
-4
-3
0
5
9
12
10
3
1
3
2
-2
-6
-9
-10
-11
-10
-7
-6
-6
-5
-3
-2
-2
-2
-2
-4
-6
-6
-6
-6
-6
-6
-4
4
9
3
-1
4
25
70
124
189
254
319
379
434
421
355
290
224
158
93
27
-38
-104
-169
-197
-217
-206
-190
-176
-163
-137
-162
-96
-82
-77
-71
-57
-44
-39
-34
-30
-26
-29
-31
-27
-24
-25
-26
-25
-24
-23
-22
-22
-22
-23
-24
-23
-22
-21
-20
-20
-18
-14
-12
-11
-10
-9
1
12
14
13
20
29
39
48
55
62
75
87
97
106
112
119
134
146
148
150
150
150
149
147
143
134
121
111
104
93
78
67
58
51
44
38
30
23
16
15
17
15
11
7
3
2
2
5
10
4
-2
1
4
5
6
11
16
20
24
27
30
29
27
22
18
16
14
12
10
10
10
11
5
-7
-11
-8
-7
-9
-8
-3
-2
-1
2
5
5
3
3
5
6
6
5
2
-1
-4
-5
-6
-10
-14
-11
-9
-16
-21
-16
-12
-12
-12
-11
-10
-9
-8
-5
-4
-3
-1
1
1
-1
0
4
31
68
126
191
256
321
344
358
302
237
171
106
40
-26
-91
-156
-217
-268
-249
-227
-198
-172
-163
-152
-133
-117
-106
-94
-82
-67
-49
-37
-33
-28
-23
-18
-14
-13
-16
-13
-5
-6
-14
-19
-24
-20
-12
-12
-15
-15
-13
-11
-9
-7
-4
-1
2
7
12
15
18
19
21
29
37
41
47
57
67
79
88
95
100
102
111
126
136
140
143
146
147
145
139
131
120
107
98
90
79
68
58
47
43
39
29
38
16
14
14
14
11
8
6
4
3
2
1
0
-1
-2
0
2
1
0
2
7
16
22
27
29
27
26
26
24
20
15
10
7
5
3
1
-2
-5
-9
-13
-15
-17
-14
-10
-5
0
2
4
1
-2
-5
-8
-7
-7
-12
-16
-16
-16
-14
-12
-14
-16
-15
-14
-14
-13
-11
-9
-7
-6
-6
-7
-9
-10
-11
-9
-5
-4
-5
-5
-3
-1
1
20
41
106
171
236
301
366
411
346
280
215
149
84
18
-47
-113
-179
-224
-236
-226
-183
-160
-160
-151
-132
-114
-95
-80
-67
-53
-39
-32
-29
-22
-14
-13
-15
-15
-13
-11
-9
-8
-8
-8
-8
-6
-4
-2
0
1
2
2
2
1
0
3
8
14
18
17
18
23
29
38
42
43
53
69
79
85
94
104
112
118
126
136
144
152
157
161
162
162
159
155
143
132
123
114
103
93
83
73
64
55
50
43
31
22
22
20
14
9
6
5
8
9
7
9
17
24
31
33
31
30
31
31
29
25
21
16
11
10
9
5
1
-1
-4
-6
-8
-8
-8
-4
0
7
12
11
9
5
2
2
0
-7
-12
-10
-8
-6
-6
-11
-13
-10
-9
-11
-9
-4
-4
-7
-7
-5
-4
-5
-6
-7
-8
-7
-7
-9
-7
-10
-5
-8
-7
-4
25
59
124
189
254
319
384
413
348
282
216
151
85
20
-46
-111
-177
-217
-234
-225
-193
-177
-172
-157
-137
-115
-94
-82
-74
-63
-50
-43
-37
-34
-31
-29
-27
-26
-26
-22
-18
-20
-22
-16
-10
-11
-12
-12
-12
-9
-6
-6
-7
-10
-10
-4
1
4
6
5
6
11
17
23
31
41
48
56
64
72
82
94
100
105
113
121
123
125
130
136
134
132
122
112
105
98
94
87
71
57
51
45
39
32
25
18
11
6
4
2
1
-2
-7
-9
-7
-6
-5
-3
-1
4
10
14
17
21
25
27
29
26
21
19
20
14
12
5
-2
-3
-4
-2
-1
-8
-14
-17
-19
-14
-10
-9
-8
-9
-8
-3
-3
-10
-12
-8
-6
-6
-13
-25
-24
-14
-10
-10
-10
-9
-16
-28
-24
-17
-16
-17
-22
-27
-23
-18
-23
-28
-21
-14
-16
-18
-12
-9
-14
-13
6
36
89
147
212
277
342
349
283
218
152
87
21
-44
-110
-175
-241
-265
-270
-247
-212
-198
-190
-172
-153
-139
-126
-113
-101
-85
-68
-64
-60
-53
-46
-42
-38
-36
-33
-26
-21
-28
-34
-31
-28
-29
-32
-37
-38
-33
-29
-24
-23
-26
-25
-19
-14
-10
-5
0
5
10
12
11
23
39
49
57
63
69
84
70
107
114
116
118
124
130
137
142
145
146
136
127
121
112
99
87
78
66
49
36
25
20
20
18
12
3
-9
-13
-11
-10
-11
-12
-13
-14
-14
-14
-15
-16
-17
-28
-39
-25
-10
-17
-24
-21
-18
-12
-6
-10
-14
-10
-7
-11
-12
-4
0
-9
-13
-9
-3
5
38
94
155
220
285
350
333
267
201
136
70
5
-61
-126
-192
-257
-273
-281
-251
-218
-203
-188
-187
-185
-153
-122
-100
-80
-85
-85
-57
-35
-31
-27
-22
-21
-30
-33
-25
-20
-21
-22
-21
-20
-19
-18
-17
-15
-13
-10
-6
-2
1
7
14
19
23
28
33
38
43
51
44
69
78
87
96
107
117
125
132
138
144
153
160
157
154
154
151
142
131
119
105
90
80
75
66
55
46
39
32
25
20
16
14
15
13
9
7
5
4
4
4
5
3
0
-4
-8
-2
4
0
-4
-4
-4
-1
2
3
4
3
2
1
0
-2
-4
-6
-9
-11
-12
-12
-13
-15
-15
-11
-11
-13
-14
-15
-12
-6
-4
-5
-8
-11
-11
-9
-8
-6
-10
-14
-13
-12
-10
-8
-15
-19
-11
-4
-1
3
9
15
18
21
24
25
21
16
11
6
2
-2
-6
-8
-9
-10
-11
-17
-24
-23
-19
-16
-13
-12
-12
-5
3
0
4
-11
-16
-14
-12
-13
-14
-17
-20
-18
-16
-16
-16
-16
-15
-12
-10
-12
-14
-15
-16
-13
-12
-13
-14
-15
-16
-16
-14
-11
-10
-11
-2
13
67
132
197
262
327
392
336
271
205
139
74
8
-57
-123
-188
-244
-253
-252
-214
-186
-186
-180
-160
-140
-121
-107
-98
-86
-72
-61
-54
-48
-44
-41
-38
-35
-33
-35
-40
-39
-34
-32
-31
-32
-35
-35
-33
-32
-31
-30
-30
-29
-28
-25
-22
-21
-20
-19
-18
-14
-9
-4
3
13
22
31
37
41
49
61
73
86
95
101
110
121
132
142
147
149
150
149
141
132
123
114
105
95
85
75
62
74
41
34
26
18
11
4
4
4
3
1
-6
-11
-6
-1
2
6
12
17
20
22
21
19
17
14
8
5
3
-1
-6
-8
-7
-10
-16
-17
-15
-15
-17
-18
-17
-17
-19
-11
-2
-2
-2
-11
-20
-12
-6
-9
-12
-16
-20
-19
-17
-13
-10
-12
-14
-15
-16
-16
-16
-17
-17
-15
-14
-13
-14
-18
-18
-15
-14
-15
-16
-15
-12
-9
-7
-5
21
49
112
178
243
308
373
424
359
293
228
162
97
31
-34
-100
-165
-214
-230
-229
-199
-181
-178
-165
-142
-122
-105
-95
-89
-76
-60
-51
-46
-42
-39
-40
-43
-41
-37
-34
-31
-33
-37
-38
-38
-35
-32
-33
-34
-31
-28
-29
-30
-29
-27
-21
-16
-14
-12
-10
-5
4
13
20
25
30
36
45
56
67
77
86
94
100
105
110
116
122
124
125
123
119
110
101
92
83
74
66
52
38
31
24
20
15
7
-1
-6
-9
-5
-4
-11
-15
-12
-10
-11
-17
-28
-37
-43
-46
-46
-49
-55
-57
-55
-54
-55
-57
-59
-57
-53
-47
-41
-40
-39
-33
-27
-24
-20
-22
-24
-20
-16
-12
-8
-12
-16
-18
-19
-15
-12
-12
-12
-14
-13
-5
-1
-5
-7
-4
-2
-3
-3
-1
-4
-11
-9
-1
18
42
97
162
227
292
357
422
370
305
239
301
108
42
-23
-89
-154
-213
-231
-240
-205
-177
-171
-162
-148
-131
-109
-91
-83
-69
-48
-36
-35
-30
-21
-16
-17
-19
-21
-19
-14
-14
-17
-17
-15
-13
-11
-10
-10
-9
-7
-3
1
1
0
1
2
8
14
14
15
21
27
35
43
49
56
63
72
86
97
105
114
124
133
140
145
147
149
151
150
146
138
129
117
103
94
86
74
62
50
37
36
35
29
22
14
6
-1
-8
-6
-4
-11
-16
-13
-10
-11
-12
-14
-16
-16
-14
-8
-4
-4
-3
2
5
7
6
2
0
1
4
7
6
3
5
9
9
7
6
6
9
13
20
14
29
30
32
34
35
35
24
14
14
14
9
5
0
-5
-8
-10
-12
-15
-18
-18
-11
-8
-9
-8
-4
-2
-2
-4
-8
-10
-10
-12
-15
-16
-17
-18
-17
-16
-17
-17
-15
-14
-14
-13
-12
-13
-14
-15
-16
-13
-10
-8
-7
-11
-14
-10
-7
-4
-2
-4
4
28
72
137
202
267
332
397
380
314
248
183
117
52
-14
-79
-145
-210
-227
-237
-205
-168
-166
-164
-144
-123
-105
-88
-85
-80
-61
-45
-38
-32
-30
-28
-26
-24
-22
-20
-21
-22
-24
-24
-17
-14
-14
-16
-20
-21
-18
-16
-16
-18
-21
-16
-8
-4
-1
0
1
8
15
17
16
29
38
45
52
59
67
77
88
99
109
115
121
127
134
141
146
145
142
136
131
128
120
108
96
85
76
69
59
48
38
29
25
23
18
11
9
7
4
1
-1
-3
0
4
7
10
14
18
19
20
24
28
28
28
26
23
19
16
14
11
7
4
2
0
1
0
-5
-8
-9
-10
-10
-8
-4
-2
-1
2
5
2
-3
-4
-5
-6
-6
-9
-14
-12
-10
-9
-8
-9
-10
-11
-12
-11
-11
-16
-20
-17
-14
-16
-18
-18
-17
-14
-12
-9
-7
-5
-3
-1
5
14
55
112
174
239
304
369
329
264
198
133
67
2
-64
-2
-195
-258
-253
-246
-215
-188
-185
-178
-157
-137
-120
-105
-91
-76
-57
-44
-43
-40
-34
-30
-27
-25
-22
-20
-19
-18
-17
-16
-16
-17
-19
-21
-23
-24
-23
-20
-17
-16
-15
-14
-13
-7
-2
5
12
11
10
16
22
28
33
39
46
55
65
78
89
98
105
108
113
121
128
132
134
133
133
136
131
118
105
90
79
69
61
54
44
34
29
25
17
9
3
-4
-2
0
-2
-4
-4
-4
-5
-6
-8
-10
-10
-10
-11
-11
-7
-4
-2
2
7
10
11
14
19
22
23
21
15
8
2
1
3
0
-6
-8
-7
-9
-13
-17
-21
-17
-22
-10
-10
-6
-2
1
3
-4
-10
-9
-8
-11
-14
-14
-14
-14
-14
-15
-16
-16
-18
-23
-23
-17
-15
-18
-18
-14
-15
-20
-20
-16
-14
-15
-19
-23
-18
-11
-12
-15
-8
1
44
88
153
218
283
334
279
223
158
92
27
-39
-104
-170
-236
-279
-282
-269
-231
-205
-193
-179
-165
-149
-132
-113
-93
-79
-66
-60
-56
-44
-30
-30
-35
-34
-31
-29
-27
-24
-21
-20
-22
-23
-24
-23
-22
-16
-10
-10
-10
-9
-7
-3
0
0
1
5
10
15
18
19
22
29
36
44
55
67
76
83
93
104
113
120
126
132
139
146
148
148
146
143
137
142
114
98
89
80
70
61
51
41
34
27
20
14
12
8
1
-4
-5
-6
-6
-7
-10
-12
-11
-11
-14
-14
-10
-6
-2
2
6
11
15
17
19
23
27
26
23
21
19
14
10
7
4
0
-4
-4
-4
-7
-10
-12
-14
-11
-8
-9
-9
-4
-1
-4
-6
-7
-9
-11
-12
-13
-14
-14
-12
-8
-10
-16
-18
-17
-15
-13
-12
-13
-17
-21
-20
-17
-15
-12
-14
-16
-14
-12
-7
-2
-1
0
1
3
9
27
71
122
187
252
317
344
319
275
209
144
78
13
-53
-118
-184
-219
-238
-222
-190
-180
-177
-162
-145
-129
-114
-101
-89
-75
-88
-52
-44
-37
-30
-27
-24
-23
-22
-16
-13
-18
-22
-24
-24
-18
-14
-16
-18
-20
-21
-18
-15
-13
-12
-12
-11
-9
-4
3
6
7
13
20
25
29
36
43
48
53
64
75
84
92
100
108
120
130
133
136
137
138
138
136
124
113
102
91
82
72
59
49
41
34
29
23
15
9
4
2
1
0
0
-2
-5
-6
-6
-6
-5
-2
1
4
7
9
12
14
16
15
14
8
2
1
0
-1
-2
-5
-9
-14
-19
-23
-27
-30
-32
-32
-30
-25
-19
-12
-10
-16
-19
-21
-23
-25
-24
-19
-18
-19
-21
-23
-25
-27
-28
-27
-28
-26
-31
-30
-29
-28
-29
-30
-30
-30
-26
-22
-22
-22
-22
-22
-22
-22
-22
-21
-18
5
51
107
172
237
302
332
339
299
234
168
103
37
-28
-94
-159
-212
-262
-242
-212
-201
-191
-179
-168
-146
-125
-111
-97
-82
-69
-62
-55
-47
-40
-39
-38
-36
-34
-33
-33
-36
-38
-36
-35
-37
-38
-38
-37
-35
-34
-33
-33
-35
-32
-26
-22
-19
-18
-18
-16
-13
-5
3
4
6
19
32
38
45
57
69
76
83
93
102
110
118
126
130
124
120
122
120
110
102
95
85
71
57
45
40
39
30
18
10
4
1
-1
-5
-9
-11
-13
-16
-19
-20
-20
-26
-32
-27
-22
-27
-31
-24
-18
-16
-13
-8
-2
5
10
10
10
9
7
4
-1
-8
-12
-13
-16
-20
-21
-19
-24
-33
-38
-41
-36
-26
-24
-24
-21
-17
-16
-16
-21
-27
-28
-28
-28
-28
-28
-28
-31
-34
-37
-40
-37
-35
-39
-42
-40
-37
-33
-33
-41
-45
-42
-41
-44
-44
-39
-37
-39
-39
-35
-34
-34
-31
-26
20
76
139
204
269
334
280
215
149
83
18
-48
-113
-179
-244
-300
-295
-283
-244
-214
-211
-202
-178
-158
-145
-131
-117
-102
-86
-76
-71
-68
-67
-61
-52
-49
-51
-54
-58
-58
-55
-51
-47
-50
-55
-49
-41
-39
-37
-36
-36
-38
-42
-34
-26
-24
-22
-26
-28
-15
-4
-4
0
15
28
36
43
47
53
60
70
85
93
95
100
107
111
114
116
116
116
116
111
104
88
69
61
55
53
51
32
13
9
6
1
-4
-11
-18
-22
-26
-26
-26
-27
-28
-30
-31
-27
-25
-28
-29
-26
-23
-19
-17
-20
-17
-7
-2
-3
-2
2
4
4
2
-1
-6
-12
-12
-9
-12
-17
-19
-21
-22
-24
-27
-30
-29
-28
-25
-22
-19
-17
-23
-28
-25
-22
-22
-23
-28
-32
-30
-28
-27
-26
-29
-30
-30
-30
-31
-32
-33
-32
-28
-27
-29
-30
-29
-28
-29
-23
-15
-14
-15
-14
-16
-15
-20
-1
22
87
152
217
282
347
382
317
251
186
120
54
-11
-77
-142
-208
-244
-246
-232
-199
-183
-181
-172
-159
-142
-122
-110
-101
-85
-68
-62
-59
-46
-32
-30
-30
-30
-29
-27
-26
-26
-26
-27
-28
-31
-34
-28
-24
-26
-28
-26
-24
-22
-19
-15
-11
-7
-3
1
5
7
10
14
19
25
32
39
49
59
71
83
91
98
108
118
128
139
143
147
150
154
146
138
128
117
105
93
84
74
62
51
45
39
33
26
19
14
15
16
14
9
2
-2
-1
0
-1
-3
-5
-6
-6
1
11
14
15
22
30
32
32
32
32
32
32
27
24
18
12
9
6
5
3
-3
-8
-8
-8
-5
-2
-1
2
8
12
11
10
7
5
2
-1
-3
-5
-8
-12
-15
-14
-10
-9
-11
-12
-12
-13
-15
-16
-16
-14
-11
-9
-8
-9
-10
-9
-8
-8
-8
-12
-16
-12
-6
3
23
67
119
184
249
314
343
327
286
220
155
89
24
-42
-107
-173
-213
-242
-232
-208
-193
-181
-167
-152
-135
-118
-103
-89
-69
-48
-41
-34
-30
-26
-22
-18
-22
-26
-22
-18
-18
-18
-20
-21
-18
-15
-11
-8
-10
-13
-16
-14
-6
-2
-3
-3
0
2
3
6
9
13
19
28
38
47
55
64
73
91
74
117
124
130
136
142
148
151
154
148
144
142
138
127
116
104
95
89
82
72
63
56
49
43
38
34
26
16
10
7
3
-2
-6
-9
-7
-3
-3
-5
-7
-9
-9
-7
-6
-6
-4
-2
-1
0
-3
-6
-5
-4
-5
-6
-4
-2
-4
-5
-1
2
1
1
4
12
25
59
109
168
233
298
363
339
274
208
143
77
12
-54
-119
-185
-250
-256
-255
-223
-190
-193
-195
-177
-158
-132
-109
-96
-85
-75
-65
-52
-41
-37
-33
-29
-26
-25
-24
-23
-21
-16
-14
-15
-16
-15
-13
-11
-9
-7
-8
-11
-8
-2
3
7
8
9
14
19
28
20
48
58
66
75
87
99
106
114
126
138
147
154
152
150
150
151
154
151
139
128
117
107
97
87
78
68
56
46
36
29
24
16
6
5
7
5
1
-3
-7
-7
-5
-8
-12
-11
-10
-6
-2
-7
-12
-8
-4
-3
-4
-13
-19
-14
-9
-6
-5
-9
-14
-19
-18
-10
-7
-9
-9
-7
-8
-12
-14
-15
-16
-15
-16
-19
-20
-21
-15
-7
-9
-13
-17
-22
-20
-18
-7
3
-9
-20
-20
-19
-13
-9
-14
-18
-20
-22
-20
-17
-14
-11
-7
-4
-4
-2
3
8
14
13
8
5
3
-3
-12
-20
-28
-27
-23
-25
-29
-31
-33
-34
-34
-33
-30
-27
-24
-18
-12
-13
-14
-13
-13
-18
-23
-27
-30
-29
-28
-28
-27
-24
-22
-22
-22
-23
-22
-18
-15
-12
-13
-18
-19
-17
-13
-9
-13
-20
-17
-11
-12
-15
7
31
96
161
226
291
356
405
340
274
209
143
78
12
-53
-119
-185
-233
-249
-246
-210
-187
-179
-170
-162
-146
-124
-104
-87
-73
-62
-54
-48
-40
-32
-31
-33
-33
-31
-29
-27
-26
-25
-26
-30
-24
-18
-18
-18
-19
-20
-15
-10
-8
-6
-8
-9
-5
-2
0
3
6
11
19
25
28
34
44
56
70
81
90
101
112
124
135
145
154
160
167
173
179
180
180
176
180
159
148
137
126
115
105
96
87
78
68
59
51
46
40
34
29
25
22
23
23
18
13
7
5
7
9
12
12
9
10
14
18
21
26
33
34
33
35
39
39
37
32
28
24
20
17
14
15
16
14
12
9
5
1
-1
4
7
3
3
11
15
12
10
10
9
6
3
0
-2
-2
0
3
4
3
-1
-5
-6
-6
-5
-3
-3
-5
-5
-2
-6
-10
-7
-4
0
4
9
14
13
12
10
14
34
70
135
200
265
330
395
398
332
267
201
136
70
5
-61
-127
-192
-215
-220
-198
-166
-163
-167
-142
-111
-99
-89
-78
-88
-46
-26
-26
-26
-19
-12
-8
-4
-4
-4
-5
-6
-4
-3
-7
-10
-11
-11
-8
-7
-12
-14
-13
-10
-4
-3
-5
-4
-1
5
12
14
14
19
26
32
37
40
43
55
67
79
90
95
100
107
114
120
126
132
136
135
134
133
129
118
106
94
82
71
60
50
40
32
27
24
19
13
7
2
1
3
2
-1
-4
-7
-8
-9
-10
-10
-10
-11
-9
-4
1
6
13
20
25
30
32
34
33
32
29
25
21
17
13
9
5
2
0
-4
-11
-15
-17
-16
-10
-8
-7
-1
7
8
5
0
-6
-7
-5
-6
-9
-11
-13
-13
-14
-11
-12
-17
-22
-19
-16
-14
-12
-13
-14
-14
-14
-12
-10
-8
-7
-13
-16
-15
-14
-14
-13
-11
0
20
67
132
197
262
327
392
360
295
229
164
98
33
-33
-98
-164
-229
-241
-251
-217
-184
-179
-172
-151
-132
-114
-98
-88
-75
-53
-38
-36
-33
-29
-25
-22
-20
-22
-21
-14
-11
-14
-17
-19
-19
-17
-16
-15
-14
-14
-10
-4
-5
-9
-8
-5
-2
1
5
10
15
20
33
44
46
49
61
72
86
98
110
119
124
129
133
140
153
159
155
152
153
151
145
131
112
99
90
82
75
67
58
49
40
38
38
27
14
14
17
3
18
-6
2
-7
-16
-10
-5
-13
-20
-19
-16
-3
4
-3
-8
-7
-6
-5
-5
-9
-9
0
-1
-11
-11
-2
2
2
2
2
7
14
32
55
111
176
241
306
366
426
369
304
238
172
107
41
-24
-90
-155
-213
-231
-240
-210
-186
-178
-168
-155
-137
-109
-92
-90
-80
-60
-48
-43
-37
-31
-30
-34
-31
-23
-22
-26
-25
-20
-17
-15
-14
-14
-14
-15
-12
-7
-8
-12
-7
-2
3
8
15
22
26
32
42
52
61
71
81
91
103
112
117
123
130
136
143
148
152
153
150
146
142
133
122
111
101
93
86
74
60
54
49
42
35
28
34
16
12
14
16
11
6
4
2
5
8
5
3
8
12
13
13
9
6
7
8
7
4
0
-1
1
2
2
2
3
0
-6
-5
-1
0
0
1
3
4
3
-1
-5
-4
-2
0
2
0
-2
-3
-4
-1
2
2
2
-1
-4
0
2
1
1
4
6
4
2
1
0
1
5
10
13
17
20
23
27
31
29
25
23
21
18
15
10
5
0
-6
-7
-8
-13
-18
-17
-16
-16
-15
-9
-4
-3
-2
1
4
3
0
-5
-8
-7
-6
-9
-11
-13
-14
-14
-15
-17
-18
-17
-14
-9
-10
-13
-14
-13
-11
-9
-8
-8
-10
-8
-10
-6
-10
-11
22
61
126
191
256
321
386
415
350
284
218
153
87
22
-44
-109
-175
-218
-240
-229
-190
-172
-168
-157
-143
-123
-102
-90
-82
-65
-46
-39
-35
-30
-25
-24
-23
-21
-20
-21
-22
-23
-24
-22
-20
-17
-14
-14
-14
-14
-12
-5
-1
-4
-4
2
6
8
11
13
15
17
22
29
35
40
47
55
67
81
88
94
110
127
138
149
155
161
166
172
178
184
178
172
167
160
146
132
121
109
95
82
73
64
57
51
48
45
41
34
23
18
19
20
19
14
7
8
14
18
21
23
25
27
29
32
35
32
27
25
26
15
8
4
0
-2
-4
-3
-3
-11
-18
-18
-17
-12
-8
-6
-2
4
7
4
2
-1
-2
-2
-3
-5
-9
-15
-17
-15
-13
-11
-13
-17
-18
-19
-18
-15
-12
-9
-13
-19
-16
-12
-12
-12
-11
-10
-10
-10
-11
-12
-9
-4
6
34
99
164
229
294
359
366
300
235
169
104
38
-27
-93
-158
-224
-253
-264
-239
-199
-190
-191
-171
-146
-123
-100
-94
-89
-68
-46
-41
-36
-37
-38
-34
-30
-29
-28
-28
-28
-27
-27
-31
-33
-29
-24
-18
-15
-19
-22
-19
-18
-17
-15
-12
-10
-11
-9
-4
0
3
7
13
20
28
35
41
52
63
75
64
92
96
104
112
118
124
125
126
123
119
112
104
95
85
74
64
57
49
41
33
24
20
19
15
9
3
-3
-8
-11
-11
-9
-11
-16
-18
-19
-18
-15
-18
-23
-14
-3
0
2
2
2
6
10
13
15
6
-2
0
1
-7
-13
-17
-20
-21
-22
-22
-22
-23
-27
-34
-35
-29
-24
-20
-17
-15
-14
-15
-18
-21
-27
-34
-32
-27
-28
-31
-26
-19
-24
-32
-36
-40
-35
-30
-29
-29
-38
-46
-42
-38
-36
-35
-40
-42
-33
-29
-33
-31
-19
-17
-28
-13
27
81
146
211
276
301
306
261
196
130
65
-1
-66
-132
-197
-237
-274
-262
-276
-219
-192
-181
-169
-148
-129
-120
-110
-98
-85
-71
-59
-53
-47
-43
-40
-40
-40
-40
-38
-33
-32
-37
-39
-36
-35
-37
-35
-30
-34
-43
-40
-30
-28
-29
-30
-30
-20
-7
-10
-15
-8
0
10
20
23
27
36
45
56
66
75
84
92
101
112
121
126
130
130
130
130
126
117
107
98
88
78
67
54
42
30
23
18
12
7
1
-7
-8
-8
-8
-8
-10
-14
-12
-10
-13
-16
-15
-14
-9
-4
-7
-8
0
7
13
18
18
16
11
8
7
6
7
5
-1
-4
-5
-7
-9
-13
-18
-19
-17
-14
-11
-9
-7
-4
-1
-6
-13
-12
-14
-8
-8
-10
-12
-15
-18
-20
-22
-20
-19
-24
-27
-23
-20
-21
-22
-21
-20
-21
-20
-15
-14
-19
-20
-14
-12
-11
-12
-15
-16
-15
15
54
113
178
243
308
373
438
382
317
251
185
120
54
-11
-77
-142
-200
-219
-229
-205
-185
-179
-166
-141
-120
-109
-98
-88
-74
-54
-41
-35
-30
-26
-23
-20
-18
-19
-20
-21
-22
-23
-24
-23
-22
-22
-18
-13
-13
-15
-15
-12
-7
-2
-2
-2
-1
1
8
14
17
20
23
29
39
48
55
64
74
84
93
102
113
121
127
134
142
146
147
146
142
138
133
121
105
93
82
73
65
54
43
34
42
22
20
16
12
7
2
2
2
-4
-8
-9
-9
-4
1
6
10
9
10
15
18
21
20
16
14
13
9
4
0
-4
-8
-11
-13
-15
-21
-28
-30
-31
-29
-25
-24
-23
-17
-12
-12
-12
-12
-12
-13
-14
-20
-24
-24
-24
-26
-28
-28
-28
-30
-31
-28
-26
-26
-27
-29
-29
-26
-23
-21
-21
-25
-24
-20
-18
-17
-18
-21
-21
-19
-1
20
81
146
211
277
342
399
334
268
203
137
72
6
-59
-125
-190
-240
-253
-251
-217
-194
-189
-176
-151
-132
-117
-106
-96
-80
-59
-47
-42
-38
-34
-31
-29
-28
-29
-30
-30
-29
-27
-29
-33
-32
-34
-26
-24
-25
-26
-21
-16
-13
-10
-13
-15
-10
-6
-4
-2
-1
4
16
26
31
37
46
54
63
74
87
98
110
119
127
135
142
144
145
146
146
143
139
125
109
98
87
77
68
57
46
39
32
29
25
19
13
8
4
2
0
-1
-3
-7
-10
-11
-11
-8
-3
3
7
9
10
11
14
18
21
23
19
12
5
-2
-5
-7
-10
-13
-16
-19
-22
-26
-28
-30
-27
-24
-15
-8
-6
-4
-7
-10
-12
-14
-17
-20
-22
-24
-26
-28
-28
-29
-32
-30
-22
-21
-27
-29
-27
-26
-25
-24
-23
-25
-29
-26
-21
-19
-17
-18
-21
-24
-22
-23
-18
-2
18
83
148
213
278
343
378
313
247
182
116
50
-15
-81
-146
-212
-252
-264
-249
-207
-187
-184
-170
-150
-128
-105
-93
-85
-69
-50
-42
-37
-33
-29
-27
-25
-24
-24
-23
-22
-22
-22
-17
-12
-12
-12
-14
-15
-10
-6
-4
-2
-2
-1
4
8
7
5
2
6
18
26
31
34
35
48
67
78
84
94
105
116
128
145
163
160
153
165
179
174
166
153
140
131
121
108
95
86
77
69
60
51
42
35
27
18
11
7
4
5
3
-4
-7
-4
-2
-3
-4
-5
-7
-9
-7
-2
0
0
-5
-12
-9
-3
-3
-5
-7
-6
-4
2
-2
-6
-6
-6
-1
4
0
-4
-3
-2
-3
-4
-3
-2
-4
0
17
56
121
186
251
316
381
368
302
236
171
105
40
-26
-91
-157
-222
-248
-266
-228
-183
-180
-181
-167
-152
-130
-109
-96
-83
-68
-55
-47
-38
-24
-14
-14
-14
-12
-10
-11
-13
-16
-15
-7
-4
-9
-11
-9
-6
-2
2
6
9
11
15
20
26
32
36
39
47
55
64
73
82
92
103
114
125
136
143
151
161
172
182
189
185
182
181
178
169
158
142
127
113
102
91
81
71
62
55
47
39
33
28
26
26
25
23
18
11
11
13
17
21
16
22
13
18
20
22
20
18
18
18
21
24
25
26
23
21
25
27
21
18
18
18
17
16
16
14
8
8
12
12
8
6
6
9
13
12
9
7
5
8
13
13
11
5
0
6
12
14
16
19
23
29
34
36
38
41
43
38
34
36
35
26
20
18
14
9
5
2
0
0
0
0
1
3
8
14
17
19
16
11
10
11
12
11
8
4
3
2
2
2
1
0
0
0
0
0
1
3
7
10
9
7
3
0
1
2
5
6
6
6
7
27
59
113
178
243
308
373
438
398
333
267
202
136
71
5
67
-126
-189
-210
-228
-198
-171
-164
-154
-132
-111
-96
-81
-69
-53
-32
-17
-14
-11
-8
-6
-7
-8
-9
-9
-6
-4
-4
-4
-5
-6
-7
-5
0
1
-1
4
11
10
7
8
11
13
14
18
22
25
28
32
37
44
51
58
66
75
87
103
117
126
135
144
154
163
172
180
183
181
181
183
182
178
167
152
140
129
116
103
94
86
78
71
64
57
51
44
39
34
32
30
26
22
22
22
22
22
23
25
30
36
45
49
46
45
48
50
47
42
32
27
25
24
24
19
11
8
8
7
5
3
1
5
11
14
17
19
18
21
20
18
16
10
4
6
8
8
8
3
0
0
0
1
2
3
4
4
4
3
1
-2
-4
-4
-4
-5
-6
-5
-2
1
4
7
7
5
11
20
65
114
178
243
309
372
368
359
294
228
163
97
32
-34
-99
-162
-215
-242
-208
-184
-177
-165
-148
-128
-106
-88
-75
-60
-45
-34
-27
-23
-19
-15
-10
-8
-8
-10
-13
-14
-13
-6
1
-1
-5
-6
-8
-3
2
-1
-4
-5
-6
-1
4
5
7
12
17
21
24
26
31
40
50
59
67
74
81
87
97
111
117
120
126
133
141
148
149
147
141
134
127
121
113
105
92
104
76
74
59
46
39
32
28
23
17
11
6
3
7
10
8
5
2
1
5
8
9
8
4
2
3
7
13
14
11
15
22
27
32
34
34
34
35
32
27
26
26
20
14
14
14
6
-2
-5
-8
-9
-10
-11
-12
-9
-6
-5
-4
-2
0
-2
-2
4
6
1
-2
-1
-4
-13
-16
-17
-18
-18
-18
-17
-17
-19
-20
-19
-18
-19
-20
-20
-17
-12
-13
-14
-13
-12
-12
-12
-11
-10
-7
2
28
65
130
195
260
325
390
399
333
268
202
137
71
6
-60
-125
-191
-222
-236
-218
-188
-178
-175
-155
-130
-114
-100
-91
-83
-60
-82
-33
-30
-29
-28
-24
-20
-22
-24
-26
-28
-23
-20
-19
-19
-22
-22
-16
-12
-12
-12
-12
-10
-6
0
7
8
4
5
10
15
20
28
38
44
51
64
78
88
97
103
109
124
138
143
148
152
156
161
166
160
155
149
142
132
121
110
97
83
72
64
57
50
45
42
38
34
25
13
5
0
-2
-2
-3
-5
-9
-13
-10
-5
-7
-11
-12
-13
-12
-8
-5
-2
-1
0
-1
-2
-1
0
-1
-2
0
2
0
-2
0
3
6
9
12
38
90
148
213
278
343
355
334
282
217
151
86
20
-45
-111
-176
-220
-260
-241
-216
-207
-214
-191
-183
-161
-139
-124
-108
-93
-78
-66
-55
-46
-40
-38
-36
-36
-36
-35
-34
-34
-34
-33
-31
-29
-27
-25
-24
-25
-24
-21
-20
-19
-15
-10
-4
1
8
17
21
25
33
41
52
62
72
82
95
106
112
118
124
129
136
142
142
141
136
131
128
124
118
108
94
82
73
65
59
49
35
28
24
19
14
8
2
-2
-5
-6
-7
-11
-15
-14
-11
-10
-10
-14
-18
-16
-14
-11
-8
-11
-14
-15
-16
-16
-16
-19
-22
-20
-19
-22
-24
-25
-26
-25
-23
-21
-20
-20
-20
-19
-18
-18
-18
-18
-20
-23
-24
-24
-24
-24
-27
-31
-27
-32
-26
-32
-31
-30
-27
-24
-24
-24
-27
-30
-27
-24
-27
-31
-34
-34
-27
-21
-17
-13
-8
-6
-5
-3
-1
-2
-6
-8
-9
-14
-20
-25
-30
-34
-37
-38
-39
-46
-53
-51
-47
-45
-44
-41
-38
-32
-26
-27
-28
-31
-34
-36
-38
-36
-34
-36
-38
-39
-40
-40
-39
-35
-34
-39
-39
-33
-30
-30
-30
-29
-28
-28
-30
-33
-33
-31
-30
-29
-32
-37
-32
-25
27
81
146
211
276
330
289
244
179
113
48
-18
-83
-149
-214
-263
-280
-276
-241
-220
-219
-210
-191
-171
-150
-135
-124
-109
-91
-80
-73
-68
-63
-62
-62
-58
-53
-55
-59
-60
-60
-55
-60
-54
-60
-60
-60
-56
-52
-49
-46
-44
-42
-42
-42
-42
-40
-32
-26
-25
-24
-25
-22
-13
-4
5
13
19
30
45
61
78
86
90
100
111
121
130
135
139
138
135
134
133
120
108
96
84
75
65
52
40
37
34
30
24
16
8
1
-4
-4
-7
-16
-22
-22
-23
-25
-25
-23
-25
-31
-33
-29
-28
-29
-30
-29
-24
-18
-14
-11
-10
-11
-10
-7
-7
-10
-18
-26
-26
-26
-32
-38
-41
-44
-40
-37
-41
-44
-46
-47
-44
-41
-37
-35
-38
-40
-39
-37
-34
-35
-41
-43
-40
-39
-41
-42
-43
-44
-44
-46
-49
-50
-50
-50
-51
-52
-52
-53
-54
-51
-48
-47
-46
-47
-48
-42
-38
-37
-36
-38
-31
-2
40
105
170
235
300
365
364
298
233
167
102
36
-30
-95
-161
-226
-252
-265
-238
-200
-194
-194
-174
-152
-139
-127
-117
-108
-87
-68
-63
-58
-60
-61
-54
-48
-47
-46
-48
-49
-45
-42
-44
-46
-45
-44
-46
-47
-44
-42
-43
-41
-36
-34
-33
-32
-32
-26
-17
-9
-2
0
1
9
17
26
35
40
46
56
66
74
82
87
92
97
103
109
114
114
113
107
100
93
83
69
56
46
38
31
21
8
0
-4
-7
-10
-14
-17
-20
-25
-24
-21
-21
-23
-26
-29
-27
-23
-22
-22
-26
-30
-24
-18
-21
-24
-17
-12
-6
-2
1
4
7
11
14
14
7
-1
-8
-12
-11
-14
-23
-28
-28
-31
-36
-38
-39
-37
-32
-29
-27
-23
-19
-21
-25
-25
-23
-25
-29
-35
-40
-36
-32
-41
-49
-41
-34
-36
-38
-38
-38
-39
-38
-31
-26
-27
-28
-30
-32
-30
-28
-29
-31
-34
-33
-27
-25
-27
-19
-6
43
104
168
233
298
363
315
250
184
119
53
-13
-78
-144
-209
-268
-268
-263
-227
-198
-194
-187
-175
-159
-135
-113
-98
-86
-79
-69
-55
-46
-41
-38
-38
-37
-35
-34
-34
-34
-35
-34
-29
-28
-28
-28
-27
-25
-23
-21
-19
-19
-18
-18
-14
-12
-10
-8
-6
1
6
12
16
18
23
35
47
58
70
81
94
111
123
130
137
143
148
152
154
155
151
143
137
132
120
105
96
88
79
70
60
51
44
37
33
30
24
18
14
10
7
4
-2
-6
-8
-10
-10
-10
-8
-6
-8
-9
-5
-2
-1
-2
-6
-8
-8
-8
-7
-6
-6
-4
-1
3
7
6
3
-1
-5
4
17
10
1
3
8
13
20
66
115
180
245
310
352
300
244
179
113
48
-18
-84
-149
-215
-251
-247
-232
-205
-192
-192
-184
-168
-146
-121
-106
-97
-80
-59
-49
-42
-34
-26
-19
-13
-13
-15
-17
-16
-14
-8
-10
-12
-12
-12
-11
-10
-9
-8
-6
-3
1
4
6
9
12
18
30
37
42
48
57
67
78
85
91
98
105
115
125
134
142
148
153
154
154
154
154
147
139
130
122
110
97
84
71
63
55
46
36
27
19
15
12
12
10
1
-2
4
8
6
4
4
3
1
-1
-3
-4
-3
-2
-1
-1
-3
-5
-7
-5
-1
-3
-7
-3
3
4
6
2
-2
-5
-8
-8
-8
-7
-6
-9
-12
-10
-8
-7
-7
-11
-14
-12
-10
-10
-10
-7
-6
-6
-8
-12
-14
-14
-14
-14
-12
-7
-3
3
4
4
7
11
11
9
8
8
3
-2
-9
-16
-16
-16
-21
-26
-32
-36
-34
-32
-29
-26
-24
-21
-18
-16
-14
-14
-19
-20
-16
-14
-13
-16
-25
-27
-25
-24
-25
-29
-34
-33
-29
-28
-29
-30
-31
-29
-25
-22
-20
-24
-28
-25
-22
-19
-16
-17
-18
-17
-5
37
86
151
216
281
327
344
325
259
194
128
63
-3
-68
-134
-199
-265
-265
-233
-215
-203
-188
-171
-153
-135
-121
-108
-97
-87
-71
-54
-45
-36
-37
-38
-34
-30
-33
-36
-37
-38
-37
-36
-34
-32
-33
-33
-29
-26
-26
-26
-23
-19
-13
-10
-10
-10
-11
-7
1
3
1
7
18
28
38
39
37
48
63
81
64
100
100
115
128
135
142
147
152
154
155
146
136
122
110
103
94
80
71
67
58
43
35
33
28
21
14
5
5
10
7
0
-5
-9
-12
-15
-16
-15
-17
-21
-20
-17
-14
-12
-8
-4
0
4
7
10
8
6
4
1
-5
-10
-10
-10
-12
-15
-19
-23
-27
-28
-23
-20
-20
-20
-20
-15
-7
-5
-7
-11
-16
-16
-13
-16
-21
-22
-21
-20
-21
-21
-18
-18
-18
-17
-16
-18
-20
-21
-22
-20
-18
-20
-22
-23
-24
-23
-22
-23
-24
-23
-22
-21
-20
-19
-2
27
78
143
208
273
338
403
369
304
238
173
107
42
-24
-89
-155
-93
-228
-235
-202
-172
-169
-164
-148
-131
-111
-95
-90
-81
-62
-47
-42
-38
-36
-34
-33
-30
-25
-24
-28
-29
-26
-22
-18
-17
-19
-20
-21
-19
-15
-15
-17
-18
-17
-10
-3
-1
1
7
12
17
22
28
34
40
47
58
68
77
85
93
99
106
113
123
130
131
133
136
138
137
130
119
113
111
101
85
73
63
53
43
37
33
21
8
6
6
2
-3
-8
-14
-12
-10
-11
-12
-13
-14
-12
-10
-7
-3
1
5
11
17
20
22
21
19
16
14
13
9
2
-2
-2
-2
-3
-6
-10
-14
-17
-18
-18
-19
-21
-16
-9
-7
-5
-11
-4
-12
-4
-10
-16
-19
-21
-14
-8
-8
-8
-11
-14
-12
-10
-9
-9
-12
-14
-13
-12
-11
-10
-11
-12
-11
-9
-7
-6
-5
-2
1
3
5
4
1
40
88
151
216
281
346
355
360
295
229
164
98
33
-33
-98
-161
-214
-246
-214
-190
-182
-172
-158
-143
-126
-108
-90
-75
-64
-55
-47
-39
-30
-23
-18
-18
-21
-19
-14
-14
-17
-18
-18
-18
-19
-20
-20
-20
-18
-16
-14
-15
-16
-15
-13
-5
3
8
12
13
16
25
33
36
42
52
63
75
87
100
111
121
129
135
143
152
158
161
167
174
172
166
155
142
138
135
116
95
88
94
71
62
54
46
42
38
31
26
22
17
12
9
13
14
8
2
-5
-10
-8
-6
-7
-8
-9
-8
-4
-3
-6
-8
-9
-7
-2
0
-1
-2
-2
-3
-5
-6
-5
-4
-4
-3
-2
4
13
60
110
175
240
305
343
279
215
150
84
18
-47
-113
-178
-244
-276
-267
-248
-219
-205
-202
-193
-181
-159
-133
-114
-99
-85
-73
-60
-47
-33
-20
-22
-27
-29
-31
-32
-30
-26
-22
-26
-30
-24
-18
-17
-16
-19
-19
-7
2
0
-2
-3
0
10
16
16
19
26
33
39
46
53
60
67
77
88
97
106
111
117
123
130
131
129
125
121
114
120
96
86
68
52
49
44
29
15
8
2
1
-1
-6
-11
-14
-16
-17
-19
-22
-26
-31
-32
-28
-25
-23
-22
-23
-23
-21
-20
-20
-20
-19
-18
-18
-17
-15
-20
-27
-27
-25
-25
-26
-28
-30
-29
-28
-27
-26
-30
-34
-34
-32
-23
-17
-22
-26
-24
-22
-24
-29
-37
-38
-29
-27
-33
-36
-35
-34
-35
-36
-36
-35
-33
-27
-20
-15
-11
-10
-9
-5
-1
1
4
-3
-10
-12
-14
-16
-19
-26
-32
-32
-32
-31
-31
-36
-40
-38
-36
-34
-32
-31
-30
-27
-25
-22
-21
-24
-31
-39
-40
-37
-37
-39
-40
-39
-34
-29
-31
-35
-36
-37
-35
-38
-36
-42
-42
-42
-38
-34
-36
-38
-34
-30
-31
-32
-32
-24
2
42
107
172
237
302
367
366
300
235
169
104
38
-28
-93
-159
-224
-255
-274
-244
-201
-193
-191
-177
-161
-142
-123
-116
-110
-93
-76
-70
-64
-61
-57
-50
-44
-42
-40
-43
-45
-38
-34
-33
-33
-36
-37
-34
-30
-26
-26
-30
-29
-24
-21
-17
-16
-15
-12
-9
-4
2
9
17
23
29
36
43
52
62
73
84
98
110
114
120
133
145
151
156
159
162
160
157
154
148
135
124
112
102
93
80
65
55
49
44
40
34
28
24
19
17
15
13
11
10
9
8
8
8
8
8
10
15
20
19
18
25
30
30
29
23
18
16
14
12
10
8
5
2
0
0
-3
-10
-14
-13
-11
-9
-6
-2
2
6
5
1
0
-1
-4
-7
-7
-5
-4
-5
-9
-12
-9
-6
-9
-12
-14
-16
-15
-14
-14
-15
-19
-21
-14
-10
-11
-12
-11
-10
-8
-6
-6
-7
-10
1
23
73
138
203
268
333
398
362
297
231
166
100
35
-31
-96
-162
-227
-234
-240
-206
-174
-174
-172
-153
-134
-114
-97
-92
-82
-61
-44
-38
-33
-30
-27
-24
-21
-18
-17
-19
-20
-20
-20
-19
-20
-23
-22
-19
-18
-19
-19
-17
-16
-16
-13
-9
-7
-8
-2
0
7
14
13
12
19
26
38
48
50
54
65
75
85
93
97
103
111
120
131
134
129
125
122
115
106
95
84
73
61
55
51
41
28
21
15
10
5
4
4
-1
-6
-6
-6
-10
-14
-14
-14
-11
-8
-5
-2
0
3
10
15
19
22
20
19
23
23
16
10
6
4
3
-2
-9
-13
-15
-17
-19
-21
-23
-23
-21
-13
-5
-3
-1
-2
-6
-5
-4
-9
-14
-14
-14
-18
-22
-26
-30
-28
-26
-23
-21
-25
-28
-29
-29
-26
-24
-27
-28
-27
-25
-23
-23
-26
-28
-28
-28
-29
-29
-27
-21
-14
37
94
158
223
288
227
316
275
210
144
79
13
-52
-118
-183
-238
-255
-260
-228
-205
-200
-190
-171
-151
-130
-114
-105
-90
-71
-58
-51
-45
-40
-38
-38
-38
-37
-36
-37
-40
-43
-40
-35
-34
-35
-36
-35
-31
-28
-26
-24
-22
-20
-19
-18
-16
-14
-15
-15
-7
-2
-1
2
9
18
29
39
46
55
65
76
87
98
109
114
115
122
131
133
131
122
110
106
103
91
78
65
53
46
38
33
28
19
10
7
4
2
-1
-11
-18
-16
-14
-14
-16
-22
-25
-21
-18
-18
-18
-17
-10
2
8
8
8
9
12
16
18
18
11
2
0
0
-1
-3
-9
-15
-16
-16
-18
-18
-21
-24
-18
-12
-11
-10
-11
-11
-6
-2
-4
-8
-15
-20
-18
-16
-15
-16
-21
-23
-20
-18
-19
-20
-20
-19
-17
-16
-16
-17
-19
-20
-20
-20
-19
-18
-17
-17
-19
-17
-14
-12
-10
-2
12
64
119
184
249
314
345
280
214
148
83
17
-48
-114
-179
-245
-275
-268
-243
-203
-185
-182
-170
-154
-137
-119
-105
-93
-78
-61
-49
-38
-38
-41
-36
-29
-28
-26
-26
-26
-29
-32
-27
-22
-22
-21
-15
-11
-15
-18
-20
-20
-13
-8
-8
-7
-3
1
4
8
12
19
28
34
38
46
57
61
63
74
87
100
114
116
116
129
145
146
146
140
136
132
128
118
110
108
103
82
65
59
52
43
33
22
14
16
14
4
-2
-2
-3
-5
-7
-10
-11
-8
-6
-7
-6
-3
-3
-5
-3
1
2
2
7
13
15
17
22
26
19
12
11
10
8
6
4
1
-4
-8
-9
-10
-12
-14
-14
-14
-14
-14
-12
-8
-3
-2
-7
-10
-9
-8
-8
-8
-9
-11
-13
-14
-13
-12
-12
-13
-15
-14
-11
-10
-8
-10
-12
-11
-10
-10
-10
-3
2
0
-2
1
3
-3
-7
-2
12
39
82
147
212
277
342
407
398
332
267
201
135
70
4
-61
-127
-192
-212
-222
-198
-167
-163
-161
-142
-160
-106
-90
-81
-71
-50
-32
-31
-28
-15
-4
-2
0
-2
-4
-6
-7
-4
-3
-7
-9
-6
-2
3
4
0
-1
2
6
9
11
13
18
24
28
31
32
32
40
49
55
61
69
76
86
96
107
117
130
142
148
154
164
173
181
186
182
179
174
166
155
143
132
120
107
94
83
73
64
57
50
44
38
36
37
35
31
26
21
20
20
18
15
16
20
27
34
40
46
46
46
49
52
52
51
45
40
37
34
36
36
29
23
19
16
16
15
13
11
9
10
14
20
26
26
21
21
23
21
17
13
9
7
5
3
4
-1
-2
0
2
1
0
-2
-4
-4
-4
1
4
2
0
2
4
4
3
-1
-3
2
4
4
3
1
29
79
138
203
268
333
374
407
362
297
231
166
100
35
-31
-96
-162
-226
-212
-197
-184
-171
-161
-149
-128
-108
-89
-72
-60
-49
-36
-26
-17
-12
-13
-14
-14
-12
-8
-6
-7
-9
-11
-10
-6
-4
-4
-4
-4
1
8
9
7
7
9
13
17
18
20
21
22
29
36
41
47
57
67
77
86
95
105
117
128
137
144
150
156
162
166
167
166
161
154
147
139
131
119
105
90
76
72
72
65
56
49
43
39
35
30
34
19
14
15
16
14
12
7
2
8
12
10
10
18
27
37
43
40
38
38
38
37
32
24
18
14
12
12
7
-1
-3
-1
-4
-10
-12
-12
-11
-9
-4
1
5
9
4
-2
-3
-4
-9
-14
-15
-16
-14
-12
-14
-16
-17
-17
-13
-11
-15
-18
-17
-16
-14
-13
-16
-18
-18
-18
-19
-20
-20
-19
-17
-13
-8
-10
-15
0
21
80
145
210
275
340
404
339
273
208
142
77
11
-54
-120
-185
-238
-251
-249
-210
-184
-182
-173
-155
-136
-115
-99
-88
-75
-62
-52
-45
-40
-36
-32
-28
-28
-31
-32
-32
-32
-32
-28
-23
-22
-23
-24
-24
-24
-24
-23
-22
-22
-22
-18
-14
-11
-8
-9
-7
4
12
11
13
21
31
44
56
65
74
83
95
108
115
117
124
133
141
149
152
151
142
130
125
121
113
105
92
79
67
56
48
40
34
28
20
14
11
8
10
10
1
-6
-2
0
0
-2
-7
-10
-9
-8
-7
-3
5
10
14
16
17
20
23
26
29
26
21
17
13
11
9
8
8
6
2
-4
-10
-11
-12
-12
-12
-11
-9
-3
1
-3
-6
-5
-4
-6
-8
-8
-8
-6
-7
-14
-18
-18
-17
-15
-13
-10
-10
-13
-19
-26
-25
-21
-16
-11
-15
-21
-19
-15
-14
-14
-10
-6
-5
-4
-11
-15
12
46
111
176
241
306
371
394
328
263
197
132
66
1
-65
-130
-196
-236
-256
-240
-200
-185
-183
-170
-153
-134
-114
-104
-96
-78
-59
-55
-53
-43
-33
-29
-26
-26
-26
-29
-32
-29
-26
-28
-30
-31
-31
-26
-22
-24
-25
-22
-20
-20
-17
-10
-6
-6
-3
5
9
12
15
17
23
31
39
46
57
69
77
85
94
105
108
111
125
140
143
146
140
134
132
128
114
100
90
80
70
59
47
36
30
24
18
12
7
4
4
3
1
0
-1
-3
-6
-8
-9
-11
-13
-14
-14
-10
-5
1
7
8
8
13
8
25
30
28
26
23
20
17
13
7
2
-3
-6
-6
-9
-18
-24
-23
-20
-14
-10
-11
-7
3
7
4
0
-4
-6
-5
-5
-7
-11
-16
-16
-13
-11
-9
-9
-11
-12
-13
-13
-12
-11
-10
-9
-8
-6
-4
-8
-12
-10
-8
-9
-10
-8
-6
-8
-8
-2
20
60
112
177
242
307
365
417
395
329
263
198
132
67
1
-64
-130
-195
-207
-211
-198
-183
-169
-154
-138
-121
-103
-85
-76
-66
-53
-41
-35
-30
-28
-27
-32
-35
-31
-28
-27
-27
-30
-32
-29
-26
-22
-20
-20
-20
-19
-14
-8
-7
-9
-7
-1
0
-1
0
3
9
15
22
16
40
50
57
65
80
95
103
111
117
124
133
141
147
151
148
146
146
142
132
122
111
101
91
82
74
62
47
40
36
32
28
20
10
8
8
4
-1
-4
-7
-8
-8
-7
-6
-6
-6
7
18
22
26
24
22
25
27
19
13
8
4
3
2
1
-1
-5
-9
-12
-16
-20
-20
-16
-14
-15
-10
-1
0
-3
-6
-9
-8
-5
-10
-17
-16
-13
-13
-16
-17
-18
-24
-29
-20
-12
-15
-18
-17
-16
-15
-15
-21
-26
-24
-22
-21
-20
-20
-20
-19
-15
-8
-8
-16
-2
28
81
146
211
276
341
406
366
301
235
170
104
39
-27
35
-158
-221
-234
-244
-212
-184
-183
-178
-153
-130
-110
-95
-90
-80
-62
-48
-42
-38
-38
-37
-32
-29
-27
-27
-30
-31
-28
-26
-26
-24
-20
-19
-21
-22
-21
-18
-15
-14
-15
-13
-9
-9
-10
-3
4
8
12
16
21
30
40
52
63
68
74
82
92
106
115
118
122
128
134
138
140
140
135
126
118
111
103
95
82
68
58
50
42
34
27
21
18
15
7
-2
-1
0
-1
-2
-6
-10
-10
-10
-6
-3
-7
-9
-5
-2
0
1
-3
-8
-14
-12
3
44
109
174
239
304
369
347
282
216
151
85
20
-46
-111
-177
-242
-281
-318
-259
-320
-154
-115
-81
-50
-40
-31
-24
-18
-12
-8
-11
-14
-11
-7
-3
-2
-9
-13
-10
-8
-9
-8
-4
-2
-3
0
9
13
15
18
22
30
38
44
51
58
67
77
87
98
109
123
136
153
170
181
191
204
218
234
246
244
242
242
242
242
237
223
209
196
181
163
144
122
104
89
77
68
56
43
34
28
26
26
20
12
9
7
10
15
8
-1
-1
2
6
10
4
-2
7
13
0
-9
-3
2
5
7
3
0
0
-2
-7
-10
-11
-12
-11
-13
-19
-21
-19
-17
-14
-17
-25
-19
-6
-6
-12
-14
-15
-16
-16
-16
-15
-16
-14
-18
-16
-18
-20
-20
-20
-17
-14
-15
-16
-13
-10
-11
-12
-12
-12
-12
-12
-11
-10
-13
-14
-15
-14
-8
-6
-7
-8
-9
-6
0
7
14
16
16
16
17
20
23
20
15
11
8
2
-4
-8
-12
-12
-12
-15
-18
-19
-19
-11
-6
-8
-8
-2
2
2
0
-5
-8
-7
-7
-9
-10
-10
-11
-13
-14
-13
-12
-12
-11
-9
-7
-5
-6
-9
-10
-9
-8
-10
-11
-12
-13
-14
-8
-2
-2
-3
-8
-8
12
45
110
175
240
305
370
379
313
248
182
117
51
-14
-80
-145
-211
-240
-250
-227
-189
-182
-185
-169
-148
-130
-112
-104
-97
-79
-96
-51
-42
-41
-40
-36
-32
-30
-28
-29
-30
-27
-24
-24
-23
-20
-17
-14
-12
-12
-13
-16
-17
-14
-9
-3
0
-1
1
6
11
16
21
26
36
46
54
61
71
81
91
101
117
132
141
150
158
167
179
190
192
194
194
194
193
188
174
162
153
143
130
117
106
96
88
78
65
57
52
48
44
40
37
33
29
24
19
22
27
26
23
22
21
22
26
25
24
26
28
37
44
40
36
37
38
36
33
28
23
19
16
16
13
6
2
-1
-3
-6
-8
-8
-7
-5
0
7
10
11
8
2
4
11
10
7
6
6
5
6
5
8
1
-6
-2
2
-3
-8
-6
-4
1
4
1
-2
-1
1
7
9
5
2
2
3
6
8
9
26
54
106
171
236
301
366
431
393
328
262
197
131
66
0
-65
-131
-195
-213
-228
-203
-180
-177
-171
-149
-128
-109
-93
-85
-75
-59
-46
-39
-32
-26
-22
-21
-21
-23
-24
-24
-24
-25
-26
-25
-24
-24
-24
-23
-20
-17
-16
-15
-14
-13
-6
1
2
4
7
10
15
20
21
23
33
43
50
58
68
78
86
95
107
117
126
133
137
142
147
149
147
141
130
119
108
100
93
82
71
62
54
46
38
32
27
26
26
20
26
11
10
9
8
11
13
6
0
4
8
5
2
2
4
10
14
15
18
23
27
32
34
35
34
28
24
20
15
10
5
0
-2
-3
-7
-11
-13
-15
-17
-19
-16
-11
-8
-6
-3
0
-2
-4
-9
-14
-14
-14
-13
-13
-17
-20
-22
-24
-22
-20
-21
-21
-17
-15
-17
-20
-25
-27
-25
-24
-24
-25
-27
-25
-21
-20
-20
-20
-20
-18
-15
-10
-5
39
85
150
215
280
337
323
300
235
169
104
38
-27
-93
-158
-215
-252
-265
-237
-212
-191
-174
-159
-144
-127
-109
-88
-75
-66
-58
-52
-46
-40
-35
-31
-30
-29
-28
-28
-24
-19
-22
-18
-25
-22
-16
-10
-16
-22
-18
-14
-14
-14
-13
-11
-5
1
5
8
8
12
22
30
35
41
47
56
69
78
85
93
101
111
121
131
141
145
147
148
148
148
148
137
125
120
116
91
68
67
65
50
37
31
24
14
6
5
3
-2
-6
-7
-8
-9
-10
-11
-12
-12
-12
-13
-14
-13
-12
-13
-15
-17
-17
-15
-11
-7
-5
-3
6
15
13
9
16
26
23
20
11
2
1
0
7
9
-10
-23
-17
-14
-22
-27
-24
-22
-21
-20
-18
-14
-9
-7
-10
-12
-12
-15
-21
-24
-25
-27
-29
-31
-33
-34
-33
-32
-31
-30
-29
-33
-28
-33
-26
-29
-32
-30
-28
-25
-22
-25
-28
-27
-25
-21
-19
-23
-15
14
59
124
189
254
319
384
377
311
246
180
114
49
-17
-82
-148
-213
-242
-261
-230
-189
-184
-183
-164
-145
-128
-112
-100
-87
-70
-53
-45
-38
-38
-37
-32
-28
-30
-32
-32
-31
-27
-24
-22
-21
-24
-25
-23
-21
-18
-16
-16
-16
-15
-12
-9
-5
-1
0
0
7
16
20
23
34
45
49
54
68
82
91
101
113
124
128
133
140
147
154
160
159
156
149
142
136
124
106
93
84
78
73
65
54
45
36
32
31
25
18
14
11
8
5
4
3
2
1
2
0
1
-4
3
10
11
12
14
16
20
26
35
40
33
30
36
38
31
25
21
17
14
11
9
7
4
0
-4
-6
-6
-6
-7
-9
-11
-7
0
2
1
-7
-15
-8
1
-4
-10
-16
-22
-9
2
-4
-10
-10
-10
-9
-8
-8
-9
-14
-18
-18
-17
-14
-12
-13
-12
-8
-7
-9
-7
-1
2
3
4
5
15
27
80
145
210
275
340
405
351
286
220
154
89
23
-42
-108
-173
-230
-240
-241
-202
-172
-173
-168
-148
-128
-110
-94
-83
-70
-54
-43
-36
-28
-20
-18
-24
-21
-12
-12
-18
-20
-19
-18
-18
-18
-19
-20
-20
-18
-15
-14
-14
-11
-10
-7
-4
0
4
4
5
13
20
21
23
29
37
47
56
62
69
79
89
102
112
121
130
137
143
148
154
161
158
149
140
130
119
106
93
80
69
59
52
45
39
34
27
20
19
18
15
12
11
10
9
8
7
6
4
2
3
4
4
8
17
23
25
26
26
29
34
35
33
27
19
14
11
10
10
0
-12
-15
-17
-17
-15
-16
-20
-18
-16
-11
-6
-7
-8
-8
-8
-7
-7
-14
-20
-18
-16
-17
-20
-27
-31
-28
-26
-27
-28
-29
-30
-29
-28
-28
-28
-28
-27
-25
-24
-24
-24
-23
-22
-22
-23
-25
-26
-26
-2
25
90
155
220
285
350
391
326
260
195
129
64
-2
-68
-133
-199
-244
-262
-253
-211
-192
-197
-187
-162
-139
-116
-106
-103
-87
-66
-57
-52
-49
-47
-46
-45
-44
-43
-42
-41
-41
-42
-40
-38
-40
-42
-42
-42
-36
-32
-32
-32
-30
-27
-20
-16
-17
-17
-14
-10
-4
1
4
8
12
21
35
42
46
57
70
80
89
97
104
111
117
124
131
124
115
108
100
96
91
72
54
49
44
41
37
27
19
13
8
6
2
-7
-13
-16
-19
-23
-26
-26
-26
-25
-24
-23
-25
-30
-31
-29
-24
-18
-19
-23
-18
-10
-5
-1
0
0
0
0
5
10
4
-2
-4
-6
-10
-14
-16
-18
-20
-22
-24
-26
-28
-31
-34
-35
-32
-30
-27
-25
-23
-22
-23
-24
-24
-26
-29
-30
-31
-30
-27
-26
-27
-28
-28
-29
-31
-31
-29
-31
-34
-34
-34
-31
-28
-29
-30
-33
-36
-32
-28
-25
-22
-20
-20
-26
-17
17
65
130
195
260
325
390
379
313
248
182
116
51
-15
-80
-146
-211
-242
-266
-236
-198
-193
-191
-172
-152
-137
-122
-114
-104
-83
-64
-62
-60
-56
-52
-50
-47
-43
-41
-44
-44
-39
-37
-40
-44
-51
-51
-45
-41
-39
-38
-37
-34
-31
-29
-27
-26
-27
-20
-10
-8
-7
-1
5
13
6
30
38
44
51
63
75
85
95
104
113
118
123
129
134
133
130
124
117
109
97
82
70
62
52
39
29
20
14
11
6
0
-4
-7
-8
-9
-10
-10
-11
-13
-13
-11
-17
-24
-20
-16
-15
-14
-14
-14
-14
-13
-7
-1
3
6
10
13
16
19
22
22
16
8
0
-4
-3
-6
-15
-19
-21
-22
-22
-25
-30
-28
-23
-20
-17
-11
-5
-6
-9
-12
-16
-17
-18
-19
-20
-22
-24
-26
-28
-28
-28
-27
-26
-28
-30
-29
-27
-24
-23
-27
-30
-31
-31
-29
-28
-28
-29
-32
-30
-23
-22
-25
-22
-16
22
67
129
194
259
324
332
328
273
207
142
76
11
-55
-120
-183
-237
-271
-238
-212
-204
-194
-182
-167
-148
-128
-109
-95
-86
-77
-65
-55
-44
-40
-41
-42
-41
-40
-40
-40
-40
-38
-35
-34
-33
-30
-27
-26
-25
-24
-24
-23
-22
-18
-14
-17
-20
-17
-13
-8
-3
1
5
9
14
23
32
42
53
64
75
86
93
95
102
113
120
124
128
132
130
124
121
119
112
104
90
76
71
67
58
48
38
28
24
20
14
8
1
-4
-3
-2
-3
-4
-7
-10
-11
-12
-13
-12
-7
-3
0
5
12
17
20
22
23
22
19
16
11
8
5
4
5
1
-5
-10
-15
-14
-16
-13
-16
-19
-22
-16
-10
-11
-12
-12
-12
-13
-14
-13
-13
-17
-20
-19
-20
-25
-26
-21
-16
-12
-13
-19
-22
-21
-20
-19
-23
-31
-30
-24
-22
-22
-22
-22
-22
-23
-22
-19
-16
-14
-14
-12
20
56
121
186
251
316
381
412
347
281
215
150
84
19
-47
-112
-178
-222
-244
-235
-199
-186
-190
-176
-150
-131
-113
-105
-100
-82
-62
-55
-51
-44
-37
-36
-37
-38
-40
-38
-36
-33
-30
-31
-32
-34
-35
-29
-24
-27
-30
-28
-26
-24
-22
-22
-21
-18
-16
-13
-8
2
8
12
19
27
34
41
45
47
57
69
77
84
93
101
108
115
118
116
124
126
125
123
107
91
80
69
58
48
39
30
19
12
10
5
-4
-10
-12
-15
-20
-22
-21
-20
-20
-21
-23
-25
-27
-29
-31
-32
-32
-33
-35
-36
-36
-33
-29
-20
-11
-16
-22
-12
-2
1
4
-1
-6
-9
-12
-15
-19
-27
-32
-33
-34
-33
-34
-42
-46
-46
-45
-43
-40
-35
-29
-23
-18
-14
-16
-22
-26
-29
-31
-33
-36
-39
-38
-35
-34
-33
-36
-42
-37
-32
-35
-38
-36
-34
-33
-32
-33
-34
-35
-36
-38
-38
-32
-28
-30
-32
-33
-30
-19
2
34
85
150
215
280
302
301
253
188
122
57
-9
-74
-140
-205
-238
-268
-250
-270
-214
-200
-187
-172
-151
-131
-117
-105
-96
-86
-77
-68
-60
-52
-45
-41
-44
-46
-44
-39
-32
-34
-48
-51
-45
-37
-28
-26
-29
-30
-29
-26
-23
-21
-19
-19
-21
-17
-11
-10
-11
-5
2
4
6
14
23
35
47
54
63
81
95
100
107
118
127
132
136
138
138
132
124
116
107
97
82
65
55
50
41
31
25
20
11
2
-1
-3
-6
-9
-12
-15
-15
-12
-15
-18
-22
-26
-25
-24
-19
-14
-17
-20
-22
-24
-25
-26
-25
-24
-26
-27
-24
-22
-23
-24
-25
-25
-23
-22
-21
-20
-21
-22
-21
-20
-19
-19
-21
-22
-21
6
36
99
38
230
294
342
380
315
249
184
118
53
-13
-78
-144
-209
-253
-250
-237
-205
-186
-187
-181
-164
-147
-129
-115
-106
-88
-63
-52
-49
-45
-40
-33
-26
-27
-31
-29
-25
-24
-24
-26
-29
-27
-24
-19
-14
-15
-16
-14
-12
-9
-4
6
14
15
17
21
26
35
43
51
59
66
74
83
94
105
114
123
130
137
142
145
152
160
159
155
144
132
122
113
101
89
78
66
60
54
45
36
27
20
19
17
11
6
4
2
4
6
4
1
-2
-2
4
6
-1
-4
-4
-4
-4
-4
-3
-2
-2
-1
1
2
3
2
-1
-2
-1
-4
-9
-9
-10
-7
-8
-5
-2
-8
-14
-10
-6
-12
-16
-15
-13
-8
-4
-3
-3
-7
-10
-9
-8
-8
-10
-14
-16
-15
-11
-6
-4
-5
-2
4
8
11
14
17
18
17
13
9
1
-7
-8
-8
-11
-14
-16
-18
-22
-26
-27
-28
-26
-23
-18
-12
-4
1
-2
-4
-5
-6
-4
-3
-6
-10
-15
-17
-14
-12
-12
-12
-12
-12
-12
-12
-12
-9
-5
-6
-9
-10
-11
-12
-12
-11
-10
-10
-10
-10
-10
-3
10
51
98
163
228
293
358
423
438
372
307
241
176
110
45
-21
-86
-152
-189
-209
-208
-194
-181
-168
-149
-128
-111
-95
-82
-70
-59
-49
-45
-48
-35
-30
-31
-32
-34
-36
-31
-26
-30
-34
-34
-33
-29
-26
-25
-23
-20
-18
-18
-18
-18
-16
-11
-8
-9
-10
-11
-8
-1
7
14
19
23
29
36
50
64
72
79
94
109
120
130
139
148
151
154
160
166
166
162
144
128
120
111
100
89
79
70
64
57
49
40
32
27
24
19
14
9
4
2
1
1
3
0
-5
-4
-1
0
-1
-2
-1
6
14
17
20
17
14
18
22
22
20
9
1
6
9
3
-3
-8
-12
-12
-12
-13
-15
-20
-20
-16
-14
-14
-11
-6
-5
-7
-10
-15
-16
-15
-15
-17
-18
-19
-18
-15
-14
-14
-13
-12
-16
-20
-22
-24
-24
-24
-21
-18
-20
-22
-22
-22
-21
-20
-21
-19
-9
-5
-8
-10
-11
8
45
99
164
229
294
346
392
355
290
224
159
93
28
-38
-103
-169
-234
-232
-228
-205
-184
-180
-174
-150
-128
-112
-99
-94
-85
-63
-48
-44
-40
-34
-31
-34
-35
-32
-30
-30
-28
-23
-23
-28
-31
-33
-32
-28
-28
-31
-31
-29
-24
-19
-18
-19
-16
-11
-7
-2
-1
0
6
12
19
27
34
41
47
54
64
75
85
93
98
105
113
119
122
123
120
116
112
106
99
86
70
63
61
51
38
29
22
20
19
11
3
2
2
1
2
-2
-2
-5
-8
-4
-1
-8
-14
-13
-12
-11
-10
-12
-14
-13
-11
-7
-4
-4
-3
0
6
15
18
12
11
14
15
13
10
6
-1
-8
-12
-15
-17
-19
-25
-31
-34
-37
-31
-24
-25
-26
-15
-6
-14
-20
-20
-20
-24
-28
-30
-32
-30
-28
-29
-30
-32
-34
-32
-30
-31
-31
-29
-28
-29
-30
-29
-28
-29
-30
-29
-28
-29
-30
-31
-30
-27
-26
-27
-23
-16
6
32
97
162
227
292
357
396
331
265
200
134
69
3
-63
-128
-194
-235
-244
-238
-211
-188
-167
-151
-139
-124
-108
-94
-82
-70
-57
-52
-49
-42
-34
-32
-32
-32
-32
-30
-32
-28
-30
-28
-26
-20
-14
-18
-22
-23
-24
-19
-16
-16
-16
-14
-11
-7
-4
-2
1
6
10
15
22
29
38
50
60
70
79
87
98
109
120
130
134
137
143
149
151
153
147
140
130
120
113
105
94
83
74
65
57
48
36
28
24
21
17
12
7
4
3
3
5
3
-3
-4
0
2
1
-1
-3
-3
-1
0
1
7
15
19
23
25
27
30
34
28
22
20
18
18
18
16
13
8
4
2
-1
-7
-12
-10
-8
-6
-3
1
5
10
10
6
4
4
5
7
7
5
3
1
0
-1
-1
1
-4
-11
-8
-3
-3
-2
-6
-6
-5
-4
-2
0
-1
-2
0
2
7
10
7
4
3
8
25
63
128
193
258
323
388
381
315
250
184
118
53
-13
-78
-144
-209
-226
-231
-205
-172
-167
-165
-145
-125
-107
-90
-79
-67
-46
-28
-32
-34
-21
-10
-10
-10
-12
-14
-10
-8
-10
-12
-14
-16
-14
-11
-9
-9
-11
-11
-8
-3
2
4
4
5
7
12
17
18
18
22
27
34
41
48
56
68
80
93
105
115
125
135
145
153
160
163
166
165
162
156
150
143
132
118
106
95
85
75
65
54
49
46
40
33
30
30
33
37
26
11
7
5
4
3
0
2
-5
-6
-1
4
-1
-6
-2
2
1
0
1
2
3
4
3
2
3
4
3
3
6
8
9
10
9
16
31
58
91
147
212
277
342
407
472
537
602
552
487
421
356
290
224
159
95
54
14
-21
-50
-47
-44
-47
-50
-51
-52
-48
-47
-52
-56
-56
-56
-57
-57
-54
-53
-55
-56
-55
-54
-55
-56
-56
-53
-49
-48
-49
-50
-51
-54
-57
-58
-59
-63
-68
-62
-56
-58
-60
-62
-64
-57
-52
-52
-51
-45
-40
-37
-32
-25
-20
-21
-18
-9
-4
-3
1
7
14
21
22
18
16
15
12
9
8
9
6
-1
-2
-1
0
-1
-9
-2
-16
-14
-15
-16
-19
-22
-20
-18
-19
-20
-21
-22
-21
-20
-18
-16
-18
-20
-21
-22
-19
-21
-28
-31
-28
-27
-29
-30
-31
-29
-24
-22
-23
-20
-15
-17
-21
-22
-23
-24
-24
-24
-24
-25
-26
-27
-28
-27
-26
-25
-24
-23
-22
-24
-25
-20
-16
-18
-19
-16
-14
-13
-11
-9
-7
-4
-1
2
3
1
0
1
0
-3
-9
-16
-13
-5
-13
-25
-26
-27
-30
-34
-37
-40
-40
-40
-33
-26
-22
-18
-16
-16
-24
-29
-24
-21
-26
-30
-29
-28
-30
-32
-35
-35
-33
-31
-28
-31
-39
-40
-37
-37
-39
-38
-35
-34
-33
-28
-23
-26
-31
-29
-32
-25
-25
2
34
99
164
229
294
359
394
329
263
198
132
66
1
-65
-130
-196
-236
-246
-238
-209
-195
-193
-181
-161
-144
-129
-118
-109
-94
-78
-70
-63
-57
-51
-50
-50
-50
-49
-43
-38
-46
-54
-52
-50
-47
-44
-45
-46
-42
-38
-37
-36
-37
-37
-33
-28
-20
-16
-15
-12
-7
-2
3
7
9
17
28
39
49
61
73
85
97
110
122
131
139
147
155
158
162
156
150
141
131
119
107
100
93
83
74
62
53
47
39
30
24
25
24
18
13
8
6
6
5
2
-2
-6
-8
-7
-7
-9
-13
-17
-11
-2
0
1
5
9
17
10
24
22
22
22
18
14
16
23
50
87
152
196
186
157
91
26
-40
-94
-134
-186
-252
-281
-274
-268
-264
-286
-327
-373
-421
-417
-389
-357
-323
-292
-261
-217
-170
-136
-104
-77
-49
-44
-40
-40
-40
-40
-40
-35
-30
-33
-36
-32
-27
-22
-19
-23
-24
-17
-10
-5
-2
-1
3
9
13
15
17
20
25
30
38
47
56
65
76
88
101
114
130
146
173
201
216
232
247
262
278
292
298
304
305
306
304
301
294
283
266
250
235
219
201
182
163
143
122
108
98
87
73
61
49
42
39
30
19
16
15
14
15
13
9
8
8
10
8
13
12
9
6
6
6
8
10
6
2
3
4
3
2
0
-2
-1
0
-2
-4
-4
-3
-1
-2
-6
-8
-7
-6
-5
-4
-5
-6
-5
-4
-3
-8
-15
-12
-7
-6
-7
-4
0
0
0
-2
-4
-4
-4
-2
1
8
14
17
20
20
20
22
22
14
10
8
6
6
4
-1
-5
-7
-10
-14
-18
-22
-21
-16
-14
-14
-9
-3
-2
-2
-3
-5
-10
-16
-14
-12
-9
-7
-16
-24
-20
-16
-16
-16
-14
-13
-17
-19
-16
-14
-16
-18
-19
-19
-16
-14
-13
-13
-15
-13
-8
-8
-11
-9
-4
41
99
162
227
292
357
308
245
180
242
49
-17
-82
-148
-213
-270
-268
-260
-223
-194
-194
-191
-179
-163
-141
-122
-111
-100
-90
-79
-68
-58
-50
-45
-42
-39
-36
-36
-39
-42
-45
-42
-36
-36
-39
-40
-40
-39
-37
-36
-35
-35
-36
-28
-20
-20
-20
-20
-20
-14
-9
-4
1
5
11
24
34
40
48
58
70
84
96
105
116
129
142
156
165
172
170
162
160
161
151
137
125
114
104
95
84
73
60
46
43
40
35
30
27
24
22
19
12
6
5
4
4
3
-2
-6
-7
-6
0
4
4
5
7
13
22
25
23
22
22
18
12
7
3
-5
-14
-15
-13
-15
-19
-24
-20
-30
-30
-24
-18
-20
-21
-10
0
-4
-9
-14
-19
-24
-26
-20
-17
-20
-22
-24
-27
-30
-31
-29
-29
-32
-31
-25
-23
-25
-26
-27
-26
-23
-27
-34
-34
-31
-28
-25
-28
-33
-33
-32
-15
5
54
106
171
236
301
338
273
207
142
76
10
-55
-121
-186
-252
-285
-278
-256
-218
-198
-194
-184
-170
-146
-117
-106
-102
-86
-67
-60
-57
-50
-42
-39
-37
-40
-45
-46
-46
-41
-36
-38
-40
-33
-26
-26
-26
-27
-26
-18
-13
-19
-23
-18
-14
-13
-10
-4
0
-1
0
5
13
24
29
32
44
59
76
93
92
84
94
109
116
121
122
123
124
124
120
116
106
96
91
84
70
57
50
43
38
32
25
17
8
2
0
-1
2
-1
-12
-16
-11
-9
-11
-12
-13
-14
-15
-13
-8
-4
-1
0
0
6
13
13
11
12
15
15
14
7
0
-2
-4
-5
-7
-15
-22
-20
-18
-16
-14
-18
-20
-18
-14
-6
-4
-9
-13
-15
-16
-15
-17
-23
-25
-21
-18
-15
-16
-19
-20
-19
-18
-19
-20
-20
-20
-20
-20
-18
-23
-28
-24
-20
-19
-18
-19
-20
-17
-13
-7
-5
-15
-12
19
63
128
193
258
323
388
385
319
254
188
123
57
-9
-74
-140
-205
-227
-236
-212
-179
-174
-175
-157
-136
-120
-134
-97
-90
-71
-54
-48
-42
-37
-32
-34
-34
-25
-18
-18
-19
-24
-26
-19
-14
-15
-16
-15
-14
-15
-15
-12
-10
-9
-6
-3
0
4
7
9
16
24
29
33
38
43
51
59
69
78
88
99
112
124
129
135
146
155
160
165
169
171
164
156
145
136
128
117
101
86
74
66
61
51
39
32
28
23
18
14
11
9
7
6
7
8
7
10
15
20
26
23
20
21
22
25
27
18
10
11
11
6
2
0
-2
-3
-4
-6
-9
-13
-16
-16
-14
-9
-4
0
2
1
0
-1
-2
-3
-3
-1
-3
-7
-5
-1
-1
-3
-4
-4
-8
-14
-9
-4
-7
-10
-8
-6
-7
-8
-5
-2
-2
-2
-3
-3
1
4
5
6
5
20
53
104
169
234
299
364
429
403
338
272
207
141
76
10
-55
-109
-162
-124
-79
-65
-52
-50
-48
-48
-48
-48
-48
-47
-46
-43
-41
-45
-48
-49
-47
-38
-34
-40
-44
-45
-45
-43
-42
-43
-45
-47
-48
-49
-49
-47
-46
-47
-48
-48
-46
-43
-41
-39
-38
-37
-37
-40
-42
-44
-41
-38
-37
-36
-31
-25
-19
-13
-7
-2
0
5
15
25
33
39
42
44
47
47
44
40
34
31
28
24
20
18
18
18
19
16
9
5
1
5
11
7
12
3
6
4
2
-1
-4
-1
4
15
24
19
16
16
17
20
22
21
20
18
15
12
8
3
-4
-11
-14
-13
-16
-22
-25
-27
-24
-18
-15
-13
-11
-9
-8
-8
-5
-1
-7
-14
-13
-12
-14
-16
-17
-18
-19
-20
-20
-20
-20
-20
-20
-18
-12
-8
-10
-12
-10
-7
-5
-6
-10
-12
-11
-7
0
-1
-6
7
29
84
149
214
279
344
409
355
290
224
158
93
27
-38
-104
-169
-227
-239
-242
-199
-167
-172
-169
-142
-120
-108
-97
-88
-71
-46
-32
-31
-27
-21
-18
-18
-18
-17
-20
-27
-26
-20
-18
-19
-19
-17
-14
-11
-9
-7
-6
-6
-4
0
4
8
8
9
16
22
20
19
26
35
49
60
66
71
77
86
103
117
128
138
147
154
158
163
169
170
166
155
142
138
137
123
107
97
88
80
73
55
37
43
50
41
32
26
20
16
12
16
18
4
-4
8
13
3
-4
-3
0
5
9
12
14
14
21
34
38
34
33
37
38
37
31
24
18
12
10
11
7
1
-1
-3
-4
-6
0
6
2
-2
5
12
13
13
5
-1
4
7
3
-1
-5
-6
-1
2
0
-2
-2
-2
-2
-2
-2
-3
-5
-6
-5
-6
-11
-11
-9
-8
-8
-6
-3
-5
-9
-5
-10
1
1
31
64
129
194
259
324
389
424
359
293
228
162
96
31
-35
-100
-166
-210
-231
-221
-179
-159
-157
-147
-130
-114
-97
-85
-73
-57
-38
-34
-34
-27
-18
-16
-15
-14
-13
-11
-10
-9
-8
-5
-2
0
2
-1
-4
-4
-4
-1
2
2
3
6
9
13
16
18
22
26
30
35
43
52
62
72
85
98
102
102
112
125
135
144
152
159
161
163
166
170
160
150
141
132
128
121
102
85
77
68
58
48
39
31
27
23
19
16
14
11
6
4
5
6
6
6
6
7
9
12
17
20
23
26
29
30
31
32
33
34
34
30
26
22
18
15
12
13
14
14
12
3
-4
-4
-4
-3
0
6
11
14
14
7
5
8
10
9
5
0
0
3
7
12
10
4
0
-3
-3
-1
-2
-5
-6
-5
-4
-4
-5
-6
-8
-10
-5
0
1
2
0
-2
1
5
9
30
80
136
201
266
331
347
312
261
195
130
64
-1
-67
-133
-198
-228
-246
-224
-190
-179
-173
-159
-144
-125
-105
-90
-74
-57
-40
-40
-39
-27
-16
-14
-12
-14
-16
-13
-10
-13
-16
-16
-16
-16
-16
-17
-17
-12
-11
-13
-13
-11
-10
-9
-6
-2
3
8
10
10
11
13
21
31
36
41
49
42
71
84
90
97
110
123
131
138
142
147
156
162
162
159
150
139
125
111
99
88
77
69
63
54
43
37
35
30
23
20
21
21
19
18
18
15
11
9
7
6
6
7
8
9
10
16
22
27
32
33
34
35
35
30
26
24
20
14
9
6
0
-9
-15
-17
-18
-17
-17
-19
-20
-20
-14
-5
-2
-2
-6
-11
-12
-11
-14
-19
-20
-20
-20
-20
-23
-26
-25
-24
-23
-22
-24
-26
-25
-23
-16
-13
-23
-29
-26
-23
-20
-18
-19
-20
-21
-22
-21
-21
-23
4
50
109
174
239
304
331
347
297
232
166
101
35
-30
-96
-34
-227
-289
-260
-233
-217
-202
-199
-191
-164
-138
-120
-104
-95
-83
-65
-53
-49
-44
-39
-36
-37
-38
-38
-37
-34
-34
-38
-38
-34
-32
-32
-29
-24
-22
-23
-22
-19
-18
-19
-17
-13
-12
-12
-11
-10
-6
-1
7
14
18
24
36
47
55
63
74
85
94
102
110
114
115
118
122
123
120
111
99
91
84
72
57
45
35
27
20
14
9
0
-9
-11
-13
-17
-22
-26
-30
-29
-28
-30
-32
-31
-30
-29
-28
-27
-26
-29
-31
-26
-20
-15
-12
-10
-8
-5
-2
3
8
12
13
10
7
5
-6
-20
-19
-12
-11
-13
-17
-21
-20
-17
-20
-16
-21
-16
-13
-10
-12
-14
-9
-4
-7
-11
-17
-22
-22
-22
-20
-17
-11
-12
-22
-25
-18
-14
-14
-15
-18
-26
-36
-28
-10
-12
-24
-25
-20
-20
-23
-20
-15
-14
-15
-14
-11
3
17
69
123
188
253
318
361
296
230
165
99
34
-32
-98
-163
-229
-270
-276
-260
-214
-187
-181
-175
-167
-151
-129
-111
-97
-85
-75
-69
-64
-50
-35
-38
-46
-44
-39
-31
-23
-23
-26
-31
-36
-32
-28
-32
-36
-33
-30
-29
-28
-26
-24
-22
-18
-12
-8
-6
-2
3
10
19
25
28
34
42
51
60
70
81
92
103
109
113
122
132
138
143
146
149
150
150
139
130
118
105
94
82
68
56
53
47
34
23
19
15
10
6
4
1
-2
-4
-3
-2
-3
-5
-8
-10
-9
-8
-7
-6
-7
-2
8
14
19
20
21
24
27
25
21
15
10
11
12
8
3
-5
-12
-11
-10
-11
-12
-15
-17
-10
-5
-2
0
-1
-2
-4
-4
1
1
-5
-8
-9
-10
-10
-11
-13
-14
-15
-15
-13
-18
-26
-21
-13
-12
-11
-12
-16
-11
-6
-7
-8
-8
-8
-6
-4
-2
0
-3
-1
17
52
117
182
247
312
377
380
314
249
183
118
52
-13
-79
-145
-210
-233
-240
-213
-174
-168
-171
-158
-140
-119
-98
-86
-96
-59
-44
-37
-30
-23
-16
-15
-14
-11
-8
-10
-12
-14
-16
-14
-12
-11
-10
-12
-13
-10
-6
-2
1
3
5
7
8
9
12
16
19
21
26
33
36
39
49
59
68
77
86
94
106
118
127
136
141
147
155
162
162
160
151
143
136
129
119
106
89
78
72
64
55
47
39
35
32
29
25
19
11
8
9
9
7
3
-1
2
7
8
8
14
22
26
30
34
38
39
40
33
27
20
14
14
14
16
16
7
2
0
-3
-6
-8
-7
-6
-5
0
8
16
23
18
4
0
1
2
1
0
-1
-2
-3
-4
-4
-4
-4
-7
-8
-8
-8
-3
2
-5
-10
-6
-2
-4
-6
-8
-10
-8
-6
-5
-4
-4
-4
-1
15
46
96
161
226
291
356
421
395
330
264
199
133
68
2
-63
-129
-194
-218
-239
-208
-176
-170
-163
-145
-126
-102
-81
-70
-60
-51
-42
-33
-25
-18
-15
-20
-24
-22
-19
-15
-13
-15
-16
-16
-15
-12
-10
-10
-8
-4
-4
-7
-8
-7
-6
-5
-1
3
5
7
12
18
25
32
38
45
55
65
78
89
97
106
115
122
125
131
140
146
147
148
148
145
136
127
115
105
94
84
74
66
59
51
44
38
32
27
23
18
13
9
5
3
4
3
6
3
0
-2
-4
-1
2
1
0
3
8
15
20
22
24
25
27
30
32
29
26
21
17
14
9
4
0
-3
-4
-4
-9
-16
-18
-18
-17
-15
-12
-9
-8
-7
-6
-6
-13
-20
-22
-24
-24
-24
-27
-30
-29
-28
-29
-30
-26
-26
-33
-38
-37
-37
-40
-41
-39
-38
-39
-40
-40
-40
-39
-34
-26
-24
-25
-26
-25
-12
4
52
105
169
234
299
363
298
232
167
101
36
-30
-95
-161
-226
-275
-268
-252
-215
-190
-188
-178
-158
-139
-123
-108
-95
-79
-62
-53
-50
-44
-37
-34
-35
-34
-31
-27
-23
-22
-23
-24
-24
-28
-33
-30
-34
-25
-26
-24
-22
-21
-20
-13
-8
-7
-5
0
5
10
16
22
29
38
44
46
55
70
84
96
104
108
111
114
124
136
138
135
137
142
144
144
128
109
96
85
78
71
58
46
39
32
25
18
13
7
0
-7
-12
-16
-18
-21
-28
-31
-27
-26
-31
-32
-27
-28
-36
-38
-34
-35
-41
-41
-36
-34
-33
-32
-32
-28
-22
-19
-17
-16
-17
-18
-19
-18
-14
-8
-1
18
43
108
173
238
301
358
386
321
255
190
124
58
-7
-73
-138
-204
-241
-250
-235
-200
-184
-184
-173
-155
-131
-104
-95
-93
-77
-56
-44
-34
-32
-31
-25
-19
-18
-18
-20
-20
-20
-20
-18
-16
-14
-12
-9
-6
-4
-2
-1
1
4
8
14
19
23
27
32
37
43
50
58
65
70
80
94
100
104
114
125
135
144
146
147
147
145
142
139
130
122
105
88
83
77
65
53
45
37
30
23
17
12
10
8
10
10
4
0
-1
-1
2
4
3
1
-1
-2
-2
-2
-2
-1
1
0
-3
-4
-4
-4
-3
0
3
3
0
-1
-2
-5
-8
-3
2
0
-2
-1
0
-2
-4
-6
-7
-4
-1
3
4
-1
-3
0
2
1
-2
-8
-7
-2
-1
-3
-6
-9
-7
-1
0
-1
-1
1
-2
-7
-5
-8
1
2
2
2
3
4
5
7
13
18
23
25
21
19
22
23
20
15
8
4
4
2
-3
-8
-14
-16
-16
-17
-19
-20
-21
-19
-14
-8
-1
-2
-5
-5
-3
-2
-1
-5
-10
-10
-10
-8
-6
-12
-18
-16
-13
-6
-2
-10
-16
-12
-10
-9
-8
-7
-6
-4
-1
1
0
-4
-3
2
5
7
36
78
137
202
267
332
388
441
391
326
260
195
129
63
-2
-68
-133
-192
-197
-200
-187
-174
-163
-150
-131
-113
-93
-78
-72
-64
-53
-42
-30
-24
-21
-20
-21
-21
-19
-18
-17
-18
-22
-22
-19
-18
-17
-16
-17
-18
-18
-15
-11
-9
-10
-4
-2
1
4
3
3
10
16
22
27
32
39
50
61
71
80
86
96
113
128
143
152
156
162
169
177
186
182
170
161
153
142
131
118
105
91
78
74
71
64
57
46
36
37
38
32
26
27
28
22
18
17
16
13
10
9
8
7
7
11
18
28
35
37
38
39
39
37
33
28
24
20
15
11
10
10
4
-4
-6
-6
-8
-11
-12
-12
-7
-2
1
4
3
2
3
3
-2
-7
-12
-16
-14
-13
-16
-18
-20
-21
-18
-15
-12
-12
-16
-18
-17
-17
-19
-22
-26
-26
-23
-21
-19
-22
-29
-23
-13
-14
-17
-18
-18
12
45
110
175
240
305
370
411
346
280
215
149
84
18
-48
-113
-179
-224
-242
-236
-201
-184
-184
-171
-148
-125
-102
-92
-88
-74
-55
-49
-47
-46
-45
-39
-33
-32
-32
-33
-35
-35
-34
-29
-24
-29
-34
-31
-28
-31
-34
-31
-28
-30
-32
-28
-25
-20
-15
-12
-10
-10
-7
-1
7
16
24
31
39
49
58
67
70
71
76
82
93
104
106
105
101
97
95
92
81
70
63
56
50
42
28
15
10
5
0
-5
-10
-15
-18
-20
-19
-20
-25
-29
-32
-29
-19
-15
-18
-22
-26
-26
-23
-24
-27
-30
-33
-30
-25
-23
-21
-14
-7
-6
-6
-1
2
-4
-10
-10
-10
-17
-23
-31
-38
-38
-39
-45
-50
-51
-51
-45
-42
-41
-39
-36
-34
-33
-33
-35
-36
-37
-36
-33
-33
-35
-41
-48
-46
-41
-43
-47
-48
-47
-42
-37
-40
-44
-44
-44
-38
-32
-32
-32
-33
-34
-33
-32
-31
-31
-35
-35
-25
0
46
101
166
231
296
291
225
160
94
29
-37
-103
-168
-234
-299
-303
-289
-257
-221
-213
-209
-192
-173
-156
-138
-127
-116
-103
-91
-75
-61
-54
-48
-50
-51
-45
-41
-47
-51
-47
-44
-43
-42
-43
-44
-45
-46
-45
-44
-45
-41
-33
-30
-30
-29
-27
-24
-21
-20
-19
-14
-9
4
17
23
18
41
52
59
66
77
87
95
103
112
121
127
132
133
133
128
121
112
101
88
77
70
62
53
42
29
21
16
15
17
9
-4
-8
-8
-10
-13
-15
-17
-22
-27
-27
-25
-26
-28
-26
-24
-22
-20
-20
-20
-16
-12
-14
-16
-13
-10
-12
-14
-12
-11
-14
-16
-14
-11
-8
-6
-7
-4
5
41
93
154
219
284
349
313
248
182
117
51
-14
-80
-145
-211
-276
-267
-256
-219
-186
-192
-197
-187
-172
-140
-115
-111
-104
-87
-73
-61
-51
-43
-38
-38
-37
-32
-30
-30
-30
-31
-29
-23
-20
-19
-14
-8
-8
-11
-9
-5
-1
3
4
5
8
6
18
24
32
40
47
55
63
72
87
99
108
117
128
137
140
144
151
154
149
146
149
146
138
126
112
102
95
86
76
66
57
50
44
38
33
24
14
12
12
9
5
-1
-6
-3
0
0
0
-3
-6
-4
-2
-2
-2
-4
-6
-2
-1
-4
-6
-5
-6
-12
-15
-13
-12
-13
-14
-14
-14
-14
-16
-19
-17
-12
-10
-11
-14
-17
-15
-11
-10
-11
-19
-28
-23
-18
-18
-18
-21
-24
-24
-24
-22
-20
-19
-18
-19
-20
-20
-20
-18
-15
-12
-7
0
4
4
6
10
11
8
2
-5
-9
-11
-11
-9
-12
-19
-18
-15
-19
-25
-28
-26
-30
-28
-24
-20
-17
-14
-17
-20
-16
-13
-19
-23
-19
-16
-15
-15
-18
-20
-19
-18
-15
-17
-23
-25
-22
-20
-20
-20
-21
-21
-19
-16
-13
-12
-12
-12
-12
-10
-7
22
53
118
183
248
313
378
427
362
296
231
165
100
34
-31
-97
-163
-212
-233
-233
-200
-181
-177
-165
-145
-127
-110
-98
-89
-77
-63
-55
-50
-44
-38
-37
-39
-35
-27
-26
-27
-30
-33
-35
-38
-35
-32
-34
-36
-33
-30
-29
-28
-27
-26
-23
-20
-18
-16
-15
-12
-5
4
13
18
18
22
30
41
53
63
72
82
93
105
118
125
129
135
142
151
161
161
159
145
158
125
120
103
88
78
69
58
47
39
30
19
10
9
7
2
-2
0
2
2
2
2
-2
-10
-12
-8
-9
-15
-15
-10
-6
-2
3
8
9
7
11
17
14
9
6
3
-1
-4
-10
-16
-20
-24
-23
-23
-31
-38
-34
-30
-29
-26
-19
-13
-10
-8
-8
-8
-10
-12
-11
-12
-17
-21
-23
-23
-21
-24
-30
-29
-25
-25
-27
-26
-23
-23
-25
-26
-26
-22
-16
-20
-24
-18
-12
-13
-14
-18
-22
-19
-6
35
83
148
213
278
328
353
340
274
209
143
78
12
-53
-119
-184
-250
-253
-225
-207
-194
-180
-167
-145
-120
-107
-96
-86
-77
-57
-76
-37
-38
-34
-30
-28
-26
-30
-34
-34
-34
-31
-28
-26
-24
-26
-28
-26
-24
-23
-21
-18
-16
-15
-14
-14
-13
-11
-6
0
6
12
11
6
17
33
38
41
55
71
78
85
97
108
106
104
110
116
116
116
112
106
95
85
77
68
55
44
37
30
22
16
10
6
6
2
-6
-11
-14
-16
-16
-18
-21
-22
-23
-24
-23
-22
-23
-24
-24
-19
-13
-9
-4
-3
-2
8
18
17
16
15
14
11
8
7
4
-5
-12
-10
-9
-13
-20
-29
-33
-28
-22
-14
-12
-18
-17
-11
-7
-5
-11
-21
-21
-17
-16
-16
-22
-29
-29
-27
-26
-26
-22
-20
-21
-22
-25
-28
-27
-26
-27
-28
-26
-24
-25
-25
-22
-20
-19
-17
-14
-13
-16
-13
-1
28
72
129
194
259
324
328
304
249
184
118
53
-13
-78
-144
-209
-232
-251
-222
-192
-176
-160
-156
-150
-131
-112
-98
-84
-75
-66
-54
-44
-34
-27
-24
-22
-22
-22
-24
-24
-19
-15
-13
-12
-13
-13
-11
-10
-9
-8
-9
-10
-10
-8
-5
-3
-1
7
15
15
12
19
26
35
44
49
56
69
81
89
98
110
121
132
143
155
164
171
176
176
175
172
165
155
144
133
123
115
103
89
75
62
55
49
40
30
23
17
16
16
16
16
13
10
8
6
6
6
4
2
3
3
-2
-6
-3
-1
-6
-8
-2
1
-2
-3
0
2
2
2
1
1
4
6
7
6
3
2
1
4
9
9
7
20
36
98
163
229
294
359
414
349
283
218
152
87
21
-44
-110
-175
-222
-225
-219
-191
-174
-174
-164
-142
-123
-107
-95
-85
-67
-45
-30
-20
-16
-15
-13
-11
-10
-11
-12
-12
-11
-9
-9
-11
-12
-10
-9
-8
-6
-4
-1
2
5
8
9
10
12
15
19
25
35
43
47
54
64
74
83
91
97
105
116
126
136
141
143
146
151
148
142
132
122
113
105
94
83
73
82
57
52
40
28
21
14
15
16
12
8
5
2
3
4
2
-1
-7
-10
-8
-5
-2
-1
-4
-6
-6
-6
-7
-6
-3
-2
-1
0
-1
-2
-3
-4
-3
-6
-11
-12
-13
-12
-10
-9
-8
-12
-16
-14
-12
-11
-10
-12
-14
-14
-14
-13
-12
-14
-16
-16
-14
-9
-4
1
5
8
11
13
14
13
12
11
10
9
4
-1
-7
-13
-14
-15
-20
-25
-25
-22
-24
-26
-23
-20
-13
-6
-7
-8
-11
-14
-11
-8
-8
-9
-14
-18
-18
-19
-22
-24
-24
-23
-20
-19
-21
-22
-21
-22
-26
-22
-13
-13
-19
-20
-21
-22
-21
-20
-20
-14
-20
46
99
164
229
294
341
276
210
145
79
14
-52
-117
-183
-249
-287
-279
-260
-225
-201
-190
-180
-171
-152
-126
-107
-92
-82
-76
-65
-52
-42
-34
-32
-33
-33
-31
-30
-29
-29
-31
-34
-36
-35
-34
-33
-32
-28
-24
-22
-20
-17
-14
-14
-14
-13
-12
-13
-11
-3
2
3
5
7
13
23
32
39
49
60
70
79
90
101
111
120
129
138
140
141
146
151
141
128
126
123
105
88
83
77
68
57
42
30
29
27
22
16
10
6
5
2
-3
-7
-12
-12
-8
-7
-10
-17
-25
-28
-28
-18
-4
-4
-10
-3
8
10
9
7
5
4
4
-1
-6
-13
-20
-15
-10
-17
-22
-23
-25
-30
-33
-27
-23
-26
-26
-20
-16
-14
-13
-16
-17
-15
-16
-22
-26
-30
-31
-29
-28
-29
-31
-33
-32
-29
-24
-19
-23
-29
-30
-31
-32
-32
-32
-32
-34
-36
-35
-34
-35
-36
-34
-32
-30
-20
9
51
116
181
246
311
376
377
311
246
180
115
49
-16
-82
-148
-213
-239
-251
-229
-196
-186
-181
-163
-142
-124
-107
-100
-92
-73
-54
-52
-50
-44
-38
-36
-34
-32
-30
-31
-32
-29
-26
-27
-27
-23
-20
-19
-18
-18
-18
-18
-16
-12
-11
-13
-12
-8
-2
4
7
9
16
24
30
35
45
55
61
56
82
96
102
108
113
119
126
132
132
132
137
139
133
124
112
102
95
87
79
69
58
49
43
36
29
24
20
14
8
6
7
5
0
-2
-3
-3
-1
0
1
3
5
14
22
21
20
21
22
28
34
28
24
21
18
18
17
12
8
6
4
5
2
-8
-14
-13
-9
-3
-2
-6
-4
3
5
3
-2
-8
-9
-7
-7
-9
-10
-11
-12
-12
-12
-10
-9
-8
-10
-12
-13
-14
-11
-9
-14
-18
-17
-16
-14
-12
-14
-14
-9
-6
-5
-4
-4
1
13
47
97
156
221
286
351
343
305
246
181
115
50
-16
-81
-147
-212
-226
-216
-216
-194
-179
-166
-161
-153
-128
-106
-93
-80
-70
-60
-51
-42
-36
-30
-24
-21
-24
-24
-19
-18
-22
-22
-18
-17
-19
-20
-19
-18
-19
-20
-19
-18
-18
-16
-13
-6
1
-3
-9
0
10
13
16
22
28
36
43
50
58
68
79
92
102
101
106
125
137
140
142
142
145
151
151
145
135
121
112
105
96
87
74
60
48
36
31
27
18
7
6
5
-1
-8
-5
-2
-6
-10
-4
2
-1
-4
-5
-6
-6
-7
-11
-15
-20
-24
-22
-21
-25
-28
-25
-23
-20
-19
-21
-22
-21
-20
-20
-22
-25
-24
-21
-21
-23
-29
-35
-30
-23
-25
-22
-26
-22
-19
-16
-15
-10
25
66
131
196
261
302
281
245
179
114
48
-17
-83
-148
-214
-250
-258
-246
-216
-201
-195
-186
-176
-157
-134
-118
-103
-92
-82
-71
-60
-50
-41
-39
-37
-34
-32
-33
-34
-27
-20
-21
-22
-22
-22
-20
-18
-18
-18
-14
-11
-8
-6
-6
-4
2
9
15
19
22
28
37
43
50
57
65
70
73
87
105
110
113
121
129
131
133
138
144
135
126
117
107
98
89
79
68
56
44
36
29
23
16
9
1
-8
-13
-10
-9
-12
-14
-13
-14
-18
-20
-20
-18
-15
-19
-28
-26
-20
-23
-30
-30
-27
-29
-33
-33
-34
-34
-38
-37
-36
-40
-44
-41
-38
-37
-37
-44
-50
-51
-53
-57
-57
-49
-44
-46
-48
-45
-41
-35
-31
-29
-25
-20
-16
-12
-15
-22
-23
-21
-28
-40
-45
-49
-50
-51
-53
-55
-56
-56
-52
-48
-46
-44
-43
-41
-34
-28
-28
-28
-29
-30
-26
-29
-43
-48
-37
-36
-50
-53
-42
-38
-42
-44
-43
-38
-31
-28
-28
-29
-31
-29
-25
-29
-37
-37
-35
-34
-34
-35
-38
5
50
115
180
245
302
317
317
252
186
121
55
-10
-76
-142
-207
-271
-300
-282
-255
-219
-199
-192
-181
-167
-151
-133
-118
-104
-87
-67
-58
-52
-47
-43
-42
-41
-40
-39
-39
-38
-40
-38
-33
-28
-32
-36
-32
-28
-27
-26
-25
-24
-21
-18
-16
-14
-14
-12
-6
-2
1
3
5
10
17
25
34
42
49
59
71
87
104
113
120
127
133
140
147
151
155
151
146
142
138
127
117
102
89
80
71
64
56
47
40
38
34
25
18
12
8
8
6
2
-1
-3
-3
0
1
-3
-2
1
5
10
15
19
22
25
30
35
31
25
19
12
13
14
12
10
1
-6
-2
2
1
-1
-8
-11
-1
6
6
8
14
16
11
8
8
6
2
-1
-3
-4
-3
-4
-7
-8
-7
-6
-6
-5
-3
-2
-2
-1
1
0
2
-4
-4
-7
-10
-8
-6
-5
-4
-1
2
-3
-3
11
39
100
162
227
292
357
362
296
231
165
100
34
-31
-97
-163
-228
-244
-238
-211
-177
-170
-170
-153
-133
-114
-96
-86
-77
-59
-42
-32
-22
-22
-22
-20
-18
-15
-12
-12
-12
-11
-10
-6
-4
-2
0
0
0
1
2
1
0
0
1
3
5
9
10
11
17
24
29
33
37
41
49
57
70
83
89
96
106
116
119
123
132
140
143
146
147
148
145
140
132
123
113
104
97
90
84
75
62
52
44
39
36
31
26
21
16
14
13
10
7
4
1
8
19
23
27
28
28
36
42
40
38
35
32
25
20
18
16
11
8
6
4
2
-3
-12
-16
-11
-8
-5
-4
-3
-1
1
2
1
-2
-5
-7
-9
-10
-11
-12
-12
-12
-11
-9
-7
-9
-13
-10
-6
-6
-6
-9
-12
-11
-10
-8
-6
-7
-7
-3
0
0
0
-1
-1
2
5
8
30
72
127
192
257
322
369
406
373
308
242
177
111
46
-20
-85
-151
-216
-212
-201
-187
-172
-159
-145
-129
-113
-97
-83
-70
-59
-49
-40
-30
-22
-22
-22
-23
-24
-23
-20
-14
-11
-14
-16
-17
-15
-9
-8
-12
-14
-13
-12
-11
-10
-11
-9
-5
-1
3
4
4
11
4
31
42
41
41
54
67
75
84
96
106
111
116
125
134
140
145
148
149
146
141
132
126
122
115
104
92
77
66
57
52
48
40
30
24
19
18
17
14
11
8
5
7
10
9
8
6
4
5
6
7
8
6
5
13
18
22
24
26
28
30
30
25
23
26
27
25
21
15
11
7
6
5
-2
-11
-10
-5
-4
-4
1
7
8
7
0
-8
0
8
4
0
-2
-4
-6
-8
-9
-10
-12
-14
-17
-20
-20
-19
-16
-14
-14
-14
-15
-13
-7
-6
-12
-13
-11
-8
-5
-1
4
2
-4
38
92
155
220
285
350
292
354
161
95
30
-36
-101
-167
-232
-284
-269
-251
-219
-193
-181
-171
-168
-157
-131
-108
-89
-78
-81
-72
-51
-40
-36
-32
-28
-25
-23
-20
-17
-22
-30
-28
-21
-20
-19
-20
-23
-23
-21
-17
-14
-13
-12
-11
-10
-4
2
3
5
12
18
21
26
34
39
36
40
57
67
71
80
92
103
112
119
125
133
141
144
144
140
134
127
120
107
94
85
77
66
55
49
42
34
26
23
20
17
14
7
2
3
4
5
6
3
0
-1
-2
-2
-2
-4
-4
1
5
7
9
12
17
23
29
34
36
35
32
29
27
25
18
11
10
10
7
10
-3
-8
-6
-4
-5
-6
-7
-7
0
7
13
17
11
7
11
19
33
67
126
188
253
276
258
217
158
95
29
-20
-60
-118
-183
-240
-294
-289
-266
-253
-242
-290
-346
-358
-367
-342
-316
-299
-278
-224
-173
-141
-108
-72
-40
-21
-6
-8
-10
-10
-9
-4
-1
-5
-6
-1
2
3
4
3
1
-2
-1
6
10
13
13
11
13
17
18
18
11
3
12
23
24
24
32
40
53
65
75
87
106
126
147
168
184
200
217
235
256
273
282
292
302
308
311
308
300
289
275
267
261
245
224
205
185
169
153
139
125
105
84
74
65
59
64
43
34
35
36
31
26
26
26
26
26
29
32
30
29
32
35
38
38
33
27
20
16
17
18
18
18
19
20
19
15
10
11
16
18
17
14
11
10
11
12
11
8
6
5
4
6
8
5
2
5
8
8
8
9
10
14
16
17
38
90
147
212
277
342
369
361
320
254
189
123
57
-8
-74
-139
-189
-234
-227
-209
-191
-174
-164
-155
-141
-126
-107
-88
-74
-62
-55
-46
-33
-22
-18
-15
-20
-23
-19
-15
-12
-11
-15
-18
-17
-15
-12
-10
-11
-12
-11
-10
-10
-9
-7
-4
1
5
9
15
22
30
37
44
51
57
52
75
86
96
106
111
117
131
143
150
156
157
158
160
162
161
156
144
132
122
111
98
86
72
61
50
44
40
30
18
14
14
11
7
4
1
2
5
6
7
3
-3
-1
2
3
4
1
-2
1
4
4
4
4
3
-1
-3
1
4
2
0
2
4
6
6
2
-2
-7
-8
-4
-3
-5
-7
-9
-7
-3
-6
-12
-12
-9
-4
1
1
-1
-3
-6
-3
0
-8
-16
-11
-5
7
16
20
23
16
10
12
14
14
12
5
0
-1
-3
-6
-9
-12
-16
-22
-28
-35
-36
-32
-27
-22
