29
16
7
1
-4
-11
-18
-26
-30
-32
-36
-36
-35
-34
-34
-36
-39
-40
-40
-41
-40
-41
-42
-44
-44
-43
-43
-42
-42
-43
-45
-47
-47
-47
-46
-46
-43
-42
-42
-42
-40
-41
-42
-41
-37
-35
-32
-31
-31
-32
-32
-30
-27
-24
-21
-18
-15
-12
-10
-8
-6
-6
-5
-2
0
0
0
0
1
3
4
5
6
6
5
2
0
0
-1
-1
-1
-2
-4
-5
-6
-6
-7
-6
-5
-5
-7
-9
-9
-9
-9
-9
-8
-7
-8
-9
-7
-5
-4
-5
-6
-7
-8
-7
-5
-4
-5
-7
-5
-3
-1
1
2
1
0
2
2
4
4
5
5
7
9
8
7
5
2
2
3
1
-4
-7
-8
-6
-7
-8
-8
-9
-8
-8
-9
-10
-10
-9
-7
-9
-12
-12
-6
3
18
42
69
95
115
131
147
160
169
159
136
104
78
66
58
50
37
22
9
1
-4
-9
-15
-21
-26
-29
-30
-33
-36
-37
-35
-34
-35
-36
-36
-37
-39
-39
-37
-38
-41
-41
-41
-41
-43
-44
-45
-47
-47
-47
-44
-44
-45
-46
-45
-45
-45
-42
-40
-38
-37
-34
-33
-32
-30
-29
-26
-24
-23
-21
-18
-15
-12
-7
-4
-4
-4
0
2
4
4
6
8
9
8
9
10
10
9
10
11
10
8
9
10
8
6
5
6
6
4
4
4
2
0
1
2
1
1
0
0
-1
-1
1
1
3
4
4
2
0
0
2
4
3
4
5
5
5
7
11
12
13
14
16
14
12
12
12
14
15
15
14
13
12
13
15
14
10
6
4
1
0
0
0
0
0
1
2
3
2
0
0
0
0
-2
-3
-4
-1
9
27
52
78
104
125
145
161
177
180
166
134
103
84
71
61
49
38
26
16
9
2
-2
-8
-15
-20
-22
-24
-27
-28
-28
-29
-31
-31
-31
-31
-32
-31
-32
-34
-36
-36
-37
-38
-41
-42
-41
-41
-41
-43
-42
-43
-43
-42
-41
-41
-41
-39
-38
-38
-38
-35
-32
-30
-29
-29
-27
-26
-24
-19
-15
-12
-10
-8
-8
-7
-5
-1
1
3
4
7
8
10
10
13
16
15
12
9
9
9
9
9
9
10
8
8
8
7
5
4
6
3
1
1
2
1
-1
-2
-2
-1
-1
0
0
0
-1
0
2
2
1
3
5
5
3
3
4
4
3
4
8
10
9
9
12
12
11
10
12
13
13
14
16
16
15
15
16
17
14
11
7
3
0
0
1
0
0
-1
0
0
-2
-1
0
2
0
-2
-3
-4
-4
-1
7
18
38
61
89
110
131
152
171
185
177
153
118
92
76
67
57
43
28
17
13
11
8
2
-7
-16
-24
-26
-25
-25
-27
-30
-31
-31
-31
-31
-31
-32
-35
-36
-37
-36
-36
-35
-34
-36
-40
-43
-42
-42
-43
-45
-44
-43
-45
-46
-45
-44
-43
-42
-41
-42
-41
-38
-35
-33
-30
-27
-24
-22
-20
-15
-11
-12
-14
-11
-6
-3
-2
0
2
5
6
6
9
9
8
9
12
12
10
9
9
9
8
8
10
12
8
3
2
1
-1
-3
-2
-1
-2
-3
-2
-2
-3
-2
-1
-1
-1
0
-1
-2
-3
-3
0
1
2
3
4
1
-2
-3
0
1
0
-1
0
2
3
4
8
11
9
6
8
12
10
9
12
16
16
14
13
13
14
12
10
5
0
-2
-1
0
-1
0
0
-2
-3
-3
0
0
0
0
-1
-2
-3
0
7
19
36
57
85
110
130
151
169
185
184
164
133
100
82
70
63
54
42
31
26
25
22
16
5
-3
-11
-14
-15
-16
-18
-20
-21
-21
-20
-19
-20
-21
-22
-20
-23
-28
-31
-30
-29
-30
-30
-29
-28
-29
-31
-34
-36
-36
-37
-38
-36
-35
-36
-38
-38
-38
-38
-35
-32
-32
-34
-32
-30
-27
-26
-25
-23
-19
-14
-12
-12
-13
-13
-10
-6
-2
-1
-2
-2
-1
0
0
1
2
0
-2
-1
0
0
-1
-1
-4
-5
-4
-3
-3
-5
-6
-7
-7
-9
-10
-11
-12
-13
-13
-11
-11
-11
-11
-10
-8
-8
-8
-10
-9
-8
-7
-6
-6
-5
-7
-8
-9
-10
-9
-6
-6
-7
-7
-6
-4
-2
-2
-2
0
1
1
1
2
4
5
4
3
1
1
3
4
0
-3
-8
-11
-13
-13
-11
-10
-10
-12
-14
-13
-12
-10
-10
-10
-11
-14
-18
-16
-8
5
25
47
73
94
112
127
145
158
159
141
112
84
66
58
49
40
27
14
6
-1
-8
-13
-20
-26
-34
-36
-37
-38
-39
-40
-40
-40
-37
-35
-34
-36
-39
-40
-39
-38
-40
-41
-41
-42
-43
-43
-42
-43
-45
-48
-48
-46
-46
-46
-47
-46
-47
-49
-50
-50
-50
-47
-44
-44
-45
-46
-43
-43
-43
-41
-36
-32
-30
-26
-22
-19
-19
-16
-12
-7
-3
2
7
10
11
9
8
8
7
5
4
1
-3
-8
-11
-12
-12
-12
-13
-17
-21
-24
-25
-26
-25
-23
-23
-24
-27
-27
-27
-26
-25
-26
-26
-25
-22
-19
-19
-21
-22
-23
-25
-28
-30
-27
-19
-7
10
35
62
85
101
117
134
145
142
120
90
62
45
32
22
11
-2
-13
-19
-24
-28
-34
-42
-49
-55
-57
-57
-59
-63
-63
-61
-58
-58
-58
-59
-61
-63
-64
-61
-62
-64
-65
-65
-64
-64
-62
-64
-66
-67
-67
-66
-67
-68
-69
-69
-72
-73
-70
-67
-65
-63
-60
-60
-58
-57
-56
-54
-53
-48
-45
-41
-40
-37
-34
-29
-25
-22
-21
-17
-12
-10
-10
-10
-8
-6
-5
-5
-5
-6
-5
-5
-6
-7
-7
-5
-5
-4
-5
-8
-8
-7
-4
-3
-5
-6
-5
-2
-3
-3
-2
-4
-7
-7
-4
-3
-4
-3
-2
-4
-5
-4
-3
-3
-6
-7
-6
-5
-3
-2
-3
-5
-6
-5
-3
-4
-6
-5
-3
-4
-7
-8
-5
-4
-7
-9
-7
-6
-6
-6
-3
0
2
3
5
5
4
5
7
9
9
13
15
14
12
11
10
7
7
4
1
-2
-6
-9
-9
-10
-11
-11
-10
-11
-12
-13
-12
-13
-15
-16
-16
-16
-14
-5
11
34
63
92
113
130
142
161
172
167
144
110
88
73
64
54
42
26
13
6
1
-4
-10
-17
-21
-25
-27
-27
-27
-28
-29
-29
-28
-26
-25
-25
-27
-31
-35
-35
-34
-34
-35
-35
-34
-35
-36
-35
-35
-36
-38
-37
-38
-39
-39
-39
-38
-40
-40
-39
-37
-36
-37
-35
-34
-33
-33
-32
-30
-28
-26
-22
-18
-18
-17
-15
-12
-10
-9
-6
-3
0
2
4
4
4
4
7
10
9
5
4
6
5
4
4
5
3
3
2
2
1
2
1
-2
-4
-4
-4
-6
-7
-7
-6
-7
-8
-9
-9
-9
-9
-9
-8
-8
-8
-7
-7
-7
-7
-5
-4
-2
-3
-4
-2
1
3
3
5
7
9
11
14
13
11
12
16
18
18
19
21
22
20
18
20
22
21
16
13
11
10
10
8
4
1
3
5
5
4
4
6
7
6
4
3
0
1
8
24
46
72
101
125
147
164
183
196
193
167
132
104
86
76
64
50
34
21
13
9
5
-2
-14
-22
-25
-27
-31
-33
-33
-34
-36
-38
-35
-36
-36
-39
-41
-42
-41
-38
-39
-39
-40
-41
-41
-41
-40
-40
-41
-43
-43
-43
-43
-43
-43
-44
-45
-43
-42
-40
-38
-37
-38
-38
-36
-35
-33
-31
-27
-24
-23
-20
-15
-12
-10
-8
-5
-3
-2
0
2
2
3
8
15
17
20
23
26
26
25
23
20
17
14
11
6
0
-4
-6
-5
-8
-11
-11
-13
-15
-15
-12
-12
-14
-16
-13
-11
-12
-13
-13
-12
-11
-10
-8
-8
-9
-10
-11
-13
-15
-13
-6
7
25
50
78
104
127
146
163
173
163
140
104
76
59
47
36
23
9
-1
-5
-7
-11
-18
-28
-38
-45
-45
-42
-44
-51
-54
-51
-50
-50
-50
-51
-52
-54
-54
-55
-56
-55
-54
-52
-56
-59
-61
-63
-65
-65
-64
-65
-65
-65
-64
-63
-62
-61
-62
-62
-62
-59
-59
-56
-53
-50
-46
-44
-43
-40
-36
-33
-33
-32
-28
-24
-23
-22
-18
-15
-14
-13
-11
-7
-6
-8
-10
-9
-7
-6
-3
-1
-1
-4
-5
-4
-3
-5
-5
-4
-3
-2
0
0
-2
-2
0
0
0
1
1
0
0
-1
0
2
1
0
0
2
2
0
0
0
1
0
0
1
1
1
1
3
1
-1
-3
-3
-1
-2
-1
0
0
-2
-2
-2
-3
-4
-5
-4
-3
-3
-1
-1
-4
-6
-4
-2
-1
-1
1
3
3
4
7
9
8
6
6
7
7
8
9
10
8
6
5
5
4
0
-5
-6
-8
-12
-16
-16
-15
-14
-15
-13
-12
-12
-12
-12
-15
-17
-16
-14
-13
-6
10
36
64
92
112
133
152
172
180
165
136
97
73
61
53
43
33
20
11
8
5
2
-5
-17
-26
-30
-29
-30
-32
-32
-32
-33
-35
-36
-35
-35
-35
-34
-33
-34
-38
-40
-39
-40
-39
-38
-39
-41
-42
-42
-43
-43
-44
-44
-44
-44
-44
-44
-44
-45
-45
-44
-44
-42
-42
-40
-39
-37
-36
-33
-31
-29
-27
-24
-20
-21
-20
-18
-16
-14
-11
-8
-8
-10
-10
-9
-8
-7
-5
-4
-6
-7
-8
-8
-7
-10
-12
-12
-10
-11
-14
-16
-18
-20
-21
-21
-22
-25
-27
-27
-27
-29
-30
-28
-27
-28
-28
-26
-25
-26
-26
-24
-22
-22
-23
-24
-21
-20
-21
-20
-21
-23
-21
-17
-15
-16
-16
-12
-8
-6
-4
-2
-1
-4
-4
0
3
4
5
8
8
6
3
2
1
0
0
-3
-6
-9
-10
-11
-11
-12
-13
-14
-15
-16
-14
-12
-12
-14
-17
-19
-19
-17
-12
-2
13
33
57
84
105
119
131
148
156
146
116
86
65
54
45
35
23
8
-1
-5
-11
-20
-32
-41
-44
-48
-51
-55
-56
-56
-56
-57
-58
-59
-59
-56
-57
-60
-64
-64
-61
-60
-59
-61
-60
-61
-62
-63
-64
-62
-62
-62
-61
-58
-61
-64
-64
-62
-60
-62
-63
-63
-61
-60
-58
-57
-57
-55
-53
-52
-52
-49
-45
-43
-41
-36
-32
-31
-31
-29
-25
-24
-25
-25
-22
-20
-20
-19
-15
-12
-11
-9
-7
-6
-9
-12
-11
-10
-11
-17
-25
-29
-30
-28
-29
-32
-36
-40
-39
-39
-39
-38
-37
-39
-39
-38
-37
-35
-35
-36
-40
-44
-45
-43
-38
-38
-42
-46
-44
-41
-37
-25
-2
24
50
74
94
110
126
137
134
113
76
47
27
17
9
-1
-16
-28
-33
-39
-46
-52
-58
-64
-68
-70
-70
-72
-72
-73
-74
-75
-74
-72
-76
-80
-81
-76
-74
-77
-81
-82
-82
-83
-81
-81
-81
-83
-84
-84
-86
-86
-88
-89
-91
-90
-87
-85
-83
-82
-79
-78
-76
-78
-78
-75
-72
-68
-64
-62
-61
-58
-54
-51
-49
-48
-46
-44
-42
-43
-42
-39
-35
-34
-34
-33
-34
-36
-35
-32
-30
-30
-29
-29
-31
-32
-30
-27
-28
-31
-30
-26
-25
-27
-28
-26
-26
-26
-25
-23
-25
-30
-30
-26
-24
-25
-27
-27
-25
-24
-23
-23
-26
-28
-27
-25
-26
-27
-25
-23
-22
-24
-27
-28
-29
-28
-27
-26
-28
-30
-31
-30
-28
-29
-28
-29
-30
-31
-28
-24
-24
-28
-30
-30
-31
-33
-31
-26
-22
-21
-21
-21
-19
-18
-17
-15
-15
-17
-15
-12
-13
-15
-16
-19
-22
-21
-23
-27
-31
-36
-37
-35
-33
-34
-35
-35
-37
-37
-36
-35
-37
-40
-40
-39
-37
-35
-27
-13
7
33
61
87
107
117
131
143
141
123
92
68
50
39
31
20
5
-9
-13
-15
-20
-29
-38
-42
-47
-51
-50
-49
-49
-51
-53
-52
-51
-51
-52
-54
-56
-55
-53
-52
-55
-58
-58
-58
-58
-60
-59
-59
-60
-61
-62
-63
-62
-61
-62
-64
-66
-66
-67
-67
-64
-62
-60
-61
-61
-60
-57
-54
-52
-51
-51
-48
-45
-42
-40
-38
-35
-33
-32
-31
-29
-26
-23
-23
-23
-21
-19
-20
-21
-21
-22
-23
-24
-23
-21
-22
-24
-26
-25
-26
-27
-27
-27
-29
-32
-36
-38
-38
-38
-36
-36
-36
-36
-37
-38
-37
-34
-34
-33
-32
-30
-29
-30
-31
-30
-30
-29
-28
-26
-24
-24
-24
-24
-23
-21
-20
-17
-13
-10
-7
-7
-5
-4
-5
-4
-2
0
1
4
5
4
0
-3
-2
0
-1
-4
-8
-12
-14
-13
-11
-12
-13
-14
-14
-14
-13
-12
-12
-12
-12
-14
-16
-15
-5
11
34
55
79
103
123
140
154
166
160
137
102
76
61
51
41
28
14
0
-7
-11
-14
-19
-28
-37
-43
-47
-48
-49
-49
-49
-49
-50
-50
-50
-50
-49
-48
-47
-51
-53
-52
-52
-51
-49
-46
-50
-53
-55
-54
-52
-54
-55
-55
-54
-55
-53
-52
-52
-51
-51
-49
-48
-47
-45
-41
-39
-38
-38
-37
-35
-34
-31
-27
-23
-19
-17
-16
-16
-14
-9
-6
-3
-1
2
5
9
14
17
18
17
12
9
7
6
3
-1
-6
-11
-13
-13
-15
-19
-23
-23
-22
-22
-22
-21
-21
-23
-24
-22
-19
-19
-19
-20
-20
-19
-19
-18
-17
-17
-19
-22
-26
-28
-25
-18
-4
15
39
66
90
110
131
149
161
152
129
95
65
49
37
30
19
3
-10
-15
-18
-22
-29
-35
-41
-46
-51
-54
-54
-56
-58
-58
-56
-56
-57
-59
-60
-62
-62
-60
-60
-61
-65
-67
-68
-67
-67
-70
-71
-71
-69
-68
-67
-67
-70
-71
-71
-68
-67
-66
-68
-68
-65
-61
-57
-55
-53
-53
-52
-51
-46
-41
-38
-36
-34
-30
-27
-25
-25
-23
-21
-19
-17
-16
-16
-16
-16
-14
-13
-13
-13
-13
-13
-14
-13
-11
-12
-13
-12
-10
-10
-9
-8
-8
-9
-10
-10
-8
-9
-9
-9
-5
-5
-5
-7
-6
-7
-9
-8
-7
-6
-8
-8
-7
-7
-7
-8
-6
-5
-7
-8
-8
-8
-8
-9
-10
-10
-11
-10
-8
-6
-8
-11
-11
-10
-10
-10
-11
-12
-14
-14
-12
-10
-9
-12
-14
-13
-11
-8
-3
-2
-3
-4
-3
-3
-3
-3
-1
-1
0
1
0
-1
-3
-3
-1
-6
-14
-21
-22
-23
-25
-25
-24
-24
-26
-26
-27
-27
-26
-26
-27
-29
-29
-26
-14
6
31
56
82
103
124
142
155
159
139
110
78
58
46
35
26
13
-1
-9
-12
-17
-23
-30
-40
-49
-54
-56
-54
-54
-55
-58
-58
-59
-61
-62
-60
-58
-60
-64
-68
-68
-67
-66
-65
-67
-68
-68
-68
-70
-71
-71
-70
-71
-75
-77
-76
-74
-74
-74
-72
-72
-72
-72
-70
-69
-68
-66
-63
-60
-59
-55
-50
-48
-48
-45
-38
-34
-34
-33
-29
-25
-24
-24
-23
-22
-22
-21
-19
-17
-16
-17
-18
-19
-20
-18
-17
-19
-22
-22
-22
-21
-23
-27
-30
-31
-31
-30
-31
-33
-35
-36
-36
-36
-38
-39
-38
-36
-36
-36
-35
-34
-35
-35
-33
-31
-32
-32
-32
-33
-32
-30
-28
-28
-29
-31
-31
-29
-28
-27
-26
-25
-24
-21
-18
-17
-15
-12
-10
-12
-12
-9
-7
-7
-7
-7
-8
-10
-11
-10
-7
-8
-13
-20
-21
-21
-20
-21
-21
-23
-24
-24
-22
-20
-20
-22
-23
-24
-26
-25
-19
-12
0
20
50
78
101
120
140
157
162
147
118
85
60
46
35
26
13
0
-9
-14
-20
-27
-36
-45
-52
-57
-61
-64
-64
-64
-63
-62
-62
-65
-66
-65
-68
-70
-71
-70
-72
-72
-71
-70
-70
-74
-76
-78
-77
-78
-79
-80
-82
-81
-82
-81
-82
-81
-80
-80
-80
-80
-77
-76
-73
-71
-69
-66
-64
-62
-57
-51
-50
-50
-49
-44
-40
-37
-37
-36
-34
-33
-31
-30
-28
-28
-28
-28
-30
-30
-28
-26
-27
-30
-31
-31
-31
-32
-33
-33
-33
-36
-37
-36
-38
-39
-39
-36
-36
-36
-34
-35
-37
-40
-40
-41
-40
-39
-38
-37
-40
-41
-40
-39
-41
-41
-40
-40
-41
-44
-43
-41
-41
-41
-41
-40
-42
-43
-42
-37
-34
-31
-29
-29
-30
-32
-31
-28
-25
-25
-23
-20
-18
-20
-20
-20
-20
-21
-22
-25
-31
-34
-34
-34
-33
-33
-32
-32
-34
-36
-36
-35
-34
-34
-35
-37
-38
-36
-32
-24
-12
8
34
60
82
94
111
125
135
124
96
67
42
29
20
14
4
-9
-21
-28
-33
-38
-45
-50
-57
-62
-67
-67
-67
-69
-68
-70
-72
-73
-70
-69
-71
-73
-74
-74
-75
-75
-76
-75
-76
-79
-79
-77
-76
-80
-83
-83
-84
-84
-85
-84
-83
-83
-82
-77
-77
-80
-83
-81
-77
-75
-72
-72
-71
-68
-62
-57
-55
-53
-51
-48
-47
-47
-44
-40
-37
-37
-35
-33
-32
-32
-31
-31
-33
-35
-34
-30
-29
-31
-34
-34
-34
-35
-35
-36
-37
-40
-39
-37
-37
-38
-41
-42
-42
-41
-39
-38
-38
-38
-37
-37
-39
-41
-42
-41
-41
-42
-43
-44
-43
-41
-42
-43
-43
-42
-43
-45
-45
-45
-45
-46
-44
-43
-38
-35
-33
-34
-33
-29
-27
-27
-28
-27
-23
-20
-17
-17
-19
-22
-22
-21
-24
-26
-27
-27
-31
-34
-36
-37
-36
-35
-34
-33
-30
-30
-31
-31
-32
-33
-36
-36
-34
-27
-13
9
35
62
84
103
116
130
142
145
130
99
70
50
40
29
16
3
-9
-17
-22
-28
-35
-44
-52
-55
-57
-58
-58
-58
-60
-62
-64
-63
-64
-66
-66
-66
-66
-68
-67
-67
-66
-68
-72
-71
-71
-71
-72
-71
-70
-73
-75
-76
-73
-74
-75
-75
-73
-73
-71
-67
-67
-68
-70
-65
-62
-60
-58
-54
-49
-48
-46
-42
-37
-33
-30
-28
-27
-28
-27
-23
-18
-17
-18
-18
-18
-16
-13
-12
-13
-15
-16
-17
-18
-21
-22
-20
-17
-17
-19
-19
-19
-20
-22
-22
-21
-21
-21
-21
-22
-23
-23
-22
-22
-23
-25
-22
-18
-18
-20
-21
-19
-20
-21
-22
-22
-23
-25
-23
-23
-23
-23
-22
-22
-22
-21
-18
-15
-12
-10
-7
-7
-6
-5
-3
-1
1
3
5
4
2
0
1
3
3
0
-5
-8
-10
-9
-8
-9
-12
-13
-12
-10
-9
-11
-12
-12
-12
-12
-12
-12
-9
-1
10
30
54
83
107
124
139
152
166
163
144
113
86
71
61
53
41
27
14
6
3
0
-5
-13
-17
-20
-23
-25
-26
-28
-30
-29
-26
-27
-29
-31
-30
-30
-32
-33
-32
-31
-33
-34
-35
-36
-38
-39
-39
-40
-40
-39
-39
-42
-46
-46
-45
-44
-45
-44
-43
-41
-41
-39
-38
-39
-39
-35
-31
-30
-30
-25
-20
-18
-20
-18
-14
-11
-10
-8
-6
-4
-3
-1
0
0
0
2
4
3
1
0
0
0
0
0
0
0
-2
-4
-4
-4
-3
-3
-2
-3
-3
-3
-3
-4
-3
-2
-1
-2
-4
-2
0
0
0
0
1
1
1
2
3
0
-2
-3
-1
0
0
-1
0
2
3
6
7
7
7
10
14
13
13
16
19
21
22
24
22
20
18
20
21
23
21
15
11
7
7
9
11
8
5
6
9
11
9
9
10
12
11
8
6
6
10
22
43
68
97
124
148
165
178
194
199
189
157
126
102
88
80
69
55
38
28
23
17
10
2
-2
-6
-10
-13
-14
-13
-14
-17
-18
-14
-12
-13
-14
-14
-16
-17
-16
-14
-15
-18
-19
-19
-20
-20
-20
-19
-20
-22
-22
-20
-18
-22
-24
-22
-22
-21
-20
-18
-17
-17
-15
-12
-8
-8
-9
-8
-6
-4
-1
3
6
9
13
18
20
23
28
36
43
48
50
53
54
53
50
47
46
43
40
39
38
32
26
24
24
22
19
18
17
17
18
19
20
17
15
14
16
17
18
19
20
22
22
22
23
24
24
24
24
23
25
24
21
20
26
38
56
78
104
133
152
171
187
206
208
189
159
127
108
96
88
77
62
47
37
34
30
26
19
13
8
4
2
2
3
1
1
1
0
-2
-4
-4
-4
-6
-10
-12
-12
-12
-12
-12
-13
-16
-20
-23
-26
-27
-27
-26
-27
-29
-30
-31
-33
-35
-34
-33
-31
-31
-32
-29
-27
-26
-24
-21
-19
-16
-15
-14
-12
-10
-6
-2
0
2
3
4
4
3
4
6
7
8
7
8
9
9
8
8
8
8
8
9
9
9
10
11
10
8
8
11
11
11
11
14
16
16
17
17
19
18
20
23
24
21
20
23
25
27
26
23
20
20
25
27
26
23
24
25
26
28
29
30
27
25
26
29
29
28
28
27
25
25
27
27
27
27
28
30
27
24
24
29
33
34
36
38
39
39
39
39
40
39
39
39
38
38
37
40
39
35
27
24
24
22
19
17
18
19
20
20
20
19
16
15
13
13
17
26
41
60
88
114
140
159
179
200
213
209
184
153
125
108
94
85
75
58
45
39
36
32
24
15
5
-1
-4
-4
-4
-4
-5
-6
-6
-7
-6
-4
-5
-6
-7
-8
-10
-13
-12
-10
-9
-11
-13
-14
-13
-15
-16
-14
-14
-16
-17
-17
-17
-17
-15
-14
-14
-16
-17
-13
-11
-11
-12
-10
-7
-6
-3
1
4
6
8
12
14
19
23
27
30
33
34
37
40
40
40
41
43
44
45
46
44
45
46
46
44
43
43
43
43
42
42
39
36
33
34
35
33
31
30
31
30
28
27
27
27
26
27
27
28
28
29
29
30
31
32
36
39
39
35
29
19
4
-16
-38
-58
-73
-86
-95
-106
-119
-132
-146
-157
-171
-179
-187
-189
-190
-197
-207
-211
-201
-187
-165
-145
-130
-121
-110
-95
-77
-58
-40
-25
-13
0
8
15
19
27
37
48
57
65
74
79
83
85
90
93
98
103
109
113
113
117
120
127
131
136
141
143
145
145
150
154
162
166
169
169
168
170
170
174
174
176
173
172
173
172
172
167
165
162
161
160
156
152
146
145
140
136
131
127
124
119
114
106
103
99
99
96
92
88
84
84
80
79
76
76
73
69
68
69
70
65
62
61
60
58
58
60
58
56
54
53
52
51
51
52
53
50
50
49
48
46
46
49
49
49
48
50
46
42
41
44
45
43
44
46
44
39
37
39
42
44
42
39
36
36
39
42
43
40
38
38
38
36
36
40
39
35
32
32
32
32
33
31
29
27
29
29
29
27
28
30
31
31
29
30
31
31
29
29
31
33
37
38
40
40
42
44
43
40
40
45
48
49
48
46
44
42
42
39
36
32
31
32
30
29
30
32
31
29
26
25
26
28
28
27
31
39
58
83
107
131
147
164
178
196
203
192
166
138
118
105
96
83
68
50
37
31
25
20
11
2
-2
-5
-10
-12
-9
-6
-9
-11
-9
-7
-9
-14
-15
-11
-11
-14
-16
-14
-12
-13
-16
-17
-16
-15
-14
-13
-14
-16
-18
-17
-17
-17
-18
-19
-18
-18
-17
-15
-15
-14
-15
-17
-19
-20
-18
-14
-12
-10
-9
-4
0
1
2
7
13
16
18
21
25
31
39
46
52
54
52
54
54
55
53
54
55
50
44
41
40
39
37
35
31
29
28
29
27
25
21
19
18
17
17
17
18
17
15
16
17
16
15
14
13
14
12
9
9
12
18
32
56
84
111
132
151
167
181
184
169
143
111
92
79
70
59
45
29
15
8
1
-5
-13
-20
-24
-27
-30
-31
-32
-31
-32
-35
-36
-37
-38
-40
-39
-38
-38
-41
-43
-46
-47
-47
-46
-45
-46
-46
-47
-48
-52
-53
-52
-53
-53
-54
-51
-48
-48
-49
-49
-45
-42
-40
-39
-39
-39
-36
-31
-28
-26
-24
-18
-14
-13
-14
-12
-9
-7
-7
-6
-5
-5
-4
-2
1
4
5
5
4
3
2
5
7
8
7
7
10
10
8
5
8
11
11
12
13
14
13
12
12
13
14
17
18
16
15
16
17
18
19
18
16
16
15
14
15
17
19
21
20
17
15
14
14
13
13
13
15
16
14
14
16
19
19
18
16
14
10
9
14
18
19
18
19
15
10
9
13
20
24
28
27
25
24
25
27
28
27
25
28
31
33
34
34
33
28
27
25
21
15
11
12
12
11
8
8
10
13
15
14
11
8
11
11
10
11
18
31
49
70
95
121
140
160
178
196
194
172
143
112
98
88
83
70
55
42
35
30
23
20
16
11
5
1
1
0
-1
-6
-6
-5
-3
-2
-3
-5
-7
-5
-2
-3
-6
-7
-7
-8
-11
-13
-11
-9
-11
-13
-13
-12
-12
-12
-13
-14
-15
-16
-13
-12
-11
-10
-7
-8
-11
-13
-10
-6
-2
-1
-3
-4
-1
2
7
11
15
17
19
20
22
24
24
23
23
24
26
24
20
21
25
26
24
23
26
27
24
20
22
22
19
17
16
15
13
13
14
13
9
7
6
3
2
6
9
8
6
6
5
5
6
8
10
12
12
12
13
13
13
14
17
18
18
20
20
20
19
21
23
25
27
30
34
35
33
33
37
39
40
41
44
45
43
41
40
41
41
40
37
34
28
22
22
23
24
24
25
25
24
23
23
26
27
25
19
16
18
24
38
53
76
102
128
150
167
187
202
204
180
144
113
99
90
80
69
54
40
33
32
29
19
7
0
-5
-10
-16
-18
-18
-16
-15
-15
-15
-17
-18
-17
-16
-21
-23
-20
-19
-21
-22
-21
-19
-20
-23
-25
-27
-28
-26
-24
-21
-23
-27
-27
-24
-25
-30
-33
-31
-28
-26
-23
-20
-19
-18
-15
-13
-11
-8
-6
-5
-5
-2
1
5
7
10
12
12
14
19
26
32
37
39
39
39
33
30
29
30
27
21
15
11
10
8
4
0
-1
-1
0
0
-4
-5
-2
-1
-1
-2
0
0
-1
-1
0
0
-1
0
0
1
1
0
0
-3
-4
-1
0
5
23
49
78
106
130
149
168
181
179
156
124
94
72
63
55
47
34
24
19
12
3
-4
-10
-16
-20
-26
-31
-34
-35
-36
-35
-37
-38
-38
-36
-37
-37
-36
-35
-36
-40
-43
-45
-44
-44
-44
-40
-40
-44
-49
-49
-47
-46
-47
-47
-46
-47
-45
-44
-42
-42
-40
-37
-37
-36
-34
-29
-27
-27
-26
-24
-23
-23
-19
-14
-11
-9
-8
-6
-5
-5
-5
-3
-1
-1
0
2
0
0
1
2
1
1
4
4
5
5
4
1
0
0
1
2
2
1
2
4
4
5
9
9
5
0
1
3
5
5
4
6
6
5
5
7
4
0
2
6
6
4
3
5
5
3
1
0
0
0
1
2
0
-1
-1
0
0
1
0
-1
-3
-3
0
1
1
-1
-2
-2
-2
0
2
5
6
7
12
13
11
8
10
11
10
10
9
9
6
4
1
-3
-8
-10
-11
-12
-14
-15
-15
-13
-12
-12
-12
-12
-14
-15
-14
-11
-2
14
39
67
92
110
131
148
168
176
165
137
102
79
64
54
44
34
21
10
3
-3
-9
-15
-22
-29
-32
-32
-33
-34
-34
-31
-30
-30
-32
-36
-39
-39
-36
-34
-35
-38
-40
-39
-38
-38
-37
-38
-42
-46
-44
-42
-41
-43
-43
-42
-45
-47
-47
-46
-47
-49
-47
-45
-44
-45
-43
-41
-38
-37
-36
-36
-38
-37
-32
-28
-27
-25
-20
-16
-15
-15
-13
-11
-9
-9
-8
-5
-6
-7
-5
-3
-5
-6
-7
-8
-11
-12
-10
-10
-11
-13
-14
-15
-16
-17
-16
-16
-17
-18
-18
-18
-21
-25
-27
-26
-23
-23
-24
-24
-24
-25
-27
-26
-22
-19
-18
-19
-22
-24
-23
-22
-20
-17
-14
-14
-14
-13
-13
-13
-12
-11
-10
-10
-10
-7
-3
0
0
-2
-2
0
2
0
1
5
7
7
6
8
9
8
4
2
0
-1
-6
-9
-10
-9
-8
-6
-6
-7
-7
-8
-10
-13
-14
-10
-5
3
19
41
68
95
120
137
155
169
179
170
144
111
85
66
52
44
34
20
6
-2
-8
-14
-22
-30
-37
-38
-40
-39
-40
-41
-42
-45
-46
-45
-42
-41
-40
-40
-42
-45
-46
-45
-47
-49
-49
-48
-47
-47
-46
-45
-46
-49
-48
-45
-46
-51
-54
-53
-52
-49
-48
-48
-49
-48
-46
-43
-41
-41
-38
-35
-33
-30
-29
-30
-31
-29
-23
-17
-13
-12
-13
-9
-4
0
2
7
13
15
14
13
12
9
6
5
4
0
-7
-11
-10
-11
-17
-22
-23
-24
-25
-25
-25
-26
-26
-24
-25
-27
-28
-27
-24
-23
-23
-22
-21
-22
-25
-25
-26
-27
-29
-30
-31
-30
-25
-15
2
24
53
84
109
125
140
153
156
141
113
80
60
45
35
26
13
-1
-11
-15
-17
-22
-28
-34
-42
-48
-51
-51
-52
-52
-53
-52
-51
-52
-53
-52
-53
-58
-58
-57
-58
-59
-60
-58
-58
-57
-59
-59
-58
-57
-59
-62
-61
-61
-59
-58
-58
-60
-60
-57
-56
-55
-55
-53
-50
-48
-45
-43
-40
-39
-37
-35
-32
-30
-28
-24
-20
-18
-18
-17
-16
-17
-17
-14
-11
-11
-12
-10
-7
-7
-9
-9
-7
-7
-9
-8
-6
-7
-8
-7
-7
-8
-10
-8
-5
-6
-8
-11
-8
-4
-4
-6
-6
-5
-6
-6
-7
-8
-8
-6
-5
-5
-6
-5
-4
-5
-7
-7
-5
-4
-5
-5
-4
-6
-8
-8
-7
-8
-7
-7
-9
-12
-13
-11
-8
-9
-11
-12
-11
-13
-14
-13
-9
-7
-7
-8
-5
-3
-3
-3
0
1
2
1
1
0
-2
-2
-1
0
0
-1
-5
-10
-15
-18
-18
-19
-22
-23
-23
-22
-24
-24
-21
-21
-24
-29
-28
-26
-22
-12
7
34
61
83
107
125
143
159
162
149
116
87
67
54
43
31
19
4
-5
-9
-12
-18
-27
-35
-38
-39
-41
-44
-44
-43
-42
-42
-43
-44
-44
-42
-40
-41
-44
-48
-49
-49
-50
-50
-49
-49
-51
-51
-48
-48
-51
-53
-51
-50
-52
-56
-58
-58
-55
-54
-54
-55
-56
-56
-54
-52
-52
-49
-47
-45
-45
-41
-38
-36
-34
-33
-31
-30
-26
-23
-22
-22
-21
-21
-19
-17
-17
-17
-16
-16
-16
-17
-16
-14
-16
-18
-17
-15
-16
-18
-17
-16
-18
-22
-24
-25
-27
-28
-26
-24
-26
-31
-31
-30
-31
-32
-32
-34
-36
-35
-32
-29
-30
-31
-31
-29
-28
-29
-29
-29
-28
-27
-26
-26
-25
-24
-22
-23
-24
-22
-17
-12
-11
-11
-7
-2
-2
-6
-8
-4
0
0
0
0
-2
-2
0
1
-1
-7
-14
-17
-17
-16
-16
-16
-16
-14
-13
-12
-13
-16
-15
-15
-17
-19
-20
-15
-8
4
26
53
81
103
126
143
160
169
163
135
101
73
56
45
33
19
3
-7
-12
-18
-22
-27
-36
-45
-50
-50
-53
-54
-56
-59
-57
-55
-52
-53
-54
-54
-54
-55
-58
-59
-59
-59
-59
-58
-57
-59
-60
-60
-58
-59
-61
-61
-60
-60
-62
-61
-60
-60
-61
-57
-54
-54
-54
-52
-49
-48
-47
-45
-42
-41
-39
-36
-33
-31
-30
-26
-23
-20
-18
-16
-15
-14
-12
-9
-6
-2
2
6
8
7
4
1
1
0
-3
-8
-13
-19
-23
-24
-24
-28
-30
-30
-30
-31
-31
-30
-33
-36
-37
-33
-29
-28
-29
-28
-28
-32
-33
-31
-29
-29
-32
-34
-36
-36
-32
-22
-7
12
38
65
87
107
125
140
144
130
104
71
50
35
25
15
4
-9
-19
-23
-24
-28
-37
-47
-54
-57
-59
-60
-62
-61
-61
-59
-59
-60
-61
-62
-60
-62
-64
-66
-67
-68
-69
-68
-67
-65
-66
-67
-70
-71
-71
-72
-71
-72
-71
-73
-73
-73
-73
-71
-70
-67
-66
-63
-62
-62
-61
-59
-54
-52
-50
-48
-42
-39
-38
-37
-35
-33
-31
-28
-26
-28
-29
-29
-27
-25
-24
-22
-20
-20
-22
-23
-22
-22
-22
-21
-20
-21
-21
-21
-23
-25
-24
-21
-19
-21
-21
-23
-22
-22
-20
-19
-19
-21
-21
-17
-14
-15
-18
-19
-16
-16
-17
-18
-18
-19
-19
-16
-15
-17
-19
-18
-15
-16
-20
-20
-17
-15
-16
-18
-18
-18
-18
-19
-21
-22
-22
-20
-19
-20
-19
-19
-20
-21
-21
-18
-16
-14
-12
-10
-8
-9
-10
-9
-8
-7
-6
-2
-2
-5
-6
-4
-5
-8
-11
-15
-17
-21
-24
-25
-26
-26
-28
-28
-28
-29
-30
-31
-29
-30
-31
-32
-30
-25
-14
4
31
56
81
103
122
144
157
161
141
107
76
55
46
36
26
9
-5
-12
-14
-16
-22
-31
-40
-45
-46
-46
-47
-47
-48
-49
-49
-47
-45
-44
-45
-46
-49
-52
-53
-52
-51
-53
-55
-56
-55
-56
-56
-54
-55
-58
-59
-58
-59
-61
-63
-63
-62
-62
-60
-60
-59
-60
-58
-56
-56
-56
-55
-49
-46
-48
-49
-46
-42
-41
-40
-37
-32
-31
-31
-28
-24
-24
-27
-26
-24
-24
-25
-24
-23
-23
-24
-25
-25
-25
-26
-26
-28
-31
-31
-30
-31
-32
-33
-34
-36
-39
-40
-39
-39
-41
-41
-39
-38
-42
-44
-43
-43
-43
-41
-38
-39
-40
-39
-37
-35
-34
-34
-34
-35
-35
-34
-31
-29
-29
-28
-26
-26
-25
-23
-19
-15
-15
-16
-17
-14
-13
-12
-9
-7
-6
-7
-9
-10
-10
-10
-13
-17
-21
-21
-21
-22
-24
-25
-25
-24
-22
-22
-23
-25
-26
-25
-24
-25
-24
-18
-11
0
16
43
68
90
107
129
146
152
139
113
83
57
42
32
23
12
0
-7
-15
-21
-27
-36
-43
-49
-51
-53
-54
-56
-59
-59
-59
-60
-63
-63
-61
-61
-60
-59
-57
-59
-61
-62
-60
-59
-61
-61
-62
-63
-66
-65
-65
-64
-63
-64
-64
-65
-64
-66
-66
-67
-66
-62
-59
-58
-60
-59
-58
-57
-54
-51
-47
-45
-41
-39
-36
-34
-31
-29
-28
-27
-26
-25
-23
-21
-16
-9
-5
-4
-3
-1
0
-3
-8
-12
-14
-16
-19
-24
-29
-30
-32
-34
-36
-39
-42
-41
-40
-41
-42
-41
-39
-38
-39
-39
-39
-38
-39
-37
-35
-35
-37
-39
-39
-42
-46
-47
-44
-35
-22
-1
23
50
73
91
110
128
137
131
104
75
47
30
18
9
-1
-15
-28
-34
-38
-42
-47
-55
-64
-68
-67
-69
-72
-75
-76
-75
-76
-75
-75
-74
-75
-77
-77
-76
-77
-80
-81
-80
-79
-78
-77
-80
-83
-84
-85
-85
-88
-86
-85
-83
-85
-87
-85
-84
-81
-80
-77
-74
-72
-71
-71
-67
-65
-63
-63
-60
-57
-53
-47
-43
-42
-43
-43
-41
-38
-37
-36
-35
-34
-32
-30
-27
-27
-28
-29
-30
-30
-30
-30
-32
-35
-35
-31
-29
-30
-31
-29
-27
-28
-29
-27
-27
-29
-32
-31
-29
-27
-27
-26
-26
-29
-30
-28
-27
-28
-28
-26
-22
-22
-25
-27
-30
-30
-28
-26
-25
-26
-27
-28
-29
-29
-28
-28
-26
-27
-29
-28
-28
-28
-30
-29
-29
-30
-30
-28
-27
-29
-31
-31
-30
-30
-30
-26
-21
-21
-26
-28
-25
-21
-19
-18
-19
-20
-20
-19
-19
-19
-18
-18
-19
-22
-28
-32
-35
-35
-36
-36
-35
-36
-37
-38
-38
-40
-42
-40
-39
-42
-44
-42
-34
-22
-3
23
51
77
94
116
136
152
150
123
89
57
39
30
22
13
-1
-14
-19
-23
-26
-32
-39
-46
-51
-52
-53
-54
-56
-55
-54
-52
-53
-56
-57
-56
-54
-56
-60
-63
-62
-60
-59
-60
-61
-62
-62
-60
-61
-64
-66
-66
-68
-70
-69
-69
-69
-70
-68
-67
-68
-67
-65
-63
-64
-63
-63
-64
-64
-63
-59
-59
-59
-56
-50
-46
-46
-46
-45
-42
-41
-37
-36
-35
-35
-34
-32
-33
-34
-33
-30
-32
-36
-38
-37
-35
-34
-34
-36
-38
-40
-41
-39
-39
-42
-46
-48
-48
-49
-50
-49
-48
-50
-51
-50
-50
-51
-49
-47
-46
-46
-48
-48
-48
-49
-48
-45
-43
-42
-41
-43
-45
-46
-43
-41
-40
-40
-40
-38
-34
-29
-30
-32
-33
-32
-29
-25
-21
-21
-22
-21
-18
-17
-17
-18
-18
-18
-19
-19
-22
-26
-28
-28
-28
-31
-32
-33
-34
-34
-33
-30
-30
-30
-34
-37
-37
-31
-20
-2
21
47
74
96
114
130
145
148
134
103
72
49
35
25
14
2
-10
-21
-28
-32
-36
-44
-53
-57
-59
-60
-62
-63
-63
-65
-65
-63
-63
-66
-67
-67
-66
-67
-66
-64
-64
-65
-68
-66
-66
-67
-68
-69
-68
-69
-69
-69
-68
-69
-69
-68
-69
-71
-74
-71
-69
-68
-67
-65
-62
-62
-61
-58
-55
-54
-50
-45
-43
-43
-42
-39
-35
-31
-27
-26
-25
-23
-20
-13
-7
-4
-4
-4
-5
-9
-12
-13
-16
-22
-28
-30
-32
-35
-36
-36
-37
-41
-42
-42
-41
-43
-44
-44
-44
-44
-47
-47
-45
-45
-45
-43
-41
-42
-40
-39
-38
-40
-44
-48
-50
-46
-37
-20
0
24
52
75
94
114
129
138
123
91
57
32
19
8
0
-9
-22
-32
-37
-38
-42
-51
-60
-65
-67
-71
-73
-72
-70
-70
-72
-71
-73
-76
-77
-74
-73
-77
-77
-76
-76
-79
-80
-80
-80
-80
-81
-80
-82
-82
-82
-80
-81
-85
-84
-82
-80
-78
-75
-75
-74
-72
-73
-71
-69
-63
-61
-60
-60
-57
-52
-49
-47
-46
-41
-39
-38
-37
-36
-34
-34
-33
-31
-30
-30
-29
-26
-25
-27
-28
-27
-26
-26
-27
-26
-27
-30
-30
-28
-25
-23
-23
-23
-26
-27
-24
-21
-23
-25
-25
-22
-22
-21
-19
-19
-21
-22
-19
-19
-19
-21
-20
-18
-17
-17
-14
-12
-16
-21
-23
-20
-19
-19
-19
-20
-21
-21
-19
-18
-19
-20
-21
-20
-19
-20
-20
-20
-22
-23
-20
-17
-16
-18
-19
-18
-17
-15
-13
-12
-12
-12
-9
-8
-8
-9
-9
-8
-10
-11
-10
-9
-10
-12
-15
-19
-22
-24
-25
-26
-28
-31
-32
-32
-32
-31
-30
-31
-32
-32
-30
-24
-11
10
38
67
88
108
124
140
147
137
113
80
56
41
33
25
14
2
-7
-12
-17
-25
-33
-40
-45
-51
-54
-56
-57
-58
-58
-57
-58
-59
-59
-59
-59
-59
-59
-60
-59
-60
-59
-61
-62
-63
-63
-61
-59
-60
-64
-67
-66
-66
-66
-66
-66
-66
-66
-67
-66
-66
-64
-62
-61
-59
-57
-56
-55
-55
-53
-49
-45
-42
-38
-35
-32
-30
-28
-25
-23
-21
-18
-14
-15
-16
-16
-15
-14
-14
-13
-13
-14
-13
-12
-11
-12
-15
-16
-16
-19
-20
-19
-18
-18
-22
-25
-27
-27
-27
-28
-28
-29
-28
-27
-26
-29
-29
-28
-26
-26
-26
-26
-26
-26
-27
-26
-25
-25
-26
-24
-22
-24
-24
-22
-20
-22
-23
-21
-19
-18
-16
-13
-11
-10
-10
-9
-8
-5
-2
-2
-2
-2
-1
0
2
1
0
0
1
2
-1
-4
-7
-10
-11
-12
-12
-13
-13
-12
-11
-11
-13
-14
-14
-15
-16
-13
-6
8
29
55
79
100
121
141
159
165
157
128
97
70
55
46
37
26
11
1
-6
-10
-14
-19
-27
-34
-38
-38
-38
-39
-40
-40
-41
-41
-41
-41
-41
-42
-43
-46
-47
-47
-47
-46
-47
-48
-47
-46
-48
-53
-56
-56
-55
-55
-54
-54
-55
-56
-58
-55
-56
-55
-56
-54
-53
-53
-51
-49
-46
-46
-42
-38
-35
-35
-36
-34
-32
-32
-32
-28
-24
-24
-21
-18
-18
-19
-18
-17
-17
-19
-17
-15
-16
-21
-23
-21
-20
-20
-20
-21
-24
-27
-28
-27
-25
-26
-27
-28
-29
-30
-29
-27
-24
-21
-22
-24
-26
-26
-25
-24
-23
-23
-22
-23
-25
-25
-24
-23
-25
-28
-27
-25
-26
-28
-27
-25
-24
-26
-25
-24
-23
-21
-16
-13
-13
-15
-14
-11
-8
-6
-6
-6
-5
-5
-3
-2
-1
-2
-2
-2
-3
-6
-8
-11
-13
-14
-15
-17
-20
-19
-17
-16
-16
-16
-15
-16
-17
-18
-14
-4
11
34
59
86
103
121
139
157
161
143
115
85
64
51
44
38
25
12
3
-1
-6
-13
-21
-31
-38
-43
-45
-46
-46
-44
-45
-46
-47
-46
-43
-44
-46
-49
-47
-46
-45
-45
-43
-42
-45
-49
-50
-48
-48
-48
-48
-48
-50
-52
-51
-50
-50
-50
-49
-47
-47
-48
-48
-47
-46
-44
-41
-37
-36
-34
-31
-29
-27
-27
-25
-21
-18
-16
-13
-10
-8
-6
-2
2
5
11
16
18
16
12
10
8
7
2
-3
-6
-8
-8
-8
-9
-14
-19
-19
-17
-18
-21
-23
-23
-22
-23
-23
-21
-20
-20
-21
-21
-21
-21
-19
-17
-18
-20
-20
-20
-22
-24
-24
-20
-9
8
31
59
83
103
119
139
152
156
138
110
79
58
45
36
29
17
3
-6
-9
-12
-17
-24
-31
-38
-42
-44
-45
-46
-45
-43
-43
-46
-49
-48
-48
-48
-49
-48
-47
-49
-51
-52
-50
-51
-53
-56
-56
-55
-55
-54
-54
-55
-58
-57
-55
-54
-53
-51
-48
-47
-48
-46
-44
-43
-41
-39
-37
-34
-32
-29
-27
-25
-23
-18
-14
-13
-11
-10
-10
-9
-6
-4
-2
-2
-2
-2
-2
-2
-1
1
3
1
-1
0
3
3
4
6
6
4
2
3
4
5
5
6
5
3
3
7
10
8
6
7
9
8
5
3
3
4
5
7
9
9
8
9
10
9
5
3
4
4
5
6
6
6
5
5
6
7
5
5
6
6
4
3
5
6
5
6
6
3
0
1
3
5
6
9
10
10
12
15
18
15
11
9
12
14
16
19
18
17
13
13
12
7
3
0
0
-1
-2
-3
-4
-4
-3
-1
-1
-2
-5
-6
-6
-3
2
13
33
61
89
111
130
147
169
181
177
150
114
90
73
65
55
46
32
19
14
12
10
1
-10
-18
-21
-21
-21
-21
-21
-20
-20
-20
-20
-22
-23
-23
-23
-24
-25
-26
-25
-24
-23
-23
-27
-29
-29
-28
-26
-28
-30
-32
-31
-31
-33
-32
-31
-29
-29
-29
-30
-32
-30
-27
-25
-25
-24
-22
-23
-25
-22
-16
-12
-13
-13
-10
-7
-5
-3
-1
0
1
2
3
2
0
1
3
4
2
0
0
0
1
2
1
-1
-2
-3
-2
-1
-2
-4
-6
-8
-11
-11
-9
-10
-13
-14
-13
-13
-14
-15
-17
-18
-19
-15
-12
-11
-14
-14
-12
-10
-9
-9
-7
-5
-5
-7
-8
-6
-4
-1
0
-1
-3
-2
-1
-1
0
2
4
7
9
11
14
16
16
18
20
21
19
20
21
21
19
19
16
11
7
4
3
2
2
3
5
6
5
5
8
11
8
3
0
1
6
15
36
60
84
106
126
147
164
182
183
167
137
107
86
74
66
54
40
25
17
12
8
4
-4
-13
-20
-24
-26
-29
-29
-30
-30
-30
-29
-27
-25
-24
-26
-28
-32
-32
-30
-26
-25
-26
-25
-27
-31
-33
-31
-31
-34
-36
-36
-34
-34
-35
-36
-36
-34
-31
-27
-27
-29
-29
-26
-25
-24
-19
-14
-13
-14
-12
-9
-8
-9
-5
0
1
2
6
12
12
11
12
17
21
24
30
33
34
31
31
30
28
25
24
23
16
9
4
2
1
0
0
-1
-2
-2
0
1
1
0
-1
-3
-4
-3
0
2
2
1
0
0
0
0
0
-1
-4
-6
-2
10
27
52
80
108
128
147
164
178
177
159
130
99
77
61
52
42
29
16
10
8
5
0
-9
-19
-25
-26
-27
-29
-30
-30
-28
-29
-31
-31
-31
-30
-29
-29
-30
-32
-33
-35
-36
-36
-35
-34
-36
-40
-40
-37
-36
-38
-39
-39
-37
-37
-36
-34
-31
-30
-30
-30
-28
-23
-23
-22
-22
-19
-15
-10
-5
-2
-3
-2
0
3
5
7
10
11
13
16
17
17
16
18
18
19
20
21
20
17
17
19
22
21
21
22
22
19
18
22
23
23
21
24
25
24
22
21
23
23
25
26
27
29
29
29
26
24
23
26
27
29
29
27
25
25
26
27
28
28
28
28
28
29
28
26
23
22
23
24
24
24
26
26
25
23
25
26
25
21
21
24
24
25
26
29
31
31
33
33
36
38
39
35
32
34
35
36
34
35
35
36
35
30
25
20
19
17
16
16
17
17
17
20
21
19
16
14
14
16
20
29
42
61
89
115
142
161
182
200
206
196
165
135
108
94
83
73
62
48
41
39
38
32
22
12
5
1
-1
-1
0
0
1
3
4
1
-2
-4
-3
-1
0
0
1
0
-3
-3
-4
-6
-7
-6
-5
-7
-8
-6
-5
-5
-7
-8
-9
-9
-9
-7
-6
-8
-8
-5
-2
-3
-3
-1
0
1
1
3
5
7
9
14
17
17
16
17
18
19
22
24
25
25
27
29
29
27
25
26
27
26
24
25
25
22
20
20
21
19
18
16
15
14
13
14
13
12
10
10
9
6
5
7
10
10
9
8
9
11
11
10
9
11
11
13
14
14
13
13
16
15
15
16
18
17
16
18
20
22
24
30
33
33
30
28
31
34
35
36
38
39
40
41
39
39
39
41
40
33
26
25
25
25
25
26
27
24
24
26
26
25
24
25
24
27
33
46
67
91
119
140
160
174
194
205
197
170
138
114
97
85
74
66
53
41
34
29
24
15
7
1
-2
-3
-4
-4
-6
-9
-11
-12
-11
-11
-11
-12
-12
-13
-15
-15
-14
-14
-15
-15
-15
-16
-15
-12
-12
-15
-16
-15
-15
-15
-16
-16
-18
-19
-19
-15
-12
-11
-11
-8
-7
-9
-9
-6
-2
-1
1
4
9
11
14
17
19
20
21
25
28
29
29
29
30
31
33
36
40
44
51
55
55
51
45
43
40
38
35
32
28
23
23
23
20
13
11
12
12
14
15
15
13
14
14
14
14
15
16
17
15
13
12
12
12
11
10
12
15
25
42
67
95
122
147
168
188
201
202
182
151
115
93
80
70
60
46
34
26
23
18
13
6
0
-5
-10
-15
-19
-19
-16
-16
-18
-19
-20
-20
-19
-19
-19
-21
-24
-24
-22
-21
-21
-23
-25
-28
-30
-29
-28
-28
-27
-26
-30
-33
-32
-30
-27
-28
-27
-25
-20
-18
-17
-16
-15
-14
-11
-8
-6
-4
-1
3
7
9
11
14
14
13
13
16
20
22
22
23
23
23
24
26
28
27
25
25
25
26
28
30
31
27
27
27
28
29
28
30
31
31
29
30
32
34
34
35
35
34
36
38
39
35
32
34
37
37
35
36
37
36
34
34
36
37
37
36
36
36
37
37
38
36
35
35
36
37
36
36
35
34
34
36
36
31
30
31
34
35
34
36
36
37
35
37
40
41
40
42
48
48
44
41
44
46
45
43
43
45
44
43
42
40
36
29
25
24
25
26
27
28
27
28
28
28
27
26
26
28
32
39
53
74
101
126
149
164
181
198
206
196
166
138
113
101
90
81
70
59
51
45
43
35
26
15
9
7
4
1
0
1
0
0
1
2
2
0
0
0
-1
-7
-9
-7
-5
-6
-6
-7
-8
-10
-11
-12
-12
-12
-12
-12
-12
-12
-10
-9
-11
-12
-11
-11
-12
-12
-9
-6
-5
-5
-2
0
0
-1
2
8
12
15
18
22
23
24
28
33
35
34
34
34
35
34
35
37
39
40
39
37
34
35
36
37
34
31
31
32
32
28
27
27
26
22
20
20
18
17
16
17
18
17
18
17
18
18
22
24
23
19
19
22
23
23
23
24
23
23
24
25
26
25
26
27
29
30
30
31
31
34
38
42
43
43
43
44
44
43
44
46
50
49
47
45
46
47
46
43
36
33
33
34
34
35
36
35
34
33
33
30
27
27
28
32
39
55
77
102
128
150
170
185
204
211
200
169
134
109
95
87
75
63
51
43
39
33
27
17
7
2
1
-1
-4
-6
-6
-6
-6
-5
-5
-8
-11
-14
-14
-14
-15
-15
-15
-16
-19
-19
-17
-16
-18
-22
-24
-26
-26
-26
-24
-23
-25
-27
-29
-28
-26
-22
-20
-20
-21
-20
-18
-15
-13
-10
-6
-3
1
4
8
8
7
9
14
19
20
21
21
24
24
27
30
29
26
25
27
27
26
25
26
27
26
25
24
24
22
22
21
19
16
14
16
17
18
17
17
18
18
19
17
16
14
13
16
18
17
16
17
18
19
16
15
13
12
11
11
12
11
12
13
14
11
9
10
12
13
14
17
21
22
22
22
26
27
29
30
29
29
32
35
35
34
31
29
28
27
24
20
18
16
18
20
21
19
17
19
21
21
18
18
16
14
14
18
28
45
65
91
118
137
157
173
189
196
184
161
127
104
89
80
70
59
46
37
34
30
23
14
7
2
-3
-9
-15
-17
-17
-14
-13
-14
-16
-17
-17
-19
-20
-19
-18
-18
-20
-24
-29
-30
-30
-29
-28
-30
-32
-32
-30
-31
-32
-33
-33
-34
-34
-33
-32
-33
-31
-28
-26
-25
-23
-21
-18
-16
-12
-7
-3
-2
-2
0
3
4
7
10
12
13
14
15
18
19
20
21
21
17
14
16
19
18
17
18
18
17
15
14
14
14
12
10
10
9
7
7
7
7
9
9
7
5
6
8
8
9
10
9
8
6
7
8
9
9
7
8
7
5
3
4
5
6
7
9
8
8
9
11
14
16
19
20
18
18
19
22
23
23
26
30
28
24
23
25
28
27
25
21
17
16
15
15
12
12
13
14
14
14
14
13
11
11
15
21
30
49
70
96
119
143
161
179
195
197
180
150
120
98
87
78
69
57
44
37
32
27
21
14
7
2
0
-4
-9
-11
-10
-9
-9
-9
-9
-9
-11
-13
-13
-13
-15
-18
-19
-18
-19
-18
-17
-17
-19
-20
-21
-23
-26
-29
-28
-28
-28
-28
-25
-25
-27
-29
-27
-25
-24
-23
-21
-20
-18
-15
-11
-9
-7
-5
-3
0
2
4
6
6
6
7
11
13
12
12
13
13
11
12
13
13
14
14
14
12
10
9
9
8
5
7
7
4
2
4
8
7
4
2
3
3
2
1
3
5
5
7
9
8
5
5
5
6
6
6
6
6
7
5
4
2
2
2
2
2
1
5
9
9
7
8
11
12
13
14
17
19
19
21
22
22
20
22
23
22
20
18
16
11
8
7
6
5
4
5
6
7
7
7
6
6
5
4
4
5
10
24
45
68
96
118
137
154
173
189
185
166
131
103
86
75
65
53
42
29
22
20
18
11
1
-5
-9
-16
-23
-26
-25
-24
-26
-25
-23
-22
-23
-23
-24
-26
-28
-27
-25
-26
-28
-28
-28
-28
-28
-29
-31
-31
-31
-30
-30
-33
-36
-37
-36
-35
-34
-33
-30
-30
-29
-27
-25
-24
-23
-18
-12
-11
-14
-15
-12
-8
-6
-3
0
5
8
12
16
18
20
26
31
33
31
28
25
23
21
21
17
11
7
5
4
2
0
-2
-2
-4
-6
-7
-8
-10
-10
-8
-7
-5
-5
-6
-7
-7
-7
-8
-7
-7
-8
-7
-4
-3
-5
-8
-10
-7
-1
14
35
61
86
106
126
139
155
157
144
116
85
65
53
44
33
21
8
-1
-5
-6
-8
-15
-25
-33
-37
-38
-39
-39
-38
-40
-41
-42
-42
-44
-45
-43
-43
-45
-47
-47
-45
-43
-44
-48
-52
-54
-53
-52
-49
-49
-51
-52
-51
-53
-55
-53
-50
-51
-52
-50
-48
-46
-47
-47
-45
-43
-40
-35
-31
-29
-28
-26
-24
-23
-21
-19
-17
-17
-15
-11
-9
-10
-8
-6
-5
-5
-3
-2
-4
-6
-5
-2
-2
-3
-3
0
1
0
-2
-3
-2
-4
-3
0
1
2
3
3
2
3
3
2
0
0
0
1
1
0
1
2
2
2
4
6
3
-1
-1
2
0
-2
-2
0
-1
-3
-2
-1
0
-2
-2
-1
-2
-3
-3
-2
-3
-3
-2
-1
-3
-6
-8
-6
-4
-2
0
3
2
1
3
6
7
6
7
9
9
7
6
5
3
2
3
2
-2
-9
-12
-13
-14
-15
-14
-14
-16
-17
-16
-14
-15
-18
-20
-18
-13
-3
16
43
68
92
114
134
150
166
171
159
128
97
73
59
48
38
27
13
2
-5
-11
-16
-24
-32
-37
-42
-44
-46
-46
-47
-47
-48
-48
-46
-45
-45
-48
-50
-52
-55
-55
-55
-55
-57
-56
-55
-55
-57
-59
-59
-59
-59
-60
-59
-59
-62
-64
-65
-63
-62
-60
-59
-60
-59
-58
-56
-57
-56
-55
-51
-49
-46
-42
-38
-34
-32
-28
-24
-20
-17
-13
-11
-11
-10
-8
-4
-3
-4
-5
-3
-4
-4
-3
0
0
-3
-5
-4
-3
-7
-10
-9
-8
-9
-11
-12
-12
-14
-17
-18
-18
-20
-19
-17
-15
-17
-22
-25
-26
-24
-22
-19
-16
-16
-18
-19
-18
-18
-17
-14
-14
-16
-16
-16
-15
-14
-14
-12
-11
-12
-15
-14
-10
-6
-4
-2
0
0
2
3
5
4
3
4
7
11
11
9
5
5
8
10
8
1
-3
-6
-7
-6
-5
-4
-4
-4
-6
-6
-6
-6
-9
-11
-10
-7
0
15
36
60
89
114
139
157
172
184
174
150
112
84
68
59
49
38
25
11
2
-1
-5
-10
-18
-25
-30
-32
-34
-36
-39
-42
-42
-41
-39
-40
-42
-43
-42
-43
-47
-49
-48
-49
-50
-52
-52
-52
-53
-54
-54
-56
-59
-57
-56
-57
-59
-60
-61
-62
-61
-61
-59
-58
-58
-56
-53
-49
-47
-47
-47
-46
-46
-45
-41
-38
-34
-32
-28
-25
-23
-20
-18
-18
-20
-20
-18
-16
-16
-17
-17
-16
-18
-19
-19
-19
-20
-20
-20
-23
-26
-28
-26
-26
-27
-27
-26
-27
-29
-29
-28
-27
-27
-28
-27
-27
-27
-27
-27
-28
-28
-27
-25
-26
-28
-28
-29
-31
-32
-32
-32
-31
-30
-30
-27
-26
-27
-27
-25
-25
-28
-27
-23
-20
-17
-15
-13
-14
-14
-12
-8
-7
-7
-7
-7
-6
-7
-8
-9
-9
-11
-14
-19
-22
-22
-22
-23
-24
-22
-21
-21
-21
-21
-21
-23
-24
-25
-23
-17
-6
13
38
64
88
111
129
150
165
167
146
114
81
60
49
38
25
10
-1
-7
-12
-18
-25
-34
-43
-48
-49
-52
-55
-58
-57
-56
-58
-58
-57
-55
-57
-59
-60
-62
-61
-61
-59
-59
-60
-62
-64
-65
-66
-64
-63
-62
-65
-66
-65
-65
-64
-65
-65
-66
-66
-65
-61
-57
-59
-61
-60
-56
-54
-50
-45
-42
-42
-42
-38
-35
-31
-25
-21
-21
-21
-17
-9
-1
1
1
2
3
0
-3
-5
-6
-10
-14
-18
-21
-24
-27
-29
-29
-31
-33
-33
-33
-35
-37
-36
-36
-37
-39
-36
-34
-33
-37
-40
-39
-38
-36
-35
-34
-35
-36
-35
-35
-37
-41
-40
-37
-31
-19
1
30
57
79
99
116
132
138
127
101
68
46
30
22
14
4
-6
-16
-23
-29
-35
-39
-45
-53
-60
-64
-66
-68
-66
-66
-67
-68
-68
-67
-68
-71
-74
-74
-74
-73
-73
-73
-73
-74
-73
-72
-72
-76
-77
-76
-77
-78
-80
-79
-78
-77
-77
-76
-74
-75
-73
-71
-69
-71
-71
-69
-67
-65
-62
-57
-55
-53
-51
-47
-45
-44
-40
-35
-31
-31
-30
-30
-31
-31
-27
-24
-24
-26
-25
-21
-20
-20
-22
-23
-24
-26
-24
-22
-22
-22
-21
-20
-20
-20
-18
-17
-17
-16
-16
-15
-17
-17
-15
-13
-14
-16
-16
-18
-21
-20
-19
-17
-18
-18
-15
-13
-15
-18
-18
-18
-18
-18
-17
-16
-17
-19
-17
-16
-18
-19
-17
-17
-17
-18
-21
-24
-24
-21
-18
-17
-20
-23
-21
-18
-16
-15
-15
-14
-13
-11
-9
-9
-10
-10
-8
-5
-3
-5
-8
-10
-11
-10
-12
-19
-27
-29
-27
-26
-27
-29
-30
-31
-32
-32
-31
-31
-33
-35
-35
-31
-21
-1
25
55
80
103
119
139
155
159
146
112
78
53
40
31
21
9
-4
-12
-16
-20
-27
-38
-46
-50
-50
-47
-50
-53
-57
-57
-57
-55
-53
-53
-54
-55
-55
-57
-58
-57
-56
-56
-59
-60
-60
-60
-62
-62
-62
-63
-64
-62
-63
-69
-71
-70
-67
-67
-68
-67
-66
-63
-62
-62
-62
-62
-60
-57
-53
-53
-51
-47
-45
-46
-44
-39
-36
-36
-34
-31
-29
-30
-31
-29
-27
-27
-27
-26
-24
-25
-26
-25
-25
-26
-29
-31
-31
-31
-32
-32
-32
-33
-35
-39
-40
-41
-41
-41
-40
-42
-46
-46
-45
-45
-46
-46
-44
-44
-45
-46
-46
-46
-43
-41
-39
-40
-40
-39
-39
-40
-40
-37
-36
-37
-37
-35
-34
-34
-33
-30
-29
-28
-26
-25
-27
-26
-22
-18
-17
-17
-16
-15
-13
-12
-12
-14
-14
-13
-12
-14
-20
-23
-25
-28
-32
-34
-32
-30
-27
-27
-27
-27
-28
-31
-33
-32
-28
-23
-9
13
37
63
86
110
128
147
160
161
140
107
73
52
40
28
18
6
-6
-15
-20
-24
-30
-40
-48
-53
-56
-60
-63
-66
-67
-67
-67
-66
-69
-71
-72
-72
-72
-75
-74
-72
-69
-71
-72
-73
-74
-74
-74
-72
-75
-77
-78
-76
-74
-74
-71
-70
-68
-70
-70
-70
-69
-68
-67
-64
-63
-61
-59
-56
-55
-53
-49
-46
-43
-41
-38
-37
-36
-34
-30
-27
-25
-25
-24
-24
-24
-24
-23
-20
-18
-15
-11
-8
-5
-5
-6
-8
-11
-16
-18
-18
-20
-24
-30
-32
-32
-33
-35
-38
-39
-40
-40
-39
-40
-39
-38
-37
-37
-37
-37
-37
-38
-38
-37
-38
-40
-45
-47
-48
-46
-41
-30
-11
12
40
67
88
103
120
137
147
132
103
67
42
30
20
11
0
-13
-22
-26
-28
-33
-42
-52
-59
-63
-65
-68
-69
-67
-69
-72
-74
-75
-73
-72
-73
-75
-77
-75
-74
-73
-75
-76
-78
-79
-79
-79
-78
-79
-79
-81
-80
-82
-82
-81
-80
-80
-81
-78
-77
-76
-74
-70
-69
-71
-69
-65
-61
-61
-60
-55
-51
-48
-46
-41
-38
-37
-35
-32
-31
-33
-32
-31
-32
-35
-35
-33
-31
-31
-30
-27
-27
-28
-29
-26
-23
-21
-22
-24
-26
-27
-26
-23
-20
-19
-17
-15
-18
-23
-23
-20
-20
-20
-19
-17
-16
-16
-16
-16
-17
-18
-17
-15
-15
-16
-16
-15
-15
-14
-14
-16
-18
-18
-17
-16
-16
-17
-17
-17
-18
-18
-17
-16
-17
-18
-17
-17
-19
-20
-19
-18
-18
-19
-17
-15
-15
-16
-17
-16
-16
-16
-15
-12
-11
-12
-10
-10
-10
-11
-12
-11
-9
-7
-7
-7
-10
-12
-11
-12
-17
-21
-22
-22
-23
-26
-25
-25
-25
-25
-25
-25
-27
-27
-26
-26
-27
-24
-11
10
34
64
90
112
130
148
168
171
157
123
89
67
53
41
29
19
7
-2
-6
-9
-15
-24
-31
-36
-42
-44
-43
-41
-43
-46
-47
-45
-44
-45
-44
-43
-45
-47
-48
-48
-48
-48
-50
-50
-52
-54
-54
-55
-56
-57
-55
-54
-57
-60
-60
-59
-58
-58
-59
-57
-57
-56
-55
-53
-53
-54
-52
-47
-43
-43
-43
-42
-41
-38
-35
-32
-29
-25
-23
-20
-19
-19
-20
-19
-17
-17
-16
-15
-16
-16
-16
-16
-16
-17
-20
-21
-20
-20
-22
-24
-24
-25
-28
-28
-28
-30
-34
-36
-36
-36
-37
-38
-37
-36
-35
-35
-35
-37
-37
-36
-33
-31
-31
-33
-34
-33
-33
-31
-29
-26
-26
-27
-26
-26
-26
-25
-22
-20
-19
-20
-22
-22
-22
-20
-16
-13
-13
-13
-11
-7
-5
-3
-2
-2
-3
-4
-3
-3
-4
-5
-5
-5
-9
-13
-16
-16
-16
-14
-15
-17
-20
-20
-17
-16
-17
-19
-23
-24
-21
-15
-6
11
34
61
85
104
119
136
155
162
151
121
89
64
51
42
31
19
5
-4
-8
-12
-19
-27
-37
-46
-55
-57
-57
-57
-58
-57
-57
-60
-62
-62
-60
-62
-64
-64
-63
-63
-64
-64
-65
-63
-64
-63
-63
-65
-67
-68
-65
-66
-66
-68
-66
-64
-65
-64
-61
-59
-61
-60
-58
-57
-57
-58
-56
-54
-52
-50
-45
-41
-39
-37
-36
-32
-29
-26
-25
-24
-23
-20
-17
-14
-11
-6
-1
3
5
5
5
3
0
-3
-7
-10
-16
-19
-22
-24
-26
-27
-28
-29
-31
-32
-31
-31
-33
-34
-31
-29
-31
-32
-30
-30
-30
-31
-30
-31
-31
-31
-30
-32
-35
-36
-33
-27
-17
2
30
59
87
109
126
143
152
147
123
90
63
45
35
25
13
-2
-13
-19
-24
-29
-34
-43
-52
-55
-56
-57
-60
-60
-60
-61
-62
-62
-62
-61
-62
-62
-61
-62
-64
-65
-63
-62
-64
-67
-69
-69
-69
-69
-71
-72
-72
-72
-71
-72
-70
-69
-68
-69
-69
-67
-65
-63
-62
-58
-56
-54
-54
-51
-45
-43
-43
-43
-39
-36
-35
-32
-28
-24
-24
-24
-22
-20
-19
-19
-19
-20
-20
-19
-15
-14
-15
-16
-13
-11
-12
-15
-16
-13
-11
-12
-12
-11
-11
-12
-12
-11
-10
-9
-6
-6
-6
-7
-6
-6
-7
-7
-6
-5
-7
-8
-6
-3
-2
-5
-6
-6
-6
-6
-4
-5
-8
-10
-8
-5
-6
-8
-8
-6
-5
-6
-6
-6
-6
-7
-8
-7
-6
-5
-5
-6
-9
-10
-10
-9
-8
-7
-7
-6
-6
-7
-6
-4
-3
-3
-2
0
0
1
0
0
0
2
5
6
3
-1
-2
-2
-2
-5
-10
-15
-17
-18
-17
-16
-15
-17
-18
-17
-16
-16
-15
-16
-19
-20
-15
-2
18
42
69
95
113
135
153
171
172
150
117
83
66
54
45
37
24
10
1
-1
-3
-8
-15
-22
-28
-32
-34
-34
-35
-36
-35
-34
-35
-36
-36
-35
-33
-35
-37
-37
-37
-39
-41
-41
-41
-42
-44
-45
-48
-49
-48
-47
-48
-47
-46
-47
-50
-52
-51
-49
-49
-48
-45
-42
-42
-43
-43
-41
-39
-36
-35
-34
-34
-32
-27
-23
-20
-19
-18
-19
-19
-17
-13
-10
-9
-10
-11
-11
-12
-12
-11
-10
-10
-10
-11
-12
-14
-14
-12
-14
-19
-23
-23
-22
-23
-24
-24
-25
-27
-28
-29
-28
-29
-30
-31
-30
-29
-28
-28
-26
-26
-24
-24
-24
-24
-22
-20
-22
-23
-22
-19
-18
-18
-18
-16
-16
-17
-16
-14
-12
-11
-12
-10
-7
-5
-4
-2
-1
1
3
3
4
4
4
4
4
3
3
3
2
0
-3
-6
-9
-11
-9
-5
-5
-10
-13
-11
-9
-9
-10
-9
-9
-10
-8
0
17
41
69
95
115
132
152
166
167
149
121
90
69
56
48
40
28
15
6
1
-6
-16
-25
-32
-36
-38
-41
-45
-49
-49
-47
-47
-49
-51
-50
-51
-53
-53
-51
-52
-54
-55
-54
-52
-51
-51
-52
-54
-55
-56
-54
-55
-54
-54
-54
-55
-55
-53
-53
-52
-53
-52
-50
-50
-50
-48
-43
-40
-38
-36
-33
-32
-32
-29
-23
-18
-18
-17
-13
-9
-8
-5
-1
2
5
9
13
16
15
14
13
11
9
5
-1
-6
-9
-11
-13
-16
-17
-18
-17
-19
-20
-22
-21
-21
-23
-24
-24
-22
-23
-24
-23
-22
-20
-20
-19
-18
-17
-18
-19
-20
-22
-25
-27
-26
-23
-9
13
38
64
89
112
131
145
155
150
127
97
68
52
39
29
18
6
-4
-10
-12
-18
-26
-35
-41
-44
-46
-47
-49
-49
-49
-50
-51
-52
-53
-54
-54
-54
-56
-56
-56
-54
-55
-57
-58
-59
-59
-62
-63
-63
-61
-61
-64
-65
-67
-67
-66
-62
-61
-61
-61
-59
-57
-56
-54
-53
-51
-49
-47
-41
-37
-35
-35
-36
-36
-32
-26
-23
-22
-22
-21
-19
-17
-15
-14
-12
-12
-14
-14
-11
-9
-8
-9
-8
-7
-6
-7
-7
-7
-6
-6
-4
-2
-4
-4
-4
-3
-2
-3
-2
-2
-1
-1
0
1
2
2
2
2
2
1
0
-1
-1
0
2
4
3
1
1
1
0
0
0
0
0
0
0
0
-1
-2
-2
-1
0
1
1
-2
-6
-6
-3
-1
-2
-4
-4
-2
-3
-5
-4
-2
0
1
1
0
0
0
1
3
4
5
6
7
8
6
3
3
3
3
1
-4
-8
-11
-12
-14
-15
-14
-14
-13
-14
-15
-15
-16
-17
-18
-18
-16
-11
0
21
44
71
94
112
127
144
161
161
146
114
80
60
49
41
30
20
8
2
-1
-4
-10
-19
-26
-31
-35
-37
-38
-38
-38
-39
-37
-38
-41
-42
-39
-37
-39
-44
-46
-46
-44
-44
-44
-44
-43
-43
-43
-45
-48
-51
-50
-49
-50
-50
-49
-48
-49
-50
-50
-49
-51
-51
-49
-47
-46
-46
-44
-43
-41
-40
-37
-33
-32
-32
-31
-26
-22
-21
-20
-17
-15
-16
-18
-18
-16
-15
-13
-13
-14
-15
-15
-14
-15
-17
-16
-14
-14
-17
-20
-21
-23
-26
-27
-27
-28
-29
-29
-29
-30
-30
-31
-33
-32
-32
-34
-35
-35
-34
-34
-33
-31
-31
-29
-25
-23
-24
-28
-29
-28
-26
-24
-21
-20
-21
-23
-24
-22
-21
-20
-19
-18
-17
-15
-12
-12
-12
-11
-8
-5
-2
-1
0
1
0
0
1
2
1
0
2
3
1
-3
-7
-10
-12
-12
-11
-12
-13
-13
-10
-8
-10
-13
-12
-13
-16
-18
-14
-6
7
29
59
88
109
126
144
164
172
163
135
104
76
61
51
39
28
14
5
-2
-8
-15
-20
-29
-39
-47
-48
-47
-47
-50
-52
-53
-53
-53
-52
-51
-54
-56
-56
-54
-51
-49
-49
-51
-52
-55
-56
-54
-53
-55
-59
-59
-58
-57
-56
-55
-55
-56
-55
-54
-54
-55
-52
-47
-44
-44
-44
-42
-43
-47
-48
-42
-34
-29
-29
-28
-25
-22
-19
-15
-10
-7
-3
1
6
8
10
12
14
16
15
14
12
11
8
4
1
-4
-7
-10
-12
-13
-15
-16
-16
-16
-17
-20
-23
-24
-23
-24
-24
-24
-23
-22
-21
-21
-19
-16
-17
-19
-21
-18
-14
-13
-19
-28
-31
-31
-28
-21
-8
15
41
70
97
119
136
152
162
160
136
107
77
60
47
37
28
16
3
-5
-8
-10
-15
-25
-35
-41
-42
-42
-42
-44
-46
-46
-45
-44
-41
-41
-45
-46
-44
-42
-46
-53
-57
-56
-52
-50
-50
-54
-56
-56
-57
-57
-57
-55
-53
-50
-50
-52
-54
-55
-54
-53
-47
-44
-46
-49
-52
-49
-44
-38
-37
-34
-29
-25
-23
-20
-17
-14
-12
-11
-12
-15
-12
-8
-4
-5
-6
-6
-6
-5
-4
-3
-5
-3
-2
-1
-1
0
1
1
1
1
4
4
2
2
2
4
6
6
4
2
3
6
7
6
10
11
9
6
7
11
10
7
4
4
6
9
8
5
4
6
9
8
7
8
11
14
13
10
5
2
2
5
8
10
9
7
3
0
1
2
3
3
3
4
6
6
3
3
7
10
10
9
10
13
14
10
10
12
13
14
15
16
12
7
5
3
-1
-5
-7
-6
-6
-5
-4
-4
-4
-2
0
1
-4
-10
-8
-2
5
19
41
64
89
112
133
150
174
185
180
157
123
98
78
65
53
45
35
22
14
10
7
-1
-11
-16
-18
-22
-27
-28
-25
-25
-28
-31
-31
-30
-28
-26
-28
-33
-38
-39
-37
-35
-33
-33
-33
-33
-34
-33
-34
-38
-44
-47
-44
-37
-32
-35
-45
-51
-52
-50
-47
-45
-43
-38
-35
-38
-41
-39
-32
-26
-24
-27
-31
-32
-30
-25
-21
-17
-14
-12
-9
-6
-3
0
1
0
-4
-5
-5
-6
-6
-4
-3
-3
-4
-3
-3
-4
-6
-7
-9
-12
-14
-15
-15
-16
-16
-15
-15
-20
-25
-28
-29
-27
-24
-21
-20
-20
-23
-25
-24
-22
-19
-16
-16
-20
-23
-22
-23
-24
-23
-16
-9
-10
-14
-18
-17
-15
-13
-11
-9
-7
-7
-7
-8
-9
-7
-3
-1
-2
-3
-3
0
0
-3
-4
0
6
8
7
9
10
7
5
3
-1
-7
-8
-7
-6
-9
-11
-10
-7
-5
-4
-6
-9
-12
-13
-15
-13
-4
10
30
51
76
99
123
144
166
180
178
153
115
81
58
46
37
27
13
2
-5
-13
-22
-33
-43
-46
-43
-43
-50
-56
-60
-61
-57
-54
-53
-56
-57
-55
-54
-53
-58
-62
-64
-62
-63
-64
-62
-62
-61
-60
-57
-59
-61
-63
-64
-66
-67
-63
-60
-57
-55
-54
-57
-60
-58
-54
-51
-53
-52
-48
-44
-42
-41
-37
-32
-30
-29
-27
-25
-19
-15
-11
-11
-13
-15
-12
-8
-5
-1
6
12
13
12
7
4
4
3
0
-6
-10
-11
-13
-16
-23
-24
-21
-21
-25
-26
-24
-27
-29
-28
-24
-24
-28
-29
-28
-28
-29
-28
-25
-23
-23
-23
-27
-33
-34
-30
-26
-20
-6
17
46
73
94
108
121
141
155
154
127
94
63
48
41
30
17
1
-12
-21
-21
-17
-21
-32
-44
-54
-57
-56
-51
-46
-44
-51
-57
-54
-47
-46
-50
-51
-51
-54
-57
-57
-56
-58
-58
-58
-55
-56
-59
-60
-62
-62
-63
-62
-65
-64
-61
-59
-55
-53
-52
-55
-57
-57
-55
-50
-48
-45
-43
-40
-39
-37
-32
-27
-23
-21
-21
-18
-12
-10
-12
-12
-11
-12
-9
-4
-2
-8
-14
-10
-5
-2
-2
0
1
0
-1
0
4
6
8
6
2
-2
0
9
17
19
12
8
6
10
16
20
18
10
7
12
20
20
15
10
9
13
18
23
21
20
20
19
17
13
9
10
18
28
33
32
26
15
9
13
26
40
41
31
18
15
25
36
40
36
35
35
32
21
10
9
18
33
43
47
42
31
26
28
36
39
38
35
35
38
42
45
47
53
53
44
33
31
33
27
21
21
23
15
7
14
31
40
33
22
16
23
37
45
51
65
83
94
109
127
151
167
181
188
182
169
142
116
95
92
109
128
114
69
38
35
44
43
32
22
12
7
9
22
35
33
19
11
15
13
0
-6
3
15
20
20
17
9
-2
-11
-8
16
41
34
-2
-28
-25
-4
11
8
-7
-20
-23
-11
16
40
31
-9
-46
-52
-27
6
35
47
43
30
19
14
16
14
8
3
7
21
39
53
54
48
45
39
29
22
28
37
44
46
44
43
47
52
48
45
41
36
30
30
31
26
24
26
33
38
41
46
50
43
22
8
8
10
6
1
10
25
37
35
28
20
12
15
27
33
25
13
8
14
22
26
27
26
24
26
32
37
41
38
23
15
16
25
35
44
44
40
38
37
39
39
33
26
27
35
43
51
57
54
37
25
24
28
26
21
18
20
24
29
32
29
23
19
19
21
23
30
39
55
76
96
113
126
147
170
192
196
181
153
126
105
87
76
63
50
39
34
31
28
23
14
1
-12
-23
-28
-26
-23
-23
-23
-24
-25
-25
-25
-24
-24
-27
-31
-32
-29
-29
-33
-40
-42
-43
-44
-42
-40
-40
-40
-39
-39
-38
-38
-44
-52
-58
-58
-53
-46
-45
-48
-48
-45
-43
-42
-39
-37
-35
-32
-27
-20
-17
-17
-17
-13
-10
-9
-7
-4
-3
-1
3
3
0
-2
2
6
6
4
4
5
3
0
-2
-1
-4
-8
-8
-7
-8
-7
-4
-3
-5
-9
-10
-10
-9
-7
-4
-3
-8
-11
-11
-9
-10
-12
-9
-5
-7
-12
-13
-11
-11
-12
-14
-16
-17
-17
-16
-15
-16
-19
-19
-17
-17
-19
-21
-19
-16
-13
-11
-8
-7
-6
-5
-3
-1
-2
-1
0
1
1
1
0
-3
-3
-4
-6
-10
-14
-15
-13
-12
-15
-15
-12
-10
-11
-12
-13
-15
-17
-16
-12
-6
3
22
48
75
102
121
143
162
176
177
153
120
86
66
56
46
32
14
2
-4
-10
-16
-21
-27
-34
-38
-39
-40
-42
-43
-43
-44
-44
-43
-42
-43
-46
-46
-46
-45
-46
-48
-49
-49
-50
-51
-50
-49
-50
-54
-56
-57
-57
-56
-57
-56
-57
-60
-62
-62
-60
-60
-57
-55
-53
-53
-51
-50
-50
-48
-45
-41
-39
-37
-36
-32
-28
-25
-21
-20
-20
-19
-16
-14
-13
-13
-12
-11
-10
-10
-11
-11
-10
-11
-11
-10
-11
-12
-13
-13
-14
-16
-17
-17
-17
-17
-17
-16
-16
-17
-17
-17
-17
-18
-17
-16
-16
-16
-15
-14
-14
-15
-15
-15
-14
-14
-15
-16
-15
-16
-17
-18
-18
-18
-17
-17
-16
-17
-17
-16
-16
-16
-17
-15
-12
-9
-6
-1
0
-2
-3
-1
0
0
0
3
5
6
5
5
5
4
3
1
-2
-6
-8
-8
-9
-10
-10
-9
-9
-9
-8
-6
-6
-9
-12
-14
-13
-9
2
21
46
73
102
126
148
168
187
195
180
146
109
87
71
55
39
22
6
-5
-9
-12
-19
-29
-36
-40
-44
-46
-47
-46
-47
-49
-47
-46
-47
-48
-47
-46
-47
-48
-48
-47
-48
-49
-49
-49
-50
-52
-49
-50
-52
-55
-55
-54
-55
-56
-56
-54
-55
-55
-55
-55
-53
-53
-50
-48
-46
-45
-41
-36
-35
-35
-32
-27
-23
-21
-17
-11
-7
-1
5
11
15
17
18
17
16
11
9
6
2
-1
-3
-4
-6
-10
-11
-13
-15
-17
-17
-20
-22
-23
-22
-22
-22
-23
-22
-21
-22
-25
-26
-25
-24
-23
-21
-20
-21
-22
-22
-23
-26
-28
-29
-26
-19
-4
20
49
79
106
125
143
159
166
155
122
91
64
49
37
25
10
-5
-15
-22
-27
-31
-35
-42
-47
-48
-50
-54
-55
-55
-54
-56
-57
-59
-60
-61
-62
-60
-60
-62
-64
-64
-64
-65
-66
-67
-67
-69
-70
-72
-72
-72
-73
-72
-73
-72
-73
-72
-71
-70
-69
-68
-66
-65
-63
-60
-58
-55
-52
-47
-45
-42
-41
-37
-33
-31
-29
-26
-22
-21
-20
-18
-14
-13
-11
-9
-6
-5
-6
-6
-4
-4
-4
-3
-2
-3
-3
-3
-2
-2
-1
0
0
-1
-1
0
1
2
1
3
3
2
1
3
5
5
5
4
5
5
4
5
6
7
5
6
6
5
3
3
5
4
4
5
6
5
3
2
2
2
2
3
4
4
3
2
2
3
3
4
2
0
0
0
0
1
3
6
8
9
9
9
9
9
10
11
12
13
16
16
17
14
14
14
13
9
1
-1
-2
-3
-4
-4
-3
-5
-6
-6
-5
-6
-8
-9
-10
-10
-4
8
26
53
81
112
135
157
180
199
207
182
146
112
90
75
60
47
29
12
3
1
0
-6
-15
-21
-25
-27
-28
-27
-27
-29
-29
-28
-29
-31
-31
-30
-30
-30
-32
-33
-34
-35
-35
-34
-36
-37
-36
-35
-36
-39
-39
-39
-39
-40
-40
-40
-40
-41
-40
-38
-37
-36
-35
-33
-33
-32
-31
-29
-28
-27
-24
-22
-20
-19
-16
-12
-9
-7
-4
-2
-1
0
2
4
3
3
4
5
4
4
5
6
6
5
4
3
3
2
1
0
0
-2
-3
-4
-4
-6
-7
-8
-10
-11
-12
-13
-14
-14
-13
-11
-12
-12
-11
-12
-13
-14
-10
-9
-8
-9
-9
-8
-6
-6
-6
-6
-6
-5
-3
-1
-1
-2
-2
-1
1
4
7
9
9
9
10
13
15
15
15
17
20
20
20
18
17
16
16
14
10
6
5
5
4
2
1
3
3
2
2
2
1
-1
-2
-1
0
3
11
27
48
73
101
125
141
158
177
190
180
152
118
90
74
61
50
34
16
4
-2
-6
-11
-18
-25
-30
-35
-39
-41
-41
-42
-43
-42
-42
-43
-43
-43
-44
-45
-46
-44
-44
-43
-44
-44
-43
-45
-45
-44
-43
-46
-47
-46
-47
-47
-49
-48
-49
-48
-48
-47
-47
-48
-47
-44
-40
-40
-37
-35
-34
-34
-32
-28
-26
-24
-22
-17
-13
-11
-9
-6
-4
-2
0
3
7
11
17
21
24
23
22
20
18
17
14
11
6
0
-3
-4
-5
-7
-9
-10
-12
-14
-15
-15
-14
-13
-14
-13
-13
-13
-13
-12
-11
-11
-11
-11
-11
-11
-12
-13
-16
-18
-16
-9
4
23
51
82
108
131
150
171
187
183
161
124
96
75
60
47
32
15
-3
-11
-15
-19
-24
-31
-36
-40
-44
-45
-47
-48
-49
-49
-48
-50
-51
-51
-51
-52
-54
-54
-54
-56
-58
-57
-58
-59
-60
-59
-60
-63
-65
-65
-64
-65
-66
-66
-65
-65
-65
-62
-61
-60
-61
-59
-56
-54
-52
-49
-45
-42
-40
-37
-34
-31
-28
-25
-21
-18
-16
-13
-11
-10
-8
-7
-6
-6
-4
-2
-1
-1
-1
0
0
0
0
1
3
3
3
5
5
5
4
5
7
7
7
8
10
9
8
9
11
11
12
13
13
14
14
14
14
13
14
13
14
14
14
15
15
15
13
13
13
13
13
13
13
13
13
14
14
12
12
12
12
11
10
11
11
9
9
11
11
11
10
11
10
9
10
12
13
13
15
16
17
17
17
19
21
21
19
20
22
22
22
18
17
16
16
14
10
6
3
3
1
1
2
3
2
1
1
1
1
0
0
0
2
10
27
53
79
106
127
152
170
190
200
189
162
125
103
90
81
70
56
40
28
22
15
10
1
-8
-15
-19
-21
-23
-23
-23
-24
-25
-25
-24
-24
-24
-26
-27
-29
-29
-28
-27
-28
-29
-31
-32
-33
-33
-33
-34
-34
-36
-37
-36
-35
-37
-39
-40
-38
-39
-39
-37
-36
-37
-38
-35
-33
-31
-30
-29
-27
-25
-22
-19
-16
-16
-13
-10
-7
-6
-4
-1
1
2
2
3
3
3
4
5
5
5
4
3
3
0
0
0
1
0
-1
-2
-3
-6
-9
-10
-11
-12
-15
-16
-16
-18
-20
-20
-19
-19
-19
-18
-17
-17
-17
-16
-15
-15
-15
-14
-11
-11
-10
-10
-9
-9
-9
-7
-6
-6
-7
-6
-4
-3
-3
-2
0
0
2
4
7
7
8
10
12
13
12
13
15
16
17
15
15
15
16
16
14
9
5
3
3
3
3
3
3
4
3
3
3
2
0
-2
-1
1
9
25
48
75
101
126
146
167
185
198
194
172
139
109
90
76
63
47
28
12
1
-5
-10
-15
-22
-29
-32
-34
-36
-40
-41
-39
-40
-41
-41
-39
-40
-41
-41
-41
-42
-42
-41
-41
-41
-42
-43
-43
-43
-44
-46
-46
-47
-47
-48
-49
-49
-49
-48
-48
-49
-49
-48
-45
-44
-44
-44
-41
-38
-37
-35
-32
-29
-28
-25
-21
-17
-16
-13
-10
-6
-5
-3
0
5
10
14
21
23
25
23
22
19
17
15
11
6
0
-3
-5
-5
-8
-10
-12
-15
-17
-16
-16
-16
-17
-16
-16
-16
-17
-17
-16
-15
-15
-15
-14
-15
-15
-15
-14
-16
-19
-20
-20
-19
-14
-2
21
48
77
106
131
156
177
188
181
152
118
87
70
56
44
29
12
0
-8
-12
-17
-24
-33
-40
-44
-48
-51
-52
-51
-51
-54
-55
-54
-55
-56
-57
-57
-58
-59
-61
-61
-62
-63
-63
-64
-65
-67
-67
-67
-68
-68
-70
-69
-71
-69
-68
-67
-67
-67
-63
-62
-60
-60
-57
-55
-53
-52
-49
-44
-41
-39
-37
-33
-30
-29
-24
-19
-17
-16
-15
-12
-11
-9
-6
-4
-4
-5
-4
-1
0
1
0
1
1
0
1
2
3
2
3
3
2
1
3
4
4
4
4
5
5
4
4
6
8
7
6
7
8
7
10
11
10
8
7
8
7
6
7
8
8
5
5
5
6
5
6
7
6
4
4
3
3
3
3
3
2
0
0
1
2
2
3
3
4
3
2
2
5
6
6
8
10
10
11
11
11
11
12
13
12
9
9
9
9
7
2
-1
-3
-6
-9
-9
-9
-9
-8
-6
-6
-8
-11
-12
-13
-11
-6
4
19
44
71
102
124
142
161
177
187
172
146
116
94
80
68
58
40
21
7
1
-4
-12
-18
-23
-26
-30
-31
-31
-32
-33
-34
-32
-31
-33
-33
-33
-33
-35
-35
-34
-34
-36
-37
-37
-37
-39
-39
-39
-40
-41
-41
-42
-42
-44
-43
-43
-44
-45
-44
-43
-43
-43
-42
-41
-40
-41
-39
-36
-34
-33
-31
-29
-28
-26
-24
-19
-16
-14
-12
-8
-7
-6
-4
-1
0
0
0
1
1
1
2
2
2
1
0
1
0
-1
-1
-1
-2
-4
-5
-5
-6
-8
-9
-10
-11
-13
-14
-14
-15
-16
-15
-14
-14
-16
-16
-15
-14
-14
-12
-11
-11
-12
-11
-9
-8
-7
-7
-6
-6
-6
-5
-3
-2
-3
-2
-1
-1
-1
0
3
7
9
9
10
11
12
13
14
14
14
16
18
18
18
18
19
20
19
15
10
7
6
6
6
6
5
5
6
7
5
5
3
1
-1
0
8
21
42
68
99
124
147
169
192
210
209
185
148
116
91
77
64
50
31
14
5
0
-5
-10
-17
-25
-32
-35
-37
-40
-41
-40
-38
-40
-42
-42
-40
-39
-41
-40
-41
-42
-44
-44
-42
-43
-44
-44
-43
-46
-47
-47
-47
-48
-49
-47
-47
-48
-50
-50
-48
-47
-46
-45
-44
-43
-41
-38
-37
-35
-33
-30
-29
-27
-24
-19
-16
-12
-10
-7
-5
-3
-1
1
4
4
8
12
17
21
23
26
29
27
22
20
18
15
9
3
0
-4
-7
-8
-8
-10
-12
-13
-15
-15
-15
-13
-13
-14
-14
-13
-12
-11
-12
-12
-12
-12
-12
-12
-12
-14
-17
-19
-18
-14
-1
18
44
72
101
128
152
172
188
185
163
125
92
73
61
51
37
21
7
2
0
-1
-7
-17
-29
-36
-41
-44
-47
-47
-49
-51
-52
-52
-51
-51
-51
-52
-55
-58
-60
-59
-60
-60
-62
-62
-63
-65
-64
-65
-65
-68
-69
-69
-67
-68
-70
-68
-68
-67
-68
-65
-63
-61
-59
-57
-55
-54
-51
-48
-44
-41
-40
-37
-33
-30
-27
-22
-19
-19
-18
-15
-12
-12
-10
-7
-7
-8
-6
-3
-2
-3
-3
-2
-3
-4
-3
0
2
1
0
0
1
0
2
2
3
1
1
3
3
1
0
4
6
6
4
5
6
6
7
6
5
4
5
6
7
7
6
6
6
4
3
4
4
3
1
0
0
2
3
4
4
1
0
1
2
1
0
0
1
0
0
0
0
-1
0
0
1
2
4
5
6
7
7
8
8
8
8
11
11
10
8
7
6
6
4
0
-4
-6
-9
-10
-12
-12
-13
-12
-10
-11
-11
-12
-13
-16
-17
-13
-5
8
30
58
86
114
134
157
176
194
194
169
138
105
86
72
60
45
25
8
-2
-9
-16
-22
-29
-35
-39
-41
-42
-44
-45
-45
-46
-46
-46
-46
-46
-47
-48
-49
-48
-50
-51
-50
-49
-51
-54
-53
-53
-54
-55
-54
-55
-55
-55
-56
-55
-56
-56
-55
-54
-55
-56
-53
-51
-50
-48
-45
-43
-42
-39
-36
-32
-30
-26
-22
-18
-15
-11
-7
-3
-1
1
4
6
6
6
7
8
9
10
11
11
9
9
8
8
7
6
6
5
3
3
3
0
-1
-4
-4
-4
-6
-8
-8
-9
-11
-12
-12
-12
-13
-13
-11
-12
-12
-12
-11
-11
-10
-9
-8
-8
-9
-10
-9
-8
-8
-7
-6
-7
-7
-6
-5
-4
-5
-3
-2
0
2
4
6
7
8
8
10
10
9
10
13
14
14
13
13
15
15
13
8
4
2
1
1
0
0
0
1
0
0
0
0
-2
-5
-7
-6
2
17
40
69
97
125
150
175
196
209
200
172
134
105
88
75
61
44
26
11
2
-3
-9
-16
-25
-35
-39
-43
-45
-48
-49
-50
-52
-53
-54
-52
-52
-54
-55
-57
-57
-59
-58
-58
-59
-63
-65
-64
-64
-64
-65
-64
-67
-69
-70
-69
-67
-68
-67
-68
-68
-70
-67
-63
-62
-62
-61
-56
-54
-52
-49
-44
-40
-39
-37
-33
-29
-26
-22
-17
-15
-14
-14
-12
-9
-7
-5
-3
-5
-6
-6
-5
-4
-4
-4
-6
-7
-9
-9
-8
-9
-11
-13
-15
-17
-16
-14
-11
-11
-14
-16
-15
-15
-16
-16
-14
-12
-14
-17
-16
-15
-16
-17
-18
-19
-21
-19
-18
-18
-20
-21
-21
-21
-22
-23
-23
-22
-22
-21
-19
-19
-18
-17
-16
-15
-15
-13
-9
-4
-4
-4
-5
-4
-3
-2
-1
-3
-5
-5
-1
-1
-6
-11
-12
-13
-15
-18
-17
-16
-17
-16
-14
-14
-15
-17
-19
-20
-19
-13
0
22
47
78
105
129
146
168
184
185
166
130
102
81
66
52
36
17
-3
-15
-19
-23
-29
-39
-45
-49
-52
-55
-56
-56
-58
-59
-59
-58
-59
-61
-61
-62
-63
-66
-65
-65
-66
-67
-68
-68
-70
-72
-72
-72
-73
-73
-74
-75
-76
-77
-76
-76
-77
-76
-75
-73
-73
-71
-68
-65
-63
-61
-57
-54
-50
-48
-43
-39
-35
-33
-29
-24
-22
-19
-16
-12
-11
-11
-9
-7
-7
-7
-6
-5
-5
-6
-6
-5
-7
-8
-8
-8
-9
-11
-11
-11
-12
-12
-14
-14
-14
-14
-14
-14
-14
-14
-13
-14
-14
-14
-13
-11
-12
-13
-13
-13
-14
-14
-13
-13
-13
-16
-16
-15
-15
-16
-16
-15
-15
-14
-13
-12
-11
-9
-6
-3
-1
0
1
2
3
4
5
6
8
10
11
10
9
10
12
11
6
1
0
-2
-3
-3
-3
-3
-5
-4
-3
-3
-4
-4
-3
-4
-8
-10
-6
0
13
33
62
92
119
142
166
190
205
203
176
143
111
93
80
66
52
33
17
7
3
-1
-7
-14
-22
-26
-27
-29
-31
-32
-30
-33
-35
-35
-35
-35
-37
-39
-39
-40
-42
-44
-43
-44
-46
-48
-48
-48
-51
-52
-53
-53
-55
-55
-56
-56
-58
-59
-57
-57
-56
-57
-54
-54
-53
-51
-49
-47
-45
-43
-41
-38
-36
-34
-31
-29
-27
-25
-22
-20
-18
-15
-13
-12
-13
-12
-10
-8
-9
-11
-11
-11
-12
-12
-12
-11
-13
-15
-15
-15
-16
-17
-18
-18
-19
-19
-19
-19
-20
-21
-21
-21
-21
-20
-19
-19
-19
-19
-20
-19
-18
-17
-17
-16
-17
-18
-18
-19
-19
-20
-20
-20
-20
-19
-17
-16
-15
-13
-9
-7
-6
-7
-6
-3
-1
-1
1
4
4
1
0
0
0
-2
-2
-5
-8
-12
-14
-14
-14
-15
-15
-14
-14
-16
-15
-15
-15
-15
-14
-17
-19
-19
-13
-1
19
49
80
107
129
146
167
181
186
167
134
103
82
70
57
45
28
9
-1
-8
-16
-23
-28
-34
-39
-41
-43
-43
-45
-44
-43
-45
-47
-47
-44
-44
-45
-47
-46
-45
-46
-47
-49
-51
-54
-55
-53
-53
-56
-58
-58
-59
-59
-59
-58
-57
-58
-60
-60
-58
-58
-57
-56
-53
-52
-51
-49
-46
-44
-42
-39
-36
-34
-32
-28
-24
-21
-19
-14
-7
-2
3
7
11
10
8
8
6
4
1
-1
-6
-10
-13
-14
-16
-20
-22
-23
-25
-27
-29
-28
-29
-30
-31
-31
-30
-31
-31
-30
-29
-29
-30
-28
-27
-27
-27
-26
-26
-26
-28
-30
-31
-29
-22
-7
14
43
75
104
128
146
168
181
178
152
120
92
73
57
41
23
1
-16
-26
-32
-36
-43
-53
-57
-62
-64
-67
-66
-67
-69
-69
-69
-69
-71
-72
-72
-72
-74
-75
-74
-75
-76
-78
-77
-78
-80
-81
-82
-81
-83
-83
-83
-83
-83
-82
-81
-81
-79
-79
-76
-74
-73
-70
-67
-64
-64
-59
-55
-51
-49
-45
-40
-37
-34
-29
-23
-20
-19
-16
-12
-9
-8
-7
-4
-3
-3
-3
-3
-4
-4
-3
-2
-2
-3
-3
-2
-1
-3
-3
-1
-1
-1
-1
-1
0
0
0
-1
-2
-1
-1
1
2
1
1
2
2
1
0
0
1
0
0
1
3
1
0
2
1
0
0
1
0
0
0
1
0
-2
-2
-1
0
0
-1
-1
-1
0
-2
0
3
7
8
8
8
9
11
12
13
12
12
16
18
17
15
15
14
12
8
5
3
0
0
0
-4
-8
-9
-9
-12
-12
-11
-8
-9
-13
-20
-26
-24
-19
-12
0
20
47
77
103
126
145
166
184
187
172
138
109
87
73
62
49
31
12
2
-5
-10
-14
-19
-25
-32
-40
-45
-44
-40
-37
-37
-40
-42
-44
-46
-47
-47
-45
-43
-44
-46
-47
-47
-47
-49
-52
-50
-49
-53
-56
-55
-51
-53
-58
-61
-60
-61
-61
-57
-53
-51
-55
-55
-51
-47
-47
-47
-46
-46
-45
-42
-38
-34
-30
-27
-26
-26
-25
-21
-17
-16
-14
-10
-8
-8
-10
-9
-7
-7
-6
-5
-3
-2
-4
-10
-14
-16
-15
-12
-11
-13
-14
-15
-18
-19
-20
-20
-21
-23
-23
-22
-23
-25
-26
-26
-27
-27
-27
-27
-26
-23
-22
-24
-26
-29
-29
-24
-20
-19
-20
-19
-21
-22
-19
-14
-10
-9
-8
-7
-4
0
2
3
2
0
2
6
8
7
5
4
6
7
2
-3
-5
-6
-6
-6
-7
-10
-13
-10
-6
-5
-6
-6
-8
-10
-11
-10
-9
-4
8
27
55
81
111
136
155
172
189
196
179
145
109
87
71
58
46
28
11
0
-5
-9
-16
-25
-32
-36
-41
-46
-47
-47
-46
-47
-45
-45
-46
-46
-46
-45
-46
-47
-48
-47
-48
-50
-52
-53
-54
-57
-56
-55
-55
-57
-58
-57
-59
-59
-59
-58
-58
-59
-56
-55
-56
-57
-54
-50
-48
-48
-46
-44
-42
-39
-35
-31
-28
-26
-22
-18
-15
-11
-7
-3
1
9
16
19
20
18
15
14
13
11
7
2
-3
-7
-9
-10
-11
-16
-18
-19
-20
-21
-22
-22
-22
-24
-24
-23
-23
-24
-23
-22
-22
-23
-22
-20
-19
-19
-19
-20
-22
-24
-25
-21
-14
1
26
55
86
114
136
158
179
190
183
152
118
86
67
53
39
24
3
-14
-24
-29
-33
-39
-47
-55
-58
-58
-60
-63
-65
-63
-63
-66
-66
-67
-66
-68
-69
-70
-70
-71
-73
-72
-74
-75
-76
-74
-76
-78
-78
-80
-80
-82
-80
-81
-80
-81
-81
-77
-77
-76
-76
-73
-71
-69
-67
-63
-59
-58
-54
-50
-45
-42
-39
-33
-28
-25
-23
-18
-15
-13
-10
-7
-5
-4
-4
-2
0
0
0
0
0
0
0
0
0
-1
-2
-1
0
0
-1
0
0
-2
-2
-1
1
1
0
0
0
0
2
5
5
4
2
2
3
4
5
5
6
4
2
3
4
4
3
4
3
2
1
0
1
2
2
2
1
-1
-2
-1
1
1
1
0
0
-1
-1
1
3
5
6
7
7
6
7
10
15
15
13
13
16
16
13
13
13
14
11
7
2
-1
-4
-5
-5
-7
-11
-13
-13
-11
-13
-13
-12
-12
-14
-19
-21
-22
-20
-11
6
30
60
89
118
139
158
177
188
188
161
128
98
81
68
55
43
22
2
-12
-19
-22
-27
-35
-41
-45
-48
-52
-54
-54
-53
-52
-52
-51
-53
-56
-57
-55
-56
-58
-59
-59
-60
-61
-60
-61
-61
-61
-61
-61
-64
-66
-65
-63
-63
-64
-64
-64
-65
-66
-62
-59
-58
-58
-55
-52
-51
-50
-48
-42
-39
-36
-33
-29
-26
-24
-20
-15
-12
-11
-8
-4
-2
-2
-1
0
2
2
2
3
3
2
2
3
3
1
0
1
0
-1
-2
-3
-3
-5
-7
-7
-9
-11
-12
-12
-14
-16
-17
-17
-18
-20
-20
-20
-20
-21
-22
-21
-20
-19
-19
-18
-18
-18
-17
-15
-14
-14
-13
-12
-10
-9
-7
-4
-1
1
3
5
5
4
6
8
9
10
13
15
14
11
11
13
15
13
7
3
0
0
0
0
0
-1
-1
0
0
0
0
1
0
-2
-4
-5
-4
1
15
39
67
95
122
146
169
189
208
208
187
147
115
92
77
63
45
24
4
-7
-12
-16
-21
-30
-37
-41
-45
-47
-49
-48
-50
-52
-53
-53
-53
-56
-56
-56
-57
-60
-62
-60
-61
-62
-64
-63
-65
-67
-67
-68
-67
-69
-69
-70
-69
-70
-69
-67
-66
-64
-63
-59
-58
-57
-54
-51
-48
-46
-43
-40
-36
-35
-32
-28
-24
-22
-20
-16
-13
-12
-10
-6
-4
-4
-4
-2
-1
-1
-3
-2
-1
-2
-3
-3
-4
-5
-7
-6
-8
-9
-10
-10
-11
-13
-14
-15
-15
-15
-16
-15
-15
-16
-16
-15
-15
-16
-15
-14
-13
-14
-13
-13
-13
-13
-13
-13
-12
-13
-15
-15
-15
-15
-15
-14
-11
-9
-9
-8
-5
-4
-4
-3
-1
-1
-1
1
3
3
1
1
1
1
1
-3
-8
-11
-12
-12
-11
-12
-14
-15
-15
-13
-12
-10
-11
-12
-15
-16
-17
-18
-15
-9
5
26
55
84
113
135
156
179
192
189
160
124
94
75
61
49
37
20
5
0
-2
-7
-17
-25
-33
-39
-43
-46
-48
-51
-52
-53
-53
-52
-53
-52
-53
-53
-57
-58
-60
-61
-63
-64
-63
-62
-62
-62
-63
-65
-67
-66
-65
-64
-65
-64
-64
-64
-64
-62
-58
-58
-58
-55
-52
-50
-49
-45
-43
-40
-37
-32
-28
-26
-26
-23
-18
-14
-10
-8
-7
-8
-6
-4
-3
-4
-3
-2
-3
-4
-4
-5
-7
-9
-9
-8
-9
-11
-13
-14
-16
-15
-15
-14
-15
-17
-18
-18
-17
-19
-21
-20
-19
-19
-19
-19
-18
-18
-18
-18
-17
-17
-17
-16
-15
-14
-15
-15
-15
-16
-16
-15
-11
-11
-10
-9
-6
-5
-5
-4
-2
-1
-1
1
3
3
2
1
1
1
0
-2
-6
-9
-11
-10
-10
-11
-12
-11
-9
-10
-10
-10
-9
-10
-10
-11
-13
-13
-10
0
17
41
71
101
126
149
170
194
202
190
161
126
104
85
73
59
43
22
7
1
-3
-9
-16
-21
-26
-30
-32
-32
-34
-35
-37
-36
-36
-37
-38
-37
-39
-42
-43
-42
-43
-44
-45
-46
-47
-48
-50
-49
-50
-50
-51
-52
-52
-53
-52
-53
-53
-53
-52
-51
-50
-49
-49
-47
-46
-44
-42
-39
-37
-35
-32
-29
-25
-23
-21
-18
-15
-13
-10
-7
-5
-5
-4
-2
-1
-1
0
1
0
-1
-2
-1
-1
-2
-3
-4
-5
-6
-7
-7
-8
-10
-10
-10
-11
-13
-14
-13
-12
-13
-12
-12
-12
-13
-12
-10
-9
-9
-9
-9
-8
-9
-8
-7
-6
-7
-7
-7
-7
-8
-7
-4
-1
0
0
2
1
0
0
2
3
2
4
7
7
5
4
4
4
3
0
-2
-6
-9
-9
-9
-10
-11
-10
-9
-9
-9
-8
-7
-8
-9
-10
-11
-13
-9
0
17
40
68
97
122
146
167
192
204
194
160
123
94
77
63
48
33
14
0
-5
-7
-11
-20
-28
-33
-36
-38
-39
-39
-41
-41
-39
-38
-38
-40
-40
-40
-40
-41
-41
-41
-42
-43
-44
-43
-45
-45
-45
-45
-47
-50
-48
-48
-49
-50
-50
-49
-51
-53
-52
-49
-47
-45
-43
-42
-41
-41
-38
-35
-31
-28
-25
-23
-21
-19
-15
-12
-9
-6
-3
1
4
10
16
21
24
25
24
20
17
14
14
11
7
2
-1
-2
-6
-10
-11
-12
-14
-16
-16
-17
-19
-20
-20
-19
-19
-19
-20
-20
-20
-18
-15
-15
-17
-17
-16
-16
-18
-20
-21
-18
-15
-7
7
31
57
84
108
130
147
165
170
159
127
94
68
51
40
28
15
-1
-14
-21
-26
-29
-36
-45
-51
-54
-56
-59
-58
-57
-57
-58
-60
-59
-62
-63
-64
-63
-64
-65
-66
-68
-68
-69
-69
-69
-71
-71
-73
-72
-74
-74
-75
-75
-74
-76
-74
-73
-72
-72
-70
-68
-66
-64
-63
-58
-57
-54
-52
-47
-44
-41
-37
-33
-30
-28
-23
-19
-17
-15
-12
-9
-8
-8
-6
-5
-4
-4
-3
-2
-2
-3
-3
-2
-3
-3
-3
-3
-3
-4
-3
-3
-3
-3
-3
-1
-2
-2
0
0
0
0
1
2
3
1
2
3
3
3
2
3
3
3
3
4
4
3
4
4
4
4
3
4
3
3
3
3
3
2
2
2
2
2
2
2
2
2
2
3
4
5
7
10
12
13
13
14
14
14
15
15
16
18
18
18
18
17
17
18
15
9
3
1
0
0
-2
-2
-1
-4
-4
-5
-5
-5
-6
-6
-10
-12
-11
-5
7
30
56
87
114
138
161
183
206
206
190
157
124
103
87
75
58
40
20
7
2
-1
-6
-12
-17
-24
-27
-27
-28
-29
-31
-30
-30
-31
-32
-33
-32
-33
-33
-34
-34
-36
-37
-36
-36
-38
-39
-38
-39
-40
-41
-42
-42
-43
-44
-44
-44
-44
-45
-43
-42
-43
-43
-41
-39
-38
-37
-36
-33
-31
-29
-26
-23
-21
-19
-16
-11
-7
-7
-4
-1
1
2
3
6
7
8
9
10
9
9
8
8
7
6
7
7
7
5
4
4
3
1
0
0
-1
-3
-4
-3
-3
-5
-8
-9
-9
-10
-10
-9
-9
-11
-12
-11
-10
-10
-11
-10
-9
-9
-9
-8
-6
-6
-5
-4
-2
-2
-3
-2
0
3
6
9
10
10
10
11
14
15
17
17
18
18
18
19
20
20
19
19
15
11
7
6
7
6
3
3
4
4
5
6
5
3
3
3
3
1
1
7
20
40
68
96
121
141
161
179
196
196
176
142
111
92
77
66
52
35
19
10
4
-2
-10
-17
-24
-29
-34
-35
-38
-37
-36
-35
-36
-38
-39
-38
-36
-38
-41
-39
-38
-39
-40
-40
-39
-40
-43
-44
-44
-45
-45
-46
-46
-48
-50
-48
-47
-48
-49
-48
-47
-47
-46
-44
-42
-41
-39
-37
-35
-34
-32
-28
-24
-22
-19
-15
-12
-10
-9
-5
-3
-1
0
5
12
15
19
22
23
20
17
15
14
12
8
4
0
-3
-6
-7
-9
-11
-13
-16
-17
-18
-19
-19
-19
-18
-19
-18
-18
-18
-17
-16
-15
-16
-16
-16
-15
-15
-16
-18
-20
-19
-17
-7
11
34
63
96
121
143
162
182
188
172
141
105
83
66
52
36
19
0
-15
-20
-24
-29
-36
-43
-47
-50
-51
-53
-54
-54
-56
-56
-56
-56
-58
-58
-58
-59
-60
-60
-61
-62
-63
-63
-63
-64
-66
-65
-64
-65
-67
-68
-66
-68
-68
-67
-64
-66
-66
-64
-61
-59
-60
-57
-54
-53
-51
-47
-42
-40
-37
-33
-27
-24
-21
-17
-13
-10
-7
-4
-2
-1
0
2
3
4
4
5
6
5
5
6
6
5
5
5
5
4
3
3
5
5
4
5
6
5
4
4
8
6
5
6
7
7
6
6
7
7
6
6
7
7
6
7
8
7
7
7
7
7
6
8
7
7
6
6
6
6
5
5
5
4
5
6
6
4
4
5
7
6
6
9
12
14
14
16
17
15
14
16
19
18
19
21
22
20
18
19
19
19
14
9
5
3
1
0
-1
-3
-4
-3
-3
-4
-4
-3
-5
-8
-11
-12
-11
-5
7
28
55
81
109
131
157
177
197
202
182
149
112
91
77
64
49
30
15
7
3
0
-4
-11
-19
-22
-23
-27
-30
-30
-29
-29
-29
-30
-31
-32
-33
-33
-34
-35
-36
-37
-38
-40
-40
-39
-39
-41
-42
-43
-44
-45
-46
-45
-44
-46
-49
-49
-47
-47
-46
-44
-43
-44
-44
-42
-41
-39
-37
-36
-35
-33
-31
-29
-27
-22
-19
-16
-14
-12
-10
-7
-6
-5
-5
-4
-4
-4
-4
-3
-1
-2
-3
-3
-4
-5
-6
-6
-6
-8
-10
-10
-11
-13
-16
-17
-17
-18
-20
-19
-19
-21
-22
-22
-22
-25
-26
-25
-26
-27
-26
-26
-26
-25
-23
-21
-20
-20
-21
-21
-21
-21
-19
-17
-14
-13
-11
-8
-6
-5
-6
-6
-4
-1
-1
0
2
4
3
3
4
2
1
1
0
-6
-10
-10
-10
-11
-13
-12
-11
-11
-11
-10
-10
-11
-12
-13
-14
-16
-14
-7
6
27
55
84
112
135
154
175
187
185
158
123
96
77
65
52
39
18
0
-8
-14
-21
-28
-35
-41
-47
-50
-51
-52
-54
-54
-53
-53
-54
-54
-53
-54
-56
-56
-56
-56
-58
-58
-57
-57
-58
-59
-58
-59
-60
-60
-60
-62
-63
-62
-62
-62
-63
-61
-60
-60
-59
-58
-55
-54
-53
-51
-48
-46
-44
-41
-37
-34
-33
-29
-25
-23
-21
-17
-13
-11
-11
-10
-7
-6
-6
-5
-2
-1
2
7
12
15
16
15
12
9
6
5
1
-5
-11
-14
-15
-18
-20
-21
-22
-23
-24
-23
-23
-23
-23
-22
-22
-21
-21
-20
-19
-20
-21
-19
-18
-20
-23
-24
-23
-22
-15
1
24
52
81
110
134
156
175
183
173
137
100
73
56
42
28
13
-7
-20
-27
-30
-34
-40
-49
-54
-57
-60
-63
-63
-63
-64
-65
-65
-65
-67
-68
-68
-67
-68
-70
-70
-71
-72
-73
-73
-73
-74
-76
-75
-74
-75
-75
-75
-74
-74
-74
-73
-72
-71
-70
-67
-66
-64
-63
-59
-57
-55
-52
-48
-45
-42
-39
-35
-30
-27
-24
-19
-16
-14
-12
-8
-5
-5
-4
-2
0
-1
-1
0
1
0
0
0
1
0
-1
0
1
0
0
0
1
0
0
1
1
2
3
4
4
4
5
6
6
7
7
7
6
5
6
8
8
7
6
7
7
6
6
6
6
5
5
6
5
4
4
7
8
5
4
5
5
3
3
4
5
4
4
5
4
2
3
4
6
9
12
13
13
12
13
14
16
16
17
17
18
18
17
17
15
15
14
10
4
0
0
-1
-2
-4
-6
-8
-9
-8
-7
-6
-8
-10
-13
-14
-13
-11
2
23
52
79
108
132
153
176
192
198
177
143
111
94
84
72
63
48
33
21
14
7
-1
-9
-16
-22
-27
-29
-30
-30
-31
-32
-32
-31
-32
-34
-35
-34
-36
-38
-37
-38
-40
-42
-42
-43
-44
-45
-45
-46
-48
-49
-49
-50
-52
-53
-52
-52
-53
-52
-51
-52
-52
-50
-49
-49
-48
-46
-43
-41
-41
-39
-35
-31
-30
-28
-24
-20
-18
-16
-12
-10
-9
-7
-5
-3
-3
-3
-2
-1
-3
-4
-3
-2
-4
-5
-5
-5
-7
-8
-8
-8
-11
-11
-13
-14
-16
-17
-18
-19
-20
-21
-21
-22
-24
-24
-24
-23
-24
-24
-23
-22
-21
-21
-20
-19
-19
-19
-17
-16
-16
-15
-13
-12
-12
-11
-9
-6
-3
-2
0
3
2
2
4
6
6
5
9
11
12
11
10
11
12
12
8
3
0
-1
-1
0
-1
-2
-2
-1
-2
-2
-1
-2
-4
-6
-7
-3
4
20
45
74
101
127
149
171
192
204
201
170
136
103
84
71
57
42
22
7
-2
-8
-14
-20
-28
-34
-36
-37
-40
-42
-42
-41
-40
-40
-40
-41
-41
-42
-42
-43
-44
-45
-46
-46
-48
-48
-49
-49
-51
-52
-52
-51
-52
-55
-55
-55
-55
-56
-55
-54
-54
-54
-52
-49
-49
-48
-46
-43
-40
-39
-36
-33
-30
-27
-23
-19
-16
-14
-11
-7
-5
-2
0
5
9
14
21
26
27
27
25
22
21
18
15
10
4
-1
-4
-4
-6
-10
-13
-13
-14
-17
-18
-17
-17
-18
-18
-17
-17
-17
-16
-14
-13
-14
-13
-12
-11
-11
-12
-12
-13
-16
-16
-13
-6
7
30
59
89
117
138
162
180
194
185
155
119
86
67
53
42
28
12
-2
-9
-14
-19
-24
-31
-38
-42
-44
-47
-50
-52
-51
-50
-51
-53
-52
-53
-54
-55
-55
-55
-57
-58
-59
-58
-59
-60
-60
-61
-62
-63
-63
-63
-64
-65
-64
-63
-63
-61
-60
-58
-57
-55
-53
-50
-48
-46
-44
-41
-40
-37
-31
-26
-23
-21
-17
-14
-12
-9
-4
0
1
2
3
3
4
5
7
7
6
4
5
6
6
7
6
5
5
5
5
4
4
3
4
4
4
4
6
6
5
6
8
8
6
6
6
7
8
9
10
10
9
7
8
7
5
5
7
9
8
8
8
8
7
6
6
5
6
5
6
6
5
4
4
5
4
6
8
8
6
6
7
10
12
13
13
12
13
14
17
18
17
18
20
20
17
16
16
17
16
14
9
4
0
-1
-1
-2
-5
-7
-7
-7
-8
-8
-8
-9
-13
-15
-15
-12
-2
15
41
69
97
122
143
165
182
194
181
150
114
91
77
67
55
39
21
7
-1
-8
-13
-19
-28
-34
-37
-40
-42
-44
-42
-43
-45
-45
-45
-45
-47
-47
-48
-48
-49
-50
-50
-50
-51
-53
-53
-53
-54
-54
-55
-55
-56
-55
-55
-55
-55
-56
-54
-54
-53
-52
-50
-48
-47
-45
-41
-38
-36
-34
-30
-27
-25
-23
-18
-14
-12
-9
-5
-2
-1
0
5
6
6
7
10
11
11
11
11
12
11
11
11
10
9
8
8
7
6
4
4
3
1
0
0
-1
-3
-4
-4
-5
-6
-7
-7
-8
-10
-12
-11
-10
-11
-12
-11
-10
-10
-11
-9
-7
-8
-9
-8
-6
-6
-8
-6
-3
-3
-2
0
4
6
7
9
10
10
11
13
14
13
14
18
19
18
17
18
19
18
14
9
6
3
2
3
3
2
0
1
2
2
1
2
1
-1
-4
-4
-1
8
25
49
81
110
135
159
179
201
208
200
167
127
98
80
67
51
36
17
4
-2
-7
-11
-18
-27
-34
-37
-39
-41
-43
-43
-44
-45
-46
-46
-46
-49
-51
-52
-51
-52
-54
-55
-54
-56
-58
-58
-58
-59
-61
-61
-61
-61
-63
-62
-62
-61
-61
-60
-57
-57
-56
-53
-51
-50
-47
-43
-41
-39
-36
-32
-29
-25
-22
-18
-16
-14
-11
-6
-3
-3
-1
1
2
1
1
4
4
3
2
3
3
2
1
1
1
0
-1
-2
-3
-5
-5
-5
-7
-9
-10
-9
-8
-8
-9
-9
-10
-11
-11
-11
-10
-10
-9
-9
-11
-11
-10
-9
-9
-10
-10
-10
-10
-11
-13
-13
-12
-12
-11
-10
-9
-7
-6
-2
-2
-3
-3
0
2
2
2
5
7
6
3
3
5
4
3
0
-5
-8
-9
-8
-8
-10
-10
-10
-9
-10
-10
-10
-9
-9
-10
-10
-12
-12
-7
6
29
58
90
119
140
160
180
197
198
173
139
104
84
70
59
49
32
15
3
-2
-8
-16
-25
-32
-37
-40
-43
-43
-44
-44
-45
-46
-47
-49
-49
-50
-52
-53
-53
-55
-56
-57
-58
-59
-61
-60
-62
-62
-63
-65
-63
-63
-63
-65
-63
-62
-62
-61
-59
-56
-55
-54
-52
-48
-46
-45
-41
-38
-35
-34
-29
-26
-24
-21
-17
-13
-10
-8
-6
-3
-1
0
2
4
4
4
5
6
5
5
6
6
4
3
3
2
1
0
-1
0
-1
-3
-3
-4
-4
-6
-5
-5
-5
-7
-6
-5
-6
-6
-5
-3
-3
-4
-3
-1
0
-2
-1
0
0
-1
-1
0
-1
-1
-1
0
1
3
5
7
8
9
9
9
10
10
12
14
16
15
15
14
12
14
14
12
6
2
0
1
0
0
-1
0
0
0
0
1
1
1
0
-1
-3
-4
-1
8
26
50
81
110
138
158
182
203
214
204
170
132
103
87
74
60
45
25
12
5
1
-3
-10
-17
-25
-29
-30
-32
-33
-35
-33
-34
-35
-37
-36
-37
-39
-41
-41
-41
-44
-45
-45
-46
-48
-50
-49
-50
-51
-52
-52
-52
-52
-53
-52
-51
-51
-50
-48
-46
-44
-42
-39
-38
-36
-34
-30
-27
-25
-22
-18
-14
-12
-9
-5
-1
0
3
6
8
9
10
14
15
15
15
17
16
15
14
15
15
13
13
13
12
10
9
9
7
6
4
4
3
2
3
2
1
0
0
1
1
0
1
3
3
2
3
4
4
4
5
6
6
4
4
5
5
4
5
6
8
8
9
12
14
14
13
12
12
12
14
18
20
18
16
14
12
13
15
14
8
4
1
0
0
0
1
1
1
0
0
0
0
1
2
0
-3
-5
-2
6
21
47
76
106
130
150
173
192
205
192
163
128
100
86
74
67
53
37
24
17
11
3
-5
-15
-24
-30
-33
-34
-35
-36
-36
-37
-39
-39
-38
-40
-43
-44
-43
-45
-48
-49
-49
-50
-52
-53
-52
-53
-55
-56
-55
-55
-56
-56
-54
-54
-56
-54
-52
-49
-49
-48
-46
-44
-42
-40
-36
-33
-30
-29
-25
-22
-20
-18
-14
-11
-9
-6
-2
0
0
2
4
5
5
5
6
6
5
4
5
5
4
2
3
2
1
0
-1
-2
-4
-6
-6
-6
-8
-9
-8
-8
-9
-11
-9
-8
-9
-9
-9
-8
-8
-8
-8
-7
-6
-6
-5
-5
-5
-5
-5
-5
-5
-5
-5
-4
-2
-1
0
1
2
2
3
3
4
4
5
8
10
11
10
10
7
6
7
6
2
-2
-4
-5
-5
-6
-6
-6
-7
-7
-7
-6
-6
-6
-6
-7
-9
-11
-10
-5
6
24
50
80
107
131
151
174
192
201
187
155
116
90
74
62
50
34
17
4
-1
-7
-13
-18
-26
-33
-36
-37
-38
-41
-41
-42
-43
-44
-45
-44
-45
-47
-48
-48
-49
-52
-52
-53
-53
-55
-56
-57
-57
-57
-58
-57
-58
-58
-58
-57
-56
-56
-54
-53
-51
-50
-47
-45
-43
-41
-39
-36
-33
-32
-30
-25
-20
-19
-16
-11
-8
-7
-4
0
1
1
3
6
7
7
7
9
9
8
7
8
8
7
6
5
4
3
3
1
0
-1
-2
-2
-2
-2
-3
-3
-3
-4
-5
-5
-4
-4
-5
-4
-3
-3
-3
-2
-1
-1
-1
-1
0
0
-1
0
0
-1
-1
1
3
3
3
5
7
6
5
7
9
9
10
13
14
14
11
10
10
11
10
6
3
0
-1
-1
-1
-1
-2
0
0
0
0
0
0
-1
-2
-3
-5
-6
0
13
37
65
91
120
140
164
183
198
194
164
128
98
82
70
58
44
28
16
10
7
2
-6
-16
-23
-27
-31
-33
-34
-36
-38
-39
-38
-39
-39
-39
-41
-42
-44
-45
-47
-50
-52
-51
-50
-50
-53
-54
-53
-54
-56
-56
-54
-54
-55
-55
-54
-53
-53
-51
-49
-47
-47
-45
-40
-38
-36
-34
-31
-30
-27
-24
-20
-17
-15
-13
-10
-7
-6
-3
0
2
2
2
4
4
4
5
5
4
3
2
2
1
0
-1
0
-2
-4
-5
-4
-5
-8
-9
-9
-10
-12
-13
-12
-11
-12
-13
-13
-13
-14
-14
-13
-12
-12
-12
-10
-10
-11
-11
-10
-9
-10
-10
-9
-10
-10
-10
-8
-6
-5
-5
-2
-1
-1
-2
0
1
1
3
5
7
5
2
2
2
2
0
-2
-6
-9
-11
-10
-10
-12
-12
-11
-11
-12
-12
-11
-10
-11
-12
-13
-14
-14
-8
3
22
48
75
105
128
148
170
189
198
179
148
115
93
80
67
57
42
25
10
3
0
-4
-12
-20
-25
-29
-31
-31
-32
-34
-35
-36
-36
-38
-39
-39
-40
-42
-44
-45
-46
-48
-50
-50
-51
-51
-53
-53
-54
-57
-57
-57
-57
-59
-60
-60
-60
-60
-60
-58
-57
-56
-56
-53
-51
-51
-49
-46
-42
-42
-40
-37
-34
-31
-29
-25
-22
-21
-19
-16
-13
-12
-12
-11
-10
-10
-9
-9
-9
-10
-10
-10
-11
-12
-13
-13
-14
-15
-17
-17
-17
-19
-20
-20
-19
-21
-21
-21
-21
-22
-21
-21
-20
-20
-21
-19
-17
-17
-18
-16
-14
-16
-17
-16
-15
-15
-17
-15
-15
-14
-13
-10
-8
-7
-6
-5
-6
-6
-6
-5
-4
-2
0
0
-1
-3
-4
-3
-4
-6
-10
-14
-15
-17
-17
-17
-16
-17
-19
-17
-15
-14
-16
-16
-16
-18
-21
-21
-16
-9
5
28
57
85
112
135
160
183
197
191
161
122
90
72
58
44
28
11
0
-7
-11
-16
-22
-31
-37
-40
-42
-44
-45
-44
-43
-44
-44
-44
-43
-44
-46
-46
-46
-46
-50
-50
-51
-53
-55
-54
-53
-56
-57
-57
-57
-58
-60
-59
-59
-58
-59
-59
-59
-58
-56
-53
-51
-52
-50
-50
-47
-44
-41
-37
-34
-33
-31
-29
-24
-21
-17
-12
-9
-5
0
6
12
15
18
18
16
13
10
8
6
1
-3
-6
-11
-15
-16
-15
-17
-20
-22
-22
-23
-27
-29
-28
-27
-27
-28
-27
-27
-28
-27
-26
-25
-25
-24
-24
-25
-25
-25
-26
-28
-27
-21
-9
8
30
59
90
113
133
150
166
165
140
106
73
55
40
29
17
2
-12
-23
-28
-32
-39
-46
-54
-61
-64
-66
-67
-69
-70
-70
-71
-70
-70
-71
-72
-73
-75
-75
-74
-74
-76
-78
-78
-80
-80
-81
-80
-81
-82
-83
-84
-83
-84
-83
-83
-82
-82
-81
-77
-77
-75
-74
-69
-68
-66
-63
-59
-55
-53
-49
-44
-41
-39
-35
-30
-27
-25
-22
-19
-17
-16
-15
-13
-12
-12
-12
-11
-11
-12
-12
-12
-12
-13
-13
-12
-14
-15
-15
-13
-13
-14
-14
-13
-13
-14
-14
-11
-10
-12
-11
-10
-9
-10
-10
-8
-8
-9
-10
-7
-7
-8
-9
-8
-8
-8
-9
-8
-9
-10
-10
-9
-10
-11
-11
-10
-10
-11
-11
-11
-11
-12
-13
-11
-11
-11
-12
-10
-9
-9
-7
-3
-1
-2
-2
-2
-1
-1
0
0
3
3
2
2
2
2
2
2
-3
-9
-13
-14
-14
-15
-16
-17
-18
-19
-20
-20
-21
-22
-24
-27
-30
-30
-25
-14
3
30
63
92
119
139
164
183
190
171
132
97
72
57
44
32
16
-2
-12
-17
-21
-27
-34
-41
-46
-49
-51
-51
-51
-52
-52
-52
-52
-54
-54
-54
-57
-58
-58
-57
-58
-59
-60
-59
-61
-62
-62
-62
-64
-66
-66
-65
-67
-68
-67
-67
-68
-68
-68
-66
-66
-65
-63
-61
-61
-61
-58
-56
-55
-53
-50
-46
-45
-42
-39
-36
-35
-31
-28
-26
-25
-23
-21
-20
-19
-19
-18
-17
-17
-16
-16
-16
-18
-18
-19
-20
-23
-24
-23
-23
-25
-27
-27
-27
-30
-31
-30
-30
-33
-33
-33
-34
-37
-36
-36
-36
-37
-38
-37
-37
-37
-36
-34
-35
-36
-35
-34
-33
-33
-31
-31
-31
-29
-25
-21
-19
-16
-15
-15
-15
-15
-12
-10
-9
-7
-4
-5
-7
-9
-8
-6
-6
-10
-15
-19
-22
-24
-23
-22
-22
-24
-25
-25
-25
-25
-23
-23
-25
-28
-30
-31
-27
-18
-1
22
49
78
102
121
142
162
174
160
132
93
67
53
42
33
20
5
-8
-15
-19
-26
-37
-48
-56
-61
-64
-66
-67
-67
-67
-68
-67
-67
-67
-68
-68
-68
-69
-70
-70
-70
-72
-72
-73
-73
-74
-74
-74
-75
-76
-78
-77
-78
-78
-78
-78
-78
-79
-77
-77
-76
-76
-74
-70
-69
-67
-66
-61
-60
-59
-57
-53
-48
-45
-43
-40
-36
-35
-32
-28
-26
-24
-21
-14
-8
-5
-4
-2
-3
-6
-10
-11
-12
-16
-23
-27
-29
-32
-34
-36
-39
-41
-42
-42
-43
-45
-46
-45
-44
-45
-45
-44
-42
-43
-42
-41
-41
-41
-41
-39
-39
-41
-43
-44
-41
-36
-24
-2
24
53
80
102
124
141
155
148
121
85
52
34
21
10
-2
-18
-32
-41
-47
-51
-56
-63
-70
-73
-75
-76
-79
-80
-80
-81
-81
-81
-81
-81
-83
-83
-84
-85
-87
-87
-87
-88
-89
-89
-90
-92
-93
-94
-94
-94
-94
-94
-94
-94
-95
-93
-91
-89
-89
-87
-84
-83
-81
-80
-76
-74
-71
-68
-65
-61
-58
-53
-50
-46
-44
-41
-36
-34
-33
-31
-28
-27
-26
-25
-23
-23
-23
-22
-22
-22
-24
-23
-21
-22
-24
-24
-23
-24
-25
-27
-25
-24
-26
-26
-25
-24
-25
-24
-23
-22
-22
-22
-22
-22
-23
-23
-22
-21
-20
-21
-20
-20
-21
-22
-22
-21
-22
-22
-21
-21
-22
-22
-21
-21
-23
-24
-22
-21
-22
-24
-24
-22
-23
-24
-23
-22
-23
-24
-22
-21
-21
-20
-17
-13
-13
-12
-12
-12
-12
-12
-11
-10
-8
-6
-5
-7
-8
-9
-8
-9
-13
-19
-24
-26
-27
-27
-29
-30
-32
-33
-32
-33
-34
-34
-34
-36
-38
-40
-37
-30
-17
4
33
65
88
113
136
161
177
173
147
108
77
57
43
30
16
0
-13
-20
-24
-28
-34
-43
-50
-55
-55
-57
-58
-58
-58
-58
-59
-59
-60
-60
-61
-62
-61
-62
-62
-65
-65
-66
-67
-66
-67
-67
-71
-71
-72
-70
-71
-72
-71
-71
-72
-73
-71
-69
-70
-70
-68
-68
-69
-68
-65
-62
-62
-60
-58
-56
-54
-52
-49
-46
-45
-43
-41
-38
-36
-34
-31
-30
-30
-30
-29
-29
-29
-31
-29
-29
-28
-30
-30
-31
-33
-34
-33
-33
-36
-37
-38
-38
-41
-43
-42
-43
-44
-46
-46
-46
-49
-49
-49
-48
-49
-49
-49
-48
-48
-48
-46
-46
-46
-47
-44
-43
-43
-43
-42
-41
-41
-39
-37
-34
-33
-30
-28
-25
-24
-24
-22
-19
-18
-20
-18
-15
-15
-17
-17
-15
-15
-15
-16
-21
-25
-28
-30
-29
-29
-31
-32
-31
-31
-30
-30
-29
-30
-31
-32
-34
-34
-33
-26
-12
8
35
64
91
113
130
152
166
166
140
101
73
54
43
31
20
4
-12
-22
-27
-32
-41
-50
-56
-61
-64
-66
-67
-66
-68
-67
-68
-67
-68
-68
-68
-68
-68
-69
-68
-69
-70
-70
-70
-71
-73
-73
-74
-74
-75
-75
-75
-76
-77
-78
-76
-77
-78
-77
-75
-74
-74
-71
-69
-67
-67
-65
-62
-60
-58
-57
-51
-48
-45
-42
-38
-36
-34
-30
-27
-25
-22
-15
-8
-4
0
2
2
0
-2
-4
-6
-10
-15
-20
-24
-27
-30
-31
-33
-36
-37
-38
-38
-39
-40
-41
-39
-39
-40
-40
-37
-37
-38
-37
-36
-36
-36
-34
-33
-34
-36
-38
-38
-38
-33
-22
-4
19
49
78
106
126
148
165
165
145
106
72
48
34
21
7
-7
-24
-35
-39
-42
-46
-55
-62
-66
-69
-70
-72
-72
-74
-74
-75
-74
-74
-76
-76
-76
-77
-79
-78
-78
-79
-80
-80
-80
-82
-83
-83
-83
-84
-84
-84
-85
-84
-85
-83
-82
-82
-81
-80
-77
-76
-74
-71
-69
-67
-64
-61
-58
-54
-51
-46
-42
-37
-35
-31
-28
-25
-23
-20
-16
-15
-13
-12
-10
-10
-10
-9
-8
-8
-10
-9
-8
-8
-10
-10
-9
-9
-10
-10
-9
-9
-8
-8
-8
-8
-8
-7
-5
-6
-6
-5
-4
-5
-5
-4
-2
-3
-3
-4
-3
-4
-4
-3
-3
-3
-4
-3
-3
-4
-5
-5
-3
-4
-4
-4
-3
-4
-5
-5
-4
-4
-5
-4
-3
-5
-6
-5
-4
-5
-4
-2
-1
0
1
3
3
4
5
8
8
8
7
8
10
10
9
9
7
6
6
3
-2
-6
-8
-8
-9
-11
-13
-13
-14
-14
-14
-14
-16
-19
-20
-19
-14
-1
19
45
71
99
121
144
163
178
179
159
123
91
72
60
49
36
20
7
0
-4
-9
-16
-25
-35
-39
-42
-45
-46
-46
-45
-47
-47
-49
-49
-50
-51
-50
-50
-51
-53
-52
-53
-55
-55
-55
-55
-57
-57
-58
-58
-59
-59
-58
-58
-57
-57
-55
-56
-55
-54
-53
-51
-50
-45
-42
-40
-39
-37
-33
-30
-28
-25
-21
-17
-14
-12
-8
-5
-3
-1
1
2
2
3
6
8
7
6
7
8
6
5
6
6
5
3
3
2
0
0
0
0
-2
-3
-4
-5
-7
-8
-8
-9
-9
-10
-10
-10
-11
-11
-11
-11
-11
-11
-9
-8
-9
-8
-7
-6
-6
-6
-4
-3
-3
-3
-1
0
0
0
3
6
8
9
11
14
14
15
18
17
17
18
21
22
22
20
20
22
22
21
18
14
11
11
12
11
11
11
11
11
11
13
11
10
7
7
11
19
33
57
84
111
136
155
180
199
213
202
170
135
106
90
75
64
48
30
18
10
4
-1
-6
-15
-22
-25
-28
-29
-31
-31
-32
-33
-34
-35
-34
-35
-36
-37
-38
-39
-41
-41
-41
-42
-42
-42
-43
-45
-46
-47
-47
-47
-48
-49
-48
-47
-48
-47
-45
-44
-43
-40
-37
-35
-33
-30
-26
-23
-20
-17
-13
-10
-7
-3
0
2
6
9
12
13
15
18
19
19
19
21
22
20
20
20
21
19
18
18
17
16
14
15
15
14
12
12
12
10
10
10
11
9
9
10
10
10
10
11
12
12
12
13
13
12
14
14
14
13
13
13
12
12
12
13
12
10
10
11
11
11
14
16
18
19
22
22
22
22
23
24
24
25
27
29
29
27
27
29
28
23
19
17
16
15
14
14
13
13
13
14
14
15
14
13
11
9
11
17
30
52
79
108
133
158
180
205
221
218
190
154
120
98
86
72
58
39
24
17
13
9
2
-6
-14
-19
-21
-23
-25
-27
-26
-26
-27
-29
-30
-29
-31
-32
-32
-33
-35
-37
-37
-36
-37
-37
-38
-39
-41
-41
-42
-42
-43
-44
-44
-44
-44
-44
-41
-40
-39
-38
-36
-34
-33
-31
-27
-23
-21
-20
-17
-13
-11
-8
-4
-1
0
2
5
7
8
8
10
13
14
13
13
13
12
12
13
14
12
11
10
10
10
8
6
6
5
3
3
3
1
0
0
1
0
0
0
0
0
0
0
1
1
0
0
1
2
1
0
1
1
0
0
0
0
-1
-2
-1
0
-1
-1
0
0
2
4
7
9
9
9
11
13
13
15
18
21
20
19
18
18
18
18
16
11
7
4
5
5
4
4
4
5
4
3
4
5
4
3
2
1
0
3
14
32
56
85
112
139
155
176
193
206
195
163
130
103
88
75
65
52
35
22
15
11
6
0
-7
-12
-15
-18
-20
-20
-21
-22
-22
-22
-22
-23
-24
-25
-26
-27
-28
-28
-29
-32
-33
-33
-33
-35
-36
-35
-37
-39
-39
-39
-39
-40
-40
-40
-40
-41
-41
-39
-38
-39
-38
-36
-34
-33
-32
-28
-27
-26
-24
-20
-18
-16
-13
-9
-6
-5
-3
0
0
1
3
5
5
4
4
5
6
5
4
4
4
2
1
2
1
0
-1
-1
-2
-3
-4
-4
-4
-5
-6
-5
-4
-5
-5
-4
-3
-4
-3
-2
-2
-2
-2
0
0
-1
-1
0
0
-1
-2
-1
0
-2
-3
-1
1
2
4
7
8
9
9
11
12
12
14
17
20
20
19
17
16
15
16
15
10
6
3
2
2
2
2
1
2
2
2
3
3
3
2
2
1
-1
0
6
17
37
63
93
118
141
164
188
208
207
187
149
116
93
77
64
49
30
12
4
1
-2
-6
-14
-20
-24
-26
-26
-26
-26
-26
-26
-26
-27
-27
-27
-27
-28
-27
-28
-30
-30
-31
-30
-31
-31
-33
-33
-33
-35
-35
-36
-36
-38
-38
-37
-38
-38
-38
-36
-36
-35
-33
-30
-29
-29
-26
-24
-21
-20
-16
-13
-10
-7
-3
0
2
4
9
14
20
26
32
37
39
38
36
34
32
29
25
18
13
10
9
9
6
3
1
1
0
-2
-2
-2
-4
-5
-4
-3
-5
-6
-5
-4
-4
-3
-3
-2
-2
-3
-1
0
0
0
-1
-2
-4
-2
6
21
44
72
103
128
147
168
184
195
181
150
116
87
71
56
44
30
14
2
-3
-6
-9
-15
-22
-27
-30
-33
-35
-35
-35
-37
-37
-36
-36
-38
-38
-38
-39
-40
-41
-43
-44
-45
-45
-45
-46
-47
-47
-47
-48
-48
-49
-48
-49
-50
-50
-48
-46
-46
-43
-42
-41
-40
-38
-36
-34
-32
-28
-24
-21
-20
-16
-12
-8
-5
-1
2
5
6
9
12
14
14
16
17
18
18
18
19
19
18
18
19
18
17
17
16
17
17
17
18
17
16
15
17
16
16
17
18
17
17
18
19
18
17
18
19
19
17
18
20
18
16
15
18
18
16
17
17
17
15
16
16
16
16
15
16
16
15
15
16
15
15
16
16
16
15
16
17
17
18
21
24
24
24
25
27
28
27
28
29
29
29
29
29
28
27
28
28
24
18
16
16
14
12
12
12
11
9
10
9
8
6
4
2
3
10
22
44
69
99
126
149
169
190
211
209
186
149
117
96
82
69
53
37
22
14
10
7
4
-4
-10
-13
-15
-16
-16
-16
-18
-18
-17
-17
-18
-19
-19
-19
-19
-21
-21
-20
-21
-23
-24
-24
-25
-26
-26
-26
-27
-27
-28
-29
-29
-30
-29
-28
-28
-28
-28
-28
-28
-26
-24
-22
-21
-18
-17
-14
-13
-11
-8
-5
-3
-1
2
5
7
9
11
13
14
15
16
18
17
17
17
18
17
15
16
15
13
12
12
13
11
10
8
7
5
5
4
3
2
1
1
0
0
0
1
0
0
0
0
0
-1
-1
0
0
-1
0
1
1
0
1
2
2
1
2
4
4
3
5
6
7
7
10
14
15
16
16
19
19
21
21
22
23
24
26
25
24
23
25
26
23
19
15
13
11
11
12
12
11
10
11
11
11
9
9
8
6
7
16
31
53
81
109
137
159
181
205
216
208
173
138
110
92
77
62
48
26
11
4
0
-3
-9
-16
-22
-26
-29
-30
-30
-31
-32
-32
-31
-31
-32
-32
-31
-31
-32
-31
-31
-32
-33
-33
-32
-33
-36
-35
-35
-36
-37
-37
-37
-38
-39
-38
-38
-39
-39
-37
-35
-34
-32
-31
-29
-29
-27
-24
-21
-19
-18
-15
-13
-11
-8
-4
-1
0
2
5
8
8
9
12
16
19
22
28
31
31
29
27
24
22
19
18
12
5
1
0
0
-2
-6
-7
-7
-9
-11
-11
-11
-12
-11
-9
-8
-10
-11
-10
-8
-7
-7
-6
-5
-5
-5
-5
-8
-11
-12
-8
0
14
38
66
96
118
139
156
176
180
165
136
100
75
58
48
36
20
3
-6
-9
-14
-18
-22
-29
-34
-39
-40
-40
-41
-42
-42
-43
-44
-44
-44
-44
-45
-45
-46
-48
-49
-49
-49
-49
-50
-51
-51
-52
-53
-53
-52
-53
-54
-53
-52
-51
-51
-51
-49
-48
-47
-46
-44
-42
-41
-39
-35
-32
-30
-26
-23
-20
-18
-16
-13
-10
-7
-5
-2
0
2
3
6
7
6
8
9
9
8
9
10
10
9
9
11
10
10
10
11
10
9
9
11
12
12
14
14
14
12
12
14
15
14
14
15
16
15
14
14
14
13
15
15
15
14
15
16
15
15
14
15
15
14
14
15
15
14
15
14
14
13
14
14
14
13
13
14
13
12
12
13
14
13
15
16
18
19
21
23
22
21
22
25
24
24
26
27
27
26
26
25
25
23
21
16
11
8
7
7
5
5
5
5
4
4
4
3
1
-2
-1
3
13
31
55
84
112
140
162
186
205
212
195
163
127
102
88
74
60
42
25
15
8
5
2
-4
-11
-16
-17
-20
-21
-21
-21
-22
-22
-22
-22
-22
-23
-23
-23
-24
-26
-26
-26
-28
-29
-29
-29
-29
-30
-31
-32
-33
-34
-34
-34
-35
-35
-35
-34
-35
-34
-34
-33
-32
-31
-29
-27
-25
-25
-23
-22
-20
-18
-15
-11
-9
-6
-4
0
0
2
4
5
6
6
7
8
9
8
9
9
8
6
5
6
4
2
2
3
1
-1
-2
-2
-3
-6
-8
-7
-8
-10
-11
-11
-12
-13
-15
-14
-15
-15
-15
-14
-13
-14
-14
-12
-10
-10
-11
-10
-8
-7
-8
-6
-5
-4
-3
-3
-3
-4
-3
-1
1
0
1
4
8
9
9
12
13
14
14
15
17
17
18
18
20
17
16
17
19
16
10
6
5
6
4
4
4
5
6
5
6
5
3
1
0
0
1
9
22
44
68
99
123
145
164
184
202
198
178
141
110
91
77
64
50
34
15
5
1
-1
-8
-17
-24
-28
-31
-34
-36
-35
-36
-37
-37
-36
-38
-39
-38
-38
-39
-40
-40
-39
-39
-39
-39
-39
-40
-41
-41
-41
-42
-44
-44
-45
-45
-45
-45
-45
-44
-44
-44
-43
-42
-40
-37
-35
-34
-34
-31
-28
-26
-24
-20
-17
-14
-12
-9
-5
-3
0
2
5
6
7
12
19
23
25
27
28
26
22
20
18
16
11
6
2
-1
-3
-4
-7
-10
-12
-12
-13
-14
-15
-14
-13
-14
-14
-14
-13
-13
-14
-12
-11
-11
-11
-10
-8
-9
-11
-11
-13
-16
-18
-13
-3
12
36
65
99
122
144
163
183
187
168
136
103
80
63
51
37
18
1
-8
-13
-16
-21
-27
-35
-40
-45
-46
-47
-49
-49
-50
-49
-51
-52
-53
-52
-54
-56
-55
-56
-58
-60
-59
-59
-61
-62
-62
-63
-65
-65
-64
-64
-64
-65
-64
-64
-63
-64
-62
-61
-60
-58
-56
-54
-53
-50
-47
-43
-41
-37
-34
-31
-28
-25
-21
-19
-16
-15
-12
-9
-9
-8
-5
-3
-4
-3
-2
0
-1
0
0
1
1
1
2
2
2
1
2
3
3
3
5
6
5
5
6
7
7
6
7
7
8
8
9
9
8
7
8
9
8
9
9
9
8
7
7
8
8
6
7
7
7
5
6
7
5
4
6
6
4
2
3
4
4
2
4
3
2
1
3
4
2
2
4
6
7
9
11
11
12
12
14
15
15
14
16
18
17
16
15
15
14
13
11
6
1
-2
-3
-4
-6
-7
-7
-6
-6
-7
-7
-6
-9
-13
-14
-12
-7
3
24
53
83
111
136
159
181
201
208
190
150
116
89
75
62
48
31
12
2
-3
-7
-12
-20
-28
-33
-35
-36
-37
-37
-37
-37
-38
-37
-36
-37
-38
-39
-38
-39
-39
-40
-41
-41
-42
-43
-44
-44
-46
-46
-46
-47
-48
-50
-49
-50
-50
-51
-50
-50
-51
-50
-49
-48
-48
-46
-43
-42
-40
-38
-36
-34
-31
-29
-27
-25
-22
-19
-16
-14
-12
-9
-6
-5
-6
-4
-4
-4
-5
-4
-3
-5
-6
-7
-7
-7
-9
-9
-10
-11
-14
-15
-16
-17
-19
-20
-21
-22
-24
-26
-27
-28
-29
-28
-29
-30
-31
-30
-29
-29
-28
-28
-26
-27
-28
-27
-25
-23
-23
-21
-20
-20
-21
-20
-19
-18
-19
-18
-16
-16
-16
-15
-12
-10
-8
-5
-3
-2
-2
0
1
2
2
3
5
6
5
5
4
4
5
4
1
-2
-5
-6
-6
-6
-8
-8
-7
-7
-8
-7
-5
-7
-10
-13
-12
-8
2
20
48
78
105
132
151
173
189
199
188
154
118
90
76
63
52
36
16
3
-4
-10
-15
-23
-31
-38
-42
-45
-47
-48
-49
-50
-51
-50
-51
-50
-51
-51
-51
-52
-53
-53
-52
-52
-53
-53
-53
-53
-55
-54
-54
-54
-56
-56
-56
-56
-57
-57
-55
-55
-55
-54
-52
-51
-50
-47
-44
-42
-40
-37
-35
-32
-29
-25
-22
-19
-15
-12
-9
-7
-4
-1
1
4
8
14
19
23
25
27
26
22
19
17
15
9
3
-1
-3
-6
-10
-11
-13
-15
-17
-17
-17
-19
-19
-19
-18
-18
-18
-17
-15
-15
-15
-14
-13
-14
-13
-12
-13
-13
-13
-14
-17
-21
-20
-16
-5
12
40
72
104
132
156
180
197
201
179
142
106
81
65
51
38
20
1
-7
-12
-15
-21
-28
-36
-42
-45
-47
-47
-49
-49
-49
-50
-50
-51
-50
-51
-51
-53
-54
-55
-56
-56
-57
-56
-58
-59
-59
-60
-60
-61
-60
-61
-61
-62
-61
-61
-61
-59
-57
-56
-55
-52
-50
-48
-46
-43
-40
-38
-35
-31
-27
-24
-21
-19
-15
-12
-10
-7
-5
-3
-3
-1
0
0
0
2
3
4
4
4
5
6
6
6
7
8
7
8
8
9
9
10
12
13
13
13
14
14
13
14
16
16
15
16
18
18
17
17
19
19
18
18
19
20
19
19
19
19
18
17
17
17
16
17
17
17
16
15
16
15
15
15
16
15
14
14
14
15
13
13
14
15
14
13
13
13
12
12
15
18
19
19
22
24
23
24
26
27
25
24
26
26
24
22
22
23
21
18
13
8
4
3
3
3
3
2
2
1
1
1
1
0
-3
-3
0
8
24
49
80
110
135
158
178
200
211
203
174
135
108
88
76
64
51
33
20
14
8
3
-3
-11
-18
-22
-23
-25
-26
-27
-27
-27
-28
-27
-27
-27
-28
-29
-29
-30
-31
-32
-32
-33
-34
-34
-35
-36
-38
-38
-38
-38
-39
-40
-39
-40
-41
-42
-42
-42
-42
-41
-39
-38
-38
-36
-34
-33
-31
-30
-27
-25
-23
-22
-18
-14
-12
-10
-7
-5
-3
-1
0
0
0
3
3
2
1
2
1
0
-1
-1
-1
-2
-4
-4
-4
-6
-8
-9
-10
-13
-15
-15
-15
-17
-19
-21
-20
-21
-23
-23
-22
-22
-22
-21
-21
-21
-21
-19
-18
-17
-16
-16
-15
-14
-14
-13
-11
-10
-10
-8
-7
-8
-8
-7
-5
-5
-5
-4
-2
-1
0
3
7
8
9
10
12
13
12
13
14
15
16
16
16
15
15
15
14
9
4
2
2
2
1
1
1
1
0
1
1
0
-1
-4
-5
-4
2
15
39
68
98
129
150
173
193
214
215
187
149
113
91
73
58
42
24
7
-4
-9
-13
-21
-29
-36
-39
-43
-47
-48
-48
-49
-51
-51
-52
-53
-54
-54
-55
-56
-57
-58
-57
-58
-58
-57
-58
-59
-59
-59
-59
-59
-59
-58
-57
-56
-56
-56
-56
-56
-55
-53
-51
-51
-50
-47
-45
-44
-43
-40
-36
-34
-32
-28
-24
-21
-20
-16
-10
-8
-7
-4
0
2
3
7
12
17
21
25
27
26
23
20
18
14
10
4
0
-4
-8
-10
-13
-16
-18
-19
-19
-20
-22
-21
-20
-21
-23
-23
-20
-20
-22
-21
-19
-20
-21
-21
-19
-19
-21
-22
-22
-23
-27
-29
-25
-20
-9
10
38
71
101
131
154
180
196
197
173
136
100
77
62
47
32
15
-1
-11
-17
-21
-26
-33
-41
-47
-48
-52
-55
-57
-56
-54
-56
-55
-55
-54
-56
-57
-57
-58
-59
-61
-61
-62
-62
-63
-64
-63
-64
-65
-65
-64
-65
-66
-66
-66
-66
-66
-65
-63
-61
-60
-58
-56
-54
-52
-50
-48
-46
-43
-40
-35
-32
-29
-26
-23
-21
-18
-16
-13
-11
-11
-9
-8
-8
-8
-8
-6
-6
-7
-6
-6
-6
-6
-6
-5
-4
-4
-2
0
0
-1
0
1
1
2
4
5
5
5
7
8
8
8
9
10
10
9
9
10
9
8
8
9
8
7
8
10
9
8
9
9
8
6
8
9
8
6
6
8
7
5
5
6
5
3
3
4
5
3
3
3
3
1
2
3
2
1
1
3
3
4
8
9
9
9
11
12
12
12
11
11
10
10
10
9
6
5
6
5
0
-5
-8
-8
-9
-9
-9
-9
-9
-10
-9
-7
-8
-11
-13
-14
-12
-6
8
31
59
90
119
141
160
182
198
198
169
134
101
83
69
57
44
27
11
1
-3
-9
-17
-26
-32
-36
-40
-43
-43
-44
-46
-46
-45
-45
-48
-48
-49
-49
-50
-50
-51
-52
-53
-55
-54
-55
-55
-57
-57
-58
-60
-59
-60
-60
-62
-62
-62
-63
-62
-62
-60
-60
-58
-57
-55
-54
-53
-50
-49
-46
-45
-40
-36
-34
-32
-28
-23
-20
-18
-15
-10
-7
-5
-3
0
0
0
1
3
3
3
3
3
2
1
1
1
0
-1
-2
-3
-5
-7
-8
-9
-11
-13
-14
-16
-17
-18
-18
-18
-19
-19
-18
-17
-17
-17
-15
-13
-12
-13
-12
-11
-11
-11
-10
-8
-8
-9
-9
-7
-7
-7
-7
-5
-5
-6
-5
-3
-3
-4
-3
-2
-1
0
2
5
6
8
10
11
12
12
13
14
14
15
18
18
16
13
14
16
17
12
7
4
3
1
1
2
3
0
1
2
2
0
-1
-3
-5
-5
0
15
34
62
90
121
147
168
193
209
214
188
149
115
92
76
60
47
28
9
0
-7
-11
-18
-25
-30
-34
-36
-39
-39
-40
-41
-41
-42
-42
-43
-42
-42
-43
-45
-47
-47
-48
-50
-51
-51
-52
-54
-54
-54
-54
-56
-56
-57
-57
-58
-58
-58
-58
-58
-58
-56
-55
-53
-52
-51
-50
-49
-46
-43
-41
-39
-35
-33
-30
-28
-25
-21
-19
-18
-15
-12
-12
-12
-10
-8
-9
-9
-8
-8
-8
-10
-11
-10
-11
-11
-11
-11
-12
-14
-15
-16
-16
-18
-18
-18
-18
-20
-20
-20
-19
-18
-17
-16
-17
-19
-18
-17
-18
-19
-18
-18
-19
-21
-20
-19
-19
-20
-20
-18
-17
-19
-18
-16
-15
-17
-16
-14
-14
-14
-13
-12
-12
-13
-12
-9
-7
-6
-5
-1
0
0
2
5
6
6
7
8
8
9
10
9
9
9
9
9
5
0
-3
-2
-2
-2
-3
-2
-3
-3
-2
-2
-2
-5
-8
-8
-7
-3
8
29
57
86
115
140
161
181
199
201
181
142
110
89
75
63
48
33
15
3
-3
-8
-16
-25
-33
-38
-43
-46
-46
-47
-47
-48
-48
-48
-48
-48
-48
-47
-47
-49
-49
-48
-49
-48
-47
-46
-48
-50
-50
-49
-49
-51
-50
-50
-50
-52
-51
-50
-51
-51
-50
-47
-47
-46
-44
-42
-40
-39
-36
-34
-31
-29
-25
-22
-19
-15
-11
-7
-4
0
6
12
16
22
26
28
25
22
21
19
17
12
8
4
0
-2
-2
-4
-8
-11
-11
-12
-14
-15
-14
-15
-17
-18
-17
-17
-18
-18
-16
-15
-16
-16
-16
-16
-16
-15
-13
-15
-16
-18
-20
-22
-22
-15
-2
17
46
78
111
137
155
177
192
192
166
128
99
76
62
48
35
18
1
-9
-15
-19
-25
-32
-38
-42
-45
-47
-48
-48
-50
-50
-51
-51
-52
-53
-53
-54
-55
-56
-56
-57
-58
-58
-58
-60
-62
-62
-63
-62
-64
-64
-64
-65
-65
-66
-65
-65
-65
-64
-62
-61
-61
-58
-56
-53
-52
-49
-46
-43
-40
-37
-34
-31
-27
-25
-22
-20
-18
-16
-14
-12
-10
-9
-8
-7
-7
-6
-5
-4
-5
-5
-4
-3
-3
-2
-1
-1
-1
-1
0
0
0
0
2
3
2
2
4
4
3
3
5
6
4
4
5
6
5
6
6
7
5
5
6
6
6
5
6
5
4
3
4
4
4
3
3
3
3
3
3
3
3
2
2
2
1
1
2
2
0
0
1
1
0
-1
0
0
0
0
3
5
5
5
7
7
7
8
8
8
7
10
11
10
7
6
6
6
2
-3
-7
-9
-11
-11
-11
-12
-12
-11
-11
-11
-12
-12
-13
-15
-15
-12
-1
16
42
70
102
126
147
172
192
202
183
148
111
86
70
55
43
27
8
-3
-8
-11
-18
-25
-32
-38
-40
-41
-40
-41
-41
-40
-41
-42
-43
-42
-41
-42
-42
-42
-43
-44
-45
-45
-44
-45
-46
-46
-47
-48
-48
-48
-49
-50
-51
-50
-50
-50
-50
-49
-48
-49
-48
-46
-44
-44
-45
-42
-40
-38
-36
-34
-32
-30
-29
-25
-21
-19
-17
-15
-12
-12
-11
-9
-8
-8
-7
-6
-7
-8
-8
-7
-8
-10
-11
-11
-12
-14
-15
-15
-15
-17
-19
-20
-21
-23
-25
-25
-25
-28
-29
-29
-30
-32
-32
-31
-30
-30
-31
-29
-29
-29
-29
-28
-26
-26
-25
-24
-24
-23
-22
-21
-20
-21
-19
-17
-17
-17
-17
-14
-15
-16
-16
-15
-14
-13
-11
-8
-6
-5
-4
-2
0
0
0
1
1
2
3
4
3
1
3
4
2
-3
-7
-9
-10
-10
-10
-10
-10
-10
-9
-9
-10
-12
-14
-17
-18
-14
-4
12
35
63
93
119
140
160
180
191
177
145
106
83
65
51
38
23
5
-10
-17
-21
-27
-36
-43
-48
-52
-55
-56
-58
-58
-59
-59
-59
-61
-61
-61
-62
-65
-65
-65
-64
-64
-65
-66
-68
-68
-67
-66
-65
-66
-65
-66
-66
-67
-66
-66
-64
-64
-64
-62
-61
-59
-59
-56
-54
-54
-53
-51
-47
-45
-43
-41
-36
-34
-32
-29
-25
-23
-21
-18
-15
-14
-12
-9
-8
-5
-3
0
4
8
12
14
15
13
10
8
6
3
0
-6
-10
-13
-15
-16
-18
-22
-24
-25
-24
-23
-25
-26
-25
-23
-25
-25
-24
-23
-24
-24
-24
-24
-24
-25
-24
-24
-28
-31
-30
-25
-13
5
32
60
88
116
138
161
175
177
159
123
90
65
53
42
30
14
-2
-13
-19
-21
-23
-30
-39
-46
-51
-54
-54
-53
-52
-53
-55
-55
-54
-53
-56
-57
-57
-58
-61
-62
-62
-62
-62
-63
-66
-68
-70
-70
-69
-67
-69
-72
-72
-73
-72
-71
-67
-67
-67
-67
-67
-64
-63
-59
-59
-57
-55
-52
-48
-46
-43
-40
-36
-33
-31
-29
-27
-22
-17
-13
-14
-17
-20
-19
-14
-13
-15
-16
-14
-14
-14
-12
-11
-12
-14
-14
-13
-10
-6
-5
-4
-4
-8
-8
-4
1
2
1
3
3
1
1
2
1
0
0
2
3
4
4
4
5
5
5
7
7
7
7
9
8
6
7
7
8
7
7
7
9
10
8
9
8
7
7
9
8
5
4
4
5
7
8
5
3
3
4
3
3
3
3
4
5
6
7
9
11
11
11
12
13
13
14
14
14
11
9
7
6
7
9
9
5
0
0
0
0
-1
-4
-4
-1
2
2
2
1
0
-1
-2
1
14
32
54
79
102
128
147
169
188
202
194
160
127
102
93
85
77
64
47
34
26
21
13
4
-6
-16
-23
-29
-32
-28
-23
-23
-28
-31
-32
-32
-30
-29
-31
-34
-35
-31
-27
-29
-35
-40
-42
-43
-43
-39
-34
-30
-32
-42
-49
-49
-44
-42
-44
-46
-42
-32
-25
-30
-40
-42
-37
-31
-33
-36
-32
-22
-17
-17
-17
-16
-10
0
7
6
1
1
10
20
26
27
27
28
26
27
26
22
20
22
23
23
22
22
23
21
17
14
14
17
18
14
9
8
7
5
5
10
13
15
17
16
10
1
-2
3
9
14
17
15
8
4
9
15
18
17
21
22
18
13
14
21
26
30
27
20
15
15
19
20
21
23
29
32
33
33
34
36
44
49
40
30
29
36
39
35
32
36
44
49
48
37
28
24
24
27
29
28
25
25
25
24
21
20
21
23
27
29
37
55
78
104
133
160
177
195
210
216
203
180
158
140
125
109
98
80
62
52
46
39
27
14
0
-11
-18
-19
-20
-19
-16
-16
-20
-24
-25
-24
-28
-33
-36
-35
-33
-33
-34
-36
-34
-31
-32
-39
-44
-44
-43
-43
-43
-43
-46
-52
-56
-55
-52
-51
-51
-51
-50
-48
-46
-42
-40
-38
-32
-24
-25
-35
-41
-32
-23
-19
-15
-6
4
9
9
10
12
8
4
4
8
16
22
25
20
16
20
27
29
19
11
8
11
15
16
13
12
14
16
18
17
18
13
5
2
6
11
11
8
7
10
13
11
8
6
5
4
7
12
12
5
-2
-4
1
9
12
9
2
-4
-6
-3
0
2
2
0
0
1
4
6
9
12
10
11
14
19
18
17
15
13
15
20
27
28
24
17
15
19
21
21
19
15
9
4
4
6
10
13
12
9
7
8
9
6
1
0
7
23
47
80
108
134
159
184
215
233
234
204
164
134
117
110
98
84
63
47
37
29
22
11
0
-13
-21
-26
-28
-27
-26
-27
-28
-30
-32
-32
-31
-32
-34
-35
-37
-41
-44
-42
-41
-44
-47
-45
-45
-47
-51
-54
-56
-58
-58
-56
-58
-61
-63
-60
-59
-59
-58
-55
-55
-56
-53
-51
-49
-48
-45
-42
-39
-36
-34
-29
-26
-22
-18
-15
-14
-15
-12
-10
-9
-9
-9
-6
-5
-5
-5
-5
-7
-10
-10
-7
-7
-9
-10
-10
-14
-16
-15
-16
-18
-19
-19
-19
-19
-19
-18
-17
-17
-18
-18
-16
-17
-17
-16
-16
-17
-17
-14
-15
-15
-16
-17
-17
-17
-17
-19
-18
-18
-18
-17
-17
-18
-18
-16
-15
-13
-11
-7
-4
-3
-2
-1
0
0
0
0
1
4
6
6
5
4
3
3
2
0
-6
-10
-13
-12
-11
-10
-10
-12
-12
-11
-10
-10
-10
-10
-13
-17
-18
-15
-8
2
24
50
79
106
132
156
178
194
195
174
138
104
79
66
57
46
33
20
13
8
1
-6
-19
-33
-45
-51
-54
-58
-58
-58
-58
-59
-60
-60
-60
-61
-64
-64
-64
-65
-67
-65
-63
-66
-68
-69
-67
-70
-71
-72
-73
-73
-75
-74
-75
-75
-75
-73
-72
-74
-76
-76
-74
-74
-70
-66
-65
-65
-62
-57
-53
-51
-49
-45
-41
-38
-35
-30
-25
-20
-12
-4
1
4
6
5
3
0
-2
-3
-6
-10
-14
-17
-20
-24
-29
-31
-32
-35
-36
-35
-35
-36
-38
-37
-38
-40
-41
-39
-37
-38
-38
-36
-34
-33
-32
-31
-33
-36
-40
-41
-42
-42
-39
-29
-12
10
40
71
97
120
141
159
163
147
117
82
61
46
35
24
11
-3
-13
-19
-28
-39
-50
-58
-64
-70
-72
-73
-75
-77
-78
-77
-78
-80
-80
-81
-80
-81
-82
-83
-84
-85
-86
-84
-84
-85
-87
-88
-89
-89
-88
-89
-88
-89
-87
-87
-86
-85
-84
-82
-83
-82
-80
-76
-75
-74
-71
-68
-64
-61
-56
-54
-52
-49
-45
-40
-39
-38
-36
-32
-30
-29
-25
-20
-20
-26
-29
-28
-24
-23
-22
-21
-21
-21
-19
-19
-20
-20
-19
-17
-17
-17
-16
-15
-14
-12
-11
-13
-13
-14
-13
-11
-11
-11
-9
-7
-8
-8
-8
-7
-8
-8
-7
-10
-14
-14
-11
-10
-11
-11
-11
-10
-12
-13
-13
-11
-11
-11
-9
-9
-11
-13
-14
-16
-17
-16
-15
-15
-16
-16
-16
-16
-16
-16
-16
-17
-16
-13
-6
-2
-3
-7
-10
-10
-8
-5
-2
-2
-4
-4
-3
-4
-7
-8
-8
-12
-18
-22
-22
-22
-26
-30
-31
-29
-27
-26
-25
-26
-28
-31
-33
-33
-32
-22
-4
20
51
79
105
129
149
169
177
170
139
102
75
58
46
34
24
9
-3
-11
-15
-19
-27
-40
-51
-59
-64
-65
-61
-56
-57
-61
-65
-67
-68
-66
-65
-65
-66
-66
-66
-66
-66
-68
-68
-69
-72
-74
-74
-73
-74
-73
-75
-76
-77
-78
-76
-75
-75
-78
-78
-77
-75
-77
-77
-72
-71
-70
-68
-62
-60
-59
-57
-53
-47
-46
-44
-39
-34
-32
-30
-25
-22
-19
-18
-15
-13
-12
-10
-9
-10
-11
-10
-7
-6
-8
-10
-11
-11
-12
-11
-11
-12
-15
-18
-19
-19
-20
-22
-23
-25
-26
-29
-29
-29
-30
-31
-30
-27
-27
-29
-29
-29
-29
-29
-28
-25
-24
-24
-23
-21
-20
-21
-19
-18
-18
-19
-19
-20
-21
-20
-18
-17
-16
-13
-10
-8
-6
-4
-3
-1
0
0
0
3
5
5
4
2
1
2
3
1
-4
-8
-8
-7
-8
-10
-10
-8
-7
-8
-8
-8
-9
-12
-14
-12
-10
-2
14
40
68
97
123
146
170
189
198
181
147
111
89
76
65
56
42
29
19
13
8
1
-8
-19
-26
-29
-32
-34
-35
-34
-35
-36
-37
-36
-37
-40
-40
-40
-40
-43
-44
-43
-44
-46
-47
-46
-47
-49
-50
-50
-50
-51
-52
-52
-53
-55
-53
-53
-53
-52
-51
-49
-50
-49
-47
-44
-42
-41
-39
-36
-33
-32
-29
-26
-23
-21
-19
-15
-12
-12
-10
-7
-5
-5
-5
-3
-3
-4
-4
-2
-1
-3
-4
-3
-4
-6
-6
-5
-6
-7
-9
-9
-9
-11
-11
-11
-11
-12
-12
-11
-10
-10
-10
-9
-8
-8
-8
-8
-8
-7
-7
-7
-7
-9
-11
-10
-9
-9
-10
-10
-9
-9
-10
-8
-7
-7
-8
-7
-5
-4
-3
0
3
4
6
8
9
8
8
11
12
12
14
16
17
16
14
15
17
17
13
8
3
0
0
2
2
1
0
1
2
3
4
4
4
1
-2
-3
0
5
19
41
69
96
122
148
167
188
198
191
164
128
104
89
82
73
64
51
40
34
28
22
10
-2
-15
-23
-28
-32
-33
-33
-34
-35
-36
-35
-35
-37
-38
-37
-35
-37
-37
-37
-38
-41
-41
-41
-42
-43
-45
-44
-45
-47
-48
-48
-48
-50
-48
-47
-46
-47
-47
-45
-45
-44
-42
-39
-37
-35
-33
-30
-28
-26
-24
-21
-18
-14
-10
-7
-4
1
8
15
21
25
28
28
25
22
20
19
18
13
8
5
3
0
-2
-3
-5
-8
-10
-11
-12
-14
-14
-15
-15
-17
-16
-15
-14
-15
-14
-14
-13
-12
-12
-12
-12
-12
-14
-16
-18
-17
-11
2
22
47
79
105
130
147
169
183
179
157
121
94
76
66
55
45
31
16
8
4
0
-9
-22
-31
-39
-42
-44
-46
-46
-47
-47
-48
-47
-49
-50
-50
-51
-52
-54
-55
-58
-58
-58
-58
-58
-59
-59
-61
-61
-62
-63
-63
-62
-62
-63
-62
-62
-61
-61
-61
-59
-58
-57
-55
-52
-50
-48
-45
-41
-39
-37
-34
-30
-27
-27
-24
-21
-17
-16
-14
-11
-8
-7
-5
-3
-2
-2
-1
0
0
0
0
1
2
1
1
1
3
3
3
4
5
4
4
4
5
4
5
7
8
6
6
7
8
8
8
9
10
9
8
9
10
9
7
8
8
7
8
8
8
6
6
7
7
6
6
5
4
3
3
3
3
2
3
2
3
2
2
3
3
4
3
3
1
0
0
2
4
4
6
9
10
9
10
12
13
12
10
12
13
13
12
11
10
10
10
8
4
-2
-4
-4
-6
-8
-9
-9
-9
-8
-8
-8
-11
-14
-15
-14
-11
0
22
49
77
104
128
152
173
191
192
172
135
105
84
74
64
53
41
28
21
18
14
6
-6
-18
-23
-25
-27
-29
-29
-30
-30
-31
-29
-28
-30
-32
-33
-33
-36
-36
-34
-34
-35
-38
-40
-41
-41
-41
-41
-41
-43
-44
-46
-46
-48
-47
-45
-47
-50
-50
-48
-47
-48
-47
-44
-41
-40
-39
-37
-35
-34
-32
-30
-28
-26
-22
-18
-15
-14
-13
-12
-10
-7
-6
-5
-5
-3
-3
-3
-3
-2
-1
-2
-3
-4
-5
-5
-6
-8
-9
-8
-9
-11
-13
-13
-14
-17
-18
-18
-20
-22
-22
-21
-23
-24
-23
-21
-20
-22
-21
-20
-19
-19
-17
-17
-16
-15
-14
-13
-14
-13
-13
-13
-12
-11
-10
-8
-7
-8
-7
-6
-3
-1
0
2
3
4
5
8
8
8
8
11
12
12
11
10
11
11
10
6
2
0
0
0
0
0
0
0
0
0
0
-1
-3
-6
-6
-3
7
24
50
78
106
130
149
171
187
197
182
152
121
97
84
73
63
48
31
19
10
3
-4
-13
-23
-31
-34
-36
-38
-41
-42
-41
-43
-44
-45
-43
-44
-45
-44
-43
-44
-45
-45
-44
-44
-46
-46
-45
-45
-46
-47
-46
-47
-47
-47
-45
-46
-47
-45
-45
-45
-44
-41
-40
-39
-37
-35
-32
-31
-29
-27
-24
-22
-20
-17
-13
-11
-9
-5
-1
0
1
3
6
7
8
10
13
16
20
24
29
30
28
25
22
19
16
13
7
1
-1
-3
-4
-7
-10
-11
-12
-12
-13
-12
-12
-12
-13
-11
-11
-10
-10
-10
-10
-11
-10
-10
-10
-13
-16
-17
-14
-6
10
37
65
95
118
143
164
181
183
163
130
95
71
57
47
37
21
6
-3
-8
-12
-18
-26
-38
-44
-46
-48
-50
-52
-50
-52
-53
-54
-54
-54
-56
-57
-58
-57
-60
-62
-62
-62
-63
-65
-67
-68
-68
-70
-69
-69
-71
-72
-72
-70
-71
-70
-68
-67
-67
-67
-65
-64
-62
-61
-58
-55
-53
-52
-49
-44
-41
-36
-33
-29
-29
-26
-22
-19
-18
-17
-16
-13
-13
-13
-11
-10
-12
-13
-11
-8
-9
-9
-8
-8
-8
-7
-4
-4
-5
-6
-4
-3
-3
-4
-2
0
0
-1
0
0
0
0
2
3
3
2
2
3
3
3
3
2
2
2
3
4
4
5
4
3
2
1
2
3
2
1
2
1
1
0
1
2
0
-1
-1
0
0
0
0
-1
-1
-1
-1
-1
0
0
0
0
-1
0
1
3
4
6
8
7
8
9
10
9
9
9
10
9
7
7
6
4
0
-2
-4
-7
-8
-9
-8
-9
-10
-10
-8
-7
-8
-11
-13
-13
-14
-10
3
24
50
77
106
127
146
165
184
188
171
140
113
98
86
78
68
55
38
27
19
10
0
-10
-19
-24
-28
-29
-30
-31
-31
-32
-31
-31
-31
-33
-33
-33
-34
-35
-36
-36
-36
-37
-37
-38
-38
-40
-40
-41
-41
-45
-46
-45
-45
-46
-48
-47
-50
-51
-51
-51
-50
-49
-47
-46
-45
-44
-41
-39
-37
-35
-32
-28
-27
-26
-24
-21
-18
-15
-12
-10
-7
-5
-3
-1
-1
-3
-3
-1
-1
-2
-1
0
0
-2
-4
-4
-4
-6
-6
-5
-5
-9
-11
-11
-12
-13
-16
-16
-18
-20
-20
-19
-20
-20
-18
-18
-18
-19
-19
-16
-14
-13
-12
-11
-12
-11
-9
-7
-6
-7
-6
-5
-5
-5
-4
-2
-1
-1
-1
0
1
1
2
5
9
11
12
14
15
15
17
18
18
17
19
20
21
20
19
20
21
20
16
11
8
8
8
8
8
6
5
5
6
5
6
6
4
1
1
8
22
45
72
102
129
149
173
193
209
197
167
132
105
91
78
68
53
38
23
16
12
6
-2
-14
-23
-28
-30
-31
-32
-35
-36
-37
-38
-40
-41
-41
-41
-42
-43
-42
-41
-41
-42
-40
-40
-43
-45
-44
-44
-46
-46
-45
-45
-47
-48
-46
-45
-45
-46
-45
-43
-43
-44
-42
-39
-38
-36
-32
-29
-28
-27
-24
-21
-17
-14
-11
-9
-5
-2
0
2
5
7
8
9
9
11
15
20
24
28
30
31
28
24
22
21
18
13
8
4
0
-2
-3
-4
-8
-11
-10
-9
-9
-10
-11
-12
-12
-13
-12
-11
-11
-12
-12
-12
-12
-12
-15
-18
-20
-19
-15
-6
10
30
59
85
110
131
155
176
178
163
132
102
81
70
60
51
39
24
15
9
3
-6
-18
-27
-37
-45
-47
-49
-50
-53
-53
-54
-54
-55
-56
-57
-59
-59
-60
-60
-62
-64
-65
-66
-65
-66
-66
-67
-67
-69
-70
-70
-73
-73
-73
-71
-70
-71
-72
-70
-69
-67
-64
-62
-61
-60
-57
-55
-52
-49
-45
-40
-39
-38
-35
-30
-29
-26
-22
-19
-17
-17
-15
-16
-16
-15
-12
-11
-12
-12
-11
-11
-11
-12
-12
-11
-11
-10
-9
-9
-9
-9
-7
-7
-7
-6
-4
-2
-3
-4
-2
0
1
0
0
0
0
-1
0
1
1
0
0
1
1
0
0
0
0
0
1
2
1
0
1
0
0
0
0
0
-1
0
0
0
-1
-2
-1
-1
-2
-3
-2
-4
-4
-5
-3
-2
-2
-2
-3
-2
-3
-2
0
2
4
3
3
4
4
6
8
9
8
5
3
4
3
1
1
1
-1
-6
-10
-11
-11
-12
-12
-13
-14
-14
-13
-12
-12
-13
-15
-17
-17
-15
-5
10
33
60
90
116
139
159
179
190
181
151
113
87
70
59
47
34
18
2
-6
-10
-14
-21
-29
-36
-40
-43
-45
-46
-46
-48
-48
-47
-46
-47
-49
-50
-53
-54
-55
-54
-55
-56
-57
-57
-57
-59
-58
-58
-59
-62
-64
-62
-62
-63
-65
-63
-62
-62
-62
-60
-59
-61
-59
-58
-57
-56
-55
-51
-48
-44
-41
-37
-35
-31
-27
-24
-21
-19
-15
-10
-6
-4
-2
0
0
1
2
4
4
2
1
3
2
1
0
0
0
-1
-1
-1
-3
-5
-8
-10
-11
-13
-14
-15
-15
-16
-17
-16
-16
-17
-17
-16
-16
-17
-17
-15
-14
-13
-12
-10
-11
-11
-11
-11
-10
-8
-7
-7
-7
-6
-5
-5
-5
-5
-5
-4
-4
-3
-1
0
1
4
6
9
11
11
12
12
13
12
15
18
19
16
13
14
16
17
14
8
4
2
2
2
1
1
2
3
2
2
1
0
-1
-1
0
7
21
45
74
102
127
146
170
187
197
183
150
117
93
82
72
65
56
43
36
31
26
16
7
-2
-11
-18
-23
-26
-28
-27
-26
-27
-29
-30
-31
-33
-36
-37
-37
-39
-42
-43
-43
-42
-43
-43
-45
-47
-49
-51
-51
-52
-53
-54
-55
-55
-56
-55
-53
-53
-53
-52
-51
-52
-53
-51
-47
-46
-45
-43
-39
-37
-35
-31
-27
-24
-24
-23
-19
-17
-15
-12
-10
-10
-10
-9
-7
-7
-8
-9
-8
-6
-8
-11
-13
-16
-16
-14
-12
-15
-17
-17
-16
-16
-18
-20
-20
-20
-20
-19
-17
-18
-19
-19
-18
-18
-18
-16
-16
-17
-18
-18
-17
-18
-19
-19
-19
-19
-22
-23
-23
-23
-22
-21
-20
-19
-19
-18
-17
-17
-18
-17
-15
-12
-10
-8
-7
-6
-4
-3
-3
-4
-1
0
1
0
0
0
0
0
0
0
-3
-7
-8
-8
-8
-9
-9
-8
-8
-8
-9
-10
-11
-12
-13
-11
-4
8
30
57
87
115
136
155
177
195
197
173
141
108
91
79
69
55
36
19
7
-1
-8
-15
-23
-33
-39
-41
-43
-45
-47
-46
-45
-47
-48
-48
-47
-48
-48
-49
-49
-50
-50
-49
-50
-50
-51
-50
-51
-51
-52
-52
-51
-52
-52
-52
-53
-53
-53
-51
-51
-48
-47
-45
-45
-44
-42
-40
-38
-37
-34
-30
-28
-26
-23
-19
-15
-12
-9
-4
0
2
6
14
19
23
25
27
25
23
20
19
17
10
5
3
2
-1
-4
-5
-7
-9
-12
-13
-13
-14
-14
-15
-15
-16
-16
-15
-14
-14
-15
-15
-14
-13
-12
-11
-11
-13
-15
-17
-16
-13
-5
12
37
63
93
118
142
163
178
182
161
129
94
70
57
46
35
21
7
-3
-8
-12
-18
-30
-41
-45
-47
-49
-51
-54
-55
-56
-56
-56
-57
-58
-58
-57
-59
-62
-64
-64
-64
-65
-65
-65
-66
-68
-71
-71
-72
-71
-73
-72
-72
-72
-73
-73
-71
-72
-72
-70
-66
-65
-65
-63
-59
-55
-52
-48
-45
-43
-42
-37
-33
-30
-26
-22
-19
-19
-17
-14
-12
-13
-13
-11
-8
-8
-9
-8
-6
-7
-9
-7
-6
-7
-8
-7
-5
-6
-5
-3
-1
-1
-1
0
2
2
0
1
3
4
4
5
5
4
5
7
8
7
5
4
6
8
7
8
7
6
4
4
6
5
5
6
6
5
4
4
5
5
4
5
6
6
3
3
4
5
4
4
4
1
0
-1
0
0
-1
-2
0
0
0
0
1
2
1
2
4
6
7
8
8
8
9
10
10
11
9
9
9
8
6
1
-4
-10
-11
-10
-9
-10
-11
-11
-11
-11
-11
-11
-11
-14
-18
-17
-11
-1
17
41
73
99
122
142
162
182
188
178
151
122
101
90
81
70
57
38
24
15
6
-1
-11
-21
-30
-34
-36
-38
-39
-39
-38
-38
-39
-38
-36
-37
-38
-37
-36
-39
-43
-44
-44
-43
-45
-46
-44
-44
-45
-47
-47
-48
-51
-52
-51
-51
-52
-53
-53
-54
-55
-55
-53
-52
-51
-51
-49
-47
-46
-44
-43
-41
-39
-36
-33
-30
-28
-26
-23
-20
-18
-16
-12
-9
-9
-9
-7
-6
-9
-9
-6
-4
-5
-8
-7
-7
-9
-11
-11
-10
-12
-15
-17
-18
-21
-22
-23
-23
-26
-28
-28
-29
-29
-30
-29
-27
-27
-28
-28
-26
-25
-23
-22
-22
-22
-23
-23
-20
-17
-14
-13
-13
-15
-18
-17
-14
-13
-14
-13
-10
-10
-11
-10
-8
-7
-6
-5
-4
-2
0
1
3
4
5
6
9
8
7
7
9
11
12
12
11
12
12
11
6
2
0
-2
-3
-3
-4
-4
-4
-4
-5
-4
-3
-4
-7
-9
-7
0
13
34
62
91
118
141
165
184
199
193
168
128
94
74
62
53
40
24
8
-1
-9
-15
-21
-29
-37
-42
-45
-46
-47
-48
-50
-53
-55
-55
-54
-54
-55
-56
-57
-57
-59
-59
-59
-59
-59
-59
-59
-60
-60
-60
-57
-57
-58
-60
-61
-60
-61
-60
-59
-56
-57
-56
-55
-54
-53
-52
-49
-48
-45
-43
-40
-38
-38
-35
-31
-26
-24
-22
-19
-16
-14
-12
-10
-8
-6
-3
-1
1
5
8
12
15
15
14
13
11
8
6
2
-3
-8
-12
-14
-16
-18
-21
-22
-22
-23
-24
-23
-22
-24
-26
-27
-28
-27
-26
-24
-24
-24
-25
-27
-29
-31
-31
-32
-30
-25
-14
4
28
56
87
114
139
160
176
174
146
111
76
58
47
36
24
10
0
-5
-6
-9
-16
-29
-40
-46
-50
-53
-55
-55
-56
-58
-59
-58
-57
-57
-58
-59
-61
-63
-64
-61
-61
-63
-64
-65
-67
-68
-69
-68
-68
-69
-72
-72
-75
-75
-73
-71
-71
-71
-70
-70
-69
-69
-65
-62
-60
-60
-57
-53
-50
-48
-45
-41
-39
-35
-30
-26
-24
-23
-20
-18
-17
-17
-17
-16
-17
-17
-15
-14
-14
-14
-13
-13
-14
-14
-12
-11
-11
-12
-13
-11
-9
-9
-7
-6
-4
-4
-1
0
-1
-2
-1
0
0
-1
-1
-1
0
1
4
5
4
1
0
1
1
0
1
3
3
2
1
1
1
1
1
1
2
2
3
3
1
0
0
0
0
-1
-2
-2
-1
0
-1
-2
-2
-2
-2
-1
-1
-2
-3
-2
-2
-2
-1
0
1
1
1
0
2
3
4
5
4
2
2
4
4
2
0
1
2
0
-3
-7
-9
-9
-10
-10
-10
-8
-8
-6
-6
-7
-9
-10
-10
-10
-9
-3
11
31
61
89
117
136
154
176
192
197
172
139
111
92
81
69
61
45
27
15
9
4
-4
-13
-20
-23
-27
-30
-31
-31
-32
-32
-32
-32
-31
-30
-30
-32
-33
-33
-33
-33
-34
-33
-33
-34
-36
-36
-35
-37
-39
-38
-37
-37
-39
-39
-38
-37
-39
-40
-39
-39
-38
-35
-32
-32
-33
-33
-31
-29
-27
-22
-19
-17
-17
-15
-11
-9
-6
-3
-1
-1
-1
1
3
3
3
4
4
4
3
3
3
2
0
0
0
-1
-2
-3
-4
-6
-7
-7
-8
-13
-17
-19
-18
-18
-18
-18
-18
-19
-19
-18
-16
-17
-18
-17
-16
-15
-15
-13
-11
-10
-10
-10
-9
-8
-8
-8
-7
-7
-6
-5
-5
-5
-4
-3
-2
-2
-1
0
1
0
1
3
6
8
10
11
13
13
14
16
17
18
17
17
17
17
16
16
17
18
17
13
10
7
6
6
5
4
3
4
4
4
4
3
1
-2
-2
1
11
28
53
82
109
132
153
177
195
200
179
145
109
89
78
66
55
39
25
17
13
7
0
-10
-21
-31
-37
-39
-41
-42
-43
-43
-45
-46
-47
-46
-47
-48
-50
-50
-50
-50
-50
-51
-52
-55
-55
-53
-52
-51
-52
-52
-54
-54
-54
-53
-53
-55
-55
-54
-53
-53
-50
-48
-48
-47
-46
-42
-38
-36
-36
-34
-32
-30
-27
-22
-18
-16
-13
-10
-9
-8
-4
0
2
2
3
6
11
17
20
24
25
24
20
17
15
12
11
8
3
-1
-4
-6
-7
-10
-12
-13
-14
-16
-17
-17
-15
-15
-16
-16
-16
-16
-16
-14
-15
-18
-21
-21
-19
-21
-21
-21
-19
-14
1
26
54
82
107
127
148
166
176
167
139
109
84
74
65
56
42
25
12
3
-3
-10
-18
-28
-34
-38
-42
-46
-47
-46
-46
-49
-50
-49
-49
-50
-50
-50
-52
-55
-57
-56
-58
-62
-64
-66
-67
-70
-70
-72
-76
-78
-80
-80
-83
-84
-86
-85
-86
-86
-83
-82
-80
-81
-78
-76
-74
-73
-71
-67
-65
-62
-60
-55
-51
-50
-48
-45
-42
-41
-39
-36
-33
-33
-33
-30
-29
-30
-32
-31
-31
-33
-34
-31
-31
-31
-31
-29
-27
-27
-29
-29
-28
-27
-27
-26
-26
-25
-23
-21
-22
-22
-20
-18
-16
-16
-15
-14
-14
-16
-16
-14
-13
-13
-15
-13
-12
-12
-12
-12
-11
-11
-9
-9
-8
-9
-10
-10
-8
-8
-8
-7
-7
-8
-8
-8
-8
-8
-9
-8
-8
-7
-6
-4
-4
-7
-9
-9
-9
-9
-8
-8
-7
-8
-7
-7
-6
-4
-1
-1
0
-1
-1
0
0
0
-1
-1
-1
0
1
1
-1
-4
-5
-6
-9
-13
-14
-14
-14
-14
-15
-14
-14
-13
-13
-12
-12
-16
-17
-15
-8
4
26
52
82
108
132
154
175
195
192
172
133
98
80
68
59
47
34
21
13
7
3
-1
-10
-19
-26
-28
-29
-33
-34
-32
-32
-32
-33
-34
-36
-36
-36
-36
-37
-38
-40
-40
-40
-42
-42
-43
-43
-46
-47
-47
-49
-50
-50
-48
-49
-51
-51
-51
-51
-52
-50
-48
-47
-49
-49
-45
-43
-41
-39
-35
-33
-32
-30
-26
-24
-23
-19
-16
-13
-12
-12
-10
-8
-6
-4
-2
-2
-2
0
0
-2
-4
-5
-5
-5
-5
-6
-7
-7
-9
-11
-14
-17
-19
-18
-18
-18
-22
-25
-24
-23
-23
-24
-23
-21
-23
-22
-20
-16
-13
-9
-4
-1
2
4
1
-5
-15
-28
-49
-78
-105
-130
-150
-186
-224
-264
-282
-277
-273
-265
-261
-244
-227
-205
-183
-164
-143
-126
-101
-74
-47
-27
-11
0
3
2
2
4
4
6
10
14
17
20
23
25
26
27
31
35
39
42
47
50
53
54
59
66
73
78
81
88
92
96
100
104
108
111
114
113
115
115
118
117
116
118
115
111
104
102
100
98
95
88
84
77
73
68
66
62
55
51
46
43
37
34
31
30
29
27
27
25
24
23
24
22
19
19
19
19
18
18
17
18
17
16
16
15
14
14
15
14
13
12
13
13
11
10
9
9
9
9
10
10
9
7
8
9
9
8
8
10
9
10
12
16
19
24
28
29
28
23
22
21
19
17
13
9
4
2
2
2
-1
-3
-3
-4
-5
-5
-5
-4
-4
-6
-7
-6
-7
-8
-10
-12
-14
-14
-7
4
23
49
78
106
130
150
174
192
196
171
131
99
77
66
53
40
24
6
-5
-11
-17
-24
-32
-40
-46
-50
-53
-55
-56
-57
-57
-58
-57
-58
-56
-57
-57
-56
-58
-59
-62
-63
-62
-60
-60
-62
-62
-62
-62
-63
-63
-63
-64
-66
-68
-65
-64
-64
-65
-63
-62
-62
-60
-59
-58
-59
-56
-51
-48
-47
-47
-45
-43
-39
-37
-32
-28
-25
-22
-19
-16
-15
-13
-10
-9
-9
-8
-5
-3
-2
-2
-2
-2
-4
-3
-2
-2
-1
0
1
0
-3
-3
-1
0
-1
-1
0
-1
0
0
0
1
2
1
1
2
3
4
4
4
4
6
8
10
11
10
10
12
16
19
20
19
18
19
22
23
22
23
24
26
26
26
26
25
23
20
21
21
21
22
24
23
19
19
19
20
18
17
16
15
16
17
18
15
14
16
18
19
20
22
22
21
20
20
20
20
24
25
24
20
19
21
24
24
17
9
2
0
0
-1
-2
-4
-5
-3
0
0
-1
-3
-3
-5
-8
-11
-7
4
26
56
83
109
129
150
173
191
198
178
146
111
89
78
68
57
41
28
20
15
8
0
-10
-22
-30
-33
-33
-33
-33
-35
-35
-37
-40
-41
-41
-42
-42
-42
-40
-43
-46
-46
-45
-46
-48
-48
-45
-46
-49
-51
-49
-49
-49
-48
-49
-54
-59
-57
-55
-53
-53
-51
-50
-47
-46
-47
-46
-44
-40
-39
-37
-36
-34
-30
-27
-24
-23
-19
-15
-12
-11
-10
-8
-7
-6
-6
-5
-4
-4
-3
-2
-3
-5
-6
-4
-2
-4
-8
-11
-13
-16
-18
-18
-18
-19
-21
-21
-22
-24
-26
-25
-24
-25
-24
-24
-23
-21
-19
-17
-18
-18
-16
-14
-15
-18
-18
-16
-14
-14
-14
-13
-12
-11
-10
-9
-8
-7
-8
-7
-2
1
2
4
7
7
6
8
11
11
10
12
18
21
18
15
13
14
13
13
10
7
2
0
-2
-3
-2
0
0
-1
-2
-1
-1
-3
-6
-8
-9
-8
-6
1
17
38
62
86
117
141
164
185
201
199
169
130
97
79
64
52
42
29
19
12
7
-1
-16
-30
-38
-41
-43
-45
-44
-46
-47
-48
-44
-42
-41
-41
-42
-42
-47
-52
-56
-54
-51
-48
-47
-51
-56
-58
-56
-56
-56
-56
-57
-60
-62
-61
-61
-61
-63
-63
-59
-58
-58
-59
-57
-54
-50
-47
-45
-46
-44
-38
-34
-32
-31
-26
-20
-18
-17
-14
-10
-7
-5
-2
2
7
15
19
21
19
16
15
13
10
5
0
-7
-11
-13
-13
-13
-16
-20
-21
-20
-21
-22
-22
-22
-22
-24
-25
-22
-18
-15
-17
-19
-20
-19
-18
-19
-20
-22
-23
-24
-16
1
28
59
88
113
138
161
179
181
162
126
88
67
58
54
47
32
12
0
-1
-2
-9
-21
-33
-41
-47
-52
-54
-55
-53
-51
-55
-61
-62
-59
-57
-59
-64
-65
-64
-63
-65
-67
-69
-69
-68
-73
-76
-81
-81
-79
-78
-76
-77
-78
-81
-81
-79
-76
-75
-75
-70
-66
-65
-65
-61
-56
-52
-48
-46
-48
-52
-48
-41
-34
-31
-28
-22
-16
-13
-12
-9
-8
-7
-7
-3
0
0
-1
-1
0
0
1
-1
-3
-5
-4
-4
-6
-7
-8
-7
-8
-8
-8
-6
-4
-3
-3
-2
-3
-5
-4
-2
-1
0
2
2
-2
-7
-8
-5
-1
-1
-2
-2
-2
-1
0
0
-1
-3
-3
-2
-2
-2
-2
-1
-1
-2
-3
-4
-4
-4
-3
-4
-5
-5
-3
-1
-1
2
5
7
6
6
7
9
9
9
13
16
17
15
14
12
10
11
10
8
2
-2
-3
-3
-4
-6
-7
-7
-9
-11
-10
-9
-10
-13
-15
-16
-17
-15
-7
8
28
52
77
101
126
147
173
190
195
176
142
111
88
76
65
54
39
22
13
7
3
-3
-9
-16
-22
-27
-28
-27
-27
-29
-29
-29
-30
-31
-31
-31
-32
-34
-33
-33
-34
-34
-34
-35
-37
-39
-39
-39
-39
-40
-40
-41
-41
-41
-39
-39
-42
-44
-43
-41
-42
-42
-39
-37
-36
-36
-32
-30
-29
-28
-26
-23
-22
-20
-17
-13
-10
-9
-7
-4
-2
-1
1
3
4
5
7
7
5
2
3
5
6
4
3
3
2
2
0
0
-1
-2
-1
-2
-5
-8
-8
-7
-7
-8
-8
-8
-12
-16
-16
-15
-14
-14
-14
-14
-14
-14
-14
-12
-13
-14
-12
-10
-9
-10
-9
-8
-6
-4
-1
0
3
5
7
8
8
9
11
13
13
15
19
20
17
14
14
15
14
11
8
5
3
1
0
0
-1
-1
0
3
5
5
3
2
2
1
2
3
3
5
18
43
69
96
121
145
163
182
189
179
152
120
96
82
74
64
54
41
32
27
19
8
-2
-12
-21
-29
-34
-37
-38
-40
-41
-40
-38
-38
-39
-40
-40
-42
-44
-45
-42
-40
-41
-44
-45
-46
-48
-49
-51
-52
-54
-52
-51
-51
-52
-54
-54
-54
-53
-54
-53
-52
-53
-50
-47
-45
-46
-43
-39
-36
-35
-32
-30
-28
-25
-22
-18
-16
-13
-9
-4
-1
1
5
10
14
18
20
18
15
11
10
9
8
3
-3
-5
-7
-8
-11
-13
-14
-16
-18
-19
-19
-19
-21
-21
-21
-21
-21
-20
-19
-19
-18
-17
-17
-17
-16
-16
-17
-20
-22
-18
-12
1
21
48
76
100
120
142
161
173
163
138
110
85
71
57
47
31
12
-3
-11
-18
-25
-33
-41
-49
-54
-55
-56
-57
-58
-58
-59
-60
-61
-61
-61
-62
-63
-65
-64
-65
-65
-65
-66
-67
-68
-67
-68
-69
-70
-69
-70
-70
-70
-69
-68
-69
-68
-68
-65
-64
-64
-60
-59
-56
-55
-52
-49
-47
-45
-41
-36
-33
-30
-27
-22
-20
-17
-13
-10
-8
-6
-4
-3
-1
0
0
0
0
0
0
1
0
0
1
1
0
0
0
1
1
1
5
5
3
1
1
3
5
4
4
4
1
0
1
3
3
3
5
5
4
3
4
6
5
3
1
3
5
5
2
1
1
0
0
0
0
0
1
2
1
0
0
0
1
0
0
0
0
0
0
0
1
2
5
7
10
11
11
11
11
12
12
13
13
13
12
13
12
10
10
10
9
5
1
-1
-3
-5
-8
-10
-11
-12
-12
-12
-12
-14
-13
-12
-14
-18
-21
-20
-17
-7
11
37
63
91
111
135
155
172
176
158
130
97
76
65
55
45
29
15
6
2
-2
-7
-15
-26
-34
-37
-39
-42
-45
-44
-44
-45
-46
-47
-47
-48
-50
-51
-52
-52
-51
-50
-51
-55
-57
-56
-56
-57
-60
-59
-58
-59
-60
-61
-61
-62
-62
-61
-58
-56
-57
-56
-54
-52
-50
-44
-40
-40
-40
-40
-37
-36
-33
-28
-22
-18
-15
-11
-7
-5
-5
-5
-6
-5
-2
0
0
1
3
5
6
5
1
-2
-3
-2
-1
1
0
-3
-9
-9
-7
-10
-14
-15
-14
-15
-18
-20
-20
-20
-20
-22
-25
-26
-25
-24
-23
-22
-22
-23
-24
-23
-21
-19
-17
-16
-17
-18
-18
-19
-18
-16
-15
-12
-9
-5
-2
-1
1
1
1
1
2
5
8
8
4
2
3
5
4
0
-3
-7
-10
-11
-9
-8
-9
-9
-8
-7
-8
-9
-10
-11
-11
-12
-13
-15
-11
1
24
50
76
101
124
144
164
180
182
164
133
106
87
75
59
44
23
5
-3
-7
-12
-20
-30
-39
-45
-48
-51
-50
-50
-52
-53
-54
-54
-55
-56
-57
-60
-61
-62
-62
-64
-64
-66
-67
-66
-67
-68
-71
-71
-73
-73
-72
-72
-71
-72
-70
-69
-68
-66
-64
-62
-63
-60
-56
-50
-50
-51
-50
-47
-44
-41
-37
-33
-28
-25
-23
-20
-17
-16
-14
-11
-9
-9
-10
-8
-6
-5
-5
-5
-7
-10
-12
-11
-10
-11
-12
-13
-13
-14
-16
-17
-18
-18
-18
-18
-18
-19
-19
-20
-22
-23
-21
-19
-18
-20
-22
-21
-20
-19
-19
-18
-18
-20
-20
-19
-16
-16
-19
-21
-22
-21
-20
-18
-17
-18
-18
-17
-13
-11
-11
-10
-8
-8
-10
-9
-6
-3
-2
-2
-3
-4
-4
-2
-5
-12
-17
-20
-20
-20
-19
-19
-18
-19
-20
-19
-17
-18
-19
-20
-21
-21
-21
-18
-12
0
20
47
78
102
127
147
171
185
180
157
121
93
74
62
50
37
21
6
0
-6
-12
-19
-28
-37
-44
-45
-44
-47
-51
-53
-52
-52
-51
-51
-53
-56
-58
-56
-57
-57
-61
-61
-62
-63
-63
-63
-62
-66
-68
-67
-66
-65
-65
-63
-62
-62
-65
-64
-60
-58
-59
-58
-55
-53
-51
-50
-48
-47
-43
-39
-37
-35
-31
-24
-21
-20
-20
-15
-10
-8
-9
-9
-6
-5
-5
-6
-5
-3
-2
-2
-4
-7
-8
-7
-7
-8
-8
-7
-8
-10
-11
-12
-13
-16
-17
-16
-16
-16
-16
-15
-15
-15
-17
-18
-16
-15
-15
-14
-14
-15
-16
-16
-16
-16
-17
-18
-18
-14
-12
-11
-11
-11
-10
-8
-5
-5
-5
-3
-2
-2
0
2
2
2
0
0
-2
-2
-2
-4
-7
-11
-12
-13
-14
-15
-15
-14
-14
-13
-11
-11
-13
-14
-13
-14
-15
-14
-13
-7
5
29
60
89
116
138
160
181
192
187
158
128
102
85
73
62
48
27
10
1
-4
-11
-18
-24
-31
-36
-38
-40
-42
-44
-43
-43
-44
-45
-46
-45
-48
-50
-51
-50
-52
-53
-53
-54
-55
-55
-55
-56
-57
-56
-57
-57
-59
-59
-59
-57
-56
-56
-53
-53
-52
-51
-46
-44
-42
-40
-37
-34
-33
-29
-26
-22
-20
-17
-11
-8
-6
-3
-1
-1
-1
0
2
3
3
3
5
4
4
3
3
4
3
2
2
1
0
0
-1
-2
-4
-4
-5
-6
-8
-7
-6
-7
-8
-9
-9
-9
-9
-8
-6
-7
-7
-7
-6
-6
-7
-5
-5
-5
-6
-6
-5
-5
-6
-6
-4
-3
-1
0
2
3
4
5
5
4
2
3
6
7
7
6
5
4
3
3
1
-2
-7
-8
-8
-7
-9
-9
-9
-9
-10
-9
-7
-7
-8
-8
-9
-11
-12
-8
1
19
43
72
98
122
142
165
186
195
184
155
120
93
78
67
56
40
24
11
5
1
-4
-11
-20
-28
-34
-36
-38
-39
-41
-41
-41
-42
-44
-46
-45
-46
-47
-49
-48
-50
-51
-52
-52
-53
-55
-54
-53
-54
-57
-58
-57
-56
-56
-57
-55
-56
-56
-55
-51
-49
-49
-47
-46
-44
-42
-39
-35
-33
-30
-28
-25
-24
-20
-17
-13
-10
-7
-6
-3
-2
-1
0
3
7
7
6
6
6
5
5
6
6
3
1
2
2
1
0
0
0
-1
-3
-5
-6
-6
-6
-4
-5
-7
-9
-8
-8
-7
-7
-7
-7
-9
-9
-8
-7
-6
-5
-5
-5
-7
-7
-5
-4
-6
-7
-6
-5
-5
-4
-3
0
0
0
0
2
2
2
4
6
6
6
4
2
1
2
1
-2
-7
-8
-9
-8
-10
-10
-9
-9
-10
-9
-7
-7
-8
-9
-10
-12
-13
-11
-6
5
24
51
81
107
130
148
172
189
196
180
150
121
98
85
72
59
39
17
6
0
-6
-14
-21
-27
-33
-36
-38
-40
-41
-41
-41
-43
-44
-45
-44
-45
-47
-48
-48
-50
-52
-52
-53
-54
-54
-54
-54
-56
-58
-58
-57
-58
-59
-58
-56
-55
-57
-55
-53
-51
-50
-47
-44
-42
-41
-38
-32
-30
-28
-26
-21
-18
-16
-13
-9
-6
-3
0
1
4
6
8
10
11
12
13
14
13
12
12
12
13
11
10
10
9
7
7
8
7
5
5
4
3
2
1
2
1
0
0
0
1
0
0
0
1
0
1
2
2
1
1
2
2
2
2
2
2
1
2
3
4
5
7
8
10
12
12
13
12
12
13
15
18
17
17
15
14
13
14
13
8
3
1
2
2
0
0
0
0
0
0
1
0
1
1
1
-2
-4
-3
3
16
37
65
96
122
146
168
191
210
209
188
149
118
94
80
68
55
39
23
14
8
3
-2
-10
-19
-27
-30
-32
-33
-36
-37
-37
-38
-41
-42
-41
-41
-45
-47
-47
-47
-50
-52
-50
-52
-54
-55
-53
-54
-56
-56
-57
-56
-57
-56
-57
-56
-55
-54
-51
-51
-50
-49
-46
-44
-42
-40
-38
-35
-34
-31
-28
-24
-21
-19
-15
-12
-10
-8
-4
-1
0
0
2
5
5
5
6
7
6
4
4
6
5
3
2
2
0
-1
0
0
-2
-5
-7
-7
-7
-7
-8
-8
-10
-11
-11
-10
-10
-9
-9
-9
-9
-9
-9
-9
-9
-8
-8
-7
-7
-8
-8
-7
-6
-6
-5
-4
-4
-4
-2
1
2
1
0
3
3
2
3
7
9
7
5
4
3
2
2
0
-4
-7
-7
-7
-8
-10
-11
-11
-11
-10
-9
-9
-9
-10
-12
-16
-17
-15
-8
5
24
52
80
110
131
152
173
195
205
187
154
121
102
87
75
62
45
27
15
7
0
-9
-19
-28
-34
-40
-45
-47
-47
-47
-48
-47
-49
-51
-52
-54
-56
-59
-58
-59
-60
-62
-62
-62
-64
-65
-65
-64
-67
-68
-68
-66
-65
-66
-66
-66
-65
-65
-64
-61
-60
-60
-58
-55
-53
-50
-48
-45
-43
-41
-37
-33
-29
-27
-24
-20
-17
-15
-12
-9
-7
-6
-4
-1
-2
-2
-2
-2
-3
-3
-2
-2
-3
-5
-6
-6
-7
-9
-10
-10
-12
-13
-14
-14
-15
-17
-16
-17
-17
-18
-18
-17
-17
-18
-18
-17
-17
-17
-17
-16
-15
-15
-15
-15
-15
-15
-14
-13
-13
-14
-13
-10
-7
-7
-6
-5
-5
-5
-3
-2
-2
-2
1
2
2
0
0
1
2
0
-4
-8
-10
-12
-12
-11
-12
-13
-12
-12
-11
-12
-11
-10
-10
-11
-14
-15
-14
-11
0
22
47
78
109
136
160
181
208
216
203
166
127
102
84
71
56
41
21
6
0
-3
-8
-17
-26
-32
-37
-42
-46
-46
-46
-48
-49
-49
-49
-51
-52
-52
-53
-55
-56
-56
-57
-58
-59
-59
-60
-60
-61
-61
-61
-62
-60
-58
-58
-60
-59
-58
-58
-56
-55
-53
-51
-50
-48
-46
-43
-42
-40
-36
-32
-31
-29
-24
-20
-19
-16
-10
-8
-7
-6
-2
0
1
1
3
4
3
3
3
3
2
1
2
2
0
-1
-2
-3
-4
-6
-7
-7
-9
-10
-11
-11
-13
-12
-12
-12
-14
-15
-14
-12
-13
-13
-12
-11
-12
-12
-12
-11
-12
-11
-11
-10
-11
-12
-10
-8
-7
-6
-3
-1
-1
-1
-1
0
0
0
0
2
3
3
2
0
-1
-1
-1
-4
-8
-10
-13
-14
-14
-14
-14
-14
-15
-15
-14
-14
-14
-14
-13
-14
-17
-19
-17
-8
7
30
60
90
116
140
165
189
202
195
169
132
106
88
80
69
57
41
29
22
16
7
-4
-16
-28
-36
-40
-44
-48
-50
-51
-51
-52
-53
-54
-56
-58
-59
-58
-58
-60
-62
-62
-62
-65
-66
-65
-65
-67
-67
-65
-64
-64
-67
-66
-65
-63
-64
-64
-62
-62
-61
-60
-56
-55
-53
-52
-50
-47
-45
-41
-37
-33
-30
-27
-24
-22
-20
-18
-15
-12
-9
-5
-3
-3
-4
-5
-4
-6
-6
-5
-3
-5
-8
-9
-9
-9
-10
-11
-13
-16
-18
-18
-16
-17
-18
-18
-19
-20
-22
-22
-21
-22
-21
-21
-20
-21
-18
-16
-16
-17
-17
-17
-17
-17
-17
-15
-14
-13
-10
-8
-8
-7
-6
-5
-5
-6
-5
-3
-2
-2
-2
-3
-5
-7
-7
-5
-8
-13
-17
-19
-20
-20
-20
-20
-20
-20
-20
-19
-19
-18
-19
-19
-21
-22
-22
-19
-12
3
30
59
87
113
136
158
179
196
192
167
128
97
78
65
53
35
15
0
-8
-15
-20
-25
-35
-42
-45
-48
-51
-54
-53
-53
-55
-55
-55
-55
-57
-57
-58
-58
-61
-62
-60
-62
-63
-64
-63
-64
-64
-64
-64
-64
-63
-62
-61
-61
-61
-60
-57
-56
-56
-55
-51
-51
-49
-47
-43
-41
-38
-35
-31
-29
-27
-23
-18
-15
-13
-9
-5
-3
-2
-1
1
2
3
3
4
4
3
3
4
4
2
1
0
0
0
-1
-2
-4
-5
-6
-7
-9
-10
-10
-10
-12
-13
-12
-12
-12
-14
-13
-11
-11
-11
-11
-10
-10
-11
-9
-8
-8
-9
-9
-7
-5
-5
-3
0
1
1
2
4
4
4
4
4
4
6
8
7
5
1
1
3
2
-1
-5
-8
-12
-11
-11
-11
-12
-13
-12
-11
-10
-11
-10
-10
-10
-13
-14
-13
-12
-6
8
35
60
89
116
142
166
186
208
207
183
144
110
90
74
61
47
32
17
8
4
0
-7
-18
-27
-33
-38
-41
-44
-45
-46
-48
-48
-48
-48
-51
-52
-53
-53
-54
-55
-55
-57
-59
-60
-59
-59
-61
-62
-61
-61
-62
-61
-59
-59
-59
-59
-58
-57
-57
-56
-54
-52
-50
-49
-46
-44
-42
-38
-35
-33
-30
-27
-23
-21
-18
-14
-10
-7
-5
-3
0
0
0
0
1
3
4
4
4
4
3
2
2
2
0
-2
-2
-3
-5
-6
-7
-8
-9
-10
-11
-11
-13
-13
-13
-13
-14
-14
-13
-13
-13
-14
-13
-12
-13
-12
-11
-10
-10
-10
-10
-9
-11
-11
-8
-5
-3
-3
-1
0
0
-1
0
2
0
0
2
4
2
0
0
0
-1
-3
-5
-8
-12
-14
-13
-12
-15
-17
-15
-14
-15
-15
-13
-12
-12
-14
-15
-18
-18
-13
-4
12
39
69
100
126
146
170
193
207
194
166
136
111
98
83
71
54
34
17
8
1
-8
-18
-28
-35
-42
-46
-47
-48
-50
-51
-52
-53
-56
-56
-54
-54
-56
-58
-58
-60
-62
-63
-62
-63
-65
-65
-65
-66
-67
-65
-65
-66
-66
-65
-63
-63
-62
-62
-60
-58
-57
-55
-53
-50
-49
-47
-44
-41
-39
-37
-32
-29
-25
-22
-19
-15
-14
-11
-7
-5
-4
-3
-1
0
0
0
0
0
-1
-1
-1
-1
-3
-4
-4
-6
-7
-7
-8
-9
-10
-10
-12
-13
-13
-13
-13
-14
-16
-16
-15
-15
-15
-15
-14
-14
-15
-13
-12
-12
-13
-12
-10
-10
-10
-11
-10
-9
-8
-6
-3
-2
-2
-2
-2
-2
0
0
0
0
2
3
2
1
0
0
1
0
-3
-8
-10
-13
-14
-13
-13
-13
-13
-13
-12
-11
-12
-11
-10
-11
-14
-17
-16
-12
-3
15
41
70
100
128
154
178
206
221
217
186
147
114
95
79
63
46
26
8
-1
-7
-13
-21
-29
-37
-41
-45
-49
-50
-50
-51
-53
-53
-52
-54
-56
-58
-58
-59
-60
-61
-61
-61
-64
-65
-65
-65
-67
-68
-66
-66
-67
-68
-66
-65
-64
-65
-64
-61
-60
-59
-58
-55
-53
-51
-49
-46
-44
-41
-38
-35
-33
-30
-26
-21
-18
-16
-13
-10
-8
-6
-3
0
0
0
2
4
4
3
4
3
3
2
2
2
0
-1
-1
-1
-4
-6
-7
-7
-8
-10
-11
-11
-12
-14
-14
-13
-14
-14
-14
-13
-13
-13
-12
-12
-13
-13
-11
-10
-10
-11
-11
-10
-10
-10
-8
-5
-3
-3
-2
0
0
-1
-1
0
0
0
2
4
5
3
2
1
0
0
0
-5
-10
-12
-12
-11
-13
-14
-13
-13
-12
-12
-11
-12
-12
-11
-13
-14
-15
-14
-6
8
31
63
95
122
147
167
194
207
202
176
140
114
97
85
73
62
45
26
17
10
1
-12
-24
-32
-38
-41
-43
-45
-47
-50
-51
-51
-52
-54
-55
-56
-58
-59
-60
-60
-61
-61
-62
-64
-64
-63
-63
-64
-66
-67
-65
-65
-66
-65
-63
-62
-63
-61
-59
-57
-56
-55
-53
-50
-49
-47
-43
-39
-37
-36
-31
-26
-22
-19
-14
-10
-9
-8
-6
-4
-2
0
1
3
2
2
3
3
3
2
1
0
-1
-1
-1
-2
-3
-5
-5
-7
-9
-11
-11
-11
-12
-13
-14
-14
-15
-15
-13
-13
-14
-14
-12
-10
-11
-12
-11
-11
-11
-11
-9
-8
-9
-10
-9
-6
-6
-5
-4
-2
-2
0
0
0
0
0
1
2
4
4
2
0
0
0
0
-2
-7
-10
-10
-12
-12
-12
-10
-10
-12
-11
-10
-9
-10
-10
-9
-10
-13
-12
-7
3
21
50
82
113
140
163
190
212
225
212
178
144
115
99
82
66
46
25
9
0
-7
-13
-21
-30
-37
-40
-41
-44
-46
-47
-46
-48
-49
-50
-50
-51
-53
-55
-55
-55
-57
-58
-58
-59
-61
-62
-60
-61
-62
-62
-60
-60
-62
-61
-60
-59
-61
-59
-57
-56
-55
-54
-51
-49
-45
-43
-41
-39
-37
-34
-30
-27
-24
-21
-17
-14
-12
-9
-5
-2
-1
1
4
4
4
4
6
7
6
5
5
4
2
3
3
2
0
-1
-2
-3
-5
-5
-5
-7
-9
-9
-9
-10
-11
-10
-10
-11
-11
-10
-9
-9
-8
-8
-8
-8
-8
-6
-5
-6
-6
-5
-3
-4
-4
-1
1
2
2
3
4
3
2
3
4
5
6
9
9
7
4
4
5
4
0
-3
-7
-10
-11
-10
-10
-11
-13
-12
-11
-11
-11
-10
-10
-11
-12
-14
-13
-10
0
17
43
72
102
130
154
178
199
209
193
162
124
102
87
74
61
45
27
12
4
-1
-9
-20
-31
-38
-40
-44
-46
-47
-48
-50
-52
-51
-52
-52
-54
-54
-55
-55
-56
-58
-59
-61
-60
-61
-61
-64
-65
-64
-64
-63
-63
-61
-61
-61
-61
-61
-61
-60
-57
-56
-55
-56
-53
-49
-46
-44
-42
-40
-40
-37
-31
-26
-23
-20
-18
-15
-13
-10
-7
-4
-2
-3
-1
0
0
0
0
0
-1
-2
-3
-3
-4
-4
-5
-7
-7
-9
-10
-11
-14
-16
-16
-16
-19
-20
-19
-18
-18
-18
-16
-16
-17
-18
-17
-16
-18
-18
-16
-14
-14
-15
-15
-15
-15
-13
-11
-9
-8
-7
-6
-4
-4
-5
