1612
1611
1610
1609
1611
1609
1610
1615
1611
1611
1610
1611
1612
1612
1614
1614
1612
1612
1614
1616
1621
1622
1623
1622
1622
1622
1623
1624
1629
1636
1638
1641
1638
1635
1634
1630
1630
1627
1627
1625
1619
1617
1614
1615
1615
1612
1612
1615
1612
1612
1612
1612
1608
1605
1609
1608
1609
1605
1605
1606
1605
1605
1603
1608
1609
1621
1650
1698
1753
1795
1817
1831
1802
1734
1675
1638
1623
1612
1614
1612
1611
1608
1606
1605
1601
1604
1601
1592
1599
1596
1596
1596
1598
1598
1601
1601
1602
1603
1599
1601
1602
1601
1602
1598
1595
1602
1601
1602
1603
1603
1603
1604
1603
1605
1605
1602
1611
1605
1610
1612
1621
1612
1615
1619
1623
1630
1631
1631
1634
1637
1642
1643
1647
1653
1654
1659
1662
1660
1664
1667
1666
1664
1662
1663
1664
1659
1656
1655
1650
1643
1642
1636
1636
1629
1625
1624
1621
1618
1618
1615
1612
1615
1618
1615
1612
1612
1614
1610
1615
1610
1609
1605
1608
1608
1605
1610
1603
1612
1608
1608
1608
1608
1609
1608
1608
1611
1608
1611
1609
1605
1608
1608
1611
1611
1618
1608
1608
1608
1609
1608
1608
1608
1608
1605
1609
1608
1605
1609
1611
1612
1610
1611
1605
1601
1603
1605
1608
1611
1609
1605
1608
1605
1606
1608
1608
1612
1615
1615
1618
1615
1618
1617
1617
1621
1619
1622
1627
1630
1634
1631
1630
1628
1623
1622
1624
1617
1611
1609
1611
1608
1603
1603
1603
1605
1605
1604
1603
1602
1601
1601
1596
1599
1604
1606
1605
1603
1603
1602
1598
1598
1599
1601
1603
1627
1667
1724
1778
1808
1825
1829
1780
1715
1670
1650
1621
1615
1612
1609
1605
1601
1603
1599
1597
1597
1590
1588
1589
1589
1591
1592
1593
1593
1595
1593
1592
1590
1595
1593
1595
1596
1595
1593
1593
1596
1598
1597
1596
1596
1595
1597
1602
1603
1604
1601
1603
1604
1608
1608
1605
1605
1606
1611
1615
1617
1619
1622
1627
1631
1637
1637
1650
1648
1647
1649
1650
1653
1662
1667
1668
1664
1662
1662
1660
1660
1655
1650
1643
1641
1637
1635
1631
1629
1625
1622
1621
1617
1615
1617
1615
1612
1611
1610
1605
1605
1605
1608
1611
1609
1611
1610
1611
1612
1609
1605
1605
1609
1608
1608
1605
1605
1605
1608
1605
1602
1608
1608
1608
1603
1605
1605
1605
1603
1604
1605
1603
1606
1606
1608
1603
1604
1605
1605
1603
1605
1604
1604
1608
1605
1604
1605
1603
1601
1604
1603
1603
1605
1605
1604
1604
1603
1605
1605
1605
1605
1604
1605
1603
1603
1604
1605
1608
1611
1614
1615
1614
1615
1616
1615
1621
1624
1627
1628
1630
1629
1627
1622
1622
1623
1618
1612
1611
1611
1608
1605
1603
1605
1604
1601
1605
1603
1601
1599
1602
1598
1595
1598
1596
1596
1596
1595
1597
1596
1595
1593
1593
1591
1602
1630
1679
1735
1779
1811
1825
1810
1753
1694
1664
1650
1634
1619
1612
1608
1605
1599
1595
1593
1590
1593
1592
1592
1592
1590
1595
1589
1589
1592
1591
1592
1588
1591
1589
1589
1590
1593
1590
1589
1591
1590
1593
1591
1592
1589
1592
1592
1591
1593
1597
1596
1597
1596
1598
1596
1599
1603
1605
1609
1608
1612
1611
1612
1618
1622
1627
1630
1634
1635
1640
1643
1643
1649
1650
1653
1656
1654
1655
1653
1653
1650
1649
1643
1642
1641
1640
1634
1631
1627
1628
1624
1619
1618
1617
1617
1612
1610
1611
1589
1586
1592
1598
1602
1601
1601
1603
1604
1604
1604
1605
1605
1609
1608
1608
1605
1603
1605
1605
1605
1604
1608
1605
1604
1603
1605
1605
1612
1604
1608
1609
1608
1608
1605
1608
1606
1610
1610
1605
1611
1608
1609
1608
1611
1610
1611
1610
1611
1610
1611
1608
1608
1604
1609
1609
1610
1610
1605
1608
1608
1608
1609
1608
1606
1609
1608
1610
1610
1614
1605
1609
1608
1615
1608
1608
1604
1604
1605
1605
1608
1609
1611
1615
1612
1618
1618
1615
1615
1617
1616
1617
1621
1623
1627
1631
1634
1634
1629
1627
1622
1623
1618
1615
1612
1612
1609
1608
1605
1604
1602
1602
1598
1601
1603
1602
1603
1603
1599
1602
1602
1604
1601
1602
1601
1599
1592
1592
1593
1596
1601
1627
1662
1714
1764
1801
1821
1822
1774
1709
1668
1648
1634
1621
1612
1611
1608
1605
1599
1601
1598
1598
1598
1598
1598
1597
1592
1590
1589
1591
1590
1590
1592
1596
1595
1592
1592
1593
1596
1596
1596
1596
1593
1596
1593
1593
1596
1596
1596
1599
1602
1603
1601
1599
1602
1604
1605
1605
1608
1605
1608
1614
1615
1616
1622
1624
1627
1632
1635
1638
1641
1643
1645
1650
1655
1655
1655
1656
1659
1659
1659
1653
1653
1648
1642
1640
1635
1634
1636
1631
1629
1628
1617
1615
1615
1614
1611
1608
1612
1614
1611
1610
1611
1609
1612
1610
1611
1609
1610
1612
1611
1610
1614
1609
1608
1610
1608
1609
1605
1608
1612
1608
1605
1606
1611
1611
1614
1615
1612
1611
1612
1614
1614
1614
1612
1610
1611
1615
1614
1611
1611
1612
1612
1612
1611
1614
1621
1619
1614
1610
1611
1614
1612
1610
1612
1612
1615
1615
1614
1615
1612
1615
1615
1614
1612
1612
1614
1615
1617
1618
1611
1615
1615
1609
1612
1616
1612
1612
1611
1610
1609
1612
1615
1611
1616
1617
1618
1618
1616
1615
1615
1615
1618
1619
1621
1622
1625
1623
1627
1632
1636
1640
1636
1629
1628
1627
1627
1627
1623
1624
1622
1619
1616
1611
1615
1615
1615
1615
1610
1614
1615
1611
1611
1610
1611
1614
1612
1609
1608
1608
1611
1608
1605
1605
1609
1615
1636
1681
1735
1784
1809
1827
1830
1780
1713
1662
1640
1623
1617
1612
1612
1609
1605
1604
1605
1601
1601
1601
1602
1601
1601
1598
1598
1602
1601
1602
1598
1599
1602
1602
1604
1603
1605
1605
1605
1606
1608
1608
1608
1609
1609
1609
1611
1611
1611
1615
1612
1615
1614
1617
1617
1618
1618
1622
1624
1625
1629
1632
1636
1638
1641
1650
1650
1653
1656
1659
1660
1664
1667
1672
1672
1674
1669
1668
1667
1663
1660
1660
1655
1649
1643
1643
1636
1634
1631
1628
1625
1623
1623
1622
1622
1617
1618
1615
1615
1615
1612
1615
1612
1614
1614
1612
1614
1615
1615
1615
1617
1615
1615
1612
1615
1615
1616
1615
1615
1614
1615
1615
1612
1614
1614
1612
1612
1611
1616
1612
1612
1609
1611
1610
1611
1611
1610
1612
1610
1611
1610
1605
1608
1611
1621
1611
1610
1609
1612
1611
1611
1611
1612
1612
1612
1614
1610
1611
1608
1609
1610
1612
1614
1612
1610
1610
1608
1614
1610
1610
1615
1614
1612
1611
1610
1614
1612
1614
1615
1614
1611
1612
1612
1610
1614
1615
1615
1618
1619
1621
1622
1623
1624
1623
1627
1632
1635
1638
1636
1636
1631
1628
1627
1627
1627
1622
1623
1623
1618
1614
1615
1614
1615
1612
1610
1611
1608
1608
1611
1612
1610
1610
1611
1614
1609
1609
1611
1608
1605
1603
1603
1604
1611
1636
1634
1709
1767
1805
1821
1832
1797
1735
1693
1672
1653
1637
1629
1623
1616
1610
1608
1615
1605
1604
1603
1604
1601
1598
1598
1601
1602
1603
1602
1601
1599
1603
1602
1601
1601
1602
1601
1604
1605
1605
1605
1603
1603
1605
1606
1608
1605
1605
1608
1610
1611
1615
1612
1614
1614
1615
1617
1619
1622
1622
1629
1629
1630
1632
1634
1638
1643
1649
1653
1653
1654
1656
1664
1664
1664
1664
1664
1664
1664
1663
1659
1655
1653
1650
1645
1642
1640
1635
1634
1631
1630
1624
1621
1619
1618
1618
1615
1615
1617
1618
1615
1618
1616
1615
1615
1614
1612
1612
1612
1614
1612
1615
1612
1611
1611
1610
1617
1610
1610
1612
1611
1609
1608
1611
1609
1612
1605
1611
1610
1610
1610
1612
1611
1610
1610
1611
1609
1609
1605
1608
1611
1612
1616
1609
1611
1612
1612
1612
1615
1614
1612
1611
1610
1610
1611
1610
1612
1615
1611
1611
1605
1605
1611
1612
1614
1612
1611
1611
1612
1614
1615
1614
1611
1611
1611
1614
1612
1612
1616
1612
1610
1610
1608
1609
1611
1614
1616
1612
1612
1615
1616
1617
1621
1619
1622
1621
1622
1622
1622
1629
1630
1634
1635
1634
1629
1628
1624
1625
1624
1624
1619
1615
1608
1609
1608
1606
1605
1601
1604
1604
1605
1604
1602
1603
1602
1604
1603
1603
1604
1606
1604
1603
1602
1596
1597
1598
1604
1621
1656
1706
1759
1790
1816
1832
1801
1743
1692
1668
1655
1636
1624
1618
1618
1614
1608
1605
1603
1601
1603
1601
1598
1599
1598
1598
1596
1597
1597
1599
1593
1592
1597
1597
1598
1599
1597
1597
1597
1601
1597
1597
1602
1603
1602
1599
1599
1601
1601
1601
1605
1605
1608
1608
1611
1614
1616
1615
1615
1617
1617
1621
1615
1601
1611
1621
1627
1632
1638
1641
1645
1650
1653
1655
1659
1659
1656
1659
1660
1657
1654
1651
1650
1643
1643
1641
1640
1638
1631
1627
1625
1622
1622
1621
1615
1615
1615
1612
1612
1612
1611
1610
1610
1609
1608
1608
1611
1609
1609
1612
1611
1615
1615
1615
1612
1614
1610
1611
1612
1614
1612
1611
1611
1615
1614
1609
1612
1614
1611
1612
1612
1611
1610
1611
1611
1614
1610
1611
1608
1611
1612
1612
1609
1609
1605
1608
1611
1611
1611
1609
1611
1609
1609
1605
1605
1605
1608
1608
1608
1609
1609
1608
1611
1614
1609
1609
1608
1604
1605
1605
1608
1610
1608
1608
1608
1604
1605
1605
1608
1609
1606
1605
1606
1609
1608
1605
1604
1603
1605
1608
1606
1605
1605
1609
1612
1615
1612
1612
1615
1618
1619
1622
1622
1625
1623
1627
1628
1628
1623
1617
1618
1621
1622
1619
1612
1611
1611
1606
1608
1605
1605
1605
1604
1604
1603
1602
1602
1604
1602
1602
1602
1602
1603
1603
1602
1598
1593
1592
1596
1599
1609
1641
1687
1745
1783
1809
1827
1805
1748
1689
1661
1642
1625
1615
1612
1611
1605
1602
1596
1593
1593
1595
1596
1595
1592
1591
1592
1593
1593
1596
1593
1596
1593
1596
1596
1599
1598
1596
1589
1595
1597
1596
1599
1599
1598
1601
1603
1601
1601
1598
1602
1605
1601
1614
1611
1605
1610
1611
1612
1612
1617
1617
1621
1624
1629
1632
1638
1637
1641
1643
1643
1647
1649
1655
1657
1660
1663
1660
1662
1661
1660
1659
1653
1651
1649
1643
1642
1638
1632
1630
1627
1624
1623
1622
1618
1619
1618
1615
1621
1619
1616
1615
1615
1612
1612
1612
1615
1614
1615
1617
1615
1614
1612
1616
1621
1617
1612
1614
1615
1614
1614
1616
1605
1590
1593
1602
1608
1611
1614
1615
1612
1614
1612
1615
1612
1615
1612
1612
1612
1610
1612
1611
1612
1611
1612
1609
1612
1611
1611
1610
1608
1610
1612
1611
1611
1611
1612
1612
1611
1612
1609
1611
1611
1611
1611
1612
1612
1609
1610
1612
1615
1611
1611
1611
1611
1612
1615
1614
1611
1611
1611
1617
1615
1615
1615
1616
1619
1618
1624
1618
1617
1618
1621
1621
1623
1625
1629
1629
1631
1634
1630
1628
1622
1622
1622
1622
1621
1616
1617
1612
1612
1608
1604
1603
1603
1601
1602
1603
1603
1604
1603
1605
1603
1603
1605
1603
1602
1602
1597
1593
1593
1597
1597
1618
1650
1696
1752
1791
1816
1825
1788
1726
1681
1649
1635
1622
1615
1610
1610
1605
1604
1602
1597
1596
1595
1593
1592
1593
1592
1593
1595
1593
1593
1593
1596
1593
1597
1598
1596
1593
1593
1595
1597
1596
1598
1597
1597
1599
1599
1599
1601
1602
1602
1601
1599
1603
1603
1605
1608
1608
1611
1614
1611
1615
1621
1619
1623
1627
1630
1631
1636
1640
1641
1643
1650
1654
1657
1659
1656
1656
1657
1657
1655
1653
1649
1643
1643
1642
1642
1637
1631
1628
1624
1621
1618
1615
1621
1619
1616
1611
1608
1606
1608
1605
1608
1609
1608
1608
1605
1610
1605
1605
1609
1611
1610
1608
1603
1605
1605
1609
1608
1609
1603
1603
1605
1606
1608
1608
1608
1605
1605
1603
1610
1608
1608
1608
1608
1605
1605
1609
1608
1611
1610
1611
1608
1604
1605
1609
1611
1609
1611
1609
1611
1609
1611
1610
1609
1615
1612
1611
1611
1615
1609
1610
1611
1612
1610
1610
1612
1615
1614
1610
1609
1610
1611
1612
1612
1609
1610
1610
1610
1612
1611
1610
1611
1614
1614
1617
1615
1615
1616
1615
1621
1609
1614
1619
1627
1631
1635
1640
1637
1634
1630
1627
1627
1625
1623
1618
1612
1615
1610
1608
1605
1605
1605
1605
1608
1610
1610
1608
1605
1603
1602
1605
1605
1609
1611
1612
1611
1603
1598
1596
1597
1604
1623
1660
1711
1764
1797
1817
1827
1785
1724
1674
1656
1641
1625
1617
1612
1611
1610
1608
1605
1601
1597
1598
1596
1599
1596
1596
1596
1598
1598
1599
1599
1599
1601
1601
1599
1598
1597
1596
1597
1595
1597
1598
1598
1601
1599
1599
1597
1596
1598
1598
1602
1601
1601
1602
1603
1605
1606
1608
1610
1614
1617
1617
1617
1621
1627
1629
1630
1635
1638
1643
1643
1647
1654
1654
1659
1657
1657
1659
1656
1656
1655
1650
1644
1647
1643
1640
1634
1629
1629
1628
1624
1621
1617
1618
1614
1614
1612
1610
1608
1609
1616
1610
1611
1610
1610
1611
1611
1610
1609
1611
1611
1610
1608
1609
1611
1611
1610
1612
1612
1609
1608
1608
1611
1609
1611
1611
1611
1614
1612
1612
1611
1611
1611
1611
1611
1612
1610
1608
1608
1605
1605
1605
1606
1605
1603
1603
1608
1608
1608
1608
1605
1601
1604
1605
1608
1605
1605
1605
1608
1608
1604
1605
1608
1608
1608
1618
1605
1606
1605
1605
1605
1604
1603
1604
1605
1605
1605
1605
1608
1612
1609
1606
1609
1611
1612
1615
1612
1616
1617
1619
1622
1628
1628
1631
1629
1627
1622
1621
1622
1618
1618
1615
1612
1610
1608
1605
1602
1603
1603
1601
1603
1601
1603
1602
1603
1604
1602
1603
1601
1603
1602
1601
1601
1597
1597
1601
1601
1610
1634
1666
1721
1770
1802
1825
1821
1777
1713
1666
1641
1623
1617
1612
1611
1611
1605
1604
1602
1604
1599
1603
1603
1598
1596
1593
1596
1599
1598
1596
1585
1566
1574
1584
1586
1591
1597
1601
1603
1601
1599
1603
1604
1605
1603
1604
1601
1601
1599
1603
1605
1602
1605
1605
1603
1604
1608
1609
1615
1618
1618
1622
1622
1622
1625
1629
1634
1641
1649
1650
1649
1651
1659
1659
1657
1662
1662
1667
1668
1667
1664
1662
1659
1651
1648
1648
1643
1637
1635
1628
1625
1624
1622
1615
1615
1615
1617
1615
1610
1609
1610
1605
1605
1605
1610
1610
1611
1609
1608
1608
1604
1604
1608
1599
1608
1609
1608
1609
1605
1605
1605
1605
1608
1609
1603
1611
1608
1605
1608
1608
1608
1605
1605
1604
1605
1604
1608
1605
1605
1604
1611
1608
1608
1609
1609
1605
1605
1601
1602
1605
1603
1602
1602
1605
1605
1605
1605
1605
1604
1604
1603
1605
1605
1609
1608
1608
1611
1610
1610
1611
1611
1614
1612
1615
1617
1618
1622
1627
1630
1628
1622
1619
1617
1618
1617
1615
1611
1605
1604
1605
1603
1601
1602
1596
1591
1599
1598
1598
1602
1599
1598
1598
1596
1599
1598
1599
1598
1595
1590
1591
1593
1601
1625
1664
1728
1773
1803
1824
1823
1770
1703
1653
1622
1610
1605
1603
1602
1599
1598
1596
1597
1593
1593
1595
1592
1590
1591
1590
1592
1590
1588
1591
1590
1591
1593
1595
1591
1593
1593
1592
1593
1593
1592
1592
1593
1596
1597
1598
1596
1598
1601
1602
1602
1604
1605
1608
1610
1614
1612
1615
1615
1617
1621
1624
1627
1632
1636
1640
1643
1647
1650
1654
1660
1660
1660
1661
1664
1666
1669
1667
1662
1659
1650
1649
1645
1642
1638
1636
1636
1628
1624
1619
1617
1615
1617
1612
1610
1609
1609
1610
1611
1605
1610
1605
1604
1605
1608
1610
1611
1609
1609
1611
1605
1609
1608
1608
1608
1608
1605
1608
1611
1604
1624
1621
1615
1615
1615
1612
1611
1605
1605
1605
1605
1610
1605
1608
1606
1605
1606
1608
1601
1604
1605
1608
1604
1605
1605
1605
1605
1604
1608
1605
1605
1604
1602
1602
1603
1605
1606
1605
1605
1604
1605
1608
1609
1610
1611
1612
1615
1615
1615
1615
1616
1619
1617
1622
1627
1629
1630
1627
1625
1624
1618
1621
1621
1618
1612
1610
1608
1605
1605
1601
1602
1599
1597
1596
1595
1596
1596
1593
1598
1599
1599
1602
1596
1597
1596
1596
1592
1590
1593
1596
1599
1615
1649
1705
1759
1793
1818
1830
1795
1732
1687
1663
1643
1625
1617
1612
1605
1596
1591
1590
1589
1590
1588
1588
1591
1589
1585
1584
1584
1589
1591
1592
1593
1590
1589
1592
1592
1591
1589
1590
1586
1585
1585
1584
1586
1584
1585
1588
1586
1586
1588
1590
1590
1590
1590
1592
1595
1596
1599
1599
1602
1604
1604
1609
1614
1617
1621
1624
1630
1632
1637
1640
1642
1644
1643
1648
1650
1656
1654
1650
1650
1649
1643
1642
1640
1638
1634
1630
1627
1622
1621
1615
1612
1609
1610
1605
1608
1609
1604
1603
1601
1604
1605
1603
1598
1597
1596
1595
1593
1595
1595
1596
1598
1601
1596
1593
1593
1595
1592
1592
1595
1596
1595
1596
1596
1596
1593
1593
1593
1598
1601
1598
1595
1596
1593
1596
1596
1596
1597
1598
1597
1599
1599
1599
1596
1598
1598
1596
1596
1599
1599
1598
1596
1596
1593
1596
1593
1599
1596
1596
1595
1597
1597
1596
1599
1601
1602
1603
1601
1603
1605
1605
1605
1604
1609
1608
1609
1610
1615
1621
1624
1623
1622
1621
1617
1617
1618
1617
1614
1610
1609
1608
1605
1604
1604
1598
1596
1593
1596
1592
1593
1593
1593
1595
1591
1595
1591
1589
1572
1572
1580
1584
1582
1580
1584
1589
1598
1623
1664
1725
1773
1804
1824
1816
1760
1700
1667
1647
1631
1618
1611
1605
1603
1601
1593
1592
1593
1588
1589
1589
1589
1589
1589
1589
1582
1583
1585
1589
1586
1585
1586
1589
1588
1589
1591
1589
1590
1591
1592
1592
1591
1590
1593
1593
1592
1595
1597
1595
1597
1599
1599
1598
1598
1603
1603
1605
1605
1615
1610
1611
1612
1615
1617
1621
1625
1631
1638
1641
1643
1643
1647
1650
1650
1653
1650
1650
1653
1648
1643
1643
1640
1635
1631
1631
1625
1624
1621
1619
1615
1610
1610
1611
1608
1606
1604
1602
1601
1599
1601
1599
1598
1599
1598
1602
1602
1596
1598
1598
1596
1596
1596
1596
1596
1596
1597
1596
1593
1593
1595
1596
1596
1595
1593
1596
1596
1596
1602
1597
1596
1591
1597
1596
1596
1598
1598
1596
1598
1599
1598
1597
1595
1597
1598
1596
1596
1595
1596
1595
1598
1597
1597
1596
1596
1599
1598
1597
1601
1599
1601
1601
1593
1596
1597
1598
1595
1596
1597
1597
1598
1599
1597
1596
1596
1596
1596
1596
1598
1598
1601
1598
1596
1596
1595
1593
1593
1596
1596
1593
1596
1599
1603
1604
1603
1604
1603
1605
1605
1608
1618
1612
1621
1619
1619
1624
1617
1615
1618
1615
1612
1606
1605
1603
1601
1598
1597
1596
1596
1596
1591
1590
1593
1593
1593
1597
1590
1591
1591
1590
1592
1591
1590
1591
1591
1588
1590
1591
1593
1610
1640
1690
1745
1789
1814
1823
1791
1726
1674
1650
1635
1618
1610
1605
1603
1599
1597
1593
1592
1589
1591
1591
1592
1588
1589
1589
1588
1590
1589
1589
1588
1590
1591
1591
1589
1590
1592
1590
1590
1591
1593
1593
1589
1590
1593
1591
1593
1595
1596
1598
1598
1599
1601
1601
1602
1605
1605
1605
1608
1609
1614
1615
1618
1623
1625
1627
1631
1634
1636
1640
1642
1647
1648
1649
1650
1653
1653
1650
1649
1648
1645
1643
1640
1637
1637
1635
1630
1623
1622
1616
1615
1614
1614
1611
1610
1609
1612
1612
1609
1604
1604
1608
1611
1612
1605
1605
1604
1605
1605
1603
1603
1605
1604
1605
1603
1601
1598
1599
1603
1602
1605
1604
1602
1601
1601
1602
1603
1604
1604
1603
1603
1602
1603
1601
1602
1601
1599
1603
1602
1603
1601
1602
1603
1602
1605
1603
1603
1601
1598
1602
1601
1602
1599
1601
1598
1601
1598
1603
1602
1601
1602
1598
1605
1601
1603
1599
1598
1597
1599
1599
1598
1601
1601
1599
1602
1598
1601
1599
1601
1599
1598
1596
1596
1599
1599
1598
1598
1601
1601
1603
1603
1602
1603
1601
1602
1605
1603
1605
1603
1603
1604
1605
1609
1609
1611
1610
1612
1614
1614
1612
1615
1615
1621
1624
1627
1628
1628
1624
1619
1618
1617
1612
1610
1612
1612
1611
1605
1601
1599
1597
1596
1596
1597
1596
1596
1596
1595
1592
1595
1593
1593
1596
1598
1595
1592
1590
1588
1589
1590
1602
1641
1686
1744
1783
1804
1821
1788
1724
1674
1648
1632
1617
1612
1606
1599
1602
1597
1592
1591
1592
1592
1585
1588
1585
1588
1588
1589
1590
1590
1591
1589
1589
1592
1592
1592
1595
1593
1595
1592
1593
1593
1592
1595
1591
1593
1595
1598
1601
1596
1596
1599
1599
1598
1601
1605
1608
1609
1609
1611
1615
1615
1618
1622
1622
1627
1632
1636
1640
1641
1643
1650
1650
1649
1650
1654
1653
1653
1655
1655
1654
1650
1648
1643
1641
1640
1636
1631
1629
1627
1627
1624
1619
1615
1614
1610
1611
1612
1609
1608
1608
1603
1577
1586
1593
1596
1601
1602
1603
1604
1604
1604
1605
1605
1604
1603
1605
1602
1605
1603
1608
1609
1606
1608
1608
1605
1605
1605
1605
1612
1609
1609
1611
1603
1610
1605
1604
1605
1605
1605
1605
1605
1605
1605
1605
1608
1605
1605
1605
1605
1604
1605
1612
1611
1610
1609
1605
1605
1608
1610
1612
1609
1609
1605
1605
1603
1604
1603
1603
1605
1604
1604
1605
1603
1603
1603
1604
1603
1604
1604
1605
1603
1603
1602
1605
1605
1605
1605
1603
1603
1601
1602
1605
1605
1605
1605
1604
1605
1609
1610
1610
1612
1614
1615
1616
1617
1619
1623
1624
1627
1625
1622
1615
1615
1615
1612
1609
1608
1606
1605
1603
1602
1599
1604
1605
1605
1596
1590
1585
1580
1582
1584
1590
1601
1608
1603
1602
1602
1595
1591
1586
1582
1586
1596
1612
1645
1696
1748
1788
1810
1824
1784
1718
1668
1644
1628
1615
1610
1605
1605
1599
1596
1593
1593
1589
1589
1588
1589
1589
1585
1586
1585
1586
1585
1586
1589
1589
1589
1589
1589
1591
1589
1590
1589
1586
1586
1585
1585
1589
1589
1590
1590
1589
1589
1590
1593
1592
1593
1596
1593
1597
1598
1602
1604
1608
1609
1609
1615
1615
1621
1623
1627
1629
1631
1634
1638
1643
1647
1649
1650
1649
1653
1654
1654
1650
1649
1647
1645
1641
1636
1634
1629
1627
1623
1619
1616
1615
1611
1610
1609
1606
1605
1604
1605
1605
1605
1601
1603
1601
1603
1603
1599
1598
1596
1601
1603
1602
1601
1602
1601
1602
1599
1602
1601
1601
1603
1605
1603
1602
1602
1603
1604
1602
1598
1601
1602
1605
1603
1604
1603
1605
1602
1604
1604
1604
1605
1605
1604
1605
1605
1605
1608
1608
1608
1603
1606
1605
1605
1605
1604
1603
1603
1604
1602
1649
1634
1621
1616
1615
1611
1605
1604
1602
1605
1604
1608
1603
1603
1604
1604
1608
1605
1605
1603
1604
1605
1604
1605
1605
1605
1605
1604
1605
1605
1609
1610
1608
1604
1608
1609
1608
1612
1612
1616
1615
1615
1617
1618
1617
1622
1628
1631
1631
1634
1634
1627
1624
1622
1621
1617
1615
1612
1611
1610
1604
1608
1605
1605
1603
1601
1602
1599
1599
1602
1599
1598
1599
1602
1601
1601
1599
1602
1599
1593
1596
1593
1595
1597
1603
1623
1661
1714
1764
1801
1818
1825
1783
1716
1668
1648
1631
1621
1611
1608
1605
1603
1597
1597
1597
1596
1593
1595
1592
1592
1592
1592
1593
1593
1592
1590
1589
1592
1595
1593
1596
1593
1590
1590
1592
1588
1591
1590
1591
1592
1592
1591
1593
1589
1591
1593
1598
1602
1602
1602
1601
1605
1605
1609
1608
1611
1612
1616
1618
1625
1629
1630
1631
1632
1638
1641
1643
1649
1653
1653
1655
1655
1659
1659
1657
1653
1647
1643
1643
1643
1642
1636
1631
1629
1624
1624
1622
1621
1617
1616
1615
1611
1619
1609
1610
1609
1609
1605
1608
1603
1602
1602
1601
1603
1601
1601
1603
1603
1603
1601
1602
1602
1601
1605
1604
1603
1602
1603
1605
1605
1605
1605
1604
1605
1604
1603
1603
1603
1605
1603
1603
1603
1605
1603
1605
1605
1605
1605
1603
1605
1609
1605
1603
1603
1602
1603
1605
1605
1605
1604
1605
1605
1606
1606
1605
1603
1604
1604
1605
1605
1604
1603
1603
1605
1605
1605
1605
1605
1605
1605
1608
1608
1604
1603
1603
1603
1604
1605
1605
1605
1609
1612
1615
1615
1614
1615
1615
1612
1615
1616
1622
1627
1630
1631
1629
1625
1619
1618
1618
1615
1614
1610
1609
1608
1604
1598
1631
1621
1614
1611
1608
1605
1603
1604
1603
1603
1602
1603
1601
1602
1599
1598
1593
1593
1601
1593
1597
1611
1647
1690
1743
1785
1812
1827
1795
1731
1679
1653
1636
1623
1615
1612
1609
1605
1603
1598
1598
1597
1599
1597
1596
1596
1596
1597
1596
1596
1595
1595
1598
1596
1599
1599
1599
1598
1597
1596
1596
1597
1599
1598
1602
1601
1601
1598
1599
1602
1599
1599
1604
1603
1603
1609
1609
1611
1609
1610
1611
1615
1615
1619
1627
1631
1634
1637
1637
1641
1647
1645
1648
1655
1656
1659
1655
1653
1655
1657
1651
1650
1645
1641
1643
1636
1631
1631
1627
1624
1623
1621
1621
1615
1615
1612
1611
1611
1605
1608
1605
1605
1605
1605
1605
1605
1604
1603
1605
1605
1603
1601
1599
1598
1602
1603
1603
1602
1604
1604
1605
1605
1601
1603
1603
1605
1603
1605
1603
1603
1604
1603
1606
1605
1608
1602
1603
1603
1603
1605
1610
1606
1605
1605
1603
1603
1604
1602
1604
1603
1602
1601
1605
1605
1605
1602
1603
1603
1605
1604
1603
1605
1605
1608
1603
1604
1608
1605
1605
1605
1608
1609
1610
1611
1612
1612
1612
1615
1614
1611
1615
1621
1624
1624
1630
1630
1627
1619
1621
1618
1617
1614
1614
1612
1610
1605
1604
1599
1603
1603
1602
1598
1599
1599
1603
1605
1605
1605
1604
1598
1599
1597
1598
1596
1598
1598
1598
1604
1604
1622
1657
1709
1761
1797
1819
1827
1784
1725
1668
1640
1628
1622
1615
1611
1604
1596
1603
1599
1593
1595
1602
1598
1595
1593
1596
1598
1601
1598
1597
1592
1602
1604
1602
1599
1599
1597
1595
1593
1599
1601
1603
1605
1603
1601
1602
1602
1605
1605
1612
1611
1609
1611
1610
1610
1614
1615
1617
1577
1590
1602
1610
1621
1627
1635
1641
1641
1650
1653
1655
1657
1657
1666
1669
1669
1667
1668
1675
1675
1672
1667
1666
1660
1651
1648
1643
1641
1638
1632
1628
1623
1621
1622
1621
1619
1615
1616
1615
1615
1618
1615
1612
1615
1614
1611
1610
1608
1611
1611
1609
1609
1614
1615
1615
1612
1610
1611
1612
1612
1614
1617
1611
1609
1611
1610
1611
1611
1609
1608
1608
1611
1614
1610
1612
1612
1609
1605
1609
1612
1610
1608
1603
1605
1608
1608
1608
1609
1608
1605
1609
1611
1604
1605
1605
1605
1605
1605
1605
1611
1614
1612
1614
1615
1615
1611
1619
1612
1612
1616
1619
1625
1627
1629
1629
1627
1619
1622
1615
1616
1618
1610
1611
1603
1599
1601
1598
1596
1595
1597
1598
1597
1596
1595
1595
1595
1596
1592
1595
1595
1595
1596
1593
1590
1589
1589
1589
1593
1611
1650
1696
1751
1789
1814
1831
1806
1739
1686
1643
1623
1612
1609
1605
1602
1597
1592
1592
1592
1591
1593
1592
1592
1593
1589
1592
1593
1595
1597
1595
1593
1596
1592
1592
1593
1593
1593
1593
1593
1595
1592
1593
1593
1595
1596
1598
1595
1599
1597
1596
1598
1602
1601
1603
1603
1605
1605
1606
1608
1610
1616
1618
1619
1623
1625
1631
1637
1637
1641
1643
1649
1653
1653
1655
1657
1662
1660
1662
1659
1659
1657
1653
1650
1651
1643
1634
1631
1629
1627
1622
1621
1618
1615
1615
1611
1610
1610
1609
1605
1605
1603
1601
1605
1604
1603
1604
1603
1605
1605
1605
1608
1605
1608
1605
1604
1603
1603
1605
1605
1605
1604
1609
1611
1605
1605
1605
1605
1608
1605
1608
1611
1609
1605
1609
1608
1609
1611
1610
1611
1605
1606
1609
1616
1610
1611
1608
1611
1610
1608
1605
1608
1610
1605
1610
1610
1628
1640
1627
1624
1623
1619
1618
1621
1622
1622
1618
1618
1617
1622
1622
1627
1629
1628
1634
1630
1625
1622
1624
1622
1621
1623
1615
1612
1610
1610
1609
1609
1605
1603
1601
1602
1603
1603
1603
1603
1599
1601
1602
1604
1611
1609
1605
1603
1598
1596
1596
1601
1610
1638
1685
1744
1785
1809
1828
1830
1774
1718
1683
1668
1648
1631
1624
1615
1612
1609
1608
1603
1601
1596
1596
1593
1593
1597
1598
1598
1597
1596
1595
1596
1595
1597
1596
1592
1596
1598
1597
1593
1595
1597
1596
1596
1596
1598
1598
1599
1601
1599
1598
1598
1596
1598
1602
1603
1605
1605
1603
1609
1612
1615
1616
1617
1618
1622
1627
1630
1632
1638
1643
1649
1648
1649
1650
1653
1656
1657
1659
1655
1656
1654
1653
1649
1643
1643
1637
1632
1629
1625
1622
1621
1618
1616
1612
1612
1611
1610
1609
1609
1610
1612
1611
1609
1608
1608
1608
1608
1608
1605
1605
1605
1604
1601
1605
1611
1610
1605
1602
1605
1604
1605
1605
1605
1605
1604
1603
1602
1604
1602
1601
1603
1605
1608
1608
1605
1606
1605
1605
1605
1603
1603
1605
1606
1605
1603
1603
1603
1605
1605
1605
1604
1603
1605
1605
1608
1605
1603
1611
1611
1608
1611
1611
1615
1615
1614
1615
1615
1615
1616
1616
1621
1622
1624
1627
1631
1628
1622
1621
1615
1615
1616
1615
1612
1610
1608
1605
1603
1601
1602
1598
1602
1601
1598
1599
1599
1599
1601
1599
1597
1596
1598
1601
1602
1598
1593
1591
1589
1599
1612
1649
1698
1754
1791
1819
1832
1790
1732
1683
1660
1647
1630
1623
1617
1611
1605
1603
1603
1603
1599
1597
1596
1595
1592
1593
1593
1590
1596
1598
1598
1602
1599
1598
1596
1596
1596
1598
1599
1595
1591
1591
1596
1596
1598
1599
1602
1601
1602
1602
1602
1603
1605
1605
1612
1609
1612
1614
1615
1615
1618
1621
1622
1628
1631
1634
1640
1643
1644
1650
1650
1653
1656
1655
1662
1662
1657
1660
1660
1661
1656
1650
1650
1647
1640
1636
1634
1632
1629
1624
1621
1621
1625
1619
1619
1615
1615
1612
1615
1617
1615
1617
1617
1610
1612
1612
1611
1612
1612
1611
1611
1615
1615
1612
1610
1612
1611
1608
1608
1610
1609
1611
1611
1611
1610
1611
1612
1611
1610
1609
1611
1605
1605
1605
1606
1609
1609
1608
1608
1608
1605
1604
1608
1606
1605
1603
1604
1605
1605
1605
1604
1602
1605
1605
1608
1605
1604
1605
1603
1602
1602
1603
1603
1604
1605
1608
1605
1604
1605
1603
1603
1606
1605
1605
1605
1604
1603
1605
1608
1610
1611
1610
1612
1609
1612
1615
1617
1618
1624
1628
1627
1630
1629
1624
1619
1621
1621
1621
1615
1615
1614
1611
1605
1605
1604
1603
1603
1603
1601
1602
1602
1599
1601
1603
1603
1603
1601
1598
1598
1596
1596
1592
1590
1591
1592
1603
1631
1672
1726
1772
1802
1823
1809
1750
1690
1654
1641
1628
1617
1615
1611
1608
1605
1601
1597
1596
1593
1592
1593
1593
1593
1592
1593
1591
1590
1592
1593
1595
1596
1596
1596
1596
1596
1595
1593
1593
1589
1596
1596
1596
1598
1596
1598
1598
1602
1597
1598
1597
1598
1601
1604
1611
1611
1611
1615
1614
1615
1617
1621
1624
1627
1631
1635
1637
1642
1645
1650
1650
1653
1656
1656
1659
1660
1661
1661
1660
1656
1654
1650
1649
1649
1642
1636
1631
1630
1627
1627
1625
1622
1619
1617
1621
1612
1621
1612
1612
1612
1615
1614
1612
1611
1614
1612
1611
1612
1612
1611
1611
1611
1603
1638
1629
1622
1619
1616
1615
1615
1612
1612
1614
1612
1614
1612
1610
1608
1606
1609
1608
1608
1611
1612
1612
1612
1609
1611
1619
1612
1605
1610
1611
1612
1610
1610
1612
1612
1614
1612
1611
1611
1608
1606
1611
1612
1614
1612
1614
1612
1615
1612
1612
1612
1615
1614
1615
1612
1612
1612
1614
1617
1614
1612
1608
1611
1610
1612
1612
1612
1612
1609
1611
1611
1615
1614
1615
1612
1615
1615
1618
1621
1621
1617
1619
1621
1622
1619
1625
1630
1634
1631
1631
1632
1630
1627
1627
1625
1624
1621
1618
1615
1615
1615
1612
1611
1610
1604
1605
1605
1605
1605
1608
1608
1608
1605
1603
1603
1604
1605
1605
1603
1601
1602
1602
1599
1604
1622
1664
1719
1764
1797
1816
1830
1793
1731
1675
1640
1619
1612
1608
1610
1611
1609
1605
1601
1601
1593
1596
1596
1599
1596
1598
1596
1597
1598
1598
1599
1599
1601
1599
1599
1597
1601
1601
1601
1601
1601
1602
1602
1603
1602
1603
1603
1601
1603
1605
1608
1608
1610
1608
1609
1615
1616
1617
1612
1623
1625
1622
1627
1629
1631
1636
1641
1643
1643
1647
1651
1657
1660
1667
1668
1667
1672
1672
1672
1667
1668
1669
1664
1662
1656
1649
1647
1638
1636
1631
1629
1629
1627
1627
1622
1619
1617
1617
1614
1612
1611
1612
1612
1612
1615
1612
1611
1614
1610
1611
1612
1610
1612
1612
1612
1614
1610
1611
1610
1614
1615
1615
1612
1615
1616
1614
1612
1610
1611
1615
1612
1611
1612
1608
1611
1612
1615
1612
1615
1615
1616
1610
1609
1609
1610
1610
1611
1614
1612
1610
1611
1617
1612
1615
1612
1614
1612
1615
1612
1614
1612
1615
1615
1615
1616
1610
1612
1614
1612
1612
1612
1612
1612
1615
1612
1615
1602
1605
1606
1612
1616
1617
1621
1619
1621
1619
1621
1624
1622
1627
1629
1634
1635
1634
1634
1631
1630
1629
1630
1628
1623
1619
1621
1616
1615
1615
1612
1612
1611
1609
1611
1612
1612
1611
1609
1606
1608
1609
1609
1610
1611
1611
1608
1606
1601
1602
1605
1610
1629
1659
1707
1759
1799
1822
1837
1824
1764
1703
1675
1657
1640
1631
1627
1623
1617
1614
1611
1605
1603
1603
1602
1601
1603
1604
1601
1604
1604
1605
1602
1603
1603
1603
1605
1604
1605
1605
1605
1603
1605
1605
1608
1610
1605
1605
1604
1603
1603
1604
1605
1604
1608
1608
1609
1610
1612
1610
1612
1614
1617
1621
1623
1628
1632
1636
1640
1638
1642
1648
1653
1653
1656
1661
1661
1666
1662
1664
1664
1664
1660
1660
1655
1656
1650
1643
1643
1643
1640
1629
1630
1628
1622
1622
1622
1623
1622
1622
1621
1621
1618
1615
1615
1615
1617
1617
1617
1619
1619
1621
1621
1618
1622
1618
1615
1614
1616
1615
1612
1615
1614
1615
1616
1616
1616
1616
1617
1615
1617
1615
1617
1615
1614
1612
1615
1614
1617
1615
1617
1614
1615
1612
1611
1614
1612
1612
1611
1614
1612
1615
1615
1615
1617
1616
1617
1612
1612
1612
1614
1615
1612
1612
1614
1615
1614
1612
1615
1612
1617
1618
1617
1612
1616
1617
1617
1619
1615
1621
1622
1618
1621
1621
1623
1625
1623
1627
1627
1628
1630
1636
1638
1642
1641
1638
1635
1629
1631
1630
1628
1624
1621
1622
1622
1619
1619
1618
1612
1609
1610
1609
1610
1614
1612
1615
1614
1615
1612
1612
1615
1612
1610
1608
1604
1604
1608
1615
1630
1662
1714
1769
1804
1825
1841
1804
1744
1699
1679
1659
1645
1635
1630
1623
1617
1615
1612
1605
1601
1599
1605
1603
1603
1604
1599
1605
1603
1602
1605
1605
1604
1603
1603
1605
1603
1604
1604
1605
1603
1599
1605
1605
1605
1608
1608
1611
1611
1610
1609
1612
1610
1615
1617
1621
1621
1623
1624
1627
1630
1628
1634
1637
1638
1642
1649
1650
1653
1657
1660
1663
1667
1667
1673
1672
1673
1672
1674
1669
1667
1664
1664
1660
1651
1648
1645
1643
1641
1637
1636
1634
1632
1628
1622
1622
1622
1624
1624
1624
1622
1623
1623
1622
1621
1618
1618
1619
1621
1621
1617
1617
1617
1618
1618
1621
1622
1618
1617
1619
1622
1618
1618
1615
1617
1617
1618
1617
1617
1614
1614
1612
1615
1615
1615
1615
1615
1614
1614
1612
1612
1612
1615
1612
1615
1618
1617
1614
1612
1611
1610
1612
1612
1614
1616
1614
1612
1610
1611
1614
1611
1614
1614
1615
1612
1615
1612
1611
1612
1614
1612
1615
1614
1614
1614
1615
1615
1618
1612
1615
1614
1615
1615
1618
1621
1625
1625
1628
1624
1625
1627
1628
1629
1634
1636
1642
1643
1641
1641
1640
1640
1634
1634
1629
1623
1621
1617
1615
1614
1615
1616
1615
1612
1612
1610
1610
1605
1610
1612
1612
1610
1612
1611
1611
1611
1608
1602
1599
1598
1602
1605
1622
1655
1703
1754
1791
1816
1830
1809
1745
1696
1672
1655
1643
1629
1627
1619
1615
1617
1615
1612
1608
1605
1604
1605
1605
1608
1609
1609
1605
1605
1608
1606
1609
1605
1606
1606
1609
1611
1608
1609
1610
1608
1610
1611
1612
1612
1615
1612
1615
1612
1614
1612
1615
1617
1617
1618
1621
1619
1621
1619
1624
1628
1632
1632
1637
1638
1643
1650
1650
1650
1655
1660
1662
1664
1668
1672
1675
1672
1675
1674
1669
1668
1668
1667
1662
1659
1655
1653
1649
1645
1643
1625
1604
1615
1618
1623
1627
1627
1625
1623
1623
1625
1623
1619
1615
1617
1618
1619
1621
1621
1619
1619
1619
1617
1618
1619
1621
1621
1623
1624
1623
1622
1623
1627
1624
1622
1617
1619
1621
1622
1622
1622
1621
1622
1622
1624
1622
1622
1623
1622
1622
1621
1627
1622
1621
1622
1618
1619
1617
1617
1619
1621
1621
1618
1618
1619
1618
1621
1615
1617
1616
1619
1617
1619
1617
1615
1615
1618
1615
1615
1615
1616
1619
1617
1617
1621
1621
1617
1617
1616
1615
1615
1616
1618
1618
1618
1619
1621
1621
1622
1623
1628
1627
1624
1623
1622
1627
1634
1634
1635
1642
1645
1643
1637
1631
1627
1629
1628
1627
1624
1621
1618
1615
1615
1612
1612
1611
1605
1609
1608
1610
1611
1610
1609
1608
1608
1609
1608
1608
1611
1608
1604
1598
1598
1604
1605
1618
1648
1694
1750
1789
1811
1828
1801
1740
1687
1660
1649
1638
1627
1623
1616
1612
1614
1611
1608
1605
1603
1603
1603
1602
1603
1603
1603
1605
1605
1605
1605
1603
1603
1601
1601
1603
1605
1605
1605
1605
1605
1601
1599
1601
1603
1604
1605
1605
1608
1608
1605
1608
1611
1612
1612
1611
1612
1615
1615
1615
1619
1624
1627
1628
1631
1634
1636
1641
1645
1648
1651
1653
1656
1662
1664
1670
1668
1667
1666
1668
1663
1660
1656
1653
1651
1648
1647
1641
1640
1637
1635
1629
1630
1627
1628
1628
1621
1619
1619
1617
1617
1616
1617
1619
1619
1618
1617
1618
1617
1618
1617
1615
1617
1618
1617
1617
1617
1615
1617
1618
1618
1618
1619
1618
1617
1615
1616
1615
1618
1618
1618
1617
1621
1615
1619
1617
1617
1615
1617
1615
1617
1619
1619
1618
1615
1617
1617
1617
1617
1616
1618
1618
1605
1596
1605
1609
1614
1616
1617
1616
1615
1617
1615
1615
1615
1614
1616
1622
1615
1615
1615
1616
1615
1615
1615
1617
1616
1621
1619
1619
1621
1623
1622
1627
1627
1625
1629
1627
1629
1628
1631
1637
1641
1643
1644
1643
1637
1634
1635
1636
1631
1627
1624
1622
1621
1621
1617
1619
1615
1614
1612
1612
1614
1612
1621
1614
1615
1611
1615
1612
1611
1609
1609
1612
1608
1601
1601
1605
1622
1653
1702
1757
1795
1817
1830
1791
1726
1681
1660
1643
1631
1617
1621
1617
1612
1610
1606
1608
1611
1609
1605
1605
1604
1604
1603
1605
1605
1605
1605
1608
1608
1604
1605
1605
1605
1605
1610
1612
1609
1605
1608
1609
1611
1608
1608
1610
1609
1614
1612
1612
1614
1614
1612
1610
1612
1619
1622
1625
1630
1628
1629
1631
1634
1642
1643
1643
1649
1653
1655
1657
1659
1659
1663
1667
1668
1669
1666
1666
1664
1662
1660
1653
1653
1648
1643
1641
1640
1631
1629
1627
1627
1627
1624
1623
1622
1623
1621
1621
1622
1621
1618
1617
1615
1615
1615
1615
1615
1615
1617
1621
1621
1616
1615
1615
1614
1615
1614
1610
1612
1614
1612
1612
1615
1612
1612
1615
1615
1615
1616
1615
1615
1614
1612
1615
1615
1615
1616
1615
1615
1615
1615
1614
1612
1615
1615
1615
1615
1614
1612
1612
1612
1611
1615
1615
1615
1615
1617
1615
1615
1617
1616
1615
1611
1615
1614
1615
1617
1615
1616
1614
1616
1617
1616
1615
1618
1623
1619
1622
1622
1622
1623
1627
1629
1629
1629
1636
1634
1637
1642
1643
1640
1634
1631
1630
1630
1627
1622
1622
1621
1617
1617
1616
1617
1617
1614
1612
1612
1612
1611
1612
1612
1611
1611
1612
1612
1612
1611
1612
1608
1601
1603
1605
1611
1619
1623
1689
1750
1792
1815
1816
1764
1703
1666
1650
1638
1629
1621
1621
1615
1612
1610
1608
1606
1606
1608
1603
1601
1604
1602
1602
1602
1601
1602
1601
1602
1604
1603
1603
1603
1604
1601
1603
1603
1604
1604
1605
1605
1608
1608
1608
1608
1609
1606
1609
1610
1609
1610
1611
1615
1616
1621
1618
1621
1622
1624
1628
1631
1634
1638
1641
1644
1649
1650
1649
1655
1656
1660
1662
1664
1662
1660
1662
1662
1657
1657
1654
1655
1650
1647
1641
1640
1634
1631
1630
1630
1628
1623
1622
1621
1623
1621
1621
1621
1618
1617
1615
1615
1615
1612
1611
1612
1612
1616
1615
1612
1612
1608
1611
1612
1612
1612
1610
1609
1610
1612
1611
1611
1610
1610
1612
1611
1612
1609
1611
1608
1606
1608
1608
1605
1612
1608
1605
1608
1605
1609
1608
1608
1609
1608
1608
1609
1611
1612
1611
1611
1614
1611
1608
1609
1605
1608
1610
1611
1608
1606
1608
1608
1608
1608
1605
1608
1608
1609
1609
1609
1609
1610
1612
1611
1610
1610
1610
1610
1615
1611
1614
1612
1615
1615
1616
1621
1619
1624
1630
1634
1632
1629
1627
1622
1619
1621
1617
1617
1615
1612
1611
1608
1610
1608
1605
1608
1605
1603
1603
1605
1605
1604
1605
1603
1606
1617
1605
1605
1608
1605
1601
1598
1599
1601
1603
1623
1660
1708
1760
1797
1816
1818
1770
1709
1664
1650
1632
1624
1616
1615
1610
1608
1605
1603
1602
1601
1603
1603
1602
1603
1605
1603
1599
1598
1599
1601
1599
1602
1604
1602
1603
1602
1601
1601
1603
1603
1604
1603
1605
1605
1604
1603
1605
1605
1603
1606
1603
1603
1604
1606
1609
1612
1612
1615
1615
1618
1619
1624
1627
1627
1634
1636
1636
1643
1643
1648
1649
1653
1656
1653
1677
1672
1668
1669
1667
1664
1662
1659
1654
1650
1648
1643
1643
1638
1634
1631
1629
1630
1628
1625
1617
1621
1617
1617
1615
1612
1614
1612
1612
1611
1612
1612
1612
1612
1614
1608
1611
1611
1614
1618
1616
1615
1615
1619
1617
1617
1618
1614
1619
1617
1618
1619
1616
1616
1616
1616
1616
1617
1615
1616
1617
1615
1615
1615
1612
1615
1618
1618
1612
1612
1614
1612
1610
1611
1614
1612
1615
1612
1615
1612
1610
1612
1612
1610
1611
1611
1605
1609
1608
1610
1610
1606
1608
1605
1606
1608
1612
1612
1611
1609
1612
1610
1614
1615
1615
1615
1618
1617
1622
1618
1619
1621
1624
1630
1632
1635
1636
1631
1625
1621
1622
1624
1622
1618
1615
1612
1608
1604
1605
1602
1601
1602
1603
1603
1603
1598
1602
1599
1599
1602
1602
1599
1601
1599
1599
1598
1590
1599
1599
1602
1623
1654
1702
1754
1792
1811
1816
1766
1705
1662
1648
1637
1625
1617
1615
1614
1608
1604
1602
1599
1598
1596
1596
1593
1595
1593
1593
1595
1596
1598
1598
1596
1596
1596
1596
1596
1596
1595
1596
1593
1596
1596
1597
1596
1599
1597
1596
1597
1599
1601
1601
1603
1602
1605
1608
1611
1608
1610
1615
1615
1621
1622
1622
1627
1630
1636
1636
1641
1642
1645
1645
1650
1657
1659
1660
1661
1662
1663
1663
1662
1656
1657
1650
1650
1647
1645
1641
1638
1634
1628
1630
1625
1623
1621
1619
1617
1618
1617
1615
1615
1615
1612
1615
1615
1614
1611
1609
1612
1612
1610
1612
1615
1623
1615
1615
1612
1615
1616
1612
1612
1611
1612
1615
1612
1611
1615
1615
1612
1612
1612
1615
1612
1612
1614
1614
1612
1612
1612
1612
1610
1614
1614
1612
1615
1611
1611
1611
1615
1606
1619
1618
1615
1610
1608
1605
1606
1609
1608
1609
1608
1610
1610
1608
1611
1610
1611
1611
1612
1610
1610
1611
1611
1612
1612
1618
1619
1618
1617
1618
1622
1621
1621
1624
1630
1637
1638
1638
1636
1630
1627
1627
1627
1623
1619
1619
1617
1612
1611
1611
1612
1609
1608
1605
1611
1609
1609
1605
1605
1605
1605
1605
1603
1603
1601
1598
1596
1592
1592
1593
1602
1618
1661
1708
1759
1795
1819
1810
1754
1695
1657
1641
1627
1618
1612
1612
1606
1604
1603
1598
1599
1596
1597
1598
1596
1591
1593
1593
1595
1592
1591
1592
1593
1592
1591
1591
1592
1589
1591
1592
1593
1595
1597
1598
1596
1596
1595
1596
1596
1599
1597
1598
1601
1601
1601
1603
1604
1605
1608
1608
1608
1612
1615
1618
1621
1623
1629
1634
1634
1635
1640
1645
1649
1650
1654
1655
1653
1653
1655
1653
1650
1649
1645
1643
1641
1634
1632
1631
1632
1629
1624
1619
1618
1615
1612
1612
1614
1614
1614
1611
1611
1611
1609
1605
1605
1609
1608
1605
1605
1609
1608
1611
1608
1609
1605
1605
1605
1604
1604
1605
1605
1605
1605
1601
1601
1603
1603
1603
1602
1604
1602
1604
1605
1605
1603
1603
1603
1604
1603
1603
1604
1603
1604
1603
1605
1603
1603
1603
1605
1603
1602
1603
1603
1605
1605
1604
1601
1605
1605
1604
1601
1604
1605
1603
1603
1603
1602
1605
1603
1604
1604
1604
1605
1605
1610
1611
1611
1614
1612
1615
1615
1617
1614
1612
1612
1615
1619
1624
1625
1625
1625
1622
1622
1619
1617
1615
1614
1615
1612
1609
1605
1605
1602
1603
1603
1596
1597
1598
1598
1599
1597
1596
1599
1599
1599
1602
1598
1599
1597
1590
1591
1595
1593
1611
1650
1699
1752
1789
1811
1812
1767
1702
1667
1649
1634
1622
1617
1610
1610
1605
1602
1599
1597
1593
1593
1589
1589
1590
1591
1591
1590
1593
1592
1590
1590
1592
1591
1593
1593
1593
1592
1591
1590
1591
1593
1592
1596
1595
1596
1596
1597
1598
1598
1599
1599
1601
1602
1609
1605
1608
1608
1608
1610
1612
1614
1619
1621
1622
1624
1630
1636
1636
1640
1643
1649
1643
1650
1653
1656
1653
1659
1655
1654
1653
1650
1653
1645
1638
1636
1635
1629
1628
1627
1619
1619
1615
1615
1612
1610
1609
1605
1604
1602
1603
1605
1604
1604
1601
1603
1602
1601
1603
1598
1597
1601
1602
1603
1601
1599
1601
1603
1601
1602
1602
1602
1601
1598
1597
1591
1593
1593
1597
1598
1601
1602
1596
1596
1595
1598
1598
1602
1601
1602
1599
1596
1593
1593
1595
1593
1596
1598
1599
1602
1602
1599
1597
1596
1596
1592
1596
1593
1596
1598
1599
1601
1597
1597
1597
1596
1596
1597
1598
1602
1603
1605
1605
1603
1601
1603
1605
1608
1614
1618
1622
1622
1618
1619
1612
1612
1614
1609
1605
1603
1601
1599
1596
1593
1593
1591
1591
1589
1588
1590
1586
1586
1588
1589
1590
1588
1585
1586
1586
1585
1591
1584
1585
1585
1585
1589
1609
1649
1699
1752
1788
1811
1814
1771
1709
1653
1617
1605
1599
1596
1591
1590
1589
1586
1589
1584
1586
1586
1588
1588
1585
1586
1586
1582
1586
1589
1585
1585
1589
1584
1583
1582
1584
1586
1584
1586
1585
1585
1588
1591
1592
1591
1591
1590
1592
1592
1593
1597
1593
1596
1599
1599
1603
1603
1604
1608
1611
1611
1614
1615
1627
1629
1634
1635
1640
1641
1643
1647
1653
1650
1657
1659
1657
1660
1660
1655
1659
1656
1651
1649
1643
1636
1634
1635
1624
1621
1624
1648
1634
1624
1619
1612
1605
1605
1601
1602
1599
1599
1599
1599
1596
1596
1596
1598
1596
1593
1596
1596
1596
1596
1596
1595
1596
1598
1597
1593
1593
1595
1596
1595
1597
1598
1598
1596
1596
1598
1599
1598
1598
1598
1598
1596
1596
1596
1596
1591
1595
1593
1596
1593
1593
1593
1592
1593
1591
1592
1588
1591
1593
1593
1593
1593
1593
1593
1593
1593
1590
1590
1591
1592
1595
1596
1597
1597
1605
1602
1604
1604
1604
1605
1611
1612
1612
1617
1619
1617
1609
1605
1603
1604
1602
1599
1596
1593
1591
1591
1591
1590
1586
1585
1585
1586
1585
1584
1584
1582
1585
1585
1585
1584
1582
1582
1584
1582
1577
1577
1580
1582
1603
1631
1681
1735
1783
1811
1821
1785
1721
1663
1637
1622
1608
1602
1595
1591
1589
1586
1586
1584
1579
1574
1577
1576
1577
1579
1582
1578
1577
1577
1579
1580
1578
1580
1579
1574
1579
1577
1577
1578
1579
1582
1580
1580
1582
1580
1580
1580
1583
1582
1584
1585
1586
1585
1586
1588
1589
1589
1593
1595
1599
1598
1599
1603
1605
1611
1614
1618
1622
1623
1624
1627
1631
1634
1637
1636
1636
1641
1637
1640
1635
1631
1628
1624
1624
1618
1614
1609
1611
1605
1601
1602
1596
1596
1595
1592
1593
1593
1589
1589
1591
1589
1590
1589
1589
1592
1592
1590
1591
1589
1588
1589
1586
1591
1592
1589
1585
1584
1585
1584
1586
1589
1588
1588
1586
1585
1588
1590
1589
1588
1586
1589
1591
1589
1590
1589
1589
1589
1590
1590
1590
1592
1591
1591
1589
1586
1588
1588
1589
1590
1590
1590
1592
1591
1593
1592
1591
1590
1586
1586
1589
1588
1590
1593
1593
1589
1592
1595
1595
1593
1596
1599
1601
1598
1599
1601
1603
1603
1609
1605
1615
1615
1615
1610
1608
1605
1604
1602
1599
1596
1593
1592
1589
1590
1588
1585
1585
1583
1582
1584
1584
1585
1585
1582
1584
1585
1584
1582
1582
1582
1582
1573
1574
1577
1583
1605
1641
1693
1748
1789
1815
1816
1773
1707
1664
1649
1629
1615
1605
1602
1599
1592
1586
1582
1585
1582
1582
1582
1580
1580
1580
1579
1580
1580
1577
1577
1577
1574
1577
1576
1577
1580
1582
1582
1582
1580
1577
1582
1582
1579
1580
1580
1580
1579
1582
1584
1584
1582
1584
1585
1588
1589
1590
1593
1596
1598
1601
1604
1604
1608
1612
1617
1621
1622
1627
1631
1637
1637
1638
1638
1640
1638
1642
1641
1637
1631
1632
1627
1623
1621
1617
1612
1609
1604
1603
1602
1599
1598
1596
1596
1596
1589
1586
1589
1589
1586
1586
1586
1585
1582
1585
1584
1584
1585
1589
1589
1590
1588
1589
1586
1585
1589
1589
1592
1591
1589
1586
1585
1589
1590
1589
1592
1590
1589
1589
1589
1591
1591
1593
1593
1592
1591
1592
1592
1591
1591
1591
1591
1591
1593
1592
1589
1589
1589
1589
1591
1590
1591
1589
1589
1591
1589
1589
1588
1588
1589
1589
1590
1591
1591
1589
1589
1584
1582
1582
1584
1585
1585
1584
1582
1585
1582
1586
1584
1585
1582
1583
1586
1588
1588
1589
1589
1588
1589
1588
1586
1586
1589
1592
1593
1591
1596
1596
1596
1599
1596
1598
1605
1608
1611
1612
1611
1603
1602
1599
1602
1602
1597
1596
1590
1589
1591
1585
1585
1585
1585
1585
1584
1582
1579
1580
1579
1580
1582
1580
1580
1579
1580
1582
1580
1572
1572
1574
1574
1588
1612
1653
1708
1758
1793
1811
1796
1743
1681
1645
1631
1615
1603
1598
1592
1585
1586
1584
1582
1579
1579
1579
1577
1576
1576
1558
1563
1570
1572
1573
1572
1577
1577
1576
1574
1574
1572
1577
1576
1577
1577
1579
1580
1580
1580
1580
1579
1584
1584
1584
1588
1588
1585
1585
1588
1595
1596
1595
1596
1596
1595
1598
1603
1606
1611
1614
1621
1623
1625
1629
1631
1634
1640
1637
1636
1641
1645
1649
1648
1643
1638
1636
1634
1634
1631
1627
1623
1621
1618
1612
1612
1608
1603
1616
1605
1604
1598
1593
1592
1590
1590
1591
1592
1588
1590
1591
1591
1592
1590
1589
1592
1591
1592
1596
1593
1590
1590
1589
1588
1589
1584
1585
1589
1591
1591
1589
1588
1591
1595
1592
1591
1593
1589
1589
1588
1590
1591
1590
1589
1588
1585
1589
1589
1590
1590
1593
1592
1591
1589
1591
1591
1591
1585
1585
1584
1585
1590
1589
1589
1588
1590
1586
1582
1586
1585
1584
1584
1585
1588
1586
1586
1589
1588
1589
1588
1590
1591
1589
1588
1588
1592
1590
1585
1590
1593
1593
1596
1598
1597
1598
1597
1597
1598
1602
1605
1611
1612
1614
1608
1609
1605
1599
1599
1598
1598
1596
1593
1591
1586
1586
1585
1585
1580
1582
1577
1577
1580
1582
1584
1580
1582
1583
1582
1579
1580
1580
1582
1577
1574
1574
1576
1585
1617
1662
1716
1770
1801
1818
1816
1751
1683
1637
1608
1596
1591
1589
1585
1585
1582
1584
1579
1578
1580
1580
1577
1577
1576
1577
1580
1578
1576
1574
1574
1576
1577
1580
1579
1579
1579
1583
1582
1580
1580
1583
1583
1580
1584
1583
1580
1584
1585
1585
1588
1591
1591
1593
1596
1595
1597
1598
1596
1599
1603
1608
1612
1616
1618
1623
1627
1630
1631
1637
1641
1644
1650
1649
1653
1653
1650
1654
1648
1647
1643
1636
1641
1637
1634
1629
1625
1624
1615
1611
1605
1601
1632
1622
1615
1608
1602
1596
1596
1596
1595
1596
1591
1591
1591
1592
1591
1590
1592
1596
1590
1592
1593
1593
1592
1590
1593
1591
1589
1591
1593
1591
1592
1588
1589
1592
1593
1596
1596
1593
1593
1592
1593
1593
1595
1595
1598
1596
1601
1593
1593
1593
1593
1595
1593
1596
1595
1595
1593
1596
1596
1595
1593
1593
1593
1591
1592
1593
1593
1595
1592
1593
1593
1593
1593
1596
1592
1592
1592
1593
1592
1593
1593
1595
1592
1590
1592
1595
1596
1593
1596
1597
1596
1601
1603
1603
1603
1603
1605
1604
1605
1611
1615
1615
1615
1615
1612
1609
1609
1609
1605
1604
1602
1598
1597
1593
1592
1591
1591
1590
1591
1590
1592
1592
1592
1592
1589
1589
1589
1589
1589
1584
1583
1585
1579
1580
1580
1586
1598
1629
1675
1732
1776
1804
1823
1809
1747
1687
1649
1642
1625
1611
1605
1599
1593
1591
1590
1588
1588
1585
1582
1582
1582
1582
1582
1582
1586
1585
1582
1585
1588
1586
1586
1585
1582
1582
1584
1590
1589
1585
1585
1585
1588
1589
1589
1588
1588
1586
1586
1588
1590
1596
1596
1593
1595
1598
1598
1601
1603
1605
1611
1610
1614
1615
1619
1622
1627
1631
1636
1638
1641
1643
1649
1651
1650
1649
1650
1647
1643
1641
1640
1637
1632
1632
1630
1623
1616
1615
1615
1614
1611
1608
1605
1605
1606
1606
1605
1604
1603
1605
1604
1605
1605
1603
1603
1604
1603
1603
1603
1604
1602
1603
1603
1604
1601
1602
1602
1602
1603
1601
1603
1602
1601
1601
1603
1603
1605
1605
1604
1603
1603
1605
1605
1605
1606
1605
1603
1604
1605
1605
1605
1605
1605
1605
1605
1604
1608
1605
1605
1609
1605
1608
1605
1605
1604
1605
1608
1606
1605
1602
1602
1601
1579
1580
1588
1592
1598
1602
1601
1599
1602
1602
1603
1605
1603
1603
1605
1603
1601
1603
1602
1601
1601
1602
1603
1606
1605
1605
1606
1609
1611
1611
1611
1610
1612
1615
1618
1612
1618
1622
1624
1628
1629
1628
1625
1618
1619
1621
1617
1615
1610
1609
1605
1604
1603
1604
1603
1603
1605
1601
1602
1599
1601
1598
1601
1596
1598
1596
1598
1599
1597
1593
1592
1591
1592
1601
1621
1647
1700
1753
1792
1818
1829
1792
1730
1686
1664
1645
1630
1618
1611
1608
1603
1596
1593
1593
1592
1591
1592
1591
1589
1591
1589
1589
1589
1590
1591
1590
1590
1591
1592
1591
1589
1589
1592
1591
1591
1591
1593
1592
1592
1591
1592
1592
1596
1596
1593
1593
1595
1597
1598
1595
1598
1601
1603
1605
1608
1618
1608
1614
1617
1625
1627
1629
1631
1634
1640
1643
1643
1647
1649
1650
1653
1656
1653
1653
1653
1650
1648
1642
1640
1638
1632
1631
1627
1624
1624
1624
1617
1610
1610
1608
1605
1605
1604
1605
1605
1605
1604
1605
1604
1604
1602
1602
1603
1605
1604
1603
1601
1604
1602
1601
1601
1601
1601
1598
1602
1599
1597
1598
1597
1599
1599
1601
1602
1598
1597
1601
1599
1602
1601
1601
1602
1603
1602
1602
1603
1601
1604
1603
1601
1602
1602
1603
1603
1603
1603
1603
1601
1604
1603
1609
1609
1606
1609
1609
1603
1604
1605
1605
1605
1609
1609
1609
1605
1610
1608
1608
1608
1605
1605
1608
1608
1608
1609
1608
1605
1604
1605
1605
1608
1606
1608
1608
1611
1609
1611
1610
1608
1609
1608
1608
1611
1609
1605
1608
1608
1609
1617
1609
1611
1614
1616
1618
1624
1617
1618
1617
1621
1619
1622
1624
1634
1640
1638
1637
1631
1628
1622
1621
1619
1616
1616
1592
1584
1589
1593
1598
1602
1603
1603
1602
1598
1599
1597
1598
1602
1598
1602
1602
1603
1601
1601
1599
1598
1595
1593
1596
1602
1609
1632
1672
1730
1776
1806
1823
1821
1770
1711
1674
1655
1637
1623
1617
1612
1609
1603
1601
1598
1596
1597
1598
1598
1595
1597
1593
1592
1596
1596
1593
1596
1595
1596
1596
1592
1593
1591
1593
1593
1595
1598
1599
1596
1596
1595
1595
1593
1597
1597
1596
1598
1601
1598
1602
1602
1599
1603
1603
1603
1608
1608
1611
1612
1614
1617
1622
1625
1625
1629
1631
1640
1640
1641
1645
1649
1650
1650
1655
1653
1655
1653
1650
1650
1647
1643
1643
1640
1637
1631
1627
1622
1622
1619
1621
1615
1614
1609
1608
1611
1608
1605
1605
1608
1604
1602
1603
1603
1603
1604
1601
1602
1601
1601
1599
1605
1601
1599
1601
1602
1604
1602
1602
1602
1604
1605
1603
1602
1604
1601
1598
1599
1603
1601
1603
1602
1603
1602
1602
1598
1603
1602
1603
1605
1604
1601
1603
1604
1604
1598
1601
1599
1599
1603
1602
1602
1604
1604
1603
1602
1603
1599
1599
1596
1596
1601
1599
1599
1598
1597
1599
1602
1598
1597
1601
1599
1595
1598
1599
1598
1599
1598
1601
1598
1601
1599
1599
1601
1598
1599
1598
1602
1602
1603
1602
1602
1601
1599
1601
1601
1601
1603
1604
1605
1605
1610
1605
1606
1610
1610
1612
1612
1614
1616
1621
1627
1629
1630
1624
1617
1618
1621
1621
1615
1609
1605
1611
1609
1608
1605
1603
1602
1601
1603
1599
1602
1602
1598
1598
1602
1602
1602
1601
1603
1605
1601
1598
1593
1595
1593
1601
1612
1640
1689
1745
1788
1814
1828
1798
1738
1683
1657
1638
1627
1623
1612
1612
1608
1602
1598
1598
1598
1598
1597
1602
1602
1599
1599
1596
1593
1595
1595
1593
1593
1591
1592
1590
1592
1591
1590
1591
1592
1595
1597
1597
1596
1592
1593
1593
1591
1596
1595
1596
1596
1599
1602
1601
1599
1602
1606
1608
1610
1614
1619
1621
1622
1625
1630
1634
1636
1640
1641
1645
1645
1649
1655
1659
1659
1657
1654
1655
1655
1653
1650
1649
1643
1641
1636
1631
1627
1624
1622
1619
1617
1615
1612
1605
1603
1609
1605
1605
1603
1605
1605
1605
1604
1601
1601
1603
1603
1599
1601
1601
1598
1604
1603
1601
1602
1601
1602
1601
1602
1601
1599
1605
1605
1604
1603
1605
1605
1605
1604
1603
1603
1601
1602
1601
1604
1603
1608
1605
1603
1602
1602
1602
1603
1604
1602
1602
1601
1601
1601
1598
1603
1603
1604
1603
1598
1601
1602
1598
1602
1599
1601
1601
1599
1601
1597
1598
1596
1601
1599
1599
1601
1595
1595
1596
1596
1598
1598
1602
1602
1601
1604
1605
1603
1605
1609
1610
1611
1608
1605
1611
1615
1619
1623
1623
1621
1615
1615
1612
1611
1608
1605
1603
1602
1599
1598
1593
1593
1591
1590
1592
1593
1592
1592
1591
1592
1590
1591
1592
1593
1591
1593
1589
1588
1586
1588
1592
1598
1619
1667
1726
1772
1802
1822
1812
1754
1688
1643
1617
1605
1604
1602
1603
1602
1596
1596
1592
1590
1590
1588
1590
1592
1592
1591
1591
1592
1592
1590
1590
1593
1592
1592
1593
1592
1593
1596
1596
1597
1595
1591
1595
1596
1596
1597
1598
1598
1603
1602
1605
1605
1605
1608
1608
1608
1610
1612
1612
1617
1622
1622
1628
1632
1634
1637
1643
1645
1649
1653
1655
1660
1661
1660
1663
1664
1664
1664
1664
1664
1660
1656
1651
1645
1643
1634
1634
1631
1628
1624
1622
1621
1618
1615
1611
1627
1622
1616
1615
1611
1608
1610
1611
1612
1609
1605
1605
1606
1606
1605
1605
1605
1605
1606
1605
1608
1609
1606
1605
1605
1605
1605
1605
1608
1611
1609
1610
1605
1605
1611
1611
1603
1605
1605
1605
1608
1610
1605
1608
1608
1608
1610
1605
1603
1604
1605
1608
1609
1605
1605
1605
1608
1606
1605
1605
1611
1609
1605
1605
1605
1609
1608
1608
1611
1608
1608
1608
1605
1603
1605
1608
1611
1612
1612
1611
1612
1615
1617
1615
1617
1623
1623
1627
1625
1628
1627
1618
1617
1618
1619
1616
1615
1614
1608
1605
1603
1599
1602
1602
1601
1602
1601
1601
1602
1599
1598
1599
1599
1599
1596
1596
1598
1595
1591
1592
1591
1591
1598
1618
1656
1713
1764
1797
1822
1828
1788
1726
1679
1657
1640
1627
1615
1612
1605
1598
1596
1596
1597
1595
1592
1590
1589
1590
1592
1591
1589
1592
1592
1595
1593
1591
1591
1591
1591
1593
1592
1593
1597
1593
1592
1590
1591
1595
1596
1595
1597
1596
1596
1596
1602
1603
1601
1601
1601
1603
1605
1604
1604
1604
1612
1614
1615
1618
1623
1625
1629
1630
1635
1637
1641
1643
1649
1651
1651
1653
1653
1653
1650
1650
1649
1648
1644
1643
1641
1637
1629
1624
1622
1623
1617
1615
1612
1618
1616
1608
1608
1608
1605
1603
1605
1604
1601
1598
1599
1599
1598
1599
1603
1601
1603
1599
1598
1599
1599
1599
1599
1599
1601
1596
1602
1596
1596
1598
1596
1597
1596
1601
1603
1603
1602
1598
1602
1601
1604
1603
1602
1603
1598
1597
1598
1599
1603
1602
1602
1601
1602
1602
1602
1599
1601
1603
1602
1603
1601
1602
1602
1603
1602
1602
1603
1604
1602
1602
1603
1601
1601
1598
1598
1601
1602
1598
1601
1601
1599
1615
1611
1611
1611
1611
1612
1609
1610
1610
1612
1612
1612
1618
1621
1622
1623
1623
1625
1625
1622
1621
1621
1618
1617
1615
1612
1614
1609
1608
1605
1605
1603
1604
1601
1599
1599
1599
1598
1599
1598
1599
1599
1596
1596
1598
1596
1593
1589
1589
1593
1596
1605
1634
1672
1732
1774
1804
1830
1817
1765
1702
1669
1654
1636
1622
1618
1610
1604
1598
1596
1595
1593
1591
1593
1591
1588
1585
1588
1591
1593
1590
1592
1591
1589
1590
1591
1590
1592
1591
1592
1590
1591
1592
1593
1591
1591
1590
1591
1591
1592
1597
1593
1598
1598
1597
1596
1599
1599
1602
1602
1606
1605
1605
1605
1609
1609
1616
1618
1623
1625
1629
1631
1638
1642
1643
1649
1650
1653
1654
1660
1656
1654
1653
1650
1648
1645
1643
1641
1640
1634
1629
1628
1622
1619
1617
1617
1615
1612
1612
1612
1612
1605
1611
1609
1608
1610
1608
1611
1605
1605
1605
1605
1605
1603
1603
1605
1602
1605
1605
1605
1609
1609
1608
1605
1603
1603
1603
1603
1603
1604
1605
1605
1604
1604
1605
1605
1604
1602
1605
1603
1603
1603
1603
1605
1603
1602
1603
1602
1603
1601
1603
1603
1605
1604
1603
1599
1604
1603
1604
1603
1601
1602
1605
1604
1604
1603
1603
1602
1602
1604
1605
1605
1604
1605
1605
1605
1605
1605
1605
1608
1608
1605
1609
1610
1612
1612
1614
1615
1614
1614
1615
1621
1621
1619
1622
1629
1631
1635
1634
1630
1625
1622
1618
1621
1618
1615
1615
1612
1612
1605
1608
1605
1604
1601
1601
1602
1601
1601
1602
1602
1601
1599
1601
1603
1601
1598
1593
1592
1590
1589
1596
1605
1628
1666
1722
1771
1803
1824
1811
1757
1700
1667
1650
1640
1624
1621
1615
1608
1605
1597
1598
1598
1601
1602
1602
1598
1596
1598
1596
1596
1595
1593
1596
1596
1591
1593
1596
1599
1596
1595
1593
1598
1596
1597
1597
1598
1595
1597
1599
1596
1596
1598
1603
1603
1604
1604
1605
1605
1609
1611
1615
1621
1619
1624
1625
1630
1632
1636
1642
1643
1647
1650
1653
1659
1660
1660
1662
1664
1667
1663
1664
1660
1661
1657
1653
1650
1647
1640
1641
1640
1635
1634
1627
1623
1619
1621
1619
1621
1617
1617
1615
1618
1618
1615
1611
1612
1612
1612
1612
1614
1611
1616
1614
1611
1611
1611
1612
1612
1614
1611
1612
1610
1611
1609
1611
1612
1615
1612
1611
1610
1610
1611
1611
1611
1609
1611
1609
1611
1609
1609
1610
1611
1610
1610
1611
1611
1612
1608
1609
1612
1614
1608
1608
1608
1609
1603
1605
1608
1610
1605
1601
1603
1604
1603
1605
1608
1606
1605
1608
1608
1609
1605
1610
1610
1609
1610
1609
1609
1611
1615
1612
1614
1612
1612
1615
1617
1619
1621
1618
1624
1629
1632
1632
1631
1628
1624
1622
1622
1622
1618
1615
1612
1609
1606
1605
1605
1603
1603
1602
1602
1602
1601
1602
1602
1601
1598
1599
1602
1604
1603
1599
1596
1595
1598
1597
1601
1618
1650
1700
1754
1791
1814
1823
1784
1719
1672
1650
1636
1622
1615
1615
1609
1605
1601
1598
1598
1596
1599
1596
1605
1601
1599
1601
1598
1596
1593
1593
1597
1601
1599
1604
1602
1602
1602
1603
1603
1603
1603
1602
1605
1605
1605
1608
1610
1610
1608
1611
1610
1609
1611
1612
1612
1615
1616
1617
1619
1621
1622
1628
1629
1634
1640
1637
1643
1653
1651
1653
1656
1660
1660
1664
1663
1664
1668
1666
1664
1662
1657
1654
1650
1648
1643
1643
1636
1636
1631
1629
1629
1625
1615
1615
1611
1615
1617
1618
1612
1612
1614
1614
1612
1614
1609
1610
1611
1612
1612
1614
1615
1614
1610
1611
1612
1612
1612
1610
1612
1609
1612
1610
1611
1610
1612
1612
1612
1614
1612
1611
1615
1615
1615
1615
1615
1615
1612
1612
1615
1612
1615
1612
1615
1617
1615
1612
1615
1615
1616
1612
1614
1612
1612
1612
1612
1615
1617
1615
1615
1614
1614
1612
1611
1610
1610
1612
1614
1610
1610
1610
1614
1612
1614
1612
1612
1616
1617
1619
1621
1618
1618
1618
1619
1619
1625
1631
1636
1637
1637
1634
1630
1624
1627
1625
1627
1610
1616
1611
1611
1611
1612
1610
1608
1609
1605
1605
1603
1602
1603
1604
1603
1605
1601
1602
1603
1602
1603
1603
1596
1595
1597
1598
1605
1625
1663
1715
1763
1793
1818
1825
1778
1716
1674
1655
1643
1627
1619
1612
1611
1605
1605
1598
1599
1598
1601
1599
1598
1598
1596
1598
1596
1599
1597
1598
1601
1601
1602
1602
1598
1599
1598
1597
1598
1596
1601
1602
1603
1599
1601
1598
1601
1603
1603
1602
1608
1604
1605
1605
1605
1604
1608
1611
1612
1614
1617
1618
1622
1624
1630
1635
1636
1637
1641
1645
1649
1651
1655
1656
1657
1661
1662
1663
1662
1657
1656
1651
1650
1647
1643
1641
1636
1634
1630
1630
1627
1624
1622
1619
1621
1618
1615
1612
1612
1612
1615
1610
1612
1611
1608
1608
1608
1609
1610
1612
1612
1611
1610
1611
1615
1614
1612
1612
1615
1614
1615
1612
1612
1614
1612
1612
1615
1615
1615
1615
1617
1610
1612
1609
1610
1612
1610
1610
1610
1612
1610
1609
1611
1610
1612
1609
1612
1612
1612
1612
1611
1611
1610
1612
1610
1614
1612
1612
1611
1612
1611
1611
1612
1608
1610
1609
1608
1610
1606
1649
1640
1628
1625
1622
1617
1615
1612
1612
1612
1614
1617
1617
1618
1621
1621
1624
1622
1623
1622
1624
1627
1632
1636
1640
1637
1635
1631
1629
1630
1628
1622
1621
1622
1618
1615
1615
1612
1614
1612
1611
1608
1605
1608
1608
1608
1610
1610
1608
1608
1610
1610
1609
1605
1604
1601
1597
1601
1601
1608
1634
1676
1730
1773
1804
1827
1818
1766
1708
1672
1655
1645
1634
1627
1622
1618
1615
1611
1609
1605
1605
1604
1611
1608
1605
1603
1601
1601
1603
1603
1605
1605
1605
1604
1601
1604
1603
1605
1605
1605
1605
1605
1605
1606
1604
1605
1606
1604
1601
1602
1605
1609
1605
1617
1609
1608
1610
1612
1616
1616
1617
1624
1625
1628
1631
1634
1640
1641
1645
1649
1651
1654
1656
1659
1657
1660
1660
1661
1662
1660
1659
1659
1654
1653
1647
1643
1638
1637
1635
1631
1629
1625
1621
1617
1616
1617
1615
1615
1612
1612
1611
1612
1614
1611
1615
1612
1611
1610
1612
1611
1611
1610
1611
1612
1610
1610
1609
1608
1608
1608
1610
1608
1605
1609
1608
1617
1605
1605
1608
1605
1609
1606
1608
1605
1609
1608
1608
1605
1604
1604
1603
1605
1605
1606
1605
1605
1604
1605
1605
1605
1605
1605
1608
1606
1609
1608
1611
1606
1606
1604
1605
1605
1605
1609
1608
1611
1610
1608
1605
1609
1610
1610
1610
1611
1610
1611
1609
1608
1605
1610
1605
1603
1609
1609
1612
1611
1612
1614
1615
1616
1618
1618
1621
1621
1619
1621
1623
1630
1632
1635
1632
1631
1629
1627
1623
1622
1623
1622
1617
1617
1614
1610
1616
1612
1609
1610
1610
1608
1610
1611
1615
1611
1610
1608
1610
1608
1611
1610
1608
1605
1599
1601
1601
1601
1614
1640
1688
1744
1786
1812
1777
1766
1719
1676
1653
1641
1632
1623
1621
1617
1612
1609
1605
1605
1605
1605
1603
1603
1603
1602
1605
1605
1606
1605
1605
1604
1604
1601
1603
1603
1604
1605
1605
1609
1605
1605
1605
1611
1610
1608
1611
1611
1610
1611
1612
1612
1611
1611
1615
1615
1619
1619
1621
1622
1623
1623
1629
1629
1634
1635
1640
1643
1643
1653
1654
1655
1657
1660
1662
1668
1667
1666
1667
1668
1664
1661
1659
1659
1656
1650
1643
1640
1636
1635
1630
1628
1625
1623
1622
1621
1619
1617
1621
1621
1615
1615
1612
1612
1614
1617
1612
1612
1614
1610
1610
1610
1610
1609
1608
1608
1609
1611
1611
1609
1609
1608
1608
1609
1605
1608
1609
1608
1605
1609
1608
1606
1608
1608
1610
1605
1605
1606
1608
1606
1608
1608
1611
1611
1608
1605
1605
1608
1609
1608
1605
1605
1605
1605
1605
1603
1605
1604
1604
1605
1606
1608
1608
1604
1604
1605
1605
1603
1605
1605
1608
1608
1610
1608
1605
1604
1605
1604
1605
1605
1605
1609
1608
1609
1609
1605
1605
1610
1611
1614
1615
1617
1615
1615
1618
1617
1618
1625
1629
1631
1631
1631
1630
1627
1623
1624
1617
1618
1612
1611
1610
1608
1605
1605
1605
1603
1605
1604
1603
1605
1601
1605
1605
1602
1601
1602
1596
1605
1602
1599
1598
1598
1601
1601
1612
1647
1687
1744
1783
1808
1823
1795
1735
1682
1657
1643
1632
1621
1617
1612
1609
1603
1604
1605
1603
1602
1597
1597
1596
1602
1599
1601
1598
1599
1599
1602
1603
1602
1602
1605
1603
1603
1604
1605
1605
1602
1601
1602
1603
1605
1604
1605
1605
1605
1605
1605
1605
1611
1609
1610
1611
1615
1618
1619
1623
1622
1623
1627
1631
1632
1635
1642
1643
1649
1649
1647
1653
1653
1656
1660
1662
1667
1666
1669
1668
1661
1657
1655
1651
1650
1648
1643
1641
1640
1637
1631
1624
1622
1624
1624
1621
1621
1617
1615
1616
1618
1615
1617
1616
1615
1617
1621
1612
1612
1614
1614
1616
1612
1614
1616
1616
1615
1615
1612
1615
1612
1615
1616
1615
1612
1612
1614
1612
1612
1611
1612
1614
1615
1615
1612
1612
1612
1612
1611
1609
1608
1608
1609
1611
1612
1611
1608
1608
1608
1611
1612
1611
1611
1609
1605
1608
1605
1605
1605
1605
1609
1605
1604
1605
1605
1605
1606
1611
1608
1606
1610
1603
1603
1603
1603
1605
1605
1605
1604
1606
1606
1610
1608
1608
1605
1603
1605
1609
1608
1609
1609
1608
1611
1615
1616
1615
1612
1615
1617
1617
1621
1623
1628
1631
1630
1629
1622
1622
1621
1619
1618
1615
1611
1609
1608
1608
1608
1604
1605
1605
1602
1601
1601
1602
1603
1604
1603
1603
1604
1601
1599
1601
1601
1599
1596
1596
1596
1593
1599
1615
1643
1696
1751
1789
1812
1821
1785
1719
1669
1649
1640
1627
1621
1615
1609
1603
1599
1597
1595
1593
1592
1593
1593
1596
1595
1591
1593
1592
1592
1588
1593
1593
1593
1591
1592
1593
1595
1593
1590
1590
1591
1596
1597
1593
1589
1593
1598
1601
1598
1599
1603
1603
1604
1605
1605
1603
1605
1606
1610
1612
1617
1619
1622
1621
1627
1630
1635
1637
1643
1645
1650
1653
1653
1657
1656
1661
1666
1664
1662
1661
1660
1657
1656
1650
1645
1643
1638
1634
1631
1629
1625
1627
1622
1619
1618
1618
1616
1615
1611
1615
1615
1612
1609
1612
1610
1615
1615
1611
1610
1609
1616
1611
1612
1611
1612
1610
1612
1612
1609
1609
1612
1609
1611
1611
1611
1611
1614
1612
1611
1605
1642
1629
1624
1622
1618
1618
1621
1615
1614
1615
1615
1612
1610
1610
1610
1614
1611
1608
1608
1608
1611
1608
1610
1609
1610
1611
1611
1609
1610
1611
1611
1615
1612
1611
1612
1612
1612
1611
1611
1610
1612
1612
1614
1616
1617
1615
1617
1619
1619
1622
1621
1619
1619
1621
1627
1629
1635
1634
1637
1637
1631
1629
1627
1627
1622
1619
1617
1615
1610
1610
1608
1605
1603
1603
1603
1605
1608
1608
1611
1605
1604
1605
1602
1601
1599
1601
1603
1604
1599
1601
1602
1610
1635
1675
1733
1774
1809
1829
1823
1761
1698
1655
1630
1611
1608
1608
1606
1603
1599
1599
1598
1596
1597
1597
1596
1596
1599
1596
1593
1591
1596
1598
1596
1599
1602
1602
1593
1593
1595
1598
1599
1599
1598
1602
1599
1596
1599
1602
1602
1599
1603
1605
1611
1610
1608
1609
1611
1614
1617
1619
1621
1624
1625
1631
1631
1638
1641
1643
1649
1653
1656
1660
1664
1666
1670
1669
1674
1676
1675
1676
1669
1667
1664
1664
1660
1651
1649
1643
1640
1634
1630
1624
1622
1622
1621
1615
1612
1609
1611
1608
1610
1609
1608
1604
1604
1608
1605
1605
1605
1604
1605
1604
1603
1601
1604
1603
1608
1605
1603
1604
1605
1604
1605
1605
1605
1605
1608
1611
1612
1606
1605
1609
1611
1610
1605
1609
1608
1604
1608
1608
1608
1605
1605
1603
1609
1605
1605
1605
1605
1605
1605
1608
1611
1608
1606
1603
1603
1603
1605
1605
1605
1608
1611
1612
1612
1615
1616
1616
1615
1616
1617
1618
1622
1628
1631
1634
1634
1632
1627
1623
1624
1623
1618
1617
1615
1615
1612
1612
1611
1610
1608
1609
1608
1609
1609
1608
1608
1608
1605
1605
1611
1605
1604
1608
1604
1604
1601
1595
1574
1576
1591
1621
1662
1719
1772
1802
1823
1830
1792
1728
1681
1659
1643
1629
1628
1618
1614
1608
1605
1604
1603
1601
1599
1602
1598
1598
1596
1595
1598
1599
1602
1599
1601
1601
1602
1603
1601
1599
1604
1603
1603
1603
1603
1601
1604
1605
1603
1604
1604
1605
1605
1609
1610
1611
1611
1609
1611
1611
1615
1616
1619
1618
1622
1623
1629
1631
1635
1638
1643
1649
1650
1651
1654
1653
1655
1661
1664
1668
1664
1663
1660
1657
1655
1651
1650
1643
1640
1636
1631
1629
1622
1618
1619
1617
1615
1617
1612
1617
1612
1609
1608
1608
1608
1609
1608
1605
1605
1604
1605
1608
1605
1609
1605
1605
1605
1604
1605
1598
1602
1602
1603
1603
1603
1604
1604
1605
1603
1604
1604
1603
1603
1603
1604
1605
1605
1605
1604
1603
1608
1610
1608
1609
1603
1605
1605
1605
1605
1604
1603
1601
1602
1601
1602
1603
1602
1604
1601
1602
1602
1603
1601
1604
1603
1609
1610
1608
1611
1611
1611
1612
1615
1615
1615
1624
1630
1629
1635
1631
1624
1622
1619
1621
1616
1615
1612
1609
1605
1604
1602
1602
1598
1593
1593
1596
1596
1596
1595
1596
1593
1593
1596
1596
1593
1596
1593
1592
1588
1585
1589
1598
1603
1632
1674
1731
1776
1805
1821
1808
1747
1690
1664
1650
1631
1618
1610
1605
1602
1599
1596
1595
1589
1589
1590
1586
1589
1592
1588
1592
1590
1588
1593
1592
1590
1590
1590
1592
1593
1591
1590
1589
1591
1590
1591
1592
1593
1592
1593
1593
1595
1596
1595
1595
1596
1596
1599
1601
1608
1604
1606
1611
1611
1611
1610
1615
1618
1619
1623
1627
1627
1631
1638
1643
1645
1648
1650
1653
1653
1654
1656
1655
1653
1656
1649
1645
1645
1634
1643
1637
1634
1631
1624
1622
1617
1615
1611
1609
1611
1608
1605
1603
1603
1601
1602
1603
1603
1604
1605
1605
1605
1605
1604
1604
1602
1601
1601
1602
1601
1601
1601
1603
1599
1601
1599
1602
1605
1603
1602
1599
1599
1601
1603
1598
1602
1601
1602
1602
1602
1601
1602
1603
1605
1604
1605
1599
1602
1603
1603
1602
1603
1603
1603
1602
1603
1604
1603
1602
1602
1599
1597
1601
1599
1601
1601
1599
1602
1601
1599
1599
1598
1601
1598
1601
1602
1604
1605
1609
1606
1605
1605
1608
1611
1610
1614
1621
1622
1624
1627
1624
1617
1614
1611
1612
1611
1609
1608
1603
1602
1601
1598
1596
1596
1593
1593
1591
1591
1590
1591
1591
1592
1591
1590
1591
1592
1592
1592
1589
1585
1582
1586
1589
1589
1611
1645
1698
1753
1792
1815
1816
1772
1707
1662
1647
1630
1615
1610
1603
1598
1595
1590
1590
1589
1586
1582
1584
1584
1583
1580
1583
1582
1584
1582
1582
1584
1582
1582
1582
1585
1585
1585
1588
1589
1590
1589
1588
1585
1585
1589
1590
1592
1591
1590
1591
1592
1595
1593
1592
1595
1596
1601
1601
1605
1606
1610
1611
1612
1617
1621
1622
1628
1629
1634
1635
1638
1642
1643
1649
1649
1651
1649
1650
1650
1651
1647
1645
1643
1638
1636
1631
1629
1625
1622
1621
1617
1615
1615
1612
1611
1609
1608
1605
1605
1604
1604
1605
1603
1604
1602
1602
1596
1599
1602
1605
1603
1603
1603
1604
1602
1602
1603
1602
1602
1603
1604
1603
1604
1601
1604
1603
1603
1605
1603
1605
1603
1604
1601
1596
1605
1604
1603
1603
1605
1605
1603
1603
1603
1604
1601
1603
1602
1603
1602
1603
1608
1604
1603
1603
1603
1604
1603
1603
1605
1604
1605
1605
1603
1603
1603
1599
1602
1605
1605
1605
1602
1602
1602
1601
1602
1604
1611
1610
1605
1609
1608
1605
1606
1608
1604
1603
1603
1604
1608
1611
1611
1612
1611
1612
1615
1615
1616
1617
1621
1624
1624
1629
1629
1627
1623
1618
1618
1615
1612
1610
1611
1605
1605
1605
1601
1601
1601
1598
1596
1599
1599
1602
1602
1598
1598
1599
1601
1599
1602
1599
1595
1590
1590
1591
1596
1612
1651
1702
1754
1793
1815
1817
1769
1708
1668
1649
1631
1622
1616
1609
1605
1601
1599
1596
1596
1596
1593
1591
1592
1592
1591
1590
1592
1592
1589
1589
1589
1588
1584
1585
1589
1590
1589
1589
1591
1590
1591
1591
1592
1595
1595
1595
1593
1591
1596
1597
1596
1593
1596
1596
1599
1599
1603
1603
1602
1604
1610
1615
1617
1619
1623
1625
1631
1635
1638
1640
1643
1643
1645
1650
1653
1650
1653
1653
1650
1647
1645
1643
1640
1636
1631
1631
1630
1623
1619
1617
1612
1612
1611
1608
1603
1604
1604
1605
1605
1605
1605
1605
1604
1601
1601
1599
1599
1601
1602
1602
1602
1601
1605
1605
1603
1601
1598
1597
1602
1601
1603
1603
1604
1601
1603
1601
1599
1599
1599
1598
1603
1605
1605
1601
1602
1601
1602
1602
1602
1602
1605
1603
1602
1603
1605
1602
1602
1603
1603
1603
1602
1602
1603
1604
1601
1601
1599
1602
1604
1605
1603
1603
1605
1605
1605
1602
1598
1601
1601
1605
1603
1601
1603
1603
1604
1605
1606
1603
1603
1605
1605
1605
1604
1609
1612
1612
1615
1619
1618
1617
1615
1618
1619
1622
1627
1629
1628
1623
1619
1623
1622
1621
1622
1619
1612
1610
1608
1604
1603
1605
1605
1602
1604
1603
1604
1604
1605
1604
1603
1604
1604
1603
1603
1601
1601
1598
1598
1597
1591
1605
1650
1706
1759
1797
1821
1831
1795
1730
1672
1637
1617
1611
1610
1604
1603
1599
1601
1596
1595
1596
1596
1596
1597
1593
1593
1598
1596
1595
1596
1595
1596
1598
1598
1599
1598
1602
1598
1596
1596
1596
1598
1599
1601
1599
1602
1603
1601
1605
1617
1609
1608
1608
1612
1615
1616
1615
1615
1616
1619
1621
1622
1630
1635
1637
1641
1642
1649
1653
1653
1659
1662
1663
1669
1675
1672
1672
1669
1668
1669
1669
1662
1657
1657
1651
1645
1641
1634
1631
1629
1625
1619
1617
1615
1612
1614
1615
1612
1609
1610
1608
1605
1604
1602
1602
1602
1604
1601
1602
1603
1599
1601
1602
1602
1599
1599
1602
1603
1599
1598
1599
1602
1604
1602
1598
1598
1599
1602
1599
1602
1599
1596
1598
1602
1597
1595
1596
1597
1596
1598
1596
1602
1604
1599
1598
1593
1593
1595
1599
1602
1598
1602
1602
1597
1596
1597
1599
1596
1598
1602
1603
1604
1601
1599
1603
1602
1603
1601
1598
1602
1596
1599
1597
1598
1603
1602
1603
1608
1609
1603
1605
1604
1605
1608
1608
1612
1614
1616
1617
1621
1617
1614
1612
1612
1614
1610
1605
1605
1604
1599
1598
1598
1596
1597
1596
1596
1596
1593
1593
1593
1591
1593
1593
1595
1598
1598
1593
1592
1585
1584
1584
1585
1589
1596
1618
1660
1719
1767
1802
1824
1832
1809
1735
1676
1642
1623
1612
1608
1608
1603
1601
1596
1592
1591
1589
1589
1588
1590
1589
1589
1590
1589
1589
1589
1590
1591
1593
1591
1590
1591
1589
1586
1588
1589
1591
1592
1592
1592
1591
1595
1595
1597
1598
1599
1596
1598
1596
1598
1603
1601
1603
1603
1606
1610
1614
1615
1619
1622
1624
1627
1634
1640
1641
1643
1648
1651
1653
1655
1661
1664
1664
1662
1663
1659
1659
1638
1634
1641
1638
1640
1638
1635
1634
1629
1625
1619
1621
1617
1615
1612
1611
1612
1615
1611
1611
1608
1604
1610
1611
1606
1609
1610
1611
1612
1609
1605
1605
1605
1609
1608
1609
1610
1610
1609
1611
1609
1605
1610
1610
1612
1610
1610
1609
1608
1611
1608
1605
1606
1606
1611
1612
1612
1610
1610
1605
1608
1608
1609
1611
1605
1606
1605
1605
1605
1609
1609
1608
1611
1605
1608
1608
1608
1605
1605
1605
1608
1617
1608
1603
1605
1604
1604
1608
1605
1605
1608
1605
1604
1609
1606
1608
1608
1605
1612
1615
1617
1615
1617
1622
1615
1618
1618
1627
1630
1630
1631
1628
1622
1623
1619
1622
1621
1618
1617
1612
1612
1610
1610
1608
1605
1605
1603
1603
1604
1605
1604
1602
1602
1603
1598
1597
1602
1601
1601
1599
1593
1591
1593
1596
1604
1624
1657
1716
1764
1793
1818
1835
1816
1756
1708
1683
1662
1642
1629
1621
1615
1610
1605
1603
1603
1599
1598
1598
1601
1598
1597
1598
1596
1596
1593
1598
1598
1601
1598
1596
1596
1596
1597
1598
1596
1595
1596
1596
1596
1596
1598
1595
1596
1596
1597
1599
1596
1598
1598
1601
1603
1601
1604
1605
1608
1609
1612
1615
1621
1623
1624
1629
1634
1635
1641
1645
1649
1649
1655
1655
1655
1661
1660
1657
1659
1656
1655
1654
1645
1641
1638
1635
1631
1628
1627
1627
1622
1619
1615
1618
1614
1615
1610
1610
1610
1610
1612
1610
1609
1610
1605
1605
1601
1604
1605
1609
1611
1609
1605
1605
1608
1608
1608
1608
1605
1608
1609
1605
1605
1605
1609
1608
1608
1611
1611
1611
1608
1605
1609
1609
1609
1610
1610
1608
1611
1612
1609
1609
1608
1609
1610
1612
1611
1610
1611
1610
1611
1609
1610
1605
1615
1612
1608
1609
1611
1611
1608
1605
1605
1609
1609
1609
1606
1609
1605
1605
1605
1605
1609
1608
1609
1610
1610
1608
1605
1608
1608
1608
1610
1614
1617
1619
1618
1615
1614
1617
1617
1619
1622
1627
1631
1632
1635
1634
1627
1623
1624
1623
1622
1622
1619
1615
1612
1611
1611
1610
1608
1605
1604
1598
1605
1605
1603
1603
1604
1602
1605
1605
1604
1604
1603
1598
1595
1595
1596
1602
1615
1647
1692
1748
1791
1812
1829
1810
1748
1695
1670
1653
1634
1623
1617
1612
1611
1608
1605
1603
1602
1601
1599
1602
1596
1592
1593
1596
1595
1593
1593
1595
1592
1595
1593
1595
1596
1593
1593
1596
1596
1597
1598
1598
1602
1599
1599
1603
1602
1601
1599
1603
1603
1604
1603
1603
1604
1606
1609
1608
1612
1614
1615
1621
1623
1628
1634
1634
1637
1638
1643
1649
1653
1651
1659
1659
1659
1659
1660
1659
1653
1651
1650
1649
1643
1636
1640
1631
1630
1628
1623
1623
1625
1623
1617
1615
1625
1614
1614
1612
1611
1612
1609
1609
1611
1605
1612
1614
1612
1612
1609
1612
1611
1609
1606
1608
1608
1609
1609
1610
1608
1608
1605
1608
1608
1605
1605
1605
1605
1604
1605
1605
1609
1610
1611
1612
1609
1605
1605
1605
1605
1609
1610
1611
1611
1609
1608
1611
1609
1609
1608
1608
1605
1606
1605
1605
1605
1605
1603
1604
1605
1605
1608
1611
1605
1608
1608
1605
1605
1606
1605
1605
1604
1605
1608
1605
1608
1608
1605
1604
1608
1609
1608
1610
1608
1609
1608
1611
1612
1612
1608
1611
1612
1612
1616
1619
1617
1617
1618
1617
1618
1619
1625
1631
1636
1632
1635
1630
1625
1629
1625
1624
1621
1615
1616
1615
1612
1615
1611
1612
1611
1608
1605
1608
1605
1599
1603
1605
1605
1605
1606
1609
1605
1605
1605
1601
1602
1597
1597
1601
1617
1657
1711
1760
1795
1821
1829
1791
1726
1681
1657
1645
1634
1628
1619
1615
1612
1610
1611
1609
1605
1603
1601
1602
1601
1605
1605
1605
1601
1601
1601
1603
1602
1602
1602
1605
1604
1602
1604
1604
1605
1604
1605
1608
1605
1605
1603
1605
1608
1605
1605
1608
1611
1615
1612
1612
1612
1615
1617
1617
1617
1619
1625
1629
1631
1629
1635
1641
1641
1642
1648
1653
1653
1659
1663
1662
1662
1664
1666
1664
1666
1666
1660
1655
1650
1649
1647
1645
1641
1637
1631
1630
1627
1623
1622
1622
1619
1618
1618
1617
1615
1615
1616
1615
1615
1610
1612
1611
1612
1612
1605
1609
1609
1609
1612
1615
1615
1612
1611
1608
1611
1610
1609
1611
1606
1612
1609
1612
1612
1610
1610
1610
1612
1614
1615
1612
1612
1614
1611
1612
1614
1614
1612
1612
1612
1609
1611
1610
1611
1615
1612
1611
1608
1609
1610
1610
1614
1612
1611
1611
1606
1610
1610
1610
1612
1612
1611
1611
1611
1609
1609
1608
1608
1608
1605
1608
1610
1605
1611
1606
1611
1611
1615
1614
1615
1615
1618
1618
1621
1619
1621
1622
1623
1625
1629
1628
1628
1623
1621
1622
1622
1618
1614
1615
1611
1610
1605
1605
1608
1605
1605
1605
1605
1604
1602
1603
1605
1602
1603
1603
1603
1602
1599
1598
1602
1598
1596
1596
1602
1603
1619
1659
1709
1760
1795
1819
1830
1799
1733
1679
1643
1625
1618
1611
1615
1615
1609
1608
1603
1604
1603
1604
1602
1603
1597
1599
1601
1601
1599
1602
1602
1602
1602
1603
1603
1604
1603
1603
1603
1604
1605
1603
1605
1605
1605
1605
1608
1609
1609
1609
1605
1611
1609
1615
1592
1593
1602
1608
1611
1614
1616
1622
1623
1628
1631
1635
1640
1642
1645
1649
1650
1656
1660
1666
1664
1662
1663
1667
1668
1667
1662
1660
1660
1660
1654
1650
1647
1643
1643
1636
1631
1628
1624
1627
1625
1619
1616
1627
1618
1615
1612
1614
1617
1615
1615
1615
1615
1615
1616
1616
1615
1615
1614
1615
1615
1615
1614
1616
1615
1615
1617
1615
1615
1615
1617
1612
1612
1610
1611
1611
1612
1612
1612
1611
1610
1610
1609
1609
1610
1609
1610
1611
1610
1609
1609
1608
1612
1610
1609
1611
1611
1611
1610
1609
1608
1611
1604
1611
1608
1605
1603
1602
1603
1604
1605
1604
1605
1605
1605
1604
1603
1604
1604
1605
1608
1610
1614
1615
1612
1614
1611
1615
1615
1618
1623
1627
1627
1628
1627
1622
1621
1621
1617
1618
1616
1611
1609
1605
1603
1606
1605
1601
1598
1601
1599
1598
1602
1601
1602
1599
1598
1597
1599
1599
1602
1599
1598
1596
1595
1595
1596
1603
1630
1670
1731
1771
1804
1823
1825
1778
1712
1677
1656
1640
1627
1621
1612
1603
1602
1596
1597
1596
1593
1595
1591
1592
1592
1593
1593
1593
1588
1592
1593
1595
1592
1590
1588
1590
1591
1591
1593
1593
1592
1593
1593
1591
1595
1595
1595
1596
1596
1599
1597
1602
1602
1603
1603
1603
1603
1604
1610
1615
1615
1615
1618
1621
1624
1628
1631
1636
1641
1642
1645
1649
1650
1656
1657
1659
1659
1655
1654
1653
1653
1650
1643
1642
1640
1636
1631
1629
1624
1623
1621
1615
1612
1610
1612
1612
1611
1612
1609
1610
1608
1609
1611
1612
1612
1614
1612
1610
1611
1605
1608
1608
1610
1610
1610
1610
1612
1610
1611
1611
1611
1610
1608
1610
1608
1609
1611
1609
1611
1610
1610
1612
1605
1629
1618
1614
1612
1610
1606
1606
1609
1609
1605
1608
1605
1609
1611
1608
1608
1604
1605
1604
1605
1604
1605
1605
1605
1605
1605
1605
1608
1608
1610
1609
1608
1605
1605
1604
1608
1609
1610
1615
1615
1618
1618
1617
1621
1619
1618
1623
1630
1632
1632
1631
1630
1628
1624
1622
1622
1619
1616
1614
1609
1609
1605
1604
1605
1603
1604
1604
1603
1603
1603
1603
1602
1599
1598
1602
1601
1601
1601
1595
1593
1590
1595
1597
1605
1628
1669
1726
1773
1804
1824
1814
1756
1700
1669
1655
1637
1624
1617
1612
1605
1601
1601
1596
1593
1596
1593
1592
1589
1585
1590
1589
1585
1590
1589
1592
1589
1588
1586
1589
1592
1595
1590
1590
1592
1588
1591
1595
1592
1591
1590
1592
1592
1595
1593
1596
1596
1595
1596
1596
1602
1599
1603
1605
1608
1609
1612
1615
1618
1618
1622
1628
1627
1632
1635
1636
1640
1641
1643
1647
1648
1653
1650
1648
1645
1643
1642
1640
1640
1634
1629
1627
1622
1617
1617
1615
1610
1609
1608
1609
1605
1601
1601
1604
1602
1598
1597
1601
1599
1596
1593
1595
1596
1597
1598
1596
1592
1601
1599
1598
1598
1595
1598
1598
1596
1596
1597
1597
1598
1597
1598
1597
1593
1599
1598
1598
1596
1596
1593
1595
1596
1598
1597
1597
1601
1601
1601
1602
1601
1601
1601
1599
1596
1593
1593
1592
1596
1596
1597
1596
1596
1596
1593
1592
1593
1596
1595
1596
1597
1599
1598
1596
1593
1593
1596
1596
1598
1598
1601
1605
1605
1606
1608
1609
1608
1609
1612
1615
1621
1623
1625
1624
1621
1612
1605
1605
1604
1604
1603
1599
1598
1596
1596
1596
1596
1593
1591
1591
1589
1591
1596
1593
1591
1595
1597
1593
1589
1588
1589
1585
1582
1592
1615
1608
1612
1642
1688
1746
1785
1814
1821
1784
1714
1666
1643
1628
1612
1605
1598
1596
1591
1590
1589
1585
1585
1586
1582
1583
1584
1582
1579
1585
1585
1585
1586
1585
1585
1588
1588
1585
1582
1585
1585
1585
1585
1586
1582
1589
1591
1589
1589
1589
1591
1590
1591
1591
1592
1591
1597
1599
1596
1595
1598
1599
1604
1605
1608
1611
1615
1618
1619
1622
1625
1631
1635
1640
1640
1642
1643
1645
1649
1650
1645
1645
1645
1642
1642
1643
1640
1636
1629
1623
1617
1618
1612
1612
1610
1603
1603
1603
1601
1601
1598
1596
1596
1596
1597
1596
1596
1598
1596
1591
1593
1593
1596
1593
1590
1591
1592
1593
1592
1590
1593
1593
1591
1591
1590
1590
1591
1590
1590
1590
1592
1595
1598
1593
1593
1593
1591
1593
1591
1590
1591
1593
1593
1593
1591
1593
1595
1593
1592
1591
1592
1593
1596
1596
1593
1595
1590
1591
1593
1593
1593
1593
1590
1591
1591
1591
1590
1592
1593
1593
1593
1595
1595
1598
1602
1601
1599
1602
1602
1606
1605
1605
1611
1612
1615
1616
1615
1612
1610
1610
1611
1605
1598
1597
1596
1595
1592
1590
1589
1585
1585
1588
1585
1588
1586
1589
1590
1588
1586
1586
1588
1589
1589
1585
1582
1582
1584
1584
1582
1589
1611
1647
1699
1748
1789
1811
1816
1771
1706
1649
1621
1608
1599
1598
1598
1595
1590
1589
1585
1585
1585
1584
1585
1585
1584
1585
1585
1586
1585
1589
1590
1588
1588
1589
1592
1591
1592
1592
1593
1591
1589
1589
1591
1596
1595
1596
1595
1597
1597
1602
1598
1599
1598
1596
1601
1604
1605
1605
1610
1609
1611
1615
1617
1619
1624
1630
1632
1637
1638
1641
1641
1647
1648
1650
1653
1653
1649
1667
1661
1660
1660
1656
1650
1647
1642
1636
1631
1628
1628
1622
1618
1617
1614
1611
1611
1604
1603
1610
1604
1603
1603
1605
1605
1604
1605
1605
1603
1601
1595
1602
1601
1598
1599
1599
1603
1601
1599
1601
1602
1601
1602
1602
1601
1602
1602
1602
1602
1604
1602
1603
1604
1604
1603
1601
1598
1599
1598
1602
1602
1602
1598
1598
1598
1601
1599
1599
1598
1602
1598
1598
1598
1599
1598
1599
1598
1599
1596
1593
1595
1599
1603
1601
1602
1598
1598
1599
1602
1604
1605
1608
1608
1609
1608
1605
1608
1610
1612
1616
1618
1619
1618
1622
1621
1616
1615
1614
1611
1609
1605
1604
1603
1601
1598
1597
1593
1593
1593
1593
1593
1591
1596
1592
1591
1591
1593
1592
1591
1592
1589
1588
1583
1586
1585
1589
1602
1632
1681
1740
1783
1809
1821
1785
1725
1676
1655
1641
1625
1615
1609
1602
1596
1596
1593
1590
1591
1593
1591
1585
1585
1588
1589
1589
1586
1589
1589
1586
1585
1588
1588
1590
1586
1588
1589
1588
1589
1591
1591
1593
1593
1591
1591
1591
1592
1591
1590
1590
1593
1597
1596
1596
1598
1602
1602
1605
1605
1611
1615
1615
1621
1623
1625
1631
1635
1637
1638
1643
1645
1649
1648
1650
1650
1650
1653
1650
1649
1647
1643
1640
1636
1634
1630
1627
1624
1619
1616
1612
1611
1609
1606
1608
1612
1610
1609
1605
1604
1605
1605
1608
1605
1609
1608
1605
1606
1605
1604
1605
1604
1605
1603
1603
1603
1602
1599
1601
1602
1601
1604
1603
1602
1603
1603
1601
1603
1604
1605
1605
1605
1606
1608
1608
1605
1604
1605
1608
1608
1606
1603
1604
1601
1601
1604
1603
1605
1604
1603
1605
1605
1603
1603
1605
1605
1605
1603
1602
1603
1605
1609
1605
1611
1616
1616
1612
1614
1614
1615
1615
1616
1616
1617
1624
1627
1628
1629
1627
1624
1623
1619
1618
1615
1608
1610
1603
1605
1605
1603
1601
1598
1601
1601
1602
1602
1601
1601
1599
1598
1599
1603
1603
1602
1601
1599
1596
1590
1592
1592
1598
1622
1657
1711
1766
1802
1823
1817
1766
1705
1672
1657
1637
1627
1623
1614
1610
1605
1604
1602
1597
1596
1596
1597
1597
1596
1598
1597
1596
1593
1596
1596
1598
1598
1599
1599
1596
1593
1595
1595
1596
1597
1599
1598
1596
1598
1599
1601
1602
1599
1601
1601
1603
1601
1601
1603
1605
1605
1605
1605
1609
1615
1618
1621
1621
1627
1631
1635
1635
1636
1640
1642
1643
1649
1650
1651
1653
1653
1654
1655
1654
1653
1649
1645
1643
1640
1634
1629
1627
1625
1623
1617
1615
1614
1611
1610
1610
1605
1605
1605
1604
1605
1604
1604
1605
1604
1605
1602
1601
1603
1605
1605
1605
1605
1605
1603
1601
1603
1601
1602
1603
1603
1601
1602
1602
1603
1604
1601
1602
1604
1604
1603
1603
1602
1604
1604
1603
1602
1604
1604
1603
1605
1604
1603
1604
1602
1604
1605
1603
1604
1601
1601
1603
1602
1603
1599
1599
1599
1601
1602
1602
1603
1604
1603
1601
1604
1604
1603
1601
1603
1603
1605
1605
1608
1609
1608
1609
1612
1612
1612
1612
1612
1615
1615
1621
1627
1629
1629
1630
1630
1624
1622
1619
1621
1619
1617
1610
1605
1604
1606
1605
1603
1601
1601
1603
1602
1601
1598
1599
1598
1601
1599
1602
1602
1599
1598
1597
1598
1596
1592
1596
1596
1603
1628
1669
1726
1771
1805
1821
1804
1744
1690
1659
1643
1631
1621
1615
1612
1610
1603
1598
1596
1596
1597
1599
1596
1595
1596
1593
1592
1592
1598
1602
1598
1596
1599
1598
1596
1593
1591
1593
1593
1595
1593
1593
1593
1596
1597
1598
1598
1595
1596
1598
1601
1601
1603
1603
1602
1604
1605
1608
1608
1608
1611
1615
1621
1621
1623
1627
1631
1634
1637
1640
1643
1648
1649
1650
1653
1656
1657
1657
1657
1655
1655
1659
1653
1649
1643
1642
1637
1632
1631
1627
1622
1623
1627
1617
1615
1609
1610
1608
1608
1609
1603
1604
1605
1605
1602
1603
1602
1604
1605
1604
1605
1604
1598
1601
1598
1601
1601
1603
1611
1602
1603
1603
1602
1602
1599
1599
1598
1599
1601
1598
1598
1598
1601
1599
1602
1597
1597
1597
1602
1602
1602
1599
1598
1596
1595
1598
1599
1599
1598
1602
1603
1597
1597
1596
1593
1596
1598
1596
1596
1591
1593
1595
1596
1598
1597
1596
1595
1592
1593
1596
1597
1596
1598
1597
1602
1601
1604
1608
1608
1605
1605
1605
1605
1605
1609
1615
1621
1624
1623
1624
1621
1612
1612
1612
1610
1606
1608
1605
1601
1599
1597
1596
1593
1595
1598
1595
1593
1595
1593
1593
1593
1590
1593
1593
1593
1593
1591
1589
1585
1582
1582
1585
1590
1611
1649
1700
1753
1789
1812
1805
1757
1695
1653
1636
1621
1609
1605
1602
1598
1593
1593
1592
1592
1585
1586
1585
1589
1590
1586
1589
1590
1591
1586
1584
1585
1588
1588
1585
1585
1588
1590
1589
1589
1591
1598
1596
1593
1593
1592
1593
1592
1592
1593
1596
1602
1603
1602
1602
1599
1603
1603
1608
1608
1610
1611
1615
1622
1623
1629
1636
1634
1635
1638
1640
1645
1647
1648
1653
1655
1659
1660
1659
1653
1653
1650
1650
1649
1643
1640
1634
1627
1628
1627
1627
1621
1618
1616
1612
1612
1610
1609
1605
1605
1605
1622
1584
1593
1596
1597
1599
1599
1599
1602
1601
1605
1604
1612
1608
1608
1609
1604
1603
1603
1604
1603
1605
1603
1601
1603
1603
1605
1605
1604
1603
1605
1608
1608
1603
1601
1602
1605
1608
1606
1608
1605
1603
1602
1604
1605
1603
1605
1609
1609
1605
1605
1605
1603
1602
1608
1605
1605
1608
1605
1606
1605
1605
1605
1605
1608
1608
1611
1609
1605
1611
1611
1615
1617
1615
1617
1615
1618
1621
1622
1625
1629
1631
1631
1628
1622
1622
1615
1615
1611
1610
1609
1609
1605
1603
1603
1598
1598
1598
1597
1599
1595
1593
1593
1595
1593
1596
1593
1593
1593
1596
1593
1591
1592
1593
1602
1618
1655
1709
1764
1796
1818
1819
1769
1701
1650
1624
1612
1605
1601
1598
1598
1595
1592
1593
1597
1590
1589
1590
1593
1591
1590
1589
1588
1588
1588
1592
1592
1591
1591
1591
1590
1591
1591
1591
1593
1596
1597
1598
1595
1595
1597
1599
1596
1596
1598
1602
1602
1604
1603
1605
1605
1611
1612
1615
1612
1616
1621
1627
1629
1632
1637
1641
1645
1648
1650
1659
1660
1664
1664
1664
1664
1668
1670
1666
1662
1651
1650
1647
1643
1636
1635
1629
1628
1625
1622
1621
1617
1614
1611
1610
1612
1605
1605
1605
1604
1608
1601
1601
1602
1604
1605
1605
1605
1604
1605
1605
1605
1605
1605
1608
1608
1608
1609
1608
1605
1604
1603
1609
1608
1608
1610
1605
1603
1605
1610
1610
1606
1604
1602
1598
1605
1604
1608
1608
1608
1605
1605
1609
1603
1604
1604
1605
1603
1604
1605
1605
1605
1605
1608
1605
1605
1604
1603
1605
1610
1612
1612
1615
1617
1615
1616
1617
1619
1619
1624
1627
1630
1629
1631
1628
1627
1624
1623
1622
1619
1617
1616
1615
1610
1606
1603
1608
1605
1604
1603
1602
1603
1601
1598
1591
1593
1597
1597
1598
1602
1601
1599
1593
1589
1593
1596
1602
1619
1661
1713
1764
1798
1821
1827
1782
1716
1667
1648
1634
1622
1615
1610
1606
1605
1604
1604
1602
1598
1596
1595
1596
1596
1595
1597
1598
1602
1603
1602
1598
1602
1601
1598
1602
1602
1599
1602
1606
1605
1605
1605
1603
1604
1603
1605
1605
1605
1605
1608
1605
1608
1610
1611
1615
1615
1618
1615
1618
1622
1625
1629
1628
1631
1635
1641
1643
1649
1651
1655
1659
1656
1659
1660
1664
1664
1663
1666
1662
1659
1655
1654
1649
1645
1642
1634
1632
1630
1628
1628
1623
1621
1618
1615
1615
1615
1615
1610
1611
1612
1609
1611
1611
1610
1609
1609
1608
1608
1611
1610
1611
1609
1604
1608
1605
1608
1603
1605
1608
1611
1610
1611
1608
1605
1605
1604
1605
1604
1605
1606
1608
1611
1609
1610
1611
1611
1609
1608
1608
1611
1611
1608
1608
1611
1609
1608
1605
1605
1608
1605
1605
1611
1610
1610
1611
1608
1605
1609
1610
1611
1610
1612
1612
1610
1609
1614
1615
1619
1618
1619
1617
1617
1618
1619
1625
1628
1630
1629
1630
1624
1621
1622
1619
1621
1618
1616
1612
1611
1609
1608
1605
1605
1604
1599
1599
1603
1601
1604
1602
1603
1602
1603
1603
1602
1604
1602
1596
1599
1597
1598
1602
1605
1628
1664
1719
1767
1799
1819
1829
1788
1726
1681
1662
1650
1635
1627
1618
1615
1608
1605
1603
1603
1603
1598
1602
1602
1599
1598
1602
1599
1598
1601
1602
1602
1601
1603
1601
1598
1599
1599
1602
1598
1596
1599
1601
1602
1602
1603
1604
1604
1603
1601
1605
1605
1604
1605
1605
1608
1612
1617
1615
1618
1622
1619
1622
1624
1627
1630
1634
1631
1670
1662
1660
1660
1659
1659
1662
1662
1666
1664
1672
1663
1662
1657
1656
1655
1654
1650
1643
1636
1634
1631
1630
1630
1624
1623
1619
1621
1618
1616
1617
1615
1614
1616
1612
1615
1615
1612
1612
1612
1614
1615
1614
1608
1610
1609
1608
1614
1614
1610
1611
1611
1610
1611
1612
1615
1615
1612
1612
1612
1612
1611
1609
1610
1610
1611
1612
1612
1615
1606
1610
1609
1610
1610
1609
1610
1610
1609
1611
1614
1612
1612
1611
1611
1612
1609
1612
1612
1611
1610
1608
1608
1609
1608
1608
1611
1612
1612
1617
1621
1618
1618
1618
1615
1617
1619
1622
1630
1632
1634
1634
1631
1629
1624
1624
1627
1623
1618
1618
1617
1614
1612
1610
1611
1611
1605
1603
1603
1603
1604
1605
1603
1602
1601
1605
1603
1601
1599
1602
1596
1593
1592
1592
1596
1609
1635
1676
1732
1777
1804
1824
1806
1747
1695
1662
1649
1634
1622
1617
1611
1610
1609
1603
1602
1601
1601
1601
1603
1602
1602
1602
1598
1601
1598
1601
1603
1601
1603
1602
1602
1601
1599
1602
1599
1599
1601
1601
1603
1603
1601
1599
1605
1604
1601
1603
1604
1602
1605
1604
1605
1609
1610
1614
1615
1617
1618
1622
1624
1624
1628
1632
1637
1640
1643
1649
1651
1654
1656
1659
1664
1661
1661
1657
1659
1656
1655
1653
1653
1650
1643
1641
1636
1629
1627
1627
1627
1625
1621
1615
1612
1614
1611
1615
1615
1615
1610
1609
1609
1605
1605
1605
1609
1611
1608
1608
1610
1610
1611
1612
1609
1609
1608
1611
1611
1605
1605
1605
1605
1609
1610
1609
1611
1609
1605
1603
1603
1608
1610
1611
1611
1611
1610
1611
1611
1608
1608
1605
1605
1606
1608
1606
1611
1605
1605
1611
1608
1611
1608
1611
1598
1615
1615
1610
1608
1609
1612
1612
1614
1615
1617
1614
1615
1614
1615
1615
1621
1621
1623
1628
1627
1623
1619
1622
1618
1615
1611
1606
1605
1604
1602
1602
1599
1599
1599
1601
1599
1595
1596
1596
1596
1596
1595
1592
1593
1593
1593
1596
1593
1589
1591
1593
1598
1612
1643
1693
1750
1791
1816
1829
1797
1733
1673
1634
1615
1604
1602
1599
1597
1593
1589
1589
1589
1586
1585
1583
1579
1580
1582
1585
1585
1584
1582
1579
1580
1583
1583
1582
1580
1582
1582
1582
1580
1582
1580
1580
1579
1582
1585
1582
1584
1580
1580
1584
1585
1585
1591
1591
1592
1591
1595
1598
1602
1604
1605
1608
1612
1616
1619
1624
1629
1631
1634
1634
1640
1642
1641
1642
1643
1642
1641
1640
1636
1634
1631
1627
1622
1619
1609
1605
1603
1596
1592
1592
1592
1589
1584
1579
1582
1582
1580
1577
1576
1574
1576
1574
1577
1576
1574
1577
1577
1576
1578
1580
1579
1578
1578
1577
1574
1572
1574
1577
1577
1578
1580
1577
1574
1576
1577
1577
1577
1577
1578
1580
1580
1582
1578
1574
1573
1577
1580
1577
1572
1574
1572
1576
1574
1572
1572
1577
1577
1579
1580
1580
1574
1572
1576
1577
1579
1582
1580
1580
1582
1584
1584
1589
1593
1595
1597
1595
1592
1588
1588
1593
1592
1591
1586
1582
1582
1580
1578
1577
1576
1574
1571
1574
1572
1572
1571
1576
1572
1574
1577
1574
1574
1574
1574
1570
1566
1567
1567
1573
1592
1628
1685
1743
1784
1812
1825
1793
1733
1681
1655
1629
1610
1602
1597
1592
1585
1580
1577
1574
1574
1574
1572
1573
1572
1571
1567
1566
1574
1572
1574
1576
1576
1573
1574
1574
1572
1571
1576
1574
1577
1578
1574
1576
1574
1576
1574
1574
1576
1610
1599
1593
1592
1586
1582
1585
1585
1586
1588
1593
1593
1593
1595
1601
1603
1608
1612
1616
1619
1623
1627
1628
1630
1634
1638
1640
1640
1637
1638
1638
1636
1636
1634
1627
1624
1622
1619
1611
1608
1604
1601
1601
1602
1596
1593
1592
1589
1591
1589
1591
1591
1591
1588
1591
1589
1588
1586
1589
1591
1590
1590
1588
1585
1586
1584
1582
1585
1588
1589
1590
1588
1588
1588
1589
1588
1588
1589
1589
1588
1590
1585
1585
1591
1590
1589
1590
1589
1588
1585
1585
1589
1592
1589
1591
1588
1589
1591
1592
1592
1593
1593
1596
1596
1599
1603
1605
1604
1601
1605
1604
1605
1609
1614
1615
1617
1615
1610
1608
1608
1606
1605
1603
1596
1595
1595
1591
1588
1588
1589
1593
1591
1589
1586
1582
1582
1585
1588
1586
1589
1585
1585
1584
1582
1582
1580
1577
1577
1579
1584
1603
1640
1694
1752
1790
1812
1821
1779
1721
1679
1657
1638
1622
1611
1608
1601
1593
1590
1589
1588
1589
1585
1585
1589
1589
1588
1585
1585
1589
1588
1588
1585
1580
1585
1585
1588
1589
1585
1585
1588
1591
1589
1588
1590
1589
1592
1589
1589
1591
1592
1595
1597
1597
1596
1599
1602
1598
1603
1604
1605
1608
1609
1615
1615
1615
1624
1628
1631
1640
1638
1643
1645
1649
1651
1653
1657
1659
1659
1656
1655
1655
1653
1650
1649
1644
1645
1638
1631
1630
1627
1628
1621
1622
1617
1615
1614
1615
1611
1609
1610
1611
1611
1611
1612
1612
1610
1611
1610
1612
1614
1611
1612
1606
1608
1605
1608
1608
1609
1611
1608
1612
1608
1609
1605
1605
1606
1608
1608
1605
1608
1611
1610
1612
1614
1615
1612
1608
1609
1609
1612
1611
1611
1609
1611
1609
1611
1611
1612
1610
1614
1614
1616
1608
1615
1612
1616
1618
1615
1618
1619
1622
1627
1625
1622
1627
1629
1634
1635
1637
1640
1637
1631
1629
1630
1629
1629
1622
1621
1618
1617
1617
1615
1611
1608
1611
1612
1611
1610
1611
1611
1612
1612
1612
1615
1615
1615
1612
1615
1611
1606
1605
1604
1609
1629
1664
1709
1761
1799
1821
1830
1788
1730
1681
1668
1651
1638
1629
1627
1624
1619
1615
1610
1608
1605
1605
1605
1604
1608
1605
1608
1608
1608
1605
1606
1609
1608
1611
1610
1609
1610
1610
1608
1606
1609
1609
1610
1606
1609
1608
1610
1612
1612
1615
1612
1615
1615
1615
1612
1615
1619
1621
1622
1628
1630
1636
1634
1634
1637
1638
1641
1647
1649
1656
1659
1657
1664
1666
1668
1666
1669
1672
1668
1666
1662
1660
1659
1650
1649
1642
1640
1638
1635
1627
1628
1628
1624
1622
1622
1618
1619
1617
1617
1615
1616
1618
1612
1611
1615
1611
1612
1610
1611
1611
1612
1612
1615
1615
1615
1612
1612
1611
1611
1610
1614
1615
1615
1611
1610
1611
1612
1614
1612
1615
1612
1612
1611
1609
1611
1612
1615
1614
1611
1612
1611
1611
1611
1612
1609
1612
1611
1610
1608
1609
1611
1611
1611
1615
1615
1618
1619
1617
1622
1618
1616
1615
1621
1630
1630
1631
1631
1629
1627
1624
1624
1625
1621
1618
1612
1614
1610
1612
1610
1610
1610
1611
1614
1614
1609
1605
1604
1608
1609
1611
1612
1609
1610
1609
1611
1609
1605
1605
1608
1623
1656
1703
1754
1791
1818
1832
1814
1747
1689
1643
1622
1615
1615
1612
1612
1609
1606
1603
1603
1601
1602
1601
1603
1601
1603
1603
1603
1599
1602
1602
1602
1604
1604
1602
1602
1598
1603
1604
1605
1603
1605
1605
1604
1608
1609
1611
1611
1610
1599
1609
1611
1615
1617
1617
1622
1623
1627
1630
1630
1634
1637
1641
1642
1647
1649
1650
1655
1663
1668
1669
1674
1675
1675
1679
1677
1676
1674
1675
1672
1670
1667
1661
1655
1653
1648
1643
1640
1634
1629
1627
1625
1624
1625
1624
1624
1623
1622
1622
1621
1615
1616
1615
1615
1616
1617
1616
1616
1616
1612
1612
1611
1614
1612
1612
1612
1611
1612
1615
1615
1612
1612
1615
1615
1611
1610
1612
1611
1611
1610
1615
1615
1614
1611
1610
1611
1606
1608
1611
1611
1610
1610
1612
1612
1614
1616
1615
1614
1615
1616
1617
1621
1619
1621
1619
1621
1622
1622
1622
1623
1630
1632
1635
1636
1634
1629
1627
1624
1625
1621
1618
1615
1612
1611
1608
1605
1604
1603
1604
1602
1604
1601
1602
1604
1601
1601
1598
1599
1599
1603
1602
1602
1596
1593
1596
1598
1604
1624
1660
1714
1765
1798
1821
1829
1792
1724
1681
1662
1645
1631
1622
1618
1615
1611
1609
1603
1601
1601
1603
1602
1601
1601
1602
1602
1602
1599
1598
1602
1602
1599
1602
1601
1599
1601
1602
1603
1604
1601
1599
1602
1601
1602
1601
1604
1604
1605
1605
1608
1604
1603
1603
1605
1610
1611
1612
1609
1614
1615
1616
1618
1624
1628
1631
1636
1641
1642
1643
1649
1653
1655
1659
1662
1661
1660
1661
1659
1656
1657
1655
1650
1643
1643
1638
1634
1629
1623
1624
1622
1619
1619
1615
1617
1614
1612
1612
1612
1614
1612
1612
1611
1609
1611
1611
1615
1611
1609
1610
1610
1609
1612
1611
1608
1608
1612
1610
1611
1608
1608
1608
1608
1609
1608
1605
1609
1612
1612
1611
1610
1610
1609
1608
1612
1611
1609
1610
1611
1610
1611
1609
1611
1610
1610
1615
1615
1612
1612
1625
1636
1631
1628
1627
1624
1621
1619
1622
1621
1618
1624
1627
1630
1631
1634
1632
1628
1627
1625
1624
1623
1621
1615
1615
1611
1610
1610
1605
1605
1601
1603
1602
1605
1605
1601
1605
1603
1597
1602
1603
1605
1604
1599
1597
1596
1595
1599
1596
1603
1624
1666
1724
1773
1806
1828
1825
1772
1715
1679
1661
1645
1637
1627
1617
1611
1605
1602
1602
1601
1599
1596
1593
1596
1596
1597
1597
1596
1595
1593
1593
1593
1593
1593
1593
1593
1595
1597
1599
1602
1598
1596
1592
1593
1597
1597
1598
1599
1598
1602
1599
1602
1601
1602
1603
1605
1605
1605
1609
1611
1614
1616
1615
1619
1622
1627
1629
1634
1637
1640
1641
1643
1648
1650
1653
1655
1656
1649
1653
1650
1650
1645
1643
1641
1641
1637
1631
1627
1622
1621
1616
1612
1611
1611
1612
1605
1601
1603
1603
1601
1605
1605
1604
1604
1603
1601
1603
1603
1601
1601
1599
1599
1598
1602
1602
1602
1601
1599
1596
1598
1599
1599
1605
1608
1602
1603
1602
1602
1599
1599
1598
1601
1603
1601
1599
1602
1601
1602
1601
1603
1601
1602
1599
1601
1601
1596
1598
1598
1599
1598
1597
1602
1599
1597
1602
1597
1601
1601
1599
1604
1605
1609
1611
1608
1610
1611
1608
1612
1615
1618
1621
1622
1622
1622
1615
1615
1615
1612
1611
1605
1602
1605
1602
1602
1599
1596
1593
1591
1593
1593
1593
1590
1595
1593
1592
1595
1595
1597
1596
1592
1590
1590
1586
1586
1590
1593
1615
1656
1713
1764
1795
1819
1814
1759
1696
1657
1643
1631
1617
1614
1609
1603
1596
1593
1595
1595
1593
1592
1591
1590
1590
1590
1588
1591
1592
1593
1591
1589
1589
1592
1593
1593
1591
1593
1591
1592
1592
1593
1595
1597
1596
1596
1596
1597
1599
1598
1603
1599
1602
1601
1604
1608
1623
1617
1618
1621
1622
1624
1619
1622
1628
1629
1632
1636
1640
1643
1647
1649
1650
1653
1653
1654
1654
1655
1649
1650
1649
1650
1648
1642
1635
1631
1629
1634
1627
1622
1617
1616
1615
1612
1610
1605
1611
1608
1605
1601
1603
1605
1605
1605
1605
1602
1602
1601
1602
1603
1606
1603
1603
1602
1602
1599
1598
1598
1599
1599
1599
1598
1597
1598
1602
1602
1603
1602
1605
1603
1599
1598
1598
1598
1599
1601
1603
1601
1602
1599
1597
1596
1596
1599
1597
1595
1599
1599
1599
1605
1604
1603
1601
1602
1596
1599
1603
1605
1609
1605
1605
1605
1605
1605
1610
1612
1618
1617
1619
1615
1608
1612
1609
1608
1604
1601
1599
1596
1591
1598
1596
1593
1592
1591
1590
1592
1591
1589
1585
1582
1585
1582
1585
1585
1588
1588
1585
1582
1580
1586
1585
1603
1637
1690
1747
1785
1814
1823
1785
1719
1662
1618
1605
1599
1596
1596
1596
1593
1591
1591
1586
1586
1585
1585
1585
1586
1586
1586
1585
1582
1582
1582
1582
1583
1580
1576
1579
1580
1586
1585
1586
1582
1585
1585
1585
1585
1588
1591
1585
1589
1590
1591
1593
1589
1591
1596
1596
1596
1599
1605
1611
1611
1612
1615
1622
1630
1634
1634
1637
1641
1647
1647
1650
1653
1656
1657
1660
1659
1656
1651
1650
1647
1643
1638
1634
1627
1623
1619
1615
1615
1612
1604
1602
1602
1601
1601
1593
1593
1595
1596
1593
1592
1590
1592
1593
1593
1591
1590
1592
1596
1597
1595
1592
1593
1596
1597
1597
1598
1596
1597
1597
1593
1593
1596
1598
1596
1599
1595
1596
1596
1595
1590
1593
1593
1591
1591
1593
1592
1593
1592
1591
1592
1593
1597
1597
1617
1616
1608
1603
1602
1604
1603
1603
1603
1604
1602
1596
1603
1604
1605
1608
1610
1609
1605
1605
1608
1604
1602
1602
1598
1597
1596
1590
1585
1585
1588
1585
1585
1586
1582
1582
1582
1585
1585
1585
1589
1585
1588
1589
1585
1583
1583
1582
1583
1585
1610
1650
1707
1766
1802
1824
1825
1777
1708
1648
1627
1612
1604
1603
1598
1592
1590
1585
1584
1580
1582
1582
1580
1582
1580
1579
1577
1580
1580
1580
1582
1579
1580
1579
1577
1578
1582
1584
1586
1585
1584
1585
1585
1585
1582
1582
1586
1590
1589
1586
1586
1591
1592
1591
1593
1596
1598
1603
1603
1604
1605
1611
1612
1612
1616
1621
1625
1628
1632
1634
1636
1638
1640
1643
1643
1648
1647
1645
1643
1642
1641
1643
1636
1630
1622
1615
1614
1610
1605
1605
1605
1603
1597
1593
1591
1591
1595
1593
1593
1590
1589
1590
1589
1589
1589
1589
1593
1593
1591
1592
1591
1590
1585
1584
1589
1591
1592
1592
1592
1591
1592
1596
1592
1591
1591
1592
1592
1588
1590
1593
1588
1591
1593
1593
1593
1593
1592
1590
1591
1590
1591
1592
1591
1591
1603
1599
1596
1596
1598
1595
1598
1599
1605
1605
1603
1604
1603
1608
1609
1605
1603
1603
1601
1599
1595
1596
1593
1593
1589
1586
1584
1584
1585
1589
1589
1590
1589
1589
1589
1590
1588
1586
1582
1584
1582
1582
1577
1576
1578
1577
1580
1598
1641
1698
1754
1791
1814
1830
1799
1737
1679
1648
1628
1614
1605
1599
1593
1590
1589
1589
1589
1588
1585
1583
1586
1585
1583
1582
1582
1580
1585
1585
1585
1584
1585
1586
1584
1582
1584
1589
1589
1589
1589
1586
1588
1590
1589
1590
1592
1591
1591
1591
1593
1596
1601
1598
1598
1599
1605
1605
1605
1605
1606
1608
1611
1615
1612
1653
1648
1643
1644
1643
1649
1650
1650
1651
1650
1649
1650
1648
1643
1642
1638
1640
1640
1634
1627
1622
1621
1614
1611
1605
1603
1601
1599
1601
1602
1599
1598
1598
1598
1597
1595
1596
1598
1601
1599
1599
1601
1598
1601
1598
1598
1596
1593
1593
1597
1598
1598
1601
1601
1599
1598
1596
1596
1596
1593
1597
1596
1596
1593
1593
1591
1595
1593
1592
1593
1595
1595
1595
1593
1596
1598
1599
1602
1601
1599
1602
1603
1605
1605
1605
1605
1611
1610
1612
1615
1615
1612
1615
1612
1610
1614
1612
1612
1605
1603
1603
1599
1597
1596
1593
1593
1595
1593
1591
1590
1591
1592
1592
1592
1590
1598
1593
1593
1591
1589
1588
1582
1580
1580
1585
1592
1618
1657
1716
1764
1799
1819
1832
1797
1735
1683
1661
1636
1621
1612
1605
1602
1597
1593
1590
1585
1586
1584
1585
1584
1584
1582
1580
1582
1582
1584
1586
1589
1586
1585
1585
1584
1585
1585
1586
1586
1586
1589
1589
1586
1585
1589
1591
1589
1588
1585
1588
1592
1591
1592
1593
1591
1595
1596
1602
1603
1604
1605
1608
1611
1615
1619
1619
1625
1630
1634
1637
1640
1638
1643
1643
1644
1647
1645
1647
1645
1643
1641
1637
1634
1628
1625
1622
1618
1617
1616
1611
1605
1606
1601
1596
1596
1598
1597
1596
1597
1596
1597
1596
1597
1598
1593
1596
1593
1595
1596
1596
1596
1595
1596
1595
1593
1595
1593
1593
1595
1595
1595
1593
1592
1595
1597
1593
1596
1597
1598
1598
1596
1599
1599
1597
1597
1599
1598
1598
1599
1603
1605
1603
1605
1605
1609
1608
1608
1609
1616
1618
1621
1619
1619
1615
1615
1609
1611
1611
1608
1604
1601
1601
1593
1596
1599
1593
1596
1592
1589
1576
1576
1580
1584
1585
1586
1589
1590
1591
1592
1591
1589
1585
1580
1584
1585
1605
1642
1698
1757
1795
1821
1835
1806
1738
1690
1666
1643
1627
1617
1610
1603
1598
1593
1590
1590
1589
1585
1588
1588
1589
1589
1589
1584
1585
1585
1585
1584
1584
1585
1588
1588
1592
1592
1589
1590
1590
1593
1588
1584
1585
1589
1588
1590
1590
1585
1590
1595
1597
1601
1598
1598
1599
1603
1604
1610
1611
1611
1611
1615
1618
1621
1627
1628
1631
1636
1641
1641
1643
1643
1643
1645
1648
1650
1645
1641
1636
1634
1632
1628
1622
1615
1615
1611
1610
1608
1606
1602
1603
1602
1601
1598
1602
1601
1599
1598
1597
1596
1599
1598
1596
1598
1595
1593
1593
1593
1595
1593
1596
1595
1595
1593
1593
1592
1591
1588
1590
1590
1589
1589
1592
1591
1590
1588
1589
1589
1591
1589
1591
1592
1591
1592
1596
1595
1596
1601
1601
1602
1602
1602
1602
1603
1604
1610
1612
1610
1610
1611
1611
1608
1612
1606
1604
1599
1599
1598
1593
1589
1591
1592
1589
1585
1580
1580
1580
1584
1584
1580
1582
1582
1585
1585
1584
1582
1579
1576
1571
1574
1576
1579
1591
1624
1680
1735
1778
1808
1819
1783
1719
1672
1649
1632
1617
1608
1601
1595
1589
1583
1585
1579
1580
1580
1580
1582
1579
1577
1577
1578
1579
1579
1580
1580
1577
1577
1580
1578
1577
1577
1580
1580
1584
1582
1582
1582
1584
1585
1582
1584
1582
1585
1586
1589
1589
1591
1591
1593
1597
1598
1601
1604
1604
1611
1614
1615
1618
1621
1624
1627
1630
1638
1638
1638
1642
1643
1642
1643
1643
1641
1641
1640
1640
1635
1629
1628
1624
1621
1615
1614
1608
1605
1604
1601
1598
1598
1596
1596
1596
1593
1597
1627
1629
1618
1611
1605
1601
1598
1596
1596
1592
1592
1591
1590
1592
1589
1592
1592
1593
1592
1591
1591
1592
1592
1591
1589
1590
1591
1591
1591
1590
1592
1591
1595
1593
1592
1595
1592
1592
1593
1595
1596
1593
1593
1593
1595
1593
1592
1591
1593
1593
1596
1596
1598
1602
1604
1604
1603
1599
1603
1605
1605
1611
1615
1615
1617
1622
1619
1615
1608
1611
1610
1609
1605
1602
1596
1596
1593
1591
1589
1586
1586
1586
1589
1590
1586
1584
1585
1586
1585
1590
1590
1589
1589
1582
1584
1580
1578
1580
1585
1602
1630
1676
1733
1773
1809
1815
1772
1708
1663
1645
1632
1621
1612
1605
1602
1597
1593
1591
1592
1589
1588
1586
1584
1586
1584
1585
1585
1585
1585
1588
1584
1586
1585
1588
1592
1590
1589
1582
1588
1584
1585
1586
1585
1590
1590
1591
1592
1595
1597
1596
1596
1593
1596
1601
1603
1605
1605
1605
1608
1611
1614
1615
1621
1625
1630
1630
1634
1635
1636
1643
1647
1649
1653
1653
1655
1659
1656
1653
1650
1648
1645
1643
1640
1637
1634
1627
1627
1619
1619
1618
1617
1614
1608
1605
1604
1604
1608
1604
1604
1603
1603
1602
1602
1602
1602
1602
1599
1599
1601
1601
1603
1604
1603
1599
1603
1602
1601
1601
1602
1603
1601
1605
1602
1601
1602
1605
1604
1603
1605
1603
1605
1605
1605
1603
1602
1599
1601
1601
1602
1604
1604
1602
1602
1603
1601
1601
1598
1602
1601
1603
1601
1603
1601
1601
1603
1602
1603
1603
1602
1604
1604
1605
1603
1605
1605
1605
1603
1601
1603
1609
1611
1610
1612
1612
1614
1615
1612
1619
1618
1622
1625
1630
1632
1631
1631
1624
1621
1619
1621
1617
1615
1615
1611
1609
1605
1604
1604
1604
1592
1579
1588
1593
1597
1598
1599
1602
1603
1601
1602
1603
1602
1601
1598
1596
1595
1596
1597
1612
1640
1689
1745
1785
1814
1829
1797
1734
1677
1642
1627
1621
1617
1615
1610
1610
1605
1604
1603
1602
1601
1603
1599
1599
1599
1599
1598
1602
1602
1601
1602
1602
1601
1601
1602
1602
1602
1601
1605
1603
1604
1606
1603
1603
1605
1605
1606
1609
1611
1611
1610
1615
1611
1614
1616
1618
1617
1617
1617
1622
1624
1629
1630
1634
1640
1643
1647
1649
1653
1656
1657
1660
1660
1664
1667
1669
1669
1667
1664
1667
1663
1657
1655
1651
1648
1643
1638
1634
1634
1629
1629
1624
1622
1619
1616
1615
1616
1615
1615
1615
1612
1614
1614
1611
1614
1614
1612
1610
1611
1611
1614
1611
1610
1609
1608
1608
1611
1612
1608
1611
1608
1608
1606
1609
1612
1610
1609
1610
1610
1609
1609
1605
1609
1609
1608
1609
1608
1609
1609
1611
1609
1608
1606
1610
1611
1611
1608
1609
1605
1609
1609
1612
1612
1605
1606
1608
1608
1612
1608
1605
1608
1608
1609
1608
1611
1609
1608
1608
1611
1610
1609
1611
1614
1615
1612
1615
1617
1619
1617
1619
1622
1619
1617
1622
1627
1629
1630
1634
1630
1627
1623
1622
1621
1619
1612
1612
1611
1609
1605
1603
1603
1604
1605
1605
1602
1601
1602
1601
1603
1604
1602
1603
1601
1603
1603
1603
1599
1597
1596
1598
1611
1637
1686
1740
1784
1812
1829
1804
1744
1688
1656
1643
1629
1623
1618
1615
1612
1609
1608
1605
1603
1604
1598
1603
1602
1604
1599
1602
1602
1601
1603
1603
1603
1601
1603
1605
1605
1605
1605
1609
1608
1605
1605
1605
1608
1611
1610
1608
1611
1609
1612
1615
1618
1618
1618
1621
1622
1624
1625
1628
1630
1632
1636
1640
1643
1643
1650
1662
1662
1666
1666
1664
1668
1668
1674
1676
1674
1672
1668
1667
1667
1662
1659
1653
1650
1648
1643
1640
1636
1634
1631
1630
1630
1628
1625
1624
1622
1622
1622
1622
1617
1618
1621
1622
1621
1618
1616
1615
1615
1618
1618
1615
1615
1617
1618
1621
1617
1616
1616
1615
1615
1618
1617
1618
1617
1617
1616
1616
1615
1617
1615
1622
1612
1614
1615
1617
1621
1615
1617
1615
1615
1614
1616
1615
1618
1615
1612
1612
1612
1614
1612
1611
1611
1614
1610
1612
1612
1612
1615
1612
1611
1611
1611
1612
1612
1611
1610
1612
1612
1612
1612
1615
1612
1618
1619
1622
1617
1622
1623
1624
1622
1623
1629
1634
1635
1635
1631
1631
1628
1630
1627
1622
1619
1618
1615
1612
1611
1606
1605
1608
1605
1606
1608
1605
1604
1601
1602
1602
1605
1605
1604
1605
1603
1599
1597
1593
1593
1595
1601
1624
1664
1718
1766
1802
1819
1817
1766
1706
1672
1653
1636
1622
1621
1614
1608
1603
1602
1601
1598
1599
1596
1595
1597
1601
1599
1601
1599
1596
1595
1596
1597
1596
1596
1593
1592
1596
1593
1597
1593
1593
1596
1595
1596
1596
1596
1601
1603
1603
1605
1605
1603
1604
1603
1602
1603
1601
1609
1612
1617
1615
1623
1624
1627
1631
1634
1637
1641
1643
1650
1651
1654
1655
1659
1657
1659
1657
1657
1659
1657
1653
1651
1647
1645
1641
1636
1630
1625
1627
1623
1622
1619
1619
1615
1621
1612
1611
1612
1610
1610
1608
1609
1605
1605
1606
1606
1605
1605
1605
1608
1609
1610
1608
1605
1609
1610
1609
1611
1605
1608
1606
1605
1604
1605
1605
1608
1610
1609
1612
1612
1610
1612
1612
1612
1608
1608
1608
1608
1609
1609
1610
1611
1612
1612
1609
1612
1628
1619
1617
1615
1611
1611
1608
1608
1609
1605
1608
1606
1609
1611
1609
1608
1609
1610
1608
1611
1609
1611
1611
1611
1612
1614
1615
1617
1617
1621
1625
1630
1630
1630
1628
1625
1622
1622
1624
1619
1615
1616
1612
1611
1609
1605
1603
1601
1601
1602
1603
1603
1599
1603
1602
1602
1599
1602
1599
1601
1601
1604
1601
1596
1593
1596
1597
1606
1637
1681
1734
1778
1808
1828
1823
1766
1701
1651
1622
1611
1605
1603
1602
1602
1599
1598
1598
1596
1595
1595
1596
1593
1593
1592
1593
1590
1595
1591
1593
1596
1593
1589
1592
1592
1593
1591
1592
1593
1595
1596
1597
1596
1596
1597
1597
1598
1597
1598
1596
1601
1604
1605
1605
1611
1610
1612
1615
1615
1615
1618
1622
1627
1629
1630
1636
1641
1638
1645
1650
1650
1653
1657
1659
1660
1662
1663
1660
1657
1655
1653
1649
1645
1643
1638
1632
1630
1623
1622
1622
1621
1615
1612
1611
1612
1608
1610
1605
1605
1604
1603
1603
1603
1604
1605
1605
1603
1601
1603
1603
1601
1603
1598
1602
1602
1603
1603
1601
1602
1603
1599
1601
1601
1599
1602
1602
1602
1603
1604
1602
1602
1601
1601
1599
1602
1599
1602
1603
1601
1603
1601
1597
1598
1599
1601
1601
1603
1601
1598
1598
1601
1599
1601
1599
1602
1598
1598
1598
1599
1599
1604
1603
1602
1601
1601
1602
1602
1604
1605
1605
1608
1610
1608
1610
1611
1617
1623
1627
1627
1629
1628
1627
1622
1619
1617
1615
1610
1610
1609
1608
1603
1601
1602
1603
1602
1599
1598
1599
1596
1598
1597
1595
1596
1596
1597
1598
1596
1598
1593
1590
1589
1590
1592
1602
1622
1660
1714
1766
1799
1823
1835
1795
1728
1681
1657
1641
1630
1617
1612
1611
1605
1629
1640
1623
1614
1609
1605
1601
1598
1596
1595
1596
1593
1591
1593
1593
1596
1598
1598
1596
1593
1596
1597
1598
1596
1599
1598
1599
1602
1604
1603
1601
1602
1601
1601
1603
1603
1605
1605
1609
1612
1614
1612
1612
1618
1619
1624
1629
1627
1629
1630
1635
1640
1642
1647
1649
1650
1653
1654
1655
1659
1656
1659
1656
1653
1651
1648
1645
1641
1638
1632
1629
1624
1624
1623
1617
1614
1610
1610
1609
1608
1610
1605
1605
1603
1605
1605
1605
1605
1605
1605
1605
1602
1601
1603
1601
1603
1604
1604
1601
1602
1601
1601
1601
1602
1601
1603
1601
1602
1605
1601
1602
1604
1604
1605
1608
1604
1605
1603
1603
1603
1598
1597
1599
1603
1598
1602
1602
1598
1601
1601
1602
1599
1595
1598
1602
1599
1599
1599
1599
1598
1597
1598
1598
1598
1598
1601
1603
1598
1599
1605
1603
1605
1606
1605
1608
1611
1611
1610
1611
1614
1621
1624
1627
1627
1624
1618
1619
1615
1617
1616
1612
1611
1605
1605
1601
1598
1601
1598
1598
1596
1596
1598
1596
1596
1593
1593
1593
1593
1595
1596
1593
1592
1590
1585
1585
1586
1592
1612
1645
1696
1753
1788
1814
1822
1783
1716
1672
1653
1634
1622
1612
1604
1603
1599
1598
1592
1591
1592
1591
1592
1591
1590
1591
1592
1591
1591
1593
1591
1589
1589
1591
1592
1590
1589
1591
1592
1592
1595
1596
1592
1598
1596
1598
1596
1595
1597
1597
1601
1601
1599
1597
1602
1605
1605
1608
1611
1614
1619
1622
1623
1624
1628
1634
1636
1643
1643
1645
1649
1653
1654
1656
1659
1660
1657
1659
1660
1657
1653
1653
1648
1645
1642
1640
1636
1632
1628
1627
1624
1618
1619
1617
1615
1615
1615
1612
1612
1614
1615
1612
1611
1610
1621
1616
1612
1615
1616
1612
1611
1609
1609
1612
1611
1610
1610
1605
1608
1609
1609
1608
1608
1609
1608
1605
1608
1609
1609
1610
1611
1610
1608
1605
1608
1610
1611
1608
1608
1605
1608
1605
1605
1609
1608
1610
1611
1610
1610
1612
1612
1610
1609
1608
1608
1610
1611
1614
1612
1610
1614
1611
1612
1615
1616
1615
1617
1621
1619
1618
1621
1621
1622
1627
1628
1629
1630
1631
1630
1625
1621
1622
1622
1618
1615
1612
1611
1611
1608
1611
1608
1604
1604
1603
1603
1602
1603
1603
1605
1603
1604
1602
1602
1599
1601
1602
1598
1595
1597
1593
1605
1636
1679
1734
1782
1810
1825
1804
1743
1683
1659
1643
1629
1621
1616
1610
1605
1601
1599
1595
1596
1595
1595
1596
1598
1602
1596
1596
1596
1596
1598
1596
1595
1596
1597
1597
1596
1596
1601
1598
1595
1602
1598
1597
1598
1603
1601
1602
1603
1602
1603
1603
1605
1606
1609
1605
1609
1612
1614
1615
1621
1623
1625
1630
1631
1634
1636
1640
1642
1647
1650
1653
1653
1655
1657
1659
1661
1661
1660
1656
1655
1650
1647
1645
1643
1638
1638
1631
1627
1625
1622
1622
1618
1615
1614
1615
1610
1611
1611
1611
1611
1609
1605
1608
1608
1606
1605
1605
1608
1609
1608
1605
1605
1609
1610
1608
1611
1606
1609
1605
1611
1609
1605
1608
1606
1611
1609
1611
1610
1611
1608
1612
1611
1608
1609
1608
1608
1608
1610
1611
1611
1606
1610
1611
1611
1609
1609
1608
1608
1609
1611
1612
1608
1610
1610
1610
1611
1606
1610
1609
1611
1611
1610
1611
1612
1615
1617
1621
1617
1617
1621
1622
1623
1624
1625
1630
1634
1634
1636
1634
1630
1630
1627
1624
1624
1622
1618
1615
1612
1611
1608
1610
1609
1606
1602
1615
1612
1611
1610
1608
1605
1604
1606
1608
1605
1605
1603
1601
1596
1593
1598
1605
1624
1661
1715
1763
1801
1818
1817
1769
1706
1666
1649
1636
1624
1619
1618
1612
1612
1608
1606
1605
1605
1605
1605
1605
1599
1599
1599
1599
1598
1602
1602
1602
1602
1599
1601
1602
1602
1598
1602
1601
1597
1601
1601
1603
1604
1604
1605
1604
1608
1609
1608
1608
1611
1612
1609
1612
1615
1615
1615
1618
1622
1628
1629
1631
1637
1638
1643
1643
1650
1651
1651
1659
1660
1661
1662
1667
1666
1669
1669
1664
1660
1657
1659
1653
1649
1651
1642
1638
1637
1636
1631
1628
1625
1624
1622
1621
1619
1618
1617
1615
1615
1615
1614
1615
1612
1612
1612
1610
1611
1611
1611
1612
1611
1612
1612
1611
1610
1609
1605
1605
1605
1605
1608
1609
1611
1608
1605
1605
1605
1609
1611
1608
1611
1611
1611
1610
1605
1606
1605
1608
1609
1606
1610
1605
1611
1609
1610
1608
1609
1608
1605
1608
1608
1609
1609
1609
1611
1609
1608
1608
1609
1611
1611
1612
1615
1612
1611
1612
1615
1617
1617
1615
1615
1615
1619
1624
1630
1631
1631
1634
1630
1624
1619
1622
1622
1619
1619
1619
1615
1605
1608
1605
1603
1605
1604
1603
1603
1604
1602
1605
1605
1603
1604
1602
1602
1603
1601
1602
1598
1596
1597
1598
1608
1631
1667
1715
1765
1796
1817
1821
1774
1709
1668
1653
1643
1629
1622
1621
1615
1614
1611
1611
1610
1605
1603
1601
1602
1604
1603
1605
1608
1605
1605
1605
1608
1608
1609
1609
1605
1609
1610
1608
1605
1606
1611
1612
1612
1610
1616
1615
1615
1615
1616
1617
1617
1618
1618
1619
1621
1624
1627
1628
1631
1634
1635
1638
1641
1648
1650
1653
1657
1656
1660
1675
1672
1675
1677
1677
1676
1675
1674
1675
1674
1674
1669
1662
1662
1656
1654
1650
1643
1641
1641
1638
1634
1632
1631
1630
1627
1625
1623
1624
1623
1625
1624
1623
1623
1623
1621
1622
1622
1621
1622
1622
1622
1621
1619
1621
1621
1622
1619
1624
1622
1622
1621
1619
1622
1622
1618
1622
1622
1622
1621
1622
1624
1621
1619
1617
1621
1618
1617
1617
1615
1617
1615
1618
1616
1617
1618
1615
1615
1612
1615
1612
1617
1618
1621
1622
1619
1618
1619
1622
1615
1619
1619
1621
1624
1625
1627
1627
1630
1631
1631
1631
1636
1637
1638
1641
1640
1637
1634
1631
1631
1629
1628
1624
1622
1617
1612
1615
1610
1612
1610
1612
1612
1609
1605
1608
1609
1609
1610
1608
1605
1605
1606
1605
1605
1605
1605
1608
1615
1640
1677
1731
1774
1808
1827
1821
1764
1700
1656
1631
1617
1615
1615
1618
1612
1610
1605
1604
1605
1605
1605
1608
1611
1608
1605
1605
1605
1609
1605
1610
1612
1615
1614
1611
1608
1610
1609
1608
1608
1612
1614
1615
1615
1615
1615
1614
1612
1615
1617
1619
1623
1623
1621
1623
1623
1625
1630
1634
1637
1641
1643
1645
1649
1650
1659
1662
1667
1669
1676
1679
1675
1675
1679
1681
1679
1679
1674
1672
1669
1667
1667
1661
1653
1647
1641
1640
1634
1637
1635
1630
1624
1621
1622
1619
1621
1622
1618
1614
1615
1615
1616
1615
1617
1615
1617
1615
1615
1615
1617
1615
1615
1614
1612
1614
1615
1612
1616
1617
1615
1616
1617
1615
1615
1617
1616
1615
1614
1617
1617
1621
1619
1615
1616
1612
1614
1612
1612
1611
1612
1614
1612
1614
1612
1611
1614
1612
1615
1612
1612
1612
1612
1615
1615
1612
1617
1617
1622
1622
1624
1623
1615
1644
1643
1640
1637
1636
1636
1630
1628
1628
1629
1627
1622
1619
1617
1616
1616
1612
1608
1605
1605
1603
1605
1608
1605
1612
1608
1605
1604
1605
1603
1605
1608
1608
1603
1601
1596
1601
1605
1619
1649
1699
1757
1793
1816
1834
1810
1744
1688
1656
1636
1629
1622
1617
1616
1614
1608
1605
1608
1605
1603
1601
1603
1601
1603
1605
1605
1604
1603
1603
1601
1602
1605
1601
1599
1604
1603
1606
1605
1605
1605
1608
1611
1610
1608
1608
1605
1608
1610
1611
1611
1615
1615
1615
1617
1619
1621
1624
1627
1632
1631
1635
1641
1643
1650
1648
1653
1656
1653
1660
1660
1661
1664
1666
1668
1666
1667
1666
1661
1660
1657
1653
1650
1649
1648
1641
1640
1635
1631
1627
1625
1624
1624
1624
1621
1618
1617
1615
1615
1614
1615
1612
1617
1617
1616
1612
1614
1614
1615
1615
1612
1612
1612
1615
1615
1615
1615
1615
1612
1614
1612
1612
1614
1615
1616
1615
1615
1614
1612
1612
1611
1612
1612
1612
1611
1608
1609
1612
1611
1608
1609
1610
1611
1610
1608
1605
1609
1610
1612
1611
1611
1610
1612
1612
1617
1615
1617
1617
1615
1617
1622
1625
1627
1628
1627
1630
1627
1624
1622
1622
1621
1618
1616
1611
1608
1605
1602
1605
1603
1604
1605
1604
1603
1601
1602
1602
1602
1601
1602
1603
1603
1604
1601
1598
1596
1592
1595
1598
1615
1643
1693
1747
1785
1812
1830
1814
1757
1702
1677
1660
1641
1630
1619
1618
1612
1608
1605
1605
1605
1604
1603
1601
1602
1601
1603
1603
1601
1599
1601
1601
1601
1603
1603
1605
1604
1604
1603
1601
1602
1602
1603
1603
1608
1608
1609
1612
1610
1610
1610
1606
1611
1614
1615
1615
1617
1619
1622
1622
1623
1624
1625
1612
1602
1612
1624
1634
1643
1648
1650
1653
1659
1660
1660
1661
1662
1662
1664
1668
1663
1661
1656
1650
1648
1643
1640
1638
1631
1629
1625
1624
1622
1619
1617
1619
1615
1615
1615
1615
1612
1612
1612
1612
1612
1612
1614
1612
1611
1611
1611
1612
1612
1609
1611
1612
1611
1610
1610
1610
1611
1610
1605
1608
1608
1610
1610
1611
1611
1605
1608
1609
1605
1605
1605
1605
1608
1609
1608
1605
1608
1609
1605
1605
1604
1605
1605
1605
1602
1608
1605
1604
1609
1609
1609
1611
1612
1615
1616
1609
1612
1614
1617
1615
1621
1619
1625
1624
1627
1623
1621
1619
1621
1616
1615
1611
1609
1605
1605
1603
1602
1601
1601
1599
1596
1599
1596
1593
1596
1595
1597
1593
1592
1595
1593
1592
1593
1585
1582
1585
1589
1605
1637
1685
1741
1784
1810
1821
1785
1725
1676
1653
1637
1622
1612
1609
1605
1599
1597
1592
1590
1590
1593
1593
1593
1593
1595
1592
1592
1590
1589
1592
1591
1591
1593
1593
1592
1593
1591
1590
1592
1591
1589
1589
1590
1592
1591
1590
1592
1588
1593
1596
1593
1598
1598
1596
1598
1601
1604
1603
1609
1609
1612
1618
1621
1622
1623
1629
1631
1634
1638
1641
1642
1645
1650
1653
1650
1651
1651
1653
1650
1643
1641
1641
1640
1634
1632
1627
1624
1619
1618
1612
1612
1609
1608
1605
1608
1604
1602
1603
1601
1601
1601
1598
1598
1597
1599
1598
1598
1601
1601
1602
1602
1602
1601
1602
1598
1601
1602
1602
1602
1602
1603
1601
1602
1601
1603
1603
1603
1603
1602
1602
1601
1603
1602
1602
1602
1601
1598
1602
1603
1603
1603
1604
1604
1603
1603
1602
1603
1604
1601
1604
1603
1606
1603
1604
1604
1605
1609
1609
1603
1598
1602
1604
1611
1615
1616
1622
1624
1625
1629
1628
1627
1623
1619
1615
1617
1615
1612
1605
1605
1605
1601
1598
1598
1598
1601
1602
1602
1598
1597
1599
1598
1598
1598
1598
1596
1599
1595
1596
1593
1593
1593
1596
1605
1628
1674
1728
1778
1808
1818
1782
1719
1666
1645
1631
1622
1612
1609
1603
1598
1596
1597
1598
1598
1593
1592
1593
1593
1595
1592
1593
1592
1589
1592
1593
1595
1595
1593
1593
1592
1593
1597
1593
1593
1596
1597
1596
1596
1596
1596
1593
1593
1596
1598
1598
1602
1603
1603
1603
1609
1611
1611
1612
1612
1615
1617
1622
1628
1629
1634
1640
1642
1647
1645
1643
1649
1653
1650
1653
1656
1654
1653
1650
1645
1642
1640
1634
1631
1631
1627
1624
1621
1615
1609
1609
1608
1605
1603
1603
1601
1604
1603
1603
1603
1602
1601
1599
1603
1602
1601
1602
1598
1596
1596
1601
1601
1601
1601
1602
1602
1604
1602
1603
1598
1601
1597
1598
1596
1597
1601
1601
1596
1596
1598
1602
1602
1602
1603
1602
1598
1597
1598
1598
1602
1601
1602
1603
1599
1596
1598
1603
1603
1605
1604
1605
1605
1605
1605
1605
1605
1605
1605
1608
1611
1610
1616
1617
1617
1615
1616
1617
1615
1614
1612
1611
1614
1612
1608
1603
1599
1595
1593
1592
1596
1599
1598
1597
1596
1597
1596
1596
1599
1596
1596
1599
1598
1598
1596
1596
1593
1593
1601
1622
1657
1713
1767
1801
1821
1815
1757
1690
1643
1619
1609
1605
1605
1604
1601
1601
1602
1599
1592
1590
1593
1591
1592
1593
1593
1595
1590
1592
1593
1596
1595
1596
1596
1592
1596
1590
1593
1596
1597
1597
1598
1599
1598
1598
1599
1601
1603
1603
1604
1604
1601
1603
1603
1609
1616
1622
1640
1634
1635
1634
1634
1634
1641
1641
1643
1648
1654
1657
1659
1661
1661
1663
1666
1664
1667
1664
1660
1657
1655
1650
1649
1640
1636
1631
1627
1623
1622
1617
1614
1610
1608
1606
1605
1603
1603
1602
1603
1601
1602
1602
1595
1602
1597
1593
1602
1602
1602
1602
1601
1602
1598
1598
1602
1601
1602
1601
1602
1601
1602
1597
1597
1599
1603
1603
1602
1598
1596
1593
1596
1596
1596
1596
1598
1598
1592
1592
1592
1593
1593
1593
1591
1593
1595
1595
1596
1596
1595
1593
1593
1597
1598
1602
1602
1604
1601
1597
1604
1603
1605
1605
1605
1604
1605
1603
1602
1603
1602
1597
1596
1585
1584
1585
1584
1582
1578
1576
1577
1577
1576
1576
1580
1580
1576
1577
1579
1578
1576
1574
1574
1571
1570
1572
1576
1593
1625
1680
1739
1784
1811
1824
1786
1716
1653
1621
1602
1592
1589
1590
1586
1583
1580
1577
1577
1577
1574
1570
1572
1574
1577
1572
1576
1572
1572
1574
1577
1577
1578
1577
1576
1574
1576
1577
1577
1577
1577
1577
1577
1577
1578
1579
1580
1582
1582
1584
1582
1580
1584
1585
1589
1592
1593
1596
1596
1596
1603
1609
1611
1614
1616
1615
1622
1625
1627
1630
1636
1638
1643
1643
1645
1640
1643
1648
1643
1643
1641
1636
1631
1627
1624
1621
1617
1614
1610
1605
1603
1601
1601
1602
1596
1596
1592
1591
1589
1593
1595
1593
1591
1590
1589
1591
1593
1596
1592
1592
1591
1591
1591
1591
1593
1593
1592
1590
1590
1591
1591
1592
1592
1596
1596
1593
1593
1591
1591
1591
1592
1593
1596
1598
1598
1595
1592
1592
1592
1591
1593
1593
1593
1596
1593
1593
1595
1596
1597
1601
1603
1601
1602
1604
1603
1609
1609
1611
1602
1606
1610
1608
1609
1605
1605
1611
1605
1601
1599
1596
1592
1593
1591
1592
1589
1586
1584
1586
1582
1586
1589
1589
1582
1582
1584
1584
1582
1583
1584
1584
1586
1577
1580
1586
1605
1647
1700
1759
1795
1814
1827
1799
1738
1680
1651
1634
1615
1603
1601
1598
1598
1593
1591
1591
1589
1585
1583
1584
1582
1582
1582
1582
1582
1582
1584
1585
1586
1585
1582
1579
1580
1580
1582
1584
1583
1585
1583
1582
1583
1585
1588
1586
1585
1585
1589
1591
1595
1595
1593
1593
1595
1593
1598
1599
1603
1605
1608
1612
1615
1619
1621
1622
1623
1629
1632
1640
1641
1642
1643
1645
1645
1643
1643
1643
1641
1638
1636
1634
1624
1623
1616
1615
1611
1608
1605
1602
1605
1601
1598
1598
1590
1591
1592
1591
1595
1596
1593
1591
1588
1591
1591
1590
1592
1591
1589
1591
1589
1591
1589
1590
1589
1590
1590
1591
1593
1592
1592
1591
1586
1588
1589
1593
1592
1592
1591
1592
1591
1590
1589
1589
1589
1589
1591
1592
1593
1592
1588
1586
1592
1589
1590
1592
1592
1595
1592
1593
1591
1593
1593
1593
1596
1596
1598
1599
1598
1598
1598
1602
1605
1605
1603
1605
1608
1611
1605
1605
1605
1604
1603
1599
1596
1589
1588
1589
1592
1591
1588
1585
1582
1584
1585
1584
1585
1585
1585
1584
1585
1582
1583
1584
1585
1582
1577
1577
1585
1596
1623
1669
1734
1776
1806
1828
1811
1751
1693
1667
1643
1627
1612
1606
1601
1597
1591
1588
1585
1582
1580
1582
1584
1585
1586
1584
1582
1582
1579
1579
1577
1578
1579
1580
1580
1582
1585
1579
1580
1585
1584
1582
1580
1582
1585
1584
1585
1585
1585
1589
1592
1591
1593
1596
1597
1601
1601
1602
1603
1609
1610
1609
1615
1615
1619
1627
1630
1632
1640
1641
1641
1647
1661
1660
1656
1656
1655
