-362
-362
-362
-367
-368
-368
-365
-365
-365
-365
-368
-370
-370
-368
-368
-365
-365
-365
-368
-370
-373
-370
-370
-367
-365
-368
-370
-370
-370
-370
-368
-368
-368
-368
-370
-373
-370
-370
-370
-370
-371
-373
-373
-373
-371
-371
-370
-368
-370
-371
-371
-370
-367
-364
-362
-361
-362
-364
-361
-358
-358
-358
-359
-364
-367
-370
-371
-371
-370
-367
-365
-370
-371
-373
-376
-373
-371
-371
-368
-368
-370
-371
-373
-368
-365
-355
-341
-320
-296
-271
-232
-176
-122
-92
-91
-125
-191
-263
-308
-340
-361
-371
-373
-370
-370
-373
-376
-376
-374
-371
-371
-373
-373
-374
-373
-373
-370
-368
-370
-373
-371
-370
-368
-368
-368
-365
-368
-368
-370
-370
-368
-365
-364
-364
-365
-365
-364
-365
-365
-365
-362
-361
-362
-364
-364
-362
-361
-356
-353
-350
-349
-350
-349
-349
-346
-343
-337
-332
-329
-329
-329
-329
-326
-319
-311
-307
-299
-302
-307
-313
-317
-319
-329
-337
-344
-352
-355
-356
-356
-358
-362
-365
-368
-370
-371
-371
-371
-371
-373
-373
-376
-377
-376
-376
-374
-374
-373
-371
-370
-370
-370
-370
-368
-365
-365
-365
-368
-370
-370
-368
-365
-365
-368
-371
-371
-371
-370
-370
-371
-371
-371
-371
-371
-373
-371
-370
-370
-370
-370
-371
-373
-371
-371
-370
-371
-371
-373
-374
-376
-374
-373
-371
-371
-371
-374
-374
-376
-373
-373
-371
-371
-371
-373
-376
-376
-376
-371
-371
-371
-373
-376
-379
-376
-376
-373
-371
-370
-371
-374
-373
-373
-371
-370
-367
-367
-367
-367
-368
-365
-365
-359
-358
-358
-361
-365
-368
-370
-368
-368
-370
-368
-371
-373
-376
-373
-370
-370
-371
-370
-370
-370
-371
-371
-367
-362
-356
-344
-326
-305
-281
-248
-197
-146
-112
-100
-124
-181
-250
-295
-322
-344
-359
-365
-367
-365
-370
-371
-370
-371
-371
-371
-371
-370
-370
-370
-367
-365
-365
-365
-371
-370
-368
-365
-364
-365
-365
-365
-368
-368
-365
-362
-361
-361
-361
-362
-362
-362
-361
-358
-356
-355
-355
-356
-356
-355
-352
-352
-350
-350
-350
-349
-350
-347
-347
-343
-341
-338
-335
-334
-334
-329
-325
-322
-317
-314
-313
-308
-313
-310
-313
-314
-317
-326
-332
-340
-343
-344
-347
-352
-355
-359
-364
-365
-365
-362
-364
-362
-367
-370
-371
-373
-370
-368
-368
-365
-367
-368
-370
-371
-371
-370
-368
-368
-365
-365
-365
-365
-364
-368
-365
-365
-367
-365
-370
-365
-365
-362
-362
-362
-362
-364
-365
-368
-368
-365
-365
-364
-365
-367
-368
-368
-365
-362
-362
-365
-367
-370
-368
-368
-367
-365
-365
-365
-368
-371
-373
-373
-371
-370
-370
-371
-370
-370
-371
-373
-374
-370
-371
-373
-376
-379
-379
-376
-374
-373
-376
-376
-379
-380
-379
-376
-373
-370
-370
-371
-373
-373
-370
-365
-362
-362
-362
-368
-367
-365
-365
-365
-368
-371
-373
-373
-373
-371
-373
-374
-371
-371
-373
-371
-373
-373
-373
-373
-367
-368
-368
-368
-365
-355
-335
-314
-292
-263
-217
-157
-104
-77
-89
-148
-224
-284
-323
-356
-380
-386
-382
-370
-365
-364
-368
-370
-373
-371
-370
-365
-364
-362
-365
-365
-368
-362
-362
-362
-362
-364
-364
-362
-361
-358
-356
-355
-355
-356
-358
-359
-356
-356
-355
-352
-350
-350
-349
-352
-352
-350
-349
-347
-346
-344
-343
-341
-340
-335
-334
-332
-331
-329
-329
-326
-320
-316
-307
-308
-307
-307
-304
-299
-298
-295
-296
-299
-302
-308
-316
-322
-326
-329
-335
-341
-349
-353
-356
-356
-356
-356
-358
-359
-362
-362
-362
-362
-361
-361
-362
-362
-365
-365
-365
-362
-362
-362
-361
-362
-362
-364
-362
-362
-359
-362
-359
-359
-362
-362
-362
-359
-358
-358
-359
-362
-362
-364
-362
-362
-361
-359
-361
-362
-365
-362
-364
-362
-359
-359
-362
-364
-365
-365
-364
-362
-364
-362
-362
-362
-364
-365
-365
-365
-364
-365
-365
-368
-365
-367
-365
-364
-365
-362
-362
-365
-367
-365
-365
-362
-362
-362
-364
-365
-365
-365
-362
-359
-359
-356
-358
-356
-356
-355
-355
-352
-352
-352
-355
-358
-359
-361
-359
-361
-361
-364
-365
-365
-365
-365
-364
-365
-364
-364
-365
-365
-365
-364
-362
-361
-358
-356
-352
-338
-313
-286
-251
-208
-148
-92
-61
-55
-89
-161
-244
-301
-335
-352
-359
-359
-361
-359
-361
-362
-364
-364
-365
-365
-364
-362
-364
-362
-364
-365
-365
-365
-365
-361
-361
-358
-358
-362
-362
-359
-356
-356
-355
-355
-356
-356
-358
-358
-356
-353
-352
-350
-352
-352
-352
-350
-346
-346
-344
-344
-344
-341
-340
-334
-329
-328
-325
-326
-323
-322
-317
-311
-308
-304
-301
-301
-298
-292
-287
-286
-286
-287
-293
-299
-305
-313
-319
-323
-329
-335
-341
-344
-347
-349
-352
-355
-356
-356
-356
-359
-361
-362
-362
-362
-359
-358
-362
-359
-358
-359
-362
-362
-364
-362
-364
-362
-359
-359
-356
-355
-355
-358
-356
-356
-355
-355
-356
-355
-355
-356
-358
-359
-359
-356
-355
-352
-353
-356
-361
-362
-365
-364
-361
-358
-359
-362
-364
-365
-365
-362
-362
-361
-362
-362
-365
-368
-365
-364
-361
-362
-364
-364
-365
-370
-365
-365
-364
-365
-368
-370
-370
-368
-365
-365
-365
-365
-365
-365
-368
-368
-365
-365
-365
-365
-364
-362
-362
-358
-358
-356
-358
-358
-358
-358
-359
-359
-359
-362
-365
-368
-370
-370
-370
-368
-368
-370
-368
-368
-368
-370
-373
-371
-370
-368
-368
-370
-367
-362
-349
-329
-301
-271
-233
-182
-125
-85
-76
-97
-158
-238
-296
-332
-353
-365
-368
-365
-365
-368
-370
-373
-373
-376
-373
-370
-370
-368
-370
-371
-371
-370
-370
-368
-370
-365
-365
-365
-365
-368
-365
-365
-364
-364
-365
-365
-365
-365
-364
-365
-364
-362
-365
-368
-368
-365
-365
-362
-361
-362
-362
-362
-362
-358
-356
-352
-352
-352
-349
-347
-347
-343
-337
-331
-328
-325
-320
-322
-317
-314
-311
-308
-314
-320
-328
-334
-340
-343
-349
-353
-364
-370
-373
-376
-376
-379
-382
-383
-383
-386
-389
-389
-391
-389
-392
-392
-394
-397
-397
-395
-394
-392
-392
-392
-392
-392
-392
-392
-392
-389
-389
-389
-391
-392
-391
-389
-389
-389
-391
-389
-391
-391
-389
-389
-388
-389
-392
-392
-392
-392
-392
-392
-392
-392
-392
-389
-394
-397
-397
-398
-397
-395
-394
-392
-392
-395
-397
-395
-392
-389
-392
-395
-398
-398
-397
-400
-395
-394
-392
-395
-398
-398
-398
-397
-392
-395
-394
-395
-395
-397
-397
-395
-394
-392
-394
-395
-397
-397
-394
-391
-388
-389
-389
-389
-388
-388
-385
-379
-380
-382
-385
-389
-391
-392
-392
-389
-389
-392
-392
-395
-397
-395
-394
-392
-392
-392
-395
-397
-394
-392
-389
-386
-385
-379
-364
-343
-320
-296
-263
-211
-160
-127
-119
-145
-202
-269
-317
-349
-371
-385
-391
-392
-391
-392
-392
-392
-392
-394
-395
-394
-397
-397
-394
-392
-394
-392
-394
-397
-398
-397
-394
-389
-391
-391
-392
-392
-391
-389
-389
-389
-389
-389
-391
-389
-388
-385
-383
-382
-380
-382
-382
-382
-379
-377
-374
-373
-373
-373
-371
-368
-365
-362
-358
-356
-352
-349
-349
-343
-338
-334
-329
-325
-326
-328
-326
-322
-322
-325
-329
-335
-343
-347
-352
-359
-365
-368
-368
-371
-376
-377
-379
-382
-382
-382
-383
-383
-383
-383
-383
-386
-385
-383
-382
-382
-383
-385
-385
-383
-383
-379
-380
-382
-382
-383
-382
-382
-380
-376
-376
-376
-377
-377
-379
-379
-376
-374
-376
-379
-379
-382
-382
-379
-377
-377
-377
-379
-379
-379
-379
-382
-382
-377
-379
-379
-382
-380
-380
-380
-380
-382
-382
-383
-383
-385
-383
-386
-383
-382
-383
-383
-386
-385
-383
-382
-380
-382
-383
-383
-385
-385
-383
-382
-379
-379
-379
-382
-383
-383
-382
-379
-377
-376
-376
-376
-377
-376
-376
-373
-371
-371
-371
-370
-368
-370
-370
-368
-370
-376
-376
-379
-379
-379
-379
-376
-376
-377
-377
-379
-379
-379
-377
-376
-376
-373
-373
-371
-368
-359
-343
-317
-289
-257
-211
-157
-121
-107
-122
-167
-233
-289
-320
-344
-364
-371
-370
-368
-368
-373
-377
-382
-377
-373
-370
-368
-373
-373
-374
-373
-373
-371
-368
-368
-370
-370
-370
-370
-368
-367
-367
-365
-367
-365
-365
-365
-364
-362
-362
-362
-365
-364
-364
-362
-361
-361
-356
-355
-353
-352
-352
-350
-349
-346
-344
-343
-344
-341
-335
-335
-331
-326
-323
-316
-316
-314
-313
-308
-304
-299
-296
-299
-302
-308
-313
-316
-317
-323
-329
-337
-343
-347
-350
-352
-352
-355
-359
-362
-364
-364
-365
-365
-365
-365
-365
-365
-365
-365
-365
-362
-364
-361
-362
-365
-365
-365
-362
-358
-358
-358
-359
-361
-362
-362
-358
-358
-355
-355
-356
-359
-361
-361
-361
-359
-359
-359
-359
-362
-362
-364
-362
-361
-361
-359
-362
-364
-368
-368
-365
-365
-362
-362
-365
-365
-365
-364
-364
-362
-361
-361
-364
-362
-364
-362
-362
-359
-362
-364
-362
-362
-364
-364
-362
-359
-358
-358
-362
-365
-365
-362
-359
-359
-358
-361
-362
-365
-365
-362
-359
-356
-358
-358
-356
-355
-352
-350
-346
-346
-346
-353
-356
-358
-359
-359
-359
-358
-356
-358
-361
-362
-361
-359
-358
-358
-358
-356
-358
-355
-355
-353
-353
-352
-349
-341
-328
-308
-284
-254
-208
-154
-112
-95
-106
-157
-224
-269
-301
-332
-358
-365
-364
-362
-356
-355
-355
-355
-358
-356
-358
-355
-352
-352
-350
-349
-349
-349
-352
-352
-352
-349
-349
-347
-349
-350
-349
-344
-343
-343
-343
-341
-340
-340
-340
-340
-337
-335
-335
-335
-337
-335
-334
-331
-328
-326
-326
-326
-328
-326
-322
-322
-316
-313
-311
-305
-307
-302
-299
-293
-292
-287
-286
-283
-280
-280
-278
-281
-287
-292
-296
-302
-307
-314
-320
-326
-328
-329
-335
-340
-343
-344
-346
-343
-340
-343
-346
-347
-347
-347
-346
-346
-347
-343
-343
-344
-343
-346
-343
-343
-343
-343
-344
-346
-346
-344
-341
-338
-340
-343
-343
-343
-341
-341
-340
-340
-341
-341
-343
-344
-343
-340
-340
-338
-340
-341
-343
-344
-347
-344
-343
-343
-346
-346
-349
-344
-343
-343
-343
-340
-343
-343
-344
-344
-347
-343
-340
-340
-341
-343
-344
-346
-344
-343
-341
-341
-343
-344
-346
-344
-344
-343
-341
-341
-343
-341
-343
-341
-338
-335
-334
-331
-331
-329
-329
-329
-329
-329
-332
-340
-341
-346
-343
-341
-343
-343
-344
-343
-344
-346
-346
-346
-343
-343
-343
-341
-341
-340
-335
-329
-320
-302
-283
-260
-226
-169
-104
-53
-37
-71
-148
-223
-271
-307
-340
-359
-361
-352
-343
-343
-344
-347
-346
-349
-343
-343
-343
-343
-346
-343
-341
-341
-341
-338
-340
-340
-340
-340
-340
-338
-335
-337
-337
-337
-335
-335
-335
-332
-329
-328
-328
-328
-328
-329
-328
-326
-322
-320
-322
-322
-322
-320
-316
-313
-307
-302
-307
-305
-305
-299
-293
-292
-287
-284
-281
-278
-275
-272
-266
-262
-260
-265
-268
-275
-284
-292
-295
-301
-307
-311
-319
-323
-326
-328
-329
-329
-331
-334
-335
-340
-340
-337
-335
-335
-335
-337
-338
-338
-338
-335
-335
-334
-331
-334
-334
-335
-335
-332
-334
-331
-332
-332
-334
-334
-334
-332
-334
-332
-335
-335
-335
-335
-334
-334
-332
-331
-334
-337
-340
-338
-337
-334
-334
-334
-337
-340
-340
-340
-337
-335
-337
-338
-340
-343
-340
-340
-340
-338
-338
-338
-340
-341
-341
-340
-338
-340
-340
-340
-341
-343
-343
-341
-341
-338
-338
-341
-343
-343
-341
-338
-335
-334
-335
-335
-337
-334
-332
-328
-328
-328
-332
-335
-343
-343
-343
-341
-340
-340
-341
-344
-347
-350
-346
-344
-344
-346
-346
-343
-343
-343
-340
-335
-334
-325
-313
-295
-271
-239
-191
-124
-65
-35
-47
-100
-182
-253
-295
-322
-340
-347
-346
-343
-344
-344
-344
-344
-344
-344
-346
-349
-346
-343
-341
-338
-340
-341
-343
-343
-344
-340
-337
-338
-337
-340
-341
-341
-340
-337
-335
-335
-334
-337
-340
-340
-338
-335
-335
-332
-334
-332
-334
-331
-329
-328
-326
-325
-322
-322
-320
-317
-314
-308
-305
-302
-301
-296
-295
-292
-289
-281
-274
-274
-271
-272
-274
-278
-280
-283
-292
-298
-305
-313
-317
-323
-326
-329
-331
-335
-340
-343
-343
-343
-343
-344
-344
-344
-344
-347
-349
-349
-347
-347
-347
-349
-349
-347
-347
-343
-343
-343
-343
-343
-346
-340
-340
-341
-341
-338
-341
-341
-343
-341
-341
-340
-340
-341
-341
-341
-343
-343
-343
-341
-341
-343
-343
-344
-344
-344
-343
-343
-344
-344
-347
-349
-347
-347
-346
-344
-344
-347
-349
-349
-349
-349
-349
-344
-347
-349
-350
-352
-350
-349
-349
-349
-349
-349
-352
-352
-352
-349
-347
-349
-350
-350
-350
-349
-346
-344
-343
-343
-343
-343
-343
-341
-343
-343
-346
-349
-352
-353
-353
-352
-352
-352
-352
-355
-358
-356
-356
-356
-356
-356
-352
-352
-352
-352
-349
-335
-316
-290
-263
-224
-173
-113
-67
-50
-68
-128
-205
-271
-311
-335
-349
-352
-350
-352
-355
-359
-364
-362
-361
-358
-358
-356
-358
-361
-362
-362
-361
-355
-356
-356
-356
-359
-356
-356
-352
-352
-353
-350
-352
-352
-352
-352
-352
-349
-349
-349
-349
-349
-346
-344
-341
-341
-341
-341
-341
-340
-338
-335
-332
-331
-329
-328
-326
-325
-320
-316
-311
-305
-302
-299
-298
-295
-292
-283
-283
-286
-289
-295
-299
-308
-314
-319
-326
-331
-337
-344
-347
-349
-352
-352
-355
-356
-361
-362
-365
-362
-359
-358
-361
-362
-365
-368
-370
-365
-362
-362
-362
-362
-361
-362
-361
-359
-356
-355
-356
-356
-356
-356
-356
-355
-356
-353
-355
-356
-356
-358
-356
-356
-356
-356
-358
-359
-359
-361
-359
-356
-356
-358
-361
-362
-361
-362
-361
-359
-358
-359
-361
-362
-365
-364
-362
-362
-362
-362
-365
-365
-365
-362
-364
-362
-362
-365
-370
-368
-368
-365
-365
-365
-365
-365
-368
-365
-368
-368
-368
-365
-367
-365
-362
-362
-361
-358
-356
-352
-352
-349
-352
-352
-353
-352
-352
-356
-361
-364
-365
-365
-362
-362
-362
-362
-364
-367
-365
-365
-365
-361
-361
-361
-364
-367
-361
-356
-341
-319
-295
-269
-230
-175
-116
-73
-65
-89
-154
-230
-290
-328
-352
-362
-364
-362
-364
-368
-371
-373
-373
-370
-370
-365
-367
-365
-370
-370
-370
-368
-365
-365
-365
-365
-367
-365
-365
-365
-362
-364
-362
-362
-365
-362
-359
-358
-358
-359
-359
-358
-356
-355
-355
-352
-353
-352
-352
-352
-349
-347
-344
-343
-341
-340
-338
-335
-329
-326
-322
-319
-317
-316
-314
-308
-305
-299
-296
-298
-299
-299
-310
-314
-317
-325
-328
-335
-341
-349
-352
-358
-359
-362
-364
-365
-365
-370
-371
-370
-370
-370
-370
-371
-373
-373
-373
-371
-368
-368
-370
-368
-370
-370
-370
-368
-365
-367
-365
-365
-365
-365
-365
-368
-365
-364
-362
-365
-368
-365
-365
-362
-362
-364
-362
-364
-365
-368
-370
-368
-367
-365
-368
-370
-371
-371
-370
-365
-365
-368
-370
-370
-371
-373
-374
-376
-373
-371
-373
-371
-374
-374
-373
-371
-370
-371
-376
-376
-376
-374
-376
-371
-371
-371
-373
-377
-376
-373
-371
-370
-373
-373
-374
-373
-373
-371
-371
-371
-371
-370
-370
-368
-365
-365
-362
-358
-359
-361
-365
-365
-368
-370
-371
-373
-374
-373
-376
-376
-377
-374
-373
-374
-377
-376
-376
-376
-376
-376
-370
-367
-361
-349
-323
-293
-262
-215
-157
-106
-86
-94
-140
-211
-275
-317
-347
-367
-374
-373
-371
-371
-373
-377
-377
-379
-380
-379
-376
-373
-373
-373
-374
-373
-373
-376
-379
-376
-373
-371
-371
-374
-373
-373
-373
-373
-371
-370
-368
-368
-367
-365
-365
-364
-362
-362
-362
-362
-361
-358
-356
-355
-355
-353
-352
-352
-349
-349
-344
-341
-338
-335
-332
-331
-329
-323
-320
-316
-313
-310
-308
-305
-302
-298
-301
-305
-314
-322
-326
-335
-341
-344
-350
-352
-356
-362
-365
-365
-365
-362
-362
-365
-368
-370
-371
-370
-368
-367
-365
-370
-371
-371
-371
-368
-367
-365
-364
-365
-365
-364
-362
-361
-361
-362
-362
-362
-361
-362
-362
-362
-362
-358
-361
-362
-362
-365
-364
-362
-361
-361
-361
-362
-362
-362
-362
-362
-361
-362
-362
-365
-365
-367
-365
-362
-361
-359
-362
-365
-365
-365
-364
-362
-362
-365
-365
-365
-365
-365
-362
-362
-362
-362
-365
-365
-364
-362
-361
-362
-361
-362
-365
-365
-364
-362
-362
-362
-361
-362
-362
-362
-362
-362
-359
-359
-359
-359
-359
-356
-356
-352
-352
-349
-349
-352
-352
-355
-356
-356
-358
-359
-362
-362
-364
-359
-361
-358
-359
-362
-362
-364
-361
-359
-358
-358
-358
-356
-355
-347
-331
-308
-283
-254
-215
-163
-113
-86
-82
-104
-161
-229
-281
-316
-340
-355
-358
-356
-353
-355
-356
-358
-359
-359
-361
-358
-355
-352
-356
-356
-359
-359
-361
-362
-358
-361
-361
-361
-362
-359
-356
-356
-356
-359
-361
-358
-356
-356
-355
-352
-352
-350
-352
-352
-352
-352
-352
-349
-347
-344
-349
-346
-344
-340
-335
-334
-335
-334
-334
-329
-325
-320
-316
-311
-307
-302
-304
-302
-296
-290
-289
-292
-298
-305
-313
-317
-323
-323
-325
-329
-334
-340
-343
-343
-343
-347
-349
-352
-352
-352
-352
-352
-352
-352
-352
-353
-355
-355
-353
-352
-350
-352
-352
-350
-350
-349
-350
-352
-347
-346
-344
-344
-347
-344
-344
-343
-341
-340
-340
-341
-344
-343
-343
-341
-340
-343
-344
-346
-349
-349
-347
-344
-344
-344
-347
-349
-349
-349
-349
-346
-347
-349
-352
-352
-352
-349
-347
-344
-347
-352
-350
-352
-352
-350
-350
-346
-346
-347
-350
-352
-350
-349
-347
-347
-350
-352
-352
-352
-350
-347
-349
-349
-352
-352
-352
-349
-349
-349
-349
-349
-347
-346
-343
-343
-341
-335
-334
-335
-338
-341
-344
-346
-347
-347
-349
-349
-352
-352
-352
-352
-350
-352
-349
-349
-352
-352
-352
-352
-347
-344
-343
-335
-323
-301
-275
-245
-200
-140
-88
-61
-65
-110
-184
-250
-290
-323
-347
-356
-355
-349
-350
-350
-353
-352
-355
-355
-355
-353
-355
-349
-349
-349
-349
-352
-349
-349
-346
-344
-344
-343
-344
-346
-346
-346
-344
-344
-346
-347
-344
-344
-344
-347
-344
-343
-341
-343
-343
-341
-340
-337
-335
-334
-334
-335
-335
-332
-329
-326
-323
-317
-314
-316
-313
-310
-305
-295
-290
-287
-287
-289
-292
-292
-292
-293
-296
-305
-313
-320
-325
-329
-335
-338
-340
-343
-343
-344
-347
-347
-350
-352
-352
-355
-358
-361
-361
-358
-358
-358
-359
-359
-358
-358
-358
-356
-355
-352
-355
-358
-356
-356
-355
-352
-355
-352
-352
-355
-358
-358
-355
-352
-352
-355
-358
-358
-358
-356
-356
-352
-352
-352
-355
-358
-361
-359
-356
-356
-353
-356
-361
-362
-364
-364
-362
-361
-359
-358
-358
-358
-358
-361
-356
-355
-356
-356
-361
-356
-356
-355
-355
-356
-358
-358
-358
-356
-356
-353
-350
-350
-352
-352
-352
-352
-353
-352
-353
-352
-353
-353
-352
-352
-352
-352
-346
-346
-347
-347
-346
-343
-340
-340
-340
-341
-347
-352
-355
-355
-356
-352
-353
-353
-358
-361
-358
-356
-355
-353
-356
-356
-356
-355
-355
-352
-349
-344
-335
-317
-296
-272
-236
-178
-115
-68
-58
-91
-166
-239
-287
-320
-352
-371
-374
-368
-362
-359
-361
-362
-361
-362
-365
-365
-365
-365
-364
-362
-361
-362
-364
-362
-361
-359
-359
-358
-358
-358
-356
-358
-358
-359
-356
-356
-352
-352
-352
-352
-353
-350
-350
-349
-350
-349
-349
-349
-346
-343
-341
-340
-338
-337
-338
-335
-329
-329
-325
-322
-320
-316
-314
-311
-307
-302
-298
-295
-292
-293
-296
-299
-301
-305
-311
-317
-326
-331
-338
-343
-347
-349
-352
-355
-356
-358
-361
-362
-364
-362
-362
-362
-365
-365
-368
-368
-365
-365
-365
-365
-368
-370
-368
-368
-362
-362
-364
-364
-365
-362
-364
-362
-362
-361
-361
-362
-364
-362
-362
-362
-361
-362
-362
-364
-365
-368
-368
-365
-364
-364
-365
-368
-368
-368
-368
-365
-365
-365
-368
-370
-370
-368
-365
-365
-365
-370
-370
-371
-370
-370
-370
-365
-367
-368
-370
-371
-370
-370
-370
-368
-368
-368
-368
-370
-370
-368
-368
-368
-368
-370
-371
-371
-370
-370
-367
-368
-370
-370
-371
-370
-368
-365
-364
-364
-364
-365
-364
-365
-359
-356
-356
-356
-362
-364
-368
-370
-367
-368
-365
-365
-368
-370
-373
-370
-368
-365
-365
-368
-370
-371
-371
-368
-365
-362
-356
-344
-328
-301
-271
-226
-170
-112
-71
-64
-92
-154
-230
-292
-328
-349
-361
-365
-368
-371
-377
-376
-373
-373
-373
-379
-377
-376
-373
-370
-368
-370
-371
-371
-373
-373
-371
-370
-370
-371
-371
-371
-370
-370
-368
-365
-365
-364
-365
-365
-365
-365
-364
-362
-361
-359
-362
-364
-364
-361
-356
-355
-356
-352
-352
-349
-349
-346
-340
-335
-334
-329
-329
-328
-326
-322
-314
-310
-308
-307
-307
-307
-308
-310
-313
-319
-328
-335
-343
-349
-350
-355
-358
-362
-365
-368
-371
-371
-373
-373
-373
-374
-373
-376
-379
-379
-377
-377
-376
-376
-377
-376
-377
-379
-377
-376
-373
-373
-374
-376
-376
-376
-376
-373
-370
-370
-371
-371
-371
-373
-371
-371
-373
-373
-373
-373
-371
-370
-370
-370
-373
-373
-374
-376
-373
-374
-373
-373
-376
-376
-379
-380
-379
-376
-376
-376
-379
-379
-379
-379
-377
-376
-376
-377
-379
-379
-380
-379
-377
-376
-379
-379
-379
-379
-380
-379
-379
-376
-377
-377
-379
-379
-379
-379
-377
-377
-379
-379
-379
-379
-377
-376
-376
-377
-373
-374
-376
-376
-379
-374
-371
-370
-370
-370
-367
-365
-365
-365
-370
-371
-377
-376
-379
-379
-379
-377
-377
-377
-379
-379
-382
-379
-379
-377
-376
-376
-376
-376
-373
-365
-352
-329
-304
-278
-239
-184
-130
-97
-89
-118
-181
-253
-307
-343
-365
-376
-376
-374
-376
-379
-383
-385
-385
-383
-380
-379
-376
-376
-379
-379
-379
-379
-377
-376
-377
-377
-376
-376
-376
-373
-370
-370
-370
-371
-373
-371
-370
-368
-365
-364
-364
-365
-368
-365
-362
-359
-359
-362
-358
-358
-356
-355
-352
-349
-346
-343
-344
-343
-340
-335
-332
-328
-323
-320
-317
-316
-314
-310
-307
-305
-305
-307
-310
-316
-320
-325
-331
-338
-343
-349
-353
-358
-361
-362
-365
-364
-367
-370
-373
-376
-371
-370
-370
-370
-373
-373
-373
-371
-373
-370
-368
-368
-370
-370
-370
-370
-368
-365
-365
-365
-365
-365
-364
-362
-361
-359
-362
-359
-362
-364
-365
-362
-362
-362
-362
-365
-367
-367
-365
-362
-361
-362
-365
-368
-370
-368
-370
-365
-365
-364
-365
-368
-370
-370
-370
-365
-367
-365
-368
-368
-370
-371
-370
-368
-365
-368
-368
-370
-370
-368
-367
-362
-364
-364
-365
-365
-365
-365
-364
-365
-365
-364
-365
-368
-365
-365
-365
-362
-365
-365
-365
-365
-365
-362
-361
-358
-359
-359
-364
-359
-356
-353
-352
-352
-350
-350
-352
-352
-355
-356
-358
-356
-358
-359
-362
-362
-364
-362
-362
-362
-364
-365
-365
-365
-362
-362
-361
-359
-358
-355
-346
-326
-299
-271
-239
-191
-136
-95
-82
-98
-146
-215
-271
-308
-337
-355
-361
-358
-356
-358
-362
-365
-365
-362
-362
-359
-358
-358
-356
-356
-356
-358
-358
-358
-356
-355
-355
-355
-355
-353
-352
-352
-356
-353
-356
-356
-356
-359
-358
-356
-353
-353
-352
-353
-352
-349
-347
-344
-343
-346
-349
-352
-350
-346
-341
-340
-338
-337
-337
-334
-331
-329
-326
-322
-320
-316
-310
-305
-299
-295
-295
-296
-302
-305
-308
-316
-320
-323
-328
-331
-341
-347
-350
-352
-352
-352
-352
-352
-356
-362
-362
-362
-359
-358
-362
-364
-364
-364
-362
-362
-361
-359
-361
-361
-361
-362
-362
-361
-358
-356
-356
-356
-355
-355
-356
-358
-356
-352
-352
-352
-355
-359
-356
-352
-350
-350
-352
-352
-355
-356
-356
-352
-350
-350
-352
-355
-358
-359
-359
-356
-356
-355
-355
-356
-356
-356
-356
-356
-355
-355
-356
-356
-358
-358
-356
-355
-355
-355
-355
-356
-356
-356
-356
-358
-356
-356
-356
-356
-358
-355
-353
-355
-356
-356
-358
-359
-359
-358
-356
-356
-355
-355
-356
-356
-356
-353
-352
-350
-349
-349
-346
-346
-347
-347
-350
-352
-355
-356
-359
-358
-358
-358
-359
-358
-359
-364
-361
-361
-361
-358
-361
-355
-355
-355
-355
-347
-329
-308
-284
-257
-215
-158
-104
-73
-71
-103
-170
-236
-284
-322
-352
-370
-370
-362
-356
-358
-362
-368
-365
-362
-361
-359
-361
-361
-362
-362
-359
-358
-356
-356
-356
-356
-361
-358
-356
-352
-352
-353
-352
-355
-355
-355
-355
-352
-350
-349
-350
-349
-352
-350
-350
-346
-343
-343
-343
-346
-344
-343
-343
-338
-335
-332
-331
-331
-329
-328
-322
-319
-314
-310
-308
-305
-302
-299
-295
-295
-295
-299
-302
-305
-314
-322
-325
-329
-334
-341
-347
-349
-352
-353
-355
-356
-356
-359
-361
-362
-362
-362
-362
-361
-361
-362
-365
-365
-365
-362
-361
-359
-362
-361
-362
-362
-364
-362
-358
-356
-356
-356
-358
-359
-359
-361
-356
-358
-358
-362
-362
-362
-361
-359
-359
-361
-361
-362
-362
-362
-364
-362
-362
-362
-365
-365
-368
-368
-365
-362
-362
-362
-365
-365
-365
-365
-364
-364
-365
-365
-368
-370
-368
-365
-365
-364
-365
-368
-367
-370
-368
-365
-365
-365
-367
-368
-370
-368
-367
-365
-365
-367
-368
-370
-370
-368
-365
-365
-364
-364
-365
-365
-368
-365
-362
-362
-361
-361
-359
-361
-362
-358
-355
-352
-353
-353
-358
-364
-365
-368
-365
-365
-362
-365
-370
-370
-370
-370
-368
-367
-367
-368
-370
-368
-367
-364
-358
-352
-341
-323
-299
-272
-233
-181
-128
-98
-97
-127
-190
-254
-298
-329
-352
-365
-367
-370
-368
-368
-370
-368
-368
-368
-370
-371
-370
-370
-370
-365
-367
-365
-368
-370
-370
-368
-365
-364
-364
-365
-365
-368
-365
-365
-362
-362
-361
-362
-362
-365
-364
-362
-359
-356
-358
-358
-359
-359
-358
-358
-355
-352
-353
-353
-355
-353
-349
-346
-343
-340
-337
-340
-338
-335
-329
-322
-320
-317
-316
-314
-314
-313
-314
-316
-319
-322
-328
-334
-340
-346
-349
-352
-356
-359
-362
-368
-371
-371
-371
-371
-374
-376
-376
-376
-376
-376
-376
-376
-376
-376
-377
-376
-379
-376
-373
-373
-373
-376
-374
-376
-373
-371
-371
-371
-373
-373
-373
-373
-371
-371
-370
-371
-371
-373
-374
-374
-373
-371
-371
-371
-371
-374
-376
-379
-382
-376
-376
-376
-379
-382
-382
-379
-376
-376
-379
-379
-382
-383
-382
-383
-379
-380
-379
-379
-379
-379
-379
-379
-379
-377
-376
-376
-376
-379
-379
-376
-374
-373
-373
-376
-376
-379
-380
-379
-377
-373
-373
-376
-376
-377
-376
-376
-373
-371
-373
-373
-373
-376
-373
-370
-368
-368
-367
-364
-361
-361
-364
-362
-365
-367
-370
-373
-374
-376
-376
-374
-374
-374
-376
-376
-377
-377
-377
-376
-376
-376
-374
-373
-370
-364
-352
-334
-314
-293
-265
-212
-148
-98
-83
-107
-179
-251
-302
-337
-371
-386
-385
-376
-374
-373
-376
-379
-379
-377
-376
-371
-371
-373
-374
-374
-373
-370
-368
-365
-368
-370
-370
-368
-368
-365
-367
-365
-365
-367
-368
-368
-364
-359
-361
-362
-364
-364
-362
-359
-358
-356
-358
-356
-356
-356
-359
-356
-353
-349
-347
-347
-346
-343
-343
-338
-332
-331
-328
-326
-322
-319
-314
-313
-310
-308
-308
-310
-314
-320
-325
-328
-332
-340
-344
-349
-352
-356
-361
-362
-362
-364
-367
-370
-371
-371
-370
-370
-370
-368
-368
-370
-370
-373
-370
-368
-368
-370
-370
-370
-370
-370
-365
-365
-365
-365
-368
-368
-368
-368
-365
-365
-365
-365
-365
-368
-368
-368
-365
-365
-368
-368
-371
-370
-370
-370
-368
-368
-368
-370
-373
-374
-373
-371
-371
-373
-373
-373
-376
-376
-377
-374
-373
-373
-373
-376
-377
-376
-376
-376
-373
-373
-376
-376
-377
-376
-376
-373
-373
-373
-374
-376
-376
-376
-373
-370
-370
-370
-373
-373
-373
-373
-370
-370
-370
-370
-370
-371
-370
-368
-368
-365
-367
-364
-364
-362
-359
-359
-358
-358
-361
-365
-368
-370
-371
-371
-370
-368
-368
-370
-373
-376
-376
-373
-370
-370
-370
-368
-371
-371
-370
-362
-347
-329
-305
-281
-253
-208
-148
-100
-77
-85
-128
-200
-268
-316
-344
-361
-368
-368
-367
-370
-373
-376
-377
-376
-373
-373
-371
-371
-373
-373
-373
-371
-370
-370
-370
-371
-373
-371
-371
-371
-365
-367
-367
-368
-365
-365
-364
-364
-361
-361
-362
-362
-361
-358
-359
-355
-356
-355
-356
-359
-356
-353
-350
-349
-347
-346
-346
-346
-344
-341
-337
-332
-329
-326
-325
-322
-319
-316
-310
-308
-305
-302
-302
-305
-310
-314
-317
-323
-329
-337
-344
-350
-352
-355
-356
-358
-365
-368
-371
-371
-373
-373
-370
-370
-370
-371
-374
-376
-374
-373
-373
-370
-370
-371
-373
-374
-371
-368
-365
-365
-365
-368
-370
-370
-370
-365
-364
-362
-362
-365
-367
-365
-364
-362
-364
-365
-365
-365
-370
-365
-365
-364
-365
-368
-367
-370
-370
-371
-371
-370
-367
-368
-370
-371
-373
-371
-370
-370
-368
-370
-371
-373
-373
-371
-370
-368
-370
-370
-370
-371
-374
-371
-373
-371
-373
-373
-373
-373
-373
-371
-371
-373
-373
-371
-373
-377
-374
-373
-371
-370
-373
-373
-373
-373
-371
-370
-367
-367
-368
-370
-368
-368
-367
-364
-362
-362
-362
-362
-365
-370
-373
-374
-374
-373
-371
-373
-376
-376
-376
-376
-374
-373
-376
-376
-376
-376
-373
-373
-370
-364
-353
-334
-307
-283
-250
-200
-145
-103
-91
-104
-146
-214
-274
-313
-341
-361
-373
-376
-374
-376
-376
-377
-377
-379
-379
-379
-380
-376
-376
-376
-377
-379
-379
-379
-376
-376
-373
-373
-373
-377
-379
-379
-377
-371
-371
-370
-370
-370
-371
-373
-370
-364
-362
-362
-364
-365
-368
-368
-365
-362
-362
-361
-362
-362
-359
-356
-353
-352
-349
-347
-347
-344
-341
-335
-332
-328
-325
-320
-316
-314
-313
-313
-313
-316
-322
-328
-331
-341
-347
-349
-352
-356
-358
-362
-367
-370
-373
-371
-371
-373
-374
-376
-379
-382
-382
-380
-379
-379
-379
-379
-379
-379
-377
-374
-373
-371
-374
-376
-377
-376
-373
-370
-371
-373
-374
-376
-374
-374
-374
-370
-370
-370
-371
-376
-373
-373
-373
-371
-373
-373
-376
-379
-379
-377
-373
-376
-376
-379
-379
-379
-380
-380
-379
-376
-376
-379
-379
-382
-382
-382
-382
-379
-379
-380
-382
-383
-383
-382
-380
-379
-379
-379
-382
-383
-383
-383
-379
-379
-377
-379
-383
-383
-382
-379
-377
-376
-376
-379
-382
-382
-380
-376
-374
-374
-373
-373
-376
-376
-373
-370
-368
-368
-370
-370
-371
-368
-365
-365
-368
-373
-374
-376
-379
-379
-377
-376
-376
-377
-376
-379
-382
-382
-383
-379
-377
-376
-377
-376
-373
-362
-346
-323
-298
-271
-232
-181
-134
-110
-112
-146
-208
-266
-307
-335
-358
-368
-371
-370
-373
-376
-380
-379
-379
-379
-376
-376
-373
-376
-376
-382
-379
-376
-373
-373
-376
-373
-373
-376
-373
-373
-370
-368
-370
-370
-371
-370
-370
-368
-365
-365
-365
-365
-367
-365
-364
-362
-359
-361
-359
-359
-361
-362
-356
-353
-352
-352
-352
-349
-347
-343
-340
-334
-332
-331
-331
-329
-323
-320
-316
-310
-307
-307
-310
-314
-319
-323
-326
-331
-335
-340
-344
-349
-352
-355
-355
-356
-358
-361
-362
-362
-364
-362
-362
-362
-364
-365
-365
-365
-364
-362
-362
-359
-361
-361
-361
-358
-356
-355
-356
-352
-353
-353
-355
-358
-355
-352
-352
-352
-352
-352
-356
-356
-353
-350
-349
-352
-352
-355
-355
-355
-352
-353
-352
-352
-355
-355
-355
-355
-355
-355
-355
-356
-358
-358
-356
-356
-353
-352
-352
-356
-359
-356
-356
-352
-352
-356
-355
-356
-355
-355
-353
-352
-350
-349
-350
-352
-352
-352
-352
-352
-350
-349
-350
-352
-352
-350
-349
-346
-347
-349
-349
-347
-349
-344
-341
-341
-341
-340
-340
-337
-337
-335
-337
-340
-341
-343
-343
-344
-341
-341
-341
-340
-337
-343
-343
-344
-343
-341
-341
-341
-343
-341
-338
-335
-326
-311
-293
-274
-253
-226
-176
-121
-79
-71
-103
-169
-229
-266
-298
-328
-343
-343
-337
-335
-337
-338
-338
-340
-337
-332
-335
-334
-337
-335
-331
-331
-329
-331
-334
-332
-335
-334
-331
-328
-326
-328
-331
-332
-332
-332
-329
-328
-326
-325
-326
-325
-325
-323
-322
-322
-320
-322
-322
-322
-320
-317
-314
-310
-310
-314
-317
-313
-311
-307
-305
-299
-292
-292
-290
-289
-286
-280
-278
-272
-274
-275
-277
-278
-284
-290
-295
-302
-308
-317
-323
-326
-328
-329
-332
-334
-332
-332
-332
-335
-343
-341
-340
-332
-329
-334
-340
-344
-343
-340
-338
-337
-340
-343
-340
-340
-340
-341
-338
-332
-334
-332
-338
-338
-332
-329
-326
-328
-331
-334
-338
-338
-335
-334
-332
-335
-337
-335
-332
-331
-329
-329
-329
-328
-328
-328
-331
-334
-334
-334
-332
-331
-331
-329
-328
-323
-323
-326
-326
-326
-323
-322
-322
-322
-320
-320
-320
-322
-323
-322
-322
-319
-317
-317
-317
-319
-320
-320
-316
-313
-307
-304
-304
-311
-323
-328
-323
-316
-311
-310
-307
-305
-302
-302
-299
-298
-302
-308
-310
-314
-313
-310
-307
-301
-302
-305
-313
-317
-319
-317
-316
-313
-310
-310
-310
-310
-307
-302
-293
-281
-263
-241
-212
-170
-107
-49
-13
-11
-58
-137
-203
-247
-283
-314
-326
-323
-316
-310
-311
-314
-314
-313
-313
-311
-313
-308
-311
-310
-310
-307
-302
-304
-307
-308
-310
-308
-307
-302
-301
-302
-305
-311
-313
-310
-305
-304
-302
-301
-301
-299
-301
-299
-298
-298
-298
-298
-296
-293
-292
-289
-287
-287
-286
-284
-283
-281
-277
-269
-268
-265
-263
-254
-248
-250
-250
-251
-245
-242
-244
-247
-253
-259
-263
-266
-272
-280
-286
-292
-295
-296
-299
-301
-305
-305
-310
-310
-313
-314
-311
-310
-310
-313
-316
-317
-317
-316
-313
-310
-313
-319
-322
-322
-320
-314
-310
-316
-317
-317
-316
-316
-317
-316
-314
-314
-314
-316
-317
-317
-317
-316
-314
-316
-317
-317
-320
-322
-320
-322
-322
-323
-326
-326
-328
-328
-325
-320
-323
-328
-331
-335
-334
-329
-328
-325
-326
-325
-323
-328
-328
-326
-322
-319
-323
-326
-329
-329
-328
-326
-325
-328
-329
-331
-331
-329
-328
-326
-328
-328
-329
-329
-329
-329
-326
-323
-320
-322
-322
-316
-314
-314
-313
-314
-317
-322
-326
-328
-329
-326
-322
-326
-328
-329
-329
-326
-328
-326
-325
-325
-328
-329
-329
-326
-317
-304
-287
-265
-239
-214
-169
-110
-62
-37
-41
-79
-146
-214
-262
-292
-316
-323
-325
-323
-326
-329
-334
-331
-334
-331
-332
-332
-332
-334
-332
-332
-329
-326
-329
-329
-331
-331
-329
-328
-326
-325
-325
-323
-328
-328
-329
-328
-326
-323
-322
-322
-320
-322
-320
-317
-317
-317
-320
-322
-325
-323
-322
-316
-313
-311
-310
-308
-310
-308
-305
-301
-296
-292
-287
-281
-280
-274
-269
-266
-269
-269
-271
-272
-278
-281
-289
-295
-301
-307
-313
-319
-322
-326
-326
-328
-329
-331
-335
-335
-335
-335
-332
-332
-335
-338
-340
-340
-340
-337
-338
-340
-340
-338
-337
-338
-338
-335
-337
-335
-335
-334
-331
-334
-332
-331
-329
-328
-329
-329
-331
-331
-329
-329
-329
-331
-331
-334
-335
-335
-332
-332
-335
-335
-335
-338
-340
-338
-334
-334
-335
-334
-335
-335
-337
-338
-337
-335
-337
-340
-340
-340
-338
-335
-334
-335
-337
-340
-340
-338
-340
-341
-341
-341
-343
-346
-347
-343
-343
-338
-337
-338
-340
-340
-340
-338
-337
-338
-338
-335
-335
-335
-335
-332
-328
-326
-326
-329
-337
-338
-340
-340
-340
-337
-337
-338
-346
-346
-347
-344
-343
-341
-344
-346
-344
-344
-344
-341
-338
-332
-323
-308
-289
-265
-236
-190
-133
-86
-68
-82
-131
-200
-253
-289
-319
-340
-347
-347
-349
-347
-347
-344
-343
-343
-344
-347
-347
-349
-346
-343
-341
-343
-341
-346
-343
-343
-340
-337
-334
-335
-340
-341
-340
-337
-335
-335
-338
-335
-335
-335
-332
-331
-331
-332
-332
-335
-334
-331
-329
-328
-326
-325
-326
-329
-326
-322
-316
-313
-310
-307
-305
-302
-298
-295
-289
-284
-284
-280
-281
-281
-280
-284
-287
-293
-299
-305
-313
-317
-323
-326
-329
-334
-337
-340
-341
-341
-340
-341
-343
-346
-349
-352
-355
-352
-350
-350
-349
-350
-352
-353
-352
-349
-347
-344
-346
-349
-352
-355
-350
-349
-344
-343
-340
-343
-347
-346
-346
-346
-344
-343
-344
-344
-347
-349
-347
-344
-343
-341
-343
-344
-346
-346
-346
-346
-346
-346
-346
-347
-349
-352
-347
-344
-344
-349
-352
-352
-352
-349
-347
-349
-349
-350
-352
-352
-352
-347
-346
-349
-350
-355
-356
-356
-352
-352
-352
-352
-352
-352
-352
-352
-352
-350
-350
-350
-350
-352
-349
-346
-343
-340
-340
-340
-343
-344
-350
-352
-352
-352
-349
-349
-350
-349
-352
-350
-349
-349
-352
-349
-349
-352
-352
-352
-347
-344
-343
-338
-329
-313
-289
-268
-232
-175
-113
-71
-64
-104
-178
-238
-283
-319
-352
-370
-368
-359
-352
-349
-347
-349
-352
-352
-352
-352
-353
-352
-347
-347
-349
-349
-352
-349
-346
-346
-344
-347
-346
-346
-344
-343
-341
-340
-340
-341
-344
-344
-343
-341
-341
-340
-337
-338
-337
-335
-334
-332
-329
-328
-329
-329
-329
-325
-323
-317
-314
-313
-308
-308
-307
-302
-299
-293
-287
-283
-283
-281
-280
-275
-278
-278
-284
-289
-295
-307
-313
-319
-323
-326
-329
-332
-338
-343
-344
-344
-347
-346
-347
-349
-349
-352
-352
-349
-350
-349
-349
-349
-347
-346
-346
-346
-346
-344
-344
-344
-347
-349
-350
-349
-343
-340
-343
-343
-344
-346
-347
-343
-341
-343
-343
-344
-344
-347
-344
-344
-343
-343
-344
-347
-349
-350
-350
-349
-347
-349
-352
-352
-350
-347
-349
-352
-355
-362
-362
-359
-355
-352
-358
-362
-362
-358
-356
-355
-353
-352
-352
-352
-355
-352
-355
-355
-355
-355
-352
-355
-355
-355
-355
-352
-353
-350
-349
-346
-344
-349
-355
-355
-349
-344
-344
-349
-352
-350
-352
-352
-352
-352
-352
-352
-355
-355
-355
-356
-355
-355
-352
-352
-356
-362
-365
-359
-356
-353
-355
-359
-358
-349
-332
-311
-283
-254
-211
-154
-100
-61
-52
-77
-142
-221
-284
-317
-335
-350
-356
-358
-361
-359
-362
-365
-368
-368
-367
-362
-361
-359
-362
-362
-362
-359
-356
-355
-358
-358
-362
-362
-361
-359
-355
-352
-353
-355
-356
-356
-356
-355
-352
-352
-352
-353
-353
-352
-352
-349
-347
-346
-346
-347
-346
-346
-346
-341
-338
-332
-332
-334
-334
-331
-328
-320
-313
-310
-307
-302
-298
-295
-293
-292
-292
-289
-296
-302
-308
-316
-317
-325
-329
-335
-343
-346
-349
-349
-352
-352
-355
-358
-362
-362
-365
-362
-361
-358
-359
-361
-362
-364
-362
-362
-361
-361
-362
-364
-364
-362
-356
-356
-353
-352
-352
-350
-353
-356
-352
-349
-349
-347
-350
-352
-353
-355
-355
-352
-355
-355
-358
-358
-361
-361
-359
-358
-361
-362
-365
-365
-365
-365
-365
-365
-364
-365
-367
-368
-370
-365
-365
-365
-367
-370
-370
-371
-373
-374
-373
-373
-370
-370
-370
-371
-373
-371
-370
-370
-370
-370
-371
-371
-373
-370
-370
-370
-370
-370
-371
-371
-370
-370
-370
-370
-371
-373
-373
-370
-368
-365
-362
-362
-362
-365
-365
-368
-368
-370
-370
-371
-371
-373
-373
-374
-373
-373
-376
-371
-373
-376
-379
-379
-373
-371
-370
-368
-365
-356
-343
-320
-293
-265
-226
-170
-113
-85
-86
-131
-205
-274
-314
-343
-364
-373
-373
-371
-370
-373
-377
-379
-380
-376
-374
-373
-373
-373
-376
-376
-379
-376
-377
-373
-371
-374
-374
-376
-373
-373
-373
-371
-371
-370
-371
-371
-371
-373
-371
-370
-368
-368
-368
-371
-371
-370
-365
-365
-365
-364
-365
-365
-364
-359
-356
-355
-352
-352
-350
-346
-343
-340
-335
-331
-328
-325
-322
-314
-314
-310
-310
-311
-314
-322
-328
-334
-340
-344
-350
-355
-361
-365
-370
-370
-373
-376
-376
-379
-382
-383
-382
-382
-382
-382
-383
-382
-385
-383
-383
-383
-382
-382
-380
-382
-383
-386
-388
-386
-383
-383
-379
-379
-379
-380
-379
-376
-374
-374
-376
-379
-382
-382
-382
-379
-376
-373
-374
-377
-379
-379
-376
-373
-371
-374
-377
-379
-382
-379
-379
-379
-379
-379
-382
-383
-383
-382
-380
-380
-380
-379
-379
-383
-383
-383
-382
-379
-379
-376
-379
-380
-383
-383
-382
-379
-379
-382
-386
-386
-388
-383
-382
-380
-379
-379
-380
-382
-380
-379
-377
-379
-379
-379
-379
-379
-374
-371
-368
-365
-370
-373
-379
-379
-379
-376
-376
-379
-383
-389
-392
-386
-383
-382
-382
-385
-385
-383
-383
-382
-382
-379
-376
-368
-359
-341
-322
-299
-268
-214
-145
-89
-65
-83
-148
-233
-296
-338
-373
-398
-406
-395
-385
-379
-376
-379
-380
-379
-382
-382
-379
-379
-379
-376
-377
-376
-379
-382
-379
-376
-373
-371
-373
-376
-377
-376
-371
-370
-370
-370
-370
-370
-370
-371
-370
-368
-367
-364
-362
-362
-362
-364
-359
-358
-355
-353
-352
-350
-349
-346
-344
-340
-338
-332
-326
-325
-320
-317
-313
-305
-305
-302
-301
-299
-299
-299
-301
-305
-313
-322
-331
-335
-343
-346
-349
-355
-361
-365
-368
-370
-370
-370
-368
-370
-371
-376
-380
-379
-377
-374
-374
-373
-377
-377
-379
-376
-374
-371
-371
-370
-373
-376
-374
-373
-370
-368
-368
-365
-367
-368
-370
-368
-368
-370
-370
-371
-371
-370
-370
-370
-368
-370
-370
-371
-371
-371
-370
-368
-368
-370
-371
-373
-373
-376
-376
-373
-371
-371
-373
-376
-377
-376
-373
-373
-370
-370
-371
-370
-373
-371
-371
-371
-373
-373
-373
-373
-373
-371
-373
-371
-371
-370
-371
-373
-373
-371
-370
-368
-368
-370
-370
-370
-370
-368
-364
-362
-358
-359
-362
-362
-362
-359
-359
-362
-364
-370
-370
-370
-370
-368
-370
-365
-371
-373
-376
-376
-374
-373
-371
-371
-371
-371
-370
-370
-367
-358
-344
-322
-296
-265
-223
-166
-106
-68
-58
-88
-158
-245
-308
-340
-356
-365
-370
-371
-373
-377
-377
-373
-371
-370
-370
-370
-373
-371
-371
-371
-371
-371
-370
-368
-368
-370
-370
-368
-368
-365
-364
-365
-367
-370
-370
-368
-365
-362
-362
-362
-364
-362
-364
-362
-359
-355
-352
-352
-356
-358
-356
-355
-352
-349
-349
-346
-344
-343
-334
-332
-329
-326
-322
-316
-316
-313
-308
-301
-298
-293
-290
-292
-295
-302
-308
-313
-317
-326
-331
-335
-343
-346
-347
-347
-349
-353
-356
-359
-364
-364
-365
-362
-364
-365
-365
-365
-365
-364
-364
-362
-364
-364
-365
-370
-368
-368
-364
-362
-364
-364
-365
-365
-365
-362
-361
-359
-361
-361
-361
-359
-359
-358
-358
-358
-359
-361
-362
-365
-362
-362
-359
-362
-364
-365
-365
-365
-365
-364
-365
-365
-365
-365
-365
-368
-368
-367
-365
-365
-365
-367
-370
-370
-371
-365
-365
-365
-368
-371
-373
-371
-370
-370
-368
-370
-371
-373
-373
-370
-370
-368
-370
-370
-371
-373
-373
-373
-370
-368
-370
-371
-373
-373
-371
-371
-370
-370
-370
-365
-367
-370
-365
-362
-361
-362
-365
-370
-373
-376
-379
-377
-374
-374
-374
-377
-380
-382
-380
-379
-376
-377
-377
-379
-379
-379
-373
-368
-356
-343
-322
-301
-272
-230
-173
-118
-85
-82
-116
-184
-265
-316
-346
-365
-376
-379
-376
-376
-382
-382
-383
-382
-380
-383
-383
-382
-383
-382
-379
-379
-377
-377
-379
-379
-380
-377
-376
-373
-373
-374
-377
-377
-377
-379
-376
-376
-373
-371
-371
-373
-373
-370
-368
-365
-367
-370
-370
-370
-370
-365
-367
-362
-361
-359
-359
-359
-352
-346
-341
-338
-337
-337
-335
-331
-328
-322
-316
-313
-313
-311
-314
-316
-320
-322
-326
-332
-341
-349
-355
-359
-364
-364
-365
-368
-371
-373
-377
-379
-377
-376
-379
-379
-386
-385
-386
-386
-385
-386
-385
-383
-383
-385
-386
-386
-386
-383
-383
-382
-382
-383
-382
-379
-379
-377
-377
-379
-382
-382
-382
-379
-379
-377
-377
-376
-379
-379
-379
-379
-377
-376
-377
-379
-382
-383
-382
-379
-379
-376
-376
-382
-382
-383
-383
-383
-383
-382
-382
-385
-386
-386
-386
-383
-383
-383
-386
-386
-388
-388
-385
-379
-380
-379
-380
-382
-383
-383
-383
-382
-379
-379
-380
-382
-382
-383
-382
-380
-379
-382
-382
-382
-380
-382
-377
-374
-373
-373
-376
-371
-368
-365
-365
-370
-371
-376
-377
-379
-377
-376
-377
-376
-377
-379
-379
-382
-382
-379
-377
-376
-374
-377
-377
-376
-373
-365
-352
-329
-310
-286
-251
-190
-121
-71
-58
-100
-184
-268
-325
-358
-386
-395
-392
-383
-379
-379
-379
-379
-379
-376
-377
-379
-379
-379
-382
-382
-380
-377
-377
-376
-374
-377
-377
-376
-373
-370
-373
-373
-373
-373
-371
-371
-370
-370
-370
-368
-367
-367
-368
-367
-364
-362
-364
-362
-362
-359
-356
-356
-352
-350
-349
-349
-346
-338
-331
-323
-316
-316
-319
-323
-325
-322
-316
-310
-307
-305
-302
-305
-311
-316
-322
-328
-335
-341
-349
-356
-361
-361
-362
-362
-368
-371
-376
-376
-379
-377
-376
-376
-376
-379
-379
-379
-380
-379
-376
-376
-376
-376
-376
-376
-376
-373
-371
-370
-370
-370
-371
-373
-371
-368
-365
-365
-367
-368
-370
-371
-373
-368
-370
-368
-370
-370
-368
-368
-368
-368
-368
-370
-368
-370
-370
-373
-370
-368
-368
-368
-370
-370
-370
-370
-370
-370
-365
-365
-367
-368
-371
-373
-370
-368
-365
-365
-368
-368
-370
-368
-365
-365
-365
-365
-365
-367
-368
-368
-365
-367
-367
-365
-368
-368
-368
-368
-365
-365
-361
-359
-361
-362
-364
-358
-356
-355
-352
-353
-355
-356
-358
-361
-364
-365
-365
-365
-368
-367
-367
-365
-364
-362
-365
-370
-371
-368
-365
-362
-361
-359
-361
-358
-347
-329
-302
-271
-233
-181
-118
-68
-46
-58
-113
-202
-278
-326
-352
-362
-365
-362
-359
-359
-361
-362
-368
-368
-367
-365
-364
-362
-362
-362
-365
-365
-365
-362
-361
-359
-362
-362
-361
-362
-359
-358
-355
-352
-355
-356
-359
-359
-358
-352
-350
-352
-353
-352
-356
-352
-352
-350
-347
-349
-347
-347
-346
-343
-341
-337
-335
-331
-329
-328
-326
-322
-317
-313
-308
-304
-302
-301
-296
-293
-290
-289
-292
-295
-299
-305
-310
-316
-320
-326
-329
-335
-341
-344
-346
-349
-352
-349
-352
-356
-356
-359
-358
-358
-356
-356
-356
-356
-358
-358
-359
-359
-356
-356
-356
-358
-356
-356
-355
-352
-352
-353
-353
-352
-352
-350
-350
-350
-350
-352
-352
-352
-352
-349
-349
-349
-350
-352
-356
-355
-353
-352
-352
-355
-353
-355
-355
-353
-356
-356
-355
-352
-352
-353
-356
-359
-359
-358
-356
-355
-355
-356
-358
-356
-356
-356
-352
-352
-352
-356
-358
-358
-356
-352
-353
-355
-356
-358
-358
-356
-356
-352
-353
-355
-356
-359
-356
-356
-352
-352
-355
-353
-355
-352
-350
-349
-346
-343
-343
-343
-347
-349
-352
-352
-353
-352
-355
-355
-356
-356
-358
-356
-355
-355
-358
-358
-361
-359
-358
-355
-355
-355
-352
-344
-331
-310
-281
-251
-211
-154
-100
-70
-71
-109
-182
-254
-302
-329
-349
-358
-359
-358
-361
-362
-362
-362
-364
-364
-365
-364
-362
-362
-362
-361
-362
-362
-362
-359
-358
-359
-358
-358
-361
-361
-361
-359
-355
-355
-355
-358
-358
-359
-358
-356
-358
-356
-356
-356
-356
-355
-350
-349
-349
-347
-349
-349
-349
-344
-341
-338
-335
-332
-331
-329
-328
-322
-317
-313
-307
-305
-304
-302
-299
-296
-299
-302
-307
-313
-320
-326
-331
-334
-338
-343
-346
-350
-356
-358
-358
-358
-359
-362
-364
-365
-367
-368
-368
-368
-365
-365
-368
-370
-370
-370
-367
-365
-365
-365
-365
-368
-368
-365
-364
-362
-364
-362
-364
-365
-365
-365
-362
-362
-362
-362
-364
-362
-361
-362
-365
-362
-362
-364
-365
-365
-362
-362
-361
-362
-365
-365
-368
-368
-365
-365
-364
-364
-365
-365
-370
-370
-367
-362
-362
-362
-364
-365
-367
-368
-365
-364
-365
-362
-365
-367
-368
-368
-365
-365
-364
-365
-365
-367
-365
-365
-364
-362
-362
-362
-365
-365
-365
-362
-361
-359
-361
-362
-362
-358
-355
-352
-350
-352
-355
-356
-359
-362
-365
-362
-362
-362
-364
-365
-368
-368
-365
-365
-364
-364
-365
-365
-365
-364
-362
-358
-350
-335
-316
-292
-266
-224
-157
-97
-61
-70
-128
-215
-284
-323
-352
-376
-382
-377
-370
-365
-367
-367
-368
-368
-368
-368
-370
-370
-368
-365
-364
-362
-361
-362
-365
-362
-362
-359
-358
-359
-361
-358
-358
-356
-356
-359
-356
-356
-355
-355
-356
-352
-350
-349
-347
-349
-347
-349
-349
-346
-344
-343
-341
-341
-338
-335
-332
-328
-323
-319
-317
-316
-313
-308
-302
-298
-292
-290
-287
-286
-287
-289
-293
-295
-301
-305
-313
-320
-326
-331
-335
-338
-343
-343
-346
-352
-358
-362
-362
-362
-359
-359
-361
-362
-365
-365
-365
-362
-362
-362
-362
-362
-362
-361
-358
-358
-358
-358
-359
-358
-358
-356
-356
-358
-359
-359
-359
-358
-356
-356
-355
-356
-359
-361
-364
-361
-361
-359
-361
-362
-362
-362
-364
-365
-362
-362
-361
-362
-362
-364
-365
-365
-364
-364
-361
-361
-361
-362
-362
-362
-364
-362
-362
-362
-362
-364
-365
-364
-361
-358
-361
-362
-364
-365
-362
-362
-361
-361
-359
-362
-362
-367
-365
-362
-359
-358
-358
-356
-359
-359
-358
-356
-352
-350
-349
-349
-349
-352
-352
-356
-358
-359
-361
-362
-365
-364
-364
-362
-364
-362
-362
-362
-362
-362
-361
-358
-356
-356
-353
-352
-340
-320
-295
-265
-239
-191
-131
-79
-49
-55
-100
-181
-259
-311
-340
-355
-359
-358
-356
-356
-359
-362
-362
-362
-364
-362
-361
-358
-358
-359
-362
-362
-362
-362
-358
-356
-356
-358
-361
-361
-359
-356
-355
-355
-355
-358
-356
-356
-355
-353
-352
-349
-349
-352
-353
-352
-350
-346
-344
-346
-346
-346
-346
-344
-341
-335
-334
-332
-331
-329
-328
-325
-320
-313
-310
-307
-302
-299
-296
-293
-292
-289
-293
-295
-302
-307
-313
-316
-323
-326
-334
-338
-346
-349
-350
-352
-352
-352
-356
-358
-359
-361
-361
-359
-356
-358
-361
-362
-364
-362
-362
-358
-356
-358
-359
-359
-359
-358
-356
-355
-353
-355
-353
-356
-356
-355
-355
-352
-352
-352
-353
-356
-356
-356
-356
-352
-352
-353
-355
-356
-355
-355
-355
-355
-356
-356
-358
-358
-359
-359
-358
-358
-358
-358
-359
-359
-359
-359
-358
-356
-356
-359
-361
-359
-358
-356
-356
-356
-356
-358
-359
-359
-358
-356
-355
-356
-361
-359
-359
-358
-356
-358
-355
-358
-358
-361
-362
-362
-359
-355
-355
-355
-358
-356
-356
-352
-352
-352
-349
-349
-349
-350
-352
-356
-359
-361
-361
-361
-364
-362
-364
-365
-365
-364
-364
-362
-364
-362
-362
-362
-361
-359
-359
-362
-355
-344
-328
-302
-272
-241
-188
-131
-89
-76
-100
-160
-239
-296
-329
-349
-362
-365
-362
-361
-364
-365
-368
-368
-368
-368
-365
-365
-365
-365
-365
-365
-365
-365
-364
-362
-362
-364
-362
-365
-365
-365
-364
-362
-362
-362
-365
-364
-364
-362
-362
-359
-359
-361
-362
-362
-359
-356
-355
-355
-355
-355
-352
-352
-350
-347
-346
-344
-343
-343
-343
-340
-335
-329
-328
-325
-322
-319
-316
-311
-307
-305
-305
-305
-311
-316
-323
-328
-328
-335
-338
-346
-350
-356
-361
-362
-364
-364
-365
-365
-370
-370
-373
-370
-368
-368
-371
-373
-374
-376
-374
-373
-371
-371
-373
-373
-371
-370
-370
-370
-370
-368
-367
-365
-365
-367
-367
-365
-364
-362
-365
-365
-368
-370
-371
-371
-367
-365
-365
-368
-371
-371
-373
-371
-371
-370
-371
-370
-371
-373
-373
-371
-370
-371
-371
-373
-373
-373
-371
-371
-373
-373
-373
-376
-376
-373
-371
-371
-370
-371
-373
-376
-377
-371
-371
-371
-373
-376
-376
-376
-373
-371
-371
-371
-373
-373
-376
-373
-370
-368
-368
-368
-367
-370
-368
-368
-365
-362
-358
-358
-361
-362
-364
-367
-370
-368
-370
-371
-370
-371
-373
-376
-374
-373
-373
-371
-373
-376
-376
-376
-371
-370
-365
-362
-359
-349
-329
-308
-280
-242
-185
-121
-76
-68
-106
-187
-265
-314
-344
-370
-386
-388
-382
-376
-373
-373
-371
-370
-370
-371
-371
-371
-371
-370
-368
-365
-367
-365
-368
-368
-367
-365
-364
-365
-367
-365
-370
-364
-362
-362
-362
-365
-365
-367
-365
-362
-359
-356
-358
-358
-359
-359
-356
-356
-352
-352
-352
-352
-349
-346
-344
-340
-335
-334
-331
-329
-328
-323
-317
-313
-307
-305
-302
-298
-299
-298
-298
-298
-299
-305
-313
-322
-329
-332
-338
-341
-346
-349
-355
-358
-362
-362
-361
-361
-362
-365
-370
-370
-370
-370
-370
-368
-368
-368
-370
-373
-370
-368
-365
-365
-365
-368
-370
-368
-367
-365
-364
-364
-364
-365
-368
-365
-364
-362
-361
-362
-361
-362
-362
-364
-364
-362
-362
-362
-367
-368
-368
-365
-365
-362
-364
-365
-365
-367
-365
-365
-365
-364
-362
-362
-365
-368
-368
-365
-367
-364
-362
-362
-365
-367
-365
-365
-365
-362
-362
-362
-364
-367
-362
-362
-361
-359
-361
-362
-364
-362
-362
-359
-358
-358
-359
-359
-361
-361
-361
-358
-356
-355
-352
-352
-355
-352
-349
-344
-346
-347
-352
-356
-361
-361
-361
-359
-358
-358
-364
-362
-364
-364
-364
-364
-364
-364
-364
-365
-364
-359
-356
-352
-344
-328
-305
-278
-244
-191
-124
-71
-49
-73
-143
-233
-296
-332
-352
-362
-362
-361
-364
-362
-365
-364
-364
-362
-362
-362
-364
-365
-362
-358
-358
-358
-361
-365
-362
-361
-361
-356
-358
-355
-356
-358
-359
-361
-359
-355
-353
-352
-355
-356
-358
-356
-352
-349
-350
-349
-350
-349
-349
-349
-347
-346
-344
-343
-341
-341
-338
-335
-334
-326
-323
-322
-319
-316
-310
-302
-299
-296
-295
-293
-292
-295
-295
-299
-302
-307
-314
-320
-326
-331
-335
-338
-341
-343
-346
-349
-353
-356
-356
-356
-356
-358
-358
-359
-361
-361
-361
-358
-356
-356
-358
-359
-362
-361
-361
-356
-355
-356
-358
-358
-358
-356
-356
-352
-352
-352
-355
-356
-356
-355
-353
-352
-352
-350
-352
-355
-355
-356
-356
-355
-355
-355
-355
-355
-356
-358
-358
-356
-356
-358
-358
-361
-359
-362
-361
-359
-358
-359
-362
-365
-364
-362
-359
-359
-364
-364
-362
-361
-359
-361
-359
-361
-362
-362
-362
-362
-362
-362
-358
-358
-359
-362
-362
-362
-362
-361
-362
-362
-362
-362
-362
-362
-361
-359
-356
-356
-356
-358
-358
-356
-355
-352
-349
-346
-347
-352
-358
-358
-359
-358
-356
-359
-359
-359
-362
-365
-365
-361
-359
-359
-362
-364
-362
-359
-356
-353
-346
-340
-322
-299
-274
-245
-202
-146
-94
-67
-71
-110
-185
-257
-302
-328
-344
-355
-361
-358
-358
-359
-361
-359
-359
-359
-361
-362
-359
-358
-356
-356
-358
-358
-358
-358
-356
-356
-355
-355
-355
-356
-356
-356
-355
-352
-352
-352
-352
-356
-353
-352
-352
-352
-352
-352
-352
-349
-352
-349
-349
-344
-344
-346
-347
-349
-347
-343
-340
-334
-334
-331
-331
-329
-326
-322
-316
-311
-307
-302
-301
-298
-296
-298
-299
-305
-307
-314
-322
-328
-334
-337
-341
-343
-347
-350
-352
-353
-356
-356
-358
-358
-361
-362
-364
-364
-364
-362
-361
-359
-361
-365
-365
-365
-364
-362
-362
-359
-361
-362
-362
-362
-361
-359
-358
-358
-358
-358
-359
-359
-359
-356
-356
-359
-359
-361
-362
-362
-361
-358
-361
-358
-364
-368
-365
-362
-361
-362
-362
-365
-367
-365
-365
-365
-364
-365
-365
-368
-373
-370
-365
-364
-364
-365
-368
-368
-368
-365
-365
-365
-365
-362
-362
-365
-367
-368
-368
-365
-367
-365
-365
-365
-365
-365
-364
-362
-362
-362
-362
-365
-365
-364
-362
-359
-361
-362
-362
-359
-358
-355
-356
-352
-350
-349
-352
-358
-361
-359
-356
-356
-356
-358
-362
-365
-365
-365
-365
-365
-365
-365
-368
-368
-365
-362
-359
-356
-356
-352
-341
-320
-296
-274
-239
-184
-121
-73
-65
-107
-184
-263
-313
-341
-368
-379
-379
-371
-365
-365
-364
-365
-367
-370
-368
-365
-364
-362
-362
-362
-362
-362
-362
-361
-358
-356
-356
-358
-359
-359
-358
-355
-352
-352
-352
-352
-356
-356
-355
-349
-347
-346
-347
-346
-347
-349
-349
-344
-343
-340
-338
-335
-341
-340
-338
-331
-325
-325
-322
-319
-316
-314
-310
-305
-301
-299
-295
-289
-284
-283
-281
-284
-284
-287
-293
-299
-307
-311
-317
-322
-328
-334
-335
-340
-344
-346
-344
-344
-349
-350
-353
-352
-356
-359
-356
-355
-355
-352
-356
-355
-356
-355
-355
-352
-353
-352
-352
-352
-352
-350
-347
-344
-347
-349
-352
-352
-352
-349
-347
-344
-347
-349
-352
-352
-352
-352
-350
-349
-349
-350
-352
-352
-352
-352
-352
-350
-349
-352
-353
-355
-355
-352
-352
-352
-355
-356
-356
-356
-356
-353
-355
-352
-352
-353
-352
-352
-352
-352
-352
-352
-352
-353
-355
-355
-352
-349
-350
-352
-356
-356
-356
-356
-356
-352
-352
-352
-352
-352
-352
-349
-347
-347
-349
-344
-343
-343
-344
-344
-338
-332
-334
-335
-341
-347
-349
-346
-346
-346
-344
-346
-347
-349
-350
-352
-349
-347
-347
-349
-350
-349
-349
-344
-340
-332
-322
-301
-275
-250
-209
-151
-86
-43
-31
-55
-121
-205
-271
-308
-332
-350
-352
-349
-349
-349
-352
-352
-350
-349
-349
-352
-352
-350
-349
-346
-347
-347
-349
-349
-349
-349
-346
-343
-344
-344
-343
-344
-347
-344
-341
-341
-343
-343
-343
-343
-344
-340
-337
-335
-337
-337
-337
-335
-337
-335
-332
-331
-329
-334
-332
-329
-328
-323
-319
-316
-313
-311
-308
-305
-301
-298
-292
-289
-286
-286
-284
-283
-284
-287
-293
-299
-307
-314
-322
-326
-329
-331
-334
-335
-340
-347
-349
-349
-349
-350
-349
-349
-353
-355
-358
-355
-352
-349
-352
-355
-356
-356
-352
-352
-350
-350
-350
-350
-350
-350
-350
-349
-347
-344
-347
-346
-346
-347
-344
-344
-343
-343
-346
-346
-347
-347
-349
-349
-346
-347
-352
-356
-352
-350
-349
-349
-352
-350
-352
-355
-355
-353
-349
-349
-349
-349
-350
-352
-352
-352
-350
-349
-349
-350
-352
-352
-353
-352
-352
-352
-352
-352
-356
-358
-355
-352
-352
-352
-352
-352
-352
-352
-352
-350
-350
-349
-349
-350
-352
-349
-347
-344
-344
-347
-344
-344
-343
-341
-340
-343
-346
-349
-352
-355
-356
-356
-355
-350
-352
-352
-355
-356
-358
-356
-355
-352
-352
-352
-352
-352
-350
-344
-334
-313
-287
-262
-230
-184
-127
-79
-61
-79
-139
-217
-275
-311
-338
-352
-355
-353
-356
-356
-361
-362
-362
-362
-359
-355
-356
-356
-356
-356
-356
-356
-355
-352
-352
-352
-353
-355
-356
-355
-352
-352
-352
-352
-355
-356
-355
-355
-352
-350
-352
-349
-350
-349
-350
-352
-347
-347
-346
-349
-350
-347
-344
-341
-340
-335
-335
-335
-335
-334
-331
-326
-322
-320
-316
-314
-310
-305
-302
-296
-296
-296
-299
-302
-307
-313
-316
-322
-326
-329
-338
-343
-349
-350
-352
-352
-352
-356
-359
-362
-362
-362
-365
-362
-364
-365
-365
-365
-365
-365
-365
-365
-365
-362
-362
-362
-361
-359
-359
-359
-361
-361
-359
-359
-358
-356
-356
-356
-358
-358
-361
-362
-359
-358
-356
-356
-358
-359
-362
-365
-362
-362
-362
-361
-365
-365
-368
-368
-367
-365
-364
-365
-365
-370
-370
-370
-370
-368
-368
-368
-367
-368
-368
-368
-367
-365
-365
-370
-371
-370
-370
-370
-368
-368
-368
-370
-370
-370
-371
-373
-373
-370
-371
-371
-370
-368
-370
-367
-365
-362
-362
-362
-362
-362
-361
-358
-358
-358
-361
-362
-367
-370
-371
-370
-367
-365
-368
-373
-377
-376
-376
-373
-373
-373
-370
-368
-368
-367
-365
-362
-358
-347
-329
-308
-289
-263
-212
-149
-97
-77
-103
-175
-253
-304
-335
-359
-379
-385
-380
-373
-370
-370
-371
-371
-371
-373
-376
-376
-374
-370
-368
-365
-368
-371
-373
-376
-370
-365
-362
-365
-367
-368
-367
-365
-362
-362
-364
-362
-364
-364
-365
-361
-359
-358
-358
-361
-359
-359
-356
-352
-352
-352
-352
-349
-350
-350
-349
-346
-343
-337
-334
-326
-323
-322
-323
-322
-317
-314
-308
-305
-302
-302
-304
-307
-310
-313
-314
-325
-334
-344
-346
-346
-344
-352
-356
-359
-362
-370
-370
-368
-365
-368
-371
-370
-370
-370
-371
-371
-367
-365
-365
-365
-367
-365
-365
-362
-361
-359
-362
-362
-364
-362
-361
-356
-356
-355
-356
-359
-361
-362
-358
-356
-353
-353
-356
-364
-365
-362
-356
-356
-352
-353
-358
-362
-362
-358
-356
-358
-361
-362
-362
-361
-358
-356
-356
-358
-364
-364
-364
-359
-356
-355
-356
-362
-368
-365
-364
-362
-361
-361
-361
-358
-358
-356
-358
-362
-361
-358
-356
-355
-355
-356
-352
-355
-355
-353
-349
-346
-347
-347
-349
-358
-362
-362
-358
-358
-361
-359
-362
-362
-364
-359
-359
-358
-356
-355
-355
-355
-356
-356
-356
-352
-344
-331
-308
-283
-256
-214
-155
-100
-70
-76
-125
-206
-271
-308
-329
-349
-365
-365
-362
-358
-356
-361
-359
-356
-355
-356
-361
-359
-359
-359
-359
-359
-359
-362
-364
-362
-359
-356
-355
-356
-365
-370
-365
-356
-349
-344
-344
-346
-344
-346
-344
-344
-343
-343
-343
-344
-346
-344
-340
-340
-335
-337
-340
-344
-340
-335
-329
-322
-320
-323
-320
-314
-308
-302
-298
-292
-289
-286
-286
-283
-280
-278
-280
-286
-296
-305
-313
-317
-320
-322
-323
-328
-332
-337
-347
-352
-352
-347
-343
-335
-334
-343
-349
-352
-352
-353
-349
-349
-350
-349
-349
-352
-359
-362
-356
-346
-340
-341
-344
-346
-349
-350
-347
-337
-328
-325
-331
-338
-341
-341
-343
-343
-343
-344
-346
-346
-346
-344
-343
-344
-344
-343
-343
-344
-347
-343
-343
-340
-343
-343
-343
-344
-344
-340
-340
-343
-347
-352
-353
-352
-349
-349
-349
-349
-349
-349
-349
-346
-343
-341
-341
-340
-341
-341
-341
-340
-337
-332
-329
-328
-328
-329
-329
-332
-335
-340
-341
-343
-343
-346
-343
-344
-344
-343
-349
-349
-352
-352
-352
-350
-350
-349
-349
-349
-349
-347
-338
-326
-307
-283
-260
-230
-182
-121
-73
-55
-79
-145
-220
-275
-305
-329
-344
-349
-343
-341
-343
-347
-352
-352
-352
-349
-347
-346
-347
-346
-349
-347
-344
-341
-338
-335
-340
-340
-341
-340
-338
-338
-335
-337
-338
-340
-340
-337
-335
-332
-332
-334
-337
-335
-334
-331
-329
-328
-328
-328
-328
-328
-328
-326
-323
-320
-316
-313
-311
-308
-308
-304
-299
-296
-293
-292
-287
-281
-280
-275
-274
-274
-274
-277
-283
-289
-293
-298
-302
-308
-313
-316
-322
-325
-326
-329
-331
-332
-337
-341
-346
-344
-344
-343
-343
-341
-343
-341
-343
-343
-341
-341
-343
-343
-346
-344
-344
-344
-343
-338
-340
-340
-341
-341
-341
-343
-340
-340
-338
-340
-341
-343
-343
-343
-340
-340
-340
-341
-343
-344
-346
-346
-346
-344
-344
-344
-347
-347
-347
-344
-343
-344
-347
-347
-347
-347
-346
-344
-346
-344
-344
-349
-346
-347
-347
-349
-350
-347
-349
-349
-349
-350
-349
-347
-346
-346
-346
-344
-346
-346
-346
-344
-343
-340
-338
-335
-335
-335
-335
-338
-340
-343
-344
-349
-350
-352
-352
-349
-350
-349
-352
-352
-356
-361
-356
-355
-352
-352
-356
-355
-358
-355
-352
-346
-335
-320
-301
-280
-257
-217
-157
-101
-71
-79
-133
-209
-271
-305
-329
-349
-358
-356
-355
-352
-356
-359
-362
-362
-361
-359
-358
-358
-359
-361
-358
-358
-355
-356
-356
-358
-359
-353
-350
-346
-347
-350
-352
-355
-355
-355
-353
-349
-349
-349
-352
-355
-353
-347
-343
-338
-335
-335
-338
-343
-347
-346
-344
-340
-335
-332
-334
-332
-329
-325
-319
-314
-310
-308
-307
-305
-302
-298
-290
-289
-287
-287
-290
-295
-301
-302
-307
-313
-319
-326
-332
-338
-344
-347
-344
-341
-343
-349
-355
-362
-364
-359
-358
-358
-359
-358
-359
-359
-361
-358
-359
-359
-361
-356
-358
-356
-356
-352
-352
-352
-355
-352
-358
-356
-353
-352
-350
-349
-349
-350
-355
-352
-352
-350
-350
-352
-352
-352
-352
-355
-356
-355
-352
-355
-355
-358
-362
-359
-361
-356
-356
-355
-356
-356
-356
-358
-356
-356
-355
-356
-356
-361
-362
-362
-359
-356
-355
-358
-358
-359
-361
-359
-359
-356
-358
-358
-358
-358
-359
-358
-356
-353
-350
-349
-350
-349
-346
-343
-343
-344
-349
-349
-356
-358
-358
-358
-358
-358
-361
-362
-365
-365
-361
-356
-356
-358
-361
-362
-361
-362
-356
-352
-350
-343
-328
-310
-292
-263
-215
-148
-88
-52
-62
-127
-212
-272
-311
-343
-367
-376
-371
-364
-361
-362
-362
-362
-361
-361
-364
-362
-365
-364
-361
-356
-355
-356
-358
-359
-361
-359
-356
-356
-352
-352
-355
-356
-358
-355
-352
-352
-350
-352
-352
-352
-353
-350
-349
-344
-344
-344
-346
-344
-343
-341
-340
-338
-338
-335
-334
-331
-326
-322
-317
-316
-314
-314
-311
-307
-302
-298
-293
-292
-289
-289
-293
-295
-296
-299
-302
-310
-320
-326
-331
-331
-338
-340
-341
-344
-349
-352
-355
-355
-355
-355
-355
-355
-355
-356
-355
-352
-350
-350
-352
-352
-355
-352
-352
-349
-349
-349
-350
-352
-352
-352
-352
-350
-350
-349
-349
-349
-353
-352
-350
-349
-350
-352
-349
-349
-349
-352
-350
-347
-346
-344
-344
-346
-349
-349
-350
-347
-343
-343
-344
-347
-349
-350
-349
-344
-343
-343
-344
-349
-349
-347
-346
-344
-347
-349
-349
-349
-349
-352
-352
-349
-347
-346
-349
-352
-352
-349
-347
-344
-344
-343
-343
-344
-344
-343
-341
-340
-338
-335
-334
-331
-334
-337
-338
-340
-341
-343
-344
-346
-344
-343
-343
-343
-344
-343
-347
-344
-347
-344
-346
-343
-343
-343
-341
-340
-332
-316
-295
-268
-239
-205
-152
-97
-58
-46
-68
-127
-203
-257
-292
-314
-328
-332
-334
-334
-337
-340
-341
-341
-340
-338
-335
-335
-340
-340
-343
-343
-340
-335
-332
-331
-334
-335
-335
-335
-334
-332
-331
-328
-331
-331
-332
-329
-328
-328
-328
-326
-326
-326
-328
-326
-323
-322
-320
-320
-320
-323
-322
-322
-316
-313
-311
-308
-307
-305
-305
-302
-293
-289
-286
-286
-283
-280
-275
-272
-271
-266
-266
-268
-272
-274
-281
-287
-290
-295
-299
-307
-313
-316
-320
-322
-323
-323
-323
-323
-326
-328
-328
-329
-329
-328
-329
-331
-334
-331
-329
-326
-325
-326
-326
-326
-326
-326
-323
-322
-320
-320
-320
-322
-323
-322
-319
-316
-314
-314
-314
-317
-316
-320
-320
-319
-316
-314
-317
-317
-320
-319
-317
-317
-317
-322
-323
-322
-320
-317
-316
-316
-316
-316
-317
-319
-320
-320
-317
-317
-320
-322
-323
-322
-320
-317
-319
-322
-320
-320
-320
-320
-320
-317
-313
-314
-314
-317
-317
-317
-320
-320
-322
-320
-317
-316
-316
-317
-316
-314
-313
-314
-314
-313
-310
-307
-307
-308
-310
-308
-308
-310
-314
-314
-316
-316
-314
-316
-317
-317
-317
-316
-314
-316
-317
-317
-317
-320
-320
-317
-314
-308
-308
-301
-292
-271
-244
-214
-173
-119
-68
-35
-29
-53
-113
-187
-241
-271
-292
-308
-316
-314
-313
-313
-313
-313
-316
-317
-317
-317
-316
-314
-313
-313
-313
-314
-316
-314
-310
-308
-310
-313
-311
-310
-311
-310
-308
-307
-305
-308
-310
-310
-307
-307
-302
-299
-301
-305
-307
-305
-302
-302
-301
-301
-299
-296
-298
-298
-295
-292
-286
-281
-284
-284
-284
-284
-280
-275
-271
-265
-262
-259
-257
-254
-251
-248
-254
-257
-263
-269
-274
-281
-287
-290
-293
-296
-301
-304
-307
-310
-313
-314
-314
-314
-317
-319
-320
-317
-314
-314
-316
-316
-316
-316
-316
-317
-316
-314
-313
-314
-316
-316
-316
-314
-313
-313
-313
-314
-317
-320
-320
-319
-316
-317
-317
-317
-317
-317
-320
-320
-319
-317
-320
-323
-323
-323
-323
-322
-320
-322
-323
-323
-323
-325
-326
-328
-326
-326
-329
-332
-332
-329
-329
-326
-326
-326
-326
-328
-328
-328
-329
-328
-328
-328
-325
-329
-331
-331
-329
-325
-326
-328
-331
-332
-334
-331
-328
-326
-326
-329
-335
-335
-334
-329
-328
-328
-328
-328
-329
-328
-325
-320
-317
-316
-316
-316
-322
-328
-334
-334
-331
-329
-329
-331
-335
-341
-343
-340
-335
-335
-334
-332
-338
-340
-338
-334
-331
-331
-328
-319
-302
-281
-259
-232
-190
-133
-82
-55
-62
-118
-197
-257
-290
-322
-349
-358
-355
-349
-344
-343
-346
-346
-347
-347
-344
-341
-335
-334
-335
-340
-341
-343
-343
-332
-329
-328
-332
-341
-349
-346
-343
-343
-338
-337
-332
-331
-334
-337
-335
-337
-335
-335
-335
-334
-331
-329
-332
-331
-329
-325
-322
-322
-322
-325
-320
-317
-311
-308
-308
-308
-307
-301
-296
-293
-287
-283
-281
-278
-277
-275
-277
-281
-286
-293
-301
-305
-310
-310
-314
-320
-325
-334
-338
-340
-338
-338
-340
-344
-346
-346
-347
-346
-349
-346
-346
-344
-347
-346
-347
-346
-343
-341
-340
-341
-340
-343
-343
-343
-340
-340
-340
-340
-340
-344
-346
-343
-341
-340
-340
-340
-343
-349
-352
-349
-344
-341
-343
-349
-353
-350
-346
-341
-343
-349
-353
-356
-353
-349
-349
-352
-358
-362
-362
-362
-359
-359
-361
-358
-356
-356
-358
-358
-359
-359
-365
-361
-361
-359
-359
-362
-358
-359
-358
-358
-358
-356
-359
-359
-362
-362
-359
-356
-356
-356
-358
-356
-356
-356
-355
-352
-352
-352
-355
-352
-349
-350
-355
-356
-358
-359
-362
-362
-362
-362
-362
-362
-365
-362
-365
-368
-370
-371
-365
-362
-362
-365
-365
-362
-352
-334
-314
-292
-268
-230
-170
-110
-68
-59
-89
-157
-236
-295
-328
-352
-370
-373
-370
-365
-370
-370
-373
-371
-371
-370
-368
-370
-370
-371
-371
-371
-371
-370
-370
-371
-371
-373
-371
-371
-371
-368
-365
-365
-368
-368
-370
-370
-368
-365
-365
-365
-370
-373
-373
-365
-361
-355
-359
-362
-362
-361
-358
-362
-361
-352
-349
-352
-352
-352
-347
-341
-335
-329
-325
-322
-319
-313
-307
-302
-301
-302
-305
-313
-320
-328
-335
-340
-347
-355
-359
-365
-370
-373
-376
-376
-379
-380
-385
-388
-392
-392
-392
-395
-397
-394
-394
-397
-395
-392
-392
-389
-391
-392
-392
-392
-394
-392
-391
-392
-389
-392
-392
-392
-394
-392
-394
-395
-397
-398
-394
-392
-394
-397
-403
-403
-400
-397
-395
-397
-398
-398
-398
-400
-400
-403
-406
-406
-406
-406
-406
-407
-404
-403
-403
-403
-403
-404
-403
-403
-406
-404
-406
-406
-406
-406
-407
-406
-406
-406
-406
-406
-406
-406
-406
-406
-407
-407
-407
-407
-409
-407
-406
-407
-407
-406
-407
-406
-406
-403
-404
-403
-403
-403
-400
-398
-397
-397
-394
-395
-394
-394
-397
-398
-401
-406
-406
-406
-407
-404
-404
-403
-404
-407
-407
-406
-407
-406
-406
-403
-401
-398
-398
-392
-382
-362
-335
-308
-278
-229
-175
-139
-131
-154
-211
-280
-332
-359
-382
-397
-404
-403
-400
-403
-406
-409
-412
-410
-407
-406
-404
-406
-407
-407
-407
-407
-403
-401
-400
-403
-407
-406
-406
-403
-400
-398
-400
-403
-401
-400
-398
-400
-397
-397
-400
-400
-401
-400
-400
-397
-397
-394
-395
-397
-397
-395
-394
-394
-392
-389
-389
-389
-386
-383
-383
-382
-379
-379
-373
-370
-365
-362
-361
-355
-353
-355
-359
-362
-365
-370
-376
-379
-382
-385
-389
-392
-398
-403
-406
-406
-407
-409
-410
-410
-412
-413
-415
-413
-415
-415
-415
-416
-415
-413
-412
-410
-410
-412
-413
-413
-410
-409
-406
-407
-412
-410
-410
-407
-407
-407
-407
-410
-410
-410
-410
-410
-410
-407
-407
-407
-410
-410
-412
-412
-410
-412
-413
-413
-413
-413
-415
-418
-418
-415
-413
-413
-413
-415
-415
-413
-412
-410
-413
-413
-413
-415
-418
-415
-415
-418
-421
-419
-415
-412
-410
-410
-409
-410
-413
-413
-413
-413
-413
-412
-412
-412
-412
-415
-413
-412
-410
-409
-407
-409
-412
-410
-407
-404
-400
-400
-401
-400
-397
-395
-397
-400
-403
-403
-406
-407
-412
-412
-410
-412
-410
-410
-412
-413
-415
-416
-413
-407
-404
-403
-406
-407
-406
-398
-386
-365
-344
-326
-302
-257
-202
-155
-137
-152
-211
-283
-335
-368
-397
-416
-421
-413
-409
-410
-413
-412
-413
-410
-410
-407
-406
-407
-406
-406
-406
-407
-410
-409
-410
-410
-406
-406
-406
-406
-406
-406
-406
-404
-403
-403
-400
-400
-398
-398
-403
-403
-401
-398
-397
-395
-394
-394
-392
-392
-392
-391
-389
-389
-386
-385
-385
-379
-377
-376
-371
-370
-365
-361
-359
-355
-350
-346
-343
-341
-340
-341
-344
-346
-347
-352
-356
-364
-370
-376
-383
-386
-389
-392
-397
-397
-397
-400
-403
-404
-406
-404
-403
-403
-403
-404
-404
-406
-406
-403
-400
-403
-400
-403
-404
-403
-403
-400
-397
-397
-398
-400
-400
-400
-398
-397
-397
-395
-397
-398
-398
-400
-400
-400
-400
-400
-401
-403
-401
-400
-400
-400
-400
-400
-401
-403
-404
-403
-401
-400
-400
-403
-403
-404
-400
-400
-400
-398
-400
-400
-400
-400
-400
-400
-400
-400
-400
-400
-400
-398
-397
-398
-398
-397
-400
-398
-401
-400
-398
-397
-395
-392
-392
-394
-397
-397
-397
-392
-391
-389
-388
-389
-386
-385
-385
-386
-389
-392
-397
-397
-398
-397
-397
-395
-395
-398
-398
-400
-398
-398
-398
-392
-394
-392
-395
-395
-394
-389
-376
-358
-335
-314
-287
-242
-181
-125
-100
-106
-155
-236
-304
-343
-368
-386
-397
-397
-392
-392
-397
-397
-397
-397
-397
-395
-395
-397
-397
-395
-392
-389
-391
-392
-394
-394
-392
-392
-392
-392
-389
-389
-392
-392
-389
-389
-389
-386
-383
-383
-385
-385
-385
-383
-380
-379
-379
-379
-382
-382
-382
-379
-376
-373
-370
-370
-370
-365
-362
-358
-353
-352
-347
-344
-343
-337
-331
-328
-322
-320
-320
-322
-323
-326
-331
-335
-341
-346
-353
-358
-362
-365
-368
-371
-373
-376
-379
-379
-382
-383
-385
-382
-382
-382
-383
-383
-382
-379
-379
-376
-376
-379
-379
-383
-379
-376
-374
-373
-376
-376
-376
-374
-373
-371
-371
-370
-368
-370
-370
-368
-365
-365
-367
-365
-368
-368
-368
-368
-367
-365
-365
-365
-368
-368
-368
-365
-368
-368
-365
-365
-368
-370
-370
-368
-370
-371
-365
-365
-365
-368
-371
-368
-368
-365
-365
-365
-365
-368
-367
-365
-365
-365
-362
-365
-365
-367
-365
-362
-361
-359
-359
-362
-362
-364
-364
-362
-361
-362
-359
-358
-356
-355
-352
-352
-352
-350
-350
-349
-352
-352
-355
-356
-361
-356
-356
-358
-358
-359
-359
-361
-358
-356
-358
-359
-361
-361
-359
-358
-355
-352
-352
-346
-334
-313
-289
-260
-229
-182
-133
-97
-85
-101
-154
-221
-278
-307
-328
-343
-350
-352
-352
-352
-355
-356
-361
-359
-358
-355
-353
-352
-352
-353
-356
-356
-356
-355
-352
-349
-349
-350
-352
-352
-352
-350
-349
-346
-346
-349
-349
-347
-346
-346
-344
-344
-344
-346
-347
-343
-341
-341
-338
-335
-337
-338
-340
-337
-334
-334
-331
-329
-329
-326
-323
-322
-320
-316
-311
-308
-305
-302
-296
-295
-292
-289
-289
-290
-293
-299
-305
-308
-313
-316
-317
-322
-328
-331
-335
-335
-340
-340
-340
-343
-344
-344
-344
-344
-344
-343
-343
-344
-347
-346
-344
-346
-343
-341
-341
-341
-340
-343
-341
-340
-338
-337
-338
-338
-338
-337
-337
-338
-337
-335
-337
-338
-340
-338
-337
-337
-338
-337
-335
-340
-340
-341
-341
-341
-340
-340
-341
-343
-344
-343
-343
-341
-340
-337
-341
-344
-343
-343
-340
-341
-340
-343
-343
-344
-344
-343
-344
-343
-341
-343
-344
-346
-344
-343
-341
-338
-340
-341
-343
-343
-344
-343
-343
-340
-340
-343
-343
-343
-341
-341
-340
-338
-338
-338
-338
-335
-335
-332
-329
-329
-329
-337
-341
-341
-343
-343
-341
-338
-340
-341
-343
-344
-344
-343
-340
-338
-341
-343
-343
-343
-343
-338
-334
-329
-317
-301
-278
-259
-229
-179
-121
-79
-67
-83
-145
-218
-266
-296
-322
-340
-347
-344
-340
-341
-341
-343
-343
-346
-343
-341
-341
-338
-337
-335
-335
-335
-338
-337
-337
-335
-332
-332
-335
-335
-335
-335
-334
-331
-331
-334
-335
-335
-334
-331
-329
-328
-326
-328
-331
-332
-331
-328
-328
-326
-320
-322
-323
-322
-320
-316
-314
-311
-307
-305
-305
-302
-299
-295
-289
-286
-281
-280
-281
-281
-280
-281
-283
-287
-293
-301
-305
-311
-316
-320
-323
-328
-334
-337
-340
-341
-341
-341
-341
-343
-344
-346
-349
-349
-350
-350
-346
-346
-343
-346
-346
-347
-349
-347
-346
-344
-346
-347
-347
-344
-346
-344
-343
-341
-341
-343
-341
-341
-343
-341
-341
-343
-343
-343
-343
-344
-343
-343
-344
-344
-347
-346
-344
-344
-344
-343
-346
-349
-350
-352
-347
-346
-346
-344
-349
-347
-350
-349
-347
-349
-347
-349
-350
-352
-352
-349
-349
-349
-347
-347
-349
-350
-347
-349
-349
-349
-346
-347
-349
-349
-347
-347
-344
-344
-344
-344
-343
-343
-341
-341
-340
-332
-334
-334
-335
-340
-340
-343
-344
-346
-346
-350
-349
-349
-349
-349
-350
-349
-349
-349
-349
-349
-352
-352
-350
-347
-346
-343
-335
-322
-302
-278
-254
-217
-158
-98
-61
-56
-100
-170
-242
-287
-319
-343
-356
-356
-352
-347
-350
-352
-356
-356
-356
-356
-352
-350
-349
-349
-350
-349
-349
-349
-349
-349
-346
-346
-347
-349
-349
-347
-347
-346
-347
-344
-346
-349
-347
-347
-346
-344
-343
-343
-343
-343
-343
-341
-340
-338
-338
-335
-332
-335
-335
-332
-329
-325
-325
-323
-320
-317
-316
-313
-308
-302
-301
-298
-296
-290
-289
-287
-289
-293
-299
-305
-311
-316
-320
-325
-328
-331
-338
-343
-344
-344
-344
-346
-349
-352
-355
-358
-358
-356
-358
-356
-358
-358
-358
-361
-356
-356
-356
-352
-352
-352
-355
-355
-352
-352
-349
-346
-346
-347
-349
-349
-350
-349
-349
-344
-344
-349
-349
-349
-347
-347
-347
-347
-349
-352
-352
-350
-349
-346
-346
-346
-347
-350
-353
-353
-352
-352
-352
-352
-353
-355
-356
-352
-349
-349
-352
-355
-356
-353
-350
-349
-349
-352
-355
-356
-356
-353
-352
-352
-352
-352
-352
-352
-352
-352
-352
-352
-352
-352
-355
-355
-352
-352
-350
-347
-344
-343
-344
-349
-346
-343
-341
-335
-335
-341
-346
-346
-346
-347
-346
-349
-355
-359
-362
-359
-356
-355
-352
-349
-349
-349
-350
-349
-344
-338
-326
-308
-287
-265
-235
-194
-140
-97
-73
-70
-106
-173
-251
-295
-319
-331
-344
-352
-352
-355
-358
-355
-358
-358
-355
-352
-349
-353
-356
-352
-352
-352
-350
-349
-355
-359
-362
-359
-355
-352
-349
-349
-352
-353
-352
-346
-344
-343
-346
-346
-350
-350
-349
-347
-346
-343
-343
-344
-346
-347
-346
-343
-335
-332
-335
-340
-341
-335
-335
-331
-326
-325
-325
-325
-323
-317
-313
-305
-302
-296
-296
-296
-299
-301
-304
-308
-313
-317
-323
-328
-332
-337
-341
-343
-344
-349
-352
-353
-355
-352
-352
-352
-352
-356
-359
-355
-355
-356
-358
-358
-355
-353
-353
-355
-356
-355
-352
-352
-352
-355
-352
-349
-347
-347
-349
-349
-352
-355
-356
-352
-352
-350
-349
-349
-352
-355
-356
-353
-352
-349
-349
-350
-353
-356
-355
-356
-355
-355
-355
-356
-356
-359
-356
-358
-358
-356
-358
-358
-361
-358
-356
-359
-358
-359
-358
-359
-359
-359
-361
-358
-356
-355
-355
-356
-358
-362
-364
-362
-361
-358
-358
-359
-361
-362
-362
-359
-356
-356
-355
-356
-356
-353
-352
-352
-349
-347
-349
-352
-358
-356
-356
-356
-358
-361
-359
-359
-361
-362
-362
-359
-361
-359
-361
-358
-359
-359
-361
-358
-356
-356
-352
-343
-328
-310
-287
-257
-208
-146
-100
-82
-110
-172
-241
-287
-317
-347
-364
-370
-362
-356
-361
-362
-365
-368
-365
-365
-364
-362
-361
-359
-361
-362
-362
-359
-358
-356
-356
-355
-355
-353
-356
-358
-356
-356
-356
-358
-358
-359
-356
-352
-349
-349
-355
-356
-355
-352
-350
-349
-346
-346
-347
-346
-350
-346
-344
-343
-335
-331
-332
-332
-332
-331
-325
-317
-313
-311
-308
-305
-302
-299
-296
-299
-302
-308
-313
-317
-325
-331
-335
-340
-347
-352
-355
-356
-358
-356
-355
-356
-364
-365
-365
-364
-362
-362
-365
-362
-365
-365
-365
-368
-364
-359
-358
-359
-364
-365
-362
-359
-359
-359
-359
-358
-361
-358
-356
-356
-356
-355
-355
-356
-356
-358
-358
-356
-355
-352
-355
-356
-356
-356
-356
-358
-358
-359
-361
-358
-359
-358
-356
-356
-356
-362
-359
-362
-361
-361
-361
-358
-356
-356
-358
-359
-361
-359
-361
-359
-359
-359
-362
-362
-361
-362
-361
-359
-358
-359
-362
-362
-361
-359
-359
-358
-361
-359
-359
-358
-356
-353
-352
-352
-355
-353
-352
-352
-350
-352
-353
-358
-364
-362
-362
-362
-361
-359
-359
-361
-364
-364
-364
-362
-361
-359
-358
-358
-361
-359
-355
-349
-334
-314
-290
-265
-226
-166
-107
-74
-68
-107
-187
-259
-305
-334
-356
-365
-364
-362
-359
-362
-362
-365
-370
-365
-364
-364
-365
-365
-365
-364
-364
-362
-361
-359
-361
-362
-361
-361
-358
-356
-356
-358
-356
-356
-356
-356
-356
-355
-355
-356
-356
-355
-352
-352
-352
-352
-352
-352
-352
-349
-350
-346
-343
-340
-335
-338
-335
-331
-331
-326
-325
-319
-317
-313
-310
-305
-302
-301
-299
-299
-301
-305
-307
-311
-316
-319
-325
-331
-337
-343
-344
-349
-350
-352
-355
-356
-358
-358
-358
-358
-358
-358
-362
-362
-362
-362
-364
-358
-358
-356
-359
-364
-361
-358
-358
-358
-358
-356
-356
-356
-356
-356
-355
-352
-352
-352
-353
-355
-355
-355
-355
-352
-353
-353
-355
-355
-355
-355
-355
-355
-356
-356
-358
-358
-358
-358
-358
-358
-361
-356
-358
-356
-358
-359
-355
-355
-358
-359
-359
-358
-359
-358
-359
-361
-361
-362
-364
-362
-364
-358
-356
-356
-356
-358
-359
-358
-356
-356
-355
-355
-359
-358
-356
-356
-353
-353
-355
-356
-355
-353
-352
-352
-349
-346
-346
-349
-347
-350
-352
-355
-356
-356
-356
-356
-356
-358
-358
-356
-355
-356
-358
-358
-356
-355
-355
-352
-352
-356
-355
-344
-326
-302
-277
-250
-208
-154
-107
-88
-92
-133
-200
-260
-302
-325
-343
-352
-356
-359
-356
-356
-358
-362
-365
-362
-362
-359
-358
-358
-358
-359
-361
-359
-356
-353
-352
-355
-359
-362
-361
-358
-356
-353
-352
-356
-359
-358
-356
-356
-355
-353
-352
-352
-353
-355
-355
-355
-352
-350
-352
-355
-352
-349
-347
-346
-347
-341
-341
-343
-338
-335
-332
-329
-326
-319
-317
-316
-313
-310
-305
-305
-305
-308
-314
-317
-323
-328
-332
-338
-341
-346
-349
-352
-352
-355
-356
-356
-356
-361
-364
-365
-365
-364
-364
-362
-362
-365
-368
-365
-365
-365
-362
-364
-362
-362
-361
-359
-361
-362
-359
-359
-359
-361
-359
-359
-359
-358
-358
-358
-359
-358
-359
-356
-355
-356
-358
-359
-361
-364
-365
-364
-359
-358
-361
-364
-365
-367
-364
-364
-365
-362
-365
-365
-365
-365
-364
-362
-364
-364
-365
-365
-365
-367
-368
-370
-367
-365
-367
-365
-367
-365
-365
-365
-365
-365
-365
-365
-364
-364
-362
-362
-365
-365
-367
-365
-365
-362
-362
-362
-362
-364
-365
-362
-359
-355
-352
-352
-355
-358
-361
-362
-365
-364
-362
-362
-365
-368
-370
-368
-370
-368
-365
-365
-365
-368
-367
-365
-362
-358
-356
-349
-337
-317
-296
-274
-233
-170
-115
-88
-92
-145
-221
-280
-316
-343
-367
-379
-374
-370
-367
-365
-365
-365
-368
-368
-368
-368
-365
-365
-364
-365
-365
-365
-362
-362
-361
-359
-358
-361
-364
-365
-362
-359
-356
-355
-356
-358
-359
-358
-356
-355
-355
-352
-350
-352
-352
-352
-349
-347
-347
-347
-343
-341
-341
-338
-332
-335
-331
-328
-326
-323
-320
-316
-311
-307
-301
-298
-295
-293
-290
-293
-295
-296
-299
-305
-313
-320
-326
-332
-337
-340
-343
-349
-350
-353
-355
-356
-356
-356
-359
-362
-362
-362
-362
-362
-359
-361
-362
-362
-361
-361
-358
-359
-356
-355
-356
-358
-358
-356
-352
-352
-347
-349
-349
-352
-352
-352
-350
-350
-349
-347
-349
-349
-349
-350
-346
-346
-346
-344
-349
-349
-349
-349
-350
-349
-349
-349
-352
-352
-352
-350
-349
-346
-346
-350
-350
-349
-350
-347
-349
-347
-346
-347
-349
-349
-347
-347
-344
-344
-346
-347
-349
-349
-347
-344
-343
-343
-346
-346
-346
-346
-346
-344
-340
-341
-341
-343
-343
-340
-340
-334
-329
-331
-331
-331
-331
-331
-337
-337
-340
-340
-343
-343
-343
-341
-343
-343
-341
-341
-343
-343
-341
-340
-340
-340
-338
-338
-337
-331
-322
-304
-280
-253
-224
-178
-118
-65
-43
-55
-100
-176
-244
-284
-313
-329
-337
-338
-335
-332
-340
-343
-343
-343
-343
-340
-340
-340
-340
-340
-340
-337
-337
-334
-334
-335
-337
-338
-335
-334
-334
-331
-332
-332
-332
-332
-332
-329
-329
-331
-331
-329
-329
-328
-326
-325
-323
-322
-325
-325
-323
-319
-319
-317
-316
-313
-308
-308
-307
-305
-302
-298
-293
-292
-289
-286
-281
-275
-272
-271
-271
-274
-277
-281
-287
-292
-296
-302
-307
-310
-317
-322
-325
-326
-328
-328
-331
-335
-335
-335
-335
-335
-334
-329
-335
-337
-338
-337
-332
-334
-334
-331
-332
-332
-334
-334
-334
-332
-331
-329
-329
-329
-329
-329
-328
-326
-325
-326
-328
-328
-328
-326
-326
-326
-325
-326
-329
-329
-329
-329
-329
-329
-329
-331
-332
-331
-329
-329
-329
-329
-328
-332
-332
-332
-331
-328
-329
-328
-331
-332
-332
-331
-331
-331
-329
-329
-334
-332
-332
-331
-332
-331
-329
-329
-331
-332
-332
-331
-331
-332
-331
-331
-331
-331
-329
-331
-329
-328
-328
-328
-329
-328
-323
-326
-323
-322
-317
-317
-323
-328
-329
-331
-331
-331
-332
-332
-334
-332
-335
-335
-335
-334
-332
-334
-335
-335
-335
-332
-331
-329
-326
-317
-305
-281
-259
-232
-197
-143
-94
-70
-68
-101
-163
-226
-266
-292
-313
-328
-332
-331
-337
-337
-337
-337
-338
-341
-340
-340
-340
-335
-335
-337
-338
-340
-338
-335
-335
-334
-334
-335
-337
-335
-335
-335
-335
-334
-332
-335
-335
-335
-335
-335
-332
-331
-334
-332
-332
-331
-329
-331
-329
-326
-328
-328
-326
-325
-320
-319
-316
-314
-314
-310
-308
-305
-301
-295
-290
-287
-286
-284
-283
-281
-281
-281
-284
-292
-298
-304
-310
-314
-317
-320
-323
-325
-329
-331
-332
-335
-335
-337
-337
-338
-341
-344
-343
-341
-341
-340
-337
-343
-343
-344
-344
-343
-341
-341
-343
-343
-343
-343
-340
-340
-338
-340
-340
-340
-341
-340
-340
-338
-338
-340
-343
-341
-341
-343
-341
-341
-340
-341
-346
-346
-347
-346
-346
-346
-344
-344
-347
-349
-352
-347
-349
-346
-347
-349
-349
-352
-355
-352
-352
-349
-350
-352
-352
-352
-352
-352
-352
-350
-352
-350
-352
-350
-349
-349
-349
-350
-352
-355
-353
-352
-350
-352
-352
-352
-356
-356
-356
-352
-352
-350
-352
-349
-349
-349
-349
-349
-343
-340
-341
-343
-349
-352
-355
-356
-356
-356
-353
-352
-355
-356
-356
-356
-356
-355
-355
-355
-356
-356
-355
-353
-350
-346
-338
-328
-310
-287
-265
-227
-169
-110
-73
-68
-104
-176
-248
-292
-320
-347
-359
-365
-362
-358
-358
-358
-361
-359
-361
-362
-361
-362
-361
-358
-353
-352
-352
-355
-356
-356
-356
-355
-352
-353
-352
-352
-355
-353
-356
-352
-352
-352
-355
-355
-352
-353
-352
-352
-352
-352
-352
-352
-350
-350
-349
-347
-347
-344
-343
-341
-343
-340
-337
-332
-329
-326
-326
-322
-317
-314
-311
-308
-302
-301
-299
-296
-299
-301
-305
-307
-313
-319
-328
-335
-341
-344
-347
-349
-355
-358
-361
-361
-362
-365
-364
-362
-365
-367
-371
-370
-370
-370
-367
-367
-368
-368
-368
-368
-367
-365
-365
-365
-365
-365
-364
-362
-362
-362
-362
-362
-362
-362
-362
-359
-361
-362
-362
-362
-364
-367
-367
-365
-365
-361
-361
-365
-365
-368
-368
-365
-365
-362
-365
-368
-368
-367
-367
-365
-365
-364
-367
-368
-368
-365
-367
-365
-364
-364
-365
-365
-365
-364
-364
-362
-361
-362
-365
-365
-367
-365
-365
-364
-362
-362
-365
-365
-365
-365
-365
-364
-362
-362
-364
-361
-359
-358
-356
-352
-349
-352
-356
-361
-365
-365
-364
-365
-367
-365
-368
-370
-370
-365
-364
-364
-365
-370
-370
-368
-365
-364
-362
-358
-358
-350
-335
-313
-287
-259
-212
-151
-95
-70
-85
-148
-229
-287
-323
-352
-368
-373
-368
-365
-367
-368
-370
-370
-371
-370
-368
-368
-365
-365
-365
-365
-367
-367
-365
-365
-364
-362
-361
-362
-362
-362
-362
-362
-365
-361
-359
-361
-362
-362
-362
-359
-356
-355
-356
-356
-356
-355
-355
-356
-352
-352
-350
-349
-350
-346
-344
-343
-338
-334
-335
-332
-329
-325
-322
-316
-311
-308
-305
-302
-299
-299
-302
-302
-310
-316
-323
-329
-332
-338
-341
-344
-349
-352
-356
-359
-359
-361
-362
-362
-362
-367
-365
-365
-365
-368
-370
-365
-365
-365
-368
-368
-367
-365
-364
-362
-365
-365
-365
-365
-362
-359
-361
-361
-362
-362
-361
-362
-362
-359
-359
-359
-362
-362
-364
-362
-361
-361
-362
-362
-365
-364
-362
-365
-365
-367
-365
-365
-371
-370
-370
-370
-370
-370
-370
-370
-370
-370
-370
-370
-368
-367
-368
-368
-367
-365
-368
-368
-368
-368
-370
-370
-371
-370
-370
-371
-368
-365
-368
-368
-370
-370
-368
-365
-362
-362
-364
-365
-364
-362
-362
-358
-356
-356
-356
-356
-356
-358
-359
-362
-365
-368
-368
-368
-368
-370
-370
-367
-367
-368
-370
-370
-368
-365
-365
-365
-362
-364
-362
-359
-352
-338
-316
-287
-260
-218
-160
-107
-77
-82
-125
-194
-260
-301
-328
-347
-359
-365
-362
-362
-365
-370
-371
-371
-371
-370
-368
-370
-370
-370
-370
-370
-368
-367
-365
-365
-365
-365
-365
-365
-365
-362
-361
-362
-364
-362
-362
-362
-361
-361
-359
-361
-361
-362
-362
-358
-358
-356
-356
-358
-356
-355
-353
-352
-352
-347
-346
-344
-344
-341
-338
-332
-329
-326
-323
-322
-320
-314
-310
-305
-302
-305
-308
-308
-314
-316
-322
-328
-331
-340
-346
-352
-352
-355
-356
-356
-356
-359
-364
-365
-367
-368
-365
-365
-364
-365
-370
-368
-367
-367
-365
-362
-362
-362
-362
-365
-364
-362
-359
-358
-358
-359
-361
-358
-358
-356
-355
-355
-356
-358
-359
-359
-358
-358
-356
-356
-356
-358
-358
-358
-361
-358
-358
-359
-361
-361
-362
-362
-361
-358
-358
-358
-361
-364
-362
-362
-361
-359
-359
-362
-362
-362
-362
-362
-362
-359
-359
-362
-364
-362
-362
-361
-361
-358
-359
-362
-361
-362
-362
-362
-359
-358
-358
-359
-362
-365
-364
-362
-359
-358
-361
-359
-361
-359
-358
-356
-352
-352
-352
-352
-356
-356
-362
-364
-364
-365
-365
-365
-365
-365
-365
-365
-365
-364
-365
-368
-368
-368
-368
-365
-364
-362
-356
-349
-335
-314
-290
-266
-232
-179
-127
-92
-83
-110
-172
-242
-290
-317
-341
-358
-365
-365
-365
-365
-365
-365
-370
-371
-371
-370
-370
-365
-365
-367
-365
-365
-367
-367
-367
-365
-365
-367
-367
-365
-364
-364
-364
-362
-361
-362
-364
-365
-362
-364
-362
-359
-361
-361
-362
-362
-358
-356
-355
-356
-359
-359
-358
-355
-350
-349
-346
-344
-344
-343
-340
-332
-329
-326
-323
-319
-316
-310
-308
-304
-307
-305
-307
-310
-314
-319
-325
-328
-334
-338
-343
-349
-352
-356
-356
-358
-358
-362
-362
-365
-368
-370
-370
-368
-368
-365
-365
-368
-368
-365
-365
-365
-365
-365
-367
-365
-365
-362
-361
-359
-356
-358
-358
-362
-362
-365
-365
-362
-361
-361
-361
-359
-359
-358
-358
-358
-358
-358
-362
-365
-362
-362
-361
-358
-361
-361
-362
-364
-362
-364
-362
-364
-362
-364
-365
-365
-365
-364
-365
-364
-364
-362
-362
-362
-364
-365
-364
-362
-361
-361
-364
-362
-362
-362
-359
-359
-361
-362
-362
-361
-361
-362
-361
-358
-359
-362
-362
-358
-356
-355
-352
-350
-347
-346
-346
-346
-349
-349
-350
-353
-356
-358
-359
-358
-356
-355
-355
-356
-356
-358
-358
-358
-356
-358
-355
-355
-355
-352
-347
-337
-320
-296
-275
-248
-197
-131
-76
-52
-68
-136
-218
-278
-319
-353
-370
-371
-364
-356
-358
-361
-362
-362
-359
-358
-358
-358
-356
-358
-358
-358
-359
-358
-355
-353
-355
-356
-358
-356
-355
-352
-352
-350
-352
-352
-352
-349
-349
-346
-346
-349
-352
-349
-347
-344
-343
-340
-340
-341
-341
-340
-337
-337
-334
-331
-329
-328
-328
-326
-320
-316
-313
-307
-305
-304
-301
-299
-293
-290
-287
-284
-287
-293
-298
-301
-305
-311
-314
-319
-326
-332
-335
-338
-340
-343
-344
-346
-347
-355
-355
-355
-352
-353
-353
-352
-352
-352
-355
-353
-353
-349
-349
-349
-352
-352
-352
-350
-349
-349
-346
-349
-347
-349
-347
-347
-347
-347
-344
-346
-347
-349
-349
-349
-347
-346
-347
-344
-349
-349
-349
-352
-349
-349
-346
-349
-352
-349
-349
-349
-347
-347
-346
-349
-349
-349
-350
-349
-347
-349
-349
-349
-349
-349
-349
-347
-347
-349
-349
-352
-349
-349
-349
-349
-347
-346
-349
-352
-352
-349
-349
-344
-347
-350
-349
-349
-346
-344
-346
-343
-343
-343
-343
-343
-341
-338
-338
-335
-337
-340
-344
-349
-349
-350
-349
-346
-346
-349
-349
-352
-349
-349
-350
-347
-347
-349
-349
-349
-347
-344
-340
-328
-310
-287
-263
-232
-187
-128
-80
-56
-62
-106
-176
-242
-280
-304
-325
-335
-343
-343
-346
-349
-350
-352
-349
-349
-350
-352
-352
-349
-349
-349
-349
-347
-349
-349
-349
-349
-347
-347
-344
-344
-346
-349
-349
-347
-346
-343
-343
-343
-344
-344
-346
-343
-343
-343
-340
-335
-340
-340
-340
-335
-335
-334
-332
-332
-331
-329
-329
-326
-322
-317
-316
-316
-314
-311
-307
-301
-295
-292
-289
-287
-287
-289
-289
-292
-296
-299
-305
-313
-317
-323
-328
-329
-329
-334
-337
-340
-343
-347
-344
-346
-346
-343
-344
-349
-352
-352
-350
-349
-347
-346
-346
-347
-346
-346
-346
-344
-344
-344
-346
-344
-344
-343
-343
-340
-340
-340
-341
-343
-344
-346
-346
-344
-341
-343
-343
-344
-346
-344
-344
-346
-343
-344
-347
-349
-349
-349
-349
-346
-347
-349
-349
-349
-349
-349
-350
-349
-350
-350
-352
-352
-352
-352
-350
-349
-349
-350
-352
-352
-353
-352
-350
-349
-349
-352
-353
-352
-352
-353
-352
-350
-352
-355
-352
-352
-352
-352
-352
-349
-349
-349
-349
-347
-346
-344
-343
-341
-341
-344
-347
-349
-353
-353
-352
-352
-352
-355
-356
-356
-356
-355
-352
-355
-356
-356
-358
-356
-356
-356
-355
-350
-349
-340
-326
-301
-280
-253
-211
-155
-106
-85
-88
-128
-194
-251
-290
-319
-343
-355
-358
-358
-358
-358
-358
-359
-362
-365
-364
-362
-364
-362
-362
-361
-361
-358
-358
-362
-361
-359
-358
-359
-362
-362
-364
-362
-361
-358
-358
-359
-362
-362
-364
-362
-361
-358
-359
-362
-361
-358
-356
-356
-358
-359
-361
-359
-358
-358
-356
-355
-352
-349
-349
-349
-347
-346
-344
-340
-335
-329
-328
-322
-320
-317
-314
-314
-314
-317
-323
-329
-335
-343
-346
-347
-352
-355
-359
-365
-370
-373
-371
-371
-370
-371
-373
-376
-374
-376
-377
-376
-377
-376
-379
-376
-377
-376
-377
-376
-374
-374
-376
-376
-373
-373
-371
-371
-371
-373
-373
-371
-371
-371
-370
-368
-370
-371
-373
-373
-374
-376
-373
-376
-371
-373
-373
-373
-371
-370
-371
-373
-373
-376
-376
-377
-376
-376
-373
-371
-373
-376
-377
-376
-374
-376
-376
-376
-376
-376
-377
-379
-380
-379
-377
-371
-371
-373
-377
-379
-380
-379
-377
-376
-376
-379
-376
-376
-377
-377
-379
-376
-376
-376
-376
-376
-370
-365
-361
-362
-365
-370
-371
-373
-376
-376
-373
-373
-377
-379
-377
-376
-376
-376
-373
-374
-377
-376
-376
-376
-374
-371
-370
-368
-362
-349
-329
-307
-287
-247
-185
-127
-89
-89
-133
-205
-266
-304
-335
-365
-383
-385
-379
-376
-374
-376
-377
-379
-382
-382
-382
-382
-379
-376
-376
-379
-379
-379
-379
-379
-377
-376
-376
-376
-377
-376
-374
-376
-374
-371
-371
-373
-373
-376
-376
-371
-370
-370
-368
-371
-371
-370
-370
-368
-368
-365
-367
-365
-365
-365
-362
-359
-356
-352
-353
-352
-350
-344
-340
-335
-334
-329
-328
-328
-325
-322
-320
-322
-323
-326
-331
-337
-344
-349
-353
-358
-361
-362
-365
-368
-373
-376
-377
-377
-376
-377
-382
-383
-385
-383
-383
-383
-382
-380
-382
-383
-382
-382
-380
-379
-376
-376
-379
-379
-377
-377
-377
-376
-374
-376
-379
-379
-379
-376
-377
-376
-376
-379
-382
-379
-380
-377
-376
-374
-373
-376
-379
-382
-382
-383
-379
-379
-377
-379
-383
-385
-383
-382
-382
-379
-379
-379
-380
-379
-379
-382
-382
-379
-379
-379
-383
-383
-382
-382
-379
-376
-377
-379
-382
-382
-380
-382
-379
-379
-379
-382
-379
-379
-379
-376
-376
-373
-373
-376
-376
-376
-371
-368
-365
-368
-371
-373
-377
-379
-379
-379
-379
-379
-379
-382
-382
-380
-379
-379
-379
-379
-380
-379
-377
-376
-373
-371
-365
-355
-335
-313
-289
-259
-215
-158
-115
-98
-106
-149
-215
-271
-302
-325
-344
-361
-370
-373
-377
-376
-376
-377
-377
-379
-382
-382
-382
-379
-379
-377
-377
-379
-379
-379
-379
-379
-379
-376
-374
-376
-376
-377
-376
-376
-376
-377
-376
-376
-374
-373
-376
-373
-371
-371
-371
-373
-370
-370
-371
-373
-371
-370
-370
-371
-371
-370
-368
-365
-362
-359
-359
-356
-355
-352
-350
-343
-337
-332
-329
-328
-326
-326
-326
-328
-331
-337
-343
-347
-352
-356
-359
-362
-370
-370
-373
-373
-377
-379
-379
-379
-379
-382
-382
-379
-379
-382
-382
-379
-379
-379
-379
-379
-379
-379
-379
-376
-376
-377
-377
-376
-376
-376
-373
-373
-371
-373
-374
-373
-373
-373
-371
-370
-373
-377
-380
-376
-376
-373
-373
-376
-377
-377
-377
-376
-374
-371
-373
-371
-374
-376
-376
-374
-373
-376
-374
-376
-376
-377
-374
-374
-373
-371
-371
-373
-373
-373
-374
-373
-371
-370
-370
-371
-373
-373
-373
-371
-370
-370
-370
-370
-371
-376
-371
-371
-370
-368
-370
-370
-371
-370
-368
-368
-365
-362
-364
-365
-367
-365
-362
-362
-362
-365
-370
-371
-373
-376
-376
-373
-373
-370
-370
-371
-373
-374
-376
-376
-373
-373
-373
-373
-371
-367
-356
-344
-325
-302
-281
-248
-197
-149
-118
-107
-127
-181
-241
-283
-311
-337
-356
-362
-365
-370
-374
-376
-376
-376
-376
-376
-373
-376
-376
-376
-376
-373
-373
-373
-374
-376
-379
-377
-376
-376
-373
-371
-370
-373
-373
-373
-373
-373
-376
-373
-373
-371
-373
-373
-373
-371
-371
-370
-370
-368
-370
-370
-370
-370
-370
-365
-365
-367
-365
-364
-359
-356
-355
-349
-349
-349
-343
-338
-335
-331
-328
-323
-325
-326
-326
-328
-329
-332
-335
-340
-346
-347
-352
-355
-358
-362
-361
-359
-361
-362
-365
-365
-368
-368
-368
-365
-367
-368
-368
-370
-368
-368
-365
-365
-365
-367
-367
-365
-364
-362
-361
-361
-361
-359
-358
-358
-358
-356
-356
-358
-361
-361
-362
-359
-358
-356
-356
-361
-358
-359
-358
-358
-361
-356
-355
-356
-356
-356
-356
-358
-358
-358
-356
-356
-358
-358
-358
-358
-356
-355
-355
-356
-356
-356
-356
-356
-355
-352
-352
-356
-358
-358
-356
-356
-356
-355
-353
-356
-359
-362
-356
-355
-350
-352
-353
-352
-352
-353
-352
-349
-349
-346
-346
-343
-341
-338
-338
-341
-344
-349
-352
-352
-353
-350
-350
-352
-350
-349
-352
-355
-356
-355
-355
-352
-352
-349
-349
-347
-344
-341
-328
-307
-287
-268
-242
-193
-128
-82
-61
-86
-154
-221
-266
-302
-338
-358
-362
-356
-350
-352
-353
-352
-352
-352
-352
-352
-353
-352
-353
-352
-352
-349
-347
-343
-343
-344
-346
-346
-347
-346
-346
-344
-343
-347
-344
-344
-343
-341
-337
-340
-341
-341
-340
-338
-337
-337
-335
-332
-332
-335
-335
-335
-334
-332
-329
-326
-325
-322
-322
-319
-316
-314
-308
-305
-302
-301
-296
-292
-292
-287
-284
-281
-284
-289
-295
-296
-305
-308
-313
-320
-325
-329
-331
-332
-337
-335
-340
-343
-344
-346
-349
-347
-347
-344
-344
-344
-344
-343
-343
-343
-341
-340
-340
-341
-343
-343
-343
-341
-340
-340
-337
-337
-338
-338
-341
-343
-341
-337
-337
-338
-341
-341
-340
-340
-340
-340
-340
-344
-341
-341
-343
-341
-338
-340
-338
-340
-340
-338
-340
-340
-340
-338
-340
-340
-340
-340
-340
-338
-335
-334
-338
-341
-343
-343
-341
-340
-338
-338
-340
-341
-341
-340
-341
-338
-334
-334
-335
-335
-334
-331
-332
-329
-328
-326
-322
-319
-320
-322
-323
-323
-328
-329
-334
-335
-335
-335
-335
-334
-331
-334
-335
-335
-338
-337
-337
-332
-332
-332
-332
-332
-331
-328
-320
-307
-287
-268
-244
-211
-154
-91
-44
-23
-44
-112
-187
-238
-275
-308
-329
-335
-331
-329
-329
-332
-332
-331
-329
-329
-329
-329
-329
-331
-329
-329
-329
-328
-328
-328
-329
-329
-328
-326
-323
-323
-326
-326
-326
-322
-320
-319
-319
-320
-320
-316
-320
-319
-320
-317
-314
-316
-316
-317
-316
-316
-314
-310
-310
-308
-307
-305
-302
-301
-298
-296
-292
-287
-287
-284
-281
-277
-274
-271
-266
-265
-265
-268
-268
-274
-278
-281
-287
-293
-299
-305
-308
-308
-314
-314
-316
-317
-317
-320
-322
-322
-320
-317
-320
-325
-329
-329
-326
-326
-328
-329
-329
-331
-331
-331
-329
-328
-328
-325
-323
-326
-328
-326
-323
-323
-323
-320
-322
-323
-325
-323
-323
-322
-320
-322
-323
-326
-328
-325
-322
-325
-325
-326
-326
-323
-328
-328
-326
-326
-328
-328
-329
-331
-329
-328
-328
-326
-326
-328
-329
-329
-329
-329
-331
-329
-328
-328
-329
-331
-331
-329
-329
-329
-329
-329
-328
-326
-326
-326
-326
-322
-314
-316
-314
-314
-314
-313
-316
-316
-316
-319
-322
-323
-323
-326
-326
-328
-328
-329
-329
-331
-334
-331
-331
-329
-328
-328
-329
-331
-329
-325
-316
-298
-275
-251
-223
-170
-104
-56
-34
-61
-134
-209
-259
-293
-320
-338
-338
-329
-331
-331
-334
-335
-335
-335
-335
-335
-337
-334
-334
-332
-334
-331
-329
-331
-332
-334
-335
-332
-331
-329
-331
-331
-334
-331
-329
-328
-328
-328
-326
-328
-328
-328
-329
-329
-328
-325
-322
-325
-326
-322
-323
-320
-317
-314
-313
-314
-314
-313
-310
-305
-302
-296
-295
-292
-289
-287
-284
-278
-275
-272
-271
-272
-274
-278
-283
-287
-292
-295
-304
-310
-314
-320
-322
-325
-326
-328
-329
-334
-335
-337
-337
-331
-335
-335
-335
-335
-337
-337
-337
-337
-335
-337
-335
-335
-337
-335
-334
-335
-334
-332
-332
-334
-332
-332
-332
-331
-331
-329
-331
-331
-331
-332
-329
-329
-331
-331
-335
-335
-335
-335
-335
-334
-334
-334
-338
-338
-340
-337
-334
-335
-337
-338
-340
-335
-338
-338
-338
-338
-338
-340
-341
-341
-338
-335
-334
-332
-335
-335
-337
-335
-334
-329
-328
-323
-322
-323
-326
-329
-331
-331
-334
-335
-338
-341
-340
-338
-340
-341
-341
-343
-340
-346
-344
-346
-346
-349
-343
-341
-343
-343
-340
-332
-320
-301
-278
-254
-226
-181
-124
-82
-62
-74
-118
-188
-251
-292
-314
-332
-343
-343
-341
-344
-347
-352
-353
-352
-352
-349
-349
-349
-350
-350
-355
-352
-352
-350
-349
-352
-349
-349
-349
-350
-352
-352
-350
-350
-350
-352
-349
-349
-349
-346
-344
-346
-347
-346
-347
-347
-344
-343
-343
-343
-343
-344
-347
-343
-340
-335
-335
-335
-332
-329
-328
-325
-320
-316
-316
-313
-307
-299
-296
-295
-293
-295
-296
-302
-307
-310
-314
-319
-323
-329
-335
-338
-343
-344
-346
-346
-346
-349
-352
-355
-356
-355
-356
-358
-356
-356
-358
-358
-359
-358
-358
-356
-356
-356
-358
-356
-356
-356
-355
-356
-352
-355
-353
-355
-356
-353
-352
-349
-350
-352
-353
-352
-347
-349
-350
-349
-349
-353
-356
-355
-353
-355
-355
-355
-356
-358
-359
-359
-359
-358
-356
-356
-358
-358
-359
-359
-359
-358
-356
-356
-361
-362
-361
-358
-358
-355
-353
-350
-353
-356
-355
-355
-352
-349
-344
-344
-346
-349
-349
-352
-353
-355
-358
-359
-359
-359
-362
-362
-364
-364
-365
-365
-368
-370
-370
-368
-365
-364
-361
-362
-361
-356
-346
-329
-307
-281
-253
-209
-152
-107
-91
-100
-142
-208
-269
-308
-337
-356
-365
-365
-365
-365
-368
-370
-370
-371
-371
-373
-371
-370
-370
-371
-371
-373
-371
-370
-370
-371
-371
-373
-373
-373
-373
-370
-370
-368
-368
-370
-370
-368
-371
-367
-365
-365
-365
-368
-365
-368
-368
-367
-365
-362
-362
-365
-365
-362
-361
-359
-358
-356
-356
-352
-349
-346
-344
-341
-334
-329
-326
-323
-320
-316
-316
-314
-316
-322
-328
-332
-337
-340
-344
-349
-356
-359
-365
-365
-365
-370
-370
-368
-368
-370
-376
-376
-377
-376
-376
-376
-374
-376
-376
-376
-376
-376
-376
-374
-373
-373
-373
-373
-371
-371
-370
-370
-371
-371
-371
-370
-370
-370
-370
-365
-365
-370
-371
-371
-370
-370
-368
-370
-370
-370
-371
-373
-376
-373
-371
-371
-373
-376
-376
-376
-374
-376
-376
-376
-379
-379
-379
-376
-376
-376
-376
-379
-379
-382
-380
-379
-379
-376
-371
-370
-370
-371
-373
-371
-368
-365
-362
-361
-364
-368
-365
-365
-365
-368
-371
-370
-373
-376
-376
-379
-379
-379
-379
-379
-383
-385
-385
-385
-380
-376
-373
-374
-376
-374
-370
-359
-343
-322
-296
-271
-230
-176
-127
-107
-116
-157
-226
-281
-320
-344
-364
-376
-376
-373
-373
-379
-385
-383
-385
-385
-386
-385
-383
-382
-383
-385
-385
-385
-383
-379
-379
-379
-382
-382
-382
-383
-382
-379
-379
-379
-382
-382
-382
-382
-380
-377
-379
-379
-379
-379
-379
-379
-377
-376
-376
-376
-374
-376
-376
-371
-368
-365
-365
-368
-362
-361
-355
-352
-349
-346
-346
-346
-344
-338
-335
-329
-328
-328
-332
-338
-343
-349
-352
-355
-359
-362
-370
-376
-379
-379
-379
-379
-380
-383
-388
-389
-391
-389
-389
-389
-392
-392
-394
-392
-391
-391
-389
-386
-385
-385
-388
-386
-386
-383
-385
-383
-382
-382
-383
-383
-383
-383
-380
-382
-380
-382
-382
-382
-383
-383
-382
-379
-382
-382
-383
-383
-383
-382
-383
-383
-383
-383
-383
-383
-386
-386
-385
-385
-383
-383
-386
-385
-386
-383
-385
-383
-383
-383
-380
-379
-379
-377
-376
-376
-373
-376
-373
-371
-370
-370
-370
-373
-376
-379
-382
-385
-385
-383
-383
-382
-383
-386
-386
-389
-388
-389
-386
-385
-386
-392
-389
-388
-388
-383
-379
-365
-350
-331
-310
-286
-245
-190
-146
-131
-142
-190
-254
-305
-331
-349
-365
-377
-382
-382
-383
-385
-388
-386
-385
-383
-386
-389
-389
-388
-383
-382
-382
-383
-385
-385
-385
-388
-386
-383
-383
-383
-386
-383
-383
-380
-379
-379
-379
-382
-382
-383
-383
-382
-379
-379
-382
-382
-382
-379
-379
-379
-379
-379
-374
-371
-370
-370
-370
-365
-361
-356
-355
-352
-352
-346
-343
-341
-335
-329
-329
-329
-331
-329
-329
-335
-340
-344
-349
-356
-359
-362
-365
-368
-371
-373
-377
-379
-379
-379
-379
-379
-380
-380
-382
-383
-385
-383
-383
-382
-379
-379
-380
-379
-379
-379
-379
-376
-373
-373
-376
-376
-376
-376
-371
-370
-371
-370
-371
-371
-371
-371
-368
-365
-365
-365
-370
-370
-370
-370
-370
-370
-368
-370
-371
-370
-370
-370
-368
-367
-365
-370
-370
-368
-370
-370
-367
-365
-368
-368
-368
-368
-368
-365
-365
-364
-365
-367
-367
-365
-362
-359
-358
-359
-356
-355
-353
-352
-353
-349
-347
-346
-349
-352
-356
-356
-359
-359
-359
-358
-358
-359
-361
-362
-361
-362
-361
-359
-361
-361
-361
-361
-361
-356
-356
-353
-350
-343
-329
-308
-287
-265
-230
-178
-130
-100
-100
-128
-187
-250
-287
-310
-332
-350
-358
-355
-352
-352
-352
-353
-356
-356
-358
-356
-356
-355
-352
-349
-350
-352
-352
-352
-352
-350
-350
-346
-347
-349
-349
-349
-347
-346
-344
-343
-344
-343
-344
-346
-343
-341
-343
-341
-340
-343
-343
-340
-338
-335
-334
-334
-332
-332
-329
-328
-326
-323
-322
-319
-317
-314
-310
-307
-304
-301
-296
-295
-293
-293
-290
-292
-290
-292
-295
-299
-305
-311
-316
-320
-323
-325
-329
-332
-335
-337
-337
-340
-340
-343
-343
-346
-347
-347
-346
-344
-343
-341
-343
-344
-344
-343
-341
-341
-340
-338
-337
-340
-340
-338
-338
-338
-335
-335
-334
-335
-335
-335
-335
-334
-334
-334
-334
-335
-338
-337
-338
-335
-331
-332
-334
-335
-337
-337
-338
-335
-335
-334
-335
-338
-340
-338
-335
-335
-335
-335
-337
-338
-340
-338
-335
-335
-337
-335
-335
-335
-338
-338
-340
-338
-335
-335
-332
-332
-332
-331
-329
-328
-326
-323
-320
-320
-319
-317
-320
-317
-322
-325
-329
-331
-331
-331
-329
-329
-331
-334
-335
-337
-337
-335
-335
-334
-334
-334
-335
-335
-335
-332
-331
-323
-316
-301
-283
-262
-238
-194
-134
-83
-50
-59
-113
-190
-253
-287
-316
-341
-349
-349
-340
-338
-338
-338
-337
-338
-338
-341
-341
-338
-338
-337
-335
-332
-332
-335
-337
-335
-337
-335
-334
-331
-331
-332
-332
-334
-334
-334
-331
-331
-329
-329
-329
-329
-328
-326
-323
-325
-323
-325
-323
-319
-320
-317
-317
-314
-313
-314
-311
-308
-307
-302
-298
-295
-293
-290
-287
-284
-283
-278
-275
-274
-274
-274
-277
-281
-286
-292
-293
-299
-305
-311
-314
-319
-322
-323
-325
-328
-331
-332
-332
-335
-335
-331
-332
-335
-337
-335
-331
-334
-334
-332
-334
-331
-334
-334
-335
-334
-334
-331
-329
-329
-329
-329
-331
-331
-329
-329
-328
-328
-329
-329
-329
-331
-331
-329
-329
-332
-334
-331
-329
-331
-331
-334
-332
-334
-334
-332
-332
-331
-328
-329
-329
-332
-334
-329
-332
-332
-331
-329
-329
-331
-334
-334
-331
-331
-332
-331
-334
-335
-337
-335
-335
-334
-331
-328
-326
-326
-328
-328
-328
-328
-326
-323
-320
-320
-320
-320
-323
-325
-326
-326
-328
-332
-332
-334
-331
-328
-329
-332
-335
-338
-340
-340
-338
-335
-334
-334
-335
-334
-332
-329
-326
-314
-296
-274
-251
-224
-176
-118
-68
-50
-64
-115
-194
-251
-286
-307
-322
-329
-332
-332
-338
-340
-340
-340
-340
-341
-340
-337
-341
-341
-340
-338
-337
-335
-335
-337
-340
-338
-338
-337
-335
-335
-334
-335
-335
-335
-335
-337
-335
-331
-331
-331
-332
-332
-332
-332
-329
-329
-329
-329
-331
-329
-329
-328
-326
-323
-323
-322
-320
-316
-316
-313
-308
-305
-302
-302
-298
-295
-290
-287
-283
-278
-280
-283
-286
-292
-296
-301
-304
-310
-316
-320
-323
-326
-329
-331
-334
-335
-337
-340
-340
-341
-343
-341
-341
-341
-344
-344
-343
-343
-341
-335
-338
-340
-341
-343
-338
-341
-340
-338
-335
-335
-338
-337
-338
-338
-335
-335
-335
-335
-335
-337
-335
-335
-335
-335
-338
-340
-341
-341
-341
-341
-340
-340
-341
-341
-343
-343
-343
-343
-343
-341
-343
-344
-344
-344
-346
-346
-346
-343
-344
-347
-347
-347
-344
-344
-347
-347
-349
-349
-346
-344
-344
-344
-344
-344
-346
-344
-343
-341
-341
-341
-340
-340
-341
-338
-335
-335
-335
-337
-340
-344
-347
-349
-349
-349
-347
-346
-347
-349
-352
-349
-349
-349
-347
-349
-349
-350
-350
-349
-347
-343
-341
-331
-317
-296
-272
-244
-202
-145
-95
-77
-88
-133
-200
-262
-293
-316
-334
-344
-347
-349
-350
-352
-353
-352
-353
-355
-355
-356
-353
-352
-353
-349
-350
-352
-355
-356
-352
-352
-350
-349
-349
-349
-352
-349
-349
-349
-349
-346
-346
-346
-347
-347
-349
-347
-346
-343
-343
-343
-346
-347
-344
-343
-343
-343
-341
-343
-341
-340
-338
-335
-334
-329
-328
-328
-325
-322
-316
-310
-307
-307
-304
-302
-301
-304
-307
-308
-313
-317
-326
-329
-335
-338
-341
-344
-347
-352
-355
-356
-356
-356
-358
-358
-361
-362
-362
-362
-362
-359
-359
-359
-361
-362
-362
-362
-361
-359
-358
-356
-356
-362
-358
-358
-356
-356
-356
-355
-356
-358
-358
-358
-356
-356
-355
-356
-361
-362
-362
-359
-361
-362
-362
-362
-364
-365
-365
-365
-365
-364
-362
-365
-367
-368
-365
-365
-364
-364
-362
-365
-365
-367
-365
-367
-367
-365
-365
-365
-370
-368
-368
-368
-367
-365
-364
-365
-365
-365
-368
-368
-365
-364
-362
-362
-364
-365
-365
-362
-359
-358
-358
-356
-356
-355
-352
-355
-356
-361
-362
-365
-365
-365
-365
-365
-365
-362
-365
-367
-367
-368
-371
-368
-365
-365
-367
-370
-364
-359
-352
-340
-323
-302
-283
-251
-202
-145
-103
-89
-110
-170
-247
-299
-328
-355
-371
-376
-370
-367
-370
-370
-373
-376
-373
-371
-371
-371
-371
-373
-373
-370
-368
-365
-368
-365
-368
-370
-370
-370
-368
-368
-368
-370
-370
-368
-368
-367
-365
-364
-364
-365
-367
-368
-365
-362
-359
-358
-361
-362
-362
-362
-361
-358
-355
-353
-355
-349
-350
-349
-346
-343
-340
-335
-335
-331
-328
-322
-320
-316
-314
-310
-317
-319
-323
-326
-328
-334
-340
-346
-350
-356
-358
-361
-362
-362
-365
-370
-371
-371
-373
-376
-373
-373
-373
-376
-377
-376
-376
-376
-373
-371
-373
-373
-374
-373
-371
-371
-368
-365
-368
-370
-370
-370
-368
-365
-365
-365
-371
-370
-370
-368
-368
-368
-368
-368
-370
-371
-371
-371
-371
-370
-370
-370
-371
-371
-371
-371
-371
-370
-370
-371
-376
-376
-374
-373
-373
-373
-373
-376
-374
-374
-373
-373
-371
-373
-373
-376
-376
-376
-376
-374
-373
-371
-373
-377
-377
-376
-376
-374
-373
-373
-374
-376
-371
-368
-368
-365
-364
-365
-365
-370
-371
-373
-374
-374
-374
-377
-377
-379
-379
-379
-379
-377
-376
-379
-380
-379
-379
-379
-379
-376
-376
-371
-365
-352
-332
-308
-284
-250
-194
-136
-92
-82
-109
-176
-256
-307
-340
-365
-383
-386
-380
-376
-377
-377
-379
-379
-379
-379
-379
-376
-373
-373
-376
-376
-377
-376
-374
-373
-371
-371
-373
-373
-374
-370
-371
-370
-368
-370
-370
-370
-368
-368
-365
-365
-364
-362
-365
-365
-364
-362
-362
-362
-358
-358
-361
-359
-358
-355
-352
-349
-347
-346
-343
-340
-335
-331
-328
-325
-320
-320
-316
-314
-313
-311
-311
-316
-323
-328
-334
-335
-346
-349
-350
-355
-361
-362
-365
-365
-368
-370
-370
-371
-373
-373
-371
-373
-373
-373
-371
-371
-373
-374
-373
-371
-370
-368
-370
-371
-373
-371
-370
-368
-365
-365
-367
-368
-368
-368
-370
-365
-367
-370
-370
-370
-371
-370
-373
-370
-370
-368
-370
-373
-373
-373
-373
-373
-371
-371
-373
-376
-376
-373
-373
-373
-371
-374
-376
-376
-376
-376
-376
-376
-376
-376
-377
-376
-376
-376
-376
-377
-374
-376
-379
-382
-377
-377
-376
-376
-377
-376
-379
-376
-377
-377
-376
-373
-373
-373
-373
-371
-373
-371
-370
-365
-367
-368
-368
-365
-364
-362
-365
-365
-370
-373
-376
-376
-376
-373
-371
-371
-374
-377
-379
-379
-379
-376
-373
-373
-374
-376
-377
-373
-367
-355
-335
-310
-287
-256
-205
-148
-106
-97
-124
-187
-260
-313
-335
-355
-368
-376
-379
-382
-383
-383
-385
-385
-386
-385
-386
-389
-389
-389
-388
-388
-386
-386
-388
-389
-392
-389
-389
-388
-391
-386
-386
-389
-388
-389
-386
-386
-385
-383
-385
-386
-386
-385
-383
-382
-380
-379
-382
-382
-382
-379
-377
-374
-374
-376
-373
-371
-370
-365
-362
-359
-356
-356
-355
-352
-349
-343
-338
-335
-335
-335
-335
-340
-341
-346
-349
-356
-359
-365
-371
-376
-380
-382
-383
-383
-388
-389
-391
-389
-392
-392
-392
-395
-397
-398
-398
-397
-397
-395
-395
-395
-397
-395
-398
-397
-394
-392
-392
-392
-394
-392
-392
-392
-389
-391
-389
-392
-394
-394
-392
-392
-391
-392
-394
-395
-397
-397
-398
-398
-398
-398
-400
-401
-401
-401
-400
-400
-400
-400
-403
-403
-403
-403
-401
-400
-401
-403
-406
-406
-404
-403
-403
-403
-403
-406
-407
-406
-406
-404
-406
-407
-406
-406
-406
-406
-407
-406
-403
-403
-406
-406
-406
-406
-406
-404
-403
-403
-403
-403
-403
-400
-398
-397
-397
-395
-395
-397
-397
-400
-403
-403
-403
-403
-406
-406
-407
-406
-406
-404
-406
-406
-407
-407
-406
-404
-403
-403
-404
-400
-395
-386
-368
-346
-323
-296
-254
-200
-154
-134
-154
-211
-280
-329
-355
-376
-394
-403
-404
-400
-397
-400
-404
-406
-406
-406
-404
-403
-403
-403
-403
-403
-400
-400
-400
-400
-400
-400
-401
-400
-403
-398
-397
-394
-395
-398
-398
-397
-394
-392
-389
-389
-391
-392
-392
-392
-391
-389
-389
-389
-389
-391
-389
-386
-383
-382
-379
-377
-377
-376
-371
-368
-365
-362
-358
-356
-353
-350
-346
-343
-341
-340
-338
-344
-349
-352
-358
-365
-368
-373
-376
-382
-386
-389
-391
-392
-392
-394
-397
-398
-400
-398
-398
-397
-397
-398
-403
-403
-400
-397
-398
-397
-397
-397
-397
-394
-392
-392
-392
-389
-389
-388
-386
-389
-389
-391
-391
-388
-389
-392
-391
-389
-389
-388
-386
-385
-386
-389
-391
-389
-389
-389
-386
-388
-391
-391
-391
-391
-389
-388
-386
-389
-389
-392
-392
-391
-389
-386
-386
-386
-389
-389
-389
-388
-385
-385
-383
-386
-388
-388
-388
-389
-386
-385
-386
-386
-386
-383
-382
-382
-380
-382
-380
-379
-379
-377
-377
-376
-373
-370
-368
-365
-365
-365
-368
-370
-373
-373
-376
-376
-377
-376
-376
-376
-374
-376
-376
-377
-377
-377
-374
-371
-371
-376
-371
-370
-364
-350
-329
-310
-287
-253
-196
-127
-83
-73
-113
-196
-272
-317
-353
-379
-391
-386
-376
-373
-376
-377
-376
-376
-373
-370
-371
-373
-373
-376
-373
-371
-370
-368
-368
-370
-371
-370
-370
-368
-365
-365
-365
-365
-368
-364
-362
-362
-361
-362
-362
-362
-359
-358
-358
-356
-353
-352
-352
-352
-350
-349
-347
-344
-343
-341
-340
-340
-334
-331
-328
-325
-320
-316
-314
-310
-308
-307
-302
-301
-298
-302
-308
-314
-320
-323
-326
-332
-338
-344
-349
-353
-353
-355
-355
-358
-361
-362
-361
-359
-359
-361
-359
-359
-361
-359
-359
-361
-358
-356
-355
-356
-356
-358
-358
-358
-356
-355
-352
-355
-356
-355
-353
-355
-355
-352
-355
-356
-359
-355
-356
-355
-353
-356
-355
-356
-356
-355
-355
-355
-353
-355
-356
-359
-356
-356
-355
-352
-352
-353
-355
-356
-356
-355
-353
-352
-352
-355
-356
-356
-356
-353
-352
-352
-352
-352
-352
-352
-352
-352
-349
-349
-352
-353
-353
-356
-352
-349
-346
-346
-349
-349
-347
-346
-344
-344
-343
-341
-343
-341
-340
-341
-341
-343
-344
-346
-349
-350
-349
-349
-347
-347
-349
-349
-352
-350
-349
-349
-347
-347
-346
-347
-347
-343
-338
-328
-307
-280
-256
-227
-181
-121
-74
-58
-70
-124
-203
-272
-307
-326
-338
-343
-344
-346
-350
-350
-352
-350
-349
-349
-347
-349
-349
-349
-349
-347
-346
-344
-344
-346
-346
-346
-344
-343
-343
-343
-343
-344
-344
-344
-343
-341
-340
-338
-335
-340
-340
-340
-338
-334
-332
-332
-335
-334
-334
-332
-331
-331
-328
-326
-323
-322
-322
-317
-316
-313
-308
-304
-302
-299
-295
-290
-287
-284
-281
-281
-284
-287
-292
-295
-299
-305
-310
-314
-322
-323
-323
-329
-334
-334
-332
-332
-340
-340
-341
-341
-341
-341
-341
-343
-343
-343
-343
-341
-340
-337
-338
-340
-340
-340
-338
-335
-337
-334
-334
-335
-337
-335
-334
-331
-331
-331
-332
-332
-332
-331
-331
-329
-326
-329
-331
-334
-334
-331
-334
-331
-331
-332
-332
-335
-337
-337
-335
-335
-335
-338
-338
-338
-335
-334
-334
-332
-335
-335
-335
-335
-335
-335
-335
-334
-334
-337
-335
-338
-335
-335
-334
-335
-338
-338
-337
-337
-337
-334
-331
-328
-334
-334
-334
-331
-328
-326
-323
-323
-326
-328
-331
-334
-335
-335
-335
-337
-337
-335
-335
-335
-335
-335
-335
-335
-337
-337
-337
-337
-332
-331
-329
-325
-313
-295
-272
-250
-224
-181
-127
-80
-61
-73
-122
-194
-250
-281
-304
-322
-334
-334
-331
-329
-331
-334
-335
-338
-335
-337
-335
-332
-332
-332
-332
-332
-331
-329
-328
-328
-329
-329
-329
-328
-328
-326
-323
-323
-325
-325
-326
-326
-325
-322
-320
-317
-323
-323
-322
-319
-316
-316
-314
-314
-316
-313
-313
-310
-307
-305
-302
-302
-301
-298
-292
-287
-281
-278
-275
-272
-268
-265
-263
-265
-265
-269
-274
-278
-284
-289
-295
-299
-302
-305
-310
-316
-317
-320
-320
-320
-320
-323
-322
-326
-326
-326
-328
-326
-329
-331
-329
-328
-328
-326
-326
-322
-325
-325
-326
-325
-322
-320
-322
-322
-320
-320
-320
-319
-317
-317
-317
-319
-320
-320
-320
-319
-317
-317
-317
-322
-323
-323
-323
-320
-317
-320
-322
-322
-320
-320
-323
-325
-323
-320
-320
-323
-323
-325
-325
-323
-325
-323
-323
-326
-325
-323
-325
-323
-322
-320
-323
-326
-328
-326
-326
-326
-325
-325
-323
-325
-323
-322
-322
-319
-316
-314
-310
-311
-308
-310
-313
-314
-317
-320
-322
-322
-323
-323
-323
-323
-323
-325
-326
-326
-326
-323
-322
-320
-320
-323
-323
-322
-317
-308
-295
-274
-253
-227
-182
-115
-56
-23
-37
-104
-187
-247
-287
-317
-338
-340
-331
-325
-325
-323
-328
-328
-328
-326
-322
-326
-326
-325
-325
-323
-325
-322
-322
-322
-323
-322
-323
-322
-320
-320
-320
-322
-323
-320
-320
-317
-314
-316
-316
-317
-317
-316
-314
-313
-310
-308
-310
-310
-308
-307
-305
-299
-299
-298
-296
-295
-292
-287
-284
-278
-275
-272
-271
-266
-263
-259
-256
-254
-256
-259
-263
-268
-275
-281
-287
-292
-299
-304
-308
-313
-316
-320
-320
-322
-323
-326
-328
-328
-328
-328
-328
-329
-331
-329
-332
-331
-331
-328
-326
-329
-331
-331
-328
-326
-326
-326
-326
-328
-328
-328
-328
-328
-326
-325
-325
-326
-329
-329
-331
-329
-328
-328
-328
-331
-331
-331
-331
-329
-329
-328
-332
-334
-334
-334
-331
-331
-329
-329
-331
-331
-329
-334
-332
-332
-334
-329
-335
-335
-335
-334
-334
-332
-334
-335
-335
-334
-334
-332
-331
-331
-334
-332
-331
-331
-329
-328
-326
-326
-328
-326
-325
-322
-323
-326
-326
-329
-334
-335
-335
-337
-337
-334
-331
-335
-338
-340
-338
-335
-337
-335
-337
-337
-335
-335
-335
-332
-328
-316
-299
-275
-250
-218
-169
-109
-59
-38
-55
-116
-199
-265
-302
-319
-328
-332
-334
-338
-340
-343
-341
-341
-341
-343
-344
-344
-343
-341
-340
-340
-337
-337
-341
-341
-341
-338
-335
-335
-337
-338
-335
-334
-335
-334
-334
-332
-331
-332
-334
-334
-334
-332
-331
-328
-329
-329
-331
-329
-326
-323
-322
-322
-320
-320
-316
-314
-313
-308
-304
-301
-298
-296
-293
-287
-286
-280
-277
-278
-275
-277
-281
-284
-289
-295
-301
-308
-314
-320
-323
-323
-326
-329
-335
-338
-340
-340
-340
-340
-340
-340
-341
-344
-346
-344
-344
-343
-341
-341
-343
-343
-343
-341
-340
-340
-338
-337
-341
-341
-340
-337
-335
-338
-338
-340
-340
-338
-338
-337
-338
-335
-335
-338
-340
-343
-340
-340
-335
-335
-341
-343
-343
-341
-340
-343
-341
-341
-341
-343
-344
-344
-343
-343
-343
-344
-346
-344
-346
-344
-344
-344
-344
-344
-347
-344
-346
-344
-344
-346
-344
-344
-344
-343
-341
-341
-341
-341
-340
-340
-338
-337
-338
-338
-340
-343
-346
-349
-350
-350
-350
-349
-346
-347
-352
-352
-353
-352
-349
-350
-352
-352
-353
-352
-352
-349
-349
-340
-326
-308
-283
-254
-224
-175
-118
-79
-71
-100
-163
-235
-286
-314
-331
-343
-350
-352
-352
-355
-356
-356
-358
-358
-361
-359
-359
-358
-356
-356
-356
-355
-355
-356
-356
-355
-356
-356
-353
-355
-356
-355
-356
-355
-355
-355
-352
-352
-355
-356
-355
-352
-352
-350
-352
-352
-350
-352
-352
-349
-347
-347
-346
-346
-343
-341
-340
-335
-332
-328
-326
-325
-320
-317
-314
-310
-304
-301
-301
-302
-305
-307
-308
-313
-317
-325
-331
-334
-341
-343
-347
-349
-352
-350
-356
-359
-359
-361
-359
-359
-358
-359
-361
-362
-362
-362
-362
-361
-362
-362
-362
-362
-359
-359
-356
-356
-358
-358
-358
-356
-356
-353
-352
-352
-355
-356
-355
-355
-355
-355
-350
-352
-353
-353
-358
-355
-355
-353
-355
-356
-358
-358
-359
-359
-359
-358
-358
-359
-362
-362
-361
-362
-362
-362
-362
-364
-365
-362
-362
-365
-365
-367
-365
-365
-365
-364
-362
-358
-356
-356
-359
-359
-359
-358
-356
-352
-352
-350
-352
-356
-358
-361
-359
-361
-361
-362
-365
-365
-365
-365
-365
-365
-365
-368
-368
-365
-365
-365
-364
-362
-364
-362
-356
-344
-326
-301
-277
-251
-208
-149
-109
-97
-121
-182
-250
-298
-326
-343
-359
-362
-361
-361
-362
-368
-367
-368
-368
-368
-368
-365
-365
-362
-364
-364
-364
-364
-362
-362
-362
-362
-362
-362
-362
-362
-361
-359
-359
-359
-358
-359
-359
-358
-356
-356
-356
-355
-356
-353
-352
-352
-353
-350
-350
-349
-349
-349
-346
-341
-341
-338
-335
-334
-331
-328
-323
-317
-317
-314
-311
-305
-304
-302
-302
-305
-307
-313
-317
-322
-326
-329
-334
-338
-343
-347
-352
-352
-355
-356
-356
-359
-359
-362
-364
-364
-362
-362
-362
-365
-365
-364
-362
-359
-361
-358
-359
-359
-359
-359
-356
-356
-355
-355
-355
-356
-353
-352
-352
-352
-350
-352
-355
-355
-355
-355
-352
-352
-352
-353
-355
-355
-352
-352
-352
-352
-350
-352
-353
-355
-353
-355
-352
-349
-350
-352
-358
-355
-352
-353
-352
-352
-350
-352
-352
-352
-353
-352
-349
-349
-347
-347
-347
-346
-347
-344
-343
-341
-341
-340
-338
-338
-340
-340
-343
-346
-349
-352
-352
-352
-352
-350
-352
-356
-356
-356
-358
-356
-359
-355
-355
-355
-356
-356
-353
-350
-343
-328
-307
-287
-265
-233
-187
-131
-100
-100
-136
-202
-265
-299
-317
-335
-347
-353
-358
-361
-361
-362
-362
-364
-362
-364
-365
-365
-364
-362
-361
-359
-361
-362
-365
-362
-362
-362
-361
-362
-361
-361
-362
-361
-361
-359
-358
-356
-356
-358
-358
-359
-358
-356
-356
-355
-356
-356
-356
-355
-353
-352
-350
-349
-349
-347
-346
-343
-341
-340
-335
-332
-331
-328
-325
-319
-311
-310
-305
-305
-307
-308
-311
-314
-320
-323
-328
-335
-340
-343
-346
-349
-350
-352
-355
-356
-361
-361
-362
-359
-359
-359
-362
-364
-364
-362
-359
-359
-361
-359
-358
-358
-356
-356
-356
-353
-352
-355
-356
-355
-353
-352
-352
-352
-349
-349
-352
-352
-353
-353
-352
-350
-350
-352
-355
-355
-355
-352
-349
-347
-350
-352
-356
-356
-353
-352
-352
-350
-350
-352
-352
-352
-355
-355
-353
-352
-355
-358
-358
-358
-355
-355
-352
-352
-356
-358
-355
-352
-352
-349
-350
-349
-353
-352
-350
-349
-346
-343
-338
-335
-340
-343
-344
-346
-349
-349
-350
-352
-353
-350
-349
-352
-352
-355
-356
-356
-358
-358
-356
-356
-355
-355
-355
-355
-352
-347
-340
-322
-302
-277
-253
-211
-146
-89
-61
-71
-133
-215
-275
-314
-344
-370
-376
-368
-358
-356
-361
-364
-365
-365
-362
-359
-358
-358
-361
-359
-358
-356
-356
-358
-355
-353
-356
-356
-358
-356
-356
-355
-353
-353
-356
-356
-356
-355
-355
-352
-352
-350
-350
-349
-349
-347
-343
-344
-347
-347
-346
-343
-338
-334
-334
-332
-331
-329
-328
-323
-320
-316
-313
-308
-307
-302
-299
-296
-293
-292
-295
-299
-307
-311
-317
-325
-331
-335
-341
-346
-352
-352
-355
-356
-356
-361
-358
-359
-362
-362
-365
-364
-362
-362
-364
-364
-365
-365
-364
-362
-361
-361
-361
-361
-359
-361
-359
-358
-356
-355
-356
-358
-356
-356
-356
-352
-353
-355
-356
-356
-356
-356
-358
-355
-355
-358
-361
-362
-356
-356
-355
-353
-356
-356
-359
-358
-356
-356
-355
-353
-355
-356
-356
-356
-356
-355
-355
-353
-356
-358
-358
-356
-356
-356
-358
-356
-356
-356
-356
-356
-356
-355
-352
-352
-355
-353
-352
-349
-349
-350
-344
-344
-344
-344
-349
-349
-350
-352
-353
-355
-356
-356
-356
-355
-356
-355
-356
-358
-361
-358
-358
-358
-355
-353
-355
-355
-352
-346
-335
-316
-289
-265
-233
-184
-121
-73
-55
-64
-115
-191
-259
-295
-325
-343
-355
-356
-356
-352
-356
-358
-359
-358
-356
-356
-356
-356
-358
-356
-356
-355
-355
-352
-352
-352
-352
-353
-352
-352
-350
-349
-349
-349
-352
-352
-350
-349
-346
-344
-344
-344
-346
-346
-344
-347
-341
-340
-341
-343
-344
-341
-340
-337
-331
-329
-328
-328
-326
-323
-320
-316
-310
-305
-302
-301
-298
-295
-292
-289
-287
-289
-293
-299
-307
-313
-316
-319
-325
-328
-334
-340
-343
-346
-349
-347
-346
-349
-350
-353
-352
-355
-358
-356
-355
-356
-358
-361
-356
-356
-355
-355
-352
-352
-353
-352
-353
-353
-352
-352
-349
-349
-350
-350
-349
-349
-347
-346
-346
-349
-350
-350
-349
-349
-349
-347
-350
-350
-352
-352
-352
-352
-352
-352
-356
-355
-355
-352
-352
-355
-352
-352
-352
-355
-356
-356
-356
-355
-353
-352
-355
-356
-356
-356
-358
-355
-355
-352
-355
-356
-355
-355
-355
-355
-352
-353
-356
-356
-356
-356
-355
-352
-352
-352
-352
-352
-352
-349
-347
-346
-347
-349
-346
-344
-347
-347
-350
-352
-355
-356
-358
-359
-356
-355
-352
-356
-356
-356
-358
-356
-356
-355
-355
-352
-352
-355
-353
-349
-340
-325
-302
-278
-253
-221
-167
-113
-82
-76
-106
-164
-239
-289
-316
-329
-343
-349
-350
-352
-358
-359
-359
-359
-356
-356
-356
-355
-356
-358
-358
-355
-353
-352
-352
-353
-355
-355
-352
-352
-352
-350
-350
-350
-352
-352
-353
-352
-352
-350
-349
-347
-349
-349
-347
-346
-347
-349
-344
-344
-344
-344
-344
-343
-340
-338
-335
-335
-334
-332
-329
-326
-322
-317
-314
-311
-307
-305
-299
-295
-293
-292
-296
-299
-304
-308
-313
-316
-319
-325
-331
-337
-341
-341
-343
-344
-344
-347
-349
-352
-353
-352
-352
-352
-356
-352
-355
-355
-356
-356
-355
-352
-350
-353
-353
-355
-355
-353
-353
-352
-350
-350
-352
-352
-352
-349
-349
-346
-347
-349
-350
-350
-349
-349
-349
-349
-347
-350
-352
-352
-353
-355
-352
-352
-352
-355
-358
-355
-356
-356
-356
-358
-356
-358
-359
-358
-358
-356
-358
-358
-359
-362
-362
-359
-358
-359
-359
-359
-361
-359
-359
-359
-359
-359
-356
-359
-359
-362
-359
-359
-359
-358
-356
-358
-361
-361
-361
-359
-359
-355
-355
-356
-356
-358
-353
-352
-352
-349
-346
-346
-349
-350
-352
-355
-355
-353
-355
-356
-356
-356
-356
-356
-355
-355
-355
-356
-356
-356
-356
-355
-355
-352
-352
-349
-344
-331
-313
-287
-262
-229
-181
-124
-82
-67
-88
-149
-224
-275
-310
-335
-356
-358
-356
-350
-349
-352
-352
-355
-356
-356
-356
-352
-352
-352
-352
-352
-352
-350
-349
-349
-349
-350
-352
-352
-349
-346
-346
-346
-346
-347
-346
-346
-344
-343
-343
-341
-341
-340
-343
-341
-341
-338
-335
-335
-335
-335
-335
-335
-335
-332
-329
-326
-326
-323
-322
-319
-316
-313
-304
-299
-298
-296
-295
-292
-289
-289
-289
-292
-295
-301
-305
-311
-314
-317
-322
-326
-334
-338
-340
-335
-340
-341
-344
-346
-352
-350
-352
-352
-350
-349
-349
-352
-355
-355
-355
-352
-350
-349
-349
-349
-350
-347
-346
-346
-347
-343
-343
-344
-343
-341
-343
-343
-341
-338
-338
-340
-341
-343
-344
-343
-341
-341
-341
-343
-344
-343
-346
-343
-341
-344
-346
-352
-349
-347
-347
-344
-344
-343
-346
-349
-349
-347
-344
-343
-343
-344
-346
-349
-347
-349
-347
-346
-346
-347
-346
-346
-344
-346
-346
-344
-344
-346
-349
-349
-347
-346
-346
-346
-350
-347
-349
-349
-347
-347
-343
-343
-343
-343
-343
-341
-340
-337
-332
-331
-334
-337
-341
-341
-343
-343
-344
-346
-346
-347
-346
-346
-346
-346
-346
-346
-350
-349
-347
-344
-344
-341
-340
-338
-334
-322
-299
-278
-251
-215
-160
-98
-56
-46
-77
-149
-226
-277
-307
-332
-350
-355
-350
-346
-347
-349
-350
-352
-352
-352
-350
-349
-347
-346
-347
-347
-347
-349
-349
-346
-343
-341
-343
-346
-344
-344
-344
-343
-341
-340
-341
-343
-343
-344
-341
-340
-340
-335
-334
-335
-337
-335
-335
-332
-332
-332
-332
-332
-329
-328
-326
-322
-319
-319
-317
-314
-313
-310
-304
-298
-296
-295
-292
-292
-287
-287
-286
-287
-292
-298
-305
-311
-316
-322
-323
-325
-331
-335
-340
-340
-338
-341
-343
-344
-346
-349
-349
-349
-349
-349
-349
-347
-349
-349
-350
-352
-349
-349
-346
-346
-347
-347
-349
-346
-346
-343
-343
-344
-344
-346
-344
-344
-344
-344
-343
-346
-346
-346
-346
-347
-347
-344
-349
-349
-350
-349
-349
-352
-350
-347
-349
-349
-350
-352
-353
-352
-353
-352
-353
-355
-356
-356
-355
-355
-353
-352
-355
-355
-356
-356
-358
-358
-356
-355
-355
-356
-356
-356
-356
-355
-355
-355
-356
-356
-361
-358
-359
-358
-356
-359
-358
-359
-359
-359
-358
-356
-355
-356
-358
-359
-356
-356
-356
-356
-352
-353
-355
-352
-352
-349
-350
-349
-352
-356
-361
-364
-365
-364
-362
-362
-361
-362
-365
-365
-367
-367
-368
-365
-367
-368
-368
-371
-365
-362
-356
-344
-326
-304
-281
-251
-202
-145
-103
-86
-104
-155
-232
-295
-329
-349
-362
-370
-374
-376
-379
-382
-383
-383
-385
-385
-386
-386
-386
-385
-385
-383
-383
-382
-383
-383
-386
-385
-385
-385
-383
-385
-386
-389
-391
-386
-386
-383
-383
-383
-385
-385
-385
-385
-383
-382
-382
-383
-383
-382
-382
-379
-379
-379
-379
-379
-380
-379
-376
-373
-371
-368
-367
-365
-362
-359
-355
-352
-346
-341
-340
-337
-340
-340
-341
-343
-350
-352
-359
-364
-368
-373
-377
-379
-383
-385
-389
-389
-392
-394
-397
-395
-394
-397
-397
-398
-398
-398
-397
-395
-395
-397
-398
-400
-397
-397
-397
-397
-394
-397
-397
-395
-394
-395
-394
-392
-392
-392
-397
-397
-397
-395
-397
-395
-395
-397
-397
-398
-398
-398
-398
-397
-398
-400
-403
-403
-401
-403
-400
-403
-403
-406
-406
-406
-404
-403
-403
-403
-406
-406
-406
-406
-406
-406
-404
-406
-407
-407
-407
-407
-409
-406
-406
-406
-409
-412
-407
-406
-407
-407
-407
-409
-412
-412
-410
-410
-409
-407
-407
-407
-409
-410
-410
-410
-407
-407
-407
-410
-410
-410
-410
-407
-406
-404
-403
-403
-403
-401
-400
-397
-397
-398
-404
-406
-407
-407
-410
-412
-410
-409
-410
-413
-413
-412
-412
-410
-409
-407
-409
-410
-412
-410
-406
-404
-400
-392
-379
-358
-340
-316
-275
-212
-154
-124
-136
-188
-266
-329
-361
-383
-401
-413
-418
-415
-412
-413
-413
-412
-410
-413
-412
-413
-412
-410
-412
-410
-409
-410
-410
-409
-407
-406
-403
-403
-406
-407
-407
-406
-406
-404
-406
-403
-403
-403
-406
-406
-403
-403
-400
-398
-398
-397
-398
-398
-398
-400
-397
-395
-395
-395
-394
-395
-389
-386
-382
-379
-380
-376
-371
-370
-367
-362
-358
-355
-353
-350
-349
-349
-350
-352
-356
-362
-370
-376
-379
-383
-383
-385
-389
-392
-397
-398
-400
-400
-400
-400
-403
-406
-407
-407
-404
-400
-400
-403
-403
-403
-403
-404
-404
-400
-398
-397
-398
-398
-398
-397
-395
-395
-395
-392
-394
-395
-395
-394
-395
-395
-392
-394
-392
-394
-395
-397
-397
-395
-397
-398
-397
-398
-400
-400
-397
-395
-394
-395
-398
-400
-400
-398
-398
-397
-398
-397
-398
-400
-400
-400
-397
-397
-395
-397
-398
-400
-398
-398
-397
-397
-397
-397
-398
-398
-397
-395
-395
-395
-395
-395
-398
-397
-397
-395
-392
-392
-394
-397
-397
-397
-394
-392
-392
-389
-391
-392
-395
-392
-389
-386
-385
-386
-383
-383
-383
-383
-386
-389
-389
-389
-392
-392
-392
-392
-392
-392
-392
-392
-394
-394
-392
-392
-392
-392
-391
-389
-389
-388
-382
-365
-346
-320
-293
-256
-197
-136
-98
-92
-124
-194
-272
-323
-352
-379
-392
-398
-395
-389
-389
-392
-394
-394
-392
-392
-392
-391
-391
-392
-392
-392
-389
-389
-386
-385
-386
-386
-386
-386
-385
-385
-383
-383
-383
-383
-383
-380
-379
-379
-376
-376
-377
-379
-379
-377
-377
-376
-371
-370
-370
-373
-374
-373
-371
-368
-365
-364
-364
-362
-358
-356
-352
-347
-344
-343
-341
-337
-332
-328
-323
-322
-320
-325
-329
-332
-335
-341
-344
-349
-355
