-18
-18
-18
-18
-17
-17
-18
-18
-17
-16
-17
-16
-16
-16
-16
-17
-17
-17
-18
-20
-21
-21
-20
-19
-19
-19
-19
-19
-19
-18
-17
-15
-15
-14
-14
-13
-10
-6
-3
0
3
4
5
8
15
25
36
49
62
71
73
72
70
68
66
63
63
64
71
82
98
120
145
175
204
224
222
205
171
128
82
38
12
-2
-11
-17
-22
-27
-30
-33
-34
-38
-40
-40
-39
-41
-44
-47
-50
-53
-56
-57
-57
-58
-60
-62
-62
-65
-67
-70
-71
-73
-75
-74
-74
-74
-74
-74
-74
-73
-72
-71
-70
-68
-66
-66
-65
-65
-63
-60
-59
-55
-52
-48
-46
-42
-40
-38
-35
-34
-31
-29
-27
-26
-25
-24
-24
-24
-23
-23
-24
-24
-24
-24
-25
-25
-26
-26
-26
-27
-28
-28
-28
-29
-29
-29
-29
-29
-30
-30
-31
-30
-30
-30
-30
-31
-31
-30
-30
-30
-29
-29
-28
-27
-26
-25
-26
-26
-26
-26
-25
-25
-25
-26
-26
-26
-25
-24
-25
-24
-24
-25
-25
-25
-25
-25
-23
-22
-19
-17
-12
-9
-6
-4
-4
-5
-6
-8
-10
-11
-11
-11
-11
-12
-15
-18
-21
-23
-26
-27
-29
-30
-31
-32
-32
-34
-35
-36
-37
-37
-37
-38
-36
-35
-35
-35
-35
-34
-34
-35
-35
-37
-41
-45
-49
-52
-51
-40
-18
17
57
100
143
174
196
195
180
149
105
58
15
-8
-19
-25
-28
-31
-34
-38
-40
-41
-43
-43
-44
-44
-46
-46
-46
-47
-48
-49
-50
-52
-51
-52
-52
-52
-51
-50
-50
-48
-48
-47
-46
-46
-45
-44
-44
-41
-39
-39
-39
-39
-38
-38
-37
-35
-35
-34
-33
-31
-32
-31
-30
-29
-27
-26
-25
-24
-23
-22
-21
-21
-22
-22
-21
-20
-20
-20
-20
-20
-20
-20
-20
-21
-22
-22
-21
-22
-22
-23
-24
-25
-26
-27
-27
-29
-30
-31
-32
-33
-33
-32
-34
-36
-37
-38
-39
-40
-40
-40
-40
-39
-39
-37
-32
-28
-25
-23
-21
-20
-20
-21
-22
-21
-21
-20
-19
-18
-20
-22
-24
-26
-27
-29
-29
-31
-31
-30
-29
-29
-29
-29
-29
-29
-28
-28
-27
-27
-26
-24
-23
-23
-23
-23
-24
-27
-31
-35
-40
-44
-44
-35
-12
20
60
99
134
170
196
209
205
179
146
98
54
22
4
-3
-8
-9
-11
-13
-15
-16
-18
-18
-17
-18
-18
-19
-20
-21
-21
-22
-23
-24
-25
-26
-27
-28
-29
-30
-31
-31
-31
-31
-31
-31
-30
-27
-27
-26
-25
-25
-24
-24
-23
-24
-24
-24
-24
-23
-22
-21
-19
-18
-17
-16
-16
-16
-15
-13
-12
-12
-12
-12
-12
-10
-9
-8
-8
-9
-10
-8
-8
-8
-8
-10
-11
-12
-12
-12
-12
-12
-11
-12
-12
-13
-14
-15
-15
-16
-17
-18
-19
-20
-19
-19
-18
-18
-18
-17
-17
-16
-14
-12
-11
-9
-6
-1
3
6
8
9
9
7
7
6
6
5
5
6
4
2
0
-3
-6
-8
-10
-12
-13
-14
-16
-17
-18
-17
-17
-16
-17
-16
-16
-15
-15
-15
-15
-15
-14
-14
-14
-16
-20
-25
-30
-36
-38
-34
-22
2
36
77
115
152
181
203
210
198
170
129
81
40
14
0
-7
-10
-14
-16
-19
-21
-23
-24
-24
-25
-25
-27
-28
-28
-29
-29
-29
-29
-30
-31
-31
-32
-32
-32
-32
-32
-32
-32
-32
-31
-31
-29
-28
-27
-26
-25
-24
-23
-22
-22
-20
-20
-19
-18
-17
-16
-15
-14
-13
-11
-10
-9
-9
-8
-8
-8
-7
-7
-6
-5
-3
-3
-3
-3
-2
-3
-4
-4
-4
-3
-4
-4
-6
-6
-6
-6
-5
-7
-9
-10
-10
-10
-11
-10
-12
-12
-14
-15
-16
-15
-15
-15
-16
-17
-16
-16
-15
-13
-12
-11
-11
-10
-8
-6
-3
0
2
3
4
6
10
17
27
37
49
59
66
67
64
63
61
60
55
53
52
57
72
93
117
140
169
197
217
219
204
174
135
91
48
17
-2
-13
-19
-23
-26
-29
-31
-33
-35
-35
-37
-39
-42
-44
-46
-48
-51
-52
-53
-54
-57
-58
-59
-60
-63
-64
-65
-66
-67
-68
-68
-69
-69
-70
-70
-70
-70
-68
-67
-65
-63
-61
-62
-61
-58
-57
-54
-51
-47
-44
-41
-38
-35
-32
-28
-24
-21
-20
-19
-17
-15
-13
-12
-10
-10
-10
-10
-10
-10
-10
-9
-9
-9
-11
-11
-10
-9
-10
-11
-11
-11
-11
-11
-12
-12
-12
-11
-12
-11
-11
-11
-11
-12
-11
-12
-12
-12
-12
-11
-11
-10
-11
-11
-11
-11
-9
-10
-10
-11
-11
-10
-10
-11
-11
-11
-10
-11
-12
-11
-11
-11
-10
-9
-8
-7
-6
-4
-1
2
6
8
10
10
10
9
8
7
7
8
8
7
4
0
-2
-4
-6
-10
-13
-14
-15
-17
-19
-18
-19
-20
-21
-22
-22
-22
-22
-23
-23
-23
-23
-22
-20
-20
-21
-21
-25
-30
-36
-42
-43
-42
-30
-7
25
69
111
150
184
205
216
204
178
138
87
44
11
-5
-13
-18
-21
-24
-27
-30
-32
-34
-34
-34
-36
-37
-37
-36
-37
-38
-40
-40
-40
-41
-41
-41
-41
-42
-43
-41
-40
-41
-41
-41
-42
-42
-41
-40
-40
-39
-37
-36
-36
-35
-35
-34
-32
-30
-30
-30
-30
-29
-28
-28
-27
-25
-24
-24
-23
-21
-20
-19
-18
-16
-15
-14
-14
-14
-14
-15
-16
-15
-13
-12
-13
-14
-14
-14
-14
-14
-13
-13
-13
-14
-16
-17
-19
-21
-21
-23
-25
-27
-27
-29
-30
-31
-31
-31
-32
-33
-34
-35
-35
-34
-33
-31
-29
-25
-20
-17
-14
-12
-11
-10
-11
-11
-12
-12
-11
-10
-10
-12
-13
-15
-17
-19
-21
-22
-23
-23
-23
-22
-22
-23
-23
-23
-23
-23
-21
-21
-20
-19
-19
-18
-19
-21
-23
-20
-18
-20
-25
-31
-36
-38
-33
-16
14
51
92
130
171
204
224
222
202
166
121
71
31
11
2
0
-2
-5
-6
-9
-11
-13
-14
-13
-13
-14
-15
-16
-17
-17
-17
-18
-19
-21
-20
-21
-22
-22
-22
-23
-24
-23
-24
-23
-24
-24
-24
-25
-24
-24
-24
-24
-23
-22
-22
-21
-21
-20
-20
-18
-17
-17
-16
-16
-15
-14
-13
-12
-11
-11
-9
-8
-7
-6
-6
-6
-5
-5
-5
-5
-6
-5
-5
-5
-6
-6
-5
-7
-6
-6
-6
-6
-6
-5
-7
-8
-9
-10
-10
-11
-11
-12
-13
-14
-14
-13
-14
-14
-13
-12
-11
-11
-10
-9
-6
-2
2
6
8
9
9
9
9
8
7
8
7
7
6
3
-1
-3
-5
-7
-9
-11
-14
-15
-15
-16
-17
-17
-17
-17
-17
-16
-17
-17
-17
-16
-16
-16
-16
-15
-15
-16
-18
-21
-27
-32
-36
-37
-30
-9
22
65
105
142
178
204
221
213
188
149
100
55
22
4
-5
-9
-13
-17
-19
-21
-23
-25
-27
-27
-28
-28
-30
-30
-32
-32
-32
-34
-35
-35
-36
-38
-38
-38
-38
-38
-37
-37
-37
-35
-34
-32
-32
-32
-32
-31
-31
-31
-30
-30
-29
-27
-26
-25
-24
-23
-22
-20
-18
-16
-16
-14
-12
-11
-9
-7
-6
-5
-4
-4
-4
-3
-3
-2
-2
0
-1
-1
-1
-1
-1
-1
-1
-2
-2
-3
-5
-5
-6
-6
-6
-7
-8
-8
-9
-11
-12
-13
-13
-15
-15
-15
-16
-16
-15
-15
-16
-17
-20
-21
-20
-17
-12
-8
-4
0
2
7
15
24
33
43
55
63
66
65
64
63
60
57
54
55
59
70
88
108
134
161
191
211
215
202
171
129
80
36
5
-12
-22
-28
-32
-36
-39
-41
-43
-45
-47
-48
-49
-51
-53
-55
-56
-57
-58
-60
-61
-63
-65
-66
-68
-69
-71
-72
-74
-75
-75
-77
-76
-78
-77
-77
-76
-75
-74
-73
-73
-71
-71
-68
-67
-66
-64
-61
-57
-54
-51
-49
-46
-44
-42
-39
-36
-34
-32
-29
-26
-23
-21
-19
-19
-18
-18
-18
-17
-16
-15
-16
-15
-15
-16
-16
-16
-16
-15
-15
-15
-14
-15
-15
-15
-16
-16
-16
-15
-15
-15
-15
-15
-15
-16
-16
-16
-16
-15
-15
-14
-15
-15
-14
-14
-14
-14
-14
-15
-14
-14
-13
-14
-15
-15
-14
-14
-14
-15
-15
-15
-14
-14
-13
-12
-12
-13
-14
-15
-15
-14
-11
-8
-3
0
2
4
5
6
5
5
4
3
2
2
3
0
-1
-3
-6
-9
-11
-13
-16
-18
-19
-20
-21
-22
-22
-22
-22
-22
-21
-20
-20
-19
-18
-17
-18
-18
-19
-19
-21
-24
-29
-35
-37
-36
-28
-10
20
63
108
150
187
212
223
215
190
157
109
64
26
5
-4
-9
-11
-15
-18
-21
-23
-24
-26
-26
-28
-28
-29
-29
-29
-31
-32
-32
-33
-34
-35
-36
-36
-37
-37
-37
-38
-36
-36
-37
-34
-33
-32
-32
-31
-32
-31
-30
-29
-27
-27
-27
-27
-27
-27
-27
-26
-26
-24
-23
-21
-20
-18
-16
-15
-12
-11
-11
-10
-9
-9
-8
-7
-8
-7
-4
-3
-3
-4
-6
-6
-6
-4
-5
-7
-8
-7
-7
-9
-9
-9
-9
-11
-12
-12
-14
-16
-17
-18
-19
-18
-18
-20
-22
-22
-22
-22
-23
-24
-24
-24
-25
-23
-21
-18
-13
-7
-2
0
1
1
0
0
0
0
1
2
2
1
0
-2
-4
-5
-4
-3
-7
-11
-12
-12
-11
-11
-11
-11
-10
-12
-12
-10
-10
-10
-10
-9
-9
-8
-8
-8
-8
-11
-15
-20
-25
-30
-30
-21
-4
24
61
104
148
188
222
235
230
206
170
123
73
34
13
4
0
-2
-4
-5
-5
-7
-7
-8
-7
-8
-10
-10
-10
-10
-13
-14
-16
-18
-18
-17
-16
-17
-18
-18
-18
-19
-21
-21
-22
-22
-23
-22
-22
-22
-22
-21
-21
-21
-21
-20
-21
-21
-21
-20
-18
-18
-16
-14
-10
-8
-8
-10
-11
-10
-8
-6
-5
-4
-2
-3
-3
-4
-5
-5
-6
-6
-7
-7
-8
-8
-8
-9
-8
-9
-10
-11
-12
-12
-13
-14
-14
-14
-15
-15
-17
-19
-19
-20
-18
-19
-19
-20
-19
-19
-20
-19
-19
-18
-17
-14
-12
-9
-5
-1
2
4
6
6
4
3
2
2
4
5
4
1
-2
-6
-10
-13
-15
-17
-19
-21
-21
-23
-24
-24
-23
-22
-21
-21
-20
-20
-19
-18
-18
-18
-18
-17
-16
-17
-19
-21
-25
-30
-34
-36
-37
-27
-2
33
68
105
136
171
200
214
209
180
143
96
51
18
-1
-9
-13
-16
-19
-22
-24
-27
-28
-30
-31
-31
-32
-33
-34
-34
-35
-36
-36
-37
-38
-38
-39
-40
-39
-39
-39
-38
-37
-37
-37
-36
-35
-35
-34
-33
-33
-31
-31
-30
-29
-29
-28
-26
-26
-26
-27
-26
-25
-23
-21
-18
-17
-15
-14
-13
-12
-11
-9
-9
-8
-8
-8
-8
-8
-8
-8
-8
-6
-6
-7
-7
-9
-8
-8
-8
-8
-8
-9
-10
-11
-11
-12
-13
-14
-14
-16
-17
-17
-18
-18
-19
-19
-19
-18
-18
-18
-18
-17
-16
-12
-8
-5
-3
-2
-2
-3
-3
-3
-3
-1
0
2
7
16
25
34
44
50
54
53
51
48
46
43
42
44
50
64
82
108
134
168
197
211
211
189
156
111
65
27
0
-14
-22
-28
-32
-36
-39
-42
-44
-47
-48
-49
-51
-52
-54
-56
-58
-58
-58
-60
-60
-63
-64
-66
-67
-69
-71
-72
-72
-73
-74
-74
-75
-74
-74
-74
-72
-72
-70
-70
-68
-67
-66
-65
-63
-62
-61
-59
-57
-54
-52
-48
-44
-41
-37
-34
-31
-28
-25
-23
-21
-20
-19
-17
-16
-16
-15
-14
-14
-13
-12
-12
-11
-11
-10
-12
-12
-12
-12
-12
-12
-12
-13
-13
-14
-14
-14
-14
-13
-13
-13
-14
-13
-12
-12
-11
-9
-6
-7
-10
-11
-11
-10
-10
-10
-11
-12
-12
-12
-11
-11
-11
-11
-12
-12
-13
-12
-12
-11
-9
-9
-9
-9
-7
-6
-3
1
4
7
8
9
8
8
8
7
6
5
6
6
6
3
1
-1
-4
-6
-8
-11
-13
-15
-16
-19
-20
-21
-22
-22
-22
-22
-23
-23
-23
-23
-22
-21
-21
-20
-21
-22
-24
-26
-29
-33
-37
-38
-33
-15
13
53
96
138
176
207
219
212
187
155
113
67
30
6
-3
-8
-11
-14
-17
-20
-23
-23
-24
-24
-25
-25
-26
-27
-29
-30
-31
-31
-32
-31
-33
-34
-34
-35
-35
-35
-35
-35
-35
-34
-34
-33
-32
-31
-30
-29
-29
-28
-27
-27
-25
-25
-23
-22
-21
-21
-20
-19
-18
-17
-16
-15
-14
-13
-13
-12
-11
-10
-9
-8
-6
-5
-5
-5
-5
-5
-5
-5
-4
-4
-3
-3
-3
-3
-3
-3
-3
-5
-6
-7
-7
-8
-9
-10
-11
-12
-14
-15
-16
-17
-18
-19
-18
-19
-18
-19
-19
-19
-19
-19
-19
-19
-19
-17
-13
-9
-5
-2
-1
0
0
-1
-1
-1
-1
-1
0
0
-1
-3
-5
-8
-11
-13
-15
-16
-15
-15
-15
-16
-16
-16
-16
-16
-16
-16
-14
-13
-13
-12
-12
-11
-10
-10
-11
-13
-16
-21
-27
-32
-34
-31
-18
7
40
82
118
156
188
217
228
215
187
148
107
67
37
18
10
7
4
2
0
-1
-4
-6
-5
-5
-5
-7
-9
-10
-11
-12
-13
-13
-15
-15
-16
-17
-17
-17
-17
-18
-18
-18
-19
-19
-19
-19
-20
-19
-18
-17
-17
-17
-18
-18
-18
-18
-17
-16
-16
-16
-15
-15
-14
-13
-12
-10
-9
-8
-9
-8
-8
-7
-7
-6
-4
-5
-4
-4
-4
-3
-3
-4
-4
-2
-2
-2
-3
-4
-4
-4
-3
-5
-6
-7
-8
-9
-9
-9
-10
-11
-12
-12
-12
-12
-13
-13
-13
-14
-14
-13
-13
-13
-11
-10
-9
-7
-4
0
3
8
11
13
11
10
8
8
8
7
7
7
5
3
0
-2
-4
-7
-10
-13
-14
-16
-17
-17
-17
-17
-17
-18
-18
-18
-18
-16
-16
-17
-17
-16
-15
-16
-15
-16
-18
-21
-25
-30
-35
-35
-28
-10
17
53
91
131
166
200
216
213
193
158
117
67
29
7
-4
-9
-12
-14
-17
-20
-23
-25
-26
-28
-28
-29
-31
-33
-34
-34
-35
-36
-36
-37
-37
-37
-38
-39
-39
-39
-38
-38
-37
-37
-36
-35
-35
-34
-33
-31
-30
-29
-29
-29
-29
-28
-27
-26
-24
-24
-23
-22
-22
-21
-20
-18
-17
-16
-15
-13
-12
-11
-11
-11
-11
-11
-10
-10
-8
-8
-8
-6
-6
-5
-5
-5
-5
-5
-5
-6
-7
-7
-7
-7
-8
-9
-10
-10
-11
-11
-12
-12
-13
-14
-15
-15
-15
-15
-14
-14
-14
-15
-17
-18
-19
-19
-17
-12
-8
-2
4
13
21
32
45
57
66
68
70
68
67
65
63
63
63
68
78
98
118
146
177
206
224
214
191
153
111
67
27
2
-13
-21
-26
-30
-32
-34
-35
-37
-39
-41
-42
-44
-47
-48
-52
-53
-54
-56
-56
-57
-58
-61
-62
-64
-65
-65
-66
-67
-69
-69
-70
-70
-71
-71
-69
-68
-67
-67
-65
-64
-62
-60
-59
-58
-55
-51
-49
-48
-45
-42
-40
-38
-35
-33
-31
-30
-29
-26
-24
-22
-20
-18
-17
-15
-14
-11
-10
-9
-7
-6
-5
-5
-4
-5
-5
-5
-5
-5
-5
-5
-5
-4
-4
-3
-2
-1
-1
-1
0
0
0
0
0
0
0
0
1
1
2
2
1
2
2
2
2
2
2
1
1
1
2
2
3
3
2
2
2
3
2
3
2
1
0
0
0
0
0
0
0
0
1
3
6
9
12
15
17
17
16
15
14
12
10
9
10
9
7
5
1
-1
-5
-8
-10
-12
-15
-17
-17
-18
-18
-17
-16
-15
-16
-16
-16
-16
-16
-16
-16
-15
-14
-15
-15
-17
-20
-24
-28
-33
-34
-30
-14
14
51
94
134
173
203
220
218
197
159
112
64
29
10
0
-3
-7
-9
-11
-15
-19
-21
-21
-22
-22
-23
-24
-25
-26
-27
-28
-29
-30
-30
-31
-32
-33
-33
-33
-33
-34
-34
-35
-35
-34
-34
-33
-32
-30
-31
-29
-28
-27
-26
-25
-25
-24
-23
-21
-20
-20
-19
-19
-18
-16
-15
-14
-13
-12
-11
-9
-9
-8
-8
-7
-6
-5
-5
-6
-5
-4
-3
-3
-3
-3
-2
-2
-2
-2
-3
-4
-4
-4
-5
-7
-8
-9
-9
-10
-11
-11
-13
-14
-15
-17
-18
-20
-21
-22
-23
-24
-24
-23
-23
-22
-22
-21
-20
-17
-12
-9
-5
-2
0
0
1
0
0
0
3
4
3
0
-1
-3
-5
-6
-8
-9
-11
-11
-11
-12
-12
-12
-11
-11
-10
-10
-10
-10
-9
-8
-9
-10
-9
-8
-7
-7
-8
-10
-11
-15
-20
-25
-29
-29
-21
0
32
75
114
155
187
215
227
216
190
145
97
54
24
8
0
-4
-7
-10
-12
-14
-15
-16
-15
-14
-14
-14
-14
-15
-15
-16
-17
-17
-17
-18
-20
-20
-22
-23
-23
-23
-23
-24
-25
-26
-26
-26
-26
-25
-25
-25
-24
-24
-24
-24
-23
-23
-22
-22
-21
-21
-20
-20
-20
-19
-18
-16
-16
-15
-14
-13
-12
-11
-11
-11
-10
-10
-11
-11
-12
-12
-12
-11
-11
-11
-11
-11
-11
-11
-10
-12
-12
-13
-14
-15
-16
-16
-17
-18
-19
-20
-20
-21
-22
-22
-21
-21
-21
-21
-20
-21
-21
-20
-18
-18
-16
-15
-14
-13
-9
-6
-2
1
4
6
6
5
4
1
0
-1
-1
-3
-4
-5
-8
-11
-13
-15
-18
-20
-21
-23
-23
-23
-25
-27
-28
-25
-22
-20
-19
-19
-19
-19
-19
-18
-17
-17
-17
-18
-21
-24
-29
-34
-39
-40
-34
-18
12
49
89
131
167
201
221
221
207
172
132
81
40
12
-2
-9
-13
-15
-18
-22
-26
-28
-30
-30
-30
-31
-32
-33
-35
-36
-37
-36
-36
-37
-38
-39
-39
-39
-41
-41
-40
-39
-39
-38
-38
-37
-37
-36
-35
-33
-32
-31
-30
-29
-28
-28
-28
-28
-28
-27
-26
-25
-24
-23
-22
-21
-20
-18
-17
-15
-14
-14
-12
-11
-11
-11
-11
-11
-11
-11
-11
-11
-10
-9
-9
-9
-9
-8
-7
-6
-6
-6
-5
-6
-7
-7
-8
-9
-9
-9
-10
-10
-11
-12
-12
-13
-14
-14
-14
-14
-14
-13
-12
-12
-9
-8
-7
-7
-6
-4
-3
0
2
3
4
4
6
9
14
22
32
44
54
62
62
60
55
53
51
48
47
49
58
71
92
114
143
176
207
227
224
207
169
125
76
34
9
-5
-13
-18
-23
-26
-30
-32
-34
-36
-37
-39
-40
-42
-43
-45
-46
-48
-49
-50
-51
-52
-54
-55
-57
-58
-61
-63
-65
-66
-66
-66
-67
-67
-68
-68
-68
-67
-67
-67
-66
-65
-65
-65
-63
-63
-62
-61
-59
-57
-55
-52
-50
-47
-46
-43
-42
-40
-39
-37
-36
-36
-35
-34
-34
-33
-32
-31
-31
-30
-30
-30
-30
-30
-30
-30
-31
-30
-29
-29
-30
-31
-31
-31
-31
-31
-30
-29
-29
-28
-27
-27
-26
-25
-24
-23
-23
-22
-22
-21
-19
-19
-18
-17
-16
-16
-15
-15
-16
-16
-15
-15
-14
-14
-13
-13
-13
-13
-13
-13
-13
-13
-11
-10
-11
-10
-9
-8
-5
0
4
8
10
10
10
8
8
7
6
4
3
3
1
-1
-5
-7
-10
-13
-15
-18
-19
-21
-22
-22
-23
-23
-23
-23
-23
-22
-22
-22
-22
-21
-20
-20
-20
-20
-20
-21
-23
-26
-31
-35
-39
-40
-35
-15
15
58
99
141
178
203
216
204
179
140
91
46
13
-2
-10
-13
-16
-19
-21
-23
-25
-28
-29
-29
-30
-30
-32
-32
-34
-35
-34
-34
-34
-36
-36
-37
-38
-39
-40
-40
-40
-40
-40
-40
-40
-38
-36
-35
-34
-33
-33
-33
-31
-29
-27
-26
-25
-24
-22
-21
-21
-19
-18
-16
-14
-14
-13
-11
-10
-8
-8
-7
-6
-5
-4
-3
-4
-4
-3
-2
-3
-2
-1
0
0
1
1
0
0
0
0
-1
-1
-1
-3
-4
-6
-5
-6
-7
-9
-9
-10
-11
-11
-12
-14
-15
-15
-16
-17
-17
-17
-18
-18
-18
-19
-18
-15
-11
-5
-1
1
3
4
4
4
2
1
1
1
2
1
0
-2
-4
-5
-4
-2
1
7
6
-3
-17
-29
-37
-46
-58
-74
-95
-112
-122
-124
-124
-124
-126
-128
-131
-136
-137
-139
-137
-137
-135
-130
-126
-121
-119
-109
-95
-77
-58
-44
-32
-21
-7
7
17
22
25
28
31
35
41
47
53
58
62
66
69
72
73
77
79
83
86
88
91
93
95
94
96
95
94
94
93
94
91
91
88
87
84
81
78
73
71
67
65
61
60
58
56
54
50
47
43
41
37
35
34
31
29
27
25
23
23
22
20
19
18
18
16
16
15
14
13
13
13
12
11
10
10
10
9
9
9
10
10
11
11
11
10
10
11
10
11
10
11
10
11
11
10
10
10
10
9
9
8
8
7
7
8
8
8
8
8
8
10
15
17
21
23
25
25
25
24
23
22
21
21
20
20
18
14
11
7
5
2
0
-2
-3
-3
-4
-5
-5
-6
-8
-9
-8
-8
-7
-7
-7
-7
-7
-7
-6
-7
-7
-8
-8
-12
-16
-19
-23
-28
-26
-16
8
46
89
134
174
205
225
224
205
172
128
82
42
17
3
-2
-6
-8
-11
-14
-16
-18
-19
-20
-20
-20
-22
-22
-21
-23
-26
-29
-28
-29
-30
-30
-31
-32
-34
-36
-37
-37
-37
-37
-37
-37
-36
-36
-34
-34
-32
-31
-31
-30
-30
-28
-28
-28
-28
-28
-27
-27
-25
-24
-23
-23
-21
-20
-18
-17
-15
-13
-12
-11
-10
-9
-8
-8
-8
-7
-8
-8
-8
-8
-7
-7
-7
-6
-6
-6
-7
-7
-8
-8
-9
-10
-11
-12
-12
-12
-13
-14
-14
-14
-14
-14
-15
-14
-15
-15
-15
-13
-12
-11
-10
-8
-7
-5
-3
0
6
10
15
17
18
18
18
17
17
17
17
17
15
13
10
7
5
3
1
0
-3
-5
-6
-7
-9
-9
-9
-9
-9
-9
-10
-11
-11
-11
-11
-12
-12
-13
-14
-14
-17
-20
-24
-30
-36
-41
-41
-34
-15
14
54
91
130
164
191
208
200
178
140
95
52
19
0
-10
-16
-18
-21
-23
-25
-25
-27
-27
-27
-27
-27
-28
-29
-29
-29
-30
-30
-30
-31
-30
-30
-30
-32
-32
-34
-34
-35
-35
-35
-35
-34
-34
-34
-33
-32
-32
-32
-30
-30
-28
-27
-26
-26
-24
-24
-22
-20
-20
-21
-20
-19
-19
-19
-17
-17
-17
-18
-17
-18
-18
-17
-16
-16
-17
-16
-16
-16
-16
-16
-16
-16
-15
-15
-16
-17
-18
-19
-19
-19
-20
-20
-20
-21
-22
-22
-23
-23
-23
-24
-24
-24
-24
-24
-24
-24
-24
-23
-24
-23
-23
-22
-22
-21
-18
-14
-9
-5
-2
-1
-1
-2
-3
-4
-5
-5
-6
-7
-9
-11
-14
-17
-21
-23
-26
-27
-28
-28
-28
-28
-27
-28
-28
-28
-28
-27
-27
-26
-26
-25
-25
-24
-24
-24
-24
-25
-27
-29
-33
-37
-42
-47
-46
-38
-16
17
57
99
137
172
199
205
196
167
130
83
39
9
-7
-14
-18
-20
-23
-25
-27
-28
-30
-31
-32
-34
-35
-36
-37
-39
-39
-39
-40
-40
-40
-42
-43
-45
-45
-46
-47
-48
-48
-48
-48
-47
-46
-45
-44
-44
-42
-42
-41
-39
-37
-36
-36
-35
-34
-33
-32
-30
-29
-27
-25
-24
-22
-21
-20
-18
-17
-17
-16
-15
-15
-14
-15
-14
-14
-14
-14
-15
-15
-15
-14
-13
-13
-12
-12
-11
-12
-12
-13
-14
-15
-15
-15
-16
-17
-18
-19
-20
-21
-21
-22
-21
-20
-21
-22
-22
-21
-21
-21
-20
-21
-21
-22
-23
-24
-23
-19
-14
-10
-6
-3
-1
3
10
20
33
43
53
57
58
55
51
48
44
42
41
45
54
70
89
113
139
167
193
203
201
176
143
101
57
21
-4
-18
-27
-33
-37
-41
-44
-46
-48
-51
-53
-54
-56
-57
-59
-60
-61
-62
-63
-65
-66
-68
-69
-70
-72
-73
-74
-75
-77
-78
-79
-79
-79
-78
-77
-77
-76
-77
-76
-75
-73
-73
-73
-72
-70
-67
-65
-63
-60
-58
-56
-55
-52
-50
-48
-46
-44
-43
-41
-40
-38
-36
-35
-33
-32
-30
-28
-27
-25
-25
-24
-24
-23
-24
-24
-23
-23
-23
-23
-24
-24
-24
-24
-24
-24
-24
-24
-24
-24
-23
-22
-22
-22
-22
-21
-21
-21
-21
-21
-21
-20
-19
-19
-19
-18
-19
-19
-19
-18
-19
-18
-17
-17
-17
-18
-18
-18
-18
-19
-19
-19
-19
-19
-19
-19
-18
-18
-18
-17
-17
-17
-14
-12
-7
-3
0
3
4
4
3
1
0
-2
-2
-2
-3
-5
-8
-12
-14
-18
-20
-22
-24
-25
-27
-27
-28
-28
-28
-27
-27
-27
-27
-27
-27
-26
-25
-24
-24
-23
-24
-24
-25
-26
-29
-34
-38
-43
-44
-37
-19
11
53
95
140
172
198
205
197
175
137
91
46
13
-4
-12
-16
-20
-23
-26
-29
-30
-32
-33
-33
-33
-33
-34
-34
-35
-35
-36
-36
-37
-38
-39
-39
-39
-40
-40
-41
-41
-41
-41
-41
-41
-41
-41
-40
-40
-38
-37
-36
-35
-34
-33
-32
-30
-29
-28
-27
-24
-22
-20
-20
-19
-18
-18
-18
-17
-15
-14
-13
-12
-11
-10
-10
-9
-9
-7
-7
-6
-6
-6
-5
-7
-7
-8
-8
-9
-9
-9
-10
-8
-9
-10
-12
-13
-13
-14
-15
-17
-18
-21
-22
-23
-24
-25
-27
-28
-30
-32
-32
-32
-31
-31
-29
-28
-27
-27
-25
-22
-17
-13
-10
-6
-5
-5
-5
-5
-6
-6
-6
-5
-4
-4
-6
-9
-11
-14
-16
-17
-18
-17
-18
-19
-20
-20
-20
-20
-21
-21
-20
-19
-18
-18
-17
-17
-17
-17
-19
-19
-18
-20
-23
-26
-30
-36
-40
-39
-28
-2
31
70
109
144
179
204
214
211
185
152
102
55
21
1
-7
-11
-13
-16
-17
-18
-19
-20
-19
-19
-20
-21
-22
-23
-23
-24
-23
-23
-23
-23
-23
-22
-23
-26
-28
-28
-28
-27
-27
-27
-28
-26
-23
-23
-23
-23
-23
-23
-24
-24
-25
-25
-24
-24
-23
-23
-22
-20
-18
-16
-13
-13
-13
-13
-13
-11
-10
-9
-8
-7
-8
-8
-8
-7
-7
-6
-5
-5
-5
-6
-5
-5
-5
-6
-6
-7
-7
-7
-8
-8
-9
-11
-11
-11
-11
-12
-14
-14
-14
-14
-13
-13
-15
-16
-16
-17
-17
-17
-17
-16
-14
-14
-13
-13
-12
-11
-8
-3
0
5
7
10
9
8
8
6
5
3
2
1
1
-1
-2
-4
-7
-9
-11
-12
-14
-16
-16
-16
-16
-15
-15
-15
-15
-15
-16
-14
-14
-15
-16
-17
-16
-16
-16
-17
-17
-18
-22
-27
-32
-36
-34
-21
3
40
79
119
155
188
211
221
210
182
136
85
40
13
0
-6
-9
-12
-14
-16
-19
-22
-23
-24
-24
-24
-25
-28
-29
-31
-33
-33
-33
-32
-34
-35
-36
-37
-38
-39
-38
-38
-37
-38
-37
-36
-36
-36
-35
-34
-33
-33
-32
-31
-30
-29
-28
-27
-25
-24
-23
-20
-19
-18
-17
-16
-14
-12
-11
-10
-8
-6
-6
-6
-5
-5
-5
-5
-5
-5
-5
-6
-6
-6
-5
-4
-4
-4
-2
-2
-4
-7
-8
-8
-8
-9
-10
-11
-13
-15
-16
-17
-17
-18
-17
-17
-16
-16
-15
-15
-14
-14
-13
-13
-13
-13
-16
-17
-17
-15
-9
-3
0
4
9
15
24
34
44
55
64
68
70
68
65
62
58
56
56
63
74
91
113
137
167
196
219
221
205
171
133
90
53
23
3
-9
-17
-22
-26
-29
-30
-33
-36
-38
-40
-41
-43
-44
-46
-49
-50
-53
-53
-55
-56
-58
-59
-60
-61
-61
-63
-64
-65
-66
-67
-67
-66
-66
-65
-65
-63
-63
-62
-61
-60
-58
-57
-55
-54
-53
-51
-49
-46
-43
-40
-38
-35
-34
-31
-28
-26
-23
-21
-19
-18
-16
-13
-11
-10
-8
-8
-7
-6
-6
-5
-4
-4
-3
-3
-4
-5
-5
-6
-6
-5
-4
-5
-4
-4
-6
-8
-8
-7
-8
-7
-6
-6
-5
-5
-6
-7
-7
-7
-7
-7
-8
-9
-8
-8
-7
-6
-6
-7
-6
-6
-6
-7
-7
-7
-7
-6
-3
-2
-2
-3
-3
-4
-4
-4
-4
-4
-4
-3
-3
-2
0
4
11
14
14
13
13
13
11
11
7
6
6
4
1
0
-3
-7
-10
-14
-17
-20
-23
-24
-26
-27
-28
-29
-30
-31
-31
-33
-33
-34
-34
-35
-36
-36
-37
-38
-40
-41
-43
-47
-52
-58
-62
-62
-47
-20
11
47
83
122
156
176
182
167
138
98
50
12
-14
-28
-34
-35
-38
-39
-40
-42
-44
-45
-46
-45
-46
-47
-47
-47
-47
-48
-47
-47
-47
-46
-45
-45
-45
-45
-44
-44
-44
-43
-44
-44
-43
-43
-41
-41
-39
-38
-37
-36
-35
-33
-32
-30
-28
-27
-26
-25
-25
-23
-22
-21
-20
-20
-18
-16
-15
-13
-11
-9
-8
-7
-6
-6
-5
-4
-4
-4
-4
-3
-3
-3
-4
-4
-3
-4
-5
-6
-7
-8
-8
-8
-9
-10
-12
-13
-15
-16
-17
-18
-18
-20
-21
-22
-22
-23
-24
-24
-25
-26
-26
-25
-24
-24
-23
-23
-20
-16
-11
-6
-4
-3
-2
-3
-3
-3
-3
-3
-3
-2
-2
-3
-6
-8
-11
-12
-14
-15
-18
-18
-18
-21
-22
-21
-18
-17
-16
-15
-15
-16
-17
-16
-16
-15
-15
-14
-14
-15
-16
-19
-23
-28
-33
-38
-39
-32
-13
12
49
87
124
160
190
211
213
198
166
123
75
35
9
-1
-7
-11
-12
-14
-16
-17
-18
-18
-19
-18
-18
-20
-20
-20
-20
-21
-21
-23
-24
-25
-26
-26
-26
-26
-26
-27
-27
-28
-28
-30
-30
-31
-31
-31
-31
-30
-28
-28
-27
-27
-26
-25
-24
-22
-22
-23
-24
-25
-24
-23
-21
-18
-16
-16
-15
-15
-13
-12
-10
-8
-8
-8
-8
-8
-8
-8
-7
-7
-6
-6
-6
-7
-6
-6
-6
-5
-6
-6
-6
-5
-5
-7
-9
-11
-11
-11
-12
-12
-13
-13
-13
-12
-11
-11
-12
-12
-11
-10
-9
-9
-9
-9
-9
-9
-8
-6
-3
0
3
7
9
11
11
11
10
9
7
5
5
5
6
5
2
0
-3
-5
-6
-7
-7
-8
-8
-9
-10
-10
-9
-9
-9
-9
-9
-9
-9
-8
-9
-8
-7
-5
-4
-5
-8
-12
-17
-22
-29
-33
-31
-17
6
37
76
113
150
186
211
227
217
192
156
107
61
27
9
2
-1
-4
-7
-9
-12
-15
-17
-18
-17
-15
-13
-15
-17
-19
-20
-21
-22
-22
-23
-23
-24
-26
-27
-27
-29
-30
-30
-29
-29
-28
-27
-25
-25
-25
-24
-24
-23
-22
-21
-19
-19
-19
-17
-15
-13
-13
-12
-11
-9
-8
-8
-6
-4
-1
-1
0
-1
-1
-1
0
2
2
3
4
4
4
4
5
4
2
1
0
0
0
1
1
1
2
2
3
2
1
1
1
0
0
-2
-3
-3
-3
-4
-4
-4
-4
-4
-4
-3
-4
-5
-7
-10
-11
-11
-9
-7
0
4
9
15
22
28
38
51
62
71
73
75
74
73
71
67
65
63
68
76
93
112
137
166
197
222
224
216
185
144
97
51
20
1
-8
-14
-19
-22
-26
-27
-29
-32
-33
-34
-36
-40
-42
-41
-43
-45
-46
-48
-50
-52
-55
-56
-57
-59
-60
-62
-62
-64
-63
-63
-63
-63
-63
-63
-62
-62
-61
-59
-58
-57
-57
-56
-54
-53
-50
-47
-44
-42
-40
-38
-36
-33
-31
-28
-25
-23
-20
-18
-16
-14
-12
-11
-10
-9
-8
-8
-7
-5
-4
-4
-5
-5
-5
-6
-5
-3
-4
-4
-4
-3
-2
-3
-4
-4
-4
-5
-4
-4
-5
-6
-5
-3
-3
-3
-2
-2
-2
-3
-4
-5
-4
-5
-5
-4
-3
-4
-3
-2
-2
-2
-2
-2
-2
-2
-1
-1
-1
-1
-1
0
0
0
0
0
0
0
0
0
0
0
2
3
7
11
15
18
20
20
19
18
16
15
13
13
12
11
8
5
2
-2
-6
-8
-9
-11
-11
-10
-11
-13
-14
-15
-15
-15
-15
-14
-14
-15
-15
-14
-13
-13
-12
-12
-14
-16
-20
-25
-31
-35
-36
-28
-8
22
63
102
144
176
201
210
200
175
134
85
42
13
0
-5
-8
-11
-13
-16
-18
-20
-21
-22
-23
-24
-25
-25
-26
-27
-28
-29
-29
-31
-31
-32
-33
-34
-34
-34
-34
-34
-34
-34
-34
-33
-32
-32
-30
-30
-28
-27
-25
-22
-20
-22
-23
-22
-21
-21
-20
-18
-18
-17
-15
-14
-13
-13
-12
-12
-9
-7
-6
-7
-5
-5
-5
-4
-4
-4
-3
-3
-3
-3
-2
-4
-5
-6
-6
-7
-7
-7
-7
-8
-8
-8
-9
-9
-9
-11
-12
-13
-14
-16
-17
-19
-20
-22
-24
-24
-25
-25
-25
-25
-25
-25
-24
-22
-20
-15
-10
-6
-3
-1
-1
-1
-1
-1
-3
-3
-4
-4
-5
-5
-7
-9
-10
-12
-14
-14
-14
-14
-14
-13
-13
-13
-13
-12
-12
-12
-11
-12
-12
-11
-11
-11
-11
-11
-11
-11
-13
-16
-19
-24
-29
-32
-30
-18
3
36
73
109
148
180
207
212
197
167
120
77
39
16
4
-1
-5
-9
-12
-14
-15
-14
-15
-17
-18
-19
-19
-19
-19
-20
-20
-21
-22
-24
-25
-27
-28
-28
-29
-28
-29
-29
-30
-30
-31
-32
-32
-32
-31
-31
-30
-31
-30
-30
-31
-30
-25
-20
-23
-26
-25
-24
-22
-21
-20
-19
-17
-15
-13
-11
-11
-11
-10
-10
-11
-8
-7
-6
-6
-6
-6
-6
-5
-4
-4
-4
-3
-4
-4
-5
-6
-6
-8
-9
-10
-9
-9
-9
-10
-10
-10
-10
-11
-12
-13
-14
-14
-13
-12
-12
-14
-13
-12
-9
-8
-10
-12
-11
-9
-6
-2
0
4
6
8
9
7
5
3
1
0
0
1
0
-2
-4
-8
-11
-13
-16
-20
-21
-20
-19
-20
-21
-20
-19
-17
-16
-15
-15
-14
-15
-15
-15
-17
-17
-17
-18
-20
-21
-22
-27
-33
-38
-37
-28
-6
24
59
95
132
165
193
210
210
192
159
118
68
30
7
-3
-8
-11
-12
-14
-16
-17
-19
-21
-24
-24
-25
-27
-28
-29
-29
-30
-30
-31
-32
-33
-34
-35
-35
-34
-35
-36
-37
-39
-38
-39
-37
-37
-36
-34
-34
-33
-33
-31
-30
-29
-28
-27
-26
-26
-23
-20
-17
-19
-20
-19
-17
-16
-17
-15
-12
-9
-7
-6
-6
-6
-5
-5
-5
-5
-4
-4
-5
-5
-5
-5
-4
-4
-3
-3
-3
-3
-4
-3
-4
-5
-6
-6
-5
-6
-6
-5
-5
-6
-8
-9
-12
-12
-13
-12
-11
-10
-10
-11
-11
-13
-13
-14
-15
-17
-18
-17
-14
-9
-3
0
5
10
15
24
33
45
55
63
68
69
69
65
62
58
56
57
60
71
87
108
133
166
200
222
225
208
177
132
87
43
14
-3
-12
-17
-21
-24
-26
-28
-31
-34
-36
-39
-43
-45
-43
-43
-45
-46
-48
-49
-49
-51
-53
-55
-56
-58
-60
-62
-64
-64
-64
-63
-65
-66
-65
-64
-62
-61
-60
-60
-59
-60
-59
-57
-57
-56
-54
-52
-51
-49
-47
-44
-42
-40
-37
-34
-32
-30
-27
-25
-23
-22
-20
-18
-17
-16
-15
-11
-9
-10
-13
-12
-12
-11
-11
-11
-10
-10
-10
-11
-11
-11
-11
-12
-12
-11
-12
-12
-12
-11
-10
-10
-10
-11
-10
-10
-9
-10
-9
-8
-8
-7
-6
-6
-6
-7
-6
-5
-6
-6
-6
-6
-6
-6
-5
-5
-5
-6
-6
-6
-6
-5
-5
-5
-5
-5
-4
-4
-3
-3
-2
-2
-1
0
2
5
9
12
14
15
14
12
11
9
9
7
7
6
5
2
0
-3
-7
-9
-12
-14
-16
-17
-17
-18
-18
-19
-19
-19
-19
-18
-18
-18
-19
-18
-17
-16
-16
-16
-15
-17
-19
-23
-28
-32
-35
-34
-27
-6
29
70
110
148
178
206
216
209
183
144
101
55
24
4
-4
-9
-12
-14
-17
-19
-21
-23
-24
-25
-25
-26
-27
-28
-29
-29
-30
-30
-30
-31
-32
-32
-33
-33
-33
-34
-34
-33
-32
-32
-32
-31
-29
-28
-26
-24
-24
-23
-22
-20
-19
-18
-18
-17
-15
-15
-15
-14
-14
-13
-12
-10
-9
-8
-7
-6
-5
-5
-4
-4
-3
-3
-3
-2
-2
-2
-2
-1
-1
-1
0
-1
-2
-2
-2
-2
-2
-3
-4
-5
-6
-7
-8
-10
-11
-13
-14
-15
-17
-18
-20
-21
-22
-22
-22
-22
-23
-23
-23
-22
-21
-21
-19
-15
-13
-8
-4
-1
0
1
2
0
0
-1
-1
-1
-1
-1
-2
-4
-6
-8
-11
-13
-15
-15
-16
-17
-18
-18
-18
-18
-18
-17
-17
-16
-16
-15
-14
-14
-13
-13
-13
-13
-13
-15
-18
-22
-27
-32
-36
-31
-16
13
51
92
130
167
198
219
223
208
177
135
89
47
22
8
3
0
-2
-5
-7
-9
-11
-11
-12
-12
-13
-15
-16
-16
-17
-18
-18
-18
-18
-18
-18
-19
-19
-20
-20
-21
-23
-24
-24
-24
-25
-25
-24
-23
-23
-23
-22
-22
-23
-23
-22
-22
-21
-19
-17
-17
-18
-18
-16
-15
-14
-14
-13
-12
-12
-11
-9
-8
-7
-7
-7
-7
-7
-7
-7
-6
-7
-8
-8
-8
-8
-7
-7
-7
-9
-11
-11
-12
-13
-13
-14
-15
-15
-16
-16
-16
-17
-18
-19
-20
-21
-21
-20
-20
-21
-22
-22
-21
-20
-18
-18
-17
-14
-9
-5
-2
0
1
2
2
2
2
2
2
0
0
-1
-3
-7
-11
-13
-16
-20
-23
-24
-26
-26
-26
-25
-26
-28
-27
-26
-24
-24
-24
-24
-23
-23
-24
-23
-23
-24
-24
-25
-27
-31
-37
-42
-44
-40
-23
1
39
77
117
151
182
202
205
193
163
124
77
35
8
-6
-12
-18
-22
-24
-27
-30
-33
-33
-34
-34
-34
-35
-35
-36
-37
-39
-39
-42
-43
-44
-45
-46
-47
-48
-50
-48
-47
-47
-46
-46
-46
-46
-45
-44
-42
-41
-39
-37
-36
-36
-36
-35
-34
-33
-32
-31
-30
-29
-28
-27
-25
-23
-21
-20
-19
-20
-20
-19
-18
-17
-18
-17
-17
-16
-15
-13
-13
-13
-12
-13
-14
-15
-15
-14
-12
-11
-10
-11
-12
-14
-15
-16
-16
-15
-13
-12
-12
-13
-16
-17
-17
-16
-17
-17
-16
-16
-16
-17
-17
-19
-20
-22
-23
-23
-22
-18
-12
-8
-3
0
6
15
25
38
51
61
65
64
62
61
65
63
60
58
61
67
79
99
121
154
187
217
228
215
185
144
100
57
24
3
-9
-16
-22
-27
-30
-33
-34
-37
-38
-39
-40
-42
-43
-43
-45
-47
-50
-52
-55
-56
-57
-59
-59
-61
-61
-65
-67
-69
-70
-70
-71
-71
-72
-70
-70
-68
-67
-67
-67
-66
-63
-60
-57
-55
-54
-53
-50
-49
-47
-44
-40
-36
-34
-32
-31
-29
-27
-23
-20
-18
-16
-14
-14
-13
-12
-11
-9
-7
-6
-5
-4
-2
-3
-3
-4
-4
-2
-2
-3
-3
-3
-4
-6
-6
-7
-7
-8
-8
-8
-8
-7
-5
-3
-2
-2
-3
-3
-2
-1
-1
-1
-1
-2
-2
-2
-1
-1
-1
-1
-2
-1
0
0
0
0
-1
-1
0
0
0
1
2
1
0
0
0
0
1
2
1
1
0
2
3
6
10
13
17
19
20
19
18
17
16
15
14
13
12
10
7
4
1
-2
-4
-8
-11
-13
-14
-14
-14
-13
-13
-13
-14
-14
-14
-13
-12
-12
-12
-12
-11
-12
-12
-13
-14
-15
-19
-24
-30
-34
-35
-30
-13
14
56
101
145
181
210
223
220
195
159
110
63
29
8
0
-5
-9
-12
-13
-15
-18
-20
-22
-23
-23
-24
-24
-25
-27
-28
-29
-29
-31
-31
-31
-32
-32
-34
-34
-35
-35
-35
-34
-34
-33
-32
-32
-31
-31
-28
-27
-26
-26
-25
-25
-24
-23
-23
-22
-22
-21
-21
-19
-18
-18
-16
-16
-16
-16
-16
-14
-13
-12
-12
-11
-10
-9
-8
-7
-7
-8
-7
-7
-7
-7
-7
-7
-8
-9
-10
-10
-11
-12
-12
-13
-15
-16
-17
-18
-18
-20
-20
-21
-23
-24
-26
-27
-28
-29
-31
-31
-31
-32
-31
-30
-30
-28
-27
-26
-24
-19
-15
-12
-9
-7
-7
-8
-8
-9
-8
-9
-8
-8
-9
-11
-13
-15
-17
-18
-20
-21
-21
-22
-22
-22
-21
-22
-23
-23
-23
-23
-23
-22
-21
-21
-21
-22
-23
-23
-23
-24
-27
-31
-37
-43
-46
-47
-38
-18
15
54
97
131
165
189
201
195
169
132
86
42
11
-5
-13
-18
-20
-22
-24
-26
-27
-29
-29
-28
-28
-29
-28
-29
-30
-31
-31
-32
-32
-32
-32
-32
-33
-33
-35
-36
-36
-37
-37
-37
-37
-37
-37
-38
-37
-37
-38
-37
-37
-36
-37
-35
-35
-34
-33
-32
-31
-30
-30
-30
-29
-28
-27
-27
-27
-26
-25
-24
-23
-21
-21
-20
-20
-19
-19
-18
-18
-19
-18
-19
-20
-20
-20
-21
-21
-21
-22
-22
-22
-23
-24
-25
-25
-26
-27
-28
-28
-28
-27
-28
-29
-29
-29
-28
-27
-27
-26
-25
-23
-22
-20
-16
-12
-8
-5
-3
-3
-4
-5
-6
-7
-8
-7
-6
-7
-9
-12
-15
-18
-21
-23
-26
-28
-30
-30
-30
-30
-29
-28
-27
-27
-27
-28
-28
-27
-28
-28
-27
-27
-26
-27
-27
-26
-28
-32
-39
-45
-51
-50
-40
-18
15
53
89
126
157
186
194
187
164
126
82
36
5
-11
-20
-24
-28
-30
-31
-34
-35
-37
-38
-39
-39
-40
-41
-42
-43
-43
-44
-44
-44
-45
-45
-46
-47
-48
-49
-50
-50
-49
-49
-49
-48
-47
-47
-46
-45
-45
-44
-42
-41
-40
-39
-38
-36
-34
-32
-31
-28
-26
-24
-22
-21
-21
-21
-21
-20
-19
-18
-17
-17
-16
-13
-12
-11
-11
-10
-10
-9
-7
-7
-7
-7
-6
-6
-6
-8
-9
-10
-10
-8
-7
-8
-11
-13
-16
-16
-16
-17
-18
-18
-17
-17
-17
-17
-17
-18
-17
-17
-17
-15
-12
-10
-9
-10
-11
-11
-8
-6
-3
-1
0
0
2
5
10
21
31
44
54
61
63
60
57
53
51
49
48
50
55
64
77
97
117
146
175
206
222
217
194
154
113
70
35
13
-1
-8
-14
-17
-19
-21
-22
-24
-27
-30
-31
-32
-34
-35
-36
-37
-40
-41
-44
-46
-46
-46
-46
-49
-52
-54
-56
-57
-58
-59
-59
-58
-58
-56
-55
-55
-55
-54
-53
-51
-49
-47
-46
-46
-46
-45
-43
-39
-36
-33
-30
-27
-27
-25
-22
-19
-16
-13
-10
-8
-5
-2
-1
0
0
1
2
2
4
5
5
6
6
6
6
5
6
5
6
6
6
5
5
5
5
5
5
6
9
10
11
9
8
8
9
9
10
10
10
10
12
13
13
13
12
12
11
12
11
11
12
12
12
11
10
9
10
11
14
14
14
15
15
16
16
16
17
17
18
20
23
26
31
35
35
34
31
29
28
28
26
24
23
21
20
17
14
10
7
4
1
0
0
0
0
0
0
0
0
0
-1
-2
-3
-4
-5
-3
-3
-3
-4
-3
-4
-6
-9
-12
-16
-20
-22
-15
4
33
69
106
142
177
207
230
230
212
178
134
85
45
20
9
4
0
-3
-6
-9
-11
-13
-13
-14
-15
-17
-19
-20
-20
-21
-23
-24
-25
-26
-27
-27
-27
-29
-30
-30
-30
-30
-31
-31
-31
-30
-29
-28
-27
-26
-24
-24
-24
-24
-24
-23
-22
-21
-20
-19
-19
-20
-20
-20
-19
-18
-17
-16
-15
-15
-14
-12
-12
-11
-10
-9
-9
-9
-9
-8
-7
-7
-8
-7
-7
-7
-7
-7
-7
-8
-8
-9
-9
-10
-11
-12
-13
-14
-16
-17
-18
-19
-21
-23
-23
-24
-24
-24
-25
-25
-26
-27
-28
-28
-28
-28
-28
-28
-28
-27
-25
-21
-16
-12
-10
-7
-6
-7
-8
-10
-10
-11
-11
-10
-10
-11
-14
-16
-18
-19
-21
-23
-24
-25
-26
-27
-27
-27
-26
-26
-26
-26
-25
-25
-25
-26
-25
-26
-26
-26
-24
-24
-25
-27
-32
-36
-42
-47
-45
-33
-10
24
65
103
144
175
202
207
198
172
131
85
38
9
-4
-11
-13
-16
-18
-19
-20
-23
-26
-26
-26
-27
-29
-30
-31
-32
-33
-35
-36
-37
-38
-39
-41
-42
-43
-43
-45
-45
-46
-46
-46
-46
-46
-46
-46
-45
-45
-44
-44
-44
-43
-41
-41
-39
-40
-41
-40
-39
-38
-38
-37
-37
-36
-36
-33
-33
-32
-30
-30
-29
-29
-27
-29
-28
-27
-26
-26
-26
-26
-26
-26
-27
-27
-27
-27
-28
-28
-28
-28
-29
-29
-29
-30
-31
-30
-30
-30
-29
-29
-31
-32
-32
-31
-31
-31
-31
-30
-29
-28
-28
-27
-24
-20
-17
-13
-11
-8
-8
-8
-9
-9
-10
-10
-10
-11
-12
-14
-16
-19
-21
-23
-26
-29
-31
-33
-34
-35
-35
-35
-35
-36
-35
-35
-35
-34
-34
-33
-33
-33
-33
-33
-32
-33
-33
-36
-40
-46
-51
-55
-57
-48
-27
6
49
90
131
166
189
200
187
162
119
67
24
-5
-19
-26
-30
-31
-34
-36
-37
-39
-41
-42
-42
-43
-43
-44
-45
-45
-45
-45
-45
-44
-45
-45
-45
-46
-47
-48
-47
-47
-47
-47
-46
-46
-45
-44
-43
-42
-42
-40
-39
-38
-38
-37
-36
-36
-35
-34
-33
-33
-32
-31
-32
-31
-30
-27
-27
-25
-24
-22
-22
-22
-21
-20
-18
-18
-17
-18
-18
-17
-17
-17
-17
-17
-17
-17
-17
-17
-17
-17
-17
-17
-19
-21
-23
-24
-24
-24
-25
-26
-27
-29
-29
-29
-28
-26
-25
-24
-24
-24
-24
-23
-23
-22
-20
-18
-14
-10
-9
-9
-10
-8
-3
5
16
30
43
50
54
51
49
45
44
41
38
37
38
45
59
81
107
138
170
197
208
197
174
134
94
50
14
-7
-22
-30
-36
-40
-42
-43
-44
-44
-46
-48
-50
-52
-53
-52
-52
-54
-56
-59
-61
-62
-63
-65
-65
-66
-68
-68
-70
-71
-74
-75
-75
-73
-71
-70
-70
-71
-71
-71
-70
-68
-66
-66
-65
-62
-58
-56
-55
-52
-49
-47
-44
-40
-37
-35
-31
-27
-25
-23
-21
-18
-15
-13
-12
-11
-11
-10
-9
-8
-8
-7
-5
-4
-6
-7
-8
-8
-7
-8
-9
-9
-9
-8
-8
-8
-8
-8
-8
-8
-7
-6
-7
-8
-8
-7
-6
-3
0
0
-4
-3
-4
-5
-5
-2
2
5
4
2
0
-1
-2
-2
-1
0
0
2
1
3
3
3
2
3
5
5
6
6
7
10
15
19
25
27
25
24
24
22
18
18
19
20
20
19
17
14
12
9
4
0
-3
-4
-3
-3
-4
-5
-6
-7
-8
-9
-9
-11
-11
-9
-7
-5
-3
-3
-2
-2
-3
-5
-10
-16
-20
-24
-25
-16
6
37
78
117
156
193
222
239
234
214
181
139
91
51
29
17
13
10
8
4
1
-1
-4
-7
-9
-10
-9
-7
-8
-11
-13
-14
-13
-13
-14
-15
-16
-17
-20
-22
-24
-25
-24
-24
-24
-23
-21
-20
-20
-19
-20
-20
-19
-19
-18
-14
-13
-12
-11
-11
-11
-11
-11
-12
-12
-10
-5
-2
-1
-1
0
0
0
0
0
2
3
5
6
6
5
4
4
4
6
6
5
5
6
8
6
3
2
3
1
0
1
-2
-3
-4
-5
-6
-8
-9
-10
-11
-12
-11
-11
-11
-12
-15
-19
-20
-20
-21
-21
-20
-20
-20
-18
-16
-13
-8
-4
0
2
5
5
2
0
2
4
2
3
3
3
1
-1
-3
-4
-5
-7
-8
-9
-10
-11
-11
-11
-11
-11
-10
-10
-9
-8
-7
-8
-8
-9
-8
-7
-6
-6
-6
-9
-13
-18
-24
-30
-32
-26
-8
22
59
99
137
169
201
215
217
199
166
126
76
39
14
1
-3
-6
-9
-11
-12
-14
-16
-17
-16
-15
-16
-18
-19
-20
-20
-20
-20
-21
-22
-22
-23
-24
-25
-26
-26
-26
-26
-27
-27
-28
-28
-28
-28
-28
-28
-27
-27
-27
-27
-27
-27
-27
-27
-26
-26
-26
-26
-25
-23
-22
-21
-21
-22
-21
-21
-20
-19
-19
-19
-18
-18
-18
-18
-19
-19
-20
-19
-20
-20
-21
-22
-21
-21
-20
-21
-20
-20
-21
-21
-22
-23
-23
-23
-24
-25
-26
-26
-26
-27
-28
-29
-28
-28
-28
-29
-28
-28
-27
-27
-27
-25
-23
-18
-14
-11
-9
-9
-9
-9
-9
-10
-11
-13
-14
-15
-16
-18
-20
-23
-27
-31
-32
-35
-36
-36
-36
-37
-37
-38
-40
-40
-40
-39
-39
-36
-36
-37
-38
-39
-39
-39
-39
-40
-42
-44
-48
-53
-58
-60
-60
-49
-27
7
47
87
125
158
179
185
170
143
104
58
17
-12
-25
-31
-34
-37
-41
-44
-47
-50
-51
-52
-52
-53
-54
-55
-57
-58
-59
-59
-58
-57
-58
-59
-59
-59
-58
-58
-58
-57
-56
-56
-56
-55
-54
-53
-53
-51
-52
-52
-52
-52
-51
-50
-49
-50
-49
-48
-47
-46
-45
-44
-42
-41
-40
-39
-38
-36
-35
-34
-33
-32
-31
-31
-30
-30
-29
-29
-30
-29
-30
-29
-29
-29
-29
-29
-28
-29
-30
-30
-30
-30
-32
-34
-35
-37
-38
-38
-40
-41
-43
-45
-45
-47
-48
-50
-50
-51
-51
-50
-49
-47
-45
-40
-36
-32
-32
-33
-35
-38
-39
-41
-40
-40
-38
-34
-30
-23
-15
-7
2
9
12
12
10
9
7
5
4
5
10
20
36
56
81
110
143
169
180
172
147
111
66
25
-10
-32
-44
-50
-53
-56
-59
-60
-62
-63
-65
-67
-67
-68
-69
-71
-71
-73
-74
-76
-76
-77
-79
-80
-83
-84
-85
-84
-85
-86
-85
-86
-86
-87
-86
-85
-83
-81
-81
-80
-81
-81
-80
-79
-77
-75
-73
-72
-68
-66
-63
-63
-59
-55
-51
-47
-45
-42
-41
-38
-36
-33
-32
-33
-33
-32
-30
-29
-28
-27
-27
-25
-24
-24
-23
-22
-22
-22
-21
-19
-21
-23
-25
-25
-24
-24
-24
-23
-23
-23
-24
-24
-24
-23
-22
-20
-20
-20
-19
-20
-21
-21
-20
-19
-19
-18
-16
-14
-14
-15
-17
-17
-16
-15
-14
-14
-13
-13
-13
-11
-9
-7
-5
-3
0
1
3
5
7
8
7
7
5
4
4
4
3
2
1
0
-2
-5
-6
-7
-10
-13
-15
-16
-17
-18
-18
-18
-18
-19
-18
-18
-16
-15
-14
-14
-14
-14
-13
-11
-11
-13
-17
-23
-29
-33
-33
-24
-4
23
62
97
136
170
199
220
221
208
176
135
88
45
18
4
1
0
0
-1
-4
-8
-10
-10
-11
-11
-12
-11
-10
-12
-13
-14
-14
-14
-12
-11
-11
-12
-13
-14
-16
-18
-19
-19
-18
-17
-15
-14
-13
-11
-9
-8
-7
-7
-7
-8
-6
-2
-1
0
0
0
0
-1
0
1
4
6
7
7
8
8
10
12
12
13
13
15
15
15
15
15
15
15
15
15
16
18
19
19
17
17
17
17
15
14
13
12
12
11
11
11
10
9
7
6
6
6
5
6
7
6
3
0
0
-1
0
0
-1
-3
-3
-2
0
4
8
13
16
17
16
14
12
10
11
11
14
14
13
11
9
9
8
7
5
2
0
-1
-1
-1
0
1
2
2
2
3
3
3
3
4
4
4
2
2
3
2
-1
-5
-10
-16
-19
-15
0
30
72
113
152
188
219
242
243
228
194
152
105
62
37
23
18
15
13
11
8
7
5
4
5
5
3
2
1
0
-1
-2
-1
-1
-2
-3
-5
-5
-6
-7
-8
-8
-9
-11
-11
-12
-12
-12
-11
-9
-8
-8
-9
-9
-10
-10
-9
-8
-7
-6
-5
-4
-4
-4
-3
-1
0
0
2
3
2
1
0
0
1
1
2
3
3
2
2
2
3
3
3
3
1
1
3
4
4
3
2
2
0
0
0
-2
-2
-3
-3
-3
-3
-4
-6
-7
-8
-10
-10
-9
-8
-8
-8
-9
-9
-10
-9
-7
-5
0
1
5
8
10
11
12
12
10
9
8
8
7
7
4
2
-1
-4
-7
-9
-11
-12
-12
-13
-15
-15
-16
-16
-15
-16
-17
-19
-19
-16
-15
-15
-15
-15
-16
-16
-17
-19
-21
-25
-30
-35
-40
-39
-25
1
40
80
121
154
186
206
210
193
161
115
65
26
3
-7
-11
-14
-17
-19
-22
-24
-26
-26
-26
-26
-27
-27
-28
-30
-31
-33
-32
-33
-33
-34
-34
-35
-35
-35
-35
-35
-36
-36
-36
-37
-37
-36
-33
-32
-30
-29
-29
-30
-31
-31
-30
-28
-27
-24
-24
-25
-26
-26
-25
-22
-19
-16
-15
-15
-16
-18
-18
-16
-12
-9
-9
-10
-10
-11
-12
-12
-11
-11
-11
-10
-9
-10
-11
-11
-11
-11
-12
-13
-13
-14
-15
-17
-18
-20
-21
-21
-20
-19
-18
-19
-21
-21
-22
-20
-19
-18
-19
-22
-23
-21
-17
-14
-10
-5
-1
1
4
9
17
29
42
53
61
64
62
60
55
52
47
46
49
55
67
83
107
134
165
197
218
222
203
168
123
77
35
6
-9
-16
-21
-25
-28
-31
-33
-34
-36
-38
-40
-41
-41
-42
-43
-45
-46
-49
-51
-53
-55
-54
-54
-56
-60
-61
-62
-64
-64
-66
-65
-64
-62
-63
-63
-62
-62
-61
-61
-58
-57
-56
-53
-49
-47
-47
-45
-45
-42
-38
-35
-30
-27
-24
-22
-20
-17
-12
-10
-8
-6
-5
-6
-5
-4
-2
-1
0
1
0
-1
-2
-1
0
0
-1
-1
0
0
0
0
-1
-1
-1
0
0
0
0
0
0
0
0
0
0
0
1
2
3
5
6
7
6
4
3
2
2
3
4
5
6
6
6
6
7
7
6
4
4
6
7
9
10
9
8
7
9
11
13
13
16
20
24
25
24
21
20
22
22
20
19
20
22
21
19
14
11
8
7
5
4
4
3
2
0
-1
-2
-2
-3
-2
-1
-3
-3
-2
-1
-1
-1
0
0
-2
-8
-13
-16
-21
-24
-25
-19
1
34
75
117
153
189
215
230
224
197
161
109
65
32
14
5
0
-3
-6
-8
-11
-13
-15
-16
-17
-18
-19
-21
-21
-21
-22
-23
-23
-24
-24
-25
-26
-27
-27
-27
-27
-28
-28
-28
-28
-28
-29
-28
-27
-24
-23
-23
-23
-23
-23
-22
-21
-21
-21
-20
-18
-17
-16
-15
-15
-14
-13
-11
-10
-10
-10
-9
-8
-6
-5
-6
-6
-5
-5
-5
-4
-3
-3
-3
-2
-2
-2
-2
-3
-4
-3
-2
-4
-5
-5
-7
-8
-9
-10
-12
-13
-13
-15
-17
-18
-19
-20
-21
-23
-25
-24
-24
-25
-25
-27
-28
-28
-28
-28
-26
-23
-19
-15
-11
-8
-8
-7
-7
-7
-7
-6
-6
-6
-2
-2
-6
-11
-14
-15
-17
-18
-20
-20
-21
-21
-22
-21
-21
-22
-22
-22
-22
-21
-21
-20
-19
-18
-19
-20
-21
-21
-21
-24
-30
-33
-36
-41
-43
-41
-27
0
39
78
112
145
174
199
207
199
171
130
78
36
9
-4
-10
-13
-17
-19
-21
-23
-24
-26
-26
-25
-25
-25
-26
-26
-26
-26
-27
-27
-27
-27
-28
-27
-29
-29
-30
-31
-31
-32
-31
-31
-31
-32
-33
-33
-33
-32
-32
-30
-30
-30
-31
-31
-31
-30
-29
-29
-27
-26
-25
-25
-23
-22
-21
-21
-23
-25
-24
-20
-17
-15
-15
-15
-15
-15
-15
-14
-12
-13
-14
-15
-14
-13
-13
-12
-13
-15
-15
-14
-13
-13
-14
-15
-15
-17
-18
-18
-18
-18
-19
-19
-20
-21
-21
-21
-21
-21
-20
-20
-19
-17
-16
-16
-14
-10
-5
-1
1
1
0
-2
-3
-4
-6
-6
-6
-7
-10
-13
-15
-18
-20
-23
-26
-28
-28
-27
-29
-29
-29
-29
-28
-28
-28
-27
-26
-23
-22
-22
-21
-20
-20
-18
-17
-17
-22
-28
-32
-37
-40
-41
-34
-16
17
54
95
132
167
194
202
197
170
133
87
43
14
-2
-11
-16
-20
-24
-28
-31
-34
-35
-34
-33
-34
-37
-38
-40
-40
-39
-39
-39
-41
-44
-47
-48
-49
-48
-48
-49
-48
-47
-48
-50
-49
-48
-48
-48
-48
-45
-43
-43
-42
-40
-37
-34
-35
-36
-35
-34
-34
-34
-33
-30
-28
-28
-27
-25
-22
-19
-16
-15
-15
-14
-14
-17
-18
-12
-7
-7
-7
-7
-7
-7
-9
-11
-12
-8
-7
-7
-8
-9
-12
-18
-20
-16
-12
-13
-14
-14
-15
-14
-15
-17
-19
-17
-15
-15
-16
-17
-17
-15
-12
-12
-12
-9
-4
0
1
2
2
1
0
0
-1
-2
0
6
11
17
25
32
40
47
53
54
53
54
55
54
48
46
49
57
66
82
103
127
160
193
225
228
209
176
132
89
47
18
0
-11
-17
-22
-26
-29
-30
-32
-35
-40
-43
-45
-47
-48
-52
-54
-53
-55
-57
-61
-63
-66
-65
-64
-67
-69
-71
-72
-74
-76
-80
-81
-79
-77
-74
-74
-71
-71
-71
-71
-69
-68
-66
-63
-60
-56
-57
-56
-53
-49
-46
-45
-43
-40
-36
-35
-33
-32
-30
-27
-24
-22
-22
-22
-22
-19
-18
-17
-16
-15
-13
-10
-8
-9
-13
-14
-16
-15
-15
-13
-12
-12
-12
-14
-16
-17
-17
-16
-13
-12
-12
-14
-15
-13
-12
-10
-8
-5
-6
-6
-7
-5
-4
-1
2
3
-1
-5
-5
-4
-2
-2
-2
-2
-3
-2
-1
0
0
0
0
2
8
11
14
14
17
19
22
24
22
22
21
20
17
18
17
16
15
12
10
9
7
4
2
0
-4
-6
-6
-6
-7
-8
-7
-5
-3
-4
-6
-9
-10
-12
-11
-8
-7
-5
-5
-7
-12
-17
-23
-28
-27
-18
3
34
75
113
149
182
209
221
217
196
160
114
69
38
19
10
6
2
-2
-5
-7
-10
-13
-13
-12
-11
-11
-12
-13
-15
-16
-17
-16
-18
-19
-20
-21
-21
-24
-24
-22
-19
-19
-18
-17
-14
-13
-15
-16
-16
-17
-16
-14
-14
-14
-14
-14
-14
-13
-13
-11
-9
-8
-9
-10
-8
-5
-2
-3
-3
-1
1
1
0
0
0
0
0
-1
0
2
2
1
1
3
2
2
3
4
3
2
2
1
4
6
2
-2
-4
-6
-5
-3
-1
4
9
7
-3
-19
-30
-40
-48
-57
-71
-89
-111
-119
-122
-121
-120
-121
-119
-121
-122
-126
-126
-128
-127
-126
-124
-117
-114
-114
-122
-129
-131
-125
-111
-106
-106
-110
-110
-110
-108
-103
-95
-82
-64
-41
-18
7
27
43
54
61
63
67
73
78
83
87
92
94
99
101
105
106
107
109
108
110
108
109
108
111
110
109
108
104
103
99
95
89
87
84
79
74
70
67
63
60
56
50
44
38
35
31
29
26
23
20
16
13
10
9
6
5
3
3
2
1
1
0
0
0
0
-1
-1
-1
-1
0
-1
0
0
0
-1
-3
-2
-1
0
-2
-2
-3
-2
-2
-1
-1
-1
-1
-1
-2
-6
-10
-10
-7
-5
-5
-5
-5
-6
-7
-7
-8
-9
-10
-10
-11
-12
-13
-14
-15
-16
-16
-16
-17
-16
-17
-18
-19
-20
-21
-21
-20
-21
-21
-22
-23
-23
-23
-21
-21
-21
-21
-19
-16
-13
-10
-8
-6
-6
-7
-8
-8
-10
-12
-11
-12
-12
-13
-17
-22
-25
-27
-30
-33
-38
-42
-40
-41
-43
-43
-43
-43
-43
-43
-43
-43
-42
-41
-41
-41
-41
-42
-42
-43
-44
-49
-52
-55
-59
-56
-44
-19
16
58
103
140
167
183
182
169
134
90
45
8
-15
-27
-31
-31
-33
-35
-37
-38
-39
-39
-40
-42
-42
-43
-43
-44
-44
-44
-46
-47
-48
-47
-46
-47
-48
-49
-50
-52
-54
-55
-53
-53
-53
-54
-54
-54
-53
-52
-53
-53
-53
-55
-56
-57
-56
-55
-53
-52
-51
-53
-54
-52
-50
-48
-49
-49
-48
-47
-46
-47
-46
-45
-41
-40
-42
-46
-41
-33
-29
-28
-28
-28
-29
-28
-27
-25
-21
-17
-17
-18
-19
-22
-24
-22
-19
-19
-20
-22
-24
-24
-24
-24
-25
-27
-28
-27
-25
-23
-21
-20
-21
-22
-24
-27
-29
-27
-23
-19
-15
-7
-3
-3
-7
-10
-11
-11
-11
-11
-12
-13
-15
-17
-18
-19
-21
-26
-29
-30
-31
-33
-34
-36
-37
-36
-36
-36
-38
-37
-38
-37
-37
-38
-42
-44
-40
-36
-35
-36
-35
-36
-44
-52
-57
-60
-59
-45
-19
19
59
97
130
162
186
200
193
171
132
83
36
3
-14
-21
-23
-23
-23
-25
-28
-32
-32
-31
-30
-30
-30
-31
-30
-30
-31
-32
-32
-31
-34
-36
-35
-34
-33
-33
-34
-37
-40
-46
-49
-45
-39
-35
-35
-33
-32
-32
-32
-31
-30
-30
-28
-23
-21
-24
-24
-22
-21
-20
-20
-19
-18
-16
-16
-16
-14
-13
-12
-13
-15
-14
-10
-6
-5
-6
-6
-5
-6
-7
-6
-4
-2
0
0
0
-1
-2
-3
-4
-1
0
2
1
0
-1
-2
-4
-5
-4
-3
-3
-4
-4
-3
-5
-4
-1
0
2
2
5
10
15
12
10
14
22
24
24
23
20
20
24
28
29
29
26
24
24
24
19
13
10
9
9
7
5
4
3
3
3
4
6
8
8
7
5
5
6
7
10
13
16
17
14
10
5
0
-5
-11
-16
-14
0
26
62
97
135
167
202
223
233
227
200
165
120
76
44
22
12
7
5
1
-1
-3
-4
-5
-6
-7
-8
-9
-10
-10
-10
-11
-13
-15
-17
-15
-14
-15
-17
-19
-20
-20
-23
-23
-19
-17
-17
-18
-17
-17
-16
-15
-14
-13
-12
-10
-5
-5
-9
-10
-9
-8
-8
-7
-6
-5
-3
-2
0
0
2
3
5
7
9
10
7
4
4
7
8
11
14
13
11
8
8
8
8
8
8
10
8
7
5
6
7
6
6
4
3
1
0
0
2
2
1
1
0
-1
-1
-2
-2
0
0
0
-1
-2
-5
-5
-1
4
7
9
10
11
12
12
14
18
25
34
44
56
66
68
68
67
66
63
60
60
60
62
70
87
106
135
166
201
228
231
217
184
145
99
50
18
1
-7
-13
-16
-19
-26
-30
-32
-33
-36
-39
-41
-43
-44
-46
-47
-50
-51
-53
-55
-55
-57
-59
-63
-66
-69
-70
-70
-70
-70
-71
-72
-72
-72
-72
-72
-71
-71
-71
-72
-73
-73
-70
-66
-63
-61
-58
-55
-54
-52
-49
-46
-44
-41
-38
-35
-31
-29
-28
-28
-27
-27
-27
-27
-27
-24
-22
-20
-21
-22
-19
-18
-20
-24
-22
-22
-23
-24
-25
-26
-27
-27
-28
-28
-29
-30
-29
-29
-29
-30
-29
-30
-30
-31
-32
-32
-29
-28
-29
-29
-30
-30
-29
-29
-30
-31
-31
-31
-31
-30
-29
-30
-30
-29
-29
-28
-28
-27
-27
-25
-26
-25
-25
-21
-17
-14
-12
-13
-14
-15
-12
-10
-11
-11
-13
-12
-11
-8
-11
-17
-22
-24
-26
-29
-33
-36
-38
-39
-41
-40
-43
-44
-44
-45
-44
-44
-43
-44
-44
-44
-44
-44
-44
-43
-42
-43
-45
-49
-53
-58
-62
-64
-56
-39
-8
31
73
112
147
175
191
186
167
131
86
38
0
-21
-33
-37
-38
-40
-42
-45
-47
-49
-50
-51
-50
-51
-51
-51
-52
-54
-55
-57
-57
-58
-58
-60
-61
-61
-61
-62
-62
-60
-59
-59
-58
-58
-57
-56
-55
-54
-52
-51
-49
-47
-46
-45
-45
-43
-43
-42
-40
-40
-40
-40
-39
-39
-39
-39
-38
-36
-34
-32
-29
-28
-30
-31
-29
-28
-28
-30
-30
-29
-26
-26
-26
-26
-27
-28
-28
-29
-30
-30
-30
-31
-31
-30
-30
-30
-31
-33
-35
-36
-37
-38
-40
-39
-40
-40
-42
-42
-43
-44
-43
-43
-40
-38
-35
-33
-32
-31
-31
-31
-30
-27
-24
-22
-24
-24
-25
-27
-28
-29
-31
-34
-36
-38
-38
-38
-37
-36
-36
-35
-36
-35
-35
-36
-35
-35
-33
-33
-33
-33
-33
-33
-32
-34
-35
-36
-39
-43
-48
-49
-47
-35
-12
21
59
94
131
165
197
210
204
177
139
92
48
16
-1
-10
-14
-17
-20
-24
-25
-28
-28
-27
-27
-27
-27
-26
-27
-27
-28
-28
-29
-31
-32
-33
-33
-34
-33
-33
-34
-33
-31
-30
-32
-33
-34
-34
-33
-32
-30
-28
-27
-26
-25
-23
-21
-20
-20
-21
-22
-20
-18
-15
-15
-17
-17
-15
-10
-6
-4
-5
-6
-7
-5
-5
-4
-6
-7
-6
-5
-3
-2
-2
-2
-2
-3
-3
-2
-1
-2
-4
-6
-6
-5
-3
-3
-3
-5
-7
-7
-8
-7
-8
-8
-7
-7
-7
-9
-10
-10
-8
-7
-4
-2
0
1
2
4
7
10
12
13
16
19
20
19
16
15
16
19
21
18
16
13
10
6
1
-1
-2
-2
-3
-5
-6
-5
-3
-1
-1
-3
-5
-7
-8
-7
-5
-3
-1
1
3
4
3
0
-5
-13
-22
-26
-24
-12
11
43
85
125
160
195
221
243
240
220
184
137
90
51
27
13
8
5
3
1
-1
-4
-7
-9
-11
-11
-11
-12
-12
-13
-14
-14
-14
-14
-17
-19
-19
-18
-17
-17
-18
-18
-18
-17
-16
-16
-16
-17
-16
-14
-12
-12
-13
-14
-12
-10
-9
-8
-8
-7
-7
-7
-4
0
3
2
1
2
3
3
3
3
4
6
8
9
8
8
8
8
9
11
11
10
8
9
5
2
4
6
7
8
7
5
4
5
6
5
5
7
7
4
1
1
-1
-2
-3
-2
-1
0
0
0
-3
-6
-7
-9
-9
-8
-6
-2
2
9
15
26
36
47
62
74
81
82
83
81
80
77
73
69
70
74
83
103
124
152
180
213
235
237
223
188
146
98
54
22
2
-9
-17
-21
-23
-25
-27
-29
-30
-33
-35
-36
-38
-40
-43
-43
-49
-53
-54
-53
-52
-55
-58
-61
-62
-63
-63
-66
-69
-71
-72
-73
-72
-70
-71
-72
-70
-69
-68
-68
-66
-64
-62
-62
-61
-59
-56
-53
-53
-51
-48
-44
-39
-37
-36
-34
-31
-29
-27
-25
-23
-24
-23
-21
-20
-18
-17
-19
-19
-18
-19
-21
-21
-22
-20
-20
-20
-22
-22
-25
-29
-28
-24
-24
-26
-26
-25
-23
-20
-21
-24
-26
-25
-25
-26
-27
-27
-25
-25
-26
-27
-26
-25
-25
-26
-25
-25
-25
-25
-26
-26
-26
-26
-25
-26
-25
-24
-23
-20
-18
-22
-24
-23
-21
-19
-19
-18
-18
-16
-15
-13
-9
-5
-3
0
1
0
-1
-3
-6
-6
-5
-5
-10
-12
-13
-15
-18
-21
-22
-26
-29
-32
-33
-34
-35
-34
-34
-35
-37
-38
-38
-39
-38
-38
-36
-36
-36
-36
-36
-36
-37
-39
-43
-48
-52
-54
-52
-37
-8
31
77
119
155
181
195
193
176
143
101
52
15
-10
-21
-27
-32
-35
-38
-42
-44
-45
-46
-49
-50
-51
-53
-54
-55
-56
-58
-59
-60
-61
-61
-62
-61
-61
-60
-60
-59
-58
-58
-56
-55
-54
-54
-52
-52
-52
-51
-51
-50
-50
-50
-49
-48
-46
-46
-44
-44
-41
-39
-38
-37
-37
-36
-35
-31
-28
-28
-29
-28
-28
-26
-26
-26
-26
-26
-25
-24
-23
-23
-23
-23
-24
-24
-24
-24
-23
-23
-24
-25
-26
-27
-27
-28
-28
-29
-29
-29
-31
-31
-33
-33
-34
-34
-35
-36
-37
-39
-40
-41
-41
-39
-37
-33
-30
-25
-22
-21
-22
-22
-23
-24
-24
-25
-24
-25
-26
-28
-30
-30
-31
-32
-33
-34
-35
-34
-34
-33
-33
-33
-33
-33
-34
-34
-33
-31
-31
-32
-32
-31
-31
-31
-30
-29
-29
-31
-35
-39
-44
-48
-47
-37
-13
20
63
101
138
170
195
208
200
180
145
99
54
19
0
-11
-15
-18
-20
-21
-24
-25
-27
-28
-29
-28
-27
-29
-30
-32
-32
-33
-33
-34
-38
-40
-40
-40
-41
-40
-41
-43
-43
-43
-43
-42
-41
-41
-40
-40
-39
-37
-36
-35
-34
-32
-31
-31
-30
-27
-26
-25
-25
-24
-22
-21
-19
-18
-16
-15
-15
-14
-14
-15
-15
-14
-13
-11
-10
-10
-10
-10
-10
-11
-13
-13
-13
-14
-14
-14
-15
-15
-14
-12
-12
-13
-15
-17
-19
-21
-21
-20
-20
-21
-21
-21
-22
-21
-20
-20
-21
-22
-21
-21
-19
-18
-15
-10
-5
0
3
5
6
5
4
3
4
5
4
5
6
7
7
4
2
0
-2
-6
-8
-9
-10
-11
-12
-12
-11
-10
-9
-10
-11
-13
-13
-13
-12
-10
-10
-10
-10
-9
-9
-9
-12
-16
-20
-27
-32
-31
-19
7
46
87
129
162
197
221
228
221
193
159
109
61
27
9
2
-1
-5
-9
-11
-13
-14
-14
-12
-12
-13
-13
-15
-18
-21
-21
-22
-21
-21
-21
-22
-23
-24
-23
-21
-20
-20
-21
-21
-20
-20
-19
-17
-15
-13
-15
-16
-16
-15
-15
-12
-8
-7
-6
-6
-6
-5
-5
-2
1
4
5
6
5
5
5
6
8
9
10
10
8
8
11
14
14
16
17
16
13
13
13
12
11
12
13
12
11
11
12
11
11
10
9
8
7
7
7
8
8
6
5
4
5
6
6
7
6
4
1
1
1
2
5
11
17
21
26
31
41
50
63
74
81
84
86
87
84
82
76
75
75
81
92
108
129
153
186
217
244
245
228
195
150
105
60
28
9
-1
-6
-12
-16
-20
-23
-25
-27
-29
-33
-34
-35
-36
-38
-40
-42
-44
-45
-47
-48
-50
-52
-53
-55
-57
-59
-60
-61
-61
-61
-62
-64
-64
-63
-62
-61
-60
-59
-59
-59
-58
-56
-54
-52
-50
-47
-45
-43
-40
-37
-34
-31
-27
-22
-19
-16
-15
-12
-10
-8
-6
-5
-4
-3
-3
-4
-3
-3
-3
-2
-2
-2
-2
-1
-2
-2
-2
-3
-3
-3
-4
-4
-4
-5
-5
-5
-5
-5
-6
-6
-7
-7
-7
-6
-6
-6
-5
-6
-6
-6
-6
-5
-5
-5
-4
-3
-5
-5
-5
-5
-4
-4
-4
-6
-6
-6
-6
-6
-5
-5
-5
-4
-3
-3
-3
-3
-3
-2
0
2
6
10
12
14
16
17
16
15
13
12
10
10
9
9
6
0
-2
-3
-7
-10
-14
-16
-18
-19
-20
-21
-22
-23
-23
-24
-23
-23
-22
-22
-22
-22
-22
-21
-21
-20
-19
-20
-23
-27
-32
-38
-42
-41
-31
-10
27
69
111
147
181
206
215
205
177
138
87
39
7
-6
-11
-15
-18
-22
-26
-29
-31
-32
-33
-33
-35
-36
-36
-38
-39
-40
-37
-39
-40
-40
-40
-39
-40
-40
-41
-42
-42
-42
-42
-41
-39
-39
-38
-38
-37
-36
-35
-33
-32
-32
-32
-31
-31
-30
-27
-22
-22
-26
-27
-27
-24
-21
-20
-20
-20
-20
-19
-18
-17
-17
-17
-15
-15
-14
-13
-12
-11
-11
-8
-9
-9
-11
-12
-13
-14
-14
-14
-15
-16
-15
-16
-17
-19
-21
-22
-24
-24
-25
-27
-29
-31
-32
-33
-35
-35
-37
-38
-38
-36
-33
-29
-25
-22
-18
-16
-15
-16
-16
-17
-18
-18
-17
-16
-15
-17
-20
-23
-25
-27
-28
-28
-29
-29
-29
-30
-30
-31
-30
-31
-30
-29
-30
-31
-29
-27
-25
-25
-24
-24
-24
-24
-26
-28
-31
-36
-42
-46
-47
-38
-15
20
62
108
145
182
204
218
210
183
141
85
39
13
0
-5
-9
-11
-15
-16
-17
-19
-20
-21
-20
-20
-21
-23
-25
-25
-25
-24
-25
-26
-28
-28
-30
-31
-32
-33
-35
-36
-36
-36
-35
-33
-33
-32
-32
-32
-31
-31
-30
-28
-28
-28
-28
-29
-29
-29
-29
-28
-27
-25
-24
-21
-21
-20
-19
-19
-19
-18
-15
-14
-14
-13
-12
-13
-14
-14
-14
-14
-13
-13
-14
-14
-14
-13
-13
-13
-13
-15
-16
-17
-18
-19
-20
-22
-22
-24
-26
-26
-25
-25
-24
-24
-22
-21
-22
-23
-24
-24
-23
-22
-19
-14
-8
-5
-2
0
2
2
1
0
-1
-3
-3
-1
1
0
-3
-6
-9
-10
-11
-13
-15
-16
-17
-17
-19
-23
-25
-25
-24
-22
-21
-20
-19
-20
-21
-20
-20
-19
-18
-16
-16
-20
-23
-30
-34
-38
-40
-32
-9
26
71
110
145
176
202
221
217
200
163
116
69
30
9
0
-4
-7
-11
-13
-15
-16
-19
-21
-22
-23
-24
-25
-27
-29
-30
-32
-33
-33
-33
-33
-33
-34
-35
-35
-35
-34
-32
-31
-31
-30
-29
-28
-27
-26
-24
-23
-24
-23
-22
-22
-21
-20
-18
-17
-16
-14
-12
-11
-11
-11
-10
-9
-6
-1
-1
-2
-3
-3
-2
0
3
5
5
4
4
5
6
6
6
7
7
7
6
5
5
7
7
6
8
8
6
3
2
0
0
1
2
2
3
3
1
0
1
2
3
2
2
0
-3
-5
-5
-1
5
11
16
22
25
30
37
50
62
75
87
92
94
92
91
88
85
82
82
86
94
110
126
151
175
212
242
256
252
221
183
136
91
53
27
11
0
-6
-11
-14
-15
-19
-24
-27
-27
-28
-31
-33
-36
-38
-40
-41
-42
-45
-48
-51
-52
-54
-55
-56
-57
-58
-60
-61
-62
-62
-63
-62
-61
-61
-61
-60
-59
-60
-59
-58
-56
-55
-53
-51
-49
-45
-42
-38
-36
-33
-33
-32
-30
-27
-24
-20
-17
-15
-13
-11
-9
-9
-8
-9
-9
-7
-5
-4
-3
-3
-2
-1
0
0
0
0
0
-1
-2
-3
-4
-2
-1
0
0
0
-2
-2
-1
0
1
1
0
0
1
2
1
0
-1
-1
0
1
0
0
-1
-1
0
3
6
4
1
0
0
0
0
0
0
1
1
0
-1
0
0
0
2
2
3
1
1
2
8
14
17
20
21
21
19
20
18
17
15
15
15
14
13
10
5
1
-1
-4
-8
-10
-11
-13
-15
-17
-18
-18
-18
-18
-18
-19
-20
-21
-21
-21
-19
-19
-19
-19
-20
-20
-22
-25
-30
-34
-38
-40
-33
-16
11
47
84
124
159
196
216
217
197
164
119
72
33
8
-4
-10
-14
-18
-22
-25
-29
-30
-30
-32
-31
-32
-32
-34
-34
-34
-35
-36
-38
-39
-40
-40
-41
-39
-37
-39
-39
-40
-40
-40
-39
-38
-37
-35
-34
-34
-34
-34
-33
-32
-31
-30
-29
-29
-29
-28
-27
-26
-25
-24
-23
-22
-22
-21
-20
-20
-18
-16
-15
-13
-12
-12
-11
-12
-10
-11
-12
-12
-11
-11
-11
-11
-11
-12
-12
-14
-14
-14
-15
-16
-16
-17
-15
-14
-18
-22
-24
-25
-27
-29
-31
-33
-34
-36
-35
-36
-38
-39
-38
-37
-36
-33
-30
-25
-21
-17
-15
-14
-14
-14
-16
-17
-17
-16
-15
-15
-14
-16
-19
-22
-22
-22
-24
-26
-27
-29
-29
-28
-26
-26
-27
-27
-26
-26
-25
-24
-23
-23
-23
-22
-23
-23
-23
-24
-26
-29
-33
-39
-45
-46
-40
-20
13
51
91
127
161
191
205
207
184
153
111
62
27
5
-3
-7
-9
-11
-14
-17
-19
-22
-22
-21
-22
-24
-25
-26
-27
-28
-28
-29
-30
-30
-31
-32
-34
-37
-39
-38
-37
-36
-35
-36
-36
-36
-36
-37
-37
-36
-37
-36
-36
-35
-35
-34
-33
-31
-31
-31
-30
-29
-28
-27
-27
-26
-24
-22
-22
-21
-22
-22
-21
-19
-18
-17
-17
-18
-18
-19
-20
-20
-20
-19
-19
-18
-19
-20
-21
-21
-21
-23
-24
-23
-24
-25
-26
-26
-26
-26
-26
-26
-28
-29
-29
-31
-32
-33
-34
-34
-32
-31
-31
-28
-24
-20
-16
-13
-12
-11
-12
-12
-14
-14
-14
-13
-12
-12
-15
-19
-22
-24
-26
-28
-30
-31
-32
-33
-33
-33
-32
-34
-35
-35
-34
-34
-33
-32
-31
-31
-31
-30
-30
-30
-29
-29
-30
-33
-37
-44
-49
-51
-44
-24
3
40
79
114
149
177
196
198
180
153
107
61
22
-1
-13
-19
-23
-25
-28
-30
-33
-34
-36
-38
-40
-40
-40
-40
-39
-40
-40
-40
-41
-41
-42
-42
-42
-42
-42
-42
-43
-43
-41
-40
-39
-39
-39
-40
-39
-38
-36
-35
-35
-34
-33
-33
-33
-31
-30
-31
-29
-29
-27
-26
-22
-20
-18
-17
-17
-17
-18
-18
-17
-15
-13
-11
-10
-9
-8
-8
-9
-11
-11
-9
-8
-8
-10
-11
-11
-11
-11
-10
-10
-10
-9
-10
-10
-11
-12
-12
-12
-14
-15
-17
-17
-18
-18
-17
-17
-16
-15
-14
-15
-17
-18
-19
-17
-13
-9
-7
-4
0
5
13
22
33
44
55
62
67
69
69
68
65
62
58
58
60
65
78
97
121
148
184
211
227
219
195
160
116
75
35
9
-6
-16
-22
-25
-28
-30
-31
-33
-35
-38
-41
-43
-44
-44
-45
-46
-48
-49
-51
-52
-52
-53
-54
-55
-57
-58
-61
-63
-65
-66
-65
-66
-66
-67
-66
-65
-62
-61
-60
-59
-59
-58
-57
-55
-54
-52
-49
-46
-43
-41
-39
-37
-35
-31
-28
-24
-23
-21
-20
-18
-17
-15
-12
-10
-9
-7
-6
-6
-6
-5
-5
-5
-5
-5
-5
-6
-5
-6
-7
-7
-7
-7
-7
-9
-9
-9
-8
-7
-6
-7
-8
-8
-7
-7
-7
-6
-6
-6
-6
-6
-6
-5
-5
-5
-4
-4
-5
-5
-5
-5
-5
-4
-5
-4
-4
-3
-3
-3
-3
-3
-2
-2
-1
-1
-1
-1
-1
0
0
3
7
10
12
15
17
17
17
15
15
13
12
11
11
11
10
7
4
3
0
-4
-7
-10
-11
-12
-13
-14
-13
-12
-14
-15
-15
-15
-14
-13
-13
-12
-13
-13
-12
-13
-12
-14
-15
-18
-23
-27
-30
-29
-17
6
40
82
117
154
183
209
220
209
187
150
108
65
31
12
1
-3
-6
-9
-11
-13
-16
-18
-19
-21
-21
-22
-22
-23
-24
-25
-27
-28
-29
-30
-30
-30
-30
-30
-30
-30
-29
-28
-27
-27
-27
-28
-27
-25
-23
-22
-23
-22
-21
-22
-21
-20
-20
-20
-19
-18
-16
-15
-14
-15
-14
-13
-13
-11
-10
-9
-8
-7
-6
-6
-4
-4
-3
-3
-2
-3
-6
-5
-3
-1
-1
-1
-1
-1
0
-2
-3
-4
-5
-6
-7
-8
-10
-11
-12
-12
-13
-14
-15
-16
-16
-17
-18
-19
-19
-21
-23
-23
-24
-24
-24
-23
-21
-17
-12
-8
-5
-4
-4
-4
-5
-6
-7
-7
-7
-7
-6
-7
-9
-11
-13
-14
-15
-16
-18
-18
-17
-18
-18
-17
-17
-16
-16
-14
-15
-16
-15
-15
-14
-14
-13
-12
-12
-12
-13
-16
-20
-24
-29
-31
-30
-19
6
40
79
116
148
183
208
221
213
184
150
104
64
34
16
7
2
0
-2
-4
-6
-7
-7
-6
-6
-10
-11
-13
-14
-14
-15
-16
-16
-17
-18
-19
-20
-21
-21
-23
-23
-25
-26
-26
-27
-27
-28
-28
-28
-29
-29
-29
-28
-28
-28
-27
-26
-25
-24
-24
-24
-24
-23
-21
-20
-16
-14
-14
-14
-15
-14
-14
-13
-13
-13
-12
-12
-11
-11
-10
-10
-10
-11
-11
-10
-9
-9
-8
-8
-7
-7
-8
-9
-9
-10
-11
-12
-12
-13
-15
-16
-17
-19
-20
-22
-23
-22
-21
-21
-21
-20
-17
-14
-15
-15
-11
-9
-6
-3
1
3
1
0
0
-2
-4
-5
-5
-5
-7
-9
-11
-14
-15
-17
-19
-22
-23
-23
-25
-26
-28
-30
-30
-30
-29
-28
-28
-25
-20
-21
-27
-29
-29
-28
-27
-28
-31
-34
-37
-41
-46
-48
-42
-25
4
42
83
121
159
187
206
207
192
160
116
63
19
-4
-15
-20
-23
-25
-27
-29
-30
-32
-33
-33
-34
-34
-37
-39
-40
-43
-43
-43
-44
-46
-48
-48
-48
-48
-49
-49
-49
-48
-47
-48
-47
-47
-46
-46
-44
-43
-40
-38
-38
-38
-38
-38
-38
-37
-35
-33
-31
-30
-29
-28
-25
-24
-23
-21
-20
-18
-17
-17
-17
-17
-16
-15
-15
-13
-12
-12
-12
-12
-12
-11
-10
-10
-9
-8
-8
-8
-9
-11
-13
-13
-14
-14
-14
-15
-16
-19
-20
-21
-21
-21
-22
-23
-25
-24
-25
-25
-23
-23
-22
-23
-25
-26
-24
-20
-16
-10
-4
0
3
9
18
28
40
51
57
61
60
59
54
50
48
48
51
59
74
91
112
137
167
198
215
213
189
154
108
65
26
3
-10
-21
-28
-33
-37
-40
-41
-41
-45
-47
-49
-50
-50
-51
-52
-54
-55
-57
-58
-59
-61
-62
-62
-63
-64
-66
-67
-69
-70
-74
-74
-76
-76
-73
-72
-71
-73
-72
-73
-71
-69
-66
-62
-61
-60
-59
-57
-57
-55
-52
-49
-45
-43
-40
-37
-35
-32
-29
-25
-22
-19
-18
-17
-16
-15
-15
-14
-14
-12
-11
-10
-9
-9
-10
-11
-10
-10
-10
-9
-9
-9
-9
-9
-11
-11
-11
-11
-10
-10
-10
-10
-10
-9
-7
-7
-7
-7
-7
-6
-7
-6
-6
-6
-6
-6
-5
-5
-4
-4
-4
-4
-5
-5
-5
-5
-4
-4
-5
-4
-4
-2
-2
-3
-3
-4
-5
-5
-4
-4
-2
0
4
7
11
15
16
16
15
14
12
11
10
10
10
8
6
4
2
0
-2
-5
-8
-9
-11
-13
-15
-17
-16
-19
-18
-18
-17
-17
-16
-15
-15
-15
-15
-15
-15
-14
-14
-15
-17
-21
-26
-30
-34
-33
-25
-5
28
69
110
146
178
206
215
210
183
146
103
57
27
9
1
-4
-7
-10
-13
-17
-19
-21
-21
-21
-22
-24
-24
-25
-25
-27
-28
-29
-30
-31
-31
-31
-32
-33
-33
-33
-33
-33
-32
-31
-31
-30
-30
-29
-29
-29
-27
-26
-27
-26
-25
-25
-23
-22
-20
-20
-19
-18
-17
-15
-15
-14
-12
-11
-10
-9
-8
-7
-4
-2
-2
-2
-2
-2
-2
-2
-1
-2
-2
-1
-1
-1
-1
-2
-3
-3
-3
-3
-3
-4
-4
-5
-5
-6
-7
-8
-9
-10
-11
-13
-15
-16
-18
-20
-22
-24
-23
-24
-24
-24
-24
-24
-23
-21
-18
-14
-10
-6
-3
-2
-1
-1
-1
-2
-3
-3
-2
-1
0
0
-3
-5
-7
-9
-10
-12
-13
-13
-13
-13
-13
-13
-12
-13
-12
-12
-12
-11
-11
-11
-11
-10
-11
-10
-9
-10
-11
-12
-15
-20
-25
-30
-32
-24
-6
27
68
110
147
182
209
224
220
198
162
116
70
35
16
6
2
0
-3
-5
-7
-10
-11
-12
-11
-12
-12
-12
-12
-13
-14
-15
-15
-15
-16
-17
-17
-19
-20
-21
-21
-22
-22
-23
-23
-24
-24
-23
-23
-23
-23
-23
-22
-21
-20
-19
-18
-18
-17
-17
-17
-16
-15
-14
-14
-13
-12
-12
-10
-8
-8
-8
-8
-8
-8
-7
-6
-7
-7
-7
-6
-6
-6
-5
-5
-5
-5
-6
-6
-6
-6
-6
-6
-6
-7
-7
-9
-10
-11
-12
-13
-13
-14
-15
-15
-15
-16
-16
-17
-17
-15
-14
-13
-13
-12
-10
-6
-1
1
4
4
5
4
3
2
0
0
0
0
0
-2
-5
-9
-12
-15
-17
-19
-21
-22
-24
-24
-25
-25
-26
-26
-27
-28
-28
-28
-27
-27
-25
-25
-24
-23
-22
-22
-24
-26
-28
-32
-37
-42
-44
-39
-22
10
52
90
127
155
186
203
206
188
152
109
63
27
6
-5
-10
-14
-18
-21
-23
-24
-27
-28
-29
-30
-31
-34
-36
-35
-33
-33
-34
-35
-35
-35
-35
-36
-36
-35
-36
-35
-36
-35
-35
-34
-33
-32
-31
-31
-31
-31
-30
-30
-30
-30
-29
-27
-27
-26
-25
-24
-24
-22
-21
-20
-20
-19
-17
-17
-17
-17
-17
-16
-15
-15
-15
-14
-14
-14
-13
-12
-13
-13
-13
-14
-14
-14
-13
-13
-13
-13
-14
-15
-18
-20
-21
-21
-22
-22
-23
-25
-27
-28
-29
-29
-28
-27
-27
-27
-27
-27
-26
-25
-22
-18
-13
-10
-9
-8
-9
-9
-10
-10
-11
-11
-8
-3
3
12
20
31
40
44
44
42
42
40
38
35
34
37
46
60
77
102
127
164
192
212
210
187
152
108
62
23
-5
-18
-23
-26
-30
-34
-36
-39
-41
-45
-47
-50
-51
-52
-54
-54
-56
-57
-60
-62
-64
-66
-66
-67
-68
-70
-71
-73
-74
-76
-78
-78
-78
-76
-76
-75
-74
-72
-71
-70
-69
-69
-67
-66
-64
-61
-58
-56
-53
-50
-47
-43
-40
-38
-37
-35
-33
-29
-26
-25
-23
-22
-20
-20
-19
-18
-18
-19
-18
-17
-17
-17
-17
-17
-17
-18
-18
-19
-20
-21
-20
-20
-21
-21
-21
-21
-21
-24
-23
-22
-20
-19
-18
-18
-18
-18
-19
-19
-18
-17
-16
-16
-16
-16
-15
-14
-13
-13
-14
-14
-14
-15
-14
-13
-11
-10
-9
-9
-9
-9
-9
-8
-6
-1
3
7
10
12
11
11
11
8
7
6
6
6
7
6
3
0
-2
-4
-6
-8
-9
-12
-13
-13
-14
-14
-15
-16
-17
-18
-18
-19
-19
-19
-19
-19
-19
-18
-18
-18
-20
-21
-24
-28
-33
-37
-36
-25
-3
30
72
114
154
188
212
222
213
186
150
97
52
20
4
-2
-6
-8
-12
-14
-17
-19
-20
-21
-21
-22
-23
-23
-24
-25
-26
-28
-30
-31
-32
-31
-31
-32
-33
-34
-33
-34
-34
-33
-33
-33
-32
-30
-29
-29
-27
-26
-25
-24
-23
-23
-22
-22
-21
-20
-18
-17
-17
-17
-16
-16
-15
-15
-14
-13
-12
-11
-10
-9
-9
-8
-7
-7
-7
-6
-7
-7
-7
-7
-6
-6
-6
-5
-4
-4
-4
-4
-4
-5
-5
-6
-6
-8
-9
-9
-11
-12
-13
-14
-14
-15
-16
-18
-19
-20
-20
-19
-20
-20
-20
-20
-20
-20
-18
-15
-11
-8
-5
-4
-3
-4
-5
-5
-5
-4
-4
-4
-4
-6
-9
-13
-14
-14
-14
-15
-16
-16
-17
-16
-15
-15
-16
-15
-14
-14
-13
-12
-13
-13
-12
-11
-10
-9
-9
-9
-10
-12
-16
-19
-25
-30
-32
-24
-7
26
67
109
145
179
209
225
229
209
178
136
87
48
23
12
7
5
3
0
-1
-3
-5
-6
-7
-7
-7
-8
-9
-8
-9
-10
-10
-11
-11
-12
-13
-15
-15
-16
-16
-17
-17
-18
-18
-19
-19
-19
-19
-19
-19
-18
-18
-18
-18
-18
-18
-18
-18
-19
-19
-18
-17
-15
-13
-11
-11
-10
-9
-8
-7
-6
-6
-5
-4
-4
-4
-4
-3
-3
-2
0
-1
-1
-2
-1
-1
-1
0
0
0
-1
-1
-1
-1
-2
-3
-3
-4
-5
-7
-8
-9
-10
-10
-11
-11
-12
-13
-13
-13
-13
-13
-12
-12
-11
-10
-7
-3
0
3
6
7
7
7
6
5
4
4
4
4
3
1
-1
-4
-7
-10
-12
-15
-16
-16
-18
-18
-19
-20
-20
-20
-19
-19
-18
-19
-19
-18
-17
-17
-16
-15
-15
-15
-17
-20
-24
-29
-33
-37
-37
-27
-6
27
68
104
141
172
199
213
202
179
138
92
50
19
3
-4
-7
-11
-14
-17
-21
-23
-25
-26
-27
-28
-29
-30
-31
-32
-32
-32
-33
-33
-34
-35
-35
-36
-36
-35
-35
-34
-34
-35
-34
-34
-34
-32
-31
-30
-30
-30
-30
-28
-28
-26
-26
-25
-24
-23
-23
-22
-21
-21
-20
-18
-17
-16
-15
-14
-14
-13
-13
-12
-11
-10
-9
-10
-10
-10
-10
-9
-8
-8
-8
-8
-6
-4
-6
-7
-9
-9
-10
-10
-11
-13
-14
-15
-16
-16
-16
-17
-18
-18
-19
-20
-20
-19
-19
-19
-19
-19
-19
-21
-22
-21
-18
-14
-10
-6
-4
-2
0
5
13
24
34
46
54
58
59
55
54
50
46
43
42
46
56
72
91
115
139
170
193
206
201
176
142
96
52
16
-6
-19
-28
-33
-36
-40
-43
-45
-46
-49
-51
-53
-55
-56
-59
-61
-64
-65
-68
-70
-72
-73
-74
-76
-77
-80
-81
-83
-84
-85
-86
-87
-87
-85
-86
-85
-85
-83
-82
-82
-80
-79
-76
-75
-74
-73
-71
-69
-66
-61
-58
-55
-53
-50
-49
-45
-42
-39
-37
-35
-33
-33
-31
-31
-29
-28
-27
-26
-26
-25
-25
-24
-24
-24
-23
-23
-23
-24
-24
-25
-26
-26
-26
-27
-28
-28
-27
-27
-27
-26
-26
-26
-26
-26
-24
-24
-24
-23
-23
-23
-22
-21
-20
-21
-22
-21
-21
-20
-20
-21
-21
-21
-19
-19
-19
-19
-18
-18
-19
-19
-18
-17
-16
-14
-13
-13
-14
-13
-11
-7
-3
0
3
4
4
4
2
1
-1
-1
0
0
0
-3
-6
-10
-12
-13
-15
-16
-18
-19
-22
-24
-25
-26
-26
-27
-26
-27
-26
-26
-26
-25
-24
-23
-23
-23
-24
-25
-27
-30
-33
-38
-43
-41
-27
-1
37
79
122
158
191
212
216
202
173
129
79
36
9
-4
-11
-15
-18
-22
-25
-29
-32
-32
-32
-31
-31
-31
-33
-34
-35
-36
-37
-37
-37
-37
-37
-37
-39
-39
-40
-40
-41
-40
-40
-39
-38
-38
-36
-35
-34
-33
-31
-29
-27
-25
-24
-23
-22
-21
-19
-19
-18
-17
-16
-14
-12
-11
-9
-9
-8
-7
-6
-5
-4
-4
-4
-4
-4
-2
-2
0
0
0
0
0
1
0
0
0
1
0
0
-1
-3
-3
-4
-5
-6
-8
-9
-11
-12
-15
-15
-15
-15
-15
-16
-16
-17
-18
-18
-19
-19
-18
-18
-19
-19
-17
-15
-11
-6
-2
1
3
3
3
2
2
2
3
4
5
3
1
0
-1
-2
-4
-5
-5
-5
-6
-7
-6
-7
-6
-6
-6
-5
-4
-4
-3
-2
-2
-2
-2
-1
-2
-2
-3
-6
-9
-14
-19
-23
-22
-12
7
39
76
118
154
193
222
237
233
207
173
125
76
40
19
11
7
4
1
-1
-2
-4
-5
-5
-5
-5
-5
-6
-7
-7
-8
-8
-8
-9
-10
-10
-11
-11
-12
-13
-14
-14
-15
-14
-14
-14
-14
-13
-12
-12
-12
-11
-11
-11
-11
-10
-9
-8
-7
-7
-6
-6
-6
-6
-4
-3
-2
-1
-1
0
0
0
0
0
1
0
0
0
0
0
1
1
0
0
-1
-1
-1
-1
-2
-2
-2
-3
-3
-4
-2
-2
-3
-5
-7
-8
-9
-10
-10
-11
-11
-12
-12
-12
-12
-12
-12
-12
-11
-11
-10
-8
-5
-1
3
7
10
10
10
10
10
9
9
7
7
6
6
4
2
0
-2
-6
-9
-12
-13
-14
-14
-14
-13
-13
-12
-11
-11
-10
-9
-7
-7
-6
-6
-6
-6
-6
-5
-6
-6
-8
-12
-18
-23
-27
-29
-22
-2
27
67
108
145
183
210
226
220
195
160
109
65
31
12
2
-2
-4
-5
-7
-13
-17
-18
-19
-18
-18
-19
-20
-21
-21
-22
-23
-23
-24
-24
-25
-26
-28
-28
-28
-27
-27
-27
-28
-27
-27
-26
-25
-24
-24
-23
-22
-22
-22
-21
-19
-18
-17
-14
-13
-12
-14
-15
-14
-12
-10
-10
-8
-7
-5
-4
-3
-3
-3
-3
-2
-1
-1
0
-1
-1
-1
-2
-2
-2
-2
-1
0
0
-1
-2
-2
-2
-2
-1
-2
-3
-4
-4
-4
-4
-5
-5
-6
-5
-5
-7
-9
-10
-10
-9
-8
-8
-7
-6
-3
1
6
8
11
9
6
3
1
2
1
2
3
6
8
13
19
27
36
45
53
54
54
52
50
48
45
44
46
53
66
84
104
130
160
194
217
220
207
174
139
94
52
20
0
-10
-16
-20
-24
-28
-31
-33
-35
-37
-39
-41
-42
-44
-45
-47
-49
-51
-53
-55
-55
-58
-60
-62
-64
-65
-67
-68
-69
-69
-70
-71
-71
-71
-71
-71
-69
-68
-66
-66
-64
-63
-62
-59
-57
-54
-52
-48
-46
-43
-40
-37
-34
-31
-28
-24
-22
-20
-19
-17
-16
-14
-12
-12
-12
-11
-10
-9
-8
-6
-4
-5
-6
-8
-9
-9
-10
-10
-12
-12
-11
-11
-11
-12
-13
-13
-14
-15
-14
-14
-15
-15
-14
-15
-14
-13
-12
-11
-11
-12
-13
-12
-11
-10
-10
-9
-10
-9
-8
-9
-9
-9
-8
-8
-8
-7
-8
-7
-7
-6
-4
0
5
9
12
12
12
11
11
9
9
9
9
9
7
5
3
0
-1
-4
-7
-11
-14
-16
-17
-20
-22
-24
-25
-26
-26
-26
-27
-27
-26
-25
-23
-22
-23
-24
-24
-26
-27
-27
-28
-32
-36
-41
-43
-40
-26
0
38
79
122
157
191
207
211
193
162
117
68
27
2
-10
-15
-20
-23
-26
-28
-31
-34
-35
-36
-35
-36
-36
-38
-39
-40
-41
-41
-43
-42
-43
-43
-44
-45
-46
-47
-46
-46
-45
-45
-44
-43
-42
-41
-40
-39
-39
-37
-36
-35
-34
-34
-34
-34
-33
-34
-33
-31
-30
-30
-29
-28
-27
-25
-24
-23
-22
-22
-22
-22
-21
-20
-18
-18
-17
-19
-20
-19
-20
-19
-19
-18
-18
-19
-19
-20
-21
-21
-22
-23
-24
-24
-26
-27
-28
-30
-31
-32
-34
-33
-32
-35
-37
-39
-40
-41
-41
-40
-39
-38
-39
-37
-36
-33
-29
-25
-21
-19
-18
-17
-17
-17
-18
-19
-19
-18
-18
-19
-21
-22
-25
-27
-29
-29
-29
-30
-29
-29
-29
-29
-30
-30
-29
-29
-29
-28
-27
-26
-24
-23
-24
-25
-25
-25
-26
-28
-30
-35
-39
-43
-43
-31
-6
27
71
114
154
191
213
223
209
185
147
99
54
22
6
-2
-4
-6
-8
-10
-12
-13
-15
-15
-15
-16
-17
-18
-18
-19
-19
-20
-21
-22
-23
-23
-23
-23
-24
-24
-26
-27
-27
-27
-27
-27
-26
-27
-27
-28
-28
-27
-27
-26
-26
-25
-25
-25
-26
-26
-25
-24
-24
-24
-23
-23
-22
-21
-21
-19
-19
-18
-18
-18
-18
-18
-17
-18
-18
-18
-18
-18
-18
-18
-18
-17
-17
-17
-17
-17
-17
-17
-16
-17
-18
-18
-18
-17
-17
-17
-18
-19
-20
-19
-20
-19
-19
-19
-19
-19
-19
-19
-18
-17
-15
-14
-12
-8
-4
0
2
5
5
5
4
3
3
3
4
4
4
3
1
-2
-4
-7
-9
-12
-14
-16
-17
-19
-20
-21
-20
-20
-19
-18
-18
-17
-17
-17
-18
-16
-16
-15
-14
-13
-15
-17
-21
-25
-29
-33
-33
-27
-10
22
63
103
141
175
203
219
213
192
152
109
65
32
13
1
-3
-7
-10
-13
-15
-18
-19
-21
-22
-22
-23
-24
-25
-25
-24
-26
-27
-27
-28
-28
-28
-27
-28
-29
-28
-29
-28
-28
-27
-26
-25
-25
-24
-23
-22
-21
-21
-20
-20
-19
-17
-17
-16
-16
-15
-15
-13
-12
-10
-9
-7
-6
-5
-4
-4
-3
-2
-1
-1
0
0
0
0
0
1
2
2
1
0
0
-1
0
0
0
0
0
0
0
0
-1
-1
-1
-1
-2
-3
-4
-6
-7
-8
-8
-9
-9
-9
-8
-8
-8
-8
-10
-11
-11
-9
-5
-1
2
5
9
11
15
21
30
40
52
63
69
73
71
70
67
65
62
60
62
70
85
103
125
148
176
198
210
204
180
147
103
63
29
6
-5
-13
-18
-22
-25
-27
-29
-31
-33
-35
-37
-38
-40
-42
-44
-46
-47
-48
-49
-51
-53
-55
-56
-56
-57
-59
-60
-60
-62
-62
-62
-62
-62
-62
-60
-61
-61
-60
-60
-58
-57
-55
-54
-54
-52
-50
-46
-44
-41
-38
-36
-33
-30
-26
-23
-21
-18
-15
-14
-13
-12
-11
-9
-8
-7
-8
-7
-6
-6
-6
-7
-7
-7
-7
-7
-7
-7
-7
-7
-8
-8
-9
-9
-10
-11
-12
-11
-12
-12
-12
-11
-11
-11
-12
-12
-11
-10
-9
-9
-9
-8
-8
-8
-8
-8
-7
-6
-6
-6
-5
-6
-5
-5
-5
-4
-4
-3
-5
-6
-7
-7
-7
-6
-4
-2
-2
-2
-1
0
4
7
10
12
13
12
10
8
7
5
5
5
4
3
1
-2
-5
-9
-11
-14
-17
-20
-21
-22
-24
-26
-27
-28
-28
-28
-27
-26
-26
-27
-26
-26
-26
-24
-23
-22
-24
-25
-28
-32
-36
-40
-41
-38
-25
0
39
80
123
156
183
199
195
176
142
99
55
21
2
-8
-13
-16
-18
-21
-25
-26
-27
-27
-27
-29
-29
-30
-31
-32
-32
-32
-33
-35
-36
-37
-38
-37
-37
-36
-35
-36
-36
-35
-34
-34
-33
-32
-31
-30
-30
-30
-29
-28
-29
-29
-28
-27
-26
-26
-27
-29
-29
-26
-22
-20
-18
-18
-18
-17
-15
-14
-14
-13
-14
-14
-13
-12
-12
-12
-12
-11
-10
-8
-7
-10
-11
-11
-11
-11
-12
-12
-13
-14
-15
-16
-16
-18
-19
-21
-23
-24
-25
-26
-29
-30
-31
-32
-33
-34
-35
-35
-35
-36
-35
-34
-33
-31
-27
-22
-18
-15
-12
-11
-11
-11
-13
-14
-15
-14
-13
-12
-12
-14
-16
-18
-21
-22
-23
-22
-21
-20
-20
-21
-21
-21
-21
-20
-19
-19
-19
-18
-18
-18
-19
-18
-18
-18
-18
-20
-22
-26
-30
-35
-37
-33
-18
10
49
89
129
162
195
214
216
201
164
122
71
34
13
2
-1
-3
-6
-8
-11
-13
-15
-16
-16
-16
-17
-18
-20
-21
-22
-20
-19
-20
-20
-22
-24
-26
-26
-27
-27
-27
-28
-28
-29
-29
-29
-29
-29
-29
-28
-28
-27
-26
-26
-25
-24
-23
-22
-21
-20
-20
-19
-18
-17
-16
-15
-14
-12
-11
-10
-10
-10
-10
-10
-10
-9
-8
-9
-9
-9
-8
-8
-8
-8
-9
-8
-8
-9
-8
-8
-9
-9
-9
-10
-10
-12
-13
-14
-15
-17
-17
-17
-18
-18
-18
-18
-18
-17
-17
-17
-16
-16
-16
-15
-15
-13
-11
-5
-1
1
4
6
6
7
7
6
6
6
6
6
6
5
2
0
-2
-4
-6
-9
-11
-12
-13
-13
-13
-13
-13
-14
-15
-15
-15
-15
-14
-14
-14
-14
-13
-13
-13
-14
-15
-17
-20
-25
-30
-33
-30
-16
10
49
93
133
169
200
218
218
199
165
121
68
32
9
0
-4
-7
-8
-12
-14
-17
-18
-20
-21
-21
-23
-24
-25
-26
-27
-28
-29
-30
-31
-31
-32
-33
-34
-34
-34
-33
-33
-32
-31
-30
-30
-29
-28
-28
-28
-27
-26
-25
-24
-23
-23
-22
-21
-20
-18
-17
-16
-15
-14
-13
-11
-10
-9
-7
-6
-5
-5
-4
-3
-2
-1
0
0
0
0
0
0
0
0
0
1
1
1
0
0
0
0
0
0
0
0
-2
-3
-4
-4
-5
-6
-7
-7
-8
-8
-8
-9
-9
-9
-9
-9
-10
-12
-13
-10
-6
-2
1
5
8
11
18
26
35
45
56
65
71
71
69
67
65
63
60
62
67
79
95
115
136
162
192
210
215
195
165
120
74
35
8
-4
-12
-18
-22
-26
-28
-30
-31
-34
-36
-37
-38
-40
-42
-44
-46
-48
-50
-52
-53
-54
-56
-58
-61
-62
-64
-65
-67
-68
-69
-69
-70
-71
-70
-71
-69
-68
-66
-65
-64
-62
-60
-58
-57
-54
-52
-49
-47
-45
-42
-40
-37
-34
-31
-29
-27
-25
-23
-20
-18
-16
-15
-13
-12
-10
-9
-8
-7
-5
-5
-6
-6
-6
-7
-7
-7
-8
-8
-8
-8
-8
-9
-8
-9
-8
-9
-9
-9
-8
-8
-8
-7
-7
-7
-6
-6
-6
-6
-6
-7
-6
-6
-6
-6
-5
-4
-5
-5
-5
-6
-6
-6
-6
-6
-7
-7
-7
-7
-7
-7
-7
-7
-7
-7
-7
-6
-6
-6
-5
-4
-1
2
5
8
11
12
12
11
10
8
7
6
6
6
5
4
2
0
-2
-4
-7
-10
-13
-15
-16
-17
-18
-18
-19
-19
-20
-20
-20
-20
-19
-20
-21
-22
-22
-20
-19
-19
-20
-22
-26
-31
-34
-36
-31
-16
10
48
90
127
164
190
210
208
190
163
121
79
39
12
-1
-8
-12
-15
-18
-21
-23
-25
-26
-27
-27
-28
-28
-29
-30
-31
-32
-34
-35
-35
-36
-37
-37
-39
-40
-38
-38
-39
-39
-40
-41
-41
-40
-40
-38
-37
-35
-34
-33
-32
-31
-30
-29
-29
-28
-27
-27
-27
-26
-26
-25
-25
-23
-22
-21
-20
-19
-18
-17
-16
-15
-14
-14
-12
-11
-11
-11
-11
-10
-10
-9
-10
-10
-11
-11
-11
-12
-13
-14
-16
-17
-18
-19
-20
-21
-22
-23
-24
-25
-26
-26
-28
-29
-30
-31
-32
-33
-32
-33
-33
-33
-33
-32
-30
-28
-24
-20
-17
-14
-12
-11
-12
-13
-13
-13
-13
-13
-12
-12
-13
-15
-17
-17
-18
-20
-22
-22
-22
-23
-23
-23
-23
-23
-23
-23
-23
-23
-24
-23
-22
-22
-22
-21
-20
-20
-21
-22
-24
-27
-32
-36
-41
-38
-27
-4
31
71
112
151
182
208
217
208
184
143
98
49
18
1
-6
-10
-13
-14
-16
-17
-19
-20
-21
-21
-21
-22
-22
-23
-24
-25
-25
-27
-29
-30
-31
-32
-32
-33
-34
-34
-34
-35
-35
-34
-35
-35
-36
-35
-34
-34
-32
-32
-31
-31
-30
-30
-30
-29
-28
-27
-27
-25
-24
-23
-22
-21
-19
-18
-17
-16
-14
-15
-14
-14
-14
-14
-12
-11
-11
-11
-11
-12
-12
-12
-11
-11
-11
-12
-13
-13
-13
-14
-14
-14
-15
-15
-16
-17
-17
-17
-18
-18
-19
-19
-20
-20
-20
-20
-19
-19
-17
-17
-16
-16
-15
-13
-13
-10
-5
-1
2
5
6
3
1
0
0
0
1
1
0
-1
-4
-7
-10
-13
-16
-18
-20
-22
-23
-24
-24
-24
-24
-24
-24
-25
-25
-26
-25
-25
-24
-24
-24
-24
-23
-23
-23
-24
-27
-31
-36
-40
-41
-35
-17
17
59
102
141
173
199
211
205
179
141
93
49
16
-1
-9
-14
-18
-21
-23
-25
-27
-29
-30
-30
-31
-31
-31
-33
-33
-34
-35
-37
-37
-38
-39
-39
-39
-39
-40
-41
-41
-40
-38
-37
-36
-35
-34
-33
-32
-31
-31
-29
-29
-28
-28
-27
-25
-24
-23
-22
-21
-21
-19
-17
-16
-15
-13
-13
-11
-10
-10
-10
-10
-9
-8
-7
-7
-5
-5
-5
-5
-5
-4
-5
-5
-6
-6
-6
-6
-5
-6
-7
-7
-6
-6
-6
-7
-8
-9
-10
-10
-10
-12
-12
-13
-13
-14
-14
-14
-15
-14
-13
-11
-10
-10
-8
-6
-3
-1
0
0
0
0
1
3
6
12
22
33
42
50
56
59
57
57
53
51
48
46
47
52
64
80
103
128
159
190
212
219
207
177
136
92
48
17
-2
-13
-19
-24
-27
-30
-33
-34
-36
-37
-40
-41
-42
-44
-45
-47
-47
-48
-51
-52
-54
-55
-57
-57
-58
-59
-61
-62
-62
-62
-62
-63
-62
-63
-63
-62
-62
-60
-59
-57
-56
-54
-54
-53
-51
-50
-48
-46
-43
-41
-37
-34
-30
-25
-22
-20
-17
-14
-12
-10
-8
-6
-6
-4
-4
-2
-1
-1
-1
-2
-1
-1
0
0
0
0
0
-1
-2
-2
-2
-2
-2
-1
-1
-3
-4
-3
-3
-3
-2
-1
-2
-1
-2
-2
-2
-2
-1
0
-1
-1
-1
-1
-1
-1
-1
0
0
0
0
0
0
0
0
0
0
0
0
0
0
0
0
1
2
6
9
13
16
18
18
18
17
16
15
14
14
13
13
12
10
7
5
3
0
-3
-6
-8
-10
-11
-12
-13
-13
-14
-13
-14
-15
-15
-14
-14
-15
-15
-15
-15
-14
-14
-12
-13
-16
-20
-25
-29
-31
-23
-6
20
57
96
134
170
198
220
219
203
170
124
79
39
16
3
-2
-5
-8
-11
-13
-16
-18
-20
-20
-21
-21
-21
-22
-23
-24
-25
-26
-26
-27
-28
-28
-29
-30
-30
-30
-31
-31
-32
-31
-31
-29
-28
-27
-26
-25
-23
-22
-21
-21
-20
-19
-19
-19
-18
-17
-17
-17
-16
-16
-16
-15
-13
-11
-10
-9
-8
-8
-7
-6
-6
-5
-4
-4
-4
-5
-4
-4
-3
-2
-1
-1
-2
-3
-4
-4
-4
-4
-4
-4
-5
-6
-9
-10
-10
-11
-13
-14
-14
-16
-17
-18
-19
-20
-20
-21
-21
-22
-22
-23
-24
-24
-24
-22
-18
-15
-10
-6
-3
-2
-3
-2
-3
-4
-4
-4
-5
-6
-7
-8
-9
-11
-12
-14
-18
-20
-21
-20
-22
-22
-23
-22
-22
-22
-21
-21
-21
-21
-21
-22
-22
-21
-21
-20
-18
-17
-19
-23
-28
-33
-38
-41
-37
-22
5
41
81
116
151
183
206
213
200
172
133
89
45
17
0
-5
-8
-9
-10
-12
-14
-17
-18
-19
-19
-19
-20
-21
-22
-23
-24
-25
-25
-27
-28
-29
-30
-30
-31
-30
-30
-31
-30
-30
-29
-29
-29
-29
-28
-29
-29
-29
-29
-29
-29
-28
-28
-27
-26
-25
-24
-24
-23
-23
-23
-22
-22
-22
-22
-22
-21
-20
-19
-18
-18
-18
-18
-18
-18
-17
-17
-17
-17
-17
-16
-16
-15
-15
-15
-17
-18
-18
-19
-20
-21
-21
-21
-22
-22
-23
-23
-25
-26
-26
-27
-26
-26
-25
-25
-26
-26
-25
-24
-23
-21
-21
-19
-18
-16
-12
-8
-5
-2
0
0
0
0
0
0
-1
-1
-2
-2
-4
-7
-10
-13
-16
-17
-19
-21
-22
-22
-23
-23
-23
-23
-24
-25
-25
-26
-25
-25
-24
-23
-22
-21
-20
-20
-19
-21
-23
-27
-32
-38
-41
-37
-26
0
35
81
120
158
187
207
213
198
171
130
82
39
10
-4
-12
-16
-18
-21
-23
-26
-27
-29
-30
-31
-32
-32
-33
-33
-35
-37
-38
-39
-39
-39
-39
-39
-38
-39
-39
-38
-38
-38
-38
-36
-36
-34
-32
-30
-30
-30
-30
-29
-29
-28
-28
-27
-26
-25
-24
-23
-22
-20
-18
-18
-17
-15
-14
-13
-11
-9
-9
-9
-7
-7
-6
-5
-4
-4
-4
-3
-4
-3
-3
-3
-3
-3
-3
-3
-3
-3
-3
-4
-4
-4
-5
-5
-7
-8
-9
-9
-10
-11
-11
-12
-13
-13
-14
-13
-13
-14
-16
-19
-20
-20
-19
-17
-13
-8
-1
6
14
24
35
46
59
65
69
70
71
71
69
66
63
65
71
87
105
126
151
179
207
215
210
185
150
107
62
27
4
-8
-16
-21
-25
-28
-29
-32
-34
-36
-37
-38
-40
-42
-43
-45
-47
-49
-50
-52
-52
-54
-56
-59
-60
-61
-62
-62
-63
-62
-64
-64
-64
-64
-63
-62
-61
-61
-60
-59
-58
-56
-54
-51
-50
-48
-47
-43
-41
-39
-38
-35
-33
-31
-28
-25
-24
-22
-19
-18
-16
-15
-14
-13
-12
-10
-9
-8
-8
-7
-7
-6
-6
-7
-7
-8
-8
-8
-8
-8
-8
-7
-8
-8
-8
-8
-7
-6
-5
-5
-5
-6
-5
-5
-4
-4
-4
-3
-4
-3
-3
-3
-3
-3
-3
-3
-2
-2
-2
-2
-1
-2
-2
-2
-2
-2
-3
-3
-4
-3
-3
-3
-3
-3
-4
-4
-3
-3
-2
-1
0
0
1
6
8
12
15
17
19
19
19
15
12
10
11
11
11
9
6
3
0
-6
-10
-12
-14
-16
-17
-18
-19
-19
-19
-18
-18
-16
-16
-16
-16
-16
-15
-14
-13
-14
-15
-16
-17
-19
-22
-26
-30
-32
-31
-20
0
34
77
121
160
193
212
218
200
167
123
75
38
13
1
-4
-8
-12
-15
-19
-22
-24
-25
-25
-25
-26
-26
-28
-29
-30
-30
-30
-31
-30
-31
-32
-32
-34
-34
-34
-34
-34
-34
-35
-36
-35
-34
-34
-34
-32
-31
-29
-27
-27
-26
-25
-23
-23
-22
-21
-22
-23
-23
-20
-18
-17
-16
-15
-15
-16
-16
-13
-10
-9
-8
-7
-6
-4
-3
-5
-7
-6
-5
-4
-3
-4
-7
-7
-6
-6
-6
-6
-6
-7
-8
-9
-11
-12
-12
-14
-15
-15
-17
-19
-20
-21
-22
-24
-24
-24
-25
-27
-28
-27
-26
-24
-23
-23
-21
-18
-14
-10
-6
-2
0
0
0
-1
-2
-2
-3
-3
-3
-3
-5
-8
-9
-10
-13
-15
-17
-18
-18
-19
-18
-18
-18
-18
-17
-16
-16
-15
-15
-14
-15
-15
-14
-13
-12
-12
-12
-13
-15
-19
-25
-30
-34
-35
-29
-11
17
58
99
138
172
200
220
216
198
164
120
74
36
14
1
-3
-5
-8
-12
-15
-16
-19
-20
-19
-18
-18
-18
-17
-18
-18
-19
-19
-19
-20
-21
-23
-23
-24
-24
-25
-25
-25
-25
-25
-26
-27
-27
-26
-24
-23
-21
-19
-18
-20
-20
-19
-17
-16
-15
-16
-16
-14
-13
-12
-12
-11
-11
-10
-9
-9
-9
-9
-8
-9
-8
-8
-8
-6
-6
-7
-7
-8
-9
-8
-8
-7
-7
-8
-8
-8
-8
-8
-8
-9
-9
-9
-10
-11
-12
-12
-13
-14
-13
-13
-15
-17
-19
-19
-20
-20
-20
-18
-18
-17
-15
-15
-14
-14
-14
-11
-6
-2
1
3
6
6
6
5
4
1
-1
-2
-2
-3
-7
-11
-15
-17
-18
-19
-19
-20
-20
-20
-20
-20
-21
-21
-22
-20
-18
-18
-19
-19
-18
-18
-18
-18
-17
-17
-17
-19
-23
-27
-32
-37
-36
-29
-9
21
59
100
137
172
203
217
220
197
163
118
66
29
4
-5
-10
-14
-17
-20
-22
-24
-26
-28
-28
-28
-30
-32
-34
-33
-32
-33
-35
-36
-37
-38
-37
-36
-36
-38
-38
-37
-37
-38
-38
-39
-39
-39
-38
-37
-34
-32
-32
-31
-30
-29
-28
-28
-28
-27
-25
-23
-23
-21
-20
-20
-19
-18
-17
-16
-15
-14
-13
-11
-9
-8
-9
-9
-9
-9
-8
-8
-9
-9
-8
-8
-8
-8
-8
-8
-9
-10
-10
-11
-11
-11
-12
-13
-13
-13
-14
-17
-19
-20
-20
-20
-20
-21
-21
-21
-20
-19
-19
-17
-17
-15
-14
-13
-12
-11
-8
-4
0
-1
0
0
1
3
10
21
33
45
53
59
60
59
57
59
61
56
52
52
61
76
100
124
148
175
199
221
219
204
169
120
74
33
7
-8
-18
-24
-27
-28
-30
-31
-32
-35
-38
-41
-42
-43
-45
-46
-48
-51
-56
-58
-58
-57
-57
-59
-62
-64
-64
-67
-69
-70
-69
-71
-73
-74
-73
-71
-70
-69
-68
-67
-67
-67
-65
-65
-63
-61
-57
-53
-51
-49
-47
-43
-40
-37
-33
-30
-28
-25
-22
-20
-19
-17
-14
-14
-13
-12
-11
-12
-11
-10
-9
-10
-11
-10
-9
-10
-10
-10
-11
-11
-11
-11
-12
-12
-12
-12
-11
-11
-12
-13
-14
-12
-10
-10
-10
-9
-8
-8
-8
-8
-8
-8
-8
-9
-9
-8
-8
-8
-9
-9
-9
-9
-10
-11
-12
-12
-10
-10
-10
-9
-9
-9
-9
-8
-9
-10
-9
-8
-4
0
3
5
7
7
6
4
2
1
0
1
3
2
-1
-6
-9
-12
-13
-15
-15
-16
-20
-22
-23
-23
-23
-22
-22
-22
-22
-22
-21
-21
-20
-20
-20
-20
-19
-20
-20
-22
-26
-32
-35
-37
-36
-27
-9
24
65
107
146
179
207
215
204
175
136
89
47
18
2
-5
-9
-14
-17
-20
-21
-23
-24
-24
-24
-24
-26
-27
-28
-28
-29
-30
-31
-32
-32
-33
-33
-34
-34
-34
-35
-35
-35
-35
-35
-33
-31
-31
-32
-32
-32
-32
-32
-30
-27
-24
-22
-21
-22
-22
-22
-22
-21
-21
-20
-18
-16
-14
-14
-13
-12
-11
-9
-8
-8
-8
-8
-7
-6
-6
-5
-4
-5
-6
-6
-5
-5
-4
-3
-4
-4
-5
-5
-6
-6
-6
-8
-8
-9
-10
-12
-15
-16
-18
-19
-21
-21
-23
-24
-25
-26
-26
-27
-27
-27
-27
-27
-26
-24
-21
-16
-11
-9
-7
-6
-6
-6
-7
-8
-9
-8
-7
-7
-6
-8
-10
-11
-12
-13
-15
-15
-16
-16
-17
-17
-16
-16
-15
-15
-15
-14
-14
-14
-13
-12
-12
-11
-11
-11
-13
-14
-16
-21
-25
-31
-34
-34
-26
-7
26
65
105
141
173
204
217
217
191
152
105
58
27
9
1
-3
-6
-7
-9
-11
-12
-13
-13
-13
-13
-14
-15
-16
-17
-17
-16
-17
-18
-19
-20
-21
-22
-23
-24
-24
-25
-26
-27
-28
-29
-28
-27
-26
-26
-25
-25
-24
-24
-23
-23
-22
-23
-24
-24
-23
-21
-21
-18
-17
-16
-15
-14
-13
-13
-12
-12
-11
-10
-9
-8
-8
-8
-10
-10
-10
-10
-10
-10
-9
-10
-10
-10
-10
-10
-9
-9
-9
-8
-6
-6
-10
-12
-13
-13
-13
-14
-15
-17
-19
-19
-19
-20
-19
-18
-17
-17
-17
-16
-16
-15
-14
-13
-11
-9
-5
-2
1
3
4
3
2
0
0
0
-1
-2
-1
-2
-3
-7
-10
-14
-17
-19
-21
-23
-23
-21
-22
-23
-25
-26
-26
-26
-25
-25
-25
-25
-24
-23
-25
-25
-25
-24
-25
-26
-28
-32
-38
-42
-45
-44
-35
-15
17
55
92
125
158
184
202
199
178
139
90
46
10
-8
-18
-22
-27
-30
-32
-33
-34
-35
-36
-36
-37
-38
-40
-41
-41
-41
-41
-42
-45
-47
-48
-48
-49
-49
-50
-50
-51
-51
-52
-52
-52
-52
-50
-49
-47
-47
-48
-48
-46
-44
-43
-41
-40
-38
-37
-34
-33
-33
-34
-33
-31
-31
-29
-26
-26
-24
-22
-21
-21
-19
-17
-16
-17
-19
-20
-21
-23
-26
-24
-21
-19
-20
-20
-21
-22
-22
-23
-24
-24
-21
-19
-21
-24
-25
-24
-24
-23
-24
-27
-30
-31
-31
-31
-31
-31
-31
-32
-32
-33
-36
-37
-38
-37
-35
-33
-29
-23
-15
-4
8
18
28
38
47
51
53
52
52
50
47
45
46
49
54
68
88
113
142
172
195
202
196
171
138
93
49
13
-11
-26
-35
-37
-39
-45
-49
-52
-54
-55
-58
-58
-59
-60
-62
-64
-65
-65
-66
-68
-68
-70
-71
-72
-72
-74
-77
-79
-82
-81
-82
-83
-83
-82
-81
-82
-81
-81
-80
-79
-78
-78
-78
-75
-74
-71
-71
-70
-70
-65
-61
-58
-54
-52
-48
-47
-44
-41
-38
-36
-37
-36
-35
-34
-32
-29
-27
-25
-23
-21
-19
-17
-18
-19
-19
-20
-20
-20
-20
-19
-20
-20
-20
-19
-19
-18
-17
-18
-18
-18
-18
-18
-17
-14
-13
-13
-13
-14
-15
-16
-16
-14
-12
-11
-11
-11
-10
-10
-11
-11
-11
-12
-13
-13
-13
-12
-11
-9
-9
-9
-8
-8
-8
-11
-12
-11
-11
-10
-8
-6
-7
-8
-8
-7
-6
-6
-7
-3
3
6
8
8
7
6
9
9
9
6
5
4
3
3
1
-2
-6
-9
-11
-13
-14
-16
-17
-17
-16
-15
-15
-15
-15
-14
-13
-13
-13
-13
-13
-12
-10
-13
-16
-17
-19
-22
-27
-29
-33
-32
-23
-5
23
63
105
151
184
207
216
206
185
144
99
53
20
5
-2
-5
-9
-11
-13
-15
-18
-20
-21
-22
-21
-20
-22
-23
-24
-24
-24
-25
-27
-29
-31
-32
-32
-30
-29
-30
-31
-30
-29
-28
-27
-26
-27
-25
-23
-21
-21
-19
-19
-19
-18
-17
-16
-15
-13
-13
-13
-12
-10
-8
-10
-9
-9
-8
-6
-4
-2
-2
-2
-1
0
1
2
3
2
2
2
2
2
3
2
2
2
1
0
0
-1
-1
-2
-5
-5
-6
-6
-7
-8
-10
-14
-17
-18
-18
-18
-20
-21
-22
-21
-18
-18
-20
-21
-21
-20
-19
-17
-13
-9
-7
-4
-1
2
4
7
6
4
1
0
1
1
2
0
0
-1
-2
-5
-6
-8
-12
-14
-13
-11
-10
-10
-10
-11
-11
-9
-7
-7
-9
-8
-9
-8
-7
-7
-7
-7
-8
-10
-14
-18
-24
-28
-30
-22
-3
30
69
111
150
183
207
219
209
187
144
96
50
20
6
-1
-4
-7
-10
-11
-12
-14
-15
-15
-16
-15
-16
-18
-19
-19
-19
-22
-24
-23
-23
-24
-25
-25
-26
-27
-27
-26
-26
-28
-29
-29
-30
-29
-28
-27
-26
-26
-25
-24
-24
-24
-24
-25
-23
-22
-22
-22
-21
-20
-19
-18
-17
-16
-17
-16
-16
-14
-15
-15
-15
-15
-16
-16
-16
-16
-16
-15
-15
-15
-14
-13
-13
-14
-15
-14
-16
-16
-15
-14
-15
-16
-16
-15
-16
-18
-20
-20
-21
-21
-21
-22
-22
-22
-22
-23
-24
-25
-24
-23
-22
-22
-21
-20
-17
-14
-10
-6
-2
0
1
0
0
0
1
-1
-2
-2
-4
-8
-11
-14
-17
-20
-24
-26
-26
-26
-26
-27
-28
-30
-30
-29
-28
-28
-28
-28
-28
-28
-28
-28
-27
-27
-27
-28
-28
-29
-33
-37
-42
-47
-46
-36
-14
17
59
105
143
178
200
209
197
171
133
83
33
2
-12
-18
-21
-24
-27
-29
-32
-34
-35
-36
-36
-36
-35
-35
-36
-39
-41
-41
-41
-41
-42
-43
-44
-45
-45
-46
-46
-46
-46
-46
-46
-46
-46
-45
-44
-42
-42
-41
-41
-41
-40
-37
-35
-34
-34
-34
-32
-29
-25
-24
-25
-25
-23
-22
-21
-19
-18
-16
-16
-15
-15
-14
-13
-12
-10
-10
-10
-10
-9
-8
-8
-8
-9
-10
-10
-8
-7
-7
-8
-9
-9
-10
-11
-12
-12
-11
-11
-10
-10
-12
-14
-15
-15
-15
-15
-15
-14
-14
-13
-12
-12
-12
-11
-10
-10
-12
-13
-10
-7
-3
0
3
5
7
11
18
29
38
49
58
64
65
65
62
58
54
50
50
52
60
75
93
117
140
171
196
215
215
196
165
125
82
42
12
-6
-15
-19
-22
-25
-28
-30
-31
-32
-33
-33
-33
-35
-37
-38
-40
-41
-44
-44
-46
-48
-49
-51
-52
-54
-53
-56
-57
-59
-59
-59
-60
-60
-61
-61
-60
-58
-58
-58
-56
-54
-54
-56
-54
-52
-50
-49
-47
-46
-43
-40
-37
-32
-29
-26
-25
-23
-21
-19
-16
-15
-12
-9
-8
-8
-8
-8
-7
-6
-6
-5
-5
-4
-4
-3
-3
-3
-1
-1
-2
-3
-3
-3
-3
-3
-3
-2
-3
-4
-5
-6
-6
-6
-5
-6
-6
-6
-6
-5
-4
-3
-4
-4
-4
-3
-3
-5
-5
-1
0
0
0
1
1
1
1
1
1
2
2
1
1
3
3
3
2
3
5
5
7
9
12
15
19
21
21
21
21
20
18
18
16
15
13
13
11
7
4
2
0
-1
-6
-10
-12
-14
-17
-20
-17
-13
-11
-12
-12
-13
-14
-14
-12
-10
-11
-11
-12
-11
-13
-14
-16
-19
-22
-26
-27
-24
-13
10
44
86
125
161
193
213
219
206
178
142
95
56
25
10
3
-1
-4
-7
-9
-11
-15
-18
-16
-14
-14
-15
-17
-18
-19
-19
-19
-21
-21
-22
-22
-23
-26
-25
-25
-24
-26
-27
-26
-25
-24
-24
-22
-22
-23
-23
-22
-21
-20
-18
-18
-17
-17
-16
-15
-14
-14
-12
-11
-10
-10
-10
-9
-8
-6
-5
-5
-5
-3
-2
-2
-2
-2
-1
0
0
-1
-1
-2
-1
-1
0
0
0
-1
-1
0
-1
-4
-5
-5
-5
-6
-8
-9
-10
-12
-14
-16
-17
-19
-20
-22
-23
-24
-25
-24
-22
-20
-21
-20
-21
-21
-19
-15
-11
-7
-3
1
4
1
-1
-1
-1
-1
-1
0
0
0
-2
-4
-5
-6
-9
-10
-11
-11
-12
-11
-10
-10
-12
-12
-11
-10
-10
-10
-9
-9
-9
-8
-9
-10
-10
-11
-12
-13
-15
-19
-24
-29
-32
-30
-18
4
37
79
120
157
192
212
219
203
173
131
83
46
21
9
2
0
-2
-3
-4
-8
-19
-24
-17
-11
-12
-13
-13
-14
-16
-17
-18
-17
-19
-24
-23
-20
-20
-21
-22
-24
-27
-27
-25
-22
-23
-23
-24
-25
-25
-24
-23
-21
-20
-20
-19
-19
-19
-20
-19
-17
-15
-15
-15
-14
-14
-14
-14
-12
-11
-10
-10
-11
-9
-8
-9
-9
-9
-7
-7
-7
-9
-8
-7
-8
-8
-8
-5
-7
-8
-8
-10
-12
-12
-12
-12
-12
-12
-13
-14
-15
-15
-16
-17
-18
-19
-19
-20
-19
-18
-18
-18
-16
-15
-15
-14
-11
-7
-2
2
5
8
9
9
6
3
1
2
2
2
0
-1
-4
-8
-11
-15
-17
-19
-20
-20
-20
-20
-21
-22
-20
-17
-16
-21
-23
-23
-24
-23
-22
-21
-21
-22
-22
-23
-24
-26
-28
-33
-37
-42
-43
-37
-22
6
46
85
125
160
190
210
206
189
152
108
63
26
4
-7
-12
-16
-20
-21
-23
-26
-29
-31
-33
-36
-35
-34
-35
-35
-36
-39
-40
-44
-46
-43
-41
-42
-43
-43
-43
-43
-43
-45
-46
-45
-46
-44
-42
-40
-40
-38
-37
-37
-37
-36
-36
-36
-35
-35
-34
-34
-34
-33
-29
-27
-24
-24
-26
-25
-24
-22
-21
-21
-20
-20
-19
-17
-15
-14
-13
-12
-12
-13
-12
-10
-12
-11
-9
-8
-8
-8
-8
-8
-8
-10
-11
-12
-12
-14
-15
-14
-14
-14
-15
-17
-17
-18
-19
-18
-17
-18
-18
-21
-22
-23
-21
-21
-21
-19
-15
-8
0
13
24
35
45
56
64
67
68
67
68
65
63
61
62
64
73
91
109
134
157
189
210
216
200
166
128
82
40
7
-15
-25
-33
-38
-43
-48
-50
-53
-54
-58
-59
-60
-61
-62
-64
-65
-67
-68
-70
-72
-74
-75
-75
-78
-76
-77
-78
-78
-78
-80
-81
-82
-84
-82
-77
-75
-76
-76
-74
-72
-72
-72
-69
-68
-67
-65
-61
-58
-57
-55
-52
-50
-46
-43
-41
-39
-37
-35
-33
-32
-30
-28
-25
-22
-22
-20
-20
-19
-20
-20
-22
-21
-18
-17
-17
-18
-18
-18
-17
-17
-17
-16
-16
-15
-17
-16
-15
-15
-15
-14
-14
-14
-14
-15
-13
-13
-13
-12
-10
-10
-11
-10
-9
-8
-8
-8
-8
-8
-7
-8
-8
-9
-8
-9
-8
-9
-9
-9
-9
-10
-11
-10
-9
-8
-8
-8
-8
-8
-7
-6
-6
-6
-6
-4
-1
2
5
9
12
15
15
15
15
13
12
10
6
4
7
8
7
3
0
0
-3
-8
-12
-14
-14
-15
-15
-16
-18
-20
-20
-18
-16
-15
-14
-12
-13
-13
-13
-13
-14
-15
-17
-19
-24
-29
-32
-34
-33
-24
-4
31
71
117
153
188
208
215
203
177
140
95
52
24
7
0
-4
-7
-11
-14
-16
-18
-19
-20
-21
-23
-22
-22
-21
-22
-25
-27
-27
-24
-25
-27
-28
-30
-30
-29
-29
-29
-29
-29
-29
-28
-27
-26
-28
-29
-25
-17
-16
-20
-20
-18
-17
-17
-16
-17
-16
-15
-14
-15
-14
-11
-11
-12
-12
-10
-9
-8
-8
-7
-7
-6
-5
-4
-4
-3
-1
-1
-2
-1
-1
-1
-3
-3
-4
-4
-3
-3
-4
-3
-1
0
-3
-9
-13
-14
-15
-16
-18
-20
-22
-23
-25
-26
-25
-26
-27
-25
-25
-25
-25
-25
-25
-24
-21
-17
-13
-11
-7
-3
-1
0
0
1
0
0
0
1
4
3
1
-1
-3
-5
-8
-10
-11
-11
-12
-12
-11
-11
-11
-10
-11
-12
-12
-11
-11
-11
-11
-10
-10
-10
-10
-10
-10
-12
-15
-18
-22
-26
-30
-31
-28
-12
18
58
95
133
164
196
215
215
196
160
120
73
36
13
1
-3
-6
-8
-9
-10
-10
-8
-6
-8
-14
-17
-18
-18
-17
-17
-18
-17
-17
-17
-18
-18
-19
-19
-20
-20
-20
-20
-21
-23
-23
-23
-23
-22
-22
-21
-21
-21
-21
-21
-21
-21
-20
-19
-18
-18
-18
-19
-18
-14
-10
-8
-10
-10
-9
-9
-10
-11
-9
-7
-6
-6
-6
-7
-7
-7
-7
-7
-7
-7
-7
-7
-7
-6
-5
-5
-6
-7
-8
-9
-10
-10
-13
-14
-15
-15
-16
-16
-18
-19
-19
-20
-20
-20
-20
-19
-21
-20
-18
-16
-16
-18
-18
-16
-14
-11
-7
-3
-1
0
1
0
0
-2
-2
-2
-2
-2
-4
-6
-9
-13
-18
-22
-24
-26
-26
-27
-25
-24
-26
-27
-27
-24
-24
-26
-27
-27
-26
-24
-23
-24
-24
-25
-25
-27
-31
-34
-38
-43
-47
-43
-29
-3
35
76
115
152
182
202
202
182
152
107
65
26
1
-13
-19
-22
-26
-29
-32
-34
-35
-36
-37
-38
-38
-39
-39
-39
-40
-42
-45
-47
-50
-50
-49
-49
-49
-49
-49
-51
-52
-52
-52
-51
-49
-47
-47
-48
-47
-46
-44
-44
-42
-42
-40
-40
-38
-36
-35
-34
-34
-32
-31
-30
-29
-28
-26
-25
-24
-23
-22
-22
-21
-21
-21
-21
-21
-20
-21
-21
-21
-20
-19
-18
-18
-19
-20
-19
-19
-18
-17
-18
-18
-19
-20
-21
-22
-23
-23
-23
-23
-24
-25
-25
-26
-26
-26
-27
-26
-26
-26
-26
-26
-24
-25
-26
-27
-29
-28
-25
-20
-16
-13
-10
-7
-5
0
6
18
30
41
49
54
54
50
47
44
39
38
39
46
59
78
100
125
151
180
200
205
193
161
124
78
40
10
-8
-18
-24
-27
-32
-36
-39
-41
-43
-44
-45
-46
-47
-48
-50
-52
-54
-55
-57
-59
-60
-62
-63
-65
-67
-68
-68
-69
-72
-72
-73
-73
-72
-71
-71
-72
-70
-70
-69
-69
-69
-68
-65
-63
-62
-60
-59
-57
-55
-52
-49
-46
-43
-41
-39
-37
-35
-34
-32
-30
-29
-27
-24
-20
-19
-18
-16
-15
-13
-13
-12
-10
-9
-10
-10
-10
-10
-10
-11
-11
-11
-11
-12
-12
-12
-11
-12
-13
-12
-12
-13
-13
-12
-13
-13
-13
-13
-13
-14
-14
-13
-13
-13
-14
-13
-12
-12
-11
-11
-12
-12
-13
-13
-12
-12
-10
-11
-10
-9
-8
-7
-7
-6
-6
-6
-5
-5
-4
-4
-3
-1
2
4
7
9
11
11
12
11
11
10
9
8
6
5
4
2
-1
-5
-8
-11
-13
-14
-15
-17
-17
-17
-17
-17
-18
-18
-19
-18
-17
-16
-16
-15
-15
-17
-18
-17
-15
-14
-15
-17
-21
-27
-32
-34
-30
-17
7
45
88
129
169
197
218
216
199
168
124
80
40
15
2
-4
-8
-12
-14
-16
-17
-20
-21
-22
-22
-22
-24
-24
-26
-27
-27
-28
-28
-28
-28
-29
-32
-32
-31
-31
-31
-32
-31
-31
-30
-30
-29
-30
-29
-29
-27
-26
-25
-23
-22
-21
-21
-19
-19
-18
-18
-16
-16
-15
-14
-13
-13
-13
-10
-9
-8
-8
-7
-6
-6
-5
-4
-4
-3
-2
-2
-1
-1
0
0
-1
-1
-1
0
-1
-1
0
-1
-1
-2
-2
-1
-2
-4
-7
-9
-11
-11
-12
-13
-15
-16
-18
-19
-20
-20
-21
-23
-23
-23
-23
-23
-23
-23
-22
-20
-18
-14
-10
-6
-3
-1
0
0
0
-1
-2
-3
-3
-3
-3
-3
-6
-10
-11
-12
-14
-15
-16
-17
-17
-17
-16
-16
-16
-14
-14
-12
-12
-13
-13
-12
-13
-13
-12
-12
-12
-13
-15
-19
-23
-26
-32
-34
-31
-17
10
47
87
125
161
195
219
226
214
182
145
95
55
27
14
8
5
2
0
-1
-2
-2
-3
-7
-9
-9
-7
-7
-8
-9
-10
-12
-13
-13
-13
-14
-15
-16
-17
-17
-18
-19
-19
-20
-20
-21
-22
-22
-23
-22
-21
-20
-20
-20
-19
-19
-18
-18
-17
-17
-15
-15
-14
-12
-9
-9
-10
-10
-9
-8
-7
-7
-7
-7
-7
-7
-7
-7
-7
-7
-7
-8
-10
-9
-9
-9
-9
-9
-9
-9
-10
-12
-16
-18
-16
-14
-14
-16
-17
-16
-17
-17
-16
-16
-16
-17
-18
-19
-17
-16
-16
-16
-16
-16
-16
-15
-15
-14
-12
-10
-6
-1
4
6
7
8
8
8
7
6
3
2
1
1
0
-1
-4
-6
-8
-10
-13
-15
-16
-16
-17
-17
-17
-17
-19
-20
-18
-18
-17
-17
-18
-19
-18
-17
-17
-18
-20
-22
-23
-24
-27
-32
-36
-36
-28
-6
30
68
108
144
181
206
219
209
184
147
101
52
18
1
-5
-8
-10
-13
-15
-19
-22
-24
-25
-25
-26
-27
-29
-30
-32
-32
-32
-32
-33
-34
-35
-36
-39
-40
-41
-39
-39
-38
-38
-37
-37
-37
-36
-36
-34
-33
-31
-31
-30
-27
-22
-19
-20
-23
-23
-23
-23
-23
-21
-18
-16
-15
-15
-15
-16
-16
-15
-14
-14
-12
-10
-8
-9
-9
-9
-9
-10
-9
-10
-10
-11
-11
-10
-12
-12
-13
-13
-13
-13
-13
-15
-15
-17
-19
-19
-21
-22
-23
-22
-22
-23
-23
-23
-21
-21
-23
-26
-28
-30
-30
-29
-26
-23
-21
-16
-9
0
15
32
48
59
63
66
66
64
64
63
61
59
61
67
78
96
117
142
171
201
217
216
192
157
112
66
27
1
-13
-22
-27
-31
-34
-38
-41
-42
-44
-47
-49
-50
-51
-54
-58
-60
-61
-60
-61
-61
-64
-66
-66
-68
-69
-71
-71
-73
-73
-73
-74
-73
-74
-73
-73
-72
-72
-71
-70
-70
-68
-67
-63
-62
-60
-59
-59
-57
-55
-52
-50
-47
-44
-42
-40
-39
-37
-35
-32
-30
-29
-29
-28
-26
-25
-24
-23
-22
-18
-17
-18
-18
-17
-14
-13
-14
-15
-14
-15
-15
-14
-15
-17
-16
-15
-14
-13
-13
-13
-13
-14
-14
-13
-13
-12
-13
-13
-13
-14
-13
-13
-11
-11
-10
-10
-10
-10
-11
-10
-10
-9
-9
-9
-10
-11
-11
-11
-10
-10
-9
-8
-7
-7
-8
-9
-10
-10
-9
-9
-9
-9
-9
-9
-9
-9
-7
-5
0
3
6
9
11
9
8
7
7
8
6
6
5
4
0
-2
-5
-8
-12
-15
-18
-21
-23
-23
-24
-25
-24
-24
-24
-24
-24
-23
-21
-21
-21
-21
-21
-20
-20
-19
-21
-24
-27
-31
-36
-40
-37
-24
1
40
82
125
164
195
219
223
212
182
137
90
44
17
2
-4
-9
-12
-15
-19
-22
-24
-26
-26
-27
-26
-27
-27
-28
-29
-30
-31
-32
-32
-33
-33
-33
-34
-35
-36
-38
-40
-43
-44
-43
-39
-38
-37
-37
-36
-35
-36
-35
-32
-28
-24
-24
-27
-26
-24
-23
-22
-21
-20
-19
-19
-17
-17
-16
-15
-13
-12
-12
-11
-11
-11
-10
-8
-8
-7
-6
-5
-5
-6
-5
-5
-6
-7
-7
-7
-9
-11
-11
-12
-12
-12
-14
-15
-15
-17
-20
-22
-22
-22
-23
-25
-27
-28
-27
-27
-27
-27
-27
-27
-27
-26
-24
-23
-21
-21
-21
-21
-15
-9
-5
-1
0
3
7
7
5
3
3
3
2
1
1
2
1
-2
-4
-5
-9
-11
-10
-9
-9
-9
-8
-9
-9
-8
-7
-7
-7
-7
-6
-7
-7
-7
-7
-7
-8
-8
-9
-12
-18
-23
-29
-31
-27
-14
13
51
88
126
161
197
221
230
217
191
151
106
60
30
13
5
1
-1
-4
-6
-7
-7
-10
-9
-9
-8
-8
-9
-9
-10
-10
-10
-10
-11
-13
-14
-15
-16
-18
-18
-16
-15
-15
-18
-18
-19
-18
-18
-17
-17
-17
-17
-16
-12
-10
-11
-11
-10
-9
-10
-10
-9
-6
-3
-3
-3
-2
-1
0
1
3
2
1
2
2
3
3
3
3
2
2
0
0
0
0
1
1
1
0
0
0
0
-1
-2
-2
-3
-2
-2
-2
-5
-8
-8
-8
-8
-10
-10
-11
-11
-10
-9
-7
-7
-6
-7
-7
-6
-5
-4
-3
0
7
12
15
16
16
17
18
17
15
13
11
10
9
8
6
3
0
-1
-3
-3
-4
-7
-10
-10
-10
-10
-11
-10
-8
-8
-8
-8
-7
-6
-6
-5
-6
-7
-9
-9
-10
-12
-15
-21
-26
-30
-33
-29
-14
12
49
90
126
164
193
219
224
213
186
143
97
53
24
9
1
-2
-6
-9
-12
-15
-18
-19
-20
-21
-22
-24
-25
-26
-27
-29
-29
-28
-29
-31
-32
-34
-34
-35
-35
-36
-35
-36
-36
-36
-36
-36
-35
-34
-32
-28
-26
-24
-20
-19
-20
-20
-20
-20
-17
-14
-13
-14
-14
-12
-11
-10
-9
-8
-9
-7
-6
-4
-4
-3
0
1
0
-1
-1
-1
-1
-1
-2
-1
-1
-1
-1
-2
-4
-5
-5
-7
-7
-5
-5
-7
-10
-12
-14
-15
-17
-20
-20
-19
-19
-20
-20
-19
-18
-18
-19
-20
-19
-19
-19
-20
-21
-20
-17
-13
-11
-8
-7
-4
-2
1
5
12
23
34
45
50
51
48
45
43
39
36
33
37
47
63
84
106
138
168
196
205
198
174
139
98
53
15
-9
-25
-32
-37
-40
-44
-46
-48
-51
-53
-57
-60
-63
-63
-64
-66
-67
-69
-69
-72
-73
-76
-78
-80
-82
-83
-85
-85
-87
-87
-86
-88
-88
-88
-87
-87
-84
-84
-83
-83
-83
-81
-80
-79
-79
-78
-76
-73
-71
-70
-66
-64
-61
-58
-55
-53
-51
-48
-47
-46
-45
-42
-40
-38
-36
-35
-35
-34
-33
-32
-31
-30
-29
-29
-30
-30
-30
-30
-30
-30
-29
-28
-28
-30
-31
-32
-32
-32
-32
-31
-31
-31
-31
-31
-32
-32
-32
-32
-32
-32
-32
-33
-33
-32
-30
-30
-30
-30
-30
-30
-30
-30
-29
-29
-28
-28
-28
-28
-26
-25
-24
-24
-24
-25
-25
-25
-24
-23
-24
-24
-23
-19
-15
-12
-10
-8
-6
-6
-5
-5
-5
-6
-7
-8
-8
-9
-12
-15
-17
-18
-20
-24
-26
-30
-31
-32
-32
-31
-31
-31
-31
-31
-31
-31
-30
-32
-33
-33
-31
-29
-28
-27
-27
-29
-32
-37
-42
-45
-47
-45
-37
-15
17
58
100
139
172
196
207
199
174
135
88
40
10
-6
-13
-16
-19
-22
-24
-27
-29
-31
-31
-32
-33
-34
-36
-37
-38
-39
-40
-40
-40
-38
-38
-40
-42
-43
-44
-45
-45
-44
-45
-46
-48
-48
-49
-49
-48
-48
-47
-45
-42
-42
-42
-41
-40
-38
-37
-36
-35
-33
-32
-31
-30
-29
-27
-26
-25
-24
-23
-22
-21
-20
-18
-17
-16
-15
-14
-14
-14
-15
-15
-15
-16
-15
-15
-15
-15
-16
-17
-18
-17
-17
-17
-19
-21
-21
-23
-25
-26
-26
-27
-28
-28
-29
-30
-32
-33
-34
-34
-35
-34
-33
-32
-31
-30
-29
-27
-26
-25
-25
-22
-17
-12
-8
-4
-3
-1
-1
-2
-2
-2
-2
-1
0
0
0
-1
-3
-6
-9
-10
-10
-10
-11
-12
-12
-12
-12
-12
-11
-10
-9
-9
-8
-8
-9
-9
-10
-10
-10
-10
-11
-13
-17
-22
-27
-32
-36
-33
-16
12
50
93
130
169
198
223
227
211
180
134
87
47
20
5
-1
-4
-7
-9
-12
-14
-14
-15
-14
-15
-14
-14
-15
-16
-16
-16
-17
-16
-17
-17
-17
-18
-19
-18
-18
-19
-19
-19
-20
-21
-20
-19
-17
-16
-16
-16
-16
-15
-16
-16
-16
-17
-17
-17
-16
-16
-15
-14
-13
-11
-10
-9
-8
-6
-5
-4
-4
-4
-3
-1
0
0
0
-1
-1
-1
-1
-1
-3
-3
-3
-3
-4
-5
-5
-5
-5
-6
-6
-6
-7
-8
-9
-9
-9
-10
-11
-14
-15
-15
-14
-14
-14
-14
-15
-15
-15
-15
-15
-14
-14
-13
-14
-15
-15
-12
-7
-2
2
5
6
5
4
1
0
-1
-3
-4
-7
-9
-12
-14
-15
-15
-17
-20
-22
-24
-26
-27
-26
-24
-22
-22
-23
-24
-24
-23
-22
-23
-23
-24
-23
-23
-23
-23
-23
-24
-26
-29
-36
-42
-46
-42
-27
-2
34
75
112
152
185
211
223
208
181
137
90
43
10
-5
-12
-15
-17
-19
-20
-23
-25
-26
-26
-27
-29
-32
-33
-32
-31
-31
-33
-34
-36
-38
-39
-40
-41
-41
-40
-41
-42
-43
-44
-45
-45
-43
-43
-42
-40
-39
-38
-37
-36
-35
-33
-33
-32
-29
-28
-28
-29
-29
-27
-24
-22
-21
-21
-20
-18
-17
-16
-16
-16
-15
-15
-14
-15
-14
-14
-15
-15
-14
-13
-13
-15
-16
-18
-20
-22
-21
-19
-19
-18
-18
-19
-19
-19
-19
-20
-20
-21
-23
-25
-26
-27
-26
-25
-24
-25
-25
-24
-24
-23
-22
-23
-23
-23
-25
-26
-26
-21
-17
-12
-6
-1
2
8
17
29
41
51
59
60
60
58
56
53
47
47
48
55
65
84
106
136
169
204
225
225
209
171
131
82
40
9
-8
-19
-25
-30
-33
-37
-40
-41
-43
-44
-46
-47
-49
-51
-52
-53
-54
-56
-57
-57
-57
-58
-59
-62
-64
-66
-68
-69
-71
-70
-71
-70
-71
-71
-71
-72
-69
-67
-65
-65
-63
-62
-61
-59
-58
-57
-55
-51
-48
-44
-42
-41
-38
-36
-34
-33
-31
-29
-26
-22
-20
-19
-17
-16
-14
-11
-8
-8
-9
-9
-10
-11
-12
-14
-12
-10
-10
-10
-9
-10
-11
-11
-11
-11
-12
-12
-11
-11
-11
-11
-10
-10
-9
-10
-9
-8
-8
-8
-8
-7
-7
-7
-7
-7
-7
-7
-7
-6
-6
-7
-8
-8
-7
-6
-5
-4
-4
-3
-3
-3
-4
-4
-4
-5
-4
-4
-4
-3
-2
-2
-1
0
1
5
9
13
15
16
15
14
13
12
10
8
8
7
6
3
0
-3
-6
-8
-11
-13
-15
-16
-18
-18
-18
-17
-17
-17
-17
-16
-16
-16
-15
-13
-13
-12
-12
-13
-14
-16
-17
-21
-26
-31
-34
-31
-19
5
44
88
127
168
197
223
224
209
179
135
87
43
16
3
-2
-5
-9
-12
-14
-17
-18
-19
-19
-19
-20
-21
-22
-23
-24
-24
-24
-26
-27
-28
-29
-30
-30
-31
-31
-32
-32
-34
-34
-34
-33
-32
-32
-31
-31
-30
-29
-29
-29
-28
-27
-26
-24
-24
-24
-23
-22
-21
-20
-18
-17
-16
-15
-13
-12
-9
-8
-7
-6
-6
-6
-5
-2
-2
-1
0
1
3
5
3
1
0
0
-1
-1
-2
-2
-2
-3
-5
-6
-9
-12
-11
-10
-10
-13
-14
-16
-18
-19
-20
-21
-23
-24
-24
-25
-25
-26
-26
-26
-25
-24
-23
-21
-16
-11
-7
-3
-1
-1
-1
-1
-2
-2
-2
-3
-5
-5
-5
-6
-8
-10
-12
-14
-16
-16
-16
-16
-18
-19
-18
-18
-16
-15
-14
-15
-15
-15
-15
-14
-13
-12
-12
-13
-14
-16
-19
-23
-28
-34
-37
-33
-16
14
51
92
130
164
196
215
219
203
171
134
85
47
20
6
0
-2
-4
-6
-7
-10
-12
-12
-12
-13
-12
-12
-13
-14
-15
-15
-16
-16
-16
-17
-18
-20
-21
-22
-22
-24
-25
-25
-26
-27
-27
-27
-26
-25
-24
-24
-25
-25
-25
-25
-24
-23
-24
-24
-24
-23
-22
-21
-19
-18
-17
-18
-18
-17
-16
-15
-14
-13
-12
-12
-12
-12
-12
-11
-11
-11
-10
-9
-11
-14
-14
-15
-14
-14
-14
-14
-15
-16
-16
-17
-17
-17
-16
-16
-16
-17
-18
-19
-20
-21
-22
-22
-21
-20
-21
-22
-23
-25
-26
-26
-23
-21
-19
-16
-13
-11
-8
-5
-3
0
1
1
0
0
-1
-2
-3
-4
-5
-8
-12
-15
-18
-18
-20
-21
-22
-24
-26
-29
-30
-31
-31
-31
-29
-27
-27
-25
-24
-24
-25
-25
-25
-24
-24
-24
-26
-31
-36
-42
-47
-50
-48
-36
-10
27
70
113
148
181
204
217
211
188
149
98
47
15
-1
-10
-14
-19
-22
-24
-26
-28
-30
-32
-32
-33
-34
-37
-38
-39
-38
-37
-36
-36
-38
-39
-40
-40
-41
-40
-41
-43
-44
-45
-46
-47
-46
-46
-45
-42
-41
-37
-35
-32
-31
-30
-29
-30
-29
-29
-28
-29
-28
-27
-25
-23
-21
-19
-17
-16
-16
-16
-15
-13
-13
-12
-12
-12
-11
-11
-10
-9
-7
-6
-7
-9
-11
-13
-13
-12
-11
-10
-10
-10
-10
-12
-12
-12
-11
-11
-11
-12
-12
-13
-14
-13
-14
-15
-16
-17
-17
-18
-19
-22
-24
-24
-23
-22
-22
-21
-19
-15
-9
0
14
31
46
60
68
72
72
70
69
66
64
63
66
72
81
97
117
143
171
202
226
230
210
176
135
90
48
16
-2
-11
-14
-16
-20
-25
-29
-31
-31
-32
-33
-34
-35
-38
-41
-43
-44
-44
-46
-47
-50
-52
-53
-54
-54
-55
-56
-60
-61
-61
-62
-61
-62
-61
-60
-59
-59
-57
-55
-54
-53
-52
-50
-49
-47
-45
-43
-41
-39
-36
-34
-30
-27
-26
-25
-23
-20
-18
-15
-14
-12
-11
-12
-12
-11
-10
-8
-6
-5
-4
-4
-3
-2
-1
0
1
1
0
0
0
0
0
0
1
1
1
1
1
1
2
2
3
4
4
5
5
6
8
9
9
9
9
9
9
9
8
7
7
7
7
8
8
8
9
9
9
9
9
9
8
7
7
7
8
8
8
8
8
7
6
6
5
6
7
7
7
7
7
7
9
11
16
20
24
26
26
26
24
24
22
20
18
17
17
14
11
8
5
2
0
0
-3
-4
-6
-6
-6
-6
-5
-4
-2
-3
-2
-3
-3
-2
-1
0
0
0
-2
-4
-7
-11
-14
-19
-21
-18
-4
22
57
98
138
176
212
233
234
217
183
145
93
51
23
11
6
2
0
-2
-4
-7
-9
-10
-11
-11
-13
-13
-15
-15
-16
-16
-17
-18
-18
-19
-20
-21
-22
-23
-23
-23
-25
-26
-26
-27
-27
-28
-28
-26
-23
-21
-20
-20
-20
-19
-18
-17
-17
-16
-16
-16
-16
-15
-13
-12
-12
-11
-10
-8
-6
-5
-5
-4
-2
-2
-2
-1
-2
-1
-1
0
0
0
0
-1
-1
-1
-1
-2
-3
-4
-4
-4
-5
-5
-6
-8
-9
-10
-11
-14
-16
-18
-20
-20
-21
-22
-23
-23
-23
-22
-23
-23
-23
-23
-23
-23
-22
-21
-20
-17
-13
-6
-3
0
0
1
1
0
0
0
0
0
0
-1
-4
-5
-6
-7
-9
-11
-12
-13
-14
-15
-15
-14
-14
-14
-13
-13
-13
-12
-12
-12
-12
-11
-11
-11
-12
-13
-14
-17
-22
-27
-33
-37
-33
-20
4
37
74
111
146
183
208
219
206
179
139
94
50
21
4
-3
-6
-9
-11
-12
-14
-15
-17
-18
-18
-17
-17
-18
-17
-18
-19
-21
-21
-22
-22
-22
-23
-24
-26
-27
-26
-26
-25
-26
-27
-28
-27
-25
-25
-26
-27
-26
-25
-24
-24
-24
-24
-23
-23
-23
-22
-22
-21
-20
-19
-19
-18
-17
-15
-14
-14
-14
-13
-12
-10
-9
-9
-9
-8
-8
-7
-8
-8
-8
-8
-8
-7
-7
-9
-10
-12
-12
-13
-14
-15
-15
-16
-17
-18
-19
-21
-22
-22
-22
-23
-24
-26
-27
-26
-24
-22
-22
-22
-23
-24
-23
-22
-18
-14
-9
-6
-3
-1
-1
-1
-1
-4
-6
-7
-7
-7
-7
-9
-11
-14
-17
-19
-22
-24
-25
-27
-29
-30
-31
-31
-30
-30
-30
-29
-28
-28
-28
-29
-29
-29
-28
-28
-28
-29
-32
-35
-39
-43
-48
-53
-52
-42
-22
10
49
91
131
164
192
201
199
175
139
94
46
13
-7
-18
-24
-27
-28
-31
-32
-34
-36
-36
-37
-36
-36
-37
-38
-39
-41
-43
-44
-45
-45
-46
-47
-47
-47
-47
-47
-48
-49
-49
-50
-49
-47
-45
-45
-44
-42
-42
-41
-40
-38
-37
-36
-36
-37
-34
-32
-31
-30
-30
-28
-26
-23
-23
-22
-21
-20
-20
-18
-17
-16
-16
-15
-14
-15
-14
-13
-12
-14
-15
-17
-18
-17
-17
-17
-17
-19
-20
-20
-18
-17
-18
-21
-23
-24
-24
-23
-24
-24
-25
-26
-26
-25
-26
-26
-26
-27
-26
-26
-25
-24
-23
-23
-24
-26
-28
-29
-27
-22
-18
-15
-12
-9
-8
-6
-1
8
21
35
47
53
54
54
53
52
47
43
39
39
42
53
70
94
126
160
198
218
224
205
168
126
78
39
12
-5
-16
-23
-27
-31
-33
-33
-34
-34
-35
-36
-39
-41
-43
-46
-47
-47
-45
-46
-50
-53
-53
-53
-56
-59
-61
-61
-63
-65
-64
-65
-66
-68
-67
-66
-65
-63
-60
-60
-60
-60
-59
-59
-58
-55
-52
-48
-45
-42
-40
-38
-36
-34
-32
-30
-29
-27
-23
-20
-18
-16
-13
-10
-7
-3
-3
-5
-6
-5
-4
-4
-3
-5
-5
-3
-2
-2
-3
-2
0
0
0
0
0
0
0
0
-1
0
0
1
0
-1
-2
-2
-2
-1
0
1
1
2
2
2
0
0
2
4
5
4
4
4
5
5
5
5
3
3
2
2
2
2
3
4
5
5
6
6
7
9
6
5
5
8
10
14
19
24
26
24
25
23
21
18
16
16
15
13
11
8
6
5
3
0
-2
-5
-7
-8
-8
-9
-9
-9
-9
-9
-8
-8
-8
-8
-6
-5
-5
-5
-4
-4
-5
-9
-15
-23
-27
-30
-30
-21
-4
29
68
110
147
181
211
227
225
199
162
117
74
41
21
10
4
2
0
-2
-5
-8
-9
-13
-15
-15
-13
-13
-14
-14
-15
-16
-15
-15
-18
-22
-24
-25
-26
-29
-29
-28
-27
-27
-26
-26
-27
-27
-25
-23
-22
-20
-19
-21
-24
-24
-22
-20
-19
-17
-15
-14
-13
-13
-13
-13
-12
-11
-9
-6
-3
-3
-3
-3
-2
-2
0
0
0
0
1
3
3
3
2
2
1
1
1
1
0
0
-2
-4
-5
-5
-6
-7
-10
-12
-12
-13
-14
-16
-18
-19
-18
-20
-22
-23
-24
-25
-26
-26
-26
-25
-25
-26
-24
-23
-21
-20
-18
-14
-9
-5
-3
-2
-1
-2
-2
-3
-3
-2
-3
-3
-3
-4
-6
-8
-9
-11
-13
-16
-17
-17
-18
-19
-19
-18
-19
-20
-21
-21
-20
-19
-18
-18
-17
-17
-16
-14
-15
-17
-20
-24
-29
-34
-39
-41
-36
-17
13
56
98
136
173
199
216
207
185
152
108
65
28
7
-3
-9
-13
-16
-17
-18
-19
-20
-21
-21
-22
-21
-21
-22
-23
-24
-26
-27
-27
-27
-28
-29
-29
-31
-33
-33
-34
-34
-35
-34
-32
-30
-30
-33
-34
-33
-32
-31
-32
-33
-33
-33
-31
-30
-29
-27
-27
-26
-25
-24
-22
-21
-20
-20
-18
-18
-18
-17
-18
-18
-17
-15
-14
-13
-15
-17
-18
-19
-18
-18
-17
-16
-17
-18
-18
-18
-19
-20
-23
-23
-24
-25
-26
-26
-25
-26
-27
-27
-27
-28
-29
-30
-29
-28
-28
-27
-25
-24
-23
-23
-23
-22
-19
-17
-13
-10
-7
-5
-5
-6
-7
-10
-11
-11
-13
-16
-20
-23
-26
-28
-29
-31
-33
-34
-36
-37
-39
-39
-40
-39
-38
-37
-37
-37
-38
-39
-39
-38
-36
-35
-35
-35
-37
-39
-43
-46
-49
-54
-59
-59
-46
-21
15
53
87
119
151
177
192
182
159
121
79
40
10
-9
-24
-33
-39
-42
-42
-40
-41
-44
-47
-49
-50
-49
-46
-45
-47
-49
-50
-52
-53
-56
-59
-60
-61
-60
-59
-57
-59
-60
-61
-62
-61
-60
-58
-57
-54
-51
-48
-49
-49
-49
-49
-48
-46
-42
-39
-38
-40
-41
-41
-40
-37
-35
-33
-33
-34
-32
-29
-27
-25
-24
-22
-21
-20
-21
-22
-22
-22
-21
-22
-23
-23
-23
-22
-22
-22
-22
-21
-21
-22
-23
-23
-23
-24
-22
-21
-21
-22
-23
-23
-24
-22
-22
-24
-27
-27
-26
-25
-24
-22
-20
-19
-19
-20
-22
-25
-26
-23
-17
-13
-9
-5
-2
1
9
21
32
41
48
55
60
60
60
58
52
49
48
52
59
72
91
114
143
177
211
228
225
195
158
115
70
34
7
-7
-16
-21
-24
-27
-30
-31
-32
-34
-37
-39
-41
-43
-44
-45
-45
-46
-46
-49
-52
-54
-54
-57
-58
-58
-61
-62
-64
-64
-64
-65
-66
-67
-66
-66
-64
-63
-65
-65
-65
-61
-59
-57
-56
-55
-53
-50
-47
-45
-42
-41
-39
-37
-36
-34
-31
-27
-26
-25
-24
-21
-18
-14
-11
-10
-9
-9
-9
-8
-7
-9
-10
-12
-13
-13
-11
-8
-7
-8
-10
-9
-8
-9
-11
-10
-10
-9
-8
-7
-5
-6
-9
-10
-8
-8
-8
-9
-9
-8
-6
-4
-3
-2
0
-1
-1
-2
-2
-2
-2
-2
-2
-3
-2
-2
-1
0
0
0
0
-1
-1
-2
-2
-1
1
3
2
1
1
1
3
7
10
13
16
18
19
20
21
19
20
20
20
18
16
13
10
7
3
1
0
-2
-5
-7
-8
-9
-10
-11
-11
-10
-9
-7
-6
-6
-8
-8
-8
-7
-7
-7
-7
-7
-9
-11
-14
-16
-20
-24
-29
-29
-20
1
33
76
117
160
196
226
241
230
207
166
120
73
37
18
7
3
1
0
-3
-6
-9
-10
-13
-14
-14
-14
-15
-16
-18
-19
-20
-20
-20
-21
-23
-25
-25
-27
-28
-29
-28
-27
-26
-25
-26
-27
-28
-26
-25
-23
-22
-22
-23
-25
-23
-22
-21
-20
-21
-20
-19
-16
-14
-12
-13
-13
-12
-12
-11
-10
-8
-9
-8
-8
-7
-7
-6
-6
-6
-5
-4
-3
-4
-5
-6
-6
-4
-2
-2
-6
-11
-13
-12
-12
-13
-14
-16
-17
-16
-17
-19
-22
-23
-25
-28
-31
-30
-31
-32
-32
-32
-31
-31
-31
-31
-32
-32
-30
-28
-24
-20
-17
-12
-7
-4
-6
-6
-7
-8
-7
-7
-7
-8
-9
-11
-14
-17
-19
-21
-23
-25
-25
-25
-25
-24
-24
-24
-23
-22
-22
-22
-23
-21
-19
-18
-19
-20
-20
-19
-19
-20
-23
-27
-32
-38
-43
-45
-40
-21
9
51
95
134
168
197
212
214
193
162
115
67
30
7
0
-5
-9
-12
-14
-16
-18
-21
-24
-25
-23
-23
-22
-22
-21
-22
-24
-25
-26
-28
-28
-27
-29
-31
-32
-32
-32
-32
-31
-31
-31
-31
-32
-32
-32
-32
-32
-32
-33
-33
-31
-31
-31
-32
-31
-31
-30
-28
-26
-24
-24
-24
-25
-24
-21
-20
-19
-18
-18
-18
-18
-18
-19
-18
-18
-16
-15
-14
-12
-10
-11
-12
-12
-11
-11
-11
-13
-15
-18
-18
-18
-17
-17
-17
-18
-18
-20
-22
-25
-25
-24
-23
-23
-24
-25
-25
-25
-26
-25
-25
-23
-21
-19
-15
-12
-7
-2
0
0
-3
-3
-5
-6
-8
-10
-10
-10
-11
-13
-16
-20
-25
-29
-32
-32
-31
-30
-32
-33
-34
-34
-33
-33
-34
-36
-34
-34
-32
-32
-33
-34
-36
-36
-35
-34
-35
-39
-44
-50
-54
-54
-44
-21
13
53
92
125
162
185
200
195
174
138
91
44
11
-8
-18
-23
-26
-28
-29
-31
-34
-35
-34
-32
-32
-33
-39
-42
-42
-42
-43
-45
-45
-46
-43
-42
-43
-43
-44
-45
-48
-49
-49
-47
-42
-41
-40
-40
-40
-38
-35
-33
-33
-33
-31
-30
-30
-32
-30
-28
-26
-26
-28
-28
-26
-25
-21
-18
-16
-15
-14
-14
-12
-10
-8
-7
-9
-11
-14
-15
-13
-10
-8
-8
-7
-8
-8
-7
-7
-7
-8
-8
-7
-7
-9
-12
-13
-13
-12
-11
-11
-11
-11
-11
-10
-10
-11
-12
-13
-11
-11
-11
-12
-15
-19
-20
-19
-18
-15
-10
-3
5
19
34
46
56
63
70
74
78
78
80
79
77
75
75
81
91
109
128
154
183
211
225
218
193
156
113
70
37
14
0
-6
-12
-17
-21
-23
-24
-24
-26
-32
-37
-37
-37
-37
-41
-42
-43
-44
-45
-47
-48
-49
-50
-51
-53
-57
-60
-61
-61
-58
-57
-56
-58
-58
-56
-54
-52
-52
-52
-52
-48
-46
-44
-45
-45
-43
-39
-35
-32
-30
-28
-27
-25
-23
-19
-16
-14
-13
-12
-12
-13
-14
-12
-8
-5
-2
-2
-2
-4
-6
-6
-4
-2
0
2
4
4
2
0
-2
-2
-1
0
1
0
1
2
2
1
0
1
1
2
2
2
2
2
2
4
5
5
5
5
6
7
8
8
6
4
3
3
3
3
4
4
4
4
3
2
2
3
5
6
6
4
3
2
2
3
4
4
4
5
5
4
5
6
10
15
17
17
19
22
22
22
21
20
18
16
15
13
10
7
6
3
1
-1
-4
-5
-8
-9
-9
-8
-9
-11
-11
-12
-11
-10
-9
-9
-9
-9
-8
-6
-5
-5
-6
-10
-14
-18
-22
-27
-30
-28
-16
7
41
82
123
161
195
218
225
215
184
147
97
56
28
13
7
3
0
-5
-9
-13
-16
-19
-20
-20
-22
-22
-20
-20
-21
-25
-26
-28
-28
-29
-28
-28
-27
-28
-29
-30
-30
-31
-31
-31
-30
-30
-31
-31
-31
-29
-27
-24
-22
-22
-24
-24
-23
-22
-21
-22
-23
-23
-20
-18
-17
-17
-16
-15
-14
-13
-12
-10
-9
-7
-8
-7
-7
-6
-6
-6
-7
-8
-7
-7
-7
-8
-9
-9
-10
-10
-12
-12
-14
-14
-14
-15
-15
-16
-17
-18
-19
-22
-27
-29
-30
-31
-35
-37
-37
-36
-37
-39
-38
-37
-36
-35
-35
-35
-36
-36
-33
-29
-24
-20
-17
-15
-13
-13
-13
-15
-15
-15
-15
-15
-14
-14
-17
-18
-20
-22
-26
-29
-30
-31
-32
-33
-31
-30
-28
-28
-30
-31
-31
-30
-30
-30
-28
-28
-27
-26
-26
-26
-27
-29
-31
-35
-41
-45
-48
-46
-36
-13
20
64
103
145
178
202
209
196
169
127
77
33
4
-10
-16
-18
-20
-20
-21
-23
-27
-31
-31
-31
-30
-30
-29
-29
-30
-29
-30
-30
-33
-33
-33
-35
-35
-38
-42
-43
-40
-39
-39
-39
-40
-39
-39
-39
-39
-37
-37
-36
-33
-31
-32
-33
-33
-33
-33
-32
-31
-30
-30
-30
-30
-28
-27
-25
-24
-24
-22
-21
-19
-18
-19
-22
-22
-22
-21
-21
-20
-19
-20
-19
-20
-20
-20
-20
-20
-21
-21
-21
-21
-20
-19
-20
-21
-22
-24
-26
-25
-25
-24
-23
-23
-23
-24
-26
-27
-26
-25
-24
-22
-20
-18
-17
-14
-9
-4
0
2
3
2
1
-2
-5
-5
-4
-3
-5
-7
-10
-13
-16
-17
-18
-21
-23
-24
-24
-25
-26
-27
-28
-28
-28
-28
-28
-28
-28
-29
-29
-27
-26
-25
-24
-23
-22
-24
-28
-34
-41
-48
-51
-51
-42
-21
12
53
94
128
164
189
204
198
171
135
86
41
8
-13
-22
-27
-29
-31
-33
-36
-38
-38
-37
-36
-36
-37
-39
-41
-42
-43
-41
-40
-41
-44
-47
-48
-48
-47
-47
-47
-48
-49
-49
-49
-49
-49
-46
-43
-39
-36
-33
-33
-36
-40
-43
-43
-40
-35
-31
-29
-27
-27
-26
-25
-22
-19
-18
-19
-20
-19
-18
-17
-16
-15
-13
-9
-8
-9
-8
-7
-6
-6
-6
-5
-5
-5
-5
-2
-1
-1
-4
-5
-7
-8
-8
-8
-8
-9
-10
-10
-10
-11
-12
-12
-12
-11
-11
-12
-12
-13
-15
-13
-10
-8
-8
-8
-7
-7
-4
-1
4
9
10
9
9
12
14
18
24
34
46
59
71
76
77
72
68
63
60
60
65
71
78
92
110
139
169
209
239
246
235
198
156
107
61
29
8
-1
-6
-11
-16
-20
-22
-25
-26
-28
-29
-32
-36
-38
-41
-44
-49
-51
-51
-52
-53
-55
-57
-61
-63
-65
-67
-69
-70
-71
-71
-70
-71
-73
-75
-75
-72
-68
-65
-65
-63
-61
-60
-60
-61
-60
-58
-54
-50
-44
-38
-34
-33
-30
-29
-27
-25
-23
-21
-21
-18
-15
-14
-15
-15
-15
-12
-10
-8
-7
-7
-7
-7
-6
-5
-5
-6
-7
-8
-8
-7
-5
-6
-7
-10
-10
-9
-7
-5
-5
-7
-8
-7
-6
-4
-3
-1
0
-1
-3
-4
-4
-2
-1
-1
-2
-3
-3
-3
-3
-2
-2
0
0
0
-1
-2
-1
0
1
0
0
-2
-3
-3
-2
0
1
3
4
7
10
13
17
18
20
19
18
16
14
14
15
16
15
12
7
2
0
-2
-4
-8
-10
-13
-15
-16
-18
-17
-17
-16
-15
-14
-12
-11
-12
-12
-11
-11
-14
-16
-16
-15
-15
-17
-21
-27
-33
-36
-32
-14
15
56
98
135
171
198
216
216
199
163
116
65
29
9
-1
-6
-10
-13
-15
-17
-20
-23
-24
-24
-23
-23
-24
-24
-25
-25
-24
-22
-24
-29
-33
-33
-29
-29
-29
-30
-31
-31
-31
-31
-32
-32
-32
-30
-27
-25
-23
-21
-21
-23
-24
-23
-21
-20
-20
-20
-20
-19
-17
-14
-13
-12
-13
-12
-12
-11
-10
-8
-7
-6
-4
-2
1
2
1
-2
-5
-5
-5
-3
-2
-2
-2
-2
-1
-2
-2
-4
-4
-6
-8
-9
-11
-11
-8
-3
2
9
9
0
-14
-30
-42
-52
-63
-76
-97
-116
-131
-135
-135
-136
-136
-139
-139
-144
-146
-149
-148
-145
-144
-138
-133
-123
-119
-121
-128
-135
-136
-130
-116
-106
-101
-102
-102
-102
-102
-101
-98
-88
-75
-57
-36
-11
11
31
44
54
60
66
71
78
85
88
90
89
93
97
102
104
103
105
104
107
107
109
110
110
111
108
108
105
103
100
99
97
92
89
84
81
75
70
65
61
58
54
52
48
44
37
33
30
26
22
18
14
12
10
7
6
5
2
1
0
-1
-2
-3
-3
-4
-5
-5
-6
-6
-6
-5
-4
-4
-4
-3
-2
0
0
0
0
-2
-4
-6
-6
-5
-3
-3
-3
-3
-2
-2
-3
-2
0
1
0
-1
-2
-4
-4
-4
-5
-6
-6
-5
-3
-1
0
-2
-8
-12
-12
-10
-9
-10
-11
-11
-12
-12
-12
-11
-11
-11
-9
-9
-10
-10
-10
-9
-9
-9
-10
-10
-10
-9
-8
-7
-6
-2
0
0
1
5
9
12
12
12
9
6
4
2
4
4
3
-1
-8
-12
-15
-16
-19
-22
-24
-26
-27
-28
-29
-30
-31
-31
-30
-30
-29
-28
-29
-30
-31
-33
-34
-34
-35
-39
-44
-49
-52
-51
-47
-33
-4
34
79
119
156
185
197
192
163
126
78
32
2
-14
-22
-26
-29
-29
-30
-33
-35
-36
-36
-38
-39
-40
-41
-41
-40
-38
-37
-36
-35
-36
-40
-46
-50
-51
-51
-49
-46
-44
-44
-47
-51
-55
-56
-54
-51
-50
-51
-53
-55
-57
-57
-58
-57
-57
-56
-56
-54
-53
-53
-52
-52
-53
-55
-54
-52
-50
-48
-46
-44
-43
-41
-39
-36
-33
-30
-29
-31
-32
-31
-28
-24
-20
-17
-17
-19
-22
-24
-23
-21
-21
-21
-19
-18
-18
-20
-22
-23
-23
-24
-25
-25
-26
-28
-29
-30
-29
-27
-26
-26
-29
-31
-32
-32
-32
-32
-29
-28
-27
-25
-20
-16
-12
-10
-10
-10
-12
-12
-14
-16
-17
-16
-14
-15
-19
-24
-28
-29
-29
-27
-28
-30
-34
-35
-34
-33
-32
-36
-39
-40
-38
-35
-34
-33
-32
-32
-31
-29
-29
-31
-33
-36
-40
-43
-46
-49
-45
-33
-8
24
64
104
143
176
197
204
194
169
128
78
31
2
-13
-19
-22
-24
-25
-27
-29
-30
-29
-27
-26
-26
-26
-28
-30
-31
-30
-31
-33
-35
-34
-30
-28
-28
-30
-31
-34
-35
-33
-33
-33
-34
-33
-30
-26
-22
-19
-18
-18
-19
-19
-17
-15
-14
-13
-12
-11
-10
-10
-9
-6
-4
-2
0
0
0
1
2
3
6
8
10
8
8
7
8
10
10
11
10
8
5
1
-1
-2
-1
-2
-5
-10
-11
-7
-5
-10
-20
-31
-41
-51
-59
-68
-73
-75
-73
-73
-75
-79
-86
-88
-89
-88
-90
-91
-88
-81
-65
-49
-33
-14
11
36
53
61
64
61
60
59
61
62
62
64
66
70
71
73
72
72
71
70
71
72
75
77
81
82
82
80
77
78
75
76
75
75
75
75
74
70
69
64
63
59
56
54
53
53
50
48
43
40
37
35
34
30
25
22
21
20
19
16
12
12
13
13
14
16
16
15
15
13
13
12
11
11
13
14
14
13
12
12
13
15
16
16
14
11
10
9
11
13
13
13
12
13
14
16
16
16
15
17
19
20
20
21
22
21
23
23
23
22
21
22
21
22
22
23
23
22
22
21
22
22
23
23
24
24
24
25
24
24
22
22
21
22
23
23
23
20
18
17
18
19
18
18
19
19
17
16
14
14
13
13
13
13
12
11
12
13
13
13
13
12
12
12
11
12
13
16
19
22
23
23
25
26
27
28
30
30
29
27
22
21
21
21
19
15
11
7
5
3
1
0
-1
0
-1
-2
-2
-2
-2
-2
-3
-5
-5
-5
-5
-5
-6
-8
-12
-17
-24
-30
-32
-27
-8
20
58
101
139
177
207
220
220
196
165
118
68
32
10
0
-3
-7
-10
-15
-19
-22
-25
-27
-27
-28
-28
-28
-29
-30
-30
-29
-29
-29
-30
-31
-32
-33
-33
-33
-33
-33
-33
-34
-35
-36
-37
-37
-38
-39
-40
-41
-41
-41
-39
-38
-37
-36
-35
-34
-33
-32
-33
-33
-33
-34
-34
-33
-30
-28
-26
-25
-24
-22
-21
-21
-21
-20
-18
-15
-14
-13
-12
-12
-12
-14
-13
-14
-15
-15
-15
-15
-16
-17
-18
-18
-18
-18
-19
-21
-24
-27
-29
-30
-30
-31
-32
-34
-36
-36
-37
-38
-40
-39
-39
-39
-40
-40
-39
-38
-38
-38
-38
-36
-32
-27
-23
-20
-17
-16
-16
-16
-17
-18
-18
-17
-16
-16
-16
-18
-22
-25
-27
-27
-29
-31
-34
-36
-37
-37
-37
-37
-36
-36
-35
-35
-36
-35
-35
-34
-36
-37
-37
-37
-37
-38
-40
-44
-47
-52
-56
-57
-53
-38
-6
37
81
119
152
181
197
198
181
151
107
59
17
-6
-18
-24
-27
-28
-30
-31
-34
-36
-38
-37
-36
-36
-37
-37
-37
-38
-38
-38
-39
-39
-40
-40
-40
-40
-41
-41
-41
-42
-42
-42
-42
-43
-42
-41
-40
-38
-39
-39
-39
-40
-40
-38
-36
-36
-36
-34
-34
-34
-33
-32
-32
-31
-29
-28
-28
-29
-30
-30
-31
-31
-30
-28
-27
-27
-26
-25
-26
-27
-26
-25
-25
-24
-23
-22
-22
-20
-21
-21
-22
-23
-25
-28
-31
-33
-32
-31
-31
-31
-32
-34
-37
-39
-40
-37
-34
-33
-34
-35
-35
-34
-33
-30
-28
-24
-21
-17
-14
-12
-12
-14
-17
-19
-18
-18
-20
-23
-26
-29
-31
-31
-31
-32
-34
-36
-35
-35
-35
-37
-39
-39
-37
-35
-34
-33
-32
-34
-36
-39
-38
-36
-34
-33
-32
-32
-34
-38
-41
-46
-49
-49
-39
-19
14
50
89
123
159
188
201
199
175
142
98
52
18
-2
-12
-16
-18
-20
-23
-25
-27
-26
-27
-28
-31
-35
-37
-36
-34
-35
-36
-38
-39
-39
-38
-37
-37
-38
-40
-41
-42
-42
-40
-40
-40
-42
-42
-41
-40
-37
-35
-33
-30
-26
-24
-25
-28
-28
-28
-27
-26
-24
-21
-19
-18
-17
-17
-16
-14
-11
-9
-8
-7
-6
-6
-7
-8
-9
-9
-7
-6
-7
-8
-7
-6
-4
-1
-1
-2
-3
-3
-4
-5
-6
-7
-6
-5
-6
-6
-6
-7
-7
-8
-8
-11
-13
-13
-13
-13
-12
-10
-9
-7
-6
-5
-5
-7
-10
-10
-5
2
9
13
12
10
12
18
30
43
57
70
78
81
78
76
70
65
60
61
66
73
85
100
125
153
189
224
244
244
217
180
136
90
50
21
5
-4
-9
-13
-17
-20
-22
-21
-21
-22
-25
-29
-31
-31
-31
-33
-35
-37
-37
-38
-40
-41
-42
-42
-43
-46
-49
-51
-51
-52
-51
-52
-53
-55
-55
-54
-54
-53
-53
-54
-54
-53
-51
-48
-44
-42
-40
-40
-38
-36
-34
-31
-29
-27
-24
-21
-20
-18
-16
-13
-12
-9
-8
-7
-6
-5
-4
-4
-4
-4
-2
0
2
3
2
1
0
-1
-2
-2
-2
0
0
0
0
-1
-2
-1
-1
0
1
2
1
0
0
0
0
0
1
2
2
0
1
1
2
1
0
0
1
2
2
1
0
0
-1
-1
0
1
1
1
2
1
0
0
0
1
0
1
2
5
8
12
17
20
23
21
19
17
16
14
15
16
16
15
12
10
8
4
0
-4
-5
-7
-9
-10
-9
-9
-9
-8
-9
-8
-6
-6
-6
-6
-6
-7
-7
-7
-8
-10
-14
-19
-22
-25
-27
-30
-31
-25
-6
25
68
111
150
183
209
222
218
193
157
106
61
27
9
0
-4
-5
-6
-8
-12
-15
-17
-18
-17
-17
-18
-20
-20
-21
-21
-20
-21
-21
-22
-23
-24
-23
-22
-24
-26
-28
-29
-29
-29
-30
-30
-29
-28
-26
-25
-23
-21
-20
-19
-19
-18
-17
-17
-16
-16
-14
-14
-14
-12
-12
-11
-11
-10
-9
-9
-8
-5
-2
-1
-1
-1
-1
-1
-1
-1
-1
-1
-1
-2
-3
-4
-4
-4
-2
-1
-3
-4
-6
-7
-8
-8
-9
-10
-11
-12
-12
-13
-14
-16
-17
-17
-19
-20
-22
-25
-26
-27
-26
-27
-26
-26
-28
-29
-30
-28
-27
-23
-18
-14
-10
-7
-5
-4
-4
-5
-5
-5
-6
-6
-7
-8
-11
-12
-13
-15
-18
-20
-22
-23
-23
-24
-24
-24
-24
-23
-23
-23
-24
-23
-23
-23
-24
-24
-24
-24
-24
-24
-25
-28
-32
-37
-43
-47
-46
-35
-11
26
66
106
138
172
194
208
202
178
144
97
52
18
-1
-11
-16
-18
-22
-24
-26
-28
-28
-28
-27
-27
-26
-26
-26
-27
-28
-28
-29
-29
-30
-30
-30
-31
-31
-32
-32
-32
-33
-34
-35
-35
-35
-34
-33
-34
-34
-32
-32
-31
-31
-31
-29
-29
-29
-29
-28
-28
-28
-27
-26
-25
-23
-22
-21
-20
-19
-18
-17
-16
-15
-15
-14
-15
-15
-16
-16
-15
-14
-13
-13
-14
-13
-13
-11
-9
-8
-8
-9
-11
-13
-14
-15
-15
-15
-16
-18
-20
-21
-23
-24
-25
-25
-27
-29
-29
-29
-28
-28
-28
-28
-27
-26
-24
-21
-19
-18
-15
-11
-9
-9
-10
-12
-13
-13
-13
-13
-13
-15
-17
-21
-26
-29
-31
-32
-34
-36
-38
-41
-41
-41
-41
-42
-42
-43
-43
-42
-40
-41
-42
-42
-43
-44
-44
-43
-43
-44
-47
-53
-58
-65
-70
-70
-60
-38
-8
28
63
96
131
156
173
172
153
125
80
37
0
-22
-33
-38
-42
-46
-48
-50
-53
-55
-58
-59
-60
-58
-56
-54
-51
-51
-52
-55
-56
-57
-56
-57
-58
-57
-57
-56
-56
-54
-54
-52
-48
-46
-45
-46
-46
-45
-43
-39
-35
-31
-32
-34
-35
-35
-35
-33
-30
-27
-25
-24
-22
-21
-19
-18
-17
-16
-15
-14
-13
-13
-13
-13
-12
-11
-9
-9
-9
-10
-10
-9
-8
-7
-6
-6
-7
-9
-9
-10
-10
-12
-11
-10
-9
-9
-11
-13
-15
-16
-14
-14
-13
-13
-13
-12
-12
-14
-15
-14
-14
-13
-12
-11
-8
-6
-5
-5
-3
0
3
6
8
9
10
15
22
32
42
54
64
69
73
72
69
63
58
53
51
55
64
80
98
122
150
189
222
240
232
201
167
125
85
47
20
6
0
-5
-9
-11
-13
-14
-16
-19
-22
-24
-24
-24
-25
-27
-30
-32
-33
-34
-34
-35
-36
-38
-40
-42
-44
-46
-47
-48
-48
-48
-47
-45
-43
-42
-44
-45
-44
-43
-41
-39
-36
-34
-33
-33
-33
-30
-28
-26
-22
-17
-13
-11
-10
-8
-6
-3
0
1
3
5
6
7
10
12
13
11
10
11
12
13
14
14
12
11
10
11
14
17
18
15
12
8
8
8
9
10
10
9
7
6
6
8
9
7
7
7
7
6
6
6
7
8
9
10
8
7
7
7
8
6
5
5
6
7
7
9
9
10
10
11
11
11
11
12
14
16
21
24
28
30
33
35
34
32
29
27
26
27
28
27
25
22
19
15
14
11
9
8
6
5
3
2
0
1
0
0
0
0
0
1
3
4
4
4
4
5
3
1
-3
-7
-12
-17
-19
-11
8
40
82
119
158
190
219
235
234
217
182
140
92
52
27
16
13
11
9
6
2
-2
-6
-8
-8
-7
-8
-8
-8
-8
-9
-10
-11
-13
-16
-18
-18
-18
-17
-18
-20
-22
-23
-22
-19
-18
-17
-18
-18
-18
-18
-17
-16
-14
-13
-13
-11
-10
-10
-10
-10
-9
-9
-8
-7
-4
-3
-2
-1
-3
-3
-3
-2
-1
0
2
3
4
3
1
1
0
0
1
2
1
1
0
0
1
1
2
1
1
0
-1
-3
-4
-4
-7
-9
-11
-12
-13
-14
-15
-17
-17
-19
-20
-22
-23
-23
-23
-23
-25
-26
-27
-27
-24
-20
-16
-13
-11
-11
-10
-8
-7
-8
-8
-9
-10
-10
-10
-10
-11
-12
-15
-18
-20
-22
-22
-23
-23
-24
-24
-24
-24
-24
-24
-23
-24
-25
-25
-25
-24
-24
-24
-24
-24
-24
-24
-26
-31
-36
-43
-48
-50
-41
-18
15
55
96
131
167
191
203
198
173
141
93
48
15
-4
-13
-17
-19
-20
-21
-23
-25
-25
-25
-25
-26
-27
-27
-28
-29
-32
-32
-33
-33
-34
-35
-37
-39
-40
-40
-39
-40
-42
-42
-42
-42
-42
-42
-41
-40
-40
-40
-40
-39
-38
-38
-36
-36
-37
-36
-36
-36
-35
-34
-34
-33
-31
-30
-29
-29
-29
-28
-27
-26
-26
-25
-25
-24
-23
-23
-23
-23
-24
-23
-23
-23
-24
-25
-26
-27
-27
-27
-27
-27
-28
-28
-28
-29
-29
-29
-30
-31
-33
-33
-33
-34
-35
-36
-35
-36
-36
-35
-35
-34
-33
-31
-31
-29
-25
-20
-16
-13
-13
-12
-12
-13
-13
-15
-17
-19
-19
-18
-20
-21
-24
-28
-30
-31
-32
-35
-37
-37
-39
-40
-43
-42
-41
-40
-40
-40
-40
-39
-38
-37
-36
-36
-35
-35
-35
-35
-36
-40
-45
-49
-53
-54
-47
-30
-2
32
70
104
138
167
187
190
175
144
101
50
13
-10
-20
-23
-26
-29
-32
-35
-38
-41
-42
-43
-44
-43
-43
-42
-43
-45
-47
-47
-46
-47
-49
-52
-52
-51
-48
-45
-45
-46
-49
-49
-48
-45
-43
-42
-43
-43
-42
-42
-40
-38
-35
-33
-32
-31
-32
-32
-33
-31
-29
-27
-26
-26
-26
-25
-23
-21
-17
-16
-16
-17
-15
-13
-11
-12
-13
-14
-13
-12
-10
-8
-7
-6
-6
-7
-9
-10
-10
-11
-11
-10
-8
-7
-7
-7
-10
-11
-13
-13
-14
-13
-11
-9
-10
-13
-14
-12
-10
-9
-11
-14
-16
-16
-16
-14
-10
-4
2
9
14
19
27
36
47
59
70
78
82
79
74
70
65
65
66
71
78
92
113
136
162
190
219
234
229
202
165
124
80
47
23
10
0
-6
-12
-15
-15
-14
-17
-21
-25
-27
-28
-27
-28
-29
-29
-30
-32
-36
-39
-42
-43
-41
-40
-41
-45
-47
-48
-47
-46
-48
-50
-52
-52
-51
-48
-45
-41
-40
-44
-47
-46
-41
-38
-37
-35
-32
-28
-27
-26
-24
-20
-18
-17
-13
-7
-2
-1
-2
-1
1
2
2
4
9
13
15
14
14
15
18
22
23
21
15
11
12
16
21
21
22
21
16
10
9
14
20
24
22
20
16
15
16
18
20
19
20
20
20
19
16
15
15
17
22
28
29
27
21
20
22
23
20
17
19
22
25
27
25
22
21
22
23
25
27
27
23
20
22
25
27
27
30
35
44
50
51
49
46
44
41
40
39
39
40
40
40
38
38
37
34
28
19
14
14
18
19
18
16
16
14
12
11
10
8
7
8
9
10
11
12
13
10
7
4
1
-1
-3
-3
-4
0
17
51
93
140
178
212
233
241
237
211
180
135
91
56
32
21
16
14
12
12
10
8
7
6
6
4
2
0
0
0
1
0
0
-2
-4
-5
-7
-10
-10
-8
-6
-5
-5
-6
-8
-10
-10
-7
-6
-5
-4
-4
-3
-3
-3
-4
-3
-2
0
0
1
0
0
1
2
4
4
5
5
6
6
7
9
11
14
15
14
12
10
9
12
16
19
18
15
14
13
13
12
11
13
14
14
13
13
12
8
6
5
4
1
0
0
0
0
-1
-3
-7
-8
-9
-10
-10
-10
-8
-7
-6
-8
-9
-10
-9
-7
-1
5
8
11
12
14
12
11
11
10
11
13
15
15
11
8
5
5
4
4
3
1
-3
-6
-9
-11
-10
-7
-4
-2
-3
-4
-4
-3
-2
-1
-1
0
-1
-1
-1
-4
-8
-14
-20
-26
-29
-28
-16
9
42
83
122
160
189
212
218
208
180
142
96
54
26
10
3
-2
-5
-7
-9
-9
-11
-12
-12
-11
-12
-13
-13
-14
-14
-14
-15
-16
-17
-18
-20
-21
-21
-21
-20
-20
-20
-21
-21
-22
-23
-23
-24
-24
-23
-23
-22
-21
-20
-20
-20
-20
-19
-18
-17
-17
-16
-16
-15
-14
-12
-10
-10
-12
-12
-11
-11
-10
-10
-11
-11
-12
-14
-13
-11
-11
-12
-11
-11
-13
-13
-11
-12
-13
-13
-13
-13
-13
-14
-15
-15
-15
-13
-11
-14
-18
-19
-20
-21
-22
-23
-25
-27
-26
-23
-23
-22
-23
-23
-23
-22
-18
-15
-11
-7
-4
-3
-2
-1
0
-1
-2
-4
-6
-7
-8
-9
-12
-15
-18
-20
-22
-23
-25
-28
-29
-29
-30
-30
-28
-28
-30
-30
-29
-29
-29
-30
-30
-30
-30
-29
-27
-26
-27
-30
-35
-41
-47
-52
-51
-41
-21
11
52
91
130
161
191
202
198
174
136
90
43
9
-9
-18
-22
-25
-27
-31
-33
-37
-41
-43
-43
-42
-43
-43
-44
-46
-47
-48
-47
-48
-47
-46
-47
-49
-50
-50
-50
-48
-47
-46
-45
-45
-46
-47
-47
-47
-46
-45
-45
-44
-43
-43
-42
-41
-40
-39
-38
-37
-37
-36
-35
-34
-34
-33
-31
-28
-27
-27
-26
-26
-26
-23
-23
-22
-22
-21
-22
-26
-26
-24
-22
-23
-23
-23
-22
-24
-25
-24
-25
-24
-23
-24
-29
-31
-30
-30
-30
-31
-32
-34
-36
-35
-35
-35
-36
-36
-36
-36
-36
-35
-33
-31
-27
-23
-19
-19
-22
-24
-25
-27
-27
-26
-26
-27
-22
-9
-1
5
12
20
27
29
27
23
20
18
15
15
21
31
43
60
78
103
127
157
178
186
177
150
117
78
37
0
-27
-36
-41
-44
-48
-50
-51
-55
-57
-61
-62
-64
-64
-64
-67
-70
-74
-75
-78
-79
-80
-82
-83
-85
-86
-89
-89
-90
-88
-87
-91
-93
-95
-93
-92
-91
-91
-89
-86
-84
-84
-85
-83
-80
-77
-74
-71
-70
-69
-66
-62
-59
-56
-51
-47
-44
-43
-42
-40
-38
-36
-37
-36
-34
-33
-35
-36
-32
-30
-30
-32
-35
-34
-31
-28
-28
-28
-28
-26
-27
-30
-31
-32
-31
-32
-33
-34
-30
-29
-32
-33
-33
-34
-35
-37
-38
-36
-33
-32
-32
-33
-33
-33
-32
-32
-33
-35
-34
-32
-32
-30
-28
-25
-26
-26
-26
-25
-26
-28
-28
-26
-21
-18
-16
-14
-11
-11
-14
-13
-12
-12
-13
-13
-12
-12
-13
-15
-16
-18
-20
-22
-25
-27
-28
-30
-32
-36
-39
-41
-39
-38
-38
-39
-41
-42
-41
-38
-37
-34
-35
-37
-36
-34
-35
-38
-42
-46
-49
-52
-52
-40
-12
26
64
102
138
168
187
185
166
137
95
54
18
-3
-16
-23
-26
-28
-31
-36
-40
-43
-42
-38
-38
-40
-41
-42
-41
-41
-43
-46
-46
-46
-45
-45
-46
-46
-46
-46
-47
-48
-47
-46
-43
-43
-42
-43
-41
-38
-36
-35
-36
-35
-36
-35
-35
-34
-33
-32
-31
-31
-31
-30
-26
-24
-23
-23
-21
-20
-18
-18
-19
-19
-20
-19
-18
-17
-15
-14
-14
-14
-16
-17
-17
-19
-21
-24
-22
-16
-15
-14
-16
-17
-19
-20
-21
-22
-23
-24
-24
-25
-26
-28
-29
-29
-29
-31
-36
-37
-34
-31
-30
-30
-29
-28
-26
-24
-20
-17
-15
-14
-13
-14
-17
-18
-18
-18
-17
-18
-20
-23
-24
-25
-26
-27
-28
-30
-34
-34
-35
-35
-35
-35
-34
-31
-26
-27
-29
-30
-29
-28
-27
-23
-23
-26
-27
-28
-29
-30
-32
-39
-47
-51
-46
-30
-2
29
68
108
149
179
194
193
174
143
100
55
22
4
-2
-4
-7
-10
-13
-16
-18
-19
-20
-19
-18
-19
-22
-24
-24
-23
-22
-23
-25
-27
-28
-29
-29
-28
-29
-31
-32
-31
-32
-34
-34
-34
-33
-33
-33
-32
-33
-33
-32
-32
-33
-33
-33
-32
-30
-29
-28
-28
-27
-28
-28
-26
-24
-24
-23
-21
-21
-21
-21
-22
-21
-20
-21
-20
-19
-19
-19
-20
-19
-20
-21
-20
-18
-12
-9
-12
-17
-20
-22
-23
-24
-24
-23
-24
-24
-26
-27
-27
-28
-27
-28
-26
-26
-25
-25
-25
-27
-28
-25
-24
-23
-22
-19
-14
-10
-6
-3
-3
-3
-3
-4
-6
-9
-10
-7
-5
-7
-9
-11
-12
-14
-18
-22
-25
-26
-27
-28
-31
-33
-32
-32
-32
-31
-30
-31
-33
-34
-33
-32
-31
-30
-31
-31
-31
-34
-37
-40
-45
-49
-50
-43
-26
3
44
91
125
158
179
194
192
172
140
92
47
15
-5
-16
-24
-27
-28
-28
-28
-29
-31
-34
-34
-35
-36
-38
-39
-37
-35
-35
-37
-39
-40
-41
-41
-42
-40
-41
-41
-42
-42
-42
-40
-38
-38
-36
-34
-31
-29
-29
-30
-29
-28
-28
-27
-26
-24
-25
-24
-23
-21
-20
-19
-17
-15
-14
-13
-11
-10
-9
-9
-8
-7
-8
-8
-8
-8
-8
-7
-6
-5
-5
-7
-5
-3
-2
-2
-1
-1
-2
-2
-1
-1
-1
-1
-2
-4
-5
-6
-8
-8
-8
-7
-6
-8
-8
-7
-7
-6
-5
-7
-10
-13
-14
-15
-13
-11
-8
-4
1
8
15
26
37
49
59
69
73
74
74
76
76
71
70
70
74
81
96
114
137
166
195
227
234
222
193
157
117
73
38
15
-1
-12
-17
-19
-22
-23
-25
-26
-27
-30
-34
-36
-36
-38
-39
-41
-42
-42
-44
-46
-50
-53
-56
-57
-58
-59
-59
-61
-62
-62
-62
-62
-61
-60
-60
-59
-59
-58
-58
-57
-56
-54
-52
-50
-48
-47
-45
-42
-38
-36
-34
-31
-28
-27
-25
-21
-19
-15
-13
-10
-9
-7
-5
-4
-3
-3
-2
-2
-2
0
1
2
1
1
1
2
2
3
6
7
4
1
1
1
2
2
0
0
0
2
2
3
4
5
3
1
1
2
3
2
1
3
6
6
6
7
8
7
4
3
2
2
4
4
5
5
6
5
4
3
2
2
2
3
2
3
2
0
-4
-5
4
12
15
15
18
20
22
25
25
24
21
20
19
20
20
18
14
10
6
0
-6
-7
-6
-5
-7
-9
-9
-8
-7
-7
-7
-8
-8
-8
-6
-4
-3
-3
-4
-5
-4
-3
-2
-3
-7
-11
-15
-19
-23
-25
-17
5
39
77
116
153
183
203
211
204
181
145
98
59
29
15
7
4
0
-1
-1
0
1
-2
-9
-12
-14
-14
-13
-15
-17
-17
-17
-19
-19
-18
-17
-19
-20
-19
-19
-18
-19
-19
-20
-21
-21
-21
-20
-21
-20
-18
-16
-16
-16
-15
-13
-9
-9
-10
-10
-10
-8
-4
-3
-4
-3
-2
3
8
6
1
-1
-3
-3
-1
4
6
3
3
3
5
6
4
6
9
9
6
3
2
2
1
0
-3
-4
-4
-3
-1
-3
-5
-6
-8
-9
-11
-13
-13
-13
-13
-15
-14
-11
-13
-20
-25
-22
-19
-18
-16
-14
-14
-13
-8
-1
1
2
4
6
8
7
3
0
0
-1
-2
-4
-8
-9
-12
-15
-18
-18
-16
-17
-16
-15
-15
-13
-11
-10
-10
-13
-15
-17
-20
-21
-18
-17
-16
-15
-15
-19
-25
-30
-33
-36
-34
-22
1
41
79
117
147
179
204
217
216
192
159
113
64
32
18
11
6
3
0
-2
-6
-9
-9
-10
-9
-9
-10
-11
-12
-15
-16
-15
-15
-15
-16
-17
-17
-16
-17
-18
-18
-18
-18
-18
-20
-20
-21
-20
-18
-17
-18
-20
-21
-17
-14
-15
-16
-16
-14
-13
-11
-11
-11
-11
-8
-3
1
4
0
-3
-5
-6
-7
-6
-3
-3
-3
-4
-4
-2
-2
-2
-2
-3
-3
-3
-4
-5
-6
-6
-5
-4
-4
-5
-7
-9
-9
-7
-10
-14
-15
-16
-16
-16
-15
-15
-16
-18
-19
-20
-20
-19
-17
-15
-13
-11
-8
-3
0
0
0
0
0
0
0
-1
-2
-3
-3
-3
-5
-9
-13
-15
-17
-17
-18
-21
-26
-29
-31
-31
-30
-30
-30
-30
-29
-29
-29
-30
-32
-32
-30
-27
-26
-25
-25
-28
-32
-37
-42
-46
-46
-34
-8
25
63
102
138
173
193
205
195
166
124
72
30
3
-12
-17
-17
-19
-24
-28
-30
-33
-35
-35
-34
-35
-36
-37
-39
-39
-41
-42
-43
-41
-42
-45
-48
-47
-44
-42
-41
-41
-42
-43
-43
-42
-39
-37
-36
-34
-33
-32
-32
-32
-31
-30
-30
-30
-28
-28
-28
-29
-30
-30
-28
-22
-18
-18
-20
-19
-16
-13
-12
-14
-16
-16
-15
-16
-17
-15
-14
-13
-12
-11
-13
-14
-14
-13
-11
-10
-10
-12
-13
-15
-15
-17
-17
-18
-19
-20
-20
-20
-21
-22
-22
-22
-23
-24
-25
-25
-24
-27
-29
-31
-31
-30
-26
-19
-13
-8
-5
-1
2
10
20
30
41
49
55
56
59
60
59
57
54
54
58
68
81
101
121
149
179
209
230
227
206
168
124
77
37
11
-5
-14
-19
-22
-25
-29
-32
-35
-36
-37
-38
-39
-42
-42
-45
-46
-47
-48
-48
-49
-50
-53
-55
-58
-59
-60
-62
-62
-62
-62
-64
-63
-63
-64
-63
-63
-62
-62
-62
-62
-60
-57
-56
-57
-56
-53
-51
-46
-44
-43
-43
-40
-36
-33
-30
-28
-28
-26
-24
-21
-18
-16
-14
-13
-12
-12
-12
-12
-12
-11
-9
-7
-7
-8
-7
-8
-8
-9
-9
-8
-7
-7
-8
-8
-9
-9
-9
-8
-7
-7
-7
-7
-6
-6
-7
-7
-6
-5
-4
-3
-3
-3
-3
-2
-3
-3
-2
-1
-3
-4
-4
-3
-2
-1
-1
-1
-2
-1
-1
-1
0
0
0
0
0
0
0
1
1
2
5
9
13
17
20
21
21
20
19
18
17
12
10
8
7
7
6
5
2
0
-2
-6
-9
-11
-12
-13
-14
-15
-16
-16
-16
-15
-15
-16
-16
-15
-13
-14
-13
-12
-13
-15
-17
-20
-24
-29
-34
-39
-38
-26
-4
31
71
113
150
185
208
218
208
183
143
97
50
19
2
-5
-9
-11
-14
-16
-20
-22
-24
-25
-26
-27
-27
-27
-28
-29
-29
-29
-30
-30
-31
-29
-28
-25
-26
-30
-32
-33
-31
-30
-28
-28
-28
-27
-28
-27
-27
-28
-28
-24
-21
-22
-22
-22
-21
-20
-19
-19
-18
-18
-17
-16
-16
-16
-15
-14
-12
-10
-11
-10
-10
-9
-8
-8
-8
-8
-8
-9
-7
-7
-9
-9
-8
-8
-9
-9
-8
-8
-8
-7
-4
-7
-11
-14
-14
-14
-13
-10
-13
-19
-23
-26
-27
-28
-29
-30
-31
-32
-33
-34
-34
-33
-32
-29
-26
-22
-17
-14
-13
-14
-16
-18
-16
-15
-14
-13
-12
