-92
-101
-104
-110
-116
-120
-125
-132
-139
-145
-151
-158
-164
-166
-168
-170
-171
-168
-165
-161
-153
-142
-130
-116
-102
-86
-74
-62
-53
-45
-38
-32
-28
-25
-24
-24
-24
-23
-22
-23
-24
-24
-27
-30
-28
-26
-29
-32
-31
-30
-27
-24
-26
-28
-26
-24
-20
-18
-18
-18
-17
-16
-16
-16
-17
-18
-18
-18
-18
-19
-23
-24
-23
-22
-23
-24
-24
-25
-27
-27
-25
-24
-25
-27
-30
-31
-32
-34
-36
-33
-30
-33
-36
-34
-32
-34
-36
-35
-34
-34
-35
-38
-40
-39
-38
-38
-38
-38
-38
-38
-38
-39
-41
-43
-43
-41
-40
-41
-43
-45
-45
-43
-42
-43
-44
-44
-45
-46
-48
-50
-47
-44
-46
-48
-48
-48
-48
-48
-45
-41
-38
-35
-31
-27
-23
-20
-21
-18
-10
-1
8
14
18
20
20
24
30
33
35
29
20
15
11
0
-13
-20
-27
-33
-38
-39
-40
-41
-42
-41
-40
-42
-44
-42
-40
-39
-38
-36
-40
-60
-86
-120
-114
-54
8
73
138
203
268
333
398
463
439
374
308
243
177
112
46
-19
-47
-70
-74
-77
-79
-82
-82
-82
-83
-84
-85
-86
-88
-90
-92
-94
-94
-94
-95
-96
-98
-100
-102
-104
-103
-102
-105
-107
-109
-110
-111
-113
-116
-118
-119
-122
-125
-125
-123
-125
-129
-130
-130
-134
-139
-142
-140
-151
-156
-162
-168
-174
-180
-187
-192
-195
-198
-203
-206
-207
-208
-207
-204
-197
-189
-179
-168
-155
-141
-127
-115
-104
-95
-86
-80
-77
-71
-64
-62
-61
-60
-61
-61
-59
-58
-59
-60
-60
-60
-60
-59
-58
-57
-56
-56
-56
-55
-54
-55
-55
-49
-44
-44
-44
-44
-44
-44
-44
-45
-46
-45
-44
-45
-46
-45
-47
-52
-52
-48
-48
-51
-52
-52
-52
-51
-50
-50
-50
-50
-51
-54
-53
-52
-52
-52
-53
-54
-54
-54
-53
-52
-51
-50
-51
-52
-50
-48
-49
-50
-49
-48
-47
-46
-46
-46
-47
-47
-45
-44
-45
-46
-47
-48
-47
-46
-46
-46
-47
-47
-45
-44
-44
-42
-40
-42
-44
-44
-44
-43
-41
-35
-30
-28
-25
-19
-14
-14
-11
-3
7
19
26
26
27
30
32
33
37
42
36
22
18
17
7
-5
-12
-17
-24
-31
-32
-33
-33
-31
-32
-34
-32
-30
-31
-32
-33
-34
-30
-30
-50
-75
-111
-121
-72
-17
48
113
178
243
308
373
438
433
367
302
236
171
105
39
-26
-50
-59
-60
-57
-60
-65
-66
-65
-63
-61
-60
-58
-61
-64
-62
-60
-61
-62
-63
-64
-65
-66
-67
-68
-68
-68
-70
-72
-74
-76
-76
-76
-79
-80
-79
-78
-79
-80
-81
-82
-81
-84
-90
-91
-89
-89
-91
-97
-103
-110
-117
-122
-118
-133
-138
-146
-154
-155
-156
-156
-156
-155
-154
-151
-145
-134
-122
-107
-92
-76
-61
-48
-37
-28
-20
-11
-5
-2
1
3
4
3
2
1
0
1
-1
-5
-5
-3
-2
-1
0
0
2
4
6
8
10
12
13
14
17
20
19
18
20
22
23
24
25
26
25
24
22
21
23
22
18
17
19
20
20
20
20
19
17
16
16
15
13
12
13
14
13
12
14
12
10
7
4
7
10
9
8
5
2
4
5
0
-3
1
3
0
-2
-2
-2
-2
-3
-5
-6
-5
-5
-7
-8
-8
-8
-8
-9
-11
-12
-11
-10
-9
-8
-9
-11
-10
-12
-10
-8
-6
-1
4
9
14
13
12
17
23
37
47
50
52
52
52
53
56
61
61
54
48
42
34
24
14
4
-5
-13
-17
-19
-21
-23
-24
-24
-24
-24
-24
-23
-23
-24
-23
-22
-26
-34
-69
-99
-107
-100
-35
30
95
160
225
290
355
420
485
492
426
361
295
230
164
99
33
-14
-52
-64
-65
-68
-71
-72
-73
-74
-75
-77
-79
-80
-79
-79
-82
-82
-82
-85
-88
-89
-90
-92
-94
-95
-96
-99
-102
-104
-106
-107
-108
-110
-112
-111
-110
-113
-114
-115
-116
-116
-117
-120
-122
-123
-127
-132
-137
-143
-149
-156
-162
-167
-174
-181
-185
-182
-194
-198
-198
-198
-196
-194
-187
-180
-169
-157
-144
-131
-117
-104
-92
-83
-77
-72
-66
-62
-62
-61
-58
-56
-57
-58
-59
-61
-63
-64
-63
-62
-63
-64
-65
-66
-65
-64
-65
-63
-59
-57
-56
-55
-54
-54
-54
-52
-50
-50
-50
-50
-50
-48
-46
-50
-52
-52
-52
-51
-50
-51
-52
-53
-54
-55
-56
-56
-56
-57
-58
-58
-58
-59
-60
-59
-58
-57
-58
-61
-62
-61
-60
-60
-61
-62
-63
-64
-63
-62
-64
-66
-66
-66
-66
-66
-66
-66
-66
-66
-64
-62
-63
-64
-64
-64
-65
-66
-65
-64
-65
-66
-66
-68
-71
-71
-69
-68
-69
-68
-65
-64
-63
-61
-62
-52
-46
-43
-40
-39
-38
-34
-29
-18
-9
-2
4
1
-1
4
9
15
14
2
-4
-5
-13
-27
-38
-46
-54
-63
-66
-66
-68
-71
-72
-72
-72
-73
-73
-71
-70
-69
-68
-68
-77
-87
-125
-159
-134
-104
-39
26
91
156
221
286
351
391
375
341
275
210
144
79
13
-39
-78
-95
-93
-93
-95
-96
-97
-98
-97
-96
-97
-98
-99
-100
-100
-100
-101
-102
-102
-103
-106
-107
-108
-106
-104
-108
-112
-110
-108
-109
-110
-112
-114
-116
-118
-117
-116
-117
-118
-120
-122
-122
-123
-126
-130
-134
-137
-140
-145
-150
-155
-160
-168
-176
-180
-183
-188
-193
-194
-195
-196
-196
-194
-190
-182
-173
-161
-149
-136
-124
-111
-98
-87
-77
-73
-68
-61
-56
-55
-54
-53
-52
-52
-53
-55
-56
-55
-55
-58
-60
-60
-60
-59
-58
-57
-56
-56
-52
-47
-46
-47
-48
-48
-47
-46
-46
-46
-44
-42
-43
-44
-47
-50
-47
-44
-46
-48
-48
-48
-48
-48
-48
-48
-47
-46
-46
-46
-47
-47
-45
-43
-41
-41
-43
-42
-39
-38
-37
-36
-36
-36
-36
-35
-33
-30
-26
-27
-28
-27
-26
-26
-26
-26
-26
-24
-22
-21
-20
-18
-16
-15
-14
-13
-12
-11
-10
-13
-14
-14
-12
-8
-6
-6
-6
-7
-6
-1
4
10
16
21
23
25
27
29
39
30
61
72
72
72
73
74
81
86
89
88
71
58
56
51
41
31
23
15
7
2
2
0
-4
-5
-2
0
-1
-2
-1
0
-1
1
5
-3
-16
-56
-102
-85
-58
4
69
135
200
265
330
395
456
491
509
444
378
313
247
182
116
50
5
-4
-10
-10
-11
-15
-16
-12
-11
-13
-14
-14
-14
-14
-14
-15
-16
-15
-14
-14
-14
-15
-17
-19
-20
-21
-25
-30
-29
-28
-28
-28
-31
-34
-32
-30
-34
-38
-37
-36
-38
-41
-44
-47
-50
-55
-62
-67
-70
-76
-86
-94
-101
-108
-115
-121
-126
-130
-133
-134
-135
-131
-124
-115
-107
-93
-77
-61
-76
-29
-14
-4
6
14
22
25
28
28
28
29
30
32
34
32
29
26
24
23
22
22
22
22
22
21
21
23
25
27
28
29
32
35
36
35
35
37
38
38
37
35
36
38
34
30
32
34
32
30
29
28
27
26
24
22
24
26
26
26
27
27
24
22
23
24
25
26
25
24
24
24
24
24
25
26
27
28
27
26
26
26
25
25
28
28
28
30
32
31
30
30
30
28
26
28
30
29
28
28
28
29
30
29
29
32
34
33
32
31
30
31
32
33
35
37
42
48
54
59
60
60
63
67
77
68
100
112
108
104
105
107
116
124
118
113
106
97
85
73
62
53
47
42
36
33
36
36
32
30
31
32
32
32
33
34
33
32
31
4
-28
-48
-66
-11
54
119
184
250
315
380
445
510
559
494
428
363
297
232
166
101
48
23
5
1
-2
0
2
1
0
0
1
4
6
5
3
1
0
0
0
0
1
3
0
-5
-4
-1
-2
-5
-6
-8
-9
-10
-9
-8
-10
-12
-13
-14
-13
-12
-15
-18
-18
-18
-20
-23
-27
-31
-34
-38
-45
-52
-60
-66
-72
-76
-80
-86
-93
-98
-101
-99
-95
-88
-80
-70
-59
-45
-29
-13
-28
16
28
36
44
51
58
59
60
60
60
61
62
62
62
60
57
54
52
54
56
53
52
51
50
51
53
55
55
53
54
58
60
60
62
65
66
66
66
66
65
63
63
64
65
66
62
58
60
62
60
58
56
54
52
50
51
52
51
50
50
50
50
50
50
50
50
50
50
50
50
50
51
52
52
53
55
54
51
51
53
54
54
54
52
54
56
55
54
53
52
54
56
55
54
53
53
57
60
58
56
57
58
57
56
55
54
53
52
53
54
53
55
60
65
70
76
82
84
84
88
93
104
115
121
116
129
130
129
129
140
149
135
124
120
113
98
84
75
66
59
53
49
47
51
54
54
54
53
51
48
46
46
47
49
48
45
15
-25
-33
-31
24
89
154
219
284
349
415
480
545
600
535
469
404
338
273
207
142
84
50
26
25
24
25
26
27
28
27
27
29
30
29
28
29
30
30
31
33
34
34
32
29
28
27
26
26
27
29
29
26
24
22
24
26
23
20
20
20
21
22
24
25
19
14
12
8
2
-5
-12
-19
-26
-33
-40
-46
-52
-57
-63
-66
-67
-68
-68
-59
-47
-37
-28
-11
8
23
39
51
40
73
82
87
92
94
96
98
100
101
102
97
94
94
95
100
102
96
92
93
93
88
88
92
96
100
103
105
105
103
107
115
120
123
122
119
119
121
122
121
120
120
120
120
122
124
124
124
123
122
119
116
117
119
124
127
122
118
119
120
119
118
118
118
118
119
121
120
116
115
119
119
117
117
119
122
125
121
113
110
107
106
107
108
106
111
116
121
126
121
116
120
124
120
116
116
116
118
121
125
126
120
116
117
118
119
120
119
118
117
120
127
136
145
148
148
148
149
154
159
167
177
188
199
200
200
199
198
203
207
194
182
179
174
159
146
137
127
116
108
110
111
108
106
104
102
105
106
107
108
108
108
109
104
95
60
14
15
32
87
152
217
282
347
412
477
542
530
514
449
383
318
252
187
126
86
54
58
62
60
58
56
54
53
53
56
57
54
51
49
48
49
50
50
50
50
48
45
44
43
42
42
38
33
32
31
30
30
30
30
27
24
24
24
20
16
17
17
12
8
5
0
-8
-15
-20
-27
-35
-44
-56
-64
-69
-76
-86
-92
-98
-100
-101
-100
-97
-88
-77
-63
-47
-33
-19
-3
12
24
35
42
36
52
54
57
60
58
56
56
56
53
50
48
46
44
42
42
42
40
39
42
44
43
42
43
44
45
47
49
50
50
50
50
49
47
46
45
43
41
40
40
39
37
32
28
26
24
24
24
21
18
16
14
14
14
12
10
10
10
9
8
6
4
4
4
4
4
3
2
1
0
-1
-3
-5
-6
-5
-4
-5
-6
-6
-6
-7
-8
-8
-8
-8
-9
-10
-11
-12
-11
-10
-10
-10
-11
-12
-13
-14
-13
-12
-13
-14
-13
-12
-13
-14
-14
-14
-13
-13
-16
-17
-14
-14
-18
-17
-12
-12
-15
-16
-16
-16
-17
-19
-21
-19
-22
-13
-12
-4
4
4
4
7
11
20
30
39
47
51
54
52
51
57
60
62
59
46
36
28
17
4
-6
-15
-21
-26
-28
-28
-30
-33
-33
-31
-32
-35
-36
-36
-36
-36
-37
-38
-60
-82
-114
-134
-69
-4
61
126
191
256
321
386
451
470
404
339
273
208
142
77
11
-34
-64
-76
-76
-77
-81
-82
-81
-80
-80
-80
-81
-81
-79
-78
-78
-79
-81
-82
-84
-85
-86
-87
-88
-90
-92
-93
-94
-94
-94
-97
-100
-100
-100
-101
-102
-102
-102
-103
-104
-107
-108
-108
-109
-111
-113
-116
-120
-124
-131
-138
-143
-147
-156
-166
-173
-179
-185
-191
-195
-192
-202
-204
-201
-198
-191
-183
-173
-162
-146
-132
-119
-107
-95
-85
-82
-77
-69
-64
-64
-64
-61
-59
-56
-55
-58
-60
-61
-62
-62
-63
-65
-66
-67
-68
-68
-68
-67
-66
-65
-63
-61
-59
-58
-56
-54
-55
-56
-55
-54
-54
-54
-54
-54
-53
-53
-57
-60
-60
-61
-65
-68
-66
-65
-67
-68
-67
-67
-69
-70
-71
-72
-72
-72
-72
-71
-69
-71
-75
-76
-75
-73
-71
-70
-72
-72
-72
-72
-72
-74
-76
-73
-70
-71
-72
-73
-74
-72
-70
-71
-72
-72
-72
-71
-70
-71
-71
-69
-68
-69
-70
-69
-68
-69
-70
-70
-69
-67
-67
-69
-70
-70
-70
-70
-69
-70
-67
-68
-65
-62
-64
-66
-65
-64
-64
-64
-63
-61
-55
-49
-46
-43
-39
-36
-37
-35
-26
-16
-4
1
-1
-1
1
4
8
12
16
9
-3
-10
-17
-28
-40
-48
-55
-60
-65
-68
-70
-71
-72
-72
-72
-72
-72
-73
-74
-73
-72
-73
-77
-90
-111
-150
-159
-121
-71
-6
59
124
189
254
319
384
367
301
235
170
104
39
-27
-92
-111
-120
-121
-119
-120
-123
-123
-120
-121
-122
-122
-122
-120
-118
-118
-118
-116
-114
-116
-118
-118
-118
-118
-118
-119
-120
-121
-122
-123
-123
-121
-120
-121
-122
-122
-122
-122
-122
-122
-121
-119
-120
-123
-124
-123
-124
-127
-130
-128
-138
-142
-149
-156
-164
-172
-179
-184
-190
-195
-201
-206
-207
-208
-207
-205
-201
-194
-182
-171
-160
-147
-131
-120
-112
-103
-94
-86
-80
-76
-73
-73
-75
-76
-76
-76
-76
-76
-76
-76
-77
-80
-82
-81
-80
-83
-86
-84
-82
-82
-82
-79
-76
-77
-77
-73
-70
-72
-74
-72
-70
-70
-70
-71
-73
-75
-76
-75
-75
-77
-78
-78
-78
-78
-78
-79
-81
-83
-81
-77
-77
-79
-79
-76
-77
-78
-78
-78
-77
-76
-77
-78
-77
-76
-78
-80
-78
-76
-76
-76
-75
-74
-75
-76
-76
-76
-76
-76
-77
-78
-77
-76
-77
-79
-81
-80
-77
-77
-79
-80
-79
-77
-75
-75
-74
-78
-78
-77
-76
-78
-80
-78
-76
-76
-76
-77
-78
-76
-74
-73
-70
-64
-60
-58
-56
-53
-49
-43
-35
-24
-16
-9
-7
-9
-8
-4
1
6
4
-3
-8
-13
-25
-39
-47
-55
-62
-68
-69
-70
-71
-72
-72
-72
-73
-74
-74
-74
-74
-74
-70
-69
-73
-88
-117
-144
-166
-146
-81
-16
49
114
179
244
309
374
439
409
344
278
213
147
82
16
-49
-80
-107
-108
-108
-110
-112
-111
-110
-109
-108
-111
-114
-114
-114
-113
-112
-113
-114
-114
-114
-115
-116
-118
-120
-123
-124
-125
-126
-125
-126
-130
-132
-132
-132
-133
-137
-141
-142
-141
-142
-145
-147
-149
-153
-150
-162
-166
-172
-178
-186
-195
-203
-211
-218
-225
-231
-237
-242
-247
-250
-252
-251
-250
-249
-244
-235
-224
-210
-196
-182
-170
-158
-148
-139
-131
-124
-121
-119
-115
-111
-110
-109
-108
-108
-108
-108
-106
-104
-106
-108
-107
-106
-104
-102
-99
-96
-93
-90
-88
-86
-84
-82
-81
-79
-76
-74
-73
-72
-71
-70
-71
-72
-72
-72
-71
-71
-73
-75
-77
-78
-77
-77
-79
-80
-79
-78
-79
-80
-80
-80
-80
-80
-80
-81
-82
-81
-80
-81
-82
-82
-82
-80
-78
-76
-74
-75
-76
-77
-78
-75
-75
-77
-78
-77
-76
-76
-76
-76
-75
-73
-72
-72
-72
-71
-70
-70
-69
-67
-69
-66
-70
-66
-68
-70
-70
-70
-72
-74
-70
-66
-61
-57
-53
-50
-48
-43
-35
-26
-16
-10
-9
-8
-7
-4
2
6
10
5
-6
-14
-20
-30
-41
-49
-56
-62
-67
-68
-69
-70
-69
-70
-72
-70
-68
-68
-68
-67
-66
-65
-67
-82
-104
-145
-167
-142
-103
-38
27
92
157
222
287
352
369
344
296
230
165
99
33
-32
-68
-94
-99
-97
-98
-101
-102
-102
-102
-102
-102
-104
-103
-102
-100
-98
-99
-100
-102
-104
-100
-96
-99
-102
-101
-100
-100
-100
-102
-104
-103
-102
-102
-103
-105
-106
-106
-106
-107
-108
-109
-111
-113
-115
-117
-120
-123
-127
-131
-134
-137
-146
-138
-163
-170
-176
-182
-188
-194
-197
-200
-199
-198
-196
-192
-185
-176
-164
-151
-137
-123
-110
-98
-87
-79
-72
-66
-62
-60
-60
-58
-54
-54
-57
-58
-57
-57
-59
-60
-61
-62
-63
-64
-64
-63
-62
-58
-54
-55
-56
-54
-52
-48
-44
-43
-42
-43
-44
-43
-42
-43
-44
-43
-42
-43
-44
-45
-46
-47
-48
-49
-50
-49
-48
-48
-49
-51
-52
-52
-52
-53
-54
-54
-53
-51
-51
-54
-51
-48
-50
-52
-49
-46
-49
-52
-51
-50
-50
-50
-47
-44
-45
-46
-46
-46
-46
-46
-47
-48
-47
-45
-43
-42
-42
-40
-37
-37
-39
-40
-39
-38
-39
-40
-39
-38
-38
-38
-38
-35
-34
-35
-36
-32
-28
-23
-18
-15
-12
-12
-11
-6
2
17
26
27
28
28
29
32
37
43
38
24
16
12
2
-12
-19
-24
-31
-38
-40
-40
-41
-43
-45
-47
-48
-47
-45
-44
-44
-44
-42
-40
-42
-50
-89
-122
-132
-123
-58
7
72
137
202
267
332
397
462
463
397
332
266
201
135
70
4
-37
-67
-79
-83
-84
-83
-82
-82
-82
-82
-82
-81
-80
-80
-78
-76
-78
-80
-78
-76
-79
-82
-81
-80
-81
-82
-84
-86
-86
-86
-86
-86
-88
-90
-90
-90
-91
-93
-95
-96
-97
-98
-99
-102
-107
-110
-113
-117
-121
-129
-137
-145
-153
-158
-154
-169
-174
-177
-180
-180
-180
-178
-175
-168
-160
-151
-140
-126
-111
-95
-80
-68
-57
-50
-44
-39
-35
-33
-32
-32
-31
-29
-28
-27
-26
-27
-27
-25
-24
-25
-26
-26
-26
-27
-25
-21
-17
-14
-13
-12
-6
0
-1
-2
0
2
0
-2
-1
0
0
0
-2
-4
-3
-1
2
2
-2
-4
-5
-6
-6
-6
-6
-8
-11
-12
-11
-10
-10
-10
-10
-11
-13
-14
-14
-14
-16
-17
-18
-22
-26
-24
-22
-19
-16
-18
-20
-20
-20
-22
-24
-26
-28
-29
-30
-28
-25
-22
-20
-20
-19
-17
-16
-16
-17
-19
-20
-19
-15
-9
-10
-13
-12
-9
1
11
10
12
11
16
18
21
35
49
56
62
60
58
63
66
67
67
64
61
55
49
39
31
24
16
8
1
-5
-8
-7
-7
-9
-9
-7
-6
-6
-6
-6
-3
1
2
2
-20
-43
-80
-115
-68
-19
46
111
176
241
306
371
436
467
402
336
270
205
139
74
8
-28
-30
-33
-35
-35
-32
-33
-38
-40
-39
-36
-32
-33
-37
-38
-37
-36
-36
-39
-43
-43
-41
-41
-44
-46
-48
-45
-42
-45
-48
-52
-56
-55
-54
-57
-60
-60
-61
-64
-66
-68
-70
-71
-73
-78
-81
-84
-89
-95
-102
-109
-117
-125
-133
-142
-149
-156
-158
-159
-162
-165
-164
-161
-156
-160
-140
-130
-112
-95
-81
-67
-53
-41
-32
-23
-16
-9
-5
-2
-3
-4
-3
-2
-2
-2
-5
-6
-5
-4
-4
-4
-5
-6
-5
-4
-3
1
5
6
5
5
7
7
5
5
7
7
6
6
6
4
2
1
0
-1
-2
-6
-10
-8
-6
-6
-7
-12
-16
-15
-14
-12
-10
-11
-13
-16
-18
-19
-19
-15
-15
-17
-18
-17
-17
-19
-19
-17
-16
-17
-18
-18
-18
-16
-17
-18
-19
-20
-20
-20
-20
-20
-20
-20
-21
-22
-19
-17
-20
-22
-22
-22
-22
-22
-25
-25
-23
-23
-25
-25
-22
-17
-12
-10
-9
-8
-9
-4
4
14
25
26
27
28
28
31
34
39
43
31
20
18
14
-2
-15
-21
-28
-39
-46
-46
-46
-46
-46
-48
-50
-50
-50
-50
-50
-50
-49
-46
-46
-49
-67
-91
-112
-132
-85
-20
45
110
175
240
305
370
436
497
432
366
301
235
170
104
39
-21
-59
-88
-88
-89
-94
-98
-96
-94
-96
-98
-99
-100
-101
-102
-103
-105
-107
-109
-113
-114
-113
-113
-115
-118
-121
-122
-123
-126
-129
-130
-131
-135
-140
-141
-142
-145
-148
-148
-148
-151
-154
-156
-159
-164
-168
-170
-174
-180
-185
-189
-195
-202
-208
-215
-221
-227
-231
-234
-239
-244
-244
-241
-240
-240
-233
-222
-211
-200
-184
-166
-152
-139
-129
-138
-112
-106
-102
-98
-96
-94
-93
-92
-91
-90
-92
-94
-96
-97
-94
-92
-93
-94
-96
-98
-98
-98
-98
-97
-94
-92
-92
-90
-87
-85
-83
-81
-79
-77
-75
-75
-77
-76
-73
-73
-75
-77
-78
-79
-80
-80
-80
-83
-86
-84
-82
-82
-82
-83
-84
-85
-86
-84
-82
-84
-86
-85
-84
-84
-84
-84
-84
-84
-84
-84
-84
-83
-82
-83
-83
-81
-82
-85
-85
-83
-82
-83
-84
-84
-84
-84
-82
-80
-80
-80
-80
-80
-79
-78
-81
-84
-82
-80
-81
-81
-77
-74
-76
-76
-71
-66
-61
-58
-57
-54
-50
-45
-40
-31
-21
-15
-9
-8
-9
-7
-3
4
11
2
12
-11
-12
-29
-44
-52
-60
-65
-70
-71
-72
-73
-74
-72
-70
-71
-72
-71
-70
-69
-68
-67
-67
-70
-89
-121
-137
-142
-102
-37
28
93
158
223
288
353
413
471
420
355
289
224
158
92
27
-36
-64
-90
-93
-96
-96
-96
-97
-98
-97
-96
-97
-98
-96
-94
-95
-96
-97
-98
-97
-96
-97
-99
-101
-102
-102
-102
-103
-104
-103
-104
-107
-108
-109
-110
-111
-112
-112
-115
-120
-120
-120
-121
-122
-123
-124
-127
-131
-137
-143
-147
-152
-159
-166
-172
-178
-184
-189
-193
-195
-192
-190
-189
-186
-182
-173
-162
-148
-133
-119
-106
-92
-77
-66
-56
-48
-41
-38
-35
-32
-34
-28
-28
-29
-30
-28
-26
-27
-28
-26
-24
-23
-22
-25
-27
-24
-22
-22
-22
-20
-18
-15
-13
-11
-8
-4
-2
-2
-2
-1
0
-1
-2
-1
0
-1
-1
1
2
1
2
5
4
2
5
8
8
8
8
8
8
8
10
12
14
16
15
14
15
16
16
16
15
14
15
16
16
16
17
19
21
22
22
24
27
28
27
26
26
26
26
27
29
31
34
34
34
31
28
31
34
37
40
42
44
45
48
57
65
68
70
72
78
90
98
103
111
123
128
129
130
131
138
147
141
128
119
112
103
94
85
77
71
65
62
64
60
62
62
62
64
66
62
58
59
60
61
63
68
62
32
1
-28
-19
46
111
176
241
306
371
436
501
566
546
481
415
350
284
219
153
88
55
29
30
35
34
31
31
32
32
32
32
32
31
30
29
28
28
29
33
36
32
29
26
24
23
22
21
21
23
22
17
17
23
23
16
14
13
13
15
13
9
8
9
2
-9
-10
-11
-17
-24
-32
-40
-47
-55
-65
-74
-78
-82
-84
-87
-92
-95
-89
-81
-71
-60
-49
-34
-15
3
18
34
51
64
75
86
96
104
110
112
112
112
113
111
107
109
113
112
109
108
108
111
112
113
114
116
118
120
122
126
130
128
127
132
136
138
140
139
138
139
140
143
144
145
144
140
138
139
138
135
134
135
136
135
134
133
131
129
128
128
129
131
128
124
127
130
132
134
135
136
130
126
127
128
131
134
136
137
132
131
139
139
128
125
132
137
140
143
145
146
147
144
136
143
155
156
153
151
149
148
149
154
159
160
158
164
170
168
166
171
177
187
196
199
202
201
204
218
232
247
257
261
263
260
259
262
270
282
284
276
263
248
233
219
209
202
195
188
184
181
187
197
194
189
188
188
184
182
190
198
192
185
174
156
110
85
132
184
249
314
379
444
509
574
639
644
578
513
447
382
316
251
185
154
140
136
135
134
134
134
135
135
133
132
133
134
133
130
128
129
130
119
110
114
118
119
120
121
121
113
108
107
104
98
94
94
94
92
89
87
86
86
86
86
85
81
81
83
79
72
66
60
53
45
38
31
25
19
14
8
0
-8
-16
-24
-19
-14
-11
-6
8
22
41
58
73
90
110
124
131
139
147
153
158
160
159
159
162
162
158
156
156
154
149
146
143
141
139
138
137
135
133
132
132
133
134
131
128
129
130
127
124
125
126
126
125
120
116
114
111
108
106
105
102
97
93
90
88
87
85
83
80
77
75
73
72
72
70
67
65
63
62
62
61
59
57
56
55
54
52
50
46
42
43
44
43
42
43
44
43
42
41
40
40
40
38
36
35
34
33
32
33
34
33
30
27
27
29
28
25
24
24
24
23
22
23
22
18
20
22
26
30
33
36
37
38
41
46
55
64
71
76
76
76
75
76
81
86
91
88
76
66
58
46
31
20
11
6
1
-1
-3
-6
-9
-9
-7
-8
-11
-11
-12
-8
-8
-6
-5
-16
-32
-77
-107
-67
-21
44
109
174
239
304
369
434
445
379
314
248
183
117
52
-14
-48
-61
-65
-63
-63
-65
-66
-66
-66
-67
-68
-68
-69
-71
-72
-71
-70
-70
-70
-70
-71
-72
-75
-78
-78
-78
-79
-80
-82
-84
-85
-86
-87
-88
-89
-90
-91
-93
-95
-96
-95
-95
-97
-99
-101
-104
-108
-113
-118
-124
-130
-138
-146
-156
-165
-172
-179
-185
-192
-196
-200
-199
-198
-198
-198
-191
-184
-172
-158
-142
-126
-112
-98
-86
-75
-67
-58
-48
-42
-42
-41
-39
-38
-38
-40
-44
-45
-43
-42
-42
-45
-49
-50
-51
-52
-51
-51
-53
-54
-54
-54
-54
-53
-52
-52
-52
-47
-42
-42
-42
-44
-46
-43
-40
-41
-42
-41
-40
-40
-40
-41
-41
-38
-38
-42
-44
-43
-42
-42
-42
-41
-41
-43
-44
-44
-43
-41
-40
-41
-42
-42
-42
-42
-42
-42
-42
-42
-42
-42
-41
-40
-39
-38
-38
-38
-37
-36
-36
-36
-37
-38
-39
-38
-34
-33
-36
-37
-35
-34
-35
-36
-37
-38
-37
-36
-37
-38
-39
-40
-39
-38
-39
-39
-36
-39
-42
-38
-34
-29
-24
-21
-18
-17
-15
-8
0
9
16
18
18
13
13
20
26
31
30
20
14
8
-4
-20
-30
-36
-44
-53
-56
-57
-58
-59
-61
-63
-64
-63
-62
-62
-62
-60
-59
-58
-61
-69
-106
-136
-137
-123
-58
7
72
137
202
267
332
375
387
364
298
233
167
102
36
-23
-77
-94
-90
-89
-91
-92
-91
-90
-90
-90
-91
-91
-89
-88
-89
-89
-88
-90
-92
-93
-94
-95
-96
-97
-98
-99
-100
-100
-101
-105
-108
-107
-106
-108
-111
-114
-116
-116
-116
-117
-119
-121
-123
-127
-130
-133
-137
-142
-149
-156
-164
-172
-181
-189
-195
-201
-207
-214
-221
-228
-229
-230
-232
-234
-231
-227
-219
-208
-189
-172
-157
-142
-127
-115
-107
-98
-88
-81
-76
-73
-71
-71
-74
-74
-70
-68
-69
-70
-70
-70
-71
-72
-71
-71
-73
-74
-74
-74
-74
-71
-66
-66
-66
-64
-62
-63
-64
-61
-58
-60
-62
-61
-60
-61
-62
-62
-62
-63
-64
-63
-63
-65
-66
-67
-68
-68
-68
-67
-66
-66
-66
-66
-66
-67
-69
-71
-72
-71
-70
-71
-71
-70
-70
-70
-67
-64
-66
-68
-69
-70
-71
-72
-72
-71
-66
-63
-66
-68
-67
-66
-66
-66
-67
-68
-69
-70
-70
-70
-69
-68
-69
-69
-67
-66
-67
-69
-71
-70
-67
-66
-67
-67
-64
-63
-62
-54
-46
-44
-42
-40
-38
-35
-29
-16
-6
-4
-2
-1
1
5
11
18
18
9
1
-5
-16
-32
-41
-47
-53
-58
-60
-61
-62
-62
-62
-62
-62
-62
-62
-62
-62
-62
-57
-54
-59
-67
-100
-131
-140
-136
-71
-6
59
124
189
254
319
353
334
295
229
164
98
33
-33
-69
-82
-87
-84
-82
-83
-84
-84
-84
-85
-86
-86
-86
-87
-88
-87
-86
-87
-87
-86
-87
-88
-90
-92
-90
-88
-91
-94
-96
-98
-98
-98
-99
-100
-101
-102
-102
-102
-103
-104
-105
-107
-109
-111
-113
-116
-120
-123
-125
-129
-133
-139
-146
-154
-162
-169
-175
-181
-187
-191
-196
-199
-202
-201
-200
-194
-187
-175
-164
-149
-135
-119
-105
-95
-84
-72
-62
-56
-51
-47
-44
-44
-44
-43
-42
-43
-44
-43
-42
-42
-42
-43
-44
-45
-46
-45
-44
-45
-43
-39
-38
-38
-38
-38
-36
-34
-34
-34
-35
-36
-35
-34
-39
-42
-39
-37
-40
-42
-44
-46
-45
-44
-44
-45
-47
-48
-49
-49
-47
-46
-47
-49
-51
-51
-49
-48
-48
-48
-48
-48
-47
-46
-45
-44
-44
-44
-44
-42
-40
-40
-40
-40
-40
-40
-40
-41
-42
-40
-38
-38
-38
-36
-34
-35
-36
-37
-37
-35
-34
-34
-34
-33
-32
-32
-32
-32
-32
-31
-30
-30
-30
-31
-32
-32
-30
-26
-26
-26
-25
-24
-19
-14
-9
-4
-2
0
2
6
13
21
31
38
39
40
41
42
45
49
56
53
39
33
30
18
3
-6
-12
-18
-24
-26
-26
-27
-29
-30
-30
-30
-30
-29
-30
-27
-24
-26
-28
-29
-37
-77
-110
-121
-112
-47
18
83
148
213
278
343
408
473
472
406
341
275
210
144
78
13
-25
-51
-58
-58
-60
-63
-64
-64
-64
-64
-64
-63
-63
-64
-65
-66
-68
-70
-70
-70
-71
-72
-72
-72
-74
-76
-76
-76
-77
-78
-77
-76
-78
-80
-81
-83
-85
-87
-89
-90
-91
-94
-98
-101
-103
-107
-111
-118
-126
-134
-141
-148
-155
-163
-172
-179
-186
-189
-192
-191
-190
-190
-190
-186
-179
-167
-154
-140
-125
-110
-95
-81
-68
-58
-49
-40
-34
-30
-28
-28
-28
-28
-28
-28
-26
-23
-22
-23
-25
-27
-25
-21
-20
-19
-17
-18
-13
-12
-8
-4
-4
-4
-1
2
1
0
-2
-4
-2
0
0
0
-1
-2
-3
-4
-3
-2
-3
-6
-10
-12
-12
-12
-13
-14
-13
-14
-17
-15
-11
-10
-9
-9
-11
-12
-12
-9
-6
-7
-8
-10
-12
-11
-10
-9
-8
-7
-6
-4
-2
-4
-6
-5
-4
-3
-2
-4
-6
-5
-4
-3
-2
-2
-1
1
0
-4
-5
-3
-2
-3
-4
-5
-1
5
7
9
14
20
24
28
28
28
33
40
53
64
65
66
65
65
69
72
72
70
63
54
42
33
24
16
6
2
1
-1
-3
-5
-7
-8
-7
-6
-7
-7
-5
-4
-3
-2
-3
-7
-4
-50
-88
-90
-86
-21
44
109
174
239
304
369
409
384
345
279
214
148
83
17
-25
-40
-47
-45
-45
-48
-51
-53
-54
-55
-56
-57
-58
-58
-58
-59
-60
-60
-60
-61
-61
-59
-59
-60
-60
-60
-62
-64
-63
-62
-64
-66
-67
-68
-69
-70
-70
-70
-70
-71
-74
-76
-76
-78
-82
-85
-88
-93
-99
-106
-113
-120
-126
-133
-140
-146
-152
-156
-159
-160
-160
-159
-157
-149
-140
-128
-116
-102
-89
-72
-56
-43
-31
-23
-15
-11
-7
-3
2
8
11
8
6
7
8
7
6
7
8
7
6
7
9
11
12
12
12
13
16
19
20
19
18
19
20
20
18
18
20
22
21
20
21
22
20
18
18
18
15
12
13
14
13
12
11
10
9
7
4
2
3
4
4
2
-1
0
3
3
1
0
0
-1
-3
-1
3
2
-1
-3
-4
-4
-4
-4
-4
-5
-6
-8
-10
-9
-8
-11
-14
-13
-12
-14
-16
-16
-16
-18
-19
-16
-15
-17
-19
-21
-20
-16
-13
-11
-9
-7
-5
-3
4
12
21
29
29
27
26
26
32
38
36
34
27
19
9
-1
-11
-20
-28
-35
-39
-42
-44
-46
-47
-48
-47
-46
-46
-46
-47
-48
-49
-50
-49
-54
-63
-93
-131
-129
-113
-58
7
72
137
202
267
332
271
346
293
228
162
97
31
-34
-88
-92
-96
-94
-93
-98
-102
-104
-106
-104
-102
-103
-104
-105
-106
-106
-107
-110
-111
-109
-110
-113
-114
-115
-116
-115
-114
-114
-115
-117
-119
-121
-122
-123
-125
-126
-127
-128
-128
-128
-130
-132
-133
-134
-137
-140
-142
-145
-150
-156
-162
-169
-178
-186
-192
-200
-208
-213
-216
-221
-226
-228
-228
-228
-228
-223
-216
-206
-194
-181
-168
-153
-138
-128
-119
-110
-100
-94
-88
-85
-82
-81
-80
-80
-80
-83
-86
-83
-80
-83
-86
-87
-88
-90
-92
-91
-90
-89
-88
-87
-86
-85
-83
-81
-80
-80
-80
-80
-80
-79
-78
-77
-76
-77
-78
-78
-78
-78
-81
-82
-81
-80
-83
-86
-83
-80
-82
-84
-83
-82
-84
-86
-85
-84
-84
-84
-85
-86
-85
-84
-84
-84
-84
-84
-85
-86
-85
-84
-83
-82
-81
-80
-80
-80
-81
-81
-79
-79
-81
-79
-76
-76
-76
-77
-78
-77
-76
-76
-76
-76
-76
-77
-78
-77
-76
-74
-70
-64
-59
-55
-52
-51
-49
-46
-38
-28
-21
-16
-15
-17
-15
-10
-4
1
-7
-18
-22
-25
-40
-55
-59
-64
-69
-74
-76
-78
-80
-82
-81
-80
-81
-82
-81
-80
-80
-80
-79
-79
-82
-96
-125
-146
-159
-132
-67
-2
63
128
193
258
323
388
453
419
354
288
223
157
92
26
-39
-73
-43
-104
-102
-102
-102
-102
-102
-101
-100
-102
-104
-102
-100
-101
-102
-102
-102
-101
-100
-101
-102
-102
-103
-105
-106
-106
-106
-107
-110
-114
-116
-115
-114
-114
-116
-119
-119
-117
-119
-123
-124
-125
-128
-130
-133
-136
-140
-144
-149
-155
-166
-175
-180
-185
-193
-199
-204
-208
-207
-206
-207
-206
-200
-192
-183
-171
-156
-141
-124
-110
-97
-86
-77
-69
-62
-56
-51
-47
-43
-42
-42
-41
-39
-40
-44
-47
-50
-48
-46
-44
-42
-40
-38
-39
-39
-34
-30
-29
-28
-27
-26
-28
-28
-22
-18
-18
-18
-18
-16
-12
-10
-9
-8
-9
-12
-15
-16
-15
-14
-14
-14
-14
-15
-17
-18
-18
-17
-16
-15
-14
-16
-18
-17
-16
-16
-16
-18
-19
-15
-12
-12
-13
-16
-18
-19
-19
-14
-12
-11
-12
-16
-16
-12
-10
-10
-10
-10
-11
-13
-10
-5
-5
-7
-8
-8
-8
-7
3
12
12
12
15
18
21
26
40
52
54
56
58
61
65
69
74
74
64
57
54
46
33
22
14
7
2
0
-1
-2
-2
-2
-1
-1
-3
-3
-1
0
0
0
1
1
-2
-39
-74
-82
-83
-18
47
112
177
242
307
372
418
421
402
336
271
205
140
74
21
-20
-39
-36
-34
-35
-37
-40
-42
-42
-42
-41
-42
-45
-46
-45
-45
-47
-49
-51
-51
-52
-52
-56
-56
-56
-59
-62
-63
-64
-64
-64
-66
-68
-68
-68
-70
-72
-72
-73
-76
-78
-81
-82
-83
-86
-90
-94
-98
-104
-111
-118
-124
-132
-142
-148
-155
-161
-167
-170
-173
-174
-173
-170
-168
-159
-150
-137
-125
-109
-94
-81
-68
-56
-44
-36
-28
-21
-16
-14
-12
-13
-14
-14
-14
-13
-12
-13
-14
-14
-14
-14
-14
-13
-12
-13
-11
-7
-6
-6
-6
-5
-3
-1
0
0
1
2
2
2
1
0
-1
-2
-1
0
-2
-4
-5
-6
-8
-10
-10
-10
-11
-12
-12
-12
-12
-12
-13
-14
-14
-15
-17
-17
-15
-14
-14
-14
-15
-16
-17
-19
-21
-19
-22
-14
-14
-15
-16
-20
-24
-24
-24
-24
-24
-23
-22
-21
-20
-21
-23
-26
-28
-26
-24
-24
-24
-24
-24
-23
-19
-14
-11
-9
-6
-2
1
3
11
20
26
31
31
29
29
31
40
48
43
38
32
25
13
1
-8
-17
-22
-27
-32
-36
-35
-34
-34
-34
-33
-32
-34
-36
-35
-33
-31
-29
-27
-40
-62
-88
-114
-75
-10
55
120
185
250
315
380
445
510
450
384
319
253
188
122
57
-3
-31
-54
-56
-58
-56
-54
-57
-60
-59
-58
-59
-60
-60
-60
-63
-64
-64
-64
-64
-64
-65
-67
-69
-70
-70
-70
-70
-71
-73
-75
-77
-78
-79
-81
-80
-85
-86
-89
-92
-94
-96
-98
-100
-103
-106
-108
-111
-115
-120
-127
-134
-140
-147
-155
-162
-167
-171
-174
-177
-179
-180
-179
-177
-175
-168
-159
-147
-133
-120
-107
-94
-82
-70
-59
-52
-45
-39
-34
-33
-32
-31
-30
-30
-30
-33
-36
-33
-30
-32
-34
-34
-34
-35
-36
-35
-34
-33
-32
-33
-33
-31
-30
-29
-27
-25
-24
-24
-24
-23
-22
-21
-20
-21
-22
-22
-24
-27
-27
-24
-26
-28
-26
-24
-26
-28
-28
-28
-29
-30
-29
-28
-27
-26
-27
-28
-28
-28
-27
-26
-29
-28
-24
-24
-28
-29
-27
-26
-26
-26
-27
-28
-29
-27
-23
-24
-27
-29
-31
-31
-32
-27
-26
-23
-20
-19
-18
-18
-18
-16
-14
-12
-8
1
8
10
12
13
16
21
29
42
49
51
52
52
53
55
62
71
67
57
53
51
37
21
13
7
3
-1
-6
-11
-13
-14
-12
-10
-11
-12
-9
-6
-7
-8
-7
-6
-9
-23
-59
-84
-91
-70
-5
60
125
190
255
320
385
450
515
498
432
366
301
235
170
104
39
2
-28
-32
-31
-33
-37
-36
-32
-36
-40
-37
-34
-38
-42
-43
-44
-45
-46
-46
-46
-45
-45
-48
-50
-52
-54
-56
-58
-61
-62
-62
-64
-70
-71
-69
-69
-71
-74
-77
-78
-78
-82
-87
-90
-93
-98
-103
-107
-104
-121
-130
-134
-138
-146
-154
-161
-166
-167
-168
-166
-163
-159
-153
-143
-132
-118
-102
-83
-66
-53
-40
-28
-19
-13
-7
-1
2
3
5
7
7
5
4
3
2
3
4
4
4
5
5
4
3
2
7
12
12
12
12
13
18
22
22
22
24
27
30
32
32
32
31
30
29
28
28
28
28
27
25
24
25
24
21
20
20
20
19
18
17
16
15
14
16
17
18
19
20
18
16
14
12
13
14
14
14
14
14
14
14
14
14
16
18
17
16
16
15
13
13
16
18
17
17
19
23
29
32
35
36
37
40
43
54
44
73
80
78
76
77
79
86
91
82
74
69
62
48
36
29
22
15
10
8
6
5
4
3
2
1
0
1
2
2
3
5
6
5
-16
-42
-67
-93
-39
26
91
156
222
287
352
417
482
531
466
400
335
269
204
138
73
17
-15
-35
-32
-30
-32
-34
-34
-34
-35
-37
-39
-39
-37
-37
-41
-42
-42
-43
-45
-46
-47
-48
-49
-52
-55
-56
-56
-57
-60
-62
-64
-66
-68
-70
-72
-74
-76
-79
-82
-85
-88
-91
-95
-99
-104
-110
-116
-121
-127
-134
-143
-153
-161
-167
-173
-179
-184
-188
-190
-190
-190
-189
-184
-177
-167
-156
-141
-125
-112
-124
-84
-70
-64
-58
-51
-44
-42
-40
-39
-38
-38
-38
-38
-38
-38
-38
-40
-42
-42
-42
-39
-39
-42
-44
-43
-42
-41
-40
-39
-36
-32
-30
-29
-27
-25
-24
-25
-25
-23
-22
-23
-23
-22
-23
-24
-24
-24
-24
-24
-25
-26
-27
-28
-28
-28
-32
-34
-32
-30
-29
-28
-28
-28
-28
-28
-29
-29
-27
-27
-31
-31
-29
-28
-28
-27
-25
-25
-27
-28
-28
-28
-27
-26
-24
-24
-24
-24
-24
-23
-22
-22
-22
-21
-20
-20
-20
-18
-14
-7
-1
2
5
9
12
12
16
24
32
40
43
41
40
40
45
52
55
57
49
38
29
21
10
-1
-9
-2
-22
-26
-28
-30
-32
-34
-34
-34
-35
-36
-35
-34
-34
-34
-33
-38
-55
-79
-112
-105
-51
9
74
139
204
269
334
399
464
438
373
307
242
176
111
45
-20
-43
-60
-61
-59
-61
-64
-62
-60
-60
-60
-61
-62
-62
-62
-63
-64
-65
-66
-66
-66
-68
-70
-70
-70
-72
-74
-74
-75
-77
-79
-82
-84
-85
-87
-89
-90
-91
-92
-93
-94
-95
-99
-103
-105
-107
-109
-112
-119
-126
-132
-138
-142
-147
-154
-161
-166
-170
-171
-172
-175
-178
-178
-176
-171
-165
-157
-146
-131
-117
-104
-91
-77
-67
-59
-52
-46
-42
-39
-35
-31
-28
-25
-26
-29
-30
-29
-28
-28
-30
-30
-31
-32
-30
-28
-29
-30
-29
-28
-26
-24
-22
-20
-20
-19
-16
-14
-13
-12
-12
-13
-15
-16
-15
-14
-15
-17
-19
-19
-17
-16
-16
-16
-17
-18
-18
-18
-19
-20
-20
-17
-14
-17
-20
-21
-22
-18
-14
-16
-18
-14
-11
-15
-17
-10
-6
-8
-9
-6
-4
-4
-4
-5
-5
-3
-2
-2
0
4
4
0
0
3
3
1
0
1
4
7
9
11
17
24
28
32
33
35
44
53
63
72
72
72
75
78
80
83
88
88
78
70
64
54
41
31
24
19
17
14
10
6
3
4
9
10
9
8
9
10
9
13
19
0
20
-63
-102
-53
-2
63
128
193
258
323
388
453
482
417
351
285
220
154
89
23
-17
-28
-31
-25
-22
-21
-21
-23
-26
-29
-29
-27
-27
-29
-30
-31
-32
-31
-31
-33
-34
-35
-38
-40
-41
-42
-41
-40
-43
-46
-48
-50
-52
-54
-52
-50
-54
-57
-60
-62
-61
-62
-68
-72
-73
-75
-78
-84
-91
-99
-109
-116
-122
-128
-134
-140
-146
-152
-157
-158
-159
-159
-157
-148
-138
-129
-119
-102
-85
-71
-56
-40
-24
-13
-3
3
8
11
14
15
16
16
16
15
14
17
18
17
16
16
16
16
16
15
14
14
17
21
22
22
23
25
27
29
31
30
33
32
32
32
34
36
36
36
35
34
34
34
32
30
31
31
28
26
26
26
29
30
31
31
28
26
25
25
27
28
27
26
26
26
25
25
27
27
25
23
21
24
28
26
24
25
26
28
30
27
24
25
26
26
26
25
24
25
26
24
22
22
23
26
31
37
41
43
44
44
48
54
63
73
76
77
78
79
83
87
91
95
84
70
67
64
50
37
28
20
15
10
8
5
1
-2
-2
-2
-4
-6
-6
-6
-8
-10
-7
-9
-15
-38
-74
-87
-84
-39
26
91
156
221
286
351
416
470
523
469
404
338
400
207
141
76
14
-17
-44
-46
-48
-49
-50
-50
-50
-50
-51
-54
-56
-55
-54
-55
-56
-59
-60
-59
-59
-62
-64
-64
-64
-65
-68
-71
-73
-75
-77
-79
-81
-83
-84
-83
-84
-87
-90
-92
-93
-94
-98
-102
-103
-104
-108
-113
-119
-125
-131
-138
-146
-154
-161
-166
-168
-171
-175
-178
-178
-177
-175
-169
-160
-149
-138
-125
-110
-97
-83
-71
-59
-51
-43
-37
-31
-27
-23
-22
-22
-22
-22
-24
-26
-26
-26
-27
-28
-28
-28
-29
-30
-30
-30
-30
-30
-30
-30
-30
-30
-30
-29
-26
-24
-25
-25
-23
-22
-23
-24
-24
-24
-25
-26
-27
-29
-31
-32
-32
-33
-32
-37
-38
-37
-36
-35
-34
-35
-36
-34
-32
-33
-34
-34
-34
-33
-32
-32
-32
-32
-32
-31
-30
-30
-30
-31
-31
-29
-28
-28
-29
-31
-31
-29
-28
-29
-30
-30
-30
-31
-32
-31
-30
-30
-32
-34
-34
-34
-33
-32
-30
-27
-22
-17
-12
-8
-4
-1
2
6
14
22
32
37
34
34
38
42
46
49
53
47
35
26
17
6
-4
-11
-17
-22
-27
-29
-31
-31
-28
-31
-34
-34
-34
-32
-30
-30
-30
-28
-31
-51
-75
-108
-110
-52
9
74
139
204
269
334
399
464
455
389
324
258
192
127
61
-4
-38
-61
-66
-66
-67
-69
-70
-69
-68
-68
-72
-74
-74
-74
-75
-76
-77
-78
-78
-78
-78
-79
-83
-86
-85
-84
-86
-88
-89
-90
-91
-93
-95
-96
-97
-99
-101
-103
-105
-107
-109
-110
-110
-113
-117
-121
-125
-128
-131
-137
-143
-147
-150
-154
-158
-165
-172
-173
-174
-176
-178
-174
-169
-164
-156
-143
-130
-116
-104
-91
-78
-64
-52
-44
-37
-29
-25
-23
-22
-22
-20
-17
-17
-19
-20
-20
-20
-19
-19
-21
-22
-21
-20
-22
-23
-24
-25
-26
-26
-26
-24
-22
-18
-14
-15
-15
-11
-9
-13
-17
-21
-23
-20
-18
-17
-16
-16
-17
-20
-21
-18
-16
-15
-16
-19
-18
-15
-14
-14
-14
-14
-15
-17
-13
-18
-8
-10
-8
-6
-8
-10
-3
2
0
-2
-1
0
-1
-1
2
4
6
8
6
4
4
5
7
9
12
12
8
6
6
9
14
16
17
18
17
18
21
24
27
34
41
41
40
46
53
68
82
81
80
81
82
86
90
93
94
86
78
69
60
50
40
30
22
18
16
17
18
18
18
17
17
19
20
20
20
21
22
21
8
-6
-50
-96
-59
-17
48
113
178
243
308
373
438
483
447
404
339
273
208
142
76
26
-1
-16
-15
-14
-13
-12
-11
-10
-9
-8
-9
-10
-11
-14
-17
-20
-23
-23
-21
-20
-20
-20
-21
-26
-22
-33
-34
-37
-40
-41
-42
-43
-44
-47
-50
-51
-52
-53
-54
-54
-55
-59
-63
-66
-69
-74
-80
-88
-96
-104
-111
-116
-124
-134
-141
-146
-150
-153
-155
-157
-156
-153
-146
-139
-126
-113
-98
-84
-63
-44
-31
-20
-12
-5
4
12
16
20
21
22
23
24
24
23
20
18
20
22
22
23
25
26
25
25
27
28
29
30
30
32
35
36
35
35
37
38
37
38
42
38
34
34
34
36
38
36
34
33
32
31
30
28
27
30
30
25
23
26
28
27
26
25
23
20
19
22
24
23
22
21
20
20
20
21
22
23
22
19
21
18
25
24
23
22
25
28
28
28
28
28
27
26
28
30
30
30
31
32
30
28
29
33
40
45
47
50
54
56
57
63
70
80
91
94
94
94
94
100
107
108
108
98
88
82
75
62
49
40
32
26
22
21
20
18
16
15
14
13
12
12
12
13
14
15
10
-1
-30
-72
-68
-36
18
83
148
213
278
343
408
473
447
406
342
277
211
145
80
17
-9
-32
-31
-30
-32
-34
-35
-36
-37
-38
-39
-40
-41
-42
-42
-42
-44
-46
-45
-46
-50
-52
-51
-53
-58
-60
-61
-63
-65
-69
-73
-74
-75
-79
-83
-84
-85
-86
-86
-91
-94
-97
-100
-103
-106
-108
-111
-117
-123
-129
-135
-140
-146
-154
-162
-168
-174
-179
-182
-185
-186
-186
-184
-178
-171
-162
-150
-136
-122
-108
-94
-79
-68
-58
-50
-41
-37
-33
-30
-27
-25
-24
-26
-28
-28
-28
-28
-28
-29
-30
-31
-32
-32
-32
-33
-34
-35
-36
-35
-34
-34
-34
-33
-32
-32
-32
-31
-30
-29
-28
-28
-28
-28
-28
-27
-27
-29
-30
-30
-30
-30
-30
-30
-30
-30
-31
-32
-31
-30
-31
-32
-32
-32
-32
-32
-30
-28
-29
-30
-31
-32
-32
-32
-31
-31
-33
-33
-31
-30
-31
-32
-32
-32
-31
-31
-33
-34
-33
-32
-31
-30
-30
-30
-30
-29
-30
-28
-26
-28
-30
-30
-30
-29
-28
-26
-23
-19
-16
-14
-11
-7
-4
-3
1
8
17
27
33
35
36
35
38
44
48
52
44
29
22
17
3
-14
-20
-25
-30
-35
-38
-40
-39
-38
-41
-44
-43
-42
-43
-44
-43
-42
-40
-43
-59
-82
-118
-122
-76
-21
44
109
174
239
304
369
434
417
351
285
220
154
89
23
-42
-60
-68
-70
-69
-70
-73
-74
-72
-72
-72
-73
-74
-75
-76
-78
-80
-82
-84
-84
-84
-86
-88
-88
-88
-87
-87
-90
-93
-96
-98
-98
-99
-102
-104
-105
-106
-105
-104
-105
-108
-111
-113
-115
-118
-121
-124
-127
-130
-128
-143
-152
-155
-158
-165
-172
-176
-180
-183
-186
-186
-186
-186
-185
-181
-175
-166
-154
-140
-127
-114
-102
-88
-77
-66
-59
-54
-49
-44
-40
-37
-36
-35
-35
-37
-38
-37
-37
-39
-38
-35
-39
-44
-42
-40
-40
-40
-38
-36
-36
-36
-35
-34
-34
-34
-34
-34
-33
-31
-28
-26
-26
-26
-26
-27
-29
-29
-26
-25
-27
-29
-31
-32
-32
-30
-27
-27
-29
-30
-30
-30
-31
-32
-34
-28
-22
-26
-30
-26
-22
-22
-22
-21
-20
-21
-22
-19
-16
-17
-18
-16
-15
-19
-20
-15
-12
-12
-12
-11
-10
-11
-11
-9
-8
-8
-8
-8
-8
-7
-5
-3
-3
-5
-4
-6
7
14
16
18
18
18
25
31
40
49
58
64
64
65
69
73
77
76
64
57
54
44
28
18
14
8
1
-2
-1
-2
-5
-6
-7
-6
-3
-3
-5
-6
-7
-5
-1
-2
-5
-46
-84
-93
-94
-29
36
101
166
231
296
361
426
491
510
444
379
313
248
182
117
51
7
-20
-33
-35
-37
-39
-40
-40
-40
-41
-44
-47
-48
-48
-48
-49
-50
-51
-52
-52
-56
-60
-60
-60
-63
-66
-68
-70
-70
-70
-73
-76
-76
-75
-72
-72
-77
-80
-81
-82
-83
-85
-88
-92
-96
-99
-101
-106
-112
-119
-128
-136
-144
-151
-158
-165
-171
-172
-173
-175
-174
-175
-172
-163
-153
-139
-124
-109
-94
-79
-66
-55
-44
-33
-23
-14
-8
-7
-6
-6
-6
-3
-2
-3
-4
-5
-5
-2
0
-1
-2
-2
-3
-5
-4
-1
0
0
3
7
7
5
6
8
8
8
8
8
8
8
6
4
5
6
4
3
8
11
7
4
4
4
2
1
3
4
4
4
3
2
3
3
1
0
1
4
7
7
5
4
4
4
4
4
2
2
2
4
6
6
6
5
4
5
6
3
0
2
4
3
2
4
6
4
2
2
2
1
0
0
0
1
1
-1
-1
1
1
-1
1
5
7
9
14
19
20
20
29
36
48
60
61
62
61
60
64
69
74
75
64
56
56
50
34
20
10
2
-3
-8
-12
-14
-14
-14
-15
-16
-17
-19
-21
-22
-21
-18
-15
-26
-42
-79
-119
-91
-57
8
73
138
203
268
333
398
448
425
392
327
261
196
130
64
7
-35
-59
-55
-52
-54
-56
-56
-56
-57
-58
-58
-58
-59
-60
-59
-58
-59
-61
-63
-64
-63
-63
-65
-68
-71
-74
-78
-79
-80
-82
-84
-86
-88
-88
-88
-90
-92
-94
-96
-97
-99
-102
-105
-108
-111
-114
-118
-125
-131
-138
-145
-151
-157
-162
-168
-175
-179
-181
-183
-185
-186
-187
-186
-183
-175
-167
-154
-166
-126
-112
-96
-82
-71
-61
-52
-44
-41
-37
-32
-28
-28
-28
-29
-30
-30
-30
-32
-34
-34
-35
-37
-38
-39
-41
-43
-42
-39
-38
-38
-38
-38
-37
-35
-33
-31
-30
-31
-32
-32
-31
-30
-30
-30
-31
-32
-31
-30
-32
-34
-34
-34
-34
-34
-33
-32
-33
-34
-34
-34
-32
-31
-34
-36
-35
-34
-34
-34
-35
-36
-35
-34
-35
-36
-35
-34
-34
-34
-34
-34
-35
-36
-36
-37
-38
-35
-32
-33
-34
-35
-36
-38
-40
-38
-36
-37
-38
-38
-38
-36
-35
-38
-40
-39
-38
-37
-38
-42
-44
-43
-38
-31
-25
-20
-16
-13
-13
-15
-8
3
13
23
23
24
20
20
31
42
39
35
24
13
5
-4
-15
-26
-33
-39
-43
-46
-46
-46
-48
-50
-47
-47
-50
-51
-48
-45
-43
-42
-42
-61
-89
-114
-139
-93
-28
37
102
167
232
297
362
428
489
424
358
293
227
162
96
31
-26
-51
-70
-73
-76
-78
-80
-78
-77
-81
-84
-83
-82
-82
-82
-82
-83
-85
-85
-83
-84
-87
-91
-95
-93
-89
-90
-93
-94
-95
-96
-96
-96
-96
-98
-100
-103
-106
-106
-106
-107
-108
-111
-114
-117
-121
-125
-129
-133
-138
-145
-152
-158
-165
-174
-180
-185
-191
-197
-200
-200
-199
-197
-189
-179
-166
-153
-139
-125
-108
-92
-78
-65
-55
-64
-37
-30
-28
-26
-24
-22
-22
-22
-20
-18
-20
-22
-22
-22
-24
-26
-25
-24
-24
-24
-21
-20
-20
-20
-20
-19
-16
-14
-13
-10
-7
-7
-9
-8
-5
-5
-7
-8
-8
-8
-7
-9
-12
-12
-12
-12
-12
-12
-12
-13
-14
-13
-12
-14
-16
-16
-16
-18
-20
-19
-18
-18
-18
-17
-16
-16
-17
-19
-19
-17
-16
-17
-19
-21
-19
-15
-15
-17
-18
-19
-20
-20
-20
-18
-20
-22
-20
-18
-18
-18
-19
-20
-19
-18
-19
-20
-21
-22
-23
-24
-23
-22
-21
-19
-14
-10
-5
-2
-1
2
6
10
14
24
35
39
41
42
41
41
43
51
59
49
60
33
30
15
2
-5
-12
-19
-24
-27
-30
-32
-34
-33
-32
-31
-30
-30
-30
-31
-32
-31
-34
-42
-71
-116
-121
-100
-50
15
80
145
210
275
340
405
389
356
294
229
163
98
32
-32
-54
-74
-77
-80
-78
-76
-80
-84
-83
-82
-84
-86
-86
-86
-88
-90
-92
-94
-94
-95
-97
-99
-102
-104
-105
-106
-107
-110
-114
-116
-115
-114
-113
-115
-119
-120
-121
-122
-123
-125
-128
-130
-132
-135
-138
-143
-148
-152
-157
-162
-168
-177
-185
-191
-198
-205
-212
-217
-220
-222
-224
-224
-222
-217
-209
-198
-187
-175
-160
-145
-131
-118
-106
-95
-86
-78
-73
-69
-67
-65
-64
-64
-64
-66
-64
-62
-64
-66
-66
-66
-66
-66
-66
-66
-66
-66
-64
-62
-61
-60
-58
-56
-56
-56
-56
-54
-50
-48
-49
-50
-51
-52
-51
-52
-55
-56
-56
-56
-57
-58
-58
-58
-58
-60
-62
-61
-60
-62
-64
-63
-62
-62
-62
-62
-62
-62
-62
-66
-68
-66
-64
-65
-66
-67
-68
-67
-66
-66
-66
-66
-66
-66
-66
-65
-64
-65
-66
-66
-65
-63
-62
-63
-64
-64
-64
-64
-63
-62
-63
-64
-63
-62
-63
-64
-62
-60
-62
-64
-64
-64
-62
-60
-59
-58
-57
-55
-50
-46
-42
-38
-34
-32
-31
-25
-17
-8
1
3
1
1
3
11
21
19
15
6
14
-13
-22
-34
-46
-52
-58
-65
-70
-70
-70
-71
-72
-71
-70
-70
-70
-69
-68
-66
-64
-67
-84
-116
-135
-146
-111
-46
19
84
149
214
279
344
409
474
430
365
299
234
168
103
37
-28
-61
-92
-94
-96
-97
-98
-98
-98
-98
-98
-101
-104
-102
-100
-102
-104
-103
-102
-103
-104
-104
-105
-108
-111
-113
-114
-115
-118
-121
-122
-122
-123
-125
-126
-127
-130
-133
-134
-133
-135
-140
-142
-144
-146
-148
-154
-160
-167
-173
-178
-183
-189
-195
-200
-205
-208
-212
-217
-220
-219
-218
-217
-213
-206
-197
-188
-175
-160
-146
-132
-119
-106
-94
-83
-76
-71
-69
-67
-63
-59
-59
-58
-61
-60
-60
-60
-62
-64
-64
-64
-63
-62
-61
-60
-57
-54
-54
-54
-54
-54
-54
-53
-50
-47
-45
-44
-45
-45
-43
-42
-41
-42
-46
-48
-47
-46
-45
-44
-45
-46
-47
-47
-45
-44
-44
-45
-46
-44
-42
-41
-40
-39
-38
-36
-34
-36
-38
-37
-36
-36
-36
-36
-36
-35
-34
-34
-33
-30
-28
-27
-26
-25
-26
-29
-30
-29
-28
-27
-25
-23
-20
-17
-16
-16
-16
-16
-16
-16
-14
-12
-14
-16
-13
-10
-9
-8
-5
0
7
13
18
22
23
25
28
36
49
57
60
63
65
67
69
76
85
86
81
76
70
60
50
40
29
21
13
12
12
11
12
11
10
10
10
8
6
8
10
12
14
13
3
-24
-53
-84
-75
-10
55
120
185
250
315
380
445
510
490
425
359
294
228
163
97
32
9
-6
-8
-7
-6
-7
-7
-6
-9
-12
-9
-6
-7
-8
-8
-8
-8
-8
-8
-8
-12
-14
-14
-14
-16
-18
-18
-18
-17
-17
-19
-20
-20
-23
-28
-30
-30
-32
-35
-36
-36
-36
-36
-41
-47
-53
-59
-60
-62
-71
-80
-87
-94
-100
-107
-114
-120
-124
-128
-128
-127
-122
-116
-107
-96
-81
-64
-46
-29
-12
4
19
32
43
50
54
62
71
74
74
74
74
77
81
81
79
78
78
80
78
84
84
84
84
87
90
94
98
99
100
105
108
107
107
111
114
113
112
113
114
114
114
114
114
114
114
113
112
111
110
111
111
109
108
107
109
113
114
113
112
111
111
112
110
108
108
108
109
110
111
112
111
110
111
112
114
116
114
112
114
116
116
115
113
113
116
118
118
119
121
122
121
120
121
122
123
124
123
122
122
122
123
124
122
122
122
123
124
130
137
144
150
152
154
155
159
169
180
192
199
196
194
196
201
208
212
212
206
195
185
176
164
150
139
129
123
117
114
111
110
109
108
109
109
110
108
110
108
106
108
107
81
54
17
3
68
133
198
263
328
393
458
523
588
593
527
462
396
331
265
200
134
96
72
64
64
62
59
57
55
54
54
54
53
52
52
51
50
46
42
42
42
39
36
35
34
33
32
30
27
23
20
19
18
16
14
12
10
9
6
2
0
-1
-4
-8
-12
-16
-21
-26
-32
-38
-44
-49
-57
-65
-73
-81
-83
-86
-92
-98
-97
-96
-95
-93
-86
-78
-67
-54
-37
-19
-2
15
30
44
57
66
72
78
83
85
83
84
88
90
89
88
88
86
83
82
81
79
77
76
76
76
76
76
76
78
78
78
78
78
78
79
80
81
82
80
78
77
76
76
75
72
70
70
70
67
66
66
65
63
61
59
60
63
62
59
59
61
61
59
59
61
62
61
60
61
62
62
62
62
61
60
61
62
61
60
61
62
60
58
59
60
60
60
59
58
59
60
60
59
57
56
57
58
58
56
52
53
57
58
57
56
55
54
55
56
57
61
66
70
74
78
82
83
85
95
105
113
120
118
116
117
121
130
134
127
118
108
96
83
72
62
53
42
36
32
30
29
28
27
26
25
24
25
27
29
27
23
22
22
-12
-48
-63
-70
-5
60
125
190
255
320
385
450
515
538
472
407
341
276
210
145
79
32
2
-12
-11
-11
-13
-14
-13
-15
-20
-22
-21
-20
-20
-20
-19
-22
-27
-27
-25
-27
-30
-31
-32
-32
-32
-33
-34
-37
-40
-44
-48
-46
-45
-49
-52
-54
-56
-56
-56
-58
-63
-69
-72
-73
-77
-83
-90
-97
-107
-117
-126
-134
-140
-146
-151
-155
-160
-165
-167
-169
-170
-172
-163
-154
-144
-133
-120
-105
-85
-66
-52
-40
-30
-20
-13
-6
1
6
7
8
9
9
6
5
8
10
9
8
9
10
9
8
7
6
7
9
11
12
13
16
19
20
20
23
24
24
24
21
18
23
28
28
27
21
16
19
22
20
18
19
20
20
20
19
17
14
13
15
15
12
10
9
8
9
10
9
8
8
9
11
11
9
10
13
13
12
13
14
14
14
13
12
12
12
11
10
10
10
9
8
9
10
11
12
10
8
9
10
11
11
9
8
9
10
10
13
18
20
21
22
22
24
27
37
47
56
66
69
72
69
66
72
78
75
71
64
56
44
33
22
12
3
-3
-6
-8
-10
-12
-15
-16
-17
-17
-15
-14
-15
-16
-15
-16
-21
-49
-85
-105
-121
-69
-4
61
126
191
130
322
387
452
505
440
374
309
243
178
112
47
-9
-38
-59
-63
-67
-70
-72
-70
-68
-71
-72
-73
-75
-77
-79
-81
-82
-81
-82
-85
-86
-86
-87
-89
-90
-91
-94
-97
-98
-97
-99
-102
-104
-106
-107
-108
-111
-114
-117
-120
-122
-124
-125
-126
-130
-134
-143
-148
-150
-156
-165
-173
-180
-188
-196
-204
-211
-215
-219
-220
-221
-222
-221
-215
-208
-197
-186
-169
-152
-135
-119
-107
-94
-86
-78
-71
-64
-58
-52
-53
-54
-53
-52
-53
-54
-55
-56
-56
-56
-57
-58
-58
-58
-61
-61
-59
-58
-58
-58
-57
-56
-55
-54
-53
-52
-52
-53
-55
-55
-53
-53
-55
-56
-56
-59
-60
-60
-60
-61
-62
-64
-66
-65
-64
-64
-64
-65
-66
-65
-64
-64
-64
-64
-64
-67
-68
-67
-66
-67
-68
-69
-70
-69
-68
-69
-70
-69
-68
-68
-68
-68
-68
-69
-69
-67
-67
-68
-69
-70
-68
-66
-69
-72
-69
-66
-68
-70
-70
-70
-71
-72
-71
-70
-69
-68
-68
-66
-62
-59
-56
-52
-48
-46
-45
-40
-32
-23
-13
-11
-13
-14
-13
-8
-3
2
7
-5
-20
-25
-30
-44
-56
-65
-72
-76
-80
-81
-82
-82
-82
-84
-85
-81
-79
-82
-84
-82
-80
-79
-89
-110
-137
-168
-140
-76
-11
54
119
184
249
314
379
444
398
333
267
202
136
198
5
-59
-85
-110
-111
-112
-113
-114
-113
-112
-114
-116
-117
-118
-118
-118
-118
-118
-119
-120
-123
-124
-124
-124
-125
-127
-130
-132
-133
-134
-133
-133
-135
-138
-141
-142
-142
-143
-145
-146
-146
-148
-150
-151
-152
-154
-156
-160
-164
-168
-173
-178
-183
-191
-197
-204
-209
-214
-219
-222
-224
-226
-227
-224
-220
-216
-210
-201
-191
-178
-165
-152
-139
-125
-114
-104
-97
-91
-88
-85
-81
-77
-77
-80
-81
-82
-81
-80
-79
-78
-79
-80
-80
-80
-81
-82
-80
-78
-80
-82
-81
-79
-76
-74
-74
-74
-74
-73
-71
-70
-71
-72
-71
-70
-69
-68
-68
-72
-77
-74
-69
-68
-69
-70
-70
-72
-74
-74
-74
-74
-74
-74
-74
-72
-70
-70
-70
-69
-68
-69
-70
-71
-71
-68
-66
-65
-64
-65
-66
-66
-66
-65
-64
-63
-62
-62
-60
-57
-56
-56
-56
-55
-54
-54
-54
-53
-52
-52
-51
-50
-50
-50
-49
-48
-46
-44
-43
-41
-37
-34
-30
-26
-17
-12
-12
-9
-1
8
17
22
23
24
23
26
33
35
33
25
15
7
0
-8
-16
-22
-27
-32
-37
-40
-44
-46
-48
-45
-42
-40
-38
-39
-39
-34
-30
-29
-34
-57
-84
-120
-117
-52
13
78
143
208
273
338
403
468
453
387
321
256
190
125
59
-6
-33
-51
-56
-59
-61
-63
-63
-64
-61
-62
-64
-66
-68
-70
-68
-66
-67
-68
-73
-76
-75
-74
-76
-78
-80
-82
-83
-85
-88
-90
-89
-90
-96
-98
-97
-96
-96
-98
-102
-104
-105
-107
-109
-115
-121
-119
-115
-123
-133
-138
-142
-147
-152
-159
-166
-174
-180
-182
-184
-186
-188
-186
-183
-178
-169
-155
-141
-126
-111
-93
-78
-66
-55
-45
-37
-31
-27
-25
-21
-16
-14
-15
-16
-16
-16
-16
-18
-21
-22
-21
-20
-22
-21
-20
-20
-20
-20
-20
-17
-14
-14
-14
-13
-11
-7
-5
-8
-9
-6
-4
-4
-4
-4
-4
-4
-4
-3
-2
-2
-2
-2
-2
-3
-4
-4
-3
-1
-1
-3
-3
-1
0
0
-2
-2
-3
-4
-3
-2
-1
0
-1
-2
-3
-4
-4
-4
-4
-4
-5
-5
-1
1
-2
-4
-4
-4
-5
-6
-6
-6
-5
-4
-3
-2
-3
-4
-4
-4
-4
-4
-5
-4
-1
2
4
11
18
17
16
18
21
29
38
47
54
54
54
53
54
60
64
65
61
49
40
36
28
15
4
-7
-15
-22
-24
-25
-26
-26
-26
-25
-24
-25
-26
-25
-24
-23
-22
-22
-44
-67
-96
-115
-50
15
80
145
210
275
340
405
470
491
425
360
294
229
163
98
32
-12
-37
-48
-48
-49
-52
-54
-53
-53
-55
-56
-56
-56
-57
-61
-65
-65
-63
-64
-62
-69
-70
-72
-74
-75
-76
-78
-80
-79
-78
-83
-86
-89
-92
-94
-96
-98
-100
-99
-99
-102
-105
-107
-109
-112
-117
-122
-127
-132
-137
-142
-148
-154
-160
-167
-174
-183
-184
-184
-185
-187
-186
-184
-180
-176
-165
-155
-142
-128
-112
-97
-83
-70
-62
-55
-50
-44
-37
-32
-32
-33
-36
-38
-37
-37
-39
-40
-41
-42
-42
-42
-43
-43
-41
-42
-45
-44
-41
-40
-41
-42
-42
-41
-38
-37
-36
-36
-36
-35
-34
-34
-34
-36
-38
-38
-38
-40
-41
-38
-36
-38
-40
-41
-42
-42
-42
-42
-42
-42
-42
-43
-44
-44
-44
-44
-44
-43
-42
-41
-40
-41
-42
-41
-40
-40
-40
-40
-41
-42
-41
-40
-41
-42
-41
-40
-41
-42
-41
-40
-41
-42
-42
-42
-42
-42
-43
-44
-43
-42
-41
-41
-43
-44
-44
-44
-45
-46
-46
-46
-45
-44
-44
-44
-44
-39
-33
-28
-24
-24
-24
-20
-15
-6
2
5
8
8
8
11
16
26
28
17
8
3
-6
-19
-30
-38
-45
-53
-57
-59
-60
-61
-62
-62
-62
-63
-62
-59
-57
-55
-54
-53
-57
-63
-99
-136
-126
-112
-47
18
83
148
213
278
343
408
473
500
435
369
303
238
172
107
41
-11
-50
-68
-69
-70
-71
-73
-76
-78
-78
-78
-77
-78
-81
-82
-82
-82
-82
-82
-82
-82
-82
-87
-90
-91
-92
-93
-94
-98
-102
-101
-100
-102
-104
-107
-110
-111
-113
-116
-118
-119
-120
-121
-124
-128
-132
-136
-141
-146
-152
-158
-164
-170
-175
-179
-183
-187
-190
-193
-194
-194
-193
-191
-184
-178
-166
-154
-141
-129
-114
-100
-87
-75
-69
-62
-54
-48
-46
-44
-42
-40
-40
-40
-40
-40
-39
-38
-39
-40
-40
-40
-40
-40
-39
-38
-38
-38
-37
-36
-35
-34
-33
-31
-29
-28
-28
-28
-28
-29
-30
-28
-26
-26
-26
-27
-28
-31
-34
-35
-36
-35
-34
-33
-32
-32
-32
-35
-36
-37
-37
-35
-34
-33
-32
-32
-33
-35
-36
-35
-32
-29
-29
-31
-32
-31
-30
-30
-29
-28
-29
-30
-28
-26
-26
-26
-28
-30
-25
-22
-21
-20
-21
-22
-23
-24
-24
-24
-25
-26
-25
-25
-28
-29
-26
-24
-24
-24
-24
-24
-25
-26
-25
-23
-21
-15
-9
-5
-1
-2
-4
2
8
17
26
31
36
38
40
41
44
52
55
44
35
31
24
14
5
-3
-10
-14
-17
-20
-22
-22
-22
-22
-21
-19
-17
-15
-16
-19
-14
-6
-13
-25
-64
-106
-92
-73
-8
57
122
187
252
317
382
436
451
446
381
315
250
184
118
54
-8
-43
-39
-37
-42
-44
-44
-44
-45
-46
-46
-46
-46
-47
-49
-50
-49
-50
-53
-54
-53
-52
-53
-54
-54
-59
-62
-63
-64
-65
-66
-67
-68
-70
-72
-69
-67
-71
-75
-79
-82
-82
-82
-83
-85
-90
-94
-98
-104
-111
-118
-127
-134
-141
-149
-156
-161
-165
-167
-169
-170
-169
-167
-165
-155
-145
-133
-122
-106
-89
-75
-61
-49
-37
-31
-25
-19
-13
-9
-6
-5
-4
-4
-4
-6
-8
-6
-5
-7
-7
-5
-5
-7
-7
-5
-2
1
2
2
4
7
8
8
9
11
11
9
9
12
11
10
11
12
12
12
11
10
8
6
6
6
7
8
6
4
2
0
1
2
5
5
3
2
2
2
1
0
1
2
3
4
3
3
5
5
3
2
1
0
0
1
4
2
0
1
2
1
0
0
0
1
2
1
0
2
3
0
-1
3
5
2
0
-1
-1
2
3
1
0
1
1
-1
-1
1
4
7
11
15
17
19
19
17
27
38
46
54
55
56
55
55
61
66
70
71
59
50
50
45
28
16
8
2
-4
-9
-12
-13
-11
-10
-9
-8
-8
-8
-8
-8
-7
-6
-7
-15
-24
-61
-102
-75
-42
22
88
153
218
283
348
413
465
442
411
346
280
215
149
84
27
-13
-38
-40
-42
-42
-43
-46
-47
-44
-43
-46
-48
-47
-46
-46
-48
-51
-52
-52
-52
-53
-55
-57
-58
-57
-58
-56
-65
-68
-68
-68
-71
-74
-76
-78
-79
-80
-81
-82
-84
-86
-86
-87
-91
-95
-99
-104
-109
-114
-118
-124
-131
-136
-140
-146
-152
-156
-160
-164
-167
-170
-173
-169
-163
-159
-155
-143
-131
-115
-100
-87
-74
-61
-50
-44
-37
-31
-26
-23
-20
-20
-20
-20
-20
-21
-22
-22
-22
-21
-21
-23
-24
-25
-26
-25
-24
-23
-22
-23
-24
-23
-22
-22
-20
-17
-16
-16
-16
-15
-14
-14
-15
-16
-17
-18
-20
-22
-22
-22
-22
-22
-22
-22
-24
-26
-26
-26
-26
-26
-26
-26
-27
-28
-29
-30
-29
-28
-29
-29
-27
-26
-27
-28
-28
-28
-27
-26
-27
-28
-27
-27
-26
-30
-30
-31
-32
-32
-32
-32
-32
-30
-28
-29
-30
-31
-32
-32
-32
-32
-32
-34
-36
-35
-34
-34
-34
-33
-32
-33
-32
-29
-28
-29
-27
-22
-18
-15
-12
-9
-5
-1
0
1
12
22
29
36
37
38
40
43
50
55
47
39
33
26
19
11
1
-8
-14
-18
-20
-22
-22
-22
-21
-20
-20
-20
-20
-20
-20
-20
-20
-20
-21
-42
-66
-88
-110
-53
12
77
143
208
273
338
403
468
513
448
382
317
251
186
120
55
1
-28
-47
-51
-54
-53
-54
-59
-62
-63
-63
-60
-58
-59
-60
-59
-59
-61
-62
-63
-66
-69
-70
-71
-72
-73
-74
-74
-78
-80
-81
-82
-84
-86
-90
-94
-95
-96
-95
-95
-99
-102
-100
-100
-106
-110
-112
-115
-120
-124
-129
-136
-143
-150
-157
-163
-168
-174
-180
-181
-179
-178
-177
-170
-163
-155
-147
-133
-119
-101
-84
-72
-60
-52
-43
-35
-28
-24
-19
-14
-10
-10
-10
-9
-8
-10
-12
-13
-14
-15
-15
-13
-13
-15
-15
-13
-12
-11
-10
-10
-9
-7
-6
-5
-1
3
4
3
2
3
2
-2
0
2
4
6
5
4
3
2
1
0
-2
-4
-3
-2
-2
-2
-2
-2
-1
0
-1
-3
-5
-5
-3
-3
-5
-4
-1
0
0
0
-1
-2
-3
-4
-4
-4
-4
-4
-4
-3
0
0
0
-2
-4
-4
-4
-4
-4
-4
-4
-5
-6
-6
-6
-4
-2
-2
-2
-2
-2
-3
-4
-4
-4
-4
-4
-3
-2
-2
0
3
4
5
9
13
17
21
22
22
29
36
47
58
58
58
57
56
62
66
68
67
52
41
37
30
19
9
1
-5
-9
-12
-13
-14
-15
-16
-17
-18
-17
-15
-13
-12
-12
-16
-21
-42
-66
-90
-114
-57
8
73
139
204
269
334
399
464
509
444
378
313
247
182
116
51
-3
-32
-51
-54
-56
-57
-58
-61
-62
-63
-64
-65
-66
-66
-67
-69
-70
-71
-73
-75
-76
-77
-79
-81
-84
-87
-88
-88
-89
-92
-91
-90
-95
-100
-101
-102
-104
-106
-108
-110
-111
-113
-117
-120
-120
-122
-127
-132
-139
-144
-148
-155
-164
-171
-177
-183
-188
-192
-196
-199
-201
-201
-199
-196
-193
-182
-171
-157
-143
-128
-114
-102
-90
-82
-74
-66
-60
-56
-52
-51
-50
-51
-52
-52
-52
-53
-54
-54
-54
-54
-54
-55
-56
-56
-56
-56
-55
-51
-50
-49
-45
-41
-39
-37
-36
-36
-36
-36
-36
-35
-34
-34
-34
-34
-34
-34
-35
-36
-36
-36
-37
-38
-41
-44
-42
-40
-40
-40
-41
-42
-43
-44
-43
-42
-43
-44
-45
-46
-45
-44
-45
-44
-41
-42
-45
-46
-45
-44
-44
-45
-47
-46
-48
-43
-44
-42
-40
-40
-40
-41
-42
-41
-40
-40
-40
-41
-42
-43
-44
-42
-40
-41
-42
-45
-45
-43
-42
-43
-44
-45
-46
-45
-44
-45
-46
-46
-46
-46
-44
-41
-36
-31
-28
-25
-26
-28
-20
-12
0
10
10
10
11
13
18
23
27
27
16
7
2
-7
-20
-30
-35
-40
-45
-48
-49
-51
-53
-53
-51
-50
-51
-52
-52
-51
-49
-48
-49
-70
-94
-120
-147
-86
-20
45
110
175
240
305
370
435
474
409
343
278
212
147
81
15
-35
-61
-76
-76
-77
-80
-82
-81
-81
-83
-84
-84
-84
-84
-84
-84
-85
-87
-88
-88
-88
-89
-91
-93
-95
-94
-98
-98
-100
-102
-104
-106
-107
-108
-110
-112
-112
-112
-113
-114
-115
-116
-117
-119
-123
-126
-127
-131
-137
-142
-146
-151
-157
-162
-166
-173
-180
-185
-189
-189
-187
-187
-189
-190
-190
-183
-175
-162
-150
-138
-125
-111
-97
-86
-75
-69
-62
-53
-46
-47
-47
-42
-39
-42
-44
-43
-42
-42
-42
-42
-43
-45
-45
-43
-42
-43
-42
-38
-39
-43
-41
-37
-34
-31
-28
-25
-24
-25
-25
-22
-23
-24
-23
-22
-24
-26
-21
-16
-16
-17
-21
-24
-24
-24
-24
-23
-20
-18
-20
-22
-21
-20
-21
-22
-23
-22
-18
-18
-21
-20
-15
-14
-14
-14
-15
-14
-11
-10
-11
-12
-12
-11
-8
-7
-6
-9
-12
-11
-10
-11
-12
-11
-10
-7
-4
-4
-4
-5
-6
-7
-8
-7
-5
-3
-2
-3
-3
-1
2
6
10
14
17
19
24
29
35
41
50
59
60
60
64
68
69
70
75
79
70
62
60
55
40
26
17
10
9
7
3
0
0
0
1
3
5
4
0
1
6
7
3
-6
-18
-55
-100
-78
-36
25
90
155
220
285
350
415
479
414
348
283
217
152
86
21
-32
-32
-32
-29
-26
-29
-32
-32
-34
-39
-40
-34
-31
-36
-39
-41
-42
-41
-40
-40
-42
-45
-46
-46
-48
-51
-53
-55
-56
-55
-54
-55
-58
-56
-65
-68
-69
-70
-71
-72
-74
-76
-77
-78
-81
-85
-90
-94
-95
-99
-110
-119
-126
-133
-140
-147
-153
-157
-160
-163
-165
-166
-165
-159
-152
-142
-131
-118
-105
-88
-70
-57
-43
-32
-21
-15
-10
-5
0
3
6
6
6
6
6
3
0
2
4
3
2
3
4
5
6
7
8
7
9
15
18
18
17
13
16
24
24
21
20
21
22
21
18
15
18
23
22
18
15
12
14
16
13
10
10
10
9
8
8
8
9
10
9
8
8
8
6
5
8
10
11
8
1
1
7
10
9
9
11
12
11
10
9
8
8
8
8
8
8
7
4
8
12
10
8
10
12
11
10
13
16
17
18
16
17
25
31
35
39
44
47
49
53
59
68
80
84
83
82
82
85
90
92
93
84
72
63
55
43
31
26
22
9
-4
4
12
6
0
0
0
-1
-2
-1
0
0
0
2
-5
-29
-56
-89
-74
-9
56
121
186
251
316
381
446
511
481
416
350
285
219
154
88
23
-8
-35
-35
-32
-35
-38
-39
-40
-41
-42
-38
-34
-34
-35
-39
-42
-40
-39
-42
-44
-45
-46
-47
-49
-54
-55
-52
-51
-53
-56
-60
-63
-65
-68
-71
-72
-71
-72
-75
-80
-85
-87
-89
-91
-90
-98
-102
-105
-108
-116
-124
-131
-136
-140
-145
-152
-158
-160
-164
-171
-174
-168
-163
-159
-152
-143
-132
-118
-104
-88
-75
-63
-51
-40
-31
-23
-17
-13
-12
-11
-10
-11
-12
-11
-7
-3
-7
-12
-11
-10
-11
-12
-13
-14
-13
-12
-12
-12
-12
-12
-10
-8
-10
-12
-11
-10
-8
-7
-9
-10
-9
-8
-9
-11
-15
-16
-16
-15
-13
-13
-15
-17
-19
-20
-19
-19
-21
-18
-12
-15
-18
-19
-20
-18
-16
-16
-16
-13
-10
-12
-14
-14
-14
-12
-10
-10
-10
-9
-8
-11
-11
-9
-8
-9
-9
-6
-4
-5
-5
-3
-4
-7
-7
-5
-3
-1
-1
-3
-4
-4
-4
-2
0
2
3
4
9
14
15
17
24
30
28
28
36
45
54
61
65
69
74
78
83
86
87
81
69
59
51
43
35
26
16
12
9
5
1
0
1
1
-1
1
4
8
12
9
6
10
11
-10
-33
-69
-85
-41
10
75
140
205
270
335
400
465
469
411
349
283
218
152
87
21
-8
-20
-22
-19
-19
-21
-23
-25
-26
-26
-26
-26
-26
-26
-26
-26
-26
-26
-27
-28
-30
-32
-31
-31
-35
-38
-35
-32
-33
-35
-38
-40
-42
-45
-48
-50
-49
-49
-51
-51
-49
-52
-58
-60
-59
-61
-67
-69
-71
-80
-91
-98
-105
-111
-106
-127
-136
-137
-138
-139
-140
-137
-133
-127
-121
-114
-104
-88
-72
-60
-46
-27
-12
0
10
21
26
25
26
30
32
33
34
33
34
37
38
38
39
41
38
33
32
33
34
34
43
52
49
46
48
50
56
62
59
56
58
60
61
62
62
62
62
62
62
63
67
69
66
64
63
62
63
64
63
60
56
57
61
61
59
57
55
54
55
57
59
60
58
58
58
58
58
57
56
58
60
58
56
54
53
57
60
59
58
57
56
55
54
57
58
57
56
56
59
65
69
71
73
75
77
79
89
100
106
111
113
115
117
116
124
128
125
122
114
105
92
81
70
61
52
44
37
32
33
34
32
30
31
31
26
26
30
32
32
32
32
20
0
-32
-70
-33
31
95
160
225
290
355
420
485
550
488
422
357
291
226
160
95
36
13
-6
-9
-12
-11
-10
-10
-10
-10
-10
-12
-14
-15
-17
-19
-20
-21
-22
-22
-22
-22
-25
-30
-32
-33
-34
-35
-39
-43
-44
-43
-44
-47
-50
-54
-57
-60
-62
-64
-65
-66
-69
-72
-74
-77
-81
-85
-90
-96
-102
-108
-114
-122
-132
-139
-144
-148
-153
-156
-156
-156
-155
-152
-148
-139
-129
-115
-99
-85
-71
-57
-44
-35
-27
-19
-26
-8
-6
-3
0
-1
-2
-6
-10
-6
-2
-4
-6
-7
-8
-9
-10
-9
-8
-8
-8
-8
-7
-5
-4
-4
-4
-3
-2
-1
0
-1
-2
-3
-4
-3
-3
-5
-6
-7
-8
-9
-11
-12
-14
-16
-17
-18
-16
-14
-17
-20
-20
-20
-21
-22
-22
-22
-23
-24
-23
-22
-24
-26
-27
-28
-27
-26
-26
-26
-26
-27
-29
-30
-30
-28
-25
-26
-29
-29
-27
-26
-27
-28
-28
-28
-28
-29
-30
-28
-25
-18
-12
-9
-6
-6
-5
-1
4
13
20
26
30
30
30
33
38
46
46
39
33
28
18
4
-7
-17
-23
-29
-34
-41
-42
-41
-40
-40
-40
-40
-42
-42
-40
-38
-38
-38
-41
-50
-87
-116
-118
-102
-37
28
93
158
223
288
353
418
483
482
416
351
285
220
154
88
23
-26
-69
-80
-81
-83
-85
-86
-86
-88
-91
-91
-89
-90
-92
-91
-90
-93
-96
-95
-94
-95
-96
-97
-98
-101
-104
-104
-104
-105
-107
-110
-112
-114
-116
-117
-118
-117
-116
-116
-116
-117
-120
-124
-126
-127
-130
-133
-137
-141
-142
-143
-150
-157
-164
-172
-176
-180
-181
-182
-182
-182
-181
-179
-172
-164
-152
-141
-127
-114
-99
-87
-79
-70
-61
-54
-49
-44
-40
-38
-37
-37
-39
-40
-39
-37
-35
-34
-35
-36
-37
-38
-39
-40
-41
-42
-42
-42
-42
-39
-36
-33
-30
-30
-30
-30
-30
-30
-30
-31
-32
-30
-28
-28
-28
-30
-32
-29
-28
-28
-28
-28
-27
-24
-26
-32
-32
-28
-26
-27
-27
-25
-24
-23
-22
-22
-22
-23
-25
-26
-22
-18
-18
-18
-20
-22
-19
-16
-16
-16
-15
-14
-14
-14
-15
-16
-17
-17
-13
-10
-11
-11
-8
-4
0
6
13
14
10
11
15
20
26
35
44
51
57
59
61
65
70
76
82
77
72
66
58
45
33
25
16
7
0
1
1
-4
-8
-8
-7
-3
-3
-12
-13
-6
-3
-6
-8
-7
-23
-50
-77
-103
-61
4
69
134
199
264
329
394
459
398
460
394
329
263
198
132
67
9
-16
-36
-35
-34
-33
-32
-30
-28
-30
-32
-33
-34
-34
-36
-40
-42
-42
-41
-39
-40
-43
-44
-43
-44
-47
-48
-49
-51
-53
-56
-59
-60
-61
-61
-60
-63
-66
-69
-72
-69
-66
-69
-73
-78
-82
-84
-87
-92
-97
-102
-109
-118
-127
-134
-139
-142
-146
-150
-152
-152
-152
-151
-147
-142
-129
-114
-98
-81
-66
-50
-39
-27
-15
-3
1
6
9
12
10
8
11
14
12
10
8
6
7
8
8
8
8
8
7
6
7
8
8
9
11
11
9
9
12
14
14
13
11
10
11
11
9
8
7
6
5
4
4
4
6
4
2
2
2
-1
-4
-3
-2
-2
-2
-3
-4
-3
-2
-1
0
0
0
0
0
1
2
3
5
7
8
7
6
7
8
8
8
8
8
9
10
10
10
10
11
12
13
14
17
20
24
28
32
36
35
35
43
50
60
66
68
70
68
68
74
80
84
79
66
59
56
43
24
13
5
-2
-8
-13
-17
-20
-23
-26
-29
-30
-31
-32
-34
-34
-34
-33
-32
-41
-53
-89
-118
-115
-96
-31
34
99
164
229
294
359
424
489
492
426
361
295
230
164
99
33
-21
-70
-86
-91
-92
-93
-94
-95
-97
-99
-100
-100
-101
-100
-102
-100
-103
-106
-106
-106
-108
-110
-112
-114
-115
-116
-116
-116
-116
-117
-120
-122
-121
-120
-121
-123
-126
-128
-127
-126
-126
-127
-129
-131
-133
-136
-139
-144
-149
-154
-159
-165
-171
-174
-177
-183
-188
-190
-192
-192
-192
-190
-187
-179
-171
-163
-153
-140
-126
-110
-97
-87
-78
-72
-67
-63
-59
-57
-56
-56
-56
-55
-55
-57
-58
-58
-58
-58
-58
-59
-61
-63
-64
-64
-64
-64
-64
-64
-64
-64
-62
-60
-59
-58
-57
-56
-57
-58
-56
-54
-54
-54
-53
-52
-54
-56
-55
-54
-55
-56
-56
-56
-56
-56
-56
-56
-55
-54
-53
-52
-52
-52
-53
-54
-53
-53
-55
-56
-56
-52
-50
-52
-54
-53
-52
-52
-52
-53
-54
-54
-54
-54
-54
-55
-56
-55
-54
-54
-54
-55
-56
-56
-56
-56
-56
-55
-53
-51
-48
-44
-39
-34
-32
-31
-28
-25
-17
-9
-1
7
6
4
8
12
18
23
15
8
6
1
-13
-26
-35
-43
-47
-51
-54
-56
-56
-57
-61
-63
-61
-61
-63
-63
-60
-57
-53
-52
-53
-73
-100
-120
-138
-89
-24
41
106
171
236
301
367
432
489
424
358
293
227
162
96
31
-26
-58
-80
-82
-84
-83
-83
-86
-88
-87
-86
-83
-82
-82
-82
-83
-84
-84
-84
-83
-83
-85
-86
-85
-85
-87
-89
-91
-96
-101
-101
-102
-97
-96
-99
-102
-101
-100
-103
-106
-106
-106
-107
-108
-111
-115
-118
-122
-128
-132
-131
-134
-145
-151
-153
-156
-162
-164
-163
-162
-161
-161
-163
-160
-154
-144
-134
-120
-106
-90
-74
-64
-55
-43
-32
-28
-24
-17
-10
-9
-8
-7
-6
-9
-12
-12
-12
-12
-12
-13
-14
-16
-17
-14
-13
-15
-15
-13
-12
-13
-14
-13
-9
-4
-2
-3
-4
-3
-2
-2
-2
-3
-5
-7
-6
-2
-1
0
-1
-2
-4
-6
-4
-2
-1
0
-3
-6
-8
-10
-8
-6
-8
-9
-6
-4
-1
0
-1
-2
-3
-5
-7
-6
-2
-1
-3
-3
-1
1
3
4
3
2
2
3
2
4
2
10
18
15
12
12
12
18
22
25
29
34
38
38
42
56
67
75
80
83
86
90
92
92
93
95
89
78
72
69
62
52
42
30
25
21
19
17
15
13
12
12
14
16
17
18
20
22
23
21
3
-20
-57
-71
-27
25
90
155
220
285
350
415
480
475
409
344
278
213
147
81
16
-8
-17
-20
-19
-19
-21
-22
-21
-20
-21
-22
-22
-25
-28
-28
-28
-29
-30
-34
-38
-37
-36
-38
-40
-42
-44
-46
-48
-49
-50
-51
-53
-56
-59
-62
-64
-64
-65
-67
-70
-74
-76
-75
-74
-75
-81
-88
-94
-99
-104
-109
-117
-110
-132
-138
-143
-148
-151
-154
-155
-156
-156
-155
-150
-143
-129
-116
-103
-90
-76
-63
-50
-38
-27
-20
-15
-10
-6
-4
-4
-4
-4
-5
-7
-8
-9
-10
-10
-9
-7
-6
-7
-8
-7
-6
-6
-5
-4
-3
-2
-1
0
1
2
2
2
1
0
-1
-2
-1
0
0
0
-2
-5
-7
-8
-8
-8
-8
-9
-13
-14
-15
-16
-15
-14
-15
-16
-17
-18
-18
-18
-17
-17
-20
-20
-20
-19
-18
-19
-20
-19
-18
-19
-20
-19
-18
-19
-20
-19
-18
-19
-20
-20
-20
-19
-19
-21
-22
-23
-24
-23
-22
-22
-22
-22
-20
-17
-12
-7
-5
-3
-2
-1
5
0
21
30
31
32
31
31
38
44
47
48
38
29
24
15
0
-13
-21
-27
-31
-34
-37
-38
-39
-40
-40
-41
-44
-46
-45
-44
-44
-41
-37
-43
-52
-86
-125
-112
-92
-30
35
101
166
231
296
361
425
485
525
460
394
329
263
198
132
66
7
-42
-72
-72
-72
-74
-76
-77
-78
-78
-79
-81
-82
-81
-82
-85
-86
-85
-86
-89
-89
-87
-88
-91
-92
-93
-95
-98
-99
-100
-102
-104
-107
-110
-111
-112
-111
-110
-113
-116
-118
-121
-124
-126
-128
-131
-135
-140
-145
-149
-152
-157
-163
-169
-174
-177
-179
-181
-183
-184
-184
-181
-177
-170
-163
-152
-141
-129
-140
-104
-92
-82
-72
-65
-58
-54
-50
-49
-48
-47
-46
-47
-48
-48
-48
-48
-48
-48
-48
-47
-46
-47
-48
-49
-51
-53
-51
-46
-45
-47
-48
-47
-46
-45
-44
-45
-46
-46
-46
-47
-47
-46
-47
-48
-48
-48
-49
-50
-51
-52
-52
-52
-54
-56
-54
-52
-53
-54
-54
-54
-53
-52
-51
-51
-53
-54
-54
-54
-53
-52
-52
-53
-55
-56
-55
-54
-53
-52
-52
-52
-53
-54
-56
-55
-54
-52
-50
-51
-52
-51
-50
-51
-52
-52
-52
-50
-48
-49
-50
-49
-45
-38
-32
-25
-23
-25
-21
-10
-2
5
10
14
16
17
21
25
31
38
30
18
16
16
1
16
-20
-24
-30
-36
-37
-38
-39
-40
-40
-40
-39
-38
-36
-34
-34
-34
-32
-31
-35
-55
-93
-110
-106
-68
-3
62
127
192
257
322
387
452
517
479
414
348
283
217
152
86
21
-16
-52
-55
-58
-58
-58
-59
-60
-58
-56
-57
-58
-59
-60
-61
-62
-64
-66
-67
-68
-68
-68
-67
-67
-70
-73
-75
-76
-77
-80
-83
-84
-85
-87
-89
-90
-89
-91
-95
-96
-96
-97
-100
-103
-106
-110
-114
-119
-124
-131
-137
-144
-150
-153
-156
-159
-163
-166
-168
-168
-167
-164
-159
-150
-142
-134
-119
-100
-85
-73
-61
-50
-39
-29
-23
-19
-15
-11
-10
-10
-10
-10
-8
-10
-8
-12
-12
-12
-11
-10
-11
-12
-13
-14
-12
-10
-8
-6
-6
-6
-5
-4
-3
-1
4
6
6
6
6
7
9
10
9
5
0
3
10
12
12
11
9
8
8
9
11
14
16
12
8
10
12
13
14
16
18
18
18
16
14
15
16
17
18
16
15
19
22
21
21
24
25
22
21
25
26
26
26
26
26
27
28
29
32
35
35
33
34
38
38
38
44
50
53
56
57
59
67
76
86
95
99
101
98
98
103
107
110
108
97
89
83
74
63
52
42
33
25
22
21
19
17
16
15
12
9
10
13
13
14
14
18
1
-17
-57
-87
-49
-6
59
124
189
254
319
384
449
475
433
381
315
250
184
119
53
7
-25
-37
-34
-32
-33
-34
-35
-38
-41
-42
-42
-43
-45
-46
-46
-46
-45
-46
-48
-49
-50
-52
-54
-56
-58
-59
-60
-62
-64
-64
-64
-64
-64
-65
-66
-67
-69
-72
-75
-77
-78
-77
-77
-80
-83
-87
-90
-93
-99
-106
-112
-117
-124
-132
-139
-145
-149
-153
-156
-160
-159
-158
-155
-151
-140
-129
-119
-107
-92
-78
-66
-55
-45
-36
-30
-25
-22
-20
-18
-16
-17
-18
-19
-20
-21
-22
-23
-24
-23
-22
-23
-24
-25
-26
-26
-26
-25
-24
-23
-21
-22
-18
-18
-18
-18
-18
-18
-18
-18
-18
-18
-17
-16
-17
-18
-19
-20
-20
-20
-22
-24
-23
-22
-23
-24
-23
-22
-22
-22
-21
-22
-25
-24
-21
-22
-25
-26
-25
-24
-25
-26
-25
-26
-28
-28
-28
-27
-26
-26
-26
-27
-28
-27
-26
-28
-30
-29
-28
-27
-26
-26
-26
-27
-28
-28
-28
-29
-30
-30
-30
-29
-28
-29
-30
-30
-30
-30
-28
-25
-20
-15
-10
-5
-4
-6
-1
4
15
26
25
24
25
27
33
39
45
47
33
23
18
9
-5
-17
-25
-31
-36
-38
-38
-38
-39
-40
-39
-39
-41
-41
-39
-38
-38
-37
-35
-39
-45
-82
-122
-112
-124
-33
32
97
162
227
292
357
421
485
519
454
388
323
257
191
126
60
2
-47
-74
-75
-77
-79
-80
-80
-80
-79
-79
-81
-82
-82
-82
-83
-84
-84
-85
-87
-88
-88
-90
-93
-94
-94
-95
-96
-97
-98
-100
-102
-104
-106
-107
-108
-110
-112
-113
-115
-118
-120
-119
-118
-120
-124
-129
-134
-138
-143
-148
-151
-155
-160
-166
-171
-175
-176
-177
-177
-175
-172
-169
-163
-157
-144
-130
-119
-108
-95
-83
-73
-64
-57
-51
-46
-41
-37
-34
-33
-32
-32
-32
-34
-36
-36
-36
-37
-38
-38
-38
-39
-40
-40
-40
-40
-40
-41
-42
-42
-39
-35
-36
-39
-40
-39
-36
-38
-33
-34
-36
-38
-38
-38
-37
-36
-38
-40
-40
-40
-39
-38
-40
-42
-41
-40
-38
-36
-36
-36
-36
-35
-32
-30
-31
-32
-33
-34
-33
-34
-37
-34
-29
-28
-28
-28
-27
-26
-25
-23
-22
-23
-24
-23
-22
-21
-20
-22
-24
-22
-20
-20
-20
-18
-16
-15
-14
-15
-16
-16
-16
-17
-16
-11
-5
1
7
12
14
13
16
22
31
40
45
49
50
50
53
57
58
58
49
40
32
23
14
6
1
-5
-10
-13
-9
-6
-7
-8
-9
-10
-9
-8
-8
-7
-4
-1
2
-7
-28
-59
-97
-68
-4
60
125
190
255
320
385
450
515
463
398
332
394
201
135
70
8
-13
-32
-34
-36
-39
-42
-41
-40
-40
-41
-44
-46
-48
-50
-49
-50
-55
-57
-54
-52
-53
-55
-57
-60
-64
-68
-71
-71
-69
-71
-75
-78
-81
-81
-79
-77
-75
-78
-82
-84
-86
-90
-94
-90
-87
-95
-102
-106
-111
-117
-123
-127
-131
-136
-142
-147
-150
-152
-154
-155
-155
-152
-146
-139
-130
-120
-105
-89
-75
-61
-47
-33
-25
-19
-10
-1
1
3
4
6
6
6
7
8
5
2
2
2
1
0
-1
-2
0
2
4
6
7
8
9
10
10
10
9
8
9
10
10
9
7
8
11
10
7
6
7
7
5
5
7
8
8
4
2
4
6
4
2
2
2
3
4
3
2
2
2
1
0
-1
-2
-1
0
-1
-2
-1
0
1
2
2
2
2
1
-1
-1
1
1
-1
0
3
2
-1
0
3
4
4
5
6
5
4
6
8
6
4
5
6
8
11
18
23
27
30
29
30
35
45
59
66
66
66
67
69
71
74
78
70
56
50
47
35
20
11
3
-1
-5
-8
-12
-13
-14
-15
-16
-17
-18
-20
-22
-21
-20
-19
-20
-27
-45
-84
-101
-83
-44
21
86
151
216
281
346
411
456
489
456
391
325
260
194
129
63
-2
-31
-53
-57
-59
-60
-60
-62
-62
-63
-64
-65
-66
-68
-70
-68
-66
-69
-72
-73
-74
-75
-76
-78
-80
-82
-85
-88
-90
-91
-93
-95
-96
-97
-100
-103
-104
-105
-109
-113
-115
-117
-119
-121
-125
-129
-133
-137
-143
-148
-153
-158
-166
-174
-176
-178
-184
-188
-190
-192
-191
-190
-188
-184
-175
-166
-155
-142
-129
-115
-99
-87
-78
-70
-63
-57
-50
-47
-45
-44
-43
-42
-41
-41
-43
-44
-44
-44
-45
-46
-44
-46
-48
-48
-48
-48
-48
-47
-46
-46
-46
-46
-46
-45
-44
-43
-42
-42
-42
-42
-42
-43
-44
-43
-43
-45
-46
-45
-44
-43
-42
-42
-42
-43
-44
-45
-45
-43
-42
-42
-42
-42
-40
-38
-39
-40
-39
-38
-38
-38
-40
-42
-41
-40
-40
-40
-39
-38
-38
-38
-38
-38
-39
-40
-39
-38
-39
-40
-39
-38
-38
-38
-39
-40
-40
-40
-40
-39
-37
-36
-37
-38
-38
-38
-38
-36
-34
-31
-28
-25
-22
-18
-14
-14
-13
-8
-2
6
13
18
22
20
19
23
30
39
39
30
22
15
5
-8
-16
-24
-30
-36
-40
-43
-44
-45
-46
-46
-47
-49
-49
-46
-48
-50
-48
-46
-45
-49
-83
-111
-116
-104
-39
26
91
156
221
286
351
416
481
484
418
353
287
222
156
91
25
-24
-64
-75
-73
-72
-72
-72
-73
-75
-77
-78
-79
-80
-80
-77
-76
-80
-84
-82
-80
-81
-82
-83
-84
-86
-88
-88
-88
-90
-92
-90
-90
-95
-98
-99
-102
-106
-107
-105
-105
-107
-112
-118
-119
-117
-117
-119
-123
-127
-135
-144
-149
-153
-158
-163
-168
-172
-173
-174
-177
-180
-180
-179
-172
-164
-155
-144
-128
-112
-98
-84
-72
-60
-50
-39
-28
-21
-19
-17
-15
-14
-15
-14
-10
-8
-9
-13
-18
-17
-13
-12
-13
-13
-11
-10
-11
-12
-14
-11
-8
-7
-6
-6
-6
-7
-8
-5
-2
0
2
1
0
1
1
-2
-3
0
2
-1
-2
-3
-4
-4
-7
-12
-10
-4
-4
-7
-8
-8
-8
-7
-6
-6
-4
-1
-2
0
-4
-2
-4
-6
-4
-2
1
4
1
-2
-2
-2
-1
0
0
1
5
6
0
-3
2
4
3
2
1
1
3
4
5
8
11
10
7
8
11
16
21
23
25
30
35
34
32
43
54
62
71
80
88
88
88
88
89
97
97
81
70
69
64
53
42
32
23
16
12
13
14
13
12
11
10
10
7
3
5
9
10
9
-1
-13
-51
-92
-69
-41
24
89
154
219
284
349
414
462
442
410
345
279
214
148
82
28
-9
-29
-25
-23
-28
-30
-30
-30
-30
-30
-30
-30
-30
-31
-33
-35
-37
-38
-38
-38
-38
-38
-39
-41
-40
-47
-50
-52
-54
-55
-56
-58
-60
-61
-62
-63
-64
-66
-68
-70
-72
-73
-75
-79
-83
-88
-93
-99
-104
-110
-116
-125
-130
-134
-139
-144
-148
-151
-154
-157
-158
-158
-155
-151
-141
-131
-115
-100
-86
-71
-57
-43
-32
-21
-14
-8
-5
-2
1
4
5
6
5
4
5
6
5
4
3
2
1
0
0
0
-1
-1
1
2
3
4
4
5
7
9
11
11
9
8
10
10
10
9
8
8
8
7
6
5
4
4
4
3
2
3
4
3
2
3
4
3
2
3
3
0
-2
-2
-2
-1
0
-1
-2
-1
0
-1
-2
-2
-2
-3
-4
-4
-5
-6
-5
-4
-5
-6
-5
-4
-6
-8
-8
-8
-8
-8
-9
-10
-10
-10
-10
-10
-11
-12
-12
-12
-13
-14
-15
-14
-11
-8
-5
-1
4
9
13
15
17
22
27
37
47
49
50
50
50
53
56
64
68
55
44
43
38
23
10
2
-6
-13
-19
-22
-24
-24
-25
-27
-28
-28
-28
-29
-30
-31
-30
-26
-29
-36
-66
-103
-106
-101
-44
21
86
151
216
282
347
412
477
528
463
397
332
266
201
135
70
12
-28
-55
-59
-62
-63
-64
-63
-62
-63
-64
-64
-64
-64
-64
-65
-66
-67
-68
-69
-70
-71
-72
-73
-75
-77
-80
-83
-84
-84
-84
-86
-88
-90
-90
-90
-92
-94
-95
-96
-98
-100
-102
-105
-108
-111
-115
-120
-125
-130
-135
-139
-141
-146
-153
-158
-162
-164
-165
-166
-166
-166
-165
-160
-153
-145
-136
-124
-113
-98
-83
-71
-60
-52
-44
-40
-36
-32
-28
-29
-30
-28
-26
-29
-32
-33
-34
-33
-34
-40
-43
-40
-39
-42
-44
-43
-42
-43
-44
-44
-42
-39
-38
-39
-40
-40
-39
-37
-36
-35
-32
-29
-29
-32
-33
-34
-32
-30
-28
-26
-27
-28
-26
-24
-24
-24
-24
-23
-20
-18
-19
-20
-20
-20
-21
-20
-16
-14
-14
-14
-13
-14
-17
-15
-10
-9
-11
-13
-15
-12
-7
-6
-6
-6
-6
-7
-10
-7
-4
-2
0
-1
-2
0
2
0
-1
3
5
0
-1
8
16
22
28
33
36
36
38
42
49
58
68
77
80
81
83
85
92
100
90
76
71
67
55
43
33
24
17
10
11
12
10
8
5
2
4
6
4
3
7
10
9
7
4
-14
-51
-73
-80
-49
16
81
146
211
276
341
406
471
536
500
435
369
304
238
173
107
42
8
-24
-22
-20
-23
-26
-26
-26
-31
-36
-32
-28
-31
-34
-32
-30
-32
-33
-30
-29
-32
-34
-34
-35
-38
-41
-43
-46
-50
-51
-49
-50
-53
-54
-54
-55
-57
-58
-59
-62
-65
-70
-66
-77
-78
-83
-88
-94
-100
-107
-112
-118
-123
-130
-137
-141
-145
-148
-150
-149
-147
-143
-136
-127
-115
-99
-84
-70
-56
-41
-28
-16
-7
1
8
14
19
23
25
27
26
23
23
25
26
26
25
24
24
24
25
26
23
20
21
22
23
24
25
27
31
33
30
28
30
32
32
31
28
30
37
39
35
33
31
30
29
28
29
29
27
27
29
29
27
26
28
26
24
25
26
26
26
29
32
29
26
26
26
25
24
24
24
24
24
26
28
25
24
23
22
23
24
23
21
19
19
21
22
21
20
21
21
19
18
19
19
20
17
18
23
28
31
34
36
38
41
46
56
65
71
76
75
75
78
82
88
88
79
73
70
60
44
32
20
12
6
2
-2
-6
-9
-10
-10
-10
-11
-12
-11
-10
-9
-9
-10
-9
-10
-43
-73
-88
-89
-24
41
106
171
236
301
366
431
496
509
443
378
312
247
181
116
50
3
-31
-45
-47
-48
-48
-49
-51
-52
-52
-52
-51
-50
-51
-52
-53
-54
-54
-56
-58
-60
-62
-63
-64
-65
-66
-69
-72
-72
-72
-74
-77
-80
-82
-81
-80
-81
-83
-88
-90
-91
-93
-96
-100
-104
-108
-112
-118
-124
-129
-135
-141
-148
-155
-161
-165
-169
-172
-170
-177
-178
-177
-176
-168
-159
-149
-138
-122
-107
-94
-81
-67
-56
-48
-41
-35
-31
-27
-24
-25
-25
-23
-22
-23
-24
-24
-25
-27
-28
-29
-30
-31
-32
-32
-32
-33
-34
-33
-32
-31
-30
-30
-30
-30
-29
-28
-28
-28
-28
-28
-29
-30
-30
-30
-32
-34
-35
-36
-36
-36
-37
-39
-41
-41
-39
-38
-38
-39
-41
-41
-39
-38
-39
-39
-37
-36
-37
-38
-37
-36
-36
-36
-38
-36
-34
-35
-36
-35
-34
-35
-36
-35
-34
-35
-36
-37
-38
-37
-36
-36
-36
-36
-36
-37
-37
-35
-35
-38
-38
-34
-28
-22
-20
-19
-16
-13
-10
-7
4
16
19
21
22
22
29
34
38
42
34
26
21
14
2
-10
-19
-27
-32
-37
-41
-44
-44
-45
-48
-50
-50
-49
-47
-46
-45
-43
-40
-40
-44
-66
-94
-111
-125
-77
-12
53
118
183
248
313
378
444
505
440
374
309
243
178
112
47
-11
-43
-66
-68
-70
-74
-75
-72
-71
-74
-76
-74
-72
-72
-73
-75
-76
-76
-76
-76
-76
-76
-78
-81
-82
-82
-86
-91
-92
-92
-92
-91
-93
-98
-100
-102
-101
-100
-104
-108
-108
-108
-112
-116
-118
-121
-125
-129
-132
-137
-145
-151
-155
-159
-164
-167
-169
-171
-173
-175
-178
-177
-172
-165
-158
-147
-135
-123
-110
-94
-76
-64
-53
-45
-52
-32
-28
-24
-20
-15
-10
-14
-18
-15
-12
-15
-18
-17
-16
-17
-18
-18
-18
-18
-18
-17
-16
-15
-14
-13
-10
-6
-5
-7
-10
-14
-12
-6
-2
1
2
1
0
1
2
3
2
0
2
4
-1
-6
-8
-9
-1
5
-2
-8
-6
-4
-2
0
0
0
-1
-2
-2
-2
-1
0
-1
-2
-1
1
3
4
4
4
3
2
2
2
1
2
5
6
5
5
8
9
10
11
12
12
12
16
21
26
30
31
33
37
41
45
51
59
68
77
82
85
86
87
91
97
95
86
79
74
64
51
42
34
26
18
15
13
11
9
7
8
5
6
5
4
4
4
5
6
4
-6
-40
-68
-79
-65
0
65
130
195
260
325
390
455
520
513
447
382
316
250
185
119
54
13
-19
-27
-29
-30
-31
-32
-32
-33
-35
-33
-30
-33
-36
-36
-36
-38
-40
-41
-43
-48
-52
-51
-50
-52
-54
-56
-58
-58
-60
-65
-68
-67
-68
-73
-76
-75
-76
-80
-83
-85
-87
-89
-92
-95
-99
-103
-111
-119
-124
-129
-138
-148
-153
-158
-162
-166
-169
-172
-171
-170
-168
-164
-156
-147
-135
-121
-106
-90
-74
-59
-47
-37
-28
-23
-21
-19
-16
-15
-17
-16
-13
-12
-13
-15
-17
-18
-18
-19
-21
-22
-22
-22
-22
-18
-16
-16
-16
-16
-16
-15
-14
-13
-12
-12
-12
-13
-14
-13
-12
-11
-10
-11
-12
-15
-17
-19
-20
-19
-19
-21
-22
-21
-21
-23
-22
-19
-20
-23
-23
-21
-20
-21
-22
-23
-23
-22
-20
-18
-17
-16
-16
-16
-18
-20
-19
-18
-16
-14
-14
-14
-15
-16
-16
-16
-17
-18
-18
-19
-21
-22
-22
-22
-22
-22
-22
-20
-17
-14
-11
-7
-3
-2
-1
3
7
17
28
32
36
36
36
38
41
49
54
42
32
30
25
11
-1
-11
-20
-26
-31
-35
-38
-39
-40
-41
-42
-43
-44
-44
-44
-43
-42
-41
-41
-43
-65
-92
-112
-132
-76
-11
54
-7
185
250
315
380
445
492
427
361
296
230
165
99
34
-21
-53
-74
-75
-76
-78
-80
-83
-84
-84
-84
-85
-86
-86
-86
-87
-90
-93
-94
-93
-95
-99
-100
-101
-103
-105
-106
-107
-110
-112
-113
-114
-115
-116
-117
-118
-119
-120
-121
-122
-122
-122
-126
-128
-130
-132
-134
-138
-144
-149
-152
-157
-165
-170
-174
-179
-184
-186
-186
-186
-187
-186
-183
-177
-169
-161
-153
-141
-129
-114
-98
-87
-76
-67
-58
-55
-52
-49
-46
-46
-46
-45
-44
-46
-48
-48
-48
-49
-50
-48
-46
-49
-50
-51
-52
-51
-50
-50
-49
-47
-46
-47
-47
-45
-44
-43
-42
-42
-41
-39
-38
-38
-36
-34
-38
-42
-42
-42
-40
-38
-38
-38
-38
-38
-38
-38
-36
-34
-34
-34
-34
-34
-33
-32
-33
-34
-33
-32
-31
-28
-25
-26
-29
-32
-35
-35
-33
-30
-27
-26
-27
-28
-28
-24
-20
-20
-20
-23
-26
-22
-18
-17
-16
-16
-16
-15
-13
-8
-4
-2
2
10
14
15
19
26
35
45
54
61
64
63
64
67
75
85
75
57
54
53
43
31
20
9
6
2
1
0
-2
-4
-3
-2
-3
-4
-6
-8
-5
-2
-2
-4
-10
-28
-66
-86
-81
-47
18
83
148
213
278
343
408
473
538
510
445
379
314
248
183
117
52
5
-39
-41
-42
-36
-34
-36
-38
-37
-36
-34
-32
-38
-42
-42
-42
-42
-42
-44
-46
-47
-48
-48
-48
-49
-52
-56
-58
-57
-57
-60
-63
-65
-66
-66
-66
-67
-72
-77
-78
-77
-78
-81
-84
-87
-92
-96
-103
-110
-115
-121
-129
-136
-139
-143
-148
-152
-153
-154
-150
-147
-143
-136
-125
-113
-101
-86
-70
-56
-43
-31
-19
-11
-4
0
4
9
14
16
16
16
15
13
11
10
10
8
4
5
6
5
4
3
2
3
4
3
2
3
4
7
10
10
10
10
10
9
8
11
11
9
8
9
10
9
7
5
4
5
6
5
4
5
4
1
0
1
2
2
2
2
3
4
1
-2
0
2
1
0
3
6
5
4
4
4
2
0
2
4
1
0
1
2
3
4
4
4
4
4
3
2
2
3
5
8
11
15
19
20
21
26
30
38
46
55
64
62
60
62
65
73
80
77
72
64
54
42
32
24
17
9
2
-2
-5
-8
-10
-10
-10
-10
-10
-10
-10
-10
-10
-9
-8
-7
-23
-42
-76
-110
-57
1
66
131
196
261
326
391
456
495
430
364
299
233
168
102
36
-13
-36
-50
-51
-52
-53
-55
-58
-60
-60
-60
-59
-60
-63
-64
-64
-65
-67
-69
-71
-72
-71
-70
-71
-74
-72
-81
-84
-84
-84
-88
-92
-91
-91
-97
-102
-101
-100
-103
-106
-108
-111
-114
-117
-120
-122
-125
-129
-136
-142
-148
-153
-159
-166
-172
-176
-180
-183
-185
-186
-186
-186
-185
-179
-173
-164
-155
-142
-130
-116
-101
-88
-75
-67
-60
-54
-50
-46
-42
-41
-40
-39
-38
-40
-42
-43
-44
-45
-46
-45
-45
-47
-48
-48
-48
-48
-48
-48
-48
-47
-46
-46
-46
-45
-44
-44
-44
-44
-44
-46
-45
-44
-44
-44
-48
-52
-51
-50
-52
-54
-53
-52
-52
-52
-54
-55
-52
-50
-52
-54
-54
-54
-53
-52
-53
-54
-54
-54
-54
-54
-54
-54
-53
-52
-51
-50
-51
-51
-49
-48
-48
-50
-50
-47
-44
-45
-46
-45
-44
-46
-48
-46
-44
-44
-44
-44
-44
-44
-44
-43
-41
-36
-32
-28
-25
-23
-22
-21
-16
-9
-1
6
11
16
18
19
24
29
35
41
30
17
14
12
-5
-22
-29
-36
-41
-46
-47
-48
-49
-50
-51
-52
-50
-48
-50
-52
-50
-48
-47
-48
-52
-72
-106
-120
-119
-77
-12
53
118
183
248
313
378
443
508
460
395
329
264
198
132
67
3
-39
-76
-77
-78
-79
-80
-84
-88
-85
-82
-81
-81
-85
-88
-87
-87
-90
-92
-89
-89
-91
-91
-88
-86
-87
-90
-93
-95
-97
-100
-103
-102
-99
-98
-98
-100
-103
-104
-104
-105
-108
-110
-112
-113
-114
-117
-121
-128
-134
-137
-141
-146
-151
-156
-161
-164
-166
-166
-166
-163
-161
-158
-152
-145
-135
-123
-110
-96
-82
-66
-52
-37
-29
-22
-17
-13
-9
-5
-3
-1
-1
-2
-5
-8
-8
-8
-6
-4
-8
-12
-11
-10
-8
-6
-8
-10
-12
-14
-12
-10
-12
-13
-10
-7
-4
-3
-5
-6
-6
-6
-6
-5
-3
-3
-5
-7
-9
-10
-9
-8
-7
-5
-2
-6
-10
-4
2
0
-2
2
6
6
6
4
2
3
4
6
8
9
12
18
19
12
9
12
14
13
12
11
12
15
14
9
11
17
18
18
18
17
15
13
12
12
13
14
16
18
21
24
28
32
35
38
43
46
48
53
64
74
81
86
85
86
91
96
101
100
93
88
84
74
62
53
45
34
23
20
19
18
18
18
19
19
17
16
16
17
18
18
18
16
8
-31
-64
-73
-63
2
67
132
197
262
327
392
457
522
523
457
392
326
261
195
130
64
19
-16
-29
-34
-37
-39
-41
-43
-42
-39
-39
-41
-43
-46
-46
-46
-46
-46
-48
-50
-50
-50
-52
-55
-59
-62
-62
-63
-66
-68
-66
-64
-65
-66
-69
-70
-70
-72
-76
-79
-81
-84
-87
-88
-88
-92
-98
-104
-111
-117
-123
-131
-139
-143
-140
-153
-158
-160
-162
-162
-162
-160
-157
-146
-136
-123
-110
-96
-81
-66
-52
-41
-32
-27
-21
-14
-9
-7
-6
-6
-6
-6
-7
-9
-10
-9
-9
-11
-12
-11
-10
-9
-8
-8
-8
-8
-6
-4
-4
-4
-5
-6
-5
-4
-4
-4
-3
-2
-3
-4
-6
-8
-10
-12
-14
-16
-16
-16
-17
-18
-18
-18
-18
-18
-18
-18
-19
-20
-19
-18
-17
-18
-21
-22
-21
-20
-20
-20
-18
-21
-24
-21
-18
-18
-18
-19
-20
-18
-16
-18
-20
-20
-20
-20
-20
-20
-20
-20
-20
-20
-20
-19
-18
-19
-19
-17
-17
-19
-19
-17
-16
-17
-18
-17
-14
-11
-5
1
3
2
7
8
12
16
26
34
41
46
44
43
48
53
58
58
46
38
36
30
18
5
-10
-18
-19
-22
-26
-27
-25
-25
-27
-28
-29
-29
-27
-26
-27
-27
-25
-34
-47
-82
-119
-101
-80
-15
50
115
180
245
310
375
440
505
536
471
405
339
274
208
143
77
19
-31
-57
-60
-62
-63
-64
-65
-66
-66
-66
-67
-68
-69
-70
-69
-69
-71
-72
-71
-73
-77
-78
-76
-78
-80
-81
-82
-84
-86
-89
-92
-90
-88
-91
-94
-93
-93
-96
-98
-100
-103
-106
-109
-114
-117
-120
-124
-130
-134
-138
-144
-151
-156
-159
-163
-167
-169
-171
-172
-172
-172
-171
-163
-170
-146
-138
-122
-107
-94
-81
-71
-61
-54
-48
-43
-40
-39
-38
-36
-34
-35
-36
-37
-38
-38
-39
-42
-44
-44
-43
-41
-41
-43
-44
-43
-42
-42
-41
-39
-38
-38
-36
-33
-34
-37
-35
-32
-32
-32
-33
-34
-32
-30
-32
-34
-36
-38
-38
-38
-38
-38
-39
-40
-40
-40
-38
-36
-37
-38
-38
-37
-35
-34
-35
-34
-31
-30
-31
-32
-31
-32
-35
-33
-29
-28
-29
-30
-28
-26
-24
-26
-28
-25
-22
-25
-28
-26
-24
-26
-28
-26
-24
-26
-28
-29
-30
-28
-26
-23
-22
-23
-24
-25
-24
-20
-15
-10
-5
0
2
3
6
9
18
29
37
45
46
46
51
54
60
66
59
52
49
44
31
19
10
3
-3
-8
-9
-10
-11
-12
-11
-11
-14
-15
-13
-12
-11
-8
-4
-4
-8
-35
-71
-88
-99
-51
14
79
144
209
274
339
404
470
531
466
400
335
269
204
138
73
17
-5
-22
-25
-28
-28
-29
-32
-34
-33
-33
-36
-39
-42
-42
-38
-38
-42
-44
-44
-45
-47
-50
-53
-56
-59
-60
-61
-62
-62
-65
-69
-70
-70
-73
-76
-79
-82
-82
-82
-82
-82
-86
-90
-90
-91
-95
-100
-106
-112
-119
-127
-134
-140
-147
-151
-154
-157
-159
-159
-156
-154
-153
-144
-133
-120
-107
-94
-80
-64
-46
-35
-25
-16
-24
-4
-2
1
4
5
6
5
4
5
6
3
0
0
0
-2
-4
-3
-2
-2
-2
-1
1
3
4
4
4
5
6
7
10
13
11
7
6
7
8
8
8
9
9
7
5
4
6
8
5
2
6
10
6
2
6
10
8
6
6
6
8
10
8
6
7
8
7
6
6
6
6
6
7
8
8
7
5
4
5
6
5
4
5
5
3
2
2
3
4
3
2
1
0
0
0
1
2
0
-2
-1
1
4
7
10
13
17
20
21
23
26
33
42
51
60
63
61
62
65
70
76
71
62
60
59
45
29
23
28
6
-4
-8
-12
-13
-14
-16
-18
-18
-18
-17
-16
-16
-16
-14
-12
-12
-22
-48
-74
-99
-79
-14
51
116
181
246
311
376
441
506
474
409
343
278
212
147
81
16
-19
-51
-54
-56
-57
-58
-60
-62
-61
-60
-63
-66
-65
-64
-66
-68
-68
-68
-69
-70
-71
-72
-73
-76
-80
-82
-82
-83
-86
-88
-89
-90
-90
-93
-97
-98
-98
-99
-101
-103
-105
-109
-113
-114
-116
-123
-130
-130
-130
-137
-144
-151
-157
-162
-167
-174
-180
-181
-182
-183
-184
-183
-180
-174
-166
-157
-145
-131
-116
-102
-89
-77
-67
-59
-53
-48
-46
-45
-44
-43
-41
-39
-39
-41
-42
-42
-45
-50
-46
-42
-45
-48
-48
-48
-47
-46
-45
-44
-44
-44
-45
-45
-39
-36
-37
-38
-37
-37
-39
-39
-36
-35
-38
-40
-39
-38
-37
-38
-41
-41
-39
-38
-38
-38
-39
-39
-37
-37
-38
-39
-40
-40
-40
-39
-38
-39
-40
-40
-40
-40
-40
-41
-42
-41
-40
-41
-42
-41
-41
-43
-43
-41
-40
-41
-42
-41
-40
-39
-38
-38
-38
-38
-38
-37
-36
-36
-36
-36
-36
-34
-34
-34
-33
-32
-33
-34
-34
-34
-32
-29
-25
-21
-16
-12
-13
-13
-10
-5
3
10
15
18
19
21
24
30
37
35
27
22
19
6
-10
-19
-26
-34
-41
-44
-47
-48
-48
-50
-52
-52
-52
-52
-52
-50
-48
-47
-46
-51
-61
-86
-108
-123
-108
-43
22
87
152
217
282
347
412
477
464
398
332
267
201
136
70
5
-35
-68
-74
-74
-76
-79
-80
-79
-77
-76
-76
-76
-77
-78
-77
-76
-78
-80
-81
-82
-80
-79
-83
-86
-85
-84
-85
-86
-86
-87
-89
-90
-89
-89
-92
-94
-95
-97
-99
-100
-99
-102
-108
-110
-111
-116
-121
-126
-131
-133
-136
-141
-146
-153
-160
-165
-170
-174
-178
-177
-176
-177
-176
-168
-160
-153
-143
-129
-113
-95
-80
-67
-56
-48
-40
-32
-25
-20
-19
-21
-21
-19
-18
-17
-16
-15
-17
-21
-19
-15
-16
-14
-20
-20
-15
-10
-13
-16
-15
-14
-11
-8
-8
-7
-3
0
-1
-2
-1
-1
-5
-6
1
2
-3
-7
-9
-10
-9
-7
-5
-4
-4
-4
-5
-6
-6
-7
-9
-10
-10
-7
-3
-2
-2
-2
-2
-4
-6
-4
-2
-3
-4
-2
0
-2
-4
-3
-1
2
4
3
2
2
2
1
1
3
4
4
3
1
2
5
5
3
2
3
3
1
2
5
5
3
4
8
10
12
17
22
24
26
24
23
30
38
47
55
60
64
62
60
62
67
74
73
62
54
50
40
24
13
5
-1
-6
-10
-15
-18
-21
-19
-15
-15
-17
-18
-19
-20
-20
-18
-18
-26
-37
-79
-113
-90
-58
7
72
137
202
267
332
397
459
518
525
459
394
328
263
197
132
66
15
-27
-44
-47
-48
-49
-50
-50
-51
-53
-54
-53
-54
-57
-56
-53
-56
-60
-59
-58
-60
-62
-64
-66
-69
-72
-75
-78
-78
-78
-82
-84
-85
-86
-87
-89
-92
-95
-98
-101
-103
-106
-110
-113
-117
-120
-123
-129
-136
-142
-147
-155
-164
-170
-175
-177
-179
-180
-182
-181
-180
-176
-172
-163
-154
-141
-127
-112
-97
-84
-71
-57
-47
-42
-37
-33
-29
-25
-22
-23
-24
-25
-26
-27
-28
-28
-29
-31
-32
-31
-30
-30
-31
-33
-32
-29
-29
-31
-30
-32
-25
-24
-24
-24
-23
-22
-23
-24
-24
-24
-26
-28
-27
-27
-30
-32
-31
-31
-34
-36
-33
-32
-33
-35
-37
-37
-35
-34
-35
-36
-35
-34
-35
-36
-35
-34
-34
-34
-35
-36
-35
-33
-32
-33
-34
-35
-36
-34
-32
-32
-32
-32
-32
-32
-32
-32
-32
-32
-32
-32
-32
-31
-30
-30
-30
-29
-28
-29
-30
-30
-30
-29
-28
-28
-28
-28
-28
-28
-23
-17
-14
-11
-6
0
0
0
5
11
21
30
31
32
32
33
38
42
45
45
33
25
21
12
-4
-15
-22
-28
-33
-37
-39
-40
-41
-42
-42
-42
-43
-44
-44
-44
-44
-40
-35
-46
-59
-95
-60
-108
-81
-16
49
114
179
244
309
374
430
459
462
397
331
265
200
134
69
3
-39
-56
-65
-68
-71
-73
-73
-71
-71
-73
-74
-74
-74
-75
-76
-77
-78
-79
-80
-79
-78
-79
-82
-84
-85
-86
-87
-88
-88
-88
-92
-96
-95
-94
-97
-100
-102
-104
-106
-108
-110
-112
-114
-117
-120
-124
-129
-134
-138
-143
-148
-152
-156
-161
-166
-170
-173
-174
-175
-175
-173
-168
-163
-157
-150
-140
-130
-116
-103
-90
-77
-69
-60
-50
-41
-36
-32
-29
-26
-26
-26
-26
-25
-22
-21
-24
-26
-25
-25
-27
-29
-31
-32
-33
-32
-27
-25
-23
-23
-25
-26
-26
-26
-25
-24
-24
-23
-24
-21
-18
-20
-22
-23
-24
-25
-26
-25
-24
-23
-22
-22
-22
-24
-26
-26
-26
-25
-24
-24
-24
-25
-26
-25
-24
-25
-24
-20
-18
-18
-18
-18
-14
-9
-10
-13
-14
-13
-11
-10
-10
-10
-8
-6
-3
0
-1
-2
-2
-2
-4
-6
-2
0
-1
-1
2
5
8
9
6
4
4
4
5
7
9
14
20
22
22
27
34
37
39
47
55
63
71
72
74
75
76
86
95
82
70
65
59
49
40
30
21
17
13
10
8
8
8
9
10
9
8
7
6
5
8
15
11
0
-33
-74
-74
-61
-6
59
124
189
254
319
384
323
494
533
468
402
337
271
206
140
75
19
-5
-22
-23
-24
-23
-23
-26
-28
-26
-24
-27
-28
-29
-30
-30
-32
-36
-38
-38
-38
-38
-39
-41
-42
-42
-42
-43
-47
-51
-52
-52
-54
-56
-60
-64
-65
-66
-65
-64
-67
-70
-74
-79
-83
-87
-91
-96
-102
-109
-117
-124
-129
-134
-139
-144
-148
-150
-150
-150
-150
-146
-140
-131
-121
-106
-91
-77
-62
-46
-30
-18
-7
-2
4
11
18
18
18
20
22
18
14
14
14
15
16
14
12
13
14
12
10
12
14
15
16
16
16
16
17
19
20
20
20
20
20
19
18
19
20
19
18
18
18
18
14
12
10
8
9
10
9
8
9
10
11
12
11
10
10
10
9
9
12
14
14
14
15
14
10
11
17
18
14
12
13
15
17
17
15
15
17
16
13
13
15
14
12
12
12
11
10
11
12
13
14
12
10
12
14
12
10
10
12
17
20
21
24
28
30
31
36
45
54
64
68
67
66
67
72
78
78
75
67
59
50
41
31
20
12
4
-1
-6
-7
-8
-8
-8
-8
-8
-9
-10
-10
-10
-8
-7
-11
-28
-61
-83
-94
-66
-1
64
129
194
259
324
389
454
519
485
420
354
289
223
158
92
27
-12
23
-52
-54
-55
-56
-57
-58
-60
-62
-60
-58
-60
-62
-63
-64
-66
-69
-72
-74
-74
-74
-77
-78
-79
-82
-86
-88
-89
-92
-95
-98
-101
-102
-102
-103
-105
-106
-107
-109
-111
-112
-113
-118
-122
-126
-130
-134
-138
-146
-152
-156
-161
-166
-171
-175
-178
-180
-182
-182
-181
-178
-174
-169
-160
-148
-135
-120
-106
-92
-80
-70
-59
-49
-43
-39
-37
-35
-33
-31
-30
-30
-30
-30
-32
-36
-38
-40
-41
-42
-43
-44
-46
-48
-46
-44
-43
-42
-45
-47
-44
-42
-43
-44
-43
-42
-41
-41
-43
-44
-45
-46
-46
-46
-45
-45
-47
-49
-51
-52
-51
-50
-50
-50
-50
-50
-50
-48
-46
-47
-48
-49
-50
-49
-48
-48
-48
-48
-48
-48
-48
-47
-46
-46
-46
-46
-46
-45
-44
-44
-44
-45
-45
-43
-42
-41
-40
-41
-40
-37
-38
-41
-42
-42
-41
-39
-38
-38
-39
-40
-39
-38
-40
-42
-40
-38
-37
-36
-36
-35
-31
-27
-20
-16
-14
-12
-11
-9
-5
4
16
23
25
27
29
31
35
40
48
41
27
24
23
11
-4
-12
-19
-26
-33
-35
-38
-38
-38
-39
-40
-42
-44
-39
-34
-35
-36
-35
-36
-45
-63
-97
-114
-103
-68
-3
62
127
192
257
322
387
452
517
495
430
364
299
233
168
102
37
-10
-53
-59
-61
-62
-62
-64
-66
-67
-68
-65
-62
-62
-62
-66
-70
-71
-72
-72
-73
-76
-78
-79
-80
-82
-84
-84
-84
-85
-89
-95
-97
-94
-96
-102
-106
-109
-108
-105
-109
-116
-118
-117
-120
-125
-126
-127
-136
-144
-148
-152
-156
-160
-168
-174
-178
-182
-182
-182
-183
-183
-178
-173
-168
-160
-147
-135
-123
-109
-95
-82
-71
-60
-50
-45
-41
-36
-30
-27
-25
-24
-24
-21
-17
-18
-21
-22
-23
-24
-24
-22
-20
-22
-24
-20
-16
-14
-12
-13
-13
-7
-2
-2
-2
0
2
2
2
4
5
2
1
4
6
6
5
3
3
5
5
3
2
3
2
-1
-2
-2
4
11
8
12
5
8
7
6
8
10
10
10
7
4
7
10
9
9
12
14
13
12
12
12
9
8
9
12
16
17
14
11
9
10
14
15
13
12
11
11
13
13
11
11
13
13
12
9
6
14
22
24
26
29
32
30
29
35
43
54
62
63
65
68
70
72
75
77
72
59
48
38
31
24
15
5
-1
-6
-9
-11
-13
-15
-16
-16
-14
-11
-10
-12
-10
-8
-10
-15
-46
-75
-94
-97
-32
33
98
163
228
293
358
423
488
497
431
366
300
235
169
104
38
-2
-27
-36
-35
-36
-41
-42
-42
-42
-42
-42
-41
-40
-41
-43
-42
-47
-48
-48
-48
-50
-52
-55
-58
-59
-60
-61
-62
-64
-66
-67
-69
-72
-74
-74
-74
-75
-78
-83
-86
-86
-87
-89
-91
-93
-99
-106
-108
-109
-118
-128
-134
-139
-145
-151
-156
-161
-164
-166
-168
-170
-167
-164
-159
-152
-139
-125
-111
-97
-84
-70
-56
-44
-35
-29
-25
-22
-20
-17
-14
-12
-12
-12
-12
-12
-11
-12
-16
-18
-17
-16
-17
-18
-18
-18
-18
-17
-15
-14
-14
-13
-12
-12
-12
-14
-16
-13
-10
-13
-16
-14
-12
-14
-16
-16
-16
-17
-18
-18
-18
-18
-18
-18
-18
-18
-19
-22
-24
-24
-24
-24
-24
-23
-22
-23
-23
-21
-20
-20
-20
-20
-20
-18
-18
-18
-19
-20
-20
-20
-20
-20
-20
-20
-21
-21
-17
-15
-18
-20
-20
-20
-21
-22
-22
-21
-19
-19
-21
-22
-22
-22
-22
-21
-19
-18
-19
-20
-21
-18
-13
-8
-3
1
4
4
4
10
17
28
38
38
38
39
41
45
49
56
56
42
34
35
30
14
3
-4
-11
-19
-22
-23
-24
-25
-26
-27
-28
-27
-26
-27
-28
-27
-24
-21
-27
-35
-74
-114
-93
-68
-3
62
127
192
257
322
387
452
517
544
479
413
347
282
216
151
85
26
-25
-52
-57
-60
-60
-60
-60
-60
-60
-61
-63
-64
-65
-66
-66
-67
-69
-70
-70
-73
-70
-75
-72
-75
-78
-83
-88
-88
-88
-87
-86
-87
-88
-90
-92
-94
-96
-98
-100
-101
-102
-105
-107
-110
-114
-118
-123
-128
-133
-138
-143
-148
-153
-158
-163
-167
-168
-167
-167
-169
-168
-165
-156
-148
-140
-131
-117
-103
-88
-74
-62
-51
-44
-36
-28
-22
-21
-20
-20
-19
-16
-14
-16
-18
-17
-16
-17
-18
-17
-17
-19
-18
-15
-14
-14
-14
-14
-15
-17
-14
-9
-9
-11
-10
-6
-4
-2
-3
-4
-7
-10
-7
-4
-8
-12
-10
-8
-11
-13
-10
-9
-12
-13
-10
-8
-9
-9
-6
-4
-5
-7
-10
-10
-7
-6
-6
-6
-5
-4
-5
-5
-3
-1
1
0
2
0
4
2
0
5
10
10
10
9
8
6
4
7
10
9
8
8
9
13
16
13
12
12
12
11
11
13
16
20
20
16
17
22
24
23
30
40
42
42
45
49
60
70
77
84
85
86
84
83
91
98
96
92
82
72
64
56
47
40
32
27
23
19
17
16
15
15
17
17
15
14
13
13
15
14
11
-18
-53
-67
-79
-21
44
109
175
240
305
370
435
500
545
480
414
349
283
218
152
87
32
0
-20
-18
-18
-24
-28
-27
-26
-25
-25
-27
-28
-29
-30
-31
-32
-31
-30
-31
-34
-37
-38
-39
-41
-43
-44
-44
-42
-42
-47
-52
-53
-54
-56
-58
-60
-62
-65
-68
-69
-71
-74
-77
-81
-85
-88
-93
-100
-106
-110
-116
-123
-130
-137
-142
-145
-149
-154
-156
-155
-151
-147
-140
-133
-119
-103
-90
-77
-61
-46
-33
-20
-12
-4
0
4
6
8
8
8
7
6
7
7
4
2
1
0
-1
-2
-3
-3
-1
0
0
0
1
2
1
2
5
6
6
8
11
12
11
10
11
11
8
9
10
11
12
12
12
11
10
9
8
9
10
11
12
12
12
10
8
7
6
9
10
9
8
9
10
11
12
11
10
9
8
7
6
6
6
5
6
9
10
10
8
8
10
12
8
4
8
12
9
6
5
4
6
8
7
6
5
4
4
4
5
5
3
3
5
7
9
15
23
27
29
30
29
35
44
52
61
64
67
68
68
73
78
81
84
72
62
54
47
36
27
19
11
6
2
0
-2
0
2
0
-2
-3
-4
-4
-4
-4
-3
-1
-10
-26
-57
-94
-73
-30
30
95
160
225
290
355
420
485
425
359
294
228
163
97
32
-25
-38
-48
-45
-42
-45
-48
-50
-52
-52
-52
-53
-54
-54
-54
-55
-57
-59
-60
-61
-62
-63
-65
-67
-68
-67
-68
-71
-73
-75
-77
-79
-80
-79
-80
-78
-85
-86
-89
-92
-93
-94
-96
-98
-99
-100
-105
-109
-114
-120
-127
-134
-141
-148
-153
-157
-160
-164
-168
-170
-170
-170
-171
-168
-161
-153
-146
-135
-121
-108
-95
-83
-72
-61
-51
-47
-43
-36
-30
-26
-22
-22
-22
-20
-18
-21
-24
-23
-22
-23
-24
-24
-24
-26
-28
-26
-24
-25
-26
-25
-24
-24
-23
-21
-20
-19
-18
-19
-18
-15
-16
-19
-19
-17
-18
-21
-22
-21
-22
-26
-25
-24
-23
-22
-27
-32
-32
-32
-34
-36
-35
-34
-34
-34
-32
-30
-32
-33
-30
-28
-31
-33
-35
-35
-33
-33
-35
-35
-33
-32
-33
-34
-33
-31
-29
-28
-29
-30
-29
-28
-28
-24
-22
-23
-24
-24
-24
-24
-24
-25
-26
-24
-22
-23
-24
-23
-22
-22
-22
-21
-20
-21
-20
-16
-12
-6
-3
0
2
2
8
17
26
36
38
39
41
43
47
51
55
59
47
34
32
30
17
5
-5
-14
-16
-18
-21
-24
-23
-22
-22
-22
-23
-23
-20
-18
-19
-19
-17
-28
-50
-78
-108
-86
-31
30
95
160
225
290
355
420
485
449
397
332
267
201
135
70
7
-24
-52
-50
-48
-51
-54
-58
-62
-60
-59
-63
-65
-61
-58
-60
-62
-64
-66
-69
-70
-70
-70
-71
-73
-75
-78
-81
-82
-82
-82
-83
-87
-91
-92
-91
-93
-97
-97
-98
-97
-100
-100
-100
-105
-110
-115
-120
-124
-128
-128
-130
-138
-147
-156
-163
-169
-172
-173
-174
-177
-177
-175
-173
-170
-165
-159
-148
-136
-125
-113
-95
-75
-62
-52
-46
-41
-38
-35
-29
-23
-29
-36
-43
-50
-45
-40
-38
-36
-30
-26
-30
-36
-46
-51
-41
-33
-28
-22
-16
-16
-26
-29
-22
-23
-32
-35
-32
-35
-45
-45
-40
-32
-23
-25
-32
-39
-47
-50
-53
-30
-3
-26
-52
-50
-48
-52
-54
-36
-21
-29
-39
-54
-59
-29
-15
-39
-55
-50
-42
-32
-26
-27
-35
-50
-50
-35
-30
-36
-40
-44
-44
-41
-36
-30
-29
-31
-28
-23
-39
-60
-36
-6
-19
-4
-31
-26
-44
-60
-58
-56
-54
-50
-35
-28
-48
-60
-52
-49
-58
-59
-43
-38
-48
-45
-26
-27
-50
-46
-20
-15
-24
-34
-43
-33
-13
-14
-24
-20
-12
-35
-64
-54
-38
-51
-67
-98
-128
-118
-108
-99
-91
-107
-118
-106
-98
-112
-121
-117
-114
-115
-114
-107
-122
-172
-194
-178
-138
-73
-8
57
122
187
252
317
321
295
240
175
109
44
-22
-87
-114
-136
-143
-149
-150
-150
-147
-144
-149
-154
-156
-156
-137
-124
-139
-150
-147
-144
-144
-147
-157
-159
-146
-140
-146
-149
-146
-147
-153
-156
-155
-155
-158
-158
-154
-153
-155
-156
-155
-154
-155
-156
-156
-155
-153
-152
-152
-155
-156
-159
-162
-167
-172
-179
-185
-191
-197
-202
-207
-211
-215
-218
-220
-222
-221
-211
-204
-197
-187
-173
-158
-144
-134
-125
-118
-111
-102
-93
-88
-85
-81
-77
-79
-83
-81
-77
-76
-75
-69
-64
-68
-72
-65
-58
-55
-52
-51
-50
-50
-51
-56
-59
-55
-51
-46
-42
-41
-39
-35
-32
-32
-31
-28
-25
-22
-24
-31
-37
-42
-42
-39
-38
-37
-38
-41
-37
-31
-39
-49
-44
-36
-41
-46
-44
-42
-38
-34
-30
-26
-27
-29
-35
-42
-49
-54
-53
-50
-43
-40
-45
-43
-32
-35
-54
-53
-37
-32
-36
-38
-38
-38
-39
-40
-39
-41
-45
-42
-37
-40
-45
-47
-46
-44
-38
-39
-40
-42
-42
-28
-16
-14
-11
-6
-4
-12
-13
2
13
16
20
25
26
19
25
43
48
40
35
32
23
12
3
-5
-13
-20
-31
-44
-41
-35
-34
-33
-35
-39
-34
-28
-19
-11
-24
-36
-36
-38
-50
-65
-89
-91
-26
39
104
169
234
299
364
429
494
495
429
364
298
233
167
102
36
-15
-60
-72
-71
-65
-58
-60
-65
-66
-65
-60
-55
-54
-56
-56
-56
-57
-58
-64
-70
-68
-66
-69
-71
-66
-62
-64
-67
-72
-72
-61
-62
-81
-81
-56
-48
-58
-63
-65
-70
-77
-77
-72
-75
-84
-81
-74
-78
-86
-88
-87
-97
-109
-110
-110
-130
-152
-141
-130
-135
-140
-144
-148
-142
-138
-133
-129
-123
-109
-82
-61
-53
-42
-28
-21
-26
-18
3
9
3
4
11
10
4
3
5
5
3
1
-1
15
35
38
38
13
-15
1
18
17
16
20
24
20
18
35
47
39
32
34
36
38
40
39
39
42
44
43
43
45
49
55
47
27
26
36
40
41
39
35
37
41
37
29
33
39
40
39
37
34
35
36
39
42
40
38
31
26
28
32
40
43
32
25
28
30
32
34
36
38
41
40
35
33
35
39
45
42
31
34
43
40
32
32
35
36
37
40
43
49
44
59
62
60
58
68
77
85
92
94
96
95
96
107
113
110
107
101
92
77
63
52
44
39
33
27
24
25
28
32
27
17
18
24
24
21
23
27
28
29
5
-23
-44
-62
3
68
133
198
263
328
393
458
523
554
489
423
357
292
226
161
95
43
8
-10
-10
-10
-11
-11
-8
-5
-1
-4
-10
-12
-12
-9
-5
-9
-17
-15
-11
-10
-9
-13
-20
-17
-14
-18
-22
-29
-36
-33
-30
-30
-30
-32
-35
-40
-44
-43
-43
-46
-48
-50
-53
-56
-58
-58
-61
-67
-75
-84
-90
-93
-101
-111
-117
-121
-125
-129
-131
-133
-134
-135
-132
-136
-117
-108
-95
-81
-63
-47
-36
-24
-13
-3
3
9
14
18
20
22
22
22
24
26
23
22
23
23
21
23
28
28
25
26
30
32
31
33
37
39
41
41
39
41
45
46
46
46
46
46
46
46
46
46
46
44
42
43
45
49
51
48
42
29
28
42
50
50
39
17
12
19
20
16
16
20
16
8
16
29
28
23
15
7
17
29
23
14
23
32
26
19
9
3
23
39
33
28
25
15
-11
-28
-26
-22
-16
-4
14
24
25
26
25
22
16
11
5
18
43
55
62
69
76
51
17
15
19
42
66
57
68
57
70
76
84
112
131
94
61
40
22
13
16
55
74
50
15
-39
-63
-44
-25
-4
-13
-51
-69
-71
-69
-63
-57
-52
-60
-76
-98
-123
-77
-12
53
118
183
248
313
378
444
505
440
374
309
243
178
112
47
-15
-64
-99
-95
-92
-96
-97
-94
-92
-92
-92
-92
-89
-82
-81
-87
-88
-84
-86
-93
-92
-86
-84
-85
-84
-81
-83
-87
-87
-85
-87
-91
-92
-92
-92
-92
-95
-98
-99
-100
-102
-104
-107
-110
-111
-114
-121
-127
-132
-138
-144
-151
-159
-167
-176
-183
-190
-196
-200
-203
-205
-206
-206
-204
-201
-196
-190
-180
-170
-157
-144
-132
-121
-112
-120
-96
-90
-87
-84
-79
-74
-78
-82
-81
-80
-80
-80
-81
-82
-81
-80
-82
-82
-77
-74
-77
-75
-69
-66
-66
-65
-62
-57
-52
-50
-50
-50
-49
-46
-43
-42
-41
-40
-41
-41
-39
-38
-38
-38
-38
-38
-38
-35
-32
-31
-30
-33
-36
-34
-32
-30
-28
-28
-28
-27
-26
-24
-22
-22
-22
-23
-23
-21
-21
-23
-24
-23
-22
-23
-20
-15
-14
-13
-13
-15
-16
-16
-16
-16
-17
-18
-16
-14
-14
-14
-9
-3
2
6
7
8
7
9
18
28
39
46
48
50
53
54
54
58
65
59
44
38
39
32
19
9
-2
-4
-5
-11
-17
-17
-15
-16
-14
-15
-10
-10
-10
-8
-6
-8
-11
-20
-38
-81
-101
-61
-13
52
117
182
247
312
377
442
441
375
310
244
179
113
47
-18
-38
-37
-33
-28
-28
-31
-30
-27
-28
-31
-31
-29
-31
-34
-35
-36
-35
-34
-37
-40
-39
-38
-39
-40
-39
-39
-44
-48
-47
-47
-50
-52
-51
-50
-50
-52
-57
-60
-59
-59
-61
-64
-67
-68
-67
-67
-69
-76
-84
-92
-99
-103
-107
-117
-128
-132
-136
-141
-146
-148
-150
-152
-153
-145
-136
-128
-118
-104
-90
-77
-62
-47
-34
-25
-17
-8
-2
3
7
10
12
12
12
13
14
13
13
15
16
15
15
17
18
17
19
16
24
24
28
32
32
32
31
30
33
36
35
34
32
31
34
35
32
30
30
30
27
26
26
26
26
25
22
20
20
19
17
16
17
17
15
14
14
14
13
12
12
11
10
9
8
9
10
8
6
6
6
6
6
5
4
4
4
4
4
2
0
0
0
-1
-3
-6
-7
-5
-4
-4
-1
4
8
11
14
17
18
18
24
31
41
51
51
48
50
52
57
62
63
63
55
47
39
30
18
8
0
-7
-10
-12
-14
-16
-17
-18
-19
-20
-21
-21
-19
-18
-19
-18
-15
-33
-59
-80
-98
-50
15
80
145
210
275
340
279
471
530
465
399
334
268
203
137
72
14
-20
-44
-45
-46
-45
-45
-48
-50
-48
-46
-47
-49
-51
-51
-49
-49
-51
-52
-52
-52
-53
-54
-55
-56
-57
-58
-59
-60
-60
-62
-65
-67
-68
-69
-70
-73
-76
-76
-76
-78
-80
-82
-84
-86
-89
-93
-97
-102
-108
-113
-119
-126
-132
-137
-143
-151
-155
-158
-161
-165
-166
-165
-162
-159
-152
-144
-131
-116
-103
-90
-77
-65
-58
-50
-44
-38
-33
-28
-28
-28
-28
-28
-29
-30
-29
-28
-29
-30
-30
-30
-30
-30
-30
-30
-30
-30
-29
-28
-27
-25
-23
-21
-19
-16
-13
-10
-7
-6
-7
-8
-7
-6
-7
-8
-8
-8
-6
-8
-10
-9
-8
-11
-14
-12
-10
-11
-12
-12
-12
-11
-10
-11
-12
-11
-10
-11
-12
-12
-12
-11
-10
-10
-10
-9
-8
-7
-6
-6
-6
-7
-8
-7
-6
-7
-7
-5
-3
-2
-2
-2
-2
-2
1
5
12
18
19
20
23
27
31
38
49
57
60
62
62
64
69
75
81
77
65
59
55
44
29
18
10
4
-2
-4
-5
-6
-6
-6
-6
-7
-10
-8
-6
-6
-6
-4
-2
-7
-19
-57
-84
-72
-45
20
85
150
215
280
345
410
450
463
436
370
305
239
174
108
42
-23
-40
-35
-34
-35
-36
-35
-34
-35
-34
-31
-30
-30
-27
-24
-22
-20
-23
-26
-26
-26
-26
-26
-27
-28
-27
-26
-27
-29
-33
-36
-36
-36
-36
-37
-39
-41
-44
-45
-43
-43
-45
-48
-51
-53
-55
-57
-59
-61
-63
-73
-83
-89
-95
-99
-102
-108
-114
-114
-114
-120
-125
-118
-111
-105
-98
-88
-75
-59
-44
-33
-22
-9
1
8
15
21
25
28
31
33
34
34
34
35
33
29
28
29
32
35
34
31
30
31
32
32
32
32
37
42
40
38
41
44
45
47
52
55
51
50
57
60
54
50
51
52
52
52
51
52
56
55
50
51
56
55
50
48
48
48
49
50
51
50
47
47
46
53
56
53
50
52
54
52
50
50
50
48
47
52
55
50
46
48
51
54
58
63
66
66
68
72
75
77
84
94
103
111
116
119
120
120
125
131
131
129
118
107
95
84
76
68
60
52
48
44
41
38
34
30
31
32
32
32
33
32
27
24
25
15
-7
-36
-70
-46
19
84
149
214
279
344
409
474
539
497
432
366
301
235
170
104
39
9
-20
-21
-22
-22
-22
-23
-24
-22
-20
-22
-24
-24
-24
-25
-26
-28
-30
-30
-31
-34
-36
-37
-39
-42
-45
-47
-48
-49
-51
-53
-54
-54
-58
-63
-64
-64
-65
-67
-69
-68
-73
-74
-78
-82
-85
-88
-95
-101
-108
-115
-124
-131
-137
-144
-150
-155
-159
-162
-163
-164
-161
-157
-151
-142
-129
-115
-100
-85
-71
-58
-46
-37
-30
-26
-23
-18
-13
-12
-12
-12
-11
-11
-12
-11
-10
-12
-14
-14
-14
-13
-12
-11
-10
-9
-8
-6
-4
-2
0
0
0
1
3
5
6
6
6
6
5
1
0
0
-1
-3
-4
-4
-4
-5
-8
-11
-12
-11
-11
-14
-14
-14
-14
-14
-15
-16
-16
-16
-16
-16
-15
-14
-15
-16
-17
-18
-18
-18
-18
-18
-19
-20
-20
-20
-19
-18
-18
-17
-15
-14
-15
-10
-2
0
1
6
11
15
19
28
20
41
44
44
44
47
50
57
61
55
48
39
29
17
4
-9
-20
-26
-30
-32
-35
-38
-40
-40
-41
-43
-44
-44
-44
-44
-44
-43
-45
-49
-76
-110
-113
-109
-51
14
79
144
210
275
340
405
470
519
454
388
323
257
192
126
61
1
-46
-76
-77
-78
-78
-78
-78
-77
-75
-74
-75
-76
-76
-76
-76
-76
-77
-78
-78
-79
-81
-82
-81
-83
-87
-88
-88
-89
-92
-92
-92
-94
-96
-97
-98
-100
-102
-103
-104
-105
-107
-111
-114
-116
-119
-123
-127
-131
-136
-141
-148
-156
-162
-168
-172
-176
-179
-181
-184
-187
-187
-185
-181
-177
-168
-157
-144
-129
-116
-128
-92
-82
-72
-62
-56
-50
-49
-48
-44
-40
-42
-44
-43
-42
-43
-44
-45
-46
-44
-43
-48
-49
-47
-46
-47
-47
-45
-44
-43
-41
-39
-38
-38
-38
-37
-36
-35
-34
-34
-34
-35
-37
-38
-39
-40
-41
-42
-41
-40
-40
-40
-42
-44
-42
-40
-42
-44
-43
-42
-44
-46
-45
-44
-45
-46
-46
-45
-43
-43
-47
-48
-48
-48
-47
-46
-46
-46
-45
-45
-47
-44
-39
-34
-28
-25
-22
-19
-15
-4
7
17
26
25
24
22
22
30
36
37
34
23
12
0
-11
-24
-33
-39
-44
-50
-52
-52
-52
-52
-52
-53
-54
-54
-55
-57
-55
-51
-50
-51
-65
-52
-115
-148
-97
-44
21
86
151
216
281
346
411
440
375
309
243
178
112
47
-19
-61
-76
-84
-83
-83
-85
-86
-87
-88
-88
-89
-91
-90
-87
-86
-87
-88
-89
-93
-97
-98
-99
-103
-106
-104
-102
-103
-104
-105
-106
-107
-109
-114
-118
-117
-116
-118
-120
-120
-121
-124
-126
-127
-129
-131
-133
-136
-140
-144
-149
-156
-160
-164
-170
-176
-181
-185
-187
-189
-190
-190
-190
-189
-186
-182
-172
-162
-151
-139
-123
-109
-100
-90
-79
-70
-68
-66
-63
-59
-56
-54
-54
-54
-53
-52
-53
-54
-55
-56
-57
-58
-58
-58
-58
-58
-58
-57
-55
-54
-54
-53
-51
-50
-51
-51
-52
-49
-50
-49
-48
-49
-50
-51
-52
-50
-48
-51
-54
-52
-51
-54
-56
-55
-54
-55
-56
-56
-56
-55
-54
-54
-54
-53
-54
-57
-57
-55
-54
-55
-56
-55
-54
-55
-56
-55
-54
-54
-55
-56
-55
-54
-54
-54
-53
-52
-52
-52
-48
-43
-38
-34
-32
-29
-25
-18
-7
3
10
14
14
14
14
20
30
30
23
16
10
-1
-15
-25
-34
-41
-47
-49
-51
-52
-53
-54
-56
-57
-58
-58
-58
-56
-54
-54
-54
-54
-61
-92
-118
-135
-124
-59
6
71
136
201
266
331
396
461
452
386
321
255
189
124
58
-7
-45
-74
-81
-83
-84
-83
-83
-85
-86
-86
-84
-84
-85
-86
-85
-84
-86
-88
-85
-82
-85
-88
-88
-88
-90
-92
-94
-96
-98
-100
-103
-104
-105
-107
-109
-110
-109
-109
-111
-112
-112
-112
-113
-118
-123
-125
-127
-134
-141
-144
-147
-154
-160
-164
-168
-173
-178
-177
-176
-175
-174
-174
-172
-162
-152
-142
-131
-116
-102
-89
-78
-69
-62
-57
-52
-47
-42
-38
-37
-41
-42
-41
-40
-39
-38
-37
-36
-37
-38
-38
-36
-33
-32
-30
-31
-32
-27
-22
-21
-20
-20
-20
-18
-17
-22
-25
-20
-15
-10
-8
-13
-16
-15
-14
-17
-17
-15
-15
-17
-18
-18
-16
-13
-13
-15
-14
-11
-10
-11
-10
-7
-3
1
1
2
-5
-8
-3
2
5
8
4
0
0
0
1
2
3
5
9
12
11
10
10
10
11
12
11
10
9
11
17
20
21
26
32
34
35
39
43
51
60
66
71
78
85
87
88
93
98
98
97
82
69
63
58
54
49
44
38
30
23
20
19
22
23
20
17
14
15
23
28
32
32
28
10
-15
-44
-75
-32
33
98
163
228
293
358
423
488
552
487
421
356
290
225
159
94
37
17
2
0
-2
-4
-6
-5
-4
-4
-5
-8
-9
-6
-4
-3
-4
-10
-12
-12
-12
-12
-12
-13
-14
-14
-16
-19
-23
-27
-27
-25
-24
-24
-29
-34
-37
-40
-39
-39
-46
-52
-54
-56
-57
-59
-64
-70
-76
-83
-91
-99
-106
-111
-116
-120
-124
-127
-129
-130
-131
-130
-127
-119
-109
-100
-90
-75
-59
-43
-26
-14
-1
7
15
23
30
31
32
33
34
33
32
35
38
36
33
29
27
32
36
37
38
39
40
41
42
43
45
48
50
49
47
45
46
49
49
47
46
46
46
45
43
41
41
43
44
42
40
38
38
38
34
30
32
34
35
36
34
32
32
32
32
32
32
32
31
30
30
30
29
28
28
28
28
28
28
28
27
26
26
26
25
24
23
22
22
22
22
20
18
19
20
20
20
24
28
32
36
36
36
38
42
50
58
64
68
66
64
67
72
80
81
75
69
63
50
33
22
13
5
-2
-6
-9
-11
-13
-14
-14
-14
-14
-16
-18
-17
-16
-16
-16
-14
-15
-33
-54
-86
-93
-28
37
102
167
232
297
362
427
492
493
427
362
296
231
165
100
34
-11
-46
-56
-56
-56
-56
-59
-63
-63
-61
-61
-63
-64
-64
-63
-62
-64
-66
-65
-64
-67
-70
-70
-70
-71
-72
-73
-74
-76
-78
-80
-82
-83
-84
-87
-89
-91
-93
-96
-98
-97
-98
-101
-103
-105
-109
-115
-120
-125
-132
-139
-143
-147
-152
-148
-163
-168
-170
-172
-174
-176
-176
-176
-172
-166
-157
-147
-135
-122
-110
-98
-86
-76
-71
-64
-53
-47
-45
-44
-43
-42
-42
-42
-43
-44
-44
-45
-47
-48
-49
-50
-50
-50
-50
-50
-49
-47
-46
-44
-42
-41
-40
-39
-38
-37
-36
-34
-32
-33
-34
-33
-32
-33
-34
-34
-34
-34
-34
-35
-36
-37
-38
-39
-40
-39
-38
-39
-41
-43
-44
-43
-43
-45
-46
-45
-44
-44
-44
-42
-43
-44
-43
-42
-42
-42
-41
-40
-38
-36
-37
-38
-37
-36
-36
-36
-36
-36
-36
-36
-37
-37
-34
-32
-33
-33
-31
-28
-25
-20
-14
-12
-11
-9
-7
1
9
19
29
30
30
31
32
40
48
46
43
34
24
13
2
-9
-19
-24
-29
-33
-36
-34
-33
-37
-40
-40
-40
-40
-40
-39
-38
-37
-36
-35
-46
-63
-92
-125
-86
-28
36
101
166
231
296
361
427
488
423
357
292
226
161
95
30
-27
-53
-72
-71
-70
-72
-74
-74
-74
-74
-74
-75
-76
-76
-76
-76
-76
-76
-76
-76
-76
-77
-80
-83
-84
-83
-84
-87
-87
-85
-87
-91
-92
-92
-94
-96
-97
-98
-99
-100
-102
-104
-104
-105
-109
-112
-114
-117
-122
-128
-134
-140
-145
-150
-157
-162
-166
-169
-171
-172
-172
-172
-172
-168
-162
-156
-150
-137
-123
-111
-100
-90
-81
-71
-80
-53
-46
-43
-40
-40
-40
-38
-36
-37
-38
-38
-38
-37
-37
-41
-43
-40
-38
-40
-41
-36
-35
-38
-38
-34
-31
-29
-27
-25
-24
-23
-22
-21
-20
-21
-23
-25
-25
-23
-22
-22
-23
-24
-23
-22
-23
-24
-23
-22
-24
-26
-23
-21
-26
-29
-25
-22
-22
-22
-23
-22
-17
-17
-23
-25
-23
-22
-23
-24
-24
-21
-16
-17
-22
-22
-19
-19
-21
-22
-21
-21
-23
-24
-22
-20
-18
-18
-18
-15
-12
-13
-14
-15
-14
-6
2
9
13
10
11
19
27
34
41
50
54
54
56
60
62
63
60
53
51
53
43
27
20
13
8
3
-5
-13
-12
-14
-12
-16
-16
-16
-15
-14
-13
-12
-13
-14
-11
-11
-25
-46
-85
-95
-53
-1
64
129
194
259
324
389
454
441
375
309
244
178
113
47
-18
-36
-43
-42
-39
-36
-33
-40
-49
-47
-44
-42
-40
-41
-42
-44
-46
-47
-48
-51
-54
-54
-54
-54
-55
-58
-60
-61
-62
-62
-62
-61
-62
-67
-70
-70
-69
-65
-66
-69
-70
-69
-71
-75
-78
-81
-83
-85
-93
-101
-106
-112
-118
-124
-131
-138
-144
-150
-151
-152
-155
-158
-158
-157
-151
-143
-134
-122
-104
-89
-75
-61
-46
-35
-28
-22
-16
-10
-3
0
1
2
2
2
1
0
0
0
-1
0
3
3
4
3
6
7
8
10
12
13
14
14
14
15
17
21
24
24
24
24
24
22
20
19
18
18
18
17
15
12
10
11
12
12
10
7
7
9
10
9
8
8
8
8
6
4
3
2
3
4
2
0
1
2
2
2
0
-2
0
1
-2
-4
-4
-4
-2
-1
-3
-3
-1
0
-1
-2
-3
-4
-5
-6
-5
-4
-4
-4
-4
-4
-3
1
5
6
8
11
14
17
20
29
37
44
50
47
45
49
53
57
59
54
48
43
34
18
6
-5
-12
-17
-21
-23
-25
-27
-29
-31
-32
-31
-30
-31
-32
-31
-30
-29
-29
-31
-60
-32
-100
-107
-42
23
88
153
218
283
348
413
478
507
442
376
310
245
179
114
48
-6
-49
-71
-73
-74
-73
-73
-75
-76
-76
-76
-76
-76
-75
-74
-75
-76
-77
-79
-81
-83
-85
-87
-88
-89
-90
-92
-94
-95
-96
-99
-102
-102
-102
-105
-108
-108
-108
-110
-112
-113
-116
-121
-125
-128
-132
-136
-142
-149
-153
-157
-162
-170
-176
-182
-186
-189
-193
-197
-198
-198
-197
-195
-190
-184
-173
-162
-148
-135
-123
-111
-98
-87
-80
-73
-68
-64
-61
-58
-59
-60
-60
-60
-60
-60
-61
-62
-63
-64
-64
-64
-65
-66
-66
-66
-67
-68
-67
-64
-61
-59
-57
-55
-53
-52
-52
-49
-48
-48
-48
-48
-48
-47
-46
-47
-48
-48
-48
-50
-52
-52
-52
-52
-52
-53
-54
-53
-52
-53
-54
-54
-54
-55
-56
-56
-56
-55
-54
-55
-56
-56
-56
-56
-56
-57
-58
-58
-57
-56
-57
-58
-58
-58
-58
-58
-60
-62
-60
-58
-59
-60
-60
-60
-60
-60
-59
-58
-58
-58
-59
-59
-57
-53
-48
-43
-38
-35
-33
-32
-31
-23
-14
-7
-1
1
3
4
3
10
20
18
16
7
-2
-11
-19
-31
-41
-47
-53
-60
-66
-65
-65
-68
-69
-66
-64
-66
-68
-67
-65
-63
-63
-65
-82
-109
-129
-145
-104
-39
26
91
156
221
286
351
416
481
423
485
292
226
161
95
30
-32
-68
-98
-99
-100
-100
-100
-100
-100
-101
-102
-100
-98
-100
-102
-101
-101
-104
-105
-103
-102
-103
-106
-109
-110
-110
-112
-115
-116
-116
-117
-119
-120
-121
-123
-125
-127
-128
-128
-128
-131
-134
-135
-136
-138
-140
-143
-147
-152
-157
-161
-165
-169
-174
-182
-186
-187
-190
-195
-198
-199
-200
-200
-197
-192
-184
-175
-164
-153
-140
-127
-117
-108
-98
-89
-85
-81
-79
-76
-74
-72
-73
-74
-76
-78
-78
-78
-78
-78
-79
-80
-79
-78
-80
-81
-78
-76
-77
-78
-78
-77
-74
-71
-69
-68
-67
-66
-66
-66
-65
-63
-61
-61
-63
-65
-67
-68
-67
-66
-66
-68
-70
-67
-64
-67
-70
-68
-66
-67
-68
-67
-66
-66
-66
-66
-65
-62
-60
-61
-61
-58
-56
-56
-56
-56
-57
-59
-59
-57
-55
-53
-52
-52
-52
-52
-52
-53
-51
-47
-49
-53
-49
-44
-43
-42
-42
-42
-39
-36
-38
-40
-40
-40
-37
-34
-30
-27
-22
-18
-16
-14
-14
-11
-4
6
19
24
25
28
32
36
40
42
43
35
23
16
11
3
-5
-14
-23
-30
-38
-35
-32
-31
-30
-32
-34
-35
-36
-34
-32
-31
-30
-31
-39
-62
-87
-115
-104
-39
26
91
156
221
286
351
416
481
459
394
328
263
197
132
66
1
-28
-51
-54
-53
-52
-52
-54
-54
-57
-60
-54
-48
-49
-50
-54
-58
-57
-56
-58
-61
-64
-65
-62
-62
-67
-70
-70
-71
-73
-74
-73
-73
-75
-78
-81
-83
-85
-86
-86
-87
-89
-94
-99
-101
-103
-106
-109
-112
-114
-120
-126
-133
-140
-144
-149
-157
-164
-165
-166
-168
-170
-166
-161
-152
-142
-131
-118
-102
-87
-71
-57
-44
-34
-25
-18
-11
-7
-5
-1
3
6
9
9
7
6
5
4
5
6
8
7
6
8
10
11
12
14
16
19
22
23
24
25
26
25
24
26
28
27
26
26
26
27
26
22
20
20
20
19
18
19
19
17
17
19
20
19
18
18
18
18
16
16
15
14
14
14
15
16
15
14
14
14
13
12
12
12
12
12
11
10
10
10
10
10
10
10
9
8
7
6
6
6
5
4
5
5
3
2
3
4
3
2
2
6
10
13
16
20
24
24
25
30
36
45
54
61
66
64
63
67
73
80
80
72
67
64
53
36
26
19
12
4
2
1
0
-1
-2
-3
-3
-1
0
-1
0
4
5
6
-7
-22
-58
-84
-44
1
66
131
196
261
326
391
456
471
405
340
274
209
143
78
12
-20
-27
-29
-26
-25
-27
-28
-28
-28
-27
-26
-27
-28
-28
-28
-29
-30
-30
-32
-34
-33
-32
-34
-36
-37
-38
-39
-40
-43
-46
-48
-50
-52
-54
-54
-55
-59
-62
-65
-67
-69
-70
-71
-72
-72
-75
-80
-84
-88
-93
-98
-104
-111
-116
-121
-125
-129
-131
-133
-136
-138
-136
-134
-132
-129
-117
-104
-92
-79
-65
-51
-38
-26
-16
-8
-2
2
4
7
11
13
11
10
10
11
13
13
11
10
9
8
9
10
11
12
11
11
13
13
11
12
16
18
20
19
18
20
22
22
22
24
26
25
24
23
22
21
20
19
18
19
20
17
17
19
20
19
18
18
18
18
18
18
18
18
18
17
16
17
18
17
16
16
15
16
15
14
14
14
13
12
12
12
12
12
11
10
9
8
9
10
9
8
7
6
6
6
5
4
5
6
5
5
7
8
8
12
19
23
27
31
35
36
37
46
54
66
78
77
76
79
83
90
96
96
94
85
75
65
55
45
35
26
19
16
14
13
12
12
12
11
10
9
9
11
12
12
13
15
-2
-25
-52
-79
-23
42
107
173
238
303
368
433
498
543
478
412
347
281
216
150
85
29
-6
-28
-26
-24
-25
-26
-27
-28
-27
-27
-29
-30
-29
-29
-31
-31
-29
-28
-29
-30
-31
-32
-33
-35
-37
-37
-38
-36
-38
-39
-40
-44
-48
-48
-48
-46
-44
-47
-50
-52
-54
-53
-53
-56
-59
-62
-66
-73
-76
-77
-82
-90
-97
-102
-108
-114
-118
-121
-123
-125
-125
-123
-119
-115
-104
-91
-78
-65
-52
-40
-26
-12
-5
3
15
26
26
26
30
34
35
36
32
30
29
28
28
28
27
26
25
25
27
28
29
29
27
26
27
27
25
28
34
34
31
31
33
34
33
33
36
35
34
35
36
36
36
36
36
37
38
41
44
41
38
38
39
42
44
42
40
39
40
45
49
51
51
49
48
49
50
50
52
55
55
53
52
51
53
57
58
58
59
58
60
62
57
52
55
58
59
60
59
58
58
58
59
60
59
58
58
60
65
72
80
83
81
83
89
92
92
99
111
118
124
132
140
141
139
146
155
156
157
144
130
127
123
109
96
92
87
80
74
73
72
71
70
70
71
75
78
76
74
74
74
74
62
38
8
-25
3
68
133
198
263
328
393
458
523
588
540
475
409
344
278
212
147
84
57
32
33
34
32
30
32
34
31
28
29
30
28
26
26
26
24
21
18
16
17
16
12
11
13
9
1
-3
-5
-5
-3
-5
-9
-10
-11
-14
-17
-21
-18
-28
-30
-32
-34
-38
-43
-50
-57
-64
-71
-78
-85
-91
-98
-105
-113
-121
-128
-133
-136
-137
-136
-132
-127
-121
-110
-95
-82
-68
-52
-33
-19
-7
4
14
21
27
31
35
37
39
39
38
37
36
34
32
33
34
32
30
32
34
35
36
37
38
39
40
40
41
44
46
45
44
45
46
46
45
43
42
42
39
35
34
35
34
31
30
30
28
25
24
22
22
22
19
16
16
16
14
12
11
10
10
10
11
12
10
8
7
6
5
4
3
2
3
4
3
2
3
4
4
4
5
6
6
6
5
4
5
6
5
4
4
5
6
6
6
7
8
6
4
7
10
13
17
22
27
30
32
34
39
47
54
61
63
61
61
64
70
77
79
77
71
63
52
41
29
16
9
3
-2
-7
-8
-9
-11
-12
-12
-12
-14
-16
-14
-12
-12
-12
-15
-25
-55
-78
-88
-71
-6
59
124
189
254
319
384
449
514
503
437
372
306
240
175
109
44
-7
-53
-62
-62
-62
-62
-62
-62
-62
-64
-63
-62
-65
-68
-67
-66
-67
-68
-68
-68
-71
-74
-74
-75
-78
-80
-82
-84
-86
-88
-91
-93
-95
-97
-100
-103
-105
-106
-107
-109
-111
-112
-113
-117
-121
-123
-125
-131
-137
-140
-138
-151
-158
-163
-168
-173
-178
-181
-184
-184
-184
-182
-179
-174
-168
-160
-150
-138
-124
-110
-98
-87
-78
-69
-62
-56
-52
-48
-45
-43
-42
-42
-43
-45
-45
-43
-43
-45
-47
-49
-50
-50
-51
-52
-51
-50
-49
-48
-47
-46
-45
-44
-43
-42
-40
-38
-37
-36
-34
-32
-33
-34
-34
-34
-35
-36
-36
-36
-35
-34
-35
-36
-37
-38
-39
-40
-39
-39
-41
-41
-39
-40
-43
-43
-40
-41
-42
-42
-42
-42
-42
-42
-42
-41
-40
-40
-40
-40
-40
-40
-40
-41
-42
-40
-38
-39
-39
-37
-36
-37
-38
-37
-36
-37
-38
-38
-38
-37
-36
-36
-36
-37
-38
-37
-35
-36
-30
-28
-24
-20
-17
-14
-13
-11
-4
4
14
22
23
24
23
24
31
38
43
40
27
19
16
6
-10
-19
-24
-30
-36
-39
-41
-42
-43
-44
-43
-42
-43
-44
-44
-42
-39
-39
-40
-53
-68
-104
-132
-96
-55
10
75
140
205
270
335
400
426
380
326
260
195
129
64
-2
-44
-68
-78
-79
-80
-80
-80
-79
-80
-83
-83
-81
-82
-85
-84
-81
-80
-81
-82
-80
-81
-82
-83
-84
-85
-86
-88
-90
-90
-90
-93
-96
-98
-100
-98
-96
-98
-100
-102
-105
-108
-110
-110
-110
-111
-113
-116
-120
-124
-131
-140
-142
-142
-145
-149
-157
-165
-168
-171
-172
-172
-172
-174
-169
-164
-154
-145
-135
-124
-108
-94
-81
-69
-58
-48
-42
-37
-31
-28
-26
-24
-23
-22
-22
-23
-26
-27
-25
-24
-25
-24
-20
-21
-25
-26
-27
-28
-27
-25
-23
-24
-27
-23
-18
-14
-10
-11
-12
-11
-10
-10
-10
-8
-6
-7
-8
-7
-6
-7
-8
-10
-12
-10
-8
-7
-5
-3
-6
-15
-14
-7
-5
-7
-8
-7
-7
-9
-9
-7
-6
-7
-9
-11
-10
-6
-4
-2
-1
0
-2
-4
-3
-2
-1
0
1
2
0
-1
3
6
5
4
4
6
11
12
8
6
6
6
6
8
12
14
15
18
21
26
31
37
43
42
39
50
38
69
74
79
84
90
96
100
104
102
98
88
79
74
66
54
45
39
34
28
24
24
24
24
24
25
26
25
23
21
25
32
30
24
-6
-42
-54
-63
-7
58
123
188
254
319
384
449
514
563
498
432
367
301
236
170
105
47
9
-16
-15
-15
-18
-20
-20
-20
-21
-22
-23
-24
-24
-26
-30
-32
-31
-33
-37
-38
-38
-42
-47
-49
-51
-54
-57
-59
-62
-64
-66
-69
-72
-74
-76
-78
-80
-84
-88
-91
-94
-95
-97
-102
-108
-114
-119
-122
-127
-136
-143
-149
-156
-164
-169
-172
-176
-180
-182
-181
-177
-173
-165
-156
-143
-130
-116
-101
-85
-100
-57
-46
-37
-28
-23
-18
-17
-16
-14
-12
-12
-12
-11
-10
-11
-12
-10
-8
-10
-12
-11
-9
-7
-6
-5
-4
-3
-2
-2
0
3
4
4
4
5
6
6
6
5
4
4
2
0
-1
-2
-4
-6
-7
-8
-9
-10
-11
-12
-13
-14
-14
-14
-14
-14
-15
-16
-16
-17
-19
-19
-17
-17
-19
-20
-20
-20
-19
-18
-19
-20
-20
-20
-20
-20
-20
-21
-23
-23
-20
-21
-22
-21
-20
-20
-20
-21
-22
-22
-22
-22
-22
-21
-20
-20
-20
-20
-20
-20
-20
-20
-19
-16
-13
-11
-8
-4
-1
1
4
9
17
26
29
31
32
33
36
39
45
40
40
28
24
19
5
-9
-18
-27
-33
-38
-40
-42
-42
-42
-44
-46
-45
-44
-46
-48
-45
-44
-43
-47
-58
-83
-119
-115
-88
-35
30
95
160
225
290
355
420
390
347
283
218
152
86
21
-41
-63
-82
-77
-72
-74
-76
-77
-78
-80
-82
-78
-76
-77
-78
-79
-80
-79
-78
-79
-80
-80
-81
-84
-86
-86
-87
-89
-91
-93
-94
-95
-98
-101
-102
-103
-105
-107
-108
-110
-112
-114
-116
-118
-121
-124
-128
-132
-135
-139
-144
-149
-154
-160
-167
-173
-177
-182
-187
-190
-191
-192
-192
-192
-191
-186
-179
-171
-163
-150
-136
-124
-113
-101
-88
-81
-75
-69
-63
-60
-62
-57
-58
-58
-58
-59
-60
-59
-58
-60
-62
-62
-62
-62
-62
-62
-62
-61
-60
-60
-60
-57
-56
-56
-55
-53
-52
-52
-51
-49
-48
-47
-46
-45
-44
-44
-46
-49
-49
-47
-48
-51
-51
-50
-50
-50
-50
-50
-51
-52
-52
-52
-52
-52
-53
-54
-54
-54
-54
-54
-54
-54
-54
-54
-54
-54
-53
-52
-53
-53
-51
-51
-53
-54
-53
-52
-52
-52
-52
-52
-52
-52
-53
-54
-52
-54
-56
-54
-52
-55
-58
-57
-56
-58
-60
-59
-58
-58
-58
-57
-56
-55
-52
-47
-42
-35
-32
-31
-28
-22
-13
-2
4
7
9
11
15
21
26
31
20
6
4
3
-11
2
-32
-38
-42
-46
-47
-48
-48
-48
-48
-48
-48
-48
-47
-46
-44
-42
-41
-48
-67
-91
-120
-104
-44
18
83
148
213
278
343
408
473
441
376
310
245
179
114
48
-17
-46
-73
-70
-66
-68
-70
-71
-72
-69
-66
-68
-70
-69
-68
-71
-74
-73
-72
-74
-76
-76
-76
-74
-73
-76
-78
-79
-82
-86
-87
-85
-86
-89
-90
-90
-92
-95
-96
-95
-95
-97
-98
-98
-99
-102
-106
-110
-112
-114
-123
-130
-134
-139
-144
-149
-155
-160
-162
-164
-165
-165
-162
-160
-158
-152
-141
-130
-118
-104
-90
-76
-61
-49
-38
-30
-24
-20
-17
-12
-7
-9
-13
-14
-13
-13
-12
-14
-12
-15
-18
-15
-12
-13
-14
-17
-19
-10
-4
-2
-1
-6
-7
1
6
5
4
7
8
9
11
13
14
15
15
13
13
15
14
11
11
13
14
13
14
17
18
17
16
16
17
18
14
10
11
12
10
8
10
12
13
14
12
10
11
12
11
10
11
12
12
12
12
12
13
14
15
16
15
15
17
18
17
16
16
16
17
18
18
18
20
19
18
20
22
22
22
22
23
28
32
35
38
41
44
43
45
53
62
74
80
80
81
83
85
88
90
91
84
72
64
58
49
38
28
18
11
5
4
3
2
2
-1
-2
-1
0
-2
-4
-1
2
2
-3
-27
-52
-83
-84
-20
44
109
174
239
304
369
434
499
492
426
361
295
229
164
98
33
-7
-39
-45
-43
-44
-47
-48
-49
-50
-51
-53
-54
-54
-54
-57
-60
-60
-60
-62
-64
-63
-63
-67
-70
-70
-71
-74
-76
-77
-78
-79
-81
-83
-85
-87
-89
-92
-94
-95
-97
-99
-101
-103
-106
-109
-114
-119
-122
-125
-134
-143
-148
-154
-161
-168
-172
-176
-180
-184
-186
-188
-186
-183
-178
-171
-160
-148
-135
-120
-105
-91
-79
-68
-59
-51
-44
-39
-37
-36
-35
-34
-34
-34
-33
-33
-35
-35
-33
-33
-35
-36
-36
-36
-36
-39
-40
-39
-38
-37
-36
-33
-30
-28
-26
-23
-20
-20
-20
-20
-20
-19
-18
-20
-22
-21
-20
-20
-21
-23
-24
-23
-22
-23
-24
-25
-26
-25
-24
-24
-25
-27
-27
-25
-24
-25
-26
-26
-27
-28
-29
-30
-29
-28
-29
-30
-31
-32
-32
-32
-30
-28
-30
-32
-31
-30
-31
-31
-29
-28
-29
-30
-30
-30
-29
-29
-31
-32
-31
-30
-31
-32
-32
-32
-33
-34
-34
-33
-30
-32
-34
-33
-32
-32
-31
-24
-18
-16
-13
-9
-6
-5
-2
7
15
23
28
27
27
30
35
41
43
40
33
25
14
2
-9
-19
-29
-38
-42
-45
-47
-49
-50
-50
-52
-50
-55
-54
-55
-56
-55
-54
-55
-61
-90
-114
-125
-116
-51
14
79
144
209
274
339
404
469
468
402
337
271
206
140
74
9
-38
-78
-88
-88
-90
-93
-93
-91
-90
-89
-89
-91
-91
-90
-90
-90
-92
-94
-93
-92
-93
-94
-94
-94
-95
-96
-97
-98
-100
-102
-102
-102
-103
-104
-105
-106
-106
-106
-107
-108
-109
-110
-111
-113
-115
-119
-123
-126
-129
-133
-137
-143
-149
-152
-156
-163
-170
-173
-176
-177
-178
-176
-173
-168
-162
-153
-143
-131
-119
-107
-95
-82
-71
-63
-55
-48
-43
-41
-39
-36
-34
-35
-37
-39
-39
-37
-37
-39
-40
-39
-39
-41
-42
-41
-40
-40
-38
-38
-38
-38
-38
-38
-34
-30
-31
-32
-29
-26
-29
-32
-31
-30
-30
-30
-31
-32
-31
-30
-30
-30
-30
-31
-33
-34
-33
-32
-32
-33
-35
-36
-36
-35
-33
-31
-29
-28
-29
-30
-30
-28
-26
-27
-28
-27
-26
-27
-28
-27
-26
-23
-20
-21
-22
-22
-22
-24
-26
-24
-22
-21
-20
-19
-18
-19
-18
-14
-14
-17
-18
-18
-18
-18
-18
-18
-16
-13
-14
-17
-17
-14
-16
-18
-17
-16
-16
-16
-12
-7
3
10
13
16
17
18
20
26
36
44
49
53
56
60
64
67
70
70
66
60
53
42
29
21
14
10
7
2
-3
-3
-1
0
0
0
-2
-2
-2
0
2
2
1
-5
-20
-63
-88
-63
-25
40
105
170
235
300
365
430
458
449
408
342
277
211
145
80
27
-20
-30
-27
-26
-26
-27
-29
-30
-31
-31
-29
-31
-34
-32
-30
-32
-34
-35
-36
-36
-36
-39
-42
-43
-44
-44
-45
-48
-51
-55
-58
-57
-57
-59
-60
-61
-63
-66
-68
-69
-70
-71
-75
-79
-82
-85
-90
-95
-100
-105
-112
-119
-125
-132
-138
-144
-149
-154
-157
-160
-159
-158
-155
-150
-142
-132
-118
-104
-91
-76
-61
-48
-38
-28
-19
-10
-2
2
3
4
5
5
3
3
5
5
3
2
1
-1
-3
-4
-5
-5
-6
-1
0
1
2
2
2
3
4
5
6
7
8
10
12
11
10
11
12
10
8
7
6
6
5
3
2
1
0
0
0
1
1
-1
-2
-3
-4
-4
-4
-4
-4
-3
-4
-6
-5
-4
-5
-6
-6
-6
-6
-6
-6
-6
-5
-4
-5
-5
-2
0
-2
-4
-5
-7
-9
-10
-10
-9
-7
-6
-7
-8
-9
-10
-10
-10
-10
-10
-10
-10
-10
-10
-10
-10
-10
-6
-2
2
6
10
14
14
15
20
26
36
45
50
54
54
54
56
62
71
70
57
50
49
40
24
14
7
1
-4
-7
-9
-10
-11
-13
-15
-16
-15
-14
-15
-14
-16
-9
-8
-14
-23
-60
-90
-75
-50
15
80
145
210
275
340
405
443
432
399
333
268
202
137
71
13
-39
-57
-51
-51
-56
-58
-57
-56
-57
-58
-59
-60
-60
-60
-60
-60
-61
-63
-64
-65
-66
-69
-72
-73
-74
-75
-76
-79
-82
-81
-81
-85
-88
-89
-91
-95
-98
-98
-99
-102
-103
-101
-102
-106
-108
-109
-113
-118
-124
-130
-135
-139
-146
-154
-159
-163
-169
-175
-176
-178
-178
-178
-178
-178
-172
-165
-157
-148
-133
-119
-107
-95
-83
-72
-63
-56
-51
-47
-43
-40
-40
-40
-39
-38
-39
-40
-39
-39
-41
-42
-42
-43
-45
-46
-45
-44
-43
-42
-42
-42
-42
-39
-38
-36
-34
-34
-34
-31
-28
-30
-32
-30
-28
-27
-26
-26
-26
-26
-26
-27
-28
-27
-26
-27
-28
-27
-26
-26
-26
-27
-28
-27
-26
-27
-28
-28
-28
-28
-28
-29
-30
-30
-30
-30
-30
-30
-30
-30
-29
-28
-29
-30
-29
-28
-28
-28
-28
-28
-27
-26
-26
-26
-26
-26
-26
-26
-26
-26
-26
-26
-25
-24
-24
-24
-25
-26
-25
-24
-25
-25
-23
-22
-23
-22
-18
-13
-8
-5
-2
1
4
4
6
16
25
31
36
37
39
42
46
51
53
50
44
33
24
16
7
-2
-10
-17
-22
-25
-26
-27
-28
-28
-28
-28
-28
-28
-28
-27
-27
-26
-33
-37
-70
-100
-90
-73
-8
57
122
187
252
317
382
447
512
529
463
398
332
267
201
136
70
14
-36
-57
-59
-60
-60
-60
-60
-60
-60
-60
-60
-61
-63
-67
-71
-70
-67
-68
-70
-70
-70
-72
-74
-75
-77
-83
-88
-87
-86
-86
-86
-87
-88
-90
-92
-93
-94
-96
-98
-98
-99
-102
-104
-104
-105
-109
-114
-120
-126
-132
-138
-144
-150
-155
-158
-161
-162
-163
-164
-164
-162
-160
-155
-149
-138
-126
-113
-99
-83
-68
-58
-47
-37
-28
-21
-16
-16
-15
-11
-9
-14
-15
-13
-14
-18
-19
-17
-16
-17
-17
-15
-14
-14
-14
-15
-13
-9
-8
-7
-7
-6
-7
-4
-2
0
0
0
2
4
6
8
7
6
6
6
8
11
14
15
12
10
13
13
10
9
12
15
17
16
13
12
13
14
15
17
19
20
20
18
15
16
19
19
18
18
18
18
18
19
20
17
14
15
16
18
20
18
16
18
20
20
20
22
23
21
20
20
20
21
22
21
20
21
22
21
20
20
20
20
23
27
31
35
38
42
42
42
49
56
63
70
77
82
83
84
86
89
95
97
88
80
74
65
53
42
33
25
19
14
8
8
12
12
9
8
8
7
5
4
4
4
5
0
-7
-43
-8
-68
-53
12
77
142
207
272
337
402
454
463
452
387
321
255
190
124
59
-5
-39
-36
-35
-37
-39
-41
-42
-42
-43
-45
-46
-47
-48
-48
-48
-48
-48
-49
-53
-57
-58
-59
-63
-66
-66
-66
-67
-68
-69
-70
-71
-72
-75
-78
-77
-77
-81
-84
-84
-85
-88
-90
-92
-97
-103
-108
-113
-119
-124
-130
-137
-144
-152
-158
-164
-169
-173
-178
-183
-184
-184
-184
-183
-176
-168
-156
-144
-131
-119
-105
-91
-81
-71
-63
-56
-53
-49
-44
-40
-41
-42
-41
-40
-40
-40
-40
-40
-39
-38
-39
-40
-40
-40
-40
-39
-37
-34
-31
-30
-29
-28
-27
-25
-23
-21
-22
-19
-20
-19
-18
-18
-18
-17
-16
-16
-16
-16
-16
-17
-18
-19
-20
-19
-18
-20
-22
-22
-22
-22
-22
-23
-23
-21
-20
-21
-22
-21
-21
-23
-24
-23
-23
-25
-26
-25
-24
-25
-26
-26
-26
-26
-27
-28
-26
-24
-26
-28
-27
-26
-26
-26
-26
-26
-26
-26
-26
-26
-26
-26
-27
-28
-27
-26
-26
-26
-25
-24
-23
-22
-22
-22
-22
-18
-13
-9
-5
-1
3
4
6
12
18
27
36
37
38
39
41
47
52
54
53
43
34
27
18
8
-1
-9
-16
-21
-24
-24
-25
-28
-30
-29
-28
-29
-30
-29
-28
-28
-28
-28
-48
-71
-94
-116
-57
-118
74
139
204
269
334
399
464
505
440
374
309
243
178
112
46
-8
-44
-66
-65
-64
-64
-64
-65
-66
-66
-66
-67
-68
-68
-68
-67
-67
-69
-70
-69
-69
-71
-72
-72
-72
-73
-76
-78
-80
-82
-83
-84
-84
-84
-86
-88
-87
-87
-91
-94
-96
-99
-102
-105
-108
-110
-111
-114
-118
-121
-124
-130
-137
-143
-150
-154
-158
-163
-168
-170
-171
-172
-173
-169
-163
-157
-151
-140
-128
-116
-104
-89
-76
-67
-60
-53
-48
-44
-40
-39
-38
-39
-40
-41
-42
-41
-40
-41
-42
-42
-42
-42
-43
-45
-45
-43
-43
-45
-45
-43
-42
-41
-39
-37
-36
-37
-37
-35
-33
-34
-31
-32
-31
-30
-29
-28
-27
-26
-29
-32
-31
-30
-30
-30
-30
-30
-31
-33
-36
-37
-32
-30
-31
-31
-29
-29
-31
-32
-31
-28
-25
-28
-34
-31
-24
-25
-29
-30
-29
-27
-25
-24
-24
-24
-24
-22
-20
-19
-18
-20
-22
-22
-21
-17
-15
-19
-22
-21
-20
-22
-23
-20
-18
-18
-17
-15
-14
-15
-16
-17
-18
-18
-18
-18
-15
-11
-7
-3
2
7
8
8
11
16
27
38
45
52
55
58
58
60
71
77
65
56
55
50
35
23
14
7
3
0
-1
-1
1
1
-2
-4
-3
-2
-3
-3
-1
1
3
3
1
-29
-62
-74
-83
-23
-84
108
173
238
303
368
433
498
539
474
408
343
277
212
146
80
28
-2
-22
-28
-32
-29
-28
-29
-30
-31
-33
-36
-38
-38
-38
-37
-38
-41
-42
-41
-42
-45
-46
-47
-48
-49
-53
-56
-56
-56
-59
-62
-63
-64
-67
-70
-72
-74
-74
-74
-76
-79
-82
-85
-89
-92
-94
-99
-105
-112
-120
-128
-135
-143
-151
-156
-160
-165
-169
-170
-170
-169
-167
-159
-151
-141
-131
-116
-100
-87
-74
-63
-51
-42
-34
-27
-22
-21
-20
-19
-18
-17
-16
-18
-20
-18
-16
-17
-18
-19
-19
-17
-16
-17
-17
-14
-12
-12
-10
-7
-5
-3
-2
-1
1
3
2
-1
0
-2
3
2
2
2
2
2
0
-2
-3
-4
-3
-2
-3
-4
-6
-8
-8
-8
-7
-6
-7
-8
-8
-8
-8
-8
-9
-11
-13
-14
-13
-12
-12
-12
-13
-14
-14
-14
-14
-14
-15
-17
-18
-16
-14
-16
-18
-16
-14
-16
-18
-18
-18
-19
-20
-19
-18
-19
-20
-19
-18
-16
-15
-17
-18
-17
-16
-17
-18
-18
-18
-18
-15
-10
-4
1
3
5
6
7
13
19
29
40
40
40
44
48
50
52
57
60
46
36
34
29
15
4
-5
-10
-12
-15
-19
-22
-21
-20
-21
-22
-23
-23
-21
-20
-21
-20
-17
-26
-39
-70
-105
-79
-42
20
85
150
89
281
346
411
465
410
353
288
222
157
91
26
-27
-46
-59
-56
-54
-56
-58
-60
-62
-61
-61
-63
-64
-64
-65
-67
-67
-65
-65
-67
-68
-69
-70
-71
-74
-77
-78
-78
-80
-83
-85
-86
-88
-90
-91
-92
-91
-90
-91
-92
-92
-92
-95
-98
-99
-101
-105
-109
-112
-115
-119
-125
-132
-139
-145
-151
-157
-161
-165
-168
-172
-174
-175
-175
-173
-167
-161
-150
-137
-124
-111
-98
-84
-75
-66
-59
-52
-47
-42
-40
-38
-37
-36
-36
-36
-35
-34
-36
-38
-38
-38
-39
-40
-39
-38
-39
-40
-40
-39
-37
-37
-39
-37
-32
-30
-30
-29
-27
-26
-26
-26
-25
-24
-24
-27
-28
-27
-26
-28
-30
-29
-28
-29
-30
-29
-28
-29
-30
-31
-32
-32
-32
-33
-34
-33
-32
-32
-32
-31
-31
-33
-34
-33
-32
-31
-30
-31
-32
-31
-31
-33
-32
-29
-29
-31
-31
-30
-31
-32
-30
-28
-27
-26
-25
-24
-24
-24
-25
-26
-24
-22
-24
-26
-28
-30
-28
-26
-25
-24
-24
-24
-25
-25
-21
-19
-17
-13
-9
-7
-5
-4
-3
5
13
20
27
28
30
31
32
39
46
47
47
35
26
23
17
3
-9
-14
-20
-27
-32
-31
-30
-30
-30
-27
-26
-27
-28
-29
-29
-26
-24
-23
-30
-41
-70
-105
-86
-53
7
72
137
202
267
206
398
459
437
410
345
279
214
148
83
22
-21
-52
-49
-48
-54
-58
-57
-56
-58
-60
-61
-63
-66
-66
-62
-60
-60
-61
-63
-65
-67
-68
-68
-67
-65
-68
-73
-76
-79
-83
-87
-87
-86
-87
-88
-90
-92
-91
-90
-91
-92
-95
-98
-100
-103
-107
-110
-112
-115
-118
-123
-130
-137
-144
-150
-155
-162
-169
-172
-172
-171
-169
-167
-165
-158
-150
-140
-130
-114
-98
-83
-69
-57
-44
-38
-32
-27
-22
-17
-12
-7
-2
-5
-8
-9
-10
-8
-6
-6
-6
-5
-4
-6
-8
-7
-5
-2
0
1
3
6
8
9
12
15
14
11
14
19
21
23
22
19
18
18
18
18
20
22
20
18
19
20
18
16
14
13
17
20
21
22
21
20
20
20
20
19
16
17
23
25
23
22
22
23
25
25
23
23
25
25
23
22
22
24
27
28
28
27
26
26
26
27
28
29
30
31
32
32
32
30
28
29
30
32
34
33
32
33
36
41
45
48
52
56
58
59
64
70
80
90
95
99
101
103
105
107
110
114
99
84
81
77
64
51
42
34
31
28
26
24
23
21
17
14
13
12
14
16
16
17
19
10
-9
-38
-74
-51
1
62
127
192
257
322
387
452
517
465
400
334
396
203
137
72
10
-17
-40
-37
-34
-38
-42
-43
-44
-44
-44
-46
-48
-47
-46
-48
-50
-51
-53
-55
-56
-55
-54
-54
-54
-55
-58
-61
-64
-67
-68
-68
-69
-71
-72
-72
-73
-75
-78
-80
-81
-82
-84
-86
-88
-90
-93
-96
-99
-103
-109
-116
-123
-130
-137
-144
-152
-158
-163
-167
-170
-172
-172
-172
-171
-165
-155
-145
-135
-121
-106
-92
-79
-66
-54
-44
-35
-31
-27
-23
-18
-18
-18
-17
-16
-17
-18
-18
-18
-18
-18
-19
-20
-19
-18
-18
-18
-16
-14
-13
-12
-9
-7
-5
-4
-3
-2
-1
0
0
0
1
1
-1
-2
-1
-1
-3
-4
-3
-2
-2
-6
-8
-7
-6
-7
-8
-7
-6
-6
-6
-5
-4
-6
-8
-8
-8
-8
-8
-8
-8
-7
-7
-9
-9
-7
-7
-9
-10
-10
-10
-10
-10
-9
-8
-9
-10
-11
-12
-11
-10
-10
-10
-10
-11
-12
-11
-10
-11
-12
-12
-12
-12
-12
-12
-12
-11
-10
-12
-13
-10
-6
-1
3
6
10
14
16
17
24
34
42
50
52
52
53
55
61
67
70
73
63
51
45
38
26
14
7
0
-6
-12
-12
-12
-13
-14
-15
-16
-16
-16
-15
