72
1
-65
-130
-196
-261
-320
-340
-350
-313
-274
-229
-180
-119
-70
-46
-26
-14
-6
-5
-3
0
4
9
12
13
14
15
16
17
18
18
20
23
24
24
24
25
26
27
32
37
37
36
38
40
44
48
54
60
59
59
65
70
69
69
74
79
82
84
83
87
99
106
105
104
104
104
105
105
103
102
101
102
105
102
97
95
93
86
79
75
71
66
60
53
46
43
40
37
34
30
26
23
20
17
14
13
12
11
9
6
4
4
4
3
2
3
4
4
4
3
1
-1
-1
1
2
3
4
5
6
7
7
5
4
4
6
6
6
6
5
4
2
0
4
8
5
2
2
2
2
2
1
0
-1
-2
-1
-1
-3
-3
-1
-1
-3
-4
-4
-5
-7
-8
-7
-6
-6
-6
-5
-4
-5
-5
-3
-2
-2
-1
0
1
2
3
4
4
4
6
9
15
20
19
19
24
28
29
30
32
34
33
30
25
21
19
15
10
6
3
0
-3
-2
1
1
-1
-2
-3
-6
-9
-10
-12
-12
-12
-9
-6
-6
-6
-7
-7
0
13
45
60
33
13
8
13
36
55
67
43
-23
-88
-154
-219
-285
-330
-363
-350
-315
-278
-241
-183
-118
-75
-38
-18
-2
0
1
5
2
10
10
12
14
12
10
14
18
19
20
20
20
23
26
27
28
30
32
33
34
35
37
40
42
42
43
45
48
51
56
62
65
67
71
75
79
83
84
85
89
93
96
98
99
100
98
96
101
106
104
102
98
93
88
84
86
87
83
78
72
66
60
53
46
44
48
45
36
31
29
26
22
18
15
14
13
12
11
10
9
8
9
10
10
10
10
9
8
9
10
10
10
10
10
12
14
12
10
9
9
12
14
12
11
16
17
14
13
15
14
10
12
18
18
13
12
11
10
11
11
9
10
13
11
14
5
4
4
4
4
4
2
0
0
0
0
0
3
5
2
0
1
2
4
6
3
2
3
3
1
0
1
1
-1
-2
-2
-2
-1
0
-1
-2
-3
-3
-1
2
5
8
10
12
14
14
14
13
12
15
17
11
5
0
-5
-10
-15
-19
-22
-24
-26
-26
-26
-26
-26
-25
-24
-23
-23
-25
-25
-23
-22
-22
-21
-19
-16
-13
-12
-11
20
52
43
30
8
-13
3
19
36
40
-25
-91
-156
-222
-287
-342
-369
-380
-357
-327
-287
-236
-172
-117
-73
-41
-20
-8
-2
2
6
9
11
14
17
18
19
20
21
23
25
26
25
26
24
28
26
27
28
31
34
34
34
35
36
38
40
41
42
44
46
47
49
52
54
57
60
64
66
67
69
72
74
75
78
82
84
84
84
84
84
84
84
85
85
83
80
78
74
70
66
62
60
58
54
49
43
38
37
35
28
23
19
16
14
11
7
4
4
4
4
3
0
-4
-8
-7
-2
-1
-3
-5
-7
-6
-3
-2
-2
-3
-5
-6
-4
-5
-6
-7
-8
-8
-8
-7
-6
-6
-6
-6
-6
-6
-6
-7
-8
-7
-6
-6
-6
-7
-8
-8
-8
-7
-7
-9
-10
-11
-11
-9
-11
-15
-15
-13
-12
-13
-14
-13
-11
-12
-7
-6
-5
-4
-3
-2
0
2
5
8
7
7
11
14
14
15
18
20
19
18
19
20
20
20
21
23
25
28
32
34
34
35
37
38
39
40
40
41
43
36
27
22
18
14
10
4
-2
-2
-2
-1
0
-4
-8
-10
-12
-14
-16
-17
-18
-18
-18
-17
-16
-17
-18
-19
-13
1
19
41
27
-5
-11
-7
4
17
31
44
-11
-76
-142
-207
-273
-338
-350
-361
-333
-305
-277
-243
-184
-130
-96
-65
-42
-25
-19
-13
-10
-7
-3
0
-1
-2
1
3
6
8
8
9
12
16
19
20
20
22
25
27
29
30
29
31
35
36
36
38
40
42
44
46
48
50
52
53
55
60
64
65
67
71
74
75
76
75
74
77
78
77
76
77
77
74
72
72
71
69
65
60
55
51
48
45
39
33
30
27
25
24
23
22
19
16
17
18
17
16
14
12
15
18
16
14
14
14
15
16
15
14
15
16
16
16
16
15
11
10
11
12
11
10
9
8
9
10
9
8
8
8
8
8
8
4
0
3
6
4
2
2
2
1
0
-2
-4
-5
-7
-10
-12
-10
-8
-8
-8
-9
-10
-10
-10
-10
-11
-13
-14
-14
-14
-15
-16
-16
-16
-17
-17
-15
-14
-14
-17
-18
-15
-12
-16
-20
-20
-20
-17
-14
-12
-10
-7
-3
2
6
4
3
7
10
9
9
11
8
1
-3
-5
-7
-9
-13
-18
-20
-19
-18
-18
-18
-19
-20
-21
-22
-22
-20
-18
-19
-20
-19
-18
-17
-16
-15
-9
17
36
38
33
8
-3
11
27
47
50
32
-10
-76
-141
-207
-270
-331
-349
-341
-315
-280
-239
-196
-142
-84
-52
-26
-13
-1
2
5
9
14
15
16
19
22
23
24
24
24
25
27
31
34
34
34
34
34
34
35
38
40
39
39
42
44
45
47
49
52
55
56
55
57
63
64
65
68
71
74
77
79
78
81
80
83
86
85
84
82
80
81
82
81
79
75
71
67
63
59
54
48
44
41
38
33
28
22
20
19
16
12
9
7
4
1
0
-1
-2
-2
-2
-2
-4
-7
-7
-6
-8
-10
-8
-6
-7
-8
-8
-8
-7
-6
-7
-8
-6
-4
-4
-4
-4
-4
-3
-2
-3
-4
-5
-5
-3
-3
-5
-6
-5
-4
-3
-4
-7
-8
-7
-4
-1
-2
-5
-6
-4
-5
-6
-6
-6
-6
-6
-4
-2
-2
-2
-3
-4
-4
-4
-4
-4
-5
-6
-6
-6
-9
-9
-6
-5
-8
-9
-7
-8
-11
-13
-15
-13
-7
-9
-13
-13
-11
-10
-9
-5
-8
-2
-4
2
8
8
8
6
4
10
13
4
-2
-1
-1
-6
-10
-12
-14
-16
-18
-17
-17
-19
-20
-21
-22
-23
-24
-24
-24
-23
-22
-23
-24
-23
-22
-23
-18
-11
19
51
31
10
-3
-14
13
40
58
63
-2
-68
-133
-199
-264
-324
-369
-387
-357
-324
-287
-237
-173
-121
-81
-52
-32
-21
-16
-14
-13
-11
-9
-5
-1
0
1
3
5
8
11
12
11
14
20
19
18
21
24
26
28
31
34
35
36
37
39
44
48
49
51
54
58
63
66
69
72
76
79
82
84
85
86
87
88
89
90
91
92
92
92
93
92
89
85
88
78
76
70
64
61
57
50
44
41
37
28
22
19
15
12
9
6
4
3
1
-2
-4
-4
-4
-4
-5
-7
-7
-5
-5
-7
-8
-7
-6
-7
-8
-7
-5
-3
-2
-2
-1
0
1
2
0
-2
-3
-4
-2
0
0
0
-3
-6
-5
-4
-4
-5
-9
-11
-8
-7
-10
-12
-13
-14
-13
-12
-13
-14
-15
-15
-13
-12
-13
-12
-9
-9
-11
-11
-9
-8
-6
-6
-6
-5
-4
-5
-6
-4
-2
-3
-4
-2
0
1
1
-4
-7
-3
0
-1
-2
-2
-2
-1
0
0
-1
-4
-5
-3
-2
-3
-4
-5
-6
-5
-2
1
5
9
10
10
10
8
11
14
12
10
9
7
-2
-10
-11
-13
-17
-21
-24
-27
-30
-31
-27
-24
-24
-25
-28
-30
-29
-28
-28
-28
-29
-29
-27
-25
-23
-23
-25
-4
23
28
31
5
-25
-8
10
37
61
37
8
-57
-123
-188
-254
-319
-371
-383
-378
-331
-283
-235
-181
-119
-75
-53
-37
-27
-20
-16
-14
-14
-11
-4
-3
-5
-5
-3
-2
-2
-2
-2
-2
-1
-2
-5
-2
4
6
8
7
6
9
12
14
16
20
24
23
23
27
31
35
40
45
48
50
54
59
64
68
70
71
73
75
77
79
80
81
82
82
82
82
80
77
74
71
68
70
59
54
48
42
41
39
32
26
24
22
19
15
10
6
5
3
0
-2
-4
-6
-7
-8
-9
-10
-11
-12
-13
-14
-13
-12
-12
-13
-15
-15
-13
-13
-15
-15
-13
-12
-13
-13
-12
-13
-14
-10
-6
-8
-10
-7
-4
-6
-8
-6
-4
-4
-4
-5
-6
-6
-6
-8
-11
-14
-16
-15
-14
-15
-16
-16
-16
-17
-19
-21
-22
-22
-22
-23
-24
-23
-22
-22
-22
-22
-25
-28
-25
-22
-23
-24
-26
-28
-26
-24
-23
-22
-25
-27
-24
-22
-23
-24
-24
-24
-24
-23
-21
-20
-20
-20
-20
-17
-12
-10
-10
-10
-9
-4
1
3
5
4
1
3
0
0
-8
-10
-12
-17
-22
-24
-26
-27
-28
-28
-28
-26
-26
-33
-37
-34
-32
-32
-32
-29
-28
-28
-28
-29
-30
-29
-24
-17
6
34
26
5
-4
-9
2
18
31
45
-15
-80
-146
-212
-277
-338
-347
-354
-336
-316
-292
-260
-205
-153
-110
-73
-51
-32
-21
-13
-10
-8
-7
-4
0
2
1
1
3
5
7
8
8
8
8
11
15
15
13
16
21
20
17
18
22
23
24
29
34
36
38
42
46
48
51
55
59
63
66
68
71
74
76
78
80
81
82
83
85
87
87
85
84
83
80
77
76
76
71
64
59
55
51
47
42
46
31
26
26
26
22
18
15
12
10
8
6
4
4
4
4
4
3
2
2
2
1
1
4
5
3
3
5
6
6
6
6
6
7
9
11
12
12
12
12
12
13
15
16
18
20
19
18
15
12
13
14
13
12
11
10
10
10
9
8
6
4
5
6
5
4
4
4
3
2
1
0
1
2
2
2
3
4
3
1
-1
-1
1
3
6
5
4
4
4
4
4
0
-3
4
9
5
2
3
4
6
9
12
14
16
19
22
22
18
18
24
26
26
26
27
23
16
14
15
9
0
1
5
6
6
5
6
2
2
-2
-6
-4
-2
-2
-2
-3
-4
-3
-2
-4
-6
-4
8
36
52
50
38
15
10
22
39
60
59
44
-5
-70
-136
-201
-267
-332
-345
-343
-314
-280
-235
-187
-130
-71
-52
-34
-12
8
8
8
10
12
15
18
17
16
16
16
17
19
24
28
29
30
29
29
32
37
43
43
37
39
49
52
51
55
62
64
64
66
69
70
70
78
87
87
84
87
90
96
102
101
100
103
107
113
115
103
97
109
117
113
108
102
100
105
101
84
79
86
81
65
63
72
68
56
51
49
42
34
34
37
38
39
37
33
32
32
30
30
27
24
28
32
30
28
28
28
27
26
24
23
26
25
17
16
26
33
36
36
31
28
28
28
29
29
27
26
25
27
31
26
18
19
23
24
25
26
25
22
20
18
16
12
8
10
12
15
18
15
12
11
10
9
8
10
11
8
7
11
10
1
-2
3
6
7
8
9
10
10
10
11
12
13
18
23
23
21
20
21
23
26
21
16
11
6
2
-2
-2
-2
-5
-8
-8
-8
-6
-4
-5
-6
-6
-6
-6
-6
-5
-3
-1
0
0
0
0
0
1
19
44
53
57
38
12
18
30
53
76
60
78
-25
-91
-156
-222
-287
-345
-355
-355
-305
-255
-205
-153
-98
-53
-29
-11
-3
2
3
5
10
12
13
15
18
20
20
20
20
21
23
26
29
28
25
27
31
32
32
33
35
38
40
43
46
47
48
56
62
59
57
63
68
69
71
76
81
86
90
92
94
95
95
93
94
99
100
96
95
99
96
90
88
87
84
81
76
71
64
57
55
53
50
46
41
36
31
26
27
28
25
21
16
12
14
16
13
10
11
12
11
10
11
12
11
10
11
12
11
10
10
10
10
10
11
12
13
13
11
11
13
14
14
14
14
12
12
12
12
13
14
9
4
7
10
11
12
9
6
8
9
5
2
4
6
5
6
10
9
3
1
4
6
5
4
4
6
9
8
5
2
-1
-2
-1
0
-1
-2
-2
-4
-6
-3
0
-2
-4
-4
-4
-3
-2
0
3
8
13
18
21
18
17
20
23
25
28
33
30
19
15
19
14
5
2
3
0
-5
-6
-6
-6
-6
-8
-11
-12
-10
-11
-12
-13
-14
-13
-12
-11
-10
-10
-9
-3
11
44
60
40
25
17
19
37
52
65
38
-28
-93
-159
-224
-290
-324
-342
-326
-296
-266
-236
-182
-123
-85
-50
-25
-2
6
0
17
20
22
24
25
26
24
22
26
30
33
35
29
26
33
38
38
38
40
42
45
46
46
47
50
52
51
54
60
63
65
70
76
78
79
86
93
94
95
100
105
106
106
110
114
114
114
110
106
108
110
108
106
106
105
101
96
90
86
86
81
70
64
63
60
56
51
45
40
36
34
35
32
26
24
24
24
23
22
23
23
21
20
18
19
20
18
16
17
18
18
18
18
19
23
26
23
20
20
20
21
20
15
12
11
10
10
10
10
9
7
6
6
4
1
0
1
2
2
2
1
-2
-5
-6
-6
-6
-8
-7
-6
-7
-8
-11
-14
-12
-10
-8
-6
-7
-8
-9
-10
-8
-6
-7
-8
-5
-4
-4
-4
-3
-3
-6
-7
-5
-5
-7
-6
-3
-3
-5
0
7
8
7
10
15
14
12
13
14
13
12
8
4
1
-2
-4
-7
-12
-16
-16
-16
-16
-16
-17
-20
-25
-28
-27
-26
-27
-27
-24
-23
-25
-24
-20
-18
-17
-16
-16
6
34
37
35
17
-3
7
20
40
59
28
-7
-72
-138
-203
-265
-310
-342
-334
-320
-293
-257
-207
-158
-110
-73
-52
-35
-22
-15
-13
-11
-8
-6
-5
-3
-1
1
3
4
5
8
11
12
11
11
13
14
14
17
18
18
18
22
26
30
34
37
40
42
45
49
53
58
63
67
71
75
78
81
85
91
93
91
93
98
99
97
98
102
103
101
99
97
96
95
88
81
76
71
68
66
58
50
47
43
35
28
22
18
14
9
5
1
-4
-8
-8
-8
-9
-10
-11
-12
-12
-12
-11
-10
-11
-11
-7
-7
-9
-10
-10
-6
-1
-1
-3
-5
-7
-6
-3
-3
-6
-5
-4
-8
-12
-9
-6
-7
-8
-8
-8
-10
-12
-12
-12
-11
-10
-10
-11
-14
-16
-15
-15
-17
-17
-15
-14
-14
-14
-14
-14
-14
-14
-13
-12
-13
-14
-15
-16
-17
-18
-18
-20
-22
-17
-12
-16
-20
-19
-18
-15
-12
-13
-14
-13
-11
-8
-6
-4
-1
2
4
7
8
7
6
7
8
8
7
5
1
-4
-9
-13
-17
-21
-25
-29
-27
-23
-26
-31
-32
-32
-30
-28
-27
-26
-26
-26
-25
-24
-25
-26
-23
-20
-19
-8
22
36
26
13
-5
-7
7
25
47
26
-25
-85
-151
-217
-282
-327
-365
-358
-338
-311
-282
-226
-165
-124
-84
-65
-46
-36
-26
-25
-24
-23
-22
-20
-18
-15
-12
-9
-6
-8
-9
-5
-2
-2
-2
-1
0
0
2
6
8
8
10
14
20
26
28
28
29
31
34
37
41
45
47
49
55
50
63
64
68
72
69
66
73
78
80
82
80
78
75
72
72
72
72
69
62
58
57
52
44
38
32
27
22
18
15
9
1
0
3
-1
-8
-9
-7
-6
-6
-7
-9
-12
-14
-13
-12
-11
-10
-10
-10
-10
-10
-10
-10
-9
-8
-7
-6
-6
-6
-7
-8
-8
-9
-11
-10
-6
-6
-10
-12
-12
-10
-7
-7
-9
-11
-13
-10
-5
-6
-9
-9
-7
-6
-6
-8
-10
-12
-14
-7
0
-3
-6
-7
-8
-6
-4
-2
0
0
0
-2
-4
-4
-4
-1
0
-1
-1
1
1
-1
-2
-1
-2
-5
-3
1
2
3
4
5
3
-1
3
-2
5
0
-1
-2
-8
-14
-12
-11
-18
-24
-24
-24
-22
-21
-24
-26
-26
-26
-27
-28
-28
-28
-27
-26
-25
-24
-24
-23
-21
-20
-20
-4
19
28
33
14
-11
-3
11
34
57
41
22
-43
-109
-174
-240
-305
-359
-353
-341
-309
-272
-224
-175
-126
-85
-57
-37
-28
-22
-20
-16
-12
-9
-6
-4
-4
-4
-4
-1
4
6
6
7
9
10
10
10
9
12
17
18
16
16
16
17
18
23
28
30
32
35
38
41
45
51
56
58
62
67
70
71
74
79
82
82
83
86
88
87
85
83
81
79
78
77
74
71
64
57
51
45
43
44
34
28
24
20
16
12
7
2
-2
-6
-7
-8
-11
-14
-14
-14
-16
-18
-18
-18
-21
-21
-18
-17
-19
-20
-20
-20
-19
-18
-17
-16
-15
-14
-14
-14
-14
-14
-13
-12
-13
-10
-6
-7
-8
-8
-8
-6
-4
-6
-8
-7
-6
-6
-6
-6
-6
-5
-4
-5
-6
-4
-2
-2
-3
-5
-6
-5
-4
-4
-4
-3
-2
-2
-3
-5
-6
-6
-7
-9
-10
-10
-10
-12
-12
-12
-10
-8
-12
-16
-17
-18
-18
-18
-18
-17
-12
-8
-6
-4
-2
0
0
0
0
-1
-3
-5
-7
-11
-17
-20
-21
-24
-29
-28
-25
-27
-31
-32
-31
-30
-31
-32
-32
-35
-36
-34
-32
-34
-36
-37
-38
-37
-36
-33
-23
2
20
20
12
-9
-15
4
29
62
53
4
-54
-120
-185
-251
-311
-368
-372
-352
-319
-282
-227
-168
-122
-79
-55
-34
-29
-25
-19
-14
-13
-12
-10
-8
-6
-4
-3
-2
0
2
3
4
6
8
10
12
13
14
15
17
19
21
23
24
25
27
31
34
37
40
43
46
49
53
57
61
65
67
69
71
74
78
82
83
84
85
86
87
88
88
88
86
84
83
81
76
71
67
62
57
52
47
41
34
28
24
19
14
10
6
3
1
-2
-5
-7
-9
-11
-13
-14
-15
-16
-16
-13
-12
-13
-14
-14
-14
-13
-12
-12
-12
-10
-8
-6
-4
-3
-1
2
4
4
4
3
2
2
2
3
4
3
2
2
1
-1
-2
-3
-4
-3
-2
-2
-4
-7
-8
-7
-6
-6
-7
-8
-8
-8
-8
-8
-9
-10
-8
-6
-8
-10
-11
-12
-12
-12
-11
-10
-10
-10
-10
-10
-10
-10
-10
-10
-9
-8
-9
-10
-9
-8
-8
-8
-8
-7
-5
-1
3
4
6
8
10
13
16
14
12
15
17
9
2
0
-3
-9
-14
-13
-13
-16
-18
-19
-19
-16
-16
-20
-22
-23
-23
-21
-19
-17
-18
-21
-20
-17
-17
-19
-10
2
27
52
29
54
2
3
25
47
60
63
-2
-68
-133
-199
-264
-321
-355
-367
-331
-295
-261
-215
-153
-106
-75
-48
-25
-14
-14
-12
-8
-5
-3
0
3
4
3
5
9
10
10
13
17
18
18
22
26
27
28
29
30
32
34
33
33
38
42
44
46
48
50
52
55
58
60
62
65
67
69
72
75
77
79
81
82
82
85
89
90
89
88
87
84
81
80
80
76
70
64
58
55
52
47
42
37
31
25
20
20
18
11
6
4
2
1
-1
-4
-6
-5
-4
-4
-6
-10
-11
-8
-5
-3
-3
-5
-6
-6
-6
-7
-7
-5
-3
-1
0
0
-2
-2
-1
0
0
0
1
2
2
2
3
4
1
-1
2
3
-1
-4
-3
-2
-1
-1
-3
-5
-7
-8
-8
-7
-5
-6
-9
-10
-10
-11
-13
-13
-11
-11
-13
-14
-13
-12
-12
-11
-10
-10
-10
-9
-8
-8
-8
-6
-4
-6
-8
-10
-11
-7
-4
-2
3
11
13
6
4
9
13
15
17
19
21
23
18
9
6
5
-2
-10
-12
-12
-15
-19
-19
-16
-19
-22
-22
-22
-21
-20
-21
-22
-22
-21
-17
-15
-20
-23
-20
-16
-10
7
39
47
26
10
-2
2
21
40
59
22
-43
-109
-174
-240
-305
-342
-371
-350
-319
-287
-254
-192
-252
-98
-67
-41
-16
-12
-8
-6
-4
-3
-2
-2
-2
1
5
8
10
11
12
13
14
15
16
16
17
20
22
23
25
27
30
33
34
33
35
39
42
45
48
51
55
59
64
68
72
76
79
82
90
96
100
104
105
106
108
110
109
108
109
110
108
105
102
99
96
91
85
79
74
70
66
60
54
49
45
39
32
28
25
20
15
13
11
10
8
10
12
7
2
5
8
8
8
7
6
5
4
7
10
10
10
9
8
8
9
12
14
13
12
13
14
14
15
17
17
15
14
13
13
15
16
16
14
11
11
10
12
10
9
8
8
8
11
14
12
10
9
8
8
8
6
4
3
3
6
8
5
4
4
5
8
10
9
7
5
7
12
13
11
16
24
26
27
31
35
36
35
35
36
38
40
34
28
24
20
17
13
8
4
4
4
2
0
2
4
4
2
-3
-5
-3
-1
1
1
-1
-2
-1
0
-1
0
3
23
47
50
47
27
4
16
31
47
64
23
-20
-85
-151
-216
-280
-333
-373
-356
-334
-298
-255
-194
-139
-95
-60
-37
-20
-11
-6
-5
-3
0
2
2
2
3
6
9
10
9
11
15
14
11
12
15
16
15
18
14
22
20
26
32
30
28
33
38
38
39
48
54
57
60
61
63
69
72
74
76
79
80
81
83
85
86
87
88
89
90
89
86
83
82
82
79
75
72
69
65
61
55
50
44
38
35
32
29
26
23
20
18
16
14
11
7
4
5
6
5
4
3
2
2
2
3
3
1
0
1
2
1
0
-1
-2
-2
-2
-1
-1
-3
-3
-1
0
-2
-3
-4
-2
0
-1
-2
-2
-2
-1
0
-1
-2
-2
-2
-3
-4
-5
-6
-6
-6
-6
-6
-6
-8
-12
-13
-10
-8
-9
-10
-9
-10
-13
-10
-3
-4
-7
-9
-11
-11
-12
-8
-8
-9
-10
0
8
3
-1
10
18
17
16
14
12
11
7
-1
-3
4
4
-5
-14
-22
-22
-14
-12
-16
-20
-24
-24
-21
-20
-20
-20
-20
-20
-21
-25
-29
-22
-13
-16
-20
-18
-15
10
32
36
36
12
-6
3
14
29
37
27
-3
-69
-134
-200
-265
-331
-364
-365
-348
-314
-273
-225
-171
-113
-75
-48
-31
-17
-14
-13
-8
-3
-2
-2
1
5
6
8
11
14
14
14
17
20
20
20
21
22
25
28
27
27
31
35
38
40
41
45
52
56
57
59
61
64
68
71
73
79
86
87
85
86
89
90
90
90
89
88
88
90
90
89
88
84
80
80
80
76
72
67
64
61
57
54
51
47
43
39
35
30
28
27
24
20
18
17
15
13
12
11
10
10
10
9
9
11
12
11
10
10
12
14
13
12
14
16
14
12
12
12
12
12
13
14
10
8
9
10
11
12
11
10
10
10
9
7
5
5
7
8
7
6
7
8
7
6
5
2
-1
-2
-2
-2
0
0
0
0
0
2
4
1
-2
2
6
4
2
2
3
6
9
13
16
14
14
19
22
23
23
20
19
22
18
9
5
3
-1
-7
-11
-15
-16
-16
-16
-16
-16
-16
-19
-22
-22
-22
-21
-20
-19
-18
-17
-16
-16
-16
-18
-16
-1
17
44
48
20
4
3
10
26
39
50
15
-51
-117
-182
-248
-313
-349
-376
-352
-314
-279
-244
-183
-118
-82
-49
-30
-12
-12
-12
-9
-6
-4
-2
-3
-4
-1
2
5
8
8
8
9
10
12
14
14
15
17
19
21
23
25
27
29
32
35
36
37
42
47
50
53
57
61
65
69
72
76
79
82
82
82
85
88
87
86
88
90
89
88
89
89
86
83
79
75
72
69
64
60
55
49
43
37
32
28
25
22
17
15
13
10
7
6
5
4
5
4
6
-1
-2
-2
-2
-1
0
1
2
1
0
0
0
0
0
1
2
2
2
1
0
3
4
5
6
6
7
9
10
9
8
9
10
9
7
5
4
4
5
7
6
3
3
4
3
2
1
0
1
2
2
2
1
0
1
2
4
5
2
1
5
7
4
3
5
6
6
6
6
7
9
12
15
18
21
24
27
28
28
28
28
29
31
29
24
20
16
12
8
5
2
1
0
-1
-2
0
1
-3
-6
-6
-6
-6
-6
-6
-6
-9
-9
-7
-6
-5
-4
-3
18
49
49
36
21
5
11
22
28
33
-18
-77
-142
-80
-273
-336
-344
-351
-336
-319
-296
-266
-212
-160
-114
-74
-49
-29
-18
-9
-6
-3
0
2
3
5
8
10
9
8
9
10
10
10
10
10
11
12
13
14
15
16
16
17
19
23
26
27
28
31
34
39
44
46
48
51
54
57
60
61
62
64
67
70
72
72
72
73
74
74
74
74
74
73
72
71
70
69
64
59
58
58
53
47
42
37
34
30
27
24
20
16
14
12
10
8
7
6
4
2
2
2
0
-1
2
4
3
2
2
2
1
1
3
4
5
6
5
4
5
6
6
6
6
6
6
6
5
3
4
1
2
0
-2
-1
0
-2
-4
-4
-4
-5
-6
-7
-8
-10
-12
-10
-8
-7
-6
-7
-8
-7
-7
-9
-8
-4
-4
-7
-8
-7
-6
-6
-6
-7
-5
-1
-1
-3
-3
-1
-1
-2
-2
-2
0
2
2
2
3
4
3
2
4
5
1
0
9
14
14
14
16
18
18
20
24
26
26
27
29
27
22
17
13
12
13
10
5
-1
-7
-6
-3
-1
2
-1
-4
-5
-6
-5
-4
-5
-6
-3
0
0
0
-1
0
6
20
48
56
35
21
14
20
39
58
77
44
-22
-88
-153
-219
-284
-321
-348
-331
-303
-275
-247
-189
-127
-87
-124
-30
-12
-4
4
7
10
14
18
18
18
21
24
25
26
26
26
28
30
29
28
31
34
38
40
39
39
42
45
47
50
54
56
57
59
61
69
78
78
75
79
85
89
92
95
98
100
102
105
108
109
110
109
108
110
112
110
108
110
110
102
98
96
92
87
84
83
78
69
65
61
57
52
45
38
35
33
30
27
22
17
16
17
18
16
14
12
11
10
11
12
11
10
8
6
6
7
12
16
14
11
8
6
7
11
20
19
9
5
8
10
11
12
13
14
13
12
12
8
3
13
26
17
5
6
4
7
4
4
4
6
8
3
-2
0
2
3
4
4
4
3
2
1
0
-2
-3
0
2
2
2
1
0
1
1
-1
-1
1
2
1
0
-1
-2
-1
0
-1
-2
-3
-3
-2
-4
-6
-4
-2
-4
-5
3
10
7
4
5
8
16
22
20
18
20
22
24
26
26
24
20
16
12
9
7
2
-6
-7
-5
-5
-7
-8
-7
-7
-9
-13
-17
-16
-12
-13
-14
-15
-16
-17
-17
-9
-3
-11
-9
29
53
43
31
13
9
29
48
69
49
-17
-82
-148
-213
-279
-326
-362
-357
-332
-297
-259
-202
-138
-97
-60
-33
-9
-1
5
4
6
4
8
15
22
19
16
18
20
24
28
27
26
28
30
31
32
32
33
36
38
41
44
49
50
46
46
50
54
58
62
66
71
76
79
81
87
93
97
101
102
103
109
114
116
118
114
110
113
116
114
112
111
109
104
100
96
92
86
81
77
70
61
55
52
49
47
42
33
27
22
20
19
17
15
11
7
6
6
6
5
4
4
2
-2
0
2
0
-2
1
4
3
2
2
2
3
4
5
6
5
4
6
8
7
6
5
5
7
8
8
7
5
6
10
12
12
12
11
11
13
11
7
8
11
10
12
5
4
4
4
4
4
4
4
2
0
3
6
4
2
4
6
5
4
5
6
3
2
3
4
3
2
2
2
1
0
0
-2
-5
-6
-6
-6
-6
-6
-7
-8
-9
-6
-2
0
2
4
6
5
4
6
8
8
8
9
8
1
-4
-4
-6
-14
-18
-18
-18
-19
-21
-23
-22
-18
-18
-22
-24
-24
-24
-23
-22
-21
-20
-20
-20
-20
-20
-19
-2
16
34
50
16
-15
-1
14
33
50
62
56
-9
-75
-140
-206
-272
-318
-336
-334
-304
-271
-235
-189
-134
-94
-65
-42
-21
-13
-11
-8
-5
-4
-3
-2
-3
-2
1
3
5
5
6
2
2
4
6
4
2
6
10
13
16
21
24
25
26
28
30
32
36
42
46
49
51
53
55
58
61
64
68
72
74
74
74
75
76
76
76
77
78
78
78
77
74
72
71
70
66
62
57
52
48
44
43
41
35
30
26
24
23
21
18
16
15
13
11
10
11
12
11
10
9
7
5
7
12
12
9
9
11
12
13
14
13
12
14
16
18
17
16
16
16
15
14
14
14
13
12
13
14
15
16
14
12
12
11
8
6
6
7
9
8
4
3
5
6
5
3
1
1
3
5
7
8
7
6
6
6
6
7
8
7
6
9
12
12
12
11
10
10
10
8
7
10
11
8
6
9
9
6
4
5
6
7
7
5
3
1
1
3
4
4
10
17
18
17
20
25
26
26
27
28
27
26
24
22
19
15
10
6
5
4
2
0
0
0
-2
-4
-2
0
-1
-3
-5
-6
-5
-4
-4
-4
-4
-3
-1
0
1
24
50
53
51
28
3
19
38
68
94
56
15
-50
-116
-181
-247
-312
-360
-351
-331
-287
-240
-186
-132
-81
-43
-20
-7
-4
0
5
9
11
13
15
16
17
19
21
21
19
21
25
27
29
29
27
29
26
36
38
39
40
43
46
49
52
55
58
60
63
68
72
74
77
81
85
89
93
98
101
104
106
107
109
111
112
112
112
111
110
110
108
105
103
101
98
95
88
81
77
74
70
66
60
54
49
44
41
38
35
32
30
27
22
18
17
16
14
12
11
10
9
8
7
6
6
6
6
7
9
10
9
8
8
8
9
10
11
12
11
10
12
12
12
13
14
14
14
14
14
12
10
11
12
10
9
12
14
12
10
9
8
5
5
7
7
4
2
1
1
3
2
-1
-2
-1
0
1
2
1
1
3
4
4
4
4
1
-2
-1
0
1
2
0
-2
-1
0
-2
-4
-3
-2
-3
-4
-4
-4
-5
-6
-7
-7
-5
-3
0
4
8
11
13
14
14
14
15
16
16
14
11
8
5
-2
-8
-11
-14
-16
-18
-19
-20
-18
-16
-16
-16
-19
-22
-22
-22
-20
-18
-20
-22
-20
-18
-17
-15
-12
8
38
46
39
22
2
11
31
52
74
30
-28
-93
-158
-224
-289
-340
-390
-368
-344
-303
-261
-206
-153
-102
-58
-37
-19
-13
-8
-5
-2
0
2
3
4
5
7
10
11
9
10
16
18
17
16
17
20
25
28
31
32
33
34
35
39
43
44
44
48
52
55
58
59
60
65
70
72
74
77
80
79
79
83
86
86
86
85
84
81
80
81
82
82
80
76
72
69
66
62
57
53
50
47
41
35
31
27
24
21
17
14
13
12
10
8
6
4
5
6
7
8
6
4
5
6
5
4
3
2
2
2
3
4
3
2
3
4
4
4
4
4
3
3
5
6
7
8
8
8
8
8
10
9
8
8
8
8
8
7
6
5
4
3
2
3
4
2
0
1
2
0
-2
1
1
-2
-4
-4
-4
-5
-6
-7
-8
-9
-10
-9
-9
-11
-12
-12
-12
-12
-13
-12
-15
-14
-16
-18
-18
-18
-18
-18
-17
-16
-15
-14
-15
-16
-17
-18
-17
-16
-14
-11
-8
-4
0
2
1
2
6
6
2
3
8
5
-2
-4
-5
-10
-15
-18
-21
-22
-22
-20
-18
-16
-14
-23
-32
-27
-22
-24
-26
-25
-24
-23
-22
-22
-22
-23
-18
-1
16
36
31
0
-10
-2
12
29
40
47
5
-60
-126
-191
-257
-322
-355
-380
-356
-323
-288
-254
-191
-128
-96
-65
-46
-28
-24
-20
-13
-8
-8
-8
-5
-2
-1
0
0
1
4
6
6
6
7
9
12
14
14
15
18
22
25
27
29
30
31
35
39
41
43
45
47
48
48
53
58
59
60
64
68
70
72
72
72
73
74
71
68
70
72
70
68
68
66
61
58
59
56
49
45
42
38
34
30
27
22
16
13
11
7
3
1
-1
-6
-11
-13
-14
-15
-16
-21
-26
-21
-16
-19
-22
-18
-14
-15
-16
-17
-18
-17
-16
-15
-14
-14
-14
-13
-12
-11
-10
-10
-9
-7
-6
-5
-4
-3
-2
-2
-2
-2
-2
-3
-4
-5
-5
-2
-3
-4
-5
-6
-6
-6
-8
-10
-11
-12
-10
-8
-11
-14
-14
-14
-14
-14
-12
-11
-14
-16
-17
-18
-19
-20
-19
-18
-17
-16
-15
-14
-13
-10
-7
-3
1
4
7
7
8
6
8
11
14
10
6
2
-2
-6
-10
-15
-18
-18
-18
-19
-20
-22
-24
-22
-21
-26
-28
-27
-26
-27
-28
-28
-27
-25
-24
-24
-24
-23
0
29
31
27
6
-16
-3
13
35
55
-6
-67
-132
-198
-263
-324
-361
-386
-368
-346
-312
-272
-217
-163
-109
-68
-48
-31
-20
-14
-13
-11
-9
-8
-7
-3
4
6
7
9
11
13
15
18
21
23
25
26
27
28
28
32
36
37
38
39
40
45
50
52
54
56
59
63
66
67
69
73
76
77
79
82
85
87
89
91
92
91
91
93
93
91
88
85
83
81
77
73
71
69
64
68
53
48
44
40
34
28
26
24
20
16
14
12
10
7
3
0
2
4
2
0
-1
-1
1
2
1
0
1
2
1
1
3
4
3
2
3
2
-1
-1
1
2
3
4
4
-1
-6
-1
4
1
-2
-1
0
0
0
-1
-2
-2
-2
-1
0
-2
-4
-3
-2
-1
0
0
0
-1
-2
-1
1
3
4
3
2
2
2
2
2
3
4
4
4
2
-2
-6
-2
2
2
2
2
3
11
18
15
13
18
22
24
26
26
27
30
29
20
16
17
14
6
2
1
-2
-6
-9
-11
-9
-5
-9
-16
-15
-11
-8
-5
-13
-4
-19
-14
-6
2
-5
-12
-5
6
40
63
48
31
12
4
23
38
44
21
-45
-110
-176
-241
-307
-346
-366
-361
-338
-314
-288
-247
-200
-147
-92
-60
-34
-28
-25
-17
-9
-12
-17
-8
2
1
0
-3
-6
-1
4
1
-2
-3
-4
-2
3
14
20
14
11
14
17
20
20
15
21
38
43
38
36
35
41
51
54
54
57
61
67
73
72
69
77
87
81
72
76
80
81
82
81
80
78
76
74
71
67
64
63
59
49
42
42
41
37
33
28
25
22
19
16
13
10
8
8
8
8
6
3
3
5
6
7
5
1
5
0
12
12
12
12
11
10
13
16
17
18
16
14
16
18
19
19
15
12
13
14
15
16
15
12
8
7
10
8
1
0
3
2
-1
-2
-1
0
0
0
-1
-2
-2
-4
-6
-5
-4
-3
-2
-3
-4
-5
-6
-5
-4
-6
-8
-10
-11
-8
-6
-6
-6
-7
-7
-4
-1
2
4
5
7
9
10
11
12
11
11
13
9
3
2
2
-3
-9
-11
-14
-12
-10
-10
-10
-10
-10
-14
-18
-18
-18
-18
-18
-16
-14
-14
-14
-14
-14
-15
-13
-6
13
41
46
30
17
5
10
25
42
59
28
-20
-83
-148
-214
-279
-311
-340
-330
-342
-291
-264
-211
-158
-113
-70
-42
-17
-10
-3
6
12
13
15
19
22
22
22
23
24
27
27
25
23
21
21
24
28
32
31
26
25
27
30
33
34
35
37
39
40
41
44
46
50
54
56
58
61
64
66
68
68
68
71
74
75
76
77
78
78
78
79
79
76
73
71
70
70
67
60
56
53
50
47
42
36
33
31
26
21
19
17
10
2
3
4
2
0
0
0
-5
-10
-12
-14
-11
-6
1
3
-7
-12
-6
-2
-2
-2
-2
-1
1
3
5
6
5
4
4
6
11
10
7
6
6
6
6
5
3
2
2
4
4
2
0
0
0
-1
-2
-2
-2
-3
-4
-4
-5
-8
-10
-9
-8
-10
-12
-15
-15
-12
-10
-10
-10
-9
-8
-8
-8
-8
-8
-8
-6
-3
3
9
10
9
10
13
13
12
15
18
21
24
18
12
10
8
4
-1
-5
-8
-7
-6
-6
-6
-5
-6
-12
-16
-15
-14
-13
-12
-13
-14
-13
-12
-13
-13
-11
-9
-7
21
53
42
24
13
3
23
46
68
86
21
-45
-110
-176
-241
-302
-342
-367
-346
-321
-288
-247
-189
-138
-95
-61
-40
-24
-13
-6
-1
4
8
11
13
15
17
18
17
16
16
20
25
26
26
26
26
27
26
28
26
31
36
34
33
40
46
46
46
51
54
55
57
61
65
71
75
79
82
83
85
88
91
93
94
95
96
97
98
98
98
97
93
89
88
87
83
79
74
69
63
58
55
52
47
42
37
32
29
26
23
20
17
14
10
7
4
2
2
2
4
5
2
-1
-3
-3
-1
-1
-5
-6
-6
-6
-5
-5
-7
-7
-5
-4
-5
-6
-5
-4
-6
-3
0
0
0
0
0
1
2
4
6
3
0
1
2
2
2
0
-2
-1
0
-3
-3
-1
0
-1
-3
-5
-6
-6
-8
-11
-12
-11
-11
-13
-14
-14
-13
-11
-12
-10
-16
-16
-14
-12
-12
-12
-14
-16
-12
-8
-3
1
5
8
8
9
13
16
17
18
18
18
18
16
10
7
4
0
-4
-7
-9
-10
-11
-12
-11
-9
-7
-8
-11
-11
-9
-11
-14
-12
-10
-9
-8
-8
-8
-4
1
9
22
45
54
28
10
8
19
53
75
82
54
-12
-77
-143
-208
-274
-327
-373
-362
-325
-286
-247
-188
-123
-86
-54
-34
-16
-14
-13
-5
4
5
6
7
8
11
14
15
16
17
18
19
20
23
26
28
30
31
32
33
34
35
36
37
39
41
43
46
49
51
53
55
58
61
66
73
73
71
72
75
78
76
82
82
85
88
88
88
88
88
91
94
92
90
87
82
76
72
71
68
63
56
45
41
44
40
29
21
15
14
18
13
3
3
7
7
5
1
-3
1
7
7
5
4
4
2
0
0
0
-2
-4
-3
-2
0
2
-1
-4
-3
-2
-1
0
-2
-4
-5
-6
-7
-8
-7
-6
-6
-7
-9
-10
-10
-10
-9
-11
-15
-16
-16
-16
-15
-15
-17
-18
-18
-17
-16
-17
-18
-17
-16
-17
-18
-18
-18
-19
-20
-19
-18
-18
-18
-19
-20
-21
-22
-23
-24
-24
-22
-16
-18
-25
-26
-23
-21
-19
-19
-21
-22
-23
-24
-23
-22
-22
-22
-22
-23
-24
-24
-24
-21
-18
-15
-12
-9
-6
-6
-6
-4
-2
-2
-2
-2
-4
-9
-12
-15
-18
-22
-25
-27
-28
-29
-31
-33
-31
-26
-24
-25
-26
-27
-28
-28
-28
-29
-29
-27
-27
-28
-28
-28
-19
-7
24
46
23
3
-4
-5
14
33
52
41
-25
-90
-156
-221
-287
-333
-361
-362
-338
-313
-286
-239
-181
-131
-85
-54
-28
-16
-8
-2
3
7
11
13
15
16
16
18
20
20
20
21
22
22
22
21
20
21
22
21
20
19
20
27
31
28
26
29
32
36
38
39
42
46
50
54
56
56
58
61
63
65
69
73
74
75
76
76
77
80
78
76
74
72
72
72
66
62
57
54
51
47
42
37
34
31
27
23
20
17
14
12
12
11
8
6
5
3
1
0
1
2
3
4
3
2
3
4
4
7
10
9
8
9
10
12
14
13
12
12
12
15
18
16
14
14
14
15
15
12
11
14
15
13
12
13
10
3
3
8
6
0
0
3
2
-1
4
11
6
-1
3
10
5
0
1
2
2
2
0
-2
-4
-6
-4
-2
-4
-6
-8
-10
-9
-8
-6
-4
-4
-4
-5
-6
-6
-5
-3
-4
-7
-7
-5
-1
3
5
7
10
13
14
15
16
16
17
18
11
4
2
0
-4
-8
-10
-12
-15
-18
-18
-18
-18
-18
-19
-20
-22
-24
-23
-23
-25
-25
-23
-23
-26
-26
-22
-16
-10
15
45
37
18
8
-1
15
34
57
79
16
-50
-115
-181
-246
-308
-344
-371
-349
-326
-298
-261
-203
-149
-105
-68
-46
-30
-22
-17
-13
-9
-6
-4
-4
-3
0
2
3
4
5
6
7
12
17
16
13
12
12
12
13
15
18
20
22
28
34
36
38
40
42
45
49
55
60
62
65
70
75
78
80
81
83
86
89
91
92
93
94
94
94
93
90
85
86
89
87
83
77
71
66
61
59
60
50
44
42
40
34
28
28
28
24
19
14
10
13
16
14
11
8
7
10
11
8
6
6
6
6
6
6
6
6
6
7
8
9
10
10
10
9
8
9
10
10
9
8
10
12
11
10
11
12
11
10
10
10
10
10
10
9
6
4
4
4
4
3
1
0
-1
-2
-1
-1
-3
-5
-7
-8
-7
-6
-5
-5
-7
-8
-8
-8
-9
-10
-8
-8
-8
-8
-8
-11
-14
-13
-12
-13
-14
-15
-16
-15
-14
-15
-16
-14
-12
-10
-7
-2
0
0
1
4
6
7
8
8
8
7
2
-4
-6
-6
-10
-15
-19
-23
-23
-24
-20
-20
-18
-16
-21
-26
-24
-22
-21
-20
-21
-21
-17
-14
-16
-18
-19
-10
16
38
55
49
19
9
15
41
78
93
95
50
-15
-81
-146
-212
-277
-334
-389
-351
-300
-258
-217
-153
-90
-61
-34
-21
-10
-6
-2
0
2
5
8
10
12
12
12
13
14
16
18
20
22
22
23
25
27
29
33
38
40
39
41
45
46
47
52
57
61
65
66
66
72
80
83
86
89
92
94
96
100
104
105
106
107
108
108
108
106
104
105
106
105
102
95
90
85
81
78
71
63
58
55
50
44
39
33
29
25
22
19
18
19
19
20
14
12
12
12
11
10
9
8
8
8
7
6
7
8
7
6
4
3
6
8
5
4
5
6
5
5
7
8
7
6
6
6
5
4
3
5
9
8
5
6
9
8
6
8
10
9
8
11
14
16
18
14
10
11
12
11
11
14
16
14
12
12
12
11
10
11
13
15
13
6
8
14
15
13
11
9
10
13
14
15
16
15
16
20
19
18
17
16
17
18
21
24
21
18
18
18
17
16
18
20
21
21
18
16
19
20
20
20
21
24
28
29
27
27
29
30
30
24
16
13
11
8
5
0
4
-7
-8
-10
-12
-10
-8
-10
-12
-12
-12
-13
-14
-17
-20
-19
-18
-18
-17
-14
-10
-3
17
52
56
35
21
12
26
55
74
90
45
-20
-86
-151
-217
-282
-339
-394
-355
-309
-269
-228
-163
-101
-68
-37
-22
-10
-4
0
2
4
6
8
8
8
10
12
11
11
15
18
19
19
17
18
22
24
25
26
25
27
31
34
37
40
43
45
47
50
53
54
56
60
64
65
66
70
74
75
76
79
82
80
79
83
86
87
88
89
90
89
88
88
87
84
80
76
72
68
64
60
54
48
43
37
32
27
23
19
15
11
8
10
4
4
1
-2
-2
-2
-2
-2
-2
-2
-2
-2
-4
-5
-2
-1
-4
-6
-5
-4
-1
0
0
1
4
5
2
2
5
6
7
7
5
5
7
7
5
4
5
6
6
5
4
3
2
3
4
3
2
0
-2
-2
-2
-2
-2
-2
-2
-3
-4
-3
-3
-7
-7
-1
1
-2
-4
-4
-4
-4
-3
-1
0
1
2
1
0
0
0
-1
-2
-1
0
-2
-5
-8
-5
-2
-6
-10
-11
-12
-11
-10
-12
-14
-12
-10
-9
-8
-6
-3
0
2
1
1
3
4
4
5
8
5
-3
-8
-11
-14
-17
-22
-29
-30
-29
-28
-27
-26
-26
-27
-30
-29
-28
-28
-28
-27
-26
-29
-32
-29
-25
-21
-15
-4
11
32
31
-1
-17
-12
-1
17
32
45
11
-55
-121
-186
-252
-317
-352
-377
-358
-327
-297
-266
-210
-150
-117
-85
-56
-28
-25
-22
-16
-10
-8
-6
-5
-4
-5
-5
-1
2
2
2
2
2
2
3
7
9
7
7
9
11
14
17
21
22
22
24
27
30
33
35
37
42
47
49
51
55
60
62
64
64
64
67
70
71
72
73
74
74
74
73
72
70
68
67
64
58
52
45
43
45
42
34
30
29
23
15
11
9
7
5
4
4
2
-1
-2
-1
0
0
-2
-2
1
4
1
-2
1
4
2
0
1
2
1
0
0
0
0
0
0
0
0
0
0
0
-1
-2
-2
-3
-5
-6
-5
-4
-5
-6
-5
-6
-9
-10
-10
-10
-10
-12
-14
-14
-14
-16
-18
-18
-18
-20
-22
-18
-14
-17
-20
-20
-20
-22
-22
-17
-14
-16
-18
-17
-16
-15
-14
-14
-13
-11
-10
-10
-9
-7
-6
-7
-8
-7
-6
-6
-6
-6
-6
-6
-7
-8
-8
-8
-4
0
1
2
6
10
12
14
15
16
14
12
14
13
6
2
-1
-5
-11
-15
-17
-18
-19
-20
-20
-20
-20
-21
-23
-25
-27
-28
-28
-26
-23
-24
-22
-27
-26
-25
-23
-5
12
31
41
12
-9
-2
9
30
49
64
50
-16
-81
-147
-212
-278
-329
-365
-362
-326
-294
-263
-212
-149
-108
-76
-53
-33
-21
-12
-10
-11
-8
-3
2
7
6
4
6
8
10
12
12
12
13
14
16
18
20
22
24
26
27
28
27
27
31
35
38
42
46
49
51
53
55
57
59
64
70
72
73
74
74
75
77
78
79
80
78
81
84
83
82
81
80
76
72
70
67
61
55
51
47
44
40
34
30
28
24
19
15
12
9
7
6
6
4
1
0
1
2
1
0
0
0
-1
-2
-3
-4
-4
-4
-2
-1
0
-1
-2
-2
-2
-3
-4
-1
2
1
0
1
2
1
0
-1
-2
-3
-4
-3
-2
-2
-2
-2
-2
-2
-3
-5
-6
-7
-8
-7
-6
-7
-8
-8
-7
-5
-5
-6
-8
-10
-8
-6
-8
-10
-9
-8
-9
-10
-7
-4
-5
-6
-7
-8
-8
-8
-7
-7
-9
-10
-10
-10
-10
-10
-9
-8
-9
-10
-10
-10
-11
-8
-3
-1
1
4
7
8
10
10
10
9
8
4
0
-2
-4
-7
-11
-15
-18
-20
-22
-22
-22
-20
-18
-17
-17
-22
-23
-21
-20
-19
-18
-19
-20
-19
-17
-15
-12
-9
15
43
48
47
22
-4
11
-6
61
91
50
6
-59
-125
-190
-256
-321
-372
-371
-357
-309
-259
-206
-154
-104
-64
-38
-20
-11
-4
0
3
5
8
12
14
15
18
21
22
23
25
27
28
29
30
29
33
39
43
46
45
44
48
52
50
48
51
55
62
68
68
69
74
78
78
82
92
97
94
90
86
93
110
112
101
100
107
110
111
107
100
102
107
106
103
102
101
93
85
74
62
60
58
60
60
41
24
27
30
29
26
17
9
3
0
6
10
11
9
2
-1
2
0
-8
-7
2
5
3
1
-1
1
6
6
3
3
5
6
7
8
9
10
10
10
10
10
10
14
18
16
14
15
16
15
14
16
18
16
14
14
15
18
18
13
10
11
11
9
9
12
12
8
7
9
10
9
8
8
7
5
4
5
6
6
5
4
3
2
5
8
4
0
2
4
5
6
9
12
14
16
15
15
19
22
24
24
20
19
21
18
11
8
7
2
-6
-10
-13
-14
-14
-13
-11
-12
-15
-16
-17
-18
-20
-19
-18
-21
-24
-22
-20
-22
-24
-25
-22
-6
13
39
46
17
-2
-1
10
35
54
67
40
-26
-91
-157
-222
-288
-339
-383
-367
-326
-287
-250
-190
-125
-84
-48
-29
-11
-7
-10
2
6
8
10
12
14
12
11
18
24
22
20
23
26
26
27
31
34
35
36
37
39
41
42
43
44
45
51
59
62
62
65
69
71
73
74
75
80
85
86
86
87
88
89
90
95
100
97
94
95
96
95
94
92
89
85
82
80
77
73
70
68
62
53
47
44
39
34
29
24
21
19
16
13
11
9
7
5
4
5
5
3
2
0
0
0
3
6
5
4
3
2
0
-1
3
6
4
2
3
4
4
4
3
2
2
2
3
4
3
2
2
2
3
4
5
6
6
6
6
6
6
5
3
4
2
7
6
6
6
6
6
5
4
1
-2
-4
-6
-4
-2
-2
-2
-3
-4
-2
0
-1
-2
-3
-3
-1
0
0
-1
-3
-5
-7
-7
-5
-4
-5
-6
-7
-8
-9
-10
-10
-2
6
4
2
5
8
12
16
10
7
13
16
4
-4
-6
-9
-13
-18
-24
-27
-23
-20
-21
-21
-18
-17
-19
-20
-21
-22
-21
-20
-20
-20
-20
-19
-17
-19
-23
-11
3
31
60
31
4
-2
-6
21
45
57
53
-12
-78
-143
-209
-274
-333
-379
-392
-350
-309
-271
-219
-154
-105
-69
-43
-24
-16
-15
-13
-11
-6
0
1
-1
-2
-1
3
7
8
8
8
8
10
12
14
16
17
18
19
20
22
24
23
22
25
28
30
33
36
38
40
43
46
50
54
57
60
64
68
73
78
80
81
84
87
90
93
94
93
93
95
93
89
87
86
82
78
72
66
64
61
55
50
46
42
39
35
28
24
23
21
17
14
14
14
15
15
12
11
13
14
13
12
13
14
14
14
13
12
13
14
15
16
16
15
12
14
16
14
12
11
10
9
8
9
10
9
8
7
6
6
5
2
0
1
2
1
0
1
2
1
0
0
0
0
-1
-3
-3
-1
0
0
0
-1
-2
-2
-3
-2
-7
-8
-8
-8
-9
-10
-6
-2
-8
-12
-10
-8
-8
-8
-7
-6
-6
-6
-8
-9
-4
-3
-5
-5
-3
-2
-1
1
3
7
12
14
15
19
23
25
27
28
27
28
31
24
16
14
12
5
-2
-3
-4
-3
-2
-3
-4
-2
-1
-5
-8
-9
-9
-6
-4
-6
-8
-9
-10
-9
-8
-9
-5
5
27
56
46
22
8
-2
9
25
38
51
-8
-73
-139
-205
-270
-333
-353
-370
-344
-318
-293
-261
-204
-150
-109
-74
-51
-33
-24
-17
-13
-8
-3
0
-3
-2
3
6
6
6
5
4
5
7
9
10
11
12
12
12
13
15
17
20
18
23
22
30
38
37
36
41
46
48
50
55
58
61
65
68
71
74
76
77
79
84
85
83
83
86
87
84
82
83
84
84
83
81
75
68
66
65
60
55
51
47
41
36
35
34
28
22
22
22
20
18
15
12
11
10
9
8
8
8
8
8
7
6
5
5
7
8
7
5
3
2
2
2
3
4
3
2
2
1
-1
-2
-2
-2
-2
-4
-6
-7
-8
-9
-10
-8
-7
-12
-16
-15
-14
-14
-14
-13
-12
-12
-12
-13
-14
-14
-14
-13
-12
-13
-14
-13
-12
-12
-12
-11
-12
-15
-14
-11
-10
-10
-12
-15
-16
-16
-13
-12
-14
-16
-17
-18
-20
-22
-20
-18
-19
-20
-18
-16
-16
-15
-12
-9
-6
-4
-7
-6
-2
0
0
1
3
0
-6
-8
-9
-14
-20
-22
-23
-23
-21
-20
-19
-19
-21
-22
-22
-21
-20
-21
-22
-23
-24
-24
-24
-22
-20
-20
-19
-12
3
36
50
33
16
-2
-3
15
35
55
26
-40
-105
-171
-237
-302
-344
-376
-369
-350
-321
-290
-236
-179
-133
-88
-64
-40
-32
-24
-19
-14
-13
-12
-12
-12
-10
-7
-3
0
0
0
1
3
7
9
6
6
11
14
15
17
19
21
24
26
26
28
33
36
39
43
47
50
53
56
59
65
60
72
72
76
80
81
82
83
84
82
80
81
82
81
79
76
74
73
70
65
60
55
51
48
44
38
33
28
23
18
14
10
7
5
0
-5
-6
-7
-9
-11
-12
-12
-13
-14
-16
-18
-20
-22
-17
-12
-12
-12
-10
-8
-6
-4
-6
-8
-7
-6
-4
-3
-6
-7
-5
-3
-1
0
-1
-2
-3
-4
-4
-4
-5
-6
-7
-8
-9
-10
-10
-10
-11
-12
-14
-15
-16
-18
-20
-23
-26
-24
-22
-20
-18
-19
-20
-20
-20
-20
-20
-21
-21
-18
-16
-17
-18
-17
-16
-16
-16
-15
-14
-14
-14
-14
-14
-14
-14
-14
-14
-13
-12
-11
-10
-10
-12
-12
-11
-10
-10
-10
-10
-10
-9
-8
-3
1
6
10
11
12
13
14
15
16
15
14
13
10
4
2
1
-2
-6
-8
-7
-7
-9
-10
-9
-8
-7
-9
-13
-13
-11
-10
-10
-11
-12
-10
-8
-11
-14
-8
1
24
44
52
50
21
5
15
34
63
70
46
2
-64
-129
-195
-260
-326
-360
-376
-349
-301
-252
-201
-142
-81
-54
-33
-19
-6
-3
-1
4
10
12
14
15
16
16
16
17
18
20
22
24
26
26
26
25
25
29
32
32
32
35
36
37
38
38
38
38
43
51
54
53
57
64
66
67
69
71
73
75
77
76
83
86
87
88
88
88
88
88
88
88
88
87
83
79
76
73
69
65
61
58
57
53
47
42
38
35
32
28
25
24
23
22
21
18
15
13
11
10
11
11
9
8
8
8
8
9
10
11
12
13
14
12
10
7
4
6
8
8
8
8
8
8
7
4
2
3
4
4
3
-1
-2
-3
-4
-4
-4
-4
-4
-5
-6
-6
-6
-6
-7
-10
-8
-6
-7
-8
-8
-8
-11
-14
-14
-14
-14
-14
-16
-18
-20
-22
-20
-18
-20
-22
-25
-26
-26
-26
-25
-24
-25
-26
-26
-26
-27
-28
-28
-28
-27
-26
-26
-26
-27
-27
-28
-22
-20
-19
-18
-17
-16
-15
-14
-12
-10
-9
-8
-7
-6
-4
0
7
12
11
10
13
16
20
22
21
20
19
15
10
6
3
1
-1
-4
-7
-6
-3
-3
-5
-5
-3
-4
-6
-6
-6
-5
-4
-7
-10
-7
-4
-6
-8
-8
0
26
45
49
40
11
-2
7
20
38
45
43
4
-62
-127
-193
-259
-324
-353
-368
-344
-307
-270
-233
-174
-111
-81
-53
-37
-20
-14
-8
-7
-6
-4
-2
3
8
7
6
8
10
12
14
14
15
18
20
20
20
23
24
25
27
30
32
31
32
35
36
36
39
45
48
51
53
55
58
61
65
62
74
78
80
82
84
86
87
88
90
92
92
92
90
88
87
85
81
77
74
71
66
63
60
56
52
48
44
38
32
30
29
24
18
16
15
14
14
12
9
8
8
6
4
6
8
5
2
2
2
2
2
3
4
4
4
3
2
4
6
7
8
6
4
5
6
7
8
8
8
7
8
11
10
7
6
7
8
8
8
9
10
11
12
12
11
10
11
12
14
16
16
16
19
22
21
20
20
20
21
22
24
26
26
26
26
26
27
29
31
32
33
33
31
30
31
32
31
31
33
34
33
32
31
30
30
27
26
25
24
25
26
25
24
22
20
21
22
19
16
15
14
15
16
18
20
19
20
24
26
25
24
23
22
23
19
11
6
3
0
-3
-7
-11
-14
-17
-18
-17
-14
-12
-15
-18
-17
-16
-17
-18
-16
-14
-13
-12
-11
-10
-9
-3
14
31
48
47
21
9
12
24
44
59
71
35
-31
-97
-162
-228
-293
-330
-359
-337
-305
-274
-243
-186
-126
-91
-56
-36
-16
-12
-8
-1
6
11
16
17
18
19
20
20
21
25
28
27
26
28
31
34
36
37
38
39
42
46
50
54
56
57
63
70
72
72
76
81
84
87
91
88
99
102
108
114
115
116
117
118
124
128
125
122
121
120
120
120
118
114
109
106
103
98
90
84
78
73
68
62
55
50
47
43
38
34
31
28
25
23
21
20
19
15
12
13
14
12
10
9
8
7
6
8
10
8
6
7
8
9
10
9
8
9
10
9
8
9
10
11
12
13
13
11
13
17
15
11
11
13
13
11
10
11
12
14
13
12
13
14
12
10
10
10
9
8
8
8
8
8
6
4
6
8
7
6
6
5
2
1
3
4
4
4
4
3
1
1
3
1
-3
-4
-3
-2
-3
-4
-4
-2
-2
-4
-6
-7
-8
-8
-8
-10
-12
-11
-10
-9
-7
-4
-2
0
2
3
5
8
11
13
14
13
15
20
15
4
0
-1
-5
-10
-12
-13
-15
-17
-18
-17
-15
-13
-14
-16
-16
-16
-19
-22
-19
-16
-15
-14
-14
-14
-14
-13
-6
10
43
58
43
28
14
16
36
57
79
50
-16
-81
-147
-213
-278
-328
-372
-359
-330
-295
-259
-198
-133
-92
-54
-36
-18
-13
-8
-7
-6
-4
-2
1
4
4
4
5
6
7
8
9
11
14
16
17
18
18
20
24
26
26
28
32
36
40
42
42
45
49
53
57
61
65
70
75
78
76
85
88
91
94
96
98
98
98
99
100
100
100
98
96
96
95
92
89
85
80
75
71
68
61
52
48
48
44
38
34
30
25
20
17
15
12
9
7
5
4
3
0
-2
-3
-4
-3
-2
-4
-6
-9
-11
-6
-2
-4
-6
-7
-8
-8
-8
-6
-5
-8
-8
-4
-2
-3
-4
-3
-3
-5
-5
-3
-2
-1
-1
-3
-2
1
0
-3
-4
-3
-2
0
0
0
-2
-4
-3
-2
-2
-2
1
4
2
0
0
0
2
4
4
4
5
6
3
1
-1
-2
-1
0
-1
-2
-1
0
0
-1
-3
-4
-3
-2
-2
-3
-5
-6
-6
-5
-6
-10
-14
-9
-5
-18
-25
-7
7
0
-7
-12
-16
-17
-17
-13
-12
-17
-18
-11
-9
-12
-12
-6
-6
-10
-8
-1
0
-3
0
6
8
7
5
3
1
-1
-2
-1
-7
-14
-18
-22
-24
-26
-27
-28
-29
-30
-29
-28
-29
-30
-32
-34
-34
-34
-34
-33
-30
-29
-31
-31
-28
-23
-18
9
49
46
21
3
-12
1
24
42
59
5
-60
-126
-191
-257
-322
-365
-404
-372
-339
-304
-264
-199
-139
-99
-63
-42
-25
-20
-16
-15
-14
-12
-8
-3
0
-1
-2
-3
-2
2
4
4
3
1
3
8
12
15
16
15
16
19
21
23
26
24
35
40
43
46
49
52
52
52
58
62
64
67
71
74
76
78
80
83
86
87
84
83
86
88
87
85
82
80
79
77
75
70
64
58
51
48
45
42
39
30
21
15
10
6
2
0
-2
2
5
-2
-8
-9
-10
-11
-12
-13
-12
-6
-7
-22
-28
-22
-18
-17
-16
-17
-18
-19
-17
-10
-6
-3
-2
-3
-2
1
2
1
1
3
4
3
3
6
6
6
2
-2
2
6
4
2
-1
-4
-3
-2
-2
-2
-3
-4
-2
-1
-4
-5
-2
-1
-3
-4
-5
-5
-3
-4
-8
-10
-9
-8
-9
-10
-11
-12
-11
-11
-13
-14
-14
-16
-18
-16
-14
-16
-18
-13
-8
-10
-12
-11
-10
-9
-6
2
4
-8
-15
-11
-8
-8
-8
-8
-9
-11
-11
-9
-8
-7
-5
-3
2
8
12
15
8
-2
-1
3
6
9
8
6
0
-6
-7
-8
-11
-14
-18
-22
-18
-14
-15
-16
-14
-13
-16
-18
-16
-14
-14
-13
-11
-10
-10
-11
-14
-15
-13
-1
17
34
50
31
2
2
10
24
38
56
73
11
-55
-120
-186
-251
-313
-347
-372
-347
-319
-285
-244
-187
-136
-101
-70
-47
-29
-21
-16
-14
-12
-9
-8
-7
-6
-5
-2
2
4
3
2
2
5
11
12
12
12
11
15
21
22
22
22
22
24
26
27
28
32
36
42
46
49
52
54
57
61
64
66
69
72
74
73
74
78
81
83
84
84
84
84
82
79
76
73
75
79
74
65
63
61
55
49
45
42
37
32
30
28
22
16
12
8
12
15
9
4
0
0
7
10
2
-2
0
3
5
6
6
6
5
4
4
4
4
5
7
8
9
10
10
8
5
4
3
4
8
5
2
2
2
3
4
4
4
5
6
6
6
4
1
-2
-4
-2
0
0
0
0
0
0
-1
-3
-2
2
1
-4
-4
-1
0
0
0
1
2
2
-1
-5
-6
-6
-7
-6
-6
-6
-7
-8
-7
-6
-7
-8
-8
-8
-8
-8
-8
-8
-10
-11
-8
-6
-6
-3
3
7
9
12
16
18
19
21
23
24
25
26
27
17
4
5
9
2
-7
-5
-2
-2
-2
-5
-8
-7
-6
-7
-7
-2
1
-4
-8
-9
-9
-4
0
-2
-4
-3
13
45
57
49
36
19
17
25
47
76
51
5
-57
-122
-188
-253
-318
-382
-376
-363
-322
-280
-227
-176
-128
-83
-50
-22
-17
-12
-11
-9
-2
4
3
3
7
9
5
6
16
18
7
6
14
18
18
18
19
22
26
27
25
27
31
32
31
35
41
42
41
44
40
53
56
62
68
70
72
75
78
82
86
86
86
88
90
92
94
94
94
95
96
95
93
90
87
84
81
78
72
65
61
59
53
46
40
33
32
31
26
21
19
17
16
16
16
16
13
10
10
10
8
6
7
8
9
10
6
4
5
6
6
6
8
10
9
9
11
12
12
12
12
13
15
16
15
14
13
12
13
11
7
10
15
13
8
11
14
11
8
8
8
6
4
3
2
2
2
2
2
0
0
5
7
3
0
-1
-3
-5
-5
-3
-2
-3
-4
-3
-4
-9
-10
-10
-11
-13
-7
1
-4
-11
-11
-12
-10
-12
-12
-12
-10
-8
-10
-12
-13
-14
-9
-6
-4
0
6
9
3
2
8
12
11
12
16
14
7
3
1
-2
-6
-11
-16
-18
-19
-20
-21
-22
-22
-22
-22
-22
-21
-24
-28
-25
-22
-20
-18
-17
-16
-13
-10
-6
6
40
62
54
43
28
24
39
58
80
70
26
-29
-95
-160
-226
-291
-357
-364
-342
-306
-265
-211
-153
-98
-43
-16
8
19
29
33
38
37
36
41
46
48
50
52
54
58
62
61
60
62
64
62
62
67
71
74
76
76
76
77
78
78
78
79
80
79
80
85
91
98
98
95
100
107
114
121
120
122
116
116
118
120
126
132
133
133
127
122
123
124
124
124
122
118
111
103
96
92
91
86
78
70
63
60
60
60
59
53
45
42
42
38
33
31
29
28
29
30
30
27
24
27
30
32
34
35
36
33
30
33
36
35
34
35
36
38
40
38
36
37
39
42
44
45
45
42
40
41
40
37
36
36
40
46
39
28
26
27
32
37
36
32
26
20
22
24
25
26
24
22
23
24
22
21
25
28
26
24
24
24
24
24
23
21
19
18
18
18
18
19
21
19
14
15
19
24
29
30
30
33
37
38
38
35
34
35
36
29
22
18
14
8
4
1
-2
-3
-4
-4
-4
-2
-1
-5
-8
-5
-5
-8
-8
-4
-3
-5
-6
-5
-3
-1
6
14
42
76
62
37
23
9
20
33
58
80
15
-51
-116
-182
-247
-313
-378
-420
-374
-328
-280
-227
-163
-106
-60
-29
-20
-12
-6
-3
-5
0
11
17
19
20
21
20
17
19
24
22
17
27
42
41
37
35
33
45
60
52
44
46
48
54
60
55
51
56
60
61
62
62
66
79
86
81
81
88
93
96
97
95
96
102
106
110
106
97
97
102
102
99
100
103
98
91
83
75
72
74
67
66
57
48
43
38
33
28
27
25
18
12
14
14
7
3
6
8
6
4
7
7
4
3
6
8
9
10
10
13
18
17
12
13
17
18
17
22
29
15
-1
10
22
15
8
11
14
15
16
13
10
10
10
9
8
12
14
15
15
12
11
14
13
7
5
8
10
10
10
10
8
4
8
17
12
2
9
20
14
3
4
7
8
8
10
12
9
6
9
12
15
18
19
20
22
24
22
21
25
28
26
21
14
9
6
2
-2
-7
-13
-16
-16
-16
-16
-14
-11
-10
-11
-17
-24
-22
-17
-16
-17
-18
-18
-18
-18
-15
-12
-9
-3
22
43
50
49
15
-8
1
13
31
27
-14
-65
-131
-196
-262
-325
-387
-402
-379
-345
-303
-249
-188
-139
-94
-62
-34
-27
-25
-22
-19
-16
-13
-8
-3
0
2
0
-2
1
4
4
4
6
8
6
4
7
10
11
12
14
16
18
20
21
24
28
30
30
33
39
42
42
45
50
52
52
56
61
64
67
68
69
73
77
77
74
75
76
76
76
77
78
75
72
69
66
65
63
59
55
50
46
44
40
34
30
27
23
17
14
13
12
13
12
8
6
5
4
3
1
-1
-2
-1
0
0
0
0
-1
-2
-1
0
-2
-4
3
8
4
0
3
6
5
5
9
12
10
8
8
8
9
9
6
3
1
1
3
4
4
4
3
1
-1
-2
-2
-2
-3
-4
-5
-6
-6
-3
0
-3
-6
-8
-10
-10
-10
-11
-12
-9
-6
-8
-10
-9
-8
-8
-8
-6
-2
4
8
8
9
12
15
17
17
13
13
15
14
11
5
-2
-5
-7
-8
-8
-13
-19
-18
-14
-12
-10
-14
-18
-17
-16
-19
-22
-21
-20
-20
-20
-19
-18
-17
-12
-2
16
46
49
21
8
7
9
15
25
36
-4
-69
-135
-200
-266
-331
-343
-341
-328
-314
-292
-270
-221
-268
-126
-84
-64
-45
-29
-14
-11
-8
-4
0
5
8
6
5
8
10
10
10
9
9
14
16
16
15
13
14
18
20
19
18
19
23
28
30
30
30
30
32
35
40
45
47
48
50
52
55
58
59
60
59
58
60
62
63
64
63
62
61
60
61
62
61
59
57
55
52
48
44
42
41
39
37
34
31
26
21
17
13
12
11
8
5
4
6
2
-2
-1
0
-2
-4
-5
-6
-5
-4
-6
-8
-8
-8
-6
-4
-2
0
-2
-3
0
1
-1
-2
-3
-4
-5
-5
-3
-3
-5
-6
-5
-7
-11
-10
-7
-6
-7
-9
-8
-13
-14
-16
-18
-16
-14
-18
-22
-19
-16
-21
-24
-24
-24
-24
-24
-25
-26
-26
-26
-27
-28
-27
-27
-29
-30
-30
-30
-31
-32
-32
-29
-24
-21
-19
-18
-17
-11
-5
-4
-5
-5
-4
0
4
-5
-14
-15
-17
-24
-30
-30
-30
-31
-32
-32
-32
-31
-32
-37
-40
-39
-38
-38
-38
-37
-36
-35
-33
-31
-30
-31
-27
-20
6
38
34
22
7
-8
-3
5
29
53
-12
-78
-143
-209
-274
-337
-383
-415
-390
-360
-318
-271
-211
-155
-105
-67
-49
-35
-27
-22
-19
-17
-14
-12
-12
-9
-3
0
-1
0
3
5
7
8
7
7
9
14
19
20
20
22
24
26
28
30
32
34
36
39
43
48
52
53
56
62
66
68
70
72
75
80
82
82
82
81
81
84
86
87
88
87
85
83
81
79
77
75
72
69
63
57
50
44
41
38
32
26
22
17
10
4
1
-2
-1
0
-4
-6
-6
-6
-8
-10
-10
-11
-13
-12
-8
-6
-7
-7
-5
-4
-5
-3
2
4
3
3
5
8
11
14
17
18
18
21
24
26
28
27
26
26
26
26
26
27
28
29
30
28
26
27
28
28
28
27
25
23
22
21
20
19
17
15
14
14
14
13
11
9
8
9
9
7
4
6
0
0
-2
-4
-6
-8
-10
-12
-10
-8
-11
-14
-14
-14
-16
-18
-19
-20
-19
-18
-19
-20
-19
-18
-17
-16
-17
-18
-17
-13
-8
-6
-5
-5
-7
-5
-1
-2
-5
-10
-15
-17
-18
-24
-30
-30
-30
-34
-38
-36
-34
-34
-33
-29
-27
-32
-36
-35
-34
-32
-30
-31
-32
-31
-29
-26
-24
-23
2
41
45
32
13
-9
-4
9
34
60
7
-58
-124
-189
-255
-320
-373
-421
-393
-363
-317
-268
-203
-143
-103
-67
-44
-27
-23
-19
-15
-12
-10
-7
-4
-2
-1
2
6
8
7
6
7
8
9
11
13
15
17
20
23
25
27
29
31
36
32
43
44
47
50
54
58
61
64
66
68
71
74
75
76
76
76
78
80
81
82
82
82
81
80
80
79
77
76
76
74
71
68
65
62
59
53
47
43
39
35
31
27
24
20
16
14
12
9
6
5
4
3
2
4
6
5
4
3
2
3
4
3
2
2
2
1
1
3
3
1
0
0
0
0
0
-1
-2
-3
-4
-5
-6
-7
-8
-6
-11
-16
-13
-10
-11
-12
-11
-10
-11
-12
-11
-10
-13
-16
-15
-14
-14
-14
-13
-12
-12
-12
-12
-12
-13
-15
-17
-18
-18
-18
-18
-18
-18
-19
-21
-21
-19
-19
-21
-22
-22
-19
-18
-18
-18
-17
-16
-18
-20
-19
-18
-18
-18
-19
-20
-19
-18
-17
-16
-17
-18
-15
-13
-10
-8
-8
-7
-4
-2
-2
-2
-1
0
1
-5
-14
-18
-21
-25
-29
-32
-35
-37
-38
-36
-34
-32
-30
-34
-38
-34
-30
-30
-30
-28
-26
-22
-20
-19
-17
-13
-8
-3
16
49
54
34
22
13
16
26
44
66
24
-41
-107
-172
-238
-303
-330
-352
-334
-311
-284
-256
-204
-154
-106
-62
-43
-25
-18
-12
-11
-9
-3
2
1
1
6
10
9
9
12
14
15
17
20
22
21
21
23
26
29
30
31
32
32
34
37
39
41
43
45
45
46
46
50
53
56
58
60
59
58
62
66
68
70
69
68
67
66
67
67
64
62
61
60
60
58
52
50
50
47
42
39
37
32
26
21
17
14
11
10
9
4
-1
-4
-6
-5
-4
-8
-12
-12
-12
-12
-12
-13
-14
-13
-12
-12
-12
-14
-16
-18
-20
-18
-16
-16
-16
-16
-16
-16
-14
-10
-9
-11
-12
-13
-12
-9
-12
-17
-17
-15
-16
-19
-20
-18
-19
-20
-20
-20
-20
-20
-21
-22
-19
-17
-21
-24
-22
-20
-20
-20
-21
-23
-26
-28
-27
-26
-27
-26
-22
-23
-28
-26
-20
-20
-23
-25
-27
-27
-25
-25
-27
-27
-25
-24
-24
-24
-24
-24
-24
-26
-28
-28
-28
-26
-24
-24
-24
-24
-24
-22
-19
-13
-12
-17
-20
-17
-14
-10
-9
-11
-12
-13
-19
-27
-30
-31
-36
-42
-44
-44
-44
-43
-43
-45
-46
-45
-43
-42
-45
-48
-45
-42
-42
-42
-41
-40
-38
-36
-35
-32
-22
-5
27
37
12
-2
-4
9
41
57
59
22
-44
-109
-175
-241
-306
-365
-421
-390
-332
-280
-229
-166
-102
-76
-53
-44
-34
-23
-12
-14
-16
-14
-12
-11
-8
3
11
6
2
0
1
11
16
9
8
20
26
23
23
26
28
29
31
34
40
46
49
51
50
47
55
66
67
65
71
79
77
80
84
96
96
96
95
94
99
104
103
102
99
96
96
96
94
92
90
88
86
82
77
70
62
56
52
50
49
43
35
32
31
30
29
25
21
17
13
12
13
13
11
12
14
11
8
12
16
15
14
17
20
19
18
19
20
19
18
20
22
21
20
22
24
23
22
22
22
22
22
21
19
17
17
19
18
15
16
19
15
9
9
11
11
8
11
14
9
4
11
18
13
8
8
8
8
8
8
7
4
4
9
10
5
4
9
12
11
10
11
12
11
11
13
14
14
15
17
17
15
16
19
20
20
21
20
23
22
24
26
25
24
24
24
30
34
36
38
37
37
42
46
47
48
46
44
44
42
38
32
25
18
9
6
7
6
2
0
-1
0
3
0
-5
-2
3
1
-3
-5
-6
-7
-8
-3
2
-1
-4
-2
9
54
82
59
38
25
21
36
55
80
65
-1
-66
-132
-197
-263
-328
-394
-389
-343
-300
-258
-199
-134
-86
-44
-17
7
10
10
18
27
28
30
32
34
33
32
34
36
39
42
40
39
44
48
47
46
46
46
47
50
56
60
57
58
63
67
69
73
78
80
80
85
92
94
95
99
103
107
111
119
127
126
128
128
134
139
144
138
132
132
132
132
131
126
122
122
122
120
114
103
94
88
83
80
76
71
64
56
50
46
45
47
43
35
32
31
30
30
30
29
28
28
24
19
26
34
27
20
31
39
24
13
20
26
25
25
31
35
28
23
19
18
23
25
22
21
24
23
15
17
26
30
31
30
27
23
18
20
25
24
21
19
17
18
21
21
18
14
10
15
20
21
21
14
8
11
13
8
4
6
9
12
14
14
14
16
15
6
2
1
3
9
7
-1
0
6
5
0
3
10
3
-8
-3
7
3
-3
9
-4
18
12
16
20
21
22
24
25
18
12
14
15
10
4
-2
-7
-13
-16
-17
-17
-14
-12
-13
-15
-18
-20
-20
-20
-20
-20
-21
-19
-15
-12
-9
-11
-15
-5
9
40
73
50
26
25
25
43
62
83
89
24
-42
-107
-173
-238
-304
-370
-394
-342
-294
-254
-203
-139
-92
-62
-37
-17
-8
-7
-3
2
4
5
7
9
10
11
15
19
19
17
21
27
22
14
22
30
30
30
33
36
39
42
45
49
53
56
57
59
64
69
72
77
84
88
88
92
102
106
106
108
112
112
109
108
109
112
115
116
116
116
117
116
113
110
112
101
96
92
88
80
72
67
62
56
52
49
45
40
35
31
27
23
20
20
20
21
21
18
16
15
14
13
13
15
16
17
18
17
16
15
15
17
17
15
18
23
21
18
22
26
25
24
23
22
22
22
25
28
27
26
26
26
24
22
23
23
20
19
22
22
18
15
13
12
11
10
9
8
9
9
7
6
5
6
9
10
11
12
10
12
14
12
10
16
22
19
16
18
19
15
12
14
16
18
19
15
13
16
18
18
18
19
22
28
29
27
28
32
34
34
33
31
30
29
25
21
15
9
8
8
9
10
-2
-14
-8
-2
5
9
1
-6
-8
-9
-4
0
-1
-2
-4
-5
-1
2
3
10
24
44
71
71
51
44
45
71
107
111
104
50
-15
-81
-146
-212
-277
-343
-408
-346
-282
-228
-173
-108
-48
-22
2
14
24
27
30
27
25
32
36
35
32
27
24
26
28
29
31
34
36
37
38
37
38
41
44
47
48
49
50
51
55
59
60
61
70
80
78
76
83
90
93
96
101
106
109
112
114
116
119
122
120
119
122
123
120
117
114
112
112
111
109
105
99
94
90
86
81
77
73
67
60
55
51
48
45
40
44
38
42
40
38
36
34
35
36
35
34
33
32
33
34
32
30
29
28
29
30
30
31
33
34
34
33
30
28
27
26
27
26
23
22
22
22
21
20
20
22
25
27
28
24
20
21
22
24
26
26
26
23
20
23
26
25
23
20
19
22
24
22
20
21
21
18
16
16
16
16
16
15
14
13
12
12
12
11
11
13
14
15
15
12
15
18
16
14
15
16
13
10
10
10
9
9
15
20
20
20
22
24
22
21
26
28
29
29
26
21
16
15
17
10
-1
-3
-1
-1
-3
0
5
3
-1
-2
-2
-1
-2
1
4
2
0
5
10
10
10
11
20
51
73
76
70
49
37
41
50
65
65
51
8
-58
-123
-189
-255
-320
-340
-339
-312
-278
-235
-190
-136
-81
-54
-30
-14
1
4
6
10
14
13
12
13
14
15
16
17
18
21
24
25
26
26
27
30
31
27
28
36
40
41
42
41
42
46
52
58
61
63
66
69
75
83
84
85
90
95
97
100
103
106
107
108
113
118
114
110
110
110
108
106
106
105
100
96
94
91
87
83
78
74
70
66
60
55
50
46
43
37
30
28
28
24
19
20
23
22
19
16
18
15
18
13
8
11
14
15
16
15
14
11
9
13
16
14
12
14
16
14
12
13
15
18
18
14
15
20
21
19
18
17
16
16
15
13
13
15
16
16
16
15
13
12
12
12
11
10
8
6
8
10
8
6
6
6
6
5
2
0
-1
-1
2
2
-2
-4
-3
-2
-2
-2
-2
-2
-1
0
1
1
-1
-2
-3
-6
-9
-4
3
-3
-12
-4
4
6
8
10
12
13
14
13
12
11
11
16
18
11
3
-5
-10
-8
-9
-18
-20
-16
-14
-14
-14
-15
-16
-17
-18
-19
-21
-23
-22
-19
-17
-15
-18
-23
-22
-24
-1
17
39
58
36
16
15
18
43
63
72
60
-5
-71
-137
-202
-268
-328
-381
-385
-331
-281
-236
-181
-119
-80
-55
-36
-19
-12
-8
-7
-9
-6
1
2
1
0
-1
2
7
5
2
5
8
10
12
15
18
19
20
20
22
30
36
37
38
40
44
49
52
53
57
64
65
59
64
78
82
78
82
91
94
95
96
96
96
95
94
94
100
107
101
92
92
92
86
80
80
80
73
67
62
57
52
47
41
34
28
23
19
14
9
5
0
-2
-2
-2
-3
-5
-7
-8
-7
-9
-14
-15
-13
-11
-9
-9
-11
-10
-7
-6
-6
-6
-6
-5
-4
-4
-4
-4
-4
-4
-4
-6
-8
-7
-6
-7
-7
-4
-4
-10
-14
-11
-10
-11
-12
-13
-13
-11
-13
-18
-18
-15
-14
-13
-13
-15
-19
-23
-18
-11
-9
-7
-9
-12
-10
-8
-10
-12
-13
-13
-6
-1
-9
-16
-13
-10
-9
-8
-9
-10
-8
-6
-8
-9
-6
-5
-7
-7
-4
-2
-2
-4
-7
-5
-1
3
7
10
13
14
13
18
25
27
30
27
24
17
10
6
2
3
3
-7
-15
-19
-23
-27
-29
-24
-20
-22
-24
-25
-26
-25
-25
-27
-30
-34
-32
-25
-22
-23
-24
-23
2
34
40
41
23
1
9
21
63
22
43
-23
-88
-154
-219
-285
-350
-405
-413
-405
-340
-275
-210
-148
-90
-48
-29
-17
-13
-8
-3
2
7
10
9
8
7
7
9
11
13
16
19
20
20
20
20
23
27
31
35
34
32
35
38
42
46
49
52
58
62
65
69
74
78
82
85
88
92
97
99
96
98
107
113
116
117
114
112
112
112
113
114
114
112
109
105
101
97
93
89
85
81
76
71
66
59
52
50
48
41
36
33
30
30
30
28
24
17
12
14
16
17
18
17
15
12
11
13
14
13
10
6
10
19
18
12
12
15
16
16
13
9
13
8
18
16
14
12
14
16
13
10
12
14
9
6
7
8
7
5
-1
-2
3
4
-1
-4
-4
-4
-4
-5
-8
-8
-5
-4
-5
-7
-9
-10
-11
-14
-17
-10
-1
-6
-13
-12
-10
-5
0
-9
-18
-15
-12
-12
-12
-12
-12
-14
-16
-15
-14
-13
-11
-7
-4
-2
1
3
5
7
8
8
11
16
15
10
4
-2
-8
-14
-17
-19
-20
-21
-26
-31
-26
-18
-21
-24
-26
-28
-27
-26
-26
-26
-28
-30
-29
-28
-26
-24
-23
-10
22
43
51
42
12
1
7
20
37
34
16
-34
-99
-165
-230
-296
-361
-382
-392
-354
-307
-253
-199
-145
-196
-61
-32
-22
-12
-8
-4
-2
0
2
4
5
6
9
12
13
14
13
11
8
7
12
13
11
12
16
17
14
16
22
25
27
33
40
38
31
30
29
36
45
46
46
48
50
57
64
62
60
68
74
74
74
73
72
73
74
74
74
74
74
76
77
73
68
64
59
53
47
42
41
43
38
29
24
21
19
17
12
7
4
1
1
3
2
-2
-6
-10
-8
-6
-6
-6
-9
-12
-9
-6
-7
-8
-6
-4
-3
-3
-6
-8
-6
-4
-3
-1
1
2
2
1
-2
-2
2
5
7
6
3
2
3
5
7
6
3
2
2
7
10
4
-2
4
9
1
-6
-4
-2
-7
-10
-8
-5
-2
-1
-7
-10
-10
-11
-14
-16
-16
-14
-10
-11
-16
-17
-15
-14
-15
-16
-16
-18
-21
-25
-29
-23
-15
-13
-11
-6
-2
-4
-6
-7
-8
-3
1
-8
-16
-20
-26
-35
-42
-41
-42
-48
-51
-48
-46
-48
-48
-44
-43
-45
-47
-49
-47
-42
-40
-40
-43
-48
-46
-40
-35
-31
8
52
38
17
-8
-34
-18
-1
19
31
-34
-100
-165
-231
-296
-359
-412
-437
-391
-346
-304
-254
-193
-142
-104
-72
-45
-30
-25
-21
-19
-18
-18
-12
-3
-2
-5
-7
-9
-9
-7
-6
-7
-8
-7
-9
-6
-6
2
0
-2
-3
-4
-1
2
6
10
13
16
17
18
16
17
25
30
32
36
41
44
45
49
55
59
61
58
52
55
62
67
72
67
58
58
61
62
61
57
53
50
48
43
38
31
24
20
16
16
15
7
0
1
1
-4
-8
-6
-6
-12
-18
-23
-24
-19
-18
-22
-27
-33
-34
-30
-30
-34
-37
-39
-35
-28
-32
-40
-39
-35
-33
-31
-30
-32
-32
-32
-35
-38
-32
-27
-37
-46
-48
-50
-48
-47
-51
-54
-54
-54
-54
-54
-55
-56
-59
-60
-60
-58
-52
-57
-68
-64
-52
-49
-51
-56
-62
-64
-63
-62
-61
-60
-61
-60
-62
-61
-66
-67
-68
-61
-54
-53
-52
-49
-46
-49
-52
-51
-50
-49
-46
-40
-41
-54
-62
-65
-66
-66
-67
-69
-73
-79
-80
-76
-74
-73
-72
-72
-73
-75
-76
-75
-74
-73
-72
-71
-70
-70
-68
-65
-52
-36
-4
19
-12
-36
-40
-39
-16
2
9
-9
-75
-140
-206
-271
-337
-391
-434
-432
-391
-354
-319
-265
-200
-154
-116
-87
-60
-58
-63
-42
-16
-32
-56
-52
-45
-42
-38
-34
-30
-27
-24
-22
-20
-15
-10
-12
-13
-9
-6
-5
-3
0
2
4
6
7
9
14
16
17
18
19
22
26
29
31
33
35
39
45
45
43
45
49
50
50
54
50
59
58
64
70
71
72
71
70
64
60
57
54
52
49
45
38
26
18
18
16
9
5
3
0
-4
-7
-9
-12
-15
-16
-15
-17
-21
-22
-22
-22
-23
-23
-21
-22
-25
-27
-28
-31
-34
-28
-22
-24
-26
-24
-22
-26
-30
-28
-26
-24
-24
-31
-33
-24
-23
-34
-39
-36
-32
-28
-30
-37
-40
-41
-40
-36
-36
-39
-39
-37
-37
-39
-40
-39
-39
-41
-43
-46
-44
-42
-43
-44
-44
-44
-44
-44
-43
-43
-48
-50
-42
-36
-36
-34
-28
-23
-20
-18
-21
-20
-16
-14
-15
-16
-16
-22
-33
-36
-37
-43
-50
-52
-52
-52
-53
-54
-55
-53
-56
-50
-52
-54
-56
-54
-52
-52
-52
-49
-46
-47
-48
-45
-30
6
28
22
6
-22
-31
-14
-2
7
-16
-66
-125
-191
-257
-322
-378
-430
-428
-405
-373
-338
-287
-232
-173
-112
-81
-51
-35
-20
-16
-12
-12
-12
-7
-2
0
2
1
0
2
4
6
7
4
3
7
10
10
10
10
14
22
26
25
24
25
27
29
32
35
36
37
40
43
45
47
54
61
59
54
58
62
63
64
65
66
69
72
71
70
72
74
75
76
76
75
72
70
69
64
53
48
48
47
44
39
33
30
31
29
24
19
15
13
11
12
15
12
7
9
6
11
8
10
12
12
12
14
16
18
20
15
12
14
16
15
14
16
18
17
16
16
16
16
16
16
16
15
13
11
10
11
10
7
6
7
7
5
1
-3
-4
-3
-3
-4
-5
-6
-5
-4
-5
-6
-7
-8
-9
-10
-7
-4
-5
-5
-2
-2
-7
-10
-9
-8
-9
-10
-10
-10
-10
-7
0
2
3
7
11
13
15
16
17
21
25
20
13
9
4
1
-2
-5
-8
-8
-8
-8
-8
-6
-4
-4
-4
-4
-4
-6
-8
-7
-6
-5
-4
-3
-2
-2
0
6
31
69
65
40
24
11
20
36
42
45
-10
-75
-141
-206
-272
-210
-362
-385
-353
-322
-291
-256
-197
-139
-91
-48
-23
-2
5
12
20
26
26
28
33
36
36
37
40
43
46
48
48
48
49
50
50
53
57
58
59
60
60
62
65
67
69
72
74
74
74
79
84
84
84
86
88
90
92
93
94
96
99
102
104
104
104
106
108
107
105
103
102
101
100
99
96
93
92
92
88
83
81
79
76
73
67
61
57
52
51
50
48
46
44
42
38
34
35
36
34
32
33
34
32
30
32
34
33
32
31
30
31
32
31
30
30
31
33
34
34
34
35
36
35
34
35
36
35
34
34
35
34
34
34
32
30
31
32
33
34
33
32
32
32
32
32
32
32
31
30
31
32
31
30
30
34
43
40
30
28
31
32
32
32
32
35
39
37
33
33
35
36
36
37
38
36
34
35
36
36
36
38
40
38
36
37
38
40
42
42
44
49
52
51
50
49
51
57
59
55
54
55
53
49
44
38
36
37
36
33
28
23
29
38
40
42
38
34
35
36
37
38
38
38
39
40
38
37
41
54
81
96
98
89
66
57
64
75
87
91
88
42
-23
-89
-154
-214
-273
-281
-277
-253
-225
-184
-141
-92
-138
-17
8
27
44
51
58
60
62
63
64
65
66
68
70
69
69
73
76
76
76
77
79
81
82
82
85
90
92
92
93
95
96
96
97
99
103
107
108
109
110
111
116
120
119
118
119
120
123
126
126
126
124
122
124
126
127
128
128
128
128
128
127
125
123
122
121
119
116
112
108
104
101
97
93
89
85
82
79
75
71
69
67
65
62
60
58
55
52
54
56
54
52
53
54
54
54
52
50
49
48
48
48
49
50
47
46
45
45
47
47
44
42
43
44
43
41
39
38
39
39
37
36
37
38
38
37
36
34
32
33
34
33
32
32
32
31
30
30
30
28
26
26
26
26
26
23
23
25
26
25
24
25
25
23
22
23
25
27
28
28
28
28
28
28
28
28
27
26
26
26
26
26
26
26
25
24
23
22
21
20
19
18
16
14
16
18
18
21
27
30
29
28
27
29
34
34
30
28
28
24
18
16
16
12
7
6
6
6
4
3
2
3
4
5
6
3
0
3
6
6
6
5
4
5
6
4
11
32
50
63
54
22
14
25
47
76
86
85
37
-28
-94
-159
-225
-290
-329
-362
-330
-290
-250
-288
-146
-83
-56
-29
-9
8
12
17
23
28
28
28
31
34
34
35
38
40
39
39
44
46
45
45
48
51
53
53
51
51
53
56
59
60
60
61
63
66
69
70
70
75
80
81
82
84
86
90
94
94
94
94
94
94
94
93
92
93
94
92
90
89
86
82
78
74
71
68
65
61
55
47
44
44
40
34
31
29
27
25
23
21
20
20
20
20
18
16
16
16
14
12
11
10
10
10
10
10
12
14
15
16
16
16
16
15
13
12
13
13
11
11
13
14
13
12
11
10
9
8
9
7
3
1
2
-1
0
0
0
1
2
-1
-4
-5
-6
-9
-12
-12
-12
-13
-14
-14
-14
-13
-13
-16
-17
-15
-14
-15
-15
-13
-14
-17
-18
-17
-17
-19
-20
-19
-18
-19
-20
-20
-24
-29
-26
-22
-24
-26
-27
-28
-25
-22
-26
-30
-29
-28
-28
-28
-26
-24
-23
-22
-22
-22
-21
-20
-19
-18
-18
-19
-21
-21
-19
-18
-18
-18
-19
-20
-19
-17
-15
-14
-14
-10
-5
-4
-4
-4
-4
-4
-4
-5
-6
-13
-18
-21
-26
-34
-40
-40
-40
-39
-39
-43
-45
-41
-38
-38
-39
-41
-42
-42
-42
-42
-42
-42
-42
-42
-42
-42
-31
-17
9
37
13
-18
-20
-20
10
38
48
52
-13
-79
-144
-210
-275
-337
-386
-410
-366
-325
-289
-242
-177
-123
-85
-54
-31
-17
-10
-6
-5
-3
0
5
10
13
15
16
16
19
23
24
24
25
27
30
33
32
30
33
36
34
32
35
38
39
40
43
46
46
46
48
51
54
56
56
57
61
66
70
72
72
72
71
71
73
74
74
74
75
75
73
72
73
72
69
67
65
60
54
50
46
42
38
32
26
22
18
14
10
8
6
4
2
0
-2
-4
-6
-7
-8
-9
-10
-9
-10
-14
-16
-16
-16
-15
-15
-17
-18
-18
-18
-19
-19
-17
-16
-16
-17
-16
-17
-14
-15
-16
-19
-22
-21
-20
-19
-18
-20
-22
-23
-24
-25
-26
-28
-30
-32
-34
-33
-33
-36
-38
-38
-38
-37
-37
-39
-40
-41
-41
-39
-38
-38
-39
-41
-42
-42
-40
-37
-37
-38
-37
-36
-35
-34
-34
-34
-34
-34
-34
-34
-33
-32
-33
-34
-35
-36
-37
-38
-36
-34
-35
-37
-39
-39
-37
-37
-41
-42
-43
-44
-43
-42
-43
-44
-43
-43
-45
-46
-46
-46
-48
-49
-50
-48
-46
-47
-48
-49
-50
-50
-50
-50
-50
-49
-49
-52
-54
-52
-50
-50
-49
-44
-41
-39
-38
-37
-35
-33
-35
-40
-40
-37
-43
-52
-54
-55
-57
-59
-60
-60
-60
-60
-60
-58
-56
-54
-53
-52
-50
-48
-50
-52
-47
-44
-43
-42
-42
-38
-26
-6
24
27
-2
-15
-13
-3
15
33
53
17
-48
-114
-179
-245
-310
-350
-384
-365
-334
-309
-284
-228
-169
-128
-88
-63
-40
-32
-24
-20
-16
-13
-10
-10
-10
-8
-6
-2
0
-1
-2
-2
-1
3
5
3
3
5
6
7
9
13
14
14
14
15
16
17
21
25
27
29
32
35
37
40
44
48
48
48
50
52
54
56
56
56
58
60
61
62
62
62
60
58
57
56
53
50
46
42
38
33
28
24
20
16
11
8
5
2
-1
-3
-5
-9
-13
-14
-14
-17
-18
-18
-18
-19
-20
-19
-18
-20
-22
-21
-20
-21
-22
-21
-20
-20
-20
-19
-18
-19
-19
-17
-17
-19
-19
-16
-14
-15
-15
-13
-12
-12
-12
-13
-14
-15
-16
-15
-14
-15
-15
-14
-17
-20
-21
-22
-22
-22
-23
-24
-23
-22
-24
-26
-27
-28
-29
-30
-32
-34
-36
-38
-39
-40
-39
-39
-42
-43
-41
-40
-41
-42
-43
-44
-44
-44
-44
-44
-45
-46
-45
-45
-48
-46
-44
-43
-42
-42
-42
-43
-44
-43
-42
-44
-46
-46
-46
-45
-45
-48
-50
-49
-48
-49
-50
-50
-50
-49
-48
-48
-48
-47
-46
-46
-46
-45
-44
-44
-44
-43
-42
-41
-35
-40
-31
-34
-29
-24
-23
-22
-22
-22
-23
-26
-35
-42
-44
-46
-46
-47
-50
-52
-53
-54
-54
-54
-53
-51
-49
-49
-51
-52
-51
-50
-49
-48
-47
-46
-47
-45
-41
-9
27
18
5
-20
-44
-21
2
33
53
-3
-61
-126
-192
-257
-323
-388
-429
-412
-386
-345
-299
-246
-191
-136
-96
-70
-52
-41
-32
-23
-19
-17
-14
-11
-7
-3
-2
-3
-2
1
2
3
6
9
10
10
10
10
12
14
16
18
19
20
23
26
29
32
34
38
44
48
49
52
58
62
63
66
71
75
77
78
79
81
83
84
83
82
83
83
81
80
81
79
75
73
74
65
60
57
54
49
44
40
36
30
25
20
16
14
12
10
8
6
4
4
4
3
2
1
-1
-4
-6
-5
-4
-4
-4
-3
-3
-5
-5
-3
-2
-2
-2
-2
-2
-3
-4
-4
-3
-2
-1
0
0
0
-1
-2
-1
0
-1
-2
0
2
0
-2
-1
0
0
0
1
2
3
4
3
2
1
0
0
0
-1
-2
-3
-3
-1
-1
-3
-4
-5
-6
-6
-6
-6
-7
-8
-8
-8
-5
-2
-5
-8
-10
-12
-9
-6
-7
-8
-10
-11
-8
-7
-10
-12
-11
-9
-7
-7
-9
-10
-11
-11
-9
-8
-7
-7
-9
-10
-9
-8
-7
-7
-6
-11
-12
-9
-6
-7
-8
-6
-4
-5
-6
-7
-8
-7
-6
-6
-5
-1
2
4
6
3
5
11
13
11
11
13
14
15
14
11
10
10
6
-1
-3
-5
-8
-11
-12
-13
-15
-16
-14
-12
-9
-6
-6
-6
-7
-8
-7
-6
-6
-6
-2
0
-2
1
14
34
62
62
32
19
21
37
64
84
100
61
-4
-70
-135
-201
-266
-321
-373
-350
-315
-281
-248
-185
-122
-80
-39
-17
4
13
20
22
24
28
32
34
36
38
40
40
40
42
45
48
50
51
52
52
53
55
58
62
64
63
64
67
68
69
71
73
75
77
80
83
85
84
90
92
95
98
99
100
103
106
107
108
109
110
113
116
116
116
115
114
114
114
114
112
108
105
103
100
96
92
88
84
80
76
73
68
61
58
55
50
45
44
44
42
40
38
36
34
32
30
28
28
28
25
22
24
26
26
26
25
24
24
24
25
26
26
27
29
30
30
30
31
32
31
30
31
32
32
32
32
32
32
32
33
34
36
35
34
34
34
33
32
32
32
30
28
29
30
29
28
29
30
30
30
29
28
28
29
31
32
31
30
31
32
31
30
29
29
31
32
32
32
32
32
32
32
32
34
36
35
34
33
32
31
30
30
30
32
34
32
30
30
30
30
30
28
26
29
30
29
28
27
26
27
28
29
29
27
26
27
28
27
27
29
30
29
29
31
33
34
39
44
43
42
43
44
46
48
46
44
42
38
30
24
22
20
18
16
16
15
12
11
14
16
16
16
16
16
17
18
19
20
19
19
21
22
23
38
53
75
98
64
32
41
52
70
88
101
99
34
-32
-97
-163
-228
-284
-320
-330
-300
-270
-243
-201
-145
-98
-59
-29
-5
9
17
22
25
28
33
35
37
38
39
40
41
42
43
44
44
44
46
49
52
52
52
52
52
56
60
61
62
64
66
67
69
72
76
81
84
85
87
89
91
94
98
102
104
104
105
107
108
109
112
115
116
115
114
114
114
113
112
112
110
108
103
98
97
96
90
86
84
81
76
72
68
65
62
59
55
52
51
49
47
45
43
42
41
39
37
35
33
32
33
34
33
31
29
28
28
29
31
32
30
28
26
29
32
33
34
34
34
32
30
30
30
29
28
29
30
31
32
30
29
32
33
30
28
27
26
26
26
25
24
24
24
24
24
23
22
21
20
19
18
18
17
16
15
14
17
20
18
16
16
16
18
20
19
18
17
16
16
16
17
18
17
16
15
13
11
11
13
12
9
8
9
9
7
6
6
6
5
5
7
6
3
3
4
4
4
3
2
1
0
-1
-2
0
2
3
5
10
14
14
15
18
20
22
23
21
20
19
14
7
4
3
0
-3
-4
-5
-6
-5
-4
-4
-3
-1
-4
-9
-10
-10
-9
-8
-11
-14
-11
-8
-10
-12
-11
-7
7
24
47
53
24
8
14
28
53
76
97
74
8
-57
-123
-188
-254
-302
-341
-331
-301
-273
-246
-196
-142
-99
-58
-32
-8
4
-6
17
18
21
24
25
26
26
26
29
32
31
30
29
29
32
34
33
32
33
34
33
33
35
36
35
36
40
42
42
44
48
51
53
56
59
63
67
72
77
80
83
86
88
90
92
94
96
96
96
98
100
97
94
96
97
92
88
86
84
82
79
76
71
65
59
53
48
44
40
36
30
24
21
19
15
11
9
7
4
1
-1
-3
-8
-14
-11
-8
-12
-16
-16
-16
-17
-18
-19
-20
-18
-16
-18
-19
-16
-14
-13
-12
-11
-10
-9
-9
-11
-10
-4
-2
-3
-3
-1
0
1
2
1
1
3
4
5
4
1
-1
0
-4
-4
-2
0
-1
-2
-4
-6
-5
-4
-5
-6
-6
-6
-7
-8
-9
-10
-11
-12
-13
-14
-14
-14
-14
-14
-14
-15
-17
-18
-18
-18
-18
-19
-21
-20
-17
-18
-21
-22
-22
-24
-26
-27
-28
-28
-28
-26
-24
-28
-32
-31
-30
-30
-30
-32
-34
-33
-32
-31
-28
-23
-18
-13
-10
-11
-11
-9
-6
-2
-2
-6
-7
-5
-11
-20
-22
-23
-26
-29
-33
-37
-39
-42
-41
-40
-39
-38
-39
-40
-44
-48
-47
-46
-46
-46
-43
-40
-40
-40
-40
-29
-2
14
21
10
-18
-23
-11
12
42
44
30
-21
-86
-152
-217
-283
-348
-381
-409
-367
-317
-277
-314
-175
-113
-84
-57
-39
-24
-23
-22
-20
-18
-17
-16
-18
-18
-12
-8
-10
-12
-11
-10
-9
-8
-9
-5
4
7
5
5
7
10
14
17
19
20
21
28
37
38
37
38
41
43
44
47
50
53
56
62
68
68
69
74
78
76
75
79
82
84
86
85
84
82
79
77
75
72
67
61
55
48
46
45
38
29
22
16
13
11
7
3
1
-1
1
6
-1
-8
-7
-6
-10
-14
-14
-14
-11
-9
-13
-16
-13
-10
-12
-14
-14
-14
-14
-14
-13
-10
-5
-6
-13
-16
-15
-12
-8
-7
-9
-13
-19
-16
-9
-14
-21
-19
-15
-18
-14
-19
-14
-15
-16
-18
-20
-21
-22
-19
-16
-19
-22
-23
-23
-19
-17
-20
-23
-27
-28
-21
-20
-24
-26
-26
-28
-32
-34
-35
-33
-28
-32
-40
-34
-22
-24
-29
-30
-31
-29
-25
-26
-28
-28
-28
-30
-32
-33
-33
-27
-23
-28
-32
-31
-30
-28
-27
-30
-32
-30
-29
-32
-32
-27
-25
-27
-25
-19
-15
-11
-10
-11
-9
-5
-6
-9
-15
-21
-23
-25
-26
-27
-34
-42
-46
-50
-46
-42
-44
-46
-41
-37
-44
-49
-45
-42
-43
-44
-42
-39
-36
-34
-36
-35
-26
-8
20
31
28
12
-10
-5
14
27
37
15
-17
-77
-142
-208
-273
-339
-404
-397
-408
-351
-316
-267
-218
-164
-114
-81
-53
-42
-33
-26
-20
-17
-13
-8
-4
-5
-6
-4
-2
-2
-2
-2
0
6
6
2
2
5
5
3
4
7
9
11
14
17
18
18
22
27
30
32
33
34
39
44
47
50
49
49
55
60
57
55
59
63
68
71
67
64
64
64
65
66
65
63
60
56
52
49
47
43
38
32
26
19
11
9
7
2
-3
-9
-16
-17
-18
-17
-16
-21
-26
-24
-22
-25
-28
-25
-22
-25
-28
-27
-26
-28
-29
-25
-22
-25
-26
-26
-26
-26
-26
-27
-27
-25
-25
-27
-26
-23
-20
-17
-18
-21
-22
-21
-20
-20
-21
-22
-22
-22
-24
-26
-23
-21
-28
-34
-33
-32
-34
-36
-36
-35
-32
-30
-31
-33
-36
-38
-38
-37
-34
-31
-28
-27
-29
-30
-30
-28
-25
-24
-25
-24
-21
-23
-27
-28
-27
-25
-24
-23
-22
-20
-18
-21
-24
-27
-30
-26
-22
-23
-25
-29
-31
-26
-22
-22
-20
-15
-12
-12
-11
-8
-6
-6
-6
-6
-11
-19
-22
-22
-28
-36
-38
-37
-36
-37
-36
-33
-31
-28
-29
-30
-28
-26
-28
-30
-26
-22
-22
-22
-20
-18
-15
-6
14
30
41
35
3
-8
5
17
29
36
40
2
-64
-130
-195
-261
-326
-364
-394
-370
-332
-292
-252
-194
-133
-97
-130
-39
-16
-12
-8
-5
-2
0
2
6
10
10
10
13
16
15
14
16
18
18
19
22
23
21
22
26
28
28
30
34
36
36
37
39
43
47
49
51
52
53
54
55
60
64
63
62
69
76
73
70
72
74
74
74
76
78
76
74
74
74
72
70
68
65
62
59
56
51
46
43
39
38
37
32
26
24
25
26
26
23
19
18
18
18
20
18
16
16
16
17
18
18
18
16
14
15
16
16
16
15
15
19
22
20
18
18
19
21
22
21
20
21
22
21
20
19
18
18
18
17
16
15
13
11
10
10
9
8
8
8
8
8
6
4
3
2
1
0
0
0
2
4
4
4
3
2
2
2
3
4
4
3
1
0
0
-1
-3
-1
4
4
1
0
0
0
0
0
1
2
2
5
8
10
12
12
12
15
18
19
20
19
18
20
21
17
13
9
6
4
1
-1
-4
-8
-9
-7
-7
-9
-8
-4
-2
-3
-4
-5
-6
-6
-6
-6
-6
-6
-5
-2
-2
-1
31
60
51
41
22
8
23
38
55
61
37
-2
-68
-133
-199
-259
-314
-338
-329
-308
-277
-237
-189
-137
-84
-47
-19
2
19
25
27
31
35
40
45
46
45
44
44
49
52
54
56
56
56
55
55
61
66
64
62
63
64
65
66
67
70
75
78
79
80
79
80
84
87
90
93
95
96
97
99
101
103
105
106
106
106
106
105
103
105
108
104
100
100
100
99
98
94
89
83
78
76
72
65
60
58
54
49
45
42
40
40
38
34
32
31
29
25
24
25
25
23
21
19
18
19
20
20
19
17
20
26
24
22
20
18
18
18
19
20
18
16
18
20
19
18
16
14
13
12
12
11
8
7
10
12
11
9
7
6
7
8
7
7
9
10
9
9
11
13
15
15
16
13
14
13
12
9
6
10
14
11
8
8
8
8
7
4
2
3
4
5
6
5
4
5
7
9
10
9
8
7
8
11
12
12
16
23
24
25
28
31
32
33
33
32
33
34
29
24
20
15
7
0
1
2
-1
-4
-3
-2
-3
-4
-4
-4
-5
-6
-6
-6
-6
-6
-6
-7
-9
-8
-4
4
13
40
70
58
35
26
19
42
69
87
105
40
-26
-91
-157
-222
-286
-344
-384
-352
-318
-275
-225
-161
-105
-65
-32
-9
5
9
13
18
22
27
30
31
32
31
30
31
33
35
36
37
38
39
39
37
41
47
48
48
47
48
49
50
55
60
60
60
62
64
69
72
74
77
80
84
90
94
95
96
99
103
110
113
110
109
112
114
115
116
115
114
114
114
113
108
103
99
95
89
83
74
66
65
64
51
40
40
40
37
34
31
28
27
26
28
29
26
24
26
27
23
21
24
27
29
31
33
34
34
34
35
36
35
36
39
40
41
44
47
43
37
43
52
42
32
38
44
43
42
42
42
39
36
35
34
35
35
31
28
29
30
30
30
30
30
30
29
27
27
29
30
30
32
35
32
26
21
17
17
19
20
20
20
20
19
18
17
16
16
16
14
12
10
8
13
15
9
6
14
20
20
20
19
18
19
21
23
26
32
27
15
20
35
38
34
33
35
36
36
36
35
35
37
31
23
19
16
15
14
12
10
9
8
5
2
3
4
2
0
0
0
-2
-4
-2
0
1
2
3
6
10
13
16
36
65
65
50
38
27
39
58
77
95
45
-17
-82
-147
-213
-278
-302
-326
-311
-296
-270
-241
-192
-143
-97
-56
-32
-12
-3
5
8
12
19
24
25
26
23
24
29
32
33
33
30
30
34
36
36
36
36
36
36
40
45
46
47
49
48
53
54
62
70
64
58
65
70
71
73
78
82
81
80
80
81
87
91
94
93
86
84
89
91
89
88
88
88
87
84
81
80
79
74
69
67
65
58
51
54
59
46
32
30
28
27
26
24
21
15
10
11
12
10
8
6
3
-1
-4
-2
0
-2
-3
-1
-2
-6
-7
-4
-2
-2
0
4
1
-6
-2
6
8
7
7
9
10
9
10
14
10
6
4
2
5
8
4
0
-2
-4
-4
-4
-3
-3
-8
-12
-10
-8
-9
-10
-11
-12
-11
-10
-11
-13
-15
-15
-13
-12
-11
-10
-10
-13
-17
-16
-13
-13
-15
-14
-16
-13
-16
-14
-12
-12
-12
-13
-14
-15
-16
-14
-12
-15
-17
-13
-10
-12
-14
-12
-10
-10
-10
-10
-9
-6
-4
-5
-6
-6
-5
-3
-1
1
2
3
6
9
10
9
12
17
13
8
10
12
4
-4
-5
-6
-9
-12
-14
-16
-18
-20
-20
-20
-21
-22
-21
-21
-24
-25
-23
-22
-22
-23
-25
-25
-23
-22
-22
-2
25
37
44
26
2
10
24
56
88
77
61
-4
-70
-135
-201
-266
-325
-349
-361
-322
-282
-239
-191
-134
-87
-58
-35
-22
-14
-14
-11
-4
0
0
1
3
4
5
7
9
10
9
11
15
15
13
12
13
14
15
18
16
22
22
22
22
28
34
37
40
41
43
48
53
57
60
59
59
65
69
73
77
80
82
82
84
88
90
89
89
91
92
91
88
85
84
83
79
75
71
67
61
55
51
48
47
46
40
34
28
22
20
18
15
12
10
8
6
4
5
5
1
-2
0
1
-1
-2
-3
-5
-7
-9
-11
-12
-11
-10
-10
-11
-13
-14
-15
-17
-19
-17
-13
-13
-16
-19
-22
-23
-24
-21
-18
-20
-22
-22
-22
-21
-20
-20
-21
-24
-24
-19
-16
-18
-20
-21
-21
-19
-18
-18
-18
-18
-18
-18
-18
-19
-20
-19
-18
-19
-20
-21
-20
-17
-17
-16
-22
-24
-24
-24
-23
-22
-23
-24
-23
-22
-27
-30
-32
-32
-26
-24
-30
-33
-30
-28
-31
-31
-28
-26
-27
-27
-25
-24
-23
-25
-30
-28
-22
-20
-20
-17
-13
-12
-13
-9
-3
-5
-8
-5
-2
-7
-12
-20
-26
-27
-30
-41
-52
-61
-61
-39
-29
-46
-56
-54
-49
-42
-41
-48
-49
-41
-38
-37
-36
-37
-38
-37
-35
-33
-32
-31
-3
29
34
35
14
-11
6
26
54
78
32
-17
-82
-148
-213
-279
-344
-393
-387
-369
-324
-279
-233
-183
-128
-83
-51
-31
-22
-17
-14
-11
-9
-6
-2
0
0
2
5
5
3
2
3
5
7
5
1
4
0
11
12
16
20
20
20
22
24
28
32
31
32
41
49
53
57
60
64
69
73
76
79
82
84
85
87
89
90
91
92
92
90
87
86
86
85
83
79
75
71
67
63
60
54
48
44
40
32
26
23
20
16
11
5
0
-1
-3
-6
-8
-10
-12
-11
-11
-14
-16
-16
-17
-19
-20
-19
-18
-19
-17
-12
-15
-22
-20
-15
-14
-15
-16
-16
-14
-10
-14
-18
-19
-20
-22
-23
-13
-5
-15
-22
-19
-16
-15
-13
-8
-4
-5
-6
-8
-9
-4
-2
-3
-5
-7
-8
-8
-8
-7
-6
-7
-8
-9
-10
-11
-12
-13
-15
-17
-18
-18
-19
-22
-22
-22
-23
-24
-21
-18
-19
-20
-21
-22
-19
-17
-20
-22
-21
-20
-19
-18
-19
-20
-21
-21
-18
-16
-17
-18
-17
-18
-21
-21
-19
-18
-17
-16
-17
-20
-23
-24
-24
-24
-24
-22
-20
-19
-18
-15
-12
-11
-10
-7
-4
-6
-8
-6
-4
-2
-4
-14
-20
-18
-19
-25
-28
-29
-31
-33
-33
-31
-30
-30
-29
-27
-26
-27
-28
-27
-27
-29
-26
-21
-20
-22
-22
-22
-7
8
35
54
25
2
4
11
35
56
70
58
-8
-73
-139
-204
-270
-321
-357
-359
-331
-302
-273
-225
-166
-121
-83
-54
-28
-16
-8
-4
-1
1
3
8
13
14
14
16
16
16
16
18
20
21
22
22
22
20
18
21
25
28
30
30
30
31
33
38
41
43
45
48
50
51
54
58
62
66
71
75
80
85
86
86
87
89
91
93
94
94
93
92
94
96
93
90
87
84
83
81
76
71
67
63
58
54
52
48
42
36
32
30
29
27
24
21
17
15
13
11
9
8
8
8
8
8
7
6
6
6
8
7
6
5
4
9
14
11
8
10
12
10
8
9
10
9
8
8
8
7
6
9
9
6
4
4
4
5
5
3
3
5
6
5
4
5
6
5
4
4
4
4
2
0
-1
-2
-1
0
-1
-2
-2
-2
-5
-8
-8
-8
-9
-10
-9
-8
-9
-10
-7
-7
-9
-10
-9
-8
-7
-6
-6
-6
-6
-6
-6
-6
-5
-6
-9
-5
1
-2
-7
-11
-14
-9
-4
2
8
5
2
-4
-7
1
9
13
16
14
14
20
23
20
18
19
21
24
25
23
21
19
14
7
4
5
3
-1
-2
-3
-5
-7
-8
-8
-8
-7
-9
-14
-13
-12
-10
-8
-6
-4
-3
-2
0
3
8
21
53
72
66
54
34
29
47
67
92
85
50
-3
-69
-134
-200
-261
-319
-332
-326
-302
-272
-231
-187
-136
-83
-55
-30
-17
-28
2
8
9
10
11
12
12
12
15
18
16
14
13
13
16
18
20
22
24
27
30
32
33
35
38
41
44
49
54
58
62
64
63
67
74
77
79
85
91
95
99
102
104
108
112
113
114
115
116
119
122
120
118
117
116
114
111
108
104
98
93
89
83
76
69
63
57
52
48
44
38
32
28
25
22
19
15
11
8
5
4
4
4
2
0
-2
-3
-4
-7
-10
-3
2
-2
-6
-3
0
-2
-5
-9
-8
2
5
-2
-2
9
14
14
14
14
13
11
11
13
13
11
10
9
8
7
10
15
15
13
12
12
11
10
11
12
10
8
9
10
7
4
5
6
6
6
7
8
7
6
4
2
5
6
5
4
4
4
4
4
3
2
1
-1
-3
-4
-3
-3
-5
-5
-3
-3
-5
-5
-4
-5
-6
-5
-4
-6
-8
-5
-2
-1
0
-2
-4
-5
-6
-5
-2
6
10
9
8
8
11
19
20
16
14
14
13
11
7
2
-1
-3
-4
-5
-9
-13
-14
-14
-14
-12
-9
-6
-11
-16
-17
-18
-14
-10
-10
-10
-9
-8
-8
-7
-4
8
33
51
58
50
23
17
31
58
92
97
82
32
-33
-99
-164
-230
-295
-335
-369
-335
-289
-248
-208
-146
-206
-59
-36
-20
-6
-3
0
2
4
4
4
7
10
13
15
12
10
9
11
19
24
23
22
21
21
23
25
27
29
31
32
33
38
44
46
46
50
55
58
61
67
73
73
72
77
82
85
88
93
98
97
96
97
98
98
98
102
103
100
98
100
102
100
95
89
85
83
80
76
71
66
62
58
52
46
42
39
35
31
28
25
20
15
13
10
10
10
5
0
1
2
3
4
3
2
1
0
1
2
3
4
3
3
7
9
4
4
8
10
9
8
7
6
7
9
11
10
7
7
9
10
10
10
11
12
12
12
14
11
8
9
10
8
6
8
10
10
10
9
8
9
10
9
8
7
7
10
12
13
12
8
7
9
9
7
8
12
10
4
2
2
2
2
2
1
0
0
1
2
1
0
0
0
0
0
-2
-4
-2
0
-1
-2
-3
-4
-4
-4
-5
-6
-5
-6
-10
-10
-6
-3
0
2
1
4
10
12
12
12
13
15
17
15
11
7
3
-1
-6
-6
-6
-14
-22
-18
-14
-14
-14
-12
-11
-15
-18
-18
-18
-20
-22
-20
-18
-20
-22
-21
-18
-14
5
36
46
42
25
1
4
18
37
58
35
1
-60
-125
-191
-256
-322
-260
-383
-377
-337
-296
-251
-204
-146
-94
-69
-46
-28
-14
-12
-10
-8
-6
-4
-2
-2
-2
-1
2
7
10
10
10
9
10
13
16
20
22
23
24
25
29
33
34
35
38
41
44
46
47
48
50
52
54
56
58
60
63
66
69
72
73
74
74
76
81
83
79
78
83
85
83
79
74
75
80
76
67
67
72
64
51
53
61
58
53
48
43
42
42
37
32
30
28
26
24
23
22
19
16
19
22
19
17
20
21
18
16
18
20
19
17
15
14
15
16
15
13
11
10
10
10
11
13
15
14
11
9
7
6
6
10
12
10
8
6
4
3
2
0
-2
0
2
-1
-4
-4
-4
-6
-8
-7
-6
-9
-9
-7
-7
-9
-10
-11
-12
-12
-12
-13
-13
-11
-11
-13
-11
-7
-7
-9
-7
-3
-3
-4
-5
-6
-5
-4
-4
-4
-5
-6
-4
-2
-3
-4
-6
-7
-4
-2
-3
-4
-2
-1
-3
-1
5
9
11
13
17
18
17
16
17
19
21
22
23
18
11
6
1
-3
-8
-12
-16
-16
-16
-16
-16
-15
-15
-20
-24
-24
-24
-25
-26
-26
-26
-25
-24
-24
-24
-24
-12
12
27
36
24
-3
-6
5
26
52
66
77
27
-38
-104
-169
-235
-300
-331
-304
-323
-285
-247
-207
-151
-98
-70
-43
-25
-10
-7
-3
1
4
6
8
9
10
9
8
11
12
11
10
10
13
18
20
19
20
23
24
23
27
34
34
31
36
43
43
41
44
48
50
52
58
64
65
66
70
74
76
78
78
79
84
88
88
88
90
92
92
92
91
90
89
87
85
81
76
72
69
64
58
53
49
43
35
33
31
25
19
17
14
12
10
4
-2
0
2
-1
-4
-6
-8
-9
-10
-11
-12
-11
-10
-10
-10
-8
-7
-10
-12
-11
-10
-9
-8
-7
-5
-3
-4
-7
-8
-8
-10
-13
-10
-5
-7
-11
-11
-12
-7
-6
-11
-16
-12
-9
-16
-22
-20
-18
-18
-18
-16
-14
-15
-16
-18
-19
-16
-14
-17
-18
-19
-19
-16
-15
-18
-17
-12
-12
-16
-18
-17
-16
-17
-18
-17
-16
-17
-18
-18
-16
-14
-13
-12
-11
-10
-10
-10
-9
-8
-10
-12
-9
-6
-8
-10
-11
-12
-10
-8
-6
-2
3
6
6
8
12
14
15
16
16
17
19
16
11
7
3
-2
-7
-11
-15
-16
-14
-18
-22
-23
-24
-24
-24
-23
-22
-24
-26
-26
-26
-26
-26
-26
-26
-25
-22
-16
5
41
48
29
14
3
10
31
54
79
39
-26
-92
-157
-223
-288
-343
-397
-377
-348
-312
-346
-219
-162
-117
-74
-50
-28
-25
-22
-18
-14
-9
-6
-5
-4
-5
-5
-1
3
7
10
9
10
14
16
17
18
18
20
24
27
29
30
31
34
37
40
43
46
49
52
55
60
64
69
74
75
76
81
86
86
86
90
94
97
100
99
97
92
90
96
100
98
94
89
88
93
90
80
75
71
67
62
57
52
48
45
38
30
27
25
21
17
16
16
13
10
8
6
7
8
4
0
1
2
2
2
2
2
1
0
1
2
0
-2
-2
-1
2
4
3
2
3
4
4
4
3
1
-1
2
7
6
3
2
3
4
4
5
4
0
-4
2
8
1
-4
-2
0
-2
-4
-2
0
-1
-3
-6
-8
-10
-12
-12
-12
-11
-11
-14
-15
-13
-12
-13
-14
-14
-15
-17
-18
-19
-18
-15
-14
-15
-16
-16
-16
-16
-14
-12
-12
-12
-12
-12
-11
-10
-9
-8
-8
-7
-2
4
10
14
16
18
19
23
29
31
29
28
28
25
20
17
15
10
4
1
-1
-2
-3
-6
-9
-9
-7
-10
-16
-14
-12
-13
-14
-18
-21
-14
-8
-11
-14
-15
-11
9
29
50
53
23
7
11
29
62
79
81
45
-21
-86
-152
-218
-283
-333
-377
-353
-307
-265
-224
-163
-98
-66
-38
-25
-36
-7
-2
0
2
6
10
9
8
10
12
13
14
16
18
20
22
21
21
25
28
29
31
33
35
37
39
41
44
48
50
49
53
60
62
61
65
71
74
77
80
83
88
92
90
88
93
98
98
98
99
100
99
98
96
94
93
91
88
85
81
77
73
68
63
59
56
50
43
37
32
28
24
19
15
13
11
8
5
4
5
5
3
2
2
2
2
1
0
1
2
3
4
4
4
4
4
5
6
6
6
5
4
6
8
8
8
7
7
9
10
10
9
7
6
7
8
9
10
9
6
3
4
7
7
8
7
10
9
8
8
8
7
6
8
10
9
8
7
6
5
4
5
6
6
6
6
6
5
4
5
6
6
6
5
4
4
4
4
4
4
4
3
2
2
2
1
1
2
2
2
6
10
8
6
10
14
18
22
21
21
25
28
28
28
28
28
28
27
24
21
18
13
7
3
1
0
-1
-2
-3
-6
-9
-10
-9
-13
-19
-20
-19
-15
-10
-10
-10
-10
-10
-8
-6
-3
6
40
64
52
39
19
11
28
43
57
50
14
-37
-103
-168
-234
-286
-329
-338
-323
-301
-276
-235
-189
-137
-83
-55
-34
-15
4
6
6
6
6
8
8
14
20
18
16
17
18
17
16
17
18
19
20
20
20
21
22
24
26
27
29
31
32
33
37
43
46
45
45
47
49
51
55
59
62
65
67
69
74
79
80
80
84
88
88
88
88
88
90
92
91
90
88
86
82
80
78
74
69
66
64
60
55
51
49
46
42
38
34
32
32
29
25
24
23
20
17
16
17
18
17
16
16
15
14
14
14
14
14
14
14
16
18
19
20
21
22
21
20
20
20
19
18
18
17
15
14
13
12
12
11
9
8
7
4
1
0
-1
-1
1
-1
-5
-6
-6
-8
-10
-9
-8
-9
-10
-10
-10
-7
-4
-6
-8
-7
-6
-7
-8
-8
-8
-7
-6
-7
-8
-8
-8
-9
-10
-10
-12
-15
-13
-8
-7
-9
-11
-13
-14
-13
-12
-12
-12
-13
-12
-10
-12
-14
-14
-14
-12
-9
-3
2
-1
-3
5
10
9
8
6
5
8
9
5
-1
-8
-15
-21
-23
-21
-20
-20
-20
-20
-22
-25
-26
-26
-26
-27
-28
-29
-28
-25
-23
-20
-17
-14
-18
-21
-8
9
41
64
39
19
15
19
45
69
89
77
11
-54
-120
-185
-251
-304
-347
-345
-308
-278
-251
-203
-145
-102
-65
-38
-15
-6
1
5
9
10
10
10
10
12
12
14
16
16
16
18
20
21
22
21
20
22
24
22
22
28
32
34
37
40
42
42
44
50
55
60
63
65
70
76
79
81
84
87
90
93
96
99
99
97
98
100
102
104
101
98
98
98
94
89
84
80
77
72
65
59
54
49
46
43
39
34
30
26
22
17
12
10
10
9
7
5
3
1
-1
-2
-2
-2
-3
-4
-5
-6
-4
-6
-8
-8
-8
-8
-8
-7
-6
-8
-10
-11
-12
-9
-6
-8
-10
-10
-10
-9
-8
-7
-8
-13
-15
-13
-12
-13
-10
-4
-5
-10
-12
-11
-10
-10
-11
-13
-12
-9
-8
-8
-10
-12
-12
-12
-13
-14
-11
-8
-9
-10
-12
-14
-12
-10
-10
-10
-11
-12
-11
-10
-13
-13
-10
-8
-9
-10
-9
-7
-5
-5
-7
-8
-9
-9
-7
-8
-11
-12
-12
-12
-13
-11
-8
-3
2
3
4
5
6
8
10
10
10
11
11
6
2
1
-2
-10
-14
-15
-16
-17
-19
-21
-20
-16
-17
-24
-26
-27
-28
-28
-28
-28
-29
-31
-32
-31
-30
-29
-21
-12
23
55
28
4
2
4
30
55
72
70
5
-61
-126
-192
-258
-320
-376
-392
-356
-320
-285
-234
-169
-120
-84
-56
-32
-24
-24
-22
-17
-15
-13
-12
-11
-8
-5
-4
-3
-1
-2
4
6
7
8
11
14
16
18
21
24
24
25
30
35
38
40
41
43
46
50
55
59
61
63
65
67
70
75
80
82
83
85
87
88
87
86
85
93
103
100
95
91
88
89
90
85
80
77
73
67
61
56
52
51
49
45
40
34
29
25
22
21
18
13
8
4
3
5
5
3
0
-3
-4
-3
-4
-7
-8
-7
-6
-5
-4
-4
-4
-4
-3
-2
-2
-2
-1
0
1
2
0
-2
-1
0
0
0
-1
-1
2
4
2
0
0
-1
-3
-4
-4
-5
-7
-8
-8
-8
-9
-10
-11
-10
-7
-6
-5
-5
-7
-8
-8
-7
-8
-8
-8
-8
-8
-8
-8
-7
-6
-7
-8
-10
-12
-10
-8
-8
-8
-8
-8
-11
-11
-9
-8
-7
-6
-6
-6
-6
-6
-5
-4
-5
-6
-7
-8
-7
-4
-1
2
5
6
6
9
12
13
14
17
20
19
18
15
11
5
0
0
-2
-9
-14
-13
-12
-13
-14
-14
-14
-14
-15
-18
-21
-23
-23
-21
-20
-20
-20
-21
-22
-22
-22
-21
6
35
36
38
8
-19
-2
17
48
71
48
17
-48
-114
-179
-245
-310
-360
-380
-375
-330
-284
-237
-182
-120
-77
-53
-36
-25
-18
-14
-10
-7
-6
-5
-2
1
2
2
3
5
6
6
8
6
12
12
13
14
15
16
17
18
19
20
21
23
28
32
33
35
38
40
42
46
53
57
60
62
63
67
73
78
81
82
82
82
83
85
87
88
89
90
90
82
73
80
88
77
66
70
73
62
51
45
38
29
24
33
33
10
-3
7
10
0
-9
-17
-15
1
4
-4
-9
-12
-16
-20
-17
-9
-16
-30
-23
-9
-11
-19
-5
12
6
-3
-14
-26
-14
-2
4
9
-1
-9
3
12
11
9
4
3
13
18
12
8
7
8
13
13
6
4
8
9
7
6
6
6
6
7
9
8
5
4
4
4
4
2
-1
-2
-2
-3
-4
-5
-6
-6
-6
-4
-2
-5
-8
-11
-14
-11
-8
-7
-6
-6
-6
-6
-6
-7
-6
-2
4
11
13
11
11
13
15
17
18
19
22
25
20
13
9
5
1
-3
-6
-8
-8
-8
-10
-12
-11
-10
-13
-16
-18
-20
-17
-14
-18
-18
-12
-8
-10
-12
-12
-6
6
26
53
47
19
7
5
20
45
58
66
17
-48
-114
-179
-245
-310
-354
-396
-357
-314
-277
-238
-173
-112
-80
-50
-34
-20
-16
-11
-7
-3
2
6
4
3
6
8
9
10
11
12
13
16
22
23
20
20
24
26
25
26
29
30
31
37
43
42
39
44
38
50
48
54
60
62
64
67
70
72
74
79
82
83
85
88
90
89
88
90
92
92
92
91
89
87
85
82
77
72
68
65
61
56
52
49
42
33
32
31
30
29
22
16
17
18
17
16
16
16
14
12
13
14
13
12
12
12
12
12
12
12
12
11
9
9
11
11
9
8
7
5
3
2
1
1
3
3
1
-1
-3
-4
-4
-5
-8
-4
0
-6
-12
-11
-10
-8
-6
-8
-10
-10
-10
-9
-8
-10
-12
-13
-14
-14
-13
-10
-9
-11
-11
-9
-8
-8
-9
-11
-11
-9
-9
-11
-10
-7
-7
-9
-10
-10
-10
-10
-14
-16
-15
-14
-14
-14
-15
-16
-14
-12
-9
-6
-3
2
8
11
8
6
8
10
13
12
8
4
-2
-5
-7
-11
-16
-17
-15
-15
-17
-19
-21
-22
-21
-20
-20
-22
-25
-24
-22
-23
-24
-20
-16
-15
-14
-11
-2
29
51
47
36
10
-3
12
26
36
34
16
-26
-92
-157
-223
-288
-354
-375
-368
-343
-309
-265
-217
-163
-108
-75
-46
-24
-2
0
0
2
6
8
10
12
14
17
20
19
18
21
24
23
22
25
27
23
21
24
27
30
32
33
34
35
37
39
41
43
44
44
47
52
54
55
56
57
64
71
73
75
76
76
81
84
86
88
87
86
88
90
89
88
86
84
84
83
79
75
72
69
66
62
57
52
48
45
43
39
34
30
26
22
19
18
19
20
20
16
11
15
21
20
17
14
12
14
16
15
14
16
18
17
16
14
12
13
14
15
16
16
16
14
12
12
12
12
12
13
13
11
10
10
8
5
4
4
4
5
6
5
4
3
3
5
5
2
4
6
4
2
3
4
3
2
3
4
2
0
2
4
3
2
4
6
5
3
0
0
4
5
2
0
1
2
2
2
1
3
7
4
-3
-2
1
3
5
8
6
16
20
21
22
23
24
22
20
22
23
14
8
8
6
0
-4
-6
-8
-8
-8
-8
-8
-9
-11
-14
-16
-17
-17
-15
-14
-13
-15
-19
-17
-13
-12
-12
-3
7
34
63
37
10
8
7
31
53
69
71
6
-60
-125
-191
-256
-313
-350
-362
-329
-297
-268
-227
-169
-122
-85
-54
-29
-15
-10
-7
-3
0
3
4
4
4
5
8
11
12
11
10
11
12
10
14
18
17
16
19
22
22
22
23
24
27
30
33
37
40
42
44
46
48
50
53
55
57
60
64
66
67
72
78
80
80
82
85
86
86
86
86
86
85
84
84
77
72
71
70
62
54
51
48
44
40
35
31
26
22
20
16
10
6
8
10
9
8
8
7
4
2
3
5
7
7
5
4
4
4
4
5
7
6
3
2
2
7
12
7
2
3
4
4
4
6
8
6
4
3
2
2
2
2
2
1
0
0
0
0
0
0
0
-1
-2
-1
0
0
0
-1
-2
-3
-4
-4
-4
-5
-6
-5
-4
-4
-6
-8
-7
-6
-9
-12
-8
-4
-5
-6
-3
-1
-5
-7
-4
-3
-7
-9
-6
-4
-4
-4
-5
-5
-3
-1
2
5
7
9
11
15
21
21
19
18
17
18
21
15
22
5
4
-2
-8
-8
-8
-12
-16
-13
-10
-9
-8
-9
-10
-12
-14
-12
-10
-12
-14
-11
-9
-6
-5
-7
-5
1
28
65
65
49
31
12
23
42
64
85
34
-28
-93
-158
-224
-289
-351
-407
-382
-355
-314
-271
-216
-161
-108
-62
-39
-21
-16
-11
-7
-4
-3
-2
0
2
2
2
2
2
2
3
5
6
6
6
6
7
9
12
15
16
17
19
21
25
30
33
36
38
40
45
50
50
51
59
66
68
70
71
73
78
82
81
81
85
88
89
90
89
88
87
86
85
85
87
84
78
75
73
68
61
58
55
51
47
42
46
30
24
22
20
15
10
8
6
5
4
1
-2
-3
-4
-4
-4
-4
-4
-4
-4
-5
-6
-6
-7
-9
-9
-7
-8
-11
-11
-9
-10
-13
-13
-11
-10
-10
-10
-10
-10
-11
-12
-12
-13
-14
-16
-18
-14
-10
-12
-14
-14
-14
-14
-14
-16
-18
-18
-18
-19
-20
-18
-17
-19
-21
-23
-23
-21
-21
-23
-24
-24
-24
-24
-24
-24
-25
-27
-26
-23
-22
-21
-20
-20
-20
-20
-21
-22
-22
-22
-20
-18
-19
-20
-18
-16
-18
-20
-18
-16
-15
-14
-16
-18
-17
-16
-16
-16
-16
-16
-17
-15
-10
-6
-1
0
-1
-1
1
6
11
10
7
8
6
6
0
-3
-6
-12
-18
-18
-18
-24
-28
-27
-26
-29
-31
-27
-26
-32
-36
-35
-34
-35
-36
-35
-34
-35
-35
-32
-29
-27
-1
35
41
36
12
-17
-7
11
37
64
30
-9
-74
-140
-205
-271
-336
-394
-393
-385
-338
-292
-243
-190
-130
-82
-60
-41
-26
-13
-5
0
1
2
2
3
6
8
8
9
11
11
9
10
13
14
13
12
12
13
15
17
19
20
22
24
26
29
32
35
38
40
42
45
48
49
51
56
61
66
70
72
74
76
79
82
84
83
83
85
86
87
86
83
81
79
77
75
72
69
64
59
55
51
48
50
38
32
27
22
15
8
5
2
-1
-4
-7
-10
-8
-7
-10
-12
-12
-12
-13
-14
-15
-16
-15
-14
-14
-12
-8
-8
-12
-14
-13
-11
-9
-8
-7
-6
-6
-5
-3
-2
-2
-3
-4
-4
-4
-4
-4
-6
-8
-5
-2
-4
-6
-5
-4
-6
-8
-8
-8
-7
-6
-6
-6
-5
-6
-10
-11
-9
-9
-11
-12
-11
-11
-13
-14
-15
-16
-16
-16
-17
-18
-19
-20
-18
-19
-20
-22
-24
-24
-24
-24
-24
-25
-26
-26
-26
-24
-22
-23
-24
-23
-22
-21
-20
-21
-22
-21
-19
-16
-11
-6
-2
1
1
-1
3
10
12
12
13
15
10
3
2
2
-5
-12
-13
-14
-15
-16
-15
-14
-15
-16
-21
-24
-25
-26
-26
-26
-26
-26
-26
-26
-25
-23
-21
-10
10
26
41
26
-4
-5
8
25
44
58
71
19
-46
-112
-177
-243
-308
-341
-371
-334
-298
-267
-233
-173
-117
-88
-59
-36
-18
-15
-12
-11
-9
-4
0
2
4
6
8
9
10
10
12
16
17
15
17
22
24
25
26
26
30
35
36
35
35
37
41
46
47
48
54
60
61
62
66
70
74
78
79
81
85
88
87
87
91
94
94
94
93
92
91
91
93
90
83
81
83
80
74
71
69
64
57
49
41
34
27
26
26
23
20
15
10
11
12
9
6
4
2
4
5
1
-2
-1
0
-1
-1
2
3
0
-1
1
2
2
2
3
4
3
3
5
6
6
6
7
7
5
5
7
8
8
7
6
7
8
7
6
7
8
8
8
7
6
3
0
4
5
2
0
1
2
2
1
-2
-4
-3
-1
1
1
-1
-2
-2
-2
-2
-2
-2
-3
-5
-6
-6
-6
-5
-4
-6
-6
-6
-4
-2
-3
-4
-4
-4
-3
-2
0
2
3
5
9
12
14
16
15
16
21
22
18
16
17
15
10
6
3
-1
-6
-9
-11
-12
-13
-14
-14
-14
-15
-17
-16
-20
-20
-19
-18
-21
-24
-22
-20
-20
-20
-18
-9
16
37
48
46
18
6
18
38
69
82
77
38
-28
-93
-159
-225
-290
-335
-371
-346
-300
-262
-226
-166
-101
-69
-42
-25
-9
-2
4
6
8
8
8
13
18
18
18
19
20
20
20
22
24
24
24
24
25
28
30
31
33
36
38
39
41
43
46
50
55
59
60
61
65
69
72
75
82
89
90
92
94
96
100
104
103
102
103
104
104
104
105
106
104
102
101
97
89
84
82
79
74
71
68
62
55
49
44
40
36
32
27
26
25
21
17
16
15
15
17
17
18
13
12
11
10
9
8
9
10
9
8
8
8
9
10
10
10
9
8
9
10
10
10
10
10
10
10
11
11
9
9
11
11
9
8
9
8
5
5
7
8
9
7
4
5
6
4
2
2
2
1
0
1
2
2
2
2
1
-2
-4
-2
0
-2
-4
-3
-2
-2
-2
-1
0
1
2
2
2
1
0
1
2
3
4
3
2
3
4
4
4
4
7
10
14
18
21
24
28
32
31
30
32
34
35
35
31
26
21
17
14
10
5
2
2
1
-1
-3
-5
-2
4
0
-8
-8
-5
-4
-5
-5
-3
-2
-2
-3
-2
1
6
37
64
61
53
26
8
29
51
76
80
37
-14
-80
-145
-211
-276
-342
-371
-365
-339
-298
-251
-200
-146
-89
-55
-31
-18
-8
-2
5
8
11
14
17
17
15
17
20
23
26
28
30
30
30
34
38
38
38
38
38
42
44
45
47
50
52
54
57
59
60
61
65
70
73
77
80
84
87
89
94
99
101
103
104
105
108
111
112
110
111
112
109
106
107
108
101
96
93
90
87
82
75
69
64
59
55
48
39
33
30
27
25
21
15
12
11
9
7
6
5
4
3
2
2
2
3
4
4
4
4
4
4
4
4
6
8
7
6
9
12
9
6
6
6
6
6
8
10
8
6
5
5
7
8
7
6
6
6
6
6
6
6
7
9
11
12
11
10
11
13
15
13
10
12
14
14
14
15
16
15
14
15
16
16
16
14
12
10
8
9
10
10
10
11
12
11
10
11
12
12
14
17
18
17
17
19
21
23
27
31
33
35
38
42
42
42
43
44
47
49
42
36
35
32
24
18
17
16
15
13
10
8
9
9
6
2
-2
-4
-3
-4
-8
-9
-7
-6
-6
-7
-9
-5
2
35
72
59
39
25
38
33
56
74
84
19
-47
-112
-178
-243
-305
-354
-380
-343
-307
-272
-227
-163
-107
-62
-29
-10
0
0
3
9
12
12
13
15
16
15
16
19
20
19
20
23
22
19
19
21
26
30
29
28
29
30
30
31
37
42
43
44
44
45
52
57
60
62
64
66
66
71
82
86
82
81
84
89
94
96
97
97
95
98
103
102
99
97
95
93
91
86
80
71
62
56
50
51
52
50
46
35
25
18
12
9
6
7
8
6
4
2
0
0
-1
-4
-7
-9
-7
-2
0
1
1
-1
-1
1
1
-1
-1
1
0
-3
-2
-4
4
6
3
0
0
0
0
0
2
4
4
4
3
2
2
2
4
5
2
0
-1
-1
2
2
-2
-3
0
2
1
1
3
1
-4
-3
1
1
-1
-2
-1
-3
-7
-6
-4
-4
-4
-3
-2
-4
-6
-7
-8
-8
-8
-5
-3
-7
-9
-5
-2
-3
-3
0
5
12
15
13
14
18
20
19
18
19
22
25
19
10
6
3
-3
-9
-10
-9
-10
-14
-15
-16
-16
-16
-21
-26
-24
-22
-24
-26
-24
-22
-23
-24
-25
-26
-25
-18
-2
19
47
45
15
1
-1
11
32
48
62
19
-46
-112
-177
-243
-308
-358
-405
-374
-334
-299
-332
-199
-136
-97
-60
-38
-18
-15
-12
-8
-4
-2
0
1
2
0
-1
5
8
6
4
4
4
5
6
6
6
7
10
13
14
14
14
15
19
23
25
27
31
35
36
37
40
42
48
54
56
58
62
66
68
70
73
76
78
80
84
86
86
86
86
86
85
83
81
78
74
71
68
63
58
52
46
41
37
35
33
27
19
16
13
8
3
2
2
-2
-6
-6
-6
-9
-12
-11
-10
-8
-6
-7
-8
-7
-6
-8
-10
-8
-6
-6
-6
-3
-2
-1
0
0
0
-1
-2
-1
0
-1
-1
1
2
3
0
-5
-5
-3
-3
-2
-8
-10
-9
-8
-8
-8
-9
-10
-12
-14
-13
-12
-11
-10
-10
-10
-10
-10
-11
-12
-11
-11
-13
-14
-14
-14
-13
-12
-13
-14
-14
-14
-15
-16
-17
-17
-15
-15
-17
-20
-23
-18
-12
-14
-16
-16
-16
-16
-16
-15
-14
-14
-15
-19
-21
-16
-12
-13
-13
-9
-6
-6
-4
1
4
4
4
4
6
10
11
9
5
1
-6
-14
-14
-11
-17
-25
-24
-21
-20
-18
-18
-18
-20
-22
-20
-18
-18
-18
-16
-14
-15
-16
-13
-10
-9
4
37
54
49
34
7
4
23
41
57
51
30
-22
-87
-153
-218
-284
-349
-360
-357
-327
-294
-248
-201
-143
-198
-55
-26
-16
-6
-4
-2
-1
0
4
8
6
4
5
6
8
10
10
10
11
12
13
14
13
14
18
20
20
20
20
23
28
31
33
34
34
34
35
43
51
51
49
51
54
56
58
60
62
64
66
68
70
72
74
74
74
74
74
75
76
76
75
72
68
64
62
61
60
59
56
52
48
44
40
37
32
26
23
21
17
13
12
11
8
4
2
0
0
0
-3
-6
-5
-4
-2
0
-1
-2
1
4
3
3
7
10
9
8
9
11
13
14
14
14
15
16
17
18
18
18
18
17
15
14
15
15
13
12
12
12
12
10
8
6
4
6
8
5
2
4
5
1
-2
-1
0
-1
-2
0
2
1
0
1
1
-1
-1
1
2
1
0
1
2
1
0
-1
-2
-2
-2
-3
-4
-4
-3
-2
-5
-8
-7
-6
-5
-4
-5
-6
-4
-2
0
2
2
2
2
4
10
15
18
20
21
22
23
25
27
28
27
27
29
23
13
8
5
1
-3
-7
-11
-13
-15
-16
-16
-19
-22
-21
-20
-22
-24
-26
-28
-24
-20
-23
-26
-24
-22
-23
-16
4
26
49
49
21
8
7
23
54
70
77
36
-29
-95
-160
-226
-291
-343
-391
-357
-309
-268
-228
-165
-226
-67
-35
-12
10
9
8
12
16
15
14
17
20
20
21
25
28
26
24
25
26
26
28
32
34
34
35
37
39
41
45
50
52
52
56
61
61
59
62
67
70
73
79
84
84
84
91
98
101
104
108
112
111
110
111
112
111
110
112
113
110
108
107
105
103
100
96
93
90
85
80
76
72
67
62
61
63
58
50
48
47
46
46
44
40
37
34
40
45
34
24
24
25
32
36
28
22
25
28
28
28
29
30
28
28
33
31
19
19
28
31
29
28
29
30
29
25
21
24
31
26
19
18
18
22
18
20
12
13
14
11
8
12
16
10
6
3
1
7
12
10
7
3
0
1
2
1
0
0
0
0
0
-1
-4
-7
-3
4
3
-1
1
5
3
-1
-1
1
0
-3
-2
0
-4
-8
-5
-2
-3
-4
-3
-2
-4
-6
-5
-4
-2
1
6
11
14
16
17
18
19
21
23
21
16
11
6
4
4
0
-6
-8
-9
-10
-11
-9
-5
-8
-13
-14
-12
-13
-14
-9
-4
-6
-8
-9
-9
-4
0
-3
1
28
48
54
48
23
12
22
32
43
40
25
-19
-85
-150
-216
-278
-339
-348
-337
-316
-291
-261
-229
-177
-122
-89
-58
-34
-56
-5
0
5
10
14
18
17
16
18
20
21
22
23
25
28
30
31
31
28
27
30
32
33
34
35
36
35
34
35
37
39
41
43
46
49
50
51
56
61
65
69
71
72
72
72
79
86
84
82
88
92
89
86
87
88
86
84
84
82
77
74
72
67
61
56
51
47
45
39
31
27
25
21
17
14
11
10
10
10
10
8
5
4
4
5
6
4
2
4
6
6
6
7
8
7
6
6
6
5
4
5
6
6
5
2
0
0
-1
-3
-4
-4
-4
-4
-6
-9
-10
-11
-12
-11
-10
-11
-11
-9
-8
-8
-11
-12
-9
-6
-8
-10
-13
-16
-10
-8
-18
-24
-13
-9
-18
-22
-15
-10
-12
-14
-17
-19
-21
-21
-18
-17
-19
-20
-19
-16
-13
-12
-13
-14
-13
-10
-7
-8
-11
-12
-11
-8
-6
-5
-4
0
4
6
8
8
8
6
4
6
8
10
10
3
-2
-4
-9
-16
-21
-23
-23
-21
-20
-21
-22
-22
-24
-28
-29
-27
-26
-26
-26
-26
-26
-25
-24
-25
-21
-14
-8
-1
26
48
26
6
5
7
23
40
59
53
-12
-78
-144
-209
-275
-324
-351
-353
-324
-299
-278
-236
-180
-133
-92
-62
-37
-25
-16
-14
-13
-11
-9
-6
-3
-2
-1
0
0
0
2
5
8
7
6
13
18
18
18
20
22
19
18
25
30
31
33
37
40
37
36
37
43
54
58
58
60
64
66
65
66
69
73
77
78
77
78
81
82
82
78
74
75
76
76
76
71
65
58
51
45
41
49
51
40
28
17
12
18
19
12
5
-2
-6
-6
-5
-3
-5
-12
-10
-4
-7
-14
-16
-16
-15
-13
-11
-9
-9
-11
-19
-28
-25
-22
-14
-6
-3
0
-3
-7
-13
-15
-3
4
-4
-10
-8
-5
-2
0
-1
-4
-9
-11
-8
-8
-12
-14
-15
-15
-13
-12
-12
-12
-13
-14
-14
-16
-19
-21
-23
-22
-24
-21
-24
-23
-22
-21
-20
-21
-22
-24
-26
-24
-22
-25
-28
-26
-24
-24
-24
-23
-22
-25
-25
-23
-22
-21
-20
-21
-21
-19
-18
-18
-18
-17
-13
-9
-7
-5
-3
-1
4
9
9
8
8
8
12
16
10
4
0
-4
-8
-12
-13
-14
-18
-20
-20
-19
-16
-15
-19
-20
-15
-13
-16
-19
-22
-19
-11
-10
-13
-14
-13
-10
-7
11
33
47
60
37
9
17
28
55
80
75
63
-2
-68
-133
-199
-264
-322
-356
-367
-321
-277
-237
-187
-122
-75
-51
-32
-17
-9
-6
-2
2
4
4
6
9
10
10
11
13
14
15
16
17
18
19
21
20
24
24
27
30
31
33
40
46
49
52
50
49
54
58
60
63
69
72
72
74
79
84
88
90
91
92
92
94
97
98
99
99
97
97
99
98
95
94
93
88
83
78
74
68
62
58
54
51
47
39
32
30
28
26
24
22
19
14
10
10
10
9
8
7
6
5
4
4
4
3
2
3
4
4
4
5
7
9
11
13
14
15
16
18
18
18
18
18
16
14
15
16
16
16
18
20
17
14
13
12
12
12
11
10
11
12
11
11
14
13
8
6
7
8
8
9
11
10
7
6
6
6
6
6
6
4
2
3
4
3
2
1
0
-2
-4
-4
-4
-4
-4
-4
-4
-6
-8
-6
-4
-5
-6
-7
-8
-9
-10
-11
-12
-11
-8
-4
1
5
8
11
12
11
11
13
16
19
20
20
13
6
3
0
-6
-12
-14
-16
-18
-19
-15
-12
-12
-13
-16
-18
-19
-20
-19
-17
-15
-15
-18
-19
-16
-14
-14
-7
3
27
57
45
21
13
9
25
46
56
65
3
-63
-128
-194
-259
-322
-361
-389
-352
-316
-287
-249
-189
-135
-95
-60
-35
-19
-15
-12
-10
-6
1
4
5
6
6
7
10
12
11
12
15
17
19
20
21
22
23
25
27
28
28
31
32
34
36
39
42
40
39
47
54
51
49
53
57
61
65
69
72
74
76
77
80
85
88
88
88
89
90
91
92
92
92
91
90
91
87
81
80
79
72
65
60
56
53
50
47
44
36
30
30
30
26
22
19
16
16
16
16
15
11
9
13
15
12
10
10
11
14
14
10
10
13
14
14
14
15
14
11
16
23
23
21
19
16
17
18
17
16
15
14
12
10
14
17
12
8
9
10
10
10
10
10
11
11
8
6
6
6
6
6
6
6
5
4
5
7
9
10
10
10
11
8
3
4
2
7
6
9
12
8
4
6
8
8
8
7
6
5
4
3
2
4
6
8
10
11
13
16
19
21
22
23
24
25
24
20
16
13
8
1
-3
-7
-8
-8
-8
-9
-12
-14
-12
-10
-12
-14
-13
-12
-12
-12
-14
-15
-11
-8
-10
-11
-6
8
35
50
49
37
15
10
23
36
50
48
35
-15
-80
-146
-211
-274
-335
-343
-339
-312
-281
-241
-200
-150
-100
-70
-41
-22
-4
-2
0
4
8
11
14
15
16
18
20
20
20
22
24
22
20
19
18
18
20
24
26
25
25
27
30
33
34
35
38
41
42
43
47
51
52
52
62
70
71
72
76
80
85
90
91
92
93
94
97
100
99
98
99
99
95
92
89
87
85
82
78
74
70
66
63
59
54
49
44
40
37
35
33
29
25
22
19
21
24
20
16
16
16
15
14
15
16
14
13
17
20
16
14
15
16
16
16
17
18
17
16
17
18
19
20
19
18
18
18
19
19
17
16
17
18
19
20
20
20
18
17
16
14
12
15
18
16
14
14
14
13
12
13
14
12
10
11
12
11
9
6
4
4
6
10
10
6
4
4
4
5
6
6
6
5
5
7
6
3
2
2
6
8
4
0
1
2
3
4
8
12
15
18
21
24
22
20
22
24
25
24
17
13
11
6
-1
-6
-10
-12
-11
-12
-16
-18
-19
-18
-15
-18
-23
-23
-21
-20
-20
-16
-12
-13
-14
-12
-10
-9
-3
31
57
51
41
18
7
26
47
72
69
21
-35
-101
-166
-232
-294
-353
-367
-347
-315
-275
-229
-181
-129
-76
-48
-26
-13
-2
1
3
5
7
8
10
11
12
10
8
11
14
15
16
14
13
18
22
22
22
23
26
31
34
36
39
42
44
44
47
53
56
57
60
64
66
67
71
75
80
87
88
88
89
91
94
92
98
98
99
100
99
98
96
94
93
92
89
85
79
73
69
65
59
54
48
42
37
33
30
26
22
18
14
10
7
6
7
6
3
2
2
0
-3
-3
-1
-2
-5
-7
-8
-5
-2
-2
-2
-3
-4
-4
-4
-5
-6
-4
-2
-4
-5
-2
0
0
0
-1
-2
-1
-1
-3
-4
-3
-2
-1
-2
-5
-3
1
-1
-5
-5
-3
-2
-3
-4
-3
-2
-4
-3
-2
-2
-2
-5
-8
-5
-2
-2
-3
-7
-9
-5
-2
-3
-4
-5
-6
-7
-8
-7
-6
-6
-7
-10
-13
-15
-15
-13
-12
-13
-13
-11
-10
-10
-5
1
4
7
8
8
11
14
15
16
18
19
12
6
4
1
-4
-8
-9
-10
-12
-13
-9
-6
-7
-9
-12
-13
-11
-10
-11
-12
-11
-10
-10
-10
-9
-8
-8
-2
6
34
66
50
28
16
5
29
54
66
73
8
-58
-123
-189
-254
-316
-364
-391
-354
-316
-277
-229
-164
-110
-73
-44
-24
-13
-10
-7
-4
0
4
7
9
10
11
15
19
18
15
15
17
18
18
18
18
20
24
26
28
31
34
33
32
36
40
41
42
45
49
53
56
58
60
61
63
67
70
71
73
75
78
82
83
81
82
85
86
86
86
86
86
86
85
83
79
75
73
74
68
66
61
56
50
44
42
39
33
28
23
20
20
18
12
8
7
6
6
5
2
0
0
0
1
2
2
2
1
0
1
2
1
1
3
3
1
0
0
1
3
3
2
3
4
3
2
3
4
1
-2
-1
0
0
0
-2
-5
-8
-10
-8
-7
-10
-11
-9
-8
-9
-10
-10
-10
-10
-11
-13
-14
-14
-16
-19
-18
-15
-14
-15
-16
-17
-18
-16
-17
-18
-20
-22
-17
-12
-15
-18
-17
-16
-18
-20
-18
-16
-18
-20
-18
-16
-17
-18
-18
-17
-14
-12
-11
-10
-9
-4
3
4
1
0
1
5
9
8
5
2
-1
-3
-2
-13
-20
-19
-18
-19
-20
-19
-18
-19
-20
-22
-24
-24
-24
-23
-22
-24
-26
-24
-22
-21
-19
-16
3
35
47
44
27
3
4
16
29
41
37
28
-29
-94
-160
-225
-291
-356
-349
-340
-311
-281
-237
-192
-142
-95
-64
-37
-21
-7
-3
0
1
3
8
12
14
16
17
19
21
22
23
26
30
32
32
32
33
35
37
41
45
47
49
51
53
57
61
63
66
70
74
78
82
85
88
92
97
103
108
108
108
110
112
113
114
115
117
120
122
122
122
121
119
116
114
114
112
109
106
103
101
99
95
91
87
83
80
77
72
76
61
56
56
56
51
46
47
48
46
44
42
39
35
32
32
32
31
30
32
33
28
26
27
28
28
26
22
20
19
18
18
16
13
15
19
19
17
15
13
13
15
10
4
5
6
5
4
3
2
2
2
0
-2
-4
-6
-5
-4
-4
-4
-4
-4
-6
-8
-9
-10
-9
-8
-7
-7
-9
-10
-11
-12
-12
-12
-11
-12
-15
-16
-17
-17
-15
-17
-22
-20
-18
-21
-24
-20
-16
-16
-16
-15
-14
-12
-10
-9
-7
-4
-2
-3
-4
-6
-8
-5
-7
-13
-16
-15
-19
-27
-30
-31
-30
-27
-26
-26
-26
-25
-26
-29
-30
-29
-31
-28
-31
-26
-27
-28
-28
-28
-26
-20
7
28
29
23
-2
-16
-3
14
35
40
21
-20
-86
-151
-217
-282
-348
-373
-370
-344
-307
-264
-218
-167
-115
-82
-53
-36
-20
-18
-18
-14
-9
-7
-6
-5
-4
-3
-2
0
2
2
2
2
2
4
6
7
8
10
12
14
16
18
21
24
29
35
37
34
35
42
47
52
54
53
56
62
67
71
73
75
76
77
80
84
87
90
88
86
89
92
88
84
84
84
82
79
73
67
62
56
50
45
41
37
32
27
21
16
12
8
4
1
-1
-3
-5
-7
-9
-12
-15
-16
-15
-14
-15
-16
-16
-15
-14
-15
-16
-15
-14
-13
-12
-15
-18
-15
-12
-10
-8
-8
-8
-7
-6
-7
-8
-8
-8
-9
-10
-9
-9
-12
-14
-13
-12
-13
-15
-17
-16
-13
-15
-19
-19
-17
-16
-15
-16
-18
-18
-18
-16
-14
-15
-16
-16
-16
-17
-18
-16
-14
-16
-18
-16
-15
-19
-22
-22
-22
-21
-20
-19
-19
-22
-24
-23
-22
-21
-21
-23
-24
-23
-22
-22
-18
-13
-12
-11
-7
-2
-2
-2
-1
0
1
2
-3
-8
-10
-13
-18
-22
-24
-26
-28
-30
-31
-32
-31
-30
-29
-29
-32
-34
-34
-32
-28
-27
-29
-29
-27
-29
-33
-29
-22
8
40
40
35
8
34
-1
19
45
66
12
-43
-108
-174
-239
-305
-370
-412
-388
-359
-317
-272
-223
-172
-119
-78
-50
-34
-29
-26
-26
-20
-10
-9
-14
-14
-10
-6
-3
-2
-3
-2
1
2
3
4
4
6
8
11
14
14
14
15
16
19
23
28
32
30
29
33
37
40
42
44
48
54
58
57
59
65
69
71
73
77
77
75
79
86
86
83
82
82
82
81
78
75
73
70
62
54
53
52
47
42
38
34
30
25
20
16
13
9
4
0
-2
-4
-5
-6
-7
-9
-12
-14
-14
-14
-15
-16
-16
-17
-19
-19
-17
-18
-21
-19
-15
-16
-19
-19
-20
-17
-18
-14
-10
-14
-18
-16
-14
-13
-12
-12
-12
-10
-8
-9
-10
-12
-14
-14
-14
-15
-16
-15
-14
-14
-14
-15
-16
-17
-18
-17
-14
-11
-11
-13
-12
-9
-9
-11
-12
-12
-11
-10
-13
-16
-15
-14
-15
-16
-14
-12
-13
-15
-19
-22
-18
-16
-16
-16
-15
-14
-15
-16
-17
-18
-18
-18
-19
-20
-20
-16
-8
-6
-6
-4
-1
1
3
4
4
4
3
-1
-6
-7
-8
-13
-18
-20
-22
-22
-22
-24
-26
-23
-20
-23
-26
-26
-25
-22
-20
-20
-20
-21
-21
-19
-17
-14
-12
-11
13
48
54
48
27
1
10
27
46
66
22
-29
-94
-32
-225
-290
-353
-408
-384
-356
-312
-267
-213
-160
-104
-58
-34
-17
-12
-7
-1
2
2
3
6
9
11
12
11
11
13
14
15
17
19
20
19
20
23
26
29
30
29
28
29
36
42
45
48
51
54
58
62
63
64
67
70
72
74
78
80
81
83
87
90
90
90
91
92
93
94
93
92
93
92
89
85
81
77
73
70
67
59
51
47
43
38
32
29
26
19
12
12
12
8
4
1
-2
-2
-2
-2
-2
-4
-5
-2
0
1
2
1
0
0
1
4
8
12
12
8
7
9
10
11
12
11
10
11
11
9
10
8
13
12
11
10
8
6
5
4
5
6
7
7
3
0
1
2
2
1
-2
-4
-7
-6
-2
-2
-6
-8
-9
-10
-10
-11
-13
-13
-11
-11
-13
-15
-17
-15
-11
-11
-13
-14
-14
-14
-14
-16
-18
-16
-13
-5
2
0
-1
3
6
8
11
14
15
12
10
12
10
1
-3
-1
-3
-9
-14
-18
-20
-20
-19
-17
-17
-19
-17
-13
-13
-15
-18
-21
-20
-16
-17
-18
-15
-12
-11
-9
1
16
50
70
43
21
10
11
39
58
65
42
-24
-89
-155
-220
-286
-335
-373
-364
-325
-288
-251
-194
-129
-88
-55
-31
-10
-4
-1
1
3
4
4
8
10
12
14
14
14
17
20
21
22
22
23
27
30
29
28
29
31
35
38
41
44
48
50
49
51
56
59
61
63
65
69
73
77
81
85
89
90
90
90
91
92
92
94
96
94
92
90
88
94
97
92
88
88
85
75
67
64
60
55
52
50
45
38
33
30
25
20
18
17
16
16
16
15
13
11
14
19
15
9
10
13
14
16
17
18
16
14
16
18
19
20
20
20
20
20
22
24
25
26
25
24
25
25
22
23
29
32
32
31
28
28
32
30
24
22
21
21
23
25
27
24
19
17
18
17
20
19
18
16
14
19
24
20
16
19
22
23
23
19
15
12
11
15
18
19
18
13
10
11
12
13
12
9
13
21
24
25
25
23
27
33
34
35
31
25
28
32
25
18
14
10
6
2
1
0
-1
-2
-2
-2
-1
0
-2
-4
-2
0
1
3
6
6
1
-1
2
2
-2
8
27
48
71
56
29
22
19
31
46
55
63
1
-65
-130
-196
-261
-322
-344
-361
-336
-307
-262
-216
-168
-121
-75
-39
-21
-7
2
8
10
12
13
15
17
19
21
22
22
22
22
24
27
27
25
24
24
26
29
31
33
34
34
36
36
39
42
47
52
54
56
59
62
67
70
73
76
78
81
87
90
91
93
98
99
97
97
99
100
100
102
105
104
101
98
95
92
89
82
75
74
74
70
65
60
56
49
42
40
38
33
28
26
24
20
17
21
22
14
9
14
18
18
17
14
10
5
7
17
19
14
12
12
15
20
19
15
13
11
15
21
18
13
12
12
14
18
13
8
10
12
11
10
7
4
4
4
4
4
7
8
-1
-5
-2
0
0
0
-1
-1
2
2
-2
-4
-3
0
3
3
1
0
1
0
-3
-4
-3
-5
-9
1
-10
1
-12
-9
-6
-6
-6
-7
-8
-9
-10
-7
-4
-6
-8
-9
-9
-6
-4
-4
-1
6
10
11
13
15
17
19
18
15
15
17
12
4
7
14
4
-12
-15
-17
-18
-19
-22
-24
-23
-22
-24
-26
-25
-24
-26
-28
-25
-22
-24
-26
-25
-25
-28
-27
-18
-1
25
33
23
10
-5
-4
10
23
36
12
-30
-90
-155
-221
-286
-328
-365
-360
-347
-323
-297
-249
-200
-147
-97
-67
-39
-25
-12
-12
-12
-8
-4
-1
2
0
0
9
11
3
-1
2
5
10
12
13
13
11
12
16
19
21
23
25
26
27
29
31
33
35
38
41
45
42
52
54
56
58
62
66
68
70
69
68
71
74
77
79
76
74
76
78
77
76
77
78
77
74
70
67
64
58
52
48
45
41
36
31
27
25
23
16
9
8
9
6
2
1
0
1
2
-3
-8
-6
-4
-6
-8
-7
-6
-7
-8
-8
-8
-10
-10
-5
-3
-5
-6
-6
-6
-5
-4
-3
-4
-7
-8
-8
-8
-7
-6
-6
-8
-11
-12
-11
-10
-12
-15
-18
-17
-16
-16
-16
-15
-14
-14
-14
-14
-14
-15
-16
-15
-14
-14
-14
-16
-17
-12
-11
-14
-15
-13
-13
-16
-17
-15
-16
-19
-19
-17
-16
-16
-18
-21
-21
-19
-19
-18
-23
-24
-24
-24
-22
-20
-21
-21
-13
-6
-5
-3
2
6
7
8
6
5
8
8
1
-3
-5
-7
-10
-14
-18
-21
-23
-22
-19
-18
-19
-19
-17
-20
-25
-26
-25
-24
-25
-25
-24
-26
-28
-25
-22
-21
-15
19
45
39
27
-3
-18
2
24
48
48
12
-37
-103
-168
-234
-299
-365
-386
-376
-344
-299
-247
-193
-138
-83
-51
-27
-15
-6
-1
3
6
9
10
8
12
16
14
12
16
20
18
16
17
18
19
20
21
22
23
24
23
24
29
33
36
38
37
37
40
43
45
49
54
58
63
66
69
70
71
73
75
78
81
84
82
90
92
93
94
95
96
93
90
94
98
93
90
87
84
82
78
72
67
64
59
52
46
41
34
26
21
18
15
13
11
9
8
7
6
5
4
3
3
5
5
3
3
4
4
4
4
4
5
6
4
2
3
4
4
4
5
6
6
6
6
6
5
5
7
8
8
8
7
7
9
10
11
12
13
14
15
16
16
16
17
18
17
16
18
17
16
17
18
16
14
12
10
13
16
15
14
13
11
8
6
7
7
3
0
3
3
1
0
0
-1
-3
-4
-3
-2
-3
-3
-1
-2
-5
-6
-7
-8
-8
-8
-8
-7
-8
-9
-10
-5
0
4
8
10
12
11
11
15
17
12
9
13
13
5
-1
-4
-9
-15
-18
-19
-20
-21
-23
-25
-23
-18
-19
-23
-24
-24
-24
-24
-23
-21
-18
-15
-19
-24
-19
-13
6
25
37
43
14
-9
-3
8
34
51
47
21
-45
-110
-176
-241
-307
-356
-390
-382
-337
-294
-253
-197
-132
-89
-55
-33
-15
-10
-10
-6
-1
1
3
4
4
6
10
11
12
13
14
13
12
14
16
16
16
17
18
21
24
24
24
25
27
31
34
37
39
42
45
47
49
52
54
55
58
63
65
67
71
75
77
79
80
80
80
80
76
74
77
80
77
74
74
74
70
66
65
63
59
54
48
43
39
35
31
27
24
21
19
17
14
11
9
8
7
4
1
0
0
0
1
3
5
6
5
1
-3
-3
-2
-2
-2
-1
0
3
6
5
4
3
2
3
4
3
2
2
2
0
-2
-2
-2
-3
-4
-4
-5
-7
-9
-11
-12
-11
-11
-13
-13
-11
-11
-13
-16
-19
-20
-21
-22
-20
-19
-18
-20
-22
-21
-20
-20
-20
-22
-24
-21
-19
-23
-26
-28
-30
-28
-26
-25
-24
-25
-24
-20
-19
-21
-23
-25
-23
-18
-18
-23
-22
-19
-18
-19
-20
-19
-19
-21
-17
-22
-14
-18
-17
-16
-16
-16
-13
-10
-7
-4
-4
-4
-1
2
2
2
0
-2
-2
-3
-8
-12
-16
-20
-26
-28
-29
-32
-35
-36
-37
-38
-37
-34
-31
-32
-35
-35
-33
-33
-35
-34
-32
-28
-24
-25
-26
-20
-9
25
48
29
12
0
-4
9
21
31
13
-51
-115
-181
-246
-312
-349
-364
-358
-336
-316
-297
-255
-202
-151
-100
-70
-47
-29
-13
-8
-5
-2
1
3
6
8
10
11
12
14
16
18
20
17
14
15
16
18
20
22
24
23
22
22
24
29
32
33
35
37
39
41
44
48
52
55
56
55
58
63
65
67
70
73
75
74
78
78
80
82
83
84
81
78
78
78
76
74
73
71
66
62
60
55
48
43
40
36
32
27
21
18
17
15
13
12
11
8
5
4
4
4
3
2
2
2
1
0
0
1
2
0
-2
-4
-6
-6
-6
-6
-6
-4
-2
-4
-6
-5
-4
-5
-6
-8
-9
-7
-7
-9
-10
-10
-10
-10
-9
-7
-6
-5
-4
-5
-6
-6
-6
-6
-6
-5
-5
-8
-8
-8
-10
-12
-11
-10
-10
-10
-11
-12
-13
-14
-13
-12
-14
-16
-17
-18
-18
-18
-19
-20
-19
-18
-19
-20
-19
-18
-19
-20
-19
-18
-18
-18
-19
-20
-20
-20
-20
-20
-20
-19
-20
-17
-14
-11
-8
-6
-4
-1
2
3
4
5
6
7
7
1
-3
-7
-11
-14
-18
-22
-24
-25
-25
-23
-22
-23
-24
-23
-22
-23
-25
-27
-28
-29
-27
-23
-22
-22
-22
-22
-16
-8
25
53
41
27
9
-3
11
27
49
51
8
-43
-109
-174
-240
-300
-354
-373
-355
-328
-294
-249
-196
-145
-96
-65
-42
-27
-13
-8
-5
-4
-3
0
3
4
3
6
12
12
12
13
14
13
12
15
18
17
16
18
20
19
19
22
24
26
29
32
35
40
42
42
44
48
51
53
56
60
62
63
66
69
73
77
79
81
82
83
82
84
82
86
82
78
79
80
76
72
69
66
61
57
53
49
46
42
35
30
29
27
22
18
14
11
8
6
5
2
-2
-4
-4
-4
-5
-6
-6
-6
-7
-8
-7
-6
-5
-6
-8
-8
-8
-5
-2
-3
-4
-4
-4
-2
0
-1
-2
-1
0
1
2
3
4
5
5
3
3
6
7
5
4
5
6
5
4
4
4
5
6
5
4
5
4
1
0
2
1
0
-1
-2
-4
-6
-4
-2
-1
0
-3
-6
-8
-11
-14
-16
-14
-12
-13
-14
-14
-14
-14
-14
-14
-15
-17
-17
-15
-14
-14
-14
-13
-12
-12
-12
-11
-10
-11
-12
-12
-10
-10
-9
-8
-9
-10
-10
-10
-8
-6
-6
-6
-4
-2
-2
0
7
12
11
10
13
14
15
16
17
14
5
2
2
-1
-6
-9
-11
-14
-17
-18
-18
-18
-18
-18
-18
-20
-22
-22
-22
-21
-20
-20
-20
-20
-20
-20
-18
-6
12
45
58
33
16
8
14
38
57
71
43
-23
-88
-154
-219
-285
-336
-380
-365
-329
-292
-257
-197
-132
-88
-48
-28
-9
-4
2
4
6
11
16
19
22
20
18
21
24
24
24
25
27
31
34
34
34
32
33
40
44
43
43
46
50
54
58
61
62
62
65
71
73
75
77
79
83
87
88
88
93
96
97
98
101
104
103
102
102
102
104
105
101
98
98
97
93
88
83
79
74
70
65
59
53
47
42
38
34
30
26
24
24
20
13
12
11
10
11
10
7
5
4
3
2
3
4
1
-2
-2
-2
1
4
1
-2
-1
1
4
6
6
6
7
7
5
5
8
10
9
8
9
9
7
8
11
9
5
4
4
4
4
4
3
1
-2
-1
0
2
4
-2
-8
-6
-4
-4
-4
-6
-8
-6
-5
-8
-10
-9
-8
-9
-10
-13
-14
-13
-13
-15
-16
-15
-14
-14
-14
-13
-12
-13
-14
-14
-14
-13
-11
-9
-7
-8
-3
-2
-4
-6
-5
-4
-1
2
2
2
3
4
5
6
6
5
1
-1
2
4
3
1
-1
-2
-2
-2
-2
-2
-2
-2
-1
3
7
6
3
2
2
6
11
10
7
4
2
-7
-16
-17
-18
-20
-22
-25
-28
-28
-28
-26
-24
-25
-26
-28
-29
-25
-22
-22
-22
-23
-22
-18
-15
-13
-13
-17
-2
23
39
53
31
-2
0
10
33
58
55
49
-15
-81
-146
-212
-277
-338
-359
-372
-331
-290
-247
-199
-135
-82
-53
-28
-10
3
6
8
10
13
18
20
21
24
30
31
29
29
31
32
33
35
37
38
38
40
43
44
43
44
42
49
50
51
52
53
54
56
58
64
68
67
67
72
76
77
78
80
83
86
88
91
92
91
91
94
96
95
95
97
96
93
92
93
91
87
85
83
78
73
69
65
60
56
51
46
44
42
36
30
28
26
24
22
21
20
16
14
14
14
13
12
12
12
11
11
13
14
13
12
12
12
13
14
15
16
17
17
15
18
23
23
21
21
24
22
20
20
20
18
16
15
14
17
20
18
16
16
16
15
14
15
16
15
14
15
16
16
15
12
11
13
14
14
14
14
13
11
10
9
8
8
8
8
8
8
5
4
4
4
4
4
5
6
4
2
4
6
6
6
5
4
5
6
5
4
1
1
3
4
3
2
1
0
-1
-3
-5
-6
-7
-8
-7
-6
-7
-8
-9
-9
-7
-6
-6
-5
-4
-2
0
3
6
9
12
11
11
16
19
15
13
16
15
7
2
0
-3
-5
-7
-9
-11
-14
-16
-15
-15
-17
-16
-13
-13
-15
-16
-15
-15
-17
-17
-15
-14
-12
-12
-11
13
35
47
54
24
2
12
23
36
48
57
42
-24
-89
-155
-220
-286
-327
-342
-333
-299
-264
-228
-179
-121
-85
-58
-34
-10
-2
1
2
2
7
13
15
17
17
18
17
20
21
22
22
22
23
24
25
26
27
28
29
30
32
34
36
38
40
43
46
50
54
56
56
59
64
68
71
72
73
75
77
81
85
88
91
92
93
95
97
98
98
99
100
100
100
95
90
90
90
87
83
77
72
70
67
63
58
52
47
43
38
34
31
28
25
23
21
19
17
15
13
11
10
11
9
5
4
5
6
6
5
2
5
8
5
2
2
2
5
8
7
6
3
0
2
4
4
4
6
5
-2
-4
3
4
-1
-4
-3
-2
-1
-2
-6
-8
-7
-6
-6
-8
-11
-12
-13
-10
-5
-9
-4
-14
-12
-15
-18
-15
-12
-13
-14
-15
-16
-15
-14
-13
-13
-16
-18
-18
-18
-16
-15
-20
-22
-21
-19
-17
-16
-17
-18
-18
-18
-17
-16
-16
-16
-16
-16
-15
-14
-14
-14
-15
-15
-14
-13
-12
-14
-16
-17
-18
-18
-18
-17
-16
-17
-17
-13
-9
-4
0
2
4
2
0
1
3
6
7
5
0
-7
-10
-10
-16
-24
-26
-27
-28
-29
-32
-35
-34
-31
-30
-32
-34
-36
-36
-36
-35
-34
-32
-30
-29
-28
-27
-23
-9
8
34
40
12
-4
-5
6
33
51
63
31
-35
-100
-166
-232
-297
-347
-391
-373
-334
-297
-260
-199
-134
-97
-64
-45
-62
-23
-20
-17
-14
-13
-12
-10
-8
-7
-6
-6
-6
-5
-4
-3
-2
-4
-5
-2
1
6
8
9
10
10
11
14
18
21
23
25
30
36
39
41
47
53
55
57
62
67
72
76
78
80
83
86
84
82
88
92
91
90
90
90
89
88
86
84
84
81
73
68
67
64
60
55
50
46
42
38
34
29
25
21
17
17
19
17
13
10
7
6
4
5
6
6
6
7
8
8
8
9
10
11
12
12
12
13
14
13
12
13
15
20
22
22
22
22
23
25
26
25
25
27
30
33
33
31
30
29
28
28
29
28
31
30
30
30
29
28
28
28
27
26
27
28
25
22
22
22
20
18
18
18
17
16
17
17
14
12
11
10
9
6
3
2
3
4
3
2
1
-2
-5
-4
-1
-3
-6
-7
-8
-6
-4
-6
-8
-7
-6
-5
-4
-2
0
1
2
3
4
3
2
3
5
7
9
11
13
16
21
28
30
29
29
31
32
32
32
33
26
17
16
16
14
10
8
6
4
2
2
2
4
6
8
10
7
4
4
4
6
8
6
4
3
3
6
12
20
43
77
76
52
37
26
38
60
74
85
35
-30
-96
-161
-227
-292
-334
-296
-338
-301
-266
-229
-166
-107
-66
-29
-11
6
15
22
21
21
26
31
34
36
34
32
35
36
36
36
37
38
37
37
39
41
43
42
39
41
45
46
47
48
48
53
59
61
62
65
68
70
72
76
80
83
86
87
88
88
88
92
94
95
96
97
98
99
100
100
100
100
100
99
97
93
90
86
82
79
74
68
65
63
59
55
50
45
43
40
36
32
31
30
27
24
24
24
24
24
23
22
22
22
22
21
18
16
16
16
19
18
14
13
16
18
18
18
17
16
16
16
17
17
15
16
19
16
11
12
10
14
12
9
6
4
2
4
6
4
2
1
0
0
0
-1
-2
-1
0
0
0
1
2
2
2
1
0
-1
-3
-5
-6
-5
-4
-4
-4
-4
-4
-4
-3
-1
0
0
-3
-6
-5
-4
-3
-2
-2
-2
1
4
2
0
0
0
1
2
1
0
1
2
2
0
-4
-4
0
0
-4
-6
-7
-6
-3
1
6
8
8
9
11
12
13
14
14
14
16
10
4
0
-4
-11
-18
-21
-24
-26
-28
-28
-28
-26
-25
-29
-32
-30
-28
-30
-31
-28
-26
-26
-26
-25
-24
-24
-21
-16
11
45
39
18
4
-10
-3
8
19
29
-21
30
-141
-207
-272
-333
-353
-368
-349
-331
-310
-282
-231
-180
-126
-81
-52
-28
-12
0
5
8
11
14
18
20
20
21
23
24
24
24
24
27
31
32
32
32
33
34
35
36
37
40
42
44
46
46
46
48
50
52
54
55
56
59
62
64
66
68
70
72
74
76
78
78
78
79
81
84
85
83
82
82
82
81
78
75
74
73
70
67
62
57
56
56
52
48
43
38
34
30
27
24
24
24
21
18
16
14
14
14
13
12
12
12
12
12
13
14
14
14
13
12
11
10
10
10
11
12
11
10
9
8
8
8
8
9
8
8
8
8
8
7
6
5
4
5
6
3
0
0
0
1
2
4
4
-1
-3
0
0
-4
-6
-6
-6
-7
-5
0
0
-3
-4
-4
-4
-5
-5
-3
-2
-2
-2
-2
-3
-4
-5
-6
-5
-4
-5
-6
-6
-6
-5
-4
-8
-10
-8
-6
-8
-10
-11
-12
-12
-11
-9
-10
-14
-16
-15
-12
-9
-6
-3
0
3
5
7
10
13
12
9
11
16
13
10
7
4
0
-4
-8
-12
-12
-12
-12
-12
-11
-10
-11
-12
-12
-12
-12
-12
-15
-14
-10
-9
-11
-12
-12
-11
-9
7
28
41
52
29
-3
1
12
34
56
61
58
1
-65
-130
-196
-261
-321
-349
-365
-328
-290
-253
-210
-152
-101
-68
-40
-24
-12
-7
-4
-4
-2
3
6
7
8
8
9
11
13
15
15
13
14
17
21
25
26
25
27
31
34
36
37
38
40
42
44
46
49
52
55
58
61
64
68
70
70
70
72
74
75
77
80
82
82
83
85
86
86
86
87
87
85
84
83
82
82
78
73
69
65
62
58
54
50
45
40
37
34
30
26
25
23
18
14
13
12
11
9
6
4
4
4
4
3
1
0
0
0
1
2
2
1
-1
1
5
6
5
4
4
5
7
8
8
6
2
4
6
6
6
7
8
8
8
7
6
5
4
5
6
4
2
1
0
-1
-2
-1
0
-1
-2
-3
-5
-7
-8
-8
-8
-8
-8
-9
-10
-9
-7
-5
-5
-7
-7
-6
-8
-10
-9
-8
-9
-10
-9
-8
-9
-10
-7
-4
-6
-8
-8
-7
-4
-3
-7
-9
-6
-2
2
1
-4
-6
-7
-8
-7
-5
-3
0
3
6
9
10
9
11
15
14
10
9
8
3
-2
-8
-14
-16
-18
-22
-26
-26
-26
-28
-30
-29
-28
-29
-30
-32
-34
-33
-31
-28
-28
-32
-31
-25
-21
-19
-5
15
31
47
26
-3
-1
9
35
64
57
66
-19
-85
-150
-216
-281
-342
-374
-392
-346
-301
-261
-214
-149
-96
-68
-44
-27
-15
-12
-10
-7
-5
-3
0
4
6
7
9
11
12
13
12
9
15
24
26
25
25
27
31
35
31
26
38
50
51
52
51
50
53
56
60
65
69
73
78
82
81
81
84
88
93
96
96
97
100
102
103
104
104
103
101
100
100
97
93
92
91
85
79
76
73
70
66
56
46
44
42
35
28
27
26
27
26
18
12
12
10
4
3
11
15
12
10
10
9
7
6
7
8
8
8
8
8
9
12
15
12
7
10
15
14
11
10
10
13
16
13
10
13
15
8
2
6
10
11
12
10
8
10
11
7
6
11
13
10
8
7
5
3
2
1
0
0
0
0
0
1
1
-1
-2
-3
-4
-4
-5
-7
-8
-8
-9
-10
-8
-6
-10
-14
-13
-12
-12
-12
-12
-12
-14
-16
-15
-14
-14
-14
-14
-14
-14
-14
-13
-14
-18
-15
-7
-4
-4
-1
3
4
3
5
9
10
10
13
17
7
-6
-6
-6
-12
-18
-17
-16
-18
-20
-17
-14
-11
-10
-17
-21
-16
-12
-14
-14
-8
-5
-10
-10
-5
-1
1
9
20
45
77
70
46
38
35
48
67
71
73
15
-50
-116
-54
-247
-311
-335
-356
-326
-297
-272
-242
-184
-130
-85
-46
-21
-2
4
8
10
13
17
20
21
22
21
21
23
24
24
24
25
28
31
29
25
27
31
32
33
32
29
31
35
39
42
42
42
45
48
47
46
50
54
55
57
63
68
68
69
74
78
77
77
80
81
79
80
84
85
83
81
77
77
79
77
73
69
65
63
61
58
55
52
49
43
36
35
34
28
22
18
14
21
25
17
10
11
12
11
10
8
6
5
4
2
0
1
2
3
4
5
6
6
5
3
2
3
4
4
4
3
3
5
6
6
6
6
6
8
6
4
3
2
5
8
8
8
5
2
4
6
7
7
4
2
2
2
-1
-3
-6
-12
-19
-14
-1
1
-4
-7
-9
-9
-7
-8
-11
-8
-3
-6
-11
-12
-13
-14
-14
-13
-12
-12
-12
-11
-10
-12
-13
-8
-4
-6
-8
-7
-6
-6
-6
-4
0
5
8
8
9
11
13
16
17
15
19
27
21
7
4
4
4
3
0
-3
-6
-9
-10
-8
-10
-12
-13
-14
-15
-16
-17
-18
-20
-22
-21
-20
-20
-20
-22
-22
-17
1
37
49
34
17
-2
1
20
33
41
8
-46
-109
-174
-240
-305
-347
-382
-370
-349
-320
-290
-238
-288
-133
-83
-54
-27
-16
-6
-4
-2
1
4
6
8
8
8
9
10
11
12
13
14
14
13
10
10
16
17
14
14
18
19
17
19
24
28
31
34
37
40
43
47
51
56
60
64
68
73
78
82
86
88
90
92
94
96
98
97
97
102
105
102
100
99
98
97
94
90
86
82
79
75
72
68
64
61
56
50
46
43
39
35
32
29
28
28
22
16
17
18
16
14
12
10
8
6
5
4
4
4
4
4
5
6
6
5
0
-1
1
2
2
2
2
3
5
4
-1
0
3
3
1
0
-1
-2
-3
-4
-4
-2
-2
-2
-2
-3
-4
-3
-2
-4
-6
-4
-2
-2
-2
-1
-1
-4
-6
-6
-6
-3
-3
-6
-8
-7
-6
-7
-8
-7
-8
-12
-11
-7
-7
-9
-11
-13
-14
-13
-14
-17
-16
-14
-11
-8
-12
-16
-14
-12
-13
-13
-6
0
0
0
2
4
3
3
7
10
12
12
8
3
-3
-7
-10
-17
-25
-26
-23
-20
-17
-20
-26
-22
-14
-18
-25
-28
-31
-24
-14
-21
-28
-18
-9
-22
-33
-23
-11
6
22
31
31
7
-5
10
25
38
42
30
-7
-73
-138
-204
-269
-335
-359
-357
-334
-302
-267
-231
-178
-119
-82
-49
-29
-10
1
11
7
12
10
20
13
6
12
18
20
22
18
14
19
22
22
23
27
30
28
26
25
24
27
29
31
34
40
42
41
42
45
51
58
61
63
66
69
72
75
79
83
84
84
88
92
89
86
91
96
95
94
93
92
90
88
86
84
80
78
76
72
66
62
60
55
49
44
40
34
27
23
19
17
15
11
7
6
5
2
-1
-2
-1
-1
-3
-4
-4
-4
-4
-3
-2
-1
0
0
0
1
2
0
-2
-1
0
0
0
0
1
5
7
4
3
6
8
8
8
7
6
5
4
3
1
-1
-1
1
2
2
2
2
2
2
3
4
1
-2
1
4
1
-2
-3
-4
-3
-2
-4
-6
-5
-4
-6
-8
-9
-10
-11
-11
-9
-8
-9
-10
-10
-10
-10
-10
-11
-12
-12
-12
-13
-14
-13
-12
-11
-9
-7
-3
0
3
6
6
6
7
8
14
18
21
22
12
3
-1
-5
-9
-12
-13
-14
-15
-16
-17
-18
-18
-20
-24
-26
-25
-24
-25
-26
-27
-29
-31
-28
-23
-21
-19
-13
-7
17
42
20
-2
-4
-4
18
41
60
63
-2
-68
-133
-199
-264
-322
-364
-381
-358
-332
-302
-257
-197
-146
-104
-72
-48
-33
-25
-21
-19
-17
-15
-11
-7
-5
-3
-2
-2
-1
1
2
2
2
4
6
8
6
4
9
14
16
18
17
16
19
22
24
27
30
33
36
38
38
40
44
48
54
56
57
58
59
63
68
70
71
72
73
74
73
72
72
72
72
69
66
62
58
57
56
53
50
47
44
40
36
34
30
22
15
11
8
6
3
-1
-4
-5
-6
-6
-7
-9
-10
-10
-10
-10
-11
-13
-14
-13
-12
-12
-12
-11
-11
-13
-14
-14
-12
-10
-9
-8
-9
-10
-8
-6
-7
-8
-9
-10
-9
-8
-9
-10
-12
-13
-10
-8
-11
-12
-12
-12
-13
-14
-13
-13
-15
-13
-8
-8
-11
-11
-9
-15
-23
-20
-15
-14
-14
-19
-24
-11
2
-6
-14
-16
-18
-14
-10
-5
-3
-8
-12
-11
-10
-10
-10
-12
-14
-15
-15
-13
-12
-13
-13
-11
-8
-5
-4
-4
-5
-7
-4
1
0
-3
-3
-1
-6
-13
-17
-20
-23
-26
-26
-26
-28
-30
-27
-24
-24
-24
-27
-30
-29
-28
-27
-26
-26
-26
-25
-24
-25
-25
-23
-12
5
25
47
34
4
0
6
28
53
60
63
7
-58
-124
-189
-255
-320
-367
-410
-369
-328
-287
-242
-177
-119
-85
-55
-35
-20
-18
-15
-10
-5
-2
1
4
7
10
12
12
12
13
14
15
17
19
20
19
19
21
23
25
26
27
31
35
37
36
41
42
45
48
49
50
51
52
56
60
62
64
66
69
72
74
76
79
82
84
83
82
82
82
81
80
79
76
73
70
66
59
52
52
55
50
41
37
33
26
19
18
18
11
4
1
-2
-3
-4
-6
-8
-8
-8
-10
-12
-11
-10
-11
-12
-13
-14
-15
-16
-15
-15
-17
-18
-18
-18
-17
-14
-10
-11
-16
-17
-15
-14
-14
-12
-9
-8
-9
-10
-10
-10
-10
-10
-10
-8
-6
-13
-17
-12
-8
-9
-10
-8
-7
-11
-14
-12
-11
-15
-17
-14
-12
-12
-12
-13
-13
-11
-10
-11
-13
-15
-15
-13
-12
-13
-15
-17
-18
-18
-14
-18
-10
-12
-11
-10
-11
-12
-12
-12
-9
-6
-8
-10
-11
-12
-11
-10
-8
-6
-5
-3
2
5
7
8
8
8
8
11
16
18
19
13
3
0
1
-5
-14
-16
-16
-18
-21
-21
-20
-16
-12
-20
-28
-25
-22
-24
-26
-23
-21
-25
-29
-33
-34
-27
-18
-8
10
39
40
11
-5
-11
1
26
49
71
33
-32
-98
-163
-229
-294
-333
-365
-348
-322
-295
-267
-206
-144
-103
-63
-36
-11
-2
6
9
12
14
16
19
22
23
24
26
28
27
26
27
28
31
32
32
32
33
35
38
40
40
42
45
47
49
50
50
55
61
62
63
64
64
72
78
79
80
83
86
90
94
95
96
97
98
99
101
106
109
105
102
102
102
102
102
102
99
93
90
89
87
85
80
74
70
67
63
59
56
53
49
45
44
43
41
40
40
40
37
34
33
32
33
34
33
32
29
26
28
30
29
28
30
32
31
30
31
31
28
26
27
28
29
30
29
28
28
25
21
24
29
25
19
17
15
16
20
17
14
18
22
22
22
15
10
12
14
14
15
19
21
16
12
13
14
12
13
20
23
21
18
12
10
10
13
18
18
15
17
21
21
19
18
17
16
16
22
16
23
16
23
30
31
32
35
38
44
48
45
44
52
56
50
45
41
37
34
30
23
20
19
18
18
15
10
10
13
12
8
6
6
6
5
5
7
7
5
6
9
9
8
20
34
67
94
71
51
44
42
60
78
93
84
18
-47
-113
-178
-244
-303
-354
-361
-322
-282
-240
-184
-119
-72
-36
-13
5
14
20
23
25
28
31
31
29
29
31
33
36
36
36
36
36
38
40
40
40
43
46
48
50
51
52
52
55
63
68
67
68
73
77
80
85
91
99
108
105
94
98
109
112
112
113
115
117
119
119
117
118
116
117
112
111
110
116
120
105
92
95
96
87
80
78
75
70
65
61
57
54
51
48
45
42
40
40
39
37
35
33
32
33
32
29
30
33
31
27
26
27
29
31
30
28
29
30
28
26
28
30
29
28
27
26
26
26
26
26
26
26
26
26
26
25
23
21
19
18
19
20
20
20
19
19
21
19
15
14
13
12
12
12
12
12
12
13
14
12
10
12
14
11
8
12
16
14
12
15
18
18
17
14
12
12
12
13
14
15
16
17
21
26
27
25
24
25
26
27
28
27
27
29
22
13
12
12
4
-4
-5
-6
-7
-8
-9
-10
-7
-5
-10
-14
-14
-14
-12
-10
-12
-14
-12
-10
-10
-8
-4
0
4
29
66
66
45
29
16
29
53
75
96
45
-20
-86
-151
-217
-282
-335
-386
-359
-331
-293
-250
-185
-124
-83
-45
-22
-3
2
6
10
12
13
14
15
17
20
22
23
24
24
25
27
28
29
30
29
29
31
32
33
35
37
39
41
43
45
46
48
51
54
56
58
60
62
66
70
74
78
78
78
78
80
86
90
89
88
89
90
90
90
89
88
89
89
87
85
83
79
74
70
67
63
59
53
47
45
43
37
42
27
24
22
20
17
14
13
12
10
8
7
6
8
10
8
6
6
6
7
8
7
6
6
6
5
4
4
4
4
4
4
3
1
0
1
2
2
2
1
0
0
2
4
4
4
3
2
3
4
3
2
0
-2
0
2
-2
-4
-5
-6
-6
-5
-2
-1
-3
-4
-5
-6
-6
-7
-11
-11
-9
-7
-5
-7
-11
-11
-9
-10
-13
-13
-11
-10
-8
-7
-6
-2
2
5
8
10
12
12
12
15
18
18
19
22
21
12
6
6
4
-1
-6
-11
-14
-13
-12
-13
-14
-15
-20
-26
-25
-21
-21
-23
-23
-21
-20
-20
-18
-20
-16
-18
-6
8
36
56
28
4
2
3
18
35
54
47
-19
-84
-150
-215
-281
-326
-347
-348
-329
-303
-271
-226
-173
-128
-88
-56
-28
-17
-12
-7
-3
-1
1
2
2
6
11
11
10
12
14
17
20
17
14
15
16
14
12
15
18
18
18
20
22
24
27
30
32
33
35
38
42
46
49
51
54
58
63
68
70
71
74
77
78
79
80
81
84
88
87
86
84
82
81
80
80
80
76
72
70
68
65
59
50
43
40
35
27
22
21
16
8
6
10
12
13
10
4
4
9
7
3
3
5
6
7
8
7
7
6
11
12
10
8
11
14
14
14
14
14
14
14
12
10
9
9
13
15
11
8
7
6
6
5
3
2
1
0
1
3
5
1
-6
-6
-3
-2
-2
-3
-5
-5
-3
-2
-2
-5
-8
-6
-4
-7
-10
-6
-2
-5
-8
-6
-5
-12
-15
-11
-8
-9
-9
-5
-2
-1
2
7
10
10
12
16
17
15
10
4
2
1
-4
-9
-13
-17
-18
-18
-17
-14
-15
-16
-16
-16
-17
-18
-19
-20
-20
-19
-14
-10
-13
-16
-15
-13
-10
7
42
54
41
26
9
9
21
42
67
37
-21
-85
-150
-216
-281
-326
-366
-363
-352
-325
-296
-244
-294
-141
-93
-69
-45
-31
-18
-18
-17
-11
-6
-5
-4
-4
-3
1
4
4
4
4
4
7
9
12
12
6
6
10
14
17
18
18
20
23
24
25
31
37
39
41
43
45
50
54
57
60
64
68
68
69
75
80
77
74
77
80
78
76
78
80
79
77
74
71
69
67
65
63
60
55
50
44
36
33
31
26
21
16
11
9
7
5
3
-1
-6
-5
-4
-4
-4
-9
-14
-9
-4
-6
-8
-8
-8
-11
-14
-14
-13
-9
-6
-7
-8
-7
-6
-6
-8
-12
-9
-1
-1
-6
-8
-9
-7
-3
-4
-7
-7
-5
-7
-11
-12
-12
-8
-6
-10
-14
-11
-8
-11
-14
-11
-9
-14
-18
-16
-14
-15
-16
-16
-16
-18
-20
-21
-23
-25
-26
-25
-24
-23
-22
-22
-22
-21
-21
-23
-20
-13
-7
-1
0
-1
-2
-3
-4
-4
-2
0
7
13
1
-10
-8
-8
-17
-24
-24
-24
-25
-26
-27
-27
-24
-23
-27
-31
-33
-35
-38
-35
-26
-19
-12
-17
-29
-23
-11
-12
-17
15
55
38
12
4
-3
19
44
71
92
27
-39
-104
-170
-235
-299
-353
-387
-357
-324
-283
-238
-184
-133
-89
-54
-31
-17
-12
-7
-1
-1
-7
-11
-13
-6
8
10
5
4
4
4
3
4
7
15
23
20
24
15
16
17
18
19
21
31
39
30
25
39
48
40
36
44
53
62
66
61
65
80
86
82
82
88
86
77
76
80
84
88
91
93
94
94
82
66
79
96
92
85
66
48
60
71
49
30
32
34
30
22
4
-7
5
11
1
-6
-5
-4
-2
-1
-4
-7
-10
-5
10
6
-13
-20
-21
-12
3
-3
-18
-21
-19
-16
-13
-12
-13
-9
-3
-1
2
-6
-14
-9
-4
1
5
-4
-11
-4
0
-10
-14
0
7
-3
-7
1
3
-5
-9
-6
-4
-5
-6
-5
-4
-4
-4
-3
-7
-14
-15
-13
-11
-9
-14
-21
-17
-11
-9
-10
-8
-10
-1
8
3
-2
-2
0
16
25
10
1
12
20
18
15
9
6
4
1
-2
-8
-16
-20
-20
-19
-17
-18
-21
-23
-25
-23
-19
-22
-27
-33
-39
-31
-21
-20
-20
-17
-14
-12
-8
19
44
44
40
13
-4
18
41
70
78
37
-13
-79
-144
-210
-275
-341
-375
-378
-353
-303
-251
-199
-146
-91
-55
-28
-17
-13
-8
-3
-4
-7
-3
3
4
4
5
8
4
0
1
2
7
12
17
22
21
18
9
4
13
20
20
22
27
30
32
35
38
41
43
47
53
57
59
63
68
69
67
80
100
87
66
74
88
89
87
92
86
99
98
96
94
93
92
90
88
87
85
78
71
67
63
58
53
47
42
37
31
22
18
17
18
22
16
1
-4
-5
-4
-1
0
-1
-4
-7
-5
-1
-3
-7
-9
-11
-8
-4
-9
-14
-11
-8
-6
-4
-10
-13
-8
-4
-5
-7
-11
-14
-12
-9
-6
-5
-9
-11
-9
-8
-7
-7
-10
-11
-9
-9
-11
-12
-12
-12
-13
-14
-13
-13
-15
-12
-7
-13
-22
-21
-20
-9
2
-5
-12
-8
-4
-4
-2
8
14
6
1
6
11
14
15
12
10
11
8
0
-4
-3
-8
-18
-21
-19
-20
-23
-24
-24
-24
-23
-23
-25
-26
-27
-29
-28
-28
-24
-24
-24
-25
-26
-25
-23
-14
2
39
59
32
11
0
3
32
54
64
40
-26
-91
-157
-222
-288
-344
-394
-384
-340
-299
-260
-202
-138
-95
-58
-37
-19
-16
-15
-8
-1
2
4
9
14
15
16
19
22
22
22
21
21
27
32
28
26
28
31
35
38
38
38
39
42
46
48
48
48
48
53
61
63
61
64
69
72
75
76
77
78
79
80
78
79
80
79
78
80
82
80
78
76
74
71
68
68
66
60
56
54
51
47
43
38
35
32
28
22
20
20
18
14
12
11
10
11
12
11
9
7
6
7
8
8
8
6
7
8
7
6
8
10
10
10
10
10
13
18
25
25
9
2
8
12
15
16
15
13
11
11
14
12
6
6
9
8
5
4
4
3
1
0
-1
-2
-2
-7
-12
-11
-10
-10
-10
-12
-14
-17
-20
-17
-14
-16
-18
-18
-18
-17
-15
-12
-10
-10
-10
-10
-10
-9
-7
-4
-3
-5
-6
-5
-10
-19
-23
-25
-30
-35
-36
-37
-43
-49
-48
-44
-38
-32
-34
-36
-38
-40
-38
-36
-35
-34
-33
-32
-31
-30
-30
-26
-16
4
38
47
26
8
-9
-5
16
34
50
12
-53
-119
-184
-250
-315
-368
-418
-403
-375
-340
-304
-244
-302
-132
-83
-57
-32
-26
-20
-13
-8
-8
-8
-3
0
2
3
0
0
7
12
12
11
8
7
10
14
20
21
18
19
24
23
18
19
24
30
35
36
36
37
39
44
49
49
48
55
62
66
70
69
68
74
78
80
82
82
82
86
88
87
86
86
85
82
81
84
85
82
76
67
62
58
54
51
46
40
34
28
26
25
20
15
14
15
13
8
8
8
6
4
6
8
1
-4
-2
0
-1
-2
-4
-6
-5
-4
-4
-4
-4
-4
-3
-2
-2
-3
-5
-2
5
4
-3
-4
1
2
1
3
7
3
-3
1
7
8
8
5
0
3
6
2
-2
2
6
6
6
1
-2
-2
-2
-2
-2
-4
-6
-4
-2
-2
-2
-3
-4
-5
-6
-6
-6
-5
-1
4
5
3
6
11
12
13
12
9
10
13
15
16
6
-4
-4
-5
-13
-20
-20
-20
-23
-26
-26
-26
-24
-23
-27
-30
-29
-28
-30
-30
-26
-25
-27
-28
-29
-30
-29
-15
4
21
36
16
-16
-15
-6
12
30
48
65
3
-63
-128
-194
-259
-321
-350
-372
-342
-312
-278
-238
-178
-126
-90
-58
-33
-16
-10
-5
-1
4
9
13
15
16
17
18
18
18
18
22
28
27
21
20
21
22
22
24
27
22
28
24
34
29
24
31
37
26
19
40
55
48
43
49
54
54
54
54
58
70
70
57
57
73
79
76
75
77
76
73
72
71
70
71
72
71
66
61
60
59
56
53
49
46
41
36
34
32
30
28
25
22
20
18
16
14
16
18
17
16
14
12
13
14
14
13
10
10
14
13
8
8
12
12
9
8
7
6
7
7
5
7
11
8
2
6
10
7
4
6
8
7
6
3
0
2
4
3
2
1
0
0
0
-1
-2
-1
0
-1
-2
-2
-5
-10
-11
-9
-8
-9
-11
-13
-14
-14
-13
-11
-10
-11
-12
-12
-9
-8
-2
4
3
2
1
0
2
4
1
-3
-9
-15
-19
-23
-26
-28
-30
-32
-31
-30
-31
-33
-36
-38
-37
-37
-39
-39
-37
-37
-39
-37
-33
-33
-35
-34
-31
-6
21
28
34
4
-23
-5
15
46
68
44
10
-55
-121
-186
-252
-318
-365
-382
-378
-342
-300
-251
-195
-133
-92
-70
-49
-29
-21
-17
-15
-13
-12
-13
-11
-7
-6
-6
-4
-1
-1
-3
-1
4
5
6
4
2
7
12
11
11
17
22
20
20
27
32
32
32
34
38
43
46
47
51
58
62
63
66
70
73
75
77
79
80
79
78
77
78
81
78
73
75
72
77
74
68
62
56
50
48
45
34
26
26
24
17
11
7
3
-3
-6
-8
-9
-6
-8
-16
-18
-12
-13
-19
-19
-14
-12
-12
-15
-19
-14
-6
-7
-11
-12
-11
-9
-7
-8
-10
-7
-4
-3
-2
0
2
1
1
6
8
0
-5
-1
2
2
2
1
0
-2
-2
2
2
-3
-6
-5
-3
-1
0
-1
-2
-3
-4
-5
-8
-11
-8
-3
-5
-9
-10
-10
-8
-6
-9
-12
-11
-10
-10
-10
-11
-12
-12
-12
-13
-13
-9
-6
-5
-4
-2
0
1
5
11
11
5
2
3
2
-2
-7
-12
-17
-21
-23
-25
-27
-29
-30
-29
-28
-28
-30
-34
-32
-30
-35
-39
-32
-26
-26
-26
-26
-26
-23
-20
-18
-3
33
43
17
1
-4
8
37
62
85
55
-11
-77
-142
-208
-273
-339
-404
-400
-376
-336
-293
-231
-166
-121
-77
-54
-32
-25
-18
-19
-20
-17
-14
-13
-11
-3
3
-2
-5
-1
2
3
4
6
9
13
16
16
16
17
21
26
26
22
24
30
35
39
40
39
40
43
49
55
58
61
65
70
70
70
75
80
80
80
83
86
88
90
87
84
87
89
84
80
79
78
78
75
66
61
59
54
47
40
33
29
27
21
14
9
5
2
-1
-2
-1
0
-1
-5
-2
-8
-6
-8
-10
-9
-8
-8
-8
-8
-8
-8
-8
-6
-5
-9
-11
-8
-6
-6
-6
-7
-9
-11
-10
-4
-3
-5
-5
-3
-2
-3
0
6
5
1
6
13
15
17
28
39
-24
-89
-152
-215
-280
-346
-411
-477
-542
-608
-673
-739
-804
-863
-907
-913
-848
-783
-718
-653
-588
-523
-458
-393
-328
-268
-211
-149
-84
-38
0
21
36
44
49
57
66
72
77
78
78
92
108
108
108
111
114
118
123
130
137
144
151
157
164
171
178
185
194
205
215
223
231
238
246
256
263
269
276
283
288
292
297
302
304
303
302
301
299
297
293
289
276
288
261
260
244
229
215
200
184
168
156
142
124
109
103
94
79
68
61
55
52
49
44
41
39
38
37
36
36
36
37
38
38
38
38
37
35
37
41
42
41
40
40
39
38
37
36
37
38
38
38
39
40
37
34
36
38
37
36
36
34
29
27
30
32
32
32
31
29
26
24
23
24
27
27
25
23
21
20
20
20
19
18
17
17
20
15
10
12
14
15
16
14
12
10
8
10
12
9
7
11
13
10
8
6
4
7
8
8
8
8
7
5
4
3
1
-1
-1
1
2
1
-2
-5
-2
3
4
4
1
-2
3
8
4
0
3
6
4
2
7
10
9
8
8
8
9
10
8
7
10
12
11
10
9
9
11
12
13
12
9
10
13
9
2
0
0
0
1
3
5
5
4
3
2
10
18
18
18
20
22
21
20
22
23
18
14
15
14
6
2
3
1
-6
-9
-7
-6
-5
-4
-4
-4
-5
-4
-1
-1
-3
-1
3
4
4
4
3
28
56
55
53
32
13
30
49
84
109
93
64
-1
-67
-132
-198
-264
-310
-326
-322
-289
-254
-215
-169
-118
-79
-50
-24
-2
7
9
13
18
21
23
26
29
30
30
31
33
34
34
37
40
39
38
42
46
45
44
48
52
51
51
55
58
60
63
66
69
72
76
81
84
83
86
93
97
100
104
108
110
109
110
113
114
113
112
113
114
115
116
115
114
114
111
108
104
100
96
92
91
90
86
81
77
71
60
53
56
53
40
35
42
41
31
26
25
24
24
20
13
15
23
17
5
8
16
14
9
9
11
12
11
10
12
14
16
9
3
15
25
13
4
7
10
9
8
10
13
16
16
11
9
13
16
19
20
19
14
7
7
13
17
19
17
12
13
19
19
17
16
15
14
14
13
14
11
12
12
12
12
12
17
22
23
24
26
28
29
30
30
30
32
34
34
31
24
19
16
10
3
0
0
0
0
0
0
-1
-3
-8
-15
-14
-11
-10
-11
-12
-12
-10
-8
-10
-12
-11
-7
17
39
51
54
26
7
20
39
70
90
88
60
-6
-71
-137
-202
-268
-321
-364
-359
-319
-280
-241
-187
-127
-88
-57
-37
-19
-13
-9
-7
-5
-1
3
2
-2
0
2
10
18
17
16
15
14
16
19
23
26
23
22
29
34
33
34
39
42
42
43
46
49
52
55
58
64
70
74
79
82
85
88
91
93
95
96
96
96
96
99
100
102
104
104
103
96
90
89
87
82
77
71
66
64
60
54
49
45
39
30
24
20
16
12
10
11
8
2
0
-1
-2
-1
0
-1
-2
-3
-5
-7
-6
-3
-1
0
-1
-2
0
2
3
4
6
8
5
2
4
6
4
2
4
6
5
4
4
4
3
2
3
4
3
1
-1
-1
1
2
2
2
1
0
0
-1
-3
-4
-4
-4
-2
-6
-10
-9
-8
-10
-12
-9
-6
-3
1
5
8
9
10
12
14
14
14
15
16
16
12
4
0
1
-3
-12
-16
-15
-14
-14
-17
-21
-18
-13
-18
-25
-26
-25
-24
-24
-22
-22
-22
-22
-20
-18
-17
-11
20
44
46
41
13
-1
14
38
78
88
53
4
-62
-127
-193
-258
-324
-362
-382
-358
-309
-258
-207
-151
-94
-63
-38
-26
-16
-9
-3
-2
-1
2
4
6
8
13
18
17
16
16
17
22
26
24
22
22
23
28
32
32
32
34
38
42
44
43
45
50
55
60
62
63
67
71
74
77
79
81
85
89
91
93
93
90
92
94
96
98
98
98
96
94
92
90
87
83
79
75
71
66
59
53
50
46
39
34
29
24
18
16
17
16
12
8
3
2
1
-1
-3
-4
-5
-6
-6
-6
-6
-4
-4
-4
-4
-6
-8
-7
-6
-5
-4
-4
-4
-2
-1
-4
-6
-7
-8
-6
-4
-7
-8
-8
-9
-11
-12
-13
-14
-15
-16
-17
-18
-18
-18
-18
-19
-21
-22
-21
-20
-19
-19
-20
-19
-18
-15
-12
-14
-16
-15
-14
-15
-16
-16
-16
-20
-20
-14
-9
-6
-4
-3
-1
2
4
4
5
8
9
7
1
-7
-9
-7
-14
-26
-25
-21
-25
-31
-32
-31
-31
-34
-32
-30
-33
-36
-34
-32
-36
-39
-33
-28
-28
-28
-26
-22
-16
2
39
53
35
19
2
6
30
54
80
50
-16
-82
-147
-213
-278
-341
-404
-395
-368
-326
-281
-219
-155
-112
-152
-49
-30
-20
-10
-11
-12
-8
-4
-2
0
0
0
0
0
0
0
1
2
2
4
11
13
10
8
8
9
11
13
15
18
21
23
25
30
37
38
39
43
47
48
49
52
54
59
64
66
68
69
70
72
74
72
70
73
76
78
80
80
80
79
78
77
74
69
64
60
54
47
42
38
34
30
25
20
16
13
10
7
0
-7
-8
-9
-10
-10
-12
-14
-14
-14
-16
-18
-17
-16
-17
-18
-18
-18
-16
-15
-19
-20
-14
-11
-15
-16
-11
-8
-9
-10
-9
-8
-9
-9
-7
-6
-6
-9
-13
-13
-11
-10
-11
-12
-12
-13
-12
-16
-16
-17
-18
-16
-14
-18
-22
-22
-22
-22
-21
-17
-15
-18
-20
-21
-22
-23
-23
-20
-19
-22
-24
-24
-23
-21
-19
-17
-14
-11
-10
-9
-9
-11
-10
-7
-6
-7
-6
-3
-9
-16
-17
-18
-23
-28
-32
-36
-34
-32
-33
-34
-31
-28
-29
-30
-29
-28
-30
-32
-33
-31
-25
-23
-25
-25
-23
-11
6
27
50
32
-2
-9
-7
10
29
46
62
4
-61
-127
-193
-258
-322
-370
-409
-375
-342
-313
-278
-215
-158
-117
-82
-58
-40
-33
-27
-24
-22
-22
-21
-16
-14
-14
-12
-8
-6
-5
-4
-4
-4
-4
-2
1
1
-1
2
7
8
7
8
6
17
22
22
22
25
29
36
42
41
41
50
56
57
58
60
62
64
66
68
70
71
74
78
80
79
78
78
78
78
78
78
75
71
68
65
62
59
55
51
47
43
37
32
25
18
19
20
16
12
11
10
6
2
0
-1
3
5
2
-2
-7
-7
0
2
-2
-4
-3
-1
2
1
-6
-3
5
5
1
0
0
-3
-7
-8
-8
-6
-3
-6
-12
-9
-6
-7
-8
-7
-7
-17
-25
-17
-10
-10
-11
-15
-18
-17
-16
-17
-18
-18
-18
-17
-16
-16
-17
-19
-18
-14
-14
-17
-17
-15
-15
-17
-17
-15
-14
-15
-16
-16
-15
-16
-11
-10
-7
-4
-3
-2
1
4
3
3
8
10
1
-7
-10
-13
-17
-20
-20
-20
-23
-24
-23
-22
-21
-21
-24
-25
-23
-22
-22
-22
-21
-18
-15
-16
-19
-15
-9
8
25
40
54
23
-6
2
13
37
60
74
72
7
-59
-124
-190
-256
-311
-350
-360
-324
-290
-257
-210
-148
-101
-65
-37
-15
-4
0
4
8
10
11
13
15
16
16
17
19
20
21
22
22
24
26
30
34
34
34
35
36
40
44
44
44
47
50
51
53
57
60
60
61
66
69
72
75
77
81
87
90
89
90
93
94
94
94
95
95
93
92
93
94
94
89
86
87
88
78
70
68
65
57
50
45
42
40
35
26
20
21
22
20
16
11
8
9
5
-4
-2
8
8
1
-2
-2
1
5
4
1
0
0
0
1
2
2
3
4
7
10
8
6
9
12
9
6
5
4
4
4
5
6
5
3
-1
-3
0
0
-4
-7
-9
-8
-4
-5
-12
-14
-15
-12
-6
-4
-5
-6
-7
-8
-7
-6
-6
-6
-4
-3
-2
-1
0
-3
-6
-2
2
2
2
2
2
1
1
5
8
8
8
10
13
18
20
21
22
22
22
22
20
16
12
7
6
5
-1
-8
-11
-13
-15
-17
-18
-18
-15
-12
-15
-18
-21
-24
-20
-16
-18
-19
-14
-10
-13
-15
-11
3
32
49
45
31
6
3
21
48
81
76
47
-7
-72
-138
-203
-269
-334
-361
-379
-346
-303
-255
-206
-148
-89
-62
-36
-24
-12
-8
-4
-2
1
9
16
13
11
15
18
20
22
22
22
21
23
30
33
31
30
30
33
38
42
46
47
45
49
56
59
61
62
61
67
75
78
81
83
86
90
94
96
98
102
106
105
104
107
110
112
114
113
112
112
112
110
108
107
106
103
100
95
89
83
80
79
74
68
64
61
58
55
50
43
40
37
36
35
31
34
26
26
26
26
