-128
-315
-374
-437
-488
-423
-358
-293
-228
-163
-103
-57
-19
2
17
20
23
26
28
30
32
31
31
33
34
35
36
37
39
41
41
39
38
39
40
41
42
42
42
42
43
45
47
48
47
46
46
46
46
46
49
52
52
52
51
50
51
52
54
56
55
55
58
61
63
64
64
65
68
71
73
74
75
78
81
82
82
87
93
93
91
90
89
88
86
84
82
78
74
68
62
57
52
48
42
34
27
22
18
17
15
12
9
5
2
-1
-2
-1
0
-1
-2
-3
-4
-5
-4
-1
0
-1
-1
1
2
2
1
-1
1
-2
4
2
4
6
6
6
6
6
7
8
6
5
9
12
13
14
13
12
12
12
13
14
15
15
13
11
8
6
7
8
7
7
9
10
10
10
11
9
5
5
7
4
0
4
8
9
10
5
0
3
6
8
10
10
10
9
8
6
4
6
8
9
11
13
17
25
28
29
29
27
19
7
-1
-8
-8
-5
-6
-9
-13
-17
-17
-15
-9
-2
-5
-8
-4
0
-1
-2
-1
0
1
2
3
4
2
1
6
9
6
4
6
8
11
15
21
19
10
-9
-33
-72
-119
-158
-195
-231
-267
-292
-314
-267
-206
-177
-152
-93
-150
-26
-20
-5
8
7
7
15
22
21
20
20
20
19
19
22
24
22
20
19
19
24
23
16
14
20
22
23
24
25
26
25
24
23
24
27
28
28
28
27
26
25
25
26
29
32
30
28
30
32
32
32
32
32
33
34
35
36
35
35
38
40
42
44
45
46
46
46
47
48
48
48
47
44
41
39
37
34
31
26
21
15
9
7
4
1
-2
-6
-10
-10
-10
-10
-10
-11
-12
-13
-14
-14
-14
-13
-12
-12
-12
-12
-12
-12
-12
-11
-10
-10
-10
-11
-12
-12
-11
-9
-8
-7
-6
-7
-8
-9
-9
-7
-6
-6
-8
-8
-8
-8
-6
-4
-5
-6
-7
-8
-7
-6
-5
-4
-5
-6
-6
-6
-5
-4
-5
-6
-6
-6
-6
-6
-5
-4
-4
-4
-3
-3
-5
-5
-3
-2
-3
-4
-4
-4
-3
-2
-2
-1
0
-2
-4
-3
-2
-2
-2
-1
0
-1
-2
2
4
6
8
10
12
14
16
15
11
5
-1
-6
-9
-11
-12
-12
-15
-19
-21
-23
-22
-19
-18
-17
-17
-19
-13
-4
-6
-8
-6
-4
-4
-4
-3
-2
-1
0
-1
-2
0
3
8
12
14
16
15
7
-8
-32
-63
-106
-160
-214
-269
-327
-385
-408
-417
-371
-306
-241
-176
-115
-56
-31
-10
-1
-8
16
24
24
24
24
24
25
26
25
24
27
30
30
30
30
30
32
34
34
34
33
32
33
34
35
36
36
37
39
40
40
40
41
42
42
42
41
40
41
43
45
47
48
47
46
51
56
55
54
54
54
55
57
61
64
68
70
72
74
73
72
74
78
82
83
81
79
76
73
71
69
67
63
59
52
44
39
35
31
27
22
17
13
8
7
6
4
2
0
-2
-4
-6
-6
-6
-6
-6
-4
-3
-6
-8
-7
-6
-5
-5
-8
-10
-9
-8
-7
-6
-5
-4
-5
-6
-6
-5
-3
-2
-2
-2
-3
-4
-3
-2
-2
0
0
1
2
0
-2
1
4
2
0
0
0
0
0
1
2
2
2
0
-2
1
3
6
7
4
2
3
4
5
4
1
0
1
2
1
0
-1
0
3
4
3
2
2
5
8
11
14
17
20
21
22
24
25
20
14
7
1
-4
-8
-8
-9
-13
-17
-19
-18
-14
-12
-11
-12
-16
-14
-8
-6
-5
-4
-3
-4
-7
-5
-1
0
0
0
2
1
0
0
1
10
18
15
12
8
-1
-24
-52
-94
-137
-182
-228
-275
-319
-359
-349
-284
-234
-198
-145
-80
-46
-31
-15
1
7
9
12
15
16
17
18
17
20
25
21
26
17
20
19
18
22
26
22
18
24
28
25
22
25
28
26
24
23
23
26
27
24
21
19
21
27
29
27
28
32
33
31
30
30
30
31
32
33
33
31
32
35
43
50
47
44
46
48
45
43
50
56
52
48
50
52
51
50
51
50
45
40
35
31
28
26
27
23
14
7
2
0
1
-1
-5
-7
-9
-12
-15
-15
-13
-12
-12
-14
-18
-17
-16
-14
-12
-14
-16
-15
-14
-14
-14
-13
-12
-13
-14
-14
-14
-15
-15
-12
-10
-13
-14
-13
-12
-12
-12
-12
-12
-12
-12
-13
-14
-13
-12
-12
-12
-12
-12
-12
-12
-12
-13
-12
-13
-14
-13
-12
-13
-14
-13
-12
-12
-12
-12
-12
-14
-16
-15
-14
-14
-14
-14
-14
-14
-14
-13
-12
-12
-12
-13
-14
-14
-14
-13
-12
-13
-14
-13
-12
-12
-12
-11
-6
-2
-1
0
3
6
8
10
7
3
-3
-9
-14
-18
-19
-21
-24
-26
-27
-29
-32
-31
-25
-23
-26
-25
-20
-17
-15
-14
-14
-14
-13
-11
-9
-8
-8
-8
-7
-6
-7
-6
-2
3
8
8
8
5
0
-15
-35
-72
-113
-165
-215
-261
-308
-358
-386
-381
-350
-285
-220
-155
-105
-68
-42
-23
-10
0
8
15
20
23
22
19
18
19
22
25
26
27
28
28
26
26
28
30
31
32
31
30
30
30
31
32
34
35
32
30
32
34
35
37
40
41
39
38
37
38
42
44
45
45
43
42
43
46
49
51
53
54
54
54
55
59
62
66
70
69
68
69
70
73
76
75
73
69
66
62
60
59
56
51
45
37
30
25
21
19
16
12
7
2
0
-1
-2
-2
-3
-5
-7
-9
-10
-9
-8
-8
-8
-10
-11
-12
-11
-10
-10
-10
-10
-10
-11
-12
-11
-10
-9
-8
-7
-6
-6
-6
-6
-6
-5
-4
-4
-4
-3
-2
-3
-4
-4
-4
-4
-4
-3
-2
-3
-4
-3
-2
-3
-2
-4
1
0
-1
-2
0
2
-1
-4
-1
2
0
-2
-3
-3
0
2
1
0
0
0
-1
-2
-3
-3
0
1
-2
-1
4
7
9
10
9
9
11
14
17
18
18
12
5
1
-2
-7
-12
-12
-12
-15
-18
-20
-22
-22
-22
-20
-18
-22
-22
-13
-8
-10
-9
-2
0
-4
-6
-5
-4
-4
-4
-5
-5
-3
-3
-5
3
15
17
15
7
-1
-22
-45
-86
-128
-171
-214
-253
-292
-334
-363
-315
-268
-226
-178
-113
-62
-43
-26
-13
-2
3
8
13
16
15
14
13
12
13
14
13
14
18
19
17
19
23
23
21
20
20
19
17
19
16
24
24
22
20
22
24
25
26
24
22
21
20
22
24
26
28
28
28
27
26
29
30
30
31
34
34
30
31
36
38
39
40
41
43
45
47
49
50
49
48
47
49
52
51
50
49
48
42
36
32
27
22
17
11
6
2
-1
-5
-8
-7
-7
-11
-15
-17
-18
-17
-16
-15
-14
-15
-16
-16
-16
-16
-16
-17
-18
-18
-18
-18
-17
-15
-14
-16
-15
-14
-14
-14
-14
-14
-13
-12
-12
-12
-11
-10
-10
-10
-10
-10
-10
-10
-9
-8
-8
-9
-11
-12
-11
-10
-10
-10
-10
-10
-10
-10
-10
-10
-10
-10
-11
-12
-11
-10
-10
-10
-10
-11
-12
-11
-10
-10
-10
-9
-8
-9
-10
-10
-10
-11
-12
-12
-12
-11
-10
-11
-11
-8
-5
-2
0
1
4
7
8
9
9
7
0
-8
-14
-19
-20
-19
-18
-17
-20
-24
-27
-30
-24
-18
-19
-20
-16
-12
-12
-12
-12
-11
-7
-4
-5
-6
-7
-8
-6
-4
-4
-3
0
3
6
9
11
11
9
-7
-29
-66
-106
-150
-194
-239
-284
-335
-386
-354
-318
-272
-224
-159
-98
-70
-44
-26
-10
1
11
17
22
20
18
18
18
20
22
24
26
25
24
24
25
28
30
30
30
29
28
28
28
29
31
33
33
31
30
31
33
32
37
38
37
36
36
36
37
38
40
42
39
37
41
44
44
44
45
46
48
50
50
52
56
59
61
62
63
64
65
67
69
70
70
69
67
66
65
64
63
59
55
48
42
37
32
27
22
17
12
8
4
3
2
-1
-4
-6
-8
-9
-10
-10
-10
-10
-10
-10
-10
-10
-10
-9
-8
-9
-10
-9
-8
-9
-10
-9
-8
-8
-8
-9
-9
-7
-6
-6
-7
-8
-7
-6
-6
-6
-6
-6
-5
-4
-4
-4
-4
-4
-5
-6
-5
-4
-3
-2
-1
-1
-3
-5
-7
-7
-5
-4
-4
-5
-7
-8
-7
-6
-5
-4
-3
-3
-5
-6
-6
-5
-4
-4
-4
-5
-6
-5
-4
-1
2
3
4
7
11
14
16
16
15
11
5
-2
-8
-12
-14
-13
-13
-15
-19
-24
-26
-25
-21
-16
-15
-17
-13
-7
-7
-9
-8
-5
-3
-2
-3
-4
-3
-2
-1
0
1
2
3
5
9
12
14
15
11
-1
-25
-58
-103
-155
-213
-275
-341
-406
-472
-455
-390
-325
-260
-195
-130
-83
-42
-17
5
11
15
23
31
28
22
26
30
31
32
32
32
33
34
35
36
36
36
37
38
38
38
38
38
37
36
36
36
37
38
38
38
39
40
40
42
47
48
47
46
46
46
45
44
43
42
42
46
48
49
50
53
56
60
64
65
66
66
66
65
64
66
68
70
72
74
76
77
76
71
68
67
64
60
56
53
47
39
33
29
24
19
18
17
13
9
4
-1
-4
-6
-5
-4
-2
0
-3
-6
-3
0
-2
-4
-3
-2
-4
-5
-2
0
0
0
0
0
-1
-1
1
1
-2
-2
2
2
-1
0
3
7
11
11
9
8
9
9
7
6
8
7
6
5
4
10
16
14
11
6
2
2
3
7
9
6
4
5
6
4
3
6
8
8
7
4
2
2
4
7
6
3
2
2
2
2
2
2
3
5
5
6
3
4
5
6
10
14
14
14
17
20
21
22
24
24
18
13
7
2
-3
-6
-6
-7
-10
-13
-15
-16
-16
-14
-10
-8
-9
-6
0
1
-1
-1
1
2
2
2
3
4
4
6
8
7
6
9
12
16
20
19
15
3
-13
-38
-69
-112
-152
-186
-217
-243
-263
-277
-249
-184
-147
-129
-86
-30
-12
-13
-3
12
17
19
22
25
26
26
26
27
28
30
31
32
33
34
32
30
32
34
35
36
36
36
35
34
36
38
38
38
38
38
38
39
41
42
43
44
44
44
43
43
45
47
49
48
45
44
45
48
51
52
52
55
56
56
56
60
64
67
70
69
68
71
74
75
76
76
76
74
72
70
68
67
64
59
54
48
43
38
34
31
28
24
20
17
14
11
10
9
8
7
6
5
5
6
5
4
4
4
4
4
3
2
3
4
4
4
4
4
4
4
5
6
6
6
5
5
7
8
8
8
8
8
8
8
7
6
7
8
8
8
7
6
7
8
8
8
8
8
8
8
8
7
6
5
4
6
8
8
8
7
6
6
6
6
6
7
8
7
6
6
7
9
10
9
8
7
6
6
7
9
10
9
8
8
9
8
18
24
23
22
25
28
27
26
23
19
12
5
0
-4
-2
-1
-4
-7
-10
-12
-15
-13
-6
-3
-6
-6
-2
0
1
2
3
5
7
8
7
6
5
5
7
8
8
12
16
21
26
25
24
16
7
-15
-41
-83
-128
-182
-240
-306
-371
-437
-450
-385
-321
-258
-194
-129
-80
-43
-15
7
17
21
26
32
34
33
32
31
33
37
38
38
38
37
37
40
41
42
41
40
40
40
38
36
40
44
42
40
42
44
44
44
44
44
44
45
48
50
50
50
51
52
53
54
55
56
56
57
59
60
61
63
65
67
69
71
70
76
78
81
84
86
88
88
88
90
92
93
94
93
90
84
80
78
73
66
60
55
49
42
36
30
27
25
21
16
12
8
7
9
10
10
8
5
3
1
1
3
2
0
-1
-2
-2
-2
-1
0
3
6
3
0
0
0
4
6
6
6
5
4
4
5
7
8
9
10
9
7
5
6
9
10
9
8
9
9
7
7
9
9
7
6
4
2
0
4
8
9
10
3
-2
2
6
4
3
7
9
4
0
-2
-2
4
7
2
1
4
5
3
2
1
0
0
2
5
5
3
5
9
13
17
20
23
23
24
16
12
5
-2
-6
-10
-10
-10
-13
-16
-16
-16
-16
-16
-15
-15
-18
-18
-13
-10
-9
-7
-4
-3
-6
-7
-5
-2
1
1
-1
-2
-1
0
1
5
9
10
9
2
-5
-24
-43
-82
-121
-164
-204
-225
-247
-278
-291
-238
-194
-176
-145
-83
-39
-30
-20
-9
-2
0
4
8
10
10
12
16
17
13
12
11
10
10
14
20
19
15
15
17
17
15
17
22
18
14
15
16
17
18
21
24
20
16
18
20
20
21
24
26
25
24
22
20
23
24
25
26
25
24
25
27
29
30
30
31
33
34
34
36
39
40
40
40
40
41
42
41
40
38
36
35
34
32
29
23
17
13
9
5
1
-2
-5
-8
-10
-13
-14
-14
-15
-17
-18
-18
-18
-17
-16
-17
-18
-17
-15
-13
-12
-13
-14
-15
-16
-15
-14
-14
-14
-14
-14
-14
-12
-10
-11
-12
-12
-12
-12
-12
-13
-14
-14
-14
-14
-14
-13
-12
-12
-12
-13
-14
-14
-14
-13
-12
-12
-12
-12
-12
-13
-14
-13
-12
-12
-12
-13
-14
-12
-11
-10
-10
-10
-11
-12
-12
-12
-11
-10
-9
-8
-10
-12
-11
-10
-8
-6
-8
-10
-11
-12
-11
-10
-9
-8
-8
-8
-8
-6
-1
3
7
8
9
10
10
9
7
1
6
-11
-16
-18
-20
-20
-20
-22
-24
-28
-32
-27
-24
-24
-23
-19
-16
-14
-12
-14
-15
-10
-8
-7
-6
-7
-8
-9
-9
-7
-4
-1
3
8
10
9
5
1
-15
-32
-71
-111
-164
-217
-279
-340
-397
-444
-407
-366
-306
-244
-179
-120
-78
-42
-20
-5
0
6
14
18
18
18
17
17
19
20
20
21
23
24
23
22
22
23
25
26
27
28
27
26
27
28
30
30
30
30
30
30
30
33
36
36
36
36
36
35
34
36
38
40
42
43
44
43
44
48
50
51
52
53
55
57
60
63
66
69
70
70
70
71
72
73
74
74
72
70
66
62
59
56
52
47
40
33
27
21
17
13
8
4
2
-1
-5
-8
-8
-9
-11
-12
-13
-14
-15
-16
-15
-14
-13
-13
-15
-16
-15
-14
-14
-14
-14
-14
-13
-12
-12
-11
-10
-11
-12
-10
-8
-8
-8
-8
-8
-8
-8
-6
-4
-5
-6
-4
-2
-4
-6
-5
-4
-3
-2
-3
-4
-3
-2
-2
-2
-2
-4
-7
-6
-3
-2
-3
-4
-4
-4
-6
-6
-6
-5
-4
-5
-6
-7
-8
-7
-6
-5
-4
-5
-6
-5
-4
-4
-4
-2
1
4
7
9
11
14
16
16
13
8
2
-4
-8
-11
-12
-12
-16
-21
-22
-23
-24
-24
-19
-16
-19
-22
-17
-12
-11
-10
-8
-6
-4
-2
-2
-2
-1
0
2
4
4
4
4
8
17
22
23
18
8
-9
-29
-63
-102
-155
-214
-274
-334
-394
-455
-405
-340
-279
-219
-154
-91
-60
-31
-9
10
14
18
19
20
23
26
23
22
29
33
28
25
29
32
32
32
33
34
33
33
35
36
36
38
42
40
34
33
35
36
37
39
41
40
37
36
38
38
38
42
46
45
44
42
41
47
52
51
50
53
56
55
54
56
58
56
55
60
63
65
66
67
70
74
72
66
67
72
70
64
62
63
57
47
44
41
39
40
30
24
21
18
10
2
3
4
1
-2
-4
-6
-6
-5
-2
-1
-5
-8
-6
-5
-10
-10
-6
-4
-4
-4
-4
-4
-5
-5
-3
-3
-5
-5
-3
-4
-7
-6
-3
-2
-2
2
6
1
-4
-1
2
3
4
2
0
2
4
3
2
0
-1
2
4
3
1
-3
-4
0
1
-2
-4
-3
-2
-3
-2
1
0
-3
-4
-3
-3
-5
-5
-3
-2
-1
-4
-10
-7
-4
-5
-6
-4
-2
-2
-2
-3
-4
-3
-2
-2
-2
-2
-2
0
2
4
7
10
13
15
15
12
7
2
-4
-10
-12
-13
-15
-17
-19
-21
-22
-23
-21
-17
-18
-16
-17
-12
-9
-6
-7
-8
-8
-8
-6
-4
-3
-2
-3
-4
-6
-7
-3
2
7
10
9
6
2
-10
-28
-56
-90
-129
-171
-202
-229
-258
-287
-272
-245
-208
-169
-120
-70
-48
-29
-17
-6
1
8
10
12
15
18
19
20
20
20
18
17
21
24
25
26
25
24
24
24
25
26
27
28
27
26
27
28
29
30
31
32
32
32
32
33
35
36
37
38
36
37
38
38
38
41
44
43
42
43
45
49
52
52
52
53
54
56
59
63
66
67
68
68
68
67
66
67
68
67
63
58
53
47
46
45
39
33
27
21
17
20
11
10
7
4
2
0
-1
-2
-2
-2
-3
-4
-3
-2
-2
-2
-1
0
-1
-2
-2
-2
-2
-2
-1
0
-1
-2
-1
0
0
0
0
0
1
2
1
0
1
2
2
2
2
1
0
1
2
1
0
1
2
2
2
0
-2
0
2
1
0
1
2
1
0
1
2
2
2
1
0
0
0
1
2
2
2
2
2
2
2
2
2
2
2
2
3
4
3
2
3
4
3
2
4
6
7
9
14
18
18
19
23
26
24
19
12
6
1
-3
-5
-6
-6
-8
-12
-16
-19
-17
-11
-10
-10
-10
-11
-6
1
1
2
0
2
3
4
5
6
6
6
4
2
5
9
14
19
23
25
22
15
3
-13
-34
-71
-124
-184
-248
-308
-366
-426
-487
-461
-396
-331
-266
-201
-136
-79
-24
-4
12
16
19
26
32
33
34
33
32
33
34
36
38
38
38
39
40
36
34
36
40
45
46
41
38
39
40
41
44
48
50
49
48
48
49
51
52
52
52
51
50
51
53
55
56
56
57
58
57
56
59
62
66
70
68
66
69
73
77
81
84
86
84
82
84
86
85
83
81
79
77
72
65
63
65
63
58
49
40
32
24
21
19
15
11
8
10
0
-4
-3
-2
-1
0
-3
-6
-6
-6
-5
-4
-6
-8
-7
-6
-8
-10
-9
-8
-7
-6
-5
-5
-7
-7
-4
-4
-7
-6
-2
-1
-3
-4
-5
-5
-3
-2
-2
-1
1
-2
-6
-2
2
-4
-10
-2
3
-3
-8
-4
0
-1
-2
-4
-6
-7
-8
-8
-8
-7
-6
-7
-8
-7
-7
-10
-11
-9
-9
-11
-11
-9
-10
-13
-12
-9
-10
-13
-13
-11
-10
-12
-13
-14
-14
-14
-14
-14
-11
-8
-8
-8
-6
-4
-3
-1
3
6
6
6
5
0
-11
-17
-19
-20
-21
-22
-23
-25
-27
-28
-28
-28
-28
-28
-29
-26
-21
-20
-19
-19
-18
-17
-12
-13
-14
-14
-14
-14
-14
-13
-12
-14
-14
-7
-2
-1
-1
-7
-19
-42
-71
-109
-147
-185
-213
-234
-256
-281
-271
-241
-207
-170
-125
-78
-56
-41
-32
-23
-13
-3
-2
-2
-3
-4
0
4
5
6
3
0
1
2
4
6
6
6
6
6
5
4
5
6
7
8
7
6
7
8
9
10
11
12
12
12
11
12
15
16
15
14
14
14
14
16
20
20
20
20
20
20
20
23
26
27
28
30
32
34
36
38
40
40
40
40
40
40
40
40
39
37
33
28
24
21
18
13
9
3
0
-3
-5
-7
-9
-11
-12
-12
-16
-18
-21
-24
-21
-18
-19
-20
-19
-18
-19
-20
-19
-18
-17
-16
-17
-18
-18
-18
-17
-16
-16
-16
-15
-14
-14
-14
-14
-14
-15
-16
-15
-14
-14
-14
-14
-14
-13
-12
-12
-12
-12
-13
-14
-14
-14
-14
-14
-14
-14
-14
-14
-13
-12
-13
-14
-14
-14
-15
-16
-15
-14
-13
-12
-12
-12
-13
-14
-13
-12
-12
-12
-13
-14
-13
-12
-12
-12
-11
-10
-11
-12
-12
-13
-14
-9
-4
-8
-12
-11
-10
-10
-10
-7
-4
-3
-2
-1
1
5
8
10
11
8
2
-6
-11
-13
-14
-15
-17
-19
-22
-27
-28
-29
-26
-19
-21
-25
-23
-19
-16
-18
-12
-12
-11
-10
-10
-10
-9
-8
-6
-4
-5
-6
-5
-2
6
12
12
10
4
-8
-27
-55
-91
-141
-202
-265
-331
-397
-462
-442
-385
-322
-257
-192
-127
-86
-50
-26
-2
5
11
14
16
16
16
17
18
22
26
26
26
25
24
26
28
32
33
29
26
26
27
30
32
33
34
34
34
34
34
35
37
39
39
37
36
36
36
37
43
49
47
43
42
44
47
50
51
52
52
52
55
58
60
62
65
68
70
72
72
73
77
80
82
84
84
84
83
82
83
82
78
72
66
63
61
54
46
41
37
32
27
22
17
15
16
9
6
2
-2
-1
0
-2
-4
-5
-6
-6
-6
-6
-6
-5
-4
-4
-4
-5
-6
-3
-2
-2
-2
-2
-2
-3
-4
-3
-1
1
0
-3
-4
-4
-4
-4
-1
3
4
4
3
2
2
2
4
6
4
2
2
2
2
2
1
0
-1
-2
0
2
2
2
3
4
3
2
3
3
1
0
-1
-2
-2
-2
-2
-2
-2
-2
-2
-2
-2
-1
1
1
-2
-2
-2
-3
-4
-1
2
3
4
3
2
4
7
11
14
14
14
15
12
3
-3
-6
-9
-12
-16
-20
-21
-19
-19
-21
-21
-19
-20
-23
-21
-17
-12
-7
-9
-13
-11
-14
-5
-4
-6
-8
-7
-6
-7
-8
-7
-5
1
7
11
11
1
-10
-24
-48
-88
-129
-171
-202
-223
-248
-276
-282
-270
-234
-183
-140
-99
-65
-33
-19
-10
-6
-3
-1
1
7
13
15
16
13
10
11
12
13
14
13
12
12
12
11
11
15
18
18
18
16
14
16
18
18
19
21
21
18
17
19
20
19
19
21
22
21
20
20
21
23
23
21
21
24
24
24
26
28
29
30
32
34
34
34
36
38
39
40
42
44
45
46
46
46
43
42
41
38
34
31
28
24
20
16
11
6
0
-2
-3
-5
-7
-9
-11
-12
-12
-14
-14
-13
-12
-14
-16
-14
-12
-13
-14
-14
-14
-14
-14
-13
-12
-12
-12
-11
-10
-10
-10
-11
-12
-11
-10
-9
-8
-9
-10
-9
-8
-8
-8
-9
-9
-7
-6
-7
-8
-8
-8
-8
-7
-6
-7
-8
-8
-8
-9
-10
-8
-6
-7
-8
-9
-10
-8
-6
-5
-4
-5
-6
-7
-8
-7
-6
-5
-4
-4
-4
-4
-4
-4
-4
-3
-2
-3
-4
-5
-5
-3
-2
0
-1
-2
-3
-4
-2
0
0
0
-1
-2
0
3
7
11
15
18
17
16
15
14
11
7
1
-5
-11
-13
-11
-11
-13
-15
-17
-18
-19
-19
-17
-16
-17
-12
-5
-4
-4
-5
-4
-2
0
1
2
1
0
-1
-2
0
3
9
14
16
18
17
12
0
-17
-40
-76
-123
-179
-241
-302
-361
-416
-468
-439
-374
-309
-244
-179
-114
-69
-29
-10
6
14
21
25
28
28
28
27
26
27
28
32
36
35
34
35
36
36
36
35
34
36
38
37
37
39
40
40
40
41
42
42
42
42
42
43
44
44
45
47
48
48
48
49
50
52
54
56
56
56
57
58
60
62
64
66
69
72
73
75
78
80
82
84
84
84
87
88
87
86
85
81
76
72
68
61
52
48
45
39
32
28
25
20
15
13
14
6
2
2
2
0
-2
-3
-4
-4
-4
-3
-2
-4
-6
-5
-4
-4
-4
-5
-6
-5
-4
-4
-4
-4
-3
-1
-1
-3
-2
1
-1
-5
-5
-3
0
3
2
-1
-2
-1
2
4
3
2
5
8
5
2
-1
-4
0
4
2
0
1
0
-6
-8
-2
2
2
2
3
1
-5
-6
-2
1
3
2
-2
-4
-3
-2
-1
0
0
-1
-3
-4
-4
-3
0
1
2
-4
-10
-5
0
1
2
2
3
8
12
9
8
14
18
18
14
4
-4
-9
-11
-9
-11
-17
-20
-21
-24
-27
-26
-21
-19
-17
-16
-16
-13
-9
-8
-7
-6
-6
-6
-4
-5
-6
-5
-4
-8
-11
-5
1
6
10
12
11
1
-13
-34
-63
-104
-147
-192
-222
-240
-265
-296
-280
-234
-200
-173
-125
-69
-44
-29
-19
-10
-4
1
2
3
9
15
12
8
11
14
13
12
12
12
14
16
17
18
16
14
13
12
14
16
15
14
14
15
17
18
17
16
16
16
16
16
17
18
19
20
19
18
19
20
20
20
20
20
22
23
24
26
28
28
28
28
28
32
36
37
38
40
42
41
40
42
44
46
47
44
41
38
35
32
29
26
22
18
13
8
3
-1
-3
-5
-8
-11
-12
-13
-14
-14
-16
-16
-16
-16
-16
-16
-17
-18
-16
-14
-15
-16
-17
-18
-17
-16
-14
-12
-13
-14
-15
-16
-15
-13
-11
-11
-13
-14
-14
-13
-11
-10
-9
-8
-8
-9
-11
-11
-9
-8
-8
-8
-8
-9
-10
-10
-10
-8
-6
-8
-10
-10
-10
-9
-8
-6
-5
-8
-10
-9
-8
-7
-6
-6
-6
-6
-6
-7
-7
-5
-4
-4
-4
-4
-4
-5
-6
-5
-4
-3
-3
-5
-6
-4
-4
-4
-2
0
-2
-4
-2
0
1
2
4
6
9
13
16
18
18
17
14
9
0
-5
-8
-10
-11
-12
-13
-16
-19
-21
-23
-20
-14
-15
-19
-15
-9
-6
-3
-2
-2
-4
-4
-1
2
2
2
0
-2
-1
0
5
9
15
20
18
15
11
2
-15
-43
-85
-136
-194
-253
-314
-376
-438
-429
-381
-322
-258
-194
-129
-85
-46
-21
1
9
15
20
25
28
30
28
26
28
30
33
36
34
32
33
34
34
34
36
38
40
42
40
38
38
39
41
42
42
42
42
42
42
42
43
46
49
50
49
48
47
47
49
52
55
56
54
54
54
58
62
63
64
65
66
69
72
75
78
81
84
85
86
87
88
90
92
91
89
87
84
80
77
74
70
67
61
54
48
42
38
35
29
23
20
17
14
16
10
10
9
8
7
6
2
-2
0
2
2
1
-3
-6
-4
-2
-1
1
4
4
-1
-2
3
6
5
4
3
2
1
1
3
3
1
2
5
6
6
6
6
7
9
9
8
9
10
10
10
6
2
1
1
6
10
7
4
3
3
7
10
8
6
7
7
5
4
4
4
4
4
5
6
7
6
3
4
7
6
3
2
2
2
2
4
8
5
2
2
2
5
8
10
12
15
18
19
20
21
22
22
19
10
2
-4
-8
-7
-6
-6
-9
-15
-19
-21
-17
-9
-7
-9
-8
-5
-6
-9
-6
-1
1
3
4
4
0
-2
1
4
3
2
5
8
11
14
17
18
10
-3
-24
-54
-99
-141
-176
-206
-227
-251
-278
-265
-218
-189
-169
-120
-56
-30
-21
-12
-4
4
12
15
17
18
18
18
18
21
24
24
24
22
20
20
20
21
22
24
26
24
22
22
23
26
28
27
26
25
24
24
25
27
28
28
28
27
26
27
28
29
31
33
33
31
30
31
32
33
34
34
35
36
38
40
41
42
44
46
48
50
51
52
54
56
55
54
54
54
54
53
50
46
42
39
36
33
30
24
18
14
11
8
5
2
-1
-2
-3
-4
-5
-6
-6
-5
-6
-6
-6
-7
-8
-7
-6
-6
-6
-6
-6
-6
-6
-4
-2
-3
-4
-4
-4
-3
-2
-2
-2
-2
-2
-1
0
0
0
0
0
0
0
-1
-1
1
2
1
0
1
1
0
0
0
0
0
1
2
0
-2
-1
0
1
2
2
2
2
2
1
0
2
3
1
0
1
2
2
2
3
3
1
0
0
0
1
2
3
3
1
0
0
1
4
3
2
3
4
3
2
7
12
15
18
20
22
21
19
16
12
7
2
-3
-6
-9
-10
-10
-11
-13
-16
-20
-20
-16
-14
-15
-13
-9
-6
-3
-3
-5
-4
-1
1
0
2
0
0
0
1
2
5
9
15
20
19
17
13
5
-13
-38
-78
-126
-183
-244
-310
-374
-436
-432
-375
-314
-252
-188
-123
-79
-43
-20
0
8
13
19
25
26
27
27
25
25
26
28
30
30
30
32
34
34
34
34
34
34
34
35
36
34
33
36
38
37
37
39
40
40
40
41
42
42
42
42
42
43
44
45
46
45
45
47
49
51
52
54
55
56
59
62
65
68
68
68
71
74
76
78
79
80
81
82
81
80
80
80
79
75
69
64
60
57
54
47
39
31
24
20
17
14
11
6
1
-1
-3
-4
-4
-5
-4
-8
-12
-12
-12
-11
-10
-8
-6
-9
-12
-12
-12
-11
-10
-10
-10
-10
-10
-10
-10
-9
-8
-7
-7
-9
-8
-5
-4
-4
-4
-3
-2
-1
0
-1
-1
1
2
2
1
0
1
2
2
2
1
0
1
2
1
0
0
0
1
2
1
0
-2
-4
-3
-1
1
1
-2
-4
-4
-4
-3
-2
-2
-2
-2
-3
-5
-5
-3
-2
-1
0
0
0
2
7
12
14
16
14
12
11
9
3
-2
-5
-8
-11
-14
-15
-17
-20
-22
-20
-18
-17
-16
-16
-15
-12
-9
-6
-6
-9
-8
-5
-3
-1
0
1
0
-3
-3
-1
0
0
9
16
16
16
13
8
-13
-37
-74
-116
-168
-221
-275
-329
-381
-404
-376
-335
-273
-210
-145
-93
-52
-24
-6
3
5
10
17
21
23
22
19
21
25
26
25
24
25
25
23
24
26
28
30
29
28
31
34
33
32
30
28
27
27
31
34
33
32
31
30
31
32
33
34
35
36
35
35
37
38
38
38
37
37
39
40
41
44
47
50
53
54
52
53
54
59
64
63
62
61
60
61
61
57
54
55
54
47
42
41
38
32
25
18
14
13
10
4
0
-4
-8
-11
-13
-15
-16
-15
-14
-13
-12
-13
-14
-13
-13
-12
-16
-16
-17
-18
-19
-20
-16
-12
-11
-10
-12
-14
-12
-10
-11
-12
-13
-14
-13
-11
-8
-6
-7
-8
-7
-5
-3
-6
-13
-13
-8
-7
-9
-10
-11
-8
-3
-3
-5
-6
-6
-8
-10
-9
-8
-9
-10
-10
-10
-11
-12
-10
-8
-9
-10
-12
-14
-12
-10
-10
-10
-12
-14
-14
-13
-11
-11
-13
-14
-13
-12
-12
-11
-9
-9
-11
-12
-11
-8
-5
-2
1
2
4
5
6
4
2
-4
-10
-15
-20
-22
-24
-25
-26
-28
-31
-34
-34
-29
-27
-30
-29
-22
-18
-18
-19
-21
-19
-14
-12
-12
-12
-13
-14
-15
-15
-13
-12
-11
-6
-1
-1
0
-6
-9
-30
-53
-94
-135
-176
-213
-231
-251
-273
-279
-237
-201
-179
-142
-83
-45
-37
-28
-17
-10
-5
0
6
9
11
11
9
9
11
13
15
16
16
16
16
16
15
16
19
21
22
21
20
19
18
20
22
22
22
24
26
24
22
26
28
28
28
28
28
27
27
30
33
35
36
36
36
35
36
40
42
42
42
43
44
45
49
53
55
57
58
58
60
62
62
62
61
60
58
56
52
48
46
43
39
34
28
22
17
13
10
7
4
0
-4
-6
-7
-8
-7
-7
-9
-10
-10
-10
-9
-8
-8
-8
-9
-10
-9
-8
-8
-8
-8
-7
-6
-7
-8
-8
-8
-6
-4
-5
-6
-5
-4
-4
-4
-5
-6
-6
-6
-3
-2
-3
-4
-5
-6
-5
-4
-4
-4
-5
-6
-6
-6
-6
-6
-6
-6
-5
-4
-5
-6
-6
-5
-4
-5
-6
-7
-8
-6
-4
-5
-6
-6
-6
-5
-4
-5
-6
-4
-2
-4
-6
-6
-6
-5
-4
-3
-2
-2
-2
-2
0
3
6
9
11
13
14
14
14
14
8
0
-4
-8
-10
-12
-13
-14
-16
-18
-22
-25
-21
-18
-20
-21
-16
-11
-8
-6
-8
-9
-4
-2
-1
0
-1
-2
-3
-4
-3
0
3
6
9
13
17
16
13
1
-11
-38
-12
-121
-176
-240
-303
-362
-418
-450
-464
-399
-334
-269
-204
-139
-80
-34
-2
4
11
19
24
27
28
27
26
27
28
29
32
35
35
33
32
32
33
35
37
39
39
37
37
39
40
40
42
44
44
44
42
40
42
44
46
48
47
46
46
47
52
55
52
50
51
54
58
60
61
64
68
70
69
69
71
75
79
80
81
82
83
84
85
89
93
93
90
86
82
85
88
81
74
71
67
59
51
45
40
37
32
26
20
15
11
8
6
5
4
3
2
1
0
0
-2
-6
-5
0
0
-3
-4
-3
-3
-5
-5
-3
-2
-2
-4
-4
-2
0
-1
-2
0
2
1
0
0
0
2
4
2
1
4
6
4
2
3
4
4
4
4
4
4
2
-1
0
3
3
1
1
3
3
1
0
-1
-2
-2
-1
0
0
0
-1
-2
0
2
0
-2
-4
-6
-7
-8
-6
-4
-2
0
0
0
-2
-4
-4
-4
-5
-5
-3
-2
-1
0
1
3
5
10
15
16
17
14
9
1
-7
-13
-20
-18
-16
-21
-26
-26
-26
-27
-27
-22
-19
-23
-24
-15
-8
-10
-12
-12
-12
-12
-12
-11
-12
-16
-17
-14
-9
-4
-4
-7
-2
7
9
7
-4
-18
-43
-71
-113
-157
-192
-160
-244
-262
-279
-288
-223
-166
-153
-131
-71
-24
-29
-29
-15
-5
0
4
5
6
5
4
5
6
7
8
8
8
8
8
9
10
10
10
10
10
9
9
11
12
13
13
11
10
10
12
14
15
16
15
14
14
14
16
18
18
18
18
18
17
17
20
22
23
24
24
24
24
25
28
31
35
36
36
36
37
39
41
42
43
43
41
40
39
38
38
35
32
28
24
19
14
11
8
5
1
-4
-8
-11
-14
-14
-14
-13
-13
-16
-18
-19
-20
-19
-18
-17
-16
-17
-18
-19
-19
-17
-15
-13
-13
-15
-16
-17
-17
-15
-14
-14
-13
-14
-14
-14
-13
-12
-11
-10
-10
-10
-11
-12
-11
-10
-9
-8
-9
-10
-10
-10
-9
-8
-8
-8
-9
-10
-11
-11
-9
-8
-9
-11
-13
-12
-9
-8
-9
-10
-9
-9
-11
-10
-8
-8
-8
-8
-8
-8
-8
-9
-10
-9
-8
-7
-6
-6
-6
-6
-6
-5
-4
-5
-6
-6
-6
-5
-3
-1
1
3
5
7
11
15
16
15
11
7
0
-7
-9
-11
-12
-12
-14
-16
-20
-24
-23
-22
-20
-18
-20
-21
-14
-8
-8
-8
-9
-9
-6
-4
-3
-2
-2
-2
-3
-4
-3
0
4
10
16
18
17
10
2
-12
-27
-66
-108
-162
-217
-280
-220
-406
-464
-417
-368
-303
-238
-173
-112
-69
-32
-12
4
11
17
22
26
27
28
27
26
26
27
30
32
32
32
33
34
33
33
35
36
37
38
37
36
35
39
45
45
43
42
42
41
40
42
44
46
48
48
48
47
46
49
52
54
56
56
56
56
57
60
62
63
65
67
67
65
69
77
80
81
82
83
85
87
88
89
90
91
90
87
85
82
81
80
74
68
62
55
45
36
35
33
27
21
17
13
9
6
7
8
6
4
3
1
-1
-1
2
4
3
2
2
0
-3
-1
3
4
4
3
1
1
3
4
4
3
0
3
6
5
4
7
10
8
6
11
14
14
13
10
9
12
14
12
10
9
8
9
10
11
12
12
11
9
8
9
10
9
8
8
8
8
8
9
8
5
7
10
10
10
7
4
2
0
6
10
8
6
7
8
8
8
9
9
6
6
12
16
16
18
22
24
24
24
24
21
16
10
4
1
-1
-3
-5
-8
-11
-14
-17
-12
-4
-10
-16
-12
-8
-1
6
3
0
2
4
6
8
8
7
3
0
2
4
3
5
12
16
17
19
22
11
-10
-35
-62
-106
-158
-188
-211
-243
-277
-288
-295
-238
-173
-141
-169
-63
-18
-13
-8
0
9
16
22
21
20
22
24
22
20
22
24
25
26
25
24
24
25
27
29
31
31
29
28
27
26
26
27
29
30
31
30
27
29
33
34
33
34
36
34
32
33
34
35
36
36
36
35
34
35
36
36
36
38
40
42
44
45
47
49
51
53
54
53
52
52
52
53
54
54
51
47
44
41
39
37
32
27
23
18
13
8
6
4
3
2
-1
-4
-5
-6
-6
-6
-6
-6
-6
-6
-6
-6
-5
-4
-1
-1
-3
-4
-5
-5
-3
-2
-3
-4
-4
-4
-4
-4
-3
-2
-2
-2
-2
-2
-2
-2
-2
-1
0
0
0
0
0
0
0
0
0
0
0
0
0
0
0
0
0
1
2
1
0
-1
-2
-1
0
1
2
2
2
2
2
2
2
3
4
3
2
2
2
2
3
4
4
4
2
0
2
4
5
6
4
2
2
3
6
8
10
13
16
18
19
20
21
22
22
17
7
1
-4
-6
-5
-4
-5
-10
-15
-17
-19
-15
-9
-9
-12
-10
-8
-6
-4
-3
-2
0
2
2
2
2
2
2
2
4
6
6
8
14
18
21
20
16
3
-16
-45
-78
-124
-175
-234
-297
-355
-413
-417
-408
-351
-286
-221
-156
-101
-152
-26
-6
4
14
19
24
26
28
27
26
29
32
31
30
31
32
33
34
34
34
37
37
35
34
35
36
37
38
39
40
39
39
41
42
42
42
43
44
43
43
45
46
46
47
48
49
50
50
50
51
52
53
55
59
62
61
61
64
67
70
72
74
77
79
80
81
82
83
84
85
86
85
81
77
75
73
69
65
59
53
46
39
35
30
25
20
16
12
9
6
4
2
1
0
-1
-2
-3
-4
-4
-4
-5
-6
-5
-5
-10
-11
-8
-6
-5
-4
-3
-4
-7
-6
-1
0
0
0
0
-1
-3
0
5
6
6
5
4
5
6
8
10
7
4
3
2
3
4
6
8
8
8
7
6
6
6
6
7
9
8
2
0
0
1
3
4
4
5
7
5
1
2
5
6
5
4
3
1
0
2
4
1
-2
2
6
6
7
12
16
16
17
22
26
24
20
12
7
3
-2
-7
-10
-10
-10
-11
-15
-22
-21
-16
-16
-19
-16
-10
-7
-5
-4
-3
-2
-1
0
-2
0
2
-3
-8
-3
2
1
2
12
20
21
22
20
13
-5
-29
-62
-103
-151
-189
-218
-247
-275
-298
-317
-284
-219
-174
-138
-90
-37
-23
-21
-8
7
10
11
15
19
20
20
22
22
22
22
22
22
22
22
23
24
22
20
22
24
23
22
23
24
24
24
23
23
26
27
25
25
28
28
25
25
27
28
29
30
29
28
29
32
35
34
31
31
32
33
34
36
38
40
42
43
44
43
42
44
46
50
52
51
50
50
50
50
50
50
48
43
39
36
33
29
26
22
16
10
4
-1
-2
-2
-3
-5
-8
-11
-12
-14
-13
-12
-11
-10
-11
-12
-13
-14
-12
-10
-9
-8
-9
-10
-11
-12
-11
-10
-8
-6
-9
-10
-10
-9
-6
-4
-4
-4
-5
-6
-7
-8
-7
-6
-6
-6
-6
-6
-6
-6
-6
-4
-4
-6
-8
-7
-6
-5
-4
-4
-4
-4
-4
-4
-4
-5
-6
-5
-4
-5
-6
-5
-4
-3
-2
-1
0
-1
-2
-2
-2
-2
-2
-2
-2
-1
0
0
0
0
0
0
2
4
2
0
2
4
7
10
12
14
17
20
20
19
15
10
4
-2
-7
-10
-9
-9
-12
-14
-15
-16
-17
-17
-15
-14
-15
-12
-6
-4
-3
-2
-3
-2
1
2
2
2
2
2
2
3
4
7
10
17
22
20
17
10
-2
-22
-50
-91
-138
-195
-254
-316
-373
-425
-416
-351
-292
-239
-178
-113
-72
-43
-21
-1
7
13
18
25
27
29
29
27
26
26
29
30
32
34
33
32
32
32
33
34
36
38
37
36
34
33
36
38
39
40
39
38
37
37
40
42
42
42
43
42
39
41
45
47
49
50
49
48
49
51
53
55
56
57
58
61
64
66
68
71
74
75
76
78
80
80
80
80
79
76
74
72
68
64
61
58
52
45
39
34
28
22
18
15
11
7
5
3
0
-3
-4
-5
-6
-6
-8
-10
-10
-10
-9
-8
-9
-10
-10
-10
-10
-10
-9
-8
-10
-11
-8
-7
-10
-11
-8
-7
-10
-10
-4
-3
-5
-6
-7
-6
-1
0
0
1
3
3
1
1
3
4
4
2
2
2
2
2
2
-1
-4
-3
-1
4
8
5
2
0
-2
-2
-2
-1
1
4
4
0
-2
-3
-4
-3
-1
1
0
-3
-4
-3
-2
-1
2
5
6
5
4
4
7
10
13
16
18
20
16
12
6
2
-1
-5
-13
-18
-16
-15
-18
-20
-22
-23
-19
-16
-17
-16
-12
-7
-2
-3
-8
-10
-10
-7
-3
-2
-3
-1
3
1
-3
-2
1
7
14
16
18
13
6
-12
-33
-69
-106
-148
-188
-223
-259
-297
-320
-314
-288
-229
-172
-117
-74
-43
-23
-13
-5
1
8
15
18
18
19
21
20
17
20
25
22
17
18
21
22
22
23
26
24
22
25
28
27
26
25
24
24
24
21
19
23
27
30
31
28
26
27
29
32
34
33
31
28
27
29
30
31
33
35
35
33
35
39
42
45
45
43
43
44
48
52
54
56
54
52
51
50
51
52
51
49
44
39
35
32
30
26
21
16
11
6
1
-2
-3
-5
-7
-8
-9
-12
-15
-15
-13
-12
-13
-14
-14
-14
-14
-14
-12
-11
-10
-11
-12
-14
-16
-14
-12
-11
-10
-11
-12
-12
-12
-11
-10
-9
-8
-7
-7
-10
-11
-9
-7
-5
-5
-7
-8
-9
-8
-5
-4
-5
-6
-7
-8
-9
-10
-9
-8
-8
-7
-8
-9
-10
-8
-6
-6
-6
-8
-10
-9
-8
-8
-8
-7
-6
-7
-8
-7
-6
-6
-6
-5
-5
-7
-8
-7
-5
-3
-3
-5
-6
-6
-6
-5
-4
-3
0
3
4
5
10
14
15
16
14
12
6
0
-6
-10
-11
-12
-13
-14
-18
-21
-24
-24
-19
-16
-18
-19
-16
-12
-8
-7
-9
-9
-7
-5
-3
-2
-2
-2
-3
-4
-4
-3
-1
6
13
14
14
12
9
-7
-25
-59
-95
-146
-197
-254
-312
-368
-407
-401
-374
-309
-244
-179
-122
-75
-40
-17
-3
4
10
16
19
21
22
22
22
23
24
24
24
25
26
27
28
28
28
28
30
32
32
32
31
30
31
32
33
34
33
32
34
36
36
36
38
40
39
38
38
38
39
41
44
46
45
44
44
45
47
51
55
56
55
56
59
60
61
67
73
73
72
73
74
76
78
76
74
73
72
69
66
63
60
58
53
44
36
31
27
23
19
16
12
7
3
0
-2
-2
-4
-7
-8
-8
-9
-11
-12
-11
-9
-7
-7
-9
-10
-10
-9
-8
-8
-8
-9
-10
-10
-10
-8
-6
-7
-8
-7
-6
-5
-4
-6
-7
-3
0
-1
-2
-2
-2
-1
0
1
2
1
0
0
0
1
2
3
3
1
0
0
1
0
3
2
-1
-4
-2
0
1
2
2
2
1
0
0
0
0
0
-1
-2
-1
0
-3
-3
-1
0
0
0
0
3
8
11
13
16
19
20
19
16
13
6
-1
-4
-7
-8
-8
-11
-14
-18
-22
-22
-22
-16
-12
-15
-17
-12
-8
-8
-8
-6
-4
-6
-8
-6
-3
-1
1
3
3
0
1
6
12
18
20
21
16
8
-9
-27
-63
-101
-157
-216
-281
-347
-412
-471
-419
-365
-300
-235
-170
-110
-69
-33
-13
4
11
17
20
22
24
26
26
26
27
28
28
27
24
23
26
28
28
30
35
35
33
32
32
32
33
34
33
32
32
31
32
34
36
34
32
34
36
35
34
37
40
40
40
40
40
40
40
42
44
44
46
50
52
51
52
56
56
53
56
62
64
64
67
71
72
71
70
70
67
63
59
56
54
52
43
34
32
29
22
16
15
14
11
8
4
2
0
-3
-7
-11
-15
-16
-11
-8
-7
-6
-5
-6
-10
-11
-9
-7
-5
-8
-13
-11
-7
-6
-6
-6
-7
-10
-14
-8
-2
-5
-8
-6
-4
-3
-2
-2
-2
-2
-2
-2
-2
-3
-3
0
2
2
1
-2
-3
0
1
-2
-3
0
0
-4
-5
-3
-2
-2
-4
-7
-4
1
-2
-7
-8
-8
-4
-2
-5
-8
-7
-6
-5
-4
-7
-10
-7
-4
-6
-8
-7
-6
-5
-4
-3
-2
-2
0
4
7
9
11
14
16
16
11
3
-4
-10
-13
-15
-16
-16
-18
-21
-24
-27
-24
-20
-20
-20
-18
-16
-13
-10
-10
-10
-9
-8
-7
-6
-7
-8
-7
-6
-4
-2
-4
-5
-2
1
4
6
7
-3
-20
-46
-76
-115
-158
-191
-220
-247
-272
-274
-271
-218
-160
-129
-98
-62
-28
-26
-23
-9
4
7
10
11
12
10
9
13
16
17
18
17
16
17
18
19
21
23
23
21
20
20
20
21
23
25
26
26
26
25
24
25
28
31
31
32
29
30
30
30
33
36
35
34
34
34
36
38
40
42
42
42
43
45
49
52
53
54
55
57
59
60
61
62
62
62
62
60
57
56
55
53
51
44
37
33
29
23
18
15
12
9
6
3
0
-1
-2
-1
0
-3
-6
-6
-6
-5
-4
-4
-4
-5
-6
-6
-6
-5
-4
-4
-4
-4
-4
-4
-4
-3
-2
-2
-2
-3
-4
-4
-3
-1
0
0
-2
-4
-2
0
0
0
0
0
-1
-2
-3
-4
-2
0
0
0
-1
-2
-2
-2
1
2
1
-1
-3
-4
-3
-2
-2
-1
1
1
-1
-2
-1
0
-1
-1
1
2
2
0
0
1
2
3
4
3
2
5
8
10
13
17
20
20
20
19
16
11
6
-1
-4
-5
-7
-10
-12
-13
-16
-19
-18
-15
-14
-14
-14
-14
-9
-3
-3
-5
-5
-3
-1
0
1
2
3
4
3
2
2
2
6
11
17
22
20
15
6
-7
-24
-53
-97
-148
-206
-266
-330
-394
-460
-443
-378
-313
-248
-183
-118
-75
-39
-16
5
14
21
22
22
25
30
31
32
31
30
30
30
33
36
35
34
36
38
38
38
38
38
40
42
40
38
39
41
43
44
45
46
45
44
44
44
43
45
51
52
51
49
47
49
53
55
54
58
58
58
58
61
64
67
70
72
74
75
77
81
84
86
88
88
88
87
86
86
86
86
83
77
72
68
63
58
53
48
42
36
29
22
18
15
12
9
8
7
1
-4
-1
2
1
0
-1
-2
-4
-6
-3
0
-2
-4
-5
-6
-6
-6
-5
-4
-3
-3
-5
-5
-3
-2
-1
-1
-3
-3
-1
0
-1
2
7
8
8
5
1
0
1
4
8
2
-4
-1
2
0
-2
2
6
3
0
-1
-2
-2
-1
2
3
-1
-4
-3
-2
1
0
-4
-6
-7
-6
-2
-2
-6
-8
-7
-6
-7
-7
-5
-4
-3
-2
-3
-2
-4
7
12
13
14
12
10
7
3
-4
-10
-11
-12
-13
-14
-15
-17
-21
-24
-25
-26
-25
-25
-27
-24
-17
-14
-15
-16
-15
-12
-9
-8
-8
-8
-8
-8
-7
-6
-7
-8
-7
1
8
4
0
4
6
-17
-41
-75
-111
-156
-197
-226
-254
-280
-298
-298
-274
-215
-164
-124
-87
-51
-31
-25
-17
-8
-1
6
7
5
7
11
12
12
12
12
10
7
9
13
12
8
9
10
11
12
12
12
10
8
10
12
14
16
14
12
11
11
14
16
14
12
13
14
15
16
17
18
17
16
16
16
17
18
19
21
23
24
24
25
27
28
28
31
32
32
32
33
34
34
34
34
34
31
28
26
23
20
17
13
9
5
1
-4
-7
-10
-12
-13
-16
-20
-22
-23
-24
-24
-24
-24
-24
-25
-26
-25
-24
-24
-24
-23
-23
-24
-23
-22
-21
-20
-20
-20
-21
-22
-22
-22
-20
-18
-19
-20
-20
-20
-20
-20
-19
-18
-18
-18
-18
-18
-18
-18
-18
-18
-19
-20
-19
-18
-18
-18
-18
-18
-18
-18
-18
-18
-18
-19
-20
-20
-20
-18
-16
-16
-16
-16
-16
-16
-16
-16
-16
-15
-14
-14
-14
-13
-12
-12
-12
-12
-12
-13
-14
-13
-11
-9
-8
-7
-6
-5
-1
3
7
11
12
11
7
10
-5
-12
-15
-18
-18
-18
-21
-24
-27
-30
-28
-26
-24
-22
-23
-22
-16
-12
-12
-12
-12
-12
-11
-9
-7
-6
-6
-6
-6
-6
-7
-5
0
6
13
13
11
4
-3
-22
-41
-84
-127
-178
-230
-293
-354
-410
-445
-380
-318
-268
-213
-148
-94
-63
-35
-13
2
7
12
17
20
19
19
21
22
21
20
20
20
20
23
28
30
30
30
29
28
28
30
33
34
32
30
28
31
34
36
38
37
36
34
33
37
40
40
40
39
38
39
40
41
44
49
51
49
48
48
50
54
58
61
63
65
80
100
107
111
103
92
98
107
95
108
68
56
55
54
48
42
41
40
39
38
33
29
24
19
15
11
8
7
11
14
13
9
3
-1
-4
-6
-6
-6
-5
-6
-9
-9
-7
-6
-7
-8
-7
-6
-6
-6
-6
-2
2
0
-2
-1
0
-1
-2
1
4
3
2
2
2
4
6
7
8
7
6
7
8
8
8
9
10
10
10
9
8
8
10
13
13
11
9
7
7
9
10
9
8
10
9
8
8
8
8
8
8
8
7
6
8
10
11
13
16
18
19
21
25
28
27
24
19
14
10
5
0
-1
1
0
-5
-8
-11
-12
-13
-10
-5
-7
-11
-5
-12
6
8
8
8
6
4
7
10
11
12
12
12
11
10
10
13
24
30
28
25
22
12
-6
-35
-74
-121
-174
-224
-273
-326
-382
-387
-373
-319
-254
-189
-124
-77
-33
-9
13
18
22
24
26
30
34
31
28
34
38
38
38
37
36
35
34
32
31
35
38
38
38
39
39
36
35
38
40
41
41
39
38
37
40
46
43
37
38
41
42
43
44
44
46
48
47
46
48
50
50
50
50
50
51
52
55
60
66
69
66
64
63
62
63
66
70
70
66
64
65
65
63
61
59
54
48
43
39
33
27
22
17
15
16
7
2
2
2
2
1
-6
-12
-8
-4
-3
-3
-7
-10
-9
-7
-4
-2
-4
-5
-2
-1
-4
-6
-6
-5
-3
-2
-2
-2
-3
-2
1
1
-1
-2
-3
-2
1
2
1
2
4
2
0
1
2
1
0
0
0
2
4
3
2
2
2
2
2
1
0
-2
-4
-3
-2
-1
0
-1
-2
-2
-2
-3
-4
-5
-6
-6
-6
-6
-6
-5
-4
-5
-6
-4
-3
-2
-3
-4
-2
0
2
5
10
14
14
14
13
10
3
-3
-7
-11
-14
-16
-19
-20
-21
-22
-23
-22
-18
-18
-21
-19
-14
-12
-12
-12
-11
-10
-10
-9
-7
-6
-6
-5
-6
-6
-6
-5
-4
3
8
7
6
1
-8
-29
-56
-95
-134
-173
-207
-235
-264
-295
-286
-239
-206
-183
-136
-72
-46
-39
-26
-10
-2
4
9
13
14
14
14
15
16
17
18
18
18
18
20
22
23
24
23
22
24
26
27
28
27
26
26
26
26
27
30
32
31
30
30
30
31
33
35
35
33
32
33
34
35
37
39
40
40
40
40
43
48
49
50
50
50
51
52
55
58
62
66
65
64
61
58
60
62
60
56
51
47
42
39
37
33
27
21
16
11
6
3
1
-1
-3
-4
-5
-7
-9
-9
-7
-7
-6
-9
-8
-9
-10
-9
-8
-7
-6
-7
-8
-10
-12
-9
-6
-6
-6
-7
-8
-7
-6
-6
-6
-5
-4
-5
-6
-5
-4
-4
-4
-4
-4
-4
-4
-5
-5
-3
-2
-1
-1
-3
-6
-8
-5
-2
-2
-2
-3
-4
-6
-8
-4
0
-1
-2
-4
-6
-5
-4
-3
-2
-1
0
-1
-2
-3
-3
-1
0
-1
-2
-2
1
5
7
9
12
15
17
19
20
19
13
6
2
-2
-6
-10
-10
-10
-12
-14
-17
-20
-18
-16
-15
-14
-16
-16
-9
-4
-4
-4
-3
-2
-1
0
0
1
3
4
3
2
2
3
5
13
22
24
23
16
9
-7
8
-61
-100
-159
-218
-283
-349
-414
-460
-413
-362
-298
-234
-169
-111
-65
-28
-4
11
15
20
25
28
28
29
31
32
31
30
29
30
34
36
37
38
38
38
38
39
41
42
43
46
48
46
44
45
46
49
52
48
44
45
46
48
50
52
54
52
50
50
52
57
61
63
63
61
60
60
61
63
66
69
70
70
71
73
79
85
86
85
84
85
86
84
85
86
87
88
82
76
72
67
61
55
49
43
37
31
27
23
19
16
16
15
10
7
4
2
1
0
1
1
-1
-2
-2
-2
-1
0
-1
-2
-1
0
0
0
0
2
4
-1
-6
-1
4
2
0
3
6
5
4
6
8
7
6
5
4
5
6
9
9
6
5
8
10
9
8
9
7
2
2
5
6
7
6
3
5
9
8
5
6
8
4
0
-1
-2
-1
0
1
2
3
4
2
0
2
4
4
4
2
0
0
1
4
8
13
13
8
9
14
17
19
23
27
24
18
8
-2
-5
-7
-6
-3
-6
-12
-18
-24
-21
-18
-14
-10
-12
-13
-6
0
-1
-2
0
1
-2
-3
0
2
2
2
2
2
2
3
5
7
10
12
13
9
0
-18
-39
-78
-121
-157
-190
-211
-231
-252
-232
-225
-178
-162
-143
-82
-30
-27
-22
-11
-1
4
9
13
16
16
16
16
16
17
18
19
20
19
18
19
20
20
20
21
22
22
22
22
22
23
24
24
24
24
24
25
26
26
26
26
28
30
29
28
28
28
29
30
30
30
31
32
32
32
34
36
37
38
39
40
41
43
45
46
47
49
51
52
53
54
53
52
51
49
47
46
45
40
34
29
24
21
18
13
8
6
4
1
-2
-4
-6
-6
-6
-5
-4
-5
-6
-7
-8
-8
-8
-7
-6
-6
-6
-7
-7
-5
-4
-3
-3
-5
-6
-7
-8
-7
-5
-3
-2
-2
-4
-4
-3
-2
-1
0
-2
-4
-5
-6
-4
-2
0
1
-2
-4
-4
-4
-3
-2
-1
-1
-3
-4
-4
-4
-4
-2
1
0
-3
-4
-5
-5
-3
-2
-2
-2
-3
-4
-3
-1
0
0
0
0
0
-1
-2
0
2
1
0
1
2
2
3
7
10
12
14
16
18
17
15
13
9
3
-2
-6
-8
-8
-10
-13
-15
-17
-20
-23
-18
-11
-13
-17
-12
-4
-5
-6
-6
-6
-2
2
1
0
1
2
1
0
-1
-1
3
8
14
18
18
17
12
2
-15
-42
-78
-127
-185
-246
-310
-375
-440
-440
-419
-362
-297
-232
-167
-108
-49
-25
-46
7
16
19
22
25
28
26
24
26
28
29
30
30
30
31
32
32
32
32
32
35
35
33
33
35
36
37
38
38
39
41
42
42
42
41
40
40
42
45
46
46
48
50
50
50
51
52
54
56
56
56
58
60
63
66
67
69
72
74
74
76
81
84
85
86
85
84
84
83
81
79
77
73
68
63
59
53
45
40
35
29
23
19
14
12
10
4
-2
-3
-4
-4
-4
-5
-6
-8
-10
-9
-8
-7
-5
-1
-1
-8
-11
-8
-6
-5
-4
-5
-6
-5
-4
-3
-3
-5
-4
-1
0
1
2
1
2
5
5
6
0
-2
1
4
2
0
2
4
0
-4
-1
2
3
4
3
2
3
4
2
0
1
2
3
1
-5
-7
-5
-4
-3
-2
-3
-4
-4
-4
-4
-4
-3
-4
-7
-4
1
2
2
3
4
2
1
9
16
15
14
11
7
-1
-6
-10
-12
-14
-16
-17
-18
-20
-23
-26
-27
-24
-23
-26
-25
-20
-16
-13
-14
-17
-14
-9
-8
-7
-6
-5
-7
-11
-12
-14
-14
-14
-5
4
5
6
2
-4
-19
-38
-72
-109
-154
-194
-223
-253
-281
-300
-306
-279
-214
-169
-140
-99
-48
-28
-29
-22
-10
-3
2
4
4
4
5
9
13
8
1
4
0
11
12
11
10
8
6
9
12
12
12
11
10
10
10
8
7
13
15
12
10
10
11
14
16
15
14
13
12
13
14
15
16
17
19
21
22
23
23
21
21
23
25
26
27
28
30
32
32
32
32
32
34
36
37
38
34
31
28
25
22
19
15
10
6
1
-5
-9
-12
-14
-15
-16
-17
-20
-23
-24
-24
-24
-24
-24
-23
-24
-27
-26
-22
-22
-22
-21
-20
-21
-22
-21
-20
-20
-20
-20
-20
-20
-20
-19
-18
-17
-16
-17
-18
-18
-18
-17
-16
-16
-16
-16
-16
-16
-16
-15
-15
-17
-18
-17
-16
-16
-16
-16
-16
-16
-18
-18
-16
-14
-14
-14
-15
-16
-17
-18
-15
-12
-13
-14
-14
-14
-14
-14
-12
-10
-11
-12
-13
-13
-11
-10
-9
-8
-9
-10
-10
-10
-10
-6
-1
-1
-3
-4
-3
2
7
10
12
11
10
6
2
-3
-8
-11
-14
-15
-17
-21
-24
-25
-26
-24
-22
-21
-20
-21
-19
-12
-8
-8
-8
-9
-10
-9
-6
-3
-2
-2
-2
-3
-4
-5
-2
3
10
17
16
12
0
-13
-33
-57
-103
-150
-205
-262
-325
-385
-437
-455
-390
-325
-260
-195
-130
-79
-47
-21
-2
10
14
17
20
22
23
24
25
26
26
28
31
31
29
30
33
34
33
32
32
34
36
36
36
37
38
37
36
38
40
40
40
38
37
41
44
44
44
44
44
45
46
46
47
49
51
53
54
53
54
57
58
58
61
65
66
67
69
71
74
77
80
82
83
84
84
84
83
82
81
80
76
72
69
65
58
53
48
42
36
30
24
19
17
14
10
8
7
5
3
2
1
0
-1
-2
-3
-4
-3
-2
-2
-2
-3
-4
-2
-2
-2
-2
-2
-1
0
-1
-2
-1
0
0
0
1
2
3
4
4
4
6
7
4
3
6
8
7
6
7
8
7
6
7
8
7
6
6
6
6
7
9
9
10
4
2
3
4
3
2
4
6
6
6
5
4
5
6
6
6
6
6
5
5
10
13
16
18
17
20
27
29
27
24
21
13
3
0
-1
-3
-5
-8
-11
-12
-13
-13
-12
-9
-6
-11
-15
-7
0
-3
-6
-2
2
1
0
1
2
3
5
8
9
6
4
5
9
17
19
17
15
11
-6
-29
-63
-101
-144
-188
-235
-283
-329
-374
-343
-304
-252
-199
-134
-72
-49
-27
-9
6
11
16
16
17
21
23
19
18
25
29
25
22
24
25
20
19
22
25
27
27
25
24
25
27
29
30
29
28
27
26
26
26
27
29
28
31
30
31
32
32
32
31
30
33
36
34
33
38
40
34
32
38
43
46
47
44
43
45
47
50
53
55
56
55
54
54
54
54
53
51
50
50
45
39
34
29
24
20
18
16
8
0
1
2
-1
-4
-6
-9
-14
-18
-14
-12
-13
-14
-13
-12
-13
-14
-14
-14
-15
-17
-19
-17
-12
-11
-13
-13
-11
-12
-15
-14
-11
-10
-9
-9
-11
-12
-12
-13
-14
-12
-10
-11
-12
-10
-8
-8
-8
-9
-10
-11
-12
-12
-12
-12
-12
-11
-10
-10
-11
-13
-13
-10
-9
-12
-14
-14
-14
-13
-12
-12
-12
-12
-12
-11
-11
-13
-13
-14
-11
-12
-14
-16
-13
-10
-10
-10
-10
-10
-12
-13
-9
-6
-5
-4
-3
-2
-1
2
7
11
13
12
6
0
-7
-12
-16
-17
-15
-17
-22
-26
-29
-29
-27
-24
-21
-21
-23
-20
-16
-14
-12
-11
-10
-11
-12
-11
-10
-7
-4
-6
-8
-8
-8
-6
-2
4
8
9
7
0
-15
-35
-67
-106
-148
-192
-234
-276
-318
-359
-328
-275
-239
-207
-146
-81
-62
-47
-26
-4
3
10
13
16
17
18
18
18
20
22
23
24
23
22
24
26
27
28
28
28
28
29
31
32
33
34
33
32
32
32
33
34
34
34
35
36
35
36
39
40
40
41
42
41
40
42
44
46
48
47
46
49
52
52
52
54
56
58
60
62
64
65
67
69
70
69
68
67
66
67
64
58
54
51
47
43
37
31
27
23
18
13
9
6
4
2
0
-2
-4
-6
-5
-4
-5
-6
-7
-8
-8
-8
-7
-6
-5
-4
-5
-6
-5
-4
-4
-4
-5
-6
-6
-6
-5
-4
-4
-4
-4
-4
-3
-2
-2
-2
-2
-2
-4
-2
0
0
0
1
2
0
-2
-1
0
0
0
-2
-4
-5
-5
-2
0
-1
-2
1
1
-1
-2
-2
-2
-2
-2
-2
-2
-1
0
0
0
1
2
1
-1
-3
-3
-4
3
6
6
6
8
10
14
18
20
22
20
16
9
3
-1
-4
-6
-8
-8
-11
-18
-22
-22
-21
-18
-16
-16
-16
-17
-12
-3
0
-1
-2
-2
-2
-2
0
3
4
3
2
2
3
4
10
16
21
26
22
15
0
-18
-41
-74
-126
-179
-235
-292
-352
-408
-458
-452
-387
-322
-257
-192
-127
-74
-27
-5
5
11
16
19
21
23
25
26
25
24
25
26
28
29
30
33
36
31
26
29
32
31
30
32
34
34
33
30
28
30
32
33
34
33
32
33
35
38
40
39
38
37
36
36
36
37
41
45
44
41
41
43
47
44
51
50
53
56
56
56
59
62
64
66
65
64
61
59
62
64
62
57
50
44
39
34
29
26
25
20
13
8
4
1
-1
-3
-5
-8
-11
-12
-13
-16
-19
-17
-13
-14
-16
-15
-14
-14
-14
-16
-18
-15
-12
-15
-18
-18
-18
-16
-13
-10
-9
-13
-16
-15
-12
-8
-7
-9
-11
-14
-13
-8
-6
-5
-3
-1
0
-1
-4
-7
-8
-7
-8
-11
-9
-4
-4
-4
-8
-12
-9
-6
-8
-10
-7
-5
-9
-12
-12
-12
-12
-12
-11
-10
-8
-6
-9
-10
-9
-8
-9
-10
-10
-10
-11
-11
-9
-8
-7
-6
-6
-5
-3
-2
-1
2
0
7
8
9
10
4
-2
-9
-14
-17
-20
-19
-18
-21
-24
-26
-28
-26
-24
-23
-22
-21
-18
-14
-12
-13
-13
-10
-8
-9
-10
-10
-10
-9
-8
-7
-6
-6
-6
-5
1
7
7
6
-7
-21
-46
-73
-115
-155
-190
-223
-250
-273
-285
-274
-210
-163
-149
-118
-61
-30
-32
-26
-10
0
5
8
8
8
8
10
13
14
15
16
15
14
13
13
15
18
21
22
20
19
18
19
20
23
26
24
22
23
24
25
26
28
30
28
26
27
28
29
30
33
34
33
32
32
34
38
40
40
40
41
42
42
45
49
51
53
54
54
54
54
58
60
62
64
62
60
58
56
54
52
50
47
42
36
29
24
22
18
13
9
4
1
-2
-4
-3
-3
-5
-6
-7
-9
-11
-10
-7
-6
-6
-6
-6
-7
-9
-9
-7
-4
-2
-4
-6
-6
-6
-5
-4
-4
-4
-4
-4
-4
-4
-3
-2
-2
-2
-3
-4
-3
-2
-2
-2
-2
-2
-2
-2
-2
-2
-3
-4
-4
-4
-4
-4
-4
-4
-3
-2
-3
-4
-2
-3
-4
-4
-4
-4
-4
-3
-2
-2
-2
-3
-4
-4
-4
-3
-2
-2
-2
-3
-4
-3
-2
-1
1
4
6
7
10
14
16
17
18
17
10
2
-1
-3
-4
-5
-9
-6
-17
-20
-22
-24
-19
-14
-15
-16
-17
-17
-8
-2
-3
-4
-4
-4
-4
-4
-2
0
1
2
1
0
0
3
8
14
20
20
16
5
-9
-27
-46
-92
-142
-199
-258
-323
-388
-454
-516
-451
-386
-321
-256
-191
-127
-67
-17
-2
10
13
16
20
22
24
26
27
28
28
28
29
31
33
34
34
33
31
31
33
34
35
36
37
38
38
38
38
38
39
40
42
41
40
40
40
43
46
48
50
48
46
46
46
49
52
53
54
53
53
56
59
64
66
67
69
71
73
75
78
81
83
85
87
89
89
87
86
86
85
83
78
82
67
62
58
54
49
43
36
29
23
18
17
16
13
9
5
2
0
-2
-2
-2
-1
-1
-4
-6
-5
-4
-4
-4
-4
-5
-7
-9
-11
-6
2
1
-3
-4
-3
-1
1
0
-2
1
4
1
-2
-2
-2
-1
0
2
4
5
6
6
6
5
4
5
5
2
1
3
3
1
0
0
0
-1
-1
1
2
1
1
3
-1
-7
-6
-3
-2
-3
-4
-4
-4
-4
-3
-2
-3
-4
-3
-2
-3
-4
-5
-6
-3
1
5
8
8
8
10
12
11
12
17
15
6
-2
-9
-12
-13
-14
-14
-17
-23
-24
-25
-23
-19
-17
-15
-16
-14
-16
-12
-12
-12
-12
-12
-10
-8
-7
-6
-4
-3
-8
-12
-10
-6
0
6
11
13
10
1
-15
-32
-50
-90
-143
-183
-216
-241
-264
-288
-313
-267
-202
-175
-155
-96
-32
-29
-31
-19
-6
0
6
4
2
7
12
10
8
5
3
8
12
10
8
10
13
16
16
10
7
10
12
13
14
14
12
8
8
12
14
13
14
17
18
17
16
15
14
13
12
12
15
18
18
18
17
16
18
20
21
22
23
24
25
26
27
28
30
32
32
32
35
35
33
33
36
38
37
34
31
29
27
24
21
16
11
5
-1
-3
-5
-6
-6
-12
-16
-18
-20
-18
-16
-17
-18
-19
-20
-21
-22
-19
-16
-15
-15
-18
-20
-19
-18
-17
-16
-16
-16
-16
-16
-16
-15
-13
-12
-13
-14
-14
-14
-14
-14
-13
-12
-13
-14
-14
-14
-14
-15
-16
-15
-14
-15
-16
-15
-14
-15
-16
-15
-14
-15
-16
-15
-14
-15
-16
-15
-14
-14
-14
-15
-16
-15
-14
-14
-14
-13
-12
-12
-12
-12
-12
-12
-12
-11
-10
-11
-12
-12
-11
-10
-8
-6
-6
-6
-3
0
2
5
9
12
11
9
6
2
-5
-11
-14
-16
-17
-19
-21
-22
-23
-24
-25
-24
-20
-19
-21
-18
-12
-10
-9
-8
-8
-8
-7
-6
-6
-4
-4
-3
-2
-2
-2
1
5
11
16
16
14
6
-5
-23
-48
-87
-134
-191
-250
-312
-369
-422
-419
-370
-317
-262
-200
-135
-90
-54
-27
-3
5
9
13
17
19
21
22
23
26
28
26
24
26
28
28
28
29
30
29
28
30
32
34
36
35
34
34
34
36
38
38
38
37
37
39
40
40
42
45
46
45
44
43
44
47
48
49
50
49
51
56
56
56
59
62
63
64
66
68
70
73
77
80
80
80
80
80
81
82
81
78
73
69
66
62
58
53
48
42
35
29
24
19
15
11
7
5
3
1
-1
-1
-2
-1
-4
-4
-4
-6
-8
-7
-6
-5
-4
-5
-6
-6
-6
-5
-4
-4
-4
-4
-4
-4
-3
-1
0
0
0
0
0
1
2
1
1
3
4
3
2
2
2
3
4
4
3
2
3
4
3
2
3
4
4
4
3
2
3
4
2
0
2
4
3
2
1
0
1
2
2
2
1
-1
-3
-2
2
5
7
8
9
13
17
19
21
21
19
14
8
2
-4
-4
-4
-6
-8
-12
-16
-18
-20
-17
-14
-13
-12
-13
-12
-6
-2
-1
0
0
1
3
3
1
1
4
6
6
6
5
6
9
17
26
25
21
13
5
-18
4
-88
-134
-185
-237
-298
-358
-417
-454
-389
-324
-259
-194
-129
-74
-40
-13
3
15
22
26
26
26
26
27
29
31
33
33
31
30
31
33
35
36
37
37
35
34
35
36
35
36
38
33
28
32
36
36
36
39
42
42
42
42
42
40
39
44
46
41
38
39
43
49
51
49
47
45
47
52
54
55
57
59
62
65
66
67
69
71
72
72
72
70
69
68
64
60
61
62
55
50
46
41
37
33
29
23
14
8
6
4
5
5
2
0
-1
-3
-6
-5
1
2
-2
-6
-9
-10
-11
-8
-1
0
-1
-2
-2
-4
-2
-6
-4
-3
-2
-5
-8
-4
0
1
2
2
2
0
-2
0
2
2
2
2
2
5
6
5
4
4
4
5
6
7
5
0
-2
-2
-1
1
2
2
2
1
0
-1
-1
0
0
0
-2
-4
-4
-4
-4
-4
-2
0
-2
-4
-5
-6
-5
-4
-2
0
-1
-2
-3
-3
-1
1
3
4
5
8
11
14
17
19
21
16
8
-1
-9
-10
-10
-10
-12
-16
-20
-20
-20
-19
-18
-16
-14
-14
-13
-9
-6
-6
-6
-5
-4
-3
-2
-3
-4
-3
-1
1
2
1
1
3
7
12
14
13
0
-16
-45
-77
-117
-158
-189
-220
-257
-222
-298
-299
-234
-172
-140
-107
-66
-32
-26
-19
-2
10
13
16
17
18
18
18
20
22
25
26
25
24
25
26
27
29
31
31
29
28
29
31
33
34
33
32
32
32
33
35
36
37
38
37
36
37
38
40
42
40
38
41
44
45
46
48
50
50
50
51
53
55
56
57
59
62
64
65
66
67
69
71
72
72
72
71
70
69
65
61
58
54
51
48
43
38
32
26
22
18
15
12
10
8
5
2
1
0
0
0
0
0
-1
-2
-2
-2
-1
0
-1
-2
-3
-3
-1
0
0
-1
-3
-4
-3
-2
-1
0
0
2
2
0
-2
1
4
4
4
2
0
1
2
4
6
6
6
4
2
2
2
2
3
5
5
2
0
0
1
3
4
3
1
-1
-2
-1
0
1
2
3
3
1
1
2
3
4
3
2
2
2
2
2
3
4
4
4
5
7
12
16
17
18
20
22
22
20
16
11
5
1
-3
-4
-4
-6
-9
-12
-15
-16
-17
-16
-13
-12
-11
-9
-6
-3
0
-1
-2
0
2
2
2
2
2
3
4
4
4
6
11
19
23
20
17
14
3
-16
-45
-83
-138
-202
-268
-333
-399
-464
-441
-390
-328
-263
-198
-133
-83
-35
-13
-32
14
20
25
30
30
30
30
30
32
34
35
36
36
36
36
36
36
37
40
42
41
40
40
41
43
44
43
43
45
46
47
48
47
48
51
52
51
50
50
51
53
53
52
52
52
54
56
58
60
60
60
61
62
64
66
70
73
76
78
79
80
81
83
86
88
88
87
85
83
81
79
77
73
68
64
61
54
46
41
37
30
23
18
12
12
12
9
6
0
-6
-5
-4
-4
-4
-3
-2
-4
-6
-5
-4
-6
-7
-3
-1
-6
-8
-8
-7
-4
-2
-3
-4
-5
-5
-3
-2
-1
0
1
2
1
0
0
1
0
3
2
2
2
2
2
2
2
3
4
4
4
3
2
4
6
6
5
1
-2
-3
-4
-4
-4
-3
-1
1
1
-1
-2
-2
-1
1
-1
-5
-5
-3
-2
-3
-4
-5
-5
-4
-3
-2
-3
-4
0
4
2
1
9
16
13
11
16
19
16
12
4
-2
-7
-10
-10
-11
-13
-16
-20
-23
-27
-24
-18
-17
-19
-17
-13
-10
-7
-6
-6
-6
-7
-8
-6
-6
-6
-5
-4
-1
2
0
-2
2
6
8
10
9
3
-14
-35
-63
-98
-140
-178
-213
-244
-272
-290
-301
-266
-201
-160
-131
-88
-40
-28
-28
-16
-1
5
9
10
11
12
12
13
16
15
14
16
18
16
14
15
16
18
20
17
14
15
16
17
18
19
20
20
20
19
19
22
24
24
24
23
21
19
20
23
24
25
26
26
26
26
26
27
30
32
32
32
32
32
36
40
41
42
43
44
45
46
47
48
50
52
50
48
47
46
45
43
40
35
30
25
20
16
13
9
5
1
-3
-4
-5
-7
-9
-10
-11
-12
-14
-14
-14
-13
-12
-12
-12
-12
-12
-13
-14
-12
-10
-11
-12
-11
-10
-12
-14
-12
-10
-11
-11
-9
-8
-8
-8
-9
-10
-9
-8
-8
-8
-7
-6
-6
-6
-7
-8
-7
-6
-6
-7
-8
-7
-6
-6
-6
-6
-6
-6
-6
-7
-8
-9
-10
-9
-8
-9
-10
-9
-8
-7
-6
-6
-6
-6
-6
-7
-8
-7
-6
-6
-6
-6
-6
-6
-6
-5
-5
-7
-6
-3
0
2
6
10
12
14
12
10
11
11
4
-3
-9
-14
-14
-14
-15
-17
-21
-24
-25
-25
-22
-20
-21
-19
-13
-10
-9
-8
-9
-9
-7
-4
-1
-1
-3
-4
-5
-5
-3
-2
0
7
14
13
12
13
12
-7
-28
-60
-98
-155
-215
-280
-344
-403
-440
-442
-416
-351
-286
-221
-156
-91
-47
-17
-3
3
12
21
25
27
26
23
23
25
26
27
28
29
30
30
31
32
32
32
34
36
35
34
31
29
34
38
39
40
39
38
38
38
39
40
41
42
42
42
43
45
47
48
47
48
51
52
52
53
55
57
59
60
60
62
65
70
74
75
76
78
80
81
82
82
82
81
80
80
80
78
75
70
65
61
56
51
45
39
34
29
25
22
17
10
7
5
3
1
-1
-3
-4
-5
-6
-6
-6
-5
-4
-6
-6
-6
-5
-4
-2
0
-3
-6
-4
-2
-5
-8
-5
-2
-2
-2
-1
0
-2
-4
-1
0
-1
-2
-1
0
1
3
5
5
3
2
3
3
1
0
1
2
1
2
0
3
0
-1
-2
-1
0
0
0
2
4
-1
-4
-2
0
-1
-2
-3
-4
-3
-2
-1
-1
-4
-6
-7
-5
0
2
2
2
2
6
12
14
15
17
19
16
11
4
-3
-9
-14
-13
-12
-15
-18
-22
-26
-23
-20
-17
-14
-16
-17
-12
-8
-7
-6
-6
-6
-5
-5
-7
-8
-8
-6
-2
-2
-6
-7
-5
1
8
12
15
11
3
-15
-34
-73
-114
-155
-196
-222
-247
-276
-299
-270
-239
-202
-161
-106
-60
-43
-28
-19
-10
-1
5
8
10
11
11
8
7
10
11
9
11
16
17
15
14
15
16
17
17
15
14
14
15
17
18
18
18
16
15
14
15
16
19
22
19
16
16
16
18
20
20
20
20
20
18
17
22
25
27
27
25
25
27
29
31
33
35
36
37
38
37
38
41
42
43
43
41
36
32
33
34
30
26
20
13
7
2
1
0
-3
-6
-10
-12
-14
-16
-15
-14
-14
-15
-18
-20
-20
-19
-17
-16
-15
-14
-15
-16
-16
-16
-16
-16
-15
-14
-14
-14
-14
-14
-12
-12
-12
-12
-12
-12
-12
-11
-10
-11
-12
-10
-8
-9
-10
-9
-8
-8
-8
-8
-8
-8
-8
-8
-8
-8
-8
-8
-8
-8
-8
-9
-9
-7
-6
-7
-8
-8
-8
-8
-8
-8
-8
-8
-8
-8
-7
-6
-7
-8
-8
-8
-7
-6
-6
-6
-5
-4
-5
-6
-4
-2
-2
-1
1
3
6
9
12
14
15
14
11
5
-2
-7
-11
-12
-12
-13
-15
-19
-23
-26
-28
-24
-20
-22
-24
-19
-14
-12
-10
-8
-6
-7
-8
-6
-4
-3
-3
-6
-8
-6
-3
0
5
11
14
13
11
7
-5
-23
-55
-91
-144
-200
-262
-326
-385
-445
-428
-403
-340
-274
-209
-145
-94
-46
-26
-7
0
7
14
20
23
26
23
20
21
22
24
26
28
30
29
28
28
28
29
30
30
31
33
33
31
31
33
34
35
36
36
36
36
36
36
39
40
39
38
39
40
42
44
46
48
48
48
48
48
50
53
56
58
58
58
61
64
68
71
73
74
75
76
77
78
79
81
83
80
75
71
67
66
66
60
53
46
40
34
28
24
20
15
10
6
2
0
-2
-5
-8
-7
-6
-7
-9
-12
-14
-12
-10
-9
-8
-7
-8
-12
-11
-6
-6
-9
-9
-7
-6
-7
-7
-5
-4
-4
-4
-4
-4
-2
-4
-6
-4
-2
-1
0
-2
-3
2
5
1
-2
-1
0
2
4
2
0
-1
-2
-2
-2
-3
-2
2
2
-2
-4
-4
-4
-3
-2
-3
-4
-3
-4
-7
-7
-5
-3
-4
-3
-6
-4
-2
-3
-4
-1
2
3
4
7
10
11
12
14
14
7
1
-3
-6
-9
-11
-14
-17
-20
-25
-30
-29
-24
-23
-25
-23
-19
-15
-11
-9
-7
-7
-9
-10
-10
-7
-4
-8
-12
-11
-10
-6
-2
4
8
9
10
8
2
-14
-34
-64
-103
-156
-197
-221
-250
-284
-308
-323
-292
-227
-180
-142
-95
-42
-26
-23
-14
-2
0
1
5
9
10
10
10
10
13
16
16
16
17
18
18
18
15
12
12
12
15
18
16
14
16
18
20
22
22
21
18
16
17
18
19
20
21
22
22
22
21
20
20
20
21
22
22
22
22
25
28
30
32
32
32
32
32
36
40
40
40
41
42
42
42
43
44
44
42
37
33
31
29
26
22
18
13
8
2
-4
-6
-7
-9
-11
-13
-15
-18
-21
-21
-19
-20
-22
-19
-16
-21
-26
-23
-20
-18
-16
-17
-18
-18
-18
-14
-12
-12
-12
-13
-14
-14
-14
-13
-11
-8
-5
-3
-1
1
2
1
-6
-14
-17
-19
-21
-23
-27
-31
-32
-32
-32
-34
-29
-24
-18
-12
-14
-16
-16
-16
-18
-20
-17
-14
-14
-14
-15
-15
-12
-7
0
4
4
-1
-11
-27
-48
-84
-129
-172
-214
-273
-338
-401
-462
-422
-357
-292
-227
-162
-97
-57
-93
-11
-4
0
4
8
12
11
10
11
12
15
18
17
16
17
18
19
20
21
22
22
22
23
24
24
24
24
25
27
28
28
29
31
32
33
34
33
32
32
33
35
37
38
39
40
40
40
43
46
48
50
50
50
53
56
58
60
62
64
66
68
70
72
73
74
74
73
71
69
65
64
63
59
54
48
43
38
33
28
23
19
15
11
6
4
2
1
0
-2
-4
-5
-6
-5
-4
-5
-6
-7
-8
-7
-6
-7
-8
-7
-6
-7
-8
-7
-6
-5
-4
-4
-4
-4
-3
-1
0
0
-1
-3
-3
-1
0
1
2
2
1
0
1
2
4
6
4
2
1
0
1
2
3
4
2
0
-2
-4
-2
0
0
0
-1
-2
-3
-4
-3
-2
-1
-1
-3
-5
-7
-7
-5
-3
-1
-1
-3
-4
-5
-5
-4
-3
-2
-4
-6
-6
-6
-6
-6
-3
0
-2
-4
-6
-7
-4
-2
-2
-2
-3
-5
-7
-7
-4
-2
-2
-3
-5
-6
-6
-6
-5
-4
-3
-3
-5
-6
-6
-6
-5
-4
-2
-3
-4
-5
-6
-5
-4
-3
-2
-3
-4
-5
-6
-4
-2
-2
-2
-3
-4
-4
-4
-5
-5
-3
-3
-6
-7
-5
-4
-5
-6
-6
-6
-6
-6
-6
-6
-6
-4
-1
0
0
4
6
9
12
12
12
11
9
2
-4
-7
-10
-12
-14
-15
-16
-18
-21
-24
-25
-22
-20
-20
-20
-20
-17
-11
-8
-9
-10
-9
-8
-7
-6
-6
-6
-5
-4
-4
0
5
10
14
13
12
0
-12
-36
-64
-114
-166
-226
-284
-341
-396
-451
-463
-398
-333
-268
-203
-138
-86
-46
-20
-3
7
13
18
22
24
24
24
24
24
25
27
29
30
30
30
30
30
30
33
36
35
34
33
32
34
36
38
40
39
38
38
38
39
40
42
44
44
44
43
43
45
47
49
50
49
48
49
50
51
54
57
58
57
57
59
60
61
65
62
69
68
67
66
68
70
69
68
65
62
59
55
51
47
44
40
33
25
18
13
10
6
2
-3
-9
-12
-13
-14
-15
-17
-19
-20
-21
-22
-22
-22
-21
-20
-19
-20
-23
-24
-24
-20
-16
-18
-20
-19
-18
-18
-18
-17
-16
-15
-14
-14
-14
-13
-12
-11
-10
-8
-6
-6
-6
-5
-4
-3
-2
-1
0
-1
-1
1
3
5
6
7
8
7
6
6
7
10
9
8
7
6
7
8
8
8
8
8
7
6
5
4
4
4
4
4
5
6
3
2
3
4
4
4
3
2
2
2
3
4
5
7
9
9
7
6
5
4
4
4
6
5
4
6
8
8
8
6
4
6
8
6
4
6
8
8
10
15
18
18
19
21
22
23
21
16
10
4
2
1
0
0
-2
-5
-11
-17
-16
-13
-10
-7
-8
-10
-9
-8
-6
-4
-5
-5
4
12
10
8
8
8
8
8
7
6
8
13
20
23
21
14
1
-22
-54
-94
-138
-178
-215
-256
-297
-327
-355
-307
-242
-183
-125
-70
-16
-14
-14
4
22
24
26
29
32
28
24
25
26
29
32
30
28
27
28
34
38
37
36
35
33
31
32
36
37
35
34
33
33
35
39
45
42
35
38
43
43
41
43
40
44
40
42
44
43
42
47
52
50
48
47
46
48
51
55
59
62
64
64
64
65
67
70
73
75
74
70
68
67
66
66
65
63
60
57
51
45
42
39
35
31
24
18
18
18
16
14
10
6
6
6
4
2
3
4
4
3
0
-2
0
2
3
4
5
6
5
4
3
2
3
4
4
4
4
4
3
2
3
4
4
4
4
4
4
6
8
7
6
5
4
4
4
4
4
4
4
3
2
3
4
4
4
3
2
1
1
3
4
3
2
1
1
3
4
4
4
3
2
2
2
2
2
2
2
2
2
2
3
4
3
2
0
-2
0
2
3
4
3
2
2
2
2
3
6
8
8
8
8
10
14
18
22
23
21
17
12
6
0
-2
-3
-5
-7
-11
-15
-16
-17
-16
-14
-13
-12
-16
-19
-10
-2
-2
-2
-3
-4
-2
0
2
4
5
6
5
4
3
5
11
17
23
24
20
9
-7
-28
-53
-93
-139
-188
-237
-285
-332
-361
-387
-331
-266
-202
-140
-92
-45
-29
-13
1
14
18
22
24
26
28
30
32
34
33
32
32
32
34
36
37
38
37
36
36
38
42
43
41
40
41
42
41
42
45
46
46
46
45
44
44
48
50
50
50
49
48
50
52
53
54
55
56
56
56
58
60
61
63
67
70
69
69
72
75
78
81
83
84
83
82
82
82
82
81
79
75
71
66
61
58
55
49
44
38
32
28
24
21
18
15
12
9
6
4
2
2
2
3
3
0
-2
-1
0
0
0
1
2
3
4
4
4
5
6
5
4
5
6
6
6
7
8
9
9
6
5
4
8
12
12
12
11
10
10
10
10
10
10
10
12
13
10
8
9
8
3
1
4
6
6
6
7
8
8
8
7
6
7
8
8
8
9
9
7
3
6
5
12
8
4
6
8
9
10
10
10
9
8
7
6
5
4
5
6
5
5
10
13
15
17
19
22
26
28
27
23
18
10
2
0
0
0
1
-1
-5
-13
-21
-18
-14
-10
-6
-10
-13
-5
2
2
2
2
2
4
6
5
4
2
1
4
6
6
9
16
20
19
18
19
9
-8
-33
-62
-106
-157
-188
-215
-244
-274
-288
-301
-243
-178
-145
-114
-64
-16
-13
-9
4
16
18
20
18
16
17
19
23
26
27
27
24
23
26
27
24
23
25
26
26
26
27
28
28
29
31
30
27
27
29
30
31
32
32
32
32
30
28
30
32
32
32
31
30
32
34
34
34
35
36
37
38
38
38
40
42
45
46
47
48
49
50
51
53
55
56
55
54
53
51
49
48
47
41
35
30
25
21
18
15
12
7
2
0
-2
-1
0
-2
-4
-6
-8
-7
-6
-7
-8
-7
-6
-6
-6
-5
-4
-5
-5
-3
-2
-3
-4
-5
-5
-3
-3
-5
-6
-5
-4
-4
-4
-4
-4
-4
-4
-4
-3
-2
-3
-4
-3
-2
-3
-4
-3
-2
-3
-4
-3
-2
-3
-4
-3
-2
-3
-4
-3
-2
-3
-4
-4
-5
-7
-7
-5
-4
-4
-4
-3
-2
-3
-4
-3
-2
-2
-1
-2
-4
-6
-4
-2
-1
0
-2
-4
-3
-2
-1
0
1
2
0
-2
-1
1
4
8
13
16
15
15
17
18
18
13
6
1
-3
-5
-7
-8
-9
-11
-13
-18
-23
-22
-20
-17
-14
-16
-18
-13
-8
-9
-9
-4
0
-1
-2
-2
-2
-2
-2
0
2
3
5
8
12
17
19
17
7
-9
-32
-58
-103
-154
-210
-266
-323
-380
-428
-474
-419
-354
-289
-223
-158
-95
-51
-11
1
12
19
24
26
28
28
28
29
30
32
34
34
34
34
34
35
37
39
39
37
37
39
40
40
41
43
44
43
42
43
44
44
44
44
44
44
47
48
49
50
50
50
52
54
55
56
54
52
54
56
58
61
64
66
67
68
71
74
78
80
81
82
83
84
85
86
86
87
89
86
81
77
73
73
75
70
63
54
46
42
38
34
30
26
21
15
10
7
4
4
4
4
3
0
-2
-2
-2
-4
-5
-2
0
0
-2
-6
-6
-2
0
0
0
-1
-3
-5
-6
-5
-4
-3
-1
1
2
4
3
2
3
4
-1
-6
-3
0
1
2
3
4
6
7
2
-2
0
2
4
5
2
0
-1
0
4
4
0
-2
-1
0
0
0
0
1
3
-1
-7
-4
1
1
2
3
8
0
-8
-2
4
-1
-6
-2
2
2
1
-3
-4
2
6
5
6
11
14
14
16
20
20
14
11
9
4
-2
-6
-9
-12
-15
-15
-13
-14
-17
-19
-21
-20
-17
-15
-14
-8
-2
-6
-10
-6
-2
-1
0
-4
-7
-3
0
1
1
-2
-2
4
8
9
10
11
6
-5
-25
-52
-93
-142
-178
-208
-232
-255
-277
-300
-251
-187
-164
-148
-87
-23
-20
-22
-7
8
9
10
13
16
14
12
13
14
16
18
19
20
19
18
18
18
17
16
19
20
19
18
18
18
19
20
21
22
22
22
21
20
21
22
23
24
23
22
22
25
26
28
30
28
26
26
26
29
32
33
34
35
36
37
38
40
43
46
48
47
46
47
50
54
56
55
53
51
50
49
47
45
41
37
32
27
23
19
15
11
7
4
0
-4
-5
-6
-7
-8
-9
-10
-11
-12
-12
-12
-12
-12
-12
-12
-12
-12
-13
-14
-13
-12
-11
-10
-10
-10
-10
-10
-11
-12
-12
-12
-11
-10
-10
-10
-10
-10
-10
-10
-8
-8
-8
-8
-8
-8
-8
-9
-10
-9
-8
-9
-10
-10
-10
-10
-10
-11
-12
-12
-12
-9
-9
-11
-11
-9
-9
-11
-12
-12
-12
-12
-12
-12
-11
-9
-9
-11
-12
-11
-10
-10
-11
-10
-11
-12
-10
-8
-9
-10
-9
-8
-10
-12
-9
-6
-6
-6
-4
-2
-1
2
7
10
10
8
4
-2
-9
-12
-13
-15
-17
-19
-21
-24
-27
-28
-29
-28
-25
-27
-31
-30
-28
-19
-10
-15
-20
-18
-16
-13
-10
-9
-8
-9
-10
-12
-13
-10
-5
3
8
7
3
-3
-14
-29
-55
-88
-136
-192
-250
-308
-365
-421
-440
-448
-397
-332
-267
-202
-137
-72
-40
-10
-6
-2
4
10
12
14
15
16
15
14
17
20
20
20
21
22
21
20
20
21
24
26
27
27
25
24
25
26
27
28
28
28
28
28
29
30
30
32
35
34
36
33
36
37
38
39
40
41
42
43
44
46
48
50
52
52
53
56
59
62
65
68
70
70
70
71
73
75
76
75
72
69
66
63
59
55
50
45
39
33
28
23
16
10
6
2
-2
-6
-8
-10
-14
-18
-17
-16
-15
-14
-14
-15
-18
-19
-15
-12
-14
-16
-15
-15
-18
-21
-23
-23
-19
-18
-19
-19
-17
-15
-13
-11
-9
-10
-13
-13
-11
-11
-14
-12
-10
-11
-12
-12
-12
-11
-10
-10
-10
-10
-10
-11
-12
-11
-10
-9
-8
-10
-12
-9
-9
-12
-14
-13
-12
-13
-14
-13
-14
-17
-18
-17
-15
-13
-12
-13
-12
-9
-10
-8
-12
-10
-15
-20
-16
-12
-12
-12
-13
-14
-11
-8
-7
-6
-5
-2
5
9
6
4
5
2
-7
-13
-15
-19
-24
-26
-27
-28
-28
-31
-36
-35
-31
-30
-30
-29
-27
-23
-19
-20
-22
-17
-12
-12
-12
-12
-12
-13
-14
-15
-15
-11
-7
-2
2
1
-1
-4
-16
-38
-69
-109
-151
-194
-227
-252
-280
-309
-290
-248
-221
-199
-144
-79
-54
-37
-26
-17
-12
-7
-2
4
5
6
5
4
4
4
7
10
10
10
9
8
9
10
11
12
13
14
13
12
13
14
15
16
16
16
16
16
16
16
17
20
23
23
21
20
19
21
25
26
26
25
26
26
26
29
32
33
34
34
34
35
37
41
44
46
48
48
48
50
52
53
54
55
54
50
48
47
44
40
37
35
29
22
16
11
7
3
1
-1
-4
-7
-11
-14
-13
-12
-13
-14
-15
-16
-16
-16
-16
-16
-17
-18
-17
-16
-15
-14
-14
-14
-14
-14
-14
-14
-14
-14
-14
-14
-14
-14
-13
-12
-12
-12
-12
-12
-12
-12
-12
-12
-11
-10
-10
-10
-10
-10
-10
-9
-8
-10
-12
-12
-12
-12
-12
-11
-10
-11
-12
-11
-10
-9
-8
-11
-12
-12
-12
-12
-12
-11
-10
-11
-12
-11
-11
-13
-12
-9
-9
-11
-11
-9
-9
-8
-10
-8
-10
-12
-9
-6
-8
-10
-8
-6
-4
-2
1
5
8
10
11
11
7
1
-8
-12
-12
-14
-18
-20
-20
-22
-26
-29
-31
-29
-24
-23
-25
-28
-31
-23
-13
-13
-15
-14
-12
-10
-8
-9
-10
-8
-6
-7
-8
-8
-7
1
7
11
12
6
-5
-23
-49
-83
-126
-178
-235
-295
-355
-416
-436
-432
-386
-321
-256
-191
-126
-62
-34
-15
-4
5
9
13
14
16
17
18
19
20
20
20
21
22
24
27
31
34
31
28
28
28
30
32
34
36
33
32
31
31
33
35
38
39
37
35
33
32
32
35
39
40
40
40
41
44
42
45
42
42
42
47
52
53
54
56
58
56
55
61
66
67
68
70
72
72
72
69
69
72
71
65
60
56
51
46
40
34
29
24
18
11
7
3
2
3
1
-3
-6
-8
-13
-18
-14
-10
-10
-10
-16
-20
-17
-14
-13
-12
-11
-10
-11
-12
-13
-13
-9
-9
-16
-17
-11
-9
-11
-11
-9
-8
-8
-6
-3
-4
-7
-8
-7
-9
-13
-8
-1
0
0
-5
-10
-7
-4
-3
-2
-2
-2
-5
-8
-8
-8
-5
-2
-3
-4
-4
-4
-3
-4
-9
-11
-8
-7
-9
-7
-2
-2
-6
-6
-3
-3
-5
-4
-1
-6
-13
-11
-7
-6
-6
-3
-2
1
4
0
-4
3
8
12
16
11
9
14
15
5
-3
-6
-9
-13
-16
-17
-18
-19
-20
-21
-22
-21
-20
-21
-20
-16
-11
-6
-4
-5
-6
-5
-3
-1
-2
-5
-5
-4
-3
-2
0
2
6
10
10
9
2
-10
-33
-63
-106
-146
-181
-209
-227
-247
-269
-254
-202
-171
-158
-114
-49
-24
-21
-13
-3
3
7
10
13
14
14
14
14
16
19
20
20
19
18
19
20
21
22
21
20
20
20
21
22
23
24
24
24
23
22
24
26
27
28
28
28
27
27
30
32
31
30
30
30
29
30
33
34
35
36
37
38
38
40
44
46
48
48
48
50
52
55
58
58
58
58
58
57
56
56
55
52
48
43
38
33
29
27
23
17
12
8
4
0
-2
-1
0
-1
-4
-7
-8
-8
-8
-8
-6
-4
-6
-8
-8
-8
-7
-6
-5
-4
-6
-8
-9
-10
-8
-6
-5
-4
-5
-6
-7
-7
-4
-3
-5
-6
-6
-6
-6
-6
-5
-4
-4
-4
-4
-4
-5
-6
-5
-4
-3
-4
-8
-8
-8
-6
-4
-4
-4
-6
-8
-7
-6
-5
-4
-5
-6
-7
-8
-6
-4
-4
-4
-4
-4
-4
-4
-5
-5
-3
-2
-3
-4
-4
-4
-4
-3
-1
-1
-3
-4
-3
-2
-2
2
6
6
6
9
12
14
16
17
17
8
1
-3
-6
-8
-10
-12
-15
-18
-20
-21
-21
-19
-18
-17
-17
-20
-17
-9
-6
-6
-6
-7
-6
-3
0
3
3
1
0
-1
-2
-2
6
14
17
20
16
10
-7
-26
-56
-92
-146
-201
-257
-314
-373
-418
-445
-431
-366
-301
-236
-171
-106
-58
-22
-3
5
9
11
18
26
28
29
30
29
28
28
30
33
33
30
33
36
34
32
31
30
37
42
40
38
37
36
38
40
41
42
42
42
42
42
43
44
45
46
46
46
45
46
50
52
53
54
53
52
53
56
59
60
61
62
62
68
72
74
76
80
84
87
90
89
88
90
92
90
87
83
80
81
78
68
62
63
59
49
42
38
32
25
21
19
16
12
8
5
1
-3
-4
-3
-2
-3
-7
-11
-7
-2
-3
-4
-2
0
-1
-2
-3
-4
-5
-6
-5
-4
-8
-9
-5
-2
-3
-4
-5
-4
0
2
2
2
3
2
-2
-2
2
2
-1
-2
-2
-2
-1
-3
-7
-3
3
3
0
1
2
0
-2
-3
-4
-2
0
-2
-4
-7
-8
-1
3
-2
-6
-7
-8
-6
-4
-3
-3
-5
-5
-3
-2
-2
-2
-2
-3
-5
-3
1
2
2
2
2
5
9
16
10
20
16
11
6
1
-4
-8
-12
-10
-9
-15
-20
-23
-26
-24
-22
-20
-19
-22
-19
-6
-1
-4
-6
-5
-4
-4
-2
1
-2
-8
-8
-5
-4
-4
-4
-3
8
19
15
9
-9
-26
-51
-77
-124
-170
-207
-240
-252
-265
-283
-279
-214
-165
-153
-122
-60
-22
-21
-14
0
8
9
10
10
10
11
13
15
16
15
11
7
11
18
20
21
21
19
18
17
17
20
21
22
19
16
17
18
19
20
22
24
22
20
22
24
25
26
26
26
24
22
21
21
24
26
26
26
27
28
27
28
33
34
34
34
34
34
35
38
41
42
42
43
46
45
44
42
40
39
38
35
32
29
26
23
19
14
9
5
1
-3
-6
-9
-10
-11
-12
-13
-14
-14
-14
-14
-14
-13
-12
-13
-14
-15
-15
-13
-12
-11
-10
-11
-12
-12
-10
-8
-9
-10
-10
-10
-11
-12
-10
-8
-9
-10
-11
-12
-10
-8
-9
-10
-9
-8
-9
-10
-9
-8
-8
-8
-9
-10
-10
-10
-10
-10
-11
-12
-11
-10
-10
-10
-11
-12
-10
-12
-14
-12
-10
-9
-8
-8
-8
-9
-10
-8
-6
-7
-8
-8
-8
-8
-8
-7
-6
-6
-6
-5
-4
-4
-4
-3
-2
-1
0
1
5
9
14
19
20
19
14
9
3
8
-7
-10
-11
-12
-16
-20
-22
-24
-23
-22
-20
-19
-23
-23
-14
-8
-8
-8
-8
-8
-5
-4
-4
-2
4
4
0
-2
-2
0
4
12
20
18
11
2
-8
-29
-50
-96
-143
-193
-243
-305
-365
-412
-446
-381
-317
-258
-198
-133
-77
-47
-21
-2
10
10
12
20
24
26
28
27
26
27
28
28
29
33
34
35
35
33
33
35
37
39
40
40
40
40
40
40
40
40
40
40
41
42
44
46
45
44
46
48
49
50
50
50
50
50
52
54
54
56
60
61
59
59
62
67
72
72
69
71
77
79
81
84
87
88
88
88
88
85
84
84
84
79
74
69
63
57
52
47
43
37
30
23
17
14
12
11
10
7
4
-1
-4
-4
-4
-4
-4
-3
-2
-3
-4
-4
-3
-1
0
0
0
1
2
2
1
0
3
6
3
0
2
4
5
6
6
6
4
2
4
6
7
8
8
8
8
8
8
8
9
10
10
10
9
7
5
5
7
8
7
6
5
4
4
4
5
6
8
4
0
2
4
5
6
5
4
4
4
4
4
5
6
4
2
2
4
9
12
11
11
13
15
18
20
21
24
28
24
15
6
-2
-5
-7
-8
-9
-10
-11
-17
-12
-19
-14
-13
-12
-13
-14
-7
-2
-1
0
-2
-4
-3
-2
-1
1
5
8
7
6
3
4
9
16
23
22
13
3
-8
-35
-67
-115
-167
-201
-231
-260
-288
-300
-309
-250
-185
-148
-111
-59
-10
-8
-5
5
14
17
20
19
18
19
21
25
27
23
21
24
26
26
27
30
30
26
24
25
26
27
28
29
30
31
30
27
26
26
29
33
34
33
32
30
31
32
34
36
35
34
34
34
36
38
39
40
40
40
39
38
39
41
44
46
49
51
53
54
55
56
55
56
59
60
59
58
57
55
53
50
47
44
41
36
40
25
20
16
12
9
6
3
0
-1
-2
-4
-6
-5
-4
-6
-8
-7
-6
-6
-6
-6
-6
-6
-6
-5
-4
-5
-6
-5
-4
-4
-4
-3
-2
-3
-4
-4
-4
-3
-2
-3
-4
-4
-2
0
-1
-2
-2
-2
-4
-6
-3
0
-2
-4
-5
-6
-5
-4
-3
-2
-3
-5
-7
-7
-5
-4
-4
-4
-5
-6
-6
-6
-6
-5
-3
-3
-5
-6
-7
-7
-5
-4
-4
-4
-4
-4
-4
-4
-4
-2
0
-2
-4
-4
-4
-3
-1
3
6
6
6
8
12
19
22
21
16
9
3
-2
-6
-10
-11
-9
-12
-18
-21
-23
-23
-21
-20
-19
-18
-18
-14
-10
-7
-4
-4
-4
-5
-6
-4
-2
-1
0
0
0
0
1
5
9
13
16
15
7
-9
-30
-56
-96
-146
-195
-243
-299
-359
-407
-451
-409
-344
-279
-214
-149
-84
-54
-27
-9
8
12
16
19
22
22
22
23
24
25
26
29
32
28
27
31
34
34
34
33
32
31
32
36
38
39
39
37
36
36
36
37
38
38
38
39
39
37
38
41
43
46
47
48
47
46
48
50
51
52
52
52
55
58
58
59
63
66
68
70
72
74
75
77
80
82
82
82
81
80
79
75
70
66
63
58
51
47
43
34
25
21
24
14
12
8
4
-1
-6
-5
-4
-5
-6
-9
-12
-10
-8
-7
-6
-7
-8
-10
-12
-11
-11
-13
-13
-10
-9
-11
-10
-7
-6
-6
-5
-3
-3
-5
-5
-3
-2
-3
-2
1
1
0
0
0
2
4
2
0
-1
-2
0
2
1
0
0
0
-1
-2
-2
-1
2
1
-5
-8
-7
-3
2
4
3
1
-1
-2
-3
-4
-4
-4
-4
-4
-5
-6
-6
-4
0
-1
-2
-2
-2
-1
0
2
4
4
5
10
14
13
12
14
13
5
-2
-8
-12
-11
-11
-13
-16
-20
-23
-25
-25
-23
-22
-22
-23
-25
-17
-4
-5
-9
-8
-5
-4
-4
-7
-10
-9
-8
-4
0
-4
-7
1
8
8
8
9
3
-21
-50
-88
-132
-187
-223
-238
-261
-291
-296
-280
-243
-190
-142
-94
-57
-23
-14
-15
-8
2
7
11
11
9
8
9
14
18
19
20
16
12
13
14
17
20
19
18
16
14
18
20
22
22
17
14
16
19
22
25
27
26
22
21
25
27
29
26
20
21
25
26
27
30
33
28
21
26
34
33
32
32
32
33
34
38
42
41
41
45
48
51
52
46
44
49
52
50
47
42
39
36
33
30
28
27
20
11
6
1
0
-1
-2
-3
-4
-5
-7
-9
-10
-10
-12
-12
-12
-12
-13
-14
-13
-12
-10
-8
-9
-10
-12
-13
-10
-8
-9
-10
-10
-10
-11
-11
-8
-6
-7
-8
-8
-8
-9
-9
-7
-6
-5
-5
-7
-8
-7
-6
-7
-8
-7
-7
-8
-9
-10
-8
-6
-6
-6
-7
-8
-9
-10
-9
-8
-8
-8
-9
-10
-9
-8
-7
-6
-7
-8
-7
-6
-6
-6
-6
-6
-6
-6
-6
-6
-5
-4
-3
-2
-2
-2
-2
0
4
6
8
11
14
16
18
18
17
11
5
0
-4
-7
-10
-9
-9
-13
-17
-20
-20
-15
-12
-13
-14
-14
-10
-3
0
-1
-2
-1
0
1
2
3
4
5
6
6
6
6
10
14
19
24
23
20
3
-16
-42
-72
-117
-165
-219
-270
-315
-358
-397
-393
-328
-263
-199
-137
-77
-41
-23
-7
10
18
21
23
25
29
33
34
35
36
36
36
36
36
35
39
44
40
36
36
36
38
40
43
46
44
42
42
42
40
40
46
49
46
44
44
45
48
51
54
53
48
47
51
53
55
56
57
58
58
58
59
62
65
67
69
70
70
73
76
78
80
85
90
88
86
86
86
87
88
86
83
78
73
70
66
61
56
51
44
34
28
24
21
19
16
12
10
11
10
7
4
1
1
3
3
1
-1
0
-3
-2
-1
0
-2
-4
-4
-4
-3
-2
-2
-2
-3
-4
-3
-2
-1
0
0
0
-1
-1
2
4
3
2
2
2
3
4
4
4
4
4
3
2
3
4
4
3
1
1
2
2
2
2
2
2
2
2
2
0
-2
-2
-2
-2
-2
-1
0
2
4
2
1
3
4
3
2
3
5
7
8
9
12
15
16
17
18
19
20
20
19
17
15
12
4
-4
-4
-4
-6
-8
-9
-10
-13
-16
-15
-14
-15
-13
-4
1
-2
-3
1
4
4
4
4
5
7
5
0
0
4
5
3
7
14
16
16
13
9
-13
-36
-81
-38
-169
-211
-252
-293
-334
-364
-317
-271
-230
-183
-118
-63
-34
-11
0
8
10
14
19
23
26
26
22
20
20
21
24
28
31
32
31
30
30
30
31
32
32
31
29
29
31
32
32
34
36
33
30
29
28
32
36
34
32
33
34
38
40
40
39
36
34
36
37
34
36
44
47
44
44
48
50
49
49
51
54
57
58
58
62
67
64
59
60
64
57
50
55
60
53
45
38
33
39
41
29
20
17
12
3
-2
-2
-3
-7
-10
-7
-6
-5
-7
-13
-13
-8
-10
-17
-15
-6
-7
-11
-12
-11
-10
-10
-10
-11
-11
-12
-5
-2
-12
-21
-10
-1
-8
-14
-8
-4
-6
-8
-7
-5
-1
1
-3
-6
-4
-4
-11
-11
-4
-1
-3
-4
-5
-6
-5
-7
-12
-10
-4
-6
-11
-8
-3
-5
-9
-9
-7
-7
-8
-7
-6
-6
-6
-6
-6
-8
-10
-8
-6
-5
-4
-6
-8
-9
-10
-9
-8
-8
-8
-8
-8
-8
-6
-2
2
6
8
8
8
7
2
-3
-8
-13
-17
-21
-22
-22
-23
-26
-27
-28
-28
-28
-29
-30
-25
-19
-14
-10
-13
-16
-15
-13
-10
-8
-8
-8
-9
-10
-10
-9
-7
-4
0
2
3
2
-1
-12
-26
-55
-89
-133
-179
-210
-239
-267
-294
-296
-296
-231
-168
-146
-121
-67
-20
-20
-18
-6
4
6
8
11
14
13
13
16
18
17
17
20
22
22
22
22
22
22
22
22
22
23
24
24
24
25
26
27
28
29
30
30
30
30
32
34
33
32
34
36
35
34
36
38
39
40
40
40
42
44
45
47
50
52
53
54
55
58
62
64
65
66
67
68
67
66
67
68
68
64
59
55
51
48
44
36
28
25
22
17
12
9
6
4
2
0
-2
-5
-7
-4
-3
-6
-8
-7
-6
-6
-6
-6
-6
-6
-6
-6
-6
-5
-4
-4
-5
-7
-6
-3
-2
-3
-4
-4
-4
-4
-3
-2
-2
-2
-3
-4
-3
-2
-1
0
-2
-4
-2
-1
-4
-6
-4
-2
-3
-4
-7
-7
-5
-4
-3
-3
-5
-6
-7
-7
-5
-4
-5
-6
-5
-4
-5
-6
-6
-6
-5
-5
-6
-6
-6
-8
-10
-8
-6
-8
-10
-6
-2
-2
-2
-1
1
4
6
5
6
11
14
15
14
10
4
-5
-8
-8
-9
-11
-15
-20
-22
-22
-23
-25
-21
-15
-17
-21
-22
-22
-13
-4
-5
-6
-5
-4
-5
-6
-4
-2
-3
-4
-5
-5
-1
4
10
14
13
9
0
-15
-36
-70
-112
-163
-219
-281
-345
-404
-460
-438
-390
-328
-263
-198
-133
-88
-45
-22
-42
5
10
14
18
19
20
22
24
26
28
26
24
25
26
27
28
30
32
30
28
29
31
33
34
34
34
34
34
34
34
33
36
42
42
39
38
39
42
45
46
47
46
44
48
52
52
52
55
58
58
58
57
57
61
64
66
69
72
74
72
72
78
83
85
86
85
83
80
78
79
78
74
68
62
56
51
48
45
39
33
26
19
14
8
6
4
4
4
-2
-8
-9
-10
-9
-8
-6
-4
-5
-6
-7
-8
-8
-8
-6
-4
-5
-6
-6
-7
-9
-8
-4
-4
-7
-8
-9
-6
0
2
1
0
-1
-2
-2
-1
-2
2
2
-1
-4
-4
-4
-4
-4
-2
-1
-6
-9
-5
-2
0
1
-2
-4
-5
-5
-2
-1
-3
-4
-3
-2
-3
-3
-1
-2
-6
-6
-3
-3
-5
-6
-5
-4
-4
-4
-5
-6
-6
-5
-4
-4
-4
-6
-7
0
6
2
-1
3
6
8
11
15
17
14
8
-1
-8
-13
-14
-9
-10
-17
-20
-19
-20
-24
-23
-18
-20
-26
-22
-14
-12
-11
-12
-15
-12
-6
-1
4
-6
-16
-10
-4
-4
-4
-3
-1
4
8
6
3
-1
-13
-38
-70
-112
-152
-191
-219
-236
-255
-276
-251
-196
-165
-144
-102
-50
-29
-17
-12
-9
-5
-1
3
7
8
8
10
10
12
14
13
12
9
6
9
12
13
14
13
12
11
11
14
16
14
12
12
12
11
11
14
16
16
16
16
16
16
18
21
22
22
22
21
20
20
22
25
27
28
27
26
28
30
31
32
34
36
35
34
35
36
40
42
43
44
42
40
41
41
39
38
37
34
30
26
22
18
14
11
9
4
-1
-2
-2
1
5
6
5
-3
-12
-17
-22
-21
-20
-25
-30
-32
-34
-33
-31
-24
-17
-13
-10
-10
-10
-12
-13
-9
-6
-5
-5
-8
-10
-9
-7
-5
-4
-3
0
5
6
5
-3
-12
-35
-59
-106
-155
-220
-158
-351
-415
-450
-476
-411
-346
-281
-216
-151
-90
-40
-2
5
11
15
19
25
27
23
22
29
31
29
30
34
36
35
34
35
36
36
36
36
38
41
42
41
40
39
42
47
48
48
47
46
45
44
49
54
53
52
53
54
54
54
58
60
61
62
64
66
65
65
68
70
71
72
71
71
75
76
77
76
73
69
65
65
67
63
57
50
43
42
42
35
28
23
18
15
12
5
0
-1
-2
-1
0
0
-1
-6
-10
-8
-6
-6
-6
-5
-5
-7
-8
-7
-5
-3
-2
-1
0
-1
-1
1
2
3
3
1
1
3
4
4
3
2
2
2
3
4
3
2
6
9
2
-4
-1
2
0
-1
2
3
0
-2
-1
0
0
0
-1
-1
1
2
2
2
1
-1
-3
-4
-5
-2
3
2
-1
-4
-7
-2
4
3
2
1
0
-3
-6
-4
-2
2
6
3
0
-1
-2
-4
-5
-1
1
-2
-3
-1
0
0
0
1
2
1
0
-1
-2
-3
-3
-1
0
-1
-2
-2
-3
-5
-2
4
2
0
0
0
1
2
4
6
4
2
0
-1
4
7
2
-2
0
2
1
1
4
6
5
3
1
0
-1
-1
1
2
3
4
3
-1
-5
-4
-1
1
3
3
4
-1
-2
2
6
3
0
1
2
-1
-4
1
4
2
0
1
2
1
0
1
2
3
1
-6
-7
-1
3
5
6
6
9
14
16
15
15
17
14
9
1
-7
-12
-17
-15
-12
-14
-16
-20
-24
-22
-20
-17
-14
-14
-13
-9
-6
-8
-10
-11
-10
-2
2
0
-2
-1
0
0
3
8
10
11
10
6
0
-6
-31
-60
-106
-155
-182
-206
-237
-269
-293
-317
-252
-190
-168
-141
-77
-22
-22
-20
-5
7
11
15
19
22
20
17
13
12
18
22
21
20
19
20
24
24
20
20
23
24
24
23
21
20
20
21
23
23
21
23
20
27
26
27
28
27
26
26
26
27
28
26
26
34
39
34
30
30
32
37
40
40
38
34
32
33
35
37
38
38
40
43
43
41
40
39
34
29
30
33
28
21
16
12
4
-4
-4
-4
-9
-14
-18
-23
-29
-33
-27
-24
-31
-36
-35
-35
-39
-40
-34
-30
-31
-32
-33
-35
-38
-38
-34
-32
-31
-30
-31
-28
-23
-22
-23
-24
-25
-26
-27
-28
-28
-27
-26
-25
-24
-24
-24
-22
-20
-22
-24
-23
-22
-23
-24
-23
-21
-18
-17
-20
-22
-21
-20
-19
-18
-18
-19
-21
-22
-21
-19
-17
-16
-16
-16
-17
-19
-21
-21
-19
-18
-18
-18
-18
-18
-18
-18
-18
-17
-16
-16
-16
-17
-18
-17
-16
-15
-14
-15
-16
-15
-14
-15
-16
-16
-16
-15
-14
-14
-14
-13
-12
-12
-12
-11
-10
-11
-12
-11
-10
-11
-11
-9
-9
-10
-9
-8
-8
-8
-7
-6
-5
-4
-3
-1
3
6
10
12
13
14
13
9
2
-4
-9
-12
-11
-10
-11
-13
-17
-18
-19
-18
-15
-15
-17
-16
-13
-6
1
0
-3
-3
0
1
2
2
2
4
6
4
2
5
9
15
20
20
16
3
-14
-35
-67
-112
-161
-213
-263
-311
-356
-398
-374
-309
-251
-198
-136
-71
-44
-29
-9
12
18
21
24
27
28
28
32
34
34
34
34
34
35
36
38
40
41
42
39
37
40
42
44
46
44
42
41
41
44
46
46
46
47
48
47
48
51
51
49
49
51
51
49
51
55
56
56
55
54
55
56
60
64
67
70
66
62
64
67
73
78
80
82
82
82
81
82
87
89
86
83
80
75
70
67
65
62
58
51
44
39
35
29
23
21
19
15
11
10
8
5
2
0
-2
-1
0
-2
-4
-4
-4
-1
2
-1
-4
-2
0
-2
-4
-5
-5
-2
0
-1
-1
1
2
2
2
1
0
-1
0
3
4
3
2
1
3
7
8
8
4
2
4
6
3
0
1
2
3
4
1
-2
1
4
3
2
2
2
3
4
3
2
2
1
-1
0
4
5
3
2
1
0
1
2
2
2
2
2
1
0
0
2
4
3
2
1
0
1
2
0
-2
2
5
1
-2
0
2
2
2
2
2
2
3
6
10
14
16
17
19
21
22
21
15
8
1
-6
-8
-8
-9
-11
-11
-9
-12
-18
-18
-18
-13
-8
-11
-14
-7
-2
-6
-9
-3
2
5
8
7
6
5
4
4
6
11
15
18
20
19
17
14
1
-17
-52
-94
-143
-194
-245
-296
-343
-389
-380
-363
-301
-362
-170
-107
-65
-25
-10
4
8
13
21
28
30
31
27
25
29
33
37
39
36
33
30
29
31
32
33
35
38
38
35
35
37
38
39
40
39
36
33
34
37
41
45
44
42
42
42
41
40
43
46
45
44
46
48
48
48
47
46
48
50
49
49
52
54
53
56
64
68
68
68
69
70
69
68
68
68
68
64
59
59
61
54
45
45
48
39
30
23
16
14
12
9
6
5
3
-2
-6
-4
-4
-10
-14
-14
-14
-12
-10
-7
-6
-5
-6
-10
-12
-12
-14
-18
-16
-10
-8
-9
-10
-9
-10
-13
-13
-11
-10
-10
-12
-12
-8
-4
-5
-6
-7
-8
-9
-10
-7
-4
-6
-7
-3
-1
-7
-10
-8
-8
-13
-14
-10
-8
-8
-9
-12
-10
-3
-6
-15
-18
-18
-14
-9
-8
-8
-8
-8
-13
-19
-13
-6
-12
-18
-16
-14
-9
-5
-13
-19
-13
-9
-14
-18
-14
-12
-11
-10
-10
-9
-5
-6
-15
-15
-6
-1
2
4
4
2
-1
-2
-2
-6
-11
-17
-23
-25
-27
-29
-31
-32
-32
-33
-34
-30
-26
-27
-28
-21
-16
-20
-24
-23
-22
-19
-16
-14
-12
-13
-14
-14
-14
-15
-13
-7
-4
-5
-6
-7
-16
-30
-53
-81
-124
-171
-199
-222
-244
-265
-263
-257
-195
-256
-124
-116
-64
-16
-19
-21
-11
-2
-1
0
3
6
4
2
4
6
7
8
9
10
10
10
11
12
11
11
13
14
14
14
15
16
16
17
19
20
20
20
21
22
22
23
24
25
26
27
28
28
28
29
30
31
32
32
32
36
38
39
40
42
45
48
50
51
52
53
55
57
59
61
62
63
64
64
64
63
62
61
56
51
50
49
44
38
33
28
25
22
18
14
11
8
6
4
2
0
0
-1
-4
-6
-4
-2
-1
0
-1
-2
-3
-3
-1
-1
-3
-2
2
1
-4
-4
-1
0
0
-1
-3
-4
-3
-1
-2
1
0
-1
-2
-3
-4
-1
2
1
0
-1
-2
-3
-4
-2
0
0
0
-2
-3
0
2
1
0
-1
-2
-2
-2
-3
-2
1
2
1
-2
-5
-4
-1
0
1
2
1
-2
-4
-1
2
0
-2
1
4
1
-2
-1
0
2
4
2
0
0
0
0
0
2
3
0
-2
-2
1
7
10
11
13
15
18
21
20
17
15
13
5
-3
-4
-4
-4
-4
-8
-12
-16
-20
-19
-18
-13
-8
-12
-14
-6
0
-3
-5
0
4
3
2
3
3
0
0
4
7
9
10
11
15
20
21
19
4
-14
-41
-69
-122
-178
-241
-305
-359
-308
-437
-457
-392
-327
-262
-197
-132
-72
-31
2
11
18
20
24
32
37
31
28
30
32
35
36
36
37
40
39
34
34
38
40
39
40
43
44
43
42
43
44
43
42
43
45
46
47
48
49
50
51
52
51
50
52
54
55
56
57
58
57
56
58
60
61
63
65
67
69
72
76
79
83
85
87
91
95
95
93
95
99
99
97
94
91
89
86
82
78
75
72
65
57
47
38
35
32
31
29
23
17
12
8
6
3
0
-2
1
2
1
0
1
2
2
2
2
2
1
1
3
2
-1
-2
-1
0
0
2
0
6
6
5
4
3
2
3
4
6
8
6
4
4
4
6
8
9
10
8
6
6
6
7
9
11
11
8
6
7
7
5
6
9
8
5
4
4
5
7
5
1
3
6
3
0
2
4
3
2
2
2
2
2
0
-1
4
7
2
-1
3
6
4
1
-2
-1
5
8
7
7
11
16
22
20
14
13
15
11
3
-5
-13
-11
-7
-10
-16
-15
-14
-20
-26
-21
-16
-16
-16
-14
-12
-9
-6
-8
-10
-10
-10
-10
-8
-2
0
-5
-7
-4
-3
-6
-3
6
6
-1
-4
-5
-24
-49
-88
-130
-164
-196
-221
-244
-256
-246
-217
-168
-150
-129
-71
-20
-22
-23
-12
-4
-6
-6
2
8
8
6
0
1
13
17
10
6
7
7
5
4
4
6
9
7
2
8
19
17
10
10
13
11
7
7
9
11
12
10
8
10
12
14
16
15
14
15
16
16
16
17
18
19
20
18
16
17
19
21
23
26
28
27
26
27
28
28
29
31
32
31
30
31
32
31
29
27
24
20
17
14
11
8
3
-2
-7
-12
-13
-14
-15
-16
-18
-20
-21
-22
-22
-22
-22
-22
-21
-20
-19
-18
-19
-19
-17
-16
-16
-16
-16
-16
-17
-17
-15
-14
-14
-14
-14
-14
-14
-15
-14
-13
-12
-14
-16
-16
-16
-15
-14
-15
-16
-17
-18
-17
-16
-15
-14
-13
-12
-13
-14
-14
-13
-11
-10
-11
-12
-13
-14
-13
-11
-9
-8
-8
-8
-9
-7
-3
-3
-5
-6
-6
-5
-4
-3
-2
-2
-2
-1
0
1
2
1
0
1
2
2
2
2
2
2
3
6
8
8
10
14
16
17
19
21
21
19
14
9
5
1
-3
-7
-8
-7
-7
-10
-13
-16
-13
-10
-9
-8
-7
-6
-4
-2
-2
-2
-1
1
5
8
7
5
2
1
4
8
12
14
15
17
19
19
17
5
-12
-41
-73
-121
-172
-232
-294
-348
-401
-404
-404
-339
-274
-209
-145
-88
-36
-16
1
10
19
24
28
29
30
29
28
28
30
35
38
37
36
37
38
37
36
37
40
44
43
38
39
43
44
44
44
43
43
45
45
43
44
46
46
46
47
48
50
52
52
52
55
58
56
54
55
57
60
62
64
66
66
68
73
77
79
79
77
78
82
84
85
88
91
92
92
92
91
90
91
85
77
76
74
69
64
58
52
43
36
35
33
27
21
14
8
6
4
6
8
7
4
-1
-4
-1
0
0
-1
-3
-4
-3
-2
-2
-2
-2
0
3
2
-1
-2
-1
0
1
2
2
4
6
5
4
5
6
6
6
7
8
6
5
9
12
10
8
10
12
12
12
11
10
10
10
10
10
11
12
11
10
11
12
11
10
10
10
9
8
9
10
10
6
2
8
14
11
8
10
12
6
2
6
10
9
8
12
14
16
18
16
18
27
31
28
24
20
15
10
8
8
6
2
-2
-5
-6
-7
-8
-9
-9
-7
-8
-11
-10
-6
1
8
5
2
4
6
8
10
10
10
11
12
12
12
14
18
25
30
28
25
20
10
-7
-34
-68
-114
-165
-223
-284
-338
-390
-416
-436
-388
-323
-258
-193
-128
-63
-28
-59
14
22
27
32
34
36
34
32
34
36
34
33
37
39
36
35
39
40
35
34
39
42
42
42
41
40
40
41
43
45
47
44
38
37
39
41
43
45
47
47
45
45
46
46
46
47
48
46
45
52
58
56
54
54
55
60
64
62
60
62
64
65
69
75
77
74
72
73
73
71
66
58
58
61
60
57
52
47
42
37
27
17
15
12
8
4
5
6
-1
-8
-8
-8
-10
-11
-7
-4
-6
-8
-8
-9
-12
-12
-6
-4
-11
-13
-11
-10
-10
-9
-7
-7
-9
-10
-9
-8
-7
-6
-7
-7
-5
-2
1
-2
2
-8
-8
-7
-6
-3
0
-3
-6
-5
-4
-4
-5
-9
-10
-3
0
-7
-12
-12
-12
-9
-9
-12
-14
-15
-13
-8
-7
-9
-11
-13
-14
-14
-14
-15
-18
-21
-20
-17
-10
-3
-8
-14
-17
-20
-18
-16
-16
-15
-8
-2
-6
-9
-5
0
8
11
1
-6
-7
-9
-13
-17
-20
-22
-23
-25
-27
-30
-34
-34
-30
-28
-28
-28
-28
-23
-15
-16
-19
-19
-17
-16
-16
-16
-16
-16
-16
-15
-14
-15
-15
-10
-6
-5
-4
-6
-12
-27
-47
-75
-110
-153
-186
-209
-229
-246
-245
-229
-189
-136
-112
-101
-69
-28
-19
-21
-13
-2
0
-1
0
3
4
4
6
6
6
6
7
8
9
10
10
10
10
10
11
12
13
14
14
14
14
14
14
15
17
18
18
18
18
18
19
21
23
24
25
26
26
26
27
28
29
31
33
34
34
36
38
39
40
42
44
45
46
50
54
56
58
57
57
60
61
57
55
58
58
54
50
46
42
38
35
31
27
22
17
12
10
9
7
5
3
1
0
-1
-2
-2
-2
-2
-3
-4
-3
-2
-4
-6
-3
0
-1
-2
-3
-4
-3
-2
-2
-2
-1
0
1
2
2
1
-1
-1
1
2
1
0
0
0
0
0
-1
-2
-2
-2
-2
-2
-2
-3
-4
-3
-2
-2
-2
-3
-4
-3
-2
-1
0
-2
-4
-3
-2
-3
-4
-2
0
-1
-2
-1
0
-1
-2
-2
-2
-1
-1
-3
-4
-3
-1
1
0
-3
-2
1
1
-1
0
2
1
0
4
8
7
7
13
18
21
22
14
7
0
-5
-8
-10
-9
-10
-15
-18
-19
-20
-21
-19
-14
-15
-20
-17
-9
-6
-7
-6
-3
-2
-2
-2
-1
0
1
2
2
-1
-4
2
8
17
24
22
18
6
-7
-21
-44
-85
-134
-198
-263
-329
-393
-457
-459
-394
-329
-264
-199
-134
-85
-45
-19
2
11
16
20
23
24
25
27
29
29
27
26
26
30
32
34
36
36
36
35
34
34
34
37
40
40
39
36
35
38
40
40
40
43
42
38
40
47
50
50
49
47
46
46
49
53
54
55
56
56
56
57
61
65
67
68
69
70
71
73
81
88
87
86
88
90
91
92
90
89
93
94
86
81
78
75
73
67
57
51
48
41
31
26
23
21
19
13
6
5
7
7
5
2
-1
-2
0
-3
-6
-6
-6
-8
-10
-5
0
-3
-6
-4
-2
-3
-3
0
1
-3
-6
-4
-2
-2
-2
-1
0
-1
-1
2
3
1
0
1
2
1
3
7
5
1
0
1
2
2
0
-2
0
2
3
4
1
-2
2
6
4
1
-3
-6
-6
-5
-1
2
1
0
1
2
2
0
-4
-6
-6
-5
-3
-2
-1
-2
-5
-3
1
2
3
3
1
2
5
8
10
15
20
15
10
8
5
-1
-6
-9
-12
-13
-15
-20
-24
-26
-26
-20
-17
-21
-24
-23
-20
-15
-11
-9
-8
-9
-12
-15
-14
-11
-10
-9
-10
-13
-9
-3
-3
-5
-3
2
-2
-6
-20
-35
-66
-98
-141
-181
-208
-233
-256
-269
-259
-231
-169
-125
-111
-85
-45
-23
-20
-15
-8
-2
2
1
-5
-2
7
7
2
0
0
1
3
4
3
2
1
2
0
3
0
-2
-4
3
10
5
0
-2
-3
6
11
6
3
6
8
9
10
9
8
8
8
7
6
5
6
10
12
11
9
7
8
11
13
15
16
15
14
15
18
21
23
24
26
28
26
24
24
24
24
24
23
21
17
14
12
9
6
3
-1
-6
-11
-15
-17
-19
-21
-22
-23
-24
-24
-25
-27
-28
-28
-27
-25
-24
-25
-26
-25
-24
-24
-24
-22
-22
-22
-22
-22
-21
-20
-20
-20
-20
-20
-20
-20
-18
-16
-16
-16
-17
-18
-16
-14
-15
-16
-16
-16
-15
-14
-14
-14
-14
-14
-14
-14
-15
-16
-15
-15
-17
-18
-17
-16
-16
-14
-14
-16
-18
-15
-12
-13
-14
-12
-10
-12
-14
-12
-10
-10
-10
-9
-8
-9
-10
-10
-10
-9
-8
-8
-8
-9
-10
-9
-8
-7
-5
-3
0
3
4
4
8
13
14
13
7
2
-3
-8
-11
-14
-15
-16
-16
-17
-22
-26
-25
-23
-19
-17
-22
-23
-15
-10
-10
-9
-7
-6
-6
-6
-6
-5
-3
-2
-3
-4
-5
-3
1
7
15
15
13
5
-3
-21
-40
-77
-115
-171
-229
-294
-358
-416
-451
-396
-339
-276
-213
-148
-93
-58
-27
-4
10
10
11
16
19
22
24
24
24
24
24
24
25
27
28
28
28
27
27
29
30
30
31
30
34
34
34
34
34
34
36
38
36
34
36
38
39
40
41
42
43
43
40
40
45
47
44
45
51
54
54
54
55
58
61
62
63
68
73
74
75
76
77
79
81
82
82
84
86
85
84
79
74
71
68
66
63
55
50
46
41
31
24
25
22
13
8
9
7
1
-1
1
-1
-8
-8
-4
-3
-5
-6
-5
-4
-5
-6
-6
-6
-7
-8
-8
-6
-4
-3
-2
-3
-4
-5
-6
-5
-4
-1
2
-1
-4
-3
-2
-1
1
5
7
4
2
3
5
7
7
5
8
14
11
4
4
7
7
5
6
9
9
7
6
6
5
6
4
2
1
0
3
6
7
8
5
2
0
-2
0
2
4
5
2
2
7
11
14
16
16
17
20
21
19
16
13
7
0
-3
-5
-6
-7
-11
-15
-16
-15
-13
-12
-14
-16
-13
-10
-6
-2
-2
-2
-1
0
0
1
5
7
4
2
3
4
6
10
15
19
22
23
21
13
2
-17
-40
-83
-134
-193
-253
-318
-383
-449
-514
-461
-396
-331
-265
-200
-135
-70
-11
2
15
22
28
30
32
33
34
34
34
34
35
39
40
35
33
38
40
40
40
39
38
39
40
41
42
43
44
44
44
44
43
41
41
43
44
44
42
42
44
46
48
50
48
46
47
48
49
50
53
55
52
51
57
60
62
64
63
64
68
70
71
73
75
76
77
77
75
75
77
78
77
71
65
64
63
61
59
49
40
35
30
22
14
15
15
7
0
2
3
-1
-5
-12
-16
-15
-14
-12
-9
-6
-4
-4
-4
-5
-8
-12
-14
-13
-10
-7
-10
-16
-12
-4
-7
-13
-10
-5
-3
-1
-7
-16
-11
-6
-3
0
0
0
-1
-2
-6
-10
-7
-4
-1
2
0
-4
-9
-10
-4
-2
-9
-12
-13
-13
-10
-6
-2
-4
-11
-12
-9
-12
-18
-19
-17
-14
-11
-11
-13
-16
-14
-16
-12
-16
-20
-16
-12
-13
-14
-17
-20
-15
-12
-12
-13
-17
-18
-11
-4
1
4
1
-1
-3
-7
-13
-19
-25
-28
-28
-30
-33
-33
-31
-35
-42
-38
-31
-31
-33
-33
-31
-25
-20
-21
-22
-20
-18
-19
-20
-21
-22
-21
-19
-15
-12
-13
-13
-10
-8
-9
-11
-14
-27
-49
-80
-117
-153
-190
-211
-224
-241
-260
-232
-185
-158
-136
-99
-58
-42
-29
-26
-23
-17
-10
-8
-6
-4
-2
-4
-6
-2
2
2
2
0
-2
-1
0
2
4
2
0
0
0
1
2
2
2
3
4
3
3
5
6
7
8
7
6
6
6
7
9
11
12
12
10
10
13
16
17
18
18
18
18
18
23
26
29
32
32
32
32
33
36
39
42
44
43
41
39
38
38
38
38
35
30
25
20
18
17
13
9
5
1
-2
-5
-6
-6
-7
-8
-7
-6
-9
-12
-10
-8
-7
-6
-8
-10
-9
-8
-7
-6
-6
-6
-7
-8
-8
-8
-7
-6
-5
-4
-5
-6
-6
-6
-6
-6
-5
-4
-5
-6
-6
-6
-6
-6
-6
-5
-4
-6
-8
-7
-6
-6
-6
-6
-6
-7
-8
-7
-6
-7
-8
-8
-8
-9
-10
-7
-6
-6
-6
-6
-6
-5
-4
-5
-6
-5
-4
-5
-6
-5
-4
-3
-3
-5
-6
-6
-7
-10
-5
0
0
0
-1
-2
1
4
6
9
14
17
13
10
9
5
-2
-7
-12
-14
-14
-15
-17
-19
-22
-24
-24
-23
-21
-21
-23
-19
-12
-10
-11
-12
-11
-9
-7
-4
-2
-3
-4
-5
-6
-6
-6
-2
3
10
15
11
7
2
-9
-31
-60
-101
-149
-205
-266
-332
-397
-463
-452
-387
-322
-257
-192
-127
-82
-45
-20
0
7
11
14
17
19
21
22
24
26
28
26
24
24
24
26
28
28
28
31
34
31
28
29
30
31
32
32
33
38
38
34
33
36
38
38
38
39
40
40
40
41
42
42
44
47
48
49
50
50
51
52
53
54
60
66
65
64
68
72
72
73
78
82
84
86
86
86
85
84
85
86
85
80
73
68
64
59
54
47
39
33
28
22
15
14
15
12
7
5
3
-2
-6
-6
-6
-7
-8
-6
-4
-5
-6
-5
-4
-3
-2
-4
-6
-7
-8
-10
-10
-4
0
-1
-3
-6
-5
0
1
-1
0
4
3
-2
-1
3
4
3
2
3
2
-1
1
6
9
12
6
0
1
2
-1
-3
2
6
3
0
2
4
3
2
0
-2
-3
-4
-1
0
1
2
2
2
1
-1
-3
-4
-4
-3
-1
0
1
2
3
6
9
10
10
15
18
17
16
13
10
8
4
-7
-16
-16
-16
-18
-20
-22
-24
-23
-20
-15
-13
-18
-18
-14
-11
-9
-9
-12
-12
-9
-10
-13
-11
-6
-7
-11
-11
-9
-4
1
7
13
8
2
-10
-23
-47
-73
-116
-157
-189
-220
-248
-272
-280
-266
-201
-157
-152
-123
-61
-26
-26
-19
-3
4
5
5
2
1
3
6
9
7
3
6
12
14
14
12
9
8
7
6
4
7
10
10
10
11
12
7
2
6
11
16
19
14
10
9
10
15
18
17
16
13
13
15
18
22
23
20
17
15
16
19
22
25
26
27
28
28
29
31
32
32
35
38
34
30
35
40
39
38
34
30
29
28
27
25
20
14
8
4
2
-1
-6
-9
-11
-12
-13
-15
-17
-18
-18
-17
-15
-15
-17
-18
-17
-16
-15
-14
-15
-16
-16
-14
-12
-13
-14
-13
-12
-11
-10
-10
-10
-12
-14
-13
-12
-10
-8
-9
-10
-9
-8
-8
-8
-8
-8
-8
-9
-11
-12
-11
-10
-9
-8
-9
-9
-7
-7
-9
-10
-9
-8
-9
-10
-8
-7
-6
-7
-8
-7
-6
-5
-4
-4
-4
-5
-6
-4
-2
-3
-4
-3
-2
-2
-2
-2
-2
-1
0
0
1
3
6
9
11
13
16
19
20
19
18
17
10
3
-2
2
-8
-8
-7
-6
-9
-12
-16
-19
-13
-8
-9
-9
-4
0
0
0
2
5
8
10
10
10
9
8
9
10
11
12
13
18
24
26
27
25
21
4
-15
-52
-91
-136
-181
-233
-285
-338
-387
-366
-341
-279
-217
-152
-94
-60
-29
-10
7
18
27
32
36
36
36
35
35
38
40
41
42
41
40
41
42
43
45
47
47
45
44
43
45
49
50
51
51
48
48
48
49
50
51
52
52
52
53
54
55
56
57
58
58
58
59
60
62
64
67
67
65
66
70
72
73
77
82
84
83
84
87
91
95
96
95
92
89
90
88
90
86
83
80
76
72
65
60
56
51
42
36
34
31
28
25
21
18
16
14
13
12
11
10
9
8
7
6
7
8
9
8
5
4
5
6
7
8
7
6
5
7
10
11
12
13
14
10
6
10
14
13
12
12
12
16
17
13
10
12
14
13
12
11
12
16
17
15
14
15
16
15
14
15
15
13
12
12
12
12
12
12
12
10
13
16
15
14
13
12
14
16
17
18
18
19
23
27
32
35
31
28
26
22
15
11
9
7
4
2
2
0
-4
-6
-6
-3
1
0
-3
-1
3
8
13
13
14
10
10
14
18
17
16
16
16
16
16
21
25
29
33
36
37
33
24
7
-14
-41
-83
-140
-202
-268
-333
-399
-448
-488
-455
-390
-325
-260
-195
-130
-65
0
17
27
34
41
42
42
43
44
46
48
47
46
48
50
52
54
52
50
49
48
46
45
49
52
54
55
52
51
53
54
54
55
59
58
55
56
59
59
57
58
61
60
57
56
55
54
56
60
64
62
60
61
62
66
70
73
76
77
78
78
79
83
86
87
88
86
84
84
84
83
84
90
88
81
74
67
62
59
49
37
34
33
28
23
22
23
20
24
9
4
4
4
1
-2
3
7
-1
-7
-2
2
1
1
4
5
2
0
2
3
0
-1
2
3
0
-1
2
4
4
5
7
8
7
6
7
8
9
9
7
6
7
9
10
7
4
2
0
5
10
7
4
4
4
4
4
8
9
5
1
-2
-4
-4
-2
2
3
0
1
6
4
-3
-6
-6
-5
-3
-3
-5
-5
-3
-1
1
2
2
2
2
3
4
9
14
13
12
10
8
8
7
1
-6
-14
-19
-15
-15
-23
-28
-26
-24
-21
-21
-24
-25
-23
-18
-11
-9
-11
-14
-17
-16
-13
-12
-12
-13
-15
-16
-15
-13
-14
-8
-6
-6
-6
-6
-8
-22
-38
-63
-93
-140
-180
-205
-227
-245
-255
-251
-223
-163
-128
-123
-94
-43
-21
-23
-20
-11
-8
-7
-4
-1
1
3
3
1
1
3
4
5
6
7
6
4
3
2
4
6
7
8
6
4
5
6
7
8
9
10
8
6
7
8
10
13
15
16
15
14
14
14
15
17
19
20
20
20
21
24
27
28
29
30
30
31
34
36
38
40
42
42
42
44
46
45
44
43
42
40
37
34
31
27
24
23
19
12
7
5
3
1
-1
-3
-5
-7
-8
-9
-9
-7
-6
-7
-8
-9
-10
-9
-8
-8
-8
-8
-7
-6
-6
-6
-5
-4
-5
-6
-6
-6
-6
-6
-7
-8
-6
-4
-6
-7
-4
-4
-8
-9
-7
-6
-6
-6
-6
-6
-7
-7
-5
-4
-5
-6
-5
-5
-7
-8
-8
-8
-8
-8
-8
-7
-6
-8
-10
-10
-10
-8
-6
-9
-12
-11
-10
-8
-6
-6
-7
-10
-10
-6
-5
-7
-8
-8
-7
-5
-3
-1
3
7
8
8
9
11
9
5
0
-5
-8
-12
-13
-14
-16
-18
-21
-24
-24
-24
-22
-20
-23
-24
-16
-10
-10
-10
-12
-14
-12
-9
-6
-4
-5
-6
-7
-8
-8
-4
2
6
11
11
9
4
-1
-14
-28
-67
-108
-166
-110
-291
-357
-422
-478
-430
-379
-314
-249
-184
-123
-74
-34
-16
-2
5
11
17
20
22
24
21
20
20
21
23
24
23
23
25
26
25
25
27
29
31
32
31
30
30
30
30
33
36
35
34
34
34
33
32
36
40
37
34
37
40
40
40
41
43
46
48
46
46
50
52
52
53
56
58
59
62
66
68
69
72
75
76
77
80
83
84
83
80
76
73
70
68
66
61
56
53
49
41
33
27
21
16
12
10
6
1
-2
-3
-5
-8
-10
-11
-12
-12
-12
-13
-14
-13
-12
-11
-10
-11
-11
-9
-8
-9
-10
-11
-11
-12
-6
-4
-4
-4
-4
-4
-3
-2
-1
0
1
2
2
2
2
2
4
6
6
6
5
4
5
6
7
9
11
10
6
6
10
10
7
6
7
8
9
8
5
6
9
6
2
7
12
8
4
1
-2
0
2
4
6
8
10
8
7
12
18
24
26
20
16
17
14
6
1
-1
-2
-3
-6
-10
-12
-13
-17
-21
-18
-13
-16
-21
-16
-9
-4
2
0
-2
-4
-6
-3
0
3
6
2
-2
-3
-4
-2
3
15
22
21
17
9
-2
-15
-43
-84
-127
-171
-214
-256
-294
-329
-315
-281
-239
-195
-135
-71
-48
-30
-8
14
16
16
17
20
23
26
22
18
22
26
20
16
18
20
23
26
24
24
30
32
27
24
25
26
25
24
25
22
13
20
35
35
27
24
23
26
33
33
31
30
29
28
27
25
24
30
36
34
32
31
30
34
38
39
40
37
36
43
47
44
42
43
44
46
48
48
49
52
52
48
46
46
39
27
27
31
24
12
7
3
3
5
-3
-13
-8
0
-7
-14
-18
-22
-17
-12
-17
-22
-18
-14
-16
-17
-11
-7
-12
-18
-23
-24
-18
-16
-21
-19
-9
-9
-18
-18
-11
-11
-16
-16
-13
-14
-17
-18
-17
-15
-13
-12
-12
-14
-12
-17
-16
-15
-14
-14
-14
-17
-20
-19
-18
-18
-18
-19
-20
-21
-22
-21
-20
-18
-16
-19
-20
-20
-20
-19
-18
-18
-18
-17
-16
-17
-18
-19
-20
-19
-18
-18
-17
-15
-14
-15
-15
-14
-12
-10
-9
-8
-6
-4
0
4
5
6
3
-2
-9
-15
-20
-24
-22
-21
-24
-27
-29
-30
-31
-30
-26
-25
-27
-25
-20
-17
-15
-14
-14
-14
-13
-10
-7
-6
-6
-6
-6
-6
-6
-4
-2
3
8
9
9
2
-8
-28
-53
-93
-135
-181
-222
-254
-287
-322
-312
-252
-211
-185
-138
-76
-47
-39
-24
-6
4
10
14
17
19
21
22
23
24
25
26
26
29
30
30
30
31
32
32
32
34
36
34
32
33
34
35
36
37
38
37
36
37
39
41
42
42
42
41
40
41
44
47
48
48
48
48
48
49
51
53
54
54
56
58
59
60
63
66
67
68
70
72
72
72
72
72
72
71
67
64
62
60
59
55
48
42
37
32
28
25
21
16
10
7
5
4
4
3
1
-3
-7
-8
-7
-6
-4
-3
-2
-3
-4
-5
-6
-3
0
-2
-4
-4
-4
-4
-4
-4
-4
-3
-2
-2
-3
-6
-6
-1
2
2
2
1
0
-1
-2
-2
-1
1
2
2
0
-3
-4
-3
-1
-2
1
0
-4
-8
-2
4
1
-2
-4
-6
-4
-2
-3
-4
-5
-6
-4
-2
-4
-5
0
1
-2
-4
-3
-2
-3
-2
1
4
8
10
10
11
13
14
15
10
3
-2
-7
-10
-12
-15
-18
-15
-12
-18
-24
-25
-25
-18
-13
-18
-20
-13
-8
-10
-11
-8
-6
-4
-2
-3
-3
-1
0
-1
-2
-2
-2
-1
6
14
16
17
11
2
-14
-30
-69
-110
-173
-237
-302
-368
-433
-486
-425
-364
-299
-234
-169
-110
-67
-31
-11
4
10
16
22
26
25
24
25
27
29
29
27
29
34
36
35
34
34
34
35
36
36
36
36
36
36
36
36
39
40
42
44
43
42
44
46
46
46
46
46
46
46
47
48
50
52
54
56
56
57
59
61
64
67
70
72
73
75
77
81
85
86
87
86
83
86
91
92
92
89
86
81
76
76
76
68
61
53
46
42
37
31
25
21
17
13
8
3
0
-1
-1
2
2
-3
-6
-6
-6
-7
-7
-5
-4
-5
-7
-9
-9
-7
-5
-3
-2
-3
-4
-4
-5
-6
-1
4
-1
-6
-6
-6
-2
2
2
2
1
1
5
8
7
4
-1
-2
3
5
3
2
3
3
1
0
0
0
0
0
0
0
1
-1
-5
-4
-1
-1
0
0
4
0
-4
-2
0
0
0
-1
-2
-5
-7
-1
2
-4
-8
-8
-7
-3
-1
-4
-3
4
8
8
9
12
14
13
12
12
9
4
-6
-18
-20
-19
-17
-15
-17
-21
-23
-24
-27
-30
-24
-18
-15
-12
-13
-14
-10
-6
-8
-9
-5
-4
-10
-12
-7
-5
-8
-10
-10
-6
2
6
6
4
0
-16
-36
-66
-100
-141
-184
-210
-233
-249
-264
-244
-219
-180
-140
-103
-67
-43
-22
-18
-13
-5
2
1
0
1
1
-4
-6
3
7
4
2
4
5
2
1
4
4
-2
-2
2
4
4
4
4
4
5
6
5
5
7
8
8
6
8
6
10
9
8
7
6
6
6
8
10
12
14
14
14
14
14
16
18
19
20
19
18
19
22
26
29
31
32
32
31
29
28
28
28
27
22
17
14
11
10
9
6
4
-3
-10
-14
-18
-17
-16
-18
-20
-21
-22
-23
-24
-23
-22
-22
-22
-22
-22
-24
-25
-22
-19
-17
-17
-19
-20
-19
-17
-15
-14
-14
-14
-14
-14
-15
-15
-13
-12
-12
-12
-14
-16
-18
-15
-12
-12
-12
-13
-14
-15
-16
-14
-12
-11
-10
-12
-14
-15
-15
-12
-10
-9
-9
-11
-12
-11
-10
-9
-8
-8
-8
-9
-10
-9
-8
-7
-6
-6
-6
-6
-6
-6
-5
-4
-4
-4
-5
-6
-5
-4
-3
-2
-1
0
-2
-4
-5
-4
2
6
7
8
9
12
16
18
18
16
12
6
-1
-5
-7
-8
-8
-10
-13
-16
-19
-20
-20
-17
-13
-14
-16
-11
-6
-4
-2
-2
-2
-2
-2
0
2
3
4
3
2
3
4
6
10
16
20
19
15
7
-6
-25
-59
-102
-153
-207
-270
-335
-399
-463
-421
-356
-291
-226
-161
-96
-63
-32
-12
8
12
16
20
24
24
24
26
28
28
28
29
30
30
30
31
32
32
32
33
34
34
34
34
34
35
36
35
35
37
38
37
36
37
38
39
41
43
44
44
43
42
43
44
46
48
47
46
48
50
51
52
55
58
59
60
61
63
66
69
74
76
77
78
78
79
81
82
81
80
79
74
68
66
65
59
53
46
39
34
29
25
22
17
12
8
4
1
-2
-3
-4
-6
-8
-9
-10
-12
-14
-14
-14
-13
-12
-13
-14
-13
-12
-11
-9
-7
-7
-11
-12
-12
-10
-7
-6
-7
-8
-7
-6
-7
-8
-8
-7
-4
-4
-4
-5
-6
-3
0
0
0
-1
-2
-1
0
-1
-1
2
4
2
0
-2
-3
2
3
1
0
-1
-2
-1
0
-1
-2
-2
-2
-2
-2
-3
-4
-3
-2
-3
-4
-4
-2
2
2
2
3
4
9
14
15
16
15
13
7
1
-4
-8
-9
-11
-14
-16
-17
-20
-24
-25
-23
-22
-21
-21
-23
-19
-11
-8
-8
-8
-9
-8
-5
-4
-4
-4
-4
-2
0
-1
-2
5
12
13
14
13
11
3
-9
-29
-60
-111
-164
-223
-284
-350
-414
-478
-478
-413
-348
-283
-218
-153
-92
-35
-8
4
11
15
18
21
22
22
21
19
20
23
24
26
25
24
29
34
32
30
29
28
30
32
31
30
31
32
32
32
33
34
32
31
36
36
31
31
37
39
36
35
37
36
33
35
41
42
41
40
39
40
43
47
44
46
40
49
58
60
62
65
68
65
62
60
59
64
67
63
60
59
55
47
43
46
45
38
31
25
17
8
5
7
5
0
-3
-5
-8
-11
-12
-13
-13
-11
-12
-15
-18
-20
-18
-16
-14
-12
-14
-16
-17
-18
-18
-17
-12
-9
-16
-20
-19
-16
-10
-7
-11
-13
-10
-9
-11
-10
-6
-5
-9
-8
-4
-5
-9
-6
-1
-4
-9
-9
-7
-9
-13
-11
-6
-6
-6
-6
-6
-4
-2
-6
-10
-14
-17
-12
-8
-8
-8
-9
-9
-6
-6
-12
-16
-15
-12
-8
-7
-10
-13
-15
-12
-6
-4
-5
-8
-11
-12
-12
-13
-15
-15
-13
-8
-12
-2
-2
1
4
5
6
5
3
-3
-9
-18
-24
-24
-24
-25
-26
-27
-30
-36
-37
-28
-25
-27
-26
-22
-19
-17
-16
-16
-16
-16
-15
-13
-13
-15
-15
-13
-12
-11
-10
-10
-5
0
-1
-2
-5
-10
-32
-56
-93
-130
-166
-198
-214
-233
-255
-258
-225
-192
-163
-128
-88
-58
-36
-24
-20
-12
-2
3
5
7
9
10
9
8
9
10
11
12
13
14
14
14
16
17
18
18
18
18
18
19
20
20
20
23
26
23
20
22
24
25
26
28
30
29
28
29
30
31
33
35
36
36
36
35
37
41
42
43
44
45
46
47
49
48
56
60
60
60
60
60
63
66
67
68
63
60
58
55
51
48
46
41
34
28
21
18
17
15
13
10
6
3
1
0
0
0
0
0
-1
-2
-2
-2
-1
1
3
1
-2
-2
-2
-1
0
1
2
0
-2
-2
-2
0
2
2
2
2
2
0
-1
2
4
3
2
2
1
-1
-1
1
2
2
2
1
0
0
0
0
0
0
0
-1
-2
0
0
0
-1
-2
-2
-2
0
2
1
0
0
0
0
0
1
2
1
0
1
2
2
2
2
2
2
2
2
2
2
2
2
2
2
3
5
8
11
14
17
18
18
21
22
18
14
9
3
-4
-10
-6
-2
-7
-10
-13
-16
-18
-19
-13
-10
-11
-11
-8
-5
-3
-2
-3
-3
-1
0
1
2
1
0
1
1
-1
3
9
12
15
16
17
10
2
-15
-35
-78
-123
-180
-239
-304
-370
-435
-470
-417
-360
-295
-230
-165
-109
-66
-32
-10
4
9
15
21
24
23
22
22
24
27
28
28
28
28
28
29
31
33
34
35
36
34
31
28
33
38
38
38
37
36
37
38
39
40
40
40
42
43
39
38
43
46
46
46
46
46
47
48
49
50
50
50
50
55
62
64
64
65
67
70
73
76
74
79
78
81
84
84
84
84
84
81
78
76
74
71
65
56
49
45
39
32
26
19
15
12
9
6
3
1
-1
-3
-4
-4
-4
-4
-5
-7
-8
-7
-6
-6
-6
-7
-6
-4
-7
-10
-7
-4
-2
0
-1
-2
-2
-2
-3
-4
-2
1
6
8
2
-1
3
5
3
2
3
5
7
6
2
0
0
1
3
6
9
7
3
2
3
5
7
7
4
4
4
-3
-10
-3
4
4
4
3
2
-1
-4
-3
-1
2
4
2
0
-2
-4
-1
-1
-4
-6
-5
-4
-4
-4
-4
0
6
8
8
8
7
13
21
22
22
20
22
8
0
-1
-2
-4
-6
-9
-12
-11
-11
-20
-25
-20
-16
-18
-19
-16
-12
-7
-5
-8
-8
-3
-2
-6
-7
-5
-3
-1
-5
-12
-10
-4
1
5
9
13
7
-1
-11
-21
-62
-103
-140
-176
-207
-237
-265
-286
-272
-249
-198
-151
-114
-79
-48
-25
-15
-6
2
6
6
9
15
17
14
12
12
12
13
12
9
11
16
16
13
15
19
20
19
18
17
16
14
17
20
18
16
17
18
18
18
19
20
19
18
19
20
21
22
21
20
22
24
25
26
25
24
23
23
26
28
29
31
33
34
34
34
34
35
37
38
39
40
40
44
46
42
38
37
36
32
28
24
19
14
10
7
3
-1
-4
-6
-8
-10
-12
-15
-16
-15
-14
-15
-17
-19
-20
-19
-17
-15
-14
-13
-12
-13
-14
-15
-15
-13
-12
-13
-13
-12
-12
-12
-11
-10
-9
-8
-10
-12
-11
-10
-10
-10
-10
-10
-10
-10
-10
-10
-9
-8
-8
-9
-12
-13
-11
-10
-10
-10
-11
-12
-12
-11
-9
-7
-5
-6
-9
-10
-10
-10
-8
-5
-2
-5
-8
-8
-8
-7
-6
-6
-6
-6
-6
-6
-5
-2
0
-1
-2
-2
-2
-3
-3
-1
0
0
-1
-3
-4
-3
0
3
6
9
10
11
14
17
18
19
16
20
4
-2
-6
-10
-9
-8
-11
-14
-18
-22
-21
-19
-15
-12
-14
-15
-9
-6
-5
-4
-4
-4
-3
-2
-1
-1
-3
-2
2
4
3
5
9
13
17
18
19
9
-5
-27
-49
-101
-153
-205
-258
-318
-376
-428
-461
-396
-331
-266
-201
-136
-81
-49
-22
-5
8
14
18
20
22
23
24
25
26
26
27
29
30
30
30
31
32
32
33
35
36
35
34
35
36
36
36
36
38
40
41
42
40
38
40
42
43
44
44
44
44
44
45
46
46
46
49
50
50
51
53
55
58
60
60
61
63
67
71
73
75
76
76
77
79
80
80
83
84
80
76
75
74
69
64
62
59
52
45
39
33
29
24
18
14
13
10
5
2
2
1
-1
-2
-3
-4
-5
-6
-6
-6
-5
-4
-5
-6
-7
-8
-7
-3
1
-1
-4
-4
-4
-3
-2
0
2
1
0
2
4
4
4
8
11
15
18
16
13
9
4
0
-2
-3
-6
-10
-13
-17
-17
-15
-13
-11
-7
-3
0
3
4
4
4
3
2
2
3
4
3
2
2
2
7
13
20
25
20
12
-2
-21
-50
-91
-150
-212
-278
-343
-409
-469
-524
-511
-446
-381
-316
-251
-186
-121
-56
-20
7
16
23
27
31
32
31
32
30
34
32
33
34
37
40
39
38
39
40
39
38
40
42
42
42
43
44
45
45
42
41
43
45
47
48
48
49
51
52
51
50
49
51
55
53
49
51
55
55
53
56
60
62
64
65
66
71
76
75
74
78
82
81
80
80
80
78
75
72
69
65
60
56
52
47
41
35
31
27
21
13
7
3
2
1
1
3
0
-5
-2
3
1
-4
-5
-6
-6
-6
-5
-4
-3
-2
-2
-2
-3
-4
-2
0
0
0
-2
-3
0
2
3
4
4
4
3
2
1
0
1
1
-1
0
3
4
3
3
5
5
3
0
2
-2
0
0
0
-2
-4
-3
-2
-4
-6
-4
-2
-3
-4
-5
-6
-5
-4
-4
-4
-5
-8
-12
-11
-5
-3
-5
-5
-3
-4
-8
-7
-2
0
-1
-3
-5
-6
-7
-7
-5
-2
0
-3
-6
-6
-6
-3
0
0
-1
-7
-12
-12
-11
-6
-2
-3
-4
-5
-6
-6
-6
-6
-5
-3
-3
-6
-8
-7
-6
-6
-6
-7
-8
-8
-8
-8
-7
-5
-4
-4
-4
-6
-7
-8
-8
-8
-6
-4
-6
-8
-8
-8
-7
-6
-7
-8
-7
-6
-8
-10
-9
-8
-5
-5
-7
-8
-9
-9
-7
-6
-5
-5
-7
-7
-5
-2
1
3
5
6
7
8
8
10
10
5
0
-5
-10
-12
-14
-14
-14
-16
-18
-21
-24
-23
-22
-20
-17
-14
-12
-9
-9
-12
-12
-8
-6
-5
-4
-4
-4
-4
-4
-3
1
5
7
9
9
7
-3
-13
-37
-61
-108
-154
-186
-218
-252
-283
-302
-304
-239
-183
-153
-117
-67
-32
-25
-14
1
11
15
19
22
24
24
24
25
26
27
30
33
34
35
36
35
34
35
36
37
38
38
38
38
39
40
41
42
43
44
43
42
43
44
45
46
46
46
46
46
47
48
50
52
52
52
51
51
53
54
55
56
57
58
58
59
61
62
63
63
61
61
63
64
64
61
60
57
54
51
48
44
40
34
29
24
19
15
11
7
3
-3
-6
-7
-8
-11
-12
-12
-12
-13
-14
-14
-14
-14
-14
-14
-14
-13
-12
-12
-11
-9
-8
-9
-10
-9
-9
-10
-9
-8
-7
-6
-6
-6
-7
-8
-5
-2
-4
-6
-5
-4
-2
0
2
4
3
2
3
4
5
6
7
8
7
6
6
6
6
8
11
11
9
7
5
6
9
10
8
8
8
8
8
7
6
7
8
7
6
4
2
5
8
7
6
6
6
5
4
5
6
5
4
5
5
2
1
3
4
4
3
1
0
-1
-1
1
2
3
3
4
0
0
1
2
4
6
1
-4
-2
0
0
0
2
3
0
-2
-1
0
1
2
3
4
5
6
7
10
14
18
22
22
18
14
11
6
1
-4
-9
-10
-11
-12
-12
-14
-16
-18
-20
-16
-12
-15
-17
-11
-6
-4
-2
-3
-4
-2
0
2
4
4
2
-3
-3
4
10
15
18
19
19
15
5
-10
-36
-67
-114
-167
-226
-286
-343
-399
-418
-433
-372
-306
-241
-176
-111
-51
-25
-2
5
11
21
28
29
30
28
27
30
32
33
34
36
38
37
37
40
42
41
40
40
43
48
49
47
45
43
42
43
43
41
40
41
42
42
48
52
51
50
50
50
48
46
48
50
50
50
52
54
52
51
57
60
61
62
62
64
68
70
71
72
72
74
78
81
83
84
84
80
75
75
77
75
71
67
63
58
54
49
44
39
34
26
20
16
11
5
0
1
2
-2
-4
-2
0
-2
-4
-2
0
-1
-2
-3
-5
-8
-9
-7
-6
-7
-8
-7
-5
-3
-2
-1
-1
-3
-4
-5
-5
-2
0
2
1
0
-5
-10
-3
2
-2
-5
-1
2
0
-2
-2
0
5
6
1
-2
-2
-4
-9
-8
-1
1
-2
-3
-1
0
0
-2
-5
-6
-5
-9
-15
-12
-7
-6
-6
-4
-4
-4
-4
-3
-2
-7
-12
-6
-3
-10
-16
-13
-10
-8
-6
-7
-8
-9
-10
-7
-6
-7
-8
-9
-10
-11
-11
-9
-8
-7
-7
-9
-10
-11
-8
-3
-1
1
2
2
4
6
5
4
0
-4
-12
-18
-19
-20
-22
-24
-25
-26
-30
-32
-33
-33
-29
-26
-26
-24
-20
-18
-19
-20
-19
-17
-15
-14
-14
-15
-17
-18
-17
-14
-11
-7
-3
-2
-3
-6
-10
-28
-48
-87
-126
-166
-202
-218
-237
-264
-276
-240
-207
-181
-147
-97
-60
-45
-32
-23
-15
-6
0
4
7
9
9
6
4
5
7
9
10
11
12
12
12
11
12
15
16
16
17
16
16
16
17
18
20
22
21
20
20
20
22
24
24
24
25
26
25
25
28
30
30
30
30
31
33
35
37
38
38
39
41
42
43
46
49
50
51
52
53
57
60
60
60
59
58
58
58
56
54
52
49
44
39
35
30
24
19
15
11
7
4
3
0
-4
-6
-7
-8
-9
-10
-10
-10
-11
-12
-11
-10
-11
-11
-9
-9
-11
-12
-10
-11
-12
-11
-10
-9
-8
-9
-10
-8
-6
-7
-8
-8
-8
-8
-8
-8
-8
-8
-8
-7
-7
-9
-10
-9
-8
-9
-10
-9
-8
-9
-10
-9
-8
-8
-8
-9
-10
-10
-10
-10
-8
-6
-8
-10
-10
-10
-10
-10
-8
-6
-8
-10
-10
-10
-9
-8
-8
-8
-7
-6
-9
-10
-10
-9
-6
-4
-5
-6
-7
-8
-8
-7
-5
-4
-5
-7
-9
-9
-7
-6
-5
-6
-8
-8
-8
-4
0
2
4
7
10
9
8
9
10
6
2
-7
-12
-14
-16
-17
-18
-17
-18
-23
-27
-30
-28
-21
-20
-23
-21
-17
-16
-15
-13
-11
-9
-7
-6
-7
-8
-8
-6
-4
-3
-2
3
8
9
10
9
5
-8
-27
-57
-95
-145
-200
-261
-321
-379
-425
-458
-440
-375
-310
-245
-180
-115
-67
-28
-8
3
10
16
18
19
20
21
22
23
24
24
26
28
29
30
30
30
30
30
31
32
31
30
30
30
32
34
35
36
36
36
37
38
38
38
39
40
39
39
41
42
43
44
44
44
45
46
47
48
49
50
51
53
54
56
58
62
66
67
68
71
74
74
74
76
78
82
84
86
87
84
81
78
75
72
68
64
58
51
44
37
32
28
24
21
16
11
8
5
3
1
0
-1
-5
-10
-8
-6
-6
-6
-8
-10
-9
-8
-8
-8
-5
-2
-5
-8
-6
-4
-3
-2
-3
-4
-3
-1
1
1
-1
-2
-1
0
0
0
-1
-2
-1
0
0
0
1
2
3
4
4
2
2
2
2
0
-2
-2
-2
-1
0
0
0
1
1
-3
-6
-4
-2
-2
-2
-3
-4
-3
-2
-2
1
7
4
-6
-6
0
0
-3
-4
-3
-2
-2
-1
1
-2
-7
-5
-2
-2
-2
-3
-4
-3
-2
-1
0
-1
-2
0
2
4
7
11
14
15
16
16
14
10
6
1
-3
-6
-11
-16
-18
-18
-18
-19
-20
-20
-18
-15
-15
-17
-12
-5
-6
-10
-12
-14
-11
-8
-3
2
-1
-4
-4
-4
-4
-4
-1
3
6
8
6
-2
-16
-37
-66
-105
-152
-188
-217
-242
-264
-270
-267
-224
-164
-133
-111
-67
-19
-15
-19
-8
5
6
6
9
10
11
12
13
14
13
12
13
14
15
16
15
14
14
14
15
16
16
16
16
16
17
18
18
18
19
20
19
18
19
20
21
22
21
20
21
22
22
23
25
26
26
26
26
26
26
27
28
30
32
32
32
33
34
38
40
41
42
43
44
44
45
47
48
48
47
45
43
41
38
34
29
25
21
17
13
9
6
3
1
-1
-3
-6
-6
-6
-8
-10
-10
-10
-10
-10
-8
-6
-7
-8
-8
-8
-6
-4
-5
-6
-6
-6
-6
-6
-5
-4
-3
-2
-3
-4
-3
-2
-2
-2
-2
-2
-2
-2
-2
-1
1
2
2
-2
-4
-3
-2
0
2
0
-2
-2
-2
-2
-2
1
3
0
-2
-3
-4
-2
0
1
1
-1
-2
-2
-2
-1
0
1
0
-3
-4
-4
-2
1
2
2
2
1
0
0
2
4
4
4
2
0
1
2
4
6
5
4
4
4
3
3
6
8
9
10
12
15
18
21
23
23
21
15
7
3
1
-1
-3
-5
-7
-10
-13
-15
-17
-15
-11
-10
-10
-11
-12
-6
0
-1
-2
0
2
2
2
3
4
4
4
5
6
6
9
16
20
20
18
14
4
-12
-42
-81
-127
-177
-236
-297
-357
-416
-409
-384
-325
-261
-196
-131
-86
-127
-19
4
9
14
19
24
26
28
28
28
29
30
31
32
32
32
34
36
34
32
35
36
37
38
38
38
37
36
37
39
41
42
41
40
40
40
41
42
43
44
44
45
46
46
46
49
52
51
50
51
52
53
54
57
60
59
58
60
63
67
70
72
75
78
80
80
81
84
86
87
87
85
82
79
78
77
72
67
62
57
50
43
39
34
28
22
18
14
10
6
4
2
2
1
-3
-6
-8
-10
-8
-6
-8
-10
-11
-12
-11
-10
-9
-8
-9
-10
-10
-10
-10
-10
-10
-8
-5
-5
-7
-8
-7
-6
-5
-4
-4
-3
-4
-3
-2
0
2
1
0
-2
-4
-3
-2
-1
0
-2
-4
-3
-2
-2
-2
-1
0
-1
-2
-2
-2
-3
-4
-3
-2
-3
-3
-1
0
-1
-2
-2
-2
-2
-2
-2
-2
-2
-3
-4
-4
-4
-3
-2
-2
-2
-3
-4
-4
-4
-3
-2
-3
-4
-3
-2
0
3
5
7
10
12
12
12
12
9
4
-2
-8
-11
-13
-14
-15
-17
-19
-23
-27
-27
-24
-21
-18
-20
-22
-17
-12
-13
-14
-11
-8
-7
-6
-6
-6
-6
-6
-5
-4
-2
2
9
12
13
13
10
0
-15
-39
-67
-114
-167
-225
-284
-340
-396
-433
-466
-412
-347
-282
-343
-151
-88
-49
-14
-7
1
9
16
19
22
20
18
20
22
24
26
27
27
24
23
26
29
32
34
34
34
33
32
31
32
35
36
36
36
35
33
31
32
35
36
37
38
38
37
36
36
36
37
38
39
40
40
40
41
43
48
52
51
50
50
51
54
56
57
59
61
62
61
63
70
71
69
68
68
64
59
58
59
53
45
44
44
37
28
24
20
16
12
3
-4
-2
0
-4
-8
-9
-10
-12
-14
-13
-12
-14
-14
-9
-8
-15
-18
-17
-15
-13
-12
-13
-14
-13
-13
-15
-15
-13
-12
-13
-14
-14
-15
-17
-11
-18
-4
-6
-6
-6
-8
-10
-11
-12
-10
-8
-7
-6
-7
-8
-10
-11
-7
-5
-8
-10
-9
-8
-9
-9
-7
-9
-14
-14
-11
-11
-13
-14
-14
-14
-14
-14
-13
-12
-12
-12
-12
-13
-14
-14
-14
-16
-18
-19
-20
-16
-12
-14
-16
-14
-12
-12
-12
-12
-12
-14
-16
-15
-13
-10
-8
-7
-5
-3
-2
-1
0
1
-1
-6
-13
-20
-24
-27
-27
-25
-25
-27
-32
-38
-37
-36
-32
-28
-29
-30
-26
-22
-23
-24
-21
-18
-17
-16
-17
-18
-18
-18
-16
-14
-15
-14
-10
-8
-7
-6
-5
-14
-29
-56
-86
-127
-171
-203
-231
-256
-279
-283
-285
-225
-286
-135
-111
-71
-34
-33
-31
-17
-6
-3
0
3
6
5
4
4
5
8
10
9
8
9
10
10
10
11
12
13
14
14
14
14
14
15
16
16
16
17
18
19
20
20
22
24
24
24
24
24
25
26
27
28
29
30
31
32
32
32
34
36
38
40
41
43
45
47
49
51
54
56
56
56
57
58
59
60
60
59
57
53
49
48
47
43
38
31
24
20
16
12
8
6
4
1
-2
-5
-8
-9
-10
-9
-9
-12
-14
-13
-12
-12
-11
-9
-8
-9
-10
-11
-11
-9
-8
-7
-6
-7
-8
-9
-9
-7
-6
-6
-6
-6
-7
-8
-7
-6
-5
-4
-5
-6
-8
-10
-7
-4
-4
-4
-6
-8
-8
-8
-8
-8
-7
-6
-7
-8
-9
-9
-7
-5
-3
-4
-8
-10
-10
-10
-9
-7
-5
-5
-7
-8
-8
-7
-6
-6
-6
-6
-6
-7
-8
-7
-6
-5
-4
-5
-6
-7
-8
-7
-6
-6
-6
-7
-8
-7
-6
-5
-3
-1
1
3
6
9
10
10
9
7
2
-3
-6
-9
-11
-13
-15
-18
-21
-24
-26
-28
-27
-26
-23
-20
-21
-21
-16
-12
-12
-12
-11
-10
-9
-8
-6
-5
-8
-9
-6
-4
-3
1
6
9
11
11
9
-1
-13
-37
-64
-112
-163
-218
-273
-333
-276
-445
-491
-426
-361
-296
-231
-166
-105
-57
-18
-7
4
11
17
20
22
21
20
20
20
23
25
27
28
27
26
25
26
30
32
31
30
30
30
30
31
33
34
35
36
35
32
30
33
36
35
34
35
36
38
40
41
43
47
50
49
47
44
44
52
56
57
58
58
59
61
65
70
71
69
68
69
74
80
82
81
80
81
81
79
78
79
77
72
68
64
58
52
48
44
37
31
24
18
18
16
9
3
0
-2
-3
-4
-5
-6
-6
-8
-12
-14
-14
-12
-8
-6
-6
-8
-11
-8
-2
-1
-3
-4
-4
-5
-7
-9
-8
-11
-10
-11
-12
-6
0
-3
-5
1
6
1
-2
-2
-2
-2
-2
-2
-2
-1
-1
-4
-5
-2
0
0
-1
-3
-2
1
1
-1
-5
-10
-9
-5
-2
1
-2
-7
-6
-3
-4
-6
-5
-4
-6
-8
-5
-2
-3
-4
-6
-8
-10
-11
-4
-1
-4
-6
-6
-6
-8
-9
-7
-6
-6
-6
-6
-5
-3
-1
1
1
-1
3
10
12
12
13
15
9
1
-6
-14
-13
-12
-15
-18
-19
-20
-24
-28
-27
-25
-20
-17
-21
-22
-15
-10
-10
-9
-6
-5
-8
-10
-9
-8
-9
-10
-9
-8
-9
-8
-3
0
3
4
5
-11
-32
-60
-90
-132
-92
-204
-233
-254
-274
-268
-254
-196
-143
-112
-81
-49
-26
-25
-20
-5
4
4
4
6
8
5
5
8
10
10
10
11
12
12
12
13
14
15
15
13
12
12
13
15
16
16
15
14
16
18
19
20
19
18
18
18
19
20
21
22
23
24
24
24
26
28
28
28
29
30
31
33
35
36
36
38
41
43
45
47
49
50
50
51
53
54
55
56
56
54
52
49
46
44
42
37
31
26
22
19
15
11
8
6
3
0
-2
-3
-4
-5
-6
-7
-8
-9
-9
-7
-6
-6
-6
-6
-6
-7
-8
-7
-6
-6
-6
-6
-6
-6
-5
-4
-4
-4
-4
-4
-5
-6
-5
-4
-3
-2
-3
-4
-3
-2
-3
-4
-3
-2
-2
-3
-5
-6
-6
-5
-3
-2
-3
-4
-5
-6
-6
-6
-5
-4
-5
-6
-7
-7
-5
-4
-4
-4
-4
-5
-6
-5
-4
-3
-2
-3
-4
-4
-4
-4
-4
-2
0
-1
-2
-3
-4
-3
-2
-1
-1
-3
-4
-4
-3
-1
0
1
2
3
4
5
10
15
16
17
16
12
7
2
-2
-6
-7
-8
-10
-12
-15
-18
-20
-22
-20
-18
-16
-15
-19
-19
-11
-6
-7
-8
-7
-6
-5
-3
-1
0
-1
-2
-1
0
0
5
12
14
15
15
13
-2
12
-48
-80
-133
-187
-249
-310
-369
-419
-430
-423
-358
-293
-228
-163
-98
-47
-19
0
6
12
19
22
23
24
24
24
25
26
27
28
29
30
30
30
31
32
33
34
34
34
35
36
36
36
36
37
38
39
40
40
40
41
42
42
42
42
42
44
46
48
50
49
48
48
48
49
51
54
56
56
56
57
61
65
67
69
70
71
75
79
82
85
89
94
93
92
89
86
87
88
84
80
76
71
64
58
56
51
42
35
32
28
23
19
14
12
12
12
12
13
16
16
12
5
-4
-8
-11
-14
-17
-23
-29
-27
-23
-22
-22
-18
-12
-7
-2
-5
-8
-6
-4
-3
-2
-4
-5
-1
2
1
0
1
5
13
16
11
5
-1
-22
-55
-92
-133
-191
-256
-322
-387
-437
-481
-439
-374
-309
-244
-179
-114
-52
9
11
12
20
28
26
24
25
26
29
32
33
34
34
34
30
28
28
29
32
35
38
40
39
38
38
39
42
42
38
36
36
38
41
39
35
36
39
40
39
38
39
41
44
42
40
42
44
45
46
46
46
45
45
51
55
49
45
50
54
55
56
55
54
53
52
51
48
44
41
39
35
30
26
21
18
15
11
7
5
3
0
-3
-4
-4
-5
-6
-5
-4
-5
-6
-7
-8
-6
-4
-3
-2
-3
-4
-3
-2
-3
-4
-2
0
0
0
0
0
0
0
0
0
1
2
1
0
1
2
1
0
0
0
1
2
1
-1
-2
-1
0
-1
-2
-2
-2
-2
-2
-2
-2
-2
-2
-2
-2
-2
-2
-2
-2
-2
-2
-1
0
-1
-2
-1
0
0
0
0
0
0
0
0
0
1
2
2
2
2
1
-2
1
4
3
2
1
0
1
2
3
4
3
2
1
0
2
4
4
4
4
4
4
4
4
4
5
6
5
4
3
3
5
6
6
6
6
5
3
4
7
8
8
5
4
3
2
4
6
7
8
7
6
5
4
4
4
6
8
7
6
5
4
5
6
7
7
5
4
3
2
3
5
7
8
7
6
5
4
5
6
7
7
5
3
2
4
6
7
8
6
4
5
6
7
8
7
6
6
6
5
4
6
8
9
10
11
13
15
18
22
24
24
23
21
15
8
5
3
-1
-5
-6
-6
-7
-9
-12
-16
-12
-8
-10
-12
-12
-12
-7
-2
-2
-2
-1
0
1
2
3
4
4
4
4
6
11
16
20
21
19
11
0
-21
-48
-89
-136
-186
-236
-286
-336
-381
-425
-372
-307
-242
-303
-113
-52
-36
-21
-2
14
19
24
26
28
28
28
30
32
34
36
36
36
37
38
39
40
39
39
41
42
42
42
42
42
43
44
44
44
45
46
46
46
46
46
45
46
48
47
46
47
48
47
46
52
56
54
52
54
56
60
62
63
64
64
64
62
63
69
71
69
68
67
66
65
64
65
63
59
56
53
51
49
45
41
34
27
21
14
8
2
1
0
-6
-12
-15
-18
-18
-18
-16
-14
-17
-20
-20
-20
-19
-18
-16
-15
-18
-20
-21
-18
-11
-9
-11
-12
-13
-14
-15
-15
-13
-11
-9
-8
-9
-10
-10
-9
-10
-5
-4
-3
-2
-4
-6
-4
-2
0
2
3
4
2
0
2
4
5
6
5
4
5
5
2
4
11
11
5
4
7
6
2
3
7
4
-1
0
3
4
3
3
5
3
0
1
2
-1
-4
-2
0
0
0
0
0
3
6
5
4
2
0
0
0
-2
-3
-1
0
0
0
0
1
3
2
-2
-1
4
4
1
0
0
-1
-3
-2
1
3
6
3
0
1
2
5
8
5
2
6
10
12
15
19
22
20
16
10
4
-2
-6
-7
-9
-11
-13
-16
-19
-22
-22
-19
-18
-17
-16
-16
-12
-7
-6
-7
-8
-7
-6
-6
-5
-4
-4
-4
-4
-4
-2
0
4
8
7
4
-4
-17
-41
-72
-117
-157
-190
-216
-233
-249
-263
-236
-174
-145
-136
-94
-34
-18
-21
-12
3
7
9
13
17
17
15
15
17
20
22
23
24
23
22
22
22
23
24
25
26
25
24
24
24
26
28
28
28
26
25
27
29
32
34
33
32
31
31
33
34
35
36
35
34
35
37
39
41
43
44
44
43
42
45
48
52
56
56
56
55
55
61
66
67
68
67
66
65
64
64
64
63
60
55
50
46
43
40
36
32
26
20
15
11
10
10
8
5
3
1
-1
0
-2
0
-2
-4
-4
-4
-5
-6
-4
-2
-2
-2
-3
-4
-4
-4
-4
-4
-2
0
-3
-4
-4
-4
-3
-1
1
1
-1
-2
-3
-4
-3
-2
-1
0
-1
-2
-3
-4
-3
-1
0
-1
-2
-4
-6
-5
-4
-3
-2
-3
-4
-5
-6
-4
-2
-2
-2
-3
-4
-5
-5
-3
-2
-1
-1
-3
-4
-4
-4
-3
-1
1
0
-3
-4
-4
-4
-3
-1
1
0
-4
-5
-6
-3
0
-1
-2
-2
-2
-2
-2
-1
0
-1
-2
-3
-4
-4
-3
0
2
-1
-2
-1
0
0
3
8
10
10
12
15
15
13
10
7
0
-7
-9
-11
-12
-12
-15
-18
-22
-26
-25
-24
-20
-16
-18
-20
-17
-14
-11
-8
-8
-8
-8
-8
-7
-6
-5
-4
-3
-2
-3
-1
5
10
13
12
9
-1
-15
-40
-69
-118
-170
-230
-292
-346
-401
-422
-440
-375
-310
-245
-180
-115
-57
-28
-5
3
11
16
20
22
24
23
23
26
28
28
28
29
30
30
31
33
34
34
34
33
32
33
34
34
34
35
33
29
33
39
39
36
38
40
38
36
40
44
45
46
43
40
43
46
48
50
52
54
52
50
52
55
58
60
61
63
65
66
66
69
74
77
79
80
79
78
78
80
83
82
79
77
78
69
64
61
58
52
46
41
35
24
16
14
12
11
9
4
0
0
0
0
0
-3
-5
-7
-8
-8
-8
-9
-10
-9
-8
-7
-7
-9
-10
-9
-6
-3
-5
-9
-11
-13
-10
-6
-6
-6
-6
-6
-9
-11
-5
0
-2
-4
-5
-6
-7
-8
-7
-4
2
4
-2
-6
-5
-3
0
1
-1
-3
-5
-6
-5
-3
-1
0
-1
-3
-5
-6
-7
-8
-7
-6
-4
-7
-10
-6
-2
-5
-8
-5
-2
-5
-8
-8
-8
-7
-6
-4
-2
-4
-6
-5
-4
-5
-6
-5
-4
-4
-5
-8
-10
-9
-8
-8
-6
-3
0
3
4
4
4
3
6
2
13
14
11
8
-2
-10
-11
-12
-14
-16
-17
-19
-23
-26
-27
-26
-20
-18
-24
-26
-21
-17
-14
-12
-12
-12
-12
-10
-7
-6
-7
-8
-7
-9
-13
-9
-3
1
5
6
5
-8
-20
-41
-63
-109
-153
-185
-215
-234
-253
-268
-264
-200
-154
-147
-122
-65
-30
-29
-22
-9
-2
-1
1
3
4
5
6
7
8
7
6
7
9
11
12
11
10
10
10
10
10
10
13
16
14
12
12
12
13
14
14
14
14
14
14
14
16
18
19
20
20
20
19
18
19
21
23
24
24
24
23
24
27
28
29
31
33
34
34
35
37
40
38
44
44
44
44
45
46
46
46
42
38
36
34
31
27
24
20
14
8
3
0
-1
-3
-5
-8
-12
-14
-14
-14
-15
-16
-16
-16
-17
-18
-19
-19
-17
-16
-15
-15
-17
-18
-18
-16
-14
-14
-14
-15
-16
-16
-16
-15
-14
-14
-14
-14
-14
-14
-14
-12
-10
-11
-12
-13
-14
-13
-12
-12
-12
-12
-12
-12
-12
-13
-14
-13
-12
-13
-14
-14
-14
-14
-14
-14
-14
-14
-15
-16
-15
-14
-14
-14
-13
-12
-13
-14
-13
-12
-12
-12
-13
-14
-13
-12
-12
-12
-12
-12
-13
-13
-10
-9
-11
-12
-12
-12
-12
-12
-11
-10
-11
-12
-11
-10
-10
-10
-8
-7
-6
-5
-4
-2
0
3
6
6
6
3
-2
-9
-14
-15
-16
-18
-20
-23
-25
-28
-30
-29
-27
-24
-24
-27
-25
-20
-16
-13
-13
-15
-15
-13
-11
-9
-8
-8
-8
-8
-8
-8
-2
4
9
14
11
5
-9
-26
-49
-80
-127
-179
-238
-299
-361
-415
-458
-448
-383
-318
-253
-188
-123
-74
-35
-13
2
9
14
16
17
18
19
21
23
24
25
26
26
27
28
30
32
31
30
31
32
33
34
36
38
37
36
36
36
37
38
39
40
40
40
39
39
42
44
45
46
45
44
45
47
49
50
51
52
52
52
53
55
54
60
62
65
68
69
70
74
78
81
84
84
84
86
88
89
90
88
86
86
85
80
76
71
67
64
56
46
40
37
32
26
23
21
17
13
10
7
6
6
5
3
1
0
0
0
2
4
2
0
-1
-2
-2
-2
-2
-2
0
2
1
0
0
0
1
2
3
5
7
7
5
4
4
3
1
1
3
5
7
8
7
7
9
7
3
2
4
7
10
9
8
5
2
5
8
7
6
7
8
5
2
4
5
2
0
2
4
4
4
4
4
3
4
8
9
7
4
-1
1
5
5
3
2
3
4
5
6
6
4
4
6
8
6
4
6
8
14
18
17
17
23
27
22
18
16
11
1
-4
-3
-4
-8
-10
-10
-11
-14
-15
-13
-12
-13
-13
-11
-4
4
0
-7
-4
1
2
2
4
6
3
0
1
2
6
10
14
18
14
10
10
4
-18
-45
-82
-121
-163
-197
-223
-246
-266
-255
-216
-185
-160
-115
-60
-33
-18
-8
1
7
11
13
15
17
19
20
20
20
22
20
18
20
22
24
26
25
24
24
24
24
24
25
26
26
26
25
24
26
28
31
31
28
27
29
30
30
30
31
32
31
30
31
32
32
33
35
36
35
34
34
38
40
41
42
42
42
44
46
48
50
51
52
54
56
56
56
58
60
59
58
57
54
50
47
45
42
38
34
30
26
22
17
13
9
5
4
4
3
1
-1
-3
-5
-6
-3
0
-1
-2
-2
-2
-3
-4
-3
-2
-2
-2
-3
-4
-3
-2
-1
0
0
0
-1
-2
-2
-1
1
1
-1
-2
-1
0
0
1
3
4
3
2
1
0
0
1
4
2
0
1
2
2
2
2
2
1
0
-1
-2
-1
0
1
2
0
-2
-2
-2
-1
0
0
0
0
0
-1
-2
-1
0
1
2
1
-1
-3
-2
1
2
1
0
0
-1
-2
-1
0
0
0
-1
-2
-2
-2
1
4
6
8
9
11
14
16
17
17
12
7
0
-5
-7
-8
-9
-10
-11
-14
-18
-21
-23
-21
-17
-16
-17
-18
-17
-11
-5
-6
-8
-5
-2
-3
-4
-4
-4
-3
-2
-2
-2
0
4
11
16
16
14
6
-7
-29
-60
-102
-151
-204
-264
-330
-392
-453
-428
-363
-302
-242
-178
-113
-76
-44
-22
0
6
11
17
24
24
24
23
22
24
26
27
28
27
26
28
30
30
30
31
32
31
30
32
34
34
34
34
34
34
35
37
38
38
38
38
38
39
40
40
40
41
42
42
42
42
45
46
47
48
48
48
50
52
53
54
59
62
64
66
68
71
74
76
77
78
81
82
81
80
80
79
76
72
69
66
63
58
52
45
38
33
29
23
17
13
9
4
0
-1
-2
-2
-2
-6
-10
-12
-14
-13
-12
-12
-12
-12
-12
-13
-14
-13
-12
-11
-10
-11
-12
-13
-13
-11
-9
-7
-6
-7
-8
-9
-9
-7
-6
-5
-4
-5
-6
-5
-3
0
1
2
0
-2
-2
-2
0
2
1
0
0
0
0
0
1
2
1
0
0
0
-1
-2
-1
0
0
0
-1
-2
-2
-2
-2
-2
-1
-1
-3
-4
-3
-2
-1
0
0
-1
-2
-2
-2
-2
-2
-2
-2
-1
0
-1
-2
-1
0
2
4
6
8
8
9
14
16
16
15
12
7
1
-3
-5
-8
-11
-12
-13
-15
-17
-21
-25
-19
-11
-15
-21
-17
-12
-8
-4
-4
-4
-1
2
0
-2
-2
-1
3
5
1
0
6
11
15
18
17
12
3
-10
-27
-60
-105
-156
-211
-266
-321
-374
-426
-390
-329
-274
-221
-158
-93
-60
-29
-12
6
8
10
18
26
26
26
23
21
27
32
33
34
32
31
34
34
29
26
28
30
31
33
36
37
34
35
40
40
36
34
34
36
39
39
37
37
39
40
40
40
40
40
42
41
40
38
36
41
46
46
46
51
54
53
52
53
54
54
54
56
59
62
65
67
68
68
68
68
68
67
65
63
60
57
53
49
43
37
33
29
24
19
13
8
4
0
-2
-4
-5
-6
-8
-10
-11
-12
-11
-10
-11
-12
-13
-14
-14
-14
-13
-12
-12
-12
-12
-12
-12
-12
-11
-10
-11
-12
-12
-12
-11
-9
-7
-6
-6
-6
-6
-6
-4
-4
-4
-4
-4
-4
-4
-2
0
-1
-2
-1
0
0
0
-2
-4
-4
-4
-3
-2
-3
-4
-3
-3
-5
-6
-5
-4
-4
-4
-4
-4
-5
-6
-5
-4
-3
-2
-3
-5
-4
-6
-4
-4
-4
-5
-6
-7
-8
-6
-4
-4
-4
-5
-6
-8
-9
-6
-4
-2
0
1
2
3
6
12
14
13
10
6
-1
-9
-12
-11
-11
-13
-16
-19
-23
-27
-28
-28
-23
-18
-23
-28
-23
-18
-13
-8
-9
-10
-10
-10
-10
-10
-6
-4
-4
-4
-6
-7
-3
3
10
14
14
7
-5
-22
-41
-78
-122
-171
-222
-277
-332
-386
-441
-392
-327
-262
-197
-132
-68
-54
-39
-18
2
8
14
15
16
18
20
20
20
22
24
23
22
23
24
26
28
28
28
28
28
28
28
29
30
30
30
30
30
31
32
33
34
34
34
35
36
36
36
36
38
40
40
40
41
42
43
44
45
46
47
48
49
50
52
54
56
58
61
63
65
67
69
70
70
71
73
74
75
74
71
70
70
67
63
58
53
48
43
36
30
26
22
17
12
9
6
3
0
-1
-2
-4
-6
-7
-8
-8
-8
-7
-6
-7
-8
-9
-10
-10
-10
-9
-8
-9
-10
-10
-10
-10
-9
-7
-6
-6
-6
-6
-6
-6
-6
-4
-4
-4
-4
-4
-3
-2
-1
0
0
0
-1
-2
-1
0
0
0
0
0
0
0
0
0
0
0
-1
-2
-2
-2
-2
-2
-2
-2
-2
-2
-2
-2
-3
-3
-1
0
0
-3
-4
-3
-2
-1
0
-1
-2
-3
-4
-3
-2
-2
-2
-2
-2
-2
-1
3
6
7
10
14
16
15
14
14
10
4
-1
-6
-8
-9
-10
-11
-15
-19
-22
-25
-24
-21
-20
-20
-20
-20
-13
-6
-8
-10
-7
-4
-3
-2
-3
-4
-4
-4
-2
0
2
5
8
11
14
16
16
7
-8
-31
-57
-101
-152
-207
-263
-317
-370
-418
-464
-414
-349
-284
-219
-154
-89
-49
-12
-2
8
15
22
24
26
25
24
25
26
29
32
34
36
34
32
32
32
35
36
36
36
35
34
35
36
37
39
41
42
41
40
41
42
43
44
44
44
44
45
46
48
50
51
52
52
52
51
50
55
58
59
60
60
60
62
65
69
72
75
76
76
77
79
81
83
85
87
86
82
79
77
76
75
73
71
62
53
46
39
35
32
27
22
19
16
12
8
5
2
3
3
-1
-4
0
1
-2
-4
-4
-4
-4
-5
-7
-7
-5
-4
-5
-5
-1
0
-1
-2
-2
-1
1
2
2
1
-1
-2
-1
1
4
4
4
3
2
5
8
7
6
3
1
5
7
3
0
2
3
0
-2
-1
1
6
7
4
2
1
0
-1
-1
1
2
1
0
-1
-2
-2
0
3
3
1
0
0
-2
-2
-1
0
0
0
-1
-2
1
4
1
-2
-1
0
-2
-3
0
2
2
3
6
9
11
13
15
17
19
16
10
1
-9
-11
-9
-9
-11
-12
-12
-15
-19
-20
-21
-19
-16
-17
-18
-11
-5
-14
-21
-13
-6
-6
-6
-3
0
-1
-3
-6
-8
-6
-3
1
5
7
6
2
-3
-9
-27
-50
-89
-135
-172
-206
-226
-241
-258
-275
-222
-157
-144
-137
-81
-24
-23
-22
-11
0
0
0
3
6
9
12
12
12
10
8
10
12
12
12
11
10
11
13
15
16
17
17
15
12
9
10
15
16
16
16
15
14
14
15
17
19
18
21
20
19
18
20
22
23
24
23
22
23
24
25
26
28
30
29
28
30
33
36
38
39
40
40
40
41
43
45
45
43
40
37
36
35
32
29
25
21
16
11
5
0
-2
-4
-6
-8
-10
-12
-14
-16
-16
-16
-16
-16
-17
-18
-18
-18
-16
-14
-15
-16
-16
-16
-16
-16
-15
-14
-14
-14
-14
-14
-15
-15
-13
-12
-11
-10
-11
-12
-13
-14
-12
-11
-10
-12
-14
-14
-14
-12
-10
-10
-10
-11
-12
-12
-12
-12
-12
-11
-10
-11
-12
-12
-11
-9
-8
-8
-9
-11
-12
-11
-10
-10
-10
-10
-10
-11
-12
-11
-9
-7
-7
-6
-10
-10
-10
-10
-9
-8
-8
-8
-8
-8
-8
-8
-8
-8
-8
-8
-7
-6
-7
-7
-4
-1
1
2
3
7
12
14
13
10
7
1
-6
-8
-9
-11
-13
-14
-15
-17
-19
-24
-28
-23
-18
-19
-20
-19
-17
-11
-6
-9
-12
-10
-8
-7
-6
-4
-2
-2
-2
-2
-1
1
5
13
15
13
9
4
-12
-32
-65
-101
-153
-208
-270
-334
-394
-455
-415
-366
-310
-253
-188
-125
-82
-42
-21
-2
5
11
16
20
21
22
21
20
22
24
25
26
27
28
28
29
31
31
29
29
31
32
32
33
35
36
35
35
37
38
38
38
38
38
38
40
42
42
42
44
46
46
46
46
46
47
48
48
48
50
53
56
58
60
62
63
65
67
69
72
75
77
78
78
79
81
84
87
86
83
80
77
76
75
71
67
59
52
46
40
37
34
29
23
17
12
8
4
3
2
2
1
-3
-6
-7
-8
-7
-6
-5
-5
-7
-9
-11
-11
-7
-6
-5
-5
-7
-8
-9
-8
-5
-4
-3
-3
-5
-6
-6
-4
-2
-2
-2
-2
-2
-3
-4
-1
2
3
4
1
-1
2
4
4
4
6
7
4
2
3
4
4
5
7
5
0
-1
1
2
2
3
5
3
-1
-1
1
1
2
1
4
2
0
-1
-2
0
2
3
4
2
0
0
0
1
2
3
4
3
2
2
2
3
7
13
16
17
18
17
16
16
11
4
-1
-5
-8
-11
-12
-12
-13
-15
-19
-22
-18
-14
-16
-18
-13
-8
-9
-10
-6
-2
-4
-5
-1
2
0
-2
-1
0
1
1
-1
2
10
14
15
14
10
-6
-26
-61
-101
-143
-186
-219
-250
-284
-319
-299
-273
-229
-184
-124
-67
-43
-22
-13
-6
1
7
12
16
16
16
15
15
19
22
23
23
20
18
17
18
22
24
24
23
20
19
21
22
22
23
25
27
29
25
19
21
25
25
26
26
30
28
26
28
30
30
30
29
28
28
29
34
36
29
26
32
36
37
38
41
41
38
41
52
52
45
46
53
54
51
52
55
52
47
46
47
43
37
36
36
34
32
24
16
10
4
4
4
1
-2
-4
-7
-11
-14
-13
-12
-12
-12
-13
-14
-15
-15
-13
-12
-11
-11
-13
-14
-13
-12
-12
-11
-9
-10
-13
-14
-14
-13
-11
-10
-9
-8
-10
-11
-12
-10
-8
-8
-8
-9
-10
-10
-10
-9
-8
-8
-8
-9
-10
-11
-12
-11
-10
-9
-9
-11
-12
-12
-12
-11
-10
-11
-12
-12
-12
-13
-14
-13
-12
-11
-10
-11
-12
-12
-11
-8
-8
-8
-9
-10
-11
-12
-11
-10
-9
-8
-9
-10
-11
-11
-8
-6
-6
-6
-5
-4
-3
0
4
8
12
12
9
6
3
-2
-8
-11
-13
-14
-15
-18
-21
-22
-23
-24
-24
-22
-20
-22
-24
-18
-12
-11
-10
-11
-12
-9
-6
-4
-2
-3
-4
-4
-4
-5
-4
0
5
13
15
12
5
-3
-19
-38
-73
-113
-162
-213
-266
-321
-370
-418
-366
-304
-265
-225
-160
-98
-68
-40
-20
-2
5
11
16
20
21
22
21
21
24
26
26
26
26
26
27
28
29
30
31
32
32
33
35
35
33
32
33
34
34
34
35
36
37
38
38
39
40
41
42
41
40
41
42
43
44
46
48
49
50
50
50
52
54
55
56
59
61
64
67
70
72
73
75
77
78
77
76
77
78
77
76
75
70
65
60
55
50
46
40
34
29
24
20
16
13
10
7
4
2
0
-2
-4
-5
-6
-5
-4
-5
-6
-7
-8
-7
-6
-6
-6
-6
-7
-9
-9
-7
-5
-3
-3
-5
-6
-5
-4
-4
-3
0
-1
-2
-3
-4
-3
-2
1
4
2
0
-1
-2
-2
-1
2
3
0
-2
-2
-2
-2
-1
1
1
-1
-2
-3
-4
-3
-2
-1
0
0
-1
-3
-3
-1
0
-1
-2
-2
-5
-6
-5
-4
-3
-2
-3
-4
-5
-6
-4
-2
-2
-2
-2
-2
-4
-5
-2
1
4
6
7
9
12
14
15
15
13
7
0
-3
-5
-7
-9
-10
-11
-15
-19
-21
-23
-22
-20
-19
-18
-20
-21
-13
-6
-7
-8
-5
-2
-2
-2
-1
0
2
3
0
0
5
9
11
14
19
20
16
3
-14
-41
-71
-114
-161
-219
-279
-334
-387
-414
-438
-381
-316
-251
-185
-120
-58
-31
-6
3
11
18
24
25
26
24
22
23
24
25
26
26
27
30
32
29
30
34
35
32
29
27
27
29
30
31
32
31
33
37
38
39
40
41
37
42
34
38
36
34
35
36
39
42
43
44
44
44
44
44
46
48
48
49
52
54
54
55
58
60
61
62
62
63
65
64
61
64
70
68
61
57
53
50
47
40
33
30
28
24
20
14
8
5
2
-1
-4
-5
-6
-9
-12
-16
-18
-17
-15
-12
-10
-10
-11
-14
-16
-16
-15
-13
-12
-12
-12
-12
-15
-20
-16
-8
-6
-5
-8
-13
-15
-17
-12
-4
-6
-8
-9
-10
-9
-8
-8
-8
-8
-8
-7
-6
-8
-9
-5
-2
-4
-6
-7
-9
-14
-13
-6
-3
-6
-8
-9
-9
-7
-6
-6
-6
-7
-8
-9
-10
-10
-10
-11
-12
-12
-12
-10
-8
-6
-5
-4
-8
-12
-10
-8
-13
-15
-10
-6
-7
-8
-8
-7
-4
-2
1
2
3
6
12
13
11
6
-1
-6
-10
-14
-17
-20
-23
-24
-24
-26
-29
-28
-25
-24
-24
-23
-22
-17
-12
-15
-18
-16
-14
-13
-12
-11
-10
-10
-10
-10
-10
-10
-9
-5
-1
2
4
3
-5
-19
-41
-67
-106
-152
-184
-211
-237
-261
-271
-279
-224
-159
-142
-129
-77
-24
-25
-26
-12
0
3
6
7
8
8
8
10
12
13
14
14
14
14
14
15
16
16
16
16
16
17
18
19
20
21
22
21
20
21
22
23
24
25
26
25
24
24
27
28
28
28
29
30
30
30
33
36
36
36
37
38
40
42
44
46
48
50
51
53
55
57
59
60
60
60
60
60
60
59
57
55
53
47
41
39
37
32
27
21
16
13
10
7
4
3
2
-1
-4
-7
-10
-8
-6
-6
-6
-7
-8
-8
-8
-7
-6
-6
-6
-7
-8
-8
-8
-7
-6
-5
-4
-5
-6
-7
-7
-5
-4
-4
-4
-5
-6
-6
-5
-4
-4
-4
-4
-4
-5
-6
-6
-6
-4
-2
-4
-6
-7
-8
-7
-6
-6
-6
-7
-8
-9
-9
-7
-6
-6
-6
-7
-8
-8
-8
-7
-6
-5
-5
-7
-8
-7
-6
-6
-5
-4
-5
-6
-6
-6
-5
-4
-3
-2
-3
-4
-4
-4
-4
-4
-3
-2
-2
-2
-1
1
4
7
10
13
15
16
16
14
10
4
-2
-7
-11
-12
-11
-12
-15
-18
-21
-22
-22
-19
-16
-19
-22
-16
-10
-8
-6
-6
-6
-5
-4
-3
-2
-2
-2
-2
-2
-2
0
4
9
17
19
17
11
1
-14
-33
-65
-103
-158
-217
-282
-347
-407
-467
-419
-360
-300
-239
-174
-111
-73
-36
-15
4
9
14
17
20
23
26
26
26
27
28
27
26
28
30
33
34
34
34
34
34
35
37
39
38
35
35
37
39
41
42
42
42
43
43
44
43
46
47
48
47
46
45
44
48
52
54
56
55
54
55
56
58
60
62
64
67
69
71
74
78
81
83
84
84
84
83
85
89
87
83
82
81
78
75
71
67
63
60
53
46
39
32
30
28
22
18
14
9
5
2
3
4
2
0
-2
-4
-3
-2
-3
-3
-1
0
-1
-2
-3
-3
-1
-1
-3
-4
-3
-1
1
2
1
0
0
0
0
0
0
0
0
3
6
5
4
6
8
5
2
4
6
4
2
3
4
6
8
8
8
7
4
0
-1
2
4
5
6
6
6
6
5
3
3
5
5
3
2
2
2
2
2
2
4
6
2
-2
4
8
8
7
3
1
4
5
2
0
1
2
5
6
5
9
18
21
18
18
22
24
23
18
12
4
-4
-6
-6
-8
-11
-12
-13
-16
-18
-11
-4
-6
-8
-10
-11
-4
2
1
0
-2
-3
2
6
5
4
4
4
3
2
3
6
11
16
20
20
16
1
-18
-46
-77
-115
-155
-188
-220
-243
-266
-272
-277
-216
-151
-142
-129
-65
-8
-10
-10
6
20
16
12
15
18
19
20
22
24
24
24
22
22
29
32
31
29
27
26
27
28
27
26
27
27
25
25
27
28
29
30
31
32
32
31
32
31
30
32
34
33
32
32
32
33
34
35
36
36
36
38
40
41
42
43
44
45
46
47
48
49
50
51
52
53
54
55
56
55
54
54
52
49
46
43
38
34
30
26
22
18
14
10
7
4
2
0
-1
-2
-3
-4
-4
-4
-5
-6
-4
-3
-5
-6
-6
-6
-5
-4
-5
-6
-5
-4
-4
-4
-4
-4
-4
-4
-3
-2
-3
-4
-4
-4
-4
-4
-4
-4
-4
-4
-4
-3
-2
-2
-2
-4
-6
-5
-4
-4
-4
-4
-4
-4
-4
-5
-6
-6
-6
-6
-6
-7
-8
-7
-4
-1
-1
-3
-4
-5
-6
-5
-4
-4
-4
-4
-5
-6
-5
-4
-3
-2
-3
-4
-5
-6
-4
-2
-1
0
-2
-4
-4
-4
-3
-1
1
2
2
2
3
6
10
14
18
18
15
10
5
0
-5
-7
-9
-10
-11
-15
-18
-19
-20
-21
-22
-20
-18
-21
-23
-16
-10
-7
-4
-8
-10
-8
-6
-4
-2
-3
-4
-4
-4
-4
-1
4
8
12
14
13
4
-7
-25
-44
-85
-130
-183
-237
-297
-358
-413
-467
-402
-338
-278
-217
-152
-93
-64
-36
-16
1
6
11
17
22
20
18
19
20
22
24
25
26
26
27
29
30
30
30
30
30
31
32
32
32
32
33
35
35
33
34
32
38
38
39
40
39
38
39
40
41
42
42
42
42
42
44
46
48
50
51
52
53
55
57
59
62
65
67
68
69
72
75
78
81
82
82
82
81
80
80
80
80
74
68
64
60
55
50
46
41
33
25
20
16
14
12
8
5
1
-2
-2
-4
-9
-11
-9
-9
-11
-12
-12
-12
-11
-10
-10
-9
-7
-7
-9
-9
-7
-6
-6
-6
-6
-6
-8
-5
-2
-1
0
-1
-2
-3
-4
-1
2
1
0
0
0
0
0
1
2
3
4
1
0
1
2
1
0
1
2
2
2
1
0
-1
-2
-1
0
0
0
-1
-3
-2
-4
-2
-1
0
-2
-4
-2
0
-2
-4
-2
0
1
2
0
-2
-2
-2
0
0
-5
-6
-2
0
0
1
4
8
12
14
13
15
20
15
6
1
-3
-5
-7
-10
-13
-14
-14
-20
-26
-23
-20
-21
-22
-19
-15
-10
-6
-6
-6
-6
-6
-4
-2
-3
-4
-6
-7
-4
-1
2
4
3
5
12
14
14
3
-12
-36
-61
-103
-148
-185
-221
-246
-271
-289
-308
-248
-191
-170
-144
-80
-26
-29
-29
-10
4
5
7
12
16
15
14
12
11
15
18
21
22
21
19
17
17
20
19
14
14
19
20
20
22
25
22
17
20
25
24
26
23
26
22
18
19
20
21
22
26
30
27
24
26
28
26
25
28
30
32
33
30
29
32
34
35
37
40
42
41
40
41
43
45
46
46
46
46
45
43
42
42
37
32
29
26
22
18
13
8
5
2
-1
-4
-6
-8
-10
-12
-13
-14
-14
-14
-14
-14
-14
-14
-14
-14
-13
-12
-12
-12
-12
-12
-12
-12
-12
-12
-11
-10
-11
-12
-11
-10
-12
-10
-8
-10
-12
-11
-10
-9
-8
-9
-10
-10
-10
-10
-10
-8
-7
-10
-12
-12
-12
-11
-10
-9
-9
-11
-12
-11
-10
-10
-10
-9
-9
-11
-12
-12
-11
-9
-7
-5
-7
-4
-11
-10
-9
-8
-8
-8
-9
-10
-10
-10
-8
-6
-6
-6
-8
-10
-10
-10
-9
-8
-7
-6
-7
-8
-8
-6
-2
0
0
0
1
5
10
12
13
11
7
0
-7
-11
-15
-16
-16
-17
-18
-23
-28
-29
-30
-24
-20
-22
-23
-18
-14
-14
-14
-12
-10
-9
-8
-7
-6
-6
-6
-6
-6
-5
-3
-1
4
10
12
11
4
-4
-25
-49
-92
-138
-186
-234
-294
-354
-409
-456
-391
-327
-267
-206
-141
-84
-59
-36
-17
-2
5
11
15
18
19
20
20
20
23
24
25
26
26
26
26
27
29
30
30
30
30
30
31
32
33
34
34
34
34
34
36
37
38
38
38
39
40
40
40
40
40
41
42
43
44
46
48
48
48
51
53
55
56
57
58
59
62
65
68
71
72
73
75
77
78
79
80
81
82
81
77
74
71
68
64
60
56
51
43
35
30
25
21
17
13
9
4
0
0
-1
-4
-6
-6
-6
-7
-8
-8
-8
-7
-6
-5
-4
-4
-4
-5
-3
1
2
2
-4
-11
-8
-2
0
2
2
2
2
2
3
4
6
8
8
8
6
4
2
0
2
4
5
5
2
0
0
2
6
8
9
7
2
1
3
4
5
5
3
0
-3
-4
-3
0
-2
0
-4
-1
2
4
6
4
2
1
0
2
4
2
0
-1
-1
3
4
-2
-5
0
2
1
2
8
9
7
10
17
20
19
18
19
16
9
5
1
-2
-5
-6
-5
-13
-22
-18
-14
-15
-16
-12
-8
-14
-17
-10
-4
-3
-2
-3
-4
-5
-6
-5
-3
0
2
2
2
1
0
0
3
10
12
11
0
-14
-32
-50
-97
-149
-184
-217
-238
-259
-279
-299
-234
-173
-159
-140
-77
-24
-23
-19
-3
10
10
10
13
16
17
17
14
12
11
10
10
13
19
22
23
23
21
20
19
18
19
20
19
18
19
18
15
16
19
22
20
27
28
26
24
25
26
25
24
25
26
26
26
26
26
28
30
30
30
30
30
33
34
33
32
33
35
37
39
41
43
45
46
46
46
46
46
45
44
44
44
43
38
34
31
28
22
16
13
10
6
2
0
-2
-3
-4
-8
-10
-10
-10
-11
-12
-12
-12
-13
-14
-13
-12
-12
-12
-11
-10
-10
-10
-10
-10
-10
-10
-10
-10
-10
-10
-9
-8
-8
-9
-10
-9
-8
-8
-8
-8
-8
-8
-8
-7
-6
-6
-6
-7
-8
-8
-8
-6
-4
-7
-8
-8
-8
-8
-8
-7
-6
-6
-6
-7
-8
-8
-7
-5
-4
-5
-6
-7
-8
-8
-5
-4
-4
-4
-5
-6
-5
-4
-3
-2
-2
-2
-4
-6
-4
-2
-1
0
-2
-4
-4
-4
-3
-2
-1
1
3
4
4
6
9
13
17
17
15
12
9
5
1
-2
-5
-10
-14
-16
-18
-20
-22
-22
-22
-19
-16
-19
-21
-15
-10
-6
-5
-8
-10
-8
-6
-5
-4
-3
-2
-3
-3
-1
1
5
10
16
16
13
6
-2
-21
-43
-81
-122
-177
-234
-299
-364
-421
-470
-405
-340
-275
-210
-145
-88
-58
-31
-8
8
10
13
17
20
22
24
24
24
25
26
26
26
27
28
29
30
30
30
30
31
33
34
34
34
33
34
37
38
38
38
40
40
40
39
38
40
42
42
42
43
44
45
46
46
46
47
48
49
50
53
54
55
57
59
61
63
65
67
68
68
73
80
82
81
80
81
82
83
84
83
80
78
75
72
68
64
58
52
46
41
35
29
24
20
16
13
8
4
3
1
-2
-4
-3
-3
-5
-6
-6
-6
-6
-6
-6
-6
-6
-6
-6
-6
-5
-4
-4
-4
-5
-6
-6
-5
-4
-3
-2
-1
0
-1
-2
-1
0
0
0
2
4
4
4
3
2
3
4
5
6
6
5
3
3
6
8
8
8
7
4
1
2
5
6
5
4
3
2
2
4
4
7
10
8
6
5
4
5
6
5
4
6
7
4
3
7
10
9
8
5
5
7
9
12
13
11
13
18
21
23
25
27
26
23
16
7
2
-3
-4
-3
-3
-4
-9
-14
-16
-18
-10
-4
-6
-8
-6
-4
-4
-4
0
2
1
1
5
8
8
7
5
5
8
10
11
14
18
20
21
13
-1
-21
-44
-87
-134
-173
-211
-252
-294
-329
-363
-298
-235
-200
-161
-96
-39
-27
-13
2
14
16
18
21
24
25
26
24
23
27
30
30
29
26
24
23
25
30
32
33
34
34
32
29
29
31
33
35
34
31
29
30
30
34
35
36
34
32
34
36
37
38
39
40
38
36
36
36
36
38
43
46
43
42
43
44
44
47
52
54
55
56
57
58
58
62
67
66
63
58
53
54
57
52
46
45
44
33
24
26
27
20
14
11
8
5
1
-3
-6
-5
-4
-6
-8
-6
-4
-5
-6
-6
-6
-7
-8
-9
-8
-5
-5
-7
-6
-3
-5
-9
-6
-1
-1
-3
-9
-16
-9
-2
0
2
0
-2
-4
-5
0
3
-4
-9
-4
0
0
0
-2
-4
-4
-4
-3
-3
-5
-6
-6
-6
-6
-6
-7
-7
-5
-4
-5
-7
-9
-10
-9
-8
-7
-7
-6
-10
-10
-9
-8
-7
-6
-7
-8
-9
-10
-9
-8
-6
-4
-6
-8
-8
-8
-8
-8
-5
-4
-5
-5
-3
-2
-1
3
8
10
10
10
11
11
9
3
-3
-9
-15
-16
-16
-18
-20
-21
-22
-25
-28
-24
-20
-21
-21
-15
-10
-11
-12
-13
-13
-10
-8
-7
-6
-6
-6
-7
-8
-7
-4
0
4
8
9
7
0
-9
-29
-52
-95
-142
-182
-222
-256
-288
-316
-343
-278
-216
-191
-162
-99
-45
-38
-29
-13
1
5
9
14
18
19
20
20
20
20
20
23
24
25
26
26
26
26
26
27
30
33
32
29
28
28
30
33
34
34
34
34
33
34
35
36
38
40
37
34
36
38
39
40
41
42
42
42
44
46
47
48
49
50
50
51
54
57
59
61
63
65
67
68
68
69
71
71
69
68
68
67
65
60
56
52
48
42
36
31
26
22
18
14
10
8
6
4
1
-2
-4
-4
-4
-5
-6
-6
-6
-6
-6
-5
-5
-7
-7
-5
-4
-5
-6
-6
-6
-5
-4
-4
-4
-5
-6
-4
-3
-2
-2
-2
-3
-4
-2
0
0
0
0
0
-1
-2
-2
-2
0
2
0
-2
-3
-4
-3
-2
-1
-1
-3
-4
-3
-2
-2
-2
-1
0
-1
-2
-3
-4
-3
-1
-2
0
-2
-3
-4
-1
2
3
4
1
-2
-2
-2
0
2
2
1
-2
-4
-3
-2
1
3
6
8
9
10
11
15
20
22
22
15
5
-2
-7
-8
-8
-8
-8
-13
-19
-22
-24
-19
-14
-14
-14
-16
-17
-10
-4
-4
-4
-3
-2
0
2
1
0
0
0
1
2
3
5
8
14
21
23
19
7
-11
-34
-60
-106
-159
-218
-278
-337
-397
-444
-490
-430
-364
-299
-234
-169
-106
-56
-12
2
15
21
26
27
28
28
28
30
32
33
34
34
34
34
35
37
37
35
35
38
39
37
38
43
41
37
38
41
44
47
48
48
48
48
48
50
50
50
52
54
53
52
53
54
55
56
56
56
58
60
61
62
63
65
70
72
72
73
76
80
84
84
81
82
85
84
81
81
83
84
84
82
79
75
71
62
54
51
48
39
30
26
22
19
16
14
11
6
2
1
0
0
0
-2
-5
-8
-9
-7
-4
0
2
1
0
-1
-3
-5
-6
-6
-6
-5
-4
-3
-3
-5
-3
1
0
-4
-2
0
1
2
-1
-4
-3
-2
-1
0
1
2
3
2
-4
-6
-1
2
3
4
1
0
-1
-4
-8
-7
-1
1
-1
-2
-2
-3
-5
-6
-6
-6
-5
-4
-3
-6
-2
-5
2
-3
-8
-7
-6
-8
-10
-8
-6
-6
-6
-8
-8
-2
1
-3
-6
-8
-9
-6
-4
-3
-2
-1
0
1
6
13
16
15
8
0
-6
-13
-14
-14
-14
-14
-19
-25
-29
-32
-27
-22
-21
-20
-19
-18
-14
-10
-13
-16
-15
-14
-10
-9
-12
-14
-12
-10
-10
-9
-7
-4
0
2
3
3
1
-11
-29
-54
-81
-120
-162
-194
-224
-243
-260
-258
-253
-196
-138
-121
-102
-58
-18
-21
-22
-9
2
1
0
2
4
3
2
4
6
7
8
9
10
10
10
11
12
11
10
9
9
11
12
12
12
11
10
11
12
13
14
13
12
12
13
14
16
18
17
16
17
18
18
18
20
22
21
20
20
20
22
25
28
30
29
29
31
33
35
37
39
40
40
40
40
41
43
44
45
43
39
37
35
33
31
27
24
18
12
8
4
3
2
-2
-6
-7
-8
-11
-14
-14
-14
-13
-12
-13
-14
-13
-12
-12
-12
-11
-10
-10
-10
-11
-12
-11
-10
-9
-8
-8
-9
-11
-11
-9
-8
-8
-8
-8
-10
-12
-10
-8
-6
-4
-6
-8
-9
-10
-8
-6
-6
-6
-8
-10
-10
-10
-8
-6
-7
-9
-11
-12
-12
-11
-9
-8
-7
-7
-9
-10
-10
-10
-9
-8
-8
-8
-9
-10
-10
-7
-6
-5
-4
-6
-8
-8
-8
-8
-8
-8
-8
-7
-6
-7
-8
-6
-4
-5
-6
-5
-4
-3
-1
2
4
5
8
12
14
14
12
9
3
-4
-9
-13
-14
-13
-14
-17
-22
-26
-26
-26
-22
-18
-21
-24
-20
-15
-10
-6
-9
-12
-11
-9
-6
-4
-4
-4
-4
-5
-7
-7
-5
2
13
16
12
8
4
-9
-24
-56
-93
-145
-201
-260
-321
-381
-442
-428
-409
-344
-279
-214
-151
-96
-46
-20
2
3
5
12
18
18
19
22
24
23
22
24
26
26
27
29
30
30
30
29
30
33
34
33
33
35
35
33
32
33
37
41
41
42
39
40
41
42
43
44
43
42
43
44
46
48
50
52
52
52
53
54
55
57
62
64
64
64
65
69
75
79
81
82
83
85
87
88
87
86
86
84
81
78
75
71
68
62
56
51
46
41
36
33
29
24
19
13
8
9
9
6
3
0
-2
-1
0
-1
-2
-3
-3
0
0
-4
-3
2
2
-1
-2
-3
-4
-3
-5
-9
-7
-3
-1
2
4
6
4
2
5
8
6
4
3
2
5
8
6
4
4
4
4
5
8
10
10
8
4
2
3
4
3
2
1
2
7
5
-1
0
3
4
4
3
1
1
0
5
6
-1
-8
-4
0
-1
-2
2
6
3
0
2
4
3
2
2
2
1
1
6
10
15
18
17
16
15
16
20
17
10
3
-4
-9
-13
-14
-13
-12
-12
-16
-21
-20
-18
-18
-18
-16
-14
-10
-6
-9
-12
-11
-10
-7
-4
-3
-3
-7
-8
0
3
-1
-2
2
5
7
8
8
-1
-17
-40
-66
-106
-150
-182
-211
-238
-264
-272
-277
-223
-162
-144
-126
-73
-24
-27
-29
-11
4
5
6
9
12
12
12
10
8
9
10
11
12
13
14
13
13
16
16
12
10
11
14
17
18
17
15
13
12
13
14
15
19
23
19
24
16
20
18
16
16
16
18
20
21
22
21
20
22
24
25
26
25
24
26
28
29
30
31
32
33
35
37
38
37
36
35
35
37
37
35
32
29
28
27
23
19
13
8
3
-2
-5
-8
-9
-10
-12
-14
-15
-16
-18
-20
-19
-18
-16
-14
-16
-18
-16
-14
-14
-14
-13
-12
-13
-14
-14
-14
-13
-12
-13
-14
-13
-12
-12
-12
-11
-10
-11
-12
-12
-13
-14
-13
-12
-12
-12
-12
-12
-12
-12
-12
-12
-12
-12
-12
-12
-12
-12
-11
-10
-10
-11
-13
-13
-11
-10
-9
-8
-9
-10
-11
-12
-11
-9
-7
-6
-6
-6
-7
-8
-8
-6
-6
-7
-8
-8
-8
-6
-4
-2
0
-3
-6
-7
-8
-6
-4
-4
-4
-5
-6
-5
-2
3
7
10
12
13
13
11
10
9
5
0
-6
-13
-14
-15
-16
-17
-20
-23
-26
-28
-24
-20
-22
-24
-16
-10
-11
-12
-12
-12
-9
-6
-7
-8
-8
-8
-7
-6
-6
-5
-3
1
7
10
9
3
-5
-21
-40
-76
-118
-171
-226
-290
-355
-413
-469
-415
-350
-293
-237
-172
-109
-77
-46
-22
-2
3
8
12
16
18
20
18
17
20
22
22
22
23
24
24
25
27
27
25
25
27
28
29
30
29
29
31
32
33
34
33
33
35
36
36
35
36
37
38
38
38
39
40
40
40
45
48
48
48
49
50
52
54
56
59
62
64
63
64
70
73
75
76
77
78
79
80
80
81
83
82
79
75
71
69
67
61
56
50
44
39
34
29
24
21
17
11
6
4
2
2
2
0
-2
-3
-4
-6
-8
-7
-6
-6
-6
-6
-6
-7
-7
-5
-4
-5
-6
-7
-7
-5
-4
-3
-2
-2
-2
-2
-2
-2
-1
0
1
2
-1
-4
-2
0
3
6
5
4
4
4
4
4
6
8
7
6
6
6
5
4
5
4
1
0
1
2
3
5
7
8
8
5
1
1
0
4
4
4
4
3
2
4
6
3
0
3
6
5
4
4
5
11
14
13
14
19
22
23
23
21
16
9
3
-2
-4
-3
-3
-5
-8
-11
-14
-17
-16
-13
-12
-11
-11
-12
-6
0
2
4
3
2
2
2
6
10
8
6
6
6
7
11
19
24
23
21
19
12
-1
-19
-43
-82
-129
-186
-249
-308
-365
-426
-489
-447
-382
-317
-252
-187
-122
-65
-10
3
16
22
28
32
36
38
40
38
36
35
34
35
38
44
47
44
42
43
44
45
46
46
46
45
44
44
45
47
48
47
45
43
45
49
50
50
51
53
54
54
48
44
48
52
53
54
52
50
50
51
56
61
65
68
66
64
64
64
66
69
74
75
72
72
76
77
75
76
80
79
74
