-244
-244
-244
-242
-243
-241
-240
-239
-240
-238
-237
-239
-238
-237
-232
-236
-236
-236
-237
-237
-236
-236
-236
-236
-236
-236
-233
-233
-233
-233
-236
-235
-236
-236
-236
-234
-236
-235
-233
-233
-234
-231
-232
-233
-232
-234
-231
-233
-236
-236
-232
-233
-231
-232
-231
-233
-233
-230
-231
-233
-232
-233
-233
-236
-233
-232
-232
-231
-231
-231
-230
-230
-231
-230
-231
-231
-231
-232
-231
-231
-231
-231
-231
-231
-231
-231
-231
-231
-231
-231
-231
-231
-231
-231
-231
-231
-231
-231
-231
-230
-226
-230
-229
-230
-230
-229
-229
-230
-228
-229
-229
-229
-227
-227
-230
-229
-225
-226
-226
-225
-223
-222
-218
-218
-218
-218
-213
-211
-209
-210
-209
-210
-212
-216
-217
-218
-218
-222
-223
-229
-229
-230
-231
-232
-232
-233
-236
-233
-233
-233
-233
-233
-234
-234
-233
-235
-236
-235
-236
-246
-265
-278
-297
-305
-265
-211
-185
-164
-105
-90
-156
-219
-251
-261
-258
-251
-244
-238
-240
-244
-245
-244
-245
-245
-245
-245
-245
-245
-245
-245
-247
-248
-250
-250
-250
-251
-251
-251
-250
-251
-252
-252
-251
-252
-254
-254
-253
-254
-254
-254
-257
-257
-257
-257
-255
-257
-257
-257
-259
-256
-254
-254
-253
-252
-251
-250
-247
-247
-245
-243
-240
-239
-237
-236
-231
-232
-230
-230
-227
-227
-225
-226
-225
-225
-225
-225
-226
-228
-230
-230
-230
-231
-231
-232
-233
-235
-236
-236
-236
-235
-235
-231
-236
-236
-237
-237
-235
-236
-237
-237
-238
-237
-237
-236
-237
-237
-237
-233
-234
-234
-234
-236
-236
-233
-233
-233
-232
-233
-233
-231
-229
-230
-230
-229
-229
-230
-230
-230
-230
-229
-229
-229
-229
-228
-229
-229
-227
-226
-229
-229
-228
-228
-228
-229
-229
-229
-229
-229
-229
-229
-226
-229
-227
-229
-230
-229
-229
-230
-228
-228
-230
-230
-230
-229
-229
-230
-226
-229
-229
-229
-230
-231
-229
-229
-229
-228
-228
-228
-229
-228
-229
-230
-229
-229
-229
-230
-230
-230
-231
-229
-230
-228
-229
-228
-230
-231
-231
-231
-229
-229
-229
-230
-230
-230
-229
-230
-230
-229
-229
-227
-228
-229
-229
-229
-229
-229
-228
-228
-227
-229
-229
-230
-230
-230
-228
-227
-229
-230
-229
-232
-231
-230
-230
-228
-225
-224
-222
-223
-222
-219
-218
-214
-211
-210
-210
-211
-216
-218
-219
-219
-222
-223
-222
-229
-231
-231
-233
-233
-233
-233
-234
-236
-237
-238
-238
-239
-239
-239
-233
-237
-238
-239
-238
-244
-261
-273
-288
-308
-305
-257
-204
-184
-156
-94
-96
-166
-234
-265
-269
-265
-261
-254
-250
-250
-251
-252
-252
-252
-254
-254
-257
-254
-256
-257
-256
-256
-256
-258
-257
-257
-257
-262
-258
-260
-259
-259
-262
-261
-261
-261
-263
-262
-265
-265
-263
-265
-265
-267
-265
-265
-266
-265
-264
-265
-265
-265
-266
-265
-264
-260
-258
-259
-257
-258
-254
-251
-251
-251
-246
-244
-243
-238
-239
-237
-235
-236
-236
-238
-239
-239
-240
-239
-240
-241
-245
-242
-244
-244
-245
-245
-243
-245
-245
-247
-249
-250
-250
-250
-250
-251
-250
-251
-251
-252
-251
-251
-247
-251
-250
-249
-250
-250
-250
-250
-250
-250
-250
-249
-247
-247
-247
-247
-248
-250
-250
-250
-249
-248
-247
-246
-245
-247
-247
-244
-247
-245
-245
-245
-245
-247
-250
-248
-248
-250
-249
-248
-250
-250
-250
-245
-250
-250
-249
-250
-250
-250
-250
-248
-250
-251
-249
-250
-250
-250
-249
-250
-251
-250
-250
-251
-252
-252
-252
-252
-251
-252
-251
-251
-251
-251
-251
-251
-251
-251
-251
-251
-250
-251
-250
-251
-251
-250
-247
-252
-251
-251
-250
-251
-251
-251
-251
-251
-251
-250
-250
-250
-250
-251
-249
-250
-251
-251
-250
-251
-250
-250
-250
-253
-252
-251
-251
-251
-251
-251
-251
-250
-245
-245
-244
-242
-240
-238
-239
-238
-235
-230
-231
-231
-231
-237
-240
-241
-240
-240
-245
-250
-247
-252
-253
-255
-254
-258
-257
-258
-257
-257
-258
-258
-258
-258
-258
-258
-259
-258
-257
-261
-275
-288
-294
-308
-313
-278
-225
-198
-171
-116
-118
-190
-255
-282
-291
-288
-280
-271
-265
-264
-265
-266
-266
-267
-267
-266
-265
-265
-271
-268
-268
-269
-268
-267
-267
-269
-270
-271
-269
-271
-271
-271
-269
-271
-273
-271
-271
-271
-271
-271
-271
-271
-271
-274
-272
-273
-273
-273
-271
-271
-274
-271
-271
-269
-270
-269
-267
-267
-266
-264
-259
-259
-257
-254
-252
-251
-250
-247
-245
-244
-245
-245
-244
-245
-244
-243
-242
-239
-244
-245
-245
-245
-245
-248
-249
-249
-250
-250
-248
-249
-249
-250
-250
-247
-251
-251
-250
-250
-249
-250
-251
-251
-250
-251
-250
-250
-249
-250
-250
-249
-251
-251
-250
-250
-250
-247
-247
-244
-245
-245
-243
-244
-242
-244
-242
-242
-244
-244
-242
-244
-244
-240
-243
-243
-243
-243
-239
-242
-243
-243
-242
-241
-242
-242
-240
-240
-241
-240
-240
-239
-240
-241
-239
-240
-239
-240
-239
-239
-239
-238
-239
-239
-239
-240
-239
-239
-239
-238
-238
-237
-237
-238
-238
-237
-235
-236
-235
-236
-236
-233
-236
-237
-237
-237
-237
-237
-237
-237
-236
-238
-236
-237
-238
-238
-237
-232
-235
-237
-236
-237
-237
-235
-234
-235
-236
-236
-236
-235
-236
-235
-236
-236
-235
-236
-237
-236
-237
-238
-237
-237
-238
-239
-238
-237
-238
-237
-236
-231
-230
-228
-226
-225
-226
-225
-224
-219
-217
-218
-215
-219
-223
-226
-226
-226
-229
-232
-236
-237
-239
-237
-238
-237
-238
-239
-236
-240
-239
-239
-240
-243
-242
-241
-240
-242
-241
-241
-251
-267
-278
-293
-305
-271
-212
-187
-177
-125
-91
-142
-218
-259
-271
-271
-263
-254
-246
-247
-247
-247
-251
-251
-251
-251
-249
-251
-251
-251
-251
-247
-251
-252
-252
-254
-254
-254
-254
-254
-256
-254
-256
-256
-257
-257
-258
-263
-258
-259
-258
-259
-259
-259
-258
-259
-258
-258
-258
-259
-259
-258
-257
-257
-257
-254
-251
-252
-251
-248
-246
-245
-243
-243
-238
-237
-233
-231
-230
-230
-229
-230
-230
-230
-231
-231
-231
-232
-231
-232
-231
-234
-236
-235
-237
-237
-236
-236
-236
-237
-238
-237
-235
-236
-238
-240
-238
-238
-237
-238
-240
-238
-238
-239
-236
-237
-237
-236
-236
-234
-234
-232
-231
-231
-231
-231
-231
-232
-230
-230
-229
-230
-229
-225
-228
-230
-230
-230
-229
-228
-230
-229
-230
-230
-227
-229
-229
-229
-230
-227
-229
-230
-230
-229
-229
-231
-230
-229
-229
-230
-231
-230
-229
-230
-231
-230
-230
-231
-231
-231
-230
-230
-231
-231
-231
-232
-229
-231
-229
-228
-229
-228
-229
-227
-229
-229
-230
-228
-228
-226
-227
-231
-229
-230
-228
-229
-228
-229
-228
-228
-229
-229
-227
-226
-226
-229
-229
-227
-226
-227
-226
-225
-226
-226
-225
-226
-226
-226
-225
-226
-226
-226
-225
-225
-225
-226
-224
-225
-225
-226
-224
-224
-224
-225
-224
-222
-225
-225
-228
-226
-226
-226
-225
-225
-223
-219
-217
-215
-216
-215
-215
-210
-209
-205
-205
-208
-208
-209
-212
-215
-214
-215
-215
-218
-223
-225
-224
-226
-226
-226
-229
-229
-230
-231
-231
-231
-233
-231
-231
-231
-230
-231
-231
-231
-244
-263
-274
-293
-308
-276
-218
-188
-165
-106
-85
-150
-219
-251
-263
-259
-254
-245
-242
-239
-243
-243
-245
-247
-246
-245
-244
-245
-245
-245
-246
-247
-248
-247
-250
-251
-251
-251
-250
-251
-251
-251
-253
-254
-254
-254
-257
-256
-257
-257
-257
-256
-255
-259
-257
-257
-257
-257
-256
-257
-254
-254
-256
-252
-252
-251
-250
-249
-247
-243
-243
-241
-238
-236
-234
-232
-231
-229
-228
-225
-225
-225
-224
-223
-225
-223
-225
-226
-227
-228
-229
-232
-231
-231
-232
-234
-234
-233
-232
-233
-233
-231
-233
-236
-236
-236
-235
-236
-236
-236
-236
-237
-231
-236
-236
-237
-238
-236
-237
-236
-236
-236
-236
-237
-237
-236
-233
-235
-231
-236
-234
-234
-232
-233
-232
-234
-233
-234
-232
-233
-231
-231
-232
-232
-233
-232
-232
-233
-233
-231
-231
-232
-233
-232
-231
-232
-233
-234
-234
-234
-231
-233
-232
-233
-232
-231
-229
-232
-234
-234
-236
-232
-236
-236
-235
-234
-236
-237
-235
-237
-238
-236
-236
-235
-236
-236
-237
-233
-236
-236
-238
-237
-239
-237
-236
-236
-237
-237
-237
-237
-236
-236
-234
-235
-237
-236
-236
-237
-238
-238
-238
-238
-237
-239
-236
-237
-237
-237
-236
-236
-239
-238
-239
-239
-239
-238
-236
-236
-239
-238
-236
-238
-238
-237
-237
-237
-237
-237
-235
-236
-231
-231
-229
-227
-226
-229
-222
-220
-218
-219
-220
-223
-227
-229
-226
-230
-231
-234
-236
-239
-243
-243
-242
-244
-245
-245
-245
-247
-250
-251
-251
-250
-251
-247
-250
-251
-250
-252
-251
-269
-284
-298
-316
-318
-275
-218
-193
-167
-111
-97
-166
-243
-277
-285
-280
-275
-266
-261
-260
-261
-265
-266
-266
-266
-265
-266
-267
-267
-267
-265
-264
-266
-267
-267
-267
-268
-271
-271
-270
-270
-270
-271
-269
-271
-272
-272
-272
-274
-272
-275
-274
-274
-278
-274
-271
-272
-273
-274
-271
-271
-273
-271
-270
-268
-268
-267
-265
-263
-263
-258
-255
-254
-252
-251
-248
-247
-245
-243
-242
-240
-240
-242
-243
-243
-243
-244
-245
-247
-249
-250
-248
-250
-251
-252
-253
-258
-254
-254
-254
-256
-257
-257
-256
-257
-258
-257
-258
-258
-258
-258
-257
-261
-258
-258
-256
-257
-258
-259
-259
-259
-259
-257
-257
-258
-256
-257
-256
-258
-257
-256
-255
-255
-256
-254
-253
-254
-254
-252
-252
-252
-252
-252
-252
-254
-252
-252
-252
-254
-253
-253
-251
-251
-252
-252
-257
-251
-252
-253
-253
-251
-252
-252
-250
-251
-252
-251
-251
-252
-252
-252
-255
-252
-252
-252
-252
-251
-251
-251
-250
-251
-251
-249
-251
-250
-251
-251
-250
-252
-254
-254
-253
-252
-254
-255
-252
-252
-252
-257
-252
-254
-253
-253
-253
-254
-257
-257
-254
-252
-253
-255
-255
-256
-254
-259
-257
-254
-252
-252
-253
-254
-254
-257
-255
-254
-254
-254
-252
-252
-251
-257
-252
-251
-248
-245
-243
-241
-240
-240
-240
-238
-233
-232
-233
-233
-238
-240
-243
-243
-244
-245
-250
-254
-257
-257
-256
-254
-259
-257
-258
-258
-258
-260
-258
-259
-259
-258
-257
-258
-258
-258
-260
-272
-291
-296
-307
-318
-300
-247
-203
-185
-133
-99
-152
-236
-278
-294
-292
-288
-283
-272
-267
-267
-270
-271
-271
-270
-271
-271
-271
-271
-273
-272
-273
-271
-274
-272
-271
-272
-275
-275
-274
-274
-276
-278
-277
-280
-277
-278
-278
-278
-278
-278
-278
-278
-278
-278
-278
-278
-278
-278
-276
-278
-276
-274
-273
-271
-270
-271
-269
-267
-265
-264
-264
-259
-256
-254
-253
-251
-250
-247
-245
-245
-244
-243
-241
-243
-243
-242
-242
-244
-245
-245
-246
-247
-248
-247
-249
-249
-250
-245
-251
-251
-250
-248
-245
-250
-250
-250
-251
-251
-251
-251
-251
-251
-251
-250
-250
-251
-251
-250
-247
-250
-249
-248
-247
-249
-247
-245
-245
-246
-247
-245
-244
-245
-245
-245
-242
-244
-244
-243
-243
-244
-243
-243
-242
-243
-241
-237
-240
-241
-240
-240
-239
-239
-239
-238
-239
-241
-240
-238
-239
-239
-240
-235
-238
-237
-238
-239
-240
-239
-238
-238
-238
-237
-237
-236
-236
-236
-235
-236
-236
-236
-236
-237
-235
-235
-237
-237
-235
-237
-237
-236
-236
-238
-239
-238
-238
-238
-238
-238
-237
-237
-235
-237
-236
-237
-233
-237
-237
-238
-238
-237
-235
-236
-237
-237
-238
-237
-236
-237
-237
-237
-233
-237
-235
-237
-236
-237
-237
-236
-236
-236
-236
-235
-234
-235
-232
-233
-231
-234
-233
-232
-229
-226
-224
-223
-220
-220
-219
-214
-211
-211
-211
-211
-215
-218
-218
-220
-222
-223
-223
-229
-231
-231
-231
-231
-237
-237
-237
-237
-237
-239
-239
-239
-239
-240
-239
-239
-238
-238
-239
-245
-265
-273
-283
-298
-310
-273
-215
-187
-178
-134
-90
-125
-204
-252
-270
-271
-266
-258
-248
-245
-247
-248
-250
-250
-250
-251
-246
-251
-251
-251
-251
-251
-252
-252
-251
-254
-252
-252
-252
-254
-254
-254
-256
-254
-256
-257
-257
-256
-258
-258
-258
-258
-258
-258
-258
-258
-258
-258
-258
-258
-258
-258
-255
-256
-257
-252
-250
-251
-252
-250
-246
-245
-242
-238
-236
-235
-233
-231
-229
-226
-223
-223
-220
-219
-219
-218
-222
-223
-223
-224
-222
-225
-226
-229
-230
-231
-230
-230
-230
-231
-231
-230
-232
-232
-233
-234
-234
-233
-235
-236
-235
-236
-235
-236
-235
-236
-237
-235
-235
-235
-235
-233
-233
-233
-233
-233
-233
-234
-231
-233
-233
-231
-231
-230
-231
-231
-230
-230
-231
-225
-229
-230
-230
-230
-226
-229
-228
-229
-229
-229
-229
-230
-230
-229
-229
-228
-229
-228
-230
-228
-225
-226
-226
-226
-226
-226
-225
-225
-225
-227
-226
-226
-225
-225
-224
-226
-225
-225
-225
-225
-225
-226
-226
-228
-225
-226
-226
-223
-226
-226
-226
-226
-225
-225
-225
-226
-227
-226
-226
-226
-225
-225
-225
-223
-225
-225
-225
-225
-225
-223
-223
-225
-225
-225
-225
-225
-225
-225
-225
-225
-225
-223
-223
-225
-225
-224
-224
-224
-224
-223
-222
-223
-225
-225
-226
-226
-225
-225
-224
-225
-225
-225
-225
-225
-225
-225
-221
-223
-223
-219
-215
-215
-216
-215
-211
-211
-211
-208
-205
-206
-207
-211
-210
-215
-216
-216
-216
-218
-223
-226
-229
-228
-230
-231
-231
-230
-231
-233
-231
-233
-233
-234
-236
-235
-234
-236
-236
-235
-234
-240
-262
-278
-295
-314
-298
-242
-197
-178
-138
-78
-101
-174
-229
-257
-261
-264
-254
-247
-243
-241
-243
-244
-245
-245
-245
-247
-246
-247
-247
-249
-250
-245
-250
-250
-250
-251
-251
-250
-250
-250
-251
-252
-252
-251
-251
-252
-253
-254
-253
-254
-254
-254
-253
-255
-253
-254
-254
-254
-251
-254
-253
-254
-254
-251
-251
-249
-250
-247
-245
-244
-242
-240
-238
-235
-230
-231
-230
-226
-225
-225
-222
-222
-223
-223
-225
-225
-226
-228
-229
-230
-231
-233
-233
-233
-236
-236
-236
-236
-237
-237
-238
-237
-237
-237
-238
-238
-236
-237
-237
-237
-237
-238
-237
-238
-238
-238
-240
-236
-238
-237
-235
-237
-236
-236
-236
-235
-235
-236
-233
-233
-233
-233
-233
-230
-233
-233
-232
-231
-231
-231
-230
-230
-231
-233
-231
-232
-231
-232
-231
-230
-231
-229
-229
-230
-230
-231
-231
-231
-231
-231
-229
-231
-232
-231
-231
-231
-232
-231
-231
-232
-233
-230
-232
-233
-235
-233
-229
-234
-235
-236
-235
-236
-235
-234
-235
-236
-236
-236
-238
-238
-238
-238
-237
-237
-238
-238
-240
-241
-239
-238
-239
-240
-241
-240
-238
-238
-240
-240
-238
-238
-239
-240
-240
-240
-240
-240
-243
-240
-241
-237
-239
-239
-239
-238
-238
-239
-238
-238
-239
-242
-242
-242
-239
-239
-240
-238
-239
-239
-240
-241
-239
-238
-237
-236
-231
-232
-230
-230
-229
-225
-221
-222
-223
-225
-226
-231
-231
-231
-232
-233
-236
-240
-243
-243
-242
-244
-245
-246
-248
-247
-249
-250
-249
-249
-250
-251
-251
-251
-247
-252
-252
-261
-280
-291
-305
-321
-308
-256
-208
-190
-153
-97
-113
-191
-250
-284
-290
-285
-277
-267
-263
-264
-264
-265
-265
-266
-266
-267
-268
-268
-270
-270
-269
-268
-268
-268
-270
-271
-271
-271
-271
-277
-275
-273
-273
-276
-276
-275
-275
-275
-275
-274
-277
-277
-278
-278
-278
-280
-278
-276
-276
-276
-276
-278
-276
-274
-273
-271
-271
-270
-268
-266
-265
-266
-261
-258
-256
-252
-252
-251
-250
-246
-245
-245
-243
-245
-245
-245
-246
-247
-250
-251
-251
-254
-252
-252
-255
-256
-256
-254
-251
-257
-258
-257
-256
-259
-258
-258
-257
-258
-259
-259
-258
-258
-258
-258
-258
-256
-258
-258
-258
-260
-261
-259
-259
-258
-257
-258
-257
-258
-258
-257
-258
-254
-257
-256
-254
-255
-255
-254
-252
-254
-254
-257
-254
-257
-254
-254
-253
-252
-254
-254
-254
-255
-254
-252
-251
-251
-253
-258
-253
-253
-252
-254
-254
-253
-254
-252
-252
-252
-251
-252
-253
-252
-255
-256
-252
-251
-252
-252
-253
-252
-251
-252
-250
-251
-252
-252
-251
-251
-251
-251
-251
-251
-252
-254
-251
-252
-251
-251
-249
-251
-247
-251
-251
-251
-251
-251
-250
-251
-250
-251
-251
-251
-252
-252
-251
-251
-247
-251
-252
-251
-251
-252
-250
-251
-250
-250
-250
-251
-252
-251
-250
-251
-246
-245
-243
-242
-239
-238
-236
-237
-235
-230
-229
-228
-228
-229
-231
-235
-237
-236
-236
-241
-247
-250
-249
-251
-252
-252
-254
-258
-255
-254
-254
-257
-256
-257
-254
-257
-257
-255
-257
-258
-265
-278
-287
-299
-312
-310
-268
-216
-193
-162
-105
-118
-195
-258
-279
-287
-285
-278
-267
-265
-263
-264
-264
-265
-265
-265
-264
-263
-265
-265
-268
-265
-266
-265
-265
-266
-266
-267
-267
-266
-268
-271
-269
-269
-270
-268
-271
-270
-271
-271
-269
-271
-271
-268
-269
-270
-269
-271
-271
-271
-271
-271
-271
-268
-267
-266
-266
-265
-264
-261
-258
-257
-254
-252
-251
-249
-247
-245
-243
-239
-238
-237
-235
-236
-236
-236
-237
-238
-240
-237
-240
-240
-240
-243
-243
-244
-243
-244
-245
-246
-245
-245
-245
-246
-247
-244
-247
-247
-249
-247
-246
-249
-250
-248
-247
-250
-247
-247
-247
-250
-250
-247
-246
-247
-247
-247
-246
-245
-246
-245
-245
-245
-244
-244
-243
-244
-244
-243
-242
-241
-243
-240
-240
-242
-240
-238
-239
-239
-236
-238
-237
-238
-237
-237
-237
-236
-236
-237
-236
-236
-235
-236
-235
-236
-232
-236
-234
-233
-235
-236
-235
-235
-236
-236
-237
-235
-233
-232
-233
-233
-233
-235
-234
-234
-236
-236
-234
-234
-234
-235
-233
-233
-233
-233
-233
-233
-231
-233
-234
-233
-233
-235
-231
-233
-232
-233
-233
-230
-232
-231
-231
-231
-230
-231
-230
-231
-231
-231
-231
-232
-231
-231
-231
-229
-231
-231
-230
-232
-231
-230
-230
-231
-231
-231
-231
-231
-229
-230
-229
-227
-229
-229
-228
-227
-227
-225
-222
-218
-217
-216
-211
-215
-216
-211
-206
-206
-206
-205
-208
-213
-215
-215
-215
-216
-218
-222
-223
-227
-229
-228
-226
-228
-229
-230
-230
-231
-231
-231
-230
-230
-231
-231
-228
-230
-231
-245
-261
-274
-291
-298
-257
-201
-178
-165
-117
-77
-124
-198
-240
-260
-259
-254
-245
-239
-238
-237
-239
-239
-239
-237
-239
-239
-240
-243
-239
-240
-241
-240
-242
-241
-240
-241
-241
-242
-242
-238
-243
-244
-244
-245
-245
-245
-245
-247
-246
-247
-247
-246
-247
-247
-247
-247
-248
-250
-250
-250
-247
-247
-245
-246
-245
-244
-243
-240
-239
-237
-237
-232
-229
-229
-226
-225
-224
-219
-219
-218
-219
-218
-215
-215
-218
-218
-219
-221
-222
-223
-225
-225
-227
-228
-228
-229
-229
-230
-227
-229
-229
-230
-228
-230
-229
-231
-231
-231
-233
-232
-231
-231
-230
-229
-229
-230
-230
-229
-228
-229
-228
-230
-229
-226
-228
-223
-225
-223
-224
-225
-223
-223
-222
-225
-223
-224
-222
-224
-223
-223
-224
-219
-223
-223
-222
-221
-223
-223
-221
-222
-222
-222
-221
-223
-223
-223
-223
-222
-223
-223
-225
-225
-223
-225
-225
-225
-224
-225
-224
-224
-223
-223
-223
-224
-225
-225
-222
-223
-225
-223
-223
-225
-224
-223
-222
-222
-223
-223
-224
-222
-224
-225
-222
-223
-225
-225
-225
-224
-224
-223
-220
-223
-225
-224
-222
-223
-224
-223
-224
-225
-225
-225
-224
-225
-225
-225
-224
-225
-225
-224
-224
-223
-223
-224
-222
-223
-224
-222
-222
-223
-223
-223
-224
-225
-225
-225
-225
-226
-223
-225
-224
-225
-225
-220
-225
-223
-221
-219
-216
-214
-212
-213
-211
-211
-211
-207
-203
-204
-204
-202
-208
-211
-212
-211
-214
-216
-216
-219
-225
-224
-225
-225
-228
-226
-226
-226
-229
-229
-230
-230
-230
-230
-231
-230
-228
-232
-228
-231
-243
-258
-267
-285
-305
-295
-244
-200
-181
-143
-84
-102
-174
-225
-250
-261
-255
-251
-243
-238
-238
-239
-242
-241
-242
-242
-243
-243
-243
-243
-241
-243
-244
-245
-244
-244
-243
-245
-245
-246
-246
-247
-247
-247
-249
-248
-247
-250
-250
-251
-251
-251
-251
-250
-251
-251
-251
-247
-250
-250
-250
-250
-248
-248
-249
-247
-245
-243
-242
-242
-239
-237
-236
-230
-231
-229
-225
-225
-223
-219
-218
-218
-217
-217
-218
-218
-216
-218
-218
-221
-223
-224
-224
-225
-227
-227
-226
-226
-227
-230
-229
-228
-230
-229
-231
-232
-232
-231
-231
-232
-233
-230
-233
-233
-233
-235
-230
-232
-233
-231
-232
-232
-231
-232
-231
-231
-231
-232
-233
-233
-231
-231
-230
-231
-231
-230
-229
-230
-230
-230
-230
-231
-231
-231
-231
-232
-231
-232
-232
-233
-231
-232
-234
-233
-233
-236
-234
-236
-237
-232
-236
-236
-235
-236
-237
-235
-236
-237
-236
-237
-235
-236
-237
-234
-234
-232
-236
-236
-237
-239
-238
-238
-236
-237
-236
-238
-239
-239
-238
-238
-237
-237
-238
-237
-235
-237
-238
-238
-237
-238
-238
-238
-238
-240
-239
-239
-239
-238
-240
-238
-237
-238
-239
-239
-239
-238
-239
-238
-236
-238
-239
-241
-240
-238
-240
-243
-243
-243
-243
-243
-244
-243
-244
-245
-242
-244
-245
-246
-247
-244
-243
-244
-244
-243
-243
-243
-242
-238
-237
-235
-233
-233
-231
-229
-227
-225
-225
-225
-229
-232
-233
-231
-236
-237
-238
-242
-245
-247
-246
-247
-250
-250
-246
-252
-252
-252
-253
-256
-252
-252
-251
-252
-254
-252
-252
-256
-271
-285
-293
-309
-322
-292
-236
-195
-178
-122
-90
-149
-231
-271
-287
-284
-278
-271
-264
-261
-261
-264
-265
-265
-265
-265
-265
-266
-266
-267
-268
-268
-268
-268
-271
-270
-271
-271
-271
-274
-273
-272
-274
-272
-272
-274
-275
-277
-278
-278
-280
-278
-278
-278
-278
-278
-278
-278
-278
-278
-277
-278
-277
-276
-273
-273
-274
-271
-271
-267
-265
-264
-261
-260
-258
-255
-254
-254
-249
-250
-248
-247
-245
-246
-246
-250
-249
-250
-251
-251
-252
-253
-257
-261
-259
-258
-258
-258
-258
-261
-261
-262
-260
-261
-264
-262
-261
-261
-261
-265
-264
-263
-261
-259
-258
-261
-260
-260
-261
-259
-261
-263
-260
-261
-259
-259
-258
-257
-258
-258
-257
-257
-255
-255
-254
-254
-258
-254
-254
-254
-256
-254
-257
-256
-257
-254
-257
-256
-255
-255
-254
-255
-257
-251
-254
-254
-254
-255
-254
-254
-252
-254
-252
-254
-255
-257
-254
-257
-258
-252
-252
-253
-254
-252
-252
-254
-254
-252
-252
-254
-257
-256
-256
-257
-253
-252
-253
-254
-256
-254
-257
-254
-254
-253
-254
-257
-254
-252
-252
-252
-254
-254
-253
-254
-254
-252
-251
-252
-254
-254
-254
-258
-254
-254
-253
-254
-254
-254
-253
-252
-255
-252
-251
-252
-252
-254
-255
-258
-255
-254
-253
-254
-252
-252
-252
-252
-251
-248
-245
-244
-244
-242
-239
-238
-237
-233
-231
-232
-232
-231
-236
-238
-239
-240
-236
-244
-249
-252
-252
-252
-252
-252
-254
-254
-252
-254
-256
-254
-254
-257
-258
-254
-254
-255
-255
-257
-259
-271
-283
-293
-307
-310
-271
-219
-197
-173
-112
-108
-176
-245
-275
-285
-285
-279
-271
-264
-261
-265
-264
-261
-259
-261
-263
-264
-263
-264
-264
-264
-263
-265
-265
-266
-265
-268
-266
-265
-266
-267
-267
-268
-268
-269
-270
-269
-269
-268
-269
-271
-270
-272
-270
-271
-271
-271
-268
-270
-268
-268
-269
-268
-267
-267
-267
-266
-264
-263
-260
-259
-258
-254
-254
-251
-248
-246
-243
-242
-237
-239
-237
-238
-237
-236
-238
-239
-239
-240
-241
-241
-240
-240
-241
-244
-240
-243
-243
-243
-244
-244
-243
-244
-244
-244
-245
-244
-245
-245
-245
-247
-245
-245
-245
-245
-245
-245
-245
-245
-244
-244
-245
-245
-244
-244
-244
-244
-243
-243
-242
-243
-243
-243
-239
-240
-241
-240
-240
-237
-240
-238
-238
-238
-238
-237
-238
-237
-237
-238
-238
-238
-237
-238
-238
-235
-238
-238
-238
-237
-238
-237
-238
-238
-238
-238
-236
-236
-236
-236
-236
-236
-237
-236
-235
-235
-237
-237
-236
-236
-236
-237
-232
-235
-236
-236
-236
-235
-236
-233
-232
-234
-235
-231
-233
-232
-231
-231
-229
-232
-231
-231
-231
-233
-233
-232
-232
-231
-231
-230
-230
-230
-231
-230
-226
-230
-230
-229
-229
-230
-229
-229
-229
-229
-230
-229
-230
-229
-229
-229
-227
-228
-228
-229
-229
-230
-230
-230
-230
-230
-231
-226
-230
-231
-230
-228
-226
-226
-222
-219
-220
-219
-219
-218
-215
-211
-211
-209
-211
-215
-218
-219
-218
-220
-222
-225
-229
-232
-233
-231
-232
-235
-237
-236
-235
-235
-235
-236
-236
-236
-235
-233
-235
-234
-236
-236
-245
-261
-271
-291
-304
-278
-219
-188
-173
-125
-90
-139
-215
-254
-270
-264
-259
-251
-244
-243
-243
-243
-245
-245
-246
-245
-247
-248
-247
-249
-245
-249
-248
-250
-251
-251
-251
-251
-252
-252
-252
-252
-252
-252
-253
-256
-256
-257
-257
-257
-257
-257
-257
-257
-258
-258
-257
-260
-258
-258
-257
-257
-258
-257
-255
-254
-252
-252
-249
-248
-245
-244
-242
-238
-238
-235
-235
-232
-231
-230
-229
-226
-226
-228
-228
-228
-230
-230
-231
-230
-233
-233
-234
-237
-237
-237
-237
-237
-238
-238
-240
-239
-239
-238
-239
-238
-239
-241
-243
-243
-240
-240
-239
-240
-240
-240
-238
-241
-242
-240
-242
-240
-240
-240
-239
-239
-240
-238
-239
-238
-238
-238
-236
-238
-236
-236
-236
-237
-237
-237
-235
-235
-237
-236
-236
-236
-236
-237
-235
-237
-237
-237
-236
-237
-237
-235
-238
-237
-237
-237
-235
-235
-235
-237
-236
-236
-235
-237
-238
-239
-236
-237
-238
-238
-239
-236
-238
-239
-239
-238
-237
-238
-238
-238
-238
-238
-239
-239
-240
-239
-240
-237
-239
-239
-240
-239
-239
-240
-239
-238
-239
-240
-240
-240
-239
-240
-239
-238
-239
-239
-240
-240
-239
-239
-239
-238
-240
-241
-238
-240
-240
-240
-242
-238
-239
-240
-240
-240
-241
-239
-243
-238
-239
-240
-238
-243
-242
-240
-241
-241
-241
-241
-240
-240
-242
-239
-240
-240
-239
-240
-238
-238
-236
-233
-231
-231
-229
-229
-230
-226
-224
-223
-221
-223
-225
-230
-230
-231
-233
-233
-237
-240
-243
-245
-245
-245
-245
-243
-247
-247
-246
-250
-250
-250
-250
-250
-250
-250
-249
-250
-251
-251
-267
-287
-298
-320
-325
-278
-227
-200
-166
-105
-113
-186
-245
-271
-280
-275
-270
-264
-259
-259
-260
-261
-261
-264
-264
-264
-264
-264
-266
-265
-265
-265
-265
-266
-266
-267
-267
-267
-268
-268
-271
-270
-268
-269
-273
-271
-272
-271
-271
-273
-273
-274
-272
-272
-271
-271
-272
-272
-271
-272
-274
-271
-270
-268
-267
-265
-265
-263
-260
-258
-255
-253
-252
-249
-245
-245
-241
-239
-237
-237
-238
-237
-235
-236
-237
-238
-240
-238
-243
-244
-245
-247
-248
-247
-248
-251
-249
-251
-250
-250
-250
-251
-249
-248
-251
-251
-251
-251
-252
-251
-251
-251
-250
-251
-251
-251
-251
-250
-249
-248
-250
-250
-251
-251
-250
-250
-251
-250
-249
-250
-247
-247
-247
-249
-248
-247
-249
-247
-248
-248
-250
-248
-246
-247
-247
-247
-243
-245
-245
-245
-247
-248
-249
-248
-247
-247
-250
-248
-247
-247
-247
-246
-244
-245
-245
-245
-245
-245
-245
-245
-245
-245
-245
-245
-245
-245
-245
-245
-244
-244
-245
-245
-245
-245
-245
-245
-245
-245
-245
-244
-244
-244
-243
-243
-243
-243
-243
-242
-243
-244
-240
-243
-244
-244
-245
-240
-242
-243
-240
-243
-244
-244
-242
-243
-243
-243
-243
-240
-240
-240
-243
-237
-241
-240
-242
-240
-241
-243
-243
-240
-240
-243
-242
-240
-243
-241
-243
-241
-242
-243
-243
-241
-240
-238
-239
-239
-238
-236
-231
-233
-233
-231
-231
-230
-229
-225
-222
-221
-223
-222
-225
-230
-230
-231
-229
-233
-235
-238
-243
-244
-244
-245
-245
-245
-247
-246
-250
-250
-247
-250
-246
-250
-251
-250
-250
-249
-247
-251
-267
-282
-292
-308
-316
-282
-224
-195
-174
-115
-92
-156
-232
-271
-285
-280
-275
-267
-261
-263
-260
-261
-261
-261
-264
-264
-264
-264
-264
-264
-265
-265
-264
-266
-266
-269
-267
-268
-267
-266
-266
-267
-267
-268
-269
-268
-270
-271
-269
-269
-270
-271
-271
-271
-271
-271
-271
-270
-270
-270
-269
-267
-271
-271
-268
-266
-264
-261
-258
-258
-257
-254
-252
-247
-247
-245
-244
-243
-238
-238
-237
-237
-235
-237
-238
-239
-240
-238
-243
-242
-244
-244
-245
-248
-245
-247
-250
-251
-250
-251
-250
-251
-252
-252
-251
-251
-253
-253
-251
-254
-254
-254
-253
-252
-251
-252
-251
-251
-253
-254
-254
-256
-252
-251
-251
-251
-251
-250
-251
-249
-250
-251
-249
-249
-250
-250
-249
-247
-247
-247
-247
-246
-247
-245
-247
-245
-247
-248
-247
-249
-248
-247
-246
-246
-247
-245
-246
-249
-251
-250
-245
-245
-245
-245
-247
-246
-245
-245
-247
-245
-245
-247
-247
-247
-246
-247
-246
-246
-247
-250
-245
-247
-246
-245
-245
-245
-245
-247
-247
-248
-250
-248
-246
-247
-247
-247
-244
-250
-248
-248
-249
-247
-248
-247
-246
-247
-247
-247
-248
-248
-247
-247
-246
-250
-251
-251
-249
-250
-250
-250
-250
-250
-249
-245
-248
-250
-250
-250
-246
-249
-248
-247
-246
-250
-245
-245
-241
-240
-239
-232
-236
-235
-232
-230
-227
-229
-229
-230
-231
-235
-236
-236
-238
-240
-244
-244
-247
-248
-250
-251
-251
-252
-252
-252
-252
-252
-254
-252
-252
-252
-251
-251
-251
-254
-264
-278
-285
-299
-311
-291
-237
-196
-178
-127
-95
-150
-230
-269
-285
-285
-282
-271
-262
-260
-261
-262
-263
-261
-265
-263
-264
-264
-265
-265
-264
-265
-266
-266
-265
-266
-268
-268
-268
-267
-270
-268
-268
-269
-270
-268
-270
-269
-270
-271
-267
-270
-270
-269
-270
-269
-270
-268
-268
-267
-269
-268
-267
-267
-266
-265
-260
-265
-261
-259
-257
-253
-254
-250
-247
-244
-243
-243
-238
-236
-234
-232
-234
-230
-233
-236
-235
-237
-238
-238
-239
-238
-240
-243
-243
-242
-244
-244
-245
-244
-245
-245
-244
-245
-245
-245
-245
-245
-245
-245
-245
-246
-245
-245
-245
-245
-244
-245
-243
-245
-245
-242
-245
-245
-244
-244
-239
-242
-242
-242
-242
-240
-240
-238
-238
-239
-240
-238
-238
-238
-238
-239
-234
-237
-238
-237
-237
-240
-240
-238
-236
-237
-238
-237
-236
-237
-238
-237
-236
-237
-238
-237
-238
-237
-237
-238
-236
-237
-238
-234
-237
-237
-237
-237
-235
-237
-237
-237
-236
-237
-238
-237
-236
-237
-238
-233
-235
-237
-237
-237
-236
-235
-237
-237
-236
-236
-237
-237
-235
-236
-238
-237
-236
-237
-238
-238
-238
-237
-237
-237
-236
-237
-236
-237
-236
-238
-238
-237
-238
-239
-239
-238
-237
-236
-237
-237
-237
-238
-234
-237
-236
-236
-237
-236
-236
-236
-236
-236
-236
-236
-235
-231
-229
-225
-222
-223
-222
-221
-218
-215
-211
-212
-212
-215
-219
-221
-222
-222
-221
-225
-229
-231
-231
-232
-232
-234
-235
-236
-236
-236
-236
-234
-237
-236
-238
-238
-237
-239
-238
-239
-250
-266
-278
-295
-308
-279
-222
-187
-178
-141
-91
-125
-204
-251
-268
-268
-264
-254
-246
-245
-246
-250
-251
-248
-251
-252
-251
-251
-252
-252
-252
-252
-254
-252
-252
-252
-251
-252
-253
-254
-252
-254
-255
-256
-256
-258
-256
-258
-258
-258
-259
-258
-258
-258
-258
-258
-258
-258
-257
-258
-257
-258
-258
-257
-253
-254
-248
-249
-247
-247
-245
-244
-240
-238
-235
-235
-235
-230
-226
-225
-225
-225
-222
-222
-225
-225
-225
-226
-227
-229
-231
-232
-231
-233
-232
-233
-233
-236
-234
-233
-233
-236
-237
-237
-236
-237
-237
-237
-238
-236
-236
-237
-236
-236
-236
-237
-237
-236
-235
-237
-236
-235
-236
-236
-235
-231
-234
-233
-233
-233
-231
-231
-231
-230
-231
-232
-231
-231
-230
-231
-231
-230
-231
-231
-231
-230
-231
-232
-232
-232
-231
-232
-230
-232
-232
-232
-233
-233
-235
-233
-233
-234
-233
-231
-234
-233
-233
-233
-230
-231
-231
-231
-231
-236
-233
-233
-233
-233
-236
-235
-234
-236
-236
-235
-233
-237
-237
-237
-237
-236
-235
-236
-236
-234
-234
-235
-236
-232
-234
-236
-236
-233
-235
-234
-231
-233
-235
-233
-233
-233
-236
-231
-232
-234
-233
-234
-233
-233
-232
-232
-236
-236
-235
-235
-233
-233
-236
-230
-233
-233
-232
-233
-233
-231
-232
-232
-231
-231
-231
-231
-230
-231
-231
-231
-230
-226
-225
-223
-223
-222
-222
-221
-218
-212
-211
-211
-213
-216
-222
-221
-222
-223
-224
-226
-231
-233
-233
-234
-236
-238
-234
-238
-240
-241
-241
-240
-242
-242
-240
-243
-244
-244
-242
-242
-244
-260
-278
-291
-314
-315
-267
-216
-191
-164
-104
-94
-161
-226
-256
-268
-266
-260
-252
-247
-247
-250
-250
-251
-252
-251
-250
-252
-252
-257
-251
-251
-252
-252
-252
-252
-254
-254
-254
-256
-254
-257
-256
-256
-258
-261
-258
-258
-258
-258
-258
-258
-258
-258
-257
-257
-258
-259
-258
-258
-258
-261
-257
-257
-257
-254
-253
-252
-251
-250
-247
-247
-243
-240
-239
-237
-233
-231
-229
-228
-225
-223
-223
-223
-223
-223
-225
-225
-224
-226
-228
-229
-231
-233
-234
-236
-237
-237
-236
-237
-237
-238
-238
-240
-237
-239
-238
-240
-242
-241
-239
-240
-240
-240
-243
-244
-243
-243
-241
-242
-241
-244
-243
-240
-242
-241
-239
-239
-239
-238
-239
-238
-239
-237
-238
-240
-238
-239
-238
-238
-238
-238
-236
-238
-238
-239
-238
-235
-237
-238
-238
-239
-239
-238
-240
-239
-239
-238
-237
-238
-238
-239
-239
-236
-238
-238
-240
-239
-240
-241
-241
-242
-241
-241
-241
-239
-239
-240
-239
-240
-243
-243
-244
-244
-244
-243
-241
-243
-243
-244
-239
-243
-244
-245
-242
-244
-244
-244
-243
-243
-244
-240
-243
-243
-244
-244
-240
-243
-244
-244
-244
-244
-244
-244
-242
-243
-245
-244
-244
-245
-245
-246
-244
-245
-244
-244
-244
-244
-244
-245
-245
-244
-244
-243
-244
-243
-243
-243
-242
-241
-242
-243
-240
-237
-235
-234
-236
-233
-234
-228
-225
-222
-222
-224
-224
-230
-231
-233
-233
-235
-236
-237
-240
-245
-245
-243
-245
-245
-245
-248
-250
-250
-251
-252
-254
-252
-252
-253
-251
-252
-252
-254
-257
-270
-284
-294
-308
-320
-296
-238
-199
-183
-132
-97
-142
-224
-268
-286
-285
-282
-274
-265
-264
-264
-264
-264
-263
-265
-268
-266
-266
-266
-266
-267
-267
-270
-269
-268
-268
-271
-271
-271
-269
-270
-272
-270
-271
-271
-271
-271
-272
-273
-273
-274
-271
-273
-273
-274
-272
-274
-275
-274
-271
-271
-271
-268
-267
-267
-267
-265
-261
-265
-261
-258
-254
-254
-251
-250
-249
-245
-245
-244
-239
-240
-238
-238
-239
-237
-240
-238
-239
-242
-244
-244
-245
-247
-249
-250
-250
-250
-251
-251
-250
-250
-250
-250
-251
-251
-251
-252
-251
-252
-252
-251
-251
-251
-251
-251
-251
-252
-252
-251
-252
-252
-251
-251
-251
-250
-250
-251
-247
-250
-249
-247
-247
-250
-248
-250
-250
-249
-249
-249
-247
-247
-247
-248
-243
-246
-245
-244
-245
-245
-244
-244
-245
-247
-248
-247
-247
-246
-247
-247
-247
-246
-245
-245
-246
-248
-247
-247
-245
-245
-245
-245
-246
-248
-245
-245
-245
-246
-247
-247
-247
-247
-245
-245
-245
-246
-247
-244
-246
-246
-245
-245
-245
-246
-245
-245
-245
-245
-245
-245
-245
-244
-245
-242
-244
-244
-245
-245
-244
-242
-243
-244
-244
-244
-243
-243
-241
-242
-243
-238
-239
-239
-240
-242
-243
-243
-240
-238
-240
-239
-237
-238
-240
-240
-241
-238
-239
-238
-237
-236
-231
-229
-229
-227
-228
-228
-221
-219
-217
-217
-218
-219
-222
-225
-225
-225
-227
-230
-234
-239
-239
-239
-238
-238
-239
-239
-240
-243
-241
-242
-243
-242
-242
-241
-243
-241
-242
-244
-245
-258
-269
-279
-293
-301
-273
-214
-184
-168
-115
-90
-149
-222
-258
-276
-275
-270
-263
-255
-251
-251
-250
-251
-252
-252
-252
-250
-254
-252
-251
-254
-254
-255
-254
-256
-257
-257
-256
-256
-257
-257
-257
-259
-258
-258
-258
-259
-259
-259
-259
-259
-259
-258
-261
-261
-261
-260
-258
-260
-259
-259
-258
-258
-256
-257
-253
-254
-252
-251
-244
-247
-245
-242
-239
-237
-233
-231
-230
-229
-227
-225
-222
-223
-222
-223
-222
-225
-226
-226
-229
-230
-230
-231
-231
-232
-233
-232
-231
-233
-235
-236
-233
-235
-235
-236
-236
-236
-237
-237
-236
-237
-237
-233
-237
-237
-238
-237
-236
-237
-237
-237
-237
-237
-236
-237
-235
-236
-237
-232
-236
-235
-235
-236
-235
-233
-233
-233
-235
-233
-233
-233
-236
-235
-233
-231
-234
-235
-233
-236
-234
-234
-234
-235
-234
-235
-233
-232
-231
-233
-236
-233
-232
-235
-236
-234
-233
-234
-234
-236
-236
-234
-231
-235
-233
-233
-233
-231
-233
-233
-233
-233
-235
-234
-236
-234
-235
-233
-231
-233
-233
-236
-235
-234
-235
-233
-231
-233
-232
-233
-233
-233
-233
-233
-232
-233
-231
-232
-233
-233
-231
-232
-231
-233
-232
-233
-233
-233
-233
-233
-233
-236
-235
-235
-234
-233
-230
-233
-233
-233
-233
-232
-237
-236
-236
-235
-236
-236
-233
-233
-233
-231
-231
-230
-231
-226
-224
-222
-223
-222
-219
-218
-216
-213
-215
-215
-218
-223
-223
-223
-222
-222
-222
-226
-230
-231
-231
-233
-236
-236
-236
-237
-237
-238
-236
-239
-239
-238
-239
-239
-239
-238
-238
-249
-266
-278
-295
-311
-285
-229
-188
-178
-135
-85
-128
-210
-254
-269
-267
-263
-252
-247
-245
-247
-250
-251
-250
-250
-249
-251
-250
-250
-251
-252
-251
-252
-252
-251
-251
-253
-254
-257
-257
-254
-257
-257
-257
-258
-258
-258
-259
-258
-259
-263
-259
-259
-259
-261
-263
-261
-261
-261
-260
-259
-259
-259
-257
-257
-257
-258
-254
-251
-250
-248
-245
-242
-240
-238
-236
-234
-232
-231
-231
-230
-231
-229
-229
-230
-230
-231
-232
-233
-236
-237
-238
-238
-238
-238
-238
-238
-240
-238
-239
-240
-240
-240
-241
-237
-239
-238
-240
-240
-238
-241
-240
-240
-240
-240
-243
-241
-239
-238
-239
-239
-239
-238
-238
-238
-236
-237
-238
-238
-237
-235
-236
-235
-236
-237
-236
-235
-236
-237
-236
-237
-236
-236
-234
-237
-238
-237
-236
-236
-237
-237
-235
-232
-237
-237
-235
-237
-236
-236
-236
-236
-235
-236
-236
-235
-236
-235
-235
-232
-236
-236
-235
-237
-238
-236
-235
-237
-237
-238
-236
-238
-238
-238
-239
-238
-238
-237
-238
-238
-239
-238
-237
-238
-238
-238
-236
-236
-236
-236
-236
-236
-238
-237
-237
-237
-237
-237
-238
-237
-237
-237
-232
-236
-236
-236
-237
-236
-235
-236
-235
-236
-237
-236
-234
-236
-236
-236
-231
-234
-235
-233
-232
-233
-235
-236
-236
-234
-233
-233
-231
-232
-233
-231
-227
-225
-224
-222
-219
-219
-218
-216
-212
-211
-214
-215
-219
-223
-223
-224
-224
-225
-227
-232
-232
-234
-233
-238
-238
-237
-239
-237
-239
-240
-243
-244
-243
-243
-244
-244
-244
-244
-243
-258
-274
-289
-308
-326
-291
-233
-200
-176
-118
-87
-143
-214
-251
-267
-270
-266
-258
-251
-251
-251
-252
-252
-254
-254
-254
-257
-258
-258
-258
-256
-259
-258
-257
-258
-259
-261
-258
-259
-260
-264
-263
-264
-264
-264
-264
-265
-268
-266
-267
-267
-267
-267
-267
-267
-268
-268
-267
-267
-267
-266
-265
-264
-266
-261
-261
-260
-257
-255
-253
-252
-251
-248
-245
-244
-243
-240
-238
-237
-233
-233
-232
-233
-233
-236
-236
-237
-238
-238
-239
-239
-245
-245
-247
-249
-251
-251
-252
-252
-252
-252
-252
-252
-252
-254
-257
-259
-256
-256
-256
-254
-254
-254
-256
-254
-254
-254
-254
-256
-254
-254
-253
-254
-254
-254
-253
-252
-254
-251
-251
-251
-252
-251
-250
-251
-251
-251
-250
-250
-252
-250
-250
-252
-252
-247
-251
-250
-250
-250
-247
-251
-251
-251
-250
-250
-250
-251
-252
-251
-252
-251
-250
-250
-251
-251
-250
-251
-251
-251
-252
-251
-250
-250
-250
-250
-252
-252
-252
-251
-251
-251
-251
-251
-252
-252
-251
-252
-252
-252
-251
-251
-251
-247
-251
-252
-251
-251
-249
-251
-251
-250
-252
-251
-251
-250
-250
-251
-251
-247
-251
-251
-251
-251
-252
-251
-251
-251
-250
-251
-251
-251
-251
-252
-252
-251
-252
-252
-252
-253
-251
-251
-249
-250
-245
-245
-244
-243
-240
-239
-238
-233
-229
-228
-229
-230
-236
-240
-239
-238
-240
-244
-244
-251
-251
-254
-255
-257
-257
-257
-257
-257
-254
-257
-256
-258
-258
-258
-261
-258
-258
-261
-270
-286
-295
-308
-323
-313
-265
-211
-190
-147
-89
-111
-193
-258
-285
-294
-291
-284
-273
-268
-267
-267
-267
-273
-271
-271
-270
-270
-269
-269
-271
-272
-274
-274
-273
-274
-275
-274
-273
-278
-275
-276
-276
-275
-278
-279
-280
-280
-282
-280
-278
-280
-279
-280
-279
-284
-280
-279
-279
-280
-278
-278
-278
-277
-278
-274
-272
-273
-271
-271
-271
-269
-266
-265
-264
-259
-258
-258
-253
-252
-251
-250
-245
-247
-247
-247
-247
-247
-247
-250
-251
-252
-254
-257
-257
-257
-257
-256
-263
-259
-261
-261
-261
-261
-261
-261
-260
-259
-259
-259
-259
-260
-259
-259
-261
-261
-261
-260
-259
-258
-259
-260
-258
-258
-257
-257
-257
-257
-254
-254
-256
-254
-255
-254
-252
-252
-253
-254
-255
-254
-254
-258
-254
-254
-256
-254
-251
-252
-252
-253
-252
-254
-254
-256
-253
-251
-252
-250
-251
-252
-252
-251
-252
-252
-254
-252
-251
-251
-252
-252
-252
-251
-252
-252
-252
-251
-251
-252
-251
-252
-253
-254
-251
-252
-250
-251
-251
-250
-249
-250
-250
-251
-249
-249
-250
-245
-250
-251
-251
-247
-245
-250
-250
-250
-250
-251
-250
-250
-250
-250
-250
-250
-249
-248
-249
-250
-245
-249
-248
-247
-248
-249
-250
-247
-247
-248
-250
-250
-246
-245
-243
-240
-238
-238
-236
-236
-236
-232
-226
-225
-226
-226
-230
-231
-236
-236
-237
-237
-239
-243
-245
-246
-249
-250
-250
-249
-250
-250
-250
-247
-251
-251
-251
-251
-251
-251
-250
-251
-251
-264
-280
-290
-304
-315
-290
-231
-195
-188
-150
-97
-118
-195
-257
-281
-284
-278
-271
-259
-257
-257
-257
-258
-258
-258
-257
-258
-258
-258
-259
-259
-259
-258
-262
-259
-261
-261
-260
-261
-261
-263
-262
-264
-263
-265
-266
-266
-267
-266
-270
-266
-267
-266
-265
-265
-265
-265
-267
-267
-267
-267
-266
-265
-265
-264
-263
-264
-259
-257
-255
-254
-252
-250
-247
-245
-245
-238
-238
-235
-234
-232
-231
-231
-231
-231
-231
-231
-231
-233
-236
-236
-239
-237
-239
-240
-244
-244
-243
-243
-244
-244
-244
-246
-244
-244
-243
-244
-245
-244
-245
-245
-245
-245
-245
-244
-244
-244
-245
-244
-244
-245
-244
-244
-242
-244
-243
-244
-243
-243
-243
-241
-240
-238
-239
-239
-236
-238
-238
-238
-238
-236
-238
-237
-237
-237
-237
-237
-237
-237
-238
-237
-231
-236
-237
-237
-237
-236
-236
-236
-235
-236
-237
-236
-237
-236
-234
-237
-236
-236
-237
-236
-237
-237
-237
-237
-237
-238
-237
-238
-237
-238
-238
-236
-236
-236
-235
-237
-236
-236
-236
-237
-237
-236
-238
-234
-238
-237
-238
-238
-238
-238
-239
-238
-239
-238
-237
-238
-237
-238
-238
-236
-239
-237
-236
-238
-238
-238
-238
-239
-240
-238
-239
-237
-237
-237
-236
-238
-238
-238
-236
-237
-237
-237
-236
-236
-237
-236
-232
-236
-237
-237
-236
-233
-233
-231
-229
-226
-225
-225
-224
-223
-219
-218
-211
-214
-215
-216
-219
-222
-223
-223
-224
-225
-229
-231
-233
-236
-235
-238
-235
-237
-238
-238
-239
-239
-240
-242
-242
-241
-240
-238
-239
-239
-238
-245
-265
-278
-295
-316
-310
-258
-208
-185
-156
-90
-92
-164
-228
-260
-271
-266
-261
-252
-247
-245
-247
-250
-250
-247
-249
-251
-252
-250
-251
-250
-251
-252
-253
-252
-254
-252
-252
-254
-254
-256
-253
-254
-255
-258
-257
-257
-258
-258
-258
-259
-259
-260
-258
-258
-260
-258
-258
-259
-259
-259
-258
-257
-257
-257
-255
-255
-254
-253
-252
-250
-244
-245
-244
-240
-239
-235
-236
-231
-229
-226
-225
-225
-225
-225
-224
-225
-223
-226
-229
-230
-230
-230
-232
-233
-236
-237
-236
-238
-238
-238
-239
-239
-239
-240
-239
-239
-239
-238
-239
-238
-238
-239
-240
-236
-239
-238
-239
-240
-238
-237
-238
-239
-239
-239
-237
-236
-236
-236
-233
-231
-233
-231
-231
-232
-231
-230
-230
-230
-230
-230
-229
-229
-228
-229
-229
-227
-230
-229
-229
-230
-231
-230
-231
-230
-230
-231
-230
-230
-230
-231
-230
-230
-230
-230
-227
-229
-228
-230
-229
-230
-230
-229
-225
-230
-230
-229
-229
-229
-229
-229
-229
-229
-229
-226
-226
-228
-228
-227
-225
-227
-229
-229
-229
-229
-229
-229
-226
-229
-230
-228
-229
-230
-230
-230
-230
-230
-229
-228
-228
-228
-229
-229
-230
-230
-230
-231
-230
-230
-230
-230
-229
-231
-232
-231
-230
-230
-229
-231
-231
-232
-231
-229
-231
-232
-232
-233
-232
-233
-233
-233
-233
-232
-230
-226
-224
-222
-223
-219
-219
-218
-216
-212
-211
-213
-216
-219
-221
-223
-223
-223
-225
-226
-231
-231
-232
-234
-236
-238
-238
-239
-240
-240
-242
-241
-239
-243
-242
-243
-243
-243
-244
-245
-257
-273
-285
-302
-319
-299
-243
-197
-178
-141
-85
-110
-192
-251
-274
-277
-271
-265
-257
-252
-254
-257
-257
-256
-258
-256
-259
-259
-258
-258
-258
-261
-259
-260
-260
-263
-264
-264
-264
-265
-266
-265
-266
-265
-266
-267
-268
-270
-270
-271
-271
-273
-268
-271
-269
-270
-271
-271
-270
-271
-270
-268
-268
-267
-267
-266
-264
-266
-261
-259
-257
-257
-254
-251
-248
-245
-244
-243
-238
-237
-233
-234
-236
-234
-236
-236
-238
-238
-239
-240
-243
-243
-244
-245
-246
-250
-251
-251
-251
-251
-251
-251
-251
-252
-254
-254
-251
-254
-252
-252
-257
-254
-254
-252
-253
-254
-254
-254
-254
-255
-257
-254
-252
-252
-252
-252
-249
-252
-251
-251
-250
-251
-251
-251
-251
-249
-251
-250
-250
-251
-251
-251
-250
-251
-251
-253
-251
-251
-252
-252
-251
-252
-252
-247
-251
-250
-251
-251
-250
-252
-251
-251
-252
-252
-251
-251
-251
-251
-252
-257
-251
-252
-251
-251
-251
-251
-251
-251
-252
-252
-252
-252
-252
-254
-254
-256
-253
-252
-252
-257
-255
-254
-253
-252
-252
-252
-251
-251
-252
-252
-252
-252
-254
-253
-252
-251
-252
-252
-253
-251
-251
-252
-247
-250
-250
-251
-251
-251
-251
-251
-250
-250
-249
-250
-250
-250
-249
-250
-247
-250
-250
-246
-244
-240
-240
-240
-238
-237
-236
-232
-226
-225
-225
-226
-229
-233
-236
-237
-237
-237
-239
-244
-247
-247
-247
-249
-250
-251
-249
-252
-254
-252
-252
-252
-253
-252
-249
-254
-255
-258
-258
-267
-280
-289
-297
-310
-313
-278
-221
-192
-166
-105
-100
-171
-250
-280
-290
-291
-282
-273
-266
-264
-265
-267
-266
-267
-268
-266
-266
-267
-268
-269
-268
-268
-271
-271
-269
-270
-270
-271
-270
-271
-271
-271
-274
-272
-272
-273
-272
-274
-274
-274
-273
-274
-271
-272
-272
-274
-272
-271
-273
-271
-270
-271
-269
-269
-268
-267
-264
-264
-261
-259
-258
-257
-254
-252
-247
-245
-244
-242
-239
-239
-237
-236
-236
-235
-237
-238
-240
-239
-243
-244
-243
-244
-245
-247
-249
-250
-251
-251
-251
-251
-252
-257
-252
-251
-251
-252
-252
-251
-251
-252
-251
-252
-252
-252
-252
-252
-251
-256
-251
-251
-251
-251
-250
-251
-251
-250
-249
-250
-249
-247
-247
-245
-245
-244
-245
-245
-244
-244
-244
-245
-244
-244
-245
-245
-242
-244
-243
-242
-244
-240
-241
-242
-243
-240
-243
-238
-244
-243
-243
-244
-238
-243
-243
-242
-243
-240
-243
-240
-243
-243
-243
-243
-243
-242
-241
-242
-238
-241
-242
-243
-243
-244
-243
-242
-242
-243
-243
-242
-243
-240
-242
-241
-241
-243
-243
-242
-243
-240
-239
-240
-240
-240
-239
-237
-240
-240
-240
-241
-239
-240
-239
-240
-240
-241
-240
-240
-240
-238
-239
-236
-239
-238
-239
-240
-243
-243
-239
-240
-240
-240
-239
-239
-239
-237
-237
-231
-231
-229
-227
-226
-228
-226
-222
-218
-218
-218
-218
-222
-225
-225
-225
-225
-229
-231
-236
-238
-238
-239
-240
-239
-240
-240
-238
-242
-243
-243
-243
-241
-241
-240
-241
-241
-243
-242
-258
-275
-287
-305
-311
-260
-199
-181
-163
-104
-96
-171
-243
-273
-278
-271
-265
-254
-250
-250
-251
-251
-252
-252
-253
-253
-254
-254
-254
-254
-254
-259
-257
-257
-258
-257
-257
-258
-259
-260
-261
-261
-261
-261
-263
-261
-261
-265
-262
-264
-263
-262
-262
-261
-264
-264
-262
-261
-264
-260
-260
-261
-261
-264
-258
-258
-256
-254
-252
-251
-249
-245
-244
-242
-240
-238
-233
-232
-230
-229
-228
-226
-225
-226
-226
-226
-228
-230
-228
-231
-229
-231
-232
-236
-236
-237
-237
-237
-238
-238
-238
-238
-238
-238
-238
-239
-237
-240
-241
-240
-240
-238
-239
-239
-240
-240
-243
-240
-238
-239
-238
-239
-237
-238
-238
-238
-238
-238
-238
-237
-237
-237
-237
-236
-236
-236
-234
-235
-234
-234
-232
-233
-233
-233
-232
-235
-236
-234
-233
-230
-233
-233
-235
-233
-233
-233
-231
-231
-231
-233
-232
-233
-233
-233
-232
-232
-236
-236
-232
-234
-235
-235
-232
-233
-235
-236
-236
-234
-235
-234
-236
-236
-235
-236
-236
-235
-234
-234
-234
-236
-236
-236
-233
-234
-236
-236
-236
-234
-236
-236
-234
-234
-236
-231
-236
-234
-235
-236
-231
-234
-234
-234
-233
-232
-233
-236
-235
-232
-233
-233
-232
-231
-231
-231
-229
-231
-231
-231
-230
-232
-231
-231
-231
-230
-231
-231
-231
-231
-230
-230
-226
-225
-223
-222
-222
-219
-218
-217
-215
-209
-209
-206
-211
-215
-218
-218
-217
-219
-223
-225
-228
-231
-233
-233
-236
-235
-236
-233
-237
-237
-237
-239
-238
-238
-237
-237
-236
-239
-237
-238
-252
-269
-285
-305
-317
-282
-225
-191
-172
-119
-85
-141
-215
-252
-269
-267
-262
-251
-247
-246
-249
-249
-249
-250
-250
-250
-251
-251
-250
-251
-247
-252
-251
-252
-252
-253
-251
-252
-254
-254
-255
-254
-254
-257
-257
-257
-258
-257
-257
-256
-257
-257
-256
-257
-257
-255
-257
-258
-258
-257
-255
-254
-253
-252
-250
-248
-246
-244
-242
-238
-236
-235
-232
-228
-226
-225
-222
-221
-218
-219
-218
-218
-218
-219
-218
-221
-223
-226
-226
-226
-231
-232
-235
-236
-236
-237
-236
-238
-238
-238
-238
-238
-238
-238
-239
-236
-237
-237
-236
-237
-238
-238
-238
-238
-238
-240
-239
-238
-238
-238
-238
-237
-237
-236
-235
-236
-236
-236
-233
-234
-235
-236
-230
-232
-231
-232
-232
-232
-231
-231
-232
-233
-231
-231
-231
-231
-230
-231
-229
-230
-231
-231
-230
-231
-231
-230
-230
-230
-231
-230
-229
-228
-229
-230
-229
-230
-230
-230
-231
-230
-230
-230
-231
-230
-230
-231
-229
-229
-230
-230
-229
-230
-230
-230
-230
-230
-229
-230
-230
-230
-230
-227
-231
-230
-231
-231
-230
-231
-231
-231
-233
-232
-233
-231
-231
-231
-231
-229
-231
-231
-231
-233
-232
-232
-231
-231
-231
-233
-234
-233
-236
-235
-235
-233
-235
-235
-232
-235
-235
-234
-235
-236
-236
-235
-231
-236
-235
-235
-236
-233
-232
-230
-229
-229
-229
-225
-225
-223
-221
-216
-214
-219
-218
-222
-225
-226
-224
-225
-227
-231
-233
-237
-238
-239
-239
-239
-238
-243
-242
-240
-243
-244
-243
-243
-243
-243
-242
-243
-244
-244
-249
-266
-282
-298
-315
-298
-238
-194
-173
-121
-78
-129
-212
-264
-279
-278
-271
-263
-258
-254
-253
-254
-257
-258
-258
-258
-258
-258
-258
-261
-258
-258
-258
-260
-259
-261
-261
-261
-261
-261
-262
-264
-265
-265
-264
-267
-266
-267
-265
-266
-264
-266
-265
-266
-267
-267
-270
-267
-267
-266
-265
-266
-265
-264
-264
-261
-259
-257
-257
-254
-251
-250
-244
-245
-243
-238
-236
-235
-233
-231
-229
-229
-230
-231
-232
-233
-236
-239
-238
-241
-242
-244
-245
-245
-247
-248
-250
-248
-247
-249
-250
-251
-252
-252
-253
-252
-254
-252
-252
-252
-251
-251
-251
-252
-254
-258
-252
-252
-251
-252
-253
-252
-252
-253
-253
-252
-252
-251
-252
-251
-251
-247
-250
-250
-251
-251
-251
-250
-250
-249
-250
-251
-249
-248
-250
-251
-253
-250
-251
-250
-251
-251
-251
-251
-252
-251
-252
-252
-252
-253
-251
-251
-249
-250
-251
-252
-252
-253
-252
-252
-252
-251
-251
-254
-257
-254
-253
-252
-252
-251
-251
-251
-252
-252
-251
-254
-254
-252
-253
-252
-251
-254
-253
-255
-254
-254
-253
-254
-252
-252
-251
-251
-251
-253
-252
-252
-254
-251
-252
-254
-254
-252
-253
-255
-257
-253
-253
-254
-252
-252
-252
-252
-251
-252
-251
-251
-252
-251
-251
-247
-245
-244
-245
-239
-242
-240
-236
-231
-228
-231
-232
-236
-238
-240
-238
-238
-239
-245
-248
-248
-252
-252
-251
-254
-254
-256
-257
-257
-256
-255
-255
-256
-258
-258
-256
-258
-258
-259
-264
-278
-289
-298
-312
-311
-271
-217
-189
-158
-103
-108
-183
-250
-279
-290
-287
-284
-275
-267
-263
-265
-266
-265
-268
-266
-268
-268
-267
-267
-267
-267
-267
-267
-267
-268
-270
-270
-269
-268
-271
-271
-271
-271
-271
-271
-272
-271
-271
-271
-271
-274
-271
-271
-271
-271
-271
-271
-273
-271
-271
-270
-270
-269
-267
-266
-264
-266
-260
-258
-258
-257
-256
-251
-250
-247
-245
-243
-243
-238
-234
-233
-234
-231
-235
-234
-237
-238
-238
-239
-240
-243
-243
-244
-245
-245
-246
-247
-249
-247
-249
-250
-251
-251
-250
-249
-250
-251
-251
-251
-250
-250
-250
-250
-249
-247
-247
-250
-247
-247
-247
-244
-245
-245
-245
-245
-242
-244
-243
-244
-244
-243
-244
-243
-243
-243
-242
-240
-241
-240
-240
-239
-238
-238
-239
-240
-240
-238
-239
-240
-240
-238
-240
-240
-240
-239
-239
-238
-237
-237
-237
-237
-237
-237
-236
-238
-238
-238
-238
-234
-237
-237
-237
-238
-237
-237
-237
-238
-238
-239
-238
-238
-238
-237
-237
-235
-237
-237
-235
-235
-237
-236
-236
-235
-237
-237
-237
-237
-237
-238
-237
-236
-237
-237
-237
-237
-236
-236
-236
-236
-236
-237
-237
-237
-237
-237
-236
-234
-236
-234
-235
-234
-233
-233
-232
-231
-231
-232
-229
-232
-231
-231
-232
-231
-231
-230
-230
-227
-225
-222
-219
-218
-218
-218
-212
-211
-209
-209
-207
-211
-217
-218
-216
-217
-219
-223
-226
-229
-231
-230
-231
-231
-232
-233
-233
-236
-237
-237
-236
-236
-237
-235
-237
-237
-235
-238
-250
-266
-278
-294
-300
-259
-203
-178
-167
-115
-81
-132
-213
-256
-268
-265
-260
-251
-244
-243
-242
-245
-245
-244
-245
-246
-247
-243
-245
-245
-245
-245
-249
-247
-247
-247
-248
-249
-248
-247
-247
-247
-250
-248
-247
-248
-250
-250
-251
-251
-249
-250
-249
-250
-245
-250
-250
-250
-251
-250
-248
-247
-246
-245
-244
-244
-243
-243
-240
-237
-232
-233
-229
-226
-225
-223
-219
-216
-214
-212
-211
-210
-209
-211
-211
-212
-212
-216
-218
-218
-219
-222
-221
-223
-225
-226
-226
-226
-225
-226
-225
-225
-225
-227
-225
-227
-228
-228
-225
-226
-228
-226
-226
-224
-226
-226
-225
-226
-226
-225
-226
-226
-225
-226
-225
-225
-225
-225
-225
-220
-223
-222
-223
-223
-223
-222
-222
-221
-220
-222
-222
-219
-218
-218
-219
-218
-218
-218
-219
-218
-218
-217
-217
-218
-218
-221
-218
-219
-220
-219
-219
-219
-218
-218
-217
-218
-219
-216
-218
-217
-218
-218
-216
-218
-218
-218
-219
-218
-218
-218
-218
-218
-219
-218
-221
-218
-218
-218
-215
-218
-218
-218
-217
-218
-217
-216
-218
-216
-216
-215
-216
-217
-218
-218
-215
-218
-217
-215
-218
-217
-218
-218
-218
-218
-218
-215
-218
-216
-218
-218
-217
-218
-218
-217
-216
-218
-217
-216
-216
-218
-218
-215
-216
-216
-216
-216
-213
-209
-207
-204
-203
-205
-205
-202
-195
-194
-194
-192
-195
-198
-202
-201
-201
-202
-204
-206
-210
-213
-214
-215
-215
-215
-216
-218
-218
-218
-219
-219
-219
-219
-219
-218
-219
-218
-216
-218
-231
-250
-262
-281
-298
-268
-209
-173
-150
-91
-65
-125
-196
-236
-245
-245
-240
-232
-225
-226
-225
-230
-230
-230
-231
-232
-229
-230
-231
-231
-231
-232
-231
-233
-235
-236
-234
-236
-235
-237
-237
-236
-238
-237
-238
-238
-238
-238
-238
-239
-239
-240
-237
-240
-240
-240
-239
-237
-239
-238
-237
-237
-237
-236
-233
-233
-231
-230
-226
-224
-222
-220
-217
-211
-212
-211
-207
-204
-204
-202
-201
-200
-201
-201
-201
-203
-205
-205
-208
-209
-211
-211
-211
-215
-218
-218
-217
-218
-218
-218
-214
-218
-221
-222
-222
-221
-221
-222
-222
-222
-223
-224
-222
-223
-224
-225
-221
-223
-223
-223
-223
-223
-223
-223
-223
-221
-221
-223
-222
-222
-222
-223
-221
-222
-221
-223
-222
-223
-223
-223
-222
-223
-223
-225
-224
-222
-222
-223
-222
-224
-223
-225
-225
-226
-225
-226
-225
-226
-226
-225
-225
-225
-226
-229
-226
-226
-226
-228
-229
-226
-225
-229
-226
-225
-226
-223
-225
-226
-226
-226
-229
-228
-228
-229
-229
-229
-227
-229
-229
-229
-230
-229
-229
-229
-229
-229
-229
-230
-230
-230
-230
-231
-230
-231
-231
-231
-231
-231
-231
-231
-231
-231
-231
-229
-231
-232
-233
-235
-231
-233
-233
-234
-235
-234
-236
-236
-235
-237
-236
-237
-234
-231
-229
-229
-225
-226
-225
-224
-224
-222
-217
-218
-217
-219
-225
-225
-225
-225
-227
-230
-231
-237
-239
-240
-240
-240
-243
-244
-245
-244
-245
-243
-245
-245
-245
-246
-245
-246
-246
-245
-247
-257
-276
-288
-303
-320
-300
-238
-195
-174
-118
-76
-126
-209
-258
-281
-282
-278
-271
-263
-260
-259
-261
-263
-262
-262
-260
-261
-263
-265
-264
-265
-265
-265
-266
-266
-267
-267
-267
-269
-270
-271
-271
-270
-271
-271
-273
-272
-273
-272
-276
-272
-273
-273
-273
-274
-273
-273
-273
-271
-271
-271
-271
-270
-268
-267
-269
-266
-265
-264
-260
-257
-257
-254
-252
-250
-247
-245
-243
-240
-238
-237
-233
-237
-239
-240
-239
-240
-243
-243
-244
-247
-249
-250
-251
-252
-254
-257
-257
-256
-257
-257
-257
-257
-259
-259
-259
-258
-259
-265
-261
-260
-259
-259
-258
-259
-261
-260
-260
-259
-258
-258
-258
-258
-257
-259
-257
-257
-258
-257
-255
-257
-255
-254
-254
-255
-254
-255
-252
-252
-255
-257
-257
-257
-255
-255
-253
-254
-254
-255
-256
-255
-259
-257
-257
-257
-256
-258
-257
-254
-256
-254
-255
-256
-257
-257
-253
-254
-250
-251
-251
-254
-254
-257
-258
-257
-255
-255
-253
-253
-251
-253
-254
-254
-256
-254
-253
-254
-254
-252
-252
-252
-254
-252
-253
-254
-254
-253
-256
-256
-255
-254
-252
-252
-252
-252
-252
-252
-252
-252
-253
-258
-252
-252
-253
-254
-253
-251
-252
-252
-252
-251
-252
-251
-252
-252
-251
-256
-251
-250
-245
-244
-244
-243
-240
-239
-238
-235
-231
-229
-230
-229
-231
-236
-238
-238
-239
-240
-244
-247
-250
-250
-251
-251
-249
-252
-251
-251
-251
-254
-254
-254
-253
-254
-254
-252
-252
-254
-256
-264
-283
-289
-301
-317
-313
-275
-226
-198
-184
-137
-84
-118
-198
-258
-280
-287
-285
-278
-270
-264
-261
-261
-261
-261
-264
-263
-262
-264
-264
-263
-263
-264
-265
-265
-265
-265
-265
-265
-265
-265
-264
-266
-266
-269
-267
-267
-266
-266
-267
-265
-267
-267
-267
-266
-266
-267
-267
-266
-266
-268
-265
-265
-264
-263
-263
-261
-260
-258
-256
-254
-252
-251
-249
-246
-244
-238
-236
-234
-231
-231
-229
-226
-225
-225
-225
-228
-228
-229
-231
-231
-231
-231
-236
-237
-240
-240
-243
-242
-243
-244
-242
-243
-239
-243
-244
-244
-245
-244
-245
-247
-247
-245
-246
-245
-244
-245
-243
-245
-240
-243
-243
-244
-242
-243
-241
-243
-242
-243
-243
-240
-240
-240
-239
-239
-239
-238
-239
-239
-238
-238
-236
-237
-237
-237
-238
-233
-236
-237
-236
-236
-235
-236
-234
-234
-232
-233
-229
-232
-233
-233
-233
-230
-231
-231
-231
-232
-232
-232
-233
-232
-231
-231
-231
-231
-231
-231
-233
-230
-231
-231
-231
-231
-234
-233
-231
-232
-231
-232
-231
-232
-231
-232
-231
-231
-232
-232
-231
-231
-232
-231
-231
-232
-230
-230
-225
-231
-231
-230
-231
-230
-230
-230
-231
-230
-230
-231
-231
-231
-231
-230
-228
-230
-230
-228
-229
-231
-230
-231
-231
-230
-231
-231
-230
-230
-230
-230
-227
-230
-230
-230
-231
-230
-229
-225
-222
-220
-219
-218
-216
-217
-214
-211
-205
-208
-208
-209
-211
-216
-216
-218
-218
-221
-223
-222
-226
-228
-229
-230
-229
-231
-231
-231
-231
-233
-233
-231
-231
-232
-231
-230
-231
-232
-234
-251
-265
-280
-299
-308
-268
-209
-180
-164
-111
-72
-125
-210
-252
-265
-261
-257
-247
-240
-241
-243
-243
-245
-243
-245
-245
-245
-245
-245
-247
-245
-245
-245
-246
-244
-248
-250
-249
-247
-245
-251
-251
-251
-251
-251
-251
-251
-252
-254
-251
-252
-251
-252
-251
-252
-251
-252
-252
-251
-251
-251
-251
-251
-250
-248
-246
-245
-244
-243
-239
-238
-236
-233
-229
-227
-226
-223
-221
-219
-217
-215
-213
-209
-211
-213
-214
-215
-216
-219
-219
-221
-223
-225
-225
-226
-229
-229
-231
-228
-231
-230
-229
-230
-231
-231
-231
-232
-233
-231
-230
-231
-231
-230
-231
-231
-230
-230
-231
-232
-231
-230
-230
-229
-230
-230
-228
-228
-226
-229
-229
-229
-229
-229
-229
-227
-229
-225
-228
-227
-226
-229
-224
-226
-226
-226
-226
-226
-229
-226
-225
-225
-227
-226
-225
-227
-227
-229
-225
-229
-229
-229
-229
-229
-229
-229
-230
-228
-229
-227
-226
-227
-227
-228
-226
-226
-226
-226
-226
-228
-229
-229
-226
-228
-229
-225
-228
-227
-226
-226
-225
-226
-226
-226
-225
-227
-226
-226
-225
-226
-227
-225
-225
-226
-226
-226
-224
-225
-225
-226
-228
-226
-226
-229
-227
-227
-226
-226
-229
-227
-226
-226
-225
-226
-226
-226
-226
-226
-228
-227
-225
-226
-226
-225
-224
-225
-225
-226
-226
-225
-225
-225
-224
-225
-221
-222
-219
-215
-213
-213
-213
-211
-212
-211
-205
-204
-204
-205
-205
-212
-211
-213
-215
-215
-216
-222
-225
-227
-226
-229
-229
-230
-231
-231
-233
-231
-231
-233
-232
-233
-234
-234
-235
-235
-233
-233
-242
-264
-277
-294
-318
-305
-250
-202
-180
-136
-77
-104
-183
-232
-258
-265
-258
-258
-245
-243
-242
-245
-245
-245
-247
-246
-247
-247
-247
-249
-250
-250
-251
-247
-251
-251
-250
-251
-251
-252
-251
-252
-252
-252
-253
-253
-254
-257
-254
-257
-257
-255
-255
-257
-257
-258
-258
-258
-257
-254
-258
-254
-253
-252
-251
-249
-248
-246
-244
-244
-242
-238
-238
-236
-231
-231
-225
-225
-222
-219
-218
-218
-216
-215
-216
-218
-219
-222
-222
-225
-226
-226
-227
-232
-233
-236
-235
-236
-236
-237
-238
-239
-240
-238
-239
-239
-238
-238
-239
-239
-240
-240
-241
-242
-243
-244
-243
-243
-244
-238
-242
-244
-243
-244
-243
-242
-242
-240
-240
-242
-242
-242
-241
-240
-243
-238
-240
-239
-240
-240
-241
-240
-239
-240
-240
-241
-240
-240
-239
-238
-238
-238
-238
-238
-237
-238
-238
-239
-239
-239
-239
-240
-240
-238
-238
-238
-239
-238
-238
-238
-238
-238
-241
-238
-240
-243
-243
-241
-237
-240
-238
-238
-239
-239
-238
-240
-243
-243
-243
-239
-241
-240
-242
-241
-238
-243
-243
-241
-240
-241
-239
-240
-242
-243
-243
-243
-243
-241
-243
-242
-240
-240
-240
-240
-243
-244
-244
-244
-244
-244
-244
-239
-243
-244
-244
-244
-244
-245
-245
-245
-245
-245
-244
-244
-242
-244
-244
-241
-244
-243
-239
-237
-237
-236
-234
-234
-231
-229
-223
-222
-223
-224
-229
-229
-231
-231
-233
-236
-238
-238
-242
-245
-245
-245
-245
-247
-249
-247
-249
-248
-250
-250
-250
-250
-251
-251
-250
-251
-251
-258
-278
-285
-297
-313
-310
-265
-208
-185
-152
-90
-92
-169
-241
-276
-287
-282
-280
-267
-259
-257
-258
-259
-263
-261
-262
-263
-263
-263
-265
-265
-265
-265
-266
-266
-266
-266
-268
-268
-270
-269
-267
-267
-268
-271
-271
-272
-271
-271
-273
-271
-271
-271
-272
-274
-273
-271
-271
-271
-270
-274
-269
-269
-268
-267
-267
-265
-263
-261
-257
-255
-257
-253
-251
-251
-247
-243
-243
-240
-239
-237
-236
-234
-234
-233
-235
-235
-235
-237
-237
-238
-241
-243
-243
-245
-247
-250
-251
-250
-250
-251
-251
-251
-246
-251
-252
-254
-254
-254
-254
-254
-254
-253
-251
-254
-254
-252
-251
-252
-249
-251
-252
-252
-253
-251
-251
-252
-252
-251
-251
-250
-250
-250
-250
-250
-250
-250
-249
-250
-250
-247
-246
-246
-247
-247
-247
-246
-247
-245
-245
-246
-247
-246
-246
-246
-247
-249
-247
-250
-247
-247
-246
-244
-247
-245
-249
-247
-247
-248
-250
-250
-251
-251
-249
-248
-248
-248
-250
-246
-249
-249
-250
-250
-250
-249
-250
-251
-249
-250
-248
-247
-247
-247
-248
-246
-248
-248
-247
-248
-250
-248
-247
-247
-250
-250
-247
-246
-247
-246
-247
-245
-245
-247
-245
-245
-248
-244
-245
-245
-245
-244
-239
-243
-244
-245
-245
-244
-242
-244
-240
-238
-236
-233
-232
-231
-230
-230
-224
-223
-219
-219
-221
-224
-226
-229
-229
-231
-233
-237
-240
-242
-243
-243
-242
-242
-243
-243
-243
-244
-244
-245
-245
-245
-245
-240
-244
-247
-245
-248
-261
-275
-285
-300
-312
-286
-228
-193
-183
-141
-92
-125
-208
-259
-279
-280
-274
-266
-258
-252
-254
-254
-257
-257
-256
-258
-258
-261
-260
-259
-258
-258
-258
-259
-259
-259
-258
-259
-261
-261
-261
-261
-263
-264
-264
-264
-263
-264
-264
-265
-265
-265
-265
-264
-267
-264
-264
-264
-261
-261
-263
-264
-262
-260
-258
-258
-257
-254
-251
-251
-247
-247
-243
-241
-238
-236
-235
-231
-230
-229
-225
-224
-225
-225
-225
-226
-226
-229
-228
-231
-231
-233
-236
-236
-237
-237
-239
-238
-239
-239
-239
-240
-239
-240
-242
-242
-243
-243
-238
-240
-242
-240
-241
-238
-243
-244
-243
-243
-243
-242
-240
-241
-242
-243
-242
-239
-240
-238
-240
-237
-239
-238
-238
-237
-238
-237
-236
-237
-237
-237
-236
-236
-238
-238
-236
-236
-236
-236
-236
-236
-234
-234
-236
-236
-236
-236
-231
-233
-233
-235
-234
-232
-235
-236
-234
-233
-234
-233
-231
-233
-235
-234
-230
-233
-232
-232
-233
-231
-231
-232
-231
-231
-231
-231
-230
-230
-230
-231
-228
-230
-230
-230
-229
-227
-227
-230
-229
-229
-230
-230
-228
-229
-229
-226
-226
-227
-227
-226
-227
-228
-227
-228
-228
-225
-226
-225
-229
-226
-226
-226
-226
-225
-225
-226
-225
-225
-225
-225
-224
-225
-225
-222
-225
-225
-225
-225
-225
-225
-223
-219
-218
-216
-216
-215
-216
-212
-210
-205
-204
-205
-205
-207
-211
-215
-218
-216
-215
-219
-223
-225
-228
-227
-229
-229
-230
-230
-230
-230
-231
-229
-231
-232
-231
-232
-229
-231
-231
-231
-231
-237
-256
-269
-285
-305
-295
-240
-190
-171
-130
-73
-101
-183
-232
-257
-258
-252
-245
-236
-234
-236
-237
-237
-237
-238
-240
-240
-240
-243
-243
-243
-244
-244
-243
-243
-244
-244
-244
-242
-246
-246
-246
-247
-245
-245
-245
-246
-249
-250
-248
-246
-249
-249
-250
-245
-247
-247
-246
-247
-247
-247
-246
-245
-245
-245
-244
-244
-240
-238
-236
-233
-233
-232
-229
-226
-225
-222
-218
-215
-212
-213
-213
-211
-211
-211
-215
-213
-215
-215
-217
-219
-222
-223
-224
-226
-226
-228
-225
-230
-231
-230
-231
-230
-230
-231
-231
-233
-233
-232
-232
-232
-231
-233
-231
-233
-233
-233
-234
-235
-231
-232
-232
-234
-231
-231
-231
-231
-228
-230
-230
-230
-230
-230
-229
-230
-229
-229
-229
-230
-230
-226
-229
-228
-227
-229
-227
-229
-228
-226
-228
-229
-225
-229
-227
-228
-230
-225
-229
-228
-227
-228
-227
-226
-226
-226
-226
-228
-228
-229
-227
-228
-229
-225
-224
-226
-226
-226
-226
-226
-226
-226
-226
-226
-225
-225
-225
-225
-225
-225
-225
-225
-227
-225
-227
-226
-225
-225
-224
-225
-223
-225
-226
-227
-226
-225
-226
-226
-229
-230
-229
-230
-228
-229
-229
-228
-225
-229
-227
-226
-227
-229
-229
-228
-229
-229
-229
-229
-230
-229
-228
-230
-229
-230
-229
-229
-229
-229
-226
-226
-224
-223
-218
-218
-218
-216
-215
-216
-211
-208
-208
-209
-209
-212
-214
-218
-219
-218
-218
-218
-225
-227
-227
-228
-229
-230
-231
-230
-231
-232
-231
-232
-233
-233
-232
-230
-231
-231
-232
-232
-232
-247
-266
-278
-301
-317
-290
-236
-195
-173
-117
-70
-111
-185
-231
-259
-261
-258
-251
-243
-242
-244
-242
-242
-244
-245
-246
-245
-245
-245
-245
-247
-247
-244
-246
-249
-248
-247
-245
-251
-251
-250
-251
-252
-254
-254
-254
-254
-254
-256
-257
-257
-257
-256
-257
-257
-257
-258
-255
-256
-256
-253
-251
-254
-252
-251
-250
-248
-245
-243
-239
-239
-238
-236
-232
-231
-229
-226
-222
-220
-218
-216
-217
-218
-219
-219
-219
-222
-223
-225
-225
-228
-230
-230
-233
-233
-236
-233
-238
-238
-237
-238
-238
-239
-240
-240
-240
-241
-240
-238
-239
-239
-241
-240
-239
-241
-243
-244
-243
-242
-242
-244
-243
-245
-244
-242
-243
-243
-244
-242
-243
-243
-242
-240
-240
-242
-244
-243
-243
-242
-239
-243
-242
-241
-243
-241
-243
-240
-242
-243
-243
-243
-243
-244
-242
-243
-240
-244
-242
-243
-242
-245
-242
-243
-244
-244
-247
-246
-245
-245
-245
-245
-245
-244
-244
-244
-244
-245
-245
-245
-245
-245
-245
-243
-245
-246
-246
-247
-247
-247
-246
-248
-247
-248
-245
-247
-245
-245
-246
-245
-247
-247
-246
-247
-247
-247
-245
-246
-247
-249
-250
-247
-247
-247
-249
-246
-247
-246
-246
-250
-248
-248
-247
-247
-247
-248
-247
-247
-246
-247
-247
-246
-247
-247
-246
-248
-247
-247
-246
-247
-249
-245
-239
-239
-239
-237
-237
-237
-235
-230
-227
-225
-228
-228
-229
-235
-237
-237
-236
-239
-243
-247
-250
-251
-252
-252
-252
-256
-257
-255
-256
-257
-258
-258
-258
-258
-258
-258
-257
-258
-258
-265
-282
-293
-305
-320
-322
-282
-223
-197
-166
-104
-111
-190
-257
-285
-294
-291
-283
-274
-269
-271
-270
-271
-271
-271
-271
-271
-273
-271
-273
-271
-273
-273
-272
-273
-273
-278
-278
-277
-278
-277
-276
-277
-278
-278
-279
-280
-281
-280
-279
-280
-279
-280
-279
-280
-280
-278
-278
-278
-279
-278
-278
-276
-280
-276
-274
-271
-271
-269
-265
-263
-261
-258
-257
-257
-256
-252
-249
-246
-241
-243
-243
-242
-243
-243
-244
-247
-249
-250
-250
-251
-252
-254
-256
-257
-261
-258
-258
-258
-259
-259
-261
-260
-261
-261
-260
-261
-262
-264
-258
-260
-264
-262
-263
-261
-261
-260
-261
-259
-259
-259
-258
-261
-259
-258
-257
-258
-258
-258
-254
-254
-256
-255
-252
-254
-255
-254
-253
-252
-254
-254
-253
-254
-254
-255
-255
-255
-254
-252
-254
-257
-257
-257
-254
-257
-255
-257
-255
-254
-256
-257
-257
-254
-257
-255
-257
-255
-254
-254
-256
-257
-257
-257
-255
-255
-256
-255
-254
-255
-254
-257
-258
-254
-254
-254
-254
-254
-254
-255
-253
-254
-252
-253
-252
-252
-252
-252
-248
-251
-252
-251
-252
-251
-251
-252
-251
-251
-251
-251
-251
-250
-250
-251
-250
-250
-249
-251
-251
-250
-250
-250
-251
-249
-250
-245
-246
-247
-248
-247
-245
-245
-242
-238
-239
-239
-235
-236
-234
-231
-226
-220
-224
-224
-225
-230
-233
-232
-232
-235
-236
-242
-244
-245
-248
-248
-250
-247
-250
-251
-251
-251
-251
-251
-251
-251
-250
-250
-251
-251
-251
-257
-274
-286
-298
-313
-298
-243
-198
-187
-141
-96
-138
-220
-270
-285
-282
-278
-268
-263
-259
-258
-259
-259
-260
-259
-259
-259
-262
-260
-265
-261
-263
-261
-261
-262
-264
-262
-264
-264
-263
-264
-264
-264
-264
-264
-265
-266
-265
-265
-265
-265
-265
-265
-263
-264
-264
-265
-264
-263
-264
-263
-262
-259
-258
-258
-257
-254
-250
-251
-251
-250
-246
-242
-243
-238
-236
-234
-231
-230
-229
-226
-225
-225
-228
-229
-229
-230
-231
-230
-234
-235
-237
-239
-240
-240
-243
-243
-243
-244
-243
-243
-242
-244
-244
-245
-245
-244
-243
-245
-246
-246
-247
-246
-247
-247
-243
-247
-247
-245
-245
-245
-244
-244
-243
-244
-244
-243
-244
-244
-244
-244
-242
-244
-242
-241
-243
-242
-240
-238
-239
-239
-239
-238
-240
-239
-239
-240
-238
-239
-240
-240
-239
-240
-240
-238
-239
-238
-238
-239
-238
-238
-238
-238
-236
-237
-238
-237
-238
-238
-236
-237
-237
-237
-238
-236
-239
-239
-238
-238
-238
-237
-237
-236
-236
-237
-237
-237
-238
-238
-238
-237
-238
-238
-238
-238
-238
-238
-237
-237
-238
-238
-238
-237
-236
-238
-238
-237
-237
-237
-237
-237
-238
-239
-238
-238
-238
-239
-238
-236
-237
-238
-238
-236
-235
-237
-236
-237
-237
-234
-237
-237
-236
-237
-231
-236
-236
-237
-236
-236
-234
-233
-231
-229
-230
-229
-225
-225
-223
-222
-215
-215
-215
-218
-219
-224
-224
-225
-225
-225
-227
-231
-234
-236
-236
-237
-237
-237
-238
-238
-239
-240
-242
-243
-241
-240
-239
-237
-241
-239
-242
-254
-271
-285
-304
-320
-292
-233
-195
-177
-122
-85
-142
-216
-257
-271
-270
-262
-254
-249
-247
-251
-252
-252
-253
-253
-254
-252
-255
-258
-257
-257
-257
-257
-257
-258
-257
-258
-259
-258
-259
-261
-261
-261
-258
-263
-264
-264
-264
-261
-264
-264
-262
-263
-263
-261
-265
-263
-264
-261
-260
-261
-259
-258
-257
-254
-253
-251
-250
-247
-245
-243
-236
-236
-236
-231
-226
-225
-223
-222
-220
-219
-222
-222
-222
-223
-224
-226
-228
-230
-232
-234
-235
-238
-237
-238
-238
-239
-240
-240
-239
-242
-243
-243
-242
-242
-244
-243
-243
-244
-240
-243
-241
-243
-244
-238
-242
-241
-242
-243
-243
-243
-243
-240
-239
-242
-240
-240
-239
-240
-239
-237
-240
-239
-239
-238
-239
-238
-238
-238
-237
-238
-237
-235
-236
-236
-237
-235
-235
-236
-236
-237
-236
-237
-237
-238
-237
-239
-235
-237
-237
-237
-237
-236
-237
-239
-238
-239
-239
-239
-238
-237
-238
-237
-235
-237
-237
-237
-238
-238
-236
-237
-239
-238
-238
-238
-239
-238
-236
-237
-236
-237
-236
-237
-238
-237
-238
-238
-238
-238
-238
-238
-238
-238
-238
-238
-237
-237
-237
-237
-238
-237
-234
-236
-237
-237
-236
-232
-238
-238
-237
-237
-237
-238
-237
-237
-237
-238
-236
-235
-236
-236
-236
-232
-235
-236
-236
-236
-237
-237
-237
-235
-235
-233
-230
-228
-229
-226
-225
-223
-225
-219
-216
-218
-219
-218
-221
-225
-225
-225
-225
-227
-230
-236
-236
-236
-238
-238
-239
-239
-240
-238
-239
-240
-243
-244
-241
-244
-243
-243
-244
-244
-244
-244
-257
-273
-286
-308
-326
-305
-250
-211
-185
-136
-87
-127
-199
-243
-266
-271
-265
-258
-251
-250
-250
-252
-252
-252
-253
-252
-254
-254
-252
-254
-254
-255
-253
-257
-254
-259
-258
-258
-256
-258
-258
-259
-259
-259
-260
-259
-261
-261
-259
-259
-258
-262
-260
-259
-259
-259
-259
-259
-258
-258
-257
-257
-257
-254
-251
-252
-251
-246
-245
-244
-243
-238
-236
-233
-228
-226
-224
-222
-218
-218
-217
-218
-217
-218
-218
-220
-222
-224
-225
-226
-229
-230
-232
-235
-233
-238
-239
-241
-243
-242
-241
-243
-243
-243
-242
-242
-242
-242
-240
-243
-240
-244
-243
-244
-243
-244
-244
-244
-244
-244
-243
-243
-244
-244
-243
-244
-242
-241
-239
-240
-240
-238
-239
-239
-239
-238
-239
-238
-238
-238
-239
-239
-238
-238
-238
-239
-239
-239
-237
-239
-239
-238
-239
-237
-239
-238
-239
-238
-239
-238
-239
-239
-239
-240
-240
-239
-239
-242
-240
-238
-240
-241
-239
-240
-241
-240
-239
-240
-243
-243
-241
-243
-243
-244
-243
-240
-244
-245
-245
-245
-244
-245
-243
-244
-245
-245
-239
-245
-245
-245
-247
-246
-245
-246
-247
-247
-248
-247
-245
-245
-245
-245
-243
-245
-245
-245
-245
-247
-246
-245
-245
-246
-250
-247
-246
-247
-250
-250
-246
-247
-247
-250
-250
-247
-247
-250
-249
-247
-248
-247
-246
-244
-242
-240
-238
-238
-236
-237
-233
-228
-225
-227
-229
-231
-236
-233
-235
-237
-238
-243
-244
-250
-251
-252
-252
-252
-252
-254
-257
-257
-255
-259
-258
-258
-258
-257
-258
-258
-258
-258
-258
-266
-284
-296
-310
-327
-319
-267
-215
-191
-150
-91
-113
-195
-258
-285
-291
-289
-285
-274
-268
-267
-271
-271
-271
-273
-273
-272
-272
-275
-275
-275
-272
-274
-278
-276
-277
-278
-278
-278
-278
-279
-280
-280
-278
-278
-280
-280
-282
-282
-285
-282
-281
-282
-282
-282
-282
-283
-282
-282
-279
-280
-280
-279
-279
-278
-277
-276
-274
-274
-271
-269
-267
-266
-264
-261
-257
-259
-254
-252
-250
-248
-245
-244
-243
-244
-245
-246
-248
-249
-250
-251
-251
-258
-257
-258
-257
-258
-259
-261
-263
-263
-265
-263
-263
-264
-264
-264
-264
-266
-265
-265
-265
-265
-265
-265
-265
-267
-267
-265
-265
-265
-264
-264
-265
-264
-261
-261
-261
-261
-261
-261
-260
-259
-259
-259
-264
-260
-259
-259
-258
-258
-257
-258
-257
-257
-256
-258
-258
-257
-257
-257
-261
-258
-258
-258
-257
-255
-256
-257
-257
-257
-256
-255
-257
-257
-257
-257
-256
-257
-257
-257
-255
-257
-256
-255
-257
-255
-255
-258
-256
-254
-254
-254
-257
-253
-254
-254
-254
-252
-253
-254
-252
-252
-252
-251
-252
-252
-252
-254
-254
-254
-254
-254
-253
-254
-254
-255
-253
-252
-254
-257
-252
-252
-254
-252
-252
-251
-251
-251
-251
-252
-251
-251
-250
-251
-251
-249
-251
-251
-251
-251
-250
-250
-250
-251
-247
-246
-239
-240
-240
-238
-238
-237
-235
-231
-228
-226
-226
-227
-231
-236
-236
-236
-233
-238
-241
-245
-247
-248
-249
-247
-249
-251
-251
-251
-251
-251
-252
-254
-254
-252
-251
-251
-252
-252
-253
-265
-281
-291
-305
-319
-301
-244
-202
-187
-144
-90
-118
-197
-257
-280
-285
-280
-274
-265
-258
-262
-259
-259
-260
-261
-261
-261
-261
-262
-260
-259
-261
-264
-264
-262
-261
-266
-263
-264
-262
-264
-263
-264
-264
-264
-265
-264
-264
-265
-265
-265
-264
-265
-265
-265
-265
-265
-265
-265
-263
-264
-264
-261
-265
-261
-261
-258
-254
-253
-252
-251
-251
-247
-245
-240
-239
-235
-233
-231
-225
-225
-223
-222
-222
-222
-224
-225
-225
-227
-230
-231
-231
-233
-235
-237
-236
-238
-239
-242
-243
-242
-243
-244
-243
-242
-244
-242
-243
-244
-244
-244
-243
-243
-244
-244
-244
-245
-245
-245
-245
-243
-244
-240
-244
-242
-243
-244
-241
-242
-243
-243
-242
-240
-240
-240
-239
-240
-239
-237
-239
-238
-238
-238
-238
-237
-238
-237
-238
-237
-237
-237
-236
-236
-236
-236
-236
-236
-237
-236
-236
-235
-235
-235
-234
-236
-234
-234
-233
-232
-231
-232
-231
-231
-231
-231
-231
-231
-231
-231
-231
-232
-229
-231
-230
-231
-231
-230
-231
-231
-231
-231
-232
-232
-231
-231
-231
-232
-229
-231
-231
-231
-231
-231
-231
-231
-231
-231
-231
-231
-231
-230
-231
-232
-230
-231
-229
-231
-230
-230
-230
-231
-230
-230
-231
-227
-229
-230
-227
-229
-229
-230
-229
-231
-230
-230
-229
-230
-231
-230
-231
-226
-228
-230
-229
-230
-229
-225
-221
-221
-219
-218
-217
-216
-214
-208
-205
-205
-208
-209
-212
-215
-215
-216
-215
-216
-219
-223
-225
-227
-229
-229
-229
-230
-230
-231
-230
-231
-231
-231
-230
-230
-230
-231
-229
-231
-230
-238
-258
-272
-290
-310
-291
-233
-191
-173
-127
-73
-106
-183
-231
-257
-259
-255
-251
-243
-239
-240
-241
-243
-243
-244
-244
-242
-244
-244
-244
-244
-245
-245
-247
-247
-246
-245
-246
-247
-247
-250
-249
-250
-247
-250
-250
-250
-250
-249
-250
-251
-249
-251
-251
-251
-251
-247
-251
-251
-251
-251
-248
-247
-247
-245
-243
-243
-240
-238
-236
-233
-231
-226
-225
-223
-222
-220
-218
-215
-212
-211
-207
-208
-208
-208
-208
-209
-212
-212
-215
-216
-218
-219
-222
-222
-225
-225
-226
-227
-225
-229
-228
-228
-230
-228
-228
-230
-230
-230
-229
-227
-230
-229
-229
-228
-225
-229
-228
-226
-227
-229
-225
-226
-226
-225
-224
-225
-225
-225
-223
-222
-220
-223
-222
-222
-223
-223
-222
-223
-225
-222
-222
-223
-223
-222
-222
-223
-222
-222
-220
-221
-222
-223
-222
-222
-222
-222
-221
-218
-221
-222
-222
-222
-223
-223
-222
-222
-222
-221
-221
-221
-221
-222
-222
-219
-222
-222
-221
-222
-223
-222
-222
-222
-223
-224
-225
-224
-223
-223
-224
-223
-223
-223
-222
-223
-224
-225
-224
-225
-224
-224
-225
-225
-225
-225
-225
-225
-225
-225
-224
-225
-225
-223
-224
-225
-225
-225
-222
-225
-225
-223
-223
-223
-223
-222
-223
-225
-223
-223
-222
-223
-223
-223
-219
-223
-225
-222
-221
-223
-223
-222
-221
-222
-221
-222
-220
-221
-222
-222
-219
-216
-212
-211
-210
-210
-209
-209
-204
-201
-199
-198
-199
-203
-207
-211
-211
-210
-212
-214
-216
-221
-222
-223
-225
-225
-226
-225
-227
-229
-228
-228
-230
-231
-231
-231
-231
-231
-231
-231
-232
-249
-265
-282
-300
-315
-286
-231
-195
-167
-108
-77
-135
-204
-241
-258
-258
-252
-242
-238
-238
-240
-240
-240
-240
-240
-242
-243
-243
-242
-240
-244
-245
-244
-244
-245
-245
-245
-245
-245
-247
-247
-247
-248
-250
-251
-245
-250
-250
-250
-250
-250
-250
-250
-250
-250
-250
-250
-249
-248
-247
-247
-245
-245
-244
-242
-240
-238
-236
-234
-231
-230
-227
-225
-223
-222
-217
-215
-212
-211
-209
-207
-208
-207
-205
-209
-211
-215
-214
-214
-218
-219
-222
-225
-226
-227
-229
-230
-230
-230
-229
-231
-231
-231
-231
-230
-231
-232
-232
-233
-233
-233
-233
-232
-233
-233
-231
-232
-231
-231
-233
-231
-231
-231
-231
-231
-231
-231
-231
-232
-231
-232
-226
-229
-230
-230
-230
-228
-229
-230
-229
-229
-231
-230
-228
-230
-231
-229
-227
-230
-230
-230
-228
-230
-230
-230
-229
-229
-230
-230
-229
-229
-229
-229
-225
-230
-231
-231
-229
-230
-228
-229
-229
-228
-230
-229
-229
-229
-230
-230
-230
-231
-230
-231
-231
-230
-231
-230
-231
-232
-233
-230
-232
-232
-231
-231
-230
-231
-231
-231
-232
-233
-233
-232
-231
-231
-231
-230
-233
-233
-233
-233
-235
-234
-233
-233
-236
-235
-233
-232
-234
-233
-234
-233
-236
-235
-235
-234
-236
-236
-237
-237
-236
-238
-237
-237
-236
-237
-237
-235
-238
-237
-235
-232
-231
-226
-228
-227
-227
-225
-219
-217
-218
-218
-220
-222
-225
-229
-228
-228
-229
-231
-233
-237
-239
-239
-239
-244
-244
-245
-247
-247
-246
-245
-247
-249
-246
-247
-247
-247
-248
-249
-249
-257
-274
-285
-299
-317
-305
-250
-197
-178
-134
-72
-105
-188
-250
-276
-283
-278
-272
-265
-258
-258
-258
-260
-259
-259
-258
-264
-261
-261
-260
-261
-261
-264
-263
-265
-264
-264
-264
-265
-265
-266
-266
-270
-268
-268
-268
-268
-269
-270
-270
-270
-270
-268
-269
-270
-268
-268
-268
-270
-268
-267
-268
-267
-266
-265
-263
-261
-259
-258
-260
-256
-254
-251
-250
-245
-243
-240
-238
-236
-236
-232
-231
-231
-229
-230
-229
-232
-233
-235
-239
-239
-240
-243
-245
-249
-250
-250
-249
-251
-251
-252
-253
-252
-254
-254
-253
-252
-254
-254
-257
-257
-256
-260
-257
-257
-258
-258
-258
-256
-256
-257
-257
-256
-257
-257
-253
-254
-256
-258
-255
-254
-254
-254
-253
-254
-254
-254
-253
-252
-252
-251
-251
-252
-252
-257
-251
-251
-251
-251
-251
-252
-252
-252
-252
-256
-254
-252
-251
-252
-252
-252
-252
-252
-252
-252
-252
-252
-252
-252
-251
-251
-250
-252
-252
-252
-253
-253
-252
-257
-252
-252
-252
-251
-252
-252
-252
-252
-250
-251
-251
-251
-250
-251
-251
-250
-249
-250
-251
-251
-251
-252
-251
-251
-251
-252
-252
-251
-251
-250
-250
-251
-251
-251
-251
-251
-251
-251
-251
-251
-251
-252
-251
-252
-251
-250
-246
-245
-244
-242
-241
-236
-238
-237
-232
-231
-230
-230
-231
-235
-238
-238
-240
-240
-243
-246
-252
-257
-251
-251
-252
-252
-253
-254
-257
-256
-256
-257
-257
-258
-257
-257
-256
-257
-256
-259
-274
-287
-296
-310
-315
-278
-218
-190
-161
-105
-96
-169
-242
-275
-286
-285
-281
-270
-264
-261
-260
-263
-264
-261
-265
-264
-264
-264
-261
-263
-264
-264
-264
-265
-263
-265
-265
-266
-266
-266
-269
-267
-268
-268
-267
-267
-267
-268
-267
-267
-268
-268
-267
-267
-267
-268
-268
-268
-268
-267
-267
-265
-266
-265
-263
-264
-261
-264
-257
-254
-252
-251
-247
-245
-244
-240
-238
-235
-231
-230
-227
-226
-226
-225
-229
-232
-231
-233
-235
-237
-239
-238
-241
-242
-243
-243
-242
-242
-244
-243
-244
-244
-244
-245
-247
-245
-245
-245
-245
-245
-243
-244
-243
-245
-245
-244
-245
-244
-243
-245
-245
-244
-243
-243
-243
-243
-238
-242
-240
-240
-241
-238
-239
-237
-238
-238
-238
-237
-238
-238
-236
-239
-236
-237
-236
-237
-238
-237
-236
-237
-237
-237
-236
-236
-236
-236
-236
-235
-236
-236
-235
-237
-235
-236
-236
-235
-236
-237
-238
-234
-235
-235
-236
-233
-233
-233
-234
-233
-234
-236
-231
-233
-235
-235
-232
-230
-233
-236
-236
-236
-234
-235
-234
-234
-235
-236
-233
-234
-234
-234
-236
-230
-233
-233
-233
-232
-231
-231
-231
-231
-230
-230
-230
-231
-230
-230
-230
-230
-230
-229
-230
-230
-230
-230
-228
-229
-229
-229
-225
-229
-229
-230
-229
-225
-221
-219
-217
-217
-216
-216
-211
-209
-205
-205
-204
-206
-209
-214
-215
-216
-218
-218
-221
-225
-229
-230
-229
-231
-231
-231
-229
-231
-233
-234
-233
-233
-233
-233
-233
-234
-235
-234
-236
-252
-268
-285
-304
-305
-254
-198
-180
-157
-98
-93
-166
-232
-261
-271
-264
-256
-247
-243
-242
-244
-245
-245
-245
-247
-246
-247
-246
-247
-247
-245
-247
-248
-250
-249
-250
-249
-249
-251
-250
-251
-251
-250
-250
-251
-251
-250
-252
-252
-252
-251
-252
-252
-252
-252
-251
-253
-257
-251
-251
-251
-251
-247
-246
-245
-245
-243
-242
-238
-238
-236
-231
-231
-224
-225
-222
-218
-218
-216
-212
-212
-211
-211
-214
-215
-215
-216
-218
-218
-218
-223
-225
-226
-229
-230
-229
-231
-231
-231
-232
-233
-233
-233
-232
-235
-233
-234
-235
-235
-236
-234
-232
-234
-236
-236
-236
-230
-233
-233
-233
-234
-231
-232
-233
-232
-231
-233
-232
-230
-230
-230
-230
-226
-230
-229
-229
-228
-228
-229
-228
-228
-227
-229
-227
-226
-226
-226
-229
-228
-228
-229
-228
-228
-228
-226
-226
-226
-226
-226
-226
-226
-225
-225
-226
-225
-228
-226
-226
-226
-227
-225
-225
-226
-226
-226
-224
-226
-226
-229
-230
-228
-229
-228
-226
-226
-229
-229
-229
-228
-229
-229
-225
-230
-229
-229
-229
-230
-230
-230
-229
-228
-230
-230
-229
-229
-229
-229
-227
-229
-228
-229
-227
-228
-228
-227
-227
-229
-229
-226
-229
-230
-229
-229
-229
-229
-229
-230
-228
-229
-226
-229
-229
-229
-229
-225
-226
-226
-225
-222
-218
-218
-216
-215
-216
-213
-209
-205
-205
-205
-208
-209
-211
-212
-214
-216
-217
-219
-223
-226
-226
-230
-230
-230
-229
-230
-230
-231
-231
-231
-231
-231
-232
-232
-233
-233
-231
-237
-261
-274
-290
-315
-311
-262
-209
-185
-153
-87
-79
-153
-216
-250
-262
-259
-258
-245
-241
-242
-243
-245
-245
-245
-245
-245
-245
-245
-247
-248
-250
-250
-247
-250
-250
-249
-251
-251
-251
-251
-251
-252
-251
-252
-252
-254
-254
-254
-254
-254
-253
-254
-256
-256
-254
-254
-254
-254
-253
-257
-252
-252
-252
-252
-251
-251
-248
-245
-244
-243
-239
-237
-233
-230
-229
-225
-223
-219
-217
-216
-216
-215
-215
-212
-215
-218
-218
-218
-222
-221
-222
-225
-226
-229
-229
-232
-231
-232
-234
-235
-235
-234
-231
-233
-235
-236
-236
-236
-237
-237
-236
-238
-239
-236
-237
-238
-238
-238
-235
-238
-238
-237
-238
-237
-237
-237
-235
-237
-237
-237
-236
-236
-236
-237
-232
-236
-237
-237
-237
-237
-237
-237
-236
-237
-237
-238
-238
-238
-237
-237
-235
-236
-237
-237
-237
-236
-236
-237
-238
-239
-240
-237
-239
-239
-240
-243
-239
-240
-240
-241
-240
-243
-243
-243
-240
-240
-241
-238
-239
-241
-240
-240
-240
-241
-243
-242
-241
-242
-242
-243
-241
-240
-241
-239
-241
-240
-241
-243
-241
-240
-240
-240
-239
-240
-240
-243
-243
-242
-240
-238
-239
-240
-241
-242
-243
-243
-243
-243
-244
-244
-240
-244
-243
-243
-244
-244
-243
-244
-244
-244
-243
-242
-243
-243
-239
-237
-231
-233
-233
-233
-231
-230
-225
-219
-219
-222
-223
-227
-231
-231
-231
-233
-231
-237
-239
-244
-245
-245
-246
-247
-250
-247
-250
-245
-250
-251
-252
-252
-251
-252
-252
-252
-252
-252
-261
-282
-292
-307
-325
-317
-258
-203
-184
-148
-84
-99
-188
-258
-285
-291
-285
-277
-266
-261
-260
-266
-266
-265
-265
-265
-264
-265
-264
-266
-267
-267
-267
-267
-267
-267
-267
-270
-268
-268
-269
-268
-269
-271
-272
-273
-274
-274
-276
-273
-274
-273
-274
-274
-273
-274
-272
-272
-271
-271
-272
-273
-274
-271
-272
-268
-268
-267
-265
-263
-261
-258
-253
-251
-250
-245
-243
-243
-241
-238
-236
-233
-233
-234
-236
-238
-238
-239
-239
-242
-245
-247
-249
-250
-251
-251
-251
-252
-254
-253
-256
-252
-254
-257
-254
-254
-256
-259
-256
-254
-256
-257
-258
-256
-254
-257
-256
-256
-257
-257
-258
-258
-257
-258
-252
-252
-252
-252
-251
-252
-251
-252
-252
-251
-251
-251
-248
-248
-250
-247
-246
-247
-245
-246
-245
-245
-247
-247
-246
-247
-245
-250
-250
-250
-250
-250
-250
-250
-251
-251
-250
-246
-248
-247
-247
-249
-245
-250
-250
-250
-249
-250
-250
-250
-251
-251
-251
-252
-252
-251
-251
-252
-250
-251
-251
-251
-251
-251
-250
-249
-251
-251
-252
-251
-251
-251
-251
-251
-251
-251
-250
-251
-250
-251
-250
-250
-250
-250
-249
-245
-250
-250
-248
-246
-246
-247
-247
-247
-247
-250
-245
-245
-247
-247
-250
-244
-245
-245
-243
-238
-237
-233
-232
-233
-231
-229
-224
-221
-222
-222
-224
-229
-233
-233
-233
-235
-236
-238
-243
-244
-245
-247
-246
-248
-250
-248
-249
-250
-251
-251
-250
-251
-249
-248
-249
-250
-251
-250
-257
-270
-282
-292
-308
-314
-275
-217
-189
-171
-109
-98
-170
-245
-278
-285
-285
-276
-265
-258
-257
-258
-259
-259
-258
-261
-261
-261
-263
-263
-263
-263
-264
-263
-263
-265
-264
-265
-265
-265
-264
-264
-265
-268
-266
-265
-266
-265
-265
-267
-268
-267
-267
-266
-267
-267
-268
-266
-265
-267
-264
-265
-264
-261
-258
-259
-258
-254
-251
-252
-249
-247
-244
-241
-239
-235
-235
-233
-231
-230
-229
-227
-227
-227
-227
-229
-230
-231
-233
-233
-236
-237
-237
-238
-240
-240
-241
-242
-243
-244
-244
-244
-239
-242
-243
-244
-244
-244
-243
-244
-244
-244
-245
-244
-245
-245
-244
-245
-243
-244
-243
-245
-244
-243
-241
-242
-243
-243
-243
-241
-240
-238
-238
-239
-239
-238
-238
-237
-238
-238
-237
-237
-237
-237
-235
-235
-236
-236
-235
-236
-235
-236
-236
-236
-236
-236
-232
-236
-236
-235
-236
-233
-236
-236
-236
-237
-236
-237
-236
-236
-237
-237
-237
-237
-237
-237
-236
-233
-236
-236
-236
-236
-236
-236
-236
-234
-234
-236
-236
-234
-233
-236
-233
-233
-233
-233
-231
-231
-231
-231
-231
-231
-231
-231
-229
-231
-231
-231
-230
-229
-231
-231
-231
-231
-232
-231
-231
-231
-231
-231
-228
-229
-230
-230
-230
-230
-230
-230
-229
-229
-229
-230
-230
-229
-229
-229
-226
-229
-230
-229
-228
-229
-229
-229
-229
-227
-228
-225
-222
-219
-218
-216
-215
-213
-211
-208
-205
-206
-205
-205
-210
-213
-216
-212
-218
-220
-222
-225
-226
-229
-230
-231
-231
-233
-233
-233
-233
-233
-236
-231
-235
-234
-236
-236
-236
-234
-233
-240
-260
-275
-292
-313
-300
-244
-197
-181
-152
-88
-92
-169
-235
-264
-268
-265
-256
-250
-244
-245
-248
-249
-250
-250
-249
-249
-250
-251
-251
-249
-250
-251
-251
-252
-257
-252
-251
-253
-254
-256
-254
-255
-254
-256
-257
-258
-258
-258
-257
-257
-259
-259
-258
-258
-258
-258
-257
-257
-257
-258
-253
-254
-254
-252
-252
-251
-247
-246
-243
-240
-239
-237
-233
-230
-228
-226
-224
-218
-219
-216
-215
-218
-218
-219
-219
-222
-223
-226
-228
-230
-231
-233
-234
-231
-235
-236
-236
-236
-237
-237
-236
-237
-238
-239
-238
-238
-238
-238
-240
-237
-239
-238
-238
-238
-239
-240
-239
-239
-240
-240
-239
-239
-239
-238
-239
-238
-238
-238
-239
-239
-238
-237
-235
-236
-236
-237
-231
-235
-235
-236
-236
-235
-237
-236
-237
-235
-236
-236
-236
-234
-237
-235
-231
-235
-237
-236
-236
-236
-235
-236
-236
-236
-235
-236
-236
-235
-236
-235
-232
-236
-234
-235
-233
-234
-233
-233
-233
-232
-233
-232
-231
-231
-231
-232
-231
-231
-231
-231
-231
-232
-229
-231
-233
-231
-231
-230
-232
-231
-231
-232
-233
-233
-233
-232
-232
-233
-232
-231
-233
-231
-231
-230
-232
-233
-233
-233
-232
-232
-232
-231
-235
-233
-233
-233
-232
-232
-233
-231
-232
-234
-232
-233
-233
-233
-233
-232
-232
-233
-230
-231
-232
-234
-234
-232
-235
-233
-233
-233
-236
-233
-233
-232
-231
-229
-224
-225
-222
-222
-222
-222
-218
-215
-215
-213
-215
-219
-223
-222
-222
-225
-223
-225
-226
-231
-231
-233
-232
-232
-233
-236
-236
-236
-236
-237
-236
-237
-236
-238
-236
-237
-237
-237
-237
-248
-268
-282
-302
-326
-310
-252
-208
-184
-138
-75
-101
-179
-236
-261
-265
-263
-257
-250
-245
-244
-247
-247
-246
-251
-249
-251
-251
-250
-251
-252
-250
-252
-252
-252
-254
-255
-256
-257
-257
-256
-258
-258
-257
-258
-259
-258
-260
-258
-260
-259
-261
-262
-262
-264
-261
-261
-261
-260
-260
-259
-259
-258
-260
-257
-254
-252
-252
-248
-247
-244
-241
-239
-238
-234
-230
-229
-226
-224
-222
-221
-219
-222
-223
-223
-223
-225
-227
-229
-231
-232
-235
-235
-237
-238
-239
-239
-241
-243
-243
-242
-243
-244
-243
-242
-244
-238
-242
-242
-242
-244
-242
-244
-244
-244
-245
-245
-244
-244
-245
-245
-244
-240
-244
-243
-244
-244
-243
-244
-244
-243
-243
-244
-243
-243
-243
-242
-242
-241
-242
-243
-243
-242
-242
-242
-242
-243
-243
-244
-244
-243
-243
-242
-244
-244
-244
-244
-244
-244
-245
-245
-245
-245
-245
-246
-243
-245
-245
-245
-245
-244
-243
-244
-245
-245
-245
-243
-244
-244
-244
-244
-242
-244
-243
-244
-244
-244
-245
-245
-245
-245
-245
-245
-244
-244
-243
-244
-245
-245
-244
-245
-245
-245
-245
-245
-244
-245
-245
-244
-245
-244
-244
-244
-243
-243
-243
-243
-244
-245
-243
-245
-245
-245
-247
-243
-245
-245
-245
-245
-245
-245
-247
-247
-247
-247
-245
-246
-250
-250
-246
-244
-247
-245
-245
-243
-240
-238
-237
-238
-237
-237
-233
-230
-230
-229
-229
-231
-237
-237
-237
-238
-240
-241
-245
-250
-251
-251
-246
-252
-252
-252
-254
-254
-254
-254
-257
-256
-257
-257
-257
-256
-258
-257
-264
-273
-288
-299
-315
-324
-286
-223
-189
-166
-105
-83
-144
-230
-276
-292
-291
-288
-278
-267
-265
-265
-267
-266
-267
-267
-267
-268
-269
-268
-268
-268
-271
-271
-271
-272
-273
-273
-275
-276
-276
-276
-275
-278
-276
-275
-277
-278
-278
-278
-279
-279
-278
-278
-277
-278
-279
-278
-278
-282
-278
-278
-278
-278
-277
-274
-271
-271
-267
-265
-265
-264
-262
-258
-258
-257
-252
-251
-247
-245
-242
-242
-241
-243
-240
-242
-239
-243
-243
-245
-245
-247
-250
-251
-252
-257
-256
-256
-256
-258
-258
-258
-261
-259
-260
-260
-259
-259
-258
-259
-259
-258
-256
-258
-258
-258
-258
-259
-261
-259
-258
-258
-257
-257
-258
-257
-256
-257
-255
-255
-254
-252
-251
-252
-254
-252
-252
-252
-252
-252
-252
-252
-251
-251
-251
-247
-251
-250
-249
-251
-251
-251
-250
-251
-252
-252
-250
-250
-251
-251
-251
-247
-251
-251
-250
-251
-251
-251
-251
-250
-251
-251
-251
-251
-251
-251
-252
-254
-252
-251
-252
-251
-251
-250
-249
-251
-251
-251
-250
-249
-250
-251
-248
-247
-247
-247
-247
-250
-250
-250
-248
-247
-250
-248
-243
-247
-247
-247
-247
-245
-245
-245
-243
-244
-245
-245
-245
-245
-245
-245
-241
-243
-244
-244
-243
-244
-244
-244
-244
-244
-244
-243
-243
-243
-243
-242
-240
-241
-243
-243
-240
-239
-233
-231
-231
-230
-228
-225
-224
-222
-220
-218
-218
-225
-228
-230
-231
-231
-229
-231
-233
-237
-243
-240
-243
-243
-244
-245
-245
-246
-245
-247
-247
-246
-245
-245
-245
-245
-245
-244
-245
-257
-274
-285
-302
-316
-282
-219
-186
-177
-122
-86
-151
-233
-271
-282
-278
-271
-260
-254
-253
-254
-257
-257
-257
-256
-259
-257
-257
-255
-257
-258
-258
-258
-259
-258
-258
-259
-259
-261
-261
-260
-264
-261
-260
-261
-261
-261
-263
-262
-261
-261
-260
-264
-264
-264
-264
-263
-263
-263
-263
-262
-261
-260
-258
-257
-257
-254
-251
-249
-247
-245
-243
-240
-238
-236
-232
-231
-229
-227
-224
-225
-223
-223
-224
-222
-226
-229
-229
-232
-233
-236
-236
-239
-240
-243
-241
-243
-243
-244
-242
-240
-243
-242
-243
-244
-244
-244
-243
-245
-245
-245
-245
-245
-245
-245
-245
-244
-244
-244
-244
-244
-244
-243
-243
-241
-240
-240
-238
-240
-240
-240
-239
-238
-238
-239
-239
-238
-238
-236
-237
-237
-237
-237
-233
-236
-237
-236
-236
-237
-236
-236
-236
-237
-238
-237
-236
-235
-235
-237
-234
-237
-237
-237
-237
-237
-235
-236
-237
-236
-236
-237
-235
-236
-236
-236
-236
-235
-236
-236
-237
-236
-237
-237
-236
-236
-236
-232
-236
-236
-236
-236
-236
-236
-236
-234
-233
-234
-236
-236
-236
-236
-235
-231
-235
-234
-236
-236
-236
-236
-236
-236
-236
-238
-237
-237
-236
-237
-237
-236
-237
-238
-237
-238
-238
-239
-239
-238
-236
-237
-237
-237
-238
-237
-238
-237
-238
-238
-237
-238
-238
-237
-238
-237
-237
-238
-232
-236
-231
-229
-229
-226
-225
-225
-224
-221
-218
-218
-219
-224
-225
-228
-225
-228
-229
-228
-229
-231
-233
-237
-239
-238
-240
-241
-243
-240
-243
-243
-244
-244
-243
-243
-244
-243
-242
-241
-243
-243
-253
-278
-289
-310
-326
-300
-239
-198
-178
-127
-77
-127
-209
-255
-272
-271
-265
-260
-251
-250
-251
-252
-252
-251
-251
-252
-257
-254
-256
-257
-256
-257
-256
-259
-258
-258
-257
-258
-258
-259
-258
-260
-261
-261
-261
-261
-264
-264
-264
-264
-264
-264
-263
-264
-264
-264
-264
-264
-264
-261
-265
-261
-259
-258
-257
-258
-257
-253
-251
-251
-247
-245
-243
-239
-237
-233
-229
-228
-226
-225
-221
-221
-219
-222
-222
-225
-226
-229
-227
-230
-232
-233
-236
-238
-240
-240
-243
-243
-243
-244
-243
-244
-245
-246
-247
-247
-245
-247
-245
-244
-245
-245
-245
-246
-244
-244
-244
-246
-245
-240
-244
-243
-243
-244
-243
-242
-243
-243
-243
-240
-240
-240
-239
-239
-238
-237
-239
-239
-238
-238
-238
-238
-238
-238
-238
-237
-237
-237
-237
-237
-237
-237
-236
-236
-237
-239
-238
-237
-236
-238
-237
-237
-235
-238
-238
-237
-238
-237
-238
-238
-238
-238
-238
-236
-235
-237
-237
-237
-233
-237
-236
-236
-237
-239
-238
-237
-238
-238
-238
-237
-237
-237
-238
-238
-236
-238
-238
-238
-237
-238
-237
-237
-237
-237
-236
-236
-236
-236
-236
-236
-235
-236
-237
-236
-236
-237
-236
-236
-237
-236
-236
-232
-236
-236
-235
-237
-236
-236
-236
-236
-235
-236
-235
-235
-235
-236
-235
-233
-236
-236
-235
-237
-236
-236
-236
-237
-236
-236
-231
-227
-226
-225
-224
-224
-224
-221
-218
-217
-217
-218
-224
-226
-225
-229
-228
-228
-229
-231
-236
-237
-238
-239
-238
-239
-242
-238
-240
-241
-241
-240
-237
-239
-240
-240
-243
-241
-240
-243
-261
-277
-292
-313
-330
-296
-235
-201
-171
-108
-78
-141
-215
-257
-271
-267
-263
-251
-249
-247
-247
-249
-251
-252
-250
-251
-251
-252
-251
-252
-252
-252
-251
-252
-255
-258
-254
-256
-257
-257
-258
-258
-258
-258
-257
-258
-259
-259
-258
-260
-261
-265
-260
-261
-260
-261
-259
-259
-259
-259
-257
-258
-258
-257
-256
-253
-252
-250
-248
-245
-243
-240
-238
-236
-234
-230
-228
-225
-223
-222
-218
-218
-217
-218
-220
-222
-224
-226
-228
-230
-231
-233
-236
-238
-237
-238
-240
-240
-242
-243
-242
-242
-244
-245
-245
-245
-244
-244
-241
-243
-240
-243
-242
-243
-242
-244
-241
-243
-244
-243
-242
-243
-244
-243
-241
-242
-240
-240
-239
-240
-240
-243
-240
-238
-239
-238
-239
-237
-238
-238
-238
-239
-237
-238
-239
-238
-239
-240
-238
-239
-240
-240
-239
-236
-239
-238
-239
-239
-239
-240
-240
-240
-240
-243
-240
-240
-240
-240
-243
-239
-241
-243
-241
-241
-243
-243
-244
-243
-244
-244
-244
-244
-244
-245
-245
-244
-245
-244
-244
-244
-244
-245
-245
-246
-246
-246
-243
-245
-245
-245
-245
-245
-245
-245
-245
-247
-247
-245
-245
-246
-245
-247
-244
-248
-250
-247
-247
-247
-245
-245
-246
-248
-250
-248
-249
-247
-246
-247
-245
-247
-250
-250
-250
-249
-250
-248
-248
-250
-250
-247
-249
-250
-250
-245
-241
-242
-240
-240
-238
-238
-237
-234
-231
-230
-230
-226
-236
-240
-240
-240
-239
-242
-244
-250
-252
-252
-252
-254
-253
-254
-257
-259
-259
-260
-261
-261
-260
-260
-261
-261
-259
-260
-262
-267
-285
-298
-308
-326
-323
-278
-219
-194
-161
-99
-98
-172
-251
-285
-302
-296
-290
-279
-271
-271
-271
-273
-273
-275
-272
-273
-274
-273
-274
-274
-278
-276
-276
-278
-278
-278
-279
-280
-280
-280
-279
-282
-282
-283
-283
-282
-286
-285
-284
-284
-282
-282
-284
-283
-285
-285
-283
-284
-284
-283
-280
-280
-278
-278
-278
-278
-275
-275
-274
-271
-268
-266
-262
-264
-258
-257
-251
-251
-247
-245
-245
-244
-243
-243
-244
-245
-246
-247
-251
-250
-254
-257
-257
-258
-259
-259
-261
-263
-261
-262
-263
-264
-265
-265
-265
-268
-267
-265
-266
-265
-265
-265
-265
-266
-265
-265
-266
-266
-265
-265
-265
-266
-265
-265
-264
-263
-262
-263
-264
-262
-261
-260
-265
-261
-259
-259
-258
-261
-260
-259
-258
-260
-259
-258
-258
-258
-258
-256
-259
-258
-258
-258
-257
-258
-258
-259
-259
-258
-258
-258
-258
-258
-258
-257
-256
-257
-258
-258
-257
-258
-258
-257
-259
-257
-256
-258
-257
-254
-254
-257
-257
-257
-254
-254
-252
-253
-256
-255
-253
-253
-254
-257
-252
-252
-252
-254
-254
-252
-252
-251
-252
-251
-252
-251
-251
-251
-251
-247
-250
-251
-250
-249
-250
-249
-250
-249
-250
-250
-248
-250
-249
-248
-247
-247
-250
-248
-248
-250
-247
-247
-247
-247
-247
-249
-244
-248
-247
-246
-247
-245
-245
-243
-240
-237
-236
-233
-231
-231
-231
-229
-222
-222
-221
-221
-225
-229
-229
-230
-230
-230
-233
-237
-239
-243
-243
-244
-243
-244
-245
-247
-247
-245
-245
-246
-247
-245
-246
-247
-246
-245
-245
-252
-271
-282
-296
-311
-304
-250
-197
-180
-150
-90
-97
-176
-248
-275
-278
-273
-266
-257
-251
-251
-252
-252
-252
-252
-252
-253
-253
-256
-252
-252
-252
-254
-254
-255
-256
-255
-254
-256
-255
-256
-257
-257
-257
-258
-258
-258
-257
-258
-258
-258
-258
-258
-258
-258
-260
-258
-258
-258
-257
-258
-258
-257
-255
-254
-252
-251
-249
-250
-246
-245
-239
-239
-238
-236
-231
-229
-229
-225
-222
-220
-219
-218
-215
-215
-218
-218
-216
-219
-222
-225
-226
-229
-230
-231
-231
-233
-233
-233
-234
-236
-236
-237
-236
-235
-235
-236
-236
-237
-237
-236
-235
-236
-236
-232
-235
-235
-237
-237
-236
-234
-232
-232
-232
-233
-233
-232
-233
-231
-231
-229
-229
-230
-230
-229
-230
-229
-229
-226
-226
-228
-229
-228
-226
-226
-227
-225
-226
-228
-228
-226
-227
-228
-229
-227
-227
-226
-226
-225
-225
-226
-226
-226
-225
-226
-226
-225
-225
-226
-227
-226
-225
-227
-223
-225
-225
-226
-225
-225
-225
-225
-225
-224
-225
-225
-224
-224
-224
-224
-222
-225
-224
-225
-225
-225
-224
-225
-223
-224
-223
-224
-223
-222
-222
-222
-222
-223
-223
-222
-222
-223
-223
-223
-223
-222
-222
-219
-222
-223
-221
-222
-222
-222
-220
-221
-222
-222
-218
-220
-222
-222
-219
-218
-221
-220
-219
-221
-222
-220
-221
-222
-219
-222
-222
-220
-220
-222
-222
-218
-221
-218
-216
-212
-211
-210
-209
-208
-208
-208
-202
-200
-201
-201
-203
-208
-209
-209
-211
-211
-212
-217
-222
-221
-221
-224
-221
-225
-226
-227
-228
-227
-228
-227
-229
-228
-228
-229
-227
-228
-229
-233
-246
-265
-280
-301
-305
-260
-205
-178
-150
-88
-72
-143
-208
-244
-257
-252
-246
-240
-236
-234
-236
-237
-238
-238
-238
-238
-238
-238
-238
-238
-239
-240
-240
-240
-240
-240
-239
-243
-241
-243
-243
-241
-243
-240
-243
-244
-244
-244
-243
-243
-245
-245
-245
-245
-244
-244
-245
-244
-244
-238
-243
-241
-240
-240
-238
-235
-233
-231
-229
-228
-225
-222
-219
-218
-214
-211
-208
-208
-205
-204
-204
-202
-203
-204
-203
-205
-207
-210
-212
-214
-218
-218
-220
-221
-223
-225
-225
-223
-226
-226
-226
-227
-225
-229
-229
-229
-229
-230
-228
-229
-230
-230
-229
-230
-230
-229
-229
-230
-226
-230
-229
-227
-229
-228
-226
-226
-227
-226
-228
-226
-226
-225
-224
-225
-225
-224
-223
-223
-224
-225
-223
-223
-223
-223
-222
-219
-222
-223
-222
-222
-221
-221
-221
-222
-222
-222
-222
-221
-222
-222
-222
-218
-222
-223
-222
-223
-224
-223
-223
-222
-222
-222
-222
-222
-222
-223
-223
-222
-223
-222
-222
-222
-221
-222
-222
-221
-222
-222
-223
-222
-221
-222
-222
-222
-223
-222
-222
-223
-223
-222
-221
-222
-223
-223
-218
-221
-221
-222
-223
-222
-223
-221
-222
-222
-222
-222
-222
-223
-221
-222
-222
-223
-222
-223
-223
-223
-222
-222
-222
-223
-222
-223
-222
-222
-221
-222
-222
-223
-223
-223
-222
-223
-223
-222
-222
-222
-221
-216
-217
-214
-212
-212
-211
-209
-208
-204
-201
-202
-200
-201
-207
-211
-211
-207
-210
-211
-215
-218
-222
-222
-223
-223
-225
-225
-225
-225
-225
-226
-228
-225
-229
-227
-228
-226
-229
-227
-229
-243
-263
-275
-298
-313
-285
-229
-191
-163
-104
-65
-113
-187
-232
-257
-258
-251
-243
-238
-233
-237
-238
-239
-242
-240
-243
-242
-244
-243
-244
-244
-244
-245
-245
-245
-244
-246
-246
-247
-249
-250
-247
-249
-250
-250
-249
-250
-250
-250
-250
-251
-250
-251
-251
-251
-251
-251
-250
-251
-251
-249
-249
-245
-245
-245
-243
-242
-238
-237
-234
-231
-230
-230
-224
-222
-219
-217
-215
-209
-211
-207
-207
-208
-209
-211
-211
-214
-216
-218
-220
-223
-225
-229
-229
-229
-233
-235
-233
-236
-235
-237
-237
-237
-238
-239
-237
-238
-238
-238
-238
-237
-238
-239
-239
-239
-240
-238
-238
-238
-238
-238
-234
-237
-238
-237
-238
-237
-237
-237
-237
-237
-237
-236
-237
-237
-238
-237
-232
-236
-236
-237
-237
-237
-237
-237
-236
-236
-237
-237
-237
-237
-237
-237
-237
-239
-238
-236
-237
-237
-238
-238
-237
-236
-237
-237
-236
-235
-236
-237
-236
-237
-236
-237
-238
-237
-238
-238
-238
-238
-238
-234
-238
-238
-239
-238
-238
-238
-238
-238
-239
-240
-240
-238
-239
-241
-240
-237
-240
-239
-239
-240
-239
-240
-240
-238
-239
-240
-240
-240
-240
-243
-243
-240
-243
-242
-243
-242
-243
-243
-244
-243
-244
-245
-244
-244
-244
-243
-243
-243
-242
-244
-244
-244
-244
-243
-244
-243
-243
-244
-240
-244
-243
-242
-239
-237
-236
-236
-233
-231
-231
-230
-227
-225
-222
-222
-219
-227
-233
-232
-233
-233
-234
-235
-238
-242
-243
-244
-245
-245
-247
-250
-247
-247
-249
-250
-250
-250
-250
-250
-250
-251
-251
-247
-252
-265
-279
-291
-308
-320
-292
-231
-191
-171
-116
-77
-126
-211
-258
-283
-285
-280
-274
-265
-261
-259
-263
-264
-265
-264
-264
-264
-264
-264
-264
-267
-266
-265
-265
-265
-265
-265
-266
-266
-266
-267
-267
-267
-268
-269
-268
-271
-271
-272
-271
-271
-271
-271
-271
-271
-271
-269
-273
-270
-270
-269
-267
-267
-267
-268
-267
-265
-264
-261
-258
-258
-254
-254
-250
-250
-247
-245
-243
-238
-235
-233
-232
-231
-231
-231
-231
-234
-236
-237
-238
-240
-241
-243
-242
-245
-247
-247
-249
-251
-252
-254
-252
-254
-254
-254
-257
-254
-254
-254
-254
-254
-257
-255
-255
-257
-254
-251
-252
-254
-254
-254
-252
-251
-252
-252
-251
-252
-252
-251
-251
-251
-250
-250
-250
-251
-250
-250
-247
-247
-250
-247
-248
-247
-247
-246
-245
-246
-247
-245
-245
-245
-245
-246
-245
-245
-245
-245
-244
-245
-243
-245
-244
-244
-244
-243
-243
-243
-244
-244
-245
-244
-244
-244
-242
-244
-240
-242
-243
-241
-243
-243
-241
-243
-243
-243
-243
-241
-241
-240
-243
-244
-240
-241
-242
-240
-241
-243
-241
-241
-240
-240
-241
-241
-243
-240
-240
-240
-238
-238
-238
-238
-239
-238
-240
-239
-239
-239
-238
-235
-238
-238
-238
-238
-236
-237
-236
-236
-235
-236
-236
-235
-236
-233
-236
-232
-235
-236
-236
-233
-231
-226
-225
-225
-223
-222
-222
-217
-213
-211
-211
-212
-215
-222
-223
-224
-223
-222
-224
-228
-231
-233
-236
-237
-237
-235
-236
-236
-237
-237
-239
-238
-239
-236
-238
-237
-238
-238
-232
-237
-249
-266
-276
-292
-308
-287
-229
-185
-172
-143
-79
-89
-162
-233
-266
-271
-268
-261
-250
-245
-245
-245
-245
-247
-247
-247
-246
-245
-246
-250
-247
-247
-247
-248
-250
-249
-250
-250
-250
-251
-252
-250
-251
-252
-252
-254
-254
-252
-252
-252
-253
-252
-252
-254
-254
-252
-254
-258
-253
-254
-253
-252
-252
-251
-251
-250
-247
-247
-244
-243
-239
-238
-236
-231
-231
-229
-225
-223
-222
-218
-216
-215
-211
-213
-214
-215
-215
-215
-218
-218
-219
-222
-223
-225
-229
-228
-229
-230
-230
-231
-229
-231
-231
-233
-231
-231
-232
-233
-232
-233
-232
-233
-233
-233
-232
-233
-230
-231
-231
-231
-231
-231
-231
-231
-231
-230
-229
-229
-228
-226
-227
-228
-229
-229
-228
-226
-229
-229
-225
-226
-229
-227
-225
-226
-226
-225
-225
-225
-225
-225
-224
-225
-225
-226
-222
-225
-224
-225
-224
-221
-225
-225
-224
-225
-225
-225
-224
-224
-225
-226
-225
-225
-225
-225
-225
-221
-225
-225
-224
-224
-224
-224
-224
-223
-223
-224
-224
-223
-225
-224
-225
-224
-225
-225
-225
-223
-223
-225
-225
-225
-223
-225
-222
-223
-223
-223
-223
-223
-223
-223
-222
-223
-225
-223
-223
-223
-223
-222
-218
-222
-222
-222
-222
-221
-222
-222
-222
-221
-221
-222
-222
-221
-223
-222
-222
-222
-222
-222
-223
-223
-222
-222
-222
-223
-222
-222
-221
-220
-222
-222
-217
-216
-213
-212
-210
-210
-209
-211
-207
-202
-204
-201
-202
-206
-211
-211
-211
-213
-216
-218
-221
-225
-224
-225
-225
-225
-226
-225
-228
-227
-230
-230
-231
-230
-230
-230
-230
-232
-231
-231
-232
-251
-266
-285
-305
-307
-264
-207
-181
-153
-91
-69
-115
-175
-219
-245
-258
-258
-252
-244
-239
-237
-238
-238
-242
-238
-240
-240
-243
-242
-238
-242
-243
-244
-245
-244
-245
-244
-245
-246
-246
-247
-248
-247
-247
-250
-246
-250
-250
-251
-251
-252
-251
-251
-251
-251
-250
-251
-251
-251
-250
-251
-250
-249
-248
-246
-245
-244
-243
-241
-238
-237
-236
-230
-230
-227
-224
-222
-219
-216
-214
-212
-211
-211
-210
-210
-211
-212
-215
-214
-219
-222
-222
-224
-225
-226
-227
-230
-231
-235
-233
-234
-235
-235
-236
-233
-236
-237
-236
-237
-238
-237
-236
-237
-237
-237
-237
-236
-237
-236
-236
-236
-235
-237
-235
-235
-235
-234
-236
-235
-234
-233
-230
-231
-231
-231
-231
-231
-232
-231
-231
-231
-233
-231
-231
-231
-231
-231
-230
-232
-231
-231
-231
-231
-230
-231
-231
-231
-232
-231
-231
-232
-231
-233
-233
-233
-233
-232
-234
-233
-233
-233
-231
-232
-231
-231
-233
-232
-231
-232
-233
-233
-231
-233
-234
-233
-230
-233
-232
-233
-233
-231
-232
-232
-232
-233
-232
-233
-233
-233
-232
-233
-234
-233
-234
-234
-233
-231
-233
-233
-233
-235
-234
-233
-233
-233
-232
-235
-235
-236
-236
-236
-236
-233
-232
-232
-232
-231
-231
-232
-231
-231
-231
-232
-229
-231
-231
-231
-232
-231
-231
-231
-231
-233
-231
-233
-231
-231
-231
-231
-230
-232
-231
-229
-227
-225
-222
-221
-222
-220
-220
-216
-211
-211
-211
-213
-216
-219
-222
-221
-225
-225
-226
-230
-232
-233
-236
-237
-237
-236
-238
-238
-238
-239
-240
-240
-239
-238
-239
-241
-240
-240
-243
-245
-269
-283
-303
-324
-311
-258
-210
-187
-138
-80
-113
-186
-238
-265
-270
-269
-259
-252
-250
-250
-250
-251
-252
-251
-252
-252
-253
-252
-252
-252
-254
-254
-254
-257
-257
-257
-257
-258
-257
-257
-257
-257
-262
-258
-258
-258
-258
-260
-259
-259
-258
-258
-257
-258
-259
-259
-257
-258
-261
-257
-257
-255
-253
-254
-252
-251
-247
-247
-244
-240
-238
-236
-232
-230
-224
-224
-222
-218
-218
-215
-215
-215
-214
-216
-218
-219
-222
-224
-225
-227
-230
-232
-236
-236
-238
-240
-240
-240
-241
-242
-243
-240
-242
-243
-243
-244
-243
-245
-244
-243
-243
-244
-244
-243
-243
-245
-245
-243
-245
-245
-245
-245
-245
-245
-245
-244
-244
-245
-244
-244
-242
-243
-244
-243
-242
-242
-243
-243
-241
-242
-243
-243
-241
-242
-243
-243
-243
-240
-243
-240
-240
-241
-240
-241
-240
-240
-243
-244
-244
-243
-240
-243
-243
-242
-243
-243
-243
-242
-244
-244
-243
-244
-244
-243
-242
-242
-240
-244
-243
-243
-245
-244
-245
-245
-245
-245
-245
-244
-245
-245
-245
-245
-244
-245
-245
-245
-245
-245
-245
-245
-245
-245
-245
-244
-247
-247
-247
-247
-245
-246
-246
-246
-246
-247
-245
-248
-248
-248
-250
-245
-247
-250
-247
-250
-248
-248
-250
-250
-249
-250
-250
-247
-247
-248
-245
-240
-240
-238
-238
-237
-236
-233
-231
-229
-225
-226
-229
-228
-231
-233
-236
-235
-235
-238
-243
-246
-250
-250
-250
-250
-251
-252
-256
-254
-254
-252
-253
-254
-254
-254
-256
-254
-252
-255
-257
-274
-288
-298
-318
-325
-292
-230
-195
-173
-115
-85
-145
-227
-271
-289
-288
-283
-274
-266
-265
-265
-266
-267
-267
-267
-267
-267
-268
-268
-267
-268
-269
-271
-270
-269
-271
-271
-271
-271
-272
-274
-273
-274
-274
-275
-276
-278
-274
-275
-276
-275
-277
-277
-277
-277
-276
-277
-276
-274
-273
-274
-274
-275
-271
-271
-271
-267
-265
-265
-261
-259
-256
-252
-252
-250
-246
-244
-243
-237
-236
-237
-237
-234
-234
-234
-237
-238
-240
-242
-243
-245
-246
-251
-252
-251
-254
-256
-258
-258
-258
-258
-259
-259
-258
-258
-264
-259
-258
-261
-261
-261
-260
-261
-260
-259
-259
-260
-259
-260
-258
-258
-264
-258
-257
-257
-256
-258
-257
-257
-258
-258
-255
-256
-256
-258
-255
-256
-258
-257
-256
-255
-255
-257
-257
-254
-255
-257
-254
-261
-257
-258
-256
-254
-257
-257
-257
-257
-257
-256
-257
-256
-257
-257
-257
-258
-257
-257
-256
-258
-258
-258
-258
-258
-258
-258
-257
-258
-257
-257
-255
-258
-258
-257
-257
-257
-257
-258
-258
-257
-257
-255
-257
-257
-257
-257
-256
-256
-257
-257
-255
-257
-254
-257
-257
-257
-254
-257
-258
-254
-253
-254
-256
-254
-255
-254
-252
-254
-253
-254
-253
-254
-254
-254
-257
-251
-249
-247
-245
-245
-243
-242
-238
-236
-231
-231
-231
-232
-236
-239
-240
-240
-240
-244
-247
-252
-252
-252
-253
-255
-254
-258
-256
-258
-258
-258
-258
-259
-258
-259
-258
-256
-258
-259
-265
-282
-292
-307
-319
-312
-260
-208
-191
-159
-100
-111
-189
-257
-284
-291
-286
-280
-267
-266
-263
-263
-265
-265
-264
-266
-265
-266
-266
-265
-265
-267
-270
-268
-268
-268
-268
-270
-270
-271
-271
-271
-271
-271
-271
-270
-273
-271
-271
-271
-271
-271
-271
-271
-269
-271
-267
-268
-269
-269
-270
-267
-270
-266
-267
-265
-261
-258
-256
-256
-252
-251
-251
-245
-243
-238
-238
-236
-233
-231
-231
-230
-229
-228
-229
-230
-231
-231
-231
-235
-236
-237
-239
-243
-244
-244
-245
-246
-247
-247
-246
-249
-249
-250
-250
-245
-248
-250
-249
-250
-247
-247
-247
-247
-248
-250
-249
-247
-247
-249
-248
-245
-248
-248
-246
-247
-248
-247
-245
-245
-245
-245
-245
-243
-244
-244
-243
-242
-243
-240
-242
-243
-243
-241
-240
-239
-243
-241
-238
-240
-240
-238
-239
-238
-239
-239
-238
-238
-239
-237
-238
-238
-238
-239
-236
-238
-238
-238
-236
-238
-237
-238
-237
-237
-238
-238
-237
-237
-238
-238
-237
-237
-238
-237
-236
-237
-237
-238
-238
-236
-237
-236
-236
-236
-237
-237
-236
-235
-234
-234
-236
-235
-236
-236
-235
-234
-233
-231
-236
-235
-236
-237
-236
-234
-233
-234
-232
-233
-235
-236
-234
-233
-233
-231
-233
-233
-233
-233
-233
-233
-232
-233
-232
-231
-232
-233
-231
-231
-230
-227
-224
-222
-222
-222
-222
-218
-214
-211
-211
-210
-213
-216
-221
-221
-222
-222
-221
-225
-229
-231
-233
-232
-235
-236
-237
-237
-236
-239
-239
-239
-240
-240
-239
-239
-239
-238
-240
-241
-259
-275
-288
-308
-315
-266
-208
-185
-161
-98
-93
-166
-232
-264
-269
-265
-258
-251
-245
-246
-247
-247
-249
-250
-250
-250
-251
-251
-251
-251
-252
-256
-252
-251
-251
-252
-252
-252
-253
-254
-252
-252
-256
-256
-254
-257
-256
-259
-257
-255
-254
-256
-257
-258
-257
-255
-255
-254
-255
-254
-252
-252
-252
-249
-249
-246
-245
-242
-239
-237
-236
-233
-230
-227
-224
-223
-218
-216
-214
-211
-212
-212
-215
-215
-217
-217
-217
-221
-222
-225
-223
-228
-229
-230
-231
-233
-233
-233
-233
-234
-236
-236
-236
-236
-236
-236
-232
-235
-236
-236
-237
-237
-237
-237
-236
-237
-237
-236
-236
-236
-236
-237
-235
-233
-233
-232
-233
-233
-231
-233
-232
-231
-231
-231
-231
-232
-231
-230
-230
-231
-231
-230
-230
-231
-226
-230
-229
-229
-230
-225
-229
-229
-230
-230
-229
-229
-231
-231
-229
-231
-230
-229
-227
-228
-229
-225
-229
-228
-229
-230
-229
-230
-230
-229
-229
-229
-229
-229
-229
-228
-229
-229
-228
-230
-230
-230
-230
-231
-231
-230
-229
-231
-228
-231
-230
-231
-231
-230
-231
-232
-231
-231
-231
-232
-231
-231
-231
-231
-230
-232
-231
-233
-233
-233
-231
-232
-233
-232
-231
-232
-233
-231
-233
-233
-231
-231
-231
-232
-231
-231
-231
-232
-231
-231
-231
-232
-231
-231
-231
-231
-229
-226
-222
-221
-220
-219
-217
-218
-214
-209
-208
-208
-211
-214
-217
-218
-218
-220
-222
-223
-226
-230
-231
-232
-233
-233
-232
-230
-235
-233
-234
-235
-236
-236
-237
-236
-236
-237
-236
-236
-246
-266
-278
-300
-320
-319
-285
-233
-199
-177
-122
-77
-117
-190
-236
-260
-265
-261
-254
-245
-243
-244
-245
-245
-247
-244
-246
-247
-249
-250
-245
-249
-250
-251
-250
-251
-251
-251
-252
-252
-252
-251
-252
-252
-252
-253
-257
-256
-254
-252
-253
-254
-256
-257
-256
-255
-254
-257
-256
-257
-254
-254
-253
-252
-251
-251
-248
-247
-245
-243
-239
-237
-236
-230
-229
-226
-223
-222
-217
-216
-214
-211
-211
-212
-212
-211
-215
-215
-218
-215
-222
-222
-225
-226
-229
-231
-233
-233
-236
-236
-236
-236
-235
-236
-237
-235
-237
-237
-235
-237
-236
-236
-237
-237
-236
-237
-236
-236
-236
-237
-237
-236
-236
-237
-236
-236
-236
-234
-235
-236
-235
-235
-231
-233
-233
-233
-233
-231
-232
-233
-233
-233
-236
-233
-233
-233
-231
-233
-231
-234
-232
-234
-233
-234
-234
-235
-236
-236
-235
-234
-233
-233
-235
-236
-235
-236
-236
-237
-235
-237
-236
-238
-238
-238
-237
-239
-239
-238
-237
-238
-238
-239
-239
-240
-238
-238
-236
-240
-240
-240
-239
-237
-239
-238
-240
-241
-240
-239
-238
-237
-239
-240
-239
-240
-240
-238
-239
-237
-240
-238
-239
-242
-240
-240
-240
-240
-238
-238
-239
-240
-239
-240
-239
-238
-239
-238
-239
-240
-240
-238
-240
-240
-240
-241
-238
-243
-241
-242
-243
-242
-242
-238
-235
-236
-236
-232
-230
-230
-228
-224
-217
-223
-225
-225
-228
-230
-230
-230
-231
-231
-239
-243
-244
-244
-245
-245
-245
-247
-247
-250
-250
-251
-251
-250
-250
-250
-251
-251
-251
-251
-253
-266
-282
-296
-313
-322
-288
-227
-195
-171
-107
-90
-158
-234
-272
-288
-284
-278
-269
-264
-260
-264
-263
-264
-265
-264
-264
-263
-265
-267
-265
-266
-265
-266
-266
-267
-267
-267
-266
-266
-268
-269
-267
-269
-268
-268
-268
-269
-271
-270
-269
-269
-270
-271
-269
-270
-273
-271
-271
-269
-268
-267
-265
-265
-265
-265
-264
-264
-261
-258
-256
-254
-247
-247
-245
-243
-239
-237
-234
-232
-231
-230
-229
-230
-230
-230
-231
-235
-235
-238
-239
-241
-244
-245
-247
-247
-250
-251
-252
-252
-252
-253
-253
-255
-257
-254
-255
-254
-257
-257
-257
-257
-257
-257
-254
-258
-256
-254
-254
-255
-256
-254
-252
-252
-252
-252
-251
-251
-252
-251
-250
-246
-250
-250
-250
-249
-250
-248
-249
-249
-250
-250
-247
-245
-245
-245
-247
-245
-247
-247
-247
-246
-245
-247
-246
-246
-246
-247
-247
-246
-247
-249
-247
-245
-247
-250
-246
-247
-247
-246
-247
-248
-248
-246
-243
-247
-246
-245
-245
-245
-245
-245
-245
-245
-245
-245
-246
-245
-244
-245
-243
-245
-245
-245
-243
-245
-244
-243
-244
-244
-244
-244
-245
-244
-243
-242
-243
-244
-242
-243
-243
-243
-243
-243
-244
-242
-243
-238
-240
-241
-241
-240
-239
-239
-239
-238
-239
-239
-238
-238
-239
-238
-238
-234
-234
-232
-230
-229
-229
-226
-225
-223
-218
-217
-218
-218
-217
-223
-225
-222
-224
-226
-229
-231
-235
-238
-239
-238
-239
-242
-243
-243
-241
-243
-243
-243
-243
-243
-243
-243
-243
-241
-240
-243
-257
-271
-287
-301
-308
-269
-209
-183
-164
-106
-80
-141
-220
-261
-276
-273
-266
-256
-245
-246
-247
-250
-251
-251
-250
-250
-251
-250
-251
-251
-251
-251
-251
-252
-251
-252
-251
-251
-252
-253
-252
-252
-252
-252
-253
-257
-257
-257
-255
-255
-257
-257
-256
-254
-256
-254
-253
-252
-251
-251
-252
-247
-250
-248
-246
-245
-244
-243
-239
-238
-236
-233
-228
-226
-224
-222
-217
-211
-211
-211
-208
-208
-209
-210
-210
-213
-216
-218
-218
-219
-222
-224
-225
-226
-228
-229
-229
-231
-231
-231
-230
-230
-231
-233
-231
-231
-231
-232
-231
-231
-233
-233
-232
-232
-233
-230
-231
-232
-233
-234
-230
-232
-231
-231
-231
-231
-231
-231
-229
-229
-230
-230
-229
-229
-228
-229
-224
-225
-226
-229
-225
-226
-227
-226
-227
-226
-226
-226
-225
-225
-225
-226
-225
-226
-226
-227
-225
-226
-225
-225
-224
-225
-226
-222
-225
-223
-223
-225
-224
-224
-225
-225
-224
-225
-225
-224
-224
-224
-225
-222
-224
-222
-223
-224
-224
-224
-223
-223
-222
-224
-225
-225
-224
-224
-225
-223
-225
-225
-223
-223
-224
-223
-222
-222
-222
-222
-221
-222
-222
-222
-222
-222
-221
-221
-222
-222
-223
-221
-222
-222
-225
-224
-219
-222
-223
-224
-223
-223
-222
-225
-225
-224
-225
-225
-224
-225
-224
-224
-220
-223
-222
-219
-216
-215
-213
-212
-211
-211
-207
-203
-201
-202
-204
-205
-209
-209
-211
-211
-212
-216
-217
-221
-223
-223
-224
-223
-226
-226
-226
-229
-229
-230
-229
-230
-229
-230
-225
-230
-230
-229
-236
-258
-268
-287
-309
-305
-247
-192
-170
-131
-67
-94
-179
-232
-256
-259
-252
-244
-238
-236
-235
-238
-238
-238
-239
-238
-239
-238
-240
-241
-240
-243
-243
-240
-242
-243
-243
-243
-244
-244
-244
-245
-245
-245
-243
-245
-246
-245
-245
-245
-247
-246
-245
-246
-248
-248
-246
-247
-247
-247
-243
-244
-245
-244
-242
-242
-239
-238
-237
-235
-231
-230
-225
-224
-221
-218
-214
-213
-211
-208
-205
-204
-202
-202
-202
-205
-207
-209
-210
-211
-211
-213
-216
-218
-219
-222
-222
-225
-224
-225
-225
-225
-225
-222
-224
-225
-225
-225
-225
-225
-225
-225
-225
-225
-225
-224
-224
-225
-225
-220
-222
-223
-223
-222
-222
-222
-223
-222
-222
-223
-222
-219
-221
-221
-221
-219
-219
-218
-219
-219
-219
-218
-218
-218
-218
-219
-217
-219
-217
-218
-218
-217
-217
-218
-218
-218
-219
-216
-218
-217
-217
-219
-216
-218
-219
-219
-218
-220
-218
-218
-219
-219
-222
-221
-222
-222
-219
-220
-219
-222
-221
-220
-222
-221
-221
-221
-222
-222
-222
-222
-222
-222
-220
-221
-221
-219
-219
-218
-219
-219
-218
-219
-219
-219
-218
-217
-219
-219
-218
-218
-218
-218
-218
-218
-218
-218
-219
-218
-217
-218
-218
-215
-218
-218
-218
-216
-218
-218
-218
-219
-218
-219
-219
-218
-218
-219
-219
-218
-218
-218
-218
-218
-218
-218
-219
-218
-218
-217
-213
-211
-209
-209
-208
-208
-205
-201
-197
-198
-201
-202
-208
-208
-209
-209
-209
-212
-216
-219
-222
-222
-223
-225
-225
-226
-225
-226
-226
-226
-227
-229
-226
-229
-230
-229
-229
-229
-229
-238
-258
-274
-295
-317
-305
-248
-201
-178
-131
-66
-91
-171
-225
-252
-258
-254
-246
-238
-237
-237
-239
-239
-240
-242
-240
-241
-241
-244
-244
-245
-244
-245
-245
-245
-245
-243
-247
-247
-247
-247
-250
-249
-249
-251
-251
-251
-251
-251
-251
-252
-254
-254
-251
-252
-252
-252
-251
-251
-251
-251
-249
-250
-247
-247
-245
-244
-242
-238
-236
-235
-232
-231
-228
-223
-222
-219
-216
-214
-209
-209
-208
-210
-210
-211
-212
-215
-216
-219
-221
-225
-226
-229
-231
-232
-231
-236
-237
-237
-237
-236
-236
-238
-238
-238
-238
-238
-239
-238
-237
-238
-238
-238
-239
-239
-240
-239
-238
-238
-238
-238
-239
-238
-237
-236
-237
-237
-237
-236
-235
-234
-236
-236
-233
-233
-232
-233
-232
-230
-235
-236
-236
-233
-233
-234
-235
-234
-233
-236
-235
-236
-235
-236
-235
-232
-236
-236
-236
-236
-237
-237
-237
-237
-236
-236
-236
-236
-236
-236
-236
-235
-237
-237
-237
-237
-238
-238
-240
-239
-239
-238
-237
-240
-239
-239
-238
-238
-239
-238
-240
-240
-243
-239
-243
-241
-240
-241
-238
-240
-240
-240
-242
-241
-241
-241
-242
-241
-244
-243
-243
-242
-240
-243
-240
-242
-243
-243
-243
-244
-244
-243
-242
-244
-244
-244
-243
-244
-243
-243
-241
-243
-242
-243
-243
-243
-244
-243
-242
-244
-245
-240
-242
-243
-240
-239
-235
-234
-234
-232
-231
-231
-231
-225
-219
-219
-221
-219
-225
-230
-231
-231
-235
-233
-236
-241
-244
-245
-245
-246
-247
-247
-250
-250
-250
-251
-251
-251
-252
-251
-251
-251
-251
-252
-252
-254
-269
-286
-298
-319
-329
-293
-229
-194
-168
-104
-75
-138
-221
-266
-291
-287
-285
-275
-266
-264
-264
-265
-266
-266
-268
-267
-267
-268
-267
-268
-271
-267
-268
-269
-270
-269
-271
-271
-271
-271
-271
-272
-273
-272
-272
-274
-275
-275
-275
-275
-275
-276
-276
-275
-275
-275
-275
-279
-275
-274
-272
-271
-272
-271
-269
-270
-268
-267
-265
-265
-261
-258
-254
-251
-251
-248
-245
-243
-243
-238
-236
-232
-230
-230
-231
-233
-236
-237
-240
-239
-244
-244
-245
-250
-252
-254
-253
-254
-256
-257
-257
-258
-259
-258
-258
-259
-259
-259
-260
-260
-259
-261
-263
-261
-263
-261
-266
-261
-259
-259
-258
-259
-259
-259
-259
-258
-258
-258
-258
-258
-257
-258
-261
-258
-258
-258
-255
-256
-257
-256
-255
-257
-257
-257
-257
-257
-257
-253
-253
-256
-257
-257
-257
-258
-257
-257
-257
-257
-257
-259
-256
-257
-257
-258
-258
-258
-256
-258
-257
-258
-258
-258
-257
-258
-258
-260
-257
-257
-258
-257
-258
-259
-258
-257
-258
-257
-257
-258
-258
-258
-258
-259
-258
-258
-256
-258
-257
-258
-258
-258
-256
-258
-259
-258
-256
-257
-257
-258
-257
-256
-257
-257
-256
-257
-257
-257
-254
-254
-259
-257
-257
-254
-254
-254
-254
-255
-255
-255
-253
-256
-257
-257
-254
-255
-256
-251
-246
-245
-245
-244
-243
-241
-239
-234
-231
-230
-230
-231
-232
-237
-237
-238
-239
-242
-245
-250
-251
-252
-252
-254
-255
-257
-257
-257
-257
-256
-258
-258
-258
-258
-258
-258
-256
-257
-258
-262
-278
-293
-304
-320
-319
-276
-218
-191
-169
-107
-85
-148
-230
-271
-287
-288
-285
-275
-265
-261
-264
-264
-264
-265
-264
-265
-265
-264
-264
-265
-264
-264
-264
-265
-265
-266
-266
-266
-265
-266
-266
-266
-266
-265
-267
-267
-267
-267
-267
-267
-268
-267
-266
-266
-266
-266
-265
-265
-265
-265
-266
-263
-264
-261
-260
-260
-258
-257
-253
-252
-251
-246
-244
-243
-239
-237
-231
-231
-230
-227
-224
-222
-222
-221
-218
-220
-223
-225
-225
-226
-228
-230
-231
-233
-234
-236
-237
-238
-239
-238
-239
-239
-240
-236
-239
-240
-240
-243
-240
-240
-240
-240
-240
-240
-240
-240
-240
-239
-239
-236
-238
-238
-238
-238
-238
-237
-237
-237
-237
-237
-235
-236
-235
-233
-236
-233
-233
-233
-231
-231
-232
-232
-231
-231
-232
-233
-231
-231
-231
-231
-231
-231
-231
-231
-230
-230
-231
-230
-229
-230
-229
-230
-225
-229
-228
-228
-229
-227
-230
-230
-229
-229
-229
-229
-226
-226
-225
-225
-224
-225
-225
-225
-225
-225
-225
-226
-225
-225
-225
-226
-226
-225
-224
-226
-225
-225
-223
-223
-223
-224
-222
-223
-223
-222
-220
-221
-222
-222
-223
-221
-221
-222
-222
-222
-222
-223
-219
-221
-222
-222
-222
-218
-222
-222
-222
-222
-222
-221
-221
-222
-222
-223
-223
-222
-222
-222
-222
-218
-221
-220
-218
-217
-215
-211
-209
-208
-206
-205
-204
-204
-200
-197
-198
-198
-198
-204
-205
-208
-208
-209
-211
-212
-216
-219
-218
-222
-223
-224
-225
-225
-225
-225
-225
-226
-227
-226
-225
-226
-226
-226
-224
-225
-229
-246
-262
-278
-298
-304
-261
-201
-174
-155
-96
-71
-132
-204
-241
-257
-254
-250
-239
-236
-233
-236
-236
-239
-239
-238
-238
-239
-240
-238
-239
-240
-241
-243
-239
-241
-242
-243
-242
-243
-245
-240
-243
-244
-244
-245
-243
-244
-245
-244
-245
-245
-245
-245
-244
-244
-245
-243
-245
-244
-244
-245
-243
-242
-242
-240
-239
-237
-235
-233
-231
-228
-228
-225
-222
-222
-216
-212
-211
-209
-207
-204
-203
-203
-202
-204
-205
-205
-208
-209
-212
-213
-214
-217
-218
-218
-222
-223
-224
-225
-223
-227
-227
-227
-228
-229
-228
-228
-230
-229
-229
-230
-230
-230
-230
-230
-228
-230
-231
-230
-230
-230
-229
-230
-230
-229
-229
-229
-229
-229
-228
-228
-226
-226
-225
-225
-225
-225
-225
-225
-225
-225
-224
-222
-225
-224
-224
-225
-225
-223
-223
-224
-225
-225
-225
-225
-225
-225
-224
-222
-225
-224
-224
-225
-225
-225
-224
-224
-225
-225
-224
-225
-225
-224
-223
-223
-223
-225
-223
-225
-225
-225
-222
-223
-225
-225
-225
-225
-225
-225
-224
-223
-225
-225
-224
-225
-228
-227
-226
-226
-226
-229
-225
-225
-226
-227
-225
-225
-225
-226
-225
-226
-228
-226
-225
-226
-227
-229
-225
-226
-227
-228
-229
-226
-225
-225
-227
-225
-227
-229
-226
-227
-227
-226
-228
-227
-226
-226
-225
-226
-225
-224
-224
-225
-226
-225
-225
-225
-225
-225
-224
-225
-225
-225
-224
-225
-219
-218
-216
-216
-213
-208
-211
-210
-205
-203
-205
-205
-208
-211
-215
-215
-215
-216
-218
-220
-225
-225
-228
-230
-230
-231
-231
-231
-231
-233
-231
-232
-231
-231
-231
-231
-231
-231
-231
-233
-251
-267
-280
-305
-319
-285
-225
-190
-160
-100
-68
-128
-200
-243
-261
-259
-254
-245
-239
-240
-239
-240
-243
-244
-243
-245
-245
-245
-245
-247
-247
-247
-247
-248
-250
-250
-249
-251
-250
-251
-250
-251
-251
-251
-252
-252
-252
-252
-254
-254
-255
-254
-254
-254
-251
-254
-254
-254
-253
-252
-252
-252
-252
-250
-250
-247
-245
-240
-242
-238
-238
-237
-235
-231
-229
-226
-224
-222
-217
-215
-212
-211
-211
-208
-211
-211
-211
-215
-218
-219
-222
-223
-225
-229
-229
-232
-234
-234
-237
-236
-237
-237
-238
-239
-239
-238
-238
-239
-239
-240
-238
-238
-239
-238
-240
-239
-239
-238
-238
-240
-239
-236
-240
-240
-238
-238
-236
-239
-238
-239
-238
-237
-237
-237
-237
-238
-238
-237
-236
-236
-235
-237
-234
-237
-237
-237
-237
-237
-237
-237
-236
-237
-237
-237
-237
-237
-238
-239
-236
-237
-238
-239
-238
-238
-238
-238
-238
-238
-239
-237
-239
-237
-238
-238
-238
-239
-238
-238
-240
-240
-240
-238
-239
-239
-242
-236
-239
-239
-240
-243
-241
-240
-240
-240
-239
-240
-243
-242
-241
-240
-243
-241
-242
-243
-243
-242
-241
-240
-241
-243
-244
-245
-244
-243
-243
-244
-244
-244
-244
-244
-244
-244
-245
-244
-244
-244
-243
-242
-240
-244
-243
-244
-245
-245
-245
-245
-244
-245
-245
-245
-245
-244
-245
-246
-243
-244
-241
-239
-237
-237
-236
-233
-231
-230
-226
-225
-224
-225
-226
-231
-233
-233
-235
-235
-238
-240
-244
-247
-247
-247
-248
-245
-249
-250
-250
-251
-252
-254
-253
-252
-254
-251
-252
-254
-254
-258
-275
-291
-301
-319
-318
-274
-214
-187
-154
-91
-91
-166
-244
-278
-287
-284
-278
-271
-265
-264
-264
-265
-265
-264
-265
-265
-265
-265
-265
-266
-267
-267
-267
-267
-268
-268
-268
-269
-270
-271
-271
-271
-271
-271
-273
-271
-271
-271
-271
-273
-273
-273
-271
-271
-270
-271
-271
-271
-271
-271
-273
-271
-270
-266
-265
-265
-264
-259
-256
-257
-255
-251
-249
-247
-245
-243
-236
-235
-233
-233
-231
-231
-231
-231
-231
-233
-236
-239
-239
-242
-245
-246
-246
-250
-252
-252
-253
-255
-257
-257
-257
-258
-258
-261
-257
-258
-257
-259
-260
-259
-260
-260
-258
-259
-259
-259
-258
-258
-258
-261
-257
-257
-256
-255
-254
-254
-257
-254
-253
-252
-254
-254
-251
-252
-252
-251
-251
-251
-252
-252
-252
-251
-251
-251
-249
-251
-247
-250
-249
-250
-251
-251
-251
-250
-250
-251
-249
-247
-250
-250
-250
-249
-245
-250
-250
-248
-249
-250
-248
-249
-250
-250
-250
-249
-248
-248
-250
-248
-245
-250
-250
-249
-247
-250
-250
-248
-247
-247
-247
-247
-247
-247
-246
-247
-245
-247
-246
-245
-245
-247
-247
-247
-246
-245
-246
-243
-245
-245
-245
-245
-245
-245
-244
-243
-243
-244
-243
-244
-242
-243
-242
-239
-243
-243
-242
-241
-240
-240
-242
-241
-240
-238
-239
-239
-238
-237
-235
-230
-228
-226
-225
-225
-224
-222
-218
-216
-215
-214
-217
-219
-223
-225
-223
-223
-225
-227
-231
-236
-237
-236
-236
-237
-237
-238
-236
-238
-238
-237
-238
-238
-238
-238
-238
-237
-238
-236
-242
-258
-273
-288
-307
-306
-256
-198
-176
-149
-85
-90
-165
-236
-265
-271
-265
-259
-250
-246
-243
-245
-245
-247
-247
-247
-247
-250
-250
-250
-249
-245
-250
-250
-250
-251
-250
-250
-251
-251
-251
