-154
-157
-158
-159
-155
-153
-152
-156
-157
-159
-158
-157
-154
-152
-150
-153
-156
-155
-156
-154
-153
-152
-153
-153
-153
-154
-158
-158
-157
-155
-153
-156
-157
-159
-161
-161
-161
-157
-159
-157
-160
-163
-165
-163
-165
-164
-162
-162
-160
-164
-163
-165
-168
-166
-163
-160
-163
-164
-169
-171
-170
-171
-167
-165
-162
-162
-166
-167
-170
-171
-166
-165
-162
-163
-165
-167
-169
-167
-165
-164
-162
-159
-162
-166
-169
-168
-167
-166
-163
-165
-162
-164
-166
-168
-168
-165
-163
-162
-161
-165
-166
-166
-167
-164
-163
-160
-162
-164
-166
-168
-169
-168
-166
-164
-165
-164
-165
-166
-168
-167
-167
-165
-164
-162
-163
-164
-166
-169
-165
-160
-157
-155
-154
-154
-155
-154
-153
-148
-143
-136
-138
-139
-140
-144
-144
-144
-142
-141
-146
-154
-157
-166
-171
-168
-168
-164
-167
-169
-173
-172
-179
-177
-173
-170
-174
-169
-174
-175
-173
-174
-172
-170
-168
-160
-144
-139
-88
-53
-23
-14
-32
-78
-139
-204
-258
-277
-260
-231
-204
-190
-181
-171
-167
-164
-165
-164
-160
-159
-158
-159
-158
-159
-159
-156
-156
-151
-152
-151
-154
-156
-155
-153
-149
-146
-145
-145
-144
-144
-149
-147
-141
-141
-137
-138
-139
-137
-140
-139
-136
-130
-124
-123
-122
-123
-122
-122
-118
-113
-107
-104
-104
-100
-99
-98
-91
-86
-81
-76
-76
-73
-71
-69
-68
-64
-62
-55
-58
-58
-63
-68
-77
-79
-82
-84
-92
-101
-108
-117
-124
-132
-137
-139
-144
-146
-152
-154
-163
-163
-165
-164
-159
-162
-164
-169
-172
-174
-173
-171
-169
-166
-168
-169
-169
-170
-169
-167
-164
-163
-165
-166
-167
-168
-170
-168
-164
-160
-161
-161
-165
-168
-171
-170
-168
-165
-164
-167
-168
-172
-172
-177
-173
-171
-171
-171
-172
-173
-176
-180
-181
-178
-171
-173
-175
-181
-181
-182
-180
-180
-177
-175
-177
-180
-181
-182
-183
-181
-180
-176
-179
-182
-181
-186
-184
-182
-180
-176
-177
-178
-181
-182
-187
-185
-180
-177
-179
-178
-181
-186
-189
-187
-183
-179
-179
-177
-181
-182
-181
-184
-185
-179
-173
-178
-177
-180
-182
-183
-183
-182
-175
-176
-179
-183
-182
-184
-184
-181
-179
-178
-178
-181
-180
-184
-186
-184
-179
-176
-176
-177
-180
-180
-184
-182
-178
-176
-177
-179
-181
-181
-182
-182
-179
-175
-170
-169
-170
-171
-168
-169
-165
-162
-157
-154
-151
-151
-150
-157
-157
-157
-154
-153
-158
-167
-171
-175
-177
-175
-176
-178
-177
-180
-181
-188
-189
-187
-184
-178
-178
-180
-184
-185
-187
-185
-181
-179
-177
-170
-157
-130
-100
-64
-30
-6
-7
-39
-94
-113
-226
-264
-267
-245
-215
-200
-191
-186
-182
-179
-178
-176
-174
-173
-175
-176
-177
-179
-176
-173
-169
-165
-170
-170
-170
-171
-172
-168
-164
-161
-164
-162
-164
-164
-164
-162
-160
-155
-152
-151
-151
-153
-157
-154
-151
-149
-143
-141
-141
-141
-141
-139
-135
-128
-124
-121
-120
-120
-118
-114
-111
-104
-97
-92
-89
-87
-92
-89
-85
-83
-78
-73
-73
-74
-76
-79
-81
-83
-89
-91
-98
-105
-117
-124
-136
-140
-144
-146
-150
-154
-159
-166
-170
-173
-171
-173
-174
-175
-174
-176
-181
-179
-179
-174
-177
-174
-177
-178
-180
-183
-181
-179
-175
-178
-175
-178
-179
-180
-180
-176
-173
-171
-174
-173
-175
-177
-178
-176
-174
-170
-172
-173
-175
-176
-179
-180
-180
-177
-176
-180
-184
-184
-186
-187
-184
-184
-182
-183
-184
-186
-187
-188
-187
-184
-182
-182
-184
-186
-188
-187
-189
-190
-185
-183
-185
-189
-189
-192
-191
-188
-185
-181
-182
-186
-186
-187
-190
-187
-185
-185
-183
-185
-187
-188
-189
-189
-189
-183
-186
-186
-188
-191
-192
-191
-191
-189
-184
-182
-187
-188
-193
-194
-192
-187
-185
-188
-187
-187
-188
-190
-187
-186
-183
-182
-183
-185
-185
-188
-187
-186
-181
-182
-186
-184
-185
-188
-190
-186
-182
-182
-182
-184
-184
-184
-189
-186
-185
-179
-177
-175
-176
-176
-177
-174
-174
-167
-160
-154
-153
-155
-161
-162
-164
-166
-161
-164
-173
-182
-185
-188
-188
-185
-183
-183
-182
-186
-189
-192
-193
-193
-191
-187
-186
-189
-190
-190
-191
-188
-186
-184
-181
-174
-155
-132
-103
-71
-58
-68
-102
-155
-215
-273
-306
-305
-278
-249
-228
-215
-205
-202
-188
-184
-181
-180
-180
-177
-175
-176
-176
-179
-178
-176
-175
-172
-171
-171
-170
-174
-174
-171
-167
-164
-162
-167
-166
-167
-167
-169
-160
-156
-159
-155
-155
-156
-158
-151
-149
-145
-144
-141
-144
-139
-137
-132
-123
-120
-114
-110
-108
-107
-106
-103
-96
-90
-84
-85
-85
-87
-83
-82
-78
-78
-75
-76
-78
-81
-87
-94
-97
-101
-108
-110
-118
-127
-131
-145
-149
-154
-160
-164
-166
-169
-175
-177
-178
-180
-178
-178
-175
-180
-185
-185
-190
-187
-183
-182
-180
-180
-181
-182
-184
-185
-184
-182
-178
-179
-179
-182
-183
-183
-181
-181
-178
-174
-175
-181
-180
-181
-182
-181
-180
-178
-178
-181
-181
-184
-186
-183
-180
-182
-178
-181
-182
-184
-188
-187
-184
-186
-182
-185
-187
-190
-194
-193
-188
-187
-184
-186
-187
-190
-193
-195
-193
-190
-189
-187
-188
-190
-194
-193
-193
-194
-191
-189
-188
-188
-188
-190
-192
-192
-186
-185
-186
-187
-188
-190
-192
-191
-191
-187
-184
-185
-191
-192
-192
-193
-187
-185
-184
-186
-192
-193
-192
-194
-192
-192
-187
-187
-189
-191
-192
-194
-191
-191
-189
-187
-188
-190
-192
-192
-193
-192
-189
-190
-189
-193
-191
-193
-194
-192
-189
-187
-184
-186
-187
-192
-194
-191
-188
-184
-180
-180
-180
-179
-179
-177
-175
-173
-170
-166
-160
-162
-160
-164
-167
-169
-167
-168
-169
-171
-181
-183
-184
-186
-188
-188
-189
-192
-196
-196
-198
-196
-192
-190
-193
-198
-198
-200
-201
-199
-196
-192
-189
-188
-190
-172
-153
-116
-74
-38
-17
-18
-55
-113
-184
-249
-281
-273
-245
-220
-206
-199
-193
-189
-185
-186
-183
-182
-183
-184
-184
-185
-184
-181
-177
-174
-175
-178
-179
-180
-178
-175
-171
-172
-169
-168
-170
-169
-168
-167
-164
-161
-159
-163
-162
-162
-163
-158
-157
-156
-152
-150
-149
-150
-147
-144
-139
-134
-130
-126
-125
-124
-121
-119
-113
-106
-100
-98
-94
-93
-92
-89
-84
-82
-77
-76
-76
-78
-80
-82
-85
-87
-93
-98
-101
-112
-120
-128
-135
-140
-145
-148
-153
-159
-163
-170
-176
-177
-174
-175
-174
-178
-182
-183
-186
-184
-183
-181
-182
-180
-182
-184
-186
-189
-186
-181
-181
-180
-182
-183
-183
-183
-181
-181
-178
-176
-179
-180
-183
-186
-183
-182
-179
-177
-179
-180
-182
-188
-186
-183
-183
-183
-182
-185
-185
-188
-189
-191
-187
-187
-186
-185
-190
-192
-192
-191
-190
-188
-187
-187
-191
-190
-193
-194
-194
-191
-186
-189
-190
-191
-192
-194
-194
-191
-188
-189
-190
-195
-198
-196
-196
-195
-191
-186
-192
-192
-196
-199
-199
-196
-191
-190
-192
-194
-194
-197
-200
-200
-197
-192
-188
-190
-192
-196
-196
-193
-192
-191
-191
-191
-194
-193
-195
-197
-193
-190
-188
-190
-190
-192
-194
-194
-193
-193
-190
-186
-191
-192
-192
-194
-192
-191
-189
-186
-186
-192
-190
-194
-194
-193
-189
-187
-186
-188
-188
-191
-193
-192
-191
-188
-184
-183
-185
-185
-184
-182
-179
-174
-171
-167
-166
-163
-162
-161
-159
-158
-162
-163
-165
-165
-175
-181
-183
-184
-182
-183
-186
-190
-191
-196
-196
-195
-192
-189
-188
-191
-192
-195
-194
-191
-189
-186
-184
-186
-188
-178
-163
-135
-101
-69
-49
-52
-79
-124
-181
-241
-279
-287
-269
-245
-223
-209
-199
-190
-180
-178
-178
-179
-178
-179
-179
-180
-177
-177
-170
-170
-173
-177
-177
-177
-179
-173
-168
-168
-169
-169
-169
-169
-167
-165
-162
-158
-157
-157
-157
-156
-158
-156
-155
-152
-149
-146
-143
-142
-141
-139
-134
-128
-122
-119
-116
-114
-113
-110
-105
-99
-93
-86
-84
-83
-81
-81
-75
-70
-69
-65
-66
-68
-73
-74
-77
-79
-84
-86
-96
-105
-114
-122
-132
-135
-139
-143
-150
-155
-159
-169
-169
-172
-170
-170
-169
-168
-172
-177
-180
-181
-176
-172
-173
-174
-176
-178
-178
-181
-176
-175
-173
-172
-172
-173
-173
-175
-175
-176
-176
-171
-172
-172
-173
-176
-178
-173
-173
-171
-174
-174
-177
-179
-180
-178
-174
-176
-174
-177
-176
-181
-181
-182
-181
-178
-177
-178
-178
-180
-182
-184
-181
-178
-176
-177
-179
-181
-182
-186
-184
-182
-178
-178
-180
-180
-186
-186
-186
-186
-179
-179
-179
-181
-183
-185
-184
-184
-183
-179
-177
-179
-179
-180
-184
-182
-179
-175
-173
-178
-179
-181
-182
-181
-178
-175
-173
-175
-181
-183
-182
-185
-182
-182
-178
-180
-182
-182
-184
-187
-185
-181
-180
-177
-178
-178
-182
-183
-185
-182
-179
-179
-178
-181
-182
-182
-183
-180
-181
-177
-176
-176
-178
-180
-176
-175
-171
-167
-163
-163
-164
-167
-162
-156
-150
-145
-147
-151
-155
-158
-160
-164
-163
-166
-166
-169
-172
-177
-180
-183
-182
-178
-177
-177
-180
-181
-185
-187
-186
-185
-181
-179
-182
-182
-182
-186
-184
-182
-169
-148
-120
-88
-55
-26
-19
-29
-66
-118
-182
-242
-258
-273
-247
-224
-206
-198
-190
-184
-180
-179
-179
-180
-179
-177
-173
-171
-171
-170
-173
-173
-172
-170
-165
-165
-165
-164
-170
-172
-169
-165
-162
-158
-159
-160
-163
-160
-161
-157
-156
-149
-150
-148
-149
-150
-149
-149
-147
-139
-138
-135
-135
-134
-133
-127
-123
-118
-110
-109
-104
-103
-100
-97
-92
-84
-82
-79
-76
-77
-75
-79
-74
-70
-69
-69
-72
-72
-85
-93
-101
-106
-107
-113
-123
-133
-141
-150
-156
-158
-160
-160
-164
-169
-173
-175
-179
-178
-178
-174
-181
-179
-179
-181
-183
-182
-180
-176
-174
-177
-178
-177
-180
-179
-177
-175
-172
-172
-173
-174
-175
-176
-177
-175
-175
-172
-170
-170
-176
-179
-182
-179
-176
-174
-177
-178
-180
-184
-184
-181
-180
-178
-181
-181
-185
-186
-187
-188
-186
-181
-182
-181
-180
-184
-188
-187
-185
-183
-180
-183
-183
-187
-188
-188
-186
-182
-179
-180
-181
-183
-185
-186
-186
-183
-182
-181
-182
-181
-183
-186
-188
-186
-183
-179
-185
-184
-187
-185
-189
-187
-182
-180
-179
-179
-180
-186
-186
-187
-185
-181
-182
-184
-183
-185
-188
-186
-185
-181
-178
-179
-179
-182
-184
-186
-183
-180
-181
-180
-181
-181
-182
-185
-183
-183
-179
-184
-184
-182
-184
-184
-184
-182
-180
-176
-178
-180
-181
-182
-185
-182
-177
-171
-168
-168
-169
-169
-168
-169
-160
-154
-149
-149
-151
-152
-156
-161
-159
-157
-157
-162
-164
-169
-175
-178
-181
-180
-179
-179
-186
-186
-186
-187
-186
-187
-181
-181
-180
-181
-186
-192
-192
-188
-185
-180
-178
-173
-161
-142
-112
-75
-35
-15
-19
-49
-107
-172
-233
-269
-270
-247
-221
-204
-201
-190
-187
-180
-178
-178
-177
-174
-175
-177
-178
-180
-175
-173
-168
-167
-171
-173
-174
-176
-171
-166
-164
-163
-164
-165
-166
-165
-166
-163
-159
-154
-154
-153
-154
-158
-156
-153
-148
-147
-142
-142
-143
-144
-142
-137
-133
-126
-123
-120
-118
-117
-116
-112
-106
-99
-94
-92
-90
-90
-90
-86
-82
-77
-72
-70
-71
-77
-79
-83
-81
-85
-90
-94
-100
-103
-116
-125
-128
-135
-138
-141
-149
-157
-163
-170
-171
-171
-170
-170
-172
-175
-174
-178
-181
-183
-180
-177
-178
-176
-174
-175
-180
-180
-177
-173
-171
-172
-173
-176
-178
-178
-175
-175
-175
-177
-173
-176
-176
-179
-178
-177
-174
-174
-171
-172
-178
-180
-179
-180
-177
-177
-178
-179
-180
-182
-184
-183
-180
-178
-181
-181
-181
-182
-184
-186
-183
-184
-185
-187
-186
-190
-188
-189
-185
-182
-181
-182
-182
-185
-186
-187
-185
-185
-184
-182
-187
-188
-187
-189
-192
-188
-186
-182
-184
-183
-185
-186
-190
-186
-184
-182
-182
-184
-185
-187
-185
-187
-185
-183
-183
-182
-183
-184
-189
-187
-185
-181
-177
-179
-179
-184
-186
-185
-184
-177
-178
-178
-179
-185
-186
-187
-185
-182
-181
-178
-179
-182
-184
-184
-181
-177
-176
-176
-177
-177
-179
-177
-176
-171
-170
-171
-166
-165
-163
-160
-158
-151
-148
-149
-150
-156
-160
-163
-168
-172
-174
-178
-179
-176
-176
-183
-185
-184
-182
-184
-182
-181
-182
-186
-189
-188
-185
-183
-182
-185
-183
-182
-185
-187
-183
-176
-158
-135
-108
-97
-64
-57
-73
-106
-153
-203
-255
-289
-290
-268
-245
-225
-211
-197
-184
-175
-176
-179
-183
-179
-177
-173
-169
-170
-171
-173
-172
-173
-171
-169
-166
-165
-167
-168
-170
-169
-169
-164
-163
-159
-158
-159
-162
-161
-158
-158
-155
-153
-152
-151
-151
-153
-151
-146
-140
-137
-134
-134
-132
-131
-127
-124
-116
-111
-106
-102
-100
-100
-98
-93
-90
-83
-79
-78
-78
-76
-78
-79
-77
-75
-71
-74
-76
-81
-90
-93
-99
-104
-106
-115
-121
-130
-137
-145
-149
-150
-154
-164
-164
-165
-169
-169
-171
-173
-170
-168
-167
-170
-174
-175
-179
-177
-173
-171
-169
-170
-171
-174
-176
-175
-171
-170
-167
-169
-170
-171
-173
-176
-172
-169
-168
-165
-168
-171
-173
-175
-174
-171
-174
-172
-173
-178
-177
-177
-179
-178
-177
-174
-175
-176
-180
-184
-186
-180
-178
-177
-174
-181
-182
-186
-187
-184
-184
-185
-183
-180
-182
-186
-186
-183
-182
-180
-179
-180
-183
-184
-182
-183
-183
-181
-179
-179
-180
-183
-184
-185
-184
-185
-179
-179
-180
-183
-182
-183
-184
-181
-178
-178
-177
-177
-180
-183
-185
-182
-179
-177
-178
-181
-180
-187
-183
-181
-180
-177
-176
-178
-181
-182
-184
-184
-182
-179
-178
-180
-182
-183
-188
-185
-183
-179
-178
-178
-179
-181
-179
-181
-180
-178
-176
-174
-176
-178
-180
-180
-180
-177
-173
-171
-167
-167
-167
-168
-167
-165
-161
-155
-150
-151
-150
-154
-158
-159
-160
-158
-162
-164
-168
-175
-178
-176
-177
-179
-178
-178
-179
-184
-187
-190
-187
-182
-181
-182
-183
-185
-188
-190
-187
-183
-177
-177
-175
-166
-148
-121
-85
-49
-15
0
-18
-29
-123
-194
-251
-273
-263
-235
-212
-204
-195
-191
-183
-178
-175
-171
-176
-176
-177
-177
-177
-176
-176
-172
-172
-169
-168
-172
-172
-172
-169
-166
-163
-161
-162
-164
-164
-165
-165
-162
-158
-160
-156
-157
-159
-160
-161
-157
-153
-149
-148
-147
-148
-149
-144
-138
-134
-130
-126
-124
-126
-126
-120
-115
-108
-100
-94
-91
-89
-88
-89
-87
-81
-77
-75
-75
-74
-78
-78
-78
-78
-79
-83
-91
-100
-104
-116
-124
-129
-132
-136
-141
-146
-154
-162
-164
-167
-170
-168
-170
-170
-172
-173
-177
-179
-176
-174
-176
-175
-175
-176
-179
-177
-176
-175
-175
-171
-169
-172
-174
-175
-175
-171
-171
-172
-171
-171
-173
-177
-178
-180
-177
-174
-171
-173
-175
-178
-179
-177
-176
-177
-173
-175
-176
-178
-183
-183
-181
-181
-179
-178
-181
-181
-186
-185
-184
-182
-178
-179
-180
-183
-186
-188
-187
-185
-183
-179
-182
-187
-190
-190
-188
-185
-184
-180
-181
-181
-184
-187
-188
-186
-182
-180
-181
-180
-182
-184
-187
-183
-180
-177
-179
-180
-181
-184
-186
-184
-181
-182
-178
-179
-180
-182
-184
-183
-183
-180
-176
-180
-184
-186
-185
-187
-184
-183
-180
-180
-183
-181
-182
-183
-182
-181
-179
-178
-183
-182
-185
-186
-182
-185
-181
-179
-177
-180
-179
-183
-184
-183
-181
-178
-178
-178
-179
-182
-183
-181
-179
-174
-171
-171
-171
-173
-170
-169
-161
-157
-150
-145
-149
-155
-159
-164
-165
-165
-168
-170
-175
-178
-180
-184
-186
-183
-183
-182
-184
-185
-187
-191
-190
-185
-185
-182
-182
-183
-185
-188
-187
-186
-182
-172
-153
-128
-101
-77
-57
-49
-59
-90
-134
-195
-215
-283
-287
-266
-240
-221
-209
-199
-188
-186
-182
-182
-182
-179
-177
-173
-175
-175
-175
-176
-175
-173
-172
-173
-168
-168
-169
-170
-172
-169
-165
-166
-164
-164
-165
-164
-166
-165
-162
-157
-155
-155
-157
-158
-159
-156
-150
-147
-143
-140
-141
-138
-139
-137
-128
-123
-118
-114
-114
-113
-111
-107
-101
-94
-90
-87
-83
-84
-84
-83
-83
-81
-81
-82
-83
-85
-98
-103
-112
-117
-122
-126
-131
-141
-151
-161
-165
-170
-168
-167
-168
-171
-177
-181
-185
-187
-187
-185
-185
-184
-186
-189
-191
-192
-190
-186
-185
-183
-187
-190
-193
-190
-189
-187
-184
-182
-184
-185
-185
-190
-188
-183
-185
-180
-181
-181
-186
-187
-190
-188
-188
-186
-184
-186
-188
-193
-194
-193
-193
-192
-193
-193
-194
-196
-200
-203
-199
-197
-195
-196
-195
-197
-197
-200
-199
-196
-197
-196
-196
-198
-201
-203
-204
-200
-199
-199
-199
-199
-200
-203
-203
-202
-200
-196
-197
-198
-202
-205
-205
-203
-202
-198
-197
-198
-200
-203
-204
-201
-201
-197
-197
-198
-198
-202
-204
-203
-201
-197
-194
-197
-199
-203
-204
-207
-204
-198
-197
-197
-197
-199
-201
-203
-201
-200
-199
-197
-198
-201
-203
-206
-208
-204
-200
-197
-196
-195
-202
-204
-205
-201
-199
-195
-196
-197
-200
-201
-203
-204
-202
-200
-198
-198
-197
-197
-196
-196
-191
-187
-184
-183
-183
-179
-178
-175
-170
-169
-171
-176
-177
-180
-183
-188
-191
-191
-191
-191
-196
-197
-200
-204
-207
-206
-203
-201
-201
-202
-205
-209
-210
-206
-204
-201
-200
-200
-201
-199
-191
-164
-130
-91
-53
-28
-30
-59
-112
-176
-241
-284
-288
-270
-261
-229
-218
-210
-204
-197
-194
-199
-197
-198
-200
-200
-201
-197
-194
-189
-191
-191
-192
-196
-196
-189
-187
-186
-186
-185
-188
-189
-187
-188
-187
-181
-179
-178
-180
-181
-180
-180
-175
-170
-168
-169
-169
-168
-169
-168
-162
-158
-154
-151
-150
-147
-145
-147
-141
-133
-126
-120
-121
-119
-117
-115
-112
-106
-101
-96
-94
-94
-96
-96
-101
-99
-103
-102
-112
-116
-130
-138
-143
-150
-155
-156
-162
-170
-178
-182
-189
-192
-191
-192
-193
-196
-197
-203
-203
-204
-200
-199
-196
-197
-196
-203
-202
-202
-200
-199
-197
-194
-196
-196
-198
-200
-199
-200
-196
-192
-193
-194
-197
-198
-196
-198
-193
-191
-195
-198
-198
-201
-203
-202
-200
-196
-195
-200
-203
-202
-204
-207
-204
-202
-198
-202
-201
-206
-208
-208
-205
-204
-200
-203
-203
-203
-206
-209
-208
-207
-207
-203
-205
-206
-207
-209
-207
-205
-203
-200
-201
-202
-206
-208
-208
-208
-204
-201
-202
-204
-203
-204
-208
-207
-206
-204
-204
-200
-202
-205
-208
-207
-203
-202
-200
-197
-201
-205
-205
-206
-205
-204
-200
-199
-201
-205
-208
-205
-206
-203
-201
-201
-202
-207
-207
-209
-205
-203
-203
-199
-199
-201
-201
-203
-203
-201
-202
-197
-198
-199
-204
-203
-203
-203
-202
-198
-196
-196
-196
-198
-195
-193
-188
-186
-180
-179
-177
-176
-171
-172
-173
-173
-173
-176
-178
-180
-187
-191
-193
-194
-193
-193
-196
-197
-197
-203
-204
-205
-201
-199
-199
-200
-201
-204
-206
-203
-199
-195
-196
-196
-197
-199
-183
-160
-129
-95
-71
-67
-90
-135
-193
-251
-296
-318
-308
-284
-263
-251
-239
-229
-217
-200
-190
-188
-187
-193
-195
-196
-193
-192
-187
-185
-183
-185
-185
-186
-186
-184
-179
-179
-176
-175
-177
-180
-182
-178
-175
-171
-172
-172
-171
-172
-173
-172
-166
-162
-159
-157
-158
-157
-158
-155
-155
-148
-142
-136
-137
-136
-134
-130
-123
-116
-112
-108
-105
-104
-103
-100
-96
-90
-86
-85
-84
-85
-87
-89
-93
-94
-97
-97
-102
-109
-115
-126
-133
-138
-143
-149
-153
-156
-167
-174
-183
-183
-184
-182
-182
-187
-188
-191
-192
-193
-191
-191
-189
-190
-191
-193
-196
-197
-192
-189
-188
-188
-186
-189
-190
-190
-192
-187
-186
-184
-186
-187
-189
-191
-190
-190
-188
-189
-190
-191
-192
-196
-199
-198
-195
-193
-192
-192
-195
-200
-201
-202
-200
-198
-196
-196
-199
-203
-204
-207
-207
-200
-199
-197
-198
-201
-205
-206
-205
-204
-201
-202
-203
-203
-204
-208
-209
-204
-204
-203
-205
-207
-210
-209
-207
-208
-205
-204
-203
-205
-206
-208
-207
-206
-205
-202
-201
-201
-207
-209
-210
-210
-206
-204
-203
-202
-201
-203
-207
-207
-205
-202
-199
-199
-201
-203
-205
-204
-205
-202
-200
-199
-201
-204
-206
-209
-207
-204
-203
-201
-203
-204
-208
-208
-206
-204
-203
-203
-202
-205
-204
-206
-206
-205
-203
-199
-198
-199
-203
-205
-206
-208
-203
-199
-197
-195
-195
-194
-192
-193
-191
-189
-180
-175
-175
-173
-177
-179
-175
-178
-177
-179
-180
-185
-193
-194
-197
-198
-198
-198
-198
-199
-203
-208
-206
-205
-203
-200
-199
-202
-203
-207
-208
-205
-201
-202
-198
-197
-192
-179
-150
-111
-66
-27
-15
-36
-86
-156
-230
-283
-295
-277
-247
-226
-216
-211
-208
-203
-199
-195
-196
-195
-194
-194
-194
-198
-196
-194
-192
-188
-188
-189
-194
-196
-196
-188
-184
-181
-179
-185
-185
-186
-185
-185
-181
-176
-174
-173
-179
-179
-176
-175
-173
-170
-163
-165
-161
-161
-161
-160
-155
-150
-143
-139
-138
-135
-133
-130
-126
-121
-114
-109
-110
-104
-105
-104
-100
-95
-93
-91
-92
-92
-94
-95
-102
-104
-107
-111
-119
-125
-132
-142
-150
-156
-161
-162
-169
-172
-180
-184
-191
-193
-195
-192
-193
-193
-197
-197
-202
-201
-199
-199
-195
-195
-196
-198
-204
-202
-202
-197
-195
-193
-191
-196
-198
-199
-201
-201
-196
-191
-192
-194
-196
-198
-198
-195
-194
-190
-192
-195
-197
-197
-199
-200
-197
-198
-196
-197
-201
-205
-206
-206
-204
-201
-196
-199
-200
-205
-204
-204
-204
-204
-201
-199
-200
-203
-206
-207
-206
-205
-204
-203
-204
-206
-209
-207
-207
-204
-203
-200
-201
-206
-206
-208
-206
-207
-201
-200
-200
-201
-203
-210
-210
-209
-205
-200
-200
-200
-203
-205
-207
-205
-203
-200
-202
-201
-201
-201
-204
-206
-204
-202
-198
-202
-199
-203
-204
-203
-201
-202
-197
-196
-195
-201
-200
-202
-201
-197
-196
-192
-195
-199
-203
-204
-202
-199
-197
-195
-195
-195
-199
-201
-199
-199
-197
-194
-196
-195
-196
-199
-198
-198
-194
-193
-192
-190
-191
-194
-195
-196
-189
-187
-181
-178
-178
-178
-178
-176
-170
-165
-159
-161
-163
-166
-169
-173
-172
-172
-174
-179
-181
-184
-188
-191
-194
-192
-192
-192
-191
-193
-193
-198
-200
-198
-196
-195
-190
-191
-193
-196
-197
-195
-196
-186
-170
-147
-115
-85
-62
-53
-71
-110
-170
-227
-277
-297
-283
-258
-234
-216
-206
-195
-194
-184
-183
-187
-187
-187
-183
-180
-177
-179
-180
-182
-179
-178
-175
-172
-170
-170
-172
-174
-173
-168
-168
-163
-164
-163
-166
-167
-168
-165
-162
-156
-154
-154
-155
-156
-157
-152
-151
-146
-140
-137
-136
-135
-135
-131
-128
-120
-112
-107
-106
-102
-101
-98
-93
-88
-81
-77
-76
-75
-73
-75
-74
-72
-69
-70
-69
-73
-80
-88
-90
-93
-97
-102
-108
-111
-125
-135
-145
-152
-155
-159
-162
-165
-167
-173
-179
-178
-176
-177
-177
-174
-179
-181
-180
-182
-179
-178
-177
-177
-178
-182
-181
-183
-182
-178
-179
-176
-175
-177
-178
-180
-178
-175
-175
-173
-172
-173
-176
-179
-179
-180
-179
-178
-174
-174
-179
-181
-183
-181
-180
-180
-181
-179
-181
-184
-185
-184
-185
-183
-183
-185
-183
-185
-187
-188
-186
-185
-181
-180
-181
-181
-186
-188
-185
-184
-182
-182
-182
-182
-187
-188
-190
-189
-185
-184
-183
-183
-185
-191
-189
-189
-187
-186
-185
-188
-186
-190
-189
-189
-186
-185
-184
-184
-188
-188
-193
-190
-190
-188
-184
-181
-183
-187
-191
-193
-190
-188
-185
-184
-182
-187
-189
-190
-190
-189
-186
-187
-185
-186
-187
-188
-189
-190
-185
-184
-184
-181
-186
-186
-188
-186
-188
-183
-182
-181
-182
-180
-180
-177
-173
-168
-162
-158
-155
-156
-156
-158
-159
-163
-162
-165
-169
-172
-178
-182
-182
-184
-182
-183
-183
-189
-195
-198
-196
-192
-189
-188
-187
-189
-194
-195
-196
-192
-189
-187
-187
-184
-173
-153
-128
-90
-51
-22
-20
-25
-97
-163
-235
-284
-292
-269
-238
-214
-200
-195
-193
-189
-186
-183
-183
-182
-182
-183
-182
-183
-183
-180
-176
-177
-178
-176
-176
-178
-178
-174
-172
-167
-166
-167
-168
-169
-167
-168
-164
-161
-160
-157
-158
-159
-159
-161
-157
-152
-148
-148
-147
-148
-146
-146
-138
-131
-124
-122
-121
-118
-114
-114
-109
-101
-93
-88
-86
-86
-84
-83
-83
-81
-77
-74
-73
-82
-88
-97
-103
-110
-113
-119
-127
-136
-145
-156
-163
-166
-171
-170
-172
-177
-179
-183
-187
-189
-188
-184
-184
-183
-188
-188
-191
-194
-192
-187
-185
-186
-185
-187
-193
-191
-191
-190
-184
-185
-184
-185
-188
-190
-190
-189
-187
-185
-186
-187
-188
-187
-190
-188
-186
-183
-182
-187
-190
-196
-196
-196
-192
-192
-193
-193
-195
-200
-203
-201
-197
-194
-194
-195
-198
-199
-202
-202
-199
-197
-194
-196
-197
-200
-202
-204
-200
-199
-200
-200
-199
-199
-200
-201
-204
-200
-199
-198
-200
-200
-202
-202
-204
-201
-198
-197
-196
-199
-200
-202
-204
-200
-200
-198
-197
-200
-200
-198
-201
-203
-202
-199
-197
-198
-199
-205
-205
-207
-207
-200
-196
-195
-196
-198
-201
-206
-204
-202
-199
-195
-193
-196
-197
-199
-200
-200
-195
-197
-199
-195
-198
-199
-202
-200
-199
-194
-196
-196
-197
-199
-200
-199
-197
-196
-196
-198
-198
-201
-201
-199
-192
-188
-183
-182
-183
-187
-184
-181
-173
-167
-165
-164
-166
-172
-176
-179
-178
-178
-179
-184
-187
-192
-195
-200
-202
-198
-197
-195
-195
-200
-202
-206
-205
-205
-202
-198
-199
-200
-202
-202
-201
-202
-201
-191
-172
-148
-114
-79
-48
-35
-41
-69
-121
-140
-244
-286
-292
-272
-248
-227
-214
-207
-201
-196
-195
-197
-193
-191
-190
-185
-185
-188
-189
-193
-188
-186
-180
-179
-180
-183
-184
-184
-185
-183
-179
-176
-176
-176
-174
-177
-180
-175
-169
-167
-164
-168
-169
-167
-168
-167
-161
-159
-153
-155
-154
-152
-147
-145
-141
-137
-129
-126
-125
-123
-117
-116
-110
-105
-98
-95
-93
-94
-93
-91
-91
-85
-86
-80
-80
-83
-90
-96
-102
-106
-110
-116
-124
-131
-138
-147
-154
-159
-162
-166
-172
-177
-181
-185
-187
-189
-187
-186
-186
-188
-186
-188
-192
-193
-191
-188
-183
-186
-186
-189
-188
-190
-188
-183
-180
-181
-183
-183
-183
-186
-187
-185
-185
-183
-181
-184
-185
-187
-191
-189
-187
-181
-183
-183
-187
-190
-191
-193
-190
-186
-187
-187
-194
-192
-194
-194
-194
-193
-190
-191
-191
-191
-195
-197
-197
-196
-190
-192
-193
-200
-199
-199
-198
-197
-193
-192
-196
-198
-195
-196
-198
-193
-192
-192
-193
-191
-196
-194
-196
-193
-192
-192
-192
-192
-196
-195
-198
-196
-192
-188
-193
-193
-192
-197
-197
-192
-193
-191
-190
-190
-192
-195
-198
-200
-193
-193
-191
-192
-193
-194
-195
-196
-194
-190
-188
-185
-186
-191
-191
-193
-195
-193
-192
-189
-189
-191
-192
-194
-195
-192
-190
-187
-186
-184
-185
-183
-185
-180
-184
-176
-175
-174
-170
-167
-166
-164
-161
-160
-162
-164
-167
-169
-171
-178
-185
-183
-187
-185
-188
-192
-193
-196
-198
-198
-194
-194
-193
-193
-197
-198
-197
-196
-192
-189
-191
-191
-193
-187
-173
-146
-116
-81
-56
-55
-85
-129
-185
-243
-286
-300
-285
-257
-238
-227
-216
-210
-197
-189
-184
-184
-186
-190
-193
-189
-185
-183
-177
-177
-176
-178
-178
-180
-177
-173
-169
-171
-168
-171
-172
-175
-172
-172
-168
-167
-165
-164
-164
-164
-164
-161
-157
-154
-151
-149
-150
-151
-152
-147
-144
-139
-135
-129
-130
-127
-126
-120
-112
-108
-102
-100
-98
-99
-98
-94
-87
-84
-79
-81
-78
-83
-85
-86
-86
-86
-86
-89
-94
-104
-113
-120
-128
-133
-133
-140
-143
-154
-162
-171
-174
-175
-176
-175
-181
-182
-182
-189
-191
-188
-187
-188
-185
-185
-184
-191
-193
-192
-188
-190
-186
-187
-186
-189
-192
-193
-188
-188
-182
-182
-185
-188
-190
-190
-189
-185
-188
-184
-185
-187
-192
-195
-195
-191
-189
-188
-189
-190
-196
-198
-199
-197
-192
-188
-194
-195
-198
-196
-198
-197
-197
-197
-196
-194
-196
-198
-201
-200
-200
-196
-193
-194
-197
-197
-200
-202
-199
-199
-197
-195
-194
-195
-196
-199
-198
-198
-195
-192
-193
-197
-198
-197
-199
-199
-194
-193
-192
-195
-198
-198
-198
-200
-197
-198
-195
-195
-198
-200
-202
-199
-198
-196
-192
-195
-197
-198
-199
-201
-199
-198
-194
-193
-197
-197
-201
-201
-201
-200
-195
-194
-196
-197
-198
-198
-198
-198
-198
-193
-192
-195
-196
-198
-198
-197
-197
-193
-191
-193
-197
-197
-194
-189
-184
-181
-178
-178
-178
-178
-175
-170
-166
-163
-162
-165
-170
-174
-176
-177
-179
-180
-182
-183
-185
-188
-194
-196
-196
-196
-198
-197
-196
-198
-201
-200
-202
-200
-199
-198
-196
-195
-196
-198
-199
-193
-187
-169
-161
-110
-76
-44
-22
-20
-50
-104
-174
-245
-283
-284
-260
-234
-217
-206
-195
-192
-190
-191
-192
-193
-190
-188
-185
-183
-186
-185
-187
-187
-186
-183
-179
-178
-176
-180
-178
-180
-180
-179
-176
-178
-175
-172
-173
-175
-176
-175
-170
-169
-168
-167
-168
-172
-168
-161
-158
-153
-151
-151
-150
-150
-149
-146
-143
-134
-133
-128
-126
-124
-123
-119
-114
-108
-102
-100
-94
-94
-94
-91
-89
-86
-79
-78
-79
-81
-83
-88
-90
-93
-96
-97
-108
-121
-129
-140
-147
-149
-152
-157
-158
-168
-173
-178
-186
-185
-185
-186
-186
-189
-190
-195
-194
-196
-194
-192
-190
-188
-190
-192
-193
-191
-191
-190
-188
-188
-186
-191
-191
-193
-191
-188
-186
-186
-187
-191
-189
-193
-193
-186
-189
-189
-188
-189
-193
-195
-195
-196
-192
-192
-193
-195
-195
-199
-199
-198
-196
-195
-192
-193
-196
-201
-202
-202
-199
-195
-195
-197
-199
-202
-202
-205
-204
-200
-199
-198
-201
-200
-203
-203
-202
-201
-199
-197
-198
-200
-201
-205
-203
-198
-197
-197
-198
-199
-201
-204
-203
-199
-195
-195
-193
-194
-198
-202
-205
-205
-199
-195
-194
-194
-196
-199
-201
-199
-196
-196
-195
-195
-196
-198
-200
-200
-199
-196
-193
-191
-190
-193
-196
-199
-198
-196
-192
-191
-192
-193
-194
-195
-198
-194
-190
-189
-188
-191
-192
-194
-194
-192
-187
-185
-183
-180
-181
-183
-180
-178
-169
-162
-158
-157
-162
-167
-171
-174
-172
-172
-177
-179
-184
-190
-193
-194
-188
-189
-190
-190
-193
-195
-197
-200
-196
-193
-191
-191
-192
-195
-195
-197
-193
-194
-184
-169
-146
-120
-91
-66
-57
-75
-113
-167
-185
-279
-305
-299
-274
-250
-234
-220
-204
-192
-185
-183
-183
-183
-184
-181
-178
-178
-176
-175
-176
-177
-173
-170
-168
-169
-167
-168
-169
-171
-171
-166
-164
-161
-160
-163
-164
-167
-164
-159
-158
-153
-149
-150
-151
-151
-151
-146
-144
-138
-137
-134
-133
-133
-131
-125
-118
-109
-103
-102
-98
-94
-91
-88
-81
-76
-71
-69
-67
-69
-69
-68
-66
-63
-65
-67
-73
-77
-86
-94
-100
-104
-107
-115
-121
-130
-139
-146
-151
-157
-156
-158
-160
-163
-170
-172
-173
-173
-171
-167
-167
-171
-173
-174
-175
-176
-174
-174
-168
-170
-174
-177
-180
-176
-177
-175
-170
-170
-170
-173
-173
-174
-173
-168
-169
-169
-172
-175
-181
-180
-180
-176
-174
-173
-175
-179
-183
-184
-185
-183
-180
-176
-176
-181
-182
-187
-187
-182
-180
-178
-178
-179
-181
-185
-187
-185
-184
-180
-182
-183
-183
-185
-188
-188
-187
-182
-178
-178
-180
-181
-185
-185
-184
-183
-182
-181
-180
-182
-184
-187
-191
-184
-180
-181
-183
-180
-181
-186
-183
-180
-181
-180
-180
-182
-185
-186
-186
-185
-180
-178
-177
-177
-179
-183
-184
-186
-181
-184
-180
-180
-182
-182
-186
-184
-185
-183
-181
-182
-182
-182
-184
-186
-185
-181
-179
-178
-180
-181
-187
-187
-184
-182
-176
-173
-176
-170
-173
-175
-172
-169
-162
-154
-151
-151
-153
-154
-157
-160
-161
-160
-158
-162
-168
-175
-179
-182
-180
-179
-178
-181
-182
-185
-189
-191
-190
-186
-183
-184
-183
-185
-188
-191
-186
-184
-183
-184
-182
-173
-157
-127
-93
-52
-14
7
0
-41
-99
-167
-234
-275
-276
-255
-229
-211
-201
-190
-187
-179
-175
-172
-170
-174
-175
-178
-176
-173
-172
-167
-167
-167
-167
-171
-171
-167
-167
-162
-158
-159
-161
-163
-165
-164
-159
-159
-154
-156
-153
-152
-153
-154
-152
-148
-146
-143
-142
-141
-143
-144
-140
-137
-131
-125
-122
-120
-119
-117
-115
-111
-103
-98
-96
-88
-86
-85
-84
-80
-79
-71
-68
-66
-65
-67
-66
-67
-71
-70
-74
-77
-88
-93
-103
-111
-118
-125
-132
-133
-143
-152
-157
-162
-168
-166
-169
-170
-171
-173
-180
-178
-180
-182
-178
-176
-177
-177
-180
-180
-180
-182
-176
-177
-175
-174
-177
-180
-180
-179
-173
-170
-170
-172
-171
-173
-177
-179
-179
-175
-174
-172
-173
-176
-176
-183
-180
-181
-177
-176
-178
-181
-185
-185
-184
-183
-181
-180
-182
-183
-187
-187
-189
-187
-185
-180
-183
-185
-188
-188
-189
-190
-184
-185
-184
-181
-183
-185
-188
-189
-186
-184
-184
-186
-183
-186
-189
-190
-184
-185
-183
-183
-183
-184
-188
-189
-190
-187
-182
-181
-185
-186
-187
-187
-188
-185
-182
-178
-179
-181
-183
-185
-187
-183
-181
-180
-178
-184
-187
-187
-192
-190
-187
-186
-186
-181
-183
-184
-185
-187
-184
-182
-180
-181
-187
-187
-185
-189
-187
-185
-181
-181
-185
-185
-186
-187
-186
-184
-182
-179
-180
-184
-183
-186
-187
-182
-178
-173
-171
-173
-171
-171
-172
-168
-159
-151
-149
-151
-152
-159
-164
-163
-159
-161
-162
-170
-175
-180
-184
-184
-184
-185
-183
-185
-186
-188
-188
-193
-191
-188
-185
-185
-184
-186
-189
-188
-187
-185
-178
-173
-142
-114
-79
-48
-27
-31
-63
-117
-184
-245
-280
-282
-256
-229
-210
-196
-187
-181
-180
-180
-182
-184
-181
-179
-177
-176
-176
-175
-175
-177
-173
-169
-170
-170
-169
-174
-173
-171
-169
-167
-165
-163
-164
-163
-162
-163
-163
-157
-153
-150
-154
-154
-153
-154
-152
-147
-144
-143
-139
-135
-135
-129
-128
-122
-114
-106
-106
-103
-99
-96
-93
-88
-81
-77
-77
-75
-69
-71
-72
-71
-69
-67
-63
-64
-72
-79
-87
-94
-97
-103
-107
-118
-127
-135
-141
-151
-156
-161
-161
-162
-164
-168
-173
-175
-178
-177
-173
-171
-172
-173
-176
-179
-183
-178
-174
-168
-171
-175
-179
-178
-175
-175
-171
-170
-169
-170
-170
-176
-180
-175
-176
-172
-171
-173
-172
-175
-179
-180
-178
-178
-173
-177
-179
-180
-178
-182
-183
-179
-180
-179
-180
-183
-187
-190
-188
-186
-181
-179
-180
-183
-185
-187
-190
-187
-186
-185
-183
-183
-185
-185
-190
-189
-188
-184
-182
-184
-186
-187
-189
-189
-187
-183
-182
-184
-185
-185
-188
-189
-188
-187
-184
-184
-186
-188
-191
-192
-191
-191
-184
-181
-184
-186
-191
-192
-194
-190
-185
-185
-186
-186
-189
-190
-193
-189
-189
-187
-183
-187
-188
-189
-192
-191
-191
-186
-185
-184
-188
-192
-192
-191
-190
-189
-184
-184
-190
-188
-189
-192
-188
-187
-182
-181
-179
-177
-177
-178
-177
-172
-167
-164
-160
-159
-160
-167
-168
-168
-168
-169
-170
-179
-186
-190
-192
-190
-188
-184
-189
-191
-192
-197
-200
-199
-196
-193
-191
-193
-196
-197
-198
-199
-195
-192
-188
-183
-166
-142
-111
-78
-49
-39
-56
-104
-169
-238
-292
-312
-295
-262
-236
-229
-205
-198
-195
-191
-191
-191
-188
-184
-183
-185
-186
-188
-189
-187
-183
-181
-179
-179
-180
-187
-185
-182
-180
-173
-171
-171
-173
-172
-173
-174
-171
-168
-163
-163
-164
-167
-167
-164
-160
-157
-152
-148
-148
-148
-146
-142
-138
-134
-129
-127
-119
-116
-113
-113
-107
-103
-101
-94
-93
-87
-92
-87
-88
-88
-84
-82
-81
-83
-89
-98
-103
-109
-113
-120
-122
-134
-143
-151
-160
-168
-166
-171
-171
-174
-180
-183
-188
-191
-192
-189
-188
-190
-190
-194
-198
-198
-197
-198
-195
-195
-194
-194
-193
-196
-198
-197
-194
-190
-189
-190
-193
-193
-193
-194
-192
-194
-189
-192
-193
-195
-196
-195
-192
-194
-196
-194
-196
-198
-202
-205
-202
-201
-200
-200
-205
-206
-208
-209
-209
-205
-203
-200
-202
-205
-208
-210
-209
-206
-206
-204
-205
-207
-210
-213
-213
-210
-209
-205
-204
-206
-208
-209
-210
-207
-206
-205
-203
-206
-207
-210
-211
-209
-207
-207
-206
-205
-207
-209
-211
-211
-211
-210
-208
-207
-210
-210
-210
-210
-208
-208
-211
-206
-207
-209
-212
-212
-216
-213
-213
-211
-209
-210
-213
-213
-215
-212
-207
-207
-208
-213
-209
-212
-212
-209
-210
-209
-209
-211
-210
-211
-213
-212
-213
-211
-209
-208
-208
-208
-211
-217
-214
-208
-206
-204
-205
-206
-208
-203
-199
-195
-189
-187
-186
-185
-183
-181
-178
-179
-182
-185
-184
-187
-192
-198
-201
-204
-202
-204
-203
-206
-212
-217
-216
-218
-216
-214
-212
-210
-212
-216
-215
-217
-214
-209
-208
-203
-203
-199
-182
-154
-116
-77
-38
-20
-27
-61
-120
-189
-257
-294
-304
-278
-252
-236
-226
-218
-208
-200
-199
-199
-203
-204
-208
-208
-203
-201
-199
-195
-194
-195
-197
-200
-198
-197
-193
-189
-187
-189
-188
-191
-191
-189
-192
-186
-185
-182
-184
-182
-182
-182
-178
-173
-171
-168
-169
-167
-165
-165
-162
-159
-154
-147
-141
-138
-137
-135
-129
-122
-117
-115
-110
-110
-108
-107
-105
-102
-100
-95
-94
-97
-96
-103
-108
-108
-112
-116
-123
-131
-139
-148
-156
-165
-168
-171
-171
-181
-188
-195
-201
-204
-201
-202
-200
-199
-203
-204
-206
-208
-207
-207
-202
-201
-201
-204
-207
-208
-206
-203
-200
-199
-200
-201
-203
-205
-203
-203
-202
-199
-199
-202
-203
-205
-205
-205
-203
-200
-205
-208
-209
-209
-213
-212
-211
-206
-205
-207
-209
-212
-214
-216
-216
-212
-210
-210
-212
-215
-214
-218
-217
-215
-217
-214
-213
-214
-215
-216
-217
-216
-213
-210
-211
-211
-214
-215
-217
-218
-215
-212
-211
-215
-217
-219
-220
-219
-214
-211
-207
-210
-212
-215
-219
-220
-216
-213
-211
-210
-211
-213
-215
-217
-216
-213
-210
-210
-210
-211
-214
-217
-213
-213
-210
-207
-208
-214
-212
-218
-214
-214
-209
-209
-207
-209
-211
-212
-214
-213
-212
-208
-209
-209
-210
-214
-211
-211
-210
-207
-206
-207
-210
-209
-208
-206
-198
-195
-194
-191
-193
-194
-189
-188
-184
-175
-174
-174
-178
-180
-183
-187
-191
-195
-200
-200
-199
-203
-208
-208
-208
-208
-210
-208
-210
-210
-216
-217
-216
-214
-213
-208
-209
-209
-212
-214
-214
-211
-198
-176
-149
-118
-89
-73
-79
-113
-162
-223
-242
-323
-333
-312
-284
-265
-251
-237
-221
-209
-201
-201
-204
-206
-205
-201
-196
-193
-192
-194
-193
-195
-197
-195
-192
-189
-188
-190
-192
-190
-191
-188
-186
-181
-180
-176
-179
-183
-183
-183
-178
-171
-172
-169
-167
-168
-167
-167
-161
-158
-156
-150
-150
-148
-146
-140
-136
-130
-123
-120
-118
-113
-112
-110
-107
-101
-96
-94
-91
-90
-91
-92
-91
-90
-87
-84
-85
-90
-97
-105
-113
-117
-121
-126
-132
-141
-153
-160
-167
-172
-176
-178
-179
-181
-187
-190
-195
-199
-197
-196
-195
-195
-193
-197
-198
-201
-201
-201
-197
-194
-195
-198
-198
-203
-200
-198
-197
-195
-193
-193
-194
-201
-201
-198
-193
-194
-192
-195
-196
-199
-201
-198
-196
-195
-195
-194
-197
-201
-201
-201
-202
-199
-197
-200
-203
-206
-209
-213
-208
-208
-207
-206
-205
-210
-215
-212
-209
-209
-207
-208
-208
-210
-212
-214
-213
-210
-207
-208
-210
-209
-213
-214
-214
-213
-210
-209
-206
-209
-211
-213
-217
-210
-208
-208
-208
-206
-209
-209
-213
-211
-211
-207
-205
-206
-207
-213
-211
-214
-212
-210
-210
-207
-206
-207
-212
-212
-211
-209
-208
-206
-210
-210
-214
-217
-215
-208
-206
-208
-209
-207
-208
-210
-214
-209
-207
-206
-205
-205
-207
-211
-212
-210
-210
-206
-206
-204
-205
-207
-209
-206
-204
-198
-195
-190
-191
-192
-193
-192
-189
-182
-179
-174
-174
-181
-185
-188
-187
-185
-188
-189
-193
-200
-203
-210
-215
-211
-207
-207
-211
-216
-218
-221
-220
-217
-214
-211
-215
-215
-214
-219
-218
-214
-211
-210
-205
-194
-173
-138
-101
-59
-29
-16
-50
-108
-186
-266
-311
-311
-285
-255
-247
-224
-217
-212
-211
-212
-211
-208
-206
-206
-206
-204
-211
-210
-208
-205
-201
-200
-201
-202
-201
-202
-205
-200
-194
-192
-194
-194
-193
-195
-197
-195
-190
-189
-187
-186
-184
-186
-183
-184
-180
-175
-173
-169
-168
-165
-167
-165
-160
-155
-153
-147
-147
-146
-142
-137
-133
-125
-120
-116
-112
-109
-109
-109
-107
-103
-98
-95
-95
-96
-100
-106
-108
-113
-117
-119
-128
-136
-145
-156
-164
-173
-181
-183
-188
-192
-198
-204
-206
-208
-209
-208
-209
-211
-213
-216
-217
-220
-222
-217
-216
-217
-213
-213
-214
-217
-213
-211
-209
-209
-209
-210
-212
-215
-216
-213
-211
-209
-207
-210
-210
-211
-213
-212
-208
-209
-211
-212
-219
-222
-222
-219
-218
-215
-216
-218
-218
-222
-224
-224
-222
-220
-219
-222
-223
-225
-224
-225
-220
-219
-219
-218
-220
-223
-226
-226
-222
-220
-217
-217
-217
-221
-222
-223
-223
-223
-221
-219
-220
-225
-226
-229
-229
-226
-223
-224
-221
-224
-226
-223
-227
-227
-224
-220
-218
-219
-223
-225
-227
-226
-222
-224
-218
-221
-223
-229
-229
-230
-227
-224
-222
-223
-223
-221
-224
-226
-222
-219
-218
-217
-220
-221
-222
-223
-227
-224
-219
-219
-220
-221
-222
-226
-225
-221
-216
-216
-214
-216
-219
-221
-225
-223
-219
-215
-214
-215
-217
-217
-214
-209
-206
-202
-196
-197
-194
-193
-189
-191
-191
-193
-194
-192
-197
-202
-208
-213
-216
-215
-213
-211
-215
-213
-219
-221
-227
-226
-223
-223
-223
-221
-224
-228
-227
-228
-224
-222
-219
-221
-218
-214
-199
-173
-138
-98
-68
-65
-83
-127
-184
-245
-294
-318
-305
-282
-258
-245
-233
-224
-212
-211
-209
-211
-209
-211
-213
-217
-208
-206
-202
-200
-200
-201
-199
-202
-201
-200
-196
-192
-192
-195
-196
-196
-196
-191
-190
-189
-188
-187
-188
-187
-183
-182
-178
-175
-172
-172
-171
-171
-172
-169
-163
-155
-151
-148
-146
-145
-137
-134
-132
-126
-123
-112
-109
-107
-104
-102
-99
-93
-88
-89
-86
-88
-93
-91
-94
-93
-92
-94
-101
-111
-117
-129
-136
-139
-146
-148
-157
-163
-172
-180
-186
-188
-189
-191
-190
-196
-197
-200
-204
-205
-201
-199
-202
-201
-201
-202
-205
-206
-204
-201
-199
-197
-200
-204
-206
-206
-203
-200
-196
-194
-196
-199
-204
-205
-203
-201
-199
-199
-199
-202
-207
-210
-207
-202
-200
-199
-203
-205
-206
-207
-211
-208
-207
-203
-201
-203
-207
-209
-213
-211
-209
-207
-206
-207
-208
-210
-210
-212
-211
-210
-208
-208
-207
-211
-215
-217
-216
-216
-208
-207
-209
-209
-213
-216
-215
-215
-211
-209
-209
-210
-212
-213
-217
-211
-208
-208
-206
-208
-211
-211
-215
-215
-213
-208
-206
-208
-208
-210
-210
-211
-209
-207
-208
-206
-208
-210
-211
-212
-210
-209
-209
-208
-209
-211
-212
-210
-211
-209
-209
-207
-207
-210
-212
-211
-209
-208
-207
-205
-205
-206
-207
-209
-209
-205
-200
-200
-192
-192
-195
-196
-198
-193
-183
-177
-174
-176
-178
-181
-185
-184
-184
-183
-187
-193
-198
-203
-208
-209
-207
-208
-208
-205
-208
-211
-212
-213
-212
-208
-207
-208
-213
-212
-212
-217
-213
-212
-210
-202
-191
-171
-142
-109
-77
-47
-34
-33
-79
-136
-200
-266
-310
-318
-301
-274
-250
-234
-227
-220
-212
-206
-202
-199
-198
-199
-200
-202
-200
-200
-196
-194
-193
-190
-190
-192
-193
-195
-195
-193
-187
-184
-183
-184
-188
-188
-187
-187
-179
-180
-177
-176
-178
-180
-179
-176
-172
-173
-165
-163
-165
-164
-165
-161
-158
-150
-147
-142
-140
-137
-134
-130
-123
-115
-111
-108
-102
-102
-99
-96
-94
-89
-87
-84
-86
-86
-88
-91
-94
-97
-99
-103
-112
-122
-128
-138
-145
-150
-156
-158
-163
-173
-180
-186
-191
-192
-194
-194
-195
-197
-203
-207
-207
-207
-202
-201
-200
-203
-205
-205
-209
-205
-204
-202
-200
-200
-203
-203
-204
-203
-201
-199
-201
-195
-193
-198
-200
-201
-199
-198
-197
-196
-195
-199
-199
-206
-205
-204
-204
-199
-199
-202
-207
-210
-211
-209
-206
-206
-209
-207
-209
-213
-213
-214
-213
-211
-210
-211
-210
-213
-217
-216
-215
-215
-210
-209
-212
-215
-217
-216
-217
-215
-215
-212
-214
-216
-217
-216
-218
-214
-209
-209
-209
-209
-212
-216
-216
-214
-212
-209
-210
-212
-215
-217
-216
-213
-212
-211
-210
-208
-213
-214
-214
-211
-211
-210
-205
-204
-210
-212
-212
-211
-211
-210
-208
-207
-208
-211
-214
-215
-215
-212
-211
-211
-211
-208
-211
-213
-216
-215
-211
-210
-208
-208
-211
-212
-210
-211
-206
-206
-205
-205
-208
-211
-211
-208
-202
-202
-193
-194
-193
-196
-195
-192
-186
-181
-175
-177
-181
-180
-188
-188
-187
-190
-189
-192
-195
-203
-208
-211
-210
-208
-208
-205
-210
-213
-218
-217
-219
-218
-215
-212
-212
-210
-211
-214
-213
-211
-208
-200
-186
-162
-132
-96
-56
-27
-18
-21
-89
-155
-227
-285
-306
-291
-261
-238
-226
-215
-208
-205
-206
-204
-205
-203
-202
-200
-198
-198
-202
-201
-199
-198
-197
-192
-194
-196
-193
-194
-194
-192
-188
-186
-187
-185
-182
-186
-187
-184
-179
-178
-176
-175
-179
-180
-181
-178
-174
-173
-166
-160
-161
-162
-162
-157
-153
-148
-142
-140
-138
-134
-136
-131
-126
-120
-113
-108
-106
-104
-106
-106
-100
-98
-96
-89
-90
-95
-103
-105
-110
-115
-121
-125
-132
-141
-152
-161
-167
-171
-175
-177
-180
-184
-189
-197
-201
-203
-201
-199
-196
-198
-201
-205
-206
-204
-204
-201
-200
-200
-200
-202
-203
-203
-200
-199
-199
-199
-195
-199
-198
-201
-202
-198
-197
-192
-195
-196
-198
-202
-203
-200
-199
-198
-197
-198
-201
-205
-205
-204
-202
-201
-200
-198
-202
-208
-209
-207
-207
-205
-205
-205
-204
-206
-209
-208
-207
-209
-205
-203
-203
-208
-208
-210
-205
-201
-200
-201
-203
-207
-209
-211
-210
-206
-204
-201
-201
-204
-205
-206
-205
-203
-202
-199
-198
-198
-203
-206
-206
-203
-199
-201
-200
-198
-203
-205
-208
-207
-202
-201
-195
-196
-198
-200
-205
-204
-202
-200
-197
-196
-199
-201
-203
-204
-200
-202
-198
-197
-197
-200
-199
-200
-196
-197
-196
-191
-191
-193
-196
-198
-197
-197
-193
-191
-193
-192
-195
-200
-198
-196
-190
-187
-183
-181
-183
-184
-181
-177
-169
-166
-162
-160
-162
-171
-173
-174
-173
-177
-181
-182
-186
-189
-194
-194
-195
-195
-194
-194
-197
-199
-200
-204
-202
-199
-199
-194
-195
-194
-195
-196
-192
-177
-154
-119
-88
-62
-58
-84
-134
-199
-263
-306
-320
-299
-271
-249
-238
-226
-213
-208
-187
-183
-184
-189
-188
-189
-184
-182
-176
-175
-175
-179
-177
-178
-177
-175
-174
-172
-169
-171
-172
-172
-169
-166
-165
-158
-160
-163
-163
-166
-164
-158
-157
-151
-151
-150
-151
-148
-149
-148
-141
-136
-131
-128
-127
-125
-123
-119
-113
-109
-97
-93
-93
-90
-89
-84
-80
-74
-72
-69
-67
-67
-69
-68
-68
-70
-69
-73
-80
-89
-92
-100
-107
-111
-113
-122
-131
-142
-146
-151
-156
-159
-159
-159
-163
-168
-174
-180
-180
-178
-177
-178
-176
-178
-177
-181
-186
-185
-177
-176
-177
-176
-177
-179
-179
-179
-176
-174
-171
-171
-171
-174
-176
-178
-176
-174
-173
-170
-172
-176
-180
-182
-179
-182
-180
-173
-173
-176
-178
-179
-180
-181
-178
-175
-178
-180
-181
-183
-187
-185
-185
-186
-182
-182
-186
-192
-188
-191
-188
-187
-185
-184
-189
-191
-192
-194
-189
-190
-186
-184
-185
-188
-191
-191
-189
-185
-186
-185
-186
-187
-192
-193
-189
-186
-186
-186
-186
-185
-194
-195
-193
-194
-192
-186
-186
-185
-189
-190
-190
-194
-190
-188
-190
-191
-193
-192
-192
-191
-189
-187
-186
-188
-188
-192
-195
-195
-195
-190
-187
-187
-189
-190
-192
-193
-194
-191
-189
-188
-188
-192
-190
-191
-192
-192
-193
-185
-184
-184
-187
-187
-186
-182
-178
-173
-174
-172
-172
-168
-161
-158
-156
-155
-155
-162
-163
-166
-171
-174
-176
-176
-175
-179
-183
-186
-191
-194
-191
-189
-189
-191
-194
-198
-200
-202
-198
-191
-189
-189
-190
-190
-191
-195
-186
-171
-163
-106
-65
-22
8
10
-24
-82
-163
-242
-284
-287
-257
-227
-209
-197
-187
-185
-180
-184
-186
-189
-188
-182
-180
-178
-180
-178
-179
-178
-180
-180
-177
-176
-172
-169
-170
-174
-173
-176
-171
-166
-164
-162
-162
-166
-166
-165
-168
-161
-158
-151
-153
-150
-150
-148
-149
-147
-139
-134
-133
-129
-129
-127
-124
-119
-113
-108
-105
-99
-99
-95
-89
-84
-79
-77
-69
-67
-69
-69
-69
-71
-68
-66
-67
-72
-80
-91
-99
-107
-112
-121
-124
-130
-140
-150
-157
-164
-168
-171
-170
-172
-176
-182
-183
-185
-189
-188
-187
-184
-184
-185
-188
-190
-192
-191
-188
-186
-184
-184
-186
-186
-188
-189
-186
-185
-177
-179
-183
-186
-187
-185
-190
-184
-182
-184
-186
-189
-192
-194
-194
-190
-188
-185
-189
-190
-193
-196
-198
-197
-199
-193
-193
-195
-197
-199
-200
-198
-197
-194
-195
-195
-198
-200
-202
-203
-205
-201
-198
-200
-201
-200
-203
-208
-204
-203
-198
-196
-200
-202
-204
-205
-202
-201
-197
-197
-199
-199
-204
-206
-205
-205
-201
-198
-205
-203
-205
-207
-208
-206
-206
-199
-200
-204
-205
-207
-210
-205
-204
-201
-203
-201
-204
-206
-206
-206
-203
-201
-198
-202
-205
-207
-207
-208
-206
-205
-206
-204
-201
-205
-207
-207
-205
-204
-201
-201
-199
-204
-206
-207
-204
-202
-202
-201
-201
-204
-204
-206
-206
-201
-199
-190
-188
-189
-191
-190
-186
-179
-171
-166
-166
-170
-177
-180
-183
-185
-184
-183
-188
-194
-200
-204
-208
-208
-206
-206
-204
-206
-211
-211
-211
-212
-211
-207
-208
-204
-205
-207
-208
-209
-208
-203
-186
-162
-136
-101
-70
-52
-52
-78
-90
-179
-245
-293
-313
-302
-280
-253
-234
-219
-211
-204
-203
-205
-208
-210
-203
-201
-197
-194
-197
-198
-201
-202
-199
-198
-192
-191
-193
-195
-194
-196
-191
-187
-186
-182
-181
-186
-188
-186
-183
-178
-174
-173
-175
-174
-175
-176
-174
-167
-165
-158
-159
-157
-151
-149
-149
-146
-137
-128
-122
-117
-115
-111
-109
-103
-95
-90
-86
-83
-82
-82
-80
-80
-78
-79
-74
-76
-84
-92
-99
-106
-113
-118
-123
-132
-141
-151
-162
-170
-173
-177
-179
-183
-186
-192
-198
-201
-202
-200
-201
-195
-198
-201
-202
-203
-203
-201
-202
-198
-197
-197
-201
-203
-205
-204
-200
-196
-194
-197
-201
-202
-201
-204
-199
-196
-195
-194
-200
-203
-206
-205
-203
-204
-202
-202
-206
-207
-210
-211
-210
-208
-204
-205
-204
-204
-210
-213
-215
-212
-212
-207
-207
-211
-211
-214
-214
-210
-209
-207
-209
-208
-210
-215
-218
-214
-212
-209
-207
-208
-211
-213
-217
-216
-214
-210
-207
-208
-210
-213
-215
-217
-214
-211
-209
-209
-209
-210
-214
-216
-213
-213
-209
-208
-209
-209
-211
-214
-215
-214
-215
-207
-208
-208
-210
-212
-214
-210
-207
-205
-205
-207
-210
-210
-214
-212
-212
-208
-206
-209
-209
-211
-212
-211
-208
-208
-203
-203
-203
-208
-212
-211
-203
-198
-191
-191
-189
-193
-193
-193
-186
-180
-173
-170
-171
-178
-180
-187
-188
-186
-187
-192
-196
-200
-207
-210
-210
-212
-209
-207
-208
-211
-216
-218
-213
-216
-211
-211
-209
-208
-210
-211
-212
-211
-210
-207
-188
-162
-128
-89
-51
-27
-26
-59
-116
-187
-261
-311
-318
-297
-269
-242
-225
-213
-205
-201
-203
-201
-204
-203
-202
-195
-194
-194
-195
-194
-198
-199
-194
-191
-188
-188
-189
-190
-190
-190
-186
-184
-179
-179
-179
-180
-183
-180
-179
-177
-173
-171
-171
-171
-170
-167
-165
-160
-155
-151
-151
-151
-149
-148
-141
-138
-134
-128
-122
-121
-116
-116
-112
-104
-102
-93
-91
-88
-85
-85
-86
-83
-78
-75
-73
-74
-81
-87
-93
-101
-104
-111
-116
-124
-134
-143
-155
-164
-169
-172
-180
-184
-190
-195
-197
-199
-197
-196
-196
-196
-197
-198
-201
-203
-202
-201
-198
-195
-193
-197
-203
-203
-200
-197
-196
-193
-194
-195
-195
-197
-198
-199
-197
-196
-191
-194
-193
-196
-199
-198
-197
-198
-194
-196
-199
-202
-205
-206
-204
-205
-199
-201
-203
-203
-208
-208
-206
-203
-200
-201
-203
-206
-208
-209
-209
-207
-204
-202
-202
-206
-206
-212
-211
-209
-208
-206
-204
-203
-205
-208
-208
-209
-207
-204
-201
-205
-208
-211
-211
-208
-205
-201
-200
-202
-202
-203
-207
-205
-205
-204
-201
-200
-199
-203
-205
-205
-204
-201
-200
-198
-199
-201
-204
-207
-205
-202
-200
-196
-197
-198
-201
-202
-203
-202
-201
-198
-197
-199
-202
-205
-204
-203
-201
-197
-196
-196
-198
-200
-200
-201
-199
-197
-193
-195
-195
-196
-198
-201
-197
-194
-189
-187
-186
-184
-183
-186
-182
-174
-172
-164
-160
-158
-163
-169
-175
-170
-167
-169
-171
-176
-186
-191
-196
-196
-197
-192
-193
-192
-196
-200
-201
-199
-199
-196
-194
-193
-197
-199
-199
-197
-196
-194
-190
-182
-163
-136
-96
-54
-16
-5
-19
-74
-151
-231
-285
-295
-272
-239
-215
-203
-194
-191
-189
-189
-190
-190
-185
-183
-180
-180
-180
-184
-183
-181
-181
-171
-172
-174
-174
-177
-174
-174
-172
-171
-170
-170
-169
-170
-171
-171
-168
-166
-160
-159
-161
-159
-163
-161
-159
-157
-147
-145
-144
-143
-142
-141
-133
-128
-119
-116
-109
-110
-106
-102
-99
-91
-82
-79
-72
-72
-71
-72
-68
-67
-66
-62
-60
-62
-64
-69
-75
-78
-82
-87
-96
-103
-115
-126
-133
-142
-145
-150
-152
-156
-162
-165
-173
-174
-175
-176
-172
-173
-170
-174
-178
-180
-182
-177
-174
-173
-172
-175
-176
-178
-177
-175
-173
-171
-170
-171
-173
-176
-178
-172
-170
-169
-167
-167
-169
-173
-174
-173
-175
-172
-171
-174
-175
-176
-180
-181
-178
-177
-176
-179
-179
-182
-180
-181
-179
-177
-177
-176
-174
-181
-179
-181
-182
-179
-175
-173
-175
-175
-178
-183
-181
-179
-177
-176
-176
-175
-180
-181
-181
-180
-180
-179
-177
-176
-177
-182
-181
-180
-177
-176
-174
-175
-177
-177
-176
-179
-177
-174
-171
-172
-174
-177
-181
-182
-180
-179
-173
-170
-171
-170
-174
-174
-174
-173
-172
-171
-173
-171
-173
-179
-176
-171
-171
-168
-167
-172
-176
-176
-176
-178
-177
-167
-166
-167
-169
-172
-173
-174
-170
-163
-161
-163
-167
-164
-163
-161
-159
-154
-150
-145
-144
-144
-138
-135
-136
-137
-139
-141
-141
-146
-152
-162
-167
-162
-163
-163
-166
-164
-168
-175
-176
-174
-170
-170
-167
-169
-173
-177
-177
-174
-172
-167
-165
-163
-165
-171
-163
-150
-123
-95
-63
-29
-15
-28
-69
-126
-190
-248
-286
-289
-265
-236
-219
-204
-189
-183
-162
-154
-152
-154
-159
-160
-158
-155
-150
-147
-146
-147
-148
-149
-149
-144
-142
-142
-141
-140
-143
-145
-145
-145
-144
-136
-132
-132
-136
-137
-134
-133
-131
-127
-124
-122
-123
-120
-120
-120
-114
-111
-104
-104
-102
-101
-98
-92
-90
-89
-76
-72
-67
-66
-65
-59
-57
-51
-47
-43
-38
-38
-37
-40
-41
-39
-39
-37
-42
-47
-54
-61
-67
-71
-74
-82
-86
-95
-102
-111
-119
-123
-124
-125
-129
-132
-136
-139
-145
-149
-147
-146
-146
-146
-146
-149
-152
-151
-151
-150
-147
-145
-146
-148
-153
-156
-149
-149
-149
-145
-147
-147
-150
-149
-148
-144
-147
-143
-146
-144
-146
-151
-149
-152
-151
-147
-146
-149
-150
-156
-158
-157
-157
-155
-152
-154
-157
-160
-161
-161
-159
-156
-153
-152
-154
-158
-161
-160
-161
-162
-158
-157
-160
-161
-162
-164
-162
-161
-159
-157
-157
-158
-160
-163
-164
-160
-159
-158
-158
-157
-161
-164
-165
-160
-157
-157
-155
-157
-160
-162
-160
-159
-158
-157
-156
-153
-155
-157
-160
-162
-158
-158
-156
-157
-157
-158
-162
-162
-161
-159
-155
-153
-155
-155
-158
-160
-160
-157
-155
-154
-154
-154
-161
-160
-160
-158
-158
-158
-155
-155
-155
-156
-157
-156
-155
-152
-152
-151
-152
-156
-159
-157
-152
-149
-146
-143
-144
-145
-143
-144
-137
-133
-125
-120
-118
-120
-124
-128
-128
-129
-129
-129
-133
-139
-149
-154
-155
-151
-154
-151
-152
-153
-160
-161
-164
-163
-158
-155
-156
-158
-162
-158
-161
-156
-155
-152
-152
-147
-132
-110
-76
-38
7
39
47
22
-33
-105
-180
-234
-252
-234
-203
-183
-167
-162
-154
-151
-150
-148
-145
-146
-145
-143
-147
-146
-142
-141
-140
-136
-136
-135
-136
-136
-138
-139
-136
-131
-135
-133
-133
-133
-136
-129
-128
-121
-118
-119
-120
-126
-123
-122
-119
-116
-113
-111
-109
-108
-112
-110
-105
-98
-91
-88
-84
-81
-79
-77
-74
-73
-62
-57
-54
-52
-48
-48
-42
-41
-40
-37
-38
-35
-35
-38
-42
-46
-49
-53
-62
-73
-78
-88
-98
-105
-107
-111
-113
-122
-128
-136
-141
-144
-141
-140
-137
-139
-143
-145
-148
-150
-151
-145
-143
-145
-145
-147
-147
-148
-150
-149
-142
-143
-143
-145
-143
-148
-151
-145
-141
-142
-142
-143
-145
-149
-150
-148
-145
-145
-146
-146
-148
-150
-151
-153
-152
-148
-147
-151
-152
-156
-155
-157
-156
-155
-150
-153
-154
-158
-160
-162
-159
-161
-156
-157
-158
-159
-160
-166
-166
-167
-159
-157
-159
-163
-162
-162
-164
-161
-158
-155
-155
-157
-159
-162
-162
-161
-160
-157
-156
-158
-159
-159
-166
-164
-164
-160
-156
-158
-157
-161
-163
-164
-161
-159
-157
-158
-156
-159
-163
-164
-163
-162
-158
-158
-157
-161
-162
-164
-164
-163
-158
-160
-161
-163
-165
-161
-161
-160
-159
-154
-156
-159
-160
-160
-163
-163
-160
-156
-157
-159
-164
-165
-162
-164
-161
-157
-155
-151
-151
-150
-150
-152
-147
-142
-135
-133
-129
-130
-131
-137
-141
-140
-138
-138
-143
-149
-154
-157
-161
-160
-158
-156
-160
-164
-169
-170
-170
-170
-166
-163
-165
-165
-170
-172
-170
-165
-163
-161
-160
-156
-147
-129
-106
-72
-61
-21
-23
-48
-100
-162
-219
-265
-277
-258
-229
-207
-195
-185
-175
-164
-154
-150
-149
-148
-150
-152
-149
-148
-149
-146
-141
-140
-137
-140
-142
-144
-143
-139
-138
-134
-135
-135
-137
-137
-136
-132
-129
-128
-125
-128
-131
-128
-128
-124
-122
-116
-114
-112
-114
-114
-113
-112
-107
-102
-94
-89
-89
-86
-86
-84
-78
-69
-62
-59
-55
-53
-55
-53
-46
-44
-37
-33
-34
-33
-33
-36
-37
-39
-39
-40
-44
-50
-59
-70
-81
-87
-93
-97
-105
-113
-121
-128
-135
-138
-138
-138
-137
-138
-143
-148
-149
-152
-151
-148
-147
-146
-145
-153
-152
-155
-154
-149
-149
-148
-150
-151
-154
-155
-152
-151
-149
-148
-146
-148
-149
-150
-149
-151
-149
-148
-146
-149
-150
-152
-156
-154
-155
-153
-154
-154
-154
-158
-163
-160
-161
-156
-157
-157
-157
-159
-161
-162
-163
-162
-157
-156
-159
-162
-165
-166
-168
-164
-161
-159
-159
-162
-164
-166
-165
-164
-161
-158
-155
-160
-162
-163
-168
-165
-161
-158
-156
-160
-163
-165
-162
-162
-160
-158
-155
-158
-162
-164
-169
-165
-164
-160
-158
-158
-159
-167
-168
-169
-166
-161
-160
-160
-159
-160
-164
-163
-161
-161
-158
-157
-160
-161
-164
-166
-163
-162
-157
-155
-157
-158
-161
-163
-161
-162
-161
-158
-156
-157
-160
-161
-162
-160
-160
-158
-158
-160
-161
-162
-166
-161
-160
-149
-145
-143
-145
-141
-142
-137
-133
-132
-128
-131
-136
-141
-144
-148
-148
-148
-151
-150
-153
-160
-162
-161
-163
-161
-160
-158
-161
-166
-168
-171
-171
-168
-168
-163
-163
-166
-166
-167
-166
-161
-146
-123
-93
-56
-20
3
10
-9
-19
-113
-175
-231
-257
-250
-227
-204
-189
-177
-166
-160
-153
-156
-161
-161
-160
-154
-151
-149
-148
-151
-156
-154
-154
-154
-150
-143
-144
-144
-145
-148
-149
-146
-147
-143
-140
-140
-142
-142
-145
-140
-138
-132
-132
-130
-132
-133
-130
-130
-129
-122
-120
-111
-113
-114
-110
-107
-101
-95
-93
-87
-85
-83
-84
-78
-79
-71
-65
-58
-57
-57
-60
-60
-59
-57
-54
-54
-54
-58
-63
-69
-77
-81
-86
-94
-99
-108
-122
-130
-136
-139
-141
-141
-147
-148
-154
-155
-159
-159
-160
-162
-160
-157
-159
-162
-162
-162
-159
-158
-157
-157
-157
-159
-161
-161
-162
-160
-159
-158
-156
-157
-159
-158
-163
-164
-157
-155
-154
-156
-159
-161
-160
-161
-159
-158
-158
-158
-161
-163
-166
-165
-164
-163
-162
-163
-164
-168
-170
-172
-174
-169
-166
-166
-168
-168
-174
-175
-171
-169
-167
-167
-166
-171
-176
-174
-175
-172
-170
-168
-169
-172
-172
-173
-170
-171
-167
-164
-164
-168
-171
-173
-172
-171
-172
-170
-169
-168
-171
-174
-174
-174
-171
-169
-167
-169
-173
-173
-174
-176
-176
-170
-169
-170
-170
-175
-179
-178
-178
-174
-170
-172
-172
-174
-180
-178
-175
-174
-169
-168
-169
-172
-176
-175
-173
-174
-171
-168
-167
-169
-172
-175
-175
-173
-172
-169
-167
-166
-169
-172
-170
-172
-168
-165
-165
-165
-167
-172
-171
-172
-173
-164
-161
-157
-157
-158
-160
-160
-156
-149
-141
-141
-139
-143
-148
-151
-150
-151
-149
-150
-155
-160
-164
-169
-174
-176
-172
-170
-170
-173
-175
-179
-178
-176
-173
-172
-171
-172
-175
-176
-176
-174
-171
-170
-169
-164
-155
-137
-109
-72
-60
-20
-26
-63
-118
-175
-230
-263
-260
-236
-211
-197
-187
-180
-173
-167
-167
-165
-163
-160
-158
-159
-159
-160
-159
-161
-156
-154
-151
-154
-155
-157
-159
-156
-153
-149
-150
-149
-151
-151
-154
-151
-146
-143
-142
-144
-142
-144
-146
-142
-141
-135
-130
-129
-130
-133
-131
-130
-122
-118
-111
-107
-103
-104
-101
-95
-89
-83
-79
-73
-70
-68
-65
-68
-65
-65
-58
-54
-54
-55
-55
-60
-62
-65
-66
-70
-76
-83
-90
-101
-109
-116
-121
-126
-132
-137
-143
-148
-156
-156
-158
-156
-156
-162
-162
-161
-165
-168
-164
-162
-159
-161
-159
-163
-164
-168
-167
-164
-161
-162
-161
-162
-162
-165
-168
-167
-162
-159
-159
-162
-161
-165
-161
-161
-160
-162
-161
-163
-165
-171
-168
-166
-166
-165
-163
-163
-167
-168
-169
-169
-170
-166
-163
-164
-166
-168
-170
-170
-170
-169
-169
-165
-167
-169
-169
-170
-169
-171
-169
-167
-166
-165
-169
-173
-171
-168
-168
-166
-162
-164
-167
-172
-171
-170
-169
-168
-166
-166
-168
-168
-171
-173
-169
-165
-167
-165
-166
-169
-169
-168
-169
-164
-164
-163
-163
-164
-169
-171
-169
-167
-165
-164
-164
-168
-167
-169
-170
-165
-163
-164
-162
-165
-167
-167
-163
-162
-160
-162
-161
-162
-163
-166
-165
-167
-165
-162
-162
-162
-163
-163
-166
-165
-164
-161
-160
-160
-161
-163
-163
-163
-163
-157
-150
-150
-149
-149
-149
-147
-144
-142
-134
-132
-132
-141
-145
-147
-148
-151
-153
-156
-156
-159
-161
-167
-168
-166
-165
-164
-163
-166
-170
-174
-175
-172
-168
-168
-168
-173
-171
-173
-174
-170
-170
-163
-148
-125
-95
-58
-29
-14
-11
-57
-112
-177
-238
-269
-263
-242
-213
-194
-181
-171
-164
-163
-163
-167
-169
-167
-164
-159
-159
-160
-162
-161
-164
-166
-155
-152
-153
-152
-157
-158
-158
-156
-153
-148
-147
-148
-148
-151
-152
-148
-146
-142
-141
-138
-141
-140
-142
-141
-140
-132
-129
-127
-128
-125
-122
-119
-114
-110
-103
-100
-95
-98
-97
-91
-86
-80
-78
-70
-72
-74
-74
-76
-75
-72
-69
-64
-64
-69
-75
-82
-88
-90
-94
-98
-103
-110
-119
-131
-139
-143
-145
-149
-152
-157
-158
-165
-168
-171
-173
-170
-168
-169
-171
-172
-175
-177
-175
-172
-170
-168
-169
-171
-174
-174
-174
-170
-172
-171
-167
-168
-171
-172
-168
-169
-168
-166
-166
-167
-171
-172
-173
-174
-175
-172
-170
-171
-175
-178
-180
-180
-180
-178
-176
-177
-178
-181
-183
-180
-181
-181
-179
-180
-181
-184
-186
-187
-187
-186
-182
-179
-180
-183
-185
-190
-189
-186
-186
-184
-184
-185
-186
-187
-187
-187
-184
-181
-183
-184
-187
-189
-188
-186
-184
-185
-182
-181
-183
-183
-187
-190
-188
-184
-180
-180
-185
-184
-186
-187
-185
-184
-180
-180
-181
-184
-185
-190
-188
-183
-179
-178
-180
-183
-186
-186
-186
-185
-180
-178
-180
-182
-184
-183
-187
-189
-182
-179
-178
-179
-181
-183
-183
-184
-181
-180
-178
-179
-181
-182
-184
-185
-184
-182
-178
-179
-181
-185
-185
-183
-183
-179
-175
-175
-172
-172
-171
-172
-167
-163
-157
-152
-152
-150
-155
-157
-161
-161
-159
-155
-161
-167
-173
-176
-181
-184
-180
-178
-176
-179
-185
-187
-192
-191
-188
-184
-181
-184
-186
-185
-184
-186
-182
-180
-176
-176
-176
-166
-145
-116
-105
-39
-12
-10
-41
-95
-165
-232
-269
-268
-241
-215
-198
-192
-185
-182
-181
-180
-178
-173
-175
-173
-175
-175
-178
-179
-176
-174
-174
-172
-172
-172
-172
-173
-172
-164
-162
-163
-164
-164
-166
-165
-162
-158
-154
-155
-157
-160
-162
-160
-161
-154
-147
-144
-146
-144
-144
-143
-140
-135
-129
-123
-119
-119
-114
-112
-110
-104
-96
-90
-85
-86
-88
-85
-85
-83
-74
-71
-69
-68
-74
-76
-82
-85
-87
-87
-93
-106
-116
-122
-130
-141
-142
-144
-146
-155
-156
-161
-169
-169
-170
-172
-169
-169
-172
-173
-175
-179
-179
-179
-173
-172
-169
-174
-174
-179
-181
-177
-173
-169
-167
-168
-170
-172
-177
-174
-172
-167
-169
-170
-170
-173
-175
-176
-175
-174
-171
-174
-176
-179
-177
-178
-177
-176
-176
-176
-177
-181
-180
-183
-182
-179
-177
-179
-180
-181
-181
-184
-181
-180
-178
-179
-178
-181
-182
-183
-179
-179
-177
-175
-178
-177
-181
-181
-186
-187
-180
-177
-175
-177
-180
-181
-183
-182
-177
-177
-176
-176
-177
-183
-181
-180
-176
-173
-174
-174
-175
-178
-179
-181
-182
-177
-175
-172
-173
-178
-178
-180
-179
-176
-172
-170
-171
-174
-176
-178
-181
-178
-176
-173
-176
-175
-178
-181
-181
-182
-174
-173
-171
-172
-176
-179
-180
-177
-177
-174
-170
-171
-175
-182
-183
-178
-179
-176
-171
-172
-175
-174
-174
-176
-178
-169
-164
-163
-161
-163
-161
-165
-158
-153
-144
-140
-138
-144
-152
-154
-154
-154
-152
-156
-163
-163
-170
-173
-175
-174
-173
-172
-170
-173
-173
-178
-179
-180
-178
-175
-173
-176
-177
-181
-180
-180
-177
-173
-169
-165
-157
-140
-114
-82
-72
-34
-32
-62
-114
-177
-241
-284
-284
-258
-230
-211
-199
-191
-181
-177
-174
-174
-171
-169
-168
-170
-170
-166
-165
-165
-162
-160
-158
-157
-158
-158
-158
-160
-158
-153
-153
-150
-150
-151
-153
-152
-150
-147
-145
-141
-142
-145
-146
-144
-144
-138
-136
-132
-128
-129
-127
-125
-120
-118
-110
-104
-103
-103
-103
-98
-93
-91
-83
-78
-77
-75
-72
-74
-73
-73
-69
-67
-63
-66
-70
-74
-84
-88
-90
-94
-98
-104
-114
-121
-131
-138
-141
-143
-148
-149
-156
-161
-167
-169
-170
-166
-166
-165
-167
-173
-171
-176
-173
-174
-172
-168
-168
-170
-172
-172
-170
-170
-167
-165
-163
-166
-168
-168
-170
-171
-167
-165
-167
-164
-168
-170
-174
-173
-174
-171
-166
-165
-169
-173
-176
-176
-176
-174
-174
-174
-176
-179
-179
-182
-183
-179
-177
-179
-177
-177
-180
-182
-183
-181
-178
-178
-179
-178
-181
-183
-182
-181
-179
-178
-180
-181
-183
-184
-183
-181
-182
-179
-177
-177
-180
-181
-183
-182
-180
-178
-176
-176
-177
-180
-182
-181
-184
-180
-177
-175
-176
-183
-184
-183
-181
-180
-178
-177
-174
-176
-178
-179
-180
-178
-176
-173
-175
-178
-180
-180
-180
-177
-177
-172
-174
-174
-177
-179
-181
-180
-180
-180
-177
-176
-177
-179
-183
-181
-181
-179
-176
-177
-178
-179
-179
-180
-178
-174
-172
-172
-175
-177
-176
-178
-175
-173
-172
-170
-168
-167
-167
-168
-166
-163
-156
-152
-149
-146
-147
-146
-150
-152
-153
-152
-151
-156
-164
-171
-175
-176
-177
-175
-172
-176
-179
-185
-184
-184
-184
-179
-177
-176
-180
-180
-184
-185
-179
-177
-176
-174
-166
-152
-125
-90
-78
-14
5
4
-32
-91
-165
-228
-262
-260
-233
-208
-190
-185
-180
-178
-181
-174
-173
-168
-170
-169
-169
-170
-171
-170
-169
-166
-161
-164
-166
-166
-166
-164
-164
-161
-159
-160
-160
-163
-162
-162
-161
-159
-153
-153
-153
-151
-155
-153
-155
-154
-147
-144
-141
-143
-143
-141
-139
-134
-127
-123
-119
-119
-115
-114
-111
-109
-101
-94
-90
-86
-87
-86
-81
-80
-75
-71
-69
-72
-73
-78
-84
-89
-90
-94
-98
-106
-114
-122
-131
-139
-143
-148
-149
-156
-158
-164
-171
-176
-175
-174
-173
-174
-172
-176
-180
-180
-181
-179
-177
-175
-174
-174
-177
-179
-182
-180
-178
-173
-172
-172
-175
-181
-180
-179
-175
-174
-175
-173
-178
-178
-182
-181
-181
-178
-176
-176
-179
-182
-184
-184
-183
-182
-181
-181
-185
-186
-190
-186
-186
-186
-184
-185
-186
-186
-189
-192
-190
-188
-186
-185
-186
-186
-188
-191
-191
-190
-188
-187
-185
-185
-188
-190
-192
-193
-189
-186
-190
-188
-188
-190
-195
-194
-195
-192
-188
-187
-188
-190
-192
-191
-191
-187
-183
-185
-185
-189
-192
-192
-193
-194
-190
-189
-186
-189
-191
-195
-193
-190
-187
-185
-186
-187
-191
-192
-191
-190
-188
-186
-185
-184
-186
-193
-193
-192
-193
-190
-189
-188
-186
-189
-193
-193
-188
-189
-188
-187
-188
-189
-193
-194
-191
-189
-186
-183
-187
-187
-189
-189
-189
-187
-184
-181
-183
-180
-179
-177
-175
-174
-167
-168
-161
-158
-156
-155
-155
-154
-156
-157
-157
-160
-165
-172
-178
-180
-181
-178
-178
-180
-183
-187
-189
-188
-188
-185
-183
-189
-187
-190
-188
-188
-188
-184
-180
-180
-182
-184
-185
-180
-177
-142
-108
-77
-55
-46
-68
-112
-167
-227
-274
-299
-288
-265
-242
-222
-208
-194
-183
-174
-172
-176
-179
-181
-181
-180
-173
-170
-168
-167
-167
-170
-171
-171
-166
-166
-162
-162
-162
-165
-166
-165
-163
-160
-156
-156
-156
-157
-155
-160
-161
-156
-151
-148
-145
-145
-149
-150
-145
-138
-133
-130
-127
-125
-119
-117
-112
-107
-100
-93
-89
-87
-84
-84
-82
-81
-71
-67
-66
-63
-64
-64
-69
-69
-71
-74
-76
-82
-89
-98
-107
-116
-122
-125
-129
-134
-143
-149
-156
-161
-163
-167
-164
-163
-166
-174
-176
-181
-178
-176
-173
-171
-169
-170
-173
-175
-179
-176
-174
-171
-171
-169
-172
-176
-180
-179
-174
-172
-168
-169
-171
-173
-173
-176
-172
-173
-170
-169
-171
-174
-178
-180
-179
-177
-178
-176
-177
-177
-180
-182
-182
-181
-179
-178
-180
-180
-183
-187
-186
-185
-182
-181
-185
-183
-186
-189
-190
-188
-187
-183
-181
-182
-184
-188
-189
-188
-183
-180
-180
-181
-182
-184
-187
-187
-186
-185
-182
-184
-181
-186
-188
-186
-186
-185
-184
-183
-181
-183
-186
-188
-187
-187
-182
-180
-179
-181
-184
-188
-186
-185
-185
-182
-181
-180
-182
-185
-186
-185
-184
-182
-183
-182
-185
-186
-188
-189
-183
-183
-182
-182
-184
-186
-189
-188
-186
-183
-181
-180
-180
-181
-185
-188
-185
-183
-180
-181
-179
-182
-183
-186
-185
-185
-182
-180
-180
-183
-179
-180
-178
-171
-166
-166
-164
-164
-161
-161
-157
-153
-151
-151
-154
-158
-160
-162
-166
-167
-174
-175
-175
-179
-183
-184
-189
-190
-187
-186
-186
-186
-185
-187
-189
-189
-190
-186
-182
-180
-178
-180
-182
-178
-172
-132
-94
-56
-17
4
-1
-30
-83
-148
-212
-260
-275
-258
-232
-214
-202
-191
-187
-176
-174
-174
-180
-180
-181
-181
-175
-171
-168
-169
-170
-173
-173
-174
-171
-168
-163
-164
-165
-162
-165
-165
-165
-163
-159
-157
-154
-158
-158
-157
-158
-154
-152
-147
-147
-146
-148
-149
-145
-140
-135
-129
-129
-128
-125
-124
-121
-117
-113
-104
-100
-99
-97
-96
-92
-91
-82
-77
-72
-72
-73
-76
-80
-76
-77
-76
-76
-80
-88
-95
-104
-114
-117
-121
-129
-139
-146
-152
-160
-165
-169
-173
-174
-173
-176
-179
-181
-187
-190
-189
-184
-184
-182
-184
-186
-189
-192
-190
-186
-185
-182
-183
-183
-183
-185
-185
-184
-186
-177
-178
-177
-183
-187
-185
-185
-180
-178
-178
-180
-185
-189
-191
-190
-186
-185
-183
-182
-187
-189
-190
-192
-188
-185
-182
-185
-187
-188
-191
-194
-192
-190
-187
-188
-188
-193
-195
-194
-196
-191
-189
-188
-187
-191
-191
-196
-195
-193
-191
-189
-189
-188
-192
-193
-195
-194
-193
-189
-188
-192
-195
-196
-198
-196
-193
-190
-190
-190
-191
-193
-195
-194
-195
-193
-190
-190
-191
-191
-192
-193
-193
-191
-186
-189
-193
-194
-195
-196
-195
-194
-188
-188
-184
-189
-193
-194
-194
-195
-191
-190
-191
-190
-190
-196
-196
-190
-188
-185
-188
-188
-190
-192
-191
-190
-190
-186
-185
-189
-192
-192
-191
-192
-192
-193
-190
-190
-193
-192
-191
-192
-193
-187
-184
-185
-185
-188
-187
-185
-182
-180
-175
-171
-166
-163
-163
-160
-161
-162
-165
-161
-163
-166
-170
-178
-184
-186
-187
-186
-186
-192
-192
-196
-201
-200
-199
-194
-192
-192
-194
-200
-201
-203
-197
-195
-191
-189
-191
-191
-181
-163
-135
-100
-62
-38
-31
-50
-92
-147
-210
-261
-283
-276
-257
-235
-223
-214
-211
-193
-184
-181
-183
-187
-187
-188
-190
-186
-182
-178
-177
-177
-178
-182
-182
-179
-177
-171
-168
-171
-171
-172
-176
-176
-172
-167
-163
-165
-163
-167
-170
-168
-165
-161
-157
-154
-156
-154
-154
-155
-152
-147
-143
-138
-136
-134
-133
-130
-131
-120
-113
-105
-99
-99
-96
-94
-88
-82
-80
-72
-68
-68
-67
-70
-67
-68
-65
-66
-65
-71
-77
-86
-93
-97
-107
-114
-119
-124
-133
-142
-149
-159
-159
-158
-159
-162
-167
-169
-173
-174
-177
-178
-173
-172
-172
-174
-173
-177
-178
-178
-174
-171
-171
-176
-176
-175
-176
-177
-170
-171
-173
-171
-173
-174
-173
-175
-174
-171
-172
-172
-175
-174
-178
-179
-180
-174
-172
-173
-176
-180
-178
-182
-181
-180
-180
-177
-176
-183
-184
-185
-186
-183
-180
-180
-184
-181
-181
-186
-188
-182
-182
-179
-178
-178
-182
-186
-187
-185
-182
-180
-178
-183
-185
-185
-186
-186
-185
-182
-178
-181
-182
-184
-186
-185
-180
-178
-177
-178
-180
-182
-185
-184
-185
-184
-178
-177
-182
-183
-183
-188
-183
-182
-179
-179
-181
-183
-183
-181
-183
-182
-179
-175
-176
-176
-180
-181
-183
-182
-176
-174
-175
-172
-174
-177
-180
-178
-177
-173
-172
-173
-175
-176
-178
-179
-175
-173
-171
-170
-170
-169
-168
-165
-162
-159
-157
-157
-154
-149
-148
-145
-142
-141
-140
-144
-146
-149
-153
-157
-161
-168
-167
-166
-166
-170
-172
-176
-176
-178
-177
-175
-177
-176
-178
-178
-180
-181
-178
-176
-175
-174
-173
-175
-175
-173
-142
-109
-70
-35
-8
-1
-20
-68
-125
-191
-249
-276
-269
-244
-224
-211
-199
-185
-174
-164
-164
-164
-167
-169
-168
-164
-163
-159
-157
-158
-158
-160
-159
-158
-154
-150
-151
-152
-152
-152
-152
-153
-151
-147
-147
-144
-145
-148
-147
-147
-144
-137
-135
-137
-136
-136
-136
-134
-134
-124
-120
-117
-118
-119
-115
-112
-109
-103
-96
-92
-86
-83
-82
-81
-80
-70
-66
-64
-62
-59
-60
-61
-62
-61
-60
-60
-63
-68
-75
-79
-88
-96
-103
-109
-116
-122
-133
-139
-147
-149
-156
-153
-155
-157
-161
-164
-170
-175
-171
-168
-164
-165
-168
-172
-172
-175
-174
-172
-167
-167
-164
-168
-171
-169
-170
-168
-164
-164
-163
-164
-165
-166
-170
-167
-167
-165
-163
-165
-167
-171
-173
-173
-169
-167
-167
-169
-169
-175
-178
-177
-175
-173
-172
-173
-175
-175
-176
-177
-181
-179
-176
-173
-174
-178
-178
-181
-181
-181
-179
-178
-176
-177
-179
-184
-186
-182
-179
-176
-176
-176
-179
-180
-182
-182
-178
-177
-175
-176
-177
-181
-183
-182
-183
-180
-179
-179
-182
-182
-182
-182
-180
-178
-174
-174
-177
-177
-180
-178
-179
-179
-177
-175
-175
-181
-183
-187
-184
-180
-176
-174
-176
-177
-179
-179
-179
-178
-175
-175
-175
-175
-177
-179
-181
-181
-180
-178
-174
-175
-176
-178
-182
-180
-178
-177
-173
-172
-178
-180
-182
-183
-179
-177
-174
-171
-173
-172
-176
-172
-168
-164
-162
-158
-160
-162
-159
-155
-151
-144
-141
-139
-143
-145
-152
-155
-156
-160
-163
-160
-164
-166
-172
-175
-177
-178
-174
-175
-174
-174
-176
-180
-184
-184
-181
-180
-176
-175
-175
-176
-180
-179
-166
-145
-112
-74
-36
-5
4
-21
-67
-128
-194
-248
-267
-255
-233
-210
-200
-189
-179
-170
-168
-169
-173
-175
-177
-173
-173
-170
-164
-163
-168
-172
-172
-170
-166
-160
-160
-156
-158
-159
-160
-162
-159
-156
-154
-152
-153
-153
-157
-156
-154
-151
-148
-146
-145
-147
-148
-146
-144
-139
-135
-133
-132
-134
-131
-133
-128
-120
-115
-107
-105
-102
-99
-97
-96
-92
-85
-79
-75
-73
-72
-73
-73
-73
-69
-62
-62
-64
-67
-74
-82
-86
-89
-91
-96
-101
-111
-120
-129
-133
-144
-147
-148
-153
-156
-161
-166
-168
-173
-168
-167
-168
-173
-173
-176
-179
-179
-177
-171
-173
-173
-177
-176
-175
-176
-173
-170
-169
-167
-170
-171
-173
-176
-173
-171
-168
-166
-169
-170
-171
-175
-174
-174
-170
-169
-169
-172
-177
-179
-179
-179
-177
-174
-170
-174
-178
-182
-181
-182
-181
-179
-174
-177
-179
-183
-184
-183
-183
-181
-179
-176
-179
-183
-182
-183
-183
-180
-178
-180
-182
-182
-185
-187
-186
-180
-180
-178
-178
-181
-181
-185
-187
-184
-180
-181
-181
-182
-185
-186
-188
-183
-182
-178
-179
-174
-178
-181
-182
-184
-183
-181
-177
-177
-178
-181
-183
-182
-182
-178
-176
-177
-177
-182
-181
-182
-182
-177
-175
-175
-175
-178
-184
-184
-183
-181
-176
-173
-172
-176
-178
-180
-179
-180
-179
-177
-175
-177
-180
-180
-181
-178
-173
-168
-165
-164
-165
-167
-165
-160
-156
-152
-145
-142
-143
-149
-154
-157
-158
-158
-159
-161
-167
-175
-176
-177
-179
-176
-177
-178
-177
-181
-185
-188
-187
-183
-181
-178
-179
-181
-182
-181
-183
-182
-179
-174
-166
-146
-121
-87
-76
-38
-44
-84
-142
-211
-269
-299
-290
-262
-237
-217
-204
-193
-185
-178
-174
-174
-176
-173
-170
-166
-168
-170
-172
-170
-169
-166
-161
-159
-159
-162
-167
-163
-162
-157
-153
-152
-154
-155
-156
-155
-153
-153
-149
-142
-143
-143
-146
-145
-144
-140
-137
-133
-131
-129
-129
-127
-127
-126
-119
-113
-108
-107
-104
-103
-100
-94
-91
-85
-82
-78
-75
-73
-74
-73
-69
-67
-61
-60
-61
-65
-74
-80
-79
-81
-86
-92
-98
-107
-115
-125
-133
-134
-136
-141
-144
-149
-157
-161
-162
-166
-166
-164
-164
-165
-169
-169
-172
-171
-169
-167
-166
-169
-168
-171
-171
-170
-169
-166
-166
-162
-164
-168
-169
-170
-166
-164
-163
-164
-165
-168
-172
-169
-168
-166
-164
-162
-164
-168
-171
-173
-174
-174
-173
-173
-172
-174
-176
-179
-180
-180
-177
-176
-173
-174
-175
-180
-181
-181
-178
-179
-176
-176
-178
-180
-185
-184
-181
-179
-176
-177
-176
-179
-180
-179
-177
-176
-174
-174
-175
-178
-179
-181
-182
-179
-178
-175
-178
-177
-183
-184
-182
-180
-177
-177
-181
-180
-179
-181
-182
-182
-180
-176
-176
-176
-179
-180
-184
-181
-179
-178
-175
-174
-177
-177
-182
-183
-181
-181
-177
-176
-176
-176
-178
-179
-183
-180
-176
-173
-176
-176
-180
-183
-183
-181
-178
-177
-175
-177
-177
-179
-179
-177
-174
-175
-174
-176
-181
-178
-179
-180
-170
-164
-162
-159
-161
-162
-161
-158
-150
-145
-143
-144
-150
-157
-159
-160
-158
-160
-161
-166
-166
-172
-177
-176
-180
-179
-177
-177
-182
-181
-185
-186
-186
-183
-179
-176
-176
-178
-178
-181
-180
-178
-166
-145
-117
-82
-41
-7
0
-13
-56
-125
-201
-251
-263
-247
-220
-200
-184
-174
-168
-169
-170
-175
-178
-176
-174
-168
-168
-167
-166
-167
-168
-169
-169
-166
-163
-160
-161
-159
-160
-162
-161
-160
-155
-153
-155
-155
-156
-154
-152
-150
-147
-142
-142
-141
-142
-144
-143
-140
-133
-129
-123
-121
-120
-124
-121
-120
-109
-104
-99
-98
-92
-91
-88
-86
-81
-77
-72
-68
-70
-72
-71
-70
-72
-73
-73
-77
-81
-88
-97
-106
-115
-119
-122
-126
-134
-140
-148
-159
-161
-163
-166
-166
-168
-170
-172
-176
-177
-178
-175
-172
-172
-177
-177
-177
-177
-175
-174
-171
-167
-170
-172
-174
-174
-176
-178
-172
-171
-170
-168
-172
-172
-173
-173
-171
-168
-167
-169
-173
-177
-177
-178
-175
-174
-174
-173
-178
-182
-182
-183
-181
-182
-178
-178
-180
-180
-184
-184
-188
-184
-181
-180
-178
-183
-185
-186
-186
-187
-183
-180
-183
-185
-190
-189
-192
-190
-188
-185
-186
-186
-186
-188
-189
-191
-186
-184
-181
-181
-184
-188
-189
-192
-189
-186
-185
-185
-186
-191
-188
-188
-188
-184
-186
-183
-184
-186
-189
-188
-188
-188
-185
-183
-184
-187
-191
-191
-193
-187
-185
-181
-184
-183
-187
-186
-188
-189
-184
-184
-182
-181
-184
-185
-185
-187
-188
-186
-185
-185
-184
-188
-186
-188
-186
-185
-182
-183
-184
-186
-187
-186
-187
-183
-179
-174
-173
-173
-176
-177
-176
-169
-163
-155
-154
-152
-158
-160
-163
-165
-161
-162
-165
-171
-177
-181
-184
-182
-181
-179
-179
-182
-190
-192
-191
-190
-189
-187
-184
-183
-184
-187
-188
-190
-186
-184
-181
-179
-172
-153
-124
-93
-62
-51
-61
-102
-160
-223
-273
-285
-286
-258
-233
-214
-203
-192
-189
-179
-179
-179
-174
-171
-170
-170
-172
-174
-174
-173
-170
-166
-163
-162
-165
-163
-162
-164
-163
-160
-155
-156
-156
-156
-159
-159
-157
-152
-149
-150
-152
-151
-149
-149
-145
-142
-136
-134
-131
-131
-128
-128
-125
-119
-115
-106
-102
-100
-97
-93
-89
-82
-79
-74
-68
-65
-67
-68
-67
-67
-62
-59
-61
-62
-66
-70
-72
-82
-85
-89
-96
-100
-109
-119
-129
-134
-137
-141
-144
-146
-151
-157
-161
-165
-164
-163
-159
-163
-165
-167
-169
-170
-171
-167
-165
-163
-166
-168
-168
-168
-170
-171
-165
-162
-162
-162
-165
-169
-169
-168
-165
-163
-162
-162
-165
-170
-168
-168
-166
-163
-163
-164
-167
-170
-171
-172
-172
-169
-167
-167
-167
-169
-171
-174
-172
-171
-167
-166
-168
-173
-173
-174
-175
-173
-173
-171
-172
-173
-174
-176
-176
-175
-172
-170
-172
-173
-173
-173
-175
-173
-172
-169
-171
-173
-174
-174
-177
-177
-174
-170
-170
-170
-170
-173
-173
-175
-174
-172
-168
-167
-169
-172
-174
-177
-176
-172
-170
-171
-171
-172
-171
-172
-172
-170
-167
-166
-170
-171
-172
-171
-172
-172
-170
-165
-167
-166
-170
-173
-177
-177
-173
-169
-167
-166
-168
-171
-172
-176
-171
-168
-168
-170
-171
-172
-171
-171
-165
-161
-155
-155
-154
-155
-153
-149
-148
-141
-136
-134
-140
-146
-151
-154
-153
-155
-155
-160
-162
-169
-173
-175
-175
-170
-171
-169
-172
-169
-174
-177
-180
-176
-175
-170
-170
-168
-170
-167
-169
-171
-160
-140
-110
-77
-45
-13
1
-5
-33
-80
-142
-207
-256
-264
-247
-223
-202
-188
-176
-170
-166
-166
-168
-168
-170
-168
-161
-160
-159
-158
-163
-161
-161
-160
-159
-156
-152
-152
-155
-158
-157
-155
-153
-149
-148
-146
-149
-150
-150
-149
-147
-141
-138
-137
-136
-138
-135
-134
-131
-130
-124
-121
-120
-122
-121
-118
-112
-106
-104
-96
-92
-91
-89
-91
-87
-83
-76
-72
-70
-69
-69
-69
-65
-64
-64
-63
-65
-67
-75
-84
-90
-95
-100
-105
-109
-119
-126
-135
-138
-147
-150
-152
-150
-157
-158
-164
-169
-170
-170
-169
-168
-164
-170
-172
-169
-171
-170
-171
-167
-166
-168
-166
-171
-172
-169
-169
-164
-163
-164
-167
-170
-171
-173
-170
-167
-166
-165
-166
-166
-170
-173
-173
-171
-169
-168
-167
-170
-177
-177
-176
-172
-172
-170
-173
-173
-175
-179
-181
-179
-177
-174
-174
-175
-177
-178
-180
-180
-179
-176
-175
-175
-178
-178
-180
-184
-182
-181
-179
-178
-179
-180
-186
-186
-183
-180
-177
-176
-177
-180
-183
-185
-184
-184
-178
-175
-179
-183
-182
-182
-182
-182
-179
-178
-182
-181
-179
-180
-182
-181
-179
-178
-177
-177
-181
-184
-185
-184
-181
-181
-175
-179
-184
-184
-186
-184
-182
-181
-178
-178
-181
-182
-183
-184
-183
-180
-178
-179
-181
-181
-182
-185
-184
-183
-182
-179
-180
-180
-185
-184
-183
-179
-175
-170
-169
-169
-167
-169
-166
-161
-155
-150
-151
-150
-155
-161
-164
-164
-162
-160
-163
-169
-175
-179
-180
-183
-182
-181
-180
-182
-186
-188
-190
-189
-190
-187
-188
-186
-187
-188
-192
-192
-190
-186
-185
-178
-165
-145
-117
-106
-46
-21
-18
-40
-89
-152
-213
-259
-276
-262
-238
-219
-202
-197
-191
-184
-181
-180
-180
-181
-179
-178
-177
-179
-180
-177
-178
-173
-169
-169
-169
-171
-173
-174
-170
-168
-166
-167
-168
-165
-168
-169
-169
-163
-161
-159
-155
-155
-160
-162
-158
-156
-151
-148
-144
-145
-145
-144
-142
-138
-135
-128
-123
-118
-116
-118
-113
-110
-102
-96
-90
-88
-89
-87
-88
-81
-80
-75
-71
-71
-71
-75
-80
-85
-86
-91
-96
-102
-112
-121
-131
-140
-145
-149
-153
-156
-161
-166
-170
-171
-177
-178
-178
-176
-174
-178
-180
-184
-183
-184
-182
-179
-180
-178
-179
-182
-182
-184
-182
-179
-178
-178
-179
-181
-182
-184
-181
-180
-177
-174
-178
-179
-181
-180
-182
-180
-179
-177
-177
-180
-185
-188
-185
-186
-184
-183
-183
-187
-187
-186
-187
-187
-182
-183
-184
-186
-188
-190
-191
-188
-187
-189
-187
-189
-191
-193
-193
-192
-189
-186
-185
-188
-189
-189
-190
-195
-194
-191
-190
-187
-190
-190
-195
-194
-193
-192
-188
-189
-187
-189
-194
-196
-193
-192
-189
-185
-185
-190
-191
-193
-193
-193
-186
-186
-189
-189
-191
-191
-192
-189
-189
-187
-186
-185
-189
-194
-193
-191
-191
-187
-187
-188
-186
-189
-191
-193
-192
-189
-184
-185
-185
-187
-189
-191
-192
-187
-183
-180
-177
-178
-180
-179
-177
-181
-169
-162
-160
-157
-157
-157
-164
-166
-163
-163
-167
-173
-179
-186
-186
-185
-184
-186
-184
-185
-190
-194
-194
-195
-194
-192
-189
-187
-190
-193
-195
-195
-192
-191
-186
-184
-180
-166
-145
-117
-87
-59
-52
-76
-123
-187
-256
-295
-306
-280
-249
-228
-215
-208
-195
-193
-183
-182
-180
-178
-177
-178
-181
-177
-179
-176
-175
-171
-170
-170
-172
-172
-173
-169
-168
-166
-162
-161
-163
-166
-167
-167
-162
-159
-154
-156
-156
-155
-155
-155
-152
-149
-146
-143
-142
-142
-143
-141
-137
-128
-125
-120
-118
-116
-111
-110
-106
-99
-94
-89
-88
-87
-86
-84
-85
-81
-79
-80
-75
-81
-87
-93
-96
-99
-106
-110
-113
-120
-128
-136
-139
-150
-153
-155
-158
-161
-166
-173
-176
-179
-182
-183
-181
-180
-180
-185
-185
-187
-189
-185
-181
-178
-179
-180
-181
-182
-183
-181
-179
-176
-176
-179
-181
-182
-184
-181
-180
-179
-176
-178
-180
-183
-185
-183
-183
-183
-181
-182
-186
-189
-189
-190
-188
-185
-185
-186
-190
-193
-196
-197
-195
-196
-193
-191
-192
-194
-195
-198
-198
-198
-196
-195
-196
-197
-199
-201
-200
-198
-198
-195
-195
-194
-197
-199
-201
-200
-196
-196
-196
-195
-199
-201
-201
-201
-202
-196
-194
-194
-195
-198
-197
-201
-199
-195
-196
-191
-194
-194
-197
-198
-198
-195
-193
-192
-196
-196
-196
-197
-198
-197
-193
-190
-193
-196
-199
-201
-198
-199
-197
-195
-196
-194
-194
-200
-201
-197
-193
-191
-191
-193
-195
-196
-199
-199
-197
-194
-191
-190
-192
-196
-197
-198
-196
-192
-187
-185
-186
-186
-186
-186
-181
-178
-169
-165
-165
-164
-164
-167
-173
-171
-170
-166
-172
-176
-182
-186
-192
-191
-191
-191
-190
-191
-194
-199
-204
-201
-199
-198
-196
-196
-196
-199
-201
-198
-200
-192
-191
-193
-193
-190
-186
-151
-118
-77
-40
-12
-1
-24
-72
-138
-209
-266
-287
-273
-248
-226
-211
-205
-199
-192
-190
-185
-188
-186
-188
-189
-192
-190
-185
-180
-180
-181
-182
-182
-183
-182
-180
-176
-174
-175
-176
-177
-177
-177
-174
-170
-165
-167
-166
-170
-170
-168
-164
-161
-161
-158
-157
-160
-159
-158
-154
-151
-144
-140
-138
-138
-137
-137
-134
-127
-120
-114
-110
-109
-106
-106
-101
-96
-94
-90
-85
-83
-85
-83
-85
-87
-82
-83
-86
-91
-97
-107
-113
-117
-123
-126
-135
-144
-150
-157
-159
-172
-174
-175
-172
-177
-181
-185
-187
-189
-189
-187
-187
-187
-189
-194
-194
-195
-195
-193
-191
-186
-187
-190
-192
-194
-196
-190
-190
-187
-189
-187
-187
-187
-190
-189
-187
-189
-185
-185
-189
-193
-192
-193
-192
-190
-188
-189
-193
-194
-195
-198
-200
-195
-195
-196
-198
-200
-201
-203
-200
-198
-196
-196
-197
-198
-200
-203
-204
-205
-201
-197
-198
-200
-202
-203
-205
-203
-201
-196
-195
-198
-197
-202
-202
-204
-200
-200
-199
-198
-199
-201
-203
-203
-202
-200
-195
-197
-200
-201
-202
-203
-204
-202
-197
-195
-197
-200
-201
-205
-203
-202
-198
-198
-201
-203
-205
-205
-202
-201
-200
-199
-199
-199
-202
-204
-205
-202
-199
-197
-194
-198
-199
-206
-204
-202
-199
-197
-194
-196
-198
-199
-202
-201
-200
-198
-194
-192
-194
-197
-199
-201
-198
-197
-197
-198
-195
-195
-193
-191
-189
-185
-182
-177
-175
-175
-169
-165
-165
-167
-167
-167
-170
-177
-179
-181
-192
-195
-196
-193
-192
-197
-200
-199
-200
-201
-201
-196
-195
-198
-199
-201
-202
-206
-201
-198
-194
-193
-196
-190
-187
-154
-120
-88
-60
-47
-59
-91
-141
-202
-258
-298
-308
-286
-264
-243
-230
-217
-205
-193
-187
-185
-187
-192
-194
-193
-194
-188
-183
-180
-178
-179
-183
-183
-183
-184
-181
-180
-174
-173
-174
-175
-176
-176
-174
-174
-167
-166
-168
-167
-168
-165
-164
-161
-154
-150
-151
-154
-152
-150
-146
-142
-137
-132
-133
-129
-128
-125
-122
-116
-109
-99
-93
-89
-90
-89
-86
-81
-78
-69
-65
-65
-67
-70
-72
-73
-77
-76
-81
-92
-100
-107
-113
-121
-127
-132
-135
-143
-151
-157
-160
-169
-171
-170
-171
-170
-173
-181
-183
-187
-188
-186
-184
-181
-183
-182
-185
-188
-189
-185
-185
-181
-183
-183
-184
-184
-184
-185
-185
-181
-180
-179
-182
-183
-185
-185
-183
-180
-178
-178
-180
-184
-183
-185
-185
-186
-182
-183
-184
-187
-187
-189
-190
-188
-183
-184
-185
-190
-193
-192
-192
-190
-189
-187
-188
-189
-189
-191
-193
-192
-190
-186
-189
-189
-190
-192
-196
-196
-191
-187
-188
-187
-188
-191
-196
-195
-192
-188
-185
-188
-188
-187
-190
-192
-195
-188
-187
-185
-187
-189
-190
-193
-192
-188
-183
-182
-185
-188
-188
-187
-188
-185
-183
-185
-186
-184
-186
-188
-189
-188
-188
-185
-182
-183
-186
-187
-190
-188
-183
-183
-184
-184
-189
-190
-192
-194
-189
-184
-184
-183
-184
-188
-186
-185
-181
-176
-168
-170
-174
-176
-175
-167
-162
-157
-151
-151
-153
-160
-164
-167
-167
-167
-171
-175
-177
-183
-187
-186
-191
-191
-187
-185
-186
-189
-194
-196
-197
-194
-190
-186
-185
-185
-185
-187
-188
-190
-183
-167
-142
-102
-63
-27
-7
-11
-43
-98
-163
-233
-282
-287
-282
-235
-211
-199
-187
-179
-178
-178
-179
-181
-183
-179
-178
-175
-174
-172
-175
-176
-173
-172
-167
-166
-163
-163
-164
-165
-168
-167
-166
-163
-158
-161
-163
-160
-161
-160
-157
-151
-148
-149
-148
-149
-148
-147
-144
-143
-137
-133
-132
-128
-128
-128
-123
-117
-111
-107
-103
-100
-98
-96
-94
-89
-79
-74
-75
-70
-69
-69
-67
-64
-62
-59
-63
-68
-72
-75
-86
-91
-95
-102
-108
-118
-130
-138
-144
-149
-154
-153
-158
-162
-169
-175
-177
-177
-176
-172
-170
-172
-174
-176
-177
-182
-180
-179
-176
-173
-177
-174
-176
-176
-177
-176
-174
-171
-171
-171
-174
-177
-177
-176
-173
-171
-172
-172
-173
-172
-177
-178
-174
-175
-175
-177
-180
-179
-182
-181
-179
-177
-176
-177
-180
-183
-182
-182
-182
-179
-177
-179
-183
-185
-187
-190
-188
-186
-185
-182
-182
-183
-184
-187
-188
-188
-186
-181
-180
-183
-184
-187
-188
-185
-182
-178
-181
-180
-185
-187
-187
-184
-181
-178
-177
-181
-179
-185
-183
-183
-180
-181
-178
-179
-179
-181
-185
-187
-188
-186
-182
-180
-178
-183
-182
-184
-182
-180
-177
-178
-175
-183
-180
-181
-182
-179
-179
-176
-178
-179
-181
-188
-186
-183
-182
-179
-176
-178
-180
-181
-182
-179
-176
-175
-175
-176
-177
-179
-180
-181
-179
-175
-172
-172
-173
-174
-175
-177
-177
-173
-167
-163
-164
-161
-160
-162
-157
-149
-143
-138
-136
-139
-145
-150
-154
-153
-152
-153
-159
-162
-169
-171
-175
-177
-176
-171
-172
-174
-177
-178
-181
-180
-180
-176
-173
-174
-176
-178
-179
-180
-177
-174
-173
-165
-146
-120
-88
-49
-14
4
-6
-48
-111
-179
-201
-267
-261
-236
-209
-197
-187
-181
-175
-173
-170
-171
-168
-169
-165
-165
-165
-165
-170
-168
-162
-159
-160
-159
-161
-162
-159
-158
-157
-156
-157
-155
-154
-159
-158
-159
-156
-155
-149
-147
-143
-143
-142
-140
-141
-137
-132
-133
-134
-131
-128
-128
-122
-115
-113
-106
-102
-99
-99
-96
-94
-87
-81
-75
-72
-69
-65
-65
-66
-63
-57
-51
-55
-56
-59
-60
-66
-69
-69
-75
-84
-92
-104
-112
-118
-125
-132
-135
-142
-145
-149
-157
-160
-164
-166
-166
-162
-163
-164
-168
-168
-171
-175
-170
-164
-164
-164
-169
-172
-173
-169
-168
-168
-164
-163
-163
-163
-167
-168
-166
-163
-163
-161
-162
-162
-163
-168
-167
-164
-165
-162
-165
-166
-168
-170
-171
-169
-167
-164
-169
-169
-175
-174
-174
-173
-169
-169
-170
-170
-175
-177
-179
-177
-174
-168
-167
-166
-171
-172
-174
-174
-173
-170
-169
-169
-170
-174
-173
-175
-175
-174
-170
-169
-171
-174
-173
-176
-178
-173
-171
-170
-167
-170
-170
-173
-172
-172
-172
-170
-168
-171
-171
-174
-173
-173
-169
-168
-168
-166
-170
-174
-173
-173
-171
-165
-165
-166
-170
-172
-172
-174
-169
-167
-169
-168
-168
-170
-171
-171
-172
-168
-167
-165
-165
-168
-170
-172
-169
-168
-165
-168
-168
-168
-167
-169
-166
-161
-156
-153
-151
-150
-149
-146
-142
-137
-134
-135
-138
-143
-147
-150
-152
-157
-159
-159
-160
-162
-163
-168
-172
-172
-171
-167
-169
-166
-168
-173
-174
-177
-172
-173
-169
-168
-168
-170
-171
-170
-160
-141
-112
-79
-50
-29
-32
-63
-113
-173
-229
-271
-287
-270
-245
-226
-210
-197
-184
-170
-160
-158
-161
-163
-163
-161
-157
-153
-153
-150
-152
-152
-155
-152
-149
-146
-143
-141
-145
-145
-148
-147
-147
-144
-140
-140
-139
-141
-142
-144
-141
-139
-135
-131
-132
-133
-133
-133
-130
-126
-120
-117
-115
-113
-111
-111
-108
-102
-94
-88
-85
-81
-82
-81
-76
-72
-64
-61
-57
-56
-54
-55
-56
-58
-55
-52
-51
-56
-59
-66
-75
-78
-84
-89
-92
-100
-108
-117
-122
-134
-137
-144
-146
-147
-148
-156
-159
-161
-159
-159
-159
-157
-157
-160
-164
-164
-168
-165
-164
-163
-160
-163
-165
-167
-167
-168
-165
-162
-161
-164
-163
-164
-166
-168
-165
-164
-161
-161
-161
-166
-165
-167
-168
-169
-168
-168
-168
-170
-171
-172
-172
-170
-166
-168
-169
-175
-173
-176
-177
-174
-173
-173
-173
-174
-173
-179
-177
-176
-174
-173
-172
-174
-175
-176
-178
-180
-180
-179
-175
-176
-178
-181
-182
-178
-177
-177
-174
-172
-176
-180
-181
-180
-182
-180
-177
-176
-172
-178
-179
-178
-178
-178
-176
-175
-174
-176
-181
-184
-180
-181
-177
-177
-175
-178
-181
-183
-181
-177
-176
-177
-175
-176
-181
-184
-185
-181
-179
-176
-175
-177
-179
-182
-181
-182
-184
-179
-178
-177
-177
-180
-182
-181
-181
-178
-176
-175
-177
-179
-181
-182
-180
-176
-175
-171
-175
-178
-177
-178
-174
-167
-166
-162
-159
-160
-157
-152
-152
-152
-149
-150
-152
-158
-158
-160
-169
-175
-174
-175
-176
-177
-181
-183
-185
-186
-184
-185
-182
-182
-183
-188
-186
-187
-185
-183
-183
-181
-180
-183
-182
-183
-176
-157
-130
-96
-57
-18
5
3
-33
-91
-162
-229
-266
-269
-247
-224
-207
-194
-184
-177
-172
-172
-176
-178
-179
-177
-173
-168
-170
-170
-172
-170
-172
-174
-172
-166
-163
-161
-162
-166
-165
-167
-167
-163
-161
-158
-158
-159
-160
-159
-159
-157
-152
-147
-149
-151
-149
-149
-145
-142
-137
-134
-130
-129
-129
-128
-123
-118
-113
-104
-97
-94
-95
-95
-89
-87
-82
-73
-69
-71
-68
-72
-72
-74
-76
-75
-76
-81
-86
-94
-104
-110
-118
-124
-127
-133
-136
-145
-149
-159
-162
-164
-164
-164
-169
-174
-175
-177
-180
-178
-176
-172
-176
-177
-174
-178
-182
-184
-178
-176
-178
-177
-176
-176
-179
-181
-181
-176
-174
-173
-175
-178
-180
-178
-179
-176
-175
-176
-179
-179
-183
-184
-182
-180
-179
-177
-180
-180
-181
-189
-187
-186
-184
-184
-183
-183
-187
-189
-189
-187
-186
-186
-186
-188
-188
-188
-190
-190
-189
-187
-185
-188
-188
-188
-193
-192
-192
-189
-184
-184
-188
-190
-192
-190
-188
-188
-186
-187
-186
-189
-189
-191
-188
-186
-183
-185
-189
-188
-189
-190
-192
-189
-186
-185
-186
-187
-189
-190
-190
-190
-188
-186
-184
-185
-187
-189
-188
-189
-187
-186
-185
-185
-186
-186
-188
-188
-186
-186
-185
-185
-182
-184
-188
-188
-186
-187
-179
-177
-179
-183
-183
-183
-183
-184
-182
-179
-179
-179
-182
-179
-176
-175
-169
-165
-165
-165
-161
-162
-156
-153
-149
-150
-154
-154
-158
-160
-164
-170
-173
-173
-173
-171
-178
-179
-183
-184
-186
-184
-179
-180
-180
-182
-187
-187
-185
-183
-179
-178
-180
-180
-183
-177
-157
-129
-101
-70
-53
-52
-55
-125
-182
-236
-280
-297
-283
-259
-238
-225
-213
-198
-181
-170
-169
-170
-174
-179
-176
-173
-173
-167
-166
-165
-167
-169
-168
-166
-163
-162
-158
-157
-158
-158
-160
-160
-157
-157
-155
-151
-152
-151
-152
-156
-149
-149
-147
-141
-141
-140
-142
-139
-139
-132
-125
-120
-118
-114
-116
-112
-110
-106
-100
-94
-89
-84
-83
-81
-78
-75
-68
-64
-63
-58
-62
-63
-69
-70
-71
-72
-76
-82
-90
-101
-108
-115
-123
-126
-130
-136
-141
-148
-154
-158
-159
-162
-164
-163
-164
-168
-167
-173
-172
-172
-171
-173
-172
-172
-175
-179
-178
-172
-174
-170
-169
-171
-172
-173
-177
-174
-172
-170
-167
-169
-168
-170
-174
-173
-171
-172
-170
-170
-172
-174
-176
-179
-181
-180
-178
-177
-176
-178
-180
-180
-182
-180
-178
-180
-180
-182
-181
-187
-190
-185
-184
-179
-180
-182
-185
-188
-189
-189
-183
-181
-179
-182
-186
-186
-188
-189
-183
-184
-182
-183
-183
-185
-189
-192
-188
-186
-181
-181
-181
-183
-187
-189
-188
-186
-184
-184
-184
-187
-189
-190
-188
-189
-184
-184
-183
-184
-185
-186
-189
-187
-186
-185
-185
-185
-186
-187
-192
-191
-188
-186
-183
-185
-187
-189
-192
-191
-191
-185
-186
-187
-189
-188
-191
-191
-189
-186
-183
-181
-184
-187
-187
-188
-186
-185
-184
-183
-180
-179
-179
-180
-178
-173
-170
-166
-167
-163
-160
-159
-161
-157
-160
-157
-161
-167
-170
-171
-179
-179
-181
-181
-183
-186
-191
-191
-192
-194
-196
-190
-190
-189
-192
-193
-196
-196
-193
-191
-187
-185
-186
-189
-190
-183
-165
-135
-99
-62
-26
-4
-9
-41
-98
-163
-225
-271
-282
-262
-254
-218
-204
-195
-189
-180
-180
-183
-185
-189
-188
-187
-184
-176
-175
-176
-179
-177
-179
-180
-178
-174
-170
-172
-170
-171
-173
-172
-171
-164
-162
-163
-164
-164
-165
-165
-163
-160
-157
-155
-153
-154
-155
-153
-155
-150
-143
-139
-137
-134
-133
-132
-132
-126
-118
-113
-108
-105
-104
-101
-99
-96
-90
-84
-82
-81
-83
-81
-82
-81
-81
-77
-79
-80
-87
-89
-104
-113
-118
-123
-130
-136
-143
-156
-160
-169
-173
-173
-171
-172
-177
-179
-183
-186
-187
-184
-187
-183
-186
-184
-185
-188
-190
-185
-183
-177
-180
-180
-184
-185
-187
-186
-182
-179
-179
-179
-183
-185
-185
-183
-183
-177
-177
-181
-181
-182
-188
-188
-184
-184
-180
-183
-183
-185
-187
-187
-188
-186
-185
-185
-187
-193
-188
-192
-193
-188
-188
-186
-188
-194
-196
-195
-197
-195
-192
-187
-190
-192
-194
-193
-193
-192
-191
-188
-189
-190
-192
-196
-197
-198
-194
-194
-193
-190
-194
-196
-197
-199
-197
-197
-196
-194
-192
-201
-200
-201
-199
-195
-193
-192
-193
-197
-197
-198
-200
-198
-194
-192
-193
-194
-196
-196
-198
-195
-193
-190
-192
-193
-196
-197
-198
-197
-193
-191
-188
-190
-193
-194
-195
-196
-193
-192
-188
-188
-190
-193
-193
-196
-195
-191
-188
-187
-188
-190
-190
-191
-187
-181
-177
-177
-177
-177
-175
-174
-170
-162
-161
-159
-164
-169
-170
-174
-174
-176
-182
-181
-183
-188
-188
-190
-192
-191
-192
-190
-192
-192
-196
-198
-199
-198
-196
-192
-190
-189
-190
-189
-192
-190
-184
-166
-137
-105
-72
-56
-58
-93
-144
-207
-261
-290
-289
-267
-242
-225
-214
-202
-189
-182
-181
-183
-185
-185
-187
-183
-178
-176
-174
-178
-179
-179
-179
-176
-177
-172
-166
-171
-172
-173
-174
-173
-173
-167
-163
-164
-165
-165
-167
-166
-164
-161
-158
-157
-159
-157
-155
-156
-153
-146
-140
-135
-134
-131
-130
-131
-129
-121
-113
-107
-101
-98
-96
-93
-89
-84
-78
-73
-71
-71
-71
-71
-73
-72
-73
-72
-73
-80
-88
-98
-105
-112
-117
-119
-125
-131
-142
-145
-158
-163
-164
-164
-165
-167
-174
-176
-176
-182
-184
-180
-176
-175
-179
-179
-184
-188
-186
-182
-181
-180
-181
-184
-185
-187
-185
-182
-179
-177
-176
-179
-180
-180
-182
-181
-180
-177
-181
-179
-179
-185
-187
-187
-184
-182
-183
-181
-186
-187
-189
-190
-188
-184
-188
-187
-184
-189
-190
-192
-193
-190
-190
-188
-188
-190
-194
-195
-193
-192
-192
-188
-188
-193
-194
-196
-197
-195
-192
-190
-188
-184
-191
-193
-190
-192
-190
-188
-187
-187
-192
-192
-194
-194
-193
-188
-186
-187
-189
-190
-190
-192
-192
-188
-186
-187
-189
-190
-192
-192
-191
-191
-186
-187
-189
-190
-192
-192
-196
-191
-189
-185
-186
-188
-188
-191
-190
-188
-190
-187
-186
-186
-190
-190
-193
-192
-190
-187
-188
-189
-192
-189
-188
-185
-184
-179
-174
-170
-171
-173
-174
-170
-165
-159
-155
-154
-160
-166
-168
-171
-171
-172
-176
-176
-178
-182
-186
-189
-191
-189
-188
-188
-191
-194
-191
-197
-198
-197
-194
-190
-188
-191
-191
-194
-193
-192
-191
-184
-166
-142
-114
-81
-49
-27
-21
-36
-78
-136
-205
-227
-291
-286
-256
-231
-215
-205
-198
-191
-188
-189
-189
-189
-186
-182
-181
-182
-183
-185
-183
-182
-178
-175
-173
-175
-174
-178
-179
-174
-174
-174
-173
-172
-175
-174
-173
-172
-168
-165
-163
-162
-163
-161
-163
-160
-160
-154
-149
-147
-147
-144
-148
-147
-142
-137
-134
-128
-122
-120
-119
-117
-114
-108
-100
-95
-91
-91
-92
-91
-90
-89
-84
-83
-83
-86
-87
-92
-97
-99
-101
-106
-115
-124
-131
-139
-147
-152
-156
-162
-163
-173
-178
-177
-183
-186
-186
-185
-182
-184
-184
-185
-191
-192
-192
-188
-184
-184
-186
-190
-192
-192
-191
-188
-188
-185
-187
-190
-189
-191
-190
-189
-184
-184
-183
-185
-184
-189
-192
-191
-191
-186
-188
-188
-190
-197
-200
-199
-196
-196
-191
-192
-198
-199
-200
-198
-198
-195
-196
-195
-195
-196
-202
-202
-201
-198
-195
-196
-196
-200
-202
-204
-203
-202
-199
-198
-198
-200
-203
-205
-204
-203
-200
-197
-199
-201
-202
-203
-205
-205
-201
-198
-198
-199
-204
-203
-203
-201
-201
-199
-201
-200
-201
-204
-205
-203
-201
-201
-197
-198
-202
-204
-205
-204
-208
-201
-201
-199
-200
-201
-203
-204
-201
-201
-198
-195
-197
-197
-199
-201
-202
-198
-196
-196
-194
-198
-199
-199
-199
-198
-198
-192
-194
-196
-199
-205
-204
-204
-201
-197
-197
-194
-196
-197
-199
-197
-196
-190
-184
-182
-186
-187
-187
-183
-178
-171
-165
-163
-163
-169
-176
-179
-180
-178
-178
-180
-183
-188
-195
-199
-200
-199
-197
-198
-197
-199
-200
-205
-203
-203
-201
-197
-196
-198
-199
-201
-200
-199
-196
-182
-159
-132
-101
-69
-41
-34
-51
-91
-148
-210
-263
-277
-280
-257
-232
-217
-207
-197
-190
-188
-191
-194
-195
-192
-189
-188
-185
-186
-190
-189
-189
-186
-184
-181
-181
-184
-183
-182
-183
-182
-178
-176
-175
-175
-175
-177
-179
-181
-176
-171
-164
-167
-167
-166
-169
-167
-164
-161
-156
-155
-154
-153
-152
-148
-144
-136
-134
-127
-118
-119
-118
-117
-112
-108
-100
-95
-93
-92
-92
-92
-89
-88
-88
-87
-85
-90
-91
-102
-111
-116
-120
-126
-132
-140
-151
-158
-166
-169
-174
-172
-173
-178
-182
-187
-191
-192
-192
-189
-185
-186
-189
-191
-197
-195
-197
-191
-189
-186
-183
-188
-190
-190
-190
-186
-185
-189
-190
-188
-189
-189
-190
-190
-188
-186
-183
-186
-188
-189
-192
-190
-190
-189
-188
-188
-190
-192
-195
-196
-194
-192
-188
-191
-194
-197
-199
-200
-199
-195
-191
-192
-195
-196
-201
-200
-197
-195
-195
-196
-197
-199
-200
-202
-200
-196
-193
-190
-191
-193
-194
-198
-198
-194
-195
-190
-189
-191
-193
-196
-201
-198
-194
-191
-191
-192
-196
-197
-200
-199
-196
-193
-192
-193
-197
-197
-199
-199
-199
-195
-193
-190
-192
-193
-196
-197
-196
-192
-189
-188
-189
-191
-194
-195
-193
-192
-190
-189
-190
-193
-194
-196
-194
-191
-189
-189
-185
-186
-187
-196
-197
-193
-191
-187
-181
-178
-180
-180
-184
-182
-177
-169
-165
-159
-156
-159
-159
-161
-159
-161
-163
-163
-165
-167
-177
-183
-183
-182
-180
-182
-184
-186
-188
-190
-189
-189
-189
-185
-189
-190
-192
-194
-190
-192
-186
-186
-184
-184
-184
-177
-156
-126
-90
-55
-38
-47
-84
-142
-208
-266
-295
-287
-263
-236
-219
-212
-203
-194
-183
-179
-177
-175
-181
-183
-181
-179
-175
-174
-170
-168
-166
-170
-171
-171
-170
-166
-168
-164
-163
-164
-166
-164
-165
-163
-158
-156
-156
-157
-157
-158
-157
-154
-149
-147
-144
-144
-143
-144
-141
-141
-138
-136
-127
-125
-123
-121
-121
-118
-112
-107
-102
-98
-95
-94
-94
-88
-84
-80
-76
-76
-72
-76
-75
-77
-75
-75
-75
-75
-81
-85
-92
-101
-107
-114
-119
-121
-129
-135
-139
-150
-157
-161
-162
-161
-162
-168
-171
-175
-178
-178
-176
-175
-173
-175
-177
-184
-181
-183
-184
-183
-176
-176
-178
-180
-183
-183
-180
-175
-172
-171
-173
-176
-179
-177
-177
-176
-175
-174
-175
-180
-181
-180
-180
-180
-180
-176
-177
-183
-185
-186
-186
-185
-185
-183
-181
-183
-183
-188
-187
-190
-190
-187
-187
-185
-188
-190
-192
-190
-192
-190
-186
-186
-188
-190
-192
-193
-192
-191
-187
-187
-190
-191
-192
-196
-197
-194
-190
-189
-189
-187
-190
-192
-192
-190
-188
-184
-188
-188
-188
-190
-192
-192
-189
-189
-187
-191
-192
-194
-196
-196
-191
-191
-189
-189
-188
-190
-191
-192
-191
-190
-188
-186
-187
-187
-193
-195
-195
-193
-189
-186
-191
-193
-194
-194
-194
-195
-191
-187
-187
-185
-191
-194
-193
-191
-189
-187
-184
-185
-185
-190
-191
-191
-188
-185
-186
-179
-177
-179
-178
-178
-172
-164
-160
-155
-154
-155
-161
-166
-167
-165
-165
-165
-172
-175
-182
-188
-187
-184
-183
-185
-184
-187
-191
-194
-195
-193
-191
-188
-189
-191
-192
-194
-196
-196
-191
-188
-186
-183
-180
-155
-124
-85
-42
-8
-2
-36
-101
-176
-250
-286
-278
-247
-215
-198
-194
-190
-187
-187
-188
-188
-187
-187
-185
-183
-185
-185
-184
-178
-178
-176
-175
-175
-180
-180
-178
-172
-171
-166
-169
-170
-171
-170
-172
-168
-166
-163
-163
-161
-162
-164
-164
-162
-159
-155
-153
-149
-149
-150
-149
-146
-141
-137
-129
-128
-125
-124
-122
-119
-113
-110
-102
-99
-97
-98
-91
-88
-89
-84
-79
-78
-77
-81
-84
-86
-91
-91
-94
-100
-108
-115
-123
-135
-140
-147
-150
-155
-162
-167
-168
-178
-181
-184
-184
-181
-180
-184
-185
-188
-189
-191
-187
-188
-184
-186
-185
-185
-189
-197
-189
-186
-181
-181
-180
-181
-186
-189
-188
-184
-181
-182
-181
-182
-183
-187
-186
-185
-185
-185
-186
-187
-190
-190
-192
-193
-189
-189
-189
-191
-192
-198
-197
-195
-195
-194
-194
-196
-197
-199
-201
-202
-198
-195
-195
-194
-196
-195
-199
-202
-202
-195
-194
-194
-195
-194
-198
-200
-200
-200
-195
-193
-198
-197
-202
-202
-201
-198
-196
-193
-198
-199
-198
-201
-202
-202
-202
-200
-199
-197
-199
-201
-204
-201
-199
-194
-191
-195
-199
-202
-203
-203
-203
-198
-193
-193
-195
-196
-196
-200
-198
-195
-194
-196
-194
-194
-198
-199
-200
-197
-194
-193
-192
-194
-196
-197
-197
-197
-193
-192
-189
-190
-193
-195
-196
-195
-193
-188
-186
-187
-186
-182
-185
-184
-178
-175
-168
-163
-162
-163
-163
-164
-163
-164
-163
-163
-167
-174
-181
-184
-186
-187
-184
-182
-185
-186
-193
-197
-197
-191
-193
-188
-191
-193
-195
-195
-196
-195
-190
-189
-188
-190
-190
-187
-171
-145
-113
-80
-55
-55
-59
-123
-183
-245
-288
-299
-282
-256
-234
-219
-208
-198
-186
-182
-181
-179
-181
-182
-183
-178
-177
-176
-170
-169
-173
-175
-176
-175
-174
-171
-167
-165
-164
-166
-168
-168
-169
-165
-162
-158
-158
-159
-160
-162
-159
-157
-152
-147
-147
-144
-143
-144
-142
-139
-132
-124
-120
-118
-115
-115
-113
-109
-100
-92
-89
-85
-82
-85
-78
-76
-72
-66
-60
-59
-59
-58
-63
-68
-69
-71
-72
-74
-81
-93
-103
-110
-117
-122
-125
-131
-137
-143
-152
-157
-163
-165
-168
-169
-169
-171
-172
-176
-177
-177
-175
-176
-173
-173
-174
-176
-179
-180
-180
-177
-175
-175
-175
-177
-179
-179
-177
-173
-171
-168
-170
-171
-173
-177
-178
-175
-173
-172
-170
-175
-177
-182
-186
-181
-179
-177
-176
-177
-180
-183
-183
-183
-180
-179
-180
-180
-181
-183
-186
-188
-186
-181
-179
-178
-181
-188
-189
-189
-189
-183
-182
-180
-181
-184
-184
-189
-190
-185
-184
-182
-181
-182
-185
-190
-189
-185
-182
-181
-182
-181
-184
-184
-186
-186
-183
-179
-179
-182
-185
-187
-185
-185
-182
-179
-177
-180
-181
-183
-185
-186
-184
-183
-180
-179
-180
-183
-184
-187
-185
-185
-182
-180
-181
-181
-182
-182
-183
-185
-181
-181
-180
-180
-182
-184
-184
-183
-179
-179
-178
-179
-182
-184
-183
-185
-181
-177
-180
-180
-179
-180
-178
-175
-168
-166
-169
-163
-162
-161
-159
-154
-150
-151
-148
-150
-157
-160
-166
-166
-172
-174
-174
-177
-180
-185
-184
-185
-186
-184
-181
-181
-185
-187
-187
-188
-189
-184
-182
-181
-179
-181
-182
-186
-181
-167
-142
-109
-72
-33
-6
2
-18
-62
-125
-196
-259
-282
-284
-246
-223
-207
-194
-185
-178
-176
-179
-181
-184
-184
-180
-178
-174
-172
-171
-174
-178
-179
-177
-174
-169
-167
-169
-168
-168
-167
-169
-166
-161
-160
-158
-159
-160
-161
-159
-157
-155
-148
-146
-145
-145
-143
-144
-140
-137
-133
-129
-124
-123
-122
-119
-115
-110
-104
-98
-95
-92
-88
-89
-85
-79
-76
-75
-70
-70
-68
-71
-73
-70
-72
-73
-76
-80
-84
-97
-105
-112
-119
-125
-129
-136
-144
-150
-160
-165
-168
-170
-170
-170
-171
-177
-182
-187
-184
-181
-178
-178
-178
-178
-183
-184
-185
-182
-178
-175
-179
-178
-179
-179
-180
-180
-175
-173
-173
-174
-176
-177
-179
-179
-175
-175
-172
-176
-176
-181
-180
-183
-182
-180
-179
-179
-185
-188
-190
-186
-183
-183
-180
-183
-184
-187
-188
-188
-188
-184
-181
-185
-184
-187
-190
-190
-191
-188
-185
-182
-184
-186
-188
-191
-191
-189
-187
-187
-185
-182
-187
-189
-186
-187
-186
-183
-181
-181
-183
-185
-185
-186
-186
-185
-182
-180
-183
-186
-189
-190
-187
-186
-184
-184
-182
-186
-187
-190
-188
-190
-187
-186
-185
-186
-187
-190
-190
-189
-188
-186
-184
-186
-186
-190
-189
-191
-186
-182
-181
-182
-184
-186
-189
-191
-186
-183
-180
-181
-183
-185
-187
-187
-185
-188
-185
-184
-184
-184
-188
-189
-187
-184
-180
-178
-175
-177
-176
-178
-175
-170
-168
-159
-155
-155
-154
-152
-154
-157
-161
-163
-159
-161
-168
-174
-180
-179
-179
-183
-180
-179
-183
-186
-189
-192
-192
-186
-184
-186
-187
-188
-188
-192
-189
-185
-184
-182
-181
-179
-169
-150
-121
-82
-47
-27
-30
-61
-112
-173
-234
-272
-277
-259
-235
-229
-207
-200
-193
-181
-175
-174
-175
-176
-178
-179
-179
-173
-170
-166
-166
-168
-168
-172
-171
-169
-166
-163
-163
-162
-162
-165
-162
-162
-160
-156
-151
-152
-152
-155
-156
-156
-149
-145
-141
-139
-136
-137
-137
-134
-131
-127
-121
-116
-112
-110
-107
-105
-101
-97
-90
-83
-79
-76
-76
-75
-73
-71
-67
-61
-59
-62
-64
-70
-73
-78
-83
-90
-95
-102
-105
-122
-128
-136
-142
-150
-149
-155
-162
-162
-169
-172
-171
-171
-168
-167
-170
-173
-173
-174
-175
-173
-171
-170
-169
-170
-171
-174
-174
-174
-171
-166
-166
-166
-167
-173
-171
-171
-168
-163
-162
-163
-167
-170
-172
-171
-170
-167
-168
-171
-171
-175
-176
-176
-173
-173
-170
-173
-171
-173
-178
-179
-180
-176
-172
-174
-174
-173
-178
-178
-179
-179
-176
-174
-175
-175
-176
-178
-180
-178
-177
-173
-173
-176
-175
-177
-180
-182
-178
-173
-171
-169
-173
-175
-179
-178
-175
-172
-171
-172
-174
-175
-180
-182
-177
-177
-174
-174
-173
-176
-175
-177
-176
-175
-172
-170
-174
-174
-180
-176
-178
-177
-172
-168
-170
-170
-176
-174
-176
-175
-175
-171
-170
-172
-172
-175
-175
-176
-172
-169
-168
-168
-170
-171
-172
-169
-169
-168
-166
-165
-164
-167
-167
-165
-162
-155
-154
-151
-150
-150
-147
-143
-141
-137
-136
-141
-145
-145
-148
-151
-158
-159
-161
-161
-162
-165
-172
-176
-175
-173
-171
-170
-172
-170
-171
-174
-176
-180
-175
-169
-168
-168
-168
-168
-172
-169
-148
-122
-84
-47
-34
0
-15
-52
-108
-172
-231
-269
-269
-247
-224
-206
-194
-185
-175
-164
-160
-162
-165
-167
-166
-164
-160
-157
-158
-159
-158
-160
-160
-157
-156
-154
-153
-152
-152
-152
-154
-153
-149
-146
-146
-143
-144
-146
-148
-145
-139
-136
-134
-134
-135
-134
-133
-132
-129
-127
-120
-115
-110
-109
-109
-103
-100
-95
-90
-83
-77
-75
-75
-70
-71
-65
-62
-58
-56
-59
-58
-58
-59
-58
-60
-56
-63
-65
-76
-81
-90
-95
-102
-107
-111
-116
-127
-135
-143
-145
-147
-151
-151
-153
-156
-161
-165
-166
-167
-169
-164
-164
-162
-165
-168
-167
-167
-162
-161
-157
-158
-158
-163
-163
-163
-161
-158
-154
-154
-155
-159
-165
-163
-162
-159
-157
-155
-157
-158
-164
-161
-162
-162
-159
-158
-162
-165
-167
-168
-169
-168
-165
-164
-162
-162
-167
-170
-170
-167
-167
-165
-165
-165
-168
-171
-170
-170
-169
-166
-165
-168
-170
-174
-175
-175
-171
-167
-167
-165
-165
-168
-172
-172
-170
-168
-166
-167
-168
-171
-170
-174
-172
-167
-164
-164
-160
-163
-166
-168
-167
-164
-162
-160
-158
-160
-164
-166
-165
-165
-163
-159
-159
-160
-160
-163
-164
-166
-166
-162
-160
-160
-162
-161
-163
-163
-162
-160
-157
-156
-159
-162
-160
-160
-158
-156
-157
-156
-156
-157
-158
-160
-161
-159
-155
-154
-154
-156
-157
-159
-159
-160
-155
-153
-149
-149
-151
-148
-148
-144
-140
-136
-130
-125
-123
-128
-130
-135
-134
-134
-131
-133
-140
-146
-151
-152
-155
-154
-153
-152
-152
-159
-162
-167
-161
-161
-157
-155
-157
-161
-164
-166
-162
-160
-159
-156
-153
-156
-153
-134
-105
-67
-23
11
25
24
-44
-114
-188
-240
-249
-223
-197
-177
-169
-159
-155
-153
-149
-151
-150
-151
-152
-152
-153
-151
-149
-146
-140
-141
-140
-142
-144
-144
-146
-145
-138
-135
-136
-137
-139
-138
-137
-137
-132
-128
-129
-131
-129
-130
-131
-126
-122
-118
-117
-116
-119
-118
-118
-111
-110
-103
-97
-95
-93
-92
-91
-85
-80
-72
-66
-63
-62
-63
-60
-58
-53
-50
-44
-47
-46
-49
-54
-55
-58
-59
-63
-69
-76
-85
-92
-101
-107
-112
-114
-117
-123
-130
-138
-141
-143
-146
-147
-144
-147
-147
-152
-153
-155
-154
-153
-152
-148
-150
-151
-154
-157
-153
-151
-148
-147
-146
-148
-153
-151
-151
-147
-147
-143
-144
-144
-149
-150
-151
-149
-149
-147
-144
-147
-152
-154
-155
-155
-155
-152
-152
-156
-157
-160
-160
-158
-158
-157
-154
-154
-154
-158
-160
-160
-161
-158
-155
-158
-159
-158
-161
-163
-163
-161
-161
-157
-156
-157
-158
-161
-163
-163
-159
-155
-156
-157
-159
-160
-160
-160
-159
-156
-157
-154
-156
-159
-160
-161
-158
-157
-154
-157
-157
-159
-160
-161
-159
-155
-152
-154
-154
-157
-158
-160
-160
-160
-157
-152
-153
-155
-160
-161
-163
-161
-160
-157
-158
-156
-158
-159
-159
-157
-152
-148
-150
-152
-155
-158
-158
-160
-157
-152
-149
-150
-153
-157
-158
-154
-149
-144
-139
-144
-144
-145
-145
-138
-132
-124
-118
-117
-118
-126
-130
-134
-136
-136
-140
-144
-146
-149
-152
-154
-157
-155
-154
-154
-155
-155
-157
-159
-164
-158
-157
-157
-156
-156
-156
-158
-160
-158
-149
-138
-114
-89
-64
-39
-22
-31
-60
-104
-161
-219
-262
-277
-262
-235
-207
-192
-180
-172
-169
-152
-150
-151
-154
-153
-147
-144
-143
-143
-144
-148
-148
-140
-137
-136
-137
-137
-139
-141
-140
-137
-135
-134
-132
-131
-132
-132
-136
-133
-129
-126
-124
-124
-125
-125
-125
-123
-122
-115
-108
-111
-107
-108
-108
-106
-100
-94
-86
-83
-83
-80
-78
-75
-70
-67
-58
-56
-53
-52
-53
-55
-54
-51
-49
-44
-51
-52
-59
-64
-70
-74
-77
-80
-88
-91
-103
-109
-114
-119
-124
-124
-128
-129
-135
-138
-142
-147
-146
-142
-140
-143
-145
-145
-148
-149
-149
-150
-147
-146
-147
-149
-151
-154
-152
-149
-144
-143
-146
-146
-148
-150
-149
-149
-143
-141
-143
-143
-147
-151
-151
-151
-149
-144
-147
-148
-152
-154
-157
-154
-153
-151
-151
-152
-157
-159
-160
-162
-162
-159
-157
-155
-159
-160
-160
-163
-160
-160
-158
-160
-160
-160
-160
-162
-163
-163
-160
-160
-161
-164
-167
-169
-169
-168
-163
-158
-160
-158
-163
-165
-164
-162
-162
-158
-158
-159
-163
-165
-167
-164
-162
-160
-157
-159
-162
-164
-163
-165
-165
-167
-162
-158
-160
-165
-165
-168
-171
-169
-165
-163
-164
-166
-167
-170
-168
-166
-165
-167
-165
-164
-167
-168
-170
-169
-165
-164
-166
-168
-168
-173
-174
-169
-167
-163
-165
-164
-166
-167
-168
-166
-163
-160
-159
-156
-156
-156
-156
-158
-155
-149
-140
-136
-134
-136
-140
-145
-146
-147
-143
-143
-145
-153
-157
-165
-164
-164
-164
-163
-164
-166
-171
-173
-173
-173
-175
-171
-172
-171
-176
-176
-174
-175
-171
-169
-166
-165
-153
-131
-103
-67
-23
9
23
2
-45
-108
-175
-235
-265
-260
-229
-208
-191
-186
-184
-173
-166
-167
-167
-164
-163
-168
-167
-165
-164
-163
-158
-156
-155
-157
-159
-160
-159
-154
-152
-149
-148
-153
-153
-154
-153
-150
-147
-142
-144
-143
-145
-147
-148
-145
-144
-139
-133
-134
-132
-134
-135
-129
-126
-122
-118
-114
-113
-113
-110
-108
-101
-97
-91
-87
-86
-83
-79
-78
-77
-73
-68
-59
-57
-62
-63
-65
-65
-67
-69
-71
-79
-86
-96
-106
-114
-120
-129
-134
-137
-140
-151
-155
-158
-160
-163
-161
-159
-162
-166
-168
-170
-169
-166
-163
-163
-163
-163
-165
-167
-167
-168
-167
-164
-162
-161
-167
-169
-167
-169
-164
-161
-160
-161
-160
-164
-166
-170
-167
-165
-163
-165
-168
-170
-172
-174
-173
-173
-171
-168
-170
-172
-177
-179
-179
-175
-173
-171
-173
-175
-178
-180
-180
-177
-179
-175
-174
-176
-178
-182
-183
-182
-178
-174
-175
-176
-179
-181
-185
-185
-179
-180
-178
-179
-178
-182
-181
-184
-185
-184
-180
-177
-180
-180
-182
-183
-183
-181
-179
-179
-178
-184
-187
-185
-186
-185
-184
-180
-178
-178
-181
-184
-183
-183
-180
-179
-176
-179
-181
-183
-185
-183
-180
-178
-176
-178
-178
-182
-183
-181
-179
-176
-178
-177
-175
-179
-177
-181
-181
-177
-174
-174
-175
-178
-181
-181
-180
-179
-176
-175
-174
-173
-174
-173
-170
-166
-164
-159
-156
-156
-151
-151
-149
-148
-150
-151
-152
-155
-156
-163
-167
-171
-170
-169
-170
-170
-173
-178
-181
-181
-178
-178
-175
-180
-181
-182
-184
-182
-180
-177
-175
-176
-175
-177
-168
-152
-126
-93
-61
-44
-40
-73
-117
-174
-231
-273
-282
-269
-242
-221
-211
-202
-195
-182
-174
-168
-170
-171
-172
-174
-174
-173
-167
-164
-163
-162
-165
-165
-167
-168
-164
-160
-156
-157
-157
-158
-160
-158
-156
-155
-152
-152
-150
-150
-154
-152
-151
-147
-143
-140
-141
-138
-137
-136
-135
-131
-126
-119
-120
-117
-114
-112
-108
-102
-97
-90
-86
-85
-85
-79
-77
-74
-68
-63
-61
-60
-60
-60
-61
-60
-63
-65
-64
-66
-73
-78
-86
-91
-97
-104
-109
-114
-124
-130
-139
-143
-147
-151
-153
-154
-154
-162
-165
-168
-168
-166
-164
-163
-164
-167
-173
-171
-171
-171
-167
-168
-169
-171
-172
-172
-172
-171
-169
-165
-168
-168
-168
-169
-171
-175
-169
-167
-162
-163
-164
-167
-168
-173
-170
-168
-167
-169
-171
-173
-175
-176
-176
-173
-173
-170
-172
-177
-176
-182
-178
-177
-177
-174
-174
-176
-179
-181
-182
-181
-178
-174
-172
-174
-176
-180
-181
-182
-178
-175
-174
-176
-179
-180
-180
-182
-179
-175
-173
-172
-172
-176
-176
-180
-179
-176
-176
-174
-176
-178
-178
-179
-178
-177
-171
-172
-171
-174
-175
-178
-177
-178
-174
-175
-175
-174
-176
-178
-179
-179
-174
-174
-174
-172
-176
-179
-180
-178
-176
-173
-173
-172
-177
-179
-182
-179
-177
-175
-176
-173
-177
-178
-181
-183
-181
-179
-173
-171
-173
-173
-178
-176
-172
-169
-164
-160
-159
-161
-163
-161
-157
-153
-147
-145
-148
-151
-156
-160
-163
-161
-163
-166
-167
-170
-173
-178
-179
-177
-179
-178
-178
-180
-181
-184
-186
-183
-184
-182
-179
-181
-183
-182
-183
-185
-181
-175
-158
-133
-104
-69
-37
-12
-3
-29
-77
-145
-167
-268
-279
-258
-227
-204
-190
-181
-175
-173
-176
-180
-183
-178
-172
-170
-170
-171
-172
-174
-174
-173
-169
-165
-164
-165
-169
-170
-169
-170
-166
-165
-163
-162
-162
-162
-164
-160
-159
-156
-153
-152
-151
-151
-154
-152
-149
-145
-144
-138
-138
-137
-139
-133
-130
-126
-119
-114
-110
-109
-107
-105
-103
-96
-92
-87
-83
-82
-85
-86
-84
-79
-75
-73
-72
-74
-80
-81
-88
-93
-95
-99
-101
-109
-117
-124
-133
-142
-145
-149
-151
-156
-162
-167
-171
-174
-174
-175
-171
-172
-174
-177
-179
-184
-181
-181
-179
-176
-174
-174
-177
-179
-178
-177
-176
-173
-173
-171
-176
-176
-179
-178
-177
-175
-175
-174
-172
-176
-176
-180
-178
-175
-172
-173
-175
-179
-181
-179
-181
-178
-176
-178
-177
-180
-185
-188
-189
-185
-184
-181
-182
-185
-187
-188
-189
-188
-184
-185
-182
-186
-186
-190
-192
-191
-184
-185
-183
-186
-188
-190
-190
-189
-186
-187
-185
-186
-186
-186
-189
-189
-186
-186
-184
-183
-183
-187
-189
-188
-187
-186
-183
-182
-182
-183
-186
-188
-189
-186
-187
-184
-184
-186
-187
-192
-189
-193
-190
-188
-188
-188
-189
-189
-193
-189
-192
-188
-184
-184
-187
-190
-191
-189
-187
-185
-184
-183
-187
-187
-189
-189
-187
-184
-180
-184
-185
-186
-189
-191
-189
-186
-183
-182
-185
-185
-183
-182
-182
-175
-169
-166
-164
-160
-160
-160
-159
-154
-158
-158
-161
-165
-171
-176
-180
-183
-184
-184
-184
-182
-185
-190
-193
-193
-192
-188
-186
-188
-189
-192
-193
-194
-191
-190
-185
-184
-184
-183
-172
-145
-113
-77
-40
-24
-36
-81
-141
-212
-260
-280
-266
-239
-232
-206
-199
-194
-185
-182
-181
-183
-182
-182
-182
-181
-184
-181
-178
-177
-171
-174
-172
-174
-177
-178
-173
-168
-166
-165
-167
-169
-171
-170
-168
-166
-163
-163
-161
-162
-162
-162
-163
-157
-151
-150
-150
-151
-149
-147
-142
-135
-131
-125
-123
-120
-117
-114
-112
-105
-100
-92
-88
-87
-91
-87
-86
-82
-78
-78
-79
-80
-82
-88
-92
-101
-105
-109
-109
-112
-123
-132
-139
-144
-152
-156
-161
-161
-165
-168
-171
-175
-177
-176
-175
-175
-176
-177
-179
-182
-180
-183
-179
-178
-174
-176
-177
-180
-182
-179
-175
-173
-173
-175
-175
-176
-177
-177
-175
-172
-172
-174
-175
-177
-179
-183
-179
-173
-173
-174
-176
-179
-180
-182
-183
-179
-175
-177
-178
-183
-184
-186
-183
-180
-175
-177
-178
-180
-183
-185
-184
-184
-183
-182
-182
-182
-184
-183
-188
-188
-182
-174
-177
-182
-182
-183
-188
-184
-180
-181
-178
-180
-181
-183
-185
-184
-181
-178
-178
-178
-183
-183
-182
-187
-183
-178
-173
-176
-176
-177
-180
-184
-181
-179
-177
-177
-176
-177
-179
-184
-182
-180
-179
-179
-178
-178
-179
-183
-180
-178
-175
-174
-173
-174
-175
-178
-181
-181
-182
-176
-174
-176
-179
-179
-181
-185
-182
-177
-176
-176
-179
-178
-178
-179
-175
-170
-164
-163
-161
-165
-164
-162
-156
-153
-143
-141
-140
-147
-153
-159
-161
-156
-158
-160
-164
-168
-173
-176
-177
-178
-174
-174
-176
-177
-180
-182
-185
-183
-181
-179
-176
-178
-176
-179
-178
-176
-175
-167
-148
-142
-96
-71
-43
-37
-49
-84
-133
-196
-252
-282
-275
-253
-227
-210
-198
-186
-177
-172
-171
-171
-171
-170
-168
-163
-162
-161
-164
-167
-166
-165
-161
-159
-157
-159
-159
-161
-161
-158
-154
-152
-150
-150
-154
-153
-155
-155
-148
-146
-142
-141
-143
-147
-145
-142
-139
-136
-129
-127
-128
-128
-128
-125
-122
-117
-110
-105
-103
-102
-102
-100
-96
-89
-78
-76
-74
-71
-73
-72
-75
-71
-71
-68
-71
-72
-80
-85
-92
-95
-98
-104
-110
-116
-126
-134
-141
-146
-146
-149
-150
-153
-159
-160
-164
-166
-167
-166
-165
-166
-167
-170
-172
-173
-172
-171
-168
-168
-167
-168
-173
-170
-171
-170
-171
-169
-168
-168
-168
-170
-169
-170
-167
-164
-166
-166
-168
-169
-171
-173
-172
-168
-162
-163
-169
-172
-176
-178
-174
-172
-170
-172
-174
-176
-179
-180
-179
-176
-173
-175
-174
-177
-179
-182
-179
-180
-176
-175
-177
-180
-182
-182
-184
-183
-179
-179
-179
-181
-181
-181
-183
-184
-181
-178
-179
-180
-182
-184
-184
-183
-181
-179
-178
-179
-179
-181
-186
-183
-180
-178
-175
-174
-178
-185
-185
-184
-181
-179
-179
-176
-179
-182
-183
-188
-185
-182
-179
-179
-178
-178
-182
-180
-183
-179
-178
-177
-176
-180
-182
-185
-184
-183
-179
-177
-178
-178
-178
-180
-184
-184
-182
-179
-176
-176
-178
-181
-183
-182
-181
-178
-176
-177
-176
-176
-175
-174
-171
-167
-161
-162
-162
-163
-158
-154
-151
-149
-145
-145
-149
-155
-157
-160
-165
-168
-170
-170
-171
-175
-177
-180
-185
-185
-181
-180
-178
-181
-181
-184
-189
-189
-182
-181
-180
-181
-180
-181
-179
-169
-148
-117
-81
-67
-14
-4
-20
-59
-114
-178
-234
-261
-259
-237
-218
-205
-194
-183
-175
-170
-170
-173
-177
-181
-179
-180
-174
-172
-170
-169
-170
-171
-174
-172
-169
-166
-165
-165
-167
-168
-169
-169
-166
-161
-159
-161
-159
-158
-161
-160
-158
-152
-151
-149
-147
-146
-149
-149
-141
-140
-136
-130
-130
-129
-125
-126
-120
-117
-109
-104
-102
-100
-101
-99
-98
-91
-84
-83
-84
-84
-82
-82
-83
-82
-82
-83
-85
-92
-99
-107
-112
-122
-129
-132
-140
-142
-155
-159
-165
-168
-167
-170
-168
-170
-173
-177
-179
-182
-182
-181
-177
-178
-175
-176
-179
-180
-179
-179
-180
-176
-178
-178
-179
-181
-181
-178
-177
-175
-175
-174
-177
-177
-179
-179
-177
-173
-173
-174
-177
-180
-184
-182
-181
-180
-179
-178
-180
-184
-187
-189
-187
-188
-183
-182
-188
-189
-190
-189
-190
-187
-188
-183
-181
-187
-188
-188
-191
-187
-186
-184
-185
-185
-190
-192
-191
-188
-187
-185
-186
-185
-188
-191
-192
-190
-190
-189
-189
-186
-189
-191
-194
-191
-189
-186
-183
-183
-186
-187
-193
-193
-187
-186
-183
-182
-187
-190
-189
-186
-190
-187
-182
-182
-182
-187
-188
-189
-190
-185
-182
-182
-186
-189
-188
-189
-187
-186
-182
-178
-179
-181
-185
-187
-191
-192
-189
-186
-182
-181
-183
-184
-189
-188
-183
-181
-177
-179
-178
-182
-183
-178
-173
-168
-165
-164
-169
-169
-165
-163
-158
-153
-154
-155
-159
-163
-165
-166
-169
-170
-172
-174
-175
-180
-182
-182
-186
-184
-182
-180
-180
-187
-189
-191
-191
-190
-188
-187
-185
-184
-186
-187
-189
-188
-180
-161
-136
-105
-76
-57
-57
-85
-134
-190
-245
-263
-295
-282
-259
-240
-223
-210
-200
-186
-179
-177
-182
-185
-183
-179
-174
-170
-171
-173
-174
-175
-176
-173
-172
-170
-168
-166
-168
-169
-171
-168
-164
-161
-159
-160
-164
-164
-162
-162
-157
-157
-153
-155
-153
-153
-155
-152
-147
-141
-138
-136
-136
-134
-132
-131
-128
-119
-115
-107
-106
-100
-101
-99
-93
-88
-81
-79
-78
-76
-74
-76
-73
-73
-67
-67
-69
-75
-83
-93
-97
-101
-106
-106
-116
-121
-130
-140
-149
-155
-160
-158
-160
-164
-165
-169
-170
-177
-174
-172
-169
-170
-172
-175
-179
-179
-180
-177
-173
-172
-169
-174
-175
-180
-178
-176
-175
-172
-170
-172
-172
-174
-176
-175
-175
-172
-171
-171
-173
-176
-177
-173
-173
-172
-172
-173
-175
-178
-179
-181
-181
-178
-176
-180
-180
-181
-183
-184
-185
-180
-179
-177
-181
-182
-185
-188
-186
-181
-183
-181
-182
-183
-185
-189
-185
-183
-182
-180
-180
-182
-186
-188
-187
-184
-183
-180
-179
-184
-184
-187
-185
-183
-182
-182
-182
-185
-188
-186
-186
-189
-185
-183
-182
-182
-185
-187
-187
-187
-183
-177
-177
-176
-180
-183
-185
-188
-184
-182
-180
-180
-178
-180
-183
-187
-184
-181
-178
-179
-181
-183
-184
-184
-185
-183
-181
-177
-177
-178
-179
-180
-181
-182
-181
-175
-173
-172
-179
-178
-174
-172
-168
-168
-164
-163
-162
-159
-159
-154
-151
-153
-155
-155
-160
-161
-168
-171
-174
-178
-177
-180
-183
-182
-185
-188
-188
-190
-186
-183
-184
-185
-187
-188
-188
-187
-184
-182
-181
-182
-183
-179
-165
-140
-104
-63
-28
0
-4
-33
-89
-159
-226
-269
-277
-252
-225
-207
-197
-189
-179
-175
-175
-175
-176
-177
-177
-180
-179
-174
-171
-173
-174
-170
-173
-176
-177
-176
-173
-169
-168
-167
-169
-170
-169
-168
-164
-161
-160
-163
-160
-161
-161
-161
-158
-153
-151
-152
-148
-148
-149
-146
-143
-137
-131
-129
-128
-125
-124
-121
-112
-108
-103
-99
-99
-94
-92
-90
-86
-84
-79
-79
-78
-78
-78
-82
-82
-84
-86
-91
-97
-103
-113
-121
-125
-130
-133
-139
-141
-153
-157
-166
-167
-169
-171
-171
-171
-171
-176
-179
-183
-185
-182
-180
-178
-179
-180
-179
-182
-181
-180
-178
-175
-173
-175
-179
-179
-180
-180
-178
-175
-173
-173
-176
-177
-177
-177
-179
-175
-174
-176
-177
-178
-181
-182
-182
-183
-180
-179
-183
-184
-189
-185
-185
-183
-185
-181
-180
-182
-184
-187
-188
-185
-182
-181
-183
-184
-184
-189
-190
-187
-183
-184
-182
-182
-184
-187
-190
-189
-186
-185
-185
-183
-186
-186
-189
-189
-187
-189
-183
-186
-188
-187
-190
-190
-189
-186
-181
-181
-180
-185
-184
-188
-187
-189
-183
-181
-185
-186
-187
-190
-187
-189
-183
-181
-182
-184
-186
-189
-191
-189
-187
-184
-181
-183
-183
-185
-188
-186
-185
-181
-180
-179
-183
-182
-186
-185
-183
-184
-183
-181
-181
-185
-185
-189
-185
-182
-179
-177
-180
-181
-185
-184
-182
-178
-173
-169
-170
-170
-170
-171
-169
-163
-155
-148
-146
-147
-150
-156
-160
-161
-158
-155
-156
-169
-174
-182
-185
-181
-182
-178
-179
-180
-184
-185
-188
-187
-185
-183
-182
-182
-181
-185
-184
-186
-184
-181
-179
-178
-172
-162
-141
-114
-86
-56
-38
-38
-66
-113
-172
-230
-271
-281
-262
-234
-215
-203
-194
-187
-184
-179
-175
-176
-175
-174
-176
-175
-175
-175
-173
-170
-167
-166
-166
-166
-168
-169
-168
-164
-160
-161
-160
-162
-163
-161
-161
-160
-158
-154
-155
-156
-159
-158
-159
-152
-144
-144
-144
-145
-144
-144
-144
-133
-128
-123
-120
-119
-117
-115
-111
-106
-102
-95
-89
-89
-84
-84
-82
-80
-76
-69
-65
-67
-66
-71
-70
-69
-70
-71
-72
-77
-84
-96
-102
-110
-115
-124
-127
-126
-137
-143
-149
-155
-156
-161
-159
-158
-160
-167
-169
-171
-173
-174
-169
-167
-169
-170
-169
-172
-173
-170
-169
-166
-165
-167
-170
-172
-173
-175
-169
-167
-163
-164
-165
-167
-169
-170
-169
-168
-165
-164
-168
-167
-172
-176
-175
-172
-169
-167
-171
-172
-175
-178
-178
-176
-171
-173
-172
-173
-176
-179
-181
-179
-176
-171
-172
-174
-177
-180
-182
-180
-178
-177
-176
-175
-179
-179
-181
-182
-181
-177
-175
-176
-178
-180
-180
-182
-182
-177
-174
-178
-178
-181
-182
-182
-182
-180
-176
-175
-175
-179
-179
-181
-183
-180
-176
-177
-176
-176
-177
-179
-181
-179
-175
-173
-173
-175
-177
-177
-178
-179
-177
-173
-172
-175
-177
-177
-183
-181
-178
-174
-173
-174
-175
-173
-178
-177
-177
-174
-174
-174
-177
-177
-176
-174
-175
-170
-166
-163
-161
-162
-163
-162
-159
-153
-146
-141
-138
-143
-146
-154
-156
-152
-153
-154
-158
-164
-166
-173
-172
-174
-175
-172
-168
-174
-177
-180
-181
-184
-182
-175
-173
-174
-174
-175
-177
-176
-175
-171
-159
-142
-116
-85
-52
-23
-15
-29
-69
-85
-194
-250
-274
-263
-234
-210
-196
-186
-179
-171
-168
-168
-169
-167
-168
-167
-161
-160
-163
-162
-163
-164
-163
-157
-155
-155
-156
-157
-156
-157
-156
-154
-152
-150
-150
-152
-154
-151
-149
-148
-144
-142
-142
-145
-144
-143
-141
-136
-132
-131
-128
-127
-128
-129
-123
-119
-114
-109
-107
-102
-102
-101
-99
-93
-87
-79
-80
-77
-77
-77
-77
-73
-68
-67
-66
-68
-71
-74
-81
-84
-90
-94
-97
-105
-113
-122
-130
-138
-141
-144
-146
-154
-159
-163
-166
-169
-170
-170
-170
-168
-168
-169
-173
-175
-175
-171
-170
-168
-169
-167
-170
-173
-175
-176
-170
-166
-164
-166
-167
-170
-172
-171
-170
-169
-168
-166
-168
-170
-171
-174
-171
-170
-170
-173
-174
-176
-178
-178
-177
-177
-176
-178
-176
-180
-184
-182
-181
-177
-177
-175
-176
-177
-182
-180
-181
-178
-176
-177
-176
-177
-180
-183
-185
-182
-180
-175
-178
-178
-178
-180
-181
-180
-177
-177
-173
-176
-180
-178
-180
-184
-181
-180
-181
-181
-178
-179
-180
-183
-180
-179
-177
-174
-176
-177
-179
-180
-180
-180
-174
-172
-178
-178
-183
-180
-180
-178
-177
-175
-175
-180
-182
-181
-181
-177
-176
-173
-171
-173
-179
-179
-178
-177
-174
-173
-170
-172
-178
-176
-179
-180
-180
-174
-175
-175
-177
-176
-181
-178
-177
-172
-174
-172
-172
-174
-174
-173
-167
-164
-160
-159
-155
-154
-150
-150
-149
-149
-149
-153
-155
-158
-159
-160
-167
-170
-170
-175
-172
-173
-175
-179
-182
-182
-183
-180
-181
-181
-184
-188
-189
-188
-182
-179
-179
-177
-178
-178
-170
-154
-123
-84
-45
-16
-10
-38
-85
-149
-212
-257
-261
-257
-219
-201
-193
-189
-183
-175
-170
-169
-172
-175
-175
-174
-175
-172
-170
-167
-167
-166
-166
-170
-169
-168
-165
-165
-164
-164
-166
-166
-166
-166
-160
-160
-158
-158
-154
-156
-158
-159
-157
-154
-155
-151
-149
-150
-149
-150
-147
-146
-141
-140
-133
-133
-134
-134
-130
-125
-119
-113
-108
-107
-107
-105
-103
-98
-91
-85
-81
-82
-83
-83
-80
-80
-77
-75
-76
-80
-85
-90
-99
-106
-112
-110
-120
-126
-131
-139
-146
-154
-159
-160
-163
-162
-168
-172
-175
-182
-179
-178
-175
-176
-175
-173
-175
-175
-174
-175
-171
-170
-170
-170
-172
-173
-177
-174
