72
73
70
71
72
64
55
46
37
31
26
26
26
23
22
29
34
34
36
42
55
76
115
171
208
229
238
238
280
345
319
254
188
123
57
-8
-74
-139
-153
-161
-147
-131
-105
-80
-64
-48
-35
-23
-15
-8
-10
-12
-11
-10
-13
-15
-8
-4
-6
-8
-9
-10
-11
-12
-12
-13
-16
-19
-22
-24
-23
-24
-27
-28
-29
-32
-35
-34
-31
-33
-37
-38
-39
-45
-52
-53
-54
-59
-64
-68
-72
-76
-80
-83
-86
-86
-86
-84
-80
-73
-67
-63
-57
-50
-42
-33
-23
-11
-4
2
9
17
23
28
31
33
34
34
40
48
47
43
43
45
45
46
41
40
40
40
39
38
38
38
38
38
38
38
37
37
41
44
42
40
38
36
37
38
38
37
34
32
33
34
34
33
31
30
30
32
35
36
35
34
33
32
33
32
30
32
34
32
30
31
32
33
34
34
34
33
32
36
38
37
36
35
34
34
34
35
36
36
37
40
43
47
48
47
49
53
57
61
63
65
64
61
60
61
56
48
35
22
19
16
13
10
13
16
15
14
12
12
21
34
52
83
133
176
209
220
207
234
299
290
224
159
93
27
-38
-104
-169
-187
-191
-177
-157
-132
-107
-86
-65
-52
-64
-30
-22
-25
-28
-30
-32
-30
-28
-31
-34
-33
-31
-27
-24
-23
-23
-27
-30
-30
-30
-31
-34
-38
-40
-40
-40
-41
-42
-43
-46
-49
-53
-57
-57
-55
-55
-57
-62
-67
-69
-71
-77
-82
-84
-86
-92
-98
-95
-92
-93
-94
-92
-89
-84
-76
-62
-50
-43
-36
-28
-20
-10
-2
2
6
11
15
17
19
23
24
25
26
25
25
27
28
27
26
25
23
21
20
22
24
26
21
16
18
20
21
21
16
12
13
15
19
22
21
20
18
16
16
15
12
10
10
10
10
10
10
11
13
14
13
12
12
12
13
14
13
9
5
5
4
8
8
5
2
4
6
5
4
5
6
5
5
9
12
12
13
17
20
21
22
23
26
30
33
35
37
39
41
43
46
49
47
43
44
47
40
30
24
19
10
1
3
6
3
0
-2
-4
0
5
11
22
53
91
148
192
208
225
245
271
304
293
227
162
96
31
-35
-100
-166
-192
-196
-185
-166
-139
-111
-93
-79
-65
-50
-44
-39
-41
-45
-45
-42
-43
-44
-43
-42
-43
-44
-43
-42
-44
-46
-48
-49
-43
-39
-44
-48
-46
-44
-46
-48
-51
-52
-53
-55
-57
-60
-64
-66
-66
-68
-71
-75
-81
-80
-77
-80
-85
-90
-95
-96
-96
-98
-98
-100
-102
-96
-90
-86
-81
-73
-64
-55
-45
-34
-23
-13
-5
1
5
9
13
16
19
21
22
21
20
21
22
21
20
21
20
17
19
23
24
23
22
22
24
27
28
28
26
24
24
24
23
22
18
14
16
17
13
11
18
22
20
18
19
19
15
12
11
10
9
8
9
10
10
11
13
13
11
10
11
13
15
14
11
11
13
13
10
9
8
8
8
9
10
9
8
9
10
10
13
23
30
30
31
34
37
40
42
43
45
47
48
48
51
56
58
57
55
53
40
24
22
25
18
7
6
7
8
8
12
14
13
13
24
38
67
101
154
198
218
239
266
289
307
294
228
163
97
32
-34
-99
-165
-190
-182
-166
-146
-116
-83
-65
-55
-47
-40
-31
-22
-20
-21
-22
-22
-22
-21
-22
-24
-24
-24
-27
-30
-30
-30
-32
-34
-32
-31
-35
-36
-29
-25
-29
-32
-33
-36
-41
-44
-43
-43
-46
-51
-56
-58
-59
-63
-68
-73
-77
-79
-81
-82
-81
-82
-85
-86
-85
-84
-82
-81
-80
-75
-70
-61
-53
-44
-34
-22
-11
-5
2
11
19
23
26
26
26
25
24
25
25
23
22
21
21
23
23
21
20
20
20
21
24
27
26
23
24
27
27
28
25
26
26
26
24
22
22
22
21
20
20
20
23
26
26
25
22
20
19
18
17
16
16
15
13
13
16
18
17
15
13
12
13
15
17
17
15
14
13
13
15
12
8
8
8
10
12
14
16
19
23
28
33
38
42
46
48
50
52
53
53
50
48
49
47
41
32
21
15
11
6
0
-2
-1
3
7
9
11
14
17
36
57
108
160
191
220
206
201
266
311
246
180
115
49
-16
-82
-147
-191
-188
-181
-168
-148
-119
-97
-82
-67
-54
-44
-36
-32
-32
-33
-35
-35
-33
-32
-31
-30
-31
-32
-33
-34
-34
-36
-34
-41
-42
-43
-44
-47
-50
-50
-50
-54
-58
-58
-58
-57
-56
-57
-60
-66
-70
-72
-76
-81
-86
-90
-93
-95
-96
-97
-100
-104
-107
-109
-106
-100
-98
-97
-90
-83
-76
-69
-60
-51
-40
-30
-21
-12
-8
-4
2
8
11
14
15
16
19
22
22
22
21
20
18
17
20
19
13
11
13
14
13
12
12
12
11
13
17
16
13
14
17
17
15
14
13
12
14
12
10
10
10
11
12
13
13
7
3
10
16
15
13
10
8
7
6
7
7
4
4
8
10
10
10
9
8
7
8
11
12
13
14
14
14
15
17
19
22
20
25
24
27
30
34
38
43
48
46
45
52
57
53
50
50
47
36
28
22
15
8
2
-2
-3
-1
0
-1
-1
1
4
7
29
58
107
161
191
217
210
199
258
323
261
195
130
64
-1
-67
-132
-187
-190
-190
-179
-162
-129
-102
-86
-70
-53
-40
-34
-30
-30
-31
-33
-33
-31
-30
-31
-32
-32
-32
-31
-31
-33
-32
-29
-29
-31
-32
-32
-34
-37
-36
-32
-35
-38
-38
-38
-40
-42
-44
-47
-52
-56
-58
-60
-60
-61
-66
-71
-74
-78
-83
-87
-90
-93
-96
-97
-95
-93
-91
-85
-77
-69
-62
-52
-41
-30
-20
-11
-3
1
5
12
6
24
28
27
26
28
30
29
28
27
26
24
24
31
35
31
29
32
33
30
28
28
28
28
28
29
30
29
28
29
30
31
30
27
30
35
35
33
30
27
26
26
28
30
25
20
21
22
24
26
23
20
21
22
24
26
25
24
25
26
24
22
21
21
23
23
20
18
18
18
17
16
17
17
15
19
26
31
35
35
33
34
37
41
46
45
44
45
46
49
52
57
61
56
52
52
50
43
35
26
19
16
13
10
8
9
10
11
12
13
17
23
41
65
112
168
201
227
236
241
285
335
281
216
150
212
19
-47
-112
-172
-172
-170
-153
-133
-102
-76
-63
-51
-37
-26
-20
-16
-18
-20
-19
-18
-21
-21
-19
-19
-21
-22
-22
-22
-22
-22
-21
-21
-23
-20
-15
-15
-17
-21
-25
-26
-26
-29
-32
-35
-38
-38
-38
-39
-41
-47
-52
-53
-55
-61
-66
-65
-64
-66
-68
-70
-72
-73
-74
-73
-71
-68
-63
-57
-49
-39
-30
-21
-12
-3
8
20
27
35
35
33
36
41
42
40
40
40
40
40
41
42
40
38
39
40
40
40
42
44
42
40
40
40
39
38
38
37
35
34
33
33
35
36
35
34
33
32
32
35
39
38
35
34
33
32
32
29
28
27
26
28
30
28
26
26
26
25
24
24
25
28
29
26
24
22
20
20
20
20
19
17
17
19
20
20
20
20
20
21
29
38
40
39
41
45
47
49
50
50
55
60
61
62
60
58
60
61
54
45
32
22
24
25
20
16
17
18
17
18
22
24
25
35
52
94
150
192
228
223
203
248
313
271
206
140
75
9
-56
-122
-187
-186
-183
-166
-147
-116
-88
-69
-51
-36
-24
-21
-17
-13
-10
-10
-10
-10
-10
-9
-8
-9
-11
-13
-14
-15
-15
-13
-14
-17
-18
-17
-17
-19
-19
-17
-16
-16
-17
-19
-24
-20
-33
-36
-39
-42
-46
-50
-52
-54
-58
-63
-70
-76
-76
-76
-77
-79
-85
-86
-80
-76
-75
-72
-67
-59
-48
-38
-28
-19
-11
-1
9
15
20
26
33
37
41
42
41
40
40
38
36
36
36
34
32
36
40
38
36
35
34
36
38
39
40
40
40
39
38
39
39
36
33
31
30
29
27
25
24
23
22
22
23
25
26
26
26
26
25
23
22
22
22
22
21
20
19
18
19
20
19
18
18
19
24
28
27
26
24
22
23
24
21
20
20
20
20
21
24
28
31
34
39
42
45
49
53
56
59
59
57
60
56
63
60
59
57
46
36
31
25
18
12
10
8
11
14
15
16
17
19
23
35
56
93
146
185
213
220
211
250
315
289
224
158
93
27
-38
-104
-169
-182
-189
-178
-165
-139
-114
-93
-74
-61
-50
-44
-38
-35
-32
-35
-38
-37
-35
-31
-29
-32
-34
-35
-36
-36
-36
-37
-39
-41
-42
-42
-44
-48
-49
-47
-47
-49
-51
-53
-52
-49
-48
-49
-54
-59
-64
-70
-73
-76
-81
-86
-88
-90
-93
-96
-100
-104
-106
-108
-107
-105
-101
-96
-91
-85
-78
-70
-61
-52
-44
-35
-24
-16
-9
-2
4
9
14
16
17
22
29
30
31
32
31
29
30
26
26
22
18
20
22
21
20
21
22
20
18
20
22
24
26
26
26
26
26
25
24
23
21
18
16
16
15
13
12
13
12
9
11
15
16
16
16
15
13
11
10
10
11
12
10
8
8
8
6
4
4
4
4
5
9
11
8
6
8
10
8
6
6
9
15
18
19
22
26
30
33
34
35
35
33
37
45
47
49
46
41
40
40
28
16
9
2
-2
-6
-5
-4
-6
-8
-5
-2
0
5
14
33
66
108
159
189
196
234
298
306
270
216
150
84
19
-47
-112
-174
-234
-218
-183
-161
-140
-111
-80
-70
-78
-48
-36
-35
-34
-35
-36
-34
-32
-34
-36
-36
-36
-39
-40
-34
-31
-35
-38
-38
-39
-44
-46
-45
-45
-47
-48
-49
-50
-51
-52
-52
-55
-60
-62
-63
-62
-59
-63
-69
-73
-77
-82
-86
-91
-96
-101
-106
-105
-104
-106
-107
-102
-98
-95
-89
-78
-68
-59
-51
-43
-35
-27
-19
-12
-6
-2
2
6
9
13
15
17
18
17
16
16
20
25
25
23
22
22
22
24
23
22
19
16
19
22
23
24
23
22
24
26
27
28
29
30
29
28
26
24
23
22
22
21
19
19
21
22
21
20
20
18
15
18
25
25
23
22
23
24
24
23
20
17
14
16
18
18
18
16
14
16
18
21
25
28
30
32
34
35
37
40
43
46
49
51
53
55
56
56
54
51
48
45
35
22
19
17
11
5
6
9
7
4
4
4
7
11
22
38
75
114
162
198
201
224
289
314
264
208
142
77
11
-54
-120
-172
-214
-217
-190
-165
-140
-111
-79
-64
-56
-43
-29
-22
-17
-17
-19
-20
-20
-20
-20
-23
-26
-26
-26
-27
-28
-28
-28
-31
-34
-36
-37
-33
-30
-29
-29
-32
-35
-38
-40
-39
-40
-44
-48
-52
-54
-55
-58
-61
-65
-70
-73
-75
-75
-73
-76
-81
-84
-87
-88
-88
-86
-86
-80
-74
-68
-61
-50
-39
-28
-19
-10
-2
6
13
18
22
22
22
24
26
26
26
27
27
25
24
24
24
23
21
19
18
18
22
29
29
27
26
25
25
27
26
24
24
24
24
24
23
22
24
26
24
22
20
18
20
22
24
24
16
13
17
20
19
17
14
13
15
16
15
14
13
12
13
17
21
19
15
16
19
17
13
12
14
12
10
14
18
15
13
20
26
26
27
31
35
39
43
47
50
48
48
53
57
62
60
52
49
52
49
40
30
19
14
9
8
8
7
5
4
5
7
9
11
10
31
50
102
153
191
221
200
194
259
294
229
163
98
32
-34
-99
-165
-203
-203
-193
-174
-152
-129
-106
-83
-65
-48
-36
-27
-24
-25
-26
-25
-23
-21
-20
-20
-20
-21
-26
-31
-31
-30
-28
-26
-30
-34
-33
-32
-31
-30
-32
-35
-40
-43
-36
-33
-37
-41
-45
-48
-50
-53
-55
-59
-65
-68
-69
-71
-73
-77
-82
-85
-87
-90
-93
-89
-83
-78
-73
-68
-63
-58
-52
-43
-34
-26
-17
-8
1
8
15
21
26
26
27
32
37
40
42
42
42
42
42
41
40
40
39
37
37
39
40
39
39
41
39
35
37
41
42
41
40
41
40
42
38
40
37
34
32
30
30
30
30
30
28
26
26
27
31
33
27
24
25
26
26
25
23
22
21
21
23
22
19
20
23
24
23
22
22
25
29
30
30
29
27
25
24
28
32
31
30
34
38
40
42
46
50
51
54
61
66
65
65
69
72
71
69
67
59
46
38
34
29
24
22
23
24
25
26
25
30
38
48
57
92
130
174
218
218
222
287
340
293
242
177
111
46
-20
-85
-144
-186
-203
-170
-143
-123
-98
-65
-46
-41
-32
-20
-14
-13
-12
-13
-15
-17
-17
-15
-15
-17
-18
-17
-15
-13
-12
-12
-13
-12
-17
-18
-19
-20
-22
-24
-23
-22
-26
-30
-30
-31
-35
-38
-37
-36
-38
-40
-42
-47
-54
-59
-61
-64
-70
-72
-73
-74
-75
-75
-73
-72
-71
-64
-56
-45
-34
-25
-17
-8
1
9
16
21
26
31
36
39
42
42
42
44
46
44
42
44
46
45
44
45
45
41
39
41
42
42
42
41
40
40
40
40
39
37
37
39
42
45
44
41
40
40
40
40
39
38
34
30
33
36
34
32
32
32
31
31
35
38
37
36
35
34
33
32
29
29
32
32
26
25
27
28
27
26
27
26
23
29
38
41
43
44
45
47
46
54
58
56
54
60
66
66
66
72
75
70
66
67
66
59
51
43
35
28
24
23
22
23
23
20
20
24
30
36
54
78
123
177
209
235
252
266
302
341
283
218
152
86
21
-45
-110
-168
-167
-164
-148
-130
-99
-74
-65
-52
-32
-17
-13
-10
-12
-14
-15
-15
-13
-14
-18
-19
-17
-16
-16
-18
-21
-22
-23
-22
-19
-20
-23
-24
-25
-26
-27
-31
-36
-36
-36
-40
-44
-46
-48
-50
-52
-53
-55
-62
-68
-65
-63
-67
-72
-78
-82
-83
-84
-85
-86
-86
-84
-80
-73
-64
-56
-50
-41
-31
-21
-12
-2
8
14
19
21
23
25
24
30
32
29
26
25
24
25
26
24
22
17
15
19
22
23
23
19
16
16
16
16
15
12
10
10
11
13
12
9
9
11
12
12
12
12
12
11
10
10
9
7
5
4
3
2
0
-2
-2
-2
-1
0
-3
-5
-1
2
3
3
0
-2
-2
-2
-2
-3
-6
-8
-9
-9
-6
-3
-1
2
5
6
7
11
15
20
25
26
27
28
28
28
30
32
34
28
22
22
21
8
-2
-5
-9
-16
-21
-16
-12
-14
-16
-16
-16
-14
-9
-2
20
55
99
150
175
184
218
263
270
261
208
143
77
12
-54
-119
-185
-250
-230
-254
-187
-169
-140
-114
-103
-92
-78
-66
-60
-56
-57
-58
-56
-54
-53
-52
-53
-54
-55
-56
-53
-54
-58
-60
-60
-61
-63
-65
-67
-68
-68
-68
-69
-70
-70
-70
-70
-72
-75
-79
-83
-88
-92
-94
-96
-100
-104
-106
-108
-110
-113
-119
-124
-121
-118
-117
-116
-118
-118
-110
-104
-99
-93
-86
-77
-68
-59
-50
-41
-33
-28
-24
-19
-14
-8
-3
0
3
3
1
-3
-7
-8
-6
-10
-14
-13
-12
-13
-14
-11
-9
-14
-18
-15
-12
-11
-10
-11
-12
-12
-12
-11
-10
-13
-15
-17
-18
-17
-16
-17
-19
-21
-22
-21
-19
-17
-16
-17
-18
-17
-20
-25
-25
-26
-23
-24
-24
-24
-24
-24
-23
-22
-26
-30
-28
-25
-20
-17
-20
-22
-22
-22
-23
-24
-24
-24
-25
-26
-25
-24
-25
-22
-15
-11
-9
-5
-1
3
7
10
13
14
15
19
23
26
28
23
18
20
20
4
-10
-14
-19
-26
-31
-25
-20
-22
-24
-22
-20
-18
-11
0
25
64
108
158
177
174
213
278
269
224
164
99
33
-32
-98
-163
-217
-269
-249
-221
-196
-170
-142
-116
-102
-89
-80
-72
-67
-62
-64
-65
-61
-58
-57
-56
-58
-59
-56
-55
-59
-62
-61
-60
-60
-61
-63
-65
-67
-68
-67
-70
-76
-73
-66
-68
-73
-76
-79
-83
-87
-90
-88
-98
-102
-103
-104
-106
-108
-112
-116
-120
-124
-122
-120
-117
-114
-112
-109
-105
-100
-95
-87
-76
-65
-53
-43
-34
-27
-21
-14
-8
-7
-9
-4
4
6
6
6
5
3
1
0
1
-2
-6
-4
-2
-1
0
-1
-2
-2
-2
0
2
3
4
2
0
2
3
0
-2
0
1
-2
-4
-3
-2
-2
-2
-1
-1
-3
-2
1
2
3
3
1
0
-1
-1
1
1
-2
-3
-4
0
4
1
-2
-2
-2
1
4
7
10
10
10
10
10
10
10
8
6
6
6
6
8
12
15
18
21
23
29
36
39
41
42
43
46
49
53
57
54
58
49
50
43
35
23
12
5
0
0
0
2
4
6
8
9
11
17
29
50
88
144
186
213
223
217
253
318
298
233
167
102
36
-29
-95
-160
-175
-181
-164
-144
-115
-85
-73
-62
-47
-32
-27
-22
-25
-28
-26
-24
-23
-22
-21
-20
-19
-18
-20
-22
-23
-24
-24
-25
-27
-28
-28
-28
-28
-30
-34
-34
-30
-30
-33
-36
-39
-42
-45
-47
-49
-55
-61
-63
-66
-68
-70
-73
-76
-81
-86
-86
-86
-84
-82
-81
-79
-74
-68
-62
-55
-47
-39
-31
-22
-11
-2
6
14
21
24
25
32
41
44
45
46
47
46
43
42
43
41
37
37
36
40
40
39
38
39
40
41
42
43
44
42
40
42
43
39
36
38
39
36
34
33
32
31
31
33
33
30
31
36
38
38
38
37
35
33
32
32
32
31
29
27
28
30
28
26
26
26
27
28
30
32
30
28
31
34
32
31
35
38
40
42
44
47
49
51
54
57
59
63
70
74
78
77
72
70
70
68
65
50
34
31
29
28
26
27
28
25
22
25
28
31
36
47
66
107
148
190
219
222
249
314
332
286
231
165
100
34
-31
-97
-151
-198
-192
-160
-137
-119
-93
-64
-49
-38
-28
-17
-14
-11
-11
-10
-10
-6
-9
-12
-13
-14
-10
-6
-8
-10
-11
-12
-14
-16
-18
-20
-22
-24
-23
-23
-28
-29
-27
-27
-30
-32
-33
-34
-35
-36
-36
-40
-46
-50
-53
-55
-57
-64
-71
-73
-75
-77
-78
-79
-80
-80
-79
-67
-56
-50
-45
-38
-30
-21
-12
-2
5
10
17
25
31
34
38
42
45
47
48
48
49
51
52
51
48
45
44
43
43
45
44
41
40
40
41
44
44
44
41
38
45
52
49
46
48
50
49
48
45
42
41
40
41
42
41
40
39
38
38
37
35
35
38
39
37
36
35
34
33
32
33
32
29
28
29
30
30
30
30
32
34
42
50
51
52
54
56
58
60
63
66
66
67
71
73
70
68
68
64
56
48
41
36
32
30
29
28
29
30
29
29
31
33
35
53
72
124
179
207
234
223
217
282
331
266
200
135
69
4
-62
-127
-174
-177
-174
-157
-136
-109
-86
-66
-49
-33
-23
-17
-13
-11
-10
-10
-10
-10
-10
-11
-12
-12
-14
-17
-19
-21
-19
-15
-17
-22
-24
-26
-19
-12
-16
-20
-23
-26
-27
-29
-33
-37
-42
-46
-46
-47
-51
-55
-58
-61
-64
-68
-72
-74
-75
-76
-75
-77
-82
-81
-76
-71
-67
-62
-57
-49
-41
-28
-15
-7
-14
7
12
24
36
36
36
38
40
41
42
42
41
37
34
36
38
38
38
39
40
39
38
39
40
40
41
43
43
41
39
37
38
41
40
37
36
35
34
35
35
33
29
26
32
38
36
34
33
32
31
30
30
29
25
22
21
20
19
18
19
20
22
23
21
21
23
24
24
24
23
21
19
21
25
22
17
17
19
20
20
24
29
30
28
35
42
45
48
51
54
57
60
59
58
60
62
61
59
55
47
33
24
23
17
4
1
7
9
7
7
9
10
9
16
29
57
89
137
188
200
205
256
311
280
314
179
113
48
-18
-83
-146
-196
-231
-202
-176
-155
-132
-101
-76
-61
-49
-40
-33
-30
-28
-29
-29
-26
-25
-27
-29
-31
-34
-37
-36
-33
-34
-37
-38
-39
-40
-40
-42
-45
-48
-51
-52
-52
-50
-48
-53
-58
-59
-60
-64
-68
-72
-77
-82
-86
-86
-87
-91
-94
-95
-98
-103
-105
-102
-99
-96
-94
-93
-91
-87
-82
-74
-68
-62
-52
-40
-31
-22
-14
-7
-5
-3
3
10
10
10
10
10
10
10
9
8
7
6
5
4
3
2
4
6
4
2
2
2
5
7
9
9
7
6
5
4
4
2
-1
-2
-3
-1
3
3
1
-1
-3
-4
-4
-3
-4
-4
-4
-3
-2
-2
-2
-6
-10
-8
-6
-9
-12
-13
-14
-12
-10
-10
-10
-7
-6
-5
-4
-4
-6
-10
-12
-12
-12
-13
-11
-7
-5
-3
1
5
6
7
9
11
19
26
27
28
31
34
31
28
28
26
12
1
-7
-14
-21
-26
-26
-26
-25
-24
-24
-23
-21
-17
-9
3
20
62
120
161
196
189
166
210
275
233
168
102
37
-29
-94
-160
-225
-235
-245
-224
-202
-180
-156
-129
-104
-92
-80
-68
-60
-60
-60
-59
-58
-58
-59
-62
-62
-57
-55
-57
-58
-59
-61
-63
-64
-65
-68
-71
-72
-72
-72
-71
-70
-71
-73
-75
-76
-76
-75
-72
-78
-84
-87
-90
-94
-98
-104
-108
-111
-114
-115
-118
-125
-130
-128
-126
-127
-126
-119
-113
-107
-99
-90
-83
-77
-66
-54
-45
-38
-30
-22
-16
-9
-6
-3
-1
1
2
2
7
12
9
6
6
6
4
2
3
4
2
0
2
4
2
0
2
4
3
3
6
8
9
10
11
11
8
6
5
4
3
-1
-5
-2
3
3
1
0
0
-1
-3
1
8
6
4
4
4
5
6
5
4
3
2
2
2
0
-2
-2
-2
-1
0
0
1
6
8
8
9
12
14
15
18
21
22
22
24
27
31
35
36
35
38
43
44
44
41
40
25
12
11
9
1
-6
-5
-4
-5
-6
-5
-4
-2
3
12
28
54
94
150
189
212
228
239
272
319
293
228
162
97
31
-34
-100
-165
-183
-192
-180
-164
-131
-97
-83
-70
-57
-44
-36
-28
-29
-30
-31
-32
-31
-30
-32
-34
-34
-34
-35
-36
-38
-39
-35
-32
-33
-36
-40
-42
-43
-45
-47
-49
-51
-53
-55
-55
-53
-57
-63
-64
-65
-66
-65
-69
-76
-78
-80
-85
-90
-94
-98
-101
-104
-101
-98
-98
-96
-89
-82
-76
-69
-60
-49
-35
-23
-12
-4
1
6
10
13
16
18
18
19
21
22
23
24
23
20
17
21
27
26
28
22
22
22
22
23
24
22
20
23
26
23
20
22
24
23
22
24
26
27
28
28
26
22
20
20
21
24
23
18
16
17
18
18
18
17
15
13
17
23
22
19
18
18
18
18
17
16
15
14
15
16
16
16
15
14
15
16
18
21
24
27
31
35
37
38
39
43
48
50
50
52
55
60
66
64
59
58
57
53
49
39
29
21
12
12
12
13
14
13
12
15
18
22
32
56
90
145
191
219
238
244
272
327
325
259
194
128
63
-3
-68
-134
-164
-178
-169
-149
-123
-94
-80
-70
-52
-32
-23
-15
-17
-14
-19
-16
-18
-20
-22
-24
-21
-18
-20
-22
-22
-22
-22
-22
-23
-24
-24
-24
-24
-24
-27
-30
-34
-37
-39
-42
-46
-50
-53
-53
-51
-53
-58
-65
-72
-70
-65
-69
-75
-79
-83
-87
-90
-89
-88
-91
-94
-86
-80
-76
-70
-61
-52
-43
-32
-16
-5
0
7
15
20
20
21
24
27
29
29
27
26
27
28
29
30
30
29
27
30
35
34
31
29
27
26
28
28
28
23
18
22
26
25
24
24
24
23
23
27
30
29
28
29
30
28
26
23
22
23
23
20
18
19
20
19
18
18
15
9
12
19
20
20
20
20
19
20
16
16
13
10
8
6
9
12
10
8
10
12
13
16
23
28
28
28
29
31
34
37
39
42
46
48
48
52
58
57
52
50
49
42
34
27
21
14
7
5
3
2
2
3
4
2
0
8
16
32
54
105
151
187
208
192
205
270
283
217
152
86
21
-45
-110
-176
-213
-229
-219
-193
-168
-145
-117
-89
-72
-59
-45
-30
-28
-29
-30
-31
-31
-28
-32
-36
-37
-38
-39
-40
-40
-40
-39
-38
-39
-40
-43
-46
-44
-42
-43
-44
-45
-47
-50
-53
-56
-59
-62
-65
-68
-70
-69
-71
-76
-82
-88
-89
-87
-87
-89
-94
-99
-100
-100
-99
-98
-97
-96
-88
-79
-72
-65
-57
-48
-38
-28
-20
-11
-2
5
11
14
14
15
18
20
20
19
17
16
17
19
21
22
22
18
12
14
21
22
22
22
21
20
21
25
28
25
22
22
22
22
22
21
20
21
22
23
24
26
28
29
30
28
25
21
18
19
19
17
16
15
14
14
14
15
14
11
13
17
17
15
14
15
15
13
12
14
13
12
10
8
10
12
12
12
10
8
10
14
21
26
25
25
28
30
32
35
38
41
43
45
48
52
56
56
53
52
51
48
45
36
26
18
11
8
5
4
4
4
4
3
2
10
19
33
53
103
150
188
212
198
209
274
291
225
160
94
29
-37
-102
-168
-204
-217
-209
-186
-162
-138
-108
-76
-60
-49
-37
-24
-22
-23
-24
-25
-25
-23
-24
-26
-28
-30
-29
-28
-30
-32
-34
-36
-34
-32
-30
-28
-29
-30
-32
-34
-34
-35
-39
-42
-43
-46
-50
-52
-52
-53
-57
-61
-66
-69
-71
-73
-75
-78
-81
-86
-91
-92
-91
-91
-94
-91
-88
-83
-78
-69
-61
-52
-42
-31
-19
-7
3
9
15
18
21
25
28
29
30
30
31
33
34
33
33
35
34
30
30
35
36
36
36
35
32
29
31
35
34
36
28
26
28
30
30
30
28
26
26
26
31
33
29
26
27
28
26
24
23
22
21
20
21
21
19
20
24
24
21
22
26
28
27
26
27
26
23
23
25
25
23
20
18
21
24
27
30
31
32
36
41
47
52
51
51
55
58
57
58
63
64
58
56
60
56
45
37
31
24
17
14
15
18
21
22
21
20
20
26
33
55
79
132
186
210
234
247
261
295
314
249
183
118
52
-13
-79
-144
-185
-175
-163
-149
-128
-98
-76
-61
-49
-37
-29
-23
-21
-23
-22
-18
-16
-15
-16
-19
-20
-21
-22
-22
-23
-25
-27
-26
-29
-28
-29
-30
-32
-34
-32
-30
-29
-28
-30
-32
-35
-38
-40
-44
-50
-54
-56
-59
-64
-67
-69
-72
-78
-81
-84
-86
-85
-83
-81
-80
-79
-74
-69
-62
-55
-49
-43
-33
-23
-12
-2
5
12
16
20
26
32
35
38
40
42
41
40
40
40
38
36
36
36
37
38
38
38
39
39
36
36
40
41
39
38
39
39
37
36
36
36
35
33
31
30
30
32
34
31
28
30
32
35
38
35
32
31
30
30
30
30
30
28
26
27
28
25
24
25
26
25
25
27
28
29
34
40
42
42
45
49
51
53
54
54
57
54
65
68
70
72
67
62
69
73
62
51
37
26
23
20
18
16
14
12
14
16
15
16
20
28
41
72
115
157
199
209
204
250
315
284
227
163
98
32
-33
-99
-164
-194
-222
-192
-163
-146
-126
-91
-60
-48
-37
-29
-21
-17
-14
-15
-16
-18
-20
-22
-24
-23
-22
-21
-20
-20
-21
-23
-22
-18
-17
-19
-20
-20
-23
-27
-28
-29
-32
-35
-37
-39
-40
-40
-43
-46
-51
-56
-61
-66
-62
-59
-66
-72
-75
-78
-80
-83
-86
-88
-88
-88
-86
-81
-74
-66
-56
-47
-38
-29
-20
-10
1
6
11
14
17
20
23
26
29
29
27
27
26
28
26
26
26
26
26
28
30
28
26
26
26
26
26
24
22
21
20
20
20
21
22
21
20
20
20
21
22
23
24
23
20
17
16
16
16
17
16
13
11
9
10
12
12
12
11
10
15
20
19
18
17
16
16
16
15
14
12
10
12
14
13
13
16
18
17
17
20
24
28
32
36
38
38
40
43
45
47
48
48
51
55
56
56
53
50
40
30
27
23
16
10
8
6
5
4
6
7
4
5
13
27
48
88
146
189
217
224
213
248
313
291
226
160
95
29
-36
-102
-167
-183
-191
-174
-153
-123
-152
-80
-68
-58
-47
-35
-24
-27
-30
-29
-28
-28
-28
-30
-33
-36
-38
-36
-34
-34
-34
-35
-37
-40
-43
-45
-45
-42
-40
-41
-44
-47
-51
-55
-55
-53
-56
-61
-62
-62
-67
-73
-76
-78
-87
-96
-93
-90
-92
-94
-93
-92
-94
-96
-94
-92
-88
-83
-74
-65
-57
-48
-38
-27
-17
-10
-6
1
10
14
15
17
19
20
19
21
25
22
17
19
23
24
23
22
24
20
16
24
32
28
24
25
26
28
30
28
26
24
22
22
22
21
20
19
18
18
18
17
16
17
18
17
16
15
12
7
10
16
15
11
10
9
9
11
11
12
7
6
12
18
15
12
11
10
10
10
8
6
7
8
7
6
8
11
14
17
20
23
26
32
39
42
42
43
45
46
46
50
56
52
44
42
43
37
29
20
11
3
-4
-1
2
4
6
5
4
7
11
16
27
53
89
145
188
207
226
246
270
299
282
216
151
85
20
-46
-111
-177
-192
-183
-167
-149
-122
-93
-80
-70
-54
-38
-35
-33
-32
-32
-27
-22
-22
-22
-23
-24
-24
-24
-25
-26
-29
-32
-32
-32
-33
-34
-35
-36
-36
-36
-39
-40
-39
-38
-39
-43
-48
-52
-55
-58
-61
-65
-69
-73
-77
-79
-81
-85
-89
-94
-90
-97
-94
-94
-94
-92
-90
-87
-83
-72
-63
-58
-51
-39
-27
-18
-10
-3
4
10
16
21
26
30
33
36
38
37
36
35
34
35
33
29
28
29
30
31
32
33
33
31
37
44
42
40
39
38
39
40
39
38
38
38
38
38
39
39
35
32
34
36
34
32
33
34
33
32
32
31
29
29
31
30
27
26
26
26
27
28
29
29
27
28
32
32
32
29
26
28
30
29
28
32
36
38
40
41
43
46
49
52
54
55
57
60
64
68
69
67
64
60
50
36
30
27
20
12
12
15
16
15
14
14
15
14
29
41
64
90
140
187
212
232
236
252
305
326
261
195
129
64
-2
-67
-133
-171
-178
-171
-150
-126
-99
-78
-60
-46
-32
-23
-16
-15
-17
-18
-19
-19
-17
-17
-19
-20
-21
-19
-16
-17
-18
-21
-24
-23
-22
-24
-26
-28
-30
-30
-30
-31
-33
-36
-38
-37
-38
-44
-48
-47
-47
-49
-53
-58
-62
-66
-70
-74
-78
-81
-83
-85
-84
-81
-80
-80
-77
-73
-65
-56
-46
-36
-28
-19
-10
-1
6
12
16
21
25
28
31
34
35
37
40
42
40
38
41
42
43
44
43
41
39
38
38
37
35
33
31
32
35
36
36
34
31
31
30
35
36
36
36
34
32
33
34
33
32
32
32
32
31
28
26
28
29
26
25
30
32
31
30
30
29
26
26
29
28
25
24
23
22
22
23
25
26
25
24
23
28
34
34
34
35
36
38
40
43
46
46
47
53
58
56
56
62
65
62
60
61
62
61
53
38
31
29
25
20
18
19
19
17
16
17
22
27
38
51
94
140
181
222
207
196
261
312
247
181
116
50
-15
-81
-146
-192
-188
-178
-158
-137
-112
-88
-65
-44
-25
-13
-7
-4
-5
-6
-7
-8
-9
-13
-18
-19
-17
-16
-15
-14
-15
-19
-23
-20
-24
-18
-22
-23
-24
-26
-28
-30
-32
-34
-36
-37
-38
-40
-43
-46
-49
-52
-56
-61
-64
-65
-68
-73
-77
-80
-83
-85
-86
-85
-84
-84
-79
-72
-66
-59
-52
-45
-37
-29
-14
1
7
12
15
18
22
26
27
28
28
28
30
32
31
30
29
28
28
28
30
32
33
34
33
32
32
32
32
32
33
32
29
28
28
30
33
33
31
30
30
31
33
34
34
30
26
26
26
24
22
21
20
19
18
18
18
19
20
18
16
18
20
20
20
19
18
18
18
17
15
12
10
10
10
9
9
11
11
9
11
15
18
21
24
22
29
30
36
42
40
38
42
46
47
49
54
57
52
48
47
44
38
31
23
16
9
5
2
1
4
5
2
2
6
11
16
37
64
113
167
197
223
236
249
282
317
254
188
123
57
-8
-74
-139
-194
-192
-186
-168
-146
-114
-89
-78
-64
-47
-36
-35
-34
-32
-30
-31
-32
-31
-31
-33
-33
-31
-30
-29
-31
-35
-36
-37
-38
-39
-36
-31
-33
-37
-38
-36
-41
-46
-43
-40
-49
-56
-53
-51
-57
-62
-63
-64
-67
-70
-70
-72
-77
-80
-80
-80
-83
-84
-85
-85
-82
-79
-76
-69
-61
-53
-46
-36
-25
-13
0
9
19
20
21
25
22
35
40
39
38
36
34
34
34
33
32
31
30
28
27
31
34
33
32
31
30
29
28
27
26
27
26
22
21
23
24
25
25
23
22
22
22
23
23
21
19
17
16
16
18
20
17
14
13
12
13
14
13
12
12
13
17
20
18
16
18
20
19
18
17
15
13
12
12
12
11
12
15
14
11
10
11
15
19
25
31
32
31
33
38
43
48
45
42
47
52
53
54
58
61
56
53
58
58
46
37
34
30
25
20
15
13
15
16
17
18
18
21
26
43
64
109
160
196
229
220
204
260
325
267
329
136
70
5
-61
-126
-183
-183
-181
-163
-142
-116
-92
-76
-59
-41
-29
-23
-20
-20
-21
-24
-25
-23
-23
-25
-25
-23
-22
-22
-22
-22
-23
-25
-26
-26
-25
-23
-24
-27
-29
-31
-33
-34
-37
-40
-45
-50
-47
-44
-50
-54
-56
-59
-63
-66
-64
-64
-70
-74
-74
-75
-78
-82
-86
-87
-85
-83
-81
-77
-70
-64
-58
-48
-37
-29
-22
-8
8
13
17
20
23
26
30
33
36
35
34
36
38
38
38
35
32
33
34
36
38
38
38
38
38
39
40
37
36
37
37
35
34
34
34
35
36
37
35
31
33
37
38
37
34
31
30
30
30
28
25
22
22
22
22
22
21
20
20
20
22
24
24
24
24
24
24
24
23
22
22
22
22
22
21
23
28
31
33
34
34
39
46
50
53
54
54
54
55
59
62
60
58
56
53
41
30
28
25
18
12
12
12
16
18
19
20
20
23
30
52
90
131
174
195
201
245
309
302
261
202
137
71
6
-60
-125
-173
-218
-197
-169
-149
-128
-97
-68
-58
-47
-37
-28
-27
-26
-27
-28
-27
-26
-25
-24
-24
-24
-24
-24
-24
-24
-25
-26
-27
-29
-32
-34
-33
-32
-33
-36
-41
-42
-41
-40
-40
-43
-47
-51
-55
-56
-56
-64
-70
-74
-78
-82
-86
-89
-92
-96
-100
-101
-101
-97
-93
-88
-83
-77
-72
-66
-58
-47
-38
-29
-20
-12
-5
0
5
10
12
12
18
26
28
28
28
27
26
25
24
25
23
20
20
20
20
20
20
20
19
18
17
16
19
22
22
22
22
21
18
17
20
20
16
14
14
14
14
14
15
14
11
13
17
18
18
16
13
12
11
10
11
11
8
5
2
4
6
5
4
4
4
1
0
8
14
15
17
20
22
22
23
27
30
30
31
33
34
35
36
36
35
33
32
33
24
9
4
1
-5
-11
-12
-11
-10
-10
-13
-16
-10
-4
6
19
61
104
149
183
174
186
251
274
208
143
77
12
-54
-119
-185
-223
-236
-228
-202
-179
-158
-131
-101
-82
-68
-55
-41
-40
-43
-44
-43
-42
-41
-41
-43
-44
-44
-42
-40
-41
-42
-44
-46
-48
-50
-50
-50
-50
-50
-52
-54
-55
-57
-61
-64
-66
-70
-74
-78
-82
-85
-87
-91
-96
-100
-103
-104
-103
-106
-111
-113
-115
-116
-116
-117
-119
-117
-112
-106
-100
-92
-84
-75
-67
-57
-46
-35
-25
-20
-15
-11
-8
-6
-4
-3
-2
-3
-4
-3
-3
-5
-6
-5
-5
-7
-7
-5
-4
-3
-2
-2
-2
-3
-4
-3
-2
-2
-4
-2
-6
-4
-3
-2
-3
-4
-4
-4
0
4
3
2
1
0
-1
-2
-4
-6
-7
-8
-7
-7
-9
-8
-4
-3
-6
-8
-7
-4
0
1
-1
-2
-3
-3
-1
-1
-3
-6
-9
-6
-2
-4
-6
-5
-4
0
5
12
18
16
15
21
26
27
28
30
32
33
35
38
39
36
34
34
30
21
10
-3
-8
-7
-9
-13
-14
-14
-14
-15
-15
-13
-11
-9
2
14
63
112
152
187
170
166
231
272
213
152
87
21
-44
-110
-176
-225
-248
-250
-221
-196
-175
-147
-113
-91
-79
-69
-61
-57
-55
-52
-49
-48
-49
-51
-53
-53
-51
-50
-51
-54
-52
-56
-54
-54
-54
-57
-60
-59
-58
-55
-52
-57
-60
-60
-61
-64
-67
-71
-74
-75
-78
-85
-89
-91
-92
-93
-95
-97
-100
-104
-106
-105
-105
-107
-108
-109
-107
-103
-101
-99
-94
-89
-75
-62
-54
-46
-39
-31
-23
-15
-8
-2
1
4
5
6
7
8
7
6
5
4
4
4
5
6
6
6
5
3
-1
1
6
8
9
9
7
6
7
10
13
10
5
4
4
5
6
6
6
2
-2
3
8
5
2
4
6
4
2
2
2
2
2
3
4
3
3
6
9
11
10
6
7
12
12
7
7
9
9
7
7
9
7
3
3
2
9
12
14
16
17
19
28
36
35
35
41
46
46
47
50
51
48
46
44
39
32
23
13
7
4
-1
-6
-5
0
2
1
2
5
8
11
31
53
104
158
191
223
213
204
269
324
259
193
128
62
-3
-69
-134
-183
-186
-183
-167
-145
-113
-90
-80
-68
-52
-42
-37
-33
-30
-29
-32
-31
-26
-25
-27
-28
-28
-29
-31
-31
-29
-28
-28
-31
-35
-35
-32
-33
-34
-35
-36
-37
-38
-36
-34
-37
-40
-40
-41
-47
-53
-56
-60
-65
-69
-72
-76
-81
-85
-87
-90
-94
-94
-90
-88
-87
-84
-79
-75
-69
-61
-52
-42
-31
-24
-17
-5
-16
11
14
17
20
26
32
33
34
34
34
33
32
32
32
30
28
28
28
27
26
26
26
26
26
25
26
30
32
33
33
31
30
29
28
28
28
27
26
26
26
25
24
24
22
20
22
24
24
24
22
20
21
22
22
22
20
18
17
16
17
18
17
17
19
19
17
18
22
24
25
26
25
24
24
28
34
35
33
34
37
41
45
49
54
53
52
57
62
67
72
65
60
62
62
52
42
34
26
17
12
13
14
13
13
16
17
15
19
28
48
75
120
174
205
226
239
250
292
342
294
229
163
98
32
94
-99
-162
-166
-168
-145
-121
-94
-70
-55
-42
-33
-25
-19
-15
-18
-20
-19
-18
-20
-21
-18
-18
-22
-22
-16
-14
-15
-16
-17
-20
-24
-26
-25
-25
-27
-30
-33
-34
-34
-36
-39
-43
-46
-50
-54
-51
-48
-54
-60
-63
-66
-68
-71
-75
-79
-83
-86
-86
-86
-87
-87
-84
-81
-78
-73
-67
-58
-47
-37
-27
-20
-14
-6
2
9
16
18
19
24
29
30
30
30
32
30
28
34
40
38
36
33
30
32
34
32
30
30
30
30
30
30
30
29
29
32
33
31
31
34
36
36
36
35
33
31
31
33
31
27
26
27
28
29
30
30
28
28
29
30
32
34
33
32
32
32
30
28
29
30
29
28
28
28
27
26
26
26
27
29
31
34
38
40
40
41
43
47
51
52
52
52
53
58
63
66
69
63
56
58
60
59
57
42
30
27
24
22
20
19
18
18
18
18
18
20
28
41
69
112
153
192
208
207
247
312
304
260
200
135
69
4
-62
-127
-175
-220
-195
-163
-145
-126
-95
-66
-53
-41
-30
-20
-16
-12
-14
-16
-15
-14
-17
-20
-20
-20
-21
-22
-22
-22
-25
-26
-27
-27
-25
-24
-25
-25
-23
-25
-30
-32
-31
-34
-39
-40
-41
-43
-45
-49
-46
-59
-64
-65
-66
-68
-70
-71
-72
-78
-82
-84
-86
-87
-88
-86
-82
-76
-70
-64
-56
-45
-37
-31
-20
-6
4
11
16
19
20
21
25
30
30
27
26
27
28
29
30
30
28
26
29
32
32
32
30
28
29
30
29
28
27
26
24
22
24
26
25
24
26
27
24
24
28
30
30
30
29
27
25
25
27
27
25
22
19
18
19
20
19
18
18
16
14
20
26
23
20
19
18
17
16
16
16
16
16
18
20
18
16
16
16
15
17
23
27
30
32
31
32
35
37
39
43
47
46
43
48
55
53
49
48
48
38
28
24
20
13
6
3
0
0
0
-1
-2
-1
2
9
22
44
81
138
180
207
218
214
248
312
299
233
167
102
36
-29
-95
-160
-182
-192
-175
-151
-118
-85
-76
-69
-57
-46
-37
-28
-30
-32
-32
-32
-31
-30
-34
-38
-38
-38
-37
-36
-37
-38
-38
-39
-42
-43
-41
-40
-39
-38
-39
-42
-46
-48
-49
-52
-55
-59
-63
-68
-73
-74
-74
-79
-85
-86
-88
-87
-86
-88
-90
-94
-98
-96
-94
-93
-91
-86
-80
-73
-66
-57
-48
-37
-26
-17
-9
-2
5
12
16
17
19
21
22
23
24
24
24
23
21
19
19
21
21
19
17
18
21
28
26
24
25
26
24
22
23
24
19
16
17
18
17
16
16
16
18
20
23
22
18
17
19
19
17
16
16
15
13
12
12
12
12
12
12
12
11
10
11
15
18
13
8
10
12
11
10
10
10
7
4
6
8
6
4
6
8
7
10
20
26
25
25
27
29
31
33
35
38
41
42
41
42
45
46
45
42
39
29
19
18
18
10
2
3
4
4
4
5
6
6
8
18
35
68
107
158
193
202
229
277
291
266
220
154
89
23
-42
-108
-169
-229
-224
-194
-168
-143
-111
-77
-65
-57
-44
-31
-28
-30
-26
-28
-28
-28
-27
-26
-29
-32
-32
-32
-34
-36
-36
-36
-38
-40
-39
-38
-36
-34
-35
-37
-40
-42
-43
-46
-50
-52
-52
-54
-58
-60
-61
-63
-65
-71
-77
-80
-83
-84
-84
-88
-92
-94
-96
-94
-92
-93
-93
-85
-77
-69
-60
-48
-38
-30
-20
-9
2
12
19
23
28
32
34
34
35
37
38
37
36
36
36
35
34
34
32
29
33
39
40
39
38
36
34
32
35
38
36
34
33
32
33
34
32
30
30
29
26
25
29
32
30
28
29
29
27
26
26
25
23
22
23
24
24
24
24
24
23
23
25
27
29
30
30
26
24
24
24
25
26
24
23
29
34
36
38
39
40
41
44
51
56
56
56
56
57
60
60
54
52
53
45
31
24
20
15
10
9
11
11
9
14
21
22
22
26
30
62
96
147
194
210
229
258
285
301
297
232
166
100
35
-31
-96
-162
-192
-176
-159
-141
-117
-88
-71
-62
-51
-38
-32
-28
-26
-26
-26
-25
-24
-25
-23
-19
-18
-19
-23
-28
-26
-24
-24
-24
-28
-32
-34
-36
-34
-33
-37
-40
-42
-43
-39
-37
-40
-42
-42
-43
-48
-52
-57
-62
-68
-71
-74
-79
-84
-86
-86
-87
-89
-90
-90
-85
-79
-73
-67
-64
-66
-49
-38
-28
-18
-12
-5
3
11
19
26
28
30
29
30
37
42
40
38
39
40
39
38
38
36
32
31
34
34
31
31
33
34
33
32
33
35
37
38
38
37
35
32
30
32
34
30
26
27
28
26
24
25
25
21
20
27
31
28
26
27
28
28
28
27
25
23
22
23
24
24
24
23
22
23
24
24
27
31
34
37
38
39
40
40
48
56
53
50
54
58
62
66
66
65
59
55
61
64
57
48
35
27
23
20
17
16
16
16
15
15
18
21
23
37
55
100
154
191
225
217
202
258
323
265
327
134
68
3
-63
-128
-185
-185
-182
-166
-148
-123
-98
-74
-53
-38
-27
-23
-20
-18
-16
-17
-18
-19
-20
-19
-18
-19
-20
-21
-22
-21
-21
-23
-24
-23
-22
-21
-24
-29
-30
-30
-32
-34
-36
-38
-41
-44
-43
-43
-49
-54
-58
-61
-57
-55
-60
-65
-68
-71
-74
-77
-81
-84
-85
-84
-80
-77
-74
-68
-61
-53
-45
-33
-21
-11
-2
6
14
17
19
23
27
29
32
33
34
33
32
33
34
32
30
29
29
35
39
35
32
32
32
32
32
32
31
26
25
28
30
29
28
28
28
27
29
34
33
29
29
31
30
27
26
26
26
26
23
20
20
20
20
20
20
20
19
18
23
26
24
22
22
22
22
22
22
21
18
17
20
22
22
22
21
22
26
32
38
40
40
42
45
46
47
48
49
54
59
57
54
55
56
57
58
54
48
32
20
21
21
13
8
8
8
7
6
7
8
9
19
37
72
122
163
199
201
184
222
287
257
192
126
61
-5
-70
-136
-201
-205
-203
-184
-164
-137
-111
-92
-73
-57
-43
-33
-24
-23
-22
-23
-24
-24
-24
-24
-25
-28
-30
-30
-30
-29
-29
-31
-33
-35
-35
-33
-32
-33
-34
-35
-37
-39
-41
-43
-48
-53
-54
-54
-56
-54
-64
-68
-71
-74
-79
-84
-83
-82
-85
-88
-90
-93
-98
-101
-98
-96
-94
-90
-84
-76
-65
-56
-47
-39
-33
-23
-11
-1
7
10
11
13
15
16
17
18
17
15
13
12
13
11
8
10
12
11
10
13
16
17
18
17
16
13
10
14
16
15
14
12
10
12
13
10
6
2
4
11
14
14
12
8
6
6
6
5
3
1
0
-1
-1
1
2
0
-2
-4
-4
-4
-2
0
-1
-2
-1
0
-2
-4
-6
-8
-7
-7
-10
-11
-8
-6
-3
-2
-1
0
1
7
16
20
20
20
20
22
25
26
26
29
33
34
33
32
32
30
26
14
2
-3
-8
-11
-14
-11
-8
-11
-14
-13
-11
-8
-4
3
24
64
109
159
184
183
218
283
277
223
161
96
30
-35
-101
-166
-211
-251
-235
-208
-183
-158
-129
-99
-84
-70
-63
-56
-54
-52
-50
-48
-46
-44
-44
-44
-46
-48
-49
-50
-52
-54
-55
-56
-55
-55
-57
-59
-61
-61
-59
-59
-61
-63
-65
-68
-71
-73
-75
-79
-83
-84
-85
-87
-89
-90
-92
-96
-100
-105
-110
-108
-106
-107
-108
-109
-110
-108
-104
-97
-90
-84
-77
-68
-58
-48
-38
-29
-22
-18
-14
-10
-3
5
9
11
12
12
12
11
10
9
6
3
3
5
5
6
5
8
7
6
7
8
11
14
16
17
12
8
10
12
13
13
10
8
9
10
10
9
7
5
3
5
10
10
6
4
4
4
3
2
1
-1
-3
-3
-1
0
-1
0
2
1
0
0
0
5
10
8
6
5
4
4
4
5
5
2
0
2
6
12
16
17
19
21
26
35
38
38
41
46
48
48
51
55
54
51
50
49
36
23
19
14
10
6
3
0
5
10
12
14
13
14
22
38
75
115
160
193
206
237
290
306
280
234
168
103
37
-28
-94
-153
-210
-205
-175
-155
-138
-107
-73
-61
-51
-41
-31
-29
-30
-23
-20
-25
-30
-22
-14
-15
-16
-18
-20
-20
-20
-19
-19
-24
-28
-26
-24
-24
-25
-28
-31
-33
-34
-35
-36
-36
-38
-41
-42
-43
-47
-52
-54
-55
-61
-67
-72
-77
-79
-81
-84
-86
-92
-98
-89
-80
-79
-78
-74
-68
-59
-50
-41
-32
-24
-15
-6
3
12
18
18
20
24
29
35
37
35
34
34
34
35
34
31
30
31
32
31
30
30
30
31
32
32
33
34
37
40
40
40
37
34
34
34
34
34
32
30
29
28
29
29
26
24
25
27
30
31
29
28
27
26
26
26
25
24
23
22
23
23
21
20
21
22
22
23
26
27
28
28
28
25
22
26
30
33
36
36
37
40
44
50
54
53
53
58
62
67
70
70
70
69
68
67
55
39
31
27
24
21
20
19
19
21
22
21
25
30
41
55
99
142
181
214
208
218
283
314
249
183
117
52
-14
-79
-145
-185
-196
-189
-161
-137
-117
-90
-60
-41
-30
-21
-13
-10
-11
-10
-7
-6
-7
-8
-7
-7
-9
-10
-8
-6
-4
-6
-8
-11
-14
-14
-14
-16
-19
-23
-26
-26
-26
-28
-31
-35
-39
-42
-43
-40
-41
-48
-52
-52
-54
-58
-62
-66
-70
-75
-78
-81
-82
-82
-82
-81
-79
-77
-71
-76
-54
-44
-35
-26
-18
-9
-1
7
15
22
23
25
30
35
38
40
39
38
37
37
42
44
43
41
39
38
38
38
37
35
33
33
35
36
36
35
33
33
35
35
33
35
38
39
40
38
36
35
34
35
36
32
28
28
28
32
33
30
28
29
31
34
36
35
33
30
28
29
29
27
26
26
26
27
28
28
28
27
26
26
26
25
26
30
33
36
36
36
39
42
45
48
49
50
52
55
60
64
66
68
67
66
68
70
70
69
66
56
40
33
30
25
20
18
18
18
19
20
20
21
23
32
41
82
42
169
210
207
210
275
323
264
204
139
73
8
-58
-123
-176
-200
-208
-187
-164
-140
-110
-74
-52
-43
-33
-22
-18
-17
-16
-17
-20
-24
-23
-18
-18
-21
-22
-21
-24
-29
-27
-23
-23
-24
-24
-24
-28
-32
-32
-32
-35
-38
-41
-44
-47
-50
-51
-53
-57
-61
-65
-68
-66
-66
-71
-76
-81
-84
-85
-89
-94
-97
-99
-100
-100
-99
-97
-91
-83
-79
-75
-60
-45
-37
-28
-19
-10
-6
-2
1
4
7
10
11
12
13
14
15
15
12
10
11
14
19
21
16
14
15
16
16
16
15
13
11
11
13
13
11
11
13
13
11
10
10
10
10
10
8
6
4
3
2
2
2
-2
-6
-5
-4
-3
-2
-4
-6
-6
-5
-2
0
-1
-3
-5
-6
-5
-5
-8
-10
-10
-10
-11
-11
-9
-9
-11
-11
-9
-9
-11
-10
-7
-3
0
0
0
4
8
12
16
13
11
16
20
22
24
26
27
23
22
28
27
16
4
-8
-15
-18
-23
-29
-31
-29
-28
-29
-29
-27
-23
-19
0
23
80
143
174
203
198
191
256
313
248
182
117
51
-14
-80
-145
-198
-214
-222
-205
-183
-149
-123
-109
-95
-81
-73
-68
-67
-70
-72
-72
-72
-73
-73
-71
-71
-73
-74
-73
-74
-77
-78
-78
-77
-75
-74
-74
-81
-86
-89
-92
-94
-96
-99
-102
-104
-106
-108
-111
-116
-121
-124
-126
-124
-123
-127
-130
-133
-136
-140
-143
-146
-148
-148
-146
-142
-139
-137
-130
-120
-113
-106
-92
-78
-69
-61
-52
-43
-41
-40
-34
-28
-27
-26
-27
-28
-25
-22
-22
-22
-23
-24
-24
-24
-22
-20
-21
-22
-23
-24
-23
-22
-22
-23
-26
-27
-25
-25
-27
-27
-25
-24
-24
-23
-21
-20
-20
-22
-25
-26
-28
-29
-30
-30
-30
-33
-36
-35
-34
-35
-36
-36
-36
-37
-37
-33
-30
-32
-34
-34
-34
-34
-34
-34
-35
-37
-36
-32
-30
-31
-29
-24
-22
-21
-16
-9
-6
-3
-2
-2
0
-2
4
4
9
14
7
0
3
4
-9
-21
-26
-32
-41
-46
-39
-34
-35
-36
-37
-37
-34
-30
-26
-10
17
64
123
160
184
198
207
248
299
258
193
127
62
-4
-69
-135
-200
-211
-220
-200
-180
-153
-127
-114
-100
-83
-69
-64
-60
-62
-62
-55
-50
-51
-52
-54
-56
-54
-53
-56
-59
-61
-62
-62
-62
-62
-64
-68
-69
-67
-67
-69
-70
-70
-69
-67
-72
-79
-81
-84
-88
-92
-98
-104
-108
-112
-113
-115
-121
-126
-128
-130
-127
-124
-123
-122
-123
-122
-116
-109
-102
-94
-86
-76
-65
-54
-44
-35
-27
-21
-16
-11
-5
-2
1
6
11
10
7
6
6
4
4
2
0
0
0
1
2
2
2
0
-1
4
8
6
4
2
0
-2
-4
-1
-1
-4
-5
-3
-2
-3
-4
-5
-6
-5
-5
-7
-7
-5
-4
-3
-2
-3
-5
-7
-7
-6
-8
-10
-9
-8
-8
-8
-7
-6
-7
-7
-3
0
2
4
2
0
0
0
1
3
6
8
8
11
16
19
23
25
27
29
31
37
44
48
51
49
45
44
45
37
26
19
12
5
-2
-4
-6
-5
-4
-2
0
0
3
13
27
48
83
138
182
209
223
220
252
317
308
242
177
111
45
-20
-86
-151
-178
-193
-182
-165
-140
-113
-95
-77
-64
-76
-41
-32
-36
-40
-37
-34
-34
-34
-34
-34
-36
-37
-31
-27
-30
-33
-36
-38
-39
-40
-41
-44
-48
-50
-49
-48
-48
-50
-54
-56
-57
-58
-59
-60
-61
-63
-65
-70
-75
-80
-85
-89
-92
-97
-102
-105
-108
-106
-104
-104
-104
-102
-97
-84
-71
-61
-53
-48
-40
-27
-17
-9
-3
0
5
11
16
20
22
23
24
23
24
27
28
27
27
29
29
27
26
26
26
24
25
26
25
24
26
28
30
32
29
28
36
42
41
40
38
36
36
36
37
37
34
33
35
35
33
35
40
42
41
42
45
44
41
55
75
80
83
90
97
109
98
141
161
183
205
216
229
256
283
314
346
383
420
457
461
395
330
264
199
133
68
2
-29
-27
-20
-7
-5
-11
-19
-27
-33
-38
-40
-39
-51
-69
-72
-73
-80
-87
-88
-89
-94
-98
-102
-106
-109
-112
-114
-117
-125
-132
-135
-139
-143
-148
-155
-162
-171
-178
-184
-192
-201
-210
-219
-225
-228
-235
-244
-249
-253
-258
-264
-263
-258
-255
-253
-247
-239
-234
-229
-218
-207
-194
-180
-165
-149
-133
-117
-99
-83
-71
-59
-42
-26
-17
-9
-5
0
6
11
14
16
16
17
20
24
28
30
29
29
31
32
32
33
35
36
36
36
35
31
27
29
33
34
34
32
32
33
34
34
34
32
30
36
40
40
40
37
34
35
36
36
36
34
32
32
32
33
34
33
33
36
37
35
36
39
40
40
39
37
36
36
36
35
34
34
33
32
34
36
35
34
34
34
34
34
38
42
41
40
40
40
40
40
38
36
34
32
33
34
34
34
33
32
31
32
35
36
36
36
35
32
29
28
29
30
30
30
28
29
30
32
34
30
26
30
35
41
46
45
44
45
48
55
60
58
57
60
62
61
62
66
68
67
66
65
58
49
44
39
32
24
21
19
18
19
20
19
20
18
36
50
96
141
179
212
208
216
281
316
252
188
123
57
-9
-74
-140
-185
-202
-200
-173
-150
-129
-102
-69
-51
-42
-32
-23
-19
-17
-14
-11
-14
-19
-20
-19
-18
-18
-19
-21
-24
-26
-25
-24
-25
-26
-26
-26
-23
-20
-22
-24
-24
-24
-26
-28
-29
-31
-35
-38
-36
-36
-40
-43
-45
-47
-50
-53
-57
-57
-55
-54
-55
-59
-63
-64
-64
-63
-61
-60
-60
-55
-48
-38
-28
-21
-14
-8
-1
11
20
23
27
32
36
39
43
46
47
44
43
47
49
46
44
44
44
45
44
40
42
48
50
51
51
49
46
43
45
49
48
45
42
44
40
42
40
38
38
38
36
34
35
36
38
40
37
34
33
32
32
32
30
28
29
28
24
23
25
25
23
21
19
21
26
27
25
24
23
22
21
22
25
23
19
19
20
21
22
26
30
28
27
35
42
44
46
47
48
52
54
56
61
69
70
60
56
60
57
47
36
25
17
12
12
16
17
15
15
17
18
17
21
27
43
59
115
172
207
240
226
221
286
331
266
200
135
69
4
-62
-127
-174
-184
-182
-162
-139
-112
-91
-76
-61
-48
-37
-26
-24
-28
-28
-24
-20
-15
-15
-17
-18
-18
-18
-19
-20
-21
-25
-22
-27
-24
-25
-26
-25
-24
-28
-32
-29
-26
-28
-30
-31
-33
-37
-41
-45
-49
-52
-55
-60
-64
-69
-73
-75
-78
-82
-87
-92
-90
-84
-82
-82
-79
-75
-70
-65
-57
-49
-43
-37
-23
-10
-2
6
12
18
23
28
30
32
36
40
42
44
43
41
38
36
38
39
35
32
32
33
35
36
36
35
33
34
38
40
40
39
37
36
36
36
35
34
33
31
28
30
32
28
24
26
28
27
26
28
30
30
30
30
29
25
23
27
29
26
24
24
25
27
27
25
23
21
21
23
25
27
27
25
25
27
27
25
25
27
30
28
37
40
41
42
48
54
54
55
62
68
70
72
74
75
70
66
68
67
57
48
39
32
28
25
23
21
19
20
24
28
31
34
37
59
85
134
186
212
236
253
269
308
344
279
213
148
82
17
-49
-114
-165
-160
-152
-134
-113
-82
-58
-47
-36
-23
-15
-12
-9
-6
-4
-4
-5
-7
-7
-5
-2
1
1
-1
-2
-2
-3
-5
-7
-9
-10
-11
-13
-16
-16
-16
-17
-18
-21
-24
-24
-24
-26
-29
-34
-39
-43
-47
-51
-56
-61
-65
-69
-72
-73
-74
-74
-75
-77
-77
-74
-68
-61
-54
-48
-40
-32
-23
-14
-5
5
10
15
20
16
30
34
37
40
41
42
44
46
48
50
48
46
44
42
43
44
44
44
42
40
43
44
44
43
40
38
38
40
44
46
45
43
41
40
40
38
35
35
37
36
33
32
32
33
34
33
32
31
30
32
34
34
34
31
28
28
28
28
28
26
24
24
24
25
26
25
25
28
29
27
28
31
34
37
39
41
42
43
48
53
54
54
54
56
61
66
67
68
63
59
66
71
66
59
43
32
29
25
21
18
20
22
20
19
22
26
30
43
64
105
158
195
225
234
233
281
346
306
241
175
110
44
-21
-87
-25
-161
-170
-153
-136
-107
-81
-68
-55
-34
-18
-16
-14
-13
-12
-13
-14
-14
-14
-15
-16
-15
-14
-15
-16
-17
-18
-18
-18
-18
-17
-15
-16
-19
-21
-23
-24
-24
-24
-24
-29
-35
-34
-32
-38
-44
-48
-52
-56
-60
-61
-62
-65
-69
-73
-76
-80
-83
-86
-88
-86
-83
-80
-75
-68
-59
-50
-41
-32
-25
-18
-6
9
16
19
22
25
29
33
34
34
33
31
30
32
33
34
31
28
29
30
29
28
31
34
34
34
34
34
32
31
34
36
34
32
32
32
33
34
33
31
28
28
32
33
31
28
25
25
27
26
23
22
23
23
24
22
24
23
22
23
24
22
20
24
28
27
26
27
27
24
22
22
22
24
25
20
19
21
24
28
31
33
34
34
40
49
52
53
54
55
59
63
64
63
64
67
63
58
60
61
47
34
31
27
20
15
21
26
25
24
24
24
24
27
36
56
88
127
173
201
214
241
278
291
287
241
176
110
45
-21
-86
-151
-215
-196
-163
-144
-127
-99
-70
-60
-50
-40
-30
-26
-22
-22
-22
-24
-25
-21
-19
-23
-26
-24
-24
-29
-32
-30
-28
-29
-30
-30
-31
-33
-34
-35
-37
-39
-39
-37
-36
-36
-37
-39
-40
-41
-46
-51
-53
-52
-62
-68
-70
-72
-75
-78
-81
-84
-88
-91
-84
-78
-77
-75
-71
-65
-57
-49
-41
-33
-26
-17
-5
3
9
12
13
16
20
24
27
28
29
30
29
28
28
27
25
26
29
24
18
20
22
25
28
28
28
26
25
30
34
33
32
31
31
35
37
34
32
30
24
16
12
12
8
1
-2
-2
6
18
46
78
90
95
90
82
96
114
119
123
136
150
101
54
41
23
-42
-102
-134
-159
-153
-146
-134
-123
-112
-97
-77
-59
-46
-30
-11
0
-3
-6
-11
-10
-2
2
1
-1
-3
-4
-5
-4
-1
0
-1
-2
-2
-2
-3
-4
-4
-9
-12
-12
-12
-14
-16
-21
-26
-30
-34
-32
-30
-33
-37
-41
-45
-51
-55
-59
-62
-61
-59
-56
-52
-46
-39
-30
-20
-11
-4
2
10
20
25
29
33
37
38
38
40
43
38
32
35
38
36
34
33
32
30
28
30
32
30
28
28
28
26
23
20
18
19
19
16
14
13
13
16
18
19
18
14
17
24
25
23
20
17
16
16
16
16
15
12
14
16
14
12
11
10
13
16
16
17
21
24
24
24
26
27
23
21
25
27
24
22
21
21
24
26
25
22
18
19
24
25
23
22
21
20
21
21
19
18
18
18
16
16
16
15
14
15
16
15
14
19
22
23
24
22
20
18
16
16
16
15
13
11
11
14
16
16
16
15
15
17
19
21
21
19
19
21
22
22
22
21
22
24
23
22
22
22
21
20
19
19
24
28
31
34
35
36
37
39
43
46
46
46
46
48
52
56
60
59
52
52
55
52
46
37
28
21
15
13
11
10
10
11
14
15
16
24
36
72
111
156
194
205
229
289
325
298
258
192
127
61
-4
-70
-131
-189
-199
-166
-142
-125
-100
-70
-56
-49
-35
-18
-14
-15
-16
-17
-18
-17
-17
-19
-20
-20
-21
-24
-25
-26
-26
-26
-27
-28
-29
-30
-25
-22
-23
-25
-28
-30
-30
-30
-30
-31
-34
-36
-36
-36
-36
-39
-45
-48
-47
-46
-46
-46
-47
-50
-53
-54
-55
-57
-59
-60
-59
-57
-56
-56
-56
-47
-38
-33
-27
-21
-14
-2
10
18
24
25
27
32
37
40
42
41
41
43
44
45
46
45
44
43
42
43
44
45
46
45
44
43
42
42
42
41
40
40
38
36
37
38
38
38
37
36
36
36
39
42
40
37
34
32
32
32
31
29
26
24
25
26
26
26
26
26
26
27
29
29
27
28
31
30
27
26
25
24
24
26
26
28
30
34
38
40
42
43
45
50
54
57
60
59
58
59
60
59
58
55
46
28
20
20
17
11
9
11
12
11
13
17
21
25
32
39
77
119
161
203
198
194
259
315
254
192
127
61
-4
-70
-135
-187
-200
-202
-177
-153
-131
-105
-72
-51
-43
-33
-23
-18
-17
-16
-15
-14
-13
-12
-12
-14
-17
-14
-8
-7
-9
-13
-17
-18
-18
-19
-22
-26
-30
-30
-30
-30
-30
-33
-36
-36
-36
-38
-40
-40
-41
-44
-47
-51
-56
-62
-66
-69
-72
-77
-82
-86
-88
-89
-90
-90
-89
-87
-80
-72
-62
-52
-44
-37
-25
-13
-5
-12
11
18
21
24
28
32
33
34
34
34
34
34
36
38
38
38
36
34
33
32
31
30
29
27
25
25
27
28
29
29
27
26
26
29
33
32
29
28
28
28
27
25
24
23
22
21
20
20
20
19
18
19
20
19
18
20
22
22
22
21
20
18
18
22
22
18
16
16
16
17
18
18
18
19
22
25
27
29
31
33
36
39
40
42
45
48
49
50
53
56
58
60
60
60
58
56
56
51
36
24
19
15
12
10
10
10
10
10
9
12
19
30
42
83
135
177
214
208
189
241
306
254
189
123
185
-8
-74
-139
-199
-194
-188
-167
-145
-116
-91
-78
-63
-44
-28
-21
-16
-18
-20
-20
-20
-20
-21
-23
-24
-25
-25
-22
-22
-25
-26
-27
-26
-23
-22
-23
-24
-25
-26
-27
-31
-35
-37
-38
-40
-42
-44
-46
-49
-52
-54
-57
-63
-68
-69
-70
-69
-69
-74
-78
-79
-80
-79
-79
-81
-81
-78
-71
-62
-53
-45
-38
-30
-20
-9
0
8
15
23
24
24
24
25
26
24
26
28
26
24
24
24
22
20
19
18
20
22
23
24
24
24
22
20
22
24
23
21
19
18
18
18
19
18
15
16
21
22
22
21
19
18
19
17
13
11
12
8
8
8
8
8
8
9
10
9
8
8
8
7
6
7
8
6
4
5
6
3
1
-2
-3
0
2
3
3
1
2
6
12
18
22
25
27
29
30
29
31
35
36
36
40
44
42
40
42
43
32
23
17
11
3
-2
-3
-4
-6
-7
-3
-1
-4
-4
0
10
27
63
112
155
195
195
176
217
282
246
181
115
50
-16
-81
-147
-212
-219
-224
-201
-177
-152
-128
-102
-79
-67
-57
-47
-40
-37
-34
-36
-38
-40
-42
-42
-42
-41
-42
-47
-49
-47
-46
-46
-47
-49
-51
-53
-50
-44
-45
-51
-52
-51
-53
-57
-58
-58
-62
-58
-72
-76
-78
-80
-83
-86
-90
-95
-101
-106
-103
-101
-105
-108
-110
-112
-111
-109
-106
-103
-100
-93
-81
-71
-62
-54
-47
-38
-28
-19
-11
-5
-1
4
9
11
13
13
11
13
17
13
8
9
10
11
12
12
12
9
7
12
16
17
18
14
12
13
14
13
12
13
12
8
7
9
9
7
6
7
7
5
6
9
10
10
10
9
7
5
2
-1
-1
2
-2
-6
-4
-2
-1
0
0
0
-2
-3
1
4
2
0
-1
-2
-3
-4
-4
-4
-4
-4
-5
-4
0
2
2
6
12
14
14
19
26
29
31
33
35
37
39
37
40
34
36
27
18
7
-2
-7
-12
-15
-18
-17
-15
-9
-5
-8
-8
-2
9
26
61
115
157
187
195
184
219
284
264
199
133
68
2
-63
-129
-194
-205
-205
-193
-179
-154
-127
-106
-86
-77
-68
-56
-46
-48
-50
-48
-46
-46
-46
-43
-40
-42
-44
-44
-44
-44
-45
-49
-52
-52
-53
-55
-56
-57
-58
-59
-60
-61
-65
-70
-68
-63
-62
-63
-66
-69
-74
-79
-81
-84
-90
-96
-98
-100
-101
-102
-107
-112
-111
-110
-109
-107
-103
-99
-94
-86
-76
-67
-59
-49
-38
-29
-22
-15
-9
-4
0
4
7
8
8
11
15
16
17
15
11
10
9
8
8
6
4
3
2
4
6
4
2
6
10
7
5
10
14
12
10
11
11
8
6
7
7
5
3
1
0
1
2
1
0
-1
-2
-2
1
5
5
3
2
2
2
2
1
0
-3
-6
-3
0
-1
-2
-3
-4
-3
-2
-1
0
1
2
2
2
4
6
8
12
17
20
19
19
22
27
32
34
34
36
39
40
41
42
43
37
29
18
7
2
-4
-7
-10
-8
-6
-6
-6
-5
-3
4
14
34
65
123
172
201
217
208
230
295
298
232
167
101
36
-30
-95
-161
-187
-194
-186
-172
-145
-114
-94
-75
-60
-46
-36
-27
-29
-26
-33
-32
-33
-34
-32
-30
-31
-32
-32
-32
-34
-36
-34
-32
-32
-33
-36
-39
-42
-44
-43
-44
-48
-51
-53
-54
-54
-56
-60
-62
-63
-67
-71
-71
-69
-74
-81
-83
-85
-90
-95
-99
-102
-102
-102
-102
-102
-96
-89
-83
-76
-67
-57
-45
-33
-20
-11
-6
0
5
9
12
15
17
19
21
23
25
25
23
22
22
21
19
20
23
24
23
22
22
22
21
20
18
17
16
16
16
17
18
19
20
21
22
22
22
24
26
25
24
22
20
21
21
18
15
13
13
15
16
15
14
13
12
13
15
17
18
18
18
18
18
18
17
18
16
18
16
14
14
14
17
20
20
20
20
22
30
36
38
40
39
40
45
48
51
52
53
55
58
60
61
61
59
57
55
44
29
25
23
20
17
15
13
12
11
12
14
15
16
25
39
85
131
172
202
190
197
262
287
221
156
90
25
-41
-106
-172
-209
-218
-208
-181
-157
-135
-108
-79
-61
-46
-37
-30
-26
-23
-20
-17
-17
-19
-21
-23
-24
-22
-23
-24
-26
-28
-28
-28
-28
-28
-30
-32
-33
-34
-32
-30
-32
-35
-38
-40
-40
-42
-47
-50
-49
-50
-54
-56
-57
-60
-63
-66
-69
-73
-79
-80
-81
-82
-81
-82
-85
-83
-86
-75
-72
-65
-58
-51
-43
-30
-19
-11
-3
4
12
21
28
27
27
30
32
32
31
28
26
25
24
23
22
21
21
23
24
23
22
22
24
27
28
28
27
25
24
25
29
32
28
24
24
24
22
20
22
24
22
20
22
24
28
29
26
24
23
22
21
20
21
22
23
23
21
19
17
18
21
20
17
16
17
19
21
22
22
21
19
18
18
17
16
13
10
11
12
13
14
14
14
16
20
27
32
33
36
41
44
44
45
48
50
51
52
52
52
52
50
46
35
22
13
6
5
7
8
7
6
5
4
4
10
16
23
34
79
124
170
207
196
203
268
297
232
167
101
36
-30
-95
-161
-203
-220
-213
-183
-160
-140
-115
-86
-68
-54
-43
-31
-30
-33
-34
-33
-28
-23
-22
-22
-24
-27
-25
-22
-22
-22
-27
-32
-29
-26
-29
-32
-31
-30
-32
-34
-34
-34
-35
-36
-36
-37
-41
-46
-50
-53
-55
-59
-64
-68
-72
-75
-77
-80
-83
-87
-91
-91
-89
-88
-87
-85
-83
-78
-72
-64
-56
-48
-39
-29
-19
-12
-5
2
9
14
19
23
28
34
38
39
40
40
39
34
33
35
34
30
28
28
28
28
28
29
28
25
26
29
31
33
34
35
35
36
32
32
32
32
29
26
27
28
26
24
25
26
24
22
24
26
27
28
28
27
24
23
25
26
27
27
24
22
23
25
27
27
25
23
21
25
31
30
27
28
31
31
30
33
36
37
38
43
48
48
49
55
60
61
62
66
69
72
74
73
70
65
55
41
34
34
28
18
15
19
20
20
20
19
20
23
36
52
91
134
174
214
204
191
256
313
249
185
120
54
-11
-77
-142
-193
-200
-201
-181
-159
-131
-103
-73
-52
-43
-34
-25
-20
-19
-19
-22
-23
-20
-18
-19
-20
-20
-20
-21
-20
-17
-18
-21
-20
-17
-18
-16
-23
-24
-26
-28
-29
-30
-32
-34
-35
-36
-38
-42
-49
-53
-48
-45
-51
-55
-58
-62
-69
-72
-73
-78
-86
-90
-89
-88
-88
-87
-85
-80
-74
-64
-54
-44
-34
-22
-11
-5
1
6
10
17
24
24
24
26
28
29
30
30
29
25
24
31
36
36
35
32
30
30
30
29
28
27
26
25
25
29
29
27
27
29
30
29
30
33
34
33
32
32
31
28
29
30
28
26
26
26
26
26
26
26
23
20
21
22
24
26
24
22
23
24
23
22
21
19
17
17
20
22
23
27
32
34
35
41
48
50
50
51
53
53
54
52
54
48
42
43
44
41
38
34
29
24
19
14
12
20
26
24
22
22
23
26
35
49
83
131
170
204
208
194
235
300
268
203
137
72
6
-59
-125
-190
-196
-197
-181
-164
-137
-111
-88
-67
-52
-39
-30
-22
-23
-24
-24
-23
-18
-14
-16
-18
-20
-22
-21
-21
-23
-24
-25
-28
-32
-33
-31
-31
-33
-33
-31
-34
-39
-38
-35
-35
-37
-40
-43
-46
-50
-53
-56
-61
-66
-71
-76
-76
-77
-82
-86
-89
-92
-90
-87
-84
-82
-81
-78
-73
-67
-58
-50
-42
-33
-22
-12
-2
4
8
12
17
20
23
27
31
32
33
34
33
32
32
29
28
27
26
25
24
26
28
29
30
25
23
28
32
33
34
33
32
32
32
33
33
30
29
31
32
33
34
33
33
35
36
36
36
36
36
37
38
38
36
33
33
34
34
34
32
30
32
34
34
34
33
32
32
33
37
40
38
36
36
36
34
34
38
39
37
37
40
43
45
48
51
52
53
55
57
60
63
64
63
60
57
50
42
31
20
14
8
5
2
4
6
6
6
3
2
11
22
35
64
118
162
195
204
187
212
277
268
202
137
71
5
-60
-126
-191
-213
-222
-205
-182
-156
-131
-108
-86
-73
-84
-48
-36
-39
-42
-42
-42
-42
-42
-40
-38
-41
-44
-43
-41
-38
-36
-37
-38
-39
-40
-43
-45
-47
-49
-51
-52
-52
-54
-57
-58
-58
-60
-63
-66
-69
-69
-67
-71
-77
-82
-87
-91
-94
-98
-102
-106
-110
-107
-104
-102
-100
-99
-97
-92
-85
-72
-62
-55
-45
-30
-19
-12
-6
-1
3
6
10
14
16
15
16
19
20
19
18
17
18
21
22
23
21
17
16
18
17
16
12
8
12
16
16
16
16
16
14
13
18
21
18
16
17
18
16
14
13
11
9
7
5
3
1
0
0
1
3
-1
-8
-4
4
4
1
-1
-3
-4
-4
-2
-2
-6
-10
-8
-6
-5
-4
-7
-10
-10
-10
-8
-6
-6
-4
2
6
6
6
6
8
13
16
16
19
24
26
26
28
32
30
24
26
31
20
4
-3
-9
-14
-19
-20
-20
-23
-26
-23
-20
-16
-11
1
20
66
112
160
190
174
187
252
265
199
134
68
3
-63
-128
-194
-226
-236
-227
-207
-180
-150
-129
-111
-90
-68
-56
-46
-48
-53
-54
-53
-52
-52
-54
-56
-56
-56
-55
-54
-58
-62
-59
-57
-61
-63
-59
-56
-57
-59
-62
-64
-62
-60
-61
-64
-68
-71
-74
-76
-77
-82
-88
-92
-97
-98
-99
-101
-103
-108
-113
-114
-114
-116
-114
-117
-114
-110
-106
-96
-88
-81
-74
-62
-50
-40
-29
-18
-9
-4
0
2
4
5
6
9
9
7
6
5
4
4
4
3
2
1
2
5
6
7
5
1
1
3
4
4
2
0
0
0
1
2
1
0
-1
-2
-3
-3
1
4
3
2
0
-2
-3
-4
-3
-2
-2
-3
-5
-5
-2
0
-1
-3
-5
-3
2
4
5
5
3
2
3
4
4
2
-2
-1
0
0
0
1
2
2
3
8
13
17
21
26
30
32
34
34
34
36
38
39
42
46
47
45
44
44
36
22
16
13
9
5
4
3
2
1
1
3
4
4
8
15
41
71
128
181
204
225
231
250
311
338
273
207
141
76
10
-55
-121
-163
-180
-180
-162
-138
-110
-89
-72
-59
-48
-38
-29
-24
-21
-20
-21
-21
-19
-18
-19
-21
-23
-26
-28
-27
-26
-30
-34
-33
-32
-35
-38
-34
-30
-31
-32
-34
-37
-41
-44
-43
-44
-50
-56
-60
-62
-63
-66
-70
-75
-80
-85
-90
-91
-89
-92
-97
-98
-98
-98
-97
-95
-93
-86
-78
-70
-62
-52
-41
-30
-19
-12
-4
6
15
19
22
23
24
24
24
25
26
26
25
20
19
21
22
22
22
21
20
19
21
26
27
25
24
24
24
25
26
25
23
24
22
24
21
18
16
14
17
20
18
16
19
22
21
20
19
17
14
12
13
14
13
11
8
7
10
12
12
11
9
9
11
14
17
16
13
13
15
16
16
16
16
15
14
18
22
24
26
29
32
35
38
42
46
49
52
53
54
55
54
49
46
47
44
35
28
23
16
9
5
3
2
3
6
9
10
10
15
21
44
70
122
178
200
222
229
239
294
337
272
206
141
75
10
-56
-121
-169
-175
-176
-163
-142
-112
-89
-75
-63
-50
-41
-34
-30
-30
-30
-30
-29
-27
-25
-23
-23
-25
-27
-29
-30
-29
-30
-33
-34
-34
-35
-34
-36
-38
-39
-40
-41
-42
-42
-42
-45
-48
-50
-54
-60
-65
-68
-71
-75
-79
-84
-87
-90
-92
-93
-96
-100
-102
-103
-100
-94
-92
-91
-85
-78
-70
-63
-54
-45
-37
-29
-18
-8
-3
2
6
10
13
17
23
28
27
26
27
28
24
22
22
22
21
20
19
18
19
20
20
20
19
17
15
17
22
23
21
20
19
18
17
18
21
18
13
14
18
18
18
18
18
17
16
18
20
20
20
19
18
17
16
15
14
14
14
12
10
11
12
11
10
11
12
11
13
18
19
17
16
16
16
17
18
19
21
23
26
24
32
34
37
40
41
42
49
54
55
56
57
58
55
52
51
46
32
23
19
14
9
7
9
10
9
9
12
17
22
29
37
69
108
151
196
202
199
255
320
268
207
142
76
11
-55
-120
-180
-198
-210
-184
-160
-138
-115
-86
-62
-49
-37
-28
-22
-24
-26
-24
-21
-19
-19
-21
-22
-21
-20
-19
-18
-19
-22
-25
-26
-27
-32
-37
-38
-37
-36
-37
-38
-38
-42
-46
-48
-50
-48
-46
-49
-52
-56
-61
-66
-70
-73
-77
-82
-87
-90
-93
-96
-98
-98
-98
-99
-97
-91
-83
-75
-67
-59
-51
-42
-33
-24
-16
-8
-2
3
8
13
15
14
21
24
25
26
28
30
27
24
26
28
25
22
22
22
21
20
21
22
21
21
24
26
25
24
23
24
28
30
31
29
24
22
22
22
22
19
15
14
14
14
13
14
16
14
12
16
20
18
16
17
18
15
12
12
12
14
16
14
12
11
10
11
12
13
13
10
11
17
19
17
17
19
20
20
22
25
26
26
30
35
38
41
44
48
50
52
56
60
64
68
64
60
61
60
52
43
31
20
14
9
6
4
4
5
8
8
4
9
21
36
52
93
147
187
223
218
200
248
313
267
202
136
71
5
67
-126
-189
-200
-208
-182
-156
-127
-100
-84
-69
-55
-41
-27
-19
-24
-27
-24
-22
-22
-22
-22
-23
-25
-24
-20
-18
-17
-18
-21
-22
-21
-22
-25
-26
-26
-29
-33
-34
-34
-37
-41
-43
-44
-47
-50
-49
-48
-50
-53
-59
-65
-72
-78
-77
-77
-84
-88
-90
-92
-91
-90
-89
-87
-84
-77
-67
-58
-49
-41
-33
-25
-17
-7
3
8
11
14
17
22
27
28
28
28
28
30
32
29
26
29
32
25
20
22
24
23
22
23
24
22
20
22
24
25
24
17
16
21
24
24
24
23
20
16
16
21
19
13
12
12
9
5
4
5
6
6
6
4
9
14
11
8
8
8
7
6
5
4
4
4
5
6
4
3
6
8
5
5
7
9
12
14
14
14
14
16
19
23
27
27
25
28
33
34
35
38
41
42
42
52
62
55
48
50
51
43
34
24
15
9
4
3
2
2
2
4
6
7
9
12
26
48
88
139
178
211
213
198
241
306
270
205
139
74
8
-57
-123
-188
-198
-206
-183
-159
-132
-106
-86
-67
-55
-45
-39
-34
-33
-32
-32
-32
-32
-32
-32
-32
-32
-33
-36
-35
-29
-27
-30
-33
-35
-37
-39
-41
-43
-47
-51
-52
-51
-51
-53
-57
-61
-63
-62
-64
-62
-66
-70
-73
-76
-80
-85
-91
-96
-99
-102
-103
-105
-109
-111
-108
-105
-102
-98
-93
-85
-73
-62
-51
-42
-35
-26
-16
-8
-2
2
5
9
13
17
21
22
22
22
22
27
32
29
26
26
26
26
26
23
20
19
18
19
20
18
16
17
18
16
14
13
14
19
22
22
21
18
16
15
14
15
14
11
10
10
10
10
9
7
5
3
7
14
9
4
8
12
10
8
8
8
6
5
9
12
12
14
20
24
25
28
34
40
45
49
51
53
55
57
60
62
61
58
55
53
51
41
28
22
17
11
5
10
4
15
12
14
16
18
22
36
56
103
148
185
209
195
207
272
289
223
158
92
27
-39
-104
-170
-203
-211
-200
-177
-152
-128
-105
-84
-65
-46
-37
-30
-28
-29
-30
-29
-25
-21
-21
-22
-22
-22
-23
-24
-27
-30
-29
-28
-30
-32
-34
-36
-36
-36
-35
-36
-41
-42
-37
-35
-37
-39
-42
-47
-52
-55
-57
-62
-68
-73
-77
-79
-81
-86
-91
-94
-97
-97
-95
-93
-90
-87
-84
-76
-68
-63
-57
-47
-36
-26
-16
-7
1
6
11
16
20
21
23
27
31
34
35
32
30
29
28
27
26
25
24
25
26
27
27
25
23
21
25
31
32
32
31
30
30
30
29
28
28
28
28
28
28
28
28
27
24
22
24
26
26
26
26
25
22
20
21
22
22
22
21
20
19
19
21
22
22
20
17
20
25
26
25
22
20
21
22
25
28
27
26
32
36
38
40
43
46
48
51
54
58
63
66
64
62
61
56
48
40
31
23
15
12
11
10
11
12
13
13
11
19
31
50
71
125
180
204
228
232
242
297
334
269
203
138
72
7
-59
-124
-171
-180
-178
-157
-132
-102
-80
-67
-53
-40
-32
-26
-25
-27
-28
-28
-28
-27
-26
-27
-29
-31
-27
-21
-24
-29
-30
-30
-29
-30
-33
-36
-37
-38
-40
-42
-42
-42
-43
-44
-46
-48
-49
-50
-52
-55
-59
-62
-65
-68
-73
-76
-77
-81
-86
-88
-89
-88
-85
-84
-84
-81
-77
-66
-54
-46
-39
-32
-25
-14
-4
3
10
14
18
22
26
29
32
33
34
34
34
35
35
32
30
32
33
30
28
29
30
30
29
27
25
23
24
27
28
27
26
25
26
29
30
31
32
31
28
24
25
26
23
20
20
20
20
20
20
20
19
18
17
17
20
22
22
22
22
22
23
24
23
21
19
18
19
19
17
17
19
19
17
19
23
24
25
26
26
27
26
32
34
36
38
40
42
46
50
51
52
53
55
59
62
62
62
61
58
53
44
29
21
19
16
10
9
11
12
11
13
18
21
23
35
49
96
150
189
227
215
199
262
323
258
192
127
61
-4
-70
-135
-190
-203
-209
-186
-161
-132
-103
-78
-56
-41
-28
-19
-15
-17
-18
-18
-18
-19
-20
-21
-22
-22
-22
-22
-25
-29
-25
-19
-18
-19
-21
-23
-25
-28
-29
-30
-34
-38
-37
-36
-38
-40
-43
-46
-46
-47
-51
-54
-55
-58
-63
-67
-71
-76
-83
-86
-85
-86
-90
-91
-89
-86
-82
-75
-68
-63
-59
-44
-27
-17
-9
-3
3
11
4
21
22
23
24
25
26
27
28
27
26
28
30
31
32
31
30
31
32
32
31
28
27
30
32
31
30
29
28
29
30
29
27
25
27
31
32
31
28
25
24
25
24
22
21
20
19
18
18
18
17
16
17
18
18
18
20
22
22
22
21
20
20
20
20
19
17
16
16
17
19
20
19
18
18
22
27
33
39
40
39
40
43
46
50
50
50
52
54
56
58
58
58
58
57
53
47
33
24
23
20
14
10
9
8
8
9
11
12
13
22
37
74
122
163
201
204
196
246
311
265
200
134
69
3
65
-128
-191
-201
-208
-187
-165
-142
-117
-90
-65
-52
-39
-27
-18
-16
-14
-14
-15
-18
-20
-20
-20
-21
-22
-23
-24
-25
-26
-25
-25
-27
-29
-31
-30
-27
-26
-26
-28
-31
-32
-33
-38
-42
-45
-48
-50
-52
-56
-60
-62
-64
-68
-73
-78
-82
-82
-82
-84
-88
-93
-96
-94
-91
-89
-87
-84
-76
-66
-57
-47
-39
-31
-21
-11
0
10
13
15
19
23
24
25
26
26
24
22
24
26
24
22
22
22
22
22
25
28
29
30
31
31
28
26
27
28
31
31
28
26
26
26
27
28
27
26
27
35
44
36
22
13
3
-1
-5
-8
-6
15
43
79
115
151
185
211
239
276
312
337
345
303
253
187
122
56
-9
-75
-129
-170
-184
-172
-158
-142
-127
-110
-89
-65
-46
-27
-19
-14
-16
-21
-16
-9
-8
-8
-9
-11
-13
-14
-15
-16
-20
-24
-26
-28
-30
-32
-34
-36
-37
-38
-42
-45
-50
-56
-62
-67
-71
-78
-86
-92
-96
-100
-104
-109
-114
-119
-124
-121
-114
-112
-112
-110
-107
-98
-89
-78
-67
-58
-48
-35
-22
-11
0
9
17
24
30
34
38
41
44
44
44
44
44
42
40
40
39
36
33
31
30
30
29
27
25
23
24
29
30
30
29
27
27
29
30
30
29
30
26
26
27
28
27
26
25
24
25
26
26
26
28
29
26
24
25
26
26
26
26
26
25
25
27
28
27
25
23
24
28
30
29
27
25
24
24
23
21
20
19
19
20
20
20
19
18
18
18
16
14
18
22
19
16
18
20
18
16
16
16
14
12
12
12
11
11
14
15
13
12
11
13
18
19
17
16
15
14
13
12
13
13
10
10
10
10
10
10
10
9
8
11
14
15
16
19
22
20
18
17
16
18
19
16
14
15
17
20
24
28
29
27
33
43
46
45
44
45
47
49
51
53
54
54
53
54
51
47
34
22
20
17
11
6
11
14
15
16
17
18
19
28
49
82
130
171
205
212
196
229
294
274
209
143
78
12
-53
-119
-184
-187
-178
-166
-155
-135
-115
-89
-64
-50
-36
-32
-28
-27
-26
-28
-29
-23
-18
-19
-20
-19
-19
-23
-26
-24
-23
-27
-30
-31
-32
-32
-32
-33
-35
-39
-40
-39
-37
-35
-37
-41
-42
-41
-43
-47
-51
-55
-58
-62
-62
-62
-67
-72
-72
-72
-76
-80
-78
-76
-75
-74
-76
-77
-74
-71
-67
-62
-57
-52
-47
-39
-29
-21
-15
-9
-3
5
13
18
21
22
22
23
25
27
29
30
30
30
30
30
30
29
28
28
28
28
28
28
28
29
30
29
28
28
28
28
28
27
26
25
26
30
37
48
63
83
122
171
227
285
322
351
376
400
427
454
481
508
534
561
575
588
598
608
603
598
599
589
524
458
393
327
262
196
130
65
-1
-62
-119
-152
-158
-163
-166
-171
-177
-185
-194
-195
-190
-194
-203
-206
-207
-215
-224
-233
-242
-256
-270
-277
-283
-296
-310
-321
-332
-346
-359
-375
-390
-404
-418
-430
-444
-460
-476
-490
-503
-512
-522
-533
-540
-542
-545
-550
-551
-549
-544
-537
-527
-515
-497
-478
-459
-439
-414
-387
-360
-332
-304
-275
-244
-212
-184
-210
-133
-110
-91
-73
-60
-47
-37
-27
-20
-14
-9
-6
-7
-7
-2
2
1
0
1
2
3
6
10
10
4
5
10
12
13
14
13
12
13
14
13
12
11
10
9
9
11
10
8
12
16
11
6
12
18
16
14
16
17
12
8
10
12
11
10
10
10
10
10
10
9
7
7
9
11
13
12
8
6
7
8
8
8
8
7
5
6
9
8
4
7
10
8
6
10
14
13
12
14
16
14
12
13
14
13
12
12
13
16
18
17
16
15
14
15
18
22
22
19
18
19
20
19
18
17
16
16
16
17
18
18
18
18
18
18
20
22
23
24
23
22
19
16
17
18
19
20
18
18
23
26
26
28
32
37
43
47
50
52
52
52
53
57
61
60
57
55
53
42
31
25
19
12
6
3
0
6
12
13
14
16
19
27
44
83
125
173
204
204
229
291
310
274
224
158
93
27
-38
-104
-160
-212
-206
-173
-150
-131
-103
-74
-60
-50
-39
-27
-23
-19
-18
-18
-19
-20
-17
-14
-14
-14
-14
-14
-17
-20
-21
-22
-22
-22
-23
-24
-24
-24
-22
-20
-23
-24
-24
-23
-20
-19
-21
-24
-27
-28
-27
-28
-31
-35
-39
-40
-41
-45
-49
-51
-50
-55
-56
-55
-54
-52
-50
-47
-44
-43
-41
-36
-30
-23
-17
-12
-6
1
9
17
24
29
32
31
35
46
49
47
48
51
52
51
50
51
51
49
48
48
48
47
45
43
43
44
44
44
47
50
49
48
47
46
44
42
44
45
41
38
39
40
41
42
42
41
39
39
41
42
43
43
41
40
40
40
40
40
40
39
37
37
39
38
35
36
40
38
36
43
50
52
54
57
60
61
62
65
68
69
70
71
73
77
79
76
74
74
72
68
60
49
41
36
33
31
30
29
28
29
30
30
35
41
52
63
113
64
199
232
219
212
277
324
259
193
128
62
-3
-69
-134
-180
-183
-177
-153
-128
-102
-79
-58
-42
-28
-16
-3
1
-2
-2
1
2
2
0
-3
-4
-4
-4
-5
-6
-7
-8
-8
-9
-10
-10
-10
-8
-6
-10
-14
-15
-16
-18
-20
-21
-23
-28
-32
-32
-33
-36
-40
-46
-52
-56
-58
-58
-61
-66
-70
-74
-76
-76
-77
-79
-76
-71
-64
-56
-47
-39
-30
-21
-9
4
12
20
28
36
38
40
42
44
46
48
48
47
43
40
41
42
43
44
42
40
40
42
47
49
47
45
43
44
47
46
43
42
42
42
43
43
41
40
41
42
42
39
36
39
42
42
42
39
36
37
38
37
36
34
32
32
32
34
36
34
32
35
37
40
42
41
40
40
41
43
42
38
37
39
40
40
40
40
42
45
46
47
51
54
60
66
68
70
70
70
72
75
80
83
75
70
71
70
64
56
43
35
32
30
30
30
31
32
33
33
31
32
35
51
71
117
170
201
226
227
223
281
346
286
220
155
89
24
-42
-107
-163
-162
-157
-141
-122
-96
-74
-60
-46
-33
-22
-16
-12
-13
-14
-13
-11
-9
-7
-5
-5
-7
-9
-11
-12
-12
-13
-15
-17
-19
-20
-20
-20
-19
-20
-18
-22
-20
-21
-22
-24
-26
-30
-34
-35
-37
-43
-48
-50
-53
-57
-61
-64
-68
-73
-76
-77
-77
-75
-72
-66
-63
-61
-58
-55
-48
-39
-32
-26
-17
-8
0
9
15
21
22
21
29
38
36
34
36
38
35
32
34
36
34
32
33
34
35
36
36
36
34
32
34
37
40
42
41
40
39
37
35
35
37
35
31
30
31
32
31
30
30
29
27
28
32
33
34
31
28
27
26
26
26
25
24
24
24
23
22
22
22
20
18
17
17
22
23
21
20
21
22
22
23
25
26
27
30
33
38
43
45
47
48
49
54
50
64
68
64
60
61
62
55
48
32
20
15
12
12
12
10
9
12
14
12
14
23
33
45
77
125
167
206
208
188
227
292
260
195
129
64
-2
-67
-133
-198
-205
-207
-180
-152
-130
-109
-85
-63
-50
-37
-30
-24
-25
-26
-25
-24
-24
-24
-25
-26
-24
-22
-23
-23
-20
-18
-18
-19
-21
-23
-27
-28
-28
-31
-36
-37
-35
-34
-33
-34
-37
-41
-45
-46
-44
-44
-44
-51
-58
-59
-60
-67
-72
-74
-77
-82
-86
-84
-82
-83
-82
-77
-72
-67
-60
-51
-42
-32
-23
-14
-6
1
7
12
18
24
25
23
25
29
30
30
30
31
29
32
30
36
33
30
29
28
28
28
28
28
28
28
26
24
24
24
25
26
26
26
23
25
31
33
31
29
27
26
26
26
25
23
21
20
19
18
19
19
17
16
16
19
22
21
20
17
14
15
16
13
10
11
12
11
10
11
12
11
10
11
11
8
7
10
13
15
16
15
16
20
22
23
25
27
28
29
32
35
38
41
42
43
44
42
49
56
48
39
25
12
8
3
-3
-8
-7
-6
-7
-8
-6
-2
4
12
24
52
99
145
190
200
181
214
279
257
192
126
61
-5
-70
-136
-201
-213
-215
-197
-176
-150
-174
-100
-76
-59
-44
-34
-26
-28
-30
-29
-28
-27
-26
-29
-32
-31
-30
-29
-28
-28
-29
-32
-32
-27
-25
-27
-29
-32
-34
-34
-36
-39
-41
-43
-45
-47
-49
-51
-55
-59
-60
-60
-65
-70
-69
-68
-72
-76
-79
-82
-88
-92
-90
-88
-88
-88
-84
-80
-71
-64
-56
-49
-42
-31
-17
-7
1
7
13
18
22
26
29
30
31
32
33
34
34
34
35
36
37
37
34
37
40
40
40
38
36
34
32
32
32
32
32
32
32
34
35
32
30
31
32
33
34
35
36
35
34
34
34
33
32
31
30
29
28
28
28
27
26
26
25
26
24
26
27
28
25
22
22
22
21
20
21
22
19
17
20
22
21
21
25
28
29
33
39
43
45
46
47
49
51
52
53
56
59
56
51
50
51
42
31
26
21
16
12
14
16
13
10
12
14
15
17
25
40
70
108
159
194
201
228
283
303
279
234
168
103
37
-28
-94
-152
-205
-203
-174
-153
-135
-107
-78
-65
-56
-43
-30
-24
-19
-19
-22
-17
-12
-14
-16
-17
-18
-17
-16
-17
-18
-20
-22
-22
-22
-22
-22
-24
-26
-27
-28
-29
-30
-29
-29
-31
-33
-35
-38
-41
-42
-43
-47
-53
-57
-61
-63
-65
-70
-75
-80
-76
-83
-80
-79
-78
-79
-79
-72
-66
-60
-55
-46
-38
-27
-17
-7
1
7
13
20
25
30
32
33
35
38
39
36
34
34
34
34
33
31
30
30
31
33
32
29
28
28
31
34
32
30
29
28
29
30
29
28
27
26
28
30
28
26
26
26
27
28
30
31
29
28
28
28
28
28
28
28
27
26
26
26
25
25
27
27
25
24
23
26
32
31
30
29
28
27
26
26
26
23
21
26
30
30
31
35
38
40
43
46
48
51
54
58
60
60
59
56
56
59
55
46
35
23
19
17
13
9
7
5
9
4
15
14
17
21
35
55
105
151
183
205
188
194
259
282
216
151
85
20
-46
-111
-177
-204
-195
-181
-163
-145
-125
-100
-73
-56
-44
-34
-26
-24
-24
-24
-23
-24
-27
-24
-19
-18
-18
-19
-20
-20
-20
-20
-20
-23
-26
-27
-28
-29
-30
-32
-34
-33
-33
-36
-38
-37
-37
-39
-40
-41
-45
-51
-54
-54
-56
-60
-65
-70
-72
-73
-76
-79
-81
-83
-84
-85
-77
-66
-65
-64
-55
-46
-39
-31
-23
-15
-7
2
10
16
18
21
26
31
34
36
38
40
40
40
40
39
36
34
33
33
35
34
29
29
31
35
39
40
40
38
35
37
34
42
42
39
36
38
40
37
34
33
32
30
28
29
30
29
28
28
28
26
26
31
33
31
30
29
28
28
28
28
26
23
22
22
23
25
24
21
20
20
21
23
23
22
21
20
22
24
26
28
28
28
30
33
37
40
40
41
46
50
48
48
53
56
55
53
51
42
28
20
16
11
6
3
1
2
5
6
5
5
7
15
23
48
74
126
175
199
220
226
239
284
307
242
176
111
45
-20
-86
-152
-190
-184
-173
-157
-130
-92
-70
-60
-48
-34
-25
-20
-18
-19
-21
-23
-24
-23
-22
-22
-23
-25
-26
-27
-27
-28
-27
-30
-29
-28
-29
-30
-34
-38
-36
-34
-36
-38
-39
-41
-45
-48
-47
-48
-54
-56
-51
-50
-55
-62
-69
-72
-73
-77
-82
-85
-87
-88
-87
-85
-83
-81
-79
-71
-63
-54
-45
-35
-26
-16
-6
1
8
10
12
18
22
24
26
25
24
24
24
24
24
22
20
21
23
25
25
23
23
26
28
27
26
25
24
23
22
23
24
25
25
23
22
21
20
22
23
24
22
20
20
20
19
18
18
18
16
14
15
16
15
14
14
15
18
21
24
24
20
18
17
16
16
14
11
10
11
12
12
12
11
10
9
9
11
12
12
14
18
18
18
20
22
24
26
30
34
33
33
37
40
42
44
44
44
45
48
55
54
46
35
22
14
10
4
-2
-3
-1
0
1
2
2
8
15
29
45
94
145
185
224
201
185
250
299
234
168
103
37
-28
-94
-159
-205
-205
-198
-178
-155
-128
-105
-87
-68
-48
-35
-27
-24
-25
-27
-29
-28
-25
-25
-27
-28
-28
-28
-27
-26
-26
-29
-33
-33
-30
-28
-26
-29
-32
-33
-34
-35
-36
-38
-40
-43
-46
-47
-49
-53
-56
-58
-61
-64
-66
-69
-71
-73
-75
-78
-82
-86
-89
-91
-91
-89
-88
-88
-83
-76
-67
-57
-47
-37
-30
-36
-7
8
10
12
17
22
25
28
28
28
31
34
33
32
31
30
29
28
29
29
26
26
31
34
34
34
33
32
31
31
33
32
29
28
28
28
29
30
29
28
28
28
28
30
32
29
26
26
26
24
22
24
26
23
20
21
22
21
20
21
22
20
18
19
21
24
26
25
24
24
26
29
32
35
35
33
38
46
48
47
49
53
54
52
59
66
59
52
56
59
49
39
29
22
20
17
12
8
10
12
13
14
15
16
17
30
54
93
143
181
211
213
199
240
305
271
206
140
75
9
-56
-122
-187
-190
-191
-173
-157
-131
-104
-80
-56
-41
-27
-21
-16
-15
-14
-16
-18
-18
-18
-19
-20
-19
-18
-21
-22
-23
-23
-20
-19
-21
-22
-22
-24
-27
-29
-31
-33
-35
-36
-37
-41
-45
-44
-41
-45
-50
-55
-60
-59
-58
-62
-66
-72
-76
-78
-80
-82
-85
-89
-91
-88
-85
-82
-78
-72
-64
-56
-47
-38
-27
-13
-3
7
13
18
21
23
27
31
33
35
36
37
37
35
34
34
31
28
29
30
33
36
36
36
34
32
32
32
31
30
28
26
27
28
26
24
24
24
24
24
24
24
25
26
27
27
25
24
23
23
25
24
21
20
21
22
22
23
22
21
20
22
24
25
26
25
24
23
22
22
22
21
20
20
20
19
18
21
23
26
29
31
34
38
42
46
48
49
51
53
56
59
62
65
59
51
53
57
51
44
33
22
19
16
16
16
17
18
20
22
23
25
29
38
58
90
140
181
211
224
219
251
316
305
239
174
108
42
-23
-89
-154
-171
-175
-165
-152
-127
-101
-82
-63
-46
-28
-22
-16
-16
-16
-17
-18
-16
-14
-13
-12
-13
-14
-16
-18
-19
-20
-20
-22
-27
-30
-29
-28
-28
-28
-29
-31
-33
-32
-29
-30
-33
-35
-37
-39
-41
-47
-53
-56
-59
-62
-60
-70
-74
-77
-80
-79
-78
-82
-85
-77
-70
-65
-61
-56
-50
-42
-33
-24
-16
-10
-2
7
15
22
27
30
33
35
37
39
42
45
44
41
41
43
42
39
38
38
38
37
35
34
35
36
37
38
37
36
35
34
36
38
37
36
34
32
32
32
31
29
25
23
25
26
26
26
26
26
26
28
32
34
33
32
32
31
29
28
28
28
29
28
24
25
26
26
26
26
26
24
23
29
34
31
29
34
38
38
39
43
46
46
47
50
53
56
59
61
65
70
68
61
61
66
61
52
41
30
23
17
16
16
14
16
12
14
16
18
23
30
46
71
131
184
210
226
212
223
288
305
239
174
108
43
-23
-88
-154
-183
-185
-174
-154
-131
-107
-84
-60
-42
-26
-18
-13
-13
-15
-16
-16
-16
-17
-19
-20
-19
-18
-20
-22
-24
-26
-28
-30
-28
-26
-27
-28
-29
-31
-35
-38
-38
-39
-42
-45
-48
-51
-53
-54
-55
-58
-62
-67
-72
-73
-71
-74
-80
-85
-89
-91
-93
-95
-97
-98
-98
-90
-82
-75
-68
-59
-51
-41
-30
-19
-9
-2
6
14
20
22
24
25
26
27
26
21
18
19
20
20
20
21
18
12
15
22
22
19
18
17
16
16
16
17
15
18
11
12
11
10
9
8
9
10
6
2
7
10
9
8
6
4
2
0
2
3
-2
-4
-3
-2
-1
0
1
0
-3
-3
-1
0
1
-1
-5
-5
-3
-3
-5
-6
-7
-10
-12
-10
-8
-10
-12
-10
-8
-8
-7
-1
4
5
7
12
16
15
16
21
24
24
24
24
24
24
24
25
21
13
2
-10
-14
-14
-19
-26
-26
-23
-22
-22
-22
-21
-16
-10
5
23
75
126
165
195
174
169
234
267
202
136
71
5
-61
-126
-192
-229
-231
-225
-210
-189
-163
-141
-120
-102
-86
-75
-67
-64
-65
-64
-61
-59
-57
-56
-56
-59
-63
-64
-64
-65
-66
-69
-72
-76
-80
-77
-74
-76
-78
-79
-80
-77
-75
-80
-84
-82
-82
-87
-91
-96
-100
-104
-106
-107
-112
-119
-122
-122
-126
-132
-135
-137
-134
-129
-128
-128
-127
-125
-120
-115
-105
-96
-91
-86
-73
-62
-54
-47
-41
-36
-33
-30
-27
-23
-19
-16
-16
-16
-18
-20
-21
-22
-23
-24
-25
-26
-27
-28
-29
-28
-24
-23
-25
-27
-29
-26
-21
-20
-21
-23
-25
-26
-24
-25
-26
-28
-30
-29
-28
-28
-28
-30
-32
-30
-28
-29
-29
-25
-22
-21
-21
-24
-26
-26
-26
-25
-25
-27
-29
-31
-30
-27
-26
-25
-25
-27
-28
-27
-24
-21
-21
-23
-24
-24
-26
-26
-28
-30
-29
-28
-24
-20
-19
-18
-13
-9
-5
-2
0
4
10
14
14
15
20
20
16
14
15
7
-8
-17
-22
-26
-30
-35
-39
-39
-37
-32
-27
-26
-27
-22
-15
13
41
94
146
174
200
195
201
266
303
238
172
107
41
-25
-90
-156
-200
-213
-213
-197
-172
-139
-119
-110
-99
-87
-79
-72
-68
-65
-65
-67
-67
-65
-66
-69
-67
-63
-63
-65
-66
-66
-68
-70
-72
-74
-73
-72
-75
-78
-77
-76
-77
-78
-79
-80
-82
-83
-79
-79
-86
-90
-91
-94
-99
-104
-108
-112
-116
-118
-119
-122
-125
-126
-125
-123
-121
-118
-115
-106
-97
-89
-96
-71
-62
-52
-42
-31
-22
-19
-15
-9
-4
-1
2
2
2
1
2
9
13
10
8
5
4
5
5
3
2
2
2
2
2
1
0
0
2
5
5
3
6
11
12
11
8
6
6
6
8
10
8
6
5
4
7
10
8
6
4
3
6
8
8
8
6
4
5
5
2
0
-1
-2
-3
-4
-4
-4
-4
-2
1
0
-3
1
7
9
11
12
14
17
20
23
26
27
28
30
32
35
38
40
41
36
33
36
36
30
22
13
7
2
-2
-6
-7
-4
-2
-3
-4
-4
1
10
30
53
101
154
186
215
209
199
259
198
260
194
129
63
-2
-68
-133
-187
-191
-191
-177
-158
-130
-104
-85
-67
-51
-39
-31
-26
-27
-28
-28
-29
-31
-31
-29
-31
-36
-38
-37
-36
-36
-36
-37
-39
-41
-39
-35
-36
-39
-41
-42
-43
-44
-47
-50
-51
-52
-55
-58
-59
-61
-66
-70
-72
-76
-83
-88
-86
-85
-89
-93
-96
-98
-99
-98
-94
-92
-92
-87
-79
-69
-59
-48
-38
-28
-18
-8
1
9
17
20
24
26
28
27
26
27
28
25
22
24
26
25
24
24
24
22
20
20
21
25
28
28
28
29
30
30
30
30
30
29
28
29
30
29
28
28
28
28
28
29
30
30
34
36
32
28
29
30
30
30
28
26
25
24
26
28
27
25
22
22
28
32
29
28
27
26
25
24
24
23
21
22
25
26
26
30
37
39
41
44
47
52
57
61
64
66
68
69
70
70
70
67
64
61
55
42
32
30
26
20
18
23
26
25
25
27
28
29
40
57
95
144
182
215
213
198
244
309
267
202
136
71
5
-60
-126
-191
-188
-183
-167
-150
-124
-99
-78
-57
-41
-26
-18
-12
-13
-14
-14
-14
-12
-9
-5
-3
-6
-7
-5
-5
-7
-8
-8
-10
-13
-14
-15
-18
-21
-20
-17
-18
-21
-22
-23
-22
-24
-21
-24
-30
-36
-37
-38
-43
-48
-54
-58
-60
-63
-68
-73
-76
-79
-82
-84
-83
-79
-72
-66
-61
-54
-47
-41
-36
-26
-14
-8
-4
3
10
16
21
27
33
34
34
34
35
38
40
40
40
38
36
36
36
36
36
34
33
37
39
34
31
35
38
37
36
37
38
39
41
43
42
38
36
37
38
37
34
31
30
30
30
30
30
31
30
27
31
38
34
30
30
30
29
28
26
24
22
20
22
24
21
18
19
20
20
20
20
20
23
24
25
25
22
20
20
22
25
26
27
31
35
39
43
46
49
50
50
54
50
62
64
64
64
65
66
62
56
40
28
25
21
15
10
11
12
14
15
12
12
17
25
37
62
98
140
187
206
209
251
309
293
251
190
125
59
-6
-72
-137
-190
-243
-208
-172
-151
-130
-95
-63
-55
-47
-36
-28
-27
-26
-26
-26
-25
-24
-23
-22
-22
-23
-26
-25
-19
-17
-20
-24
-28
-30
-30
-30
-29
-31
-36
-38
-38
-40
-43
-45
-47
-49
-51
-55
-60
-62
-64
-65
-66
-72
-78
-82
-86
-88
-90
-93
-96
-99
-102
-100
-97
-94
-91
-88
-81
-68
-58
-48
-39
-30
-21
-13
-6
1
4
5
8
11
12
13
14
15
16
16
15
16
14
16
18
20
20
20
16
12
14
16
15
14
12
10
10
10
12
13
9
7
10
13
16
17
14
12
11
10
10
10
9
6
3
2
3
2
-1
-2
-1
0
-1
-1
0
1
2
2
2
-1
-4
-1
2
1
0
-3
-6
-5
-4
-2
-1
-4
-6
-4
1
8
12
11
13
18
21
23
25
27
29
31
34
37
38
39
40
40
40
40
32
22
14
6
2
-2
-8
-14
-13
-12
-10
-8
-10
-11
-6
3
18
48
99
145
183
197
180
206
271
262
196
131
65
-1
-66
-132
-197
-218
-226
-213
-193
-165
-135
-113
-92
-78
-90
-52
-40
-39
-38
-40
-42
-43
-44
-42
-41
-46
-50
-50
-50
-50
-50
-50
-51
-54
-56
-55
-53
-51
-50
-51
-52
-53
-56
-60
-62
-63
-66
-69
-74
-79
-81
-83
-86
-89
-94
-99
-105
-110
-107
-104
-106
-108
-110
-112
-110
-108
-106
-103
-98
-91
-81
-72
-63
-54
-43
-32
-23
-15
-8
-2
3
7
10
12
12
12
13
14
14
11
7
6
5
6
9
9
7
6
4
10
16
12
8
9
10
9
8
6
4
3
2
3
4
4
4
4
4
3
2
-1
0
4
6
7
7
4
2
3
4
3
1
-1
-1
1
2
3
3
1
0
0
1
4
4
4
5
6
4
2
4
6
9
12
15
18
18
20
26
30
32
34
35
39
45
50
54
53
48
46
46
39
27
21
16
9
2
0
1
2
3
3
1
5
10
20
31
56
84
139
187
210
230
242
263
305
314
248
183
117
52
-14
-79
-145
-181
-188
-180
-156
-129
-99
-82
-72
-58
-43
-35
-31
-31
-33
-34
-33
-32
-32
-32
-33
-34
-36
-34
-32
-34
-36
-36
-36
-39
-42
-45
-48
-48
-48
-50
-52
-54
-56
-55
-55
-59
-63
-66
-66
-61
-60
-66
-71
-76
-79
-81
-84
-89
-95
-102
-104
-103
-103
-105
-106
-105
-100
-104
-87
-80
-69
-58
-48
-39
-30
-21
-15
-9
-2
4
5
7
12
16
18
20
22
24
21
20
20
22
26
27
24
22
22
22
21
20
19
16
13
13
15
16
16
17
19
19
18
20
22
22
22
23
24
22
20
20
20
22
23
19
16
17
18
19
20
18
16
15
16
20
22
21
20
21
22
21
20
21
21
19
18
19
20
19
18
19
20
22
20
18
28
38
37
36
40
44
45
46
48
50
52
54
56
60
66
68
63
60
59
55
48
41
35
29
23
20
19
18
18
18
18
18
18
23
29
51
74
128
76
206
228
236
249
305
345
280
214
149
83
18
-48
-113
-162
-175
-177
-156
-133
-105
-83
-68
-54
-40
-29
-18
-15
-18
-19
-17
-18
-21
-22
-23
-24
-25
-26
-26
-27
-29
-28
-25
-27
-30
-34
-38
-32
-26
-28
-30
-34
-38
-40
-42
-43
-45
-50
-54
-53
-54
-59
-62
-64
-68
-73
-78
-82
-84
-83
-83
-85
-86
-87
-88
-87
-83
-79
-76
-73
-64
-55
-46
-37
-25
-12
-7
-2
6
14
20
26
27
28
28
28
30
32
30
28
27
26
27
28
26
24
25
25
22
22
28
30
30
30
30
29
27
26
27
28
27
26
25
24
24
24
24
22
20
22
24
25
26
25
24
25
26
25
24
23
21
18
16
18
20
18
16
19
18
14
14
20
22
21
20
20
18
15
16
19
19
17
16
15
17
21
23
25
27
28
32
36
41
46
46
46
49
52
53
54
52
50
49
48
47
39
22
12
12
9
3
2
6
8
9
11
13
14
14
23
35
70
112
155
198
198
191
249
314
254
188
123
57
-8
-74
-139
-196
-205
-208
-184
-161
-138
-115
-88
-65
-47
-35
-31
-27
-24
-21
-18
-18
-23
-24
-18
-16
-17
-20
-24
-26
-25
-24
-24
-28
-35
-34
-31
-32
-35
-36
-36
-39
-44
-40
-36
-39
-42
-41
-40
-46
-51
-56
-60
-63
-67
-72
-77
-80
-82
-84
-86
-87
-91
-97
-96
-88
-82
-78
-72
-65
-60
-56
-45
-31
-24
-19
-10
0
7
13
15
17
19
20
26
32
32
32
31
30
32
34
30
26
27
28
27
26
26
26
27
28
29
29
26
27
35
38
39
39
37
36
36
35
33
30
27
26
27
28
29
28
25
24
24
25
26
26
26
25
24
25
25
20
16
19
22
19
16
17
18
17
16
16
15
12
12
17
20
19
17
14
12
12
13
15
16
15
17
21
24
27
28
29
33
30
39
40
47
54
54
54
57
60
56
52
51
46
32
21
16
11
5
2
4
6
5
4
5
9
15
21
26
48
78
125
178
202
217
244
275
287
296
240
175
109
44
-22
-88
-153
-213
-196
-178
-156
-133
-101
-75
-67
-57
-44
-33
-29
-26
-27
-28
-26
-25
-28
-30
-31
-30
-26
-25
-27
-28
-29
-30
-29
-30
-33
-34
-34
-34
-35
-36
-37
-40
-43
-44
-44
-47
-50
-50
-50
-51
-52
-59
-64
-67
-71
-75
-79
-83
-87
-92
-96
-94
-92
-91
-90
-91
-89
-83
-76
-68
-61
-55
-46
-37
-26
-15
-8
-2
4
11
15
19
22
25
26
26
30
32
34
36
36
36
37
38
34
30
30
30
30
29
26
24
25
26
26
26
25
25
27
30
34
35
32
30
30
30
31
31
29
28
27
26
26
26
26
26
26
26
26
26
26
29
32
34
36
32
28
28
28
29
30
28
26
25
25
28
30
28
26
25
25
27
28
28
28
29
32
35
36
36
38
41
43
45
46
47
49
51
54
58
56
54
56
58
57
54
38
24
21
17
12
8
7
5
2
0
2
5
8
14
23
50
92
136
181
198
197
239
304
290
243
182
117
51
-14
-80
-145
-190
-232
-206
-234
-158
-139
-108
-79
-64
-49
-40
-32
-32
-32
-30
-28
-30
-32
-34
-36
-34
-32
-32
-32
-35
-36
-36
-36
-36
-36
-37
-38
-37
-38
-41
-43
-45
-48
-51
-53
-55
-59
-63
-64
-63
-66
-70
-74
-78
-80
-82
-83
-84
-90
-94
-97
-100
-101
-102
-106
-108
-107
-104
-96
-90
-84
-76
-67
-57
-47
-35
-21
-12
-5
1
6
9
11
14
17
18
18
18
18
18
18
18
18
15
12
12
12
13
14
14
14
13
12
13
14
12
10
11
12
12
12
11
10
11
12
12
13
15
16
16
16
15
13
11
10
11
12
11
9
7
6
7
8
8
5
2
4
6
10
14
13
12
12
12
14
16
13
10
11
12
13
13
10
9
14
16
16
18
22
26
30
34
38
40
40
42
45
47
49
50
50
50
49
49
51
48
44
28
12
15
18
12
6
6
6
6
6
5
4
8
12
21
43
85
127
170
190
186
219
284
278
221
159
93
27
-38
-104
-169
-198
-216
-202
-179
-159
-138
-107
-75
-64
-52
-44
-36
-33
-30
-28
-26
-25
-24
-24
-24
-25
-26
-26
-26
-26
-26
-28
-30
-31
-32
-31
-32
-36
-38
-37
-35
-33
-34
-37
-40
-43
-45
-47
-52
-57
-59
-61
-65
-69
-71
-70
-79
-84
-86
-88
-89
-90
-90
-90
-88
-86
-86
-84
-77
-70
-64
-57
-48
-38
-26
-16
-7
0
5
10
16
21
27
30
30
30
30
32
35
35
33
31
29
28
29
29
27
26
26
25
24
27
30
29
28
30
31
26
22
24
26
26
25
22
20
19
18
20
21
19
17
15
17
23
25
21
20
19
18
17
16
15
13
11
10
11
11
9
11
16
13
10
12
14
16
18
20
22
20
18
18
18
18
18
18
19
23
26
28
31
36
38
39
44
52
56
56
57
59
60
61
62
62
59
55
43
30
27
25
18
24
12
14
11
8
14
20
23
27
34
48
85
125
174
207
202
222
287
302
246
186
120
55
-11
-76
-142
-186
-215
-207
-177
-153
-130
-101
-69
-54
-44
-36
-29
-26
-23
-22
-23
-21
-18
-20
-22
-18
-14
-15
-16
-17
-18
-20
-22
-23
-24
-26
-29
-33
-36
-36
-36
-37
-39
-41
-43
-45
-45
-43
-45
-50
-52
-53
-55
-57
-62
-68
-70
-71
-79
-87
-89
-91
-92
-94
-92
-90
-91
-91
-82
-73
-65
-57
-51
-44
-36
-27
-16
-6
1
7
10
13
17
21
24
26
26
26
25
28
35
36
32
31
33
31
25
24
25
26
26
26
26
26
26
29
32
29
26
25
24
29
34
31
28
26
24
25
26
25
23
19
16
18
20
20
20
19
17
15
18
27
28
24
22
22
22
21
20
19
20
23
23
21
20
21
24
26
24
22
19
17
27
36
35
35
40
44
47
50
54
56
56
58
63
67
71
72
67
65
67
63
54
47
40
34
26
22
19
16
13
15
19
20
19
21
25
41
58
105
152
190
223
209
206
271
310
245
179
114
48
-17
-83
-149
-193
-203
-199
-174
-149
-126
-99
-69
-49
-35
-25
-17
-12
-8
-6
-5
-5
-7
-8
-9
-10
-9
-11
-15
-15
-16
-14
-16
-18
-20
-23
-26
-19
-14
-18
-22
-23
-24
-26
-29
-32
-35
-39
-42
-43
-44
-47
-50
-55
-59
-62
-67
-73
-74
-71
-72
-76
-78
-79
-80
-79
-74
-69
-67
-65
-53
-41
-29
-18
-9
0
8
17
25
32
35
38
39
40
41
42
41
40
41
41
38
36
36
36
35
34
35
35
32
34
41
44
44
44
44
44
44
44
43
41
39
38
38
38
40
38
36
36
36
36
36
38
40
39
38
38
38
36
34
36
38
37
36
38
40
37
37
39
39
37
36
37
40
43
43
41
40
39
37
35
34
35
36
35
40
34
47
46
50
54
56
58
65
70
71
72
74
76
78
78
72
68
69
67
57
49
40
34
29
25
23
21
18
21
29
31
29
31
36
54
74
124
179
206
230
231
229
292
353
288
222
157
91
26
-40
-105
-157
-157
-153
-138
-120
-92
-69
-52
-39
-30
-20
-10
-5
-7
-7
-5
-5
-7
-5
0
2
1
-1
-3
-4
-3
-3
-5
-7
-9
-10
-11
-13
-16
-18
-20
-19
-18
-23
-28
-26
-24
-27
-31
-36
-41
-45
-48
-49
-52
-57
-61
-65
-68
-71
-74
-78
-80
-80
-79
-77
-71
-63
-56
-50
-41
-32
-25
-18
-8
3
10
17
24
18
34
36
42
48
48
48
53
58
57
56
56
56
54
52
52
52
51
49
45
43
48
49
46
45
47
47
45
47
52
53
51
50
51
50
47
46
46
45
43
41
39
38
38
40
42
41
40
38
36
42
46
43
40
40
40
39
38
39
40
38
37
40
42
41
40
40
40
40
41
43
45
47
51
55
56
57
58
59
66
73
72
69
70
74
76
78
83
88
81
75
82
86
74
63
56
49
44
40
38
36
36
36
36
36
39
42
46
62
88
130
181
215
240
251
256
298
352
309
244
178
113
47
-18
-84
-22
-152
-154
-138
-122
-93
-67
-53
-39
-21
-6
-3
0
1
2
1
0
-1
-2
-4
-6
-3
-3
-6
-8
-8
-8
-8
-10
-13
-12
-8
-7
-9
-13
-17
-18
-19
-20
-20
-26
-33
-33
-32
-36
-40
-43
-46
-49
-52
-53
-54
-57
-60
-63
-66
-70
-73
-76
-78
-76
-74
-72
-67
-61
-55
-47
-38
-27
-19
-12
-1
12
21
28
31
33
35
37
39
41
42
42
41
38
40
42
39
36
38
40
39
38
40
42
39
36
38
39
36
34
36
38
38
38
35
34
33
33
35
35
33
32
32
35
40
39
33
32
31
30
29
28
28
25
28
22
24
22
20
20
20
20
20
20
20
21
22
23
23
20
18
17
16
18
19
14
13
15
18
22
24
25
26
27
35
45
46
43
45
49
50
51
54
57
54
49
49
50
37
24
21
18
10
4
2
0
4
8
9
10
8
8
14
31
65
106
156
189
205
228
259
273
276
237
171
105
40
-26
-91
-157
-222
-211
-182
-164
-148
-118
-87
-80
-72
-56
-40
-38
-36
-33
-30
-33
-36
-32
-28
-28
-28
-28
-29
-32
-34
-35
-36
-36
-37
-42
-43
-41
-41
-44
-47
-49
-52
-55
-52
-46
-47
-53
-54
-55
-61
-67
-70
-73
-78
-74
-86
-88
-90
-92
-96
-100
-101
-102
-106
-108
-99
-91
-86
-81
-76
-69
-60
-51
-41
-35
-30
-23
-13
-7
-5
-2
2
4
4
7
12
12
9
8
9
9
7
6
6
6
5
3
2
2
2
2
2
1
0
-1
-1
4
8
5
2
0
-2
-4
-6
-5
-4
-6
-7
-5
-5
-7
-8
-7
-7
-9
-8
-5
-5
-7
-7
-5
-5
-7
-8
-7
-6
-7
-9
-12
-11
-10
-10
-10
-9
-8
-10
-11
-3
4
1
-2
-2
-2
-3
-3
1
3
-1
-1
8
12
12
12
13
17
23
27
29
30
31
33
35
38
41
37
31
30
30
15
30
-6
-10
-17
-24
-25
-26
-30
-33
-25
-18
-17
-15
-11
4
40
83
135
166
166
196
260
266
215
156
90
25
-41
-107
-172
-224
-270
-259
-227
-203
-182
-153
-122
-106
-91
-82
-73
-71
-70
-70
-70
-71
-72
-73
-74
-71
-68
-67
-66
-69
-72
-71
-71
-74
-76
-77
-78
-80
-82
-81
-82
-86
-88
-87
-89
-94
-94
-91
-92
-95
-98
-101
-107
-115
-116
-116
-123
-131
-132
-134
-135
-136
-138
-140
-140
-140
-133
-127
-117
-109
-105
-99
-88
-78
-69
-61
-52
-44
-38
-33
-30
-26
-22
-19
-17
-16
-16
-15
-13
-12
-11
-13
-17
-18
-18
-18
-18
-18
-18
-20
-18
-20
-16
-18
-20
-20
-20
-20
-20
-16
-12
-13
-14
-12
-11
-14
-16
-17
-18
-20
-22
-25
-26
-26
-26
-25
-24
-24
-24
-23
-20
-16
-16
-19
-20
-19
-18
-19
-20
-19
-19
-21
-21
-20
-20
-20
-21
-22
-22
-22
-20
-18
-18
-18
-17
-16
-12
-10
-10
-8
-3
0
1
3
6
10
15
19
21
22
23
26
29
30
29
20
10
1
-8
-15
-21
-25
-29
-29
-26
-24
-22
-24
-25
-16
-6
13
40
99
151
182
200
186
198
263
278
212
147
81
16
-50
-115
-181
-215
-225
-220
-204
-183
-159
-132
-103
-88
-77
-66
-56
-54
-55
-56
-56
-56
-56
-55
-54
-56
-58
-57
-56
-58
-60
-61
-62
-59
-56
-56
-57
-61
-65
-68
-70
-69
-70
-75
-78
-77
-76
-76
-79
-84
-88
-92
-95
-97
-99
-101
-105
-109
-111
-113
-117
-121
-122
-123
-124
-124
-120
-116
-112
-107
-97
-87
-79
-69
-54
-39
-27
-17
-13
-9
-5
-1
2
4
6
8
9
10
10
9
7
7
9
8
4
5
10
10
7
7
9
10
9
8
8
8
10
9
8
9
10
11
12
9
6
6
7
11
13
9
6
6
6
5
4
5
5
0
-1
1
2
3
3
1
0
0
0
1
3
5
6
5
4
4
4
3
3
2
3
0
1
2
4
6
7
8
9
11
20
26
28
30
30
31
35
38
40
42
42
42
43
44
43
41
38
30
20
13
8
6
6
6
7
8
8
8
7
8
11
21
31
69
107
153
194
198
212
275
316
277
231
166
100
34
-31
-97
-155
-205
-220
-191
-167
-147
-121
-88
-69
-60
-48
-35
-29
-27
-27
-29
-25
-18
-17
-19
-22
-25
-26
-27
-26
-22
-28
-34
-32
-30
-31
-32
-33
-34
-36
-38
-40
-42
-39
-36
-38
-40
-42
-45
-49
-52
-55
-59
-65
-69
-72
-75
-78
-80
-81
-86
-92
-94
-93
-90
-87
-85
-83
-78
-73
-66
-72
-49
-40
-31
-21
-10
0
7
13
19
24
25
28
36
42
41
40
41
41
38
36
37
38
37
35
33
32
33
34
35
35
33
32
33
37
41
41
39
39
41
42
42
40
38
36
34
35
36
34
32
32
32
31
30
32
34
35
36
36
34
29
27
30
32
32
32
31
30
30
30
29
27
25
23
21
25
32
33
31
30
30
30
29
28
30
30
30
35
40
39
38
43
48
50
52
53
56
64
70
71
70
65
62
64
65
60
49
32
24
23
21
18
15
13
12
12
15
21
25
29
44
60
106
155
192
158
211
197
262
315
250
184
119
53
-12
-78
-143
-191
-190
-182
-161
-140
-118
-94
-70
-50
-35
-26
-21
-17
-14
-11
-9
-8
-8
-8
-8
-10
-13
-11
-7
-6
-6
-6
-5
-8
-13
-13
-12
-15
-18
-19
-20
-21
-22
-24
-26
-30
-34
-35
-36
-36
-37
-41
-45
-48
-51
-54
-58
-63
-67
-69
-70
-71
-73
-75
-74
-71
-67
-63
-55
-46
-40
-35
-25
-13
-6
1
11
22
24
26
30
34
36
38
41
44
41
38
40
42
44
45
42
40
39
38
36
34
34
33
31
32
36
37
34
34
37
38
39
43
47
47
45
44
43
34
25
20
24
9
4
12
23
55
84
87
89
78
77
109
132
135
138
140
133
106
80
56
17
-37
-88
-135
-151
-142
-139
-142
-136
-122
-100
-75
-62
-54
-30
-3
5
9
0
-11
-3
7
8
8
3
-2
-2
-2
-4
-6
-6
-6
-7
-8
-7
-6
-4
-2
-1
-1
-4
-7
-10
-13
-15
-17
-20
-24
-28
-32
-36
-38
-39
-44
-50
-52
-53
-52
-49
-46
-43
-40
-37
-29
-20
-13
-6
1
9
18
26
30
35
41
46
47
48
51
54
54
54
54
54
52
50
49
48
47
45
43
42
41
40
41
42
41
37
33
35
39
39
37
35
33
32
32
31
32
31
30
28
26
27
28
28
28
28
28
25
23
26
28
29
30
29
28
27
26
25
24
24
23
21
22
25
26
27
28
27
26
25
27
31
30
27
27
29
29
28
26
24
26
28
28
28
25
22
24
26
24
22
21
21
25
28
27
26
25
24
25
26
26
25
22
21
23
24
24
24
23
22
22
22
23
24
24
24
23
22
20
19
18
18
18
18
18
17
16
17
18
19
20
17
15
20
24
23
22
21
20
20
20
20
19
17
17
19
20
19
22
28
30
31
35
39
44
49
50
51
54
52
58
58
61
64
62
60
57
52
39
28
26
22
14
8
8
9
13
16
18
20
23
31
47
80
127
167
203
209
198
239
304
272
207
141
76
10
-55
-121
-186
-189
-187
-171
-156
-132
-109
-84
-61
-49
-37
-30
-24
-21
-18
-19
-20
-20
-20
-19
-18
-16
-14
-14
-14
-15
-16
-17
-19
-22
-24
-25
-28
-31
-32
-31
-31
-33
-34
-34
-34
-34
-34
-34
-35
-38
-40
-42
-44
-46
-51
-56
-58
-60
-62
-64
-67
-71
-75
-78
-78
-77
-73
-69
-66
-62
-55
-50
-46
-42
-38
-30
-20
-13
-8
1
11
17
21
26
31
32
33
39
45
45
46
41
40
40
40
38
36
33
30
30
30
31
32
31
30
31
32
33
34
36
38
39
40
39
37
35
35
37
35
30
28
28
28
29
30
29
28
27
29
33
34
33
29
26
27
28
26
24
23
22
22
22
22
22
22
22
24
26
25
27
35
40
42
44
45
48
52
54
55
56
57
59
61
66
72
68
60
60
63
60
55
46
37
31
24
23
22
20
18
19
20
21
22
26
35
55
85
137
182
211
227
219
242
307
310
244
179
113
48
-18
-83
-149
-177
-187
-176
-155
-131
-105
-86
-67
-51
-36
-24
-13
-12
-12
-14
-14
-16
-18
-19
-20
-20
-20
-22
-24
-23
-22
-23
-24
-24
-25
-31
-32
-26
-22
-25
-28
-32
-34
-35
-38
-42
-47
-52
-55
-57
-61
-65
-70
-77
-79
-81
-85
-89
-90
-91
-94
-96
-97
-98
-98
-98
-92
-86
-82
-76
-66
-56
-44
-33
-23
-14
-8
0
10
16
18
20
20
21
24
26
25
21
16
14
15
16
16
15
13
12
13
14
14
14
15
16
16
14
12
11
10
12
14
11
8
8
8
10
12
10
8
7
8
13
16
14
12
9
8
9
9
7
6
6
6
5
4
4
4
4
5
7
6
3
5
9
10
10
7
4
4
4
4
4
4
4
5
7
13
18
17
17
20
23
27
32
37
41
44
46
47
48
48
48
47
44
41
28
11
6
5
1
-3
-4
-3
-3
-5
1
9
10
10
19
31
72
113
159
197
188
194
259
293
237
178
112
47
-19
-84
-150
-197
-221
-222
-196
-173
-151
-125
-97
-77
-63
-54
-46
-43
-41
-40
-39
-38
-38
-39
-41
-40
-37
-36
-34
-38
-42
-43
-44
-46
-48
-50
-52
-55
-58
-56
-54
-57
-60
-62
-64
-65
-66
-68
-70
-73
-75
-77
-80
-86
-91
-96
-98
-99
-102
-107
-109
-111
-112
-112
-112
-112
-114
-117
-110
-118
-93
-86
-81
-75
-62
-50
-45
-39
-30
-21
-15
-9
-5
-2
-3
-3
1
4
6
8
8
9
11
11
8
5
3
3
5
2
-4
-6
-5
-2
1
0
-3
-4
-4
-2
1
2
2
1
0
0
0
-1
-2
-2
-2
-2
-2
-3
-4
-5
-6
-8
-10
-10
-10
-9
-8
-8
-8
-7
-6
-6
-7
-9
-10
-11
-12
-11
-10
-10
-10
-11
-12
-13
-13
-11
-8
-4
-7
-10
-9
-8
-4
0
-1
-2
-1
1
6
10
11
13
18
23
26
29
33
36
36
36
37
33
22
11
0
-8
-15
-20
-23
-24
-23
-20
-17
-18
-21
-18
-13
6
-12
77
127
167
202
179
167
232
273
208
142
77
11
-54
-120
-186
-229
-234
-230
-211
-186
-154
-128
-109
-92
-78
-67
-58
-54
-55
-57
-59
-59
-57
-56
-55
-54
-53
-56
-61
-58
-53
-53
-54
-54
-54
-56
-58
-57
-56
-59
-62
-65
-68
-68
-68
-69
-71
-74
-76
-78
-80
-80
-80
-80
-81
-84
-89
-94
-97
-99
-104
-110
-112
-113
-110
-105
-101
-97
-92
-87
-78
-69
-56
-42
-34
-26
-19
-12
-6
0
2
4
7
10
12
14
13
12
14
16
14
13
16
18
15
14
13
12
12
12
12
11
9
8
9
10
11
12
13
14
13
12
12
13
12
16
16
19
22
19
16
15
14
12
10
10
10
7
5
10
13
7
4
5
7
10
12
12
11
9
9
12
14
13
11
9
9
11
11
9
9
11
12
11
10
11
13
14
19
24
23
22
26
30
34
38
39
40
43
46
50
53
56
57
53
53
60
60
51
40
29
21
16
13
11
8
5
6
9
10
10
14
19
35
52
107
166
200
234
219
208
273
324
259
193
128
62
-3
-69
-134
-183
-190
-190
-170
-148
-123
-100
-79
-61
-44
-33
-27
-24
-25
-25
-23
-22
-23
-24
-24
-24
-25
-26
-26
-25
-23
-25
-29
-28
-30
-25
-26
-27
-28
-32
-36
-35
-34
-36
-38
-39
-40
-42
-44
-45
-47
-53
-57
-60
-62
-61
-63
-69
-73
-75
-77
-80
-82
-82
-82
-81
-77
-73
-69
-65
-55
-44
-34
-25
-15
-5
8
20
27
34
35
36
42
48
49
50
49
48
49
50
50
50
49
47
44
43
47
49
46
45
47
47
45
44
43
42
43
44
43
42
41
40
41
42
42
42
41
45
52
50
48
45
42
40
38
38
38
35
32
33
34
32
30
30
30
28
27
31
33
30
28
29
29
27
26
26
27
29
28
25
25
27
29
31
35
39
40
40
47
40
56
56
58
60
60
60
67
71
64
58
60
61
57
50
35
26
25
22
17
16
21
23
21
21
24
26
26
35
49
86
132
171
208
209
200
252
317
267
202
136
71
5
-61
-126
-187
-195
-200
-178
-157
-136
-114
-84
-59
-47
-36
-28
-21
-17
-14
-14
-14
-16
-16
-11
-9
-11
-12
-12
-14
-18
-19
-17
-19
-24
-26
-26
-27
-29
-29
-27
-30
-35
-36
-36
-33
-30
-35
-40
-41
-42
-46
-50
-53
-57
-63
-68
-71
-75
-79
-82
-82
-83
-87
-90
-90
-88
-84
-80
-74
-71
-68
-60
-49
-38
-27
-20
-14
-5
4
10
15
16
17
19
18
30
38
36
34
35
36
34
32
31
30
29
28
28
28
27
26
27
28
28
27
24
24
28
30
29
27
25
23
21
22
25
23
18
18
21
21
19
18
18
18
18
17
16
18
20
18
16
13
10
6
2
2
1
-5
-10
-14
-16
-18
-19
-15
-11
-8
-1
10
18
23
25
23
23
25
26
27
27
25
24
24
29
35
49
64
112
162
198
234
218
206
271
322
257
191
126
60
-5
-71
-136
-184
-187
-184
-164
-142
-117
-92
-69
-50
-35
-22
-10
-6
-10
-12
-11
-10
-9
-8
-8
-10
-13
-13
-11
-10
-11
-12
-12
-13
-12
-11
-6
-11
-16
-13
-10
-15
-20
-24
-28
-29
-31
-35
-39
-42
-45
-48
-51
-55
-61
-68
-70
-66
-67
-73
-77
-79
-80
-80
-80
-79
-76
-73
-64
-54
-45
-36
-28
-21
-13
-5
3
10
15
20
22
24
25
26
23
20
22
23
19
16
16
16
18
20
20
19
16
16
21
24
25
25
22
20
21
22
22
22
21
20
21
22
21
18
15
14
15
16
18
18
18
19
20
18
16
15
14
15
16
13
10
9
8
10
12
12
11
7
6
11
13
11
9
6
6
10
12
11
10
10
10
10
10
10
10
9
8
9
10
10
11
12
14
16
14
12
10
8
9
10
8
6
5
5
10
14
12
10
9
9
12
15
17
18
17
19
25
28
29
30
31
35
40
42
43
46
49
50
51
56
61
61
60
62
64
52
42
34
28
24
20
18
16
15
15
19
23
26
30
38
57
91
136
194
222
226
252
293
299
285
235
170
104
39
-27
-92
-154
-216
-198
-167
-146
-125
-91
-56
-42
-28
-22
-16
-15
-14
-12
-11
-16
-20
-18
-17
-21
-24
-23
-23
-26
-28
-26
-24
-23
-22
-23
-26
-32
-33
-30
-33
-41
-43
-41
-42
-45
-49
-53
-54
-54
-55
-57
-58
-58
-61
-62
-67
-72
-77
-82
-84
-86
-88
-90
-90
-89
-84
-79
-76
-73
-69
-62
-50
-39
-26
-16
-8
-1
5
9
12
16
20
22
23
25
27
28
27
27
29
27
23
26
31
29
26
27
28
26
24
26
28
27
26
24
22
23
24
24
24
22
20
20
22
27
29
26
24
24
24
23
21
17
15
13
13
15
15
13
14
17
15
11
14
19
20
20
21
22
20
18
19
20
20
20
16
13
18
22
24
26
25
26
31
37
45
49
46
46
51
53
51
53
59
58
52
51
53
44
31
26
23
15
7
6
5
7
4
12
12
12
12
15
21
44
73
127
175
207
228
219
233
298
315
249
184
118
53
-13
-78
-144
-178
-188
-184
-171
-150
-124
-101
-80
-63
-48
-40
-33
-29
-25
-26
-29
-27
-23
-21
-20
-22
-24
-25
-26
-28
-30
-30
-30
-34
-38
-37
-36
-38
-40
-39
-38
-40
-41
-38
-38
-42
-44
-45
-49
-55
-60
-64
-68
-72
-78
-84
-88
-91
-94
-97
-99
-101
-105
-109
-105
-98
-97
-96
-90
-84
-75
-67
-55
-45
-35
-25
-13
-3
2
7
12
17
20
25
32
36
36
36
35
34
33
31
29
27
25
24
24
25
27
28
28
28
27
25
23
26
22
30
28
26
24
24
24
23
22
20
18
19
20
20
19
16
14
16
18
20
22
22
22
21
20
19
17
14
14
17
16
12
10
10
12
15
15
13
11
9
13
19
20
20
19
18
23
28
30
32
32
33
38
43
48
52
52
53
56
58
56
54
56
58
57
48
33
23
18
14
10
8
9
9
7
9
13
14
15
25
37
84
134
175
216
206
200
265
316
251
185
120
54
-11
-77
-142
-193
-208
-211
-190
-168
-147
-120
-86
-63
-50
-40
-30
-26
-26
-26
-26
-26
-25
-25
-27
-28
-27
-26
-25
-27
-31
-30
-27
-26
-26
-27
-28
-31
-34
-33
-32
-37
-42
-43
-44
-45
-46
-48
-50
-52
-55
-59
-62
-62
-63
-68
-72
-76
-82
-89
-92
-92
-94
-97
-98
-97
-95
-93
-86
-78
-73
-69
-56
-41
-28
-15
-6
2
8
14
19
24
26
28
30
32
34
36
35
34
36
38
36
34
36
38
38
38
38
37
34
33
36
37
35
33
31
30
30
32
35
34
31
30
30
34
39
38
34
33
32
30
28
27
26
24
22
22
22
22
22
22
22
21
21
24
26
25
24
25
25
22
21
23
24
24
23
21
21
23
24
24
26
29
30
31
37
43
44
44
49
52
54
56
58
60
61
62
60
58
57
54
43
34
26
20
18
16
15
14
17
17
15
15
17
21
27
45
69
115
171
202
225
235
242
288
342
290
225
159
94
28
-38
-103
-164
-171
-176
-160
-141
-109
-82
-72
-61
-46
-34
-27
-23
-26
-26
-21
-18
-19
-21
-23
-25
-27
-28
-27
-28
-32
-34
-33
-33
-35
-36
-35
-35
-37
-36
-33
-32
-32
-32
-30
-35
-40
-42
-44
-45
-46
-51
-56
-59
-62
-65
-68
-70
-73
-78
-80
-75
-72
-74
-75
-72
-68
-64
-57
-48
-42
-38
-28
-16
-6
3
8
11
17
24
29
33
35
37
38
38
36
34
29
24
26
28
23
18
18
18
17
16
17
17
13
11
17
20
18
16
13
12
13
13
11
10
9
7
5
6
9
7
3
1
-1
-2
-2
-1
1
0
-3
-2
0
-3
-6
-5
-4
-6
-8
-6
-4
-5
-6
-5
-4
-4
-5
-10
-12
-4
0
-2
-5
-7
-8
-7
-5
-3
-3
-7
-3
5
8
8
9
11
14
17
22
27
28
29
32
36
33
30
28
26
24
20
1
-14
-15
-17
-22
-25
-21
-20
-27
-30
-23
-17
-13
-8
-3
21
61
108
162
179
174
215
280
266
219
158
93
27
-38
-104
-169
-224
-277
-251
-280
-197
-173
-143
-116
-106
-97
-89
-82
-80
-78
-77
-76
-76
-76
-77
-79
-82
-81
-74
-70
-73
-74
-75
-76
-77
-79
-81
-82
-83
-84
-83
-85
-89
-90
-91
-92
-91
-95
-101
-101
-99
-102
-106
-107
-108
-114
-120
-121
-122
-128
-132
-134
-136
-138
-140
-142
-143
-140
-136
-128
-121
-113
-105
-99
-90
-79
-68
-58
-49
-41
-36
-33
-28
-22
-20
-20
-20
-20
-20
-20
-19
-17
-15
-12
-14
-16
-19
-22
-22
-22
-24
-26
-28
-30
-27
-24
-26
-28
-26
-24
-24
-23
-19
-17
-20
-22
-21
-21
-23
-24
-25
-26
-26
-28
-33
-34
-33
-32
-32
-32
-33
-34
-34
-32
-34
-28
-28
-29
-30
-30
-30
-30
-30
-31
-32
-29
-26
-27
-28
-29
-30
-30
-29
-25
-22
-23
-24
-23
-21
-19
-17
-15
-12
-8
-4
-1
2
5
8
11
15
19
20
20
23
27
27
26
20
13
-1
-14
-18
-23
-30
-36
-33
-30
-30
-30
-30
-29
-26
-18
-1
29
77
124
168
184
176
210
275
258
192
126
61
-5
-70
-136
-201
-237
-266
-247
-221
-196
-171
-136
-100
-93
-86
-76
-66
-64
-62
-62
-62
-62
-62
-62
-62
-63
-64
-64
-64
-65
-66
-64
-62
-62
-62
-63
-65
-68
-71
-73
-74
-75
-78
-81
-82
-81
-83
-87
-90
-93
-93
-91
-94
-90
-105
-110
-111
-112
-119
-126
-130
-134
-131
-128
-128
-128
-125
-120
-113
-104
-93
-83
-73
-62
-49
-38
-29
-20
-13
-8
-4
2
8
10
9
11
16
18
17
16
15
17
21
22
21
18
16
17
18
17
16
12
8
10
12
12
12
11
10
9
9
13
15
12
11
14
14
10
8
8
7
5
4
3
2
2
3
5
5
3
2
1
6
13
13
11
10
8
8
8
9
10
5
0
5
10
10
10
10
10
11
13
18
23
27
31
35
38
41
42
42
44
48
51
53
56
59
58
55
55
57
51
42
34
27
23
19
14
18
9
10
12
14
12
10
17
25
43
70
124
173
205
224
209
224
289
300
234
169
103
38
-28
-93
-159
-188
-194
-186
-169
-145
-117
-93
-69
-55
-42
-29
-16
-14
-14
-15
-17
-16
-14
-16
-18
-20
-22
-22
-22
-22
-22
-25
-28
-27
-26
-27
-28
-27
-26
-27
-28
-29
-32
-36
-38
-38
-40
-44
-48
-52
-54
-55
-59
-64
-70
-75
-77
-79
-82
-85
-88
-91
-92
-92
-91
-90
-87
-84
-77
-69
-57
-47
-37
-28
-16
-6
3
12
21
28
33
36
37
38
39
40
41
42
41
40
39
38
39
40
39
38
37
36
35
38
43
42
39
38
38
41
42
39
36
36
36
37
38
37
36
36
36
35
34
34
35
38
40
38
36
33
32
31
31
33
31
26
26
30
33
35
36
35
34
34
37
41
41
39
38
37
37
38
35
32
32
32
33
34
38
42
44
47
51
54
55
57
62
68
74
78
77
77
80
80
76
74
73
68
61
51
41
34
28
25
23
24
27
30
33
34
33
35
40
54
71
121
169
203
230
214
213
278
311
246
180
115
49
-17
-82
-148
-187
-193
-187
-168
-147
-124
-97
-68
-50
-40
-29
-18
-12
-9
-11
-15
-14
-11
-8
-5
-4
-5
-7
-6
-11
-12
-14
-16
-16
-16
-16
-16
-18
-20
-19
-18
-21
-25
-30
-33
-27
-24
-26
-31
-38
-42
-42
-44
-50
-55
-60
-63
-65
-68
-71
-74
-77
-80
-83
-79
-73
-72
-71
-63
-55
-47
-40
-33
-26
-14
-3
7
16
20
25
33
40
42
44
46
49
53
56
57
58
56
54
54
54
54
51
46
45
47
48
48
48
48
47
45
46
49
50
49
49
51
52
50
49
48
48
48
46
44
42
40
40
40
42
43
38
35
39
42
41
40
38
35
30
29
32
33
31
30
30
30
31
32
32
31
29
27
25
28
33
32
29
29
28
28
24
26
28
28
28
33
38
38
39
44
48
48
49
52
57
65
70
71
72
72
72
72
70
64
52
34
28
27
21
14
12
13
14
15
20
25
28
31
43
55
98
141
189
233
220
216
281
324
259
193
128
62
-3
-69
-135
-185
-208
-209
-176
-148
-126
-99
-68
-47
-34
-25
-20
-17
-13
-12
-13
-14
-15
-16
-15
-15
-17
-16
-13
-12
-13
-14
-16
-16
-16
-18
-20
-22
-24
-25
-26
-28
-30
-32
-35
-39
-42
-41
-40
-42
-45
-48
-50
-53
-55
-58
-64
-71
-74
-75
-77
-79
-80
-80
-80
-80
-80
-79
-68
-56
-47
-39
-31
-38
-14
-6
5
16
17
18
23
28
32
36
37
38
37
36
38
40
42
43
40
38
41
41
38
37
39
39
37
36
35
34
34
34
35
35
33
34
37
38
38
38
37
34
32
35
38
33
28
29
30
28
26
26
26
23
20
20
20
22
24
24
24
23
22
21
20
20
19
17
16
17
16
13
15
19
20
19
18
17
21
27
28
27
26
26
31
36
38
40
39
39
47
54
55
56
58
60
61
64
70
74
72
70
69
61
46
36
32
28
22
20
19
19
21
22
23
27
31
38
46
88
135
180
225
221
228
277
337
278
218
153
87
22
-44
-109
-166
-195
-209
-184
-159
-137
-109
-75
-49
-36
-26
-19
-16
-17
-17
-15
-15
-18
-20
-20
-20
-19
-18
-18
-21
-25
-22
-17
-16
-17
-18
-18
-19
-20
-22
-24
-26
-28
-29
-30
-31
-33
-38
-42
-43
-45
-52
-56
-55
-55
-59
-64
-69
-74
-79
-82
-83
-85
-88
-90
-90
-86
-80
-76
-73
-67
-60
-51
-42
-26
-10
-3
3
10
18
21
24
28
32
32
32
34
36
36
36
37
38
36
34
36
38
40
42
41
40
39
38
37
37
39
38
34
33
35
36
37
37
35
33
31
34
39
37
33
32
32
30
28
26
24
23
22
22
22
20
18
19
20
20
19
15
14
20
24
23
22
19
18
17
17
19
20
20
22
26
30
34
37
39
40
41
48
55
56
56
58
61
57
52
51
50
45
39
26
14
11
7
2
-2
1
4
0
0
7
13
16
24
37
68
116
159
199
207
192
227
292
268
203
137
72
6
-59
-125
-190
-212
-228
-206
-179
-158
-136
-105
-76
-69
-61
-49
-38
-36
-34
-32
-30
-30
-30
-28
-27
-31
-32
-26
-22
-22
-23
-26
-28
-28
-28
-28
-31
-36
-38
-38
-38
-37
-39
-45
-46
-46
-46
-47
-49
-51
-55
-52
-64
-68
-73
-78
-83
-88
-92
-96
-100
-104
-105
-106
-107
-108
-108
-105
-96
-87
-79
-71
-62
-53
-41
-31
-22
-14
-7
-1
4
10
16
18
19
20
21
24
27
28
27
26
26
24
22
21
20
19
18
18
18
17
16
16
16
17
18
17
17
20
22
23
24
22
20
19
18
18
18
17
16
15
14
14
14
14
14
13
12
11
13
17
18
19
20
18
17
16
15
14
13
12
15
18
15
12
15
18
18
18
17
18
23
27
30
32
29
31
37
41
44
46
45
47
52
55
57
58
59
58
55
56
59
57
53
39
52
20
16
11
6
7
8
8
8
6
5
12
23
41
71
123
169
206
222
207
228
293
292
226
161
95
30
-36
-102
-167
-195
-207
-197
-178
-157
-134
-108
-81
-63
-46
-35
-25
-25
-26
-26
-26
-27
-28
-30
-32
-32
-32
-33
-34
-33
-33
-38
-40
-34
-30
-32
-35
-38
-40
-41
-42
-42
-45
-51
-54
-53
-53
-55
-59
-63
-65
-67
-71
-75
-76
-76
-79
-83
-86
-90
-96
-102
-101
-100
-99
-98
-96
-93
-83
-74
-65
-57
-51
-41
-23
-10
-3
4
9
13
16
20
25
27
24
23
25
26
26
24
21
21
23
23
21
20
21
22
22
22
22
18
16
18
20
16
12
12
12
12
12
14
15
10
8
15
19
16
14
12
10
10
9
7
6
5
4
4
4
3
2
2
3
5
3
-1
2
7
8
7
6
5
1
-2
2
6
4
2
3
4
6
8
11
14
15
17
24
29
34
38
36
35
39
42
42
43
46
45
40
40
44
42
34
24
13
6
0
-4
-7
-4
1
0
-3
-4
-6
-2
2
17
35
84
132
173
203
187
190
255
282
217
151
85
20
-46
-111
-177
-217
-230
-225
-204
-181
-157
-131
-104
-86
-72
-62
-53
-50
-49
-51
-55
-50
-43
-43
-45
-47
-46
-53
-56
-51
-46
-52
-58
-56
-54
-55
-56
-58
-60
-59
-58
-59
-60
-62
-64
-64
-65
-70
-74
-78
-80
-81
-86
-95
-99
-101
-104
-107
-108
-109
-115
-122
-118
-111
-109
-107
-102
-97
-93
-90
-80
-70
-63
-55
-45
-35
-24
-16
-13
-10
-8
-5
-1
3
7
10
9
8
10
8
0
-2
2
2
-2
-3
-1
0
1
2
3
1
-3
-2
1
2
3
3
1
0
-2
0
2
0
-2
-4
-6
-4
-2
-5
-8
-7
-6
-9
-11
-6
-2
-3
-4
-3
-3
-6
-9
-11
-12
-11
-11
-14
-16
-16
-16
-15
-14
-15
-16
-15
-11
-7
-8
-11
-13
-12
-14
-12
-11
-10
-8
-6
-3
0
4
8
8
8
10
13
18
23
27
30
30
30
27
27
29
26
19
7
-8
-15
-17
-19
-21
-22
-22
-23
-25
-20
-13
-10
-7
7
21
74
127
170
209
191
182
247
290
225
159
94
28
-37
-103
-169
-218
-238
-239
-212
-186
-164
-137
-105
-84
-71
-62
-55
-52
-52
-50
-46
-44
-44
-44
-44
-44
-43
-39
-35
-36
-39
-40
-42
-42
-42
-46
-50
-51
-52
-52
-52
-55
-58
-59
-60
-61
-62
-63
-64
-65
-66
-67
-70
-77
-81
-84
-89
-95
-101
-106
-110
-113
-113
-111
-113
-117
-115
-111
-103
-93
-87
-81
-72
-80
-50
-38
-30
-22
-12
-4
3
8
11
14
17
20
22
24
23
23
27
30
31
31
26
24
25
26
27
27
25
24
24
25
27
28
27
25
23
25
29
30
29
28
29
29
28
26
24
22
20
20
20
20
20
20
20
20
20
19
19
22
24
26
28
27
26
25
24
24
24
23
21
19
18
19
20
20
20
19
18
18
20
23
24
25
29
34
37
40
41
42
47
52
53
54
56
58
61
64
66
67
63
61
65
62
48
40
37
33
26
22
21
20
19
18
18
19
21
29
40
75
116
160
205
218
227
286
228
316
281
216
150
85
19
-46
-111
-175
-217
-185
-158
-140
-118
-85
-61
-53
-41
-24
-14
-13
-12
-11
-10
-11
-13
-15
-16
-16
-16
-17
-18
-18
-18
-18
-19
-21
-22
-23
-23
-21
-22
-24
-27
-30
-31
-32
-35
-38
-42
-46
-46
-47
-52
-57
-61
-65
-69
-72
-71
-72
-78
-82
-82
-83
-85
-87
-89
-88
-84
-79
-74
-66
-58
-48
-38
-28
-18
-8
1
10
19
21
24
28
32
34
36
37
38
36
34
36
38
37
36
35
34
33
33
36
38
39
40
40
39
37
36
35
34
35
35
33
32
32
33
35
36
37
36
33
36
41
42
42
38
36
37
38
35
32
31
30
30
30
31
32
30
28
30
32
32
33
36
38
38
38
38
38
37
37
40
40
37
37
39
43
48
50
51
53
55
64
73
74
74
76
78
80
82
85
88
83
78
79
78
67
57
51
45
40
36
34
34
39
42
43
44
44
46
50
72
105
148
196
223
239
268
302
317
326
274
209
143
78
12
-53
-119
-184
-169
-153
-137
-119
-85
-55
-48
-40
-25
-13
-9
-6
-6
-6
-8
-8
-3
0
0
-1
-4
-7
-9
-10
-11
-12
-13
-16
-19
-19
-17
-18
-21
-22
-23
-24
-23
-22
-22
-23
-22
-28
-30
-35
-40
-43
-46
-50
-54
-60
-64
-67
-70
-70
-71
-74
-75
-71
-66
-60
-56
-55
-50
-42
-33
-24
-15
-6
3
11
20
29
35
40
43
45
48
51
52
53
54
53
52
52
49
46
46
46
44
42
44
46
46
46
46
46
46
46
48
50
51
52
51
50
51
52
51
50
49
48
48
48
48
47
45
44
43
42
43
45
47
48
48
47
44
43
42
40
38
39
40
38
36
37
38
39
40
37
34
35
37
41
44
45
45
40
39
41
42
41
40
40
41
43
46
49
53
57
61
65
67
69
72
75
78
76
77
72
72
72
66
58
44
31
25
20
19
18
18
18
16
15
21
26
32
42
55
86
133
176
216
222
204
240
305
279
214
148
83
17
-48
-114
-179
-198
-211
-184
-153
-130
-108
-77
-48
-39
-29
-20
-12
-11
-10
-10
-10
-7
-4
-8
-10
-10
-10
-9
-8
-7
-8
-12
-13
-11
-11
-14
-16
-17
-19
-21
-23
-25
-25
-23
-24
-27
-32
-37
-35
-31
-33
-38
-44
-50
-52
-54
-59
-64
-69
-74
-76
-78
-75
-72
-73
-74
-72
-69
-65
-56
-40
-29
-20
-11
-1
8
15
21
26
31
36
38
39
43
47
48
47
46
47
48
49
50
50
52
52
49
46
44
42
42
42
40
38
39
40
41
42
40
38
39
40
40
40
40
40
40
40
41
41
39
38
39
39
37
36
35
34
35
36
35
32
29
34
41
39
36
35
34
34
34
31
28
29
30
30
30
31
32
28
26
28
30
28
27
30
32
33
34
34
35
38
41
45
46
46
49
54
58
61
62
63
64
65
74
83
81
76
76
76
65
54
45
38
31
26
24
22
24
26
27
28
29
32
37
50
73
113
171
212
240
248
241
278
343
321
256
190
125
59
-6
-72
-137
-159
-174
-159
-139
-103
-138
-54
-42
-27
-14
-7
0
-3
-6
-5
-4
-5
-6
-6
-5
-2
0
-1
-3
-6
-7
-2
0
-1
-3
-5
-6
-7
-8
-8
-13
-20
-22
-22
-22
-23
-27
-31
-34
-37
-38
-39
-44
-48
-51
-54
-59
-64
-69
-74
-76
-78
-78
-77
-73
-69
-64
-57
-48
-41
-37
-27
-11
3
13
21
27
33
39
43
45
45
43
44
47
48
48
46
43
43
45
44
41
42
46
45
44
45
46
42
38
42
46
42
38
38
38
40
42
41
40
38
36
38
40
40
38
34
33
35
35
33
32
32
32
31
30
31
30
27
27
29
28
25
26
24
32
34
32
30
29
28
26
24
24
24
25
27
31
34
36
39
42
44
46
51
58
62
63
66
72
70
63
60
61
59
54
42
27
21
17
13
9
8
8
9
11
18
24
23
23
38
58
109
157
192
217
203
209
274
299
233
168
102
37
-29
-94
-160
-196
-202
-196
-176
-153
-126
-104
-85
-67
-51
-41
-34
-32
-31
-30
-30
-30
-31
-31
-29
-28
-26
-27
-28
-31
-34
-35
-36
-40
-44
-45
-46
-46
-46
-46
-47
-51
-54
-55
-56
-55
-55
-58
-62
-66
-69
-72
-77
-83
-88
-91
-93
-95
-99
-105
-106
-107
-109
-111
-111
-109
-101
-108
-85
-78
-72
-65
-53
-41
-34
-27
-21
-15
-8
0
7
12
10
9
12
15
19
21
18
18
22
22
16
14
13
12
12
11
9
8
8
8
9
10
9
6
3
7
13
14
14
11
8
9
10
10
10
7
4
5
6
7
8
7
6
6
6
6
6
6
6
6
6
5
4
3
2
1
0
0
-1
-3
-4
-3
-2
-2
-4
-7
-5
-1
3
8
11
14
13
12
15
18
21
24
23
23
28
32
33
35
39
41
38
37
40
37
24
17
14
7
-2
-6
-7
-8
-7
-7
-9
-10
-10
-4
4
24
45
97
151
187
154
210
201
266
319
254
188
123
57
-8
-74
-139
-192
-213
-223
-207
-188
-164
-138
-110
-87
-72
-58
-46
-40
-39
-39
-42
-43
-41
-40
-41
-45
-49
-50
-50
-50
-51
-54
-57
-58
-59
-56
-52
-53
-54
-57
-60
-61
-62
-65
-68
-71
-74
-76
-79
-83
-86
-88
-91
-95
-99
-103
-106
-107
-109
-111
-116
-123
-125
-123
-122
-123
-121
-117
-112
-106
-97
-88
-80
-73
-62
-51
-36
-20
-18
-16
-10
-4
-3
-2
0
2
1
0
1
2
0
-2
-3
-4
-4
-4
-5
-6
-5
-2
2
2
-4
-6
-6
-5
-3
-3
-5
-6
-7
-8
-8
-8
-8
-9
-11
-9
-12
-4
-4
-6
-8
-6
-4
-7
-10
-12
-14
-15
-16
-17
-17
-14
-12
-12
-13
-17
-19
-14
-11
-9
-8
-9
-11
-13
-13
-11
-12
-15
-16
-16
-16
-15
-13
-11
-7
-3
-2
-2
6
14
17
20
22
24
27
30
30
30
30
30
30
29
22
14
2
-8
-14
-19
-22
-23
-21
-20
-21
-23
-25
-23
-18
-10
-1
29
65
116
170
180
179
234
299
256
202
137
71
6
-60
-125
-188
-233
-268
-239
-212
-191
-166
-134
-107
-96
-84
-72
-64
-63
-62
-63
-62
-55
-53
-55
-56
-57
-59
-61
-62
-62
-64
-69
-69
-67
-66
-66
-67
-69
-70
-69
-70
-68
-73
-72
-72
-72
-74
-76
-83
-88
-89
-91
-97
-102
-104
-107
-110
-113
-117
-121
-125
-128
-127
-124
-119
-115
-113
-109
-104
-97
-89
-82
-76
-64
-49
-42
-37
-30
-21
-17
-13
-12
-11
-3
4
2
0
2
4
-2
-8
-7
-6
-8
-10
-9
-8
-9
-10
-8
-7
-11
-14
-15
-15
-13
-12
-12
-15
-20
-25
-30
-34
-38
-40
-41
-37
-30
-26
-23
-15
-7
-11
-17
-17
-14
-8
-2
-7
-12
-10
-8
-5
-1
7
21
49
88
149
197
217
238
259
272
270
237
171
106
40
-25
-91
-156
-222
-229
-205
-180
-154
-126
-96
-80
-66
-56
-45
-44
-43
-42
-42
-38
-36
-32
-28
-29
-30
-29
-28
-30
-32
-33
-34
-35
-36
-37
-38
-39
-40
-41
-42
-43
-45
-47
-48
-47
-48
-52
-58
-64
-67
-69
-73
-77
-82
-87
-88
-88
-89
-91
-93
-95
-95
-94
-85
-76
-70
-63
-53
-43
-34
-24
-15
-7
1
6
10
13
16
19
22
24
22
19
17
17
20
21
19
17
13
12
12
11
9
7
5
4
3
3
5
4
1
1
4
4
4
6
8
7
6
7
8
5
2
4
6
3
0
1
2
2
2
1
0
-1
0
5
8
7
6
5
5
7
7
5
4
3
2
2
3
5
5
3
3
2
4
2
6
10
11
12
11
10
9
8
9
10
10
9
6
5
8
10
9
8
11
11
8
10
18
21
18
16
16
16
15
14
14
14
13
12
13
13
11
10
11
13
14
11
8
14
20
20
20
19
18
17
16
19
22
23
25
29
34
39
42
44
46
46
48
53
57
59
60
59
58
58
52
44
44
47
36
20
19
21
17
11
11
14
12
10
15
21
34
52
94
136
180
214
217
239
304
336
301
255
189
124
58
-7
-73
-137
-201
-211
-180
-158
-140
-116
-88
-72
-59
-49
-38
-29
-20
-21
-25
-25
-23
-22
-22
-19
-18
-21
-24
-23
-22
-20
-18
-21
-24
-24
-24
-26
-28
-30
-33
-36
-38
-37
-37
-40
-42
-41
-42
-46
-48
-48
-48
-48
-50
-54
-59
-63
-66
-69
-71
-73
-80
-87
-88
-87
-85
-84
-83
-82
-81
-79
-67
-56
-52
-46
-36
-26
-18
-10
-3
3
7
12
17
20
22
25
28
31
33
32
28
29
36
38
37
35
33
31
29
30
33
30
25
26
29
30
32
32
32
32
32
36
40
39
38
37
36
37
37
33
30
31
32
31
30
30
29
26
25
28
29
26
26
30
32
31
30
30
30
29
29
31
30
27
26
26
26
26
25
24
23
22
23
24
27
30
29
28
30
32
31
31
35
38
40
43
46
48
51
53
56
59
62
64
63
67
75
73
65
62
63
56
44
37
31
22
13
13
15
15
14
15
16
17
18
24
34
57
88
145
195
222
239
228
243
308
321
255
190
124
59
-7
-72
-138
-173
-187
-181
-162
-135
-105
-84
-68
-52
-35
-27
-21
-21
-23
-24
-24
-24
-24
-26
-28
-27
-26
-30
-34
-30
-26
-28
-30
-30
-31
-35
-38
-36
-35
-39
-42
-43
-44
-47
-48
-48
-49
-52
-55
-58
-60
-59
-63
-70
-74
-77
-82
-89
-93
-97
-99
-101
-102
-102
-102
-102
-94
-86
-83
-79
-66
-54
-39
-26
-17
-9
-3
4
11
17
21
24
23
23
28
30
30
29
27
25
22
24
30
30
27
26
27
26
23
22
22
22
22
22
22
21
20
20
20
20
20
16
13
19
24
23
22
19
16
15
14
16
16
11
9
12
14
13
12
11
10
10
10
10
12
15
16
16
15
13
12
11
12
15
11
5
4
6
7
8
7
6
6
7
14
20
20
20
23
26
28
30
32
34
36
38
40
43
48
51
53
54
54
53
51
50
50
39
24
17
13
5
-4
-4
-1
-1
-3
-4
-4
0
4
21
40
87
134
178
212
196
199
264
293
228
162
96
31
-35
-100
-166
-208
-224
-222
-201
-178
-152
-126
-100
-81
-67
-54
-42
-37
-35
-36
-39
-39
-37
-36
-37
-39
-41
-40
-38
-40
-42
-44
-46
-48
-50
-44
-40
-44
-48
-47
-46
-50
-53
-57
-60
-61
-62
-64
-68
-72
-75
-78
-80
-80
-85
-93
-95
-93
-95
-99
-101
-103
-105
-107
-107
-105
-104
-104
-97
-88
-79
-70
-61
-51
-40
-29
-20
-11
-3
5
10
14
16
18
18
19
22
24
22
20
19
18
17
18
22
21
16
17
22
24
24
25
27
26
23
23
25
26
26
26
26
23
22
21
20
20
20
16
13
20
26
21
18
19
20
19
18
17
16
15
14
13
12
11
11
13
14
13
10
7
11
18
17
13
12
12
12
12
12
13
13
11
11
12
15
18
13
8
11
14
15
17
25
32
32
33
37
40
39
40
45
48
49
50
51
52
53
54
55
55
53
41
25
22
25
19
10
9
11
13
15
15
13
15
20
30
41
72
106
163
214
229
247
276
301
313
303
238
172
106
41
-25
-90
-156
-190
-191
-180
-156
-129
-98
-79
-67
-56
-45
-37
-30
-28
-27
-26
-26
-26
-25
-24
-25
-27
-26
-31
-32
-35
-38
-41
-44
-41
-38
-44
-48
-48
-48
-46
-44
-46
-49
-53
-56
-55
-56
-61
-66
-71
-74
-75
-77
-80
-84
-88
-92
-96
-97
-95
-96
-99
-100
-99
-98
-97
-93
-89
-81
-74
-64
-54
-47
-39
-26
-13
-5
2
4
8
20
28
29
30
29
28
28
28
29
27
21
19
22
23
20
19
23
24
24
24
23
26
31
32
31
29
27
26
26
26
28
26
24
24
24
23
22
24
26
23
20
22
24
26
28
27
26
25
24
23
22
19
17
15
14
15
16
16
16
16
16
15
16
19
20
20
20
20
18
15
14
14
16
16
16
16
21
26
30
34
34
34
39
44
51
56
57
58
59
61
65
66
61
57
55
50
42
34
25
19
14
12
11
11
13
15
17
18
19
23
27
47
67
126
184
212
238
229
228
293
336
271
205
140
74
9
-57
-123
-168
-179
-179
-161
-139
-115
-93
-75
-58
-43
-32
-25
-22
-22
-21
-19
-19
-21
-18
-12
-12
-15
-16
-17
-19
-21
-19
-14
-20
-26
-25
-24
-25
-26
-27
-28
-32
-36
-36
-36
-36
-37
-41
-44
-46
-50
-55
-60
-67
-71
-74
-78
-84
-87
-90
-92
-92
-94
-97
-93
-86
-80
-75
-69
-63
-56
-49
-38
-48
-18
-10
0
10
18
26
27
28
31
34
36
39
43
46
44
42
43
44
42
40
41
41
38
37
40
42
41
42
45
45
43
44
47
48
49
50
50
50
49
48
47
45
44
43
42
44
46
44
42
42
42
40
39
43
46
42
40
41
42
41
40
39
39
41
41
39
39
41
42
42
44
47
48
49
57
66
68
68
68
69
72
75
79
84
81
78
79
80
79
78
75
69
54
41
37
34
33
32
34
36
34
32
31
32
37
44
52
86
140
184
223
228
216
258
323
289
224
158
93
27
-38
-104
-169
-180
-173
-169
-149
-127
-104
-77
-53
-39
-27
-19
-12
-14
-15
-10
-6
-5
-4
-5
-7
-11
-14
-13
-14
-18
-20
-19
-18
-19
-21
-23
-25
-27
-28
-28
-26
-23
-25
-29
-30
-31
-36
-41
-44
-46
-52
-58
-58
-58
-63
-68
-69
-71
-77
-82
-83
-83
-79
-76
-75
-73
-70
-65
-58
-51
-44
-36
-28
-17
-3
7
15
22
28
33
37
44
52
53
51
51
53
53
51
50
48
49
50
48
46
45
44
45
46
44
42
39
37
43
48
47
46
44
42
40
38
41
40
36
35
38
40
39
38
37
36
35
36
39
40
40
40
40
40
39
36
38
33
34
33
32
32
32
32
32
31
30
27
26
33
38
38
37
33
30
30
30
33
34
35
36
37
40
44
47
49
50
51
55
59
62
65
68
71
70
67
65
63
54
46
38
30
25
20
18
16
17
18
18
18
18
21
31
43
58
90
147
191
221
228
212
239
304
293
227
162
96
30
-35
-101
-166
-195
-214
-196
-168
-147
-128
-98
-67
-57
-46
-35
-24
-27
-30
-30
-30
-26
-22
-24
-26
-27
-27
-23
-20
-21
-23
-26
-28
-26
-25
-30
-33
-36
-38
-38
-39
-41
-44
-48
-50
-49
-52
-58
-59
-57
-57
-59
-65
-71
-77
-72
-88
-92
-96
-100
-103
-106
-106
-106
-107
-108
-105
-100
-93
-85
-74
-63
-54
-44
-34
-25
-16
-9
-3
2
6
10
14
15
13
13
15
16
16
17
19
20
21
20
17
14
11
10
10
10
10
8
6
7
8
9
10
7
4
6
8
9
9
6
4
3
2
2
1
-1
-2
-2
-3
-5
-6
-7
-8
-7
-6
-5
-6
-9
-5
3
1
-3
-4
-5
-6
-4
-6
-8
-9
-10
-11
-12
-11
-10
-12
-14
-11
-8
-5
-1
2
4
6
10
15
18
19
21
23
26
32
34
33
35
40
40
37
36
37
37
35
21
6
-1
-7
-9
-8
-12
-12
-13
-14
-12
-10
-3
4
20
44
98
150
194
217
193
202
267
278
212
147
81
16
-50
-115
-181
-216
-230
-220
-196
-170
-143
-123
-106
-86
-66
-54
-44
-46
-51
-50
-47
-47
-48
-51
-54
-51
-48
-49
-50
-52
-54
-56
-57
-51
-47
-54
-58
-58
-58
-58
-59
-62
-65
-68
-70
-71
-75
-80
-82
-83
-86
-90
-95
-100
-101
-99
-100
-103
-107
-111
-113
-115
-115
-112
-114
-116
-106
-96
-91
-85
-73
-63
-58
-50
-30
-16
-13
-9
-4
1
4
6
7
8
9
10
11
12
11
10
9
8
8
9
11
12
13
14
15
13
9
8
9
11
10
9
4
6
8
8
8
8
8
5
3
10
15
11
8
10
12
10
8
9
9
6
4
3
2
2
2
2
2
3
2
-2
-1
4
6
5
4
3
1
-1
0
3
0
-4
-2
0
1
2
2
2
5
9
16
22
24
27
32
36
37
38
38
39
43
48
52
52
47
45
48
45
37
25
10
7
9
7
3
2
3
4
5
8
11
14
18
37
59
116
171
207
235
216
213
278
311
246
180
115
49
-17
-82
-148
-189
-198
-197
-180
-158
-132
-109
-90
-72
-54
-45
-40
-35
-30
-28
-27
-28
-31
-32
-31
-30
-31
-34
-32
-38
-38
-37
-36
-40
-44
-42
-40
-42
-44
-41
-38
-40
-42
-42
-44
-50
-54
-55
-57
-60
-64
-68
-70
-71
-75
-81
-87
-92
-93
-91
-90
-91
-95
-99
-96
-91
-88
-85
-78
-71
-61
-52
-41
-30
-21
-11
-1
9
15
21
28
35
39
42
43
44
44
44
44
44
43
41
38
37
40
42
42
42
41
42
45
47
49
49
47
46
47
48
49
49
47
46
44
44
44
44
44
42
40
41
42
44
46
46
46
47
48
47
46
44
42
43
44
44
44
43
42
43
43
41
40
39
41
46
48
47
44
41
42
45
44
41
40
40
47
52
53
54
55
56
59
62
65
68
70
72
74
76
75
73
70
68
67
59
42
32
28
25
22
20
20
19
17
20
26
28
29
34
41
64
91
143
198
223
245
253
261
319
367
302
236
171
105
40
-26
-91
-144
-160
-168
-154
-137
-115
-93
-71
-53
-41
-31
-24
-20
-21
-21
-18
-17
-21
-22
-23
-21
-16
-15
-17
-19
-21
-22
-22
-23
-25
-27
-30
-30
-30
-33
-36
-37
-38
-38
-38
-42
-46
-45
-44
-46
-50
-59
-64
-65
-68
-74
-80
-85
-89
-91
-93
-95
-96
-96
-96
-97
-92
-83
-77
-71
-63
-54
-44
-33
-23
-13
-8
-12
8
18
19
20
25
30
32
34
34
34
36
38
39
40
38
35
31
28
30
31
28
26
26
26
27
29
31
30
27
28
31
32
32
32
31
30
31
31
29
28
27
24
22
23
24
22
20
19
18
14
11
16
20
18
16
16
16
14
12
13
14
13
11
8
8
12
13
11
10
11
12
12
15
20
20
17
21
27
28
27
28
31
34
38
42
46
48
50
52
54
59
63
57
53
57
58
49
38
25
15
11
8
8
7
2
1
4
6
6
9
15
32
53
105
169
204
231
230
222
275
340
288
223
157
219
26
-40
-105
-166
-181
-192
-176
-157
-128
-102
-82
-65
-51
-41
-36
-32
-33
-34
-32
-31
-34
-35
-33
-32
-33
-35
-37
-38
-38
-35
-30
-31
-35
-36
-37
-38
-38
-41
-45
-46
-46
-49
-52
-53
-54
-58
-62
-64
-66
-69
-72
-71
-71
-77
-83
-87
-90
-92
-94
-96
-98
-100
-99
-93
-87
-81
-76
-72
-63
-52
-39
-24
-14
-6
0
5
10
15
16
17
19
21
23
26
26
26
23
20
20
20
21
22
23
24
23
22
20
18
20
22
21
19
16
14
15
17
19
19
16
14
14
16
19
20
20
19
17
16
17
16
13
12
13
14
14
11
10
12
14
14
14
10
7
13
18
16
13
9
7
10
11
7
4
3
2
2
2
2
2
2
3
6
11
16
20
24
28
31
33
35
37
39
41
43
45
47
42
36
41
46
40
32
14
-2
0
2
-1
-4
-5
-6
-4
-2
-2
-2
0
8
24
58
111
157
197
205
188
223
288
264
199
133
68
2
-63
-129
-194
-215
-230
-214
-193
-173
-152
-121
-91
-75
-60
-54
-48
-46
-44
-40
-36
-38
-40
-42
-44
-43
-43
-47
-50
-50
-50
-51
-52
-53
-54
-55
-56
-56
-56
-55
-54
-53
-52
-53
-58
-63
-65
-67
-68
-69
-74
-70
-84
-88
-90
-92
-99
-106
-107
-108
-105
-102
-105
-108
-105
-102
-100
-97
-93
-87
-77
-67
-54
-44
-35
-25
-16
-11
-8
0
9
12
12
13
15
14
11
11
13
10
5
4
4
5
6
6
6
3
0
2
4
10
14
11
8
9
10
8
6
5
4
3
3
6
7
4
2
2
1
-1
0
4
6
5
4
5
4
1
1
3
4
4
2
-1
-2
0
0
0
1
2
-2
-5
2
8
4
0
1
2
1
1
4
5
1
-1
2
4
4
6
11
14
15
19
24
30
36
38
39
40
40
43
47
51
55
54
51
50
50
46
40
27
14
6
-2
0
2
3
4
3
2
3
4
5
10
21
48
97
147
197
216
204
234
299
290
232
169
104
38
-27
-93
-158
-204
-245
-227
-196
-173
-152
-122
-91
-76
-62
-54
-46
-45
-44
-44
-44
-38
-34
-37
-40
-41
-42
-42
-42
-43
-44
-44
-44
-44
-45
-48
-50
-50
-51
-53
-55
-59
-59
-57
-57
-59
-62
-65
-69
-73
-75
-77
-83
-89
-90
-90
-94
-98
-100
-102
-106
-110
-107
-104
-103
-102
-99
-95
-90
-84
-78
-70
-57
-46
-37
-29
-20
-12
-2
4
10
13
15
20
27
30
30
29
27
26
26
26
25
24
24
24
24
23
24
22
20
21
22
27
32
31
30
29
28
29
30
28
26
26
26
26
26
26
26
25
24
23
22
22
24
27
28
29
27
23
23
25
26
25
22
19
18
19
21
22
20
18
17
16
22
28
26
24
24
24
23
22
22
22
21
22
27
30
30
32
37
40
41
42
43
48
55
60
64
66
67
64
59
60
63
54
41
30
19
17
14
10
6
5
4
10
16
18
20
23
30
50
81
139
189
223
238
222
240
305
308
242
177
111
46
-20
-85
-151
-177
-184
-174
-157
-131
-102
-82
-65
-54
-43
-34
-25
-24
-24
-24
-24
-27
-30
-25
-20
-21
-22
-21
-20
-22
-24
-26
-28
-29
-30
-30
-30
-31
-32
-35
-36
-36
-38
-44
-45
-42
-41
-43
-47
-52
-57
-61
-65
-69
-75
-81
-84
-87
-90
-93
-96
-98
-99
-100
-93
-86
-82
-77
-69
-60
-51
-42
-33
-24
-14
-5
4
12
18
23
27
31
34
36
35
35
37
38
38
38
37
35
33
35
39
36
31
30
31
32
33
33
30
30
30
34
38
38
38
37
36
36
36
33
30
30
30
29
28
28
28
27
26
27
27
25
26
30
32
32
31
29
28
27
26
26
25
23
22
21
20
19
18
18
14
12
16
20
27
34
35
36
40
44
44
44
46
48
48
48
50
51
47
44
45
43
37
26
12
6
6
0
-9
-12
-11
-10
-10
-10
-10
-8
-5
11
28
77
127
169
210
200
195
260
309
244
178
113
47
-18
-84
-149
-202
-226
-235
-213
-191
-167
-142
-114
-93
-77
-65
-56
-50
-46
-44
-45
-47
-49
-49
-47
-47
-49
-51
-53
-54
-55
-56
-57
-60
-64
-64
-64
-61
-58
-60
-62
-65
-68
-70
-73
-77
-80
-82
-85
-88
-91
-95
-98
-99
-102
-107
-111
-114
-117
-119
-121
-124
-126
-127
-128
-127
-125
-123
-117
-110
-101
-91
-79
-67
-58
-66
-39
-30
-19
-8
-5
-2
5
10
8
6
5
4
3
2
2
1
-2
-3
0
2
-1
-2
-3
-2
2
5
7
6
2
0
0
0
1
-1
-5
-6
-5
-4
-4
-4
-4
-7
-10
-6
-2
-4
-6
-4
-2
-3
-4
-6
-8
-8
-8
-6
-5
-8
-10
-8
-6
-5
-6
-10
-9
-1
2
2
1
-3
-4
-4
-4
-3
-2
-3
1
9
10
11
15
19
22
26
30
34
40
46
45
44
51
55
47
40
42
41
29
17
7
-2
-8
-12
-12
-12
-13
-14
-13
-9
-3
1
4
15
29
73
129
171
210
201
180
231
296
244
179
113
175
-18
-84
-149
-210
-224
-233
-212
-190
-169
-146
-120
-96
-78
-65
-60
-56
-54
-52
-53
-54
-51
-52
-57
-56
-49
-46
-47
-49
-51
-53
-55
-56
-55
-58
-63
-63
-61
-60
-60
-63
-67
-71
-74
-76
-78
-77
-76
-77
-78
-82
-87
-93
-98
-101
-105
-110
-115
-118
-121
-124
-126
-124
-122
-123
-120
-112
-102
-92
-86
-82
-72
-60
-49
-39
-32
-26
-19
-13
-8
-3
-2
-1
3
8
6
4
9
14
11
8
10
12
8
4
6
8
7
5
2
0
2
4
3
2
3
4
3
4
8
10
9
8
8
8
7
6
5
3
1
0
1
2
2
1
2
-2
-2
0
2
3
4
3
2
1
0
0
0
1
1
-3
-6
-5
-4
-2
0
-1
-3
-5
-2
6
9
7
8
11
14
18
20
20
22
25
27
29
33
37
38
39
44
48
46
44
48
51
42
32
18
5
0
-5
-9
-12
-12
-12
-13
-13
-10
-8
-7
0
12
48
105
155
203
208
189
226
291
261
196
130
65
-1
-66
-132
-197
-217
-233
-210
-184
-160
-135
-108
-83
-65
-50
-45
-40
-40
-40
-41
-42
-43
-44
-44
-44
-43
-43
-46
-48
-48
-48
-47
-45
-42
-41
-43
-44
-45
-46
-47
-51
-55
-56
-57
-61
-65
-66
-65
-68
-64
-79
-84
-83
-82
-86
-90
-94
-98
-100
-102
-105
-108
-110
-112
-112
-109
-101
-94
-88
-81
-72
-63
-51
-39
-26
-16
-7
-2
1
4
8
10
10
10
11
12
11
13
17
15
11
9
8
12
16
17
18
17
16
14
12
14
16
13
10
11
12
11
10
12
13
9
8
12
15
18
19
17
16
16
16
17
15
10
10
13
14
14
14
13
12
13
14
16
15
14
17
20
18
16
14
12
13
14
12
10
9
8
10
13
16
17
13
10
11
16
24
28
29
32
36
40
43
44
44
46
49
50
50
50
50
52
55
55
56
34
16
18
20
15
10
9
8
9
10
12
14
13
16
28
50
89
135
192
222
223
257
321
327
286
231
165
99
34
-32
-97
-163
-228
-216
-182
-159
-139
-105
-71
-56
-43
-35
-28
-20
-12
-11
-10
-12
-14
-14
-14
-14
-15
-20
-24
-20
-18
-20
-22
-23
-24
-25
-26
-26
-26
-27
-28
-27
-27
-31
-34
-37
-39
-41
-44
-47
-52
-57
-60
-63
-67
-71
-80
-90
-88
-86
-88
-90
-93
-96
-96
-95
-89
-84
-82
-78
-69
-59
-47
-37
-28
-18
-6
2
9
17
27
33
35
37
40
42
41
42
45
43
39
38
38
38
39
42
45
43
46
39
40
46
52
49
46
45
44
44
44
43
42
39
36
38
40
38
36
36
36
35
34
35
36
37
38
38
37
35
34
34
34
35
32
27
26
26
27
29
30
30
27
24
31
38
36
34
33
32
32
32
33
34
33
33
40
44
46
49
52
56
62
65
63
67
77
82
82
85
92
90
82
83
88
82
70
59
48
44
41
38
35
34
34
33
32
38
44
43
44
63
88
142
191
228
250
233
244
309
325
262
198
132
67
1
-64
-130
-169
-190
-183
-159
-136
-115
-88
-59
-42
-27
-20
-15
-10
-5
-4
-3
-2
-2
-4
-6
-2
2
1
0
-2
-4
-4
-4
-9
-12
-13
-15
-18
-20
-20
-21
-24
-26
-26
-28
-33
-34
-30
-29
-32
-35
-37
-42
-48
-53
-57
-62
-69
-70
-71
-74
-77
-78
-79
-78
-76
-73
-70
-58
-48
-42
-34
-22
-11
-4
4
16
25
30
35
40
45
49
52
54
56
55
54
54
55
58
57
52
50
50
50
49
48
48
46
43
45
49
47
43
43
46
44
42
48
54
51
48
49
50
50
50
48
46
46
45
42
40
41
42
42
42
41
40
39
41
47
49
47
44
41
41
43
44
45
43
39
40
43
44
45
44
46
41
42
44
46
49
52
56
60
59
58
60
64
71
76
74
73
77
80
82
85
90
88
80
81
90
88
76
65
54
47
42
38
35
33
31
31
33
35
37
40
43
69
95
157
216
242
266
270
284
343
376
311
245
180
114
48
-17
-83
-129
-149
-154
-140
-117
-85
-62
-45
-29
-14
-7
-5
-2
1
0
-3
-4
-4
-5
-7
-8
-7
-7
-9
-9
-6
-8
-10
-7
-4
-5
-6
-8
-10
-13
-16
-16
-17
-22
-26
-28
-30
-32
-35
-38
-41
-44
-48
-53
-54
-50
-52
-59
-62
-63
-65
-67
-68
-69
-68
-65
-60
-55
-48
-41
-31
-40
-9
2
13
24
35
44
49
54
55
56
59
62
64
65
62
60
62
64
63
62
62
62
61
62
66
68
68
68
68
68
68
68
68
68
68
68
67
65
63
62
63
63
62
60
58
62
66
64
62
58
54
53
52
52
52
50
48
47
46
48
48
43
40
41
42
43
44
43
41
39
38
39
37
33
33
35
36
35
34
35
36
37
38
38
42
46
52
58
58
58
61
64
67
70
70
70
70
72
78
81
78
76
74
66
53
46
45
41
35
31
29
29
31
30
27
29
33
39
46
75
107
161
217
235
220
276
301
324
340
275
209
144
78
13
-53
-118
-166
-167
-161
-140
-113
-77
-54
-48
-38
-25
-16
-11
-8
-9
-9
-7
-8
-12
-14
-14
-14
-15
-16
-15
-18
-23
-24
-24
-24
-25
-26
-26
-24
-22
-22
-22
-25
-28
-30
-33
-38
-42
-44
-46
-48
-51
-55
-59
-63
-67
-70
-70
-66
-67
-75
-78
-77
-77
-79
-78
-74
-69
-65
-57
-48
-41
-33
-19
-4
3
9
18
28
34
40
42
44
44
44
45
46
45
44
42
40
41
41
38
36
36
36
38
41
46
47
45
45
47
48
48
46
43
42
43
44
43
42
41
40
39
37
35
36
34
41
42
41
40
38
36
35
34
32
30
28
26
26
26
27
28
26
24
24
26
31
33
30
28
27
26
27
26
23
22
22
22
22
22
23
24
25
26
27
33
39
41
42
44
46
49
52
53
54
56
58
57
56
59
62
62
61
57
48
33
24
25
23
16
11
9
8
8
9
11
11
9
15
25
49
77
131
190
216
238
256
275
299
323
258
192
127
61
-4
-70
-135
-188
-187
-182
-163
-140
-103
-75
-66
-56
-46
-36
-26
-20
-21
-22
-23
-24
-24
-25
-27
-30
-34
-35
-33
-33
-35
-36
-37
-40
-43
-44
-45
-45
-46
-41
-40
-45
-50
-53
-56
-57
-58
-64
-68
-71
-74
-77
-81
-86
-92
-99
-104
-102
-101
-106
-109
-111
-112
-111
-109
-107
-104
-101
-94
-85
-75
-65
-55
-46
-36
-26
-18
-11
-1
9
12
14
16
18
17
16
19
22
16
12
14
16
16
16
15
13
10
8
10
12
14
15
13
12
12
11
9
8
8
6
3
2
3
1
-3
-1
3
0
-5
-3
1
2
0
-1
-2
-5
-8
-4
0
-7
-12
-10
-8
-8
-8
-9
-10
-11
-12
-10
-8
-6
-4
-7
-8
-8
-9
-11
-12
-11
-10
-10
-5
2
3
1
4
9
11
13
15
17
23
18
28
26
29
32
27
22
22
19
3
-10
-13
-17
-23
-28
-30
-32
-34
-33
-23
-18
-19
-17
-10
12
45
93
151
184
202
228
258
278
294
246
181
115
50
-16
-81
-147
-212
-214
-214
-198
-180
-146
-115
-106
-97
-88
-79
-71
-64
-65
-66
-67
-68
-69
-69
-65
-62
-63
-64
-64
-65
-67
-70
-74
-76
-76
-77
-79
-81
-83
-84
-84
-86
-89
-91
-93
-93
-91
-94
-100
-103
-106
-109
-112
-116
-120
-127
-132
-131
-131
-135
-138
-140
-142
-140
-136
-129
-122
-116
-109
-100
-91
-81
-72
-64
-54
-44
-36
-29
-23
-18
-15
-13
-9
-5
-3
-1
2
5
6
6
1
-2
-3
-4
-5
-6
-6
-6
-6
-6
-7
-8
-9
-10
-10
-9
-3
0
-1
-2
-2
-2
-1
-1
-4
-6
-6
-6
-7
-9
-11
-11
-9
-10
-13
-14
-14
-12
-9
-8
-7
-10
-14
-13
-12
-13
-14
-16
-18
-16
-14
-13
-12
-15
-18
-17
-14
-5
0
1
4
9
13
16
18
19
21
24
27
29
31
33
32
29
28
28
20
10
5
1
-4
-9
-13
-18
-16
-14
-13
-12
-14
-15
-5
9
36
71
131
182
209
228
228
253
318
327
261
196
130
65
-1
-66
-132
-176
-207
-207
-191
-164
-132
-114
-101
-84
-67
-53
-40
-38
-39
-41
-40
-43
-42
-43
-44
-48
-52
-49
-46
-48
-50
-49
-48
-51
-54
-52
-50
-50
-50
-48
-47
-50
-54
-58
-60
-61
-63
-66
-71
-76
-79
-81
-84
-87
-94
-102
-103
-101
-100
-101
-105
-109
-112
-114
-110
-106
-106
-105
-94
-83
-75
-66
-55
-44
-32
-23
-18
-10
1
8
10
12
13
14
13
13
15
15
12
10
9
8
8
9
11
8
3
5
9
13
17
16
13
12
14
14
14
13
12
11
10
11
12
9
6
8
10
8
7
12
16
14
12
14
16
13
11
9
9
12
12
8
6
6
6
7
6
3
2
2
6
11
11
9
8
8
8
8
8
8
4
0
7
12
15
18
19
21
25
29
33
37
43
47
50
52
55
57
59
59
56
54
54
49
41
32
23
14
6
0
-5
-4
-1
4
9
10
9
14
20
40
62
116
168
207
237
219
218
283
314
249
183
117
52
-14
-79
-145
-188
-204
-202
-182
-159
-134
-110
-85
-71
-61
-49
-34
-32
-35
-35
-33
-34
-37
-33
-27
-26
-27
-27
-24
-24
-24
-30
-36
-37
-38
-37
-36
-38
-40
-41
-42
-43
-44
-44
-44
-43
-43
-47
-52
-57
-61
-63
-66
-70
-75
-81
-83
-81
-82
-85
-90
-96
-98
-97
-90
-83
-80
-77
-71
-76
-53
-42
-36
-29
-18
-7
0
6
9
12
17
20
22
25
30
34
35
36
36
35
32
30
30
30
30
29
26
24
25
26
27
27
25
26
29
30
31
32
33
33
31
31
32
30
28
27
26
27
28
28
28
25
22
21
21
25
28
26
24
24
24
23
22
22
22
21
21
23
24
23
23
25
24
21
21
23
29
35
36
35
34
34
34
36
36
36
38
40
42
44
45
47
54
60
60
61
67
72
72
74
80
82
76
72
69
62
50
39
30
23
18
16
16
16
15
14
15
21
28
36
43
81
122
176
124
241
252
302
346
315
279
214
148
83
17
-48
-114
-179
-214
-182
-155
-134
-109
-76
-54
-43
-33
-21
-16
-16
-16
-15
-14
-13
-12
-12
-14
-17
-14
-9
-9
-11
-12
-13
-14
-15
-18
-20
-23
-26
-26
-26
-26
-26
-29
-32
-33
-35
-41
-45
-41
-39
-43
-47
-51
-57
-64
-68
-69
-73
-81
-84
-85
-85
-83
-82
-81
-79
-77
-69
-60
-49
-38
-28
-17
-7
3
11
20
27
34
38
42
46
50
51
52
56
59
53
50
58
64
62
60
59
58
56
55
58
58
54
52
53
54
54
54
54
54
54
53
51
54
59
58
55
54
54
50
54
46
48
46
44
44
44
42
40
42
44
42
40
39
39
44
48
46
44
44
44
44
43
41
39
36
35
38
40
39
39
41
42
41
45
52
56
59
64
69
72
75
76
76
81
86
85
84
88
92
86
82
84
83
68
58
57
54
45
40
38
37
40
41
39
38
37
40
49
70
99
148
208
241
264
280
293
333
378
327
262
196
131
65
-1
-66
-129
-149
-167
-150
-131
-99
-70
-60
-49
-35
-22
-14
-8
-8
-8
-7
-6
-5
-4
-7
-9
-11
-13
-15
-16
-15
-16
-20
-22
-22
-24
-27
-27
-25
-25
-27
-28
-29
-34
-30
-42
-44
-50
-56
-58
-60
-64
-68
-71
-75
-81
-87
-91
-94
-93
-93
-96
-98
-96
-94
-94
-93
-90
-84
-77
-69
-60
-50
-41
-29
-16
-7
0
3
5
16
28
30
31
31
29
28
28
30
32
26
20
23
26
25
24
23
22
20
18
19
20
22
24
24
24
23
21
19
18
17
16
15
13
11
10
10
10
11
8
3
3
5
6
5
4
4
3
0
1
2
0
-2
-3
-4
-3
-2
-5
-8
-5
-3
-7
-9
-5
-2
-2
-2
-1
-2
-7
-8
-4
-3
-5
-3
2
5
7
10
15
19
23
24
24
34
46
47
45
47
44
46
40
42
43
31
19
10
1
-6
-12
-12
-12
-11
-10
-11
-10
-4
1
5
17
36
75
132
178
214
217
197
232
297
271
206
140
75
9
-56
-122
-187
-210
-226
-214
-199
-170
-142
-121
-101
-86
-72
-64
-58
-57
-56
-57
-58
-55
-53
-57
-60
-61
-61
-57
-54
-54
-55
-57
-59
-61
-63
-65
-67
-69
-70
-69
-68
-69
-72
-75
-78
-81
-80
-77
-81
-87
-88
-88
-94
-100
-105
-110
-115
-120
-121
-122
-126
-130
-128
-126
-126
-125
-122
-116
-105
-94
-85
-76
-67
-58
-48
-39
-30
-25
-23
-16
-7
-4
-3
-2
-1
0
1
6
11
9
5
5
4
8
8
6
4
3
2
1
0
0
0
1
2
2
1
-4
-6
1
5
2
0
-1
-2
-3
-4
-3
-5
-10
-10
-7
-6
-6
-7
-9
-10
-10
-9
-7
-6
-6
-7
-9
-8
-6
-10
-14
-13
-12
-13
-14
-13
-12
-12
-12
-11
-10
-14
-14
-5
0
-1
-2
-2
0
5
9
11
12
11
11
15
19
24
26
26
29
33
34
35
37
39
38
35
21
6
-1
-8
-13
-18
-18
-18
-18
-18
-15
-12
-11
-7
3
26
74
124
178
206
200
227
292
291
230
167
101
36
-30
-96
-161
-202
-234
-225
-203
-179
-154
-124
-93
-76
-59
-50
-58
-40
-40
-40
-40
-41
-42
-42
-42
-40
-38
-40
-42
-44
-46
-48
-48
-42
-40
-45
-48
-47
-47
-50
-53
-55
-57
-60
-62
-62
-63
-65
-69
-74
-76
-77
-81
-85
-86
-86
-88
-91
-97
-102
-107
-112
-111
-110
-112
-113
-106
-99
-92
-84
-76
-68
-58
-46
-29
-16
-10
-4
1
7
13
15
13
13
15
17
19
19
17
16
15
15
17
14
9
15
23
24
25
25
22
18
14
18
22
19
16
15
14
18
22
21
20
19
19
22
24
22
19
15
12
13
14
14
14
14
13
11
10
9
8
8
9
11
9
5
8
13
13
11
10
10
8
6
5
4
3
2
0
-2
1
4
3
2
3
4
3
3
7
12
18
22
23
24
25
28
32
35
