1416
1413
1411
1405
1399
1394
1391
1381
1386
1383
1379
1377
1376
1377
1377
1377
1379
1377
1379
1383
1384
1384
1389
1383
1389
1389
1391
1391
1393
1394
1393
1391
1393
1398
1393
1394
1394
1394
1394
1394
1399
1394
1394
1394
1393
1394
1394
1394
1394
1394
1399
1394
1391
1391
1393
1391
1391
1393
1391
1389
1393
1391
1389
1389
1389
1389
1383
1388
1389
1386
1388
1384
1386
1386
1386
1384
1384
1384
1386
1383
1384
1384
1376
1384
1383
1383
1383
1383
1381
1381
1383
1383
1381
1383
1383
1384
1383
1383
1383
1383
1381
1383
1383
1383
1383
1383
1379
1383
1383
1372
1379
1379
1377
1377
1376
1379
1377
1377
1377
1377
1384
1376
1377
1377
1377
1371
1377
1377
1376
1377
1377
1377
1376
1377
1376
1376
1376
1376
1376
1376
1376
1371
1376
1376
1376
1376
1376
1377
1376
1376
1376
1377
1374
1374
1376
1376
1376
1372
1376
1374
1374
1377
1376
1374
1374
1374
1376
1377
1369
1376
1376
1376
1376
1376
1377
1377
1376
1377
1377
1377
1376
1377
1377
1377
1372
1377
1376
1377
1377
1376
1377
1377
1377
1376
1379
1377
1377
1376
1377
1377
1376
1379
1377
1379
1376
1377
1376
1377
1377
1379
1379
1377
1379
1383
1383
1383
1377
1379
1379
1379
1381
1383
1381
1383
1383
1383
1383
1374
1381
1383
1381
1383
1381
1383
1384
1383
1383
1384
1381
1383
1384
1384
1384
1381
1386
1386
1388
1388
1389
1389
1393
1391
1393
1391
1389
1389
1389
1391
1393
1388
1389
1389
1386
1384
1383
1381
1383
1383
1381
1383
1374
1384
1383
1383
1384
1384
1386
1384
1386
1388
1389
1394
1389
1391
1388
1398
1421
1449
1484
1527
1566
1574
1571
1567
1544
1466
1362
1318
1338
1354
1360
1367
1371
1383
1389
1389
1388
1391
1394
1393
1393
1394
1394
1393
1393
1393
1394
1398
1393
1393
1394
1398
1394
1398
1396
1394
1394
1394
1394
1405
1399
1399
1398
1398
1401
1401
1399
1401
1399
1401
1403
1403
1403
1405
1403
1411
1410
1410
1410
1410
1410
1411
1416
1415
1416
1416
1420
1418
1423
1421
1421
1423
1425
1425
1425
1427
1423
1425
1423
1423
1420
1418
1423
1418
1411
1410
1406
1403
1399
1396
1393
1389
1386
1383
1379
1376
1374
1374
1366
1372
1372
1372
1376
1377
1379
1379
1381
1381
1383
1384
1384
1389
1386
1389
1384
1389
1389
1389
1391
1389
1391
1391
1393
1389
1391
1389
1393
1388
1389
1389
1389
1391
1391
1388
1393
1391
1391
1389
1388
1389
1391
1383
1388
1384
1386
1384
1381
1381
1383
1384
1381
1383
1389
1383
1379
1383
1381
1372
1377
1377
1376
1377
1376
1377
1374
1376
1376
1376
1374
1374
1374
1372
1374
1371
1376
1376
1376
1377
1376
1374
1372
1374
1372
1372
1372
1374
1374
1374
1372
1371
1371
1372
1372
1371
1372
1372
1371
1372
1372
1374
1366
1371
1372
1374
1372
1372
1371
1371
1372
1371
1371
1371
1372
1374
1371
1371
1366
1371
1371
1372
1372
1372
1376
1374
1374
1374
1372
1374
1374
1376
1374
1376
1372
1374
1371
1372
1374
1372
1371
1372
1374
1372
1374
1372
1372
1371
1371
1372
1371
1374
1374
1374
1372
1374
1371
1371
1374
1371
1376
1366
1372
1371
1371
1372
1371
1372
1371
1374
1372
1372
1371
1372
1372
1374
1374
1369
1376
1376
1372
1376
1374
1376
1374
1376
1376
1376
1374
1376
1376
1374
1374
1372
1376
1374
1376
1376
1374
1376
1376
1374
1376
1376
1367
1376
1377
1377
1376
1376
1376
1376
1376
1379
1379
1386
1379
1381
1377
1379
1371
1377
1379
1381
1379
1383
1383
1383
1381
1379
1383
1383
1381
1381
1383
1384
1377
1381
1381
1383
1384
1386
1388
1386
1389
1391
1391
1391
1391
1389
1389
1389
1386
1389
1389
1389
1388
1389
1388
1388
1386
1384
1384
1377
1384
1386
1384
1386
1386
1388
1386
1389
1389
1389
1389
1391
1393
1393
1394
1391
1401
1411
1432
1464
1493
1540
1571
1577
1567
1554
1515
1438
1349
1328
1344
1354
1366
1371
1377
1386
1389
1394
1393
1396
1398
1398
1403
1399
1399
1399
1398
1403
1403
1403
1403
1399
1401
1403
1403
1403
1403
1403
1413
1406
1405
1405
1405
1410
1408
1410
1410
1411
1408
1411
1411
1413
1415
1413
1421
1418
1420
1420
1423
1421
1423
1423
1425
1428
1430
1432
1433
1437
1435
1437
1438
1440
1442
1440
1444
1442
1444
1444
1444
1444
1442
1447
1440
1438
1435
1432
1430
1425
1421
1418
1413
1408
1406
1403
1398
1393
1389
1377
1383
1377
1379
1377
1379
1377
1377
1379
1383
1383
1383
1386
1386
1386
1393
1389
1393
1391
1393
1393
1393
1393
1394
1394
1394
1394
1396
1396
1394
1394
1396
1394
1396
1398
1398
1394
1394
1394
1394
1394
1394
1393
1403
1396
1394
1394
1394
1391
1393
1393
1393
1391
1391
1388
1393
1389
1389
1391
1381
1389
1389
1388
1386
1386
1388
1386
1386
1388
1386
1384
1386
1386
1383
1384
1381
1383
1383
1383
1384
1383
1381
1383
1383
1383
1383
1379
1379
1379
1379
1381
1377
1379
1379
1377
1377
1383
1383
1379
1377
1379
1379
1372
1377
1377
1377
1377
1377
1377
1377
1377
1376
1377
1377
1377
1376
1377
1377
1372
1376
1376
1372
1377
1377
1377
1377
1376
1376
1376
1376
1374
1376
1376
1377
1374
1376
1376
1376
1376
1376
1374
1376
1376
1376
1377
1367
1374
1372
1376
1376
1372
1376
1376
1376
1376
1376
1383
1376
1376
1376
1374
1367
1376
1376
1376
1377
1379
1381
1383
1383
1383
1384
1383
1384
1386
1389
1388
1384
1389
1389
1388
1384
1384
1381
1383
1377
1377
1377
1376
1377
1376
1374
1374
1371
1376
1376
1376
1376
1377
1376
1377
1379
1377
1379
1374
1379
1381
1381
1386
1393
1420
1457
1496
1540
1566
1566
1566
1557
1528
1447
1337
1311
1330
1342
1355
1360
1367
1372
1379
1379
1383
1386
1388
1386
1384
1389
1384
1386
1388
1389
1386
1389
1388
1389
1389
1391
1391
1388
1391
1391
1391
1393
1391
1393
1393
1391
1394
1393
1396
1394
1394
1394
1394
1403
1399
1398
1398
1398
1399
1401
1403
1403
1406
1406
1408
1408
1413
1413
1413
1421
1420
1421
1420
1421
1421
1423
1425
1425
1427
1425
1427
1425
1425
1425
1423
1423
1420
1418
1413
1410
1406
1405
1399
1394
1391
1391
1379
1386
1383
1379
1377
1376
1376
1372
1374
1376
1377
1383
1377
1377
1379
1383
1376
1381
1383
1384
1383
1384
1384
1386
1384
1384
1386
1384
1386
1386
1384
1386
1384
1386
1383
1384
1386
1386
1383
1386
1386
1381
1386
1381
1384
1381
1383
1381
1383
1379
1379
1377
1379
1379
1376
1376
1376
1376
1376
1369
1374
1371
1372
1372
1371
1372
1372
1372
1372
1371
1369
1371
1371
1371
1372
1366
1371
1369
1369
1369
1369
1369
1369
1367
1369
1371
1367
1369
1369
1369
1367
1369
1369
1369
1367
1369
1369
1367
1369
1371
1369
1372
1366
1371
1367
1369
1369
1366
1367
1369
1369
1367
1371
1371
1369
1367
1367
1369
1364
1369
1371
1367
1369
1369
1371
1369
1369
1369
1371
1369
1371
1369
1369
1369
1362
1367
1367
1369
1369
1369
1367
1369
1369
1369
1371
1369
1369
1367
1369
1371
1367
1369
1371
1369
1371
1371
1369
1369
1369
1371
1371
1362
1371
1369
1371
1371
1367
1371
1371
1371
1369
1371
1374
1369
1371
1371
1371
1364
1372
1372
1371
1371
1372
1372
1371
1371
1372
1371
1371
1371
1371
1372
1372
1369
1372
1372
1372
1372
1372
1372
1374
1374
1376
1377
1376
1376
1376
1374
1374
1372
1374
1376
1376
1376
1374
1376
1374
1376
1374
1377
1367
1377
1376
1377
1377
1376
1376
1377
1374
1376
1376
1376
1383
1377
1379
1377
1371
1379
1377
1377
1377
1377
1377
1377
1377
1376
1379
1379
1379
1379
1381
1379
1377
1379
1377
1379
1379
1379
1383
1383
1383
1381
1381
1376
1383
1383
1384
1384
1383
1383
1383
1386
1386
1386
1391
1389
1388
1389
1391
1383
1388
1393
1394
1398
1398
1394
1394
1394
1398
1394
1393
1391
1391
1393
1386
1383
1384
1386
1386
1383
1383
1383
1383
1384
1384
1386
1384
1386
1384
1384
1386
1386
1388
1389
1391
1389
1394
1405
1437
1472
1508
1549
1576
1569
1566
1554
1513
1418
1332
1328
1347
1357
1367
1374
1377
1381
1384
1389
1386
1394
1394
1393
1393
1393
1394
1394
1394
1394
1394
1394
1394
1398
1398
1396
1394
1394
1394
1398
1396
1398
1398
1399
1398
1398
1398
1399
1403
1403
1403
1403
1405
1405
1405
1405
1406
1406
1410
1410
1413
1411
1411
1420
1416
1416
1418
1420
1423
1421
1423
1425
1425
1427
1430
1430
1432
1430
1432
1437
1430
1428
1427
1427
1427
1425
1425
1423
1420
1415
1415
1410
1406
1399
1394
1393
1391
1388
1384
1384
1383
1377
1377
1379
1377
1379
1372
1381
1381
1381
1384
1383
1386
1389
1391
1391
1393
1399
1393
1393
1393
1394
1388
1396
1398
1398
1396
1399
1398
1398
1398
1396
1394
1398
1394
1394
1393
1394
1388
1393
1391
1391
1389
1393
1389
1389
1388
1389
1386
1386
1386
1386
1386
1384
1383
1381
1383
1381
1383
1381
1383
1383
1383
1379
1379
1372
1379
1377
1379
1383
1376
1376
1376
1377
1377
1379
1379
1377
1376
1376
1376
1369
1374
1376
1374
1376
1376
1374
1374
1374
1372
1376
1372
1372
1372
1374
1376
1372
1372
1376
1376
1372
1372
1372
1372
1374
1374
1376
1372
1372
1372
1372
1372
1371
1372
1371
1371
1372
1372
1371
1374
1372
1372
1372
1364
1372
1371
1371
1372
1371
1371
1372
1371
1371
1371
1371
1369
1371
1371
1372
1367
1371
1372
1372
1372
1372
1371
1371
1371
1372
1372
1369
1372
1371
1372
1372
1371
1372
1372
1371
1372
1372
1371
1371
1372
1371
1374
1367
1372
1372
1372
1372
1371
1372
1371
1371
1372
1371
1377
1372
1374
1372
1372
1364
1372
1372
1374
1372
1372
1372
1374
1372
1372
1372
1371
1369
1372
1371
1374
1367
1371
1372
1372
1372
1372
1371
1374
1372
1374
1376
1374
1372
1372
1372
1372
1372
1372
1376
1374
1374
1374
1374
1374
1374
1376
1376
1369
1376
1376
1377
1376
1376
1376
1377
1377
1376
1377
1379
1377
1377
1377
1379
1374
1377
1381
1383
1383
1381
1383
1386
1386
1383
1386
1389
1391
1391
1391
1391
1386
1393
1394
1391
1391
1388
1386
1384
1383
1383
1381
1381
1383
1381
1379
1381
1383
1381
1381
1383
1383
1384
1386
1386
1388
1386
1391
1383
1391
1394
1399
1415
1438
1471
1505
1542
1569
1569
1560
1547
1516
1437
1350
1320
1340
1350
1360
1369
1374
1383
1386
1391
1391
1394
1394
1394
1394
1396
1394
1394
1396
1399
1398
1398
1398
1398
1398
1399
1399
1398
1406
1399
1401
1401
1399
1403
1405
1405
1406
1405
1403
1405
1408
1406
1408
1408
1416
1411
1415
1413
1413
1416
1416
1416
1418
1420
1420
1423
1423
1423
1425
1423
1433
1427
1430
1430
1432
1433
1435
1435
1435
1433
1433
1433
1432
1433
1432
1425
1427
1427
1420
1418
1413
1408
1406
1403
1396
1394
1389
1377
1383
1379
1377
1376
1372
1372
1376
1376
1376
1379
1379
1379
1383
1384
1386
1379
1386
1386
1389
1391
1393
1393
1394
1393
1393
1393
1391
1394
1394
1393
1394
1391
1394
1393
1394
1398
1394
1393
1394
1394
1394
1394
1394
1393
1393
1393
1391
1388
1393
1393
1389
1391
1389
1389
1386
1386
1389
1386
1383
1386
1388
1386
1384
1381
1383
1383
1383
1381
1381
1379
1383
1379
1379
1383
1374
1377
1379
1379
1377
1377
1377
1376
1376
1376
1377
1376
1377
1379
1377
1376
1374
1376
1376
1376
1377
1372
1374
1372
1374
1374
1376
1369
1374
1372
1376
1376
1372
1374
1376
1374
1374
1376
1383
1372
1374
1372
1376
1367
1374
1371
1372
1372
1372
1371
1372
1372
1372
1371
1371
1372
1371
1371
1372
1367
1371
1369
1371
1371
1371
1369
1369
1371
1371
1371
1369
1371
1371
1367
1369
1369
1371
1371
1371
1371
1371
1369
1371
1369
1369
1372
1364
1367
1371
1371
1371
1369
1369
1369
1371
1371
1371
1372
1371
1371
1369
1371
1366
1372
1372
1372
1372
1371
1372
1371
1372
1374
1374
1371
1372
1374
1372
1371
1371
1374
1374
1374
1372
1372
1374
1371
1374
1372
1374
1372
1372
1372
1374
1374
1374
1372
1374
1372
1374
1377
1376
1377
1376
1376
1374
1367
1374
1376
1376
1377
1376
1376
1376
1376
1376
1377
1376
1376
1377
1377
1379
1371
1377
1376
1377
1377
1377
1377
1379
1377
1379
1383
1381
1377
1381
1383
1383
1381
1386
1389
1386
1388
1389
1386
1386
1389
1389
1388
1379
1384
1383
1384
1386
1383
1383
1383
1383
1377
1379
1384
1377
1377
1377
1381
1374
1379
1383
1383
1383
1381
1381
1383
1384
1386
1384
1384
1386
1384
1393
1410
1450
1483
1521
1555
1569
1566
1562
1549
1510
1415
1327
1325
1344
1355
1359
1369
1372
1379
1383
1384
1388
1391
1391
1391
1391
1393
1393
1384
1391
1393
1391
1393
1391
1391
1393
1391
1393
1393
1393
1393
1394
1393
1394
1389
1394
1394
1394
1394
1398
1396
1398
1399
1401
1398
1399
1403
1403
1403
1403
1405
1406
1406
1406
1408
1410
1410
1410
1411
1415
1413
1420
1418
1418
1420
1418
1421
1423
1423
1425
1425
1425
1425
1423
1425
1423
1420
1425
1418
1416
1413
1410
1408
1405
1399
1396
1393
1389
1384
1383
1379
1377
1376
1369
1374
1374
1372
1372
1372
1377
1376
1377
1383
1383
1383
1384
1386
1389
1388
1388
1391
1391
1393
1391
1391
1393
1393
1394
1393
1394
1386
1394
1393
1394
1394
1389
1393
1394
1393
1393
1393
1399
1393
1393
1393
1391
1386
1389
1389
1389
1389
1389
1389
1386
1386
1388
1388
1384
1384
1383
1384
1384
1377
1383
1381
1384
1379
1383
1379
1383
1377
1379
1383
1377
1376
1377
1377
1377
1376
1377
1377
1377
1376
1376
1376
1376
1376
1376
1377
1367
1374
1376
1376
1376
1372
1376
1374
1374
1374
1377
1376
1376
1376
1376
1376
1371
1374
1376
1376
1376
1376
1374
1376
1376
1376
1374
1372
1372
1372
1372
1376
1374
1374
1374
1372
1374
1376
1372
1372
1372
1372
1376
1372
1374
1376
1376
1372
1371
1372
1372
1374
1374
1372
1372
1371
1374
1371
1376
1366
1374
1371
1374
1372
1371
1371
1374
1374
1374
1376
1374
1372
1374
1372
1374
1369
1376
1376
1376
1376
1377
1374
1376
1374
1377
1376
1374
1376
1374
1371
1376
1372
1374
1374
1376
1376
1376
1374
1376
1374
1374
1374
1369
1374
1376
1376
1374
1372
1374
1376
1376
1376
1377
1383
1377
1376
1374
1376
1367
1377
1377
1377
1377
1377
1377
1377
1377
1377
1379
1377
1377
1379
1379
1377
1374
1379
1381
1379
1379
1383
1383
1381
1384
1386
1384
1381
1384
1386
1388
1393
1389
1389
1388
1384
1386
1389
1388
1389
1389
1388
1389
1379
1384
1383
1383
1383
1381
1384
1384
1386
1384
1384
1383
1386
1388
1386
1388
1381
1389
1389
1389
1393
1394
1399
1410
1433
1467
1503
1540
1567
1569
1566
1549
1518
1444
1349
1328
1342
1355
1362
1369
1376
1384
1389
1389
1394
1394
1396
1398
1393
1396
1398
1398
1398
1398
1399
1399
1398
1401
1399
1406
1399
1399
1399
1403
1406
1403
1403
1405
1403
1403
1406
1406
1410
1410
1410
1415
1408
1410
1411
1411
1413
1416
1416
1415
1415
1416
1418
1418
1421
1423
1425
1428
1427
1430
1430
1430
1430
1433
1435
1437
1437
1437
1445
1438
1438
1438
1437
1437
1433
1437
1432
1428
1425
1423
1420
1416
1413
1410
1411
1399
1396
1391
1389
1386
1384
1383
1383
1381
1377
1377
1379
1383
1383
1386
1383
1388
1389
1391
1393
1394
1393
1393
1394
1398
1398
1398
1398
1398
1398
1396
1399
1399
1398
1398
1398
1401
1399
1398
1398
1398
1396
1405
1399
1399
1399
1394
1399
1394
1396
1396
1398
1393
1394
1393
1393
1393
1394
1386
1389
1389
1389
1391
1391
1389
1389
1389
1388
1388
1386
1386
1389
1388
1389
1386
1388
1386
1386
1388
1384
1384
1384
1384
1386
1386
1383
1381
1384
1384
1386
1384
1384
1384
1383
1384
1386
1384
1381
1383
1383
1384
1377
1386
1383
1383
1383
1379
1381
1384
1386
1383
1384
1383
1383
1383
1383
1383
1376
1383
1383
1381
1381
1381
1383
1383
1383
1384
1381
1383
1383
1383
1383
1383
1381
1383
1384
1388
1386
1386
1386
1386
1389
1391
1393
1388
1394
1393
1394
1393
1393
1393
1391
1388
1386
1386
1389
1383
1381
1379
1383
1374
1377
1379
1379
1381
1379
1379
1377
1381
1381
1383
1384
1384
1386
1386
1388
1384
1393
1394
1405
1432
1462
1501
1545
1566
1566
1560
1549
1513
1430
1344
1323
1340
1350
1359
1366
1372
1383
1386
1389
1391
1393
1394
1388
1394
1394
1394
1393
1394
1396
1396
1398
1394
1394
1398
1398
1398
1398
1399
1406
1399
1403
1403
1403
1403
1406
1405
1406
1410
1406
1410
1410
1410
1410
1408
1411
1413
1411
1413
1411
1413
1416
1416
1418
1420
1420
1427
1423
1425
1425
1427
1432
1430
1430
1432
1432
1432
1437
1433
1433
1435
1433
1437
1432
1432
1430
1425
1425
1420
1420
1415
1413
1410
1405
1403
1398
1394
1394
1384
1388
1386
1389
1386
1388
1388
1388
1389
1389
1393
1393
1393
1393
1394
1396
1394
1396
1398
1399
1396
1396
1399
1399
1399
1399
1398
1406
1399
1401
1399
1399
1399
1398
1401
1399
1401
1398
1401
1399
1399
1399
1398
1403
1396
1398
1398
1394
1396
1394
1394
1394
1393
1393
1393
1391
1391
1391
1393
1389
1393
1391
1391
1393
1389
1389
1389
1389
1389
1391
1391
1389
1388
1388
1389
1388
1386
1391
1391
1393
1393
1394
1394
1394
1393
1394
1388
1394
1393
1393
1393
1389
1391
1393
1393
1393
1389
1386
1388
1386
1384
1386
1376
1383
1384
1384
1384
1384
1386
1384
1386
1389
1388
1388
1388
1393
1389
1391
1389
1391
1391
1393
1401
1416
1452
1493
1533
1569
1574
1577
1562
1540
1471
1364
1320
1335
1350
1359
1367
1376
1386
1389
1391
1393
1398
1391
1398
1396
1398
1394
1398
1398
1399
1398
1398
1398
1401
1401
1401
1403
1399
1410
1399
1401
1403
1401
1403
1403
1405
1405
1405
1403
1406
1405
1410
1406
1408
1411
1410
1411
1411
1410
1411
1413
1415
1416
1418
1416
1425
1420
1421
1421
1421
1425
1425
1427
1427
1428
1428
1427
1427
1427
1428
1425
1433
1427
1425
1423
1423
1420
1418
1416
1411
1408
1403
1403
1399
1394
1391
1391
1386
1388
1384
1386
1384
1386
1386
1386
1384
1388
1388
1388
1389
1391
1393
1393
1391
1393
1391
1393
1394
1393
1393
1391
1393
1391
1394
1386
1393
1393
1393
1391
1391
1393
1394
1393
1391
1391
1389
1389
1391
1393
1391
1384
1389
1388
1388
1386
1384
1386
1384
1386
1383
1381
1383
1381
1383
1383
1383
1377
1381
1379
1383
1379
1379
1379
1379
1377
1377
1383
1376
1377
1377
1377
1377
1376
1376
1376
1377
1379
1377
1381
1377
1376
1376
1379
1372
1377
1379
1377
1376
1376
1376
1377
1377
1377
1377
1377
1377
1377
1377
1377
1372
1377
1376
1376
1377
1376
1376
1376
1377
1376
1377
1376
1377
1376
1376
1379
1374
1376
1376
1376
1376
1376
1377
1376
1377
1376
1377
1369
1374
1377
1376
1377
1374
1376
1376
1376
1377
1379
1381
1379
1377
1377
1377
1371
1376
1376
1377
1376
1377
1376
1377
1376
1377
1376
1374
1376
1377
1376
1377
1376
1377
1376
1376
1377
1376
1376
1377
1377
1377
1377
1379
1376
1377
1376
1376
1376
1377
1377
1377
1377
1377
1379
1377
1379
1383
1379
1372
1379
1379
1377
1377
1377
1377
1379
1379
1379
1381
1376
1377
1377
1379
1377
1372
1379
1379
1381
1379
1379
1381
1379
1379
1381
1383
1381
1381
1381
1383
1383
1379
1383
1383
1383
1384
1383
1383
1383
1381
1383
1384
1377
1383
1384
1383
1386
1383
1383
1383
1384
1384
1386
1389
1386
1384
1384
1384
1377
1386
1386
1386
1384
1386
1388
1388
1388
1386
1386
1388
1389
1389
1389
1391
1384
1389
1389
1391
1389
1393
1393
1393
1394
1393
1398
1394
1394
1394
1398
1401
1406
1406
1403
1403
1403
1403
1405
1403
1403
1399
1398
1403
1394
1393
1393
1394
1393
1394
1391
1393
1391
1394
1399
1394
1394
1394
1394
1403
1399
1399
1399
1398
1398
1401
1406
1421
1452
1489
1530
1571
1584
1583
1579
1564
1505
1403
1335
1349
1364
1372
1379
1388
1394
1401
1399
1401
1405
1403
1403
1406
1403
1403
1405
1405
1406
1406
1406
1405
1406
1405
1413
1408
1408
1410
1410
1408
1410
1410
1410
1410
1408
1411
1411
1411
1413
1411
1420
1413
1415
1415
1415
1416
1420
1418
1418
1418
1418
1420
1421
1423
1423
1425
1427
1430
1430
1430
1430
1432
1433
1437
1435
1437
1433
1442
1437
1438
1437
1437
1438
1438
1433
1432
1428
1427
1425
1423
1420
1415
1411
1416
1405
1401
1399
1396
1396
1394
1394
1393
1394
1393
1394
1396
1398
1399
1403
1408
1406
1408
1410
1410
1410
1411
1413
1411
1410
1411
1411
1413
1413
1413
1413
1415
1413
1415
1413
1413
1413
1415
1413
1411
1411
1408
1416
1411
1408
1410
1406
1410
1406
1410
1405
1406
1405
1405
1403
1405
1403
1401
1405
1399
1399
1399
1399
1399
1398
1396
1396
1396
1396
1398
1396
1396
1396
1393
1393
1394
1394
1393
1394
1394
1394
1394
1393
1393
1394
1391
1393
1393
1391
1393
1389
1391
1391
1391
1389
1391
1391
1391
1393
1391
1393
1384
1393
1393
1391
1394
1393
1391
1391
1391
1393
1391
1389
1389
1389
1389
1389
1384
1389
1386
1388
1388
1388
1386
1388
1386
1389
1389
1388
1388
1389
1388
1386
1388
1388
1388
1389
1389
1388
1388
1386
1388
1389
1386
1383
1388
1386
1386
1388
1384
1386
1384
1388
1388
1389
1394
1386
1384
1384
1386
1379
1388
1386
1386
1388
1388
1386
1384
1388
1388
1384
1386
1386
1388
1388
1388
1383
1386
1386
1386
1386
1388
1386
1386
1384
1384
1386
1384
1386
1386
1389
1384
1384
1384
1384
1386
1388
1389
1389
1388
1388
1388
1388
1381
1386
1386
1389
1389
1388
1388
1386
1386
1386
1388
1393
1388
1386
1388
1388
1381
1389
1389
1389
1388
1389
1389
1391
1389
1389
1389
1389
1389
1389
1389
1393
1389
1391
1389
1393
1389
1391
1389
1393
1391
1393
1394
1393
1389
1391
1391
1391
1391
1393
1393
1393
1394
1393
1393
1394
1394
1394
1396
1389
1398
1398
1399
1399
1403
1403
1405
1403
1401
1399
1401
1403
1401
1399
1399
1408
1403
1403
1401
1398
1396
1394
1394
1394
1394
1393
1394
1398
1394
1394
1394
1398
1396
1398
1398
1399
1399
1399
1403
1403
1405
1410
1432
1457
1494
1535
1569
1579
1576
1566
1545
1479
1379
1338
1355
1366
1376
1383
1381
1394
1399
1403
1403
1406
1408
1406
1406
1405
1405
1408
1408
1408
1410
1410
1413
1410
1410
1408
1410
1411
1411
1411
1411
1413
1411
1415
1415
1415
1416
1416
1418
1416
1418
1418
1416
1418
1420
1421
1421
1423
1423
1430
1425
1425
1430
1427
1430
1432
1433
1433
1435
1433
1437
1437
1438
1437
1435
1445
1438
1438
1438
1435
1437
1438
1437
1433
1435
1430
1430
1427
1423
1421
1416
1416
1410
1408
1403
1399
1396
1394
1391
1391
1391
1389
1389
1386
1389
1389
1393
1393
1394
1399
1399
1403
1403
1405
1410
1410
1410
1406
1415
1408
1411
1413
1411
1411
1411
1413
1411
1411
1410
1413
1415
1413
1413
1413
1418
1413
1411
1411
1411
1413
1411
1413
1410
1408
1406
1408
1410
1406
1406
1403
1408
1405
1405
1406
1405
1405
1403
1401
1403
1401
1399
1410
1399
1399
1401
1398
1401
1399
1401
1398
1398
1398
1398
1398
1399
1396
1394
1403
1394
1398
1394
1394
1396
1394
1394
1396
1396
1394
1394
1396
1398
1396
1394
1403
1394
1393
1394
1394
1394
1396
1394
1394
1394
1393
1394
1394
1394
1394
1396
1391
1394
1398
1394
1394
1396
1393
1394
1396
1394
1398
1389
1396
1394
1394
1394
1393
1394
1394
1394
1396
1394
1393
1398
1394
1394
1398
1391
1396
1396
1394
1394
1394
1396
1394
1394
1396
1394
1396
1394
1394
1394
1394
1394
1394
1394
1394
1398
1394
1394
1394
1394
1394
1396
1394
1394
1396
1396
1398
1394
1396
1396
1396
1396
1396
1398
1398
1398
1398
1394
1403
1398
1399
1399
1398
1401
1398
1399
1398
1399
1398
1399
1399
1401
1403
1401
1410
1405
1405
1405
1405
1405
1410
1410
1413
1413
1413
1411
1411
1413
1413
1410
1411
1410
1406
1403
1403
1401
1398
1401
1401
1401
1398
1405
1399
1399
1401
1399
1403
1401
1403
1401
1403
1403
1405
1406
1406
1406
1406
1423
1444
1479
1518
1562
1586
1584
1579
1566
1518
1416
1340
1347
1364
1374
1381
1386
1394
1401
1403
1403
1405
1410
1408
1410
1410
1410
1413
1410
1410
1411
1408
1411
1413
1411
1413
1413
1411
1413
1411
1413
1411
1413
1420
1415
1416
1416
1416
1418
1416
1418
1418
1420
1418
1421
1421
1421
1421
1423
1430
1427
1425
1427
1427
1427
1430
1430
1432
1430
1430
1437
1437
1438
1438
1438
1440
1438
1440
1440
1438
1438
1440
1438
1437
1433
1432
1435
1430
1427
1425
1421
1420
1415
1410
1406
1403
1399
1398
1394
1394
1391
1393
1386
1393
1394
1393
1394
1394
1399
1401
1399
1399
1399
1403
1403
1405
1405
1405
1411
1406
1405
1406
1405
1406
1406
1406
1408
1406
1405
1406
1406
1408
1406
1408
1410
1410
1410
1406
1406
1406
1405
1405
1405
1403
1403
1410
1401
1398
1398
1398
1398
1396
1398
1394
1394
1394
1394
1393
1394
1393
1393
1388
1393
1393
1393
1391
1393
1391
1391
1391
1389
1393
1389
1389
1389
1393
1389
1384
1389
1388
1389
1389
1389
1388
1389
1388
1388
1388
1388
1389
1388
1389
1389
1386
1388
1386
1388
1388
1389
1389
1388
1386
1388
1389
1379
1388
1388
1389
1389
1386
1388
1388
1386
1388
1388
1386
1386
1389
1388
1386
1379
1386
1386
1386
1388
1388
1386
1388
1386
1386
1388
1386
1386
1388
1386
1389
1384
1386
1388
1386
1386
1388
1388
1389
1386
1386
1388
1384
1386
1388
1386
1389
1384
1386
1386
1389
1388
1388
1386
1389
1386
1388
1386
1381
1388
1386
1384
1386
1386
1388
1386
1388
1389
1386
1384
1386
1388
1388
1388
1381
1386
1388
1388
1389
1386
1386
1386
1389
1388
1389
1386
1386
1386
1389
1386
1386
1388
1388
1389
1389
1389
1389
1388
1391
1389
1391
1383
1389
1391
1389
1391
1386
1389
1391
1389
1389
1391
1399
1389
1393
1391
1393
1388
1394
1393
1394
1394
1393
1393
1393
1393
1393
1398
1393
1394
1394
1393
1394
1391
1393
1394
1398
1394
1396
1396
1394
1394
1394
1394
1394
1396
1396
1398
1394
1398
1394
1398
1398
1396
1398
1401
1398
1399
1399
1398
1405
1396
1399
1398
1399
1399
1403
1399
1399
1399
1403
1403
1403
1403
1406
1408
1411
1406
1408
1411
1411
1411
1411
1410
1413
1413
1413
1410
1406
1406
1405
1399
1405
1401
1403
1399
1399
1398
1399
1399
1399
1399
1399
1406
1401
1403
1403
1403
1408
1405
1406
1410
1410
1413
1425
1450
1483
1518
1557
1584
1579
1572
1554
1516
1435
1357
1345
1362
1374
1384
1389
1393
1401
1401
1405
1411
1411
1411
1413
1411
1411
1410
1411
1411
1413
1413
1413
1415
1416
1415
1415
1416
1416
1416
1416
1416
1416
1418
1418
1420
1418
1418
1425
1421
1420
1423
1423
1425
1425
1425
1425
1425
1425
1430
1430
1432
1435
1432
1438
1435
1437
1438
1440
1440
1444
1444
1445
1449
1447
1450
1450
1450
1452
1449
1457
1452
1452
1449
1447
1445
1445
1444
1440
1437
1432
1428
1425
1421
1416
1411
1408
1403
1398
1394
1393
1391
1391
1391
1388
1391
1393
1384
1393
1396
1396
1401
1401
1403
1403
1405
1406
1403
1406
1410
1410
1410
1406
1413
1408
1410
1410
1410
1410
1410
1411
1410
1411
1410
1410
1411
1408
1410
1406
1410
1408
1410
1410
1406
1406
1410
1406
1406
1405
1403
1410
1405
1406
1403
1403
1401
1403
1399
1399
1399
1398
1401
1399
1398
1396
1398
1388
1394
1396
1394
1396
1393
1394
1393
1393
1394
1393
1393
1393
1394
1391
1394
1388
1391
1393
1391
1393
1389
1389
1391
1391
1389
1391
1388
1389
1389
1391
1391
1388
1388
1389
1386
1386
1386
1386
1386
1386
1386
1389
1379
1389
1388
1384
1386
1383
1388
1386
1386
1384
1386
1391
1386
1386
1386
1386
1379
1386
1388
1384
1384
1384
1384
1386
1384
1386
1386
1383
1384
1384
1384
1386
1383
1384
1384
1384
1381
1384
1383
1381
1383
1381
1384
1383
1384
1381
1383
1381
1379
1383
1383
1381
1383
1384
1383
1381
1383
1381
1384
1376
1384
1384
1384
1384
1383
1381
1383
1383
1383
1386
1383
1386
1384
1386
1384
1377
1383
1384
1384
1383
1384
1386
1384
1384
1384
1381
1383
1386
1383
1384
1386
1383
1384
1384
1384
1386
1384
1384
1384
1386
1384
1386
1384
1386
1384
1384
1384
1384
1384
1384
1384
1386
1386
1388
1384
1386
1384
1386
1379
1386
1384
1386
1388
1384
1384
1386
1388
1384
1386
1384
1388
1386
1388
1388
1381
1386
1386
1386
1386
1386
1386
1386
1388
1388
1389
1388
1388
1388
1388
1389
1388
1389
1388
1391
1391
1391
1391
1393
1394
1394
1396
1391
1398
1396
1398
1399
1405
1405
1403
1399
1399
1399
1403
1401
1399
1396
1394
1388
1393
1393
1391
1393
1391
1389
1389
1391
1391
1391
1391
1391
1391
1391
1393
1389
1393
1394
1396
1396
1394
1398
1399
1415
1442
1474
1516
1554
1571
1569
1566
1549
1506
1413
1338
1344
1360
1366
1374
1383
1386
1391
1384
1393
1394
1399
1399
1396
1399
1399
1401
1398
1399
1403
1401
1403
1401
1399
1410
1403
1403
1403
1403
1403
1403
1406
1406
1405
1405
1406
1406
1406
1408
1410
1410
1410
1410
1410
1411
1410
1413
1413
1415
1416
1415
1421
1418
1420
1420
1420
1423
1423
1425
1425
1427
1427
1430
1430
1430
1432
1432
1438
1433
1433
1432
1432
1430
1428
1428
1425
1423
1420
1418
1413
1411
1410
1405
1408
1398
1393
1391
1389
1384
1383
1383
1383
1383
1381
1383
1386
1384
1386
1386
1386
1389
1391
1393
1394
1394
1396
1398
1399
1396
1396
1406
1398
1399
1399
1401
1401
1401
1401
1399
1399
1399
1401
1401
1399
1401
1398
1405
1398
1401
1398
1398
1396
1399
1396
1394
1396
1394
1393
1394
1393
1393
1393
1391
1393
1391
1389
1389
1393
1391
1389
1391
1389
1389
1388
1388
1389
1386
1386
1386
1386
1388
1384
1386
1384
1384
1384
1384
1386
1384
1376
1384
1383
1383
1384
1383
1383
1383
1381
1384
1383
1383
1383
1383
1383
1383
1376
1383
1383
1381
1383
1383
1383
1383
1381
1383
1381
1383
1381
1383
1381
1381
1379
1381
1381
1383
1383
1384
1381
1383
1383
1383
1386
1381
1383
1384
1386
1383
1383
1383
1381
1381
1383
1384
1383
1383
1383
1381
1383
1372
1383
1383
1381
1381
1383
1383
1381
1381
1379
1383
1383
1383
1381
1384
1384
1377
1384
1384
1383
1383
1384
1384
1386
1386
1384
1384
1384
1386
1384
1384
1384
1384
1384
1384
1383
1383
1384
1384
1384
1384
1386
1386
1379
1386
1386
1386
1389
1386
1388
1388
1386
1386
1388
1389
1386
1386
1388
1386
1381
1389
1388
1386
1386
1386
1388
1388
1389
1388
1389
1388
1389
1388
1389
1389
1386
1388
1389
1388
1389
1389
1388
1388
1389
1388
1389
1389
1388
1389
1389
1391
1386
1389
1389
1389
1393
1391
1391
1389
1388
1389
1391
1384
1393
1391
1391
1393
1389
1391
1393
1391
1393
1393
1391
1394
1394
1394
1394
1389
1396
1394
1394
1396
1403
1403
1403
1398
1394
1394
1398
1398
1399
1396
1394
1398
1393
1393
1391
1391
1393
1389
1391
1391
1393
1391
1388
1393
1394
1393
1394
1393
1396
1396
1398
1394
1398
1399
1403
1410
1427
1455
1499
1530
1566
1576
1572
1562
1538
1476
1379
1335
1347
1359
1371
1377
1384
1393
1391
1399
1403
1403
1403
1405
1406
1405
1408
1406
1406
1410
1410
1406
1406
1408
1410
1410
1410
1410
1410
1411
1410
1413
1413
1413
1413
1420
1415
1416
1415
1416
1420
1418
1420
1420
1420
1421
1423
1425
1425
1425
1425
1432
1430
1430
1432
1432
1433
1437
1438
1438
1440
1442
1445
1445
1445
1445
1445
1449
1447
1450
1449
1447
1445
1445
1445
1444
1440
1437
1435
1432
1428
1423
1420
1415
1410
1406
1401
1398
1393
1393
1388
1388
1386
1386
1377
1386
1386
1388
1388
1389
1393
1394
1396
1396
1399
1399
1401
1401
1403
1403
1408
1405
1403
1403
1403
1403
1405
1406
1405
1405
1405
1405
1406
1405
1405
1403
1406
1405
1406
1405
1403
1403
1403
1401
1403
1401
1399
1408
1399
1401
1396
1398
1398
1398
1394
1393
1394
1396
1398
1394
1391
1391
1393
1383
1391
1389
1391
1389
1388
1389
1389
1389
1388
1388
1388
1388
1388
1389
1389
1383
1386
1388
1386
1388
1389
1386
1386
1386
1386
1389
1386
1388
1386
1386
1386
1386
1389
1386
1386
1389
1386
1386
1386
1388
1384
1386
1377
1384
1384
1386
1388
1384
1386
1386
1384
1386
1384
1391
1384
1384
1386
1384
1379
1386
1386
1384
1386
1386
1386
1386
1386
1386
1386
1384
1384
1384
1386
1384
1383
1384
1386
1386
1384
1388
1384
1384
1384
1386
1389
1386
1386
1384
1386
1388
1386
1388
1388
1389
1389
1388
1389
1386
1389
1386
1388
1383
1389
1388
1389
1386
1386
1388
1388
1386
1389
1391
1389
1393
1391
1394
1393
1386
1394
1396
1403
1403
1399
1399
1403
1399
1399
1398
1396
1394
1393
1391
1393
1388
1389
1388
1389
1386
1388
1386
1388
1388
1389
1388
1381
1388
1391
1391
1393
1391
1393
1393
1394
1396
1399
1415
1432
1469
1506
1547
1577
1574
1571
1560
1523
1444
1347
1328
1349
1362
1371
1374
1381
1388
1391
1394
1393
1399
1399
1401
1399
1401
1401
1401
1403
1403
1403
1405
1403
1405
1403
1403
1406
1406
1405
1408
1405
1406
1406
1406
1406
1406
1410
1416
1411
1413
1411
1411
1413
1413
1415
1415
1416
1416
1418
1418
1418
1420
1421
1428
1423
1425
1425
1427
1427
1430
1432
1432
1432
1432
1433
1437
1435
1435
1433
1440
1435
1437
1437
1437
1432
1430
1428
1428
1423
1420
1423
1416
1411
1410
1403
1403
1398
1394
1391
1391
1389
1386
1386
1386
1389
1389
1381
1389
1391
1391
1393
1394
1399
1399
1399
1399
1398
1399
1399
1401
1401
1399
1406
1401
1401
1403
1401
1401
1403
1403
1403
1401
1403
1403
1401
1401
1399
1398
1401
1399
1399
1398
1396
1398
1398
1398
1394
1393
1394
1388
1394
1393
1393
1393
1389
1391
1391
1391
1389
1391
1394
1391
1389
1388
1388
1381
1389
1388
1389
1388
1388
1386
1386
1386
1386
1384
1386
1384
1386
1384
1384
1379
1383
1384
1384
1386
1384
1383
1383
1383
1383
1383
1381
1381
1381
1383
1381
1383
1383
1383
1381
1379
1379
1383
1379
1381
1379
1379
1371
1379
1379
1379
1381
1377
1379
1379
1379
1377
1379
1379
1377
1377
1379
1383
1372
1379
1377
1376
1377
1379
1379
1379
1379
1379
1379
1377
1379
1379
1377
1381
1376
1379
1379
1383
1379
1377
1379
1383
1377
1379
1379
1381
1377
1377
1379
1379
1377
1379
1379
1377
1379
1379
1381
1381
1381
1381
1379
1372
1381
1383
1383
1381
1377
1379
1381
1383
1379
1383
1379
1383
1381
1383
1383
1372
1379
1383
1379
1383
1383
1381
1383
1383
1383
1383
1383
1383
1386
1383
1386
1383
1383
1383
1383
1383
1383
1383
1383
1383
1383
1383
1376
1383
1383
1383
1384
1383
1383
1381
1383
1383
1386
1389
1383
1384
1384
1384
1377
1384
1383
1386
1386
1386
1386
1388
1389
1386
1388
1386
1386
1386
1386
1389
1379
1386
1388
1386
1388
1388
1389
1386
1386
1388
1389
1386
1388
1389
1386
1386
1386
1388
1389
1389
1391
1389
1393
1391
1393
1394
1396
1389
1394
1394
1398
1399
1403
1401
1399
1399
1399
1399
1398
1398
1394
1394
1394
1384
1389
1389
1389
1388
1389
1388
1389
1386
1388
1389
1389
1389
1389
1389
1393
1389
1391
1391
1391
1393
1393
1396
1403
1420
1454
1489
1532
1564
1569
1567
1557
1535
1471
1367
1328
1345
1359
1367
1371
1379
1386
1391
1386
1394
1394
1398
1396
1394
1396
1398
1399
1394
1394
1398
1399
1398
1399
1399
1405
1399
1399
1401
1398
1399
1403
1403
1405
1403
1403
1405
1406
1406
1405
1405
1408
1410
1410
1411
1410
1410
1413
1413
1413
1413
1413
1421
1416
1418
1420
1421
1423
1423
1423
1425
1425
1427
1430
1430
1430
1432
1432
1437
1433
1437
1433
1432
1432
1435
1432
1432
1427
1425
1423
1420
1420
1413
1410
1411
1403
1396
1394
1394
1389
1388
1386
1384
1383
1383
1386
1384
1386
1388
1389
1389
1391
1394
1394
1394
1399
1399
1399
1403
1399
1399
1408
1399
1403
1403
1403
1405
1406
1403
1403
1403
1403
1405
1403
1405
1403
1403
1410
1403
1403
1399
1399
1399
1399
1399
1399
1398
1399
1399
1398
1398
1394
1396
1393
1394
1394
1394
1393
1393
1393
1391
1393
1389
1391
1389
1389
1386
1389
1386
1386
1388
1389
1386
1389
1386
1386
1384
1384
1384
1384
1379
1386
1388
1386
1386
1384
1384
1386
1384
1386
1388
1386
1386
1384
1384
1384
1379
1384
1384
1386
1384
1386
1384
1386
1384
1384
1388
1386
1384
1384
1384
1386
1383
1384
1383
1383
1384
1381
1384
1383
1384
1383
1384
1374
1383
1381
1384
1383
1383
1383
1383
1381
1383
1383
1389
1381
1381
1383
1383
1376
1383
1384
1383
1383
1383
1381
1383
1383
1383
1383
1383
1383
1383
1383
1384
1379
1384
1384
1384
1383
1384
1383
1384
1381
1384
1386
1384
1383
1384
1384
1384
1381
1384
1384
1384
1384
1384
1384
1384
1388
1386
1386
1383
1384
1386
1384
1386
1386
1386
1389
1388
1389
1389
1388
1388
1386
1386
1386
1381
1386
1386
1384
1386
1386
1384
1386
1386
1386
1386
1384
1386
1386
1389
1389
1384
1384
1386
1386
1386
1386
1386
1386
1386
1386
1386
1386
1388
1388
1388
1389
1386
1389
1386
1388
1389
1389
1389
1391
1391
1391
1394
1386
1391
1391
1394
1399
1401
1403
1399
1399
1398
1398
1399
1398
1394
1393
1394
1386
1391
1388
1389
1389
1389
1388
1386
1389
1388
1389
1389
1391
1389
1393
1393
1389
1394
1394
1398
1399
1399
1406
1413
1433
1462
1493
1538
1569
1576
1567
1557
1527
1462
1369
1332
1345
1359
1379
1377
1383
1386
1394
1389
1398
1399
1401
1403
1403
1405
1406
1403
1403
1403
1406
1405
1408
1405
1406
1413
1406
1410
1406
1406
1406
1410
1410
1410
1410
1410
1411
1411
1413
1413
1413
1416
1416
1415
1416
1416
1416
1418
1418
1420
1420
1421
1430
1425
1425
1428
1428
1430
1432
1432
1432
1433
1433
1437
1437
1438
1440
1438
1445
1440
1440
1438
1438
1435
1435
1437
1433
1430
1425
1425
1421
1416
1415
1410
1406
1403
1398
1394
1391
1386
1383
1383
1377
1377
1379
1377
1379
1379
1379
1384
1386
1388
1389
1393
1393
1396
1398
1398
1399
1398
1398
1405
1399
1399
1399
1399
1403
1399
1399
1398
1398
1398
1401
1401
1399
1399
1398
1405
1399
1399
1399
1399
1398
1401
1399
1401
1398
1396
1396
1398
1396
1394
1396
1391
1394
1393
1393
1394
1393
1393
1393
1394
1391
1393
1383
1389
1391
1391
1393
1386
1389
1391
1388
1389
1389
1394
1388
1386
1389
1389
1383
1386
1388
1386
1388
1388
1386
1384
1386
1386
1386
1381
1386
1383
1383
1384
1379
1383
1386
1384
1383
1384
1381
1383
1383
1384
1383
1383
1383
1384
1383
1384
1383
1384
1383
1383
1384
1384
1383
1383
1384
1383
1383
1377
1383
1383
1383
1383
1383
1383
1381
1383
1386
1388
1386
1386
1384
1386
1384
1377
1386
1386
1386
1386
1388
1388
1386
1388
1389
1391
1388
1393
1391
1393
1391
1391
1394
1399
1403
1401
1398
1398
1403
1399
1398
1393
1393
1393
1391
1391
1389
1386
1389
1388
1389
1386
1386
1386
1386
1388
1388
1389
1379
1389
1386
1389
1393
1388
1393
1394
1393
1393
1394
1401
1418
1450
1488
1530
1567
1574
1572
1564
1545
1493
1391
1327
1333
1350
1360
1367
1371
1379
1384
1388
1389
1393
1393
1394
1394
1396
1396
1398
1394
1396
1394
1389
1399
1399
1398
1396
1399
1399
1399
1399
1398
1399
1403
1403
1401
1403
1403
1410
1405
1405
1406
1408
1408
1410
1410
1410
1408
1410
1411
1415
1413
1415
1413
1421
1420
1420
1420
1421
1423
1425
1428
1427
1428
1427
1430
1430
1432
1432
1432
1433
1433
1433
1433
1432
1430
1428
1430
1427
1423
1421
1425
1418
1411
1410
1403
1403
1398
1396
1393
1389
1388
1384
1386
1388
1384
1386
1383
1389
1388
1391
1391
1393
1393
1394
1393
1398
1399
1398
1398
1398
1399
1398
1401
1401
1403
1403
1401
1399
1399
1399
1399
1401
1399
1408
1401
1399
1398
1399
1401
1401
1398
1399
1401
1399
1399
1399
1399
1398
1396
1405
1396
1396
1396
1396
1396
1394
1394
1394
1393
1393
1394
1393
1394
1393
1394
1388
1393
1393
1393
1393
1393
1393
1393
1391
1391
1393
1389
1389
1391
1393
1391
1389
1389
1391
1388
1391
1391
1389
1389
1391
1389
1391
1383
1391
1389
1391
1389
1388
1389
1391
1393
1393
1394
1401
1398
1396
1396
1398
1403
1394
1394
1394
1394
1391
1394
1394
1394
1394
1394
1391
1389
1386
1386
1388
1381
1386
1384
1386
1384
1386
1384
1388
1386
1388
1389
1389
1388
1389
1391
1391
1389
1393
1393
1393
1394
1408
1430
1466
1503
1547
1572
1577
1569
1557
1518
1425
1335
1325
1342
1355
1362
1371
1377
1384
1389
1391
1394
1389
1396
1396
1396
1396
1399
1399
1398
1398
1398
1398
1401
1399
1399
1401
1401
1403
1401
1403
1405
1406
1405
1410
1408
1410
1408
1406
1413
1408
1408
1410
1410
1411
1410
1410
1410
1410
1410
1411
1415
1413
1415
1413
1421
1418
1420
1420
1420
1423
1423
1425
1428
1425
1425
1427
1427
1430
1430
1428
1435
1432
1430
1427
1425
1425
1423
1420
1418
1415
1410
1410
1405
1401
1399
1393
1391
1391
1389
1389
1386
1386
1386
1386
1386
1389
1389
1383
1391
1393
1394
1393
1393
1393
1394
1396
1394
1394
1399
1398
1398
1394
1394
1403
1398
1396
1398
1396
1398
1398
1399
1396
1394
1394
1396
1394
1394
1394
1394
1389
1393
1393
1393
1394
1393
1391
1389
1389
1389
1388
1389
1388
1389
1388
1388
1386
1386
1388
1389
1386
1388
1386
1386
1386
1388
1384
1377
1383
1383
1384
1386
1383
1386
1383
1383
1383
1381
1383
1381
1383
1383
1384
1376
1383
1383
1383
1384
1383
1383
1384
1383
1383
1384
1383
1381
1381
1383
1383
1379
1383
1381
1383
1379
1381
1379
1379
1379
1381
1381
1376
1379
1379
1379
1383
1377
1383
1383
1383
1381
1383
1386
1383
1379
1381
1383
1372
1379
1383
1383
1383
1379
1383
1383
1384
1381
1381
1383
1383
1381
1381
1381
1376
1381
1383
1383
1383
1383
1383
1383
1383
1381
1383
1384
1384
1383
1383
1383
1383
1383
1383
1381
1384
1383
1384
1383
1383
1383
1383
1377
1384
1383
1384
1384
1383
1384
1384
1384
1384
1386
1389
1386
1386
1386
1386
1379
1384
1386
1384
1384
1388
1384
1389
1386
1388
1384
1384
1386
1386
1386
1386
1384
1388
1386
1386
1388
1388
1384
1386
1389
1388
1389
1388
1386
1388
1389
1386
1388
1388
1388
1389
1389
1389
1389
1389
1389
1391
1389
1383
1389
1391
1393
1391
1389
1391
1393
1391
1393
1394
1391
1393
1393
1394
1394
1386
1393
1394
1391
1393
1393
1394
1393
1393
1394
1393
1394
1393
1396
1393
1394
1393
1394
1398
1399
1398
1394
1396
1399
1398
1398
1399
1408
1403
1405
1403
1403
1405
1410
1410
1410
1410
1410
1410
1408
1410
1410
1405
1410
1405
1401
1401
1396
1401
1399
1401
1396
1396
1396
1396
1398
1398
1401
1398
1406
1401
1403
1405
1405
1406
1410
1411
1416
1423
1438
1471
1505
1545
1577
1581
1574
1562
1527
1445
1357
1340
1359
1371
1377
1384
1391
1389
1403
1401
1405
1406
1410
1410
1410
1408
1406
1408
1410
1410
1408
1408
1410
1416
1410
1410
1410
1410
1410
1413
1413
1413
1413
1413
1413
1415
1416
1416
1416
1421
1420
1423
1421
1421
1423
1423
1423
1427
1427
1428
1430
1430
1433
1433
1433
1438
1438
1440
1444
1445
1444
1447
1447
1449
1447
1447
1457
1449
1449
1447
1447
1449
1445
1444
1445
1442
1437
1437
1432
1428
1423
1418
1418
1410
1406
1403
1399
1394
1393
1391
1389
1388
1389
1389
1391
1391
1393
1394
1393
1399
1403
1403
1405
1403
1406
1406
1410
1408
1405
1413
1410
1410
1410
1410
1411
1410
1413
1411
1411
1410
1410
1410
1410
1411
1410
1416
1408
1410
1408
1410
1410
1410
1408
1406
1406
1403
1403
1405
1405
1403
1401
1406
1399
1399
1399
1398
1398
1398
1399
1399
1398
1398
1398
1396
1396
1398
1394
1396
1394
1394
1393
1393
1393
1394
1393
1393
1393
1394
1384
1391
1391
1389
1391
1388
1389
1389
1393
1389
1391
1393
1393
1389
1391
1391
1383
1389
1388
1391
1388
1388
1389
1389
1389
1389
1389
1386
1388
1386
1386
1389
1384
1389
1388
1388
1389
1386
1388
1386
1389
1386
1388
1389
1386
1388
1386
1386
1386
1388
1386
1388
1389
1389
1388
1388
1386
1389
1388
1379
1389
1386
1386
1386
1388
1388
1386
1386
1386
1386
1386
1388
1386
1388
1386
1377
1384
1384
1386
1384
1386
1388
1388
1384
1386
1388
1386
1386
1386
1388
1386
1384
1386
1386
1384
1386
1386
1386
1388
1386
1386
1386
1379
1388
1384
1386
1389
1384
1384
1388
1388
1388
1389
1393
1389
1386
1389
1389
1383
1388
1388
1389
1389
1388
1389
1389
1389
1389
1389
1386
1388
1389
1388
1388
1381
1389
1389
1386
1389
1389
1386
1388
1389
1389
1389
1386
1388
1388
1389
1388
1388
1386
1389
1389
1391
1391
1389
1389
1391
1389
1393
1383
1393
1391
1391
1391
1389
1391
1393
1394
1391
1393
1394
1393
1393
1394
1396
1389
1398
1399
1398
1398
1398
1403
1406
1405
1405
1401
1401
1405
1403
1401
1398
1399
1399
1398
1393
1394
1393
1394
1393
1393
1393
1393
1393
1393
1393
1394
1394
1394
1398
1398
1399
1399
1399
1401
1399
1403
1413
1438
1484
1516
1557
1576
1579
1576
1562
1520
1427
1340
1342
1362
1369
1377
1384
1389
1389
1396
1398
1399
1403
1403
1405
1403
1405
1403
1403
1405
1403
1405
1405
1405
1406
1406
1405
1406
1406
1406
1406
1410
1408
1406
1405
1415
1408
1408
1410
1410
1413
1415
1411
1411
1413
1415
1415
1413
1415
1416
1415
1423
1420
1418
1420
1421
1421
1425
1423
1427
1425
1427
1428
1428
1430
1432
1430
1438
1432
1432
1430
1428
1428
1430
1428
1425
1425
1421
1420
1418
1411
1410
1405
1405
1399
1394
1391
1391
1386
1383
1383
1384
1386
1386
1377
1388
1389
1391
1391
1391
1394
1394
1398
1398
1398
1401
1401
1401
1403
1399
1406
1405
1403
1405
1403
1401
1401
1405
1403
1403
1403
1403
1403
1403
1403
1403
1405
1401
1403
1403
1399
1399
1401
1401
1399
1398
1396
1401
1398
1396
1396
1396
1393
1394
1393
1394
1394
1394
1393
1393
1394
1391
1393
1383
1389
1391
1393
1389
1389
1388
1389
1389
1389
1389
1389
1389
1389
1391
1389
1383
1388
1386
1389
1386
1388
1388
1389
1389
1388
1388
1386
1388
1386
1386
1389
1386
1386
1388
1384
1386
1386
1386
1386
1386
1388
1388
1379
1386
1386
1386
1389
1384
1388
1386
1389
1386
1386
1391
1388
1386
1386
1386
1377
1388
1384
1388
1388
1384
1384
1386
1389
1386
1388
1384
1386
1384
1386
1386
1379
1386
1386
1386
1386
1386
1388
1386
1386
1384
1386
1386
1389
1388
1386
1384
1383
1384
1386
1388
1386
1388
1386
1386
1386
1386
1384
1377
1386
1388
1386
1388
1386
1384
1386
1386
1384
1389
1389
1388
1386
1388
1389
1383
1386
1386
1386
1386
1389
1389
1388
1388
1389
1386
1386
1388
1389
1389
1389
1388
1389
1386
1389
1391
1393
1391
1391
1391
1391
1393
1393
1394
1393
1394
1393
1393
1393
1393
1393
1393
1393
1393
1393
1393
1393
1393
1384
1394
1391
1391
1394
1389
1391
1394
1393
1394
1394
1393
1393
1394
1394
1396
1389
1394
1396
1396
1398
1398
1399
1399
1399
1401
1405
1406
1406
1405
1403
1403
1406
1406
1403
1403
1401
1398
1399
1396
1398
1394
1393
1403
1393
1393
1393
1394
1393
1394
1396
1396
1398
1398
1399
1401
1401
1401
1399
1410
1403
1410
1427
1459
1493
1537
1572
1579
1577
1567
1540
1476
1377
1335
1350
1359
1371
1381
1384
1393
1398
1399
1403
1403
1405
1405
1405
1406
1406
1408
1406
1410
1406
1406
1406
1406
1410
1410
1410
1410
1410
1410
1416
1411
1413
1411
1411
1415
1415
1413
1413
1413
1413
1416
1416
1418
1420
1418
1423
1421
1423
1423
1423
1423
1427
1428
1427
1430
1427
1432
1432
1437
1437
1435
1440
1438
1440
1442
1442
1444
1447
1445
1445
1445
1442
1447
1444
1440
1438
1437
1433
1430
1427
1425
1418
1411
1410
1406
1401
1396
1394
1386
1389
1388
1386
1386
1384
1386
1389
1388
1393
1394
1394
1394
1398
1398
1399
1405
1403
1403
1403
1401
1403
1403
1403
1405
1401
1403
1403
1403
1403
1403
1403
1405
1401
1405
1403
1405
1403
1401
1401
1401
1398
1398
1406
1398
1399
1396
1398
1393
1394
1393
1394
1393
1394
1401
1393
1393
1391
1393
1384
1391
1389
1391
1389
1391
1389
1389
1389
1388
1389
1386
1389
1389
1389
1388
1383
1388
1386
1386
1386
1386
1389
1388
1386
1386
1384
1384
1384
1386
1386
1386
1384
1384
1386
1384
1384
1386
1386
1384
1384
1386
1386
1379
1384
1386
1384
1386
1384
1384
1386
1388
1386
1386
1386
1386
1386
1386
1389
1383
1386
1386
1388
1388
1386
1386
1386
1386
1386
1386
1384
1386
1386
1384
1386
1384
1386
1386
1386
1386
1384
1384
1386
1388
1386
1388
1388
1386
1388
1388
1386
1384
1384
1388
1386
1388
1389
1386
1389
1386
1384
1386
1379
1388
1388
1386
1386
1386
1386
1386
1386
1386
1389
1388
1389
1388
1386
1388
1379
1384
1386
1388
1386
1389
1386
1386
1386
1388
1391
1386
1388
1388
1389
1388
1389
1388
1386
1388
1389
1386
1389
1388
1389
1388
1389
1383
1389
1389
1389
1393
1388
1389
1389
1391
1388
1391
1398
1391
1393
1393
1393
1384
1393
1391
1391
1391
1393
1393
1393
1394
1393
1393
1393
1398
1396
1399
1398
1405
1399
1399
1403
1403
1403
1403
1401
1398
1396
1398
1399
1398
1396
1396
1396
1391
1393
1391
1393
1394
1391
1393
1393
1394
1393
1394
1389
1398
1396
1396
1394
1399
1399
1399
1403
1403
1403
1410
1423
1447
1484
1521
1566
1577
1574
1572
1555
1505
1408
1337
1345
1362
1372
1379
1386
1391
1399
1399
1403
1405
1406
1410
1408
1408
1410
1408
1406
1408
1406
1411
1408
1410
1410
1408
1408
1410
1410
1410
1411
1410
1411
1415
1413
1413
1411
1420
1415
1415
1415
1415
1418
1418
1418
1420
1420
1418
1420
1421
1423
1423
1423
1430
1427
1428
1428
1428
1430
1432
1432
1433
1437
1435
1435
1437
1438
1438
1437
1438
1438
1438
1437
1433
1433
1433
1432
1430
1425
1423
1425
1418
1411
1410
1403
1401
1398
1394
1391
1388
1388
1391
1381
1383
1384
1386
1379
1388
1389
1391
1393
1393
1394
1398
1399
1399
1403
1405
1401
1403
1405
1405
1408
1405
1405
1406
1406
1405
1406
1405
1406
1408
1406
1410
1408
1406
1406
1408
1406
1406
1405
1406
1405
1405
1405
1403
1401
1401
1399
1408
1399
1401
1401
1399
1399
1396
1394
1394
1398
1394
1393
1393
1394
1394
1394
1388
1393
1393
1394
1391
1393
1393
1393
1391
1393
1391
1389
1391
1391
1389
1391
1388
1391
1389
1389
1389
1391
1391
1389
1389
1388
1391
1388
1389
1389
1389
1389
1388
1391
1389
1391
1386
1389
1388
1386
1388
1389
1389
1379
1386
1388
1386
1388
1386
1389
1388
1388
1389
1386
1386
1386
1388
1388
1389
1381
1388
1386
1386
1386
1386
1386
1386
1388
1386
1389
1386
1389
1386
1389
1389
1386
1391
1388
1389
1389
1388
1388
1389
1389
1388
1389
1381
1389
1389
1389
1391
1386
1391
1389
1389
1389
1391
1398
1389
1389
1389
1389
1383
1391
1391
1389
1393
1391
1391
1389
1389
1391
1391
1389
1394
1391
1393
1391
1388
1391
1391
1393
1391
1391
1389
1389
1389
1389
1389
1388
1391
1389
1389
1391
1389
1393
1391
1389
1391
1389
1391
1393
1393
1391
1391
1384
1391
1391
1391
1393
1389
1393
1391
1391
1393
1391
1391
1391
1393
1393
1393
1386
1393
1393
1391
1393
1394
1393
1393
1393
1393
1393
1393
1394
1394
1394
1398
1394
1396
1398
1398
1398
1396
1399
1401
1403
1403
1403
1410
1406
1405
1406
1405
1406
1401
1401
1401
1403
1403
1403
1403
1401
1399
1394
1403
1396
1394
1394
1394
1398
1398
1398
1399
1398
1398
1401
1403
1403
1403
1401
1410
1406
1405
1405
1410
1425
1459
1494
1537
1574
1584
1581
1576
1557
1494
1389
1337
1354
1369
1376
1384
1393
1398
1403
1403
1403
1408
1416
1411
1410
1410
1408
1413
1413
1410
1410
1410
1410
1411
1411
1413
1413
1413
1420
1415
1413
1415
1415
1415
1416
1418
1418
1418
1416
1418
1418
1418
1420
1418
1427
1421
1421
1421
1423
1423
1423
1425
1427
1428
1425
1430
1430
1432
1432
1433
1437
1438
1438
1440
1440
1440
1440
1444
1444
1442
1442
1449
1442
1440
1438
1437
1435
1433
1430
1427
1425
1418
1418
1413
1410
1405
1399
1405
1394
1394
1393
1389
1389
1389
1389
1389
1391
1393
1393
1394
1396
1399
1399
1403
1403
1405
1406
1406
1410
1410
1408
1410
1410
1410
1416
1413
1411
1411
1413
1415
1413
1411
1411
1413
1411
1413
1411
1411
1411
1410
1416
1408
1410
1410
1408
1410
1410
1410
1410
1406
1403
1405
1403
1405
1405
1401
1410
1401
1403
1401
1398
1401
1403
1401
1403
1399
1396
1398
1398
1398
1398
1394
1398
1396
1394
1398
1394
1394
1394
1394
1394
1394
1393
1403
1394
1394
1393
1394
1393
1396
1396
1394
1394
1394
1403
1398
1394
1394
1394
1388
1396
1396
1394
1394
1396
1396
1398
1398
1396
1396
1394
1398
1399
1396
1394
1394
1394
1394
1394
1394
1394
1394
1394
1394
1393
1396
1393
1394
1394
1396
1394
1393
1394
1394
1393
1394
1394
1393
1393
1393
1393
1393
1386
1394
1394
1394
1394
1391
1394
1393
1394
1393
1394
1393
1394
1393
1394
1398
1389
1393
1394
1394
1394
1394
1394
1394
1396
1394
1394
1398
1399
1399
1399
1398
1401
1405
1406
1410
1406
1403
1405
1406
1406
1405
1399
1405
1399
1396
1394
1394
1391
1393
1393
1393
1391
1394
1393
1391
1393
1391
1393
1386
1393
1394
1396
1396
1394
1398
1399
1399
1401
1406
1420
1450
1484
1521
1560
1583
1576
1571
1552
1498
1403
1332
1337
1354
1364
1372
1377
1386
1394
1398
1399
1403
1405
1405
1406
1405
1405
1406
1406
1405
1405
1405
1411
1410
1410
1410
1406
1411
1410
1410
1408
1410
1410
1411
1411
1413
1413
1411
1420
1413
1415
1415
1415
1416
1418
1418
1418
1420
1418
1420
1421
1423
1423
1425
1432
1427
1430
1432
1433
1435
1433
1438
1437
1438
1438
1440
1444
1444
1445
1445
1445
1445
1445
1444
1440
1438
1438
1438
1432
1430
1425
1430
1418
1415
1411
1406
1403
1399
1393
1393
1393
1386
1386
1384
1386
1388
1389
1383
1389
1393
1393
1394
1394
1394
1396
1398
1398
1398
1401
1401
1399
1399
1398
1401
1399
1399
1403
1401
1401
1401
1401
1401
1399
1399
1406
1401
1403
1401
1401
1403
1399
1401
1398
1398
1396
1396
1394
1394
1393
1394
1386
1393
1393
1393
1393
1393
1391
1391
1389
1389
1389
1386
1386
1388
1386
1388
1383
1388
1386
1386
1386
1384
1384
1384
1386
1383
1383
1384
1383
1383
1383
1383
1383
1384
1384
1384
1384
1384
1383
1383
1383
1384
1386
1377
1383
1384
1383
1383
1379
1383
1383
1383
1383
1383
1389
1384
1383
1384
1381
1376
1383
1383
1386
1383
1383
1383
1383
1383
1383
1384
1383
1383
1383
1381
1383
1379
1384
1381
1381
1383
1383
1383
1383
1381
1383
1384
1386
1384
1383
1384
1381
1379
1381
1384
1384
1381
1383
1384
1384
1384
1384
1384
1379
1383
1386
1386
1386
1386
1386
1384
1386
1388
1383
1384
1386
1386
1384
1386
1377
1383
1383
1384
1386
1386
1384
1386
1386
1386
1386
1384
1386
1383
1386
1384
1384
1386
1384
1384
1386
1386
1386
1384
1386
1386
1389
1383
1389
1388
1388
1386
1386
1386
1388
1388
1389
1388
1391
1388
1386
1389
1388
1383
1389
1389
1388
1391
1389
1391
1389
1389
1393
1393
1391
1393
1391
1391
1393
1384
1393
1391
1391
1391
1391
1393
1391
1389
1391
1391
1391
1393
1393
1393
1393
1391
1393
1391
1394
1393
1393
1394
1394
1394
1394
1394
1389
1398
1398
1399
1398
1401
1398
1403
1405
1410
1410
1410
1410
1410
1411
1411
1418
1410
1408
1406
1405
1403
1403
1399
1399
1398
1396
1396
1394
1396
1396
1396
1393
1398
1399
1399
1399
1401
1401
1403
1403
1405
1405
1411
1423
1449
1481
1521
1557
1581
1579
1576
1567
1533
1464
1376
1352
1364
1374
1376
1389
1398
1403
1406
1410
1411
1411
1413
1413
1411
1411
1410
1408
1410
1406
1413
1411
1410
1408
1410
1406
1410
1408
1410
1410
1410
1408
1410
1410
1411
1413
1415
1413
1415
1413
1413
1415
1416
1416
1416
1413
1413
1423
1420
1418
1420
1420
1423
1423
1425
1425
1425
1425
1430
1430
1432
1435
1433
1440
1437
1435
1437
1437
1437
1438
1438
1437
1435
1432
1432
1432
1432
1427
1425
1430
1421
1418
1413
1406
1403
1403
1398
1391
1391
1386
1384
1384
1383
1383
1384
1383
1384
1386
1389
1389
1391
1393
1394
1394
1398
1398
1406
1403
1399
1401
1399
1403
1403
1403
1405
1403
1403
1403
1405
1405
1403
1403
1410
1403
1403
1405
1399
1403
1403
1403
1403
1401
1399
1403
1403
1399
1399
1398
1399
1399
1396
1398
1398
1396
1396
1394
1394
1394
1396
1393
1394
1393
1393
1393
1389
1393
1391
1393
1391
1394
1393
1393
1391
1393
1393
1383
1391
1389
1391
1391
1389
1388
1388
1386
1389
1389
1386
1388
1388
1384
1389
1383
1386
1386
1386
1386
1386
1388
1388
1389
1388
1389
1386
1386
1384
1389
1384
1384
1384
1384
1386
1384
1384
1384
1386
1384
1384
1388
1379
1386
1386
1384
1386
1383
1386
1386
1388
1384
1386
1389
1383
1386
1386
1386
1379
1386
1386
1384
1386
1386
1384
1386
1384
1384
1383
1381
1381
1384
1384
1386
1379
1384
1384
1384
1383
1384
1384
1383
1383
1384
1384
1386
1384
1386
1384
1386
1383
1383
1384
1383
1384
1386
1384
1386
1383
1384
1386
1376
1386
1384
1384
1386
1383
1384
1384
1384
1383
1386
1388
1384
1384
1384
1388
1377
1384
1384
1386
1386
1386
1386
1384
1386
1386
1384
1384
1384
1384
1384
1386
1383
1384
1384
1384
1383
1384
1384
1384
1386
1384
1386
1386
1384
1386
1386
1386
1386
1388
1386
1388
1386
1388
1386
1388
1386
1386
1386
1381
1389
1384
1388
1388
1384
1389
1389
1389
1388
1391
1389
1389
1389
1389
1389
1384
1393
1393
1393
1394
1394
1394
1393
1398
1403
1401
1403
1401
1399
1399
1401
1405
1403
1399
1398
1398
1396
1394
1393
1393
1393
1393
1386
1391
1391
1393
1393
1391
1393
1393
1393
1393
1396
1403
1396
1398
1398
1396
1403
1405
1423
1454
1488
1530
1566
1571
1569
1564
1538
1471
1372
1333
1352
1366
1367
1377
1386
1389
1393
1394
1396
1399
1399
1403
1403
1403
1403
1403
1403
1403
1405
1405
1406
1405
1403
1403
1406
1405
1406
1406
1406
1411
1406
1406
1406
1410
1410
1410
1408
1410
1411
1410
1411
1413
1413
1413
1413
1423
1418
1418
1418
1418
1418
1418
1420
1421
1421
1421
1423
1423
1425
1425
1425
1430
1430
1430
1432
1432
1432
1433
1432
1432
1432
1428
1432
1430
1427
1425
1423
1421
1416
1413
1411
1405
1403
1401
1396
1393
1389
1386
1377
1383
1379
1383
1379
1379
1383
1383
1384
1384
1389
1389
1391
1393
1393
1394
1389
1398
1398
1399
1399
1398
1399
1401
1399
1399
1399
1401
1399
1401
1399
1398
1401
1401
1399
1401
1399
1398
1399
1399
1399
1398
1399
1405
1396
1398
1394
1394
1393
1393
1391
1393
1391
1393
1398
1393
1388
1389
1391
1383
1388
1389
1389
1386
1388
1386
1384
1384
1386
1386
1383
1384
1381
1383
1384
1377
1383
1383
1381
1384
1379
1383
1379
1383
1381
1381
1383
1383
1381
1383
1383
1377
1379
1383
1383
1379
1381
1383
1379
1383
1381
1383
1374
1381
1381
1381
1381
1381
1379
1379
1379
1379
1379
1379
1379
1383
1379
1383
1372
1379
1379
1379
1379
1383
1379
1377
1379
1377
1379
1377
1377
1381
1377
1381
1377
1377
1377
1379
1377
1381
1379
1383
1379
1377
1377
1377
1377
1377
1377
1377
1377
1379
1379
1377
1379
1379
1379
1377
1377
1377
1377
1371
1379
1377
1379
1377
1376
1379
1379
1381
1379
1381
1377
1379
1377
1379
1381
1376
1383
1383
1379
1379
1383
1381
1379
1379
1379
1381
1379
1379
1379
1379
1379
1377
1379
1379
1379
1383
1381
1383
1379
1379
1379
1383
1376
1383
1383
1383
1381
1377
1383
1383
1381
1383
1384
1389
1381
1381
1381
1384
1377
1384
1386
1384
1383
1384
1383
1384
1386
1386
1388
1386
1388
1389
1391
1391
1384
1393
1394
1398
1398
1398
1398
1398
1398
1398
1396
1394
1394
1393
1391
1389
1384
1389
1386
1388
1389
1384
1386
1386
1384
1386
1389
1383
1389
1389
1389
1389
1389
1391
1394
1396
1399
1403
1418
1442
1472
1506
1540
1567
1560
1552
1535
1494
1416
1340
1330
1345
1357
1367
1371
1381
1383
1389
1391
1391
1394
1396
1398
1398
1399
1398
1399
1399
1399
1398
1403
1401
1403
1403
1401
1405
1403
1403
1403
1403
1405
1406
1406
1405
1406
1405
1415
1410
1410
1410
1410
1413
1411
1413
1415
1415
1413
1416
1418
1418
1418
1420
1427
1425
1425
1427
1427
1428
1430
1432
1432
1432
1432
1433
1437
1437
1437
1435
1438
1438
1435
1437
1433
1432
1432
1428
1425
1423
1418
1421
1411
1408
1403
1396
1391
1389
1384
1383
1379
1377
1381
1372
1372
1374
1376
1369
1376
1377
1379
1383
1384
1386
1388
1389
1389
1391
1389
1393
1393
1393
1394
1391
1396
1396
1398
1399
1396
1394
1394
1398
1394
1394
1396
1398
1394
1393
1396
1393
1398
1398
1396
1394
1394
1393
1393
1393
1393
1394
1386
1393
1393
1393
1391
1391
1389
1388
1389
1389
1389
1388
1388
1386
1388
1388
1379
1386
1386
1386
1386
1388
1386
1386
1386
1386
1384
1384
1386
1384
1383
1388
1381
1386
1384
1384
1383
1383
1383
1384
1386
1384
1386
1384
1383
1384
1384
1386
1383
1384
1384
1383
1383
1384
1384
1384
1384
1388
1386
1379
1383
1384
1384
1384
1384
1384
1386
1384
1384
1386
1384
1384
1386
1384
1386
1379
1386
1389
1391
1391
1391
1391
1393
1393
1396
1399
1399
1401
1399
1398
1396
1399
1398
1396
1393
1394
1393
1389
1388
1388
1386
1386
1379
1384
1383
1383
1386
1383
1383
1383
1384
1384
1384
1394
1388
1388
1386
1386
1383
1388
1389
1391
1399
1420
1454
1491
1530
1560
1566
1560
1555
1530
1459
1360
1315
1338
1350
1359
1364
1372
1379
1386
1386
1389
1393
1391
1393
1394
1393
1394
1393
1398
1396
1396
1394
1394
1396
1398
1398
1398
1399
1405
1399
1399
1398
1401
1401
1401
1403
1403
1401
1401
1403
1401
1405
1405
1406
1411
1406
1410
1410
1410
1408
1411
1411
1413
1415
1415
1416
1418
1418
1420
1421
1423
1425
1425
1427
1427
1428
1430
1430
1430
1430
1430
1433
1432
1432
1430
1427
1425
1423
1420
1416
1416
1410
1406
1405
1399
1393
1393
1383
1386
1384
1384
1383
1381
1383
1384
1384
1386
1389
1388
1389
1389
1391
1393
1386
1393
1393
1393
1394
1394
1394
1394
1394
1394
1394
1394
1394
1398
1398
1394
1399
1398
1398
1398
1394
1394
1394
1396
1394
1394
1394
1388
1394
1394
1393
1393
1393
1391
1393
1391
1391
1391
1396
1389
1389
1391
1391
1384
1389
1389
1388
1388
1389
1384
1386
1384
1384
1384
1383
1384
1386
1386
1384
1383
1386
1384
1386
1384
1383
1383
1383
1384
1383
1384
1381
1384
1383
1383
1384
1381
1381
1383
1383
1383
1383
1384
1381
1383
1383
1383
1376
1384
1386
1383
1384
1383
1381
1381
1383
1383
1384
1383
1381
1384
1384
1386
1379
1388
1388
1388
1389
1391
1389
1393
1393
1396
1399
1396
1393
1394
1394
1394
1389
1391
1388
1388
1388
1384
1383
1381
1383
1383
1381
1377
1381
1381
1381
1383
1379
1384
1383
1384
1383
1386
1386
1384
1388
1386
1389
1381
1388
1391
1394
1416
1454
1491
1528
1560
1566
1560
1550
1525
1447
1349
1321
1332
1352
1357
1364
1372
1379
1383
1384
1388
1391
1393
1393
1393
1394
1394
1394
1393
1394
1394
1394
1394
1394
1394
1396
1394
1394
1394
1403
1398
1398
1399
1399
1399
1401
1401
1403
1403
1403
1405
1406
1406
1406
1406
1413
1410
1410
1410
1413
1411
1413
1418
1420
1420
1423
1425
1427
1430
1432
1432
1435
1432
1430
1432
1428
1428
1430
1427
1428
1427
1427
1428
1425
1425
1423
1420
1420
1413
1411
1410
1403
1399
1399
1394
1391
1389
1386
1377
1386
1384
1384
1384
1384
1386
1386
1386
1388
1391
1391
1393
1394
1394
1396
1389
1394
1394
1394
1396
1394
1394
1393
1394
1394
1394
1393
1398
1396
1398
1393
1394
1394
1394
1394
1393
1393
1394
1393
1394
1393
1394
1389
1391
1391
1391
1389
1388
1389
1389
1388
1388
1389
1389
1388
1386
1386
1386
1379
1386
1386
1384
1386
1383
1384
1384
1384
1384
1386
1383
1383
1383
1383
1383
1376
1383
1383
1383
1381
1383
1383
1383
1379
1381
1379
1379
1383
1383
1379
1381
1377
1379
1379
1377
1379
1381
1379
1381
1379
1379
1381
1372
1383
1383
1383
1383
1377
1379
1377
1377
1381
1383
1386
1379
1379
1379
1379
1372
1379
1379
1379
1379
1379
1379
1379
1379
1377
1379
1377
1376
1381
1377
1379
1377
1379
1383
1379
1379
1377
1379
1379
1379
1383
1379
1377
1377
1377
1379
1381
1377
1379
1381
1379
1379
1379
1379
1379
1379
1379
1383
1372
1377
1379
1377
1379
1377
1379
1379
1379
1383
1381
1381
1379
1383
1379
1383
1376
1381
1379
1379
1379
1379
1379
1383
1379
1383
1383
1379
1381
1383
1381
1383
1379
1383
1384
1383
1383
1384
1383
1383
1381
1383
1384
1381
1386
1383
1381
1383
1379
1383
1381
1384
1386
1386
1389
1384
1384
1384
1384
1379
1386
1386
1384
1386
1386
1386
1388
1388
1388
1386
1386
1388
1389
1386
1386
1383
1386
1386
1388
1389
1388
1389
1389
1386
1389
1388
1389
1389
1389
1389
1389
1388
1389
1391
1389
1389
1389
1391
1393
1393
1393
1391
1383
1393
1391
1393
1394
1394
1396
1396
1398
1396
1394
1403
1405
1405
1406
1403
1410
1406
1406
1405
1403
1399
1403
1401
1399
1398
1394
1398
1398
1398
1396
1396
1393
1396
1396
1396
1396
1398
1396
1399
1399
1401
1403
1403
1403
1405
1410
1421
1444
1472
1506
1545
1569
1572
1566
1552
1513
1437
1352
1332
1357
1369
1377
1381
1386
1394
1396
1398
1399
1403
1406
1406
1403
1405
1403
1408
1405
1405
1406
1406
1406
1405
1406
1406
1406
1406
1408
1410
1410
1410
1408
1410
1410
1411
1410
1410
1410
1411
1413
1413
1413
1411
1420
1416
1416
1418
1418
1421
1420
1421
1420
1421
1421
1423
1427
1427
1427
1427
1437
1435
1432
1435
1437
1437
1437
1438
1435
1437
1432
1432
1433
1432
1428
1425
1430
1423
1418
1413
1410
1405
1403
1399
1394
1393
1389
1386
1384
1383
1381
1383
1379
1383
1384
1384
1388
1389
1391
1393
1396
1398
1398
1410
1401
1403
1403
1403
1406
1405
1406
1406
1406
1405
1410
1405
1406
1406
1406
1411
1406
1410
1405
1405
1406
1406
1405
1405
1405
1405
1406
1405
1405
1403
1401
1405
1403
1403
1399
1401
1398
1398
1398
1398
1396
1394
1398
1396
1394
1393
1394
1391
1391
1391
1391
1391
1393
1391
1391
1389
1388
1389
1383
1386
1388
1389
1389
1386
1386
1386
1386
1386
1389
1386
1386
1386
1386
1388
1379
1384
1386
1384
1386
1384
1384
1384
1386
1384
1386
1384
1384
1384
1386
1388
1383
1384
1386
1384
1384
1384
1384
1384
1383
1384
1383
1379
1383
1384
1381
1384
1379
1383
1381
1381
1383
1383
1384
1383
1383
1383
1383
1376
1381
1383
1379
1379
1379
1383
1379
1383
1383
1381
1381
1383
1379
1383
1381
1376
1383
1383
1381
1383
1379
1381
1379
1383
1383
1383
1383
1383
1379
1381
1381
1379
1379
1383
1381
1383
1383
1383
1381
1383
1383
1383
1374
1383
1383
1383
1381
1379
1383
1383
1383
1383
1381
1388
1381
1381
1383
1383
1376
1381
1383
1383
1383
1381
1383
1384
1381
1383
1383
1383
1383
1383
1381
1384
1379
1381
1383
1384
1386
1381
1383
1383
1383
1384
1384
1386
1384
1384
1386
1388
1383
1384
1384
1384
1384
1384
1386
1386
1384
1386
1386
1377
1386
1386
1384
1388
1386
1388
1386
1388
1388
1386
1388
1391
1393
1394
1394
1388
1393
1393
1394
1399
1398
1403
1399
1399
1403
1399
1401
1399
1399
1394
1394
1394
1393
1391
1391
1389
1389
1389
1391
1391
1389
1391
1388
1391
1393
1391
1394
1391
1394
1394
1394
1396
1394
1401
1403
1427
1464
1501
1549
1566
1566
1562
1554
1518
1425
1342
1338
1355
1367
1371
1379
1383
1389
1391
1386
1394
1396
1398
1396
1394
1396
1398
1398
1398
1396
1398
1398
1398
1398
1396
1399
1401
1399
1399
1399
1401
1403
1403
1403
1403
1401
1408
1403
1405
1405
1405
1406
1408
1408
1408
1410
1410
1410
1411
1413
1413
1411
1421
1416
1416
1418
1418
1420
1421
1423
1423
1423
1425
1425
1427
1427
1428
1427
1433
1430
1427
1427
1427
1425
1425
1421
1420
1416
1413
1413
1410
1405
1401
1396
1393
1391
1388
1384
1383
1383
1383
1379
1379
1379
1383
1372
1383
1384
1386
1389
1386
1393
1394
1394
1398
1398
1398
1396
1398
1399
1398
1406
1399
1401
1399
1403
1399
1403
1401
1403
1399
1399
1401
1403
1399
1398
1398
1403
1399
1399
1399
1398
1396
1398
1398
1396
1394
1398
1391
1394
1394
1394
1394
1391
1391
1393
1391
1393
1391
1394
1389
1393
1389
1391
1383
1388
1388
1389
1391
1386
1386
1386
1384
1388
1388
1386
1388
1386
1386
1388
1383
1384
1386
1386
1386
1386
1386
1388
1388
1384
1386
1384
1388
1386
1386
1388
1383
1386
1386
1386
1386
1384
1386
1384
1384
1383
1384
1377
1384
1384
1384
1386
1383
1384
1384
1384
1384
1383
1386
1381
1386
1386
1384
1379
1384
1381
1383
1381
1384
1383
1384
1381
1383
1386
1383
1383
1383
1384
1383
1383
1383
1383
1383
1383
1383
1383
1384
1384
1384
1386
1383
1384
1384
1386
1386
1383
1383
1386
1388
1384
1384
1384
1383
1384
1388
1386
1379
1388
1389
1389
1389
1386
1389
1389
1394
1393
1398
1398
1396
1394
1394
1394
1403
1394
1391
1391
1391
1386
1386
1386
1384
1386
1388
1386
1384
1384
1388
1386
1383
1386
1386
1389
1389
1391
1391
1389
1393
1393
1394
1393
1410
1421
1452
1484
1521
1555
1562
1555
1542
1518
1445
1354
1323
1337
1352
1354
1369
1376
1383
1388
1391
1393
1394
1398
1398
1398
1398
1398
1398
1399
1399
1406
1399
1399
1401
1403
1401
1403
1405
1403
1403
1399
1403
1403
1403
1405
1405
1406
1406
1406
1410
1406
1410
1410
1410
1411
1411
1411
1420
1416
1415
1415
1418
1418
1420
1421
1425
1423
1425
1427
1430
1432
1432
1432
1438
1437
1435
1435
1437
1437
1440
1438
1438
1437
1435
1432
1433
1428
1423
1421
1420
1413
1410
1406
1399
1394
1394
1389
1386
1381
1381
1377
1383
1377
1381
1377
1376
1381
1383
1384
1386
1389
1386
1388
1391
1389
1393
1384
1393
1394
1393
1394
1394
1394
1393
1394
1394
1394
1393
1393
1393
1393
1393
1388
1394
1394
1393
1393
1393
1394
1391
1391
1391
1389
1388
1389
1389
1389
1389
1386
1386
1389
1386
1386
1388
1384
1386
1384
1386
1384
1377
1381
1383
1386
1383
1384
1384
1383
1381
1383
1383
1389
1383
1383
1381
1383
1376
1383
1381
1381
1384
1379
1383
1381
1383
1383
1383
1381
1381
1383
1384
1383
1376
1383
1384
1381
1383
1384
1383
1381
1381
1381
1383
1381
1383
1383
1383
1381
1383
1383
1383
1381
1383
1383
1383
1381
1381
1383
1383
1374
1379
1379
1383
1383
1381
1381
1381
1381
1381
1383
1383
1379
1381
1379
1383
1374
1383
1379
1383
1381
1383
1383
1379
1381
1383
1383
1383
1381
1383
1383
1383
1381
1384
1386
1384
1386
1388
1389
1391
1389
1391
1391
1391
1393
1389
1389
1389
1386
1386
1389
1388
1389
1389
1386
1388
1384
1381
1383
1374
1379
1383
1383
1383
1383
1383
1383
1383
1383
1386
1384
1388
1389
1389
1391
1384
1389
1388
1394
1411
1445
1484
1525
1560
1569
1566
1559
1542
1479
1377
1321
1335
1352
1359
1366
1374
1379
1386
1388
1388
1394
1396
1388
1394
1396
1394
1394
1394
1396
1394
1394
1394
1394
1398
1398
1398
1398
1396
1403
1398
1398
1396
1396
1398
1398
1401
1401
1401
1399
1403
1403
1403
1403
1403
1413
1406
1406
1410
1406
1410
1410
1411
1411
1413
1415
1418
1418
1420
1418
1421
1421
1423
1423
1427
1425
1427
1427
1427
1427
1428
1423
1432
1425
1421
1421
1418
1418
1415
1410
1410
1403
1401
1399
1394
1391
1388
1386
1376
1383
1381
1377
1379
1383
1383
1381
1383
1384
1384
1386
1389
1391
1391
1393
1391
1393
1391
1394
1394
1394
1394
1396
1398
1394
1394
1399
1398
1394
1398
1396
1398
1398
1398
1394
1394
1394
1394
1394
1394
1393
1394
1386
1394
1393
1393
1393
1389
1391
1391
1393
1389
1391
1388
1386
1388
1388
1391
1379
1386
1386
1386
1386
1386
1386
1388
1384
1386
1386
1384
1386
1386
1384
1384
1381
1383
1381
1383
1381
1383
1383
1383
1379
1381
1383
1374
1381
1383
1381
1383
1377
1379
1379
1379
1379
1383
1389
1379
1379
1379
1383
1374
1381
1379
1383
1383
1379
1379
1379
1381
1377
1379
1377
1377
1377
1377
1379
1372
1377
1377
1377
1379
1379
1379
1377
1376
1377
1377
1377
1377
1379
1379
1379
1377
1377
1377
1376
1377
1377
1376
1377
1377
1377
1377
1371
1377
1379
1377
1377
1376
1377
1379
1377
1376
1379
1376
1377
1376
1377
1377
1374
1376
1379
1376
1376
1377
1376
1377
1377
1377
1377
1376
1377
1377
1377
1379
1377
1379
1379
1383
1379
1379
1381
1381
1379
1383
1379
1379
1379
1383
1379
1383
1379
1383
1381
1381
1383
1383
1381
1383
1379
1379
1379
1372
1379
1383
1381
1383
1379
1381
1381
1383
1383
1383
1383
1383
1379
1383
1383
1376
1381
1383
1383
1383
1383
1383
1383
1384
1383
1383
1381
1381
1384
1384
1383
1383
1384
1383
1381
1384
1384
1384
1386
1384
1386
1384
1377
1386
1386
1384
1386
1386
1388
1386
1386
1386
1388
1394
1389
1386
1386
1388
1377
1384
1386
1388
1386
1386
1389
1389
1389
1388
1388
1388
1389
1391
1389
1393
1389
1394
1393
1394
1394
1394
1396
1401
1399
1401
1398
1398
1399
1401
1399
1394
1396
1394
1393
1391
1389
1389
1389
1389
1388
1389
1389
1383
1389
1389
1389
1391
1388
1393
1393
1394
1394
1398
1394
1394
1394
1398
1410
1440
1471
1511
1549
1567
1566
1564
1552
1518
1430
1342
1335
1355
1364
1371
1376
1383
1389
1391
1391
1394
1399
1398
1398
1399
1399
1398
1405
1399
1401
1401
1403
1405
1405
1406
1405
1408
1410
1410
1408
1411
1411
1408
1418
1411
1411
1411
1411
1411
1413
1411
1410
1411
1411
1413
1413
1415
1411
1413
1421
1415
1416
1416
1416
1418
1421
1421
1423
1425
1425
1425
1427
1428
1430
1430
1432
1432
1432
1432
1430
1432
1432
1432
1432
1430
1427
1433
1428
1423
1423
1418
1418
1415
1410
1406
1399
1398
1394
1393
1391
1389
1389
1383
1386
1386
1386
1386
1389
1391
1393
1394
1394
1396
1399
1399
1399
1399
1403
1410
1405
1405
1406
1405
1406
1406
1406
1410
1406
1406
1408
1410
1410
1410
1406
1410
1406
1406
1405
1405
1403
1405
1405
1405
1401
1399
1410
1403
1403
1401
1399
1401
1399
1399
1398
1398
1398
1396
1396
1398
1393
1394
1389
1393
1393
1394
1394
1394
1394
1393
1394
1393
1393
1391
1391
1391
1391
1394
1389
1391
1391
1391
1393
1391
1391
1389
1389
1389
1389
1388
1389
1389
1389
1389
1389
1389
1388
1389
1388
1389
1389
1388
1389
1389
1389
1383
1389
1389
1388
1388
1389
1388
1389
1386
1389
1389
1386
1388
1384
1386
1388
1383
1389
1386
1388
1386
1384
1386
1386
1388
1386
1386
1386
1388
1388
1386
1386
1384
1384
1386
1386
1388
1386
1388
1388
1388
1386
1386
1381
1388
1389
1386
1389
1386
1388
1386
1386
1388
1386
1394
1389
1388
1389
1389
1383
1388
1389
1388
1388
1389
1388
1391
1388
1391
1389
1389
1389
1391
1393
1391
1389
1391
1389
1391
1389
1389
1389
1391
1391
1391
1391
1391
1391
1391
1393
1393
1391
1391
1391
1391
1391
1393
1393
1391
1391
1393
1393
1386
1393
1393
1393
1391
1391
1391
1393
1393
1393
1394
1393
1394
1391
1391
1391
1386
1393
1391
1393
1393
1393
1393
1393
1391
1393
1394
1393
1393
1391
1394
1393
1388
1393
1394
1393
1393
1391
1393
1394
1393
1394
1398
1403
1401
1399
1401
1398
1403
1403
1405
1398
1398
1394
1398
1399
1399
1399
1398
1403
1394
1393
1389
1393
1389
1391
1391
1393
1393
1391
1393
1391
1393
1394
1398
1391
1396
1398
1398
1399
1401
1403
1410
1421
1447
1477
1511
1549
1571
1567
1560
1545
1505
1425
1347
1337
1355
1366
1374
1381
1388
1393
1389
1403
1399
1401
1401
1405
1403
1405
1405
1405
1403
1406
1406
1406
1406
1405
1415
1406
1410
1406
1410
1406
1410
1408
1410
1408
1410
1411
1411
1413
1413
1411
1418
1415
1416
1416
1415
1416
1418
1420
1418
1418
1420
1421
1423
1423
1425
1423
1428
1427
1428
1430
1432
1432
1433
1437
1437
1435
1435
1440
1438
1435
1437
1433
1435
1432
1430
1432
1428
1425
1423
1421
1416
1411
1406
1408
1399
1396
1393
1391
1388
1384
1383
1383
1383
1383
1383
1379
1383
1383
1386
1386
1388
1389
1393
1393
1394
1394
1398
1398
1399
1399
1403
1399
1401
1403
1399
1403
1401
1401
1403
1403
1401
1403
1405
1403
1403
1401
1410
1405
1405
1403
1401
1405
1403
1401
1401
1403
1399
1401
1401
1401
1399
1398
1405
1399
1399
1398
1396
1398
1398
1396
1394
1394
1394
1393
1394
1394
1394
1394
1391
1393
1393
1393
1393
1391
1389
1389
1391
1389
1391
1383
1389
1389
1391
1388
1389
1389
1391
1389
1389
1391
1396
1388
1389
1389
1389
1383
1389
1389
1389
1389
1389
1389
1391
1393
1388
1389
1386
1388
1388
1389
1393
1386
1389
1389
1389
1389
1391
1389
1388
1388
1389
1391
1388
1389
1389
1388
1389
1386
1389
1388
1389
1389
1389
1389
1391
1389
1389
1391
1384
1391
1391
1394
1389
1389
1391
1391
1391
1391
1391
1391
1391
1389
1391
1393
1384
1391
1389
1391
1391
1389
1389
1391
1394
1393
1394
1398
1394
1394
1394
1398
1401
1401
1406
1403
1403
1401
1406
1405
1403
1399
1398
1403
1394
1391
1389
1393
1391
1389
1388
1389
1389
1389
1391
1391
1391
1393
1391
1384
1391
1393
1394
1393
1394
1396
1394
1398
1408
1427
1464
1501
1540
1567
1572
1572
1560
1528
1449
1352
1328
1347
1359
1367
1374
1383
1388
1391
1391
1393
1396
1396
1398
1399
1399
1398
1398
1403
1401
1399
1401
1399
1410
1403
1403
1401
1403
1406
1405
1406
1405
1406
1405
1408
1406
1410
1410
1410
1416
1411
1415
1415
1413
1413
1416
1415
1416
1418
1416
1418
1418
1420
1418
1420
1423
1421
1421
1423
1425
1425
1427
1428
1430
1430
1430
1430
1432
1432
1433
1432
1433
1430
1432
1430
1427
1427
1425
1423
1421
1418
1413
1416
1406
1405
1401
1398
1393
1391
1389
1389
1388
1386
1386
1389
1389
1389
1391
1384
1391
1393
1394
1394
1398
1399
1398
1398
1401
1398
1401
1403
1399
1401
1401
1406
1403
1403
1403
1403
1403
1403
1403
1403
1403
1399
1410
1403
1403
1401
1399
1403
1403
1399
1401
1398
1398
1398
1398
1399
1396
1398
1389
1394
1394
1393
1394
1393
1393
1391
1393
1389
1393
1391
1391
1389
1389
1389
1381
1388
1389
1389
1388
1389
1388
1388
1386
1386
1386
1386
1386
1384
1386
1384
1383
1383
1383
1384
1386
1384
1384
1386
1384
1384
1388
1379
1384
1386
1386
1384
1384
1384
1384
1384
1384
1386
1391
1384
1384
1386
1386
1379
1384
1381
1383
1383
1384
1384
1384
1386
1383
1386
1383
1386
1383
1383
1386
1379
1384
1384
1381
1383
1383
1386
1381
1381
1383
1386
1381
1383
1383
1381
1383
1383
1383
1381
1383
1384
1386
1386
1384
1383
1383
1386
1376
1383
1383
1381
1381
1383
1383
1384
1381
1383
1386
1383
1384
1383
1383
1381
1376
1384
1383
1383
1383
1384
1383
1383
1384
1383
1384
1383
1384
1386
1384
1386
1383
1384
1384
1386
1386
1384
1386
1386
1386
1386
1384
1377
1381
1386
1384
1386
1383
1384
1384
1386
1386
1384
1389
1384
1384
1386
1384
1377
1384
1384
1384
1386
1386
1384
1386
1386
1386
1388
1386
1386
1386
1388
1386
1386
1389
1389
1386
1388
1388
1389
1389
1389
1389
1389
1389
1391
1389
1389
1391
1389
1391
1391
1391
1389
1389
1391
1391
1389
1391
1391
1383
1391
1391
1391
1391
1393
1393
1394
1393
1393
1393
1394
1394
1393
1393
1394
1388
1396
1398
1398
1394
1394
1398
1403
1405
1403
1403
1403
1403
1403
1405
1399
1403
1399
1398
1394
1394
1393
1391
1393
1393
1389
1391
1391
1391
1393
1391
1393
1389
1393
1393
1394
1394
1398
1399
1399
1405
1406
1416
1445
1472
1506
1547
1574
1577
1569
1554
1513
1430
1349
1335
1354
1364
1371
1379
1379
1391
1394
1396
1398
1401
1403
1405
1405
1403
1403
1403
1403
1403
1403
1403
1405
1405
1405
1405
1403
1405
1406
1406
1406
1408
1406
1415
1408
1410
1410
1410
1413
1411
1411
1411
1413
1411
1416
1416
1416
1418
1418
1425
1423
1425
1423
1425
1427
1428
1428
1430
1432
1433
1435
1437
1438
1438
1438
1449
1444
1442
1444
1444
1440
1442
1438
1438
1438
1435
1433
1430
1430
1423
1421
1418
1415
1410
1406
1398
1394
1391
1389
1384
1381
1381
1372
1377
1379
1383
1383
1383
1386
1388
1388
1393
1393
1398
1399
1398
1399
1399
1408
1403
1403
1405
1403
1403
1405
1405
1405
1405
1403
1405
1403
1403
1405
1403
1406
1405
1405
1403
1403
1403
1403
1399
1403
1401
1399
1401
1399
1398
1399
1398
1398
1398
1398
1398
1396
1396
1394
1394
1393
1393
1393
1384
1393
1391
1391
1391
1388
1389
1389
1389
1389
1389
1389
1388
1389
1386
1389
1383
1389
1388
1386
1388
1384
1386
1384
1388
1386
1386
1386
1386
1386
1386
1386
1384
1384
1386
1386
1386
1386
1389
1388
1384
1386
1386
1379
1386
1384
1386
1386
1384
1386
1384
1386
1386
1386
1391
1388
1388
1386
1388
1379
1384
1386
1384
1389
1384
1384
1386
1386
1388
1386
1386
1386
1384
1386
1384
1383
1384
1386
1384
1386
1388
1386
1386
1388
1388
1389
1386
1389
1386
1388
1388
1386
1389
1393
1393
1393
1391
1391
1393
1394
1398
1398
1406
1399
1398
1398
1398
1401
1396
1391
1391
1391
1389
1389
1388
1386
1388
1389
1379
1384
1386
1386
1386
1388
1384
1386
1388
1388
1388
1388
1389
1389
1393
1388
1388
1393
1403
1430
1467
1506
1547
1569
1574
1569
1559
1525
1438
1338
1327
1344
1355
1364
1369
1379
1383
1389
1391
1393
1394
1394
1394
1388
1394
1396
1396
1396
1394
1398
1398
1398
1398
1396
1399
1399
1399
1399
1398
1405
1399
1399
1401
1403
1401
1405
1403
1403
1405
1405
1405
1406
1408
1405
1410
1410
1413
1411
1411
1411
1411
1416
1415
1416
1416
1418
1425
1421
1421
1421
1423
1427
1427
1430
1430
1430
1430
1432
1432
1430
1430
1430
1435
1428
1427
1425
1423
1420
1416
1413
1410
1408
1403
1399
1394
1393
1389
1389
1383
1384
1383
1383
1383
1383
1384
1388
1388
1389
1391
1391
1394
1394
1398
1398
1398
1398
1399
1401
1399
1403
1403
1406
1405
1406
1403
1411
1405
1405
1405
1401
1405
1403
1399
1399
1399
1398
1401
1399
1399
1398
1398
1403
1398
1398
1398
1396
1394
1394
1394
1394
1394
1393
1393
1393
1393
1393
1394
1393
1394
1393
1393
1393
1391
1393
1393
1391
1389
1391
1391
1391
1391
1393
1388
1386
1389
1393
1391
1393
1391
1389
1389
1391
1391
1394
1386
1394
1396
1396
1394
1396
1393
1394
1393
1393
1394
1394
1393
1393
1394
1393
1384
1389
1389
1386
1386
1386
1386
1384
1386
1389
1386
1386
1386
1388
1388
1389
1388
1386
1388
1389
1389
1391
1391
1389
1389
1393
1405
1437
1467
1506
1549
1572
1574
1569
1554
1518
1430
1335
1328
1340
1355
1362
1371
1369
1383
1388
1388
1393
1393
1394
1394
1393
1394
1393
1393
1394
1396
1398
1398
1393
1398
1398
1396
1396
1394
1398
1398
1399
1398
1398
1398
1399
1399
1399
1401
1406
1403
1403
1405
1403
1405
1405
1405
1405
1405
1405
1413
1408
1408
1408
1411
1416
1415
1416
1416
1418
1418
1421
1423
1423
1423
1423
1430
1425
1425
1425
1423
1423
1425
1423
1421
1418
1418
1416
1415
1413
1406
1405
1405
1398
1393
1391
1391
1386
1386
1384
1383
1381
1383
1379
1383
1381
1383
1384
1384
1386
1386
1389
1389
1393
1391
1391
1393
1393
1393
1386
1391
1393
1391
1393
1391
1391
1391
1391
1391
1393
1389
1393
1393
1389
1391
1386
1391
1391
1389
1391
1388
1388
1389
1389
1388
1389
1386
1386
1388
1386
1386
1383
1384
1386
1384
1383
1383
1381
1381
1383
1383
1381
1376
1383
1383
1379
1383
1379
1381
1377
1379
1379
1383
1386
1383
1381
1379
1379
1372
1376
1377
1377
1376
1377
1377
1379
1377
1379
1377
1377
1379
1379
1377
1379
1372
1377
1376
1377
1377
1376
1376
1376
1376
1376
1377
1376
1376
1376
1377
1376
1372
1376
1376
1376
1377
1376
1376
1376
1376
1376
1376
1369
1376
1376
1376
1376
1374
1376
1374
1376
1376
1377
1376
1377
1376
1376
1379
1369
1376
1377
1376
1376
1376
1377
1376
1376
1376
1377
1376
1376
1377
1376
1377
1376
1377
1376
1377
1376
1377
1377
1377
1379
1377
1379
1377
1377
1377
1379
1377
1376
1376
1377
1377
1377
1379
1377
1377
1377
1376
1377
1371
1379
1377
1379
1381
1377
1379
1379
1381
1379
1381
1383
1383
1381
1383
1383
1374
1379
1381
1381
1383
1381
1381
1383
1384
1383
1383
1383
1384
1384
1381
1383
1383
1381
1381
1381
1383
1383
1384
1384
1384
1383
1384
1376
1384
1383
1384
1384
1383
1384
1383
1381
1383
1386
1391
1383
1386
1383
1384
1377
1384
1383
1383
1384
1384
1386
1383
1384
1383
1386
1383
1386
1384
1386
1386
1381
1384
1384
1384
1383
1384
1384
1383
1384
1384
1386
1386
1384
1388
1386
1386
1386
1388
1386
1384
1384
1388
1389
1389
1389
1389
1393
1386
1391
1391
1391
1393
1398
1398
1399
1398
1394
1398
1396
1398
1394
1393
1393
1384
1391
1388
1386
1386
1386
1388
1384
1386
1388
1386
1388
1388
1386
1386
1391
1386
1389
1393
1394
1393
1394
1399
1403
1410
1427
1459
1498
1537
1569
1576
1572
1560
1535
1469
1374
1332
1344
1355
1364
1372
1377
1386
1384
1393
1394
1398
1399
1398
1398
1398
1398
1396
1398
1399
1403
1399
1401
1401
1406
1401
1399
1399
1399
1399
1399
1403
1403
1403
1403
1405
1405
1406
1406
1408
1410
1408
1411
1410
1410
1410
1413
1413
1415
1416
1416
1425
1420
1420
1421
1421
1425
1425
1428
1428
1428
1427
1432
1433
1435
1435
1435
1444
1437
1435
1435
1433
1432
1435
1430
1430
1425
1423
1421
1418
1413
1410
1405
1410
1399
1393
1391
1386
1384
1383
1377
1377
1376
1377
1377
1379
1379
1383
1381
1384
1386
1389
1389
1394
1394
1394
1394
1394
1394
1393
1405
1398
1399
1398
1398
1401
1399
1399
1399
1399
1398
1399
1399
1399
1403
1398
1406
1399
1399
1398
1398
1398
1396
1396
1393
1393
1393
1391
1393
1394
1389
1391
1389
1389
1388
1386
1389
1384
1384
1384
1386
1386
1386
1383
1383
1383
1383
1383
1379
1383
1383
1383
1383
1381
1379
1379
1379
1381
1381
1372
1381
1381
1379
1379
1377
1381
1379
1379
1383
1379
1377
1377
1379
1377
1379
1372
1377
1377
1377
1377
1379
1377
1377
1377
1379
1381
1377
1379
1379
1383
1379
1377
1379
1379
1377
1379
1379
1379
1377
1379
1379
1381
1371
1379
1379
1383
1381
1379
1379
1379
1379
1377
1379
1388
1379
1377
1379
1379
1371
1379
1379
1377
1379
1381
1379
1379
1377
1379
1379
1379
1381
1379
1381
1383
1376
1379
1379
1381
1383
1383
1379
1383
1379
1383
1379
1381
1379
1381
1381
1383
1381
1381
1379
1381
1381
1383
1383
1383
1383
1383
1384
1376
1381
1383
1383
1383
1379
1383
1383
1384
1381
1384
1384
1383
1381
1383
1384
1377
1381
1384
1383
1383
1383
1384
1383
1384
1386
1383
1381
1384
1381
1383
1383
1383
1383
1384
1381
1383
1383
1383
1386
1383
1384
1388
1383
1384
1384
1383
1384
1384
1384
1384
1384
1386
1384
1386
1386
1388
1384
1386
1379
1386
1384
1386
1386
1384
1384
1386
1386
1388
1389
1389
1389
1391
1394
1393
1388
1394
1394
1393
1394
1393
1394
1393
1393
1394
1393
1394
1391
1388
1388
1389
1386
1388
1389
1389
1389
1391
1391
1389
1389
1389
1393
1386
1393
1393
1394
1396
1393
1394
1399
1420
1454
1491
1533
1567
1577
1574
1569
1554
1488
1377
1328
1345
1362
1369
1377
1381
1389
1391
1391
1393
1398
1398
1398
1405
1398
1399
1398
1398
1398
1398
1399
1399
1399
1399
1399
1401
1403
1401
1403
1406
1405
1405
1406
1403
1405
1405
1406
1410
1410
1408
1416
1410
1408
1411
1410
1411
1415
1415
1415
1415
1415
1415
1420
1418
1418
1421
1427
1423
1425
1425
1425
1427
1430
1430
1430
1430
1432
1432
1432
1433
1430
1428
1432
1427
1428
1425
1423
1421
1416
1415
1410
1406
1403
1405
1396
1393
1391
1389
1384
1384
1383
1383
1383
1384
1386
1388
1389
1389
1393
1384
1394
1396
1399
1399
1403
1403
1403
1405
1405
1403
1405
1406
1408
1406
1406
1413
1410
1406
1406
1406
1406
1408
1410
1411
1408
1410
1411
1413
1411
1413
1411
1415
1408
1406
1406
1405
1405
1408
1405
1405
1401
1398
1403
1394
1393
1393
1391
1388
1391
1391
1393
1391
1393
1394
1391
1391
1393
1391
1386
1393
1393
1393
1393
1394
1396
1393
1391
1389
1389
1403
1433
1476
1521
1567
1584
1579
1572
1554
1488
1389
1330
1338
1357
1367
1376
1383
1389
1393
1394
1396
1399
1399
1403
1401
1398
1399
1399
1399
1399
1401
1399
1410
1403
1405
1405
1403
1405
1401
1403
1403
1403
1401
1403
1403
1405
1405
1401
1411
1406
1410
1410
1410
1410
1410
1413
1413
1411
1411
1413
1416
1416
1418
1416
1421
1420
1421
1423
1425
1423
1425
1425
1428
1425
1425
1433
1427
1425
1428
1425
1427
1425
1423
1423
1418
1415
1413
1410
1406
1401
1398
1389
1394
1389
1388
1388
1384
1386
1384
1386
1386
1386
1384
1386
1386
1388
1386
1381
1389
1388
1388
1388
1389
1389
1386
1388
1389
1389
1389
1389
1389
1389
1389
1389
1389
1389
1391
1389
1389
1388
1386
1388
1386
1386
1377
1386
1384
1384
1383
1379
1383
1381
1379
1379
1383
1383
1377
1376
1376
1376
1371
1377
1376
1376
1377
1376
1376
1374
1376
1374
1376
1372
1374
1372
1372
1376
1371
1372
1372
1376
1374
1376
1376
1372
1374
1372
1374
1372
1372
1374
1372
1374
1372
1372
1372
1372
1374
1374
1372
1376
1372
1374
1374
1366
1374
1372
1376
1376
1374
1376
1376
1374
1374
1376
1372
1374
1372
1372
1376
1369
1374
1371
1372
1374
1376
1376
1376
1376
1374
1376
1376
1376
1374
1376
1376
1374
1374
1376
1376
1376
1377
1376
1377
1377
1379
1379
1372
1377
1377
1376
1377
1376
1377
1377
1377
1376
1381
1377
1379
1377
1377
1377
1372
1379
1377
1377
1377
1376
1379
1377
1379
1381
1383
1379
1379
1379
1377
1381
1374
1379
1379
1381
1381
1379
1379
1379
1383
1379
1381
1381
1381
1383
1383
1383
1381
1383
1383
1381
1383
1383
1383
1381
1383
1381
1384
1376
1384
1383
1384
1386
1383
1384
1383
1386
1384
1384
1389
1386
1383
1386
1388
1377
1386
1386
1384
1388
1388
1389
1386
1389
1389
1388
1386
1388
1391
1391
1391
1389
1396
1394
1396
1394
1393
1393
1394
1394
1394
1394
1393
1393
1394
1393
1391
1388
1389
1389
1386
1389
1388
1388
1388
1388
1391
1391
1384
1391
1389
1391
1393
1394
1394
1394
1399
1399
1406
1418
1445
1479
1520
1562
1584
1579
1572
1554
1503
1406
1332
1337
1355
1364
1372
1377
1388
1391
1394
1398
1399
1403
1403
1403
1403
1401
1403
1403
1403
1403
1403
1411
1406
1406
1405
1405
1408
1405
1410
1410
1410
1408
1410
1410
1410
1410
1410
1418
1411
1411
1413
1413
1415
1416
1416
1418
1418
1418
1420
1423
1425
1423
1425
1432
1428
1430
1430
1430
1433
1432
1437
1435
1438
1435
1438
1438
1438
1438
1437
1440
1438
1435
1435
1433
1430
1430
1427
1421
1415
1411
1413
1405
1398
1394
1391
1384
1383
1381
1377
1376
1379
1379
1377
1379
1383
1381
1377
1386
1389
1393
1393
1394
1398
1399
1401
1401
1401
1403
1403
1403
1406
1405
1410
1405
1406
1406
1406
1406
1406
1406
1408
1406
1405
1405
1403
1405
1403
1401
1405
1403
1403
1403
1403
1399
1401
1399
1398
1398
1394
1401
1398
1394
1394
1394
1391
1393
1394
1393
1394
1393
1391
1393
1391
1389
1391
1384
1391
1388
1388
1389
1384
1386
1386
1388
1386
1389
1388
1384
1386
1384
1386
1381
1384
1384
1384
1386
1384
1384
1383
1381
1383
1381
1379
1383
1383
1383
1384
1379
1383
1383
1384
1383
1383
1386
1384
1383
1383
1383
1374
1381
1383
1383
1383
1381
1383
1383
1383
1381
1383
1383
1383
1381
1383
1383
1376
1381
1383
1379
1383
1381
1383
1377
1383
1379
1379
1377
1379
1381
1383
1383
1379
1377
1377
1381
1381
1381
1383
1379
1383
1383
1379
1372
1383
1381
1383
1383
1379
1383
1383
1383
1384
1383
1384
1383
1383
1383
1384
1377
1383
1383
1383
1383
1383
1383
1386
1384
1384
1386
1381
1383
1383
1381
1383
1379
1383
1383
1383
1383
1384
1381
1381
1383
1383
1383
1383
1383
1381
1383
1384
1379
1383
1381
1383
1383
1384
1384
1381
1383
1383
1381
1376
1383
1384
1383
1384
1383
1383
1383
1383
1386
1384
1386
1384
1384
1384
1386
1379
1383
1384
1384
1384
1383
1384
1386
1384
1386
1388
1386
1386
1388
1386
1389
1383
1388
1386
1384
1388
1386
1388
1389
1389
1391
1394
1389
1396
1396
1394
1396
1391
1391
1393
1393
1394
1393
1398
1391
1391
1389
1386
1377
1386
1384
1386
1384
1386
1386
1388
1388
1388
1391
1389
1391
1391
1394
1394
1389
1394
1393
1394
1398
1415
1450
1493
1540
1576
1584
1577
1574
1555
1493
1388
1332
1349
1359
1367
1376
1383
1388
1391
1393
1393
1396
1405
1396
1396
1396
1398
1399
1399
1399
1398
1398
1398
1399
1398
1399
1399
1398
1405
1399
1399
1403
1401
1398
1401
1403
1403
1403
1401
1405
1405
1406
1406
1405
1410
1408
1410
1408
1410
1410
1413
1415
1413
1416
1413
1418
1418
1420
1421
1421
1423
1423
1423
1423
1427
1423
1427
1427
1425
1425
1425
1430
1425
1423
1423
1423
1421
1416
1413
1411
1410
1401
1403
1398
1393
1389
1389
1377
1381
1383
1377
1379
1379
1377
1381
1383
1383
1384
1386
1389
1391
1393
1393
1393
1394
1396
1398
1398
1399
1399
1398
1399
1401
1398
1405
1398
1399
1399
1398
1403
1401
1399
1399
1399
1398
1399
1401
1399
1398
1398
1405
1398
1394
1394
1394
1393
1393
1393
1393
1393
1393
1393
1391
1391
1391
1391
1386
1391
1389
1386
1388
1388
1388
1386
1386
1388
1388
1388
1389
1386
1388
1389
1384
1386
1386
1388
1388
1386
1384
1384
1384
1386
1386
1377
1384
1384
1384
1384
1383
1384
1384
1383
1386
1384
1384
1383
1381
1383
1383
1377
1383
1383
1383
1386
1384
1384
1386
1383
1384
1384
1383
1386
1383
1384
1383
1381
1384
1383
1383
1384
1383
1384
1384
1383
1383
1384
1383
1384
1383
1384
1383
1381
1384
1383
1383
1383
1384
1384
1383
1386
1383
1381
1374
1381
1384
1383
1383
1383
1381
1383
1383
1383
1381
1383
1383
1383
1383
1381
1377
1381
1383
1381
1383
1379
1383
1383
1383
1381
1383
1383
1383
1381
1383
1381
1379
1381
1381
1383
1383
1381
1383
1383
1383
1381
1383
1376
1383
1381
1383
1383
1379
1381
1383
1381
1383
1381
1389
1381
1383
1381
1381
1376
1383
1386
1384
1383
1383
1383
1384
1381
1384
1381
1383
1383
1381
1381
1383
1377
1383
1383
1383
1383
1384
1381
1384
1381
1384
1386
1383
1384
1384
1384
1384
1381
1383
1386
1384
1384
1386
1384
1388
1386
1386
1386
1379
1386
1388
1388
1389
1386
1386
1389
1389
1389
1393
1393
1396
1396
1398
1396
1389
1394
1393
1393
1391
1394
1393
1393
1394
1393
1391
1389
1386
1388
1384
1386
1384
1388
1386
1389
1388
1389
1391
1388
1389
1391
1394
1394
1393
1393
1394
1394
1393
1398
1411
1444
1481
1525
1567
1583
1581
1576
1557
1506
1399
1328
1338
1355
1362
1371
1379
1384
1389
1393
1394
1394
1398
1398
1394
1401
1398
1399
1401
1398
1398
1399
1401
1398
1399
1401
1399
1401
1403
1399
1401
1401
1403
1403
1403
1403
1405
1405
1405
1405
1406
1406
1413
1406
1410
1410
1411
1413
1411
1410
1411
1411
1413
1418
1418
1421
1420
1420
1428
1423
1425
1427
1428
1427
1430
1430
1432
1430
1430
1432
1432
1432
1430
1427
1432
1425
1423
1421
1418
1413
1411
1408
1403
1399
1396
1391
1388
1381
1379
1376
1372
1372
1372
1372
1369
1372
1372
1376
1379
1379
1383
1376
1384
1389
1389
1389
1389
1391
1391
1393
1394
1394
1393
1394
1393
1394
1394
1388
1396
1399
1396
1394
1394
1394
1393
1393
1394
1393
1393
1393
1391
1393
1394
1389
1391
1393
1391
1391
1389
1389
1386
1386
1388
1389
1386
1386
1386
1384
1386
1383
1384
1386
1384
1384
1386
1384
1384
1381
1383
1383
1372
1381
1383
1383
1383
1383
1383
1381
1379
1383
1383
1377
1381
1379
1381
1381
1372
1377
1377
1377
1383
1377
1377
1377
1379
1377
1379
1377
1377
1377
1379
1377
1376
1379
1379
1379
1377
1379
1379
1377
1376
1379
1377
1372
1377
1377
1377
1377
1377
1379
1377
1377
1377
1379
1386
1379
1379
1379
1383
1371
1379
1377
1379
1377
1379
1377
1377
1377
1377
1381
1377
1379
1381
1377
1379
1374
1379
1377
1381
1379
1377
1377
1379
1377
1379
1383
1377
1377
1377
1377
1379
1377
1379
1379
1377
1379
1383
1383
1383
1386
1384
1384
1377
1389
1388
1391
1393
1391
1391
1391
1394
1393
1393
1391
1389
1389
1386
1386
1377
1383
1383
1383
1381
1383
1383
1381
1381
1381
1381
1383
1383
1383
1383
1386
1383
1386
1386
1388
1389
1389
1394
1399
1411
1433
1471
1511
1547
1576
1576
1572
1557
1520
1433
1342
1321
1337
1350
1359
1366
1376
1381
1379
1386
1389
1393
1396
1394
1394
1394
1393
1394
1394
1394
1396
1394
1396
1398
1391
1398
1398
1399
1396
1398
1398
1398
1401
1401
1399
1405
1405
1405
1406
1405
1410
1410
1410
1410
1410
1410
1410
1411
1410
1411
1411
1420
1416
1416
1415
1418
1423
1421
1421
1421
1423
1425
1427
1427
1430
1428
1427
1435
1427
1428
1427
1425
1425
1425
1425
1421
1418
1415
1413
1410
1406
1401
1394
1391
1389
1384
1381
1377
1376
1374
1372
1371
1371
1371
1369
1371
1374
1377
1379
1379
1384
1384
1384
1386
1388
1388
1389
1391
1389
1393
1386
1393
1391
1394
1394
1393
1393
1394
1394
1393
1394
1393
1393
1393
1393
1394
1389
1393
1394
1393
1394
1393
1393
1393
1393
1391
1393
1389
1389
1386
1386
1388
1383
1384
1386
1388
1386
1384
1383
1383
1381
1381
1383
1383
1381
1379
1379
1379
1376
1377
1376
1377
1377
1377
1377
1376
1377
1376
1376
1369
1372
1372
1372
1374
1371
1374
1372
1372
1372
1374
1374
1372
1371
1372
1372
1367
1371
1372
1371
1371
1372
1372
1372
1372
1371
1374
1372
1374
1371
1371
1371
1371
1371
1371
1372
1371
1371
1371
1372
1372
1371
1371
1362
1369
1372
1369
1371
1369
1369
1372
1371
1372
1371
1376
1371
1371
1371
1374
1367
1371
1371
1371
1371
1372
1371
1371
1371
1372
1371
1371
1371
1372
1371
1371
1369
1372
1371
1372
1371
1371
1369
1371
1371
1371
1372
1371
1372
1371
1371
1372
1367
1371
1371
1371
1372
1374
1371
1371
1372
1371
1371
1366
1371
1374
1371
1372
1371
1374
1372
1374
1371
1374
1371
1374
1371
1372
1372
1366
1372
1372
1372
1372
1376
1374
1374
1372
1372
1374
1374
1374
1376
1374
1376
1372
1376
1376
1376
1376
1377
1376
1379
1376
1376
1377
1372
1376
1376
1376
1377
1372
1376
1376
1377
1376
1377
1377
1376
1376
1376
1377
1369
1376
1376
1377
1376
1376
1377
1377
1377
1379
1376
1377
1376
1376
1377
1377
1372
1376
1377
1377
1377
1377
1377
1377
1376
1379
1379
1379
1379
1377
1379
1377
1379
1379
1383
1381
1381
1383
1379
1383
1379
1383
1384
1377
1386
1386
1386
1388
1383
1388
1393
1394
1393
1393
1399
1394
1394
1394
1393
1383
1389
1388
1388
1388
1384
1384
1381
1383
1384
1381
1381
1384
1386
1384
1384
1383
1386
1386
1386
1388
1388
1388
1389
1389
1394
1399
1415
1445
1483
1523
1560
1574
1569
1562
1540
1479
1377
1321
1338
1355
1360
1369
1369
1383
1384
1389
1389
1391
1394
1393
1393
1394
1393
1393
1393
1394
1394
1398
1391
1396
1399
1396
1394
1394
1396
1398
1399
1398
1398
1398
1399
1399
1398
1401
1405
1405
1406
1406
1405
1405
1406
1410
1410
1410
1411
1416
1415
1415
1416
1413
1418
1421
1420
1421
1423
1425
1428
1427
1430
1428
1430
1437
1432
1432
1432
1432
1433
1432
1430
1427
1428
1425
1423
1423
1418
1416
1410
1411
1403
1398
1394
1391
1386
1383
1379
1377
1371
1374
1369
1369
1369
1371
1372
1372
1374
1377
1379
1383
1386
1386
1388
1391
1391
1393
1386
1391
1393
1394
1394
1393
1394
1394
1394
1394
1393
1403
1394
1394
1394
1398
1388
1394
1393
1393
1394
1393
1394
1393
1393
1393
1394
1391
1389
1391
1389
1389
1386
1389
1389
1388
1389
1386
1386
1384
1383
1386
1386
1383
1381
1383
1383
1383
1379
1381
1383
1383
1381
1383
1379
1379
1377
1377
1379
1371
1379
1377
1377
1377
1376
1377
1377
1377
1379
1377
1376
1376
1377
1377
1376
1369
1376
1376
1376
1377
1377
1376
1376
1376
1376
1376
1376
1377
1376
1376
1376
1372
1374
1376
1376
1377
1376
1376
1377
1377
1376
1376
1371
1376
1376
1376
1377
1372
1376
1372
1376
1376
1376
1377
1376
1376
1376
1376
1369
1372
1372
1374
1374
1374
1376
1374
1376
1376
1376
1372
1372
1377
1376
1376
1369
1376
1374
1376
1376
1374
1372
1374
1376
1376
1377
1377
1376
1376
1376
1376
1374
1376
1377
1376
1376
1376
1376
1372
1376
1376
1376
1367
1377
1376
1376
1377
1374
1376
1376
1376
1376
1377
1381
1376
1376
1376
1376
1369
1376
1376
1376
1376
1377
1377
1376
1377
1376
1376
1376
1376
1376
1376
1376
1372
1376
1377
1376
1376
1379
1376
1379
1377
1377
1379
1377
1379
1379
1379
1379
1377
1379
1381
1379
1379
1379
1379
1381
1383
1383
1383
1372
1383
1379
1381
1384
1379
1383
1383
1383
1384
1386
1384
1384
1386
1386
1386
1386
1393
1394
1393
1393
1391
1393
1394
1394
1393
1389
1389
1389
1388
1384
1384
1383
1383
1386
1384
1381
1383
1381
1384
1383
1386
1386
1379
1386
1386
1389
1388
1389
1388
1389
1393
1403
1418
1454
1491
1527
1560
1572
1572
1564
1547
1493
1398
1327
1333
1350
1359
1364
1374
1379
1383
1384
1386
1391
1388
1393
1393
1391
1394
1393
1394
1393
1394
1393
1393
1393
1394
1396
1394
1398
1393
1396
1398
1396
1394
1396
1399
1398
1399
1401
1398
1406
1401
1403
1403
1403
1405
1403
1405
1405
1405
1406
1406
1406
1410
1410
1410
1418
1415
1416
1416
1416
1416
1420
1420
1421
1423
1423
1423
1425
1425
1425
1425
1430
1423
1423
1423
1421
1418
1415
1415
1411
1410
1405
1403
1399
1394
1391
1388
1379
1381
1376
1374
1371
1372
1371
1371
1369
1369
1372
1366
1372
1377
1381
1383
1381
1384
1386
1386
1388
1389
1388
1389
1389
1391
1391
1384
1393
1394
1391
1393
1393
1394
1394
1394
1393
1393
1393
1391
1391
1393
1393
1389
1393
1393
1389
1389
1389
1389
1389
1389
1389
1388
1381
1386
1384
1384
1386
1383
1386
1384
1381
1383
1384
1386
1383
1383
1383
1383
1376
1379
1381
1379
1379
1377
1379
1379
1379
1379
1377
1376
1376
1379
1376
1379
1371
1377
1377
1377
1377
1377
1376
1376
1376
1376
1379
1377
1377
1377
1377
1377
1376
1376
1379
1377
1377
1379
1376
1376
1376
1379
1376
1371
1377
1377
1377
1377
1374
1377
1377
1377
1376
1377
1383
1377
1376
1377
1377
1371
1377
1377
1377
1377
1377
1377
1377
1377
1379
1377
1377
1377
1377
1377
1379
1377
1377
1377
1377
1379
1376
1377
1377
1379
1377
1381
1379
1379
1377
1379
1379
1377
1379
1379
1379
1379
1379
1381
1383
1381
1381
1379
1372
1381
1379
1383
1383
1381
1381
1383
1383
1383
1381
1381
1383
1381
1379
1381
1376
1383
1384
1384
1384
1384
1389
1386
1389
1391
1393
1393
1394
1398
1396
1394
1393
1394
1394
1393
1394
1389
1389
1386
1384
1384
1386
1381
1384
1384
1383
1383
1383
1384
1386
1384
1386
1386
1393
1388
1389
1388
1389
1384
1389
1391
1394
1408
1437
1472
1511
1554
1576
1574
1566
1555
1503
1410
1330
1325
1345
1355
1362
1367
1377
1383
1389
1386
1389
1394
1393
1394
1394
1394
1396
1396
1396
1398
1396
1398
1398
1398
1398
1399
1401
1398
1405
1399
1401
1401
1399
1403
1403
1403
1405
1405
1403
1405
1406
1406
1406
1406
1415
1410
1410
1411
1413
1411
1415
1416
1420
1416
1418
1420
1421
1423
1425
1425
1430
1430
1432
1432
1430
1433
1433
1433
1435
1432
1432
1435
1430
1430
1428
1425
1423
1420
1418
1413
1410
1408
1403
1398
1394
1389
1388
1374
1379
1379
1379
1376
1372
1374
1376
1376
1376
1379
1383
1383
1386
1384
1389
1383
1391
1391
1391
1393
1393
1393
1393
1394
1393
1394
1393
1393
1393
1394
1394
1394
1394
1393
1393
1393
1393
1394
1393
1393
1391
1393
1384
1391
1393
1389
1391
1388
1388
1389
1389
1388
1389
1391
1386
1386
1384
1386
1381
1384
1384
1384
1381
1383
1383
1383
1383
1383
1383
1383
1379
1381
1379
1381
1376
1383
1379
1383
1379
1381
1377
1379
1379
1379
1379
1377
1379
1379
1379
1379
1376
1377
1377
1379
1379
1383
1379
1379
1379
1379
1379
1371
1379
1379
1377
1379
1377
1379
1379
1379
1383
1379
1381
1381
1379
1377
1377
1372
1379
1377
1377
1377
1379
1377
1377
1379
1377
1377
1376
1377
1379
1379
1377
1376
1377
1377
1377
1381
1377
1381
1379
1379
1377
1381
1377
1379
1377
1379
1379
1377
1379
1377
1379
1377
1379
1381
1379
1383
1379
1383
1372
1381
1379
1379
1383
1379
1379
1381
1381
1383
1379
1379
1379
1379
1381
1384
1376
1383
1384
1386
1386
1386
1389
1389
1388
1391
1393
1389
1388
1388
1386
1388
1386
1391
1389
1389
1386
1384
1383
1383
1381
1383
1383
1376
1384
1384
1384
1383
1381
1384
1384
1384
1386
1388
1394
1389
1389
1393
1393
1405
1405
1423
1452
1484
1518
1560
1571
1567
1557
1535
1479
1386
1328
1333
1349
1355
1367
1371
1383
1388
1393
1394
1394
1398
1399
1398
1399
1403
1401
1403
1403
1406
1405
1406
1406
1405
1406
1408
1406
1410
1405
1405
1413
1406
1406
1406
1406
1410
1408
1408
1408
1411
1408
1411
1413
1415
1415
1413
1421
1418
1418
1416
1420
1418
1420
1423
1423
1425
1425
1425
1427
1428
1430
1430
1432
1432
1433
1432
1433
1432
1433
1432
1432
1430
1427
1430
1425
1423
1420
1413
1413
1410
1405
1399
1394
1391
1386
1383
1381
1379
1377
1369
1372
1374
1376
1377
1376
1379
1381
1383
1384
1386
1389
1389
1391
1394
1393
1388
1393
1398
1394
1398
1398
1398
1396
1396
1396
1394
1398
1398
1399
1399
1396
1399
1398
1398
1399
1398
1398
1398
1398
1398
1396
1396
1388
1394
1393
1394
1394
1391
1393
1393
1393
1391
1391
1396
1391
1393
1389
1391
1383
1389
1386
1388
1388
1388
1388
1388
1386
1384
1386
1384
1384
1384
1386
1384
1381
1383
1384
1384
1383
1384
1383
1384
1386
1384
1384
1383
1386
1383
1384
1384
1381
1383
1384
1386
1381
1383
1383
1383
1383
1381
1384
1376
1383
1383
1381
1383
1379
1381
1383
1381
1381
1381
1384
1383
1383
1383
1381
1377
1381
1383
1383
1383
1381
1383
1381
1383
1381
1383
1383
1383
1379
1383
1383
1379
1383
1379
1383
1383
1383
1383
1379
1383
1379
1383
1383
1383
1381
1383
1381
1379
1383
1379
1383
1383
1383
1383
1383
1383
1381
1383
1376
1383
1381
1381
1383
1381
1381
1383
1383
1383
1383
1383
1381
1383
1381
1384
1376
1383
1383
1384
1381
1384
1383
1384
1384
1384
1386
1383
1381
1384
1386
1383
1383
1386
1384
1383
1384
1384
1383
1384
1386
1384
1386
1377
1386
1384
1384
1386
1383
1388
1386
1386
1386
1388
1393
1386
1386
1388
1388
1381
1388
1389
1389
1389
1389
1386
1386
1386
1389
1389
1389
1386
1388
1386
1389
1383
1386
1388
1386
1384
1386
1386
1389
1388
1386
1386
1386
1386
1388
1388
1386
1384
1384
1384
1384
1386
1388
1388
1388
1386
1388
1388
1381
1389
1389
1389
1393
1391
1393
1393
1391
1393
1394
1398
1399
1399
1398
1394
1406
1403
1403
1405
1399
1399
1403
1405
1403
1403
1398
1398
1396
1393
1391
1393
1389
1393
1391
1389
1388
1389
1391
1393
1394
1393
1393
1394
1391
1394
1394
1394
1393
1398
1398
1403
1421
1452
1493
1537
1572
1581
1576
1574
1549
1486
1379
1330
1345
1360
1369
1376
1381
1389
1393
1393
1394
1398
1399
1405
1398
1399
1399
1399
1398
1399
1401
1401
1399
1399
1403
1403
1403
1403
1399
1405
1403
1403
1403
1405
1403
1405
1405
1405
1405
1405
1415
1408
1408
1410
1406
1410
1410
1410
1411
1413
1411
1413
1416
1416
1416
1416
1423
1421
1421
1423
1423
1425
1425
1427
1428
1428
1427
1430
1430
1427
1427
1427
1432
1425
1423
1421
1418
1415
1413
1410
1406
1401
1398
1393
1389
1386
1383
1383
1377
1377
1374
1374
1374
1374
1376
1377
1377
1379
1383
1377
1386
1386
1391
1389
1391
1393
1394
1394
1394
1396
1394
1396
1396
1398
1394
1405
1398
1398
1398
1398
1398
1399
1399
1401
1398
1398
1396
1399
1398
1398
1396
1399
1398
1396
1394
1396
1393
1394
1393
1391
1391
1391
1388
1389
1389
1388
1389
1386
1388
1386
1386
1384
1386
1384
1384
1384
1384
1384
1376
1381
1381
1383
1383
1383
1383
1383
1379
1383
1383
1381
1379
1379
1379
1381
1371
1379
1379
1379
1381
1379
1379
1383
1383
1383
1383
1381
1383
1379
1383
1383
1379
1379
1379
1383
1381
1383
1383
1381
1379
1383
1379
1374
1379
1379
1379
1383
1379
1379
1379
1377
1379
1379
1386
1383
1379
1381
1383
1374
1377
1377
1379
1377
1377
1381
1383
1379
1379
1379
1379
1379
1379
1381
1381
1377
1381
1379
1381
1379
1377
1379
1379
1383
1377
1383
1381
1383
1379
1383
1383
1377
1381
1383
1383
1383
1379
1383
1379
1379
1381
1383
1376
1383
1381
1379
1383
1381
1381
1383
1383
1383
1386
1383
1386
1383
1381
1383
1376
1383
1386
1384
1383
1383
1381
1381
1381
1383
1384
1383
1383
1384
1384
1384
1383
1384
1383
1384
1384
1384
1384
1384
1384
1384
1386
1381
1383
1384
1386
1383
1381
1383
1386
1383
1384
1384
1386
1386
1386
1386
1386
1379
1384
1384
1386
1386
1384
1386
1386
1386
1386
1384
1386
1386
1386
1388
1389
1383
1386
1389
1391
1391
1393
1394
1394
1396
1394
1396
1394
1394
1393
1391
1393
1391
1393
1393
1393
1391
1389
1386
1389
1388
1386
1388
1381
1386
1389
1389
1389
1386
1389
1391
1391
1393
1394
1399
1394
1396
1398
1399
1415
1425
1455
1489
1525
1560
1576
1572
1562
1545
1494
1403
1337
1338
1352
1364
1367
1377
1384
1391
1394
1398
1398
1401
1401
1401
1399
1403
1403
1405
1405
1403
1406
1405
1403
1403
1405
1403
1406
1406
1405
1405
1405
1411
1405
1408
1406
1410
1410
1408
1411
1411
1411
1410
1413
1413
1416
1416
1416
1421
1416
1416
1416
1418
1420
1423
1423
1425
1423
1425
1425
1428
1430
1430
1430
1435
1433
1435
1437
1435
1432
1437
1433
1432
1432
1430
1432
1425
1421
1420
1416
1413
1410
1403
1399
1394
1393
1386
1384
1383
1379
1376
1367
1372
1371
1372
1372
1372
1376
1377
1379
1383
1386
1384
1386
1388
1391
1389
1386
1393
1394
1393
1396
1396
1396
1398
1399
1398
1398
1399
1401
1399
1398
1398
1399
1398
1399
1398
1399
1398
1398
1401
1398
1396
1394
1405
1398
1396
1398
1398
1393
1394
1393
1393
1393
1394
1398
1393
1391
1391
1393
1384
1389
1388
1389
1388
1389
1388
1389
1386
1388
1386
1384
1386
1386
1388
1386
1381
1384
1386
1384
1386
1384
1384
1386
1386
1388
1386
1386
1386
1384
1384
1388
1381
1384
1384
1384
1384
1384
1384
1384
1384
1381
1383
1376
1383
1384
1383
1384
1383
1383
1384
1384
1384
1386
1383
1383
1381
1381
1384
1379
1383
1384
1383
1381
1384
1381
1383
1383
1383
1384
1384
1383
1383
1383
1384
1381
1383
1383
1384
1384
1384
1383
1383
1386
1383
1384
1383
1386
1384
1386
1388
1381
1383
1381
1384
1386
1386
1386
1386
1386
1384
1388
1379
1386
1388
1386
1388
1384
1386
1386
1388
1389
1389
1386
1389
1393
1393
1393
1388
1394
1394
1398
1398
1398
1396
1394
1398
1399
1396
1394
1393
1393
1391
1391
1388
1389
1389
1386
1386
1386
1386
1386
1384
1384
1389
1381
1388
1388
1389
1391
1389
1391
1394
1393
1393
1396
1411
1430
1466
1503
1545
1571
1572
1566
1554
1521
1433
1340
1332
1350
1360
1369
1374
1383
1389
1391
1393
1394
1399
1399
1399
1398
1398
1398
1399
1398
1399
1399
1399
1403
1401
1398
1399
1403
1403
1403
1403
1405
1405
1405
1405
1405
1405
1403
1413
1406
1410
1408
1408
1408
1411
1413
1411
1413
1415
1416
1418
1418
1418
1420
1425
1423
1423
1423
1423
1425
1428
1427
1427
1432
1430
1432
1437
1435
1437
1437
1435
1437
1435
1432
1430
1427
1427
1423
1423
1420
1413
1416
1406
1403
1398
1394
1391
1391
1386
1384
1383
1384
1384
1383
1386
1383
1386
1379
1389
1391
1393
1394
1394
1396
1398
1398
1399
1398
1401
1399
1399
1401
1401
1405
1403
1403
1403
1403
1403
1403
1403
1401
1403
1403
1401
1401
1403
1399
1398
1399
1399
1401
1401
1399
1398
1398
1394
1394
1394
1396
1388
1394
1394
1393
1394
1391
1393
1391
1391
1393
1391
1398
1391
1393
1389
1389
1383
1389
1389
1389
1389
1388
1388
1388
1388
1386
1388
1386
1388
1389
1386
1388
1383
1389
1386
1386
1388
1389
1388
1386
1386
1384
1388
1384
1388
1384
1384
1386
1384
1384
1384
1386
1388
1389
1384
1386
1388
1386
1389
1383
1386
1389
1386
1389
1386
1389
1386
1386
1386
1386
1384
1384
1386
1384
1386
1379
1386
1386
1384
1386
1384
1386
1384
1386
1386
1386
1384
1386
1386
1386
1384
1384
1384
1386
1384
1386
1384
1384
1386
1386
1388
1386
1383
1386
1386
1384
1388
1386
1388
1389
1386
1389
1389
1389
1388
1389
1388
1389
1383
1388
1388
1388
1386
1389
1388
1386
1386
1389
1388
1388
1386
1389
1388
1389
1381
1388
1388
1389
1391
1389
1389
1388
1388
1388
1389
1388
1386
1388
1388
1388
1386
1389
1389
1389
1391
1391
1389
1388
1391
1389
1389
1383
1393
1391
1391
1391
1388
1389
1391
1393
1389
1393
1394
1393
1391
1391
1391
1384
1391
1393
1391
1393
1393
1393
1391
1391
1391
1391
1391
1393
1393
1393
1394
1389
1391
1391
1393
1393
1393
1394
1394
1393
1393
1394
1394
1393
1393
1394
1394
1393
1396
1396
1398
1399
1398
1398
1399
1405
1406
1405
1411
1403
1403
1406
1405
1405
1403
1399
1401
1394
1396
1393
1393
1394
1393
1393
1388
1393
1394
1393
1394
1394
1394
1394
1396
1398
1396
1399
1401
1403
1405
1410
1425
1450
1481
1520
1554
1572
1571
1564
1545
1498
1406
1337
1340
1357
1367
1376
1379
1389
1393
1398
1399
1399
1405
1403
1403
1403
1403
1408
1405
1405
1406
1403
1406
1405
1405
1405
1405
1405
1408
1410
1410
1408
1406
1415
1411
1413
1411
1411
1413
1411
1411
1413
1415
1411
1413
1415
1416
1420
1418
1421
1420
1421
1423
1423
1425
1425
1427
1428
1428
1427
1438
1432
1435
1437
1437
1438
1438
1437
1437
1437
1437
1435
1435
1433
1432
1427
1430
1423
1420
1416
1410
1405
1399
1399
1393
1389
1384
1383
1377
1376
1376
1374
1371
1374
1376
1377
1379
1383
1384
1384
1386
1391
1393
1393
1394
1396
1394
1398
1399
1399
1401
1398
1399
1399
1401
1398
1401
1399
1401
1408
1401
1401
1399
1399
1401
1401
1401
1399
1399
1398
1401
1399
1398
1398
1394
1403
1398
1394
1396
1396
1394
1393
1394
1394
1394
1394
1393
1393
1391
1391
1391
1389
1391
1393
1391
1393
1388
1389
1388
1389
1389
1386
1383
1386
1386
1386
1386
1384
1386
1386
1384
1386
1386
1389
1388
1386
1384
1384
1377
1383
1383
1384
1384
1386
1386
1384
1384
1384
1386
1384
1386
1386
1384
1386
1379
1386
1384
1386
1388
1386
1386
1386
1386
1386
1388
1388
1388
1389
1389
1389
1384
1386
1386
1386
1386
1388
1388
1386
1388
1386
1386
1379
1386
1386
1386
1386
1384
1386
1386
1386
1386
1388
1389
1386
1386
1389
1391
1383
1386
1389
1388
1389
1389
1393
1388
1389
1389
1389
1388
1386
1388
1389
1388
1386
1388
1388
1388
1389
1386
1389
1389
1389
1389
1394
1396
1393
1394
1394
1396
1398
1401
1401
1403
1399
1401
1399
1399
1399
1399
1394
1403
1394
1393
1388
1389
1388
1389
1389
1386
1388
1389
1388
1389
1389
1389
1389
1383
1393
1393
1394
1393
1394
1394
1393
1398
1410
1435
1472
1513
1555
1576
1574
1569
1557
1513
1413
1333
1332
1352
1359
1369
1372
1384
1384
1389
1391
1393
1396
1394
1398
1398
1394
1396
1396
1403
1396
1399
1398
1398
1406
1399
1399
1403
1403
1403
1403
1405
1406
1405
1403
1405
1410
1406
1406
1408
1413
1410
1406
1406
1405
1410
1410
1410
1411
1415
1415
1415
1418
1420
1416
1420
1421
1423
1425
1425
1425
1427
1427
1430
1432
1432
1432
1438
1432
1432
1433
1432
1430
1430
1427
1425
1423
1420
1418
1415
1413
1406
1403
1405
1396
1393
1389
1388
1384
1383
1383
1383
1381
1386
1384
1386
1388
1389
1394
1391
1394
1396
1398
1399
1398
1399
1401
1401
1401
1403
1406
1406
1405
1405
1403
1405
1406
1406
1405
1405
1405
1406
1405
1405
1403
1403
1410
1405
1406
1405
1403
1403
1403
1399
1399
1401
1399
1399
1399
1398
1398
1398
1403
1396
1396
1396
1396
1394
1394
1394
1393
1394
1394
1394
1394
1394
1394
1394
1393
1393
1394
1393
1394
1399
1399
1401
1401
1398
1399
1406
1398
1398
1399
1396
1398
1394
1399
1396
1394
1394
1394
1393
1391
1391
1389
1383
1389
1389
1391
1389
1389
1389
1389
1391
1393
1393
1393
1393
1393
1394
1398
1393
1399
1398
1398
1398
1410
1432
1471
1511
1555
1584
1583
1579
1566
1520
1416
1328
1328
1345
1357
1366
1372
1383
1389
1391
1393
1396
1406
1401
1401
1401
1398
1401
1399
1401
1403
1401
1401
1399
1401
1403
1403
1399
1408
1403
1403
1405
1403
1405
1406
1406
1406
1406
1406
1410
1408
1411
1410
1410
1416
1411
1415
1415
1413
1416
1418
1420
1420
1421
1421
1425
1427
1427
1430
1430
1432
1433
1432
1437
1435
1437
1438
1440
1438
1438
1433
1442
1432
1432
1430
1428
1425
1423
1420
1415
1411
1405
1403
1399
1396
1393
1391
1383
1386
1383
1386
1384
1386
1386
1389
1388
1391
1394
1389
1393
1393
1393
1394
1393
1398
1396
1394
1394
1394
1394
1394
1394
1394
1394
1403
1394
1394
1398
1394
1393
1394
1398
1394
1394
1394
1399
1393
1393
1391
1394
1383
1393
1391
1389
1389
1388
1388
1389
1386
1386
1389
1386
1388
1386
1386
1386
1379
1386
1386
1386
1384
1386
1383
1384
1384
1384
1386
1381
1381
1383
1381
1383
1379
1383
1379
1383
1383
1383
1381
1379
1383
1377
1379
1372
1379
1379
1381
1377
1376
1379
1377
1379
1379
1383
1381
1381
1379
1381
1379
1372
1377
1377
1379
1377
1379
1381
1377
1379
1379
1377
1377
1379
1377
1379
1379
1376
1379
1377
1377
1377
1377
1379
1379
1379
1379
1377
1379
1379
1379
1383
1379
1377
1377
1377
1377
1379
1379
1379
1377
1377
1379
1383
1372
1383
1379
1377
1377
1377
1379
1381
1379
1381
1383
1383
1381
1383
1379
1383
1376
1383
1383
1383
1381
1383
1383
1383
1379
1383
1383
1383
1379
1383
1383
1383
1379
1383
1383
1383
1383
1383
1381
1383
1381
1383
1386
1376
1381
1383
1384
1383
1383
1383
1381
1383
1381
1386
1391
1383
1384
1383
1384
1377
1384
1383
1384
1386
1386
1384
1386
1383
1384
1384
1384
1386
1384
1386
1386
1383
1384
1384
1386
1386
1388
1389
1386
1386
1386
1386
1386
1386
1389
1386
1388
1386
1388
1389
1389
1389
1393
1389
1389
1389
1389
1391
1381
1391
1389
1393
1391
1391
1393
1393
1393
1394
1394
1396
1394
1394
1394
1398
1406
1405
1405
1403
1399
1401
1405
1406
1403
1403
1398
1399
1396
1394
1393
1394
1393
1394
1394
1393
1394
1394
1396
1394
1398
1399
1399
1401
1399
1401
1398
1399
1403
1403
1410
1423
1450
1489
1527
1569
1586
1583
1579
1571
1513
1415
1335
1340
1359
1371
1379
1386
1391
1394
1399
1398
1399
1403
1401
1410
1403
1405
1406
1405
1405
1405
1406
1406
1405
1405
1406
1406
1406
1408
1406
1410
1406
1408
1408
1410
1410
1411
1410
1410
1411
1410
1418
1413
1415
1413
1413
1416
1416
1418
1418
1418
1416
1420
1421
1421
1423
1425
1432
1427
1430
1428
1430
1430
1433
1435
1432
1432
1432
1432
1433
1432
1432
1432
1437
1430
1427
1425
1423
1420
1418
1415
1410
1406
1399
1399
1394
1389
1386
1386
1383
1383
1381
1383
1381
1381
1381
1384
1386
1393
1393
1386
1394
1398
1399
1399
1403
1403
1405
1405
1406
1406
1406
1410
1410
1410
1410
1415
1410
1408
1408
1410
1408
1410
1410
1410
1410
1406
1410
1410
1410
1408
1405
1410
1406
1405
1405
1403
1401
1403
1399
1401
1399
1398
1401
1399
1399
1396
1394
1398
1396
1398
1394
1394
1394
1396
1393
1394
1393
1393
1386
1393
1393
1391
1393
1389
1393
1391
1389
1389
1393
1389
1391
1389
1389
1391
1384
1388
1389
1389
1386
1386
1389
1389
1388
1388
1389
1388
1386
1386
1384
1386
1384
1386
1388
1386
1389
1388
1384
1386
1388
1388
1388
1381
1386
1388
1388
1386
1384
1388
1389
1386
1388
1388
1394
1386
1388
1388
1386
1383
1386
1388
1386
1386
1384
1384
1388
1389
1388
1388
1386
1386
1386
1388
1389
1383
1388
1386
1389
1388
1389
1386
1388
1386
1389
1388
1386
1388
1389
1388
1389
1386
1386
1386
1388
1386
1388
1388
1389
1386
1388
1386
1383
1386
1386
1389
1389
1386
1388
1389
1389
1389
1391
1388
1388
1389
1389
1389
1383
1389
1389
1389
1388
1389
1389
1389
1389
1389
1391
1386
1388
1389
1389
1389
1389
1389
1391
1389
1389
1391
1391
1391
1391
1391
1393
1389
1391
1391
1391
1394
1388
1393
1391
1393
1393
1393
1391
1393
1393
1394
1393
1388
1391
1393
1393
1391
1393
1394
1393
1394
1393
1394
1393
1393
1393
1393
1393
1386
1394
1393
1393
1394
1391
1394
1394
1398
1398
1396
1401
1401
1399
1399
1403
1406
1406
1406
1405
1403
1401
1405
1403
1401
1399
1396
1406
1398
1396
1394
1394
1393
1393
1394
1394
1398
1396
1405
1398
1398
1398
1396
1406
1401
1401
1403
1403
1403
1405
1411
1430
1462
1499
1542
1577
1589
1589
1583
1567
1510
1411
1345
1349
1364
1372
1379
1388
1391
1399
1398
1401
1403
1405
1406
1410
1410
1408
1406
1408
1406
1408
1408
1408
1411
1410
1418
1411
1411
1410
1410
1408
1410
1411
1410
1411
1411
1413
1413
1413
1413
1413
1420
1416
1416
1415
1413
1416
1418
1420
1418
1420
1421
1423
1423
1425
1425
1427
1432
1432
1432
1433
1437
1437
1437
1437
1437
1433
1435
1438
1437
1437
1435
1432
1433
1430
1427
1425
1423
1421
1418
1415
1413
1406
1401
1403
1394
1391
1389
1386
1386
1383
1379
1379
1379
1383
1383
1386
1386
1391
1393
1386
1394
1398
1398
1399
1399
1399
1403
1403
1403
1403
1405
1406
1405
1406
1406
1406
1410
1410
1410
1405
1408
1406
1406
1406
1408
1405
1413
1406
1405
1405
1405
1406
1405
1403
1403
1401
1399
1403
1403
1401
1401
1401
1405
1403
1401
1399
1399
1399
1399
1398
1398
1398
1396
1396
1396
1394
1393
1394
1389
1391
1393
1393
1393
1394
1393
1393
1391
1391
1393
1389
1391
1393
1391
1391
1386
1389
1388
1389
1389
1389
1389
1391
1391
1389
1391
1383
1389
1389
1389
1389
1388
1389
1391
1389
1389
1393
1388
1389
1388
1389
1389
1383
1388
1389
1389
1389
1391
1389
1389
1389
1389
1388
1389
1391
1389
1388
1391
1389
1391
1389
1393
1391
1389
1393
1389
1391
1391
1393
1388
1391
1391
1391
1393
1389
1391
1393
1391
1391
1391
1393
1393
1394
1394
1394
1386
1393
1396
1399
1403
1405
1405
1403
1401
1403
1403
1403
1399
1398
1394
1394
1386
1391
1391
1389
1391
1389
1388
1389
1388
1388
1389
1388
1389
1389
1391
1393
1391
1394
1393
1394
1394
1399
1401
1408
1423
1452
1486
1530
1562
1581
1577
1567
1549
1494
1401
1332
1332
1345
1366
1369
1377
1384
1391
1389
1396
1398
1403
1403
1405
1405
1405
1405
1405
1403
1405
1406
1406
1406
1406
1411
1410
1410
1410
1408
1410
1411
1410
1411
1411
1411
1413
1413
1411
1415
1413
1416
1416
1418
1420
1420
1421
1423
1423
1423
1425
1423
1437
1430
1430
1430
1432
1433
1437
1437
1438
1438
1440
1444
1445
1447
1445
1444
1450
1445
1445
1447
1444
1440
1440
1438
1435
1432
1430
1427
1423
1420
1411
1406
1405
1399
1394
1393
1389
1384
1383
1381
1383
1381
1383
1377
1384
1386
1386
1391
1389
1393
1391
1393
1396
1398
1403
1399
1399
1398
1399
1406
1401
1399
1399
1399
1403
1403
1401
1399
1399
1398
1399
1399
1401
1399
1399
1406
1401
1399
1398
1398
1396
1399
1398
1398
1394
1394
1393
1394
1391
1393
1389
1389
1391
1391
1391
1389
1389
1388
1386
1388
1386
1389
1379
1386
1384
1386
1386
1383
1384
1384
1388
1386
1388
1391
1383
1383
1383
1383
1374
1383
1383
1381
1381
1383
1383
1379
1383
1381
1383
1381
1383
1379
1379
1379
1376
1379
1377
1379
1379
1379
1379
1381
1379
1379
1379
1377
1381
1379
1383
1379
1379
1379
1377
1377
1381
1379
1377
1377
1381
1379
1379
1371
1377
1377
1379
1379
1376
1379
1379
1377
1379
1379
1383
1379
1381
1379
1381
1372
1383
1383
1379
1377
1381
1379
1383
1381
1381
1383
1381
1379
1379
1379
1383
1377
1383
1379
1383
1381
1381
1379
1381
1379
1379
1383
1377
1379
1379
1379
1383
1379
1381
1379
1383
1381
1383
1381
1381
1383
1383
1384
1376
1383
1383
1384
1384
1381
1383
1383
1383
1383
1384
1381
1384
1381
1384
1381
1377
1383
1383
1381
1383
1383
1381
1384
1384
1383
1383
1381
1384
1384
1384
1386
1383
1386
1384
1386
1386
1386
1386
1384
1384
1386
1386
1377
1386
1386
1384
1386
1384
1386
1388
1386
1388
1386
1393
1388
1389
1388
1386
1383
1386
1389
1386
1388
1386
1386
1388
1388
1389
1389
1386
1386
1386
1389
1388
1388
1391
1388
1388
1391
1389
1388
1391
1391
1393
1394
1394
1394
1394
1394
1394
1394
1401
1405
1405
1403
1399
1401
1401
1403
1401
1399
1405
1396
1394
1393
1393
1389
1391
1388
1389
1391
1389
1389
1389
1391
1389
1393
1386
1393
1393
1394
1398
1398
1394
1394
1394
1401
1416
1450
1493
1538
1574
1583
1583
1576
1557
1496
1388
1328
1340
1359
1367
1372
1381
1381
1389
1393
1394
1394
1396
1396
1398
1394
1396
1396
1398
1398
1398
1398
1398
1403
1396
1398
1399
1399
1403
1403
1401
1401
1403
1399
1403
1403
1403
1403
1403
1410
1406
1406
1408
1406
1410
1410
1410
1410
1413
1411
1411
1411
1413
1413
1415
1416
1416
1418
1421
1420
1423
1423
1425
1425
1425
1425
1437
1430
1430
1430
1427
1430
1428
1428
1428
1425
1421
1418
1416
1413
1410
1405
1410
1398
1394
1389
1386
1384
1383
1377
1376
1376
1376
1372
1374
1377
1377
1379
1379
1384
1386
1389
1391
1393
1394
1398
1396
1394
1396
1399
1399
1399
1399
1399
1401
1399
1399
1401
1401
1403
1403
1403
1401
1403
1399
1406
1399
1403
1399
1399
1401
1399
1401
1398
1394
1398
1393
1394
1394
1393
1393
1386
1391
1393
1389
1391
1391
1391
1389
1391
1389
1389
1386
1388
1386
1386
1388
1384
1386
1386
1386
1386
1386
1383
1386
1384
1383
1386
1377
1383
1383
1383
1383
1383
1384
1383
1383
1384
1383
1386
1383
1383
1383
1383
1372
1379
1381
1381
1381
1379
1381
1379
1383
1383
1383
1383
1383
1383
1383
1379
1374
1379
1383
1379
1381
1379
1379
1377
1379
1383
1383
1381
1383
1381
1383
1383
1381
1383
1383
1383
1383
1384
1384
1386
1384
1384
1384
1377
1386
1384
1384
1381
1383
1383
1383
1379
1383
1381
1384
1383
1383
1381
1383
1374
1383
1381
1379
1379
1383
1379
1381
1381
1383
1383
1383
1383
1383
1386
1384
1383
1384
1386
1383
1381
1383
1383
1383
1381
1383
1383
1383
1381
1383
1383
1383
1379
1383
1381
1383
1383
1384
1383
1384
1383
1383
1386
1377
1383
1383
1384
1383
1381
1383
1381
1384
1386
1386
1383
1384
1384
1386
1386
1383
1386
1384
1386
1386
1386
1384
1386
1388
1386
1389
1389
1388
1389
1386
1389
1386
1389
1389
1389
1391
1393
1393
1393
1391
1394
1394
1389
1393
1394
1399
1399
1405
1403
1399
1399
1401
1403
1399
1399
1398
1396
1396
1384
1391
1389
1389
1391
1391
1389
1388
1389
1389
1389
1389
1391
1391
1391
1393
1389
1393
1394
1394
1396
1401
1413
1438
1477
1516
1557
1583
1588
1583
1569
1532
1445
1349
1325
1344
1357
1367
1374
1383
1388
1391
1394
1389
1401
1399
1398
1398
1401
1401
1399
1401
1401
1399
1401
1403
1403
1403
1401
1410
1406
1405
1406
1405
1405
1406
1405
1406
1406
1410
1408
1410
1413
1410
1408
1415
1411
1413
1416
1415
1416
1418
1416
1418
1420
1421
1423
1425
1427
1428
1425
1430
1432
1432
1432
1437
1437
1442
1440
1442
1440
1438
1445
1440
1440
1442
1438
1438
1437
1437
1432
1427
1425
1423
1418
1413
1408
1403
1403
1393
1389
1386
1386
1383
1379
1377
1377
1377
1377
1381
1381
1383
1384
1386
1388
1391
1393
1393
1394
1394
1394
1398
1398
1399
1398
1408
1403
1401
1401
1399
1399
1399
1399
1399
1403
1398
1398
1399
1403
1401
1401
1406
1399
1399
1399
1398
1398
1396
1396
1398
1394
1396
1393
1394
1394
1393
1393
1388
1393
1393
1393
1394
1393
1389
1391
1389
1389
1391
1389
1391
1388
1389
1388
1384
1389
1389
1386
1388
1389
1388
1388
1388
1386
1388
1379
1388
1386
1386
1386
1384
1386
1386
1386
1384
1384
1389
1388
1388
1384
1384
1379
1386
1386
1384
1386
1386
1386
1384
1384
1386
1386
1384
1384
1384
1386
1386
1381
1384
1386
1384
1384
1386
1386
1386
1386
1386
1384
1386
1386
1388
1389
1389
1389
1394
1391
1393
1393
1391
1393
1394
1399
1398
1398
1403
1396
1399
1399
1398
1398
1394
1393
1391
1389
1386
1386
1384
1386
1384
1386
1377
1384
1386
1386
1386
1389
1388
1388
1389
1389
1391
1393
1394
1394
1398
1401
1416
1432
1462
1498
1533
1569
1583
1576
1566
1535
1469
1371
1327
1333
1347
1359
1364
1372
1381
1389
1391
1394
1401
1399
1399
1398
1394
1405
1399
1399
1401
1398
1399
1399
1401
1403
1401
1403
1403
1403
1403
1403
1403
1410
1405
1403
1405
1405
1405
1406
1410
1406
1408
1410
1411
1411
1410
1411
1413
1416
1415
1418
1416
1416
1418
1420
1421
1421
1423
1423
1432
1427
1428
1427
1430
1432
1433
1433
1435
1433
1430
1432
1433
1430
1430
1427
1432
1423
1421
1413
1411
1406
1405
1399
1394
1393
1389
1384
1383
1377
1376
1376
1371
1374
1376
1377
1379
1379
1381
1383
1386
1389
1391
1391
1391
1393
1393
1394
1394
1394
1398
1398
1399
1399
1398
1399
1401
1399
1399
1406
1403
1403
1403
1401
1405
1403
1403
1403
1403
1401
1403
1403
1401
1403
1401
1405
1399
1399
1398
1398
1398
1399
1394
1393
1394
1393
1396
1398
1396
1398
1398
1394
1398
1399
1399
1401
1405
1403
1403
1401
1401
1403
1406
1399
1394
1394
1393
1388
1386
1384
1386
1384
1386
1389
1383
1383
1383
1386
1377
1384
1383
1384
1386
1386
1386
1386
1388
1389
1389
1389
1386
1386
1389
1408
1442
1481
1525
1572
1591
1588
1584
1567
1511
1398
1316
1323
1340
1352
1362
1369
1376
1384
1386
1389
1393
1393
1394
1394
1393
1393
1394
1386
1394
1394
1396
1399
1394
1398
1398
1399
1396
1396
1398
1399
1399
1398
1398
1405
1399
1401
1399
1398
1403
1405
1403
1403
1405
1403
1405
1406
1405
1408
1406
1411
1410
1413
1413
1413
1415
1418
1416
1416
1416
1418
1423
1423
1423
1425
1425
1427
1425
1423
1425
1423
1423
1423
1421
1420
1416
1411
1416
1408
1405
1399
1394
1393
1391
1389
1386
1383
1383
1379
1379
1379
1381
1381
1376
1381
1384
1384
1386
1386
1388
1388
1391
1391
1393
1391
1391
1389
1389
1389
1388
1389
1389
1391
1389
1389
1389
1388
1388
1388
1389
1383
1388
1386
1386
1386
1384
1386
1386
1384
1384
1386
1389
1381
1383
1381
1381
1374
1383
1381
1381
1379
1377
1377
1379
1377
1377
1377
1377
1377
1376
1376
1379
1372
1377
1376
1379
1376
1377
1377
1376
1376
1377
1376
1377
1376
1377
1374
1374
1372
1374
1374
1374
1376
1376
1376
1376
1374
1374
1376
1369
1376
1377
1377
1377
1376
1376
1376
1374
1376
1377
1376
1376
1376
1377
1376
1369
1377
1376
1374
1376
1377
1376
1376
1377
1376
1377
1376
1376
1374
1376
1376
1372
1374
1377
1374
1374
1374
1374
1374
1372
1377
1374
1374
1374
1376
1372
1374
1372
1376
1374
1374
1372
1376
1374
1376
1374
1374
1376
1367
1372
1376
1374
1372
1372
1376
1374
1374
1376
1376
1374
1374
1376
1374
1377
1371
1377
1376
1376
1377
1376
1374
1376
1376
1376
1377
1377
1376
1377
1376
1374
1371
1376
1377
1377
1379
1379
1377
1377
1377
1377
1376
1371
1377
1377
1379
1381
1377
1379
1379
1377
1377
1383
1386
1379
1381
1383
1383
1374
1381
1379
1383
1383
1381
1381
1383
1383
1381
1383
1379
1383
1383
1381
1383
1377
1381
1383
1381
1384
1381
1381
1383
1384
1383
1384
1384
1383
1381
1381
1383
1383
1383
1386
1384
1384
1386
1386
1384
1386
1389
1386
1377
1388
1389
1386
1391
1391
1391
1391
1393
1394
1393
1391
1393
1398
1401
1403
1408
1398
1399
1399
1399
1396
1396
1394
1393
1393
1391
1386
1386
1388
1389
1388
1384
1388
1389
1389
1391
1388
1388
1389
1391
1391
1394
1393
1393
1394
1393
1403
1420
1455
1498
1545
1584
1593
1588
1581
1555
1481
1369
1320
1344
1359
1366
1372
1383
1386
1388
1391
1393
1396
1394
1398
1393
1394
1394
1386
1394
1394
1396
1396
1398
1394
1396
1394
1394
1394
1394
1398
1398
1398
1398
1401
1398
1399
1398
1398
1401
1401
1403
1403
1403
1401
1408
1405
1405
1406
1405
1410
1410
1410
1411
1410
1411
1413
1416
1416
1416
1418
1423
1423
1420
1421
1420
1423
1421
1423
1425
1423
1421
1421
1420
1418
1416
1416
1418
1410
1410
1405
1398
1396
1394
1389
1386
1383
1379
1377
1376
1376
1372
1374
1372
1376
1379
1381
1379
1383
1384
1388
1389
1391
1393
1388
1394
1394
1398
1394
1394
1398
1399
1399
1399
1398
1398
1399
1399
1398
1394
1403
1398
1398
1398
1394
1394
1396
1398
1394
1396
1394
1393
1393
1391
1393
1391
1388
1389
1389
1389
1388
1389
1388
1386
1384
1386
1386
1381
1384
1386
1383
1383
1383
1383
1383
1381
1379
1381
1379
1379
1381
1377
1379
1372
1379
1379
1379
1377
1377
1377
1379
1379
1377
1377
1377
1379
1377
1377
1381
1374
1377
1377
1379
1379
1379
1377
1381
1379
1377
1379
1377
1377
1377
1377
1379
1376
1377
1377
1377
1377
1377
1377
1377
1377
1377
1377
1369
1376
1377
1376
1376
1376
1374
1376
1376
1376
1374
1381
1372
1376
1374
1374
1369
1376
1374
1376
1372
1376
1372
1376
1376
1376
1376
1374
1372
1374
1374
1376
1371
1376
1374
1374
1374
1376
1372
1371
1376
1376
1376
1376
1376
1376
1374
1374
1372
1376
1376
1376
1376
1376
1377
1376
1376
1376
1377
1371
1377
1381
1379
1376
1377
1377
1377
1376
1379
1376
1377
1377
1377
1377
1379
1376
1379
1379
1379
1377
1379
1379
1379
1377
1381
1383
1383
1383
1383
1383
1383
1381
1384
1381
1384
1384
1383
1384
1384
1386
1383
1384
1383
1381
1383
1381
1384
1379
1383
1383
1383
1381
1384
1386
1384
1384
1388
1386
1383
1388
1389
1389
1389
1389
1391
1396
1398
1398
1398
1394
1398
1399
1398
1396
1389
1393
1389
1388
1386
1386
1384
1384
1384
1386
1383
1381
1384
1386
1386
1386
1386
1389
1389
1389
1391
1389
1391
1393
1399
1403
1416
1452
1481
1518
1562
1581
1581
1571
1552
1498
1401
1330
1337
1349
1359
1367
1376
1376
1388
1393
1391
1394
1398
1398
1396
1399
1394
1396
1398
1399
1401
1399
1398
1405
1403
1405
1403
1405
1403
1401
1403
1405
1405
1405
1406
1406
1408
1405
1405
1410
1410
1410
1408
1410
1411
1413
1413
1415
1416
1416
1423
1421
1423
1423
1423
1425
1425
1427
1428
1430
1430
1433
1437
1435
1437
1435
1444
1438
1438
1437
1438
1437
1438
1433
1432
1430
1425
1423
1421
1415
1410
1405
1403
1396
1393
1386
1383
1381
1377
1372
1374
1372
1374
1369
1372
1376
1377
1381
1383
1388
1388
1389
1391
1393
1394
1396
1396
1398
1398
1405
1399
1399
1401
1398
1399
1403
1399
1401
1399
1401
1399
1403
1403
1401
1401
1406
1399
1399
1401
1399
1399
1398
1399
1398
1396
1398
1398
1396
1394
1394
1394
1393
1394
1394
1394
1394
1393
1394
1394
1393
1393
1391
1383
1393
1391
1389
1389
1389
1389
1388
1388
1389
1386
1391
1388
1386
1384
1388
1381
1386
1388
1388
1386
1389
1386
1389
1386
1386
1388
1386
1388
1384
1386
1384
1383
1386
1384
1386
1384
1386
1384
1384
1383
1386
1386
1381
1386
1386
1384
1388
1383
1384
1384
1386
1386
1386
1386
1386
1386
1386
1384
1377
1381
1384
1383
1384
1383
1386
1386
1388
1389
1388
1386
1389
1391
1393
1393
1389
1398
1399
1398
1394
1396
1396
1399
1393
1391
1388
1386
1386
1383
1386
1386
1384
1386
1383
1383
1383
1384
1383
1386
1386
1386
1389
1386
1386
1388
1389
1391
1388
1391
1389
1394
1406
1438
1479
1525
1566
1583
1581
1583
1566
1523
1423
1328
1323
1344
1354
1364
1372
1379
1384
1386
1389
1389
1394
1391
1394
1394
1396
1394
1396
1394
1399
1396
1396
1394
1399
1399
1399
1398
1398
1399
1399
1401
1403
1401
1403
1403
1403
1403
1403
1401
1408
1405
1405
1405
1405
1410
1410
1410
1410
1410
1410
1415
1413
1413
1413
1415
1421
1418
1418
1423
1423
1423
1425
1425
1427
1427
1425
1427
1427
1427
1427
1425
1428
1423
1423
1420
1416
1413
1413
1410
1405
1399
1394
1394
1389
1386
1386
1383
1377
1379
1377
1377
1379
1383
1383
1384
1384
1386
1389
1383
1389
1389
1391
1391
1393
1394
1393
1393
