-159
-160
-157
-154
-151
-149
-146
-146
-148
-148
-143
-137
-139
-145
-148
-150
-148
-146
-148
-152
-156
-155
-154
-154
-157
-160
-162
-165
-166
-165
-165
-165
-165
-169
-166
-163
-162
-163
-165
-165
-164
-160
-149
-131
-110
-95
-71
-47
-32
-6
17
31
21
-45
-116
-180
-242
-284
-300
-296
-275
-255
-231
-211
-194
-184
-179
-180
-182
-180
-179
-180
-178
-178
-178
-180
-179
-179
-180
-180
-182
-180
-179
-178
-180
-180
-182
-180
-180
-180
-183
-183
-182
-185
-184
-186
-185
-187
-185
-185
-188
-187
-188
-188
-187
-186
-184
-185
-188
-185
-182
-180
-180
-177
-173
-171
-168
-164
-156
-151
-145
-140
-133
-131
-126
-126
-126
-124
-124
-124
-122
-127
-133
-134
-134
-133
-137
-139
-140
-141
-144
-147
-149
-150
-148
-146
-145
-148
-149
-150
-150
-153
-155
-155
-154
-153
-153
-153
-151
-153
-151
-151
-152
-153
-153
-154
-155
-153
-153
-156
-157
-158
-156
-155
-156
-153
-151
-151
-153
-156
-154
-154
-168
-165
-160
-159
-157
-157
-158
-156
-154
-156
-157
-155
-154
-153
-154
-156
-156
-157
-155
-154
-154
-153
-151
-150
-148
-146
-144
-144
-144
-146
-141
-134
-133
-136
-141
-141
-143
-142
-144
-148
-148
-146
-145
-145
-145
-147
-148
-153
-159
-164
-160
-160
-160
-161
-163
-163
-163
-160
-160
-159
-159
-157
-156
-145
-128
-109
-88
-67
-44
-29
-1
18
31
20
-40
-104
-166
-238
-281
-289
-287
-269
-247
-223
-203
-190
-182
-175
-172
-172
-175
-174
-173
-174
-174
-175
-178
-175
-175
-172
-172
-174
-177
-178
-177
-177
-177
-176
-178
-179
-182
-182
-177
-178
-180
-178
-179
-182
-182
-184
-183
-182
-183
-183
-183
-186
-188
-187
-184
-183
-186
-184
-182
-183
-179
-174
-170
-167
-164
-157
-150
-146
-141
-138
-132
-128
-122
-122
-122
-121
-122
-125
-128
-131
-134
-136
-136
-139
-141
-143
-145
-145
-146
-146
-145
-146
-146
-148
-148
-148
-151
-153
-153
-151
-151
-154
-153
-154
-156
-156
-156
-155
-156
-155
-154
-155
-157
-156
-155
-159
-159
-159
-157
-156
-158
-156
-153
-157
-158
-157
-160
-159
-159
-159
-157
-157
-157
-156
-155
-153
-157
-157
-160
-158
-157
-156
-158
-159
-158
-156
-155
-156
-156
-158
-160
-159
-156
-148
-146
-148
-148
-148
-145
-145
-139
-134
-133
-140
-144
-149
-148
-145
-148
-153
-153
-150
-150
-150
-153
-155
-160
-162
-163
-162
-162
-162
-162
-160
-160
-162
-158
-162
-165
-162
-162
-160
-148
-129
-114
-92
-67
-44
-34
-9
14
28
30
-10
-82
-155
-218
-272
-290
-295
-282
-261
-237
-212
-194
-184
-182
-179
-179
-177
-177
-177
-179
-177
-185
-185
-179
-179
-180
-177
-175
-177
-179
-178
-179
-175
-180
-182
-182
-180
-183
-180
-182
-183
-185
-183
-184
-187
-189
-189
-186
-188
-191
-188
-188
-189
-189
-189
-189
-186
-184
-185
-184
-183
-178
-175
-172
-169
-162
-157
-149
-144
-137
-133
-128
-128
-124
-123
-124
-126
-127
-128
-131
-131
-133
-136
-140
-140
-141
-144
-146
-146
-148
-148
-150
-150
-151
-150
-150
-153
-155
-152
-153
-153
-156
-157
-159
-159
-157
-156
-157
-159
-159
-156
-159
-159
-160
-157
-156
-157
-157
-159
-159
-158
-156
-157
-156
-157
-159
-159
-159
-159
-156
-157
-156
-159
-159
-156
-159
-159
-159
-160
-159
-157
-156
-160
-159
-156
-157
-160
-160
-159
-160
-159
-157
-157
-156
-151
-148
-146
-146
-146
-145
-143
-139
-139
-142
-145
-149
-149
-145
-146
-151
-151
-149
-150
-151
-156
-161
-162
-165
-163
-163
-161
-163
-163
-166
-165
-164
-162
-162
-163
-162
-160
-157
-148
-134
-120
-99
-74
-52
-35
-7
17
29
36
-11
-78
-151
-214
-269
-296
-304
-285
-265
-238
-214
-194
-185
-180
-181
-180
-179
-179
-179
-178
-179
-180
-181
-180
-181
-179
-179
-179
-179
-179
-179
-178
-179
-179
-179
-179
-179
-179
-183
-185
-185
-183
-185
-185
-188
-188
-188
-189
-189
-188
-186
-188
-188
-190
-189
-188
-185
-184
-183
-182
-179
-177
-175
-169
-165
-158
-151
-146
-140
-137
-135
-131
-124
-124
-126
-127
-127
-128
-129
-133
-133
-136
-138
-139
-141
-144
-146
-148
-146
-148
-147
-148
-148
-151
-152
-149
-153
-153
-154
-155
-155
-153
-154
-155
-154
-154
-156
-157
-157
-157
-154
-151
-153
-154
-157
-156
-155
-156
-155
-155
-155
-158
-159
-157
-159
-157
-169
-162
-159
-162
-159
-159
-157
-157
-157
-159
-159
-157
-157
-156
-157
-157
-159
-157
-157
-157
-160
-159
-159
-158
-156
-156
-156
-156
-154
-151
-149
-148
-144
-143
-146
-145
-139
-136
-138
-139
-145
-148
-144
-143
-147
-151
-153
-150
-150
-149
-151
-151
-155
-160
-163
-166
-165
-165
-161
-163
-162
-165
-162
-162
-163
-162
-161
-160
-147
-131
-117
-93
-69
-49
-33
-9
11
29
30
-20
-95
-165
-223
-279
-296
-290
-276
-253
-230
-208
-191
-184
-180
-179
-177
-175
-177
-177
-179
-177
-177
-178
-177
-175
-176
-178
-180
-180
-180
-178
-178
-180
-180
-182
-182
-183
-185
-183
-182
-182
-183
-183
-185
-186
-186
-185
-186
-186
-186
-187
-185
-189
-192
-192
-192
-189
-188
-184
-182
-183
-181
-177
-172
-165
-159
-154
-150
-145
-140
-136
-131
-128
-127
-127
-125
-126
-124
-126
-131
-133
-138
-137
-139
-139
-143
-146
-146
-148
-151
-150
-149
-147
-148
-153
-155
-156
-156
-155
-154
-154
-156
-156
-157
-156
-160
-159
-160
-159
-157
-157
-157
-159
-159
-160
-160
-160
-160
-159
-159
-160
-162
-162
-163
-163
-165
-160
-160
-160
-160
-160
-159
-159
-159
-159
-157
-159
-160
-160
-159
-159
-158
-160
-160
-160
-157
-159
-160
-160
-160
-160
-160
-160
-159
-154
-150
-150
-148
-148
-150
-149
-146
-143
-142
-143
-147
-150
-150
-149
-149
-153
-154
-153
-151
-154
-156
-158
-160
-165
-163
-165
-163
-165
-164
-163
-163
-165
-165
-163
-165
-163
-162
-159
-152
-137
-116
-97
-77
-55
-37
-9
14
30
40
4
-68
-136
-208
-270
-295
-298
-284
-264
-240
-214
-187
-172
-173
-175
-177
-178
-179
-180
-179
-179
-180
-179
-179
-179
-179
-179
-178
-179
-182
-182
-182
-183
-182
-182
-184
-186
-187
-186
-183
-186
-187
-187
-186
-189
-188
-188
-185
-186
-186
-189
-194
-194
-192
-192
-192
-192
-191
-189
-186
-178
-182
-179
-175
-172
-163
-160
-154
-147
-142
-137
-131
-127
-125
-125
-127
-128
-128
-130
-132
-135
-134
-136
-140
-144
-146
-145
-145
-148
-150
-153
-153
-151
-150
-151
-153
-154
-154
-155
-154
-154
-154
-154
-153
-157
-157
-159
-159
-160
-159
-160
-157
-158
-160
-160
-160
-160
-160
-159
-159
-157
-157
-160
-159
-159
-159
-159
-159
-159
-157
-157
-157
-160
-160
-159
-156
-156
-157
-160
-159
-158
-160
-160
-159
-156
-158
-157
-157
-160
-157
-155
-159
-158
-159
-157
-153
-151
-152
-147
-148
-148
-148
-145
-138
-137
-139
-143
-145
-145
-144
-145
-148
-154
-153
-149
-150
-154
-157
-160
-165
-165
-165
-165
-166
-166
-165
-165
-163
-163
-164
-163
-161
-162
-160
-154
-141
-125
-102
-80
-58
-37
-14
9
28
38
5
-66
-137
-204
-261
-298
-295
-290
-270
-246
-223
-202
-189
-184
-180
-183
-181
-177
-178
-177
-180
-179
-180
-182
-183
-181
-180
-181
-180
-178
-179
-182
-179
-180
-181
-178
-180
-180
-183
-183
-183
-185
-185
-181
-180
-185
-185
-187
-187
-184
-186
-189
-189
-189
-191
-192
-188
-189
-184
-184
-183
-180
-177
-174
-168
-163
-159
-153
-146
-142
-136
-134
-130
-126
-126
-127
-126
-125
-126
-129
-131
-135
-136
-136
-142
-143
-145
-144
-146
-148
-148
-150
-150
-148
-149
-152
-152
-153
-151
-153
-151
-151
-154
-156
-156
-156
-156
-156
-147
-145
-150
-153
-153
-155
-156
-157
-156
-156
-156
-156
-158
-157
-157
-157
-157
-159
-157
-156
-158
-159
-155
-157
-159
-159
-160
-158
-160
-158
-156
-157
-160
-159
-160
-160
-160
-156
-156
-154
-155
-155
-156
-160
-158
-155
-153
-153
-151
-151
-152
-149
-146
-145
-146
-144
-140
-140
-140
-141
-145
-144
-144
-145
-148
-154
-151
-147
-150
-153
-156
-157
-161
-163
-165
-163
-163
-165
-163
-162
-163
-162
-162
-160
-163
-160
-160
-156
-140
-126
-102
-82
-61
-39
-17
8
23
38
6
-64
-140
-199
-263
-293
-295
-283
-265
-240
-215
-197
-185
-183
-181
-180
-180
-183
-179
-178
-173
-180
-177
-183
-180
-180
-182
-180
-180
-180
-182
-182
-181
-180
-183
-184
-182
-183
-184
-184
-185
-184
-186
-187
-188
-188
-189
-189
-189
-189
-191
-192
-194
-194
-192
-189
-188
-188
-186
-186
-184
-179
-173
-174
-170
-165
-160
-153
-148
-141
-133
-128
-128
-126
-127
-127
-127
-127
-125
-126
-131
-136
-139
-140
-140
-142
-145
-146
-148
-150
-148
-148
-151
-152
-154
-155
-154
-154
-158
-159
-160
-160
-159
-157
-160
-157
-159
-162
-160
-160
-160
-162
-160
-160
-160
-160
-160
-160
-159
-160
-160
-160
-160
-159
-157
-159
-160
-160
-159
-160
-160
-160
-159
-160
-160
-161
-162
-160
-161
-162
-162
-160
-158
-160
-160
-160
-160
-160
-160
-160
-162
-160
-160
-157
-157
-157
-154
-151
-150
-149
-150
-148
-149
-140
-137
-143
-148
-150
-149
-146
-148
-153
-152
-154
-153
-151
-153
-156
-157
-162
-165
-166
-166
-165
-166
-165
-165
-165
-165
-166
-164
-165
-163
-162
-159
-147
-125
-105
-82
-69
-56
-32
-1
18
35
28
-41
-119
-188
-248
-290
-301
-292
-273
-250
-226
-204
-192
-188
-184
-183
-179
-175
-182
-183
-180
-180
-178
-178
-180
-183
-183
-183
-184
-184
-183
-184
-183
-183
-185
-185
-186
-184
-186
-186
-186
-186
-186
-186
-185
-187
-189
-192
-194
-194
-192
-193
-191
-192
-192
-192
-189
-189
-189
-190
-189
-185
-180
-181
-176
-170
-163
-156
-148
-145
-140
-138
-134
-130
-128
-127
-128
-129
-129
-131
-136
-137
-140
-142
-143
-145
-148
-149
-149
-149
-151
-150
-154
-154
-154
-156
-154
-156
-155
-156
-160
-159
-157
-157
-160
-161
-162
-160
-157
-159
-159
-159
-160
-160
-159
-157
-160
-160
-162
-161
-161
-160
-160
-160
-160
-157
-162
-161
-163
-164
-165
-163
-163
-162
-160
-159
-160
-161
-162
-160
-160
-159
-160
-160
-160
-160
-160
-161
-160
-162
-160
-163
-161
-162
-160
-159
-156
-153
-150
-148
-146
-148
-150
-145
-141
-142
-145
-150
-151
-149
-146
-151
-155
-156
-155
-154
-156
-153
-159
-165
-167
-166
-165
-166
-165
-166
-165
-167
-166
-167
-167
-168
-165
-167
-165
-156
-142
-122
-101
-81
-58
-39
-10
13
29
34
-12
-81
-157
-223
-272
-291
-291
-281
-264
-243
-218
-202
-189
-188
-186
-186
-184
-183
-184
-183
-183
-184
-181
-180
-179
-180
-184
-185
-184
-185
-184
-185
-186
-184
-186
-185
-185
-184
-185
-186
-186
-186
-189
-189
-187
-185
-186
-189
-191
-192
-194
-192
-192
-194
-193
-192
-193
-192
-191
-187
-186
-183
-180
-177
-173
-166
-162
-153
-148
-139
-135
-135
-133
-129
-128
-128
-130
-130
-131
-134
-134
-137
-141
-143
-144
-145
-146
-148
-150
-153
-154
-154
-151
-154
-154
-165
-185
-177
-172
-168
-163
-161
-160
-159
-161
-163
-160
-160
-159
-162
-162
-159
-160
-162
-163
-163
-163
-160
-159
-160
-160
-160
-162
-163
-160
-160
-160
-160
-162
-162
-163
-160
-160
-159
-162
-163
-160
-160
-160
-162
-160
-160
-161
-160
-157
-157
-157
-158
-160
-161
-162
-160
-160
-159
-157
-159
-159
-157
-152
-151
-149
-150
-151
-152
-148
-145
-141
-144
-150
-154
-153
-151
-153
-154
-157
-156
-155
-154
-155
-160
-163
-167
-170
-171
-167
-165
-166
-169
-168
-167
-169
-170
-166
-167
-169
-165
-160
-148
-133
-108
-90
-67
-42
-23
2
21
33
21
-47
-120
-186
-237
-287
-289
-292
-272
-247
-226
-206
-194
-189
-188
-184
-182
-183
-183
-180
-180
-183
-184
-184
-183
-183
-180
-180
-182
-186
-185
-184
-185
-184
-183
-189
-189
-189
-188
-188
-189
-189
-189
-191
-192
-189
-189
-189
-192
-194
-194
-194
-194
-195
-192
-194
-195
-195
-191
-189
-188
-184
-183
-179
-175
-169
-163
-160
-153
-148
-143
-135
-128
-124
-126
-127
-128
-130
-130
-131
-136
-139
-139
-140
-145
-148
-151
-151
-150
-154
-152
-153
-153
-156
-156
-156
-158
-159
-157
-156
-158
-160
-160
-160
-159
-159
-160
-162
-161
-160
-161
-162
-163
-162
-160
-162
-163
-162
-163
-165
-163
-163
-165
-162
-160
-160
-161
-165
-165
-163
-163
-163
-162
-163
-162
-162
-162
-159
-161
-162
-164
-163
-163
-162
-160
-162
-160
-160
-163
-163
-160
-160
-159
-160
-160
-160
-159
-154
-152
-151
-151
-150
-147
-146
-144
-141
-143
-144
-146
-149
-146
-148
-149
-155
-155
-151
-151
-154
-157
-161
-165
-165
-163
-165
-165
-175
-173
-170
-167
-166
-166
-165
-166
-165
-162
-156
-141
-126
-102
-81
-58
-37
-11
15
29
38
13
-55
-127
-195
-253
-294
-302
-295
-273
-250
-220
-201
-189
-184
-184
-184
-183
-182
-182
-182
-180
-181
-180
-179
-180
-182
-183
-180
-180
-180
-180
-179
-179
-182
-183
-183
-183
-184
-184
-185
-185
-188
-188
-189
-188
-188
-188
-189
-189
-191
-191
-189
-191
-191
-192
-192
-191
-189
-189
-189
-185
-183
-181
-175
-172
-165
-159
-154
-150
-143
-139
-134
-130
-128
-129
-127
-127
-128
-131
-134
-136
-136
-139
-140
-142
-148
-148
-150
-149
-150
-150
-150
-153
-153
-152
-150
-151
-154
-156
-157
-159
-156
-158
-157
-156
-157
-156
-157
-157
-157
-157
-159
-160
-160
-160
-160
-160
-157
-159
-159
-159
-157
-160
-157
-159
-158
-160
-160
-158
-158
-160
-160
-160
-159
-159
-156
-158
-158
-158
-159
-159
-160
-160
-160
-157
-159
-159
-159
-157
-160
-159
-159
-159
-158
-155
-155
-154
-148
-148
-146
-146
-147
-148
-145
-142
-139
-140
-143
-150
-150
-148
-146
-148
-152
-154
-152
-151
-154
-158
-159
-160
-163
-163
-165
-165
-165
-165
-165
-167
-165
-168
-165
-164
-162
-164
-160
-149
-127
-106
-83
-64
-44
-26
1
21
35
20
-51
-117
-183
-245
-279
-291
-285
-266
-243
-218
-198
-188
-183
-180
-179
-179
-178
-180
-179
-179
-178
-179
-179
-177
-179
-180
-179
-179
-184
-184
-182
-181
-179
-182
-180
-180
-179
-180
-182
-180
-184
-184
-185
-185
-183
-183
-185
-188
-189
-189
-189
-188
-189
-189
-189
-188
-188
-186
-184
-181
-177
-174
-170
-167
-164
-156
-149
-144
-139
-134
-139
-117
-110
-114
-117
-121
-124
-128
-131
-134
-133
-134
-137
-140
-140
-144
-145
-146
-146
-150
-151
-151
-148
-149
-151
-151
-153
-151
-154
-156
-156
-156
-156
-156
-155
-156
-157
-156
-159
-157
-157
-156
-154
-155
-156
-157
-157
-157
-157
-155
-155
-156
-157
-159
-159
-156
-157
-158
-157
-157
-157
-158
-156
-157
-159
-157
-157
-156
-156
-158
-157
-157
-158
-159
-156
-154
-155
-156
-156
-158
-159
-157
-157
-154
-153
-148
-146
-148
-146
-146
-144
-142
-139
-137
-145
-148
-149
-148
-145
-146
-150
-151
-154
-151
-153
-155
-154
-157
-160
-160
-163
-162
-163
-164
-163
-162
-162
-163
-160
-164
-163
-162
-160
-154
-134
-122
-96
-70
-47
-30
-4
15
29
38
-6
-76
-149
-212
-262
-294
-296
-281
-257
-234
-212
-196
-188
-182
-178
-178
-183
-181
-179
-179
-179
-177
-175
-178
-180
-179
-178
-180
-180
-182
-179
-181
-182
-182
-183
-183
-183
-183
-184
-185
-183
-184
-189
-189
-187
-188
-185
-188
-191
-194
-194
-194
-193
-193
-191
-189
-189
-188
-189
-188
-185
-180
-179
-174
-170
-163
-156
-150
-143
-139
-135
-131
-131
-130
-128
-127
-128
-130
-131
-134
-134
-136
-139
-140
-141
-143
-146
-148
-148
-149
-149
-151
-150
-153
-152
-152
-153
-152
-153
-157
-156
-155
-155
-156
-155
-157
-157
-159
-159
-159
-160
-160
-159
-159
-156
-158
-159
-161
-159
-157
-159
-157
-157
-156
-159
-159
-159
-158
-159
-159
-160
-159
-156
-155
-156
-156
-159
-159
-159
-160
-160
-159
-157
-159
-157
-157
-157
-156
-155
-153
-155
-159
-157
-156
-154
-150
-148
-145
-145
-147
-145
-139
-138
-136
-140
-144
-146
-145
-149
-168
-160
-159
-153
-153
-155
-156
-155
-158
-162
-163
-163
-161
-163
-163
-162
-162
-162
-161
-163
-163
-160
-158
-155
-150
-135
-114
-88
-70
-44
-27
3
21
38
36
-12
-83
-157
-220
-275
-288
-295
-279
-256
-232
-209
-194
-184
-184
-182
-180
-179
-179
-177
-179
-177
-175
-180
-180
-180
-177
-177
-177
-179
-175
-179
-182
-183
-183
-183
-185
-182
-182
-183
-185
-183
-185
-188
-185
-186
-188
-187
-187
-188
-189
-189
-189
-189
-188
-188
-188
-189
-189
-189
-187
-184
-179
-175
-172
-165
-160
-156
-152
-146
-140
-136
-127
-125
-127
-125
-124
-126
-126
-127
-131
-136
-135
-137
-141
-142
-144
-145
-145
-146
-148
-150
-150
-150
-150
-151
-153
-155
-153
-151
-151
-154
-156
-158
-159
-159
-160
-159
-158
-156
-155
-155
-160
-159
-158
-157
-154
-155
-156
-156
-156
-159
-157
-156
-156
-156
-156
-157
-156
-159
-158
-159
-158
-155
-155
-158
-157
-160
-159
-159
-158
-156
-155
-155
-157
-156
-155
-154
-154
-156
-155
-157
-157
-157
-157
-156
-149
-148
-146
-148
-146
-145
-144
-142
-136
-136
-139
-143
-148
-146
-145
-146
-150
-151
-150
-148
-153
-156
-157
-160
-160
-163
-162
-163
-165
-165
-162
-164
-163
-165
-163
-163
-160
-162
-160
-149
-133
-111
-92
-72
-50
-34
-5
19
33
34
-25
-94
-163
-227
-276
-290
-288
-276
-253
-226
-207
-192
-182
-179
-180
-178
-182
-177
-175
-175
-177
-177
-180
-179
-178
-178
-180
-180
-179
-177
-176
-177
-178
-180
-182
-180
-182
-182
-182
-179
-182
-182
-184
-184
-184
-184
-186
-189
-186
-188
-188
-188
-189
-185
-187
-188
-188
-186
-175
-176
-178
-175
-172
-170
-163
-158
-154
-148
-139
-137
-134
-128
-127
-125
-126
-127
-127
-127
-128
-131
-133
-134
-136
-140
-144
-145
-146
-146
-146
-148
-149
-151
-149
-149
-153
-155
-156
-155
-156
-156
-156
-156
-155
-154
-154
-155
-156
-157
-156
-157
-158
-160
-157
-157
-160
-159
-159
-160
-158
-157
-157
-157
-159
-156
-159
-157
-160
-158
-155
-157
-159
-159
-159
-160
-160
-160
-162
-160
-162
-160
-159
-160
-159
-160
-161
-162
-161
-162
-160
-160
-160
-160
-160
-157
-154
-151
-150
-150
-151
-150
-145
-140
-140
-144
-146
-149
-150
-146
-150
-153
-157
-159
-155
-154
-153
-159
-160
-165
-168
-166
-165
-160
-168
-168
-167
-166
-167
-168
-167
-167
-165
-163
-156
-139
-118
-97
-76
-53
-35
-5
15
30
36
-5
-81
-153
-215
-269
-290
-298
-280
-257
-236
-212
-198
-191
-184
-183
-184
-185
-185
-182
-182
-182
-182
-183
-182
-184
-185
-184
-185
-184
-184
-183
-185
-185
-185
-186
-188
-188
-185
-186
-185
-185
-184
-188
-189
-191
-192
-195
-194
-193
-193
-197
-195
-195
-196
-196
-197
-194
-194
-195
-192
-189
-184
-180
-172
-168
-164
-160
-154
-146
-143
-139
-134
-130
-130
-130
-129
-131
-132
-133
-137
-139
-141
-143
-144
-146
-150
-153
-153
-154
-153
-153
-153
-153
-155
-155
-156
-157
-155
-157
-157
-159
-157
-160
-161
-160
-159
-159
-160
-161
-161
-162
-161
-160
-160
-163
-160
-160
-160
-160
-161
-162
-160
-160
-163
-162
-162
-160
-161
-162
-160
-160
-160
-160
-160
-162
-163
-160
-161
-160
-160
-160
-162
-162
-160
-160
-160
-162
-160
-160
-159
-157
-161
-160
-154
-153
-151
-148
-149
-150
-148
-145
-139
-163
-189
-178
-170
-163
-155
-153
-156
-161
-157
-155
-156
-159
-160
-160
-164
-165
-166
-164
-165
-164
-165
-165
-165
-163
-166
-163
-162
-162
-160
-150
-133
-111
-87
-64
-43
-22
4
25
35
28
-33
-107
-166
-231
-275
-298
-296
-279
-256
-230
-209
-192
-186
-185
-183
-181
-183
-183
-179
-182
-180
-182
-180
-180
-182
-182
-182
-181
-180
-180
-182
-183
-183
-185
-184
-185
-186
-185
-185
-185
-186
-189
-188
-188
-189
-189
-191
-192
-193
-193
-191
-190
-191
-194
-194
-192
-191
-192
-189
-187
-183
-182
-177
-172
-167
-165
-158
-153
-148
-141
-133
-128
-127
-126
-127
-129
-131
-131
-132
-136
-138
-140
-143
-144
-146
-148
-149
-148
-151
-151
-153
-154
-155
-154
-153
-153
-154
-153
-155
-160
-160
-160
-161
-160
-160
-160
-160
-160
-160
-159
-162
-162
-160
-159
-160
-159
-159
-157
-157
-159
-160
-159
-159
-160
-160
-159
-159
-160
-162
-160
-162
-162
-160
-160
-158
-160
-160
-164
-162
-159
-160
-159
-162
-160
-162
-160
-160
-160
-159
-160
-160
-159
-160
-159
-154
-153
-151
-148
-151
-151
-151
-143
-139
-140
-142
-145
-150
-149
-148
-150
-151
-154
-154
-153
-156
-160
-159
-163
-165
-163
-165
-166
-166
-166
-166
-165
-165
-165
-167
-163
-163
-163
-163
-159
-143
-126
-102
-80
-56
-37
-18
4
23
33
2
-69
-140
-207
-267
-294
-302
-285
-263
-238
-215
-198
-189
-183
-182
-182
-181
-180
-180
-179
-178
-178
-179
-177
-178
-178
-179
-183
-178
-180
-180
-181
-180
-180
-180
-182
-180
-182
-185
-184
-186
-184
-186
-187
-187
-186
-186
-186
-189
-187
-192
-192
-192
-191
-188
-189
-188
-186
-187
-189
-185
-180
-179
-173
-168
-165
-158
-153
-147
-140
-136
-134
-132
-128
-129
-127
-127
-128
-131
-130
-133
-136
-139
-140
-145
-146
-147
-148
-149
-148
-147
-148
-150
-154
-153
-152
-153
-153
-156
-156
-156
-156
-157
-157
-156
-155
-155
-156
-160
-157
-160
-160
-160
-160
-160
-160
-162
-160
-160
-160
-163
-160
-160
-158
-160
-160
-159
-160
-158
-159
-157
-157
-160
-160
-159
-160
-162
-160
-162
-160
-160
-160
-160
-159
-159
-160
-160
-160
-160
-160
-160
-160
-159
-156
-156
-154
-153
-152
-151
-149
-148
-146
-144
-142
-143
-146
-151
-154
-151
-151
-151
-154
-155
-154
-154
-155
-160
-160
-165
-168
-169
-167
-167
-166
-165
-167
-166
-168
-166
-168
-167
-167
-165
-159
-141
-125
-100
-76
-56
-39
-14
9
28
38
9
-66
-137
-204
-259
-290
-298
-290
-269
-244
-221
-201
-190
-184
-186
-185
-183
-180
-180
-180
-180
-182
-183
-182
-183
-184
-182
-183
-184
-184
-183
-182
-185
-188
-188
-185
-186
-186
-186
-188
-189
-189
-189
-190
-192
-191
-190
-191
-194
-194
-194
-198
-198
-197
-196
-194
-196
-194
-193
-190
-186
-180
-180
-176
-170
-165
-160
-153
-149
-145
-139
-136
-132
-131
-132
-131
-130
-130
-131
-136
-137
-139
-142
-144
-146
-148
-146
-148
-151
-153
-151
-153
-154
-157
-154
-153
-154
-155
-154
-156
-162
-160
-159
-157
-160
-160
-159
-160
-160
-160
-160
-160
-159
-160
-160
-162
-160
-159
-160
-160
-159
-162
-160
-160
-160
-160
-162
-162
-160
-160
-162
-160
-157
-158
-157
-159
-159
-160
-160
-162
-160
-160
-162
-160
-160
-165
-165
-165
-164
-163
-161
-157
-157
-159
-155
-152
-153
-148
-144
-149
-151
-148
-143
-139
-145
-148
-151
-152
-148
-148
-151
-155
-155
-153
-153
-156
-159
-160
-161
-165
-165
-168
-166
-168
-165
-165
-165
-166
-166
-165
-167
-166
-163
-156
-142
-125
-99
-76
-52
-37
-9
14
29
38
-1
-72
-141
-208
-264
-293
-298
-282
-265
-240
-217
-197
-188
-185
-184
-180
-183
-182
-180
-180
-180
-177
-178
-180
-182
-180
-183
-184
-185
-184
-183
-184
-183
-183
-184
-184
-185
-187
-186
-189
-188
-189
-189
-189
-189
-190
-189
-189
-191
-192
-190
-192
-192
-192
-194
-197
-197
-192
-191
-187
-187
-185
-181
-175
-171
-165
-160
-154
-148
-141
-137
-134
-133
-131
-129
-131
-131
-134
-134
-136
-137
-138
-144
-147
-149
-148
-148
-153
-153
-153
-154
-154
-153
-152
-154
-156
-156
-157
-157
-157
-157
-159
-159
-160
-160
-160
-160
-160
-162
-160
-161
-160
-160
-163
-160
-160
-160
-163
-163
-162
-162
-161
-161
-162
-163
-160
-161
-163
-165
-162
-160
-159
-161
-163
-161
-165
-164
-163
-163
-165
-164
-160
-162
-165
-162
-162
-161
-162
-163
-163
-165
-163
-160
-159
-157
-156
-154
-154
-155
-153
-151
-151
-148
-144
-145
-149
-154
-154
-154
-153
-154
-154
-156
-154
-155
-157
-160
-162
-167
-168
-167
-172
-169
-166
-169
-169
-169
-170
-168
-169
-168
-169
-168
-165
-156
-137
-121
-95
-73
-53
-36
-10
12
27
26
-18
-90
-165
-221
-274
-293
-296
-279
-259
-233
-211
-197
-189
-185
-186
-186
-182
-184
-182
-183
-184
-182
-183
-183
-181
-183
-182
-185
-184
-185
-184
-183
-185
-183
-183
-183
-185
-188
-148
-156
-168
-175
-179
-183
-186
-188
-189
-192
-194
-196
-194
-194
-194
-194
-194
-195
-194
-194
-191
-191
-189
-185
-181
-176
-174
-165
-160
-154
-149
-142
-136
-133
-128
-128
-126
-127
-128
-131
-132
-136
-138
-140
-144
-146
-148
-150
-148
-150
-151
-153
-155
-156
-156
-156
-155
-156
-156
-157
-156
-157
-159
-159
-161
-160
-160
-162
-162
-164
-165
-163
-165
-163
-165
-162
-164
-163
-162
-161
-161
-164
-164
-165
-164
-162
-162
-165
-163
-166
-165
-164
-163
-164
-165
-163
-165
-165
-162
-162
-165
-163
-162
-163
-163
-164
-163
-163
-160
-162
-165
-165
-163
-163
-162
-160
-157
-155
-155
-156
-156
-155
-154
-151
-148
-146
-149
-154
-154
-153
-153
-153
-157
-160
-160
-159
-157
-160
-162
-166
-168
-171
-170
-170
-169
-171
-170
-172
-171
-168
-165
-169
-167
-170
-165
-156
-139
-119
-101
-76
-54
-32
-4
19
31
38
-6
-78
-150
-222
-273
-301
-304
-288
-269
-243
-221
-201
-193
-189
-187
-185
-186
-186
-186
-185
-186
-185
-186
-185
-185
-185
-185
-185
-188
-188
-189
-188
-187
-188
-189
-189
-192
-191
-191
-191
-192
-194
-194
-197
-196
-197
-199
-199
-199
-198
-198
-199
-197
-196
-201
-198
-198
-198
-194
-194
-192
-186
-186
-180
-178
-172
-165
-160
-153
-149
-143
-141
-136
-135
-131
-132
-133
-133
-135
-137
-138
-141
-144
-145
-150
-151
-151
-153
-150
-153
-153
-153
-156
-157
-157
-160
-162
-160
-157
-159
-160
-160
-160
-160
-160
-160
-163
-160
-162
-160
-160
-160
-160
-163
-163
-163
-160
-163
-163
-162
-160
-160
-160
-161
-162
-161
-160
-162
-163
-162
-160
-160
-173
-167
-167
-163
-163
-165
-163
-162
-163
-163
-163
-160
-162
-163
-160
-162
-162
-163
-161
-162
-162
-160
-160
-160
-155
-151
-151
-149
-149
-149
-148
-148
-145
-139
-145
-151
-153
-153
-153
-153
-154
-155
-154
-154
-153
-156
-159
-164
-166
-168
-166
-165
-165
-166
-165
-164
-165
-165
-167
-163
-165
-165
-162
-153
-137
-117
-95
-73
-46
-37
-7
14
31
37
-20
-93
-162
-230
-290
-299
-305
-286
-261
-237
-215
-200
-192
-188
-188
-185
-185
-185
-185
-185
-184
-185
-185
-183
-185
-185
-184
-183
-184
-186
-187
-185
-186
-187
-188
-186
-186
-189
-189
-190
-191
-190
-191
-191
-192
-195
-194
-195
-194
-196
-197
-195
-195
-196
-197
-194
-196
-197
-194
-192
-186
-183
-185
-179
-172
-169
-160
-156
-147
-143
-142
-138
-137
-136
-134
-132
-131
-135
-136
-140
-141
-145
-145
-145
-148
-151
-151
-151
-154
-153
-153
-156
-156
-156
-159
-160
-160
-159
-160
-160
-160
-161
-160
-163
-162
-163
-160
-160
-160
-163
-165
-165
-163
-163
-166
-165
-163
-163
-165
-163
-162
-160
-162
-163
-163
-165
-167
-165
-165
-166
-165
-162
-160
-163
-163
-165
-163
-165
-165
-165
-163
-164
-165
-165
-165
-163
-162
-163
-160
-161
-165
-164
-162
-163
-160
-156
-153
-153
-154
-154
-151
-150
-145
-142
-140
-146
-150
-155
-154
-151
-153
-156
-157
-154
-156
-157
-160
-160
-162
-165
-165
-166
-167
-163
-166
-166
-165
-168
-168
-169
-167
-165
-165
-161
-151
-131
-114
-91
-67
-45
-24
4
26
37
40
-21
-95
-171
-232
-279
-291
-294
-275
-255
-230
-208
-193
-187
-184
-183
-184
-182
-183
-183
-182
-179
-179
-178
-180
-180
-182
-180
-180
-185
-182
-185
-184
-185
-184
-185
-185
-185
-186
-185
-187
-188
-188
-187
-188
-189
-189
-192
-193
-192
-194
-194
-194
-195
-194
-194
-196
-196
-194
-189
-188
-186
-183
-180
-175
-171
-165
-159
-151
-145
-140
-137
-131
-128
-127
-125
-128
-129
-130
-133
-135
-140
-140
-139
-141
-145
-146
-148
-149
-149
-148
-150
-153
-153
-153
-153
-153
-156
-157
-159
-157
-157
-159
-160
-160
-159
-160
-160
-160
-163
-162
-163
-163
-161
-160
-160
-159
-160
-160
-160
-162
-160
-160
-160
-160
-160
-160
-160
-160
-160
-162
-160
-162
-163
-160
-159
-159
-161
-165
-163
-162
-162
-163
-163
-163
-159
-160
-161
-163
-163
-163
-161
-162
-163
-162
-159
-153
-154
-153
-153
-151
-151
-148
-144
-140
-143
-148
-155
-154
-151
-151
-151
-156
-156
-154
-155
-158
-163
-168
-169
-168
-169
-168
-168
-168
-170
-168
-166
-166
-168
-167
-166
-165
-166
-161
-144
-129
-106
-82
-63
-39
-15
9
26
40
20
-51
-132
-200
-264
-293
-298
-301
-278
-255
-229
-206
-194
-189
-188
-188
-186
-186
-186
-185
-185
-186
-185
-186
-188
-185
-185
-185
-187
-188
-186
-187
-188
-189
-187
-189
-189
-188
-189
-189
-189
-189
-188
-191
-194
-195
-194
-194
-194
-194
-196
-198
-198
-198
-198
-198
-198
-194
-196
-194
-192
-189
-184
-182
-175
-173
-167
-160
-153
-149
-145
-140
-134
-131
-131
-131
-131
-131
-132
-134
-137
-140
-143
-144
-148
-149
-149
-150
-153
-154
-155
-155
-156
-157
-157
-160
-159
-160
-160
-160
-158
-157
-160
-160
-159
-160
-160
-165
-165
-163
-163
-163
-161
-162
-162
-163
-164
-163
-162
-162
-160
-170
-179
-172
-168
-165
-165
-165
-165
-165
-163
-162
-162
-163
-162
-160
-160
-163
-162
-163
-163
-163
-163
-165
-165
-163
-162
-163
-162
-162
-162
-164
-161
-159
-163
-160
-156
-155
-154
-155
-151
-153
-148
-146
-145
-145
-149
-153
-155
-154
-150
-151
-156
-159
-157
-157
-159
-160
-162
-166
-166
-166
-168
-168
-168
-167
-169
-169
-169
-168
-168
-167
-168
-168
-167
-159
-140
-125
-101
-80
-59
-40
-14
9
26
31
-18
-90
-156
-222
-275
-295
-300
-281
-261
-236
-218
-201
-192
-191
-189
-185
-188
-186
-186
-186
-186
-186
-185
-185
-186
-189
-189
-189
-188
-186
-187
-189
-188
-189
-187
-188
-189
-191
-190
-191
-192
-195
-197
-194
-194
-196
-196
-200
-199
-198
-198
-202
-201
-199
-198
-199
-199
-201
-198
-194
-191
-189
-187
-182
-175
-171
-165
-160
-157
-151
-147
-140
-137
-136
-136
-134
-136
-136
-138
-139
-139
-144
-148
-148
-151
-153
-154
-155
-159
-160
-160
-160
-160
-163
-161
-163
-162
-163
-163
-163
-165
-165
-166
-168
-166
-166
-166
-163
-167
-168
-168
-169
-170
-169
-169
-169
-171
-169
-169
-170
-169
-170
-169
-172
-169
-167
-170
-170
-167
-167
-168
-169
-170
-168
-168
-167
-167
-167
-170
-169
-169
-168
-167
-168
-168
-170
-170
-167
-165
-167
-168
-167
-168
-169
-163
-160
-159
-157
-157
-156
-156
-156
-151
-148
-150
-155
-161
-162
-157
-157
-160
-163
-163
-160
-160
-165
-168
-170
-172
-172
-172
-173
-176
-174
-174
-173
-175
-175
-173
-172
-171
-170
-168
-163
-143
-127
-105
-81
-59
-39
-15
11
25
36
4
-67
-145
-205
-269
-296
-305
-291
-272
-249
-233
-188
-182
-184
-187
-188
-189
-189
-188
-189
-189
-191
-189
-189
-192
-190
-190
-189
-189
-189
-190
-192
-192
-191
-193
-192
-194
-193
-194
-193
-197
-194
-197
-197
-198
-200
-200
-201
-199
-203
-204
-204
-203
-202
-203
-202
-202
-202
-199
-198
-193
-192
-191
-185
-180
-174
-170
-163
-157
-151
-148
-143
-140
-139
-137
-134
-134
-136
-140
-141
-145
-148
-148
-150
-153
-156
-155
-157
-158
-158
-159
-160
-161
-163
-164
-160
-162
-165
-164
-163
-163
-163
-165
-168
-169
-168
-168
-170
-169
-169
-168
-168
-168
-168
-170
-170
-168
-169
-170
-170
-169
-171
-168
-167
-168
-169
-171
-170
-169
-170
-168
-169
-169
-168
-169
-170
-171
-169
-170
-169
-171
-169
-168
-168
-170
-172
-172
-170
-169
-171
-172
-170
-169
-169
-168
-165
-160
-158
-160
-160
-159
-158
-156
-153
-151
-153
-156
-160
-162
-160
-160
-163
-165
-164
-159
-160
-163
-166
-169
-172
-172
-175
-173
-173
-174
-175
-174
-172
-174
-173
-174
-174
-174
-172
-165
-151
-136
-110
-87
-67
-44
-22
4
25
38
14
-59
-136
-208
-275
-304
-310
-304
-281
-256
-232
-213
-201
-194
-196
-194
-191
-192
-191
-189
-191
-191
-192
-191
-189
-190
-192
-189
-192
-192
-192
-192
-192
-192
-193
-193
-192
-194
-194
-194
-194
-195
-194
-198
-198
-199
-199
-200
-202
-203
-203
-203
-206
-204
-203
-204
-203
-201
-199
-198
-194
-193
-191
-186
-182
-175
-169
-164
-157
-153
-146
-140
-137
-137
-136
-136
-136
-134
-138
-139
-144
-146
-148
-151
-155
-156
-155
-156
-156
-159
-159
-160
-160
-163
-162
-163
-162
-164
-165
-163
-163
-165
-166
-175
-175
-172
-172
-169
-167
-167
-167
-167
-168
-166
-167
-165
-165
-166
-168
-167
-166
-168
-168
-169
-166
-168
-168
-168
-169
-169
-167
-171
-169
-169
-167
-169
-169
-169
-169
-168
-168
-169
-168
-167
-168
-169
-169
-168
-168
-168
-165
-163
-165
-165
-163
-160
-159
-159
-158
-157
-157
-154
-150
-149
-149
-154
-159
-159
-158
-156
-159
-163
-165
-163
-160
-160
-163
-165
-172
-172
-174
-173
-174
-175
-174
-172
-173
-174
-171
-173
-172
-169
-169
-168
-161
-145
-125
-104
-80
-57
-40
-16
9
24
33
-17
-82
-155
-212
-272
-291
-292
-284
-265
-241
-220
-203
-194
-191
-190
-191
-189
-189
-186
-187
-186
-186
-186
-186
-189
-188
-188
-190
-189
-189
-189
-192
-191
-191
-190
-191
-194
-192
-194
-194
-196
-197
-198
-198
-198
-197
-197
-198
-199
-198
-199
-197
-200
-200
-199
-198
-199
-197
-197
-194
-194
-191
-187
-182
-175
-170
-165
-160
-153
-149
-141
-136
-134
-131
-134
-135
-134
-136
-137
-139
-142
-143
-145
-150
-153
-154
-156
-158
-159
-160
-160
-159
-160
-160
-162
-165
-162
-165
-163
-165
-165
-165
-166
-167
-168
-167
-167
-165
-166
-168
-169
-168
-168
-168
-168
-167
-167
-167
-167
-167
-169
-167
-167
-166
-167
-168
-167
-168
-168
-169
-169
-169
-168
-169
-167
-165
-165
-167
-167
-168
-168
-165
-165
-165
-166
-166
-166
-166
-165
-163
-165
-165
-165
-164
-163
-158
-159
-157
-157
-157
-156
-151
-149
-144
-145
-154
-157
-157
-156
-154
-157
-161
-160
-159
-158
-160
-163
-168
-168
-171
-170
-171
-170
-172
-171
-172
-171
-170
-170
-170
-168
-166
-165
-160
-145
-128
-104
-80
-59
-43
-18
9
28
39
15
-56
-126
-156
-218
-258
-275
-272
-262
-242
-221
-203
-193
-189
-189
-188
-182
-185
-185
-185
-185
-185
-187
-186
-184
-185
-185
-185
-186
-188
-186
-187
-186
-186
-188
-189
-189
-191
-191
-192
-193
-192
-192
-193
-192
-193
-194
-194
-195
-195
-197
-197
-201
-199
-197
-197
-199
-197
-194
-192
-193
-192
-188
-186
-179
-174
-168
-162
-156
-149
-143
-139
-137
-136
-134
-133
-134
-135
-137
-137
-138
-138
-142
-145
-149
-148
-151
-153
-153
-155
-156
-157
-156
-160
-159
-160
-157
-159
-160
-162
-162
-163
-161
-160
-161
-160
-162
-162
-160
-163
-163
-162
-166
-165
-165
-162
-164
-165
-165
-165
-166
-166
-163
-166
-163
-164
-165
-165
-166
-165
-166
-165
-165
-165
-165
-166
-165
-165
-163
-165
-165
-165
-166
-167
-168
-165
-167
-163
-163
-163
-163
-163
-163
-163
-160
-158
-154
-155
-157
-157
-156
-155
-150
-145
-145
-150
-153
-156
-155
-151
-153
-159
-161
-157
-156
-156
-162
-163
-166
-169
-170
-168
-170
-170
-169
-170
-172
-172
-172
-170
-169
-169
-170
-168
-157
-142
-122
-98
-76
-51
-30
-6
17
30
30
-24
-99
-169
-226
-283
-301
-303
-284
-261
-237
-214
-198
-194
-190
-189
-189
-189
-186
-186
-184
-185
-185
-186
-187
-186
-186
-186
-187
-186
-186
-188
-185
-186
-186
-187
-188
-189
-189
-188
-190
-190
-192
-192
-192
-194
-195
-196
-196
-198
-197
-198
-197
-198
-198
-198
-199
-198
-197
-197
-192
-187
-186
-184
-177
-170
-168
-162
-155
-150
-145
-141
-138
-134
-133
-131
-131
-131
-135
-137
-140
-141
-144
-147
-149
-150
-150
-152
-152
-154
-154
-155
-165
-160
-161
-160
-160
-159
-160
-160
-162
-163
-163
-165
-165
-163
-165
-165
-166
-164
-163
-164
-165
-165
-166
-166
-165
-164
-165
-166
-165
-165
-163
-163
-163
-165
-165
-166
-163
-165
-165
-163
-165
-165
-165
-164
-163
-162
-163
-163
-163
-164
-163
-163
-165
-165
-163
-165
-164
-163
-163
-162
-161
-162
-160
-157
-155
-155
-153
-153
-153
-151
-147
-144
-146
-153
-156
-157
-154
-153
-156
-160
-160
-156
-157
-159
-160
-167
-167
-168
-168
-168
-168
-167
-169
-170
-169
-170
-170
-169
-167
-168
-167
-165
-150
-130
-111
-83
-63
-44
-20
6
25
36
15
-53
-125
-188
-247
-284
-299
-288
-270
-249
-223
-204
-194
-191
-190
-189
-189
-188
-187
-187
-187
-185
-184
-184
-183
-183
-184
-184
-185
-186
-186
-188
-187
-185
-189
-190
-193
-191
-191
-192
-195
-196
-195
-193
-194
-194
-195
-195
-197
-198
-198
-198
-198
-198
-200
-198
-197
-200
-196
-195
-192
-189
-184
-182
-177
-171
-165
-159
-152
-146
-140
-136
-136
-133
-132
-134
-134
-134
-138
-141
-141
-143
-144
-148
-148
-151
-154
-156
-154
-157
-159
-158
-160
-162
-162
-162
-162
-160
-163
-160
-161
-162
-165
-166
-165
-165
-165
-165
-165
-165
-165
-165
-165
-165
-165
-165
-165
-165
-167
-165
-165
-165
-165
-164
-165
-163
-165
-165
-164
-163
-165
-163
-165
-165
-166
-163
-163
-162
-162
-162
-163
-162
-162
-162
-163
-163
-163
-163
-163
-160
-163
-162
-162
-157
-153
-155
-153
-153
-155
-156
-151
-148
-145
-149
-152
-155
-155
-153
-154
-157
-160
-157
-155
-156
-160
-163
-165
-168
-167
-168
-169
-168
-167
-167
-165
-168
-166
-165
-165
-165
-173
-171
-160
-149
-126
-102
-82
-54
-33
-5
14
30
40
17
-59
-139
-202
-269
-296
-299
-290
-272
-247
-223
-203
-194
-189
-186
-185
-185
-187
-185
-184
-184
-184
-185
-182
-184
-183
-183
-182
-182
-185
-185
-186
-185
-184
-185
-186
-185
-186
-188
-187
-188
-189
-189
-190
-190
-192
-194
-194
-194
-194
-194
-196
-197
-197
-198
-197
-197
-198
-194
-193
-189
-190
-186
-182
-176
-171
-165
-159
-154
-148
-143
-137
-136
-132
-131
-132
-135
-133
-136
-136
-137
-139
-143
-145
-148
-149
-150
-153
-153
-154
-156
-156
-156
-156
-157
-160
-161
-162
-160
-163
-160
-160
-160
-160
-160
-163
-163
-160
-162
-163
-165
-165
-163
-163
-163
-162
-163
-163
-165
-165
-165
-168
-163
-165
-166
-165
-162
-162
-165
-166
-165
-167
-168
-166
-165
-165
-166
-166
-166
-162
-165
-166
-165
-166
-165
-164
-164
-165
-162
-162
-160
-165
-163
-163
-159
-156
-157
-156
-155
-154
-155
-153
-150
-146
-146
-151
-157
-157
-156
-153
-156
-159
-160
-156
-156
-161
-165
-165
-168
-172
-172
-173
-173
-173
-174
-172
-172
-170
-170
-170
-169
-168
-169
-165
-155
-140
-117
-95
-73
-52
-34
-6
14
29
29
-37
-107
-184
-241
-282
-295
-295
-282
-259
-235
-212
-197
-194
-192
-191
-188
-187
-187
-185
-186
-186
-185
-186
-186
-185
-185
-188
-189
-191
-189
-188
-189
-189
-191
-189
-189
-191
-191
-191
-191
-192
-194
-194
-198
-198
-201
-198
-197
-196
-198
-198
-199
-200
-198
-201
-201
-200
-199
-196
-194
-192
-186
-185
-180
-174
-170
-165
-159
-153
-142
-139
-139
-136
-131
-133
-136
-136
-137
-139
-139
-155
-184
-172
-165
-162
-160
-160
-160
-159
-157
-158
-160
-162
-162
-163
-163
-164
-165
-162
-162
-164
-165
-164
-165
-165
-166
-166
-168
-168
-168
-168
-169
-167
-167
-166
-167
-168
-167
-169
-168
-169
-166
-168
-166
-166
-167
-167
-166
-166
-166
-166
-167
-168
-165
-165
-165
-165
-165
-165
-166
-166
-167
-166
-165
-166
-167
-165
-165
-166
-165
-165
-165
-166
-165
-160
-157
-159
-160
-156
-156
-153
-150
-146
-150
-154
-160
-159
-158
-156
-157
-162
-162
-160
-160
-161
-163
-166
-168
-169
-172
-172
-170
-172
-172
-170
-172
-173
-174
-172
-172
-171
-170
-167
-154
-134
-114
-92
-70
-49
-26
1
21
36
25
-39
-109
-178
-243
-284
-305
-294
-279
-258
-232
-212
-198
-194
-192
-192
-189
-191
-189
-188
-188
-187
-186
-186
-187
-189
-188
-187
-187
-191
-191
-191
-192
-189
-193
-190
-191
-192
-192
-194
-194
-195
-194
-194
-197
-198
-198
-197
-200
-201
-203
-203
-203
-204
-201
-202
-201
-198
-198
-197
-194
-194
-192
-189
-184
-180
-173
-166
-159
-153
-146
-141
-138
-139
-135
-135
-136
-137
-138
-140
-143
-146
-147
-147
-150
-152
-153
-155
-156
-159
-157
-159
-160
-160
-160
-160
-163
-163
-165
-165
-163
-161
-162
-162
-165
-166
-165
-166
-166
-165
-165
-166
-167
-168
-165
-165
-165
-165
-165
-166
-165
-165
-167
-165
-167
-165
-163
-165
-163
-165
-165
-165
-165
-165
-165
-165
-165
-166
-165
-165
-165
-165
-163
-166
-165
-165
-163
-163
-163
-164
-163
-163
-163
-163
-159
-154
-154
-153
-153
-154
-155
-150
-148
-144
-150
-156
-157
-156
-152
-153
-156
-160
-159
-157
-159
-159
-162
-164
-165
-167
-172
-175
-138
-153
-158
-162
-163
-165
-166
-165
-167
-166
-165
-158
-140
-122
-100
-76
-51
-36
-6
14
28
38
-2
-73
-148
-210
-269
-296
-301
-288
-267
-243
-220
-201
-194
-186
-184
-184
-185
-184
-185
-182
-184
-184
-185
-186
-183
-182
-183
-182
-183
-184
-183
-185
-186
-188
-187
-186
-186
-187
-186
-188
-188
-189
-187
-189
-191
-195
-197
-194
-194
-194
-196
-197
-197
-198
-196
-194
-196
-194
-191
-191
-189
-187
-182
-178
-174
-170
-160
-155
-148
-144
-139
-134
-132
-128
-128
-131
-131
-133
-133
-138
-140
-140
-141
-145
-149
-151
-151
-154
-154
-154
-155
-155
-157
-158
-157
-157
-157
-159
-159
-159
-159
-160
-162
-162
-162
-162
-160
-160
-160
-162
-163
-163
-163
-163
-162
-162
-163
-163
-165
-162
-163
-163
-162
-163
-161
-163
-163
-162
-160
-160
-160
-161
-161
-164
-163
-163
-163
-162
-160
-162
-162
-163
-162
-163
-163
-163
-162
-161
-161
-160
-160
-160
-162
-160
-159
-154
-154
-156
-155
-153
-153
-151
-146
-144
-146
-148
-154
-154
-154
-151
-153
-156
-159
-158
-157
-156
-160
-160
-162
-162
-166
-169
-169
-168
-170
-169
-168
-166
-168
-170
-169
-169
-166
-163
-153
-137
-120
-95
-71
-52
-32
-8
14
30
34
-23
-91
-164
-227
-271
-294
-294
-279
-259
-235
-212
-196
-187
-186
-186
-185
-185
-185
-183
-183
-182
-184
-182
-182
-182
-182
-182
-183
-183
-183
-183
-183
-185
-184
-185
-185
-183
-186
-185
-189
-192
-191
-191
-189
-191
-190
-190
-192
-192
-192
-192
-194
-196
-194
-194
-194
-192
-192
-188
-189
-185
-183
-179
-174
-171
-165
-162
-153
-148
-143
-133
-140
-123
-125
-125
-125
-125
-127
-131
-135
-137
-138
-140
-143
-145
-150
-150
-148
-152
-153
-154
-155
-155
-155
-155
-156
-157
-156
-156
-157
-159
-159
-157
-158
-158
-159
-160
-160
-159
-160
-161
-163
-163
-160
-160
-160
-160
-160
-162
-162
-159
-160
-162
-162
-160
-157
-159
-158
-160
-160
-160
-161
-162
-160
-160
-157
-158
-159
-160
-160
-160
-160
-160
-161
-160
-162
-159
-160
-160
-160
-162
-160
-159
-156
-150
-149
-151
-151
-150
-149
-145
-140
-140
-143
-148
-150
-150
-150
-149
-153
-156
-160
-154
-154
-156
-156
-158
-162
-165
-165
-165
-165
-167
-165
-163
-163
-166
-165
-165
-163
-162
-165
-160
-146
-130
-105
-82
-61
-37
-17
9
25
36
28
-34
-104
-178
-238
-288
-296
-294
-280
-256
-230
-209
-193
-186
-183
-182
-183
-183
-183
-182
-180
-182
-179
-180
-181
-180
-180
-180
-183
-182
-183
-182
-184
-185
-184
-182
-184
-184
-185
-185
-185
-186
-188
-188
-189
-189
-190
-194
-192
-193
-194
-196
-197
-195
-194
-198
-197
-197
-194
-192
-191
-188
-184
-180
-177
-172
-165
-160
-154
-150
-144
-138
-136
-133
-131
-130
-130
-130
-131
-133
-136
-139
-139
-140
-144
-144
-146
-148
-148
-149
-150
-150
-151
-151
-153
-154
-157
-157
-154
-156
-155
-156
-156
-157
-156
-159
-157
-157
-157
-158
-157
-156
-159
-159
-156
-156
-157
-160
-159
-159
-159
-160
-160
-160
-157
-157
-159
-160
-160
-160
-159
-159
-160
-159
-160
-157
-158
-159
-159
-160
-159
-159
-159
-157
-157
-159
-160
-159
-159
-160
-157
-156
-155
-157
-156
-154
-150
-150
-148
-148
-148
-146
-140
-139
-141
-144
-136
-140
-140
-143
-148
-151
-153
-151
-150
-150
-155
-158
-162
-163
-165
-165
-163
-163
-163
-163
-163
-163
-165
-163
-163
-163
-162
-160
-150
-131
-112
-88
-69
-46
-27
0
21
37
36
-23
-95
-169
-228
-281
-296
-296
-279
-257
-230
-209
-194
-185
-185
-183
-180
-182
-180
-180
-180
-180
-179
-180
-177
-179
-180
-179
-180
-180
-180
-182
-183
-182
-183
-182
-184
-185
-186
-186
-186
-185
-186
-186
-189
-189
-189
-192
-190
-190
-194
-192
-194
-194
-195
-194
-194
-192
-191
-191
-188
-186
-183
-178
-174
-169
-163
-159
-152
-147
-143
-137
-133
-131
-129
-125
-127
-129
-131
-133
-136
-138
-140
-140
-144
-146
-149
-151
-151
-150
-151
-153
-153
-155
-153
-153
-155
-155
-156
-159
-159
-160
-160
-159
-160
-162
-160
-161
-159
-159
-162
-161
-162
-160
-160
-163
-162
-163
-160
-161
-160
-163
-163
-161
-160
-163
-163
-160
-162
-162
-160
-160
-161
-163
-160
-160
-160
-163
-162
-162
-162
-162
-162
-163
-161
-160
-162
-162
-163
-162
-163
-163
-162
-160
-162
-157
-153
-154
-153
-153
-153
-151
-148
-144
-140
-143
-149
-153
-153
-153
-151
-155
-157
-158
-154
-155
-157
-159
-162
-165
-168
-168
-167
-167
-167
-167
-167
-167
-169
-168
-168
-165
-165
-165
-163
-154
-134
-114
-92
-72
-47
-31
-3
20
33
33
-35
-107
-176
-232
-279
-288
-292
-274
-251
-231
-209
-195
-188
-184
-185
-185
-185
-185
-182
-180
-182
-183
-183
-183
-185
-183
-182
-185
-183
-183
-184
-185
-188
-184
-185
-186
-189
-189
-189
-189
-189
-189
-189
-192
-191
-191
-192
-194
-194
-194
-196
-196
-197
-194
-194
-194
-194
-194
-192
-188
-186
-183
-180
-177
-179
-169
-160
-153
-148
-141
-136
-134
-131
-128
-129
-126
-128
-132
-135
-137
-138
-139
-144
-145
-146
-148
-150
-151
-152
-153
-155
-156
-157
-156
-156
-157
-159
-159
-160
-160
-160
-160
-162
-164
-161
-162
-160
-162
-163
-165
-165
-166
-162
-165
-164
-164
-165
-163
-163
-162
-165
-163
-164
-165
-163
-166
-165
-162
-164
-165
-165
-167
-165
-163
-162
-163
-163
-165
-165
-165
-165
-166
-165
-165
-165
-162
-162
-162
-163
-163
-163
-163
-165
-162
-159
-155
-155
-154
-153
-152
-149
-146
-145
-148
-151
-155
-157
-156
-153
-156
-159
-159
-157
-159
-160
-163
-165
-168
-170
-171
-173
-172
-172
-171
-173
-172
-170
-169
-169
-170
-169
-170
-165
-151
-130
-110
-91
-65
-39
-20
5
24
35
26
-43
-113
-183
-250
-286
-304
-300
-283
-257
-233
-211
-196
-189
-188
-186
-186
-186
-185
-186
-184
-183
-185
-184
-185
-185
-186
-186
-185
-183
-185
-186
-188
-188
-188
-190
-191
-192
-191
-189
-192
-189
-194
-194
-194
-197
-197
-197
-198
-198
-196
-196
-198
-201
-200
-198
-200
-198
-198
-195
-191
-191
-186
-185
-181
-175
-169
-165
-157
-151
-145
-140
-139
-134
-134
-133
-131
-133
-133
-136
-138
-140
-142
-144
-146
-146
-148
-149
-153
-153
-154
-153
-153
-155
-157
-157
-156
-156
-158
-157
-157
-158
-160
-160
-160
-160
-160
-160
-158
-160
-158
-160
-159
-160
-160
-160
-160
-160
-161
-160
-159
-160
-160
-160
-161
-162
-160
-160
-160
-160
-160
-159
-160
-160
-160
-159
-160
-160
-160
-160
-160
-160
-160
-160
-160
-160
-160
-160
-157
-159
-160
-160
-158
-156
-156
-157
-160
-146
-148
-146
-148
-148
-150
-147
-141
-140
-142
-148
-150
-149
-148
-148
-149
-154
-155
-151
-150
-154
-156
-160
-164
-164
-166
-165
-166
-165
-165
-163
-163
-166
-165
-165
-164
-165
-163
-160
-150
-133
-114
-92
-70
-44
-30
-3
20
34
38
-14
-87
-159
-221
-275
-292
-296
-281
-261
-235
-212
-195
-188
-186
-186
-185
-184
-184
-182
-182
-180
-181
-182
-182
-183
-182
-180
-181
-182
-180
-185
-184
-185
-188
-188
-188
-188
-186
-187
-185
-188
-189
-189
-192
-193
-194
-189
-192
-194
-197
-197
-197
-197
-195
-194
-194
-194
-196
-194
-192
-191
-186
-183
-179
-175
-168
-163
-157
-151
-143
-138
-136
-136
-130
-129
-131
-130
-131
-134
-136
-137
-141
-143
-146
-148
-150
-150
-151
-151
-153
-154
-155
-156
-155
-156
-157
-159
-159
-160
-160
-160
-160
-162
-160
-162
-163
-162
-162
-162
-163
-162
-163
-163
-162
-162
-161
-163
-163
-164
-164
-164
-165
-163
-163
-163
-162
-160
-161
-162
-162
-162
-162
-161
-163
-163
-160
-160
-161
-162
-165
-162
-163
-163
-165
-164
-162
-163
-164
-160
-164
-160
-162
-163
-165
-165
-163
-159
-156
-153
-154
-154
-154
-153
-146
-144
-143
-145
-148
-153
-153
-151
-150
-154
-159
-157
-155
-155
-158
-160
-165
-166
-167
-166
-166
-168
-169
-169
-169
-168
-168
-165
-165
-163
-165
-164
-160
-148
-129
-107
-83
-63
-40
-20
5
25
34
28
-30
-102
-176
-230
-278
-291
-295
-278
-254
-227
-207
-195
-188
-185
-184
-185
-183
-182
-180
-182
-179
-179
-180
-180
-182
-182
-182
-182
-182
-184
-185
-185
-183
-185
-187
-188
-188
-188
-188
-189
-150
-156
-168
-173
-179
-184
-189
-189
-192
-194
-198
-196
-197
-197
-196
-194
-194
-194
-192
-189
-187
-184
-182
-178
-172
-166
-161
-155
-150
-141
-136
-134
-132
-128
-128
-128
-128
-131
-132
-133
-135
-138
-141
-144
-144
-144
-146
-148
-148
-151
-151
-151
-151
-151
-151
-151
-151
-153
-154
-155
-155
-155
-156
-157
-159
-159
-159
-157
-159
-159
-160
-159
-160
-160
-161
-160
-160
-160
-160
-160
-160
-160
-159
-160
-160
-160
-160
-160
-160
-159
-160
-161
-160
-160
-160
-160
-161
-159
-157
-160
-160
-160
-160
-160
-159
-160
-160
-160
-159
-157
-160
-163
-160
-160
-159
-159
-157
-153
-150
-149
-149
-149
-148
-147
-145
-143
-141
-143
-146
-148
-151
-148
-149
-152
-154
-154
-154
-154
-155
-159
-160
-163
-165
-165
-165
-167
-165
-166
-167
-166
-163
-165
-162
-165
-163
-162
-157
-144
-122
-102
-78
-55
-33
-14
11
28
38
29
-43
-114
-183
-244
-288
-299
-298
-274
-247
-224
-206
-193
-189
-186
-187
-183
-182
-183
-183
-184
-183
-185
-183
-182
-181
-184
-185
-184
-185
-185
-187
-185
-185
-184
-185
-185
-186
-188
-189
-189
-189
-189
-191
-192
-192
-192
-194
-197
-194
-194
-194
-194
-195
-194
-195
-196
-196
-195
-194
-192
-189
-187
-184
-180
-173
-167
-162
-156
-149
-143
-138
-136
-129
-131
-129
-128
-128
-130
-130
-133
-137
-140
-143
-143
-145
-148
-148
-150
-152
-153
-153
-154
-155
-157
-156
-154
-153
-151
-153
-153
-156
-157
-157
-157
-159
-159
-157
-159
-159
-159
-159
-157
-157
-157
-159
-160
-160
-160
-158
-159
-159
-157
-159
-160
-158
-157
-160
-160
-160
-160
-159
-161
-160
-160
-159
-159
-159
-157
-156
-162
-133
-141
-148
-152
-155
-157
-157
-157
-159
-160
-159
-160
-160
-159
-160
-159
-155
-153
-151
-148
-146
-146
-149
-150
-146
-139
-141
-143
-148
-149
-150
-146
-146
-151
-155
-153
-153
-156
-156
-159
-160
-164
-165
-165
-166
-166
-167
-165
-165
-165
-168
-165
-165
-165
-166
-163
-157
-144
-126
-104
-78
-56
-38
-11
12
28
37
4
-69
-136
-200
-256
-294
-297
-283
-269
-245
-221
-201
-192
-187
-186
-183
-183
-182
-183
-182
-182
-179
-182
-184
-183
-184
-184
-185
-183
-185
-185
-185
-185
-184
-185
-185
-189
-189
-189
-189
-190
-189
-189
-192
-194
-194
-194
-198
-194
-196
-196
-199
-197
-200
-198
-199
-198
-198
-197
-197
-194
-194
-192
-186
-179
-174
-169
-163
-157
-152
-146
-139
-136
-133
-133
-131
-130
-131
-133
-134
-136
-139
-143
-145
-146
-148
-150
-151
-153
-155
-156
-156
-156
-155
-156
-157
-160
-159
-160
-160
-160
-160
-159
-159
-159
-159
-162
-163
-165
-163
-162
-163
-165
-163
-163
-163
-160
-162
-162
-164
-165
-165
-165
-166
-164
-165
-163
-163
-160
-162
-163
-166
-166
-165
-163
-162
-162
-163
-165
-163
-162
-162
-163
-164
-165
-165
-165
-163
-162
-162
-160
-162
-162
-162
-161
-163
-162
-156
-152
-152
-151
-150
-151
-151
-147
-143
-140
-145
-145
-150
-151
-148
-150
-154
-159
-159
-154
-154
-156
-159
-160
-166
-166
-168
-168
-166
-165
-168
-165
-166
-165
-163
-165
-163
-163
-165
-160
-145
-130
-110
-86
-62
-41
-17
5
24
32
28
-38
-107
-169
-232
-281
-297
-294
-276
-255
-232
-207
-192
-186
-184
-185
-184
-184
-184
-183
-182
-183
-139
-152
-163
-169
-172
-177
-179
-180
-180
-183
-184
-186
-185
-184
-185
-188
-188
-188
-189
-190
-190
-189
-191
-191
-193
-195
-197
-194
-194
-194
-196
-197
-198
-198
-199
-199
-197
-197
-194
-190
-187
-184
-179
-175
-171
-166
-160
-151
-146
-140
-136
-133
-132
-129
-128
-129
-131
-131
-133
-133
-135
-138
-140
-144
-144
-148
-151
-150
-150
-151
-151
-151
-154
-156
-156
-156
-156
-155
-156
-157
-159
-160
-160
-160
-160
-162
-162
-160
-161
-162
-163
-160
-163
-160
-162
-160
-162
-162
-162
-160
-162
-160
-160
-160
-160
-160
-160
-160
-160
-162
-163
-163
-161
-159
-161
-162
-161
-161
-161
-163
-163
-162
-162
-162
-162
-160
-163
-163
-163
-163
-164
-163
-162
-163
-164
-164
-163
-160
-154
-151
-151
-153
-152
-151
-148
-145
-142
-143
-148
-152
-152
-151
-153
-155
-157
-155
-155
-154
-158
-160
-162
-166
-167
-168
-167
-168
-168
-168
-167
-167
-167
-168
-168
-168
-167
-165
-160
-147
-128
-104
-83
-61
-39
-15
9
28
38
24
-42
-117
-187
-246
-285
-299
-294
-272
-252
-230
-211
-196
-191
-189
-189
-189
-189
-188
-187
-186
-188
-185
-185
-185
-185
-186
-188
-187
-189
-188
-189
-189
-191
-189
-191
-189
-189
-189
-189
-191
-190
-192
-194
-196
-196
-197
-200
-199
-199
-199
-200
-201
-201
-199
-201
-201
-199
-199
-197
-195
-192
-189
-182
-181
-177
-171
-167
-160
-154
-148
-143
-136
-134
-131
-133
-133
-134
-133
-134
-139
-140
-143
-145
-146
-149
-151
-153
-154
-155
-156
-156
-155
-156
-159
-158
-156
-159
-159
-158
-160
-160
-160
-160
-160
-162
-160
-162
-161
-163
-166
-164
-162
-160
-163
-163
-163
-163
-165
-165
-165
-163
-165
-165
-165
-163
-166
-167
-165
-163
-165
-165
-165
-165
-165
-165
-165
-166
-167
-163
-165
-164
-163
-164
-165
-166
-166
-166
-166
-165
-165
-164
-165
-166
-165
-163
-160
-160
-159
-154
-154
-154
-154
-153
-155
-149
-145
-145
-148
-153
-155
-156
-154
-153
-156
-159
-159
-156
-156
-159
-162
-165
-168
-168
-170
-169
-170
-171
-172
-172
-172
-169
-168
-168
-168
-169
-167
-162
-150
-132
-114
-87
-64
-46
-24
0
24
37
14
-57
-128
-193
-252
-284
-296
-290
-271
-248
-227
-208
-195
-190
-187
-188
-188
-189
-189
-188
-186
-186
-185
-188
-188
-188
-189
-191
-189
-191
-189
-190
-189
-190
-191
-191
-189
-191
-194
-194
-196
-196
-194
-198
-197
-197
-198
-200
-198
-198
-199
-199
-202
-201
-202
-203
-201
-199
-199
-198
-198
-192
-191
-182
-180
-174
-172
-165
-160
-153
-146
-140
-139
-134
-133
-136
-136
-134
-136
-138
-140
-142
-142
-146
-149
-151
-153
-155
-156
-156
-157
-159
-158
-158
-159
-161
-165
-163
-160
-162
-163
-164
-166
-166
-167
-167
-168
-168
-166
-167
-167
-165
-163
-165
-165
-165
-166
-167
-165
-165
-163
-165
-166
-165
-165
-166
-165
-165
-165
-165
-165
-166
-165
-167
-168
-168
-167
-166
-168
-168
-166
-166
-167
-166
-165
-165
-162
-165
-162
-165
-162
-165
-165
-166
-166
-165
-163
-160
-157
-156
-155
-156
-154
-153
-151
-149
-146
-145
-148
-153
-155
-153
-154
-155
-160
-159
-155
-156
-158
-163
-165
-168
-168
-169
-169
-169
-168
-170
-169
-169
-168
-168
-169
-167
-163
-164
-163
-156
-136
-114
-92
-72
-47
-26
2
23
35
37
-15
-83
-148
-117
-184
-242
-264
-261
-250
-232
-212
-196
-189
-189
-188
-189
-185
-185
-185
-185
-185
-184
-185
-186
-184
-186
-185
-185
-186
-187
-186
-187
-186
-187
-189
-189
-190
-192
-189
-192
-191
-192
-191
-194
-194
-194
-194
-196
-197
-194
-194
-197
-201
-199
-199
-199
-201
-199
-196
-197
-194
-190
-186
-183
-179
-175
-170
-165
-159
-151
-146
-142
-136
-132
-131
-128
-128
-128
-131
-134
-137
-140
-143
-145
-144
-145
-148
-151
-151
-153
-153
-153
-153
-155
-157
-157
-155
-157
-160
-160
-159
-160
-159
-160
-160
-160
-162
-160
-162
-162
-163
-160
-160
-163
-163
-163
-162
-162
-164
-164
-165
-163
-162
-163
-163
-161
-162
-161
-160
-162
-164
-166
-165
-163
-163
-163
-165
-163
-165
-165
-165
-165
-162
-163
-163
-163
-161
-162
-160
-160
-163
-164
-163
-163
-162
-160
-159
-156
-155
-153
-154
-151
-153
-148
-145
-144
-142
-145
-149
-153
-151
-148
-151
-155
-156
-154
-155
-157
-160
-163
-165
-167
-167
-167
-166
-167
-169
-169
-169
-169
-169
-168
-168
-168
-170
-168
-162
-148
-129
-105
-87
-62
-41
-17
7
23
34
14
-54
-125
-193
-247
-289
-299
-295
-275
-251
-227
-208
-194
-189
-186
-186
-184
-185
-184
-184
-185
-183
-184
-183
-183
-184
-183
-183
-185
-184
-186
-186
-187
-189
-188
-186
-187
-187
-188
-189
-187
-188
-191
-194
-193
-194
-193
-194
-197
-196
-194
-196
-198
-198
-197
-197
-199
-196
-197
-194
-192
-191
-188
-185
-180
-175
-168
-162
-154
-150
-144
-137
-134
-131
-130
-131
-129
-131
-131
-133
-134
-139
-140
-142
-145
-148
-150
-150
-151
-165
-160
-157
-158
-156
-157
-157
-155
-156
-155
-156
-158
-157
-159
-159
-160
-161
-160
-159
-159
-160
-160
-163
-163
-162
-160
-162
-162
-162
-163
-162
-162
-162
-162
-163
-162
-160
-161
-162
-163
-162
-161
-162
-162
-160
-161
-160
-160
-160
-160
-157
-156
-160
-160
-160
-161
-160
-160
-160
-161
-161
-161
-159
-159
-159
-160
-159
-160
-156
-151
-150
-151
-150
-151
-150
-148
-144
-142
-143
-149
-150
-150
-149
-151
-154
-156
-156
-154
-154
-155
-159
-160
-163
-165
-165
-165
-167
-168
-168
-169
-168
-168
-169
-168
-167
-167
-168
-165
-155
-139
-122
-97
-76
-52
-33
-6
15
30
35
-18
-88
-153
-220
-269
-289
-292
-278
-259
-238
-215
-196
-189
-188
-188
-186
-185
-185
-188
-186
-185
-184
-184
-183
-186
-185
-185
-186
-186
-188
-186
-188
-187
-186
-189
-191
-192
-190
-191
-192
-192
-194
-192
-192
-194
-195
-196
-197
-197
-199
-199
-198
-199
-198
-197
-196
-198
-197
-195
-192
-190
-189
-184
-180
-177
-170
-165
-158
-154
-146
-140
-137
-132
-131
-130
-128
-129
-131
-133
-135
-136
-139
-141
-144
-145
-146
-149
-154
-156
-155
-155
-154
-151
-154
-156
-160
-163
-160
-160
-159
-160
-160
-160
-160
-163
-165
-165
-163
-163
-160
-162
-160
-159
-160
-167
-165
-165
-163
-160
-162
-165
-163
-161
-160
-157
-163
-165
-162
-165
-166
-159
-160
-163
-163
-160
-165
-158
-149
-160
-170
-166
-162
-159
-160
-162
-156
-160
-168
-166
-159
-159
-168
-168
-165
-162
-156
-143
-134
-151
-162
-159
-159
-154
-148
-141
-140
-146
-150
-144
-145
-151
-153
-153
-161
-156
-157
-160
-163
-165
-165
-165
-165
-160
-176
-174
-174
-171
-165
-148
-144
-136
-145
-178
-173
-149
-126
-110
-112
-81
-46
-40
-22
4
23
38
36
-32
-116
-175
-241
-291
-310
-301
-250
-223
-209
-209
-179
-146
-162
-159
-127
-162
-209
-196
-185
-184
-180
-187
-207
-213
-203
-185
-179
-180
-150
-154
-153
-168
-194
-182
-189
-186
-168
-171
-169
-191
-192
-182
-204
-191
-180
-199
-204
-199
-199
-191
-175
-165
-174
-182
-208
-207
-182
-166
-189
-198
-188
-203
-186
-160
-165
-166
-154
-131
-127
-131
-136
-157
-136
-122
-141
-151
-146
-140
-107
-104
-132
-159
-153
-136
-144
-150
-149
-160
-171
-148
-139
-155
-163
-160
-148
-160
-158
-171
-180
-137
-144
-177
-171
-150
-147
-154
-140
-154
-180
-177
-146
-140
-156
-179
-180
-171
-156
-148
-153
-169
-146
-153
-162
-150
-148
-172
-179
-155
-154
-160
-141
-162
-190
-177
-159
-157
-160
-162
-169
-177
-170
-153
-160
-177
-162
-163
-153
-147
-165
-170
-157
-165
-156
-169
-179
-173
-163
-150
-155
-159
-148
-148
-149
-150
-151
-156
-168
-165
-153
-151
-163
-171
-165
-165
-160
-154
-167
-177
-179
-175
-174
-177
-174
-179
-177
-170
-174
-182
-180
-158
-172
-189
-177
-169
-170
-151
-135
-105
-82
-50
-37
-20
6
27
8
-65
-138
-213
-264
-307
-322
-316
-285
-265
-265
-236
-217
-206
-201
-198
-189
-182
-197
-207
-206
-202
-204
-203
-197
-198
-196
-198
-196
-196
-198
-199
-199
-200
-198
-200
-198
-197
-198
-197
-199
-200
-200
-198
-201
-205
-206
-207
-206
-203
-202
-206
-206
-204
-206
-206
-208
-208
-203
-202
-199
-197
-192
-189
-183
-179
-175
-172
-165
-159
-160
-157
-147
-142
-138
-137
-139
-139
-139
-141
-144
-146
-148
-151
-154
-154
-155
-154
-157
-159
-160
-160
-157
-159
-160
-162
-162
-163
-162
-160
-163
-163
-163
-162
-163
-165
-166
-165
-164
-165
-168
-166
-163
-164
-168
-167
-165
-165
-167
-169
-169
-168
-165
-163
-163
-165
-167
-166
-164
-163
-163
-163
-165
-165
-163
-163
-163
-166
-165
-162
-161
-165
-165
-166
-165
-165
-166
-165
-165
-164
-163
-161
-161
-160
-160
-156
-154
-154
-155
-153
-153
-152
-148
-146
-150
-155
-157
-156
-155
-157
-159
-160
-160
-159
-158
-161
-163
-169
-169
-169
-172
-171
-169
-172
-172
-170
-169
-169
-172
-170
-169
-169
-165
-157
-140
-122
-99
-73
-51
-35
-7
15
31
35
-7
-78
-152
-211
-269
-297
-305
-288
-266
-246
-225
-206
-195
-192
-188
-189
-186
-185
-185
-184
-185
-187
-186
-185
-185
-186
-186
-186
-186
-188
-189
-189
-189
-189
-188
-188
-188
-191
-192
-192
-191
-189
-192
-194
-199
-198
-199
-198
-199
-197
-198
-201
-201
-203
-202
-201
-202
-201
-199
-198
-194
-192
-189
-186
-179
-173
-169
-162
-158
-152
-144
-139
-137
-134
-133
-133
-133
-132
-134
-139
-140
-141
-143
-144
-146
-150
-151
-150
-154
-157
-155
-157
-156
-158
-157
-157
-156
-157
-157
-159
-160
-159
-160
-160
-160
-162
-161
-160
-162
-163
-162
-163
-163
-161
-163
-162
-162
-164
-165
-163
-163
-162
-162
-162
-162
-163
-165
-162
-160
-161
-160
-162
-160
-160
-162
-162
-162
-162
-160
-160
-162
-163
-161
-160
-162
-160
-160
-161
-162
-160
-160
-160
-160
-156
-153
-150
-149
-151
-150
-148
-145
-142
-143
-148
-151
-150
-148
-148
-151
-142
-136
-143
-146
-149
-156
-156
-162
-163
-163
-163
-163
-166
-165
-165
-163
-163
-163
-164
-163
-164
-160
-155
-142
-125
-104
-80
-55
-39
-17
9
25
36
9
-61
-130
-200
-250
-293
-306
-299
-276
-252
-228
-208
-193
-188
-186
-184
-183
-182
-180
-181
-182
-182
-180
-181
-180
-180
-181
-183
-183
-184
-183
-182
-183
-185
-183
-183
-184
-185
-189
-188
-189
-189
-189
-189
-189
-191
-190
-192
-194
-191
-192
-197
-197
-198
-197
-198
-197
-194
-194
-194
-191
-186
-182
-182
-176
-168
-166
-162
-156
-148
-145
-137
-131
-131
-131
-131
-131
-134
-137
-137
-136
-140
-144
-146
-149
-149
-150
-151
-154
-156
-157
-158
-156
-157
-156
-159
-159
-160
-159
-161
-161
-162
-162
-160
-162
-162
-163
-163
-163
-162
-163
-165
-165
-165
-165
-165
-165
-165
-165
-165
-165
-165
-166
-165
-165
-165
-163
-164
-163
-162
-162
-165
-165
-165
-163
-163
-165
-165
-163
-164
-165
-165
-167
-163
-163
-165
-165
-166
-163
-163
-162
-160
-158
-156
-153
-156
-154
-154
-151
-150
-145
-146
-149
-153
-154
-154
-153
-155
-160
-160
-156
-156
-161
-163
-165
-168
-170
-169
-170
-170
-169
-170
-174
-172
-170
-172
-172
-170
-169
-171
-166
-156
-134
-114
-97
-73
-52
-35
-9
15
33
28
-37
-108
-179
-233
-280
-292
-289
-271
-249
-228
-208
-194
-188
-187
-188
-185
-186
-185
-184
-185
-183
-184
-184
-184
-183
-184
-184
-184
-189
-186
-189
-186
-185
-185
-186
-185
-186
-188
-189
-188
-189
-189
-189
-192
-192
-197
-198
-197
-194
-196
-196
-194
-196
-194
-192
-196
-194
-193
-192
-189
-185
-178
-174
-175
-170
-164
-160
-154
-150
-144
-138
-136
-134
-131
-131
-133
-136
-137
-137
-141
-144
-145
-143
-146
-151
-151
-152
-151
-151
-153
-155
-156
-156
-158
-156
-156
-160
-160
-160
-159
-158
-160
-160
-162
-164
-166
-165
-165
-165
-163
-160
-163
-165
-163
-161
-162
-163
-162
-165
-165
-165
-164
-162
-161
-163
-164
-163
-165
-164
-162
-163
-163
-163
-163
-160
-160
-160
-161
-165
-164
-163
-161
-160
-163
-163
-164
-163
-165
-163
-160
-157
-154
-151
-154
-151
-150
-150
-146
-143
-142
-145
-150
-153
-148
-149
-151
-153
-156
-155
-155
-156
-158
-160
-164
-167
-167
-167
-166
-165
-166
-169
-168
-168
-167
-169
-165
-165
-163
-160
-149
-138
-117
-97
-73
-51
-33
-7
15
29
38
-23
-93
-163
-224
-270
-287
-295
-276
-256
-236
-215
-198
-189
-186
-185
-183
-181
-182
-182
-182
-182
-184
-183
-182
-179
-182
-183
-184
-185
-184
-184
-184
-181
-181
-185
-185
-183
-188
-189
-189
-192
-192
-189
-189
-189
-192
-192
-192
-194
-198
-197
-196
-197
-197
-197
-197
-196
-194
-192
-191
-188
-186
-184
-179
-172
-167
-162
-157
-150
-144
-143
-137
-134
-134
-134
-133
-131
-134
-133
-137
-139
-141
-143
-144
-146
-151
-151
-151
-153
-155
-155
-154
-155
-157
-159
-157
-159
-159
-160
-159
-160
-161
-160
-160
-162
-159
-159
-160
-162
-163
-160
-163
-163
-163
-163
-163
-161
-160
-160
-162
-165
-164
-163
-165
-162
-163
-163
-163
-160
-163
-163
-163
-163
-164
-163
-163
-163
-164
-163
-159
-159
-162
-162
-162
-160
-164
-162
-162
-162
-160
-154
-153
-153
-154
-151
-153
-150
-146
-143
-141
-146
-150
-153
-148
-146
-149
-153
-139
-134
-146
-149
-153
-159
-162
-165
-167
-165
-168
-168
-169
-169
-172
-168
-168
-167
-167
-168
-168
-166
-153
-136
-112
-92
-70
-46
-30
-4
17
31
35
-28
-98
-164
-220
-274
-285
-287
-271
-250
-228
-211
-194
-186
-185
-185
-186
-185
-184
-183
-182
-182
-182
-180
-183
-185
-185
-185
-188
-186
-186
-186
-186
-185
-185
-186
-188
-185
-189
-189
-191
-191
-192
-192
-192
-192
-192
-194
-196
-197
-198
-197
-198
-198
-200
-200
-196
-196
-198
-194
-191
-187
-185
-184
-179
-173
-168
-160
-154
-148
-144
-139
-133
-131
-131
-130
-132
-133
-134
-136
-138
-140
-141
-140
-146
-145
-148
-151
-151
-153
-153
-154
-153
-153
-153
-153
-154
-155
-157
-159
-160
-160
-159
-157
-156
-156
-160
-163
-161
-162
-163
-162
-162
-160
-160
-160
-161
-160
-161
-160
-160
-160
-157
-157
-160
-160
-161
-162
-160
-160
-160
-160
-159
-158
-159
-160
-159
-157
-159
-160
-162
-163
-162
-158
-159
-159
-159
-160
-162
-159
-157
-155
-151
-150
-149
-150
-150
-148
-146
-143
-144
-146
-150
-151
-148
-146
-150
-153
-156
-151
-153
-156
-157
-160
-164
-165
-166
-167
-165
-165
-165
-165
-167
-167
-168
-166
-165
-165
-162
-158
-145
-126
-104
-80
-59
-39
-11
9
29
39
8
-62
-133
-199
-260
-293
-299
-284
-267
-248
-224
-203
-192
-187
-186
-184
-183
-184
-182
-182
-182
-180
-180
-180
-180
-180
-180
-185
-183
-185
-185
-185
-184
-186
-187
-188
-187
-186
-189
-188
-185
-189
-188
-189
-188
-191
-192
-194
-194
-194
-196
-197
-198
-197
-198
-199
-194
-194
-192
-189
-188
-184
-184
-182
-175
-168
-162
-168
-185
-170
-156
-147
-141
-136
-134
-131
-132
-134
-134
-137
-139
-141
-145
-146
-146
-147
-148
-151
-154
-154
-155
-156
-157
-157
-156
-157
-159
-159
-159
-160
-157
-157
-161
-159
-159
-159
-160
-164
-161
-160
-160
-160
-160
-160
-160
-160
-162
-163
-162
-163
-160
-160
-159
-162
-160
-160
-160
-159
-160
-160
-160
-163
-160
-160
-163
-163
-162
-162
-162
-160
-161
-159
-163
-163
-163
-163
-160
-160
-159
-160
-157
-154
-150
-150
-153
-150
-151
-150
-146
-141
-142
-145
-148
-151
-151
-146
-150
-153
-154
-153
-153
-155
-157
-157
-161
-168
-168
-168
-169
-167
-167
-165
-170
-169
-168
-167
-166
-166
-164
-163
-154
-139
-116
-93
-71
-49
-30
-5
18
30
25
-35
-99
-160
-223
-267
-289
-284
-270
-252
-229
-209
-193
-188
-184
-185
-185
-184
-186
-183
-184
-180
-180
-182
-182
-182
-185
-183
-185
-184
-186
-186
-184
-185
-187
-186
-189
-189
-193
-191
-188
-189
-192
-192
-189
-188
-189
-191
-194
-194
-194
-195
-194
-196
-199
-197
-197
-198
-198
-196
-193
-189
-186
-182
-178
-172
-166
-160
-155
-148
-143
-138
-134
-133
-134
-133
-131
-133
-134
-139
-140
-141
-144
-148
-148
-150
-149
-152
-153
-154
-156
-156
-156
-156
-159
-160
-160
-159
-158
-156
-158
-156
-159
-160
-162
-160
-163
-162
-163
-162
-161
-165
-164
-165
-165
-165
-163
-165
-165
-163
-162
-163
-161
-161
-165
-165
-165
-163
-162
-167
-165
-163
-163
-163
-163
-160
-162
-160
-162
-160
-161
-160
-162
-162
-161
-162
-163
-163
-160
-160
-154
-151
-149
-151
-151
-153
-153
-150
-145
-143
-145
-150
-153
-151
-149
-149
-127
-134
-141
-146
-153
-156
-160
-163
-163
-163
-163
-167
-169
-167
-168
-167
-167
-168
-170
-169
-168
-166
-163
-150
-132
-109
-85
-64
-40
-24
2
23
35
24
-44
-110
-183
-237
-281
-295
-292
-272
-250
-226
-211
-198
-190
-188
-188
-184
-185
-183
-185
-183
-182
-183
-184
-185
-183
-181
-188
-186
-185
-188
-188
-187
-187
-186
-188
-186
-188
-189
-189
-185
-188
-192
-195
-194
-194
-195
-195
-194
-198
-201
-198
-199
-201
-201
-199
-198
-197
-197
-194
-191
-189
-184
-182
-179
-174
-166
-162
-156
-151
-145
-141
-131
-132
-131
-128
-130
-131
-134
-136
-138
-140
-143
-147
-147
-148
-148
-151
-153
-153
-153
-153
-154
-155
-156
-157
-156
-159
-159
-160
-159
-160
-160
-160
-160
-160
-163
-161
-162
-163
-167
-166
-165
-163
-160
-162
-162
-162
-162
-164
-165
-163
-160
-159
-160
-160
-163
-162
-160
-160
-160
-159
-160
-160
-163
-163
-163
-163
-163
-163
-160
-160
-160
-163
-163
-162
-163
-162
-160
-160
-160
-157
-153
-151
-154
-154
-151
-152
-147
-142
-143
-146
-150
-154
-153
-151
-151
-151
-155
-154
-152
-153
-156
-160
-162
-165
-165
-171
-169
-169
-168
-167
-165
-168
-169
-168
-167
-165
-165
-162
-151
-136
-112
-90
-66
-43
-24
3
19
38
35
-23
-96
-172
-233
-283
-296
-298
-280
-256
-233
-212
-197
-189
-186
-185
-186
-179
-183
-182
-182
-182
-182
-185
-185
-183
-183
-182
-180
-183
-185
-186
-185
-186
-185
-183
-185
-189
-187
-185
-188
-188
-189
-188
-191
-189
-190
-192
-191
-191
-194
-197
-198
-197
-196
-195
-192
-191
-189
-193
-192
-189
-188
-185
-180
-174
-169
-177
-167
-156
-146
-140
-136
-133
-133
-131
-129
-130
-134
-133
-134
-134
-139
-144
-146
-147
-148
-148
-150
-154
-154
-154
-152
-152
-155
-157
-156
-157
-155
-156
-159
-157
-155
-158
-156
-157
-160
-160
-160
-161
-160
-158
-159
-157
-160
-160
-160
-160
-160
-160
-160
-160
-156
-156
-160
-160
-160
-160
-160
-157
-157
-160
-160
-160
-160
-160
-159
-159
-159
-160
-160
-160
-160
-157
-160
-160
-159
-159
-159
-157
-159
-155
-151
-150
-150
-151
-150
-148
-146
-143
-139
-139
-146
-149
-151
-149
-147
-151
-154
-154
-150
-153
-156
-160
-160
-163
-163
-165
-166
-169
-168
-169
-169
-168
-165
-167
-167
-170
-167
-164
-160
-148
-130
-112
-86
-67
-46
-20
3
19
32
11
-54
-122
-192
-247
-288
-295
-286
-269
-243
-218
-200
-190
-188
-184
-184
-184
-186
-182
-182
-184
-185
-185
-183
-182
-182
-182
-182
-185
-183
-185
-185
-184
-185
-183
-184
-185
-187
-189
-189
-189
-189
-192
-191
-189
-191
-194
-197
-197
-196
-196
-196
-195
-196
-197
-196
-196
-196
-195
-192
-189
-187
-185
-180
-177
-171
-165
-158
-152
-150
-143
-136
-136
-133
-131
-133
-131
-133
-134
-136
-140
-145
-144
-146
-146
-146
-149
-150
-151
-153
-153
-153
-156
-156
-157
-155
-156
-155
-157
-156
-159
-161
-159
-160
-161
-160
-160
-158
-159
-160
-160
-165
-162
-160
-160
-160
-162
-163
-163
-162
-160
-160
-160
-160
-162
-162
-160
-160
-162
-162
-162
-160
-161
-163
-162
-163
-165
-160
-158
-159
-161
-161
-159
-160
-160
-162
-159
-160
-159
-157
-154
-150
-150
-151
-151
-148
-146
-143
-141
-140
-143
-148
-153
-151
-149
-149
-168
-163
-160
-157
-156
-159
-160
-165
-166
-165
-162
-163
-168
-167
-167
-166
-167
-167
-168
-168
-168
-165
-161
-151
-139
-111
-87
-64
-42
-21
5
21
35
26
-42
-109
-179
-232
-273
-288
-284
-266
-246
-223
-204
-193
-184
-183
-185
-186
-186
-185
-184
-184
-184
-183
-183
-184
-183
-184
-186
-186
-185
-184
-186
-185
-186
-189
-188
-189
-189
-191
-191
-189
-189
-191
-194
-197
-196
-196
-195
-194
-197
-198
-198
-197
-196
-199
-198
-197
-197
-194
-192
-188
-186
-183
-181
-175
-168
-162
-156
-151
-146
-141
-136
-134
-131
-131
-131
-131
-131
-133
-137
-141
-143
-144
-145
-149
-149
-150
-153
-154
-154
-155
-156
-156
-156
-157
-158
-157
-159
-160
-160
-160
-160
-163
-163
-160
-162
-163
-160
-162
-161
-162
-162
-160
-162
-164
-164
-163
-162
-162
-163
-165
-165
-165
-164
-160
-160
-161
-163
-162
-163
-163
-162
-161
-160
-160
-160
-162
-162
-162
-163
-163
-162
-162
-163
-163
-162
-162
-165
-162
-156
-153
-154
-154
-154
-153
-151
-146
-142
-144
-146
-150
-153
-153
-151
-151
-155
-157
-156
-154
-156
-160
-164
-165
-168
-168
-170
-170
-171
-170
-169
-167
-169
-172
-169
-169
-169
-167
-165
-155
-140
-117
-93
-72
-52
-33
-4
17
31
29
-30
-100
-166
-221
-262
-295
-289
-275
-253
-230
-208
-197
-192
-189
-189
-186
-184
-185
-185
-184
-185
-184
-182
-186
-187
-188
-188
-188
-187
-186
-188
-189
-189
-188
-189
-191
-189
-189
-188
-191
-192
-194
-194
-194
-198
-198
-199
-199
-195
-198
-201
-202
-200
-201
-198
-197
-198
-197
-194
-192
-189
-186
-183
-177
-173
-168
-161
-155
-151
-147
-130
-125
-127
-128
-124
-125
-127
-130
-133
-139
-142
-144
-146
-149
-150
-151
-153
-156
-156
-156
-160
-157
-159
-160
-158
-160
-162
-160
-162
-160
-161
-160
-162
-162
-164
-165
-165
-162
-164
-166
-165
-165
-165
-165
-165
-164
-163
-165
-167
-167
-166
-165
-167
-165
-165
-165
-165
-165
-165
-165
-165
-165
-166
-163
-163
-165
-166
-165
-163
-167
-165
-165
-165
-165
-165
-165
-166
-163
-159
-157
-156
-156
-155
-153
-153
-148
-148
-146
-149
-154
-159
-156
-154
-156
-158
-159
-157
-154
-156
-160
-161
-165
-171
-172
-172
-170
-168
-171
-172
-174
-173
-173
-173
-174
-172
-170
-169
-155
-135
-112
-87
-63
-46
-23
3
23
35
30
-29
-102
-176
-233
-288
-300
-304
-284
-261
-235
-212
-198
-193
-189
-186
-186
-189
-188
-184
-185
-185
-185
-185
-186
-185
-185
-187
-188
-188
-189
-188
-188
-189
-188
-185
-189
-186
-191
-189
-189
-190
-190
-192
-194
-194
-196
-194
-198
-198
-198
-198
-199
-199
-199
-201
-198
-197
-194
-197
-194
-194
-189
-183
-177
-174
-170
-164
-156
-150
-146
-142
-139
-134
-135
-131
-130
-133
-135
-136
-136
-140
-143
-146
-148
-151
-151
-153
-153
-152
-156
-156
-155
-155
-156
-158
-157
-159
-157
-160
-160
-159
-158
-160
-162
-162
-160
-161
-163
-160
-162
-160
-162
-163
-162
-162
-160
-162
-162
-162
-160
-162
-160
-161
-160
-162
-162
-162
-160
-162
-161
-163
-160
-161
-160
-159
-160
-160
-160
-161
-160
-159
-157
-160
-160
-163
-161
-161
-160
-156
-155
-149
-148
-151
-150
-149
-148
-143
-141
-137
-140
-143
-148
-151
-149
-149
-150
-153
-151
-151
-150
-157
-159
-160
-163
-160
-162
-163
-168
-165
-165
-163
-165
-163
-163
-165
-165
-163
-160
-154
-136
-116
-92
-71
-47
-33
-4
15
31
38
-21
-88
-164
-217
-272
-290
-288
-276
-256
-231
-208
-194
-186
-183
-182
-183
-182
-182
-179
-180
-182
-180
-178
-178
-179
-180
-183
-178
-182
-182
-184
-185
-182
-181
-183
-183
-183
-185
-184
-185
-186
-188
-187
-185
-188
-188
-189
-189
-192
-194
-194
-192
-194
-192
-192
-194
-192
-192
-190
-189
-187
-182
-179
-173
-169
-164
-156
-151
-144
-139
-136
-133
-126
-126
-127
-126
-126
-130
-131
-133
-135
-139
-140
-145
-146
-147
-148
-151
-151
-151
-150
-151
-151
-153
-154
-155
-156
-157
-157
-153
-157
-159
-160
-159
-160
-159
-157
-158
-160
-161
-162
-164
-163
-163
-162
-162
-162
-160
-162
-164
-162
-160
-160
-160
-160
-160
-163
-163
-160
-160
-162
-162
-160
-162
-162
-163
-160
-160
-160
-163
-160
-162
-160
-163
-162
-163
-162
-161
-160
-157
-153
-151
-153
-153
-150
-148
-148
-148
-143
-141
-146
-151
-154
-151
-150
-148
-150
-156
-156
-153
-155
-159
-162
-162
-165
-167
-168
-169
-169
-169
-171
-172
-169
-169
-168
-169
-168
-169
-165
-151
-139
-114
-93
-70
-46
-26
2
18
30
33
-23
-90
-160
-225
-273
-292
-291
-276
-257
-232
-209
-194
-189
-189
-187
-186
-184
-183
-185
-185
-185
-184
-180
-183
-183
-185
-184
-186
-185
-184
-185
-187
-188
-189
-189
-189
-192
-189
-189
-191
-189
-191
-189
-190
-194
-194
-194
-194
-197
-198
-200
-197
-197
-197
-194
-196
-196
-192
-193
-192
-188
-185
-181
-173
-166
-162
-159
-151
-145
-137
-136
-134
-131
-130
-128
-130
-131
-134
-144
-122
-131
-137
-141
-146
-148
-151
-150
-151
-153
-152
-152
-154
-158
-159
-156
-157
-159
-160
-163
-163
-162
-162
-162
-161
-163
-162
-165
-163
-163
-161
-163
-165
-165
-165
-163
-164
-164
-164
-163
-161
-162
-162
-166
-164
-162
-161
-165
-164
-165
-165
-162
-160
-160
-161
-161
-164
-163
-165
-162
-166
-167
-166
-166
-165
-165
-163
-162
-161
-162
-160
-156
-154
-152
-154
-156
-155
-151
-148
-145
-145
-150
-154
-155
-154
-155
-156
-160
-159
-155
-157
-162
-165
-165
-165
-169
-170
-170
-172
-173
-171
-170
-171
-171
-170
-168
-165
-168
-169
-162
-148
-126
-107
-78
-56
-35
-10
14
30
40
6
-67
-137
-201
-266
-301
-300
-290
-271
-248
-225
-206
-196
-193
-190
-187
-186
-187
-186
-187
-189
-184
-185
-188
-191
-189
-188
-190
-189
-190
-184
-189
-193
-194
-194
-194
-192
-189
-191
-194
-194
-192
-193
-194
-197
-198
-198
-196
-199
-199
-199
-201
-200
-199
-202
-202
-200
-199
-198
-198
-195
-192
-188
-183
-179
-174
-168
-162
-156
-150
-141
-139
-137
-134
-131
-133
-134
-137
-138
-140
-143
-145
-146
-150
-151
-156
-156
-155
-156
-157
-159
-160
-162
-160
-160
-160
-162
-160
-160
-162
-163
-165
-165
-163
-163
-163
-165
-165
-165
-163
-164
-164
-166
-165
-165
-165
-166
-165
-165
-165
-163
-163
-165
-165
-165
-165
-164
-168
-166
-165
-167
-167
-167
-165
-165
-164
-164
-164
-165
-166
-167
-168
-167
-166
-166
-165
-165
-165
-163
-162
-160
-160
-159
-155
-156
-154
-153
-151
-149
-146
-146
-148
-149
-154
-154
-153
-152
-156
-160
-159
-155
-156
-160
-161
-173
-165
-166
-167
-167
-167
-170
-169
-168
-169
-168
-169
-169
-168
-168
-168
-159
-145
-127
-102
-82
-61
-41
-15
11
26
36
-9
-76
-145
-202
-264
-287
-290
-279
-257
-238
-217
-205
-196
-191
-187
-188
-186
-184
-185
-185
-184
-182
-180
-180
-179
-180
-183
-185
-191
-190
-189
-188
-184
-184
-186
-189
-192
-188
-179
-182
-189
-190
-188
-182
-178
-182
-189
-192
-192
-189
-188
-180
-189
-191
-193
-192
-191
-191
-185
-182
-177
-180
-174
-168
-155
-150
-140
-152
-148
-135
-126
-133
-128
-105
-105
-110
-122
-131
-129
-127
-125
-122
-113
-121
-142
-139
-126
-126
-144
-150
-146
-142
-127
-117
-134
-147
-151
-151
-143
-133
-133
-129
-134
-151
-151
-145
-128
-127
-130
-139
-150
-157
-157
-150
-146
-149
-146
-151
-157
-140
-132
-134
-153
-159
-151
-151
-154
-147
-138
-146
-156
-155
-148
-144
-149
-153
-154
-151
-152
-151
-155
-157
-159
-150
-146
-154
-161
-162
-160
-160
-166
-158
-156
-156
-157
-153
-156
-158
-155
-155
-153
-151
-154
-155
-160
-159
-155
-163
-159
-153
-146
-149
-150
-156
-165
-170
-169
-170
-165
-163
-170
-174
-175
-168
-174
-183
-176
-173
-169
-173
-169
-149
-124
-95
-83
-73
-59
-46
-40
-17
-24
-78
-138
-180
-206
-238
-253
-256
-243
-226
-206
-197
-185
-174
-170
-175
-178
-172
-179
-188
-186
-182
-180
-172
-167
-168
-180
-185
-169
-160
-163
-169
-189
-198
-191
-188
-180
-180
-184
-192
-197
-194
-176
-177
-184
-184
-197
-202
-169
-134
-148
-194
-220
-206
-213
-212
-198
-197
-187
-191
-206
-204
-172
-136
-146
-185
-189
-162
-148
-135
-119
-136
-165
-179
-162
-134
-131
-144
-170
-185
-163
-173
-154
-146
-170
-182
-170
-147
-163
-197
-198
-186
-170
-188
-191
-172
-173
-175
-165
-163
-182
-194
-198
-199
-198
-194
-174
-168
-168
-182
-189
-185
-179
-196
-213
-198
-165
-145
-163
-191
-192
-189
-194
-206
-199
-189
-194
-192
-178
-174
-194
-197
-185
-191
-198
-196
-188
-184
-193
-197
-200
-197
-180
-170
-192
-189
-180
-196
-199
-197
-194
-186
-182
-182
-180
-175
-178
-175
-170
-176
-185
-180
-176
-172
-172
-174
-176
-181
-187
-183
-175
-183
-192
-196
-194
-189
-189
-191
-196
-201
-194
-188
-183
-191
-191
-195
-201
-198
-197
-190
-175
-156
-131
-109
-89
-70
-59
-39
-22
-13
-47
-114
-170
-222
-276
-302
-308
-300
-281
-259
-233
-214
-204
-194
-192
-197
-204
-201
-204
-202
-200
-198
-196
-195
-203
-201
-197
-199
-199
-192
-188
-196
-207
-207
-201
-200
-198
-191
-194
-197
-208
-204
-199
-194
-198
-202
-207
-200
-202
-203
-203
-207
-203
-197
-199
-206
-209
-202
-203
-202
-192
-188
-183
-177
-172
-174
-175
-172
-165
-162
-152
-148
-157
-156
-157
-161
-159
-160
-166
-168
-171
-175
-172
-166
-165
-175
-182
-183
-179
-179
-177
-179
-173
-177
-177
-178
-182
-182
-179
-180
-179
-179
-184
-186
-184
-178
-177
-177
-177
-178
-179
-179
-182
-180
-177
-179
-174
-177
-186
-182
-180
-180
-184
-183
-183
-182
-180
-180
-179
-183
-183
-183
-183
-180
-179
-179
-175
-179
-180
-178
-179
-178
-177
-173
-175
-180
-183
-179
-177
-172
-175
-175
-174
-169
-166
-163
-167
-170
-169
-168
-165
-161
-163
-168
-169
-168
-165
-169
-170
-173
-170
-168
-165
-166
-172
-174
-178
-183
-150
-162
-165
-167
-175
-177
-179
-178
-179
-178
-178
-179
-176
-163
-140
-117
-102
-86
-67
-57
-39
-21
-5
-28
-83
-133
-179
-220
-252
-267
-266
-251
-237
-219
-204
-192
-185
-187
-193
-189
-187
-191
-192
-189
-187
-189
-189
-189
-186
-188
-194
-198
-194
-196
-197
-192
-191
-191
-192
-196
-203
-202
-198
-196
-197
-196
-197
-194
-194
-199
-204
-202
-195
-189
-196
-199
-201
-202
-201
-201
-198
-199
-194
-189
-185
-188
-183
-177
-176
-170
-162
-154
-145
-150
-148
-145
-139
-136
-141
-146
-147
-150
-151
-145
-142
-150
-154
-159
-166
-167
-163
-160
-163
-165
-165
-166
-167
-168
-168
-167
-163
-163
-165
-170
-167
-164
-164
-166
-166
-169
-169
-166
-167
-171
-170
-168
-166
-168
-168
-167
-163
-160
-160
-169
-174
-175
-172
-169
-166
-165
-169
-169
-167
-171
-168
-167
-168
-169
-168
-165
-165
-163
-165
-165
-168
-165
-166
-165
-160
-165
-167
-167
-169
-168
-168
-169
-165
-160
-156
-154
-154
-156
-153
-153
-148
-146
-146
-154
-155
-154
-150
-150
-152
-156
-157
-156
-154
-154
-154
-159
-160
-164
-165
-167
-170
-170
-169
-165
-163
-165
-165
-162
-156
-157
-160
-159
-150
-136
-114
-95
-71
-47
-31
-15
8
24
18
-43
-117
-185
-250
-295
-306
-299
-279
-258
-233
-209
-193
-187
-183
-180
-179
-177
-175
-177
-177
-175
-174
-174
-169
-172
-174
-177
-178
-178
-177
-180
-177
-168
-172
-172
-172
-177
-184
-180
-185
-182
-174
-182
-180
-172
-176
-179
-178
-182
-180
-183
-185
-185
-183
-183
-183
-180
-182
-180
-181
-178
-172
-163
-153
-145
-144
-150
-145
-138
-134
-130
-128
-133
-114
-111
-117
-118
-119
-129
-134
-136
-141
-141
-138
-139
-141
-144
-145
-145
-149
-151
-153
-153
-150
-151
-155
-156
-156
-155
-154
-153
-153
-153
-156
-157
-157
-153
-155
-157
-159
-158
-156
-155
-156
-158
-159
-160
-160
-162
-158
-159
-160
-160
-158
-157
-156
-159
-162
-160
-160
-162
-160
-160
-159
-160
-160
-160
-160
-160
-163
-163
-160
-160
-162
-160
-160
-159
-157
-158
-156
-156
-156
-154
-153
-153
-150
-151
-151
-149
-145
-140
-139
-146
-152
-154
-151
-148
-150
-155
-160
-157
-154
-151
-151
-154
-160
-165
-162
-159
-160
-171
-171
-172
-169
-169
-170
-169
-168
-166
-165
-162
-153
-134
-110
-88
-68
-52
-42
-28
-10
6
-21
-81
-148
-202
-247
-288
-300
-292
-269
-243
-221
-202
-188
-179
-178
-180
-180
-182
-179
-179
-178
-180
-179
-177
-174
-176
-180
-180
-180
-178
-178
-179
-180
-177
-178
-175
-182
-183
-180
-180
-182
-183
-182
-183
-183
-185
-186
-188
-189
-188
-186
-188
-189
-188
-188
-185
-183
-182
-180
-186
-184
-177
-172
-167
-166
-159
-154
-149
-145
-140
-131
-128
-127
-125
-128
-129
-127
-128
-128
-134
-140
-141
-142
-146
-144
-146
-146
-154
-160
-159
-159
-157
-155
-152
-153
-155
-155
-156
-157
-156
-155
-153
-155
-153
-154
-157
-155
-146
-147
-151
-152
-154
-153
-151
-157
-159
-157
-151
-150
-155
-159
-156
-154
-151
-154
-149
-144
-144
-143
-145
-149
-150
-148
-151
-149
-150
-151
-150
-148
-146
-150
-150
-150
-151
-149
-146
-154
-155
-154
-151
-148
-148
-146
-144
-142
-140
-140
-141
-141
-139
-137
-134
-136
-136
-140
-142
-141
-139
-142
-146
-148
-150
-131
-135
-139
-146
-150
-154
-155
-156
-156
-158
-157
-157
-159
-159
-160
-160
-160
-158
-160
-156
-139
-122
-102
-74
-59
-52
-39
-19
5
13
-28
-89
-138
-194
-236
-269
-276
-267
-249
-229
-208
-189
-180
-174
-173
-173
-174
-172
-173
-173
-177
-175
-176
-177
-177
-171
-175
-175
-174
-175
-178
-177
-178
-179
-179
-180
-178
-178
-177
-179
-177
-179
-180
-180
-180
-180
-181
-182
-182
-183
-185
-185
-182
-185
-184
-184
-182
-182
-182
-180
-178
-174
-170
-168
-163
-160
-154
-149
-143
-138
-136
-131
-128
-128
-127
-130
-131
-132
-133
-136
-138
-141
-142
-145
-146
-149
-151
-153
-153
-154
-156
-155
-159
-157
-159
-159
-157
-157
-157
-159
-159
-160
-160
-162
-160
-160
-160
-159
-159
-160
-162
-162
-163
-162
-162
-163
-163
-162
-160
-159
-160
-161
-162
-160
-160
-160
-160
-160
-160
-162
-160
-160
-160
-160
-163
-160
-160
-160
-162
-160
-160
-161
-160
-163
-162
-162
-163
-164
-163
-163
-160
-160
-163
-161
-157
-153
-151
-153
-151
-148
-149
-148
-144
-144
-146
-148
-151
-151
-149
-151
-155
-159
-156
-155
-159
-160
-163
-165
-166
-168
-169
-169
-169
-169
-169
-169
-168
-168
-166
-167
-167
-166
-163
-155
-137
-117
-95
-73
-56
-43
-24
0
15
-3
-62
-121
-174
-222
-260
-277
-279
-261
-241
-217
-200
-186
-183
-180
-181
-180
-180
-180
-181
-177
-179
-179
-180
-180
-180
-179
-180
-180
-182
-180
-180
-181
-179
-179
-179
-180
-182
-183
-184
-184
-185
-185
-188
-187
-189
-189
-189
-189
-189
-191
-189
-189
-189
-189
-187
-188
-188
-186
-185
-182
-179
-174
-173
-169
-165
-168
-160
-153
-146
-140
-137
-132
-129
-128
-127
-128
-131
-131
-134
-136
-139
-140
-143
-146
-148
-149
-150
-151
-153
-154
-153
-153
-154
-154
-156
-156
-157
-156
-156
-158
-159
-159
-157
-159
-159
-157
-156
-157
-159
-159
-159
-160
-160
-160
-160
-160
-160
-160
-160
-162
-162
-160
-160
-157
-160
-160
-160
-161
-162
-160
-161
-160
-160
-162
-163
-162
-160
-162
-162
-161
-160
-161
-162
-162
-162
-160
-162
-160
-160
-160
-158
-159
-159
-157
-153
-151
-149
-150
-151
-151
-148
-145
-144
-146
-151
-151
-150
-148
-151
-155
-158
-156
-154
-156
-157
-159
-160
-165
-165
-165
-165
-167
-168
-169
-170
-168
-167
-168
-168
-167
-169
-162
-148
-130
-110
-84
-64
-44
-26
-6
14
25
2
-62
-122
-178
-231
-272
-281
-284
-265
-244
-220
-201
-189
-180
-180
-179
-180
-180
-180
-178
-177
-177
-175
-179
-178
-179
-179
-179
-179
-181
-179
-179
-180
-182
-182
-182
-182
-182
-183
-182
-183
-183
-182
-182
-183
-182
-184
-184
-184
-188
-188
-188
-187
-188
-189
-189
-187
-188
-186
-185
-182
-180
-175
-172
-168
-164
-160
-156
-148
-141
-139
-136
-131
-130
-131
-128
-128
-129
-131
-133
-134
-136
-139
-141
-145
-146
-148
-148
-148
-146
-149
-151
-150
-153
-151
-151
-153
-151
-151
-153
-153
-154
-153
-153
-153
-154
-156
-156
-154
-155
-156
-159
-159
-155
-156
-154
-155
-154
-155
-157
-159
-159
-157
-156
-155
-156
-157
-157
-158
-157
-156
-159
-156
-157
-156
-156
-156
-157
-156
-157
-157
-157
-156
-157
-157
-156
-157
-156
-157
-157
-157
-156
-157
-156
-157
-154
-148
-146
-146
-145
-145
-154
-145
-140
-139
-141
-141
-144
-145
-147
-146
-149
-151
-151
-149
-151
-153
-156
-159
-160
-162
-160
-160
-163
-163
-165
-163
-165
-165
-164
-162
-163
-162
-159
-154
-141
-120
-98
-78
-53
-44
-28
-8
14
19
-23
-92
-145
-194
-241
-266
-276
-269
-249
-225
-205
-188
-180
-177
-175
-174
-174
-174
-173
-174
-174
-173
-173
-171
-173
-172
-175
-175
-176
-176
-175
-176
-175
-175
-176
-175
-175
-180
-179
-180
-180
-180
-180
-183
-182
-182
-182
-182
-182
-183
-180
-183
-184
-184
-185
-184
-185
-183
-183
-180
-177
-173
-170
-165
-162
-156
-151
-145
-141
-134
-131
-126
-122
-122
-122
-124
-127
-126
-128
-131
-134
-136
-139
-141
-145
-143
-145
-146
-148
-148
-150
-151
-151
-149
-151
-153
-153
-151
-151
-152
-153
-153
-153
-154
-155
-156
-154
-155
-156
-155
-157
-158
-157
-157
-156
-156
-155
-156
-157
-156
-157
-156
-155
-153
-156
-160
-159
-157
-155
-156
-155
-155
-156
-160
-157
-157
-156
-155
-154
-156
-156
-159
-157
-157
-158
-156
-156
-157
-156
-157
-157
-157
-156
-153
-151
-150
-148
-146
-148
-149
-146
-142
-137
-139
-140
-146
-145
-144
-144
-148
-150
-153
-152
-150
-151
-153
-157
-160
-162
-163
-163
-163
-164
-163
-163
-163
-163
-163
-165
-163
-161
-160
-157
-146
-131
-109
-88
-72
-46
-39
-20
0
23
-3
-64
-119
-173
-228
-267
-273
-272
-255
-233
-213
-193
-181
-177
-175
-175
-175
-174
-175
-174
-174
-174
-174
-174
-174
-174
-173
-175
-176
-177
-175
-175
-174
-174
-175
-175
-177
-177
-179
-178
-176
-178
-179
-180
-180
-182
-182
-183
-182
-185
-184
-182
-183
-183
-194
-194
-189
-185
-183
-179
-175
-173
-170
-166
-160
-156
-151
-144
-137
-134
-131
-125
-126
-124
-122
-121
-125
-124
-126
-127
-131
-133
-136
-140
-143
-144
-144
-148
-147
-147
-147
-150
-148
-149
-151
-151
-153
-153
-151
-153
-153
-153
-153
-153
-154
-153
-153
-152
-153
-154
-156
-157
-157
-156
-156
-155
-158
-156
-156
-157
-159
-158
-157
-157
-158
-156
-156
-154
-157
-156
-156
-155
-155
-157
-155
-155
-157
-158
-159
-157
-157
-157
-157
-159
-160
-160
-159
-156
-155
-154
-155
-156
-159
-158
-151
-148
-146
-148
-150
-149
-146
-145
-141
-138
-141
-143
-146
-147
-145
-145
-148
-151
-153
-153
-153
-155
-155
-160
-163
-163
-164
-165
-166
-166
-163
-164
-162
-163
-165
-166
-163
-160
-157
-143
-125
-108
-81
-57
-40
-25
-5
11
26
8
-58
-117
-177
-227
-272
-286
-278
-261
-238
-215
-197
-184
-178
-177
-177
-177
-176
-175
-175
-174
-173
-175
-177
-177
-177
-177
-178
-178
-179
-177
-177
-177
-180
-179
-179
-180
-179
-178
-179
-180
-182
-183
-183
-183
-183
-182
-185
-186
-185
-186
-185
-187
-188
-189
-187
-186
-186
-185
-183
-179
-177
-175
-170
-166
-162
-157
-151
-145
-140
-137
-133
-128
-130
-128
-127
-128
-130
-129
-132
-135
-136
-137
-139
-142
-144
-145
-145
-146
-148
-149
-151
-150
-151
-153
-153
-153
-154
-154
-155
-153
-152
-154
-154
-155
-154
-154
-154
-153
-152
-153
-154
-155
-156
-155
-155
-156
-157
-157
-157
-156
-157
-156
-155
-156
-157
-156
-155
-156
-157
-154
-156
-154
-155
-154
-153
-154
-156
-156
-154
-155
-154
-156
-156
-158
-157
-157
-154
-155
-165
-159
-156
-156
-154
-154
-154
-148
-145
-146
-144
-143
-146
-145
-140
-136
-137
-141
-145
-146
-144
-145
-148
-151
-152
-151
-148
-152
-156
-157
-160
-161
-160
-161
-160
-162
-162
-162
-160
-162
-163
-160
-159
-160
-160
-151
-138
-124
-102
-77
-55
-40
-23
-4
16
19
-26
-88
-148
-198
-246
-274
-286
-271
-252
-230
-208
-191
-180
-177
-178
-177
-177
-175
-175
-173
-174
-173
-175
-175
-174
-174
-175
-175
-177
-178
-175
-177
-176
-177
-179
-180
-180
-180
-179
-180
-182
-180
-180
-183
-184
-185
-183
-184
-184
-185
-185
-184
-187
-188
-187
-189
-185
-184
-183
-180
-178
-173
-170
-168
-165
-159
-153
-146
-140
-136
-133
-130
-128
-128
-127
-127
-127
-126
-131
-133
-136
-139
-139
-140
-144
-146
-146
-150
-151
-151
-151
-151
-153
-151
-151
-151
-153
-155
-154
-156
-155
-156
-156
-156
-156
-157
-155
-156
-157
-156
-157
-159
-157
-156
-156
-156
-158
-159
-159
-159
-159
-157
-160
-159
-159
-159
-160
-158
-158
-160
-160
-159
-157
-158
-159
-160
-159
-159
-160
-160
-160
-160
-160
-160
-160
-162
-161
-160
-162
-160
-157
-157
-160
-159
-155
-151
-150
-149
-150
-150
-150
-146
-140
-140
-142
-146
-147
-147
-144
-148
-151
-156
-154
-151
-151
-156
-159
-163
-166
-166
-166
-166
-168
-166
-166
-163
-165
-163
-163
-164
-165
-162
-162
-151
-138
-120
-97
-70
-52
-41
-23
-6
17
13
-47
-107
-165
-217
-262
-279
-278
-259
-240
-218
-199
-188
-182
-178
-177
-176
-175
-176
-175
-175
-176
-179
-176
-177
-175
-174
-178
-178
-178
-178
-177
-175
-179
-177
-179
-182
-180
-181
-182
-182
-183
-183
-181
-182
-182
-185
-188
-186
-194
-185
-185
-185
-186
-187
-185
-186
-186
-186
-183
-180
-177
-175
-169
-166
-160
-154
-148
-143
-136
-133
-131
-127
-125
-124
-122
-124
-127
-127
-128
-131
-134
-138
-139
-141
-144
-145
-145
-145
-147
-148
-148
-150
-150
-151
-151
-153
-155
-155
-157
-157
-155
-155
-155
-156
-156
-157
-159
-159
-159
-159
-159
-159
-160
-160
-160
-160
-160
-160
-160
-159
-160
-159
-157
-157
-157
-159
-159
-159
-160
-160
-160
-160
-160
-160
-160
-159
-160
-162
-160
-160
-162
-160
-159
-158
-159
-159
-159
-159
-159
-159
-159
-160
-159
-156
-153
-153
-150
-148
-149
-150
-148
-143
-140
-144
-146
-148
-148
-148
-148
-151
-151
-153
-151
-152
-154
-157
-160
-165
-167
-167
-167
-165
-165
-162
-163
-162
-162
-165
-166
-165
-163
-161
-153
-133
-110
-85
-67
-45
-33
-9
12
29
20
-40
-106
-160
-222
-265
-282
-285
-269
-247
-225
-203
-186
-180
-177
-177
-178
-179
-179
-177
-177
-175
-176
-176
-175
-177
-178
-177
-178
-178
-178
-179
-180
-179
-177
-179
-179
-179
-180
-179
-179
-179
-183
-182
-184
-182
-184
-184
-185
-184
-185
-185
-187
-185
-184
-183
-185
-184
-185
-182
-180
-173
-171
-168
-165
-159
-153
-148
-143
-138
-133
-130
-126
-125
-125
-124
-124
-125
-127
-131
-132
-136
-138
-138
-141
-143
-145
-143
-144
-146
-150
-150
-149
-148
-148
-150
-150
-151
-153
-151
-151
-151
-153
-151
-153
-151
-151
-153
-155
-156
-155
-156
-156
-155
-154
-156
-155
-156
-156
-154
-153
-151
-153
-153
-153
-154
-154
-156
-155
-155
-155
-156
-155
-156
-155
-156
-156
-156
-155
-154
-156
-170
-164
-160
-160
-159
-157
-157
-159
-159
-157
-156
-156
-156
-153
-148
-146
-146
-143
-143
-146
-145
-142
-138
-139
-141
-145
-144
-143
-143
-149
-152
-153
-150
-148
-148
-153
-156
-160
-163
-162
-160
-162
-163
-160
-162
-162
-162
-160
-162
-160
-160
-157
-156
-141
-127
-109
-85
-65
-43
-29
-6
17
29
4
-63
-122
-172
-228
-267
-279
-276
-258
-236
-215
-194
-184
-178
-176
-178
-177
-176
-175
-176
-174
-174
-174
-174
-174
-177
-177
-178
-177
-176
-176
-177
-176
-175
-179
-178
-178
-180
-179
-177
-178
-179
-180
-182
-180
-183
-180
-183
-182
-184
-182
-185
-184
-185
-185
-183
-183
-183
-181
-180
-178
-174
-170
-166
-162
-157
-154
-148
-145
-137
-133
-128
-125
-124
-125
-125
-127
-130
-127
-130
-134
-136
-138
-140
-143
-145
-146
-147
-145
-145
-146
-149
-150
-149
-148
-150
-150
-151
-153
-154
-153
-153
-153
-154
-154
-153
-153
-153
-152
-154
-155
-156
-156
-155
-155
-155
-154
-154
-156
-156
-157
-157
-156
-154
-157
-157
-157
-159
-156
-157
-157
-157
-159
-156
-156
-155
-159
-155
-155
-155
-155
-155
-155
-158
-156
-157
-157
-159
-157
-157
-157
-158
-156
-155
-157
-154
-150
-148
-146
-144
-145
-145
-147
-140
-138
-136
-139
-142
-144
-145
-149
-150
-151
-151
-150
-150
-153
-156
-157
-160
-163
-161
-161
-160
-162
-163
-162
-160
-162
-162
-162
-163
-162
-161
-160
-150
-136
-112
-88
-70
-51
-37
-15
5
21
12
-44
-106
-157
-213
-256
-273
-274
-261
-241
-219
-197
-183
-177
-173
-174
-175
-175
-173
-173
-173
-175
-174
-175
-175
-175
-174
-173
-174
-175
-175
-182
-180
-178
-176
-177
-178
-176
-177
-177
-177
-176
-179
-179
-179
-180
-179
-180
-183
-180
-180
-182
-183
-184
-184
-184
-183
-182
-178
-180
-174
-171
-170
-165
-161
-159
-153
-146
-140
-135
-130
-127
-125
-124
-122
-117
-117
-121
-125
-125
-127
-130
-133
-134
-137
-140
-141
-141
-143
-143
-145
-146
-146
-147
-145
-145
-149
-148
-151
-153
-153
-149
-151
-153
-153
-151
-153
-153
-154
-154
-154
-154
-154
-153
-154
-156
-155
-156
-156
-156
-157
-156
-156
-155
-153
-153
-156
-158
-157
-160
-159
-159
-154
-157
-158
-159
-159
-160
-159
-156
-156
-156
-154
-156
-156
-157
-158
-156
-155
-155
-155
-156
-159
-159
-157
-151
-148
-148
-146
-145
-143
-143
-140
-138
-139
-143
-146
-147
-145
-142
-147
-151
-155
-151
-150
-150
-155
-159
-162
-163
-162
-162
-162
-162
-163
-163
-160
-160
-161
-160
-160
-160
-159
-154
-141
-120
-95
-71
-53
-33
-15
9
26
35
-1
-70
-127
-186
-235
-276
-284
-273
-255
-231
-211
-189
-180
-175
-175
-175
-175
-175
-175
-175
-176
-175
-175
-174
-175
-174
-176
-176
-175
-175
-175
-177
-175
-176
-175
-176
-175
-176
-175
-177
-178
-180
-182
-180
-179
-180
-181
-183
-183
-183
-184
-184
-184
-184
-183
-182
-183
-179
-180
-177
-175
-173
-171
-165
-160
-153
-151
-146
-140
-134
-131
-127
-122
-122
-121
-124
-125
-127
-125
-127
-128
-131
-134
-137
-138
-139
-140
-141
-144
-145
-145
-149
-148
-148
-148
-148
-148
-149
-150
-150
-150
-151
-150
-151
-151
-150
-152
-153
-153
-152
-151
-153
-154
-154
-154
-156
-153
-155
-156
-156
-156
-156
-156
-154
-154
-154
-155
-155
-155
-155
-156
-156
-157
-168
-168
-163
-160
-157
-156
-159
-156
-158
-156
-157
-157
-159
-159
-159
-156
-156
-156
-155
-156
-159
-157
-155
-146
-143
-145
-148
-148
-146
-143
-139
-136
-138
-141
-144
-146
-145
-147
-148
-149
-151
-151
-151
-153
-156
-159
-162
-160
-162
-161
-162
-163
-164
-162
-163
-162
-163
-161
-160
-163
-162
-155
-141
-121
-99
-76
-52
-37
-18
2
20
21
-27
-92
-150
-203
-255
-276
-288
-271
-249
-229
-207
-190
-181
-180
-180
-179
-175
-179
-177
-175
-176
-177
-174
-178
-177
-179
-177
-179
-179
-180
-180
-178
-177
-178
-179
-177
-179
-180
-180
-175
-180
-179
-180
-182
-183
-184
-183
-184
-184
-183
-184
-184
-185
-185
-185
-186
-187
-186
-183
-182
-177
-173
-169
-166
-161
-157
-151
-146
-141
-135
-131
-128
-125
-127
-128
-127
-129
-129
-131
-132
-135
-140
-142
-143
-145
-148
-149
-149
-152
-153
-151
-153
-153
-155
-155
-155
-155
-155
-154
-153
-153
-154
-156
-156
-157
-156
-157
-157
-159
-159
-157
-160
-160
-159
-157
-159
-160
-160
-160
-160
-159
-160
-160
-160
-160
-159
-162
-162
-163
-163
-160
-160
-162
-160
-160
-161
-160
-161
-160
-160
-162
-159
-160
-161
-160
-160
-160
-160
-163
-163
-162
-160
-160
-160
-159
-153
-153
-151
-150
-150
-151
-151
-146
-141
-140
-146
-148
-150
-150
-148
-152
-155
-156
-154
-156
-156
-159
-160
-162
-164
-164
-163
-163
-166
-166
-167
-168
-168
-167
-168
-167
-165
-163
-163
-156
-141
-123
-102
-80
-57
-44
-26
-6
18
14
-36
-99
-154
-208
-250
-273
-279
-265
-248
-223
-204
-192
-183
-180
-179
-179
-179
-180
-179
-180
-179
-186
-175
-175
-175
-178
-180
-180
-180
-180
-180
-181
-180
-183
-184
-186
-184
-185
-186
-185
-186
-186
-186
-186
-187
-188
-188
-189
-189
-189
-190
-190
-191
-189
-188
-188
-189
-189
-185
-184
-181
-179
-175
-172
-163
-160
-154
-148
-143
-139
-134
-128
-126
-128
-128
-129
-130
-130
-134
-135
-139
-139
-141
-142
-145
-145
-149
-153
-154
-156
-155
-153
-154
-155
-156
-157
-156
-159
-159
-160
-158
-160
-160
-160
-160
-162
-165
-165
-162
-160
-161
-160
-164
-165
-163
-165
-164
-165
-162
-160
-163
-164
-165
-163
-164
-162
-163
-165
-165
-165
-165
-165
-165
-165
-165
-165
-165
-165
-165
-165
-163
-162
-165
-167
-165
-165
-165
-165
-167
-163
-164
-165
-163
-165
-163
-160
-156
-156
-155
-155
-155
-156
-153
-148
-144
-149
-150
-154
-154
-153
-153
-159
-160
-162
-160
-160
-163
-166
-166
-169
-170
-171
-172
-172
-172
-170
-169
-168
-170
-167
-168
-167
-169
-167
-160
-143
-125
-99
-75
-54
-35
-15
7
23
28
-26
-92
-156
-215
-262
-290
-293
-280
-260
-236
-214
-195
-188
-185
-185
-185
-188
-185
-185
-185
-184
-184
-186
-185
-187
-185
-186
-185
-183
-183
-183
-185
-186
-186
-183
-185
-186
-186
-186
-189
-186
-188
-186
-189
-188
-189
-191
-191
-192
-192
-192
-192
-191
-192
-191
-191
-189
-189
-189
-187
-184
-180
-178
-172
-167
-162
-157
-152
-146
-141
-137
-135
-131
-131
-130
-128
-129
-131
-133
-136
-139
-142
-144
-148
-146
-149
-150
-153
-154
-153
-153
-154
-156
-156
-156
-156
-155
-153
-155
-156
-156
-157
-159
-157
-159
-159
-160
-160
-159
-161
-160
-160
-160
-160
-160
-165
-174
-168
-167
-164
-162
-162
-160
-159
-157
-160
-161
-160
-160
-160
-159
-156
-160
-160
-160
-162
-160
-163
-160
-160
-159
-160
-159
-160
-162
-162
-162
-160
-160
-160
-160
-162
-160
-159
-160
-159
-158
-154
-153
-150
-150
-150
-151
-148
-143
-140
-143
-146
-150
-150
-147
-148
-150
-156
-156
-156
-157
-157
-160
-164
-165
-165
-167
-168
-168
-169
-168
-167
-168
-168
-168
-168
-167
-167
-166
-156
-144
-127
-107
-86
-59
-46
-25
-3
17
23
-20
-88
-144
-204
-256
-285
-290
-280
-257
-237
-213
-194
-186
-185
-185
-179
-186
-183
-183
-183
-180
-177
-182
-184
-183
-184
-182
-183
-183
-185
-182
-184
-185
-185
-184
-184
-185
-185
-186
-188
-188
-187
-186
-189
-189
-189
-189
-189
-193
-194
-192
-194
-194
-191
-194
-191
-189
-187
-186
-185
-183
-180
-175
-173
-168
-164
-159
-151
-148
-144
-140
-136
-131
-129
-128
-131
-131
-132
-136
-138
-141
-143
-143
-146
-150
-153
-154
-154
-155
-158
-156
-159
-158
-159
-159
-160
-162
-163
-160
-160
-160
-164
-163
-165
-163
-162
-162
-163
-165
-163
-163
-163
-165
-165
-167
-167
-166
-165
-165
-167
-167
-168
-166
-165
-165
-165
-165
-165
-165
-166
-165
-165
-165
-165
-165
-165
-166
-165
-166
-167
-165
-164
-165
-163
-165
-166
-166
-167
-166
-165
-165
-163
-162
-165
-163
-166
-164
-160
-156
-155
-153
-153
-153
-151
-148
-141
-143
-150
-154
-154
-153
-154
-156
-160
-160
-155
-157
-157
-163
-165
-169
-168
-171
-171
-169
-171
-172
-171
-169
-171
-169
-168
-166
-168
-165
-165
-153
-133
-110
-84
-66
-49
-33
-15
11
23
-5
-52
-102
-165
-225
-269
-280
-280
-259
-237
-216
-198
-186
-184
-183
-182
-182
-182
-180
-180
-180
-180
-182
-182
-182
-183
-183
-185
-183
-185
-184
-182
-184
-186
-189
-189
-188
-185
-185
-184
-185
-188
-188
-188
-188
-189
-189
-189
-189
-189
-189
-195
-194
-194
-194
-192
-191
-189
-185
-187
-184
-180
-175
-172
-165
-161
-157
-153
-148
-142
-136
-132
-131
-130
-131
-130
-130
-131
-134
-135
-136
-139
-141
-144
-148
-148
-151
-151
-153
-154
-155
-156
-159
-160
-160
-159
-159
-156
-157
-159
-160
-161
-160
-160
-160
-163
-162
-162
-161
-162
-162
-162
-163
-163
-163
-164
-162
-165
-165
-167
-163
-163
-165
-165
-165
-166
-165
-165
-165
-165
-165
-165
-165
-165
-165
-165
-165
-165
-165
-163
-165
-165
-167
-166
-162
-162
-163
-163
-163
-163
-162
-162
-163
-163
-162
-158
-155
-154
-153
-154
-155
-154
-148
-145
-145
-148
-150
-149
-149
-148
-153
-158
-162
-159
-157
-158
-160
-162
-165
-168
-168
-168
-168
-170
-169
-170
-170
-169
-168
-168
-167
-167
-167
-162
-149
-134
-112
-88
-67
-45
-25
-1
19
32
13
-57
-124
-189
-238
-281
-288
-288
-271
-247
-226
-204
-192
-185
-184
-185
-184
-185
-184
-186
-183
-183
-182
-181
-179
-182
-181
-180
-183
-182
-185
-185
-185
-184
-185
-184
-184
-185
-186
-187
-186
-186
-189
-186
-189
-188
-187
-188
-189
-190
-191
-191
-191
-190
-191
-188
-190
-192
-191
-187
-184
-183
-179
-175
-169
-163
-160
-155
-150
-143
-140
-136
-132
-128
-128
-127
-128
-131
-133
-131
-134
-138
-139
-141
-143
-146
-148
-148
-148
-150
-153
-153
-153
-153
-154
-155
-157
-156
-159
-156
-156
-156
-159
-160
-167
-136
-145
-148
-148
-151
-156
-157
-156
-157
-159
-160
-160
-159
-156
-157
-159
-160
-162
-162
-160
-160
-159
-159
-159
-160
-160
-160
-162
-160
-160
-160
-160
-160
-158
-159
-160
-161
-160
-159
-159
-160
-160
-160
-160
-160
-160
-159
-160
-159
-159
-160
-155
-151
-150
-150
-151
-149
-150
-144
-140
-139
-143
-143
-148
-149
-148
-150
-153
-155
-156
-151
-152
-156
-158
-161
-165
-168
-168
-166
-167
-167
-167
-165
-165
-166
-166
-166
-165
-165
-165
-159
-145
-126
-105
-83
-61
-44
-26
-9
12
25
-14
-79
-136
-194
-242
-272
-281
-272
-254
-233
-213
-192
-184
-180
-182
-182
-180
-182
-180
-183
-181
-180
-180
-182
-183
-180
-181
-180
-181
-181
-182
-181
-182
-182
-182
-184
-183
-182
-183
-185
-185
-185
-185
-184
-186
-188
-189
-188
-187
-187
-189
-189
-189
-189
-191
-189
-189
-186
-185
-182
-180
-178
-177
-172
-165
-159
-158
-154
-148
-142
-136
-132
-126
-127
-128
-126
-128
-130
-131
-134
-136
-139
-143
-144
-146
-147
-151
-154
-153
-153
-155
-154
-156
-155
-156
-156
-157
-157
-155
-155
-157
-156
-160
-160
-159
-159
-159
-160
-160
-159
-160
-161
-162
-161
-163
-161
-160
-160
-160
-160
-160
-160
-160
-163
-163
-162
-162
-159
-160
-163
-162
-163
-162
-162
-160
-162
-160
-161
-162
-163
-165
-164
-162
-162
-162
-158
-160
-161
-163
-162
-162
-160
-162
-160
-160
-155
-152
-150
-150
-151
-153
-149
-144
-145
-148
-149
-151
-151
-148
-150
-155
-160
-160
-158
-157
-160
-162
-163
-165
-167
-167
-168
-169
-168
-169
-169
-168
-169
-169
-165
-167
-165
-165
-162
-163
-142
-120
-96
-70
-49
-28
-12
14
25
-9
-73
-127
-186
-238
-271
-284
-276
-257
-237
-214
-194
-186
-180
-182
-180
-180
-179
-180
-179
-181
-180
-180
-182
-182
-180
-183
-182
-183
-184
-183
-185
-184
-182
-183
-183
-182
-183
-183
-184
-184
-188
-188
-188
-188
-188
-188
-189
-190
-191
-191
-192
-191
-192
-191
-189
-191
-189
-188
-184
-182
-179
-177
-172
-167
-164
-159
-150
-146
-141
-138
-134
-131
-130
-127
-130
-131
-131
-131
-134
-138
-140
-143
-145
-147
-150
-150
-153
-153
-151
-154
-156
-155
-156
-157
-159
-158
-159
-159
-160
-160
-163
-160
-161
-161
-161
-160
-159
-160
-162
-162
-163
-165
-166
-167
-165
-165
-165
-166
-165
-165
-168
-167
-167
-165
-165
-166
-165
-165
-165
-166
-164
-165
-165
-163
-162
-160
-162
-163
-163
-166
-167
-167
-165
-167
-165
-165
-163
-163
-165
-163
-165
-165
-163
-160
-159
-155
-153
-153
-154
-153
-151
-148
-146
-146
-151
-154
-155
-151
-153
-155
-160
-158
-157
-157
-159
-160
-163
-168
-169
-170
-172
-172
-169
-170
-172
-170
-170
-171
-172
-172
-171
-169
-163
-143
-125
-104
-81
-57
-43
-18
4
23
30
-15
-84
-139
-202
-261
-283
-296
-284
-263
-240
-217
-199
-189
-185
-186
-184
-183
-185
-183
-182
-182
-182
-183
-183
-183
-185
-185
-184
-184
-182
-184
-185
-186
-186
-186
-185
-188
-188
-188
-188
-189
-189
-189
-188
-189
-189
-189
-191
-195
-194
-194
-194
-194
-191
-191
-192
-191
-191
-189
-186
-182
-180
-177
-174
-169
-163
-157
-151
-145
-140
-139
-135
-131
-131
-131
-131
-132
-134
-134
-137
-140
-141
-145
-142
-146
-139
-146
-149
-150
-151
-153
-155
-156
-156
-156
-157
-159
-160
-160
-160
-160
-160
-160
-159
-160
-162
-162
-160
-163
-163
-161
-160
-159
-159
-160
-162
-163
-162
-162
-162
-163
-162
-165
-165
-163
-164
-165
-165
-163
-165
-165
-165
-165
-162
-162
-162
-162
-163
-162
-162
-163
-165
-165
-167
-166
-165
-165
-165
-166
-165
-164
-163
-163
-162
-160
-157
-154
-154
-154
-150
-151
-152
-146
-145
-149
-153
-155
-154
-153
-153
-157
-160
-162
-160
-159
-160
-165
-170
-173
-172
-172
-172
-174
-173
-172
-172
-172
-173
-174
-172
-170
-171
-172
-168
-151
-134
-112
-90
-70
-52
-32
-18
6
20
-15
-83
-145
-194
-243
-281
-290
-286
-264
-246
-223
-203
-194
-191
-189
-188
-185
-188
-188
-188
-188
-188
-188
-189
-189
-189
-186
-188
-186
-189
-190
-190
-189
-188
-188
-189
-187
-189
-189
-189
-189
-191
-192
-194
-194
-194
-194
-192
-194
-195
-194
-194
-192
-194
-197
-197
-196
-196
-192
-190
-185
-183
-180
-177
-176
-174
-162
-157
-152
-146
-143
-137
-136
-136
-133
-133
-134
-136
-138
-142
-144
-146
-149
-149
-152
-154
-156
-157
-157
-159
-160
-163
-161
-159
-162
-160
-162
-163
-160
-160
-163
-164
-165
-163
-163
-166
-165
-165
-165
-165
-165
-163
-165
-167
-167
-165
-163
-165
-166
-166
-167
-166
-165
-166
-166
-165
-166
-165
-168
-167
-165
-163
-166
-166
-167
-166
-167
-166
-167
-165
-165
-165
-165
-165
-165
-165
-165
-165
-162
-165
-165
-165
-163
-165
-162
-160
-156
-154
-154
-154
-154
-155
-151
-145
-146
-150
-150
-154
-153
-150
-153
-156
-159
-157
-155
-156
-162
-163
-167
-169
-168
-170
-169
-168
-168
-170
-169
-169
-140
-144
-151
-157
-162
-163
-156
-139
-122
-98
-78
-55
-41
-23
-3
19
18
-37
-100
-162
-211
-260
-276
-285
-273
-253
-229
-210
-194
-187
-183
-185
-184
-186
-183
-183
-182
-183
-182
-182
-184
-184
-185
-185
-187
-185
-186
-186
-185
-186
-184
-188
-189
-187
-188
-188
-189
-187
-188
-189
-191
-191
-191
-192
-194
-194
-196
-194
-194
-194
-194
-194
-194
-192
-192
-192
-189
-185
-182
-177
-172
-170
-165
-160
-153
-148
-144
-139
-136
-134
-131
-133
-133
-134
-133
-137
-138
-141
-143
-146
-148
-149
-152
-151
-155
-156
-157
-157
-159
-159
-160
-160
-162
-162
-163
-163
-160
-163
-163
-163
-165
-163
-165
-163
-165
-165
-167
-166
-165
-165
-165
-168
-166
-167
-167
-165
-166
-168
-167
-165
-167
-165
-165
-166
-167
-165
-166
-164
-165
-165
-168
-166
-165
-166
-165
-166
-165
-165
-165
-166
-167
-167
-167
-165
-165
-165
-165
-165
-165
-164
-166
-160
-157
-156
-156
-156
-156
-156
-152
-150
-149
-151
-155
-156
-156
-156
-159
-162
-165
-162
-157
-157
-160
-164
-169
-172
-173
-173
-174
-172
-173
-173
-174
-173
-174
-173
-172
-170
-170
-167
-156
-138
-114
-95
-70
-50
-35
-11
11
29
17
-47
-112
-174
-230
-270
-291
-290
-271
-249
-228
-208
-194
-187
-185
-184
-183
-183
-185
-183
-186
-185
-185
-186
-186
-188
-186
-186
-185
-187
-186
-186
-188
-187
-189
-185
-183
-187
-186
-188
-188
-190
-189
-188
-189
-191
-191
-194
-194
-194
-194
-194
-194
-194
-194
-192
-194
-194
-194
-190
-187
-184
-182
-179
-173
-166
-160
-155
-150
-146
-140
-136
-133
-133
-136
-160
-146
-141
-141
-141
-144
-147
-146
-146
-148
-151
-152
-152
-153
-154
-154
-155
-158
-160
-158
-159
-160
-160
-159
-159
-159
-159
-159
-160
-161
-163
-162
-160
-160
-160
-160
-160
-160
-160
-160
-159
-160
-160
-162
-162
-162
-160
-162
-163
-163
-163
-163
-162
-162
-163
-163
-165
-162
-163
-162
-162
-159
-163
-162
-162
-163
-165
-165
-163
-160
-160
-160
-163
-165
-165
-163
-162
-162
-163
-160
-158
-154
-151
-151
-150
-153
-154
-150
-148
-144
-146
-148
-149
-153
-151
-150
-151
-155
-160
-156
-155
-156
-159
-160
-165
-167
-168
-167
-168
-169
-168
-169
-170
-169
-168
-168
-166
-165
-166
-165
-160
-141
-125
-102
-79
-56
-46
-23
1
19
17
-32
-100
-165
-213
-264
-276
-283
-273
-252
-228
-209
-190
-184
-182
-184
-184
-185
-182
-183
-183
-182
-182
-182
-180
-180
-182
-181
-182
-182
-183
-187
-188
-185
-185
-185
-185
-185
-187
-188
-189
-188
-189
-188
-185
-188
-188
-191
-189
-191
-192
-192
-191
-193
-194
-195
-194
-191
-190
-189
-187
-185
-182
-177
-175
-169
-162
-157
-151
-148
-139
-136
-134
-134
-131
-131
-130
-130
-131
-136
-139
-139
-143
-145
-150
-150
-151
-151
-153
-153
-155
-154
-156
-155
-155
-156
-156
-156
-156
-157
-160
-160
-160
-160
-160
-162
-162
-163
-161
-160
-161
-163
-164
-162
-160
-160
-162
-161
-160
-160
-163
-163
-165
-163
-160
-160
-160
-160
-160
-162
-162
-162
-164
-163
-162
-161
-163
-162
-160
-162
-160
-160
-162
-162
-162
-160
-160
-162
-163
-163
-162
-164
-163
-160
-160
-159
-157
-155
-153
-151
-151
-150
-151
-148
-145
-143
-144
-146
-175
-179
-170
-166
-163
-165
-162
-156
-154
-158
-160
-162
-167
-167
-167
-168
-168
-165
-168
-166
-169
-168
-168
-167
-168
-167
-166
-163
-151
-131
-110
-86
-66
-49
-31
-12
12
23
9
-58
-117
-177
-224
-266
-276
-275
-258
-238
-217
-198
-186
-182
-182
-181
-180
-180
-180
-180
-182
-183
-182
-180
-180
-180
-180
-182
-180
-183
-180
-182
-184
-185
-184
-184
-184
-184
-185
-185
-186
-187
-186
-188
-190
-189
-189
-187
-188
-189
-192
-191
-192
-192
-193
-194
-195
-191
-188
-186
-183
-183
-180
-178
-171
-165
-159
-156
-150
-145
-141
-137
-132
-131
-129
-127
-126
-130
-134
-136
-136
-139
-141
-143
-144
-148
-150
-150
-153
-151
-151
-153
-154
-155
-157
-157
-159
-160
-159
-159
-156
-156
-158
-160
-161
-160
-162
-160
-162
-160
-160
-160
-160
-162
-165
-163
-162
-162
-164
-162
-160
-160
-163
-163
-163
-163
-163
-165
-163
-163
-163
-163
-161
-163
-164
-162
-162
-162
-164
-161
-163
-162
-160
-160
-160
-161
-160
-160
-161
-160
-161
-160
-162
-160
-160
-160
-157
-155
-153
-151
-151
-153
-156
-152
-146
-143
-146
-151
-153
-153
-151
-148
-151
-157
-159
-157
-157
-160
-162
-163
-163
-167
-167
-169
-169
-168
-169
-168
-167
-168
-170
-168
-166
-166
-164
-160
-148
-129
-107
-85
-64
-43
-23
2
19
33
15
-52
-114
-176
-232
-276
-289
-284
-271
-246
-222
-200
-188
-180
-183
-180
-182
-182
-182
-181
-179
-178
-178
-179
-179
-181
-182
-182
-183
-175
-179
-180
-180
-179
-182
-182
-183
-183
-182
-181
-182
-183
-183
-185
-185
-185
-185
-185
-188
-186
-189
-191
-190
-191
-190
-189
-187
-185
-184
-184
-182
-179
-177
-185
-175
-168
-162
-154
-146
-143
-137
-135
-131
-128
-127
-127
-127
-129
-130
-131
-131
-136
-138
-139
-141
-143
-144
-147
-148
-150
-148
-150
-150
-151
-151
-153
-155
-155
-154
-155
-155
-155
-157
-156
-156
-153
-154
-154
-156
-156
-155
-157
-157
-157
-157
-158
-158
-159
-157
-156
-156
-158
-160
-160
-158
-159
-159
-159
-156
-159
-159
-159
-160
-159
-157
-158
-156
-157
-159
-159
-160
-158
-159
-156
-157
-157
-159
-160
-159
-160
-159
-157
-157
-159
-159
-157
-156
-153
-150
-149
-150
-148
-149
-143
-142
-140
-142
-147
-150
-148
-146
-148
-153
-155
-155
-153
-153
-154
-157
-162
-165
-165
-167
-168
-165
-167
-168
-165
-165
-165
-166
-165
-165
-165
-163
-160
-151
-133
-110
-85
-67
-44
-28
-13
9
26
2
-63
-122
-183
-232
-269
-286
-279
-260
-241
-219
-198
-184
-183
-183
-181
-180
-180
-179
-179
-180
-180
-182
-179
-179
-180
-183
-180
-180
-179
-182
-183
-184
-183
-183
-183
-183
-185
-185
-185
-185
-186
-187
-188
-188
-188
-187
-186
-188
-191
-189
-189
-189
-190
-192
-192
-191
-190
-187
-185
-184
-181
-179
-174
-167
-160
-159
-156
-150
-144
-140
-136
-133
-131
-131
-130
-130
-131
-134
-133
-134
-139
-141
-145
-145
-146
-147
-149
-150
-153
-151
-152
-155
-157
-158
-157
-159
-159
-160
-162
-159
-159
-158
-157
-160
-159
-160
-160
-161
-160
-160
-160
-160
-160
-163
-160
-162
-162
-163
-162
-162
-160
-161
-160
-161
-163
-164
-163
-163
-162
-163
-161
-160
-160
-161
-162
-162
-162
-162
-160
-160
-162
-160
-162
-163
-165
-161
-160
-160
-160
-162
-163
-163
-160
-160
-134
-138
-143
-146
-148
-149
-149
-148
-145
-144
-146
-151
-153
-155
-151
-151
-155
-161
-160
-159
-157
-159
-160
-163
-165
-167
-166
-168
-172
-169
-169
-170
-170
-171
-172
-170
-168
-168
-167
-160
-146
-124
-106
-82
-62
-44
-28
-8
17
28
2
-69
-128
-180
-242
-272
-276
-273
-255
-232
-213
-195
-187
-184
-182
-183
-184
-183
-182
-184
-182
-180
-182
-183
-185
-185
-185
-185
-187
-188
-186
-186
-185
-186
-188
-188
-187
-188
-186
-188
-189
-191
-192
-191
-192
-192
-193
-194
-194
-194
-194
-195
-196
-195
-196
-195
-194
-194
-191
-189
-188
-185
-182
-177
-172
-166
-160
-154
-148
-142
-139
-136
-134
-131
-131
-131
-131
-133
-136
-139
-140
-143
-145
-149
-150
-152
-154
-155
-154
-155
-156
-159
-160
-160
-160
-160
-160
-161
-161
-160
-160
-162
-163
-165
-162
-162
-163
-163
-163
-163
-165
-165
-166
-165
-165
-165
-165
-165
-165
-165
-165
-165
-163
-165
-165
-165
-165
-167
-166
-168
-167
-166
-167
-165
-167
-165
-163
-163
-165
-166
-167
-166
-165
-165
-167
-166
-165
-165
-165
-163
-162
-165
-165
-164
-164
-160
-157
-156
-155
-156
-154
-154
-150
-145
-144
-147
-151
-153
-153
-151
-155
-159
-162
-160
-157
-159
-160
-164
-165
-168
-169
-170
-169
-168
-169
-170
-169
-171
-169
-169
-169
-172
-170
-169
-162
-146
-131
-105
-83
-62
-40
-21
0
20
31
3
-67
-126
-186
-238
-272
-279
-280
-266
-243
-220
-201
-189
-185
-185
-184
-184
-184
-185
-181
-183
-182
-183
-183
-183
-183
-182
-184
-185
-184
-185
-184
-186
-185
-183
-185
-186
-186
-186
-187
-185
-188
-189
-191
-194
-191
-190
-189
-189
-192
-189
-191
-192
-194
-192
-194
-192
-189
-187
-185
-185
-184
-179
-175
-174
-168
-161
-157
-150
-144
-140
-136
-134
-131
-131
-130
-131
-130
-131
-135
-138
-139
-143
-144
-145
-146
-148
-150
-151
-153
-155
-156
-156
-156
-155
-156
-157
-158
-157
-159
-157
-157
-156
-160
-160
-160
-162
-160
-163
-161
-161
-160
-159
-160
-160
-160
-162
-163
-163
-163
-163
-160
-162
-161
-160
-162
-161
-163
-163
-165
-165
-164
-163
-162
-163
-160
-161
-163
-165
-163
-165
-165
-166
-163
-164
-162
-161
-160
-162
-163
-163
-165
-165
-165
-163
-163
-161
-156
-152
-151
-151
-155
-154
-151
-146
-145
-146
-149
-151
-151
-149
-151
-154
-159
-159
-157
-156
-159
-161
-166
-167
-169
-169
-170
-169
-170
-173
-172
-170
-170
-171
-170
-170
-169
-169
-167
-155
-140
-116
-96
-76
-54
-40
-20
3
20
5
-59
-121
-178
-230
-271
-288
-284
-267
-246
-226
-203
-191
-186
-186
-186
-187
-188
-187
-186
-184
-184
-184
-185
-185
-187
-185
-185
-184
-185
-186
-184
-186
-186
-185
-185
-186
-189
-189
-189
-192
-192
-194
-192
-192
-192
-189
-193
-191
-192
-192
-194
-194
-194
-194
-196
-192
-193
-192
-189
-186
-183
-181
-177
-171
-168
-163
-157
-153
-148
-142
-137
-134
-133
-133
-130
-130
-131
-133
-136
-138
-138
-140
-144
-146
-150
-148
-148
-151
-154
-154
-154
-156
-154
-154
-155
-159
-160
-160
-160
-162
-160
-159
-159
-159
-159
-160
-159
-160
-160
-160
-163
-162
-162
-162
-160
-160
-163
-165
-162
-160
-161
-162
-163
-162
-162
-160
-159
-157
-160
-161
-160
-162
-162
-164
-163
-171
-145
-150
-150
-153
-157
-160
-162
-162
-162
-162
-160
-160
-160
-160
-160
-162
-162
-160
-160
-159
-154
-151
-152
-151
-150
-150
-146
-143
-143
-146
-151
-153
-151
-150
-150
-154
-159
-154
-154
-155
-156
-160
-162
-163
-166
-166
-167
-168
-169
-168
-168
-167
-169
-168
-167
-163
-164
-163
-155
-139
-121
-101
-73
-51
-40
-20
1
21
24
-20
-87
-144
-198
-252
-275
-279
-272
-252
-230
-208
-194
-186
-183
-183
-182
-181
-183
-182
-180
-180
-182
-179
-180
-180
-181
-180
-179
-180
-184
-183
-188
-187
-185
-185
-184
-184
-185
-183
-185
-187
-189
-188
-189
-189
-189
-189
-189
-191
-189
-191
-193
-192
-192
-192
-192
-194
-191
-186
-185
-185
-182
-178
-172
-167
-160
-157
-152
-146
-139
-137
-136
-131
-131
-131
-131
-128
-131
-132
-136
-138
-140
-143
-144
-144
-148
-149
-151
-153
-155
-154
-153
-156
-156
-156
-157
-156
-157
-158
-157
-156
-159
-159
-158
-159
-160
-160
-162
-161
-161
-160
-160
-160
-162
-162
-161
-162
-162
-163
-162
-160
-160
-160
-160
-161
-160
-163
-163
-163
-162
-165
-162
-163
-162
-163
-163
-165
-165
-164
-165
-164
-163
-163
-165
-165
-163
-165
-163
-163
-164
-164
-160
-160
-160
-160
-156
-153
-151
-150
-148
-153
-151
-146
-142
-141
-147
-150
-153
-149
-147
-150
-155
-158
-154
-154
-156
-159
-159
-161
-165
-167
-168
-165
-168
-168
-167
-166
-168
-169
-167
-166
-165
-164
-160
-149
-134
-113
-88
-66
-44
-27
-4
19
38
26
-43
-111
-174
-229
-276
-284
-282
-268
-243
-220
-198
-186
-182
-183
-179
-180
-179
-181
-180
-182
-181
-180
-179
-182
-182
-180
-179
-180
-182
-167
-159
-166
-170
-175
-177
-180
-180
-180
-183
-185
-184
-184
-186
-186
-186
-186
-188
-189
-189
-189
-189
-189
-189
-190
-189
-191
-188
-188
-185
-185
-182
-179
-174
-169
-163
-160
-151
-146
-140
-134
-131
-130
-128
-125
-126
-127
-128
-130
-131
-136
-138
-139
-143
-145
-146
-146
-149
-150
-150
-151
-153
-153
-153
-151
-154
-156
-156
-156
-157
-156
-157
-156
-156
-156
-159
-159
-160
-160
-159
-159
-159
-160
-160
-160
-160
-160
-159
-160
-160
-159
-160
-160
-159
-160
-160
-162
-160
-162
-160
-161
-160
-160
-162
-161
-165
-163
-162
-161
-160
-161
-162
-161
-160
-160
-162
-160
-160
-162
-160
-162
-162
-162
-161
-160
-159
-156
-154
-150
-148
-151
-150
-149
-146
-141
-142
-146
-148
-151
-150
-145
-150
-151
-155
-156
-156
-156
-156
-157
-161
-165
-165
-168
-168
-167
-166
-167
-166
-168
-167
-168
-170
-168
-165
-162
-160
-150
-131
-109
-87
-63
-49
-33
-13
11
24
-4
-70
-132
-189
-237
-270
-276
-279
-261
-240
-217
-198
-188
-183
-183
-183
-182
-182
-183
-183
-183
-183
-184
-183
-182
-182
-181
-182
-182
-184
-182
-185
-183
-185
-183
-185
-183
-185
-185
-188
-186
-186
-188
-189
-191
-191
-191
-189
-189
-190
-192
-190
-190
-191
-189
-189
-189
-191
-188
-188
-184
-182
-180
-174
-171
-166
-159
-156
-149
-143
-140
-135
-131
-129
-129
-126
-127
-128
-131
-134
-137
-140
-143
-141
-144
-148
-148
-150
-151
-153
-150
-150
-151
-155
-154
-156
-156
-155
-153
-155
-157
-159
-159
-159
-157
-159
-160
-160
-160
-160
-160
-160
-160
-160
-160
-161
-160
-159
-160
-160
-161
-160
-160
-160
-165
-163
-164
-163
-162
-160
-162
-163
-163
-163
-164
-162
-162
-162
-163
-162
-162
-161
-162
-161
-161
-162
-162
-162
-161
-163
-160
-160
-163
-162
-160
-160
-159
-155
-153
-153
-153
-153
-151
-151
-146
-142
-143
-145
-149
-150
-150
-146
-153
-155
-159
-157
-155
-154
-158
-159
-163
-167
-168
-167
-166
-168
-169
-168
-167
-168
-166
-166
-165
-167
-166
-165
-157
-141
-120
-97
-74
-50
-37
-15
3
21
25
-32
-95
-153
-211
-262
-279
-290
-272
-255
-232
-209
-194
-188
-185
-186
-186
-184
-186
-186
-185
-186
-185
-184
-184
-184
-185
-184
-185
-183
-186
-185
-187
-186
-185
-188
-189
-188
-187
-189
-189
-191
-190
-191
-191
-192
-192
-194
-194
-196
-196
-197
-195
-194
-192
-194
-197
-195
-194
-193
-192
-187
-185
-181
-175
-169
-166
-160
-153
-147
-142
-139
-138
-134
-132
-130
-129
-130
-131
-133
-136
-140
-143
-144
-146
-148
-150
-151
-153
-156
-157
-159
-159
-160
-160
-157
-159
-159
-157
-160
-160
-159
-159
-160
-160
-160
-160
-162
-162
-163
-163
-165
-163
-163
-163
-163
-162
-162
-160
-163
-166
-167
-167
-165
-163
-163
-163
-160
-162
-163
-165
-165
-165
-163
-163
-165
-165
-165
-163
-163
-161
-162
-163
-163
-164
-163
-163
-163
-162
-163
-162
-162
-162
-162
-160
-161
-160
-156
-153
-151
-151
-151
-152
-150
-147
-143
-144
-148
-151
-151
-150
-149
-153
-154
-155
-155
-155
-155
-159
-162
-163
-165
-167
-167
-168
-168
-167
-168
-167
-165
-167
-167
-168
-166
-165
-162
-153
-136
-112
-88
-70
-44
-27
-4
16
30
23
-40
-108
-170
-224
-271
-282
-288
-271
-247
-232
-208
-191
-186
-183
-183
-180
-180
-181
-182
-180
-182
-184
-183
-179
-180
-182
-180
-180
-181
-182
-182
-183
-182
-183
-182
-184
-185
-185
-186
-186
-185
-184
-187
-188
-188
-189
-189
-189
-189
-188
-189
-190
-189
-191
-193
-192
-189
-189
-180
-185
-181
-177
-172
-167
-165
-159
-155
-149
-143
-140
-134
-130
-128
-129
-128
-130
-131
-131
-133
-136
-138
-141
-142
-145
-146
-146
-150
-150
-150
-150
-151
-153
-155
-157
-156
-157
-156
-157
-154
-159
-160
-160
-160
-160
-159
-160
-159
-157
-159
-160
-160
-160
-160
-159
-160
-160
-160
-161
-161
-162
-162
-165
-163
-165
-163
-164
-163
-165
-160
-163
-160
-160
-162
-161
-163
-163
-163
-164
-165
-162
-162
-161
-162
-165
-165
-165
-165
-165
-163
-163
-162
-162
-162
-165
-160
-163
-160
-155
-154
-153
-153
-153
-154
-148
-146
-143
-144
-148
-151
-151
-150
-151
-156
-159
-157
-156
-157
-159
-160
-162
-165
-167
-169
-169
-171
-168
-170
-169
-170
-172
-170
-169
-169
-170
-169
-163
-149
-132
-110
-87
-67
-46
-24
-5
14
23
-18
-85
-138
-203
-250
-276
-285
-275
-259
-236
-214
-197
-188
-186
-186
-188
-185
-185
-183
-185
-183
-185
-186
-186
-186
-187
-185
-185
-186
-186
-187
-185
-185
-188
-186
-187
-189
-189
-189
-188
-189
-189
-189
-192
-193
-193
-193
-191
-191
-194
-194
-195
-194
-194
-194
-194
-194
-192
-189
-189
-186
-183
-179
-175
-169
-163
-160
-154
-148
-143
-138
-136
-131
-130
-131
-131
-131
-131
-134
-138
-140
-142
-145
-147
-148
-149
-153
-151
-151
-154
-156
-154
-156
-156
-156
-158
-159
-159
-160
-160
-161
-162
-167
-166
-166
-165
-163
-164
-164
-163
-163
-163
-162
-162
-163
-165
-164
-166
-167
-165
-165
-163
-164
-165
-165
-163
-163
-162
-165
-165
-165
-163
-164
-165
-165
-163
-163
-163
-163
-165
-162
-163
-165
-163
-163
-165
-164
-165
-162
-162
-163
-166
-163
-164
-164
-162
-163
-160
-157
-153
-153
-154
-155
-154
-151
-146
-144
-144
-148
-153
-154
-152
-153
-155
-158
-160
-160
-159
-159
-160
-163
-167
-169
-169
-168
-168
-169
-169
-170
-171
-170
-169
-169
-170
-171
-170
-167
-157
-138
-116
-93
-73
-54
-38
-14
8
26
25
-34
-98
-160
-220
-273
-290
-291
-275
-255
-231
-211
-195
-189
-189
-187
-189
-189
-188
-187
-185
-185
-184
-185
-184
-185
-186
-185
-188
-189
-188
-191
-189
-189
-189
-189
-192
-189
-191
-191
-189
-191
-192
-191
-192
-192
-192
-194
-195
-197
-197
-199
-199
-197
-198
-197
-197
-196
-194
-193
-189
-186
-183
-181
-177
-173
-169
-162
-156
-149
-143
-139
-137
-134
-134
-134
-133
-135
-136
-138
-140
-141
-143
-147
-150
-151
-151
-151
-151
-154
-156
-158
-159
-160
-160
-162
-161
-160
-160
-160
-164
-165
-165
-165
-165
-166
-165
-165
-165
-165
-165
-163
-165
-163
-163
-166
-166
-167
-166
-167
-166
-165
-163
-165
-165
-165
-166
-168
-168
-167
-168
-166
-166
-166
-166
-168
-165
-165
-165
-165
-163
-164
-165
-165
-165
-165
-165
-166
-165
-166
-165
-166
-166
-168
-166
-166
-165
-165
-162
-158
-157
-155
-154
-153
-153
-151
-145
-144
-148
-151
-154
-155
-150
-151
-155
-159
-157
-154
-157
-160
-163
-165
-168
-169
-169
-169
-170
-170
-170
-168
-167
-168
-167
-165
-168
-167
-167
-165
-151
-131
-110
-86
-83
-61
-32
-10
15
31
9
-59
-120
-179
-231
-273
-285
-288
-269
-247
-224
-204
-192
-185
-186
-185
-185
-184
-182
-185
-183
-183
-182
-183
-183
-183
-183
-182
-183
-184
-186
-185
-185
-185
-186
-185
-185
-186
-185
-186
-186
-188
-186
-188
-189
-191
-191
-191
-190
-189
-191
-191
-191
-191
-192
-193
-192
-192
-190
-189
-188
-184
-180
-174
-173
-168
-163
-157
-153
-147
-143
-137
-134
-133
-128
-130
-131
-133
-133
-136
-136
-141
-143
-144
-148
-150
-151
-154
-153
-151
-154
-157
-157
-157
-160
-159
-160
-160
-161
-159
-159
-162
-162
-162
-160
-162
-163
-162
-164
-163
-163
-160
-160
-160
-163
-163
-166
-166
-163
-165
-163
-163
-161
-161
-163
-164
-165
-165
-167
-165
-165
-165
-165
-163
-163
-164
-163
-165
-165
-165
-165
-163
-164
-166
-165
-163
-163
-162
-163
-162
-163
-163
-165
-163
-163
-163
-162
-160
-156
-154
-154
-153
-153
-153
-150
-148
-145
-145
-148
-151
-153
-151
-152
-155
-157
-160
-157
-155
-157
-160
-163
-168
-170
-168
-169
-170
-169
-171
-172
-172
-172
-170
-170
-169
-169
-168
-168
-160
-140
-123
-101
-76
-59
-43
-21
1
20
16
-37
-101
-153
-207
-256
-273
-282
-268
-252
-229
-209
-194
-186
-183
-186
-185
-185
-182
-183
-183
-182
-182
-180
-180
-180
-183
-184
-186
-185
-184
-182
-183
-184
-184
-186
-187
-189
-189
-187
-187
-186
-189
-188
-189
-190
-188
-192
-192
-192
-192
-194
-192
-194
-191
-192
-194
-192
-189
-188
-188
-182
-180
-176
-172
-166
-161
-158
-153
-146
-139
-134
-133
-131
-128
-128
-130
-133
-133
-136
-137
-140
-139
-140
-150
-127
-136
-143
-145
-145
-150
-154
-154
-156
-157
-155
-157
-156
-156
-160
-160
-159
-159
-159
-157
-159
-159
-159
-160
-160
-160
-161
-160
-162
-160
-160
-159
-159
-160
-163
-162
-162
-160
-160
-160
-160
-161
-160
-160
-162
-160
-162
-162
-162
-162
-160
-160
-160
-162
-162
-159
-160
-159
-163
-160
-160
-160
-160
-160
-160
-158
-160
-162
-161
-163
-160
-162
-160
-160
-155
-151
-151
-151
-151
-154
-151
-146
-143
-143
-148
-151
-150
-148
-148
-151
-154
-157
-155
-153
-155
-157
-163
-165
-168
-169
-168
-166
-167
-168
-169
-171
-169
-172
-169
-165
-165
-165
-162
-150
-130
-110
-88
-69
-46
-30
-5
14
30
14
-50
-110
-168
-232
-269
-286
-281
-264
-243
-224
-205
-189
-182
-182
-182
-184
-186
-188
-184
-186
-183
-185
-185
-184
-183
-183
-182
-184
-183
-184
-185
-186
-185
-186
-186
-186
-185
-185
-184
-185
-188
-187
-191
-190
-192
-191
-190
-191
-192
-190
-189
-191
-192
-194
-194
-196
-195
-193
-191
-189
-187
-180
-177
-170
-165
-163
-159
-153
-150
-141
-139
-137
-132
-133
-134
-131
-133
-136
-137
-138
-141
-141
-144
-146
-148
-150
-151
-153
-155
-154
-154
-154
-154
-154
-155
-157
-159
-158
-160
-160
-160
-159
-160
-159
-159
-156
-159
-160
-160
-161
-162
-160
-160
-160
-161
-162
-163
-162
-162
-162
-160
-162
-161
-162
-160
-162
-162
-162
-160
-162
-162
-162
-160
-160
-160
-162
-165
-161
-160
-162
-161
-162
-160
-160
-162
-160
-162
-162
-163
-163
-160
-162
-162
-160
-159
-159
-159
-156
-153
-153
-151
-151
-151
-151
-148
-144
-142
-145
-150
-151
-153
-148
-149
-153
-161
-163
-156
-157
-159
-160
-161
-165
-166
-167
-170
-168
-167
-166
-168
-167
-166
-166
-166
-167
-167
-165
-159
-141
-125
-102
-79
-59
-41
-22
2
20
32
-4
-76
-135
-191
-247
-280
-290
-279
-261
-238
-215
-194
-188
-182
-182
-182
-182
-180
-179
-180
-180
-180
-180
-183
-182
-182
-179
-180
-179
-179
-182
-182
-184
-185
-185
-184
-183
-183
-183
-185
-185
-185
-186
-184
-186
-187
-188
-188
-189
-192
-191
-192
-192
-192
-191
-190
-192
-191
-188
-188
-183
-180
-177
-173
-170
-166
-160
-154
-151
-145
-139
-136
-134
-131
-128
-131
-131
-130
-131
-134
-137
-139
-141
-142
-143
-145
-149
-149
-151
-153
-154
-155
-155
-156
-155
-156
-156
-156
-157
-157
-157
-158
-158
-160
-160
-160
-160
-159
-159
-159
-160
-160
-160
-160
-162
-161
-162
-163
-162
-161
-160
-160
-160
-160
-160
-161
-160
-160
-160
-162
-160
-160
-161
-162
-160
-160
-160
-160
-160
-162
-162
-162
-159
-160
-162
-160
-160
-162
-161
-160
-162
-159
-161
-161
-160
-160
-160
-160
-157
-156
-152
-151
-150
-149
-150
-149
-146
-144
-143
-147
-149
-151
-151
-150
-151
-153
-156
-155
-154
-156
-156
-160
-162
-165
-167
-169
-167
-168
-165
-163
-165
-166
-163
-166
-162
-163
-165
-163
-160
-145
-131
-105
-83
-64
-40
-24
-5
15
28
-1
-65
-120
-174
-227
-267
-276
-275
-255
-234
-215
-197
-185
-180
-180
-179
-177
-177
-175
-175
-177
-177
-177
-178
-179
-178
-177
-178
-180
-179
-178
-179
-179
-175
-179
-179
-180
-179
-179
-180
-182
-180
-180
-183
-182
-182
-183
-186
-186
-186
-188
-186
-188
-185
-188
-189
-190
-153
-161
-166
-171
-170
-168
-167
-160
-156
-151
-148
-143
-136
-134
-128
-124
-122
-120
-123
-124
-125
-127
-130
-131
-133
-134
-137
-139
-140
-141
-144
-146
-146
-145
-145
-149
-149
-148
-148
-150
-150
-150
-153
-153
-154
-153
-154
-154
-153
-154
-155
-155
-155
-155
-154
-153
-153
-154
-154
-155
-155
-157
-156
-155
-156
-157
-157
-155
-156
-155
-155
-155
-157
-157
-157
-154
-156
-154
-154
-156
-156
-157
-157
-156
-157
-157
-156
-156
-154
-156
-156
-156
-155
-156
-156
-157
-159
-159
-157
-158
-152
-148
-144
-143
-146
-144
-146
-142
-140
-138
-139
-145
