-777
-774
-772
-771
-770
-769
-767
-767
-765
-765
-764
-764
-764
-762
-763
-760
-761
-760
-759
-758
-756
-757
-755
-752
-753
-751
-750
-746
-747
-745
-745
-741
-740
-740
-738
-739
-735
-735
-732
-729
-727
-725
-725
-722
-720
-717
-714
-712
-707
-706
-702
-700
-695
-694
-690
-685
-685
-681
-679
-675
-674
-670
-672
-670
-670
-670
-670
-673
-674
-680
-681
-688
-692
-699
-705
-712
-721
-727
-735
-742
-751
-755
-759
-766
-770
-775
-774
-778
-780
-782
-785
-786
-787
-788
-789
-790
-789
-790
-793
-792
-792
-791
-792
-792
-792
-792
-791
-792
-791
-791
-790
-792
-791
-791
-792
-791
-791
-790
-791
-791
-791
-791
-791
-791
-792
-792
-794
-794
-795
-794
-795
-795
-794
-797
-797
-797
-795
-798
-797
-797
-798
-799
-799
-797
-800
-799
-800
-801
-800
-801
-800
-799
-799
-799
-799
-797
-799
-799
-797
-798
-796
-798
-797
-798
-797
-797
-796
-797
-798
-797
-797
-797
-795
-796
-796
-797
-795
-795
-795
-794
-795
-795
-795
-795
-795
-794
-794
-794
-792
-792
-791
-792
-794
-791
-792
-791
-794
-790
-790
-791
-790
-791
-791
-790
-791
-791
-790
-790
-790
-790
-790
-790
-790
-791
-790
-790
-791
-790
-790
-787
-784
-781
-781
-780
-781
-782
-781
-779
-776
-776
-777
-779
-780
-780
-781
-784
-785
-785
-786
-786
-787
-790
-790
-794
-796
-798
-800
-804
-802
-802
-802
-805
-803
-802
-802
-801
-802
-801
-800
-800
-799
-800
-799
-799
-797
-795
-794
-787
-774
-757
-744
-730
-705
-664
-639
-646
-670
-704
-748
-792
-835
-875
-905
-919
-909
-889
-860
-828
-804
-789
-784
-777
-775
-771
-770
-770
-768
-768
-765
-765
-765
-765
-762
-762
-762
-760
-757
-760
-759
-759
-758
-758
-757
-755
-755
-754
-754
-752
-750
-750
-749
-748
-745
-745
-744
-742
-740
-737
-737
-735
-734
-732
-728
-728
-725
-724
-722
-719
-718
-714
-713
-709
-706
-704
-700
-699
-695
-694
-689
-686
-682
-681
-679
-675
-673
-667
-669
-667
-670
-667
-670
-669
-674
-678
-681
-687
-690
-701
-706
-715
-722
-729
-739
-745
-754
-759
-765
-770
-774
-779
-780
-785
-786
-786
-789
-789
-790
-792
-791
-794
-792
-795
-794
-795
-795
-794
-795
-794
-796
-794
-795
-795
-795
-796
-795
-795
-795
-795
-795
-795
-795
-795
-798
-795
-796
-797
-798
-797
-796
-795
-798
-798
-799
-800
-799
-799
-799
-799
-800
-802
-801
-802
-802
-802
-802
-802
-804
-804
-804
-805
-805
-806
-806
-807
-807
-807
-806
-807
-807
-807
-805
-807
-805
-806
-807
-805
-805
-805
-807
-807
-805
-805
-806
-805
-807
-806
-805
-807
-805
-806
-805
-807
-805
-807
-805
-806
-804
-804
-805
-804
-805
-804
-804
-804
-804
-804
-804
-804
-804
-804
-804
-802
-802
-802
-802
-802
-802
-802
-801
-802
-802
-802
-802
-802
-802
-802
-802
-802
-802
-803
-802
-802
-802
-802
-803
-802
-802
-802
-803
-802
-802
-804
-805
-802
-799
-795
-797
-794
-794
-794
-797
-795
-791
-789
-789
-791
-792
-794
-794
-795
-797
-797
-800
-799
-799
-799
-802
-805
-806
-808
-810
-812
-814
-815
-815
-815
-814
-814
-814
-815
-814
-814
-814
-814
-812
-812
-812
-810
-810
-809
-808
-805
-800
-787
-771
-759
-749
-724
-689
-652
-657
-677
-713
-752
-794
-840
-878
-909
-936
-925
-904
-880
-849
-821
-804
-795
-790
-789
-782
-781
-779
-779
-777
-777
-777
-774
-774
-772
-773
-771
-770
-770
-770
-770
-768
-768
-767
-765
-765
-764
-764
-761
-760
-760
-757
-757
-755
-754
-750
-749
-747
-745
-745
-744
-744
-744
-739
-740
-735
-734
-729
-729
-727
-724
-721
-715
-714
-709
-707
-704
-699
-699
-696
-694
-690
-689
-685
-682
-680
-675
-675
-672
-671
-670
-674
-673
-674
-677
-678
-682
-685
-692
-696
-705
-712
-722
-731
-739
-749
-754
-762
-767
-772
-777
-781
-785
-787
-790
-792
-794
-795
-798
-797
-799
-797
-801
-799
-800
-800
-801
-801
-801
-801
-801
-802
-802
-801
-802
-800
-801
-800
-800
-802
-801
-802
-802
-802
-804
-802
-804
-804
-805
-804
-804
-805
-804
-805
-805
-807
-807
-806
-807
-806
-808
-809
-809
-809
-808
-809
-810
-810
-810
-811
-811
-811
-811
-814
-812
-812
-811
-814
-812
-811
-812
-810
-812
-810
-811
-810
-809
-809
-809
-811
-810
-810
-810
-810
-809
-809
-808
-809
-808
-809
-808
-808
-809
-808
-808
-808
-807
-806
-807
-809
-808
-808
-807
-808
-807
-805
-805
-805
-805
-805
-807
-805
-805
-805
-805
-805
-804
-804
-807
-804
-805
-804
-807
-804
-804
-804
-804
-805
-805
-805
-805
-805
-805
-804
-804
-805
-804
-801
-798
-797
-794
-794
-794
-796
-795
-794
-790
-787
-787
-789
-792
-794
-794
-797
-797
-799
-800
-799
-800
-802
-804
-808
-809
-812
-815
-816
-818
-816
-818
-817
-818
-817
-818
-819
-817
-817
-815
-818
-815
-815
-815
-814
-812
-812
-811
-807
-797
-781
-768
-759
-741
-716
-674
-654
-670
-701
-744
-784
-829
-871
-902
-931
-939
-919
-899
-867
-839
-817
-804
-800
-795
-790
-785
-785
-784
-784
-781
-780
-779
-779
-777
-777
-777
-776
-775
-774
-772
-772
-768
-770
-770
-768
-765
-765
-765
-764
-763
-761
-759
-759
-756
-755
-754
-754
-750
-749
-749
-748
-746
-745
-744
-743
-739
-739
-735
-735
-734
-730
-728
-724
-722
-719
-717
-715
-712
-710
-705
-704
-696
-695
-692
-689
-689
-686
-685
-682
-684
-681
-683
-682
-684
-686
-690
-694
-698
-705
-709
-717
-724
-729
-740
-745
-755
-760
-767
-774
-777
-782
-785
-789
-792
-792
-794
-795
-796
-798
-799
-800
-799
-801
-802
-802
-802
-803
-802
-801
-801
-801
-801
-802
-802
-802
-802
-802
-804
-803
-803
-802
-804
-802
-803
-804
-802
-804
-804
-804
-804
-804
-805
-802
-805
-804
-807
-804
-804
-805
-804
-805
-805
-805
-805
-805
-805
-805
-807
-807
-807
-807
-806
-807
-807
-807
-808
-808
-808
-809
-808
-808
-807
-806
-805
-805
-806
-806
-806
-805
-805
-805
-806
-805
-805
-805
-804
-804
-804
-804
-805
-804
-804
-804
-804
-804
-802
-805
-802
-802
-802
-804
-802
-801
-802
-802
-802
-800
-801
-801
-801
-800
-799
-799
-799
-800
-800
-799
-799
-799
-799
-799
-799
-799
-800
-799
-799
-799
-797
-798
-798
-794
-792
-790
-789
-788
-787
-789
-790
-787
-784
-782
-784
-784
-787
-787
-789
-790
-791
-792
-794
-792
-797
-797
-800
-802
-807
-808
-809
-813
-814
-812
-811
-812
-812
-810
-813
-810
-810
-810
-810
-810
-810
-809
-807
-807
-807
-804
-800
-792
-777
-762
-752
-735
-710
-665
-640
-654
-684
-727
-768
-812
-861
-892
-920
-928
-912
-891
-860
-834
-810
-797
-790
-789
-785
-780
-776
-774
-775
-772
-772
-770
-771
-771
-771
-767
-767
-768
-765
-765
-765
-764
-764
-761
-760
-759
-756
-756
-755
-755
-754
-754
-752
-750
-750
-748
-747
-745
-746
-742
-740
-740
-737
-735
-732
-732
-730
-726
-725
-722
-722
-718
-715
-710
-707
-704
-700
-700
-694
-694
-690
-686
-684
-683
-684
-681
-679
-677
-678
-676
-678
-679
-679
-682
-685
-689
-691
-699
-701
-707
-715
-722
-730
-737
-745
-751
-758
-762
-768
-774
-776
-779
-781
-784
-785
-786
-788
-789
-789
-789
-791
-792
-792
-790
-791
-792
-792
-791
-792
-792
-792
-793
-792
-792
-794
-794
-794
-794
-793
-792
-794
-795
-794
-795
-794
-795
-794
-795
-794
-794
-794
-794
-795
-795
-795
-795
-795
-797
-796
-796
-797
-796
-797
-797
-799
-798
-799
-797
-799
-800
-799
-799
-799
-800
-799
-800
-799
-799
-799
-799
-798
-799
-797
-797
-797
-797
-798
-797
-798
-797
-797
-795
-797
-797
-797
-796
-797
-796
-795
-795
-797
-794
-794
-794
-794
-794
-794
-794
-794
-794
-792
-794
-794
-794
-792
-792
-794
-792
-792
-792
-791
-792
-791
-792
-791
-792
-792
-791
-792
-791
-792
-791
-790
-789
-785
-783
-782
-781
-781
-784
-784
-781
-780
-776
-776
-779
-780
-782
-781
-784
-785
-787
-787
-787
-789
-791
-790
-794
-796
-798
-799
-801
-804
-804
-804
-804
-804
-804
-804
-805
-804
-804
-804
-804
-804
-802
-801
-801
-800
-799
-797
-794
-781
-768
-755
-747
-728
-697
-654
-645
-664
-698
-739
-779
-818
-855
-889
-914
-908
-889
-864
-835
-810
-794
-785
-781
-777
-775
-774
-774
-771
-772
-772
-772
-770
-771
-769
-769
-767
-767
-766
-765
-765
-765
-764
-762
-760
-760
-759
-759
-756
-755
-755
-754
-754
-750
-751
-749
-748
-746
-745
-745
-742
-740
-739
-738
-735
-734
-732
-729
-729
-726
-725
-724
-720
-720
-717
-714
-710
-709
-705
-699
-700
-695
-694
-690
-687
-687
-684
-685
-680
-682
-680
-684
-682
-684
-684
-688
-691
-694
-702
-706
-714
-719
-727
-735
-744
-752
-755
-764
-769
-775
-777
-780
-784
-785
-787
-789
-790
-792
-793
-794
-795
-794
-795
-795
-796
-795
-796
-795
-796
-795
-796
-795
-796
-796
-798
-796
-795
-795
-799
-796
-797
-796
-795
-797
-795
-797
-797
-798
-797
-798
-797
-797
-799
-799
-800
-800
-801
-801
-801
-802
-802
-802
-804
-804
-804
-804
-805
-805
-805
-805
-805
-805
-806
-805
-807
-806
-807
-806
-807
-807
-807
-807
-805
-807
-806
-806
-806
-806
-807
-807
-807
-807
-805
-807
-805
-805
-805
-805
-805
-805
-805
-805
-806
-806
-805
-805
-804
-805
-805
-805
-805
-804
-805
-804
-805
-804
-804
-804
-804
-805
-804
-804
-804
-804
-802
-802
-802
-801
-802
-801
-802
-802
-802
-802
-801
-801
-801
-801
-802
-801
-802
-802
-801
-801
-802
-803
-801
-802
-805
-802
-802
-801
-802
-799
-796
-794
-794
-794
-794
-795
-795
-794
-790
-788
-790
-791
-794
-792
-794
-795
-797
-797
-798
-797
-797
-800
-802
-804
-808
-808
-812
-812
-814
-814
-814
-815
-814
-814
-814
-814
-814
-812
-814
-812
-812
-811
-809
-809
-807
-808
-805
-801
-791
-772
-761
-750
-734
-695
-660
-658
-683
-714
-752
-796
-838
-880
-917
-937
-929
-904
-877
-845
-817
-801
-794
-789
-787
-784
-781
-780
-779
-777
-776
-775
-775
-774
-774
-770
-770
-768
-768
-768
-765
-767
-765
-765
-763
-762
-763
-761
-762
-760
-759
-759
-754
-755
-753
-754
-749
-747
-747
-745
-744
-741
-742
-739
-740
-735
-733
-732
-730
-729
-725
-723
-720
-715
-715
-710
-710
-706
-704
-701
-698
-697
-692
-694
-689
-689
-684
-682
-682
-681
-683
-680
-682
-682
-684
-686
-692
-695
-703
-709
-715
-725
-732
-740
-748
-755
-762
-766
-772
-776
-780
-785
-785
-788
-789
-794
-792
-795
-794
-794
-797
-796
-797
-797
-798
-798
-798
-800
-797
-797
-797
-799
-800
-799
-800
-799
-799
-800
-800
-799
-799
-801
-799
-799
-799
-800
-800
-800
-802
-800
-801
-802
-802
-804
-804
-804
-804
-804
-805
-805
-806
-805
-806
-805
-806
-807
-809
-809
-808
-808
-810
-808
-808
-809
-809
-809
-809
-808
-808
-809
-809
-808
-810
-809
-809
-808
-808
-809
-808
-808
-808
-807
-808
-808
-808
-807
-808
-808
-807
-808
-808
-806
-807
-807
-806
-806
-807
-806
-806
-805
-805
-806
-805
-805
-806
-806
-806
-805
-804
-805
-804
-807
-805
-805
-804
-805
-804
-802
-803
-803
-802
-803
-802
-802
-801
-802
-802
-802
-804
-802
-802
-802
-802
-803
-801
-803
-802
-804
-804
-804
-804
-802
-803
-802
-801
-799
-797
-794
-794
-794
-792
-795
-793
-790
-789
-787
-788
-790
-792
-792
-794
-795
-795
-798
-796
-797
-800
-801
-805
-804
-810
-809
-812
-814
-814
-814
-814
-814
-812
-812
-814
-813
-812
-811
-812
-810
-809
-810
-808
-807
-805
-805
-802
-794
-778
-764
-755
-739
-713
-667
-654
-670
-705
-744
-787
-829
-866
-898
-924
-922
-905
-879
-854
-825
-805
-797
-790
-789
-784
-781
-779
-776
-777
-777
-775
-772
-774
-772
-772
-770
-770
-768
-768
-767
-765
-765
-766
-765
-764
-764
-762
-760
-760
-760
-759
-757
-755
-756
-754
-752
-750
-750
-748
-747
-744
-742
-744
-740
-740
-736
-735
-733
-730
-729
-724
-723
-718
-718
-715
-712
-709
-704
-702
-697
-696
-692
-690
-690
-687
-684
-680
-684
-680
-684
-681
-684
-686
-689
-692
-695
-702
-705
-715
-720
-731
-739
-745
-753
-759
-765
-769
-774
-777
-780
-785
-786
-789
-790
-792
-792
-794
-795
-795
-796
-795
-797
-796
-797
-799
-797
-799
-798
-798
-797
-797
-799
-797
-799
-797
-797
-797
-799
-797
-797
-798
-800
-799
-800
-799
-799
-799
-800
-800
-801
-802
-801
-802
-801
-802
-801
-804
-804
-804
-805
-804
-805
-805
-805
-805
-805
-806
-805
-805
-806
-807
-806
-807
-808
-805
-806
-804
-805
-805
-804
-805
-804
-804
-804
-805
-805
-804
-805
-804
-804
-804
-804
-804
-804
-804
-802
-804
-802
-802
-802
-802
-802
-802
-801
-801
-800
-802
-801
-802
-801
-800
-799
-799
-800
-799
-801
-799
-799
-800
-799
-799
-799
-798
-799
-798
-799
-797
-799
-798
-799
-799
-797
-798
-798
-798
-798
-799
-799
-798
-799
-798
-800
-798
-799
-799
-795
-794
-794
-791
-790
-789
-794
-792
-792
-789
-787
-784
-785
-788
-789
-789
-790
-794
-794
-795
-794
-794
-796
-797
-799
-802
-804
-805
-806
-808
-808
-810
-809
-808
-810
-808
-808
-806
-808
-806
-806
-807
-805
-805
-804
-804
-802
-801
-795
-786
-768
-756
-748
-729
-702
-662
-657
-674
-707
-749
-787
-832
-864
-889
-910
-902
-885
-859
-832
-809
-796
-792
-787
-784
-780
-776
-775
-774
-772
-771
-771
-770
-769
-769
-770
-768
-767
-767
-766
-765
-764
-765
-762
-763
-762
-760
-760
-758
-758
-755
-756
-754
-755
-754
-750
-750
-749
-747
-744
-744
-742
-739
-735
-734
-734
-732
-729
-727
-724
-720
-715
-714
-710
-709
-705
-702
-698
-696
-696
-691
-691
-689
-689
-685
-685
-684
-682
-681
-681
-684
-685
-689
-689
-694
-694
-700
-705
-711
-718
-724
-730
-739
-745
-751
-759
-765
-768
-774
-777
-781
-782
-784
-785
-788
-789
-789
-789
-791
-791
-790
-790
-794
-791
-791
-791
-792
-790
-791
-792
-791
-790
-790
-790
-792
-790
-791
-790
-793
-790
-790
-792
-792
-794
-792
-792
-794
-794
-792
-792
-795
-794
-794
-795
-794
-795
-796
-797
-796
-796
-797
-797
-798
-797
-799
-797
-797
-799
-799
-799
-799
-799
-799
-801
-800
-800
-801
-802
-799
-799
-799
-799
-797
-797
-798
-799
-797
-796
-797
-797
-796
-797
-797
-799
-796
-796
-796
-797
-796
-797
-795
-796
-795
-795
-795
-795
-796
-794
-795
-795
-795
-795
-795
-795
-795
-794
-794
-794
-794
-794
-794
-794
-794
-792
-794
-794
-794
-792
-794
-794
-794
-792
-795
-794
-794
-792
-795
-794
-793
-791
-789
-786
-785
-784
-784
-785
-786
-784
-782
-779
-779
-780
-782
-784
-785
-786
-786
-787
-788
-788
-789
-791
-792
-795
-797
-799
-801
-803
-804
-804
-805
-804
-805
-805
-805
-805
-804
-804
-804
-804
-802
-802
-801
-800
-799
-798
-795
-789
-772
-759
-750
-734
-709
-667
-649
-667
-698
-736
-777
-817
-856
-888
-915
-909
-891
-865
-834
-809
-794
-786
-782
-781
-777
-775
-775
-774
-771
-772
-771
-770
-770
-769
-770
-769
-768
-767
-765
-764
-764
-764
-761
-761
-760
-759
-759
-758
-757
-755
-754
-754
-752
-751
-745
-748
-744
-744
-740
-740
-740
-736
-737
-734
-734
-729
-729
-727
-725
-724
-719
-719
-714
-711
-708
-704
-702
-699
-697
-692
-690
-689
-687
-684
-682
-682
-681
-680
-680
-684
-683
-686
-687
-694
-698
-704
-709
-715
-724
-731
-739
-744
-752
-759
-764
-769
-772
-777
-780
-785
-785
-786
-789
-792
-791
-791
-794
-795
-794
-795
-795
-795
-795
-795
-796
-795
-797
-795
-796
-797
-798
-798
-797
-798
-798
-798
-797
-798
-798
-798
-798
-797
-798
-798
-799
-799
-799
-800
-800
-800
-802
-801
-802
-802
-804
-802
-804
-804
-805
-805
-805
-805
-805
-807
-808
-808
-807
-805
-809
-806
-809
-808
-807
-808
-807
-807
-806
-807
-806
-807
-806
-805
-806
-806
-806
-805
-805
-805
-805
-806
-805
-805
-805
-805
-805
-805
-806
-805
-805
-804
-805
-805
-805
-804
-804
-804
-804
-804
-804
-802
-802
-802
-802
-803
-802
-802
-802
-801
-800
-804
-801
-801
-800
-802
-800
-800
-800
-800
-799
-800
-799
-799
-799
-800
-799
-800
-802
-800
-800
-800
-800
-800
-800
-800
-799
-796
-794
-792
-791
-791
-792
-793
-792
-789
-787
-785
-788
-789
-790
-791
-794
-794
-795
-795
-795
-795
-799
-801
-804
-805
-807
-808
-809
-810
-812
-812
-811
-810
-812
-810
-811
-809
-810
-809
-808
-808
-807
-806
-805
-804
-802
-799
-786
-770
-757
-749
-730
-698
-659
-652
-675
-706
-749
-791
-835
-877
-909
-929
-916
-895
-867
-835
-814
-799
-794
-790
-786
-782
-781
-779
-777
-776
-776
-775
-774
-772
-771
-772
-770
-768
-768
-768
-768
-764
-765
-765
-765
-762
-762
-762
-759
-759
-756
-756
-755
-754
-754
-752
-750
-748
-748
-745
-745
-742
-740
-739
-735
-736
-734
-731
-729
-727
-724
-720
-720
-715
-714
-710
-707
-704
-699
-699
-695
-694
-689
-689
-687
-685
-684
-683
-684
-682
-684
-684
-689
-689
-694
-695
-700
-706
-714
-720
-725
-735
-742
-750
-756
-761
-768
-771
-777
-779
-782
-784
-789
-789
-789
-792
-793
-793
-793
-794
-795
-794
-794
-794
-795
-795
-795
-795
-795
-795
-796
-794
-795
-795
-798
-797
-795
-796
-795
-797
-797
-797
-798
-799
-798
-797
-799
-799
-800
-800
-799
-802
-801
-802
-802
-805
-802
-802
-802
-802
-805
-804
-804
-804
-805
-805
-804
-807
-805
-805
-806
-805
-807
-805
-806
-805
-805
-804
-804
-804
-804
-805
-804
-804
-804
-804
-804
-802
-804
-804
-804
-804
-804
-802
-802
-802
-801
-802
-802
-802
-802
-801
-804
-801
-802
-802
-804
-801
-800
-801
-802
-800
-801
-800
-800
-800
-801
-800
-801
-800
-799
-799
-800
-800
-799
-800
-799
-798
-800
-799
-799
-799
-800
-799
-799
-799
-799
-799
-799
-799
-799
-797
-798
-795
-794
-791
-790
-790
-789
-791
-790
-789
-787
-786
-785
-786
-789
-789
-792
-792
-792
-796
-794
-794
-794
-797
-800
-801
-804
-805
-807
-810
-810
-809
-808
-810
-809
-809
-809
-809
-808
-808
-808
-806
-807
-807
-805
-805
-802
-800
-797
-787
-772
-759
-750
-734
-705
-665
-652
-670
-702
-742
-786
-828
-868
-897
-920
-915
-894
-868
-840
-815
-802
-794
-789
-785
-784
-777
-776
-775
-772
-774
-773
-772
-769
-771
-771
-770
-768
-767
-768
-767
-765
-764
-764
-764
-762
-760
-760
-759
-757
-755
-755
-754
-752
-751
-750
-749
-749
-745
-745
-744
-742
-740
-739
-737
-735
-732
-729
-726
-725
-722
-722
-717
-714
-710
-710
-705
-704
-704
-700
-699
-696
-696
-694
-690
-690
-688
-687
-686
-689
-687
-690
-690
-693
-694
-699
-704
-709
-717
-720
-729
-735
-744
-750
-755
-760
-765
-771
-772
-776
-779
-781
-785
-785
-786
-786
-788
-790
-789
-790
-790
-791
-789
-790
-790
-790
-792
-790
-790
-790
-790
-790
-789
-790
-790
-793
-791
-792
-792
-794
-792
-793
-794
-792
-794
-794
-794
-795
-794
-794
-794
-794
-795
-795
-794
-794
-797
-795
-795
-797
-797
-798
-796
-797
-797
-797
-797
-798
-799
-799
-799
-799
-799
-799
-799
-800
-799
-798
-797
-797
-797
-797
-797
-797
-797
-796
-796
-796
-795
-795
-796
-796
-794
-794
-797
-795
-794
-794
-794
-795
-794
-794
-794
-794
-792
-794
-794
-794
-794
-793
-794
-792
-791
-792
-792
-792
-792
-792
-791
-792
-791
-789
-792
-790
-790
-790
-792
-791
-790
-792
-790
-792
-792
-792
-790
-788
-787
-785
-784
-782
-782
-782
-782
-781
-778
-775
-775
-777
-780
-784
-781
-784
-785
-785
-786
-785
-787
-789
-790
-794
-795
-799
-799
-802
-804
-802
-802
-802
-802
-802
-802
-803
-802
-802
-801
-802
-800
-799
-800
-798
-795
-794
-790
-781
-765
-752
-744
-728
-695
-655
-642
-663
-690
-732
-771
-809
-852
-884
-907
-904
-886
-862
-831
-804
-790
-785
-781
-779
-774
-774
-775
-774
-772
-771
-772
-770
-770
-770
-768
-768
-766
-767
-765
-765
-764
-764
-764
-764
-762
-761
-760
-759
-757
-758
-755
-755
-754
-752
-750
-749
-747
-745
-745
-745
-744
-742
-739
-739
-736
-737
-734
-732
-730
-729
-726
-722
-721
-718
-715
-710
-707
-705
-704
-702
-698
-699
-697
-697
-695
-694
-694
-690
-692
-689
-691
-690
-694
-698
-701
-706
-710
-718
-720
-730
-737
-742
-750
-755
-762
-765
-772
-775
-777
-781
-782
-785
-787
-788
-789
-789
-791
-790
-792
-792
-792
-794
-794
-794
-794
-794
-794
-793
-792
-792
-795
-792
-793
-794
-794
-794
-793
-794
-794
-794
-795
-794
-795
-795
-795
-795
-797
-795
-794
-796
-796
-797
-798
-797
-797
-799
-799
-798
-799
-800
-799
-799
-800
-800
-802
-802
-801
-801
-802
-802
-802
-804
-804
-805
-804
-804
-804
-804
-802
-802
-803
-804
-804
-803
-802
-804
-802
-802
-801
-804
-802
-800
-801
-799
-801
-802
-800
-800
-800
-799
-800
-802
-799
-800
-800
-799
-799
-799
-797
-799
-799
-798
-798
-798
-798
-797
-796
-797
-797
-795
-796
-797
-796
-797
-795
-796
-797
-796
-798
-796
-797
-797
-797
-797
-797
-798
-797
-798
-795
-794
-794
-789
-787
-786
-790
-789
-788
-785
-784
-782
-782
-785
-786
-787
-789
-790
-793
-792
-794
-792
-794
-795
-798
-801
-802
-805
-807
-808
-809
-810
-810
-809
-810
-811
-811
-810
-810
-809
-809
-809
-809
-808
-806
-805
-805
-804
-799
-789
-772
-760
-750
-732
-698
-656
-645
-667
-700
-743
-791
-832
-871
-908
-933
-932
-911
-880
-845
-817
-802
-794
-789
-787
-784
-780
-781
-779
-779
-776
-775
-775
-774
-775
-772
-771
-770
-770
-770
-768
-769
-768
-767
-765
-764
-764
-763
-762
-760
-760
-759
-758
-758
-755
-755
-754
-751
-750
-747
-747
-744
-743
-739
-739
-736
-734
-733
-730
-730
-728
-725
-724
-721
-720
-715
-714
-711
-709
-707
-702
-700
-695
-696
-692
-692
-690
-689
-687
-685
-688
-684
-688
-689
-692
-694
-695
-702
-707
-714
-718
-725
-734
-740
-750
-755
-764
-768
-774
-777
-781
-784
-787
-790
-792
-791
-794
-794
-796
-795
-797
-797
-797
-797
-797
-797
-797
-798
-798
-798
-798
-797
-797
-797
-797
-797
-797
-798
-797
-798
-799
-797
-799
-799
-800
-800
-799
-801
-799
-800
-801
-801
-800
-801
-802
-802
-802
-804
-804
-805
-804
-805
-806
-805
-806
-805
-806
-805
-805
-805
-805
-807
-806
-809
-807
-808
-808
-809
-807
-806
-807
-806
-804
-805
-805
-805
-805
-805
-805
-805
-805
-805
-804
-805
-804
-804
-803
-805
-804
-802
-802
-802
-804
-804
-804
-804
-802
-802
-800
-802
-801
-802
-802
-801
-802
-800
-800
-801
-801
-800
-800
-799
-800
-800
-801
-800
-800
-799
-802
-800
-799
-799
-802
-800
-800
-800
-799
-800
-800
-797
-796
-794
-792
-789
-790
-790
-791
-792
-788
-785
-784
-784
-787
-787
-790
-790
-792
-794
-794
-795
-794
-796
-797
-800
-804
-806
-808
-810
-812
-814
-813
-812
-812
-814
-814
-814
-812
-812
-814
-812
-812
-811
-812
-813
-809
-809
-807
-807
-799
-784
-768
-754
-744
-719
-680
-643
-644
-670
-709
-759
-804
-852
-892
-921
-942
-929
-907
-877
-845
-822
-805
-799
-794
-790
-784
-782
-780
-779
-779
-777
-777
-775
-776
-775
-774
-774
-772
-774
-771
-770
-770
-769
-768
-766
-765
-764
-763
-764
-760
-760
-759
-757
-754
-754
-754
-751
-749
-749
-749
-745
-744
-744
-740
-740
-737
-735
-733
-730
-730
-728
-727
-724
-720
-719
-715
-714
-709
-707
-704
-700
-697
-694
-694
-689
-690
-688
-689
-688
-688
-688
-685
-687
-685
-689
-692
-695
-700
-705
-714
-720
-729
-735
-744
-750
-758
-764
-770
-774
-779
-783
-786
-789
-792
-792
-794
-795
-797
-797
-797
-798
-798
-797
-797
-797
-798
-797
-797
-798
-797
-798
-798
-800
-800
-799
-799
-798
-799
-800
-800
-800
-799
-800
-799
-801
-800
-800
-801
-801
-802
-801
-801
-800
-802
-802
-802
-802
-802
-802
-804
-802
-804
-804
-807
-805
-804
-804
-806
-805
-806
-805
-805
-805
-805
-806
-806
-806
-805
-805
-807
-805
-804
-804
-805
-804
-804
-802
-804
-804
-802
-804
-803
-802
-801
-802
-803
-801
-802
-801
-802
-800
-801
-800
-801
-801
-800
-800
-799
-799
-799
-799
-799
-799
-799
-799
-797
-799
-799
-800
-797
-798
-798
-797
-797
-798
-797
-797
-796
-798
-795
-797
-796
-796
-797
-797
-794
-790
-790
-788
-787
-785
-785
-787
-787
-785
-780
-779
-780
-781
-785
-785
-787
-787
-789
-790
-790
-789
-790
-792
-796
-797
-800
-802
-805
-805
-806
-809
-808
-807
-808
-808
-808
-807
-809
-807
-807
-805
-806
-805
-804
-805
-804
-801
-800
-791
-779
-764
-755
-744
-725
-687
-650
-649
-671
-710
-753
-795
-839
-875
-904
-919
-907
-887
-861
-834
-810
-797
-792
-789
-785
-782
-780
-777
-776
-776
-777
-773
-774
-774
-772
-772
-771
-772
-770
-768
-768
-767
-768
-764
-765
-765
-764
-760
-760
-760
-759
-758
-757
-756
-755
-754
-753
-750
-750
-750
-747
-747
-744
-744
-740
-740
-739
-734
-734
-730
-730
-725
-724
-720
-715
-715
-710
-710
-708
-705
-702
-699
-698
-694
-695
-691
-690
-689
-688
-689
-685
-689
-687
-691
-690
-694
-699
-700
-706
-710
-720
-725
-732
-744
-749
-756
-760
-765
-769
-775
-777
-780
-782
-784
-786
-787
-787
-788
-788
-790
-789
-790
-791
-789
-791
-790
-790
-790
-789
-789
-789
-790
-790
-789
-789
-789
-790
-789
-789
-789
-789
-790
-789
-790
-791
-791
-790
-792
-792
-792
-792
-794
-793
-795
-792
-794
-792
-796
-794
-795
-794
-794
-795
-795
-795
-795
-797
-797
-796
-796
-798
-797
-799
-797
-798
-798
-797
-797
-799
-797
-797
-796
-796
-796
-795
-796
-796
-795
-795
-795
-795
-795
-795
-794
-795
-794
-795
-794
-794
-794
-796
-794
-794
-792
-794
-794
-792
-792
-794
-792
-794
-792
-794
-792
-793
-794
-792
-792
-791
-792
-792
-792
-792
-790
-791
-792
-791
-792
-792
-791
-791
-792
-792
-793
-792
-790
-793
-791
-789
-787
-785
-784
-783
-784
-784
-785
-784
-780
-779
-776
-779
-780
-781
-782
-784
-788
-787
-789
-788
-789
-789
-792
-794
-797
-799
-801
-802
-807
-805
-805
-805
-804
-807
-805
-805
-806
-806
-805
-804
-804
-804
-804
-802
-802
-802
-799
-796
-789
-776
-759
-749
-735
-710
-672
-640
-649
-674
-714
-755
-797
-840
-875
-909
-925
-911
-889
-858
-829
-805
-794
-789
-785
-782
-777
-777
-776
-776
-774
-772
-772
-772
-772
-769
-770
-770
-770
-768
-768
-768
-767
-766
-765
-765
-765
-764
-762
-759
-759
-756
-755
-755
-754
-754
-750
-751
-750
-749
-749
-745
-745
-742
-740
-739
-738
-735
-732
-731
-727
-725
-724
-720
-719
-715
-714
-711
-709
-707
-704
-702
-699
-699
-694
-691
-687
-688
-687
-684
-687
-685
-690
-689
-690
-694
-697
-702
-705
-710
-715
-724
-730
-737
-745
-750
-757
-763
-768
-774
-776
-781
-784
-785
-787
-789
-790
-792
-794
-795
-794
-794
-795
-795
-795
-795
-795
-796
-796
-795
-795
-796
-795
-795
-795
-795
-794
-796
-795
-794
-795
-797
-795
-794
-795
-798
-795
-798
-796
-799
-798
-798
-797
-799
-800
-799
-800
-800
-801
-802
-801
-804
-802
-803
-804
-804
-804
-804
-805
-805
-804
-805
-804
-806
-805
-807
-805
-806
-806
-804
-805
-805
-805
-804
-804
-805
-804
-804
-805
-805
-804
-804
-804
-804
-805
-804
-805
-805
-804
-805
-805
-804
-804
-804
-805
-802
-804
-803
-803
-804
-803
-802
-802
-802
-801
-801
-804
-800
-802
-801
-800
-801
-802
-800
-801
-801
-800
-799
-800
-799
-800
-799
-799
-799
-799
-799
-799
-799
-799
-799
-800
-799
-800
-800
-800
-800
-799
-797
-794
-792
-791
-792
-789
-789
-791
-791
-787
-784
-784
-788
-787
-788
-789
-791
-793
-794
-795
-792
-794
-794
-799
-804
-804
-805
-807
-809
-810
-810
-810
-812
-811
-812
-811
-812
-810
-812
-810
-810
-810
-809
-809
-807
-807
-805
-805
-801
-792
-776
-762
-754
-738
-710
-665
-649
-664
-695
-733
-781
-826
-867
-902
-930
-929
-912
-885
-854
-824
-807
-798
-794
-790
-785
-784
-781
-781
-780
-779
-779
-778
-778
-776
-775
-774
-774
-772
-772
-771
-770
-768
-767
-765
-765
-764
-765
-764
-762
-760
-759
-760
-758
-756
-755
-754
-754
-750
-750
-747
-747
-745
-742
-742
-739
-739
-735
-735
-730
-725
-727
-723
-720
-718
-716
-712
-709
-707
-704
-702
-699
-695
-694
-690
-692
-689
-690
-685
-687
-686
-685
-689
-687
-691
-692
-696
-699
-706
-710
-717
-725
-730
-740
-746
-755
-762
-765
-771
-774
-780
-782
-785
-788
-787
-791
-792
-792
-792
-793
-795
-794
-794
-794
-797
-795
-795
-795
-796
-795
-795
-794
-795
-794
-795
-794
-794
-795
-795
-795
-794
-794
-794
-795
-796
-797
-797
-798
-797
-799
-800
-801
-800
-800
-800
-800
-801
-802
-802
-802
-802
-802
-803
-804
-804
-804
-805
-805
-805
-804
-804
-804
-805
-805
-805
-806
-804
-805
-805
-807
-804
-804
-804
-805
-804
-804
-804
-804
-804
-803
-802
-803
-804
-804
-804
-802
-804
-803
-802
-802
-802
-802
-802
-802
-801
-801
-801
-801
-802
-801
-800
-800
-799
-800
-799
-801
-800
-799
-800
-799
-800
-800
-800
-800
-800
-799
-799
-799
-798
-798
-799
-799
-799
-798
-800
-797
-799
-797
-799
-799
-797
-798
-797
-799
-797
-795
-795
-790
-789
-787
-786
-788
-788
-789
-787
-784
-781
-781
-784
-785
-785
-787
-790
-791
-792
-794
-792
-794
-796
-797
-800
-801
-804
-805
-807
-808
-810
-810
-809
-808
-809
-808
-807
-808
-808
-808
-805
-807
-805
-807
-804
-804
-804
-804
-800
-794
-779
-764
-754
-744
-724
-690
-650
-650
-670
-709
-750
-795
-842
-877
-906
-928
-918
-899
-870
-840
-815
-802
-794
-789
-785
-781
-777
-776
-775
-775
-774
-774
-774
-772
-770
-770
-767
-767
-767
-765
-765
-764
-764
-764
-761
-760
-761
-760
-756
-759
-758
-757
-754
-754
-752
-750
-749
-748
-746
-748
-745
-746
-742
-742
-740
-739
-738
-735
-734
-730
-730
-728
-724
-720
-717
-715
-712
-710
-706
-704
-700
-696
-695
-692
-692
-689
-688
-689
-689
-691
-689
-694
-694
-696
-699
-701
-706
-707
-714
-719
-725
-732
-739
-744
-751
-759
-764
-767
-773
-776
-778
-781
-784
-785
-787
-787
-787
-790
-790
-790
-790
-790
-791
-790
-790
-790
-789
-791
-790
-790
-789
-790
-790
-789
-789
-790
-790
-789
-790
-789
-789
-791
-790
-791
-790
-791
-791
-791
-792
-792
-794
-794
-792
-793
-794
-794
-794
-795
-797
-795
-795
-796
-799
-796
-797
-797
-797
-797
-797
-798
-797
-798
-799
-797
-797
-797
-798
-797
-797
-798
-797
-795
-796
-797
-797
-795
-795
-795
-796
-794
-795
-795
-794
-795
-795
-795
-795
-794
-794
-794
-794
-793
-793
-794
-792
-792
-790
-792
-790
-792
-791
-792
-793
-792
-791
-790
-790
-792
-790
-791
-790
-792
-790
-789
-790
-789
-790
-789
-789
-790
-789
-789
-789
-790
-789
-789
-789
-789
-789
-787
-784
-782
-780
-780
-777
-779
-779
-780
-778
-775
-774
-774
-779
-778
-779
-782
-782
-784
-784
-784
-785
-785
-787
-789
-792
-792
-795
-797
-799
-799
-797
-799
-800
-797
-798
-797
-800
-799
-799
-799
-797
-798
-797
-797
-795
-794
-794
-789
-784
-765
-753
-742
-726
-696
-654
-638
-651
-675
-712
-757
-796
-842
-877
-901
-902
-884
-859
-829
-804
-789
-782
-778
-775
-771
-768
-768
-768
-767
-767
-765
-765
-764
-764
-760
-762
-762
-760
-760
-759
-759
-759
-755
-759
-757
-755
-754
-754
-752
-750
-750
-750
-750
-747
-748
-745
-744
-744
-739
-739
-738
-735
-734
-732
-730
-729
-729
-725
-723
-722
-719
-719
-715
-715
-710
-708
-705
-701
-700
-698
-698
-692
-691
-690
-690
-690
-689
-690
-688
-689
-690
-692
-697
-697
-700
-702
-707
-710
-721
-727
-734
-742
-745
-754
-758
-764
-766
-769
-774
-775
-778
-779
-780
-782
-784
-785
-785
-787
-787
-788
-787
-787
-789
-787
-787
-787
-787
-788
-787
-787
-788
-787
-787
-787
-788
-786
-788
-787
-787
-786
-787
-787
-789
-789
-790
-789
-790
-790
-792
-791
-792
-792
-794
-794
-794
-794
-793
-794
-795
-794
-794
-795
-795
-796
-795
-795
-795
-797
-797
-796
-797
-797
-797
-797
-797
-798
-798
-798
-797
-796
-796
-795
-796
-794
-796
-795
-796
-796
-796
-797
-797
-797
-796
-795
-796
-796
-797
-796
-796
-796
-795
-796
-794
-797
-795
-794
-794
-796
-794
-794
-794
-794
-795
-794
-794
-794
-793
-794
-794
-794
-794
-792
-794
-791
-792
-794
-792
-792
-792
-794
-792
-794
-792
-792
-792
-792
-794
-792
-794
-794
-794
-793
-792
-792
-791
-789
-787
-784
-784
-782
-785
-784
-785
-782
-779
-779
-779
-782
-785
-784
-786
-785
-789
-788
-788
-788
-789
-792
-794
-797
-799
-801
-802
-804
-804
-804
-804
-804
-805
-804
-804
-804
-805
-804
-804
-802
-802
-802
-802
-801
-800
-799
-796
-790
-779
-764
-752
-742
-719
-681
-650
-654
-678
-707
-752
-794
-835
-874
-906
-924
-910
-884
-857
-829
-805
-794
-788
-785
-781
-777
-777
-775
-774
-775
-774
-774
-771
-771
-771
-769
-770
-768
-769
-767
-765
-765
-764
-764
-762
-761
-760
-759
-758
-755
-756
-752
-752
-750
-749
-747
-747
-746
-744
-744
-742
-740
-740
-737
-736
-734
-731
-727
-727
-724
-722
-720
-716
-714
-709
-708
-705
-702
-702
-699
-698
-695
-695
-692
-690
-689
-689
-689
-687
-689
-689
-690
-690
-693
-696
-698
-704
-709
-718
-724
-730
-737
-744
-751
-756
-762
-765
-770
-774
-775
-780
-781
-784
-786
-787
-787
-787
-789
-789
-790
-791
-791
-792
-791
-792
-791
-792
-794
-792
-795
-792
-793
-792
-795
-792
-794
-794
-794
-794
-794
-794
-795
-794
-795
-794
-795
-795
-795
-795
-795
-795
-795
-796
-797
-797
-799
-800
-800
-799
-800
-800
-802
-802
-802
-802
-802
-802
-804
-803
-804
-804
-804
-804
-804
-804
-804
-805
-804
-804
-804
-804
-804
-804
-804
-805
-804
-804
-802
-804
-802
-804
-802
-805
-804
-802
-804
-802
-804
-802
-802
-802
-802
-802
-802
-802
-802
-801
-801
-800
-801
-802
-801
-802
-800
-801
-799
-802
-800
-801
-800
-799
-800
-799
-800
-799
-799
-799
-799
-799
-798
-800
-800
-798
-798
-797
-799
-798
-797
-798
-800
-799
-797
-798
-800
-798
-799
-799
-800
-799
-797
-797
-797
-797
-797
-796
-794
-792
-789
-789
-791
-790
-790
-789
-786
-785
-784
-784
-786
-788
-789
-790
-791
-792
-794
-792
-793
-794
-797
-799
-801
-804
-805
-807
-808
-808
-808
-808
-808
-807
-807
-807
-808
-807
-807
-809
-805
-805
-805
-805
-804
-802
-801
-799
-787
-770
-757
-747
-730
-698
-655
-650
-664
-696
-740
-791
-835
-875
-907
-924
-915
-894
-866
-835
-810
-797
-791
-786
-784
-779
-776
-776
-775
-774
-772
-772
-772
-771
-771
-770
-768
-768
-766
-768
-765
-766
-764
-762
-762
-760
-758
-758
-757
-755
-754
-755
-755
-754
-750
-753
-750
-750
-748
-745
-745
-742
-744
-740
-739
-736
-735
-734
-731
-730
-726
-725
-721
-719
-715
-710
-710
-705
-704
-700
-702
-699
-696
-697
-694
-694
-693
-692
-690
-690
-690
-690
-694
-692
-695
-697
-702
-708
-714
-721
-725
-735
-742
-749
-755
-759
-765
-768
-774
-774
-780
-782
-784
-785
-785
-788
-789
-789
-790
-789
-791
-792
-792
-790
-791
-791
-791
-792
-791
-791
-792
-792
-790
-790
-790
-791
-792
-792
-792
-792
-791
-793
-791
-792
-792
-792
-794
-792
-794
-794
-795
-795
-795
-794
-796
-798
-797
-797
-800
-799
-802
-800
-799
-800
-802
-800
-800
-802
-799
-801
-802
-801
-802
-801
-803
-801
-802
-801
-800
-801
-799
-801
-799
-800
-801
-800
-800
-799
-801
-800
-799
-800
-799
-799
-799
-799
-799
-800
-800
-799
-800
-799
-799
-799
-799
-799
-799
-799
-798
-798
-797
-798
-797
-797
-798
-799
-797
-797
-797
-800
-797
-797
-795
-795
-795
-795
-796
-795
-795
-796
-795
-795
-795
-795
-795
-795
-794
-795
-795
-795
-796
-796
-795
-796
-796
-796
-795
-795
-795
-795
-795
-795
-795
-795
-794
-791
-789
-787
-787
-790
-790
-789
-786
-785
-782
-781
-784
-785
-785
-789
-791
-792
-790
-792
-794
-793
-794
-794
-797
-799
-801
-804
-804
-805
-804
-805
-805
-805
-805
-806
-806
-805
-806
-804
-804
-803
-802
-802
-800
-800
-799
-795
-785
-769
-755
-747
-731
-702
-662
-651
-669
-699
-740
-779
-820
-862
-887
-905
-904
-885
-864
-835
-812
-797
-794
-791
-785
-780
-777
-774
-775
-775
-774
-772
-772
-772
-772
-770
-771
-768
-768
-767
-766
-767
-765
-765
-764
-762
-760
-759
-759
-759
-759
-757
-755
-754
-754
-752
-750
-751
-747
-748
-746
-745
-744
-740
-741
-740
-737
-735
-734
-732
-728
-727
-722
-720
-716
-715
-712
-710
-709
-705
-705
-700
-699
-699
-697
-695
-692
-694
-694
-695
-694
-695
-695
-699
-704
-702
-707
-710
-717
-722
-730
-737
-743
-749
-754
-760
-765
-768
-771
-774
-776
-779
-781
-782
-782
-785
-784
-785
-785
-785
-787
-786
-788
-786
-788
-787
-785
-785
-786
-787
-785
-786
-786
-787
-787
-786
-788
-788
-787
-788
-786
-789
-786
-787
-786
-789
-790
-789
-790
-789
-789
-791
-791
-792
-790
-792
-790
-792
-793
-792
-794
-794
-794
-794
-794
-795
-794
-794
-794
-796
-794
-795
-795
-795
-795
-796
-795
-795
-795
-794
-794
-795
-794
-794
-794
-794
-794
-794
-795
-794
-794
-791
-794
-792
-792
-792
-792
-793
-792
-792
-792
-791
-792
-792
-792
-792
-791
-792
-791
-791
-789
-790
-791
-790
-789
-790
-790
-789
-790
-789
-789
-789
-789
-791
-790
-790
-789
-789
-789
-789
-790
-790
-789
-789
-790
-789
-786
-784
-781
-781
-779
-780
-780
-782
-779
-776
-774
-772
-775
-778
-779
-782
-782
-782
-784
-785
-785
-786
-787
-790
-792
-794
-795
-799
-800
-801
-801
-801
-801
-801
-800
-800
-800
-800
-800
-800
-800
-799
-800
-797
-797
-796
-795
-794
-787
-775
-760
-750
-740
-718
-675
-649
-656
-685
-720
-764
-800
-838
-877
-906
-914
-896
-870
-842
-815
-797
-790
-785
-781
-779
-775
-774
-774
-774
-773
-771
-771
-770
-770
-769
-768
-770
-767
-765
-766
-765
-766
-764
-764
-764
-762
-760
-760
-759
-758
-758
-757
-755
-754
-753
-753
-751
-750
-749
-749
-746
-744
-744
-742
-740
-739
-737
-735
-731
-732
-730
-729
-725
-724
-720
-717
-715
-712
-713
-709
-708
-704
-702
-700
-699
-700
-697
-699
-699
-699
-700
-700
-705
-705
-708
-707
-712
-717
-724
-730
-736
-745
-749
-755
-760
-765
-770
-774
-778
-779
-782
-785
-786
-787
-789
-791
-790
-790
-791
-792
-794
-794
-794
-795
-794
-794
-794
-797
-794
-794
-794
-795
-795
-794
-794
-794
-794
-793
-792
-792
-793
-792
-792
-794
-794
-794
-794
-795
-796
-795
-795
-796
-795
-798
-797
-799
-798
-797
-799
-797
-799
-799
-800
-801
-800
-801
-800
-801
-802
-802
-803
-802
-804
-802
-804
-804
-802
-802
-802
-802
-801
-802
-804
-802
-804
-801
-804
-801
-801
-801
-801
-802
-801
-801
-800
-801
-800
-801
-801
-801
-800
-800
-800
-801
-799
-799
-800
-800
-799
-799
-800
-799
-800
-798
-797
-798
-798
-797
-798
-797
-796
-797
-797
-797
-798
-797
-797
-797
-797
-797
-795
-797
-795
-796
-797
-796
-796
-798
-797
-796
-797
-799
-797
-797
-797
-795
-794
-791
-789
-789
-788
-788
-788
-787
-785
-784
-781
-781
-784
-785
-785
-785
-788
-789
-789
-790
-791
-792
-794
-797
-799
-801
-803
-805
-807
-806
-807
-807
-807
-807
-808
-807
-806
-807
-806
-805
-805
-805
-805
-804
-804
-802
-804
-800
-794
-784
-765
-758
-745
-725
-688
-655
-659
-685
-716
-759
-801
-842
-879
-911
-922
-910
-884
-859
-830
-810
-799
-792
-787
-784
-781
-780
-780
-780
-779
-778
-777
-776
-775
-775
-774
-772
-772
-769
-770
-768
-768
-766
-765
-764
-762
-764
-761
-762
-760
-759
-758
-755
-757
-755
-755
-750
-754
-750
-749
-749
-745
-746
-744
-744
-741
-739
-737
-735
-734
-730
-729
-725
-722
-722
-718
-717
-710
-710
-705
-700
-700
-696
-698
-694
-694
-691
-689
-690
-690
-690
-689
-694
-695
-699
-700
-705
-713
-717
-725
-730
-739
-745
-750
-759
-763
-768
-768
-774
-779
-781
-787
-785
-788
-790
-791
-792
-792
-794
-794
-794
-794
-792
-794
-794
-794
-794
-794
-795
-794
-795
-795
-795
-794
-794
-795
-794
-794
-795
-794
-794
-795
-796
-795
-797
-797
-798
-798
-797
-797
-797
-799
-800
-800
-800
-800
-801
-801
-803
-802
-802
-802
-804
-804
-802
-804
-805
-804
-804
-804
-805
-805
-805
-805
-804
-804
-804
-804
-804
-804
-804
-802
-804
-802
-802
-802
-803
-804
-802
-802
-802
-804
-804
-804
-804
-802
-802
-801
-801
-802
-801
-800
-801
-800
-799
-799
-800
-799
-800
-799
-799
-799
-799
-799
-799
-799
-799
-800
-799
-797
-798
-800
-799
-797
-798
-800
-797
-797
-796
-798
-797
-798
-797
-797
-797
-798
-799
-798
-798
-798
-798
-798
-798
-795
-792
-792
-789
-787
-789
-789
-790
-788
-785
-784
-782
-784
-785
-788
-788
-789
-791
-791
-794
-792
-794
-794
-796
-800
-802
-804
-805
-808
-811
-810
-809
-809
-812
-809
-810
-809
-810
-809
-808
-808
-806
-807
-807
-805
-805
-804
-804
-801
-798
-784
-768
-754
-744
-727
-690
-647
-642
-669
-704
-752
-798
-842
-884
-910
-929
-919
-894
-871
-841
-817
-804
-795
-789
-785
-781
-777
-777
-775
-775
-771
-772
-772
-773
-770
-770
-771
-770
-768
-768
-768
-767
-764
-767
-765
-764
-764
-761
-760
-759
-759
-755
-754
-754
-753
-754
-750
-750
-746
-745
-744
-742
-740
-739
-738
-734
-731
-730
-728
-725
-720
-718
-712
-712
-709
-704
-701
-697
-696
-694
-694
-691
-689
-689
-687
-688
-685
-685
-685
-685
-688
-689
-690
-688
-694
-696
-702
-705
-714
-722
-729
-739
-743
-750
-755
-761
-768
-770
-777
-776
-780
-782
-784
-785
-786
-787
-787
-789
-790
-788
-789
-789
-790
-790
-791
-790
-790
-791
-789
-791
-791
-791
-790
-790
-790
-789
-791
-789
-790
-789
-790
-790
-789
-789
-790
-789
-789
-790
-794
-791
-792
-791
-794
-791
-791
-792
-792
-794
-792
-794
-794
-794
-794
-793
-794
-794
-794
-795
-795
-795
-795
-795
-795
-794
-794
-795
-794
-794
-795
-794
-792
-792
-792
-791
-790
-791
-791
-791
-791
-789
-789
-790
-789
-791
-790
-790
-789
-789
-789
-789
-788
-787
-787
-789
-788
-787
-787
-790
-786
-786
-787
-787
-786
-787
-787
-787
-787
-786
-785
-785
-787
-786
-782
-782
-779
-778
-777
-777
-779
-779
-778
-774
-772
-771
-775
-776
-776
-777
-779
-780
-781
-781
-781
-782
-785
-786
-789
-792
-794
-795
-796
-797
-797
-798
-800
-799
-800
-799
-800
-800
-799
-799
-800
-799
-798
-796
-795
-795
-795
-790
-784
-769
-755
-744
-732
-707
-670
-644
-649
-671
-707
-754
-790
-834
-872
-902
-910
-890
-869
-840
-814
-796
-787
-784
-781
-777
-775
-774
-774
-772
-771
-770
-771
-770
-770
-767
-768
-767
-766
-765
-765
-765
-764
-762
-762
-761
-762
-759
-760
-757
-758
-755
-754
-754
-751
-754
-750
-750
-750
-748
-747
-744
-742
-739
-738
-735
-733
-734
-731
-730
-725
-724
-720
-718
-717
-714
-714
-709
-709
-705
-702
-700
-698
-698
-692
-693
-690
-694
-694
-694
-695
-694
-697
-695
-700
-702
-709
-714
-718
-726
-732
-739
-741
-752
-755
-764
-768
-772
-777
-779
-781
-782
-784
-784
-785
-785
-788
-787
-787
-789
-789
-789
-790
-790
-790
-790
-789
-790
-789
-790
-790
-790
-789
-790
-789
-790
-790
-789
-789
-789
-789
-789
-787
-789
-789
-790
-789
-789
-790
-789
-790
-790
-790
-792
-791
-792
-792
-795
-793
-792
-793
-792
-794
-792
-794
-794
-794
-795
-794
-795
-795
-795
-795
-796
-795
-795
-795
-794
-795
-795
-794
-794
-794
-794
-792
-794
-794
-793
-793
-792
-792
-791
-792
-792
-792
-792
-790
-791
-791
-791
-792
-790
-791
-791
-790
-789
-790
-790
-792
-789
-789
-789
-792
-789
-790
-790
-790
-789
-790
-790
-788
-786
-784
-781
-780
-779
-779
-780
-782
-779
-777
-775
-775
-777
-780
-780
-780
-782
-785
-785
-786
-785
-785
-787
-789
-794
-794
-797
-798
-801
-802
-802
-802
-802
-804
-804
-804
-804
-804
-805
-804
-804
-804
-805
-804
-802
-801
-801
-798
-791
-777
-760
-750
-739
-714
-675
-647
-655
-679
-716
-759
-801
-845
-884
-918
-929
-909
-884
-852
-824
-805
-796
-789
-787
-784
-782
-781
-780
-780
-777
-777
-777
-774
-775
-775
-775
-775
-774
-772
-771
-771
-770
-769
-768
-767
-766
-764
-764
-760
-762
-760
-760
-759
-757
-759
-758
-754
-754
-751
-753
-750
-749
-747
-745
-745
-740
-740
-738
-735
-734
-730
-730
-725
-724
-719
-718
-714
-714
-712
-706
-706
-701
-700
-697
-695
-695
-694
-694
-694
-695
-695
-695
-695
-698
-704
-705
-710
-714
-722
-729
-735
-742
-749
-755
-760
-767
-772
-774
-781
-782
-785
-789
-789
-792
-792
-794
-794
-796
-795
-795
-797
-795
-796
-799
-797
-797
-797
-798
-797
-796
-797
-796
-796
-796
-795
-796
-796
-796
-796
-797
-797
-797
-797
-797
-798
-797
-798
-797
-798
-797
-799
-799
-799
-800
-800
-801
-800
-800
-802
-800
-803
-802
-804
-802
-804
-804
-805
-804
-804
-804
-804
-804
-804
-804
-804
-804
-805
-804
-805
-804
-802
-804
-804
-803
-802
-802
-803
-802
-802
-801
-802
-801
-802
-801
-801
-800
-801
-800
-800
-800
-800
-799
-802
-800
-799
-800
-800
-800
-800
-799
-799
-798
-799
-800
-799
-797
-798
-800
-797
-798
-796
-800
-798
-797
-798
-797
-797
-797
-796
-796
-796
-795
-795
-792
-789
-787
-786
-785
-787
-786
-785
-782
-780
-780
-782
-785
-785
-786
-788
-790
-790
-791
-791
-791
-792
-795
-797
-800
-802
-805
-808
-807
-808
-807
-808
-809
-808
-809
-809
-809
-807
-809
-809
-807
-808
-805
-807
-804
-804
-802
-799
-795
-779
-765
-752
-740
-715
-676
-645
-652
-680
-717
-765
-807
-852
-889
-916
-930
-912
-885
-857
-828
-809
-798
-791
-788
-785
-780
-779
-777
-776
-777
-775
-775
-774
-774
-774
-771
-772
-770
-770
-768
-768
-765
-764
-764
-762
-760
-761
-760
-760
-757
-759
-756
-757
-754
-754
-754
-752
-752
-748
-747
-745
-745
-742
-740
-740
-737
-736
-731
-732
-727
-726
-724
-722
-720
-717
-717
-714
-710
-709
-705
-705
-702
-700
-698
-695
-697
-694
-694
-690
-695
-693
-695
-699
-699
-705
-706
-715
-719
-727
-734
-738
-745
-752
-761
-764
-770
-774
-778
-781
-784
-787
-788
-790
-791
-793
-794
-794
-794
-794
-794
-795
-794
-795
-795
-796
-795
-795
-795
-794
-796
-794
-794
-795
-794
-795
-794
-794
-794
-794
-794
-795
-796
-794
-797
-797
-797
-797
-796
-797
-798
-797
-798
-798
-799
-799
-801
-800
-801
-802
-802
-801
-801
-802
-800
-802
-802
-801
-801
-802
-804
-804
-804
-804
-804
-804
-804
-804
-804
-802
-804
-802
-801
-802
-802
-802
-801
-802
-801
-801
-801
-800
-801
-802
-802
-800
-800
-800
-799
-800
-799
-800
-800
-799
-800
-798
-799
-799
-800
-799
-797
-799
-798
-799
-799
-800
-797
-797
-797
-795
-797
-797
-795
-795
-795
-795
-795
-796
-797
-797
-796
-795
-795
-796
-795
-795
-795
-795
-795
-795
-795
-792
-790
-788
-787
-787
-786
-788
-788
-785
-782
-781
-780
-782
-784
-785
-788
-787
-790
-790
-792
-792
-791
-794
-795
-797
-801
-802
-805
-806
-809
-808
-808
-807
-807
-809
-808
-807
-806
-805
-805
-805
-807
-805
-805
-804
-804
-804
-801
-799
-795
-785
-769
-759
-750
-732
-704
-660
-649
-665
-699
-739
-780
-824
-865
-896
-922
-915
-896
-870
-844
-819
-805
-798
-792
-788
-784
-780
-777
-777
-775
-774
-775
-772
-772
-768
-770
-770
-770
-766
-767
-765
-765
-765
-765
-765
-765
-764
-764
-762
-760
-760
-759
-760
-758
-755
-757
-754
-754
-750
-750
-748
-746
-745
-744
-744
-740
-740
-737
-736
-734
-730
-729
-725
-725
-723
-720
-717
-712
-710
-705
-705
-704
-702
-700
-699
-697
-698
-699
-695
-694
-694
-694
-699
-697
-699
-700
-705
-710
-714
-721
-728
-739
-742
-750
-755
-762
-767
-769
-774
-776
-780
-781
-784
-785
-785
-787
-787
-789
-789
-789
-789
-790
-789
-789
-790
-791
-790
-791
-789
-790
-789
-789
-790
-789
-789
-789
-789
-788
-787
-787
-789
-787
-789
-788
-790
-789
-789
-789
-791
-790
-789
-790
-789
-791
-791
-792
-792
-792
-793
-792
-795
-795
-794
-794
-794
-795
-794
-794
-795
-795
-796
-795
-795
-795
-795
-796
-795
-797
-794
-795
-795
-795
-796
-794
-794
-794
-794
-795
-794
-794
-794
-794
-794
-794
-794
-794
-795
-793
-792
-795
-793
-792
-791
-794
-792
-792
-792
-791
-792
-792
-790
-790
-791
-790
-790
-792
-791
-789
-789
-791
-790
-790
-789
-789
-789
-789
-789
-789
-788
-789
-787
-789
-789
-789
-789
-789
-789
-789
-789
-789
-789
-789
-790
-789
-787
-785
-784
-780
-780
-779
-782
-780
-780
-776
-774
-773
-774
-777
-775
-780
-781
-782
-782
-784
-784
-784
-785
-787
-789
-790
-794
-795
-796
-797
-799
-799
-799
-798
-798
-797
-798
-797
-797
-796
-795
-795
-795
-795
-795
-794
-791
-790
-789
-786
-779
-763
-747
-739
-722
-694
-650
-637
-648
-679
-718
-758
-798
-839
-877
-907
-900
-884
-855
-827
-802
-786
-780
-776
-774
-770
-768
-768
-768
-765
-765
-764
-764
-764
-762
-762
-760
-761
-762
-760
-760
-759
-759
-757
-755
-755
-754
-754
-750
-750
-750
-748
-747
-746
-745
-744
-743
-741
-740
-739
-736
-736
-734
-732
-730
-727
-726
-724
-724
-723
-720
-717
-715
-714
-709
-710
-707
-705
-703
-700
-696
-693
-693
-688
-688
-684
-687
-684
-684
-685
-684
-687
-686
-692
-692
-697
-700
-707
-715
-719
-729
-734
-740
-745
-750
-758
-760
-765
-768
-772
-775
-776
-779
-780
-781
-782
-784
-785
-785
-785
-785
-785
-785
-785
-786
-788
-786
-787
-786
-789
-787
-787
-787
-787
-787
-785
-786
-785
-786
-786
-786
-785
-785
-785
-784
-785
-785
-787
-785
-787
-787
-786
-786
-787
-789
-789
-789
-789
-789
-790
-790
-792
-793
-792
-792
-792
-794
-794
-795
-795
-795
-795
-795
-795
-795
-796
-798
-796
-795
-795
-797
-795
-795
-796
-795
-795
-795
-794
-794
-795
-795
-795
-795
-795
-794
-795
-794
-795
-795
-794
-794
-794
-795
-794
-795
-794
-794
-794
-794
-795
-794
-794
-794
-792
-792
-792
-794
-792
-792
-792
-792
-792
-790
-792
-791
-790
-790
-791
-791
-790
-792
-790
-790
-789
-789
-792
-789
-790
-791
-794
-791
-790
-790
-789
-790
-790
-790
-791
-789
-790
-789
-790
-791
-791
-789
-787
-785
-782
-782
-782
-782
-782
-782
-780
-777
-775
-776
-777
-781
-780
-782
-784
-785
-785
-786
-785
-785
-788
-789
-794
-795
-797
-800
-800
-802
-801
-802
-802
-802
-801
-804
-802
-802
-800
-804
-800
-799
-799
-800
-798
-797
-796
-795
-792
-787
-772
-758
-746
-735
-713
-673
-644
-650
-676
-710
-755
-799
-837
-877
-905
-918
-901
-874
-845
-816
-797
-789
-784
-780
-777
-774
-774
-772
-770
-771
-770
-770
-768
-769
-768
-766
-767
-765
-767
-765
-762
-764
-761
-761
-759
-759
-757
-757
-755
-754
-755
-754
-754
-752
-751
-749
-745
-745
-744
-744
-742
-739
-739
-736
-735
-734
-732
-731
-729
-729
-725
-724
-720
-720
-719
-714
-712
-707
-707
-702
-700
-700
-697
-697
-694
-694
-690
-690
-688
-687
-690
-690
-694
-694
-698
-699
-705
-710
-717
-724
-730
-740
-745
-750
-758
-761
-768
-770
-775
-777
-779
-782
-784
-785
-785
-789
-789
-789
-789
-789
-789
-789
-791
-790
-791
-791
-789
-790
-790
-791
-790
-790
-790
-790
-790
-790
-789
-791
-790
-790
-789
-790
-790
-791
-792
-792
-793
-793
-792
-794
-795
-794
-795
-794
-797
-795
-796
-795
-799
-797
-795
-797
-797
-798
-798
-799
-799
-799
-800
-800
-804
-802
-802
-802
-801
-803
-802
-802
-802
-802
-802
-800
-801
-801
-801
-802
-800
-800
-801
-800
-801
-800
-802
-800
-801
-801
-800
-802
-800
-802
-801
-802
-800
-800
-800
-802
-802
-800
-800
-803
-800
-802
-801
-804
-800
-800
-801
-799
-801
-799
-800
-800
-799
-799
-799
-801
-799
-800
-800
-799
-800
-800
-799
-799
-799
-799
-799
-799
-799
-799
-797
-799
-800
-798
-797
-799
-799
-799
-798
-798
-797
-799
-797
-798
-799
-798
-799
-798
-799
-798
-799
-799
-799
-800
-800
-797
-796
-794
-794
-789
-789
-788
-788
-789
-787
-785
-784
-782
-781
-784
-787
-785
-785
-787
-789
-789
-789
-789
-789
-791
-794
-797
-799
-800
-802
-804
-805
-804
-805
-805
-805
-805
-804
-804
-804
-804
-804
-804
-802
-802
-800
-801
-799
-800
-797
-795
-794
-785
-772
-755
-746
-732
-709
-665
-640
-649
-680
-718
-760
-804
-844
-882
-914
-920
-902
-875
-850
-824
-801
-792
-786
-782
-779
-775
-772
-772
-770
-770
-770
-768
-767
-765
-765
-765
-765
-764
-762
-762
-762
-761
-760
-759
-758
-755
-756
-755
-754
-754
-752
-754
-750
-749
-747
-745
-744
-744
-744
-741
-738
-738
-736
-737
-734
-734
-730
-729
-725
-722
-721
-718
-719
-714
-712
-709
-705
-704
-699
-697
-695
-694
-690
-689
-690
-687
-688
-685
-685
-684
-684
-684
-685
-689
-687
-694
-699
-705
-712
-719
-725
-731
-740
-745
-752
-758
-763
-767
-768
-772
-776
-775
-780
-781
-784
-786
-785
-785
-785
-787
-787
-786
-787
-785
-787
-787
-787
-787
-787
-787
-787
-788
-787
-788
-787
-787
-788
-787
-789
-789
-789
-788
-787
-789
-789
-789
-789
-789
-790
-790
-790
-790
-792
-792
-794
-794
-794
-794
-794
-794
-795
-795
-796
-795
-796
-795
-798
-795
-797
-797
-797
-796
-797
-797
-796
-797
-799
-798
-798
-798
-797
-797
-798
-798
-799
-798
-798
-798
-797
-798
-799
-799
-798
-798
-799
-799
-797
-798
-799
-798
-798
-797
-799
-799
-799
-799
-797
-798
-797
-797
-798
-797
-797
-798
-798
-797
-797
-799
-797
-798
-797
-799
-797
-797
-797
-798
-797
-797
-796
-797
-795
-797
-796
-797
-797
-795
-796
-794
-795
-795
-796
-795
-795
-795
-794
-796
-794
-794
-795
-795
-795
-794
-795
-795
-795
-795
-794
-794
-794
-795
-794
-794
-794
-794
-794
-794
-794
-795
-795
-795
-794
-794
-795
-794
-792
-789
-790
-785
-785
-782
-785
-785
-785
-782
-777
-777
-776
-775
-780
-780
-782
-783
-784
-785
-785
-785
-786
-790
-789
-792
-794
-796
-799
-799
-801
-800
-799
-801
-799
-800
-800
-799
-799
-799
-797
-798
-796
-796
-795
-795
-794
-794
-791
-790
-785
-772
-756
-745
-735
-714
-680
-641
-642
-660
-695
-738
-777
-824
-860
-884
-905
-895
-876
-850
-824
-804
-790
-784
-780
-777
-772
-769
-768
-768
-765
-766
-765
-764
-765
-764
-762
-762
-761
-761
-760
-760
-759
-759
-758
-755
-755
-754
-754
-752
-754
-750
-749
-748
-745
-746
-744
-744
-742
-741
-741
-739
-736
-736
-735
-735
-730
-730
-725
-726
-724
-720
-719
-717
-715
-710
-709
-708
-705
-702
-699
-700
-696
-697
-694
-690
-690
-687
-688
-684
-685
-686
-687
-688
-688
-694
-695
-701
-705
-711
-719
-724
-731
-735
-743
-747
-752
-755
-760
-762
-765
-769
-772
-774
-776
-777
-780
-782
-781
-782
-782
-786
-784
-785
-784
-786
-785
-784
-784
-784
-785
-785
-784
-785
-784
-785
-784
-785
-785
-784
-785
-784
-785
-784
-784
-784
-785
-785
-784
-784
-785
-785
-785
-785
-787
-787
-788
-789
-789
-790
-789
-791
-790
-791
-792
-792
-792
-791
-794
-794
-794
-794
-795
-795
-794
-795
-797
-795
-795
-794
-797
-794
-795
-795
-794
-794
-794
-795
-795
-794
-795
-795
-797
-795
-795
-794
-795
-794
-794
-794
-795
-794
-795
-794
-795
-795
-795
-794
-794
-795
-794
-794
-794
-794
-794
-794
-794
-794
-794
-795
-794
-794
-792
-794
-794
-794
-792
-792
-791
-791
-791
-794
-791
-792
-790
-794
-790
-792
-791
-791
-792
-790
-792
-791
-793
-791
-791
-794
-792
-793
-792
-793
-792
-792
-794
-794
-794
-792
-791
-790
-787
-785
-782
-782
-782
-784
-784
-781
-779
-775
-777
-779
-780
-780
-782
-784
-784
-784
-785
-784
-786
-787
-791
-792
-795
-796
-800
-801
-801
-802
-804
-802
-802
-802
-802
-801
-802
-800
-799
-800
-799
-799
-799
-797
-795
-794
-794
-790
-781
-765
-750
-741
-724
-695
-651
-640
-657
-687
-724
-769
-814
-852
-889
-917
-915
-894
-866
-838
-811
-795
-789
-784
-780
-776
-774
-772
-772
-770
-769
-769
-768
-765
-764
-765
-764
-760
-764
-761
-763
-759
-759
-760
-760
-759
-758
-758
-756
-756
-755
-752
-751
-749
-749
-747
-746
-745
-745
-745
-744
-742
-739
-736
-737
-734
-734
-730
-728
-726
-724
-722
-719
-717
-714
-710
-709
-704
-703
-699
-698
-694
-690
-690
-685
-685
-684
-685
-682
-682
-683
-680
-683
-683
-685
-688
-694
-697
-701
-710
-716
-724
-730
-737
-745
-750
-759
-764
-767
-771
-775
-777
-780
-782
-784
-785
-787
-788
-789
-789
-789
-790
-790
-792
-790
-792
-791
-792
-792
-792
-792
-792
-792
-792
-793
-794
-792
-794
-792
-794
-794
-794
-794
-795
-794
-794
-794
-795
-794
-795
-794
-794
-794
-795
-795
-795
-796
-795
-795
-797
-797
-799
-797
-799
-799
-799
-800
-800
-801
-802
-801
-802
-802
-804
-802
-804
-802
-804
-804
-803
-804
-802
-804
-802
-802
-802
-801
-802
-801
-802
-802
-801
-802
-800
-801
-800
-800
-801
-803
-801
-800
-800
-802
-802
-802
-800
-800
-799
-799
-799
-799
-800
-799
-801
-800
-800
-799
-800
-799
-799
-799
-799
-799
-799
-799
-799
-799
-799
-797
-797
-797
-798
-799
-798
-797
-798
-798
-797
-797
-797
-796
-798
-798
-797
-797
-797
-797
-797
-797
-797
-796
-798
-796
-800
-798
-797
-797
-799
-797
-797
-797
-797
-797
-798
-796
-794
-791
-790
-790
-789
-790
-789
-788
-784
-782
-783
-784
-787
-787
-788
-789
-791
-791
-792
-792
-791
-794
-797
-797
-799
-802
-804
-805
-807
-808
-807
-808
-807
-806
-806
-806
-807
-806
-805
-806
-805
-805
-804
-805
-802
-802
-800
-800
-792
-780
-765
-752
-744
-725
-689
-652
-650
-676
-710
-755
-798
-839
-880
-910
-930
-920
-895
-869
-837
-814
-799
-790
-785
-782
-779
-776
-775
-772
-772
-770
-771
-771
-771
-769
-768
-769
-767
-768
-766
-765
-765
-764
-764
-762
-762
-762
-760
-760
-756
-757
-755
-756
-754
-753
-752
-751
-748
-749
-746
-745
-744
-742
-739
-738
-737
-734
-732
-729
-729
-726
-724
-722
-719
-719
-715
-712
-710
-705
-704
-699
-698
-694
-695
-693
-690
-689
-685
-689
-685
-687
-685
-685
-688
-690
-695
-698
-704
-707
-715
-721
-727
-735
-742
-748
-754
-760
-765
-766
-774
-777
-780
-784
-784
-785
-786
-788
-789
-789
-790
-790
-790
-791
-792
-794
-790
-793
-791
-792
-792
-793
-792
-792
-794
-792
-792
-792
-792
-792
-791
-792
-792
-792
-794
-792
-794
-794
-794
-794
-794
-795
-795
-795
-794
-795
-797
-795
-797
-796
-800
-797
-797
-799
-800
-799
-800
-800
-802
-800
-802
-800
-802
-802
-804
-804
-804
-804
-802
-804
-805
-804
-802
-802
-802
-802
-802
-801
-802
-802
-802
-801
-801
-801
-802
-802
-802
-800
-802
-802
-801
-802
-801
-802
-801
-801
-801
-801
-802
-800
-801
-801
-800
-802
-801
-802
-799
-800
-799
-802
-799
-799
-800
-801
-799
-799
-799
-799
-799
-799
-799
-797
-797
-797
-799
-800
-798
-797
-798
-797
-797
-799
-796
-797
-798
-796
-797
-796
-797
-797
-795
-797
-797
-797
-796
-796
-797
-797
-797
-796
-797
-796
-797
-798
-797
-797
-797
-795
-794
-790
-789
-788
-787
-786
-789
-789
-785
-784
-783
-779
-780
-780
-782
-784
-786
-786
-787
-789
-787
-787
-789
-791
-794
-794
-799
-800
-801
-804
-805
-804
-804
-804
-804
-804
-804
-802
-802
-802
-800
-800
-799
-799
-798
-797
-797
-795
-794
-790
-780
-764
-750
-742
-727
-704
-662
-637
-644
-674
-714
-760
-805
-849
-882
-909
-915
-900
-874
-845
-820
-801
-789
-786
-782
-777
-772
-770
-769
-768
-769
-765
-767
-766
-764
-764
-762
-764
-763
-761
-760
-759
-760
-757
-756
-757
-757
-755
-752
-752
-751
-749
-748
-746
-746
-744
-742
-740
-739
-738
-735
-735
-732
-732
-730
-727
-725
-724
-724
-721
-718
-716
-714
-714
-710
-707
-702
-700
-699
-695
-694
-689
-690
-685
-682
-680
-676
-677
-677
-677
-677
-676
-679
-679
-684
-685
-690
-693
-699
-704
-709
-718
-720
-730
-737
-745
-750
-753
-759
-761
-768
-770
-772
-775
-777
-780
-781
-784
-784
-784
-785
-786
-785
-785
-785
-787
-784
-785
-785
-786
-785
-785
-785
-784
-784
-784
-784
-784
-785
-784
-782
-784
-784
-784
-785
-785
-785
-785
-785
-785
-785
-786
-785
-787
-787
-786
-787
-787
-789
-789
-789
-789
-789
-790
-790
-790
-790
-790
-790
-790
-790
-790
-791
-790
-790
-792
-794
-791
-792
-790
-792
-791
-792
-790
-790
-790
-790
-789
-790
-790
-790
-789
-790
-789
-789
-789
-789
-789
-789
-789
-790
-789
-789
-790
-789
-789
-789
-789
-789
-789
-787
-788
-787
-787
-788
-787
-787
-786
-788
-785
-787
-787
-786
-786
-785
-786
-786
-788
-785
-787
-786
-788
-787
-785
-787
-787
-785
-785
-785
-787
-785
-785
-785
-786
-787
-785
-785
-785
-786
-785
-785
-783
-781
-780
-779
-777
-778
-779
-779
-776
-775
-771
-774
-774
-776
-776
-778
-780
-781
-782
-782
-781
-784
-785
-788
-790
-791
-794
-795
-797
-798
-799
-799
-798
-799
-799
-799
-798
-798
-797
-799
-797
-796
-796
-795
-794
-794
-794
-790
-785
-774
-758
-747
-735
-717
-684
-644
-640
-658
-692
-732
-777
-822
-862
-891
-911
-904
-884
-855
-829
-807
-792
-785
-782
-777
-775
-771
-771
-771
-769
-769
-767
-768
-768
-765
-766
-765
-765
-764
-764
-764
-760
-760
-760
-761
-757
-758
-758
-755
-754
-754
-752
-752
-750
-750
-748
-748
-745
-745
-744
-742
-740
-738
-738
-735
-734
-733
-730
-729
-725
-725
-722
-720
-716
-714
-712
-708
-707
-704
-702
-699
-695
-695
-689
-689
-685
-686
-686
-687
-689
-690
-692
-691
-697
-698
-704
-705
-712
-719
-725
-730
-737
-745
-750
-753
-760
-764
-770
-771
-775
-777
-780
-782
-784
-786
-785
-789
-789
-789
-789
-789
-789
-790
-789
-791
-791
-791
-790
-791
-791
-791
-792
-791
-790
-790
-790
-790
-790
-791
-790
-789
-790
-789
-790
-789
-789
-789
-791
-790
-790
-791
-792
-792
-793
-792
-794
-792
-794
-794
-797
-795
-795
-795
-795
-797
-796
-797
-797
-798
-799
-799
-801
-800
-800
-800
-799
-799
-797
-799
-799
-800
-799
-798
-798
-798
-797
-797
-797
-798
-798
-798
-797
-797
-798
-797
-799
-797
-798
-798
-798
-797
-797
-797
-796
-798
-797
-798
-798
-795
-796
-797
-795
-795
-795
-797
-795
-795
-795
-794
-795
-795
-795
-794
-794
-795
-794
-795
-794
-794
-794
-794
-792
-792
-792
-792
-794
-794
-793
-792
-792
-794
-792
-794
-795
-794
-794
-793
-793
-791
-792
-792
-790
-787
-784
-784
-784
-784
-785
-784
-781
-777
-775
-777
-780
-782
-784
-784
-785
-785
-789
-787
-786
-785
-790
-791
-794
-797
-799
-801
-802
-804
-804
-804
-804
-804
-804
-804
-804
-802
-802
-802
-802
-801
-800
-799
-798
-796
-797
-795
-789
-776
-757
-744
-730
-709
-668
-634
-635
-659
-691
-742
-789
-835
-880
-914
-930
-918
-888
-858
-827
-805
-792
-785
-781
-776
-774
-772
-772
-770
-769
-767
-768
-766
-767
-765
-765
-766
-764
-765
-764
-762
-762
-760
-760
-758
-757
-755
-755
-755
-752
-752
-750
-749
-747
-745
-746
-744
-744
-740
-740
-739
-737
-735
-732
-733
-730
-727
-726
-722
-721
-717
-715
-712
-709
-707
-703
-704
-699
-699
-694
-694
-692
-689
-689
-686
-685
-680
-684
-681
-680
-682
-682
-684
-684
-691
-694
-702
-708
-715
-720
-727
-736
-742
-750
-755
-760
-766
-770
-775
-777
-780
-784
-785
-786
-786
-789
-789
-790
-793
-791
-792
-792
-792
-794
-792
-794
-794
-794
-794
-794
-795
-794
-794
-794
-795
-792
-794
-794
-792
-794
-794
-794
-792
-792
-794
-794
-794
-794
-795
-795
-795
-795
-795
-796
-796
-799
-799
-799
-800
-800
-800
-799
-800
-799
-800
-801
-800
-801
-800
-802
-801
-801
-804
-802
-804
-802
-802
-803
-801
-801
-800
-801
-800
-799
-800
-801
-799
-799
-800
-800
-799
-799
-799
-799
-798
-799
-799
-799
-798
-797
-799
-797
-799
-797
-797
-798
-797
-798
-797
-798
-797
-797
-797
-796
-796
-797
-795
-795
-795
-795
-795
-795
-795
-795
-795
-795
-794
-795
-795
-795
-794
-795
-795
-794
-795
-794
-794
-794
-795
-794
-796
-794
-795
-795
-797
-795
-795
-794
-792
-791
-787
-785
-785
-784
-785
-787
-785
-782
-780
-780
-781
-784
-785
-786
-788
-790
-790
-789
-790
-789
-792
-794
-797
-800
-800
-804
-805
-806
-806
-806
-807
-805
-807
-805
-806
-805
-804
-805
-804
-804
-802
-802
-800
-800
-799
-799
-794
-782
-765
-749
-741
-722
-689
-645
-639
-661
-699
-744
-789
-835
-877
-907
-934
-920
-896
-864
-834
-812
-797
-791
-786
-782
-778
-775
-775
-775
-774
-772
-770
-770
-771
-769
-769
-767
-768
-765
-765
-765
-764
-764
-761
-761
-760
-759
-757
-755
-755
-754
-754
-751
-747
-749
-746
-745
-741
-742
-740
-739
-735
-734
-734
-731
-729
-725
-722
-720
-716
-715
-710
-709
-705
-703
-700
-697
-695
-690
-690
-687
-685
-684
-680
-680
-678
-680
-678
-679
-680
-680
-682
-680
-684
-685
-692
-697
-704
-712
-719
-729
-734
-742
-748
-755
-762
-765
-770
-772
-777
-780
-782
-785
-785
-785
-785
-790
-789
-790
-790
-790
-791
-789
-790
-792
-791
-791
-790
-792
-789
-789
-789
-789
-789
-789
-787
-787
-787
-789
-789
-789
-789
-790
-789
-791
-790
-791
-792
-792
-792
-792
-794
-794
-795
-795
-794
-796
-795
-795
-795
-796
-797
-795
-797
-795
-797
-797
-799
-797
-798
-797
-799
-800
-798
-799
-797
-797
-797
-797
-796
-796
-797
-796
-798
-795
-795
-796
-797
-796
-795
-794
-796
-795
-794
-794
-794
-794
-794
-795
-794
-794
-794
-794
-792
-793
-794
-792
-794
-794
-792
-794
-790
-790
-792
-792
-792
-791
-791
-792
-791
-791
-790
-794
-790
-790
-791
-792
-791
-789
-790
-789
-790
-790
-789
-790
-791
-791
-789
-789
-785
-784
-781
-779
-780
-780
-781
-780
-777
-775
-775
-775
-776
-780
-780
-784
-785
-785
-785
-785
-785
-787
-789
-791
-794
-795
-796
-800
-801
-801
-800
-800
-800
-799
-800
-800
-799
-800
-800
-800
-798
-797
-799
-796
-795
-795
-792
-790
-784
-769
-755
-745
-735
-711
-674
-647
-654
-677
-716
-760
-802
-847
-875
-897
-905
-885
-864
-839
-813
-795
-789
-785
-781
-780
-775
-774
-771
-771
-771
-769
-770
-767
-767
-766
-765
-765
-765
-765
-762
-762
-760
-760
-759
-755
-758
-755
-755
-750
-752
-752
-750
-750
-748
-747
-745
-745
-744
-740
-740
-738
-735
-732
-732
-730
-727
-729
-724
-721
-719
-719
-715
-712
-709
-705
-705
-699
-699
-697
-694
-691
-688
-686
-682
-684
-680
-680
-679
-678
-679
-677
-682
-682
-688
-690
-697
-704
-710
-720
-724
-734
-739
-745
-750
-755
-762
-765
-769
-772
-774
-777
-777
-780
-781
-782
-784
-784
-784
-784
-785
-786
-786
-786
-785
-785
-785
-785
-785
-786
-785
-785
-785
-785
-786
-785
-785
-785
-785
-786
-785
-784
-786
-785
-785
-785
-787
-787
-787
-787
-787
-787
-787
-789
-787
-790
-789
-789
-790
-790
-789
-789
-791
-791
-792
-794
-792
-792
-792
-794
-794
-792
-794
-792
-794
-792
-793
-792
-791
-792
-792
-791
-790
-790
-792
-790
-791
-790
-792
-790
-790
-790
-792
-790
-790
-791
-791
-790
-790
-790
-790
-789
-791
-790
-789
-789
-790
-789
-789
-789
-790
-789
-790
-789
-790
-787
-788
-788
-788
-787
-787
-787
-788
-787
-785
-786
-788
-787
-787
-785
-785
-787
-786
-786
-786
-786
-784
-782
-781
-778
-779
-775
-778
-779
-779
-776
-774
-774
-774
-777
-777
-777
-780
-782
-784
-784
-784
-785
-786
-788
-789
-794
-794
-797
-799
-801
-802
-801
-802
-804
-801
-802
-800
-802
-800
-801
-799
-800
-799
-799
-799
-797
-797
-794
-794
-789
-777
-761
-750
-739
-715
-679
-645
-651
-674
-709
-754
-795
-838
-877
-909
-925
-906
-884
-854
-825
-805
-794
-787
-785
-782
-777
-777
-775
-775
-775
-774
-774
-772
-772
-770
-770
-770
-769
-768
-768
-768
-765
-764
-765
-764
-764
-760
-761
-760
-760
-759
-756
-756
-755
-755
-754
-754
-752
-750
-749
-745
-747
-744
-742
-740
-738
-735
-731
-733
-729
-727
-723
-720
-718
-712
-711
-709
-708
-705
-700
-700
-696
-696
-691
-692
-689
-687
-689
-687
-687
-686
-690
-689
-692
-697
-699
-705
-710
-720
-726
-735
-742
-748
-755
-759
-765
-768
-774
-779
-780
-784
-785
-788
-789
-790
-791
-792
-793
-793
-794
-794
-795
-796
-795
-795
-795
-797
-795
-795
-796
-796
-796
-795
-794
-794
-795
-794
-794
-795
-794
-795
-794
-795
-795
-797
-795
-795
-795
-799
-798
-797
-797
-800
-797
-799
-799
-799
-799
-799
-801
-800
-800
-800
-800
-804
-801
-802
-802
-802
-802
-803
-804
-804
-804
-804
-803
-802
-802
-803
-802
-802
-802
-801
-802
-800
-800
-800
-800
-801
-800
-801
-799
-801
-800
-800
-800
-800
-800
-799
-801
-799
-799
-799
-801
-799
-797
-798
-800
-796
-798
-798
-799
-798
-797
-795
-795
-797
-795
-797
-798
-795
-796
-795
-795
-795
-795
-794
-796
-795
-795
-795
-795
-795
-794
-794
-795
-795
-795
-794
-795
-795
-794
-795
-790
-789
-787
-787
-786
-785
-787
-788
-785
-782
-780
-777
-781
-785
-784
-789
-787
-789
-789
-792
-790
-792
-794
-796
-799
-800
-802
-804
-805
-807
-807
-808
-807
-808
-807
-806
-808
-808
-806
-808
-806
-805
-804
-804
-805
-802
-801
-800
-798
-790
-776
-760
-747
-735
-710
-667
-639
-651
-679
-720
-768
-812
-859
-894
-924
-931
-909
-885
-854
-828
-810
-797
-793
-787
-785
-780
-779
-777
-775
-775
-774
-774
-774
-774
-770
-774
-770
-770
-769
-768
-767
-765
-766
-766
-765
-764
-764
-764
-761
-760
-760
-759
-758
-755
-756
-755
-754
-751
-749
-749
-747
-745
-742
-740
-739
-737
-735
-730
-730
-725
-724
-722
-719
-717
-712
-709
-705
-704
-700
-695
-697
-692
-694
-690
-690
-690
-687
-690
-685
-686
-687
-690
-689
-692
-696
-699
-707
-710
-720
-725
-732
-740
-745
-754
-759
-765
-770
-774
-777
-780
-782
-785
-788
-789
-790
-790
-792
-794
-795
-794
-796
-795
-796
-795
-795
-795
-795
-795
-795
-794
-795
-794
-794
-794
-796
-794
-794
-794
-792
-794
-794
-794
-795
-794
-795
-794
-795
-795
-795
-795
-796
-797
-796
-797
-797
-798
-797
-798
-797
-797
-799
-799
-799
-799
-799
-799
-799
-800
-800
-801
-801
-801
-800
-800
-800
-799
-800
-799
-800
-800
-799
-800
-799
-800
-797
-799
-797
-797
-798
-799
-797
-795
-795
-796
-797
-795
-795
-795
-796
-795
-794
-794
-795
-795
-794
-795
-794
-794
-794
-795
-794
-794
-794
-794
-794
-793
-792
-792
-792
-792
-792
-792
-791
-792
-790
-790
-791
-790
-792
-790
-791
-791
-792
-792
-790
-791
-790
-789
-786
-784
-785
-781
-781
-780
-784
-782
-779
-777
-772
-772
-775
-777
-779
-780
-784
-784
-784
-785
-785
-785
-788
-790
-792
-794
-798
-799
-802
-804
-802
-802
-802
-804
-802
-802
-802
-802
-801
-801
-801
-800
-800
-800
-799
-799
-797
-798
-795
-790
-777
-762
-749
-740
-720
-689
-647
-640
-660
-694
-739
-784
-830
-872
-896
-915
-909
-887
-864
-834
-812
-799
-792
-789
-784
-780
-776
-775
-775
-774
-772
-772
-772
-773
-770
-770
-770
-768
-768
-765
-765
-765
-762
-762
-761
-760
-759
-758
-757
-755
-755
-754
-754
-754
-752
-752
-749
-749
-747
-747
-745
-744
-742
-740
-741
-737
-735
-734
-731
-730
-725
-725
-723
-721
-719
-717
-714
-710
-713
-708
-707
-704
-701
-700
-699
-699
-697
-698
-695
-695
-694
-694
-695
-696
-701
-704
-709
-714
-719
-725
-731
-740
-745
-752
-759
-764
-768
-772
-777
-777
-781
-782
-784
-785
-785
-787
-787
-790
-789
-789
-790
-790
-789
-790
-789
-792
-789
-789
-790
-789
-789
-789
-789
-789
-789
-789
-788
-789
-789
-789
-789
-789
-789
-789
-789
-789
-790
-789
-789
-789
-790
-790
-789
-791
-790
-790
-790
-790
-790
-790
-793
-791
-792
-792
-792
-792
-792
-792
-794
-794
-794
-792
-795
-793
-794
-793
-794
-794
-792
-790
-792
-791
-790
-789
-791
-789
-790
-789
-789
-789
-789
-789
-790
-789
-787
-787
-788
-787
-787
-786
-785
-785
-785
-787
-786
-786
-786
-785
-785
-786
-786
-785
-785
-785
-785
-785
-785
-785
-785
-787
-785
-785
-785
-785
-786
-785
-787
-786
-784
-781
-778
-775
-777
-776
-777
-775
-775
-774
-770
-769
-770
-771
-775
-775
-776
-779
-777
-782
-779
-780
-782
-784
-786
-789
-791
-794
-795
-797
-798
-797
-799
-799
-800
-799
-800
-799
-799
-799
-797
-798
-797
-798
-796
-795
-795
-794
-794
-789
-781
-765
-753
-743
-727
-700
-659
-642
-654
-680
-717
-760
-799
-839
-877
-904
-904
-891
-867
-839
-814
-798
-789
-785
-785
-779
-775
-775
-775
-774
-774
-772
-772
-771
-771
-771
-768
-769
-767
-768
-767
-765
-765
-764
-764
-762
-762
-760
-760
-760
-758
-756
-755
-755
-755
-753
-754
-750
-750
-747
-746
-745
-742
-740
-740
-739
-737
-732
-732
-729
-728
-725
-724
-720
-718
-715
-710
-710
-706
-704
-700
-697
-695
-691
-694
-692
-690
-689
-687
-689
-685
-688
-689
-691
-694
-696
-705
-708
-716
-720
-726
-734
-741
-747
-750
-759
-764
-768
-772
-775
-779
-780
-784
-785
-786
-787
-789
-789
-791
-791
-791
-791
-794
-791
-792
-792
-792
-792
-790
-791
-791
-791
-791
-791
-791
-790
-791
-791
-790
-790
-790
-790
-790
-791
-791
-791
-792
-792
-792
-792
-793
-793
-792
-794
-794
-795
-794
-794
-794
-795
-795
-796
-796
-795
-796
-798
-796
-797
-798
-798
-799
-798
-800
-800
-799
-799
-800
-801
-797
-799
-797
-798
-798
-798
-796
-797
-797
-795
-796
-796
-796
-797
-794
-795
-795
-795
-795
-794
-795
-795
-794
-795
-794
-795
-794
-794
-794
-794
-792
-794
-794
-793
-794
-792
-792
-792
-793
-792
-792
-792
-792
-791
-791
-790
-792
-792
-792
-790
-793
-791
-792
-791
-794
-792
-792
-790
-789
-785
-784
-782
-781
-781
-781
-784
-781
-778
-775
-775
-779
-781
-781
-781
-785
-785
-785
-786
-785
-787
-790
-792
-794
-796
-800
-801
-804
-805
-805
-805
-805
-805
-806
-805
-805
-805
-805
-805
-804
-805
-804
-804
-802
-802
-802
-801
-799
-796
-788
-770
-759
-747
-735
-709
-666
-642
-650
-680
-714
-762
-803
-842
-884
-914
-926
-914
-887
-859
-830
-809
-800
-794
-788
-786
-781
-780
-779
-778
-777
-777
-777
-777
-775
-775
-774
-771
-770
-770
-770
-769
-768
-767
-765
-765
-764
-764
-761
-760
-760
-759
-756
-757
-755
-755
-752
-754
-752
-750
-747
-746
-745
-744
-744
-740
-737
-734
-732
-730
-727
-727
-722
-720
-719
-714
-714
-707
-705
-701
-697
-699
-696
-695
-693
-692
-690
-688
-687
-685
-686
-682
-685
-685
-686
-690
-692
-700
-704
-714
-720
-729
-737
-744
-752
-757
-764
-767
-774
-778
-781
-787
-787
-789
-790
-792
-794
-794
-795
-797
-796
-799
-797
-797
-797
-799
-799
-799
-799
-798
-799
-797
-797
-798
-796
-798
-797
-797
-798
-797
-798
-796
-797
-798
-797
-799
-797
-799
-797
-799
-799
-799
-800
-800
-800
-800
-799
-801
-801
-801
-800
-802
-804
-801
-802
-803
-804
-802
-802
-802
-804
-804
-804
-803
-802
-802
-804
-802
-802
-802
-801
-801
-800
-800
-800
-800
-800
-800
-800
-799
-799
-800
-799
-800
-799
-800
-800
-800
-799
-799
-799
-799
-797
-798
-797
-797
-797
-798
-796
-797
-796
-796
-795
-795
-796
-795
-796
-798
-795
-795
-795
-797
-795
-794
-795
-797
-795
-794
-795
-794
-794
-794
-794
-794
-795
-794
-792
-790
-787
-785
-785
-785
-785
-787
-784
-782
-777
-778
-779
-784
-784
-784
-788
-787
-789
-790
-789
-790
-792
-794
-797
-799
-804
-804
-808
-808
-808
-809
-808
-809
-809
-808
-810
-808
-809
-807
-810
-807
-808
-807
-807
-805
-804
-804
-802
-800
-795
-780
-764
-751
-740
-718
-679
-639
-640
-666
-702
-754
-800
-848
-890
-922
-942
-927
-900
-874
-841
-816
-804
-797
-792
-788
-784
-781
-781
-781
-780
-778
-780
-780
-777
-777
-776
-775
-775
-775
-774
-772
-770
-770
-770
-766
-768
-765
-766
-764
-764
-762
-760
-760
-759
-758
-756
-755
-754
-750
-750
-747
-745
-745
-743
-740
-737
-738
-735
-734
-732
-727
-725
-720
-719
-715
-714
-712
-708
-707
-702
-700
-695
-695
-694
-690
-691
-687
-687
-685
-687
-686
-686
-690
-690
-699
-700
-707
-714
-720
-728
-734
-742
-749
-754
-762
-765
-772
-775
-780
-782
-784
-787
-787
-789
-791
-792
-794
-792
-794
-794
-794
-795
-794
-795
-794
-795
-794
-794
-794
-794
-794
-794
-794
-794
-795
-794
-794
-794
-794
-794
-794
-793
-794
-794
-794
-795
-795
-795
-794
-794
-795
-795
-795
-795
-799
-797
-796
-797
-800
-798
-797
-797
-797
-797
-798
-797
-799
-798
-798
-797
-798
-798
-799
-799
-799
-799
-797
-796
-797
-795
-796
-794
-796
-795
-794
-794
-794
-795
-794
-793
-794
-794
-794
-792
-794
-793
-793
-792
-791
-792
-791
-792
-791
-791
-791
-790
-790
-790
-789
-791
-789
-789
-788
-790
-789
-789
-789
-789
-789
-789
-789
-788
-788
-790
-788
-787
-788
-788
-788
-788
-789
-788
-788
-785
-784
-781
-778
-779
-779
-779
-780
-779
-777
-774
-774
-774
-776
-777
-778
-781
-782
-782
-785
-784
-785
-785
-788
-790
-792
-794
-797
-800
-800
-802
-804
-802
-802
-803
-805
-802
-801
-802
-801
-802
-800
-800
-799
-799
-799
-797
-796
-796
-795
-790
-780
-762
-749
-740
-723
-694
-648
-630
-645
-675
-719
-762
-811
-855
-885
-912
-918
-901
-881
-848
-820
-802
-792
-787
-782
-780
-775
-771
-771
-770
-768
-769
-769
-769
-769
-765
-767
-765
-767
-764
-764
-764
-763
-763
-762
-762
-762
-759
-759
-757
-757
-755
-754
-752
-750
-751
-749
-748
-745
-745
-745
-743
-742
-740
-740
-739
-735
-735
-730
-730
-728
-725
-724
-719
-720
-715
-714
-710
-708
-707
-701
-702
-697
-695
-692
-690
-692
-689
-689
-687
-687
-688
-688
-690
-690
-697
-698
-702
-708
-715
-722
-727
-735
-741
-750
-756
-760
-766
-768
-774
-775
-778
-781
-782
-784
-786
-788
-787
-787
-789
-789
-789
-789
-790
-789
-789
-789
-789
-790
-789
-789
-789
-789
-790
-789
-790
-789
-789
-789
-788
-790
-790
-789
-788
-787
-790
-789
-787
-787
-791
-789
-788
-789
-790
-790
-791
-791
-791
-792
-791
-791
-792
-792
-794
-792
-792
-794
-794
-794
-794
-794
-794
-794
-794
-795
-794
-795
-794
-794
-794
-794
-794
-793
-794
-792
-792
-792
-791
-791
-792
-791
-790
-792
-790
-790
-791
-792
-790
-790
-791
-792
-790
-789
-789
-791
-789
-789
-789
-789
-789
-788
-787
-789
-789
-789
-788
-789
-788
-789
-787
-788
-787
-788
-787
-787
-787
-787
-787
-787
-787
-787
-787
-785
-784
-781
-780
-777
-777
-780
-780
-780
-776
-774
-771
-772
-776
-777
-778
-779
-782
-781
-782
-784
-782
-784
-789
-789
-793
-794
-798
-799
-800
-801
-804
-802
-802
-802
-801
-802
-802
-801
-801
-800
-801
-801
-801
-801
-799
-799
-796
-796
-794
-789
-776
-759
-747
-736
-715
-675
-635
-634
-654
-693
-738
-789
-830
-872
-909
-931
-922
-897
-866
-835
-810
-797
-790
-788
-785
-781
-778
-775
-777
-775
-775
-772
-774
-772
-772
-770
-771
-771
-770
-770
-769
-768
-768
-766
-766
-765
-765
-764
-760
-762
-760
-760
-758
-757
-757
-754
-755
-753
-752
-750
-747
-746
-745
-745
-742
-741
-739
-735
-734
-730
-731
-725
-724
-724
-720
-719
-714
-712
-707
-704
-701
-699
-700
-697
-695
-694
-692
-691
-689
-690
-690
-694
-695
-700
-704
-705
-712
-715
-725
-730
-737
-744
-750
-756
-760
-768
-772
-776
-781
-784
-787
-789
-790
-792
-794
-795
-795
-796
-797
-798
-800
-799
-800
-799
-800
-799
-799
-799
-799
-799
-799
-799
-797
-798
-797
-798
-798
-799
-797
-798
-798
-800
-797
-798
-797
-800
-798
-797
-799
-799
-799
-799
-799
-800
-801
-802
-800
-801
-801
-802
-800
-802
-801
-802
-801
-802
-803
-804
-802
-804
-804
-802
-804
-804
-804
-804
-802
-803
-803
-802
-801
-802
-802
-802
-803
-800
-802
-800
-801
-800
-801
-800
-801
-800
-799
-800
-801
-800
-799
-799
-800
-799
-799
-799
-797
-799
-799
-797
-798
-795
-798
-797
-797
-796
-795
-796
-795
-795
-795
-795
-796
-795
-795
-795
-795
-795
-795
-795
-794
-795
-795
-795
-795
-795
-795
-796
-795
-794
-794
-794
-790
-790
-788
-787
-785
-785
-787
-785
-784
-780
-780
-782
-782
-784
-784
-789
-789
-789
-791
-791
-791
-792
-795
-797
-799
-802
-804
-807
-808
-808
-810
-809
-810
-809
-809
-809
-809
-808
-809
-809
-809
-808
-808
-807
-807
-807
-805
-804
-802
-800
-794
-780
-762
-752
-740
-715
-674
-641
-651
-676
-718
-764
-810
-857
-894
-925
-937
-915
-890
-860
-835
-814
-802
-795
-791
-788
-785
-784
-782
-782
-780
-780
-779
-779
-779
-778
-777
-777
-775
-775
-774
-774
-774
-772
-770
-769
-770
-768
-767
-765
-764
-764
-763
-762
-760
-760
-759
-758
-757
-754
-754
-750
-751
-748
-746
-745
-742
-742
-739
-737
-735
-732
-731
-727
-725
-722
-720
-718
-714
-714
-707
-707
-705
-704
-701
-699
-699
-698
-696
-695
-694
-696
-695
-699
-702
-707
-709
-714
-722
-725
-733
-738
-746
-754
-759
-765
-771
-776
-780
-784
-786
-789
-792
-794
-795
-797
-797
-800
-800
-801
-801
-802
-802
-802
-802
-802
-804
-802
-801
-801
-802
-801
-799
-799
-799
-800
-800
-799
-799
-799
-799
-800
-800
-800
-801
-801
-802
-802
-803
-802
-804
-804
-804
-804
-804
-805
-804
-805
-805
-805
-806
-805
-806
-807
-808
-806
-807
-808
-808
-807
-807
-808
-808
-808
-810
-808
-809
-808
-807
-807
-806
-809
-807
-808
-807
-807
-807
-806
-807
-807
-805
-806
-805
-805
-805
-805
-804
-804
-804
-804
-802
-802
-804
-804
-804
-802
-802
-802
-802
-802
-802
-802
-801
-802
-800
-802
-801
-801
-800
-800
-801
-800
-801
-799
-800
-800
-799
-800
-800
-800
-800
-799
-801
-799
-800
-799
-802
-799
-798
-795
-794
-790
-789
-790
-791
-790
-789
-785
-784
-784
-784
-786
-787
-789
-790
-792
-792
-794
-794
-794
-797
-798
-800
-804
-807
-808
-810
-812
-810
-810
-812
-810
-812
-812
-813
-810
-810
-811
-810
-809
-809
-808
-808
-807
-805
-804
-804
-801
-796
-781
-765
-752
-742
-720
-680
-647
-650
-679
-714
-757
-801
-845
-885
-916
-935
-924
-896
-866
-839
-819
-805
-800
-794
-789
-785
-782
-782
-781
-780
-778
-777
-777
-778
-775
-774
-776
-775
-774
-773
-771
-772
-770
-769
-768
-766
-765
-764
-764
-760
-760
-759
-758
-757
-756
-756
-754
-750
-750
-749
-749
-743
-744
-740
-738
-734
-732
-733
-729
-728
-724
-721
-719
-717
-715
-710
-712
-708
-705
-704
-700
-700
-695
-695
-691
-690
-690
-687
-690
-687
-690
-690
-692
-697
-700
-705
-710
-719
-724
-730
-737
-744
-750
-754
-762
-766
-772
-776
-777
-782
-784
-787
-789
-789
-791
-791
-794
-794
-794
-794
-795
-794
-794
-795
-794
-794
-794
-792
-794
-794
-794
-792
-795
-794
-792
-793
-794
-794
-792
-792
-792
-792
-794
-792
-794
-794
-794
-792
-794
-794
-792
-794
-794
-795
-795
-794
-795
-794
-795
-797
-795
-796
-795
-797
-796
-795
-797
-797
-796
-795
-795
-798
-797
-795
-797
-799
-796
-794
-795
-795
-795
-794
-795
-794
-794
-794
-793
-794
-791
-792
-791
-791
-792
-790
-791
-791
-791
-790
-789
-791
-790
-790
-790
-790
-790
-789
-789
-789
-789
-789
-789
-789
-788
-787
-787
-787
-788
-787
-789
-787
-789
-787
-788
-787
-787
-788
-789
-789
-788
-787
-789
-782
-782
-779
-779
-778
-779
-779
-777
-777
-772
-772
-772
-774
-775
-776
-779
-780
-780
-782
-781
-782
-784
-785
-788
-790
-794
-795
-797
-797
-800
-800
-799
-799
-800
-800
-799
-799
-800
-799
-800
-797
-797
-798
-797
-796
-795
-795
-794
-791
-787
-774
-760
-748
-739
-715
-679
-638
-639
-660
-696
-735
-779
-827
-865
-897
-915
-899
-884
-855
-827
-805
-793
-787
-784
-781
-776
-774
-774
-774
-771
-772
-771
-770
-770
-769
-770
-768
-768
-766
-765
-765
-764
-765
-761
-762
-762
-762
-761
-759
-759
-757
-755
-756
-754
-754
-750
-750
-747
-747
-744
-744
-742
-739
-738
-735
-734
-732
-729
-727
-724
-724
-721
-719
-715
-712
-710
-706
-705
-705
-702
-700
-695
-696
-692
-694
-692
-690
-690
-690
-691
-690
-695
-694
-699
-704
-710
-715
-719
-725
-730
-740
-745
-750
-757
-760
-768
-770
-775
-777
-781
-785
-784
-785
-785
-789
-789
-789
-790
-789
-790
-790
-790
-790
-789
-790
-790
-790
-789
-790
-789
-790
-790
-789
-790
-790
-790
-789
-789
-789
-789
-789
-789
-789
-789
-789
-790
-789
-791
-790
-791
-791
-791
-791
-791
-792
-792
-792
-794
-794
-794
-794
-794
-795
-795
-795
-798
-795
-795
-795
-798
-795
-797
-795
-797
-797
-796
-797
-796
-796
-795
-795
-795
-795
-795
-795
-795
-794
-794
-794
-794
-794
-794
-794
-794
-794
-794
-793
-794
-792
-792
-792
-792
-792
-792
-792
-792
-791
-792
-791
-791
-790
-792
-792
-791
-791
-791
-791
-790
-792
-792
-794
-791
-791
-793
-794
-792
-791
-790
-789
-787
-785
-782
-782
-782
-784
-784
-780
-778
-775
-777
-779
-781
-781
-784
-786
-785
-788
-787
-787
-788
-790
-794
-795
-799
-800
-804
-805
-805
-805
-805
-805
-807
-805
-806
-805
-805
-804
-806
-805
-805
-804
-805
-804
-802
-802
-802
-799
-793
-777
-761
-750
-739
-710
-668
-644
-654
-680
-719
-764
-807
-850
-889
-920
-931
-910
-884
-855
-825
-807
-800
-794
-790
-787
-785
-785
-784
-784
-781
-781
-781
-780
-781
-779
-779
-778
-776
-776
-775
-775
-772
-772
-771
-771
-770
-770
-769
-765
-766
-765
-764
-762
-760
-760
-759
-756
-756
-755
-755
-750
-753
-748
-749
-748
-744
-743
-740
-740
-735
-734
-732
-729
-727
-722
-722
-718
-715
-712
-710
-707
-704
-705
-700
-703
-702
-700
-699
-697
-699
-699
-704
-705
-712
-715
-720
-727
-732
-739
-745
-751
-758
-762
-768
-774
-779
-782
-788
-790
-790
-794
-796
-797
-797
-797
-801
-799
-800
-801
-801
-800
-800
-802
-801
-800
-800
-801
-804
-800
-802
-800
-802
-802
-800
-801
-800
-800
-800
-799
-800
-800
-801
-800
-802
-800
-800
-800
-800
-801
-801
-803
-804
-802
-804
-804
-804
-804
-804
-804
-805
-805
-805
-807
-805
-805
-806
-808
-806
-807
-807
-808
-807
-808
-807
-807
-805
-806
-805
-804
-804
-804
-804
-805
-805
-804
-803
-802
-802
-802
-801
-802
-802
-801
-801
-800
-801
-799
-800
-799
-799
-799
-799
-800
-800
-799
-799
-800
-799
-797
-800
-798
-799
-799
-797
-799
-798
-797
-799
-797
-797
-797
-799
-797
-798
-798
-799
-797
-797
-794
-792
-789
-789
-787
-787
-788
-788
-786
-785
-782
-782
-784
-785
-785
-789
-790
-790
-792
-791
-790
-791
-794
-796
-799
-802
-805
-807
-807
-809
-809
-810
-810
-809
-810
-810
-809
-809
-809
-809
-808
-806
-807
-806
-806
-805
-804
-804
-804
-798
-785
-770
-755
-745
-724
-688
-653
-655
-679
-715
-759
-802
-849
-888
-914
-931
-914
-891
-859
-831
-812
-802
-796
-792
-789
-784
-782
-781
-781
-780
-780
-779
-777
-778
-776
-777
-776
-775
-774
-774
-774
-771
-771
-770
-769
-768
-767
-765
-764
-764
-760
-760
-760
-756
-759
-755
-756
-751
-752
-750
-749
-748
-744
-744
-742
-740
-737
-734
-734
-729
-728
-724
-722
-720
-716
-718
-714
-712
-708
-707
-704
-700
-699
-695
-695
-693
-692
-692
-691
-695
-695
-700
-705
-710
-715
-723
-728
-734
-742
-745
-754
-760
-766
-772
-775
-781
-784
-788
-791
-790
-794
-795
-798
-797
-798
-797
-798
-800
-800
-799
-800
-800
-800
-799
-799
-799
-800
-800
-800
-799
-799
-800
-799
-800
-797
-797
-797
-797
-797
-797
-797
-798
-797
-798
-797
-798
-797
-800
-799
-799
-799
-799
-800
-799
-800
-800
-800
-800
-801
-800
-800
-801
-800
-804
-801
-801
-801
-804
-802
-802
-802
-802
-800
-802
-800
-800
-800
-799
-799
-799
-799
-797
-797
-797
-797
-798
-797
-797
-796
-796
-796
-797
-795
-795
-795
-795
-795
-794
-794
-795
-794
-794
-794
-795
-794
-794
-794
-793
-794
-792
-794
-792
-792
-792
-792
-794
-793
-792
-794
-791
-791
-791
-795
-791
-793
-790
-789
-787
-785
-784
-782
-785
-784
-785
-782
-779
-777
-777
-780
-780
-782
-782
-784
-785
-786
-787
-786
-788
-792
-792
-795
-797
-802
-802
-805
-805
-806
-805
-805
-807
-805
-806
-805
-805
-805
-805
-805
-804
-804
-804
-802
-800
-800
-802
-797
-794
-781
-764
-754
-744
-726
-694
-657
-649
-667
-697
-742
-784
-832
-874
-901
-921
-910
-887
-859
-832
-812
-799
-795
-791
-787
-782
-780
-779
-777
-779
-777
-777
-776
-777
-775
-775
-774
-774
-774
-771
-772
-770
-770
-769
-768
-767
-765
-765
-762
-764
-762
-760
-759
-758
-758
-756
-754
-752
-751
-750
-746
-748
-744
-744
-741
-739
-738
-734
-734
-729
-729
-726
-721
-720
-715
-714
-709
-708
-704
-703
-700
-695
-695
-694
-694
-694
-692
-694
-694
-695
-695
-699
-700
-705
-710
-715
-720
-724
-734
-739
-745
-752
-759
-762
-767
-771
-776
-777
-781
-782
-783
-786
-788
-789
-787
-790
-789
-790
-790
-790
-789
-791
-791
-790
-790
-789
-789
-789
-788
-789
-789
-790
-790
-789
-789
-788
-787
-787
-787
-786
-787
-787
-785
-787
-786
-787
-786
-787
-787
-787
-789
-789
-789
-789
-790
-790
-789
-789
-790
-791
-791
-790
-794
-792
-792
-792
-795
-794
-794
-794
-796
-794
-794
-794
-792
-792
-791
-790
-789
-790
-790
-790
-792
-791
-790
-789
-790
-790
-790
-790
-790
-789
-789
-789
-790
-789
-789
-789
-789
-789
-787
-789
-787
-787
-787
-785
-785
-785
-787
-785
-786
-786
-785
-785
-785
-787
-785
-787
-787
-786
-787
-787
-786
-785
-785
-787
-785
-782
-779
-777
-776
-775
-776
-776
-775
-774
-771
-768
-768
-770
-774
-775
-775
-780
-779
-781
-782
-780
-782
-785
-787
-789
-790
-794
-794
-798
-798
-797
-799
-799
-799
-799
-799
-799
-800
-797
-797
-797
-797
-797
-796
-795
-796
-794
-794
-791
-790
-781
-766
-754
-742
-730
-704
-667
-650
-662
-686
-725
-764
-805
-851
-881
-905
-907
-889
-867
-839
-813
-799
-790
-787
-785
-780
-778
-777
-777
-777
-776
-775
-774
-774
-774
-770
-770
-770
-769
-768
-769
-768
-768
-768
-765
-765
-765
-765
-764
-762
-762
-760
-760
-759
-755
-755
-754
-752
-748
-748
-747
-745
-744
-744
-744
-740
-738
-735
-733
-731
-729
-727
-724
-723
-719
-715
-714
-711
-711
-704
-702
-699
-696
-697
-694
-694
-692
-692
-692
-691
-694
-692
-698
-700
-706
-710
-714
-720
-725
-735
-741
-748
-752
-759
-765
-767
-772
-775
-779
-784
-784
-785
-787
-791
-789
-789
-792
-791
-792
-792
-794
-794
-794
-795
-794
-794
-794
-795
-794
-794
-794
-794
-792
-792
-792
-792
-791
-792
-792
-793
-792
-792
-793
-791
-792
-791
-794
-792
-794
-794
-794
-794
-795
-794
-794
-794
-796
-795
-795
-794
-797
-796
-797
-796
-798
-797
-797
-797
-800
-799
-798
-798
-799
-799
-799
-797
-798
-798
-797
-798
-797
-798
-796
-796
-797
-795
-795
-795
-795
-794
-794
-795
-795
-795
-794
-794
-794
-794
-794
-794
-794
-794
-794
-792
-794
-794
-792
-792
-792
-792
-792
-791
-792
-792
-792
-792
-792
-792
-792
-794
-792
-792
-792
-794
-790
-789
-787
-785
-784
-781
-781
-781
-781
-781
-779
-777
-774
-774
-775
-777
-779
-779
-784
-784
-784
-786
-784
-787
-788
-792
-795
-798
-800
-802
-804
-806
-806
-806
-805
-807
-805
-805
-805
-806
-805
-805
-806
-805
-805
-805
-804
-804
-802
-801
-802
-797
-788
-772
-754
-746
-732
-701
-662
-644
-661
-688
-730
-772
-817
-864
-897
-929
-927
-904
-876
-844
-820
-804
-797
-794
-790
-786
-785
-784
-784
-782
-782
-781
-780
-779
-779
-779
-779
-777
-777
-776
-775
-774
-772
-772
-772
-770
-770
-768
-768
-767
-767
-764
-765
-761
-762
-761
-759
-756
-755
-755
-754
-750
-750
-747
-747
-745
-740
-737
-734
-733
-727
-724
-720
-720
-719
-714
-714
-709
-709
-705
-704
-701
-696
-699
-695
-697
-697
-695
-695
-694
-699
-699
-702
-705
-710
-716
-719
-725
-730
-739
-744
-751
-759
-762
-768
-772
-777
-781
-785
-787
-789
-790
-795
-795
-797
-797
-799
-799
-800
-799
-799
-801
-800
-801
-800
-800
-801
-799
-799
-800
-800
-797
-797
-798
-798
-798
-798
-797
-798
-797
-798
-797
-798
-799
-799
-799
-799
-799
-799
-800
-800
-801
-801
-801
-802
-802
-802
-802
-802
-802
-802
-803
-804
-805
-804
-804
-804
-805
-804
-804
-804
-805
-804
-804
-804
-804
-804
-804
-804
-802
-801
-802
-801
-802
-800
-802
-800
-800
-799
-800
-800
-799
-799
-799
-798
-799
-797
-799
-798
-797
-798
-798
-798
-797
-798
-798
-797
-797
-798
-798
-796
-796
-797
-796
-796
-796
-797
-795
-798
-794
-795
-795
-797
-795
-794
-795
-797
-795
-795
-794
-795
-795
-795
-794
-794
-795
-794
-793
-791
-787
-785
-784
-785
-785
-786
-784
-782
-780
-779
-779
-782
-785
-784
-788
-789
-789
-790
-790
-789
-790
-794
-796
-799
-802
-804
-805
-807
-808
-808
-809
-810
-809
-808
-808
-807
-809
-808
-810
-806
-806
-807
-808
-805
-804
-805
-802
-801
-799
-794
-781
-764
-752
-740
-720
-682
-644
-640
-662
-698
-741
-791
-837
-881
-917
-937
-929
-905
-874
-844
-818
-805
-797
-792
-787
-784
-782
-782
-779
-779
-779
-778
-777
-776
-777
-775
-774
-775
-774
-772
-772
-771
-771
-768
-768
-767
-768
-764
-765
-764
-761
-761
-760
-759
-758
-755
-755
-752
-752
-749
-747
-747
-745
-741
-738
-736
-735
-732
-729
-725
-724
-719
-717
-714
-713
-710
-706
-705
-704
-702
-700
-699
-698
-695
-697
-691
-690
-689
-688
-689
-689
-692
-692
-697
-699
-706
-710
-715
-721
-725
-736
-742
-745
-752
-759
-767
-768
-774
-777
-780
-784
-785
-787
-788
-790
-791
-791
-794
-792
-794
-794
-794
-797
-795
-795
-795
-794
-795
-795
-794
-795
-794
-792
-792
-794
-792
-792
-791
-792
-791
-791
-794
-793
-793
-792
-794
-794
-794
-794
-795
-795
-795
-795
-798
-797
-797
-797
-799
-797
-799
-799
-799
-800
-799
-801
-799
-799
-800
-799
-799
-799
-800
-799
-800
-801
-799
-800
-799
-799
-799
-799
-799
-800
-800
-797
-798
-798
-798
-797
-797
-798
-797
-798
-798
-796
-798
-798
-797
-795
-795
-795
-795
-795
-795
-796
-795
-795
-795
-795
-794
-796
-795
-796
-795
-794
-794
-794
-794
-794
-794
-792
-792
-793
-792
-792
-794
-792
-791
-792
-792
-792
-792
-794
-791
-790
-792
-791
-794
-792
-792
-794
-792
-792
-790
-787
-784
-784
-782
-782
-785
-784
-782
-779
-777
-776
-776
-779
-781
-783
-785
-785
-786
-786
-789
-789
-790
-792
-795
-795
-798
-800
-800
-804
-804
-802
-802
-802
-802
-800
-801
-802
-801
-801
-800
-800
-799
-800
-799
-797
-799
-797
-795
-792
-789
-777
-761
-749
-737
-719
-682
-642
-636
-654
-685
-725
-771
-817
-864
-899
-922
-917
-899
-874
-842
-815
-799
-794
-788
-785
-780
-776
-775
-772
-774
-774
-774
-772
-770
-771
-770
-768
-768
-767
-767
-765
-765
-765
-764
-764
-762
-760
-759
-757
-758
-757
-755
-754
-752
-750
-750
-750
-747
-748
-746
-744
-742
-740
-739
-734
-731
-729
-726
-726
-722
-720
-717
-715
-715
-711
-711
-707
-704
-702
-698
-699
-695
-694
-690
-689
-689
-685
-684
-682
-682
-683
-684
-684
-685
-690
-694
-699
-705
-710
-718
-724
-734
-739
-745
-751
-757
-762
-766
-771
-774
-776
-780
-781
-784
-784
-785
-787
-787
-788
-787
-789
-790
-790
-790
-790
-790
-790
-791
-790
-790
-790
-790
-789
-789
-790
-789
-789
-789
-790
-789
-789
-789
-789
-789
-789
-788
-789
-789
-789
-788
-787
-789
-789
-789
-790
-789
-790
-791
-792
-792
-791
-792
-792
-794
-792
-794
-794
-794
-794
-794
-794
-794
-794
-795
-794
-795
-794
-795
-794
-794
-794
-793
-793
-792
-792
-794
-791
-792
-790
-792
-791
-790
-790
-791
-789
-789
-789
-791
-789
-790
-789
-790
-790
-790
-790
-789
-789
-790
-789
-789
-789
-789
-790
-790
-789
-790
-789
-789
-789
-789
-789
-789
-787
-785
-784
-781
-779
-779
-779
-780
-782
-778
-778
-775
-775
-777
-777
-780
-780
-782
-784
-784
-785
-784
-785
-787
-789
-792
-795
-798
-800
-801
-804
-802
-804
-804
-804
-804
-804
-804
-804
-804
-804
-804
-805
-804
-804
-802
-804
-802
-800
-800
-795
-784
-767
-755
-743
-722
-684
-644
-638
-661
-692
-735
-784
-829
-874
-915
-938
-930
-907
-875
-846
-820
-805
-798
-794
-790
-787
-785
-784
-781
-781
-784
-780
-779
-778
-775
-776
-775
-776
-775
-775
-774
-774
-772
-769
-770
-770
-768
-767
-765
-765
-764
-762
-762
-761
-762
-760
-759
-757
-757
-757
-754
-752
-750
-749
-747
-744
-742
-740
-739
-737
-734
-732
-726
-725
-720
-719
-717
-714
-711
-706
-706
-704
-700
-700
-695
-694
-694
-693
-692
-687
-690
-690
-691
-694
-698
-700
-704
-711
-715
-725
-732
-740
-748
-754
-762
-764
-771
-776
-780
-784
-786
-789
-791
-794
-795
-796
-800
-799
-800
-801
-802
-804
-804
-804
-803
-802
-804
-804
-804
-802
-802
-802
-804
-803
-801
-802
-802
-800
-801
-800
-802
-799
-799
-799
-802
-799
-800
-800
-799
-799
-799
-800
-800
-799
-800
-800
-801
-801
-802
-802
-802
-802
-802
-801
-802
-803
-804
-802
-802
-804
-804
-804
-804
-804
-804
-804
-804
-802
-802
-800
-801
-800
-800
-800
-800
-799
-799
-799
-799
-797
-797
-798
-798
-798
-798
-800
-797
-797
-797
-799
-796
-797
-797
-796
-796
-796
-797
-797
-795
-796
-795
-796
-795
-795
-796
-795
-795
-792
-790
-789
-787
-786
-784
-785
-787
-785
-782
-780
-779
-780
-782
-784
-784
-785
-787
-787
-789
-789
-789
-790
-794
-795
-799
-802
-804
-807
-808
-809
-810
-808
-810
-809
-810
-809
-810
-809
-809
-810
-808
-808
-808
-807
-807
-806
-805
-805
-801
-794
-777
-763
-750
-737
-710
-670
-640
-649
-675
-717
-765
-810
-859
-901
-930
-945
-925
-900
-870
-840
-819
-809
-802
-798
-795
-790
-789
-788
-787
-788
-785
-785
-784
-785
-785
-782
-783
-784
-781
-779
-778
-775
-776
-776
-774
-774
-774
-770
-771
-769
-768
-765
-765
-765
-764
-764
-762
-761
-759
-757
-755
-754
-752
-750
-749
-746
-743
-740
-735
-734
-729
-728
-726
-721
-720
-718
-718
-714
-712
-710
-706
-705
-702
-700
-699
-695
-695
-694
-694
-692
-694
-696
-695
-700
-705
-709
-714
-720
-729
-735
-744
-750
-755
-765
-770
-776
-780
-782
-786
-789
-794
-794
-797
-798
-799
-800
-802
-804
-804
-804
-805
-805
-805
-805
-806
-805
-804
-804
-804
-805
-804
-804
-804
-804
-802
-801
-803
-802
-800
-801
-800
-802
-802
-801
-801
-801
-802
-804
-801
-801
-802
-805
-802
-802
-802
-804
-804
-804
-804
-803
-804
-804
-804
-804
-805
-806
-805
-805
-804
-804
-804
-805
-805
-805
-804
-805
-804
-804
-804
-804
-804
-802
-802
-801
-801
-801
-800
-799
-800
-799
-799
-799
-799
-799
-800
-799
-799
-799
-798
-797
-798
-798
-799
-797
-797
-797
-800
-796
-797
-795
-797
-796
-796
-797
-797
-797
-797
-795
-795
-795
-794
-791
-790
-787
-785
-784
-785
-786
-785
-782
-779
-778
-779
-780
-784
-784
-785
-787
-787
-789
-788
-788
-789
-792
-795
-795
-799
-801
-804
-807
-806
-807
-805
-807
-808
-808
-807
-809
-807
-806
-805
-807
-805
-805
-806
-806
-804
-802
-803
-800
-794
-779
-764
-752
-741
-720
-684
-640
-634
-658
-690
-739
-785
-840
-891
-922
-941
-932
-910
-884
-850
-828
-814
-804
-796
-792
-785
-781
-781
-777
-777
-775
-775
-775
-774
-775
-774
-774
-772
-771
-770
-769
-769
-769
-768
-768
-765
-766
-765
-764
-759
-760
-761
-758
-757
-756
-756
-755
-751
-751
-749
-749
-745
-744
-744
-740
-741
-737
-735
-733
-729
-728
-724
-725
-724
-719
-718
-715
-714
-710
-707
-705
-700
-700
-694
-698
-696
-695
-694
-690
-693
-692
-694
-696
-698
-704
-708
-711
-714
-724
-731
-736
-744
-745
-753
-757
-764
-767
-770
-775
-777
-781
-782
-785
-787
-790
-789
-791
-790
-794
-793
-794
-791
-791
-793
-791
-789
-789
-792
-790
-789
-789
-790
-792
-791
-790
-789
-787
-787
-785
-787
-784
-784
-786
-787
-786
-784
-784
-785
-784
-784
-785
-787
-785
-788
-785
-787
-787
-785
-786
-789
-789
-785
-785
-788
-789
-789
-787
-785
-784
-786
-787
-788
-787
-787
-788
-787
-787
-787
-785
-786
-781
-780
-781
-784
-787
-786
-784
-785
-785
-784
-784
-782
-780
-782
-783
-784
-784
-785
-782
-781
-782
-784
-784
-782
-780
-780
-781
-784
-785
-785
-787
-785
-781
-775
-772
-775
-774
-774
-770
-774
-774
-774
-771
-768
-767
-765
-766
-765
-767
-778
-781
-777
-777
-780
-780
-780
-779
-784
-787
-790
-794
-795
-794
-795
-797
-798
-799
-798
-799
-799
-796
-795
-794
-798
-797
-797
-799
-799
-795
-794
-798
-794
-789
-775
-758
-748
-738
-720
-684
-641
-632
-650
-680
-728
-770
-825
-870
-895
-924
-924
-905
-878
-845
-824
-812
-807
-804
-801
-790
-777
-775
-778
-781
-782
-781
-782
-784
-782
-780
-778
-778
-777
-777
-774
-774
-778
-780
-774
-768
-768
-769
-772
-768
-768
-767
-764
-761
-762
-764
-760
-752
-753
-755
-758
-754
-752
-750
-749
-747
-744
-741
-739
-740
-738
-735
-734
-730
-724
-720
-720
-720
-718
-718
-714
-709
-707
-706
-709
-706
-707
-704
-706
-708
-707
-705
-707
-719
-720
-724
-730
-736
-744
-750
-759
-767
-774
-774
-777
-784
-790
-795
-794
-795
-802
-802
-804
-805
-805
-808
-814
-815
-814
-801
-797
-804
-810
-811
-814
-815
-818
-824
-819
-795
-780
-802
-811
-815
-824
-812
-801
-804
-814
-815
-806
-790
-789
-805
-810
-810
-817
-814
-804
-805
-815
-800
-785
-805
-814
-815
-822
-817
-795
-804
-827
-792
-771
-795
-814
-825
-827
-812
-797
-804
-818
-810
-796
-821
-825
-797
-799
-812
-809
-810
-814
-817
-802
-800
-817
-818
-797
-792
-807
-814
-814
-812
-809
-816
-816
-812
-789
-788
-806
-810
-804
-804
-814
-823
-807
-802
-791
-775
-778
-794
-804
-802
-802
-804
-800
-790
-784
-795
-807
-805
-798
-807
-817
-808
-805
-814
-817
-822
-834
-821
-796
-805
-827
-829
-825
-844
-852
-838
-819
-822
-828
-831
-837
-842
-804
-787
-810
-812
-814
-822
-821
-814
-811
-772
-734
-726
-688
-647
-654
-680
-707
-741
-799
-857
-897
-940
-948
-912
-895
-890
-860
-831
-829
-835
-830
-807
-791
-817
-825
-808
-785
-790
-804
-818
-815
-807
-805
-805
-784
-792
-799
-799
-802
-805
-808
-798
-785
-792
-800
-794
-789
-795
-788
-780
-780
-785
-792
-792
-777
-769
-779
-781
-784
-784
-781
-767
-750
-751
-754
-756
-755
-750
-744
-745
-752
-752
-724
-715
-744
-741
-700
-700
-730
-734
-727
-725
-723
-720
-719
-725
-702
-711
-746
-734
-715
-726
-745
-747
-754
-765
-762
-772
-789
-794
-790
-780
-788
-797
-805
-814
-815
-816
-818
-824
-816
-809
-814
-818
-822
-826
-830
-819
-815
-820
-820
-822
-828
-820
-814
-814
-817
-810
-815
-824
-819
-818
-815
-815
-814
-815
-817
-810
-811
-816
-812
-810
-810
-814
-811
-810
-814
-810
-808
-807
-808
-809
-810
-812
-811
-814
-810
-805
-805
-809
-809
-810
-809
-809
-810
-810
-812
-812
-809
-807
-810
-812
-812
-810
-810
-808
-810
-811
-809
-807
-808
-809
-809
-808
-805
-807
-807
-807
-809
-806
-805
-802
-802
-797
-794
-796
-797
-797
-796
-794
-791
-789
-785
-788
-794
-794
-794
-796
-797
-796
-795
-793
-792
-799
-805
-805
-807
-810
-814
-814
-814
-812
-810
-810
-814
-814
-815
-814
-814
-814
-813
-808
-810
-809
-809
-810
-809
-807
-806
-804
-789
-772
-768
-755
-740
-704
-654
-634
-645
-665
-703
-749
-808
-867
-905
-932
-936
-909
-882
-849
-825
-814
-818
-814
-800
-795
-795
-791
-787
-786
-789
-792
-790
-788
-792
-787
-780
-781
-779
-784
-789
-786
-778
-776
-772
-771
-777
-772
-768
-767
-770
-770
-765
-762
-764
-767
-760
-756
-759
-754
-754
-751
-747
-749
-742
-741
-739
-739
-734
-734
-730
-722
-723
-721
-711
-711
-710
-710
-714
-708
-700
-697
-697
-694
-695
-696
-691
-688
-682
-689
-690
-693
-697
-701
-712
-712
-715
-726
-734
-744
-749
-754
-758
-764
-768
-772
-777
-780
-784
-785
-785
-792
-794
-794
-790
-795
-799
-801
-796
-795
-799
-799
-789
-789
-795
-794
-798
-797
-795
-795
-796
-794
-790
-790
-790
-792
-789
-789
-790
-792
-789
-789
-789
-785
-782
-782
-785
-787
-787
-790
-789
-789
-791
-789
-789
-787
-791
-787
-790
-790
-787
-785
-788
-790
-790
-791
-790
-790
-790
-790
-790
-791
-790
-789
-790
-794
-796
-792
-789
-787
-789
-789
-790
-789
-789
-789
-790
-789
-789
-789
-789
-792
-788
-784
-785
-784
-785
-780
-776
-775
-772
-777
-780
-777
-773
-770
-770
-769
-768
-772
-774
-774
-772
-775
-777
-775
-774
-774
-779
-781
-785
-789
-789
-790
-793
-795
-791
-792
-794
-794
-789
-791
-792
-792
-792
-792
-790
-794
-789
-790
-787
-788
-788
-784
-781
-774
-760
-747
-740
-725
-690
-642
-622
-634
-650
-676
-714
-774
-834
-875
-918
-918
-899
-875
-847
-824
-810
-804
-795
-788
-782
-779
-777
-776
-779
-775
-776
-775
-775
-774
-772
-771
-768
-770
-770
-770
-768
-769
-768
-765
-765
-764
-764
-762
-760
-760
-759
-756
-754
-754
-754
-750
-750
-746
-746
-746
-744
-743
-739
-740
-736
-734
-730
-729
-729
-723
-722
-720
-717
-714
-712
-711
-707
-705
-703
-699
-699
-697
-698
-692
-690
-689
-689
-691
-690
-690
-691
-697
-699
-702
-709
-714
-724
-728
-737
-740
-747
-754
-759
-765
-768
-774
-776
-777
-781
-784
-787
-785
-785
-787
-787
-789
-789
-791
-789
-787
-788
-789
-789
-789
-788
-785
-787
-787
-785
-786
-785
-785
-784
-784
-782
-784
-784
-782
-782
-782
-781
-782
-782
-781
-781
-782
-784
-782
-784
-784
-785
-781
-782
-782
-784
-782
-782
-781
-784
-784
-785
-784
-784
-782
-782
-782
-784
-784
-784
-784
-784
-784
-781
-780
-784
-781
-783
-784
-782
-780
-779
-780
-780
-780
-777
-779
-778
-774
-771
-770
-770
-772
-775
-768
-763
-764
-764
-764
-765
-766
-767
-766
-771
-769
-768
-768
-771
-774
-775
-780
-781
-782
-784
-787
-788
-788
-790
-790
-791
-787
-784
-790
-789
-787
-787
-787
-786
-785
-785
-785
-786
-784
-781
-779
-776
-767
-754
-744
-731
-710
-672
-630
-620
-632
-649
-675
-712
-769
-824
-865
-900
-902
-884
-864
-834
-814
-802
-792
-787
-785
-782
-776
-775
-775
-774
-772
-772
-774
-772
-772
-773
-774
-771
-769
-769
-769
-769
-766
-768
-766
-764
-764
-763
-762
-760
-760
-759
-758
-755
-754
-754
-752
-750
-749
-747
-747
-744
-744
-742
-740
-739
-735
-734
-730
-730
-725
-722
-720
-717
-718
-714
-710
-710
-707
-707
-701
-700
-696
-696
-694
-694
-697
-695
-699
-699
-703
-705
-709
-715
-718
-725
-730
-737
-742
-748
-754
-759
-764
-770
-774
-777
-779
-782
-785
-787
-787
-789
-790
-790
-790
-790
-792
-791
-792
-791
-791
-792
-791
-791
-790
-789
-790
-790
-789
-789
-789
-789
-788
-787
-787
-789
-787
-786
-787
-787
-785
-785
-785
-784
-785
-786
-785
-785
-785
-785
-785
-786
-785
-785
-786
-785
-785
-786
-785
-785
-785
-785
-785
-785
-787
-785
-785
-786
-787
-785
-786
-787
-787
-785
-785
-786
-787
-787
-788
-785
-785
-785
-785
-787
-785
-785
-786
-785
-784
-780
-776
-775
-775
-776
-775
-776
-775
-774
-769
-770
-771
-774
-772
-771
-774
-775
-775
-776
-775
-776
-777
-781
-784
-787
-790
-790
-794
-794
-794
-795
-795
-795
-794
-795
-795
-795
-794
-794
-794
-794
-795
-794
-792
-792
-790
-790
-788
-784
-772
-759
-747
-734
-711
-664
-630
-632
-650
-668
-705
-746
-807
-865
-907
-927
-915
-892
-867
-838
-818
-805
-797
-792
-789
-784
-784
-784
-781
-781
-779
-780
-780
-779
-779
-777
-777
-776
-776
-775
-774
-774
-772
-772
-769
-770
-770
-768
-767
-765
-766
-764
-764
-760
-759
-759
-755
-757
-754
-752
-752
-750
-747
-747
-745
-744
-740
-740
-737
-735
-733
-730
-725
-722
-724
-719
-717
-714
-712
-709
-705
-708
-705
-705
-702
-703
-705
-704
-704
-704
-709
-710
-714
-722
-724
-730
-736
-744
-750
-757
-764
-767
-775
-777
-781
-787
-788
-790
-792
-794
-796
-798
-799
-799
-800
-800
-801
-803
-801
-802
-801
-802
-800
-801
-801
-799
-800
-800
-799
-798
-799
-798
-797
-797
-795
-795
-797
-796
-795
-795
-795
-794
-795
-795
-795
-796
-794
-796
-794
-795
-796
-795
-795
-795
-795
-796
-796
-796
-796
-797
-795
-796
-795
-795
-797
-795
-796
-795
-796
-795
-797
-797
-797
-797
-795
-797
-798
-795
-795
-795
-795
-795
-795
-795
-795
-795
-794
-794
-794
-792
-790
-788
-787
-785
-784
-782
-784
-784
-784
-780
-776
-775
-777
-779
-780
-780
-782
-784
-785
-786
-784
-785
-785
-789
-791
-795
-798
-799
-802
-803
-804
-804
-804
-804
-802
-804
-804
-805
-804
-804
-804
-804
-802
-802
-802
-800
-800
-799
-797
-795
-785
-771
-759
-750
-729
-690
-644
-637
-652
-674
-705
-752
-814
-873
-919
-949
-934
-910
-882
-851
-830
-815
-807
-801
-797
-791
-790
-789
-789
-788
-787
-787
-785
-785
-785
-784
-782
-782
-782
-780
-780
-779
-777
-777
-777
-778
-774
-774
-772
-772
-768
-768
-766
-765
-764
-763
-763
-760
-759
-756
-754
-754
-752
-751
-750
-747
-745
-740
-741
-739
-736
-734
-730
-730
-725
-725
-722
-720
-720
-715
-715
-711
-710
-708
-707
-705
-705
-707
-705
-710
-710
-714
-719
-724
-730
-734
-743
-747
-757
-764
-768
-771
-778
-785
-788
-790
-794
-795
-797
-799
-800
-802
-801
-802
-802
-804
-805
-804
-805
-804
-805
-805
-805
-804
-805
-804
-804
-804
-802
-803
-802
-803
-802
-802
-801
-800
-800
-800
-800
-802
-799
-801
-799
-800
-800
-799
-799
-799
-800
-800
-802
-802
-804
-802
-801
-803
-804
-802
-804
-802
-805
-802
-802
-801
-802
-804
-804
-802
-802
-802
-804
-804
-805
-804
-804
-802
-804
-802
-802
-800
-800
-801
-799
-800
-799
-800
-800
-799
-799
-798
-798
-797
-797
-798
-798
-798
-797
-797
-797
-798
-797
-797
-797
-797
-796
-796
-795
-799
-797
-796
-795
-799
-796
-795
-795
-798
-795
-792
-790
-788
-786
-785
-784
-785
-785
-784
-781
-782
-777
-778
-780
-781
-781
-784
-784
-785
-785
-785
-785
-788
-790
-794
-797
-800
-802
-804
-804
-805
-805
-805
-805
-805
-805
-805
-806
-805
-806
-805
-805
-804
-804
-804
-804
-803
-802
-799
-802
-795
-789
-774
-760
-751
-735
-702
-654
-634
-644
-662
-687
-728
-781
-847
-900
-936
-944
-920
-894
-864
-835
-819
-807
-799
-794
-788
-785
-785
-784
-784
-784
-781
-780
-779
-778
-775
-775
-775
-774
-773
-770
-770
-771
-770
-768
-765
-767
-765
-765
-761
-761
-762
-759
-756
-755
-754
-752
-747
-749
-746
-745
-744
-740
-739
-737
-738
-733
-730
-729
-728
-725
-722
-721
-716
-717
-714
-713
-712
-709
-709
-705
-705
-701
-700
-700
-698
-699
-697
-699
-699
-700
-704
-706
-710
-714
-720
-724
-728
-735
-742
-749
-754
-760
-765
-770
-774
-777
-780
-784
-784
-787
-788
-792
-790
-792
-792
-794
-794
-794
-794
-794
-794
-794
-794
-794
-794
-794
-791
-792
-791
-791
-790
-791
-791
-790
-789
-789
-789
-789
-789
-790
-790
-791
-789
-790
-790
-790
-792
-792
-792
-794
-794
-795
-794
-795
-795
-795
-794
-794
-795
-795
-795
-795
-795
-794
-794
-795
-795
-795
-796
-795
-795
-795
-795
-795
-795
-794
-794
-794
-791
-792
-790
-791
-790
-790
-792
-790
-790
-790
-792
-792
-792
-791
-790
-791
-790
-790
-790
-790
-791
-789
-789
-790
-791
-790
-788
-790
-788
-789
-789
-789
-789
-788
-789
-787
-787
-785
-785
-787
-785
-785
-784
-787
-785
-785
-785
-784
-785
-784
-784
-784
-785
-785
-784
-784
-785
-784
-784
-785
-785
-781
-780
-778
-776
-774
-775
-776
-775
-775
-772
-770
-768
-765
-766
-768
-770
-771
-775
-776
-776
-775
-776
-780
-780
-781
-785
-785
-789
-792
-795
-795
-795
-794
-795
-795
-794
-795
-795
-795
-794
-794
-792
-792
-791
-790
-791
-790
-789
-787
-786
-784
-777
-768
-752
-743
-731
-709
-669
-626
-627
-641
-665
-695
-740
-801
-850
-887
-912
-902
-884
-859
-832
-810
-796
-790
-785
-780
-774
-771
-771
-770
-770
-770
-770
-767
-765
-765
-765
-764
-764
-762
-764
-760
-762
-762
-759
-759
-759
-759
-755
-756
-754
-752
-751
-749
-749
-747
-745
-744
-744
-742
-740
-739
-737
-735
-735
-732
-730
-728
-726
-722
-720
-717
-716
-715
-710
-710
-709
-705
-703
-699
-695
-691
-690
-688
-689
-688
-685
-686
-686
-688
-688
-692
-692
-695
-699
-702
-707
-715
-724
-730
-735
-742
-749
-755
-759
-765
-766
-770
-772
-775
-776
-777
-780
-780
-781
-782
-782
-782
-782
-784
-785
-784
-784
-784
-784
-784
-784
-784
-783
-784
-782
-782
-781
-784
-782
-781
-781
-781
-781
-781
-781
-782
-782
-784
-783
-784
-784
-785
-784
-784
-785
-787
-786
-785
-785
-787
-787
-787
-788
-789
-788
-788
-790
-789
-789
-789
-790
-790
-789
-790
-790
-791
-790
-791
-791
-790
-792
-791
-792
-789
-790
-789
-789
-790
-789
-790
-787
-788
-789
-789
-790
-789
-789
-787
-789
-789
-789
-789
-788
-787
-787
-786
-789
-787
-787
-785
-789
-787
-786
-786
-788
-786
-785
-786
-787
-786
-787
-785
-786
-785
-787
-787
-788
-787
-785
-785
-785
-786
-784
-785
-785
-785
-783
-779
-777
-776
-776
-776
-775
-774
-772
-770
-768
-768
-771
-774
-776
-775
-777
-777
-778
-779
-780
-782
-785
-787
-789
-794
-795
-797
-799
-801
-800
-800
-799
-801
-799
-799
-799
-799
-800
-797
-797
-798
-797
-796
-796
-798
-794
-792
-787
-776
-760
-750
-739
-714
-674
-639
-643
-656
-680
-714
-763
-820
-870
-912
-932
-917
-894
-867
-840
-820
-807
-798
-792
-787
-782
-780
-779
-778
-775
-775
-772
-775
-774
-774
-770
-770
-770
-770
-768
-769
-768
-767
-765
-766
-764
-764
-764
-761
-762
-758
-759
-756
-755
-754
-751
-752
-747
-747
-744
-742
-742
-740
-739
-735
-734
-732
-728
-727
-721
-721
-715
-714
-710
-707
-707
-702
-700
-695
-695
-694
-690
-690
-687
-686
-684
-681
-684
-682
-684
-682
-688
-689
-694
-697
-706
-714
-717
-726
-734
-742
-749
-755
-762
-765
-772
-776
-779
-782
-784
-786
-788
-789
-790
-790
-791
-790
-791
-792
-792
-792
-792
-794
-792
-794
-792
-792
-792
-789
-791
-790
-791
-790
-790
-789
-789
-791
-789
-790
-789
-789
-790
-790
-791
-791
-794
-790
-790
-792
-794
-792
-791
-792
-794
-794
-794
-794
-794
-794
-794
-795
-794
-795
-794
-795
-795
-795
-795
-795
-797
-797
-797
-796
-797
-798
-797
-797
-796
-795
-797
-795
-796
-795
-794
-795
-794
-795
-794
-794
-794
-794
-795
-794
-795
-795
-795
-795
-794
-794
-794
-796
-794
-794
-794
-795
-793
-792
-792
-793
-794
-794
-793
-794
-794
-794
-792
-792
-792
-792
-792
-791
-793
-792
-792
-792
-792
-792
-792
-794
-794
-794
-793
-793
-792
-794
-793
-794
-792
-794
-794
-794
-794
-794
-794
-792
-789
-786
-785
-784
-784
-785
-782
-781
-780
-777
-775
-777
-781
-782
-786
-785
-787
-790
-793
-794
-794
-797
-799
-802
-804
-804
-805
-805
-805
-805
-806
-805
-805
-805
-805
-804
-804
-803
-804
-804
-802
-801
-800
-800
-797
-795
-787
-771
-759
-749
-730
-694
-648
-635
-649
-665
-697
-740
-802
-867
-911
-946
-942
-917
-893
-861
-836
-819
-808
-804
-795
-790
-785
-785
-784
-784
-781
-782
-781
-780
-779
-777
-778
-775
-775
-775
-774
-774
-771
-774
-771
-770
-769
-768
-768
-766
-765
-764
-763
-764
-761
-760
-758
-758
-757
-754
-754
-750
-750
-747
-747
-746
-742
-740
-736
-735
-734
-729
-729
-724
-724
-721
-719
-715
-710
-711
-705
-705
-701
-700
-702
-697
-700
-695
-697
-697
-699
-701
-703
-709
-710
-716
-720
-725
-732
-737
-747
-750
-759
-765
-770
-776
-779
-784
-785
-789
-792
-794
-797
-797
-799
-799
-800
-802
-802
-801
-801
-802
-799
-799
-800
-800
-800
-799
-799
-799
-798
-799
-798
-800
-798
-798
-798
-798
-797
-798
-798
-797
-797
-797
-797
-797
-797
-796
-797
-797
-798
-798
-799
-799
-800
-799
-799
-800
-799
-801
-799
-799
-802
-802
-800
-800
-801
-802
-802
-802
-802
-804
-802
-802
-804
-804
-804
-800
-802
-802
-800
-801
-801
-800
-801
-800
-800
-800
-802
-799
-800
-799
-799
-799
-798
-797
-797
-797
-796
-797
-797
-796
-797
-796
-798
-796
-795
-795
-794
-794
-795
-795
-795
-794
-795
-795
-795
-795
-795
-794
-794
-795
-794
-795
-796
-796
-795
-794
-797
-795
-795
-795
-795
-796
-795
-796
-795
-795
-795
-797
-796
-794
-794
-794
-791
-787
-786
-785
-782
-784
-784
-785
-787
-790
-793
-794
-799
-802
-803
-804
-802
-804
-804
-804
-805
-805
-806
-806
-807
-806
-805
-805
-805
-805
-805
-804
-804
-804
-802
-800
-800
-800
-797
-791
-778
-763
-750
-740
-718
-676
-629
-628
-642
-665
-700
-751
-822
-884
-931
-957
-939
-919
-889
-860
-835
-818
-805
-799
-794
-787
-784
-782
-782
-779
-782
-779
-777
-777
-775
-775
-774
-772
-774
-771
-772
-770
-770
-768
-768
-768
-765
-764
-764
-764
-762
-759
-759
-755
-755
-755
-754
-752
-750
-750
-748
-745
-744
-741
-741
-735
-735
-734
-731
-729
-726
-724
-720
-718
-717
-714
-714
-707
-705
-704
-703
-703
-695
-696
-692
-691
-689
-688
-692
-691
-695
-696
-699
-700
-702
-709
-712
-719
-724
-732
-740
-745
-753
-757
-764
-768
-772
-777
-780
-784
-785
-787
-789
-790
-794
-792
-795
-794
-794
-794
-795
-795
-795
-794
-797
-794
-794
-794
-796
-794
-794
-794
-792
-794
-792
-792
-792
-792
-792
-790
-794
-791
-792
-791
-792
-792
-791
-792
-792
-791
-792
-792
-794
-793
-794
-794
-794
-794
-794
-795
-794
-795
-794
-795
-795
-795
-795
-795
-796
-795
-795
-795
-795
-795
-794
-795
-794
-796
-795
-795
-794
-794
-793
-795
-791
-792
-792
-792
-791
-790
-791
-789
-791
-791
-789
-790
-789
-789
-789
-789
-789
-789
-789
-789
-789
-787
-789
-789
-789
-787
-786
-787
-787
-786
-787
-787
-788
-787
-788
-788
-787
-787
-787
-787
-787
-788
-788
-787
-789
-789
-789
-789
-789
-789
-791
-790
-789
-789
-791
-787
-787
-785
-787
-787
-789
-785
-784
-781
-780
-780
-780
-784
-785
-787
-789
-792
-794
-794
-794
-794
-795
-795
-795
-796
-795
-796
-796
-796
-798
-796
-796
-796
-795
-795
-795
-794
-794
-794
-790
-789
-786
-779
-765
-749
-741
-724
-695
-644
-617
-624
-643
-669
-710
-764
-832
-879
-918
-925
-915
-892
-867
-837
-816
-800
-793
-785
-781
-774
-770
-771
-768
-770
-768
-766
-766
-765
-767
-765
-765
-765
-764
-763
-760
-761
-760
-760
-759
-758
-758
-754
-755
-753
-752
-751
-749
-749
-745
-745
-744
-742
-740
-739
-739
-735
-734
-732
-729
-729
-724
-724
-721
-719
-717
-715
-714
-710
-709
-706
-703
-702
-698
-695
-692
-690
-690
-687
-689
-685
-685
-685
-686
-689
-688
-694
-694
-700
-704
-709
-714
-719
-728
-732
-740
-745
-752
-757
-762
-768
-770
-775
-779
-781
-784
-784
-787
-787
-789
-790
-789
-792
-789
-790
-790
-792
-791
-789
-789
-789
-789
-790
-788
-790
-789
-789
-788
-787
-788
-789
-789
-786
-788
-787
-787
-787
-788
-789
-787
-787
-788
-787
-789
-788
-789
-788
-788
-789
-790
-790
-791
-792
-792
-791
-792
-792
-794
-794
-794
-795
-794
-794
-794
-795
-795
-795
-798
-797
-796
-795
-798
-795
-795
-795
-795
-795
-792
-794
-794
-794
-792
-792
-794
-791
-793
-792
-792
-791
-790
-790
-791
-791
-790
-790
-792
-789
-791
-790
-791
-790
-791
-792
-789
-790
-790
-789
-791
-790
-789
-789
-789
-789
-789
-791
-789
-790
-789
-790
-789
-789
-792
-791
-791
-789
-790
-792
-789
-791
-790
-792
-792
-792
-792
-792
-793
-792
-791
-791
-790
-792
-794
-794
-789
-787
-785
-785
-786
-787
-790
-790
-792
-795
-798
-799
-799
-800
-799
-800
-800
-800
-801
-801
-801
-801
-800
-802
-801
-800
-801
-800
-801
-799
-799
-797
-797
-795
-794
-789
-779
-764
-749
-740
-719
-679
-637
-630
-644
-665
-698
-742
-808
-868
-907
-942
-934
-912
-885
-855
-834
-817
-805
-796
-792
-785
-782
-781
-781
-779
-778
-777
-777
-776
-776
-775
-774
-772
-772
-771
-771
-771
-770
-769
-768
-767
-766
-767
-765
-764
-763
-762
-760
-757
-759
-759
-755
-754
-752
-750
-749
-744
-745
-742
-740
-739
-735
-735
-732
-732
-727
-725
-724
-720
-720
-716
-715
-710
-709
-706
-700
-700
-696
-696
-695
-693
-694
-690
-692
-690
-694
-694
-695
-700
-702
-711
-715
-724
-728
-735
-742
-749
-755
-762
-768
-771
-776
-780
-784
-786
-788
-790
-795
-795
-795
-795
-800
-797
-799
-800
-799
-800
-800
-799
-799
-799
-799
-797
-801
-797
-798
-797
-799
-797
-796
-797
-797
-797
-797
-795
-795
-794
-795
-795
-796
-796
-796
-795
-795
-798
-797
-798
-797
-798
-799
-799
-799
-799
-799
-801
-800
-800
-800
-801
-801
-802
-802
-804
-802
-801
-802
-804
-802
-804
-804
-804
-804
-804
-804
-802
-804
-804
-804
-805
-804
-804
-802
-804
-804
-804
-804
-804
-804
-804
-805
-804
-804
-802
-802
-802
-802
-802
-804
-802
-803
-802
-802
-802
-804
-804
-804
-804
-803
-802
-802
-804
-804
-802
-804
-802
-802
-802
-804
-804
-803
-802
-804
-801
-801
-800
-802
-802
-802
-802
-800
-801
-801
-801
-801
-802
-801
-799
-802
-802
-802
-800
-802
-800
-800
-801
-801
-802
-800
-800
-801
-801
-802
-801
-802
-801
-801
-800
-801
-802
-800
-801
-801
-800
-800
-800
-800
-801
-800
-801
-799
-800
-799
-800
-795
-794
-789
-790
-790
-788
-787
-785
-784
-781
-780
-780
-782
-788
-790
-789
-788
-787
-788
-787
-789
-792
-795
-799
-800
-804
-804
-805
-806
-805
-806
-805
-807
-805
-805
-805
-805
-805
-804
-804
-802
-801
-800
-800
-799
-798
-795
-789
-779
-764
-751
-740
-712
-671
-635
-637
-650
-674
-709
-759
-824
-879
-917
-948
-931
-909
-881
-854
-830
-814
-804
-796
-794
-785
-784
-781
-780
-779
-777
-777
-775
-777
-775
-775
-775
-772
-774
-771
-770
-770
-768
-768
-767
-766
-764
-764
-764
-761
-760
-759
-759
-755
-755
-755
-754
-754
-751
-750
-750
-745
-745
-742
-740
-736
-734
-734
-729
-728
-724
-720
-720
-717
-715
-712
-709
-709
-704
-702
-700
-698
-694
-691
-690
-686
-688
-687
-690
-690
-689
-693
-694
-697
-700
-705
-709
-715
-720
-727
-736
-740
-747
-754
-758
-764
-768
-775
-777
-782
-784
-787
-789
-791
-792
-794
-795
-795
-795
-797
-799
-797
-798
-797
-797
-797
-798
-797
-797
-797
-795
-795
-795
-795
-796
-795
-796
-795
-795
-795
-794
-794
-794
-793
-793
-794
-794
-792
-794
-794
-795
-794
-795
-794
-796
-796
-797
-798
-798
-797
-797
-799
-799
-799
-799
-799
-799
-801
-800
-800
-800
-804
-802
-801
-801
-804
-804
-802
-802
-800
-799
-800
-800
-799
-799
-799
-799
-799
-799
-797
-799
-799
-799
-797
-798
-799
-798
-799
-799
-799
-799
-797
-798
-798
-798
-798
-797
-797
-795
-797
-796
-797
-796
-797
-796
-797
-797
-796
-795
-796
-796
-798
-797
-796
-794
-795
-798
-795
-795
-795
-799
-795
-795
-795
-795
-794
-794
-794
-795
-795
-797
-795
-796
-795
-795
-795
-794
-796
-796
-794
-794
-794
-791
-788
-787
-785
-786
-785
-785
-784
-782
-780
-779
-777
-781
-785
-788
-787
-786
-785
-787
-788
-787
-792
-794
-795
-800
-802
-804
-806
-804
-807
-804
-805
-804
-807
-805
-804
-804
-805
-804
-802
-801
-801
-801
-800
-799
-798
-796
-792
-784
-770
-758
-747
-730
-695
-648
-628
-639
-660
-690
-731
-790
-857
-902
-937
-944
-921
-898
-869
-841
-822
-808
-800
-794
-787
-781
-780
-780
-779
-777
-775
-776
-774
-774
-774
-771
-772
-769
-770
-765
-768
-767
-765
-761
-763
-764
-763
-760
-759
-758
-757
-755
-754
-752
-750
-750
-747
-749
-747
-746
-743
-740
-739
-737
-735
-733
-733
-729
-725
-725
-720
-719
-715
-714
-711
-705
-706
-702
-702
-698
-697
-695
-690
-692
-689
-690
-689
-690
-690
-692
-693
-695
-700
-703
-708
-710
-719
-725
-729
-739
-745
-752
-757
-763
-768
-771
-776
-779
-782
-784
-789
-788
-789
-790
-790
-792
-794
-792
-794
-792
-794
-794
-795
-794
-794
-792
-793
-792
-792
-792
-791
-791
-792
-791
-790
-791
-791
-789
-789
-789
-787
-789
-789
-789
-790
-789
-790
-789
-789
-791
-790
-789
-790
-794
-791
-792
-792
-792
-794
-794
-794
-794
-794
-794
-794
-795
-794
-795
-794
-795
-795
-796
-795
-795
-796
-794
-795
-795
-795
-794
-794
-794
-794
-792
-792
-792
-794
-792
-792
-791
-792
-791
-793
-794
-791
-792
-791
-792
-790
-790
-791
-789
-790
-789
-790
-789
-789
-791
-792
-789
-790
-790
-789
-789
-789
-789
-789
-789
-789
-789
-789
-789
-789
-790
-789
-789
-789
-789
-789
-789
-789
-789
-789
-790
-789
-787
-789
-789
-790
-790
-791
-790
-790
-790
-790
-791
-790
-790
-789
-785
-784
-782
-783
-781
-780
-781
-779
-778
-774
-771
-774
-777
-781
-784
-781
-781
-780
-782
-782
-785
-786
-790
-792
-795
-797
-799
-802
-803
-802
-802
-803
-803
-800
-802
-800
-800
-800
-800
-800
-799
-800
-798
-796
-795
-794
-794
-789
-779
-767
-754
-744
-724
-691
-644
-630
-639
-662
-692
-735
-791
-851
-897
-934
-937
-921
-894
-865
-839
-820
-805
-797
-792
-785
-782
-780
-781
-779
-777
-775
-775
-774
-774
-772
-771
-771
-769
-768
-768
-765
-765
-765
-764
-761
-760
-760
-759
-759
-757
-757
-755
-752
-754
-753
-754
-749
-747
-745
-742
-740
-739
-739
-738
-734
-731
-728
-728
-724
-724
-720
-715
-715
-710
-710
-704
-704
-700
-695
-695
-689
-689
-685
-684
-680
-679
-679
-678
-679
-677
-679
-680
-684
-686
-690
-695
-700
-710
-717
-726
-737
-744
-751
-755
-761
-765
-770
-774
-776
-780
-782
-785
-785
-787
-789
-789
-790
-792
-792
-791
-791
-794
-794
-794
-794
-794
-795
-792
-794
-792
-794
-792
-790
-792
-789
-790
-789
-789
-787
-787
-789
-787
-787
-788
-787
-789
-789
-789
-789
-789
-790
-790
-790
-789
-792
-791
-790
-791
-792
-792
-790
-792
-792
-792
-792
-794
-794
-794
-794
-794
-796
-794
-795
-797
-796
-797
-795
-797
-795
-794
-795
-795
-794
-792
-794
-795
-791
-794
-794
-795
-792
-793
-794
-792
-792
-791
-792
-792
-792
-793
-791
-791
-792
-794
-792
-792
-792
-792
-791
-792
-790
-791
-790
-791
-790
-790
-791
-789
-790
-789
-791
-789
-789
-790
-790
-789
-789
-789
-790
-790
-792
-790
-789
-789
-789
-789
-790
-791
-790
-790
-791
-789
-791
-790
-792
-790
-791
-789
-787
-784
-782
-782
-782
-780
-780
-780
-779
-775
-775
-775
-777
-782
-784
-785
-784
-785
-785
-785
-785
-788
-791
-794
-797
-800
-800
-804
-802
-802
-804
-804
-804
-804
-805
-805
-804
-804
-802
-802
-802
-802
-801
-802
-800
-798
-795
-794
-782
-765
-752
-741
-724
-687
-635
-629
-639
-660
-692
-744
-802
-867
-919
-949
-944
-920
-891
-862
-835
-818
-805
-797
-792
-787
-784
-785
-781
-781
-780
-777
-777
-775
-776
-775
-772
-773
-770
-770
-770
-770
-768
-768
-768
-767
-765
-764
-764
-762
-757
-760
-758
-757
-755
-754
-755
-750
-748
-747
-745
-744
-742
-740
-738
-738
-736
-732
-730
-725
-724
-719
-717
-715
-712
-712
-707
-705
-701
-699
-696
-694
-692
-689
-690
-689
-689
-690
-689
-688
-687
-690
-690
-694
-698
-705
-710
-717
-724
-730
-739
-745
-753
-759
-764
-768
-772
-777
-780
-785
-785
-787
-790
-794
-794
-794
-794
-795
-795
-797
-796
-796
-796
-797
-797
-798
-796
-795
-795
-796
-795
-795
-795
-795
-794
-794
-794
-794
-794
-792
-794
-794
-793
-793
-792
-792
-792
-792
-791
-792
-793
-793
-794
-794
-794
-794
-794
-794
-794
-795
-796
-795
-795
-795
-799
-797
-797
-797
-799
-798
-797
-797
-796
-798
-799
-797
-798
-797
-800
-799
-800
-800
-799
-800
-797
-799
-800
-798
-797
-798
-797
-796
-797
-798
-797
-799
-798
-797
-798
-799
-799
-799
-799
-798
-799
-799
-799
-799
-800
-799
-799
-799
-797
-799
-799
-800
-800
-799
-799
-800
-799
-799
-799
-801
-799
-799
-800
-799
-799
-797
-797
-798
-799
-797
-797
-799
-798
-798
-798
-800
-799
-799
-798
-799
-799
-798
-797
-798
-799
-799
-798
-798
-797
-799
-797
-798
-797
-798
-799
-797
-797
-799
-799
-799
-797
-799
-797
-798
-798
-799
-799
-798
-799
-797
-800
-797
-797
-797
-795
-790
-789
-787
-787
-787
-787
-785
-784
-781
-780
-780
-782
-787
-787
-789
-788
-786
-786
-788
-789
-791
-794
-795
-797
-800
-802
-805
-806
-805
-805
-805
-805
-804
-805
-804
-804
-804
-802
-802
-801
-802
-801
-802
-800
-799
-799
-798
-797
-795
-792
-788
-774
-759
-747
-732
-706
-659
-632
-640
-654
-680
-720
-773
-841
-894
-931
-944
-925
-903
-874
-842
-821
-805
-795
-789
-785
-780
-779
-777
-774
-774
-774
-772
-771
-772
-770
-769
-768
-765
-766
-765
-764
-764
-762
-762
-762
-762
-760
-759
-758
-755
-754
-751
-751
-750
-747
-749
-745
-745
-742
-742
-742
-739
-736
-732
-732
-729
-728
-724
-719
-719
-715
-714
-710
-708
-707
-702
-702
-695
-695
-690
-689
-688
-682
-684
-679
-679
-677
-678
-678
-679
-681
-682
-686
-688
-694
-696
-704
-710
-716
-727
-734
-744
-747
-754
-762
-765
-771
-775
-779
-784
-785
-787
-787
-792
-790
-791
-794
-794
-795
-795
-796
-795
-797
-797
-795
-796
-795
-795
-795
-795
-797
-794
-794
-794
-794
-794
-792
-794
-791
-792
-792
-792
-792
-791
-792
-792
-792
-793
-792
-792
-792
-794
-792
-794
-794
-794
-797
-794
-795
-795
-797
-796
-797
-797
-800
-799
-798
-798
-800
-798
-800
-799
-800
-802
-800
-802
-802
-802
-802
-801
-802
-802
-802
-799
-801
-801
-800
-801
-801
-802
-801
-801
-801
-802
-801
-801
-801
-799
-800
-799
-800
-799
-799
-799
-799
-799
-799
-799
-801
-799
-801
-801
-801
-802
-801
-802
-801
-801
-802
-804
-802
-803
-804
-804
-802
-801
-802
-804
-802
-802
-801
-800
-801
-802
-803
-803
-802
-800
-801
-801
-802
-804
-802
-801
-802
-802
-800
-802
-804
-802
-801
-802
-802
-802
-802
-802
-800
-801
-800
-802
-802
-802
-802
-802
-802
-803
-801
-800
-802
-802
-802
-802
-802
-800
-802
-799
-799
-799
-802
-799
-799
-800
-800
-799
-797
-799
-796
-795
-798
-796
-797
-797
-797
-796
-796
-795
-795
-795
-795
-795
-795
-795
-795
-795
-795
-792
-793
-790
-785
-784
-782
-782
-782
-782
-781
-782
-785
-785
-790
-794
-795
-795
-795
-797
-795
-797
-797
-795
-795
-798
-797
-795
-797
-799
-795
-795
-795
-797
-795
-795
-794
-792
-791
-790
-790
-790
-790
-789
-787
-789
-786
-784
-781
-776
-764
-750
-741
-726
-702
-657
-620
-620
-635
-659
-695
-745
-812
-865
-899
-921
-914
-890
-865
-835
-812
-795
-785
-778
-774
-768
-764
-765
-764
-764
-760
-761
-760
-760
-759
-759
-760
-758
-754
-756
-755
-755
-754
-752
-750
-750
-750
-747
-747
-745
-745
-744
-744
-744
-740
-740
-736
-736
-734
-731
-732
-730
-729
-725
-724
-724
-719
-718
-714
-715
-710
-710
-707
-704
-704
-699
-700
-695
-692
-690
-686
-687
-684
-684
-682
-680
-679
-677
-679
-678
-683
-682
-687
-685
-691
-695
-700
-709
-715
-724
-728
-737
-742
-749
-755
-759
-764
-767
-770
-771
-774
-777
-777
-780
-781
-782
-782
-784
-785
-785
-786
-785
-785
-785
-785
-786
-785
-785
-785
-785
-785
-784
-786
-784
-784
-784
-785
-784
-782
-784
-784
-784
-784
-784
-787
-785
-785
-785
-786
-785
-786
-787
-786
-787
-786
-786
-788
-788
-789
-789
-790
-789
-789
-789
-790
-789
-790
-790
-790
-791
-792
-791
-792
-794
-794
-794
-794
-794
-794
-795
-795
-794
-794
-794
-794
-794
-794
-794
-794
-794
-794
-795
-794
-794
-795
-795
-795
-794
-795
-796
-795
-796
-795
-795
-794
-794
-794
-795
-795
-795
-794
-795
-795
-795
-795
-796
-795
-795
-795
-795
-796
-797
-795
-796
-795
-795
-796
-795
-795
-795
-794
-795
-795
-794
-794
-795
-795
-794
-794
-794
-794
-794
-794
-794
-794
-795
-794
-794
-794
-794
-795
-794
-794
-794
-795
-794
-795
-794
-797
-795
-795
-795
-795
-795
-795
-795
-796
-795
-795
-795
-795
-797
-795
-796
-796
-796
-794
-794
-795
-795
-795
-795
-791
-790
-787
-785
-787
-791
-794
-793
-795
-799
-800
-799
-799
-800
-799
-802
-800
-801
-802
-801
-802
-801
-801
-800
-800
-801
-800
-802
-799
-800
-799
-801
-797
-798
-798
-794
-795
-794
-793
-790
-784
-772
-755
-744
-729
-701
-655
-627
-634
-648
-673
-708
-757
-815
-877
-922
-939
-924
-899
-870
-842
-820
-804
-794
-787
-781
-780
-775
-775
-775
-774
-772
-771
-771
-770
-770
-769
-768
-766
-765
-765
-764
-760
-762
-760
-760
-757
-759
-758
-757
-755
-754
-754
-753
-751
-749
-748
-747
-745
-745
-744
-741
-740
-737
-735
-734
-732
-729
-725
-724
-719
-718
-714
-712
-710
-705
-704
-697
-697
-690
-687
-687
-682
-682
-679
-680
-679
-680
-680
-680
-682
-680
-684
-685
-690
-694
-699
-705
-713
-721
-728
-735
-744
-750
-758
-760
-768
-772
-778
-781
-784
-786
-787
-789
-792
-794
-795
-795
-797
-797
-797
-799
-800
-800
-799
-799
-799
-799
-799
-799
-799
-799
-799
-798
-797
-797
-796
-796
-795
-795
-795
-795
-795
-795
-795
-795
-794
-795
-795
-795
-794
-795
-797
-797
-795
-795
-797
-797
-797
-796
-799
-797
-797
-798
-797
-799
-799
-800
-800
-800
-802
-802
-804
-804
-805
-804
-804
-805
-805
-804
-805
-804
-804
-804
-804
-804
-805
-804
-804
-804
-802
-803
-802
-804
-805
-804
-805
-804
-805
-804
-804
-804
-804
-804
-804
-804
-804
-806
-804
-804
-804
-806
-804
-804
-804
-805
-804
-804
-802
-802
-804
-802
-803
-802
-804
-801
-801
-804
-802
-801
-800
-802
-800
-801
-801
-800
-801
-800
-800
-799
-801
-802
-800
-800
-800
-801
-801
-799
-801
-801
-802
-802
-802
-802
-802
-802
-803
-802
-802
-802
-804
-804
-805
-804
-805
-805
-805
-805
-804
-805
-806
-805
-804
-803
-801
-802
-804
-804
-802
-799
-795
-794
-794
-796
-799
-802
-802
-804
-808
-807
-807
-808
-808
-808
-809
-810
-810
-809
-809
-809
-810
-809
-809
-808
-808
-808
-809
-809
-807
-807
-805
-805
-805
-804
-804
-801
-800
-796
-785
-768
-756
-742
-724
-686
-635
-625
-638
-660
-691
-740
-797
-865
-921
-955
-952
-930
-900
-871
-840
-820
-807
-797
-792
-785
-782
-780
-779
-779
-779
-776
-775
-775
-774
-772
-772
-772
-770
-769
-767
-767
-767
-765
-765
-765
-764
-762
-761
-761
-759
-758
-755
-754
-750
-750
-750
-749
-746
-745
