-965
-966
-966
-967
-967
-967
-968
-969
-969
-969
-970
-970
-972
-973
-974
-973
-974
-974
-974
-974
-974
-975
-975
-975
-975
-975
-974
-974
-973
-972
-973
-973
-972
-970
-972
-970
-967
-962
-960
-958
-958
-957
-957
-955
-958
-963
-966
-966
-965
-967
-968
-968
-967
-966
-966
-968
-966
-966
-966
-972
-976
-978
-978
-978
-979
-979
-981
-980
-980
-978
-979
-978
-977
-976
-974
-973
-970
-961
-942
-914
-881
-853
-862
-879
-896
-914
-934
-966
-1007
-1037
-1057
-1056
-1034
-1007
-992
-982
-977
-974
-973
-970
-969
-968
-968
-968
-967
-967
-966
-965
-963
-963
-961
-959
-959
-958
-957
-955
-954
-953
-950
-948
-946
-944
-943
-940
-936
-935
-931
-928
-924
-920
-917
-912
-908
-903
-896
-891
-888
-882
-875
-868
-862
-856
-851
-846
-840
-837
-836
-836
-832
-830
-829
-832
-832
-832
-836
-840
-847
-853
-859
-868
-877
-884
-891
-900
-908
-916
-923
-930
-934
-940
-943
-947
-950
-953
-956
-957
-958
-959
-961
-961
-961
-963
-963
-963
-962
-963
-965
-966
-967
-966
-965
-966
-967
-966
-966
-967
-966
-965
-963
-963
-963
-963
-963
-961
-961
-961
-962
-963
-963
-962
-963
-963
-965
-965
-965
-965
-965
-966
-966
-968
-968
-969
-970
-972
-973
-973
-973
-974
-975
-975
-976
-976
-976
-975
-975
-976
-979
-978
-978
-976
-978
-979
-979
-979
-979
-979
-979
-981
-979
-980
-979
-980
-980
-981
-979
-980
-979
-981
-981
-979
-978
-978
-974
-970
-968
-967
-966
-966
-963
-960
-961
-966
-970
-969
-968
-970
-971
-970
-970
-970
-970
-971
-970
-970
-972
-978
-979
-982
-984
-984
-983
-983
-983
-984
-984
-984
-985
-983
-982
-980
-979
-976
-974
-969
-956
-934
-904
-868
-858
-873
-888
-908
-926
-941
-974
-1013
-1043
-1062
-1056
-1030
-1004
-989
-982
-979
-976
-975
-973
-973
-972
-970
-970
-971
-969
-968
-968
-968
-968
-967
-963
-962
-962
-961
-960
-957
-955
-953
-950
-948
-946
-943
-942
-939
-936
-934
-933
-929
-923
-918
-914
-910
-904
-898
-894
-890
-884
-877
-870
-865
-858
-852
-847
-845
-840
-837
-833
-831
-832
-831
-831
-831
-832
-834
-838
-844
-851
-858
-866
-874
-881
-891
-898
-905
-911
-920
-926
-931
-935
-939
-942
-946
-947
-949
-953
-953
-956
-958
-957
-957
-956
-957
-957
-958
-959
-960
-960
-960
-960
-959
-959
-959
-957
-958
-958
-956
-955
-957
-957
-955
-955
-953
-953
-954
-955
-955
-955
-953
-955
-956
-957
-956
-957
-959
-957
-959
-961
-962
-963
-965
-966
-967
-966
-967
-970
-970
-972
-972
-972
-972
-972
-972
-972
-974
-975
-974
-975
-976
-976
-978
-976
-976
-978
-978
-978
-977
-976
-975
-976
-976
-976
-976
-978
-976
-975
-975
-976
-976
-975
-973
-973
-970
-966
-965
-962
-962
-961
-960
-957
-957
-960
-965
-966
-965
-966
-966
-966
-963
-965
-967
-967
-965
-966
-968
-972
-973
-976
-980
-978
-978
-978
-976
-977
-978
-976
-975
-975
-974
-974
-973
-971
-969
-965
-955
-931
-903
-870
-845
-856
-871
-892
-920
-935
-965
-1005
-1036
-1062
-1061
-1035
-1005
-987
-978
-974
-972
-969
-968
-966
-967
-966
-962
-962
-963
-962
-963
-962
-962
-961
-959
-957
-958
-956
-955
-953
-953
-950
-949
-947
-947
-943
-941
-939
-935
-933
-928
-926
-921
-917
-914
-909
-904
-899
-894
-888
-881
-875
-869
-864
-857
-851
-846
-842
-838
-835
-832
-830
-828
-828
-827
-827
-829
-832
-836
-840
-846
-852
-858
-865
-872
-883
-892
-899
-907
-913
-918
-926
-931
-935
-940
-944
-946
-948
-950
-953
-955
-958
-958
-957
-959
-958
-962
-961
-960
-961
-960
-961
-960
-959
-959
-959
-960
-959
-959
-959
-959
-959
-959
-957
-958
-957
-957
-957
-957
-959
-958
-957
-957
-958
-960
-960
-962
-962
-962
-965
-965
-965
-967
-968
-968
-969
-970
-969
-971
-974
-972
-974
-975
-975
-976
-976
-976
-978
-978
-976
-976
-977
-979
-979
-979
-980
-979
-979
-978
-979
-977
-978
-979
-980
-980
-978
-979
-980
-979
-979
-980
-980
-980
-979
-980
-979
-980
-979
-978
-976
-975
-974
-972
-969
-966
-964
-962
-962
-960
-955
-955
-959
-963
-965
-963
-963
-966
-966
-965
-965
-966
-969
-967
-969
-970
-974
-978
-980
-982
-980
-980
-980
-979
-981
-981
-981
-981
-979
-976
-975
-975
-974
-972
-965
-948
-923
-892
-862
-865
-886
-907
-931
-939
-953
-989
-1031
-1064
-1069
-1042
-1011
-992
-983
-979
-975
-972
-973
-973
-970
-968
-968
-967
-967
-968
-966
-966
-965
-962
-961
-961
-960
-959
-957
-957
-955
-953
-950
-950
-948
-945
-943
-941
-939
-936
-933
-930
-926
-921
-917
-914
-909
-903
-897
-892
-886
-881
-875
-869
-862
-857
-852
-849
-845
-840
-838
-836
-834
-835
-834
-833
-835
-838
-842
-846
-849
-854
-862
-871
-879
-888
-895
-904
-910
-917
-922
-929
-934
-939
-942
-945
-948
-950
-953
-955
-956
-958
-960
-959
-959
-961
-961
-961
-961
-961
-961
-961
-960
-960
-960
-960
-961
-961
-960
-959
-958
-959
-959
-959
-961
-959
-959
-960
-961
-961
-963
-963
-963
-965
-966
-966
-966
-967
-966
-969
-970
-971
-972
-972
-973
-973
-974
-976
-976
-976
-978
-980
-981
-981
-979
-978
-978
-979
-979
-981
-980
-981
-981
-982
-982
-981
-981
-981
-981
-982
-982
-983
-983
-984
-982
-982
-982
-982
-981
-982
-981
-981
-981
-979
-980
-979
-979
-979
-979
-976
-976
-975
-973
-969
-966
-963
-963
-961
-959
-958
-961
-965
-966
-965
-966
-968
-968
-966
-968
-969
-970
-972
-973
-973
-978
-981
-984
-984
-983
-983
-984
-984
-985
-986
-985
-985
-985
-984
-983
-982
-981
-980
-972
-959
-934
-904
-869
-871
-892
-912
-932
-942
-953
-988
-1027
-1061
-1077
-1058
-1028
-1005
-991
-984
-980
-978
-976
-975
-974
-973
-971
-970
-970
-969
-969
-967
-966
-967
-965
-964
-961
-961
-961
-959
-957
-956
-955
-953
-950
-947
-944
-943
-942
-940
-936
-933
-930
-926
-921
-918
-914
-910
-904
-897
-893
-886
-882
-876
-870
-865
-858
-854
-849
-844
-840
-839
-837
-836
-836
-836
-837
-839
-841
-844
-849
-853
-859
-866
-873
-879
-888
-896
-903
-910
-918
-922
-927
-933
-936
-940
-943
-944
-947
-948
-950
-953
-953
-953
-954
-955
-955
-955
-956
-956
-955
-953
-954
-953
-953
-953
-953
-950
-952
-952
-953
-952
-952
-953
-953
-954
-953
-954
-955
-955
-956
-957
-957
-957
-958
-959
-962
-963
-962
-963
-965
-966
-966
-967
-969
-970
-969
-968
-969
-969
-970
-971
-971
-971
-972
-974
-974
-974
-974
-975
-976
-976
-976
-975
-976
-975
-975
-975
-976
-976
-975
-975
-976
-976
-976
-976
-975
-976
-975
-974
-975
-975
-974
-974
-971
-969
-966
-965
-962
-959
-958
-955
-953
-956
-960
-961
-959
-960
-962
-962
-961
-963
-965
-963
-965
-966
-966
-970
-974
-975
-975
-975
-977
-979
-979
-980
-978
-978
-978
-978
-976
-974
-974
-973
-970
-964
-949
-927
-895
-856
-849
-871
-888
-905
-914
-927
-964
-1009
-1050
-1071
-1053
-1023
-997
-983
-976
-973
-970
-969
-967
-965
-965
-966
-963
-961
-962
-959
-960
-960
-960
-959
-957
-955
-953
-953
-953
-952
-948
-947
-948
-945
-942
-942
-939
-937
-935
-931
-927
-922
-920
-917
-914
-910
-905
-901
-894
-890
-885
-881
-875
-869
-864
-858
-855
-851
-846
-845
-844
-843
-842
-840
-840
-840
-842
-845
-849
-854
-858
-863
-869
-875
-883
-889
-897
-904
-909
-915
-918
-927
-930
-935
-938
-942
-944
-946
-947
-949
-952
-952
-953
-953
-954
-954
-955
-956
-953
-953
-952
-952
-952
-954
-952
-952
-952
-950
-950
-949
-949
-949
-951
-953
-953
-953
-953
-955
-956
-955
-957
-957
-957
-958
-961
-961
-960
-960
-963
-966
-966
-966
-967
-967
-966
-969
-969
-970
-972
-970
-970
-972
-972
-973
-972
-972
-973
-973
-973
-973
-974
-973
-974
-973
-972
-973
-974
-973
-972
-973
-972
-973
-973
-973
-974
-972
-970
-967
-963
-960
-959
-958
-955
-953
-952
-955
-959
-959
-957
-957
-959
-961
-957
-959
-961
-962
-963
-966
-968
-970
-973
-975
-977
-976
-976
-978
-979
-979
-978
-978
-978
-978
-974
-974
-973
-970
-970
-966
-956
-935
-905
-866
-856
-879
-901
-918
-929
-931
-957
-997
-1036
-1065
-1058
-1030
-1000
-985
-978
-972
-971
-969
-968
-967
-968
-967
-966
-965
-965
-965
-965
-962
-961
-959
-959
-959
-957
-956
-953
-953
-952
-949
-948
-945
-944
-943
-940
-936
-933
-930
-928
-924
-920
-917
-914
-909
-905
-900
-894
-890
-884
-878
-873
-870
-864
-859
-856
-853
-851
-847
-845
-843
-844
-844
-844
-845
-846
-849
-853
-857
-860
-866
-871
-879
-887
-893
-899
-905
-912
-916
-922
-926
-931
-935
-938
-941
-942
-942
-944
-944
-946
-948
-947
-946
-946
-948
-947
-947
-947
-947
-946
-946
-944
-946
-944
-943
-944
-944
-943
-944
-946
-945
-944
-946
-946
-948
-949
-950
-949
-950
-950
-952
-952
-952
-953
-953
-955
-956
-956
-957
-959
-959
-959
-960
-960
-961
-961
-962
-962
-962
-962
-963
-965
-965
-965
-966
-966
-965
-963
-965
-966
-967
-966
-966
-966
-965
-965
-966
-966
-966
-966
-965
-965
-966
-967
-967
-965
-962
-960
-957
-954
-950
-948
-948
-947
-943
-942
-945
-949
-950
-949
-952
-954
-953
-952
-954
-955
-955
-957
-962
-963
-963
-968
-970
-970
-970
-970
-973
-971
-970
-970
-971
-970
-970
-970
-968
-966
-967
-963
-958
-941
-910
-872
-856
-877
-897
-914
-923
-926
-952
-991
-1031
-1060
-1055
-1024
-995
-980
-973
-968
-965
-963
-963
-962
-962
-961
-960
-957
-958
-959
-959
-957
-958
-955
-954
-954
-953
-950
-950
-950
-950
-947
-944
-943
-942
-941
-939
-935
-931
-930
-927
-922
-921
-920
-916
-911
-907
-901
-897
-893
-891
-884
-880
-875
-870
-866
-862
-857
-853
-852
-849
-849
-849
-847
-847
-849
-849
-849
-853
-857
-861
-865
-872
-879
-884
-891
-897
-901
-907
-914
-919
-926
-929
-931
-934
-937
-941
-942
-943
-943
-944
-945
-945
-947
-946
-946
-946
-944
-944
-945
-945
-944
-943
-943
-944
-946
-944
-944
-944
-944
-946
-945
-944
-944
-948
-948
-947
-949
-952
-953
-953
-953
-953
-955
-955
-958
-959
-959
-960
-961
-962
-961
-961
-961
-962
-962
-963
-963
-963
-965
-965
-967
-966
-967
-966
-966
-967
-966
-967
-968
-968
-968
-969
-969
-968
-966
-966
-966
-967
-966
-967
-966
-967
-968
-968
-966
-965
-963
-961
-959
-956
-953
-949
-949
-947
-944
-941
-943
-946
-951
-951
-949
-950
-951
-953
-953
-958
-957
-957
-959
-965
-965
-969
-972
-972
-973
-974
-975
-975
-975
-975
-976
-975
-974
-974
-974
-973
-972
-970
-968
-962
-949
-926
-893
-862
-873
-896
-916
-931
-931
-948
-987
-1023
-1059
-1070
-1043
-1007
-989
-979
-974
-972
-970
-970
-969
-967
-966
-965
-966
-965
-965
-965
-961
-962
-961
-960
-960
-959
-957
-957
-955
-953
-953
-952
-950
-949
-948
-944
-942
-940
-939
-935
-933
-930
-926
-923
-921
-916
-913
-908
-905
-899
-897
-892
-887
-883
-878
-875
-872
-870
-865
-864
-862
-859
-859
-862
-863
-862
-862
-866
-866
-870
-875
-879
-883
-888
-896
-902
-907
-912
-918
-922
-927
-931
-935
-937
-940
-941
-944
-945
-944
-946
-948
-948
-949
-946
-947
-947
-946
-946
-947
-944
-945
-945
-945
-944
-944
-945
-947
-946
-944
-944
-946
-947
-947
-948
-949
-950
-950
-952
-952
-953
-953
-953
-955
-955
-956
-958
-960
-959
-958
-960
-960
-961
-961
-961
-963
-962
-963
-963
-965
-967
-965
-967
-965
-965
-966
-965
-967
-967
-966
-966
-968
-967
-966
-967
-967
-968
-968
-967
-967
-967
-966
-966
-966
-963
-959
-955
-953
-952
-949
-946
-946
-944
-942
-942
-946
-950
-950
-949
-950
-952
-951
-953
-956
-956
-957
-959
-962
-966
-968
-970
-973
-974
-974
-974
-975
-975
-975
-976
-978
-978
-977
-976
-976
-975
-974
-973
-968
-959
-940
-913
-875
-866
-881
-899
-923
-941
-950
-978
-1012
-1047
-1073
-1062
-1031
-1002
-989
-982
-979
-977
-976
-974
-974
-974
-973
-972
-970
-970
-970
-970
-970
-969
-968
-967
-966
-965
-963
-962
-961
-959
-957
-956
-955
-952
-949
-947
-946
-943
-940
-939
-935
-931
-929
-924
-921
-916
-911
-908
-903
-897
-893
-888
-884
-879
-876
-872
-869
-866
-865
-864
-862
-863
-862
-862
-864
-866
-869
-870
-873
-877
-882
-888
-892
-899
-905
-912
-918
-921
-927
-933
-938
-942
-944
-947
-949
-952
-953
-955
-955
-955
-955
-956
-955
-955
-956
-955
-955
-955
-953
-953
-953
-953
-953
-953
-953
-953
-953
-953
-954
-955
-956
-956
-956
-956
-957
-960
-960
-961
-961
-961
-964
-965
-965
-966
-966
-966
-967
-968
-969
-969
-970
-970
-970
-970
-971
-971
-973
-973
-973
-974
-974
-974
-974
-973
-974
-974
-974
-973
-974
-974
-974
-973
-972
-973
-973
-972
-974
-974
-974
-974
-974
-974
-973
-973
-971
-969
-966
-962
-958
-955
-953
-953
-953
-952
-956
-960
-959
-957
-956
-959
-959
-958
-959
-961
-961
-962
-963
-965
-970
-973
-975
-976
-976
-976
-979
-979
-979
-979
-978
-976
-976
-975
-975
-973
-972
-969
-963
-948
-924
-891
-853
-826
-833
-849
-866
-895
-927
-973
-1020
-1049
-1065
-1061
-1041
-1018
-998
-985
-979
-974
-972
-969
-968
-968
-968
-966
-963
-963
-961
-960
-959
-958
-959
-957
-956
-955
-953
-953
-953
-950
-948
-946
-944
-943
-942
-940
-936
-935
-931
-929
-924
-922
-918
-914
-911
-907
-903
-898
-893
-888
-883
-879
-873
-869
-866
-860
-857
-853
-851
-850
-849
-847
-849
-851
-852
-854
-855
-857
-860
-866
-871
-877
-883
-891
-897
-904
-910
-916
-922
-927
-931
-935
-938
-941
-944
-946
-950
-952
-950
-952
-952
-952
-952
-952
-952
-952
-950
-950
-950
-950
-950
-949
-948
-948
-948
-948
-948
-948
-949
-949
-950
-950
-952
-953
-954
-953
-953
-955
-958
-958
-957
-958
-958
-959
-961
-960
-961
-962
-963
-966
-967
-966
-966
-966
-967
-967
-968
-968
-968
-969
-969
-970
-971
-970
-971
-970
-971
-970
-970
-971
-972
-972
-973
-972
-971
-970
-968
-966
-965
-960
-957
-958
-956
-954
-953
-956
-961
-963
-960
-960
-961
-961
-959
-961
-963
-963
-965
-962
-964
-970
-974
-975
-978
-978
-978
-979
-980
-979
-979
-980
-980
-979
-978
-975
-975
-974
-970
-962
-943
-918
-885
-845
-822
-831
-846
-865
-892
-927
-975
-1020
-1047
-1059
-1048
-1030
-1010
-994
-986
-982
-979
-976
-973
-972
-970
-971
-970
-969
-969
-968
-966
-965
-965
-962
-962
-963
-962
-960
-957
-955
-955
-953
-950
-949
-947
-944
-943
-941
-939
-936
-933
-927
-924
-921
-916
-911
-907
-901
-897
-892
-888
-882
-876
-869
-866
-862
-859
-856
-853
-851
-851
-851
-851
-851
-851
-853
-857
-859
-863
-869
-875
-879
-887
-895
-901
-908
-914
-920
-927
-931
-937
-942
-947
-951
-954
-956
-957
-959
-960
-961
-963
-963
-963
-963
-965
-962
-962
-963
-962
-961
-960
-959
-959
-959
-957
-957
-958
-958
-958
-958
-958
-957
-958
-959
-959
-961
-961
-960
-962
-963
-965
-966
-967
-967
-970
-970
-971
-972
-972
-974
-976
-976
-976
-976
-978
-978
-976
-979
-982
-981
-981
-980
-981
-981
-981
-981
-981
-983
-983
-982
-983
-982
-981
-981
-981
-982
-982
-982
-981
-981
-981
-980
-979
-978
-977
-976
-974
-971
-968
-966
-965
-965
-961
-962
-965
-969
-970
-969
-967
-970
-970
-969
-969
-970
-973
-972
-972
-972
-976
-982
-984
-984
-984
-985
-985
-984
-983
-985
-985
-985
-983
-982
-982
-979
-979
-975
-968
-954
-927
-896
-862
-870
-892
-914
-936
-952
-970
-1007
-1040
-1062
-1069
-1047
-1017
-998
-986
-980
-976
-974
-972
-971
-970
-970
-969
-968
-967
-968
-968
-966
-962
-961
-962
-959
-958
-956
-956
-953
-950
-949
-948
-946
-943
-941
-937
-935
-931
-931
-927
-922
-918
-916
-909
-904
-899
-892
-888
-883
-875
-868
-860
-855
-849
-844
-838
-834
-832
-830
-826
-825
-823
-823
-825
-828
-829
-833
-839
-843
-849
-858
-866
-873
-879
-888
-896
-907
-914
-922
-927
-933
-939
-943
-945
-948
-954
-957
-960
-960
-960
-961
-961
-963
-963
-965
-965
-962
-961
-962
-965
-962
-962
-962
-961
-960
-960
-957
-957
-957
-960
-961
-960
-958
-956
-955
-956
-957
-959
-959
-962
-967
-966
-964
-962
-962
-963
-965
-967
-970
-974
-975
-973
-970
-972
-974
-975
-973
-974
-974
-974
-976
-979
-978
-976
-975
-977
-978
-979
-978
-978
-981
-981
-980
-980
-980
-979
-979
-979
-980
-979
-980
-980
-979
-979
-979
-978
-979
-979
-979
-976
-973
-969
-967
-966
-965
-966
-962
-960
-962
-966
-970
-968
-966
-969
-969
-968
-969
-970
-970
-971
-973
-974
-976
-982
-983
-983
-983
-983
-984
-985
-986
-985
-982
-981
-980
-981
-981
-979
-981
-976
-967
-957
-935
-905
-874
-871
-894
-915
-945
-967
-974
-1000
-1027
-1050
-1068
-1059
-1027
-1000
-988
-980
-975
-974
-971
-969
-968
-968
-966
-966
-966
-963
-962
-961
-959
-960
-958
-959
-958
-956
-953
-952
-949
-947
-947
-944
-943
-939
-937
-936
-933
-929
-926
-923
-919
-914
-910
-904
-901
-895
-891
-884
-877
-871
-865
-859
-856
-852
-845
-840
-838
-834
-832
-829
-827
-830
-830
-831
-834
-836
-839
-844
-850
-853
-862
-871
-879
-887
-896
-901
-909
-914
-921
-927
-931
-933
-937
-942
-945
-946
-948
-952
-953
-953
-953
-954
-955
-954
-954
-954
-955
-956
-953
-954
-952
-948
-950
-949
-949
-950
-952
-949
-950
-948
-948
-952
-949
-948
-949
-952
-952
-953
-952
-953
-954
-954
-953
-955
-956
-957
-959
-957
-960
-962
-961
-961
-963
-966
-966
-965
-964
-966
-969
-970
-970
-970
-971
-970
-971
-970
-970
-972
-973
-973
-972
-973
-972
-974
-973
-974
-974
-974
-974
-974
-975
-978
-975
-976
-975
-974
-973
-973
-970
-967
-962
-961
-957
-957
-955
-953
-953
-957
-959
-957
-957
-960
-962
-959
-960
-963
-966
-970
-974
-973
-974
-978
-979
-979
-979
-982
-982
-982
-981
-981
-981
-979
-980
-981
-981
-979
-976
-973
-968
-955
-933
-901
-866
-873
-901
-922
-940
-948
-948
-979
-1018
-1053
-1077
-1065
-1030
-999
-984
-976
-972
-970
-969
-968
-967
-966
-963
-963
-962
-963
-961
-960
-959
-957
-958
-956
-956
-954
-952
-952
-950
-948
-944
-942
-942
-940
-937
-935
-936
-933
-927
-922
-918
-917
-914
-910
-904
-899
-895
-890
-884
-877
-873
-868
-862
-857
-853
-851
-847
-844
-841
-840
-838
-839
-839
-839
-840
-844
-846
-849
-854
-859
-866
-873
-880
-885
-892
-899
-905
-912
-918
-923
-927
-931
-936
-940
-941
-943
-943
-943
-944
-946
-947
-950
-948
-946
-946
-948
-946
-944
-944
-945
-944
-944
-945
-944
-943
-943
-944
-944
-943
-944
-945
-946
-947
-948
-949
-949
-950
-953
-953
-955
-956
-957
-957
-959
-959
-960
-960
-962
-963
-963
-966
-966
-967
-966
-968
-969
-970
-969
-969
-970
-970
-971
-972
-973
-973
-972
-970
-972
-972
-972
-973
-973
-973
-974
-975
-976
-975
-973
-972
-971
-967
-963
-960
-959
-957
-955
-953
-953
-955
-961
-966
-963
-961
-962
-965
-963
-962
-962
-966
-967
-971
-974
-975
-981
-982
-984
-984
-984
-985
-986
-984
-983
-983
-983
-984
-982
-981
-981
-979
-976
-970
-957
-935
-903
-865
-849
-865
-882
-903
-924
-947
-991
-1031
-1062
-1076
-1060
-1031
-1005
-989
-982
-979
-976
-973
-972
-970
-969
-970
-969
-968
-966
-965
-964
-963
-961
-960
-961
-959
-957
-955
-955
-953
-949
-948
-946
-945
-943
-940
-936
-931
-931
-927
-923
-920
-916
-912
-909
-905
-898
-892
-888
-883
-878
-871
-866
-862
-859
-853
-849
-846
-846
-844
-843
-840
-842
-843
-844
-844
-846
-849
-853
-858
-864
-869
-875
-884
-890
-895
-902
-909
-914
-920
-924
-927
-931
-936
-939
-941
-942
-943
-945
-946
-947
-947
-948
-947
-946
-943
-943
-944
-943
-944
-946
-946
-944
-943
-944
-943
-943
-944
-946
-946
-946
-946
-947
-949
-948
-949
-950
-951
-952
-953
-953
-956
-955
-956
-957
-959
-957
-957
-959
-962
-961
-962
-962
-961
-962
-964
-964
-963
-963
-966
-967
-967
-968
-968
-969
-969
-968
-966
-968
-968
-969
-968
-967
-966
-965
-962
-959
-955
-953
-954
-954
-952
-950
-953
-958
-959
-956
-958
-959
-959
-958
-959
-960
-959
-959
-959
-962
-969
-972
-973
-975
-975
-974
-975
-977
-978
-976
-976
-976
-975
-975
-975
-974
-973
-969
-961
-944
-919
-888
-851
-818
-820
-836
-853
-879
-910
-953
-1001
-1038
-1059
-1057
-1038
-1017
-998
-987
-980
-978
-975
-974
-972
-971
-970
-969
-969
-971
-969
-969
-965
-963
-961
-961
-961
-959
-960
-959
-956
-954
-954
-950
-948
-946
-945
-942
-941
-939
-937
-934
-930
-929
-926
-918
-914
-910
-905
-899
-895
-890
-884
-879
-873
-868
-864
-860
-858
-853
-849
-849
-849
-849
-850
-850
-851
-853
-854
-856
-862
-868
-875
-879
-885
-891
-897
-903
-910
-917
-922
-929
-934
-939
-942
-944
-946
-949
-952
-953
-954
-955
-956
-957
-956
-956
-956
-956
-956
-953
-953
-953
-953
-953
-950
-952
-953
-953
-952
-950
-950
-950
-953
-953
-953
-953
-953
-953
-955
-955
-956
-957
-959
-960
-959
-960
-961
-963
-963
-966
-967
-968
-968
-968
-969
-970
-970
-970
-972
-972
-972
-973
-973
-974
-974
-973
-973
-974
-975
-975
-974
-973
-975
-975
-975
-976
-976
-975
-974
-974
-976
-976
-975
-973
-971
-970
-968
-965
-962
-960
-961
-959
-957
-957
-963
-967
-966
-965
-966
-967
-966
-966
-968
-967
-966
-966
-965
-969
-976
-979
-980
-979
-980
-979
-981
-982
-982
-981
-982
-981
-981
-979
-976
-975
-972
-966
-955
-934
-905
-872
-844
-853
-869
-890
-916
-937
-973
-1017
-1046
-1066
-1063
-1040
-1014
-996
-986
-982
-978
-975
-974
-974
-973
-973
-970
-970
-969
-969
-969
-969
-967
-968
-966
-966
-965
-963
-962
-962
-959
-958
-955
-954
-953
-950
-948
-946
-944
-941
-937
-933
-929
-926
-922
-918
-912
-909
-904
-899
-892
-886
-881
-877
-872
-868
-864
-859
-856
-853
-853
-851
-851
-849
-850
-851
-854
-857
-859
-862
-867
-875
-882
-890
-897
-904
-912
-921
-927
-931
-937
-944
-947
-951
-953
-957
-959
-961
-963
-965
-966
-968
-968
-968
-969
-968
-968
-966
-966
-966
-965
-962
-962
-962
-961
-961
-960
-960
-960
-960
-960
-960
-959
-960
-962
-962
-961
-962
-962
-963
-965
-966
-967
-968
-969
-969
-969
-969
-970
-970
-972
-974
-975
-975
-974
-976
-978
-978
-975
-975
-975
-975
-978
-980
-981
-981
-982
-983
-983
-979
-979
-979
-979
-979
-980
-980
-979
-978
-979
-981
-979
-980
-980
-981
-981
-982
-981
-981
-981
-981
-980
-978
-978
-975
-973
-972
-970
-968
-965
-963
-962
-961
-958
-956
-961
-965
-966
-964
-965
-967
-967
-964
-964
-966
-967
-966
-966
-969
-975
-978
-979
-978
-979
-980
-981
-981
-981
-981
-980
-979
-979
-979
-978
-975
-974
-973
-966
-949
-924
-892
-857
-853
-870
-888
-911
-926
-939
-975
-1015
-1049
-1069
-1052
-1022
-998
-985
-980
-976
-974
-970
-969
-970
-969
-969
-968
-967
-966
-966
-965
-963
-963
-962
-961
-960
-960
-959
-956
-953
-953
-952
-949
-946
-944
-943
-941
-939
-934
-931
-929
-926
-921
-917
-914
-908
-902
-897
-892
-886
-879
-873
-868
-862
-857
-854
-849
-847
-843
-840
-838
-839
-837
-836
-838
-840
-842
-845
-849
-855
-860
-866
-874
-882
-888
-896
-904
-911
-917
-923
-929
-931
-937
-942
-945
-947
-949
-953
-955
-955
-956
-955
-957
-959
-959
-956
-957
-958
-957
-957
-956
-956
-956
-955
-955
-953
-953
-953
-953
-953
-953
-953
-952
-950
-953
-955
-953
-955
-955
-955
-957
-959
-959
-959
-960
-960
-961
-961
-962
-966
-966
-967
-968
-968
-966
-968
-968
-969
-970
-970
-970
-971
-972
-973
-972
-971
-972
-973
-972
-972
-973
-973
-974
-975
-974
-974
-974
-974
-974
-973
-973
-974
-974
-972
-972
-973
-974
-973
-974
-974
-973
-973
-972
-970
-970
-970
-971
-970
-970
-968
-966
-964
-961
-958
-955
-957
-955
-953
-950
-950
-955
-957
-957
-955
-957
-961
-959
-956
-955
-958
-959
-960
-961
-966
-970
-973
-974
-974
-974
-974
-974
-975
-975
-974
-974
-974
-974
-973
-970
-970
-968
-967
-960
-943
-917
-886
-853
-856
-872
-890
-914
-925
-939
-978
-1018
-1055
-1065
-1044
-1013
-991
-981
-975
-972
-971
-966
-966
-965
-962
-964
-963
-963
-962
-961
-960
-959
-957
-957
-956
-955
-955
-953
-952
-948
-948
-946
-945
-942
-941
-939
-936
-934
-933
-930
-924
-921
-919
-914
-909
-904
-899
-894
-888
-882
-876
-872
-868
-862
-856
-851
-846
-843
-840
-838
-836
-836
-837
-836
-838
-840
-840
-844
-847
-852
-857
-864
-871
-877
-885
-892
-901
-907
-914
-918
-923
-929
-933
-939
-942
-944
-945
-946
-947
-950
-952
-953
-953
-954
-953
-953
-954
-954
-953
-953
-953
-956
-955
-954
-950
-949
-950
-950
-950
-950
-948
-948
-948
-949
-948
-948
-948
-949
-950
-950
-953
-953
-954
-953
-957
-957
-957
-959
-960
-961
-962
-962
-963
-965
-967
-966
-967
-968
-969
-969
-969
-970
-970
-970
-970
-970
-973
-975
-973
-970
-971
-972
-973
-973
-972
-970
-973
-974
-973
-974
-974
-974
-974
-974
-974
-973
-971
-974
-975
-974
-972
-969
-970
-970
-970
-971
-970
-971
-972
-970
-971
-970
-971
-969
-968
-965
-961
-960
-957
-956
-955
-954
-952
-952
-955
-958
-959
-959
-960
-962
-960
-957
-960
-959
-962
-963
-966
-967
-971
-974
-974
-976
-975
-975
-976
-976
-975
-974
-974
-974
-974
-972
-971
-970
-969
-966
-965
-954
-933
-905
-869
-851
-865
-883
-901
-916
-920
-947
-993
-1034
-1062
-1053
-1024
-999
-983
-976
-973
-970
-969
-966
-967
-966
-966
-965
-963
-962
-961
-961
-962
-961
-959
-957
-958
-957
-955
-953
-953
-952
-951
-949
-947
-944
-942
-940
-936
-934
-931
-929
-927
-922
-918
-914
-909
-905
-901
-896
-892
-885
-881
-875
-868
-862
-858
-855
-852
-849
-845
-845
-843
-842
-841
-840
-843
-845
-846
-851
-853
-859
-865
-868
-875
-882
-892
-899
-905
-911
-916
-921
-926
-930
-933
-936
-941
-944
-945
-947
-949
-951
-954
-953
-954
-953
-955
-955
-953
-953
-952
-952
-950
-950
-952
-952
-950
-950
-948
-949
-949
-950
-949
-950
-950
-950
-950
-949
-950
-952
-954
-953
-953
-955
-956
-957
-957
-959
-960
-961
-961
-962
-963
-965
-966
-967
-967
-966
-970
-969
-971
-970
-970
-971
-970
-970
-972
-972
-972
-972
-971
-973
-974
-972
-970
-970
-970
-970
-970
-970
-970
-970
-970
-970
-969
-970
-971
-970
-970
-970
-971
-972
-970
-970
-970
-971
-972
-970
-970
-969
-969
-969
-969
-969
-968
-968
-967
-965
-963
-960
-958
-953
-952
-950
-949
-947
-944
-947
-949
-952
-953
-952
-953
-955
-953
-953
-954
-955
-957
-957
-959
-962
-966
-969
-970
-970
-970
-970
-972
-970
-970
-972
-971
-970
-969
-969
-968
-967
-966
-963
-960
-952
-931
-904
-870
-845
-858
-878
-891
-907
-915
-939
-982
-1026
-1060
-1062
-1035
-1005
-984
-975
-971
-969
-967
-965
-963
-963
-963
-961
-961
-961
-960
-955
-956
-955
-954
-953
-953
-952
-950
-950
-949
-949
-947
-944
-943
-941
-940
-937
-935
-933
-931
-927
-923
-921
-919
-916
-911
-908
-901
-896
-892
-885
-881
-877
-870
-866
-860
-855
-852
-849
-846
-844
-842
-840
-840
-840
-840
-841
-843
-846
-849
-854
-857
-862
-866
-875
-883
-888
-896
-901
-909
-914
-918
-923
-930
-933
-935
-936
-939
-942
-943
-944
-946
-947
-948
-948
-948
-948
-947
-948
-948
-947
-947
-948
-946
-947
-947
-946
-946
-948
-948
-948
-948
-948
-947
-946
-948
-949
-949
-948
-950
-950
-954
-953
-955
-956
-957
-959
-959
-960
-962
-962
-961
-964
-963
-965
-965
-966
-968
-970
-968
-968
-968
-969
-970
-970
-970
-970
-969
-970
-970
-970
-972
-970
-970
-970
-972
-970
-972
-973
-971
-972
-972
-972
-971
-972
-972
-970
-971
-970
-974
-972
-972
-970
-972
-973
-971
-970
-971
-972
-971
-970
-970
-970
-970
-969
-967
-968
-967
-963
-960
-958
-955
-953
-953
-950
-949
-950
-955
-956
-955
-953
-957
-959
-956
-956
-957
-959
-961
-962
-965
-967
-970
-972
-973
-973
-973
-973
-974
-974
-973
-974
-974
-975
-974
-972
-970
-970
-968
-966
-962
-946
-923
-891
-858
-866
-888
-901
-917
-923
-931
-965
-1005
-1045
-1068
-1056
-1027
-998
-983
-976
-973
-972
-970
-968
-966
-966
-966
-965
-965
-966
-966
-962
-962
-961
-961
-960
-959
-957
-956
-956
-955
-954
-952
-948
-947
-947
-945
-943
-939
-936
-934
-931
-927
-926
-922
-918
-914
-908
-904
-898
-894
-888
-883
-877
-873
-869
-864
-860
-857
-854
-849
-849
-849
-848
-846
-846
-847
-849
-852
-853
-858
-864
-869
-875
-879
-888
-895
-901
-909
-914
-920
-926
-931
-936
-940
-943
-944
-948
-952
-952
-953
-953
-954
-956
-957
-957
-958
-957
-957
-958
-957
-955
-955
-957
-956
-956
-955
-955
-956
-956
-955
-955
-955
-956
-956
-957
-958
-959
-958
-957
-960
-961
-961
-963
-965
-965
-966
-966
-967
-968
-969
-969
-969
-970
-972
-974
-975
-973
-972
-973
-976
-975
-974
-975
-976
-976
-975
-975
-978
-977
-978
-978
-976
-978
-979
-978
-978
-978
-978
-978
-978
-979
-978
-978
-978
-977
-976
-976
-978
-978
-977
-976
-975
-974
-973
-976
-977
-975
-975
-974
-973
-974
-973
-974
-974
-974
-973
-972
-970
-969
-967
-963
-959
-956
-955
-955
-953
-950
-950
-955
-957
-957
-955
-957
-959
-960
-959
-960
-961
-961
-963
-966
-967
-970
-974
-976
-975
-975
-976
-979
-976
-976
-978
-977
-974
-974
-971
-971
-972
-970
-967
-962
-946
-922
-888
-860
-873
-894
-908
-918
-919
-936
-974
-1013
-1052
-1066
-1043
-1013
-991
-980
-973
-970
-969
-966
-967
-968
-967
-965
-965
-965
-966
-965
-962
-962
-962
-961
-960
-959
-958
-956
-955
-953
-953
-953
-952
-947
-948
-945
-943
-942
-939
-936
-931
-929
-926
-923
-918
-914
-910
-907
-903
-898
-895
-889
-884
-879
-875
-870
-866
-864
-860
-859
-856
-855
-855
-856
-856
-857
-858
-858
-862
-866
-869
-873
-879
-884
-889
-896
-902
-908
-914
-919
-923
-929
-932
-934
-939
-941
-943
-943
-945
-947
-948
-949
-949
-947
-949
-948
-950
-949
-949
-948
-948
-948
-946
-946
-946
-947
-946
-945
-947
-947
-947
-948
-948
-949
-950
-952
-950
-949
-950
-953
-955
-955
-956
-955
-957
-956
-959
-959
-960
-961
-962
-962
-962
-963
-964
-966
-967
-965
-966
-968
-969
-969
-969
-968
-968
-967
-968
-969
-970
-969
-968
-969
-969
-969
-970
-969
-969
-969
-969
-969
-970
-969
-970
-968
-968
-969
-969
-969
-968
-968
-967
-968
-968
-968
-968
-968
-968
-968
-969
-969
-966
-967
-966
-966
-966
-965
-965
-964
-962
-960
-955
-953
-950
-949
-948
-944
-942
-943
-946
-950
-950
-950
-951
-953
-953
-954
-956
-957
-958
-959
-962
-965
-969
-970
-971
-970
-971
-973
-974
-973
-972
-973
-974
-973
-971
-970
-971
-970
-970
-967
-961
-947
-923
-891
-860
-870
-886
-899
-916
-922
-946
-987
-1026
-1058
-1062
-1038
-1010
-989
-978
-973
-970
-969
-967
-966
-965
-963
-963
-965
-962
-961
-959
-959
-959
-957
-957
-956
-955
-953
-953
-952
-951
-949
-947
-947
-945
-942
-941
-938
-935
-933
-930
-928
-924
-922
-920
-916
-911
-908
-905
-900
-895
-891
-886
-882
-878
-872
-869
-865
-863
-858
-857
-855
-855
-853
-853
-855
-856
-858
-860
-861
-867
-870
-875
-878
-885
-891
-896
-901
-908
-914
-918
-923
-926
-927
-931
-935
-939
-940
-941
-942
-943
-944
-946
-946
-946
-946
-946
-946
-947
-945
-944
-944
-945
-944
-945
-946
-946
-945
-945
-946
-944
-946
-946
-947
-948
-947
-949
-949
-949
-950
-952
-952
-952
-953
-953
-955
-956
-957
-958
-960
-960
-960
-960
-961
-962
-963
-963
-963
-963
-962
-964
-965
-963
-965
-965
-965
-965
-965
-966
-966
-966
-968
-968
-967
-966
-967
-966
-967
-966
-966
-966
-967
-966
-966
-967
-967
-967
-968
-966
-967
-968
-967
-966
-966
-965
-966
-967
-967
-965
-966
-966
-966
-966
-965
-965
-965
-962
-960
-957
-954
-950
-948
-948
-947
-943
-942
-946
-949
-949
-947
-948
-952
-953
-952
-952
-953
-954
-957
-960
-960
-963
-968
-969
-969
-968
-969
-971
-970
-970
-970
-970
-972
-971
-969
-967
-966
-965
-962
-957
-942
-917
-883
-853
-864
-882
-896
-909
-916
-942
-984
-1024
-1060
-1063
-1037
-1008
-988
-978
-970
-969
-969
-968
-966
-965
-962
-962
-963
-964
-962
-960
-959
-960
-959
-957
-956
-955
-956
-955
-953
-953
-951
-948
-947
-945
-943
-942
-940
-939
-936
-933
-929
-927
-923
-920
-914
-912
-908
-903
-897
-892
-888
-882
-879
-873
-869
-862
-859
-858
-853
-851
-851
-850
-851
-851
-852
-853
-856
-859
-864
-869
-871
-875
-879
-889
-895
-901
-908
-915
-918
-926
-931
-935
-938
-940
-942
-946
-948
-949
-952
-952
-953
-953
-952
-952
-953
-953
-953
-953
-952
-949
-949
-950
-952
-953
-952
-949
-949
-950
-950
-950
-952
-953
-953
-953
-955
-953
-956
-957
-959
-958
-959
-959
-959
-961
-962
-965
-966
-966
-966
-966
-967
-969
-969
-969
-969
-969
-971
-970
-972
-973
-972
-973
-973
-973
-972
-972
-972
-973
-974
-973
-972
-973
-973
-973
-974
-975
-975
-973
-973
-973
-974
-974
-973
-971
-970
-970
-970
-971
-970
-970
-969
-969
-969
-969
-968
-963
-962
-959
-958
-960
-957
-954
-953
-955
-959
-962
-959
-957
-961
-962
-961
-959
-961
-961
-961
-962
-961
-966
-971
-972
-973
-975
-975
-975
-975
-976
-976
-975
-975
-974
-974
-973
-972
-971
-970
-965
-950
-927
-897
-861
-826
-826
-838
-849
-868
-892
-933
-985
-1033
-1060
-1053
-1035
-1013
-995
-985
-980
-976
-974
-974
-972
-972
-972
-970
-971
-969
-969
-969
-968
-966
-967
-966
-966
-963
-962
-961
-961
-959
-957
-955
-953
-953
-950
-948
-946
-944
-942
-940
-935
-933
-930
-926
-922
-917
-912
-909
-905
-901
-895
-888
-883
-879
-875
-871
-868
-865
-862
-862
-862
-861
-860
-859
-862
-864
-866
-869
-873
-877
-881
-885
-892
-898
-904
-910
-917
-923
-929
-934
-936
-942
-944
-948
-952
-955
-956
-958
-957
-957
-959
-961
-961
-960
-960
-960
-961
-961
-959
-958
-956
-956
-956
-957
-957
-955
-955
-953
-953
-953
-954
-955
-954
-955
-956
-957
-956
-956
-958
-959
-957
-957
-959
-961
-962
-963
-965
-966
-966
-966
-967
-968
-969
-970
-970
-970
-972
-975
-974
-975
-974
-974
-975
-973
-974
-973
-973
-974
-974
-976
-975
-976
-976
-976
-975
-975
-975
-976
-976
-976
-976
-976
-978
-978
-976
-975
-975
-976
-975
-975
-974
-976
-976
-977
-973
-973
-974
-974
-972
-972
-970
-968
-965
-963
-960
-959
-959
-957
-955
-955
-961
-963
-962
-962
-962
-965
-962
-961
-962
-962
-963
-963
-963
-966
-972
-974
-974
-975
-976
-977
-978
-976
-975
-976
-976
-974
-973
-974
-972
-972
-969
-966
-959
-942
-918
-885
-852
-849
-866
-880
-899
-911
-933
-970
-1013
-1046
-1059
-1041
-1016
-994
-982
-976
-974
-973
-972
-970
-968
-967
-966
-966
-965
-965
-963
-963
-962
-962
-961
-960
-959
-959
-957
-956
-955
-953
-952
-949
-946
-944
-943
-941
-939
-935
-933
-930
-927
-923
-920
-917
-911
-905
-901
-897
-892
-885
-879
-872
-867
-862
-857
-853
-849
-846
-844
-842
-841
-839
-840
-840
-843
-845
-847
-852
-857
-862
-868
-875
-881
-890
-897
-903
-910
-918
-924
-931
-935
-940
-944
-946
-949
-950
-952
-955
-956
-959
-959
-959
-959
-960
-961
-960
-960
-961
-960
-959
-959
-959
-957
-957
-958
-958
-957
-956
-956
-957
-957
-956
-955
-955
-956
-957
-958
-957
-958
-959
-959
-960
-961
-961
-963
-963
-965
-966
-966
-969
-970
-970
-971
-971
-972
-972
-973
-974
-974
-974
-976
-976
-976
-975
-975
-976
-975
-976
-978
-979
-978
-979
-978
-978
-978
-979
-979
-979
-978
-979
-978
-979
-980
-978
-978
-979
-976
-975
-978
-979
-978
-978
-976
-977
-976
-975
-975
-975
-975
-973
-973
-974
-974
-973
-973
-970
-970
-968
-965
-961
-960
-957
-957
-955
-953
-957
-961
-963
-960
-960
-963
-963
-960
-959
-960
-960
-959
-960
-962
-967
-970
-972
-973
-974
-973
-974
-975
-975
-974
-974
-973
-974
-972
-970
-970
-969
-966
-962
-952
-931
-902
-866
-844
-857
-875
-895
-914
-918
-939
-978
-1021
-1055
-1057
-1033
-1004
-986
-976
-972
-969
-968
-966
-965
-963
-962
-962
-961
-958
-959
-959
-958
-958
-957
-955
-955
-955
-953
-952
-950
-949
-947
-945
-943
-942
-940
-937
-935
-933
-930
-927
-924
-920
-916
-911
-908
-904
-899
-893
-888
-883
-877
-871
-866
-860
-855
-849
-845
-841
-839
-836
-836
-833
-833
-832
-832
-834
-836
-839
-843
-846
-852
-859
-866
-872
-879
-888
-896
-903
-908
-914
-921
-924
-930
-934
-937
-939
-942
-944
-944
-946
-948
-948
-949
-952
-952
-949
-950
-952
-952
-950
-949
-950
-951
-950
-948
-948
-949
-948
-946
-947
-945
-946
-944
-945
-947
-946
-947
-946
-949
-950
-949
-950
-952
-952
-953
-954
-955
-956
-957
-958
-959
-959
-960
-961
-962
-963
-963
-965
-965
-966
-966
-968
-968
-968
-968
-969
-968
-966
-968
-969
-969
-969
-966
-967
-970
-970
-970
-969
-969
-969
-970
-969
-970
-969
-970
-969
-969
-968
-970
-970
-970
-968
-970
-969
-968
-968
-966
-968
-970
-970
-969
-968
-968
-968
-966
-966
-967
-967
-965
-961
-959
-955
-953
-952
-950
-948
-944
-946
-950
-954
-954
-952
-951
-955
-954
-953
-954
-955
-955
-957
-960
-961
-966
-969
-970
-971
-970
-972
-973
-973
-972
-972
-970
-970
-970
-970
-969
-967
-966
-962
-956
-945
-924
-897
-861
-858
-879
-897
-918
-931
-936
-969
-1009
-1046
-1063
-1043
-1013
-988
-978
-972
-967
-966
-965
-963
-962
-960
-960
-960
-961
-960
-957
-956
-957
-956
-956
-955
-953
-953
-953
-952
-950
-949
-948
-946
-942
-940
-938
-936
-933
-931
-928
-926
-920
-918
-914
-910
-905
-899
-895
-889
-884
-878
-872
-866
-860
-857
-852
-847
-844
-840
-839
-838
-836
-834
-833
-834
-836
-838
-841
-845
-851
-858
-864
-870
-879
-886
-894
-901
-907
-914
-921
-926
-930
-933
-936
-941
-944
-947
-947
-948
-949
-950
-950
-950
-952
-953
-952
-954
-954
-954
-953
-953
-952
-952
-952
-953
-952
-952
-950
-950
-952
-949
-949
-949
-950
-953
-953
-953
-953
-953
-953
-954
-955
-957
-958
-957
-959
-961
-962
-962
-963
-965
-966
-966
-966
-967
-966
-968
-969
-969
-970
-970
-972
-970
-970
-970
-971
-970
-972
-971
-972
-972
-973
-973
-973
-973
-974
-973
-974
-973
-974
-973
-972
-973
-974
-972
-971
-970
-973
-970
-972
-973
-971
-970
-971
-970
-970
-972
-972
-972
-970
-970
-970
-971
-970
-970
-970
-968
-967
-966
-965
-962
-959
-957
-953
-952
-950
-947
-948
-950
-955
-953
-953
-955
-956
-954
-953
-956
-957
-957
-961
-963
-964
-967
-970
-972
-970
-970
-973
-975
-972
-971
-972
-971
-970
-970
-970
-969
-968
-967
-964
-960
-949
-927
-896
-860
-868
-892
-907
-922
-929
-936
-968
-1007
-1044
-1065
-1051
-1019
-991
-979
-973
-970
-968
-966
-965
-965
-964
-963
-964
-962
-961
-960
-961
-961
-961
-959
-956
-955
-956
-954
-953
-952
-952
-950
-948
-947
-944
-942
-940
-937
-935
-933
-930
-927
-923
-920
-917
-912
-908
-905
-901
-896
-889
-883
-879
-875
-869
-865
-859
-855
-852
-849
-847
-847
-845
-843
-844
-844
-845
-847
-851
-853
-859
-865
-870
-876
-884
-891
-897
-905
-910
-917
-923
-929
-934
-937
-941
-944
-947
-949
-951
-954
-955
-955
-955
-957
-957
-957
-957
-956
-957
-957
-956
-956
-956
-955
-955
-955
-956
-955
-955
-955
-956
-956
-956
-958
-956
-956
-957
-959
-959
-960
-960
-961
-962
-963
-963
-965
-965
-966
-968
-969
-969
-969
-970
-970
-970
-972
-973
-974
-973
-973
-974
-974
-976
-976
-976
-976
-975
-976
-977
-978
-978
-978
-978
-976
-976
-975
-977
-976
-976
-975
-976
-978
-978
-976
-975
-975
-975
-974
-974
-975
-974
-974
-975
-975
-974
-973
-974
-974
-973
-972
-972
-973
-973
-972
-971
-970
-970
-970
-968
-966
-964
-960
-958
-955
-954
-953
-950
-949
-953
-957
-959
-955
-956
-957
-957
-956
-959
-958
-956
-959
-961
-962
-968
-969
-970
-971
-972
-971
-970
-970
-971
-973
-972
-971
-970
-969
-966
-966
-966
-963
-959
-947
-927
-898
-865
-833
-836
-851
-859
-876
-894
-923
-970
-1018
-1055
-1064
-1044
-1020
-997
-981
-974
-970
-966
-966
-965
-963
-963
-963
-962
-962
-962
-962
-961
-960
-959
-958
-957
-955
-953
-953
-953
-952
-952
-950
-948
-948
-945
-944
-940
-939
-936
-935
-932
-929
-924
-922
-918
-915
-909
-905
-897
-896
-888
-884
-879
-875
-869
-866
-862
-858
-855
-853
-852
-849
-849
-849
-850
-851
-852
-853
-857
-860
-866
-870
-877
-883
-889
-895
-901
-908
-914
-920
-924
-929
-933
-937
-939
-942
-944
-946
-948
-949
-951
-952
-950
-950
-950
-952
-953
-953
-951
-949
-950
-952
-952
-950
-952
-950
-950
-949
-950
-950
-952
-952
-951
-949
-951
-952
-953
-953
-953
-953
-956
-958
-957
-959
-959
-961
-962
-962
-963
-963
-965
-966
-966
-966
-968
-968
-969
-970
-971
-970
-970
-971
-973
-972
-973
-973
-974
-974
-974
-974
-974
-974
-975
-978
-976
-975
-975
-974
-974
-974
-974
-974
-974
-974
-973
-972
-973
-975
-975
-973
-974
-974
-973
-973
-973
-973
-973
-973
-974
-974
-973
-972
-970
-969
-968
-966
-961
-958
-957
-957
-956
-953
-953
-956
-961
-961
-957
-958
-960
-961
-959
-961
-962
-963
-966
-968
-967
-969
-972
-974
-975
-975
-976
-975
-976
-976
-975
-974
-976
-975
-973
-970
-969
-969
-968
-962
-952
-929
-898
-862
-857
-878
-895
-914
-923
-930
-962
-1005
-1045
-1065
-1047
-1017
-991
-980
-974
-970
-970
-966
-968
-968
-967
-966
-965
-965
-965
-962
-962
-961
-961
-960
-960
-959
-957
-956
-956
-955
-953
-953
-950
-947
-944
-943
-939
-935
-934
-931
-929
-926
-921
-918
-912
-909
-905
-901
-894
-888
-882
-880
-875
-869
-863
-857
-853
-851
-847
-844
-843
-840
-840
-840
-840
-842
-846
-849
-852
-855
-861
-866
-873
-881
-890
-897
-904
-911
-917
-923
-930
-934
-940
-943
-947
-950
-952
-955
-956
-957
-958
-959
-959
-959
-959
-959
-960
-960
-960
-960
-960
-958
-957
-958
-957
-956
-957
-957
-958
-957
-957
-958
-957
-960
-960
-960
-960
-963
-962
-963
-965
-965
-967
-968
-968
-970
-970
-972
-973
-973
-976
-975
-975
-975
-976
-976
-978
-978
-979
-979
-979
-979
-980
-980
-979
-981
-981
-981
-982
-981
-981
-981
-981
-982
-981
-981
-981
-981
-981
-981
-979
-979
-979
-980
-979
-980
-980
-979
-978
-978
-978
-978
-978
-976
-976
-976
-978
-976
-976
-974
-973
-970
-968
-966
-965
-960
-959
-956
-953
-952
-955
-959
-961
-958
-958
-959
-959
-958
-960
-960
-962
-965
-966
-968
-970
-974
-976
-976
-975
-977
-979
-979
-975
-975
-976
-976
-974
-974
-974
-971
-970
-968
-961
-944
-917
-880
-858
-878
-898
-914
-926
-926
-944
-984
-1027
-1062
-1062
-1033
-1001
-984
-976
-972
-969
-967
-966
-967
-965
-965
-963
-963
-962
-960
-959
-959
-959
-958
-957
-957
-956
-955
-953
-952
-952
-950
-948
-945
-942
-940
-937
-936
-934
-931
-928
-926
-923
-917
-914
-910
-905
-901
-897
-892
-888
-884
-879
-873
-866
-862
-858
-853
-851
-847
-845
-844
-844
-842
-842
-843
-845
-846
-849
-855
-859
-864
-868
-875
-882
-891
-897
-903
-910
-916
-921
-924
-931
-936
-940
-943
-944
-945
-947
-949
-949
-950
-952
-950
-950
-950
-953
-953
-953
-953
-952
-949
-950
-950
-950
-950
-950
-950
-949
-949
-949
-948
-948
-948
-950
-950
-950
-950
-952
-952
-952
-954
-954
-955
-956
-957
-956
-958
-960
-961
-961
-960
-961
-962
-963
-963
-965
-966
-966
-965
-966
-967
-968
-968
-967
-968
-969
-970
-970
-969
-969
-969
-970
-970
-971
-970
-970
-971
-970
-970
-970
-970
-970
-970
-972
-973
-972
-971
-970
-970
-971
-970
-970
-972
-970
-970
-968
-966
-964
-960
-959
-956
-953
-954
-950
-946
-948
-952
-956
-955
-952
-953
-956
-959
-959
-959
-959
-961
-963
-966
-968
-970
-972
-973
-973
-973
-975
-976
-976
-974
-975
-975
-976
-976
-972
-971
-969
-968
-966
-959
-944
-921
-888
-851
-857
-877
-891
-907
-915
-927
-968
-1013
-1053
-1070
-1047
-1017
-993
-982
-975
-972
-970
-968
-967
-965
-966
-963
-963
-962
-961
-962
-961
-960
-957
-958
-957
-957
-956
-953
-953
-952
-950
-948
-947
-944
-942
-940
-939
-936
-933
-930
-927
-923
-918
-916
-910
-907
-902
-897
-893
-886
-881
-875
-869
-864
-858
-855
-851
-846
-844
-843
-840
-839
-838
-839
-839
-840
-843
-845
-849
-853
-860
-865
-871
-878
-885
-893
-899
-907
-914
-919
-926
-930
-936
-940
-942
-945
-948
-950
-950
-952
-952
-953
-956
-956
-957
-956
-955
-955
-954
-955
-955
-956
-956
-955
-953
-952
-952
-952
-952
-952
-953
-953
-953
-951
-952
-953
-954
-954
-955
-955
-956
-958
-959
-959
-958
-957
-960
-962
-963
-965
-965
-965
-965
-967
-968
-967
-969
-969
-969
-971
-970
-972
-972
-970
-973
-973
-974
-974
-974
-973
-972
-973
-975
-975
-974
-975
-975
-974
-974
-975
-975
-975
-975
-975
-975
-974
-974
-975
-975
-974
-970
-971
-970
-966
-963
-961
-960
-957
-955
-954
-952
-956
-961
-961
-957
-957
-960
-960
-958
-958
-959
-960
-961
-961
-963
-967
-970
-972
-972
-971
-972
-972
-972
-972
-972
-974
-973
-973
-972
-970
-970
-969
-966
-962
-952
-931
-901
-864
-825
-803
-810
-821
-836
-862
-896
-945
-999
-1038
-1056
-1049
-1034
-1013
-994
-982
-978
-975
-972
-970
-970
-969
-968
-967
-965
-965
-965
-965
-963
-960
-959
-960
-960
-960
-959
-956
-957
-955
-953
-952
-949
-947
-946
-945
-943
-942
-939
-937
-935
-931
-927
-923
-920
-916
-912
-908
-904
-898
-892
-888
-883
-879
-875
-872
-869
-866
-862
-862
-860
-861
-860
-860
-862
-862
-865
-866
-871
-875
-879
-884
-890
-897
-903
-912
-918
-923
-930
-936
-942
-945
-948
-952
-956
-959
-963
-963
-965
-963
-961
-961
-960
-961
-962
-959
-956
-955
-956
-956
-956
-955
-955
-955
-955
-955
-955
-955
-956
-957
-956
-956
-957
-956
-955
-956
-956
-955
-957
-958
-957
-959
-960
-960
-963
-963
-966
-965
-966
-967
-969
-970
-970
-973
-972
-971
-972
-973
-974
-974
-975
-976
-977
-976
-975
-976
-976
-975
-975
-975
-975
-976
-976
-975
-975
-974
-975
-976
-976
-974
-972
-971
-967
-965
-962
-961
-959
-960
-957
-956
-957
-962
-966
-963
-960
-962
-965
-963
-962
-960
-959
-961
-961
-962
-966
-971
-973
-974
-973
-973
-974
-974
-974
-974
-974
-973
-972
-971
-972
-971
-969
-968
-962
-949
-927
-900
-864
-825
-817
-831
-842
-858
-881
-919
-970
-1013
-1041
-1049
-1031
-1012
-994
-982
-974
-970
-968
-967
-966
-965
-962
-961
-963
-962
-960
-960
-959
-957
-957
-955
-955
-955
-953
-953
-950
-949
-946
-946
-944
-941
-939
-938
-934
-932
-931
-929
-924
-921
-917
-914
-908
-904
-897
-892
-888
-883
-877
-870
-865
-859
-856
-851
-846
-843
-838
-836
-832
-833
-834
-834
-836
-839
-842
-849
-853
-860
-868
-875
-882
-888
-898
-905
-911
-918
-923
-929
-935
-940
-944
-946
-949
-952
-953
-953
-955
-957
-960
-960
-961
-960
-957
-960
-960
-959
-959
-961
-960
-959
-960
-959
-960
-960
-957
-955
-953
-952
-953
-953
-952
-952
-953
-950
-953
-958
-957
-956
-955
-955
-957
-959
-959
-958
-960
-962
-965
-966
-966
-966
-966
-966
-970
-972
-972
-972
-972
-970
-970
-970
-970
-968
-971
-973
-973
-971
-970
-972
-972
-974
-974
-973
-974
-973
-974
-974
-974
-973
-972
-973
-973
-974
-975
-975
-973
-970
-969
-968
-965
-961
-960
-959
-957
-953
-954
-957
-960
-963
-961
-959
-961
-965
-965
-965
-965
-966
-965
-965
-966
-967
-972
-975
-975
-975
-975
-976
-976
-979
-979
-978
-978
-978
-974
-972
-973
-972
-969
-965
-955
-933
-904
-872
-853
-872
-888
-901
-917
-931
-963
-1007
-1041
-1060
-1060
-1035
-1008
-991
-981
-975
-972
-969
-968
-968
-966
-965
-965
-965
-962
-962
-961
-959
-959
-959
-959
-956
-956
-956
-952
-949
-949
-946
-945
-943
-942
-941
-938
-933
-930
-927
-924
-920
-915
-910
-905
-901
-895
-891
-883
-878
-870
-866
-859
-854
-846
-840
-835
-831
-826
-823
-820
-819
-818
-817
-818
-820
-823
-827
-832
-838
-846
-854
-863
-872
-882
-891
-899
-908
-916
-922
-929
-934
-938
-942
-946
-950
-955
-957
-957
-959
-960
-960
-962
-963
-962
-962
-962
-966
-966
-965
-965
-964
-962
-963
-964
-963
-963
-963
-963
-963
-962
-961
-961
-962
-960
-959
-960
-959
-959
-961
-961
-960
-961
-963
-966
-966
-963
-966
-968
-968
-967
-968
-970
-971
-972
-972
-973
-974
-974
-975
-976
-976
-978
-978
-981
-982
-981
-979
-979
-979
-982
-982
-983
-982
-981
-981
-983
-984
-983
-981
-981
-982
-984
-984
-983
-982
-984
-983
-983
-983
-982
-981
-983
-984
-983
-982
-981
-979
-978
-975
-972
-969
-966
-965
-965
-963
-960
-962
-968
-972
-972
-969
-971
-973
-972
-970
-972
-974
-973
-972
-973
-975
-981
-985
-985
-985
-985
-987
-987
-987
-986
-985
-986
-985
-983
-982
-982
-982
-979
-976
-969
-949
-923
-891
-853
-858
-879
-895
-914
-934
-956
-998
-1037
-1065
-1076
-1059
-1030
-1006
-991
-983
-981
-979
-979
-978
-976
-972
-972
-970
-971
-972
-970
-969
-968
-967
-966
-965
-963
-960
-958
-956
-954
-953
-952
-949
-948
-943
-940
-938
-934
-929
-926
-922
-918
-915
-914
-908
-901
-897
-889
-883
-875
-870
-864
-857
-851
-845
-839
-832
-827
-823
-819
-817
-814
-814
-814
-814
-817
-819
-824
-827
-832
-840
-846
-856
-866
-876
-884
-891
-897
-905
-914
-921
-927
-934
-939
-940
-944
-948
-950
-954
-954
-955
-956
-956
-957
-957
-959
-960
-958
-957
-958
-960
-962
-961
-961
-960
-961
-960
-957
-956
-957
-960
-957
-955
-955
-956
-957
-955
-956
-958
-957
-958
-958
-959
-960
-960
-959
-962
-965
-966
-965
-965
-965
-966
-966
-968
-968
-970
-970
-971
-970
-972
-973
-973
-974
-974
-974
-975
-975
-974
-976
-976
-978
-978
-977
-978
-979
-979
-978
-980
-979
-979
-979
-979
-979
-977
-976
-979
-979
-979
-975
-975
-976
-975
-975
-976
-975
-976
-978
-976
-976
-976
-974
-971
-970
-968
-967
-963
-961
-958
-959
-957
-953
-953
-957
-961
-961
-959
-961
-963
-962
-961
-961
-960
-960
-961
-963
-963
-970
-972
-975
-976
-976
-975
-978
-979
-979
-975
-973
-973
-972
-971
-973
-972
-970
-968
-964
-956
-937
-910
-878
-843
-847
-864
-879
-901
-914
-933
-973
-1015
-1052
-1065
-1045
-1014
-989
-980
-973
-969
-970
-968
-965
-963
-962
-961
-961
-962
-961
-961
-961
-959
-959
-958
-958
-956
-954
-952
-950
-948
-948
-946
-943
-941
-937
-935
-934
-933
-929
-927
-923
-920
-917
-912
-907
-903
-898
-891
-885
-881
-877
-870
-863
-855
-849
-843
-836
-834
-831
-827
-823
-819
-818
-818
-818
-817
-818
-820
-824
-829
-834
-841
-847
-856
-866
-875
-881
-891
-898
-905
-913
-918
-924
-931
-934
-937
-940
-944
-948
-947
-949
-950
-954
-955
-955
-954
-955
-956
-957
-956
-955
-957
-956
-956
-956
-955
-955
-955
-954
-953
-953
-955
-953
-953
-953
-955
-955
-953
-955
-955
-956
-956
-957
-959
-960
-962
-962
-962
-963
-965
-966
-969
-969
-969
-968
-968
-969
-970
-973
-972
-973
-973
-973
-975
-976
-976
-978
-978
-977
-979
-979
-979
-978
-978
-978
-978
-978
-978
-979
-978
-977
-978
-979
-979
-979
-979
-980
-979
-979
-979
-979
-978
-977
-978
-979
-979
-978
-978
-979
-979
-978
-976
-975
-975
-977
-975
-974
-973
-969
-965
-961
-961
-961
-958
-955
-955
-959
-962
-961
-959
-960
-963
-965
-963
-962
-962
-962
-965
-968
-969
-973
-975
-978
-981
-981
-980
-980
-979
-978
-979
-980
-979
-978
-976
-976
-975
-973
-970
-967
-955
-933
-904
-866
-844
-855
-871
-892
-912
-921
-948
-995
-1037
-1068
-1070
-1041
-1010
-992
-984
-977
-974
-970
-969
-969
-970
-969
-967
-963
-960
-957
-957
-957
-958
-958
-957
-955
-955
-955
-952
-950
-948
-947
-946
-943
-942
-940
-937
-934
-931
-930
-927
-922
-918
-914
-909
-905
-901
-896
-892
-884
-879
-872
-866
-862
-856
-849
-845
-840
-838
-834
-832
-829
-827
-827
-829
-830
-832
-836
-838
-840
-847
-854
-862
-866
-876
-883
-893
-902
-908
-914
-918
-927
-931
-935
-940
-944
-945
-948
-950
-953
-954
-955
-955
-953
-957
-957
-957
-958
-958
-958
-958
-957
-958
-958
-957
-956
-957
-957
-957
-957
-956
-957
-957
-958
-959
-960
-960
-959
-960
-961
-960
-961
-962
-965
-966
-969
-969
-969
-970
-970
-972
-973
-974
-976
-976
-975
-975
-976
-976
-979
-979
-981
-982
-983
-982
-980
-979
-983
-983
-984
-983
-984
-984
-982
-982
-983
-984
-982
-981
-984
-985
-989
-989
-987
-984
-985
-986
-985
-984
-982
-982
-981
-982
-984
-985
-981
-983
-984
-985
-986
-985
-986
-986
-979
-972
-969
-968
-966
-965
-963
-963
-961
-959
-961
-963
-967
-970
-967
-967
-969
-968
-967
-967
-969
-968
-968
-970
-973
-976
-978
-978
-979
-980
-983
-983
-982
-983
-983
-980
-979
-979
-978
-978
-978
-975
-972
-965
-950
-928
-897
-860
-840
-852
-871
-891
-914
-932
-961
-1007
-1048
-1076
-1076
-1048
-1018
-997
-985
-979
-975
-972
-971
-970
-969
-968
-967
-965
-965
-961
-960
-960
-960
-960
-959
-957
-956
-953
-953
-953
-953
-950
-948
-946
-944
-941
-936
-934
-931
-930
-926
-922
-918
-914
-910
-905
-901
-896
-890
-884
-879
-873
-870
-866
-859
-852
-843
-838
-834
-831
-827
-825
-823
-823
-823
-825
-827
-827
-831
-836
-840
-845
-851
-857
-866
-875
-883
-890
-897
-905
-911
-917
-923
-930
-939
-943
-947
-946
-944
-946
-947
-949
-950
-950
-952
-953
-953
-952
-953
-952
-953
-954
-954
-955
-955
-955
-951
-945
-946
-950
-950
-949
-947
-948
-949
-949
-950
-950
-952
-953
-953
-955
-956
-957
-957
-957
-959
-961
-962
-962
-963
-965
-966
-966
-966
-968
-969
-969
-970
-970
-972
-972
-974
-973
-974
-974
-974
-975
-975
-975
-976
-976
-975
-977
-976
-976
-976
-976
-974
-975
-978
-978
-976
-976
-976
-976
-975
-975
-975
-975
-975
-976
-976
-975
-974
-974
-974
-973
-972
-972
-971
-968
-965
-961
-960
-958
-957
-955
-954
-953
-955
-959
-959
-957
-959
-960
-960
-959
-961
-962
-962
-963
-966
-966
-970
-974
-975
-976
-976
-975
-975
-976
-976
-978
-976
-975
-974
-974
-973
-972
-969
-965
-956
-934
-904
-868
-836
-845
-866
-885
-908
-916
-935
-979
-1025
-1064
-1077
-1052
-1018
-992
-981
-976
-972
-973
-973
-968
-966
-965
-963
-963
-962
-962
-961
-959
-957
-958
-959
-957
-955
-953
-954
-953
-949
-946
-944
-942
-940
-937
-934
-931
-930
-928
-924
-922
-918
-914
-910
-905
-901
-896
-891
-884
-878
-872
-866
-857
-850
-844
-839
-833
-827
-827
-825
-824
-823
-821
-821
-821
-823
-825
-827
-832
-838
-844
-853
-862
-868
-875
-883
-892
-901
-910
-918
-923
-927
-929
-933
-940
-944
-944
-948
-950
-953
-953
-952
-953
-953
-953
-955
-953
-953
-954
-953
-954
-953
-952
-952
-950
-949
-951
-953
-953
-955
-954
-952
-949
-948
-949
-952
-953
-953
-954
-955
-957
-957
-959
-960
-962
-962
-962
-965
-966
-966
-968
-969
-970
-970
-972
-971
-972
-972
-973
-974
-974
-974
-976
-977
-976
-975
-978
-978
-978
-979
-980
-981
-980
-979
-980
-981
-980
-982
-982
-982
-982
-984
-981
-979
-978
-979
-980
-980
-979
-978
-978
-979
-979
-980
-979
-980
-980
-978
-978
-976
-975
-972
-967
-963
-963
-962
-960
-956
-956
-961
-965
-963
-959
-960
-963
-963
-961
-962
-965
-963
-963
-965
-968
-972
-976
-979
-980
-980
-979
-981
-982
-981
-979
-980
-979
-978
-979
-978
-975
-974
-972
-963
-946
-920
-886
-849
-826
-838
-856
-873
-895
-914
-954
-1004
-1047
-1075
-1075
-1050
-1021
-998
-986
-981
-979
-975
-972
-972
-972
-970
-970
-968
-966
-966
-965
-966
-966
-966
-963
-959
-956
-955
-955
-955
-953
-949
-947
-944
-943
-940
-937
-937
-935
-931
-929
-924
-920
-913
-907
-904
-899
-892
-888
-879
-872
-866
-862
-855
-849
-842
-836
-834
-832
-831
-827
-823
-819
-819
-823
-823
-826
-827
-832
-838
-844
-852
-860
-868
-875
-884
-892
-903
-911
-918
-922
-928
-931
-936
-939
-940
-944
-948
-949
-950
-950
-952
-954
-954
-955
-955
-955
-955
-953
-953
-953
-953
-952
-950
-952
-952
-950
-950
-950
-949
-949
-949
-950
-950
-950
-950
-952
-952
-953
-955
-955
-955
-956
-956
-959
-960
-963
-965
-965
-963
-965
-967
-969
-969
-969
-968
-968
-969
-971
-970
-972
-970
-970
-970
-972
-973
-974
-974
-974
-974
-974
-976
-975
-974
-975
-978
-976
-975
-975
-978
-976
-975
-975
-976
-975
-974
-973
-973
-972
-970
-968
-965
-960
-959
-959
-959
-955
-953
-955
-961
-963
-961
-959
-962
-965
-963
-961
-962
-961
-961
-961
-963
-968
-973
-974
-975
-975
-974
-976
-976
-976
-976
-978
-978
-978
-974
-970
-968
-969
-968
-962
-949
-926
-894
-857
-822
-823
-839
-853
-874
-896
-934
-984
-1029
-1058
-1065
-1048
-1023
-999
-985
-979
-974
-970
-967
-966
-966
-967
-967
-966
-964
-962
-960
-961
-960
-957
-957
-959
-959
-956
-953
-953
-953
-950
-947
-946
-945
-942
-939
-936
-931
-929
-926
-923
-920
-916
-910
-904
-898
-894
-888
-882
-877
-870
-864
-857
-851
-846
-840
-836
-832
-829
-828
-827
-825
-824
-825
-827
-831
-831
-834
-838
-843
-849
-857
-866
-873
-883
-891
-897
-904
-912
-920
-927
-933
-939
-943
-946
-951
-955
-956
-955
-955
-959
-959
-959
-959
-959
-959
-960
-961
-962
-961
-960
-961
-958
-957
-958
-955
-955
-957
-956
-956
-955
-953
-953
-955
-957
-955
-955
-956
-959
-957
-959
-961
-961
-961
-962
-962
-963
-966
-969
-970
-970
-970
-970
-974
-972
-972
-973
-974
-975
-976
-975
-974
-976
-978
-979
-979
-978
-979
-981
-979
-978
-979
-980
-979
-979
-979
-980
-982
-981
-981
-981
-981
-982
-982
-983
-982
-982
-981
-980
-979
-979
-979
-979
-980
-979
-975
-973
-971
-969
-966
-965
-965
-962
-957
-958
-965
-970
-970
-963
-964
-968
-968
-967
-968
-968
-968
-970
-971
-969
-974
-979
-980
-984
-984
-983
-982
-984
-985
-983
-981
-982
-981
-981
-977
-976
-976
-974
-969
-956
-931
-898
-864
-856
-875
-892
-918
-939
-956
-994
-1032
-1057
-1072
-1063
-1035
-1007
-991
-981
-978
-976
-974
-973
-972
-970
-969
-968
-968
-966
-966
-967
-966
-963
-961
-961
-962
-960
-958
-957
-954
-952
-950
-946
-944
-944
-943
-942
-936
-932
-928
-924
-920
-918
-914
-908
-903
-898
-894
-888
-884
-879
-871
-863
-857
-852
-845
-840
-835
-832
-829
-827
-823
-820
-820
-822
-823
-825
-828
-831
-834
-840
-849
-857
-862
-870
-881
-890
-901
-907
-914
-920
-927
-931
-940
-943
-945
-948
-952
-954
-955
-958
-960
-957
-957
-957
-957
-961
-962
-962
-959
-957
-960
-963
-961
-959
-957
-959
-960
-959
-959
-958
-955
-956
-957
-956
-953
-956
-960
-962
-962
-960
-956
-955
-960
-963
-962
-960
-962
-967
-969
-969
-970
-973
-973
-970
-966
-967
-969
-972
-974
-978
-978
-978
-978
-979
-982
-982
-980
-979
-983
-982
-984
-983
-984
-984
-986
-985
-985
-985
-985
-985
-984
-986
-986
-984
-983
-985
-987
-987
-987
-983
-983
-985
-985
-984
-983
-982
-980
-976
-973
-971
-972
-971
-969
-968
-966
-971
-976
-978
-973
-973
-976
-978
-974
-975
-975
-975
-976
-976
-976
-982
-986
-988
-988
-988
-988
-988
-988
-988
-989
-989
-989
-990
-989
-987
-985
-984
-981
-979
-966
-944
-919
-884
-845
-821
-835
-852
-873
-905
-943
-988
-1031
-1057
-1066
-1059
-1044
-1026
-1007
-995
-991
-985
-984
-981
-979
-979
-977
-975
-978
-978
-973
-972
-970
-972
-972
-970
-968
-968
-967
-963
-962
-961
-961
-958
-958
-956
-954
-953
-949
-949
-949
-945
-940
-934
-930
-927
-927
-922
-920
-918
-910
-901
-897
-894
-889
-881
-877
-873
-870
-867
-862
-860
-860
-860
-857
-858
-860
-862
-864
-866
-870
-875
-881
-888
-895
-899
-905
-914
-920
-926
-931
-936
-940
-944
-950
-953
-953
-955
-957
-959
-960
-961
-961
-962
-962
-963
-965
-965
-960
-959
-963
-960
-958
-960
-961
-960
-957
-955
-955
-955
-956
-955
-955
-954
-956
-955
-955
-955
-957
-957
-957
-957
-956
-956
-956
-960
-962
-966
-965
-962
-961
-963
-966
-966
-966
-968
-969
-968
-970
-970
-970
-972
-973
-973
-973
-973
-972
-973
-975
-976
-976
-973
-972
-974
-974
-974
-976
-978
-975
-973
-974
-975
-974
-974
-974
-974
-970
-967
-966
-963
-960
-960
-961
-959
-957
-957
-961
-966
-968
-965
-962
-963
-966
-962
-961
-963
-962
-962
-963
-963
-968
-973
-975
-975
-975
-976
-979
-979
-979
-979
-978
-976
-976
-975
-976
-976
-974
-970
-968
-961
-943
-918
-888
-856
-814
-812
-836
-860
-891
-926
-961
-1003
-1038
-1055
-1047
-1031
-1014
-1000
-988
-982
-979
-975
-972
-970
-970
-970
-969
-969
-969
-966
-965
-965
-966
-967
-964
-960
-961
-961
-960
-959
-959
-958
-955
-953
-953
-954
-950
-946
-944
-940
-939
-939
-935
-932
-927
-924
-921
-916
-911
-905
-899
-895
-892
-886
-881
-875
-870
-865
-864
-860
-857
-855
-855
-856
-855
-857
-857
-858
-862
-866
-870
-878
-885
-890
-895
-904
-913
-918
-923
-928
-934
-939
-942
-944
-948
-952
-952
-954
-955
-957
-957
-957
-957
-957
-957
-958
-957
-958
-957
-955
-955
-955
-955
-954
-950
-950
-952
-950
-950
-948
-946
-946
-946
-945
-947
-947
-948
-949
-949
-950
-952
-950
-952
-953
-953
-953
-953
-955
-958
-957
-956
-957
-959
-960
-961
-963
-963
-965
-966
-966
-966
-968
-968
-969
-969
-969
-968
-969
-970
-970
-969
-969
-969
-973
-973
-972
-972
-972
-970
-969
-969
-970
-970
-971
-972
-970
-970
-970
-973
-973
-972
-970
-968
-969
-969
-968
-966
-962
-960
-957
-956
-955
-955
-953
-952
-953
-957
-961
-962
-962
-962
-962
-965
-962
-957
-958
-960
-961
-961
-962
-966
-968
-970
-970
-972
-970
-973
-973
-972
-970
-971
-970
-970
-970
-968
-969
-966
-962
-953
-936
-912
-883
-849
-843
-865
-888
-910
-933
-960
-996
-1021
-1037
-1044
-1032
-1009
-993
-979
-973
-970
-966
-963
-962
-962
-962
-962
-962
-961
-960
-960
-958
-956
-958
-957
-955
-956
-953
-954
-953
-949
-944
-945
-946
-946
-942
-936
-935
-934
-931
-930
-926
-920
-917
-914
-908
-902
-896
-892
-888
-880
-873
-866
-862
-853
-847
-844
-841
-836
-831
-825
-824
-823
-823
-823
-823
-826
-829
-833
-838
-844
-852
-860
-869
-878
-886
-895
-904
-912
-918
-926
-931
-937
-942
-945
-948
-953
-953
-955
-957
-960
-961
-960
-959
-960
-960
-962
-963
-962
-962
-962
-962
-962
-963
-962
-961
-959
-960
-961
-960
-957
-958
-957
-957
-957
-959
-959
-958
-958
-958
-957
-956
-956
-957
-959
-960
-961
-961
-962
-962
-961
-962
-963
-963
-966
-968
-969
-968
-967
-967
-968
-969
-970
-971
-973
-972
-972
-973
-974
-974
-974
-974
-974
-975
-974
-974
-974
-974
-975
-975
-976
-976
-974
-973
-975
-975
-974
-975
-975
-974
-974
-974
-974
-975
-978
-976
-973
-972
-974
-973
-972
-973
-974
-974
-974
-973
-972
-972
-972
-971
-970
-970
-967
-963
-960
-957
-955
-953
-954
-953
-957
-961
-963
-961
-961
-963
-965
-962
-962
-963
-962
-960
-960
-960
-962
-970
-972
-972
-970
-970
-971
-973
-973
-974
-974
-972
-970
-970
-970
-969
-967
-965
-963
-954
-934
-910
-878
-849
-852
-872
-891
-914
-935
-966
-1004
-1028
-1044
-1047
-1029
-1005
-986
-974
-968
-965
-962
-961
-960
-959
-957
-956
-955
-957
-957
-956
-954
-953
-953
-950
-949
-947
-947
-945
-945
-944
-942
-940
-939
-937
-935
-931
-927
-927
-926
-922
-917
-912
-909
-908
-901
-896
-890
-885
-879
-875
-868
-862
-853
-849
-843
-838
-830
-825
-821
-818
-814
-813
-812
-810
-811
-814
-817
-818
-822
-828
-834
-840
-851
-860
-866
-876
-885
-894
-901
-909
-917
-922
-927
-931
-939
-942
-943
-945
-948
-950
-953
-955
-955
-953
-956
-955
-954
-955
-957
-958
-958
-957
-956
-955
-953
-955
-956
-955
-955
-954
-953
-953
-954
-953
-954
-953
-952
-952
-952
-953
-954
-953
-955
-956
-956
-955
-958
-959
-956
-958
-962
-962
-965
-965
-963
-965
-965
-963
-967
-969
-969
-970
-970
-970
-970
-970
-972
-973
-973
-973
-974
-975
-975
-974
-976
-974
-974
-974
-973
-975
-976
-976
-976
-978
-978
-976
-975
-975
-976
-975
-976
-976
-976
-976
-974
-976
-975
-975
-975
-976
-977
-976
-974
-972
-973
-974
-974
-973
-974
-974
-973
-973
-974
-972
-970
-971
-972
-972
-969
-967
-965
-964
-961
-958
-957
-959
-958
-955
-955
-958
-961
-965
-966
-962
-962
-965
-963
-961
-960
-960
-962
-962
-963
-969
-972
-972
-973
-975
-975
-975
-975
-975
-974
-972
-973
-973
-970
-970
-969
-969
-968
-963
-953
-931
-905
-875
-843
-847
-867
-882
-901
-922
-952
-994
-1025
-1043
-1047
-1027
-1005
-986
-974
-967
-966
-966
-962
-961
-961
-960
-959
-957
-958
-959
-957
-955
-954
-954
-954
-953
-953
-949
-946
-944
-944
-945
-944
-941
-938
-935
-935
-931
-929
-927
-923
-918
-914
-913
-910
-904
-898
-894
-888
-883
-875
-870
-862
-857
-851
-844
-836
-830
-826
-820
-818
-815
-812
-812
-812
-810
-812
-815
-818
-823
-827
-834
-840
-849
-858
-866
-875
-884
-894
-904
-911
-916
-920
-929
-934
-937
-939
-944
-948
-952
-953
-952
-954
-956
-955
-954
-954
-956
-957
-957
-957
-956
-957
-957
-956
-955
-956
-953
-953
-955
-956
-955
-953
-953
-953
-953
-952
-952
-955
-957
-955
-955
-956
-956
-956
-958
-960
-962
-961
-961
-961
-962
-966
-968
-966
-967
-967
-968
-970
-969
-970
-969
-971
-973
-973
-972
-972
-974
-974
-975
-975
-975
-975
-974
-975
-975
-977
-975
-975
-976
-976
-976
-978
-976
-974
-974
-975
-975
-976
-976
-974
-975
-976
-974
-974
-975
-975
-976
-976
-975
-975
-975
-974
-973
-975
-974
-975
-974
-974
-973
-974
-973
-972
-974
-974
-973
-974
-974
-972
-970
-971
-969
-970
-968
-963
-959
-957
-957
-958
-955
-955
-958
-961
-962
-961
-962
-963
-965
-962
-963
-963
-961
-962
-962
-962
-967
-970
-972
-974
-973
-973
-974
-974
-975
-974
-973
-974
-974
-970
-969
-969
-968
-966
-962
-949
-926
-899
-866
-836
-840
-858
-875
-897
-916
-949
-992
-1024
-1046
-1049
-1027
-1002
-986
-977
-969
-965
-965
-963
-962
-961
-962
-961
-960
-959
-959
-957
-957
-956
-955
-953
-952
-952
-950
-949
-947
-946
-946
-942
-941
-939
-935
-934
-931
-929
-927
-924
-918
-913
-910
-905
-902
-892
-888
-882
-877
-873
-866
-857
-849
-844
-839
-833
-827
-823
-819
-816
-814
-814
-814
-813
-814
-814
-818
-823
-827
-831
-838
-847
-855
-864
-873
-883
-890
-898
-906
-914
-921
-926
-931
-936
-940
-941
-943
-947
-949
-949
-952
-953
-953
-953
-953
-955
-955
-955
-955
-956
-953
-953
-953
-953
-953
-952
-952
-953
-953
-950
-949
-950
-953
-952
-952
-953
-953
-953
-953
-953
-953
-953
-955
-957
-957
-957
-960
-961
-960
-963
-965
-965
-967
-968
-968
-969
-969
-969
-969
-972
-970
-970
-972
-974
-975
-975
-975
-974
-975
-974
-975
-977
-978
-979
-978
-976
-975
-974
-976
-976
-976
-977
-976
-975
-976
-978
-975
-974
-977
-976
-976
-975
-976
-975
-975
-977
-976
-977
-975
-974
-973
-974
-975
-975
-975
-976
-974
-974
-974
-974
-974
-973
-973
-974
-973
-974
-973
-973
-970
-970
-968
-965
-962
-960
-957
-957
-957
-955
-953
-955
-960
-962
-961
-959
-961
-962
-960
-959
-959
-959
-960
-961
-962
-963
-968
-970
-972
-970
-973
-974
-974
-973
-970
-970
-971
-970
-970
-969
-967
-965
-962
-958
-944
-922
-893
-858
-829
-839
-855
-872
-896
-917
-955
-997
-1026
-1048
-1047
-1025
-1001
-983
-973
-969
-967
-965
-962
-960
-960
-959
-957
-958
-956
-957
-957
-958
-954
-950
-952
-953
-953
-949
-947
-946
-944
-943
-941
-940
-939
-936
-934
-933
-931
-924
-920
-917
-914
-910
-909
-905
-897
-891
-886
-881
-875
-869
-860
-855
-849
-843
-837
-831
-826
-821
-818
-816
-813
-813
-814
-814
-814
-817
-821
-827
-833
-839
-845
-853
-862
-872
-881
-888
-897
-904
-910
-917
-923
-931
-935
-939
-943
-946
-949
-953
-954
-955
-955
-955
-956
-957
-958
-958
-957
-956
-955
-956
-956
-956
-955
-955
-953
-953
-954
-955
-955
-955
-955
-954
-953
-955
-957
-956
-955
-956
-959
-960
-960
-961
-962
-963
-965
-966
-966
-967
-968
-970
-971
-973
-974
-974
-974
-976
-978
-977
-976
-978
-978
-979
-980
-979
-980
-981
-982
-982
-982
-982
-982
-983
-983
-981
-982
-983
-983
-984
-982
-982
-982
-982
-981
-982
-983
-983
-984
-984
-983
-981
-981
-981
-982
-983
-984
-983
-981
-981
-981
-981
-981
-981
-981
-981
-980
-981
-981
-980
-979
-979
-981
-981
-981
-978
-978
-978
-976
-974
-972
-969
-967
-965
-965
-962
-961
-961
-965
-968
-969
-968
-970
-970
-969
-966
-966
-968
-968
-968
-967
-968
-974
-978
-980
-980
-976
-979
-980
-981
-982
-981
-979
-979
-979
-977
-975
-976
-974
-970
-966
-952
-927
-896
-862
-835
-843
-858
-875
-898
-922
-960
-1002
-1035
-1057
-1057
-1036
-1009
-988
-981
-976
-975
-974
-973
-970
-969
-968
-968
-967
-965
-965
-964
-963
-963
-963
-962
-960
-959
-957
-957
-955
-953
-952
-949
-949
-946
-943
-942
-941
-936
-935
-931
-927
-922
-919
-914
-910
-905
-898
-892
-885
-879
-875
-868
-860
-853
-849
-843
-836
-831
-828
-825
-823
-821
-820
-820
-821
-823
-828
-830
-834
-840
-845
-853
-860
-871
-881
-886
-892
-903
-911
-918
-924
-932
-937
-940
-945
-948
-950
-953
-953
-955
-957
-960
-961
-961
-961
-961
-961
-961
-960
-959
-959
-959
-959
-957
-958
-959
-959
-958
-957
-957
-958
-959
-958
-959
-960
-958
-959
-959
-961
-962
-965
-965
-967
-969
-970
-969
-970
-972
-973
-974
-975
-976
-978
-980
-980
-982
-984
-982
-981
-983
-984
-985
-985
-986
-986
-987
-986
-984
-984
-985
-985
-986
-986
-985
-985
-986
-985
-985
-986
-986
-987
-986
-986
-987
-988
-985
-985
-985
-986
-987
-986
-985
-985
-985
-985
-984
-984
-985
-985
-984
-983
-984
-984
-984
-984
-982
-981
-982
-983
-981
-981
-979
-979
-978
-976
-974
-970
-968
-967
-966
-963
-961
-961
-963
-969
-972
-968
-967
-970
-971
-968
-967
-966
-968
-968
-966
-968
-971
-976
-978
-980
-979
-978
-979
-980
-980
-980
-979
-979
-978
-976
-974
-974
-973
-972
-968
-957
-936
-908
-875
-840
-839
-853
-869
-891
-911
-943
-986
-1021
-1046
-1056
-1039
-1013
-994
-982
-975
-973
-970
-966
-964
-963
-965
-965
-963
-962
-961
-960
-959
-958
-958
-959
-958
-956
-955
-953
-952
-949
-948
-948
-944
-944
-942
-941
-939
-935
-930
-927
-927
-922
-917
-914
-910
-905
-896
-890
-884
-879
-873
-866
-860
-856
-849
-842
-836
-831
-830
-826
-823
-822
-822
-823
-821
-824
-826
-830
-836
-840
-849
-855
-862
-875
-881
-888
-895
-903
-913
-921
-928
-932
-938
-943
-944
-949
-953
-955
-958
-959
-959
-961
-961
-960
-959
-960
-961
-960
-960
-960
-960
-960
-959
-961
-961
-960
-961
-959
-957
-958
-959
-959
-957
-960
-961
-960
-960
-961
-963
-966
-966
-966
-969
-969
-969
-972
-974
-972
-973
-975
-976
-975
-978
-979
-979
-979
-979
-980
-980
-982
-983
-982
-982
-983
-983
-984
-984
-983
-982
-982
-985
-983
-982
-984
-985
-984
-983
-982
-984
-983
-981
-982
-984
-985
-985
-984
-983
-981
-982
-983
-984
-983
-981
-980
-980
-982
-981
-981
-982
-981
-979
-981
-981
-982
-979
-978
-978
-978
-974
-969
-967
-966
-965
-966
-965
-963
-965
-969
-970
-970
-969
-969
-969
-968
-966
-969
-969
-967
-966
-966
-971
-976
-976
-979
-980
-980
-979
-980
-981
-980
-979
-979
-979
-978
-975
-974
-974
-973
-968
-957
-939
-912
-879
-842
-806
-811
-828
-847
-877
-911
-955
-1005
-1039
-1052
-1044
-1030
-1011
-994
-982
-978
-974
-972
-971
-969
-968
-969
-969
-966
-963
-965
-966
-966
-963
-962
-962
-961
-961
-959
-957
-956
-956
-954
-953
-950
-949
-948
-945
-944
-942
-940
-936
-931
-930
-927
-922
-918
-912
-908
-905
-900
-892
-888
-883
-878
-872
-866
-862
-857
-853
-851
-849
-846
-845
-845
-847
-846
-847
-849
-852
-856
-861
-866
-873
-878
-883
-890
-897
-904
-910
-917
-922
-928
-931
-933
-937
-942
-945
-946
-947
-949
-949
-949
-950
-952
-952
-950
-950
-950
-950
-949
-949
-949
-949
-948
-947
-946
-946
-946
-945
-943
-944
-946
-946
-946
-946
-947
-948
-947
-948
-948
-948
-949
-950
-952
-953
-953
-955
-957
-957
-957
-959
-962
-962
-963
-964
-963
-965
-966
-967
-968
-969
-969
-969
-969
-970
-972
-972
-970
-972
-972
-973
-973
-974
-974
-973
-973
-973
-974
-974
-974
-976
-976
-975
-975
-975
-974
-974
-974
-975
-974
-975
-973
-973
-974
-974
-974
-972
-973
-973
-974
-974
-974
-973
-972
-970
-970
-970
-967
-963
-961
-960
-958
-957
-958
-956
-956
-959
-960
-963
-963
-962
-965
-965
-963
-962
-963
-962
-964
-964
-967
-968
-971
-973
-974
-975
-973
-974
-974
-975
-976
-975
-974
-974
-973
-970
-971
-969
-966
-961
-947
-922
-892
-857
-832
-847
-864
-881
-901
-923
-961
-1002
-1030
-1046
-1046
-1025
-1001
-983
-974
-970
-968
-966
-963
-963
-962
-961
-960
-957
-959
-961
-957
-956
-955
-954
-954
-954
-952
-952
-948
-947
-946
-947
-943
-942
-937
-934
-932
-930
-927
-924
-920
-916
-911
-908
-903
-897
-892
-886
-881
-875
-868
-862
-853
-849
-842
-836
-829
-823
-818
-814
-814
-810
-808
-808
-807
-808
-812
-816
-820
-823
-828
-836
-846
-856
-866
-873
-882
-891
-899
-907
-916
-922
-927
-931
-935
-938
-941
-944
-949
-952
-952
-952
-952
-953
-955
-956
-957
-955
-955
-955
-956
-956
-955
-955
-953
-953
-953
-953
-953
-952
-952
-951
-949
-951
-950
-949
-948
-948
-950
-952
-954
-955
-956
-955
-955
-957
-958
-958
-959
-960
-961
-962
-964
-966
-967
-966
-965
-966
-969
-971
-972
-970
-969
-971
-970
-972
-974
-973
-970
-972
-973
-974
-973
-973
-972
-974
-974
-973
-975
-975
-974
-974
-973
-974
-974
-974
-973
-975
-974
-974
-974
-974
-974
-974
-974
-973
-972
-973
-974
-974
-974
-974
-971
-972
-971
-968
-963
-963
-961
-959
-959
-957
-954
-953
-955
-959
-962
-962
-960
-963
-966
-962
-960
-961
-962
-962
-961
-961
-963
-969
-973
-972
-972
-973
-975
-974
-972
-973
-973
-970
-970
-969
-969
-969
-969
-966
-960
-952
-935
-908
-876
-839
-830
-844
-860
-879
-902
-926
-969
-1009
-1036
-1050
-1041
-1017
-994
-979
-973
-969
-966
-963
-962
-961
-961
-959
-959
-958
-957
-955
-957
-955
-954
-953
-954
-954
-953
-949
-948
-947
-946
-944
-941
-939
-939
-936
-933
-931
-930
-926
-920
-918
-914
-910
-907
-901
-896
-891
-885
-877
-869
-865
-859
-851
-843
-838
-831
-826
-821
-819
-818
-814
-810
-810
-811
-813
-816
-818
-823
-829
-836
-842
-851
-859
-868
-877
-886
-896
-904
-910
-919
-928
-933
-936
-939
-944
-948
-950
-952
-953
-954
-955
-956
-957
-957
-957
-959
-959
-958
-957
-958
-958
-957
-957
-958
-957
-957
-956
-958
-957
-955
-956
-954
-952
-954
-956
-955
-954
-954
-956
-957
-958
-958
-960
-961
-960
-959
-961
-963
-965
-966
-968
-969
-970
-970
-970
-971
-972
-972
-973
-973
-975
-976
-976
-976
-976
-978
-978
-978
-979
-979
-981
-980
-977
-978
-978
-979
-978
-979
-979
-980
-979
-980
-979
-978
-979
-980
-979
-979
-979
-979
-978
-979
-978
-978
-977
-979
-978
-979
-977
-975
-975
-976
-975
-973
-970
-968
-966
-963
-961
-960
-962
-958
-959
-962
-966
-967
-966
-967
-969
-968
-964
-962
-961
-960
-962
-962
-966
-973
-975
-976
-979
-978
-979
-980
-978
-976
-978
-978
-979
-976
-974
-974
-973
-970
-967
-961
-944
-918
-888
-851
-833
-849
-865
-880
-898
-921
-961
-1005
-1036
-1057
-1054
-1028
-1006
-989
-982
-976
-974
-972
-970
-970
-970
-969
-969
-968
-966
-965
-965
-963
-962
-961
-960
-958
-959
-959
-957
-955
-952
-950
-948
-946
-944
-944
-943
-940
-936
-934
-930
-924
-921
-917
-914
-909
-904
-897
-891
-886
-881
-875
-866
-860
-853
-847
-844
-840
-834
-830
-827
-827
-825
-825
-825
-825
-826
-829
-835
-840
-845
-853
-862
-871
-879
-888
-897
-905
-914
-923
-931
-936
-938
-943
-950
-955
-956
-958
-959
-961
-961
-961
-963
-965
-966
-967
-966
-966
-965
-966
-965
-965
-965
-963
-963
-962
-961
-960
-962
-963
-962
-962
-963
-962
-962
-961
-963
-966
-966
-966
-965
-966
-966
-968
-971
-970
-970
-970
-973
-973
-975
-976
-976
-976
-978
-978
-981
-981
-979
-981
-983
-983
-982
-982
-982
-983
-984
-984
-984
-984
-984
-983
-985
-986
-985
-985
-985
-985
-985
-985
-985
-986
-985
-984
-983
-984
-983
-983
-983
-981
-976
-973
-970
-970
-969
-969
-966
-965
-968
-972
-975
-973
-970
-972
-974
-972
-970
-972
-970
-968
-969
-969
-972
-979
-981
-981
-980
-979
-981
-982
-982
-982
-981
-981
-980
-979
-979
-976
-974
-972
-970
-965
-948
-923
-894
-862
-822
-814
-830
-844
-866
-898
-938
-988
-1030
-1052
-1053
-1039
-1023
-1005
-989
-980
-975
-973
-971
-970
-969
-966
-967
-968
-967
-967
-966
-967
-964
-961
-963
-963
-961
-959
-957
-957
-957
-955
-953
-950
-950
-950
-946
-946
-946
-944
-940
-937
-935
-931
-927
-923
-923
-921
-918
-911
-905
-902
-898
-893
-886
-881
-875
-871
-869
-865
-859
-857
-855
-853
-853
-853
-851
-853
-854
-857
-862
-866
-871
-875
-881
-889
-892
-901
-907
-912
-921
-928
-934
-937
-940
-942
-944
-950
-953
-955
-955
-955
-957
-958
-957
-955
-955
-958
-958
-957
-956
-955
-955
-953
-953
-952
-952
-952
-950
-949
-948
-947
-949
-948
-949
-948
-949
-952
-952
-952
-952
-950
-952
-954
-953
-956
-959
-959
-959
-958
-959
-961
-964
-962
-962
-965
-965
-965
-965
-967
-966
-968
-969
-969
-966
-968
-969
-969
-969
-970
-971
-969
-969
-970
-971
-970
-972
-973
-974
-972
-969
-970
-972
-974
-973
-970
-970
-970
-970
-972
-972
-969
-966
-967
-965
-961
-957
-957
-959
-957
-956
-953
-957
-962
-962
-961
-961
-963
-965
-962
-960
-961
-962
-961
-959
-958
-962
-969
-972
-972
-972
-970
-972
-974
-974
-972
-970
-970
-970
-971
-971
-970
-969
-966
-960
-949
-930
-904
-872
-838
-836
-852
-870
-892
-914
-948
-988
-1018
-1038
-1041
-1024
-1004
-986
-978
-974
-970
-968
-967
-967
-966
-962
-962
-961
-961
-961
-961
-960
-959
-957
-956
-956
-955
-953
-953
-952
-952
-952
-947
-944
-942
-938
-937
-933
-931
-930
-927
-923
-918
-914
-911
-907
-902
-896
-891
-884
-879
-873
-867
-862
-855
-850
-844
-840
-836
-832
-828
-827
-827
-826
-826
-827
-830
-831
-836
-842
-847
-853
-862
-869
-879
-886
-894
-901
-908
-917
-923
-929
-933
-936
-940
-943
-948
-952
-953
-955
-955
-956
-957
-957
-955
-955
-956
-956
-955
-953
-954
-954
-953
-953
-953
-952
-950
-949
-949
-950
-949
-948
-947
-948
-949
-949
-950
-952
-952
-953
-952
-952
-952
-953
-955
-955
-955
-956
-957
-958
-959
-960
-962
-963
-963
-962
-963
-963
-965
-966
-965
-965
-968
-968
-966
-968
-969
-970
-969
-969
-968
-968
-968
-968
-968
-968
-968
-968
-968
-968
-968
-969
-970
-969
-969
-967
-968
-969
-969
-968
-969
-969
-969
-968
-967
-966
-966
-965
-965
-961
-957
-955
-951
-950
-949
-948
-948
-947
-951
-955
-960
-957
-955
-957
-958
-957
-958
-959
-958
-957
-958
-957
-959
-966
-969
-969
-970
-970
-970
-972
-973
-973
-973
-972
-970
-969
-968
-968
-967
-966
-961
-950
-928
-899
-869
-846
-853
-870
-890
-909
-927
-968
-1012
-1039
-1055
-1049
-1023
-1001
-986
-975
-971
-967
-965
-963
-965
-963
-961
-961
-961
-961
-960
-960
-962
-962
-957
-953
-953
-952
-953
-952
-948
-948
-947
-946
-944
-942
-939
-936
-933
-933
-929
-927
-922
-916
-910
-905
-901
-896
-890
-884
-878
-872
-865
-857
-853
-847
-840
-836
-833
-827
-823
-820
-820
-821
-820
-821
-821
-825
-830
-834
-843
-848
-855
-864
-871
-879
-888
-897
-907
-914
-923
-927
-930
-934
-940
-944
-947
-950
-953
-953
-956
-959
-957
-957
-959
-960
-962
-960
-960
-963
-963
-961
-959
-959
-961
-961
-958
-956
-958
-957
-958
-959
-957
-957
-959
-960
-960
-960
-961
-960
-961
-962
-962
-963
-964
-963
-965
-966
-967
-968
-968
-969
-971
-970
-970
-972
-973
-973
-975
-975
-976
-976
-975
-975
-976
-977
-978
-978
-978
-978
-978
-979
-980
-980
-979
-980
-980
-979
-980
-979
-979
-979
-979
-979
-980
-978
-978
-979
-978
-976
-975
-977
-976
-977
-976
-976
-975
-976
-976
-975
-974
-974
-973
-971
-968
-967
-962
-959
-955
-953
-955
-955
-953
-955
-959
-966
-965
-961
-965
-967
-964
-962
-963
-965
-965
-965
-963
-968
-975
-978
-976
-976
-978
-981
-981
-979
-980
-979
-980
-980
-979
-978
-975
-974
-970
-965
-948
-926
-897
-866
-865
-884
-903
-920
-936
-958
-1000
-1037
-1059
-1063
-1046
-1018
-997
-985
-980
-975
-972
-970
-970
-970
-970
-970
-966
-965
-963
-965
-965
-963
-962
-961
-960
-957
-956
-956
-956
-953
-952
-949
-947
-947
-945
-942
-940
-937
-934
-931
-927
-924
-918
-914
-909
-904
-898
-892
-887
-879
-873
-869
-862
-855
-848
-840
-836
-832
-827
-826
-823
-821
-821
-821
-821
-823
-827
-830
-834
-840
-849
-857
-866
-872
-881
-892
-901
-907
-914
-918
-927
-933
-937
-942
-946
-949
-952
-953
-957
-957
-958
-960
-960
-960
-960
-961
-960
-960
-960
-961
-961
-961
-960
-959
-959
-957
-959
-960
-959
-957
-957
-959
-960
-961
-960
-961
-961
-961
-962
-965
-967
-969
-969
-969
-971
-972
-974
-974
-974
-975
-976
-978
-979
-979
-978
-981
-982
-983
-983
-982
-982
-983
-985
-985
-984
-984
-986
-988
-987
-987
-988
-987
-987
-988
-988
-989
-988
-986
-986
-987
-986
-986
-986
-987
-987
-987
-987
-987
-987
-987
-987
-987
-986
-986
-986
-986
-986
-985
-984
-985
-987
-986
-984
-984
-983
-983
-984
-979
-974
-970
-968
-968
-968
-966
-963
-968
-971
-974
-973
-971
-972
-973
-970
-972
-972
-974
-974
-974
-973
-976
-985
-985
-986
-985
-986
-987
-988
-987
-986
-987
-987
-986
-984
-983
-981
-981
-979
-975
-968
-950
-924
-895
-865
-868
-885
-901
-920
-939
-961
-1005
-1041
-1063
-1073
-1062
-1035
-1011
-998
-989
-982
-979
-977
-976
-975
-975
-973
-973
-972
-972
-970
-970
-969
-969
-968
-967
-966
-965
-963
-961
-959
-959
-957
-955
-953
-952
-948
-946
-942
-940
-937
-935
-933
-929
-922
-917
-912
-908
-904
-898
-892
-884
-879
-873
-866
-860
-853
-848
-844
-840
-836
-834
-833
-833
-830
-831
-832
-834
-839
-844
-849
-853
-858
-866
-875
-884
-891
-898
-907
-914
-921
-929
-934
-937
-943
-946
-950
-953
-955
-957
-960
-961
-961
-963
-963
-965
-967
-965
-962
-959
-960
-961
-960
-957
-958
-959
-957
-958
-959
-960
-961
-960
-958
-960
-960
-960
-961
-963
-964
-965
-965
-965
-968
-970
-971
-971
-970
-972
-973
-975
-975
-975
-978
-979
-980
-979
-979
-979
-980
-981
-980
-982
-983
-984
-982
-981
-982
-983
-983
-982
-982
-982
-983
-982
-983
-983
-982
-981
-983
-984
-986
-986
-982
-979
-980
-981
-981
-981
-981
-979
-980
-981
-982
-980
-976
-976
-978
-977
-978
-976
-976
-976
-976
-978
-976
-974
-973
-973
-971
-969
-965
-961
-959
-959
-959
-956
-953
-955
-960
-962
-961
-959
-959
-960
-959
-959
-962
-961
-962
-963
-963
-968
-972
-972
-975
-974
-974
-975
-974
-973
-974
-974
-974
-973
-972
-970
-969
-968
-967
-962
-950
-927
-898
-866
-832
-827
-844
-861
-879
-901
-935
-985
-1023
-1049
-1059
-1044
-1021
-999
-987
-978
-971
-967
-967
-966
-963
-962
-961
-961
-962
-959
-958
-959
-959
-957
-955
-954
-953
-953
-952
-950
-949
-948
-946
-943
-942
-939
-938
-935
-933
-930
-927
-923
-918
-918
-915
-912
-905
-901
-895
-893
-888
-882
-877
-870
-865
-860
-857
-853
-849
-844
-840
-836
-836
-836
-836
-836
-836
-839
-840
-843
-846
-853
-857
-862
-868
-873
-879
-888
-895
-901
-907
-914
-920
-926
-929
-932
-935
-937
-940
-941
-942
-943
-944
-943
-943
-943
-943
-945
-944
-944
-944
-944
-945
-944
-943
-944
-944
-944
-945
-946
-945
-944
-945
-945
-946
-947
-948
-950
-953
-953
-955
-957
-958
-957
-957
-957
-959
-959
-961
-965
-967
-963
-963
-966
-969
-969
-969
-969
-969
-970
-971
-971
-969
-969
-970
-970
-969
-969
-970
-970
-972
-970
-971
-970
-970
-970
-970
-971
-970
-970
-972
-973
-973
-972
-971
-970
-971
-971
-970
-972
-972
-970
-970
-969
-968
-966
-967
-963
-962
-959
-956
-954
-953
-953
-950
-950
-956
-961
-960
-958
-957
-959
-957
-958
-959
-959
-957
-956
-957
-960
-968
-970
-970
-972
-972
-972
-974
-973
-973
-970
-971
-970
-969
-968
-966
-967
-965
-955
-935
-910
-883
-853
-840
-856
-878
-896
-917
-946
-992
-1028
-1052
-1062
-1046
-1021
-998
-982
-973
-969
-967
-965
-963
-963
-961
-960
-960
-958
-957
-956
-956
-955
-953
-953
-953
-952
-952
-950
-948
-945
-944
-943
-941
-939
-935
-934
-933
-930
-927
-922
-919
-914
-911
-908
-904
-899
-893
-888
-884
-879
-871
-866
-860
-855
-847
-841
-838
-835
-832
-829
-827
-826
-826
-827
-829
-829
-832
-838
-843
-847
-852
-858
-866
-875
-883
-891
-898
-905
-911
-916
-921
-926
-932
-935
-937
-939
-941
-944
-946
-946
-946
-947
-945
-946
-948
-948
-948
-948
-946
-947
-944
-947
-947
-946
-947
-948
-947
-944
-945
-946
-946
-947
-949
-950
-952
-952
-953
-955
-955
-956
-957
-958
-960
-961
-964
-965
-965
-963
-966
-968
-969
-968
-969
-971
-970
-970
-971
-972
-974
-974
-974
-974
-972
-972
-974
-975
-975
-974
-974
-974
-975
-975
-974
-974
-974
-975
-975
-975
-975
-974
-973
-974
-974
-975
-976
-975
-974
-974
-975
-976
-976
-975
-974
-975
-974
-974
-972
-971
-969
-966
-965
-961
-957
-956
-955
-956
-953
-953
-958
-963
-963
-962
-960
-963
-963
-961
-961
-961
-963
-963
-962
-965
-970
-974
-974
-975
-976
-975
-977
-977
-976
-976
-976
-976
-975
-973
-973
-972
-972
-969
-958
-935
-905
-878
-851
-856
-878
-896
-912
-930
-960
-1005
-1043
-1064
-1066
-1044
-1020
-997
-984
-976
-974
-973
-971
-969
-966
-964
-966
-966
-968
-966
-966
-963
-962
-961
-961
-962
-962
-961
-958
-955
-952
-950
-950
-950
-949
-948
-944
-940
-936
-934
-931
-929
-924
-918
-914
-907
-901
-899
-894
-888
-882
-877
-871
-865
-857
-851
-847
-842
-838
-834
-832
-830
-829
-829
-830
-831
-831
-832
-839
-843
-849
-853
-858
-867
-875
-884
-891
-898
-904
-911
-917
-926
-932
-935
-939
-942
-945
-948
-950
-953
-954
-954
-954
-953
-954
-953
-953
-953
-953
-953
-955
-953
-953
-950
-952
-953
-952
-952
-950
-949
-950
-952
-953
-953
-953
-955
-955
-957
-958
-959
-958
-960
-963
-963
-965
-966
-966
-968
-968
-968
-969
-971
-972
-974
-974
-974
-974
-974
-973
-975
-975
-975
-976
-976
-978
-978
-978
-976
-976
-977
-978
-978
-976
-978
-978
-979
-979
-977
-978
-978
-978
-978
-978
-979
-979
-977
-976
-977
-978
-978
-976
-976
-978
-978
-978
-977
-975
-972
-970
-969
-966
-961
-959
-957
-958
-956
-957
-961
-965
-965
-961
-960
-962
-963
-959
-956
-959
-960
-962
-960
-959
-961
-970
-974
-974
-974
-974
-978
-979
-979
-976
-973
-971
-970
-969
-969
-969
-970
-966
-957
-941
-914
-889
-858
-832
-845
-863
-879
-897
-916
-955
-1004
-1040
-1062
-1059
-1033
-1007
-988
-975
-967
-963
-965
-963
-963
-962
-961
-956
-955
-955
-953
-953
-953
-952
-951
-950
-949
-946
-946
-945
-944
-942
-940
-939
-937
-934
-931
-930
-927
-927
-926
-921
-914
-905
-899
-896
-892
-888
-883
-878
-871
-865
-860
-853
-846
-840
-836
-831
-827
-825
-823
-821
-820
-819
-819
-818
-820
-824
-827
-831
-836
-842
-849
-856
-864
-871
-880
-888
-897
-904
-910
-917
-923
-927
-931
-935
-940
-944
-946
-945
-948
-952
-950
-949
-952
-954
-953
-953
-953
-955
-953
-948
-946
-944
-944
-946
-947
-948
-946
-946
-948
-948
-949
-949
-949
-950
-952
-953
-955
-955
-958
-960
-961
-963
-965
-965
-965
-966
-968
-969
-968
-971
-972
-972
-972
-974
-975
-975
-976
-976
-975
-976
-978
-976
-978
-979
-979
-978
-979
-979
-980
-981
-979
-980
-981
-982
-981
-982
-981
-981
-982
-982
-981
-984
-982
-980
-979
-978
-979
-979
-979
-979
-978
-976
-974
-973
-970
-967
-965
-963
-966
-965
-962
-965
-966
-969
-969
-966
-966
-969
-967
-967
-969
-967
-966
-965
-966
-970
-978
-979
-978
-979
-980
-982
-983
-983
-982
-981
-981
-982
-982
-979
-978
-975
-974
-969
-956
-930
-899
-864
-836
-849
-865
-879
-897
-910
-942
-988
-1031
-1068
-1073
-1048
-1017
-998
-987
-982
-979
-974
-973
-972
-970
-970
-970
-969
-968
-968
-966
-966
-963
-963
-962
-961
-959
-957
-955
-954
-953
-953
-950
-948
-944
-941
-938
-937
-935
-931
-930
-928
-924
-916
-905
-901
-895
-891
-888
-883
-876
-870
-862
-855
-852
-846
-840
-836
-831
-829
-827
-826
-826
-826
-827
-830
-833
-837
-840
-845
-852
-860
-869
-877
-884
-892
-902
-908
-914
-922
-929
-934
-940
-945
-950
-952
-953
-957
-960
-961
-961
-961
-963
-965
-965
-963
-962
-961
-961
-960
-961
-961
-961
-961
-959
-959
-960
-961
-962
-961
-961
-962
-964
-965
-965
-966
-968
-969
-970
-970
-972
-974
-975
-976
-977
-978
-979
-980
-981
-982
-983
-985
-985
-985
-986
-988
-988
-988
-989
-989
-991
-992
-993
-992
-992
-992
-992
-991
-991
-989
-989
-991
-992
-992
-992
-992
-994
-992
-992
-993
-992
-992
-991
-992
-992
-992
-992
-989
-987
-987
-986
-982
-980
-976
-975
-976
-974
-972
-972
-976
-980
-980
-974
-975
-980
-978
-975
-976
-977
-976
-975
-975
-981
-987
-990
-991
-992
-992
-992
-992
-991
-989
-991
-991
-988
-986
-986
-985
-983
-979
-970
-953
-927
-894
-855
-840
-857
-875
-889
-895
-910
-954
-1004
-1052
-1079
-1060
-1028
-1006
-995
-987
-982
-979
-979
-979
-979
-978
-976
-975
-975
-974
-974
-974
-973
-972
-969
-967
-966
-966
-962
-962
-962
-961
-958
-953
-949
-948
-947
-943
-939
-937
-934
-930
-926
-920
-914
-909
-905
-899
-895
-888
-882
-877
-872
-866
-860
-853
-848
-844
-840
-838
-836
-833
-833
-831
-831
-832
-836
-840
-840
-843
-849
-853
-862
-868
-878
-885
-892
-901
-908
-915
-921
-927
-932
-937
-941
-946
-949
-952
-953
-956
-958
-959
-957
-958
-957
-958
-959
-959
-958
-958
-958
-958
-957
-957
-959
-957
-956
-953
-955
-955
-956
-957
-957
-959
-959
-961
-962
-961
-959
-961
-962
-966
-966
-968
-970
-970
-970
-971
-972
-975
-977
-976
-976
-976
-978
-976
-976
-979
-979
-980
-978
-980
-983
-983
-984
-982
-981
-981
-981
-981
-983
-982
-982
-982
-981
-982
-981
-981
-982
-982
-984
-985
-982
-983
-982
-982
-983
-981
-980
-978
-976
-973
-972
-969
-965
-966
-966
-962
-962
-965
-970
-970
-969
-969
-971
-969
-969
-970
-971
-972
-970
-970
-972
-978
-979
-981
-982
-983
-986
-985
-985
-985
-986
-984
-984
-984
-983
-981
-981
-979
-975
-966
-945
-916
-881
-842
-837
-855
-875
-896
-898
-911
-952
-1003
-1052
-1074
-1052
-1021
-996
-984
-981
-979
-978
-976
-972
-969
-969
-970
-968
-967
-967
-967
-965
-963
-963
-962
-959
-957
-959
-957
-955
-953
-952
-952
-947
-943
-942
-941
-937
-935
-931
-927
-924
-921
-918
-913
-907
-904
-899
-893
-888
-882
-875
-871
-863
-856
-851
-847
-842
-838
-836
-834
-831
-831
-831
-831
-834
-834
-836
-839
-843
-848
-853
-860
-866
-871
-878
-885
-894
-904
-910
-914
-920
-923
-929
-934
-936
-940
-942
-943
-944
-944
-945
-948
-949
-949
-948
-949
-948
-946
-946
-948
-949
-950
-948
-948
-947
-945
-946
-948
-949
-947
-946
-947
-948
-952
-953
-954
-953
-955
-955
-955
-957
-959
-961
-962
-962
-964
-966
-968
-970
-969
-970
-972
-975
-978
-978
-975
-976
-979
-977
-972
-972
-974
-973
-972
-972
-974
-974
-974
-973
-973
-976
-976
-978
-978
-976
-978
-978
-979
-980
-979
-979
-978
-978
-976
-975
-974
-972
-970
-969
-967
-963
-962
-963
-961
-959
-958
-961
-965
-965
-961
-963
-967
-966
-965
-965
-965
-966
-969
-970
-972
-976
-980
-983
-984
-985
-984
-984
-984
-985
-984
-983
-982
-982
-981
-979
-978
-978
-974
-966
-945
-916
-881
-840
-827
-838
-856
-879
-905
-931
-970
-1018
-1053
-1074
-1063
-1037
-1011
-995
-988
-983
-980
-975
-971
-971
-970
-969
-967
-968
-968
-966
-965
-963
-962
-961
-960
-959
-958
-956
-953
-952
-950
-949
-946
-943
-940
-939
-936
-933
-931
-929
-927
-922
-916
-912
-908
-904
-901
-896
-891
-885
-878
-871
-867
-860
-856
-852
-849
-843
-840
-839
-836
-834
-836
-839
-839
-840
-841
-845
-850
-853
-859
-866
-875
-882
-890
-897
-903
-908
-914
-921
-927
-931
-936
-940
-944
-947
-948
-951
-953
-956
-956
-955
-955
-956
-956
-957
-959
-959
-958
-957
-953
-953
-954
-953
-955
-955
-955
-954
-955
-956
-955
-953
-955
-957
-958
-959
-960
-962
-963
-965
-966
-966
-968
-968
-970
-970
-970
-970
-970
-972
-975
-975
-976
-975
-975
-976
-978
-978
-978
-978
-979
-980
-980
-978
-980
-980
-980
-979
-979
-979
-981
-981
-982
-981
-981
-980
-981
-981
-980
-980
-979
-976
-974
-972
-969
-966
-966
-966
-963
-966
-969
-972
-972
-970
-970
-972
-972
-969
-969
-969
-971
-970
-971
-974
-981
-985
-986
-987
-987
-985
-986
-987
-985
-986
-985
-984
-982
-982
-981
-979
-977
-975
-967
-950
-924
-892
-852
-832
-842
-858
-880
-905
-929
-968
-1014
-1050
-1073
-1065
-1040
-1014
-996
-987
-983
-980
-978
-977
-975
-974
-974
-972
-971
-970
-969
-969
-968
-967
-966
-965
-965
-962
-961
-959
-958
-955
-953
-952
-949
-949
-948
-944
-940
-939
-935
-934
-930
-926
-920
-918
-912
-907
-902
-898
-895
-888
-881
-875
-870
-866
-860
-855
-851
-847
-845
-843
-840
-840
-839
-839
-840
-840
-843
-846
-852
-857
-862
-869
-877
-884
-892
-899
-907
-914
-921
-927
-933
-937
-941
-943
-946
-949
-952
-953
-955
-955
-957
-957
-959
-959
-959
-957
-959
-957
-957
-956
-955
-953
-955
-955
-955
-955
-953
-952
-952
-953
-953
-953
-952
-953
-955
-955
-955
-953
-955
-957
-958
-960
-960
-961
-961
-961
-963
-965
-967
-968
-968
-968
-970
-970
-969
-969
-971
-972
-972
-974
-973
-974
-974
-973
-974
-976
-975
-974
-974
-975
-976
-979
-978
-976
-975
-976
-976
-976
-975
-975
-974
-973
-972
-970
-968
-965
-962
-961
-962
-961
-958
-959
-965
-968
-968
-965
-965
-967
-966
-962
-962
-962
-965
-966
-965
-966
-972
-974
-975
-978
-978
-978
-978
-978
-978
-978
-976
-976
-975
-974
-972
-972
-970
-965
-950
-927
-897
-864
-823
-814
-827
-840
-863
-892
-932
-984
-1028
-1051
-1052
-1038
-1018
-999
-985
-978
-973
-970
-969
-968
-968
-967
-966
-965
-963
-965
-965
-963
-962
-961
-959
-959
-957
-957
-955
-953
-952
-953
-950
-948
-946
-946
-945
-943
-940
-938
-937
-934
-929
-926
-922
-918
-914
-910
-907
-903
-898
-892
-885
-879
-877
-874
-868
-864
-860
-859
-857
-856
-856
-857
-859
-860
-860
-862
-866
-869
-873
-877
-884
-891
-897
-903
-909
-916
-923
-929
-933
-939
-944
-948
-950
-953
-952
-953
-955
-957
-958
-960
-960
-960
-960
-961
-959
-959
-958
-957
-957
-955
-955
-955
-955
-955
-953
-953
-953
-953
-954
-953
-953
-952
-950
-952
-953
-955
-955
-953
-953
-956
-957
-957
-959
-959
-960
-962
-962
-963
-963
-965
-966
-966
-968
-969
-969
-970
-970
-970
-970
-970
-972
-972
-972
-970
-971
-972
-970
-972
-973
-974
-972
-970
-969
-970
-968
-965
-962
-961
-961
-960
-958
-959
-962
-966
-967
-965
-963
-966
-967
-965
-965
-965
-966
-965
-963
-963
-969
-976
-978
-978
-978
-978
-978
-979
-980
-980
-979
-979
-978
-978
-978
-977
-975
-974
-969
-957
-934
-908
-876
-836
-818
-833
-854
-873
-897
-931
-974
-1014
-1043
-1050
-1037
-1018
-1002
-991
-984
-979
-975
-974
-973
-974
-973
-973
-972
-972
-970
-970
-970
-969
-968
-968
-967
-966
-965
-964
-962
-961
-960
-959
-957
-957
-955
-953
-950
-946
-944
-942
-939
-936
-933
-931
-927
-922
-918
-913
-907
-901
-896
-891
-885
-880
-876
-871
-866
-864
-860
-858
-856
-857
-857
-857
-858
-859
-863
-866
-871
-875
-883
-890
-897
-903
-909
-916
-922
-929
-935
-940
-944
-948
-953
-956
-959
-959
-960
-961
-963
-965
-966
-966
-965
-963
-963
-963
-964
-963
-963
-962
-962
-962
-961
-959
-958
-957
-957
-955
-955
-956
-955
-953
-954
-955
-953
-953
-952
-952
-953
-955
-953
-953
-954
-955
-955
-956
-957
-958
-959
-960
-961
-962
-962
-961
-962
-963
-965
-966
-966
-966
-967
-969
-969
-969
-970
-970
-969
-971
-970
-969
-969
-968
-969
-969
-969
-969
-969
-969
-969
-971
-971
-968
-968
-969
-969
-968
-967
-966
-965
-962
-960
-956
-954
-953
-953
-953
-949
-952
-956
-960
-961
-960
-960
-963
-963
-960
-960
-960
-959
-960
-960
-960
-962
-968
-969
-970
-971
-970
-970
-972
-973
-973
-973
-972
-970
-968
-969
-970
-968
-966
-961
-950
-931
-904
-872
-846
-859
-879
-897
-915
-931
-957
-992
-1021
-1039
-1046
-1027
-1004
-987
-975
-969
-965
-963
-961
-961
-961
-959
-959
-959
-959
-956
-956
-955
-953
-955
-953
-952
-950
-949
-947
-946
-945
-944
-942
-940
-937
-935
-933
-930
-927
-923
-920
-917
-915
-908
-905
-902
-896
-891
-883
-878
-871
-866
-860
-854
-846
-840
-837
-832
-827
-823
-823
-820
-819
-819
-819
-822
-825
-828
-831
-836
-840
-849
-857
-866
-875
-882
-891
-899
-907
-915
-921
-927
-931
-935
-939
-943
-944
-948
-949
-950
-949
-949
-952
-954
-955
-955
-956
-956
-955
-955
-956
-955
-953
-954
-955
-953
-955
-953
-954
-953
-953
-953
-950
-950
-952
-953
-953
-952
-950
-950
-951
-953
-953
-955
-955
-955
-955
-955
-955
-958
-960
-960
-960
-961
-961
-962
-961
-961
-962
-963
-965
-966
-967
-967
-968
-967
-968
-970
-970
-971
-972
-970
-970
-972
-972
-972
-970
-970
-972
-972
-972
-972
-972
-972
-972
-971
-972
-973
-974
-973
-974
-973
-974
-973
-972
-970
-970
-969
-968
-965
-961
-958
-955
-956
-957
-955
-954
-956
-960
-965
-963
-963
-965
-965
-963
-961
-961
-961
-963
-962
-961
-966
-972
-973
-974
-975
-975
-975
-975
-975
-976
-978
-975
-974
-972
-972
-970
-970
-970
-967
-956
-933
-905
-874
-849
-862
-875
-891
-908
-927
-956
-998
-1026
-1046
-1049
-1028
-1005
-988
-979
-972
-970
-969
-967
-966
-965
-965
-963
-963
-962
-961
-961
-959
-957
-957
-958
-958
-956
-953
-952
-950
-949
-948
-948
-944
-944
-940
-939
-937
-934
-931
-927
-926
-922
-918
-914
-908
-903
-898
-892
-886
-879
-875
-868
-860
-853
-849
-843
-839
-836
-832
-829
-826
-825
-823
-823
-825
-826
-829
-833
-840
-845
-851
-858
-866
-877
-884
-892
-901
-907
-916
-922
-927
-933
-939
-943
-946
-947
-949
-953
-955
-957
-957
-957
-958
-959
-959
-958
-959
-960
-960
-959
-957
-957
-959
-959
-959
-959
-958
-959
-959
-957
-958
-957
-957
-957
-957
-958
-958
-959
-960
-960
-960
-960
-960
-961
-961
-962
-965
-966
-967
-967
-966
-966
-968
-970
-971
-971
-970
-970
-971
-972
-973
-974
-974
-974
-975
-975
-975
-975
-976
-978
-978
-976
-978
-978
-978
-976
-976
-978
-976
-976
-978
-978
-979
-979
-979
-978
-976
-976
-979
-979
-979
-976
-976
-978
-979
-978
-978
-976
-976
-976
-976
-975
-975
-976
-975
-974
-972
-972
-970
-966
-962
-960
-959
-960
-959
-959
-961
-966
-969
-967
-965
-966
-968
-968
-967
-966
-966
-966
-966
-966
-970
-975
-976
-978
-979
-979
-980
-979
-980
-980
-979
-978
-976
-976
-975
-975
-973
-972
-968
-959
-940
-914
-879
-849
-858
-875
-888
-905
-923
-955
-997
-1028
-1049
-1050
-1030
-1006
-991
-982
-978
-974
-973
-972
-970
-970
-969
-968
-969
-967
-966
-966
-966
-965
-965
-963
-963
-961
-959
-958
-957
-956
-953
-950
-949
-948
-946
-944
-942
-940
-939
-936
-931
-927
-922
-918
-915
-910
-905
-901
-896
-890
-884
-878
-871
-865
-860
-853
-850
-845
-840
-836
-836
-834
-832
-832
-832
-832
-834
-839
-840
-845
-851
-858
-866
-875
-883
-892
-899
-906
-914
-918
-928
-933
-936
-941
-945
-948
-953
-957
-959
-961
-961
-960
-957
-959
-961
-962
-961
-960
-959
-958
-956
-957
-958
-957
-956
-957
-958
-957
-953
-953
-955
-956
-956
-953
-953
-953
-955
-956
-958
-956
-956
-957
-957
-957
-957
-958
-960
-962
-962
-963
-963
-963
-965
-966
-966
-967
-968
-969
-970
-969
-970
-970
-970
-970
-973
-972
-972
-973
-975
-975
-975
-974
-974
-975
-975
-974
-974
-974
-976
-978
-977
-978
-977
-975
-975
-974
-975
-976
-976
-975
-975
-975
-974
-974
-974
-974
-975
-974
-973
-974
-974
-975
-974
-974
-974
-974
-973
-973
-973
-972
-971
-971
-969
-968
-966
-964
-959
-957
-956
-957
-955
-953
-955
-959
-963
-962
-960
-961
-962
-962
-958
-960
-960
-961
-960
-960
-962
-968
-970
-970
-969
-969
-969
-970
-971
-971
-969
-969
-971
-969
-969
-968
-966
-965
-961
-955
-943
-922
-892
-853
-838
-852
-868
-884
-904
-921
-954
-993
-1024
-1046
-1043
-1018
-995
-979
-970
-968
-966
-963
-962
-959
-958
-958
-960
-959
-957
-957
-956
-956
-957
-955
-954
-952
-952
-950
-948
-944
-944
-943
-940
-939
-937
-936
-931
-932
-930
-927
-923
-921
-916
-914
-909
-905
-901
-896
-891
-885
-879
-872
-869
-862
-855
-849
-843
-836
-833
-830
-827
-826
-823
-823
-823
-823
-823
-826
-827
-832
-836
-843
-849
-858
-865
-873
-881
-891
-898
-905
-910
-918
-926
-929
-931
-936
-940
-944
-947
-948
-949
-952
-952
-953
-953
-954
-955
-954
-953
-953
-953
-954
-953
-953
-953
-953
-953
-953
-953
-955
-956
-953
-950
-950
-952
-953
-954
-953
-954
-955
-955
-956
-957
-957
-958
-959
-960
-961
-961
-962
-963
-963
-963
-965
-966
-968
-969
-971
-970
-970
-970
-970
-973
-973
-972
-972
-973
-974
-974
-975
-975
-976
-976
-976
-976
-975
-976
-976
-975
-974
-973
-976
-976
-975
-975
-974
-974
-974
-976
-975
-975
-976
-976
-976
-976
-975
-975
-976
-975
-975
-976
-976
-976
-975
-975
-975
-975
-974
-974
-974
-975
-974
-973
-972
-972
-970
-969
-966
-961
-959
-959
-959
-957
-956
-955
-959
-963
-965
-963
-961
-963
-965
-964
-962
-962
-963
-964
-964
-967
-972
-973
-974
-974
-974
-974
-975
-975
-976
-975
-974
-974
-973
-973
-972
-970
-969
-966
-960
-947
-924
-893
-856
-842
-856
-871
-891
-910
-922
-953
-993
-1027
-1053
-1050
-1026
-999
-983
-975
-972
-970
-966
-966
-966
-967
-965
-965
-964
-963
-962
-961
-960
-959
-959
-957
-956
-955
-956
-955
-953
-950
-948
-948
-947
-944
-942
-940
-939
-935
-931
-929
-926
-922
-918
-917
-912
-907
-901
-896
-892
-885
-879
-870
-865
-860
-855
-849
-844
-840
-836
-832
-830
-829
-829
-828
-828
-830
-832
-834
-840
-845
-852
-858
-866
-875
-882
-890
-898
-908
-916
-921
-927
-932
-937
-943
-948
-952
-953
-955
-957
-959
-959
-959
-959
-959
-960
-961
-961
-960
-961
-960
-960
-959
-959
-961
-960
-959
-957
-957
-958
-958
-959
-959
-959
-959
-959
-960
-962
-963
-965
-965
-965
-965
-966
-966
-969
-968
-968
-968
-970
-970
-970
-971
-973
-974
-974
-975
-976
-977
-975
-976
-978
-979
-979
-976
-978
-979
-979
-979
-979
-979
-978
-979
-979
-978
-979
-981
-979
-980
-979
-981
-981
-981
-982
-982
-982
-981
-981
-980
-981
-981
-981
-979
-981
-980
-979
-979
-980
-978
-978
-976
-976
-976
-977
-976
-978
-976
-975
-974
-975
-975
-975
-976
-974
-972
-970
-969
-967
-963
-960
-958
-958
-957
-955
-953
-955
-961
-965
-963
-961
-961
-962
-961
-962
-965
-965
-963
-963
-963
-967
-970
-972
-972
-972
-972
-973
-973
-973
-973
-972
-972
-972
-971
-969
-969
-968
-967
-961
-952
-934
-905
-870
-839
-845
-862
-879
-900
-909
-931
-969
-1010
-1044
-1056
-1036
-1006
-986
-974
-968
-966
-964
-962
-961
-960
-959
-958
-958
-957
-956
-957
-956
-956
-955
-952
-950
-950
-949
-948
-946
-946
-944
-941
-939
-937
-935
-934
-932
-929
-925
-923
-922
-917
-912
-910
-905
-901
-896
-891
-884
-879
-875
-870
-862
-856
-852
-847
-844
-840
-836
-831
-829
-827
-827
-827
-830
-830
-832
-834
-839
-843
-849
-853
-859
-867
-873
-882
-890
-896
-903
-909
-917
-922
-927
-931
-935
-939
-941
-941
-943
-946
-948
-950
-951
-952
-949
-950
-950
-950
-948
-948
-947
-947
-946
-948
-948
-948
-948
-948
-948
-948
-948
-948
-948
-948
-948
-950
-951
-952
-953
-953
-955
-955
-957
-961
-962
-961
-960
-959
-961
-964
-965
-963
-965
-967
-966
-966
-967
-968
-968
-968
-969
-970
-970
-970
-972
-970
-970
-972
-972
-973
-972
-970
-972
-973
-974
-973
-974
-972
-972
-974
-975
-974
-974
-973
-974
-974
-974
-973
-973
-972
-972
-973
-974
-974
-973
-973
-974
-973
-973
-973
-973
-972
-972
-970
-972
-970
-970
-970
-970
-970
-971
-969
-968
-966
-965
-962
-959
-956
-953
-954
-953
-949
-948
-953
-959
-962
-962
-960
-959
-962
-963
-962
-963
-963
-962
-965
-965
-967
-970
-972
-973
-971
-970
-972
-974
-974
-973
-973
-970
-970
-970
-969
-967
-966
-963
-957
-947
-927
-897
-862
-845
-859
-879
-901
-922
-929
-955
-996
-1034
-1061
-1053
-1024
-995
-981
-972
-969
-966
-963
-964
-961
-960
-959
-958
-959
-958
-957
-957
-956
-956
-955
-955
-953
-954
-953
-952
-949
-948
-946
-946
-943
-941
-939
-938
-935
-933
-930
-929
-927
-922
-918
-914
-910
-907
-902
-895
-891
-887
-879
-875
-868
-865
-858
-851
-846
-843
-840
-836
-834
-832
-831
-830
-829
-829
-831
-834
-838
-840
-845
-852
-860
-866
-872
-879
-888
-897
-901
-908
-915
-920
-926
-931
-935
-939
-940
-944
-946
-946
-947
-948
-949
-950
-949
-949
-950
-950
-950
-949
-950
-949
-948
-947
-949
-948
-949
-948
-948
-950
-950
-949
-949
-949
-950
-952
-953
-953
-955
-956
-957
-957
-958
-959
-962
-962
-962
-962
-965
-967
-969
-969
-969
-969
-970
-972
-973
-973
-972
-973
-975
-974
-973
-975
-976
-975
-978
-976
-976
-976
-976
-977
-976
-979
-976
-977
-976
-978
-978
-976
-975
-976
-976
-975
-976
-976
-976
-978
-975
-975
-976
-976
-976
-976
-976
-976
-975
-974
-973
-975
-976
-976
-975
-974
-974
-974
-974
-972
-973
-972
-970
-967
-966
-963
-960
-957
-957
-956
-953
-952
-955
-959
-963
-963
-962
-961
-962
-965
-965
-967
-967
-967
-969
-969
-969
-973
-975
-976
-976
-975
-975
-978
-976
-978
-976
-976
-975
-974
-976
-975
-972
-969
-967
-960
-943
-918
-884
-852
-862
-884
-901
-921
-930
-944
-982
-1021
-1059
-1072
-1050
-1021
-996
-985
-980
-975
-972
-970
-969
-969
-968
-968
-967
-966
-966
-966
-966
-963
-962
-962
-961
-961
-960
-959
-958
-957
-954
-953
-952
-950
-946
-944
-944
-943
-941
-937
-931
-930
-927
-924
-920
-916
-911
-907
-901
-896
-892
-886
-881
-875
-868
-864
-860
-854
-849
-844
-843
-840
-838
-836
-836
-836
-837
-836
-839
-842
-846
-852
-855
-862
-868
-875
-880
-888
-897
-904
-910
-916
-921
-928
-931
-935
-939
-942
-944
-946
-947
-949
-950
-952
-950
-953
-953
-953
-953
-952
-952
-952
-953
-953
-952
-953
-952
-950
-950
-952
-952
-952
-950
-952
-953
-953
-955
-953
-955
-957
-959
-959
-959
-959
-960
-961
-962
-963
-963
-965
-965
-966
-967
-967
-968
-969
-969
-969
-970
-970
-969
-970
-969
-970
-971
-971
-972
-972
-972
-972
-974
-974
-973
-973
-972
-971
-973
-973
-972
-973
-972
-970
-973
-974
-974
-973
-972
-973
-972
-970
-973
-971
-972
-973
-971
-970
-971
-973
-971
-970
-970
-971
-970
-970
-969
-968
-967
-966
-964
-960
-956
-953
-952
-951
-949
-947
-944
-949
-955
-957
-955
-953
-955
-956
-956
-957
-959
-960
-960
-962
-964
-966
-971
-972
-971
-970
-970
-972
-972
-973
-973
-972
-972
-970
-970
-970
-969
-966
-965
-960
-946
-921
-889
-853
-857
-879
-895
-912
-923
-938
-975
-1017
-1055
-1068
-1046
-1015
-992
-982
-976
-973
-970
-969
-967
-966
-965
-965
-966
-965
-963
-962
-962
-962
-962
-961
-958
-957
-957
-957
-957
-956
-954
-949
-947
-944
-946
-944
-941
-936
-933
-931
-928
-923
-921
-917
-912
-908
-904
-898
-894
-888
-883
-878
-871
-865
-859
-855
-852
-848
-843
-839
-837
-836
-837
-838
-839
-839
-840
-843
-845
-849
-855
-862
-868
-875
-883
-891
-898
-905
-912
-918
-926
-929
-933
-935
-940
-944
-948
-949
-950
-952
-953
-953
-953
-953
-953
-953
-954
-954
-953
-954
-955
-954
-952
-953
-950
-952
-953
-953
-953
-953
-952
-953
-953
-953
-955
-956
-955
-955
-956
-957
-959
-961
-961
-960
-962
-963
-965
-966
-967
-968
-968
-969
-969
-969
-970
-971
-970
-971
-972
-973
-973
-974
-973
-973
-974
-973
-975
-974
-974
-974
-974
-974
-975
-975
-975
-975
-975
-976
-976
-976
-976
-977
-976
-977
-976
-977
-979
-978
-976
-976
-976
-976
-976
-974
-972
-974
-973
-972
-970
-969
-966
-962
-962
-961
-960
-955
-955
-959
-963
-963
-960
-962
-965
-964
-965
-965
-963
-965
-966
-966
-967
-973
-976
-979
-979
-979
-980
-979
-981
-982
-980
-981
-980
-979
-978
-978
-976
-974
-970
-961
-942
-917
-884
-844
-827
-838
-851
-871
-900
-931
-976
-1023
-1056
-1070
-1057
-1035
-1011
-996
-988
-983
-980
-979
-976
-976
-975
-974
-974
-973
-972
-970
-970
-970
-969
-968
-969
-968
-967
-965
-963
-962
-961
-959
-959
-957
-953
-953
-952
-949
-946
-943
-941
-939
-935
-930
-927
-921
-918
-912
-907
-901
-896
-891
-885
-880
-876
-871
-869
-866
-862
-857
-856
-855
-857
-856
-857
-856
-858
-862
-866
-870
-874
-878
-883
-891
-897
-904
-909
-917
-924
-930
-936
-939
-943
-948
-950
-953
-954
-955
-957
-960
-962
-963
-960
-960
-961
-959
-957
-959
-960
-960
-957
-957
-959
-959
-957
-955
-955
-957
-958
-957
-957
-955
-957
-956
-957
-957
-959
-960
-960
-959
-959
-960
-962
-963
-963
-963
-965
-966
-967
-966
-968
-969
-970
-970
-971
-970
-972
-973
-973
-974
-973
-974
-974
-974
-974
-975
-976
-976
-976
-975
-975
-978
-979
-979
-978
-975
-976
-975
-976
-976
-975
-973
-974
-974
-973
-973
-975
-976
-975
-973
-973
-974
-973
-971
-969
-968
-967
-965
-961
-957
-955
-956
-954
-950
-950
-954
-958
-957
-953
-958
-961
-960
-957
-957
-959
-958
-957
-961
-963
-969
-972
-973
-974
-975
-974
-974
-975
-975
-975
-975
-973
-973
-972
-973
-972
-970
-966
-960
-946
-923
-892
-855
-840
-855
-870
-890
-915
-934
-970
-1011
-1044
-1066
-1064
-1038
-1009
-989
-982
-976
-973
-970
-966
-965
-965
-962
-962
-962
-962
-961
-958
-959
-959
-959
-958
-957
-955
-955
-954
-953
-950
-949
-948
-944
-942
-940
-939
-937
-934
-930
-927
-924
-923
-918
-913
-910
-905
-901
-896
-892
-886
-879
-875
-868
-862
-856
-852
-847
-844
-842
-838
-836
-836
-836
-836
-838
-839
-839
-840
-844
-849
-855
-862
-868
-875
-884
-893
-900
-905
-911
-918
-926
-929
-933
-937
-940
-941
-945
-948
-952
-952
-952
-953
-955
-955
-953
-953
-955
-955
-954
-954
-953
-953
-953
-953
-952
-950
-950
-951
-953
-953
-953
-952
-952
-951
-953
-953
-953
-955
-956
-956
-956
-958
-957
-959
-958
-958
-957
-959
-961
-961
-962
-965
-969
-969
-969
-969
-970
-969
-973
-973
-973
-971
-970
-970
-970
-969
-970
-971
-970
-970
-970
-970
-973
-974
-972
-970
-972
-972
-974
-973
-974
-971
-970
-972
-972
-973
-972
-970
-968
-964
-961
-959
-957
-955
-952
-949
-949
-953
-956
-957
-957
-959
-961
-959
-961
-963
-962
-961
-966
-969
-969
-972
-974
-977
-976
-975
-976
-976
-979
-980
-979
-977
-979
-980
-979
-976
-974
-972
-968
-960
-943
-916
-879
-853
-865
-879
-895
-918
-929
-953
-995
-1034
-1066
-1070
-1043
-1010
-989
-980
-975
-972
-971
-969
-966
-966
-966
-966
-966
-966
-963
-963
-963
-963
-962
-962
-960
-960
-960
-958
-955
-953
-952
-948
-946
-946
-945
-943
-940
-939
-936
-935
-932
-927
-923
-922
-918
-912
-909
-905
-899
-895
-892
-887
-881
-876
-871
-866
-860
-856
-853
-853
-852
-849
-847
-844
-844
-845
-847
-851
-853
-856
-860
-866
-870
-878
-885
-892
-899
-905
-912
-921
-926
-931
-936
-941
-944
-947
-950
-950
-952
-954
-956
-956
-956
-956
-958
-958
-959
-959
-960
-959
-959
-959
-957
-957
-957
-958
-957
-957
-956
-955
-955
-954
-955
-955
-954
-953
-956
-956
-955
-956
-957
-958
-960
-961
-960
-961
-961
-963
-964
-962
-963
-965
-968
-966
-966
-966
-968
-966
-967
-969
-969
-969
-970
-970
-969
-970
-970
-971
-971
-970
-970
-972
-973
-973
-970
-969
-970
-969
-967
-968
-966
-963
-961
-959
-956
-953
-952
-949
-948
-950
-955
-957
-956
-956
-958
-959
-959
-961
-961
-964
-966
-967
-972
-972
-975
-979
-979
-978
-980
-980
-980
-981
-981
-981
-979
-978
-978
-978
-976
-974
-972
-966
-953
-929
-895
-863
-866
-889
-904
-924
-933
-946
-984
-1022
-1059
-1072
-1051
-1018
-995
-985
-981
-979
-975
-972
-972
-972
-972
-968
-968
-970
-970
-970
-968
-967
-966
-966
-963
-961
-962
-962
-961
-960
-958
-957
-953
-952
-953
-950
-948
-946
-941
-939
-939
-935
-931
-927
-923
-918
-916
-912
-905
-901
-897
-892
-888
-881
-878
-875
-870
-867
-864
-862
-862
-859
-858
-858
-859
-859
-861
-862
-865
-868
-873
-879
-884
-891
-898
-905
-911
-918
-926
-928
-931
-935
-941
-945
-946
-948
-950
-953
-953
-955
-956
-958
-957
-957
-957
-958
-957
-958
-957
-958
-957
-958
-956
-956
-956
-957
-957
-955
-953
-953
-953
-953
-955
-955
-955
-955
-956
-955
-955
-956
-959
-960
-959
-958
-957
-959
-961
-960
-961
-963
-965
-965
-964
-965
-967
-965
-966
-965
-965
-967
-968
-969
-967
-968
-966
-967
-967
-967
-966
-968
-968
-967
-965
-961
-960
-957
-956
-953
-950
-950
-950
-948
-948
-950
-953
-953
-952
-951
-953
-954
-952
-954
-956
-957
-957
-958
-960
-966
-969
-970
-970
-969
-969
-970
-970
-968
-969
-970
-969
-968
-967
-965
-963
-960
-957
-948
-927
-901
-866
-827
-820
-837
-848
-866
-892
-929
-980
-1028
-1060
-1066
-1049
-1024
-998
-983
-976
-972
-969
-967
-966
-967
-966
-965
-964
-961
-959
-957
-958
-957
-956
-955
-955
-954
-953
-949
-950
-950
-947
-945
-942
-941
-940
-937
-936
-934
-933
-930
-926
-923
-921
-918
-914
-910
-904
-899
-895
-890
-884
-879
-875
-870
-866
-864
-859
-855
-853
-852
-852
-851
-849
-849
-851
-853
-855
-858
-862
-866
-871
-877
-884
-891
-895
-901
-909
-915
-918
-923
-927
-930
-934
-937
-941
-944
-944
-944
-946
-948
-948
-949
-949
-949
-949
-948
-948
-948
-950
-949
-948
-946
-947
-946
-945
-946
-944
-945
-943
-943
-944
-943
-944
-946
-949
-949
-950
-950
-949
-950
-953
-953
-953
-953
-955
-954
-956
-957
-958
-958
-959
-960
-962
-962
-964
-963
-965
-964
-963
-965
-965
-965
-965
-966
-967
-966
-966
-967
-967
-967
-966
-966
-967
-966
-965
-963
-960
-958
-955
-955
-952
-952
-950
-948
-948
-952
-955
-955
-955
-955
-955
-953
-954
-956
-956
-957
-958
-961
-963
-968
-971
-972
-973
-972
-972
-975
-975
-974
-974
-974
-973
-973
-974
-972
-971
-971
-966
-955
-935
-907
-871
-858
-876
-897
-920
-939
-943
-967
-1005
-1040
-1065
-1057
-1026
-997
-982
-975
-972
-969
-968
-968
-966
-965
-962
-961
-962
-961
-962
-959
-957
-957
-957
-958
-956
-954
-952
-950
-950
-950
-948
-946
-945
-944
-943
-940
-936
-935
-933
-930
-927
-924
-921
-916
-910
-906
-904
-901
-897
-889
-883
-878
-872
-868
-864
-858
-855
-853
-849
-846
-845
-844
-845
-845
-845
-845
-847
-851
-855
-858
-862
-870
-877
-885
-892
-899
-907
-914
-921
-924
-927
-934
-938
-941
-946
-948
-950
-950
-952
-955
-955
-957
-956
-956
-957
-957
-959
-957
-959
-959
-958
-959
-959
-959
-959
-957
-957
-956
-956
-955
-955
-957
-957
-956
-956
-956
-958
-958
-957
-958
-961
-962
-962
-965
-965
-966
-966
-967
-967
-967
-968
-970
-970
-971
-971
-970
-972
-973
-974
-974
-975
-976
-975
-975
-976
-976
-978
-976
-976
-978
-978
-979
-976
-976
-975
-975
-974
-972
-970
-968
-965
-963
-963
-961
-960
-963
-966
-969
-967
-966
-968
-969
-969
-969
-969
-970
-970
-972
-974
-976
-980
-983
-984
-985
-986
-987
-986
-985
-986
-986
-985
-984
-984
-982
-982
-981
-979
-976
-966
-949
-926
-893
-858
-853
-862
-875
-892
-915
-944
-986
-1025
-1050
-1063
-1053
-1033
-1009
-994
-986
-983
-981
-979
-979
-977
-974
-974
-974
-973
-972
-970
-969
-970
-969
-968
-966
-966
-965
-963
-963
-961
-960
-957
-955
-954
-953
-952
-948
-946
-944
-942
-940
-936
-933
-930
-927
-924
-919
-916
-914
-909
-902
-897
-892
-888
-883
-879
-876
-873
-870
-866
-866
-865
-864
-862
-862
-864
-865
-866
-870
-873
-878
-882
-888
-892
-898
-906
-913
-918
-923
-929
-933
-938
-943
-948
-952
-953
-955
-956
-959
-960
-961
-962
-963
-963
-963
-963
-965
-965
-965
-965
-963
-963
-962
-961
-962
-961
-961
-961
-961
-960
-958
-956
-957
-959
-958
-958
-958
-957
-959
-959
-958
-959
-961
-962
-963
-963
-965
-966
-967
-968
-968
-968
-969
-970
-970
-970
-970
-972
-971
-972
-972
-973
-974
-975
-975
-974
-975
-975
-975
-975
-975
-976
-975
-972
-971
-968
-969
-965
-962
-961
-961
-960
-959
-961
-963
-966
-967
-965
-967
-970
-969
-968
-969
-969
-967
-966
-967
-969
-976
-980
-980
-979
-980
-982
-983
-983
-984
-985
-986
-983
-981
-981
-982
-981
-981
-979
-971
-953
-927
-894
-858
-853
-866
-883
-905
-930
-955
-995
-1028
-1051
-1063
-1050
-1024
-1001
-988
-983
-979
-976
-975
-975
-974
-973
-972
-970
-970
-970
-969
-967
-966
-966
-966
-965
-962
-962
-959
-957
-956
-955
-955
-952
-952
-948
-946
-943
-941
-939
-935
-931
-927
-925
-920
-916
-910
-905
-901
-896
-892
-888
-881
-875
-869
-864
-859
-856
-853
-851
-850
-848
-844
-844
-845
-845
-847
-850
-854
-858
-863
-868
-875
-882
-891
-899
-907
-914
-920
-926
-933
-938
-941
-944
-948
-952
-954
-955
-958
-957
-959
-959
-960
-961
-961
-962
-963
-963
-962
-962
-963
-963
-963
-962
-962
-962
-962
-962
-961
-960
-961
-960
-959
-959
-959
-957
-958
-958
-960
-961
-961
-962
-962
-962
-963
-962
-962
-963
-966
-967
-968
-968
-967
-968
-970
-970
-970
-970
-970
-970
-971
-970
-971
-970
-970
-972
-972
-972
-973
-973
-972
-972
-973
-974
-973
-973
-973
-974
-974
-972
-972
-972
-970
-969
-967
-963
-961
-961
-961
-960
-958
-957
-964
-967
-965
-963
-966
-967
-966
-965
-963
-964
-963
-965
-966
-970
-975
-975
-976
-979
-980
-979
-979
-979
-978
-979
-979
-978
-978
-978
-976
-974
-972
-969
-957
-936
-907
-872
-856
-870
-884
-905
-927
-943
-974
-1010
-1038
-1058
-1053
-1027
-1004
-988
-980
-975
-974
-972
-970
-970
-968
-967
-966
-966
-966
-963
-963
-962
-962
-962
-962
-959
-958
-957
-953
-953
-952
-952
-949
-947
-944
-941
-939
-935
-933
-930
-927
-923
-921
-917
-911
-907
-901
-896
-892
-888
-881
-875
-869
-864
-858
-853
-849
-845
-842
-839
-836
-834
-833
-834
-834
-834
-838
-840
-843
-846
-854
-862
-868
-877
-884
-892
-901
-908
-916
-921
-927
-934
-939
-943
-944
-948
-950
-952
-954
-953
-956
-958
-958
-957
-959
-960
-960
-960
-960
-962
-962
-962
-961
-961
-961
-960
-959
-960
-960
-959
-961
-960
-957
-955
-957
-959
-958
-957
-959
-959
-960
-960
-960
-961
-961
-961
-963
-963
-963
-965
-966
-967
-967
-968
-969
-969
-969
-969
-970
-970
-970
-972
-971
-972
-973
-973
-973
-972
-974
-975
-975
-975
-975
-975
-976
-976
-975
-975
-975
-975
-974
-974
-974
-974
-975
-974
-973
-974
-971
-969
-967
-965
-963
-961
-961
-959
-959
-961
-966
-969
-968
-964
-966
-967
-966
-965
-965
-964
-963
-965
-966
-966
-972
-975
-976
-978
-976
-978
-979
-980
-980
-979
-979
-978
-978
-978
-979
-975
-974
-973
-969
-960
-942
-918
-888
-854
-826
-833
-844
-856
-879
-910
-955
-1002
-1036
-1053
-1050
-1034
-1017
-999
-989
-982
-978
-974
-974
-973
-973
-971
-971
-970
-971
-969
-969
-968
-969
-968
-966
-965
-965
-966
-963
-961
-960
-960
-959
-955
-953
-953
-949
-950
-948
-944
-942
-939
-935
-931
-927
-923
-918
-915
-912
-908
-901
-896
-893
-888
-884
-879
-875
-873
-868
-864
-860
-859
-859
-858
-858
-858
-858
-860
-864
-866
-869
-873
-879
-886
-892
-898
-905
-912
-918
-923
-929
-934
-939
-942
-946
-948
-950
-953
-953
-955
-956
-957
-959
-959
-959
-960
-959
-959
-957
-957
-957
-957
-957
-956
-955
-955
-955
-954
-952
-952
-950
-950
-952
-952
-950
-949
-948
-950
-950
-952
-953
-953
-953
-953
-955
-956
-955
-955
-955
-955
-956
-957
-957
-959
-960
-962
-963
-963
-963
-962
-963
-965
-966
-966
-967
-968
-971
-970
-968
-968
-968
-968
-969
-969
-970
-970
-970
-970
-970
-968
-969
-968
-969
-970
-969
-967
-966
-965
-962
-961
-957
-958
-957
-959
-956
-955
-955
-959
-963
-963
-962
-964
-965
-963
-960
-959
-960
-961
-961
-961
-963
-968
-970
-972
-974
-973
-972
-973
-973
-974
-973
-972
-972
-970
-969
-969
-967
-966
-963
-954
-934
-907
-875
-842
-848
-868
-884
-904
-926
-952
-992
-1026
-1048
-1053
-1036
-1011
-993
-980
-973
-970
-967
-966
-967
-966
-965
-965
-963
-962
-961
-961
-960
-960
-959
-957
-956
-956
-955
-953
-950
-948
-948
-946
-944
-942
-941
-940
-936
-933
-931
-929
-923
-918
-914
-911
-907
-903
-897
-891
-885
-879
-873
-867
-860
-855
-849
-844
-840
-836
-833
-830
-827
-826
-825
-826
-826
-827
-830
-833
-838
-844
-849
-858
-867
-875
-882
-891
-899
-907
-914
-921
-927
-931
-935
-939
-943
-947
-949
-950
-952
-954
-955
-954
-955
-956
-956
-957
-957
-958
-958
-957
-958
-958
-958
-958
-957
-958
-957
-956
-955
-955
-955
-955
-955
-953
-953
-953
-954
-953
-953
-953
-955
-957
-958
-957
-958
-959
-960
-961
-962
-963
-962
-962
-962
-965
-966
-966
-966
-967
-968
-969
-970
-970
-970
-970
-970
-971
-970
-970
-972
-973
-973
-973
-973
-975
-975
-974
-973
-974
-974
-975
-974
-976
-976
-975
-973
-974
-974
-974
-974
-974
-973
-973
-972
-973
-974
-975
-973
-971
-969
-966
-963
-961
-959
-957
-958
-957
-954
-956
-961
-965
-963
-963
-966
-967
-962
-962
-963
-965
-963
-963
-962
-966
-972
-974
-973
-974
-975
-974
-974
-976
-976
-975
-973
-973
-973
-973
-973
-970
-968
-963
-952
-931
-905
-872
-849
-863
-878
-892
-913
-931
-962
-1001
-1031
-1049
-1047
-1023
-1000
-986
-978
-972
-971
-969
-967
-966
-965
-965
-965
-962
-961
-961
-961
-961
-961
-959
-958
-955
-955
-955
-953
-953
-952
-950
-947
-945
-943
-942
-940
-937
-933
-930
-929
-924
-920
-916
-914
-908
-903
-896
-891
-885
-879
-875
-869
-863
-858
-853
-846
-843
-839
-838
-836
-834
-832
-832
-833
-834
-836
-839
-843
-849
-856
-862
-868
-876
-883
-892
-901
-910
-917
-922
-929
-936
-942
-946
-948
-950
-953
-955
-957
-959
-959
-962
-962
-962
-963
-965
-965
-966
-966
-963
-963
-965
-965
-966
-965
-966
-966
-966
-965
-965
-965
-965
-965
-963
-962
-965
-965
-963
-962
-962
-965
-966
-966
-966
-966
-967
-968
-967
-968
-969
-970
-970
-971
-972
-974
-974
-974
-974
-975
-976
-978
-979
-980
-980
-979
-979
-979
-980
-981
-981
-981
-981
-980
-981
-981
-980
-979
-981
-981
-980
-979
-979
-981
-981
-981
-981
-980
-981
-981
-981
-980
-979
-979
-979
-980
-979
-979
-979
-980
-980
-979
-979
-979
-979
-978
-976
-976
-975
-973
-970
-967
-965
-963
-962
-962
-959
-957
-960
-966
-968
-967
-966
-966
-968
-967
-967
-967
-966
-967
-966
-969
-974
-976
-978
-978
-978
-978
-976
-978
-978
-978
-978
-975
-975
-975
-973
-972
-970
-969
-965
-952
-931
-901
-866
-856
-871
-885
-901
-919
-937
-973
-1009
-1038
-1055
-1044
-1017
-994
-981
-976
-974
-972
-970
-970
-969
-967
-966
-965
-965
-963
-962
-962
-961
-959
-957
-957
-957
-956
-955
-954
-952
-950
-949
-947
-945
-943
-941
-939
-936
-933
-931
-927
-923
-918
-917
-912
-907
-902
-897
-892
-885
-879
-875
-870
-863
-858
-853
-847
-843
-839
-836
-833
-831
-831
-831
-829
-830
-831
-836
-840
-843
-849
-855
-863
-870
-879
-888
-897
-905
-909
-916
-922
-927
-931
-936
-940
-942
-946
-950
-952
-953
-953
-953
-955
-955
-955
-955
-955
-956
-956
-957
-956
-957
-956
-956
-956
-958
-956
-956
-956
-956
-955
-955
-955
-955
-955
-956
-956
-957
-958
-960
-961
-961
-961
-961
-963
-963
-965
-965
-966
-966
-967
-968
-969
-970
-971
-972
-970
-971
-973
-974
-975
-975
-974
-975
-975
-975
-975
-974
-974
-975
-975
-975
-975
-975
-975
-976
-976
-978
-978
-977
-979
-979
-978
-976
-976
-975
-976
-978
-976
-976
-976
-978
-979
-978
-977
-976
-978
-978
-978
-977
-976
-975
-975
-975
-975
-975
-975
-975
-973
-972
-972
-971
-969
-966
-965
-961
-958
-958
-958
-955
-955
-957
-961
-961
-961
-961
-961
-962
-962
-961
-960
-959
-961
-961
-963
-967
-970
-970
-973
-974
-973
-973
-974
-976
-974
-974
-974
-975
-972
-970
-969
-969
-966
-960
-948
-927
-899
-864
-847
-862
-879
-898
-917
-931
-960
-998
-1032
-1056
-1056
-1031
-1002
-984
-973
-970
-969
-967
-964
-962
-962
-962
-960
-959
-957
-957
-957
-957
-957
-955
-953
-954
-952
-950
-949
-948
-946
-945
-943
-942
-940
-936
-935
-933
-931
-931
-927
-921
-919
-916
-911
-907
-903
-897
-893
-886
-881
-875
-869
-864
-858
-853
-846
-841
-836
-834
-831
-827
-827
-827
-827
-827
-831
-832
-835
-838
-844
-850
-855
-863
-871
-878
-884
-894
-901
-905
-913
-920
-926
-929
-933
-937
-941
-944
-946
-946
-948
-952
-952
-950
-952
-953
-952
-953
-955
-955
-955
-955
-954
-952
-950
-949
-949
-950
-950
-950
-949
-950
-950
-952
-952
-953
-953
-953
-953
-953
-955
-956
-957
-958
-957
-959
-961
-963
-962
-963
-965
-966
-967
-968
-969
-968
-969
-968
-970
-970
-974
-973
-972
-972
-973
-972
-973
-974
-973
-974
-974
-974
-974
-974
-974
-974
-975
-975
-975
-974
-973
-974
-975
-976
-975
-974
-973
-974
-975
-974
-974
-976
-975
-974
-973
-973
-974
-976
-976
-973
-970
-970
-974
-972
-972
-972
-971
-969
-969
-970
-970
-968
-968
-963
-960
-959
-956
-955
-954
-953
-950
-950
-955
-959
-959
-957
-958
-957
-959
-956
-955
-957
-958
-959
-960
-965
-969
-970
-971
-973
-974
-974
-973
-973
-973
-972
-973
-972
-972
-970
-970
-970
-969
-966
-961
-949
-927
-896
-861
-852
-871
-891
-914
-933
-944
-978
-1013
-1046
-1065
-1052
-1020
-994
-980
-972
-968
-968
-965
-963
-962
-962
-961
-961
-961
-961
-959
-957
-959
-957
-956
-955
-955
-954
-953
-952
-948
-948
-945
-944
-942
-941
-939
-936
-935
-931
-927
-924
-922
-917
-915
-911
-908
-903
-897
-892
-888
-884
-875
-869
-863
-858
-853
-847
-843
-838
-834
-833
-831
-829
-827
-827
-829
-830
-832
-833
-839
-844
-849
-855
-863
-870
-879
-886
-893
-900
-907
-914
-918
-926
-931
-936
-939
-942
-944
-946
-948
-948
-949
-950
-952
-952
-950
-950
-952
-953
-954
-952
-952
-952
-950
-950
-949
-950
-952
-950
-948
-949
-952
-952
-950
-952
-953
-953
-953
-955
-956
-957
-959
-958
-957
-957
-960
-960
-961
-963
-965
-963
-963
-966
-966
-966
-966
-968
-969
-969
-970
-969
-969
-969
-969
-969
-970
-970
-969
-970
-972
-972
-972
-972
-970
-972
-972
-970
-972
-971
-970
-970
-970
-970
-971
-970
-970
-970
-970
-969
-969
-969
-970
-970
-969
-969
-970
-969
-969
-968
-968
-968
-968
-967
-967
-967
-966
-963
-962
-960
-956
-954
-953
-950
-948
-947
-944
-948
-952
-954
-952
-949
-952
-954
-952
-952
-954
-954
-955
-956
-957
-961
-968
-969
-968
-968
-970
-970
-972
-970
-969
-969
-969
-969
-968
-966
-965
-965
-961
-953
-938
-912
-882
-850
-855
-878
-897
-922
-934
-950
-986
-1023
-1057
-1065
-1038
-1005
-984
-972
-967
-966
-962
-960
-959
-959
-959
-957
-957
-955
-955
-955
-954
-953
-952
-952
-952
-950
-949
-948
-947
-946
-944
-941
-939
-937
-936
-934
-932
-930
-927
-923
-918
-916
-914
-909
-905
-899
-895
-891
-886
-881
-875
-870
-864
-857
-853
-849
-844
-839
-836
-832
-831
-829
-830
-829
-829
-829
-831
-833
-838
-843
-849
-853
-860
-868
-877
-884
-892
-898
-905
-911
-918
-923
-928
-931
-934
-937
-940
-942
-943
-944
-944
-946
-948
-948
-948
-947
-946
-948
-947
-947
-945
-944
-945
-946
-945
-945
-948
-947
-947
-946
-947
-948
-949
-948
-949
-949
-952
-953
-953
-953
-953
-956
-957
-959
-959
-961
-962
-963
-963
-962
-963
-965
-966
-966
-967
-967
-969
-970
-970
-970
-972
-973
-973
-972
-972
-973
-973
-974
-975
-974
-974
-975
-975
-974
-973
-975
-974
-974
-975
-975
-974
-974
-975
-976
-976
-975
-975
-975
-975
-975
-974
-975
-975
-974
-974
-974
-974
-974
-973
-972
-973
-972
-970
-968
-966
-964
-961
-960
-959
-957
-953
-952
-952
-957
-960
-961
-960
-960
-962
-961
-959
-960
-962
-962
-962
-963
-967
-972
-973
-974
-974
-975
-976
-978
-977
-976
-976
-974
-973
-972
-972
-972
-973
-971
-965
-956
-935
-906
-871
-840
-845
-859
-875
-898
-918
-953
-998
-1039
-1070
-1068
-1043
-1015
-994
-981
-976
-974
-970
-970
-970
-969
-967
-967
-966
-966
-965
-966
-965
-965
-963
-964
-961
-961
-960
-959
-957
-957
-955
-953
-953
-949
-948
-948
-945
-942
-941
-939
-937
-931
-928
-924
-919
-914
-912
-908
-899
-895
-892
-885
-879
-875
-872
-866
-862
-856
-858
-857
-853
-852
-853
-848
-845
-852
-853
-856
-859
-862
-865
-871
-878
-882
-888
-896
-903
-908
-914
-918
-923
-930
-935
-939
-941
-944
-946
-950
-949
-952
-957
-955
-955
-956
-957
-957
-955
-954
-955
-955
-955
-956
-957
-959
-957
-957
-960
-959
-957
-957
-961
-959
-957
-961
-963
-961
-961
-965
-966
-967
-968
-966
-969
-969
-970
-973
-973
-974
-974
-974
-974
-976
-978
-978
-976
-976
-979
-979
-981
-980
-981
-981
-981
-980
-979
-979
-979
-979
-981
-981
-981
-982
-982
-981
-981
-981
-982
-981
-981
-981
-982
-982
-982
-982
-981
-981
-979
-982
-981
-979
-979
-978
-976
-974
-970
-966
-965
-964
-961
-960
-958
-957
-960
-963
-967
-962
-962
-965
-966
-963
-966
-967
-969
-972
-974
-977
-979
-984
-984
-985
-987
-987
-985
-987
-987
-986
-984
-984
-985
-986
-983
-981
-978
-973
-967
-953
-926
-891
-856
-864
-885
-901
-918
-927
-952
-994
-1036
-1072
-1078
-1052
-1018
-998
-988
-983
-980
-976
-974
-973
-973
-973
-972
-970
-969
-969
-969
-967
-966
-966
-965
-966
-966
-962
-960
-957
-953
-951
-949
-949
-948
-946
-944
-942
-940
-937
-935
-931
-927
-923
-920
-918
-914
-909
-905
-899
-895
-890
-884
-877
-872
-870
-866
-862
-857
-855
-852
-852
-851
-851
-849
-850
-851
-852
-855
-859
-864
-870
-875
-881
-888
-894
-901
-907
-912
-918
-923
-927
-930
-935
-939
-940
-943
-946
-949
-950
-950
-952
-950
-948
-949
-949
-948
-948
-948
-948
-949
-948
-948
-947
-946
-947
-949
-948
-948
-949
-949
-951
-950
-952
-952
-952
-953
-955
-956
-957
-958
-957
-960
-962
-963
-962
-962
-963
-965
-966
-967
-969
-970
-969
-970
-970
-970
-970
-970
-973
-972
-970
-971
-970
-971
-970
-971
-972
-974
-973
-972
-972
-972
-973
-973
-972
-972
-972
-972
-974
-974
-973
-971
-972
-970
-966
-965
-961
-958
-956
-955
-954
-950
-949
-953
-956
-957
-957
-956
-959
-960
-961
-960
-964
-965
-966
-968
-969
-970
-974
-976
-978
-979
-978
-979
-980
-978
-979
-979
-977
-974
-974
-974
-972
-970
-966
-959
-939
-909
-873
-857
-878
-899
-913
-921
-923
-947
-987
-1026
-1065
-1068
-1037
-1004
-986
-979
-975
-974
-970
-968
-966
-967
-967
-967
-966
-965
-965
-963
-963
-962
-961
-960
-960
-960
-959
-956
-956
-955
-955
-953
-950
-949
-948
-946
-942
-940
-939
-934
-930
-927
-925
-921
-918
-914
-910
-907
-903
-895
-888
-882
-878
-875
-870
-865
-860
-858
-857
-853
-853
-852
-851
-852
-853
-855
-856
-858
-862
-866
-871
-875
-881
-889
-896
-905
-911
-918
-923
-931
-934
-939
-942
-946
-947
-948
-950
-952
-953
-956
-957
-956
-956
-956
-955
-955
-953
-955
-955
-955
-955
-953
-952
-953
-953
-953
-952
-953
-953
-952
-953
-955
-953
-955
-957
-955
-957
-958
-960
-960
-960
-962
-961
-961
-962
-963
-963
-965
-965
-965
-965
-965
-968
-968
-968
-969
-969
-969
-970
-970
-970
-970
-970
-970
-970
-972
-970
-970
-973
-972
-973
-972
-972
-971
-973
-972
-970
-969
-969
-968
-963
-960
-957
-955
-955
-953
-950
-949
-953
-957
-959
-955
-956
-957
-957
-955
-956
-957
-960
-962
-964
-966
-968
-970
-970
-972
-972
-974
-975
-973
-973
-974
-973
-972
-972
-973
-970
-969
-966
-962
-952
-929
-896
-858
-827
-833
-852
-864
-880
-899
-935
-987
-1037
-1070
-1063
-1039
-1013
-993
-980
-976
-972
-970
-969
-969
-969
-967
-966
-966
-965
-965
-965
-962
-961
-960
-962
-961
-959
-957
-954
-952
-953
-950
-948
-946
-944
-944
-941
-939
-936
-935
-934
-930
-926
-922
-918
-914
-910
-907
-904
-900
-892
-886
-881
-877
-872
-868
-865
-862
-858
-856
-855
-853
-853
-853
-856
-856
-857
-858
-863
-867
-871
-875
-879
-885
-891
-898
-905
-911
-916
-920
-927
-931
-935
-939
-942
-944
-944
-946
-948
-950
-953
-953
-955
-953
-954
-955
-955
-953
-953
-952
-952
-954
-953
-954
-953
-953
-953
-952
-950
-952
-953
-952
-952
-954
-955
-955
-956
-956
-956
-957
-957
-958
-960
-962
-963
-964
-965
-967
-967
-966
-966
-968
-969
-970
-971
-970
-970
-971
-970
-972
-973
-974
-973
-972
-973
-973
-973
-973
-974
-972
-970
-973
-974
-974
-972
-972
-972
-971
-970
-970
-967
-966
-963
-962
