1502
1504
1508
1520
1514
1514
1514
1514
1521
1509
1509
1508
1508
1509
1516
1523
1518
1514
1518
1521
1523
1523
1516
1514
1523
1521
1526
1530
1525
1514
1514
1518
1514
1514
1518
1528
1528
1520
1514
1513
1521
1528
1531
1538
1537
1526
1509
1502
1513
1518
1518
1528
1530
1533
1523
1520
1516
1516
1528
1526
1520
1513
1504
1509
1513
1511
1509
1521
1523
1523
1513
1511
1513
1521
1521
1520
1523
1523
1525
1537
1545
1540
1528
1509
1492
1506
1508
1525
1535
1535
1526
1508
1497
1506
1525
1526
1528
1528
1520
1514
1513
1523
1530
1530
1520
1520
1523
1520
1520
1514
1520
1509
1506
1514
1526
1525
1526
1528
1520
1502
1496
1513
1531
1525
1509
1508
1518
1513
1523
1530
1542
1542
1526
1487
1419
1366
1345
1333
1275
1215
1265
1384
1492
1566
1584
1561
1528
1499
1494
1497
1501
1504
1504
1506
1513
1513
1514
1506
1496
1499
1509
1508
1501
1496
1496
1492
1497
1499
1499
1509
1501
1497
1502
1499
1496
1473
1461
1475
1478
1482
1478
1478
1480
1475
1473
1468
1473
1484
1482
1470
1453
1443
1439
1426
1419
1419
1427
1419
1400
1369
1366
1366
1362
1361
1359
1349
1342
1330
1328
1335
1340
1345
1354
1371
1384
1390
1383
1388
1410
1432
1453
1463
1467
1465
1472
1482
1487
1499
1511
1508
1504
1494
1496
1497
1504
1511
1511
1509
1497
1494
1497
1499
1501
1504
1513
1518
1514
1508
1499
1496
1508
1508
1509
1508
1514
1518
1516
1502
1490
1487
1511
1514
1513
1508
1502
1501
1514
1518
1513
1513
1502
1514
1513
1513
1509
1514
1520
1523
1526
1528
1520
1514
1525
1523
1516
1513
1513
1516
1516
1520
1528
1533
1531
1528
1520
1508
1509
1513
1514
1516
1514
1516
1523
1528
1528
1525
1526
1516
1506
1509
1518
1518
1520
1523
1525
1521
1518
1509
1508
1511
1520
1523
1526
1526
1520
1520
1518
1514
1513
1509
1520
1518
1516
1514
1513
1521
1528
1520
1509
1504
1509
1514
1509
1508
1518
1514
1514
1504
1511
1523
1528
1530
1518
1508
1504
1513
1516
1509
1508
1508
1508
1513
1521
1525
1520
1520
1511
1508
1504
1494
1492
1497
1496
1501
1508
1518
1514
1508
1508
1506
1516
1514
1513
1509
1506
1501
1504
1504
1509
1523
1518
1521
1526
1528
1525
1492
1419
1350
1318
1301
1236
1198
1261
1393
1508
1578
1583
1547
1516
1506
1504
1506
1501
1494
1485
1484
1494
1496
1487
1485
1490
1492
1487
1489
1490
1485
1490
1496
1502
1499
1494
1482
1456
1460
1470
1478
1482
1478
1473
1475
1473
1468
1467
1461
1461
1465
1461
1456
1444
1448
1446
1444
1443
1431
1426
1427
1420
1417
1402
1388
1383
1374
1371
1364
1349
1337
1330
1333
1331
1328
1328
1325
1314
1316
1333
1350
1367
1374
1381
1395
1403
1419
1426
1443
1451
1458
1468
1472
1473
1473
1480
1492
1490
1490
1492
1490
1489
1499
1496
1487
1482
1487
1492
1496
1496
1496
1497
1501
1501
1501
1501
1492
1485
1490
1494
1501
1504
1501
1496
1489
1487
1497
1506
1508
1504
1501
1494
1501
1506
1520
1520
1511
1501
1496
1502
1509
1513
1506
1502
1506
1509
1513
1514
1514
1520
1528
1520
1514
1520
1521
1528
1516
1509
1509
1511
1514
1518
1521
1525
1526
1523
1518
1513
1508
1513
1520
1530
1525
1520
1525
1528
1523
1528
1528
1525
1525
1520
1516
1518
1520
1523
1523
1525
1526
1531
1533
1528
1526
1528
1526
1530
1533
1537
1543
1537
1528
1513
1508
1520
1521
1523
1520
1526
1533
1537
1528
1516
1514
1521
1535
1531
1528
1523
1521
1528
1526
1528
1533
1531
1525
1513
1518
1526
1530
1531
1533
1523
1521
1521
1525
1530
1531
1526
1518
1514
1521
1528
1531
1531
1530
1528
1526
1526
1526
1530
1537
1537
1537
1530
1528
1537
1538
1540
1520
1480
1424
1376
1347
1309
1239
1232
1318
1453
1552
1598
1595
1562
1531
1528
1521
1520
1511
1509
1509
1514
1520
1521
1511
1499
1499
1513
1528
1528
1518
1508
1506
1513
1514
1513
1506
1509
1513
1509
1506
1501
1494
1492
1496
1504
1504
1508
1501
1496
1485
1475
1473
1477
1475
1472
1473
1468
1458
1460
1455
1449
1436
1422
1419
1419
1417
1400
1386
1371
1366
1362
1359
1355
1342
1345
1347
1347
1345
1345
1350
1364
1376
1395
1405
1419
1429
1443
1455
1472
1485
1492
1497
1501
1499
1504
1511
1509
1513
1514
1514
1521
1516
1520
1523
1520
1520
1521
1521
1521
1521
1520
1528
1520
1523
1520
1523
1528
1521
1523
1523
1523
1521
1523
1523
1523
1521
1523
1525
1528
1528
1526
1528
1531
1528
1530
1528
1528
1530
1533
1533
1535
1537
1531
1533
1537
1537
1538
1538
1538
1537
1538
1540
1542
1540
1538
1540
1542
1538
1540
1547
1542
1542
1543
1542
1543
1542
1540
1540
1542
1540
1540
1540
1542
1542
1542
1547
1540
1540
1540
1540
1542
1540
1540
1542
1543
1542
1540
1542
1542
1540
1540
1542
1540
1540
1540
1538
1538
1540
1540
1540
1540
1537
1537
1540
1540
1540
1540
1540
1537
1537
1537
1537
1538
1540
1538
1538
1538
1537
1542
1540
1540
1538
1537
1540
1542
1540
1537
1537
1537
1533
1533
1538
1538
1537
1542
1533
1531
1528
1530
1528
1528
1528
1530
1533
1533
1537
1533
1533
1533
1531
1533
1530
1530
1531
1530
1531
1530
1537
1537
1530
1520
1494
1431
1378
1357
1345
1287
1246
1306
1420
1528
1590
1608
1576
1538
1520
1516
1521
1511
1509
1509
1508
1509
1509
1509
1509
1509
1509
1511
1508
1508
1506
1504
1508
1502
1504
1501
1501
1501
1501
1499
1494
1494
1490
1492
1490
1489
1487
1487
1485
1482
1480
1475
1473
1472
1465
1467
1460
1458
1453
1439
1436
1432
1424
1419
1408
1403
1396
1390
1381
1376
1373
1364
1361
1354
1350
1343
1343
1347
1352
1357
1364
1371
1384
1393
1407
1422
1431
1443
1453
1461
1472
1473
1482
1485
1492
1497
1497
1499
1501
1504
1502
1501
1501
1504
1501
1502
1501
1504
1501
1502
1501
1501
1502
1506
1504
1504
1502
1504
1511
1501
1502
1506
1501
1501
1501
1499
1504
1508
1499
1499
1504
1506
1506
1508
1520
1521
1520
1518
1513
1506
1502
1514
1525
1535
1537
1528
1514
1501
1502
1506
1513
1518
1514
1516
1516
1521
1521
1523
1525
1525
1525
1526
1528
1523
1528
1530
1537
1537
1540
1535
1528
1525
1528
1523
1521
1528
1523
1525
1520
1521
1521
1526
1528
1528
1526
1526
1526
1528
1533
1537
1540
1542
1542
1533
1521
1525
1526
1523
1526
1535
1540
1538
1528
1525
1525
1528
1530
1531
1528
1526
1528
1530
1531
1535
1528
1525
1525
1526
1526
1528
1542
1540
1538
1537
1526
1530
1538
1545
1549
1543
1537
1528
1525
1525
1521
1528
1537
1525
1521
1531
1537
1538
1535
1526
1520
1523
1537
1542
1542
1537
1528
1528
1535
1533
1537
1538
1528
1514
1478
1420
1378
1350
1326
1275
1263
1349
1458
1535
1584
1591
1561
1533
1521
1518
1525
1520
1514
1514
1514
1521
1514
1516
1525
1528
1526
1521
1520
1518
1520
1526
1526
1528
1520
1506
1511
1528
1521
1516
1514
1516
1518
1520
1514
1509
1501
1502
1509
1509
1508
1499
1497
1492
1489
1489
1487
1482
1473
1461
1460
1455
1451
1446
1439
1432
1419
1405
1405
1405
1400
1395
1393
1390
1384
1383
1373
1376
1384
1395
1395
1405
1419
1436
1449
1458
1472
1484
1490
1496
1506
1513
1520
1525
1526
1526
1533
1528
1530
1528
1533
1531
1533
1533
1535
1535
1533
1533
1533
1537
1533
1533
1533
1533
1533
1533
1533
1537
1537
1537
1537
1538
1537
1542
1538
1537
1533
1533
1537
1535
1530
1530
1528
1531
1538
1537
1538
1538
1537
1547
1540
1542
1542
1542
1542
1545
1549
1550
1547
1545
1542
1542
1540
1542
1542
1547
1540
1542
1543
1543
1542
1547
1547
1549
1547
1547
1547
1549
1547
1549
1547
1549
1547
1549
1549
1549
1550
1547
1549
1545
1547
1545
1547
1543
1547
1549
1545
1549
1549
1547
1545
1547
1542
1540
1545
1543
1542
1545
1549
1547
1547
1545
1542
1542
1542
1545
1545
1545
1542
1545
1545
1547
1547
1542
1540
1540
1543
1549
1547
1545
1543
1540
1542
1547
1545
1547
1545
1543
1542
1538
1547
1550
1554
1547
1542
1535
1533
1531
1535
1535
1537
1545
1540
1543
1545
1547
1547
1547
1545
1543
1547
1545
1543
1545
1542
1545
1552
1557
1543
1525
1480
1419
1376
1352
1314
1251
1261
1361
1487
1569
1603
1591
1555
1542
1537
1537
1533
1526
1520
1523
1526
1528
1525
1520
1526
1528
1531
1528
1526
1528
1525
1526
1523
1521
1514
1523
1516
1514
1514
1509
1518
1511
1511
1508
1508
1506
1508
1506
1506
1502
1501
1496
1494
1494
1489
1487
1475
1473
1465
1460
1455
1446
1437
1431
1426
1419
1414
1405
1398
1393
1390
1381
1376
1369
1364
1362
1364
1367
1373
1373
1383
1391
1403
1407
1427
1443
1455
1468
1473
1482
1496
1506
1511
1513
1521
1518
1516
1520
1520
1526
1521
1525
1526
1523
1523
1528
1526
1523
1525
1523
1526
1526
1528
1528
1528
1531
1521
1526
1526
1523
1521
1525
1525
1526
1526
1523
1521
1523
1523
1525
1521
1526
1526
1528
1530
1530
1526
1528
1523
1525
1526
1528
1537
1533
1533
1531
1528
1531
1533
1531
1530
1531
1528
1526
1528
1530
1530
1533
1540
1530
1531
1531
1531
1535
1538
1538
1531
1526
1526
1535
1535
1533
1531
1528
1530
1530
1533
1535
1530
1531
1533
1537
1533
1530
1528
1528
1526
1526
1526
1528
1526
1526
1528
1528
1528
1525
1530
1530
1531
1531
1528
1537
1526
1523
1526
1526
1526
1528
1526
1528
1526
1523
1526
1526
1528
1530
1526
1535
1526
1525
1526
1528
1526
1526
1526
1528
1528
1526
1526
1523
1520
1521
1525
1531
1528
1526
1521
1523
1521
1523
1520
1514
1516
1518
1523
1523
1523
1523
1520
1521
1523
1523
1525
1523
1516
1518
1513
1518
1514
1520
1525
1514
1499
1456
1396
1357
1342
1316
1249
1237
1309
1412
1509
1574
1583
1549
1514
1497
1497
1501
1497
1489
1492
1494
1496
1497
1492
1494
1497
1497
1497
1494
1496
1494
1487
1490
1489
1487
1487
1487
1487
1485
1482
1489
1482
1482
1480
1478
1473
1475
1472
1468
1468
1465
1461
1463
1463
1460
1458
1444
1439
1436
1434
1429
1420
1414
1405
1402
1395
1391
1379
1371
1364
1364
1361
1350
1347
1342
1337
1337
1338
1340
1343
1347
1355
1364
1376
1386
1398
1407
1419
1432
1443
1451
1458
1465
1472
1477
1482
1484
1485
1487
1494
1489
1492
1492
1494
1497
1494
1492
1494
1496
1494
1496
1494
1494
1494
1494
1494
1490
1492
1492
1494
1494
1492
1494
1492
1490
1487
1494
1494
1494
1492
1494
1494
1494
1496
1492
1496
1494
1496
1496
1494
1496
1494
1501
1499
1504
1502
1501
1502
1501
1501
1502
1502
1504
1511
1508
1504
1504
1506
1516
1509
1508
1508
1506
1508
1508
1508
1509
1509
1508
1511
1508
1508
1509
1509
1516
1513
1511
1513
1513
1508
1514
1513
1509
1511
1508
1509
1511
1509
1509
1509
1514
1509
1509
1511
1509
1511
1509
1509
1509
1508
1509
1518
1514
1509
1514
1514
1514
1514
1509
1508
1506
1514
1511
1514
1514
1509
1508
1514
1513
1513
1514
1516
1518
1520
1518
1520
1520
1520
1520
1516
1520
1521
1523
1526
1520
1514
1514
1513
1509
1511
1511
1514
1518
1518
1518
1514
1518
1518
1520
1520
1516
1513
1511
1513
1514
1514
1518
1521
1514
1504
1490
1432
1390
1364
1354
1306
1248
1272
1362
1451
1516
1562
1550
1514
1499
1494
1501
1496
1497
1494
1497
1499
1501
1501
1504
1501
1497
1501
1501
1501
1501
1499
1504
1501
1499
1499
1497
1497
1497
1497
1496
1497
1497
1492
1489
1490
1494
1490
1492
1487
1487
1485
1480
1484
1480
1472
1472
1467
1465
1456
1455
1451
1446
1437
1426
1420
1417
1410
1403
1395
1390
1383
1378
1374
1369
1359
1359
1362
1364
1367
1374
1381
1390
1400
1412
1427
1436
1444
1455
1465
1473
1485
1490
1494
1501
1504
1508
1509
1509
1513
1514
1513
1518
1509
1513
1514
1514
1514
1513
1513
1514
1514
1513
1516
1514
1513
1514
1514
1520
1514
1514
1514
1514
1518
1520
1520
1521
1520
1518
1520
1518
1516
1520
1520
1525
1520
1518
1521
1520
1521
1520
1520
1521
1523
1525
1525
1523
1525
1525
1521
1528
1526
1525
1526
1526
1525
1526
1526
1528
1526
1528
1533
1526
1525
1526
1526
1528
1528
1528
1526
1526
1523
1525
1526
1528
1526
1526
1533
1528
1528
1526
1523
1525
1528
1526
1528
1526
1526
1526
1526
1526
1525
1523
1526
1526
1526
1526
1526
1525
1525
1523
1526
1526
1523
1523
1526
1528
1525
1525
1526
1528
1526
1526
1525
1525
1526
1528
1528
1523
1523
1528
1526
1528
1526
1525
1525
1525
1526
1526
1526
1525
1526
1528
1528
1528
1528
1533
1528
1525
1526
1528
1528
1533
1528
1525
1523
1520
1521
1520
1520
1521
1525
1526
1526
1526
1526
1526
1523
1525
1525
1525
1525
1525
1528
1525
1523
1530
1533
1535
1526
1499
1439
1386
1355
1335
1275
1215
1244
1350
1448
1535
1574
1557
1526
1514
1509
1509
1508
1506
1508
1508
1511
1509
1511
1511
1516
1509
1509
1509
1509
1508
1509
1508
1506
1506
1504
1506
1508
1506
1506
1502
1502
1502
1501
1501
1499
1499
1497
1497
1494
1492
1490
1497
1487
1484
1478
1480
1472
1467
1465
1460
1455
1451
1443
1436
1429
1419
1414
1400
1400
1393
1388
1383
1376
1373
1369
1366
1364
1366
1371
1376
1383
1390
1405
1414
1431
1441
1455
1467
1477
1485
1494
1501
1504
1509
1513
1516
1516
1520
1521
1525
1521
1525
1523
1523
1523
1523
1525
1526
1526
1525
1530
1528
1526
1526
1526
1526
1528
1526
1528
1528
1528
1528
1528
1528
1531
1528
1537
1533
1533
1531
1531
1530
1533
1537
1537
1535
1533
1531
1535
1538
1538
1537
1540
1540
1540
1540
1540
1542
1540
1540
1540
1542
1540
1542
1542
1542
1540
1542
1540
1540
1542
1543
1542
1542
1545
1542
1542
1547
1543
1550
1543
1547
1542
1542
1547
1549
1543
1543
1547
1549
1545
1549
1549
1549
1547
1550
1547
1543
1545
1543
1542
1543
1545
1543
1542
1542
1542
1542
1542
1545
1543
1543
1543
1543
1540
1543
1543
1543
1543
1543
1542
1543
1547
1540
1540
1542
1538
1540
1538
1537
1537
1537
1540
1542
1537
1537
1537
1538
1542
1540
1542
1540
1538
1537
1537
1535
1537
1535
1537
1537
1538
1538
1531
1528
1537
1535
1538
1538
1537
1535
1531
1528
1526
1525
1521
1526
1528
1528
1528
1528
1530
1530
1533
1531
1528
1523
1521
1526
1526
1523
1526
1538
1528
1520
1509
1473
1414
1376
1362
1335
1258
1248
1323
1424
1509
1569
1574
1545
1508
1502
1504
1508
1504
1502
1504
1508
1502
1506
1508
1506
1508
1511
1506
1508
1501
1502
1508
1508
1506
1502
1501
1501
1499
1499
1501
1501
1497
1496
1492
1496
1494
1494
1489
1489
1485
1485
1482
1484
1478
1477
1467
1468
1461
1460
1455
1449
1441
1437
1426
1420
1419
1412
1402
1395
1390
1386
1374
1371
1366
1367
1367
1369
1371
1371
1378
1386
1398
1408
1419
1432
1444
1456
1465
1473
1485
1492
1494
1501
1508
1509
1514
1516
1516
1525
1520
1521
1518
1516
1521
1525
1521
1520
1523
1523
1528
1523
1525
1521
1521
1528
1521
1525
1521
1525
1526
1526
1526
1526
1525
1525
1526
1526
1521
1525
1523
1530
1526
1526
1528
1528
1526
1531
1530
1531
1531
1533
1535
1537
1537
1535
1533
1535
1537
1538
1538
1537
1538
1542
1538
1537
1535
1537
1543
1537
1538
1542
1538
1540
1538
1537
1538
1540
1540
1538
1542
1540
1537
1537
1545
1542
1540
1542
1543
1540
1542
1543
1543
1542
1540
1538
1542
1543
1543
1545
1545
1542
1542
1549
1547
1540
1538
1540
1543
1543
1542
1543
1545
1545
1547
1542
1540
1540
1542
1542
1543
1545
1542
1542
1540
1540
1542
1549
1543
1543
1542
1542
1545
1543
1542
1545
1543
1547
1542
1545
1545
1547
1547
1549
1547
1549
1552
1547
1549
1549
1545
1542
1540
1540
1538
1540
1545
1542
1542
1549
1542
1540
1542
1549
1545
1540
1540
1545
1542
1542
1545
1550
1549
1540
1528
1494
1434
1402
1383
1350
1287
1282
1357
1458
1537
1586
1595
1555
1531
1523
1525
1528
1523
1523
1528
1530
1526
1526
1528
1526
1528
1528
1530
1528
1526
1526
1526
1523
1526
1526
1526
1525
1523
1523
1521
1520
1521
1520
1523
1520
1513
1508
1509
1508
1508
1506
1502
1501
1494
1499
1492
1487
1482
1478
1473
1467
1460
1455
1453
1443
1432
1426
1420
1415
1408
1398
1398
1395
1386
1384
1386
1388
1390
1396
1405
1417
1424
1437
1448
1460
1473
1484
1490
1499
1504
1508
1514
1520
1521
1523
1523
1526
1526
1528
1528
1531
1528
1530
1530
1531
1530
1530
1533
1535
1531
1531
1528
1526
1537
1530
1528
1528
1528
1530
1531
1531
1528
1528
1528
1528
1530
1531
1533
1531
1537
1530
1533
1535
1533
1533
1533
1535
1533
1533
1533
1535
1537
1538
1537
1538
1540
1540
1538
1540
1538
1537
1538
1542
1540
1538
1540
1542
1537
1537
1538
1537
1540
1540
1540
1542
1543
1542
1542
1537
1542
1545
1542
1547
1542
1542
1540
1538
1540
1542
1540
1540
1540
1537
1540
1543
1540
1543
1542
1549
1540
1542
1542
1542
1540
1542
1540
1542
1543
1540
1540
1543
1540
1538
1538
1542
1542
1542
1540
1538
1540
1540
1537
1540
1542
1537
1545
1540
1540
1540
1538
1537
1538
1537
1538
1537
1538
1540
1537
1542
1542
1543
1547
1540
1537
1538
1535
1535
1540
1540
1542
1542
1537
1533
1535
1530
1528
1528
1533
1531
1535
1535
1535
1533
1533
1533
1537
1535
1535
1533
1531
1537
1533
1533
1537
1537
1537
1523
1489
1436
1388
1366
1337
1277
1249
1313
1427
1518
1573
1579
1550
1528
1514
1509
1513
1509
1509
1511
1513
1514
1513
1516
1513
1514
1513
1509
1509
1513
1509
1513
1509
1508
1508
1508
1506
1508
1508
1508
1506
1504
1501
1504
1501
1501
1501
1501
1501
1502
1502
1497
1492
1487
1484
1475
1478
1482
1465
1453
1446
1434
1431
1437
1437
1426
1410
1408
1391
1378
1369
1362
1362
1364
1367
1374
1376
1378
1379
1386
1396
1414
1434
1461
1465
1475
1482
1487
1513
1518
1504
1489
1496
1502
1511
1508
1502
1509
1525
1520
1514
1508
1513
1523
1531
1535
1523
1513
1513
1528
1528
1520
1508
1508
1509
1511
1514
1518
1520
1528
1537
1521
1514
1528
1540
1547
1542
1547
1555
1562
1564
1543
1520
1509
1509
1506
1508
1502
1508
1518
1528
1549
1547
1540
1538
1537
1540
1543
1547
1555
1555
1543
1528
1520
1521
1526
1528
1537
1540
1542
1547
1542
1528
1525
1525
1538
1549
1547
1542
1521
1514
1530
1538
1543
1545
1545
1564
1574
1559
1542
1523
1516
1521
1525
1545
1549
1538
1530
1535
1545
1550
1543
1533
1523
1521
1528
1528
1537
1543
1533
1526
1518
1521
1530
1537
1538
1540
1542
1538
1533
1528
1531
1540
1547
1537
1523
1523
1526
1528
1542
1547
1537
1520
1508
1508
1521
1537
1545
1528
1516
1518
1530
1533
1526
1521
1530
1537
1528
1514
1513
1514
1514
1511
1514
1513
1514
1514
1513
1514
1521
1521
1526
1528
1520
1520
1528
1542
1537
1521
1513
1509
1513
1513
1513
1513
1518
1525
1525
1506
1446
1378
1349
1335
1306
1249
1290
1400
1489
1540
1567
1540
1506
1489
1489
1487
1485
1494
1492
1499
1501
1501
1499
1501
1509
1516
1506
1508
1511
1502
1499
1487
1472
1461
1475
1478
1484
1485
1499
1501
1499
1484
1468
1467
1463
1465
1465
1465
1467
1460
1458
1453
1451
1448
1446
1441
1437
1432
1426
1420
1407
1402
1396
1390
1379
1371
1364
1357
1350
1343
1337
1335
1326
1321
1316
1320
1318
1328
1335
1343
1355
1367
1384
1396
1412
1424
1439
1448
1458
1467
1473
1478
1487
1489
1492
1492
1492
1492
1494
1494
1497
1497
1494
1499
1496
1497
1499
1497
1501
1501
1499
1499
1499
1501
1501
1501
1501
1501
1499
1506
1501
1501
1499
1501
1504
1502
1502
1504
1508
1504
1506
1509
1509
1509
1509
1514
1511
1511
1511
1513
1514
1516
1516
1516
1514
1516
1518
1520
1520
1520
1516
1520
1521
1520
1523
1521
1521
1521
1523
1521
1521
1523
1520
1521
1525
1521
1525
1526
1526
1521
1523
1525
1526
1528
1523
1526
1526
1523
1530
1526
1526
1526
1523
1528
1526
1528
1526
1525
1523
1526
1526
1526
1525
1525
1528
1526
1528
1528
1526
1521
1526
1526
1526
1523
1525
1525
1526
1523
1526
1526
1528
1526
1523
1523
1523
1525
1528
1526
1526
1525
1521
1528
1525
1523
1526
1521
1523
1525
1523
1526
1523
1523
1526
1523
1526
1525
1521
1528
1525
1521
1520
1521
1523
1523
1526
1523
1520
1516
1514
1516
1514
1514
1518
1526
1521
1525
1525
1523
1521
1523
1521
1525
1526
1523
1521
1520
1523
1526
1528
1526
1520
1496
1439
1379
1349
1333
1282
1217
1246
1350
1467
1554
1588
1576
1537
1514
1513
1514
1513
1504
1501
1502
1508
1511
1514
1520
1526
1520
1502
1492
1497
1501
1499
1497
1497
1494
1489
1492
1494
1490
1487
1484
1477
1482
1482
1482
1480
1477
1473
1472
1473
1472
1473
1461
1460
1458
1455
1451
1444
1441
1434
1426
1419
1410
1403
1393
1384
1376
1364
1350
1350
1343
1335
1330
1323
1321
1320
1316
1314
1321
1331
1340
1354
1366
1381
1393
1412
1427
1444
1456
1467
1472
1478
1485
1494
1501
1502
1501
1499
1504
1509
1518
1518
1514
1513
1508
1509
1521
1526
1521
1520
1508
1502
1501
1499
1499
1501
1509
1509
1508
1504
1501
1506
1516
1520
1523
1514
1508
1518
1520
1518
1513
1518
1514
1518
1520
1523
1521
1520
1521
1526
1528
1531
1526
1530
1528
1528
1530
1528
1523
1525
1526
1530
1535
1537
1528
1526
1526
1531
1535
1537
1538
1531
1526
1523
1528
1531
1537
1538
1535
1535
1538
1530
1533
1535
1531
1537
1542
1537
1537
1538
1538
1542
1543
1540
1538
1537
1537
1531
1537
1538
1537
1535
1537
1537
1531
1533
1535
1535
1538
1537
1537
1537
1540
1535
1533
1537
1538
1540
1540
1538
1537
1533
1531
1531
1537
1537
1533
1538
1537
1531
1528
1537
1537
1535
1533
1531
1528
1528
1533
1545
1538
1530
1528
1528
1530
1530
1530
1530
1531
1533
1537
1537
1537
1533
1531
1535
1531
1535
1530
1525
1523
1530
1531
1531
1528
1530
1535
1537
1531
1533
1538
1533
1533
1533
1533
1537
1538
1528
1520
1482
1417
1371
1347
1304
1232
1226
1316
1456
1552
1596
1596
1559
1526
1514
1506
1506
1509
1509
1514
1509
1504
1502
1506
1514
1511
1508
1509
1513
1509
1509
1509
1508
1504
1508
1514
1504
1497
1499
1504
1501
1492
1487
1487
1489
1485
1485
1487
1487
1484
1482
1473
1468
1465
1465
1461
1460
1455
1451
1441
1426
1417
1403
1403
1391
1384
1378
1369
1367
1357
1349
1349
1347
1337
1326
1320
1321
1328
1330
1338
1350
1367
1383
1398
1415
1426
1441
1455
1472
1478
1485
1496
1502
1513
1518
1511
1511
1514
1513
1516
1525
1521
1520
1518
1520
1514
1514
1511
1509
1513
1518
1518
1518
1514
1513
1514
1516
1514
1521
1520
1516
1521
1518
1521
1528
1530
1530
1528
1525
1521
1521
1520
1521
1525
1526
1528
1526
1530
1530
1533
1535
1533
1530
1528
1535
1537
1537
1538
1537
1535
1535
1537
1537
1537
1540
1538
1538
1542
1540
1542
1540
1545
1543
1540
1538
1537
1537
1537
1537
1543
1543
1542
1547
1547
1549
1550
1549
1545
1547
1543
1550
1545
1549
1547
1540
1540
1540
1542
1547
1547
1550
1549
1545
1545
1542
1542
1549
1547
1543
1542
1545
1545
1552
1550
1543
1545
1543
1549
1550
1549
1549
1550
1549
1545
1550
1550
1550
1550
1549
1547
1547
1545
1547
1550
1549
1555
1554
1549
1549
1550
1552
1549
1547
1542
1550
1549
1549
1555
1550
1555
1549
1547
1542
1540
1540
1547
1547
1549
1549
1550
1552
1555
1552
1549
1549
1555
1549
1549
1550
1550
1555
1554
1547
1533
1494
1432
1386
1364
1323
1246
1227
1314
1455
1561
1605
1610
1574
1547
1535
1538
1538
1528
1535
1528
1530
1537
1535
1528
1528
1528
1525
1526
1525
1523
1525
1525
1530
1528
1530
1520
1513
1514
1509
1511
1514
1513
1509
1509
1508
1504
1504
1501
1497
1496
1494
1487
1485
1482
1480
1473
1468
1467
1458
1453
1446
1437
1426
1419
1410
1405
1391
1384
1378
1369
1362
1359
1350
1345
1342
1338
1335
1337
1349
1357
1371
1383
1393
1403
1417
1441
1460
1473
1480
1485
1490
1492
1497
1513
1514
1516
1521
1521
1525
1525
1520
1520
1520
1523
1521
1520
1520
1521
1523
1525
1523
1521
1525
1523
1525
1525
1528
1533
1537
1533
1531
1530
1526
1528
1530
1530
1531
1533
1535
1531
1533
1540
1537
1537
1535
1540
1549
1540
1540
1538
1538
1540
1538
1540
1543
1543
1543
1542
1543
1537
1542
1545
1552
1545
1545
1545
1547
1542
1542
1538
1542
1545
1542
1542
1545
1542
1537
1542
1547
1547
1545
1543
1542
1540
1540
1542
1547
1545
1545
1547
1537
1537
1540
1543
1549
1542
1537
1538
1540
1542
1540
1540
1540
1538
1537
1547
1542
1542
1538
1538
1538
1540
1540
1542
1542
1538
1535
1537
1537
1538
1533
1537
1535
1537
1538
1538
1537
1537
1533
1528
1530
1531
1533
1533
1537
1537
1537
1537
1533
1537
1540
1538
1535
1530
1526
1528
1535
1533
1543
1533
1526
1523
1525
1525
1520
1521
1523
1526
1528
1528
1526
1526
1525
1521
1528
1526
1525
1521
1525
1525
1525
1523
1523
1518
1504
1468
1410
1357
1342
1333
1272
1239
1308
1420
1526
1590
1596
1562
1518
1506
1504
1499
1499
1494
1497
1501
1504
1501
1501
1497
1497
1497
1497
1494
1496
1497
1494
1499
1490
1490
1490
1487
1489
1487
1484
1482
1478
1478
1473
1475
1477
1473
1473
1470
1472
1467
1463
1458
1458
1453
1451
1449
1448
1444
1432
1419
1410
1407
1403
1396
1390
1384
1371
1362
1359
1355
1350
1345
1342
1337
1328
1335
1335
1338
1347
1352
1362
1376
1390
1402
1417
1431
1439
1451
1460
1470
1468
1482
1485
1485
1489
1494
1494
1494
1496
1501
1506
1508
1508
1504
1501
1501
1504
1499
1499
1497
1497
1496
1496
1494
1497
1497
1496
1501
1502
1501
1499
1494
1492
1494
1501
1504
1501
1501
1501
1501
1506
1506
1506
1513
1506
1506
1506
1508
1509
1516
1514
1513
1511
1509
1511
1511
1509
1509
1509
1520
1518
1516
1520
1520
1514
1511
1513
1513
1518
1514
1516
1518
1518
1516
1516
1520
1521
1521
1523
1518
1513
1509
1513
1516
1514
1516
1521
1523
1521
1516
1516
1520
1518
1516
1518
1520
1516
1520
1518
1516
1518
1516
1525
1521
1520
1520
1520
1518
1516
1514
1516
1514
1514
1516
1514
1518
1520
1520
1523
1514
1516
1516
1516
1514
1518
1514
1514
1516
1516
1516
1518
1518
1518
1516
1520
1518
1516
1514
1514
1518
1516
1514
1516
1520
1521
1523
1518
1514
1513
1506
1509
1508
1509
1514
1518
1514
1521
1516
1516
1514
1514
1521
1514
1514
1514
1514
1513
1514
1518
1521
1516
1504
1468
1402
1352
1335
1316
1248
1214
1273
1391
1497
1564
1584
1555
1521
1506
1499
1501
1496
1496
1497
1501
1499
1501
1499
1501
1497
1497
1497
1496
1497
1496
1496
1504
1496
1492
1492
1492
1494
1492
1489
1487
1485
1482
1485
1484
1482
1480
1478
1470
1475
1472
1470
1468
1465
1460
1456
1453
1448
1446
1441
1432
1426
1419
1412
1398
1393
1386
1383
1376
1371
1362
1355
1352
1347
1338
1337
1338
1337
1342
1349
1355
1364
1376
1386
1402
1412
1426
1439
1449
1458
1470
1470
1484
1489
1492
1492
1499
1497
1499
1501
1501
1501
1501
1504
1508
1506
1504
1509
1502
1506
1502
1502
1504
1504
1504
1506
1508
1504
1502
1504
1506
1506
1506
1509
1506
1506
1506
1508
1508
1508
1509
1509
1509
1511
1513
1514
1516
1513
1513
1514
1518
1516
1514
1513
1514
1520
1520
1521
1521
1521
1526
1520
1521
1521
1520
1523
1521
1521
1521
1525
1523
1520
1520
1521
1523
1521
1528
1523
1520
1523
1523
1521
1521
1523
1525
1521
1520
1521
1521
1521
1520
1521
1523
1521
1521
1521
1520
1520
1521
1521
1521
1520
1521
1526
1521
1521
1521
1521
1521
1520
1520
1518
1518
1518
1525
1520
1521
1521
1520
1525
1520
1520
1521
1520
1516
1520
1520
1518
1518
1514
1516
1516
1516
1516
1514
1520
1516
1516
1518
1516
1516
1520
1521
1518
1516
1514
1514
1511
1511
1514
1514
1516
1513
1511
1508
1506
1506
1506
1508
1511
1514
1514
1520
1513
1514
1516
1514
1518
1516
1514
1514
1513
1516
1514
1520
1521
1523
1511
1497
1439
1381
1347
1328
1287
1217
1222
1320
1439
1528
1578
1569
1531
1508
1499
1497
1490
1489
1492
1494
1487
1489
1492
1489
1489
1489
1489
1494
1496
1494
1490
1490
1485
1485
1484
1482
1484
1485
1482
1482
1482
1477
1473
1478
1475
1473
1473
1468
1468
1468
1463
1463
1460
1455
1451
1446
1443
1437
1427
1426
1417
1410
1405
1398
1391
1384
1374
1369
1359
1355
1349
1343
1337
1333
1328
1328
1328
1330
1333
1343
1350
1359
1371
1388
1400
1407
1427
1439
1453
1460
1468
1477
1484
1487
1492
1496
1501
1499
1501
1502
1501
1508
1501
1501
1502
1502
1502
1504
1504
1504
1506
1502
1504
1504
1508
1508
1506
1511
1509
1509
1508
1506
1509
1511
1509
1509
1513
1513
1514
1514
1514
1514
1516
1518
1520
1516
1521
1521
1521
1520
1521
1526
1525
1526
1531
1526
1528
1528
1528
1531
1528
1531
1530
1530
1528
1533
1533
1533
1531
1533
1540
1535
1533
1537
1533
1535
1535
1537
1538
1537
1537
1538
1538
1538
1540
1542
1542
1540
1542
1542
1542
1540
1542
1542
1542
1542
1540
1542
1542
1540
1542
1540
1547
1547
1545
1543
1545
1542
1545
1545
1543
1542
1542
1552
1547
1547
1547
1543
1547
1547
1549
1550
1549
1547
1549
1543
1547
1547
1545
1552
1547
1549
1547
1549
1547
1549
1547
1549
1549
1545
1547
1547
1549
1550
1547
1549
1549
1547
1547
1545
1545
1549
1549
1550
1550
1543
1542
1543
1542
1542
1542
1543
1547
1547
1550
1549
1549
1550
1547
1549
1547
1550
1555
1549
1549
1547
1549
1554
1555
1554
1540
1496
1436
1391
1367
1343
1277
1249
1314
1436
1540
1603
1619
1588
1554
1538
1537
1535
1528
1526
1528
1530
1533
1535
1535
1531
1530
1530
1528
1531
1531
1530
1533
1530
1528
1533
1528
1528
1525
1526
1526
1525
1521
1520
1518
1514
1516
1513
1509
1508
1508
1511
1504
1501
1499
1496
1492
1487
1484
1477
1473
1472
1465
1456
1448
1443
1432
1420
1415
1410
1403
1400
1391
1388
1383
1378
1376
1376
1371
1376
1381
1390
1400
1410
1420
1432
1446
1460
1473
1485
1492
1501
1506
1514
1521
1523
1526
1528
1530
1530
1533
1535
1533
1535
1535
1537
1538
1537
1538
1538
1542
1538
1538
1540
1538
1538
1540
1542
1540
1540
1542
1542
1543
1543
1543
1543
1547
1545
1547
1543
1547
1543
1545
1549
1547
1547
1549
1549
1550
1549
1554
1555
1554
1555
1555
1555
1557
1557
1559
1559
1557
1561
1561
1564
1562
1561
1561
1562
1562
1561
1561
1561
1561
1562
1562
1566
1561
1561
1562
1564
1562
1561
1564
1562
1562
1561
1561
1559
1562
1561
1559
1562
1561
1561
1561
1567
1564
1566
1566
1569
1564
1564
1567
1567
1564
1564
1569
1566
1564
1566
1567
1564
1564
1564
1567
1566
1564
1567
1564
1566
1566
1564
1569
1566
1564
1564
1564
1564
1564
1564
1564
1566
1561
1564
1564
1566
1564
1566
1571
1564
1567
1566
1566
1566
1564
1564
1567
1569
1569
1571
1564
1562
1561
1561
1561
1559
1559
1562
1562
1566
1567
1564
1566
1566
1566
1569
1564
1562
1564
1566
1564
1567
1567
1573
1569
1561
1538
1482
1426
1395
1373
1313
1253
1282
1390
1513
1588
1624
1608
1576
1555
1549
1547
1547
1542
1542
1543
1547
1543
1547
1547
1547
1545
1543
1543
1542
1542
1540
1540
1540
1542
1542
1542
1543
1542
1543
1542
1540
1537
1537
1537
1533
1528
1523
1525
1516
1514
1514
1511
1509
1508
1504
1499
1492
1487
1484
1480
1473
1467
1455
1446
1441
1434
1426
1420
1414
1405
1400
1395
1390
1384
1381
1378
1378
1379
1384
1390
1400
1412
1427
1437
1449
1460
1472
1484
1494
1499
1508
1513
1521
1526
1528
1531
1530
1528
1531
1533
1533
1538
1535
1537
1537
1538
1543
1537
1533
1537
1537
1535
1533
1537
1538
1537
1533
1538
1537
1537
1533
1533
1542
1537
1537
1540
1538
1537
1537
1537
1538
1538
1537
1538
1540
1540
1540
1542
1542
1542
1542
1540
1542
1542
1540
1542
1545
1545
1547
1550
1540
1540
1542
1542
1547
1545
1540
1542
1543
1540
1540
1543
1545
1542
1542
1549
1542
1545
1542
1545
1545
1543
1543
1547
1543
1545
1547
1549
1547
1545
1545
1552
1549
1547
1545
1545
1545
1547
1549
1547
1547
1543
1543
1545
1547
1545
1543
1545
1543
1542
1545
1542
1542
1542
1542
1542
1542
1542
1549
1542
1542
1542
1542
1542
1542
1542
1540
1540
1542
1542
1542
1542
1538
1540
1547
1542
1542
1542
1540
1540
1540
1542
1542
1540
1538
1538
1542
1540
1542
1549
1542
1538
1538
1537
1537
1533
1535
1537
1538
1542
1542
1542
1540
1542
1540
1538
1542
1542
1542
1540
1540
1540
1547
1549
1543
1533
1514
1455
1405
1371
1357
1314
1248
1263
1359
1473
1554
1596
1583
1547
1531
1521
1523
1528
1518
1523
1523
1520
1521
1521
1521
1520
1521
1516
1514
1518
1520
1521
1521
1521
1520
1518
1518
1516
1516
1514
1514
1514
1509
1509
1518
1509
1508
1506
1506
1502
1502
1499
1497
1494
1490
1496
1487
1484
1480
1473
1465
1465
1456
1453
1446
1436
1431
1424
1415
1408
1403
1396
1391
1386
1379
1374
1371
1371
1378
1381
1384
1393
1403
1417
1431
1444
1455
1465
1472
1482
1490
1497
1501
1508
1513
1514
1518
1520
1520
1523
1525
1528
1526
1531
1528
1528
1525
1526
1528
1526
1526
1528
1528
1526
1526
1528
1528
1526
1528
1533
1528
1528
1526
1526
1525
1526
1526
1528
1528
1528
1528
1528
1531
1531
1533
1533
1533
1533
1535
1533
1533
1533
1533
1537
1537
1533
1533
1537
1537
1537
1535
1538
1537
1537
1537
1537
1535
1537
1533
1533
1537
1537
1542
1537
1538
1538
1537
1537
1535
1531
1535
1537
1537
1537
1535
1537
1535
1530
1540
1537
1535
1531
1531
1528
1528
1528
1530
1533
1535
1535
1535
1538
1537
1531
1531
1528
1531
1533
1531
1531
1530
1528
1526
1526
1526
1526
1523
1525
1526
1523
1526
1525
1526
1526
1523
1521
1530
1521
1523
1521
1520
1525
1520
1520
1523
1518
1520
1518
1518
1516
1514
1513
1514
1514
1514
1518
1514
1523
1516
1514
1514
1513
1516
1518
1521
1520
1513
1508
1508
1508
1506
1508
1508
1508
1509
1513
1513
1509
1508
1509
1508
1509
1508
1504
1514
1508
1506
1506
1509
1508
1504
1487
1444
1383
1345
1333
1301
1224
1219
1304
1410
1506
1564
1564
1523
1487
1477
1478
1480
1475
1473
1477
1480
1482
1478
1478
1473
1473
1475
1478
1475
1480
1475
1475
1473
1472
1472
1468
1470
1470
1467
1467
1463
1460
1458
1458
1460
1455
1455
1453
1451
1449
1451
1441
1443
1441
1437
1432
1426
1419
1417
1415
1408
1403
1400
1393
1390
1378
1373
1359
1357
1349
1342
1338
1333
1330
1326
1323
1320
1323
1330
1335
1343
1354
1359
1373
1384
1396
1408
1424
1432
1432
1448
1458
1461
1468
1465
1470
1475
1475
1480
1480
1478
1482
1489
1496
1492
1496
1494
1485
1485
1485
1477
1482
1487
1492
1492
1487
1487
1497
1494
1494
1489
1485
1487
1492
1494
1492
1496
1482
1473
1472
1477
1478
1487
1492
1490
1490
1496
1494
1492
1499
1501
1499
1499
1497
1494
1496
1509
1518
1514
1513
1521
1525
1525
1514
1499
1501
1501
1502
1516
1521
1514
1499
1494
1501
1521
1520
1516
1509
1508
1521
1513
1508
1511
1516
1525
1516
1509
1508
1509
1518
1525
1520
1514
1511
1509
1520
1520
1526
1533
1542
1540
1523
1511
1499
1501
1508
1514
1521
1523
1518
1511
1509
1525
1523
1514
1514
1520
1528
1523
1521
1520
1521
1535
1525
1528
1521
1514
1521
1525
1528
1530
1530
1516
1506
1508
1514
1523
1528
1535
1528
1535
1540
1526
1513
1525
1537
1533
1523
1508
1509
1514
1520
1531
1533
1520
1509
1513
1525
1523
1528
1537
1535
1531
1530
1538
1540
1542
1542
1535
1525
1528
1528
1526
1511
1484
1439
1403
1393
1371
1318
1256
1278
1381
1470
1542
1567
1545
1525
1508
1499
1501
1496
1502
1508
1509
1509
1511
1520
1514
1508
1506
1506
1509
1516
1520
1514
1504
1494
1501
1506
1509
1508
1497
1502
1508
1497
1492
1487
1489
1489
1494
1499
1496
1490
1499
1487
1484
1487
1482
1473
1473
1468
1470
1472
1470
1463
1456
1448
1444
1429
1410
1414
1412
1417
1414
1400
1390
1384
1383
1383
1383
1384
1384
1386
1395
1403
1415
1444
1460
1463
1467
1473
1478
1487
1494
1501
1508
1511
1516
1521
1525
1525
1528
1533
1540
1540
1535
1533
1531
1533
1538
1535
1530
1533
1526
1526
1528
1533
1538
1537
1538
1540
1547
1549
1545
1540
1538
1542
1542
1547
1542
1540
1542
1540
1537
1537
1537
1538
1537
1538
1542
1542
1543
1542
1542
1552
1555
1554
1547
1540
1538
1542
1545
1549
1549
1543
1547
1543
1542
1542
1549
1552
1554
1552
1555
1554
1552
1550
1542
1542
1545
1547
1555
1549
1549
1549
1552
1550
1549
1549
1555
1552
1547
1545
1549
1549
1549
1549
1554
1549
1549
1547
1547
1547
1549
1552
1552
1549
1545
1547
1549
1550
1547
1545
1549
1547
1547
1542
1542
1543
1549
1547
1550
1549
1550
1547
1543
1547
1547
1547
1547
1547
1542
1542
1542
1540
1550
1545
1543
1545
1550
1555
1549
1547
1543
1540
1535
1531
1540
1547
1547
1543
1538
1538
1537
1531
1528
1537
1535
1538
1540
1542
1540
1542
1542
1540
1535
1531
1535
1537
1535
1531
1530
1533
1537
1545
1540
1526
1490
1431
1383
1361
1331
1248
1219
1294
1412
1520
1581
1591
1561
1526
1514
1513
1514
1516
1511
1513
1514
1514
1521
1516
1514
1514
1513
1511
1509
1511
1508
1509
1511
1508
1508
1508
1506
1508
1513
1508
1508
1502
1504
1499
1501
1496
1496
1496
1490
1489
1490
1487
1487
1482
1482
1478
1475
1470
1465
1463
1455
1449
1444
1437
1432
1417
1415
1410
1405
1400
1391
1388
1383
1378
1376
1374
1371
1373
1371
1378
1390
1391
1405
1417
1431
1441
1455
1465
1473
1482
1494
1497
1504
1506
1513
1514
1514
1520
1520
1523
1523
1523
1525
1521
1525
1525
1526
1523
1525
1526
1523
1526
1528
1528
1526
1526
1526
1525
1525
1528
1528
1526
1526
1523
1530
1526
1526
1528
1528
1528
1530
1526
1531
1533
1530
1533
1535
1533
1533
1538
1542
1537
1540
1538
1538
1538
1537
1540
1542
1545
1543
1542
1542
1542
1545
1545
1543
1545
1545
1547
1549
1545
1547
1549
1547
1549
1543
1550
1549
1547
1549
1547
1549
1550
1550
1550
1550
1549
1554
1547
1549
1549
1547
1555
1550
1550
1549
1549
1549
1547
1549
1550
1549
1550
1549
1550
1552
1550
1550
1555
1549
1549
1547
1547
1552
1549
1547
1547
1549
1550
1550
1547
1549
1549
1547
1549
1549
1550
1549
1550
1549
1549
1547
1547
1549
1549
1555
1549
1549
1550
1549
1550
1549
1549
1547
1547
1550
1549
1549
1547
1545
1540
1547
1542
1542
1542
1543
1542
1543
1547
1545
1542
1545
1543
1543
1542
1542
1542
1545
1540
1542
1543
1550
1552
1545
1531
1489
1432
1398
1379
1345
1275
1255
1333
1448
1537
1591
1583
1550
1535
1523
1523
1523
1521
1523
1530
1526
1525
1525
1523
1525
1523
1525
1525
1521
1520
1521
1521
1520
1520
1520
1525
1518
1514
1514
1514
1514
1514
1514
1509
1509
1506
1504
1506
1502
1501
1501
1499
1494
1492
1490
1487
1484
1478
1473
1468
1465
1458
1449
1444
1437
1431
1424
1419
1414
1407
1402
1393
1390
1386
1384
1379
1378
1384
1384
1395
1403
1415
1424
1432
1451
1460
1472
1478
1487
1497
1501
1506
1508
1513
1523
1518
1516
1521
1525
1521
1525
1525
1523
1521
1523
1521
1525
1525
1521
1521
1523
1521
1525
1521
1525
1525
1525
1523
1525
1525
1525
1528
1523
1526
1528
1526
1528
1526
1523
1526
1526
1525
1528
1528
1528
1525
1530
1535
1530
1530
1531
1528
1530
1530
1530
1531
1533
1528
1531
1531
1533
1533
1531
1533
1530
1530
1533
1533
1531
1533
1533
1537
1535
1528
1530
1531
1531
1531
1537
1540
1537
1531
1531
1530
1528
1528
1530
1528
1531
1528
1533
1525
1528
1531
1531
1533
1531
1528
1528
1528
1528
1530
1528
1526
1528
1528
1531
1526
1525
1523
1526
1526
1528
1526
1525
1521
1521
1525
1521
1521
1521
1523
1521
1521
1525
1521
1521
1520
1523
1521
1521
1520
1518
1520
1521
1520
1521
1521
1521
1523
1520
1518
1518
1520
1523
1518
1520
1520
1521
1528
1513
1511
1509
1508
1508
1509
1509
1513
1516
1518
1518
1516
1514
1514
1516
1520
1516
1514
1518
1516
1516
1509
1518
1525
1518
1511
1482
1424
1376
1352
1335
1277
1222
1263
1383
1492
1554
1571
1545
1518
1508
1499
1506
1494
1496
1492
1496
1501
1499
1499
1496
1494
1496
1497
1494
1492
1492
1489
1497
1490
1492
1492
1489
1490
1489
1485
1487
1485
1485
1485
1482
1482
1482
1475
1467
1473
1472
1470
1465
1461
1458
1456
1453
1448
1443
1439
1431
1427
1426
1417
1403
1391
1383
1379
1376
1367
1362
1355
1345
1343
1340
1331
1335
1337
1340
1345
1354
1359
1373
1388
1402
1419
1431
1437
1451
1465
1470
1472
1485
1490
1496
1497
1496
1501
1504
1502
1501
1502
1508
1506
1504
1506
1506
1508
1509
1509
1508
1504
1501
1504
1509
1509
1506
1504
1506
1508
1509
1508
1506
1511
1509
1511
1513
1513
1514
1513
1513
1514
1518
1514
1520
1514
1514
1514
1514
1514
1518
1518
1518
1514
1516
1520
1521
1521
1521
1523
1530
1521
1521
1521
1520
1523
1521
1523
1523
1528
1526
1520
1521
1526
1520
1520
1526
1523
1523
1525
1523
1525
1526
1528
1528
1521
1525
1530
1526
1526
1526
1525
1528
1526
1526
1523
1521
1520
1531
1526
1520
1520
1525
1530
1526
1526
1525
1520
1514
1521
1525
1526
1526
1525
1525
1528
1526
1521
1521
1530
1526
1525
1525
1521
1523
1521
1523
1523
1521
1523
1525
1521
1523
1525
1523
1526
1523
1523
1523
1521
1518
1523
1525
1526
1526
1518
1523
1520
1516
1514
1514
1523
1526
1526
1525
1526
1526
1528
1526
1521
1518
1514
1521
1516
1514
1514
1514
1516
1526
1526
1516
1482
1420
1373
1343
1308
1236
1198
1261
1403
1526
1584
1588
1555
1528
1511
1508
1506
1501
1501
1504
1501
1501
1508
1508
1504
1502
1501
1501
1501
1501
1499
1499
1501
1499
1506
1497
1497
1496
1494
1497
1494
1487
1487
1494
1487
1485
1484
1482
1484
1482
1468
1468
1465
1463
1460
1456
1451
1446
1441
1432
1431
1426
1419
1412
1398
1388
1379
1371
1367
1361
1347
1345
1340
1335
1331
1331
1330
1328
1338
1345
1361
1371
1384
1402
1415
1426
1443
1458
1470
1480
1489
1496
1502
1514
1511
1511
1508
1508
1511
1509
1509
1516
1516
1516
1520
1516
1520
1523
1520
1521
1518
1520
1520
1520
1521
1521
1521
1523
1525
1523
1525
1528
1528
1526
1526
1533
1531
1531
1530
1530
1531
1537
1537
1537
1535
1537
1540
1535
1537
1538
1537
1542
1542
1542
1542
1540
1540
1542
1543
1543
1543
1547
1550
1543
1542
1542
1542
1545
1542
1545
1543
1543
1542
1545
1545
1547
1547
1549
1547
1547
1547
1550
1549
1545
1547
1549
1547
1547
1547
1549
1549
1549
1547
1547
1549
1547
1547
1547
1549
1547
1545
1545
1543
1547
1547
1555
1550
1550
1547
1549
1550
1550
1550
1547
1543
1542
1545
1552
1557
1561
1561
1559
1549
1550
1537
1538
1540
1543
1547
1549
1549
1543
1547
1550
1549
1545
1537
1537
1542
1545
1549
1549
1549
1535
1521
1523
1526
1533
1538
1542
1538
1533
1537
1543
1547
1542
1542
1542
1545
1547
1542
1542
1549
1552
1559
1554
1547
1537
1521
1478
1410
1357
1335
1306
1231
1243
1350
1501
1602
1637
1632
1583
1540
1523
1518
1518
1514
1513
1520
1523
1520
1520
1523
1523
1521
1521
1525
1521
1521
1521
1520
1521
1518
1520
1518
1518
1516
1518
1513
1513
1513
1509
1509
1506
1506
1502
1501
1494
1501
1492
1490
1487
1482
1473
1475
1470
1465
1458
1448
1444
1437
1431
1419
1412
1402
1393
1388
1381
1371
1361
1357
1355
1349
1345
1345
1343
1349
1355
1364
1371
1386
1402
1414
1431
1444
1455
1467
1475
1489
1497
1501
1508
1513
1514
1518
1520
1530
1530
1531
1535
1531
1525
1520
1525
1525
1521
1521
1525
1528
1530
1528
1528
1533
1526
1525
1526
1526
1526
1526
1528
1526
1526
1528
1528
1531
1533
1537
1537
1538
1533
1535
1537
1540
1540
1538
1537
1538
1540
1540
1542
1545
1543
1542
1543
1543
1543
1545
1543
1547
1542
1545
1547
1545
1547
1549
1552
1549
1550
1547
1543
1547
1543
1547
1549
1547
1547
1547
1549
1549
1549
1549
1552
1547
1547
1549
1547
1547
1547
1547
1549
1547
1547
1547
1547
1549
1547
1547
1545
1543
1543
1547
1547
1543
1545
1547
1545
1547
1547
1547
1540
1543
1543
1538
1543
1543
1547
1549
1549
1540
1547
1547
1550
1545
1543
1549
1545
1543
1550
1547
1547
1545
1547
1542
1540
1545
1547
1549
1549
1542
1538
1545
1542
1538
1535
1538
1542
1545
1543
1545
1547
1545
1545
1545
1542
1543
1545
1547
1545
1543
1543
1547
1552
1545
1533
1496
1426
1376
1352
1338
1272
1234
1306
1446
1566
1624
1636
1610
1586
1564
1538
1508
1499
1508
1528
1530
1525
1520
1513
1513
1535
1543
1547
1535
1513
1508
1516
1514
1506
1509
1516
1509
1511
1514
1516
1514
1514
1509
1499
1496
1504
1508
1509
1508
1502
1494
1480
1475
1487
1487
1475
1470
1460
1455
1453
1448
1443
1426
1424
1415
1405
1400
1396
1391
1378
1367
1362
1355
1345
1337
1338
1340
1347
1347
1361
1378
1390
1405
1417
1424
1437
1453
1468
1485
1499
1501
1501
1506
1513
1516
1516
1516
1521
1523
1523
1525
1525
1528
1525
1523
1528
1531
1533
1535
1531
1528
1523
1523
1521
1521
1526
1531
1531
1533
1533
1533
1537
1537
1538
1540
1535
1528
1525
1514
1518
1530
1535
1547
1549
1530
1516
1520
1530
1521
1521
1526
1535
1540
1549
1550
1545
1537
1540
1547
1545
1542
1530
1525
1533
1537
1540
1542
1549
1549
1547
1542
1538
1538
1542
1549
1545
1545
1547
1543
1543
1540
1542
1545
1549
1547
1549
1550
1549
1549
1543
1552
1549
1549
1550
1547
1547
1549
1547
1550
1547
1542
1543
1543
1549
1545
1547
1552
1549
1547
1549
1542
1542
1542
1545
1543
1545
1540
1537
1542
1543
1549
1552
1552
1542
1535
1537
1543
1543
1543
1543
1540
1540
1540
1550
1543
1542
1542
1542
1547
1549
1550
1543
1530
1526
1531
1535
1533
1542
1543
1549
1543
1542
1540
1540
1540
1542
1540
1542
1542
1542
1545
1543
1537
1514
1455
1384
1350
1331
1275
1217
1261
1391
1523
1596
1619
1595
1554
1538
1531
1531
1526
1523
1521
1525
1525
1526
1523
1525
1520
1521
1523
1523
1526
1520
1514
1514
1513
1513
1511
1509
1508
1508
1506
1506
1504
1501
1499
1496
1504
1499
1497
1494
1490
1487
1487
1482
1478
1473
1470
1467
1460
1453
1446
1443
1432
1426
1419
1410
1402
1393
1384
1378
1371
1367
1359
1350
1349
1347
1343
1345
1350
1355
1364
1371
1384
1400
1417
1431
1441
1458
1473
1485
1490
1499
1506
1509
1514
1518
1521
1521
1521
1525
1525
1526
1525
1526
1526
1531
1525
1526
1526
1526
1526
1528
1526
1528
1526
1523
1523
1528
1525
1525
1525
1523
1525
1525
1525
1523
1523
1525
1528
1528
1528
1528
1537
1528
1526
1531
1528
1531
1533
1533
1533
1535
1533
1537
1537
1537
1538
1537
1542
1538
1538
1538
1537
1537
1537
1540
1540
1542
1542
1538
1540
1542
1540
1537
1540
1542
1538
1538
1538
1538
1540
1540
1540
1537
1537
1537
1540
1537
1537
1535
1540
1542
1540
1540
1537
1538
1538
1537
1537
1538
1537
1542
1535
1537
1537
1537
1537
1538
1537
1535
1537
1535
1533
1535
1533
1533
1533
1538
1537
1535
1533
1533
1533
1537
1537
1535
1533
1535
1533
1535
1538
1537
1537
1535
1537
1533
1531
1530
1531
1535
1533
1530
1530
1528
1528
1526
1523
1525
1523
1526
1530
1533
1533
1535
1531
1537
1531
1528
1528
1528
1535
1528
1528
1528
1528
1535
1538
1531
1513
1456
1395
1357
1338
1297
1222
1234
1328
1458
1554
1602
1591
1547
1521
1514
1514
1513
1506
1504
1508
1509
1509
1508
1509
1508
1509
1508
1509
1506
1508
1508
1504
1501
1501
1508
1499
1499
1499
1497
1494
1492
1494
1492
1490
1489
1487
1484
1482
1480
1473
1470
1472
1468
1463
1460
1455
1451
1446
1441
1436
1431
1420
1412
1405
1396
1391
1378
1376
1373
1366
1357
1350
1345
1345
1343
1343
1347
1352
1354
1361
1373
1383
1395
1410
1426
1437
1453
1461
1470
1477
1482
1485
1487
1499
1499
1497
1501
1501
1502
1502
1504
1508
1502
1506
1506
1506
1506
1504
1506
1509
1504
1504
1506
1501
1502
1506
1506
1504
1502
1499
1504
1501
1501
1499
1499
1504
1504
1501
1501
1501
1504
1504
1504
1506
1508
1506
1506
1506
1506
1506
1506
1509
1508
1508
1509
1513
1511
1513
1508
1509
1509
1509
1520
1514
1514
1511
1513
1513
1509
1511
1513
1513
1509
1509
1511
1509
1514
1513
1518
1513
1514
1513
1511
1509
1511
1509
1509
1513
1509
1509
1513
1514
1514
1513
1513
1509
1509
1513
1509
1511
1513
1513
1509
1509
1509
1514
1511
1509
1514
1509
1509
1508
1509
1511
1513
1509
1513
1508
1509
1511
1508
1514
1509
1508
1508
1509
1509
1508
1508
1509
1511
1514
1514
1513
1509
1511
1508
1509
1508
1511
1514
1518
1516
1513
1509
1509
1508
1504
1504
1502
1506
1509
1509
1511
1509
1506
1508
1508
1506
1506
1508
1509
1508
1509
1520
1514
1511
1506
1487
1436
1383
1355
1342
1297
1224
1243
1326
1419
1506
1561
1555
1509
1489
1487
1485
1487
1485
1485
1490
1492
1494
1492
1494
1494
1492
1489
1494
1490
1492
1489
1490
1489
1487
1487
1487
1487
1489
1487
1485
1484
1480
1482
1482
1482
1477
1473
1473
1473
1472
1468
1465
1465
1461
1453
1456
1449
1444
1443
1437
1431
1424
1417
1412
1405
1400
1393
1388
1383
1376
1364
1362
1362
1359
1357
1359
1359
1362
1369
1378
1390
1400
1410
1424
1432
1449
1458
1468
1475
1485
1489
1494
1501
1506
1508
1509
1513
1513
1514
1514
1514
1516
1518
1518
1518
1516
1520
1518
1523
1521
1520
1521
1520
1526
1520
1521
1523
1525
1525
1523
1523
1521
1521
1523
1521
1523
1526
1526
1523
1528
1526
1528
1526
1526
1528
1528
1530
1530
1528
1531
1533
1533
1537
1537
1537
1537
1538
1538
1537
1537
1538
1540
1538
1540
1542
1542
1547
1542
1540
1542
1542
1545
1542
1543
1543
1545
1542
1545
1545
1543
1543
1545
1552
1547
1547
1545
1545
1545
1547
1547
1545
1547
1547
1547
1547
1547
1549
1549
1550
1549
1550
1550
1550
1547
1549
1550
1549
1549
1549
1549
1550
1549
1550
1549
1550
1549
1550
1549
1549
1549
1549
1549
1549
1547
1550
1555
1549
1549
1549
1550
1549
1550
1554
1554
1554
1552
1552
1555
1554
1554
1550
1559
1554
1555
1555
1554
1549
1547
1547
1547
1547
1545
1547
1550
1550
1550
1552
1550
1549
1549
1550
1550
1547
1550
1550
1550
1550
1550
1557
1562
1559
1547
1509
1448
1402
1376
1343
1280
1232
1290
1403
1504
1578
1596
1573
1545
1535
1533
1531
1528
1528
1531
1533
1535
1531
1533
1535
1535
1533
1530
1538
1530
1533
1533
1530
1528
1531
1530
1528
1528
1526
1525
1525
1525
1521
1523
1523
1523
1520
1516
1514
1516
1513
1511
1509
1508
1502
1504
1494
1492
1487
1482
1475
1473
1468
1458
1453
1444
1436
1431
1424
1417
1410
1398
1400
1396
1393
1390
1390
1391
1395
1402
1412
1424
1432
1444
1458
1470
1478
1499
1504
1513
1520
1523
1528
1533
1537
1540
1542
1542
1542
1543
1543
1545
1545
1545
1545
1545
1547
1547
1547
1549
1547
1547
1547
1549
1554
1549
1549
1550
1549
1549
1550
1549
1550
1549
1549
1547
1550
1552
1552
1549
1557
1554
1554
1554
1555
1554
1555
1554
1555
1555
1554
1555
1555
1557
1559
1559
1559
1557
1559
1559
1559
1559
1561
1562
1561
1561
1559
1559
1562
1561
1561
1562
1561
1564
1562
1562
1562
1561
1564
1561
1561
1561
1566
1569
1561
1562
1562
1562
1561
1562
1564
1566
1564
1564
1564
1561
1564
1562
1562
1569
1562
1562
1561
1566
1562
1562
1564
1562
1562
1561
1561
1562
1564
1564
1562
1562
1562
1561
1561
1561
1561
1562
1562
1561
1561
1561
1562
1557
1561
1559
1562
1562
1561
1561
1561
1557
1555
1564
1561
1562
1557
1555
1562
1555
1559
1555
1555
1557
1557
1557
1555
1559
1557
1557
1555
1555
1549
1552
1561
1555
1557
1559
1552
1550
1549
1549
1549
1545
1545
1550
1552
1555
1554
1549
1549
1552
1550
1552
1552
1552
1550
1547
1549
1547
1549
1562
1561
1552
1533
1482
1419
1378
1354
1308
1227
1220
1309
1431
1533
1593
1593
1564
1537
1528
1528
1526
1521
1525
1525
1525
1526
1525
1526
1526
1526
1523
1526
1528
1526
1525
1525
1526
1526
1525
1523
1521
1520
1521
1520
1518
1514
1514
1509
1508
1506
1504
1501
1499
1494
1494
1494
1490
1487
1484
1472
1475
1472
1467
1460
1451
1444
1437
1432
1424
1419
1410
1402
1395
1388
1383
1373
1373
1364
1364
1361
1361
1361
1367
1371
1383
1391
1403
1412
1429
1444
1456
1467
1475
1484
1489
1499
1506
1509
1514
1514
1516
1514
1520
1520
1516
1520
1520
1521
1520
1520
1521
1521
1520
1525
1521
1520
1521
1520
1528
1520
1521
1523
1520
1521
1521
1523
1525
1523
1523
1523
1525
1521
1520
1521
1530
1521
1525
1526
1528
1526
1526
1526
1526
1526
1526
1528
1528
1530
1531
1533
1537
1531
1533
1533
1535
1531
1531
1530
1530
1533
1533
1540
1537
1535
1533
1535
1537
1535
1535
1537
1537
1533
1537
1537
1537
1535
1533
1542
1538
1537
1533
1537
1535
1535
1535
1533
1535
1537
1538
1540
1538
1538
1540
1543
1542
1540
1537
1537
1537
1540
1538
1538
1537
1537
1535
1533
1535
1537
1537
1538
1538
1537
1537
1537
1538
1537
1537
1537
1538
1537
1542
1538
1537
1537
1535
1537
1537
1537
1535
1535
1533
1533
1533
1535
1535
1535
1540
1537
1537
1537
1533
1535
1537
1537
1538
1537
1537
1533
1533
1533
1535
1533
1537
1535
1537
1540
1535
1531
1531
1530
1526
1526
1526
1526
1531
1533
1533
1531
1533
1531
1528
1528
1530
1528
1531
1531
1531
1528
1528
1538
1537
1537
1531
1506
1449
1395
1367
1347
1289
1226
1255
1352
1455
1540
1586
1573
1535
1516
1511
1513
1509
1511
1513
1514
1513
1509
1514
1514
1516
1513
1513
1514
1513
1514
1514
1513
1509
1514
1509
1509
1509
1508
1514
1508
1506
1506
1504
1508
1502
1502
1501
1501
1496
1501
1492
1492
1489
1487
1490
1482
1478
1473
1472
1465
1458
1453
1448
1439
1436
1427
1419
1412
1407
1400
1391
1391
1388
1383
1379
1379
1378
1379
1384
1390
1398
1408
1419
1432
1443
1456
1467
1477
1489
1496
1504
1508
1514
1520
1521
1526
1526
1537
1531
1530
1531
1533
1535
1533
1535
1535
1537
1531
1535
1537
1538
1535
1535
1542
1538
1537
1538
1537
1537
1537
1537
1537
1537
1537
1535
1537
1538
1538
1537
1542
1540
1538
1538
1537
1538
1540
1538
1542
1538
1540
1540
1542
1542
1540
1543
1545
1547
1543
1545
1543
1545
1547
1549
1547
1547
1547
1554
1547
1547
1547
1547
1550
1552
1550
1549
1550
1549
1547
1547
1547
1547
1549
1554
1549
1549
1550
1547
1547
1549
1549
1549
1547
1549
1549
1549
1550
1549
1550
1550
1549
1549
1549
1550
1547
1547
1547
1552
1550
1549
1549
1549
1547
1549
1547
1549
1550
1552
1549
1547
1547
1554
1550
1550
1549
1549
1554
1547
1547
1549
1547
1549
1549
1549
1547
1549
1549
1547
1545
1547
1549
1549
1550
1545
1542
1547
1547
1543
1545
1545
1543
1543
1543
1542
1542
1543
1542
1542
1542
1543
1543
1543
1543
1542
1540
1540
1538
1543
1542
1549
1542
1535
1535
1531
1533
1530
1530
1535
1537
1537
1540
1542
1538
1537
1533
1540
1537
1535
1537
1535
1535
1535
1537
1538
1543
1542
1533
1509
1451
1398
1369
1342
1294
1226
1239
1342
1455
1540
1583
1566
1538
1520
1514
1514
1511
1509
1513
1513
1514
1514
1513
1514
1511
1513
1509
1513
1511
1509
1514
1509
1508
1504
1508
1508
1506
1504
1502
1501
1499
1501
1499
1497
1494
1490
1499
1490
1487
1485
1482
1484
1480
1477
1473
1468
1467
1460
1456
1453
1446
1441
1431
1426
1415
1408
1403
1396
1390
1381
1376
1371
1366
1361
1355
1354
1352
1354
1357
1364
1373
1383
1391
1405
1419
1431
1444
1458
1467
1472
1485
1492
1499
1502
1508
1509
1513
1514
1514
1514
1516
1518
1514
1518
1516
1523
1518
1520
1516
1518
1518
1521
1520
1520
1520
1516
1521
1523
1523
1523
1525
1525
1525
1526
1525
1525
1523
1525
1528
1525
1526
1526
1533
1528
1528
1528
1530
1533
1533
1535
1533
1533
1530
1540
1537
1537
1538
1538
1542
1537
1538
1540
1538
1538
1540
1542
1540
1542
1542
1542
1542
1542
1542
1542
1547
1542
1542
1542
1542
1542
1545
1542
1543
1543
1543
1545
1543
1547
1543
1545
1547
1547
1547
1547
1547
1545
1547
1547
1545
1547
1547
1554
1545
1545
1545
1547
1549
1547
1547
1543
1549
1545
1545
1549
1549
1549
1547
1554
1547
1549
1547
1547
1547
1547
1549
1550
1550
1547
1547
1550
1547
1550
1547
1549
1549
1549
1545
1547
1547
1547
1547
1545
1543
1543
1545
1543
1543
1545
1545
1547
1545
1542
1542
1545
1540
1542
1542
1545
1547
1547
1554
1547
1543
1543
1540
1540
1542
1542
1542
1545
1540
1535
1533
1535
1533
1530
1538
1538
1537
1540
1542
1538
1540
1540
1540
1540
1537
1537
1540
1537
1538
1537
1540
1545
1547
1543
1528
1487
1427
1378
1354
1328
1260
1224
1294
1419
1521
1584
1600
1571
1540
1526
1521
1520
1521
1516
1520
1520
1520
1523
1518
1518
1518
1516
1518
1514
1514
1516
1514
1518
1514
1514
1513
1513
1511
1516
1509
1508
1509
1506
1501
1501
1501
1501
1494
1494
1494
1490
1487
1487
1482
1478
1477
1475
1468
1465
1458
1451
1446
1441
1434
1427
1412
1407
1402
1395
1386
1381
1376
1369
1364
1362
1357
1357
1355
1357
1362
1369
1374
1391
1403
1417
1426
1446
1455
1467
1480
1487
1494
1501
1508
1513
1514
1520
1523
1525
1525
1526
1526
1528
1528
1528
1528
1528
1528
1531
1533
1531
1528
1528
1528
1530
1528
1530
1531
1526
1528
1531
1531
1530
1531
1537
1530
1530
1528
1530
1537
1535
1533
1535
1533
1533
1537
1538
1537
1537
1538
1545
1538
1540
1540
1540
1540
1543
1542
1543
1543
1543
1542
1545
1543
1543
1545
1547
1547
1547
1549
1547
1543
1545
1549
1549
1549
1547
1549
1549
1545
1547
1547
1550
1547
1549
1547
1543
1545
1554
1549
1550
1552
1549
1555
1552
1549
1547
1550
1550
1550
1547
1547
1549
1549
1547
1550
1552
1550
1547
1554
1549
1549
1549
1550
1550
1547
1549
1550
1552
1547
1547
1549
1547
1549
1547
1547
1549
1547
1547
1547
1547
1547
1547
1545
1549
1547
1549
1547
1547
1543
1543
1547
1547
1547
1545
1547
1545
1547
1542
1542
1545
1543
1550
1547
1549
1542
1542
1542
1542
1538
1542
1545
1543
1545
1542
1540
1537
1537
1540
1533
1531
1537
1538
1542
1545
1542
1540
1542
1540
1537
1540
1537
1538
1538
1540
1540
1537
1542
1545
1540
1528
1499
1439
1384
1361
1330
1267
1232
1287
1403
1513
1583
1608
1579
1540
1523
1521
1518
1514
1513
1513
1520
1516
1520
1518
1513
1513
1514
1514
1513
1513
1513
1511
1509
1506
1509
1508
1508
1506
1506
1504
1501
1501
1501
1499
1494
1494
1492
1489
1490
1487
1484
1484
1478
1475
1473
1470
1467
1461
1458
1453
1446
1441
1434
1420
1417
1410
1403
1398
1391
1381
1376
1369
1364
1362
1362
1355
1354
1354
1357
1357
1367
1376
1383
1393
1408
1419
1431
1439
1451
1467
1473
1484
1487
1492
1496
1504
1502
1504
1508
1508
1508
1506
1506
1508
1506
1508
1509
1506
1511
1508
1508
1509
1508
1506
1508
1506
1501
1509
1506
1508
1508
1506
1514
1508
1509
1513
1509
1508
1508
1509
1508
1509
1509
1513
1516
1521
1520
1518
1521
1514
1513
1514
1514
1516
1516
1520
1518
1516
1520
1520
1521
1521
1520
1520
1523
1525
1523
1525
1521
1521
1523
1523
1525
1526
1525
1530
1528
1528
1526
1528
1528
1528
1526
1528
1526
1528
1526
1530
1526
1528
1528
1533
1528
1528
1528
1528
1526
1530
1526
1528
1528
1530
1528
1528
1528
1530
1530
1533
1528
1528
1526
1530
1528
1531
1530
1530
1528
1531
1530
1528
1528
1526
1528
1530
1528
1528
1528
1526
1528
1528
1528
1528
1528
1528
1533
1528
1528
1530
1530
1528
1526
1528
1530
1530
1528
1530
1530
1531
1531
1528
1537
1530
1531
1533
1535
1530
1528
1528
1526
1523
1521
1525
1528
1528
1528
1528
1528
1528
1526
1526
1526
1526
1525
1528
1528
1526
1528
1535
1533
1530
1521
1497
1446
1400
1384
1369
1325
1275
1308
1403
1490
1555
1583
1559
1521
1508
1509
1506
1509
1506
1508
1513
1513
1513
1513
1514
1513
1513
1509
1518
1509
1511
1513
1511
1509
1509
1509
1509
1508
1508
1508
1508
1508
1504
1504
1502
1501
1502
1501
1497
1494
1496
1492
1492
1489
1487
1490
1482
1478
1473
1472
1463
1460
1456
1451
1444
1441
1431
1426
1420
1412
1407
1396
1396
1391
1390
1390
1390
1390
1393
1400
1405
1417
1426
1439
1451
1461
1472
1484
1490
1497
1501
1508
1513
1518
1518
1520
1525
1521
1526
1526
1528
1526
1528
1528
1528
1528
1530
1528
1531
1530
1530
1530
1530
1530
1537
1528
1528
1531
1528
1528
1530
1530
1530
1531
1528
1531
1533
1533
1533
1531
1537
1533
1533
1537
1537
1533
1535
1537
1537
1537
1535
1537
1538
1540
1540
1538
1540
1538
1540
1540
1540
1538
1542
1540
1540
1542
1540
1540
1542
1542
1542
1540
1543
1542
1540
1540
1542
1538
1545
1543
1542
1540
1542
1549
1545
1542
1542
1540
1543
1545
1542
1543
1543
1542
1542
1542
1543
1545
1543
1547
1542
1542
1543
1542
1540
1542
1543
1540
1543
1540
1542
1540
1540
1540
1542
1542
1542
1542
1543
1542
1540
1543
1542
1543
1542
1542
1545
1542
1543
1542
1542
1543
1542
1537
1542
1540
1538
1542
1540
1540
1540
1542
1547
1540
1542
1542
1543
1542
1543
1542
1542
1542
1542
1545
1547
1543
1538
1537
1542
1537
1537
1533
1535
1537
1537
1540
1540
1542
1540
1538
1538
1537
1538
1537
1537
1537
1537
1540
1542
1547
1543
1531
1497
1439
1402
1373
1350
1284
1253
1323
1437
1520
1579
1581
1552
1526
1520
1523
1521
1520
1520
1526
1523
1521
1521
1521
1520
1521
1521
1520
1521
1520
1521
1520
1516
1516
1516
1520
1516
1518
1513
1514
1514
1513
1514
1509
1511
1508
1506
1501
1501
1502
1499
1499
1497
1494
1487
1485
1484
1478
1475
1472
1468
1465
1451
1451
1444
1437
1431
1419
1417
1410
1402
1396
1395
1390
1388
1384
1384
1390
1391
1396
1405
1414
1426
1441
1448
1458
1467
1473
1482
1490
1497
1506
1508
1508
1509
1514
1516
1514
1518
1514
1518
1516
1514
1513
1514
1516
1516
1518
1521
1520
1521
1520
1518
1518
1516
1521
1521
1516
1513
1513
1518
1528
1523
1521
1523
1518
1520
1523
1520
1520
1521
1520
1520
1521
1520
1516
1514
1521
1520
1520
1521
1518
1516
1521
1525
1526
1526
1521
1516
1514
1516
1520
1521
1521
1521
1520
1521
1523
1523
1523
1521
1521
1518
1520
1528
1521
1521
1521
1521
1521
1523
1520
1520
1514
1513
1516
1525
1526
1526
1520
1523
1520
1520
1520
1521
1521
1520
1516
1521
1516
1516
1518
1523
1518
1513
1514
1520
1518
1516
1514
1518
1514
1516
1516
1516
1516
1516
1514
1518
1520
1520
1514
1520
1516
1520
1521
1520
1518
1518
1520
1520
1520
1521
1525
1523
1520
1520
1520
1521
1521
1520
1521
1521
1520
1520
1520
1521
1521
1521
1526
1521
1520
1521
1521
1521
1521
1520
1520
1518
1514
1516
1514
1513
1514
1516
1521
1521
1518
1516
1520
1518
1520
1518
1514
1518
1513
1516
1514
1516
1516
1520
1511
1501
1460
1405
1376
1364
1343
1285
1270
1349
1451
1526
1569
1569
1530
1506
1499
1499
1499
1496
1494
1499
1502
1499
1501
1501
1501
1506
1501
1504
1501
1501
1501
1501
1499
1499
1499
1496
1499
1497
1499
1497
1496
1496
1494
1494
1494
1492
1492
1490
1487
1489
1487
1482
1492
1482
1478
1475
1473
1470
1468
1465
1460
1453
1448
1444
1436
1431
1424
1419
1408
1408
1402
1398
1393
1391
1386
1383
1383
1388
1391
1395
1398
1407
1415
1426
1432
1451
1461
1473
1477
1485
1494
1499
1504
1508
1509
1513
1516
1516
1518
1516
1521
1521
1520
1520
1520
1523
1523
1525
1523
1523
1520
1528
1521
1521
1521
1521
1523
1523
1521
1521
1520
1520
1520
1520
1523
1523
1521
1528
1525
1523
1525
1525
1521
1526
1525
1526
1526
1526
1526
1528
1528
1530
1528
1530
1530
1530
1533
1533
1531
1531
1533
1535
1533
1533
1531
1530
1535
1535
1533
1537
1537
1533
1537
1535
1531
1535
1538
1537
1537
1533
1542
1537
1537
1533
1537
1538
1537
1538
1537
1537
1537
1538
1537
1542
1540
1538
1542
1537
1537
1538
1538
1538
1538
1538
1538
1537
1538
1537
1537
1538
1542
1540
1540
1538
1538
1538
1537
1537
1537
1535
1538
1538
1537
1542
1538
1537
1537
1533
1531
1535
1538
1535
1533
1535
1540
1537
1533
1538
1537
1542
1535
1537
1537
1535
1538
1537
1535
1533
1538
1535
1533
1537
1537
1537
1537
1543
1540
1540
1537
1531
1526
1526
1528
1526
1526
1528
1528
1531
1531
1530
1528
1530
1531
1530
1528
1528
1526
1528
1526
1528
1530
1535
1542
1530
1513
1461
1410
1373
1355
1314
1246
1253
1357
1468
1543
1588
1567
1535
1526
1514
1513
1511
1511
1509
1511
1514
1513
1513
1511
1513
1513
1509
1509
1511
1513
1508
1508
1509
1509
1506
1509
1508
1506
1502
1499
1502
1502
1501
1499
1501
1499
1494
1496
1494
1492
1489
1487
1487
1487
1482
1480
1470
1468
1467
1460
1455
1449
1441
1436
1432
1426
1417
1415
1405
1400
1396
1391
1384
1383
1376
1376
1378
1378
1381
1386
1396
1407
1417
1427
1439
1451
1460
1472
1473
1484
1492
1497
1501
1506
1508
1511
1514
1513
1511
1514
1514
1514
1516
1514
1514
1516
1518
1518
1520
1516
1523
1520
1520
1520
1520
1528
1520
1520
1520
1521
1520
1520
1521
1520
1520
1521
1521
1523
1523
1523
1523
1528
1526
1525
1526
1526
1525
1523
1526
1528
1530
1526
1530
1528
1528
1531
1531
1533
1531
1530
1530
1528
1530
1533
1533
1533
1531
1531
1537
1533
1537
1533
1530
1533
1535
1533
1533
1537
1535
1537
1535
1533
1533
1533
1542
1535
1533
1535
1535
1533
1537
1537
1535
1531
1537
1533
1533
1530
1533
1533
1535
1533
1533
1531
1530
1533
1530
1530
1530
1528
1533
1530
1531
1533
1531
1533
1537
1537
1531
1528
1530
1530
1533
1533
1533
1528
1530
1537
1533
1528
1531
1531
1530
1533
1530
1533
1530
1528
1533
1531
1530
1528
1533
1537
1533
1537
1538
1538
1535
1531
1528
1528
1530
1531
1533
1537
1537
1535
1528
1525
1516
1518
1520
1521
1523
1521
1516
1513
1523
1526
1528
1528
1526
1520
1514
1518
1520
1520
1521
1520
1525
1533
1528
1508
1449
1388
1347
1328
1280
1220
1239
1354
1480
1555
1593
1569
1533
1509
1504
1506
1506
1504
1514
1501
1497
1501
1504
1501
1499
1499
1501
1502
1499
1494
1499
1501
1502
1499
1501
1492
1492
1492
1497
1492
1490
1489
1487
1485
1482
1473
1487
1492
1489
1487
1482
1475
1472
1472
1470
1467
1460
1453
1443
1437
1432
1426
1426
1426
1420
1405
1388
1376
1371
1378
1376
1364
1355
1345
1345
1345
1347
1350
1357
1362
1371
1386
1396
1407
1417
1429
1443
1453
1468
1478
1482
1482
1482
1487
1499
1502
1506
1513
1513
1516
1520
1521
1516
1513
1523
1523
1520
1514
1513
1513
1513
1516
1523
1521
1523
1521
1520
1518
1521
1526
1538
1533
1523
1523
1533
1537
1531
1521
1518
1526
1530
1531
1533
1530
1530
1535
1535
1530
1535
1538
1533
1531
1537
1540
1542
1540
1537
1530
1533
1533
1542
1545
1550
1542
1538
1542
1547
1542
1540
1540
1542
1547
1540
1552
1543
1540
1542
1543
1545
1543
1542
1545
1549
1549
1547
1545
1540
1538
1543
1550
1547
1547
1547
1547
1547
1554
1559
1552
1545
1540
1537
1538
1543
1547
1542
1537
1537
1542
1542
1538
1533
1540
1542
1540
1540
1542
1549
1540
1540
1542
1549
1547
1540
1538
1540
1549
1542
1542
1531
1526
1535
1542
1549
1540
1537
1540
1547
1555
1561
1555
1552
1542
1543
1542
1549
1554
1555
1557
1555
1531
1521
1520
1520
1523
1528
1533
1542
1547
1554
1555
1557
1555
1538
1525
1523
1526
1530
1533
1537
1547
1547
1550
1550
1542
1520
1460
1391
1361
1359
1313
1239
1248
1369
1520
1607
1637
1608
1555
1528
1521
1523
1528
1528
1545
1547
1533
1516
1513
1518
1521
1521
1520
1520
1523
1521
1514
1526
1528
1525
1523
1523
1520
1502
1501
1501
1508
1518
1520
1516
1509
1511
1520
1516
1509
1501
1499
1492
1482
1475
1472
1468
1460
1467
1473
1449
1437
1424
1426
1422
1403
1398
1395
1391
1395
1378
1359
1352
1354
1350
1347
1342
1350
1349
1361
1381
1390
1395
1410
1422
1441
1460
1473
1478
1478
1487
1501
1516
1523
1537
1552
1549
1531
1528
1535
1540
1545
1542
1543
1559
1562
1545
1533
1530
1540
1543
1549
1550
1540
1538
1537
1545
1554
1555
1547
1533
1535
1549
1554
1549
1547
1549
1549
1552
1557
1562
1552
1542
1542
1550
1561
1555
1555
1559
1559
1554
1555
1559
1561
1561
1562
1561
1561
1557
1561
1562
1562
1566
1569
1569
1559
1557
1559
1566
1567
1569
1569
1573
1569
1561
1562
1562
1564
1567
1564
1566
1564
1564
1564
1561
1557
1561
1562
1567
1562
1562
1561
1566
1562
1559
1555
1549
1549
1554
1562
1559
1554
1555
1555
1559
1555
1550
1547
1547
1543
1550
1552
1552
1552
1554
1552
1549
1543
1549
1547
1555
1555
1561
1554
1549
1542
1537
1542
1545
1549
1550
1555
1549
1547
1547
1542
1545
1540
1547
1549
1547
1549
1547
1540
1531
1526
1526
1533
1538
1543
1547
1549
1557
1555
1543
1535
1528
1535
1538
1542
1542
1538
1540
1542
1537
1530
1520
1501
1439
1374
1345
1330
1275
1237
1314
1453
1574
1622
1619
1578
1537
1523
1514
1513
1509
1513
1516
1516
1518
1514
1518
1508
1508
1509
1509
1514
1514
1513
1511
1511
1506
1508
1506
1501
1499
1499
1504
1496
1494
1494
1492
1490
1487
1487
1484
1484
1484
1478
1473
1472
1470
1465
1458
1453
1449
1441
1437
1431
1422
1414
1403
1398
1390
1378
1381
1376
1367
1364
1355
1342
1337
1335
1333
1335
1342
1343
1350
1361
1371
1383
1400
1415
1431
1446
1455
1467
1477
1487
1494
1501
1504
1501
1506
1514
1518
1520
1514
1513
1516
1520
1521
1514
1518
1514
1516
1518
1523
1525
1516
1511
1509
1516
1520
1514
1514
1518
1520
1525
1528
1526
1521
1526
1535
1526
1526
1533
1528
1530
1528
1526
1535
1537
1533
1533
1537
1535
1535
1533
1537
1537
1535
1540
1542
1540
1540
1542
1542
1549
1542
1540
1540
1542
1540
1540
1545
1542
1542
1545
1543
1540
1543
1547
1542
1540
1537
1542
1542
1540
1543
1540
1540
1542
1543
1542
1545
1540
1540
1545
1542
1540
1545
1550
1542
1540
1537
1542
1545
1542
1542
1538
1537
1538
1540
1540
1537
1542
1537
1545
1542
1537
1538
1538
1537
1537
1537
1540
1545
1540
1542
1542
1540
1542
1542
1540
1538
1533
1537
1538
1542
1549
1542
1533
1535
1535
1537
1533
1531
1537
1543
1545
1547
1545
1543
1542
1537
1542
1540
1542
1542
1538
1547
1540
1542
1537
1523
1506
1443
1379
1350
1337
1290
1239
1289
1419
1562
1615
1631
1596
1555
1533
1530
1525
1521
1516
1518
1518
1520
1520
1520
1520
1516
1518
1516
1520
1521
1523
1514
1513
1518
1514
1509
1513
1516
1514
1504
1506
1506
1502
1506
1497
1497
1492
1492
1487
1494
1490
1482
1482
1478
1467
1472
1467
1460
1453
1444
1437
1434
1427
1419
1412
1403
1393
1388
1379
1371
1362
1362
1355
1350
1347
1347
1343
1343
1347
1354
1362
1371
1383
1396
1410
1426
1437
1453
1461
1473
1484
1490
1496
1501
1506
1508
1509
1518
1513
1513
1514
1514
1516
1518
1518
1518
1514
1514
1513
1518
1518
1514
1514
1521
1518
1514
1514
1516
1518
1518
1514
1518
1520
1518
1521
1523
1523
1521
1521
1523
1521
1523
1523
1523
1523
1528
1528
1530
1530
1530
1528
1530
1530
1530
1528
1535
1533
1533
1533
1533
1531
1535
1535
1535
1535
1533
1540
1537
1537
1537
1533
1531
1533
1533
1533
1535
1533
1533
1533
1535
1533
1533
1538
1533
1531
1531
1535
1533
1531
1533
1533
1533
1530
1531
1533
1535
1533
1533
1533
1533
1533
1533
1533
1530
1531
1533
1535
1535
1537
1540
1537
1537
1537
1537
1535
1533
1531
1530
1528
1531
1538
1537
1537
1537
1530
1535
1530
1528
1528
1526
1531
1538
1537
1537
1538
1537
1537
1538
1538
1538
1538
1540
1537
1537
1537
1537
1533
1525
1506
1458
1393
1354
1337
1308
1237
1256
1364
1509
1608
1624
1615
1574
1538
1530
1528
1526
1523
1518
1526
1521
1521
1521
1521
1521
1523
1521
1521
1523
1520
1520
1518
1518
1518
1518
1521
1516
1514
1513
1509
1513
1509
1508
1504
1502
1501
1497
1499
1496
1490
1490
1487
1482
1478
1473
1472
1467
1460
1455
1449
1439
1432
1426
1417
1410
1403
1396
1384
1381
1374
1367
1362
1357
1352
1349
1347
1347
1349
1347
1357
1367
1379
1391
1403
1417
1432
1449
1460
1473
1482
1492
1499
1504
1508
1514
1514
1518
1521
1521
1521
1523
1521
1523
1523
1523
1525
1520
1521
1523
1521
1523
1521
1521
1521
1521
1520
1521
1521
1521
1521
1520
1525
1525
1525
1525
1525
1526
1526
1528
1528
1531
1530
1535
1533
1535
1531
1533
1542
1538
1537
1540
1538
1540
1540
1540
1540
1542
1542
1542
1542
1542
1542
1540
1547
1542
1543
1543
1542
1542
1545
1542
1542
1542
1542
1542
1542
1545
1543
1543
1545
1545
1543
1545
1542
1542
1543
1547
1543
1545
1542
1549
1542
1545
1543
1542
1542
1542
1543
1543
1542
1542
1542
1542
1542
1542
1542
1547
1542
1542
1540
1542
1542
1542
1542
1543
1542
1542
1542
1543
1542
1543
1542
1543
1540
1540
1542
1543
1542
1549
1545
1542
1538
1537
1535
1537
1537
1543
1545
1547
1542
1545
1545
1543
1542
1542
1543
1543
1545
1540
1549
1542
1547
1549
1542
1530
1496
1426
1376
1354
1342
1280
1236
1301
1427
1545
1614
1624
1596
1555
1533
1528
1528
1528
1521
1523
1526
1528
1526
1526
1528
1528
1528
1525
1523
1521
1521
1523
1521
1521
1520
1520
1516
1518
1516
1516
1514
1509
1509
1508
1508
1508
1502
1499
1501
1497
1494
1492
1487
1490
1482
1478
1473
1468
1461
1455
1449
1443
1432
1426
1420
1410
1402
1393
1390
1378
1376
1373
1364
1361
1357
1352
1350
1352
1354
1362
1369
1378
1391
1405
1422
1432
1446
1461
1472
1482
1489
1497
1501
1506
1513
1516
1528
1523
1525
1523
1525
1528
1523
1526
1528
1528
1528
1533
1526
1521
1526
1526
1535
1528
1523
1526
1528
1537
1533
1523
1514
1518
1521
1523
1528
1531
1531
1531
1537
1531
1528
1526
1528
1520
1511
1518
1526
1526
1526
1528
1531
1535
1533
1533
1533
1535
1533
1537
1537
1537
1537
1530
1531
1533
1530
1537
1533
1538
1537
1540
1540
1542
1542
1540
1535
1533
1537
1540
1535
1528
1537
1545
1542
1538
1531
1533
1537
1538
1538
1530
1528
1535
1537
1531
1535
1537
1533
1538
1533
1535
1533
1537
1538
1538
1533
1533
1535
1535
1537
1538
1537
1535
1528
1533
1538
1542
1540
1533
1531
1533
1537
1537
1537
1538
1542
1535
1533
1537
1537
1535
1537
1533
1537
1538
1538
1540
1542
1537
1533
1530
1535
1531
1528
1535
1537
1535
1540
1542
1538
1537
1537
1538
1533
1535
1533
1537
1537
1533
1537
1537
1543
1533
1523
1487
1422
1376
1355
1330
1275
1243
1313
1437
1538
1593
1605
1576
1538
1520
1526
1521
1516
1513
1513
1521
1514
1516
1514
1518
1514
1516
1518
1518
1516
1514
1513
1514
1514
1513
1513
1514
1509
1508
1509
1508
1506
1506
1504
1499
1497
1496
1494
1494
1492
1490
1484
1485
1480
1477
1473
1468
1467
1458
1453
1448
1443
1434
1420
1417
1407
1403
1396
1390
1384
1378
1371
1369
1362
1362
1359
1357
1357
1359
1362
1376
1383
1396
1408
1424
1432
1446
1458
1470
1478
1487
1494
1502
1508
1509
1514
1516
1520
1520
1520
1523
1523
1523
1523
1525
1523
1523
1521
1523
1521
1521
1523
1521
1520
1521
1521
1520
1521
1521
1525
1521
1528
1533
1528
1528
1526
1525
1528
1528
1526
1528
1526
1526
1526
1528
1528
1530
1531
1537
1533
1535
1533
1535
1531
1535
1531
1533
1533
1531
1533
1537
1537
1537
1537
1537
1538
1538
1537
1538
1538
1540
1537
1537
1538
1538
1540
1537
1537
1538
1538
1540
1538
1537
1540
1542
1540
1545
1538
1537
1537
1540
1543
1542
1542
1542
1542
1540
1538
1537
1537
1538
1537
1537
1537
1537
1538
1540
1542
1535
1537
1537
1538
1537
1538
1538
1538
1537
1537
1538
1538
1538
1537
1540
1542
1542
1542
1538
1538
1540
1543
1543
1540
1543
1542
1549
1540
1533
1533
1537
1533
1537
1540
1535
1533
1533
1538
1535
1533
1535
1538
1545
1540
1540
1540
1542
1537
1537
1538
1538
1540
1542
1538
1538
1542
1542
1538
1537
1513
1458
1400
1364
1350
1316
1255
1268
1362
1475
1554
1595
1583
1549
1530
1528
1528
1526
1523
1520
1523
1528
1528
1528
1528
1526
1533
1526
1526
1528
1528
1531
1526
1521
1518
1514
1514
1518
1516
1514
1509
1509
1514
1509
1513
1508
1508
1508
1506
1499
1496
1497
1496
1494
1485
1475
1473
1473
1467
1467
1460
1453
1446
1436
1429
1420
1417
1407
1398
1388
1386
1381
1374
1369
1364
1362
1361
1359
1362
1371
1374
1386
1396
1412
1424
1431
1453
1460
1473
1482
1496
1501
1508
1514
1520
1521
1525
1526
1531
1535
1531
1537
1533
1537
1535
1531
1533
1533
1533
1531
1528
1530
1528
1530
1528
1530
1528
1530
1528
1531
1531
1530
1528
1531
1530
1531
1530
1533
1538
1530
1531
1535
1533
1533
1533
1535
1537
1535
1533
1542
1537
1535
1537
1538
1543
1540
1540
1542
1540
1542
1542
1540
1542
1543
1542
1542
1543
1542
1542
1545
1550
1543
1547
1547
1545
1543
1543
1545
1547
1545
1542
1542
1543
1547
1547
1547
1549
1547
1547
1549
1547
1543
1547
1549
1547
1547
1545
1552
1545
1543
1547
1545
1547
1543
1543
1545
1545
1545
1542
1545
1542
1543
1542
1547
1542
1543
1542
1542
1542
1542
1542
1542
1542
1540
1542
1543
1543
1543
1542
1543
1542
1542
1543
1545
1542
1543
1545
1547
1545
1542
1542
1542
1540
1537
1540
1545
1543
1545
1542
1537
1531
1533
1533
1533
1533
1535
1545
1542
1542
1542
1542
1542
1540
1540
1540
1542
1540
1538
1540
1540
1540
1547
1555
1545
1528
1482
1419
1378
1357
1323
1255
1234
1314
1446
1543
1596
1595
1566
1542
1528
1521
1521
1518
1518
1520
1521
1521
1521
1521
1525
1514
1520
1520
1520
1520
1520
1516
1516
1514
1514
1518
1513
1511
1511
1509
1516
1509
1508
1506
1502
1504
1502
1499
1496
1490
1489
1489
1487
1482
1482
1477
1465
1467
1461
1455
1449
1441
1432
1426
1417
1408
1405
1396
1386
1379
1371
1367
1362
1357
1355
1350
1350
1350
1357
1364
1371
1384
1396
1403
1424
1437
1451
1463
1472
1485
1492
1501
1508
1509
1514
1516
1516
1521
1521
1526
1525
1525
1521
1521
1525
1525
1525
1523
1523
1521
1525
1525
1523
1525
1525
1526
1526
1525
1528
1528
1526
1528
1528
1528
1530
1528
1530
1530
1530
1531
1531
1531
1533
1531
1533
1533
1535
1538
1537
1537
1535
1538
1542
1537
1538
1540
1537
1540
1542
1540
1542
1542
1540
1542
1543
1543
1542
1542
1549
1542
1543
1542
1543
1540
1543
1542
1543
1542
1543
1542
1543
1543
1545
1545
1549
1547
1543
1543
1543
1540
1542
1542
1543
1545
1543
1542
1542
1542
1540
1542
1545
1543
1543
1542
1545
1542
1547
1543
1545
1545
1543
1550
1547
1547
1547
1545
1547
1547
1545
1545
1543
1540
1543
1542
1543
1540
1540
1547
1540
1540
1540
1540
1540
1540
1542
1540
1537
1538
1540
1540
1538
1540
1537
1538
1540
1537
1540
1538
1538
1538
1535
1537
1537
1537
1542
1540
1542
1538
1533
1528
1528
1528
1526
1526
1531
1538
1537
1535
1535
1535
1540
1533
1535
1531
1530
1531
1533
1533
1533
1533
1538
1542
1537
1526
1487
1426
1374
1359
1337
1275
1229
1278
1391
1504
1571
1595
1569
1533
1516
1513
1508
1506
1508
1508
1509
1508
1508
1508
1508
1508
1508
1506
1504
1511
1506
1504
1504
1501
1504
1501
1499
1497
1497
1497
1497
1494
1490
1494
1487
1492
1485
1484
1484
1478
1475
1473
1473
1470
1467
1465
1458
1455
1451
1444
1439
1427
1424
1415
1408
1402
1393
1384
1378
1369
1362
1357
1352
1349
1345
1342
1343
1338
1342
1347
1354
1364
1374
1386
1398
1412
1426
1437
1441
1455
1465
1475
1480
1487
1494
1496
1497
1499
1499
1501
1504
1504
1502
1501
1508
1501
1501
1501
1501
1502
1502
1501
1501
1501
1499
1502
1502
1501
1501
1501
1504
1504
1506
1501
1501
1501
1502
1501
1504
1502
1504
1508
1504
1504
1506
1506
1508
1508
1508
1508
1508
1508
1513
1509
1509
1511
1511
1518
1511
1511
1513
1513
1513
1514
1513
1514
1514
1511
1513
1514
1516
1514
1513
1518
1511
1513
1516
1514
1514
1514
1514
1514
1514
1516
1516
1518
1514
1516
1514
1516
1518
1520
1520
1514
1514
1516
1516
1513
1514
1514
1523
1514
1516
1518
1514
1514
1514
1514
1513
1514
1514
1514
1514
1514
1514
1511
1520
1514
1514
1513
1513
1509
1514
1509
1513
1508
1509
1513
1513
1509
1514
1514
1513
1511
1509
1511
1511
1508
1506
1511
1509
1509
1508
1509
1509
1509
1513
1509
1511
1509
1509
1508
1506
1506
1508
1513
1513
1513
1508
1513
1506
1501
1504
1501
1502
1506
1508
1509
1509
1506
1508
1506
1508
1504
1506
1508
1502
1506
1506
1502
1502
1508
1502
1499
1475
1424
1371
1345
1337
1294
1231
1255
1342
1444
1523
1564
1549
1509
1484
1482
1485
1482
1475
1480
1482
1484
1482
1482
1482
1482
1484
1482
1485
1484
1484
1480
1480
1478
1473
1477
1478
1478
1473
1473
1475
1473
1473
1472
1470
1465
1465
1463
1460
1460
1453
1455
1453
1451
1449
1446
1441
1436
1432
1429
1422
1417
1410
1403
1396
1390
1383
1376
1371
1366
1361
1355
1354
1349
1343
1340
1340
1337
1347
1349
1357
1366
1378
1388
1396
1408
1420
1432
1441
1451
1460
1467
1473
1472
1482
1482
1485
1485
1489
1490
1489
1487
1487
1489
1489
1492
1494
1489
1490
1494
1494
1492
1494
1490
1490
1492
1492
1494
1496
1496
1496
1496
1499
1499
1496
1497
1497
1497
1496
1494
1494
1494
1496
1499
1497
1494
1501
1499
1501
1501
1501
1501
1504
1502
1502
1502
1504
1502
1506
1508
1508
1506
1511
1504
1508
1508
1509
1509
1509
1508
1508
1509
1506
1508
1509
1513
1509
1509
1514
1514
1514
1514
1513
1513
1514
1516
1518
1518
1518
1514
1514
1513
1513
1516
1516
1514
1516
1516
1514
1513
1521
1516
1518
1513
1514
1521
1514
1514
1513
1511
1513
1513
1511
1513
1513
1509
1509
1513
1509
1509
1508
1514
1509
1509
1509
1509
1511
1509
1509
1508
1509
1508
1506
1513
1509
1509
1513
1514
1509
1509
1509
1511
1511
1511
1511
1511
1509
1509
1516
1509
1509
1509
1509
1511
1511
1513
1516
1514
1508
1509
1508
1508
1506
1501
1513
1508
1509
1509
1509
1509
1509
1509
1506
1508
1508
1509
1509
1508
1513
1509
1520
1518
1513
1499
1463
1405
1367
1350
1323
1255
1234
1306
1410
1494
1554
1561
1526
1501
1490
1492
1494
1489
1487
1492
1496
1496
1492
1501
1494
1492
1492
1489
1494
1492
1492
1492
1494
1490
1492
1490
1489
1492
1487
1492
1490
1487
1484
1485
1487
1482
1482
1478
1480
1478
1475
1473
1468
1470
1467
1458
1456
1453
1448
1441
1439
1431
1424
1417
1410
1400
1393
1390
1384
1378
1371
1367
1364
1359
1355
1357
1357
1359
1362
1371
1383
1393
1398
1417
1431
1443
1453
1460
1473
1482
1487
1492
1497
1501
1504
1508
1508
1508
1514
1511
1513
1511
1511
1509
1509
1513
1513
1513
1509
1511
1513
1513
1513
1513
1514
1513
1514
1513
1513
1511
1514
1514
1514
1514
1514
1516
1514
1514
1518
1514
1516
1518
1516
1520
1520
1518
1528
1521
1521
1520
1525
1530
1526
1525
1526
1526
1526
1528
1528
1526
1528
1528
1528
1530
1531
1530
1531
1537
1533
1530
1530
1533
1531
1533
1533
1535
1533
1533
1535
1533
1531
1535
1535
1533
1533
1531
1535
1531
1535
1533
1535
1535
1535
1533
1540
1537
1537
1533
1535
1533
1535
1537
1537
1537
1531
1537
1537
1533
1535
1533
1542
1533
1535
1533
1535
1533
1533
1535
1535
1537
1537
1537
1537
1537
1535
1537
1540
1537
1537
1537
1537
1533
1537
1538
1537
1537
1537
1537
1537
1537
1535
1535
1535
1533
1533
1531
1533
1533
1533
1535
1537
1533
1533
1538
1531
1528
1531
1533
1535
1533
1528
1526
1523
1523
1523
1523
1525
1528
1531
1538
1531
1530
1530
1530
1531
1528
1528
1528
1530
1526
1526
1528
1535
1538
1533
1521
1487
1426
1379
1355
1326
1255
1222
1280
1398
1501
1564
1578
1549
1521
1511
1509
1508
1504
1506
1508
1508
1508
1506
1508
1508
1506
1511
1508
1508
1502
1504
1504
1504
1501
1501
1501
1501
1501
1499
1501
1496
1492
1499
1492
1494
1489
1487
1485
1487
1484
1482
1478
1477
1473
1468
1465
1467
1458
1453
1449
1446
1437
1431
1422
1414
1405
1400
1393
1388
1374
1373
1364
1362
1357
1352
1352
1354
1355
1359
1366
1373
1383
1395
1408
1422
1427
1448
1458
1468
1478
1482
1489
1494
1501
1502
1504
1508
1508
1509
1511
1513
1516
1513
1513
1514
1513
1513
1513
1514
1514
1516
1514
1514
1516
1516
1514
1514
1516
1514
1516
1520
1516
1516
1516
1520
1518
1520
1521
1528
1521
1520
1520
1521
1521
1525
1521
1525
1521
1525
1523
1523
1526
1528
1526
1533
1528
1530
1530
1530
1528
1530
1528
1531
1530
1530
1531
1535
1533
1533
1533
1537
1533
1533
1533
1535
1533
1533
1533
1533
1533
1533
1531
1535
1537
1535
1535
1538
1533
1535
1535
1537
1533
1537
1537
1537
1537
1537
1542
1537
1537
1537
1535
1533
1537
1537
1533
1535
1533
1535
1537
1537
1533
1533
1540
1537
1535
1533
1537
1533
1533
1533
1531
1535
1530
1533
1535
1535
1533
1533
1533
1530
1533
1533
1533
1530
1531
1530
1528
1531
1531
1533
1531
1530
1531
1528
1530
1531
1528
1528
1528
1528
1533
1528
1530
1531
1528
1533
1528
1526
1521
1523
1526
1528
1528
1530
1525
1520
1520
1516
1516
1514
1520
1526
1521
1528
1526
1523
1520
1521
1521
1525
1521
1520
1521
1525
1521
1523
1528
1533
1528
1514
1482
1419
1369
1347
1318
1249
1219
1282
1403
1513
1569
1574
1542
1516
1504
1501
1501
1499
1497
1501
1502
1502
1501
1499
1506
1501
1497
1499
1499
1497
1497
1499
1497
1497
1494
1496
1494
1492
1492
1490
1494
1487
1485
1487
1484
1482
1484
1484
1477
1473
1473
1470
1467
1465
1460
1460
1453
1448
1443
1439
1431
1422
1415
1407
1400
1395
1386
1371
1373
1366
1361
1355
1349
1345
1342
1342
1342
1343
1349
1352
1362
1376
1390
1398
1417
1427
1441
1453
1463
1472
1480
1487
1490
1492
1496
1499
1501
1504
1501
1506
1506
1504
1506
1504
1504
1506
1504
1508
1508
1506
1509
1506
1508
1506
1506
1509
1508
1506
1508
1509
1508
1513
1509
1508
1511
1509
1514
1513
1511
1511
1509
1509
1513
1513
1513
1514
1513
1514
1516
1514
1518
1518
1521
1514
1516
1518
1518
1518
1520
1520
1518
1520
1516
1520
1520
1521
1520
1518
1521
1523
1521
1520
1523
1525
1525
1523
1523
1523
1521
1528
1521
1525
1523
1521
1523
1521
1520
1520
1521
1523
1525
1520
1520
1523
1520
1526
1521
1523
1523
1520
1521
1520
1520
1521
1521
1520
1521
1521
1520
1521
1520
1521
1520
1520
1518
1518
1516
1516
1516
1518
1516
1516
1516
1516
1514
1516
1514
1516
1514
1518
1514
1514
1513
1516
1516
1514
1513
1509
1520
1514
1514
1518
1521
1523
1520
1518
1514
1514
1511
1509
1509
1508
1508
1506
1513
1513
1508
1506
1509
1508
1508
1508
1508
1506
1506
1508
1508
1504
1499
1499
1501
1499
1497
1499
1502
1501
1499
1501
1502
1501
1499
1497
1496
1499
1501
1496
1494
1492
1496
1494
1490
1478
1432
1371
1337
1326
1302
1231
1237
1323
1419
1506
1555
1555
1514
1475
1465
1470
1473
1473
1470
1473
1473
1472
1473
1475
1475
1475
1473
1473
1473
1468
1472
1473
1468
1470
1467
1467
1467
1463
1465
1463
1460
1458
1460
1460
1458
1458
1456
1458
1444
1446
1446
1444
1444
1439
1432
1431
1426
1426
1419
1414
1407
1403
1395
1384
1378
1376
1366
1361
1354
1347
1342
1337
1335
1333
1328
1328
1328
1333
1340
1345
1352
1369
1378
1393
1405
1419
1426
1434
1446
1453
1458
1465
1470
1475
1475
1478
1482
1482
1482
1484
1484
1484
1484
1485
1487
1487
1485
1492
1485
1487
1485
1485
1485
1487
1487
1485
1485
1487
1485
1485
1484
1485
1485
1492
1487
1487
1485
1485
1487
1489
1492
1492
1489
1487
1492
1490
1490
1496
1494
1494
1496
1496
1492
1496
1497
1497
1497
1499
1497
1496
1499
1501
1501
1501
1501
1499
1501
1499
1497
1497
1496
1499
1501
1499
1501
1499
1502
1499
1501
1499
1501
1502
1501
1499
1497
1501
1499
1501
1499
1499
1501
1501
1502
1499
1497
1501
1501
1499
1501
1504
1502
1499
1499
1504
1501
1499
1501
1501
1508
1504
1502
1504
1502
1499
1501
1501
1501
1499
1497
1501
1499
1499
1501
1502
1504
1501
1504
1501
1497
1499
1506
1502
1501
1499
1497
1506
1499
1499
1501
1499
1502
1501
1501
1504
1501
1496
1501
1501
1504
1504
1502
1506
1496
1496
1497
1499
1494
1494
1497
1499
1501
1497
1492
1492
1496
1502
1502
1501
1494
1492
1492
1494
1494
1499
1496
1487
1467
1422
1373
1366
1350
1296
1243
1280
1362
1431
1497
1538
1514
1480
1465
1467
1473
1473
1468
1473
1482
1480
1480
1484
1482
1482
1478
1478
1480
1478
1480
1484
1480
1477
1472
1477
1473
1477
1477
1477
1470
1472
1468
1472
1473
1468
1467
1460
1460
1460
1458
1458
1455
1453
1451
1446
1444
1441
1439
1432
1427
1414
1415
1410
1400
1396
1388
1384
1378
1371
1364
1361
1357
1355
1350
1350
1352
1349
1359
1364
1373
1379
1391
1400
1410
1420
1434
1449
1455
1465
1470
1473
1482
1482
1482
1487
1489
1492
1492
1494
1492
1496
1494
1494
1492
1494
1496
1497
1497
1499
1497
1499
1497
1497
1497
1501
1497
1497
1496
1497
1508
1502
1499
1497
1501
1504
1501
1501
1502
1504
1501
1502
1504
1504
1504
1506
1509
1506
1506
1506
1506
1506
1511
1508
1506
1506
1509
1509
1509
1509
1511
1508
1511
1509
1508
1506
1508
1506
1509
1513
1513
1511
1509
1514
1511
1514
1514
1513
1513
1511
1514
1514
1513
1506
1513
1509
1509
1511
1511
1518
1513
1509
1509
1509
1509
1513
1511
1511
1511
1513
1514
1514
1511
1511
1514
1518
1513
1514
1513
1514
1513
1516
1514
1514
1514
1513
1513
1514
1514
1514
1514
1514
1511
1511
1516
1520
1518
1516
1514
1509
1511
1511
1520
1514
1514
1513
1513
1518
1516
1518
1514
1518
1516
1521
1521
1523
1521
1520
1525
1514
1511
1508
1509
1506
1508
1508
1509
1514
1511
1511
1513
1513
1513
1513
1514
1509
1508
1509
1509
1509
1514
1521
1514
1504
1480
1441
1396
1371
1357
1320
1260
1272
1355
1441
1501
1533
1520
1496
1487
1484
1485
1496
1487
1489
1489
1492
1496
1497
1490
1489
1487
1484
1485
1485
1489
1494
1489
1496
1487
1487
1487
1487
1485
1484
1482
1484
1482
1484
1475
1475
1472
1475
1477
1472
1473
1472
1467
1465
1465
1461
1458
1455
1453
1451
1437
1441
1434
1426
1424
1422
1415
1405
1393
1390
1384
1381
1376
1373
1373
1369
1362
1369
1376
1381
1386
1396
1405
1419
1427
1439
1451
1460
1465
1473
1477
1482
1489
1490
1492
1497
1494
1492
1499
1501
1501
1497
1492
1492
1494
1496
1494
1497
1499
1499
1497
1497
1497
1496
1497
1496
1499
1501
1499
1508
1499
1499
1494
1497
1501
1501
1499
1504
1501
1499
1501
1501
1501
1501
1499
1508
1497
1501
1501
1502
1501
1504
1504
1501
1502
1502
1504
1501
1502
1506
1501
1508
1504
1504
1506
1506
1502
1501
1509
1506
1508
1504
1504
1502
1502
1506
1508
1509
1508
1502
1501
1502
1506
1506
1509
1509
1508
1509
1513
1502
1501
1508
1513
1511
1508
1506
1501
1502
1502
1504
1501
1502
1499
1502
1509
1508
1508
1502
1502
1502
1506
1504
1504
1502
1499
1502
1504
1504
1504
1499
1501
1502
1506
1502
1504
1504
1501
1501
1499
1501
1502
1502
1501
1504
1501
1501
1506
1504
1502
1501
1501
1506
1506
1506
1509
1506
1506
1509
1508
1511
1508
1508
1506
1501
1499
1496
1496
1501
1499
1497
1497
1501
1504
1506
1501
1497
1494
1496
1499
1501
1499
1496
1497
1497
1502
1508
1508
1501
1487
1453
1402
1364
1340
1304
1243
1220
1296
1400
1475
1528
1533
1499
1482
1478
1478
1484
1485
1487
1482
1482
1482
1484
1478
1484
1484
1482
1477
1485
1485
1482
1484
1484
1482
1482
1484
1482
1484
1475
1475
1478
1482
1477
1472
1473
1473
1473
1475
1477
1472
1473
1470
1468
1468
1465
1458
1453
1451
1448
1439
1436
1434
1426
1420
1417
1410
1405
1393
1390
1388
1378
1378
1373
1371
1369
1364
1367
1366
1373
1378
1386
1396
1407
1417
1427
1439
1444
1460
1467
1473
1482
1485
1487
1492
1494
1492
1497
1501
1504
1501
1499
1501
1506
1501
1504
1501
1501
1501
1502
1504
1506
1509
1509
1509
1511
1511
1509
1508
1509
1508
1504
1504
1508
1509
1513
1511
1514
1511
1513
1520
1514
1509
1511
1509
1514
1514
1516
1520
1520
1516
1516
1514
1516
1516
1520
1525
1521
1521
1518
1521
1523
1523
1521
1523
1521
1520
1523
1521
1523
1523
1521
1526
1526
1526
1525
1523
1528
1525
1523
1526
1528
1521
1528
1525
1528
1528
1526
1533
1531
1526
1530
1526
1520
1526
1525
1528
1528
1528
1537
1530
1528
1531
1530
1526
1526
1526
1523
1528
1523
1523
1526
1530
1531
1530
1537
1530
1526
1526
1528
1528
1531
1525
1521
1526
1528
1528
1533
1533
1531
1530
1528
1523
1526
1523
1521
1525
1528
1528
1530
1535
1530
1538
1528
1526
1525
1526
1526
1528
1528
1533
1531
1537
1537
1528
1531
1528
1526
1535
1530
1528
1526
1526
1521
1521
1520
1520
1523
1521
1528
1531
1528
1528
1526
1528
1528
1528
1526
1528
1525
1526
1526
1528
1535
1537
1531
1514
1470
1420
1384
1361
1316
1260
1261
1352
1463
1537
1579
1561
1535
1516
1516
1516
1514
1508
1514
1516
1516
1514
1518
1516
1516
1520
1518
1520
1520
1518
1525
1518
1518
1514
1514
1513
1513
1509
1508
1506
1504
1506
1508
1506
1504
1501
1502
1501
1499
1497
1496
1494
1489
1489
1487
1485
1484
1473
1473
1472
1468
1468
1463
1458
1449
1443
1432
1432
1427
1419
1410
1405
1405
1398
1396
1384
1379
1379
1388
1398
1412
1419
1431
1444
1448
1453
1467
1478
1482
1497
1497
1501
1506
1508
1509
1514
1520
1520
1520
1520
1520
1521
1521
1525
1523
1526
1525
1525
1526
1521
1525
1528
1526
1528
1526
1526
1537
1530
1531
1526
1525
1528
1528
1531
1533
1531
1530
1533
1533
1531
1531
1531
1538
1538
1537
1535
1533
1537
1537
1537
1533
1533
1535
1537
1540
1542
1537
1540
1542
1540
1542
1543
1542
1538
1542
1542
1542
1542
1540
1542
1542
1542
1549
1547
1542
1538
1538
1537
1543
1542
1542
1540
1543
1540
1542
1549
1542
1543
1547
1543
1547
1547
1549
1549
1547
1550
1549
1552
1550
1550
1547
1549
1542
1543
1543
1542
1540
1542
1542
1540
1542
1538
1538
1537
1535
1537
1542
1542
1540
1540
1538
1537
1540
1540
1538
1540
1542
1540
1542
1542
1542
1540
1537
1540
1542
1542
1542
1538
1537
1537
1538
1538
1538
1542
1549
1542
1535
1533
1542
1547
1542
1533
1533
1533
1535
1537
1537
1528
1526
1525
1530
1528
1528
1531
1535
1533
1535
1535
1535
1533
1531
1533
1535
1533
1535
1535
1537
1533
1540
1547
1543
1533
1509
1448
1396
1364
1342
1278
1234
1290
1415
1525
1586
1595
1567
1540
1525
1516
1521
1513
1513
1514
1518
1523
1520
1516
1516
1514
1518
1520
1516
1513
1514
1511
1513
1513
1509
1509
1509
1514
1509
1508
1508
1506
1502
1502
1501
1499
1496
1496
1494
1492
1489
1489
1485
1485
1482
1478
1475
1473
1470
1463
1458
1451
1446
1441
1426
1426
1419
1410
1402
1398
1391
1384
1381
1376
1369
1366
1364
1362
1364
1366
1366
1378
1393
1403
1417
1431
1444
1453
1463
1473
1484
1489
1492
1497
1499
1501
1508
1509
1509
1511
1513
1509
1514
1514
1514
1514
1514
1514
1514
1514
1516
1514
1516
1514
1518
1516
1514
1514
1518
1516
1516
1514
1514
1521
1516
1516
1520
1514
1518
1520
1521
1520
1518
1514
1520
1518
1520
1523
1521
1526
1521
1523
1525
1521
1521
1525
1525
1525
1525
1521
1525
1521
1520
1525
1525
1523
1523
1523
1525
1521
1521
1521
1523
1521
1521
1521
1523
1523
1523
1521
1521
1521
1523
1521
1525
1521
1520
1526
1523
1521
1521
1521
1528
1520
1523
1523
1520
1521
1520
1520
1521
1521
1521
1523
1523
1523
1521
1520
1525
1520
1520
1521
1520
1516
1518
1520
1521
1520
1518
1516
1516
1520
1520
1516
1521
1516
1516
1520
1514
1513
1516
1514
1518
1516
1514
1521
1514
1516
1513
1516
1518
1516
1516
1514
1514
1513
1514
1511
1511
1513
1513
1520
1516
1514
1509
1506
1506
1506
1504
1504
1508
1506
1508
1513
1511
1509
1509
1513
1509
1509
1508
1509
1508
1509
1509
1511
1514
1509
1499
1477
1419
1364
1335
1321
1275
1227
1275
1393
1504
1562
1581
1567
1523
1499
1501
1492
1492
1487
1487
1492
1489
1490
1492
1492
1489
1492
1490
1489
1492
1490
1496
1490
1490
1489
1487
1487
1485
1487
1485
1487
1484
1480
1478
1478
1475
1475
1472
1472
1470
1467
1467
1463
1458
1456
1453
1448
1444
1434
1436
1431
1426
1419
1410
1407
1402
1391
1386
1378
1373
1364
1362
1355
1355
1343
1345
1342
1342
1342
1347
1350
1362
1369
1378
1391
1403
1412
1422
1432
1446
1448
1458
1468
1477
1478
1480
1485
1487
1490
1492
1492
1494
1494
1494
1494
1494
1499
1496
1496
1497
1494
1492
1492
1494
1494
1492
1492
1501
1496
1492
1496
1494
1490
1494
1497
1497
1494
1492
1499
1496
1499
1497
1497
1504
1499
1499
1501
1504
1501
1504
1504
1506
1506
1506
1508
1506
1509
1508
1509
1514
1509
1511
1511
1511
1513
1511
1513
1509
1513
1513
1511
1514
1514
1514
1513
1514
1514
1514
1514
1514
1514
1513
1514
1516
1513
1514
1521
1516
1513
1513
1513
1514
1518
1514
1514
1518
1516
1518
1514
1516
1516
1518
1521
1518
1518
1520
1516
1514
1516
1518
1516
1518
1514
1514
1514
1514
1516
1516
1520
1518
1516
1520
1516
1520
1520
1516
1514
1514
1514
1516
1514
1514
1514
1513
1514
1514
1514
1514
1514
1514
1516
1516
1516
1520
1516
1520
1516
1520
1516
1513
1514
1518
1518
1520
1514
1513
1514
1509
1509
1509
1508
1514
1513
1514
1518
1514
1513
1516
1514
1513
1514
1513
1513
1513
1511
1514
1513
1518
1514
1513
1502
1478
1419
1366
1338
1326
1278
1227
1272
1386
1496
1562
1584
1569
1526
1499
1497
1497
1496
1496
1492
1494
1496
1497
1499
1492
1494
1492
1494
1496
1496
1496
1496
1496
1492
1494
1492
1489
1487
1487
1494
1485
1485
1484
1482
1480
1478
1475
1473
1472
1470
1467
1465
1461
1461
1461
1455
1453
1448
1446
1439
1434
1426
1424
1417
1408
1402
1390
1386
1379
1371
1369
1362
1357
1354
1349
1343
1342
1342
1340
1342
1347
1357
1361
1374
1384
1396
1412
1424
1431
1444
1453
1461
1472
1477
1482
1485
1487
1489
1494
1492
1492
1496
1496
1494
1499
1499
1499
1494
1496
1497
1499
1497
1499
1501
1501
1501
1501
1499
1496
1499
1499
1496
1499
1499
1499
1504
1501
1501
1499
1497
1502
1501
1501
1501
1501
1502
1506
1506
1506
1502
1502
1509
1506
1508
1508
1509
1508
1511
1509
1513
1509
1508
1508
1513
1513
1513
1513
1514
1513
1511
1516
1514
1514
1514
1514
1514
1514
1513
1516
1516
1518
1516
1514
1514
1514
1514
1514
1514
1514
1520
1518
1520
1518
1516
1523
1513
1514
1514
1518
1520
1520
1516
1516
1514
1514
1516
1516
1514
1516
1513
1521
1514
1514
1520
1514
1514
1516
1516
1514
1514
1513
1513
1514
1514
1516
1516
1520
1518
1518
1518
1516
1514
1514
1516
1520
1514
1518
1521
1514
1516
1518
1516
1518
1518
1516
1518
1516
1514
1514
1516
1518
1520
1518
1526
1523
1521
1516
1513
1511
1511
1511
1508
1513
1514
1514
1520
1516
1514
1514
1518
1514
1514
1514
1514
1514
1513
1513
1511
1514
1508
1502
1494
1453
1393
1357
1345
1318
1243
1243
1328
1439
1523
1567
1574
1540
1506
1504
1496
1499
1497
1494
1499
1499
1501
1502
1499
1499
1499
1501
1499
1497
1496
1499
1496
1492
1492
1492
1490
1489
1489
1487
1489
1487
1485
1487
1485
1482
1482
1480
1478
1477
1473
1473
1473
1470
1467
1467
1461
1458
1451
1449
1444
1437
1434
1426
1422
1417
1408
1402
1391
1386
1383
1378
1371
1366
1357
1359
1355
1354
1354
1355
1362
1366
1376
1384
1398
1410
1419
1432
1444
1455
1458
1470
1477
1482
1487
1489
1496
1496
1501
1504
1502
1506
1506
1508
1508
1508
1511
1511
1511
1509
1509
1509
1513
1513
1513
1513
1511
1518
1513
1513
1511
1511
1509
1509
1509
1509
1508
1508
1514
1509
1513
1513
1514
1520
1514
1514
1518
1518
1516
1518
1516
1518
1518
1518
1518
1521
1521
1521
1521
1526
1521
1523
1523
1525
1525
1525
1526
1528
1528
1525
1526
1528
1526
1528
1526
1526
1526
1528
1528
1528
1528
1526
1526
1528
1528
1528
1537
1530
1528
1528
1528
1530
1528
1530
1530
1530
1528
1528
1530
1530
1528
1530
1535
1531
1533
1530
1531
1531
1530
1531
1530
1531
1528
1531
1531
1533
1530
1533
1535
1533
1531
1533
1533
1533
1533
1535
1531
1533
1531
1531
1533
1533
1531
1531
1533
1531
1531
1531
1531
1530
1533
1530
1533
1535
1533
1540
1537
1537
1535
1537
1537
1535
1538
1538
1542
1540
1537
1535
1530
1528
1528
1531
1528
1533
1535
1533
1531
1533
1531
1535
1533
1528
1530
1530
1530
1531
1531
1533
1537
1540
1537
1528
1508
1453
1396
1369
1345
1292
1227
1260
1362
1472
1543
1581
1564
1537
1521
1514
1513
1520
1513
1514
1514
1516
1523
1514
1514
1513
1513
1518
1516
1513
1514
1513
1509
1509
1513
1513
1509
1509
1513
1506
1506
1506
1506
1504
1506
1502
1501
1501
1499
1496
1496
1494
1490
1485
1485
1482
1482
1477
1472
1468
1463
1460
1451
1444
1441
1427
1424
1419
1410
1403
1398
1391
1386
1383
1379
1378
1374
1371
1373
1378
1384
1384
1400
1412
1422
1437
1446
1458
1468
1478
1485
1494
1499
1504
1509
1509
1514
1520
1520
1521
1520
1520
1520
1521
1521
1523
1523
1521
1521
1523
1526
1526
1521
1528
1526
1528
1526
1528
1526
1523
1526
1528
1526
1528
1533
1528
1526
1528
1528
1530
1528
1531
1531
1531
1528
1533
1533
1535
1535
1535
1540
1537
1537
1537
1537
1537
1537
1538
1537
1537
1537
1537
1538
1540
1540
1540
1542
1542
1542
1542
1542
1540
1542
1542
1542
1542
1542
1542
1542
1543
1542
1542
1543
1542
1542
1542
1542
1542
1547
1542
1543
1543
1545
1552
1545
1545
1542
1542
1542
1543
1542
1542
1542
1542
1542
1545
1543
1545
1542
1549
1542
1542
1540
1542
1540
1540
1540
1540
1540
1542
1540
1540
1538
1538
1540
1542
1540
1540
1540
1540
1540
1543
1542
1542
1538
1537
1545
1542
1540
1538
1537
1542
1537
1538
1538
1542
1538
1542
1540
1540
1540
1537
1542
1540
1540
1538
1535
1533
1538
1538
1540
1540
1537
1531
1531
1531
1528
1525
1530
1535
1535
1537
1537
1533
1537
1535
1533
1537
1530
1530
1531
1531
1528
1531
1533
1537
1538
1531
1513
1460
1402
1364
1342
1304
1234
1229
1323
1451
1535
1581
1578
1547
1523
1516
1514
1511
1508
1509
1513
1514
1513
1518
1513
1513
1514
1511
1509
1509
1511
1511
1509
1509
1509
1509
1509
1508
1506
1506
1508
1504
1501
1501
1499
1501
1496
1497
1494
1490
1489
1490
1485
1484
1480
1477
1473
1468
1468
1461
1460
1453
1446
1437
1432
1426
1410
1407
1402
1395
1386
1381
1376
1371
1367
1364
1361
1362
1361
1364
1369
1378
1383
1398
1410
1422
1436
1451
1458
1468
1478
1487
1492
1499
1501
1509
1508
1511
1514
1513
1513
1514
1516
1514
1516
1518
1518
1518
1516
1521
1520
1518
1520
1516
1518
1520
1520
1520
1520
1520
1523
1521
1521
1520
1521
1528
1521
1521
1520
1521
1523
1523
1525
1525
1521
1523
1525
1526
1525
1526
1525
1530
1528
1526
1528
1528
1531
1530
1531
1530
1533
1530
1533
1533
1537
1535
1533
1537
1533
1535
1535
1533
1535
1535
1537
1537
1537
1535
1542
1537
1537
1538
1537
1540
1538
1540
1540
1542
1542
1540
1542
1542
1540
1542
1547
1542
1540
1540
1540
1538
1538
1538
1540
1538
1537
1537
1537
1538
1537
1537
1540
1537
1537
1538
1538
1537
1540
1540
1538
1538
1538
1537
1537
1540
1537
1540
1540
1538
1537
1535
1537
1537
1538
1537
1538
1538
1537
1542
1537
1538
1535
1535
1535
1533
1537
1535
1537
1535
1535
1533
1533
1535
1533
1537
1533
1537
1533
1535
1533
1530
1533
1531
1531
1530
1533
1537
1537
1528
1526
1526
1526
1525
1523
1525
1528
1533
1531
1533
1531
1531
1531
1530
1528
1530
1526
1530
1528
1528
1528
1531
1537
1540
1525
1501
1444
1384
1349
1333
1282
1224
1256
1371
1487
1561
1586
1566
1530
1518
1513
1509
1509
1502
1509
1508
1509
1508
1508
1508
1506
1508
1508
1506
1502
1504
1504
1504
1501
1504
1504
1501
1499
1501
1499
1497
1499
1497
1494
1494
1490
1499
1490
1487
1485
1484
1482
1478
1478
1473
1472
1468
1460
1460
1453
1449
1444
1426
1426
1419
1412
1405
1396
1390
1383
1378
1371
1367
1366
1361
1355
1352
1355
1355
1362
1369
1378
1391
1403
1414
1427
1443
1455
1468
1477
1487
1494
1501
1508
1509
1514
1516
1514
1518
1518
1516
1518
1521
1520
1521
1526
1520
1521
1521
1523
1526
1525
1526
1525
1526
1523
1523
1521
1525
1525
1523
1528
1525
1520
1523
1523
1525
1521
1523
1523
1525
1525
1526
1528
1528
1528
1526
1528
1531
1528
1530
1531
1535
1533
1533
1535
1535
1533
1535
1537
1537
1537
1537
1537
1538
1537
1538
1538
1538
1540
1540
1540
1542
1540
1545
1540
1542
1540
1540
1542
1542
1540
1538
1540
1540
1540
1540
1542
1542
1540
1547
1542
1540
1542
1543
1542
1543
1542
1542
1542
1542
1540
1542
1542
1543
1543
1543
1542
1542
1540
1542
1542
1542
1543
1543
1542
1542
1549
1542
1542
1543
1542
1542
1542
1543
1542
1540
1540
1545
1542
1542
1542
1540
1547
1538
1542
1542
1540
1540
1542
1540
1538
1538
1537
1538
1540
1538
1538
1537
1542
1537
1538
1538
1537
1537
1538
1542
1538
1535
1537
1537
1533
1537
1538
1540
1542
1537
1531
1531
1528
1526
1530
1528
1533
1535
1533
1542
1537
1535
1533
1537
1537
1535
1533
1535
1533
1531
1528
1535
1538
1540
1533
1525
1484
1422
1373
1349
1325
1256
1222
1292
1419
1520
1576
1590
1559
1528
1516
1514
1513
1509
1508
1508
1511
1511
1513
1514
1511
1511
1509
1509
1509
1509
1508
1508
1508
1506
1506
1506
1504
1502
1501
1502
1501
1497
1504
1497
1494
1490
1490
1489
1487
1485
1485
1484
1482
1477
1473
1470
1467
1461
1453
1453
1446
1439
1431
1426
1415
1408
1400
1393
1386
1379
1371
1367
1362
1359
1355
1352
1350
1352
1359
1364
1371
1379
1391
1405
1420
1431
1446
1456
1467
1475
1485
1492
1496
1501
1504
1508
1514
1513
1514
1513
1513
1520
1513
1514
1514
1518
1516
1518
1516
1518
1518
1516
1520
1518
1518
1516
1516
1521
1518
1521
1520
1520
1520
1521
1520
1521
1520
1520
1521
1523
1521
1525
1525
1526
1525
1523
1526
1525
1526
1526
1528
1530
1533
1535
1540
1537
1537
1537
1533
1535
1535
1537
1537
1537
1531
1533
1537
1538
1537
1537
1542
1537
1538
1538
1537
1537
1538
1538
1537
1537
1538
1538
1538
1538
1538
1538
1542
1537
1535
1537
1538
1537
1540
1542
1538
1537
1538
1542
1540
1538
1540
1538
1542
1542
1542
1542
1542
1540
1540
1542
1540
1540
1540
1543
1538
1538
1540
1538
1540
1542
1540
1542
1540
1538
1537
1540
1540
1538
1537
1542
1540
1538
1540
1538
1538
1538
1538
1538
1537
1535
1537
1537
1538
1537
1537
1537
1537
1535
1537
1537
1537
1537
1537
1538
1537
1535
1537
1538
1537
1535
1533
1538
1537
1537
1540
1538
1533
1533
1528
1528
1528
1526
1535
1533
1533
1535
1535
1537
1533
1533
1537
1530
1530
1531
1530
1533
1531
1528
1540
1538
1533
1523
1485
1426
1371
1350
1326
1258
1227
1299
1419
1521
1578
1591
1561
1528
1516
1513
1513
1509
1508
1509
1509
1511
1509
1514
1508
1509
1508
1508
1509
1508
1506
1508
1506
1504
1508
1506
1501
1501
1499
1506
1501
1499
1499
1496
1496
1496
1494
1492
1489
1484
1482
1480
1478
1477
1475
1465
1467
1460
1455
1453
1446
1441
1432
1427
1417
1410
1403
1395
1386
1378
1374
1367
1361
1355
1352
1350
1349
1350
1352
1357
1367
1378
1383
1400
1415
1432
1439
1453
1463
1473
1484
1489
1494
1499
1501
1506
1508
1508
1514
1511
1514
1514
1513
1513
1514
1513
1514
1514
1513
1514
1514
1514
1514
1514
1518
1514
1514
1518
1514
1514
1514
1514
1516
1514
1514
1514
1516
1516
1516
1514
1520
1520
1520
1520
1520
1518
1520
1521
1520
1520
1520
1528
1521
1523
1526
1523
1526
1525
1526
1528
1526
1525
1528
1530
1528
1528
1528
1533
1526
1528
1528
1526
1526
1528
1528
1531
1533
1528
1533
1537
1537
1535
1533
1537
1537
1538
1535
1537
1533
1535
1533
1531
1530
1530
1538
1531
1531
1531
1526
1528
1530
1530
1528
1526
1526
1533
1526
1528
1528
1528
1531
1528
1528
1528
1528
1530
1528
1526
1528
1530
1525
1528
1526
1525
1526
1526
1528
1525
1526
1525
1525
1526
1525
1525
1521
1521
1523
1523
1525
1523
1521
1520
1521
1525
1523
1523
1523
1520
1520
1521
1521
1521
1523
1530
1521
1521
1521
1516
1514
1514
1520
1523
1523
1520
1514
1513
1513
1509
1508
1514
1513
1514
1514
1514
1513
1514
1513
1514
1513
1513
1513
1511
1508
1508
1508
1514
1516
1518
1508
1487
1439
1378
1343
1328
1284
1219
1248
1347
1458
1537
1569
1561
1520
1497
1492
1492
1490
1487
1485
1489
1489
1490
1494
1489
1485
1487
1485
1487
1487
1485
1482
1480
1482
1484
1482
1478
1478
1475
1472
1477
1473
1473
1473
1470
1467
1470
1467
1467
1460
1458
1456
1455
1453
1451
1444
1443
1437
1431
1426
1422
1415
1410
1403
1393
1386
1371
1371
1362
1359
1354
1347
1340
1338
1335
1330
1330
1333
1337
1343
1350
1357
1364
1381
1395
1405
1426
1434
1446
1453
1461
1465
1475
1478
1482
1485
1485
1487
1496
1489
1489
1490
1492
1489
1492
1490
1492
1494
1492
1490
1494
1494
1494
1496
1496
1494
1492
1496
1496
1494
1497
1494
1497
1497
1494
1504
1497
1499
1499
1497
1502
1501
1499
1501
1504
1501
1506
1501
1502
1504
1502
1509
1504
1502
1508
1506
1506
1509
1509
1511
1509
1509
1509
1511
1509
1513
1509
1514
1513
1511
1514
1514
1514
1514
1511
1513
1514
1511
1514
1514
1514
1513
1513
1514
1516
1516
1514
1514
1518
1516
1513
1513
1518
1514
1521
1514
1516
1516
1514
1516
1514
1514
1518
1518
1514
1513
1514
1513
1514
1514
1520
1516
1518
1516
1516
1514
1516
1516
1514
1518
1514
1518
1516
1514
1514
1513
1518
1518
1514
1516
1516
1514
1518
1514
1516
1514
1514
1516
1516
1514
1518
1518
1520
1518
1516
1520
1520
1514
1521
1516
1520
1520
1518
1525
1520
1520
1521
1520
1518
1518
1518
1514
1511
1511
1514
1514
1518
1520
1520
1521
1520
1514
1518
1516
1514
1513
1513
1514
1513
1516
1521
1514
1506
1478
1422
1376
1362
1342
1277
1243
1306
1407
1494
1554
1569
1537
1511
1496
1496
1496
1497
1496
1497
1501
1501
1499
1499
1506
1501
1499
1499
1497
1502
1499
1496
1499
1497
1496
1496
1492
1494
1492
1487
1487
1487
1485
1487
1487
1490
1484
1482
1482
1475
1475
1475
1472
1472
1467
1465
1460
1456
1451
1446
1443
1434
1427
1420
1415
1410
1402
1395
1388
1381
1376
1371
1361
1364
1359
1359
1361
1362
1367
1371
1383
1391
1403
1419
1429
1439
1453
1461
1465
1478
1487
1490
1496
1497
1499
1502
1508
1506
1508
1508
1511
1513
1511
1513
1513
1516
1514
1514
1514
1514
1514
1514
1514
1516
1514
1514
1514
1518
1514
1516
1516
1518
1516
1516
1516
1518
1520
1520
1521
1520
1521
1526
1521
1521
1521
1523
1526
1525
1523
1525
1525
1526
1526
1526
1528
1528
1526
1535
1528
1531
1530
1530
1528
1531
1528
1531
1531
1531
1531
1533
1533
1530
1533
1533
1533
1535
1533
1533
1531
1533
1533
1531
1531
1530
1535
1531
1533
1530
1530
1533
1531
1531
1531
1535
1528
1537
1537
1535
1533
1535
1538
1533
1533
1535
1531
1533
1531
1535
1533
1533
1533
1533
1533
1533
1535
1535
1540
1535
1537
1535
1535
1533
1533
1535
1533
1533
1531
1533
1533
1531
1530
1531
1533
1530
1528
1530
1530
1530
1530
1533
1531
1530
1530
1537
1530
1533
1533
1533
1533
1531
1531
1531
1531
1528
1535
1533
1535
1537
1531
1533
1526
1526
1523
1521
1521
1528
1528
1530
1530
1528
1528
1528
1526
1526
1526
1528
1526
1526
1528
1528
1530
1537
1535
1523
1489
1432
1381
1359
1330
1265
1229
1287
1405
1502
1562
1573
1545
1523
1513
1508
1508
1504
1513
1508
1509
1508
1509
1511
1508
1508
1509
1508
1508
1508
1508
1508
1506
1504
1509
1508
1506
1504
1504
1501
1501
1499
1499
1497
1496
1494
1492
1489
1492
1487
1487
1484
1484
1480
1473
1475
1468
1463
1458
1453
1449
1439
1434
1427
1419
1410
1405
1398
1391
1384
1376
1371
1367
1362
1361
1357
1359
1355
1364
1376
1384
1398
1405
1419
1432
1444
1460
1472
1478
1485
1492
1501
1501
1513
1509
1513
1514
1514
1514
1518
1518
1518
1520
1520
1520
1521
1520
1520
1520
1520
1520
1521
1520
1520
1518
1520
1521
1521
1520
1523
1526
1523
1521
1521
1521
1521
1521
1523
1525
1525
1525
1528
1525
1526
1526
1528
1537
1530
1528
1530
1528
1530
1528
1531
1531
1530
1531
1531
1533
1533
1535
1535
1537
1537
1537
1538
1537
1537
1537
1537
1537
1535
1533
1537
1537
1537
1538
1537
1537
1538
1538
1540
1538
1538
1538
1538
1538
1540
1538
1545
1538
1538
1540
1540
1540
1542
1542
1540
1538
1540
1538
1540
1538
1540
1540
1545
1540
1540
1542
1540
1540
1542
1542
1540
1542
1540
1540
1543
1542
1540
1542
1542
1542
1540
1542
1542
1540
1542
1542
1542
1538
1538
1538
1537
1538
1537
1537
1540
1537
1537
1537
1537
1535
1537
1533
1538
1537
1535
1542
1538
1537
1535
1533
1537
1533
1535
1533
1533
1537
1535
1538
1535
1528
1526
1528
1523
1525
1528
1528
1531
1533
1533
1533
1535
1530
1531
1533
1533
1531
1530
1533
1530
1533
1537
1537
1538
1526
1499
1441
1388
1357
1331
1277
1227
1275
1396
1506
1567
1590
1562
1531
1518
1520
1514
1508
1509
1508
1518
1511
1513
1509
1509
1511
1513
1509
1509
1509
1508
1509
1508
1509
1508
1504
1509
1501
1504
1502
1499
1501
1501
1494
1492
1492
1494
1490
1489
1485
1487
1482
1478
1478
1473
1470
1468
1463
1458
1453
1444
1439
1432
1417
1415
1405
1402
1391
1383
1379
1371
1364
1364
1357
1357
1352
1354
1354
1359
1361
1376
1386
1398
1410
1426
1437
1451
1461
1473
1482
1492
1497
1501
1506
1509
1516
1514
1514
1518
1516
1518
1520
1520
1520
1518
1518
1520
1521
1521
1521
1521
1521
1521
1523
1525
1523
1520
1523
1521
1523
1523
1523
1528
1521
1523
1526
1526
1526
1526
1528
1528
1531
1528
1530
1531
1530
1530
1528
1538
1533
1535
1535
1535
1533
1535
1537
1537
1537
1535
1537
1538
1537
1538
1538
1540
1538
1540
1538
1540
1542
1542
1542
1542
1542
1540
1542
1542
1542
1540
1540
1542
1542
1542
1542
1540
1540
1547
1542
1542
1542
1543
1550
1545
1545
1543
1542
1543
1542
1543
1545
1545
1545
1543
1543
1543
1545
1543
1550
1545
1545
1542
1543
1542
1542
1545
1545
1545
1542
1543
1542
1540
1542
1540
1542
1542
1540
1542
1540
1542
1538
1540
1540
1542
1542
1549
1542
1538
1537
1538
1540
1538
1537
1540
1540
1538
1540
1540
1538
1537
1537
1543
1538
1538
1538
1538
1537
1538
1538
1537
1537
1533
1533
1535
1537
1538
1538
1537
1528
1526
1526
1526
1525
1528
1528
1530
1533
1531
1530
1530
1528
1531
1528
1530
1530
1528
1528
1528
1528
1528
1533
1533
1525
1502
1441
1390
1355
1342
1289
1224
1253
1355
1473
1547
1583
1569
1535
1513
1509
1508
1511
1499
1501
1504
1506
1506
1504
1508
1502
1502
1501
1504
1502
1502
1501
1497
1499
1497
1497
1497
1494
1490
1490
1492
1489
1490
1485
1484
1482
1482
1482
1478
1475
1475
1473
1470
1465
1461
1460
1453
1449
1444
1441
1426
1427
1417
1412
1407
1396
1390
1383
1378
1371
1364
1361
1350
1345
1342
1338
1335
1337
1338
1345
1355
1364
1371
1384
1398
1408
1424
1436
1449
1458
1465
1473
1484
1485
1487
1492
1494
1499
1499
1501
1502
1501
1499
1504
1501
1501
1501
1502
1504
1501
1502
1502
1504
1501
1509
1506
1506
1504
1502
1508
1504
1502
1506
1504
1504
1506
1506
1504
1502
1504
1506
1508
1508
1508
1508
1513
1509
1508
1509
1513
1514
1509
1509
1513
1514
1511
1513
1516
1518
1516
1516
1518
1520
1518
1514
1513
1514
1516
1520
1520
1518
1521
1526
1520
1520
1518
1516
1521
1521
1520
1520
1520
1521
1521
1520
1514
1520
1521
1528
1521
1521
1523
1520
1520
1525
1525
1523
1525
1521
1523
1525
1520
1521
1521
1523
1523
1520
1521
1521
1520
1521
1520
1521
1520
1521
1520
1520
1520
1520
1520
1525
1523
1521
1520
1523
1520
1521
1520
1523
1520
1518
1525
1520
1521
1521
1518
1523
1520
1520
1518
1520
1520
1521
1520
1518
1520
1518
1523
1520
1520
1520
1520
1521
1523
1521
1521
1523
1523
1521
1523
1523
1523
1523
1525
1520
1520
1520
1516
1513
1513
1516
1518
1520
1521
1525
1518
1518
1516
1514
1518
1516
1514
1514
1514
1514
1520
1516
1514
1506
1485
1426
1384
1361
1354
1311
1241
1268
1362
1456
1526
1573
1561
1521
1496
1494
1494
1501
1494
1492
1496
1499
1499
1499
1501
1501
1499
1496
1499
1496
1497
1494
1496
1496
1496
1494
1492
1490
1494
1492
1492
1487
1490
1485
1492
1487
1485
1478
1478
1480
1478
1477
1473
1473
1470
1465
1460
1460
1455
1453
1441
1441
1434
1426
1420
1415
1408
1402
1395
1390
1386
1381
1371
1369
1364
1362
1355
1359
1359
1362
1369
1378
1388
1398
1405
1420
1432
1444
1455
1465
1472
1480
1487
1494
1499
1501
1504
1508
1509
1513
1513
1514
1513
1520
1514
1518
1518
1516
1520
1520
1516
1516
1520
1516
1520
1520
1520
1521
1520
1523
1520
1521
1521
1521
1520
1521
1521
1521
1521
1521
1523
1523
1523
1521
1521
1526
1528
1528
1528
1528
1526
1531
1533
1531
1531
1535
1533
1535
1535
1535
1537
1537
1538
1537
1537
1535
1537
1542
1538
1538
1538
1538
1543
1537
1537
1538
1537
1538
1540
1537
1537
1542
1538
1540
1542
1540
1540
1542
1545
1540
1542
1542
1540
1540
1542
1542
1540
1540
1542
1542
1542
1542
1542
1542
1542
1542
1542
1543
1542
1540
1542
1540
1542
1542
1542
1547
1542
1542
1540
1543
1543
1542
1542
1542
1542
1540
1547
1542
1542
1542
1542
1549
1542
1542
1540
1538
1540
1540
1542
1542
1542
1540
1538
1542
1540
1542
1540
1543
1540
1540
1540
1542
1540
1540
1540
1542
1540
1537
1538
1543
1542
1543
1543
1537
1533
1531
1531
1531
1528
1530
1537
1537
1537
1537
1542
1538
1537
1535
1535
1537
1535
1535
1533
1535
1533
1535
1542
1542
1535
1516
1467
1415
1378
1359
1318
1246
1248
1333
1446
1525
1574
1573
1543
1523
1516
1516
1514
1513
1513
1518
1514
1518
1518
1516
1518
1518
1516
1516
1514
1518
1513
1513
1514
1514
1513
1509
1509
1508
1509
1508
1509
1508
1502
1509
1502
1504
1501
1497
1499
1497
1494
1490
1487
1487
1484
1480
1473
1473
1473
1461
1460
1456
1449
1439
1436
1426
1419
1414
1407
1403
1398
1390
1384
1381
1378
1371
1369
1371
1371
1376
1383
1391
1400
1410
1422
1436
1443
1460
1470
1482
1487
1496
1501
1506
1509
1514
1514
1525
1520
1520
1521
1523
1528
1525
1525
1525
1523
1525
1525
1523
1523
1525
1523
1525
1523
1523
1525
1523
1530
1526
1526
1528
1526
1526
1528
1528
1528
1528
1526
1528
1533
1530
1531
1535
1533
1535
1535
1535
1533
1533
1533
1537
1535
1538
1540
1542
1537
1538
1538
1538
1540
1540
1540
1538
1540
1538
1538
1540
1540
1540
1542
1545
1540
1542
1542
1542
1540
1542
1542
1542
1542
1542
1542
1542
1542
1543
1540
1545
1542
1543
1547
1545
1547
1547
1543
1547
1547
1545
1545
1547
1543
1545
1542
1543
1543
1545
1545
1545
1543
1543
1545
1545
1543
1543
1549
1545
1545
1547
1547
1547
1543
1543
1543
1547
1543
1547
1545
1549
1547
1545
1549
1547
1543
1545
1542
1540
1543
1547
1547
1545
1545
1545
1547
1545
1543
1542
1543
1545
1545
1545
1545
1543
1542
1542
1542
1542
1542
1543
1542
1543
1540
1542
1542
1542
1542
1543
1542
1538
1542
1542
1542
1545
1542
1543
1537
1535
1533
1531
1530
1531
1537
1537
1540
1537
1537
1537
1537
1537
1537
1540
1537
1533
1533
1535
1535
1537
1543
1542
1537
1523
1478
1419
1376
1355
1321
1249
1226
1297
1419
1516
1574
1583
1554
1528
1516
1514
1521
1509
1509
1511
1513
1513
1516
1513
1513
1511
1509
1514
1511
1509
1509
1508
1513
1508
1509
1506
1502
1502
1504
1504
1501
1501
1499
1501
1497
1496
1496
1494
1494
1489
1487
1487
1484
1482
1478
1473
1472
1468
1465
1460
1453
1444
1441
1434
1424
1417
1412
1405
1396
1390
1383
1376
1373
1367
1362
1354
1355
1354
1354
1357
1362
1369
1378
1391
1405
1417
1431
1444
1455
1467
1477
1492
1492
1499
1504
1506
1511
1514
1514
1514
1520
1520
1520
1521
1520
1521
1520
1523
1521
1520
1521
1521
1520
1525
1521
1523
1521
1523
1523
1523
1525
1526
1523
1528
1526
1526
1528
1528
1526
1528
1528
1528
1528
1528
1535
1526
1530
1533
1530
1533
1533
1533
1535
1537
1533
1535
1537
1538
1537
1533
1542
1540
1538
1538
1538
1538
1538
1540
1540
1542
1538
1540
1542
1542
1542
1543
1542
1542
1542
1543
1542
1542
1542
1542
1542
1542
1542
1547
1545
1545
1542
1542
1542
1542
1545
1545
1543
1542
1547
1543
1545
1545
1543
1550
1547
1545
1545
1543
1542
1545
1543
1547
1543
1542
1542
1547
1545
1545
1545
1549
1547
1545
1543
1545
1542
1547
1547
1545
1545
1545
1545
1547
1547
1549
1547
1547
1547
1547
1547
1543
1543
1545
1545
1543
1542
1545
1549
1543
1543
1545
1542
1545
1542
1542
1542
1542
1542
1543
1543
1542
1542
1542
1550
1543
1542
1540
1540
1538
1540
1542
1542
1543
1545
1542
1538
1535
1537
1537
1537
1533
1537
1538
1538
1538
1538
1537
1538
1537
1535
1537
1537
1537
1537
1538
1537
1537
1542
1547
1538
1520
1473
1412
1369
1352
1321
1243
1239
1323
1448
1542
1591
1591
1555
1528
1518
1513
1513
1509
1511
1513
1513
1521
1514
1514
1513
1514
1513
1513
1514
1514
1513
1509
1509
1509
1508
1509
1506
1508
1502
1502
1504
1501
1499
1497
1497
1496
1494
1492
1492
1489
1485
1482
1482
1475
1478
1470
1467
1463
1458
1451
1444
1439
1431
1424
1412
1412
1402
1395
1388
1379
1371
1369
1362
1361
1355
1352
1350
1350
1355
1362
1364
1379
1391
1403
1417
1432
1443
1455
1468
1477
1482
1492
1497
1501
1506
1508
1511
1514
1518
1518
1518
1518
1521
1521
1520
1520
1520
1526
1520
1520
1518
1520
1523
1521
1523
1521
1520
1516
1521
1521
1523
1523
1521
1528
1521
1521
1523
1523
1523
1521
1521
1523
1521
1521
1525
1525
1526
1528
1526
1530
1526
1528
1530
1531
1528
1531
1531
1533
1533
1530
1533
1537
1537
1537
1535
1535
1535
1537
1533
1533
1533
1535
1531
1533
1533
1535
1537
1533
1537
1535
1531
1535
1533
1535
1535
1531
1528
1531
1533
1530
1528
1531
1537
1533
1533
1533
1535
1531
1533
1528
1528
1530
1530
1531
1530
1528
1528
1526
1530
1528
1528
1528
1526
1526
1528
1526
1528
1528
1528
1530
1528
1528
1526
1523
1525
1525
1521
1525
1526
1525
1526
1523
1525
1521
1523
1526
1520
1521
1521
1521
1523
1520
1520
1518
1521
1520
1520
1520
1520
1518
1514
1523
1514
1516
1514
1516
1518
1520
1520
1518
1514
1514
1514
1514
1514
1518
1520
1521
1516
1514
1511
1509
1508
1508
1509
1509
1509
1509
1514
1514
1509
1509
1508
1511
1509
1508
1509
1508
1502
1504
1506
1509
1506
1494
1472
1424
1373
1350
1342
1282
1220
1258
1352
1444
1514
1559
1549
1502
1480
1480
1484
1484
1482
1482
1484
1484
1480
1482
1485
1487
1484
1485
1484
1484
1482
1482
1482
1484
1484
1478
1478
1478
1478
1478
1477
1475
1473
1468
1472
1470
1467
1467
1465
1461
1461
1460
1458
1460
1453
1446
1444
1443
1439
1426
1426
1422
1412
1408
1400
1391
1384
1381
1376
1369
1362
1355
1350
1349
1345
1342
1342
1342
1343
1349
1359
1366
1376
1386
1398
1412
1419
1431
1444
1456
1467
1468
1473
1482
1485
1489
1490
1494
1494
1496
1496
1499
1506
1501
1501
1501
1499
1501
1501
1501
1504
1502
1501
1502
1504
1504
1504
1504
1509
1502
1504
1502
1504
1502
1502
1504
1506
1508
1508
1508
1508
1508
1508
1508
1511
1511
1511
1513
1511
1513
1514
1516
1514
1514
1514
1516
1516
1516
1520
1521
1520
1523
1523
1525
1521
1520
1528
1521
1521
1523
1525
1530
1523
1523
1523
1525
1521
1523
1521
1523
1526
1523
1525
1523
1526
1526
1523
1531
1525
1525
1525
1525
1523
1526
1528
1528
1526
1523
1523
1526
1526
1526
1526
1526
1521
1526
1526
1528
1526
1526
1528
1525
1528
1526
1533
1528
1528
1528
1528
1530
1526
1528
1528
1528
1528
1526
1526
1528
1528
1526
1533
1528
1526
1528
1526
1528
1528
1528
1528
1531
1526
1528
1528
1528
1530
1528
1531
1530
1528
1528
1530
1530
1531
1530
1531
1531
1530
1530
1533
1533
1533
1533
1531
1526
1521
1523
1521
1521
1521
1523
1523
1528
1528
1531
1526
1523
1526
1526
1526
1525
1523
1525
1523
1523
1528
1533
1533
1521
1497
1434
1388
1361
1335
1280
1212
1241
1349
1458
1538
1571
1554
1521
1509
1508
1504
1506
1502
1508
1506
1509
1509
1509
1508
1508
1509
1508
1508
1509
1508
1506
1508
1509
1506
1502
1504
1502
1504
1508
1501
1501
1501
1496
1504
1496
1492
1494
1490
1489
1487
1485
1484
1482
1482
1473
1472
1467
1460
1460
1448
1444
1439
1434
1426
1420
1412
1405
1396
1391
1386
1379
1371
1367
1364
1364
1362
1364
1367
1371
1379
1391
1400
1414
1426
1439
1453
1455
1473
1482
1487
1497
1504
1506
1511
1514
1514
1516
1521
1520
1521
1521
1520
1528
1523
1521
1523
1523
1520
1525
1525
1526
1523
1523
1526
1526
1526
1526
1523
1531
1526
1526
1526
1528
1528
1528
1526
1528
1528
1528
1528
1528
1530
1531
1528
1535
1533
1533
1533
1537
1537
1537
1538
1538
1537
1538
1542
1537
1537
1542
1540
1542
1540
1540
1542
1542
1540
1542
1542
1542
1542
1540
1547
1545
1543
1543
1542
1543
1542
1543
1545
1543
1543
1547
1549
1549
1549
1550
1550
1549
1552
1549
1552
1549
1552
1550
1547
1549
1549
1545
1543
1547
1547
1543
1547
1547
1543
1545
1547
1545
1543
1543
1547
1547
1543
1550
1547
1545
1547
1545
1547
1545
1547
1547
1547
1545
1543
1547
1545
1547
1543
1552
1545
1549
1549
1550
1549
1552
1549
1549
1547
1543
1547
1547
1543
1543
1542
1545
1542
1542
1542
1540
1537
1542
1542
1540
1542
1542
1547
1543
1542
1543
1540
1540
1538
1538
1540
1540
1542
1547
1537
1535
1533
1531
1537
1530
1533
1537
1537
1535
1537
1537
1537
1531
1533
1535
1533
1533
1533
1533
1535
1531
1537
1542
1542
1531
1511
1453
1391
1357
1337
1289
1214
1231
1337
1458
1540
1583
1567
1537
1516
1508
1509
1506
1504
1506
1506
1514
1508
1508
1509
1506
1509
1508
1508
1508
1511
1508
1506
1506
1502
1504
1502
1509
1501
1501
1501
1497
1497
1496
1496
1494
1490
1490
1489
1490
1487
1484
1482
1475
1475
1473
1468
1467
1463
1456
1451
1446
1443
1436
1427
1419
1408
1402
1396
1390
1381
1374
1371
1366
1362
1357
1355
1355
1355
1359
1364
1378
1386
1398
1410
1424
1436
1451
1461
1473
1482
1487
1496
1501
1504
1506
1514
1514
1513
1516
1514
1516
1518
1518
1514
1518
1516
1518
1520
1520
1518
1518
1521
1521
1520
1520
1521
1521
1521
1520
1521
1521
1520
1523
1523
1520
1521
1523
1523
1525
1521
1523
1521
1523
1528
1523
1526
1526
1526
1535
1528
1528
1528
1530
1528
1531
1533
1531
1533
1530
1531
1533
1533
1535
1533
1538
1533
1535
1533
1535
1535
1537
1537
1537
1533
1537
1538
1537
1537
1538
1537
1540
1538
1537
1538
1537
1540
1540
1540
1538
1540
1538
1543
1540
1540
1538
1538
1537
1537
1538
1538
1540
1538
1538
1540
1538
1537
1538
1543
1540
1542
1542
1540
1540
1540
1542
1537
1538
1538
1540
1538
1538
1538
1537
1542
1540
1542
1542
1538
1537
1540
1540
1540
1540
1540
1537
1540
1537
1538
1538
1538
1540
1538
1537
1537
1537
1538
1537
1533
1537
1538
1542
1537
1535
1533
1537
1537
1535
1537
1537
1537
1535
1533
1533
1530
1533
1533
1537
1537
1533
1528
1523
1523
1521
1521
1521
1521
1526
1526
1530
1526
1528
1528
1528
1528
1525
1525
1523
1525
1526
1523
1526
1528
1533
1528
1521
1487
1426
1371
1347
1318
1251
1214
1278
1396
1499
1561
1583
1552
1518
1513
1504
1501
1497
1499
1502
1501
1501
1501
1501
1499
1502
1499
1501
1499
1497
1501
1497
1496
1496
1496
1497
1494
1492
1494
1492
1489
1492
1489
1487
1484
1480
1478
1477
1475
1473
1470
1470
1467
1465
1460
1458
1455
1444
1446
1443
1434
1426
1415
1410
1402
1393
1388
1383
1374
1364
1359
1355
1349
1338
1338
1335
1333
1337
1340
1343
1352
1362
1371
1388
1400
1412
1426
1441
1451
1453
1467
1473
1482
1485
1487
1489
1494
1494
1497
1497
1499
1499
1499
1501
1501
1501
1501
1502
1501
1504
1504
1504
1501
1501
1501
1504
1508
1502
1502
1502
1502
1506
1506
1508
1506
1509
1508
1508
1508
1508
1508
1508
1513
1506
1508
1508
1509
1509
1513
1514
1513
1514
1514
1514
1518
1516
1514
1518
1520
1516
1514
1514
1514
1514
1516
1516
1520
1520
1516
1520
1516
1520
1520
1520
1525
1523
1520
1520
1520
1516
1520
1521
1523
1521
1521
1528
1520
1516
1521
1521
1521
1520
1523
1520
1521
1521
1523
1521
1521
1521
1521
1528
1521
1521
1520
1521
1520
1521
1520
1521
1521
1518
1520
1521
1523
1523
1523
1525
1521
1520
1521
1521
1521
1521
1520
1521
1521
1520
1521
1521
1520
1520
1518
1521
1520
1518
1516
1518
1518
1521
1516
1514
1514
1518
1523
1520
1516
1518
1518
1514
1516
1516
1516
1518
1514
1516
1516
1520
1514
1514
1521
1518
1520
1518
1514
1513
1509
1509
1509
1509
1508
1511
1513
1513
1513
1511
1513
1511
1511
1509
1508
1508
1506
1508
1506
1509
1511
1514
1502
1485
1437
1381
1347
1340
1301
1232
1249
1342
1443
1520
1564
1555
1513
1496
1485
1487
1487
1484
1482
1487
1487
1487
1485
1487
1487
1485
1485
1487
1487
1489
1487
1485
1484
1480
1482
1484
1482
1482
1478
1477
1477
1475
1473
1473
1475
1470
1467
1470
1467
1465
1467
1460
1458
1456
1455
1451
1439
1441
1436
1432
1424
1417
1410
1405
1396
1390
1383
1376
1369
1362
1362
1357
1349
1349
1345
1343
1345
1349
1354
1362
1373
1379
1396
1408
1420
1432
1444
1456
1460
1472
1478
1485
1489
1492
1497
1501
1501
1502
1504
1506
1508
1506
1509
1506
1508
1508
1509
1511
1509
1511
1514
1514
1509
1511
1511
1518
1509
1509
1513
1511
1509
1513
1511
1514
1509
1513
1514
1514
1513
1513
1513
1521
1514
1516
1520
1516
1518
1520
1521
1521
1521
1520
1521
1525
1525
1525
1528
1528
1526
1526
1526
1530
1526
1526
1528
1531
1530
1530
1535
1531
1530
1528
1528
1533
1530
1530
1530
1531
1530
1535
1531
1530
1531
1530
1537
1533
1533
1531
1533
1531
1533
1530
1528
1531
1530
1530
1533
1535
1531
1533
1537
1530
1531
1531
1531
1531
1531
1531
1533
1533
1531
1535
1530
1531
1531
1530
1533
1530
1531
1531
1531
1531
1530
1531
1533
1531
1531
1535
1528
1528
1530
1530
1528
1530
1528
1530
1528
1528
1528
1531
1528
1528
1526
1530
1528
1528
1528
1530
1528
1528
1528
1528
1526
1525
1528
1528
1530
1533
1525
1523
1520
1518
1518
1514
1520
1525
1521
1526
1525
1523
1521
1523
1521
1521
1521
1521
1521
1521
1523
1523
1526
1535
1525
1513
1472
1412
1362
1345
1316
1246
1224
1306
1426
1513
1562
1561
1528
1514
1502
1504
1501
1497
1506
1504
1501
1501
1501
1501
1501
1501
1499
1499
1496
1499
1499
1497
1496
1496
1497
1496
1496
1494
1490
1489
1490
1490
1487
1485
1482
1477
1482
1482
1478
1473
1472
1472
1470
1467
1461
1460
1456
1453
1444
1441
1436
1422
1419
1412
1405
1396
1390
1383
1374
1367
1364
1359
1355
1350
1343
1345
1345
1347
1355
1362
1371
1386
1398
1410
1424
1437
1446
1458
1465
1475
1482
1487
1492
1496
1497
1501
1502
1502
1506
1506
1506
1506
1508
1506
1513
1508
1508
1508
1508
1509
1508
1508
1508
1508
1508
1509
1513
1509
1513
1509
1516
1513
1513
1511
1511
1513
1513
1513
1514
1514
1513
1514
1513
1516
1514
1514
1518
1518
1516
1518
1520
1516
1520
1521
1520
1521
1520
1520
1523
1521
1520
1523
1523
1525
1523
1523
1521
1525
1525
1526
1526
1526
1526
1531
1526
1528
1528
1526
1528
1526
1528
1528
1526
1526
1526
1526
1528
1528
1526
1530
1528
1528
1528
1526
1526
1528
1526
1528
1528
1528
1526
1528
1528
1531
1528
1531
1528
1530
1528
1528
1526
1528
1526
1526
1526
1526
1526
1526
1526
1525
1521
1526
1528
1528
1526
1526
1521
1528
1521
1526
1526
1523
1530
1525
1525
1525
1521
1521
1523
1525
1525
1525
1521
1523
1521
1525
1526
1528
1530
1523
1523
1523
1520
1520
1521
1523
1521
1523
1518
1518
1514
1514
1513
1511
1513
1518
1518
1520
1520
1520
1520
1518
1516
1520
1514
1523
1514
1514
1514
1514
1520
1523
1521
1514
1485
1429
1379
1350
1326
1261
1202
1239
1357
1467
1543
1569
1545
1516
1501
1494
1494
1492
1490
1492
1496
1492
1492
1497
1492
1489
1487
1489
1490
1489
1485
1487
1484
1484
1482
1482
1478
1480
1477
1477
1475
1473
1472
1472
1467
1465
1465
1463
1458
1458
1451
1456
1453
1448
1448
1443
1437
1432
1429
1426
1417
1410
1402
1395
1386
1378
1366
1362
1359
1354
1347
1343
1337
1328
1326
1326
1330
1335
1340
1347
1354
1364
1371
1388
1400
1414
1426
1439
1444
1453
1458
1468
1473
1473
1478
1482
1484
1482
1487
1484
1485
1487
1485
1487
1492
1487
1487
1485
1485
1496
1489
1487
1485
1485
1487
1485
1489
1487
1487
1489
1492
1492
1490
1489
1490
1499
1494
1494
1492
1496
1494
1497
1494
1496
1496
1496
1496
1499
1499
1496
1501
1499
1501
1501
1501
1499
1501
1504
1502
1504
1501
1502
1506
1501
1504
1506
1502
1506
1504
1508
1508
1506
1501
1508
1506
1506
1508
1508
1513
1508
1509
1509
1509
1509
1509
1511
1511
1513
1513
1514
1514
1513
1513
1514
1518
1513
1513
1513
1511
1511
1509
1509
1509
1509
1508
1508
1511
1509
1508
1508
1511
1509
1509
1509
1509
1509
1509
1508
1508
1508
1508
1514
1508
1509
1509
1508
1509
1508
1509
1508
1508
1508
1508
1506
1509
1509
1509
1514
1511
1511
1509
1508
1508
1513
1511
1508
1509
1513
1514
1513
1508
1508
1504
1506
1506
1506
1508
1509
1513
1511
1508
1508
1508
1508
1508
1509
1509
1508
1509
1509
1509
1513
1518
1513
1501
1468
1412
1376
1357
1338
1270
1237
1292
1396
1473
1540
1555
1521
1496
1490
1487
1487
1487
1489
1490
1492
1499
1494
1492
1492
1492
1490
1490
1492
1490
1494
1490
1489
1490
1490
1489
1487
1489
1487
1487
1484
1484
1484
1485
1484
1482
1484
1478
1472
1478
1475
1472
1473
1467
1467
1465
1460
1458
1453
1448
1444
1437
1432
1426
1412
1410
1405
1396
1390
1384
1378
1371
1367
1366
1362
1361
1361
1362
1367
1373
1378
1393
1403
1414
1426
1437
1446
1458
1470
1477
1482
1487
1490
1494
1497
1501
1504
1504
1506
1506
1506
1508
1508
1508
1508
1509
1508
1514
1509
1509
1509
1508
1511
1509
1509
1508
1509
1509
1509
1511
1509
1509
1511
1518
1511
1514
1514
1511
1514
1513
1513
1513
1514
1511
1513
1514
1513
1514
1514
1520
1516
1514
1520
1518
1518
1518
1523
1520
1518
1520
1521
1520
1523
1520
1521
1523
1521
1521
1520
1521
1521
1521
1521
1521
1523
1523
1530
1525
1521
1520
1523
1528
1523
1523
1525
1523
1523
1523
1526
1525
1526
1523
1530
1521
1523
1521
1523
1525
1526
1525
1526
1525
1525
1521
1525
1523
1523
1525
1525
1526
1523
1521
1525
1523
1526
1526
1525
1521
1525
1528
1526
1526
1525
1525
1525
1521
1523
1525
1525
1521
1526
1523
1525
1523
1521
1528
1521
1525
1523
1525
1521
1521
1521
1523
1525
1521
1523
1526
1525
1521
1521
1525
1523
1528
1526
1528
1521
1518
1516
1514
1514
1509
1511
1514
1520
1520
1521
1520
1516
1516
1518
1518
1518
1516
1521
1520
1518
1518
1525
1528
1528
1521
1499
1446
1396
1366
1347
1296
1231
1248
1345
1455
1537
1567
1550
1514
1504
1499
1499
1499
1501
1499
1501
1501
1501
1499
1499
1501
1501
1499
1502
1497
1499
1501
1496
1499
1499
1496
1496
1496
1494
1494
1492
1492
1490
1489
1489
1487
1487
1487
1484
1484
1482
1478
1477
1473
1473
1465
1467
1460
1455
1451
1446
1443
1437
1431
1424
1417
1410
1403
1395
1390
1383
1371
1369
1364
1364
1359
1359
1361
1366
1373
1379
1391
1402
1410
1420
1436
1451
1456
1468
1473
1485
1489
1492
1497
1501
1504
1506
1506
1506
1509
1509
1511
1509
1513
1513
1513
1513
1514
