1675
1656
1653
1653
1649
1645
1644
1644
1647
1647
1644
1641
1642
1642
1644
1641
1643
1642
1645
1648
1649
1644
1648
1649
1651
1651
1650
1649
1653
1661
1662
1666
1666
1672
1674
1677
1680
1687
1690
1693
1699
1701
1706
1710
1709
1712
1711
1714
1716
1714
1712
1711
1708
1706
1698
1693
1689
1685
1683
1679
1675
1674
1672
1668
1665
1663
1662
1661
1660
1659
1659
1661
1661
1659
1661
1662
1659
1659
1657
1660
1661
1659
1657
1660
1662
1659
1659
1660
1663
1666
1667
1671
1674
1675
1679
1680
1683
1679
1677
1678
1675
1679
1677
1673
1673
1671
1673
1669
1663
1662
1662
1661
1659
1657
1656
1655
1655
1656
1657
1656
1655
1655
1654
1649
1654
1651
1647
1637
1627
1625
1637
1662
1709
1762
1801
1824
1847
1859
1865
1842
1793
1734
1691
1666
1653
1653
1651
1647
1644
1642
1638
1639
1639
1641
1642
1642
1644
1639
1639
1642
1642
1645
1643
1645
1644
1647
1649
1648
1649
1649
1651
1655
1651
1666
1663
1665
1666
1668
1671
1677
1680
1684
1686
1690
1695
1697
1697
1701
1703
1704
1705
1703
1702
1701
1698
1693
1686
1683
1679
1678
1672
1667
1667
1665
1663
1656
1654
1655
1654
1655
1653
1651
1651
1653
1653
1651
1651
1655
1649
1650
1649
1649
1649
1651
1649
1649
1649
1663
1651
1649
1649
1656
1659
1659
1659
1661
1665
1667
1671
1668
1666
1663
1665
1663
1666
1665
1662
1661
1659
1659
1654
1649
1644
1645
1648
1644
1644
1639
1641
1642
1642
1639
1638
1639
1641
1642
1643
1641
1637
1631
1620
1613
1613
1627
1657
1702
1760
1795
1824
1844
1855
1863
1838
1788
1732
1690
1659
1644
1641
1635
1630
1623
1620
1623
1624
1624
1620
1621
1620
1624
1626
1624
1624
1624
1627
1625
1623
1624
1625
1629
1631
1625
1627
1629
1631
1632
1632
1635
1638
1639
1645
1649
1649
1654
1660
1666
1671
1675
1675
1680
1684
1681
1684
1683
1681
1683
1681
1675
1677
1673
1671
1667
1659
1654
1655
1649
1647
1645
1644
1643
1643
1642
1642
1639
1637
1635
1636
1637
1636
1637
1635
1633
1636
1635
1632
1631
1629
1629
1627
1632
1632
1633
1632
1636
1638
1639
1641
1639
1643
1647
1649
1653
1654
1649
1649
1647
1649
1649
1649
1647
1648
1647
1644
1639
1636
1636
1636
1633
1636
1635
1635
1632
1631
1632
1631
1632
1631
1631
1632
1630
1631
1631
1624
1613
1606
1607
1620
1643
1684
1741
1786
1819
1836
1848
1860
1841
1790
1732
1685
1655
1643
1635
1635
1630
1625
1625
1620
1627
1621
1619
1615
1619
1621
1625
1623
1625
1624
1625
1629
1627
1630
1629
1625
1629
1633
1632
1632
1636
1636
1641
1639
1642
1644
1648
1655
1661
1666
1668
1672
1675
1678
1683
1685
1687
1690
1690
1693
1693
1692
1690
1679
1699
1687
1681
1677
1671
1668
1663
1659
1651
1654
1648
1642
1638
1638
1639
1643
1642
1642
1642
1639
1639
1642
1641
1637
1637
1639
1639
1638
1638
1638
1641
1644
1647
1644
1644
1647
1648
1653
1655
1651
1655
1656
1662
1665
1666
1665
1662
1661
1662
1661
1660
1659
1656
1655
1655
1649
1647
1649
1647
1642
1645
1643
1642
1642
1642
1639
1638
1637
1636
1638
1637
1636
1636
1635
1631
1625
1614
1618
1631
1660
1703
1752
1793
1823
1841
1861
1861
1821
1765
1712
1675
1651
1638
1636
1637
1632
1632
1627
1625
1627
1625
1625
1625
1627
1631
1630
1627
1630
1629
1629
1629
1636
1636
1636
1635
1635
1633
1635
1637
1636
1639
1644
1647
1649
1655
1659
1665
1668
1673
1675
1679
1684
1685
1692
1692
1692
1692
1693
1698
1697
1690
1686
1684
1683
1678
1673
1668
1668
1661
1657
1654
1649
1647
1647
1644
1639
1637
1639
1642
1642
1642
1639
1637
1637
1639
1636
1637
1636
1637
1637
1636
1639
1637
1637
1637
1637
1639
1639
1637
1642
1644
1648
1647
1649
1651
1654
1654
1653
1649
1645
1649
1649
1649
1654
1649
1647
1644
1645
1645
1639
1635
1632
1631
1632
1631
1631
1630
1630
1629
1627
1629
1627
1627
1630
1629
1626
1625
1621
1614
1601
1601
1614
1648
1690
1745
1789
1820
1838
1850
1859
1827
1777
1716
1675
1649
1638
1630
1626
1624
1620
1618
1615
1613
1613
1614
1615
1615
1617
1615
1617
1617
1618
1618
1619
1618
1617
1620
1620
1621
1620
1625
1627
1629
1629
1630
1632
1637
1637
1642
1645
1651
1654
1656
1662
1667
1673
1675
1678
1679
1680
1681
1683
1683
1684
1680
1677
1674
1672
1666
1663
1657
1654
1649
1620
1625
1627
1629
1632
1632
1632
1631
1632
1631
1632
1632
1631
1630
1629
1626
1629
1627
1630
1627
1629
1623
1624
1625
1625
1627
1627
1629
1629
1631
1635
1635
1636
1641
1643
1643
1648
1643
1642
1642
1643
1643
1642
1642
1642
1642
1643
1639
1637
1629
1626
1625
1629
1625
1623
1623
1624
1623
1623
1620
1620
1618
1618
1619
1620
1619
1618
1615
1605
1592
1594
1611
1636
1686
1744
1789
1819
1838
1854
1856
1825
1775
1720
1678
1648
1632
1630
1623
1615
1611
1608
1606
1606
1606
1603
1603
1605
1605
1605
1600
1605
1606
1607
1605
1605
1606
1608
1608
1609
1609
1611
1609
1609
1613
1617
1615
1619
1619
1623
1627
1630
1635
1639
1645
1647
1651
1655
1656
1659
1661
1665
1666
1663
1665
1665
1661
1657
1651
1649
1647
1643
1637
1632
1630
1629
1624
1623
1620
1619
1620
1620
1619
1619
1619
1619
1618
1617
1621
1618
1618
1614
1614
1613
1613
1615
1615
1617
1618
1620
1615
1617
1618
1620
1624
1627
1626
1630
1632
1636
1639
1638
1635
1636
1635
1638
1637
1637
1637
1633
1632
1632
1631
1624
1620
1620
1617
1618
1615
1618
1615
1615
1615
1617
1618
1618
1613
1613
1614
1614
1613
1608
1599
1598
1598
1611
1642
1681
1736
1781
1812
1836
1850
1855
1815
1758
1704
1668
1638
1629
1623
1620
1613
1611
1609
1608
1609
1608
1609
1611
1608
1609
1608
1608
1613
1611
1608
1611
1612
1615
1617
1611
1614
1619
1623
1620
1623
1624
1625
1630
1632
1639
1642
1647
1649
1653
1657
1662
1667
1674
1671
1679
1681
1686
1687
1686
1683
1684
1683
1679
1675
1674
1669
1665
1665
1656
1654
1649
1645
1648
1645
1639
1637
1637
1636
1641
1639
1638
1637
1635
1636
1635
1633
1635
1657
1653
1648
1644
1642
1639
1639
1639
1639
1638
1637
1642
1643
1647
1647
1649
1655
1657
1659
1659
1655
1655
1650
1649
1651
1655
1653
1654
1655
1649
1645
1639
1638
1639
1638
1641
1639
1642
1637
1636
1636
1635
1638
1639
1639
1639
1635
1637
1635
1631
1624
1613
1615
1633
1662
1709
1764
1805
1831
1849
1859
1862
1819
1758
1704
1668
1645
1638
1636
1632
1632
1630
1629
1629
1625
1627
1625
1627
1627
1627
1625
1629
1629
1632
1635
1637
1637
1636
1635
1637
1636
1637
1636
1639
1642
1645
1647
1648
1650
1655
1661
1666
1668
1672
1678
1683
1684
1687
1692
1697
1696
1697
1696
1695
1698
1699
1693
1687
1683
1681
1675
1669
1663
1659
1659
1653
1650
1647
1644
1645
1642
1638
1637
1638
1637
1637
1635
1636
1636
1637
1637
1637
1637
1636
1635
1632
1632
1636
1636
1637
1641
1642
1642
1643
1643
1644
1647
1647
1649
1651
1655
1657
1655
1656
1655
1653
1651
1651
1651
1649
1648
1647
1645
1638
1637
1636
1636
1633
1635
1633
1631
1630
1630
1630
1630
1632
1631
1630
1626
1625
1624
1623
1615
1601
1602
1609
1633
1675
1730
1778
1812
1835
1850
1860
1845
1800
1740
1687
1656
1639
1630
1625
1621
1620
1614
1613
1611
1613
1613
1611
1613
1613
1614
1615
1615
1618
1613
1618
1619
1618
1617
1617
1615
1620
1624
1620
1623
1623
1626
1625
1625
1630
1635
1639
1643
1647
1650
1656
1661
1665
1669
1669
1674
1677
1677
1678
1675
1677
1675
1673
1668
1663
1663
1659
1656
1649
1645
1642
1641
1639
1637
1637
1632
1633
1632
1630
1629
1629
1627
1627
1625
1629
1629
1627
1627
1627
1627
1627
1624
1624
1624
1625
1625
1624
1621
1624
1630
1648
1660
1649
1645
1647
1648
1647
1642
1638
1639
1638
1639
1638
1641
1639
1635
1635
1633
1632
1625
1623
1618
1620
1619
1619
1619
1618
1619
1618
1615
1618
1615
1615
1614
1613
1614
1614
1611
1601
1588
1593
1606
1632
1678
1736
1786
1818
1839
1853
1863
1832
1778
1721
1677
1647
1632
1625
1619
1617
1614
1611
1608
1608
1605
1603
1605
1608
1606
1606
1608
1611
1609
1606
1603
1607
1609
1611
1609
1611
1612
1613
1613
1611
1614
1615
1618
1625
1630
1629
1633
1637
1639
1648
1654
1654
1659
1661
1668
1669
1671
1671
1672
1673
1674
1669
1669
1663
1662
1657
1654
1649
1647
1643
1643
1637
1636
1631
1629
1629
1629
1625
1627
1626
1627
1624
1623
1620
1623
1620
1619
1618
1620
1620
1618
1619
1620
1620
1621
1624
1624
1624
1627
1632
1636
1638
1637
1639
1643
1639
1638
1638
1639
1639
1642
1639
1637
1639
1637
1639
1639
1633
1631
1630
1627
1629
1625
1626
1625
1625
1627
1629
1627
1627
1625
1629
1625
1621
1625
1620
1615
1599
1594
1608
1633
1675
1726
1776
1811
1833
1847
1857
1829
1774
1716
1671
1647
1635
1629
1626
1619
1618
1615
1613
1612
1615
1618
1618
1620
1620
1621
1620
1623
1620
1621
1620
1620
1620
1624
1626
1625
1629
1627
1632
1636
1637
1639
1639
1647
1649
1653
1659
1665
1667
1674
1678
1683
1687
1691
1693
1697
1701
1701
1701
1699
1697
1695
1695
1691
1683
1679
1675
1671
1666
1660
1657
1655
1656
1654
1648
1647
1647
1647
1648
1645
1647
1643
1643
1644
1639
1639
1644
1647
1649
1645
1645
1645
1649
1649
1649
1647
1648
1649
1656
1659
1659
1661
1661
1665
1667
1671
1667
1665
1666
1667
1667
1669
1672
1673
1671
1667
1665
1660
1654
1650
1643
1644
1645
1649
1647
1648
1648
1649
1651
1649
1647
1645
1648
1647
1647
1648
1641
1625
1618
1627
1648
1683
1736
1782
1812
1832
1848
1863
1857
1808
1747
1696
1665
1651
1647
1643
1639
1637
1642
1642
1639
1638
1638
1639
1641
1641
1641
1642
1643
1643
1645
1642
1644
1644
1645
1647
1644
1645
1649
1653
1655
1656
1657
1661
1662
1663
1665
1668
1672
1673
1684
1684
1685
1687
1695
1703
1702
1702
1701
1697
1696
1702
1704
1697
1686
1685
1687
1687
1685
1673
1671
1665
1661
1657
1651
1651
1643
1649
1654
1657
1653
1649
1642
1639
1643
1649
1659
1656
1653
1651
1649
1645
1659
1648
1647
1647
1648
1649
1649
1647
1650
1649
1653
1656
1655
1653
1655
1655
1656
1654
1659
1665
1666
1661
1659
1659
1655
1653
1649
1645
1647
1647
1643
1639
1636
1637
1642
1639
1639
1638
1637
1637
1643
1642
1639
1639
1632
1623
1618
1620
1626
1645
1683
1741
1786
1813
1831
1848
1862
1850
1793
1735
1686
1660
1641
1638
1641
1633
1627
1624
1625
1629
1626
1618
1611
1615
1620
1625
1624
1624
1624
1623
1615
1611
1618
1624
1635
1641
1637
1631
1629
1630
1635
1639
1643
1644
1641
1642
1656
1663
1667
1667
1673
1677
1680
1678
1675
1683
1693
1699
1697
1695
1693
1690
1689
1685
1678
1674
1671
1666
1663
1665
1659
1654
1651
1655
1654
1648
1649
1647
1644
1645
1653
1655
1655
1656
1650
1636
1631
1636
1639
1641
1638
1642
1642
1643
1649
1668
1669
1655
1639
1637
1645
1659
1668
1668
1661
1656
1666
1665
1649
1649
1649
1648
1655
1659
1659
1659
1660
1656
1643
1644
1649
1649
1645
1643
1644
1643
1654
1657
1651
1639
1636
1635
1637
1639
1649
1653
1643
1627
1636
1671
1720
1771
1808
1829
1847
1856
1857
1813
1762
1711
1668
1660
1663
1668
1665
1644
1630
1625
1629
1636
1643
1659
1649
1647
1651
1639
1631
1636
1637
1631
1627
1633
1639
1632
1631
1639
1648
1649
1647
1642
1649
1681
1680
1660
1648
1655
1654
1650
1659
1669
1685
1679
1672
1675
1699
1723
1720
1714
1705
1698
1687
1683
1687
1697
1691
1678
1662
1659
1655
1655
1666
1685
1675
1641
1633
1647
1648
1645
1638
1635
1639
1639
1636
1635
1649
1656
1647
1639
1633
1642
1659
1666
1650
1635
1624
1632
1655
1648
1636
1636
1647
1647
1665
1685
1671
1642
1627
1638
1642
1645
1647
1649
1651
1655
1655
1659
1653
1639
1641
1647
1642
1632
1625
1624
1645
1659
1637
1619
1620
1625
1625
1638
1675
1675
1636
1593
1598
1623
1643
1665
1717
1766
1802
1829
1848
1857
1856
1817
1760
1705
1669
1654
1637
1624
1621
1623
1620
1626
1623
1629
1641
1629
1620
1625
1619
1612
1602
1603
1615
1627
1623
1614
1615
1624
1635
1630
1625
1624
1619
1621
1626
1637
1642
1659
1662
1651
1639
1637
1642
1651
1665
1672
1683
1684
1669
1660
1663
1673
1678
1675
1674
1675
1680
1675
1668
1661
1651
1649
1651
1669
1672
1660
1648
1653
1655
1649
1654
1635
1631
1619
1618
1615
1618
1624
1626
1642
1655
1655
1649
1644
1645
1638
1633
1643
1643
1631
1643
1643
1631
1632
1641
1637
1644
1638
1627
1615
1624
1635
1656
1649
1629
1639
1663
1653
1635
1627
1629
1615
1615
1609
1625
1685
1696
1632
1582
1589
1600
1609
1627
1629
1615
1600
1598
1600
1613
1629
1623
1614
1649
1723
1775
1812
1830
1847
1843
1784
1723
1680
1638
1624
1612
1606
1603
1605
1600
1596
1601
1601
1596
1596
1599
1603
1600
1602
1598
1594
1600
1603
1603
1598
1596
1600
1601
1601
1601
1606
1608
1611
1615
1620
1618
1614
1620
1625
1631
1635
1641
1644
1649
1655
1659
1660
1663
1669
1672
1674
1674
1673
1669
1668
1663
1659
1656
1654
1649
1645
1638
1636
1635
1631
1632
1632
1630
1627
1625
1624
1623
1623
1623
1624
1620
1619
1619
1621
1623
1625
1621
1620
1618
1620
1624
1625
1629
1632
1631
1632
1633
1637
1641
1643
1643
1642
1641
1641
1641
1642
1642
1637
1633
1636
1633
1632
1627
1623
1620
1621
1623
1624
1623
1620
1618
1618
1619
1619
1618
1615
1620
1620
1618
1615
1606
1601
1598
1599
1615
1649
1699
1760
1800
1827
1843
1854
1851
1802
1742
1690
1651
1632
1623
1618
1615
1614
1608
1602
1600
1605
1606
1609
1602
1606
1606
1606
1607
1606
1608
1611
1611
1611
1609
1611
1611
1613
1613
1614
1619
1620
1620
1624
1627
1630
1632
1637
1641
1647
1650
1654
1659
1661
1666
1668
1672
1674
1674
1672
1675
1674
1674
1673
1668
1663
1660
1656
1653
1649
1644
1637
1633
1633
1633
1632
1626
1624
1624
1625
1625
1621
1625
1624
1619
1615
1618
1617
1618
1620
1624
1620
1620
1619
1618
1620
1625
1627
1627
1629
1630
1632
1632
1637
1635
1632
1632
1635
1638
1637
1638
1637
1636
1633
1632
1627
1620
1621
1620
1615
1614
1613
1618
1613
1614
1614
1617
1615
1615
1615
1618
1618
1614
1617
1611
1605
1595
1594
1613
1649
1703
1762
1796
1823
1841
1855
1856
1808
1746
1695
1659
1635
1625
1625
1624
1615
1614
1614
1617
1612
1609
1608
1609
1611
1612
1613
1613
1614
1612
1614
1611
1614
1615
1618
1620
1618
1619
1623
1623
1625
1625
1629
1630
1624
1635
1641
1643
1649
1657
1661
1662
1666
1671
1671
1672
1675
1681
1685
1685
1684
1680
1677
1675
1674
1671
1666
1659
1655
1649
1647
1639
1642
1643
1642
1637
1633
1635
1632
1631
1633
1633
1636
1635
1632
1631
1632
1631
1633
1636
1635
1635
1636
1638
1639
1643
1644
1648
1648
1651
1656
1656
1654
1649
1655
1655
1656
1659
1649
1655
1653
1654
1653
1648
1642
1639
1641
1641
1642
1639
1643
1639
1638
1637
1636
1638
1636
1637
1639
1637
1641
1638
1629
1609
1606
1618
1647
1685
1740
1786
1818
1836
1848
1860
1833
1777
1720
1675
1647
1637
1633
1637
1632
1627
1625
1624
1627
1625
1625
1626
1627
1627
1629
1627
1629
1630
1630
1630
1630
1630
1632
1636
1633
1636
1635
1637
1639
1639
1644
1647
1647
1649
1656
1659
1663
1667
1673
1678
1684
1686
1687
1690
1691
1693
1692
1695
1693
1691
1692
1690
1685
1681
1678
1672
1667
1659
1655
1653
1650
1647
1635
1632
1637
1644
1649
1647
1647
1644
1643
1642
1645
1643
1643
1643
1641
1639
1637
1637
1641
1641
1641
1644
1647
1653
1649
1649
1651
1655
1656
1657
1656
1653
1653
1655
1656
1659
1655
1651
1649
1651
1653
1645
1638
1636
1636
1639
1635
1636
1636
1635
1636
1632
1633
1635
1633
1633
1632
1632
1635
1629
1621
1608
1605
1617
1643
1681
1735
1784
1819
1838
1848
1860
1848
1800
1739
1686
1659
1643
1637
1638
1632
1625
1624
1620
1621
1617
1615
1619
1618
1618
1619
1619
1618
1618
1620
1621
1624
1623
1620
1620
1625
1629
1627
1626
1629
1632
1632
1636
1637
1637
1645
1648
1651
1656
1659
1666
1667
1674
1674
1677
1683
1685
1685
1686
1685
1687
1687
1687
1684
1679
1674
1662
1667
1668
1665
1659
1657
1653
1655
1653
1647
1645
1644
1641
1643
1639
1641
1641
1642
1645
1645
1644
1643
1639
1642
1638
1637
1637
1635
1641
1643
1649
1651
1653
1659
1655
1659
1659
1660
1654
1655
1653
1654
1659
1659
1659
1659
1655
1656
1651
1647
1644
1644
1644
1641
1637
1637
1637
1641
1644
1644
1638
1637
1639
1642
1643
1639
1638
1632
1624
1614
1619
1642
1684
1735
1784
1814
1837
1853
1862
1854
1802
1744
1691
1659
1645
1641
1639
1637
1633
1632
1633
1632
1631
1632
1632
1636
1633
1636
1633
1632
1632
1637
1637
1638
1639
1641
1639
1642
1642
1642
1645
1647
1649
1651
1651
1655
1656
1662
1668
1669
1673
1677
1680
1687
1693
1697
1699
1701
1701
1699
1703
1704
1704
1703
1701
1695
1693
1690
1684
1677
1673
1672
1667
1662
1656
1654
1655
1655
1653
1649
1649
1650
1651
1653
1651
1649
1649
1645
1647
1649
1651
1653
1653
1650
1650
1651
1653
1656
1657
1659
1661
1661
1663
1666
1669
1669
1666
1663
1666
1667
1668
1666
1662
1665
1663
1662
1659
1654
1651
1649
1647
1649
1647
1647
1648
1647
1647
1643
1644
1642
1643
1643
1643
1645
1643
1637
1627
1618
1619
1630
1659
1704
1759
1798
1824
1839
1853
1857
1836
1784
1729
1683
1656
1645
1643
1643
1636
1635
1633
1635
1632
1631
1631
1632
1632
1636
1635
1633
1633
1635
1632
1635
1637
1637
1638
1641
1642
1642
1639
1641
1643
1647
1657
1650
1655
1659
1663
1668
1668
1673
1678
1684
1687
1692
1693
1697
1699
1701
1704
1704
1702
1703
1699
1697
1693
1690
1689
1687
1683
1677
1672
1666
1661
1661
1661
1660
1659
1656
1654
1656
1655
1651
1653
1654
1651
1654
1656
1654
1655
1651
1649
1648
1649
1649
1651
1642
1651
1655
1657
1662
1661
1662
1666
1667
1669
1668
1667
1666
1668
1667
1666
1666
1667
1666
1666
1661
1659
1655
1649
1650
1651
1651
1649
1649
1649
1649
1649
1649
1647
1648
1644
1649
1647
1648
1644
1639
1635
1625
1620
1631
1656
1695
1752
1799
1826
1841
1855
1863
1860
1817
1758
1704
1675
1659
1653
1649
1644
1642
1639
1639
1639
1636
1636
1633
1635
1636
1635
1633
1636
1637
1639
1641
1639
1639
1639
1641
1641
1639
1643
1644
1645
1647
1648
1649
1651
1655
1659
1660
1665
1667
1675
1680
1681
1684
1686
1691
1695
1693
1696
1696
1697
1695
1697
1693
1691
1687
1684
1680
1675
1673
1668
1665
1661
1661
1659
1657
1655
1651
1649
1653
1651
1649
1651
1649
1649
1649
1648
1648
1648
1644
1648
1645
1647
1647
1648
1647
1645
1647
1649
1651
1654
1656
1657
1661
1662
1667
1668
1665
1661
1665
1663
1666
1666
1663
1662
1661
1659
1659
1654
1649
1647
1648
1647
1647
1645
1642
1643
1643
1645
1644
1645
1645
1645
1647
1644
1644
1641
1631
1620
1615
1626
1645
1681
1735
1786
1812
1836
1844
1853
1856
1817
1759
1706
1668
1654
1645
1644
1639
1638
1635
1632
1632
1630
1630
1630
1630
1630
1631
1629
1630
1629
1631
1631
1636
1636
1635
1637
1636
1639
1641
1641
1641
1643
1643
1645
1647
1649
1654
1657
1659
1663
1666
1671
1674
1675
1679
1684
1687
1691
1690
1693
1693
1691
1691
1692
1690
1685
1683
1678
1675
1672
1666
1662
1661
1662
1659
1654
1651
1650
1654
1653
1654
1653
1653
1651
1651
1651
1647
1649
1645
1644
1644
1644
1645
1647
1649
1649
1649
1649
1649
1654
1656
1657
1659
1660
1666
1668
1668
1673
1671
1671
1669
1666
1668
1667
1654
1655
1656
1656
1657
1655
1655
1649
1648
1649
1649
1654
1654
1653
1651
1654
1654
1653
1647
1645
1648
1649
1648
1644
1635
1626
1620
1630
1654
1683
1733
1782
1815
1841
1856
1861
1857
1813
1760
1711
1679
1662
1656
1653
1653
1649
1643
1643
1642
1642
1645
1645
1644
1647
1647
1649
1647
1649
1649
1651
1651
1654
1656
1657
1655
1655
1656
1655
1656
1659
1666
1667
1668
1671
1673
1678
1679
1681
1695
1696
1699
1705
1705
1712
1714
1716
1715
1715
1718
1720
1718
1718
1711
1706
1701
1697
1692
1687
1685
1681
1679
1678
1677
1675
1671
1668
1669
1671
1671
1668
1668
1668
1667
1668
1669
1669
1667
1666
1667
1669
1669
1671
1671
1672
1671
1672
1675
1677
1679
1678
1680
1683
1689
1690
1691
1692
1687
1687
1687
1686
1687
1687
1687
1687
1684
1683
1679
1677
1673
1672
1672
1672
1672
1672
1671
1669
1671
1671
1672
1672
1672
1668
1667
1668
1663
1662
1649
1638
1641
1656
1681
1729
1778
1820
1837
1848
1856
1866
1843
1786
1732
1693
1674
1668
1665
1665
1661
1660
1660
1656
1656
1659
1659
1655
1656
1656
1655
1657
1656
1657
1660
1662
1662
1663
1661
1662
1663
1663
1665
1666
1668
1672
1674
1678
1678
1680
1685
1687
1693
1697
1701
1702
1706
1709
1717
1714
1714
1716
1718
1726
1721
1720
1717
1715
1712
1708
1701
1695
1695
1690
1685
1681
1679
1679
1675
1675
1674
1673
1671
1669
1667
1667
1666
1668
1666
1665
1666
1663
1667
1668
1666
1667
1666
1667
1666
1666
1668
1669
1672
1673
1675
1678
1680
1680
1680
1683
1687
1687
1687
1684
1683
1685
1685
1687
1684
1683
1680
1678
1675
1669
1666
1668
1666
1668
1668
1667
1666
1665
1665
1662
1644
1641
1649
1653
1657
1659
1659
1654
1642
1630
1627
1639
1667
1704
1760
1800
1827
1841
1856
1863
1860
1823
1762
1710
1680
1666
1665
1659
1653
1649
1647
1642
1644
1645
1645
1644
1643
1645
1647
1647
1648
1647
1647
1649
1649
1650
1651
1651
1651
1651
1651
1655
1655
1655
1656
1662
1663
1665
1666
1668
1671
1675
1687
1687
1690
1692
1697
1697
1699
1702
1704
1705
1706
1706
1708
1706
1705
1699
1690
1687
1683
1681
1679
1678
1674
1671
1668
1663
1665
1662
1665
1662
1663
1662
1659
1659
1660
1659
1656
1657
1655
1655
1656
1655
1655
1655
1653
1653
1656
1657
1656
1657
1660
1665
1666
1667
1671
1674
1675
1678
1674
1671
1671
1672
1671
1674
1673
1675
1673
1668
1669
1663
1660
1656
1659
1656
1654
1655
1654
1655
1656
1655
1654
1651
1653
1653
1654
1656
1655
1655
1644
1633
1624
1629
1650
1683
1739
1784
1812
1833
1851
1860
1863
1829
1772
1718
1681
1666
1659
1659
1655
1649
1644
1647
1647
1647
1644
1645
1643
1644
1647
1647
1647
1644
1649
1651
1653
1651
1653
1649
1651
1653
1656
1659
1659
1662
1662
1663
1666
1668
1671
1675
1678
1683
1690
1692
1696
1702
1705
1708
1710
1710
1711
1716
1715
1718
1716
1712
1711
1710
1705
1701
1697
1695
1690
1685
1679
1675
1671
1673
1671
1669
1666
1666
1667
1667
1665
1662
1662
1663
1665
1666
1665
1662
1662
1663
1665
1663
1663
1662
1665
1663
1665
1663
1666
1669
1669
1675
1675
1678
1680
1683
1683
1678
1679
1681
1683
1681
1679
1679
1678
1679
1675
1674
1667
1662
1663
1662
1661
1662
1661
1661
1659
1659
1662
1661
1659
1659
1657
1657
1656
1657
1653
1645
1631
1633
1648
1675
1723
1772
1745
1720
1771
1807
1829
1821
1787
1732
1692
1668
1655
1654
1654
1649
1649
1644
1643
1644
1645
1647
1644
1647
1647
1649
1649
1649
1647
1647
1647
1649
1649
1648
1649
1654
1655
1654
1654
1656
1656
1659
1661
1665
1669
1674
1674
1677
1685
1687
1692
1693
1697
1702
1704
1706
1705
1705
1711
1712
1712
1710
1706
1706
1703
1695
1690
1687
1684
1679
1677
1672
1672
1669
1669
1667
1666
1666
1660
1663
1665
1661
1662
1662
1659
1659
1660
1659
1659
1659
1660
1659
1661
1659
1660
1656
1656
1656
1660
1659
1665
1667
1667
1668
1672
1673
1674
1678
1678
1678
1674
1673
1669
1671
1672
1672
1669
1668
1667
1665
1659
1656
1655
1653
1655
1655
1656
1654
1653
1651
1654
1651
1651
1651
1656
1651
1649
1645
1641
1630
1624
1623
1637
1666
1709
1763
1802
1824
1844
1854
1860
1849
1806
1745
1699
1673
1661
1656
1654
1644
1641
1635
1637
1641
1642
1642
1641
1641
1639
1642
1654
1647
1645
1644
1645
1647
1645
1644
1648
1651
1653
1651
1649
1655
1655
1657
1657
1661
1663
1668
1673
1675
1679
1686
1687
1690
1695
1697
1699
1703
1704
1706
1709
1709
1712
1711
1710
1706
1704
1701
1698
1692
1687
1685
1685
1683
1680
1677
1673
1672
1671
1672
1669
1667
1671
1673
1677
1675
1675
1674
1674
1672
1672
1673
1673
1672
1673
1671
1672
1671
1671
1673
1675
1680
1681
1679
1681
1687
1690
1691
1693
1695
1695
1695
1697
1697
1695
1696
1698
1695
1693
1692
1687
1685
1680
1681
1678
1678
1679
1675
1679
1683
1681
1681
1679
1678
1680
1681
1681
1683
1680
1675
1661
1649
1651
1667
1695
1732
1780
1813
1836
1853
1860
1867
1850
1798
1747
1710
1691
1681
1681
1673
1621
1636
1644
1656
1663
1665
1668
1671
1671
1673
1673
1672
1672
1675
1678
1677
1678
1677
1679
1678
1679
1680
1683
1686
1686
1687
1687
1692
1695
1701
1703
1704
1705
1709
1715
1721
1722
1723
1728
1734
1730
1734
1735
1739
1733
1733
1733
1732
1728
1722
1718
1715
1711
1709
1704
1701
1697
1697
1692
1687
1686
1687
1687
1687
1686
1683
1683
1683
1683
1681
1679
1678
1680
1685
1684
1681
1681
1681
1685
1686
1685
1685
1686
1686
1687
1690
1691
1692
1693
1695
1695
1696
1699
1698
1701
1696
1695
1695
1695
1696
1692
1690
1690
1687
1683
1679
1675
1678
1675
1675
1673
1672
1672
1672
1673
1671
1669
1673
1671
1673
1669
1669
1663
1656
1641
1637
1647
1671
1706
1760
1800
1824
1841
1855
1866
1868
1825
1769
1721
1696
1678
1671
1668
1662
1656
1655
1655
1649
1649
1651
1651
1651
1651
1651
1655
1656
1656
1654
1655
1654
1654
1657
1657
1657
1659
1659
1659
1662
1665
1662
1665
1666
1666
1671
1674
1677
1681
1685
1691
1693
1695
1698
1699
1701
1710
1710
1709
1711
1710
1712
1708
1704
1699
1697
1690
1687
1685
1681
1679
1673
1672
1672
1671
1669
1667
1665
1665
1662
1662
1663
1662
1669
1662
1665
1662
1661
1660
1661
1661
1661
1655
1656
1659
1661
1659
1659
1659
1662
1667
1671
1674
1678
1669
1675
1680
1681
1677
1673
1674
1677
1679
1678
1677
1675
1675
1673
1671
1666
1662
1662
1665
1659
1656
1659
1659
1659
1657
1657
1659
1659
1660
1659
1659
1656
1660
1657
1649
1635
1631
1643
1668
1703
1756
1796
1820
1839
1854
1865
1860
1819
1764
1716
1687
1674
1671
1666
1661
1656
1653
1651
1653
1654
1655
1656
1656
1657
1657
1649
1683
1673
1667
1666
1662
1659
1661
1662
1663
1668
1666
1666
1666
1666
1665
1668
1672
1677
1680
1681
1687
1695
1697
1699
1705
1705
1709
1714
1717
1721
1722
1723
1726
1729
1724
1726
1720
1716
1711
1708
1703
1697
1697
1693
1693
1687
1681
1684
1684
1683
1681
1677
1678
1677
1675
1675
1675
1677
1677
1678
1675
1673
1674
1675
1677
1677
1677
1677
1677
1675
1675
1677
1679
1679
1683
1685
1687
1693
1693
1696
1693
1687
1691
1693
1692
1692
1690
1691
1690
1687
1687
1683
1679
1677
1677
1675
1671
1668
1668
1671
1671
1671
1669
1669
1671
1671
1669
1666
1668
1667
1660
1645
1637
1644
1668
1706
1757
1800
1824
1841
1854
1862
1855
1809
1752
1706
1679
1666
1659
1659
1656
1659
1655
1654
1654
1653
1653
1655
1651
1649
1655
1656
1655
1654
1655
1655
1657
1657
1657
1659
1660
1661
1662
1662
1663
1666
1668
1668
1669
1675
1680
1681
1687
1693
1697
1699
1702
1710
1712
1711
1712
1711
1718
1721
1726
1720
1721
1715
1710
1703
1705
1701
1695
1687
1685
1683
1681
1678
1673
1669
1668
1667
1668
1665
1662
1663
1662
1663
1663
1659
1661
1662
1662
1659
1659
1659
1661
1659
1657
1659
1660
1662
1666
1663
1663
1663
1668
1669
1669
1671
1673
1677
1680
1678
1675
1673
1679
1674
1675
1678
1675
1677
1675
1674
1669
1665
1661
1659
1660
1659
1656
1657
1660
1656
1655
1656
1654
1654
1656
1655
1654
1651
1654
1650
1642
1627
1623
1633
1659
1695
1747
1790
1819
1838
1856
1865
1865
1824
1764
1715
1683
1665
1657
1653
1647
1645
1639
1639
1639
1638
1642
1638
1642
1643
1643
1642
1639
1641
1643
1644
1644
1645
1645
1645
1645
1647
1648
1649
1649
1649
1651
1648
1632
1643
1650
1659
1662
1666
1671
1675
1679
1685
1687
1687
1691
1697
1697
1697
1699
1699
1699
1696
1695
1693
1687
1686
1683
1674
1672
1668
1665
1662
1661
1656
1655
1655
1656
1656
1656
1656
1655
1653
1651
1649
1651
1651
1649
1649
1653
1653
1651
1649
1649
1649
1643
1648
1647
1644
1649
1649
1653
1654
1657
1659
1665
1663
1666
1668
1665
1659
1659
1663
1661
1662
1661
1659
1659
1659
1656
1649
1645
1644
1644
1643
1639
1643
1641
1641
1638
1638
1641
1643
1639
1641
1641
1638
1638
1637
1627
1618
1608
1612
1635
1671
1721
1771
1806
1833
1845
1856
1857
1823
1772
1717
1680
1660
1647
1643
1636
1630
1625
1626
1625
1627
1623
1625
1624
1625
1625
1625
1623
1626
1627
1630
1627
1630
1630
1632
1635
1632
1632
1635
1633
1636
1637
1638
1642
1644
1647
1649
1655
1661
1665
1668
1669
1679
1680
1683
1687
1693
1692
1695
1693
1696
1696
1695
1692
1687
1685
1684
1678
1675
1667
1665
1662
1659
1655
1651
1649
1649
1651
1651
1649
1647
1655
1657
1648
1647
1649
1644
1647
1639
1643
1644
1647
1645
1642
1639
1642
1643
1645
1645
1642
1645
1649
1650
1653
1656
1656
1660
1665
1666
1663
1662
1661
1659
1665
1666
1665
1662
1659
1662
1661
1654
1649
1649
1649
1649
1647
1647
1647
1647
1648
1648
1647
1644
1645
1644
1644
1643
1645
1643
1638
1627
1611
1614
1627
1659
1697
1751
1794
1827
1848
1855
1857
1835
1783
1728
1685
1659
1648
1644
1642
1639
1638
1638
1636
1632
1636
1635
1636
1637
1636
1638
1637
1639
1641
1639
1642
1642
1643
1643
1644
1644
1647
1647
1650
1654
1656
1657
1659
1660
1665
1667
1669
1674
1679
1687
1695
1683
1655
1675
1686
1695
1703
1702
1702
1704
1705
1704
1699
1697
1692
1689
1690
1683
1677
1671
1668
1666
1659
1659
1656
1656
1655
1653
1653
1647
1649
1649
1651
1649
1647
1649
1649
1647
1647
1648
1649
1651
1655
1653
1653
1649
1653
1654
1653
1655
1655
1656
1656
1659
1659
1662
1665
1666
1671
1668
1666
1663
1663
1663
1666
1663
1665
1663
1663
1659
1656
1651
1649
1649
1648
1648
1644
1645
1647
1644
1647
1642
1642
1644
1643
1641
1638
1639
1639
1637
1624
1611
1614
1629
1657
1699
1751
1793
1824
1844
1856
1860
1835
1787
1728
1687
1660
1644
1638
1635
1636
1630
1629
1625
1625
1624
1625
1625
1625
1625
1625
1625
1629
1629
1629
1627
1629
1629
1627
1630
1630
1630
1631
1633
1636
1637
1636
1641
1642
1644
1647
1651
1655
1661
1663
1668
1673
1678
1679
1680
1684
1685
1687
1687
1687
1687
1687
1685
1684
1680
1679
1673
1666
1659
1654
1654
1656
1651
1645
1643
1644
1643
1643
1638
1639
1639
1641
1643
1639
1637
1635
1637
1639
1635
1633
1633
1636
1635
1636
1636
1635
1635
1638
1637
1637
1638
1643
1639
1639
1643
1645
1647
1651
1654
1653
1651
1651
1651
1649
1651
1651
1649
1647
1649
1647
1642
1637
1637
1637
1632
1632
1631
1632
1631
1632
1632
1632
1631
1630
1630
1630
1631
1631
1627
1620
1615
1606
1606
1615
1639
1681
1745
1786
1815
1841
1850
1860
1843
1796
1736
1691
1659
1643
1637
1633
1629
1618
1618
1619
1620
1618
1613
1614
1615
1618
1615
1615
1617
1620
1623
1620
1618
1615
1620
1624
1624
1624
1620
1623
1629
1630
1629
1630
1631
1635
1638
1645
1648
1653
1659
1665
1667
1669
1672
1675
1675
1675
1679
1683
1686
1686
1685
1684
1678
1680
1672
1666
1678
1667
1659
1655
1648
1647
1643
1639
1638
1636
1632
1632
1632
1631
1632
1633
1636
1633
1629
1629
1629
1629
1626
1627
1625
1624
1625
1627
1629
1629
1625
1625
1629
1632
1633
1631
1637
1638
1642
1642
1648
1647
1648
1647
1648
1647
1643
1645
1647
1643
1643
1643
1639
1639
1632
1630
1626
1625
1627
1625
1624
1624
1623
1624
1624
1621
1620
1619
1620
1624
1620
1615
1614
1601
1594
1599
1612
1641
1687
1747
1794
1823
1837
1850
1856
1826
1778
1717
1671
1641
1631
1627
1619
1613
1608
1609
1606
1608
1608
1605
1606
1606
1606
1606
1605
1605
1608
1606
1606
1606
1608
1612
1611
1611
1611
1613
1611
1609
1611
1614
1614
1620
1624
1625
1629
1631
1635
1642
1648
1649
1655
1659
1661
1662
1665
1665
1667
1669
1673
1668
1663
1662
1659
1656
1655
1649
1644
1642
1639
1632
1627
1625
1625
1627
1627
1625
1625
1623
1620
1620
1620
1620
1619
1617
1618
1619
1620
1615
1619
1615
1618
1620
1619
1615
1615
1615
1618
1618
1620
1620
1625
1625
1630
1633
1635
1633
1636
1637
1638
1635
1635
1636
1635
1636
1636
1632
1630
1627
1627
1625
1620
1614
1617
1618
1619
1615
1618
1615
1619
1613
1611
1612
1613
1613
1614
1614
1609
1609
1608
1599
1592
1593
1612
1642
1691
1746
1788
1819
1838
1853
1856
1809
1759
1702
1660
1642
1629
1621
1617
1612
1606
1606
1603
1606
1606
1606
1607
1606
1606
1606
1606
1608
1611
1611
1608
1608
1613
1614
1613
1613
1614
1617
1618
1618
1619
1620
1626
1629
1629
1631
1637
1637
1643
1649
1654
1659
1665
1669
1671
1672
1673
1675
1678
1678
1679
1678
1674
1671
1667
1665
1659
1656
1654
1649
1647
1639
1639
1637
1637
1635
1675
1666
1655
1645
1639
1638
1636
1635
1635
1631
1629
1627
1625
1626
1625
1625
1624
1624
1627
1629
1629
1627
1630
1629
1632
1637
1637
1642
1642
1644
1647
1645
1653
1649
1648
1649
1648
1648
1649
1647
1644
1642
1642
1642
1639
1635
1636
1636
1635
1635
1632
1631
1631
1630
1627
1627
1627
1629
1630
1627
1625
1624
1624
1620
1615
1605
1608
1624
1655
1699
1756
1795
1821
1841
1853
1853
1802
1751
1692
1659
1638
1629
1624
1624
1620
1618
1617
1613
1615
1619
1615
1612
1613
1618
1620
1620
1617
1619
1618
1620
1619
1620
1620
1623
1625
1625
1625
1630
1629
1627
1632
1636
1636
1638
1643
1647
1649
1654
1662
1669
1671
1672
1677
1675
1678
1679
1681
1680
1680
1678
1674
1674
1671
1667
1666
1659
1656
1649
1647
1643
1641
1635
1630
1629
1632
1629
1625
1625
1627
1627
1627
1625
1625
1627
1625
1625
1623
1625
1623
1623
1625
1623
1623
1625
1626
1627
1627
1627
1625
1631
1632
1636
1637
1637
1641
1643
1645
1644
1643
1643
1643
1642
1639
1637
1643
1639
1633
1632
1629
1624
1625
1624
1620
1617
1618
1619
1619
1619
1615
1618
1617
1615
1618
1615
1617
1613
1614
1611
1600
1598
1599
1605
1627
1665
1726
1775
1809
1832
1843
1859
1830
1776
1716
1674
1647
1630
1620
1618
1619
1612
1606
1605
1605
1602
1601
1601
1602
1605
1608
1606
1605
1605
1601
1603
1606
1607
1606
1608
1609
1612
1612
1613
1614
1613
1615
1615
1620
1624
1624
1629
1637
1639
1645
1647
1653
1655
1659
1661
1666
1666
1666
1668
1673
1673
1671
1668
1667
1666
1659
1656
1649
1644
1645
1639
1639
1635
1630
1625
1629
1629
1625
1620
1621
1623
1626
1625
1621
1619
1620
1624
1629
1625
1620
1620
1623
1623
1620
1620
1615
1618
1618
1618
1619
1620
1623
1625
1630
1631
1633
1636
1638
1639
1637
1636
1633
1631
1633
1637
1636
1636
1633
1632
1631
1627
1620
1617
1618
1619
1618
1620
1618
1619
1619
1618
1615
1618
1615
1614
1614
1614
1618
1614
1606
1596
1596
1599
1614
1643
1693
1754
1800
1821
1841
1855
1855
1809
1756
1693
1649
1630
1623
1618
1615
1608
1607
1606
1606
1602
1598
1599
1601
1601
1601
1600
1601
1602
1607
1606
1603
1605
1606
1603
1607
1603
1606
1606
1607
1611
1614
1615
1615
1619
1620
1620
1624
1629
1633
1639
1644
1649
1651
1656
1659
1660
1662
1665
1667
1667
1666
1661
1662
1660
1655
1655
1648
1644
1639
1636
1633
1629
1626
1623
1624
1623
1620
1620
1620
1617
1615
1615
1614
1608
1613
1615
1619
1618
1618
1614
1615
1618
1618
1613
1613
1614
1617
1615
1618
1618
1620
1625
1626
1630
1632
1632
1637
1639
1641
1637
1635
1636
1637
1635
1635
1635
1632
1635
1631
1627
1623
1624
1619
1619
1618
1620
1619
1618
1614
1613
1615
1615
1615
1614
1611
1615
1615
1612
1606
1596
1594
1596
1609
1639
1683
1742
1786
1819
1836
1850
1855
1807
1752
1698
1659
1635
1624
1623
1617
1613
1612
1609
1606
1606
1606
1608
1606
1606
1611
1611
1611
1608
1609
1613
1614
1615
1618
1615
1619
1619
1619
1620
1619
1624
1623
1626
1629
1633
1638
1641
1648
1649
1653
1661
1666
1667
1668
1672
1677
1680
1681
1683
1683
1685
1687
1685
1681
1678
1674
1671
1667
1663
1659
1655
1653
1649
1645
1639
1639
1638
1639
1639
1637
1638
1633
1636
1631
1632
1633
1636
1635
1636
1633
1637
1633
1635
1631
1636
1637
1633
1651
1669
1657
1651
1653
1650
1650
1649
1649
1649
1654
1656
1651
1647
1648
1649
1651
1650
1649
1648
1647
1648
1647
1635
1632
1632
1635
1635
1632
1627
1626
1627
1630
1629
1631
1630
1629
1630
1630
1630
1630
1625
1618
1609
1603
1608
1630
1660
1718
1772
1808
1833
1848
1859
1855
1802
1750
1695
1662
1644
1633
1629
1625
1621
1620
1614
1615
1618
1615
1615
1615
1613
1618
1619
1618
1617
1618
1619
1619
1621
1623
1623
1624
1624
1623
1624
1624
1625
1627
1629
1631
1633
1637
1642
1645
1649
1654
1656
1661
1667
1671
1674
1677
1679
1683
1680
1681
1681
1680
1680
1678
1677
1671
1668
1663
1661
1657
1651
1648
1643
1637
1641
1638
1639
1637
1633
1636
1635
1633
1636
1632
1630
1632
1632
1631
1632
1630
1635
1631
1632
1629
1629
1625
1629
1630
1632
1632
1631
1635
1637
1641
1641
1642
1644
1648
1649
1649
1647
1648
1660
1651
1648
1648
1647
1647
1645
1643
1641
1632
1630
1631
1632
1632
1629
1627
1625
1627
1631
1629
1627
1627
1625
1625
1625
1625
1624
1620
1612
1601
1600
1611
1641
1684
1739
1784
1814
1833
1847
1855
1830
1778
1723
1674
1647
1635
1630
1627
1621
1617
1613
1611
1611
1611
1609
1611
1612
1613
1614
1611
1613
1613
1615
1617
1614
1615
1618
1620
1618
1620
1618
1621
1627
1630
1625
1630
1631
1635
1637
1643
1647
1649
1653
1659
1662
1666
1671
1675
1675
1678
1683
1681
1685
1684
1684
1684
1679
1678
1674
1668
1661
1657
1655
1651
1649
1645
1645
1644
1642
1643
1639
1638
1637
1636
1637
1633
1638
1637
1639
1635
1637
1635
1633
1636
1637
1637
1637
1635
1635
1636
1632
1635
1636
1644
1647
1647
1645
1649
1655
1656
1675
1671
1662
1662
1656
1657
1656
1655
1653
1653
1651
1649
1647
1642
1637
1638
1637
1636
1636
1637
1637
1637
1635
1635
1635
1635
1636
1636
1637
1635
1632
1630
1619
1618
1609
1619
1644
1678
1735
1784
1815
1835
1850
1865
1847
1796
1739
1687
1662
1645
1639
1637
1632
1629
1627
1627
1629
1627
1627
1627
1625
1625
1625
1627
1627
1630
1632
1633
1633
1632
1632
1636
1636
1636
1636
1636
1639
1642
1645
1644
1649
1649
1655
1659
1661
1669
1671
1675
1681
1685
1685
1690
1692
1696
1697
1697
1701
1697
1695
1692
1691
1690
1683
1680
1675
1672
1668
1667
1661
1659
1655
1649
1647
1649
1649
1649
1648
1647
1647
1645
1642
1647
1645
1645
1643
1642
1642
1639
1643
1645
1644
1643
1643
1644
1645
1648
1647
1649
1653
1654
1653
1656
1659
1662
1666
1663
1665
1662
1661
1661
1659
1659
1660
1654
1655
1654
1649
1644
1644
1647
1643
1643
1639
1643
1643
1643
1639
1637
1639
1641
1639
1639
1637
1637
1639
1636
1620
1607
1606
1624
1653
1699
1752
1794
1823
1843
1857
1865
1826
1774
1720
1679
1655
1639
1637
1636
1629
1626
1624
1625
1621
1623
1624
1624
1625
1623
1623
1623
1625
1627
1627
1629
1625
1627
1627
1630
1631
1633
1633
1633
1635
1636
1639
1642
1642
1643
1649
1655
1660
1665
1668
1671
1673
1678
1681
1683
1687
1687
1691
1690
1692
1690
1687
1686
1683
1680
1678
1675
1671
1666
1661
1657
1656
1654
1649
1648
1643
1649
1648
1644
1642
1642
1639
1642
1644
1642
1642
1642
1642
1641
1639
1639
1643
1644
1639
1643
1643
1645
1642
1644
1643
1647
1650
1654
1653
1655
1659
1662
1662
1662
1659
1657
1660
1659
1659
1657
1657
1659
1656
1653
1649
1644
1655
1645
1642
1639
1639
1639
1642
1642
1637
1639
1637
1639
1639
1637
1635
1633
1636
1627
1612
1607
1613
1637
1673
1729
1781
1812
1833
1847
1859
1850
1807
1752
1699
1671
1653
1644
1639
1633
1632
1629
1625
1627
1629
1627
1627
1629
1630
1627
1631
1631
1631
1631
1629
1630
1632
1630
1629
1633
1636
1638
1639
1638
1641
1642
1645
1644
1644
1647
1654
1659
1662
1666
1669
1675
1679
1684
1685
1686
1687
1687
1695
1693
1692
1690
1691
1690
1687
1685
1680
1678
1675
1672
1668
1663
1656
1656
1655
1655
1654
1649
1647
1651
1649
1649
1647
1644
1647
1648
1645
1644
1645
1644
1645
1645
1643
1642
1643
1643
1643
1645
1645
1648
1647
1647
1651
1655
1660
1659
1659
1661
1665
1666
1662
1661
1661
1665
1666
1665
1662
1661
1659
1654
1650
1644
1639
1642
1643
1645
1644
1644
1642
1642
1645
1645
1645
1645
1645
1643
1643
1642
1637
1630
1621
1618
1624
1645
1680
1735
1781
1812
1835
1850
1857
1849
1798
1742
1699
1667
1649
1642
1639
1639
1636
1633
1629
1630
1631
1632
1632
1632
1631
1632
1635
1636
1632
1630
1631
1635
1636
1637
1637
1639
1642
1645
1645
1647
1645
1648
1649
1654
1655
1661
1667
1671
1674
1678
1684
1685
1690
1693
1695
1701
1703
1702
1704
1705
1705
1708
1705
1701
1695
1693
1690
1683
1678
1675
1669
1667
1663
1661
1662
1659
1659
1656
1656
1655
1651
1651
1651
1654
1654
1654
1651
1654
1651
1654
1651
1654
1651
1655
1654
1654
1656
1656
1659
1656
1660
1665
1666
1668
1669
1674
1675
1678
1678
1673
1673
1677
1675
1677
1673
1675
1667
1671
1671
1666
1659
1656
1655
1657
1656
1655
1651
1653
1653
1654
1655
1643
1649
1649
1651
1655
1651
1649
1643
1629
1618
1623
1645
1674
1721
1777
1809
1835
1847
1855
1860
1821
1768
1711
1672
1654
1645
1647
1645
1639
1637
1637
1636
1635
1631
1630
1630
1633
1637
1637
1637
1637
1637
1636
1637
1638
1641
1644
1645
1644
1644
1647
1648
1649
1654
1654
1656
1659
1662
1666
1667
1673
1678
1680
1684
1690
1692
1693
1697
1699
1701
1703
1703
1702
1703
1697
1697
1695
1691
1687
1681
1678
1675
1672
1668
1663
1661
1657
1655
1651
1648
1647
1645
1648
1648
1649
1649
1648
1648
1647
1645
1647
1644
1641
1644
1644
1645
1647
1645
1643
1644
1644
1647
1649
1649
1648
1651
1656
1660
1661
1662
1661
1661
1659
1659
1657
1657
1657
1656
1654
1654
1651
1649
1641
1637
1638
1637
1638
1639
1637
1636
1636
1635
1632
1636
1636
1633
1633
1635
1633
1633
1630
1620
1611
1608
1613
1639
1677
1733
1783
1812
1833
1848
1859
1856
1811
1753
1701
1668
1647
1641
1635
1631
1629
1623
1620
1617
1620
1623
1623
1623
1618
1614
1618
1621
1624
1619
1620
1625
1625
1627
1627
1623
1624
1624
1625
1625
1630
1629
1633
1637
1638
1641
1644
1647
1649
1655
1659
1663
1666
1668
1674
1675
1678
1680
1683
1684
1685
1683
1681
1680
1678
1673
1669
1663
1661
1663
1656
1651
1649
1647
1645
1645
1643
1642
1641
1639
1639
1642
1639
1636
1633
1636
1638
1637
1635
1633
1632
1631
1630
1632
1632
1631
1636
1638
1637
1638
1639
1642
1645
1647
1648
1654
1653
1655
1653
1651
1651
1655
1653
1653
1651
1649
1648
1649
1647
1645
1638
1636
1636
1635
1635
1632
1632
1632
1632
1632
1632
1633
1631
1629
1629
1630
1630
1631
1627
1620
1606
1606
1613
1635
1674
1726
1778
1814
1836
1833
1820
1829
1792
1739
1687
1659
1644
1636
1632
1627
1624
1620
1620
1620
1620
1621
1624
1620
1620
1620
1623
1625
1623
1623
1625
1625
1627
1629
1627
1629
1630
1631
1632
1632
1636
1638
1642
1643
1644
1649
1651
1654
1659
1662
1668
1675
1678
1683
1687
1687
1693
1692
1695
1695
1695
1693
1692
1691
1690
1686
1678
1675
1672
1668
1665
1656
1655
1653
1654
1651
1648
1648
1644
1645
1644
1645
1645
1644
1644
1645
1642
1645
1643
1642
1642
1642
1641
1641
1642
1642
1645
1644
1645
1649
1649
1654
1656
1656
1656
1660
1665
1667
1666
1661
1662
1665
1663
1665
1662
1661
1663
1661
1661
1657
1653
1649
1649
1648
1648
1647
1647
1645
1648
1644
1642
1641
1642
1641
1643
1647
1648
1643
1639
1629
1618
1619
1631
1665
1702
1756
1799
1825
1843
1854
1860
1830
1777
1720
1680
1659
1647
1642
1644
1641
1641
1641
1637
1639
1637
1641
1639
1637
1637
1638
1641
1639
1639
1643
1642
1644
1644
1647
1647
1649
1651
1655
1657
1659
1656
1657
1662
1666
1671
1674
1678
1679
1686
1692
1695
1699
1703
1709
1709
1712
1716
1714
1716
1714
1714
1712
1710
1708
1702
1698
1693
1687
1687
1681
1678
1674
1672
1671
1667
1665
1661
1661
1660
1661
1662
1660
1661
1659
1659
1661
1662
1663
1665
1663
1661
1662
1665
1663
1662
1665
1667
1666
1667
1669
1673
1678
1679
1678
1683
1685
1685
1685
1683
1683
1683
1683
1683
1684
1685
1685
1685
1684
1680
1677
1669
1669
1667
1666
1662
1663
1662
1665
1666
1665
1666
1665
1665
1663
1665
1666
1665
1662
1653
1642
1631
1637
1653
1681
1724
1777
1812
1835
1848
1857
1866
1841
1793
1736
1697
1672
1663
1665
1661
1655
1648
1651
1649
1649
1647
1648
1650
1651
1651
1649
1649
1651
1655
1653
1651
1651
1653
1654
1657
1657
1659
1660
1661
1662
1666
1667
1666
1671
1673
1675
1678
1684
1687
1692
1695
1703
1704
1706
1711
1709
1712
1715
1717
1721
1715
1716
1717
1714
1709
1703
1697
1695
1690
1687
1683
1678
1673
1672
1671
1671
1668
1666
1667
1668
1667
1666
1665
1662
1662
1662
1659
1661
1661
1662
1660
1661
1661
1660
1661
1659
1659
1657
1660
1661
1663
1667
1668
1669
1673
1673
1679
1681
1678
1677
1675
1675
1677
1675
1675
1674
1671
1669
1673
1669
1662
1660
1656
1654
1657
1655
1656
1655
1655
1654
1656
1655
1655
1654
1653
1648
1649
1647
1645
1635
1624
1627
1642
1674
1721
1771
1802
1827
1845
1855
1861
1847
1796
1742
1701
1675
1662
1654
1651
1647
1643
1642
1639
1639
1637
1639
1639
1639
1642
1641
1639
1642
1643
1643
1643
1643
1645
1647
1647
1647
1648
1648
1654
1655
1653
1654
1657
1656
1662
1663
1666
1672
1678
1680
1685
1687
1695
1695
1698
1702
1704
1703
1706
1708
1709
1706
1704
1704
1701
1696
1692
1687
1685
1680
1677
1671
1667
1668
1665
1665
1662
1661
1659
1659
1659
1660
1659
1659
1659
1657
1655
1656
1659
1660
1656
1659
1659
1659
1656
1656
1656
1656
1655
1655
1661
1665
1667
1669
1668
1673
1675
1679
1677
1673
1674
1675
1677
1675
1675
1674
1672
1673
1672
1668
1661
1660
1662
1659
1659
1659
1659
1657
1659
1656
1656
1656
1657
1659
1659
1656
1656
1654
1649
1638
1625
1631
1649
1679
1726
1777
1808
1831
1854
1865
1871
1850
1802
1745
1703
1679
1669
1666
1662
1656
1653
1651
1651
1651
1649
1649
1651
1651
1654
1654
1654
1645
1630
1637
1645
1648
1649
1653
1655
1657
1659
1660
1661
1661
1662
1666
1668
1668
1673
1677
1680
1685
1686
1690
1695
1697
1705
1706
1709
1714
1716
1716
1717
1718
1720
1722
1718
1714
1712
1709
1706
1703
1697
1693
1692
1687
1685
1683
1681
1681
1680
1679
1675
1675
1675
1673
1671
1671
1672
1672
1672
1669
1669
1671
1671
1672
1672
1668
1668
1669
1668
1668
1671
1674
1675
1675
1679
1680
1681
1685
1687
1690
1686
1687
1685
1684
1686
1685
1684
1684
1680
1683
1681
1675
1671
1667
1668
1668
1668
1668
1666
1663
1665
1666
1668
1666
1663
1662
1665
1659
1663
1659
1648
1635
1631
1642
1668
1704
1758
1795
1825
1843
1854
1860
1860
1819
1764
1715
1683
1671
1666
1661
1656
1651
1653
1649
1649
1651
1649
1647
1647
1648
1649
1649
1651
1649
1649
1653
1654
1654
1656
1655
1655
1656
1655
1659
1660
1659
1662
1665
1666
1669
1672
1677
1681
1681
1686
1692
1695
1701
1704
1706
1706
1708
1710
1712
1714
1714
1711
1709
1709
1706
1702
1698
1695
1691
1686
1681
1680
1675
1672
1671
1671
1669
1666
1666
1663
1666
1666
1662
1661
1666
1662
1660
1660
1659
1659
1661
1661
1665
1662
1662
1662
1659
1661
1663
1663
1666
1668
1671
1678
1680
1680
1683
1680
1679
1679
1678
1675
1680
1681
1679
1675
1675
1673
1673
1666
1662
1665
1662
1659
1661
1662
1662
1659
1657
1657
1659
1659
1656
1654
1656
1656
1657
1651
1637
1625
1631
1649
1675
1723
1775
1815
1832
1843
1851
1865
1837
1789
1735
1696
1675
1666
1666
1662
1651
1648
1649
1644
1648
1647
1648
1648
1648
1648
1649
1649
1649
1649
1649
1649
1653
1654
1655
1654
1655
1656
1656
1661
1661
1662
1649
1662
1663
1668
1673
1677
1680
1685
1686
1689
1695
1697
1703
1704
1706
1708
1706
1706
1706
1708
1706
1704
1703
1702
1699
1696
1690
1687
1683
1679
1677
1673
1671
1669
1673
1671
1666
1666
1667
1665
1663
1665
1663
1665
1663
1662
1662
1661
1661
1660
1662
1662
1662
1662
1663
1663
1667
1668
1671
1673
1675
1678
1681
1684
1685
1681
1679
1678
1679
1678
1680
1677
1679
1678
1674
1671
1666
1662
1660
1660
1661
1660
1661
1659
1659
1657
1657
1659
1654
1657
1656
1656
1654
1650
1649
1641
1631
1629
1637
1662
1703
1752
1794
1821
1836
1854
1866
1844
1795
1739
1698
1671
1661
1657
1654
1651
1648
1649
1648
1643
1643
1644
1647
1647
1644
1644
1647
1649
1649
1649
1649
1651
1648
1651
1654
1654
1653
1656
1659
1660
1661
1661
1665
1666
1666
1672
1677
1681
1685
1687
1695
1698
1704
1708
1706
1711
1714
1716
1717
1714
1720
1715
1714
1711
1709
1706
1701
1697
1693
1691
1686
1685
1679
1675
1673
1673
1669
1667
1666
1666
1671
1667
1667
1665
1665
1667
1668
1668
1665
1662
1662
1666
1667
1667
1666
1668
1674
1673
1675
1678
1679
1681
1683
1685
1687
1686
1681
1684
1684
1684
1684
1687
1687
1684
1683
1681
1674
1672
1672
1671
1668
1666
1668
1668
1671
1671
1667
1665
1668
1668
1668
1668
1668
1667
1666
1659
1642
1633
1643
1671
1704
1752
1790
1819
1841
1850
1860
1853
1806
1750
1708
1683
1667
1667
1668
1666
1663
1662
1663
1662
1661
1659
1661
1661
1661
1662
1662
1666
1666
1667
1666
1669
1667
1667
1671
1673
1677
1673
1677
1679
1680
1683
1683
1685
1691
1696
1702
1704
1705
1716
1720
1726
1723
1726
1730
1733
1735
1721
1686
1704
1720
1728
1730
1728
1728
1721
1717
1714
1708
1704
1697
1695
1690
1687
1687
1687
1686
1685
1684
1680
1678
1678
1677
1678
1680
1679
1679
1678
1679
1680
1679
1679
1684
1683
1683
1683
1684
1686
1686
1687
1691
1695
1697
1697
1703
1702
1699
1697
1697
1697
1695
1697
1697
1697
1697
1695
1695
1689
1683
1683
1681
1679
1675
1677
1679
1678
1675
1674
1677
1677
1677
1675
1674
1675
1673
1671
1662
1645
1641
1651
1677
1706
1753
1798
1829
1844
1854
1860
1862
1830
1771
1720
1686
1672
1667
1666
1666
1665
1657
1656
1657
1657
1657
1656
1657
1656
1656
1656
1657
1659
1660
1659
1665
1656
1660
1661
1662
1663
1662
1662
1662
1665
1668
1671
1672
1673
1677
1680
1684
1686
1691
1697
1699
1705
1706
1709
1710
1711
1717
1718
1718
1716
1717
1718
1714
1715
1706
1702
1697
1693
1690
1681
1679
1678
1674
1673
1669
1668
1668
1666
1666
1663
1663
1665
1665
1663
1663
1665
1661
1662
1662
1661
1662
1663
1660
1659
1665
1666
1661
1666
1667
1671
1673
1673
1673
1677
1679
1680
1678
1675
1673
1672
1674
1678
1674
1674
1671
1667
1666
1663
1656
1656
1654
1651
1655
1654
1651
1649
1649
1649
1653
1653
1651
1649
1647
1648
1647
1644
1635
1620
1618
1629
1651
1687
1738
1783
1815
1838
1849
1861
1865
1827
1771
1717
1683
1663
1655
1649
1644
1642
1638
1635
1635
1635
1637
1638
1636
1635
1636
1637
1637
1636
1638
1641
1641
1642
1637
1639
1641
1642
1642
1641
1642
1647
1645
1647
1649
1651
1656
1659
1661
1665
1669
1675
1675
1681
1683
1686
1691
1693
1695
1697
1699
1698
1696
1697
1696
1695
1692
1690
1686
1681
1675
1673
1669
1671
1665
1662
1656
1657
1656
1657
1655
1655
1653
1625
1625
1635
1642
1644
1645
1649
1651
1651
1649
1649
1651
1653
1653
1654
1655
1654
1656
1659
1665
1666
1665
1666
1669
1672
1675
1673
1671
1671
1671
1673
1675
1673
1673
1671
1666
1663
1661
1659
1661
1662
1659
1656
1657
1657
1655
1655
1656
1656
1655
1654
1654
1653
1656
1655
1651
1643
1630
1629
1642
1666
1705
1754
1795
1823
1843
1857
1863
1855
1809
1754
1704
1675
1662
1657
1656
1655
1650
1648
1645
1644
1643
1643
1645
1645
1645
1647
1647
1648
1647
1651
1656
1653
1649
1651
1650
1654
1655
1656
1659
1659
1663
1665
1666
1669
1669
1671
1675
1678
1685
1689
1693
1697
1704
1706
1709
1714
1717
1721
1726
1726
1721
1718
1714
1712
1712
1708
1703
1697
1692
1691
1687
1683
1678
1675
1674
1675
1673
1672
1671
1672
1669
1666
1666
1668
1667
1666
1668
1668
1667
1667
1666
1666
1668
1671
1671
1668
1671
1673
1674
1673
1675
1675
1678
1681
1684
1685
1690
1690
1687
1685
1685
1683
1687
1690
1689
1685
1683
1683
1681
1678
1679
1677
1674
1671
1671
1671
1671
1667
1666
1666
1669
1671
1669
1669
1668
1669
1667
1663
1655
1638
1638
1649
1675
1712
1762
1798
1821
1839
1854
1865
1857
1809
1751
1708
1683
1669
1666
1666
1661
1661
1662
1661
1659
1661
1662
1662
1661
1662
1662
1665
1665
1666
1666
1666
1668
1667
1668
1667
1666
1667
1671
1675
1677
1674
1674
1678
1680
1686
1687
1691
1697
1701
1706
1711
1714
1721
1724
1728
1726
1729
1726
1732
1732
1730
1728
1726
1728
1721
1717
1712
1708
1705
1703
1697
1693
1687
1687
1684
1681
1681
1680
1680
1679
1678
1680
1679
1678
1675
1672
1675
1674
1675
1677
1665
1657
1662
1667
1669
1674
1677
1677
1678
1680
1681
1683
1685
1685
1690
1692
1693
1695
1692
1690
1687
1687
1690
1690
1690
1687
1687
1687
1685
1683
1678
1677
1677
1672
1668
1666
1671
1669
1668
1667
1668
1671
1671
1668
1666
1666
1667
1666
1661
1649
1637
1641
1659
1687
1739
1788
1818
1838
1855
1866
1869
1855
1802
1745
1704
1683
1669
1665
1659
1656
1653
1653
1653
1648
1649
1649
1649
1647
1649
1653
1653
1654
1649
1649
1649
1649
1649
1649
1649
1651
1655
1656
1654
1656
1657
1659
1661
1661
1663
1667
1668
1673
1678
1684
1687
1687
1691
1696
1701
1703
1702
1702
1709
1706
1708
1706
1704
1703
1697
1695
1690
1686
1678
1675
1674
1674
1672
1668
1662
1662
1659
1660
1659
1661
1657
1656
1659
1659
1657
1656
1656
1655
1653
1655
1651
1654
1653
1651
1653
1651
1653
1651
1653
1656
1659
1657
1660
1665
1666
1668
1671
1673
1671
1668
1667
1668
1668
1668
1667
1665
1662
1663
1662
1655
1651
1651
1649
1647
1645
1644
1644
1642
1642
1642
1642
1642
1643
1639
1639
1645
1643
1641
1629
1613
1611
1621
1645
1690
1742
1783
1815
1838
1854
1860
1850
1805
1750
1699
1665
1651
1643
1644
1642
1636
1633
1631
1629
1627
1629
1625
1626
1625
1626
1629
1632
1630
1629
1627
1633
1637
1638
1635
1632
1633
1639
1638
1636
1638
1642
1647
1649
1649
1651
1655
1659
1665
1665
1672
1678
1680
1684
1686
1692
1697
1701
1703
1701
1699
1701
1701
1698
1695
1695
1692
1687
1680
1673
1668
1668
1666
1665
1660
1659
1659
1659
1655
1656
1659
1656
1656
1659
1659
1656
1659
1655
1656
1657
1656
1655
1651
1649
1651
1653
1655
1655
1655
1656
1659
1661
1663
1657
1655
1659
1662
1666
1667
1669
1672
1673
1671
1673
1669
1671
1668
1666
1662
1659
1659
1659
1659
1656
1656
1656
1654
1653
1651
1653
1654
1653
1655
1656
1654
1653
1651
1649
1637
1625
1620
1633
1656
1695
1751
1789
1820
1841
1854
1866
1853
1801
1744
1697
1673
1655
1651
1649
1649
1649
1647
1643
1643
1643
1645
1644
1645
1644
1647
1649
1647
1645
1645
1649
1649
1648
1645
1645
1649
1651
1654
1654
1656
1657
1659
1663
1667
1668
1671
1675
1680
1687
1690
1691
1698
1703
1704
1712
1711
1714
1715
1716
1718
1716
1714
1712
1710
1706
1703
1697
1691
1687
1683
1678
1674
1667
1668
1666
1666
1662
1659
1656
1660
1657
1657
1653
1653
1654
1655
1660
1651
1649
1651
1649
1654
1653
1654
1654
1654
1654
1654
1657
1656
1659
1661
1663
1663
1666
1667
1672
1675
1672
1666
1667
1667
1668
1671
1668
1669
1668
1667
1663
1659
1653
1653
1654
1651
1651
1650
1649
1647
1649
1647
1648
1649
1649
1647
1647
1644
1647
1644
1633
1623
1613
1624
1647
1685
1735
1783
1815
1841
1850
1856
1848
1805
1745
1697
1665
1649
1642
1641
1635
1627
1629
1627
1625
1625
1626
1627
1630
1629
1627
1625
1629
1629
1627
1627
1629
1629
1627
1630
1632
1632
1633
1636
1637
1638
1638
1641
1644
1645
1647
1651
1653
1660
1663
1669
1673
1679
1681
1685
1687
1687
1690
1693
1693
1693
1693
1692
1692
1687
1685
1679
1667
1669
1667
1663
1656
1653
1649
1649
1647
1644
1643
1642
1647
1643
1643
1639
1638
1639
1642
1639
1638
1641
1642
1637
1639
1639
1637
1639
1641
1641
1642
1642
1643
1645
1649
1648
1653
1654
1656
1659
1657
1654
1655
1654
1653
1655
1655
1655
1651
1651
1639
1637
1637
1636
1636
1636
1635
1635
1635
1636
1632
1631
1632
1632
1630
1627
1627
1629
1630
1625
1620
1614
1609
1607
1617
1637
1675
1733
1781
1812
1835
1850
1860
1856
1812
1757
1703
1671
1651
1641
1635
1627
1620
1618
1615
1614
1617
1615
1613
1614
1615
1614
1618
1623
1619
1615
1613
1613
1615
1621
1623
1618
1619
1621
1623
1620
1620
1621
1626
1626
1630
1631
1635
1639
1639
1645
1651
1656
1662
1666
1667
1671
1671
1673
1675
1678
1675
1677
1678
1673
1672
1668
1666
1665
1656
1651
1647
1645
1643
1641
1638
1637
1636
1636
1635
1630
1630
1630
1630
1629
1630
1626
1627
1625
1627
1625
1626
1627
1629
1630
1630
1625
1631
1629
1630
1631
1638
1638
1642
1643
1643
1644
1653
1647
1648
1643
1643
1644
1648
1647
1647
1642
1642
1643
1637
1633
1631
1633
1630
1631
1631
1631
1630
1627
1627
1625
1624
1623
1625
1625
1630
1631
1629
1618
1611
1606
1609
1625
1659
1705
1768
1802
1824
1838
1854
1856
1809
1752
1696
1661
1642
1633
1635
1629
1625
1625
1620
1619
1620
1618
1618
1615
1615
1618
1623
1621
1624
1620
1627
1625
1626
1620
1625
1625
1625
1627
1629
1627
1630
1636
1638
1641
1639
1645
1650
1655
1659
1661
1663
1671
1678
1681
1683
1686
1687
1695
1702
1699
1695
1693
1692
1689
1687
1684
1675
1672
1668
1665
1660
1656
1656
1651
1644
1644
1642
1648
1647
1644
1644
1639
1637
1642
1643
1642
1639
1642
1645
1641
1639
1641
1639
1639
1641
1642
1643
1648
1648
1649
1654
1653
1654
1655
1656
1662
1666
1667
1666
1665
1663
1662
1665
1666
1667
1663
1662
1661
1659
1650
1647
1647
1649
1649
1647
1644
1648
1648
1647
1647
1647
1644
1647
1600
1611
1621
1626
1620
1615
1608
1617
1632
1662
1709
1764
1802
1825
1844
1860
1863
1823
1765
1710
1673
1653
1643
1644
1645
1639
1637
1635
1635
1637
1636
1632
1633
1638
1637
1637
1635
1639
1638
1641
1639
1639
1643
1643
1643
1644
1644
1647
1647
1649
1654
1655
1659
1661
1663
1667
1669
1674
1678
1684
1687
1690
1693
1698
1703
1703
1706
1706
1709
1709
1709
1706
1702
1699
1695
1687
1684
1679
1675
1671
1666
1662
1655
1654
1655
1649
1648
1647
1649
1649
1649
1647
1647
1647
1648
1644
1642
1639
1643
1645
1645
1644
1643
1647
1645
1647
1647
1649
1649
1651
1649
1661
1654
1657
1661
1665
1661
1659
1657
1656
1655
1657
1661
1659
1656
1656
1657
1654
1648
1643
1644
1643
1639
1638
1637
1627
1632
1635
1635
1633
1632
1632
1636
1637
1636
1632
1629
1621
1614
1611
1615
1639
1686
1747
1793
1819
1837
1850
1862
1843
1793
1730
1678
1654
1639
1635
1631
1627
1625
1624
1621
1618
1618
1615
1615
1618
1615
1615
1615
1618
1619
1619
1615
1617
1619
1619
1621
1620
1619
1620
1624
1623
1623
1624
1625
1627
1631
1632
1632
1639
1645
1649
1651
1653
1659
1665
1669
1671
1674
1672
1674
1675
1675
1678
1678
1673
1669
1667
1662
1656
1651
1648
1644
1639
1639
1633
1636
1636
1635
1633
1632
1631
1629
1626
1629
1629
1625
1629
1629
1627
1625
1625
1624
1626
1623
1624
1623
1620
1623
1624
1623
1627
1627
1630
1632
1632
1637
1643
1644
1642
1637
1639
1639
1637
1638
1636
1638
1633
1636
1638
1633
1629
1625
1624
1623
1623
1624
1620
1619
1618
1618
1620
1619
1620
1618
1620
1618
1620
1619
1614
1605
1599
1605
1618
1645
1687
1748
1794
1824
1843
1847
1819
1800
1759
1704
1662
1644
1637
1635
1629
1619
1613
1615
1617
1613
1608
1609
1613
1618
1613
1609
1614
1615
1611
1609
1613
1613
1617
1620
1619
1621
1623
1623
1624
1621
1626
1627
1626
1633
1639
1642
1644
1645
1649
1655
1659
1666
1673
1677
1684
1680
1683
1683
1683
1687
1692
1693
1687
1683
1679
1675
1672
1665
1665
1659
1656
1649
1649
1649
1648
1644
1641
1639
1637
1639
1639
1641
1639
1641
1642
1639
1638
1635
1637
1637
1638
1636
1632
1636
1637
1638
1637
1639
1643
1644
1644
1647
1649
1653
1654
1654
1653
1651
1653
1655
1656
1657
1657
1656
1653
1651
1649
1645
1642
1638
1637
1637
1639
1638
1637
1636
1637
1636
1635
1633
1633
1631
1632
1632
1632
1627
1619
1608
1605
1614
1636
1674
1732
1777
1807
1831
1844
1856
1836
1778
1723
1677
1649
1636
1633
1632
1626
1620
1615
1614
1613
1613
1614
1615
1615
1618
1615
1617
1618
1619
1619
1621
1619
1619
1619
1621
1623
1620
1620
1624
1627
1629
1631
1633
1636
1639
1639
1644
1647
1651
1657
1662
1666
1669
1674
1674
1679
1678
1684
1683
1683
1684
1681
1679
1677
1672
1668
1663
1657
1655
1649
1644
1642
1639
1635
1636
1631
1630
1625
1625
1627
1625
1625
1623
1620
1625
1625
1625
1624
1624
1623
1621
1626
1625
1624
1624
1623
1625
1627
1625
1625
1627
1629
1632
1636
1635
1637
1641
1645
1643
1638
1636
1637
1637
1635
1636
1632
1632
1635
1635
1625
1618
1620
1621
1620
1619
1617
1614
1617
1615
1614
1617
1617
1614
1613
1612
1618
1615
1606
1601
1596
1596
1600
1620
1659
1716
1772
1806
1835
1850
1855
1841
1796
1740
1692
1657
1633
1625
1620
1619
1608
1605
1606
1600
1630
1638
1630
1620
1613
1609
1609
1609
1608
1605
1603
1603
1608
1608
1606
1602
1603
1608
1609
1609
1607
1609
1614
1614
1618
1615
1627
1625
1630
1635
1636
1641
1647
1655
1659
1657
1659
1662
1667
1666
1667
1668
1669
1665
1660
1656
1656
1650
1649
1645
1639
1637
1631
1630
1627
1625
1623
1623
1624
1621
1620
1620
1620
1619
1618
1619
1615
1613
1617
1615
1615
1614
1617
1614
1615
1614
1617
1614
1615
1620
1620
1620
1623
1626
1630
1630
1631
1632
1632
1629
1629
1630
1631
1630
1629
1625
1623
1624
1627
1620
1611
1611
1611
1611
1609
1609
1606
1609
1607
1606
1606
1606
1603
1603
1606
1606
1603
1605
1594
1577
1576
1589
1612
1653
1711
1769
1807
1829
1845
1857
1830
1780
1726
1672
1637
1618
1611
1609
1602
1599
1600
1598
1593
1589
1592
1594
1596
1596
1598
1594
1595
1595
1593
1593
1596
1599
1599
1596
1595
1599
1601
1601
1600
1600
1601
1601
1605
1608
1611
1615
1615
1621
1624
1632
1637
1637
1643
1645
1648
1649
1651
1655
1656
1656
1656
1655
1649
1649
1644
1645
1638
1631
1629
1625
1621
1619
1617
1618
1615
1613
1608
1607
1606
1606
1607
1606
1606
1603
1601
1602
1601
1606
1603
1602
1603
1605
1602
1605
1605
1603
1596
1598
1601
1603
1608
1609
1611
1614
1619
1620
1624
1621
1618
1617
1619
1618
1620
1619
1620
1618
1617
1613
1613
1611
1608
1603
1602
1605
1608
1603
1605
1603
1599
1601
1600
1601
1599
1599
1601
1603
1601
1599
1587
1576
1580
1590
1614
1651
1711
1766
1806
1830
1845
1859
1821
1764
1708
1663
1635
1624
1617
1611
1606
1602
1601
1599
1601
1598
1595
1599
1598
1600
1598
1598
1598
1599
1601
1599
1599
1599
1601
1602
1599
1600
1601
1601
1602
1608
1611
1620
1619
1618
1618
1620
1624
1629
1632
1635
1637
1638
1645
1649
1651
1651
1654
1656
1659
1656
1656
1655
1657
1653
1649
1645
1643
1641
1637
1632
1630
1625
1624
1620
1619
1619
1620
1619
1619
1619
1618
1612
1611
1615
1613
1615
1613
1614
1617
1617
1615
1615
1613
1611
1612
1615
1618
1620
1619
1623
1627
1630
1630
1632
1635
1638
1639
1637
1637
1638
1639
1637
1639
1639
1636
1633
1632
1632
1627
1624
1623
1620
1620
1620
1620
1618
1615
1618
1615
1617
1618
1614
1617
1618
1619
1618
1613
1608
1601
1592
1598
1618
1655
1705
1764
1800
1823
1841
1853
1829
1770
1710
1668
1644
1629
1621
1620
1613
1611
1603
1601
1601
1601
1603
1608
1608
1605
1606
1606
1606
1608
1606
1608
1611
1611
1608
1613
1615
1615
1619
1620
1620
1624
1625
1627
1630
1631
1636
1641
1647
1649
1651
1655
1659
1665
1668
1671
1673
1675
1680
1678
1678
1680
1680
1680
1677
1674
1673
1667
1662
1657
1655
1651
1647
1643
1638
1637
1639
1637
1627
1630
1630
1633
1632
1629
1625
1625
1625
1627
1627
1629
1627
1626
1625
1629
1631
1627
1630
1630
1631
1636
1636
1638
1641
1643
1647
1648
1648
1649
1653
1649
1649
1649
1651
1651
1649
1645
1645
1645
1643
1643
1636
1630
1631
1632
1632
1633
1631
1632
1631
1630
1627
1630
1629
1631
1630
1626
1624
1625
1623
1617
1596
1594
1608
1637
1678
1734
1781
1815
1837
1848
1853
1819
1764
1709
1668
1641
1626
1625
1621
1620
1614
1618
1618
1617
1615
1615
1618
1617
1618
1618
1615
1618
1618
1618
1620
1619
1620
1620
1624
1627
1629
1629
1629
1632
1632
1633
1633
1637
1639
1641
1649
1649
1651
1644
1656
1665
1671
1675
1679
1680
1680
1683
1684
1683
1685
1683
1678
1675
1673
1671
1667
1666
1659
1654
1649
1647
1645
1642
1637
1635
1636
1637
1632
1633
1632
1631
1631
1632
1629
1630
1629
1626
1629
1626
1630
1630
1630
1630
1632
1630
1630
1633
1637
1637
1639
1642
1649
1647
1649
1648
1651
1655
1651
1648
1645
1647
1647
1648
1647
1645
1639
1639
1639
1637
1630
1629
1625
1627
1627
1627
1625
1620
1624
1624
1624
1620
1615
1619
1620
1620
1619
1615
1611
1599
1593
1598
1620
1656
1712
1764
1806
1830
1844
1855
1845
1799
1742
1687
1655
1637
1630
1625
1619
1611
1608
1608
1606
1603
1605
1606
1606
1606
1606
1606
1606
1606
1608
1611
1611
1607
1606
1606
1609
1611
1611
1612
1618
1619
1618
1619
1618
1620
1623
1625
1631
1636
1639
1642
1647
1651
1657
1656
1660
1666
1667
1669
1671
1671
1672
1671
1668
1665
1661
1662
1659
1651
1645
1645
1642
1639
1638
1635
1630
1627
1625
1627
1627
1626
1629
1625
1624
1623
1625
1625
1621
1623
1623
1625
1624
1620
1618
1620
1624
1623
1620
1619
1621
1626
1627
1630
1632
1633
1633
1647
1645
1638
1637
1633
1636
1637
1637
1637
1635
1633
1633
1632
1627
1623
1621
1620
1618
1618
1620
1620
1619
1615
1615
1619
1620
1618
1615
1614
1615
1617
1613
1609
1602
1594
1598
1611
1642
1691
1747
1790
1821
1841
1853
1855
1814
1762
1706
1668
1643
1629
1620
1619
1618
1613
1609
1606
1603
1606
1608
1609
1606
1606
1606
1609
1611
1611
1609
1611
1611
1611
1613
1612
1613
1617
1615
1618
1618
1621
1620
1624
1625
1630
1631
1636
1641
1643
1644
1653
1655
1659
1665
1667
1668
1671
1674
1675
1674
1672
1674
1672
1680
1675
1668
1663
1659
1655
1650
1647
1643
1645
1639
1633
1632
1632
1632
1631
1631
1629
1627
1629
1627
1627
1627
1627
1625
1625
1629
1627
1626
1626
1625
1625
1624
1625
1625
1627
1631
1632
1637
1641
1642
1645
1645
1648
1648
1644
1645
1644
1645
1649
1648
1648
1643
1642
1639
1637
1636
1630
1627
1629
1630
1630
1625
1625
1624
1627
1627
1626
1624
1620
1620
1624
1625
1621
1618
1603
1605
1608
1613
1638
1681
1744
1787
1812
1832
1849
1860
1825
1775
1712
1674
1649
1633
1630
1623
1619
1615
1613
1614
1613
1617
1613
1612
1613
1613
1613
1613
1611
1613
1617
1615
1618
1615
1617
1618
1620
1620
1620
1625
1625
1625
1629
1627
1629
1631
1636
1637
1639
1644
1649
1654
1659
1663
1666
1666
1671
1673
1674
1675
1678
1679
1678
1675
1674
1673
1669
1666
1659
1657
1666
1651
1647
1643
1644
1644
1643
1637
1636
1637
1637
1637
1635
1635
1636
1635
1637
1637
1635
1633
1633
1631
1631
1631
1633
1637
1635
1636
1637
1637
1639
1642
1645
1647
1648
1648
1649
1653
1657
1654
1651
1651
1651
1654
1656
1656
1656
1653
1648
1648
1644
1642
1637
1636
1633
1632
1635
1635
1635
1635
1633
1636
1637
1633
1632
1632
1635
1632
1630
1627
1619
1609
1608
1619
1647
1687
1744
1784
1815
1838
1853
1860
1818
1764
1712
1681
1651
1637
1633
1635
1633
1629
1627
1627
1629
1625
1625
1625
1625
1625
1624
1625
1629
1631
1633
1631
1629
1631
1633
1633
1637
1637
1637
1639
1639
1644
1649
1649
1647
1649
1656
1661
1666
1668
1671
1675
1678
1683
1692
1687
1690
1692
1695
1697
1697
1698
1697
1693
1693
1690
1685
1680
1673
1672
1669
1667
1662
1662
1656
1651
1639
1637
1641
1642
1644
1645
1649
1647
1647
1649
1648
1647
1647
1644
1645
1647
1647
1647
1645
1647
1647
1647
1651
1655
1656
1659
1659
1661
1665
1666
1669
1672
1669
1665
1661
1665
1665
1666
1665
1665
1666
1663
1661
1655
1650
1649
1649
1647
1648
1647
1648
1649
1648
1648
1649
1647
1644
1643
1643
1644
1643
1641
1635
1619
1614
1619
1638
1672
1717
1772
1809
1833
1850
1859
1854
1805
1753
1709
1672
1655
1644
1642
1641
1636
1631
1632
1630
1629
1630
1631
1630
1631
1633
1629
1629
1632
1632
1632
1632
1636
1637
1635
1633
1629
1636
1641
1642
1642
1645
1647
1650
1653
1655
1655
1659
1665
1669
1672
1674
1678
1680
1684
1685
1687
1693
1692
1691
1693
1693
1689
1690
1685
1684
1679
1675
1674
1669
1662
1661
1656
1651
1651
1649
1648
1648
1645
1647
1647
1647
1642
1643
1645
1642
1642
1639
1642
1645
1642
1643
1643
1643
1645
1644
1644
1647
1644
1643
1647
1649
1653
1655
1656
1656
1661
1663
1666
1660
1659
1659
1661
1663
1662
1659
1659
1659
1660
1656
1649
1645
1645
1647
1645
1643
1642
1643
1639
1637
1637
1638
1639
1642
1638
1636
1637
1639
1635
1626
1613
1609
1618
1632
1666
1718
1775
1808
1829
1844
1855
1856
1818
1759
1704
1671
1655
1644
1642
1637
1632
1629
1627
1625
1625
1624
1625
1624
1625
1627
1630
1632
1630
1629
1630
1632
1636
1632
1632
1635
1636
1637
1638
1639
1639
1643
1641
1647
1649
1650
1649
1653
1661
1668
1671
1674
1675
1679
1684
1687
1687
1690
1693
1697
1697
1696
1697
1697
1690
1686
1683
1681
1680
1673
1668
1666
1665
1666
1663
1659
1654
1655
1653
1654
1655
1654
1655
1656
1654
1657
1651
1654
1655
1644
1651
1647
1648
1651
1649
1649
1651
1654
1655
1655
1656
1659
1660
1663
1667
1668
1669
1673
1675
1673
1668
1668
1667
1671
1673
1668
1666
1666
1666
1665
1659
1655
1656
1657
1656
1654
1654
1655
1655
1653
1651
1651
1656
1650
1649
1649
1653
1653
1651
1638
1625
1624
1638
1665
1699
1752
1798
1829
1845
1859
1865
1847
1798
1744
1699
1673
1663
1659
1656
1649
1647
1645
1642
1644
1644
1643
1642
1643
1642
1644
1647
1647
1644
1648
1647
1649
1651
1649
1650
1656
1654
1657
1657
1659
1657
1659
1662
1666
1667
1671
1675
1674
1678
1684
1687
1693
1697
1702
1705
1706
1706
1711
1714
1716
1714
1711
1710
1709
1705
1702
1697
1692
1690
1687
1685
1680
1677
1673
1674
1671
1667
1667
1665
1666
1665
1663
1662
1663
1662
1662
1661
1662
1662
1663
1663
1662
1661
1663
1666
1667
1666
1668
1666
1669
1673
1677
1679
1680
1680
1681
1681
1687
1687
1685
1684
1683
1683
1685
1686
1683
1683
1681
1679
1678
1668
1666
1666
1667
1667
1666
1663
1663
1665
1663
1661
1662
1661
1663
1663
1662
1661
1661
1656
1641
1627
1631
1650
1683
1723
1774
1809
1835
1848
1854
1857
1829
1780
1726
1687
1666
1657
1657
1656
1651
1649
1649
1649
1647
1647
1647
1649
1649
1649
1651
1653
1651
1651
1653
1653
1653
1655
1654
1654
1653
1657
1659
1660
1661
1663
1671
1669
1672
1674
1677
1679
1681
1684
1687
1693
1697
1699
1702
1706
1711
1714
1712
1710
1712
1712
1711
1711
1708
1708
1702
1697
1693
1687
1684
1685
1680
1679
1674
1673
1668
1667
1665
1665
1665
1663
1663
1663
1662
1665
1665
1663
1665
1667
1666
1663
1666
1666
1667
1661
1665
1666
1667
1667
1667
1671
1673
1668
1655
1666
1671
1675
1680
1680
1677
1675
1677
1680
1680
1679
1677
1677
1677
1674
1672
1666
1666
1663
1659
1661
1662
1659
1656
1656
1656
1661
1662
1656
1654
1657
1656
1659
1659
1650
1639
1629
1630
1637
1666
1708
1763
1800
1829
1847
1860
1865
1853
1808
1752
1710
1681
1668
1662
1660
1659
1649
1648
1649
1647
1647
1648
1645
1645
1642
1643
1645
1645
1648
1649
1647
1649
1651
1650
1649
1649
1653
1653
1654
1655
1656
1656
1656
1659
1665
1667
1669
1673
1675
1678
1681
1685
1690
1695
1698
1703
1702
1704
1705
1705
1704
1705
1706
1704
1701
1695
1692
1687
1685
1681
1678
1677
1673
1668
1667
1668
1668
1662
1659
1661
1662
1661
1665
1659
1663
1662
1662
1660
1659
1659
1661
1659
1657
1659
1656
1656
1659
1656
1657
1659
1661
1667
1669
1672
1674
1675
1679
1681
1680
1677
1675
1678
1674
1677
1674
1675
1674
1673
1673
1671
1665
1659
1661
1665
1659
1659
1659
1661
1661
1659
1656
1656
1659
1657
1656
1656
1656
1656
1651
1639
1627
1627
1642
1671
1714
1764
1802
1829
1843
1854
1862
1845
1800
1744
1701
1675
1662
1659
1656
1651
1649
1647
1644
1644
1645
1645
1647
1644
1644
1648
1647
1647
1648
1649
1650
1651
1651
1654
1656
1656
1655
1656
1657
1659
1662
1662
1666
1666
1668
1672
1675
1679
1685
1686
1692
1697
1701
1702
1708
1708
1706
1710
1711
1714
1712
1711
1710
1709
1706
1705
1699
1696
1695
1691
1687
1685
1680
1675
1673
1673
1669
1668
1669
1674
1672
1669
1671
1673
1672
1671
1673
1674
1671
1669
1668
1669
1672
1672
1671
1668
1671
1673
1674
1674
1680
1683
1683
1684
1686
1687
1692
1692
1693
1691
1691
1693
1678
1673
1683
1683
1684
1683
1681
1679
1675
1677
1677
1677
1674
1672
1672
1672
1673
1673
1672
1671
1674
1672
1672
1673
1672
1667
1657
1647
1637
1644
1665
1702
1751
1793
1823
1841
1856
1863
1860
1820
1766
1721
1691
1673
1668
1671
1669
1666
1666
1665
1662
1662
1661
1662
1662
1665
1666
1667
1666
1666
1668
1667
1668
1671
1669
1671
1671
1671
1672
1674
1673
1679
1678
1683
1684
1684
1687
1692
1697
1701
1703
1706
1709
1717
1718
1715
1722
1723
1728
1726
1726
1726
1726
1721
1718
1720
1716
1711
1710
1704
1703
1697
1697
1690
1685
1683
1683
1683
1681
1681
1680
1677
1675
1675
1675
1673
1674
1671
1673
1675
1674
1673
1674
1675
1675
1677
1675
1675
1675
1675
1677
1679
1681
1686
1687
1686
1687
1691
1697
1697
1691
1687
1687
1687
1690
1687
1687
1687
1690
1686
1684
1673
1673
1674
1672
1671
1668
1672
1672
1673
1669
1667
1669
1671
1668
1663
1662
1665
1669
1662
1648
1636
1641
1654
1681
1723
1771
1806
1831
1848
1857
1865
1849
1802
1751
1709
1686
1673
1666
1665
1660
1656
1656
1656
1655
1651
1651
1653
1656
1656
1656
1657
1655
1659
1656
1659
1660
1659
1656
1657
1660
1661
1659
1662
1663
1666
1667
1667
1671
1675
1680
1681
1683
1687
1691
1693
1702
1703
1703
1708
1710
1711
1715
1711
1714
1715
1714
1717
1711
1709
1709
1706
1702
1696
1692
1689
1687
1683
1683
1679
1678
1679
1679
1677
1673
1674
1673
1672
1669
1668
1671
1672
1671
1671
1672
1673
1673
1672
1669
1669
1669
1672
1669
1672
1671
1674
1679
1678
1680
1680
1684
1683
1687
1690
1687
1685
1685
1687
1691
1690
1687
1684
1684
1685
1684
1678
1671
1669
1669
1672
1671
1665
1666
1667
1666
1659
1663
1655
1679
1673
1669
1668
1666
1663
1656
1644
1636
1639
1656
1690
1733
1777
1815
1836
1848
1859
1865
1841
1793
1736
1698
1675
1668
1666
1665
1659
1655
1654
1653
1654
1655
1651
1656
1656
1656
1656
1654
1655
1655
1655
1656
1656
1659
1662
1662
1665
1663
1662
1663
1665
1668
1669
1671
1672
1674
1679
1683
1683
1685
1690
1695
1697
1703
1704
1704
1706
1711
1717
1721
1718
1715
1715
1716
1718
1714
1705
1704
1699
1697
1692
1687
1687
1687
1683
1680
1677
1675
1675
1675
1675
1674
1675
1677
1673
1673
1673
1674
1672
1668
1667
1667
1671
1671
1671
1668
1671
1671
1669
1671
1671
1675
1677
1678
1680
1684
1685
1687
1692
1692
1690
1687
1687
1691
1691
1690
1686
1683
1685
1685
1681
1675
1671
1671
1671
1669
1668
1671
1671
1671
1671
1669
1668
1669
1666
1668
1667
1668
1668
1663
1654
1642
1641
1647
1671
1706
1758
1796
1819
1841
1855
1865
1860
1815
1759
1715
1685
1673
1672
1671
1662
1662
1662
1662
1661
1661
1659
1657
1661
1661
1662
1661
1659
1665
1667
1666
1666
1663
1667
1668
1671
1667
1669
1672
1674
1673
1674
1675
1678
1684
1686
1686
1691
1695
1697
1706
1710
1711
1712
1715
1721
1722
1726
1722
1723
1727
1732
1723
1721
1718
1714
1712
1706
1703
1697
1698
1695
1690
1687
1686
1685
1684
1680
1679
1678
1677
1677
1678
1678
1678
1677
1674
1675
1675
1678
1679
1674
1678
1677
1675
1675
1678
1677
1678
1679
1681
1683
1685
1687
1691
1691
1693
1695
1697
1697
1693
1690
1691
1690
1692
1693
1691
1691
1691
1687
1687
1681
1679
1679
1674
1675
1673
1672
1674
1671
1672
1671
1673
1673
1675
1674
1671
1672
1671
1659
1615
1614
1619
1635
1659
1701
1754
1796
1821
1836
1855
1866
1866
1827
1777
1729
1697
1678
1673
1671
1666
1657
1657
1659
1659
1659
1657
1659
1666
1659
1660
1660
1659
1659
1660
1659
1661
1665
1663
1665
1665
1663
1666
1668
1669
1672
1668
1672
1675
1678
1680
1683
1685
1690
1690
1697
1699
1702
1708
1706
1706
1710
1712
1715
1717
1715
1717
1715
1714
1711
1706
1704
1699
1696
1695
1692
1690
1686
1683
1680
1680
1677
1673
1671
1674
1671
1671
1671
1671
1673
1669
1672
1671
1671
1671
1671
1668
1669
1669
1671
1671
1667
1666
1671
1672
1672
1673
1675
1681
1680
1683
1681
1687
1690
1692
1686
1683
1683
1681
1685
1687
1685
1678
1677
1679
1678
1674
1671
1663
1662
1663
1665
1662
1659
1660
1662
1665
1662
1659
1662
1662
1659
1660
1659
1656
1643
1635
1635
1644
1672
1709
1759
1799
1826
1844
1854
1860
1847
1805
1751
1705
1683
1668
1665
1659
1654
1649
1648
1649
1649
1649
1657
1656
1649
1644
1648
1649
1649
1649
1649
1653
1654
1657
1659
1657
1659
1657
1656
1659
1661
1662
1661
1666
1667
1667
1673
1673
1678
1679
1683
1687
1691
1693
1697
1702
1703
1702
1706
1710
1711
1704
1706
1709
1706
1703
1702
1697
1692
1687
1687
1687
1683
1680
1678
1675
1671
1672
1674
1673
1673
1671
1671
1671
1672
1671
1671
1669
1669
1669
1671
1672
1673
1671
1671
1669
1669
1668
1671
1671
1674
1675
1678
1679
1679
1683
1686
1690
1693
1695
1693
1687
1687
1689
1687
1687
1687
1685
1684
1684
1686
1679
1674
1674
1673
1672
1672
1674
1673
1674
1674
1674
1675
1675
1674
1673
1672
1671
1672
1671
1659
1644
1637
1647
1666
1701
1747
1792
1766
1805
1827
1845
1857
1823
1771
1723
1691
1675
1673
1674
1668
1666
1663
1665
1663
1661
1662
1662
1661
1662
1665
1666
1667
1667
1668
1672
1674
1673
1673
1674
1675
1677
1678
1678
1678
1683
1685
1685
1686
1687
1691
1695
1697
1701
1704
1709
1712
1717
1716
1728
1730
1726
1723
1726
1733
1736
1735
1732
1728
1728
1724
1720
1715
1706
1706
1704
1701
1698
1695
1691
1687
1685
1685
1686
1686
1683
1681
1680
1683
1684
1684
1684
1684
1681
1681
1680
1683
1681
1678
1680
1683
1681
1684
1683
1681
1685
1690
1693
1692
1693
1697
1699
1701
1701
1697
1697
1697
1696
1695
1695
1697
1698
1695
1691
1687
1681
1683
1680
1678
1675
1678
1678
1673
1672
1673
1674
1673
1673
1671
1672
1671
1671
1671
1666
1654
1641
1642
1653
1673
1704
1760
1800
1825
1841
1848
1859
1859
1814
1760
1714
1686
1674
1668
1666
1669
1659
1659
1656
1656
1655
1655
1656
1656
1656
1656
1657
1659
1659
1661
1659
1659
1660
1665
1661
1659
1661
1665
1667
1669
1669
1669
1671
1673
1673
1679
1679
1683
1685
1690
1697
1697
1702
1704
1706
1709
1709
1711
1710
1711
1711
1712
1711
1711
1708
1706
1701
1697
1692
1692
1685
1680
1679
1677
1675
1673
1671
1672
1671
1669
1668
1667
1669
1668
1666
1662
1666
1666
1666
1663
1666
1667
1666
1666
1663
1665
1666
1666
1667
1667
1668
1674
1678
1678
1679
1680
1683
1686
1684
1681
1678
1680
1679
1681
1680
1681
1679
1678
1675
1673
1667
1663
1662
1662
1662
1662
1662
1662
1661
1655
1655
1657
1655
1653
1656
1659
1656
1656
1649
1638
1629
1629
1642
1671
1709
1764
1805
1829
1843
1856
1867
1859
1812
1756
1710
1681
1668
1665
1657
1651
1647
1647
1645
1644
1643
1644
1617
1629
1632
1637
1642
1643
1643
1647
1648
1648
1648
1648
1649
1649
1648
1651
1651
1651
1653
1651
1655
1659
1660
1663
1666
1671
1673
1674
1675
1683
1690
1693
1697
1695
1697
1702
1704
1705
1706
1704
1702
1702
1701
1698
1695
1687
1687
1687
1685
1680
1675
1671
1671
1672
1667
1662
1662
1663
1665
1666
1666
1667
1665
1663
1662
1659
1659
1660
1659
1659
1660
1659
1659
1660
1661
1662
1663
1669
1668
1668
1671
1671
1674
1675
1680
1680
1673
1675
1675
1678
1679
1677
1675
1675
1673
1674
1671
1662
1656
1660
1661
1659
1655
1656
1659
1661
1660
1655
1659
1657
1656
1653
1651
1651
1651
1649
1639
1626
1621
1630
1659
1691
1741
1783
1818
1836
1851
1859
1854
1807
1753
1706
1675
1655
1654
1651
1651
1649
1642
1639
1639
1639
1643
1645
1647
1644
1644
1647
1647
1648
1645
1647
1651
1650
1649
1648
1647
1651
1651
1654
1656
1659
1662
1663
1662
1663
1665
1671
1675
1678
1684
1690
1695
1697
1698
1702
1706
1706
1706
1708
1709
1712
1710
1708
1706
1702
1701
1698
1692
1685
1680
1675
1673
1672
1666
1666
1662
1661
1660
1660
1659
1657
1655
1657
1656
1657
1656
1656
1655
1657
1656
1656
1655
1657
1659
1656
1659
1657
1659
1661
1659
1663
1665
1667
1669
1673
1674
1677
1675
1673
1671
1673
1672
1675
1671
1671
1669
1667
1666
1663
1659
1656
1655
1654
1651
1653
1651
1651
1649
1648
1647
1653
1649
1649
1644
1645
1647
1647
1642
1632
1615
1615
1631
1656
1695
1748
1794
1824
1838
1854
1866
1847
1796
1740
1695
1668
1655
1648
1645
1641
1638
1635
1632
1632
1632
1633
1631
1632
1632
1632
1635
1632
1635
1633
1632
1632
1632
1671
1665
1653
1649
1648
1644
1644
1642
1644
1645
1644
1647
1649
1655
1656
1659
1663
1668
1674
1675
1677
1679
1683
1684
1685
1685
1687
1687
1686
1687
1685
1678
1678
1674
1673
1668
1662
1660
1659
1656
1653
1649
1647
1647
1647
1647
1644
1644
1643
1644
1642
1639
1642
1641
1645
1642
1643
1641
1641
1639
1643
1641
1642
1642
1639
1645
1647
1647
1647
1651
1656
1656
1656
1657
1659
1659
1656
1654
1655
1656
1657
1654
1651
1649
1648
1644
1639
1637
1637
1636
1636
1633
1635
1635
1632
1631
1631
1630
1630
1631
1631
1629
1629
1625
1629
1618
1609
1606
1617
1644
1691
1752
1790
1814
1836
1850
1861
1833
1786
1728
1681
1660
1649
1638
1631
1625
1623
1620
1615
1614
1613
1615
1615
1617
1613
1613
1615
1618
1617
1615
1615
1615
1618
1620
1619
1618
1620
1620
1623
1627
1627
1627
1627
1631
1635
1637
1638
1643
1649
1655
1655
1657
1660
1665
1667
1671
1672
1673
1678
1677
1678
1678
1678
1673
1669
1668
1663
1661
1657
1655
1651
1649
1647
1644
1644
1638
1637
1636
1638
1637
1635
1635
1637
1637
1635
1632
1632
1630
1632
1636
1632
1631
1633
1635
1635
1633
1630
1632
1637
1642
1645
1645
1649
1653
1656
1656
1656
1653
1653
1655
1653
1651
1651
1651
1654
1651
1649
1649
1644
1641
1639
1642
1638
1635
1636
1637
1637
1635
1633
1633
1635
1637
1636
1636
1635
1635
1632
1625
1606
1606
1617
1637
1678
1733
1774
1808
1831
1848
1860
1841
1787
1730
1687
1659
1643
1639
1641
1636
1630
1625
1627
1629
1627
1625
1630
1627
1630
1629
1629
1632
1631
1632
1632
1636
1637
1638
1637
1636
1637
1641
1645
1645
1643
1645
1649
1651
1654
1642
1617
1633
1648
1657
1662
1671
1678
1683
1683
1685
1692
1699
1697
1697
1695
1695
1692
1690
1687
1685
1683
1680
1674
1671
1667
1662
1662
1655
1655
1655
1654
1651
1647
1647
1648
1648
1647
1645
1648
1647
1649
1649
1648
1649
1647
1649
1649
1649
1649
1649
1649
1655
1654
1656
1659
1662
1663
1665
1665
1668
1671
1668
1666
1666
1666
1668
1668
1666
1663
1665
1663
1663
1656
1649
1647
1649
1647
1649
1644
1644
1645
1645
1645
1644
1644
1645
1645
1644
1644
1643
1643
1633
1624
1608
1615
1632
1662
1704
1760
1802
1832
1847
1856
1857
1813
1758
1706
1671
1649
1638
1636
1636
1632
1630
1629
1624
1623
1624
1625
1623
1624
1624
1629
1627
1625
1625
1625
1629
1630
1625
1626
1629
1630
1630
1631
1632
1636
1637
1637
1637
1639
1645
1649
1649
1651
1656
1662
1666
1671
1671
1674
1678
1680
1685
1686
1683
1684
1685
1686
1683
1678
1675
1671
1667
1663
1659
1656
1654
1649
1645
1643
1639
1639
1637
1635
1631
1635
1632
1633
1632
1632
1630
1631
1631
1630
1630
1631
1630
1629
1627
1629
1631
1632
1631
1631
1627
1627
1633
1638
1638
1639
1641
1644
1644
1647
1647
1644
1641
1639
1639
1643
1644
1643
1639
1639
1637
1636
1629
1624
1623
1625
1624
1621
1618
1618
1620
1620
1618
1618
1618
1620
1621
1623
1619
1619
1613
1608
1593
1593
1605
1630
1671
1729
1778
1812
1833
1848
1857
1839
1789
1733
1681
1651
1637
1629
1623
1614
1613
1609
1609
1607
1606
1608
1611
1608
1606
1608
1606
1607
1608
1606
1608
1608
1609
1611
1612
1612
1612
1614
1617
1618
1617
1618
1623
1620
1624
1625
1630
1632
1636
1639
1644
1649
1651
1654
1659
1659
1661
1665
1666
1668
1668
1667
1679
1674
1671
1663
1656
1655
1649
1647
1642
1635
1635
1632
1633
1627
1624
1624
1624
1626
1624
1623
1623
1620
1623
1620
1620
1618
1619
1623
1621
1620
1618
1620
1615
1620
1624
1619
1618
1623
1627
1631
1636
1636
1635
1637
1641
1645
1642
1638
1639
1642
1642
1643
1639
1637
1637
1637
1635
1632
1626
1625
1624
1620
1620
1621
1624
1620
1620
1618
1619
1618
1618
1619
1619
1619
1617
1618
1611
1607
1598
1601
1611
1639
1685
1740
1787
1818
1838
1850
1860
1821
1771
1716
1666
1642
1631
1629
1624
1617
1615
1615
1614
1608
1609
1609
1612
1609
1609
1611
1612
1611
1613
1614
1613
1613
1613
1614
1613
1617
1619
1620
1621
1623
1623
1625
1627
1632
1636
1637
1637
1639
1649
1653
1653
1659
1665
1668
1669
1672
1674
1678
1680
1678
1675
1678
1680
1678
1673
1668
1665
1663
1659
1653
1647
1645
1647
1644
1642
1638
1632
1635
1636
1636
1632
1633
1636
1635
1633
1631
1632
1635
1635
1635
1633
1636
1632
1632
1632
1632
1635
1633
1637
1639
1642
1643
1643
1643
1647
1653
1657
1654
1650
1649
1651
1649
1649
1653
1651
1649
1645
1644
1643
1637
1635
1635
1633
1632
1635
1633
1635
1633
1635
1633
1632
1632
1631
1633
1631
1630
1629
1629
1620
1608
1606
1611
1636
1675
1733
1778
1809
1837
1850
1859
1839
1783
1728
1683
1651
1635
1632
1631
1629
1626
1624
1624
1624
1623
1624
1623
1623
1626
1625
1624
1624
1625
1629
1629
1631
1632
1632
1632
1633
1632
1637
1638
1642
1641
1642
1644
1645
1647
1651
1657
1663
1668
1671
1674
1679
1683
1687
1687
1687
1693
1695
1693
1695
1695
1695
1693
1692
1690
1685
1680
1675
1671
1666
1659
1654
1653
1643
1641
1639
1641
1643
1642
1641
1639
1642
1639
1641
1639
1638
1639
1637
1639
1637
1639
1641
1639
1639
1639
1641
1639
1639
1639
1642
1645
1644
1649
1649
1653
1656
1659
1660
1659
1656
1656
1655
1653
1655
1655
1655
1654
1654
1651
1645
1641
1638
1639
1638
1637
1638
1636
1635
1635
1636
1637
1632
1632
1633
1633
1631
1632
1630
1624
1613
1601
1606
1625
1659
1708
1762
1801
1829
1845
1857
1859
1814
1763
1708
1672
1650
1637
1635
1632
1625
1619
1615
1614
1614
1617
1613
1611
1613
1617
1615
1615
1614
1617
1615
1619
1617
1618
1618
1619
1621
1620
1620
1621
1625
1627
1631
1631
1632
1631
1635
1639
1641
1645
1649
1655
1659
1662
1663
1668
1672
1672
1672
1673
1671
1674
1673
1673
1669
1666
1662
1662
1660
1649
1645
1643
1641
1638
1636
1633
1633
1632
1631
1631
1631
1632
1629
1625
1627
1627
1627
1629
1625
1627
1625
1625
1627
1627
1625
1625
1624
1627
1629
1630
1627
1629
1632
1637
1639
1639
1642
1645
1647
1642
1639
1641
1643
1647
1647
1639
1637
1636
1637
1633
1629
1624
1624
1619
1620
1620
1618
1618
1621
1619
1615
1619
1619
1619
1615
1615
1615
1613
1609
1602
1594
1594
1605
1635
1680
1739
1787
1815
1837
1850
1857
1825
1776
1720
1677
1649
1636
1627
1620
1615
1612
1608
1608
1608
1611
1608
1601
1606
1605
1608
1611
1609
1613
1611
1612
1612
1612
1613
1614
1619
1615
1617
1615
1619
1617
1618
1620
1620
1624
1631
1632
1635
1638
1644
1649
1657
1661
1662
1665
1666
1668
1669
1669
1669
1671
1675
1678
1674
1668
1666
1665
1663
1659
1655
1649
1645
1644
1639
1637
1635
1637
1635
1635
1632
1631
1635
1636
1636
1653
1653
1649
1642
1638
1635
1635
1636
1635
1627
1629
1629
1627
1631
1631
1636
1637
1642
1639
1638
1644
1648
1650
1651
1647
1651
1649
1648
1649
1647
1644
1644
1644
1645
1639
1635
1631
1631
1632
1633
1632
1630
1629
1630
1630
1630
1630
1630
1631
1629
1627
1624
1627
1620
1613
1606
1608
1620
1647
1695
1752
1798
1825
1841
1853
1857
1818
1759
1704
1669
1651
1638
1627
1624
1620
1620
1620
1620
1620
1620
1620
1618
1620
1620
1620
1620
1619
1619
1621
1626
1625
1624
1624
1626
1624
1624
1625
1629
1631
1629
1631
1636
1639
1644
1645
1650
1653
1651
1663
1663
1668
1674
1680
1684
1681
1681
1683
1687
1687
1686
1680
1683
1684
1681
1678
1672
1666
1662
1661
1656
1651
1649
1645
1645
1643
1639
1637
1637
1636
1633
1631
1633
1632
1635
1632
1632
1636
1633
1633
1631
1631
1632
1638
1637
1636
1636
1635
1642
1644
1643
1644
1647
1653
1657
1656
1656
1653
1655
1654
1654
1655
1655
1656
1653
1650
1649
1645
1642
1639
1638
1636
1633
1633
1635
1633
1636
1632
1633
1633
1632
1631
1633
1630
1629
1630
1627
1619
1601
1600
1613
1635
1669
1720
1772
1808
1829
1841
1854
1838
1782
1724
1678
1649
1635
1631
1630
1624
1618
1618
1620
1618
1617
1613
1615
1615
1618
1619
1618
1618
1620
1624
1620
1621
1620
1620
1627
1625
1626
1625
1629
1630
1632
1635
1637
1642
1645
1645
1648
1654
1654
1659
1663
1667
1669
1673
1678
1681
1684
1685
1686
1686
1685
1685
1686
1685
1684
1679
1675
1669
1666
1659
1656
1660
1653
1647
1647
1647
1644
1639
1639
1641
1641
1639
1638
1637
1639
1638
1639
1637
1637
1638
1638
1639
1639
1639
1639
1641
1641
1639
1641
1644
1647
1647
1649
1653
1656
1659
1659
1656
1653
1675
1671
1666
1661
1657
1657
1654
1651
1648
1643
1641
1637
1636
1632
1631
1632
1638
1635
1632
1631
1633
1636
1637
1633
1631
1630
1631
1631
1623
1614
1603
1606
1624
1653
1692
1752
1793
1823
1844
1857
1868
1844
1792
1732
1686
1659
1647
1642
1637
1630
1625
1624
1625
1625
1621
1620
1624
1624
1624
1620
1624
1624
1625
1624
1620
1623
1623
1627
1625
1625
1624
1626
1631
1630
1630
1630
1633
1637
1638
1639
1642
1648
1653
1656
1659
1661
1666
1672
1672
1675
1678
1680
1678
1680
1683
1683
1684
1681
1675
1674
1671
1663
1660
1657
1656
1654
1651
1645
1642
1641
1642
1641
1637
1639
1641
1639
1637
1636
1635
1639
1639
1639
1635
1637
1637
1637
1637
1637
1632
1635
1635
1638
1642
1642
1645
1645
1649
1650
1656
1656
1655
1649
1654
1653
1653
1655
1660
1656
1654
1653
1649
1645
1642
1642
1638
1636
1637
1637
1637
1635
1636
1635
1637
1635
1633
1633
1633
1635
1636
1633
1627
1620
1613
1614
1625
1661
1714
1768
1802
1827
1843
1855
1851
1808
1752
1701
1665
1647
1642
1637
1633
1630
1627
1629
1624
1620
1620
1620
1621
1625
1624
1623
1625
1626
1625
1625
1629
1630
1627
1629
1625
1629
1632
1633
1635
1635
1639
1643
1645
1645
1649
1650
1656
1657
1665
1667
1672
1677
1680
1683
1686
1690
1693
1692
1695
1695
1696
1696
1692
1690
1687
1685
1677
1673
1668
1663
1659
1655
1656
1653
1651
1649
1650
1649
1644
1647
1649
1648
1647
1645
1645
1644
1645
1648
1647
1644
1642
1647
1647
1648
1647
1645
1651
1653
1654
1656
1659
1661
1662
1663
1666
1672
1667
1665
1666
1662
1663
1663
1663
1663
1661
1671
1667
1659
1654
1651
1649
1644
1645
1645
1645
1644
1642
1643
1643
1643
1643
1641
1642
1641
1641
1637
1627
1620
1614
1618
1637
1674
1724
1775
1809
1833
1849
1857
1850
1802
1748
1697
1667
1648
1642
1644
1641
1635
1632
1630
1627
1630
1631
1630
1629
1631
1630
1631
1631
1632
1632
1632
1632
1635
1636
1633
1635
1636
1637
1639
1638
1639
1642
1645
1647
1648
1649
1653
1656
1662
1666
1669
1675
1680
1680
1684
1685
1691
1690
1691
1693
1691
1693
1692
1687
1684
1683
1680
1675
1672
1663
1660
1659
1656
1653
1649
1649
1649
1647
1642
1642
1641
1644
1645
1645
1643
1639
1642
1643
1642
1637
1637
1637
1639
1638
1637
1637
1639
1642
1641
1644
1647
1649
1655
1655
1654
1656
1659
1659
1657
1654
1655
1651
1655
1656
1655
1654
1648
1649
1650
1645
1638
1636
1637
1635
1636
1635
1636
1637
1636
1636
1636
1636
1632
1632
1632
1632
1633
1632
1620
1613
1606
1611
1633
1668
1716
1772
1809
1833
1844
1856
1851
1808
1754
1703
1667
1647
1641
1637
1632
1635
1629
1623
1623
1620
1624
1623
1620
1620
1623
1623
1623
1623
1625
1623
1627
1625
1625
1625
1625
1625
1625
1631
1632
1630
1633
1635
1639
1639
1643
1647
1651
1651
1656
1661
1667
1671
1675
1675
1680
1680
1685
1685
1686
1687
1687
1687
1687
1685
1681
1680
1677
1671
1668
1665
1661
1661
1659
1655
1651
1649
1649
1649
1649
1647
1643
1647
1648
1648
1645
1648
1647
1647
1644
1645
1645
1645
1644
1642
1644
1642
1644
1645
1649
1653
1659
1659
1659
1665
1671
1671
1666
1665
1663
1663
1663
1665
1665
1663
1661
1661
1662
1660
1655
1653
1648
1649
1649
1649
1647
1647
1645
1647
1644
1644
1645
1647
1648
1647
1644
1642
1624
1615
1611
1619
1638
1669
1714
1769
1809
1833
1848
1856
1860
1813
1760
1711
1678
1657
1647
1644
1644
1639
1641
1639
1639
1638
1639
1637
1636
1637
1637
1639
1639
1637
1637
1637
1639
1644
1644
1645
1649
1647
1649
1649
1649
1653
1653
1654
1659
1661
1663
1666
1668
1674
1678
1684
1687
1692
1696
1699
1699
1703
1704
1705
1705
1705
1706
1706
1704
1703
1701
1695
1691
1687
1684
1680
1675
1671
1666
1666
1663
1663
1661
1661
1659
1659
1659
1656
1655
1653
1654
1651
1653
1656
1654
1654
1655
1655
1656
1654
1654
1656
1656
1661
1665
1663
1667
1668
1672
1674
1675
1678
1677
1673
1673
1673
1672
1671
1671
1671
1669
1668
1668
1663
1654
1655
1654
1655
1655
1654
1651
1648
1649
1649
1649
1647
1653
1651
1649
1649
1649
1647
1639
1629
1620
1624
1644
1671
1720
1771
1807
1829
1844
1856
1859
1814
1762
1708
1673
1655
1648
1645
1644
1641
1642
1641
1639
1639
1637
1636
1633
1636
1638
1638
1637
1635
1639
1639
1639
1639
1638
1641
1638
1643
1644
1644
1644
1649
1651
1651
1653
1656
1657
1660
1662
1666
1669
1674
1679
1684
1685
1687
1691
1697
1696
1697
1697
1699
1701
1699
1697
1697
1693
1689
1685
1680
1678
1674
1668
1666
1663
1660
1659
1656
1654
1654
1655
1651
1649
1649
1647
1648
1649
1648
1647
1647
1648
1645
1644
1645
1647
1649
1647
1647
1648
1649
1655
1655
1659
1660
1663
1662
1667
1669
1668
1666
1663
1663
1665
1665
1661
1663
1659
1659
1661
1654
1647
1648
1648
1645
1644
1645
1643
1644
1642
1642
1643
1642
1641
1643
1643
1644
1643
1639
1636
1625
1618
1632
1639
1662
1706
1759
1802
1830
1848
1856
1859
1809
1769
1722
1683
1662
1649
1642
1641
1638
1632
1629
1630
1629
1627
1629
1629
1627
1632
1631
1631
1630
1629
1629
1631
1635
1632
1633
1633
1635
1637
1641
1639
1639
1643
1644
1645
1647
1647
1649
1651
1655
1660
1666
1667
1672
1675
1680
1683
1685
1685
1689
1692
1692
1695
1695
1695
1691
1691
1687
1683
1679
1674
1672
1667
1666
1661
1656
1657
1654
1654
1651
1653
1650
1651
1651
1648
1647
1647
1649
1649
1648
1649
1647
1647
1648
1645
1649
1647
1647
1647
1647
1650
1651
1655
1659
1660
1661
1663
1667
1663
1666
1665
1661
1660
1660
1662
1662
1659
1659
1659
1656
1647
1647
1644
1645
1643
1642
1643
1645
1645
1642
1642
1642
1643
1642
1641
1637
1637
1638
1635
1625
1614
1613
1627
1653
1693
1747
1790
1818
1833
1845
1855
1838
1794
1740
1695
1668
1653
1647
1644
1642
1638
1637
1636
1631
1629
1625
1630
1630
1633
1632
1632
1636
1637
1638
1637
1635
1632
1638
1639
1643
1642
1643
1655
1647
1647
1647
1649
1651
1655
1660
1661
1661
1666
1668
1673
1675
1679
1683
1690
1695
1697
1701
1701
1699
1699
1702
1697
1698
1697
1687
1685
1681
1679
1673
1666
1665
1666
1661
1659
1659
1659
1656
1656
1656
1656
1656
1655
1655
1655
1656
1656
1655
1653
1656
1656
1655
1653
1650
1654
1659
1656
1656
1660
1666
1667
1666
1667
1669
1677
1679
1678
1673
1673
1673
1674
1675
1677
1675
1674
1673
1673
1668
1663
1659
1659
1661
1661
1659
1656
1659
1659
1659
1659
1655
1659
1656
1659
1659
1659
1654
1654
1649
1635
1630
1632
1655
1687
1735
1783
1814
1837
1853
1863
1861
1818
1762
1714
1687
1668
1657
1659
1655
1654
1649
1648
1649
1649
1645
1667
1662
1662
1659
1659
1656
1655
1654
1656
1656
1657
1656
1657
1659
1659
1659
1662
1665
1666
1667
1668
1672
1673
1678
1678
1679
1685
1690
1695
1699
1703
1706
1711
1710
1714
1718
1717
1716
1717
1718
1720
1718
1711
1705
1704
1699
1695
1690
1687
1684
1681
1679
1673
1672
1671
1672
1669
1668
1666
1665
1667
1668
1668
1667
1667
1666
1665
1665
1665
1665
1665
1665
1662
1665
1666
1667
1673
1673
1675
1678
1678
1680
1683
1684
1685
1683
1680
1678
1681
1683
1685
1684
1679
1677
1675
1673
1669
1666
1665
1661
1662
1661
1662
1662
1662
1660
1657
1659
1659
1655
1659
1656
1657
1656
1651
1642
1631
1630
1637
1661
1701
1756
1795
1819
1837
1853
1865
1857
1807
1751
1704
1675
1662
1656
1653
1649
1648
1644
1642
1643
1643
1647
1644
1645
1643
1641
1643
1645
1644
1644
1647
1649
1649
1649
1649
1649
1650
1651
1654
1656
1656
1659
1659
1662
1663
1665
1671
1671
1673
1679
1685
1685
1690
1696
1699
1699
1702
1702
1701
1706
1706
1705
1706
1702
1699
1698
1695
1693
1687
1681
1677
1673
1669
1671
1667
1666
1663
1662
1661
1661
1657
1660
1659
1659
1657
1656
1659
1656
1657
1659
1657
1656
1654
1656
1656
1654
1657
1659
1662
1666
1668
1669
1671
1672
1674
1678
1677
1677
1675
1672
1674
1673
1673
1671
1668
1668
1667
1668
1663
1657
1659
1656
1656
1656
1656
1660
1654
1655
1651
1651
1654
1655
1651
1651
1649
1650
1648
1637
1627
1624
1637
1666
1711
1762
1800
1824
1843
1859
1867
1842
1802
1747
1702
1675
1662
1659
1657
1650
1647
1645
1643
1642
1643
1642
1641
1643
1643
1645
1645
1647
1647
1645
1647
1648
1649
1650
1649
1649
1649
1651
1642
1629
1637
1645
1653
1656
1660
1665
1666
1669
1674
1678
1681
1683
1687
1693
1695
1698
1699
1703
1705
1708
1708
1708
1706
1703
1702
1697
1692
1690
1685
1684
1678
1677
1675
1673
1669
1668
1668
1663
1663
1663
1668
1665
1667
1666
1666
1665
1662
1662
1662
1662
1662
1662
1662
1662
1662
1663
1666
1668
1667
1668
1671
1674
1675
1675
1678
1684
1683
1680
1679
1680
1681
1683
1679
1675
1675
1677
1677
1669
1666
1663
1666
1665
1662
1661
1659
1659
1659
1661
1661
1659
1659
1659
1659
1659
1661
1656
1656
1642
1629
1631
1649
1678
1722
1766
1807
1829
1848
1859
1863
1831
1780
1721
1685
1675
1661
1657
1654
1649
1649
1649
1647
1645
1644
1644
1642
1645
1644
1647
1649
1649
1651
1656
1651
1649
1653
1649
1654
1654
1657
1657
1659
1657
1662
1661
1665
1666
1672
1672
1675
1683
1685
1691
1695
1697
1703
1709
1711
1712
1710
1715
1716
1714
1715
1714
1714
1714
1709
1702
1701
1697
1693
1690
1684
1675
1675
1678
1678
1673
1669
1668
1671
1668
1663
1663
1666
1665
1663
1663
1661
1665
1663
1663
1662
1665
1663
1662
1665
1662
1663
1666
1669
1673
1673
1675
1678
1679
1685
1685
1685
1683
1683
1680
1681
1683
1681
1680
1681
1680
1678
1673
1668
1666
1663
1665
1663
1666
1665
1666
1661
1662
1661
1663
1662
1659
1660
1660
1660
1659
1654
1641
1630
1636
1653
1683
1718
1771
1806
1831
1843
1856
1863
1837
1788
1734
1695
1669
1665
1661
1659
1653
1649
1649
1651
1650
1649
1649
1649
1649
1651
1655
1653
1651
1651
1649
1654
1656
1655
1649
1657
1657
1659
1656
1659
1661
1662
1663
1668
1671
1673
1673
1677
1683
1687
1690
1696
1695
1709
1697
1706
1710
1710
1712
1714
1715
1714
1712
1711
1709
1705
1701
1697
1693
1687
1685
1680
1675
1671
1671
1667
1665
1665
1666
1663
1660
1659
1661
1660
1659
1657
1659
1657
1660
1659
1657
1659
1660
1659
1659
1661
1659
1659
1659
1666
1668
1668
1669
1669
1675
1678
1681
1683
1677
1675
1678
1673
1675
1674
1674
1674
1671
1668
1667
1662
1657
1659
1656
1656
1651
1649
1651
1654
1649
1649
1649
1653
1653
1649
1648
1648
1651
1645
1635
1620
1619
1630
1653
1687
1738
1789
1820
1838
1850
1860
1856
1818
1762
1709
1680
1662
1651
1654
1644
1641
1641
1637
1635
1635
1637
1637
1633
1636
1636
1637
1637
1636
1636
1637
1637
1637
1636
1639
1639
1644
1643
1643
1642
1644
1643
1645
1649
1649
1651
1653
1655
1659
1665
1671
1674
1677
1679
1686
1687
1686
1690
1691
1692
1695
1696
1693
1693
1690
1685
1684
1678
1675
1672
1669
1668
1665
1660
1661
1659
1657
1656
1653
1653
1654
1653
1650
1651
1653
1654
1649
1650
1649
1649
1649
1648
1649
1648
1649
1647
1649
1651
1655
1659
1656
1660
1659
1665
1665
1665
1668
1669
1668
1667
1666
1667
1667
1667
1663
1661
1662
1660
1656
1651
1649
1651
1651
1649
1649
1649
1649
1649
1647
1649
1649
1649
1649
1644
1642
1645
1648
1642
1629
1619
1624
1641
1669
1714
1768
1802
1827
1841
1855
1863
1829
1782
1726
1687
1668
1655
1653
1649
1644
1641
1638
1636
1637
1641
1642
1643
1643
1641
1643
1641
1642
1642
1644
1644
1643
1647
1649
1649
1649
1649
1655
1653
1654
1655
1654
1655
1660
1663
1668
1669
1678
1680
1683
1685
1687
1693
1697
1704
1705
1705
1711
1711
1714
1711
1710
1706
1704
1701
1697
1695
1692
1686
1681
1679
1675
1673
1671
1666
1687
1684
1677
1672
1662
1666
1665
1662
1661
1661
1661
1661
1659
1661
1662
1662
1659
1659
1657
1656
1660
1659
1666
1666
1668
1671
1674
1675
1678
1679
1681
1681
1681
1680
1678
1675
1681
1683
1678
1675
1673
1673
1673
1667
1663
1665
1662
1665
1665
1663
1662
1665
1666
1663
1662
1663
1662
1659
1659
1657
1656
1649
1635
1632
1639
1665
1693
1738
1788
1819
1841
1853
1860
1859
1820
1764
1711
1683
1666
1656
1659
1654
1653
1653
1651
1650
1648
1647
1648
1647
1647
1649
1649
1651
1649
1650
1651
1655
1653
1654
1655
1659
1657
1656
1659
1662
1665
1666
1662
1666
1668
1672
1675
1678
1681
1685
1692
1697
1699
1703
1703
1706
1709
1715
1715
1712
1710
1711
1712
1706
1705
1701
1697
1692
1687
1684
1680
1674
1672
1667
1663
1665
1662
1662
1660
1661
1659
1656
1656
1659
1659
1657
1656
1656
1657
1659
1657
1656
1654
1656
1657
1656
1659
1656
1659
1662
1663
1666
1668
1671
1671
1674
1673
1673
1674
1673
1674
1671
1671
1672
1671
1666
1665
1661
1659
1656
1653
1651
1653
1654
1653
1649
1648
1648
1649
1647
1644
1644
1644
1644
1645
1645
1641
1636
1626
1618
1623
1633
1668
1718
1769
1805
1829
1847
1855
1861
1832
1780
1722
1681
1665
1654
1649
1645
1638
1637
1635
1631
1631
1632
1633
1632
1632
1631
1633
1633
1633
1633
1635
1636
1639
1639
1637
1637
1638
1637
1639
1641
1641
1643
1648
1648
1649
1649
1653
1656
1656
1661
1667
1671
1675
1679
1683
1683
1683
1691
1693
1693
1691
1695
1693
1691
1690
1687
1685
1681
1677
1675
1673
1668
1661
1659
1659
1655
1656
1655
1653
1650
1649
1649
1651
1649
1647
1648
1648
1649
1675
1667
1661
1657
1656
1651
1649
1647
1648
1648
1648
1649
1651
1655
1656
1659
1659
1661
1662
1666
1665
1662
1662
1660
1659
1665
1662
1660
1656
1655
1656
1653
1649
1647
1645
1644
1642
1642
1642
1642
1643
1642
1643
1641
1642
1643
1642
1641
1637
1637
1631
1625
1617
1615
1636
1675
1723
1772
1808
1835
1850
1861
1860
1824
1772
1721
1685
1663
1653
1649
1644
1636
1630
1625
1626
1626
1627
1629
1627
1629
1630
1631
1631
1631
1627
1627
1629
1632
1636
1636
1635
1636
1635
1633
1633
1633
1637
1639
1642
1643
1647
1650
1653
1654
1656
1662
1667
1671
1674
1675
1678
1683
1684
1685
1687
1687
1690
1689
1686
1683
1683
1678
1675
1668
1667
1665
1659
1656
1655
1649
1649
1649
1649
1645
1648
1643
1645
1644
1643
1641
1639
1642
1641
1639
1641
1639
1643
1639
1641
1639
1641
1643
1642
1644
1649
1649
1649
1651
1656
1656
1659
1665
1666
1660
1656
1659
1659
1660
1659
1659
1659
1657
1659
1656
1653
1649
1645
1645
1645
1644
1645
1645
1642
1641
1642
1642
1643
1641
1639
1642
1639
1641
1633
1625
1611
1613
1626
1651
1689
1747
1789
1819
1835
1849
1860
1831
1782
1726
1684
1659
1649
1644
1639
1631
1631
1631
1630
1625
1629
1630
1627
1632
1633
1635
1632
1633
1633
1636
1632
1632
1633
1635
1636
1638
1639
1641
1639
1641
1643
1643
1647
1649
1653
1655
1659
1661
1662
1668
1673
1675
1680
1683
1685
1687
1691
1690
1691
1695
1697
1697
1692
1687
1687
1686
1681
1675
1671
1668
1666
1666
1659
1657
1654
1656
1654
1651
1651
1653
1653
1651
1649
1647
1647
1649
1649
1649
1648
1647
1649
1648
1648
1648
1647
1647
1649
1651
1653
1651
1686
1681
1680
1678
1673
1671
1668
1666
1667
1663
1661
1666
1665
1662
1659
1659
1659
1654
1647
1643
1645
1644
1645
1642
1644
1644
1643
1639
1637
1637
1637
1639
1641
1644
1641
1639
1632
1620
1613
1615
1631
1660
1704
1762
1801
1831
1845
1857
1865
1841
1790
1729
1683
1659
1647
1642
1643
1643
1639
1633
1629
1637
1651
1651
1636
1627
1629
1651
1648
1627
1614
1619
1623
1621
1627
1627
1629
1627
1633
1642
1649
1644
1630
1629
1637
1638
1636
1647
1654
1667
1662
1649
1649
1655
1668
1680
1702
1698
1678
1659
1666
1668
1669
1671
1675
1673
1674
1669
1667
1666
1662
1656
1651
1656
1656
1653
1651
1645
1635
1626
1620
1625
1627
1625
1625
1625
1627
1631
1630
1629
1636
1637
1636
1632
1627
1626
1630
1631
1635
1637
1639
1643
1644
1647
1649
1655
1651
1649
1647
1649
1649
1648
1645
1649
1649
1649
1647
1642
1632
1637
1638
1638
1635
1637
1636
1636
1632
1633
1632
1629
1631
1633
1631
1629
1623
1624
1625
1618
1611
1609
1621
1653
1695
1752
1796
1824
1841
1853
1855
1813
1758
1703
1666
1643
1635
1632
1631
1630
1627
1626
1627
1625
1626
1625
1625
1625
1623
1624
1627
1629
1627
1630
1631
1635
1636
1633
1631
1635
1637
1642
1641
1641
1642
1648
1648
1651
1655
1655
1659
1667
1674
1679
1681
1686
1690
1691
1693
1698
1697
1696
1701
1703
1703
1703
1697
1693
1692
1690
1690
1685
1678
1671
1671
1667
1662
1656
1654
1656
1657
1657
1655
1653
1653
1651
1649
1649
1651
1654
1653
1651
1651
1651
1654
1654
1654
1654
1657
1662
1666
1665
1669
1672
1673
1675
1678
1679
1677
1675
1675
1674
1675
1679
1678
1674
1672
1669
1666
1661
1657
1656
1659
1656
1659
1656
1656
1655
1655
1653
1673
1666
1663
1659
1659
1659
1654
1650
1637
1625
1627
1645
1677
1718
1770
1803
1829
1847
1860
1866
1827
1770
1714
1680
1660
1649
1648
1647
1647
1647
1644
1642
1643
1644
1647
1647
1644
1645
1647
1645
1648
1647
1647
1648
1647
1649
1651
1651
1653
1655
1655
1657
1659
1660
1659
1662
1667
1669
1671
1673
1678
1684
1687
1690
1695
1697
1703
1709
1711
1712
1716
1714
1716
1714
1709
1706
1705
1701
1697
1693
1685
1679
1679
1675
1671
1668
1662
1661
1659
1656
1655
1653
1654
1654
1655
1655
1653
1654
1654
1654
1653
1649
1649
1649
1649
1648
1649
1653
1659
1660
1660
1660
1662
1665
1667
1667
1668
1665
1663
1665
1666
1667
1666
1665
1661
1661
1659
1659
1653
1649
1647
1643
1642
1642
1642
1641
1639
1637
1641
1642
1639
1639
1639
1637
1636
1636
1632
1619
1609
1612
1626
1651
1696
1757
1799
1823
1836
1850
1857
1841
1795
1736
1690
1661
1649
1644
1637
1631
1627
1625
1623
1624
1625
1623
1624
1624
1624
1625
1623
1624
1625
1625
1626
1624
1625
1625
1625
1627
1630
1627
1626
1627
1632
1633
1635
1636
1636
1639
1645
1651
1649
1654
1657
1662
1663
1666
1671
1673
1675
1679
1678
1680
1683
1683
1683
1680
1672
1673
1669
1666
1662
1659
1655
1651
1649
1647
1645
1644
1642
1643
1643
1639
1641
1639
1639
1639
1641
1641
1641
1639
1641
1641
1638
1638
1637
1635
1636
1637
1642
1647
1649
1649
1648
1650
1654
1656
1653
1651
1649
1651
1651
1654
1653
1649
1649
1648
1647
1648
1641
1637
1633
1632
1635
1633
1633
1632
1630
1627
1627
1629
1629
1631
1632
1627
1627
1629
1623
1609
1601
1606
1627
1654
1687
1714
1772
1812
1838
1853
1853
1819
1769
1716
1675
1659
1639
1637
1632
1627
1621
1615
1617
1615
1620
1618
1614
1618
1619
1621
1620
1619
1618
1618
1620
1624
1625
1621
1625
1625
1625
1626
1626
1627
1629
1629
1629
1631
1635
1638
1642
1645
1649
1656
1659
1662
1666
1668
1674
1678
1684
1684
1685
1685
1683
1683
1685
1683
1678
1674
1672
1668
1659
1656
1655
1649
1647
1644
1645
1645
1644
1643
1644
1644
1639
1639
1639
1639
1638
1637
1636
1637
1638
1637
1636
1637
1633
1635
1635
1639
1642
1643
1645
1649
1653
1653
1655
1654
1655
1650
1651
1654
1656
1654
1656
1655
1654
1651
1649
1647
1639
1635
1636
1637
1637
1635
1636
1636
1636
1635
1635
1632
1633
1633
1632
1633
1633
1632
1630
1611
1599
1605
1618
1648
1696
1751
1788
1817
1835
1850
1857
1820
1768
1710
1673
1649
1637
1638
1633
1625
1624
1624
1623
1623
1624
1624
1624
1624
1619
1623
1627
1625
1627
1625
1627
1625
1629
1625
1624
1629
1630
1635
1637
1636
1637
1636
1639
1644
1644
1647
1653
1659
1662
1663
1663
1669
1677
1684
1683
1685
1687
1687
1693
1692
1692
1689
1687
1685
1685
1680
1677
1671
1663
1659
1655
1654
1651
1647
1644
1643
1642
1641
1641
1641
1639
1641
1642
1642
1637
1639
1641
1642
1639
1637
1637
1637
1639
1641
1639
1639
1639
1642
1649
1651
1654
1656
1659
1661
1661
1660
1656
1656
1656
1659
1659
1659
1659
1656
1654
1654
1648
1641
1639
1637
1639
1639
1638
1637
1637
1637
1639
1637
1632
1635
1633
1635
1637
1637
1636
1627
1614
1606
1613
1633
1663
1711
1764
1802
1831
1847
1857
1862
1814
1756
1706
1666
1647
1641
1637
1633
1629
1623
1626
1625
1624
1618
1618
1625
1660
1644
1637
1633
1632
1631
1629
1625
1629
1629
1627
1627
1629
1629
1627
1629
1631
1627
1632
1636
1638
1641
1641
1643
1648
1654
1657
1659
1661
1665
1669
1674
1675
1675
1678
1683
1681
1680
1679
1678
1673
1674
1671
1666
1659
1655
1651
1651
1648
1644
1642
1641
1639
1639
1633
1631
1630
1629
1629
1631
1631
1632
1629
1630
1630
1627
1627
1625
1625
1629
1629
1631
1631
1629
1630
1633
1635
1641
1641
1643
1648
1649
1648
1645
1643
1645
1642
1642
1642
1644
1639
1637
1639
1636
1633
1630
1624
1624
1620
1620
1619
1618
1620
1617
1615
1618
1613
1615
1619
1619
1615
1615
1613
1605
1598
1593
1601
1624
1659
1712
1766
1801
1829
1848
1857
1856
1812
1757
1704
1667
1642
1629
1620
1620
1613
1606
1606
1601
1603
1601
1600
1600
1599
1600
1606
1605
1599
1601
1602
1603
1603
1606
1606
1606
1607
1608
1608
1606
1608
1609
1611
1614
1618
1617
1619
1620
1626
1629
1631
1638
1641
1645
1647
1649
1653
1654
1657
1660
1659
1656
1657
1659
1655
1651
1649
1649
1644
1642
1638
1633
1630
1627
1625
1623
1620
1615
1619
1619
1618
1615
1615
1609
1617
1615
1614
1619
1613
1615
1615
1613
1611
1613
1617
1615
1613
1614
1615
1621
1623
1625
1625
1629
1630
1633
1635
1636
1632
1633
1636
1635
1636
1636
1633
1632
1635
1633
1630
1621
1620
1618
1620
1619
1618
1614
1617
1615
1617
1615
1611
1613
1615
1618
1618
1613
1613
1611
1603
1590
1594
1611
1639
1684
1742
1787
1819
1841
1856
1859
1815
1771
1715
1673
1644
1629
1624
1624
1619
1615
1613
1613
1611
1611
1609
1611
1609
1611
1611
1611
1611
1611
1617
1615
1614
1614
1618
1615
1615
1621
1642
1635
1635
1630
1629
1632
1633
1633
1635
1637
1638
1642
1649
1651
1655
1657
1661
1667
1669
1669
1673
1673
1675
1672
1672
1672
1674
1673
1668
1661
1659
1659
1654
1649
1643
1642
1639
1637
1632
1633
1633
1633
1636
1636
1635
1632
1631
1631
1632
1632
1635
1632
1629
1629
1629
1627
1629
1632
1630
1636
1636
1636
1637
1637
1642
1642
1648
1649
1654
1654
1651
1648
1650
1649
1653
1654
1651
1648
1647
1643
1642
1639
1639
1639
1636
1633
1632
1635
1633
1627
1629
1629
1631
1627
1629
1629
1632
1631
1630
1620
1617
1609
1609
1614
1637
1675
1734
1782
1808
1833
1850
1860
1826
1768
1706
1672
1648
1637
1631
1630
1626
1625
1625
1619
1618
1620
1620
1619
1618
1620
1625
1621
1620
1620
1625
1625
1626
1625
1625
1629
1629
1629
1631
1631
1633
1636
1638
1641
1643
1647
1651
1653
1655
1659
1663
1668
1672
1675
1680
1680
1683
1685
1686
1685
1687
1687
1687
1683
1683
1680
1677
1673
1672
1665
1659
1656
1651
1649
1644
1645
1642
1639
1639
1639
1637
1636
1635
1637
1635
1635
1636
1635
1633
1633
1633
1635
1637
1637
1636
1636
1636
1638
1638
1641
1643
1645
1647
1649
1649
1649
1653
1656
1655
1651
1653
1651
1651
1655
1655
1653
1651
1651
1648
1643
1637
1635
1636
1635
1632
1632
1633
1632
1633
1632
1633
1632
1635
1629
1629
1627
1627
1624
1618
1608
1607
1611
1631
1666
1717
1771
1806
1829
1845
1857
1850
1800
1748
1693
1665
1644
1637
1633
1629
1623
1620
1613
1617
1615
1619
1619
1618
1618
1618
1615
1617
1615
1618
1620
1620
1619
1620
1624
1624
1620
1623
1629
1625
1625
1627
1631
1632
1636
1638
1639
1642
1645
1649
1651
1659
1662
1666
1669
1695
1687
1685
1680
1681
1679
1680
1680
1675
1675
1671
1666
1662
1660
1654
1655
1649
1648
1644
1643
1638
1637
1638
1636
1635
1632
1633
1632
1632
1631
1631
1627
1629
1630
1632
1629
1630
1627
1631
1632
1631
1632
1632
1630
1637
1637
1637
1639
1639
1644
1649
1649
1648
1645
1644
1645
1647
1647
1647
1647
1644
1642
1639
1632
1629
1625
1627
1625
1624
1625
1624
1623
1625
1623
1620
1619
1619
1618
1620
1620
1618
1614
1611
1601
1598
1602
1625
1665
1721
1769
1802
1827
1841
1855
1848
1801
1747
1699
1667
1643
1631
1625
1620
1615
1611
1606
1609
1606
1606
1609
1608
1609
1609
1606
1613
1611
1606
1613
1606
1608
1609
1608
1607
1611
1609
1611
1617
1614
1615
1615
1619
1620
1620
1621
1627
1631
1635
1638
1639
1643
1648
1651
1656
1659
1655
1659
1660
1661
1663
1661
1661
1661
1656
1653
1649
1647
1638
1643
1639
1637
1635
1630
1630
1627
1627
1625
1626
1623
1620
1621
1624
1623
1625
1623
1624
1625
1621
1620
1620
1619
1620
1620
1623
1620
1620
1624
1627
1630
1633
1633
1635
1637
1642
1644
1641
1637
1635
1637
1638
1637
1637
1638
1637
1637
1633
1625
1620
1620
1621
1624
1618
1618
1618
1621
1620
1620
1619
1618
1619
1619
1618
1615
1613
1615
1612
1601
1599
1603
1620
1653
1708
1766
1801
1824
1841
1850
1844
1794
1745
1691
1654
1639
1630
1625
1620
1615
1613
1614
1614
1611
1611
1613
1611
1613
1613
1614
1611
1613
1614
1615
1615
1615
1617
1618
1619
1619
1618
1619
1620
1624
1627
1629
1627
1629
1632
1636
1639
1643
1649
1655
1659
1660
1665
1671
1669
1673
1675
1675
1677
1675
1678
1679
1677
1677
1671
1668
1666
1649
1639
1645
1644
1645
1645
1639
1638
1636
1637
1637
1636
1635
1632
1632
1636
1638
1637
1637
1632
1632
1635
1633
1636
1632
1632
1632
1636
1635
1639
1639
1641
1642
1643
1649
1653
1656
1659
1656
1656
1654
1654
1651
1656
1655
1655
1655
1651
1650
1647
1645
1643
1641
1639
1637
1639
1638
1637
1637
1637
1636
1641
1639
1638
1636
1635
1636
1636
1630
1617
1601
1605
1619
1649
1693
1750
1793
1823
1841
1856
1860
1817
1760
1705
1666
1647
1636
1635
1632
1630
1629
1627
1625
1627
1625
1624
1625
1626
1627
1629
1627
1625
1625
1627
1629
1631
1632
1630
1630
1632
1636
1635
1635
1635
1637
1641
1641
1643
1645
1649
1654
1655
1661
1663
1667
1672
1673
1677
1680
1681
1684
1683
1685
1687
1687
1685
1681
1681
1679
1677
1671
1666
1660
1657
1656
1654
1649
1648
1644
1641
1641
1636
1639
1637
1639
1639
1636
1636
1636
1636
1636
1636
1636
1635
1637
1636
1639
1639
1641
1639
1639
1641
1647
1647
1647
1649
1650
1653
1659
1659
1656
1656
1654
1653
1653
1655
1651
1649
1649
1649
1647
1643
1637
1637
1635
1635
1632
1632
1631
1631
1627
1631
1631
1631
1631
1629
1625
1625
1627
1627
1623
1609
1603
1606
1620
1649
1697
1751
1793
1823
1843
1856
1857
1817
1769
1714
1674
1648
1638
1633
1629
1620
1618
1618
1615
1614
1615
1617
1618
1615
1615
1617
1613
1619
1617
1620
1619
1621
1623
1621
1619
1620
1621
1623
1625
1627
1625
1627
1629
1629
1630
1636
1639
1645
1647
1653
1659
1661
1663
1667
1668
1668
1669
1671
1673
1673
1673
1673
1674
1675
1672
1671
1663
1659
1660
1654
1651
1647
1644
1644
1639
1641
1641
1639
1639
1639
1636
1635
1636
1635
1635
1635
1632
1633
1632
1671
1659
1648
1641
1641
1639
1639
1633
1635
1637
1639
1642
1644
1645
1649
1651
1653
1649
1648
1648
1649
1648
1657
1647
1643
1645
1643
1642
1639
1636
1633
1633
1632
1630
1629
1627
1626
1627
1625
1629
1627
1625
1624
1625
1627
1629
1625
1619
1606
1599
1605
1619
1649
1699
1753
1794
1825
1845
1860
1866
1819
1770
1709
1675
1649
1639
1636
1631
1625
1619
1620
1615
1611
1612
1614
1615
1617
1615
1615
1615
1618
1620
1619
1614
1618
1620
1620
1619
1618
1621
1624
1626
1627
1624
1627
1630
1630
1629
1629
1632
1638
1643
1648
1651
1656
1661
1663
1667
1666
1669
1672
1671
1671
1673
1674
1672
1674
1668
1665
1663
1662
1656
1653
1649
1647
1645
1639
1637
1637
1637
1635
1637
1633
1632
1631
1633
1635
1633
1633
1630
1627
1629
1633
1635
1632
1632
1633
1635
1635
1636
1635
1639
1641
1645
1644
1648
1651
1654
1656
1654
1653
1654
1655
1654
1654
1655
1655
1651
1649
1649
1643
1641
1639
1638
1636
1632
1635
1636
1636
1636
1636
1636
1632
1633
1629
1627
1631
1631
1629
1624
1609
1605
1611
1632
1667
1721
1776
1806
1826
1843
1855
1837
1784
1730
1687
1659
1642
1641
1636
1627
1625
1625
1626
1624
1620
1620
1623
1623
1624
1625
1627
1625
1629
1630
1629
1630
1629
1631
1635
1637
1639
1639
1637
1638
1639
1641
1647
1649
1649
1654
1656
1659
1667
1669
1674
1678
1677
1683
1687
1687
1687
1692
1691
1693
1692
1690
1690
1690
1685
1683
1680
1678
1673
1671
1668
1663
1659
1657
1655
1655
1649
1649
1649
1649
1648
1647
1644
1645
1644
1644
1645
1645
1647
1644
1644
1644
1648
1647
1647
1647
1648
1654
1659
1659
1661
1661
1665
1666
1659
1635
1639
1649
1655
1661
1665
1665
1662
1663
1661
1665
1661
1653
1649
1649
1648
1648
1644
1643
1643
1642
1645
1643
1642
1644
1642
1645
1639
1639
1641
1637
1633
1625
1615
1619
1636
1668
1726
1780
1811
1833
1844
1857
1860
1808
1754
1704
1671
1653
1647
1644
1641
1635
1632
1636
1637
1636
1637
1632
1632
1631
1632
1635
1633
1635
1636
1637
1637
1632
1636
1637
1638
1637
1638
1637
1639
1641
1643
1645
1645
1647
1651
1656
1659
1660
1665
1669
1672
1677
1678
1684
1683
1685
1685
1686
1686
1687
1687
1687
1687
1687
1681
1680
1677
1672
1669
1666
1659
1659
1656
1653
1649
1649
1649
1650
1649
1649
1647
1644
1643
1642
1644
1642
1642
1644
1644
1645
1644
1642
1642
1642
1643
1644
1643
1649
1651
1649
1651
1656
1659
1661
1662
1659
1657
1660
1659
1656
1659
1662
1659
1656
1654
1654
1651
1647
1645
1644
1643
1643
1643
1643
1639
1637
1638
1638
1639
1638
1638
1638
1637
1637
1636
1631
1618
1613
1615
1631
1665
1716
1768
1802
1827
1843
1855
1857
1815
1764
1711
1677
1659
1645
1643
1637
1633
1627
1629
1625
1623
1625
1625
1627
1629
1625
1630
1627
1627
1625
1625
1627
1630
1627
1631
1632
1631
1632
1635
1639
1639
1639
1639
1642
1644
1649
1653
1654
1656
1657
1662
1666
1671
1674
1677
1679
1683
1684
1685
1687
1687
1687
1691
1687
1685
1684
1681
1679
1675
1671
1669
1666
1665
1659
1656
1657
1657
1656
1657
1654
1650
1650
1653
1653
1651
1651
1651
1651
1651
1651
1650
1649
1649
1651
1648
1649
1656
1655
1659
1662
1665
1666
1666
1668
1672
1673
1671
1668
1671
1668
1671
1671
1671
1668
1669
1667
1666
1661
1657
1656
1655
1649
1675
1667
1665
1659
1659
1656
1655
1655
1653
1651
1651
1649
1651
1647
1638
1625
1618
1623
1647
1680
1734
1778
1812
1835
1848
1857
1850
1805
1754
1705
1677
1661
1655
1653
1649
1644
1643
1641
1645
1644
1644
1647
1644
1647
1644
1644
1647
1647
1647
1647
1647
1648
1651
1655
1655
1654
1656
1657
1659
1659
1662
1665
1667
1669
1671
1671
1675
1679
1683
1687
1690
1693
1697
1699
1703
1704
1705
1704
1708
1709
1710
1710
1706
1702
1701
1698
1693
1691
1685
1684
1678
1678
1673
1671
1668
1666
1663
1663
1666
1666
1661
1661
1659
1662
1665
1660
1656
1657
1656
1661
1662
1661
1659
1662
1661
1663
1666
1668
1671
1673
1675
1674
1677
1680
1683
1679
1677
1677
1679
1680
1679
1675
1674
1673
1672
1667
1663
1657
1657
1656
1656
1656
1654
1655
1654
1656
1657
1656
1653
1653
1654
1655
1655
1654
1647
1636
1624
1623
1637
1669
1709
1758
1796
1821
1841
1853
1860
1835
1784
1732
1689
1669
1657
1655
1654
1648
1647
1644
1644
1642
1643
1642
1641
1645
1647
1644
1644
1645
1645
1647
1647
1645
1645
1645
1647
1649
1647
1649
1649
1653
1655
1656
1656
1659
1663
1665
1666
1669
1675
1678
1681
1685
1683
1689
1693
1695
1697
1697
1699
1703
1705
1702
1702
1703
1697
1693
1687
1685
1683
1680
1678
1673
1668
1666
1666
1666
1667
1663
1659
1661
1659
1662
1661
1661
1660
1660
1659
1661
1661
1660
1659
1659
1659
1659
1656
1659
1662
1667
1668
1671
1671
1673
1673
1680
1681
1679
1674
1675
1679
1679
1680
1675
1674
1675
1675
1672
1667
1661
1659
1659
1662
1656
1657
1659
1659
1660
1659
1656
1666
1659
1656
1656
1659
1656
1654
1651
1641
1635
1649
1656
1680
1721
1776
1812
1830
1843
1857
1865
1845
1800
1742
1703
1677
1663
1660
1656
1649
1645
1647
1645
1644
1643
1644
1645
1644
1648
1647
1649
1644
1647
1647
1647
1648
1644
1647
1649
1651
1655
1656
1653
1655
1659
1661
1661
1663
1665
1666
1669
1673
1677
1679
1683
1686
1690
1693
1697
1699
1699
1703
1704
1708
1709
1708
1711
1705
1702
1696
1693
1687
1685
1683
1678
1677
1674
1671
1671
1671
1668
1663
1662
1663
1665
1665
1662
1662
1662
1665
1663
1663
1661
1661
1662
1661
1656
1662
1665
1665
1668
1671
1671
1673
1671
1675
1678
1678
1681
1681
1680
1681
1681
1678
1680
1681
1680
1679
1675
1674
1671
1667
1665
1663
1661
1659
1660
1659
1660
1660
1657
1659
1660
1659
1659
1657
1659
1659
1657
1654
1643
1629
1625
1636
1662
1697
1754
1790
1819
1837
1849
1856
1847
1802
1747
1703
1679
1668
1665
1661
1657
1655
1651
1648
1651
1651
1651
1649
1647
1649
1649
1649
1651
1654
1653
1655
1656
1659
1659
1659
1660
1659
1661
1665
1661
1662
1661
1663
1667
1668
1673
1675
1679
1686
1687
1690
1690
1695
1704
1704
1706
1708
1706
1706
1711
1712
1710
1704
1706
1706
1703
1697
1692
1690
1686
1680
1679
1679
1675
1673
1672
1671
1668
1669
1668
1666
1667
1663
1663
1665
1666
1663
1666
1667
1667
1667
1666
1666
1668
1668
1666
1668
1671
1675
1678
1680
1684
1685
1690
1692
1690
1686
1686
1686
1687
1686
1685
1681
1681
1681
1678
1674
1669
1672
1669
1669
1667
1668
1663
1661
1665
1663
1663
1667
1666
1667
1667
1666
1667
1663
1656
1645
1631
1639
1656
1690
1742
1786
1820
1841
1854
1863
1860
1819
1765
1717
1685
1669
1665
1663
1659
1656
1654
1657
1655
1655
1655
1654
1650
1642
1651
1653
1655
1654
1655
1657
1656
1659
1659
1661
1659
1661
1661
1659
1659
1666
1667
1668
1669
1672
1674
1678
1680
1681
1685
1687
1695
1701
1702
1705
1705
1708
1712
1714
1711
1712
1710
1712
1710
1708
1705
1702
1699
1697
1692
1687
1684
1680
1679
1675
1675
1672
1671
1672
1669
1668
1667
1668
1666
1666
1666
1667
1666
1663
1665
1662
1663
1663
1665
1663
1663
1666
1671
1673
1678
1677
1679
1680
1681
1685
1685
1685
1681
1681
1680
1681
1683
1678
1679
1675
1677
1675
1668
1666
1663
1665
1665
1665
1659
1660
1659
1659
1656
1656
1659
1659
1660
1656
1654
1653
1650
1639
1625
1624
1632
1659
1703
1758
1793
1815
1838
1855
1866
1850
1808
1753
1706
1680
1668
1659
1656
1649
1648
1647
1647
1643
1643
1642
1642
1643
1645
1643
1645
1644
1644
1645
1647
1649
1649
1649
1649
1649
1655
1655
1655
1655
1656
1654
1656
1659
1662
1665
1667
1671
1673
1678
1680
1684
1687
1687
1692
1695
1697
1697
1699
1697
1701
1702
1702
1699
1697
1697
1693
1687
1684
1680
1675
1675
1672
1668
1666
1666
1665
1665
1663
1661
1662
1659
1659
1657
1659
1659
1659
1659
1659
1659
1659
1659
1662
1659
1660
1659
1659
1659
1665
1666
1668
1669
1671
1674
1680
1683
1679
1677
1674
1674
1675
1675
1675
1675
1674
1672
1671
1671
1665
1662
1661
1662
1660
1662
1661
1659
1657
1656
1657
1659
1657
1656
1659
1655
1655
1651
1647
1633
1625
1627
1642
1668
1716
1768
1805
1827
1844
1857
1866
1841
1795
1742
1699
1677
1665
1663
1656
1653
1649
1649
1649
1648
1645
1644
1648
1653
1654
1649
1648
1649
1651
1650
1651
1655
1654
1648
1685
1673
1671
1667
1665
1663
1666
1666
1666
1667
1666
1667
1674
1675
1679
1681
1685
1687
1691
1695
1697
1697
1699
1703
1704
1709
1709
1706
1706
1704
1701
1697
1697
1696
1692
1687
1684
1680
1679
1675
1674
1671
1668
1671
1672
1673
1669
1667
1666
1667
1668
1666
1666
1666
1665
1665
1663
1663
1662
1666
1666
1667
1666
1668
1671
1677
1675
1678
1679
1680
1684
1685
1686
1683
1684
1681
1681
1683
1681
1680
1680
1680
1679
1672
1667
1667
1666
1666
1667
1667
1665
1661
1659
1659
1661
1662
1661
1660
1659
1659
1661
1659
1649
1636
1624
1630
1649
1684
1728
1777
1813
1833
1847
1855
1857
1819
1770
1718
1692
1666
1660
1665
1655
1653
1649
1648
1649
1647
1647
1647
1649
1651
1653
1654
1654
1655
1661
1654
1662
1654
1655
1657
1656
1659
1659
1662
1662
1662
1666
1667
1669
1672
1674
1677
1681
1685
1687
1691
1693
1697
1703
1702
1704
1706
1706
1709
1710
1714
1711
1711
1709
1706
1706
1704
1702
1697
1693
1691
1687
1683
1679
1677
1674
1675
1669
1667
1668
1669
1668
1667
1666
1663
1665
1666
1663
1663
1665
1662
1663
1665
1665
1665
1666
1665
1666
1668
1671
1674
1677
1679
1680
1683
1685
1685
1683
1680
1680
1681
1683
1684
1684
1680
1680
1678
1678
1674
1668
1666
1667
1663
1662
1659
1659
1662
1661
1662
1665
1665
1663
1666
1659
1659
1657
1657
1651
1639
1630
1632
1655
1685
1733
1780
1812
1836
1850
1860
1866
1836
1784
1732
1695
1675
1668
1662
1661
1655
1654
1655
1654
1649
1651
1651
1651
1653
1654
1654
1655
1657
1655
1656
1656
1659
1657
1659
1659
1659
1659
1665
1666
1666
1666
1665
1667
1672
1675
1677
1677
1681
1684
1687
1690
1693
1696
1692
1706
1705
1709
1710
1708
1708
1705
1704
1708
1706
1701
1703
1697
1695
1692
1687
1685
1683
1678
1674
1674
1673
1672
1673
1671
1671
1666
1666
1667
1668
1666
1666
1666
1667
1667
1667
1663
1666
1667
1666
1668
1667
1669
1671
1673
1678
1678
1680
1681
1681
1687
1687
1685
1681
1681
1684
1685
1686
1681
1683
1681
1679
1679
1673
1669
1669
1668
1666
1668
1667
1665
1666
1665
1663
1663
1661
1657
1659
1660
1659
1662
1659
1651
1637
1627
1635
1649
1687
1742
1787
1817
1838
1854
1863
1862
1818
1770
1722
1690
1675
1667
1666
1661
1657
1654
1649
1653
1651
1654
1651
1655
1651
1653
1655
1651
1654
1656
1659
1660
1662
1656
1656
1656
1659
1661
1661
1662
1665
1666
1669
1671
1673
1673
1675
1678
1678
1684
1686
1690
1695
1697
1699
1704
1706
1709
1715
1712
1711
1712
1711
1714
1710
1705
1702
1699
1697
1695
1691
1687
1685
1681
1677
1673
1673
1675
1678
1675
1673
1674
1672
1672
1671
1671
1671
1673
1672
1673
1671
1668
1668
1672
1671
1671
1673
1678
1683
1683
1685
1685
1686
1687
1691
1693
1691
1687
1687
1687
1687
1692
1690
1687
1686
1685
1685
1675
1674
1673
1674
1674
1674
1671
1671
1671
1669
1671
1671
1671
1668
1671
1669
1672
1671
1668
1657
1645
1641
1653
1673
1710
1762
1796
1824
1841
1854
1863
1850
1800
1744
1702
1680
1672
1669
1668
1665
1666
1665
1662
1662
1662
1663
1663
1665
1666
1662
1666
1663
1668
1669
1667
1666
1669
1671
1673
1672
1671
1677
1677
1678
1679
1678
1680
1680
1685
1690
1691
1693
1696
1706
1706
1709
1717
1716
1717
1718
1722
1724
1727
1726
1726
1726
1723
1720
1716
1714
1709
1706
1703
1701
1697
1684
1711
1701
1692
1687
1681
1678
1678
1678
1679
1677
1674
1675
1674
1673
1672
1675
1674
1673
1672
1673
1675
1673
1675
1674
1675
1678
1679
1684
1685
1687
1689
1687
1692
1695
1695
1693
1687
1686
1687
1692
1693
1687
1687
1686
1687
1681
1675
1672
1674
1672
1671
1669
1671
1669
1669
1668
1666
1667
1666
1668
1666
1668
1666
1666
1659
1648
1636
1641
1655
1684
1724
1774
1812
1835
1848
1857
1862
1844
1802
1748
1702
1681
1672
1669
1665
1659
1657
1656
1655
1653
1654
1651
1653
1654
1656
1656
1656
1655
1653
1651
1655
1654
1654
1651
1654
1656
1660
1659
1657
1659
1660
1662
1665
1665
1665
1668
1671
1675
1677
1678
1684
1687
1689
1693
1695
1697
1699
1704
1704
1702
1706
1706
1704
1704
1699
1696
1693
1687
1685
1683
1681
1677
1673
1671
1671
1669
1666
1662
1661
1663
1663
1662
1663
1665
1662
1662
1661
1662
1661
1661
1659
1659
1661
1666
1665
1662
1661
1667
1671
1673
1674
1675
1677
1678
1683
1683
1681
1678
1683
1677
1678
1678
1679
1675
1673
1672
1672
1666
1665
1659
1656
1655
1655
1654
1655
1654
1655
1653
1654
1654
1656
1659
1656
1654
1655
1653
1641
1629
1620
1631
1656
1693
1742
1784
1817
1835
1850
1860
1859
1825
1770
1720
1684
1671
1665
1657
1651
1647
1647
1644
1641
1644
1644
1644
1642
1639
1645
1644
1645
1643
1643
1644
1645
1647
1649
1648
1649
1649
1648
1649
1654
1655
1653
1654
1655
1661
1665
1665
1668
1671
1678
1681
1685
1685
1687
1690
1692
1695
1701
1702
1702
1704
1704
1704
1704
1702
1699
1695
1693
1690
1687
1684
1678
1678
1677
1673
1674
1673
1671
1669
1671
1668
1668
1667
1667
1666
1667
1663
1661
1655
1661
1663
1662
1662
1665
1665
1663
1665
1666
1671
1669
1673
1672
1675
1679
1683
1685
1686
1683
1681
1683
1684
1684
1685
1680
1680
1679
1683
1681
1673
1671
1666
1665
1660
1663
1666
1665
1663
1663
1665
1665
1663
1665
1663
1665
1665
1663
1659
1649
1638
1632
1643
1662
1699
1752
1794
1823
1839
1853
1865
1859
1809
1756
1706
1680
1668
1666
1659
1656
1656
1653
1654
1654
1653
1649
1649
1650
1655
1651
1654
1655
1653
1661
1655
1653
1655
1659
1659
1659
1661
1663
1666
1666
1666
1666
1668
1669
1674
1674
1675
1677
1681
1687
1693
1695
1697
1705
1706
1709
1711
1710
1712
1711
1711
1716
1711
1714
1708
1705
1704
1699
1696
1691
1685
1683
1678
1673
1674
1671
1669
1668
1665
1666
1666
1665
1665
1666
1663
1665
1665
1665
1663
1665
1666
1665
1663
1665
1666
1666
1666
1667
1671
1675
1677
1678
1677
1679
1683
1686
1687
1680
1678
1679
1681
1683
1683
1680
1678
1675
1678
1673
1666
1663
1666
1666
1666
1663
1662
1661
1660
1659
1657
1657
1659
1659
1659
1657
1659
1656
1651
1642
1627
1624
1633
1661
1703
1757
1796
1819
1836
1850
1861
1848
1794
1741
1697
1668
1655
1649
1648
1648
1645
1644
1641
1641
1639
1639
1639
1641
1643
1645
1645
1644
1644
1645
1648
1645
1645
1645
1648
1647
1645
1648
1649
1649
1651
1653
1654
1659
1659
1662
1662
1666
1671
1673
1678
1681
1687
1690
1690
1692
1695
1695
1695
1699
1699
1697
1696
1695
1695
1690
1685
1683
1678
1675
1672
1671
1669
1666
1663
1661
1660
1660
1654
1654
1656
1656
1655
1654
1655
1655
1656
1656
1655
1653
1655
1654
1655
1656
1656
1656
1656
1656
1662
1663
1663
1661
1635
1649
1660
1665
1667
1667
1668
1669
1672
1669
1668
1668
1663
1665
1663
1665
1662
1660
1654
1653
1651
1648
1648
1647
1648
1647
1647
1645
1647
1645
1644
1642
1644
1644
1645
1637
1625
1615
1618
1630
1654
1696
1752
1795
1820
1841
1857
1867
1851
1808
1751
1704
1675
1661
1654
1651
1643
1638
1636
1635
1635
1633
1632
1632
1633
1635
1636
1637
1632
1635
1635
1636
1635
1635
1635
1638
1639
1637
1637
1638
1639
1642
1641
1639
1639
1644
1647
1651
1655
1660
1662
1662
1663
1669
1671
1675
1678
1680
1684
1685
1685
1683
1683
1683
1685
1683
1678
1677
1673
1671
1668
1666
1662
1660
1656
1653
1651
1649
1649
1647
1649
1647
1649
1649
1648
1644
1645
1643
1643
1644
1642
1645
1645
1644
1644
1642
1645
1643
1644
1647
1653
1655
1656
1656
1659
1659
1662
1666
1663
1661
1659
1663
1662
1661
1662
1661
1660
1661
1661
1659
1653
1647
1643
1644
1644
1643
1644
1645
1644
1643
1643
1643
1643
1643
1645
1645
1642
1642
1637
1627
1619
1618
1627
1651
1695
1751
1794
1819
1841
1853
1860
1827
1777
1724
1684
1661
1648
1642
1639
1638
1636
1635
1632
1631
1630
1632
1635
1636
1635
1635
1637
1632
1636
1635
1639
1632
1636
1637
1641
1639
1643
1643
1645
1647
1647
1644
1647
1655
1656
1657
1659
1663
1667
1673
1679
1683
1683
1683
1690
1696
1695
1697
1699
1699
1699
1698
1697
1696
1692
1691
1687
1684
1680
1674
1671
1667
1666
1665
1660
1659
1659
1656
1657
1656
1657
1656
1656
1656
1657
1654
1656
1659
1655
1653
1655
1655
1656
1656
1656
1657
1657
1660
1662
1665
1668
1671
1673
1674
1674
1679
1675
1673
1673
1672
1674
1675
1677
1675
1673
1669
1669
1663
1644
1649
1653
1654
1655
1655
1654
1655
1654
1655
1655
1654
1651
1653
1654
1649
1649
1649
1641
1632
1626
1627
1644
1675
1729
1777
1812
1835
1848
1860
1855
1809
1753
1704
1674
1655
1649
1647
1644
1641
1642
1642
1639
1641
1637
1642
1642
1638
1639
1641
1639
1641
1639
1645
1645
1644
1643
1643
1647
1645
1648
1648
1651
1649
1657
1655
1655
1656
1656
1659
1663
1669
1673
1675
1678
1681
1685
1687
1690
1690
1690
1695
1693
1696
1695
1695
1695
1692
1687
1681
1678
1675
1675
1669
1662
1660
1659
1656
1653
1649
1644
1645
1645
1644
1644
1643
1643
1644
