-25
-26
-26
-26
-26
-27
-27
-28
-29
-29
-30
-32
-33
-35
-37
-38
-37
-35
-37
-37
-35
-31
-26
-23
-18
-12
-7
-4
-1
0
2
3
4
4
3
3
4
4
4
3
3
1
0
-1
-1
-2
-2
-1
-1
-2
-3
-3
-3
-3
-3
-1
4
9
10
4
-1
-3
1
7
12
15
19
23
27
29
29
27
21
14
10
9
9
5
0
-2
-5
-6
-6
-6
-7
-5
-4
-4
-6
-6
-6
-5
-3
-4
-3
-3
-4
-6
-6
-6
-8
-9
-10
-10
-12
-14
-14
-13
-12
-12
-11
-10
-6
7
40
86
147
229
320
391
409
405
370
288
187
97
35
-7
-35
-46
-52
-55
-59
-60
-59
-59
-59
-59
-56
-55
-52
-51
-51
-50
-50
-48
-45
-43
-44
-45
-45
-45
-45
-44
-44
-45
-45
-44
-43
-42
-43
-44
-44
-42
-43
-45
-48
-50
-51
-52
-52
-54
-55
-55
-54
-55
-56
-54
-51
-47
-44
-39
-33
-28
-24
-18
-12
-8
-4
0
4
6
9
9
9
8
8
8
7
4
0
0
0
-1
-2
-3
-3
-3
-3
-2
-1
-1
1
2
3
3
4
7
8
9
10
13
15
18
21
25
30
32
36
36
34
30
27
24
22
23
20
15
8
3
0
-1
-2
-2
-2
-2
-2
-1
-1
0
-3
-4
-5
-6
-7
-10
-12
-15
-16
-14
-14
-13
-14
-12
-10
-8
-8
-7
-7
-6
-4
1
15
44
85
146
219
299
367
398
404
375
299
192
90
24
-16
-36
-43
-47
-50
-52
-53
-52
-51
-50
-49
-47
-45
-44
-44
-42
-41
-39
-38
-36
-35
-34
-34
-34
-34
-33
-34
-33
-34
-34
-34
-34
-34
-35
-35
-35
-36
-37
-38
-40
-41
-42
-44
-44
-44
-44
-46
-47
-47
-47
-45
-43
-39
-36
-33
-28
-22
-16
-12
-8
-5
-2
0
2
2
3
2
3
3
1
0
0
-2
-3
-4
-5
-7
-8
-9
-9
-10
-10
-9
-8
-6
-5
-3
-1
2
7
11
14
17
21
25
28
29
30
26
22
18
17
14
9
3
-2
-4
-6
-8
-7
-7
-8
-8
-7
-8
-9
-9
-10
-12
-13
-13
-14
-15
-16
-17
-19
-21
-22
-24
-25
-27
-28
-28
-27
-25
-24
-24
-21
-11
16
54
107
179
267
343
369
364
325
239
148
62
6
-31
-50
-57
-59
-63
-65
-65
-63
-63
-63
-61
-58
-56
-56
-54
-54
-53
-53
-52
-51
-50
-50
-50
-50
-49
-48
-47
-45
-46
-46
-45
-45
-46
-47
-47
-48
-50
-51
-52
-53
-57
-58
-59
-60
-62
-65
-64
-65
-63
-62
-59
-57
-53
-46
-40
-35
-30
-23
-19
-14
-11
-8
-6
-5
-5
-4
-4
-4
-3
-3
-3
-3
-2
-4
-4
-5
-6
-7
-8
-8
-8
-6
-7
-7
-5
-4
-3
-2
0
0
1
1
2
3
5
8
11
15
18
22
24
25
23
19
17
13
12
11
7
2
-4
-8
-11
-13
-14
-13
-12
-13
-13
-14
-14
-15
-16
-16
-17
-17
-19
-19
-19
-20
-20
-20
-21
-23
-24
-25
-25
-24
-22
-21
-21
-21
-18
-6
17
56
112
183
265
339
379
384
349
267
155
59
0
-36
-53
-57
-59
-62
-65
-65
-63
-63
-62
-61
-59
-57
-55
-54
-52
-49
-48
-46
-46
-45
-45
-45
-44
-44
-43
-43
-41
-41
-41
-41
-40
-39
-40
-41
-41
-42
-43
-44
-44
-46
-47
-49
-50
-51
-51
-52
-52
-52
-53
-50
-48
-45
-41
-37
-31
-27
-23
-19
-15
-13
-11
-9
-7
-7
-7
-7
-7
-7
-8
-8
-8
-7
-8
-8
-8
-8
-9
-10
-9
-10
-10
-9
-9
-9
-8
-5
-4
-3
-2
0
0
1
3
7
10
12
16
20
23
25
27
27
23
21
17
15
13
12
10
5
0
-4
-5
-6
-6
-6
-6
-6
-8
-8
-8
-9
-11
-11
-13
-16
-18
-19
-21
-24
-27
-28
-28
-28
-28
-26
-24
-23
-21
-20
-19
-19
-13
1
28
63
121
189
274
340
370
361
306
202
101
21
-21
-44
-53
-57
-59
-63
-65
-64
-64
-62
-61
-59
-58
-56
-54
-54
-52
-51
-49
-48
-47
-46
-44
-43
-43
-42
-41
-40
-40
-39
-38
-38
-37
-37
-38
-38
-39
-40
-40
-41
-43
-44
-46
-47
-49
-50
-50
-52
-52
-52
-52
-52
-50
-47
-42
-37
-31
-25
-22
-18
-15
-11
-9
-8
-7
-6
-6
-6
-6
-7
-8
-9
-9
-11
-12
-12
-12
-13
-14
-13
-14
-15
-16
-15
-14
-14
-14
-12
-9
-7
-5
-2
0
3
7
12
16
20
20
19
16
13
9
6
6
5
1
-4
-9
-13
-14
-14
-15
-16
-16
-16
-16
-17
-18
-19
-18
-18
-19
-20
-21
-23
-24
-26
-29
-31
-31
-32
-33
-34
-35
-36
-35
-34
-32
-31
-31
-26
-10
16
55
108
185
281
347
374
349
276
173
73
1
-40
-59
-65
-69
-72
-78
-79
-78
-76
-75
-76
-72
-71
-68
-68
-66
-66
-64
-62
-63
-62
-61
-60
-60
-60
-59
-59
-58
-60
-59
-59
-59
-61
-61
-61
-60
-60
-61
-60
-62
-64
-65
-66
-68
-69
-70
-71
-70
-71
-70
-68
-66
-65
-60
-53
-48
-41
-34
-27
-23
-20
-16
-13
-12
-11
-11
-10
-9
-10
-10
-11
-14
-15
-16
-16
-19
-20
-20
-20
-21
-21
-19
-18
-17
-17
-16
-17
-16
-14
-13
-12
-11
-9
-8
-6
-5
-2
0
1
5
10
14
15
16
15
13
9
6
5
5
2
-3
-8
-13
-15
-15
-15
-16
-16
-14
-13
-12
-13
-13
-12
-12
-12
-13
-15
-16
-17
-17
-19
-20
-22
-22
-22
-23
-23
-22
-22
-21
-20
-20
-20
-16
-1
26
69
127
215
312
372
389
347
260
156
64
3
-36
-54
-59
-62
-65
-70
-72
-72
-70
-68
-67
-63
-62
-60
-59
-57
-55
-55
-53
-51
-50
-50
-49
-48
-48
-47
-47
-46
-46
-45
-46
-45
-44
-44
-45
-46
-47
-48
-48
-48
-48
-49
-50
-52
-54
-54
-56
-56
-56
-54
-54
-53
-50
-46
-41
-36
-32
-27
-22
-19
-15
-12
-10
-8
-7
-5
-4
-4
-4
-4
-4
-5
-6
-7
-7
-8
-8
-8
-7
-7
-7
-6
-5
-4
-3
-2
-1
0
0
1
2
3
5
7
9
10
13
16
19
21
23
27
27
27
24
21
17
14
12
9
4
-1
-6
-9
-10
-10
-10
-9
-9
-9
-8
-9
-10
-11
-12
-14
-17
-19
-21
-23
-24
-24
-25
-25
-24
-23
-21
-21
-20
-19
-17
-16
-16
-16
-15
-8
9
43
94
158
240
320
368
380
349
281
178
91
30
-10
-34
-47
-52
-55
-60
-61
-60
-59
-58
-57
-55
-53
-50
-50
-50
-48
-46
-46
-45
-44
-43
-42
-42
-40
-40
-39
-38
-37
-36
-36
-36
-36
-36
-37
-39
-40
-41
-43
-44
-45
-48
-50
-51
-53
-55
-57
-56
-56
-56
-55
-53
-49
-48
-43
-38
-33
-29
-25
-21
-17
-14
-12
-8
-6
-5
-4
-3
-3
-3
-4
-3
-4
-5
-7
-8
-9
-11
-12
-11
-12
-13
-14
-12
-11
-10
-9
-7
-5
-2
1
4
8
11
16
17
18
19
20
20
16
12
10
8
4
0
-4
-9
-11
-12
-13
-14
-15
-14
-14
-14
-15
-14
-13
-13
-14
-15
-15
-18
-18
-19
-20
-20
-21
-23
-25
-26
-27
-27
-26
-25
-23
-21
-21
-23
-19
-2
29
79
151
245
330
372
371
321
232
133
43
-11
-41
-55
-59
-61
-65
-70
-72
-71
-71
-70
-69
-68
-66
-62
-61
-61
-60
-58
-56
-55
-54
-54
-53
-53
-54
-52
-51
-50
-52
-52
-51
-53
-53
-54
-53
-54
-55
-56
-58
-58
-60
-60
-62
-63
-65
-66
-67
-68
-67
-66
-63
-60
-55
-51
-46
-39
-34
-28
-24
-18
-14
-12
-11
-10
-9
-8
-8
-7
-7
-7
-9
-9
-10
-12
-13
-13
-13
-14
-15
-14
-15
-15
-14
-12
-10
-9
-8
-6
-5
-5
-3
-2
0
0
3
6
7
8
9
13
16
20
24
24
22
17
13
10
9
6
1
-4
-9
-12
-12
-13
-14
-14
-13
-13
-13
-12
-12
-12
-12
-12
-12
-13
-14
-15
-16
-18
-20
-21
-21
-23
-24
-24
-24
-25
-24
-22
-21
-21
-19
-8
14
58
121
206
293
356
382
374
332
250
148
61
4
-29
-45
-53
-56
-61
-64
-65
-64
-64
-62
-61
-60
-58
-56
-54
-53
-51
-49
-48
-49
-48
-47
-47
-46
-46
-45
-45
-44
-43
-43
-42
-43
-41
-40
-40
-41
-41
-42
-44
-46
-48
-49
-51
-52
-53
-54
-55
-56
-55
-55
-53
-51
-47
-43
-39
-34
-28
-23
-20
-16
-13
-10
-8
-6
-4
-3
-2
-2
-3
-3
-2
-4
-5
-6
-7
-7
-8
-9
-10
-11
-12
-12
-11
-10
-10
-8
-5
-4
-1
0
5
8
11
14
18
22
25
27
29
30
26
21
17
15
14
9
4
-1
-5
-6
-6
-7
-8
-8
-7
-7
-8
-8
-7
-7
-8
-9
-9
-10
-11
-12
-14
-16
-18
-18
-19
-20
-20
-19
-18
-16
-14
-13
-12
-11
-6
5
30
64
115
191
278
360
397
406
382
317
217
117
41
-6
-34
-46
-53
-57
-60
-61
-59
-60
-58
-58
-56
-55
-53
-52
-52
-52
-50
-47
-46
-45
-45
-43
-42
-41
-40
-41
-41
-41
-40
-40
-40
-40
-41
-42
-44
-46
-48
-49
-50
-52
-53
-54
-56
-59
-61
-63
-64
-63
-61
-59
-58
-53
-48
-43
-38
-31
-24
-20
-17
-14
-12
-11
-11
-8
-5
-5
-5
-6
-7
-8
-9
-8
-10
-12
-13
-14
-13
-15
-14
-15
-15
-16
-16
-16
-15
-16
-16
-14
-12
-10
-8
-5
-2
1
4
6
9
13
16
19
21
19
16
11
8
6
4
0
-6
-11
-14
-15
-16
-16
-17
-17
-18
-18
-19
-19
-19
-19
-19
-18
-20
-20
-21
-23
-25
-26
-24
-24
-27
-30
-30
-28
-28
-27
-23
-22
-25
-27
-22
-8
15
59
123
208
295
359
398
396
373
305
196
96
17
-26
-51
-64
-66
-70
-74
-76
-75
-74
-75
-73
-71
-68
-67
-66
-64
-64
-62
-61
-59
-58
-58
-60
-60
-58
-56
-55
-57
-57
-57
-58
-58
-57
-57
-59
-59
-61
-63
-67
-69
-70
-71
-73
-76
-76
-77
-77
-77
-75
-75
-74
-70
-66
-60
-55
-49
-42
-36
-30
-24
-19
-16
-14
-11
-9
-9
-9
-9
-10
-11
-12
-12
-13
-13
-14
-15
-15
-15
-14
-13
-12
-12
-12
-12
-11
-10
-8
-7
-6
-6
-6
-6
-5
-3
-1
1
5
6
7
9
13
16
18
18
16
10
7
4
2
0
-4
-10
-16
-20
-21
-21
-22
-23
-23
-24
-24
-24
-24
-25
-27
-28
-29
-33
-35
-36
-34
-35
-36
-37
-37
-36
-35
-34
-33
-32
-30
-29
-28
-28
-23
-10
14
50
103
181
271
347
384
377
338
242
135
45
-13
-40
-53
-57
-59
-63
-64
-64
-64
-62
-60
-58
-57
-55
-53
-50
-48
-47
-48
-48
-46
-44
-41
-41
-39
-39
-38
-38
-38
-38
-38
-37
-38
-38
-39
-40
-40
-41
-43
-46
-48
-51
-53
-55
-57
-57
-58
-58
-61
-62
-60
-59
-56
-53
-48
-44
-38
-32
-27
-23
-19
-16
-15
-13
-13
-12
-12
-13
-13
-13
-14
-15
-15
-15
-16
-17
-15
-16
-16
-17
-17
-17
-18
-17
-16
-14
-14
-12
-9
-7
-4
0
6
10
14
19
23
24
23
21
16
12
11
11
7
2
-3
-6
-8
-9
-10
-10
-10
-11
-11
-10
-11
-12
-12
-12
-12
-11
-11
-13
-15
-17
-18
-18
-20
-21
-21
-22
-23
-23
-21
-20
-19
-19
-16
-8
13
47
93
153
231
319
382
403
390
327
223
120
36
-13
-41
-53
-58
-61
-64
-64
-63
-61
-61
-60
-59
-57
-56
-55
-55
-53
-51
-49
-47
-45
-42
-41
-40
-39
-40
-39
-39
-39
-40
-40
-39
-39
-39
-39
-39
-42
-44
-46
-48
-51
-53
-55
-57
-59
-60
-60
-60
-60
-59
-57
-53
-50
-45
-39
-32
-25
-21
-15
-11
-8
-5
-4
-4
-3
-2
-2
-3
-3
-4
-7
-10
-11
-11
-12
-14
-15
-15
-16
-16
-15
-15
-14
-15
-13
-12
-12
-11
-10
-7
-6
-5
-2
1
4
8
15
20
24
25
26
23
18
14
10
8
5
2
-2
-7
-11
-13
-14
-14
-14
-14
-14
-15
-16
-15
-15
-15
-15
-16
-15
-14
-14
-14
-14
-15
-16
-18
-18
-19
-20
-20
-22
-23
-23
-23
-21
-14
2
31
71
128
215
313
388
413
398
337
229
115
30
-24
-52
-62
-65
-70
-73
-73
-70
-70
-74
-74
-72
-68
-66
-65
-65
-64
-63
-61
-58
-57
-56
-57
-54
-53
-52
-49
-47
-47
-50
-49
-49
-50
-52
-52
-51
-52
-53
-56
-57
-59
-61
-62
-64
-65
-66
-67
-69
-68
-68
-67
-65
-64
-60
-54
-46
-42
-36
-29
-24
-20
-18
-15
-13
-11
-9
-7
-7
-7
-7
-7
-8
-9
-11
-11
-10
-11
-12
-12
-13
-14
-14
-12
-12
-13
-14
-14
-12
-11
-11
-9
-6
-5
-3
0
3
6
9
12
13
16
19
20
17
15
12
8
6
3
1
-4
-9
-13
-14
-15
-16
-16
-16
-17
-17
-16
-15
-16
-16
-16
-17
-18
-19
-20
-21
-23
-25
-27
-29
-30
-31
-30
-29
-28
-28
-27
-25
-24
-23
-20
-5
20
67
131
216
313
377
407
388
318
205
95
21
-22
-46
-56
-60
-63
-68
-69
-69
-68
-67
-67
-65
-65
-62
-59
-57
-56
-55
-53
-52
-51
-53
-55
-57
-55
-53
-51
-50
-50
-49
-49
-48
-49
-48
-48
-48
-48
-49
-50
-52
-54
-55
-57
-59
-59
-60
-61
-63
-64
-65
-63
-61
-59
-55
-50
-45
-38
-32
-26
-22
-17
-15
-13
-12
-10
-8
-7
-6
-6
-5
-5
-5
-5
-4
-3
-4
-4
-6
-6
-6
-6
-7
-7
-5
-4
-3
-2
0
2
4
8
13
17
20
25
29
33
34
33
31
26
22
19
20
18
12
4
0
-1
-3
-4
-5
-6
-8
-8
-8
-8
-7
-7
-5
-6
-7
-7
-7
-8
-8
-8
-10
-13
-15
-17
-18
-19
-19
-20
-19
-17
-15
-14
-14
-6
17
55
104
173
257
351
398
407
369
273
166
73
8
-29
-48
-52
-55
-59
-62
-63
-60
-60
-58
-57
-54
-51
-50
-52
-53
-51
-50
-47
-46
-44
-43
-42
-41
-40
-40
-40
-39
-39
-40
-40
-39
-39
-39
-39
-40
-41
-42
-43
-43
-44
-46
-48
-49
-50
-52
-52
-52
-52
-51
-49
-47
-43
-36
-28
-24
-20
-15
-10
-7
-4
-1
-1
-1
0
2
3
1
1
1
0
-2
-5
-6
-6
-6
-6
-6
-8
-8
-10
-10
-10
-10
-8
-6
-4
-3
-3
-2
0
2
5
8
11
15
19
23
25
29
30
30
28
25
21
16
13
11
9
3
-1
-2
-2
-3
-4
-2
-2
-3
-3
-2
-3
-2
-1
-4
-8
-11
-12
-11
-11
-12
-15
-17
-19
-20
-20
-19
-19
-19
-17
-18
-20
-22
-18
-5
19
56
115
193
289
369
401
400
344
242
131
38
-13
-41
-53
-56
-59
-62
-66
-66
-65
-64
-62
-61
-59
-57
-55
-53
-53
-51
-50
-48
-47
-44
-42
-41
-40
-38
-38
-39
-38
-36
-35
-37
-39
-41
-40
-41
-44
-45
-46
-47
-47
-47
-48
-50
-51
-53
-53
-54
-54
-53
-53
-49
-45
-39
-34
-28
-22
-17
-12
-8
-3
0
3
5
8
8
8
7
7
7
7
8
6
5
2
2
1
1
1
1
0
0
0
0
0
0
1
2
3
3
3
6
9
12
15
17
20
25
29
31
32
31
31
29
25
20
18
18
12
5
0
-2
-2
-2
-4
-5
-5
-4
-4
-3
-3
-4
-4
-4
-5
-6
-8
-10
-12
-15
-16
-19
-20
-21
-22
-23
-22
-20
-19
-18
-17
-17
-14
-5
21
62
120
200
296
376
407
393
340
231
132
53
1
-29
-45
-50
-52
-56
-60
-62
-59
-57
-55
-55
-54
-53
-52
-50
-48
-46
-46
-45
-44
-43
-41
-40
-39
-39
-40
-41
-40
-40
-42
-42
-41
-41
-43
-45
-47
-50
-51
-53
-53
-55
-58
-61
-63
-62
-63
-61
-60
-58
-57
-56
-52
-48
-41
-36
-31
-27
-22
-17
-14
-11
-9
-9
-9
-8
-7
-7
-9
-11
-13
-13
-14
-14
-13
-13
-14
-14
-12
-12
-12
-12
-12
-12
-13
-13
-12
-12
-12
-12
-10
-8
-6
-2
2
3
3
3
3
2
1
0
-5
-7
-6
-7
-11
-18
-21
-24
-25
-24
-23
-22
-20
-18
-17
-15
-13
-11
-7
-4
-1
0
0
0
0
0
-2
-4
-6
-6
-7
-8
-8
-7
-5
-4
-3
-2
4
21
56
111
184
274
352
394
397
349
254
141
55
6
-25
-42
-48
-50
-54
-58
-59
-58
-58
-57
-56
-55
-52
-50
-48
-47
-45
-43
-41
-38
-37
-38
-36
-35
-34
-34
-36
-35
-34
-32
-33
-33
-33
-33
-33
-36
-38
-40
-42
-42
-44
-46
-49
-50
-52
-54
-57
-58
-58
-58
-56
-53
-46
-41
-35
-30
-25
-21
-17
-12
-9
-7
-5
-3
-1
0
-1
0
0
0
0
0
-3
-6
-6
-7
-7
-8
-8
-8
-9
-9
-10
-10
-10
-9
-7
-4
-2
-2
1
3
3
5
9
14
18
23
25
28
27
25
21
16
13
12
12
8
1
-4
-7
-7
-8
-8
-9
-12
-13
-12
-9
-8
-7
-6
-6
-7
-8
-8
-8
-7
-7
-9
-11
-12
-13
-16
-18
-19
-20
-20
-18
-17
-17
-18
-16
-6
20
72
139
228
321
384
400
376
300
192
91
25
-16
-44
-59
-65
-69
-71
-72
-71
-71
-71
-69
-68
-64
-61
-59
-63
-65
-63
-61
-59
-57
-55
-55
-55
-54
-52
-51
-51
-50
-50
-48
-48
-48
-47
-49
-50
-51
-51
-53
-53
-54
-55
-57
-59
-60
-62
-62
-63
-63
-62
-59
-57
-55
-53
-48
-41
-34
-27
-19
-12
-9
-7
-4
0
2
3
5
6
6
5
6
5
5
5
5
6
4
4
4
5
4
3
3
3
4
4
5
4
4
5
5
8
9
10
10
12
15
18
22
24
27
29
31
30
29
25
19
15
12
10
3
-2
-6
-9
-11
-13
-14
-14
-16
-17
-17
-14
-12
-13
-13
-13
-14
-15
-17
-19
-21
-24
-25
-25
-26
-26
-25
-24
-23
-22
-20
-18
-18
-17
-14
0
28
73
143
223
317
377
405
396
353
263
153
61
4
-28
-48
-58
-60
-64
-66
-67
-66
-64
-62
-59
-58
-55
-52
-50
-50
-48
-46
-45
-43
-42
-40
-39
-37
-35
-35
-33
-33
-31
-30
-28
-28
-29
-30
-30
-31
-32
-33
-36
-37
-39
-41
-43
-46
-48
-51
-52
-53
-53
-53
-53
-50
-46
-42
-39
-34
-28
-21
-18
-13
-7
-4
-3
-1
1
3
4
4
4
3
4
4
3
3
1
1
0
0
0
0
1
0
0
1
2
2
4
7
8
10
13
18
20
23
25
30
33
35
38
38
37
31
28
24
22
20
15
9
3
1
0
-1
-3
-5
-5
-5
-5
-5
-5
-5
-5
-6
-7
-8
-9
-11
-12
-15
-17
-18
-18
-18
-17
-17
-17
-16
-15
-14
-12
-11
-11
-3
14
50
99
176
264
343
392
399
378
312
210
112
35
-11
-36
-48
-52
-56
-60
-63
-62
-62
-61
-60
-58
-56
-55
-52
-50
-49
-48
-46
-45
-45
-43
-42
-39
-39
-38
-36
-35
-33
-32
-32
-32
-32
-34
-35
-36
-36
-36
-38
-39
-42
-44
-45
-46
-47
-48
-49
-50
-50
-50
-48
-45
-41
-37
-33
-29
-23
-16
-12
-9
-7
-3
-1
0
2
2
2
1
0
0
0
0
0
-1
-2
-3
-5
-6
-7
-8
-7
-6
-5
-5
-4
-3
-2
-1
0
1
2
4
5
7
10
13
15
19
22
26
29
31
30
26
22
18
16
15
11
5
0
0
-2
-3
-4
-6
-7
-9
-9
-9
-8
-8
-7
-7
-7
-8
-7
-7
-9
-12
-14
-16
-18
-19
-18
-20
-21
-20
-17
-14
-13
-13
-12
-6
12
49
101
174
253
341
392
399
376
295
186
89
23
-13
-39
-49
-52
-55
-57
-58
-56
-56
-55
-54
-54
-52
-52
-50
-48
-46
-45
-44
-44
-44
-44
-45
-45
-45
-43
-42
-42
-42
-42
-41
-41
-40
-40
-39
-40
-41
-43
-45
-47
-50
-51
-52
-55
-58
-60
-61
-61
-60
-61
-59
-55
-51
-46
-38
-30
-24
-19
-15
-9
-7
-5
-4
-2
-2
-2
-3
-2
0
0
0
-2
-3
-4
-4
-5
-7
-9
-10
-11
-11
-9
-8
-8
-7
-6
-6
-6
-4
-1
0
2
3
5
7
9
12
17
21
24
26
28
28
25
22
17
14
13
11
6
0
-4
-7
-9
-11
-13
-14
-14
-15
-15
-14
-14
-13
-12
-12
-13
-14
-15
-17
-20
-22
-23
-23
-24
-23
-23
-23
-22
-21
-19
-18
-18
-17
-9
7
35
79
144
220
306
360
385
375
325
237
125
39
-11
-38
-48
-52
-55
-58
-60
-60
-61
-59
-58
-57
-56
-54
-52
-51
-50
-49
-47
-46
-46
-46
-46
-46
-46
-45
-45
-44
-43
-41
-42
-42
-42
-44
-44
-45
-46
-46
-47
-48
-51
-53
-55
-57
-58
-60
-61
-61
-60
-60
-60
-58
-53
-48
-44
-39
-33
-28
-23
-18
-15
-13
-12
-11
-9
-8
-8
-7
-6
-6
-6
-6
-6
-6
-8
-9
-10
-11
-12
-13
-14
-15
-14
-13
-12
-11
-11
-9
-6
-4
-3
-1
1
4
8
11
15
19
22
24
24
21
17
13
12
9
8
5
-1
-6
-8
-8
-9
-10
-11
-12
-13
-14
-14
-14
-14
-15
-15
-15
-16
-17
-17
-18
-20
-22
-23
-24
-26
-28
-27
-27
-26
-26
-24
-23
-22
-20
-14
1
28
67
128
199
278
342
371
373
333
248
145
51
-3
-35
-50
-55
-58
-63
-66
-66
-65
-64
-62
-61
-59
-57
-55
-54
-55
-54
-53
-52
-51
-49
-48
-47
-47
-47
-46
-45
-43
-42
-40
-41
-42
-41
-42
-42
-43
-42
-44
-47
-48
-50
-52
-55
-57
-58
-59
-61
-62
-60
-61
-59
-57
-53
-50
-47
-42
-35
-28
-23
-18
-14
-11
-9
-8
-8
-9
-10
-10
-10
-10
-10
-9
-9
-9
-9
-9
-9
-10
-11
-12
-12
-12
-12
-12
-12
-13
-13
-11
-7
-5
-2
0
4
7
9
13
17
21
23
28
28
25
19
14
13
11
11
7
2
-3
-6
-6
-8
-8
-7
-7
-10
-12
-13
-12
-12
-11
-9
-9
-10
-12
-13
-13
-15
-17
-19
-22
-24
-26
-26
-27
-26
-25
-24
-24
-24
-23
-17
-3
21
60
117
192
278
349
385
385
335
242
128
36
-15
-43
-55
-58
-62
-67
-70
-71
-71
-70
-68
-67
-65
-64
-61
-60
-59
-58
-57
-55
-55
-55
-56
-56
-56
-55
-53
-53
-52
-52
-50
-52
-53
-53
-54
-53
-53
-53
-56
-58
-58
-59
-60
-63
-63
-65
-66
-68
-67
-65
-66
-65
-63
-57
-52
-45
-39
-31
-25
-19
-13
-9
-7
-6
-4
-4
-3
-2
-1
-3
-5
-7
-8
-8
-8
-7
-7
-8
-11
-11
-11
-10
-9
-9
-9
-9
-8
-8
-7
-5
-4
-2
-1
0
1
4
6
9
15
20
25
26
26
23
19
16
12
10
8
7
3
-2
-7
-10
-10
-12
-14
-14
-15
-14
-14
-14
-14
-14
-15
-15
-15
-14
-15
-17
-18
-19
-20
-21
-21
-20
-21
-22
-21
-20
-18
-16
-17
-17
-15
-2
24
58
108
178
279
367
411
406
352
240
130
39
-16
-44
-55
-57
-60
-65
-68
-68
-67
-66
-66
-64
-64
-62
-61
-59
-56
-54
-51
-50
-50
-51
-50
-49
-49
-48
-47
-45
-46
-46
-48
-47
-47
-47
-46
-46
-46
-50
-51
-53
-55
-56
-57
-57
-59
-60
-61
-61
-62
-63
-61
-58
-55
-51
-46
-41
-35
-28
-22
-19
-16
-12
-10
-8
-7
-6
-6
-6
-6
-6
-7
-8
-9
-10
-11
-12
-13
-14
-14
-15
-14
-12
-12
-11
-9
-7
-7
-6
-4
-3
-2
0
2
4
6
9
13
17
19
23
26
28
28
28
26
22
18
17
16
12
6
0
-5
-6
-7
-7
-8
-9
-9
-8
-6
-6
-6
-6
-7
-8
-8
-9
-11
-13
-15
-17
-18
-18
-18
-18
-18
-16
-14
-12
-11
-10
-8
-4
8
35
80
146
227
326
390
413
388
307
191
96
30
-9
-34
-45
-50
-53
-57
-59
-61
-59
-58
-57
-54
-53
-50
-50
-50
-49
-48
-48
-48
-47
-48
-46
-46
-46
-46
-45
-44
-43
-42
-43
-42
-42
-43
-44
-45
-46
-48
-48
-49
-49
-51
-53
-54
-56
-57
-59
-58
-59
-58
-56
-53
-49
-45
-38
-32
-25
-20
-13
-10
-8
-8
-6
-3
-2
-2
-1
-1
-2
-3
-3
-3
-3
-3
-3
-4
-5
-7
-7
-8
-9
-10
-12
-11
-10
-8
-7
-5
-3
0
3
6
9
13
16
18
22
25
28
28
26
24
20
16
14
13
10
3
-2
-6
-8
-9
-10
-10
-12
-14
-14
-13
-13
-13
-13
-12
-11
-11
-10
-9
-10
-12
-13
-14
-16
-18
-19
-19
-21
-22
-22
-22
-22
-21
-19
-16
-6
13
52
106
185
277
359
399
385
323
213
107
36
-8
-35
-51
-57
-59
-64
-67
-69
-66
-64
-63
-62
-61
-58
-57
-55
-54
-52
-53
-53
-51
-50
-48
-49
-49
-49
-48
-47
-48
-49
-49
-49
-49
-47
-47
-47
-49
-50
-52
-53
-53
-55
-56
-57
-59
-60
-61
-62
-64
-63
-63
-61
-58
-54
-50
-43
-36
-31
-28
-24
-18
-15
-11
-8
-7
-6
-6
-5
-5
-6
-7
-7
-9
-10
-11
-12
-12
-14
-15
-15
-18
-20
-22
-21
-21
-20
-18
-15
-13
-12
-10
-9
-7
-5
-2
0
3
6
11
16
19
21
22
23
22
19
15
11
9
6
1
-3
-5
-9
-12
-14
-16
-16
-16
-16
-17
-18
-17
-16
-16
-15
-15
-15
-14
-15
-17
-20
-23
-25
-26
-25
-25
-25
-26
-26
-24
-23
-20
-19
-18
-11
8
41
95
171
276
359
396
394
344
258
156
69
11
-27
-46
-53
-56
-59
-64
-65
-66
-64
-62
-60
-58
-58
-56
-55
-52
-51
-51
-50
-50
-48
-48
-46
-47
-47
-47
-46
-45
-45
-47
-47
-46
-47
-47
-46
-46
-47
-50
-53
-55
-55
-56
-58
-61
-64
-64
-66
-68
-69
-68
-65
-62
-59
-54
-48
-43
-37
-32
-25
-22
-18
-15
-13
-13
-13
-12
-9
-9
-10
-12
-12
-12
-13
-14
-15
-16
-16
-16
-18
-19
-20
-20
-22
-22
-21
-19
-18
-18
-16
-14
-11
-9
-8
-7
-6
-4
0
3
5
9
13
17
20
23
22
19
14
11
9
8
6
0
-5
-10
-12
-12
-13
-15
-16
-15
-15
-16
-17
-16
-17
-18
-18
-20
-21
-23
-24
-24
-25
-24
-25
-25
-25
-26
-24
-22
-19
-19
-19
-20
-19
-13
2
31
72
131
218
309
373
396
380
337
241
140
55
-4
-35
-50
-54
-56
-59
-60
-60
-58
-56
-55
-54
-53
-51
-49
-45
-44
-43
-41
-39
-37
-37
-36
-36
-35
-33
-30
-29
-30
-31
-31
-31
-32
-32
-33
-34
-35
-36
-36
-37
-39
-41
-43
-45
-47
-48
-50
-51
-51
-48
-46
-45
-43
-40
-34
-29
-23
-18
-12
-7
-4
-1
0
2
4
5
4
4
4
3
1
0
0
0
0
-1
-2
-3
-4
-6
-6
-7
-8
-8
-8
-6
-5
-3
-1
0
1
2
6
8
11
14
19
22
24
24
23
21
16
12
9
8
5
1
-2
-7
-8
-8
-9
-10
-11
-11
-12
-13
-14
-13
-12
-12
-11
-11
-11
-12
-14
-16
-19
-20
-21
-21
-22
-21
-19
-17
-16
-15
-13
-12
-10
-2
18
52
96
165
255
339
390
400
386
336
238
140
51
-2
-31
-42
-47
-50
-54
-57
-56
-54
-54
-53
-51
-49
-47
-45
-42
-42
-41
-39
-36
-34
-33
-35
-37
-37
-36
-35
-34
-33
-34
-34
-34
-35
-35
-36
-36
-37
-38
-40
-43
-44
-46
-47
-50
-51
-53
-54
-55
-56
-55
-54
-53
-52
-48
-43
-38
-33
-27
-22
-20
-16
-12
-9
-8
-7
-6
-5
-5
-5
-6
-7
-10
-12
-13
-14
-14
-15
-16
-17
-18
-18
-20
-22
-22
-22
-23
-21
-18
-16
-16
-15
-14
-12
-10
-8
-4
0
1
5
10
15
17
15
12
6
2
1
2
0
-3
-7
-12
-16
-18
-19
-18
-19
-21
-21
-20
-20
-19
-19
-18
-17
-15
-14
-16
-19
-21
-21
-21
-23
-24
-26
-27
-27
-27
-26
-24
-22
-21
-20
-20
-15
2
35
81
141
221
314
382
404
383
319
209
102
28
-20
-48
-61
-64
-66
-70
-73
-71
-70
-69
-69
-66
-64
-63
-60
-58
-56
-56
-55
-52
-50
-49
-49
-48
-47
-46
-46
-44
-45
-45
-45
-44
-43
-45
-46
-48
-48
-49
-50
-50
-53
-55
-59
-60
-63
-65
-65
-66
-66
-66
-64
-64
-61
-57
-51
-43
-37
-31
-26
-20
-16
-13
-10
-8
-7
-7
-6
-5
-5
-4
-4
-6
-8
-10
-10
-9
-11
-12
-13
-13
-14
-14
-14
-15
-15
-15
-14
-15
-15
-13
-10
-8
-7
-5
-1
2
3
5
8
13
17
22
23
21
18
12
7
6
5
3
-3
-9
-12
-15
-15
-16
-17
-19
-19
-18
-17
-16
-17
-17
-16
-17
-19
-21
-22
-23
-23
-24
-25
-27
-26
-25
-23
-23
-21
-19
-18
-19
-19
-17
-12
5
36
89
156
242
328
381
391
349
242
127
37
-14
-40
-53
-56
-57
-61
-65
-65
-65
-63
-62
-59
-58
-56
-55
-54
-52
-50
-48
-47
-47
-46
-45
-44
-43
-42
-44
-42
-42
-41
-41
-43
-43
-43
-42
-43
-42
-43
-45
-48
-51
-51
-52
-53
-55
-56
-57
-58
-57
-55
-55
-55
-52
-48
-44
-38
-30
-24
-20
-14
-10
-6
-4
-2
0
0
0
0
0
0
0
0
0
-1
-2
-2
-2
-3
-3
-2
-3
-5
-5
-5
-5
-5
-4
-3
-2
-1
2
4
6
9
14
19
22
25
30
34
34
34
33
30
24
20
19
17
12
6
2
0
-1
-2
-3
-5
-8
-9
-9
-9
-9
-8
-7
-7
-8
-9
-9
-11
-14
-15
-16
-18
-20
-20
-19
-18
-17
-15
-13
-12
-11
-11
-7
6
38
88
155
247
335
395
398
350
250
138
54
2
-29
-44
-50
-51
-54
-56
-58
-57
-53
-52
-50
-47
-45
-44
-43
-42
-41
-40
-39
-38
-38
-36
-36
-34
-32
-31
-30
-33
-34
-34
-32
-31
-30
-30
-30
-32
-34
-36
-37
-38
-40
-43
-44
-45
-46
-48
-48
-48
-48
-46
-43
-40
-36
-30
-24
-18
-13
-7
-4
-1
0
3
4
6
7
8
9
9
9
9
8
8
8
8
6
5
5
5
4
4
6
6
6
6
7
8
8
7
8
8
7
7
9
13
16
20
25
30
33
34
35
34
33
28
24
21
20
18
13
9
5
4
4
3
1
1
0
-1
-2
-3
-2
-2
-3
-3
-4
-5
-6
-6
-8
-10
-13
-14
-13
-15
-14
-12
-10
-9
-8
-6
-5
-3
0
11
33
75
136
222
313
373
401
383
331
236
132
57
9
-18
-34
-42
-44
-47
-49
-51
-50
-49
-49
-47
-46
-44
-44
-42
-42
-40
-38
-36
-36
-37
-37
-37
-35
-34
-33
-33
-32
-30
-30
-32
-33
-33
-32
-33
-34
-35
-37
-39
-40
-42
-43
-46
-49
-51
-52
-52
-53
-54
-55
-53
-51
-46
-41
-36
-30
-23
-18
-17
-15
-11
-7
-6
-4
-1
0
0
0
0
-1
-2
-3
-4
-5
-6
-6
-7
-8
-9
-9
-10
-12
-12
-11
-10
-9
-8
-7
-6
-5
-4
-2
-3
-2
-1
3
6
7
9
13
20
24
26
26
26
23
20
17
16
15
9
3
-2
-5
-5
-6
-8
-10
-9
-9
-9
-9
-10
-12
-13
-13
-15
-18
-20
-22
-22
-24
-24
-26
-26
-24
-21
-20
-20
-20
-19
-16
-14
-14
-12
-2
18
52
102
180
269
343
385
382
354
279
176
82
10
-26
-44
-52
-56
-61
-63
-64
-62
-61
-59
-57
-58
-55
-54
-52
-51
-50
-48
-46
-46
-46
-44
-43
-44
-44
-42
-42
-42
-41
-42
-43
-43
-42
-42
-43
-43
-45
-45
-46
-48
-49
-49
-52
-54
-54
-55
-55
-57
-56
-55
-54
-51
-47
-43
-39
-34
-29
-24
-19
-14
-11
-9
-7
-5
-4
-4
-3
-3
-3
-3
-2
-1
-4
-7
-8
-8
-7
-7
-7
-8
-8
-8
-9
-8
-8
-7
-6
-5
-7
-7
-7
-6
-6
-5
-3
-1
1
5
10
14
18
20
20
17
15
11
7
6
5
2
-3
-8
-11
-12
-13
-15
-17
-19
-19
-19
-18
-17
-18
-19
-21
-22
-23
-25
-26
-27
-28
-30
-29
-29
-30
-28
-27
-26
-25
-23
-21
-20
-18
-11
6
34
73
134
212
300
359
380
366
293
190
87
14
-23
-42
-49
-53
-58
-62
-65
-65
-64
-63
-61
-59
-57
-56
-53
-51
-50
-48
-48
-47
-45
-43
-42
-41
-41
-40
-41
-40
-39
-37
-36
-36
-37
-38
-39
-40
-42
-42
-43
-44
-46
-48
-50
-52
-51
-51
-52
-53
-53
-52
-50
-47
-43
-38
-33
-25
-18
-14
-10
-6
-2
0
2
6
9
10
9
8
8
8
9
8
8
7
7
5
3
5
8
8
6
5
5
6
7
6
8
11
14
17
18
19
21
23
25
28
31
33
35
37
38
36
35
32
29
28
27
22
15
11
8
5
3
3
3
2
2
1
1
0
0
0
0
0
-2
-3
-4
-7
-9
-9
-9
-10
-8
-5
-4
-6
-6
-3
0
2
2
5
15
42
89
157
248
342
408
432
408
333
211
100
34
-7
-30
-39
-40
-42
-47
-52
-53
-51
-48
-47
-46
-44
-42
-40
-38
-34
-34
-37
-38
-36
-35
-34
-32
-31
-30
-30
-30
-30
-29
-28
-29
-30
-31
-31
-32
-32
-34
-35
-37
-38
-40
-42
-44
-45
-47
-48
-49
-48
-47
-46
-44
-40
-36
-30
-21
-15
-9
-4
2
7
9
12
14
17
19
20
21
21
21
21
21
20
18
19
20
20
18
17
18
16
17
18
20
21
22
23
24
25
24
26
27
26
24
23
24
24
25
27
29
28
26
29
33
37
38
39
37
34
30
27
26
23
19
13
7
2
1
1
-1
-3
-5
-5
-7
-7
-6
-7
-10
-13
-14
-15
-16
-19
-21
-22
-24
-25
-24
-22
-21
-23
-22
-20
-18
-17
-16
-17
-16
-9
11
43
84
146
226
318
369
384
364
302
201
109
32
-14
-42
-57
-64
-65
-67
-67
-66
-64
-63
-62
-58
-52
-48
-47
-47
-48
-49
-50
-51
-48
-47
-46
-46
-46
-46
-49
-50
-50
-48
-46
-49
-53
-54
-51
-52
-53
-56
-54
-54
-54
-55
-58
-61
-64
-66
-69
-69
-70
-72
-71
-69
-68
-68
-63
-61
-57
-52
-48
-44
-40
-38
-39
-39
-37
-34
-34
-33
-34
-34
-35
-37
-39
-41
-41
-42
-43
-44
-45
-45
-48
-51
-52
-53
-54
-52
-51
-50
-49
-47
-43
-40
-38
-35
-34
-32
-29
-26
-28
-31
-34
-37
-38
-40
-42
-47
-52
-57
-59
-58
-60
-63
-64
-63
-63
-63
-63
-64
-64
-65
-65
-68
-72
-75
-77
-78
-79
-80
-80
-79
-79
-77
-76
-75
-74
-75
-73
-72
-69
-65
-55
-35
2
55
128
198
267
308
309
274
199
105
20
-37
-66
-81
-88
-94
-97
-97
-99
-100
-102
-99
-99
-99
-96
-94
-91
-91
-87
-84
-81
-83
-86
-86
-84
-79
-81
-83
-86
-85
-83
-81
-78
-78
-76
-75
-74
-77
-78
-79
-81
-81
-85
-85
-86
-86
-87
-86
-85
-84
-84
-84
-82
-79
-75
-73
-70
-64
-57
-52
-50
-49
-48
-46
-43
-38
-35
-32
-28
-30
-36
-39
-38
-39
-40
-39
-37
-37
-41
-42
-42
-43
-44
-46
-46
-48
-49
-49
-47
-44
-43
-45
-46
-44
-43
-42
-39
-37
-36
-34
-29
-25
-22
-21
-24
-30
-33
-35
-37
-38
-41
-46
-51
-52
-50
-47
-47
-49
-50
-48
-42
-42
-43
-45
-48
-51
-51
-48
-45
-43
-41
-41
-42
-42
-35
-16
1
8
-8
-47
-71
-50
-20
-22
-41
-38
6
65
120
171
217
281
336
358
288
150
46
-1
-18
-19
-4
19
25
-7
-58
-72
-32
31
70
51
-18
-73
-69
-17
58
112
87
12
-27
-25
-21
-18
-5
14
27
26
14
4
18
43
55
45
34
37
38
25
21
36
55
62
46
24
13
7
-2
-7
8
37
48
20
-8
3
40
58
60
84
91
47
0
11
56
90
82
39
7
3
20
38
45
47
75
114
100
50
23
33
49
55
54
39
14
10
42
79
88
63
34
11
0
19
58
78
74
61
58
87
97
61
34
55
87
65
22
24
63
93
88
52
8
-3
1
0
7
30
54
50
22
8
28
61
82
67
31
2
-23
-36
-25
-5
9
14
15
5
-2
-1
2
2
2
4
5
5
2
0
6
24
55
98
156
238
331
381
393
351
260
160
75
21
-15
-35
-42
-46
-51
-56
-56
-54
-51
-49
-48
-45
-43
-39
-37
-35
-33
-33
-32
-31
-29
-28
-27
-25
-25
-26
-26
-26
-26
-26
-26
-24
-24
-26
-29
-33
-35
-38
-41
-44
-48
-49
-54
-59
-57
-52
-60
-73
-80
-77
-66
-61
-57
-50
-45
-50
-56
-55
-53
-48
-39
-25
-14
-9
-7
-5
-3
-1
0
1
2
2
1
2
2
2
2
2
0
-1
-2
-2
-1
-1
0
0
-1
-1
0
1
2
2
4
5
8
10
13
16
19
24
27
31
33
34
35
33
31
25
22
18
17
14
9
4
0
0
-1
-1
-1
0
0
1
1
0
-1
-2
-4
-6
-6
-6
-9
-11
-12
-12
-12
-11
-9
-9
-9
-8
-7
-7
-7
-5
-4
-4
-4
5
29
62
112
186
286
367
398
396
354
269
171
83
25
-18
-43
-48
-45
-46
-50
-57
-61
-61
-57
-52
-50
-48
-47
-45
-44
-43
-40
-37
-32
-20
-8
-4
-20
-42
-52
-57
-64
-62
-52
-45
-47
-46
-44
-42
-40
-39
-36
-34
-31
-28
-23
-21
-25
-41
-51
-43
-37
-44
-64
-82
-88
-71
-50
-38
-28
-23
-22
-22
-18
-13
-7
-4
-2
0
0
0
1
2
1
-1
-4
-5
-5
-2
10
25
26
3
-26
-40
-35
-24
-17
-12
-8
-8
-10
-9
-7
-3
0
1
0
0
7
13
18
21
25
26
22
16
11
12
10
7
7
10
13
7
-10
-22
-16
-6
-12
-23
-26
-21
-18
-18
-18
-18
-17
-18
-19
-21
-23
-24
-25
-26
-25
-24
-24
-23
-23
-22
-21
-20
-18
-17
-16
-16
-13
-4
19
57
112
181
270
351
389
390
357
270
167
86
30
-6
-32
-45
-50
-53
-56
-56
-56
-55
-59
-60
-58
-54
-54
-53
-49
-48
-51
-54
-53
-53
-53
-53
-52
-50
-50
-51
-53
-54
-54
-54
-54
-55
-56
-57
-56
-56
-57
-57
-58
-58
-59
-60
-62
-62
-62
-62
-60
-60
-59
-58
-54
-52
-48
-43
-38
-31
-26
-20
-14
-9
-5
-2
1
5
5
6
7
8
7
8
9
7
6
5
5
3
1
0
0
1
0
1
2
2
1
2
3
2
2
4
5
6
8
11
12
14
16
20
22
25
28
32
33
32
30
25
21
18
18
16
11
7
3
2
0
0
0
1
0
1
1
2
1
0
0
-1
-3
-4
-5
-7
-9
-11
-11
-12
-12
-11
-11
-10
-10
-10
-10
-8
-7
-7
-6
2
19
55
97
156
228
312
375
391
380
325
220
117
41
-5
-32
-46
-51
-55
-58
-60
-59
-58
-56
-56
-55
-52
-51
-50
-49
-47
-48
-48
-47
-46
-46
-46
-44
-43
-42
-42
-42
-41
-42
-42
-41
-41
-43
-43
-43
-44
-45
-47
-48
-50
-50
-52
-52
-53
-54
-56
-57
-57
-57
-55
-53
-51
-47
-43
-38
-32
-27
-22
-17
-14
-10
-8
-6
-6
-5
-6
-5
-3
-4
-3
-4
-6
-8
-9
-11
-13
-14
-15
-16
-16
-16
-16
-16
-17
-17
-18
-17
-18
-17
-15
-13
-14
-13
-10
-7
-4
-1
2
5
8
10
10
8
5
0
-3
-6
-7
-9
-13
-18
-22
-23
-22
-22
-22
-22
-22
-22
-21
-22
-23
-24
-25
-27
-28
-30
-31
-32
-34
-35
-35
-35
-34
-33
-32
-31
-30
-29
-27
-25
-24
-23
-21
-13
2
32
73
140
214
296
354
367
345
266
157
63
2
-29
-47
-55
-57
-62
-65
-67
-66
-67
-66
-64
-64
-61
-60
-57
-57
-55
-54
-52
-51
-51
-50
-50
-49
-49
-48
-48
-48
-48
-48
-47
-47
-47
-47
-47
-48
-49
-51
-53
-54
-56
-58
-60
-61
-62
-63
-63
-64
-62
-62
-61
-59
-56
-52
-48
-42
-36
-31
-27
-22
-19
-17
-15
-12
-10
-10
-9
-10
-9
-10
-11
-12
-12
-13
-15
-15
-15
-16
-16
-16
-16
-17
-17
-17
-17
-16
-16
-15
-14
-13
-12
-11
-10
-9
-7
-4
-2
0
1
4
6
9
10
11
9
6
3
0
-3
-5
-7
-10
-17
-21
-22
-23
-23
-22
-20
-21
-23
-23
-23
-23
-25
-27
-27
-29
-32
-34
-36
-39
-40
-40
-40
-41
-40
-38
-37
-36
-35
-32
-32
-31
-30
-27
-18
1
36
90
159
247
322
357
354
295
198
94
19
-19
-46
-61
-67
-69
-72
-76
-76
-75
-74
-72
-71
-69
-67
-65
-64
-62
-59
-58
-56
-54
-51
-52
-51
-50
-49
-48
-48
-47
-47
-48
-48
-48
-49
-49
-50
-50
-50
-52
-52
-54
-54
-57
-59
-61
-63
-64
-66
-65
-65
-64
-62
-59
-54
-50
-43
-38
-33
-29
-24
-21
-19
-18
-17
-15
-14
-13
-13
-13
-14
-14
-14
-15
-16
-17
-17
-19
-20
-19
-19
-20
-21
-21
-20
-20
-20
-19
-19
-19
-18
-16
-15
-14
-10
-7
-4
-2
0
3
6
8
9
10
7
4
0
-2
-4
-5
-9
-16
-20
-22
-23
-24
-25
-23
-24
-23
-23
-24
-23
-23
-24
-26
-26
-28
-30
-32
-34
-35
-36
-35
-35
-34
-34
-34
-32
-32
-31
-31
-29
-29
-28
-20
1
37
86
160
257
335
373
367
319
237
135
54
-2
-34
-51
-57
-60
-64
-69
-70
-69
-67
-67
-64
-62
-62
-61
-60
-58
-57
-56
-55
-55
-55
-54
-53
-52
-52
-52
-51
-51
-52
-51
-51
-52
-52
-51
-52
-54
-55
-56
-57
-59
-59
-61
-62
-64
-66
-66
-67
-67
-67
-67
-66
-64
-57
-52
-46
-42
-36
-30
-24
-20
-18
-14
-10
-8
-6
-4
-3
-4
-4
-4
-4
-5
-6
-6
-7
-7
-7
-7
-7
-8
-8
-8
-7
-6
-5
-4
-4
-3
-2
-1
0
1
2
1
3
6
10
12
15
17
20
23
23
24
21
17
14
11
9
5
0
-6
-10
-12
-11
-9
-10
-11
-11
-10
-10
-11
-12
-13
-14
-15
-16
-18
-20
-22
-24
-24
-26
-26
-24
-23
-21
-21
-20
-19
-18
-17
-17
-17
-16
-9
8
39
84
155
243
333
385
400
380
326
225
129
46
-4
-33
-46
-51
-53
-58
-61
-61
-61
-61
-60
-59
-59
-57
-56
-54
-54
-54
-52
-51
-49
-49
-48
-47
-47
-46
-45
-44
-45
-45
-45
-44
-46
-46
-46
-47
-48
-50
-50
-52
-53
-56
-57
-59
-61
-61
-63
-63
-64
-63
-63
-62
-59
-56
-51
-48
-43
-36
-30
-25
-20
-16
-14
-12
-11
-9
-8
-8
-8
-7
-8
-9
-9
-8
-8
-9
-9
-10
-11
-11
-11
-11
-11
-10
-11
-10
-10
-11
-10
-9
-8
-8
-7
-5
-4
-4
-3
-2
0
1
3
7
9
12
14
17
18
17
16
12
8
5
5
5
3
0
-6
-9
-11
-12
-13
-14
-16
-17
-17
-19
-21
-22
-23
-25
-26
-26
-25
-25
-25
-23
-22
-22
-21
-20
-18
-18
-17
-15
-14
-14
-12
-12
-12
-9
2
29
63
112
175
271
352
389
388
338
242
138
52
-2
-33
-45
-50
-53
-57
-61
-60
-60
-58
-58
-57
-55
-53
-51
-50
-49
-49
-48
-48
-47
-47
-46
-44
-42
-42
-43
-43
-42
-42
-41
-41
-41
-42
-43
-43
-44
-45
-47
-48
-49
-51
-53
-54
-56
-58
-59
-61
-62
-63
-62
-62
-60
-57
-52
-47
-42
-37
-32
-27
-23
-20
-17
-14
-13
-12
-11
-10
-10
-10
-9
-9
-10
-10
-10
-12
-13
-12
-14
-15
-15
-15
-15
-15
-15
-15
-14
-14
-12
-10
-8
-7
-4
0
3
6
9
13
16
18
19
18
14
9
5
2
1
-1
-5
-11
-16
-19
-19
-19
-19
-19
-18
-18
-19
-20
-21
-22
-24
-26
-27
-27
-29
-30
-29
-28
-29
-27
-26
-24
-24
-22
-20
-20
-19
-18
-17
-16
-16
-11
4
32
73
136
217
317
377
402
381
304
193
86
15
-20
-41
-48
-53
-57
-63
-65
-63
-64
-63
-63
-60
-59
-57
-54
-53
-51
-50
-49
-49
-47
-46
-45
-45
-45
-45
-45
-45
-45
-44
-44
-44
-45
-45
-45
-47
-49
-51
-53
-53
-54
-55
-58
-59
-60
-61
-62
-61
-61
-61
-59
-56
-51
-47
-41
-35
-29
-25
-20
-15
-11
-9
-7
-4
-2
-2
-2
-3
-5
-5
-5
-5
-6
-8
-9
-10
-11
-11
-11
-10
-10
-10
-10
-9
-8
-8
-7
-6
-5
-4
-2
0
1
1
3
6
9
12
17
21
23
24
23
20
16
12
10
7
3
-3
-9
-13
-13
-12
-11
-12
-12
-10
-9
-9
-10
-10
-8
-8
-9
-10
-12
-13
-13
-12
-14
-17
-19
-20
-21
-20
-17
-17
-15
-13
-10
-9
-9
-6
7
35
81
150
246
346
405
428
405
339
230
114
36
-11
-35
-46
-52
-55
-60
-63
-64
-65
-62
-61
-58
-57
-56
-56
-56
-55
-55
-54
-54
-52
-50
-50
-51
-52
-52
-52
-51
-50
-49
-49
-50
-51
-51
-51
-52
-53
-54
-57
-59
-59
-60
-61
-62
-65
-67
-68
-68
-69
-68
-66
-63
-57
-51
-45
-40
-36
-30
-25
-19
-13
-10
-7
-5
-3
-1
0
0
0
1
2
3
2
1
0
0
0
0
0
0
0
0
0
1
0
0
1
1
1
1
3
5
6
7
9
11
13
14
16
21
22
25
27
31
33
32
29
23
18
14
13
11
7
2
-1
-3
-5
-6
-6
-6
-6
-7
-7
-9
-11
-13
-16
-18
-20
-22
-25
-26
-26
-25
-23
-23
-21
-20
-18
-17
-15
-13
-12
-12
-11
-10
-10
-6
9
36
73
122
200
300
377
412
403
355
257
139
55
-1
-30
-42
-47
-50
-55
-58
-57
-57
-56
-56
-54
-53
-53
-52
-50
-48
-46
-45
-43
-41
-41
-40
-39
-38
-38
-37
-36
-37
-37
-36
-36
-36
-37
-37
-38
-39
-40
-42
-43
-45
-46
-49
-50
-53
-54
-54
-55
-54
-54
-52
-53
-53
-50
-44
-37
-32
-26
-20
-14
-9
-5
-1
0
1
2
3
2
0
0
0
0
0
-1
0
-1
-2
-2
-2
-2
-3
-4
-5
-5
-4
-4
-4
-4
-2
0
2
4
7
10
12
16
19
24
26
28
30
30
28
24
20
15
11
9
8
2
-3
-8
-10
-10
-10
-11
-11
-11
-12
-13
-13
-14
-17
-18
-19
-21
-25
-26
-26
-26
-25
-25
-24
-23
-21
-20
-19
-18
-18
-16
-14
-13
-13
-13
-9
1
24
63
115
184
271
351
399
404
361
262
144
53
0
-32
-46
-50
-53
-57
-59
-60
-57
-56
-55
-55
-54
-53
-51
-50
-49
-47
-47
-46
-46
-45
-45
-46
-44
-42
-41
-41
-40
-39
-39
-38
-37
-36
-37
-39
-42
-43
-44
-46
-47
-49
-51
-54
-55
-56
-57
-57
-58
-57
-58
-56
-55
-50
-46
-42
-37
-33
-27
-22
-16
-13
-11
-9
-6
-5
-4
-3
-3
-4
-5
-4
-5
-6
-8
-8
-9
-10
-9
-9
-10
-11
-10
-9
-9
-9
-8
-7
-7
-8
-7
-6
-5
-3
0
1
3
5
8
10
13
16
17
17
14
11
8
5
1
0
-2
-8
-14
-18
-21
-21
-21
-21
-22
-21
-20
-20
-21
-23
-25
-28
-30
-31
-32
-34
-35
-36
-36
-35
-36
-35
-33
-33
-32
-31
-29
-27
-25
-24
-23
-23
-18
-6
23
65
127
212
308
374
380
336
240
131
47
-5
-36
-52
-59
-62
-65
-67
-69
-67
-63
-61
-61
-61
-58
-56
-54
-54
-52
-52
-51
-49
-49
-48
-48
-46
-46
-45
-45
-45
-45
-46
-46
-46
-45
-46
-46
-46
-48
-49
-51
-53
-56
-58
-59
-60
-61
-62
-63
-64
-65
-64
-61
-57
-55
-52
-47
-41
-36
-30
-24
-21
-19
-16
-13
-10
-8
-6
-5
-5
-4
-5
-5
-6
-7
-9
-12
-13
-14
-14
-14
-15
-15
-16
-16
-16
-14
-12
-12
-11
-10
-8
-7
-3
-2
-2
-2
0
1
2
4
7
11
15
18
20
20
16
13
9
6
3
-1
-6
-11
-13
-12
-11
-11
-13
-16
-17
-17
-19
-20
-20
-21
-23
-24
-23
-25
-27
-29
-28
-27
-27
-27
-26
-25
-24
-22
-21
-21
-20
-18
-17
-16
-10
4
38
88
168
257
338
391
398
376
309
200
99
26
-12
-35
-46
-49
-53
-56
-58
-56
-57
-55
-53
-52
-50
-49
-46
-46
-45
-43
-42
-42
-42
-42
-42
-42
-43
-42
-42
-43
-42
-42
-41
-42
-42
-43
-44
-44
-43
-44
-45
-46
-49
-50
-53
-54
-56
-58
-59
-62
-63
-63
-62
-59
-56
-52
-48
-43
-38
-33
-28
-21
-18
-14
-13
-11
-9
-8
-7
-8
-8
-8
-8
-8
-8
-8
-9
-9
-9
-10
-11
-11
-11
-11
-9
-8
-7
-8
-7
-6
-6
-5
-4
-3
-4
-4
-2
0
1
4
7
10
12
16
20
22
22
20
18
13
10
7
5
1
-3
-8
-10
-11
-11
-10
-9
-11
-11
-11
-11
-13
-14
-14
-16
-19
-20
-20
-20
-20
-19
-18
-17
-17
-17
-16
-16
-15
-14
-12
-12
-12
-12
-12
-9
1
24
60
102
166
254
345
407
417
400
329
208
100
17
-27
-47
-55
-56
-61
-64
-65
-63
-61
-61
-59
-58
-56
-54
-52
-51
-50
-49
-47
-46
-46
-44
-43
-42
-41
-41
-40
-40
-40
-40
-39
-39
-40
-40
-41
-42
-45
-45
-46
-46
-49
-51
-52
-54
-56
-58
-58
-59
-60
-59
-58
-56
-54
-49
-44
-38
-32
-26
-20
-15
-10
-6
-2
-2
0
1
1
0
0
0
0
-1
-2
-2
-3
-4
-4
-5
-6
-8
-8
-8
-9
-9
-8
-9
-10
-10
-9
-8
-7
-5
-3
0
3
6
11
13
16
19
21
20
16
12
8
4
3
2
-3
-10
-15
-18
-19
-19
-18
-18
-18
-18
-19
-18
-20
-20
-22
-23
-24
-26
-28
-30
-30
-29
-29
-29
-29
-27
-25
-23
-21
-20
-20
-19
-18
-17
-16
-14
-3
21
65
132
213
311
387
416
406
330
209
95
19
-18
-43
-55
-57
-60
-64
-68
-68
-67
-66
-65
-64
-62
-61
-59
-58
-55
-53
-53
-50
-48
-47
-48
-49
-49
-49
-50
-50
-49
-48
-47
-48
-50
-52
-53
-52
-53
-54
-56
-57
-60
-62
-62
-64
-65
-68
-70
-71
-71
-70
-70
-66
-64
-61
-58
-50
-42
-35
-29
-24
-19
-15
-11
-9
-6
-6
-6
-6
-5
-4
-5
-5
-5
-6
-7
-7
-7
-9
-10
-11
-10
-10
-10
-8
-7
-8
-7
-5
-4
-5
-5
-2
-3
-3
-1
1
3
5
7
9
12
14
19
22
26
29
29
28
23
17
12
10
8
3
-3
-11
-13
-12
-11
-11
-12
-12
-12
-11
-11
-12
-13
-16
-19
-20
-21
-23
-25
-25
-24
-24
-23
-21
-20
-19
-19
-19
-18
-18
-17
-15
-13
-13
-11
-2
21
63
131
228
331
404
433
422
371
268
148
60
0
-29
-47
-54
-57
-62
-67
-68
-67
-66
-66
-64
-64
-62
-59
-56
-56
-57
-58
-57
-57
-56
-55
-53
-54
-54
-53
-51
-52
-51
-48
-49
-50
-50
-48
-49
-50
-50
-49
-50
-51
-52
-54
-54
-55
-57
-58
-60
-59
-59
-56
-55
-52
-48
-43
-38
-33
-26
-20
-14
-9
-4
-1
0
1
4
4
5
6
5
3
3
3
3
1
0
0
1
0
-1
-3
-4
-4
-3
-2
0
0
-1
-1
-1
0
1
3
4
4
5
4
4
3
5
6
8
9
10
13
16
20
23
28
29
26
23
19
15
11
11
12
9
2
-4
-7
-9
-10
-12
-13
-15
-16
-17
-18
-20
-20
-18
-17
-17
-15
-13
-11
-11
-12
-11
-11
-10
-9
-9
-9
-9
-8
-6
-5
-4
-3
-3
0
12
41
76
126
192
290
378
419
422
379
281
162
64
4
-26
-41
-46
-50
-55
-58
-57
-56
-55
-54
-53
-51
-49
-46
-46
-45
-45
-44
-43
-42
-42
-43
-42
-42
-41
-41
-40
-40
-39
-39
-40
-40
-41
-41
-41
-42
-44
-46
-46
-48
-49
-51
-52
-55
-58
-58
-57
-57
-59
-57
-55
-53
-50
-45
-39
-33
-29
-24
-17
-13
-10
-6
-4
-4
-3
-2
0
0
0
0
0
-1
-2
-1
-2
-3
-4
-6
-8
-9
-10
-10
-9
-8
-8
-7
-9
-9
-8
-6
-7
-6
-3
-3
-2
0
3
6
8
11
15
18
18
18
17
14
8
3
1
0
-2
-8
-14
-18
-19
-19
-20
-21
-23
-25
-27
-27
-28
-30
-30
-30
-31
-32
-30
-30
-29
-29
-29
-28
-26
-25
-24
-25
-25
-23
-22
-21
-19
-17
-16
-16
-11
4
36
80
153
248
345
403
404
364
270
157
65
1
-32
-50
-59
-62
-67
-71
-75
-73
-73
-72
-71
-70
-68
-67
-64
-64
-64
-62
-61
-59
-59
-59
-59
-57
-57
-58
-59
-59
-58
-58
-57
-57
-58
-59
-60
-59
-57
-57
-59
-61
-64
-66
-67
-68
-69
-71
-71
-73
-73
-72
-71
-69
-65
-59
-51
-45
-40
-35
-30
-26
-22
-18
-14
-12
-10
-9
-8
-8
-7
-8
-11
-12
-11
-10
-13
-15
-15
-14
-15
-17
-17
-16
-16
-16
-15
-14
-14
-14
-12
-11
-12
-12
-11
-10
-11
-9
-7
-6
-6
-6
-6
-6
-5
-2
1
3
6
9
10
10
7
3
-1
-1
0
-2
-9
-15
-18
-20
-22
-23
-24
-26
-27
-29
-30
-30
-32
-35
-36
-37
-37
-38
-36
-35
-35
-33
-31
-30
-30
-29
-29
-28
-27
-25
-24
-22
-20
-22
-20
-12
7
42
93
159
248
334
396
407
380
307
180
78
9
-32
-51
-57
-61
-65
-68
-68
-68
-67
-66
-67
-66
-64
-62
-63
-62
-62
-60
-58
-57
-56
-55
-54
-54
-53
-53
-52
-51
-50
-51
-51
-49
-48
-50
-51
-51
-52
-53
-54
-55
-56
-58
-60
-63
-66
-67
-68
-68
-68
-67
-66
-64
-62
-58
-51
-43
-36
-29
-23
-18
-15
-11
-8
-5
-4
-3
-3
-3
-3
-3
-2
-1
-1
-4
-7
-9
-8
-8
-8
-9
-9
-8
-8
-8
-8
-7
-6
-4
-4
-2
0
0
0
0
1
0
1
1
2
4
8
11
14
17
21
24
25
24
22
18
15
11
10
7
1
-5
-10
-12
-15
-16
-18
-20
-22
-23
-24
-25
-25
-25
-24
-24
-24
-24
-22
-21
-21
-20
-19
-19
-18
-16
-15
-14
-13
-10
-9
-7
-6
-5
-5
-3
7
31
68
120
196
298
378
405
387
332
225
126
56
8
-17
-33
-40
-43
-46
-49
-50
-49
-48
-47
-45
-43
-41
-40
-39
-39
-38
-37
-36
-35
-34
-33
-33
-32
-32
-32
-31
-31
-30
-31
-30
-30
-31
-30
-31
-32
-32
-32
-32
-33
-36
-38
-39
-42
-44
-46
-46
-46
-48
-46
-46
-43
-41
-36
-31
-26
-22
-16
-9
-6
-5
-4
-2
0
1
2
3
4
5
5
4
3
2
2
1
0
-1
-2
-3
-3
-2
-4
-5
-5
-5
-4
-4
-4
-4
-2
-2
-1
-1
0
1
2
6
10
13
14
17
20
24
26
25
25
21
17
14
13
11
8
3
-2
-7
-9
-10
-10
-12
-15
-17
-18
-18
-20
-21
-22
-22
-24
-23
-21
-21
-21
-20
-19
-19
-18
-16
-13
-13
-13
-13
-12
-11
-12
-10
-7
-6
-3
8
30
67
122
200
295
365
405
405
376
308
202
99
29
-11
-32
-43
-48
-53
-56
-57
-57
-56
-54
-53
-53
-51
-50
-48
-48
-48
-47
-46
-43
-43
-41
-41
-42
-45
-43
-43
-43
-42
-41
-39
-39
-41
-43
-44
-44
-43
-43
-44
-45
-48
-49
-49
-50
-52
-55
-57
-58
-58
-56
-54
-52
-51
-49
-46
-42
-38
-32
-26
-20
-14
-10
-8
-6
-3
0
2
1
1
1
1
0
0
0
-2
-3
-5
-6
-9
-11
-11
-12
-13
-12
-11
-12
-13
-12
-12
-12
-13
-13
-12
-10
-9
-7
-4
-3
-2
-1
0
1
4
7
12
17
20
21
21
20
19
16
12
9
9
7
1
-5
-9
-11
-12
-14
-15
-16
-17
-20
-22
-21
-22
-23
-23
-22
-21
-20
-18
-17
-18
-18
-19
-19
-18
-16
-14
-13
-15
-16
-13
-9
-9
-10
-10
-9
-2
15
53
104
182
272
359
404
392
333
216
104
35
-3
-28
-44
-50
-51
-57
-62
-65
-63
-63
-61
-60
-59
-58
-57
-55
-54
-52
-51
-50
-48
-48
-49
-51
-50
-49
-46
-45
-44
-44
-45
-44
-43
-43
-44
-44
-44
-44
-44
-44
-44
-47
-49
-49
-48
-49
-51
-53
-54
-52
-52
-50
-48
-45
-42
-36
-30
-24
-20
-14
-9
-7
-5
-3
0
2
3
3
3
2
1
0
0
-1
-1
-2
-3
-5
-6
-7
-8
-10
-10
-8
-9
-11
-12
-12
-11
-11
-11
-11
-10
-8
-6
-5
-5
-4
-3
-2
-2
0
3
6
7
11
14
17
18
18
15
10
5
2
2
0
-5
-12
-17
-20
-23
-25
-27
-29
-30
-31
-32
-32
-33
-32
-32
-31
-30
-29
-28
-26
-26
-26
-25
-24
-22
-22
-23
-24
-22
-19
-17
-16
-15
-14
-12
0
24
57
101
168
259
348
393
407
386
322
219
107
31
-14
-37
-45
-50
-55
-58
-58
-55
-57
-58
-58
-56
-55
-54
-53
-52
-50
-49
-48
-47
-48
-47
-44
-43
-43
-42
-41
-40
-39
-38
-39
-38
-37
-37
-38
-39
-39
-40
-41
-41
-43
-45
-49
-50
-51
-51
-51
-50
-49
-50
-49
-47
-43
-38
-34
-30
-26
-20
-15
-9
-5
-2
-1
0
0
1
0
0
1
1
0
-1
-3
-4
-5
-7
-9
-10
-10
-12
-12
-12
-14
-16
-16
-16
-17
-16
-13
-12
-12
-10
-7
-5
-2
1
4
7
12
16
19
21
21
20
17
12
10
8
7
3
-1
-5
-10
-11
-12
-14
-15
-15
-15
-17
-18
-20
-21
-22
-24
-25
-26
-27
-29
-29
-27
-25
-24
-24
-24
-24
-23
-22
-21
-22
-22
-20
-19
-19
-21
-18
-8
12
44
89
156
240
321
371
375
332
238
119
35
-13
-36
-49
-53
-55
-60
-65
-65
-65
-64
-64
-63
-61
-60
-57
-55
-54
-53
-53
-53
-51
-50
-51
-52
-52
-51
-51
-50
-50
-50
-51
-52
-51
-50
-49
-50
-51
-53
-55
-54
-55
-55
-58
-59
-59
-59
-58
-60
-60
-60
-59
-59
-56
-53
-50
-43
-36
-29
-24
-20
-16
-12
-9
-8
-7
-5
-4
-5
-5
-4
-6
-7
-7
-9
-11
-12
-12
-11
-13
-13
-16
-18
-18
-17
-16
-15
-15
-16
-16
-15
-14
-12
-10
-9
-10
-9
-8
-7
-6
-4
-2
-1
0
0
3
5
7
11
15
18
18
16
12
8
6
5
1
-3
-9
-14
-16
-16
-16
-17
-18
-19
-22
-25
-27
-30
-31
-30
-30
-31
-31
-30
-30
-29
-27
-25
-24
-25
-24
-23
-23
-23
-21
-19
-18
-17
-16
-16
-15
-6
18
50
95
159
252
342
389
402
385
333
238
132
47
-6
-36
-49
-53
-58
-64
-65
-66
-64
-65
-64
-62
-61
-59
-59
-58
-58
-56
-56
-55
-54
-55
-54
-54
-52
-52
-52
-54
-54
-52
-52
-51
-52
-51
-52
-52
-53
-54
-54
-55
-56
-58
-57
-58
-59
-61
-61
-61
-62
-62
-62
-61
-60
-57
-53
-47
-42
-39
-33
-27
-22
-19
-14
-12
-10
-8
-7
-7
-7
-6
-7
-7
-8
-8
-9
-11
-12
-14
-14
-15
-15
-15
-15
-15
-17
-16
-15
-14
-11
-9
-9
-8
-7
-6
-6
-6
-4
-3
-1
0
2
3
4
7
11
15
16
18
21
24
22
18
14
10
6
4
2
-3
-10
-16
-20
-20
-23
-23
-23
-22
-22
-21
-19
-18
-17
-17
-17
-16
-17
-17
-17
-16
-16
-15
-14
-13
-13
-12
-11
-12
-12
-12
-11
-9
-8
-8
-7
0
19
57
108
183
271
362
399
386
329
214
110
40
-1
-27
-43
-48
-50
-56
-59
-60
-57
-56
-56
-55
-53
-51
-51
-50
-50
-51
-52
-51
-49
-49
-49
-49
-49
-50
-50
-50
-49
-48
-48
-49
-49
-49
-49
-50
-51
-52
-53
-53
-53
-55
-56
-56
-57
-59
-61
-61
-61
-60
-59
-57
-56
-52
-47
-41
-36
-31
-27
-22
-17
-14
-9
-7
-7
-6
-3
-1
-1
-3
-4
-5
-6
-6
-5
-5
-7
-9
-9
-10
-11
-12
-12
-13
-14
-15
-14
-13
-12
-10
-8
-7
-7
-6
-5
-2
0
2
6
10
13
16
18
17
15
12
7
4
3
0
-5
-10
-13
-15
-17
-18
-20
-22
-25
-26
-28
-30
-31
-32
-32
-32
-33
-32
-32
-33
-34
-33
-32
-32
-33
-31
-30
-29
-27
-26
-25
-26
-24
-23
-21
-16
-1
30
71
126
206
301
377
401
391
356
268
167
73
10
-26
-47
-55
-57
-63
-68
-68
-65
-64
-64
-64
-62
-61
-61
-58
-56
-54
-53
-52
-50
-50
-49
-49
-47
-47
-47
-47
-48
-50
-51
-51
-52
-51
-51
-50
-52
-53
-53
-53
-53
-57
-58
-59
-61
-62
-64
-63
-64
-63
-62
-58
-56
-53
-46
-41
-35
-31
-25
-20
-16
-12
-9
-6
-5
-4
-4
-4
-4
-2
-2
-3
-3
-2
-3
-5
-6
-7
-7
-8
-8
-9
-10
-10
-10
-9
-9
-8
-9
-8
-7
-7
-6
-5
-5
-4
-3
-2
-1
0
1
2
3
6
11
17
20
22
22
21
19
14
11
10
9
6
0
-5
-11
-13
-14
-14
-15
-14
-16
-17
-19
-21
-23
-25
-25
-25
-25
-24
-24
-23
-22
-24
-24
-24
-22
-21
-19
-18
-17
-17
-16
-16
-14
-14
-13
-9
2
29
71
138
221
314
384
408
387
316
194
85
20
-17
-38
-49
-52
-54
-58
-62
-63
-63
-61
-59
-57
-56
-56
-54
-52
-50
-48
-47
-46
-45
-45
-45
-46
-47
-47
-48
-47
-47
-47
-47
-48
-47
-46
-45
-46
-47
-48
-49
-51
-52
-54
-56
-56
-58
-58
-60
-61
-60
-60
-59
-59
-56
-52
-47
-40
-32
-26
-21
-16
-13
-11
-10
-8
-6
-4
-5
-3
-2
-1
0
0
1
-1
-4
-4
-4
-5
-6
-6
-8
-9
-9
-8
-7
-8
-8
-7
-7
-6
-5
-4
-3
-3
-1
0
0
2
3
4
5
7
10
11
13
17
21
23
25
25
23
19
15
13
9
3
-3
-9
-14
-18
-20
-22
-23
-26
-28
-28
-28
-27
-27
-25
-23
-23
-24
-22
-21
-20
-19
-20
-20
-20
-19
-17
-16
-15
-15
-14
-13
-11
-11
-12
-12
-6
9
38
75
126
209
301
381
414
418
390
313
199
94
17
-19
-38
-45
-49
-53
-57
-58
-57
-58
-56
-55
-54
-54
-52
-50
-50
-49
-48
-46
-46
-46
-46
-45
-45
-44
-42
-42
-41
-41
-41
-42
-43
-42
-41
-40
-41
-42
-42
-43
-43
-45
-48
-51
-52
-53
-54
-54
-54
-54
-54
-52
-50
-47
-43
-39
-33
-25
-20
-16
-11
-5
-1
0
1
1
2
2
3
4
4
5
4
5
3
1
1
1
1
0
-1
-1
-2
-3
-2
-2
-3
-3
-2
-2
-3
-2
0
3
4
4
7
11
12
14
20
24
26
28
29
27
22
18
14
13
12
9
2
-4
-10
-13
-14
-17
-20
-23
-25
-26
-25
-25
-28
-30
-29
-28
-29
-29
-27
-24
-23
-23
-23
-22
-21
-20
-18
-16
-16
-15
-12
-10
-11
-10
-7
-2
8
34
79
141
225
313
393
424
412
354
229
116
38
-4
-29
-42
-45
-48
-54
-55
-55
-53
-54
-54
-53
-50
-46
-45
-44
-44
-44
-45
-44
-43
-42
-43
-42
-41
-41
-42
-41
-39
-39
-43
-45
-46
-45
-45
-46
-48
-49
-50
-51
-52
-54
-55
-57
-57
-58
-60
-60
-61
-60
-61
-58
-54
-48
-43
-36
-29
-23
-19
-15
-11
-8
-3
-1
0
2
4
5
3
3
4
4
3
1
1
1
1
0
0
-1
-3
-4
-5
-5
-5
-5
-4
-3
-3
-3
-5
-7
-6
-5
-3
-2
0
0
2
3
3
5
8
11
13
16
20
24
26
27
25
22
19
15
14
12
7
1
-3
-6
-9
-10
-12
-15
-19
-21
-21
-21
-23
-23
-23
-23
-24
-22
-21
-21
-21
-21
-20
-19
-17
-15
-15
-18
-18
-16
-14
-13
-12
-10
-9
-7
0
19
52
103
177
267
348
396
406
391
335
235
132
47
0
-27
-39
-45
-50
-55
-59
-59
-57
-57
-55
-53
-52
-51
-50
-48
-46
-44
-43
-43
-44
-43
-43
-43
-42
-42
-41
-40
-38
-39
-41
-43
-43
-42
-42
-41
-42
-42
-43
-44
-44
-45
-45
-47
-50
-52
-52
-52
-53
-52
-53
-52
-51
-47
-44
-41
-36
-30
-26
-24
-20
-16
-11
-8
-5
-3
-2
0
0
0
-1
-2
-1
0
-1
-1
0
0
-1
-1
0
-2
-3
-5
-6
-5
-4
-3
-4
-3
-5
-6
-7
-8
-7
-5
-3
-2
-1
0
1
3
6
10
13
16
19
23
23
22
20
18
15
10
7
5
3
-3
-10
-15
-18
-21
-23
-24
-24
-24
-25
-26
-27
-27
-26
-24
-23
-22
-22
-20
-19
-19
-18
-17
-18
-18
-17
-15
-14
-13
-11
-9
-8
-8
-7
-5
1
17
46
91
146
233
320
376
387
354
269
161
71
13
-21
-38
-44
-45
-50
-54
-55
-55
-53
-52
-50
-47
-45
-44
-42
-41
-42
-42
-41
-39
-39
-39
-39
-39
-38
-39
-38
-38
-37
-38
-37
-36
-36
-36
-36
-38
-42
-42
-41
-41
-42
-44
-45
-47
-48
-49
-50
-50
-50
-51
-50
-48
-45
-41
-36
-30
-26
-22
-17
-12
-8
-5
-3
-1
0
0
2
2
3
4
4
4
2
2
2
0
0
0
1
0
0
0
-1
-2
-1
-1
0
-1
-1
0
0
1
3
6
9
12
15
20
24
27
30
32
33
32
30
26
22
20
18
16
11
6
2
0
-2
-4
-5
-7
-8
-8
-10
-13
-16
-17
-17
-17
-17
-17
-15
-14
-14
-16
-17
-16
-16
-15
-14
-14
-13
-12
-12
-12
-10
-7
-7
-5
8
36
77
135
225
317
385
404
387
337
240
142
61
7
-21
-38
-43
-46
-52
-56
-57
-54
-54
-52
-50
-49
-48
-47
-43
-42
-42
-43
-41
-40
-40
-41
-41
-42
-42
-40
-40
-42
-43
-44
-44
-43
-41
-40
-40
-43
-46
-47
-48
-52
-55
-55
-56
-58
-58
-58
-59
-60
-59
-58
-57
-55
-50
-45
-40
-35
-29
-23
-18
-14
-10
-7
-5
-2
0
2
3
3
3
2
1
1
0
-1
-2
-2
-2
-2
-3
-2
-1
-2
-1
0
0
0
2
3
4
4
5
5
5
6
7
9
10
12
13
15
18
21
26
29
30
32
36
37
34
29
26
24
24
22
16
10
5
3
4
5
4
1
0
-2
-3
-5
-7
-8
-10
-11
-11
-13
-13
-12
-12
-11
-9
-8
-9
-9
-8
-6
-6
-6
-5
-4
-4
-4
-1
7
29
62
112
186
272
351
395
394
362
270
158
66
9
-17
-31
-36
-39
-44
-49
-50
-49
-48
-45
-44
-44
-41
-38
-35
-35
-34
-34
-33
-33
-33
-33
-33
-33
-32
-30
-30
-31
-30
-29
-28
-29
-30
-31
-30
-30
-31
-32
-33
-34
-36
-37
-37
-38
-40
-42
-42
-42
-41
-40
-40
-39
-38
-36
-33
-28
-23
-19
-14
-9
-3
0
2
4
7
9
9
9
11
10
10
9
9
9
9
9
9
9
7
6
7
7
7
7
9
8
8
8
9
10
10
12
13
14
15
18
21
24
26
29
32
33
36
36
35
31
28
26
22
21
17
12
6
1
1
0
-1
-4
-4
-4
-6
-8
-11
-13
-16
-18
-18
-19
-21
-22
-22
-23
-23
-22
-21
-20
-20
-19
-18
-17
-18
-18
-17
-14
-13
-12
-11
-7
3
24
63
118
187
267
335
362
347
282
182
84
18
-13
-33
-44
-49
-50
-53
-57
-58
-57
-56
-54
-53
-52
-52
-51
-50
-49
-47
-47
-45
-43
-42
-43
-44
-43
-42
-41
-41
-41
-41
-42
-41
-41
-41
-41
-40
-41
-42
-44
-45
-45
-45
-45
-47
-48
-50
-52
-53
-54
-53
-53
-52
-52
-49
-47
-43
-38
-33
-27
-22
-17
-12
-8
-6
-3
-1
0
1
1
2
1
1
0
-2
-2
-2
-2
-4
-7
-9
-9
-11
-11
-11
-11
-11
-12
-11
-12
-12
-11
-10
-9
-9
-9
-7
-6
-6
-5
-4
-3
-3
0
3
5
6
9
13
14
13
11
8
5
2
2
0
-4
-9
-13
-15
-18
-19
-20
-21
-22
-23
-25
-27
-28
-28
-29
-29
-29
-27
-26
-25
-25
-24
-22
-20
-21
-20
-19
-18
-18
-17
-15
-15
-15
-14
-13
-11
-2
16
48
90
144
224
300
350
355
326
256
154
63
6
-27
-41
-46
-46
-50
-53
-55
-53
-52
-52
-52
-52
-50
-49
-48
-46
-45
-44
-44
-42
-42
-41
-40
-40
-40
-40
-40
-40
-40
-41
-40
-40
-40
-41
-42
-42
-43
-43
-44
-45
-46
-47
-48
-50
-50
-51
-51
-52
-54
-56
-55
-54
-53
-51
-48
-42
-39
-33
-28
-23
-19
-16
-13
-11
-10
-8
-7
-7
-8
-9
-9
-8
-9
-9
-9
-10
-12
-12
-12
-14
-15
-15
-15
-15
-15
-14
-13
-12
-11
-9
-10
-9
-8
-7
-5
-5
-4
-3
-1
2
5
8
10
11
13
12
10
8
5
2
-1
-2
-4
-10
-16
-19
-21
-24
-28
-30
-31
-32
-34
-34
-35
-36
-36
-36
-36
-37
-35
-35
-34
-35
-35
-34
-33
-33
-33
-32
-30
-29
-27
-26
-25
-23
-21
-19
-10
9
44
88
154
229
305
338
317
254
153
63
9
-23
-42
-51
-53
-54
-58
-59
-60
-58
-58
-57
-56
-55
-53
-53
-51
-49
-48
-47
-46
-44
-43
-43
-43
-42
-43
-44
-44
-43
-44
-45
-45
-47
-48
-50
-51
-51
-52
-53
-55
-58
-60
-60
-60
-60
-62
-65
-67
-68
-69
-69
-68
-67
-65
-59
-53
-46
-40
-34
-30
-26
-25
-21
-19
-18
-17
-15
-14
-16
-17
-16
-15
-15
-16
-16
-18
-20
-23
-24
-24
-25
-24
-24
-24
-26
-25
-23
-23
-22
-21
-20
-19
-17
-14
-12
-10
-8
-6
-2
0
1
2
4
8
11
15
16
14
10
6
2
1
-1
-5
-10
-13
-14
-14
-16
-17
-18
-19
-21
-23
-25
-26
-27
-31
-33
-34
-35
-35
-36
-36
-38
-36
-35
-35
-34
-33
-32
-33
-33
-33
-32
-31
-31
-30
-27
-13
13
56
114
180
259
330
363
363
322
241
131
34
-20
-50
-66
-71
-74
-76
-78
-79
-79
-79
-79
-80
-78
-76
-74
-73
-72
-71
-71
-70
-69
-68
-68
-68
-67
-66
-65
-66
-65
-66
-66
-65
-64
-64
-65
-65
-67
-68
-69
-70
-72
-74
-75
-78
-78
-81
-82
-84
-85
-85
-84
-81
-79
-75
-72
-68
-64
-58
-51
-45
-41
-38
-34
-31
-28
-28
-28
-26
-25
-25
-27
-26
-26
-26
-27
-27
-27
-28
-29
-28
-27
-27
-29
-30
-31
-32
-32
-31
-31
-31
-30
-27
-28
-28
-27
-24
-22
-23
-23
-22
-19
-16
-14
-11
-10
-10
-7
-3
-3
-5
-8
-11
-13
-14
-15
-17
-20
-25
-31
-33
-35
-37
-39
-40
-42
-44
-45
-46
-47
-48
-48
-48
-47
-47
-47
-47
-46
-43
-42
-41
-42
-41
-39
-39
-39
-38
-37
-35
-33
-32
-30
-29
-22
-3
27
70
130
216
301
346
341
292
197
101
20
-26
-51
-63
-67
-67
-72
-76
-78
-75
-74
-73
-71
-69
-68
-69
-68
-65
-64
-63
-62
-60
-61
-62
-61
-59
-58
-58
-56
-55
-52
-52
-51
-56
-58
-57
-56
-53
-54
-55
-57
-59
-63
-65
-65
-66
-65
-67
-67
-69
-69
-68
-68
-67
-66
-62
-59
-54
-51
-47
-42
-36
-32
-30
-27
-24
-22
-21
-21
-20
-20
-20
-19
-19
-19
-19
-19
-19
-20
-20
-19
-19
-20
-22
-21
-23
-26
-28
-27
-25
-24
-22
-21
-19
-18
-16
-13
-10
-8
-6
-3
0
3
6
8
6
2
0
-4
-8
-11
-13
-18
-23
-25
-28
-29
-32
-35
-34
-34
-35
-37
-37
-38
-40
-41
-42
-43
-44
-43
-41
-39
-39
-38
-37
-36
-37
-36
-34
-33
-31
-29
-25
-22
-21
-20
-18
-10
9
45
95
168
252
343
386
383
345
259
148
57
1
-27
-45
-55
-59
-59
-63
-64
-61
-60
-59
-59
-57
-57
-58
-57
-55
-52
-51
-52
-52
-51
-50
-49
-48
-50
-50
-51
-48
-47
-46
-46
-47
-48
-49
-48
-48
-48
-50
-53
-54
-55
-55
-58
-60
-61
-61
-62
-62
-62
-61
-61
-59
-57
-56
-50
-43
-37
-34
-29
-23
-17
-12
-8
-6
-7
-7
-5
-2
-1
0
0
1
1
-1
-3
-4
-6
-6
-5
-3
-2
0
-1
-2
-4
-4
-3
-2
-1
0
1
1
3
4
3
2
3
7
10
12
14
20
24
27
29
31
32
29
23
16
13
13
12
8
3
0
-3
-5
-8
-9
-9
-9
-10
-11
-11
-13
-16
-16
-17
-19
-21
-21
-21
-21
-19
-16
-14
-17
-19
-18
-14
-12
-11
-11
-9
-7
-6
-5
-1
10
35
81
141
226
315
385
416
395
329
206
93
26
-11
-30
-39
-42
-44
-50
-52
-52
-50
-47
-45
-45
-44
-41
-40
-38
-36
-34
-32
-31
-31
-29
-29
-28
-27
-26
-24
-23
-22
-20
-20
-23
-25
-25
-24
-24
-25
-27
-29
-32
-33
-35
-37
-39
-40
-42
-43
-44
-44
-42
-41
-39
-38
-36
-32
-26
-20
-15
-9
-3
2
4
6
8
9
9
10
11
10
10
9
10
10
9
9
7
6
4
5
6
6
6
7
8
8
9
9
11
11
12
14
16
17
17
19
20
22
23
25
27
30
34
38
42
43
47
51
52
50
45
39
35
33
30
27
20
14
11
9
9
6
5
4
2
0
0
0
-2
-2
-2
-3
-3
-1
-1
-2
-3
-2
0
0
0
1
3
4
4
5
6
8
8
10
15
31
62
112
173
252
339
393
413
391
327
218
111
49
11
-12
-27
-33
-35
-40
-43
-44
-44
-44
-45
-43
-40
-37
-36
-35
-35
-35
-35
-34
-31
-31
-33
-34
-33
-32
-31
-30
-28
-27
-26
-27
-29
-30
-30
-32
-32
-32
-33
-34
-34
-35
-36
-36
-37
-38
-40
-40
-41
-40
-40
-39
-37
-35
-31
-27
-20
-15
-10
-5
0
4
7
10
12
13
14
17
17
17
17
17
14
11
11
11
11
9
8
7
8
8
8
8
7
7
8
9
9
9
10
11
11
13
15
19
22
25
28
33
36
39
40
39
35
31
28
25
25
23
18
12
7
5
2
2
0
0
-2
-2
-3
-6
-7
-9
-11
-14
-16
-17
-17
-16
-17
-17
-16
-16
-15
-15
-14
-14
-12
-10
-8
-8
-7
-7
-6
2
19
48
96
160
240
321
378
399
375
311
203
91
23
-16
-36
-45
-47
-49
-51
-52
-53
-54
-54
-53
-51
-49
-47
-46
-45
-43
-41
-40
-39
-40
-41
-41
-41
-40
-38
-38
-38
-37
-37
-38
-38
-38
-40
-41
-42
-41
-42
-43
-44
-46
-47
-49
-48
-49
-49
-50
-51
-52
-52
-49
-47
-43
-40
-35
-28
-20
-13
-8
-4
0
2
5
7
8
8
9
10
10
10
9
8
7
5
3
2
2
3
2
0
-2
-2
-2
0
0
0
0
0
2
3
5
4
3
3
5
8
9
10
10
12
13
16
18
19
22
25
28
26
24
20
16
14
12
11
7
1
-3
-5
-4
-7
-8
-8
-9
-11
-13
-15
-17
-20
-22
-23
-24
-26
-26
-24
-21
-22
-23
-24
-25
-23
-21
-18
-17
-15
-14
-14
-15
-13
-12
-5
8
38
87
152
243
335
396
404
367
270
154
60
10
-18
-33
-39
-42
-46
-51
-54
-52
-50
-48
-48
-50
-49
-47
-44
-43
-41
-40
-40
-39
-38
-37
-37
-37
-35
-34
-33
-33
-33
-33
-32
-35
-36
-37
-38
-38
-39
-39
-40
-40
-41
-42
-43
-43
-43
-45
-46
-48
-49
-49
-48
-46
-45
-42
-37
-32
-27
-23
-17
-10
-7
-4
-1
1
3
4
7
7
7
7
7
7
6
5
4
4
2
1
1
1
0
1
3
5
8
8
8
8
9
10
11
13
13
14
14
16
16
18
21
23
25
28
31
35
39
42
43
43
40
37
33
31
29
27
23
19
16
13
11
9
7
7
6
3
1
0
0
-1
-1
0
0
0
1
1
2
3
5
6
6
7
8
9
8
10
12
14
14
15
18
27
51
87
143
206
291
367
417
435
413
354
241
131
58
17
-6
-19
-24
-27
-31
-32
-31
-29
-29
-29
-28
-26
-24
-23
-21
-18
-17
-17
-15
-14
-13
-12
-12
-11
-12
-13
-12
-9
-8
-12
-15
-15
-14
-13
-11
-12
-15
-18
-19
-20
-22
-24
-26
-28
-30
-30
-30
-31
-32
-33
-30
-26
-22
-18
-13
-8
-2
2
5
10
14
20
23
25
25
24
22
20
19
19
20
19
18
17
17
17
16
16
15
15
14
16
16
16
16
16
16
17
19
21
24
24
26
30
36
39
40
43
45
48
51
52
50
45
40
36
36
35
32
25
19
17
21
24
20
12
9
11
11
7
3
1
5
13
20
25
18
-2
-22
-25
-19
-12
-4
0
-6
-14
-13
-8
-1
8
13
11
13
25
39
55
77
118
174
258
338
393
407
362
271
154
60
0
-37
-50
-48
-42
-41
-45
-46
-44
-46
-54
-55
-38
-14
-14
-39
-60
-68
-70
-66
-57
-42
-31
-30
-32
-25
-15
-17
-33
-47
-42
-27
-27
-50
-68
-58
-37
-37
-58
-64
-41
-20
-36
-73
-91
-90
-82
-74
-65
-57
-60
-67
-61
-52
-50
-49
-43
-45
-54
-51
-36
-22
-9
13
23
-1
-36
-43
-31
-24
-22
-18
-13
-7
-8
-20
-33
-33
-27
-21
-13
-11
-28
-51
-58
-52
-41
-31
-30
-32
-35
-34
-32
-19
-3
0
-8
-29
-59
-69
-52
-34
-24
-21
-17
-11
2
15
24
15
-8
-35
-53
-64
-68
-68
-61
-45
-23
-18
-45
-74
-82
-77
-77
-83
-93
-94
-80
-55
-47
-71
-96
-100
-89
-87
-92
-97
-94
-82
-73
-67
-70
-86
-107
-111
-96
-82
-70
-57
-42
-27
12
97
196
290
342
335
287
176
53
-37
-88
-112
-117
-110
-99
-111
-136
-148
-140
-129
-123
-115
-118
-129
-137
-136
-130
-125
-122
-120
-113
-110
-115
-121
-120
-120
-121
-121
-128
-127
-113
-95
-108
-140
-146
-135
-128
-132
-133
-135
-140
-142
-143
-139
-136
-130
-134
-146
-156
-155
-146
-144
-143
-144
-137
-131
-125
-119
-114
-103
-97
-98
-103
-102
-107
-109
-100
-92
-93
-104
-108
-109
-106
-104
-101
-97
-98
-98
-102
-111
-119
-111
-106
-108
-111
-109
-102
-98
-88
-79
-86
-105
-117
-109
-100
-91
-82
-76
-84
-94
-97
-89
-77
-74
-81
-87
-85
-83
-84
-89
-93
-95
-104
-111
-112
-110
-107
-104
-93
-79
-86
-112
-126
-131
-136
-134
-130
-122
-120
-117
-118
-117
-117
-116
-112
-109
-105
-108
-112
-118
-118
-114
-112
-108
-107
-99
-82
-46
4
76
159
236
295
318
296
231
121
12
-66
-109
-130
-137
-142
-144
-145
-145
-146
-149
-147
-146
-144
-142
-137
-135
-135
-138
-142
-138
-135
-130
-128
-125
-121
-115
-109
-114
-123
-136
-138
-137
-136
-134
-131
-128
-130
-130
-132
-132
-134
-135
-132
-132
-130
-130
-125
-131
-137
-138
-136
-133
-133
-124
-120
-120
-127
-124
-115
-108
-100
-94
-87
-82
-76
-78
-86
-89
-90
-90
-88
-77
-70
-72
-80
-81
-78
-83
-94
-100
-95
-89
-86
-84
-84
-84
-85
-86
-85
-82
-79
-79
-78
-78
-75
-73
-68
-65
-60
-57
-54
-50
-47
-47
-51
-53
-53
-52
-49
-47
-53
-63
-68
-72
-73
-73
-71
-69
-71
-70
-70
-70
-72
-71
-71
-73
-73
-75
-75
-76
-74
-74
-73
-71
-70
-69
-68
-66
-65
-63
-61
-59
-57
-57
-54
-46
-26
2
47
114
208
298
358
367
327
230
122
22
-34
-60
-69
-71
-72
-76
-79
-78
-76
-74
-73
-70
-68
-67
-65
-61
-60
-58
-55
-53
-51
-50
-47
-46
-45
-44
-42
-40
-40
-40
-40
-40
-41
-41
-41
-43
-44
-46
-47
-48
-48
-48
-50
-51
-52
-51
-53
-53
-52
-51
-50
-50
-48
-45
-40
-35
-28
-22
-15
-10
-5
0
4
8
10
13
16
20
19
19
18
19
20
21
23
22
22
22
21
19
20
21
21
23
23
25
26
27
28
30
31
30
30
32
35
35
36
39
41
43
43
46
48
52
54
57
60
64
68
70
69
65
63
61
60
58
54
48
43
41
41
41
38
36
35
33
31
29
29
27
26
26
27
28
28
30
30
32
33
35
36
36
38
38
39
37
38
40
43
45
45
54
73
115
171
255
345
416
457
454
420
336
217
126
71
40
20
11
8
5
3
2
4
5
6
8
8
9
11
13
14
15
16
16
16
18
20
23
25
28
29
29
30
31
30
29
29
28
27
27
26
26
24
23
22
22
20
17
16
15
13
11
10
11
11
12
15
18
20
25
31
39
45
50
56
57
61
64
69
70
71
73
74
74
72
73
72
71
69
69
70
70
70
69
69
67
69
69
69
69
70
72
71
73
75
79
83
83
81
77
79
81
88
92
97
99
101
102
99
96
89
85
81
78
74
68
64
59
60
59
58
55
53
52
50
49
46
44
44
44
43
42
44
46
49
49
50
50
53
56
55
56
56
57
57
58
60
61
64
69
86
115
164
225
311
389
446
473
463
424
323
203
118
65
38
25
21
18
15
13
12
13
14
15
16
18
19
20
20
21
22
23
25
26
27
24
23
24
25
26
26
26
25
26
26
26
25
21
18
14
10
8
7
4
2
1
0
-1
-3
-2
-3
-3
-3
0
2
4
8
14
21
26
32
38
40
44
47
51
52
52
52
53
55
55
53
50
50
48
49
49
48
48
47
47
46
46
44
44
44
43
43
43
46
46
47
48
50
51
49
51
54
58
60
64
68
70
70
70
71
69
67
62
59
57
55
51
45
40
36
34
32
31
31
31
33
31
28
25
23
22
21
20
18
15
12
12
12
13
14
15
17
15
15
17
20
21
22
22
21
22
30
51
83
131
203
308
395
441
441
390
296
173
82
24
-7
-22
-27
-29
-34
-37
-37
-34
-32
-30
-28
-30
-31
-30
-29
-27
-25
-21
-20
-20
-21
-20
-18
-17
-17
-16
-15
-17
-18
-18
-18
-19
-20
-20
-22
-22
-23
-22
-22
-24
-28
-31
-34
-37
-39
-40
-41
-42
-43
-41
-40
-38
-35
-29
-22
-15
-9
-5
0
5
9
13
16
19
21
19
19
19
20
22
21
22
21
18
15
14
13
14
17
15
10
6
7
11
16
25
28
19
6
5
10
13
13
14
18
20
22
22
24
26
29
31
34
39
43
44
40
36
33
30
29
26
23
19
12
3
-4
-6
-6
-6
-6
-6
-6
-8
-11
-13
-13
-14
-15
-17
-17
-18
-19
-18
-17
-17
-17
-14
-12
-13
-14
-13
-10
-8
-9
-10
-9
-8
-2
16
46
89
146
228
315
367
376
356
291
197
105
35
-7
-32
-43
-46
-49
-51
-53
-51
-49
-48
-46
-44
-42
-40
-39
-37
-36
-34
-33
-32
-31
-30
-30
-30
-29
-30
-28
-28
-27
-29
-30
-32
-33
-33
-32
-32
-34
-34
-35
-36
-38
-39
-40
-42
-43
-45
-46
-47
-49
-47
-47
-46
-46
-42
-38
-33
-28
-24
-19
-15
-11
-9
-4
0
2
2
2
1
2
3
3
1
0
1
1
0
-3
-5
-4
-3
-2
-5
-7
-9
-10
-9
-8
-7
-7
-7
-7
-6
-4
-1
0
3
6
9
13
15
20
23
26
29
28
27
24
20
19
19
17
12
8
4
4
5
6
7
7
7
6
5
4
3
1
1
1
2
1
1
1
2
4
4
5
4
5
7
7
8
8
8
9
11
13
17
33
62
104
149
219
303
381
423
429
405
332
222
126
55
14
-4
-12
-17
-22
-25
-26
-22
-20
-19
-17
-14
-12
-11
-11
-9
-6
-4
-2
-2
-2
-2
-1
0
2
2
0
0
-1
0
0
-1
-2
-3
-2
-1
0
-2
-3
-4
-4
-5
-8
-10
-12
-14
-16
-15
-13
-12
-12
-11
-8
-4
3
9
16
23
32
39
45
51
55
57
57
60
62
64
64
64
65
62
60
59
60
58
58
57
56
56
54
54
53
53
54
56
56
55
56
57
59
58
59
60
61
62
64
66
66
69
72
76
79
83
88
89
89
84
82
79
76
72
70
69
63
59
53
51
49
47
44
43
44
42
40
33
27
24
25
26
23
24
25
26
25
25
26
28
29
29
29
28
28
28
30
31
29
27
28
36
54
92
141
213
303
378
418
405
348
240
134
65
18
-9
-23
-28
-31
-37
-41
-42
-42
-41
-40
-39
-38
-37
-37
-35
-34
-34
-33
-33
-33
-33
-33
-33
-33
-35
-35
-36
-37
-38
-38
-38
-39
-40
-40
-43
-46
-50
-52
-54
-58
-62
-63
-64
-67
-69
-72
-73
-74
-77
-79
-79
-77
-75
-69
-64
-60
-57
-52
-48
-44
-42
-41
-39
-38
-38
-39
-41
-42
-43
-44
-47
-47
-49
-51
-54
-57
-59
-61
-62
-63
-63
-64
-65
-65
-66
-66
-67
-66
-65
-63
-61
-62
-64
-65
-63
-61
-59
-60
-62
-60
-55
-52
-52
-52
-54
-57
-62
-70
-76
-77
-78
-89
-99
-106
-109
-114
-119
-117
-116
-119
-127
-131
-133
-133
-138
-143
-145
-151
-150
-150
-151
-155
-157
-155
-156
-155
-159
-156
-155
-155
-160
-163
-159
-162
-162
-163
-154
-141
-106
-37
53
151
227
267
279
248
181
73
-48
-137
-194
-223
-228
-232
-236
-242
-245
-242
-244
-246
-250
-240
-238
-243
-245
-245
-243
-249
-252
-254
-248
-248
-251
-252
-256
-256
-261
-261
-262
-261
-263
-270
-271
-274
-269
-272
-272
-278
-280
-282
-287
-284
-288
-287
-293
-292
-298
-301
-297
-297
-294
-300
-294
-298
-299
-297
-294
-287
-288
-280
-282
-278
-279
-277
-275
-276
-272
-274
-270
-272
-269
-271
-271
-272
-275
-271
-272
-267
-269
-265
-264
-266
-265
-265
-260
-261
-257
-259
-259
-257
-256
-254
-254
-250
-251
-248
-246
-243
-241
-241
-237
-238
-235
-238
-239
-241
-243
-241
-243
-242
-248
-247
-249
-249
-247
-248
-245
-249
-245
-247
-244
-246
-246
-244
-246
-242
-245
-241
-244
-242
-242
-240
-236
-238
-232
-233
-229
-229
-225
-222
-220
-215
-216
-214
-213
-199
-177
-140
-80
16
126
205
236
226
171
81
-32
-119
-171
-195
-205
-205
-206
-208
-208
-206
-202
-203
-199
-198
-195
-193
-191
-191
-191
-186
-185
-180
-178
-175
-173
-172
-169
-169
-164
-164
-161
-164
-163
-160
-159
-156
-155
-152
-153
-152
-154
-156
-154
-154
-152
-156
-155
-157
-156
-157
-155
-151
-150
-145
-143
-138
-138
-133
-127
-123
-116
-113
-110
-109
-107
-107
-104
-100
-97
-93
-88
-84
-84
-87
-89
-89
-89
-92
-93
-93
-90
-87
-87
-90
-90
-82
-75
-72
-70
-65
-60
-55
-52
-49
-43
-36
-30
-25
-19
-12
-4
3
12
18
24
32
47
63
75
82
83
85
85
87
88
89
88
84
80
76
79
82
85
83
81
82
85
88
89
90
87
88
92
97
99
96
94
91
92
92
92
92
92
97
100
104
100
99
100
102
107
115
140
177
241
327
424
505
511
511
488
383
264
177
126
101
90
85
83
78
78
78
82
83
84
88
92
96
98
104
107
110
113
117
122
122
125
124
127
128
131
135
138
142
142
148
149
153
153
155
157
156
158
157
157
154
155
153
152
151
150
151
150
152
152
154
156
159
168
175
185
192
201
208
216
224
229
236
236
240
243
247
248
250
255
255
258
257
259
255
252
250
244
241
233
231
227
227
227
228
232
232
239
241
249
252
260
264
267
271
274
283
284
289
288
288
283
276
275
274
275
266
258
249
246
244
243
245
244
247
245
245
242
239
239
238
237
231
230
226
223
220
217
218
215
215
212
212
210
209
211
210
211
208
209
207
210
221
245
287
337
410
480
511
511
511
511
446
350
267
211
178
161
153
148
143
134
132
131
134
132
133
134
135
135
133
134
132
132
131
133
132
130
130
128
129
127
127
125
124
123
120
120
116
115
112
112
109
106
104
100
99
95
92
88
86
83
81
82
80
80
80
82
85
90
97
101
107
110
116
119
122
127
127
129
127
129
127
128
124
123
123
120
120
117
118
115
115
113
110
108
105
105
100
98
96
98
99
97
95
93
93
90
90
89
89
87
86
87
88
90
89
90
92
94
96
96
97
93
90
83
78
74
71
67
60
54
50
49
46
45
44
42
41
39
38
36
34
31
30
28
25
22
20
18
16
15
16
14
13
13
15
14
14
15
15
15
14
15
20
37
69
125
195
281
352
397
417
405
374
292
183
89
22
-13
-33
-41
-45
-52
-56
-59
-59
-57
-56
-55
-56
-55
-56
-56
-56
-55
-54
-54
-53
-54
-54
-54
-54
-53
-52
-52
-51
-50
-50
-51
-52
-53
-56
-58
-59
-60
-62
-65
-67
-69
-71
-72
-75
-76
-80
-81
-84
-84
-86
-86
-84
-83
-81
-78
-71
-66
-61
-56
-51
-46
-44
-42
-40
-39
-39
-39
-38
-40
-42
-43
-42
-44
-45
-45
-45
-46
-47
-46
-46
-45
-45
-46
-45
-45
-44
-44
-44
-45
-43
-42
-42
-42
-42
-42
-42
-41
-39
-37
-34
-31
-29
-26
-23
-22
-19
-20
-22
-28
-32
-36
-39
-41
-45
-49
-56
-61
-63
-65
-66
-69
-70
-72
-74
-77
-78
-79
-80
-79
-79
-78
-79
-79
-77
-77
-75
-76
-74
-74
-74
-73
-72
-71
-71
-69
-69
-68
-67
-56
-36
-7
34
95
176
257
313
331
303
229
127
23
-43
-78
-93
-97
-99
-103
-107
-108
-106
-106
-105
-104
-104
-104
-103
-102
-102
-102
-102
-101
-100
-98
-96
-94
-91
-90
-87
-86
-84
-85
-86
-86
-87
-86
-88
-89
-91
-93
-95
-97
-98
-101
-101
-103
-103
-105
-105
-105
-107
-106
-106
-104
-104
-100
-97
-92
-85
-80
-75
-71
-66
-61
-58
-56
-54
-52
-51
-51
-51
-50
-50
-51
-52
-52
-53
-54
-54
-55
-56
-56
-57
-58
-59
-59
-60
-59
-58
-57
-56
-56
-55
-52
-49
-46
-43
-40
-36
-34
-31
-27
-23
-23
-24
-26
-30
-35
-38
-39
-40
-44
-49
-55
-59
-61
-62
-61
-62
-62
-63
-62
-65
-67
-67
-69
-71
-74
-74
-76
-76
-76
-76
-75
-75
-75
-75
-73
-73
-70
-67
-65
-65
-65
-64
-62
-49
-26
12
65
141
229
307
338
320
246
151
53
-19
-64
-89
-99
-101
-102
-106
-109
-110
-109
-110
-108
-107
-104
-103
-102
-101
-100
-97
-98
-98
-99
-98
-97
-95
-92
-92
-91
-91
-89
-90
-89
-88
-89
-88
-90
-89
-92
-92
-94
-95
-96
-99
-100
-102
-102
-105
-106
-106
-108
-108
-108
-105
-104
-98
-93
-86
-79
-72
-64
-60
-55
-51
-46
-44
-42
-40
-38
-37
-38
-38
-38
-40
-41
-41
-43
-43
-43
-44
-44
-45
-45
-45
-45
-45
-46
-45
-45
-45
-43
-42
-41
-41
-39
-38
-38
-38
-36
-34
-33
-30
-27
-24
-21
-17
-13
-11
-11
-14
-17
-22
-25
-28
-29
-34
-40
-45
-49
-50
-52
-52
-53
-54
-55
-56
-56
-58
-58
-61
-61
-64
-65
-67
-69
-70
-71
-70
-70
-69
-68
-66
-64
-64
-62
-60
-58
-57
-55
-51
-42
-21
17
70
140
220
301
353
360
338
274
175
78
3
-42
-67
-81
-85
-87
-88
-91
-90
-89
-87
-86
-86
-85
-85
-84
-85
-83
-82
-80
-78
-77
-74
-74
-72
-72
-70
-70
-69
-68
-68
-67
-68
-68
-70
-70
-71
-73
-74
-76
-77
-80
-82
-83
-85
-86
-88
-89
-91
-91
-92
-91
-89
-89
-86
-83
-77
-72
-67
-63
-57
-53
-50
-47
-44
-41
-39
-38
-38
-38
-39
-40
-40
-41
-41
-43
-43
-44
-45
-45
-45
-45
-45
-45
-45
-45
-45
-44
-43
-43
-42
-41
-38
-37
-35
-32
-30
-26
-24
-20
-17
-14
-10
-6
-4
-4
-6
-10
-14
-18
-19
-21
-26
-31
-35
-37
-38
-39
-40
-40
-41
-43
-44
-46
-47
-49
-51
-52
-52
-53
-53
-52
-52
-52
-51
-50
-49
-49
-48
-46
-45
-44
-43
-41
-40
-41
-40
-33
-16
12
58
115
183
258
317
350
341
296
203
98
18
-32
-60
-71
-76
-78
-82
-84
-84
-83
-81
-81
-78
-77
-74
-74
-72
-70
-69
-67
-67
-65
-65
-64
-65
-63
-61
-60
-60
-60
-60
-61
-60
-60
-60
-60
-62
-63
-65
-66
-67
-69
-71
-72
-74
-77
-77
-79
-79
-79
-78
-78
-79
-77
-75
-71
-66
-61
-56
-50
-45
-40
-36
-32
-28
-27
-25
-26
-26
-26
-26
-26
-26
-27
-28
-29
-29
-30
-30
-31
-31
-32
-32
-32
-32
-32
-32
-31
-30
-29
-29
-27
-25
-25
-24
-22
-21
-20
-18
-15
-12
-10
-8
-5
-2
0
3
4
4
2
0
-2
-6
-8
-11
-16
-21
-24
-25
-26
-27
-28
-30
-32
-34
-34
-35
-38
-40
-42
-43
-43
-42
-43
-43
-42
-41
-39
-39
-38
-37
-35
-35
-34
-32
-30
-29
-29
-27
-22
-7
21
67
138
224
304
356
355
311
220
108
25
-24
-48
-60
-65
-66
-68
-72
-73
-74
-72
-72
-70
-69
-68
-67
-65
-63
-62
-59
-57
-55
-54
-53
-53
-52
-51
-50
-50
-49
-49
-49
-49
-50
-50
-51
-52
-52
-53
-54
-56
-58
-59
-61
-61
-63
-63
-65
-66
-67
-67
-66
-66
-63
-60
-57
-52
-47
-40
-36
-31
-27
-22
-20
-18
-16
-14
-13
-13
-12
-13
-14
-16
-17
-17
-17
-18
-18
-19
-19
-19
-19
-19
-18
-18
-18
-18
-18
-16
-15
-14
-12
-11
-10
-9
-9
-8
-7
-6
-4
-2
-1
1
4
8
9
10
10
7
3
0
-1
-3
-6
-9
-16
-20
-22
-22
-23
-24
-25
-26
-26
-28
-30
-30
-30
-31
-31
-31
-31
-31
-29
-28
-27
-26
-24
-24
-22
-20
-19
-17
-15
-13
-12
-11
-8
2
27
62
113
185
273
345
372
369
333
254
166
78
20
-15
-31
-37
-40
-43
-46
-49
-48
-47
-48
-47
-45
-44
-43
-42
-41
-40
-39
-37
-35
-34
-34
-32
-31
-31
-30
-29
-27
-27
-27
-27
-28
-29
-30
-29
-32
-33
-35
-36
-37
-40
-41
-43
-45
-46
-47
-48
-48
-48
-48
-46
-46
-45
-40
-37
-32
-28
-22
-17
-13
-10
-7
-4
-1
1
2
2
2
2
2
1
1
1
1
0
0
0
0
0
1
0
1
0
1
2
3
5
6
8
9
9
10
13
16
19
23
26
30
33
36
36
35
33
28
25
23
20
16
11
7
3
2
1
0
0
0
0
-1
-1
-2
-3
-5
-6
-7
-10
-12
-14
-14
-13
-12
-11
-8
-7
-6
-5
-3
-2
-1
1
3
3
6
14
33
62
109
173
250
324
375
394
383
332
247
148
62
14
3
-2
-27
-53
-55
-42
-38
-50
-63
-65
-59
-53
-49
-46
-43
-42
-40
-39
-37
-36
-35
-33
-31
-29
-27
-26
-27
-26
-26
-26
-27
-27
-26
-26
-26
-28
-28
-30
-32
-34
-36
-39
-43
-45
-46
-47
-48
-49
-49
-48
-47
-45
-41
-36
-30
-24
-18
-13
-8
-4
0
3
6
9
9
9
7
8
7
8
8
8
7
5
3
3
4
5
4
3
2
3
3
3
2
2
5
5
7
7
8
8
9
10
10
10
11
14
16
19
20
24
28
31
33
32
29
24
22
21
20
17
12
7
2
0
-2
-3
-4
-6
-6
-6
-5
-5
-4
-4
-6
-9
-12
-14
-14
-14
-15
-16
-15
-14
-12
-11
-10
-11
-9
-7
-5
-5
-4
-4
-2
6
27
63
112
185
284
363
402
388
320
215
112
32
-13
-37
-47
-50
-53
-58
-60
-60
-58
-59
-59
-57
-55
-53
-54
-53
-52
-49
-48
-45
-44
-43
-43
-42
-41
-43
-44
-42
-40
-39
-39
-40
-42
-42
-42
-42
-42
-44
-46
-49
-50
-52
-51
-52
-54
-55
-57
-59
-61
-60
-59
-58
-56
-52
-47
-41
-34
-28
-22
-17
-14
-11
-7
-4
-3
-1
0
0
0
0
-2
-3
-4
-4
-5
-6
-7
-9
-9
-8
-8
-7
-6
-6
-8
-7
-7
-6
-6
-5
-5
-4
-3
-2
-2
-1
0
3
4
7
9
12
14
16
18
20
18
15
12
9
8
7
4
-2
-8
-11
-13
-13
-14
-16
-18
-21
-23
-25
-27
-28
-28
-28
-29
-30
-30
-28
-28
-27
-27
-25
-24
-24
-23
-22
-22
-21
-20
-19
-17
-15
-13
-6
10
39
89
155
228
305
348
364
339
273
179
84
19
-17
-37
-46
-49
-51
-55
-57
-57
-56
-54
-53
-51
-50
-49
-48
-46
-45
-44
-43
-43
-42
-42
-41
-40
-40
-40
-40
-40
-38
-38
-38
-38
-39
-40
-41
-42
-42
-44
-44
-43
-43
-44
-46
-48
-49
-48
-48
-49
-50
-51
-51
-49
-46
-43
-39
-35
-30
-27
-23
-21
-18
-16
-14
-13
-11
-10
-10
-11
-12
-14
-15
-16
-16
-18
-18
-18
-18
-19
-20
-20
-22
-21
-19
-18
-17
-17
-16
-16
-16
-15
-12
-9
-8
-6
-3
0
3
7
11
14
15
14
11
7
2
0
-1
-4
-7
-12
-16
-18
-18
-16
-16
-17
-17
-17
-18
-18
-18
-20
-22
-24
-25
-26
-26
-26
-26
-25
-25
-23
-23
-23
-22
-21
-20
-20
-19
-17
-15
-15
-14
-4
20
55
107
174
264
340
372
372
331
257
163
76
18
-20
-39
-46
-48
-50
-55
-56
-55
-54
-53
-52
-50
-49
-48
-48
-47
-47
-46
-46
-45
-44
-45
-44
-43
-41
-39
-38
-38
-37
-35
-35
-36
-37
-37
-37
-37
-39
-41
-43
-45
-47
-48
-49
-51
-53
-54
-54
-54
-54
-54
-53
-53
-50
-48
-44
-39
-33
-28
-21
-17
-14
-10
-5
-2
0
0
0
0
0
1
2
1
0
0
-1
-2
-3
-3
-3
-4
-5
-5
-5
-5
-4
-3
-3
-1
0
1
2
3
4
6
9
10
11
12
14
16
19
22
24
28
30
32
31
28
26
23
21
20
20
15
10
4
3
3
1
0
-1
-1
-2
-1
0
-1
-2
-3
-4
-5
-8
-9
-11
-11
-11
-11
-10
-9
-9
-8
-6
-5
-3
-2
-1
-2
-2
0
8
26
57
103
167
244
319
372
384
363
288
177
85
19
-12
-28
-34
-36
-39
-43
-44
-44
-42
-40
-39
-39
-37
-36
-35
-33
-32
-31
-30
-29
-27
-24
-23
-22
-20
-18
-17
-17
-16
-15
-16
-16
-17
-17
-19
-21
-21
-22
-24
-26
-27
-28
-29
-32
-32
-33
-34
-34
-35
-35
-37
-35
-32
-27
-22
-16
-9
-4
0
5
10
12
14
15
16
16
16
16
16
15
14
12
11
11
11
11
9
6
6
6
5
4
5
6
6
5
6
8
9
11
12
14
16
17
20
24
28
29
34
37
40
40
40
38
35
33
29
28
25
21
14
10
8
7
6
5
4
3
3
3
1
0
-1
-3
-5
-6
-6
-8
-9
-9
-10
-10
-10
-10
-9
-8
-7
-7
-9
-9
-8
-7
-7
-5
6
28
62
111
183
272
343
373
361
297
201
106
30
-10
-32
-42
-46
-50
-54
-56
-56
-54
-53
-52
-50
-48
-46
-44
-43
-43
-41
-40
-38
-38
-36
-35
-33
-32
-31
-29
-28
-27
-26
-25
-26
-26
-26
-26
-26
-28
-29
-32
-34
-36
-38
-39
-42
-43
-45
-46
-47
-47
-46
-45
-42
-40
-35
-32
-27
-22
-17
-12
-9
-6
-3
0
3
5
8
11
10
8
7
6
5
4
4
3
2
1
1
0
0
0
-1
-1
-2
-3
-4
-5
-4
-3
-2
-2
0
1
4
5
7
11
12
14
17
21
22
24
25
23
20
15
12
9
6
0
-5
-9
-11
-11
-11
-12
-13
-14
-13
-13
-13
-14
-15
-15
-16
-17
-18
-18
-21
-22
-23
-24
-25
-25
-24
-23
-21
-20
-19
-18
-17
-17
-17
-15
-9
9
41
93
162
260
350
399
408
382
314
217
116
36
-19
-48
-60
-65
-68
-72
-72
-72
-69
-68
-66
-64
-63
-62
-61
-58
-58
-58
-58
-55
-54
-52
-51
-50
-48
-48
-46
-45
-44
-43
-42
-41
-42
-42
-43
-43
-44
-45
-46
-47
-49
-51
-52
-54
-55
-57
-58
-59
-60
-61
-62
-60
-59
-55
-51
-46
-40
-33
-26
-20
-15
-10
-7
-4
0
0
2
3
3
2
2
2
0
0
0
-1
-2
-3
-3
-4
-4
-4
-4
-5
-6
-6
-5
-4
-4
-2
-2
-2
-2
-1
0
0
0
1
3
4
4
7
11
14
15
18
20
23
24
26
24
21
18
15
14
12
9
3
-2
-6
-8
-9
-10
-11
-12
-13
-14
-17
-19
-20
-22
-24
-24
-24
-24
-24
-23
-22
-21
-20
-20
-18
-17
-15
-13
-11
-9
-9
-7
-6
-3
5
27
59
100
159
237
334
390
410
387
315
209
103
26
-14
-34
-39
-42
-44
-50
-52
-52
-52
-51
-51
-49
-49
-47
-46
-45
-43
-43
-42
-41
-39
-38
-36
-33
-32
-30
-28
-26
-25
-24
-24
-23
-24
-24
-26
-28
-29
-31
-32
-33
-34
-35
-37
-38
-41
-42
-42
-44
-45
-47
-47
-47
-47
-45
-42
-38
-33
-28
-22
-15
-9
-6
-2
2
3
5
5
7
7
7
6
5
4
2
0
-2
-2
-3
-3
-3
-4
-4
-4
-4
-4
-4
-5
-5
-5
-4
-2
-1
1
4
7
9
13
17
19
22
25
31
34
34
32
29
25
21
19
18
17
12
7
3
0
0
-2
-2
-2
-3
-4
-6
-9
-12
-14
-15
-16
-17
-17
-17
-17
-16
-16
-15
-15
-14
-13
-12
-10
-11
-10
-10
-9
-9
-9
-6
3
25
64
115
180
271
351
404
408
365
274
158
68
4
-31
-46
-53
-55
-58
-62
-63
-63
-61
-61
-60
-59
-56
-56
-55
-54
-53
-51
-51
-48
-47
-47
-45
-43
-40
-40
-38
-37
-35
-34
-33
-33
-34
-35
-37
-38
-41
-43
-46
-48
-50
-53
-53
-55
-57
-58
-60
-62
-64
-63
-62
-59
-56
-52
-47
-41
-35
-30
-24
-19
-15
-12
-9
-7
-6
-5
-5
-5
-6
-7
-8
-9
-9
-9
-9
-10
-11
-12
-12
-12
-14
-15
-15
-16
-17
-17
-17
-18
-18
-16
-14
-13
-12
-11
-9
-8
-6
-2
0
1
4
7
11
14
16
18
16
13
9
5
1
-1
-3
-9
-14
-17
-18
-18
-19
-19
-19
-19
-19
-20
-21
-23
-26
-27
-27
-29
-31
-32
-33
-32
-31
-29
-29
-28
-27
-26
-25
-24
-22
-20
-18
-18
-16
-7
14
52
112
192
284
354
390
389
352
278
167
75
5
-29
-47
-55
-58
-61
-65
-67
-67
-66
-65
-65
-63
-62
-60
-60
-59
-57
-56
-55
-54
-53
-51
-49
-49
-48
-46
-43
-42
-42
-42
-42
-42
-42
-44
-47
-48
-48
-49
-50
-54
-57
-60
-61
-63
-64
-65
-67
-67
-69
-68
-68
-66
-64
-61
-55
-50
-43
-38
-32
-26
-22
-19
-17
-14
-11
-10
-9
-9
-10
-10
-10
-11
-12
-13
-13
-13
-14
-15
-14
-15
-16
-16
-15
-15
-16
-15
-15
-15
-16
-16
-15
-14
-14
-13
-11
-10
-8
-6
-3
-1
2
7
11
15
17
17
13
9
6
3
3
2
0
-5
-10
-13
-14
-14
-14
-16
-17
-19
-19
-21
-22
-23
-25
-27
-28
-28
-28
-27
-27
-27
-26
-25
-24
-23
-22
-21
-20
-19
-18
-17
-16
-17
-13
-1
22
55
98
165
249
335
381
390
359
284
176
84
14
-25
-43
-49
-51
-55
-59
-59
-58
-56
-54
-53
-50
-49
-48
-48
-46
-44
-43
-42
-42
-40
-38
-35
-33
-32
-31
-31
-29
-29
-28
-28
-27
-28
-28
-29
-30
-31
-33
-35
-37
-39
-40
-43
-47
-50
-50
-51
-52
-53
-53
-51
-50
-49
-46
-41
-36
-31
-24
-17
-12
-7
-3
0
1
1
3
4
5
3
2
2
1
0
-1
0
-1
-2
-3
-3
-4
-4
-4
-5
-5
-5
-5
-4
-4
-2
0
1
3
5
7
10
13
15
19
22
25
28
31
29
27
24
19
16
15
14
9
3
-2
-5
-6
-7
-8
-10
-10
-10
-10
-10
-10
-12
-14
-16
-17
-18
-19
-20
-22
-24
-24
-23
-21
-20
-20
-19
-18
-17
-16
-15
-14
-14
-13
-7
8
38
83
144
224
303
369
396
387
334
229
118
34
-14
-37
-49
-53
-56
-59
-62
-62
-61
-61
-60
-61
-60
-60
-58
-59
-58
-56
-55
-52
-51
-49
-49
-50
-50
-47
-44
-43
-40
-39
-38
-39
-41
-41
-41
-41
-42
-42
-43
-44
-48
-51
-53
-55
-56
-58
-59
-60
-61
-61
-61
-61
-62
-60
-58
-53
-47
-40
-34
-29
-24
-19
-14
-11
-9
-7
-5
-6
-6
-6
-7
-9
-9
-7
-9
-9
-9
-10
-12
-14
-14
-13
-13
-14
-14
-14
-15
-15
-14
-12
-12
-12
-10
-8
-7
-5
0
2
4
8
12
15
17
19
20
18
13
8
4
2
1
0
-5
-11
-15
-15
-15
-15
-18
-19
-19
-19
-20
-21
-21
-21
-23
-24
-26
-27
-30
-31
-30
-31
-32
-32
-32
-29
-28
-27
-27
-26
-25
-24
-24
-24
-22
-12
9
46
104
185
288
361
398
385
325
227
116
32
-18
-44
-55
-59
-62
-68
-72
-72
-71
-69
-68
-65
-64
-65
-65
-65
-63
-62
-60
-60
-58
-57
-55
-53
-51
-48
-47
-45
-44
-43
-42
-44
-45
-46
-46
-48
-50
-53
-55
-57
-58
-60
-62
-64
-66
-68
-69
-70
-72
-72
-70
-69
-65
-60
-55
-50
-42
-35
-30
-27
-23
-18
-15
-12
-10
-7
-6
-6
-6
-6
-7
-9
-10
-11
-13
-14
-14
-15
-17
-17
-18
-18
-18
-19
-18
-18
-17
-16
-14
-14
-13
-12
-10
-8
-6
-5
-3
-2
0
3
4
7
10
14
18
21
22
21
20
16
12
9
8
5
1
-4
-9
-10
-10
-10
-11
-12
-12
-14
-15
-16
-18
-19
-21
-23
-24
-25
-25
-24
-23
-22
-21
-21
-20
-20
-20
-19
-17
-16
-15
-13
-13
-12
-3
17
51
98
166
260
344
395
399
362
287
178
90
20
-19
-38
-43
-45
-48
-52
-53
-52
-51
-50
-49
-47
-46
-46
-46
-44
-43
-41
-40
-38
-36
-35
-33
-32
-30
-30
-29
-28
-27
-26
-26
-26
-27
-28
-29
-30
-32
-35
-37
-39
-40
-41
-42
-44
-46
-47
-48
-48
-49
-49
-50
-49
-47
-42
-37
-33
-27
-21
-14
-10
-6
-1
1
3
5
6
6
7
8
7
6
6
6
6
5
5
5
5
5
4
3
2
1
1
2
3
3
5
6
9
9
10
11
13
17
20
24
27
29
32
36
37
36
34
30
26
22
19
15
10
5
1
0
-1
-1
-2
-3
-3
-4
-4
-6
-8
-10
-11
-12
-14
-16
-17
-18
-19
-19
-18
-17
-15
-14
-13
-13
-13
-12
-12
-12
-13
-12
-7
5
32
74
132
202
286
356
385
375
310
200
102
25
-16
-37
-46
-49
-52
-56
-58
-59
-58
-57
-56
-55
-52
-51
-50
-49
-48
-48
-47
-45
-43
-40
-38
-37
-35
-35
-34
-33
-32
-31
-31
-30
-31
-31
-32
-33
-35
-37
-38
-41
-43
-46
-47
-49
-50
-51
-52
-53
-54
-54
-53
-51
-50
-47
-43
-36
-29
-25
-20
-16
-12
-9
-5
-1
1
1
1
1
1
1
0
0
-1
-1
-1
-1
-2
-3
-3
-3
-4
-5
-6
-7
-8
-9
-10
-10
-11
-11
-10
-10
-10
-7
-4
-2
0
2
6
7
10
12
15
16
15
14
11
7
4
2
0
-5
-11
-14
-15
-16
-18
-19
-20
-20
-20
-20
-21
-22
-22
-22
-23
-25
-26
-26
-27
-27
-27
-26
-26
-27
-27
-27
-27
-26
-25
-24
-24
-24
-22
-18
-4
21
64
123
201
293
363
392
379
317
214
110
31
-14
-41
-53
-57
-59
-63
-64
-65
-64
-63
-61
-61
-60
-59
-60
-59
-59
-57
-57
-56
-55
-54
-52
-52
-51
-50
-47
-45
-44
-45
-47
-45
-45
-44
-45
-46
-48
-50
-52
-53
-55
-58
-59
-61
-62
-63
-65
-66
-67
-66
-66
-65
-64
-61
-57
-51
-46
-41
-36
-30
-25
-21
-16
-13
-10
-8
-8
-7
-8
-7
-7
-6
-8
-9
-9
-8
-9
-9
-9
-10
-11
-10
-9
-9
-10
-10
-10
-10
-9
-8
-7
-7
-6
-5
-4
-4
-2
0
1
3
5
8
13
16
19
22
24
24
20
15
12
10
8
7
4
0
-4
-6
-7
-8
-10
-11
-12
-13
-15
-17
-18
-20
-21
-22
-23
-23
-22
-21
-21
-22
-22
-20
-21
-20
-19
-18
-18
-16
-12
-10
-8
-8
-4
5
29
66
126
199
280
360
397
403
366
278
170
75
16
-14
-32
-37
-40
-44
-49
-50
-49
-47
-46
-45
-43
-42
-40
-40
-39
-37
-36
-36
-34
-32
-30
-28
-26
-26
-26
-25
-24
-23
-22
-22
-21
-21
-23
-25
-26
-27
-29
-31
-34
-36
-37
-38
-38
-39
-40
-42
-43
-44
-44
-45
-43
-40
-36
-30
-26
-21
-17
-11
-4
1
4
8
10
11
11
12
13
13
12
11
10
9
8
9
8
7
6
4
4
3
3
3
3
1
0
1
2
3
4
6
8
10
11
15
18
21
25
29
32
33
36
37
35
31
26
21
18
18
14
10
4
0
-1
0
0
-1
-3
-5
-7
-8
-11
-13
-15
-16
-17
-18
-18
-19
-19
-18
-17
-17
-15
-14
-13
-12
-13
-12
-10
-7
-6
-6
-4
3
20
52
96
166
249
333
392
405
392
326
215
113
33
-8
-31
-42
-47
-51
-54
-54
-54
-53
-53
-53
-53
-51
-49
-46
-44
-43
-40
-39
-39
-38
-35
-34
-33
-31
-28
-26
-24
-23
-23
-23
-24
-24
-25
-26
-28
-30
-32
-34
-35
-36
-38
-41
-43
-45
-47
-49
-49
-48
-49
-50
-48
-46
-42
-39
-33
-27
-22
-19
-14
-10
-6
-2
2
5
4
4
6
9
10
10
12
14
15
15
14
14
15
16
16
16
15
15
15
14
12
13
13
14
15
16
18
19
21
22
24
24
25
27
29
31
32
34
32
27
21
15
11
6
4
0
-8
-16
-20
-20
-21
-24
-26
-28
-28
-28
-27
-28
-30
-33
-35
-35
-36
-38
-40
-41
-42
-43
-41
-40
-38
-38
-37
-36
-34
-33
-32
-30
-29
-28
-22
-4
23
66
129
205
288
348
368
355
287
187
86
8
-31
-54
-65
-70
-76
-81
-83
-83
-81
-81
-80
-80
-79
-77
-76
-75
-74
-72
-71
-69
-67
-64
-61
-58
-55
-51
-48
-46
-44
-41
-38
-39
-41
-42
-43
-43
-45
-46
-48
-51
-53
-54
-56
-59
-61
-63
-63
-65
-67
-68
-70
-67
-65
-61
-59
-54
-48
-42
-37
-34
-30
-27
-24
-22
-20
-19
-18
-17
-17
-18
-18
-18
-19
-20
-22
-23
-25
-27
-28
-27
-27
-27
-26
-28
-29
-30
-29
-28
-27
-26
-25
-23
-22
-20
-17
-14
-13
-10
-6
-4
0
2
5
7
7
8
6
3
-1
-2
-2
-4
-9
-14
-17
-19
-20
-23
-25
-25
-24
-22
-24
-26
-27
-28
-29
-32
-33
-35
-35
-36
-36
-36
-34
-33
-32
-32
-32
-30
-28
-26
-25
-24
-22
-20
-16
-3
27
73
141
223
320
383
396
367
292
179
82
14
-25
-48
-59
-64
-67
-71
-74
-72
-70
-68
-67
-66
-63
-61
-61
-61
-59
-60
-60
-60
-56
-53
-51
-49
-48
-47
-46
-44
-44
-44
-46
-47
-48
-49
-49
-50
-51
-55
-57
-58
-60
-62
-64
-66
-70
-72
-72
-73
-74
-74
-72
-70
-68
-67
-62
-56
-52
-46
-39
-32
-28
-24
-21
-18
-17
-15
-15
-15
-16
-17
-18
-19
-18
-19
-19
-20
-20
-19
-19
-20
-23
-23
-22
-22
-21
-21
-20
-20
-19
-17
-17
-15
-13
-12
-11
-8
-5
-2
0
3
8
13
15
18
20
19
16
12
10
6
3
0
-4
-10
-16
-18
-18
-18
-20
-23
-23
-24
-25
-26
-27
-29
-31
-33
-34
-35
-34
-33
-33
-33
-32
-31
-29
-28
-26
-24
-21
-19
-19
-18
-16
-15
-10
4
30
71
127
212
302
374
408
402
360
264
148
54
-5
-32
-45
-50
-54
-59
-60
-61
-61
-62
-60
-60
-60
-58
-56
-53
-51
-47
-47
-48
-48
-46
-43
-43
-42
-41
-39
-39
-39
-38
-38
-38
-39
-39
-41
-44
-45
-47
-48
-51
-54
-58
-60
-61
-61
-62
-62
-63
-63
-63
-63
-60
-57
-52
-48
-43
-37
-31
-25
-20
-16
-12
-9
-6
-2
0
0
1
1
2
0
-1
-3
-4
-4
-4
-5
-7
-8
-8
-7
-7
-8
-8
-7
-8
-9
-8
-7
-5
-3
-1
2
6
10
15
19
22
26
30
33
32
31
28
24
20
17
17
13
8
1
-2
-5
-6
-6
-7
-8
-9
-10
-11
-12
-12
-12
-13
-15
-17
-20
-22
-23
-24
-23
-22
-21
-20
-18
-16
-15
-13
-11
-9
-8
-8
-7
-5
3
23
58
105
171
252
346
397
409
377
285
178
84
19
-18
-39
-47
-50
-53
-57
-60
-59
-59
-58
-58
-56
-54
-54
-53
-52
-52
-52
-51
-50
-48
-47
-46
-44
-42
-40
-39
-38
-38
-38
-37
-38
-39
-41
-41
-41
-43
-46
-48
-49
-51
-52
-54
-55
-57
-59
-61
-62
-62
-62
-60
-57
-53
-50
-47
-42
-36
-30
-24
-17
-13
-9
-6
-3
-2
-1
0
2
1
0
0
0
-1
-2
-2
-1
-2
-2
-1
-1
-2
-4
-5
-5
-5
-4
-4
-4
-5
-2
0
2
4
6
10
13
16
21
24
28
31
35
37
37
33
28
23
18
16
15
11
6
0
-3
-5
-7
-7
-8
-8
-9
-8
-9
-9
-11
-12
-13
-14
-15
-18
-19
-22
-24
-26
-26
-24
-22
-21
-22
-21
-19
-17
-14
-12
-12
-13
-8
6
35
83
147
224
310
373
405
396
347
255
138
54
1
-27
-42
-48
-50
-53
-56
-58
-59
-57
-55
-54
-52
-51
-50
-50
-50
-49
-48
-49
-47
-46
-45
-44
-43
-39
-37
-37
-37
-37
-37
-36
-36
-36
-36
-37
-36
-39
-42
-44
-47
-48
-50
-52
-56
-59
-61
-62
-60
-60
-59
-59
-56
-53
-49
-43
-37
-31
-26
-19
-14
-10
-6
-3
-1
0
0
2
3
2
1
0
0
-2
-2
-2
-2
-4
-4
-5
-6
-6
-6
-5
-4
-4
-3
-2
0
0
0
0
2
3
4
6
6
8
9
12
14
17
21
24
28
28
28
25
22
17
15
15
13
10
3
0
-4
-6
-7
-9
-10
-10
-11
-13
-15
-15
-16
-18
-21
-23
-24
-25
-26
-26
-26
-27
-26
-23
-21
-20
-19
-17
-16
-16
-15
-14
-13
-10
0
24
62
112
183
270
351
388
382
332
240
132
52
-2
-31
-45
-49
-52
-54
-57
-58
-56
-54
-54
-53
-52
-51
-49
-47
-45
-45
-43
-41
-42
-41
-40
-38
-37
-37
-37
-37
-38
-40
-39
-39
-38
-41
-42
-43
-44
-45
-49
-51
-54
-56
-59
-62
-63
-65
-66
-69
-69
-71
-70
-68
-67
-63
-59
-53
-48
-41
-35
-30
-25
-21
-18
-16
-14
-13
-12
-12
-13
-14
-15
-16
-17
-18
-19
-21
-21
-20
-20
-20
-19
-18
-18
-17
-15
-14
-13
-11
-9
-7
-7
-6
-7
-6
-5
-4
-3
-1
1
4
7
9
12
15
18
18
15
13
9
6
4
2
-1
-7
-11
-15
-16
-17
-18
-19
-19
-19
-21
-22
-25
-27
-30
-32
-33
-35
-36
-36
-34
-33
-32
-31
-30
-30
-29
-28
-27
-26
-25
-23
-21
-17
-8
7
35
74
133
200
280
335
360
347
295
203
107
30
-10
-34
-45
-51
-53
-57
-58
-60
-60
-59
-58
-58
-58
-56
-55
-55
-55
-53
-50
-48
-46
-45
-43
-42
-42
-41
-41
-41
-40
-39
-40
-41
-41
-42
-43
-44
-45
-47
-49
-51
-51
-52
-56
-58
-59
-59
-61
-60
-59
-60
-61
-59
-55
-53
-50
-45
-40
-36
-32
-29
-25
-23
-23
-22
-20
-18
-19
-18
-17
-17
-17
-16
-14
-14
-15
-17
-19
-21
-23
-24
-25
-26
-26
-25
-23
-23
-22
-21
-19
-17
-12
-6
-1
1
4
6
8
11
13
15
16
15
12
9
3
-1
-2
-4
-10
-16
-19
-21
-22
-22
-22
-22
-23
-23
-24
-24
-24
-25
-25
-25
-26
-29
-31
-32
-33
-32
-32
-31
-30
-27
-24
-23
-24
-23
-22
-20
-17
-16
-12
-4
16
46
91
142
213
292
337
349
318
246
151
65
10
-24
-42
-49
-51
-52
-56
-56
-56
-56
-54
-54
-53
-52
-51
-51
-49
-48
-47
-46
-45
-43
-43
-42
-40
-39
-38
-37
-37
-37
-37
-37
-36
-35
-36
-37
-37
-37
-39
-41
-43
-43
-44
-46
-48
-49
-50
-52
-53
-54
-55
-55
-53
-52
-53
-52
-50
-46
-42
-36
-31
-28
-25
-22
-19
-18
-16
-14
-11
-10
-11
-12
-13
-12
-12
-12
-12
-13
-14
-14
-14
-15
-16
-16
-15
-16
-17
-17
-15
-14
-15
-14
-13
-13
-13
-12
-10
-8
-5
-2
1
4
8
12
15
17
18
17
15
12
8
7
5
3
0
-5
-9
-11
-12
-12
-12
-13
-14
-14
-14
-15
-16
-17
-19
-21
-23
-25
-26
-28
-27
-27
-28
-27
-26
-24
-24
-23
-22
-22
-21
-21
-18
-16
-15
-11
2
31
68
118
190
274
344
358
331
259
158
72
9
-24
-40
-47
-48
-49
-54
-57
-57
-54
-54
-52
-51
-49
-48
-48
-46
-45
-44
-44
-43
-41
-40
-39
-38
-38
-38
-37
-36
-36
-36
-36
-37
-37
-38
-38
-39
-40
-41
-42
-43
-45
-48
-50
-53
-55
-55
-55
-56
-58
-57
-56
-54
-54
-51
-48
-44
-38
-33
-27
-22
-18
-14
-11
-9
-8
-6
-4
-4
-5
-6
-5
-4
-6
-6
-7
-8
-10
-11
-12
-13
-14
-14
-14
-15
-15
-14
-14
-15
-17
-17
-16
-15
-13
-12
-11
-10
-7
-5
-4
-3
0
2
5
8
11
14
14
14
15
15
12
8
7
5
2
-3
-7
-11
-12
-13
-12
-13
-18
-22
-25
-27
-28
-29
-28
-29
-31
-33
-34
-33
-32
-30
-30
-29
-29
-28
-27
-26
-25
-25
-24
-22
-20
-18
-18
-14
-2
25
64
116
187
275
347
374
356
298
192
95
23
-20
-43
-53
-54
-54
-57
-60
-59
-58
-57
-55
-54
-53
-51
-50
-47
-46
-44
-44
-42
-40
-39
-38
-37
-35
-36
-35
-34
-33
-33
-34
-36
-38
-39
-39
-39
-40
-42
-43
-46
-47
-50
-53
-54
-57
-58
-59
-58
-58
-58
-57
-55
-53
-51
-46
-40
-34
-28
-22
-16
-12
-9
-6
-4
-2
0
1
1
0
1
0
-1
-2
-1
-1
-2
-2
-4
-5
-7
-7
-7
-5
-5
-5
-4
-2
-2
-1
1
3
3
4
4
5
5
6
8
10
14
15
19
22
24
26
26
25
22
18
14
12
10
6
0
-4
-7
-9
-11
-13
-14
-16
-19
-21
-23
-24
-26
-27
-28
-28
-28
-28
-26
-25
-25
-25
-24
-23
-22
-23
-22
-20
-19
-19
-17
-15
-16
-15
-11
2
27
63
120
189
265
324
349
335
285
190
94
21
-16
-33
-41
-44
-46
-50
-53
-53
-51
-49
-49
-48
-46
-44
-44
-43
-40
-38
-35
-35
-33
-31
-28
-26
-25
-25
-25
-25
-24
-24
-25
-26
-27
-29
-31
-33
-34
-35
-37
-39
-41
-42
-45
-46
-48
-48
-50
-51
-51
-51
-51
-51
-48
-45
-41
-36
-30
-25
-23
-19
-13
-9
-6
-4
-3
-1
-1
-1
0
0
-1
-2
-2
-3
-3
-3
-5
-6
-7
-8
-9
-9
-9
-8
-8
-8
-8
-8
-6
-6
-4
-3
-2
-2
0
2
2
3
5
8
9
11
15
18
20
20
21
19
16
12
11
10
6
1
-3
-7
-10
-11
-12
-13
-15
-16
-16
-17
-18
-20
-21
-22
-24
-26
-26
-27
-26
-26
-26
-26
-25
-25
-26
-26
-26
-25
-24
-22
-21
-20
-19
-16
-8
14
45
91
152
234
314
348
347
299
208
113
37
-10
-38
-53
-58
-60
-63
-67
-67
-66
-64
-64
-64
-61
-59
-57
-56
-53
-52
-51
-49
-47
-45
-45
-42
-42
-41
-42
-42
-41
-42
-43
-44
-43
-45
-45
-46
-47
-48
-50
-51
-53
-55
-56
-57
-58
-60
-61
-63
-63
-64
-63
-62
-61
-59
-55
-50
-46
-41
-35
-30
-26
-23
-20
-16
-14
-12
-10
-8
-8
-9
-9
-10
-11
-12
-11
-11
-12
-12
-12
-12
-12
-12
-12
-11
-9
-9
-7
-5
-6
-6
-3
0
3
6
9
12
14
18
20
20
19
16
13
9
8
7
5
0
-4
-8
-11
-12
-12
-13
-14
-15
-16
-16
-15
-15
-14
-15
-16
-17
-17
-17
-18
-20
-21
-21
-21
-22
-22
-21
-21
-20
-18
-17
-16
-15
-15
-13
-7
7
34
71
118
192
274
344
369
355
301
203
113
43
-5
-33
-47
-51
-54
-58
-61
-61
-59
-60
-58
-58
-57
-55
-54
-53
-52
-49
-49
-47
-46
-45
-44
-43
-42
-41
-39
-38
-37
-36
-34
-33
-33
-34
-34
-34
-35
-36
-38
-38
-41
-43
-44
-45
-47
-49
-49
-50
-51
-50
-50
-48
-46
-43
-39
-33
-28
-24
-18
-15
-12
-9
-5
-5
-4
-4
-4
-5
-4
-4
-5
-5
-5
-5
-4
-4
-5
-5
-6
-7
-8
-9
-9
-9
-8
-8
-10
-10
-10
-8
-8
-7
-4
-2
0
3
5
8
12
14
17
20
19
17
14
10
6
6
4
0
-7
-11
-13
-13
-13
-14
-14
-14
-14
-14
-14
-13
-14
-13
-13
-13
-15
-16
-18
-19
-20
-22
-23
-24
-25
-25
-24
-23
-22
-21
-19
-18
-17
-15
-9
5
35
79
138
207
295
352
375
361
300
201
98
29
-10
-34
-46
-51
-52
-55
-57
-57
-56
-53
-53
-52
-50
-49
-47
-47
-47
-47
-47
-48
-46
-44
-43
-43
-42
-40
-39
-38
-38
-38
-39
-39
-38
-38
-38
-39
-40
-42
-42
-44
-46
-46
-48
-50
-52
-54
-55
-56
-56
-57
-56
-54
-51
-49
-45
-40
-34
-29
-24
-19
-14
-11
-8
-5
-3
-2
-2
-2
-4
-6
-6
-6
-6
-7
-7
-7
-7
-8
-9
-10
-11
-11
-12
-11
-11
-11
-11
-11
-10
-10
-9
-7
-6
-4
-3
-2
-1
0
2
5
8
10
13
15
18
20
20
18
15
11
6
3
1
0
-5
-10
-12
-12
-12
-13
-13
-13
-14
-15
-16
-17
-19
-21
-21
-21
-22
-24
-24
-24
-23
-22
-21
-20
-20
-19
-19
-17
-16
-15
-16
-15
-14
-14
-11
0
23
58
111
187
273
345
377
365
317
212
108
26
-18
-39
-50
-53
-55
-59
-62
-63
-62
-60
-59
-59
-58
-56
-56
-55
-55
-52
-49
-48
-48
-47
-44
-44
-45
-45
-44
-45
-45
-44
-44
-44
-45
-45
-45
-47
-48
-50
-50
-52
-53
-55
-56
-58
-60
-61
-62
-63
-65
-64
-64
-63
-62
-60
-56
-52
-46
-40
-34
-29
-25
-21
-19
-16
-15
-14
-14
-14
-13
-13
-13
-14
-15
-15
-15
-15
-15
-15
-16
-17
-17
-16
-16
-15
-14
-13
-14
-13
-12
-11
-11
-10
-9
-9
-10
-9
-8
-7
-7
-5
-3
-1
0
2
6
8
9
11
11
8
5
2
0
-2
-3
-4
-11
-16
-19
-20
-20
-22
-24
-27
-29
-31
-32
-32
-34
-35
-35
-33
-34
-32
-30
-29
-28
-29
-27
-27
-26
-26
-25
-24
-24
-23
-21
-20
-20
-19
-13
2
30
75
140
217
296
347
361
340
276
174
77
6
-25
-42
-48
-49
-53
-58
-59
-59
-57
-55
-53
-52
-52
-51
-51
-49
-48
-46
-45
-44
-44
-43
-42
-43
-42
-41
-39
-40
-39
-38
-39
-40
-41
-41
-41
-42
-44
-45
-45
-47
-48
-51
-52
-54
-54
-56
-57
-57
-57
-56
-57
-54
-51
-48
-44
-39
-32
-27
-23
-18
-13
-9
-7
-4
-2
-1
-2
-2
-2
-3
-5
-5
-6
-7
-8
-8
-9
-9
-9
-10
-10
-10
-10
-9
-9
-7
-6
-4
-3
-1
0
0
0
2
5
6
8
9
12
13
15
19
21
23
24
24
23
20
17
15
14
12
8
2
-2
-7
-9
-9
-9
-11
-13
-15
-16
-18
-19
-20
-20
-21
-21
-20
-19
-20
-19
-18
-17
-17
-15
-14
-14
-14
-13
-13
-13
-13
-12
-11
-9
-4
14
42
80
141
220
305
349
358
323
241
143
58
3
-24
-37
-42
-46
-50
-54
-54
-54
-53
-53
-52
-50
-49
-48
-46
-44
-43
-41
-39
-39
-36
-34
-31
-31
-31
-30
-31
-30
-29
-28
-28
-28
-29
-29
-30
-32
-33
-33
-34
-36
-37
-38
-40
-40
-41
-41
-42
-43
-43
-43
-41
-39
-37
-33
-28
-21
-14
-9
-4
0
4
7
9
10
11
10
11
11
10
9
8
7
6
5
6
6
8
7
7
6
6
6
6
7
6
6
7
10
12
14
17
20
23
24
28
32
36
39
41
42
42
42
42
43
42
39
31
24
21
20
19
16
14
12
11
9
9
8
6
5
3
2
1
0
-2
-4
-5
-6
-7
-8
-8
-7
-7
-4
-3
-2
-1
0
1
1
4
14
36
67
119
185
270
338
379
390
360
286
179
87
28
-7
-24
-34
-37
-42
-46
-46
-46
-46
-46
-44
-44
-45
-45
-46
-45
-44
-42
-41
-41
-40
-38
-35
-34
-33
-33
-33
-32
-32
-31
-31
-32
-33
-34
-36
-38
-40
-42
-43
-46
-48
-51
-52
-54
-56
-57
-58
-58
-59
-60
-60
-57
-54
-50
-47
-41
-35
-31
-27
-23
-17
-14
-11
-9
-8
-7
-7
-5
-5
-5
-7
-8
-9
-10
-11
-11
-10
-11
-12
-12
-12
-12
-12
-13
-14
-15
-15
-13
-12
-11
-9
-6
-4
-1
0
2
4
5
8
12
13
10
8
5
2
0
0
-3
-9
-14
-15
-15
-15
-17
-18
-19
-19
-19
-19
-21
-22
-23
-24
-26
-28
-28
-29
-30
-32
-35
-35
-35
-36
-37
-35
-34
-34
-34
-32
-31
-30
-29
-25
-14
7
44
99
167
257
329
370
367
315
217
106
25
-20
-50
-64
-70
-73
-78
-83
-83
-82
-79
-79
-78
-78
-76
-75
-77
-75
-74
-71
-71
-69
-67
-66
-65
-65
-63
-62
-62
-63
-62
-60
-60
-60
-61
-62
-64
-64
-65
-66
-68
-70
-73
-75
-76
-78
-80
-80
-79
-79
-78
-77
-77
-74
-71
-67
-63
-56
-49
-43
-36
-30
-26
-24
-20
-18
-16
-15
-14
-13
-13
-13
-14
-14
-15
-16
-16
-15
-15
-18
-19
-19
-19
-19
-18
-17
-17
-17
-16
-15
-13
-11
-9
-8
-8
-8
-5
-3
-2
-2
0
2
4
6
9
13
16
17
14
11
9
7
4
2
-2
-8
-13
-15
-14
-15
-16
-17
-17
-18
-19
-20
-21
-23
-26
-29
-30
-34
-36
-35
-34
-34
-34
-33
-31
-29
-27
-25
-24
-23
-22
-20
-19
-18
-11
10
41
82
149
242
341
387
391
360
272
168
69
1
-35
-52
-56
-58
-61
-64
-64
-62
-60
-59
-59
-58
-57
-56
-54
-54
-53
-52
-49
-48
-47
-45
-44
-44
-44
-41
-39
-38
-38
-37
-37
-39
-39
-40
-41
-43
-45
-46
-49
-51
-54
-55
-56
-57
-59
-61
-62
-63
-63
-62
-59
-57
-53
-48
-43
-37
-30
-22
-15
-10
-5
-1
2
4
6
8
9
10
13
14
14
13
15
15
15
15
15
16
15
15
14
13
12
12
13
14
14
15
17
18
19
21
22
23
23
26
27
28
29
33
36
40
46
48
50
47
46
42
39
36
34
32
26
20
16
14
13
11
11
9
7
4
1
0
-1
0
-1
-1
-1
0
0
0
1
1
0
1
2
3
4
4
5
7
8
9
10
13
24
46
83
134
199
281
358
407
418
386
304
182
94
36
1
-16
-20
-20
-23
-25
-24
-21
-18
-17
-16
-15
-11
-9
-8
-4
1
6
10
19
26
30
32
33
34
33
32
29
27
24
23
21
21
19
16
14
11
9
7
4
1
-2
-5
-9
-12
-15
-17
-20
-24
-25
-23
-20
-17
-11
-3
1
5
11
18
22
24
25
27
28
28
28
28
26
23
25
27
27
25
25
24
22
20
17
14
12
10
9
8
7
8
9
9
10
11
13
14
16
19
19
21
23
26
27
24
21
15
10
6
5
5
3
-2
-9
-12
-12
-12
-14
-17
-18
-18
-15
-13
-12
-10
-9
-8
-8
-8
-10
-12
-15
-17
-19
-20
-21
-21
-21
-21
-20
-19
-19
-19
-19
-19
-17
-6
15
52
104
171
253
329
369
372
326
230
126
49
1
-32
-53
-61
-65
-70
-72
-71
-68
-66
-64
-63
-60
-57
-56
-57
-56
-54
-54
-52
-51
-50
-53
-54
-54
-54
-53
-53
-53
-54
-55
-55
-56
-56
-59
-60
-61
-63
-66
-69
-70
-75
-79
-84
-87
-89
-89
-87
-87
-84
-85
-81
-77
-72
-70
-65
-56
-49
-41
-34
-28
-26
-22
-18
-16
-16
-15
-15
-15
-16
-15
-15
-15
-16
-18
-20
-22
-24
-24
-24
-26
-29
-31
-32
-34
-35
-35
-35
-36
-36
-36
-36
-35
-34
-33
-32
-31
-31
-28
-25
-22
-20
-19
-19
-22
-24
-25
-24
-24
-29
-36
-41
-42
-42
-42
-44
-46
-44
-44
-42
-43
-41
-39
-39
-38
-37
-35
-36
-37
-36
-35
-35
-38
-42
-47
-48
-47
-44
-42
-40
-40
-40
-38
-32
-14
16
57
112
196
287
349
363
337
262
163
65
-7
-55
-78
-87
-90
-95
-102
-106
-106
-104
-105
-103
-102
-101
-102
-101
-99
-100
-98
-97
-94
-94
-92
-92
-92
-89
-89
-87
-88
-85
-86
-86
-87
-88
-88
-90
-89
-91
-90
-91
-93
-96
-98
-99
-100
-99
-100
-99
-98
-97
-93
-91
-87
-83
-74
-68
-61
-53
-47
-43
-39
-35
-33
-32
-30
-28
-28
-29
-29
-31
-32
-34
-34
-33
-32
-34
-36
-37
-37
-36
-34
-32
-33
-35
-35
-34
-32
-31
-29
-27
-25
-24
-21
-20
-19
-18
-17
-15
-14
-11
-7
-3
0
1
3
2
0
-2
-4
-7
-10
-16
-21
-26
-29
-28
-27
-29
-30
-30
-30
-30
-31
-31
-31
-33
-33
-34
-36
-38
-39
-38
-39
-41
-42
-40
-37
-35
-34
-31
-28
-26
-23
-21
-20
-20
-16
-5
18
57
114
200
288
365
393
384
334
228
121
43
0
-22
-34
-38
-43
-48
-52
-54
-52
-52
-50
-50
-49
-49
-48
-49
-51
-50
-49
-45
-43
-41
-40
-41
-39
-36
-35
-36
-35
-35
-34
-34
-34
-33
-34
-35
-36
-36
-36
-37
-39
-39
-41
-43
-45
-45
-44
-44
-44
-45
-47
-47
-44
-39
-35
-32
-28
-23
-18
-13
-9
-5
-3
0
3
4
3
3
2
2
1
2
2
3
3
4
3
3
3
2
2
0
0
1
3
3
5
7
9
10
11
13
15
18
22
25
27
28
30
34
39
41
43
41
39
34
32
31
29
24
18
13
9
8
7
6
6
5
6
5
3
0
-1
-1
-4
-6
-9
-11
-12
-12
-12
-13
-12
-10
-9
-9
-9
-9
-9
-7
-6
-4
-4
0
14
46
87
145
229
327
400
414
397
332
220
126
54
9
-17
-30
-34
-38
-41
-45
-46
-44
-43
-41
-40
-38
-37
-36
-35
-33
-33
-33
-33
-33
-31
-29
-28
-27
-27
-28
-27
-26
-25
-24
-24
-25
-26
-25
-25
-26
-27
-28
-30
-32
-32
-34
-34
-33
-34
-37
-40
-42
-43
-43
-42
-40
-35
-30
-26
-22
-18
-13
-8
-5
-1
1
3
5
6
4
0
-2
-1
0
1
-1
-3
-4
-5
-5
-3
-4
-7
-8
-7
-6
-8
-10
-10
-9
-7
-6
-7
-9
-9
-8
-5
-5
-5
-2
0
2
4
8
12
18
22
26
27
26
22
18
14
12
12
9
4
-2
-6
-7
-10
-10
-10
-9
-9
-9
-7
-9
-11
-14
-15
-16
-16
-18
-21
-23
-24
-24
-23
-21
-20
-21
-20
-18
-16
-15
-15
-15
-14
-12
-9
1
25
63
122
201
289
368
404
404
362
260
147
48
-7
-38
-54
-58
-60
-64
-67
-69
-68
-68
-67
-68
-67
-65
-63
-62
-62
-61
-60
-59
-57
-54
-52
-51
-50
-47
-45
-45
-45
-43
-42
-43
-42
-41
-40
-41
-41
-40
-42
-44
-46
-47
-48
-50
-50
-52
-53
-53
-53
-53
-54
-54
-53
-50
-47
-43
-36
-31
-26
-24
-20
-16
-12
-9
-9
-9
-7
-6
-6
-7
-7
-7
-7
-7
-8
-7
-7
-9
-10
-10
-10
-11
-12
-13
-12
-12
-11
-9
-8
-6
-6
-5
-4
-4
-4
-1
1
1
3
6
10
13
14
15
16
19
20
22
20
18
14
10
7
5
4
0
-8
-13
-15
-15
-16
-17
-17
-19
-20
-22
-24
-27
-28
-28
-28
-30
-31
-30
-29
-28
-29
-27
-24
-23
-23
-23
-21
-20
-18
-15
-14
-15
-13
-3
18
52
101
176
263
342
388
398
371
303
187
89
21
-14
-32
-40
-44
-49
-52
-52
-52
-51
-51
-51
-49
-48
-46
-44
-42
-42
-43
-42
-42
-41
-40
-38
-37
-35
-35
-36
-35
-35
-35
-35
-35
-36
-37
-39
-40
-40
-41
-42
-43
-44
-45
-47
-48
-51
-52
-54
-54
-54
-53
-53
-52
-48
-45
-40
-35
-28
-21
-17
-14
-10
-7
-5
-3
-1
0
0
1
0
-1
-2
-2
-3
-4
-5
-4
-4
-6
-7
-8
-8
-8
-7
-4
-4
-3
-2
-1
0
1
4
4
5
7
13
17
20
21
25
28
30
33
34
32
26
22
18
16
14
10
4
0
-5
-7
-10
-11
-12
-13
-14
-16
-19
-20
-20
-20
-23
-27
-30
-30
-29
-28
-27
-24
-23
-22
-22
-23
-23
-20
-18
-17
-17
-16
-14
-12
-5
14
48
93
161
260
347
396
394
355
271
163
70
10
-24
-40
-47
-50
-56
-58
-59
-56
-56
-56
-53
-53
-54
-54
-53
-53
-52
-51
-50
-48
-47
-46
-46
-45
-46
-47
-46
-46
-45
-44
-42
-43
-44
-45
-46
-46
-48
-51
-55
-55
-55
-56
-57
-58
-59
-60
-61
-64
-63
-61
-60
-59
-56
-52
-46
-38
-33
-29
-25
-19
-15
-11
-8
-7
-5
-4
-4
-5
-5
-5
-6
-8
-8
-8
-8
-8
-10
-12
-14
-13
-13
-13
-15
-18
-17
-14
-13
-12
-11
-10
-10
-9
-7
-6
-4
-4
-3
-1
0
2
7
11
14
17
20
18
19
19
19
16
12
9
8
5
0
-5
-9
-11
-10
-9
-9
-11
-13
-13
-14
-17
-20
-20
-21
-23
-24
-25
-27
-27
-24
-23
-23
-23
-23
-21
-20
-18
-17
-16
-16
-16
-15
-13
-7
9
42
89
154
227
318
370
382
359
281
172
76
18
-13
-36
-44
-47
-50
-55
-58
-57
-55
-54
-55
-54
-53
-51
-49
-47
-44
-43
-43
-43
-41
-40
-40
-38
-36
-35
-36
-38
-37
-35
-34
-33
-32
-33
-34
-36
-37
-39
-40
-40
-41
-43
-46
-47
-47
-48
-49
-48
-48
-49
-49
-48
-45
-43
-39
-35
-28
-23
-19
-13
-8
-3
0
2
4
5
6
5
3
2
4
3
3
3
3
1
0
0
-4
-6
-7
-7
-6
-5
-5
-5
-3
-2
-2
-1
0
2
4
6
8
10
13
16
21
25
27
31
33
33
31
29
27
21
17
15
13
8
2
-2
-5
-6
-8
-10
-11
-12
-13
-14
-15
-17
-19
-20
-21
-22
-23
-21
-19
-18
-19
-20
-20
-18
-16
-15
-13
-13
-13
-12
-11
-11
-10
-9
-3
14
49
103
174
261
340
401
416
396
327
201
99
28
-11
-35
-47
-49
-52
-56
-58
-59
-56
-56
-56
-56
-53
-51
-49
-48
-46
-44
-43
-43
-41
-38
-38
-37
-36
-37
-38
-37
-34
-34
-33
-33
-34
-34
-37
-39
-42
-45
-48
-49
-50
-54
-58
-61
-63
-65
-67
-68
-69
-69
-69
-65
-63
-59
-54
-47
-40
-35
-29
-23
-20
-17
-14
-12
-11
-11
-10
-11
-12
-12
-13
-15
-18
-19
-19
-18
-18
-18
-18
-18
-17
-18
-18
-18
-18
-16
-15
-14
-15
-14
-13
-13
-11
-9
-6
-4
0
1
3
6
10
14
18
23
24
24
21
16
11
7
5
3
-1
-8
-14
-15
-13
-13
-14
-15
-16
-17
-19
-20
-21
-22
-22
-25
-26
-27
-28
-27
-26
-24
-24
-23
-22
-23
-24
-22
-18
-16
-14
-13
-13
-13
-6
16
53
100
169
273
373
426
434
402
319
204
95
21
-27
-50
-58
-60
-65
-69
-73
-74
-75
-73
-71
-68
-67
-66
-64
-63
-64
-65
-63
-60
-59
-58
-58
-56
-56
-55
-54
-53
-53
-54
-55
-56
-57
-57
-57
-57
-60
-63
-67
-69
-72
-72
-72
-73
-73
-73
-72
-73
-71
-71
-69
-66
-62
-56
-50
-45
-39
-31
-27
-24
-19
-14
-10
-8
-7
-7
-8
-10
-11
-11
-11
-13
-14
-14
-14
-12
-10
-10
-11
-10
-9
-8
-8
-6
-5
-4
-4
-3
-3
-2
-1
0
1
1
-1
0
3
7
11
15
19
21
24
28
30
28
28
25
21
17
15
14
9
2
-4
-8
-10
-10
-10
-10
-11
-14
-15
-16
-18
-19
-20
-21
-23
-25
-24
-24
-23
-22
-20
-19
-18
-16
-15
-14
-14
-14
-13
-14
-13
-12
-9
2
26
68
125
195
284
359
405
406
365
266
147
55
2
-30
-45
-50
-52
-57
-59
-59
-58
-57
-57
-56
-56
-54
-53
-51
-50
-48
-47
-47
-46
-46
-44
-43
-42
-41
-41
-41
-41
-41
-41
-41
-43
-44
-45
-45
-45
-46
-48
-50
-51
-53
-54
-55
-57
-58
-59
-59
-60
-59
-58
-56
-54
-51
-46
-42
-36
-30
-23
-16
-10
-7
-4
-1
-1
-1
-1
0
-1
-1
-2
-3
-4
-3
-2
-2
-2
-5
-7
-7
-6
-7
-9
-11
-12
-11
-10
-8
-7
-6
-4
-3
-1
1
6
9
12
16
21
24
27
29
29
26
19
15
12
12
9
3
-2
-7
-7
-8
-9
-11
-11
-10
-10
-11
-13
-13
-14
-16
-17
-18
-19
-21
-23
-25
-24
-24
-24
-25
-25
-24
-22
-20
-17
-16
-16
-17
-16
-11
5
33
75
128
213
310
376
400
380
323
220
115
37
-14
-39
-49
-52
-56
-62
-63
-63
-60
-61
-60
-57
-55
-53
-53
-51
-51
-49
-48
-48
-48
-47
-45
-45
-44
-45
-45
-45
-44
-43
-42
-42
-43
-44
-42
-43
-45
-48
-49
-50
-51
-54
-56
-56
-57
-59
-60
-60
-60
-61
-61
-59
-58
-55
-50
-44
-38
-32
-23
-17
-13
-11
-7
-5
-4
-3
-1
1
0
0
0
0
0
0
0
-1
-2
-4
-5
-7
-7
-7
-5
-5
-7
-8
-7
-6
-6
-5
-5
-5
-4
-2
-1
-1
0
0
2
4
5
8
12
13
12
14
17
21
22
23
22
19
15
11
10
9
6
1
-4
-6
-8
-8
-10
-11
-11
-13
-15
-18
-18
-19
-21
-24
-27
-27
-27
-26
-25
-25
-25
-25
-23
-22
-21
-21
-19
-17
-16
-16
-16
-15
-12
0
27
64
116
188
276
350
369
357
302
201
111
36
-8
-35
-48
-51
-52
-55
-57
-57
-55
-54
-54
-54
-53
-51
-49
-49
-50
-50
-50
-47
-46
-45
-42
-40
-38
-39
-39
-40
-42
-42
-41
-41
-42
-43
-43
-43
-45
-46
-48
-49
-50
-52
-53
-54
-55
-56
-57
-58
-59
-59
-58
-55
-53
-50
-47
-42
-37
-33
-27
-22
-17
-14
-11
-8
-7
-5
-4
-4
-4
-5
-5
-6
-6
-6
-6
-6
-7
-8
-8
-9
-10
-9
-8
-9
-9
-8
-8
-9
-9
-7
-7
-6
-6
-6
-5
-4
-2
0
1
2
4
6
8
9
12
16
16
15
12
10
6
3
3
2
0
-6
-10
-14
-18
-20
-22
-23
-25
-27
-27
-28
-29
-30
-28
-28
-28
-27
-26
-24
-24
-23
-24
-23
-22
-21
-21
-21
-19
-18
-16
-15
-15
-13
-7
6
32
73
129
197
268
322
339
318
248
153
58
5
-22
-39
-45
-48
-51
-54
-56
-55
-54
-52
-52
-51
-49
-49
-48
-48
-46
-45
-44
-43
-42
-41
-41
-41
-40
-39
-39
-39
-38
-38
-38
-39
-39
-41
-42
-42
-43
-44
-46
-46
-48
-49
-50
-50
-51
-54
-55
-55
-55
-55
-53
-50
-47
-42
-36
-30
-26
-22
-18
-15
-12
-9
-7
-6
-5
-5
-5
-6
-8
-9
-9
-11
-12
-13
-13
-13
-13
-13
-15
-17
-19
-19
-18
-18
-17
-17
-16
-15
-14
-12
-11
-10
-7
-3
-1
1
5
9
10
11
13
12
10
6
3
2
1
-2
-9
-14
-17
-17
-16
-17
-17
-17
-16
-17
-17
-19
-20
-21
-22
-21
-22
-25
-26
-27
-28
-28
-26
-25
-25
-26
-24
-23
-22
-21
-19
-18
-19
-15
-1
25
58
112
188
280
343
361
344
289
194
97
19
-25
-45
-53
-56
-58
-61
-63
-61
-60
-58
-58
-57
-57
-56
-54
-53
-52
-52
-49
-48
-47
-46
-46
-46
-46
-45
-44
-45
-45
-44
-44
-45
-45
-45
-43
-45
-46
-47
-48
-49
-52
-53
-55
-56
-58
-58
-59
-60
-61
-61
-59
-58
-53
-47
-42
-37
-31
-25
-19
-14
-11
-7
-4
-1
0
1
1
1
1
1
0
1
1
0
0
0
0
0
-1
0
0
0
0
0
0
1
2
2
3
2
3
4
5
6
5
6
9
10
10
12
13
16
18
21
25
27
30
31
31
28
24
22
20
19
17
13
7
3
1
0
0
0
0
-1
-1
-3
-4
-6
-7
-8
-10
-11
-13
-13
-14
-15
-14
-14
-12
-12
-11
-11
-9
-8
-8
-7
-6
-6
-5
3
23
55
93
156
244
324
374
376
351
281
180
91
22
-16
-35
-42
-44
-48
-52
-56
-55
-54
-53
-52
-50
-49
-49
-47
-46
-45
-43
-42
-40
-39
-37
-37
-36
-35
-35
-33
-33
-33
-33
-33
-34
-35
-36
-37
-37
-39
-40
-43
-44
-47
-49
-50
-52
-54
-55
-54
-55
-55
-55
-53
-52
-51
-47
-44
-40
-35
-28
-24
-20
-17
-13
-9
-7
-6
-3
-2
-3
-3
-2
-3
-5
-7
-6
-7
-8
-9
-9
-11
-12
-11
-12
-14
-14
-14
-14
-14
-13
-12
-10
-9
-7
-5
-3
0
4
9
12
16
20
23
23
22
19
15
9
5
3
2
-2
-9
-14
-16
-18
-19
-20
-21
-21
-22
-23
-24
-26
-28
-30
-30
-32
-33
-34
-33
-33
-32
-31
-30
-30
-30
-28
-27
-27
-26
-25
-24
-24
-25
-22
-13
3
33
83
144
223
304
356
376
351
287
175
71
8
-30
-54
-65
-68
-69
-74
-75
-75
-72
-70
-70
-68
-67
-64
-64
-62
-60
-59
-59
-59
-58
-58
-56
-54
-52
-51
-50
-50
-49
-49
-50
-50
-50
-51
-53
-53
-52
-54
-58
-64
-67
-66
-65
-64
-65
-67
-71
-70
-67
-61
-59
-57
-56
-56
-53
-50
-45
-41
-36
-31
-29
-27
-27
-28
-30
-32
-35
-39
-41
-43
-45
-48
-50
-53
-55
-59
-62
-62
-64
-64
-65
-65
-67
-67
-67
-69
-70
-71
-70
-71
-69
-68
-68
-67
-65
-63
-61
-57
-55
-53
-50
-46
-42
-40
-38
-37
-38
-42
-44
-46
-48
-50
-54
-59
-64
-66
-65
-66
-67
-68
-68
-69
-69
-70
-70
-72
-75
-75
-77
-77
-78
-76
-75
-75
-75
-75
-72
-72
-71
-71
-70
-70
-69
-65
-64
-64
-61
-46
-17
21
80
165
270
344
357
332
251
147
53
-17
-55
-72
-79
-78
-81
-83
-85
-84
-82
-81
-80
-78
-75
-73
-73
-71
-71
-70
-70
-68
-66
-64
-62
-60
-60
-59
-57
-56
-55
-55
-54
-53
-53
-55
-56
-56
-59
-61
-63
-64
-65
-66
-66
-68
-68
-69
-68
-69
-69
-69
-69
-66
-64
-59
-56
-52
-48
-41
-34
-31
-28
-23
-19
-17
-13
-11
-11
-12
-12
-11
-12
-13
-14
-14
-14
-14
-13
-13
-14
-14
-13
-12
-11
-10
-8
-6
-4
-2
-1
0
1
2
2
4
5
8
10
12
16
19
23
24
27
30
33
34
33
32
27
22
19
19
17
12
7
2
0
0
-1
-3
-4
-4
-6
-8
-9
-11
-13
-13
-13
-14
-14
-13
-13
-13
-12
-11
-10
-9
-8
-8
-6
-5
-4
-2
-1
-1
-2
1
14
40
80
133
202
289
361
391
381
324
217
114
39
0
-22
-33
-36
-38
-41
-43
-42
-41
-40
-39
-37
-34
-33
-32
-31
-30
-29
-28
-27
-26
-24
-22
-21
-20
-20
-19
-18
-16
-16
-17
-18
-19
-21
-22
-22
-23
-24
-26
-27
-28
-29
-29
-31
-32
-32
-32
-31
-30
-30
-30
-26
-24
-20
-15
-9
-4
1
8
13
18
23
28
31
34
36
38
40
40
41
43
43
40
41
43
44
42
42
43
44
44
43
44
43
43
42
44
44
42
44
46
48
47
48
51
52
55
56
60
63
66
69
73
72
67
62
56
53
50
50
46
39
33
28
28
27
27
26
25
24
23
21
17
14
12
12
10
8
9
11
11
10
12
13
12
11
14
15
15
17
20
22
21
19
19
27
50
86
144
216
304
379
419
426
394
307
188
95
40
12
-5
-13
-15
-16
-19
-21
-22
-22
-20
-18
-17
-15
-15
-14
-12
-11
-10
-11
-10
-8
-7
-8
-7
-6
-6
-7
-8
-6
-7
-9
-12
-13
-14
-15
-18
-21
-23
-22
-22
-25
-29
-30
-32
-35
-41
-45
-44
-43
-42
-40
-37
-36
-32
-25
-20
-17
-11
-3
3
6
7
10
11
11
11
11
11
9
10
10
9
7
6
6
6
4
3
2
2
3
1
0
-1
2
4
4
5
5
7
8
7
7
7
9
11
12
14
16
18
22
24
25
28
31
32
28
25
20
18
17
15
10
3
-2
-5
-5
-3
-6
-12
-16
-17
-18
-18
-21
-23
-23
-23
-22
-22
-24
-26
-26
-23
-21
-21
-22
-21
-20
-19
-17
-15
-14
-14
-16
-17
-13
-2
22
59
123
205
297
376
407
408
365
266
147
51
-3
-34
-51
-56
-60
-63
-66
-66
-68
-68
-65
-63
-60
-58
-56
-59
-61
-60
-59
-58
-58
-56
-54
-53
-54
-54
-54
-55
-56
-57
-57
-58
-56
-57
-57
-58
-59
-59
-62
-65
-67
-68
-69
-70
-71
-73
-75
-77
-77
-78
-78
-77
-75
-71
-68
-63
-58
-53
-48
-41
-34
-30
-27
-25
-23
-23
-22
-20
-18
-20
-21
-22
-22
-23
-23
-22
-22
-23
-24
-24
-24
-24
-24
-24
-24
-23
-23
-22
-22
-22
-21
-20
-19
-19
-19
-17
-16
-14
-11
-8
-6
-2
1
6
9
11
12
11
9
5
1
0
0
-1
-7
-13
-16
-16
-15
-17
-19
-19
-20
-23
-26
-27
-28
-30
-30
-29
-28
-29
-29
-27
-25
-26
-26
-25
-23
-23
-22
-20
-21
-22
-21
-20
-19
-18
-10
12
44
87
151
243
341
389
406
385
319
216
104
27
-17
-39
-48
-53
-57
-61
-62
-62
-63
-62
-61
-59
-57
-56
-54
-54
-53
-53
-51
-51
-50
-49
-49
-48
-48
-47
-46
-43
-41
-41
-40
-40
-42
-43
-43
-43
-43
-45
-46
-48
-50
-51
-53
-53
-55
-56
-57
-58
-58
-59
-58
-56
-54
-50
-45
-41
-35
-29
-23
-18
-14
-8
-5
-3
-1
2
3
4
4
4
3
2
4
5
5
3
2
3
3
1
0
0
0
1
2
2
1
0
0
0
0
0
1
4
4
6
8
10
11
15
17
19
21
24
26
29
30
27
24
20
16
12
11
10
5
0
-3
-5
-8
-9
-10
-13
-15
-16
-18
-19
-21
-23
-23
-23
-24
-24
-24
-24
-23
-21
-19
-19
-19
-18
-17
-14
-12
-11
-10
-9
-9
-9
-7
0
22
59
113
183
266
349
392
393
362
269
162
70
15
-15
-33
-39
-42
-47
-50
-51
-51
-50
-50
-49
-46
-43
-42
-43
-42
-42
-40
-39
-39
-41
-40
-37
-35
-33
-31
-32
-32
-32
-33
-32
-31
-30
-32
-34
-34
-36
-38
-40
-41
-42
-44
-47
-50
-52
-54
-54
-53
-52
-53
-54
-51
-49
-45
-41
-34
-29
-23
-16
-11
-8
-5
-3
0
0
1
2
4
4
2
2
1
0
0
0
-2
-6
-6
-6
-6
-8
-8
-8
-7
-7
-7
-5
-5
-4
-3
-2
-3
-2
0
0
0
0
2
3
4
6
7
9
10
12
14
19
23
24
25
23
20
17
15
12
10
10
7
2
-3
-7
-9
-11
-13
-16
-17
-19
-20
-19
-18
-18
-18
-17
-16
-15
-14
-13
-13
-14
-14
-13
-12
-11
-10
-9
-7
-8
-8
-6
-6
-7
-1
17
48
89
155
243
335
386
401
383
322
218
116
35
-8
-31
-42
-48
-53
-58
-59
-58
-57
-56
-54
-53
-53
-51
-50
-49
-49
-47
-46
-46
-44
-43
-40
-40
-39
-39
-37
-37
-39
-39
-39
-38
-39
-40
-41
-42
-43
-44
-44
-44
-46
-49
-51
-53
-55
-55
-56
-56
-57
-57
-57
-56
-54
-51
-47
-42
-35
-29
-24
-21
-15
-10
-7
-5
-2
-1
-1
-1
0
0
-1
-2
-2
-3
-4
-5
-5
-7
-8
-9
-9
-10
-11
-11
-11
-10
-10
-9
-8
-7
-5
-4
-3
-3
-1
0
3
6
9
11
13
15
18
20
19
17
13
10
7
4
1
-4
-11
-15
-17
-17
-18
-20
-22
-23
-24
-27
-28
-30
-32
-33
-33
-33
-31
-30
-30
-31
-32
-30
-27
-26
-26
-24
-23
-23
-23
-22
-21
-21
-20
-15
2
32
83
154
241
330
383
403
379
307
190
80
9
-28
-50
-59
-63
-65
-70
-71
-71
-70
-68
-66
-64
-63
-61
-60
-58
-58
-57
-57
-57
-55
-55
-54
-54
-53
-53
-53
-53
-52
-51
-52
-53
-53
-53
-54
-56
-55
-56
-56
-59
-61
-64
-65
-66
-67
-69
-70
-69
-70
-70
-68
-64
-60
-57
-52
-43
-36
-33
-29
-23
-18
-15
-12
-8
-7
-7
-7
-5
-7
-9
-11
-12
-12
-13
-12
-12
-12
-12
-12
-12
-14
-14
-14
-13
-14
-14
-13
-12
-12
-11
-9
-9
-8
-7
-6
-7
-8
-7
-5
-4
-5
-3
1
5
6
8
11
15
17
18
18
16
14
9
6
5
3
-1
-6
-10
-14
-16
-18
-19
-21
-22
-23
-24
-26
-28
-29
-30
-31
-31
-31
-31
-30
-29
-27
-26
-25
-24
-23
-23
-22
-21
-20
-19
-18
-15
-16
-15
-3
22
54
103
174
279
363
403
407
370
295
182
83
16
-25
-44
-50
-53
-56
-61
-62
-64
-63
-62
-60
-58
-57
-56
-55
-53
-53
-52
-50
-49
-48
-47
-44
-44
-44
-43
-42
-42
-39
-38
-37
-36
-37
-37
-37
-38
-39
-40
-40
-42
-43
-44
-47
-51
-54
-55
-55
-54
-55
-54
-53
-52
-50
-48
-44
-41
-36
-30
-24
-20
-17
-12
-10
-9
-7
-4
-2
-1
-1
-1
-1
-2
-4
-5
-5
-6
-6
-5
-8
-11
-12
-11
-9
-9
-9
-10
-10
-7
-5
-4
-4
-4
-3
-1
0
0
1
3
4
5
7
11
13
16
18
22
24
28
31
31
29
24
21
18
16
14
8
0
-6
-9
-12
-14
-17
-19
-19
-19
-19
-19
-18
-18
-19
-18
-16
-13
-14
-15
-15
-15
-16
-16
-13
-12
-12
-13
-13
-13
-13
-12
-11
-11
-10
-1
20
52
97
165
256
347
396
414
396
335
236
121
43
-4
-28
-39
-44
-47
-52
-56
-57
-58
-57
-55
-53
-52
-52
-50
-48
-47
-46
-46
-45
-44
-45
-43
-42
-42
-42
-41
-40
-40
-40
-37
-37
-37
-38
-37
-37
-39
-42
-44
-45
-47
-49
-51
-53
-54
-56
-56
-58
-59
-61
-60
-62
-62
-59
-55
-49
-44
-36
-31
-26
-21
-16
-11
-9
-6
-3
-1
-2
-3
-4
-4
-5
-6
-8
-8
-8
-9
-9
-9
-9
-10
-10
-11
-12
-11
-10
-9
-9
-8
-7
-5
-4
-2
0
0
1
2
4
6
8
11
15
18
20
25
28
30
30
30
27
23
20
17
15
12
6
0
-5
-8
-10
-12
-15
-18
-21
-22
-22
-23
-23
-23
-22
-19
-18
-18
-18
-17
-16
-17
-18
-17
-15
-16
-16
-16
-15
-14
-13
-13
-13
-13
-7
13
47
93
152
243
337
392
402
374
294
188
90
21
-19
-39
-48
-52
-55
-60
-62
-61
-59
-59
-57
-55
-53
-52
-51
-50
-49
-49
-49
-47
-47
-46
-45
-43
-42
-42
-40
-39
-39
-39
-37
-37
-37
-37
-38
-39
-41
-41
-43
-44
-46
-48
-49
-50
-50
-52
-54
-56
-57
-56
-55
-53
-52
-47
-41
-35
-31
-25
-19
-15
-11
-7
-5
-6
-5
-2
0
-1
-2
-3
-4
-6
-6
-5
-7
-7
-7
-6
-6
-7
-8
-8
-8
-8
-7
-8
-8
-8
-5
-3
-6
-7
-6
-5
-4
-2
-1
-3
-3
-1
2
3
5
8
12
14
16
19
19
17
12
10
8
6
4
1
-5
-13
-17
-18
-18
-20
-23
-25
-27
-28
-30
-31
-30
-30
-32
-33
-32
-32
-31
-31
-31
-30
-29
-29
-29
-28
-27
-26
-25
-23
-19
-19
-19
-17
-3
21
61
117
204
301
367
398
383
324
215
100
19
-24
-46
-56
-60
-64
-70
-71
-71
-69
-69
-67
-65
-64
-63
-62
-59
-58
-57
-55
-54
-53
-52
-49
-49
-48
-47
-46
-45
-46
-44
-44
-44
-44
-44
-44
-44
-45
-46
-47
-49
-50
-52
-55
-58
-59
-61
-63
-64
-66
-66
-66
-64
-61
-57
-53
-49
-44
-39
-32
-26
-18
-13
-10
-9
-6
-5
-5
-5
-5
-5
-6
-6
-7
-8
-10
-11
-12
-12
-13
-13
-13
-14
-14
-13
-14
-14
-15
-14
-14
-14
-13
-13
-11
-11
-10
-9
-7
-6
-5
-3
-1
1
4
7
9
12
14
15
14
11
7
3
1
0
-2
-7
-13
-18
-19
-19
-22
-24
-26
-28
-30
-31
-32
-32
-32
-32
-31
-30
-30
-29
-28
-26
-25
-25
-23
-23
-22
-21
-19
-19
-19
-18
-16
-15
-15
-11
2
29
72
137
222
322
381
409
397
344
248
129
41
-9
-37
-49
-57
-61
-65
-69
-68
-69
-68
-68
-67
-67
-66
-64
-64
-62
-62
-60
-60
-59
-58
-56
-53
-53
-52
-50
-48
-48
-47
-45
-45
-46
-47
-47
-49
-51
-52
-52
-54
-56
-57
-59
-60
-62
-63
-64
-65
-65
-66
-66
-66
-64
-61
-57
-54
-49
-42
-36
-30
-26
-20
-17
-14
-12
-9
-8
-7
-7
-7
-8
-10
-11
-12
-13
-14
-14
-14
-15
-16
-16
-16
-16
-16
-15
-16
-15
-14
-13
-13
-13
-12
-10
-9
-7
-5
-2
0
3
6
10
13
17
20
23
22
21
17
13
8
5
3
0
-3
-10
-13
-15
-16
-18
-19
-21
-24
-26
-29
-31
-32
-33
-32
-32
-31
-31
-29
-27
-27
-26
-26
-24
-23
-22
-22
-22
-21
-19
-16
-15
-13
-12
-7
5
34
80
139
212
304
375
409
403
350
250
130
49
-1
-31
-45
-51
-54
-59
-62
-61
-61
-60
-60
-60
-58
-57
-56
-56
-53
-52
-50
-47
-45
-45
-45
-44
-43
-42
-40
-39
-40
-41
-40
-39
-38
-40
-40
-42
-44
-45
-48
-49
-51
-53
-56
-57
-59
-61
-62
-63
-62
-63
-61
-59
-57
-55
-51
-44
-38
-33
-29
-23
-18
-15
-12
-7
-5
-3
-2
-1
-2
-3
-4
-3
-3
-4
-5
-6
-7
-8
-9
-9
-10
-11
-12
-12
-12
-12
-12
-12
-12
-11
-10
-9
-10
-9
-7
-5
-4
-2
1
4
5
8
13
14
16
17
17
15
11
8
4
2
0
-2
-8
-15
-18
-20
-20
-22
-23
-24
-24
-25
-27
-26
-28
-30
-31
-32
-31
-32
-31
-30
-28
-27
-27
-25
-24
-23
-22
-22
-21
-21
-19
-17
-16
-16
-9
8
40
82
153
244
335
391
408
389
330
218
112
30
-16
-39
-50
-56
-60
-65
-68
-68
-67
-66
-65
-63
-62
-60
-58
-57
-57
-56
-53
-52
-52
-52
-48
-48
-47
-45
-44
-43
-45
-43
-43
-43
-45
-46
-47
-49
-50
-51
-52
-55
-58
-59
-60
-61
-63
-64
-66
-66
-67
-67
-66
-65
-62
-59
-54
-49
-42
-37
-32
-27
-22
-19
-17
-14
-10
-9
-9
-8
-8
-7
-8
-7
-8
-9
-9
-11
-12
-12
-12
-12
-12
-13
-14
-14
-14
-15
-16
-15
-14
-14
-13
-12
-10
-9
-7
-4
-1
1
3
7
10
13
15
17
17
16
14
10
6
3
3
1
-2
-8
-12
-14
-14
-15
-16
-17
-19
-21
-22
-23
-25
-26
-26
-27
-28
-27
-27
-26
-26
-24
-23
-23
-23
-21
-18
-16
-15
-14
-12
-11
-11
-10
-4
10
40
92
157
247
335
404
430
417
363
251
132
52
5
-23
-40
-47
-49
-51
-54
-55
-53
-53
-53
-53
-51
-50
-50
-50
-49
-46
-44
-42
-41
-40
-38
-37
-35
-34
-34
-33
-32
-32
-32
-31
-32
-33
-35
-36
-37
-39
-41
-42
-44
-46
-49
-51
-52
-54
-56
-57
-58
-58
-58
-56
-54
-51
-48
-42
-36
-30
-25
-20
-14
-10
-6
-2
2
3
4
6
6
6
5
7
5
4
3
2
2
2
2
2
2
0
0
0
0
1
1
1
2
3
3
5
6
8
11
13
13
14
18
21
24
26
29
32
34
36
37
34
29
26
23
22
18
13
7
3
1
0
1
0
-1
-3
-4
-4
-6
-8
-10
-11
-12
-12
-12
-13
-12
-12
-11
-10
-9
-9
-8
-8
-8
-7
-7
-6
-4
-3
-2
3
21
53
98
154
248
347
417
442
423
363
248
138
56
1
-26
-40
-44
-47
-53
-55
-56
-55
-56
-54
-52
-51
-50
-49
-47
-47
-46
-45
-43
-41
-40
-39
-39
-39
-39
-37
-35
-34
-34
-33
-33
-35
-35
-36
-37
-38
-40
-43
-46
-48
-50
-51
-53
-54
-56
-57
-58
-59
-59
-59
-57
-54
-50
-44
-39
-32
-24
-17
-12
-5
0
3
5
7
10
13
14
13
13
12
10
9
10
10
10
11
11
9
7
7
8
8
8
8
9
9
8
8
9
10
10
11
12
12
12
14
15
18
23
28
33
38
43
47
50
50
49
45
42
38
38
37
32
27
22
19
15
13
14
13
12
10
8
6
4
2
1
0
-1
-1
0
0
0
2
4
4
4
6
8
8
8
8
8
9
10
12
15
23
45
85
139
219
319
410
455
446
401
286
166
84
31
1
-17
-23
-25
-30
-35
-36
-35
-33
-32
-32
-30
-28
-27
-25
-24
-22
-21
-19
-17
-16
-15
-13
-10
-8
-6
-3
-1
0
0
0
0
0
-2
-3
-4
-6
-8
-9
-9
-12
-14
-15
-17
-18
-20
-20
-20
-21
-21
-19
-16
-13
-7
0
7
11
18
24
30
33
38
41
43
43
44
44
43
44
43
43
43
43
42
39
39
39
41
41
41
41
42
41
40
42
42
42
42
44
46
46
49
51
54
55
59
63
66
69
72
78
79
82
82
82
79
75
71
67
67
62
56
50
45
43
42
42
41
41
41
41
39
38
37
35
33
30
29
28
28
29
29
29
29
30
31
33
33
35
35
35
37
39
39
38
45
65
99
143
208
305
399
455
467
450
380
272
160
82
41
18
9
5
0
-5
-7
-5
-5
-5
-5
-3
-1
0
2
3
3
3
3
4
6
7
8
9
8
9
11
13
14
15
17
16
15
15
15
14
13
12
10
8
5
3
1
0
-3
-5
-6
-8
-8
-8
-7
-6
-4
0
6
11
15
22
28
34
38
44
48
51
53
54
57
57
57
56
57
58
58
57
55
57
59
61
60
59
52
46
45
44
44
44
47
47
46
49
52
57
60
64
64
67
71
75
77
77
79
78
79
78
81
82
78
73
64
57
53
54
52
45
35
27
24
22
20
16
15
12
6
3
1
0
-4
-7
-11
-15
-16
-17
-19
-20
-18
-17
-16
-14
-12
-10
-6
-2
0
2
3
2
1
3
10
26
61
110
185
274
355
402
402
358
259
142
57
11
-15
-30
-35
-40
-45
-47
-48
-49
-50
-47
-45
-45
-47
-47
-44
-43
-41
-40
-41
-40
-37
-35
-37
-38
-37
-35
-39
-40
-36
-37
-40
-41
-39
-40
-43
-47
-48
-49
-51
-52
-55
-56
-59
-63
-66
-68
-70
-73
-74
-74
-72
-72
-69
-67
-65
-61
-56
-52
-47
-42
-38
-34
-31
-29
-30
-29
-29
-32
-34
-34
-37
-42
-43
-43
-47
-50
-54
-56
-56
-55
-57
-61
-61
-60
-61
-65
-64
-62
-64
-65
-63
-61
-62
-65
-70
-70
-66
-65
-63
-65
-67
-71
-70
-66
-63
-61
-61
-58
-57
-57
-60
-62
-66
-71
-71
-72
-80
-90
-94
-96
-99
-104
-111
-113
-115
-118
-122
-124
-124
-124
-124
-124
-124
-126
-127
-129
-130
-132
-134
-135
-137
-136
-137
-138
-139
-140
-139
-143
-141
-140
-139
-133
-111
-72
-18
62
161
235
271
253
189
96
-13
-94
-140
-170
-179
-186
-187
-190
-191
-189
-193
-191
-192
-190
-192
-189
-187
-189
-188
-189
-185
-186
-183
-184
-184
-182
-181
-180
-184
-183
-184
-181
-179
-179
-179
-181
-180
-183
-184
-186
-186
-186
-188
-190
-194
-191
-191
-193
-197
-199
-198
-199
-197
-199
-195
-193
-188
-185
-182
-177
-175
-169
-166
-162
-161
-161
-159
-159
-155
-158
-156
-156
-155
-158
-159
-155
-155
-152
-155
-155
-158
-158
-157
-157
-156
-157
-154
-155
-156
-158
-155
-152
-153
-151
-150
-147
-148
-146
-144
-143
-142
-142
-140
-140
-136
-133
-128
-125
-126
-125
-126
-126
-131
-132
-133
-134
-137
-143
-147
-153
-155
-157
-158
-161
-164
-163
-163
-159
-162
-162
-163
-160
-162
-162
-158
-157
-154
-157
-154
-154
-153
-149
-147
-144
-146
-142
-141
-138
-137
-136
-130
-121
-97
-61
-5
74
161
231
248
209
139
38
-43
-94
-125
-142
-151
-153
-153
-156
-158
-160
-156
-154
-153
-152
-151
-149
-150
-148
-146
-143
-142
-139
-136
-136
-134
-133
-130
-130
-129
-128
-130
-129
-129
-126
-125
-125
-126
-127
-128
-129
-128
-131
-130
-131
-130
-132
-134
-132
-133
-132
-133
-132
-133
-131
-127
-124
-118
-117
-111
-108
-103
-98
-94
-91
-90
-86
-85
-82
-82
-81
-80
-79
-80
-81
-80
-80
-78
-78
-77
-76
-77
-77
-77
-77
-79
-78
-77
-76
-74
-72
-71
-70
-67
-65
-63
-61
-58
-56
-53
-49
-48
-46
-42
-37
-34
-31
-29
-31
-36
-41
-42
-42
-43
-46
-50
-52
-56
-56
-54
-52
-51
-50
-50
-52
-54
-55
-54
-57
-58
-60
-59
-57
-58
-58
-58
-56
-53
-51
-49
-49
-47
-46
-45
-43
-40
-38
-37
-31
-17
10
46
101
180
280
363
399
394
351
259
156
61
0
-33
-47
-52
-55
-58
-60
-62
-62
-62
-61
-59
-58
-56
-56
-54
-52
-49
-48
-45
-44
-44
-44
-43
-41
-40
-39
-37
-36
-35
-34
-32
-33
-33
-32
-31
-31
-33
-34
-35
-36
-38
-39
-39
-40
-40
-40
-38
-38
-37
-37
-36
-35
-34
-30
-25
-22
-18
-12
-5
0
4
10
13
17
20
22
23
23
25
24
24
25
25
24
22
20
20
22
21
21
19
18
17
17
19
19
20
21
22
22
24
26
27
29
28
30
32
36
38
42
46
50
54
55
59
61
62
60
58
57
54
52
50
49
46
41
36
34
33
33
33
31
30
29
28
27
26
25
22
22
21
19
18
19
21
23
25
27
29
29
29
29
31
35
37
39
40
41
46
61
93
138
208
295
396
460
474
444
356
233
138
78
41
21
13
12
10
5
2
2
4
5
7
9
12
13
14
15
15
16
17
20
22
22
21
21
22
22
23
23
22
22
22
22
23
24
23
22
20
18
16
14
12
11
10
8
6
3
2
1
1
0
0
1
4
6
10
16
24
28
36
43
49
51
54
60
63
65
64
67
68
68
68
68
67
64
64
65
65
63
63
64
64
66
65
67
66
67
68
68
69
69
70
69
71
71
74
74
75
76
76
77
77
81
84
88
90
92
96
98
100
97
96
89
84
81
79
75
69
66
63
61
58
57
56
54
52
50
51
49
48
48
49
50
48
48
48
49
48
48
48
47
48
49
51
52
54
56
57
57
55
58
67
90
125
183
258
348
428
465
473
435
353
236
138
81
46
29
21
18
14
10
8
8
10
12
12
14
16
17
17
17
17
18
17
19
21
22
21
22
23
24
26
26
28
27
28
28
29
29
27
27
25
24
21
19
16
13
12
11
10
8
7
8
9
11
11
13
15
19
24
31
37
42
49
54
59
62
66
68
70
71
71
70
69
70
69
70
68
67
67
66
67
65
66
64
63
63
64
64
63
64
64
65
65
66
67
67
68
69
73
75
80
84
88
92
96
101
101
102
100
96
90
86
84
80
76
69
64
59
57
56
54
53
50
50
48
45
42
40
39
36
36
35
37
36
37
39
39
40
39
41
42
45
45
48
50
51
51
50
55
67
96
138
200
279
365
426
449
443
380
273
161
88
48
23
12
8
5
1
0
0
0
2
2
2
3
5
6
6
8
10
11
11
13
13
13
13
15
17
16
17
17
18
18
19
19
18
16
13
12
9
6
4
2
1
0
-1
-3
-5
-6
-5
-4
-6
-5
-2
0
2
6
13
21
25
30
35
39
41
43
47
49
50
50
51
52
50
49
47
47
45
44
43
43
43
41
41
39
38
36
36
36
36
38
38
38
37
38
37
37
41
43
45
45
48
51
53
56
57
61
61
64
65
66
63
59
56
53
52
49
45
40
35
32
31
31
29
28
26
26
26
23
22
20
19
16
15
14
12
11
10
10
10
12
13
14
15
15
17
17
18
18
20
19
22
35
61
98
153
235
328
390
410
399
347
260
160
80
31
2
-12
-17
-21
-25
-28
-29
-30
-29
-27
-26
-25
-26
-25
-24
-24
-23
-21
-19
-18
-16
-16
-15
-15
-15
-14
-13
-13
-13
-12
-13
-14
-16
-17
-18
-19
-21
-22
-24
-25
-27
-28
-30
-31
-34
-35
-36
-38
-37
-37
-36
-35
-32
-29
-25
-19
-12
-5
-1
2
7
11
13
16
19
20
19
20
20
19
17
16
16
14
12
10
10
9
7
6
5
5
4
3
2
2
1
2
3
2
2
3
5
5
6
9
9
10
10
12
14
16
18
21
23
23
25
25
23
20
17
14
12
11
9
5
0
-5
-6
-8
-9
-11
-14
-15
-17
-19
-20
-22
-23
-24
-23
-24
-24
-24
-22
-20
-19
-19
-18
-17
-16
-16
-14
-13
-12
-12
-11
-10
-8
5
29
61
105
172
258
322
353
347
308
228
133
49
-4
-33
-44
-48
-51
-56
-58
-59
-57
-57
-57
-55
-56
-55
-55
-53
-54
-54
-52
-52
-50
-50
-48
-49
-48
-48
-47
-46
-47
-47
-47
-45
-46
-45
-45
-45
-46
-47
-48
-50
-52
-54
-55
-57
-58
-58
-59
-59
-62
-61
-60
-59
-58
-56
-53
-49
-43
-39
-34
-29
-24
-21
-18
-16
-14
-12
-11
-9
-11
-11
-11
-11
-11
-12
-12
-13
-14
-14
-15
-16
-17
-18
-19
-19
-20
-21
-21
-22
-22
-21
-19
-19
-17
-16
-13
-12
-9
-6
-3
0
2
6
8
9
10
10
7
4
1
-1
-3
-5
-8
-13
-19
-23
-23
-23
-24
-25
-27
-28
-29
-32
-34
-37
-39
-41
-42
-43
-44
-44
-44
-43
-43
-43
-43
-43
-43
-42
-41
-40
-39
-39
-38
-39
-39
-31
-13
15
55
117
193
277
321
336
309
242
152
58
-7
-41
-59
-66
-70
-73
-77
-78
-78
-78
-77
-77
-74
-75
-73
-72
-72
-71
-71
-68
-68
-68
-70
-69
-68
-68
-67
-65
-63
-62
-60
-60
-60
-60
-60
-62
-64
-64
-66
-67
-68
-69
-71
-73
-74
-76
-77
-79
-82
-82
-82
-81
-80
-77
-73
-69
-65
-59
-55
-51
-47
-42
-38
-38
-36
-35
-33
-32
-33
-34
-34
-34
-34
-34
-36
-38
-38
-38
-39
-42
-43
-43
-43
-43
-43
-41
-41
-40
-38
-35
-35
-36
-36
-35
-35
-35
-33
-31
-29
-28
-27
-25
-23
-19
-16
-13
-10
-8
-6
-5
-6
-9
-13
-16
-19
-21
-23
-27
-32
-36
-37
-38
-40
-41
-42
-43
-45
-47
-47
-49
-51
-51
-51
-51
-51
-50
-50
-49
-48
-45
-44
-44
-44
-44
-42
-42
-40
-38
-36
-36
-35
-24
-2
33
88
163
253
322
358
361
322
252
148
54
-9
-47
-66
-72
-75
-78
-84
-86
-87
-85
-84
-83
-81
-82
-81
-81
-80
-80
-79
-77
-77
-76
-76
-74
-74
-73
-72
-71
-71
-71
-68
-68
-67
-68
-67
-68
-70
-70
-71
-71
-73
-76
-78
-80
-81
-83
-83
-85
-85
-87
-87
-88
-87
-84
-81
-76
-72
-64
-58
-52
-46
-41
-36
-33
-30
-26
-24
-22
-21
-20
-21
-23
-24
-24
-24
-25
-25
-24
-25
-26
-26
-25
-25
-26
-26
-25
-25
-26
-26
-24
-24
-23
-22
-21
-20
-19
-19
-17
-17
-18
-18
-17
-14
-13
-11
-8
-6
-4
-2
1
1
0
-2
-6
-10
-12
-13
-16
-21
-27
-32
-34
-36
-37
-40
-42
-44
-44
-43
-44
-44
-44
-42
-42
-41
-40
-40
-40
-40
-39
-40
-40
-40
-38
-37
-37
-35
-33
-31
-31
-29
-25
-15
8
48
108
181
260
325
354
348
300
204
108
26
-16
-42
-57
-63
-67
-71
-75
-76
-75
-75
-74
-72
-72
-71
-70
-66
-64
-62
-62
-61
-61
-60
-59
-60
-59
-57
-56
-56
-56
-56
-57
-56
-56
-56
-58
-59
-60
-61
-62
-64
-65
-67
-68
-71
-72
-73
-75
-76
-77
-77
-78
-77
-74
-72
-69
-65
-58
-53
-49
-44
-38
-34
-31
-28
-26
-25
-26
-25
-25
-26
-27
-27
-27
-28
-28
-28
-28
-29
-29
-29
-29
-29
-29
-29
-29
-29
-29
-27
-27
-27
-26
-24
-23
-21
-17
-16
-15
-13
-9
-6
-3
0
3
6
7
6
5
2
-2
-6
-7
-9
-13
-18
-23
-27
-29
-29
-30
-30
-32
-34
-34
-34
-35
-37
-37
-36
-36
-36
-36
-35
-35
-33
-32
-31
-31
-31
-29
-29
-28
-28
-26
-25
-25
-24
-18
-3
28
72
129
201
279
342
363
352
297
198
96
25
-20
-46
-61
-65
-68
-71
-74
-72
-70
-70
-71
-71
-68
-69
-69
-69
-69
-70
-71
-69
-70
-69
-69
-66
-65
-65
-64
-64
-63
-64
-64
-64
-63
-63
-63
-63
-64
-66
-68
-68
-69
-70
-72
-73
-74
-75
-75
-77
-77
-76
-73
-71
-69
-65
-60
-53
-48
-42
-36
-32
-28
-24
-21
-20
-18
-17
-15
-15
-14
-15
-14
-14
-14
-15
-15
-15
-16
-15
-16
-18
-18
-18
-17
-17
-16
-16
-15
-14
-13
-12
-11
-11
-12
-11
-10
-9
-8
-6
-4
-4
-1
1
4
9
14
15
15
15
15
14
11
7
5
4
2
-2
-6
-9
-11
-12
-12
-15
-17
-18
-19
-21
-24
-24
-26
-27
-29
-30
-29
-28
-28
-26
-26
-26
-26
-24
-23
-23
-24
-23
-23
-21
-21
-19
-15
-5
19
59
121
193
288
352
378
359
288
186
90
21
-18
-43
-52
-56
-58
-63
-66
-65
-64
-61
-60
-59
-59
-57
-56
-55
-53
-52
-51
-51
-50
-51
-49
-46
-43
-41
-42
-41
-41
-41
-40
-40
-40
-42
-44
-46
-46
-47
-48
-48
-49
-52
-54
-55
-56
-57
-57
-57
-58
-59
-57
-55
-52
-49
-45
-40
-34
-30
-25
-19
-14
-11
-8
-3
-1
1
3
4
3
3
2
1
0
0
0
-1
-2
-3
-3
-3
-4
-3
-2
-2
-2
-2
-1
-1
0
0
0
0
-1
0
2
2
2
4
6
7
7
8
11
14
16
19
21
23
25
25
24
20
16
14
13
13
9
4
-1
-5
-7
-9
-11
-15
-18
-20
-21
-22
-23
-23
-23
-22
-21
-20
-20
-20
-19
-18
-17
-17
-15
-14
-14
-15
-15
-13
-14
-14
-12
-12
-9
0
22
57
99
162
244
331
386
392
368
288
181
90
19
-19
-38
-45
-47
-52
-55
-56
-55
-53
-53
-53
-52
-50
-51
-50
-49
-48
-47
-47
-46
-46
-45
-45
-44
-43
-42
-42
-42
-42
-42
-42
-42
-40
-40
-41
-42
-44
-45
-47
-47
-48
-50
-51
-54
-55
-57
-57
-59
-60
-60
-59
-57
-57
-55
-52
-46
-42
-36
-29
-23
-19
-14
-10
-7
-5
-2
-1
-1
-1
-2
-2
-2
-4
-5
-4
-5
-7
-8
-8
-10
-10
-9
-8
-8
-9
-10
-10
-10
-10
-9
-8
-6
-5
-4
-2
-2
0
3
7
8
11
13
17
19
21
22
22
21
18
15
12
10
7
4
0
-6
-8
-10
-11
-15
-17
-19
-22
-24
-26
-26
-26
-26
-26
-25
-24
-24
-23
-23
-24
-25
-24
-22
-23
-24
-24
-23
-21
-19
-17
-17
-16
-9
9
43
94
171
263
346
393
392
356
268
156
68
5
-27
-44
-51
-54
-57
-61
-63
-64
-63
-61
-58
-57
-56
-53
-50
-48
-48
-47
-47
-47
-45
-43
-42
-40
-38
-36
-36
-36
-35
-35
-35
-36
-37
-38
-39
-40
-41
-42
-45
-48
-50
-53
-54
-56
-57
-59
-61
-63
-64
-63
-62
-58
-53
-47
-41
-34
-27
-20
-14
-10
-6
-2
-1
0
2
2
2
2
2
1
0
0
0
0
-1
-1
-1
-2
-3
-3
-2
-3
-3
-3
-2
-2
-1
-1
0
0
0
1
1
3
4
5
5
5
6
8
8
9
12
17
18
22
26
32
35
36
35
32
29
26
25
23
19
13
8
5
3
3
3
0
-1
-2
-3
-5
-6
-6
-6
-6
-5
-5
-4
-5
-5
-4
-2
-1
0
1
2
3
5
6
7
5
5
6
14
35
70
121
183
270
355
413
431
413
345
235
125
49
1
-25
-36
-40
-45
-49
-50
-50
-49
-49
-49
-49
-47
-47
-45
-45
-44
-43
-42
-40
-39
-37
-37
-36
-34
-32
-30
-29
-29
-30
-30
-30
-32
-33
-35
-37
-39
-41
-44
-44
-46
-47
-47
-47
-48
-50
-52
-53
-53
-52
-51
-47
-45
-40
-35
-28
-22
-15
-8
-2
1
4
6
8
9
10
11
11
11
10
9
7
7
7
5
4
3
2
0
0
0
0
0
0
0
1
2
3
5
7
7
9
12
15
17
21
25
27
29
31
34
32
29
24
19
15
14
12
7
1
-4
-7
-8
-10
-11
-13
-14
-15
-15
-15
-19
-23
-25
-26
-28
-29
-29
-29
-28
-28
-27
-26
-26
-26
-25
-25
-25
-24
-21
-20
-19
-19
-15
-2
23
70
136
217
312
376
408
392
324
210
102
24
-17
-42
-54
-58
-60
-64
-67
-69
-68
-66
-65
-64
-64
-61
-61
-60
-59
-57
-55
-56
-56
-56
-54
-53
-52
-52
-52
-52
-53
-52
-53
-52
-52
-52
-54
-57
-58
-60
-60
-62
-64
-65
-67
-68
-68
-69
-69
-70
-72
-72
-71
-67
-63
-59
-53
-46
-37
-31
-26
-21
-16
-13
-11
-8
-5
-4
-3
-1
0
-1
-3
-4
-3
-4
-6
-7
-7
-8
-9
-9
-10
-11
-10
-9
-10
-10
-10
-10
-10
-10
-9
-8
-7
-7
-5
-4
-3
-2
-1
-1
-3
-4
-3
-1
0
1
5
8
11
14
17
17
15
9
6
5
5
2
-4
-11
-17
-19
-20
-22
-23
-23
-21
-22
-24
-26
-28
-29
-31
-32
-32
-32
-31
-30
-30
-31
-31
-29
-26
-26
-26
-24
-21
-20
-18
-15
-15
-14
-7
12
42
88
152
249
345
404
429
411
362
259
145
54
-9
-40
-53
-59
-63
-68
-70
-72
-71
-70
-69
-66
-66
-65
-66
-64
-64
-62
-61
-61
-59
-58
-56
-54
-54
-53
-51
-50
-51
-51
-52
-52
-53
-53
-53
-52
-53
-54
-53
-55
-57
-58
-59
-61
-63
-63
-65
-65
-66
-66
-66
-65
-62
-59
-54
-49
-44
-38
-31
-25
-20
-15
-12
-9
-7
-5
-6
-6
-5
-5
-6
-7
-7
-8
-8
-9
-8
-9
-9
-10
-9
-9
-10
-10
-8
-8
-8
-7
-5
-5
-5
-5
-3
-2
-2
-1
0
1
2
4
6
8
11
15
18
23
26
28
28
27
26
21
17
13
10
7
2
-4
-12
-17
-20
-22
-23
-23
-23
-23
-22
-21
-21
-21
-20
-19
-18
-17
-17
-17
-17
-16
-15
-13
-12
-12
-11
-10
-10
-10
-9
-6
-5
-5
-3
4
24
59
115
191
282
366
410
420
391
305
194
90
27
-10
-32
-42
-46
-49
-54
-57
-56
-55
-53
-52
-51
-50
-50
-49
-50
-50
-49
-49
-48
-46
-45
-43
-41
-40
-39
-38
-36
-37
-37
-38
-38
-39
-41
-41
-41
-43
-45
-47
-48
-50
-51
-54
-55
-58
-60
-61
-61
-61
-62
-61
-59
-57
-54
-50
-43
-39
-33
-27
-20
-14
-11
-9
-5
-3
-2
-1
-1
-1
-3
-4
-5
-6
-7
-7
-8
-9
-10
-10
-9
-10
-11
-11
-12
-12
-11
-10
-9
-8
-7
-6
-6
-5
-3
0
3
6
10
13
15
15
19
22
21
19
14
10
7
6
4
-1
-6
-10
-12
-14
-17
-19
-22
-23
-25
-27
-27
-28
-29
-30
-29
-29
-28
-26
-26
-25
-25
-24
-24
-23
-23
-22
-20
-19
-18
-17
-15
-14
-13
-7
9
43
94
160
241
332
396
418
407
350
237
128
42
-3
-32
-48
-55
-59
-65
-68
-69
-67
-66
-66
-65
-64
-63
-63
-62
-61
-60
-60
-60
-59
-58
-56
-54
-52
-52
-51
-52
-51
-50
-51
-51
-53
-54
-55
-55
-56
-58
-59
-62
-62
-65
-66
-68
-70
-71
-73
-73
-74
-73
-73
-72
-69
-66
-61
-56
-49
-42
-33
-26
-20
-16
-11
-8
-6
-4
-3
-1
-1
-3
-3
-3
-3
-2
-4
-5
-8
-10
-9
-10
-12
-13
-13
-13
-14
-11
-10
-10
-12
-11
-9
-9
-9
-8
-6
-6
-5
-4
-2
-1
-1
0
2
4
8
12
15
18
20
19
16
13
10
7
5
2
-2
-9
-15
-17
-17
-19
-20
-21
-21
-24
-27
-29
-30
-31
-32
-32
-31
-31
-32
-31
-30
-30
-30
-28
-27
-27
-27
-26
-25
-24
-23
-21
-21
-20
-13
8
44
100
171
276
368
418
422
377
282
169
70
2
-40
-58
-65
-68
-72
-77
-79
-79
-77
-77
-74
-72
-70
-69
-67
-64
-63
-60
-60
-57
-57
-55
-52
-51
-51
-51
-49
-48
-47
-47
-47
-47
-48
-48
-48
-49
-52
-53
-54
-56
-57
-60
-62
-65
-66
-67
-68
-69
-69
-68
-68
-66
-64
-58
-53
-48
-42
-34
-27
-21
-17
-12
-8
-6
-4
-3
-2
-1
0
-1
-2
-2
-4
-4
-5
-5
-5
-6
-7
-8
-8
-9
-9
-9
-8
-7
-7
-5
-4
-3
-3
-2
-1
0
0
1
3
3
4
8
12
16
19
24
29
31
33
34
31
27
22
19
17
14
9
2
-3
-7
-10
-13
-16
-19
-21
-21
-24
-25
-26
-25
-24
-24
-22
-22
-21
-21
-20
-20
-19
