-315
-306
-317
-346
-387
-435
-477
-504
-518
-527
-532
-534
-533
-531
-529
-530
-530
-531
-528
-528
-527
-527
-528
-527
-525
-524
-522
-520
-520
-520
-520
-520
-520
-519
-519
-519
-518
-517
-516
-516
-513
-510
-508
-506
-505
-503
-501
-499
-496
-495
-491
-490
-488
-487
-484
-480
-478
-474
-472
-471
-469
-467
-466
-463
-460
-462
-463
-466
-467
-471
-473
-478
-483
-489
-494
-496
-500
-504
-508
-511
-513
-514
-514
-516
-516
-520
-521
-521
-521
-520
-520
-520
-520
-520
-520
-520
-519
-520
-520
-520
-520
-520
-520
-519
-518
-519
-521
-520
-520
-520
-521
-523
-521
-521
-521
-520
-522
-520
-521
-522
-522
-523
-522
-523
-523
-522
-522
-523
-524
-524
-523
-523
-523
-522
-524
-523
-523
-520
-518
-517
-518
-520
-519
-518
-518
-515
-514
-512
-512
-505
-502
-499
-498
-499
-498
-497
-499
-504
-509
-514
-518
-520
-522
-523
-524
-524
-523
-523
-524
-527
-525
-525
-525
-525
-527
-527
-527
-527
-525
-528
-534
-535
-530
-513
-482
-443
-398
-354
-317
-299
-304
-327
-367
-415
-465
-507
-524
-530
-534
-534
-537
-533
-531
-528
-527
-527
-524
-524
-523
-520
-517
-516
-516
-516
-516
-514
-513
-512
-510
-511
-510
-508
-507
-505
-503
-502
-502
-499
-498
-497
-495
-494
-491
-488
-487
-485
-481
-481
-475
-472
-468
-466
-460
-458
-455
-452
-449
-446
-445
-446
-445
-444
-444
-445
-446
-449
-453
-458
-463
-467
-471
-474
-478
-481
-485
-487
-489
-491
-495
-499
-502
-502
-503
-503
-505
-505
-506
-505
-506
-508
-507
-506
-506
-505
-506
-506
-506
-506
-506
-506
-506
-505
-505
-503
-504
-503
-504
-507
-508
-506
-506
-506
-506
-508
-509
-509
-510
-511
-511
-509
-510
-510
-510
-512
-513
-513
-513
-513
-513
-513
-513
-512
-514
-513
-513
-514
-516
-514
-513
-514
-515
-516
-513
-513
-511
-509
-508
-508
-506
-503
-500
-495
-493
-491
-491
-492
-492
-494
-495
-496
-502
-505
-510
-514
-516
-517
-519
-520
-519
-519
-519
-520
-522
-523
-524
-524
-523
-523
-526
-523
-524
-528
-533
-534
-522
-500
-467
-422
-371
-323
-288
-276
-290
-324
-372
-425
-469
-494
-504
-513
-519
-523
-523
-522
-524
-523
-525
-525
-525
-524
-523
-521
-521
-520
-520
-520
-520
-519
-518
-517
-516
-516
-515
-514
-512
-513
-509
-508
-506
-505
-503
-502
-500
-499
-497
-496
-493
-491
-488
-485
-481
-479
-476
-474
-471
-466
-463
-460
-460
-457
-457
-454
-453
-453
-453
-453
-453
-457
-460
-463
-468
-474
-478
-481
-486
-490
-492
-496
-497
-500
-503
-504
-508
-506
-506
-508
-509
-508
-510
-509
-510
-511
-510
-509
-509
-511
-510
-508
-509
-508
-507
-508
-508
-508
-507
-509
-509
-509
-509
-508
-506
-505
-505
-505
-504
-505
-506
-506
-508
-511
-509
-512
-516
-518
-522
-520
-519
-516
-513
-509
-503
-499
-489
-478
-453
-415
-367
-316
-265
-218
-183
-159
-141
-136
-139
-153
-168
-180
-192
-200
-208
-222
-232
-251
-275
-300
-330
-359
-394
-432
-464
-491
-510
-524
-531
-537
-542
-542
-546
-549
-552
-555
-559
-564
-569
-573
-578
-583
-587
-594
-597
-602
-606
-612
-617
-622
-627
-631
-637
-642
-648
-653
-658
-664
-668
-671
-674
-676
-672
-676
-676
-675
-671
-662
-657
-651
-641
-629
-619
-608
-595
-583
-569
-559
-549
-539
-532
-524
-520
-516
-514
-515
-516
-516
-517
-518
-520
-520
-523
-523
-525
-527
-527
-528
-528
-528
-529
-530
-530
-529
-529
-528
-528
-528
-528
-527
-528
-528
-529
-527
-528
-527
-525
-525
-524
-524
-523
-523
-523
-523
-522
-520
-520
-522
-522
-521
-522
-522
-523
-522
-522
-520
-520
-521
-521
-520
-521
-523
-522
-522
-519
-518
-520
-519
-520
-522
-521
-520
-523
-522
-523
-520
-520
-521
-521
-520
-521
-523
-522
-522
-523
-521
-522
-520
-520
-520
-521
-520
-522
-522
-522
-520
-520
-519
-519
-519
-520
-520
-521
-520
-520
-520
-519
-520
-520
-521
-520
-520
-520
-519
-519
-517
-519
-518
-516
-517
-518
-518
-519
-520
-518
-517
-517
-517
-519
-517
-518
-517
-517
-517
-518
-517
-516
-517
-516
-516
-516
-516
-516
-516
-516
-516
-516
-516
-515
-514
-515
-514
-513
-512
-512
-509
-509
-508
-506
-505
-500
-497
-493
-491
-491
-493
-493
-493
-495
-497
-503
-505
-507
-511
-513
-514
-514
-514
-515
-514
-516
-518
-519
-517
-517
-515
-515
-516
-519
-525
-527
-517
-498
-464
-422
-374
-330
-304
-301
-321
-355
-401
-450
-487
-508
-516
-521
-523
-527
-527
-527
-525
-525
-523
-522
-522
-522
-522
-521
-520
-523
-523
-522
-522
-523
-522
-522
-520
-519
-517
-518
-517
-517
-515
-514
-514
-513
-510
-509
-509
-508
-509
-506
-505
-503
-502
-502
-499
-494
-491
-488
-485
-479
-478
-480
-474
-472
-471
-469
-469
-465
-464
-463
-462
-460
-463
-464
-464
-468
-471
-474
-478
-481
-484
-488
-490
-493
-497
-501
-502
-503
-504
-505
-506
-506
-509
-509
-509
-509
-508
-509
-507
-507
-509
-509
-509
-510
-511
-510
-509
-509
-510
-509
-509
-509
-509
-509
-508
-507
-509
-509
-509
-508
-508
-509
-508
-509
-510
-512
-511
-512
-512
-513
-512
-509
-511
-510
-512
-513
-512
-510
-508
-508
-506
-505
-504
-505
-506
-503
-499
-495
-489
-488
-488
-485
-484
-485
-488
-492
-494
-499
-502
-506
-509
-512
-512
-513
-512
-513
-513
-513
-514
-514
-514
-514
-514
-513
-513
-512
-513
-516
-520
-523
-514
-495
-463
-423
-373
-326
-293
-286
-299
-329
-369
-416
-460
-498
-513
-517
-520
-522
-519
-518
-515
-514
-513
-510
-509
-509
-507
-506
-506
-503
-503
-502
-502
-502
-500
-499
-498
-498
-496
-494
-493
-492
-489
-490
-491
-485
-483
-479
-478
-478
-477
-477
-473
-471
-469
-466
-463
-460
-453
-447
-447
-446
-443
-439
-434
-435
-434
-436
-436
-434
-435
-436
-439
-442
-444
-450
-453
-458
-462
-467
-473
-478
-479
-483
-486
-491
-492
-495
-495
-497
-499
-499
-499
-500
-499
-502
-502
-502
-502
-500
-502
-502
-499
-500
-499
-499
-499
-498
-496
-498
-497
-499
-497
-497
-497
-497
-496
-496
-497
-497
-498
-496
-497
-497
-498
-499
-500
-501
-504
-502
-502
-501
-502
-503
-502
-502
-502
-504
-503
-504
-502
-502
-501
-501
-499
-499
-497
-497
-499
-494
-489
-485
-483
-483
-483
-484
-485
-484
-485
-488
-492
-497
-501
-503
-507
-509
-511
-510
-510
-513
-513
-513
-514
-513
-512
-513
-514
-514
-513
-514
-514
-518
-522
-523
-514
-493
-462
-419
-367
-317
-278
-266
-278
-313
-360
-409
-452
-476
-489
-499
-506
-509
-511
-512
-513
-515
-516
-517
-516
-516
-515
-515
-514
-513
-513
-513
-512
-509
-508
-508
-508
-508
-506
-506
-505
-504
-502
-499
-497
-497
-495
-495
-496
-492
-491
-488
-489
-489
-486
-484
-481
-478
-475
-471
-468
-466
-463
-460
-459
-457
-455
-454
-453
-453
-453
-453
-455
-457
-458
-460
-464
-468
-471
-478
-483
-488
-491
-494
-496
-499
-502
-503
-505
-507
-508
-508
-509
-509
-509
-513
-509
-509
-508
-509
-509
-509
-509
-509
-509
-510
-511
-510
-508
-509
-508
-509
-508
-507
-506
-506
-508
-509
-508
-506
-506
-509
-508
-509
-509
-509
-510
-509
-510
-509
-508
-509
-509
-512
-513
-513
-512
-513
-511
-512
-512
-513
-513
-512
-512
-512
-511
-512
-510
-510
-508
-506
-507
-506
-503
-502
-502
-502
-500
-495
-490
-488
-488
-488
-488
-489
-491
-494
-498
-502
-505
-508
-509
-513
-513
-515
-515
-516
-517
-520
-519
-520
-519
-519
-520
-519
-518
-518
-518
-521
-525
-529
-527
-514
-490
-456
-411
-359
-313
-282
-281
-304
-344
-392
-438
-467
-485
-497
-506
-510
-511
-516
-515
-518
-519
-520
-519
-520
-519
-517
-517
-517
-516
-518
-517
-516
-516
-513
-512
-512
-509
-512
-509
-509
-506
-504
-505
-503
-503
-503
-502
-500
-500
-499
-497
-495
-492
-492
-489
-487
-485
-481
-479
-478
-475
-473
-471
-469
-467
-466
-464
-464
-463
-462
-464
-464
-465
-465
-471
-471
-474
-478
-481
-487
-488
-492
-495
-498
-502
-503
-505
-507
-508
-508
-509
-511
-512
-513
-513
-514
-514
-513
-514
-513
-514
-515
-515
-514
-514
-516
-515
-515
-514
-513
-512
-510
-511
-513
-512
-513
-514
-514
-514
-514
-514
-516
-514
-515
-514
-515
-515
-514
-514
-513
-514
-515
-515
-516
-515
-515
-514
-514
-513
-513
-514
-513
-516
-516
-516
-515
-514
-513
-513
-513
-513
-513
-513
-510
-511
-509
-509
-510
-508
-506
-502
-497
-495
-496
-492
-492
-492
-494
-496
-499
-502
-506
-511
-513
-515
-517
-519
-519
-519
-521
-522
-523
-523
-520
-520
-521
-521
-520
-520
-520
-522
-527
-530
-530
-521
-501
-471
-434
-387
-342
-309
-295
-303
-328
-363
-408
-456
-491
-509
-518
-525
-527
-528
-526
-523
-524
-525
-525
-523
-522
-522
-522
-520
-520
-520
-519
-520
-518
-516
-513
-514
-515
-513
-512
-510
-509
-509
-509
-509
-508
-506
-503
-502
-502
-499
-497
-495
-495
-492
-488
-486
-484
-483
-478
-475
-472
-471
-467
-463
-461
-460
-460
-459
-459
-457
-457
-457
-458
-461
-463
-467
-469
-472
-477
-483
-488
-492
-494
-496
-500
-502
-504
-505
-509
-511
-512
-511
-512
-513
-513
-514
-515
-514
-514
-516
-515
-516
-516
-516
-518
-514
-513
-514
-514
-514
-513
-513
-512
-513
-513
-513
-513
-511
-513
-514
-515
-514
-514
-514
-514
-516
-516
-515
-514
-514
-515
-514
-516
-516
-516
-517
-516
-516
-515
-514
-516
-517
-516
-516
-516
-516
-518
-515
-516
-516
-516
-516
-514
-514
-513
-512
-510
-509
-509
-508
-506
-502
-498
-494
-492
-489
-488
-491
-493
-495
-499
-500
-504
-509
-510
-513
-515
-516
-516
-517
-518
-519
-519
-518
-519
-520
-519
-519
-521
-519
-518
-519
-522
-527
-529
-527
-514
-489
-451
-407
-359
-315
-292
-290
-311
-348
-397
-449
-491
-512
-519
-524
-527
-527
-527
-524
-523
-520
-518
-518
-516
-516
-516
-515
-515
-514
-513
-512
-510
-508
-511
-508
-506
-503
-502
-502
-499
-498
-496
-495
-495
-495
-493
-491
-490
-488
-485
-484
-481
-478
-475
-473
-471
-466
-464
-460
-458
-453
-450
-449
-447
-446
-443
-443
-442
-443
-443
-444
-446
-447
-450
-454
-456
-462
-467
-471
-475
-480
-481
-485
-488
-489
-490
-492
-495
-495
-496
-497
-499
-499
-500
-501
-500
-499
-499
-499
-501
-501
-500
-502
-502
-502
-499
-499
-501
-497
-497
-496
-497
-498
-499
-500
-500
-500
-500
-500
-500
-500
-500
-503
-500
-500
-499
-499
-502
-502
-502
-503
-502
-502
-502
-502
-504
-505
-507
-506
-506
-505
-504
-504
-505
-505
-506
-505
-504
-505
-506
-506
-507
-505
-503
-502
-504
-505
-506
-508
-507
-506
-506
-507
-506
-509
-507
-508
-506
-505
-505
-502
-500
-500
-499
-500
-498
-495
-492
-488
-488
-487
-488
-489
-491
-491
-491
-492
-494
-497
-500
-506
-507
-508
-509
-509
-510
-511
-509
-511
-510
-511
-510
-510
-509
-509
-509
-510
-513
-517
-521
-517
-503
-473
-435
-384
-331
-287
-265
-271
-301
-347
-395
-435
-463
-478
-489
-498
-504
-505
-506
-508
-509
-511
-514
-514
-513
-510
-510
-509
-509
-509
-509
-509
-508
-508
-506
-505
-505
-503
-502
-502
-502
-502
-503
-499
-499
-495
-495
-495
-491
-492
-492
-490
-489
-488
-486
-483
-478
-475
-472
-469
-467
-464
-463
-460
-459
-457
-453
-453
-452
-450
-450
-450
-453
-453
-457
-460
-464
-467
-471
-473
-478
-481
-487
-491
-496
-495
-499
-502
-502
-505
-506
-508
-508
-506
-506
-506
-506
-506
-506
-508
-509
-509
-507
-508
-506
-506
-506
-507
-507
-505
-505
-504
-503
-503
-502
-502
-506
-505
-506
-506
-508
-508
-512
-514
-517
-516
-513
-509
-506
-498
-492
-485
-467
-438
-394
-342
-291
-243
-200
-163
-138
-122
-120
-127
-141
-158
-173
-187
-197
-208
-220
-239
-262
-285
-308
-337
-367
-401
-436
-467
-495
-514
-528
-535
-543
-548
-553
-558
-560
-566
-571
-576
-580
-586
-587
-590
-594
-597
-602
-604
-607
-608
-607
-608
-612
-614
-615
-615
-618
-622
-626
-631
-633
-637
-638
-640
-640
-639
-637
-636
-631
-626
-618
-612
-603
-590
-584
-574
-564
-552
-539
-530
-520
-513
-506
-502
-494
-492
-488
-489
-495
-494
-495
-496
-498
-500
-502
-506
-507
-509
-513
-514
-515
-514
-516
-515
-516
-516
-518
-518
-517
-516
-516
-517
-519
-520
-522
-523
-520
-519
-518
-517
-518
-519
-519
-520
-520
-520
-520
-520
-520
-519
-521
-519
-520
-520
-519
-520
-518
-518
-519
-521
-522
-520
-519
-519
-520
-520
-520
-520
-520
-517
-517
-518
-519
-520
-520
-520
-521
-519
-519
-518
-518
-519
-518
-519
-520
-520
-520
-520
-521
-520
-520
-520
-523
-520
-520
-521
-522
-524
-521
-520
-522
-522
-523
-522
-522
-520
-519
-517
-518
-519
-520
-520
-520
-520
-519
-520
-521
-523
-523
-523
-522
-522
-520
-520
-519
-520
-521
-522
-522
-521
-522
-523
-522
-522
-522
-520
-521
-522
-522
-522
-520
-520
-521
-521
-522
-522
-522
-520
-520
-522
-523
-524
-523
-521
-521
-520
-520
-520
-521
-520
-521
-520
-523
-521
-521
-520
-520
-519
-519
-517
-519
-519
-520
-520
-519
-520
-520
-520
-521
-520
-519
-521
-518
-516
-515
-514
-516
-514
-514
-513
-510
-508
-505
-499
-496
-494
-495
-495
-495
-496
-500
-504
-507
-511
-513
-516
-516
-518
-519
-519
-519
-520
-520
-520
-520
-520
-520
-520
-520
-521
-527
-530
-530
-521
-499
-468
-428
-381
-338
-315
-310
-328
-360
-402
-448
-490
-517
-528
-531
-534
-534
-536
-534
-530
-531
-530
-530
-528
-527
-527
-527
-527
-527
-523
-523
-523
-522
-523
-524
-523
-520
-517
-516
-516
-516
-516
-514
-513
-513
-510
-513
-509
-508
-506
-504
-504
-502
-499
-494
-492
-492
-489
-488
-484
-481
-478
-474
-471
-468
-466
-466
-466
-465
-463
-460
-459
-459
-460
-460
-462
-466
-468
-471
-472
-477
-481
-488
-492
-494
-495
-496
-499
-502
-502
-503
-504
-504
-507
-506
-506
-506
-508
-509
-510
-509
-510
-510
-509
-509
-509
-509
-509
-509
-508
-507
-505
-506
-505
-507
-506
-506
-506
-506
-508
-509
-509
-509
-508
-509
-508
-509
-509
-509
-511
-512
-509
-508
-508
-510
-513
-510
-509
-509
-509
-510
-511
-512
-512
-510
-511
-509
-509
-509
-508
-506
-505
-503
-502
-500
-495
-492
-488
-486
-485
-485
-485
-488
-488
-490
-494
-496
-500
-504
-508
-509
-509
-509
-509
-507
-509
-509
-513
-512
-510
-511
-510
-512
-510
-512
-511
-513
-515
-520
-520
-510
-487
-449
-402
-351
-306
-281
-283
-307
-348
-394
-441
-481
-504
-512
-514
-516
-517
-516
-513
-513
-509
-509
-508
-506
-506
-506
-504
-502
-504
-502
-499
-499
-497
-499
-497
-498
-496
-495
-494
-492
-491
-489
-488
-488
-485
-484
-482
-481
-478
-477
-475
-473
-471
-466
-463
-460
-457
-453
-452
-447
-446
-443
-441
-440
-437
-436
-437
-438
-438
-439
-437
-443
-444
-448
-450
-454
-460
-467
-471
-477
-482
-485
-488
-490
-492
-494
-494
-496
-497
-499
-499
-502
-502
-502
-502
-501
-502
-502
-502
-502
-502
-500
-500
-499
-500
-499
-499
-499
-499
-499
-499
-500
-499
-500
-499
-497
-497
-500
-499
-501
-502
-501
-502
-501
-502
-500
-500
-500
-502
-502
-500
-499
-499
-500
-502
-502
-502
-502
-502
-500
-500
-502
-502
-501
-502
-502
-502
-501
-502
-502
-502
-501
-500
-500
-497
-495
-494
-492
-493
-492
-487
-484
-480
-479
-483
-480
-480
-481
-481
-485
-489
-493
-496
-498
-498
-500
-502
-503
-504
-505
-506
-506
-506
-506
-506
-506
-506
-506
-506
-504
-505
-510
-515
-514
-503
-481
-447
-402
-351
-303
-272
-266
-284
-320
-369
-418
-450
-472
-484
-493
-499
-500
-502
-502
-504
-505
-505
-506
-505
-506
-504
-505
-504
-504
-505
-506
-504
-504
-502
-500
-499
-498
-498
-498
-498
-495
-495
-494
-491
-490
-490
-489
-488
-485
-484
-484
-483
-481
-481
-477
-474
-471
-468
-467
-460
-458
-456
-453
-451
-451
-450
-450
-447
-446
-446
-446
-447
-449
-452
-457
-461
-465
-467
-471
-477
-483
-487
-488
-488
-489
-490
-493
-495
-497
-499
-500
-502
-501
-502
-503
-505
-502
-502
-502
-502
-506
-503
-502
-502
-500
-502
-500
-500
-500
-499
-499
-499
-498
-499
-500
-498
-497
-497
-498
-499
-499
-499
-499
-498
-499
-499
-499
-502
-499
-500
-500
-501
-500
-501
-501
-502
-502
-502
-503
-503
-502
-502
-503
-500
-500
-502
-502
-505
-503
-504
-504
-503
-504
-503
-502
-500
-498
-496
-496
-495
-495
-495
-493
-491
-488
-484
-484
-481
-481
-483
-484
-485
-488
-494
-497
-499
-502
-502
-506
-506
-506
-508
-508
-508
-512
-509
-510
-511
-512
-514
-512
-511
-509
-512
-518
-522
-517
-499
-470
-427
-376
-324
-285
-271
-284
-317
-362
-408
-445
-469
-483
-492
-500
-506
-508
-509
-510
-511
-512
-513
-513
-512
-513
-511
-513
-512
-513
-511
-510
-508
-508
-509
-506
-506
-506
-504
-504
-503
-502
-502
-499
-496
-494
-494
-493
-492
-492
-491
-491
-489
-487
-485
-482
-481
-478
-475
-472
-471
-470
-467
-466
-464
-460
-458
-459
-458
-459
-459
-458
-458
-460
-463
-465
-472
-473
-477
-481
-486
-492
-492
-495
-496
-500
-502
-502
-502
-504
-506
-509
-508
-509
-509
-509
-509
-510
-510
-512
-513
-512
-510
-510
-509
-509
-510
-509
-509
-509
-511
-510
-508
-506
-505
-506
-506
-508
-511
-509
-509
-509
-509
-513
-508
-508
-509
-509
-509
-510
-508
-508
-508
-509
-509
-509
-509
-510
-509
-509
-509
-509
-511
-510
-509
-509
-509
-509
-509
-509
-511
-509
-509
-508
-508
-509
-509
-510
-509
-509
-508
-508
-506
-506
-506
-509
-505
-505
-502
-498
-492
-490
-488
-488
-486
-487
-489
-492
-495
-500
-502
-506
-506
-506
-510
-510
-511
-512
-509
-510
-511
-512
-513
-513
-513
-513
-513
-512
-513
-516
-521
-523
-516
-499
-473
-438
-391
-341
-309
-302
-320
-355
-400
-450
-485
-504
-512
-517
-520
-519
-516
-515
-514
-513
-514
-513
-511
-511
-509
-509
-508
-506
-506
-505
-503
-504
-504
-502
-502
-500
-500
-499
-497
-497
-495
-495
-492
-490
-489
-492
-486
-485
-481
-478
-481
-478
-477
-474
-470
-467
-463
-460
-457
-453
-452
-450
-445
-443
-441
-439
-438
-436
-436
-436
-439
-443
-447
-451
-453
-458
-460
-465
-470
-474
-478
-481
-483
-486
-489
-492
-492
-494
-495
-496
-495
-494
-499
-495
-497
-499
-499
-499
-497
-496
-497
-497
-497
-496
-496
-495
-497
-497
-499
-498
-499
-499
-498
-498
-498
-499
-500
-500
-500
-501
-502
-502
-500
-500
-500
-501
-500
-500
-502
-502
-501
-501
-502
-503
-506
-506
-505
-506
-505
-506
-505
-504
-504
-506
-505
-503
-502
-502
-502
-502
-502
-502
-502
-502
-500
-498
-495
-495
-491
-485
-485
-482
-481
-482
-481
-485
-486
-492
-495
-498
-501
-503
-507
-509
-509
-510
-513
-511
-512
-513
-512
-514
-511
-513
-513
-513
-512
-510
-512
-514
-520
-519
-506
-481
-441
-394
-344
-306
-287
-292
-315
-350
-391
-439
-478
-502
-512
-519
-523
-522
-520
-518
-514
-513
-513
-511
-511
-511
-508
-506
-507
-506
-505
-507
-502
-502
-500
-500
-502
-499
-497
-496
-495
-495
-492
-491
-489
-488
-487
-487
-485
-483
-478
-475
-473
-472
-471
-467
-462
-459
-457
-453
-451
-450
-446
-443
-440
-439
-442
-439
-438
-439
-443
-445
-446
-446
-452
-454
-458
-463
-471
-472
-477
-481
-483
-487
-489
-493
-495
-498
-498
-499
-499
-500
-500
-500
-500
-502
-502
-502
-503
-503
-502
-503
-503
-502
-502
-503
-502
-500
-502
-502
-502
-500
-502
-502
-502
-504
-505
-507
-509
-510
-513
-508
-506
-504
-500
-496
-488
-478
-456
-418
-367
-313
-262
-214
-175
-146
-131
-129
-136
-150
-164
-180
-190
-200
-207
-216
-231
-252
-275
-298
-326
-358
-396
-432
-466
-492
-512
-525
-536
-543
-549
-555
-559
-559
-562
-566
-570
-576
-579
-583
-585
-587
-590
-591
-591
-594
-597
-600
-604
-608
-611
-616
-620
-625
-629
-635
-639
-643
-645
-646
-648
-646
-648
-647
-640
-639
-632
-626
-618
-606
-597
-584
-573
-561
-552
-537
-528
-519
-510
-505
-497
-494
-492
-492
-492
-494
-495
-497
-499
-500
-503
-506
-506
-507
-508
-509
-511
-513
-514
-514
-513
-513
-514
-514
-514
-513
-517
-516
-514
-514
-514
-514
-514
-513
-515
-515
-514
-514
-514
-515
-514
-516
-514
-514
-514
-514
-515
-515
-514
-513
-512
-513
-513
-513
-514
-513
-512
-512
-510
-513
-511
-512
-512
-512
-512
-512
-512
-512
-512
-512
-510
-509
-509
-510
-512
-510
-509
-508
-508
-508
-509
-510
-510
-513
-511
-510
-509
-509
-512
-510
-509
-510
-511
-510
-510
-510
-509
-509
-510
-512
-511
-509
-509
-509
-510
-512
-509
-509
-508
-509
-509
-507
-508
-508
-509
-508
-509
-510
-509
-509
-508
-509
-510
-510
-511
-510
-508
-509
-508
-509
-511
-509
-509
-509
-508
-508
-506
-506
-506
-506
-505
-505
-505
-506
-506
-506
-506
-505
-503
-505
-505
-506
-506
-506
-506
-505
-504
-505
-503
-503
-502
-500
-498
-499
-499
-499
-497
-496
-493
-490
-488
-486
-488
-485
-485
-485
-488
-491
-492
-495
-499
-502
-504
-506
-508
-509
-509
-511
-511
-513
-512
-513
-513
-513
-510
-510
-509
-513
-517
-521
-514
-498
-467
-429
-385
-337
-297
-278
-284
-314
-357
-408
-452
-477
-493
-501
-507
-510
-512
-514
-513
-513
-514
-516
-516
-515
-515
-514
-514
-516
-516
-515
-514
-513
-514
-513
-511
-510
-509
-509
-509
-506
-505
-504
-503
-503
-502
-500
-497
-497
-496
-497
-497
-496
-493
-491
-489
-487
-484
-482
-480
-480
-477
-474
-471
-469
-468
-467
-466
-467
-464
-463
-460
-462
-462
-463
-463
-464
-467
-468
-471
-473
-475
-478
-483
-485
-488
-491
-492
-493
-495
-496
-497
-497
-499
-502
-502
-503
-502
-502
-500
-502
-502
-504
-502
-503
-503
-502
-504
-502
-502
-502
-502
-501
-502
-502
-502
-501
-502
-502
-501
-500
-502
-502
-502
-502
-502
-503
-503
-505
-505
-503
-502
-502
-503
-502
-502
-502
-502
-502
-504
-504
-505
-504
-502
-506
-503
-503
-503
-503
-506
-504
-502
-500
-496
-498
-498
-497
-495
-494
-491
-485
-483
-481
-481
-482
-481
-484
-486
-490
-495
-499
-499
-500
-503
-505
-506
-506
-506
-506
-505
-506
-504
-505
-506
-506
-506
-505
-505
-506
-509
-515
-517
-506
-487
-458
-422
-379
-337
-304
-292
-302
-330
-367
-413
-456
-485
-498
-505
-507
-512
-512
-509
-506
-506
-506
-506
-506
-506
-504
-503
-503
-502
-502
-502
-501
-502
-499
-499
-497
-496
-495
-494
-493
-495
-492
-489
-488
-485
-487
-483
-481
-478
-477
-478
-478
-475
-471
-468
-466
-462
-458
-455
-452
-450
-447
-444
-444
-443
-442
-441
-439
-438
-439
-439
-441
-443
-447
-452
-458
-461
-466
-469
-475
-478
-478
-483
-483
-487
-491
-492
-495
-495
-497
-497
-497
-497
-496
-495
-495
-495
-497
-499
-500
-499
-499
-499
-499
-497
-497
-496
-495
-497
-498
-499
-499
-496
-497
-499
-496
-497
-497
-497
-497
-497
-497
-495
-496
-495
-496
-495
-497
-498
-502
-500
-501
-499
-502
-502
-501
-499
-500
-500
-500
-500
-499
-495
-495
-495
-495
-495
-494
-493
-488
-483
-478
-477
-478
-478
-478
-478
-478
-483
-488
-494
-498
-502
-503
-502
-503
-503
-506
-506
-508
-508
-510
-508
-507
-507
-506
-508
-507
-507
-509
-510
-514
-512
-500
-477
-441
-396
-349
-307
-284
-282
-302
-340
-387
-436
-476
-498
-506
-511
-513
-516
-513
-512
-510
-510
-510
-509
-507
-504
-505
-503
-502
-502
-503
-502
-501
-499
-497
-499
-495
-495
-493
-491
-491
-489
-489
-488
-487
-485
-483
-481
-481
-478
-477
-474
-473
-470
-467
-464
-461
-458
-457
-455
-454
-452
-446
-443
-442
-443
-442
-441
-441
-441
-443
-444
-446
-449
-453
-457
-460
-469
-472
-477
-479
-483
-489
-489
-492
-494
-496
-499
-499
-500
-500
-500
-500
-502
-502
-502
-503
-502
-502
-502
-502
-502
-502
-502
-500
-500
-499
-499
-499
-499
-498
-499
-498
-500
-499
-499
-499
-498
-499
-502
-501
-500
-500
-500
-502
-499
-500
-499
-500
-501
-501
-502
-502
-502
-504
-504
-505
-505
-506
-505
-506
-505
-504
-502
-501
-502
-502
-499
-499
-499
-498
-497
-495
-495
-493
-489
-486
-483
-482
-481
-482
-484
-484
-483
-486
-489
-496
-499
-502
-504
-506
-506
-506
-506
-508
-508
-509
-508
-508
-508
-509
-509
-510
-509
-509
-510
-515
-517
-516
-502
-477
-438
-390
-338
-296
-276
-284
-315
-359
-404
-442
-468
-481
-489
-499
-504
-506
-506
-511
-509
-510
-509
-509
-509
-506
-506
-507
-506
-506
-505
-505
-502
-502
-502
-501
-499
-500
-500
-499
-497
-496
-494
-494
-493
-492
-491
-490
-488
-487
-485
-481
-481
-478
-475
-474
-472
-471
-468
-465
-460
-455
-457
-454
-453
-453
-450
-451
-452
-453
-453
-454
-458
-462
-464
-469
-474
-478
-480
-483
-487
-490
-493
-496
-500
-500
-502
-503
-504
-506
-506
-506
-508
-511
-508
-506
-508
-509
-509
-507
-508
-508
-508
-506
-506
-506
-505
-504
-508
-506
-508
-508
-506
-506
-504
-504
-505
-506
-506
-506
-508
-506
-507
-506
-508
-508
-508
-508
-508
-508
-509
-509
-508
-509
-509
-510
-512
-510
-508
-509
-509
-510
-511
-509
-509
-509
-509
-510
-509
-510
-513
-510
-509
-507
-508
-510
-506
-506
-505
-505
-503
-502
-499
-494
-491
-492
-491
-490
-489
-490
-492
-495
-499
-502
-505
-507
-509
-510
-512
-512
-513
-516
-514
-517
-517
-518
-517
-516
-516
-515
-515
-516
-519
-522
-527
-524
-510
-488
-447
-401
-350
-308
-287
-292
-321
-362
-408
-449
-474
-488
-497
-506
-509
-510
-513
-513
-516
-516
-516
-515
-516
-516
-515
-514
-515
-514
-514
-513
-513
-512
-511
-509
-509
-509
-506
-506
-504
-502
-502
-504
-500
-501
-499
-499
-499
-495
-492
-492
-490
-488
-486
-482
-479
-478
-477
-473
-471
-470
-467
-466
-464
-463
-461
-462
-463
-464
-463
-463
-465
-467
-471
-474
-478
-481
-485
-488
-492
-495
-497
-500
-503
-506
-503
-504
-506
-508
-512
-508
-508
-508
-508
-509
-511
-510
-511
-509
-510
-510
-509
-509
-509
-509
-509
-509
-509
-509
-508
-510
-509
-509
-508
-509
-509
-510
-509
-510
-509
-509
-509
-510
-510
-510
-511
-512
-512
-513
-513
-513
-514
-512
-513
-513
-514
-514
-514
-513
-513
-513
-513
-513
-514
-514
-514
-513
-512
-512
-513
-513
-514
-514
-514
-514
-514
-513
-514
-513
-512
-512
-512
-513
-513
-513
-512
-512
-510
-510
-511
-510
-509
-507
-505
-499
-496
-495
-495
-499
-497
-498
-499
-505
-508
-510
-513
-515
-517
-518
-517
-518
-518
-519
-519
-521
-520
-520
-519
-519
-518
-517
-517
-519
-523
-527
-524
-515
-493
-459
-415
-367
-324
-300
-296
-313
-346
-388
-432
-468
-487
-502
-509
-515
-516
-515
-516
-517
-519
-519
-520
-519
-518
-516
-516
-516
-516
-516
-514
-515
-516
-513
-511
-510
-509
-509
-508
-506
-509
-506
-505
-505
-503
-502
-500
-500
-499
-499
-495
-494
-492
-488
-485
-488
-481
-478
-474
-472
-471
-470
-467
-468
-467
-464
-463
-462
-462
-460
-460
-465
-467
-468
-471
-475
-481
-485
-489
-492
-495
-498
-502
-506
-508
-509
-512
-513
-514
-516
-517
-517
-517
-516
-516
-517
-518
-521
-519
-518
-518
-518
-519
-517
-517
-518
-517
-517
-515
-514
-514
-513
-514
-515
-516
-516
-516
-516
-515
-515
-515
-517
-516
-516
-518
-517
-517
-518
-518
-518
-519
-518
-518
-518
-517
-519
-518
-519
-519
-520
-517
-517
-517
-520
-522
-519
-517
-516
-515
-516
-517
-519
-519
-520
-519
-518
-517
-518
-517
-516
-516
-515
-514
-514
-512
-512
-510
-510
-510
-509
-508
-506
-499
-495
-493
-494
-495
-498
-499
-500
-503
-506
-509
-513
-514
-516
-519
-520
-520
-521
-520
-523
-520
-521
-522
-521
-520
-518
-517
-520
-520
-523
-526
-525
-517
-500
-469
-432
-389
-347
-316
-302
-309
-334
-369
-412
-458
-494
-514
-520
-522
-523
-523
-523
-520
-518
-517
-516
-518
-515
-514
-513
-513
-514
-511
-509
-508
-508
-508
-506
-506
-504
-503
-502
-500
-499
-499
-497
-495
-495
-492
-492
-492
-489
-488
-486
-484
-483
-480
-478
-477
-472
-469
-467
-465
-461
-458
-453
-452
-449
-444
-444
-445
-445
-446
-443
-446
-446
-449
-451
-455
-461
-466
-469
-473
-478
-481
-485
-487
-491
-491
-494
-495
-498
-500
-502
-504
-504
-503
-504
-502
-504
-505
-506
-506
-503
-504
-504
-505
-504
-505
-504
-504
-504
-504
-503
-502
-506
-503
-502
-502
-502
-503
-502
-502
-502
-502
-504
-506
-506
-506
-506
-506
-506
-505
-506
-508
-506
-508
-507
-508
-506
-506
-506
-509
-509
-509
-509
-509
-508
-508
-507
-506
-507
-506
-507
-508
-508
-508
-510
-508
-508
-508
-508
-508
-506
-504
-504
-503
-502
-500
-499
-498
-498
-499
-495
-490
-486
-485
-485
-486
-486
-488
-488
-491
-495
-497
-501
-502
-504
-506
-510
-509
-510
-511
-512
-510
-513
-512
-512
-509
-508
-508
-509
-509
-510
-514
-517
-519
-510
-489
-454
-415
-365
-315
-279
-268
-288
-327
-376
-426
-463
-483
-493
-499
-505
-506
-507
-507
-506
-507
-507
-508
-506
-505
-503
-502
-504
-502
-502
-502
-500
-502
-499
-499
-496
-494
-493
-495
-492
-491
-490
-489
-489
-485
-485
-483
-481
-480
-479
-475
-474
-474
-472
-471
-467
-464
-460
-457
-453
-450
-447
-443
-443
-439
-438
-437
-438
-438
-439
-438
-440
-443
-445
-447
-450
-457
-463
-468
-473
-477
-475
-479
-483
-486
-491
-491
-493
-494
-496
-497
-497
-495
-498
-498
-500
-499
-499
-499
-499
-499
-499
-499
-502
-502
-500
-499
-499
-499
-501
-500
-500
-502
-499
-497
-496
-497
-498
-499
-502
-500
-500
-498
-500
-499
-499
-499
-503
-502
-502
-502
-504
-506
-503
-502
-502
-504
-506
-505
-506
-505
-506
-505
-506
-505
-506
-505
-503
-503
-506
-505
-503
-502
-504
-504
-506
-505
-504
-506
-504
-505
-506
-505
-505
-504
-504
-504
-504
-504
-506
-502
-502
-500
-499
-499
-496
-495
-495
-495
-492
-488
-485
-483
-483
-483
-481
-481
-483
-485
-492
-496
-499
-500
-501
-502
-504
-505
-507
-508
-508
-508
-506
-506
-506
-505
-506
-506
-506
-506
-506
-509
-516
-516
-507
-485
-450
-402
-356
-310
-277
-265
-282
-320
-369
-418
-451
-473
-485
-492
-499
-502
-502
-503
-506
-506
-508
-506
-507
-508
-507
-505
-505
-504
-504
-504
-504
-502
-502
-500
-499
-499
-498
-497
-497
-496
-495
-495
-494
-495
-491
-489
-488
-488
-488
-483
-481
-479
-479
-478
-476
-474
-471
-467
-464
-462
-459
-457
-454
-453
-452
-450
-450
-449
-450
-450
-450
-453
-454
-457
-460
-464
-471
-474
-478
-483
-486
-489
-491
-494
-495
-499
-497
-499
-499
-500
-503
-502
-502
-502
-500
-502
-501
-500
-500
-502
-503
-503
-503
-502
-503
-503
-505
-505
-505
-504
-501
-502
-502
-502
-502
-502
-502
-503
-500
-502
-501
-502
-502
-502
-503
-504
-505
-506
-506
-505
-506
-508
-510
-506
-505
-506
-508
-508
-509
-509
-509
-508
-509
-509
-508
-508
-508
-508
-509
-509
-509
-508
-506
-508
-509
-509
-510
-511
-511
-510
-508
-508
-506
-506
-507
-508
-509
-508
-509
-508
-506
-506
-503
-504
-507
-505
-505
-503
-500
-500
-494
-489
-488
-488
-488
-489
-491
-492
-494
-498
-501
-504
-505
-506
-506
-508
-509
-511
-511
-510
-510
-511
-510
-510
-509
-512
-512
-513
-513
-513
-516
-518
-518
-505
-481
-448
-401
-355
-313
-294
-297
-320
-358
-406
-453
-485
-502
-509
-514
-516
-516
-514
-513
-514
-514
-513
-510
-509
-511
-512
-512
-509
-509
-508
-506
-505
-506
-506
-507
-503
-500
-502
-502
-502
-502
-502
-501
-500
-499
-496
-494
-492
-491
-490
-485
-485
-485
-483
-481
-477
-475
-471
-467
-464
-462
-458
-457
-453
-450
-450
-449
-447
-446
-446
-447
-452
-457
-460
-465
-469
-474
-478
-484
-487
-492
-492
-495
-497
-499
-501
-502
-503
-503
-505
-504
-506
-503
-506
-509
-511
-513
-509
-508
-506
-506
-505
-504
-504
-504
-506
-505
-505
-506
-506
-506
-505
-504
-505
-505
-505
-505
-506
-504
-505
-506
-507
-508
-506
-506
-506
-506
-506
-507
-509
-510
-511
-510
-512
-509
-508
-509
-510
-513
-509
-508
-508
-509
-508
-507
-508
-508
-508
-510
-509
-509
-509
-507
-508
-508
-508
-509
-508
-508
-506
-505
-505
-505
-505
-503
-502
-502
-502
-499
-495
-489
-486
-485
-485
-485
-487
-488
-490
-495
-499
-504
-502
-505
-505
-506
-509
-509
-511
-512
-511
-510
-509
-509
-509
-508
-508
-506
-508
-509
-514
-517
-516
-506
-480
-446
-400
-352
-310
-288
-292
-318
-359
-407
-453
-488
-503
-509
-509
-513
-514
-512
-509
-509
-506
-507
-505
-503
-505
-502
-502
-500
-498
-498
-495
-495
-494
-494
-492
-492
-489
-488
-487
-485
-486
-484
-481
-481
-478
-477
-475
-473
-472
-471
-468
-468
-464
-462
-460
-457
-453
-450
-446
-446
-441
-437
-435
-433
-433
-432
-429
-430
-430
-432
-433
-433
-438
-443
-446
-452
-454
-459
-463
-467
-469
-473
-474
-478
-481
-481
-485
-485
-487
-488
-489
-489
-489
-488
-489
-490
-489
-491
-491
-491
-492
-491
-491
-492
-491
-491
-490
-491
-494
-492
-492
-492
-491
-493
-490
-492
-491
-491
-492
-492
-494
-493
-493
-493
-492
-494
-495
-496
-497
-497
-496
-497
-497
-497
-497
-497
-499
-499
-497
-497
-494
-494
-495
-498
-499
-499
-498
-498
-497
-499
-502
-500
-500
-500
-500
-502
-500
-500
-500
-500
-499
-499
-499
-497
-495
-494
-494
-495
-492
-493
-490
-488
-485
-482
-481
-482
-481
-481
-481
-483
-485
-488
-495
-496
-499
-500
-502
-502
-504
-505
-505
-506
-506
-506
-506
-505
-505
-507
-506
-505
-505
-506
-509
-513
-513
-502
-477
-438
-390
-338
-292
-267
-267
-293
-334
-380
-425
-456
-473
-485
-494
-500
-500
-502
-505
-506
-508
-508
-508
-507
-508
-507
-508
-508
-508
-508
-507
-507
-506
-506
-502
-500
-498
-499
-500
-499
-498
-496
-495
-495
-492
-491
-489
-488
-487
-485
-485
-482
-483
-481
-477
-475
-471
-470
-466
-464
-460
-459
-457
-455
-453
-452
-450
-449
-447
-446
-445
-448
-450
-453
-457
-459
-467
-468
-472
-476
-484
-484
-486
-488
-489
-493
-494
-495
-496
-498
-499
-498
-499
-500
-501
-500
-502
-502
-502
-502
-500
-501
-499
-498
-497
-496
-497
-499
-499
-500
-502
-504
-506
-506
-505
-503
-500
-497
-491
-483
-469
-446
-403
-357
-302
-250
-204
-166
-139
-123
-120
-129
-143
-160
-175
-188
-200
-211
-229
-248
-274
-300
-329
-360
-396
-431
-461
-488
-508
-522
-531
-541
-548
-555
-555
-559
-562
-566
-570
-573
-578
-584
-587
-590
-594
-597
-601
-606
-606
-606
-606
-606
-608
-610
-610
-613
-618
-623
-626
-629
-632
-634
-636
-634
-633
-632
-631
-629
-623
-618
-612
-605
-597
-587
-575
-562
-552
-539
-528
-519
-510
-503
-499
-494
-490
-489
-489
-491
-493
-494
-497
-500
-502
-503
-505
-507
-508
-508
-508
-511
-512
-513
-514
-513
-514
-515
-514
-515
-514
-514
-514
-514
-515
-515
-516
-514
-514
-515
-516
-517
-517
-517
-516
-516
-516
-515
-514
-516
-515
-517
-517
-516
-516
-518
-516
-516
-516
-517
-519
-516
-517
-516
-516
-516
-515
-515
-514
-516
-518
-518
-517
-516
-516
-515
-515
-516
-515
-515
-513
-513
-513
-514
-514
-514
-514
-513
-513
-513
-514
-515
-513
-515
-514
-515
-514
-517
-516
-515
-514
-515
-516
-514
-513
-513
-513
-514
-514
-515
-515
-514
-513
-512
-513
-513
-514
-513
-515
-516
-515
-515
-514
-514
-514
-516
-516
-516
-514
-516
-514
-516
-516
-514
-514
-514
-514
-513
-514
-514
-514
-515
-515
-513
-514
-513
-513
-513
-513
-513
-509
-509
-509
-512
-510
-510
-511
-510
-509
-509
-509
-510
-509
-509
-508
-509
-509
-508
-508
-507
-506
-505
-505
-504
-503
-502
-500
-498
-495
-489
-485
-483
-483
-482
-483
-485
-491
-492
-497
-500
-502
-506
-505
-506
-509
-509
-508
-506
-508
-508
-508
-506
-506
-506
-506
-506
-509
-515
-516
-505
-483
-450
-405
-359
-321
-298
-295
-314
-351
-392
-439
-482
-504
-514
-516
-519
-520
-520
-520
-516
-514
-515
-515
-517
-515
-516
-514
-513
-509
-508
-508
-509
-509
-508
-505
-506
-504
-503
-502
-502
-502
-502
-500
-498
-496
-496
-494
-494
-492
-492
-491
-490
-488
-485
-483
-479
-477
-474
-471
-471
-468
-466
-463
-462
-458
-453
-453
-450
-450
-448
-444
-445
-443
-444
-446
-447
-450
-453
-458
-462
-465
-467
-471
-473
-475
-478
-481
-485
-485
-485
-486
-488
-489
-490
-490
-491
-493
-495
-495
-495
-495
-495
-494
-494
-494
-495
-495
-497
-495
-495
-495
-495
-499
-497
-497
-496
-495
-495
-495
-497
-499
-500
-499
-496
-496
-498
-499
-499
-499
-499
-500
-500
-499
-498
-498
-499
-497
-498
-497
-495
-494
-493
-491
-489
-485
-479
-477
-475
-475
-477
-477
-477
-478
-483
-489
-493
-497
-498
-499
-501
-502
-503
-503
-505
-505
-504
-505
-505
-506
-504
-504
-504
-503
-504
-504
-507
-513
-515
-506
-485
-452
-408
-357
-308
-274
-268
-292
-329
-377
-428
-463
-483
-492
-497
-502
-504
-506
-504
-503
-504
-504
-506
-503
-503
-502
-502
-502
-500
-499
-498
-499
-497
-497
-496
-494
-493
-492
-492
-489
-489
-488
-488
-486
-487
-485
-481
-478
-477
-475
-475
-474
-471
-470
-467
-464
-460
-458
-453
-449
-450
-448
-446
-443
-436
-436
-436
-436
-436
-437
-439
-441
-443
-446
-449
-453
-458
-463
-467
-471
-476
-478
-480
-483
-486
-489
-490
-491
-493
-495
-497
-498
-496
-496
-495
-495
-497
-496
-497
-497
-497
-495
-497
-495
-494
-494
-497
-494
-494
-494
-494
-495
-494
-495
-493
-494
-494
-494
-495
-494
-495
-495
-496
-495
-496
-496
-496
-497
-497
-497
-498
-495
-497
-498
-499
-499
-498
-498
-496
-495
-495
-494
-493
-491
-491
-487
-485
-481
-481
-478
-478
-477
-478
-481
-481
-485
-491
-496
-500
-501
-502
-502
-506
-506
-507
-506
-506
-506
-506
-506
-508
-507
-508
-506
-506
-506
-507
-513
-516
-514
-500
-475
-440
-394
-344
-300
-271
-270
-295
-337
-387
-430
-460
-475
-488
-499
-500
-503
-503
-505
-508
-509
-511
-511
-510
-509
-508
-506
-507
-508
-506
-508
-506
-506
-504
-502
-501
-502
-501
-500
-499
-497
-498
-495
-494
-492
-492
-491
-492
-490
-488
-487
-486
-484
-483
-480
-478
-478
-474
-471
-468
-464
-460
-460
-458
-457
-454
-453
-453
-452
-453
-453
-453
-455
-458
-461
-464
-468
-473
-478
-481
-483
-485
-489
-492
-494
-495
-497
-499
-502
-502
-503
-502
-502
-503
-503
-505
-504
-503
-505
-502
-502
-502
-502
-504
-502
-502
-500
-500
-500
-500
-499
-499
-500
-502
-502
-502
-502
-502
-502
-503
-503
-502
-502
-502
-503
-503
-503
-503
-503
-503
-502
-503
-504
-504
-504
-503
-503
-504
-505
-506
-508
-504
-504
-503
-503
-504
-500
-499
-495
-492
-488
-485
-485
-486
-486
-485
-483
-485
-489
-494
-499
-502
-503
-506
-508
-509
-509
-509
-509
-510
-512
-513
-512
-512
-510
-510
-509
-510
-511
-511
-512
-515
-519
-517
-506
-483
-449
-404
-359
-316
-292
-291
-309
-346
-387
-429
-459
-478
-491
-500
-506
-509
-509
-509
-512
-513
-513
-513
-513
-513
-511
-511
-509
-509
-508
-509
-506
-506
-506
-506
-504
-503
-502
-502
-502
-500
-499
-501
-499
-502
-497
-496
-494
-492
-494
-492
-491
-488
-486
-484
-481
-478
-477
-473
-472
-471
-469
-467
-466
-465
-463
-460
-459
-458
-458
-460
-461
-463
-463
-465
-469
-473
-478
-481
-484
-489
-492
-496
-500
-502
-503
-504
-505
-506
-505
-503
-505
-506
-508
-510
-510
-510
-508
-508
-509
-508
-508
-509
-509
-508
-506
-506
-506
-506
-505
-506
-506
-506
-506
-506
-506
-506
-507
-507
-506
-507
-505
-506
-506
-506
-505
-505
-505
-506
-506
-506
-506
-508
-511
-507
-506
-506
-505
-509
-506
-508
-508
-507
-507
-506
-504
-504
-505
-504
-502
-500
-500
-499
-497
-495
-491
-488
-485
-483
-484
-488
-490
-495
-499
-503
-504
-507
-510
-510
-512
-511
-513
-514
-514
-514
-516
-514
-513
-511
-512
-514
-510
-512
-514
-519
-523
-520
-506
-478
-444
-401
-359
-325
-304
-307
-329
-365
-408
-456
-492
-512
-519
-522
-523
-525
-523
-519
-519
-516
-516
-516
-516
-514
-513
-512
-510
-510
-508
-506
-506
-505
-504
-507
-504
-503
-502
-501
-503
-502
-500
-500
-498
-497
-495
-494
-492
-488
-487
-485
-484
-481
-478
-476
-471
-471
-467
-465
-464
-460
-455
-453
-450
-450
-447
-447
-446
-446
-447
-449
-450
-453
-457
-460
-465
-474
-475
-478
-480
-484
-489
-492
-493
-495
-499
-501
-502
-502
-502
-502
-502
-501
-500
-501
-502
-502
-502
-502
-502
-500
-500
-500
-502
-503
-502
-500
-502
-502
-502
-500
-500
-499
-499
-500
-502
-502
-502
-502
-502
-503
-504
-504
-505
-503
-502
-503
-504
-504
-505
-506
-506
-506
-506
-505
-505
-504
-505
-505
-506
-506
-506
-505
-503
-503
-505
-504
-502
-502
-500
-499
-498
-498
-497
-494
-489
-485
-483
-480
-482
-483
-485
-487
-489
-493
-499
-501
-504
-506
-508
-510
-510
-513
-513
-513
-515
-516
-516
-514
-514
-514
-514
-514
-514
-515
-517
-523
-524
-517
-500
-471
-432
-383
-332
-294
-278
-292
-329
-373
-422
-466
-489
-500
-508
-514
-516
-518
-517
-515
-515
-513
-513
-514
-513
-513
-512
-510
-509
-509
-508
-508
-506
-506
-505
-503
-503
-502
-500
-500
-499
-497
-496
-496
-495
-494
-493
-492
-488
-488
-489
-485
-481
-479
-477
-473
-471
-468
-467
-464
-461
-460
-456
-453
-450
-447
-449
-448
-449
-448
-446
-450
-452
-456
-460
-463
-467
-473
-477
-481
-485
-488
-489
-492
-495
-498
-502
-502
-504
-503
-503
-506
-506
-506
-506
-506
-506
-506
-506
-506
-508
-507
-506
-506
-506
-507
-507
-510
-508
-507
-508
-509
-509
-505
-506
-506
-507
-506
-508
-506
-506
-506
-508
-506
-506
-507
-505
-506
-506
-508
-508
-508
-509
-508
-509
-509
-508
-508
-508
-506
-506
-506
-506
-508
-508
-509
-508
-507
-508
-511
-509
-509
-509
-509
-512
-509
-510
-509
-508
-509
-508
-506
-508
-508
-507
-507
-508
-508
-508
-506
-504
-503
-502
-502
-502
-502
-502
-501
-499
-494
-490
-488
-486
-487
-487
-488
-489
-491
-492
-495
-500
-503
-503
-505
-506
-508
-510
-510
-511
-513
-511
-512
-509
-509
-510
-512
-512
-512
-512
-513
-516
-520
-520
-506
-481
-446
-404
-357
-313
-279
-274
-293
-332
-378
-422
-455
-474
-488
-497
-503
-505
-506
-508
-509
-513
-513
-512
-510
-513
-509
-509
-509
-510
-512
-509
-509
-509
-508
-506
-506
-503
-502
-502
-501
-500
-500
-499
-499
-499
-497
-495
-492
-492
-491
-489
-487
-486
-484
-481
-479
-478
-475
-474
-471
-470
-466
-464
-463
-460
-459
-454
-456
-454
-456
-455
-455
-458
-460
-464
-467
-472
-474
-478
-479
-485
-488
-492
-494
-497
-499
-500
-502
-504
-504
-505
-504
-505
-506
-505
-506
-506
-506
-508
-506
-506
-506
-505
-505
-505
-505
-504
-505
-503
-503
-503
-502
-502
-506
-502
-503
-504
-504
-505
-501
-502
-502
-502
-503
-502
-503
-503
-502
-503
-503
-503
-504
-505
-504
-505
-506
-508
-509
-508
-508
-509
-509
-509
-507
-508
-508
-508
-508
-508
-508
-506
-509
-509
-509
-511
-513
-511
-510
-510
-512
-514
-513
-513
-513
-512
-513
-512
-512
-512
-510
-512
-512
-512
-510
-509
-509
-511
-511
-511
-512
-511
-510
-510
-508
-508
-507
-506
-506
-506
-505
-503
-502
-497
-495
-489
-488
-488
-488
-489
-491
-493
-497
-503
-506
-508
-509
-511
-512
-512
-512
-511
-512
-513
-513
-512
-512
-513
-512
-511
-509
-510
-510
-511
-516
-520
-519
-508
-485
-453
-410
-362
-320
-292
-286
-301
-328
-369
-415
-454
-481
-495
-503
-508
-513
-515
-513
-512
-510
-509
-511
-508
-509
-509
-509
-508
-506
-506
-506
-505
-506
-505
-504
-502
-502
-503
-502
-500
-499
-498
-498
-497
-497
-496
-496
-494
-493
-490
-490
-489
-486
-487
-485
-483
-481
-478
-474
-473
-467
-465
-465
-461
-456
-457
-456
-457
-456
-453
-452
-451
-451
-453
-456
-461
-465
-469
-473
-478
-483
-485
-488
-492
-497
-499
-502
-503
-506
-506
-509
-513
-510
-513
-513
-511
-510
-512
-513
-513
-513
-514
-515
-514
-513
-512
-513
-511
-513
-513
-513
-513
-512
-511
-511
-511
-509
-509
-510
-513
-513
-514
-514
-513
-513
-513
-512
-511
-513
-514
-514
-513
-513
-515
-516
-514
-514
-515
-514
-514
-513
-514
-515
-514
-516
-516
-516
-514
-516
-514
-515
-516
-516
-518
-516
-514
-515
-514
-514
-514
-514
-512
-513
-513
-513
-513
-513
-513
-513
-514
-513
-513
-512
-512
-510
-511
-509
-508
-507
-505
-505
-505
-504
-500
-496
-491
-488
-488
-488
-489
-490
-493
-496
-499
-503
-508
-509
-512
-513
-513
-513
-514
-515
-516
-516
-516
-516
-517
-518
-517
-516
-514
-514
-515
-516
-522
-525
-520
-504
-475
-436
-387
-338
-302
-288
-296
-323
-365
-411
-460
-494
-509
-514
-519
-521
-520
-519
-519
-515
-514
-513
-513
-514
-513
-512
-509
-509
-509
-509
-508
-506
-504
-502
-502
-502
-502
-500
-499
-498
-497
-495
-495
-494
-491
-489
-489
-488
-486
-485
-482
-478
-477
-475
-474
-471
-469
-467
-464
-460
-454
-454
-453
-452
-450
-446
-447
-446
-447
-446
-447
-449
-450
-456
-460
-465
-469
-473
-478
-481
-487
-491
-494
-497
-499
-501
-503
-504
-506
-507
-506
-508
-509
-509
-509
-510
-512
-513
-512
-512
-511
-510
-511
-510
-509
-509
-509
-512
-509
-509
-509
-508
-508
-506
-506
-508
-508
-508
-508
-510
-511
-511
-511
-510
-509
-509
-509
-509
-511
-510
-509
-509
-511
-513
-512
-513
-513
-513
-514
-514
-514
-513
-514
-515
-514
-513
-514
-514
-514
-516
-514
-514
-513
-513
-515
-514
-514
-514
-515
-516
-516
-516
-515
-514
-514
-515
-514
-514
-514
-513
-514
-514
-514
-514
-512
-513
-512
-513
-514
-516
-516
-515
-514
-513
-511
-508
-508
-509
-508
-506
-505
-503
-495
-492
-492
-493
-495
-494
-495
-496
-499
-501
-505
-508
-511
-514
-515
-516
-516
-518
-518
-519
-519
-519
-520
-520
-520
-520
-520
-520
-519
-520
-524
-530
-528
-519
-496
-460
-413
-360
-311
-280
-274
-294
-329
-373
-419
-453
-480
-491
-500
-507
-510
-513
-513
-515
-516
-518
-519
-519
-518
-518
-519
-520
-518
-518
-517
-517
-516
-516
-514
-513
-513
-510
-509
-507
-508
-506
-505
-506
-504
-504
-502
-499
-499
-498
-495
-495
-494
-491
-492
-488
-485
-483
-480
-479
-475
-472
-467
-466
-462
-460
-459
-460
-458
-457
-458
-458
-460
-463
-464
-466
-469
-473
-478
-481
-485
-489
-492
-495
-499
-502
-502
-504
-506
-506
-508
-506
-508
-509
-508
-510
-512
-512
-511
-513
-512
-514
-511
-510
-509
-508
-506
-506
-508
-509
-508
-509
-509
-509
-508
-506
-506
-508
-508
-506
-508
-507
-508
-509
-508
-509
-509
-510
-511
-509
-509
-509
-509
-509
-509
-510
-510
-513
-511
-511
-513
-512
-512
-513
-512
-513
-510
-512
-514
-512
-513
-513
-514
-513
-511
-513
-514
-514
-513
-512
-510
-512
-512
-512
-512
-512
-510
-512
-513
-514
-514
-511
-511
-509
-511
-513
-514
-514
-511
-510
-509
-510
-508
-506
-506
-510
-506
-504
-502
-497
-495
-490
-491
-491
-491
-492
-492
-496
-499
-502
-504
-506
-511
-513
-514
-513
-514
-514
-514
-513
-513
-513
-513
-515
-516
-516
-516
-516
-515
-518
-522
-525
-519
-503
-475
-439
-393
-342
-302
-279
-282
-306
-346
-392
-434
-468
-485
-497
-505
-509
-510
-509
-511
-513
-514
-516
-516
-514
-514
-514
-512
-511
-509
-510
-511
-509
-508
-507
-506
-507
-506
-506
-505
-505
-502
-502
-503
-502
-502
-499
-497
-495
-494
-493
-494
-489
-488
-486
-486
-486
-481
-479
-477
-474
-471
-469
-466
-466
-464
-460
-457
-454
-453
-453
-453
-454
-456
-458
-460
-464
-469
-475
-478
-484
-487
-491
-492
-495
-498
-500
-502
-502
-502
-504
-506
-509
-512
-509
-509
-510
-511
-513
-510
-513
-510
-510
-512
-512
-510
-509
-506
-506
-506
-506
-505
-506
-505
-506
-506
-506
-506
-506
-506
-507
-507
-506
-506
-506
-509
-508
-508
-506
-508
-508
-508
-510
-512
-511
-509
-509
-508
-508
-508
-512
-508
-509
-508
-510
-513
-512
-511
-511
-512
-513
-512
-512
-510
-510
-509
-509
-509
-510
-511
-510
-511
-512
-511
-509
-506
-507
-507
-507
-505
-503
-502
-499
-497
-495
-492
-488
-488
-488
-490
-491
-493
-498
-500
-503
-506
-509
-512
-512
-512
-513
-514
-515
-514
-514
-513
-515
-516
-516
-516
-513
-514
-514
-514
-519
-523
-523
-512
-488
-457
-415
-369
-329
-303
-303
-316
-348
-390
-438
-479
-506
-518
-521
-523
-527
-524
-521
-519
-518
-518
-516
-514
-513
-512
-510
-508
-506
-507
-506
-503
-503
-502
-502
-502
-502
-502
-500
-497
-498
-496
-495
-494
-492
-491
-488
-486
-487
-485
-484
-480
-478
-477
-472
-471
-466
-464
-460
-458
-456
-453
-450
-446
-447
-444
-440
-438
-436
-438
-439
-439
-439
-440
-444
-450
-453
-456
-460
-464
-468
-472
-477
-480
-485
-488
-490
-491
-492
-495
-496
-497
-499
-499
-500
-500
-502
-503
-502
-500
-500
-500
-502
-502
-500
-502
-501
-500
-500
-502
-503
-502
-500
-500
-500
-500
-500
-502
-502
-500
-501
-502
-502
-502
-502
-502
-502
-502
-503
-504
-503
-503
-506
-506
-506
-505
-505
-506
-506
-505
-503
-504
-505
-505
-505
-506
-506
-508
-506
-505
-504
-504
-504
-502
-502
-502
-500
-499
-498
-497
-494
-491
-488
-483
-481
-483
-483
-481
-483
-484
-487
-491
-496
-499
-500
-503
-506
-506
-507
-506
-506
-506
-506
-507
-506
-509
-508
-508
-508
-507
-506
-506
-507
-513
-520
-515
-502
-475
-439
-390
-342
-298
-274
-273
-295
-330
-377
-424
-459
-478
-488
-495
-502
-504
-504
-505
-506
-506
-507
-507
-509
-506
-506
-506
-505
-505
-503
-502
-502
-502
-502
-499
-498
-497
-496
-495
-496
-493
-492
-491
-491
-493
-489
-488
-487
-485
-484
-481
-478
-478
-476
-474
-469
-468
-465
-461
-459
-456
-453
-450
-447
-445
-443
-443
-440
-439
-440
-438
-439
-440
-443
-446
-448
-452
-457
-461
-467
-471
-472
-475
-478
-481
-485
-489
-488
-489
-490
-489
-492
-492
-493
-494
-495
-496
-496
-495
-494
-495
-495
-494
-494
-494
-495
-495
-495
-495
-494
-494
-492
-494
-494
-492
-494
-493
-494
-494
-494
-495
-495
-495
-496
-495
-496
-495
-496
-499
-497
-497
-499
-500
-502
-500
-500
-500
-500
-500
-500
-499
-502
-502
-503
-503
-503
-502
-502
-502
-503
-502
-503
-503
-502
-502
-501
-502
-501
-498
-499
-498
-497
-496
-495
-495
-491
-486
-482
-481
-481
-483
-481
-482
-481
-485
-491
-492
-496
-497
-500
-502
-504
-504
-505
-505
-506
-506
-507
-508
-508
-508
-506
-509
-508
-508
-508
-511
-516
-517
-509
-490
-462
-425
-376
-330
-294
-282
-297
-327
-369
-413
-446
-467
-479
-489
-497
-502
-506
-505
-506
-508
-509
-512
-510
-509
-509
-508
-509
-509
-509
-508
-506
-506
-505
-504
-502
-502
-502
-501
-499
-499
-497
-495
-495
-494
-494
-492
-492
-489
-488
-485
-485
-481
-481
-479
-478
-477
-473
-471
-471
-464
-462
-459
-456
-452
-453
-452
-453
-452
-450
-450
-450
-452
-453
-453
-458
-460
-464
-467
-471
-474
-478
-481
-484
-485
-488
-491
-492
-494
-493
-495
-497
-499
-500
-500
-500
-499
-500
-502
-500
-502
-502
-500
-502
-502
-501
-502
-499
-499
-497
-497
-497
-497
-499
-499
-500
-502
-503
-506
-506
-510
-513
-509
-508
-506
-500
-494
-488
-481
-462
-429
-382
-330
-277
-225
-184
-152
-134
-133
-131
-142
-154
-167
-180
-185
-195
-209
-229
-251
-278
-303
-335
-369
-402
-433
-464
-489
-506
-519
-526
-531
-537
-539
-541
-541
-539
-539
-542
-545
-550
-554
-557
-562
-566
-570
-575
-580
-584
-587
-590
-591
-598
-603
-608
-611
-614
-620
-625
-630
-633
-636
-638
-640
-643
-641
-640
-637
-634
-629
-624
-615
-608
-598
-586
-574
-562
-552
-541
-533
-523
-516
-510
-506
-503
-504
-503
-504
-504
-507
-508
-509
-513
-517
-517
-518
-519
-519
-520
-522
-523
-523
-525
-527
-527
-527
-526
-526
-527
-523
-524
-523
-524
-523
-523
-523
-520
-522
-524
-523
-524
-523
-522
-520
-520
-519
-519
-520
-520
-520
-519
-519
-518
-517
-517
-517
-517
-518
-519
-520
-519
-519
-518
-517
-516
-516
-517
-517
-517
-519
-520
-517
-519
-519
-518
-519
-517
-517
-518
-518
-519
-517
-518
-518
-518
-516
-518
-518
-518
-518
-516
-515
-515
-516
-517
-518
-520
-519
-518
-516
-516
-517
-516
-516
-516
-514
-513
-514
-514
-514
-516
-517
-520
-517
-517
-516
-514
-514
-513
-514
-516
-517
-518
-516
-514
-514
-514
-516
-516
-516
-516
-515
-514
-513
-513
-513
-513
-511
-513
-514
-513
-513
-512
-513
-514
-511
-509
-508
-506
-505
-504
-502
-500
-499
-494
-491
-488
-486
-488
-490
-490
-491
-494
-499
-504
-505
-507
-509
-513
-513
-515
-514
-514
-514
-514
-514
-515
-514
-513
-513
-514
-517
-522
-520
-512
-490
-460
-420
-376
-335
-309
-303
-316
-346
-384
-428
-472
-503
-519
-524
-524
-528
-529
-528
-527
-523
-522
-520
-519
-517
-517
-518
-516
-515
-514
-514
-514
-514
-513
-513
-513
-511
-509
-509
-509
-508
-509
-508
-506
-503
-503
-502
-501
-499
-499
-497
-494
-492
-489
-489
-488
-486
-485
-483
-478
-475
-472
-469
-469
-464
-463
-462
-459
-457
-456
-453
-453
-452
-451
-453
-456
-458
-460
-463
-467
-471
-474
-478
-481
-485
-487
-490
-492
-492
-495
-495
-495
-495
-495
-497
-497
-499
-499
-499
-499
-499
-499
-499
-499
-498
-501
-499
-500
-502
-502
-503
-499
-499
-500
-500
-502
-502
-502
-502
-502
-502
-503
-503
-502
-502
-502
-505
-505
-504
-504
-504
-506
-506
-506
-504
-503
-502
-499
-498
-498
-497
-496
-493
-490
-486
-484
-483
-487
-485
-486
-487
-490
-495
-499
-502
-504
-506
-508
-509
-509
-509
-511
-510
-509
-511
-513
-514
-513
-513
-512
-512
-513
-513
-515
-520
-523
-517
-502
-474
-440
-393
-346
-303
-282
-288
-310
-355
-406
-446
-473
-487
-496
-503
-506
-509
-508
-508
-509
-511
-512
-510
-510
-509
-509
-507
-505
-506
-506
-505
-504
-504
-504
-502
-502
-500
-499
-497
-496
-496
-495
-492
-493
-492
-492
-489
-488
-487
-485
-483
-481
-480
-478
-477
-474
-471
-468
-461
-460
-459
-458
-454
-450
-450
-449
-449
-447
-447
-449
-449
-451
-453
-457
-460
-464
-469
-474
-478
-481
-486
-489
-491
-494
-495
-496
-497
-499
-499
-501
-500
-502
-502
-502
-503
-503
-503
-502
-502
-500
-503
-502
-502
-501
-500
-502
-500
-500
-499
-499
-499
-499
-499
-500
-500
-500
-500
-500
-500
-500
-502
-502
-500
-501
-500
-500
-502
-500
-502
-503
-503
-502
-504
-502
-500
-500
-499
-497
-497
-496
-495
-494
-489
-487
-483
-482
-483
-485
-483
-484
-486
-487
-493
-496
-500
-502
-505
-506
-508
-507
-509
-508
-508
-507
-509
-509
-510
-509
-509
-511
-511
-510
-510
-511
-516
-520
-517
-502
-474
-435
-389
-340
-299
-280
-288
-309
-349
-394
-435
-460
-477
-488
-495
-502
-506
-508
-510
-510
-510
-511
-511
-510
-511
-509
-509
-509
-509
-509
-509
-508
-506
-505
-504
-502
-502
-502
-502
-500
-502
-500
-499
-497
-496
-496
-495
-495
-492
-492
-489
-488
-488
-488
-484
-481
-478
-477
-478
-474
-473
-469
-467
-464
-464
-462
-460
-460
-458
-459
-458
-459
-460
-463
-465
-470
-474
-477
-479
-481
-483
-488
-492
-496
-499
-500
-502
-502
-502
-503
-502
-503
-503
-506
-506
-508
-509
-508
-507
-506
-508
-506
-508
-508
-508
-509
-506
-504
-503
-503
-504
-503
-503
-505
-506
-506
-506
-506
-504
-504
-503
-503
-504
-506
-508
-506
-506
-506
-507
-506
-506
-508
-506
-506
-506
-507
-508
-506
-504
-504
-502
-502
-504
-502
-500
-499
-496
-495
-490
-488
-487
-487
-486
-485
-485
-488
-491
-497
-499
-503
-505
-506
-508
-509
-509
-510
-509
-509
-509
-509
-509
-510
-511
-511
-510
-509
-509
-511
-515
-519
-522
-516
-499
-474
-439
-402
-359
-320
-296
-294
-315
-351
-391
-431
-460
-478
-490
-500
-506
-509
-509
-510
-510
-513
-510
-512
-510
-509
-509
-508
-509
-509
-508
-506
-506
-504
-503
-503
-504
-503
-503
-501
-502
-500
-500
-499
-496
-494
-493
-494
-493
-494
-489
-490
-488
-488
-488
-482
-481
-478
-475
-475
-474
-472
-471
-469
-467
-464
-461
-462
-459
-458
-457
-457
-458
-460
-461
-461
-464
-469
-474
-476
-481
-484
-487
-489
-492
-495
-497
-500
-502
-503
-502
-504
-502
-503
-505
-506
-508
-506
-505
-506
-506
-506
-505
-504
-504
-504
-505
-504
-504
-506
-506
-506
-505
-504
-504
-503
-503
-503
-504
-504
-504
-503
-503
-506
-505
-506
-505
-504
-502
-503
-503
-505
-505
-506
-505
-506
-506
-506
-507
-503
-504
-503
-503
-504
-504
-503
-503
-502
-502
-502
-502
-501
-502
-500
-499
-495
-489
-487
-483
-482
-483
-483
-483
-483
-486
-490
-494
-499
-502
-503
-503
-506
-508
-509
-511
-510
-510
-511
-511
-509
-512
-509
-511
-509
-509
-510
-509
-513
-517
-518
-508
-487
-458
-419
-376
-336
-309
-302
-313
-340
-379
-425
-467
-495
-508
-510
-514
-516
-514
-514
-513
-513
-509
-509
-508
-508
-508
-506
-508
-506
-506
-506
-508
-505
-504
-502
-500
-502
-500
-500
-499
-497
-495
-494
-492
-491
-490
-490
-488
-486
-485
-485
-483
-481
-480
-477
-474
-472
-471
-468
-464
-461
-459
-455
-452
-450
-449
-447
-446
-445
-444
-443
-446
-446
-449
-453
-458
-463
-468
-474
-475
-478
-481
-485
-489
-490
-491
-493
-494
-496
-496
-498
-497
-498
-496
-497
-497
-499
-498
-500
-502
-500
-499
-499
-498
-499
-499
-499
-499
-497
-499
-499
-498
-498
-498
-498
-497
-498
-499
-499
-500
-503
-500
-499
-499
-500
-503
-502
-502
-500
-501
-502
-502
-504
-503
-503
-504
-505
-504
-506
-505
-504
-503
-504
-503
-502
-502
-502
-503
-502
-502
-499
-499
-499
-496
-496
-495
-495
-489
-485
-480
-478
-477
-478
-479
-483
-483
-487
-493
-494
-498
-502
-503
-506
-506
-506
-506
-506
-508
-508
-508
-506
-508
-507
-506
-506
-507
-506
-506
-509
-514
-516
-508
-488
-460
-421
-371
-324
-292
-279
-295
-324
-367
-416
-457
-481
-494
-502
-506
-510
-512
-509
-508
-509
-508
-509
-506
-506
-506
-506
-505
-503
-502
-502
-502
-501
-500
-500
-499
-499
-497
-497
-497
-494
-493
-492
-491
-489
-488
-488
-486
-485
-484
-481
-479
-478
-475
-473
-471
-468
-466
-460
-455
-454
-452
-450
-447
-443
-445
-444
-443
-444
-443
-445
-446
-449
-452
-456
-461
-465
-470
-473
-477
-479
-483
-485
-489
-490
-493
-496
-496
-498
-496
-498
-500
-500
-502
-502
-503
-502
-502
-502
-502
-503
-503
-503
-502
-503
-503
-505
-503
-503
-503
-503
-502
-502
-502
-501
-500
-499
-499
-500
-500
-500
-502
-500
-500
-502
-502
-502
-502
-502
-502
-502
-500
-500
-502
-504
-505
-504
-505
-505
-505
-506
-505
-505
-505
-506
-506
-506
-506
-509
-506
-506
-506
-507
-509
-507
-508
-508
-506
-507
-506
-506
-508
-506
-507
-506
-506
-507
-506
-506
-506
-506
-505
-503
-502
-502
-502
-501
-499
-495
-491
-487
-487
-487
-485
-486
-487
-489
-494
-497
-502
-506
-506
-506
-508
-509
-511
-509
-511
-512
-512
-512
-511
-510
-510
-512
-512
-512
-512
-513
-517
-522
-519
-506
-481
-443
-393
-338
-294
-272
-279
-307
-349
-396
-436
-462
-478
-491
-499
-503
-505
-506
-509
-509
-512
-513
-513
-513
-514
-512
-511
-511
-509
-509
-507
-506
-506
-506
-505
-505
-502
-502
-500
-499
-499
-499
-497
-497
-495
-495
-494
-492
-492
-491
-488
-488
-486
-483
-478
-475
-474
-472
-471
-468
-466
-464
-461
-459
-458
-456
-451
-453
-453
-453
-453
-453
-457
-459
-463
-466
-470
-471
-477
-479
-483
-488
-489
-492
-494
-496
-497
-500
-502
-502
-503
-504
-505
-506
-505
-505
-505
-506
-505
-506
-506
-506
-508
-506
-507
-506
-506
-506
-507
-504
-504
-503
-504
-506
-502
-504
-504
-504
-504
-502
-502
-504
-503
-503
-504
-504
-504
-503
-503
-504
-504
-504
-504
-505
-505
-506
-506
-506
-505
-506
-508
-508
-508
-506
-508
-508
-508
-507
-508
-508
-507
-509
-508
-507
-508
-511
-509
-509
-508
-509
-511
-509
-508
-509
-508
-509
-508
-508
-508
-508
-508
-507
-508
-509
-508
-508
-508
-508
-508
-506
-505
-503
-502
-502
-502
-500
-499
-497
-492
-489
-485
-488
-486
-488
-488
-488
-492
-498
-500
-503
-504
-506
-508
-508
-509
-511
-510
-510
-510
-512
-512
-512
-512
-512
-511
-509
-510
-512
-516
-521
-520
-512
-489
-459
-420
-373
-327
-294
-285
-302
-332
-376
-422
-456
-477
-490
-500
-506
-508
-509
-512
-513
-514
-515
-516
-513
-514
-513
-513
-513
-512
-513
-512
-510
-509
-509
-508
-508
-508
-506
-507
-506
-504
-504
-503
-503
-503
-500
-499
-498
-497
-495
-495
-493
-491
-491
-488
-487
-485
-481
-478
-477
-474
-471
-467
-467
-463
-464
-462
-463
-460
-457
-458
-458
-460
-462
-466
-470
-474
-476
-478
-481
-484
-488
-491
-495
-498
-500
-502
-503
-506
-506
-508
-509
-509
-510
-510
-512
-511
-513
-513
-512
-511
-511
-510
-512
-513
-513
-514
-513
-513
-513
-512
-513
-509
-510
-509
-510
-511
-509
-509
-509
-510
-510
-509
-508
-506
-506
-506
-508
-509
-512
-512
-512
-512
-512
-512
-512
-513
-513
-516
-514
-515
-513
-513
-512
-514
-514
-514
-516
-514
-516
-515
-514
-514
-518
-515
-514
-514
-515
-515
-514
-513
-513
-513
-514
-513
-511
-509
-509
-511
-512
-512
-510
-512
-513
-512
-511
-511
-508
-505
-505
-506
-506
-508
-506
-505
-502
-497
-493
-491
-492
-492
-493
-494
-495
-499
-504
-506
-510
-513
-515
-517
-516
-515
-517
-519
-520
-520
-519
-520
-520
-520
-520
-517
-516
-517
-520
-525
-527
-521
-506
-481
-449
-407
-365
-329
-313
-319
-344
-376
-420
-468
-501
-516
-523
-525
-528
-528
-528
-524
-523
-520
-520
-521
-519
-517
-516
-515
-516
-514
-514
-514
-513
-513
-511
-512
-510
-509
-508
-508
-506
-505
-504
-502
-501
-498
-497
-496
-495
-495
-493
-490
-488
-485
-484
-479
-478
-473
-469
-467
-464
-462
-460
-458
-454
-449
-449
-447
-446
-445
-444
-448
-450
-450
-453
-456
-463
-467
-474
-478
-484
-486
-490
-493
-495
-497
-500
-503
-504
-506
-507
-506
-508
-508
-510
-512
-512
-511
-512
-510
-510
-509
-508
-508
-508
-508
-509
-510
-509
-508
-506
-506
-509
-508
-507
-508
-509
-508
-509
-508
-508
-507
-507
-508
-509
-509
-508
-508
-506
-508
-506
-509
-510
-511
-510
-510
-510
-509
-510
-512
-512
-513
-513
-513
-512
-511
-512
-510
-510
-511
-513
-512
-512
-511
-513
-510
-509
-511
-513
-512
-510
-511
-510
-509
-509
-509
-508
-507
-505
-503
-503
-503
-505
-504
-502
-496
-493
-488
-488
-488
-488
-489
-490
-492
-494
-499
-501
-506
-509
-509
-510
-509
-510
-512
-513
-514
-517
-514
-515
-514
-515
-516
-514
-514
-513
-514
-518
-524
-523
-510
-488
-453
-408
-357
-308
-279
-276
-296
-336
-382
-429
-465
-485
-497
-506
-510
-512
-511
-509
-510
-512
-510
-510
-509
-510
-511
-510
-509
-510
-508
-508
-506
-506
-506
-503
-502
-502
-502
-503
-502
-501
-499
-497
-495
-494
-494
-493
-491
-489
-489
-488
-486
-485
-481
-479
-477
-476
-472
-471
-466
-466
-460
-456
-453
-450
-449
-447
-446
-445
-444
-443
-446
-447
-450
-453
-453
-460
-463
-469
-474
-479
-481
-484
-486
-490
-492
-495
-496
-497
-499
-500
-500
-500
-502
-502
-502
-504
-504
-503
-503
-502
-502
-503
-503
-504
-503
-503
-503
-503
-502
-500
-500
-500
-502
-500
-500
-500
-502
-499
-499
-500
-500
-503
-500
-500
-501
-500
-499
-499
-498
-499
-500
-500
-502
-502
-502
-501
-500
-500
-502
-500
-502
-503
-504
-503
-504
-503
-503
-503
-502
-503
-503
-501
-502
-502
-502
-502
-500
-500
-502
-500
-502
-502
-503
-505
-503
-502
-502
-500
-502
-502
-502
-500
-499
-499
-497
-497
-496
-496
-494
-494
-490
-487
-481
-478
-478
-479
-478
-479
-481
-481
-486
-488
-492
-494
-497
-498
-502
-502
-502
-502
-502
-503
-503
-503
-503
-504
-502
-501
-503
-503
-504
-505
-509
-512
-506
-488
-459
-416
-366
-318
-282
-271
-285
-318
-360
-406
-439
-463
-475
-485
-494
-497
-497
-498
-500
-502
-504
-504
-503
-504
-503
-503
-502
-502
-502
-502
-502
-502
-499
-500
-497
-496
-497
-495
-494
-492
-492
-492
-491
-488
-487
-488
-486
-483
-481
-481
-478
-477
-477
-475
-474
-471
-467
-465
-463
-460
-456
-454
-450
-449
-446
-446
-443
-443
-442
-442
-440
-443
-444
-446
-450
-455
-460
-465
-471
-473
-478
-479
-481
-486
-487
-488
-490
-492
-493
-495
-495
-494
-496
-497
-497
-496
-497
-498
-495
-496
-496
-496
-495
-495
-496
-495
-495
-495
-494
-494
-492
-493
-494
-494
-494
-493
-492
-493
-492
-494
-496
-494
-494
-492
-494
-496
-494
-493
-492
-492
-494
-496
-495
-495
-495
-495
-495
-495
-495
-495
-495
-496
-497
-496
-496
-496
-495
-496
-496
-496
-495
-495
-495
-496
-495
-496
-495
-494
-494
-493
-492
-490
-490
-488
-487
-484
-480
-478
-474
-474
-474
-476
-478
-478
-480
-484
-489
-492
-492
-495
-499
-500
-500
-501
-502
-502
-502
-500
-502
-502
-500
-502
-500
-501
-502
-505
-509
-513
-504
-488
-463
-425
-377
-328
-293
-280
-290
-320
-362
-407
-446
-467
-480
-490
-497
-499
-500
-500
-502
-501
-502
-502
-502
-500
-500
-499
-499
-500
-499
-498
-497
-497
-495
-495
-494
-495
-494
-492
-491
-488
-489
-488
-486
-485
-484
-484
-483
-482
-481
-478
-478
-478
-475
-473
-469
-467
-463
-464
-460
-457
-454
-452
-450
-449
-447
-446
-443
-443
-443
-442
-441
-443
-446
-448
-450
-454
-458
-462
-466
-471
-473
-475
-478
-482
-483
-488
-488
-490
-490
-492
-494
-494
-495
-498
-495
-495
-495
-496
-499
-497
-496
-497
-495
-495
-495
-495
-492
-493
-493
-493
-492
-493
-491
-491
-491
-492
-492
-492
-492
-493
-492
-492
-492
-492
-492
-495
-494
-494
-494
-495
-495
-495
-495
-496
-495
-495
-495
-495
-496
-494
-495
-492
-491
-490
-489
-489
-487
-486
-485
-483
-481
-475
-475
-474
-475
-475
-477
-478
-481
-485
-489
-493
-495
-497
-499
-500
-502
-502
-502
-502
-502
-503
-502
-503
-502
-502
-502
-502
-502
-502
-504
-509
-514
-507
-490
-463
-426
-380
-335
-299
-284
-292
-317
-355
-396
-433
-457
-473
-483
-492
-494
-495
-495
-496
-497
-498
-498
-498
-499
-499
-497
-497
-496
-496
-496
-495
-496
-494
-492
-492
-493
-492
-489
-490
-490
-489
-486
-486
-485
-488
-485
-485
-484
-484
-481
-479
-478
-477
-474
-471
-468
-467
-464
-462
-458
-456
-453
-451
-450
-449
-447
-446
-446
-443
-444
-445
-448
-450
-453
-457
-460
-463
-466
-471
-474
-478
-480
-484
-487
-488
-489
-495
-491
-493
-492
-492
-494
-492
-494
-495
-494
-494
-492
-492
-491
-491
-489
-489
-492
-491
-489
-489
-490
-490
-489
-490
-489
-491
-491
-491
-492
-491
-491
-492
-493
-494
-492
-494
-494
-495
-495
-495
-496
-498
-495
-496
-496
-496
-497
-495
-495
-495
-494
-492
-491
-492
-491
-490
-490
-488
-481
-477
-474
-473
-474
-473
-474
-474
-474
-478
-483
-487
-489
-492
-495
-498
-495
-496
-495
-497
-499
-500
-500
-500
-499
-497
-496
-497
-499
-499
-502
-502
-507
-508
-497
-478
-447
-410
-366
-326
-299
-295
-310
-341
-382
-423
-452
-468
-478
-488
-492
-496
-495
-497
-499
-500
-502
-502
-501
-502
-499
-500
-499
-500
-499
-498
-498
-498
-497
-495
-494
-494
-495
-492
-493
-492
-489
-491
-488
-488
-487
-487
-486
-484
-483
-481
-478
-477
-473
-473
-471
-471
-466
-464
-463
-460
-457
-455
-453
-453
-450
-450
-450
-450
-449
-449
-450
-453
-454
-459
-464
-468
-471
-475
-478
-479
-483
-487
-489
-492
-491
-492
-494
-496
-497
-497
-495
-496
-495
-498
-497
-498
-496
-497
-496
-496
-495
-495
-495
-495
-495
-495
-494
-494
-493
-495
-495
-493
-494
-493
-494
-493
-494
-494
-495
-495
-495
-496
-495
-496
-495
-497
-495
-495
-494
-494
-498
-496
-495
-495
-495
-496
-495
-494
-492
-492
-491
-492
-490
-489
-488
-485
-481
-478
-474
-474
-474
-475
-475
-478
-483
-485
-489
-492
-494
-497
-499
-499
-499
-499
-500
-502
-503
-506
-503
-502
-502
-502
-505
-506
-506
-508
-511
-514
-506
-489
-463
-426
-379
-334
-302
-293
-302
-330
-371
-418
-457
-479
-491
-497
-502
-506
-506
-505
-505
-504
-504
-504
-504
-502
-502
-503
-504
-503
-506
-506
-504
-503
-500
-499
-499
-497
-497
-495
-494
-494
-493
-493
-492
-492
-491
-489
-488
-485
-485
-481
-481
-481
-481
-479
-477
-474
-471
-468
-464
-457
-455
-454
-453
-454
-452
-450
-449
-447
-446
-447
-447
-450
-451
-454
-459
-464
-471
-472
-474
-478
-480
-485
-486
-490
-492
-495
-496
-496
-495
-497
-497
-499
-498
-499
-499
-497
-495
-495
-496
-497
-497
-495
-495
-495
-495
-495
-495
-495
-495
-498
-498
-497
-495
-495
-495
-497
-497
-499
-503
-501
-498
-498
-499
-502
-502
-502
-502
-501
-499
-497
-495
-494
-495
-496
-497
-496
-494
-489
-485
-481
-478
-478
-478
-479
-479
-482
-487
-491
-494
-497
-502
-502
-504
-504
-506
-504
-505
-506
-506
-507
-505
-506
-506
-506
-506
-506
-505
-506
-511
-516
-513
-497
-471
-434
-394
-351
-316
-295
-298
-317
-352
-395
-443
-481
-500
-506
-509
-510
-511
-513
-510
-510
-511
-509
-508
-508
-506
-503
-502
-501
-502
-504
-502
-502
-500
-498
-496
-498
-495
-495
-493
-493
-493
-490
-488
-487
-486
-485
-483
-481
-477
-475
-474
-475
-474
-472
-470
-467
-463
-460
-458
-456
-453
-451
-450
-448
-446
-445
-445
-446
-446
-446
-449
-452
-453
-458
-462
-466
-470
-477
-478
-483
-485
-488
-492
-492
-494
-496
-497
-498
-498
-499
-499
-500
-499
-499
-498
-500
-498
-499
-497
-496
-499
-498
-496
-497
-497
-498
-500
-499
-499
-500
-500
-499
-499
-497
-496
-496
-495
-497
-499
-497
-499
-500
-502
-503
-505
-502
-502
-500
-500
-502
-500
-500
-500
-499
-499
-497
-495
-494
-493
-493
-491
-488
-484
-481
-477
-478
-477
-476
-475
-478
-481
-487
-492
-495
-497
-499
-501
-502
-502
-504
-505
-505
-505
-506
-506
-506
-508
-506
-506
-506
-506
-509
-511
-514
-514
-503
-483
-449
-404
-354
-309
-280
-275
-294
-329
-376
-422
-454
-474
-488
-495
-500
-503
-504
-505
-507
-508
-508
-508
-509
-508
-507
-508
-508
-507
-506
-505
-503
-504
-501
-502
-500
-499
-499
-495
-494
-494
-492
-492
-490
-489
-488
-489
-488
-486
-482
-482
-479
-477
-478
-475
-473
-471
-467
-464
-462
-460
-458
-458
-456
-453
-453
-452
-450
-449
-451
-454
-456
-457
-460
-462
-465
-467
-472
-475
-481
-480
-481
-484
-486
-492
-491
-494
-496
-495
-495
-496
-496
-495
-496
-495
-495
-494
-494
-494
-493
-492
-494
-495
-494
-494
-493
-492
-491
-491
-491
-494
-494
-495
-494
-492
-494
-495
-495
-496
-497
-499
-501
-499
-499
-497
-497
-499
-498
-498
-500
-499
-499
-499
-498
-496
-495
-495
-494
-494
-494
-492
-490
-487
-482
-478
-478
-477
-478
-478
-478
-481
-483
-488
-493
-495
-499
-502
-505
-505
-506
-506
-506
-508
-509
-508
-510
-508
-509
-509
-506
-508
-508
-508
-512
-516
-519
-513
-494
-464
-425
-376
-329
-295
-285
-301
-337
-383
-425
-457
-474
-485
-494
-499
-502
-502
-505
-506
-507
-508
-509
-508
-506
-508
-506
-505
-505
-505
-505
-503
-503
-502
-500
-499
-497
-499
-500
-497
-496
-495
-494
-494
-492
-492
-490
-489
-488
-487
-486
-483
-481
-481
-478
-477
-475
-473
-471
-469
-469
-467
-466
-465
-463
-462
-462
-460
-460
-458
-459
-461
-463
-466
-468
-474
-473
-475
-477
-481
-487
-488
-491
-491
-493
-495
-495
-495
-497
-496
-499
-499
-498
-499
-498
-499
-497
-498
-497
-497
-497
-496
-496
-495
-495
-495
-496
-499
-495
-496
-496
-497
-496
-495
-496
-497
-499
-498
-499
-499
-497
-496
-500
-499
-499
-499
-501
-502
-500
-501
-502
-501
-500
-502
-502
-500
-497
-495
-495
-495
-495
-495
-493
-489
-485
-483
-479
-478
-477
-477
-478
-478
-481
-487
-492
-495
-498
-500
-503
-503
-503
-506
-505
-505
-506
-506
-506
-506
-506
-509
-506
-507
-506
-508
-510
-515
-517
-509
-492
-466
-432
-388
-340
-306
-296
-307
-334
-376
-420
-458
-481
-491
-500
-506
-509
-508
-506
-508
-507
-508
-509
-509
-509
-507
-506
-506
-509
-506
-506
-505
-506
-506
-503
-502
-500
-498
-497
-495
-494
-494
-494
-494
-492
-489
-488
-487
-485
-485
-483
-482
-481
-478
-479
-477
-476
-472
-468
-466
-464
-458
-457
-456
-453
-454
-453
-452
-452
-449
-450
-453
-454
-458
-460
-462
-467
-469
-472
-475
-482
-484
-487
-491
-492
-495
-497
-497
-498
-499
-499
-499
-498
-499
-499
-499
-500
-502
-502
-502
-503
-503
-503
-502
-502
-502
-502
-502
-502
-502
-501
-502
-502
-504
-506
-506
-507
-509
-509
-508
-509
-509
-511
-509
-509
-510
-509
-511
-510
-511
-509
-508
-508
-508
-507
-506
-506
-504
-502
-499
-495
-492
-491
-491
-490
-489
-491
-495
-499
-504
-506
-509
-513
-514
-514
-516
-516
-517
-518
-520
-521
-522
-520
-521
-523
-520
-520
-520
-520
-524
-528
-530
-523
-505
-478
-443
-401
-359
-326
-308
-313
-332
-367
-412
-462
-499
-517
-524
-527
-528
-529
-528
-528
-527
-524
-521
-520
-520
-519
-520
-519
-516
-517
-517
-516
-514
-515
-510
-510
-509
-508
-509
-506
-505
-503
-502
-502
-499
-499
-496
-494
-492
-491
-491
-490
-488
-481
-479
-478
-473
-471
-468
-465
-462
-460
-458
-457
-454
-454
-454
-455
-454
-454
-456
-459
-461
-464
-467
-471
-474
-478
-483
-488
-491
-491
-492
-495
-495
-499
-499
-500
-501
-500
-502
-502
-502
-503
-502
-502
-502
-503
-503
-502
-503
-503
-502
-502
-502
-502
-502
-506
-504
-503
-503
-503
-503
-504
-503
-503
-503
-505
-506
-506
-505
-505
-508
-506
-506
-506
-506
-506
-506
-507
-509
-512
-513
-513
-512
-508
-500
-492
-486
-478
-471
-461
-446
-415
-375
-331
-284
-232
-184
-148
-123
-116
-116
-127
-146
-154
-164
-171
-179
-193
-204
-227
-255
-285
-316
-354
-394
-430
-462
-494
-515
-532
-542
-550
-557
-562
-567
-571
-574
-576
-578
-581
-583
-587
-590
-593
-597
-600
-603
-606
-608
-614
-618
-623
-628
-631
-632
-641
-645
-651
-654
-658
-664
-667
-670
-672
-674
-674
-674
-674
-671
-669
-660
-655
-648
-639
-629
-620
-609
-597
-586
-572
-561
-550
-541
-532
-524
-518
-514
-510
-508
-509
-508
-506
-506
-508
-509
-510
-510
-513
-513
-513
-514
-514
-514
-516
-516
-516
-515
-517
-517
-517
-517
-520
-519
-518
-517
-518
-518
-516
-517
-516
-516
-516
-516
-517
-516
-516
-516
-516
-518
-518
-517
-516
-516
-517
-516
-516
-516
-516
-516
-516
-514
-514
-516
-516
-516
-516
-516
-516
-516
-516
-515
-513
-514
-518
-516
-516
-516
-515
-518
-516
-515
-514
-512
-510
-511
-510
-511
-509
-508
-508
-506
-503
-497
-493
-491
-493
-493
-493
-491
-491
-493
-497
-500
-504
-508
-509
-511
-513
-514
-516
-514
-516
-515
-514
-514
-516
-516
-517
-517
-517
-518
-516
-517
-520
-524
-520
-503
-474
-432
-383
-330
-294
-281
-296
-329
-376
-422
-457
-478
-491
-499
-506
-508
-510
-510
-513
-513
-515
-514
-514
-514
-515
-513
-513
-512
-511
-512
-510
-511
-509
-508
-507
-509
-506
-504
-503
-503
-503
-502
-501
-499
-497
-494
-493
-492
-492
-493
-492
-491
-488
-484
-483
-480
-478
-478
-475
-474
-472
-471
-468
-467
-468
-467
-467
-466
-466
-464
-465
-464
-467
-468
-471
-474
-476
-483
-481
-483
-487
-489
-495
-495
-497
-500
-502
-503
-505
-504
-506
-505
-506
-506
-507
-508
-508
-508
-508
-507
-506
-508
-507
-507
-509
-511
-513
-510
-511
-513
-510
-508
-509
-509
-510
-511
-510
-511
-510
-509
-512
-512
-513
-513
-515
-513
-512
-509
-509
-510
-509
-508
-506
-504
-501
-497
-492
-491
-491
-489
-488
-490
-491
-494
-498
-502
-506
-512
-514
-516
-516
-517
-517
-517
-517
-516
-516
-517
-516
-516
-518
-518
-520
-520
-520
-520
-527
-527
-527
-516
-496
-467
-425
-378
-334
-307
-302
-318
-351
-393
-435
-467
-488
-500
-509
-513
-514
-514
-516
-516
-516
-516
-518
-517
-516
-514
-514
-514
-513
-514
-513
-512
-512
-509
-509
-509
-506
-505
-506
-503
-503
-502
-502
-503
-502
-499
-497
-496
-496
-494
-493
-491
-489
-490
-488
-485
-483
-478
-475
-474
-473
-471
-471
-467
-467
-466
-466
-464
-465
-464
-467
-466
-466
-467
-471
-475
-478
-483
-486
-488
-492
-494
-496
-498
-500
-505
-505
-506
-508
-508
-509
-508
-509
-509
-508
-508
-508
-507
-506
-506
-508
-508
-506
-506
-507
-506
-506
-506
-505
-505
-506
-506
-506
-506
-507
-506
-506
-506
-506
-505
-506
-505
-503
-506
-506
-505
-504
-506
-504
-503
-502
-502
-502
-497
-493
-487
-483
-483
-483
-483
-484
-485
-490
-494
-498
-502
-504
-506
-509
-511
-510
-509
-510
-511
-512
-513
-513
-513
-514
-514
-514
-513
-513
-513
-514
-517
-521
-520
-511
-489
-458
-418
-372
-329
-303
-303
-323
-356
-397
-443
-483
-506
-517
-520
-522
-523
-521
-520
-518
-517
-516
-514
-513
-512
-513
-512
-510
-509
-507
-506
-505
-504
-503
-502
-500
-500
-499
-499
-499
-499
-499
-499
-497
-496
-494
-492
-491
-486
-484
-483
-481
-480
-478
-474
-472
-471
-469
-465
-463
-461
-458
-455
-453
-453
-453
-453
-452
-450
-450
-452
-453
-457
-459
-463
-467
-471
-474
-478
-481
-485
-488
-489
-492
-494
-495
-495
-496
-497
-500
-499
-500
-499
-499
-501
-498
-495
-497
-498
-498
-497
-496
-497
-497
-497
-497
-496
-496
-495
-495
-495
-496
-496
-497
-498
-498
-498
-498
-497
-497
-497
-499
-496
-496
-495
-495
-493
-493
-492
-492
-489
-483
-481
-481
-481
-481
-483
-482
-486
-489
-495
-500
-502
-506
-506
-506
-508
-509
-511
-511
-512
-510
-510
-513
-513
-513
-512
-512
-510
-512
-514
-520
-523
-520
-502
-474
-435
-387
-338
-301
-285
-296
-327
-374
-422
-464
-488
-499
-508
-510
-513
-513
-513
-515
-512
-512
-509
-510
-509
-509
-509
-508
-507
-506
-505
-504
-502
-500
-499
-498
-497
-494
-495
-494
-492
-492
-491
-489
-488
-488
-485
-484
-480
-479
-478
-477
-475
-473
-469
-468
-461
-462
-458
-457
-453
-449
-451
-450
-449
-447
-446
-447
-447
-450
-450
-453
-457
-460
-464
-468
-474
-477
-479
-482
-486
-488
-489
-490
-492
-495
-498
-499
-502
-499
-499
-500
-502
-500
-502
-502
-500
-500
-499
-498
-497
-497
-497
-500
-497
-497
-497
-498
-499
-496
-497
-496
-495
-496
-496
-498
-499
-497
-499
-498
-499
-499
-499
-498
-497
-497
-495
-495
-495
-496
-494
-493
-492
-490
-487
-484
-479
-478
-478
-478
-479
-479
-483
-485
-489
-496
-498
-499
-502
-502
-506
-504
-505
-506
-506
-506
-506
-508
-509
-509
-509
-509
-509
-508
-508
-512
-517
-517
-505
-478
-440
-395
-341
-295
-271
-274
-301
-346
-393
-433
-461
-478
-489
-497
-502
-504
-506
-508
-508
-509
-511
-513
-512
-509
-509
-509
-508
-508
-508
-506
-506
-506
-506
-506
-505
-502
-500
-499
-499
-500
-499
-499
-498
-495
-495
-493
-492
-491
-490
-491
-489
-487
-484
-483
-478
-476
-474
-473
-472
-471
-468
-468
-467
-466
-467
-463
-460
-463
-462
-460
-464
-468
-471
-473
-477
-478
-481
-485
-489
-492
-494
-496
-499
-499
-502
-502
-504
-505
-505
-504
-505
-505
-503
-504
-502
-503
-503
-504
-505
-505
-504
-503
-503
-502
-503
-503
-505
-502
-502
-502
-502
-505
-504
-504
-504
-504
-503
-503
-503
-503
-505
-506
-505
-506
-506
-506
-506
-506
-509
-508
-509
-509
-509
-509
-506
-506
-506
-506
-506
-502
-499
-495
-492
-491
-491
-491
-491
-490
-489
-492
-495
-500
-506
-510
-511
-513
-514
-514
-516
-515
-516
-516
-516
-518
-518
-520
-519
-518
-517
-516
-519
-522
-527
-527
-516
-495
-463
-422
-374
-327
-299
-295
-316
-355
-397
-437
-463
-481
-493
-503
-508
-512
-513
-513
-514
-518
-516
-516
-516
-516
-516
-516
-514
-515
-514
-513
-513
-511
-510
-510
-509
-509
-508
-506
-505
-504
-505
-504
-503
-502
-502
-500
-499
-497
-496
-495
-495
-492
-491
-489
-486
-485
-484
-482
-479
-479
-477
-478
-474
-474
-472
-473
-473
-471
-471
-471
-472
-475
-477
-481
-481
-485
-489
-493
-495
-497
-500
-502
-504
-506
-508
-509
-509
-510
-510
-512
-513
-512
-512
-514
-513
-513
-512
-513
-513
-513
-515
-514
-514
-512
-513
-513
-513
-513
-516
-513
-513
-512
-512
-516
-514
-515
-514
-514
-516
-516
-517
-518
-517
-518
-517
-517
-516
-513
-514
-516
-517
-517
-517
-516
-517
-519
-520
-518
-517
-520
-519
-517
-516
-515
-514
-514
-516
-516
-514
-513
-514
-513
-513
-509
-506
-503
-498
-495
-494
-494
-495
-497
-502
-504
-508
-513
-514
-518
-520
-522
-521
-522
-521
-522
-523
-523
-521
-520
-520
-519
-519
-518
-517
-523
-527
-532
-527
-511
-488
-454
-413
-369
-329
-313
-313
-332
-367
-409
-457
-494
-512
-520
-523
-526
-527
-528
-527
-527
-527
-527
-524
-523
-521
-523
-522
-520
-520
-520
-520
-520
-517
-517
-514
-513
-512
-510
-510
-507
-508
-506
-506
-506
-506
-504
-502
-500
-500
-498
-495
-495
-490
-488
-486
-481
-484
-478
-478
-476
-473
-471
-469
-467
-467
-466
-464
-464
-465
-466
-464
-466
-468
-471
-474
-478
-481
-485
-490
-495
-499
-502
-504
-505
-506
-506
-506
-508
-509
-510
-511
-509
-509
-513
-510
-512
-510
-512
-513
-511
-512
-513
-512
-513
-513
-513
-513
-513
-512
-513
-513
-513
-513
-513
-513
-513
-514
-514
-513
-513
-514
-516
-516
-516
-516
-516
-516
-516
-516
-516
-514
-516
-515
-514
-514
-514
-514
-515
-516
-516
-517
-515
-514
-513
-514
-514
-513
-513
-509
-509
-509
-509
-508
-506
-504
-500
-497
-493
-491
-490
-492
-493
-492
-495
-499
-502
-506
-509
-512
-513
-514
-516
-516
-519
-520
-520
-520
-520
-520
-521
-520
-521
-521
-519
-520
-521
-525
-531
-530
-518
-492
-453
-401
-351
-312
-298
-309
-340
-381
-431
-474
-500
-512
-518
-522
-525
-525
-524
-522
-522
-520
-519
-519
-519
-516
-517
-518
-517
-516
-516
-515
-513
-511
-509
-509
-509
-508
-506
-506
-508
-503
-500
-498
-497
-499
-496
-495
-493
-492
-491
-489
-487
-483
-479
-478
-477
-472
-471
-467
-464
-462
-460
-460
-460
-460
-459
-458
-458
-458
-458
-458
-460
-464
-468
-471
-474
-477
-479
-483
-488
-491
-496
-496
-498
-499
-502
-505
-504
-505
-505
-506
-506
-506
-506
-506
-508
-508
-509
-509
-509
-508
-506
-508
-509
-508
-506
-506
-506
-506
-506
-506
-506
-505
-506
-506
-506
-507
-508
-506
-507
-506
-506
-508
-509
-509
-509
-509
-509
-511
-507
-508
-508
-508
-509
-508
-507
-508
-509
-508
-509
-508
-510
-509
-509
-508
-507
-508
-508
-508
-508
-508
-508
-508
-506
-507
-505
-505
-507
-507
-508
-505
-505
-504
-503
-502
-504
-500
-498
-492
-489
-490
-490
-489
-490
-490
-492
-492
-496
-500
-504
-506
-509
-512
-512
-513
-513
-513
-514
-514
-514
-514
-515
-513
-513
-512
-510
-511
-513
-517
-522
-520
-506
-478
-439
-390
-337
-296
-277
-279
-307
-347
-394
-433
-463
-479
-491
-499
-505
-505
-507
-508
-509
-509
-510
-509
-509
-509
-509
-508
-509
-508
-508
-507
-507
-508
-507
-505
-504
-503
-502
-500
-500
-497
-498
-497
-497
-496
-494
-492
-490
-491
-490
-488
-486
-487
-481
-481
-478
-478
-478
-473
-472
-468
-467
-464
-463
-460
-460
-458
-457
-457
-457
-458
-457
-458
-460
-461
-466
-471
-472
-477
-479
-484
-488
-489
-492
-495
-496
-499
-500
-502
-503
-505
-504
-504
-506
-506
-506
-506
-507
-506
-509
-508
-506
-505
-505
-504
-503
-503
-503
-502
-502
-500
-500
-502
-502
-500
-500
-502
-502
-502
-502
-502
-502
-503
-503
-502
-502
-502
-501
-502
-502
-503
-503
-502
-504
-505
-505
-504
-505
-506
-505
-503
-506
-505
-505
-504
-504
-505
-503
-503
-503
-502
-502
-502
-503
-503
-506
-508
-506
-505
-504
-504
-502
-503
-504
-502
-502
-502
-502
-500
-500
-500
-499
-498
-493
-489
-485
-481
-483
-483
-485
-485
-485
-486
-495
-496
-500
-502
-504
-506
-506
-506
-507
-508
-509
-509
-510
-509
-509
-509
-510
-511
-510
-509
-509
-512
-514
-516
-509
-492
-463
-424
-376
-329
-293
-279
-290
-316
-355
-399
-438
-466
-481
-492
-500
-502
-502
-504
-506
-506
-508
-510
-509
-510
-510
-508
-509
-508
-509
-508
-506
-506
-504
-503
-500
-502
-500
-501
-500
-499
-497
-495
-495
-494
-494
-492
-492
-490
-489
-486
-486
-486
-485
-483
-479
-477
-475
-474
-472
-469
-467
-466
-463
-458
-460
-458
-457
-455
-453
-454
-453
-455
-457
-458
-462
-462
-466
-468
-474
-477
-481
-483
-486
-487
-490
-489
-491
-492
-495
-497
-501
-502
-502
-502
-503
-504
-506
-505
-504
-503
-504
-505
-505
-503
-502
-503
-500
-501
-500
-500
-503
-500
-500
-500
-500
-500
-500
-499
-499
-500
-502
-502
-503
-503
-504
-502
-501
-502
-502
-503
-504
-506
-506
-505
-506
-505
-506
-508
-509
-508
-506
-505
-504
-506
-506
-505
-504
-503
-503
-503
-504
-505
-508
-506
-506
-504
-505
-505
-502
-502
-500
-499
-497
-493
-489
-485
-482
-483
-483
-483
-485
-488
-491
-495
-499
-502
-503
-503
-505
-506
-508
-508
-507
-508
-509
-509
-511
-513
-513
-512
-511
-509
-509
-511
-518
-519
-519
-508
-488
-456
-418
-373
-332
-307
-301
-313
-343
-382
-429
-470
-498
-510
-516
-517
-519
-518
-514
-512
-509
-509
-510
-509
-507
-508
-506
-506
-507
-506
-506
-505
-503
-502
-501
-500
-499
-499
-497
-495
-495
-493
-492
-492
-488
-488
-488
-485
-485
-483
-483
-481
-479
-477
-475
-471
-469
-467
-464
-461
-457
-456
-453
-450
-447
-446
-446
-443
-444
-443
-443
-443
-444
-446
-449
-453
-457
-462
-467
-469
-474
-478
-479
-481
-485
-489
-491
-494
-494
-494
-497
-495
-497
-497
-497
-499
-499
-499
-500
-498
-499
-498
-499
-499
-498
-499
-499
-499
-499
-497
-497
-497
-498
-499
-500
-499
-499
-497
-498
-499
-498
-499
-501
-500
-500
-500
-500
-503
-502
-500
-502
-502
-505
-502
-502
-502
-501
-502
-500
-500
-502
-503
-505
-505
-506
-503
-502
-500
-499
-499
-498
-495
-495
-495
-494
-491
-488
-483
-483
-485
-482
-484
-485
-485
-489
-493
-498
-500
-503
-503
-505
-506
-506
-508
-512
-511
-511
-509
-510
-511
-509
-509
-509
-509
-510
-510
-513
-517
-519
-510
-492
-462
-425
-381
-334
-297
-282
-292
-323
-366
-415
-457
-484
-495
-500
-506
-506
-507
-506
-508
-508
-508
-508
-508
-506
-505
-506
-504
-504
-503
-503
-503
-500
-499
-500
-501
-500
-497
-495
-495
-495
-492
-492
-490
-489
-489
-487
-487
-485
-483
-481
-479
-475
-474
-473
-471
-468
-466
-463
-460
-459
-456
-451
-452
-450
-449
-448
-446
-444
-447
-445
-446
-447
-449
-457
-459
-464
-466
-472
-476
-479
-481
-485
-490
-492
-494
-496
-498
-499
-500
-500
-502
-502
-502
-502
-502
-502
-502
-502
-502
-506
-502
-502
-500
-502
-502
-501
-502
-502
-502
-500
-500
-500
-500
-500
-503
-502
-502
-503
-502
-503
-502
-502
-500
-499
-500
-500
-502
-502
-502
-501
-502
-500
-500
-500
-501
-502
-503
-503
-503
-503
-504
-504
-503
-504
-503
-503
-502
-502
-502
-500
-502
-502
-502
-500
-499
-499
-500
-498
-496
-496
-495
-495
-489
-485
-481
-481
-481
-481
-481
-481
-483
-488
-491
-495
-499
-501
-502
-503
-506
-506
-506
-506
-509
-508
-507
-506
-506
-508
-508
-506
-508
-504
-508
-513
-519
-519
-506
-484
-446
-406
-354
-308
-285
-288
-316
-355
-397
-434
-458
-473
-485
-493
-499
-502
-502
-502
-504
-507
-509
-510
-509
-509
-508
-508
-508
-506
-506
-506
-505
-505
-504
-502
-502
-501
-500
-499
-499
-499
-499
-497
-495
-495
-495
-493
-492
-493
-490
-488
-485
-485
-484
-479
-478
-477
-475
-473
-471
-467
-466
-465
-463
-462
-460
-460
-458
-457
-457
-458
-459
-460
-463
-463
-463
-465
-469
-475
-480
-485
-487
-489
-491
-493
-494
-498
-499
-500
-502
-505
-503
-503
-502
-503
-504
-504
-502
-502
-502
-503
-503
-504
-504
-503
-504
-503
-503
-504
-503
-503
-503
-504
-502
-502
-501
-500
-502
-502
-502
-504
-505
-506
-505
-504
-504
-505
-505
-506
-506
-506
-505
-504
-504
-504
-506
-506
-509
-506
-506
-505
-506
-508
-506
-506
-506
-506
-506
-506
-506
-506
-505
-504
-504
-502
-502
-501
-502
-502
-502
-499
-497
-492
-488
-486
-486
-485
-483
-484
-485
-490
-494
-499
-502
-506
-506
-508
-508
-510
-513
-512
-512
-512
-513
-514
-512
-511
-511
-509
-509
-509
-509
-510
-514
-520
-517
-506
-486
-457
-419
-376
-334
-307
-301
-310
-337
-373
-415
-453
-475
-488
-496
-502
-506
-505
-505
-506
-509
-513
-514
-513
-514
-510
-511
-509
-508
-509
-506
-506
-506
-506
-506
-503
-504
-502
-502
-501
-499
-499
-499
-500
-499
-500
-499
-496
-494
-493
-491
-490
-489
-488
-485
-485
-485
-481
-478
-475
-473
-472
-471
-469
-467
-464
-461
-460
-459
-457
-457
-455
-458
-460
-464
-468
-474
-477
-479
-485
-488
-492
-494
-496
-497
-499
-502
-504
-506
-506
-505
-506
-508
-509
-508
-507
-508
-509
-508
-509
-508
-507
-508
-507
-508
-508
-508
-508
-509
-509
-506
-507
-506
-508
-505
-506
-504
-506
-508
-506
-506
-506
-506
-506
-506
-506
-506
-508
-508
-506
-506
-507
-508
-508
-509
-507
-506
-508
-508
-508
-509
-509
-508
-508
-506
-507
-506
-505
-503
-502
-502
-502
-502
-499
-495
-491
-486
-485
-483
-485
-488
-488
-491
-494
-499
-503
-504
-507
-509
-509
-509
-510
-510
-510
-512
-511
-512
-512
-511
-514
-514
-514
-514
-513
-514
-517
-522
-524
-516
-498
-468
-430
-382
-339
-309
-299
-312
-341
-376
-421
-464
-495
-514
-516
-519
-520
-520
-521
-518
-516
-516
-514
-513
-511
-509
-509
-509
-509
-509
-509
-508
-507
-503
-503
-503
-503
-503
-500
-499
-497
-497
-494
-495
-494
-492
-491
-489
-488
-485
-485
-481
-481
-478
-477
-478
-473
-471
-467
-464
-460
-459
-457
-453
-450
-446
-446
-446
-446
-446
-446
-446
-447
-450
-453
-458
-460
-465
-469
-473
-477
-480
-481
-485
-489
-492
-495
-499
-498
-499
-500
-502
-503
-503
-503
-502
-502
-502
-500
-502
-502
-502
-506
-502
-502
-502
-501
-503
-504
-505
-504
-504
-503
-503
-504
-503
-504
-503
-504
-503
-504
-505
-506
-506
-506
-506
-507
-505
-506
-505
-505
-505
-506
-506
-506
-508
-508
-508
-506
-508
-508
-506
-504
-504
-506
-502
-501
-500
-499
-499
-494
-491
-485
-483
-482
-483
-483
-483
-485
-488
-492
-495
-500
-502
-504
-508
-509
-509
-509
-510
-512
-513
-513
-513
-513
-514
-512
-513
-513
-512
-513
-513
-517
-522
-525
-516
-500
-468
-427
-376
-327
-290
-279
-292
-323
-366
-415
-453
-477
-489
-498
-505
-509
-509
-508
-508
-508
-509
-511
-512
-513
-512
-510
-511
-510
-508
-506
-506
-507
-506
-506
-504
-503
-502
-500
-500
-499
-497
-496
-495
-494
-493
-492
-493
-488
-487
-485
-481
-481
-478
-477
-475
-473
-472
-467
-464
-463
-460
-458
-455
-453
-453
-450
-449
-447
-446
-447
-448
-450
-450
-453
-455
-460
-464
-467
-471
-474
-478
-481
-486
-487
-489
-492
-492
-494
-498
-497
-498
-497
-499
-502
-500
-500
-499
-499
-500
-501
-500
-500
-500
-500
-500
-499
-499
-498
-497
-497
-499
-499
-499
-498
-499
-498
-499
-500
-499
-500
-499
-501
-500
-499
-499
-498
-498
-500
-500
-500
-503
-502
-502
-502
-500
-502
-500
-501
-500
-501
-502
-502
-502
-502
-502
-502
-502
-500
-499
-498
-495
-495
-496
-495
-492
-488
-483
-480
-478
-481
-480
-481
-483
-484
-486
-490
-495
-499
-502
-503
-506
-506
-506
-508
-508
-507
-509
-512
-511
-510
-509
-509
-510
-509
-509
-511
-513
-517
-520
-516
-503
-478
-443
-401
-351
-308
-285
-288
-313
-352
-394
-432
-458
-475
-489
-498
-504
-506
-508
-509
-513
-516
-515
-514
-512
-513
-512
-509
-511
-514
-512
-512
-509
-509
-509
-506
-505
-506
-506
-505
-503
-502
-500
-500
-497
-494
-495
-495
-494
-493
-492
-492
-489
-491
-490
-489
-486
-481
-479
-477
-475
-475
-472
-470
-466
-466
-466
-464
-463
-463
-460
-460
-460
-463
-464
-466
-471
-472
-475
-478
-483
-487
-488
-491
-492
-496
-499
-500
-502
-501
-502
-502
-503
-502
-502
-503
-503
-503
-502
-502
-502
-500
-502
-500
-500
-499
-497
-498
-499
-498
-499
-501
-502
-500
-500
-499
-497
-497
-500
-499
-498
-500
-500
-502
-500
-499
-499
-500
-500
-500
-502
-502
-502
-503
-502
-503
-502
-504
-502
-502
-502
-503
-505
-504
-503
-504
-504
-504
-504
-505
-504
-503
-502
-500
-500
-500
-502
-501
-499
-498
-495
-488
-487
-485
-485
-488
-487
-488
-489
-495
-497
-500
-503
-506
-506
-508
-508
-509
-510
-511
-511
-512
-512
-512
-513
-513
-513
-513
-513
-513
-514
-520
-525
-523
-510
-488
-457
-415
-369
-326
-298
-295
-312
-341
-379
-422
-457
-481
-491
-500
-506
-510
-512
-510
-510
-513
-514
-513
-513
-512
-511
-512
-510
-510
-508
-509
-509
-509
-509
-508
-508
-506
-504
-503
-502
-501
-502
-501
-500
-498
-497
-499
-497
-498
-495
-495
-494
-493
-491
-492
-486
-483
-479
-477
-477
-473
-472
-471
-467
-467
-464
-463
-462
-460
-460
-460
-460
-460
-461
-464
-464
-467
-471
-475
-480
-485
-488
-491
-493
-497
-500
-501
-502
-504
-505
-506
-506
-507
-508
-506
-508
-509
-508
-506
-506
-506
-508
-505
-505
-505
-504
-502
-502
-505
-506
-506
-508
-509
-506
-506
-504
-503
-503
-503
-503
-502
-503
-505
-505
-506
-506
-504
-505
-505
-503
-506
-506
-508
-507
-509
-508
-508
-508
-506
-509
-509
-508
-509
-510
-508
-506
-504
-502
-506
-504
-504
-502
-500
-498
-497
-493
-489
-485
-485
-484
-485
-486
-491
-494
-498
-502
-505
-508
-509
-511
-510
-512
-512
-511
-513
-513
-514
-513
-510
-512
-510
-513
-513
-513
-514
-520
-521
-517
-506
-485
-453
-417
-373
-332
-306
-303
-319
-348
-388
-435
-478
-504
-515
-517
-519
-520
-521
-521
-519
-517
-516
-514
-513
-509
-510
-508
-508
-506
-506
-505
-503
-502
-500
-500
-499
-499
-497
-496
-495
-494
-494
-492
-495
-491
-488
-487
-485
-485
-482
-480
-478
-475
-473
-471
-468
-466
-462
-459
-457
-453
-451
-450
-446
-446
-444
-443
-443
-443
-441
-441
-441
-443
-447
-452
-454
-458
-463
-467
-471
-473
-477
-483
-485
-488
-493
-491
-493
-494
-495
-497
-496
-496
-497
-496
-497
-498
-497
-498
-497
-495
-497
-497
-498
-499
-499
-499
-498
-497
-497
-497
-499
-499
-499
-498
-498
-499
-500
-502
-502
-503
-503
-503
-503
-503
-505
-505
-506
-503
-504
-503
-503
-505
-503
-503
-503
-506
-506
-506
-506
-505
-506
-506
-505
-504
-503
-502
-500
-500
-500
-499
-495
-491
-488
-485
-485
-485
-485
-485
-489
-489
-493
-496
-500
-503
-506
-508
-509
-511
-510
-514
-516
-516
-516
-520
-516
-516
-515
-517
-519
-517
-516
-516
-516
-521
-524
-522
-510
-486
-451
-408
-359
-316
-296
-302
-329
-369
-415
-454
-478
-491
-500
-506
-511
-511
-514
-514
-515
-515
-516
-516
-516
-516
-514
-514
-514
-516
-513
-516
-514
-513
-513
-509
-509
-508
-506
-506
-506
-505
-504
-502
-501
-499
-499
-497
-496
-494
-494
-493
-491
-488
-485
-483
-481
-479
-478
-475
-473
-471
-468
-466
-463
-461
-462
-462
-460
-461
-460
-457
-460
-463
-467
-469
-474
-477
-479
-484
-488
-491
-494
-497
-499
-502
-503
-503
-505
-505
-506
-506
-508
-509
-508
-508
-506
-506
-507
-506
-506
-505
-504
-506
-503
-505
-505
-504
-504
-505
-506
-507
-506
-508
-510
-513
-513
-509
-509
-502
-498
-489
-478
-456
-425
-377
-327
-276
-232
-197
-166
-144
-138
-141
-154
-169
-187
-197
-208
-216
-229
-245
-267
-292
-316
-343
-375
-406
-439
-466
-489
-507
-520
-528
-534
-534
-535
-536
-537
-541
-545
-545
-548
-552
-559
-564
-569
-574
-580
-584
-588
-592
-596
-600
-605
-611
-615
-620
-622
-626
-631
-635
-640
-643
-644
-645
-644
-645
-645
-642
-640
-636
-628
-623
-612
-605
-596
-586
-577
-568
-557
-547
-537
-527
-520
-514
-513
-511
-508
-505
-506
-506
-509
-511
-513
-514
-518
-519
-520
-520
-521
-522
-520
-523
-522
-523
-524
-524
-525
-523
-524
-524
-524
-523
-525
-523
-522
-522
-523
-523
-524
-523
-522
-521
-521
-522
-523
-520
-520
-522
-520
-520
-520
-520
-523
-520
-521
-522
-523
-522
-521
-520
-521
-520
-520
-519
-519
-519
-520
-520
-520
-520
-519
-519
-519
-520
-520
-519
-519
-519
-520
-519
-519
-518
-518
-516
-514
-516
-516
-516
-514
-518
-516
-516
-516
-515
-518
-514
-514
-513
-514
-514
-514
-514
-514
-514
-514
-514
-513
-514
-513
-513
-515
-514
-514
-514
-513
-512
-513
-513
-514
-514
-515
-516
-514
-514
-513
-513
-512
-513
-513
-513
-513
-513
-513
-513
-513
-513
-513
-509
-510
-510
-510
-510
-509
-508
-506
-502
-497
-494
-492
-492
-493
-492
-494
-497
-501
-505
-509
-513
-516
-517
-518
-519
-520
-519
-520
-520
-520
-520
-519
-521
-521
-521
-523
-527
-530
-529
-517
-495
-465
-424
-380
-334
-302
-292
-307
-338
-382
-430
-474
-499
-510
-516
-522
-527
-527
-527
-524
-523
-523
-523
-522
-520
-519
-519
-518
-518
-516
-516
-516
-515
-515
-516
-515
-514
-513
-511
-509
-509
-509
-509
-512
-509
-506
-504
-505
-509
-506
-505
-504
-502
-502
-500
-499
-497
-496
-495
-492
-491
-490
-486
-485
-483
-481
-479
-478
-475
-473
-471
-471
-471
-471
-472
-474
-474
-477
-478
-481
-485
-488
-491
-494
-496
-500
-502
-503
-506
-506
-508
-507
-509
-510
-512
-513
-513
-513
-510
-512
-513
-514
-514
-514
-513
-514
-514
-514
-513
-512
-509
-509
-509
-510
-509
-509
-511
-513
-514
-516
-515
-515
-514
-515
-516
-514
-513
-509
-508
-508
-509
-510
-512
-509
-509
-508
-505
-502
-495
-494
-493
-492
-493
-493
-495
-497
-502
-508
-512
-514
-516
-519
-520
-520
-520
-520
-522
-523
-523
-523
-521
-522
-520
-520
-520
-519
-520
-524
-527
-528
-527
-511
-485
-448
-399
-355
-321
-304
-312
-335
-374
-418
-464
-499
-518
-523
-525
-527
-527
-524
-522
-519
-518
-516
-514
-514
-514
-513
-511
-509
-509
-508
-508
-506
-506
-505
-504
-502
-500
-500
-499
-498
-498
-495
-494
-492
-490
-488
-485
-482
-481
-484
-480
-478
-477
-474
-473
-469
-466
-464
-461
-458
-456
-453
-450
-450
-450
-450
-450
-450
-449
-450
-449
-451
-457
-460
-464
-468
-473
-475
-480
-481
-487
-491
-495
-497
-499
-500
-502
-505
-506
-504
-504
-509
-508
-509
-508
-506
-508
-505
-505
-503
-503
-503
-502
-503
-502
-503
-503
-504
-503
-504
-504
-503
-503
-503
-502
-503
-503
-504
-504
-503
-502
-502
-502
-502
-502
-502
-501
-501
-499
-498
-497
-493
-490
-485
-483
-481
-481
-481
-485
-483
-485
-488
-494
-500
-504
-508
-508
-508
-509
-509
-511
-510
-512
-512
-512
-510
-509
-509
-509
-509
-510
-513
-513
-516
-520
-519
-508
-485
-452
-408
-357
-311
-284
-284
-309
-351
-396
-439
-469
-486
-497
-502
-505
-506
-508
-510
-509
-510
-510
-510
-509
-506
-506
-506
-506
-507
-507
-506
-505
-503
-502
-500
-499
-496
-496
-496
-496
-497
-495
-494
-492
-492
-490
-489
-488
-487
-485
-484
-483
-481
-478
-478
-478
-472
-471
-467
-464
-459
-459
-458
-457
-455
-453
-453
-452
-453
-452
-453
-454
-456
-458
-460
-464
-471
-476
-478
-481
-485
-492
-494
-495
-498
-497
-500
-502
-500
-502
-502
-502
-502
-502
-502
-502
-500
-500
-502
-503
-504
-502
-505
-503
-501
-500
-502
-502
-502
-500
-501
-499
-500
-500
-501
-499
-499
-498
-500
-502
-502
-503
-502
-502
-502
-502
-504
-503
-501
-500
-500
-500
-500
-499
-498
-495
-494
-490
-488
-485
-485
-483
-483
-485
-491
-492
-496
-500
-503
-506
-506
-508
-509
-510
-512
-512
-512
-512
-512
-512
-512
-512
-513
-510
-510
-509
-510
-514
-519
-522
-517
-502
-473
-435
-390
-341
-306
-285
-292
-320
-363
-410
-446
-468
-482
-494
-504
-505
-507
-509
-512
-515
-513
-514
-513
-513
-513
-512
-513
-510
-510
-511
-509
-508
-509
-508
-506
-508
-507
-506
-506
-504
-504
-502
-502
-499
-497
-497
-499
-499
-497
-495
-493
-492
-492
-489
-485
-485
-483
-479
-477
-473
-473
-474
-471
-469
-468
-465
-468
-467
-467
-467
-467
-469
-471
-474
-478
-483
-488
-492
-496
-499
-502
-503
-504
-505
-506
-508
-508
-508
-509
-509
-510
-509
-509
-509
-509
-508
-509
-508
-509
-509
-509
-509
-509
-511
-509
-508
-506
-506
-507
-505
-505
-505
-505
-506
-506
-508
-507
-508
-509
-508
-508
-509
-509
-509
-510
-509
-509
-511
-509
-509
-509
-509
-509
-506
-506
-506
-506
-504
-504
-504
-500
-498
-492
-488
-487
-488
-488
-487
-488
-492
-497
-499
-504
-507
-508
-510
-513
-513
-513
-513
-513
-512
-513
-514
-513
-513
-513
-513
-513
-516
-516
-516
-520
-522
-519
-503
-477
-440
-396
-350
-316
-303
-313
-334
-369
-410
-446
-471
-488
-499
-505
-509
-513
-512
-514
-515
-516
-517
-516
-516
-516
-516
-515
-515
-514
-514
-513
-513
-513
-512
-510
-509
-508
-508
-507
-506
-505
-504
-504
-503
-501
-500
-499
-499
-495
-495
-495
-495
-492
-490
-490
-488
-487
-485
-485
-480
-478
-477
-475
-475
-472
-472
-471
-470
-471
-469
-471
-472
-475
-477
-478
-483
-486
-489
-491
-495
-497
-502
-503
-505
-506
-508
-509
-509
-510
-512
-515
-513
-513
-513
-513
-513
-515
-516
-516
-514
-513
-514
-514
-513
-513
-514
-511
-510
-512
-512
-513
-513
-513
-510
-511
-509
-509
-510
-511
-513
-514
-514
-514
-514
-515
-516
-516
-514
-513
-513
-514
-516
-517
-517
-516
-517
-518
-517
-516
-514
-513
-513
-513
-511
-512
-512
-512
-514
-510
-509
-506
-502
-502
-495
-494
-492
-494
-495
-495
-497
-500
-505
-510
-513
-515
-514
-516
-514
-516
-516
-516
-517
-519
-520
-519
-517
-516
-517
-518
-517
-519
-524
-527
-522
-508
-484
-452
-410
-366
-327
-314
-319
-342
-376
-414
-460
-492
-509
-514
-517
-519
-520
-520
-517
-517
-515
-515
-514
-513
-513
-514
-514
-513
-513
-513
-511
-509
-509
-509
-508
-506
-506
-504
-502
-502
-500
-500
-497
-495
-493
-494
-494
-494
-493
-490
-488
-488
-483
-481
-478
-477
-477
-471
-467
-466
-463
-462
-461
-458
-458
-457
-454
-453
-454
-453
-455
-458
-460
-464
-467
-471
-474
-478
-481
-485
-488
-492
-494
-495
-497
-498
-499
-500
-502
-502
-502
-502
-502
-505
-503
-504
-504
-504
-503
-500
-500
-500
-500
-500
-500
-501
-500
-500
-502
-501
-499
-500
-502
-504
-503
-503
-504
-505
-506
-507
-508
-506
-506
-506
-508
-509
-506
-506
-505
-506
-505
-506
-508
-509
-511
-511
-509
-509
-508
-507
-509
-507
-508
-508
-508
-506
-503
-502
-500
-500
-500
-500
-499
-495
-489
-485
-483
-484
-485
-488
-488
-490
-492
-497
-501
-503
-506
-507
-508
-509
-508
-509
-510
-513
-514
-513
-514
-513
-514
-513
-513
-513
-514
-516
-520
-524
-523
-513
-489
-457
-411
-364
-323
-301
-302
-326
-366
-415
-458
-488
-502
-508
-513
-516
-515
-514
-514
-513
-515
-516
-515
-513
-513
-512
-509
-509
-508
-508
-506
-505
-504
-504
-503
-504
-508
-504
-503
-501
-499
-500
-495
-495
-495
-493
-492
-488
-487
-487
-486
-482
-479
-478
-474
-473
-471
-469
-465
-463
-459
-457
-454
-454
-454
-452
-450
-450
-450
-452
-452
-453
-456
-460
-464
-467
-471
-475
-478
-482
-484
-488
-492
-498
-498
-500
-500
-500
-502
-502
-502
-502
-504
-505
-505
-505
-506
-506
-506
-506
-507
-506
-503
-501
-502
-502
-502
-502
-502
-502
-502
-501
-499
-500
-499
-499
-499
-498
-497
-499
-499
-502
-503
-506
-508
-513
-510
-509
-508
-504
-503
-496
-490
-481
-470
-443
-404
-355
-302
-254
-208
-174
-149
-133
-128
-133
-147
-161
-173
-184
-192
-200
-209
-226
-246
-274
-302
-332
-362
-397
-434
-464
-491
-508
-520
-528
-533
-539
-542
-547
-550
-553
-558
-559
-559
-562
-564
-566
-570
-573
-578
-580
-583
-587
-593
-597
-600
-604
-608
-613
-620
-625
-631
-635
-639
-643
-645
-646
-648
-648
-647
-645
-643
-638
-631
-627
-618
-611
-601
-590
-578
-569
-558
-547
-537
-525
-517
-513
-506
-503
-496
-494
-494
-495
-497
-500
-502
-502
-504
-508
-508
-510
-510
-513
-513
-515
-516
-516
-516
-515
-516
-516
-516
-516
-515
-514
-513
-513
-514
-513
-513
-513
-513
-513
-512
-513
-514
-512
-511
-511
-510
-513
-510
-513
-512
-511
-509
-509
-508
-509
-508
-508
-509
-509
-508
-509
-508
-508
-508
-507
-508
-508
-508
-506
-508
-508
-507
-507
-508
-506
-506
-507
-506
-506
-506
-506
-506
-507
-508
-506
-506
-506
-506
-509
-508
-507
-506
-506
-505
-504
-504
-504
-504
-505
-505
-506
-504
-506
-504
-504
-505
-505
-503
-502
-502
-503
-503
-503
-502
-502
-503
-503
-505
-504
-504
-503
-502
-502
-502
-505
-505
-504
-504
-505
-505
-508
-505
-504
-503
-504
-506
-505
-502
-502
-502
-503
-502
-503
-502
-502
-502
-502
-502
-501
-502
-502
-503
-502
-502
-500
-499
-500
-502
-500
-500
-498
-497
-496
-495
-496
-495
-494
-491
-487
-483
-478
-478
-482
-478
-478
-478
-482
-488
-491
-494
-495
-499
-500
-500
-501
-502
-502
-503
-504
-505
-506
-505
-503
-502
-502
-506
-514
-517
-510
-491
-459
-418
-370
-322
-288
-274
-282
-309
-352
-402
-442
-467
-483
-494
-502
-505
-506
-505
-505
-509
-509
-509
-509
-511
-511
-509
-510
-511
-511
-509
-509
-507
-506
-506
-505
-504
-505
-505
-504
-502
-500
-500
-500
-499
-500
-499
-498
-495
-495
-494
-494
-493
-492
-489
-486
-485
-481
-481
-481
-478
-477
-477
-473
-471
-468
-467
-471
-466
-467
-464
-464
-460
-463
-463
-464
-464
-467
-467
-471
-474
-478
-483
-485
-488
-488
-491
-492
-494
-495
-496
-498
-497
-499
-499
-500
-499
-499
-499
-496
-497
-497
-497
-497
-499
-497
-495
-495
-495
-497
-495
-496
-495
-498
-497
-497
-497
-498
-499
-499
-499
-498
-497
-497
-499
-499
-500
-500
-498
-499
-502
-502
-503
-503
-503
-502
-503
-502
-502
-502
-502
-502
-502
-502
-502
-499
-496
-496
-495
-496
-495
-498
-492
-488
-484
-481
-480
-478
-478
-481
-485
-488
-493
-497
-499
-502
-502
-503
-504
-505
-505
-506
-508
-510
-509
-509
-506
-506
-506
-508
-508
-509
-512
-515
-516
-510
-492
-463
-421
-373
-329
-301
-296
-310
-340
-379
-425
-468
-499
-508
-513
-515
-516
-515
-513
-511
-510
-509
-508
-506
-506
-503
-503
-502
-502
-500
-499
-499
-500
-500
-499
-497
-496
-494
-494
-492
-491
-491
-488
-487
-485
-483
-481
-479
-478
-478
-477
-475
-472
-471
-471
-464
-460
-459
-455
-453
-450
-450
-446
-444
-441
-440
-441
-441
-439
-441
-443
-445
-450
-453
-457
-460
-465
-471
-474
-476
-481
-484
-487
-489
-491
-494
-495
-497
-496
-497
-499
-499
-500
-500
-500
-501
-502
-498
-497
-497
-497
-498
-497
-496
-496
-495
-495
-494
-495
-495
-497
-497
-496
-496
-495
-495
-495
-496
-497
-497
-496
-496
-497
-497
-497
-498
-499
-500
-501
-500
-500
-499
-499
-499
-499
-499
-499
-499
-500
-497
-496
-495
-494
-494
-492
-492
-489
-488
-483
-478
-477
-475
-477
-477
-477
-478
-479
-484
-487
-492
-495
-497
-499
-501
-502
-502
-502
-504
-505
-505
-506
-505
-506
-505
-505
-503
-503
-502
-506
-512
-512
-502
-480
-447
-401
-349
-307
-280
-278
-299
-337
-383
-428
-463
-479
-491
-495
-500
-501
-500
-502
-503
-503
-504
-504
-504
-503
-503
-502
-502
-500
-502
-501
-499
-498
-498
-495
-494
-494
-494
-492
-492
-491
-491
-489
-488
-486
-487
-483
-483
-481
-481
-481
-478
-475
-474
-472
-469
-466
-463
-460
-457
-453
-451
-450
-450
-448
-447
-446
-444
-444
-445
-446
-446
-449
-453
-457
-462
-465
-470
-473
-477
-478
-481
-485
-489
-491
-491
-492
-495
-494
-495
-494
-495
-499
-499
-500
-500
-499
-499
-499
-498
-497
-496
-497
-496
-495
-495
-494
-493
-492
-492
-492
-493
-495
-496
-495
-494
-495
-495
-495
-498
-495
-496
-495
-495
-495
-495
-496
-496
-499
-498
-499
-499
-500
-500
-502
-499
-499
-498
-498
-499
-499
-498
-497
-496
-494
-493
-493
-493
-493
-492
-489
-487
-481
-478
-478
-477
-477
-477
-478
-481
-485
-488
-492
-496
-497
-499
-500
-502
-503
-503
-504
-503
-505
-505
-506
-506
-508
-506
-504
-503
-505
-509
-513
-515
-506
-488
-457
-418
-368
-321
-292
-285
-302
-340
-383
-422
-452
-469
-478
-491
-495
-498
-500
-501
-503
-505
-506
-506
-505
-506
-506
-506
-505
-504
-504
-503
-502
-501
-502
-499
-499
-499
-499
-502
-498
-498
-496
-497
-497
-497
-496
-496
-495
-492
-488
-488
-486
-485
-483
-481
-479
-478
-478
-475
-472
-471
-467
-464
-463
-462
-462
-461
-461
-460
-459
-460
-462
-464
-467
-471
-474
-478
-483
-487
-489
-494
-494
-497
-500
-502
-505
-503
-504
-505
-506
-506
-506
-507
-508
-506
-506
-507
-506
-506
-506
-506
-505
-506
-503
-504
-503
-503
-503
-503
-502
-502
-502
-501
-502
-502
-502
-504
-503
-504
-504
-503
-502
-506
-504
-504
-504
-504
-506
-504
-506
-504
-505
-507
-506
-508
-508
-508
-509
-509
-508
-506
-506
-505
-506
-505
-504
-503
-502
-502
-502
-500
-497
-493
-489
-488
-485
-483
-485
-488
-489
-492
-494
-499
-502
-507
-508
-509
-511
-512
-514
-513
-514
-514
-513
-514
-514
-514
-515
-514
-515
-515
-516
-520
-524
-523
-514
-495
-464
-425
-377
-332
-302
-298
-317
-352
-393
-432
-462
-479
-491
-500
-506
-508
-511
-510
-512
-512
-513
-513
-513
-513
-515
-512
-512
-511
-510
-513
-512
-513
-511
-510
-509
-508
-506
-505
-503
-502
-502
-502
-502
-500
-500
-499
-496
-496
-495
-495
-492
-492
-489
-488
-483
-481
-478
-477
-474
-471
-471
-469
-467
-466
-464
-463
-460
-463
-464
-466
-468
-472
-472
-474
-477
-481
-486
-488
-493
-497
-499
-502
-504
-506
-508
-509
-510
-513
-513
-514
-516
-515
-514
-513
-514
-515
-514
-516
-517
-513
-513
-513
-514
-514
-515
-513
-513
-513
-512
-512
-512
-512
-512
-513
-509
-510
-511
-511
-512
-513
-513
-513
-514
-516
-516
-515
-514
-515
-514
-515
-514
-515
-514
-513
-514
-514
-516
-516
-515
-515
-513
-513
-512
-512
-513
-512
-512
-510
-506
-503
-499
-495
-494
-492
-492
-495
-495
-497
-502
-506
-511
-512
-514
-515
-516
-516
-517
-516
-516
-516
-516
-518
-519
-520
-520
-518
-517
-518
-519
-524
-528
-528
-517
-497
-466
-426
-379
-335
-305
-299
-309
-336
-377
-423
-468
-498
-510
-519
-520
-522
-522
-522
-523
-520
-520
-518
-516
-516
-516
-515
-512
-512
-510
-511
-512
-513
-510
-509
-509
-508
-507
-506
-504
-503
-502
-500
-499
-497
-495
-495
-492
-492
-491
-490
-488
-485
-483
-479
-477
-473
-469
-467
-464
-460
-454
-453
-452
-452
-450
-447
-448
-446
-447
-447
-449
-453
-454
-460
-464
-468
-471
-476
-481
-485
-488
-492
-494
-496
-497
-499
-500
-502
-502
-503
-504
-504
-503
-504
-502
-502
-504
-505
-504
-506
-505
-506
-507
-506
-505
-504
-505
-506
-505
-504
-504
-502
-502
-502
-502
-504
-504
-506
-505
-506
-505
-506
-506
-506
-506
-506
-506
-506
-506
-506
-508
-509
-508
-507
-506
-506
-506
-506
-505
-504
-503
-502
-502
-502
-500
-497
-494
-490
-486
-487
-483
-483
-485
-488
-491
-495
-498
-501
-505
-506
-507
-508
-509
-510
-509
-512
-513
-513
-513
-512
-512
-513
-512
-512
-510
-513
-514
-519
-524
-521
-506
-479
-444
-397
-348
-309
-288
-288
-309
-344
-388
-434
-474
-494
-504
-512
-519
-519
-517
-516
-514
-514
-514
-514
-511
-512
-512
-513
-512
-509
-508
-506
-506
-505
-504
-504
-502
-501
-500
-498
-495
-494
-493
-491
-491
-489
-488
-488
-485
-483
-481
-478
-477
-477
-471
-469
-466
-464
-460
-459
-453
-450
-446
-446
-444
-443
-442
-440
-439
-441
-443
-446
-446
-449
-452
-455
-461
-464
-469
-473
-475
-478
-480
-483
-486
-491
-490
-491
-491
-493
-494
-494
-495
-495
-496
-495
-495
-497
-496
-497
-499
-496
-495
-494
-492
-493
-492
-492
-492
-493
-493
-491
-491
-490
-492
-493
-495
-496
-497
-499
-500
-501
-499
-496
-494
-492
-491
-485
-475
-462
-437
-399
-351
-299
-250
-207
-175
-155
-139
-138
-144
-159
-176
-187
-197
-204
-214
-225
-242
-263
-286
-309
-337
-367
-397
-429
-453
-473
-484
-494
-502
-507
-512
-517
-522
-527
-533
-539
-544
-548
-552
-555
-559
-565
-566
-571
-575
-579
-583
-587
-594
-597
-604
-608
-611
-615
-620
-625
-628
-632
-633
-636
-637
-636
-633
-632
-629
-625
-620
-614
-606
-599
-587
-576
-566
-553
-542
-533
-524
-516
-509
-503
-499
-496
-494
-494
-496
-496
-496
-496
-499
-500
-503
-505
-508
-510
-510
-512
-513
-514
-514
-516
-515
-515
-514
-515
-513
-514
-513
-513
-512
-513
-512
-513
-511
-510
-509
-510
-509
-510
-510
-509
-511
-509
-509
-508
-507
-508
-508
-508
-508
-508
-509
-509
-509
-509
-509
-510
-508
-509
-509
-509
-508
-509
-508
-508
-506
-507
-508
-507
-506
-506
-508
-506
-506
-506
-506
-507
-506
-506
-506
-506
-506
-506
-506
-509
-508
-508
-508
-508
-508
-507
-508
-506
-506
-507
-506
-506
-505
-508
-506
-508
-508
-506
-506
-508
-506
-506
-505
-506
-506
-506
-506
-506
-506
-507
-506
-506
-506
-507
-509
-507
-505
-505
-505
-506
-506
-506
-505
-505
-504
-503
-502
-501
-500
-499
-499
-498
-493
-489
-485
-484
-483
-481
-481
-478
-481
-485
-489
-493
-495
-500
-504
-505
-506
-506
-509
-510
-508
-509
-511
-510
-511
-509
-510
-509
-509
-513
-517
-520
-513
-493
-460
-415
-363
-316
-284
-274
-287
-320
-366
-415
-457
-478
-491
-501
-508
-511
-512
-512
-511
-511
-513
-515
-517
-513
-513
-513
-513
-514
-513
-513
-512
-511
-509
-509
-508
-506
-507
-505
-502
-501
-500
-502
-500
-500
-501
-499
-500
-498
-498
-496
-495
-494
-494
-494
-494
-490
-487
-485
-483
-481
-481
-478
-477
-476
-474
-474
-472
-473
-473
-474
-471
-471
-471
-473
-477
-478
-481
-484
-486
-491
-492
-495
-497
-501
-502
-503
-503
-506
-506
-506
-506
-507
-509
-510
-509
-511
-509
-509
-509
-509
-511
-509
-511
-509
-509
-510
-510
-509
-509
-508
-508
-509
-509
-509
-511
-510
-513
-510
-509
-509
-512
-512
-513
-513
-514
-514
-514
-513
-514
-515
-513
-512
-511
-509
-509
-509
-509
-510
-508
-505
-499
-496
-495
-495
-495
-494
-494
-497
-502
-508
-511
-513
-513
-516
-516
-518
-517
-520
-523
-521
-522
-522
-522
-523
-522
-520
-520
-520
-521
-525
-529
-532
-527
-510
-481
-445
-397
-352
-315
-305
-313
-337
-373
-419
-462
-493
-508
-516
-520
-525
-525
-524
-523
-522
-522
-520
-520
-520
-517
-518
-518
-516
-514
-513
-513
-514
-510
-510
-511
-509
-508
-506
-504
-503
-503
-502
-500
-500
-499
-498
-495
-495
-492
-489
-487
-485
-485
-484
-483
-481
-477
-473
-471
-466
-464
-463
-460
-459
-457
-456
-457
-456
-453
-459
-462
-465
-467
-473
-476
-479
-485
-488
-493
-497
-500
-503
-505
-508
-506
-507
-509
-511
-512
-513
-514
-514
-515
-516
-515
-516
-517
-518
-517
-516
-516
-517
-516
-515
-513
-511
-514
-516
-516
-516
-516
-515
-514
-516
-516
-519
-516
-516
-516
-516
-516
-516
-518
-518
-517
-515
-514
-513
-510
-510
-509
-509
-506
-500
-496
-493
-491
-491
-491
-492
-494
-499
-503
-509
-511
-512
-514
-514
-514
-516
-516
-517
-517
-519
-518
-519
-519
-522
-520
-519
-517
-518
-521
-524
-528
-527
-512
-485
-449
-407
-362
-323
-301
-298
-315
-348
-390
-441
-481
-506
-516
-520
-523
-527
-527
-524
-522
-521
-520
-519
-519
-518
-516
-516
-512
-509
-509
-512
-513
-515
-511
-510
-506
-505
-505
-502
-502
-500
-499
-498
-496
-495
-495
-493
-491
-488
-486
-485
-483
-482
-478
-476
-473
-469
-466
-463
-462
-460
-458
-458
-456
-453
-453
-453
-453
-454
-455
-459
-462
-467
-471
-476
-478
-483
-486
-492
-497
-498
-502
-504
-506
-508
-509
-509
-509
-509
-511
-509
-509
-508
-509
-510
-512
-513
-512
-512
-510
-511
-511
-510
-509
-508
-509
-508
-509
-509
-508
-507
-506
-508
-506
-507
-509
-509
-509
-510
-510
-512
-514
-512
-510
-509
-508
-508
-506
-505
-503
-505
-503
-499
-495
-491
-489
-490
-489
-488
-488
-489
-491
-496
-500
-505
-508
-509
-510
-512
-513
-513
-514
-515
-514
-516
-514
-514
-514
-513
-515
-514
-513
-515
-520
-522
-524
-518
-500
-475
-434
-387
-338
-299
-280
-288
-321
-366
-413
-451
-474
-488
-497
-505
-508
-509
-511
-513
-513
-513
-514
-513
-513
-512
-510
-513
-515
-513
-513
-512
-510
-509
-509
-508
-506
-506
-504
-504
-502
-502
-502
-502
-502
-500
-499
-497
-497
-495
-494
-492
-489
-488
-483
-481
-478
-476
-474
-471
-470
-467
-466
-464
-459
-459
-458
-459
-458
-460
-460
-460
-463
-467
-469
-474
-478
-481
-485
-489
-493
-498
-502
-503
-506
-509
-508
-507
-508
-509
-512
-509
-511
-510
-509
-509
-509
-509
-511
-509
-509
-508
-508
-509
-509
-509
-511
-510
-509
-510
-508
-509
-509
-508
-508
-506
-507
-506
-508
-508
-509
-510
-509
-510
-509
-510
-511
-510
-510
-509
-508
-509
-510
-508
-506
-504
-502
-502
-499
-496
-493
-490
-489
-488
-489
-488
-489
-490
-493
-498
-502
-506
-508
-509
-511
-513
-513
-513
-513
-513
-514
-514
-514
-514
-514
-514
-514
-513
-514
-514
-517
-523
-522
-513
-492
-460
-420
-373
-326
-294
-290
-311
-348
-391
-432
-460
-477
-488
-497
-503
-506
-509
-512
-513
-513
-514
-514
-515
-516
-514
-514
-514
-513
-513
-512
-511
-509
-509
-509
-509
-508
-506
-508
-506
-506
-505
-506
-503
-503
-500
-499
-500
-497
-496
-495
-492
-491
-491
-488
-487
-486
-482
-479
-477
-474
-473
-471
-469
-469
-469
-469
-468
-466
-465
-466
-467
-470
-473
-477
-478
-483
-488
-492
-495
-497
-500
-502
-506
-505
-508
-508
-509
-509
-513
-512
-513
-511
-512
-514
-514
-514
-514
-512
-512
-509
-510
-509
-509
-509
-509
-508
-508
-508
-508
-509
-509
-508
-508
-508
-509
-509
-510
-511
-510
-511
-510
-512
-512
-511
-511
-511
-511
-512
-513
-513
-516
-513
-514
-514
-513
-514
-510
-511
-509
-509
-509
-509
-508
-506
-504
-500
-496
-494
-492
-492
-490
-489
-490
-494
-499
-503
-509
-512
-513
-513
-514
-515
-516
-517
-519
-517
-518
-517
-518
-517
-516
-516
-519
-519
-520
-523
-527
-531
-526
-512
-489
-458
-415
-369
-326
-302
-302
-323
-359
-405
-447
-478
-494
-504
-513
-517
-520
-520
-522
-523
-523
-525
-524
-523
-525
-523
-523
-520
-520
-518
-517
-516
-516
-516
-516
-516
-516
-514
-513
-514
-512
-512
-512
-511
-512
-508
-506
-505
-503
-502
-501
-499
-498
-496
-495
-492
-489
-487
-485
-483
-479
-477
-476
-474
-472
-472
-471
-469
-468
-471
-471
-472
-474
-478
-481
-485
-488
-493
-498
-500
-505
-510
-510
-512
-513
-515
-519
-519
-520
-520
-522
-522
-522
-520
-520
-519
-519
-520
-521
-520
-519
-519
-518
-517
-517
-517
-518
-519
-519
-520
-519
-517
-516
-516
-516
-517
-519
-519
-519
-520
-520
-519
-519
-520
-519
-520
-521
-522
-524
-523
-522
-520
-520
-519
-518
-518
-517
-517
-517
-518
-517
-518
-518
-517
-518
-516
-516
-515
-513
-510
-506
-502
-498
-495
-496
-497
-496
-497
-501
-506
-510
-514
-516
-519
-522
-523
-525
-524
-523
-521
-525
-520
-520
-520
-523
-527
-525
-524
-525
-527
-529
-530
-523
-503
-474
-436
-392
-349
-317
-307
-316
-341
-376
-421
-466
-500
-518
-524
-528
-531
-531
-530
-527
-527
-526
-527
-525
-523
-523
-520
-518
-517
-518
-514
-513
-511
-513
-515
-513
-511
-509
-508
-508
-505
-505
-503
-503
-502
-500
-498
-495
-494
-492
-489
-488
-484
-481
-478
-475
-474
-471
-468
-465
-463
-463
-460
-457
-455
-453
-453
-453
-453
-453
-453
-453
-457
-461
-465
-470
-477
-479
-483
-485
-490
-494
-496
-499
-502
-504
-506
-506
-507
-508
-508
-507
-509
-507
-508
-510
-509
-509
-509
-509
-509
-509
-509
-508
-508
-509
-508
-509
-508
-508
-508
-509
-509
-509
-509
-512
-513
-513
-514
-513
-513
-513
-513
-515
-514
-514
-514
-515
-514
-516
-515
-515
-516
-517
-518
-518
-517
-516
-516
-516
-516
-516
-515
-513
-513
-512
-511
-509
-509
-507
-506
-503
-498
-495
-495
-495
-494
-495
-494
-495
-499
-499
-502
-507
-510
-516
-516
-516
-517
-517
-519
-519
-519
-519
-518
-519
-520
-521
-519
-520
-517
-520
-524
-528
-527
-515
-493
-460
-415
-364
-320
-293
-293
-313
-350
-397
-439
-473
-492
-502
-511
-516
-516
-516
-516
-519
-519
-520
-517
-516
-515
-516
-518
-516
-516
-515
-514
-513
-513
-512
-512
-512
-509
-509
-508
-506
-506
-503
-502
-501
-500
-500
-496
-495
-495
-493
-492
-488
-487
-485
-481
-479
-477
-473
-471
-467
-464
-464
-461
-456
-457
-455
-453
-454
-452
-453
-455
-458
-461
-464
-467
-471
-474
-478
-483
-488
-492
-495
-499
-500
-502
-503
-504
-506
-506
-508
-508
-507
-509
-508
-509
-509
-509
-510
-508
-509
-509
-509
-508
-506
-505
-507
-506
-505
-504
-504
-506
-506
-509
-510
-514
-516
-516
-515
-510
-509
-506
-499
-491
-479
-459
-424
-377
-327
-275
-229
-186
-155
-138
-133
-139
-152
-168
-184
-193
-202
-211
-225
-246
-265
-292
-318
-347
-381
-415
-448
-478
-502
-523
-534
-541
-548
-552
-557
-558
-562
-565
-569
-573
-578
-581
-584
-583
-581
-584
-589
-594
-597
-600
-603
-608
-611
-614
-617
-619
-624
-628
-632
-636
-638
-639
-643
-645
-644
-645
-640
-639
-636
-630
-624
-615
-606
-596
-585
-574
-564
-552
-542
-533
-526
-519
-513
-506
-502
-501
-500
-500
-502
-502
-506
-506
-508
-510
-513
-516
-515
-517
-519
-520
-520
-522
-523
-523
-523
-523
-523
-522
-520
-520
-520
-520
-520
-521
-520
-520
-522
-521
-523
-522
-522
-522
-521
-520
-520
-520
-521
-520
-519
-518
-518
-517
-518
-518
-519
-520
-520
-519
-520
-520
-522
-520
-520
-519
-520
-519
-519
-520
-519
-520
-518
-519
-520
-519
-519
-517
-517
-517
-517
-518
-520
-519
-520
-519
-518
-520
-519
-517
-517
-518
-519
-519
-520
-518
-518
-517
-520
-519
-519
-520
-520
-520
-520
-518
-517
-518
-518
-517
-519
-517
-518
-518
-516
-517
-517
-518
-518
-517
-516
-516
-516
-519
-521
-519
-519
-519
-519
-520
-520
-517
-518
-517
-517
-516
-516
-516
-516
-516
-516
-515
-515
-515
-515
-516
-515
-514
-514
-514
-514
-515
-516
-515
-514
-514
-515
-511
-509
-509
-509
-508
-509
-506
-505
-502
-495
-493
-491
-491
-492
-493
-492
-494
-496
-501
-505
-507
-509
-511
-513
-514
-517
-517
-516
-516
-516
-516
-518
-517
-518
-516
-516
-519
-523
-520
-507
-480
-443
-394
-342
-302
-282
-290
-313
-354
-403
-446
-478
-493
-502
-512
-519
-524
-522
-522
-522
-520
-522
-520
-521
-521
-520
-521
-521
-522
-522
-522
-523
-522
-521
-519
-519
-519
-520
-520
-519
-517
-516
-517
-516
-516
-514
-514
-514
-513
-511
-509
-510
-509
-508
-506
-504
-500
-500
-499
-495
-492
-488
-488
-489
-486
-485
-484
-481
-478
-475
-477
-475
-477
-478
-478
-478
-478
-483
-484
-488
-492
-496
-499
-500
-503
-504
-508
-510
-511
-513
-514
-515
-516
-517
-516
-516
-516
-516
-515
-516
-516
-518
-516
-516
-516
-519
-517
-516
-516
-515
-517
-516
-516
-516
-516
-516
-514
-517
-517
-519
-519
-518
-518
-518
-519
-519
-521
-521
-520
-521
-521
-522
-522
-520
-519
-517
-516
-516
-517
-516
-514
-513
-512
-510
-505
-502
-499
-501
-499
-497
-496
-500
-505
-509
-514
-516
-517
-519
-520
-521
-520
-522
-520
-521
-520
-521
-522
-521
-521
-522
-521
-523
-523
-524
-528
-533
-528
-513
-485
-445
-396
-351
-319
-309
-321
-348
-387
-433
-477
-510
-523
-527
-527
-529
-531
-531
-528
-526
-523
-520
-520
-519
-519
-520
-519
-519
-518
-517
-516
-513
-514
-513
-513
-513
-509
-508
-506
-507
-507
-506
-503
-502
-502
-499
-497
-496
-495
-492
-491
-488
-484
-482
-478
-475
-472
-471
-471
-465
-462
-460
-457
-453
-453
-453
-452
-453
-453
-454
-457
-460
-464
-467
-471
-478
-483
-488
-489
-494
-499
-502
-506
-506
-509
-509
-510
-513
-513
-513
-513
-515
-516
-517
-516
-514
-514
-514
-514
-513
-516
-514
-514
-513
-514
-516
-514
-513
-513
-513
-514
-515
-514
-514
-513
-513
-513
-513
-514
-514
-515
-516
-516
-515
-515
-515
-516
-516
-515
-513
-510
-510
-513
-512
-511
-508
-506
-503
-500
-496
-493
-492
-491
-491
-492
-492
-495
-500
-504
-507
-512
-514
-517
-518
-519
-519
-519
-519
-520
-520
-520
-520
-520
-519
-518
-519
-519
-519
-521
-526
-527
-519
-499
-469
-429
-380
-331
-293
-279
-293
-323
-369
-419
-461
-487
-498
-505
-512
-515
-519
-516
-516
-516
-516
-519
-517
-517
-516
-516
-515
-514
-514
-513
-513
-513
-513
-511
-509
-506
-505
-503
-503
-504
-502
-502
-501
-498
-498
-496
-494
-492
-491
-489
-488
-486
-485
-481
-478
-478
-474
-472
-473
-468
-466
-464
-460
-457
-457
-455
-455
-453
-453
-453
-453
-456
-459
-462
-467
-471
-473
-477
-481
-487
-491
-492
-495
-498
-500
-502
-503
-506
-508
-508
-509
-506
-506
-505
-506
-506
-507
-506
-506
-506
-506
-505
-507
-506
-506
-508
-506
-506
-506
-504
-504
-504
-505
-505
-505
-506
-506
-506
-507
-506
-506
-505
-508
-508
-509
-508
-509
-509
-509
-509
-509
-510
-511
-511
-509
-508
-507
-505
-506
-506
-503
-502
-498
-495
-492
-490
-489
-492
-490
-489
-492
-496
-502
-505
-509
-510
-513
-515
-516
-516
-516
-516
-517
-516
-516
-516
-518
-519
-518
-517
-516
-516
-516
-522
-527
-527
-513
-491
-456
-413
-365
-316
-283
-279
-302
-337
-381
-427
-458
-478
-489
-499
-506
-509
-513
-512
-515
-516
-518
-517
-516
-516
-516
-514
-514
-514
-514
-514
-513
-511
-510
-509
-509
-508
-506
-508
-506
-503
-503
-502
-502
-502
-500
-499
-497
-497
-496
-495
-494
-492
-490
-488
-485
-483
-481
-481
-479
-474
-471
-468
-468
-471
-468
-466
-466
-464
-462
-463
-463
-464
-466
-467
-471
-474
-478
-482
-484
-488
-491
-495
-498
-499
-502
-504
-505
-505
-504
-504
-505
-506
-506
-505
-506
-505
-506
-504
-503
-505
-508
-504
-504
-504
-504
-505
-503
-503
-503
-503
-504
-503
-503
-503
-503
-504
-506
-505
-506
-505
-505
-506
-506
-506
-506
-506
-508
-508
-508
-508
-508
-508
-510
-509
-509
-508
-508
-506
-506
-506
-504
-504
-504
-503
-502
-497
-494
-492
-488
-488
-488
-488
-490
-491
-494
-499
-502
-506
-508
-509
-510
-513
-512
-513
-513
-514
-514
-514
-516
-516
-516
-514
-513
-514
-516
-519
-522
-527
-527
-514
-493
-463
-422
-373
-327
-298
-295
-315
-353
-397
-440
-469
-487
-497
-508
-509
-510
-512
-514
-516
-516
-516
-516
-516
-516
-515
-514
-514
-513
-512
-513
-514
-513
-513
-510
-511
-511
-509
-508
-506
-506
-505
-506
-503
-502
-502
-500
-499
-498
-496
-497
-498
-494
-492
-491
-488
-488
-485
-482
-478
-476
-474
-472
-469
-468
-467
-466
-466
-465
-464
-465
-465
-468
-471
-474
-477
-481
-485
-488
-491
-495
-496
-500
-506
-506
-506
-508
-509
-509
-512
-513
-513
-514
-513
-514
-513
-513
-510
-513
-509
-512
-513
-514
-514
-513
-513
-513
-513
-512
-512
-512
-512
-513
-513
-513
-513
-512
-510
-510
-510
-512
-513
-512
-511
-512
-513
-514
-514
-515
-515
-514
-514
-516
-516
-516
-514
-514
-514
-513
-512
-512
-509
-509
-507
-506
-505
-500
-497
-493
-491
-491
-489
-492
-492
-496
-499
-502
-507
-510
-513
-515
-516
-516
-516
-516
-516
-516
-516
-517
-519
-517
-516
-516
-516
-518
-520
-524
-527
-525
-511
-487
-452
-403
-359
-323
-303
-306
-326
-361
-406
-456
-492
-512
-517
-522
-525
-527
-527
-525
-522
-520
-520
-520
-519
-518
-514
-513
-511
-512
-513
-513
-512
-509
-509
-510
-508
-509
-506
-506
-503
-503
-502
-502
-500
-497
-495
-494
-492
-492
-492
-488
-485
-482
-481
-479
-473
-472
-468
-465
-460
-458
-457
-456
-453
-451
-452
-450
-447
-448
-450
-452
-454
-459
-464
-467
-471
-475
-481
-485
-488
-493
-497
-502
-503
-506
-506
-506
-506
-508
-509
-510
-513
-511
-512
-511
-511
-513
-509
-509
-509
-510
-510
-509
-509
-509
-510
-510
-511
-510
-512
-512
-509
-510
-510
-510
-511
-512
-513
-513
-514
-513
-514
-514
-516
-515
-515
-514
-514
-514
-514
-515
-514
-513
-513
-512
-511
-509
-508
-509
-506
-506
-503
-499
-495
-491
-490
-491
-491
-490
-492
-495
-500
-503
-508
-510
-513
-515
-518
-518
-519
-519
-519
-519
-520
-520
-520
-520
-520
-521
-522
-521
-522
-525
-530
-528
-516
-492
-454
-404
-352
-310
-297
-309
-340
-382
-429
-476
-502
-513
-519
-525
-527
-529
-525
-523
-520
-519
-519
-519
-520
-519
-519
-519
-516
-515
-513
-512
-511
-510
-509
-508
-508
-505
-502
-502
-500
-500
-499
-499
-497
-495
-495
-496
-491
-489
-488
-485
-486
-482
-478
-478
-475
-472
-467
-463
-461
-458
-456
-454
-452
-451
-450
-451
-450
-450
-452
-454
-455
-460
-463
-467
-471
-476
-479
-485
-486
-491
-493
-496
-498
-499
-502
-504
-505
-507
-508
-507
-506
-506
-509
-509
-508
-506
-506
-509
-506
-506
-506
-505
-505
-503
-504
-504
-505
-506
-504
-503
-503
-503
-504
-504
-506
-506
-509
-510
-513
-514
-515
-514
-510
-508
-502
-496
-489
-475
-452
-410
-360
-309
-259
-215
-179
-152
-137
-134
-139
-152
-166
-179
-188
-196
-203
-215
-232
-254
-274
-299
-326
-357
-393
-425
-457
-484
-503
-519
-531
-541
-549
-555
-561
-566
-569
-570
-572
-577
-580
-583
-586
-587
-592
-596
-601
-606
-611
-614
-617
-621
-626
-632
-636
-643
-648
-652
-657
-660
-664
-667
-667
-670
-670
-670
-668
-664
-659
-651
-643
-635
-623
-614
-603
-590
-577
-566
-555
-543
-534
-525
-519
-516
-514
-513
-511
-513
-513
-515
-515
-516
-517
-518
-520
-524
-522
-524
-525
-526
-527
-527
-527
-527
-527
-527
-527
-527
-527
-525
-524
-525
-525
-525
-525
-525
-525
-525
-523
-522
-520
-520
-520
-521
-520
-521
-520
-519
-520
-520
-521
-521
-520
-523
-523
-523
-523
-525
-522
-522
-521
-521
-523
-520
-520
-522
-523
-522
-521
-522
-520
-521
-520
-521
-522
-521
-520
-519
-517
-517
-519
-520
-520
-520
-520
-520
-519
-518
-517
-519
-519
-518
-518
-516
-516
-517
-518
-517
-516
-518
-516
-516
-516
-516
-519
-516
-516
-515
-516
-518
-517
-518
-517
-516
-516
-516
-514
-514
-516
-515
-516
-515
-514
-513
-511
-510
-511
-510
-509
-508
-506
-504
-502
-497
-493
-491
-489
-489
-489
-488
-492
-494
-497
-500
-504
-509
-514
-513
-514
-514
-514
-516
-516
-516
-517
-518
-518
-517
-516
-518
-519
-520
-523
-528
-527
-516
-494
-460
-415
-364
-316
-286
-281
-298
-332
-376
-427
-464
-485
-499
-506
-516
-519
-517
-517
-519
-519
-520
-523
-520
-519
-516
-517
-519
-517
-517
-516
-516
-514
-512
-511
-509
-509
-509
-509
-509
-508
-508
-505
-504
-504
-501
-502
-498
-499
-500
-499
-497
-495
-494
-495
-491
-489
-488
-486
-485
-483
-481
-479
-478
-478
-477
-477
-475
-474
-476
-473
-472
-471
-471
-472
-472
-475
-478
-480
-481
-485
-488
-490
-493
-495
-497
-499
-503
-506
-506
-506
-508
-507
-507
-508
-509
-508
-509
-510
-509
-511
-510
-508
-508
-506
-508
-505
-504
-505
-507
-508
-511
-509
-508
-509
-509
-511
-509
-509
-508
-508
-509
-509
-509
-511
-509
-512
-513
-514
-513
-510
-509
-511
-512
-513
-513
-511
-513
-510
-510
-512
-512
-512
-509
-508
-506
-501
-496
-494
-495
-494
-492
-493
-494
-495
-500
-505
-512
-516
-516
-517
-518
-520
-520
-520
-520
-521
-521
-522
-522
-522
-523
-522
-521
-522
-523
-523
-526
-529
-529
-520
-499
-469
-429
-383
-340
-309
-297
-301
-325
-362
-403
-447
-481
-503
-513
-519
-522
-523
-521
-523
-523
-524
-523
-522
-520
-517
-517
-517
-516
-516
-516
-516
-515
-514
-515
-513
-512
-510
-509
-508
-506
-505
-504
-505
-505
-504
-503
-502
-499
-496
-495
-494
-492
-492
-489
-487
-485
-481
-478
-477
-475
-475
-471
-467
-467
-464
-460
-463
-463
-462
-460
-458
-460
-463
-468
-471
-475
-478
-481
-486
-490
-494
-497
-500
-502
-505
-508
-509
-513
-515
-516
-514
-514
-516
-516
-516
-516
-515
-515
-516
-516
-514
-513
-513
-513
-514
-513
-513
-516
-514
-514
-513
-513
-514
-514
-516
-516
-515
-514
-514
-516
-516
-515
-514
-516
-514
-514
-515
-513
-514
-514
-511
-510
-509
-510
-511
-510
-509
-508
-503
-496
-495
-492
-491
-491
-492
-492
-494
-499
-505
-512
-513
-513
-516
-516
-520
-520
-521
-523
-523
-522
-520
-521
-520
-522
-522
-522
-522
-523
-525
-528
-531
-525
-508
-483
-448
-407
-362
-323
-302
-302
-323
-359
-399
-446
-487
-514
-524
-529
-530
-531
-529
-529
-527
-524
-523
-520
-521
-520
-519
-516
-516
-514
-513
-513
-513
-513
-510
-509
-508
-506
-505
-505
-504
-502
-500
-498
-496
-497
-495
-494
-492
-488
-486
-487
-483
-481
-480
-478
-475
-472
-471
-467
-464
-460
-458
-457
-455
-454
-449
-450
-450
-452
-452
-451
-457
-460
-464
-469
-474
-478
-483
-487
-491
-494
-497
-500
-502
-502
-503
-504
-505
-506
-506
-507
-506
-507
-506
-507
-508
-509
-509
-510
-509
-508
-508
-507
-509
-509
-506
-506
-508
-506
-505
-506
-506
-508
-505
-506
-506
-508
-509
-508
-508
-508
-508
-510
-512
-513
-511
-510
-509
-508
-506
-506
-506
-506
-505
-505
-502
-498
-493
-489
-488
-489
-489
-490
-492
-495
-499
-503
-508
-510
-513
-513
-514
-515
-515
-519
-517
-518
-519
-519
-520
-521
-520
-519
-518
-518
-519
-522
-527
-528
-523
-505
-478
-438
-390
-340
-301
-285
-295
-324
-369
-417
-460
-489
-502
-509
-514
-517
-517
-517
-519
-519
-519
-520
-519
-519
-517
-520
-516
-514
-514
-515
-516
-513
-513
-513
-511
-510
-508
-506
-505
-504
-505
-504
-502
-500
-499
-497
-495
-494
-492
-492
-488
-487
-484
-483
-478
-477
-475
-472
-469
-466
-464
-463
-461
-460
-458
-460
-458
-456
-458
-460
-461
-463
-468
-468
-474
-478
-483
-488
-491
-493
-496
-498
-503
-505
-508
-509
-509
-509
-509
-512
-513
-513
-512
-513
-513
-513
-513
-512
-513
-513
-513
-512
-511
