-505
-506
-507
-507
-508
-507
-507
-506
-504
-505
-506
-504
-501
-497
-493
-490
-489
-489
-489
-487
-484
-481
-480
-477
-477
-479
-477
-477
-480
-486
-491
-500
-507
-511
-514
-514
-516
-518
-517
-517
-516
-517
-517
-517
-519
-518
-517
-515
-514
-514
-514
-517
-516
-511
-494
-457
-392
-307
-233
-201
-228
-311
-422
-518
-570
-571
-551
-531
-514
-510
-507
-508
-511
-514
-514
-514
-513
-511
-511
-511
-510
-509
-508
-510
-508
-507
-507
-505
-506
-505
-504
-504
-504
-503
-501
-500
-499
-498
-498
-496
-496
-494
-492
-490
-488
-488
-487
-484
-480
-478
-474
-468
-468
-464
-461
-456
-452
-450
-446
-443
-438
-433
-428
-424
-422
-423
-423
-429
-436
-446
-456
-465
-473
-480
-485
-489
-492
-495
-498
-500
-499
-499
-501
-501
-499
-499
-498
-499
-498
-499
-499
-499
-499
-501
-499
-499
-496
-496
-498
-496
-496
-497
-498
-499
-497
-496
-496
-497
-497
-497
-499
-499
-499
-499
-499
-498
-497
-497
-498
-498
-498
-497
-496
-491
-487
-480
-480
-480
-479
-480
-477
-473
-468
-467
-465
-463
-467
-467
-470
-477
-484
-489
-497
-501
-504
-507
-507
-508
-507
-507
-507
-507
-507
-507
-507
-508
-508
-507
-507
-506
-505
-506
-506
-502
-490
-458
-395
-310
-226
-176
-192
-270
-382
-483
-536
-541
-524
-507
-498
-498
-499
-503
-507
-505
-505
-505
-504
-507
-504
-502
-503
-502
-501
-500
-499
-500
-499
-501
-499
-498
-497
-496
-495
-496
-496
-494
-491
-490
-490
-489
-489
-487
-485
-484
-480
-479
-477
-477
-473
-471
-467
-465
-462
-457
-453
-452
-447
-443
-440
-435
-433
-429
-424
-419
-416
-416
-419
-426
-433
-442
-451
-460
-467
-475
-480
-484
-489
-490
-492
-493
-494
-495
-495
-495
-493
-494
-491
-494
-494
-493
-493
-494
-491
-490
-490
-490
-490
-490
-491
-491
-491
-494
-490
-491
-490
-490
-492
-491
-493
-491
-491
-493
-492
-493
-493
-494
-493
-494
-491
-490
-489
-487
-484
-481
-477
-477
-474
-474
-474
-471
-467
-465
-462
-462
-462
-463
-466
-470
-477
-480
-487
-492
-497
-502
-503
-504
-504
-504
-506
-505
-505
-504
-505
-505
-504
-504
-504
-504
-504
-504
-504
-502
-496
-479
-441
-376
-290
-212
-175
-203
-284
-388
-480
-529
-534
-519
-505
-496
-495
-499
-501
-502
-503
-504
-505
-507
-504
-504
-503
-501
-504
-499
-499
-500
-499
-499
-499
-499
-496
-497
-496
-495
-493
-493
-494
-491
-491
-490
-490
-489
-489
-485
-484
-481
-480
-477
-477
-474
-473
-470
-467
-463
-459
-456
-452
-449
-446
-441
-437
-433
-428
-424
-418
-417
-415
-419
-422
-427
-439
-447
-456
-465
-471
-479
-483
-487
-489
-491
-491
-492
-492
-493
-493
-494
-495
-493
-492
-491
-492
-491
-491
-492
-491
-490
-490
-490
-490
-489
-490
-489
-489
-490
-490
-490
-493
-491
-490
-490
-491
-493
-490
-490
-490
-490
-492
-493
-492
-491
-489
-487
-484
-483
-480
-477
-474
-473
-473
-471
-468
-466
-462
-460
-460
-460
-462
-463
-467
-473
-478
-484
-490
-496
-499
-500
-500
-501
-503
-502
-504
-502
-502
-505
-504
-505
-504
-503
-501
-500
-500
-501
-499
-487
-455
-395
-311
-226
-179
-200
-273
-370
-460
-515
-527
-518
-505
-497
-492
-495
-499
-501
-501
-503
-503
-502
-501
-500
-499
-501
-499
-499
-499
-499
-499
-501
-499
-498
-496
-497
-497
-495
-494
-494
-492
-492
-491
-490
-490
-489
-486
-484
-481
-480
-477
-477
-474
-473
-471
-469
-464
-461
-458
-453
-450
-449
-443
-441
-436
-432
-428
-423
-418
-415
-412
-418
-423
-427
-439
-448
-460
-466
-471
-482
-485
-487
-490
-492
-493
-494
-493
-494
-496
-496
-497
-496
-495
-495
-495
-495
-494
-494
-493
-493
-494
-493
-493
-494
-494
-491
-492
-492
-493
-495
-495
-495
-495
-494
-495
-496
-496
-497
-496
-497
-500
-498
-496
-496
-493
-492
-488
-487
-484
-483
-480
-478
-477
-477
-473
-468
-466
-463
-463
-466
-467
-471
-477
-484
-490
-496
-501
-503
-505
-507
-508
-508
-508
-509
-511
-511
-511
-509
-511
-511
-511
-511
-511
-509
-508
-509
-507
-496
-466
-411
-332
-253
-199
-211
-282
-385
-489
-548
-555
-539
-520
-508
-504
-506
-507
-509
-511
-511
-511
-511
-510
-507
-507
-506
-505
-507
-507
-507
-505
-504
-502
-502
-502
-501
-504
-500
-499
-497
-498
-500
-496
-496
-495
-494
-490
-487
-484
-483
-480
-480
-477
-476
-473
-470
-467
-464
-459
-455
-453
-449
-444
-441
-436
-430
-425
-419
-416
-416
-418
-423
-431
-443
-453
-464
-473
-480
-487
-491
-497
-499
-501
-504
-500
-501
-499
-500
-502
-502
-502
-501
-501
-501
-501
-501
-501
-501
-501
-499
-499
-500
-499
-499
-499
-500
-499
-500
-499
-500
-501
-501
-502
-503
-504
-504
-504
-503
-501
-499
-497
-497
-496
-494
-491
-491
-487
-484
-485
-485
-485
-480
-474
-473
-470
-472
-473
-477
-479
-484
-490
-498
-504
-510
-514
-514
-514
-514
-514
-514
-511
-512
-514
-517
-517
-518
-518
-514
-514
-514
-512
-514
-514
-507
-487
-445
-382
-299
-232
-204
-239
-324
-433
-532
-579
-579
-558
-535
-517
-512
-509
-511
-514
-514
-514
-514
-511
-511
-511
-511
-511
-510
-510
-509
-511
-510
-508
-506
-505
-505
-504
-504
-501
-503
-501
-501
-499
-497
-496
-495
-494
-494
-491
-490
-490
-484
-481
-479
-477
-473
-473
-469
-467
-460
-456
-451
-449
-444
-440
-436
-433
-428
-424
-419
-419
-422
-426
-436
-443
-453
-462
-471
-480
-487
-491
-496
-499
-502
-502
-502
-501
-502
-502
-503
-504
-504
-505
-502
-502
-501
-499
-502
-501
-500
-499
-500
-500
-501
-501
-500
-499
-499
-499
-499
-499
-499
-499
-501
-501
-499
-500
-500
-500
-500
-500
-501
-498
-496
-490
-489
-487
-484
-483
-483
-483
-481
-477
-474
-468
-470
-470
-471
-471
-471
-477
-483
-487
-495
-502
-505
-508
-509
-510
-511
-511
-510
-511
-511
-511
-511
-510
-508
-508
-509
-507
-506
-507
-507
-501
-487
-452
-385
-301
-218
-183
-219
-302
-416
-514
-561
-562
-541
-517
-504
-500
-504
-504
-506
-505
-505
-507
-505
-504
-504
-502
-503
-499
-499
-498
-499
-499
-500
-499
-497
-497
-496
-495
-493
-494
-494
-493
-493
-491
-489
-487
-485
-484
-481
-480
-478
-477
-474
-472
-469
-467
-466
-462
-456
-453
-450
-446
-443
-436
-433
-428
-423
-419
-416
-415
-416
-419
-426
-434
-443
-452
-461
-468
-475
-480
-484
-487
-490
-490
-491
-491
-490
-490
-491
-493
-493
-494
-492
-490
-490
-490
-489
-489
-487
-489
-489
-490
-490
-489
-489
-490
-488
-489
-489
-489
-490
-489
-489
-489
-489
-489
-489
-489
-490
-490
-490
-490
-489
-487
-485
-480
-477
-475
-474
-473
-472
-470
-468
-465
-460
-458
-456
-458
-460
-460
-463
-468
-473
-480
-488
-491
-495
-499
-497
-497
-497
-499
-502
-499
-500
-500
-501
-501
-500
-498
-498
-497
-497
-498
-494
-477
-441
-375
-286
-202
-162
-187
-267
-376
-477
-531
-536
-517
-501
-489
-490
-492
-495
-497
-497
-496
-497
-496
-496
-499
-496
-495
-495
-493
-495
-492
-491
-490
-491
-491
-490
-490
-489
-489
-489
-487
-487
-484
-483
-480
-480
-480
-479
-477
-477
-474
-473
-470
-467
-465
-461
-458
-456
-452
-448
-444
-441
-438
-433
-428
-423
-418
-412
-409
-409
-411
-416
-425
-433
-442
-450
-457
-467
-473
-478
-480
-484
-485
-487
-486
-487
-488
-487
-488
-487
-487
-487
-487
-486
-487
-487
-484
-485
-485
-486
-485
-484
-484
-485
-485
-485
-484
-484
-484
-483
-484
-484
-484
-489
-485
-486
-486
-485
-487
-486
-486
-484
-484
-481
-477
-475
-473
-470
-468
-468
-468
-463
-460
-456
-455
-455
-456
-456
-458
-461
-467
-473
-480
-486
-490
-490
-495
-496
-496
-497
-497
-496
-498
-498
-500
-501
-499
-499
-497
-497
-499
-496
-493
-486
-465
-416
-340
-250
-180
-168
-223
-319
-424
-501
-528
-522
-505
-493
-488
-489
-491
-495
-496
-497
-496
-496
-496
-495
-494
-494
-494
-495
-495
-494
-493
-491
-490
-490
-489
-489
-489
-489
-490
-487
-485
-484
-484
-486
-483
-480
-478
-477
-477
-474
-473
-470
-467
-463
-461
-458
-456
-452
-450
-446
-443
-440
-436
-432
-427
-421
-418
-416
-415
-414
-418
-424
-433
-444
-453
-461
-468
-474
-481
-484
-489
-488
-490
-491
-493
-494
-492
-493
-491
-491
-490
-490
-490
-490
-489
-490
-489
-490
-490
-489
-487
-487
-487
-489
-489
-489
-489
-489
-489
-489
-489
-490
-489
-490
-490
-490
-490
-492
-492
-492
-490
-489
-486
-484
-480
-479
-477
-473
-474
-473
-471
-469
-463
-461
-459
-460
-461
-463
-467
-472
-477
-483
-490
-496
-501
-503
-504
-504
-505
-505
-504
-505
-505
-507
-507
-506
-505
-503
-503
-502
-504
-504
-501
-490
-463
-409
-330
-243
-188
-194
-263
-365
-465
-521
-535
-521
-506
-496
-495
-498
-502
-505
-505
-506
-505
-504
-504
-504
-504
-503
-501
-501
-499
-500
-499
-501
-501
-499
-498
-495
-495
-493
-495
-496
-494
-494
-490
-490
-489
-487
-487
-487
-481
-480
-477
-475
-469
-470
-467
-466
-461
-456
-452
-450
-446
-443
-438
-433
-426
-423
-419
-418
-417
-421
-427
-436
-446
-455
-464
-474
-483
-487
-490
-493
-495
-497
-500
-500
-499
-498
-498
-496
-498
-497
-499
-498
-497
-496
-497
-495
-495
-495
-495
-498
-496
-496
-495
-495
-496
-495
-496
-496
-496
-497
-497
-496
-496
-497
-497
-498
-499
-498
-500
-498
-496
-495
-492
-490
-487
-487
-485
-483
-480
-479
-477
-473
-470
-468
-468
-469
-468
-471
-474
-480
-489
-500
-504
-507
-508
-510
-511
-510
-511
-512
-511
-515
-514
-515
-514
-514
-511
-511
-510
-511
-514
-511
-499
-470
-412
-331
-247
-200
-220
-300
-412
-517
-569
-573
-555
-531
-514
-508
-509
-509
-511
-511
-513
-516
-512
-511
-511
-509
-511
-509
-508
-508
-507
-507
-507
-507
-507
-507
-505
-503
-501
-501
-500
-499
-498
-497
-496
-497
-493
-492
-489
-487
-485
-484
-480
-478
-474
-471
-470
-465
-462
-457
-453
-449
-446
-440
-436
-431
-427
-422
-417
-418
-422
-430
-438
-447
-458
-467
-477
-484
-490
-494
-498
-500
-502
-503
-505
-506
-507
-506
-505
-504
-504
-505
-505
-504
-502
-501
-501
-501
-502
-503
-502
-502
-502
-502
-502
-504
-504
-504
-504
-503
-505
-502
-502
-503
-504
-507
-505
-504
-504
-501
-499
-497
-496
-493
-490
-487
-487
-485
-486
-484
-480
-477
-473
-471
-471
-474
-477
-482
-487
-494
-500
-507
-511
-514
-514
-514
-514
-515
-517
-517
-516
-516
-517
-515
-516
-514
-514
-514
-514
-516
-515
-507
-483
-430
-353
-267
-206
-200
-263
-365
-477
-558
-585
-572
-547
-524
-512
-507
-511
-512
-512
-514
-511
-511
-511
-511
-511
-509
-507
-507
-507
-507
-505
-505
-507
-504
-502
-502
-500
-503
-499
-498
-497
-497
-497
-494
-493
-491
-490
-490
-487
-485
-483
-479
-477
-473
-471
-469
-465
-460
-456
-453
-450
-444
-441
-438
-433
-427
-422
-417
-416
-419
-422
-429
-438
-446
-453
-463
-471
-480
-487
-492
-493
-495
-496
-498
-499
-498
-498
-498
-498
-497
-496
-497
-496
-495
-495
-494
-493
-493
-493
-495
-495
-493
-492
-493
-493
-494
-493
-493
-493
-493
-494
-494
-493
-494
-494
-495
-495
-494
-495
-495
-495
-496
-493
-490
-489
-487
-487
-480
-477
-477
-474
-473
-470
-467
-463
-460
-461
-463
-463
-466
-470
-477
-484
-493
-497
-501
-502
-502
-504
-504
-505
-505
-505
-505
-505
-505
-505
-505
-505
-504
-502
-503
-505
-504
-490
-459
-403
-322
-234
-174
-171
-235
-340
-456
-531
-548
-535
-514
-500
-495
-497
-501
-503
-502
-502
-501
-501
-501
-499
-498
-499
-498
-498
-497
-496
-493
-496
-495
-494
-495
-494
-493
-491
-490
-490
-490
-487
-487
-487
-485
-487
-484
-481
-480
-477
-474
-473
-470
-467
-463
-460
-458
-453
-450
-446
-443
-440
-436
-432
-427
-422
-419
-416
-417
-419
-426
-433
-442
-452
-460
-468
-474
-480
-486
-489
-490
-490
-490
-491
-492
-492
-493
-495
-493
-493
-492
-491
-493
-491
-490
-490
-490
-490
-490
-490
-489
-487
-488
-489
-489
-489
-489
-489
-489
-490
-489
-489
-489
-489
-490
-490
-491
-490
-492
-493
-491
-489
-487
-484
-483
-479
-477
-477
-475
-470
-471
-467
-464
-459
-456
-460
-459
-460
-464
-467
-473
-480
-489
-495
-499
-499
-501
-501
-501
-501
-501
-501
-503
-503
-504
-504
-501
-501
-500
-499
-501
-498
-496
-480
-443
-373
-284
-201
-171
-211
-304
-417
-500
-533
-528
-511
-499
-493
-495
-498
-501
-501
-503
-502
-501
-501
-500
-499
-498
-498
-497
-496
-497
-496
-497
-496
-495
-495
-495
-493
-491
-490
-490
-490
-489
-489
-487
-487
-485
-484
-484
-480
-480
-477
-475
-471
-469
-467
-460
-461
-458
-455
-450
-443
-443
-438
-435
-430
-424
-420
-416
-416
-419
-424
-432
-440
-450
-458
-467
-474
-478
-484
-487
-490
-491
-492
-492
-494
-494
-494
-491
-492
-491
-490
-491
-491
-491
-490
-490
-490
-494
-490
-490
-489
-490
-491
-490
-490
-490
-490
-490
-489
-489
-489
-490
-491
-490
-491
-490
-490
-490
-490
-490
-490
-490
-489
-488
-484
-481
-477
-476
-474
-473
-473
-471
-468
-464
-460
-459
-459
-460
-463
-466
-470
-475
-483
-490
-498
-498
-500
-501
-502
-504
-502
-503
-502
-503
-504
-504
-504
-503
-502
-502
-502
-502
-501
-495
-477
-436
-365
-275
-200
-169
-208
-297
-404
-491
-531
-529
-513
-500
-492
-494
-497
-501
-504
-505
-505
-504
-504
-502
-502
-501
-501
-504
-499
-500
-499
-500
-499
-497
-496
-494
-493
-493
-493
-494
-493
-494
-491
-490
-490
-488
-486
-484
-484
-481
-480
-477
-474
-470
-467
-464
-462
-460
-456
-453
-449
-446
-443
-438
-430
-427
-421
-419
-417
-417
-424
-432
-440
-451
-460
-468
-477
-483
-487
-490
-494
-496
-497
-496
-496
-497
-497
-497
-496
-496
-495
-495
-493
-495
-495
-496
-496
-496
-494
-493
-493
-493
-494
-495
-493
-493
-492
-494
-494
-494
-495
-498
-496
-497
-497
-496
-499
-498
-498
-497
-497
-497
-497
-496
-493
-490
-487
-484
-480
-480
-480
-480
-478
-474
-470
-468
-466
-465
-467
-470
-475
-480
-489
-498
-504
-506
-507
-508
-508
-511
-511
-511
-511
-514
-511
-511
-511
-511
-511
-509
-508
-508
-510
-512
-506
-489
-446
-375
-285
-212
-199
-256
-357
-470
-545
-564
-549
-527
-510
-504
-505
-509
-511
-511
-512
-507
-511
-509
-508
-508
-507
-507
-507
-507
-506
-506
-504
-504
-502
-501
-502
-500
-501
-501
-499
-499
-496
-495
-493
-492
-490
-490
-489
-487
-484
-480
-478
-474
-473
-471
-470
-466
-461
-456
-453
-449
-444
-440
-434
-430
-426
-422
-419
-419
-424
-433
-443
-455
-463
-470
-480
-484
-493
-496
-498
-498
-499
-502
-501
-502
-502
-502
-502
-503
-503
-502
-500
-499
-499
-500
-500
-501
-500
-499
-499
-499
-500
-501
-501
-499
-498
-499
-499
-499
-499
-501
-501
-501
-501
-502
-501
-504
-504
-504
-505
-501
-499
-497
-496
-496
-490
-487
-486
-487
-487
-487
-484
-478
-474
-470
-470
-473
-476
-477
-483
-489
-495
-501
-507
-511
-511
-514
-514
-515
-515
-516
-514
-516
-517
-515
-515
-514
-514
-514
-514
-514
-514
-511
-499
-467
-406
-321
-244
-212
-254
-355
-477
-563
-589
-574
-548
-524
-512
-507
-507
-510
-511
-514
-514
-514
-512
-511
-510
-509
-509
-508
-507
-505
-506
-507
-505
-505
-505
-504
-502
-501
-500
-499
-499
-497
-498
-497
-494
-495
-490
-489
-487
-487
-487
-481
-480
-474
-472
-468
-463
-460
-458
-456
-452
-448
-443
-439
-434
-429
-424
-422
-420
-423
-430
-437
-446
-455
-464
-473
-480
-485
-489
-493
-496
-497
-499
-500
-498
-499
-499
-502
-499
-499
-500
-499
-500
-497
-496
-496
-495
-495
-495
-495
-495
-495
-495
-495
-496
-495
-497
-496
-495
-496
-495
-495
-496
-495
-496
-498
-498
-497
-498
-499
-498
-497
-497
-496
-493
-490
-487
-483
-483
-480
-480
-480
-477
-471
-466
-466
-464
-467
-467
-467
-473
-477
-484
-492
-499
-503
-505
-507
-507
-509
-508
-507
-508
-507
-507
-507
-508
-507
-507
-507
-507
-507
-507
-507
-498
-473
-420
-341
-253
-185
-179
-248
-352
-468
-544
-558
-542
-517
-504
-500
-501
-506
-504
-505
-505
-507
-506
-504
-504
-502
-503
-502
-502
-502
-501
-501
-501
-500
-501
-500
-498
-496
-496
-495
-493
-493
-492
-492
-489
-490
-489
-487
-484
-484
-483
-480
-477
-474
-468
-469
-465
-463
-460
-454
-453
-448
-444
-441
-434
-432
-428
-423
-419
-419
-420
-426
-435
-444
-455
-463
-469
-477
-481
-487
-490
-494
-494
-495
-495
-495
-496
-495
-495
-495
-494
-494
-493
-494
-495
-495
-494
-492
-492
-491
-493
-495
-494
-494
-493
-491
-493
-493
-493
-492
-493
-494
-493
-493
-493
-495
-496
-495
-495
-495
-495
-495
-496
-494
-492
-490
-487
-484
-480
-479
-478
-478
-477
-475
-473
-467
-464
-462
-462
-463
-462
-466
-471
-480
-484
-492
-496
-500
-504
-503
-504
-504
-504
-504
-504
-504
-504
-505
-505
-504
-504
-503
-503
-502
-504
-500
-490
-465
-410
-328
-239
-176
-176
-245
-350
-459
-526
-539
-524
-507
-496
-493
-495
-499
-501
-503
-502
-502
-501
-501
-502
-500
-500
-499
-499
-500
-496
-496
-494
-495
-495
-493
-493
-494
-493
-491
-490
-489
-489
-489
-487
-486
-484
-483
-481
-480
-480
-477
-474
-472
-468
-466
-463
-460
-458
-453
-449
-446
-441
-437
-433
-429
-421
-417
-416
-418
-422
-426
-435
-443
-453
-460
-467
-476
-480
-484
-487
-489
-490
-490
-490
-491
-491
-493
-492
-491
-491
-490
-490
-490
-490
-490
-489
-489
-487
-488
-489
-489
-490
-490
-489
-487
-486
-487
-490
-489
-490
-489
-490
-493
-490
-490
-490
-490
-491
-490
-490
-490
-491
-491
-490
-490
-489
-485
-482
-479
-477
-474
-474
-474
-473
-469
-466
-461
-461
-459
-460
-460
-462
-467
-473
-480
-487
-492
-495
-499
-499
-500
-500
-500
-501
-503
-501
-501
-502
-501
-504
-502
-501
-499
-498
-501
-499
-495
-475
-435
-362
-274
-199
-171
-212
-300
-406
-490
-528
-527
-511
-497
-492
-492
-495
-496
-499
-500
-500
-501
-500
-499
-498
-499
-499
-498
-498
-499
-496
-496
-497
-496
-497
-493
-491
-491
-492
-492
-490
-490
-487
-487
-485
-484
-484
-480
-479
-477
-476
-473
-471
-468
-467
-466
-463
-460
-455
-453
-448
-445
-441
-438
-434
-429
-423
-419
-416
-416
-418
-423
-431
-440
-449
-458
-464
-473
-480
-484
-487
-489
-489
-490
-490
-491
-492
-492
-492
-491
-490
-490
-490
-490
-489
-489
-489
-489
-490
-489
-489
-489
-490
-490
-489
-489
-489
-490
-490
-490
-490
-490
-490
-490
-491
-491
-491
-492
-495
-493
-494
-492
-493
-495
-494
-494
-492
-493
-491
-489
-486
-482
-479
-477
-474
-474
-474
-473
-468
-463
-462
-463
-464
-465
-467
-471
-477
-483
-489
-497
-499
-502
-504
-503
-502
-503
-504
-504
-504
-505
-509
-507
-506
-506
-503
-504
-502
-505
-506
-501
-484
-446
-379
-296
-219
-179
-202
-277
-379
-474
-530
-538
-524
-507
-500
-498
-501
-504
-505
-505
-505
-506
-502
-505
-504
-505
-504
-503
-502
-502
-502
-501
-501
-500
-498
-497
-498
-500
-495
-494
-495
-494
-494
-492
-490
-488
-487
-487
-485
-484
-483
-480
-477
-473
-472
-471
-468
-466
-460
-456
-455
-452
-447
-442
-438
-432
-426
-423
-419
-417
-418
-424
-433
-441
-451
-461
-468
-477
-480
-489
-489
-492
-495
-496
-499
-496
-496
-496
-496
-497
-496
-496
-495
-495
-495
-495
-495
-494
-493
-493
-495
-495
-497
-497
-497
-495
-494
-493
-493
-495
-496
-495
-496
-495
-495
-496
-496
-497
-500
-501
-500
-501
-498
-498
-498
-497
-501
-498
-496
-495
-491
-489
-484
-483
-480
-480
-480
-477
-474
-470
-468
-468
-467
-467
-470
-473
-478
-484
-490
-497
-502
-504
-508
-509
-511
-511
-508
-510
-511
-511
-511
-511
-510
-507
-508
-507
-509
-511
-514
-508
-498
-471
-419
-345
-268
-211
-211
-273
-376
-483
-553
-572
-557
-532
-514
-505
-505
-506
-508
-511
-511
-512
-510
-508
-505
-506
-505
-507
-505
-506
-505
-504
-502
-501
-501
-503
-502
-500
-499
-498
-500
-496
-496
-495
-494
-494
-490
-489
-487
-486
-485
-483
-480
-479
-477
-476
-470
-467
-464
-460
-455
-451
-448
-444
-440
-434
-428
-423
-421
-419
-419
-421
-426
-433
-443
-453
-463
-471
-480
-484
-489
-493
-498
-496
-496
-497
-498
-501
-499
-499
-498
-498
-499
-498
-497
-497
-496
-497
-496
-495
-495
-495
-495
-495
-495
-495
-496
-497
-497
-496
-495
-497
-497
-499
-499
-497
-498
-498
-499
-498
-499
-499
-499
-500
-501
-500
-499
-497
-495
-495
-489
-485
-484
-483
-484
-480
-480
-475
-471
-467
-465
-466
-467
-468
-472
-479
-486
-491
-499
-501
-505
-507
-508
-508
-508
-508
-509
-508
-511
-510
-508
-508
-507
-506
-507
-507
-508
-507
-506
-497
-471
-418
-345
-262
-200
-197
-258
-360
-471
-545
-563
-547
-524
-508
-501
-501
-504
-506
-506
-506
-505
-504
-505
-504
-502
-501
-501
-501
-501
-501
-499
-499
-499
-497
-499
-497
-496
-495
-494
-492
-491
-491
-490
-490
-489
-487
-485
-486
-487
-480
-478
-475
-473
-470
-470
-467
-465
-460
-456
-455
-450
-447
-443
-439
-435
-430
-426
-420
-419
-416
-418
-423
-430
-440
-450
-460
-467
-473
-480
-487
-489
-490
-493
-493
-495
-495
-493
-494
-495
-496
-498
-495
-493
-493
-491
-494
-493
-491
-490
-490
-493
-493
-492
-491
-491
-491
-491
-491
-491
-492
-492
-494
-493
-493
-494
-495
-494
-494
-493
-495
-496
-495
-494
-495
-495
-495
-495
-495
-493
-492
-489
-487
-487
-483
-480
-477
-477
-472
-473
-469
-465
-462
-461
-463
-463
-467
-472
-475
-483
-489
-495
-499
-501
-502
-502
-502
-504
-504
-504
-504
-504
-505
-505
-504
-504
-503
-501
-501
-502
-504
-504
-495
-473
-426
-350
-267
-199
-176
-222
-311
-419
-504
-539
-535
-517
-501
-492
-494
-497
-499
-501
-502
-502
-501
-501
-501
-501
-501
-500
-499
-499
-497
-497
-496
-496
-497
-497
-496
-495
-494
-492
-491
-490
-490
-489
-487
-487
-485
-487
-484
-483
-483
-477
-477
-474
-473
-468
-469
-466
-463
-458
-455
-451
-448
-445
-442
-436
-433
-427
-423
-419
-418
-415
-418
-422
-430
-438
-445
-455
-463
-470
-477
-480
-485
-487
-490
-490
-491
-492
-492
-493
-492
-492
-493
-491
-490
-490
-490
-493
-490
-490
-490
-490
-491
-490
-490
-490
-490
-490
-490
-490
-490
-490
-490
-490
-490
-490
-490
-490
-490
-490
-492
-493
-491
-491
-492
-493
-493
-493
-495
-495
-494
-491
-489
-487
-484
-480
-477
-477
-477
-473
-473
-470
-467
-463
-458
-460
-461
-463
-465
-468
-475
-480
-485
-491
-497
-501
-502
-502
-502
-502
-504
-504
-503
-504
-503
-504
-504
-504
-503
-504
-504
-504
-504
-502
-493
-470
-426
-356
-274
-205
-185
-229
-316
-419
-502
-533
-533
-514
-501
-496
-496
-501
-502
-504
-504
-504
-504
-505
-505
-504
-502
-501
-501
-500
-501
-501
-500
-499
-496
-496
-497
-496
-496
-493
-495
-493
-491
-491
-491
-490
-489
-487
-485
-484
-483
-480
-479
-477
-473
-473
-470
-468
-464
-458
-458
-455
-453
-449
-444
-440
-435
-430
-426
-423
-419
-419
-423
-429
-437
-446
-455
-463
-472
-479
-484
-487
-490
-492
-493
-495
-496
-495
-495
-495
-496
-496
-497
-497
-495
-496
-497
-493
-495
-495
-495
-495
-491
-492
-492
-493
-494
-493
-493
-493
-492
-493
-494
-493
-494
-495
-494
-495
-495
-494
-495
-496
-496
-496
-497
-496
-497
-496
-495
-495
-495
-493
-491
-487
-484
-482
-480
-479
-483
-477
-474
-470
-466
-462
-465
-466
-467
-470
-473
-480
-487
-493
-497
-502
-504
-505
-506
-505
-506
-507
-508
-507
-507
-507
-508
-509
-507
-507
-507
-506
-505
-506
-506
-497
-474
-426
-354
-271
-206
-198
-255
-343
-443
-511
-535
-530
-511
-501
-497
-499
-504
-505
-507
-506
-507
-507
-507
-507
-507
-505
-505
-505
-504
-504
-504
-503
-502
-501
-500
-500
-499
-499
-498
-496
-497
-495
-495
-494
-494
-493
-490
-487
-487
-486
-484
-482
-479
-480
-474
-473
-470
-467
-460
-461
-456
-453
-450
-445
-441
-436
-432
-426
-424
-421
-421
-424
-430
-440
-448
-457
-468
-475
-481
-485
-489
-493
-495
-496
-498
-495
-497
-498
-498
-499
-500
-499
-499
-498
-497
-498
-495
-496
-497
-498
-500
-499
-499
-498
-497
-496
-496
-495
-495
-496
-497
-496
-497
-498
-499
-499
-499
-499
-499
-498
-499
-499
-501
-500
-501
-501
-501
-500
-500
-499
-497
-495
-491
-487
-485
-483
-484
-483
-480
-477
-473
-468
-466
-468
-470
-471
-474
-481
-485
-490
-496
-503
-506
-507
-510
-511
-511
-511
-512
-513
-514
-514
-514
-514
-514
-512
-514
-512
-511
-511
-514
-508
-493
-461
-402
-321
-244
-199
-220
-297
-399
-493
-542
-545
-532
-514
-506
-504
-507
-511
-511
-514
-512
-514
-514
-514
-514
-511
-512
-511
-511
-509
-510
-508
-508
-507
-507
-507
-505
-504
-504
-504
-504
-504
-503
-500
-497
-496
-495
-495
-494
-492
-489
-487
-484
-483
-480
-477
-474
-471
-468
-463
-463
-459
-455
-450
-447
-444
-439
-433
-426
-423
-421
-420
-426
-433
-443
-452
-461
-470
-478
-485
-493
-497
-499
-500
-501
-502
-503
-504
-504
-504
-504
-504
-504
-503
-501
-502
-503
-504
-502
-501
-501
-502
-502
-502
-502
-502
-504
-503
-502
-504
-505
-505
-505
-505
-502
-502
-504
-505
-505
-504
-505
-504
-506
-505
-506
-506
-506
-504
-502
-498
-496
-493
-493
-490
-489
-489
-487
-484
-480
-477
-476
-477
-477
-474
-477
-480
-484
-490
-500
-504
-509
-512
-515
-517
-516
-516
-514
-517
-517
-518
-520
-520
-518
-516
-516
-514
-515
-514
-516
-517
-514
-502
-477
-427
-353
-273
-218
-222
-287
-387
-496
-560
-572
-557
-535
-517
-511
-511
-512
-514
-520
-516
-516
-514
-515
-514
-514
-511
-510
-511
-511
-511
-511
-511
-508
-507
-506
-506
-507
-507
-505
-504
-501
-501
-499
-498
-498
-497
-495
-493
-493
-490
-489
-487
-484
-480
-479
-477
-472
-469
-467
-463
-457
-456
-453
-450
-444
-436
-434
-429
-424
-420
-420
-424
-430
-438
-446
-455
-465
-473
-483
-487
-491
-496
-497
-499
-501
-502
-504
-504
-504
-504
-504
-502
-500
-502
-501
-501
-500
-501
-501
-500
-501
-499
-502
-498
-500
-499
-500
-503
-500
-499
-498
-499
-501
-501
-501
-501
-502
-502
-501
-500
-501
-502
-503
-503
-501
-502
-501
-500
-497
-494
-491
-488
-485
-484
-484
-484
-482
-477
-473
-470
-467
-468
-471
-471
-474
-477
-484
-490
-498
-506
-506
-507
-507
-508
-512
-510
-511
-511
-511
-511
-511
-511
-511
-511
-508
-507
-507
-509
-509
-505
-493
-457
-396
-316
-237
-195
-212
-285
-386
-487
-545
-555
-541
-521
-506
-501
-502
-505
-507
-507
-506
-507
-505
-505
-506
-505
-507
-504
-504
-504
-502
-502
-500
-501
-500
-500
-500
-498
-497
-494
-494
-493
-494
-493
-492
-491
-490
-489
-487
-485
-483
-480
-479
-474
-474
-470
-468
-466
-463
-460
-456
-453
-449
-443
-443
-437
-432
-426
-419
-419
-417
-417
-421
-426
-436
-443
-453
-460
-467
-474
-480
-485
-490
-491
-493
-493
-495
-495
-496
-496
-495
-494
-494
-494
-495
-495
-494
-493
-493
-493
-492
-492
-492
-491
-494
-492
-492
-492
-491
-490
-494
-491
-491
-491
-493
-493
-491
-492
-494
-495
-495
-494
-495
-493
-493
-493
-494
-493
-493
-490
-487
-484
-480
-479
-477
-477
-477
-474
-471
-467
-464
-461
-461
-462
-463
-466
-469
-473
-478
-485
-492
-498
-503
-502
-503
-502
-503
-506
-504
-504
-505
-505
-505
-504
-502
-502
-501
-502
-501
-501
-502
-496
-477
-439
-375
-294
-222
-180
-199
-267
-361
-455
-516
-533
-524
-508
-498
-494
-495
-498
-499
-501
-502
-503
-502
-501
-501
-500
-500
-501
-500
-498
-499
-498
-499
-495
-495
-495
-495
-494
-493
-493
-491
-491
-490
-490
-489
-488
-487
-485
-485
-484
-480
-477
-475
-474
-471
-471
-469
-466
-463
-458
-455
-451
-449
-443
-441
-436
-433
-429
-423
-416
-414
-415
-414
-417
-421
-430
-441
-450
-460
-467
-474
-479
-481
-485
-487
-489
-490
-491
-491
-490
-491
-491
-491
-491
-491
-490
-490
-490
-490
-489
-489
-487
-487
-487
-488
-489
-489
-487
-488
-487
-489
-492
-489
-489
-490
-490
-491
-490
-490
-490
-491
-491
-491
-490
-490
-489
-490
-490
-491
-490
-489
-484
-480
-477
-475
-474
-474
-473
-470
-467
-464
-461
-460
-459
-460
-460
-464
-468
-473
-478
-484
-490
-495
-498
-500
-501
-501
-501
-502
-501
-502
-502
-502
-504
-502
-503
-503
-501
-501
-499
-501
-499
-494
-477
-436
-372
-290
-219
-182
-206
-278
-375
-466
-517
-529
-517
-503
-493
-492
-494
-496
-499
-501
-500
-501
-501
-501
-501
-499
-499
-501
-498
-498
-497
-497
-498
-497
-496
-494
-494
-495
-493
-490
-490
-489
-490
-489
-487
-487
-486
-484
-484
-482
-480
-478
-477
-474
-473
-471
-468
-466
-462
-459
-456
-453
-449
-444
-440
-436
-433
-429
-423
-417
-416
-415
-416
-419
-424
-433
-442
-451
-461
-468
-474
-480
-484
-487
-491
-493
-493
-494
-493
-494
-493
-494
-492
-493
-493
-492
-492
-491
-491
-491
-491
-492
-492
-491
-490
-491
-491
-490
-490
-490
-490
-491
-490
-491
-491
-491
-494
-491
-492
-493
-493
-496
-495
-495
-495
-495
-495
-493
-494
-491
-490
-487
-484
-482
-477
-477
-477
-478
-474
-472
-466
-464
-464
-464
-466
-465
-468
-471
-477
-483
-489
-494
-499
-502
-503
-504
-504
-506
-508
-507
-507
-507
-507
-510
-506
-506
-505
-505
-505
-504
-505
-506
-502
-487
-454
-395
-317
-240
-191
-198
-256
-343
-438
-507
-532
-528
-514
-502
-497
-498
-498
-502
-504
-505
-505
-506
-507
-507
-506
-506
-505
-504
-502
-501
-502
-504
-502
-501
-501
-500
-499
-497
-496
-496
-496
-497
-495
-494
-491
-490
-489
-489
-487
-487
-485
-483
-480
-477
-474
-472
-470
-469
-465
-461
-458
-455
-452
-449
-443
-436
-432
-426
-423
-419
-418
-419
-422
-426
-435
-443
-453
-463
-470
-479
-483
-487
-492
-495
-496
-499
-499
-500
-499
-499
-498
-498
-499
-497
-499
-499
-499
-500
-498
-497
-496
-496
-496
-498
-498
-496
-498
-496
-495
-496
-496
-497
-498
-497
-499
-501
-499
-497
-497
-499
-501
-499
-499
-500
-502
-503
-501
-501
-499
-496
-495
-491
-489
-485
-484
-484
-484
-484
-480
-475
-470
-469
-468
-470
-471
-473
-475
-477
-484
-489
-495
-502
-507
-510
-511
-513
-511
-512
-511
-512
-514
-512
-514
-512
-513
-511
-511
-511
-508
-510
-511
-511
-502
-481
-437
-372
-296
-229
-206
-240
-320
-419
-507
-550
-554
-538
-520
-507
-504
-505
-508
-511
-511
-511
-511
-511
-510
-509
-510
-510
-508
-507
-506
-506
-508
-508
-507
-507
-505
-506
-501
-501
-502
-501
-499
-499
-498
-496
-495
-495
-493
-490
-489
-487
-487
-486
-483
-480
-477
-474
-470
-468
-465
-460
-457
-453
-449
-444
-441
-439
-434
-430
-424
-420
-418
-419
-423
-433
-440
-450
-459
-464
-477
-484
-490
-495
-498
-499
-500
-501
-502
-504
-503
-504
-504
-502
-503
-504
-504
-504
-502
-502
-501
-502
-502
-504
-504
-504
-502
-501
-501
-503
-504
-503
-502
-503
-502
-502
-502
-504
-504
-505
-505
-507
-505
-505
-504
-505
-505
-502
-501
-499
-497
-494
-491
-490
-489
-489
-489
-484
-480
-477
-477
-477
-477
-477
-480
-482
-487
-491
-498
-506
-511
-514
-514
-514
-517
-518
-520
-520
-518
-518
-517
-519
-520
-522
-519
-518
-517
-516
-520
-518
-520
-515
-499
-463
-402
-325
-251
-216
-243
-323
-429
-524
-572
-578
-558
-537
-521
-514
-511
-514
-515
-516
-516
-515
-517
-514
-514
-514
-514
-514
-511
-512
-511
-511
-510
-510
-508
-508
-507
-506
-507
-505
-504
-504
-503
-504
-501
-499
-498
-495
-495
-493
-490
-490
-487
-485
-483
-480
-477
-472
-469
-466
-462
-460
-456
-453
-450
-446
-440
-434
-430
-425
-423
-423
-425
-431
-438
-448
-458
-467
-476
-484
-492
-494
-498
-501
-502
-506
-504
-504
-504
-504
-505
-505
-504
-505
-505
-506
-505
-504
-501
-501
-500
-501
-500
-500
-499
-500
-499
-500
-499
-501
-501
-500
-499
-499
-499
-500
-501
-501
-501
-502
-502
-502
-504
-500
-499
-499
-500
-501
-495
-491
-487
-486
-484
-484
-484
-482
-477
-475
-473
-472
-471
-473
-473
-474
-477
-483
-487
-494
-501
-504
-507
-511
-511
-511
-510
-511
-511
-510
-511
-511
-511
-512
-511
-511
-509
-508
-508
-508
-510
-512
-504
-485
-445
-381
-296
-225
-187
-208
-279
-378
-473
-533
-551
-539
-521
-507
-501
-501
-502
-505
-507
-506
-506
-507
-506
-505
-504
-504
-504
-502
-504
-504
-502
-502
-502
-501
-499
-499
-498
-497
-497
-498
-495
-495
-494
-493
-493
-489
-487
-487
-487
-485
-483
-480
-477
-475
-471
-470
-467
-464
-460
-458
-452
-449
-445
-443
-440
-435
-430
-426
-422
-419
-416
-418
-423
-427
-435
-444
-453
-461
-470
-477
-483
-489
-490
-492
-493
-497
-499
-498
-497
-497
-497
-496
-496
-496
-497
-497
-496
-494
-494
-494
-494
-494
-493
-494
-493
-495
-493
-494
-493
-494
-495
-495
-495
-495
-494
-495
-493
-494
-495
-495
-495
-495
-495
-495
-495
-497
-496
-495
-495
-490
-486
-483
-480
-481
-479
-479
-477
-474
-468
-465
-463
-466
-465
-467
-468
-470
-475
-480
-487
-494
-499
-502
-504
-504
-504
-505
-505
-507
-507
-507
-507
-507
-507
-507
-506
-506
-505
-504
-505
-507
-507
-493
-468
-421
-348
-264
-201
-186
-236
-328
-435
-511
-536
-531
-514
-501
-496
-497
-499
-502
-504
-504
-504
-502
-503
-502
-502
-501
-501
-501
-499
-501
-498
-501
-498
-497
-497
-496
-496
-495
-494
-494
-493
-492
-492
-490
-490
-491
-487
-486
-484
-483
-480
-477
-475
-474
-472
-468
-465
-463
-460
-455
-451
-447
-446
-442
-438
-434
-431
-426
-421
-418
-415
-416
-419
-428
-436
-445
-455
-463
-470
-477
-481
-487
-490
-491
-493
-494
-493
-496
-495
-495
-495
-495
-496
-494
-495
-495
-495
-494
-493
-493
-492
-493
-493
-493
-493
-492
-492
-493
-492
-492
-491
-492
-492
-491
-491
-493
-492
-493
-493
-493
-493
-493
-493
-494
-495
-494
-493
-491
-489
-488
-480
-478
-477
-477
-479
-475
-473
-469
-466
-463
-462
-462
-466
-467
-471
-477
-483
-490
-495
-500
-501
-502
-502
-503
-504
-504
-504
-506
-505
-505
-507
-505
-504
-504
-504
-504
-504
-505
-504
-497
-480
-440
-375
-293
-217
-185
-211
-285
-382
-473
-521
-533
-521
-505
-495
-494
-499
-501
-504
-504
-504
-504
-504
-503
-501
-501
-501
-501
-500
-500
-499
-497
-498
-498
-496
-496
-496
-496
-495
-494
-494
-491
-490
-490
-489
-489
-487
-486
-487
-483
-480
-477
-475
-472
-470
-469
-466
-462
-459
-455
-453
-450
-445
-442
-437
-433
-429
-423
-420
-417
-415
-416
-420
-426
-434
-444
-455
-463
-473
-478
-484
-487
-491
-494
-495
-495
-495
-495
-495
-496
-496
-495
-495
-495
-494
-497
-494
-495
-493
-494
-493
-494
-493
-494
-494
-494
-493
-493
-493
-494
-493
-494
-493
-493
-493
-494
-494
-495
-495
-497
-496
-496
-496
-496
-495
-495
-495
-494
-491
-487
-485
-484
-480
-479
-479
-477
-477
-472
-470
-467
-467
-467
-465
-469
-471
-477
-480
-487
-494
-500
-504
-506
-507
-507
-507
-507
-507
-508
-508
-509
-511
-508
-507
-509
-508
-507
-507
-506
-507
-507
-502
-483
-441
-372
-290
-219
-192
-228
-308
-407
-487
-528
-532
-520
-507
-499
-499
-501
-504
-507
-507
-508
-507
-507
-505
-505
-504
-504
-504
-505
-505
-504
-504
-503
-501
-501
-499
-499
-499
-497
-497
-495
-496
-495
-493
-491
-491
-490
-490
-487
-487
-487
-482
-480
-477
-474
-468
-467
-465
-461
-457
-453
-450
-447
-443
-439
-434
-429
-425
-422
-419
-420
-424
-430
-438
-446
-456
-465
-472
-480
-485
-489
-493
-496
-498
-499
-499
-501
-501
-501
-501
-500
-499
-499
-499
-499
-499
-499
-502
-499
-498
-497
-498
-500
-498
-497
-498
-498
-498
-496
-497
-497
-497
-497
-498
-498
-499
-499
-499
-501
-501
-501
-500
-500
-499
-500
-499
-499
-496
-495
-492
-490
-487
-484
-484
-484
-483
-481
-475
-471
-467
-468
-469
-470
-471
-472
-477
-484
-490
-497
-504
-507
-509
-511
-511
-511
-510
-510
-510
-510
-511
-511
-511
-511
-511
-510
-508
-509
-511
-514
-509
-499
-473
-425
-351
-270
-211
-203
-253
-339
-436
-507
-536
-534
-521
-508
-502
-505
-505
-507
-511
-512
-511
-510
-509
-507
-507
-508
-509
-509
-507
-507
-505
-505
-505
-504
-504
-503
-504
-503
-503
-501
-498
-497
-497
-497
-496
-495
-494
-491
-489
-487
-485
-484
-480
-478
-474
-471
-468
-463
-463
-460
-456
-451
-446
-444
-439
-436
-430
-426
-421
-419
-419
-425
-431
-440
-448
-456
-466
-473
-480
-487
-491
-495
-498
-501
-502
-503
-502
-503
-502
-501
-502
-502
-501
-501
-501
-500
-499
-499
-500
-504
-501
-501
-500
-501
-501
-500
-499
-501
-501
-501
-500
-499
-499
-500
-501
-501
-501
-502
-504
-504
-504
-505
-504
-504
-504
-502
-501
-501
-499
-497
-495
-492
-490
-487
-485
-485
-484
-481
-477
-475
-474
-473
-473
-474
-477
-478
-487
-489
-495
-501
-506
-512
-511
-512
-514
-514
-514
-514
-514
-514
-514
-514
-514
-514
-514
-514
-514
-514
-514
-514
-512
-501
-471
-416
-338
-259
-211
-221
-292
-392
-493
-551
-561
-545
-526
-514
-507
-508
-512
-511
-514
-514
-514
-514
-509
-507
-508
-510
-511
-511
-508
-507
-507
-508
-507
-504
-504
-504
-502
-502
-501
-500
-499
-498
-496
-495
-493
-493
-492
-491
-486
-486
-484
-480
-477
-477
-474
-469
-467
-463
-456
-455
-450
-447
-443
-438
-436
-431
-426
-421
-417
-417
-419
-426
-433
-443
-453
-463
-473
-479
-484
-490
-493
-498
-500
-501
-501
-503
-504
-505
-505
-506
-505
-504
-504
-504
-504
-503
-502
-502
-501
-501
-499
-501
-501
-502
-501
-505
-502
-501
-501
-502
-504
-502
-504
-503
-502
-504
-504
-503
-504
-504
-505
-504
-504
-504
-502
-501
-499
-497
-495
-491
-489
-487
-487
-487
-487
-484
-480
-477
-474
-475
-477
-477
-478
-481
-487
-493
-499
-507
-508
-511
-512
-513
-517
-514
-515
-514
-514
-517
-516
-515
-516
-516
-515
-514
-514
-514
-514
-515
-514
-504
-479
-432
-360
-280
-219
-205
-253
-341
-448
-533
-570
-566
-545
-526
-511
-508
-509
-511
-511
-512
-511
-511
-508
-509
-511
-510
-508
-508
-507
-508
-507
-506
-505
-504
-504
-503
-501
-501
-500
-499
-498
-497
-496
-495
-494
-492
-491
-490
-490
-487
-485
-483
-480
-477
-474
-471
-468
-466
-462
-458
-453
-450
-446
-443
-440
-435
-428
-426
-419
-416
-414
-414
-421
-429
-440
-447
-456
-466
-471
-480
-487
-490
-493
-496
-497
-498
-499
-500
-500
-499
-499
-497
-498
-498
-497
-498
-497
-497
-495
-496
-495
-495
-495
-495
-494
-495
-495
-496
-498
-495
-493
-494
-495
-499
-496
-496
-497
-496
-498
-497
-497
-497
-497
-497
-498
-497
-496
-497
-496
-495
-491
-489
-486
-484
-482
-480
-480
-479
-477
-475
-470
-467
-465
-467
-467
-468
-470
-473
-478
-484
-490
-497
-501
-502
-504
-507
-505
-506
-505
-506
-508
-507
-507
-507
-505
-506
-505
-503
-503
-503
-505
-504
-495
-470
-424
-351
-267
-200
-177
-220
-310
-416
-500
-538
-535
-517
-504
-495
-495
-499
-501
-502
-504
-504
-504
-503
-501
-504
-501
-499
-500
-499
-501
-499
-498
-496
-496
-496
-495
-495
-493
-491
-492
-490
-490
-489
-487
-487
-486
-485
-484
-480
-480
-477
-477
-473
-470
-467
-464
-461
-457
-455
-452
-448
-444
-440
-436
-432
-427
-423
-419
-414
-412
-414
-415
-424
-433
-443
-453
-461
-468
-473
-480
-484
-487
-490
-492
-494
-493
-493
-494
-494
-493
-493
-493
-494
-493
-493
-493
-492
-493
-494
-492
-493
-491
-492
-492
-491
-490
-490
-490
-490
-490
-490
-490
-491
-494
-492
-490
-490
-490
-493
-492
-493
-493
-493
-494
-494
-494
-494
-492
-490
-487
-484
-481
-479
-477
-477
-477
-475
-470
-466
-463
-462
-462
-463
-464
-467
-471
-477
-483
-489
-495
-497
-501
-502
-503
-504
-507
-505
-505
-504
-504
-507
-504
-504
-504
-502
-502
-501
-502
-504
-500
-489
-457
-399
-317
-234
-180
-189
-253
-348
-446
-514
-533
-526
-510
-498
-493
-495
-495
-501
-502
-502
-501
-501
-502
-503
-501
-500
-499
-497
-498
-497
-497
-499
-496
-495
-493
-495
-495
-493
-491
-490
-489
-489
-487
-487
-485
-484
-480
-480
-479
-478
-474
-473
-470
-467
-463
-460
-457
-455
-451
-448
-443
-440
-435
-430
-426
-420
-418
-414
-413
-413
-418
-426
-433
-440
-452
-460
-469
-477
-484
-485
-487
-489
-490
-494
-493
-495
-495
-495
-496
-495
-495
-493
-493
-494
-493
-493
-492
-494
-493
-492
-491
-491
-491
-490
-490
-489
-490
-491
-491
-492
-492
-491
-491
-491
-493
-496
-493
-493
-493
-493
-496
-494
-493
-493
-494
-495
-493
-491
-488
-484
-482
-479
-477
-477
-477
-477
-473
-470
-465
-463
-462
-463
-465
-467
-468
-473
-480
-487
-495
-500
-500
-503
-504
-505
-505
-504
-505
-504
-505
-505
-505
-505
-508
-504
-502
-503
-504
-507
-505
-496
-474
-429
-357
-274
-208
-189
-233
-317
-412
-491
-528
-530
-516
-504
-496
-495
-497
-501
-504
-504
-504
-503
-502
-503
-501
-503
-502
-501
-501
-499
-499
-500
-499
-499
-501
-497
-496
-495
-493
-495
-493
-491
-490
-489
-489
-487
-487
-486
-483
-483
-480
-477
-474
-471
-467
-463
-460
-458
-455
-452
-447
-443
-440
-435
-431
-426
-420
-417
-415
-416
-418
-424
-433
-441
-453
-460
-467
-477
-483
-487
-491
-497
-495
-496
-496
-497
-498
-497
-499
-498
-498
-497
-496
-495
-496
-495
-495
-496
-497
-496
-495
-494
-495
-495
-494
-493
-494
-494
-493
-494
-495
-495
-496
-496
-496
-497
-496
-496
-497
-497
-496
-496
-496
-500
-498
-498
-498
-497
-497
-493
-490
-487
-485
-484
-480
-481
-481
-480
-477
-470
-467
-467
-465
-467
-467
-472
-474
-479
-484
-490
-497
-502
-505
-505
-507
-507
-507
-507
-508
-509
-508
-509
-509
-509
-508
-509
-506
-507
-505
-507
-510
-505
-496
-472
-426
-352
-271
-208
-202
-254
-345
-443
-511
-534
-527
-511
-501
-498
-499
-503
-504
-507
-507
-507
-507
-507
-507
-503
-505
-505
-505
-504
-503
-502
-501
-501
-499
-501
-499
-499
-498
-496
-499
-496
-494
-491
-490
-491
-489
-487
-487
-484
-483
-480
-477
-477
-475
-471
-468
-463
-461
-456
-453
-448
-444
-441
-436
-433
-429
-424
-421
-418
-419
-420
-427
-435
-444
-456
-465
-473
-480
-487
-490
-495
-499
-498
-499
-500
-498
-501
-499
-499
-500
-500
-501
-501
-499
-499
-499
-499
-500
-499
-499
-497
-498
-499
-498
-497
-497
-497
-499
-500
-499
-498
-498
-499
-499
-498
-499
-499
-499
-500
-501
-501
-500
-501
-504
-501
-502
-502
-502
-502
-498
-494
-490
-489
-487
-487
-485
-484
-483
-479
-474
-470
-470
-470
-471
-471
-473
-477
-483
-490
-497
-502
-505
-509
-508
-511
-511
-512
-513
-514
-512
-512
-514
-514
-511
-512
-511
-511
-510
-511
-511
-514
-505
-487
-447
-382
-301
-233
-206
-243
-328
-433
-514
-545
-541
-524
-509
-504
-502
-506
-508
-511
-511
-512
-511
-511
-508
-509
-507
-507
-507
-506
-506
-505
-505
-505
-504
-502
-501
-500
-498
-497
-496
-498
-496
-495
-493
-493
-493
-490
-487
-484
-484
-483
-480
-477
-473
-468
-465
-463
-459
-455
-450
-447
-441
-437
-433
-429
-423
-419
-415
-414
-416
-420
-428
-438
-446
-456
-466
-472
-480
-487
-492
-495
-498
-501
-501
-501
-502
-502
-504
-500
-499
-501
-501
-501
-500
-500
-501
-501
-501
-500
-498
-498
-499
-501
-501
-501
-500
-500
-498
-497
-498
-498
-499
-500
-501
-502
-502
-502
-501
-501
-501
-501
-501
-501
-502
-503
-505
-504
-502
-499
-500
-493
-490
-488
-487
-489
-487
-487
-483
-477
-474
-471
-471
-471
-471
-474
-481
-487
-494
-501
-505
-510
-512
-514
-514
-514
-514
-514
-514
-515
-514
-514
-514
-514
-514
-514
-514
-512
-511
-514
-514
-507
-490
-446
-378
-298
-233
-219
-269
-363
-471
-548
-575
-564
-541
-521
-511
-508
-508
-511
-512
-514
-512
-513
-512
-511
-511
-510
-511
-511
-509
-508
-505
-505
-501
-505
-504
-502
-502
-502
-501
-500
-498
-497
-497
-495
-493
-492
-491
-490
-487
-483
-482
-480
-477
-474
-470
-466
-462
-457
-453
-450
-446
-442
-439
-433
-429
-423
-419
-416
-413
-415
-419
-426
-436
-447
-457
-468
-477
-484
-490
-494
-497
-500
-500
-501
-502
-504
-503
-505
-505
-508
-504
-503
-501
-500
-504
-502
-501
-501
-499
-501
-499
-500
-500
-500
-499
-497
-498
-499
-501
-501
-501
-500
-499
-500
-500
-501
-501
-501
-501
-501
-501
-501
-501
-500
-498
-496
-494
-490
-487
-487
-487
-489
-484
-480
-474
-471
-467
-470
-470
-472
-474
-477
-481
-488
-494
-501
-504
-508
-508
-509
-511
-511
-511
-511
-513
-512
-514
-512
-511
-511
-511
-508
-508
-506
-509
-509
-505
-487
-446
-376
-290
-219
-205
-260
-358
-467
-542
-565
-555
-532
-514
-502
-501
-503
-504
-505
-506
-507
-506
-505
-505
-504
-504
-504
-501
-501
-499
-499
-499
-498
-498
-497
-496
-495
-493
-493
-491
-491
-489
-489
-487
-486
-484
-481
-480
-479
-477
-474
-471
-468
-462
-460
-457
-453
-449
-443
-441
-437
-433
-429
-423
-419
-413
-411
-409
-410
-415
-421
-430
-439
-450
-458
-466
-473
-480
-484
-487
-490
-492
-493
-494
-495
-493
-495
-495
-494
-494
-494
-495
-495
-495
-495
-496
-493
-491
-491
-491
-495
-491
-491
-490
-490
-491
-491
-491
-490
-491
-492
-491
-491
-490
-491
-491
-493
-492
-492
-492
-493
-492
-493
-492
-493
-491
-490
-487
-484
-480
-479
-478
-477
-477
-474
-473
-470
-465
-463
-461
-461
-461
-460
-466
-469
-477
-483
-490
-497
-499
-501
-501
-502
-501
-502
-501
-501
-502
-503
-502
-501
-502
-500
-499
-499
-499
-501
-500
-491
-465
-417
-344
-259
-190
-172
-210
-298
-405
-491
-534
-533
-516
-498
-490
-493
-493
-496
-496
-498
-500
-499
-498
-497
-496
-495
-494
-495
-493
-493
-494
-493
-493
-491
-490
-489
-489
-488
-487
-486
-484
-484
-481
-481
-480
-478
-474
-472
-473
-470
-468
-467
-463
-460
-458
-455
-449
-443
-442
-438
-434
-430
-423
-419
-416
-411
-408
-406
-407
-410
-416
-424
-433
-443
-450
-460
-467
-473
-477
-483
-484
-487
-489
-490
-491
-491
-491
-490
-489
-490
-490
-490
-490
-490
-489
-490
-489
-489
-488
-487
-487
-487
-487
-487
-489
-487
-487
-487
-487
-490
-487
-487
-489
-489
-489
-487
-487
-487
-487
-489
-489
-488
-489
-490
-489
-487
-487
-483
-480
-477
-474
-473
-473
-471
-471
-468
-465
-460
-457
-458
-459
-460
-463
-467
-473
-480
-489
-491
-495
-497
-499
-501
-499
-499
-500
-500
-499
-499
-499
-499
-498
-498
-498
-497
-496
-496
-498
-497
-490
-467
-419
-340
-253
-190
-185
-248
-348
-451
-514
-527
-514
-496
-487
-488
-490
-494
-496
-498
-497
-497
-496
-496
-495
-497
-495
-496
-496
-494
-494
-490
-490
-490
-490
-490
-487
-487
-486
-485
-483
-481
-480
-479
-477
-477
-474
-473
-470
-468
-467
-463
-462
-460
-455
-453
-450
-446
-443
-437
-433
-429
-426
-420
-418
-413
-409
-404
-406
-406
-410
-416
-423
-435
-445
-453
-462
-467
-474
-480
-483
-484
-487
-487
-489
-490
-490
-490
-490
-490
-489
-489
-487
-488
-489
-489
-489
-487
-487
-484
-485
-485
-485
-487
-487
-487
-487
-485
-486
-490
-487
-489
-487
-487
-489
-487
-487
-489
-489
-489
-489
-490
-490
-490
-489
-489
-487
-486
-484
-480
-477
-474
-473
-471
-473
-471
-468
-466
-460
-458
-458
-458
-460
-461
-465
-469
-475
-482
-487
-492
-496
-497
-498
-499
-498
-498
-502
-500
-501
-501
-500
-503
-500
-500
-498
-497
-500
-500
-497
-490
-465
-414
-338
-253
-192
-188
-246
-337
-435
-505
-526
-517
-503
-493
-489
-492
-494
-498
-498
-500
-499
-499
-499
-497
-496
-497
-497
-497
-500
-495
-493
-493
-493
-495
-493
-492
-490
-489
-489
-487
-487
-487
-487
-485
-483
-480
-480
-477
-475
-473
-471
-470
-467
-463
-458
-454
-450
-447
-443
-439
-435
-430
-426
-423
-418
-415
-412
-410
-410
-412
-416
-426
-436
-446
-456
-463
-473
-479
-484
-487
-490
-491
-493
-493
-493
-494
-493
-493
-493
-494
-493
-493
-493
-493
-493
-493
-493
-491
-491
-491
-491
-492
-492
-491
-490
-490
-492
-492
-491
-491
-491
-492
-492
-492
-491
-490
-491
-495
-492
-493
-493
-495
-496
-495
-493
-494
-493
-493
-491
-490
-486
-483
-480
-477
-477
-477
-475
-471
-467
-464
-463
-463
-465
-467
-470
-477
-480
-489
-495
-499
-501
-503
-504
-507
-507
-507
-507
-506
-505
-509
-506
-507
-507
-507
-509
-506
-504
-503
-504
-500
-480
-441
-372
-291
-220
-199
-236
-321
-422
-504
-537
-535
-521
-506
-498
-498
-502
-504
-505
-505
-504
-503
-504
-505
-504
-504
-504
-503
-502
-500
-499
-499
-499
-499
-498
-497
-497
-494
-493
-492
-491
-490
-489
-487
-487
-485
-484
-481
-480
-477
-473
-470
-467
-463
-461
-457
-455
-450
-445
-443
-438
-435
-430
-424
-419
-414
-411
-409
-412
-416
-423
-432
-440
-453
-462
-471
-480
-486
-491
-491
-495
-497
-498
-501
-498
-497
-499
-500
-500
-499
-498
-497
-496
-497
-496
-496
-495
-495
-496
-497
-496
-497
-496
-496
-496
-496
-496
-496
-498
-498
-496
-496
-496
-495
-496
-497
-499
-498
-499
-500
-502
-499
-499
-498
-496
-497
-493
-491
-489
-487
-485
-484
-483
-480
-479
-474
-470
-469
-467
-468
-470
-473
-477
-483
-488
-495
-500
-504
-506
-508
-508
-511
-511
-511
-511
-511
-511
-511
-511
-511
-511
-510
-508
-508
-508
-509
-509
-508
-491
-460
-401
-323
-247
-219
-252
-339
-450
-539
-570
-561
-536
-516
-504
-502
-505
-507
-509
-511
-511
-509
-508
-507
-507
-506
-505
-506
-504
-504
-504
-504
-504
-503
-501
-499
-497
-497
-496
-495
-495
-496
-493
-492
-490
-489
-490
-485
-480
-478
-475
-473
-471
-468
-466
-461
-456
-453
-449
-444
-440
-435
-430
-426
-422
-418
-415
-412
-412
-415
-421
-429
-438
-450
-460
-470
-480
-486
-491
-495
-498
-500
-501
-504
-502
-503
-503
-504
-505
-503
-502
-501
-501
-501
-500
-500
-500
-501
-503
-501
-501
-502
-501
-500
-499
-501
-499
-501
-501
-501
-501
-501
-502
-502
-503
-503
-501
-501
-501
-502
-501
-503
-501
-499
-496
-495
-493
-490
-487
-485
-489
-484
-483
-478
-477
-474
-474
-474
-474
-474
-477
-483
-489
-496
-504
-507
-511
-512
-514
-514
-512
-511
-511
-513
-514
-514
-514
-512
-511
-511
-511
-509
-511
-512
-513
-505
-484
-441
-370
-287
-222
-212
-269
-371
-484
-559
-579
-566
-541
-520
-508
-505
-506
-508
-508
-508
-507
-507
-507
-507
-505
-505
-504
-505
-504
-504
-504
-502
-501
-498
-497
-497
-497
-497
-493
-494
-493
-492
-493
-491
-487
-487
-483
-480
-478
-475
-473
-471
-468
-463
-459
-455
-451
-446
-443
-440
-436
-432
-427
-423
-418
-414
-410
-408
-409
-414
-422
-432
-443
-453
-461
-470
-477
-483
-486
-490
-494
-495
-496
-497
-498
-498
-498
-497
-496
-495
-495
-495
-495
-495
-496
-496
-493
-494
-493
-494
-495
-493
-493
-492
-492
-494
-492
-493
-493
-493
-493
-494
-493
-494
-493
-493
-492
-493
-493
-493
-494
-494
-493
-491
-491
-489
-487
-483
-480
-477
-477
-474
-474
-473
-468
-465
-461
-458
-460
-461
-463
-466
-468
-477
-482
-490
-495
-499
-500
-501
-499
-500
-503
-502
-501
-501
-500
-502
-502
-502
-499
-497
-496
-497
-500
-501
-495
-473
-430
-357
-270
-199
-171
-212
-307
-415
-504
-540
-533
-512
-497
-490
-489
-493
-498
-497
-498
-497
-499
-500
-497
-497
-495
-495
-493
-494
-494
-494
-493
-491
-490
-490
-489
-488
-487
-487
-485
-483
-484
-481
-480
-478
-477
-477
-475
-473
-470
-469
-465
-462
-458
-456
-453
-448
-444
-439
-433
-430
-426
-421
-417
-410
-408
-406
-405
-407
-411
-419
-427
-436
-446
-455
-464
-470
-477
-480
-483
-485
-487
-487
-487
-489
-489
-489
-489
-489
-487
-489
-486
-488
-487
-488
-487
-487
-487
-487
-486
-486
-487
-487
-487
-485
-485
-487
-484
-485
-485
-486
-486
-484
-485
-486
-487
-487
-487
-486
-486
-487
-487
-487
-487
-485
-484
-483
-479
-477
-473
-471
-470
-469
-468
-466
-462
-459
-455
-455
-456
-456
-458
-461
-464
-470
-475
-481
-487
-494
-493
-495
-496
-496
-499
-496
-496
-495
-496
-497
-496
-497
-495
-495
-495
-493
-493
-495
-491
-477
-446
-387
-304
-220
-169
-183
-257
-361
-460
-517
-524
-510
-493
-485
-483
-487
-490
-493
-493
-492
-493
-496
-491
-491
-491
-492
-492
-490
-490
-487
-487
-487
-487
-486
-485
-485
-484
-483
-481
-480
-479
-478
-477
-475
-473
-471
-470
-468
-467
-464
-461
-459
-455
-452
-449
-445
-441
-438
-434
-430
-426
-422
-418
-410
-409
-405
-402
-401
-402
-408
-414
-423
-431
-439
-449
-457
-464
-470
-474
-479
-480
-481
-484
-484
-487
-486
-487
-486
-485
-485
-484
-484
-484
-484
-484
-484
-484
-484
-484
-483
-480
-481
-480
-481
-481
-483
-483
-483
-482
-482
-484
-483
-483
-483
-484
-487
-483
-484
-484
-484
-485
-484
-484
-483
-483
-481
-480
-477
-474
-470
-468
-467
-467
-466
-463
-460
-456
-453
-452
-453
-455
-456
-461
-466
-473
-479
-485
-489
-491
-494
-493
-494
-497
-495
-495
-495
-495
-496
-495
-495
-495
-494
-494
-493
-493
-494
-493
-484
-462
-414
-341
-260
-194
-182
-226
-311
-408
-484
-514
-514
-500
-490
-484
-484
-487
-490
-491
-491
-492
-492
-493
-493
-492
-492
-490
-490
-489
-487
-487
-490
-488
-488
-487
-484
-484
-483
-480
-480
-480
-479
-477
-477
-475
-473
-473
-472
-467
-466
-462
-460
-456
-453
-450
-446
-443
-440
-436
-432
-427
-424
-418
-414
-409
-406
-402
-402
-403
-406
-414
-423
-433
-441
-453
-460
-468
-473
-480
-480
-484
-484
-486
-487
-487
-487
-487
-487
-487
-487
-487
-485
-487
-486
-485
-486
-484
-484
-484
-484
-484
-484
-484
-484
-484
-483
-484
-484
-483
-484
-484
-484
-485
-486
-487
-487
-485
-486
-487
-487
-489
-487
-487
-487
-487
-487
-485
-484
-479
-477
-473
-472
-469
-468
-468
-469
-465
-460
-458
-456
-456
-456
-458
-462
-467
-473
-477
-484
-490
-494
-496
-497
-498
-497
-496
-497
-497
-497
-499
-500
-499
-500
-501
-499
-499
-497
-496
-498
-493
-480
-446
-384
-302
-226
-185
-199
-267
-363
-456
-511
-524
-512
-498
-491
-489
-492
-496
-497
-499
-499
-499
-497
-496
-496
-496
-496
-496
-496
-496
-495
-494
-495
-493
-493
-495
-492
-490
-489
-487
-489
-484
-484
-483
-483
-480
-480
-477
-477
-473
-470
-467
-463
-462
-458
-456
-451
-446
-444
-440
-436
-431
-429
-423
-419
-415
-410
-407
-407
-409
-417
-426
-438
-449
-458
-467
-471
-473
-480
-485
-489
-493
-497
-495
-495
-493
-495
-495
-495
-495
-495
-494
-494
-493
-495
-493
-494
-493
-492
-491
-491
-493
-493
-493
-493
-492
-493
-492
-493
-493
-493
-493
-493
-493
-492
-493
-493
-493
-494
-495
-495
-495
-496
-496
-497
-493
-490
-487
-486
-487
-482
-480
-479
-477
-478
-474
-470
-467
-466
-464
-466
-466
-468
-471
-477
-484
-490
-497
-501
-504
-505
-505
-505
-505
-507
-507
-507
-508
-508
-509
-508
-507
-506
-506
-505
-505
-510
-508
-504
-489
-455
-392
-319
-247
-213
-245
-330
-433
-520
-558
-557
-536
-516
-506
-502
-502
-504
-506
-506
-505
-507
-506
-506
-505
-504
-504
-502
-501
-498
-501
-502
-501
-501
-499
-499
-496
-495
-494
-494
-493
-492
-492
-490
-490
-487
-486
-484
-483
-481
-477
-473
-471
-468
-464
-463
-459
-455
-450
-446
-441
-435
-432
-429
-426
-419
-412
-409
-409
-411
-416
-425
-434
-444
-455
-463
-471
-480
-485
-490
-493
-497
-499
-503
-503
-502
-504
-502
-501
-499
-501
-505
-502
-503
-501
-501
-499
-497
-499
-499
-499
-501
-500
-500
-500
-501
-502
-501
-499
-500
-499
-499
-499
-501
-502
-502
-501
-501
-499
-502
-502
-502
-501
-501
-499
-495
-492
-490
-492
-489
-489
-487
-484
-481
-477
-475
-476
-474
-474
-474
-477
-484
-489
-497
-502
-507
-508
-511
-512
-514
-514
-514
-515
-516
-515
-515
-514
-514
-514
-516
-514
-514
-512
-511
-512
-513
-511
-498
-467
-411
-333
-257
-216
-238
-316
-424
-524
-577
-585
-563
-538
-517
-508
-506
-507
-511
-512
-514
-511
-510
-508
-508
-508
-507
-506
-505
-505
-505
-504
-504
-504
-504
-504
-501
-501
-497
-496
-495
-495
-494
-492
-490
-489
-488
-487
-486
-484
-484
-477
-474
-471
-467
-463
-460
-458
-453
-450
-445
-442
-438
-433
-429
-425
-421
-415
-412
-412
-416
-419
-426
-437
-448
-459
-468
-477
-484
-489
-492
-495
-494
-498
-500
-501
-502
-504
-504
-502
-501
-501
-502
-499
-501
-502
-501
-502
-499
-499
-500
-499
-500
-500
-499
-498
-499
-500
-500
-499
-497
-498
-499
-499
-499
-499
-500
-499
-499
-499
-500
-499
-499
-499
-500
-499
-500
-498
-497
-493
-490
-487
-485
-484
-484
-483
-483
-479
-474
-467
-467
-467
-467
-468
-468
-474
-479
-485
-493
-501
-504
-505
-508
-508
-508
-509
-508
-508
-509
-509
-510
-510
-509
-508
-507
-507
-505
-505
-507
-508
-507
-499
-475
-425
-351
-267
-204
-196
-257
-361
-471
-545
-555
-539
-519
-504
-500
-498
-501
-504
-504
-504
-504
-504
-504
-503
-502
-500
-500
-501
-500
-499
-497
-498
-496
-497
-496
-497
-495
-493
-494
-490
-489
-484
-487
-487
-485
-483
-483
-480
-477
-477
-473
-469
-468
-465
-463
-460
-453
-452
-448
-445
-441
-434
-433
-427
-424
-419
-413
-410
-409
-409
-412
-419
-427
-436
-446
-455
-463
-469
-474
-479
-483
-486
-488
-491
-491
-492
-491
-491
-491
-493
-494
-494
-494
-493
-493
-493
-491
-491
-493
-490
-490
-490
-490
-491
-489
-489
-488
-489
-489
-489
-489
-489
-489
-489
-490
-490
-490
-490
-490
-490
-490
-490
-490
-490
-490
-490
-490
-489
-489
-486
-484
-480
-478
-477
-474
-474
-472
-470
-467
-463
-458
-458
-459
-459
-461
-463
-470
-474
-483
-487
-492
-495
-498
-499
-501
-501
-501
-501
-501
-501
-501
-501
-500
-500
-500
-500
-498
-499
-499
-501
-497
-487
-463
-416
-342
-257
-190
-172
-212
-303
-412
-496
-532
-527
-510
-496
-490
-491
-492
-495
-496
-497
-499
-497
-496
-496
-496
-496
-495
-495
-493
-493
-492
-490
-490
-490
-490
-489
-489
-488
-487
-487
-487
-486
-484
-483
-481
-477
-477
-474
-474
-471
-469
-467
-464
-462
-460
-456
-452
-446
-444
-440
-438
-433
-428
-426
-420
-416
-411
-409
-407
-408
-411
-416
-424
-433
-442
-453
-460
-468
-474
-477
-481
-485
-487
-489
-490
-490
-490
-490
-491
-487
-490
-490
-490
-490
-490
-490
-490
-490
-490
-490
-489
-490
-489
-488
-490
-487
-488
-487
-489
-489
-489
-488
-487
-487
-489
-490
-490
-489
-489
-489
-489
-490
-490
-490
-490
-490
-491
-490
-490
-487
-484
-481
-477
-477
-474
-473
-473
-471
-467
-463
-459
-459
-459
-461
-463
-465
-467
-473
-479
-484
-490
-497
-498
-501
-501
-501
-502
-502
-503
-502
-502
-504
-502
-501
-501
-501
-500
-499
-500
-501
-499
-496
-479
-437
-368
-284
-208
-175
-210
-284
-384
-474
-520
-526
-513
-499
-491
-490
-496
-497
-500
-499
-501
-501
-499
-499
-500
-499
-499
-498
-498
-496
-496
-495
-494
-493
-494
-493
-493
-490
-490
-490
-490
-490
-487
-485
-483
-482
-480
-481
-477
-477
-474
-472
-467
-465
-460
-458
-456
-452
-446
-444
-440
-436
-432
-426
-424
-420
-416
-411
-408
-410
-413
-419
-428
-436
-447
-456
-466
-471
-478
-483
-487
-489
-492
-494
-495
-495
-495
-495
-495
-495
-496
-495
-495
-495
-495
-495
-494
-493
-493
-494
-494
-493
-494
-491
-492
-495
-493
-492
-491
-491
-494
-492
-494
-493
-494
-495
-494
-495
-496
-496
-496
-496
-495
-495
-497
-496
-495
-493
-490
-489
-485
-483
-480
-478
-479
-479
-477
-474
-470
-465
-464
-465
-466
-467
-470
-474
-479
-487
-491
-497
-501
-504
-509
-507
-507
-505
-506
-507
-507
-508
-508
-510
-510
-511
-509
-506
-505
-506
-509
-508
-500
-480
-436
-366
-283
-216
-194
-236
-322
-427
-508
-545
-541
-524
-507
-498
-498
-501
-505
-507
-509
-510
-508
-507
-508
-505
-505
-505
-505
-506
-505
-504
-501
-501
-501
-501
-500
-499
-497
-495
-494
-492
-492
-492
-492
-490
-489
-487
-485
-483
-480
-477
-475
-473
-471
-468
-460
-460
-456
-450
-446
-443
-439
-438
-433
-428
-419
-416
-413
-413
-416
-419
-426
-434
-443
-453
-463
-473
-480
-487
-492
-496
-499
-501
-502
-504
-504
-504
-504
-506
-505
-505
-504
-503
-502
-504
-504
-504
-501
-502
-502
-501
-502
-501
-501
-502
-501
-502
-505
-502
-502
-504
-503
-505
-505
-506
-504
-504
-503
-502
-503
-504
-504
-505
-503
-505
-505
-504
-502
-498
-495
-491
-490
-490
-489
-489
-486
-483
-477
-474
-472
-473
-474
-477
-480
-487
-492
-499
-505
-510
-511
-514
-515
-515
-515
-517
-515
-516
-516
-517
-520
-519
-520
-520
-518
-517
-516
-517
-517
-517
-508
-486
-443
-373
-294
-232
-220
-267
-358
-465
-547
-578
-572
-551
-532
-517
-512
-511
-512
-514
-514
-516
-516
-516
-517
-516
-514
-514
-511
-511
-511
-511
-514
-511
-510
-506
-506
-507
-505
-504
-502
-501
-499
-499
-500
-497
-495
-493
-491
-490
-489
-485
-483
-479
-477
-473
-470
-465
-460
-455
-450
-447
-444
-440
-436
-432
-426
-420
-416
-413
-414
-419
-426
-436
-443
-456
-466
-474
-481
-489
-494
-499
-502
-504
-505
-507
-508
-508
-509
-508
-509
-507
-508
-507
-507
-506
-506
-504
-505
-505
-505
-504
-503
-505
-504
-505
-504
-505
-505
-505
-505
-504
-505
-504
-504
-505
-507
-505
-504
-505
-507
-508
-505
-504
-502
-502
-501
-498
-494
-490
-489
-487
-487
-486
-485
-484
-480
-480
-477
-478
-477
-477
-480
-483
-489
-496
-502
-508
-511
-514
-514
-514
-516
-514
-515
-515
-516
-516
-518
-517
-516
-517
-516
-517
-514
-514
-515
-514
-511
-493
-453
-385
-301
-228
-199
-234
-319
-427
-524
-570
-572
-551
-528
-512
-507
-507
-511
-512
-511
-511
-509
-509
-508
-508
-508
-507
-507
-505
-506
-504
-504
-504
-503
-502
-502
-504
-501
-499
-497
-496
-496
-495
-494
-491
-490
-490
-487
-487
-484
-480
-477
-474
-472
-468
-465
-461
-456
-453
-449
-446
-442
-436
-433
-429
-423
-416
-412
-412
-412
-416
-423
-431
-442
-451
-460
-470
-477
-485
-488
-493
-495
-496
-500
-498
-499
-498
-500
-501
-500
-500
-501
-500
-500
-499
-498
-498
-497
-496
-497
-496
-495
-495
-496
-496
-496
-496
-498
-496
-497
-495
-496
-496
-495
-495
-495
-495
-495
-496
-498
-499
-497
-497
-497
-497
-499
-496
-494
-490
-489
-487
-483
-480
-480
-477
-477
-474
-471
-467
-465
-465
-466
-467
-468
-471
-474
-480
-487
-494
-499
-502
-505
-505
-506
-505
-505
-505
-507
-507
-507
-507
-507
-506
-506
-505
-504
-504
-507
-507
-504
-494
-467
-413
-339
-257
-195
-185
-238
-336
-446
-521
-544
-534
-514
-501
-495
-496
-498
-500
-502
-502
-503
-502
-503
-503
-502
-502
-501
-501
-500
-499
-497
-497
-497
-495
-494
-495
-495
-494
-495
-491
-490
-489
-489
-490
-487
-485
-483
-480
-480
-477
-474
-473
-470
-467
-463
-458
-455
-452
-448
-444
-440
-436
-433
-429
-424
-421
-416
-413
-412
-409
-413
-419
-428
-440
-448
-459
-467
-474
-480
-484
-490
-490
-492
-493
-494
-496
-493
-493
-494
-494
-495
-493
-493
-493
-493
-494
-493
-493
-492
-491
-490
-491
-490
-490
-490
-489
-490
-490
-490
-490
-490
-490
-491
-490
-491
-490
-491
-491
-491
-491
-490
-491
-493
-491
-491
-489
-489
-490
-485
-483
-480
-477
-474
-474
-474
-473
-469
-464
-460
-459
-460
-462
-463
-466
-469
-474
-480
-488
-494
-496
-498
-499
-501
-502
-502
-502
-501
-501
-502
-502
-502
-501
-501
-501
-500
-499
-499
-500
-499
-493
-465
-412
-331
-246
-183
-177
-234
-328
-432
-505
-529
-521
-505
-493
-490
-492
-496
-499
-500
-499
-500
-499
-498
-498
-497
-496
-497
-496
-495
-494
-495
-491
-493
-493
-492
-493
-491
-490
-489
-486
-487
-485
-484
-483
-482
-480
-481
-477
-474
-473
-470
-466
-465
-462
-459
-455
-450
-447
-443
-440
-437
-433
-426
-420
-417
-412
-410
-408
-408
-411
-418
-426
-434
-443
-452
-461
-468
-474
-480
-484
-487
-489
-490
-492
-493
-493
-493
-492
-493
-492
-493
-491
-493
-495
-493
-491
-490
-489
-489
-489
-489
-489
-489
-490
-488
-488
-487
-487
-488
-490
-490
-490
-490
-489
-489
-489
-489
-490
-490
-490
-489
-490
-492
-491
-491
-490
-489
-487
-484
-480
-481
-474
-473
-474
-473
-470
-468
-463
-461
-460
-460
-460
-462
-465
-469
-473
-479
-487
-494
-497
-500
-499
-500
-501
-501
-501
-501
-502
-502
-502
-503
-504
-502
-501
-501
-500
-500
-502
-502
-496
-478
-440
-373
-290
-216
-180
-209
-287
-385
-473
-522
-529
-518
-502
-495
-493
-496
-499
-501
-501
-501
-502
-501
-500
-501
-501
-501
-499
-499
-499
-498
-498
-497
-496
-494
-493
-493
-492
-491
-490
-490
-491
-489
-487
-487
-485
-484
-480
-480
-480
-475
-473
-470
-467
-463
-463
-460
-456
-453
-447
-444
-439
-436
-432
-426
-423
-418
-415
-412
-413
-416
-421
-429
-437
-448
-456
-467
-473
-480
-485
-489
-489
-494
-495
-495
-496
-497
-496
-497
-496
-495
-497
-496
-495
-495
-496
-497
-495
-493
-494
-494
-493
-493
-494
-494
-495
-495
-494
-494
-495
-494
-494
-495
-495
-495
-494
-495
-495
-495
-495
-495
-496
-497
-496
-497
-496
-496
-496
-497
-494
-492
-490
-487
-484
-480
-480
-479
-479
-480
-473
-467
-465
-466
-463
-468
-470
-474
-479
-486
-490
-496
-501
-504
-507
-507
-507
-508
-507
-507
-509
-509
-508
-510
-511
-510
-510
-509
-508
-507
-507
-507
-507
-505
-489
-456
-395
-316
-236
-193
-209
-280
-381
-475
-531
-541
-527
-509
-498
-497
-502
-507
-508
-509
-511
-509
-511
-509
-510
-508
-507
-507
-507
-506
-504
-504
-504
-503
-502
-502
-501
-500
-500
-498
-498
-496
-495
-494
-493
-490
-490
-487
-486
-485
-484
-480
-477
-477
-471
-471
-467
-464
-460
-453
-451
-449
-446
-441
-436
-432
-426
-423
-418
-415
-415
-418
-425
-433
-443
-453
-462
-472
-479
-484
-489
-493
-497
-499
-501
-503
-501
-502
-502
-503
-503
-503
-502
-503
-501
-501
-504
-502
-503
-502
-502
-503
-500
-499
-499
-501
-501
-501
-501
-501
-499
-501
-499
-501
-502
-501
-502
-502
-502
-504
-504
-504
-504
-505
-504
-504
-504
-505
-504
-504
-501
-498
-496
-494
-490
-487
-485
-485
-487
-483
-477
-476
-474
-477
-476
-474
-477
-478
-484
-490
-498
-505
-507
-511
-514
-514
-514
-516
-514
-517
-516
-517
-516
-517
-516
-516
-517
-515
-514
-514
-515
-514
-514
-508
-489
-447
-378
-296
-230
-215
-268
-358
-464
-543
-573
-568
-545
-526
-514
-510
-512
-514
-514
-515
-514
-514
-514
-514
-512
-512
-514
-514
-514
-512
-511
-509
-508
-507
-507
-507
-505
-505
-504
-505
-502
-501
-501
-500
-498
-497
-495
-492
-491
-490
-487
-484
-481
-482
-474
-472
-469
-466
-459
-456
-451
-446
-443
-437
-433
-429
-425
-423
-418
-418
-419
-423
-432
-443
-453
-463
-473
-481
-489
-494
-498
-500
-504
-506
-507
-505
-507
-507
-507
-508
-509
-509
-508
-508
-508
-510
-508
-508
-508
-508
-509
-505
-505
-507
-507
-507
-507
-506
-506
-505
-507
-507
-507
-507
-507
-507
-506
-507
-507
-508
-509
-510
-510
-509
-509
-509
-507
-505
-503
-501
-499
-497
-496
-493
-492
-490
-487
-484
-479
-477
-477
-477
-476
-480
-480
-487
-493
-502
-507
-511
-514
-516
-518
-518
-518
-520
-518
-520
-520
-520
-520
-521
-520
-520
-520
-516
-514
-515
-516
-517
-514
-497
-460
-393
-310
-234
-202
-233
-318
-429
-522
-568
-570
-551
-531
-514
-510
-511
-514
-517
-514
-516
-514
-515
-514
-515
-514
-514
-511
-511
-511
-511
-511
-509
-508
-507
-507
-506
-506
-505
-504
-502
-501
-500
-499
-497
-495
-495
-493
-491
-490
-487
-484
-481
-479
-477
-471
-470
-466
-463
-459
-453
-450
-446
-443
-436
-432
-426
-423
-419
-419
-422
-426
-435
-443
-451
-461
-469
-477
-484
-490
-495
-499
-501
-502
-504
-504
-505
-505
-505
-506
-504
-505
-505
-505
-505
-505
-505
-504
-502
-501
-501
-501
-502
-501
-502
-501
-501
-501
-499
-501
-501
-502
-502
-502
-504
-501
-501
-501
-502
-504
-504
-504
-502
-502
-502
-502
-502
-501
-501
-499
-497
-495
-492
-489
-487
-486
-487
-487
-483
-477
-473
-472
-471
-473
-471
-474
-477
-480
-487
-496
-502
-507
-508
-511
-512
-512
-512
-511
-512
-513
-511
-511
-512
-511
-512
-511
-511
-510
-509
-511
-511
-507
-491
-453
-383
-297
-219
-181
-210
-292
-397
-495
-542
-545
-530
-514
-504
-501
-504
-506
-509
-514
-511
-510
-508
-508
-509
-505
-507
-507
-507
-507
-506
-504
-504
-502
-502
-502
-502
-501
-501
-499
-497
-496
-496
-495
-494
-494
-490
-489
-487
-484
-483
-480
-477
-474
-472
-468
-466
-462
-459
-455
-450
-443
-442
-438
-434
-429
-422
-420
-418
-419
-423
-429
-436
-446
-455
-462
-470
-477
-484
-489
-494
-496
-498
-501
-501
-503
-502
-504
-504
-502
-502
-502
-502
-499
-502
-501
-501
-501
-501
-501
-503
-501
-501
-502
-500
-501
-499
-499
-501
-499
-498
-499
-499
-499
-499
-498
-500
-499
-501
-499
-499
-499
-500
-501
-501
-501
-503
-502
-500
-499
-496
-494
-490
-487
-486
-484
-484
-483
-481
-477
-471
-468
-468
-470
-472
-473
-474
-477
-480
-486
-496
-501
-506
-507
-508
-511
-509
-510
-510
-511
-511
-512
-511
-511
-511
-511
-509
-508
-507
-507
-509
-508
-503
-483
-442
-376
-296
-221
-185
-211
-287
-389
-484
-530
-536
-523
-508
-499
-498
-501
-505
-507
-510
-509
-507
-507
-507
-508
-505
-504
-503
-502
-502
-502
-502
-501
-501
-501
-499
-499
-497
-496
-495
-494
-493
-492
-491
-490
-489
-487
-484
-483
-480
-479
-475
-477
-473
-470
-466
-463
-460
-456
-453
-448
-443
-440
-438
-433
-427
-419
-418
-415
-414
-417
-421
-430
-439
-449
-458
-467
-474
-480
-484
-489
-493
-495
-497
-496
-498
-498
-497
-499
-499
-499
-497
-498
-498
-498
-497
-496
-498
-497
-497
-498
-496
-496
-496
-495
-496
-495
-496
-498
-496
-496
-495
-495
-496
-495
-496
-495
-497
-497
-497
-497
-497
-497
-497
-497
-496
-497
-496
-495
-495
-493
-491
-487
-484
-482
-481
-480
-480
-479
-477
-471
-467
-464
-467
-467
-468
-470
-473
-480
-486
-495
-497
-501
-504
-505
-508
-505
-506
-507
-507
-508
-508
-508
-508
-507
-508
-507
-506
-504
-505
-505
-507
-504
-494
-467
-413
-339
-259
-202
-201
-262
-358
-457
-521
-536
-525
-508
-498
-497
-498
-501
-504
-504
-506
-505
-505
-504
-506
-504
-504
-503
-503
-502
-501
-499
-499
-499
-499
-499
-498
-496
-496
-493
-494
-493
-491
-490
-490
-489
-487
-484
-481
-480
-478
-477
-474
-471
-470
-466
-462
-457
-455
-451
-446
-443
-440
-433
-429
-423
-418
-416
-415
-416
-418
-424
-433
-443
-452
-460
-469
-477
-483
-487
-490
-495
-497
-497
-498
-499
-497
-498
-499
-499
-497
-496
-497
-497
-498
-499
-498
-497
-493
-497
-496
-495
-496
-495
-495
-495
-495
-496
-498
-495
-495
-495
-495
-498
-496
-496
-497
-496
-496
-495
-496
-496
-497
-498
-499
-499
-497
-496
-496
-493
-492
-490
-489
-485
-483
-481
-480
-480
-475
-472
-469
-467
-467
-468
-469
-471
-474
-480
-485
-491
-496
-501
-504
-505
-507
-511
-509
-508
-509
-509
-512
-511
-511
-511
-511
-511
-509
-505
-506
-507
-510
-507
-496
-467
-410
-327
-246
-197
-208
-276
-371
-465
-524
-539
-530
-514
-502
-500
-501
-504
-507
-509
-510
-510
-511
-508
-509
-511
-507
-507
-507
-505
-507
-504
-503
-502
-503
-502
-503
-502
-501
-500
-500
-497
-496
-493
-493
-491
-490
-489
-487
-485
-484
-480
-479
-476
-473
-471
-469
-464
-458
-452
-449
-444
-442
-438
-433
-429
-426
-419
-419
-418
-423
-427
-435
-446
-456
-466
-473
-480
-485
-490
-495
-497
-499
-501
-504
-502
-503
-504
-504
-504
-504
-504
-505
-504
-502
-500
-499
-499
-501
-501
-501
-502
-502
-501
-500
-501
-500
-501
-502
-502
-501
-499
-499
-499
-502
-501
-503
-501
-502
-504
-501
-504
-504
-504
-505
-504
-503
-501
-500
-499
-496
-493
-491
-490
-487
-487
-484
-482
-480
-477
-475
-473
-473
-473
-474
-477
-483
-489
-496
-504
-508
-511
-512
-514
-514
-513
-517
-517
-520
-519
-517
-517
-515
-514
-514
-514
-514
-514
-514
-514
-515
-511
-494
-456
-391
-310
-236
-208
-243
-327
-436
-527
-567
-564
-542
-522
-511
-508
-509
-511
-514
-514
-514
-514
-515
-514
-514
-514
-514
-513
-511
-511
-509
-511
-509
-508
-507
-505
-505
-502
-502
-502
-502
-502
-501
-499
-496
-495
-493
-490
-489
-487
-484
-481
-478
-476
-472
-468
-465
-460
-456
-451
-448
-444
-440
-436
-430
-425
-420
-416
-418
-421
-428
-436
-446
-454
-466
-473
-480
-487
-495
-499
-502
-504
-506
-507
-506
-507
-507
-507
-511
-508
-509
-507
-507
-507
-506
-505
-506
-505
-505
-505
-506
-507
-505
-507
-505
-504
-504
-505
-506
-506
-507
-507
-507
-505
-506
-507
-505
-505
-507
-508
-511
-508
-508
-508
-507
-506
-504
-501
-499
-496
-496
-493
-492
-491
-488
-486
-482
-479
-477
-477
-477
-480
-481
-485
-490
-495
-502
-508
-514
-516
-517
-520
-520
-519
-518
-517
-518
-517
-520
-520
-520
-520
-521
-517
-516
-514
-516
-517
-511
-497
-461
-398
-313
-238
-212
-256
-351
-463
-546
-577
-567
-545
-522
-511
-507
-508
-512
-514
-514
-514
-514
-514
-514
-513
-512
-511
-511
-510
-509
-508
-508
-508
-507
-505
-507
-505
-504
-503
-502
-501
-499
-499
-497
-495
-494
-493
-490
-489
-487
-485
-481
-480
-477
-473
-470
-467
-461
-457
-453
-449
-446
-440
-436
-430
-427
-424
-421
-419
-419
-423
-429
-436
-447
-456
-467
-473
-483
-487
-490
-496
-498
-502
-501
-501
-501
-501
-502
-502
-502
-503
-502
-504
-502
-503
-502
-501
-501
-499
-499
-499
-499
-500
-500
-499
-500
-499
-498
-499
-499
-498
-498
-498
-500
-499
-499
-498
-497
-498
-498
-499
-499
-500
-501
-502
-499
-500
-499
-496
-497
-491
-489
-486
-484
-484
-483
-482
-480
-477
-471
-468
-467
-467
-468
-469
-471
-474
-482
-487
-494
-499
-504
-505
-507
-507
-507
-507
-507
-507
-507
-508
-508
-507
-507
-507
-507
-508
-506
-507
-507
-505
-500
-477
-430
-358
-272
-201
-182
-227
-321
-430
-514
-543
-537
-517
-504
-496
-496
-499
-502
-505
-505
-505
-504
-504
-504
-501
-502
-499
-501
-501
-500
-499
-499
-497
-497
-497
-497
-496
-494
-494
-493
-490
-494
-489
-489
-487
-484
-484
-481
-480
-477
-474
-472
-468
-467
-463
-460
-456
-452
-450
-444
-440
-438
-434
-430
-426
-419
-416
-413
-412
-414
-418
-426
-434
-445
-453
-462
-470
-477
-482
-486
-490
-490
-493
-496
-495
-495
-495
-496
-498
-496
-497
-496
-495
-495
-493
-494
-493
-493
-493
-492
-493
-491
-491
-491
-492
-493
-493
-493
-491
-491
-490
-490
-490
-491
-492
-490
-493
-493
-494
-494
-493
-494
-494
-494
-495
-497
-495
-494
-490
-487
-486
-480
-480
-478
-477
-477
-474
-471
-467
-464
-462
-463
-463
-464
-467
-473
-478
-484
-489
-494
-498
-501
-501
-504
-504
-504
-504
-505
-505
-505
-505
-505
-504
-502
-504
-502
-501
-501
-504
-504
-498
-478
-436
-371
-288
-212
-176
-200
-276
-376
-473
-526
-535
-521
-505
-495
-493
-496
-499
-502
-503
-503
-502
-504
-502
-502
-501
-499
-499
-499
-499
-498
-498
-496
-496
-495
-495
-494
-493
-493
-492
-491
-490
-489
-490
-486
-484
-483
-481
-484
-477
-473
-472
-469
-467
-463
-459
-456
-452
-447
-443
-440
-437
-434
-429
-423
-417
-413
-410
-410
-412
-419
-426
-435
-446
-453
-461
-469
-477
-482
-486
-489
-489
-492
-492
-495
-496
-495
-495
-495
-495
-497
-495
-495
-493
-495
-495
-494
-492
-492
-493
-493
-493
-493
-491
-491
-491
-491
-492
-492
-493
-494
-494
-493
-493
-493
-490
-491
-493
-493
-494
-493
-494
-494
-494
-495
-495
-495
-493
-493
-490
-488
-486
-487
-480
-480
-477
-477
-474
-473
-468
-465
-462
-462
-463
-464
-467
-470
-474
-482
-489
-495
-499
-502
-504
-504
-504
-504
-505
-505
-506
-506
-507
-506
-507
-507
-507
-504
-504
-504
-504
-506
-502
-489
-456
-393
-315
-236
-189
-200
-268
-365
-462
-521
-534
-524
-508
-498
-496
-499
-501
-503
-504
-504
-505
-506
-505
-505
-502
-502
-501
-501
-502
-500
-499
-499
-499
-497
-496
-497
-495
-495
-493
-493
-492
-490
-490
-489
-487
-485
-484
-484
-484
-479
-474
-473
-470
-466
-464
-460
-459
-456
-452
-448
-443
-440
-435
-430
-426
-421
-416
-415
-416
-418
-423
-430
-438
-448
-456
-467
-473
-480
-484
-489
-492
-495
-497
-497
-497
-496
-497
-497
-498
-497
-499
-496
-496
-497
-497
-498
-496
-496
-495
-495
-495
-494
-495
-495
-495
-495
-493
-495
-495
-495
-495
-495
-495
-495
-495
-496
-495
-496
-496
-497
-496
-497
-497
-497
-498
-497
-498
-496
-495
-493
-490
-489
-489
-484
-481
-480
-479
-480
-474
-471
-467
-465
-464
-466
-467
-470
-474
-479
-485
-491
-498
-501
-504
-504
-505
-505
-505
-506
-507
-508
-507
-508
-506
-506
-505
-507
-506
-505
-506
-506
-508
-507
-497
-471
-422
-346
-263
-200
-187
-235
-320
-419
-499
-533
-534
-517
-505
-498
-499
-502
-504
-506
-504
-506
-505
-505
-505
-504
-504
-502
-502
-501
-502
-501
-501
-500
-498
-497
-496
-497
-496
-495
-493
-493
-494
-492
-490
-488
-487
-486
-484
-485
-480
-477
-474
-473
-467
-467
-463
-460
-458
-453
-450
-446
-441
-438
-432
-428
-423
-419
-416
-415
-416
-420
-430
-439
-447
-456
-464
-473
-480
-484
-489
-489
-493
-495
-496
-497
-498
-499
-499
-497
-499
-500
-498
-497
-497
-496
-499
-497
-495
-495
-495
-497
-495
-495
-495
-495
-495
-495
-494
-494
-494
-495
-495
-496
-495
-496
-496
-497
-496
-497
-497
-497
-497
-496
-498
-499
-499
-500
-498
-498
-498
-495
-493
-491
-487
-484
-480
-480
-484
-480
-477
-473
-468
-464
-467
-467
-468
-468
-471
-477
-483
-489
-495
-500
-502
-505
-505
-506
-505
-505
-505
-507
-507
-507
-508
-507
-507
-508
-507
-506
-505
-507
-507
-504
-490
-456
-394
-312
-234
-192
-209
-280
-376
-472
-524
-538
-524
-508
-499
-497
-500
-502
-505
-505
-507
-507
-505
-505
-505
-505
-504
-504
-502
-502
-502
-501
-501
-501
-499
-498
-497
-496
-493
-495
-495
-493
-492
-490
-489
-487
-486
-485
-484
-481
-479
-475
-474
-470
-468
-466
-463
-458
-454
-451
-446
-443
-438
-433
-428
-424
-419
-415
-413
-414
-419
-427
-434
-444
-453
-460
-470
-477
-483
-487
-490
-493
-493
-495
-497
-497
-497
-497
-497
-497
-497
-497
-498
-497
-496
-500
-496
-497
-496
-496
-498
-496
-496
-495
-495
-496
-495
-495
-495
-495
-495
-495
-495
-495
-495
-496
-497
-496
-496
-496
-497
-497
-498
-498
-499
-499
-500
-498
-500
-498
-496
-495
-491
-489
-486
-483
-481
-483
-480
-477
-474
-470
-464
-467
-467
-469
-471
-474
-480
-487
-492
-500
-504
-507
-505
-505
-507
-507
-507
-507
-508
-509
-510
-510
-510
-509
-508
-507
-506
-506
-507
-511
-507
-495
-460
-400
-317
-238
-194
-213
-285
-387
-483
-534
-542
-527
-511
-501
-500
-505
-507
-510
-511
-511
-511
-510
-511
-508
-507
-507
-506
-506
-505
-505
-505
-504
-504
-502
-501
-501
-499
-499
-498
-497
-496
-497
-493
-494
-493
-490
-487
-487
-484
-483
-480
-479
-480
-472
-469
-466
-461
-456
-455
-453
-449
-443
-436
-430
-425
-423
-419
-419
-421
-428
-436
-445
-455
-464
-471
-480
-487
-491
-495
-498
-501
-503
-504
-505
-502
-503
-502
-502
-504
-504
-504
-504
-504
-504
-505
-502
-502
-501
-502
-504
-502
-501
-500
-501
-501
-500
-501
-502
-502
-502
-501
-501
-501
-501
-501
-502
-501
-502
-504
-504
-504
-503
-502
-502
-504
-505
-505
-505
-504
-501
-499
-497
-493
-490
-487
-487
-487
-485
-481
-477
-474
-470
-473
-473
-476
-477
-483
-486
-492
-498
-504
-509
-511
-512
-514
-514
-511
-511
-512
-512
-514
-515
-515
-516
-514
-514
-511
-511
-511
-511
-511
-503
-483
-441
-378
-305
-243
-222
-257
-328
-422
-506
-548
-555
-539
-524
-514
-508
-511
-510
-511
-512
-511
-511
-511
-511
-511
-512
-510
-509
-508
-507
-506
-507
-507
-505
-505
-504
-504
-503
-502
-502
-500
-498
-498
-493
-495
-495
-492
-490
-490
-487
-485
-481
-480
-478
-474
-471
-467
-463
-456
-456
-453
-450
-446
-441
-436
-432
-426
-424
-420
-420
-424
-429
-434
-443
-452
-461
-470
-477
-484
-490
-494
-497
-500
-501
-502
-503
-504
-503
-504
-504
-505
-505
-504
-505
-505
-502
-502
-503
-503
-502
-505
-502
-502
-502
-502
-504
-501
-502
-502
-503
-504
-503
-502
-503
-502
-504
-504
-504
-504
-505
-504
-505
-505
-504
-505
-504
-505
-504
-504
-503
-500
-497
-495
-491
-487
-487
-487
-486
-483
-477
-476
-473
-470
-473
-473
-475
-477
-485
-489
-497
-503
-507
-511
-512
-514
-514
-514
-514
-514
-514
-514
-514
-514
-514
-514
-514
-514
-512
-511
-514
-514
-512
-501
-473
-418
-339
-257
-204
-216
-291
-394
-497
-553
-560
-541
-521
-509
-504
-505
-511
-511
-511
-511
-510
-511
-511
-510
-509
-508
-507
-507
-507
-505
-504
-502
-502
-503
-501
-501
-499
-499
-497
-496
-495
-494
-493
-491
-490
-489
-487
-485
-483
-480
-477
-474
-471
-470
-467
-463
-460
-456
-450
-449
-446
-441
-436
-431
-427
-423
-419
-417
-416
-419
-426
-433
-443
-452
-463
-471
-480
-486
-489
-491
-493
-496
-497
-498
-498
-499
-499
-499
-497
-498
-496
-498
-500
-498
-497
-496
-496
-497
-495
-495
-497
-495
-497
-495
-496
-496
-495
-495
-495
-495
-495
-494
-495
-496
-496
-496
-496
-496
-497
-496
-496
-497
-497
-498
-497
-497
-496
-496
-494
-491
-489
-487
-483
-480
-479
-477
-477
-473
-470
-465
-464
-463
-465
-465
-467
-472
-475
-484
-489
-495
-500
-502
-505
-504
-505
-506
-506
-507
-507
-505
-505
-507
-507
-505
-504
-504
-504
-504
-504
-504
-495
-471
-421
-343
-257
-190
-181
-234
-328
-436
-511
-539
-534
-514
-499
-493
-496
-498
-502
-505
-504
-504
-503
-502
-504
-504
-502
-501
-501
-501
-499
-500
-498
-498
-498
-496
-495
-493
-494
-494
-492
-491
-490
-490
-487
-487
-485
-484
-483
-480
-477
-471
-472
-469
-467
-464
-462
-459
-456
-450
-446
-440
-439
-435
-432
-427
-419
-416
-412
-412
-414
-416
-424
-433
-443
-453
-461
-470
-477
-484
-487
-490
-493
-492
-493
-493
-494
-495
-495
-494
-494
-493
-495
-494
-494
-494
-492
-493
-493
-493
-494
-494
-496
-495
-494
-493
-493
-494
-495
-491
-491
-490
-491
-494
-493
-494
-494
-493
-494
-494
-495
-493
-493
-493
-493
-493
-494
-494
-492
-491
-489
-486
-483
-480
-478
-477
-477
-477
-474
-469
-466
-464
-463
-465
-464
-467
-471
-475
-481
-490
-497
-499
-502
-504
-505
-507
-504
-502
-503
-504
-506
-505
-505
-506
-505
-504
-502
-503
-503
-505
-501
-489
-456
-395
-314
-232
-185
-199
-270
-372
-472
-531
-544
-531
-512
-499
-493
-495
-498
-501
-501
-502
-502
-501
-501
-499
-501
-502
-499
-499
-498
-496
-497
-497
-497
-496
-494
-493
-491
-490
-490
-489
-488
-487
-486
-485
-484
-483
-480
-477
-477
-473
-472
-468
-466
-463
-459
-456
-452
-449
-444
-439
-436
-433
-428
-422
-419
-414
-411
-407
-410
-412
-418
-426
-433
-445
-455
-464
-471
-480
-483
-485
-489
-490
-493
-493
-493
-493
-493
-493
-494
-493
-494
-494
-494
-493
-492
-492
-494
-493
-494
-489
-490
-490
-490
-490
-491
-491
-492
-491
-491
-493
-491
-490
-490
-490
-493
-491
-491
-490
-492
-493
-493
-493
-494
-492
-492
-490
-489
-487
-483
-480
-477
-475
-477
-474
-471
-467
-463
-462
-461
-464
-464
-467
-470
-475
-480
-489
-495
-498
-502
-504
-504
-504
-504
-505
-504
-504
-506
-505
-506
-507
-506
-506
-503
-501
-501
-504
-505
-496
-473
-426
-350
-263
-195
-177
-220
-305
-409
-491
-530
-531
-516
-501
-495
-495
-498
-500
-502
-503
-504
-504
-503
-503
-502
-502
-501
-499
-499
-499
-502
-498
-496
-496
-495
-497
-495
-495
-493
-493
-491
-490
-490
-487
-486
-484
-484
-484
-481
-480
-476
-473
-471
-468
-466
-463
-459
-456
-453
-449
-444
-440
-436
-432
-426
-422
-419
-415
-412
-412
-416
-422
-428
-440
-449
-460
-468
-473
-480
-483
-487
-490
-492
-493
-494
-494
-495
-495
-495
-495
-493
-493
-493
-493
-494
-492
-492
-492
-491
-490
-490
-490
-490
-490
-490
-490
-490
-489
-490
-490
-490
-490
-490
-490
-490
-490
-490
-490
-490
-492
-489
-489
-487
-484
-484
-479
-477
-475
-473
-471
-471
-468
-467
-463
-461
-460
-461
-463
-463
-465
-469
-473
-481
-487
-494
-498
-499
-500
-501
-501
-501
-501
-503
-502
-503
-502
-502
-501
-501
-500
-501
-501
-500
-501
-501
-492
-465
-418
-345
-260
-196
-180
-231
-321
-423
-499
-531
-526
-511
-497
-491
-490
-493
-497
-498
-499
-500
-499
-499
-499
-497
-496
-497
-494
-495
-495
-496
-496
-495
-493
-494
-491
-491
-490
-489
-490
-488
-488
-489
-484
-483
-480
-480
-480
-477
-474
-473
-470
-467
-464
-461
-459
-455
-450
-447
-443
-440
-436
-433
-428
-423
-419
-414
-409
-409
-409
-410
-415
-423
-432
-440
-450
-458
-465
-472
-480
-483
-487
-488
-490
-493
-492
-493
-491
-491
-494
-491
-491
-490
-490
-490
-490
-490
-490
-489
-489
-488
-487
-487
-487
-489
-488
-489
-489
-488
-489
-487
-487
-487
-487
-486
-487
-487
-487
-489
-487
-487
-486
-485
-484
-481
-477
-473
-473
-471
-470
-470
-467
-466
-463
-460
-458
-458
-461
-461
-463
-468
-473
-482
-489
-494
-497
-497
-499
-499
-498
-499
-499
-501
-501
-501
-502
-501
-501
-499
-499
-499
-497
-501
-502
-497
-481
-446
-381
-295
-216
-183
-216
-299
-400
-484
-523
-527
-514
-500
-490
-490
-490
-495
-498
-497
-497
-497
-496
-496
-497
-496
-495
-495
-495
-495
-493
-493
-494
-493
-491
-490
-490
-489
-488
-487
-488
-487
-486
-484
-484
-483
-480
-478
-477
-475
-471
-471
-468
-466
-462
-456
-456
-453
-449
-446
-443
-438
-435
-432
-426
-423
-419
-414
-410
-408
-410
-413
-419
-428
-436
-446
-455
-463
-468
-474
-480
-484
-486
-487
-489
-489
-490
-490
-490
-490
-489
-490
-490
-489
-489
-488
-489
-490
-487
-487
-487
-487
-487
-485
-487
-487
-487
-486
-484
-484
-484
-484
-484
-486
-485
-485
-485
-487
-487
-487
-487
-487
-486
-484
-484
-481
-480
-477
-474
-472
-470
-470
-468
-467
-462
-460
-458
-456
-456
-456
-459
-460
-465
-470
-473
-484
-489
-494
-496
-497
-499
-498
-498
-499
-501
-501
-501
-500
-498
-498
-498
-497
-496
-497
-498
-499
-493
-477
-443
-382
-301
-229
-189
-210
-284
-376
-465
-514
-526
-516
-502
-495
-490
-493
-496
-500
-501
-499
-499
-498
-498
-497
-496
-496
-496
-495
-495
-496
-496
-496
-496
-495
-494
-493
-493
-491
-490
-489
-487
-488
-486
-484
-484
-480
-482
-480
-477
-476
-474
-472
-468
-467
-464
-460
-457
-453
-449
-446
-440
-437
-433
-429
-423
-418
-416
-413
-414
-416
-422
-429
-436
-446
-456
-465
-471
-478
-483
-485
-487
-490
-491
-492
-495
-495
-496
-497
-498
-497
-495
-495
-495
-495
-495
-494
-495
-494
-493
-494
-493
-494
-496
-493
-493
-494
-493
-496
-494
-493
-493
-492
-493
-493
-493
-494
-495
-497
-496
-496
-495
-494
-492
-489
-485
-483
-480
-479
-479
-479
-477
-473
-469
-466
-464
-465
-466
-467
-468
-473
-480
-486
-493
-499
-505
-505
-507
-507
-507
-509
-506
-507
-509
-508
-511
-509
-509
-510
-508
-508
-507
-509
-511
-511
-501
-474
-424
-349
-267
-206
-206
-265
-364
-471
-542
-559
-543
-524
-508
-502
-502
-504
-508
-508
-508
-508
-507
-507
-506
-505
-505
-508
-505
-505
-504
-503
-505
-503
-502
-501
-499
-498
-498
-497
-498
-495
-495
-494
-493
-492
-491
-489
-487
-486
-484
-482
-480
-477
-473
-470
-466
-463
-458
-455
-450
-446
-442
-438
-434
-430
-427
-423
-419
-416
-418
-423
-431
-440
-450
-463
-470
-477
-484
-490
-494
-497
-499
-501
-503
-502
-504
-504
-503
-503
-502
-502
-501
-501
-501
-501
-501
-502
-502
-500
-501
-499
-501
-501
-501
-501
-499
-499
-501
-503
-501
-503
-499
-498
-499
-501
-502
-501
-501
-501
-499
-500
-497
-494
-490
-487
-485
-483
-482
-481
-480
-477
-474
-472
-471
-472
-475
-477
-481
-487
-491
-497
-502
-507
-511
-513
-514
-514
-514
-514
-514
-515
-516
-516
-516
-516
-515
-514
-516
-512
-511
-514
-514
-514
-498
-466
-406
-327
-246
-210
-238
-323
-436
-537
-582
-579
-555
-531
-514
-507
-507
-508
-511
-512
-511
-511
-511
-510
-511
-510
-507
-507
-505
-506
-505
-504
-504
-504
-504
-504
-505
-502
-501
-498
-498
-501
-496
-496
-494
-493
-491
-490
-487
-485
-483
-481
-478
-476
-474
-470
-467
-462
-458
-453
-449
-445
-442
-440
-436
-431
-426
-419
-416
-416
-418
-423
-431
-441
-449
-460
-470
-477
-485
-489
-490
-493
-496
-501
-499
-501
-499
-501
-501
-501
-502
-501
-500
-501
-499
-500
-499
-499
-499
-497
-497
-498
-497
-498
-498
-498
-499
-497
-496
-497
-496
-496
-496
-496
-497
-497
-498
-498
-497
-497
-498
-497
-496
-495
-494
-495
-490
-487
-484
-483
-484
-480
-479
-477
-471
-468
-465
-464
-466
-467
-467
-471
-477
-484
-491
-497
-502
-504
-505
-506
-507
-507
-507
-507
-507
-507
-509
-508
-508
-507
-505
-504
-504
-504
-507
-508
-501
-480
-430
-354
-265
-194
-174
-226
-321
-436
-521
-551
-542
-524
-506
-498
-497
-499
-501
-503
-504
-505
-504
-505
-504
-502
-501
-501
-499
-500
-501
-498
-499
-496
-497
-497
-496
-495
-496
-495
-493
-491
-491
-490
-490
-487
-487
-486
-487
-483
-480
-477
-474
-471
-470
-467
-466
-461
-459
-456
-452
-447
-443
-440
-436
-432
-428
-424
-419
-416
-413
-416
-418
-426
-433
-441
-452
-460
-468
-474
-480
-484
-486
-489
-490
-491
-493
-494
-493
-494
-497
-494
-492
-493
-492
-495
-493
-493
-491
-490
-491
-490
-490
-490
-490
-490
-490
-490
-490
-490
-490
-490
-490
-490
-490
-489
-489
-490
-490
-490
-489
-490
-489
-490
-490
-487
-485
-483
-477
-474
-473
-473
-469
-472
-470
-467
-461
-458
-459
-460
-461
-463
-464
-470
-475
-483
-487
-494
-497
-498
-499
-501
-501
-500
-500
-501
-501
-502
-502
-502
-502
-502
-500
-499
-498
-499
-501
-499
-491
-467
-415
-335
-248
-182
-168
-214
-301
-406
-491
-536
-532
-515
-500
-493
-493
-495
-498
-499
-499
-501
-499
-499
-498
-497
-498
-497
-497
-497
-496
-496
-495
-494
-494
-493
-491
-491
-490
-490
-489
-488
-487
-487
-486
-484
-483
-483
-480
-477
-475
-473
-471
-467
-467
-464
-462
-458
-452
-452
-446
-444
-440
-436
-433
-429
-423
-419
-414
-411
-411
-414
-419
-427
-435
-444
-454
-461
-469
-474
-479
-484
-485
-487
-490
-487
-490
-491
-490
-490
-490
-490
-491
-491
-491
-492
-490
-490
-489
-489
-491
-490
-490
-490
-490
-489
-489
-489
-489
-489
-489
-488
-489
-489
-489
-489
-490
-489
-490
-490
-490
-490
-490
-490
-489
-489
-487
-486
-482
-477
-474
-473
-473
-473
-473
-471
-467
-462
-458
-457
-459
-460
-460
-466
-470
-477
-480
-490
-494
-497
-500
-501
-501
-501
-502
-502
-502
-503
-502
-501
-501
-501
-501
-501
-501
-500
-501
-501
-498
-483
-447
-381
-294
-213
-177
-197
-270
-372
-467
-523
-532
-521
-504
-494
-495
-495
-497
-500
-501
-503
-499
-500
-499
-499
-498
-497
-496
-497
-495
-496
-496
-496
-495
-495
-494
-494
-493
-491
-491
-490
-489
-488
-487
-487
-484
-484
-480
-480
-477
-477
-474
-473
-470
-467
-465
-460
-456
-453
-449
-446
-442
-436
-434
-429
-426
-421
-416
-414
-412
-414
-419
-426
-433
-443
-453
-460
-468
-474
-480
-486
-489
-490
-490
-491
-492
-494
-493
-493
-492
-492
-493
-492
-493
-494
-493
-492
-491
-491
-491
-490
-490
-489
-489
-491
-489
-490
-489
-490
-493
-490
-490
-490
-490
-491
-491
-491
-491
-490
-493
-492
-492
-492
-492
-491
-490
-489
-487
-485
-483
-480
-477
-474
-473
-473
-472
-467
-465
-462
-462
-460
-463
-463
-467
-471
-477
-487
-491
-496
-498
-500
-504
-502
-502
-503
-504
-505
-505
-505
-505
-504
-504
-504
-502
-501
-501
-501
-502
-497
-484
-453
-395
-319
-246
-202
-216
-280
-372
-460
-514
-524
-516
-505
-496
-494
-496
-499
-501
-502
-502
-502
-501
-501
-504
-501
-500
-500
-499
-500
-499
-497
-498
-496
-496
-495
-495
-494
-493
-494
-491
-490
-489
-488
-487
-487
-486
-484
-482
-480
-480
-477
-474
-471
-468
-466
-463
-461
-456
-452
-449
-445
-443
-438
-435
-429
-422
-419
-416
-416
-417
-419
-429
-437
-446
-455
-462
-470
-477
-483
-486
-490
-490
-491
-493
-493
-493
-494
-493
-493
-492
-492
-493
-493
-492
-493
-492
-493
-489
-490
-490
-489
-490
-490
-490
-491
-490
-490
-493
-491
-491
-490
-491
-495
-492
-492
-492
-492
-493
-493
-493
-494
-494
-494
-494
-493
-493
-493
-492
-490
-486
-484
-480
-479
-477
-477
-478
-477
-473
-468
-464
-463
-463
-464
-466
-467
-474
-478
-483
-489
-494
-500
-502
-504
-505
-508
-505
-504
-504
-505
-508
-507
-507
-507
-505
-506
-504
-504
-506
-507
-506
-500
-483
-446
-384
-304
-231
-195
-221
-298
-395
-481
-526
-532
-521
-508
-499
-497
-499
-502
-505
-507
-508
-507
-505
-505
-506
-507
-505
-505
-505
-504
-505
-502
-502
-503
-502
-502
-499
-499
-497
-497
-497
-496
-496
-495
-495
-494
-493
-489
-487
-486
-484
-484
-483
-480
-477
-474
-471
-468
-465
-461
-456
-451
-448
-446
-443
-438
-434
-428
-424
-420
-419
-419
-422
-431
-440
-450
-459
-466
-476
-483
-487
-491
-496
-499
-501
-501
-502
-503
-500
-499
-501
-501
-501
-502
-501
-500
-500
-500
-499
-499
-499
-498
-498
-499
-500
-501
-501
-501
-501
-499
-498
-500
-499
-500
-502
-499
-499
-501
-502
-504
-502
-502
-502
-504
-505
-504
-502
-501
-499
-498
-495
-493
-491
-489
-487
-486
-486
-484
-481
-478
-474
-472
-471
-471
-471
-473
-476
-480
-489
-496
-502
-506
-508
-511
-511
-512
-514
-514
-514
-514
-514
-517
-514
-515
-514
-514
-514
-511
-512
-512
-514
-509
-491
-455
-392
-314
-238
-204
-230
-309
-412
-510
-560
-566
-549
-530
-514
-511
-508
-512
-514
-512
-512
-514
-514
-515
-514
-514
-511
-511
-512
-511
-511
-514
-511
-508
-507
-507
-507
-506
-505
-504
-504
-502
-499
-499
-500
-500
-499
-497
-494
-493
-490
-487
-484
-480
-477
-475
-474
-470
-467
-463
-458
-456
-451
-450
-446
-440
-436
-428
-423
-420
-422
-425
-429
-435
-446
-456
-467
-476
-487
-490
-495
-500
-502
-506
-505
-506
-507
-507
-507
-507
-508
-508
-507
-507
-507
-505
-505
-505
-507
-505
-504
-504
-504
-503
-504
-501
-505
-505
-506
-506
-505
-505
-504
-505
-505
-506
-505
-505
-505
-506
-508
-507
-507
-505
-505
-505
-505
-505
-503
-501
-499
-495
-494
-490
-490
-487
-487
-485
-480
-477
-473
-473
-473
-476
-477
-480
-484
-490
-498
-504
-508
-511
-514
-514
-514
-515
-515
-515
-514
-516
-517
-517
-518
-516
-516
-514
-514
-514
-514
-514
-510
-494
-458
-395
-311
-234
-202
-233
-316
-423
-520
-565
-568
-550
-528
-514
-507
-507
-508
-511
-511
-514
-511
-513
-511
-510
-509
-510
-508
-508
-507
-507
-505
-505
-506
-502
-502
-502
-502
-502
-501
-499
-498
-497
-495
-495
-494
-493
-490
-489
-487
-485
-483
-481
-479
-475
-472
-469
-467
-463
-459
-453
-450
-445
-443
-438
-433
-429
-424
-419
-418
-419
-422
-428
-436
-446
-453
-464
-471
-480
-485
-491
-493
-495
-496
-497
-500
-499
-498
-497
-498
-501
-499
-499
-499
-499
-497
-497
-496
-495
-495
-496
-495
-495
-496
-496
-497
-497
-496
-495
-495
-495
-496
-496
-495
-495
-496
-497
-498
-498
-497
-497
-498
-500
-497
-497
-496
-497
-499
-496
-494
-492
-490
-487
-485
-484
-480
-480
-479
-477
-473
-469
-467
-466
-465
-466
-467
-469
-473
-479
-485
-491
-497
-499
-502
-504
-505
-504
-506
-506
-506
-507
-507
-507
-507
-508
-506
-505
-504
-503
-506
-504
-497
-477
-431
-358
-270
-200
-172
-212
-296
-404
-495
-540
-538
-521
-505
-496
-496
-498
-501
-504
-504
-504
-504
-502
-502
-501
-501
-501
-499
-501
-499
-500
-499
-499
-499
-499
-498
-497
-496
-495
-496
-493
-492
-490
-489
-489
-487
-487
-484
-484
-482
-480
-477
-474
-471
-468
-467
-464
-460
-456
-453
-448
-446
-441
-438
-433
-427
-423
-419
-416
-416
-418
-423
-429
-436
-444
-453
-463
-470
-477
-480
-485
-491
-490
-492
-493
-495
-497
-496
-497
-495
-493
-495
-495
-495
-495
-495
-494
-493
-493
-492
-493
-492
-493
-493
-494
-493
-492
-493
-493
-493
-493
-493
-494
-490
-491
-491
-492
-493
-494
-493
-493
-492
-493
-496
-495
-495
-495
-494
-495
-491
-490
-487
-485
-483
-481
-477
-478
-477
-475
-472
-469
-465
-462
-462
-463
-463
-465
-468
-473
-480
-487
-493
-499
-499
-502
-502
-502
-503
-504
-504
-504
-504
-504
-504
-504
-502
-502
-502
-502
-502
-506
-501
-493
-470
-426
-352
-271
-202
-179
-222
-307
-406
-491
-532
-532
-517
-501
-495
-494
-497
-500
-501
-502
-501
-502
-502
-503
-502
-501
-501
-499
-499
-499
-498
-497
-498
-496
-495
-496
-495
-494
-493
-495
-491
-490
-489
-487
-490
-487
-485
-484
-480
-480
-477
-475
-475
-472
-467
-466
-460
-461
-456
-453
-448
-446
-442
-438
-434
-429
-425
-421
-416
-414
-412
-418
-424
-431
-441
-448
-456
-463
-470
-477
-481
-487
-487
-490
-492
-494
-496
-495
-495
-495
-495
-495
-493
-494
-493
-492
-493
-493
-493
-494
-494
-493
-493
-493
-492
-490
-491
-493
-493
-492
-491
-490
-490
-491
-491
-492
-491
-491
-492
-493
-494
-494
-493
-494
-493
-494
-493
-495
-496
-494
-490
-489
-486
-484
-480
-477
-477
-477
-477
-472
-467
-464
-462
-462
-464
-466
-468
-471
-477
-484
-490
-497
-500
-502
-504
-505
-505
-504
-504
-504
-504
-505
-505
-507
-505
-505
-504
-504
-504
-505
-508
-501
-487
-450
-381
-290
-212
-184
-223
-307
-413
-496
-533
-534
-520
-504
-496
-497
-501
-504
-505
-505
-505
-506
-505
-504
-504
-503
-504
-503
-501
-501
-499
-501
-500
-500
-499
-499
-498
-496
-495
-495
-493
-492
-491
-490
-490
-490
-487
-484
-483
-482
-480
-477
-474
-473
-468
-465
-463
-459
-456
-452
-448
-443
-438
-433
-427
-424
-420
-419
-417
-418
-422
-428
-436
-445
-456
-466
-472
-477
-484
-487
-490
-494
-495
-495
-496
-496
-498
-500
-498
-497
-497
-496
-498
-496
-496
-497
-496
-496
-495
-495
-495
-495
-495
-495
-493
-494
-493
-495
-495
-495
-495
-495
-494
-495
-495
-495
-495
-496
-496
-493
-495
-496
-496
-498
-498
-499
-497
-496
-495
-497
-491
-489
-484
-483
-484
-480
-480
-477
-474
-470
-468
-464
-465
-466
-467
-470
-474
-480
-487
-493
-499
-504
-506
-507
-508
-509
-508
-507
-507
-507
-508
-508
-507
-509
-509
-508
-507
-507
-509
-508
-504
-489
-456
-395
-312
-233
-189
-210
-284
-388
-480
-536
-541
-528
-511
-502
-499
-503
-507
-511
-511
-510
-508
-507
-506
-506
-507
-506
-505
-506
-504
-505
-504
-505
-505
-505
-502
-501
-499
-498
-497
-496
-496
-496
-495
-493
-490
-490
-493
-487
-484
-481
-479
-480
-473
-470
-464
-460
-458
-456
-452
-450
-446
-442
-438
-432
-428
-423
-421
-419
-419
-424
-428
-437
-446
-455
-463
-471
-480
-487
-492
-497
-499
-499
-499
-501
-501
-503
-501
-500
-501
-499
-501
-501
-500
-503
-499
-499
-498
-498
-499
-500
-499
-499
-498
-498
-499
-499
-500
-498
-500
-498
-498
-497
-496
-497
-498
-499
-500
-500
-500
-501
-502
-503
-501
-501
-500
-500
-497
-494
-490
-489
-489
-485
-485
-484
-483
-483
-477
-473
-473
-471
-470
-474
-474
-477
-480
-486
-491
-500
-504
-509
-513
-512
-511
-511
-511
-511
-514
-514
-514
-515
-514
-512
-511
-510
-510
-511
-511
-505
-485
-443
-379
-301
-234
-206
-237
-317
-418
-514
-561
-568
-555
-533
-517
-509
-505
-507
-508
-511
-512
-512
-512
-512
-511
-511
-511
-510
-509
-508
-508
-507
-504
-505
-505
-503
-501
-501
-500
-498
-499
-498
-498
-496
-493
-493
-492
-491
-489
-486
-484
-480
-477
-474
-474
-472
-467
-464
-460
-455
-450
-443
-442
-439
-434
-429
-423
-418
-416
-418
-422
-429
-436
-446
-455
-463
-471
-479
-487
-492
-496
-499
-499
-501
-501
-504
-504
-504
-502
-503
-504
-504
-504
-502
-501
-501
-501
-503
-504
-501
-501
-501
-501
-503
-501
-500
-499
-499
-500
-500
-501
-501
-501
-502
-501
-501
-501
-502
-504
-503
-502
-501
-502
-501
-500
-498
-496
-494
-490
-489
-486
-484
-484
-484
-480
-477
-473
-471
-471
-470
-468
-473
-477
-483
-489
-498
-501
-507
-507
-510
-511
-512
-511
-511
-511
-512
-512
-512
-511
-511
-511
-511
-508
-508
-511
-510
-505
-488
-447
-377
-292
-223
-205
-253
-346
-455
-533
-562
-554
-534
-514
-506
-504
-505
-507
-509
-508
-511
-509
-507
-507
-507
-507
-505
-505
-504
-504
-504
-502
-502
-499
-500
-499
-499
-498
-496
-496
-495
-493
-493
-491
-491
-490
-488
-485
-483
-480
-477
-477
-474
-470
-467
-466
-460
-458
-455
-450
-446
-439
-434
-431
-426
-424
-419
-415
-416
-418
-424
-430
-438
-447
-456
-465
-472
-480
-484
-487
-490
-493
-494
-496
-497
-497
-498
-496
-496
-495
-496
-495
-495
-495
-491
-493
-493
-493
-493
-493
-494
-494
-494
-493
-493
-490
-490
-491
-492
-495
-492
-492
-491
-491
-494
-493
-494
-493
-492
-493
-493
-491
-491
-491
-492
-492
-491
-489
-485
-483
-480
-477
-477
-475
-475
-473
-470
-467
-461
-461
-459
-461
-461
-463
-468
-473
-480
-487
-493
-496
-496
-500
-500
-499
-500
-501
-503
-501
-501
-501
-501
-502
-500
-499
-497
-498
-499
-499
-497
-490
-466
-416
-339
-253
-187
-173
-223
-314
-418
-500
-534
-532
-514
-499
-490
-490
-493
-496
-497
-499
-498
-496
-497
-499
-496
-495
-495
-495
-497
-493
-493
-492
-494
-493
-490
-489
-487
-487
-487
-487
-485
-484
-483
-483
-481
-479
-477
-477
-475
-471
-469
-467
-464
-463
-460
-456
-453
-450
-447
-443
-438
-434
-430
-426
-422
-416
-413
-410
-410
-411
-415
-422
-431
-442
-450
-456
-466
-471
-478
-480
-484
-486
-487
-487
-489
-487
-487
-487
-488
-487
-487
-487
-487
-486
-487
-487
-487
-487
-485
-484
-484
-485
-485
-485
-484
-484
-484
-484
-485
-485
-485
-485
-487
-485
-485
-485
-487
-489
-487
-487
-486
-487
-487
-487
-487
-487
-487
-484
-481
-477
-475
-473
-471
-470
-469
-469
-464
-460
-456
-456
-455
-456
-458
-461
-465
-470
-477
-483
-490
-493
-496
-497
-496
-495
-497
-496
-497
-499
-499
-501
-499
-499
-497
-496
-497
-496
-497
-499
-496
-486
-455
-401
-324
-240
-184
-192
-261
-363
-461
-520
-530
-517
-501
-490
-487
-490
-493
-496
-499
-499
-499
-498
-496
-496
-495
-494
-494
-495
-495
-494
-491
-493
-490
-491
-490
-490
-491
-487
-486
-485
-485
-484
-484
-480
-480
-479
-477
-477
-474
-473
-470
-468
-464
-461
-459
-455
-452
-446
-444
-440
-435
-432
-427
-423
-418
-414
-412
-410
-411
-415
-423
-433
-441
-449
-460
-467
-473
-478
-484
-487
-487
-489
-490
-490
-489
-489
-490
-490
-491
-490
-490
-489
-489
-490
-489
-489
-487
-487
-487
-487
-487
-487
-487
-487
-487
-484
-487
-487
-487
-487
-487
-487
-487
-487
-487
-489
-487
-487
-487
-489
-491
-487
-487
-487
-487
-487
-483
-480
-477
-475
-472
-471
-470
-470
-468
-464
-460
-456
-456
-456
-458
-459
-464
-468
-474
-481
-487
-492
-495
-496
-497
-499
-497
-496
-497
-497
-499
-500
-501
-499
-500
-499
-499
-496
-496
-498
-497
-490
-463
-407
-325
-240
-181
-190
-259
-360
-460
-521
-532
-517
-501
-490
-490
-492
-495
-496
-498
-499
-499
-500
-500
-499
-497
-496
-496
-495
-495
-495
-495
-494
-494
-492
-492
-493
-494
-490
-490
-487
-487
-487
-484
-484
-480
-480
-480
-477
-475
-474
-471
-468
-466
-463
-461
-458
-455
-452
-448
-443
-439
-433
-430
-425
-421
-416
-414
-412
-411
-412
-419
-426
-436
-446
-455
-462
-470
-477
-483
-484
-487
-487
-491
-495
-493
-493
-491
-491
-491
-490
-491
-491
-491
-492
-492
-489
-490
-490
-490
-490
-490
-490
-490
-489
-489
-489
-489
-490
-489
-490
-489
-489
-490
-490
-490
-491
-491
-491
-491
-492
-491
-490
-491
-490
-490
-493
-489
-487
-484
-480
-483
-477
-477
-474
-473
-468
-465
-462
-460
-459
-460
-461
-463
-467
-472
-480
-488
-494
-498
-500
-501
-502
-503
-504
-504
-504
-505
-504
-504
-504
-504
-504
-502
-501
-502
-501
-504
-505
-493
-466
-409
-324
-236
-187
-198
-270
-371
-468
-524
-536
-524
-508
-499
-497
-499
-503
-504
-505
-506
-504
-505
-504
-505
-504
-504
-502
-502
-502
-501
-499
-499
-499
-499
-498
-496
-496
-495
-495
-495
-493
-492
-490
-490
-489
-490
-486
-484
-480
-480
-480
-474
-471
-470
-467
-463
-461
-456
-453
-447
-444
-440
-436
-432
-426
-422
-418
-416
-418
-423
-430
-439
-450
-461
-468
-478
-483
-489
-493
-496
-498
-498
-499
-498
-499
-498
-499
-501
-500
-500
-499
-499
-501
-498
-497
-496
-496
-498
-499
-498
-498
-496
-498
-497
-497
-497
-497
-497
-497
-497
-499
-497
-498
-497
-497
-497
-498
-500
-501
-497
-499
-499
-498
-497
-497
-496
-495
-491
-489
-489
-484
-484
-483
-483
-480
-473
-468
-468
-468
-469
-471
-472
-477
-483
-490
-496
-504
-506
-508
-509
-508
-508
-509
-511
-511
-511
-511
-511
-511
-511
-511
-511
-509
-508
-508
-510
-506
-490
-450
-376
-287
-219
-203
-258
-356
-466
-545
-564
-551
-532
-515
-508
-507
-509
-511
-511
-509
-509
-508
-510
-508
-508
-507
-508
-508
-508
-507
-507
-504
-502
-501
-501
-502
-501
-500
-498
-497
-497
-496
-495
-493
-492
-490
-487
-486
-485
-484
-480
-480
-473
-470
-467
-463
-457
-456
-452
-449
-443
-440
-435
-430
-426
-422
-418
-418
-419
-425
-433
-442
-450
-459
-467
-474
-483
-489
-493
-496
-497
-500
-502
-500
-504
-504
-503
-504
-502
-502
-502
-501
-504
-504
-502
-501
-501
-500
-503
-499
-499
-499
-499
-501
-500
-500
-501
-501
-501
-500
-501
-501
-501
-502
-502
-502
-503
-502
-504
-504
-504
-502
-503
-502
-501
-500
-495
-493
-490
-489
-487
-487
-485
-481
-479
-475
-473
-473
-473
-474
-473
-479
-484
-493
-501
-510
-511
-511
-514
-514
-515
-514
-514
-514
-514
-514
-515
-514
-514
-514
-514
-512
-511
-514
-514
-511
-497
-463
-401
-319
-239
-196
-219
-293
-401
-505
-563
-571
-551
-530
-514
-507
-510
-511
-512
-511
-512
-514
-512
-512
-511
-510
-509
-507
-507
-507
-507
-507
-505
-505
-504
-503
-503
-502
-501
-499
-499
-498
-496
-495
-494
-492
-490
-489
-484
-484
-480
-477
-473
-471
-469
-466
-463
-458
-453
-450
-447
-443
-438
-430
-429
-423
-421
-419
-419
-423
-429
-438
-446
-455
-464
-473
-481
-487
-491
-494
-495
-496
-497
-498
-499
-499
-498
-499
-499
-500
-499
-499
-498
-496
-496
-495
-496
-496
-495
-496
-495
-493
-493
-493
-495
-496
-493
-494
-495
-495
-497
-494
-494
-494
-494
-495
-496
-496
-496
-496
-497
-495
-495
-495
-495
-494
-491
-489
-484
-480
-480
-478
-477
-480
-477
-473
-467
-464
-464
-464
-466
-465
-467
-472
-477
-485
-493
-499
-501
-504
-504
-504
-506
-504
-503
-504
-504
-505
-505
-505
-503
-501
-501
-501
-501
-501
-501
-493
-468
-415
-332
-242
-179
-179
-246
-350
-459
-527
-544
-530
-510
-495
-493
-495
-499
-502
-503
-503
-502
-501
-499
-499
-498
-498
-501
-498
-497
-496
-496
-497
-496
-496
-495
-493
-493
-490
-490
-489
-489
-488
-486
-485
-484
-484
-481
-480
-479
-477
-474
-471
-468
-465
-462
-460
-456
-453
-449
-446
-442
-436
-433
-429
-424
-419
-415
-413
-412
-416
-422
-429
-438
-445
-456
-465
-473
-480
-483
-485
-487
-490
-490
-492
-492
-492
-491
-491
-491
-493
-492
-490
-490
-490
-490
-490
-490
-490
-489
-489
-484
-487
-487
-487
-489
-489
-489
-489
-487
-489
-489
-487
-487
-487
-488
-490
-489
-490
-490
-491
-491
-490
-490
-490
-489
-489
-485
-484
-480
-477
-474
-473
-471
-472
-470
-467
-461
-458
-458
-458
-459
-461
-463
-467
-473
-479
-486
-491
-495
-498
-500
-499
-499
-499
-499
-501
-501
-504
-501
-501
-501
-499
-501
-496
-497
-496
-495
-485
-456
-399
-319
-239
-183
-189
-253
-348
-447
-514
-532
-523
-506
-495
-490
-491
-495
-496
-498
-498
-499
-498
-497
-498
-497
-496
-496
-496
-495
-495
-495
-496
-493
-491
-491
-491
-494
-490
-489
-487
-486
-485
-484
-484
-483
-483
-481
-477
-474
-473
-470
-469
-466
-462
-460
-455
-452
-449
-444
-441
-438
-434
-428
-423
-419
-416
-413
-411
-415
-419
-426
-436
-445
-453
-463
-470
-477
-480
-485
-487
-489
-489
-490
-492
-491
-492
-491
-491
-492
-493
-492
-491
-490
-490
-490
-489
-489
-490
-490
-489
-489
-489
-489
-489
-489
-489
-488
-487
-488
-489
-489
-489
-490
-489
-490
-490
-489
-490
-490
-490
-494
-491
-490
-490
-489
-489
-483
-481
-477
-477
-474
-474
-474
-472
-467
-463
-461
-459
-461
-462
-464
-467
-471
-477
-484
-490
-496
-498
-501
-501
-499
-501
-500
-504
-504
-504
-504
-502
-503
-501
-503
-501
-504
-502
-504
-502
-494
-467
-419
-344
-258
-197
-195
-261
-365
-468
-525
-533
-518
-502
-495
-495
-499
-502
-504
-505
-504
-502
-502
-501
-501
-501
-501
-501
-501
-501
-501
-499
-497
-497
-496
-496
-495
-495
-494
-493
-493
-492
-491
-491
-489
-487
-486
-484
-483
-479
-477
-477
-473
-469
-466
-462
-458
-455
-451
-448
-444
-441
-436
-433
-428
-423
-419
-418
-420
-425
-433
-443
-453
-463
-470
-480
-484
-489
-491
-494
-496
-498
-499
-498
-501
-501
-500
-498
-499
-501
-502
-499
-499
-498
-498
-498
-498
-498
-499
-498
-498
-496
-497
-497
-496
-497
-497
-498
-498
-498
-498
-496
-496
-498
-500
-500
-501
-498
-501
-501
-501
-500
-499
-497
-495
-490
-489
-490
-486
-485
-483
-483
-483
-477
-472
-470
-468
-468
-472
-473
-478
-483
-489
-496
-501
-505
-508
-511
-512
-514
-514
-512
-512
-511
-514
-514
-515
-515
-514
-514
-513
-511
-510
-511
-511
-505
-484
-436
-353
-265
-208
-219
-294
-402
-508
-557
-560
-542
-522
-511
-507
-509
-512
-514
-515
-513
-512
-511
-511
-512
-511
-511
-510
-509
-508
-507
-507
-507
-507
-505
-504
-504
-504
-504
-503
-501
-501
-498
-497
-496
-495
-493
-491
-490
-487
-484
-484
-479
-477
-474
-470
-466
-463
-457
-453
-450
-445
-442
-438
-432
-428
-424
-423
-423
-426
-433
-442
-451
-460
-470
-478
-486
-493
-496
-500
-502
-506
-507
-506
-508
-507
-507
-507
-507
-507
-508
-507
-506
-505
-504
-504
-504
-504
-507
-505
-505
-505
-505
-506
-506
-506
-505
-506
-507
-506
-505
-504
-502
-502
-504
-506
-507
-508
-508
-508
-508
-507
-505
-502
-501
-499
-496
-494
-491
-491
-491
-488
-486
-483
-479
-477
-477
-478
-479
-481
-487
-490
-496
-503
-509
-515
-517
-517
-519
-520
-521
-521
-521
-521
-521
-522
-521
-521
-521
-520
-517
-517
-517
-520
-514
-494
-450
-379
-294
-231
-220
-282
-390
-502
-574
-590
-572
-545
-525
-515
-514
-516
-520
-517
-516
-517
-520
-521
-517
-515
-514
-514
-515
-514
-514
-514
-511
-512
-511
-509
-507
-509
-507
-507
-507
-505
-504
-501
-500
-498
-496
-496
-495
-493
-490
-487
-484
-480
-477
-477
-471
-467
-462
-458
-451
-449
-446
-441
-436
-430
-428
-425
-424
-425
-429
-438
-446
-456
-464
-473
-483
-490
-495
-499
-503
-506
-507
-507
-507
-508
-509
-509
-509
-509
-508
-509
-508
-507
-507
-507
-507
-507
-505
-505
-506
-506
-504
-505
-505
-505
-505
-508
-505
-505
-506
-506
-508
-507
-505
-505
-504
-505
-505
-507
-506
-507
-505
-502
-501
-499
-497
-495
-493
-490
-489
-487
-485
-483
-480
-477
-474
-476
-474
-475
-479
-484
-490
-497
-505
-510
-511
-512
-514
-514
-514
-513
-514
-515
-517
-515
-514
-514
-514
-515
-514
-514
-514
-510
-515
-514
-506
-482
-426
-340
-250
-191
-196
-266
-372
-483
-553
-567
-549
-526
-511
-506
-507
-510
-512
-511
-511
-511
-510
-509
-508
-507
-507
-508
-507
-506
-507
-505
-505
-505
-505
-505
-502
-501
-500
-500
-499
-497
-497
-496
-496
-494
-492
-490
-488
-487
-484
-483
-480
-477
-474
-471
-468
-465
-460
-457
-454
-449
-445
-441
-436
-430
-425
-423
-421
-421
-424
-430
-435
-446
-453
-463
-470
-481
-484
-487
-490
-493
-496
-496
-499
-500
-499
-501
-501
-501
-501
-501
-499
-497
-499
-499
-498
-497
-496
-496
-495
-496
-497
-496
-493
-495
-495
-494
-495
-495
-495
-495
-495
-495
-495
-495
-494
-494
-496
-498
-496
-496
-495
-495
-496
-493
-491
-488
-484
-483
-479
-479
-477
-479
-477
-473
-469
-466
-464
-464
-465
-467
-471
-475
-479
-485
-492
-498
-501
-503
-505
-505
-505
-506
-506
-507
-507
-507
-508
-507
-507
-509
-506
-505
-504
-506
-508
-504
-493
-463
-406
-325
-242
-187
-195
-264
-365
-464
-524
-538
-526
-510
-499
-496
-498
-501
-503
-504
-504
-504
-504
-502
-502
-501
-501
-501
-502
-501
-499
-497
-496
-497
-496
-499
-496
-494
-493
-493
-494
-491
-490
-490
-488
-487
-485
-484
-483
-480
-477
-475
-473
-470
-467
-463
-459
-456
-452
-449
-446
-443
-438
-435
-430
-426
-420
-418
-416
-419
-422
-428
-436
-444
-455
-463
-468
-474
-479
-484
-487
-490
-495
-494
-493
-493
-493
-495
-494
-493
-493
-495
-495
-494
-494
-494
-493
-493
-492
-491
-490
-491
-490
-490
-491
-491
-491
-490
-490
-490
-490
-490
-490
-491
-491
-491
-491
-491
-491
-491
-491
-491
-491
-492
-493
-490
-487
-484
-480
-480
-477
-477
-477
-475
-470
-466
-463
-460
-461
-461
-462
-463
-467
-472
-477
-485
-492
-497
-499
-500
-501
-503
-502
-502
-504
-504
-501
-504
-504
-504
-504
-503
-502
-501
-502
-504
-502
-489
-458
-399
-320
-237
-184
-182
-235
-323
-421
-497
-528
-527
-512
-499
-494
-494
-496
-500
-501
-503
-502
-501
-501
-501
-501
-501
-499
-498
-496
-497
-497
-497
-496
-497
-496
-495
-493
-493
-492
-491
-490
-489
-487
-486
-485
-487
-483
-483
-480
-479
-479
-474
-472
-470
-466
-463
-459
-456
-453
-450
-446
-443
-439
-436
-431
-427
-422
-419
-419
-419
-424
-430
-438
-447
-456
-466
-471
-477
-482
-485
-487
-490
-492
-493
-493
-493
-494
-498
-495
-494
-494
-494
-495
-492
-492
-493
-492
-493
-491
-491
-491
-491
-491
-490
-490
-490
-490
-490
-490
-490
-490
-490
-490
-492
-491
-489
-491
-491
-492
-490
-492
-491
-490
-490
-490
-489
-487
-485
-483
-480
-477
-477
-477
-474
-472
-470
-467
-464
-462
-461
-462
-464
-467
-473
-477
-484
-489
-495
-499
-501
-501
-502
-501
-502
-502
-503
-504
-504
-504
-504
-504
-504
-502
-502
-501
-501
-502
-501
-492
-468
-422
-349
-270
-216
-219
-280
-371
-463
-514
-527
-517
-506
-498
-496
-497
-501
-504
-504
-504
-504
-504
-504
-504
-503
-503
-502
-502
-501
-501
-501
-501
-501
-500
-501
-498
-497
-496
-497
-495
-493
-494
-491
-491
-490
-489
-487
-486
-485
-487
-481
-479
-475
-474
-469
-468
-464
-461
-456
-453
-450
-446
-443
-437
-433
-428
-424
-424
-423
-425
-429
-435
-445
-453
-463
-470
-477
-484
-489
-491
-494
-497
-499
-499
-500
-500
-501
-501
-501
-501
-501
-502
-503
-501
-499
-498
-500
-498
-499
-499
-499
-501
-499
-498
-498
-498
-501
-500
-501
-500
-498
-497
-497
-498
-498
-499
-501
-503
-502
-501
-501
-501
-500
-501
-501
-498
-496
-495
-491
-489
-487
-486
-485
-484
-483
-477
-474
-472
-469
-471
-473
-474
-476
-480
-484
-491
-499
-505
-508
-508
-510
-511
-511
-511
-512
-514
-514
-514
-515
-515
-515
-514
-514
-511
-511
-511
-512
-511
-506
-487
-442
-372
-287
-222
-216
-278
-374
-479
-548
-561
-548
-527
-514
-507
-507
-512
-512
-514
-514
-514
-514
-511
-511
-512
-511
-511
-509
-508
-508
-508
-508
-509
-507
-507
-505
-504
-503
-502
-501
-500
-499
-498
-497
-498
-496
-493
-493
-491
-489
-486
-484
-480
-477
-474
-471
-470
-467
-462
-460
-455
-452
-446
-441
-438
-434
-430
-425
-423
-424
-427
-433
-442
-450
-461
-470
-477
-484
-490
-496
-500
-501
-504
-504
-505
-506
-507
-507
-505
-505
-505
-506
-505
-507
-507
-506
-505
-505
-502
-503
-505
-503
-502
-503
-504
-505
-504
-503
-502
-503
-503
-502
-502
-504
-505
-504
-505
-505
-505
-504
-505
-504
-504
-503
-501
-498
-495
-493
-490
-489
-489
-489
-484
-484
-480
-477
-477
-477
-477
-479
-480
-484
-491
-496
-504
-510
-514
-517
-516
-516
-517
-518
-519
-518
-517
-517
-517
-520
-520
-520
-517
-515
-514
-515
-517
-518
-515
-501
-470
-411
-331
-257
-217
-240
-320
-426
-524
-579
-582
-560
-536
-520
-514
-514
-514
-516
-516
-517
-517
-517
-514
-514
-514
-514
-516
-512
-511
-511
-511
-512
-511
-511
-508
-509
-509
-508
-506
-506
-505
-505
-502
-501
-500
-497
-495
-495
-494
-491
-490
-487
-484
-480
-477
-475
-472
-468
-464
-460
-456
-453
-450
-443
-441
-436
-431
-429
-424
-427
-430
-436
-444
-453
-463
-473
-480
-487
-493
-497
-501
-504
-504
-504
-505
-506
-507
-507
-506
-507
-506
-506
-505
-505
-505
-504
-506
-505
-505
-504
-502
-503
-502
-503
-503
-502
-504
-504
-504
-503
-505
-503
-503
-502
-502
-504
-504
-505
-505
-504
-504
-502
-502
-503
-504
-503
-501
-498
-495
-493
-490
-489
-487
-487
-485
-483
-478
-473
-471
-471
-473
-473
-474
-478
-483
-487
-493
-497
-505
-509
-511
-512
-514
-512
-512
-512
-512
-516
-514
-514
-514
-514
-512
-512
-511
-511
-511
-514
-511
-502
-477
-429
-350
-265
-204
-199
-261
-365
-474
-542
-557
-541
-520
-508
-502
-505
-508
-509
-510
-510
-508
-508
-509
-508
-509
-507
-507
-507
-505
-508
-504
-504
-504
-503
-502
-501
-501
-500
-499
-499
-496
-496
-495
-494
-493
-492
-490
-489
-487
-484
-481
-479
-477
-473
-471
-468
-464
-461
-457
-455
-449
-445
-441
-437
-434
-430
-426
-424
-424
-426
-430
-435
-446
-455
-463
-470
-474
-483
-487
-489
-493
-495
-496
-497
-498
-498
-498
-499
-499
-497
-498
-497
-497
-497
-496
-496
-496
-497
-497
-496
-496
-496
-495
-495
-493
-494
-494
-495
-495
-495
-495
-494
-495
-497
-495
-495
-496
-496
-497
-495
-495
-497
-497
-496
-495
-493
-490
-487
-486
-484
-480
-480
-477
-477
-476
-471
-468
-466
-465
-464
-466
-467
-468
-473
-477
-483
-489
-496
-499
-502
-504
-504
-505
-504
-505
-507
-505
-506
-504
-505
-506
-505
-505
-503
-502
-504
-504
-502
-493
-467
-415
-336
-251
-191
-184
-236
-327
-430
-507
-537
-531
-514
-500
-495
-496
-497
-501
-502
-502
-504
-504
-504
-502
-502
-502
-501
-501
-501
-499
-497
-496
-496
-498
-496
-495
-495
-495
-496
-492
-492
-490
-489
-489
-487
-487
-485
-484
-483
-480
-477
-477
-473
-470
-467
-464
-460
-456
-453
-450
-446
-444
-441
-437
-433
-430
-426
-421
-419
-419
-423
-428
-436
-444
-453
-460
-469
-474
-480
-484
-490
-490
-491
-492
-493
-495
-495
-494
-493
-494
-494
-493
-494
-493
-495
-493
-493
-493
-491
-491
-491
-492
-491
-491
-490
-490
-493
-490
-491
-492
-492
-493
-494
-491
-491
-490
-490
-491
-492
-493
-494
-493
-497
-493
-493
-490
-489
-487
-483
-480
-477
-474
-474
-474
-473
-470
-465
-463
-462
-463
-465
-465
-469
-471
-478
-485
-491
-495
-499
-502
-502
-504
-504
-504
-504
-505
-505
-505
-504
-505
-504
-504
-504
-504
-505
-502
-504
-501
-490
-460
-408
-331
-250
-195
-197
-261
-358
-456
-518
-533
-521
-504
-495
-494
-497
-501
-503
-504
-504
-504
-504
-502
-502
-502
-501
-500
-497
-499
-500
-498
-497
-498
-499
-498
-496
-496
-497
-494
-494
-492
-491
-493
-489
-487
-487
-485
-484
-481
-480
-477
-475
-472
-470
-468
-466
-460
-456
-452
-448
-446
-440
-438
-433
-429
-425
-422
-421
-421
-423
-427
-435
-444
-453
-462
-469
-474
-481
-487
-490
-491
-493
-493
-495
-498
-495
-495
-495
-496
-497
-495
-495
-495
-497
-495
-494
-493
-494
-493
-493
-493
-493
-491
-494
-492
-494
-493
-493
-493
-493
-493
-494
-494
-494
-493
-493
-493
-493
-493
-493
-494
-495
-495
-494
-492
-490
-490
-484
-482
-479
-477
-477
-476
-475
-471
-468
-466
-464
-464
-464
-464
-465
-468
-473
-480
-487
-493
-499
-501
-504
-505
-506
-505
-505
-505
-505
-504
-507
-502
-505
-505
-505
-504
-504
-503
-505
-506
-503
-491
-455
-394
-310
-232
-192
-220
-300
-402
-489
-533
-533
-520
-505
-498
-497
-500
-502
-502
-504
-504
-504
-504
-503
-504
-504
-504
-504
-503
-502
-501
-503
-502
-502
-501
-500
-498
-497
-497
-496
-495
-495
-493
-493
-492
-491
-490
-493
-489
-488
-487
-484
-484
-478
-475
-471
-468
-466
-463
-460
-457
-454
-450
-447
-443
-439
-433
-431
-426
-424
-422
-423
-429
-436
-444
-453
-462
-470
-477
-483
-488
-491
-495
-497
-499
-499
-499
-501
-501
-503
-499
-499
-499
-499
-501
-497
-498
-498
-499
-500
-498
-499
-499
-497
-498
-497
-497
-497
-498
-498
-499
-497
-498
-499
-498
-499
-500
-501
-500
-501
-501
-498
-501
-501
-500
-501
-499
-497
-496
-495
-493
-490
-487
-486
-483
-482
-485
-480
-478
-474
-473
-471
-471
-473
-474
-478
-483
-487
-492
-499
-504
-507
-510
-511
-511
-513
-512
-512
-514
-514
-514
-514
-514
-514
-514
-514
-511
-511
-512
-514
-514
-509
-495
-463
-409
-335
-263
-224
-243
-314
-413
-506
-555
-562
-545
-528
-514
-509
-508
-511
-512
-514
-514
-516
-515
-514
-511
-511
-511
-511
-511
-511
-510
-507
-507
-507
-506
-505
-505
-505
-504
-504
-503
-502
-502
-501
-499
-498
-495
-495
-496
-490
-487
-487
-486
-485
-480
-478
-475
-471
-468
-465
-461
-459
-455
-449
-446
-441
-437
-432
-429
-426
-425
-429
-434
-443
-451
-460
-469
-477
-480
-487
-494
-498
-501
-502
-504
-505
-507
-509
-507
-507
-505
-507
-507
-507
-505
-507
-505
-506
-505
-506
-507
-505
-505
-505
-505
-506
-505
-506
-505
-505
-505
-505
-505
-505
-505
-505
-505
-506
-507
-507
-506
-507
-505
-505
-504
-502
-501
-497
-493
-490
-489
-490
-490
-489
-487
-484
-480
-480
-477
-477
-477
-479
-485
-487
-494
-500
-505
-511
-512
-514
-516
-518
-518
-518
-517
-519
-520
-520
-520
-518
-517
-518
-517
-518
-517
-517
-517
-518
-514
-491
-455
-390
-309
-240
-214
-246
-333
-445
-539
-586
-582
-559
-535
-520
-515
-514
-514
-515
-516
-517
-516
-514
-514
-514
-514
-512
-511
-511
-511
-511
-511
-509
-508
-508
-507
-507
-506
-505
-505
-504
-502
-501
-501
-499
-497
-497
-497
-494
-493
-490
-488
-486
-484
-480
-477
-474
-467
-467
-463
-460
-457
-452
-450
-446
-441
-436
-433
-429
-426
-426
-426
-432
-440
-448
-461
-470
-477
-485
-490
-494
-497
-500
-501
-503
-504
-504
-504
-506
-505
-506
-506
-505
-505
-506
-505
-504
-504
-504
-506
-504
-502
-503
-503
-505
-502
-502
-500
-501
-501
-502
-501
-502
-504
-503
-504
-504
-504
-504
-502
-502
-502
-502
-504
-504
-504
-503
-501
-501
-496
-494
-487
-490
-487
-484
-484
-484
-480
-477
-473
-472
-470
-473
-475
-477
-477
-484
-487
-494
-499
-504
-511
-511
-511
-511
-512
-511
-511
-512
-513
-514
-514
-514
-514
-514
-511
-510
-508
-511
-510
-506
-493
-466
-412
-336
-258
-206
-212
-278
-371
-470
-534
-551
-539
-522
-508
-502
-502
-509
-508
-510
-509
-508
-511
-507
-506
-506
-507
-507
-505
-507
-506
-505
-506
-504
-502
-502
-502
-501
-501
-501
-498
-498
-498
-497
-495
-494
-493
-491
-489
-488
-487
-484
-481
-480
-477
-473
-470
-469
-464
-460
-458
-455
-451
-447
-443
-441
-436
-432
-427
-423
-423
-426
-430
-437
-446
-453
-461
-470
-477
-483
-489
-492
-493
-496
-498
-498
-499
-499
-499
-499
-498
-497
-499
-499
-498
-497
-499
-498
-498
-497
-496
-496
-496
-497
-497
-497
-498
-496
-495
-495
-496
-496
-497
-497
-495
-495
-496
-496
-496
-497
-498
-497
-497
-497
-496
-496
-495
-493
-491
-489
-487
-484
-483
-480
-480
-480
-477
-474
-471
-468
-466
-467
-468
-469
-473
-477
-483
-490
-499
-502
-504
-505
-506
-508
-507
-507
-507
-507
-507
-507
-508
-508
-508
-509
-506
-507
-505
-505
-506
-504
-495
-470
-418
-342
-262
-200
-187
-234
-321
-421
-502
-536
-533
-517
-504
-497
-498
-501
-505
-507
-508
-506
-504
-504
-504
-506
-504
-504
-501
-501
-501
-500
-501
-500
-499
-500
-498
-497
-496
-495
-496
-495
-493
-492
-491
-490
-489
-489
-487
-485
-483
-482
-479
-477
-474
-471
-468
-466
-462
-458
-456
-452
-450
-446
-442
-438
-434
-426
-427
-423
-423
-423
-426
-433
-441
-451
-458
-465
-472
-478
-484
-488
-491
-494
-494
-496
-496
-497
-497
-496
-496
-496
-496
-496
-497
-495
-495
-495
-495
-495
-495
-495
-494
-495
-493
-494
-493
-493
-493
-496
-493
-494
-494
-494
-496
-494
-494
-494
-495
-495
-495
-495
-496
-495
-495
-495
-495
-494
-491
-489
-485
-480
-477
-477
-477
-477
-476
-473
-467
-465
-463
-463
-465
-465
-467
-470
-475
-481
-488
-494
-499
-504
-504
-504
-504
-504
-505
-504
-505
-505
-505
-507
-506
-506
-505
-505
-504
-502
-504
-504
-500
-484
-449
-384
-302
-228
-189
-213
-287
-385
-474
-526
-536
-524
-508
-498
-495
-498
-501
-504
-504
-505
-505
-504
-504
-504
-502
-502
-504
-502
-501
-501
-500
-503
-499
-500
-500
-500
-498
-497
-497
-495
-494
-493
-492
-491
-490
-489
-487
-487
-484
-483
-480
-477
-477
-473
-470
-468
-465
-461
-459
-455
-450
-449
-444
-441
-437
-433
-429
-424
-419
-421
-423
-430
-436
-442
-452
-461
-468
-475
-483
-487
-490
-493
-494
-497
-498
-499
-498
-497
-496
-496
-496
-496
-496
-497
-496
-496
-496
-496
-495
-496
-495
-495
-495
-495
-495
-495
-495
-495
-495
-495
-495
-495
-495
-495
-496
-498
-496
-495
-495
-496
-498
-496
-496
-495
-496
-495
-493
-490
-487
-485
-481
-480
-480
-477
-477
-475
-472
-468
-467
-466
-467
-469
-469
-470
-474
-480
-488
-495
-499
-503
-504
-506
-505
-505
-506
-507
-508
-511
-508
-508
-507
-507
-507
-507
-505
-506
-506
-507
-507
-501
-485
-451
-394
-318
-246
-203
-213
-274
-364
-456
-514
-531
-524
-511
-501
-499
-501
-502
-506
-505
-507
-507
-505
-504
-504
-504
-504
-504
-504
-505
-502
-502
-501
-503
-505
-501
-501
-500
-498
-498
-497
-495
-494
-493
-492
-490
-490
-489
-487
-484
-483
-480
-477
-475
-471
-470
-467
-464
-461
-458
-453
-450
-445
-441
-437
-433
-430
-426
-422
-420
-422
-428
-436
-444
-456
-463
-469
-477
-484
-489
-493
-497
-498
-497
-498
-500
-500
-500
-501
-502
-502
-501
-499
-499
-498
-499
-500
-501
-499
-501
-501
-501
-499
-497
-497
-498
-498
-499
-499
-499
-499
-497
-499
-498
-499
-499
-500
-501
-504
-501
-502
-501
-501
-502
-499
-500
-500
-497
-494
-489
-487
-485
-483
-484
-484
-483
-479
-474
-473
-471
-472
-472
-474
-478
-484
-489
-495
-501
-505
-507
-505
-511
-511
-511
-511
-512
-511
-514
-514
-515
-516
-514
-511
-510
-510
-512
-511
-514
-514
-504
-481
-438
-371
-293
-229
-211
-257
-345
-450
-532
-566
-563
-542
-523
-511
-507
-507
-509
-511
-514
-514
-512
-511
-510
-511
-509
-508
-508
-507
-506
-507
-507
-507
-505
-505
-502
-501
-504
-503
-501
-499
-498
-499
-495
-493
-492
-492
-490
-489
-486
-486
-483
-480
-477
-474
-471
-467
-463
-460
-456
-454
-450
-445
-440
-435
-430
-426
-423
-422
-423
-426
-431
-441
-449
-459
-467
-474
-483
-487
-496
-496
-500
-501
-501
-502
-502
-504
-504
-504
-503
-502
-502
-504
-503
-504
-502
-502
-501
-501
-501
-501
-500
-499
-500
-500
-501
-502
-502
-502
-501
-503
-499
-501
-502
-503
-502
-502
-501
-501
-501
-502
-504
-502
-501
-499
-497
-498
-493
-489
-487
-487
-487
-484
-483
-479
-476
-474
-473
-471
-473
-474
-479
-484
-490
-499
-505
-510
-513
-514
-515
-514
-514
-514
-514
-514
-516
-517
-517
-516
-515
-514
-514
-512
-512
-514
-516
-514
-505
-484
-433
-356
-273
-225
-238
-314
-426
-530
-575
-574
-551
-528
-514
-509
-511
-511
-512
-511
-511
-511
-512
-511
-511
-509
-508
-508
-509
-507
-506
-505
-504
-504
-504
-504
-504
-501
-501
-499
-499
-497
-496
-498
-495
-493
-491
-489
-490
-487
-484
-481
-480
-477
-473
-470
-467
-463
-460
-456
-452
-449
-443
-439
-434
-430
-426
-420
-417
-418
-420
-426
-433
-442
-449
-458
-467
-473
-480
-486
-489
-493
-496
-496
-497
-497
-498
-499
-499
-498
-501
-498
-498
-496
-497
-498
-496
-496
-495
-495
-496
-495
-495
-496
-495
-495
-495
-495
-494
-494
-495
-494
-495
-495
-495
-494
-495
-495
-495
-495
-495
-495
-494
-493
-494
-490
-489
-487
-484
-480
-477
-478
-480
-475
-473
-469
-465
-460
-460
-462
-463
-465
-466
-470
-475
-480
-487
-494
-497
-499
-501
-502
-503
-504
-504
-504
-506
-505
-505
-502
-502
-502
-501
-501
-499
-502
-504
-501
-493
-467
-421
-350
-268
-199
-173
-206
-286
-392
-485
-541
-545
-529
-509
-498
-496
-495
-497
-499
-501
-501
-501
-500
-501
-499
-500
-499
-498
-498
-497
-497
-497
-495
-495
-494
-494
-493
-491
-490
-490
-489
-487
-487
-487
-487
-484
-484
-481
-480
-478
-475
-473
-468
-469
-467
-463
-461
-456
-455
-450
-449
-444
-442
-439
-433
-428
-423
-419
-416
-414
-417
-421
-427
-435
-443
-453
-460
-467
-472
-477
-480
-484
-486
-489
-490
-492
-493
-491
-492
-494
-493
-494
-493
-492
-494
-491
-491
-490
-490
-491
-490
-490
-490
-490
-490
-490
-489
-487
-487
-488
-487
-488
-488
-490
-489
-489
-489
-489
-489
-490
-490
-491
-490
-490
-489
-489
-484
-484
-480
-478
-474
-473
-473
-471
-472
-468
-464
-460
-459
-459
-459
-457
-460
-461
-467
-472
-480
-486
-491
-495
-496
-498
-499
-500
-500
-501
-501
-501
-500
-500
-499
-500
-499
-499
-498
-497
-498
-499
-497
-489
-468
-427
-359
-279
-209
-179
-212
-293
-399
-484
-527
-530
-514
-501
-490
-490
-493
-496
-501
-499
-499
-499
-499
-497
-496
-495
-495
-495
-495
-495
-493
-493
-493
-492
-491
-491
-490
-490
-489
-487
-487
-486
-485
-484
-483
-480
-480
-479
-477
-475
-473
-471
-468
-467
-464
-460
-459
-455
-453
-448
-443
-441
-439
-435
-430
-426
-423
-417
-413
-412
-412
-417
-424
-432
-440
-448
-456
-463
-470
-475
-480
-483
-485
-485
-487
-487
-489
-489
-489
-489
-487
-489
-488
-487
-488
-487
-487
-487
-487
-487
-487
-487
-488
-485
-486
-487
-487
-489
-486
-487
-487
-487
-487
-487
-487
-487
-487
-487
-486
-487
-487
-489
-489
-488
-487
-486
-485
-483
-480
-478
-474
-473
-471
-470
-470
-468
-466
-463
-460
-458
-457
-457
-458
-460
-463
-469
-474
-483
-487
-493
-494
-495
-497
-498
-499
-498
-498
-499
-499
-500
-499
-498
-496
-497
-494
-494
-495
-496
-495
-487
-468
-426
-361
-283
-216
-192
-228
-302
-395
-477
-515
-518
-507
-495
-487
-489
-493
-494
-493
-494
-495
-497
-495
-496
-494
-494
-493
-491
-490
-490
-490
-490
-490
-489
-489
-489
-487
-487
-487
-484
-484
-483
-480
-480
-480
-478
-477
-474
-473
-472
-468
-467
-465
-463
-460
-456
-455
-450
-448
-444
-441
-438
-435
-429
-426
-422
-418
-413
-409
-409
-410
-414
-422
-431
-439
-449
-456
-463
-467
-473
-477
-481
-481
-484
-485
-485
-486
-487
-487
-485
-486
-485
-485
-485
-485
-487
-485
-485
-484
-484
-484
-484
-483
-484
-484
-486
-484
-483
-481
-483
-486
-484
-484
-484
-484
-484
-484
-484
-484
-486
-485
-484
-484
-484
-485
-484
-484
-481
-477
-476
-473
-472
-469
-468
-467
-469
-465
-460
-456
-453
-453
-455
-456
-459
-461
-467
-470
-475
-483
-487
-490
-493
-497
-496
-495
-495
-495
-496
-496
-496
-496
-496
-497
-497
-495
-495
-495
-496
-496
-494
-484
-458
-408
-331
-249
-195
-199
-260
-350
-443
-505
-523
-515
-502
-490
-487
-487
-490
-493
-493
-493
-495
-495
-496
-497
-493
-493
-492
-492
-494
-490
-491
-490
-490
-489
-489
-489
-487
-486
-485
-485
-485
-483
-483
-480
-480
-480
-477
-476
-475
-473
-470
-468
-467
-466
-460
-457
-455
-450
-448
-445
-442
-438
-434
-431
-427
-421
-419
-415
-412
-409
-409
-414
-419
-428
-436
-446
-454
-461
-467
-473
-477
-480
-484
-487
-487
-487
-487
-487
-487
-487
-487
-487
-487
-486
-485
-485
-485
-484
-485
-485
-484
-484
-485
-485
-484
-484
-484
-484
-484
-485
-485
-485
-487
-484
-484
-484
-486
-487
-485
-486
-487
-487
-489
-489
-489
-487
-485
-484
-481
-480
-476
-471
-471
-469
-469
-468
-467
-463
-460
-457
-456
-459
-460
-460
-463
-468
-475
-483
-489
-491
-494
-495
-496
-496
-500
-499
-500
-499
-498
-501
-498
-499
-497
-499
-498
-498
-497
-499
-499
-494
-478
-444
-387
-309
-234
-192
-206
-270
-360
-455
-514
-530
-522
-507
-495
-491
-491
-496
-497
-498
-499
-500
-500
-499
-500
-498
-500
-498
-498
-497
-496
-498
-496
-495
-494
-493
-493
-492
-491
-490
-490
-490
-490
-489
-486
-483
-481
-480
-481
-479
-477
-474
-472
-468
-467
-462
-459
-456
-451
-450
-446
-443
-438
-433
-429
-426
-422
-416
-413
-411
-415
-422
-432
-439
-450
-457
-466
-472
-480
-484
-486
-490
-491
-493
-492
-493
-493
-493
-495
-495
-496
-495
-494
-494
-495
-495
-493
-492
-491
-492
-493
-493
-494
-493
-494
-493
-493
-493
-492
-494
-494
-495
-494
-494
-495
-497
-495
-495
-495
-496
-497
-496
-496
-494
-492
-491
-490
-486
-485
-483
-483
-480
-481
-477
-475
-471
-468
-466
-466
-467
-467
-469
-473
-480
-485
-493
-500
-499
-505
-507
-508
-508
-507
-507
-507
-508
-509
-511
-509
-508
-507
-508
-511
-508
-507
-508
-509
-504
-487
-449
-386
-310
-237
-209
-239
-318
-419
-512
-558
-563
-547
-528
-512
-505
-505
-507
-510
-511
-510
-509
-508
-508
-510
-509
-508
-507
-505
-505
-506
-506
-506
-505
-504
-504
-505
-501
-499
-497
-497
-499
-497
-496
-496
-495
-494
-491
-489
-487
-484
-483
-480
-477
-476
-471
-468
-464
-460
-458
-453
-450
-444
-441
-436
-433
-429
