1898
1898
1901
1895
1893
1893
1896
1898
1896
1898
1898
1899
1898
1896
1893
1895
1891
1893
1893
1893
1890
1890
1890
1888
1888
1888
1888
1888
1891
1893
1893
1891
1890
1890
1890
1891
1893
1888
1893
1893
1891
1893
1893
1891
1895
1888
1890
1888
1891
1895
1888
1891
1891
1891
1893
1888
1891
1887
1888
1893
1895
1891
1888
1883
1878
1870
1867
1862
1862
1862
1861
1861
1858
1854
1853
1846
1845
1841
1837
1828
1828
1832
1841
1849
1859
1858
1849
1856
1859
1866
1867
1870
1880
1880
1880
1887
1891
1888
1888
1888
1891
1891
1888
1888
1888
1888
1888
1888
1891
1888
1888
1888
1888
1891
1888
1888
1887
1888
1888
1888
1891
1887
1888
1888
1887
1887
1887
1888
1891
1887
1888
1887
1887
1893
1887
1887
1887
1888
1891
1887
1888
1885
1887
1887
1885
1883
1882
1885
1883
1883
1883
1880
1882
1883
1880
1880
1880
1880
1880
1880
1878
1878
1880
1880
1877
1875
1875
1875
1880
1875
1874
1874
1872
1874
1869
1862
1869
1867
1867
1864
1861
1862
1862
1861
1861
1858
1858
1856
1854
1853
1849
1849
1849
1848
1848
1848
1849
1846
1848
1848
1846
1848
1843
1848
1848
1845
1843
1845
1846
1848
1854
1854
1858
1859
1862
1866
1870
1867
1874
1875
1878
1878
1887
1885
1887
1883
1887
1888
1887
1888
1888
1888
1891
1891
1893
1893
1896
1895
1896
1896
1895
1893
1893
1893
1891
1891
1895
1893
1893
1893
1893
1895
1895
1893
1896
1893
1893
1888
1891
1888
1888
1888
1888
1888
1896
1891
1888
1888
1888
1893
1888
1888
1888
1888
1895
1888
1890
1896
1895
1896
1893
1893
1893
1891
1893
1893
1893
1891
1891
1888
1890
1891
1891
1891
1888
1888
1890
1888
1888
1887
1888
1888
1887
1888
1885
1887
1893
1888
1887
1885
1888
1890
1883
1887
1887
1887
1887
1887
1887
1885
1885
1887
1887
1885
1887
1888
1887
1888
1888
1888
1888
1887
1888
1887
1888
1885
1887
1887
1887
1887
1888
1887
1888
1888
1887
1888
1888
1888
1893
1888
1888
1887
1888
1895
1888
1888
1888
1888
1893
1888
1888
1887
1887
1887
1888
1888
1888
1891
1890
1891
1890
1888
1891
1888
1891
1890
1890
1893
1893
1893
1893
1890
1893
1891
1893
1896
1893
1895
1895
1895
1896
1896
1899
1901
1903
1909
1901
1898
1896
1896
1901
1895
1893
1893
1893
1891
1893
1891
1893
1893
1896
1893
1893
1890
1891
1888
1888
1888
1888
1888
1888
1887
1888
1888
1887
1887
1888
1888
1888
1887
1887
1887
1888
1885
1887
1887
1887
1893
1888
1887
1887
1888
1895
1888
1888
1887
1887
1888
1887
1887
1887
1885
1887
1888
1887
1887
1887
1883
1882
1882
1880
1880
1883
1883
1882
1878
1874
1870
1866
1858
1862
1862
1866
1862
1867
1864
1866
1861
1858
1853
1848
1845
1843
1840
1837
1846
1849
1849
1846
1840
1845
1846
1849
1856
1861
1864
1869
1872
1874
1872
1878
1877
1878
1880
1880
1882
1880
1878
1882
1880
1880
1880
1878
1878
1883
1882
1878
1880
1880
1880
1880
1880
1882
1880
1880
1883
1875
1880
1880
1878
1882
1877
1880
1880
1880
1880
1878
1880
1880
1875
1878
1878
1875
1875
1874
1875
1875
1875
1875
1875
1880
1880
1880
1878
1875
1875
1878
1875
1874
1875
1875
1875
1874
1874
1874
1874
1875
1875
1869
1872
1870
1874
1870
1866
1869
1870
1870
1867
1867
1867
1867
1866
1862
1861
1861
1861
1861
1858
1858
1854
1851
1854
1853
1849
1849
1848
1848
1848
1848
1846
1841
1843
1841
1840
1841
1841
1843
1841
1843
1841
1841
1845
1845
1848
1848
1843
1849
1853
1854
1853
1853
1859
1861
1862
1867
1867
1870
1872
1875
1878
1878
1878
1883
1883
1883
1887
1887
1887
1887
1887
1887
1887
1888
1887
1888
1887
1888
1891
1891
1890
1888
1890
1890
1891
1891
1888
1893
1899
1893
1893
1890
1893
1896
1891
1890
1891
1893
1893
1893
1890
1891
1891
1893
1890
1893
1891
1890
1888
1888
1891
1888
1891
1888
1888
1891
1891
1893
1891
1893
1891
1891
1893
1891
1893
1893
1891
1893
1891
1893
1895
1893
1890
1893
1893
1898
1893
1893
1891
1891
1896
1893
1893
1891
1893
1893
1891
1893
1891
1893
1895
1891
1895
1893
1895
1893
1895
1893
1895
1893
1893
1893
1893
1893
1893
1893
1893
1895
1893
1893
1895
1895
1895
1893
1896
1893
1893
1899
1893
1893
1888
1890
1895
1891
1893
1893
1893
1893
1893
1893
1893
1893
1895
1895
1893
1893
1895
1893
1893
1893
1895
1895
1893
1893
1891
1895
1893
1891
1893
1893
1893
1895
1893
1893
1895
1893
1895
1895
1895
1904
1899
1901
1899
1901
1905
1901
1901
1901
1901
1904
1904
1904
1901
1905
1909
1909
1911
1911
1909
1909
1905
1905
1905
1901
1901
1901
1901
1899
1898
1896
1899
1899
1899
1899
1899
1901
1899
1899
1899
1896
1896
1893
1893
1893
1893
1893
1899
1895
1893
1893
1893
1899
1893
1893
1890
1891
1893
1891
1891
1890
1891
1893
1888
1890
1888
1891
1888
1888
1888
1888
1888
1888
1888
1888
1888
1891
1890
1893
1891
1888
1888
1888
1888
1888
1888
1893
1888
1888
1888
1878
1874
1870
1867
1858
1862
1862
1862
1862
1861
1862
1858
1854
1853
1849
1846
1841
1837
1841
1849
1858
1858
1858
1853
1856
1861
1866
1869
1875
1880
1882
1882
1885
1887
1888
1888
1888
1888
1888
1887
1891
1893
1888
1888
1887
1888
1891
1887
1888
1887
1888
1890
1888
1888
1888
1888
1888
1888
1888
1888
1891
1888
1888
1888
1888
1888
1888
1888
1888
1887
1888
1887
1887
1887
1887
1885
1883
1887
1887
1887
1887
1885
1883
1883
1882
1883
1880
1880
1874
1880
1880
1878
1880
1874
1878
1877
1874
1875
1875
1875
1874
1874
1875
1874
1874
1874
1874
1870
1870
1870
1867
1867
1867
1866
1866
1866
1866
1862
1862
1861
1862
1861
1861
1859
1858
1854
1854
1853
1851
1851
1843
1849
1848
1846
1848
1838
1841
1845
1843
1843
1841
1843
1843
1843
1845
1846
1846
1849
1854
1854
1856
1858
1861
1862
1866
1867
1870
1874
1874
1874
1877
1878
1874
1880
1883
1883
1883
1885
1887
1887
1887
1888
1888
1888
1888
1888
1888
1898
1891
1891
1891
1891
1896
1888
1888
1888
1891
1891
1888
1888
1888
1888
1891
1888
1891
1891
1893
1893
1893
1891
1893
1891
1890
1891
1890
1891
1891
1888
1891
1890
1890
1891
1888
1888
1891
1888
1893
1888
1888
1896
1888
1890
1888
1888
1893
1888
1888
1888
1888
1888
1888
1887
1887
1888
1891
1888
1888
1887
1888
1888
1887
1887
1887
1888
1888
1888
1888
1887
1887
1887
1888
1888
1888
1887
1888
1888
1888
1888
1887
1887
1888
1895
1888
1888
1887
1888
1893
1888
1888
1887
1888
1891
1887
1888
1888
1891
1893
1888
1891
1888
1888
1888
1891
1890
1893
1893
1893
1893
1893
1891
1893
1888
1891
1888
1888
1888
1888
1888
1891
1888
1890
1888
1891
1891
1893
1893
1890
1891
1898
1890
1891
1891
1893
1898
1895
1893
1893
1898
1898
1899
1899
1899
1898
1898
1899
1901
1899
1898
1899
1899
1901
1898
1901
1904
1905
1905
1907
1904
1899
1901
1899
1901
1901
1899
1899
1898
1893
1895
1893
1893
1901
1893
1895
1893
1895
1899
1895
1898
1895
1893
1893
1893
1893
1893
1893
1893
1891
1890
1888
1893
1893
1893
1895
1890
1893
1893
1893
1893
1891
1888
1888
1888
1888
1888
1888
1887
1888
1888
1887
1888
1887
1888
1891
1887
1888
1887
1887
1890
1887
1885
1883
1883
1888
1885
1888
1888
1887
1880
1875
1867
1859
1858
1858
1856
1854
1854
1851
1849
1848
1840
1837
1835
1835
1827
1822
1824
1831
1841
1848
1846
1848
1846
1849
1856
1862
1864
1867
1872
1874
1867
1880
1880
1880
1882
1888
1883
1883
1883
1882
1885
1883
1883
1882
1883
1883
1880
1883
1880
1880
1880
1880
1878
1880
1880
1882
1883
1882
1880
1882
1878
1883
1883
1882
1882
1882
1882
1883
1882
1880
1878
1880
1875
1880
1882
1880
1880
1875
1880
1880
1875
1875
1875
1875
1875
1875
1874
1874
1874
1874
1874
1874
1875
1875
1875
1874
1874
1874
1872
1870
1870
1869
1870
1867
1866
1867
1866
1867
1867
1864
1864
1864
1862
1861
1859
1859
1858
1854
1853
1848
1849
1848
1848
1848
1841
1843
1841
1841
1841
1841
1841
1840
1837
1835
1835
1837
1835
1835
1833
1835
1835
1833
1833
1835
1837
1837
1841
1843
1845
1849
1849
1854
1854
1856
1859
1861
1862
1866
1866
1869
1869
1867
1872
1875
1878
1880
1874
1880
1880
1875
1878
1880
1880
1883
1882
1887
1888
1887
1887
1882
1887
1885
1887
1887
1885
1887
1883
1887
1885
1882
1883
1883
1883
1883
1883
1887
1885
1887
1887
1888
1887
1887
1885
1891
1885
1887
1885
1887
1891
1885
1885
1882
1883
1888
1883
1887
1887
1885
1887
1887
1888
1888
1887
1891
1890
1891
1888
1888
1888
1891
1888
1888
1888
1887
1887
1887
1887
1887
1887
1887
1888
1888
1888
1887
1888
1888
1887
1888
1887
1887
1893
1888
1888
1888
1891
1893
1888
1887
1888
1887
1888
1888
1891
1888
1891
1893
1893
1893
1891
1893
1891
1891
1891
1890
1888
1888
1887
1887
1883
1887
1885
1888
1887
1888
1888
1888
1887
1888
1888
1888
1887
1885
1893
1887
1885
1887
1887
1893
1888
1888
1888
1888
1888
1887
1887
1887
1887
1888
1885
1887
1883
1887
1882
1885
1887
1883
1885
1887
1887
1888
1888
1891
1891
1893
1893
1895
1893
1890
1893
1893
1893
1893
1891
1893
1893
1893
1893
1893
1896
1905
1896
1893
1888
1888
1893
1888
1888
1887
1887
1887
1887
1885
1887
1887
1887
1887
1885
1883
1885
1882
1883
1883
1883
1883
1880
1878
1880
1877
1882
1882
1880
1882
1878
1882
1877
1880
1880
1880
1878
1878
1880
1875
1880
1883
1882
1882
1888
1882
1880
1880
1880
1882
1880
1882
1880
1882
1878
1880
1880
1880
1882
1880
1878
1875
1875
1874
1880
1880
1878
1874
1867
1867
1861
1858
1859
1861
1859
1861
1862
1867
1867
1867
1862
1856
1856
1851
1849
1848
1843
1849
1853
1848
1845
1843
1843
1848
1853
1858
1861
1862
1866
1869
1872
1875
1878
1880
1878
1880
1880
1882
1880
1880
1882
1883
1883
1882
1885
1885
1883
1887
1887
1887
1885
1887
1887
1885
1887
1887
1885
1887
1890
1885
1882
1883
1883
1888
1885
1883
1883
1887
1885
1882
1887
1883
1885
1887
1885
1882
1882
1883
1882
1883
1880
1880
1880
1880
1880
1878
1878
1880
1878
1880
1880
1875
1875
1882
1878
1880
1880
1880
1875
1877
1870
1875
1875
1874
1874
1867
1870
1872
1870
1867
1866
1867
1864
1867
1864
1861
1861
1862
1861
1861
1861
1861
1858
1854
1854
1854
1851
1849
1849
1849
1848
1848
1841
1848
1846
1848
1846
1848
1846
1848
1849
1848
1853
1854
1856
1859
1858
1854
1862
1867
1867
1870
1870
1875
1875
1875
1878
1878
1882
1887
1885
1888
1891
1890
1888
1891
1893
1893
1891
1895
1893
1893
1893
1895
1896
1895
1896
1896
1898
1896
1895
1895
1893
1895
1895
1893
1893
1893
1891
1901
1895
1895
1893
1896
1901
1893
1893
1893
1893
1893
1891
1895
1893
1893
1895
1893
1895
1893
1893
1891
1893
1893
1891
1891
1890
1891
1891
1888
1896
1888
1891
1891
1887
1888
1887
1888
1887
1887
1887
1887
1885
1893
1887
1888
1887
1887
1891
1885
1885
1883
1887
1887
1887
1888
1887
1888
1888
1887
1887
1887
1888
1887
1888
1888
1887
1888
1887
1888
1888
1888
1888
1888
1891
1891
1888
1888
1887
1888
1888
1888
1888
1887
1888
1891
1888
1888
1888
1891
1898
1890
1891
1888
1890
1896
1891
1891
1891
1893
1893
1891
1888
1888
1888
1890
1888
1890
1888
1891
1888
1888
1891
1891
1888
1888
1891
1891
1893
1893
1891
1891
1893
1893
1895
1893
1896
1895
1896
1896
1893
1896
1904
1896
1896
1896
1898
1905
1901
1903
1904
1905
1904
1901
1899
1898
1898
1901
1898
1899
1899
1899
1896
1896
1898
1895
1895
1896
1895
1896
1895
1893
1891
1893
1891
1890
1891
1888
1890
1891
1893
1893
1891
1893
1895
1893
1893
1891
1893
1898
1891
1891
1891
1893
1896
1891
1890
1888
1890
1893
1891
1893
1888
1890
1888
1888
1888
1888
1888
1887
1888
1888
1888
1887
1885
1883
1883
1882
1887
1887
1887
1882
1877
1874
1867
1866
1862
1861
1862
1862
1862
1854
1858
1854
1849
1848
1840
1841
1833
1831
1837
1843
1853
1854
1853
1849
1849
1854
1861
1867
1872
1874
1878
1880
1880
1880
1882
1882
1882
1883
1883
1882
1883
1882
1880
1882
1882
1883
1885
1885
1887
1885
1887
1893
1887
1887
1885
1887
1891
1887
1887
1887
1885
1887
1883
1887
1883
1887
1887
1887
1883
1885
1885
1882
1883
1887
1883
1883
1883
1883
1883
1882
1882
1882
1882
1874
1880
1882
1880
1882
1882
1878
1878
1880
1875
1878
1875
1875
1878
1875
1869
1874
1874
1875
1874
1869
1874
1874
1870
1869
1867
1867
1867
1867
1867
1866
1866
1862
1864
1861
1861
1861
1859
1854
1854
1854
1851
1853
1849
1849
1848
1848
1845
1845
1845
1841
1843
1841
1841
1841
1843
1841
1837
1843
1846
1845
1845
1843
1849
1853
1854
1858
1858
1861
1862
1867
1869
1867
1872
1872
1874
1875
1880
1882
1880
1883
1885
1885
1887
1887
1888
1888
1885
1888
1888
1888
1891
1888
1891
1890
1891
1893
1891
1891
1899
1893
1895
1893
1893
1899
1891
1893
1891
1893
1895
1893
1891
1888
1891
1891
1888
1888
1888
1888
1891
1893
1893
1893
1891
1890
1890
1891
1891
1893
1888
1888
1888
1888
1893
1888
1890
1893
1893
1893
1893
1893
1895
1893
1893
1893
1893
1899
1891
1893
1893
1893
1899
1893
1891
1891
1891
1891
1891
1893
1893
1893
1896
1893
1895
1893
1893
1891
1891
1893
1893
1893
1891
1893
1893
1891
1893
1890
1891
1893
1891
1893
1888
1893
1888
1888
1891
1887
1888
1896
1888
1888
1888
1891
1895
1891
1890
1888
1891
1893
1891
1893
1893
1893
1891
1893
1895
1893
1895
1893
1895
1895
1893
1895
1895
1893
1893
1893
1896
1893
1893
1893
1893
1893
1891
1891
1888
1888
1891
1888
1890
1893
1888
1888
1888
1891
1895
1888
1891
1888
1890
1896
1891
1890
1888
1888
1891
1891
1891
1893
1895
1895
1895
1895
1891
1893
1893
1893
1895
1893
1893
1893
1896
1898
1898
1899
1899
1901
1901
1901
1901
1895
1895
1896
1895
1895
1893
1893
1896
1893
1891
1888
1888
1893
1888
1893
1891
1893
1891
1888
1890
1888
1888
1888
1888
1888
1888
1888
1887
1888
1887
1885
1885
1887
1887
1887
1885
1885
1885
1888
1887
1885
1887
1887
1887
1885
1887
1887
1885
1887
1891
1883
1883
1883
1885
1891
1885
1887
1885
1887
1888
1887
1885
1883
1882
1887
1887
1885
1880
1874
1867
1862
1861
1858
1858
1856
1856
1856
1854
1854
1849
1841
1835
1835
1831
1824
1824
1828
1840
1846
1848
1848
1848
1846
1853
1858
1862
1861
1870
1874
1875
1875
1885
1882
1882
1880
1878
1880
1880
1882
1878
1883
1882
1883
1883
1880
1885
1882
1882
1882
1882
1885
1883
1880
1880
1880
1880
1883
1878
1880
1877
1880
1877
1880
1880
1880
1882
1880
1878
1874
1880
1880
1875
1875
1872
1878
1875
1875
1875
1875
1875
1875
1874
1878
1875
1875
1874
1874
1874
1874
1872
1870
1872
1870
1874
1869
1870
1870
1870
1872
1869
1867
1869
1867
1867
1867
1867
1862
1862
1861
1859
1861
1858
1858
1858
1854
1848
1853
1849
1853
1849
1848
1849
1846
1846
1843
1840
1840
1840
1841
1841
1838
1840
1837
1838
1835
1837
1835
1833
1835
1835
1837
1837
1841
1841
1843
1846
1848
1849
1854
1854
1858
1859
1862
1866
1866
1870
1872
1866
1874
1874
1875
1875
1874
1880
1880
1875
1880
1880
1882
1880
1880
1883
1882
1883
1883
1880
1882
1882
1883
1883
1882
1882
1882
1885
1887
1887
1888
1885
1885
1883
1883
1882
1883
1882
1883
1880
1883
1880
1882
1875
1882
1885
1883
1885
1893
1885
1887
1883
1882
1885
1883
1883
1883
1882
1880
1882
1880
1878
1880
1880
1882
1882
1882
1883
1882
1882
1882
1880
1880
1882
1882
1878
1880
1882
1880
1883
1882
1882
1882
1880
1880
1880
1882
1880
1875
1878
1874
1880
1880
1878
1880
1878
1882
1885
1878
1880
1880
1882
1882
1878
1880
1880
1880
1878
1878
1880
1878
1878
1880
1878
1880
1880
1880
1882
1878
1880
1880
1880
1880
1880
1880
1880
1880
1880
1880
1877
1875
1875
1874
1878
1878
1875
1875
1872
1877
1878
1875
1877
1877
1880
1880
1878
1880
1880
1882
1880
1878
1877
1880
1878
1880
1877
1880
1883
1882
1883
1885
1885
1887
1885
1887
1887
1885
1887
1887
1887
1887
1887
1882
1887
1891
1887
1888
1887
1890
1896
1893
1893
1893
1890
1893
1887
1887
1885
1887
1887
1887
1885
1883
1882
1883
1882
1882
1882
1885
1883
1887
1885
1887
1887
1882
1882
1880
1878
1880
1880
1880
1880
1880
1878
1880
1880
1880
1877
1880
1875
1875
1872
1877
1878
1880
1880
1875
1880
1877
1874
1874
1874
1874
1875
1875
1875
1875
1875
1878
1875
1875
1878
1875
1875
1874
1874
1875
1869
1867
1869
1874
1874
1874
1870
1862
1861
1854
1853
1854
1854
1854
1856
1858
1853
1861
1858
1854
1849
1841
1841
1840
1841
1843
1845
1843
1840
1840
1840
1841
1843
1848
1854
1858
1859
1862
1867
1870
1872
1874
1874
1875
1874
1875
1878
1875
1867
1874
1875
1878
1875
1875
1877
1875
1875
1875
1877
1880
1880
1880
1882
1875
1880
1880
1875
1880
1874
1875
1875
1874
1875
1875
1880
1877
1875
1877
1880
1877
1877
1875
1875
1878
1878
1880
1875
1875
1880
1877
1875
1875
1875
1880
1878
1875
1875
1875
1875
1875
1875
1875
1874
1872
1872
1867
1872
1870
1872
1870
1866
1869
1867
1867
1867
1866
1866
1866
1866
1866
1862
1862
1861
1861
1858
1858
1859
1856
1854
1854
1853
1848
1849
1848
1848
1848
1848
1848
1845
1843
1845
1841
1843
1841
1843
1841
1843
1841
1845
1848
1849
1849
1846
1854
1856
1861
1861
1862
1867
1870
1872
1874
1872
1875
1878
1878
1880
1883
1885
1887
1885
1888
1887
1888
1891
1888
1890
1891
1891
1893
1891
1893
1891
1891
1890
1893
1893
1891
1891
1893
1893
1891
1891
1893
1898
1891
1891
1888
1893
1896
1890
1893
1893
1893
1895
1893
1893
1893
1893
1895
1893
1893
1893
1893
1891
1891
1890
1891
1891
1891
1893
1893
1891
1891
1888
1891
1888
1888
1888
1888
1890
1891
1891
1893
1888
1891
1896
1893
1893
1890
1893
1896
1890
1890
1888
1891
1893
1893
1893
1891
1893
1893
1890
1888
1888
1888
1888
1888
1888
1891
1888
1888
1891
1891
1891
1893
1890
1893
1890
1891
1891
1888
1888
1888
1888
1891
1888
1891
1891
1890
1891
1888
1890
1896
1891
1888
1891
1893
1895
1891
1893
1890
1893
1893
1891
1893
1893
1893
1893
1891
1891
1893
1895
1893
1895
1895
1895
1896
1895
1896
1895
1893
1898
1895
1896
1896
1898
1899
1896
1898
1898
1896
1896
1898
1899
1909
1901
1901
1901
1905
1909
1905
1905
1904
1905
1905
1904
1905
1907
1907
1909
1907
1911
1912
1912
1912
1909
1909
1909
1909
1909
1909
1907
1905
1904
1903
1901
1901
1901
1904
1901
1901
1901
1901
1901
1899
1901
1909
1901
1901
1901
1899
1904
1896
1898
1896
1899
1899
1895
1899
1899
1899
1899
1898
1896
1896
1898
1895
1898
1896
1895
1898
1899
1896
1898
1896
1899
1896
1898
1896
1896
1896
1893
1893
1893
1893
1893
1890
1890
1891
1888
1891
1890
1893
1896
1887
1877
1874
1870
1862
1866
1862
1862
1862
1861
1858
1854
1849
1848
1845
1841
1835
1831
1835
1845
1854
1859
1858
1853
1856
1858
1866
1870
1875
1877
1883
1885
1885
1888
1888
1891
1891
1891
1893
1891
1890
1899
1893
1893
1891
1893
1899
1893
1895
1891
1893
1895
1895
1893
1893
1895
1896
1891
1893
1893
1893
1895
1893
1893
1891
1893
1893
1891
1893
1891
1893
1893
1893
1893
1891
1891
1891
1891
1893
1891
1893
1891
1891
1895
1888
1888
1887
1887
1893
1887
1887
1885
1883
1887
1882
1880
1880
1880
1880
1878
1880
1878
1875
1875
1875
1875
1874
1874
1874
1870
1870
1869
1867
1867
1864
1862
1862
1861
1861
1859
1858
1856
1854
1854
1854
1853
1849
1851
1853
1849
1845
1848
1848
1848
1845
1838
1843
1841
1841
1841
1841
1841
1843
1845
1846
1849
1854
1858
1861
1861
1867
1866
1870
1874
1874
1875
1878
1882
1880
1882
1887
1885
1887
1887
1888
1888
1893
1893
1893
1896
1895
1898
1904
1895
1895
1896
1895
1901
1896
1896
1893
1895
1895
1896
1896
1895
1893
1895
1893
1895
1893
1895
1893
1895
1896
1895
1896
1896
1895
1898
1895
1895
1893
1893
1893
1893
1895
1895
1896
1893
1893
1891
1893
1893
1895
1895
1893
1890
1893
1898
1890
1891
1890
1893
1898
1891
1893
1888
1890
1891
1888
1888
1890
1891
1893
1888
1888
1887
1887
1887
1888
1888
1888
1888
1891
1888
1893
1888
1888
1887
1888
1888
1888
1888
1888
1888
1890
1891
1893
1888
1893
1898
1893
1893
1891
1891
1896
1890
1891
1888
1888
1891
1891
1891
1891
1891
1890
1888
1888
1888
1890
1891
1893
1891
1888
1891
1891
1893
1893
1893
1893
1893
1891
1893
1893
1893
1891
1893
1888
1888
1888
1888
1888
1895
1888
1891
1891
1891
1896
1890
1893
1888
1891
1893
1893
1893
1893
1893
1893
1893
1896
1895
1896
1896
1896
1895
1891
1895
1893
1895
1896
1895
1896
1895
1899
1899
1901
1901
1898
1895
1893
1893
1893
1891
1888
1888
1888
1888
1887
1888
1893
1888
1888
1888
1893
1895
1893
1888
1888
1887
1887
1887
1887
1883
1883
1883
1882
1880
1880
1883
1883
1883
1885
1882
1882
1882
1883
1883
1882
1885
1882
1883
1882
1880
1882
1880
1880
1880
1880
1880
1878
1882
1875
1883
1883
1882
1885
1888
1882
1882
1880
1880
1880
1882
1883
1880
1880
1874
1867
1861
1858
1854
1856
1854
1854
1853
1853
1849
1848
1845
1841
1837
1835
1828
1822
1831
1837
1846
1848
1848
1846
1846
1851
1854
1861
1866
1867
1870
1872
1870
1878
1880
1878
1878
1877
1878
1880
1875
1880
1880
1880
1882
1880
1880
1883
1880
1880
1878
1880
1878
1880
1878
1880
1880
1880
1877
1880
1878
1880
1882
1880
1882
1878
1878
1880
1875
1875
1877
1875
1875
1875
1870
1875
1872
1874
1874
1870
1874
1875
1875
1877
1874
1875
1874
1874
1874
1874
1874
1874
1872
1872
1874
1870
1872
1874
1869
1867
1866
1867
1867
1867
1867
1867
1866
1867
1864
1867
1862
1862
1859
1858
1859
1856
1849
1854
1854
1853
1848
1843
1849
1849
1849
1848
1845
1845
1843
1845
1841
1841
1840
1841
1837
1837
1837
1837
1837
1837
1837
1841
1840
1843
1843
1848
1849
1854
1849
1859
1861
1862
1864
1867
1867
1867
1870
1869
1874
1874
1875
1875
1875
1874
1878
1878
1880
1880
1875
1880
1880
1878
1880
1880
1880
1883
1878
1883
1885
1887
1885
1887
1887
1885
1883
1887
1883
1887
1885
1887
1885
1882
1883
1882
1883
1882
1885
1885
1883
1887
1883
1882
1883
1883
1885
1891
1885
1885
1882
1887
1891
1885
1885
1882
1885
1887
1885
1887
1883
1887
1887
1883
1883
1882
1885
1887
1885
1882
1883
1887
1883
1887
1885
1883
1885
1882
1887
1887
1885
1887
1885
1887
1887
1887
1887
1885
1887
1893
1887
1887
1887
1888
1893
1888
1888
1888
1888
1893
1887
1888
1888
1888
1893
1890
1888
1888
1888
1888
1888
1888
1887
1888
1887
1888
1887
1887
1888
1888
1888
1888
1888
1888
1888
1888
1888
1888
1887
1887
1888
1887
1887
1887
1888
1888
1896
1888
1891
1891
1893
1896
1888
1891
1888
1888
1890
1888
1888
1888
1888
1891
1888
1890
1888
1893
1888
1890
1888
1888
1893
1893
1893
1896
1895
1896
1896
1898
1898
1896
1898
1895
1899
1899
1896
1899
1898
1899
1909
1904
1905
1899
1899
1905
1899
1899
1896
1899
1899
1895
1896
1895
1896
1896
1899
1899
1899
1899
1899
1899
1899
1899
1899
1899
1896
1896
1896
1896
1893
1895
1895
1896
1898
1893
1895
1896
1896
1895
1895
1896
1898
1898
1896
1896
1896
1901
1896
1896
1891
1893
1899
1893
1895
1895
1895
1896
1893
1895
1893
1893
1895
1893
1893
1893
1893
1891
1891
1893
1890
1893
1893
1888
1880
1875
1874
1872
1872
1870
1872
1875
1875
1875
1877
1875
1870
1870
1866
1854
1854
1856
1858
1859
1858
1861
1858
1856
1858
1861
1866
1870
1874
1875
1878
1885
1887
1888
1891
1895
1893
1895
1896
1898
1896
1899
1899
1899
1898
1899
1899
1898
1898
1899
1896
1896
1895
1893
1895
1893
1893
1899
1893
1896
1893
1896
1899
1896
1895
1893
1895
1896
1893
1893
1893
1896
1895
1893
1893
1893
1895
1893
1895
1895
1893
1893
1893
1893
1893
1893
1891
1891
1891
1888
1888
1888
1888
1890
1888
1888
1888
1888
1888
1890
1887
1888
1887
1887
1891
1885
1883
1880
1880
1875
1878
1878
1874
1875
1874
1875
1874
1874
1870
1870
1869
1867
1867
1867
1867
1866
1866
1862
1862
1861
1858
1858
1856
1858
1856
1854
1856
1854
1854
1853
1851
1854
1851
1854
1854
1854
1846
1858
1858
1859
1861
1858
1864
1867
1870
1874
1874
1875
1880
1880
1880
1887
1887
1891
1893
1896
1895
1896
1895
1896
1899
1899
1898
1901
1899
1901
1899
1901
1901
1901
1901
1899
1901
1904
1904
1904
1901
1903
1907
1905
1905
1905
1907
1911
1904
1905
1904
1905
1909
1905
1905
1907
1905
1909
1905
1905
1905
1905
1905
1905
1905
1904
1907
1905
1905
1905
1905
1907
1903
1903
1903
1901
1905
1903
1905
1905
1905
1905
1904
1905
1905
1904
1907
1901
1904
1909
1903
1904
1904
1904
1909
1905
1905
1905
1905
1905
1904
1904
1905
1905
1905
1905
1905
1905
1905
1905
1905
1905
1905
1907
1904
1905
1905
1905
1904
1904
1903
1904
1901
1901
1901
1904
1901
1901
1901
1901
1901
1909
1904
1903
1901
1905
1909
1904
1903
1901
1901
1903
1901
1901
1899
1899
1901
1899
1901
1899
1901
1899
1901
1901
1901
1905
1901
1901
1901
1901
1901
1901
1901
1901
1901
1901
1898
1899
1899
1898
1899
1899
1899
1899
1901
1901
1901
1904
1907
1905
1905
1904
1905
1909
1904
1904
1903
1905
1907
1905
1907
1907
1909
1911
1907
1907
1904
1904
1899
1901
1901
1899
1899
1899
1896
1898
1896
1899
1896
1899
1899
1899
1899
1899
1899
1898
1896
1896
1893
1895
1899
1893
1893
1893
1891
1896
1890
1893
1890
1891
1893
1893
1893
1891
1893
1893
1891
1891
1888
1888
1887
1887
1888
1888
1888
1888
1887
1887
1888
1887
1887
1888
1887
1887
1887
1882
1885
1883
1882
1883
1882
1885
1891
1883
1880
1875
1869
1861
1862
1859
1859
1859
1856
1859
1858
1854
1848
1843
1845
1843
1837
1832
1831
1835
1845
1854
1858
1856
1853
1854
1859
1862
1870
1874
1875
1875
1878
1882
1882
1882
1883
1885
1883
1887
1887
1887
1888
1888
1888
1895
1888
1891
1888
1891
1896
1893
1893
1891
1891
1893
1888
1890
1888
1893
1891
1893
1893
1893
1893
1888
1888
1893
1891
1891
1888
1888
1888
1888
1888
1888
1891
1891
1893
1893
1890
1891
1888
1888
1891
1888
1887
1893
1888
1888
1885
1887
1893
1887
1888
1887
1888
1890
1887
1888
1885
1887
1887
1887
1887
1883
1882
1882
1880
1880
1878
1878
1878
1875
1875
1875
1874
1874
1872
1862
1870
1867
1870
1862
1862
1862
1861
1861
1859
1858
1854
1854
1854
1849
1843
1848
1848
1851
1848
1845
1849
1849
1849
1848
1849
1853
1854
1858
1858
1861
1862
1864
1866
1870
1870
1874
1875
1875
1880
1883
1883
1887
1887
1887
1887
1890
1891
1893
1895
1893
1893
1896
1895
1896
1895
1896
1901
1896
1895
1895
1893
1899
1893
1891
1895
1895
1893
1893
1893
1893
1895
1895
1895
1896
1895
1896
1893
1896
1895
1893
1896
1893
1895
1896
1895
1896
1895
1896
1896
1896
1895
1895
1896
1895
1896
1899
1896
1899
1904
1896
1898
1896
1898
1901
1896
1896
1895
1895
1898
1893
1893
1893
1893
1896
1893
1895
1893
1893
1893
1893
1893
1893
1893
1891
1893
1890
1890
1893
1891
1893
1893
1893
1893
1891
1893
1893
1890
1893
1890
1893
1893
1890
1891
1888
1890
1899
1891
1893
1888
1890
1895
1888
1891
1888
1891
1891
1888
1888
1888
1888
1888
1888
1888
1890
1890
1891
1890
1893
1890
1891
1893
1893
1893
1893
1893
1893
1891
1893
1891
1893
1891
1893
1891
1895
1890
1890
1893
1895
1891
1893
1891
1896
1901
1895
1891
1893
1893
1895
1895
1893
1893
1896
1895
1893
1898
1896
1899
1899
1901
1901
1899
1901
1899
1898
1899
1899
1899
1899
1901
1901
1905
1909
1905
1907
1904
1904
1901
1898
1899
1901
1899
1899
1895
1896
1899
1893
1895
1896
1898
1904
1899
1899
1899
1899
1899
1896
1898
1893
1895
1893
1891
1893
1893
1893
1890
1893
1893
1893
1893
1893
1895
1895
1893
1893
1891
1891
1888
1888
1888
1888
1888
1888
1891
1893
1890
1893
1898
1893
1893
1893
1895
1901
1895
1893
1891
1891
1891
1888
1887
1887
1887
1891
1888
1888
1883
1880
1874
1867
1862
1861
1862
1862
1862
1862
1862
1861
1858
1854
1849
1848
1843
1841
1840
1843
1849
1854
1851
1849
1841
1849
1854
1861
1862
1861
1870
1872
1875
1875
1878
1880
1880
1880
1882
1880
1880
1882
1878
1880
1883
1880
1882
1880
1883
1882
1883
1882
1883
1882
1882
1883
1882
1883
1885
1880
1883
1880
1882
1882
1880
1880
1880
1880
1878
1875
1875
1872
1878
1875
1875
1875
1872
1875
1874
1874
1875
1874
1875
1878
1874
1875
1875
1875
1874
1875
1875
1875
1874
1874
1874
1874
1874
1874
1872
1870
1869
1870
1867
1866
1864
1867
1866
1862
1864
1862
1862
1862
1861
1854
1859
1858
1854
1854
1848
1853
1851
1854
1851
1849
1854
1849
1848
1843
1841
1841
1841
1843
1840
1841
1841
1840
1837
1837
1837
1837
1837
1835
1835
1837
1837
1835
1840
1841
1843
1845
1848
1848
1849
1849
1849
1854
1856
1856
1859
1861
1858
1862
1864
1867
1867
1866
1874
1872
1874
1874
1872
1875
1875
1875
1875
1875
1875
1878
1875
1877
1880
1880
1878
1875
1878
1880
1878
1877
1878
1880
1882
1880
1880
1875
1878
1878
1875
1875
1874
1875
1874
1875
1869
1875
1875
1875
1875
1874
1878
1875
1872
1875
1875
1875
1874
1874
1872
1874
1874
1875
1874
1875
1875
1874
1875
1875
1875
1875
1875
1875
1872
1875
1875
1875
1875
1875
1875
1875
1875
1875
1875
1875
1875
1875
1869
1875
1874
1875
1874
1867
1875
1874
1874
1875
1875
1875
1874
1875
1875
1878
1875
1875
1874
1875
1878
1878
1877
1875
1878
1880
1878
1878
1875
1875
1880
1880
1874
1877
1880
1882
1880
1882
1880
1882
1882
1882
1882
1883
1882
1880
1883
1888
1883
1882
1882
1882
1878
1882
1885
1880
1880
1882
1880
1882
1880
1883
1885
1882
1880
1880
1880
1882
1880
1882
1878
1880
1882
1880
1880
1878
1882
1880
1882
1880
1882
1882
1882
1883
1880
1880
1882
1882
1883
1891
1885
1885
1887
1887
1893
1888
1888
1887
1888
1891
1888
1891
1888
1890
1891
1891
1893
1893
1895
1895
1893
1893
1891
1891
1888
1888
1887
1887
1885
1883
1885
1885
1885
1885
1883
1887
1885
1883
1887
1883
1885
1888
1883
1882
1880
1882
1888
1880
1882
1880
1878
1880
1882
1882
1878
1880
1885
1882
1878
1880
1880
1880
1880
1880
1880
1880
1880
1880
1878
1878
1880
1882
1882
1882
1878
1880
1880
1880
1878
1880
1878
1880
1878
1875
1875
1875
1875
1877
1872
1875
1870
1869
1861
1853
1854
1856
1854
1856
1858
1859
1859
1859
1854
1853
1849
1848
1843
1841
1837
1840
1846
1849
1849
1848
1846
1848
1849
1854
1862
1867
1870
1874
1875
1875
1880
1880
1880
1880
1880
1883
1888
1883
1883
1883
1883
1888
1885
1887
1883
1882
1885
1885
1885
1882
1883
1887
1885
1882
1880
1882
1882
1882
1882
1880
1880
1883
1882
1880
1880
1880
1883
1882
1875
1883
1883
1882
1883
1883
1880
1880
1880
1882
1880
1882
1878
1875
1880
1874
1880
1880
1880
1882
1878
1880
1880
1878
1877
1875
1875
1877
1875
1875
1877
1875
1875
1875
1872
1874
1874
1874
1870
1870
1869
1867
1867
1867
1862
1867
1861
1862
1861
1861
1861
1858
1858
1856
1858
1854
1854
1848
1849
1849
1849
1849
1843
1848
1848
1848
1845
1845
1845
1845
1845
1843
1843
1848
1848
1853
1849
1854
1854
1861
1861
1862
1866
1867
1869
1874
1874
1875
1878
1880
1880
1883
1885
1885
1888
1887
1888
1887
1888
1896
1888
1893
1891
1893
1898
1893
1895
1895
1893
1895
1893
1893
1890
1893
1893
1893
1893
1893
1893
1891
1891
1891
1888
1891
1888
1888
1888
1888
1888
1888
1888
1891
1888
1890
1888
1893
1890
1890
1893
1888
1888
1891
1888
1891
1888
1888
1895
1888
1888
1887
1888
1893
1888
1888
1887
1887
1888
1887
1888
1887
1888
1887
1887
1887
1883
1887
1885
1887
1887
1887
1887
1885
1887
1888
1885
1888
1887
1887
1885
1887
1887
1887
1885
1887
1887
1887
1882
1887
1891
1887
1887
1885
1888
1893
1888
1888
1888
1893
1893
1893
1891
1888
1890
1890
1891
1888
1888
1888
1888
1888
1888
1888
1888
1887
1888
1888
1885
1888
1885
1888
1888
1888
1891
1888
1888
1888
1888
1888
1888
1887
1890
1887
1888
1887
1888
1893
1887
1888
1887
1888
1895
1888
1893
1891
1891
1893
1893
1891
1890
1893
1893
1891
1891
1893
1895
1896
1898
1899
1898
1898
1899
1899
1898
1898
1898
1896
1898
1898
1896
1899
1898
1904
1905
1901
1901
1899
1898
1905
1896
1899
1893
1893
1898
1891
1888
1888
1891
1891
1891
1895
1893
1895
1895
1895
1893
1890
1891
1893
1891
1891
1891
1888
1888
1887
1885
1887
1887
1887
1888
1888
1888
1891
1888
1891
1888
1888
1888
1888
1888
1895
1888
1888
1888
1891
1896
1891
1888
1887
1888
1891
1888
1891
1888
1893
1893
1891
1891
1888
1887
1885
1887
1890
1888
1891
1887
1882
1875
1870
1864
1862
1861
1856
1861
1859
1861
1856
1849
1848
1845
1841
1833
1831
1827
1835
1843
1854
1849
1854
1854
1854
1862
1862
1874
1875
1880
1882
1882
1882
1887
1885
1887
1887
1885
1887
1883
1887
1887
1887
1888
1888
1888
1888
1888
1888
1887
1887
1883
1887
1885
1887
1887
1887
1885
1887
1887
1887
1885
1882
1888
1883
1880
1882
1880
1875
1878
1878
1878
1883
1882
1882
1882
1880
1882
1882
1880
1880
1880
1880
1883
1882
1882
1880
1878
1880
1880
1880
1878
1875
1875
1875
1874
1874
1872
1874
1870
1870
1870
1869
1869
1867
1866
1867
1867
1867
1864
1861
1862
1862
1861
1862
1859
1859
1858
1859
1858
1854
1854
1854
1853
1849
1849
1848
1846
1848
1848
1846
1843
1841
1841
1841
1841
1835
1837
1840
1837
1840
1837
1840
1840
1841
1845
1843
1843
1846
1846
1848
1849
1848
1854
1856
1858
1859
1854
1862
1866
1867
1870
1869
1874
1874
1875
1875
1878
1880
1883
1882
1887
1885
1885
1887
1883
1887
1885
1887
1887
1888
1888
1887
1888
1888
1887
1888
1885
1887
1888
1888
1888
1888
1888
1896
1888
1887
1887
1887
1893
1887
1887
1887
1887
1888
1887
1888
1887
1887
1887
1885
1885
1887
1887
1888
1888
1888
1887
1888
1887
1888
1888
1888
1888
1887
1888
1887
1888
1887
1887
1888
1887
1887
1888
1888
1888
1893
1893
1893
1891
1893
1898
1893
1891
1893
1893
1899
1890
1893
1891
1893
1893
1893
1890
1888
1888
1888
1888
1888
1888
1888
1888
1890
1891
1891
1891
1891
1888
1888
1885
1887
1887
1888
1885
1887
1887
1887
1887
1888
1887
1888
1885
1885
1888
1882
1882
1882
1882
1888
1882
1885
1883
1887
1887
1883
1885
1882
1882
1883
1882
1882
1880
1882
1880
1882
1882
1878
1880
1882
1880
1878
1878
1880
1882
1880
1880
1880
1878
1877
1875
1875
1878
1877
1875
1880
1875
1882
1880
1875
1880
1875
1878
1880
1875
1882
1880
1883
1882
1882
1880
1882
1885
1887
1883
1887
1885
1885
1888
1888
1885
1887
1887
1887
1887
1888
1888
1888
1888
1891
1895
1893
1895
1893
1893
1893
1891
1893
1893
1890
1890
1888
1888
1893
1887
1887
1883
1882
1888
1883
1885
1887
1887
1888
1887
1887
1883
1883
1887
1882
1882
1880
1880
1880
1880
1878
1875
1880
1883
1880
1880
1878
1880
1880
1880
1878
1875
1880
1877
1875
1875
1875
1877
1875
1880
1874
1880
1880
1878
1878
1874
1880
1878
1880
1880
1882
1878
1878
1874
1875
1874
1875
1878
1874
1872
1870
1862
1858
1856
1859
1861
1861
1862
1866
1867
1874
1870
1862
1862
1861
1856
1853
1849
1848
1854
1853
1849
1848
1843
1845
1846
1849
1849
1861
1861
1867
1869
1869
1874
1874
1875
1875
1874
1875
1875
1877
1880
1882
1878
1880
1875
1880
1878
1880
1878
1878
1878
1882
1880
1880
1880
1880
1880
1875
1878
1877
1877
1875
1880
1880
1878
1875
1875
1878
1874
1878
1878
1875
1875
1870
1875
1874
1875
1875
1874
1875
1878
1875
1878
1877
1875
1875
1877
1875
1875
1874
1874
1874
1874
1874
1874
1872
1872
1874
1874
1874
1874
1874
1874
1874
1874
1874
1872
1874
1874
1870
1862
1867
1862
1862
1861
1853
1858
1856
1858
1856
1854
1858
1856
1856
1853
1849
1849
1853
1849
1849
1849
1849
1848
1848
1841
1843
1843
1843
1845
1846
1848
1843
1841
1848
1848
1849
1849
1849
1849
1851
1856
1859
1861
1862
1866
1866
1867
1867
1874
1875
1877
1882
1878
1883
1883
1883
1885
1888
1887
1888
1887
1888
1888
1887
1887
1888
1888
1888
1890
1891
1888
1891
1888
1888
1891
1888
1888
1888
1888
1891
1888
1893
1891
1893
1891
1893
1893
1888
1891
1896
1888
1888
1887
1888
1893
1887
1885
1885
1887
1888
1887
1888
1887
1888
1891
1891
1888
1888
1888
1888
1888
1891
1888
1888
1887
1888
1888
1888
1888
1888
1888
1891
1888
1888
1887
1888
1888
1888
1891
1888
1888
1893
1888
1893
1891
1890
1895
1888
1891
1888
1891
1893
1888
1893
1888
1893
1891
1893
1893
1891
1891
1895
1893
1893
1891
1891
1893
1891
1891
1893
1891
1891
1893
1893
1893
1893
1891
1893
1893
1893
1893
1893
1893
1893
1891
1891
1893
1893
1899
1893
1893
1890
1893
1899
1895
1893
1893
1893
1896
1893
1893
1893
1895
1895
1891
1893
1891
1893
1891
1893
1895
1893
1895
1891
1893
1893
1893
1895
1893
1896
1896
1896
1898
1898
1899
1899
1901
1904
1899
1901
1909
1901
1901
1899
1901
1907
1904
1905
1904
1905
1907
1909
1909
1909
1909
1907
1904
1901
1901
1904
1901
1901
1901
1899
1899
1898
1899
1899
1899
1899
1896
1899
1901
1899
1899
1899
1899
1899
1898
1899
1896
1898
1899
1899
1898
1896
1898
1901
1896
1896
1895
1895
1901
1896
1896
1895
1895
1898
1895
1896
1895
1896
1896
1896
1896
1896
1895
1895
1895
1896
1895
1893
1893
1896
1895
1893
1896
1893
1893
1893
1890
1891
1891
1896
1891
1887
1883
1875
1874
1866
1867
1867
1869
1867
1862
1870
1866
1862
1861
1858
1854
1849
1843
1843
1843
1853
1854
1858
1854
1853
1853
1858
1862
1867
1870
1875
1878
1880
1883
1885
1887
1887
1887
1888
1887
1888
1888
1888
1888
1887
1888
1893
1887
1887
1885
1887
1891
1888
1887
1887
1888
1888
1887
1887
1887
1887
1888
1887
1888
1887
1887
1887
1888
1887
1887
1887
1885
1887
1888
1882
1885
1885
1885
1885
1887
1887
1883
1887
1885
1887
1883
1882
1882
1882
1880
1880
1878
1880
1888
1880
1880
1875
1875
1874
1875
1875
1875
1875
1875
1875
1874
1875
1874
1874
1874
1874
1872
1874
1874
1874
1870
1869
1869
1867
1866
1867
1867
1862
1862
1861
1861
1861
1858
1858
1856
1854
1853
1849
1853
1849
1845
1849
1848
1848
1848
1841
1848
1848
1848
1846
1848
1849
1849
1854
1854
1856
1859
1861
1866
1864
1867
1867
1870
1874
1875
1878
1880
1883
1885
1887
1887
1888
1888
1890
1893
1893
1893
1893
1893
1893
1893
1893
1899
1893
1895
1893
1893
1901
1896
1896
1895
1896
1901
1898
1899
1899
1899
1901
1899
1899
1901
1901
1901
1901
1901
1901
1901
1899
1901
1901
1901
1901
1901
1901
1901
1901
1901
1901
1901
1901
1901
1901
1899
1901
1904
1904
1901
1901
1901
1907
1903
1905
1901
1904
1905
1901
1901
1901
1901
1901
1899
1901
1899
1901
1901
1901
1901
1899
1901
1901
1901
1901
1904
1905
1903
1905
1904
1904
1901
1899
1901
1901
1901
1899
1898
1901
1899
1901
1901
1899
1901
1907
1899
1901
1899
1901
1907
1901
1903
1901
1904
1905
1904
1901
1899
1901
1901
1901
1899
1899
1901
1899
1899
1899
1899
1899
1899
1901
1901
1901
1901
1899
1899
1899
1899
1901
1896
1899
1899
1898
1899
1896
1896
1899
1899
1899
1899
1901
1909
1901
1899
1899
1901
1904
1899
1901
1899
1899
1899
1899
1899
1899
1904
1905
1904
1905
1904
1907
1903
1905
1904
1904
1904
1901
1903
1905
1903
1905
1903
1905
1905
1907
1909
1905
1905
1905
1905
1905
1901
1905
1907
1904
1901
1901
1899
1905
1901
1899
1899
1901
1901
1901
1901
1901
1899
1899
1898
1899
1893
1896
1896
1896
1898
1896
1895
1895
1896
1898
1896
1895
1896
1896
1896
1895
1895
1893
1893
1896
1893
1893
1893
1891
1898
1893
1891
1887
1888
1896
1890
1893
1890
1895
1896
1893
1891
1888
1888
1888
1888
1888
1888
1890
1888
1888
1885
1883
1880
1874
1869
1867
1862
1861
1862
1859
1858
1861
1854
1853
1846
1845
1843
1841
1835
1831
1833
1841
1849
1854
1853
1846
1853
1853
1861
1867
1866
1874
1875
1875
1880
1887
1885
1888
1887
1888
1885
1888
1888
1887
1887
1885
1887
1887
1885
1887
1885
1887
1887
1883
1887
1882
1883
1882
1878
1882
1878
1880
1878
1880
1882
1877
1882
1875
1882
1880
1878
1880
1875
1880
1882
1880
1882
1882
1880
1880
1875
1880
1880
1880
1882
1880
1877
1880
1875
1875
1874
1875
1875
1875
1875
1874
1875
1878
1872
1867
1872
1874
1874
1870
1872
1869
1870
1870
1870
1870
1869
1869
1869
1867
1861
1866
1864
1864
1862
1858
1859
1858
1856
1854
1854
1854
1854
1854
1853
1849
1849
1849
1848
1848
1848
1845
1845
1845
1843
1845
1841
1840
1841
1841
1843
1841
1841
1843
1845
1848
1848
1849
1851
1853
1858
1861
1856
1866
1867
1867
1869
1866
1875
1875
1875
1880
1880
1883
1878
1882
1883
1887
1887
1888
1888
1893
1888
1890
1893
1893
1893
1893
1893
1893
1893
1893
1891
1893
1891
1891
1891
1893
1895
1893
1893
1893
1890
1893
1899
1893
1893
1893
1893
1899
1891
1891
1888
1888
1893
1891
1891
1890
1888
1890
1888
1888
1888
1891
1891
1893
1893
1891
1891
1893
1891
1893
1890
1893
1891
1896
1896
1893
1895
1895
1893
1893
1895
1896
1893
1893
1893
1893
1891
1893
1893
1899
1893
1895
1893
1891
1896
1893
1891
1891
1891
1893
1893
1893
1891
1893
1891
1891
1893
1893
1895
1893
1893
1891
1893
1896
1893
1896
1896
1896
1896
1895
1893
1893
1893
1893
1893
1893
1893
1893
1895
1893
1895
1901
1893
1896
1895
1895
1899
1895
1895
1893
1895
1898
1895
1893
1893
1896
1896
1895
1898
1893
1895
1891
1896
1896
1896
1899
1896
1898
1901
1899
1901
1901
1905
1901
1898
1899
1896
1899
1899
1898
1899
1899
1901
1905
1905
1912
1909
1911
1914
1909
1907
1901
1899
1901
1899
1901
1899
1899
1898
1898
1898
1893
1895
1899
1896
1898
1896
1899
1898
1893
1891
1891
1891
1891
1893
1893
1893
1893
1890
1891
1890
1893
1893
1891
1888
1888
1887
1888
1887
1887
1893
1887
1888
1887
1888
1896
1888
1888
1888
1888
1887
1887
1887
1887
1888
1891
1888
1891
1888
1887
1885
1887
1882
1880
1880
1880
1883
1883
1882
1878
1875
1870
1866
1862
1861
1867
1866
1867
1870
1874
1874
1869
1861
1862
1861
1858
1853
1843
1846
1849
1853
1849
1845
1841
1841
1846
1848
1854
1861
1867
1869
1874
1875
1877
1882
1883
1887
1882
1882
1883
1882
1882
1882
1887
1885
1888
1887
1883
1885
1887
1883
1883
1880
1880
1883
1883
1883
1880
1882
1888
1882
1882
1878
1880
1875
1882
1885
1880
1878
1880
1880
1880
1878
1880
1878
1878
1877
1875
1878
1878
1875
1874
1875
1875
1878
1877
1877
1875
1875
1878
1872
1874
1869
1869
1870
1867
1866
1869
1866
1867
1866
1861
1862
1866
1867
1867
1859
1862
1862
1862
1862
1861
1862
1861
1859
1858
1853
1854
1854
1854
1849
1849
1848
1848
1846
1848
1849
1846
1846
1845
1841
1841
1841
1837
1837
1837
1838
1841
1841
1841
1840
1841
1840
1841
1841
1843
1843
1843
1841
1848
1848
1853
1854
1854
1859
1862
1866
1867
1867
1870
1867
1869
1870
1870
1870
1872
1874
1875
1877
1877
1875
1875
1878
1880
1880
1878
1878
1882
1878
1882
1883
1882
1885
1883
1883
1882
1883
1883
1878
1880
1874
1878
1880
1880
1878
1874
1878
1880
1877
1880
1880
1880
1880
1877
1878
1875
1878
1878
1877
1880
1882
1880
1882
1878
1880
1878
1877
1880
1874
1875
1878
1875
1878
1875
1880
1880
1878
1880
1878
1878
1880
1882
1874
1880
1880
1877
1878
1874
1880
1880
1880
1880
1882
1882
1880
1880
1880
1877
1877
1880
1875
1878
1880
1882
1882
1880
1882
1882
1883
1883
1880
1883
1885
1882
1875
1883
1883
1880
1878
1880
1878
1880
1875
1880
1878
1880
1880
1878
1880
1874
1880
1880
1880
1882
1878
1880
1880
1878
1880
1880
1880
1880
1880
1883
1885
1882
1882
1880
1880
1880
1880
1880
1880
1883
1888
1887
1887
1888
1888
1887
1888
1888
1888
1890
1887
1888
1888
1887
1891
1887
1893
1899
1895
1899
1899
1899
1899
1891
1888
1890
1891
1893
1893
1893
1888
1888
1888
1887
1885
1887
1887
1887
1887
1888
1888
1888
1887
1888
1887
1887
1885
1883
1880
1878
1878
1880
1878
1883
1880
1880
1880
1878
1878
1878
1880
1880
1877
1880
1875
1880
1878
1878
1882
1880
1880
1878
1875
1878
1875
1878
1878
1875
1878
1882
1882
1880
1878
1880
1880
1875
1874
1870
1869
1874
1874
1874
1872
1869
1866
1862
1861
1861
1861
1866
1862
1866
1870
1869
1867
1866
1854
1856
1848
1848
1840
1835
1841
1843
1843
1840
1837
1837
1841
1843
1848
1853
1856
1859
1862
1869
1870
1874
1874
1875
1878
1877
1878
1880
1875
1877
1878
1878
1875
1875
1878
1883
1880
1880
1880
1882
1882
1880
1878
1883
1882
1878
1878
1875
1880
1880
1878
1880
1885
1883
1880
1882
1885
1887
1883
1883
1883
1885
1885
1885
1885
1887
1887
1887
1885
1885
1885
1887
1885
1883
1883
1883
1882
1880
1882
1882
1880
1882
1880
1880
1878
1877
1877
1875
1877
1874
1877
1880
1875
1877
1875
1878
1875
1874
1872
1874
1872
1874
1874
1874
1874
1874
1870
1870
1867
1867
1870
1862
1862
1862
1862
1861
1859
1861
1858
1861
1858
1858
1858
1858
1858
1856
1856
1854
1854
1854
1854
1848
1854
1854
1858
1861
1854
1859
1861
1862
1866
1867
1874
1874
1875
1880
1880
1882
1885
1885
1887
1887
1888
1891
1893
1893
1891
1893
1895
1896
1896
1896
1898
1899
1896
1898
1899
1901
1898
1899
1899
1899
1901
1907
1901
1901
1899
1901
1905
1899
1901
1901
1899
1901
1899
1901
1899
1901
1899
1901
1901
1901
1901
1898
1898
1898
1899
1898
1896
1899
1899
1899
1898
1896
1899
1899
1896
1896
1893
1893
1893
1893
1893
1888
1893
1893
1891
1893
1893
1893
1901
1896
1895
1893
1896
1901
1898
1899
1898
1899
1899
1898
1898
1895
1896
1899
1896
1896
1895
1896
1895
1895
1896
1899
1899
1899
1898
1901
1899
1899
1896
1898
1896
1896
1896
1895
1895
1896
1895
1898
1896
1899
1901
1896
1898
1899
1899
1903
1898
1898
1896
1901
1899
1899
1899
1899
1899
1899
1896
1899
1898
1899
1899
1899
1898
1899
1899
1898
1898
1899
1899
1899
1896
1896
1895
1895
1895
1895
1896
1896
1896
1896
1896
1898
1901
1896
1899
1896
1898
1904
1899
1901
1898
1899
1904
1901
1901
1904
1904
1905
1901
1904
1901
1901
1901
1901
1901
1901
1905
1905
1909
1909
1905
1905
1901
1901
1901
1901
1901
1899
1898
1899
1898
1899
1895
1898
1899
1899
1899
1899
1901
1907
1898
1899
1898
1899
1901
1898
1896
1893
1896
1896
1895
1893
1893
1895
1895
1893
1893
1893
1893
1893
1895
1893
1893
1893
1893
1891
1893
1893
1891
1891
1891
1891
1891
1890
1891
1893
1891
1891
1890
1888
1891
1896
1888
1888
1887
1888
1895
1888
1891
1888
1883
1877
1872
1867
1867
1867
1862
1867
1866
1867
1862
1861
1856
1856
1853
1848
1841
1835
1832
1838
1845
1854
1854
1848
1851
1854
1861
1862
1867
1874
1875
1880
1880
1883
1880
1885
1883
1887
1893
1887
1887
1882
1887
1891
1887
1887
1885
1887
1888
1887
1888
1887
1887
1887
1888
1887
1887
1887
1887
1887
1885
1887
1887
1887
1888
1887
1887
1888
1887
1887
1887
1883
1887
1887
1887
1885
1885
1887
1882
1885
1888
1882
1885
1883
1883
1888
1885
1887
1882
1883
1878
1880
1882
1880
1880
1882
1880
1880
1878
1880
1882
1880
1880
1880
1878
1880
1878
1875
1874
1874
1875
1874
1874
1874
1872
1872
1869
1870
1869
1867
1866
1867
1861
1862
1862
1862
1859
1853
1856
1854
1854
1854
1849
1851
1849
1853
1849
1848
1849
1851
1849
1849
1849
1851
1853
1858
1858
1859
1862
1862
1866
1866
1870
1874
1872
1875
1878
1880
1880
1883
1883
1887
1887
1888
1891
1895
1893
1891
1893
1901
1896
1899
1896
1899
1901
1899
1898
1896
1899
1901
1899
1901
1899
1899
1899
1899
1899
1899
1899
1899
1901
1899
1898
1899
1899
1899
1901
1899
1901
1899
1901
1899
1899
1899
1899
1899
1898
1896
1896
1893
1896
1904
1895
1896
1896
1899
1904
1899
1899
1899
1898
1899
1898
1899
1898
1899
1898
1899
1899
1899
1898
1898
1896
1895
1896
1896
1895
1896
1896
1896
1896
1896
1898
1899
1898
1896
1899
1898
1898
1899
1899
1896
1898
1901
1898
1899
1895
1899
1904
1898
1899
1898
1899
1901
1895
1896
1893
1895
1895
1893
1893
1893
1893
1893
1891
1893
1893
1895
1893
1895
1893
1895
1895
1893
1891
1893
1891
1891
1888
1888
1891
1888
1893
1893
1890
1891
1888
1888
1888
1893
1899
1895
1891
1891
1893
1896
1891
1891
1888
1888
1890
1888
1891
1888
1893
1891
1890
1891
1888
1891
1891
1893
1893
1895
1893
1895
1895
1896
1895
1896
1896
1896
1895
1896
1899
1898
1901
1901
1899
1899
1893
1890
1898
1891
1891
1888
1888
1893
1885
1883
1883
1885
1887
1887
1885
1885
1887
1887
1883
1887
1887
1887
1885
1887
1883
1882
1885
1883
1883
1883
1882
1880
1883
1882
1878
1882
1882
1883
1880
1882
1880
1882
1882
1880
1880
1882
1882
1880
1882
1888
1882
1880
1878
1882
1877
1882
1882
1880
1883
1885
1883
1883
1880
1880
1878
1880
1882
1880
1877
1875
1867
1861
1861
1856
1854
1853
1854
1854
1853
1853
1845
1841
1841
1840
1832
1825
1824
1827
1833
1845
1848
1843
1848
1848
1853
1858
1858
1867
1869
1870
1874
1874
1875
1875
1875
1875
1875
1880
1878
1875
1880
1882
1880
1883
1880
1882
1880
1880
1882
1880
1880
1883
1882
1878
1880
1882
1882
1882
1878
1882
1882
1880
1880
1880
1882
1882
1880
1883
1875
1880
1878
1880
1882
1880
1880
1880
1878
1882
1880
1880
1880
1878
1880
1880
1878
1880
1875
1875
1880
1875
1875
1874
1875
1875
1874
1874
1872
1874
1874
1872
1872
1870
1867
1870
1870
1870
1869
1867
1869
1866
1859
1864
1862
1862
1862
1856
1861
1858
1859
1858
1856
1854
1854
1854
1849
1849
1848
1848
1845
1843
1845
1841
1843
1841
1841
1841
1843
1841
1841
1840
1841
1841
1840
1841
1841
1841
1843
1845
1846
1848
1849
1854
1849
1859
1862
1862
1867
1862
1867
1870
1874
1875
1874
1875
1880
1880
1880
1887
1882
1883
1883
1885
1887
1887
1885
1887
1887
1885
1885
1887
1885
1887
1887
1887
1887
1885
1887
1882
1887
1885
1887
1887
1885
1887
1887
1887
1885
1885
1885
1893
1887
1887
1887
1887
1893
1887
1887
1887
1885
1887
1885
1887
1887
1887
1887
1887
1887
1885
1887
1887
1885
1885
1887
1887
1885
1887
1885
1887
1887
1885
1887
1887
1885
1887
1885
1887
1887
1888
1887
1882
1885
1888
1883
1882
1885
1887
1890
1887
1888
1885
1887
1888
1888
1887
1887
1887
1885
1883
1885
1882
1883
1885
1885
1887
1885
1887
1885
1887
1883
1883
1883
1883
1885
1883
1883
1882
1882
1885
1883
1883
1885
1880
1883
1891
1888
1888
1883
1887
1888
1882
1883
1883
1885
1888
1883
1883
1880
1880
1877
1880
1880
1880
1880
1883
1882
1880
1882
1882
1882
1882
1883
1883
1885
1885
1885
1887
1885
1888
1887
1888
1887
1887
1888
1888
1890
1890
1893
1893
1893
1893
1901
1895
1898
1899
1896
1901
1896
1893
1893
1896
1896
1893
1893
1893
1891
1893
1891
1890
1888
1890
1890
1893
1891
1890
1891
1888
1888
1888
1887
1887
1883
1887
1883
1883
1885
1883
1887
1887
1882
1883
1882
1883
1891
1885
1887
1885
1887
1888
1885
1882
1882
1883
1883
1883
1883
1883
1882
1887
1882
1882
1880
1883
1882
1882
1880
1882
1882
1882
1875
1874
1874
1878
1880
1880
1870
1874
1867
1867
1861
1858
1861
1861
1862
1862
1866
1867
1867
1866
1861
1849
1853
1848
1848
1848
1846
1849
1848
1845
1841
1840
1843
1848
1851
1858
1859
1862
1866
1869
1872
1874
1874
1878
1877
1880
1880
1880
1880
1880
1880
1882
1882
1880
1878
1880
1877
1880
1878
1880
1882
1880
1882
1878
1882
1883
1880
1883
1888
1882
1882
1880
1883
1880
1885
1880
1880
1883
1880
1882
1880
1880
1885
1883
1885
1885
1883
1887
1883
1883
1880
1880
1882
1880
1880
1882
1880
1882
1880
1882
1880
1883
1880
1880
1880
1875
1878
1880
1875
1875
1872
1875
1874
1874
1874
1872
1870
1872
1870
1867
1867
1867
1867
1867
1867
1867
1862
1862
1862
1861
1859
1859
1858
1858
1858
1858
1854
1848
1853
1849
1849
1849
1848
1848
1849
1849
1848
1848
1849
1849
1853
1854
1848
1854
1858
1858
1861
1858
1864
1867
1869
1869
1870
1875
1878
1880
1882
1883
1885
1887
1887
1888
1891
1893
1891
1893
1891
1893
1895
1893
1891
1893
1895
1893
1895
1896
1896
1896
1895
1898
1898
1899
1895
1895
1901
1896
1896
1895
1895
1901
1893
1893
1896
1896
1898
1896
1896
1893
1896
1896
1896
1893
1893
1895
1893
1893
1893
1893
1891
1893
1893
1893
1893
1893
1893
1893
1893
1893
1895
1893
1893
1893
1893
1893
1888
1893
1895
1893
1893
1888
1890
1896
1888
1893
1890
1893
1895
1893
1893
1893
1893
1896
1893
1893
1891
1893
1893
1893
1893
1891
1893
1893
1891
1891
1891
1893
1893
1891
1893
1893
1893
1893
1891
1893
1893
1893
1891
1893
1895
1893
1891
1893
1893
1896
1891
1888
1888
1891
1896
1893
1893
1893
1893
1893
1891
1893
1893
1895
1895
1895
1895
1893
1893
1891
1893
1893
1893
1893
1895
1895
1896
1895
1899
1899
1898
1899
1898
1899
1899
1901
1901
1899
1899
1899
1904
1912
1905
1905
1903
1904
1907
1901
1901
1899
1901
1899
1898
1899
1896
1899
1899
1899
1898
1896
1898
1896
1898
1896
1893
1893
1891
1893
1893
1893
1893
1891
1893
1893
1893
1893
1890
1893
1895
1893
1893
1893
1893
1893
1895
1895
1893
1893
1899
1893
1893
1891
1893
1898
1893
1893
1891
1893
1893
1891
1893
1893
1893
1893
1893
1893
1888
1888
1888
1893
1896
1895
1895
1888
1882
1875
1874
1869
1870
1870
1869
1867
1869
1869
1864
1861
1861
1858
1853
1848
1837
1843
1849
1859
1862
1859
1861
1861
1862
1867
1872
1874
1880
1880
1883
1888
1887
1888
1888
1888
1888
1891
1891
1891
1893
1890
1891
1893
1893
1893
1893
1893
1895
1893
1893
1893
1891
1895
1893
1893
1893
1895
1901
1895
1898
1895
1898
1899
1895
1893
1895
1893
1896
1893
1893
1893
1893
1893
1893
1891
1891
1891
1891
1890
1891
1888
1888
1887
1887
1887
1887
1887
1885
1887
1885
1887
1885
1883
1883
1885
1883
1883
1880
1880
1882
1882
1878
1883
1877
1874
1878
1875
1875
1875
1867
1874
1874
1874
1867
1867
1866
1867
1864
1862
1861
1861
1859
1861
1859
1859
1858
1858
1854
1854
1854
1849
1849
1849
1849
1851
1849
1849
1849
1849
1849
1854
1853
1854
1858
1861
1859
1858
1866
1867
1869
1870
1870
1874
1875
1875
1878
1880
1885
1882
1885
1887
1888
1888
1888
1890
1890
1890
1891
1891
1893
1893
1893
1891
1893
1893
1891
1891
1895
1893
1893
1896
1893
1896
1895
1893
1893
1893
1893
1893
1891
1890
1891
1893
1899
1890
1893
1891
1893
1898
1893
1891
1893
1893
1893
1893
1895
1893
1895
1895
1891
1893
1893
1891
1893
1895
1895
1893
1895
1893
1896
1893
1893
1895
1893
1893
1893
1893
1893
1893
1893
1893
1893
1893
1891
1893
1898
1895
1893
1893
1895
1901
1895
1893
1893
1893
1896
1893
1896
1895
1896
1896
1893
1893
1895
1893
1895
1896
1895
1895
1896
1895
1893
1893
1895
1893
1891
1895
1895
1895
1895
1893
1895
1896
1896
1898
1895
1899
1903
1898
1898
1896
1899
1904
1899
1899
1898
1899
1901
1899
1899
1899
1901
1904
1899
1901
1899
1901
1899
1899
1898
1899
1899
1901
1901
1901
1901
1905
1901
1901
1899
1899
1898
1899
1898
1899
1899
1899
1895
1896
1896
1896
1899
1896
1898
1905
1896
1898
1895
1896
1899
1893
1893
1891
1891
1893
1890
1891
1890
1893
1893
1893
1891
1893
1895
1895
1893
1893
1893
1893
1891
1888
1888
1888
1888
1887
1888
1888
1888
1888
1888
1891
1891
1893
1890
1888
1891
1896
1888
1888
1887
1888
1890
1887
1887
1887
1887
1887
1882
1875
1870
1866
1859
1861
1858
1859
1858
1858
1856
1854
1848
1843
1843
1840
1833
1828
1827
1828
1837
1841
1849
1846
1848
1848
1849
1856
1859
1864
1867
1870
1874
1875
1878
1880
1888
1883
1882
1882
1878
1880
1882
1882
1880
1880
1878
1880
1878
1875
1880
1882
1880
1880
1878
1880
1883
1882
1878
1880
1880
1882
1880
1878
1877
1880
1882
1880
1878
1875
1875
1877
1875
1875
1875
1875
1874
1875
1869
1875
1874
1874
1874
1867
1874
1874
1875
1875
1872
1874
1870
1872
1872
1867
1872
1872
1869
1869
1870
1867
1867
1867
1866
1864
1862
1862
1862
1862
1862
1862
1861
1859
1858
1858
1854
1856
1853
1854
1851
1849
1843
1848
1846
1845
1843
1837
1845
1841
1841
1841
1837
1840
1837
1837
1837
1837
1837
1835
1835
1833
1837
1837
1837
1840
1841
1841
1841
1841
1845
1846
1848
1849
1848
1854
1854
1859
1859
1861
1862
1862
1867
1867
1870
1874
1872
1874
1872
1867
1875
1878
1875
1878
1874
1880
1878
1875
1880
1880
1878
1880
1878
1880
1880
1882
1880
1880
1880
1883
1883
1882
1882
1885
1882
1882
1882
1882
1880
1882
1882
1883
1883
1885
1885
1883
1882
1882
1880
1880
1880
1874
1883
1883
1883
1887
1893
1887
1887
1882
1885
1885
1880
1880
1880
1882
1880
1880
1880
1878
1880
1882
1882
1887
1880
1882
1885
1883
1880
1880
1878
1882
1880
1880
1882
1882
1883
1882
1885
1883
1885
1887
1887
1893
1887
1887
1885
1887
1890
1887
1885
1882
1883
1888
1887
1888
1888
1888
1888
1888
1888
1887
1888
1888
1888
1893
1893
1893
1891
1893
1893
1896
1896
1896
1896
1899
1899
1899
1901
1903
1901
1899
1899
1896
1898
1898
1891
1891
1888
1888
1895
1888
1891
1893
1893
1896
1893
1893
1891
1891
1893
1891
1888
1888
1888
1888
1887
1888
1887
1888
1885
1887
1885
1887
1887
1887
1887
1887
1885
1887
1883
1883
1885
1883
1885
1883
1885
1883
1883
1882
1880
1882
1888
1882
1883
1882
1883
1888
1882
1880
1880
1880
1875
1875
1875
1874
1874
1874
1872
1869
1866
1861
1856
1854
1853
1856
1856
1858
1861
1864
1862
1861
1858
1849
1841
1843
1845
1843
1843
1848
1846
1841
1841
1841
1841
1841
1845
1849
1856
1853
1862
1867
1869
1870
1869
1874
1874
1875
1875
1875
1875
1878
1875
1875
1875
1875
1875
1875
1878
1882
1880
1880
1878
1878
1880
1880
1875
1875
1880
1883
1880
1880
1880
1880
1880
1882
1880
1880
1880
1880
1882
1875
1885
1883
1880
1883
1880
1882
1880
1877
1880
1878
1880
1883
1878
1880
1883
1880
1878
1878
1878
1880
1878
1878
1874
1878
1878
1877
1875
1874
1872
1872
1874
1870
1869
1867
1869
1870
1870
1867
1867
1867
1866
1862
1864
1862
1862
1862
1854
1858
1858
1854
1851
1849
1853
1853
1853
1854
1849
1849
1849
1848
1848
1848
1848
1848
1848
1848
1849
1849
1851
1856
1858
1859
1861
1861
1867
1867
1870
1874
1875
1880
1880
1880
1882
1887
1887
1888
1888
1893
1899
1893
1895
1893
1898
1904
1899
1899
1899
1898
1898
1901
1901
1901
1899
1901
1904
1904
1901
1904
1903
1901
1901
1901
1901
1901
1901
1901
1901
1901
1899
1901
1901
1901
1904
1901
1903
1905
1901
1905
1901
1905
1911
1905
1905
1904
1904
1907
1901
1904
1901
1901
1904
1904
1903
1901
1901
1903
1901
1899
1898
1899
1896
1899
1901
1898
1899
1899
1899
1901
1898
1899
1898
1901
1901
1899
1901
1901
1901
1899
1901
1901
1899
1899
1904
1901
1899
1898
1898
1904
1899
1899
1899
1899
1903
1901
1901
1899
1901
1899
1901
1903
1904
1905
1905
1907
1907
1905
1905
1905
1904
1905
1907
1909
1907
1909
1909
1909
1909
1909
1912
1914
1917
1916
1911
1911
1905
1905
1905
1903
1904
1909
1899
1901
1899
1899
1904
1898
1899
1901
1901
1901
1899
1899
1896
1896
1896
1896
1896
1896
1896
1895
1898
1896
1895
1896
1896
1898
1898
1896
1898
1895
1899
1899
1898
1898
1895
1896
1896
1896
1895
1895
1896
1901
1895
1896
1893
1898
1901
1899
1899
1895
1896
1898
1895
1893
1891
1893
1893
1893
1893
1893
1891
1887
1880
1877
1875
1874
1872
1870
1872
1874
1872
1874
1867
1858
1858
1854
1853
1848
1848
1848
1853
1859
1861
1861
1858
1858
1859
1862
1862
1872
1875
1878
1883
1893
1887
1890
1890
1891
1895
1893
1893
1893
1895
1896
1896
1896
1895
1895
1891
1895
1893
1893
1896
1896
1895
1893
1893
1895
1891
1895
1895
1893
1893
1895
1893
1896
1895
1895
1895
1893
1899
1893
1891
1890
1891
1896
1890
1891
1888
1891
1891
1890
1890
1888
1888
1888
1888
1891
1888
1888
1888
1891
1888
1887
1888
1888
1885
1885
1885
1882
1882
1883
1883
1882
1885
1882
1882
1880
1882
1880
1875
1878
1875
1875
1875
1875
1877
1867
1874
1870
1870
1867
1866
1867
1866
1864
1862
1861
1859
1861
1859
1861
1858
1858
1856
1854
1853
1853
1849
1849
1849
1854
1854
1854
1859
1861
1862
1867
1867
1867
1870
1874
1874
1875
1875
1880
1880
1882
1880
1891
1885
1887
1885
1887
1893
1888
1890
1891
1893
1893
1890
1891
1891
1893
1896
1895
1895
1893
1895
1893
1896
1895
1893
1895
1895
1893
1893
1893
1891
1891
1893
1893
1895
1893
1888
1893
1891
1893
1891
1891
1891
1898
1891
1893
1891
1893
1898
1888
1891
1888
1888
1891
1888
1888
1888
1893
1891
1893
1891
1891
1893
1890
1893
1893
1893
1893
1891
1891
1891
1893
1895
1893
1896
1893
1893
1893
1893
1893
1891
1893
1893
1893
1895
1896
1893
1893
1893
1895
1898
1893
1893
1893
1893
1901
1895
1896
1896
1895
1899
1898
1899
1898
1896
1899
1898
1899
1896
1898
1896
1896
1895
1898
1899
1899
1899
1901
1901
1901
1901
1903
1904
1904
1904
1901
1904
1904
1905
1905
1904
1905
1912
1907
1907
1907
1904
1909
1901
1904
1901
1904
1901
1899
1899
1901
1901
1899
1896
1899
1899
1901
1901
1901
1901
1901
1899
1899
1898
1899
1895
1896
1896
1899
1898
1899
1899
1896
1895
1896
1893
1893
1891
1893
1901
1896
1893
1893
1895
1899
1891
1895
1891
1891
1893
1893
1891
1891
1893
1893
1891
1890
1888
1891
1888
1891
1888
1887
1887
1885
1887
1887
1888
1890
1888
1888
1882
1874
1869
1867
1864
1862
1862
1859
1861
1861
1856
1848
1841
1840
1835
1824
1827
1828
1832
1841
1841
1849
1848
1848
1849
1854
1862
1870
1872
1875
1875
1882
1882
1880
1883
1882
1880
1883
1883
1882
1885
1885
1885
1882
1885
1882
1883
1887
1882
1882
1880
1882
1882
1882
1883
1882
1880
1888
1880
1882
1880
1882
1875
1880
1882
1880
1882
1880
1882
1882
1877
1880
1882
1883
1880
1880
1880
1882
1882
1887
1880
1880
1880
1878
1875
1875
1875
1878
1878
1874
1875
1880
1880
1878
1878
1880
1880
1875
1878
1880
1875
1874
1872
1867
1862
1867
1866
1867
1867
1866
1867
1867
1867
1867
1862
1862
1862
1861
1861
1861
1859
1858
1858
1858
1858
1858
1858
1856
1854
1854
1849
1848
1848
1846
1848
1848
1849
1854
1853
1853
1851
1854
1854
1856
1861
1862
1859
1867
1870
1872
1875
1870
1875
1878
1878
1880
1882
1880
1883
1882
1887
1888
1888
1888
1888
1891
1891
1891
1891
1891
1893
1893
1891
1891
1890
1893
1893
1891
1893
1893
1895
1891
1895
1896
1896
1896
1891
1893
1899
1891
1891
1888
1891
1899
1891
1893
1888
1893
1891
1891
1890
1888
1888
1890
1888
1891
1888
1890
1888
1893
1893
1891
1891
1888
1888
1888
1887
1888
1887
1888
1888
1888
1890
1891
1893
1893
1893
1896
1895
1895
1895
1895
1890
1888
1888
1895
1888
1888
1887
1888
1896
1890
1890
1888
1891
1890
1888
1891
1888
1888
1888
1888
1888
1890
1891
1893
1893
1891
1888
1893
1891
1893
1893
1893
1893
1891
1893
1895
1895
1893
1891
1891
1888
1891
1888
1888
1887
1893
1891
1891
1891
1893
1899
1893
1896
1893
1893
1898
1895
1896
1896
1899
1898
1896
1893
1893
1893
1890
1893
1893
1891
1891
1890
1888
1888
1887
1888
1888
1891
1893
1891
1893
1887
1888
1887
1882
1885
1883
1887
1891
1885
1885
1883
1885
1891
1887
1888
1888
1888
1891
1887
1887
1885
1887
1887
1887
1885
1882
1883
1887
1885
1887
1885
1887
1887
1885
1887
1887
1887
1887
1885
1887
1888
1888
1887
1887
1885
1883
1883
1885
1888
1887
1880
1875
1872
1867
1859
1867
1866
1867
1869
1867
1872
1869
1867
1861
1854
1848
1845
1841
1837
1840
1846
1848
1846
1848
1848
1849
1853
1858
1862
1867
1869
1870
1872
1875
1877
1880
1880
1880
1880
1882
1883
1882
1885
1883
1883
1887
1893
1888
1887
1888
1887
1891
1885
1887
1885
1887
1887
1888
1888
1885
1887
1887
1887
1885
1882
1882
1885
1883
1885
1882
1885
1883
1883
1887
1883
1883
1882
1883
1882
1880
1883
1882
1885
1885
1883
1882
1882
1880
1880
1882
1882
1875
1877
1874
1878
1880
1875
1875
1875
1877
1875
1874
1875
1875
1875
1875
1870
1870
1870
1870
1870
1869
1870
1870
1870
1867
1867
1867
1866
1866
1862
1862
1861
1861
1861
1858
1858
1858
1862
1858
1856
1854
1853
1854
1856
1849
1854
1854
1854
1858
1853
1858
1858
1861
1861
1861
1862
1866
1869
1870
1870
1874
1874
1877
1875
1880
1880
1883
1887
1891
1888
1891
1890
1893
1893
1890
1893
1891
1891
1893
1891
1893
1895
1893
1893
1891
1893
1899
1896
1899
1898
1899
1905
1899
1899
1895
1896
1899
1896
1899
1898
1898
1899
1898
1896
1896
1895
1893
1895
1893
1893
1895
1891
1893
1893
1893
1893
1893
1893
1895
1895
1896
1893
1893
1891
1893
1893
1893
1895
1896
1896
1895
1891
1896
1901
1895
1893
1890
1891
1901
1893
1893
1891
1893
1895
1893
1893
1893
1893
1893
1893
1893
1893
1895
1893
1896
1898
1899
1899
1896
1899
1899
1898
1899
1896
1896
1896
1896
1896
1896
1898
1899
1899
1899
1898
1901
1905
1901
1901
1901
1901
1904
1899
1899
1899
1901
1905
1904
1905
1905
1905
1904
1901
1901
1901
1901
1899
1901
1901
1901
1904
1904
1905
1905
1904
1904
1901
1903
1901
1904
1904
1905
1907
1905
1907
1909
1909
1912
1916
1912
1911
1909
1907
1912
1904
1901
1899
1899
1905
1899
1899
1898
1899
1899
1899
1899
1898
1901
1901
1899
1898
1896
1893
1893
1891
1891
1891
1893
1895
1893
1893
1893
1891
1888
1888
1888
1891
1893
1893
1893
1895
1891
1893
1890
1891
1893
1887
1887
1888
1888
1893
1888
1888
1888
1887
1880
1880
1880
1880
1885
1885
1883
1880
1880
1880
1882
1883
1887
1880
1880
1875
1867
1866
1862
1862
1867
1867
1870
1870
1874
1867
1859
1854
1848
1837
1835
1827
1822
1825
1831
1837
1837
1831
1837
1837
1841
1849
1854
1862
1867
1872
1875
1874
1875
1875
1880
1880
1882
1878
1880
1880
1880
1882
1880
1880
1880
1882
1883
1882
1875
1880
1880
1880
1882
1885
1880
1880
1880
1878
1880
1882
1880
1875
1878
1872
1880
1878
1878
1878
1875
1878
1880
1878
1880
1878
1878
1875
1875
1877
1880
1880
1878
1875
1878
1880
1875
1875
1872
1874
1875
1872
1872
1874
1874
1872
1872
1870
1870
1870
1866
1867
1867
1866
1866
1867
1867
1859
1867
1867
1867
1867
1861
1866
1864
1867
1866
1861
1861
1859
1861
1858
1856
1854
1853
1854
1854
1849
1849
1846
1848
1846
1846
1846
1848
1846
1846
1846
1846
1840
1843
1843
1845
1845
1848
1846
1849
1853
1853
1854
1861
1859
1861
1859
1854
1862
1867
1869
1869
1870
1872
1872
1875
1875
1875
1878
1880
1878
1878
1880
1878
1875
1874
1874
1880
1880
1880
1880
1880
1878
1875
1875
1874
1875
1880
1877
1880
1878
1878
1878
1880
1878
1878
1878
1875
1880
1874
1878
1880
1875
1880
1874
1880
1878
1878
1880
1880
1878
1880
1877
1880
1882
1883
1880
1878
1880
1882
1880
1880
1880
1880
1878
1880
1878
1878
1880
1880
1880
1882
1878
1880
1880
1880
1878
1880
1878
1875
1880
1874
1880
1880
1875
1880
1874
1882
1880
1878
1882
1880
1880
1880
1878
1880
1887
1883
1880
1882
1880
1883
1883
1883
1882
1882
1882
1880
1880
1883
1885
1882
1883
1882
1885
1887
1885
1887
1887
1887
1887
1882
1887
1888
1887
1887
1887
1891
1898
1890
1893
1891
1893
1896
1888
1888
1888
1893
1893
1893
1893
1895
1895
1896
1893
1895
1898
1898
1896
1899
1898
1896
1898
1899
1901
1899
1899
1905
1901
1901
1899
1896
1898
1895
1896
1895
1891
1893
1888
1888
1895
1887
1887
1887
1888
1893
1887
1887
1887
1887
1885
1887
1887
1883
1883
1885
1882
1882
1880
1880
1880
1882
1882
1880
1882
1880
1882
1883
1880
1880
1883
1880
1880
1882
1880
1880
1878
1878
1877
1880
1877
1878
1877
1883
1878
1875
1875
1869
1875
1874
1874
1874
1874
1872
1870
1870
1872
1872
1874
1875
1872
1867
1862
1861
1858
1858
1861
1861
1864
1866
1867
1862
1861
1856
1848
1841
1835
1828
1824
1827
1832
1835
1835
1837
1837
1840
1841
1849
1853
1854
1862
1867
1870
1874
1870
1875
1875
1878
1875
1875
1878
1878
1875
1878
1878
1875
1877
1875
1878
1882
1877
1880
1880
1882
1882
1880
1880
1877
1880
1883
1878
1880
1880
1880
1880
1882
1880
1880
1878
1874
1878
1874
1878
1878
1875
1882
1875
1880
1880
1875
1878
1878
1880
1878
1874
1877
1875
1875
1874
1875
1875
1874
1875
1872
1875
1875
1875
1874
1874
1875
1874
1875
1874
1867
1872
1870
1874
1870
1870
1869
1867
1867
1867
1867
1867
1867
1867
1862
1859
1861
1859
1861
1861
1854
1858
1858
1854
1858
1854
1854
1854
1854
1853
1854
1849
1849
1849
1848
1849
1849
1849
1853
1853
1854
1856
1858
1862
1861
1862
1866
1864
1869
1870
1874
1872
1874
1874
1875
1878
1880
1888
1883
1887
1887
1888
1893
1888
1888
1887
1888
1888
1888
1888
1888
1888
1891
1888
1888
1888
1891
1891
1888
1890
1888
1888
1887
1887
1888
1888
1888
1887
1888
1888
1888
1890
1893
1893
1893
1893
1893
1891
1891
1895
1888
1888
1887
1888
1895
1887
1888
1885
1887
1887
1885
1887
1887
1888
1888
1888
1887
1885
1887
1887
1888
1888
1888
1888
1888
1888
1888
1888
1891
1888
1893
1890
1891
1890
1890
1890
1891
1888
1888
1887
1887
1887
1887
1888
1887
1888
1896
1888
1888
1887
1888
1893
1887
1888
1887
1885
1887
1887
1887
1885
1888
1888
1888
1887
1887
1885
1885
1885
1887
1885
1885
1887
1888
1888
1887
1888
1887
1888
1887
1888
1888
1887
1888
1887
1888
1887
1888
1888
1893
1888
1887
1885
1887
1891
1882
1887
1882
1885
1888
1887
1887
1887
1887
1888
1888
1891
1890
1891
1893
1891
1893
1893
1893
1891
1893
1893
1893
1895
1893
1896
1901
1901
1901
1901
1901
1901
1899
1898
1896
1896
1899
1891
1893
1891
1890
1896
1888
1888
1888
1891
1895
1890
1891
1887
1888
1887
1885
1887
1883
1885
1885
1885
1887
1883
1883
1883
1883
1880
1880
1880
1882
1882
1880
1880
1883
1883
1882
1887
1887
1888
1885
1887
1887
1885
1882
1880
1883
1875
1882
1880
1880
1882
1888
1883
1882
1883
1883
1887
1882
1882
1878
1880
1883
1882
1880
1874
1874
1870
1867
1869
1870
1874
1874
1874
1874
1872
1867
1867
1859
1854
1843
1835
1831
1828
1835
1841
1843
1843
1841
1837
1848
1854
1858
1861
1861
1872
1872
1875
1875
1875
1878
1882
1883
1882
1885
1883
1882
1883
1883
1883
1887
1887
1887
1887
1888
1887
1887
1885
1887
1885
1887
1887
1887
1885
1887
1887
1888
1885
1887
1883
1887
1887
1885
1885
1882
1887
1891
1887
1888
1888
1888
1893
1887
1885
1887
1887
1887
1885
1887
1887
1888
1888
1887
1887
1882
1885
1883
1883
1883
1885
1885
1887
1885
1885
1883
1887
1882
1883
1883
1883
1887
1882
1882
1880
1880
1880
1875
1875
1870
1875
1875
1875
1875
1872
1875
1874
1874
1870
1867
1869
1869
1872
1874
1869
1867
1867
1867
1862
1862
1861
1859
1859
1858
1858
1858
1858
1861
1858
1859
1858
1858
1859
1859
1862
1862
1866
1867
1867
1869
1870
1870
1875
1875
1875
1878
1874
1880
1882
1885
1888
1891
1891
1891
1891
1895
1898
1899
1898
1898
1899
1899
1899
1899
1898
1899
1898
1899
1898
1899
1899
1896
1898
1898
1899
1901
1899
1899
1899
1899
1898
1898
1899
1899
1898
1899
1895
1896
1901
1896
1896
1893
1895
1901
1895
1896
1895
1896
1896
1896
1896
1896
1896
1899
1895
1899
1898
1899
1895
1895
1895
1896
1896
1895
1896
1896
1895
1896
1893
1893
1895
1893
1896
1893
1895
1896
1895
1898
1896
1899
1905
1899
1899
1896
1893
1899
1893
1893
1891
1893
1896
1893
1895
1893
1895
1893
1893
1893
1891
1890
1888
1888
1888
1888
1891
1893
1890
1891
1888
1888
1888
1888
1887
1887
1888
1888
1890
1893
1888
1890
1888
1893
1893
1893
1891
1893
1893
1899
1891
1893
1891
1893
1899
1893
1893
1891
1895
1895
1895
1895
1895
1899
1899
1901
1901
1901
1901
1901
1896
1893
1888
1888
1888
1895
1898
1899
1899
1898
1898
1899
1896
1896
1898
1901
1901
1901
1904
1904
1905
1911
1904
1903
1901
1901
1907
1901
1901
1899
1898
1899
1899
1899
1901
1904
1909
1912
1917
1922
1920
1914
1909
1899
1885
1880
1880
1880
1882
1887
1888
1888
1891
1893
1893
1895
1891
1893
1895
1893
1893
1895
1895
1899
1893
1895
1895
1893
1899
1893
1891
1888
1893
1896
1893
1895
1893
1896
1896
1896
1899
1899
1896
1898
1898
1895
1893
1891
1891
1893
1895
1893
1888
1880
1878
1875
1875
1875
1877
1878
1878
1880
1880
1878
1874
1869
1866
1858
1848
1841
1835
1841
1846
1853
1854
1846
1849
1849
1856
1861
1866
1874
1877
1880
1885
1888
1888
1891
1891
1893
1891
1891
1893
1893
1893
1891
1893
1893
1891
1893
1891
1893
1893
1893
1891
1891
1891
1893
1893
1893
1890
1891
1898
1890
1891
1888
1893
1895
1891
1893
1888
1891
1891
1893
1893
1893
1893
1893
1893
1893
1888
1888
1888
1887
1888
1888
1888
1888
1885
1885
1885
1887
1883
1887
1887
1888
1888
1887
1887
1888
1888
1888
1887
1888
1891
1887
1888
1887
1887
1891
1883
1882
1882
1883
1887
1880
1882
1882
1880
1880
1880
1877
1874
1875
1878
1878
1875
1874
1872
1874
1874
1870
1870
1872
1869
1867
1867
1867
1862
1862
1862
1862
1862
1862
1866
1864
1866
1867
1866
1867
1866
1861
1870
1870
1872
1874
1870
1875
1875
1880
1878
1883
1883
1887
1885
1887
1888
1888
1888
1890
1893
1893
1891
1893
1893
1893
1891
1893
1893
1893
1893
1891
1895
1895
1895
1895
1893
1893
1895
1893
1895
1893
1895
1901
1895
1896
1896
1896
1901
1895
1895
1893
1893
1896
1891
1895
1893
1893
1896
1893
1893
1893
1895
1893
1895
1893
1893
1893
1891
1893
1893
1893
1893
1893
1896
1893
1893
1893
1891
1896
1895
1895
1896
1893
1896
1896
1898
1896
1893
1896
1901
1893
1896
1893
1896
1901
1898
1898
1895
1896
1898
1896
1896
1893
1895
1896
1895
1895
1893
1896
1895
1893
1893
1893
1893
1891
1893
1893
1893
1893
1893
1893
1895
1893
1893
1893
1895
1896
1896
1899
1896
1899
1903
1899
1898
1896
1896
1901
1896
1896
1891
1893
1895
1896
1898
1896
1896
1899
1896
1899
1898
1898
1899
1901
1901
1901
1899
1901
1901
1904
1901
1901
1898
1899
1899
1899
1901
1898
1903
1905
1905
1907
1905
1907
1909
1904
1904
1901
1904
1905
1899
1898
1896
1896
1898
1898
1899
1899
1898
1899
1898
1898
1895
1895
1893
1891
1895
1893
1896
1896
1895
1895
1896
1896
1895
1896
1895
1898
1898
1898
1901
1901
1899
1901
1899
1901
1901
1899
1898
1896
1899
1905
1898
1898
1896
1896
1901
1896
1898
1893
1895
1895
1891
1893
1888
1888
1885
1887
1887
1888
1887
1882
1880
1875
1874
1870
1870
1874
1874
1875
1878
1880
1875
1874
1867
1862
1858
1848
1841
1841
1841
1846
1851
1848
1853
1849
1853
1854
1856
1867
1874
1877
1880
1885
1887
1888
1888
1888
1890
1890
1891
1893
1891
1891
1895
1893
1891
1893
1893
1893
1893
1893
1893
1893
1895
1895
1891
1893
1891
1893
1893
1895
1895
1896
1898
1899
1896
1893
1893
1893
1899
1896
1893
1893
1891
1898
1891
1893
1891
1891
1893
1893
1895
1896
1895
1896
1895
1893
1893
1893
1890
1891
1888
1887
1887
1887
1888
1888
1887
1887
1883
1887
1885
1885
1888
1887
1887
1885
1882
1880
1877
1880
1872
1880
1880
1875
1877
1874
1875
1874
1872
1874
1874
1875
1872
1875
1872
1867
1867
1867
1866
1862
1862
1862
1862
1861
1859
1861
1859
1861
1861
1861
1859
1859
1858
1861
1861
1862
1861
1862
1862
1867
1870
1874
1870
1877
1877
1877
1880
1891
1887
1887
1885
1888
1891
1893
1893
1893
1893
1898
1896
1898
1895
1899
1898
1898
1899
1899
1899
1899
1898
1901
1901
1904
1901
1901
1901
1901
1903
1901
1904
1904
1904
1905
1904
1905
1905
1905
1904
1904
1904
1909
1904
1904
1901
1899
1905
1901
1899
1901
1901
1901
1901
1901
1899
1901
1901
1899
1899
1899
1899
1901
1898
1901
1901
1905
1904
1905
1904
1901
1901
1898
1895
1895
1895
1895
1895
1899
1898
1898
1898
1893
1893
1898
1891
1890
1888
1891
1898
1893
1895
1895
1899
1899
1899
1899
1896
1899
1899
1899
1899
1895
1898
1898
1899
1899
1896
1896
1893
1893
1895
1896
1898
1893
1896
1899
1896
1896
1896
1895
1895
1896
1895
1895
1895
1901
1895
1895
1895
1893
1901
1893
1893
1893
1896
1901
1893
1895
1895
1896
1898
1896
1896
1896
1898
1896
1896
1899
1898
1899
1901
1899
1899
1899
1899
1898
1899
1901
1898
1899
1899
1901
1901
1901
1904
1905
1909
1905
1904
1901
1898
1904
1909
1905
1905
1904
1901
1905
1898
1898
1898
1899
1901
1901
1899
1899
1898
1899
1898
1896
1895
1895
1893
1893
1893
1891
1893
1893
1895
1893
1893
1893
1893
1893
1895
1893
1891
1891
1891
1893
1891
1891
1888
1893
1898
1891
1891
1888
1890
1896
1888
1888
1887
1888
1888
1888
1887
1887
1883
1882
1883
1883
1880
1882
1883
1883
1882
1875
1872
1870
1867
1869
1867
1870
1874
1874
1870
1874
1867
1867
1861
1854
1849
1848
1845
1845
1848
1854
1854
1854
1849
1841
1848
1853
1854
1861
1859
1867
1870
1875
1877
1882
1880
1882
1883
1885
1887
1888
1887
1887
1887
1887
1885
1885
1883
1882
1883
1883
1883
1883
1882
1880
1877
1880
1878
1880
1878
1880
1880
1880
1880
1878
1880
1875
1883
1883
1878
1880
1875
1880
1878
1878
1882
1887
1882
1883
1882
1880
1878
1880
1878
1878
1878
1878
1878
1880
1875
1880
1878
1878
1875
1874
1874
1875
1874
1872
1874
1874
1874
1870
1870
1869
1869
1869
1869
1862
1866
1867
1866
1862
1858
1862
1861
1862
1862
1861
1861
1861
1859
1859
1858
1858
1856
1854
1854
1854
1853
1851
1849
1849
1849
1846
1846
1846
1845
1846
1843
1841
1843
1843
1846
1845
1846
1848
1848
1849
1849
1849
1853
1856
1859
1861
1858
1867
1867
1867
1870
1869
1875
1875
1875
1880
1880
1882
1882
1880
1883
1885
1887
1887
1887
1888
1887
1888
1887
1887
1888
1888
1888
1888
1888
1888
1887
1887
1880
1880
1880
1880
1883
1887
1887
1885
1885
1887
1888
1883
1883
1880
1882
1888
1883
1887
1883
1883
1885
1882
1882
1882
1880
1880
1880
1880
1880
1883
1885
1885
1883
1883
1885
1883
1878
1878
1875
1878
1875
1875
1872
1877
1875
1880
1880
1880
1878
1878
1880
1882
1885
1882
1885
1882
1885
1888
1883
1883
1883
1882
1888
1880
1880
1880
1882
1880
1878
1880
1875
1880
1882
1880
1880
1880
1885
1882
1883
1883
1883
1882
1882
1880
1882
1882
1885
1883
1883
1882
1880
1880
1880
1880
1878
1880
1882
1880
1882
1875
1880
1880
1874
1878
1875
1883
1882
1882
1883
1885
1883
1885
1883
1882
1885
1882
1882
1883
1882
1883
1883
1887
1887
1891
1893
1896
1896
1895
1893
1887
1885
1882
1880
1880
1882
1880
1878
1880
1880
1875
1878
1875
1882
1882
1878
1883
1875
1880
1877
1874
1875
1874
1874
1874
1872
1874
1874
1874
1872
1872
1872
1874
1870
1869
1869
1870
1872
1874
1872
1874
1874
1875
1872
1870
1872
1874
1875
1878
1875
1875
1875
1875
1875
1875
1875
1875
1874
1874
1867
1872
1869
1867
1867
1862
1870
1869
1869
1862
1858
1856
1853
1854
1854
1858
1859
1862
1867
1874
1874
1869
1862
1853
1849
1848
1848
1848
1848
1843
1840
1832
1831
1831
1833
1837
1841
1849
1853
1856
1858
1861
1856
1867
1867
1872
1872
1867
1872
1874
1874
1872
1870
1874
1872
1874
1870
1867
1870
1874
1870
1870
1870
1872
1874
1875
1875
1874
1874
1874
1872
1874
1872
1874
1867
1874
1872
1874
1870
1870
1874
1874
1872
1870
1874
1875
1875
1878
1875
1867
1874
1874
1874
1874
1870
1870
1870
1872
1870
1870
1872
1874
1874
1874
1874
1874
1870
1869
1870
1867
1866
1867
1864
1862
1862
1864
1862
1862
1864
1867
1867
1867
1866
1861
1861
1861
1858
1854
1851
1849
1848
1843
1848
1848
1849
1849
1845
1849
1848
1848
1843
1841
1845
1843
1845
1843
1843
1843
1841
1841
1840
1841
1841
1843
1848
1849
1849
1854
1853
1854
1856
1862
1862
1862
1866
1866
1867
1867
1869
1874
1874
1878
1875
1874
1880
1880
1878
1880
1877
1882
1882
1878
1883
1887
1883
1883
1882
1880
1887
1887
1883
1883
1883
1883
1887
1887
1883
1887
1885
1887
1885
1887
1888
1887
1887
1888
1888
1888
1885
1888
1888
1888
1888
1887
1888
1891
1888
1888
1885
1888
1893
1888
1888
1888
1891
1895
1891
1890
1891
1890
1893
1891
1893
1893
1895
1896
1893
1893
1891
1888
1888
1888
1891
1888
1891
1893
1893
1893
1890
1891
1888
1891
1890
1890
1891
1891
1891
1893
1891
1893
1893
1896
1901
1896
1895
1893
1893
1899
1893
1896
1895
1896
1899
1896
1896
1893
1893
1893
1891
1895
1891
1891
1891
1893
1893
1893
1895
1893
1893
1899
1898
1899
1896
1899
1899
1901
1901
1899
1903
1901
1903
1905
1904
1905
1911
1905
1905
1904
1903
1907
1901
1901
1898
1899
1901
1898
1896
1896
1896
1899
1896
1899
1898
1899
1898
1898
1898
1895
1895
1896
1896
1895
1895
1898
1896
1896
1895
1896
1896
1893
1895
1893
1893
1893
1893
1893
1893
1890
1890
1888
1893
1898
1890
1888
1888
1891
1895
1891
1893
1891
1893
1893
1890
1891
1888
1888
1888
1890
1890
1888
1888
1888
1888
1887
1885
1882
1883
1885
1887
1883
1880
1875
1870
1870
1869
1867
1874
1872
1874
1875
1878
1874
1874
1862
1862
1856
1848
1843
1833
1841
1849
1848
1846
1848
1848
1849
1854
1859
1861
1869
1870
1874
1875
1880
1882
1880
1880
1883
1883
1882
1883
1887
1883
1882
1882
1882
1883
1887
1885
1887
1888
1888
1888
1887
1887
1885
1880
1880
1880
1882
1875
1883
1880
1878
1883
1888
1883
1887
1883
1883
1885
1882
1883
1883
1882
1880
1880
1880
1880
1880
1883
1880
1883
1883
1883
1882
1882
1882
1880
1880
1880
1880
1878
1875
1877
1880
1878
1875
1875
1874
1875
1877
1870
1878
1878
1875
1875
1874
1875
1875
1875
1874
1869
1870
1867
1870
1869
1864
1870
1866
1866
1862
1862
1861
1859
1861
1859
1861
1858
1854
1854
1856
1858
1854
1853
1856
1851
1854
1853
1854
1854
1854
1859
1861
1861
1862
1866
1867
1866
1862
1870
1867
1869
1867
1867
1870
1874
1880
1880
1883
1883
1882
1880
1880
1880
1883
1882
1885
1887
1888
1888
1888
1888
1888
1885
1888
1887
1887
1887
1887
1887
1887
1888
1893
1895
1901
1901
1901
1901
1893
1885
1878
1880
1878
1875
1880
1888
1887
1888
1887
1887
1887
1888
1888
1887
1888
1888
1888
1888
1888
1888
1888
1888
1893
1891
1888
1888
1887
1888
1887
1887
1882
1887
1887
1887
1888
1887
1887
1887
1888
1891
1888
1888
1896
1888
1891
1891
1893
1898
1891
1893
1893
1893
1893
1891
1893
1893
1891
1893
1888
1888
1888
1890
1888
1888
1888
1887
1888
1890
1891
1891
1891
1888
1888
1887
1887
1887
1888
1888
1893
1893
1893
1893
1888
1891
1895
1891
1893
1893
1895
1899
1893
1898
1899
1901
1905
1899
1899
1895
1896
1898
1896
1895
1896
1899
1901
1901
1905
1905
1905
1901
1899
1898
1896
1896
1899
1899
1896
1895
1896
1893
1896
1898
1896
1898
1896
1898
1895
1896
1896
1893
1893
1898
1893
1888
1887
1887
1891
1887
1888
1887
1887
1887
1888
1888
1887
1888
1888
1887
1885
1885
1887
1882
1883
1887
1887
1887
1887
1885
1888
1887
1887
1887
1888
1887
1885
1887
1882
1885
1887
1887
1887
1882
1882
1874
1880
1882
1882
1883
1875
1875
1870
1867
1862
1862
1866
1867
1867
1870
1866
1867
1867
1864
1861
1854
1849
1841
1838
1840
1843
1845
1843
1843
1841
1841
1843
1848
1854
1861
1866
1869
1874
1874
1875
1878
1877
1878
1880
1880
1882
1880
1875
1880
1880
1878
1878
1878
1883
1883
1882
1882
1880
1878
1878
1880
1880
1880
1883
1887
1883
1885
1887
1887
1887
1885
1883
1883
1880
1880
1880
1883
1880
1882
1880
1880
1882
1880
1882
1880
1883
1885
1880
1882
1875
1882
1880
1878
1880
1875
1880
1878
1878
1878
1878
1880
1880
1875
1878
1878
1877
1878
1875
1877
1880
1878
1878
1874
1874
1875
1875
1874
1874
1874
1874
1870
1866
1870
1870
1872
1870
1870
1867
1869
1867
1866
1862
1861
1861
1861
1859
1854
1861
1858
1858
1858
1854
1854
1856
1853
1853
1851
1853
1849
1854
1851
1853
1854
1861
1861
1866
1866
1869
1870
1874
1874
1875
1878
1880
1880
1882
1882
1883
1883
1883
1882
1878
1878
1883
1883
1883
1883
1888
1895
1891
1890
1888
1891
1899
1893
1893
1893
1895
1896
1896
1895
1891
1891
1891
1891
1893
1888
1891
1888
1888
1888
1887
1888
1887
1888
1887
1888
1888
1887
1893
1891
1893
1891
1890
1888
1888
1888
1888
1887
1887
1893
1888
1888
1888
1888
1895
1888
1893
1888
1893
1893
1893
1893
1893
1893
1893
1893
1893
1890
1891
1888
1890
1893
1890
1891
1888
1888
1891
1891
1893
1893
1893
1893
1893
1893
1891
1893
1893
1893
1893
1893
1893
1896
1893
1893
1891
1891
1899
1891
1891
1891
1895
1899
1895
1896
1896
1896
1899
1896
1895
1893
1893
1896
1895
1895
1893
1896
1893
1893
1895
1895
1896
1899
1901
1901
1901
1904
1904
1904
1905
1904
1909
1905
1909
1905
1905
1905
1905
1905
1914
1912
1914
1914
1912
1914
1905
1905
1905
1909
1909
1905
1905
1901
1901
1901
1901
1901
1901
1904
1904
1905
1904
1901
1901
1901
1901
1899
1901
1898
1899
1901
1901
1898
1901
1899
1901
1898
1898
1901
1899
1898
1904
1896
1899
1898
1901
1905
1901
1898
1896
1899
1899
1895
1895
1893
1893
1898
1896
1898
1895
1898
1896
1895
1895
1893
1893
1890
1891
1891
1891
1893
1891
1887
1883
1877
1875
1875
1875
1875
1875
1880
1880
1882
1880
1875
1869
1862
1861
1849
1853
1849
1858
1861
1859
1859
1861
1859
1862
1866
1874
1880
1883
1887
1893
1893
1896
1893
1896
1896
1898
1898
1899
1899
1896
1898
1899
1895
1898
1898
1899
1899
1899
1899
1899
1898
1901
1899
1899
1899
1901
1907
1901
1901
1901
1899
1904
1898
1898
1895
1896
1899
1896
1896
1895
1896
1899
1896
1896
1898
1899
1899
1899
1898
1899
1896
1896
1895
1893
1893
1893
1893
1893
1893
1895
1893
1893
1893
1893
1895
1893
1891
1891
1891
1887
1887
1887
1888
1893
1888
1888
1887
1885
1888
1883
1883
1882
1882
1880
1880
1880
1875
1877
1877
1875
1874
1874
1872
1874
1870
1870
1866
1866
1864
1862
1862
1862
1862
1862
1862
1862
1862
1861
1858
1858
1858
1859
1861
1861
1862
1858
1867
1866
1869
1867
1866
1870
1874
1874
1875
1875
1880
1882
1883
1885
1888
1888
1888
1893
1893
1893
1896
1896
1898
1899
1899
1899
1898
1899
1898
1895
1898
1898
1895
1895
1893
1893
1896
1893
1895
1893
1896
1901
1895
1895
1893
1893
1898
1893
1891
1891
1895
1893
1893
1895
1895
1896
1898
1896
1896
1893
1895
1893
1893
1893
1896
1895
1895
1895
1895
1893
1895
1893
1896
1896
1896
1899
1899
1899
1899
1899
1896
1896
1898
1899
1898
1899
1893
1896
1901
1896
1898
1896
1899
1904
1898
1899
1899
1899
1901
1901
1901
1901
1901
1901
1901
1901
1901
1901
1901
1901
1901
1901
1904
1905
1907
1905
1904
1904
1899
1901
1901
1901
1899
1899
1901
1898
1899
1896
1895
1898
1904
1899
1899
1899
1901
1905
1899
1901
1899
1903
1904
1904
1905
1904
1905
1905
1905
1907
1905
1909
1907
1907
1909
1909
1911
1912
1912
1914
1909
1907
1904
1905
1904
1901
1901
1898
1901
1901
1904
1904
1903
1905
1909
1904
1904
1901
1901
1907
1901
1899
1898
1896
1901
1898
1898
1895
1891
1895
1893
1895
1893
1896
1896
1899
1899
1899
1899
1898
1899
1898
1893
1893
1888
1887
1887
1887
1887
1887
1887
1888
1888
1887
1885
1887
1888
1888
1888
1885
1887
1891
1882
1882
1878
1882
1888
1880
1875
1870
1867
1861
1861
1861
1861
1861
1859
1862
1862
1862
1859
1856
1849
1846
1841
1841
1840
1841
1848
1848
1846
1845
1841
1843
1845
1853
1859
1861
1866
1870
1872
1874
1870
1866
1874
1875
1880
1880
1883
1880
1880
1878
1880
1878
1878
1880
1880
1880
1882
1880
1880
1878
1878
1878
1878
1880
1878
1882
1880
1880
1882
1877
1878
1882
1880
1874
1878
1880
1882
1882
1878
1880
1878
1878
1880
1880
1878
1877
1878
1880
1872
1880
1877
1874
1875
1874
1880
1880
1875
1880
1880
1880
1880
1875
1878
1880
1880
1880
1875
1877
1875
1875
1874
1874
1874
1874
1874
1875
1874
1872
1874
1870
1867
1867
1867
1869
1866
1864
1862
1861
1859
1858
1849
1858
1856
1858
1854
1849
1856
1854
1854
1856
1853
1849
1849
1849
1849
1849
1848
1849
1846
1849
1848
1849
1853
1854
1858
1859
1861
1862
1862
1862
1867
1867
1869
1870
1874
1875
1875
1877
1880
1880
1878
1883
1891
1887
1885
1888
1888
1896
1891
1893
1893
1893
1893
1891
1891
1893
1891
1893
1888
1888
1883
1888
1888
1888
1888
1888
1888
1888
1888
1888
1888
1890
1888
1890
1888
1887
1888
1887
1885
1887
1885
1887
1885
1888
1887
1887
1888
1887
1885
1893
1888
1888
1888
1888
1895
1888
1891
1888
1888
1888
1888
1888
1888
1888
1888
1888
1888
1887
1888
1890
1891
1893
1890
1893
1891
1893
1893
1893
1891
1891
1891
1893
1891
1893
1891
1893
1891
1893
1895
1893
1895
1901
1893
1893
1893
1895
1899
1893
1893
1891
1891
1893
1895
1895
1895
1896
1896
1895
1898
1899
1898
1896
1898
1896
1895
1896
1896
1896
1898
1896
1896
1896
1899
1901
1899
1901
1901
1901
1901
1901
1899
1899
1901
1905
1904
1904
1905
1909
1916
1909
1905
1901
1904
1907
1904
1901
1901
1901
1899
1899
1898
1899
1899
1901
1899
1899
1899
1899
1899
1899
1901
1898
1899
1899
1899
1899
1898
1896
1893
1896
1895
1896
1896
1893
1896
1896
1895
1896
1893
1896
1901
1899
1899
1898
1898
1903
1896
1898
1899
1899
1899
1899
1899
1899
1899
1901
1899
1901
1898
1899
1899
1896
1896
1893
1893
1896
1896
1891
1885
1880
1880
1875
1875
1874
1874
1875
1875
1880
1877
1875
1875
1869
1859
1861
1854
1849
1851
1849
1859
1861
1859
1858
1858
1862
1869
1875
1878
1880
1880
1883
1887
1888
1888
1893
1891
1893
1891
1895
1893
1893
1893
1896
1893
1896
1896
1896
1895
1893
1895
1895
1895
1896
1895
1899
1898
1899
1901
1898
1896
1903
1896
1896
1895
1896
1901
1895
1898
1896
1899
1899
1896
1899
1898
1896
1898
1898
1896
1899
1898
1898
1898
1896
1896
1893
1893
1896
1895
1898
1899
1893
1893
1893
1891
1893
1891
1893
1893
1891
1891
1888
1891
1895
1890
1888
1887
1888
1893
1887
1887
1887
1887
1887
1885
1883
1882
1880
1878
1880
1880
1875
1878
1878
1878
1875
1874
1875
1872
1874
1870
1869
1869
1870
1870
1866
1867
1869
1869
1866
1869
1867
1870
1874
1870
1874
1874
1875
1875
1880
1887
1880
1883
1882
1887
1891
1888
1890
1890
1893
1893
1893
1896
1899
1899
1901
1901
1901
1901
1901
1899
1901
1901
1901
1901
1901
1901
1901
1901
1901
1901
1905
1905
1904
1901
1899
1904
1905
1905
1907
1904
1905
1911
1905
1904
1904
1905
1909
1905
1905
1901
1901
1904
1901
1901
1901
1899
1898
1896
1899
1898
1898
1899
1899
1901
1901
1901
1901
1901
1903
1904
1905
1901
1904
1901
1901
1901
1901
1904
1905
1904
1904
1899
1901
1904
1901
1904
1901
1901
1907
1901
1901
1901
1899
1904
1901
1901
1901
1901
1905
1901
1904
1901
1904
1901
1901
1901
1901
1904
1903
1901
1901
1901
1901
1901
1904
1901
1904
1904
1901
1905
1905
1904
1905
1904
1905
1905
1903
1905
1905
1907
1911
1909
1909
1907
1909
1914
1909
1909
1907
1909
1909
1909
1914
1911
1914
1912
1912
1912
1916
1917
1918
1922
1922
1917
1917
1912
1912
1911
1907
1909
1907
1905
1904
1901
1903
1901
1905
1904
1905
1905
1904
1904
1909
1901
1905
1901
1901
1905
1899
1899
1899
1899
1901
1901
1901
1901
1901
1901
1899
1901
1899
1898
1899
1899
1899
1899
1899
1899
1899
1901
1901
1901
1901
1904
1903
1901
1901
1898
1901
1901
1901
1901
1899
1901
1907
1899
1899
1895
1899
1904
1901
1899
1893
1890
1888
1880
1880
1878
1880
1878
1882
1883
1882
1883
1882
1875
1870
1866
1861
1856
1856
1859
1862
1870
1874
1867
1867
1870
1875
1882
1882
1888
1893
1896
1899
1899
1901
1901
1901
1901
1901
1909
1905
1905
1905
1907
1909
1905
1905
1904
1904
1905
1905
1905
1905
1904
1903
1901
1904
1901
1904
1901
1905
1903
1901
1904
1903
1904
1905
1903
1901
1901
1903
1901
1901
1899
1899
1901
1901
1899
1901
1901
1901
1909
1901
1901
1901
1901
1907
1899
1898
1895
1899
1896
1896
1895
1891
1893
1893
1895
1893
1895
1893
1893
1895
1893
1893
1890
1888
1887
1887
1887
1887
1883
1887
1883
1882
1883
1882
1882
1880
1880
1880
1875
1878
1878
1875
1878
1875
1875
1874
1875
1875
1874
1874
1870
1874
1870
1874
1870
1867
1867
1869
1866
1867
1869
1874
1874
1875
1874
1875
1880
1880
1880
1882
1887
1887
1891
1893
1893
1893
1891
1893
1899
1896
1896
1899
1899
1898
1899
1899
1901
1909
1905
1905
1904
1905
1911
1905
1904
1905
1905
1905
1904
1903
1903
1905
1905
1903
1904
1905
1905
1905
1905
1905
1904
1907
1904
1907
1905
1909
1907
1905
1904
1905
1907
1907
1905
1905
1905
1905
1907
1907
1905
1914
1907
1907
1904
1909
1916
1911
1911
1909
1909
1911
1909
1909
1909
1909
1911
1909
1909
1905
1909
1907
1909
1909
1905
1907
1905
1909
1909
1909
1909
1907
1909
1909
1911
1909
1905
1907
1907
1907
1905
1905
1905
1907
1907
1907
1901
1907
1911
1905
1905
1905
1904
1912
1905
1907
1905
1907
1909
1909
1909
1909
1909
1911
1909
1912
1909
1909
1907
1909
1909
1911
1911
1914
1914
1914
1916
1914
1914
1912
1912
1914
1917
1917
1916
1917
1917
1917
1916
1918
1925
1924
1924
1920
1920
1920
1917
1914
1912
1914
1916
1914
1911
1911
1909
1912
1911
1912
1909
1909
1909
1911
1911
1909
1909
1909
1905
1901
1901
1901
1901
1901
1901
1903
1904
1901
1901
1901
1899
1899
1899
1901
1904
1899
1901
1899
1898
1905
1898
1896
1896
1899
1901
1896
1899
1895
1895
1893
1893
1895
1893
1896
1895
1893
1895
1893
1893
1891
1891
1893
1891
1890
1887
1883
1878
1874
1870
1867
1869
1869
1870
1874
1870
1867
1862
1858
1851
1849
1845
1837
1841
1846
1854
1859
1856
1856
1854
1853
1856
1861
1867
1870
1874
1878
1882
1882
1885
1887
1888
1888
1891
1891
1888
1888
1887
1887
1887
1887
1885
1882
1888
1888
1888
1888
1888
1888
1888
1891
1893
1890
1888
1896
1888
1890
1887
1888
1893
1888
1888
1887
1888
1891
1887
1887
1885
1888
1888
1891
1891
1891
1893
1893
1891
1888
1888
1887
1882
1882
1882
1883
1885
1885
1887
1887
1888
1885
1883
1888
1887
1885
1887
1882
1883
1882
1878
1875
1875
1875
1869
1875
1877
1874
1875
1874
1880
1877
1874
1874
1874
1869
1867
1869
1870
1866
1864
1862
1861
1861
1862
1861
1859
1861
1859
1861
1858
1858
1861
1861
1859
1858
1858
1858
1859
1859
1858
1856
1858
1861
1864
1867
1862
1870
1874
1875
1875
1869
1874
1875
1875
1880
1887
1887
1887
1887
1888
1893
1895
1893
1893
1895
1895
1893
1893
1893
1895
1896
1898
1899
1896
1899
1896
1896
1895
1893
1895
1893
1895
1896
1895
1898
1896
1898
1901
1895
1898
1895
1895
1899
1896
1896
1893
1893
1899
1893
1896
1899
1896
1899
1899
1899
1899
1899
1898
1899
1898
1896
1893
1893
1893
1896
1895
1896
1893
1891
1893
1893
1893
1891
1893
1893
1896
1896
1895
1896
1895
1893
1891
1893
1891
1898
1893
1893
1891
1896
1901
1896
1898
1898
1898
1899
1895
1891
1893
1893
1893
1893
1896
1893
1895
1893
1891
1893
1891
1896
1895
1896
1895
1893
1895
1893
1895
1893
1895
1896
1898
1899
1899
1899
1899
1896
1898
1904
1898
1899
1899
1899
1901
1893
1893
1893
1895
1898
1895
1896
1898
1901
1899
1899
1898
1895
1895
1899
1896
1898
1899
1903
1904
1905
1903
1901
1899
1898
1898
1899
1899
1901
1896
1896
1896
1896
1898
1899
1899
1901
1898
1899
1896
1896
1901
1893
1896
1893
1893
1899
1891
1891
1891
1891
1891
1888
1887
1888
1888
1891
1891
1888
1888
1890
1888
1891
1891
1893
1893
1891
1895
1895
1893
1893
1888
1888
1888
1887
1887
1887
1888
1888
1888
1888
1887
1888
1893
1883
1882
1883
1883
1890
1883
1880
1874
1872
1869
1870
1872
1875
1875
1875
1882
1887
1888
1888
1883
1875
1867
1862
1861
1861
1861
1861
1858
1854
1853
1849
1853
1856
1861
1862
1866
1870
1874
1875
1875
1883
1890
1888
1888
1888
1887
1891
1883
1887
1883
1887
1890
1891
1891
1888
1888
1888
1885
1887
1887
1888
1888
1888
1888
1891
1893
1893
1893
1891
1891
1893
1888
1891
1888
1888
1888
1888
1888
1888
1891
1891
1888
1888
1891
1891
1893
1893
1893
1899
1891
1893
1891
1893
1893
1888
1887
1885
1887
1888
1887
1888
1885
1887
1888
1887
1887
1887
1887
1885
1887
1887
1887
1887
1887
1887
1882
1880
1880
1880
1878
1878
1875
1875
1878
1875
1875
1875
1875
1872
1874
1866
1869
1867
1869
1867
1861
1867
1866
1867
1866
1866
1866
1867
1866
1862
1862
1862
1862
1862
1862
1862
1862
1867
1867
1869
1869
1870
1874
1874
1875
1880
1882
1878
1885
1887
1888
1891
1893
1893
1896
1896
1898
1903
1899
1901
1898
1901
1905
1901
1904
1904
1904
1909
1904
1909
1909
1907
1911
1911
1909
1909
1909
1909
1905
1907
1905
1907
1905
1907
1905
1905
1905
1905
1905
1905
1905
1905
1905
1905
1905
1905
1907
1905
1904
1907
1905
1909
1905
1907
1911
1907
1905
1905
1904
1911
1905
1907
1904
1907
1907
1909
1909
1909
1909
1909
1909
1909
1909
1907
1909
1909
1905
1905
1905
1905
1904
1905
1904
1905
1904
1909
1909
1909
1905
1904
1904
1904
1905
1905
1904
1905
1909
1904
1905
1905
1905
1909
1904
1904
1901
1901
1905
1904
1901
1901
1901
1904
1901
1905
1904
1905
1904
1905
1905
1905
1905
1905
1904
1905
1905
1905
1903
1905
1905
1905
1905
1905
1907
1907
1909
1911
1911
1912
1911
1912
1911
1911
1911
1917
1911
1916
1912
1914
1920
1914
1917
1917
1920
1918
1917
1912
1912
1911
1911
1911
1909
1907
1909
1905
1905
1905
1905
1909
1907
1909
1909
1909
1909
1905
1905
1904
1904
1904
1899
1901
1901
1901
1901
1901
1904
1909
1904
1901
1901
1901
1905
1901
1901
1899
1901
1901
1901
1901
1901
1904
1901
1899
1901
1901
1899
1899
1901
1904
1901
1901
1901
1901
1901
1901
1899
1893
1893
1893
1893
1895
1893
1893
1890
1888
1887
1880
1878
1880
1883
1887
1885
1888
1896
1891
1885
1880
1875
1869
1862
1861
1861
1861
1862
1867
1862
1866
1862
1867
1872
1875
1880
1883
1888
1893
1895
1893
1896
1896
1899
1899
1899
1899
1899
1899
1898
1899
1901
1898
1901
1901
1899
1901
1899
1899
1905
1901
1899
1898
1899
1905
1898
1899
1901
1904
1903
1901
1901
1899
1901
1901
1898
1901
1899
1899
1899
1901
1899
1899
1901
1901
1901
1901
1901
1903
1899
1899
1898
1899
1896
1895
1899
1898
1899
1901
1898
1895
1901
1893
1893
1893
1891
1899
1893
1891
1888
1888
1890
1888
1888
1887
1887
1888
1887
1887
1883
1887
1883
1883
1883
1880
1880
1880
1880
1880
1875
1880
1880
1875
1869
1874
1874
1875
1874
1874
1874
1874
1872
1874
1874
1874
1874
1874
1874
1870
1875
1874
1878
1880
1885
1882
1887
1887
1888
1893
1893
1893
1896
1896
1899
1899
1901
1899
1901
1904
1904
1905
1904
1909
1909
1911
1909
1909
1909
1909
1909
1911
1909
1907
1909
1907
1907
1905
1905
1905
1907
1912
1905
1905
1905
1907
1914
1911
1909
1909
1909
1909
1905
1905
1904
1905
1907
1905
1907
1905
1905
1905
1904
1904
1899
1901
1901
1904
1904
1905
1907
1905
1905
1905
1905
1905
1904
1905
1901
1901
1899
1901
1901
1909
1905
1905
1905
1907
1912
1907
1909
1909
1909
1907
1907
1904
1901
1901
1901
1901
1901
1901
1904
1905
1905
1904
1905
1905
1903
1905
1905
1901
1903
1901
1901
1904
1901
1904
1901
1901
1901
1898
1901
1899
1901
1904
1904
1904
1901
1904
1909
1904
1904
1905
1904
1911
1905
1904
1904
1905
1905
1905
1904
1901
1905
1905
1905
1905
1907
1911
1911
1914
1914
1914
1912
1914
1912
1914
1911
1911
1911
1916
1914
1916
1918
1917
1917
1914
1912
1912
1911
1911
1916
1912
1909
1909
1909
1916
1907
1909
1905
1909
1911
1911
1912
1911
1909
1909
1905
1907
1904
1904
1901
1905
1905
1905
1905
1905
1905
1909
1905
1907
1901
1901
1899
1901
1903
1901
1904
1901
1901
1901
1896
1899
1904
1899
1901
1899
1899
1904
1898
1899
1899
1901
1904
1899
1901
1899
1898
1896
1893
1893
1895
1896
1893
1890
1883
1875
1872
1874
1874
1875
1875
1880
1887
1882
1880
1874
1872
1867
1861
1853
1848
1843
1846
1849
1854
1856
1854
1858
1858
1858
1867
1874
1877
1880
1888
1888
1888
1891
1891
1893
1893
1893
1895
1895
1895
1895
1895
1893
1893
1891
1895
1893
1895
1893
1893
1898
1898
1899
1899
1899
1899
1898
1895
1896
1893
1893
1895
1896
1896
1895
1896
1901
1893
1893
1895
1893
1899
1896
1895
1896
1896
1899
1896
1898
1898
1899
1899
1899
1899
1895
1896
1893
1895
1893
1895
1893
1893
1893
1896
1893
1893
1893
1893
1893
1891
1893
1888
1891
1890
1888
1888
1888
1888
1888
1887
1887
1887
1887
1893
1887
1883
1880
1880
1875
1878
1877
1872
1875
1875
1875
1874
1874
1874
1872
1874
1874
1872
1874
1874
1872
1870
1870
1870
1870
1869
1869
1874
1874
1874
1874
1875
1878
1880
1880
1885
1887
1888
1890
1890
1893
1901
1896
1899
1899
1901
1909
1904
1905
1903
1905
1907
1905
1905
1905
1907
1905
1905
1905
1904
1904
1901
1904
1901
1901
1901
1899
1901
1901
1901
1901
1901
1901
1901
1901
1901
1901
1901
1901
1901
1903
1901
1901
1907
1901
1901
1901
1901
1907
1901
1901
1901
1901
1905
1901
1901
1901
1901
1901
1901
1901
1901
1901
1901
1901
1901
1901
1901
1901
1901
1899
1898
1898
1899
1899
1899
1899
1898
1899
1901
1901
1901
1901
1901
1903
1901
1903
1904
1901
1901
1909
1901
1905
1901
1905
1909
1905
1904
1905
1905
1905
1905
1905
1904
1905
1907
1905
1905
1905
1905
1905
1907
1905
1905
1905
1903
1904
1901
1905
1904
1903
1905
1905
1904
1905
1904
1905
1904
1905
1905
1904
1905
1909
1903
1905
1904
1905
1911
1905
1907
1907
1907
1907
1904
1909
1905
1905
1909
1909
1909
1907
1907
1905
1907
1907
1907
1909
1909
1911
1911
1911
1911
1911
1911
1911
1909
1909
1907
1909
1907
1909
1909
1911
1912
1916
1914
1911
1909
1909
1912
1909
1905
1905
1901
1905
1898
1899
1899
1899
1901
1899
1901
1899
1901
1904
1901
1901
1899
1901
1899
1899
1901
1901
1901
1899
1901
1901
1898
1898
1896
1899
1898
1896
1898
1899
1899
1899
1899
1899
1896
1899
1903
1899
1898
1896
1895
1899
1895
1896
1893
1895
1896
1893
1893
1893
1893
1893
1891
1890
1891
1896
1893
1893
1888
1887
1882
1880
1877
1875
1875
1877
1880
1880
1882
1875
1874
1874
1866
1861
1851
1846
1843
1845
1849
1859
1858
1858
1861
1858
1866
1874
1875
1882
1887
1887
1887
1888
1891
1893
1893
1893
1891
1893
1891
1893
1896
1896
1898
1898
1898
1896
1895
1898
1895
1895
1896
1896
1896
1893
1896
1898
1899
1899
1898
1901
1901
1899
1901
1899
1901
1905
1901
1899
1899
1899
1903
1898
1899
1898
1899
1899
1899
1899
1896
1895
1898
1896
1898
1896
1896
1896
1896
1899
1899
1896
1896
1895
1896
1893
1895
1893
1890
1888
1888
1888
1887
1888
1888
1891
1888
1887
1887
1893
1887
1887
1885
1887
1880
1882
1878
1875
1875
1875
1875
1875
1874
1874
1872
1874
1869
1870
1870
1867
1866
1867
1867
1866
1862
1867
1862
1862
1866
1867
1866
1862
1867
1867
1867
1870
1870
1875
1875
1880
1880
1887
1885
1887
1887
1893
1896
1893
1893
1893
1896
1901
1898
1901
1901
1901
1901
1901
1901
1905
1904
1904
1901
1901
1901
1903
1899
1901
1899
1901
1901
1901
1901
1901
1901
1899
1899
1901
1904
1901
1904
1901
1904
1904
1903
1905
1901
1904
1909
1901
1901
1901
1901
1905
1901
1903
1901
1904
1903
1901
1901
1899
1901
1904
1901
1901
1899
1901
1899
1901
1901
1904
1904
1905
1905
1905
1901
1903
1901
1901
1899
1899
1899
1898
1899
1899
1899
1901
1899
1901
1907
1901
1899
1899
1901
1907
1901
1901
1899
1901
1904
1901
1901
1904
1905
1905
1905
1905
1905
1909
1905
1905
1905
1901
1901
1901
1903
1905
1905
1909
1909
1912
1909
1904
1898
1893
1895
1893
1893
1896
1895
1899
1899
1899
1901
1899
1901
1909
1905
1905
1907
1907
1914
1905
1907
1905
1904
1904
1901
1901
1901
1905
1904
1904
1904
1905
1905
1905
1907
1909
1907
1909
1907
1905
1904
1904
1904
1904
1905
1905
1905
1905
1905
1907
1909
1909
1914
1912
1917
1922
1916
1914
1914
1917
1924
1922
1922
1920
1917
1912
1909
1905
1901
1899
1898
1896
1896
1895
1896
1898
1898
1899
1898
1899
1899
1899
1901
1901
1901
1899
1899
1899
1898
1901
1899
1903
1903
1905
1907
1904
1903
1905
1896
1893
1893
1899
1905
1901
1901
1901
1898
1904
1899
1899
1899
1901
1901
1901
1899
1896
1898
1893
1893
1893
1895
1899
1899
1899
1893
1887
1883
1883
1878
1880
1877
1880
1883
1882
1882
1880
1875
1875
1869
1862
1854
1849
1853
1858
1856
1862
1861
1861
1862
1862
1874
1880
1880
1888
1893
1893
1893
1893
1893
1896
1895
1896
1896
1899
1899
1899
1898
1896
1899
1899
1899
1899
1899
1899
1898
1899
1896
1898
1898
1898
1896
1896
1895
1896
1895
1896
1904
1896
1898
1896
1898
1901
1896
1895
1893
1896
1896
1893
1895
1893
1895
1896
1895
1896
1893
1896
1893
1893
1893
1893
1893
1891
1893
1895
1893
1895
1893
1893
1893
1891
1891
1888
1888
1888
1890
1890
1890
1891
1888
1887
1887
1885
1885
1888
1878
1880
1877
1877
1872
1872
1874
1874
1874
1874
1872
1870
1870
1870
1867
1867
1869
1866
1866
1867
1862
1861
1859
1861
1859
1859
1862
1862
1861
1862
1862
1862
1862
1867
1867
1870
1872
1874
1874
1875
1880
1887
1882
1883
1885
1888
1893
1891
1891
1890
1891
1893
1893
1895
1893
1896
1896
1896
1899
1901
1901
1901
1905
1905
1904
1904
1899
1901
1898
1896
1895
1893
1893
1895
1893
1896
1895
1895
1895
1898
1898
1896
1898
1904
1899
1898
1899
1901
1905
1901
1901
1901
1904
1904
1901
1905
1904
1904
1905
1904
1904
1901
1899
1899
1898
1899
1899
1901
1904
1905
1909
1909
1911
1905
1901
1899
1893
1888
1885
1888
1888
1891
1895
1893
1898
1899
1899
1899
1896
1899
1904
1899
1896
1896
1898
1901
1898
1898
1896
1899
1898
1893
1895
1893
1898
1896
1895
1896
1898
1899
1898
1899
1898
1899
1899
1901
1904
1904
1905
1909
1909
1912
1911
1909
1905
1899
1899
1899
1896
1896
1890
1893
1898
1893
1893
1896
1899
1905
1898
1899
1899
1904
1904
1905
1904
1904
1903
1905
1904
1903
1903
1905
1905
1909
1907
1905
1907
1909
1909
1909
1909
1909
1907
1909
1911
1911
1911
1909
1911
1912
1911
1914
1912
1914
1920
1920
1922
1920
1918
1920
1914
1916
1914
1916
1917
1911
1909
1905
1905
1905
1905
1909
1909
1905
1905
1905
1905
1905
1905
1904
1904
1905
1901
1905
1904
1905
1905
1905
1904
1904
1904
1899
1899
1899
1899
1901
1899
1899
1899
1899
1898
1905
1896
1899
1898
1899
1905
1901
1901
1901
1901
1901
1899
1899
1899
1899
1899
1899
1898
1896
1895
1893
1895
1899
1898
1899
1893
1888
1885
1880
1878
1880
1875
1878
1875
1875
1878
1875
1870
1867
1862
1861
1853
1843
1845
1843
1848
1849
1849
1861
1861
1861
1859
1859
1862
1869
1875
1880
1883
1887
1887
1887
1888
1888
1890
1893
1888
1893
1891
1893
1893
1893
1893
1891
1893
1893
1893
1893
1891
1895
1893
1893
1895
1893
1896
1896
1895
1895
1895
1896
1901
1896
1899
1896
1899
1901
1896
1896
1893
1895
1896
1898
1896
1896
1898
1899
1898
1896
1898
1899
1896
1899
1898
1896
1899
1896
1895
1896
1895
1895
1893
1896
1893
1895
1893
1893
1893
1893
1891
1891
1888
1888
1896
1888
1888
1888
1888
1893
1888
1887
1885
1885
1888
1887
1883
1882
1880
1880
1877
1875
1874
1874
1874
1874
1872
1874
1870
1870
1867
1867
1867
1864
1867
1866
1861
1862
1862
1862
1859
1861
1861
1866
1867
1867
1867
1867
1870
1872
1875
1869
1877
1880
1880
1883
1888
1885
1887
1888
1891
1893
1893
1896
1898
1898
1901
1899
1901
1901
1904
1901
1904
1904
1905
1907
1904
1903
1904
1901
1904
1901
1904
1905
1901
1904
1901
1905
1901
1904
1904
1901
1901
1909
1904
1905
1901
1903
1909
1905
1905
1904
1905
1905
1905
1905
1904
1907
1905
1905
1905
1905
1909
1909
1907
1907
1905
1909
1907
1909
1909
1909
1907
1905
1905
1905
1907
1907
1905
1905
1905
1904
1904
1903
1903
1907
1901
1903
1901
1901
1905
1901
1901
1901
1904
1905
1905
1907
1904
1905
1905
1905
1905
1905
1903
1901
1904
1903
1901
1904
1901
1901
1904
1905
1905
1904
1904
1905
1904
1904
1901
1903
1903
1904
1905
1905
1905
1905
1905
1905
1901
1905
1909
1905
1905
1901
1904
1909
1901
1903
1901
1904
1904
1901
1904
1901
1901
1901
1901
1901
1901
1904
1901
1904
1905
1905
1905
1909
1911
1911
1909
1909
1909
1909
1907
1909
1911
1909
1911
1911
1911
1911
1911
1914
1918
1914
1911
1909
1907
1911
1905
1905
1904
1904
1904
1899
1901
1899
1901
1905
1901
1904
1901
1901
1901
1904
1904
1899
1901
1899
1896
1899
1898
1899
1895
1893
1895
1893
1895
1893
1893
1895
1893
1895
1895
1896
1901
1898
1899
1895
1895
1901
1895
1896
1893
1893
1898
1893
1895
1893
1896
1896
1896
1896
1891
1895
1893
1893
1888
1888
1893
1895
1893
1891
1888
1887
1880
1875
1872
1874
1874
1874
1872
1870
1870
1867
1862
1861
1859
1854
1848
1848
1848
1848
1859
1862
1862
1862
1858
1862
1870
1875
1880
1882
1885
1888
1890
1893
1896
1893
1893
1895
1898
1895
1895
1896
1895
1898
1898
1899
1899
1899
1899
1896
1899
1899
1896
1896
1895
1896
1895
1895
1893
1891
1893
1901
1895
1893
1893
1893
1898
1893
1891
1893
1891
1891
1893
1893
1891
1893
1893
1893
1891
1893
1893
1893
1891
1893
1893
1893
1891
1891
1890
1888
1890
1891
1888
1888
1888
1888
1887
1887
1885
1887
1885
1882
1882
1883
1880
1880
1878
1880
1875
1880
1880
1875
1875
1874
1874
1872
1874
1872
1870
1870
1867
1867
1867
1867
1866
1867
1862
1862
1862
1861
1859
1859
1859
1861
1859
1859
1859
1858
1858
1859
1861
1861
1861
1861
1862
1862
1866
1867
1867
1870
1869
1877
1880
1880
1885
1891
1887
1887
1888
1888
1893
1893
1891
1893
1893
1898
1896
1899
1898
1899
1898
1899
1899
1896
1898
1899
1899
1901
1899
1899
1898
1899
1899
1899
1901
1899
1899
1899
1899
1901
1899
1899
1907
1899
1899
1896
1899
1904
1899
1901
1899
1901
1901
1901
1901
1901
1899
1901
1901
1901
1898
1901
1898
1899
1899
1899
1899
1899
1901
1901
1901
1901
1898
1901
1899
1901
1901
1899
1901
1901
1903
1901
1901
1901
1901
1904
1904
1901
1904
1907
1901
1903
1901
1904
1907
1901
1901
1904
1901
1904
1901
1901
1901
1901
1904
1903
1904
1905
1905
1904
1904
1905
1904
1905
1905
1905
1903
1903
1901
1901
1904
1901
1901
1901
1898
1901
1901
1901
1901
1899
1901
1909
1901
1901
1899
1901
1905
1901
1901
1901
1901
1904
1901
1901
1898
1901
1905
1905
1905
1905
1905
1904
1905
1905
1905
1909
1907
1911
1909
1907
1907
1905
1905
1909
1911
1912
1912
1914
1911
1911
1909
1909
1909
1912
1905
1905
1901
1901
1905
1901
1899
1899
1899
1901
1899
1899
1899
1899
1898
1899
1899
1899
1899
1899
1899
1899
1898
1899
1899
1896
1899
1898
1896
1896
1895
1896
1893
1893
1895
1896
1893
1893
1895
1893
1893
1895
1893
1893
1891
1893
1898
1888
1888
1888
1888
1893
1887
1887
1885
1887
1887
1882
1883
1882
1887
1887
1882
1880
1875
1869
1862
1861
1861
1861
1858
1858
1854
1856
1848
1843
1841
1840
1840
1837
1835
1837
1845
1848
1849
1849
1846
1848
1843
1856
1861
1866
1869
1867
1875
1878
1875
1880
1882
1880
1880
1878
1880
1880
1883
1882
1878
1880
1880
1882
1883
1883
1883
1880
1880
1880
1880
1883
1882
1883
1882
1883
1883
1882
1882
1883
1880
1880
1880
1880
1882
1880
1880
1880
1880
1874
1878
1878
1875
1880
1875
1880
1878
1874
1875
1875
1875
1875
1874
1874
1870
1870
1872
1875
1872
1875
1874
1874
1872
1874
1872
1874
1872
1874
1870
1874
1870
1870
1870
1870
1869
1867
1866
1862
1862
1862
1862
1856
1861
1861
1861
1861
1853
1858
1858
1858
1856
1851
1853
1849
1849
1849
1848
1848
1845
1843
1841
1841
1845
1841
1843
1843
1843
1843
1843
1845
1845
1845
1846
1849
1849
1853
1859
1861
1861
1861
1862
1862
1866
1862
1869
1869
1874
1875
1870
1875
1878
1875
1877
1880
1882
1887
1885
1888
1888
1885
1882
1880
1883
1883
1885
1885
1885
1887
1887
1887
1885
1883
1883
1882
1885
1883
1883
1887
1885
1887
1887
1885
1887
1887
1887
1882
1882
1880
1880
1880
1874
1880
1880
1880
1883
1891
1883
1882
1882
1880
1880
1880
1880
1875
1875
1880
1878
1882
1878
1880
1882
1883
1883
1882
1883
1882
1880
1880
1875
1875
1878
1875
1878
1877
1875
1880
1878
1877
1878
1875
1875
1878
1870
1875
1874
1875
1878
1887
1880
1880
1878
1875
1874
1874
1874
1874
1875
1874
1878
1875
1874
1875
1877
1877
1875
1875
1878
1880
1880
1878
1875
1877
1878
1874
1869
1875
1874
1875
1872
1875
1875
1875
1877
1875
1875
1878
1878
1874
1875
1874
1878
1877
1874
1878
1880
1883
1882
1878
1880
1880
1882
1887
1887
1888
1893
1891
1888
1882
1882
1883
1883
1883
1882
1883
1882
1880
1880
1878
1878
1880
1878
1880
1875
1880
1878
1875
1874
1874
1875
1875
1875
1869
1875
1875
1875
1875
1870
1875
1875
1875
1875
1874
1878
1875
1874
1875
1875
1875
1875
1875
1875
1875
1874
1877
1872
1874
1875
1874
1874
1874
1875
1875
1874
1875
1874
1874
1875
1874
1869
1870
1872
1874
1870
1864
1866
1862
1858
1854
1846
1849
1854
1858
1861
1861
1870
1874
1875
1874
1862
1859
1854
1856
1854
1858
1856
1849
1841
1840
1837
1840
1841
1848
1849
1854
1856
1856
1861
1862
1867
1872
1874
1874
1875
1874
1874
1875
1875
1875
1875
1875
1870
1875
1874
1875
1874
1870
1875
1875
1875
1874
1874
1875
1875
1872
1875
1875
1878
1875
1875
1878
1880
1880
1880
1877
1880
1880
1880
1875
1875
1874
1875
1872
1870
1867
1869
1870
1870
1870
1869
1867
1872
1870
1867
1874
1875
1875
1874
1870
1874
1874
1872
1867
1867
1867
1866
1862
1862
1862
1866
1864
1862
1862
1862
1862
1862
1866
1862
1862
1861
1861
1858
1858
1858
1858
1853
1854
1853
1854
1854
1854
1854
1853
1851
1849
1846
1848
1843
1841
1841
1837
1841
1843
1843
1841
1841
1848
1848
1848
1849
1849
1854
1856
1858
1861
1862
1867
1869
1874
1872
1877
1880
1880
1880
1880
1883
1883
1880
1877
1878
1883
1883
1882
1883
1887
1885
1888
1887
1888
1891
1891
1891
1899
1893
1895
1891
1893
1896
1890
1891
1890
1891
1893
1893
1893
1893
1893
1891
1893
1896
1896
1895
1893
1893
1893
1888
1891
1890
1893
1891
1895
1893
1891
1891
1895
1895
1893
1890
1893
1891
1893
1893
1893
1891
1896
1888
1888
1888
1890
1895
1891
1891
1888
1888
1893
1891
1893
1891
1893
1893
1891
1890
1888
1891
1888
1888
1888
1885
1887
1885
1887
1887
1887
1887
1888
1888
1891
1888
1888
1888
1891
1888
1891
1893
1891
1893
1896
1895
1896
1893
1898
1901
1896
1896
1893
1893
1899
1893
1896
1893
1896
1896
1896
1898
1898
1898
1901
1898
1901
1901
1904
1904
1904
1903
1903
1904
1905
1905
1905
1904
1905
1905
1907
1909
1905
1899
1896
1895
1893
1888
1891
1888
1890
1896
1891
1891
1891
1893
1901
1895
1896
1893
1893
1896
1893
1890
1888
1888
1891
1888
1888
1888
1887
1887
1888
1888
1887
1887
1887
1887
1887
1885
1885
1885
1885
1885
1887
1888
1887
1885
1887
1885
1887
1885
1887
1888
1882
1883
1882
1888
1896
1891
1893
1888
1885
1888
1880
1880
1878
1880
1882
1882
1880
1874
1874
1869
1867
1867
1867
1867
1870
1872
1874
1870
1867
1862
1858
1849
1843
1840
1837
1838
1843
1845
1848
1848
1848
1848
1854
1861
1867
1872
1869
1880
1880
1882
1883
1888
1887
1887
1882
1885
1887
1885
1887
1882
1883
1887
1882
1885
1885
1887
1882
1883
1882
1880
1880
1882
1882
1880
1880
1878
1882
1883
1887
1887
1888
1888
1887
1887
1888
1887
1883
1882
1875
1883
1883
1880
1882
1888
1883
1880
1880
1880
1880
1880
1880
1875
1878
1878
1877
1878
1877
1878
1880
1880
1880
1877
1882
1880
1880
1875
1874
1872
1874
1869
1861
1866
1867
1867
1866
1864
1867
1862
1867
1866
1867
1866
1862
1866
1861
1854
1858
1859
1861
1859
1856
1858
1858
1854
1854
1854
1854
1853
1853
1853
1854
1854
1854
1851
1849
1849
1849
1849
1854
1854
1858
1859
1861
1861
1861
1866
1867
1869
1874
1874
1875
1878
1878
1882
1887
1887
1887
1891
1887
1887
1887
1887
1893
1888
1888
1891
1893
1891
1890
1890
1888
1890
1893
1893
1895
1893
1895
1888
1891
1891
1891
1891
1891
1891
1888
1887
1887
1887
1887
1888
1888
1888
1890
1893
1893
1893
1891
1888
1888
1893
1888
1888
1888
1890
1895
1888
1888
1888
1888
1891
1888
1888
1888
1888
1893
1893
1893
1893
1896
1893
1895
1893
1891
1888
1885
1887
1887
1885
1887
1883
1887
1887
1887
1887
1887
1888
1891
1890
1891
1891
1893
1893
1893
1891
1891
1891
1899
1893
1893
1893
1893
1898
1893
1893
1893
1895
1893
1891
1893
1893
1893
1893
1893
1895
1895
1898
1896
1896
1895
1895
1896
1898
1898
1899
1899
1901
1901
1899
1896
1895
1893
1893
1896
1899
1899
1899
1899
1904
1909
1904
1901
1901
1904
1909
1903
1904
1905
1909
1911
1909
1909
1905
1905
1905
1905
1903
1904
1905
1901
1901
1899
1899
1899
1896
1899
1899
1899
1903
1901
1905
1905
1909
1909
1907
1905
1899
1895
1891
1887
1887
1888
1883
1887
1885
1888
1896
1893
1891
1891
1891
1896
1890
1891
1888
1888
1891
1888
1891
1891
1890
1888
1887
1887
1887
1887
1887
1888
1893
1893
1891
1890
1888
1887
1882
1880
1880
1882
1885
1888
1890
1887
1883
1875
1870
1867
1866
1862
1858
1862
1862
1866
1867
1861
1866
1861
1858
1854
1845
1840
1833
1835
1838
1843
1846
1849
1846
1848
1849
1856
1859
1867
1870
1875
1875
1880
1882
1882
1882
1883
1883
1883
1885
1880
1882
1882
1882
1885
1883
1887
1893
1887
1888
1887
1885
1891
1880
1880
1875
1880
1880
1880
1885
1882
1883
1887
1885
1882
1882
1880
1878
1878
1875
1878
1878
1882
1882
1880
1878
1880
1883
1882
1880
1883
1883
1882
1882
1880
1882
1880
1875
1880
1880
1882
1878
1875
1875
1874
1875
1875
1874
1875
1875
1878
1878
1874
1878
1878
1877
1875
1872
1874
1869
1867
1864
1866
1864
1867
1864
1866
1867
1869
1862
1862
1862
1862
1864
1862
1861
1861
1859
1859
1861
1859
1859
1858
1858
1856
1853
1848
1854
1856
1858
1859
1854
1861
1861
1861
1862
1862
1866
1866
1870
1874
1874
1875
1875
1874
1878
1882
1880
1882
1885
1887
1885
1887
1888
1888
1888
1890
1893
1893
1891
1891
1888
1888
1888
1888
1891
1891
1891
1899
1893
1893
1891
1893
1896
1891
1893
1890
1893
1893
1893
1893
1891
1891
1893
1893
1891
1891
1895
1891
1895
1893
1891
1890
1888
1891
1888
1888
1888
1891
1893
1893
1890
1891
1887
1888
1891
1893
1893
1893
1895
1893
1893
1893
1891
1893
1898
1893
1891
1888
1891
1895
1891
1891
1887
1888
1891
1891
1891
1888
1891
1890
1891
1888
1888
1888
1888
1888
1888
1888
1888
1887
1888
1888
1888
1888
1887
1887
1888
1888
1888
1888
1888
1887
1888
1888
1888
1888
1898
1891
1891
1888
1891
1898
1891
1893
1888
1888
1888
1887
1887
1885
1888
1888
1888
1891
1891
1893
1893
1896
1896
1896
1898
1899
1899
1899
1899
1901
1899
1901
1901
1901
1901
1899
1901
1903
1905
1909
1911
1917
1924
1920
1917
1912
1909
1909
1898
1893
1888
1888
1895
1888
1893
1893
1896
1898
1899
1901
1898
1898
1895
1896
1896
1899
1901
1905
1909
1912
1911
1909
1905
1901
1898
1901
1907
1909
1909
1905
1895
1887
1875
1870
1867
1867
1869
1875
1880
1888
1888
1893
1899
1905
1917
1914
1917
1914
1911
1905
1896
1888
1883
1882
1875
1875
1874
1874
1875
1875
1875
1875
1875
1874
1872
1867
1864
1862
1862
1867
1866
1866
1864
1861
1858
1854
1849
1841
1833
1828
1832
1835
1848
1853
1849
1849
1846
1858
1862
1870
1875
1878
1882
1887
1883
1885
1887
1887
1887
1887
1887
1885
1887
1888
1887
1887
1887
1885
1887
1887
1888
1883
1887
1887
1885
1887
1885
1888
1887
1887
1887
1887
1888
1888
1888
1888
1888
1888
1893
1888
1887
1885
1883
1875
1878
1880
1875
1880
1878
1880
1882
1883
1883
1887
1887
1883
1880
1880
1880
1880
1880
1880
1880
1883
1883
1883
1880
1880
1882
1880
1878
1880
1878
1878
1878
1880
1878
1880
1875
1880
1872
1875
1875
1875
1874
1867
1874
1867
1869
1866
1867
1867
1867
1867
1866
1867
1867
1867
1869
1867
1869
1862
1861
1858
1858
1859
1858
1861
1858
1858
1861
1858
1853
1859
1861
1862
1862
1866
1866
1869
1870
1874
1872
1875
1875
1880
1880
1887
1882
1882
1883
1887
1891
1888
1891
1893
1895
1896
1893
1895
1895
1896
1899
1899
1899
1898
1898
1896
1898
1899
1895
1899
1896
1898
1898
1898
1899
1899
1899
1901
1899
1899
1898
1899
1895
1895
1893
1893
1895
1903
1895
1898
1899
1901
1905
1901
1904
1901
1901
1901
1899
1901
1901
1905
1909
1909
1911
1912
1909
1901
1895
1887
1882
1882
1882
1882
1883
1883
1887
1885
1887
1888
1888
1891
1888
1893
1891
1893
1896
1893
1898
1904
1896
1896
1896
1896
1901
1893
1893
1893
1896
1898
1899
1901
1899
1899
1899
1901
1904
1905
1909
1909
1912
1912
1905
1899
1891
1885
1880
1880
1880
1882
1883
1880
1887
1891
1893
1896
1901
1907
1909
1912
1911
1909
1905
1905
1904
1905
1912
1907
1907
1904
1905
1909
1901
1901
1898
1899
1901
1901
1901
1901
1901
1901
1899
1896
1888
1887
1888
1893
1893
1896
1896
1896
1896
1896
1895
1893
1893
1895
1898
1898
1898
1896
1896
1896
1895
1893
1893
1893
1899
1895
1893
1893
1893
1896
1890
1893
1888
1888
1891
1888
1891
1891
1893
1893
1891
1891
1888
1888
1888
1891
1891
1888
1888
1888
1887
1888
1885
1887
1883
1885
1883
1882
1880
1883
1883
1883
1880
1882
1882
1885
1891
1882
1877
1872
1867
1856
1861
1861
1861
1861
1856
1854
1851
1849
1841
1837
1835
1835
1828
1824
1827
1831
1841
1848
1846
1845
1845
1849
1854
1861
1867
1870
1874
1875
1878
1880
1883
1882
1885
1882
1882
1882
1885
1883
1883
1882
1885
1891
1883
1882
1882
1887
1888
1882
1885
1882
1883
1887
1885
1887
1883
1883
1887
1883
1885
1885
1887
1883
1883
1887
1885
1887
1883
1883
1883
1883
1883
1883
1885
1885
1883
1887
1885
1885
1885
1887
1885
1880
1880
1874
1882
1880
1880
1882
1875
1878
1878
1875
1880
1880
1878
1880
1875
1880
1878
1878
1875
1875
1874
1875
1875
1874
1874
1874
1874
1872
1870
1870
1869
1870
1867
1861
1866
1867
1864
1862
1864
1864
1862
1862
1861
1861
1858
1858
1858
1858
1848
1854
1853
1854
1854
1848
1853
1854
1853
1854
1854
1856
1858
1861
1861
1862
1864
1867
1867
1869
1874
1875
1875
1874
1877
1883
1885
1887
1885
1887
1888
1888
1888
1891
1893
1893
1893
1893
1891
1893
1890
1893
1899
1893
1895
1895
1896
1899
1893
1896
1895
1896
1898
1896
1898
1896
1898
1899
1899
1898
1896
1898
1895
1893
1891
1893
1896
1896
1896
1896
1895
1896
1893
1896
1896
1895
1895
1893
1896
1896
1893
1896
1896
1899
1904
1901
1899
1899
1901
1909
1905
1905
1904
1905
1907
1899
1898
1895
1895
1896
1895
1895
1898
1899
1896
1898
1898
1898
1898
1899
1901
1901
1899
1899
1899
1899
1901
1899
1901
1901
1904
1905
1907
1911
1911
1912
1909
1903
1901
1895
1893
1898
1893
1893
1895
1895
1904
1899
1901
1899
1899
1899
1899
1901
1899
1901
1901
1904
1901
1901
1903
1904
1905
1909
1909
1911
1911
1914
1914
1914
1916
1911
1914
1911
1907
1909
1911
1912
1914
1912
1909
1905
1905
1912
1905
1907
1907
1905
1909
1904
1901
1901
1903
1905
1904
1905
1905
1909
1909
1907
1911
1907
1909
1909
1909
1909
1905
1907
1904
1904
1904
1903
1904
1901
1905
1907
1907
1909
1909
1912
1909
1905
1905
1901
1901
1904
1899
1896
1893
1893
1895
1891
1891
1891
1893
1899
1895
1896
1896
1896
1898
1893
1893
1893
1891
1896
1896
1899
1893
1888
1883
1880
1874
1874
1872
1872
1870
1870
1870
1869
1870
1861
1858
1856
1854
1849
1843
1843
1845
1849
1861
1859
1849
1856
1858
1862
1870
1870
1878
1882
1885
1891
1891
1891
1891
1888
1887
1888
1888
1888
1887
1888
1887
1890
1888
1888
1888
1891
1891
1893
1893
1893
1891
1893
1891
1891
1891
1891
1893
1891
1893
1895
1893
1896
1899
1893
1895
1891
1893
1896
1891
1893
1888
1893
1893
1891
1891
1888
1888
1891
1888
1891
1891
1890
1891
1893
1893
1891
1888
1887
1887
1887
1888
1888
1887
1888
1888
1887
1887
1887
1887
1887
1885
1883
1883
1882
1880
1880
1880
1878
1880
1874
1880
1875
1874
1878
1870
1874
1874
1874
1870
1867
1870
1867
1866
1867
1862
1862
1862
1862
1861
1859
1861
1859
1859
1858
1859
1858
1858
1856
1858
1862
1862
1867
1866
1869
1870
1872
1874
1874
1874
1877
1875
1887
1880
1885
1887
1891
1898
1893
1896
1896
1898
1899
1899
1898
1896
1895
1898
1895
1896
1899
1898
1899
1899
1899
1898
1901
1901
1904
1903
1904
1904
1905
1904
1905
1904
1904
1899
1901
1901
1904
1899
1901
1905
1909
1905
1905
1901
1904
1909
1901
1904
1901
1901
1905
1904
1905
1904
1904
1904
1904
1901
1901
1904
1904
1904
1904
1904
1905
1901
1904
1904
1905
1905
1905
1909
1911
1912
1914
1909
1909
1905
1901
1899
1898
1898
1898
1899
1899
1896
1899
1905
1901
1904
1901
1904
1909
1901
1901
1899
1901
1905
1901
1901
1901
1901
1903
1901
1904
1903
1905
1901
1901
1901
1901
1901
1899
1899
1901
1898
1899
1898
1901
1899
1901
1898
1898
1899
1899
1899
1901
1901
1907
1911
1907
1905
1907
1907
1911
1907
1905
1904
1905
1905
1905
1905
1905
1909
1911
1911
1909
1907
1905
1903
1905
1904
1904
1901
1899
1901
1898
1896
1899
1898
1899
1899
1899
1899
1896
1896
1899
1896
1898
1895
1896
1898
1895
1895
1893
1895
1899
1891
1893
1895
1893
1896
1888
1890
1887
1888
1893
1891
1893
1891
1893
1893
1893
1893
1893
1893
1893
1896
1893
1893
1893
1891
1893
1891
1891
1888
1887
1888
1888
1888
1888
1887
1888
1888
1888
1885
1880
1874
1867
1869
1867
1867
1862
1854
1859
1858
1854
1846
1841
1841
1841
1835
1831
1828
1831
1841
1849
1853
1849
1849
1853
1856
1861
1869
1874
1874
1878
1880
1883
1883
1887
1885
1887
1887
1887
1885
1887
1887
1887
1885
1893
1888
1888
1887
1888
1893
1888
1890
1887
1891
1893
1891
1891
1888
1888
1888
1887
1887
1887
1885
1882
1882
1880
1875
1878
1880
1880
1882
1882
1883
1882
1885
1885
1885
1887
1885
1887
1883
1882
1882
1880
1880
1880
1878
1880
1875
1877
1874
1880
1880
1878
1882
1888
1885
1887
1887
1888
1888
1887
1887
1880
1875
1869
1867
1866
1866
1862
1861
1859
1858
1858
1858
1858
1858
1861
1861
1859
1862
1861
1862
1861
1861
1861
1854
1851
1846
1843
1841
1841
1835
1841
1841
1841
1843
1841
1849
1849
1853
1849
1849
1851
1853
1858
1858
1858
1861
1864
1867
1867
1870
1874
1875
1877
1880
1883
1880
1883
1880
1880
1880
1880
1875
1883
1887
1888
1893
1893
1891
1891
1888
1887
1887
1882
1880
1880
1882
1890
1887
1887
1885
1887
1890
1882
1883
1885
1887
1888
1888
1887
1891
1893
1893
1895
1898
1899
1899
1901
1899
1895
1888
1883
1880
1875
1875
1872
1875
1880
1882
1885
1888
1891
1888
1891
1888
1887
1885
1882
1880
1875
1883
1887
1887
1888
1895
1887
1887
1887
1885
1885
1887
1888
1893
1899
1903
1904
1901
1893
1887
1877
1874
1872
1874
1875
1882
1882
1885
1882
1885
1883
1880
1880
1878
1880
1880
1880
1882
1882
1887
1883
1885
1893
1887
1888
1887
1887
1893
1887
1888
1888
1888
1893
1890
1890
1888
1891
1893
1893
1893
1893
1893
1893
1893
1893
1891
1893
1893
1893
1893
1896
1899
1899
1901
1904
1901
1899
1896
1898
1896
1896
1898
1893
1895
1891
1893
1893
1888
1893
1899
1896
1895
1893
1895
1899
1893
1893
1891
1893
1893
1895
1893
1893
1891
1891
1888
1888
1887
1888
1888
1888
1887
1887
1888
1890
1888
1891
1890
1893
1891
1888
1891
1891
1891
1888
1888
1888
1888
1888
1888
1888
1893
1888
1888
1888
1888
1895
1887
1887
1883
1887
1888
1888
1888
1887
1880
1875
1869
1866
1861
1861
1859
1858
1858
1858
1853
1849
1845
1840
1837
1835
1832
1827
1820
1831
1840
1849
1849
1848
1849
1849
1858
1862
1869
1874
1875
1875
1880
1888
1885
1887
1885
1888
1891
1888
1888
1888
1888
1891
1888
1888
1890
1891
1890
1888
1891
1888
1891
1891
1891
1893
1890
1891
1888
1888
1888
1888
1891
1888
1891
1888
1888
1891
1891
1891
1890
1890
1888
1890
1891
1896
1891
1890
1891
1893
1896
1893
1891
1888
1888
1888
1888
1888
1888
1888
1887
1888
1888
1891
1888
1888
1887
1885
1883
1887
1887
1887
1887
1883
1885
1880
1882
1880
1880
1878
1877
1877
1875
1875
1875
1874
1874
1867
1869
1867
1867
1867
1859
1867
1864
1862
1861
1861
1858
1858
1858
1856
1854
1854
1854
1854
1853
1854
1854
1854
1853
1854
1856
1858
1861
1862
1862
1867
1867
1859
1869
1874
1874
1875
1878
1880
1882
1883
1887
1888
1888
1891
1890
1893
1899
1896
1896
1896
1898
1903
1899
1899
1901
1901
1901
1899
1899
1899
1899
1899
1896
1899
1898
1899
1898
1898
1898
1899
1899
1901
1899
1901
1898
1901
1899
1901
1901
1901
1901
1901
1903
1904
1903
1905
1901
1904
1909
1904
1904
1899
1899
1905
1899
1899
1898
1899
1899
1899
1901
1899
1901
1903
1899
1899
1896
1896
1896
1896
1899
1899
1899
1899
1899
1901
1899
1899
1898
1899
1901
1901
1899
1899
1899
1899
1899
1899
1896
1899
1905
1898
1899
1899
1899
1903
1896
1899
1898
1898
1901
1898
1898
1898
1898
1899
1898
1896
1895
1899
1898
1901
1901
1901
1899
1901
1904
1905
1905
1907
1905
1907
1905
1907
1907
1905
1905
1905
1904
1904
1904
1909
1909
1911
1912
1914
1911
1916
1909
1909
1905
1901
1905
1899
1895
1893
1893
1896
1895
1901
1899
1901
1901
1899
1901
1899
1899
1899
1898
1899
1899
1899
1899
1899
1899
1899
1899
1896
1898
1896
1898
1898
1896
1896
1898
1899
1899
1896
1896
1904
1898
1899
1896
1896
1898
1893
1895
1893
1895
1896
1893
1893
1893
1893
1895
1890
1891
1887
1887
1887
1888
1893
1888
1887
1880
1875
1870
1867
1862
1861
1859
1853
1859
1861
1858
1848
1843
1837
1835
1835
1831
1831
1832
1841
1854
1858
1854
1858
1858
1862
1864
1867
1874
1875
1880
1880
1880
1883
1888
1887
1888
1888
1888
1891
1888
1888
1887
1888
1888
1888
1888
1888
1888
1888
1888
1893
1891
1890
1888
1888
1888
1888
1888
1888
1888
1888
1888
1888
1893
1887
1887
1882
1883
1888
1883
1885
1885
1887
1888
1887
1887
1887
1885
1888
1887
1887
1885
1883
1883
1887
1885
1887
1887
1887
1887
1883
1883
1887
1883
1880
1880
1875
1875
1875
1875
1878
1875
1875
1874
1870
1867
1874
1875
1875
1875
1867
1867
1862
1862
1861
1854
1861
1858
1861
1859
1861
1862
1864
1866
1866
1862
1861
1862
1862
1858
1858
1856
1854
1853
1854
1853
1849
1845
1848
1846
1848
1848
1853
1856
1862
1862
1862
1866
1867
1870
1872
1877
1887
1885
1887
1887
1887
1891
1888
1888
1888
1891
1896
1896
1899
1899
1901
1899
1899
1899
1899
1898
1896
1896
1899
1898
1899
1896
1896
1895
1893
1895
1893
1893
1893
1893
1896
1893
1896
1895
1893
1893
1888
1890
1898
1888
1893
1893
1895
1898
1893
1891
1888
1888
1891
1888
1893
1893
1893
1890
1888
1888
1890
1895
1893
1893
1893
1888
1891
1888
1890
1893
1891
1893
1888
1888
1888
1883
1887
1885
1888
1887
1888
1887
1887
1888
1893
1893
1896
1895
1893
1899
1893
1891
1893
1888
1896
1891
1888
1887
1887
1888
1887
1888
1891
1891
1895
1891
1893
1888
1891
1888
1890
1893
1893
1893
1893
1896
1899
1898
1899
1898
1901
1901
1898
1901
1901
1903
1903
1899
1899
1899
1905
1912
1905
1905
1904
1901
1905
1899
1899
1896
1899
1899
1896
1893
1891
1890
1890
1891
1893
1896
1899
1896
1899
1896
1893
1895
1893
1893
1893
1893
1893
1888
1888
1888
1891
1893
1890
1893
1893
1893
1893
1893
1893
1898
1891
1887
1887
1888
1899
1895
1899
1896
1891
1891
1887
1888
1888
1887
1887
1887
1887
1887
1888
1887
1885
1887
1887
1888
1887
1885
1882
1875
1869
1866
1861
1853
1856
1854
1856
1849
1848
1846
1841
1840
1837
1837
1837
1838
1840
1840
1841
1854
1854
1853
1848
1845
1848
1849
1856
1861
1862
1869
1872
1875
1875
1875
1878
1880
1882
1882
1882
1885
1883
1887
1887
1883
1885
1888
1887
1885
1882
1880
1883
1882
1883
1880
1882
1882
1880
1880
1880
1880
1874
1880
1880
1880
1883
1888
1887
1885
1883
1883
1882
1880
1880
1880
1880
1880
1880
1880
1875
1875
1877
1878
1878
1875
1875
1875
1874
1874
1874
1874
1875
1878
1875
1875
1875
1880
1875
1874
1874
1870
1870
1869
1867
1869
1870
1869
1867
1861
1867
1864
1864
1862
1861
1861
1861
1859
1858
1853
1856
1854
1851
1849
1848
1846
1848
1848
1848
1848
1845
1845
1845
1843
1843
1843
1841
1841
1841
1843
1843
1848
1848
1848
1849
1849
1853
1854
1856
1859
1861
1861
1867
1869
1870
1874
1870
1875
1880
1880
1882
1885
1883
1882
1883
1885
1887
1888
1887
1887
1888
1885
1887
1888
1887
1887
1887
1888
1888
1888
1888
1887
1888
1888
1888
1888
1888
1888
1888
1887
1888
1887
1887
1895
1885
1888
1888
1888
1893
1887
1887
1887
1888
1888
1887
1891
1891
1893
1893
1891
1891
1891
1891
1887
1887
1887
1887
1887
1887
1888
1888
1887
1890
1888
1888
1891
1891
1893
1888
1891
1891
1888
1888
1888
1888
1890
1888
1888
1888
1891
1899
1888
1888
1888
1891
1896
1891
1893
1893
1893
1893
1890
1890
1888
1888
1887
1887
1888
1888
1891
1888
1888
1891
1891
1891
1893
1893
1893
1893
1895
1891
1893
1893
1895
1896
1896
1896
1896
1896
1898
1899
1901
1905
1899
1896
1891
1893
1899
1893
1893
1891
1891
1893
1887
1887
1887
1887
1888
1888
1891
1888
1888
1888
1887
1888
1887
1888
1885
1887
1885
1887
1885
1883
1885
1885
1883
1882
1880
1880
1882
1880
1878
1878
1882
1888
1882
1883
1883
1885
1891
1883
1882
1883
1885
1883
1882
1880
1880
1880
1880
1880
1882
1880
1880
1880
1878
1880
1874
1878
1880
1878
1880
1874
1866
1862
1861
1854
1854
1854
1856
1854
1854
1854
1851
1849
1846
1843
1843
1838
1837
1835
1833
1845
1848
1849
1846
1841
1846
1853
1856
1861
1862
1867
1872
1875
1875
1875
1875
1878
1875
1880
1880
1880
1880
1878
1880
1880
1880
1882
1878
1880
1885
1882
1882
1882
1882
1880
1883
1882
1880
1882
1882
1882
1888
1883
1882
1882
1880
1875
1880
1882
1878
1883
1882
1883
1878
1877
1878
1880
1880
1880
1878
1880
1885
1882
1883
1880
1880
1883
1880
1880
1880
1880
1882
1880
1874
1875
1875
1880
1875
1875
1875
1875
1875
1875
1875
1874
1874
1870
1870
1866
1869
1867
1867
1867
1862
1867
1867
1867
1867
1862
1861
1861
1861
1861
1859
1861
1858
1856
1856
1854
1854
1854
1849
1849
1849
1848
1846
1848
1848
1849
1849
1854
1853
1854
1854
1856
1859
1861
1862
1867
1866
1866
1874
1875
1878
1880
1875
1880
1880
1880
1887
1888
1887
1888
1888
1890
1893
