288
480
539
474
408
343
277
212
146
81
20
-25
-50
-22
-3
-8
-14
-21
-26
-28
-33
-40
-42
-37
-34
-35
-36
-36
-36
-35
-34
-35
-36
-37
-38
-38
-38
-38
-39
-41
-42
-41
-40
-40
-41
-42
-43
-44
-43
-42
-42
-42
-44
-46
-47
-48
-46
-45
-48
-50
-51
-52
-54
-56
-57
-60
-64
-68
-72
-75
-77
-80
-84
-90
-96
-102
-107
-108
-108
-111
-115
-119
-123
-124
-124
-121
-118
-114
-110
-101
-93
-83
-72
-57
-44
-35
-27
-21
-14
-7
0
7
13
16
18
18
19
21
23
26
23
14
10
9
7
5
1
-3
-4
-3
-2
-1
2
5
5
6
1
0
3
6
8
10
10
10
9
8
11
14
17
21
24
26
24
24
29
32
33
32
28
27
29
30
29
28
28
28
28
27
25
25
27
28
27
26
25
25
27
22
16
13
10
6
2
10
16
15
13
8
4
6
8
8
8
9
8
3
0
2
7
14
16
12
14
21
25
27
30
33
33
31
29
27
26
26
25
23
16
9
8
8
12
16
10
4
0
-4
-5
-8
-18
-26
-25
-24
-23
-23
-26
-28
-27
-27
-31
-32
-27
-28
-36
-34
-23
21
85
149
214
279
344
409
474
434
369
303
238
172
107
41
103
-50
-73
-42
-15
-26
-37
-45
-52
-54
-57
-63
-66
-59
-55
-58
-59
-56
-54
-56
-58
-61
-61
-59
-55
-49
-53
-65
-70
-69
-64
-58
-57
-59
-64
-69
-66
-61
-60
-59
-59
-61
-65
-68
-67
-66
-68
-70
-73
-76
-79
-82
-80
-78
-81
-84
-86
-89
-92
-95
-99
-103
-106
-110
-114
-119
-127
-131
-133
-134
-133
-132
-133
-135
-137
-136
-133
-127
-119
-110
-101
-90
-79
-71
-62
-51
-40
-35
-30
-25
-20
-16
-12
-10
-8
-8
-8
-7
-6
-6
-6
-8
-10
-11
-12
-15
-16
-16
-16
-16
-16
-16
-16
-17
-17
-15
-14
-13
-12
-11
-9
-7
-4
-1
0
0
2
6
10
14
15
16
16
16
19
22
24
26
26
26
26
26
27
28
29
30
29
28
27
26
26
26
26
24
21
20
20
20
21
22
21
18
15
14
13
13
15
14
12
10
8
8
8
8
8
9
10
7
4
6
8
10
12
11
11
14
19
27
33
35
36
36
35
33
31
27
26
27
25
20
18
18
15
11
16
23
23
21
16
10
11
12
4
-5
-14
-22
-20
-18
-18
-18
-19
-20
-20
-20
-18
-16
-17
-22
-31
-13
36
94
159
224
289
354
419
428
408
355
290
224
159
93
28
-38
-103
-78
-42
-29
-40
-27
-38
-38
-38
-48
-56
-54
-52
-53
-54
-51
-48
-47
-47
-50
-52
-52
-52
-51
-50
-51
-52
-53
-54
-55
-56
-55
-54
-55
-56
-56
-56
-56
-56
-56
-58
-61
-62
-61
-60
-60
-61
-62
-63
-64
-66
-68
-69
-70
-73
-76
-80
-84
-86
-88
-92
-96
-102
-107
-110
-113
-117
-121
-124
-128
-133
-136
-136
-135
-133
-130
-126
-120
-114
-105
-96
-84
-72
-60
-47
-42
-37
-30
-22
-17
-12
-9
-6
-5
-4
-2
0
-1
-2
-4
-6
-6
-6
-6
-6
-7
-9
-13
-16
-15
-13
-11
-10
-11
-12
-11
-10
-10
-8
-3
-2
-3
-3
-1
0
1
3
5
7
6
11
12
16
20
22
24
24
24
27
30
32
34
35
35
32
29
26
24
24
24
21
18
14
12
13
14
14
12
8
6
6
6
6
6
6
5
3
2
2
2
2
2
2
-2
-6
-5
-4
0
4
6
10
19
26
25
24
23
22
22
20
14
10
10
9
7
4
0
-1
2
7
12
9
1
-5
-9
-12
-15
-23
-32
-35
-37
-37
-35
-36
-40
-36
-32
-30
-28
-28
-29
-41
-49
-42
-21
42
105
170
235
300
365
430
439
373
308
242
177
111
46
-20
-53
-67
-56
-31
-24
-25
-40
-58
-60
-57
-70
-86
-79
-69
-64
-68
-62
-66
-66
-66
-64
-63
-70
-76
-74
-72
-74
-76
-73
-70
-72
-73
-69
-66
-66
-68
-73
-75
-72
-71
-73
-75
-78
-76
-70
-71
-76
-79
-81
-84
-87
-88
-88
-88
-89
-89
-87
-92
-98
-102
-106
-110
-114
-118
-122
-121
-122
-131
-138
-136
-135
-139
-142
-143
-142
-137
-134
-133
-126
-114
-106
-101
-92
-82
-71
-60
-52
-46
-41
-37
-31
-24
-19
-15
-14
-15
-16
-16
-16
-18
-18
-18
-20
-22
-22
-22
-25
-28
-25
-22
-23
-24
-24
-24
-24
-23
-20
-18
-17
-16
-16
-15
-13
-11
-9
-8
-7
-5
-3
0
5
6
6
6
6
7
9
10
11
12
12
12
10
12
14
15
16
14
12
11
10
11
12
11
10
8
6
6
6
6
6
6
5
3
2
1
1
3
4
3
2
1
0
0
0
0
0
0
0
-1
-2
-2
1
4
5
6
10
15
23
30
31
32
32
32
30
28
26
24
26
26
20
16
14
13
15
18
22
23
20
15
10
8
7
0
-9
-15
-19
-20
-19
-17
-15
-15
-17
-18
-18
-13
-8
-15
-22
-22
-13
49
111
176
241
306
371
436
457
391
326
260
195
129
64
-2
-60
-112
-107
-59
-30
-14
-17
-31
-36
-36
-40
-46
-47
-45
-44
-43
-42
-41
-40
-40
-41
-42
-42
-42
-41
-40
-41
-42
-43
-44
-45
-46
-46
-46
-46
-46
-46
-46
-47
-48
-47
-46
-47
-48
-49
-50
-49
-48
-49
-50
-51
-55
-59
-60
-59
-61
-65
-68
-71
-74
-77
-81
-84
-91
-98
-100
-102
-105
-108
-111
-115
-120
-124
-124
-123
-119
-115
-110
-104
-96
-88
-78
-66
-53
-41
-32
-25
-19
-13
-6
0
8
10
11
12
13
14
15
16
16
15
13
12
10
10
10
9
8
6
4
3
2
4
6
7
8
6
4
6
9
13
16
16
16
19
21
23
26
30
32
33
35
37
40
45
48
51
53
55
57
59
57
53
49
52
43
42
39
36
41
46
46
46
42
38
39
40
40
39
36
33
29
26
27
28
27
26
25
23
20
21
26
28
28
26
23
24
27
27
25
29
35
40
45
46
46
46
46
47
48
43
38
37
36
36
35
29
24
27
32
39
40
28
20
19
15
7
1
-1
-4
-9
-11
-9
-9
-13
-14
-13
-11
-9
-3
4
-10
-29
-19
-4
53
114
178
244
309
374
439
490
425
359
294
228
163
97
32
-20
-40
-46
-20
-4
-3
-6
-18
-24
-27
-32
-40
-42
-36
-35
-37
-38
-39
-39
-37
-36
-36
-39
-43
-43
-41
-40
-41
-40
-42
-37
-38
-39
-40
-42
-44
-41
-38
-37
-36
-37
-38
-41
-44
-42
-41
-44
-46
-48
-49
-46
-46
-50
-54
-58
-58
-54
-56
-63
-69
-74
-74
-71
-76
-84
-87
-89
-95
-101
-102
-103
-107
-110
-110
-110
-110
-110
-107
-103
-94
-84
-75
-65
-50
-38
-28
-20
-11
-5
-2
2
8
12
12
12
12
13
15
16
16
16
16
15
13
12
11
10
10
12
15
15
13
12
10
11
12
14
16
15
14
16
18
19
21
25
28
28
28
30
32
33
35
39
42
41
40
40
42
46
48
47
46
46
46
46
47
49
49
47
45
43
42
41
41
40
44
44
41
38
37
36
38
40
38
36
34
32
34
36
36
36
34
32
32
32
35
36
35
34
35
37
39
44
50
54
58
60
60
61
63
64
65
62
57
57
59
55
50
50
50
49
48
51
54
51
48
46
43
38
32
22
16
15
14
14
14
13
12
13
15
17
21
26
21
10
9
14
63
128
193
258
323
388
453
518
464
399
333
267
202
136
71
7
-40
-74
-36
-2
9
16
6
-2
-2
-5
-14
-19
-16
-14
-12
-10
-10
-10
-11
-12
-11
-10
-10
-10
-11
-12
-13
-14
-14
-14
-13
-13
-15
-16
-15
-14
-14
-13
-12
-15
-18
-17
-16
-16
-16
-16
-16
-18
-20
-20
-20
-21
-23
-26
-29
-32
-35
-38
-41
-44
-47
-50
-55
-60
-64
-67
-70
-74
-78
-81
-84
-87
-88
-87
-86
-85
-80
-75
-65
-56
-44
-32
-21
-11
0
11
18
25
30
35
39
42
46
48
50
52
54
54
49
46
47
48
48
48
47
45
41
40
40
41
43
43
41
39
37
39
43
46
49
50
50
50
50
53
56
60
64
64
64
66
68
71
74
76
78
77
76
78
81
85
88
87
86
86
86
86
86
86
86
85
83
81
80
79
79
81
81
79
76
73
72
72
72
72
69
66
65
64
65
66
68
70
68
66
68
72
78
83
89
92
91
90
90
90
90
88
82
79
77
74
71
68
65
67
72
75
77
74
69
67
65
59
53
42
32
35
38
35
32
33
34
34
34
36
39
44
44
28
26
48
88
153
218
283
348
413
478
543
532
466
401
335
269
204
138
73
18
-33
-15
19
27
31
22
11
9
6
2
-2
3
8
7
6
6
6
4
2
2
2
1
0
2
4
2
0
2
4
4
4
5
2
-6
-8
-4
-2
-3
-4
-3
-2
-3
-4
-3
-2
-2
-5
-9
-10
-10
-13
-16
-18
-20
-23
-26
-22
-18
-24
-29
-38
-44
-46
-48
-49
-51
-55
-60
-65
-68
-67
-66
-66
-68
-74
-74
-70
-60
-48
-34
-20
-7
5
13
20
22
21
28
37
43
49
49
48
53
58
51
44
44
44
45
46
45
44
45
46
44
41
37
34
36
38
39
40
40
40
39
39
42
45
47
48
47
46
45
48
53
51
47
46
47
51
55
57
60
60
60
59
58
58
58
54
50
51
52
49
47
52
55
50
46
47
49
52
54
53
50
46
43
40
38
38
37
35
35
37
38
38
37
35
34
34
33
31
32
30
34
32
32
32
32
32
33
34
36
39
44
48
51
54
56
59
63
65
62
59
56
55
58
59
57
53
47
45
47
50
54
50
40
38
37
32
27
19
11
10
10
7
4
6
8
9
10
9
8
12
14
0
-4
19
56
121
186
251
316
381
446
511
512
446
381
315
250
184
119
53
6
-33
-26
0
2
-4
-9
-13
-18
-23
-27
-31
-28
-22
-22
-22
-21
-20
-21
-22
-22
-22
-23
-24
-25
-26
-24
-22
-23
-24
-25
-26
-28
-30
-27
-27
-29
-31
-33
-34
-33
-31
-29
-28
-29
-32
-35
-36
-36
-36
-37
-38
-39
-45
-40
-53
-54
-57
-60
-66
-72
-77
-82
-85
-89
-94
-99
-103
-107
-111
-114
-114
-114
-115
-116
-113
-110
-106
-99
-90
-80
-70
-60
-51
-40
-28
-18
-8
-3
1
5
9
13
17
20
23
23
22
21
20
20
20
20
20
17
14
12
10
11
12
12
12
11
10
9
9
12
14
15
16
17
18
19
22
26
28
29
30
30
31
33
38
43
44
43
43
45
48
52
53
54
55
56
55
54
55
56
54
52
52
52
50
48
48
48
47
45
41
38
38
38
38
37
34
32
32
32
31
28
25
24
23
22
22
21
19
18
19
20
20
20
20
22
24
30
36
39
42
42
42
44
46
43
39
35
32
31
30
28
24
17
16
20
25
31
30
23
18
15
11
6
-2
-10
-12
-13
-15
-17
-18
-19
-20
-19
-18
-18
-15
-13
-29
-41
-17
15
80
145
210
275
340
405
470
489
423
358
292
227
161
96
30
-26
-74
-74
-41
-26
-22
-26
-35
-41
-46
-52
-57
-54
-49
-48
-49
-50
-50
-50
-52
-51
-50
-51
-52
-53
-54
-54
-54
-54
-54
-56
-58
-58
-58
-58
-58
-58
-58
-59
-60
-60
-60
-59
-58
-59
-61
-63
-64
-64
-64
-64
-65
-67
-70
-73
-75
-77
-78
-79
-84
-80
-94
-98
-103
-108
-111
-114
-121
-126
-129
-132
-132
-132
-133
-134
-133
-129
-121
-113
-103
-94
-83
-73
-63
-52
-41
-31
-22
-18
-17
-14
-11
-9
-7
-6
-7
-8
-9
-9
-7
-6
-6
-7
-8
-12
-16
-17
-18
-13
-8
-9
-10
-13
-16
-17
-17
-13
-10
-9
-9
-13
-14
-9
-6
-6
-6
-6
-5
-3
0
4
7
9
7
3
3
5
6
5
4
5
6
5
5
8
6
4
5
6
0
-6
-7
-7
0
5
-1
-6
-8
-10
-9
-8
-8
-7
-4
-7
-18
-23
-20
-17
-15
-16
-20
-22
-21
-19
-17
-16
-15
-14
-15
-16
-16
-9
-1
4
0
11
12
9
6
4
2
4
6
3
0
-3
-8
-15
-19
-15
-11
-8
-7
-11
-14
-14
-18
-26
-37
-50
-54
-50
-45
-40
-42
-48
-50
-50
-50
-51
-47
-41
-50
-61
-61
-59
1
62
127
192
257
322
387
430
365
299
234
168
103
37
-29
-75
-88
-89
-69
-55
-47
-47
-57
-66
-74
-82
-91
-93
-91
-85
-77
-72
-69
-72
-77
-84
-92
-90
-85
-83
-81
-84
-90
-86
-82
-85
-88
-87
-86
-85
-84
-85
-86
-88
-90
-91
-92
-93
-94
-93
-92
-92
-92
-93
-95
-98
-100
-101
-103
-105
-108
-111
-114
-117
-119
-121
-126
-131
-134
-137
-142
-147
-150
-148
-158
-162
-164
-166
-165
-164
-163
-162
-156
-152
-147
-141
-130
-118
-105
-93
-85
-77
-70
-62
-51
-45
-42
-39
-36
-34
-33
-30
-27
-26
-27
-29
-31
-32
-32
-31
-29
-29
-31
-32
-33
-34
-34
-33
-32
-34
-36
-33
-30
-27
-24
-21
-18
-19
-20
-18
-15
-11
-8
-6
-3
0
3
5
7
9
11
13
15
17
20
23
24
24
24
23
22
23
24
24
23
21
20
18
16
14
16
18
15
12
11
10
9
8
8
8
6
4
4
4
4
4
4
3
0
-2
-3
-3
-1
-1
-3
-4
-4
-4
-3
-1
1
5
9
14
19
20
21
23
22
25
24
18
12
15
18
11
6
6
6
5
5
10
14
14
11
3
-2
-4
-9
-18
-24
-28
-30
-31
-31
-29
-28
-27
-26
-27
-25
-21
-28
-40
-33
-22
37
102
167
232
298
363
428
483
418
352
287
221
156
90
25
-35
-78
-97
-59
-32
-23
-22
-35
-43
-46
-51
-58
-59
-51
-49
-51
-52
-52
-52
-51
-50
-49
-49
-51
-52
-53
-52
-49
-48
-49
-51
-54
-55
-56
-53
-50
-51
-52
-54
-56
-56
-56
-54
-52
-53
-54
-56
-58
-57
-56
-56
-57
-62
-65
-67
-68
-69
-71
-74
-79
-84
-88
-93
-95
-97
-101
-105
-111
-117
-119
-121
-122
-122
-122
-122
-121
-120
-113
-105
-96
-86
-75
-64
-55
-45
-33
-22
-15
-9
-3
1
4
8
15
18
18
18
17
16
16
16
16
14
11
10
9
8
7
6
7
8
7
7
9
11
12
12
12
12
12
14
16
18
20
22
24
24
24
28
30
31
33
37
40
38
37
40
42
42
42
43
44
44
44
45
46
46
44
41
41
43
44
43
42
41
39
36
35
34
35
36
35
34
31
28
29
30
30
30
28
26
27
28
28
28
30
32
32
32
33
38
45
51
57
59
57
56
57
58
57
55
53
52
51
49
47
46
46
49
54
53
52
48
44
39
34
28
21
8
-2
-2
-1
3
5
2
0
-1
-2
1
4
8
1
-15
-12
6
54
119
184
249
314
379
444
509
465
400
334
269
203
138
72
7
-32
-66
-33
-4
1
5
-3
-11
-16
-22
-30
-35
-31
-28
-27
-26
-25
-24
-26
-26
-22
-20
-19
-18
-19
-25
-35
-35
-30
-28
-28
-28
-29
-33
-37
-36
-33
-32
-33
-32
-28
-29
-30
-31
-32
-32
-32
-37
-42
-46
-49
-44
-42
-49
-53
-50
-50
-57
-62
-62
-65
-72
-76
-75
-78
-86
-90
-90
-96
-105
-108
-107
-105
-103
-99
-95
-90
-85
-76
-67
-54
-66
-36
-32
-24
-16
-8
0
4
8
11
14
15
17
22
26
25
23
17
15
19
18
9
6
11
13
11
8
4
6
12
12
9
8
9
10
10
17
26
18
7
6
7
14
20
24
28
30
32
34
35
27
21
29
35
31
29
33
36
38
38
30
28
33
36
35
35
37
37
35
31
26
24
25
26
26
22
17
15
13
13
15
13
9
9
12
10
8
8
8
9
10
6
2
1
0
2
4
5
6
4
3
6
8
9
12
19
22
23
25
28
33
38
39
37
33
28
29
33
30
25
24
23
18
13
17
12
20
16
11
6
7
7
-2
-10
-12
-14
-17
-20
-21
-22
-20
-18
-17
-16
-14
-14
-21
-24
-25
5
60
121
186
251
316
381
446
415
350
284
219
153
88
22
-43
-72
-99
-70
-40
-25
-11
-26
-40
-40
-41
-48
-53
-48
-44
-44
-44
-45
-46
-45
-44
-44
-44
-45
-46
-45
-44
-44
-44
-44
-44
-45
-46
-47
-47
-45
-44
-45
-47
-49
-50
-50
-50
-49
-48
-48
-50
-52
-52
-52
-52
-52
-56
-60
-61
-62
-65
-68
-71
-75
-80
-86
-91
-95
-98
-101
-106
-110
-115
-120
-126
-128
-128
-128
-127
-126
-125
-120
-114
-106
-98
-89
-79
-66
-53
-44
-52
-27
-20
-15
-10
-6
-2
2
6
6
6
7
8
7
6
7
8
8
7
4
2
1
0
0
0
-1
-2
-1
0
0
1
3
4
4
5
7
10
13
14
15
16
17
19
20
25
30
32
34
34
34
37
40
41
42
41
40
41
42
42
42
43
43
40
38
37
37
39
39
37
35
33
31
29
31
35
32
27
26
25
23
21
20
20
18
14
15
16
15
14
16
18
15
12
10
9
13
16
16
16
18
22
28
34
40
44
41
40
39
36
32
30
31
28
22
20
21
18
12
15
22
25
27
21
13
12
12
5
0
-8
-16
-18
-20
-17
-14
-17
-20
-20
-20
-21
-20
-14
-16
-32
-25
17
70
135
200
265
330
395
460
525
505
440
374
309
243
178
112
47
-12
-69
-52
-24
-25
-29
-35
-40
-43
-46
-50
-54
-51
-48
-49
-50
-47
-44
-42
-40
-42
-44
-45
-44
-39
-36
-38
-42
-46
-49
-52
-54
-55
-57
-61
-60
-56
-54
-53
-55
-59
-61
-63
-63
-61
-60
-59
-59
-62
-61
-60
-63
-66
-66
-67
-75
-82
-84
-86
-89
-92
-94
-98
-104
-110
-115
-117
-114
-114
-119
-122
-121
-123
-129
-125
-114
-108
-104
-99
-94
-82
-69
-57
-44
-37
-31
-24
-17
-14
-16
-6
-2
-4
-6
-7
-8
-3
2
1
-1
-8
-13
-9
-6
-8
-10
-8
-8
-13
-16
-15
-14
-15
-14
-8
-6
-6
-7
-9
-8
-4
-5
-9
-4
4
6
7
8
8
6
3
5
8
12
16
12
8
12
16
18
20
16
12
14
15
10
7
11
13
10
8
7
9
15
15
7
4
3
0
-4
-6
-6
-6
-7
-6
-3
-2
-2
-6
-11
-15
-19
-15
-8
-4
0
-5
-10
-13
-16
-16
-16
-13
-10
-12
-14
-11
-7
-4
2
13
20
18
16
13
12
13
14
15
13
7
6
10
8
2
-3
-9
-2
8
6
1
-6
-13
-16
-14
-26
-32
-35
-38
-37
-36
-36
-36
-40
-44
-41
-37
-33
-31
-35
-38
-40
-19
36
96
161
226
291
356
421
408
342
276
211
145
80
14
-51
-85
-111
-90
-58
-42
-27
-41
-57
-57
-56
-62
-68
-64
-60
-61
-62
-63
-64
-61
-58
-59
-60
-62
-64
-63
-62
-61
-60
-60
-60
-61
-62
-63
-64
-63
-62
-61
-61
-63
-64
-65
-65
-63
-63
-65
-66
-67
-68
-67
-66
-68
-70
-72
-75
-78
-77
-76
-83
-89
-94
-98
-101
-104
-106
-110
-117
-124
-129
-133
-136
-138
-139
-141
-143
-144
-143
-139
-133
-125
-117
-109
-100
-90
-79
-66
-52
-43
-35
-28
-21
-15
-20
-3
2
3
4
4
4
4
4
6
8
6
4
3
2
3
4
2
0
-1
-2
-1
1
3
4
5
6
6
7
9
12
15
16
17
18
19
21
23
28
33
34
35
36
36
39
42
44
46
47
48
47
46
49
52
52
52
48
46
46
46
47
48
47
45
43
41
39
39
41
41
39
37
35
34
33
32
33
34
33
30
27
26
27
28
28
25
22
22
22
23
24
23
22
21
20
22
24
26
28
29
30
31
35
43
48
51
52
52
51
49
46
42
42
45
40
31
29
31
32
32
36
41
42
41
33
40
23
22
14
6
1
-4
-3
-2
-2
-2
-1
0
-2
-3
2
2
-9
-13
-3
32
97
162
227
292
357
422
487
467
402
336
271
205
140
74
9
-37
-79
-50
-11
-6
-3
-11
-20
-21
-22
-30
-38
-34
-30
-29
-28
-28
-28
-28
-28
-30
-32
-34
-35
-32
-30
-32
-34
-35
-36
-36
-36
-35
-34
-35
-37
-39
-39
-37
-36
-36
-38
-41
-42
-41
-40
-41
-42
-42
-45
-48
-50
-52
-52
-52
-53
-55
-61
-66
-69
-72
-74
-77
-80
-84
-91
-96
-97
-98
-101
-104
-109
-112
-111
-110
-109
-106
-102
-95
-88
-78
-67
-56
-46
-34
-22
-15
-9
-5
-8
3
6
14
22
20
18
19
20
21
22
25
27
21
16
14
12
11
9
6
4
5
7
10
12
13
14
15
17
19
20
20
21
23
22
19
21
25
30
35
32
27
29
32
34
36
39
42
41
40
39
39
44
48
47
44
37
33
36
39
42
44
43
40
35
30
26
25
28
31
33
32
28
25
23
23
25
22
17
17
19
18
15
17
22
20
18
15
12
14
16
14
12
13
14
15
16
18
21
26
33
42
47
44
43
46
47
44
41
38
31
22
20
24
24
21
23
29
29
27
21
15
11
7
3
6
-8
-14
-12
-10
-11
-12
-14
-16
-16
-15
-8
-4
-13
-21
-26
-13
34
89
154
219
284
349
414
424
390
337
271
205
140
74
9
-44
-92
-76
-44
-20
1
-14
-34
-35
-33
-44
-56
-51
-46
-43
-40
-44
-48
-45
-42
-38
-34
-36
-38
-40
-43
-47
-50
-48
-46
-46
-46
-46
-47
-50
-51
-49
-47
-45
-45
-47
-48
-49
-49
-47
-47
-49
-52
-55
-56
-56
-55
-52
-55
-58
-64
-70
-74
-78
-78
-78
-81
-85
-91
-96
-99
-103
-106
-110
-116
-121
-124
-126
-125
-124
-123
-121
-118
-113
-107
-97
-86
-74
-61
-53
-46
-36
-26
-18
-11
-7
-3
0
-2
8
12
13
14
13
12
12
12
12
12
11
10
9
8
6
4
6
8
8
8
5
5
7
9
12
14
14
15
17
19
21
24
27
28
29
30
31
34
37
42
47
46
44
46
48
51
54
55
56
53
50
50
50
53
56
57
57
52
48
47
46
48
50
49
46
42
40
40
40
41
42
41
38
35
34
33
32
33
34
33
30
27
27
30
29
28
26
24
23
22
23
24
25
26
27
28
27
26
27
31
39
46
51
54
53
52
53
53
50
47
44
42
43
41
36
31
27
30
37
40
43
38
31
29
30
22
18
8
-2
-4
-6
-4
-2
-2
-2
-3
-4
-6
-6
1
0
-16
-10
29
80
145
210
275
340
405
470
535
515
450
384
319
253
188
122
57
0
-55
-35
-4
-6
-11
-18
-24
-28
-32
-37
-42
-37
-32
-34
-36
-35
-34
-33
-32
-33
-35
-38
-40
-40
-39
-36
-35
-38
-40
-41
-42
-43
-43
-41
-41
-43
-45
-47
-47
-45
-44
-44
-46
-49
-50
-50
-50
-50
-51
-52
-56
-60
-61
-62
-63
-64
-68
-72
-75
-79
-85
-90
-92
-96
-102
-107
-110
-113
-118
-120
-119
-118
-119
-119
-117
-111
-103
-94
-85
-74
-63
-51
-40
-34
-29
-23
-17
-13
-16
2
12
9
6
7
8
10
12
11
10
10
10
9
8
6
4
4
4
4
4
1
0
-1
-2
-2
1
7
10
9
8
8
8
8
12
19
20
20
20
21
22
22
24
26
25
24
27
30
33
36
36
36
35
34
35
35
31
28
27
26
26
26
26
26
26
25
23
23
25
22
15
12
12
13
15
14
11
12
15
14
11
12
15
12
6
5
4
6
8
6
4
4
4
5
6
9
13
19
25
30
33
29
27
30
31
26
23
21
24
31
29
21
18
18
16
11
13
17
18
19
17
13
6
-1
-10
-2
-21
-22
-24
-26
-24
-22
-22
-22
-23
-23
-16
-12
-23
-30
-28
-6
50
109
174
239
304
369
434
427
361
296
230
164
99
33
-32
-59
-73
-54
-27
-19
-15
-32
-52
-49
-43
-51
-60
-56
-52
-52
-52
-53
-54
-51
-49
-54
-58
-59
-59
-54
-50
-52
-54
-54
-54
-54
-53
-51
-50
-51
-51
-49
-49
-53
-55
-57
-58
-57
-56
-55
-54
-55
-57
-59
-60
-61
-62
-64
-66
-68
-70
-72
-75
-78
-80
-82
-86
-91
-96
-101
-107
-112
-114
-117
-120
-123
-126
-128
-129
-128
-123
-120
-119
-115
-109
-101
-93
-80
-66
-55
-44
-37
-30
-21
-13
-7
-1
0
0
4
6
8
10
11
12
11
10
8
6
7
8
8
8
6
4
4
4
6
8
8
7
5
4
5
9
14
17
19
20
20
21
23
27
31
32
33
34
35
37
39
43
46
47
48
48
48
49
50
52
54
53
52
51
50
50
50
50
50
49
47
44
42
43
44
43
42
42
40
36
34
35
36
35
34
34
34
33
32
31
30
30
30
28
28
28
28
28
26
24
24
24
26
28
29
30
29
29
34
41
49
54
55
56
55
54
53
51
48
46
47
44
37
34
33
35
39
40
41
40
37
35
33
29
32
14
4
1
-2
1
4
2
0
0
0
-1
-1
4
5
-5
-9
2
35
100
165
230
295
360
425
490
477
411
345
280
214
149
83
18
-31
-76
-51
-11
-1
5
-6
-19
-20
-20
-26
-32
-30
-28
-29
-30
-30
-30
-29
-28
-29
-30
-31
-32
-30
-28
-30
-32
-31
-31
-33
-35
-37
-37
-35
-35
-37
-38
-37
-36
-37
-38
-39
-40
-40
-40
-40
-40
-41
-42
-44
-46
-48
-49
-50
-53
-56
-59
-62
-66
-71
-75
-79
-84
-89
-92
-95
-98
-101
-104
-107
-112
-114
-114
-112
-106
-103
-100
-93
-85
-77
-70
-58
-45
-35
-26
-22
-19
-13
-7
1
-6
9
8
14
20
19
18
18
18
17
16
14
12
13
14
13
11
8
6
5
4
4
4
5
6
6
6
6
10
16
16
13
12
12
16
23
25
27
26
23
22
23
27
30
31
32
32
32
34
36
38
40
40
40
39
38
34
32
33
34
32
28
23
22
26
27
25
21
16
15
19
23
28
25
18
12
6
5
7
10
13
13
11
4
-4
4
12
5
-2
3
8
10
12
9
6
6
9
21
30
29
28
27
27
31
31
22
20
24
24
18
16
16
13
8
6
6
6
6
8
11
7
1
-14
-31
-32
-32
-28
-26
-29
-32
-35
-38
-33
-27
-21
-18
-29
-38
-39
-20
41
104
169
234
299
364
429
428
362
297
231
166
100
34
-31
-61
-76
-63
-39
-33
-31
-44
-62
-64
-63
-65
-69
-71
-72
-71
-70
-69
-68
-65
-62
-66
-70
-71
-72
-71
-70
-66
-65
-69
-72
-72
-72
-72
-72
-72
-72
-71
-70
-71
-72
-72
-72
-72
-72
-72
-72
-73
-77
-81
-82
-82
-84
-87
-88
-90
-92
-94
-98
-102
-105
-108
-113
-118
-121
-125
-129
-133
-137
-141
-144
-148
-153
-155
-152
-150
-151
-151
-148
-142
-134
-124
-114
-104
-95
-85
-75
-65
-56
-50
-43
-39
-35
-32
-29
-25
-28
-20
-20
-22
-24
-24
-24
-24
-24
-26
-28
-28
-28
-27
-27
-30
-32
-31
-30
-30
-30
-27
-26
-27
-27
-24
-22
-21
-18
-15
-13
-11
-10
-10
-9
-7
-4
-1
0
1
2
3
7
10
12
14
10
6
8
10
10
10
10
10
7
4
4
4
4
4
2
0
-2
-4
-5
-5
-3
-3
-5
-7
-11
-12
-11
-10
-9
-11
-15
-16
-17
-18
-17
-16
-17
-19
-22
-24
-26
-23
-20
-19
-18
-19
-20
-20
-19
-13
-6
1
6
4
2
2
2
4
4
-1
-4
-3
-4
-8
-11
-13
-14
-15
-14
-11
-10
-9
-12
-17
-20
-23
-33
-43
-46
-44
-48
-46
-48
-50
-51
-52
-51
-50
-44
-42
-55
-63
-58
-33
32
97
162
227
292
357
422
421
355
290
224
159
93
27
-38
-81
-113
-96
-62
-52
-49
-55
-64
-70
-75
-81
-87
-84
-80
-80
-80
-80
-80
-81
-82
-81
-80
-81
-82
-83
-84
-85
-86
-85
-84
-84
-84
-86
-88
-88
-88
-88
-88
-87
-87
-89
-90
-90
-90
-89
-89
-91
-92
-92
-92
-93
-94
-95
-97
-100
-103
-106
-109
-112
-113
-114
-119
-125
-130
-134
-136
-139
-143
-147
-152
-156
-158
-160
-160
-160
-159
-156
-152
-148
-144
-136
-126
-114
-102
-91
-81
-73
-66
-60
-53
-47
-41
-38
-35
-33
-34
-31
-32
-32
-32
-31
-30
-29
-28
-31
-34
-35
-36
-35
-34
-33
-32
-33
-34
-35
-35
-32
-30
-29
-28
-29
-30
-29
-25
-20
-18
-18
-18
-19
-17
-13
-10
-7
-6
-7
-8
-7
-3
0
3
6
5
4
2
0
3
6
7
7
3
0
-4
-5
-1
2
2
1
-3
-6
-6
-6
-6
-6
-7
-8
-9
-12
-15
-15
-13
-12
-12
-13
-15
-16
-17
-15
-11
-10
-8
-8
-8
-1
7
16
24
25
26
22
18
16
14
11
8
9
6
-4
-10
-9
-8
-5
-2
2
2
-2
-7
-13
-18
-22
-27
-32
-37
-41
-38
-31
-33
-37
-38
-39
-41
-40
-38
-32
-39
-46
-48
-42
16
76
141
206
271
336
401
424
358
293
227
162
96
31
-35
-76
-94
-85
-54
-41
-38
-42
-51
-58
-64
-68
-71
-67
-60
-60
-63
-65
-67
-66
-63
-61
-60
-61
-62
-65
-68
-68
-68
-67
-66
-66
-66
-67
-68
-69
-70
-68
-65
-62
-62
-67
-68
-63
-62
-66
-68
-69
-72
-76
-74
-68
-69
-73
-76
-79
-81
-83
-86
-89
-93
-97
-101
-106
-110
-114
-115
-116
-121
-126
-126
-126
-128
-130
-129
-128
-128
-127
-123
-117
-109
-101
-93
-82
-69
-59
-53
-46
-38
-31
-26
-22
-18
-14
-11
-8
-5
-6
-9
-10
-10
-11
-13
-14
-14
-14
-14
-13
-12
-15
-18
-17
-16
-19
-22
-21
-19
-13
-8
-8
-7
-3
0
0
0
-3
-4
-5
-4
0
2
2
4
8
14
20
15
5
6
13
14
14
13
11
9
7
14
22
18
14
10
6
14
19
7
-1
6
9
-3
-10
0
6
5
3
0
-1
2
3
0
-2
-2
-2
-2
-2
-3
-4
-4
-7
-12
-13
-11
-6
-1
0
-1
-2
-1
4
10
17
24
29
34
32
30
27
24
24
25
29
31
26
22
21
20
19
19
22
22
17
12
8
6
6
2
-5
-10
-14
-16
-16
-15
-13
-12
-13
-16
-19
-14
-7
-12
-6
-17
-12
48
108
173
238
303
368
433
468
403
337
272
206
140
75
9
-41
-71
-73
-39
-19
-12
-14
-27
-32
-33
-36
-39
-38
-34
-33
-35
-36
-36
-33
-29
-28
-28
-30
-33
-33
-32
-31
-30
-31
-32
-33
-34
-33
-32
-31
-30
-32
-34
-34
-34
-34
-34
-34
-34
-34
-35
-38
-39
-37
-36
-37
-39
-41
-44
-47
-50
-53
-55
-57
-62
-67
-73
-79
-82
-85
-89
-94
-97
-100
-104
-108
-109
-110
-110
-110
-109
-107
-101
-94
-86
-77
-68
-58
-47
-36
-24
-15
-8
-1
5
10
14
19
24
26
26
27
29
30
29
28
27
26
25
23
21
20
20
21
20
18
16
17
18
20
22
23
24
24
24
25
27
30
32
34
36
37
39
42
45
48
51
54
56
56
57
59
61
63
64
64
64
64
65
67
68
68
67
65
64
64
65
66
65
64
62
60
60
60
59
58
57
56
55
54
52
50
49
48
46
44
43
43
46
46
42
40
39
39
41
42
43
44
44
45
47
56
65
66
67
68
68
67
66
62
58
59
59
51
44
46
47
43
41
46
51
54
53
44
38
39
36
27
18
8
5
8
10
10
10
9
8
7
6
7
9
11
-2
-18
23
71
135
74
266
331
396
455
463
461
396
330
265
199
134
68
3
-37
-22
-8
6
9
-3
-10
-13
-16
-20
-22
-21
-20
-21
-22
-22
-20
-17
-17
-19
-20
-21
-22
-22
-22
-21
-20
-21
-24
-26
-24
-22
-20
-18
-18
-18
-21
-24
-20
-16
-17
-18
-18
-19
-23
-27
-30
-32
-32
-33
-36
-38
-39
-41
-44
-47
-49
-54
-62
-64
-63
-66
-71
-76
-81
-82
-82
-88
-95
-96
-94
-97
-100
-99
-98
-94
-90
-85
-78
-66
-54
-42
-32
-25
-17
-8
0
6
12
18
22
23
25
27
28
27
26
27
28
27
22
16
15
17
18
19
19
17
15
13
12
12
17
22
23
24
21
18
18
18
21
24
26
28
30
32
34
36
35
34
34
33
30
30
35
40
44
44
40
38
37
37
39
42
45
42
35
34
35
33
29
28
29
32
34
34
34
35
35
26
18
21
24
24
24
22
20
22
23
18
14
16
18
17
16
15
14
13
13
16
17
15
16
20
22
21
26
34
40
45
47
49
56
63
55
44
43
42
42
42
43
43
31
23
31
38
37
35
30
26
25
24
22
17
10
5
2
-2
-6
-6
-2
-1
-3
0
6
7
5
-6
-19
-4
18
77
142
207
272
337
276
468
527
462
396
331
265
200
134
69
11
-22
-40
-18
-3
-6
-9
-15
-18
-19
-23
-30
-31
-24
-21
-23
-24
-25
-26
-27
-26
-22
-20
-20
-20
-21
-22
-21
-20
-21
-23
-25
-25
-24
-23
-22
-23
-24
-24
-24
-25
-26
-24
-23
-27
-30
-29
-28
-28
-28
-29
-31
-34
-38
-42
-44
-44
-47
-52
-57
-64
-68
-71
-72
-73
-78
-84
-91
-97
-98
-99
-100
-99
-98
-100
-97
-94
-87
-79
-69
-59
-50
-40
-30
-19
-5
8
16
23
27
31
35
41
48
52
52
52
51
50
49
49
51
52
53
52
47
46
45
45
47
47
45
44
44
45
44
51
54
53
52
54
56
59
62
65
68
69
70
72
75
79
83
86
88
87
86
89
91
94
96
97
98
98
98
99
100
101
102
101
100
99
98
97
96
95
93
91
90
90
89
88
88
88
85
82
81
80
80
80
78
76
74
72
72
72
72
72
71
69
67
67
69
70
70
70
71
72
72
76
82
88
93
94
94
94
94
94
93
90
86
87
88
80
72
72
72
73
74
78
82
80
77
73
69
66
60
50
43
40
38
38
38
38
38
37
36
36
39
44
36
22
30
46
102
167
232
297
362
427
492
431
493
427
362
296
231
165
100
37
-14
-45
-3
30
38
40
28
20
18
13
5
2
7
10
10
10
10
10
9
8
7
6
6
6
5
4
4
4
3
3
5
5
3
1
0
2
4
2
0
-2
-4
-3
-2
-1
0
-3
-6
-6
-6
-7
-8
-7
-7
-11
-16
-21
-24
-25
-27
-30
-35
-40
-45
-50
-54
-57
-60
-63
-68
-73
-77
-81
-82
-81
-80
-78
-76
-74
-67
-59
-43
-28
-15
-3
4
12
21
30
37
44
50
53
50
49
52
54
53
52
53
53
50
48
47
46
47
46
41
40
39
39
41
43
45
43
39
40
38
46
48
47
46
43
40
44
49
55
60
57
54
56
58
58
59
65
66
61
58
59
62
67
70
69
65
60
58
58
58
59
60
59
55
51
51
53
52
49
48
49
47
44
45
46
50
54
49
44
38
34
32
30
32
34
33
32
34
36
36
36
36
37
39
40
40
44
51
56
60
62
61
60
60
60
61
60
57
54
51
50
51
41
28
35
42
43
44
37
30
29
27
22
16
4
-3
1
4
6
6
-1
-7
-11
-9
4
10
11
4
-12
0
30
83
148
213
278
343
408
465
520
472
407
341
276
210
272
79
15
-8
-29
-11
3
-7
-17
-26
-35
-41
-46
-47
-46
-40
-36
-36
-36
-35
-35
-40
-42
-43
-45
-48
-47
-41
-38
-37
-38
-42
-44
-45
-46
-45
-44
-45
-46
-47
-49
-51
-53
-54
-52
-50
-51
-52
-55
-58
-58
-58
-59
-60
-61
-63
-67
-71
-75
-78
-79
-81
-84
-89
-96
-102
-106
-109
-112
-116
-120
-124
-128
-130
-131
-130
-127
-123
-119
-115
-111
-102
-93
-81
-68
-58
-48
-42
-36
-27
-20
-15
-10
-7
-4
-3
-2
1
4
3
2
0
-2
-4
-6
-5
-4
-5
-6
-7
-8
-9
-10
-9
-8
-7
-6
-7
-8
-7
-5
-3
-2
-2
-1
-2
7
12
13
14
16
18
20
22
26
30
30
30
30
30
31
33
39
42
40
38
37
36
37
38
37
35
33
32
31
29
27
26
27
27
25
24
23
22
22
22
21
18
16
13
10
12
14
13
12
9
6
5
4
4
4
4
4
4
4
4
5
8
11
13
17
23
27
30
32
33
33
31
27
22
22
25
21
15
12
9
8
7
10
16
16
16
11
6
2
-3
-11
-18
-22
-26
-25
-24
-26
-28
-28
-28
-28
-26
-20
-20
-31
-35
-33
2
63
126
191
256
321
386
451
417
352
286
221
155
90
24
-41
-92
-45
-95
-50
-33
-19
-32
-44
-46
-49
-55
-60
-59
-58
-56
-54
-56
-57
-54
-52
-54
-56
-57
-58
-58
-57
-55
-55
-57
-58
-59
-60
-60
-60
-59
-58
-59
-60
-61
-62
-62
-62
-61
-62
-64
-64
-64
-64
-64
-64
-64
-68
-72
-72
-72
-73
-75
-79
-83
-86
-89
-93
-96
-98
-103
-109
-114
-119
-124
-128
-130
-131
-134
-137
-138
-138
-134
-129
-123
-115
-106
-97
-86
-75
-63
-50
-43
-36
-30
-24
-20
-16
-9
-4
-2
0
0
0
0
1
4
5
2
0
2
4
3
1
-1
-3
-6
-8
-8
-8
-8
-9
-11
-12
-12
-10
-7
-2
3
4
4
5
4
5
2
9
16
18
20
18
16
15
15
20
24
21
18
17
17
21
24
24
23
20
19
21
21
19
17
15
13
11
8
4
5
9
7
3
2
3
4
5
6
6
10
14
4
-6
-4
-2
-2
-2
0
2
-1
-4
-1
4
14
21
25
28
26
25
29
32
31
28
24
20
16
14
14
11
6
4
3
6
11
8
3
-1
-5
-7
-9
-20
-32
-33
-34
-33
-32
-33
-34
-33
-32
-29
-26
-24
-26
-40
-40
-9
35
100
165
230
295
360
416
465
449
383
318
252
186
121
55
-10
-36
-51
-40
-23
-32
-46
-51
-55
-58
-56
-69
-76
-67
-58
-63
-68
-68
-68
-64
-60
-62
-64
-63
-63
-67
-70
-72
-73
-69
-68
-73
-74
-69
-68
-72
-68
-56
-58
-67
-72
-76
-78
-78
-77
-75
-75
-77
-78
-79
-80
-79
-80
-82
-87
-92
-95
-98
-100
-102
-105
-108
-112
-116
-119
-123
-128
-132
-132
-133
-137
-141
-145
-148
-147
-146
-145
-140
-133
-126
-119
-112
-104
-92
-78
-68
-60
-51
-42
-37
-33
-29
-25
-23
-20
-18
-16
-17
-18
-18
-18
-19
-20
-21
-22
-24
-26
-25
-24
-23
-22
-24
-27
-30
-31
-26
-23
-20
-18
-17
-16
-17
-17
-15
-11
-6
-4
-4
-3
-1
2
5
8
11
12
12
13
12
17
22
22
22
21
20
21
22
23
24
23
21
18
16
16
16
17
18
17
14
10
8
8
9
11
10
7
5
3
2
1
0
1
1
-1
-2
-3
-4
-4
-4
-4
-4
-4
-4
-4
-2
0
2
4
5
7
15
21
25
28
26
23
20
17
14
12
13
12
7
2
-2
0
7
10
11
7
0
-2
-3
-6
-9
-18
-29
-31
-33
-34
-34
-32
-30
-30
-30
-33
-35
-28
-24
-38
-44
-25
7
72
137
202
267
332
397
462
465
399
334
268
203
137
72
6
-48
-96
-84
-47
-35
-31
-40
-54
-57
-59
-62
-65
-63
-66
-61
-64
-63
-62
-59
-56
-57
-58
-60
-62
-63
-64
-62
-60
-61
-62
-63
-64
-64
-64
-64
-64
-64
-64
-65
-66
-65
-64
-64
-65
-67
-68
-69
-70
-69
-68
-68
-70
-73
-75
-77
-79
-80
-83
-86
-90
-94
-99
-104
-106
-109
-114
-119
-123
-126
-128
-131
-134
-136
-137
-138
-138
-135
-129
-122
-114
-106
-99
-89
-78
-65
-52
-42
-34
-28
-23
-19
-15
-10
-5
-4
-4
-4
-2
-2
-2
-2
-2
-5
-8
-8
-8
-7
-6
-7
-8
-9
-10
-9
-7
-4
-1
2
4
3
3
6
8
8
7
4
2
2
4
7
10
13
14
14
15
17
20
23
24
24
25
24
21
18
23
28
30
32
29
26
23
20
21
21
18
16
15
14
13
12
11
8
3
2
8
9
6
6
9
10
11
9
5
2
-1
-2
-1
-1
-3
-2
1
2
2
5
8
17
26
31
36
38
40
36
31
26
22
26
25
15
9
13
15
12
11
14
16
17
14
5
2
2
-2
-10
-15
-20
-22
-21
-20
-20
-23
-27
-28
-27
-26
-24
-22
-20
-27
-30
13
60
125
190
255
320
385
415
360
302
236
171
105
40
-26
-70
-93
-87
-53
-27
-8
-12
-33
-40
-40
-46
-55
-57
-55
-56
-59
-59
-57
-54
-51
-51
-50
-50
-46
-49
-52
-55
-58
-60
-62
-60
-58
-57
-55
-49
-46
-52
-57
-61
-64
-62
-59
-54
-52
-53
-56
-62
-64
-64
-65
-67
-68
-69
-69
-67
-67
-69
-70
-71
-77
-83
-92
-101
-100
-98
-107
-116
-120
-124
-127
-130
-129
-128
-131
-134
-133
-132
-128
-124
-115
-108
-102
-94
-85
-75
-64
-53
-44
-37
-31
-26
-22
-16
-10
-5
-1
0
-1
-3
-5
-3
1
0
-3
-6
-10
-11
-12
-10
-8
-8
-8
-10
-12
-12
-12
-9
-6
-5
-4
-4
-4
-2
0
2
4
7
8
8
10
16
18
19
21
23
24
24
26
29
31
33
34
33
32
32
33
32
36
36
36
36
33
30
30
30
31
32
30
28
27
26
27
28
26
24
22
20
21
22
21
19
17
16
17
18
18
18
17
15
13
11
9
9
11
13
15
16
16
19
22
29
36
38
40
41
42
40
38
35
32
33
32
25
20
22
23
19
18
23
26
27
25
19
16
15
9
-1
-8
-14
-15
-13
-12
-13
-14
-14
-14
-15
-13
-9
-9
-12
-21
-27
32
91
156
221
286
351
416
449
385
321
256
190
124
59
-7
-57
-89
-87
-46
-21
-11
-13
-25
-30
-31
-38
-47
-46
-40
-38
-37
-36
-37
-38
-39
-40
-40
-40
-40
-39
-40
-41
-42
-42
-42
-42
-42
-43
-44
-44
-44
-42
-40
-42
-44
-46
-48
-48
-48
-47
-46
-46
-47
-49
-50
-51
-52
-51
-52
-55
-59
-63
-65
-67
-68
-69
-75
-81
-84
-87
-92
-96
-99
-102
-108
-114
-117
-120
-119
-118
-115
-112
-109
-105
-100
-92
-78
-65
-52
-42
-37
-30
-21
-12
-4
2
6
9
13
14
14
17
21
21
19
18
17
16
15
14
15
15
12
11
10
10
10
12
14
12
10
11
12
14
16
18
20
20
20
21
23
26
28
31
33
35
36
37
39
42
44
44
44
44
45
47
48
48
48
48
48
47
46
46
48
48
44
40
41
42
41
40
40
40
39
38
37
36
35
34
33
32
31
30
31
32
31
30
30
30
30
31
33
35
37
38
39
45
52
55
57
58
57
54
51
47
44
47
50
45
40
36
32
38
42
44
46
44
42
40
38
36
31
22
16
14
11
8
5
3
3
5
3
-2
0
6
-2
-16
-10
3
59
124
189
254
319
384
449
513
448
382
317
251
186
120
55
-5
-42
-62
-28
-4
-2
-2
-11
-17
-20
-23
-27
-30
-27
-26
-26
-25
-23
-23
-25
-29
-34
-34
-29
-25
-19
-22
-29
-30
-30
-28
-25
-25
-24
-29
-30
-33
-36
-32
-28
-28
-28
-26
-24
-25
-27
-33
-37
-33
-32
-38
-41
-37
-35
-40
-43
-46
-50
-54
-57
-59
-60
-61
-66
-72
-77
-82
-85
-87
-88
-88
-93
-99
-101
-103
-99
-94
-89
-84
-77
-69
-56
-43
-34
-25
-18
-11
-7
-3
1
5
8
15
30
37
33
27
20
19
25
26
22
19
15
14
14
14
15
17
19
20
21
15
7
14
23
24
22
17
12
21
30
32
34
30
26
25
25
32
38
37
36
37
38
40
42
41
40
40
40
39
39
41
46
53
53
48
45
43
39
35
33
31
30
31
32
32
34
32
33
28
26
24
21
18
20
22
24
26
23
20
17
15
18
20
21
20
15
12
15
16
17
19
22
27
32
36
40
43
45
46
47
46
43
42
42
42
41
40
39
30
22
31
40
38
36
28
22
21
19
13
7
-1
-6
-5
-4
-6
-8
-6
-4
-5
-6
-5
-3
0
-5
-19
-5
24
78
143
208
273
338
403
467
530
481
416
350
285
219
153
88
24
-10
-40
-20
-4
-18
-30
-30
-30
-33
-36
-37
-38
-37
-36
-35
-33
-30
-28
-29
-31
-33
-34
-33
-31
-29
-30
-33
-34
-34
-34
-33
-32
-31
-32
-35
-36
-36
-36
-36
-33
-30
-34
-38
-38
-38
-37
-36
-37
-39
-44
-48
-50
-52
-52
-53
-56
-61
-68
-73
-78
-81
-83
-86
-92
-97
-103
-108
-111
-112
-112
-113
-115
-116
-117
-113
-107
-99
-91
-82
-73
-62
-52
-40
-28
-20
-12
-7
-2
2
7
12
16
18
20
21
22
20
18
19
20
19
18
17
16
15
14
13
12
11
10
11
12
13
14
14
14
14
15
17
19
21
23
26
28
30
31
32
34
36
38
40
41
42
44
46
48
50
50
50
50
50
51
52
51
50
49
48
48
48
49
48
44
42
41
40
40
40
40
38
35
33
31
31
30
33
32
27
22
21
20
24
28
28
28
25
23
27
32
40
47
50
52
50
48
47
45
43
42
42
38
29
28
31
28
22
23
28
32
35
30
21
20
20
12
3
-6
-14
-11
-8
-9
-10
-12
-14
-13
-12
-14
-15
-9
-10
-29
-32
-4
40
105
170
235
300
365
430
495
484
418
353
287
221
156
90
25
-28
-77
-59
-25
-20
-19
-25
-33
-35
-38
-47
-56
-50
-44
-43
-42
-44
-46
-47
-48
-47
-46
-44
-43
-46
-48
-50
-52
-50
-48
-49
-51
-53
-54
-54
-53
-51
-50
-49
-51
-56
-58
-57
-56
-55
-54
-55
-56
-57
-59
-58
-61
-60
-63
-66
-69
-72
-77
-82
-84
-86
-91
-95
-99
-103
-108
-112
-114
-117
-121
-125
-128
-129
-126
-123
-120
-114
-105
-96
-87
-77
-67
-54
-39
-32
-27
-21
-15
-13
-11
-9
-7
-1
4
3
2
1
0
-1
-2
-4
-6
-5
-4
-5
-6
-6
-6
-6
-5
-2
-2
-8
-11
-9
-7
-4
-2
-3
-2
2
5
7
8
7
8
11
10
7
7
9
13
17
18
20
17
14
19
24
21
18
19
20
23
25
18
12
12
12
12
12
13
14
13
11
6
5
8
10
11
8
1
-1
1
4
7
5
1
3
7
4
-1
-3
-5
-4
-6
0
0
5
10
14
18
22
26
30
34
35
34
23
17
21
23
17
13
10
7
4
5
11
12
8
6
7
6
3
-7
-20
-26
-29
-30
-31
-32
-31
-28
-25
-29
-35
-30
-24
-27
-30
-39
-43
-2
43
108
173
238
303
368
407
385
347
281
216
150
85
19
-43
-101
-105
-62
-30
-5
-13
-41
-50
-50
-56
-65
-61
-52
-50
-51
-52
-51
-50
-50
-50
-52
-47
-42
-46
-50
-54
-58
-57
-56
-55
-54
-54
-54
-53
-51
-47
-47
-55
-60
-60
-60
-63
-63
-60
-59
-61
-60
-56
-55
-57
-63
-70
-73
-75
-77
-79
-80
-81
-83
-85
-91
-86
-102
-106
-109
-112
-117
-122
-125
-128
-126
-124
-126
-128
-130
-131
-126
-119
-111
-103
-93
-82
-69
-57
-47
-38
-31
-24
-17
-12
-8
-4
-1
1
3
4
5
6
6
6
7
8
8
6
4
3
2
3
4
3
2
3
4
5
6
7
8
7
7
10
13
17
20
21
22
23
25
27
30
34
37
41
42
42
44
47
49
51
52
53
53
51
50
51
53
56
53
50
51
52
52
52
51
50
49
48
45
42
44
46
44
42
41
40
40
40
41
42
41
39
37
36
35
34
35
36
37
38
39
40
41
45
49
55
61
62
62
63
64
63
62
56
50
51
52
50
47
42
39
45
50
52
53
47
43
40
37
32
25
15
11
13
13
10
8
7
7
9
10
11
15
19
7
-10
9
34
96
161
227
292
357
422
487
536
471
405
340
274
209
143
78
17
-32
-52
-19
3
6
5
-3
-10
-15
-22
-30
-29
-20
-17
-21
-22
-22
-24
-27
-27
-25
-24
-25
-24
-21
-20
-20
-20
-20
-20
-20
-23
-26
-26
-26
-24
-22
-24
-26
-28
-30
-29
-28
-29
-30
-29
-28
-30
-32
-35
-36
-36
-38
-42
-46
-50
-53
-55
-56
-57
-68
-83
-88
-91
-91
-89
-96
-105
-106
-106
-100
-92
-94
-96
-93
-89
-81
-73
-66
-58
-49
-39
-25
-14
-6
2
8
12
14
18
23
27
29
32
36
36
32
30
30
30
30
32
35
32
25
26
29
30
30
27
23
23
24
25
26
29
32
31
30
30
30
33
37
41
44
43
42
43
45
49
53
56
57
55
54
55
58
62
64
64
63
61
61
63
64
64
64
63
60
57
56
56
56
58
55
52
51
50
49
48
48
48
46
44
42
40
42
44
46
48
49
52
57
64
73
79
81
82
81
77
71
65
60
57
55
47
38
36
37
40
43
49
55
51
56
42
40
39
37
25
14
9
4
1
-2
-2
-2
-1
0
-1
-1
5
6
0
-5
-8
17
72
132
197
262
327
392
457
431
366
300
235
169
104
38
-27
-44
-55
-28
3
4
4
-9
-22
-26
-30
-33
-36
-39
-42
-38
-34
-32
-30
-31
-32
-31
-31
-34
-36
-35
-36
-41
-42
-37
-35
-38
-39
-37
-37
-39
-40
-40
-40
-41
-42
-42
-44
-47
-48
-49
-52
-56
-54
-52
-52
-52
-52
-52
-55
-58
-58
-59
-65
-72
-80
-87
-90
-92
-93
-95
-98
-100
-99
-100
-105
-110
-116
-118
-118
-118
-118
-117
-115
-107
-96
-89
-82
-66
-50
-38
-27
-20
-26
-12
-12
-8
-4
-3
-2
3
7
1
-4
-1
2
2
3
6
5
-6
-11
-7
-4
-5
-7
-9
-6
1
0
-9
-12
-12
-9
-4
-4
-7
-4
3
5
7
8
9
9
7
6
6
11
16
10
4
9
14
12
10
9
8
11
14
14
13
9
6
4
3
6
6
2
0
1
2
2
1
-1
-3
-5
-6
-5
-4
-5
-5
-3
-4
-7
-8
-8
-8
-6
-7
-8
-8
-8
-7
-6
-4
-2
0
3
10
16
19
22
24
26
24
21
17
15
20
21
18
15
12
9
7
8
12
11
6
2
-1
-3
-5
-13
-21
-24
-27
-28
-28
-29
-28
-26
-24
-24
-24
-22
-21
-30
-37
-28
-6
51
111
176
241
306
371
436
441
375
310
244
179
113
48
-18
-58
-84
-72
-44
-31
-24
-30
-40
-43
-45
-51
-57
-52
-45
-45
-46
-47
-48
-49
-50
-48
-46
-47
-48
-48
-48
-48
-48
-48
-48
-48
-48
-49
-50
-50
-50
-49
-48
-48
-49
-51
-52
-51
-50
-50
-50
-51
-52
-52
-53
-55
-56
-57
-59
-61
-64
-68
-72
-76
-79
-82
-86
-90
-94
-98
-102
-107
-111
-115
-119
-122
-123
-124
-124
-123
-120
-115
-108
-100
-92
-83
-72
-62
-52
-40
-28
-21
-16
-10
-4
2
7
12
17
18
17
15
16
15
18
18
18
16
14
11
8
9
10
11
12
10
8
8
9
12
14
15
16
15
15
17
19
22
25
28
30
31
33
35
39
43
46
49
49
47
48
51
54
57
59
60
58
56
57
58
60
62
60
58
57
56
55
54
53
52
50
48
47
46
45
44
45
45
43
41
38
37
39
39
37
36
36
37
39
41
43
49
55
58
61
62
64
64
64
59
54
52
50
50
50
48
45
38
33
39
45
50
52
46
40
34
29
26
20
12
7
5
3
1
0
0
1
3
3
1
3
7
-2
-14
-7
3
65
4
196
261
326
391
456
503
438
372
307
241
176
110
45
-13
-55
-68
-30
-5
3
3
-8
-15
-17
-22
-29
-26
-16
-14
-18
-20
-19
-17
-15
-19
-26
-28
-29
-30
-30
-31
-33
-35
-36
-34
-32
-33
-34
-32
-30
-29
-28
-30
-32
-33
-34
-36
-38
-37
-36
-36
-36
-38
-41
-43
-44
-44
-47
-53
-56
-55
-54
-55
-57
-59
-64
-70
-74
-77
-83
-89
-91
-93
-97
-102
-101
-100
-103
-106
-103
-99
-92
-85
-78
-69
-57
-46
-38
-29
-20
-13
-9
-6
-5
0
9
15
18
20
20
18
14
14
17
18
17
13
9
8
8
8
7
6
6
4
6
0
0
4
8
9
10
10
10
12
14
14
15
19
21
18
17
20
21
17
16
21
25
27
26
20
19
21
22
22
24
28
30
29
24
19
18
17
16
16
17
19
16
12
15
18
12
6
6
6
8
10
8
6
6
6
6
6
5
4
4
3
-1
-1
6
8
3
-1
-3
1
9
14
18
20
20
21
23
29
37
34
29
26
23
22
20
19
18
16
14
10
7
15
20
10
1
-3
-6
-9
-14
-20
-22
-17
-18
-28
-32
-25
-23
-26
-28
-29
-28
-24
-28
-39
-36
-27
25
90
155
220
285
350
415
480
422
484
291
225
160
94
29
-31
-59
-78
-53
-34
-29
-29
-41
-50
-52
-56
-62
-64
-59
-56
-55
-55
-58
-60
-59
-58
-57
-56
-55
-55
-57
-58
-58
-58
-57
-56
-57
-58
-57
-57
-59
-58
-56
-58
-60
-62
-64
-62
-60
-59
-58
-61
-64
-64
-64
-64
-65
-68
-71
-75
-78
-80
-83
-85
-89
-95
-101
-106
-111
-116
-119
-121
-125
-130
-135
-139
-140
-141
-142
-141
-140
-139
-135
-130
-119
-108
-97
-85
-75
-65
-56
-47
-37
-29
-23
-17
-12
-7
-4
-2
0
2
4
6
3
1
-1
-2
-1
0
-1
-3
-5
-5
-3
-2
-2
-2
-3
-4
-4
-3
-1
1
0
5
6
8
10
11
12
16
20
23
26
27
28
29
30
32
35
38
40
40
40
41
42
42
42
43
44
44
44
43
41
39
38
38
37
35
34
33
32
32
32
31
28
26
24
22
20
18
19
20
19
18
15
12
12
12
16
18
18
17
14
15
23
31
38
42
41
39
37
36
36
34
31
30
29
24
19
17
15
17
21
22
23
21
16
14
12
8
3
-8
-18
-20
-22
-20
-18
-18
-19
-23
-26
-25
-22
-17
-18
-27
-32
-31
4
69
134
199
264
329
394
459
431
366
300
235
169
104
38
-27
-72
-115
-78
-118
-28
-20
-32
-44
-44
-45
-54
-62
-58
-54
-53
-52
-52
-52
-53
-54
-55
-56
-54
-52
-55
-56
-57
-58
-57
-56
-56
-56
-56
-58
-61
-62
-61
-60
-60
-60
-61
-62
-63
-64
-65
-64
-62
-65
-68
-70
-72
-70
-68
-71
-74
-77
-80
-83
-86
-90
-93
-97
-102
-108
-113
-117
-120
-121
-124
-128
-131
-134
-136
-137
-136
-132
-127
-123
-116
-108
-96
-84
-72
-59
-49
-39
-31
-22
-16
-10
-5
0
1
2
-1
-4
-6
-8
-9
-10
-10
-10
-10
-10
-11
-11
-8
-8
-15
-18
-17
-16
-17
-17
-15
-14
-13
-11
-9
-8
-7
-7
-9
-7
-3
-1
1
2
2
0
-2
3
8
6
4
7
10
9
8
10
12
9
5
2
1
4
6
5
4
4
3
0
0
4
5
2
-1
-3
-4
-5
-6
-6
-6
-7
-9
-11
-12
-12
-14
-17
-13
-8
-6
-4
-2
0
-1
-1
5
11
18
24
22
20
19
18
17
16
14
10
5
1
-1
-2
-1
1
3
4
3
-1
-6
-12
-18
-20
-21
-27
-33
-37
-41
-40
-37
-37
-40
-38
-36
-32
-28
-33
-39
-46
-45
-6
40
105
170
235
300
365
404
401
370
304
239
173
108
42
-23
-89
-95
-63
-40
-22
-28
-45
-53
-57
-58
-57
-63
-73
-66
-57
-56
-56
-63
-72
-69
-66
-62
-58
-62
-66
-60
-57
-62
-66
-67
-67
-62
-58
-58
-60
-66
-70
-67
-64
-60
-59
-62
-64
-63
-63
-65
-70
-76
-75
-71
-70
-71
-74
-77
-79
-81
-82
-83
-90
-96
-102
-108
-112
-116
-117
-118
-118
-118
-120
-124
-132
-138
-134
-132
-131
-129
-126
-121
-114
-105
-94
-82
-71
-60
-50
-43
-36
-30
-24
-18
-12
-9
-7
-3
1
2
1
0
0
0
0
0
0
-2
-4
-4
-4
-5
-6
-5
-4
-4
-4
-4
-4
-2
0
0
0
2
5
8
10
11
14
18
20
21
23
25
26
27
31
37
38
37
37
39
41
43
45
44
48
48
48
48
48
48
49
50
46
42
40
38
39
40
39
38
37
35
32
30
31
32
31
29
27
26
25
24
24
24
23
22
21
20
20
20
21
24
27
28
28
34
40
47
54
55
56
54
52
51
50
47
44
42
40
38
34
28
26
34
38
40
39
33
29
26
21
16
9
1
-2
-1
-1
-3
-4
-5
-4
-1
0
-1
1
5
-9
-26
10
48
113
178
243
308
373
438
503
536
471
405
340
274
208
143
77
19
-30
-44
-17
-6
-11
-15
-18
-23
-28
-33
-38
-37
-32
-30
-30
-30
-30
-32
-35
-35
-33
-32
-32
-32
-34
-35
-36
-35
-34
-34
-34
-37
-40
-40
-40
-38
-36
-36
-36
-38
-40
-40
-40
-40
-40
-40
-42
-46
-48
-48
-48
-47
-49
-54
-59
-63
-64
-65
-69
-73
-78
-83
-88
-93
-97
-100
-103
-106
-109
-112
-115
-118
-114
-110
-111
-111
-105
-98
-88
-78
-66
-55
-46
-35
-24
-15
-9
-4
1
5
8
10
11
14
17
16
13
12
13
13
11
10
9
7
5
4
4
5
6
5
4
4
4
4
4
5
6
7
8
9
10
11
13
16
18
19
20
20
21
23
25
27
29
31
32
31
31
33
34
34
34
33
32
33
35
37
38
38
38
36
38
40
37
34
29
24
22
20
17
14
15
16
17
18
16
14
13
12
13
15
18
18
14
18
28
34
38
38
35
34
34
34
35
33
29
28
29
30
29
19
10
17
24
25
26
18
12
10
7
-1
-9
-15
-20
-19
-18
-17
-16
-16
-17
-20
-23
-25
-21
-11
-14
-28
-33
-31
12
73
137
202
267
332
397
462
414
349
283
218
152
86
21
-41
-50
-56
-35
-16
-9
-7
-23
-36
-38
-41
-47
-52
-50
-46
-40
-39
-46
-49
-46
-47
-53
-54
-48
-44
-40
-42
-48
-48
-43
-45
-49
-48
-45
-49
-55
-49
-41
-47
-40
-55
-54
-54
-54
-54
-54
-53
-52
-53
-54
-57
-60
-57
-56
-63
-68
-67
-69
-76
-80
-80
-80
-81
-84
-88
-94
-103
-106
-107
-109
-111
-115
-119
-118
-115
-114
-114
-113
-111
-104
-97
-81
-66
-58
-50
-44
-37
-25
-13
-6
0
1
3
7
10
8
5
1
-2
0
2
1
0
1
4
8
5
-4
-8
-8
-7
-5
-4
-3
0
3
3
1
-1
-3
-3
-1
2
6
9
12
15
18
18
18
19
20
21
22
25
28
28
28
28
29
32
34
33
32
29
28
29
30
31
31
29
28
27
26
26
26
25
23
21
21
23
22
19
18
18
14
12
14
16
15
14
13
12
11
10
11
12
14
16
14
12
14
16
18
21
24
28
33
37
40
43
46
47
45
41
36
37
41
41
39
35
31
30
29
31
35
33
30
26
22
18
13
5
-2
-2
-2
-3
-4
-5
-6
-5
-4
-2
1
4
1
-10
-11
-1
39
104
169
234
299
364
429
494
464
399
333
268
202
137
71
6
-36
-76
-47
-14
-12
-10
-16
-22
-25
-29
-37
-43
-36
-30
-30
-30
-32
-34
-35
-36
-34
-32
-32
-32
-33
-35
-37
-38
-38
-38
-38
-38
-39
-40
-41
-42
-41
-40
-40
-40
-40
-40
-41
-42
-42
-42
-42
-43
-44
-46
-48
-48
-48
-54
-58
-60
-62
-64
-67
-70
-74
-81
-87
-91
-94
-95
-99
-105
-109
-112
-115
-117
-118
-117
-115
-113
-109
-105
-98
-90
-79
-68
-57
-47
-39
-31
-20
-10
-5
0
6
12
14
16
16
16
16
16
14
12
12
12
11
10
8
6
5
4
5
6
6
6
5
4
3
4
8
10
9
8
9
11
13
16
19
20
20
20
22
25
28
31
34
34
34
34
35
40
44
42
40
39
38
38
38
40
42
41
39
34
32
32
32
32
31
29
28
27
26
26
26
25
23
21
19
17
17
19
19
20
15
14
15
16
20
24
23
22
28
32
37
40
43
46
45
43
39
36
35
34
37
36
31
25
19
19
24
26
26
20
11
8
9
6
1
-7
-16
-21
-25
-25
-23
-19
-16
-20
-24
-24
-24
-21
-20
-38
-43
-1
47
112
177
242
307
372
427
469
463
397
332
266
201
135
70
4
-31
-48
-39
-16
-20
-34
-39
-41
-47
-53
-53
-51
-50
-51
-56
-62
-58
-54
-55
-56
-58
-60
-57
-54
-55
-56
-56
-56
-54
-52
-54
-56
-58
-60
-59
-58
-58
-59
-61
-63
-66
-67
-65
-66
-70
-69
-64
-64
-67
-69
-71
-72
-71
-72
-75
-83
-76
-96
-100
-99
-98
-100
-103
-113
-122
-122
-122
-124
-126
-125
-126
-132
-136
-134
-130
-124
-118
-113
-106
-97
-88
-80
-66
-48
-40
-36
-33
-31
-30
-30
-26
-21
-15
-9
-11
-15
-12
-7
-12
-18
-20
-22
-19
-16
-20
-24
-26
-28
-26
-24
-23
-22
-23
-24
-24
-24
-23
-21
-18
-14
-10
-7
-5
-7
-13
-15
-11
-8
-5
-6
-9
-7
-3
-2
-2
1
5
2
-3
-2
2
0
-2
-3
-4
-3
-2
-2
-2
-2
-2
-3
-4
-4
-4
-5
-6
-8
-11
-14
-16
-17
-18
-19
-20
-20
-20
-19
-17
-15
-17
-22
-21
-17
-17
-19
-20
-20
-15
-9
-7
-8
-1
2
6
10
11
12
12
12
12
12
10
8
8
8
7
3
-5
-8
-3
1
6
3
-9
-14
-14
-14
-15
-22
-32
-37
-39
-40
-39
-38
-37
-36
-36
-36
-36
-32
-27
-39
-52
-30
-5
60
125
190
255
320
385
450
481
416
350
284
219
153
88
22
-29
-64
-69
-43
-35
-44
-49
-52
-55
-57
-60
-64
-64
-61
-60
-59
-58
-58
-57
-55
-57
-61
-62
-60
-58
-56
-57
-58
-59
-60
-60
-60
-57
-54
-56
-58
-60
-62
-61
-60
-59
-58
-60
-62
-63
-64
-63
-62
-62
-64
-68
-72
-75
-76
-76
-77
-79
-85
-92
-98
-103
-104
-105
-109
-106
-120
-126
-129
-132
-132
-132
-135
-138
-138
-137
-132
-126
-117
-107
-98
-89
-80
-69
-57
-46
-37
-29
-23
-18
-14
-9
-4
0
3
4
4
4
3
2
3
4
3
2
1
-1
-3
-3
-2
-2
-2
-2
-2
-2
-2
-1
0
0
0
2
4
6
8
10
12
13
15
18
21
23
26
30
32
31
31
33
36
39
40
41
42
42
42
43
44
44
43
41
40
40
41
42
41
40
36
32
32
32
33
34
33
32
29
26
26
26
26
26
25
24
21
20
21
22
23
24
24
24
25
31
38
43
47
48
47
46
45
43
41
39
40
31
26
26
26
20
15
25
34
35
34
25
18
18
16
9
1
-8
-14
-12
-10
-11
-12
-13
-13
-11
-10
-10
-10
-9
-19
-35
-11
28
87
152
217
282
347
412
477
542
480
414
349
283
218
152
87
25
-18
-48
-28
-13
-21
-26
-27
-30
-36
-42
-47
-49
-46
-43
-40
-38
-39
-42
-46
-47
-45
-44
-43
-43
-45
-46
-47
-46
-43
-42
-42
-45
-49
-50
-48
-47
-46
-46
-46
-48
-50
-50
-50
-50
-50
-49
-48
-47
-47
-51
-54
-54
-54
-52
-52
-59
-65
-71
-76
-80
-85
-90
-95
-100
-102
-102
-105
-111
-114
-117
-121
-125
-122
-117
-112
-116
-96
-86
-80
-73
-62
-50
-36
-24
-21
-17
-12
-8
-5
-1
4
8
10
12
14
15
12
9
7
6
7
7
4
2
2
2
3
4
5
6
6
3
-1
-1
1
2
1
1
2
5
8
9
10
11
12
16
20
17
14
11
10
18
24
23
23
27
29
26
24
23
22
22
21
19
19
23
23
21
17
13
12
12
14
17
18
18
14
9
8
6
13
20
13
6
4
2
1
0
3
6
6
5
0
-3
1
4
6
7
3
4
15
22
26
28
28
30
34
35
33
30
25
25
27
24
17
10
3
6
11
17
12
13
2
8
13
1
-11
-18
-24
-25
-26
-28
-29
-23
-19
-22
-24
-23
-19
-9
-14
-37
-36
-13
34
99
164
229
294
359
424
489
457
392
326
261
195
130
64
-1
-33
-63
-45
-26
-24
-22
-34
-44
-44
-44
-48
-52
-49
-47
-52
-55
-51
-48
-48
-48
-46
-45
-49
-51
-49
-49
-52
-55
-58
-57
-52
-47
-42
-45
-52
-56
-59
-58
-55
-52
-49
-49
-51
-55
-60
-61
-62
-59
-56
-57
-58
-62
-66
-65
-65
-70
-75
-80
-84
-86
-90
-96
-101
-104
-109
-116
-120
-120
-121
-123
-124
-124
-125
-127
-125
-120
-114
-108
-101
-94
-82
-70
-57
-45
-37
-44
-22
-16
-8
0
4
8
8
8
10
12
13
14
15
15
12
10
10
10
11
12
11
9
7
6
7
9
11
12
12
12
13
15
17
21
25
26
25
26
29
32
35
39
42
43
44
46
48
50
52
53
54
56
58
58
58
60
62
63
63
60
58
58
59
61
61
59
57
55
54
55
55
53
52
51
50
49
48
48
48
47
45
43
42
40
42
44
42
40
39
38
40
42
44
47
51
55
60
64
66
68
70
71
67
63
60
58
59
58
54
49
44
45
50
54
57
54
48
44
41
36
31
24
17
15
16
11
10
10
10
11
12
11
10
16
18
5
0
16
49
114
179
244
309
374
439
504
503
437
372
306
241
175
109
44
-10
-59
-43
-4
8
15
8
-2
-7
-11
-20
-29
-24
-18
-16
-14
-16
-18
-19
-20
-18
-16
-17
-18
-19
-20
-20
-20
-20
-20
-21
-22
-23
-24
-23
-22
-23
-24
-24
-24
-25
-26
-27
-28
-27
-26
-26
-28
-31
-32
-31
-31
-33
-35
-38
-40
-42
-44
-46
-52
-58
-61
-64
-68
-73
-78
-82
-85
-89
-94
-98
-99
-100
-100
-100
-99
-96
-92
-85
-76
-65
-54
-44
-33
-22
-11
-4
2
8
15
18
21
27
33
34
34
30
28
29
30
30
30
28
26
25
24
24
24
24
24
22
20
20
20
22
24
23
22
23
24
25
28
32
34
35
36
35
36
39
42
45
46
47
48
48
49
51
53
54
54
54
54
54
56
58
56
54
53
52
52
52
52
52
51
50
48
46
45
44
44
44
43
41
39
38
38
38
39
40
40
40
40
41
43
52
61
64
67
68
70
73
76
71
66
64
62
59
56
52
46
38
34
43
51
54
54
47
41
38
33
24
17
10
7
10
9
4
2
3
4
4
4
3
5
9
0
-12
8
32
95
34
226
291
356
421
486
533
468
402
337
271
206
140
75
21
-6
-18
-1
10
8
1
-10
-15
-13
-18
-29
-31
-25
-22
-21
-18
-15
-17
-22
-25
-27
-27
-25
-24
-23
-23
-25
-24
-22
-21
-20
-23
-26
-27
-28
-26
-24
-27
-29
-23
-20
-28
-34
-34
-34
-32
-31
-34
-36
-35
-35
-38
-41
-43
-44
-45
-48
-51
-53
-55
-60
-66
-73
-79
-82
-85
-88
-91
-92
-94
-94
-94
-95
-96
-92
-88
-83
-77
-69
-60
-50
-38
-24
-13
-10
-4
7
15
19
22
19
21
28
33
36
32
22
19
21
22
23
27
31
31
29
23
17
16
15
17
14
19
16
19
22
24
26
26
26
24
22
24
28
35
39
36
34
33
33
37
40
37
36
37
38
37
37
40
42
41
41
43
43
41
41
43
43
41
40
39
36
33
34
36
35
34
33
32
33
34
35
35
30
26
27
28
32
33
28
24
23
22
22
24
29
31
28
26
26
26
26
30
36
40
43
46
49
50
51
56
61
57
51
50
52
49
46
49
51
40
31
38
44
44
43
39
35
31
26
20
15
11
8
8
8
5
3
1
2
6
8
9
9
7
-1
-11
17
58
118
183
248
313
378
443
490
447
471
405
340
274
209
143
78
20
-7
-23
-2
11
-3
-12
-12
-14
-21
-26
-26
-25
-22
-20
-21
-22
-21
-20
-21
-22
-21
-20
-21
-22
-22
-22
-21
-20
-21
-23
-25
-26
-26
-24
-22
-23
-24
-25
-26
-27
-28
-27
-26
-27
-28
-30
-32
-32
-32
-33
-34
-36
-39
-42
-45
-48
-52
-56
-60
-64
-69
-76
-80
-83
-85
-87
-92
-98
-101
-103
-104
-104
-104
-104
-101
-96
-88
-80
-71
-61
-50
-39
-29
-19
-11
-3
4
11
15
19
23
27
30
32
33
34
33
32
31
30
29
28
27
26
26
25
23
22
22
22
22
22
21
21
23
24
24
26
26
31
36
37
38
38
38
41
44
47
50
52
54
55
56
57
59
63
66
66
66
66
66
66
66
66
66
66
65
63
62
62
63
65
63
59
56
53
52
53
54
54
51
48
45
42
43
44
45
46
43
40
40
40
40
40
42
44
45
46
48
53
60
65
67
67
65
64
64
60
54
54
57
52
44
42
41
41
43
48
53
52
48
42
36
36
35
24
14
9
4
4
4
6
8
6
4
3
4
10
9
-5
-7
4
44
109
174
239
304
369
434
499
471
406
340
275
209
144
78
13
-27
-64
-31
-66
5
4
-6
-16
-17
-19
-26
-32
-28
-24
-23
-21
-16
-12
-13
-14
-16
-18
-19
-20
-21
-23
-25
-27
-29
-30
-31
-31
-29
-28
-29
-30
-30
-30
-29
-30
-33
-34
-35
-36
-36
-33
-30
-31
-32
-36
-40
-45
-50
-49
-48
-49
-51
-59
-65
-69
-72
-72
-74
-79
-83
-87
-91
-94
-96
-97
-99
-101
-102
-102
-102
-102
-96
-88
-80
-72
-64
-56
-43
-30
-18
-7
-6
-4
2
8
9
10
16
22
23
24
22
20
18
16
18
19
15
12
11
10
9
7
4
3
6
8
8
8
9
10
9
9
11
12
12
12
13
16
19
20
20
22
20
25
24
23
22
21
20
23
26
25
24
25
26
29
31
27
24
23
22
21
22
27
29
26
22
16
14
15
16
17
13
5
2
3
4
4
4
3
3
5
6
5
4
4
5
6
3
0
0
0
2
4
6
8
7
7
14
18
19
20
22
24
25
26
26
26
27
25
19
16
17
11
1
2
8
10
10
6
1
0
1
-6
-15
-24
-34
-37
-40
-38
-36
-34
-32
-33
-33
-28
-24
-24
-28
-45
-46
-14
31
96
161
226
291
356
421
486
477
411
346
280
214
149
83
18
-20
-50
-42
-25
-38
-58
-60
-60
-60
-60
-68
-74
-73
-72
-69
-66
-65
-64
-64
-64
-66
-68
-67
-66
-65
-65
-68
-70
-71
-72
-69
-68
-68
-69
-71
-73
-76
-76
-72
-70
-70
-73
-77
-78
-79
-79
-77
-78
-81
-84
-87
-90
-92
-93
-94
-98
-102
-107
-112
-116
-120
-123
-127
-133
-139
-144
-148
-150
-152
-153
-155
-158
-160
-159
-155
-149
-143
-137
-128
-118
-107
-97
-85
-73
-63
-54
-48
-43
-38
-33
-29
-25
-24
-22
-22
-22
-19
-16
-16
-16
-17
-18
-20
-22
-22
-22
-24
-26
-26
-26
-27
-28
-26
-24
-23
-22
-21
-20
-19
-17
-15
-14
-14
-12
-7
-4
-1
1
3
4
5
6
7
11
8
15
14
15
16
17
18
20
22
23
24
23
22
20
18
18
18
17
16
14
12
11
10
10
10
9
6
2
0
1
2
1
0
-1
-2
-2
-2
-2
-4
-7
-7
-5
-5
-6
-4
-2
1
4
10
16
19
22
19
16
18
19
14
10
12
12
4
0
-2
-3
-1
1
4
6
6
1
-7
-10
-10
-16
-25
-31
-35
-36
-37
-37
-35
-34
-35
-37
-40
-36
-32
-35
-38
-42
-37
21
81
146
211
276
341
406
427
361
296
230
165
99
34
-32
-83
-121
-112
-66
-42
-32
-36
-48
-54
-57
-61
-65
-65
-63
-63
-65
-66
-66
-64
-66
-57
-54
-60
-66
-66
-66
-64
-62
-63
-64
-65
-66
-66
-66
-65
-64
-64
-64
-66
-68
-68
-68
-67
-66
-66
-67
-69
-70
-70
-70
-70
-72
-75
-78
-81
-82
-82
-83
-85
-90
-95
-100
-104
-104
-104
-108
-112
-117
-122
-124
-126
-126
-127
-131
-134
-133
-131
-128
-124
-116
-106
-93
-82
-73
-63
-53
-43
-34
-27
-22
-17
-12
-8
-5
-4
-3
-2
-2
-2
-3
-7
-11
-12
-12
-12
-12
-12
-12
-14
-16
-15
-14
-10
-6
-8
-10
-9
-8
-10
-10
-5
-2
-1
0
-3
-4
-3
1
7
9
6
6
10
11
9
10
13
14
13
10
7
6
7
8
8
9
8
7
6
5
4
11
16
10
5
-2
-8
-5
-1
4
7
3
-2
-8
-11
-6
-3
0
2
1
-3
-8
-8
-5
-3
-1
-2
-5
-2
3
10
17
18
19
22
25
27
28
23
18
13
8
4
0
2
4
4
5
10
13
8
4
2
-3
-11
-19
-26
-31
-34
-36
-36
-34
-30
-30
-34
-33
-28
-24
-21
-31
-45
-48
-47
5
65
129
194
259
325
390
447
382
316
251
185
120
54
-11
-64
-78
-81
-54
-33
-23
-23
-41
-51
-47
-50
-65
-72
-71
-68
-62
-61
-63
-62
-59
-60
-65
-61
-54
-55
-59
-61
-63
-64
-65
-66
-66
-66
-64
-62
-60
-62
-64
-65
-66
-64
-62
-62
-62
-63
-64
-65
-66
-68
-70
-70
-70
-73
-76
-80
-83
-85
-87
-90
-92
-93
-99
-107
-113
-117
-119
-121
-125
-129
-132
-135
-136
-137
-137
-136
-134
-132
-128
-123
-113
-102
-90
-78
-67
-57
-49
-42
-34
-26
-19
-14
-12
-10
-9
-6
-2
0
1
1
-2
-4
-4
-4
-3
-2
-3
-6
-9
-10
-11
-9
-5
-4
-3
-3
-6
-5
-4
0
4
5
6
7
8
9
11
16
20
21
22
24
27
30
32
34
36
37
39
41
43
45
46
46
45
43
41
39
40
43
44
43
42
41
39
37
37
36
38
36
33
30
30
30
28
26
26
26
25
24
23
22
21
20
19
18
18
18
19
21
23
23
21
22
26
33
41
45
47
48
47
46
46
44
41
40
40
34
27
26
26
26
26
30
34
34
33
27
22
20
16
7
-1
-6
-10
-9
-8
-8
-8
-9
-10
-10
-7
-1
-5
-17
-17
-9
37
101
165
230
295
360
425
490
442
377
311
246
180
114
49
-15
-61
-98
-54
-16
-9
-6
-18
-28
-29
-32
-39
-43
-39
-36
-38
-40
-38
-36
-37
-38
-38
-38
-38
-38
-38
-38
-39
-40
-40
-40
-40
-40
-41
-43
-45
-45
-43
-42
-42
-46
-48
-48
-48
-47
-46
-47
-48
-50
-52
-52
-52
-52
-53
-56
-59
-63
-66
-68
-70
-71
-75
-81
-87
-93
-96
-97
-100
-104
-108
-112
-117
-122
-123
-121
-117
-113
-111
-109
-101
-93
-78
-64
-52
-40
-31
-22
-17
-11
-2
7
14
20
19
18
19
20
21
22
21
19
16
12
8
5
2
1
3
4
4
4
3
2
3
5
7
8
7
6
7
10
13
14
16
18
20
22
24
24
24
26
28
27
26
29
32
33
34
33
32
31
30
30
30
33
34
33
31
28
29
34
34
30
29
31
31
29
25
21
20
20
15
9
12
8
17
16
13
10
15
20
20
20
21
22
20
20
27
33
38
42
42
42
44
43
34
32
36
37
34
31
29
24
18
21
29
33
35
26
13
12
15
6
-7
-11
-15
-16
-16
-16
-16
-15
-14
-18
-22
-16
-11
-5
-5
-27
-31
5
51
116
181
246
311
376
413
422
391
325
260
194
129
63
-3
-68
-66
-39
-20
-3
-12
-28
-34
-39
-42
-45
-50
-56
-48
-40
-42
-44
-44
-44
-47
-50
-50
-50
-50
-50
-48
-46
-46
-46
-45
-46
-51
-54
-54
-53
-50
-48
-48
-52
-59
-60
-57
-56
-55
-54
-53
-54
-57
-59
-61
-63
-65
-63
-66
-62
-66
-72
-78
-80
-82
-85
-88
-94
-99
-105
-110
-110
-110
-112
-116
-122
-126
-128
-129
-124
-120
-115
-110
-106
-100
-91
-78
-63
-52
-43
-34
-26
-20
-15
-9
-3
2
7
12
17
20
22
20
18
19
19
11
4
4
4
3
2
1
0
-4
-6
-6
-6
-5
-3
0
4
9
13
15
15
13
15
20
26
34
40
46
49
51
54
57
61
65
76
87
83
76
65
54
47
40
35
30
29
28
28
28
27
25
21
18
19
20
19
19
23
17
-4
-7
7
51
116
181
246
311
376
441
506
472
407
341
276
210
145
79
14
4
10
3
10
-6
-20
-24
-28
-28
-29
-38
-45
-40
-36
-34
-32
-32
-32
-34
-36
-36
-36
-35
-34
-35
-37
-39
-40
-40
-38
-35
-35
-37
-40
-43
-43
-41
-40
-39
-40
-43
-44
-44
-44
-44
-44
-44
-46
-48
-51
-54
-53
-52
-54
-57
-61
-65
-70
-74
-75
-77
-80
-83
-87
-91
-93
-95
-97
-98
-98
-96
-92
-87
-82
-73
-63
-54
-46
-36
-26
-15
-3
3
9
12
16
18
20
22
24
23
22
20
18
17
16
15
14
12
10
8
6
7
8
8
8
5
5
7
8
9
10
10
10
10
10
10
12
15
16
17
18
18
18
19
22
20
25
24
23
22
24
26
27
28
28
28
28
28
27
26
25
24
25
25
21
18
19
20
20
20
20
19
17
16
16
16
17
15
11
10
10
10
9
8
8
8
9
8
6
6
6
6
6
5
4
5
6
4
2
2
2
1
0
2
4
2
0
0
0
1
2
1
0
0
0
1
2
2
2
1
-1
-3
-4
-3
1
5
4
1
0
0
0
0
2
4
1
-2
-3
-4
-3
-2
1
4
3
2
1
0
1
2
2
2
1
0
0
1
4
6
6
5
3
2
1
1
3
4
4
3
1
2
5
8
6
13
14
16
18
25
32
36
40
39
38
38
38
37
36
36
34
27
22
21
20
20
23
30
34
34
31
25
22
23
19
12
4
-6
-6
-3
-2
-2
-2
-2
-2
-3
1
6
-10
-23
17
60
125
190
255
320
385
450
515
540
474
409
343
278
212
147
81
31
-5
-12
6
8
-3
-11
-18
-22
-25
-28
-31
-31
-29
-29
-31
-30
-27
-26
-26
-27
-30
-32
-34
-32
-30
-31
-32
-34
-36
-37
-38
-35
-32
-34
-36
-38
-40
-41
-41
-38
-36
-39
-41
-43
-44
-43
-42
-43
-45
-47
-50
-55
-56
-57
-59
-61
-64
-67
-74
-81
-83
-82
-91
-96
-100
-104
-109
-114
-114
-114
-115
-116
-115
-114
-112
-108
-102
-95
-86
-76
-66
-54
-39
-27
-15
-5
6
15
24
31
36
41
46
50
53
56
59
60
61
61
59
58
59
60
60
59
58
57
56
57
58
61
64
63
62
59
57
61
64
66
68
68
68
70
74
78
82
86
87
85
85
89
91
93
97
101
101
99
99
101
104
107
108
108
106
102
102
102
103
104
103
102
100
98
98
98
98
98
95
92
92
92
91
90
90
89
86
83
81
80
79
77
74
70
66
64
63
62
62
62
61
59
57
56
57
58
58
55
54
52
50
52
54
53
52
52
52
52
52
50
48
47
46
48
51
55
58
55
56
61
65
68
73
79
80
77
76
77
72
64
64
67
63
57
56
55
50
45
52
60
64
68
56
46
44
41
30
22
20
18
18
18
22
24
22
20
20
20
22
15
-3
9
48
102
167
232
297
362
427
453
465
417
352
286
221
155
90
24
-41
-16
14
23
31
12
-6
-9
-12
-16
-20
-24
-27
-20
-14
-16
-18
-18
-17
-14
-13
-16
-18
-19
-21
-23
-24
-24
-24
-25
-25
-23
-19
-14
-16
-22
-28
-33
-32
-29
-28
-28
-29
-28
-31
-30
-24
-18
-21
-24
-29
-35
-42
-48
-47
-46
-45
-45
-48
-54
-65
-72
-70
-70
-75
-82
-90
-95
-97
-98
-98
-97
-95
-96
-100
-102
-101
-94
-86
-83
-81
-72
-63
-52
-41
-30
-20
-14
-8
-3
2
5
8
14
18
15
12
11
10
12
14
15
16
14
12
12
12
11
10
11
12
12
12
11
11
13
15
17
15
11
10
11
16
21
22
22
23
26
27
28
31
34
34
34
33
32
32
32
34
36
36
36
35
34
36
38
37
35
32
30
30
30
29
28
28
26
23
22
22
22
23
24
23
21
19
18
18
18
18
21
22
19
16
17
18
18
18
17
16
14
12
15
18
18
18
17
16
16
17
22
25
27
28
27
29
35
42
48
50
49
48
48
46
43
42
41
41
43
40
35
30
26
32
38
41
43
35
28
28
28
25
20
8
0
0
0
1
2
2
2
3
4
3
4
8
2
-12
6
44
100
165
230
295
360
425
454
475
421
356
290
225
159
93
28
-34
-36
-36
-16
1
-11
-20
-20
-21
-28
-34
-34
-33
-30
-28
-26
-24
-25
-26
-29
-30
-29
-28
-27
-26
-27
-28
-29
-30
-30
-30
-31
-32
-31
-31
-33
-34
-33
-31
-32
-30
-32
-33
-34
-33
-32
-33
-34
-35
-36
-38
-40
-38
-37
-40
-43
-49
-52
-53
-55
-60
-63
-65
-70
-77
-81
-84
-86
-87
-90
-93
-96
-99
-100
-100
-97
-93
-89
-85
-78
-71
-58
-46
-35
-24
-18
-12
-7
-1
7
14
18
23
27
30
34
36
36
36
34
32
30
27
24
21
18
13
8
7
11
12
13
15
17
18
17
18
21
22
21
21
23
24
26
26
26
31
36
35
34
38
42
45
48
47
46
47
48
47
46
46
46
45
44
45
47
49
50
50
49
46
40
34
33
35
36
35
34
33
32
31
28
25
26
24
30
30
22
14
14
14
14
14
14
14
13
12
13
13
10
8
6
4
5
7
12
14
14
14
15
19
24
28
32
33
31
32
35
34
31
30
30
23
15
22
31
20
8
14
20
21
21
12
4
6
7
2
-4
-13
-20
-21
-22
-21
-21
-25
-28
-28
-27
-24
-22
-22
-28
-38
-19
18
74
139
204
269
334
399
429
451
397
332
266
201
135
69
4
-58
-49
-39
-21
-9
-34
-54
-51
-49
-53
-56
-54
-52
-54
-56
-57
-57
-54
-52
-55
-58
-63
-61
-50
-49
-55
-61
-66
-67
-65
-63
-61
-60
-60
-64
-69
-70
-69
-65
-68
-62
-64
-65
-66
-65
-64
-64
-64
-66
-68
-73
-76
-75
-74
-76
-79
-82
-85
-88
-91
-94
-98
-102
-106
-110
-115
-120
-122
-123
-126
-129
-130
-131
-132
-132
-129
-125
-121
-117
-108
-99
-89
-80
-71
-62
-55
-48
-42
-35
-28
-22
-19
-16
-14
-12
-11
-10
-9
-8
-10
-12
-12
-12
-11
-10
-10
-10
-11
-12
-13
-14
-14
-14
-14
-14
-14
-13
-11
-8
-5
-3
-1
0
-2
0
2
7
12
12
12
14
16
18
20
20
20
19
18
20
22
23
24
26
28
25
24
25
26
25
24
23
21
19
18
17
16
17
18
17
15
13
12
13
14
14
10
8
7
6
6
6
5
4
5
6
5
4
2
0
1
2
1
0
2
4
7
8
8
8
9
13
19
24
28
30
29
28
29
30
29
27
25
21
17
16
16
10
4
11
18
18
18
10
4
7
9
2
-7
-19
-28
-26
-24
-22
-20
-20
-21
-25
-27
-24
-20
-16
-23
-38
-17
26
84
149
214
279
344
409
437
457
403
338
272
207
141
75
10
-52
-48
-43
-27
-15
-28
-38
-41
-45
-49
-52
-53
-54
-53
-52
-53
-53
-50
-48
-51
-52
-52
-52
-53
-54
-53
-53
-55
-56
-56
-56
-56
-56
-56
-56
-57
-58
-57
-56
-56
-58
-58
-59
-60
-61
-62
-60
-58
-59
-60
-63
-66
-66
-66
-67
-69
-73
-77
-80
-82
-85
-88
-93
-97
-100
-103
-106
-108
-109
-111
-113
-115
-117
-117
-115
-114
-113
-112
-111
-106
-101
-90
-80
-67
-54
-47
-40
-34
-28
-24
-19
-11
-4
-2
0
-2
-4
-2
0
0
0
0
-3
-9
-10
-6
-5
-7
-9
-11
-13
-15
-13
-9
-9
-11
-12
-11
-9
-7
-6
-7
-3
4
2
0
1
2
8
14
12
10
8
6
7
9
14
18
16
14
13
12
13
14
14
15
18
17
11
9
11
12
11
9
7
5
3
2
3
4
4
4
3
0
2
-4
-4
-5
-6
-7
-8
-8
-8
-12
-16
-15
-14
-13
-10
-3
0
-6
-10
-9
-8
-5
-1
6
12
18
17
12
8
5
6
10
12
13
10
3
1
-1
-4
-7
-4
1
0
-2
-11
-20
-16
-12
-17
-24
-37
-47
-39
-32
-33
-35
-40
-45
-49
-51
-47
-40
-31
-35
-53
-51
-31
16
81
146
211
276
341
406
471
435
370
304
239
173
108
42
-23
-46
-68
-50
-33
-51
-68
-69
-70
-71
-72
-75
-78
-75
-72
-74
-75
-71
-68
-69
-70
-69
-68
-71
-73
-75
-76
-75
-74
-73
-72
-73
-74
-75
-76
-76
-76
-75
-74
-74
-76
-79
-78
-80
-75
-76
-80
-84
-83
-82
-83
-84
-87
-90
-95
-98
-98
-98
-100
-103
-107
-113
-120
-124
-127
-128
-129
-132
-138
-141
-143
-144
-145
-146
-145
-144
-143
-139
-135
-127
-118
-107
-97
-89
-81
-72
-64
-56
-48
-44
-40
-39
-37
-31
-26
-23
-20
-20
-20
-24
-26
-26
-26
-25
-24
-26
-28
-28
-28
-29
-30
-29
-28
-28
-28
-28
-26
-23
-22
-22
-22
-22
-20
-17
-15
-13
-12
-10
-7
-4
-4
-4
-1
2
5
8
7
6
8
10
12
14
12
10
11
12
11
10
11
11
9
8
7
6
6
6
5
4
3
1
-1
-2
-1
0
-1
-2
-3
-4
-4
-5
-6
-8
-10
-10
-10
-10
-10
-9
-8
-10
-12
-13
-13
-10
-8
-8
-8
-6
-3
2
6
11
15
18
20
19
17
15
13
11
10
11
7
0
-1
1
-1
-5
-1
5
8
10
2
-6
-6
-7
-15
-23
-31
-38
-36
-34
-33
-32
-32
-33
-36
-36
-31
-30
-36
-40
-40
-11
43
104
169
234
299
364
429
399
334
268
203
137
72
6
-59
-90
-119
-82
-42
-32
-22
-35
-46
-47
-49
-57
-64
-60
-56
-55
-54
-54
-54
-55
-56
-55
-54
-53
-52
-55
-56
-56
-56
-56
-56
-55
-54
-55
-57
-59
-59
-57
-55
-53
-54
-57
-58
-57
-56
-56
-55
-52
-56
-60
-61
-62
-60
-58
-60
-62
-65
-68
-70
-72
-71
-71
-75
-78
-79
-82
-87
-91
-94
-101
-110
-115
-118
-120
-120
-120
-119
-117
-115
-110
-103
-95
-86
-74
-63
-53
-43
-36
-30
-25
-20
-8
2
1
0
3
6
8
10
8
6
2
0
2
4
6
6
0
-4
-4
-4
-3
-1
1
1
-3
-2
1
4
7
5
1
0
1
7
13
14
14
16
20
18
16
17
18
22
26
26
26
26
27
31
34
32
30
28
27
31
34
33
31
26
25
27
28
27
24
20
20
23
22
17
16
17
15
11
10
11
12
13
13
14
7
4
6
8
4
0
-3
-6
-5
-3
3
8
8
9
14
19
25
28
28
27
24
21
18
19
25
27
25
24
24
22
19
18
19
16
9
10
13
14
13
8
3
2
2
-6
-14
-19
-24
-23
-22
-24
-26
-26
-26
-23
-20
-18
-19
-29
-36
-35
-11
41
100
165
230
295
360
425
408
342
276
211
145
80
14
-51
-63
-63
-46
-24
-16
-9
-25
-44
-45
-46
-51
-56
-51
-46
-47
-48
-49
-50
-48
-46
-45
-45
-49
-52
-51
-50
-48
-46
-45
-45
-47
-49
-51
-51
-49
-47
-45
-46
-49
-50
-50
-48
-45
-44
-45
-48
-51
-52
-52
-50
-50
-53
-56
-58
-60
-62
-64
-66
-68
-73
-77
-81
-85
-88
-90
-92
-96
-102
-107
-112
-114
-113
-112
-112
-112
-112
-109
-104
-99
-94
-84
-73
-63
-54
-45
-36
-27
-19
-15
-11
-5
0
4
8
10
12
12
12
11
10
12
14
11
8
6
4
6
8
8
8
7
6
5
4
5
7
9
10
9
9
11
14
17
18
19
20
21
23
25
29
33
34
36
37
38
41
44
44
44
44
44
44
44
46
48
47
46
45
44
44
44
45
45
42
40
39
38
37
36
36
36
36
34
31
30
29
30
33
31
27
26
25
25
24
27
26
24
22
21
20
22
24
24
24
26
28
28
30
37
43
49
52
52
52
55
56
56
53
47
45
48
46
40
38
39
36
30
32
39
41
43
40
35
31
27
20
14
9
4
5
6
2
-2
-1
0
1
2
5
7
0
-5
-9
11
68
129
194
259
324
389
454
443
377
312
246
180
115
49
-16
-49
-72
-45
-7
3
9
4
-3
-5
-8
-15
-22
-21
-20
-23
-26
-21
-16
-20
-24
-23
-22
-22
-22
-21
-20
-22
-24
-26
-27
-24
-22
-23
-25
-28
-30
-29
-28
-28
-28
-27
-29
-33
-31
-27
-27
-29
-31
-33
-34
-34
-37
-38
-40
-42
-42
-42
-46
-50
-51
-52
-54
-57
-63
-69
-73
-78
-84
-88
-90
-92
-95
-96
-95
-94
-94
-89
-80
-73
-68
-61
-53
-44
-34
-25
-16
-7
2
4
5
7
9
16
22
27
32
27
22
22
22
21
20
22
24
21
18
17
17
20
21
17
14
13
12
11
13
19
22
23
25
29
26
20
18
19
22
25
29
33
36
39
40
41
40
36
36
36
39
42
42
42
41
40
37
36
44
50
48
45
40
34
29
26
27
28
29
30
30
30
30
29
26
24
23
22
23
20
14
12
12
19
27
27
25
23
24
12
4
11
18
20
22
23
24
28
32
33
34
36
39
42
43
37
34
35
36
36
33
26
20
16
17
23
30
36
32
23
21
23
18
10
-3
-16
-18
-17
-19
-23
-17
-10
-13
-16
-17
-18
-12
-8
-22
-32
-21
5
69
134
199
264
329
394
459
466
400
335
269
204
138
73
7
-33
-58
-50
-27
-20
-19
-26
-36
-38
-39
-46
-53
-48
-41
-40
-42
-42
-42
-42
-42
-42
-42
-42
-42
-41
-40
-41
-42
-43
-44
-44
-44
-44
-44
-44
-44
-44
-44
-45
-46
-46
-46
-46
-46
-46
-46
-47
-48
-49
-50
-50
-51
-53
-54
-55
-58
-56
-66
-70
-75
-80
-81
-82
-86
-90
-94
-99
-104
-108
-110
-112
-112
-112
-114
-116
-114
-110
-105
-97
-85
-77
-71
-64
-55
-46
-36
-27
-19
-15
-13
-9
-5
1
7
8
8
8
7
4
2
4
6
6
6
2
-2
-2
-2
1
4
2
0
-1
-2
-1
1
4
6
6
6
6
6
7
11
16
18
17
17
19
22
25
27
29
32
35
36
35
34
35
39
44
41
38
38
38
38
38
38
38
36
34
34
34
33
32
31
30
29
28
27
26
26
25
22
20
19
18
19
20
20
18
13
12
12
12
13
14
13
12
12
12
12
15
18
15
12
14
17
28
38
40
42
41
40
39
38
37
36
38
37
29
24
25
24
19
20
27
31
33
28
18
15
17
14
8
-2
-12
-13
-11
-12
-15
-16
-15
-14
-14
-13
-12
-9
-7
-20
-25
19
68
133
198
263
328
393
429
410
372
306
241
175
110
44
-21
-87
-91
-51
-26
-10
-9
-17
-23
-27
-31
-35
-38
-41
-39
-35
-35
-37
-36
-32
-33
-34
-32
-30
-32
-34
-34
-34
-34
-34
-34
-34
-35
-36
-38
-40
-38
-36
-35
-34
-37
-38
-39
-40
-39
-37
-35
-34
-35
-38
-41
-40
-37
-36
-35
-38
-43
-44
-44
-45
-44
-51
-54
-62
-70
-76
-82
-84
-86
-88
-91
-97
-102
-101
-100
-99
-97
-93
-89
-86
-82
-75
-66
-54
-42
-29
-22
-18
-12
-5
1
6
11
16
21
25
25
23
23
25
22
17
13
10
12
14
12
10
7
4
6
9
15
20
17
14
16
18
16
14
16
18
20
21
19
18
18
22
31
34
34
32
29
31
35
39
43
44
43
41
39
39
41
42
42
38
34
33
32
34
36
37
38
37
36
38
40
41
40
31
26
27
28
26
24
27
26
21
17
15
17
22
22
18
16
16
16
15
16
19
22
25
26
26
26
26
30
36
42
48
47
46
43
40
43
45
36
30
29
27
23
23
31
35
31
26
21
17
15
12
8
1
-8
-16
-22
-20
-14
-11
-9
-10
-13
-13
-11
-2
7
-13
-35
-9
20
85
150
215
280
345
410
475
512
447
381
316
250
184
119
53
1
-32
-41
-19
-13
-24
-32
-36
-38
-37
-40
-47
-46
-38
-39
-43
-40
-34
-37
-43
-44
-43
-39
-35
-37
-42
-46
-50
-48
-46
-40
-34
-38
-42
-45
-48
-48
-48
-45
-42
-44
-46
-48
-50
-49
-48
-47
-47
-49
-51
-54
-56
-56
-56
-56
-58
-61
-65
-69
-72
-75
-76
-77
-81
-85
-89
-86
-95
-96
-99
-102
-106
-110
-108
-106
-102
-98
-96
-92
-84
-75
-66
-56
-42
-32
-26
-19
-12
-6
-2
1
3
5
7
8
9
10
10
11
13
11
7
6
7
8
8
8
9
8
6
6
6
7
8
10
12
12
12
13
14
17
20
20
20
22
25
28
30
31
32
33
35
37
40
44
46
46
46
46
46
47
50
53
53
51
50
49
48
48
49
52
49
46
45
44
43
42
42
42
40
38
36
34
37
40
40
39
35
32
31
30
31
32
32
32
31
30
29
30
33
35
37
38
37
40
45
51
57
58
59
60
60
59
58
55
52
53
54
49
44
41
38
41
44
47
48
42
37
34
30
25
18
9
4
4
4
5
5
3
2
3
4
5
10
16
3
-16
3
30
91
156
221
286
352
417
482
537
472
406
341
275
210
144
79
19
-25
-47
-15
6
7
5
-4
-11
-14
-20
-28
-29
-21
-18
-18
-19
-21
-22
-21
-20
-20
-20
-20
-20
-20
-20
-21
-22
-21
-20
-18
-22
-26
-25
-24
-24
-24
-22
-20
-23
-26
-26
-26
-26
-26
-26
-26
-26
-26
-27
-28
-31
-32
-31
-31
-33
-35
-38
-41
-43
-46
-51
-53
-55
-60
-67
-68
-69
-71
-73
-78
-74
-85
-86
-86
-86
-84
-82
-75
-69
-58
-48
-37
-26
-18
-10
-2
5
11
15
19
22
22
25
32
36
37
37
35
34
34
35
37
35
30
24
19
16
13
13
15
16
17
19
20
18
16
19
22
24
26
25
24
25
27
33
38
37
36
38
40
42
45
49
51
48
46
45
46
50
51
49
48
48
47
45
46
49
48
45
44
43
43
45
45
42
40
38
32
26
24
22
27
32
32
31
26
22
23
24
26
27
24
22
20
18
19
21
24
25
23
24
28
35
43
47
49
50
50
47
43
42
43
44
43
36
42
27
26
26
26
30
33
25
18
17
15
9
2
-5
-11
-15
-17
-14
-12
-13
-14
-17
-16
-12
-6
1
-7
-27
-16
11
65
130
195
260
325
390
424
452
398
333
267
202
136
70
5
-55
-41
-27
-12
-2
-19
-32
-33
-35
-39
-42
-43
-44
-44
-44
-42
-39
-36
-36
-41
-45
-48
-47
-42
-40
-41
-44
-48
-49
-47
-41
-34
-34
-37
-44
-51
-51
-49
-48
-46
-46
-46
-48
-50
-54
-58
-53
-48
-51
-54
-54
-55
-60
-65
-68
-70
-71
-72
-74
-76
-79
-82
-86
-90
-94
-98
-102
-104
-105
-108
-111
-112
-113
-114
-113
-110
-107
-104
-101
-92
-100
-70
-58
-51
-44
-38
-32
-27
-22
-16
-12
-9
-6
-6
-6
-4
-2
-2
-2
-2
-2
-5
-7
-9
-9
-7
-7
-9
-10
-11
-12
-12
-11
-9
-8
-9
-10
-11
-10
-7
-4
-1
0
0
1
2
6
10
11
12
12
12
15
18
20
22
23
24
24
24
24
24
26
27
25
24
24
24
23
22
21
20
20
19
17
16
17
18
17
15
13
11
9
8
8
9
10
9
8
7
6
5
4
4
4
2
0
3
6
5
4
5
7
11
15
18
21
24
27
30
32
32
32
32
30
27
26
25
23
21
14
7
10
15
19
16
17
10
10
10
2
-7
-16
-24
-21
-18
-20
-22
-24
-26
-24
-21
-18
-15
-12
-19
-38
-32
0
50
115
180
245
310
375
439
502
469
404
338
273
207
142
76
11
-26
-61
-40
-18
-24
-30
-33
-36
-39
-43
-50
-55
-49
-44
-44
-44
-44
-44
-44
-44
-45
-46
-45
-44
-44
-45
-47
-48
-48
-47
-45
-44
-45
-48
-51
-50
-47
-46
-47
-48
-48
-49
-51
-50
-46
-46
-46
-49
-52
-51
-50
-50
-50
-52
-54
-57
-60
-60
-60
-62
-66
-72
-76
-78
-81
-84
-87
-90
-92
-93
-97
-102
-102
-99
-98
-98
-94
-88
-80
-72
-62
-51
-43
-35
-29
-34
-14
-6
-2
2
4
6
8
10
14
18
17
16
15
14
12
10
11
12
14
16
13
12
13
14
15
16
17
15
10
8
8
8
8
8
8
11
15
19
23
26
29
31
32
33
34
35
36
37
38
44
47
41
36
39
42
43
44
42
40
40
40
42
42
38
39
45
46
42
37
32
29
27
28
31
32
32
32
32
28
23
23
25
23
18
20
22
20
18
16
14
15
17
22
26
28
32
41
47
44
42
41
41
44
45
42
41
43
41
35
32
32
28
21
24
33
34
31
26
21
16
11
6
1
-2
0
-4
-2
-4
-6
-9
-12
-15
-17
-8
0
-2
-8
-26
-25
17
68
133
198
263
328
393
392
326
261
195
130
64
-2
-67
-88
-89
-64
-30
-7
12
-8
-36
-35
-29
-28
-29
-35
-40
-42
-44
-33
-24
-27
-31
-38
-44
-40
-36
-33
-30
-29
-30
-39
-43
-40
-36
-30
-28
-33
-38
-43
-44
-40
-36
-32
-33
-38
-40
-41
-40
-37
-38
-41
-48
-55
-54
-51
-43
-34
-43
-52
-58
-64
-65
-66
-67
-69
-74
-78
-79
-81
-86
-91
-94
-97
-100
-103
-107
-109
-106
-100
-92
-86
-80
-77
-74
-66
-57
-43
-26
-22
-22
-21
-19
-10
1
2
2
2
2
6
8
11
14
14
14
10
6
5
4
4
4
5
5
2
1
4
6
7
8
5
4
4
5
7
8
9
11
13
14
13
15
19
22
25
26
26
26
27
28
29
32
34
35
36
36
36
37
38
38
38
37
36
36
36
35
34
34
34
33
32
32
32
31
29
26
25
27
27
25
23
21
20
21
22
23
24
23
21
19
18
19
20
22
24
26
26
26
33
40
44
48
49
50
49
47
43
40
42
42
37
34
35
32
23
23
33
38
37
31
23
21
23
18
9
0
-8
-9
-7
-6
-6
-6
-7
-8
-8
-7
-6
0
5
-14
-26
5
42
107
172
237
302
367
432
497
514
448
383
317
252
186
121
55
1
-44
-47
-21
-15
-20
-23
-25
-28
-31
-36
-43
-40
-35
-35
-37
-38
-38
-38
-38
-38
-38
-36
-34
-34
-34
-38
-42
-42
-41
-37
-35
-39
-42
-43
-44
-44
-43
-40
-39
-41
-42
-43
-44
-44
-44
-43
-44
-47
-48
-49
-50
-50
-50
-49
-52
-57
-61
-65
-66
-68
-68
-68
-76
-84
-87
-90
-90
-90
-93
-96
-99
-102
-104
-104
-98
-93
-89
-84
-78
-71
-62
-52
-40
-32
-26
-22
-18
-12
-5
0
3
4
5
6
6
7
9
10
9
5
8
-1
-2
-2
-2
-2
-2
-4
-6
-5
-4
-3
-2
-4
-6
-5
-4
-2
1
4
6
5
5
8
10
11
13
16
18
19
20
21
25
30
32
31
30
31
32
32
32
32
33
34
33
32
32
32
33
34
32
30
31
32
32
32
32
32
33
32
26
22
24
24
19
15
13
10
6
7
12
13
11
10
10
14
19
23
27
34
41
38
33
34
38
35
32
27
22
26
29
19
10
14
18
20
22
21
19
15
11
8
2
-10
-18
-23
-26
-27
-28
-28
-28
-27
-26
-27
-28
-27
-25
-23
-27
-34
-36
-35
8
55
119
58
250
315
380
433
368
302
237
171
106
40
-25
-73
-73
-64
-40
-21
-13
-15
-34
-46
-51
-56
-60
-60
-54
-52
-51
-53
-58
-58
-54
-54
-57
-58
-59
-62
-65
-65
-63
-60
-57
-55
-54
-55
-56
-54
-52
-56
-60
-59
-58
-61
-63
-57
-55
-65
-71
-67
-64
-65
-65
-62
-63
-69
-72
-71
-73
-79
-82
-81
-82
-86
-90
-93
-93
-91
-100
-112
-111
-107
-111
-117
-117
-114
-119
-124
-121
-118
-115
-112
-110
-105
-89
-76
-77
-74
-59
-46
-40
-34
-27
-22
-22
-21
-16
-12
-7
-10
-21
-18
-5
-4
-11
-13
-11
-15
-22
-24
-24
-19
-13
-16
-21
-22
-22
-20
-18
-19
-20
-15
-11
-19
-25
-16
-8
-3
-2
-10
-15
-10
-6
-6
-2
10
13
4
1
3
5
8
7
2
3
8
8
5
8
14
8
-4
-6
-5
-4
-4
2
9
5
0
-3
-6
-6
-6
-5
-4
-10
-15
-21
-26
-24
-21
-17
-14
-14
-14
-15
-16
-16
-14
-10
-7
-5
-6
-10
-10
-6
0
8
12
15
16
17
18
19
18
15
15
17
15
10
10
10
4
-2
3
8
7
5
-5
-12
-9
-8
-16
-23
-28
-32
-33
-34
-33
-32
-31
-30
-31
-32
-31
-29
-26
-32
-44
-26
4
61
126
191
256
321
386
431
474
414
476
283
217
152
86
21
-38
-53
-62
-36
-19
-32
-42
-43
-45
-50
-54
-54
-53
-50
-48
-51
-51
-49
-48
-47
-46
-47
-48
-49
-51
-53
-52
-49
-48
-48
-50
-53
-53
-51
-49
-47
-48
-50
-52
-54
-51
-48
-49
-50
-52
-54
-55
-56
-56
-56
-56
-56
-58
-60
-62
-65
-68
-71
-74
-78
-82
-85
-87
-90
-94
-98
-101
-105
-109
-110
-111
-113
-115
-116
-115
-110
-105
-97
-88
-79
-70
-60
-50
-43
-35
-27
-19
-13
-8
-5
-2
0
2
4
6
7
8
6
4
4
4
5
5
2
0
-1
-2
-1
0
1
-1
-7
-7
-5
-1
3
4
4
4
4
7
8
12
16
17
18
19
20
23
26
29
32
34
36
37
39
42
44
45
46
47
48
47
46
47
48
48
48
48
47
45
44
44
44
44
43
41
40
40
39
37
33
30
29
28
31
34
33
32
28
24
26
28
25
22
26
27
24
24
29
33
36
40
44
47
50
53
56
57
55
50
42
42
45
45
43
38
33
32
31
35
41
40
36
32
28
22
15
6
-2
-1
0
-1
-2
-3
-4
-3
-2
0
2
0
-4
-10
-10
1
40
105
170
235
300
365
430
495
467
402
336
271
205
140
74
9
-34
-74
-43
-76
-5
-2
-12
-22
-20
-19
-29
-38
-32
-28
-28
-28
-27
-26
-26
-26
-26
-26
-24
-22
-23
-24
-23
-22
-22
-21
-19
-18
-17
-16
-15
-18
-24
-26
-27
-30
-33
-34
-33
-33
-35
-35
-34
-32
-30
-34
-38
-36
-34
-36
-38
-40
-42
-45
-50
-58
-64
-64
-64
-62
-64
-73
-80
-85
-89
-92
-93
-90
-89
-91
-92
-92
-86
-77
-68
-60
-53
-47
-38
-27
-20
-13
-4
6
9
12
14
16
18
20
24
28
24
19
14
10
12
15
20
23
19
14
9
6
7
9
12
12
6
5
8
14
21
22
19
18
19
21
23
21
17
17
19
20
20
23
26
30
34
34
34
31
28
29
30
27
25
31
36
34
32
31
32
37
36
25
20
19
17
15
15
18
18
14
14
18
20
20
20
19
18
18
18
17
15
13
10
8
8
8
13
18
15
12
11
10
8
7
13
18
16
18
30
38
39
41
44
46
45
39
30
29
35
35
30
25
20
19
21
29
38
31
20
15
11
9
7
-1
-10
-18
-26
-18
-10
-4
1
-12
-22
-24
-25
-18
-15
-26
-31
-19
8
62
120
185
250
315
380
445
436
370
305
239
173
108
42
-23
-50
-65
-50
-28
-20
-15
-26
-39
-40
-40
-46
-50
-51
-52
-47
-42
-43
-44
-43
-42
-44
-46
-45
-44
-43
-42
-42
-42
-44
-46
-45
-44
-45
-46
-46
-47
-49
-49
-47
-45
-43
-45
-49
-52
-55
-56
-55
-54
-53
-53
-55
-59
-62
-63
-64
-63
-62
-68
-74
-80
-84
-85
-87
-91
-95
-102
-107
-111
-114
-113
-112
-114
-117
-120
-122
-121
-115
-106
-98
-91
-82
-73
-63
-53
-38
-23
-15
-7
-6
-6
3
13
22
32
36
40
40
40
40
41
51
60
56
49
37
25
15
7
4
2
0
-2
-1
0
-1
-1
1
2
2
3
6
10
13
25
40
51
62
112
171
235
300
365
430
495
434
496
430
365
299
234
168
103
38
-20
-62
-45
-31
-25
-20
-21
-22
-23
-29
-41
-44
-35
-31
-33
-34
-34
-34
-35
-35
-33
-32
-32
-34
-37
-38
-39
-39
-37
-36
-35
-34
-35
-37
-38
-35
-32
-35
-38
-37
-36
-39
-42
-38
-34
-37
-40
-42
-44
-46
-48
-47
-46
-48
-52
-56
-58
-59
-60
-61
-62
-62
-62
-62
-60
-57
-54
-51
-47
-43
-41
-39
-28
-17
-8
2
11
20
29
38
45
52
53
54
56
58
59
60
60
60
60
59
55
52
52
52
55
54
49
46
46
48
52
53
51
50
50
50
49
50
53
54
55
56
55
54
54
59
62
62
62
59
56
57
58
60
62
65
67
63
60
59
58
58
57
53
50
49
49
51
50
46
44
44
42
39
38
39
40
40
37
33
32
31
31
33
29
23
26
30
29
28
28
28
24
20
24
28
24
20
19
18
17
16
15
14
16
18
18
18
19
19
17
16
16
16
16
17
19
21
23
24
24
24
23
19
15
14
15
14
10
9
8
7
6
9
12
7
2
3
5
10
14
12
10
10
10
8
6
7
7
2
0
-1
0
6
8
7
6
6
2
-4
-5
-3
1
5
2
-3
-4
-4
-4
-4
4
10
2
-6
-8
-10
-3
2
0
-3
-8
-11
-7
-2
4
6
-1
-6
-8
-10
-10
-8
-3
1
3
3
1
0
1
2
1
6
16
18
17
20
25
28
31
32
31
27
24
13
2
6
10
7
4
6
8
10
11
6
2
3
0
-12
-21
-25
-28
-27
-26
-27
-28
-29
-31
-34
-32
-25
-28
-37
-30
-16
38
103
168
233
298
363
428
493
433
367
302
236
171
105
40
-19
-40
-56
-42
-33
-38
-44
-53
-60
-62
-65
-68
-68
-63
-60
-63
-63
-60
-60
-66
-69
-72
-72
-69
-68
-67
-67
-69
-66
-61
-63
-67
-68
-69
-73
-70
-75
-72
-72
-72
-79
-86
-83
-79
-71
-66
-76
-85
-89
-93
-97
-100
-99
-100
-106
-112
-117
-118
-114
-110
-106
-113
-128
-138
-144
-145
-143
-146
-152
-158
-165
-160
-151
-157
-165
-168
-171
-166
-160
-156
-152
-146
-139
-131
-123
-111
-100
-89
-79
-71
-65
-58
-49
-34
-26
-34
-35
-27
-20
-16
-13
-10
-5
0
-4
-14
-14
-8
-11
-18
-16
-10
-11
-15
-16
-17
-16
-13
-6
2
1
0
-2
-4
3
10
10
10
11
12
14
17
21
25
28
30
30
31
34
36
39
39
37
36
36
37
39
40
40
39
37
36
36
36
37
38
37
33
29
28
28
28
28
26
24
21
18
17
16
16
16
16
16
15
14
13
12
12
12
11
10
9
9
11
11
9
7
4
2
3
6
9
9
7
6
5
4
3
3
5
5
3
0
-2
0
2
3
4
2
0
1
2
6
10
9
8
10
14
20
26
34
38
36
33
30
27
25
27
32
29
19
17
19
17
12
16
24
25
23
16
9
8
8
3
-4
-12
-20
-20
-20
-17
-14
-14
-14
-16
-17
-12
-11
-25
-27
-4
35
100
165
230
295
360
425
490
481
415
350
284
218
153
87
22
-27
-71
-54
-21
-21
-27
-32
-37
-40
-38
-47
-50
-49
-48
-47
-46
-45
-44
-44
-44
-45
-46
-45
-44
-45
-46
-47
-48
-49
-50
-49
-48
-48
-49
-51
-51
-48
-46
-47
-48
-49
-50
-50
-52
-55
-54
-51
-50
-49
-51
-55
-55
-54
-55
-56
-60
-64
-72
-78
-72
-69
-74
-79
-83
-86
-90
-93
-97
-101
-104
-107
-110
-113
-116
-118
-118
-116
-112
-106
-99
-92
-86
-76
-65
-54
-44
-38
-33
-27
-21
-13
-5
0
6
7
8
9
10
13
16
14
12
9
6
6
6
8
9
6
4
3
2
3
4
7
8
9
9
7
9
14
16
15
15
17
18
18
20
23
28
33
29
23
24
22
33
38
38
38
37
36
35
34
36
38
37
36
34
33
36
38
36
33
29
25
22
22
27
29
27
23
17
18
24
26
25
22
19
19
21
22
21
20
19
18
18
17
16
13
10
16
22
17
12
9
6
10
14
17
20
18
15
11
9
13
16
16
16
17
18
17
20
27
35
45
49
51
52
52
53
55
59
63
57
49
43
37
29
20
20
20
25
30
34
38
31
26
27
27
20
12
4
-2
-2
-2
-1
-2
-8
-12
-13
-10
-2
0
-4
-8
-12
23
78
140
205
270
335
400
465
419
354
288
223
157
219
26
-37
-45
-50
-21
4
8
9
-9
-24
-25
-28
-35
-39
-36
-34
-36
-38
-40
-41
-38
-34
-29
-27
-29
-32
-36
-39
-41
-41
-39
-39
-41
-43
-45
-41
-35
-34
-33
-36
-41
-43
-44
-45
-46
-48
-50
-50
-50
-53
-56
-55
-54
-55
-56
-57
-58
-58
-58
-58
-61
-69
-75
-77
-78
-79
-84
-91
-98
-105
-108
-107
-107
-109
-111
-113
-114
-113
-109
-105
-105
-107
-97
-84
-76
-68
-63
-57
-45
-33
-26
-19
-14
-8
1
8
7
6
6
6
4
2
1
0
0
1
3
3
0
-3
-6
1
15
9
-6
-10
-11
-3
10
11
9
8
9
7
10
10
18
13
8
4
2
17
30
27
24
21
18
17
16
17
19
23
26
27
28
25
26
31
31
25
20
16
15
17
15
10
12
18
20
20
20
19
18
17
12
7
2
-2
0
2
1
0
5
9
3
-2
0
2
1
0
0
1
4
2
-9
-13
-6
-1
2
5
8
6
-1
1
11
21
31
29
22
20
19
22
27
26
23
20
17
19
24
17
10
12
14
18
21
13
6
6
6
3
-4
-19
-29
-26
-24
-25
-26
-24
-22
-25
-24
-20
-16
-10
-15
-27
-13
15
70
135
200
265
330
395
460
525
473
408
342
404
211
145
80
16
-29
-65
-39
-19
-30
-38
-38
-39
-44
-48
-48
-47
-41
-38
-39
-40
-39
-38
-38
-38
-38
-38
-39
-40
-41
-41
-39
-38
-38
-40
-43
-44
-44
-42
-39
-38
-38
-41
-44
-43
-42
-41
-40
-41
-42
-44
-46
-48
-50
-50
-50
-52
-55
-58
-60
-61
-63
-67
-72
-77
-81
-84
-89
-94
-99
-106
-110
-113
-114
-115
-116
-117
-118
-119
-117
-113
-109
-105
-95
-84
-76
-68
-55
-43
-31
-20
-15
-10
-6
-2
1
6
15
21
18
16
17
18
19
20
19
18
17
15
13
12
12
14
17
16
13
12
11
13
17
18
18
18
18
19
18
24
26
29
32
31
30
34
38
40
42
42
42
42
42
43
44
46
48
49
49
46
45
48
50
50
49
47
46
46
46
47
47
45
42
39
38
38
38
38
39
41
38
34
34
34
32
30
32
34
33
32
29
27
31
33
29
26
27
28
26
24
25
26
25
25
28
30
31
31
27
28
31
39
49
56
61
62
61
60
59
55
51
50
50
49
48
45
41
32
25
35
44
45
46
43
40
37
34
32
26
15
8
9
10
11
12
11
8
2
2
6
10
13
5
-8
29
83
146
211
276
341
406
471
444
475
345
279
214
148
83
17
-48
-95
-53
-15
7
20
5
-6
-8
-10
-12
-14
-14
-14
-17
-18
-17
-16
-16
-16
-17
-18
-18
-16
-12
-11
-13
-16
-19
-18
-15
-14
-14
-14
-13
-18
-24
-21
-18
-18
-18
-18
-18
-20
-22
-21
-20
-21
-22
-20
-18
-18
-19
-22
-24
-22
-21
-23
-27
-33
-41
-50
-56
-60
-66
-74
-76
-76
-77
-79
-83
-87
-89
-91
-91
-89
-86
-82
-81
-80
-73
-65
-55
-45
-35
-24
-14
-4
4
11
17
25
35
40
35
32
32
32
35
36
35
33
31
29
27
33
44
45
40
35
29
26
23
27
33
32
29
30
28
31
28
29
30
34
38
41
44
44
46
55
61
55
49
44
41
44
46
48
50
47
48
52
53
51
49
47
48
51
48
42
40
39
41
45
46
47
49
51
49
45
32
20
29
38
32
26
30
33
27
22
24
29
41
44
25
12
13
16
22
25
22
20
19
18
19
21
24
30
37
38
35
35
37
40
43
44
45
51
57
47
35
38
44
38
32
31
30
28
26
27
28
31
33
27
22
19
15
12
8
3
-3
-11
-18
-23
-20
-8
-2
-1
-2
-6
-9
-11
-10
-5
39
95
158
223
288
353
418
483
425
487
294
228
163
97
32
-28
-54
-71
-41
-18
-19
-22
-30
-36
-36
-37
-41
-41
-33
-32
-43
-50
-54
-47
-31
-25
-28
-34
-40
-44
-47
-48
-49
-50
-49
-48
-47
-48
-51
-45
-37
-47
-58
-55
-52
-46
-41
-52
-62
-62
-61
-53
-47
-52
-58
-66
-72
-71
-70
-70
-70
-68
-69
-76
-83
-91
-95
-97
-99
-101
-105
-110
-113
-115
-118
-121
-123
-125
-125
-123
-123
-125
-124
-120
-113
-106
-101
-95
-82
-68
-55
-43
-35
-27
-22
-17
-13
-8
-1
5
8
10
10
10
13
15
17
16
12
10
9
8
9
10
10
8
5
4
4
7
11
12
13
14
14
13
14
17
20
21
22
24
26
28
30
35
38
38
38
39
41
44
46
47
48
49
50
49
50
54
56
55
54
53
52
52
52
52
52
51
49
47
47
49
50
49
47
46
43
40
40
40
41
42
40
38
37
36
36
36
36
34
28
25
29
32
32
32
33
34
33
32
32
37
45
50
53
57
61
59
55
56
59
58
55
54
54
46
36
40
44
38
32
39
46
48
49
41
34
34
31
20
11
7
4
4
4
6
8
5
4
3
4
8
8
4
-2
-8
32
92
155
220
285
350
415
480
441
389
324
386
193
127
62
-3
-62
-107
-56
-11
5
14
-4
-18
-17
-18
-26
-31
-28
-26
-27
-28
-27
-26
-25
-24
-23
-23
-26
-28
-27
-26
-27
-27
-25
-24
-25
-29
-33
-34
-34
-31
-27
-28
-30
-33
-36
-34
-32
-33
-34
-33
-32
-35
-38
-41
-44
-40
-39
-43
-46
-46
-46
-48
-50
-51
-58
-69
-74
-74
-74
-75
-81
-89
-93
-95
-98
-101
-102
-102
-102
-103
-104
-105
-103
-98
-86
-74
-64
-54
-45
-37
-29
-20
-9
0
1
3
8
15
25
31
27
24
24
24
24
23
21
20
21
21
19
18
19
19
17
16
16
16
17
18
18
18
19
18
20
17
20
25
30
30
30
29
28
29
30
35
38
38
38
36
35
41
44
45
46
47
46
42
41
44
46
45
44
43
41
39
40
43
44
43
39
35
32
29
30
33
32
30
30
30
28
26
26
26
28
29
24
20
19
19
24
28
26
24
25
28
33
39
45
49
51
51
48
46
46
45
43
44
47
43
36
33
31
30
30
38
47
42
34
25
16
18
20
15
9
1
-6
-10
-14
-13
-12
-10
-8
-8
-9
-12
-14
-15
-18
-23
5
63
125
190
255
320
385
450
422
357
291
226
160
95
29
-36
-73
-106
-71
-108
-21
-10
-21
-32
-33
-36
-50
-62
-56
-51
-46
-43
-47
-50
-49
-48
-48
-48
-47
-46
-45
-47
-53
-55
-52
-50
-51
-54
-57
-59
-61
-62
-62
-60
-57
-56
-55
-56
-59
-60
-60
-65
-70
-68
-66
-71
-76
-75
-74
-78
-82
-78
-74
-77
-81
-85
-90
-96
-100
-100
-104
-113
-119
-121
-122
-123
-124
-125
-125
-123
-123
-125
-124
-121
-124
-130
-116
-95
-86
-79
-70
-61
-56
-50
-44
-38
-35
-32
-26
-19
-11
-4
-7
-12
-21
-26
-17
-11
-16
-21
-25
-27
-24
-23
-28
-30
-29
-28
-29
-30
-30
-27
-22
-15
-8
-13
-22
-28
-35
-29
-19
-16
-13
-16
-12
-19
-16
-14
-12
-11
-10
-17
-22
-18
-14
-9
-8
-15
-20
-19
-18
-17
-15
-11
-7
-2
-10
-29
-34
-26
-19
-14
-17
-25
-28
-28
-28
-27
-30
-37
-32
-25
-26
-29
-30
-29
-34
-40
-36
-32
-19
-9
-25
-38
-38
-37
-32
-28
-25
-21
-17
-14
-15
-14
-8
-6
-11
-14
-15
-16
-16
-17
-19
-19
-15
-19
-27
-27
-22
-21
-23
-29
-35
-35
-33
-37
-43
-48
-54
-53
-52
-52
-52
-51
-50
-50
-50
-52
-54
-53
-53
-58
-52
-23
21
86
151
216
281
346
411
476
467
401
336
270
204
139
73
8
-47
-100
-90
-64
-67
-75
-77
-79
-85
-80
-92
-92
-86
-80
-80
-80
-81
-82
-82
-82
-81
-80
-79
-79
-82
-84
-84
-84
-82
-80
-81
-83
-85
-85
-82
-80
-81
-82
-82
-84
-87
-88
-87
-86
-86
-86
-87
-89
-91
-94
-97
-98
-98
-103
-108
-110
-112
-116
-121
-127
-133
-139
-145
-149
-153
-158
-163
-166
-168
-169
-170
-171
-172
-171
-167
-161
-155
-149
-139
-128
-117
-107
-97
-87
-76
-66
-59
-51
-44
-37
-33
-29
-27
-24
-20
-16
-21
-26
-24
-22
-22
-22
-25
-28
-26
-24
-26
-28
-29
-30
-29
-28
-27
-26
-25
-23
-21
-20
-21
-22
-23
-21
-16
-12
-7
-6
-6
-3
1
2
3
6
9
11
10
12
10
14
18
16
14
17
20
19
18
17
16
17
18
16
14
16
16
11
9
12
11
5
4
10
9
3
1
3
2
-1
-2
-1
-2
-5
-6
-6
-6
-5
-4
-5
-11
-16
-12
-8
-4
0
-3
-6
-3
2
13
22
23
24
23
21
18
14
8
7
14
13
3
-3
-5
-5
-3
2
9
10
6
1
-4
-6
-6
-16
-28
-31
-33
-34
-33
-32
-34
-31
-28
-31
-34
-34
-35
-42
-45
-25
6
71
136
201
266
331
396
461
470
404
339
273
208
142
77
11
-46
-98
-92
-57
-40
-31
-34
-42
-48
-53
-57
-61
-58
-53
-53
-52
-59
-62
-61
-60
-61
-61
-53
-46
-52
-56
-54
-53
-57
-60
-58
-57
-60
-62
-61
-59
-56
-56
-60
-61
-58
-57
-60
-62
-62
-63
-65
-65
-63
-63
-65
-66
-67
-68
-68
-69
-71
-76
-80
-79
-78
-78
-78
-84
-91
-100
-109
-115
-120
-123
-127
-131
-134
-132
-130
-128
-123
-115
-109
-107
-100
-89
-75
-60
-49
-41
-36
-32
-27
-22
-12
0
2
3
0
-5
-5
-3
-2
0
0
0
2
4
-2
-8
-4
-1
-7
-12
-10
-8
-7
-5
-2
0
-1
-2
-2
-2
1
0
-4
-5
-2
1
4
4
1
2
5
6
5
8
15
14
11
13
17
17
18
13
12
10
8
9
10
9
8
7
6
7
7
3
0
1
3
9
11
7
1
-6
-10
-9
-4
3
6
5
0
-6
-10
-13
-9
-2
-4
-9
-10
-11
-12
-11
-1
9
-1
-12
-3
6
15
24
18
12
16
20
20
20
19
16
9
4
3
2
2
3
6
9
11
11
8
3
-3
-7
-11
-21
-34
-38
-38
-38
-39
-36
-31
-24
-17
-22
-29
-30
-30
-39
-47
-16
19
84
149
214
279
344
409
474
501
436
370
304
239
173
108
42
-13
-57
-69
-52
-46
-52
-54
-55
-58
-61
-67
-74
-73
-69
-65
-61
-63
-67
-66
-63
-68
-62
-70
-64
-60
-57
-70
-81
-73
-66
-65
-65
-70
-75
-81
-83
-74
-71
-80
-86
-86
-86
-85
-84
-85
-86
-86
-87
-90
-89
-84
-84
-88
-92
-95
-100
-105
-107
-109
-110
-110
-117
-125
-133
-140
-142
-144
-145
-146
-149
-152
-148
-145
-150
-153
-147
-140
-132
-125
-122
-115
-102
-88
-75
-65
-59
-53
-47
-40
-31
-25
-20
-16
-13
-11
-9
-8
-8
-8
-9
-10
-11
-12
-13
-14
-12
-13
-14
-16
-18
-18
-18
-16
-14
-14
-14
-13
-12
-10
-7
-4
-2
-2
-1
2
5
8
11
14
16
16
18
22
26
30
32
33
34
33
34
37
39
41
41
39
38
38
39
40
40
40
37
34
32
30
32
34
36
37
33
30
29
28
28
28
27
26
23
22
21
20
21
21
19
17
15
14
14
15
17
18
18
16
13
22
33
37
41
43
44
45
46
41
36
33
30
34
37
31
26
24
22
24
26
28
30
28
26
24
19
12
5
-3
-6
-6
-7
-9
-10
-11
-12
-11
-9
-7
-3
1
-11
-26
-12
7
70
136
201
266
331
396
461
506
441
375
310
244
179
113
48
-12
-59
-74
-36
-12
-6
-4
-11
-17
-23
-30
-38
-37
-29
-28
-31
-32
-33
-34
-34
-30
-25
-25
-27
-30
-33
-33
-34
-31
-32
-30
-28
-30
-32
-31
-30
-31
-32
-32
-32
-33
-34
-35
-36
-36
-36
-37
-38
-41
-42
-43
-43
-40
-38
-39
-43
-48
-50
-51
-54
-57
-60
-63
-71
-80
-82
-81
-85
-91
-96
-100
-102
-104
-102
-100
-102
-104
-101
-97
-89
-79
-66
-53
-43
-34
-25
-17
-9
0
10
17
19
21
24
29
34
36
36
36
37
35
30
29
31
32
32
29
25
24
23
26
32
31
30
27
24
25
26
27
28
30
32
30
30
37
42
40
38
40
42
41
41
44
46
47
48
47
46
47
51
56
58
57
53
47
50
55
57
59
55
49
54
48
53
44
50
56
54
52
47
42
43
44
46
47
43
39
35
33
39
42
43
44
45
45
42
43
49
55
61
68
74
72
66
64
64
65
67
63
57
55
53
51
49
41
34
47
60
61
62
58
53
47
42
40
35
22
12
14
16
16
16
15
14
15
15
13
14
19
13
-4
16
58
116
181
246
311
376
441
506
571
523
458
392
327
261
195
130
65
10
-38
-16
4
8
11
3
-6
-14
-20
-19
-18
-16
-14
-13
-13
-16
-18
-18
-17
-15
-15
-18
-20
-19
-18
-18
-19
-21
-23
-25
-25
-23
-23
-25
-26
-25
-24
-24
-25
-28
-28
-28
-33
-38
-37
-36
-33
-30
-30
-30
-30
-31
-34
-38
-45
-50
-49
-49
-52
-58
-66
-71
-73
-75
-78
-81
-83
-85
-87
-87
-85
-86
-89
-84
-77
-75
-73
-66
-59
-51
-44
-36
-28
-17
-7
2
10
12
14
16
18
20
23
28
31
27
25
29
30
24
20
20
17
9
7
10
14
18
16
8
5
3
10
22
24
24
25
27
16
3
3
6
10
14
18
22
26
30
28
26
24
22
25
27
23
21
25
29
32
32
26
23
28
29
26
24
24
24
25
26
25
26
29
24
16
10
3
2
2
6
11
13
12
16
16
17
18
13
7
0
-6
-5
-3
6
10
-1
-6
1
10
22
24
9
4
15
24
33
38
39
36
27
30
39
32
16
16
22
28
33
22
8
6
5
12
21
11
0
-5
-10
-17
-24
-22
-19
-8
-4
-22
-36
-34
-32
-30
-27
-24
-24
-30
-34
-35
-4
61
126
191
256
321
386
451
427
362
296
231
165
100
34
-31
-80
-126
-99
-66
-52
-38
-47
-56
-53
-50
-59
-66
-66
-65
-59
-54
-57
-60
-60
-60
-60
-60
-59
-58
-58
-58
-59
-60
-59
-58
-59
-61
-63
-64
-63
-62
-62
-62
-61
-60
-61
-64
-67
-68
-69
-70
-70
-69
-70
-72
-74
-77
-80
-82
-84
-86
-88
-93
-97
-103
-109
-114
-119
-125
-129
-133
-138
-143
-148
-152
-154
-155
-156
-157
-158
-158
-153
-146
-138
-128
-118
-108
-98
-88
-76
-63
-50
-37
-31
-26
-25
-24
-18
-12
-7
-2
-2
-2
-4
-6
-4
-2
-1
-1
-5
-8
-10
-11
-8
-6
-6
-7
-10
-12
-12
-9
-4
-2
-1
-1
-3
-4
-3
1
5
8
11
11
9
10
14
19
24
26
28
27
26
26
26
30
34
34
34
33
32
32
33
36
37
33
30
30
29
26
26
30
32
32
30
26
24
25
25
23
18
13
13
15
16
15
14
14
14
12
13
14
14
14
12
10
13
16
15
15
21
27
32
36
38
40
42
43
38
33
27
25
27
27
24
21
19
20
23
25
27
28
29
24
17
14
11
4
-3
-6
-8
-11
-14
-12
-10
-10
-10
-10
-10
-6
-7
-26
-33
-8
31
96
161
226
291
356
421
486
481
415
350
284
219
153
87
22
-28
-72
-56
-22
-11
-5
-12
-21
-22
-23
-30
-38
-34
-30
-30
-30
-27
-24
-23
-22
-26
-30
-28
-26
-24
-23
-26
-28
-27
-26
-27
-28
-27
-26
-25
-25
-27
-28
-29
-30
-31
-31
-29
-28
-27
-29
-33
-31
-27
-26
-27
-31
-28
-36
-36
-36
-36
-41
-46
-49
-52
-58
-62
-62
-64
-72
-79
-83
-86
-87
-88
-88
-88
-91
-92
-92
-87
-76
-66
-54
-44
-34
-23
-11
-3
4
7
9
13
17
21
25
36
47
51
54
48
42
44
46
51
56
50
46
45
43
39
37
41
43
39
36
38
40
42
43
40
39
42
45
48
47
42
44
50
53
55
57
59
60
60
62
65
66
65
62
58
64
70
69
68
68
68
68
68
70
72
71
70
72
73
69
64
58
54
55
57
60
60
55
53
56
58
58
59
61
62
62
61
59
54
47
46
47
49
51
55
52
68
76
68
61
75
88
92
94
83
74
77
80
81
80
72
62
51
49
61
68
69
66
57
53
56
56
52
43
32
29
31
30
27
23
19
24
31
32
31
28
25
15
6
30
57
122
187
252
317
382
447
512
543
478
412
346
281
215
150
84
35
5
1
25
29
14
8
7
3
-2
2
11
8
0
-6
-11
-10
-7
-6
-7
5
19
18
14
0
-14
-7
0
-5
-10
-5
1
7
11
4
-3
-8
-12
-10
-8
-8
-8
-9
-7
0
-1
-11
-16
-16
-15
-13
-18
-27
-30
-29
-29
-31
-36
-41
-45
-49
-49
-47
-63
-46
-73
-64
-72
-80
-77
-74
-75
-77
-85
-91
-82
-75
-70
-64
-56
-47
-39
-30
-18
-4
13
23
26
30
36
42
49
52
53
55
57
58
58
58
59
60
61
57
51
50
50
50
50
48
46
48
50
51
52
51
50
54
58
59
60
59
58
58
58
59
61
65
69
72
75
78
80
79
80
84
88
92
94
94
94
94
94
95
96
95
94
93
92
94
94
94
93
92
91
90
89
88
88
88
87
86
85
83
80
79
83
86
84
81
76
74
75
77
79
80
80
80
79
78
79
85
92
97
101
102
102
102
103
104
104
99
92
93
94
91
88
88
88
85
82
82
82
84
85
80
75
72
65
53
46
47
49
51
50
46
44
43
42
43
47
52
46
35
37
44
100
165
230
295
360
425
491
552
487
421
356
290
225
159
94
28
-37
-73
-23
17
33
40
26
18
19
16
6
1
4
6
7
8
7
6
7
7
5
4
3
2
2
2
2
2
2
1
-1
-2
-2
-2
-2
-2
-2
-3
-4
-5
-6
-7
-8
-7
-6
-9
-11
-8
-6
-8
-10
-12
-16
-23
-25
-22
-23
-29
-33
-36
-40
-43
-50
-59
-65
-69
-69
-67
-73
-81
-83
-85
-85
-86
-82
-82
-79
-76
-70
-63
-52
-41
-33
-24
-14
-4
7
16
22
28
34
38
40
43
48
50
51
51
49
47
45
44
45
44
40
38
39
37
33
33
35
34
31
32
35
34
32
35
38
36
34
37
40
40
40
41
43
47
50
50
52
58
61
57
55
58
60
60
61
64
64
60
59
61
65
70
71
69
67
65
65
67
65
61
59
57
56
54
53
52
58
64
58
52
49
46
48
50
51
52
52
53
56
60
67
73
77
78
73
68
64
61
58
58
62
58
49
46
47
48
49
55
62
58
51
45
39
38
38
30
22
15
8
6
4
7
10
9
8
9
10
8
6
4
1
-5
14
69
128
193
258
323
388
453
488
502
465
400
334
269
203
138
72
7
-12
-22
-14
-3
-8
-15
-17
-18
-25
-32
-33
-34
-34
-34
-33
-32
-29
-27
-31
-34
-33
-32
-30
-30
-35
-38
-37
-36
-36
-36
-36
-37
-40
-44
-48
-50
-49
-48
-47
-47
-49
-51
-53
-52
-49
-47
-45
-42
-38
-52
-66
-60
-54
-58
-62
-63
-66
-78
-88
-85
-82
-85
-89
-93
-97
-101
-104
-104
-104
-107
-110
-115
-118
-117
-111
-103
-96
-90
-86
-83
-77
-70
-54
-35
-23
-12
-18
-27
-20
-28
-6
-2
0
2
-3
-8
-9
-10
-9
-8
-5
-3
-7
-10
-11
-14
-20
-23
-20
-18
-19
-17
-10
-9
-15
-16
-12
-17
-28
-28
-22
-17
-13
-16
-23
-21
-17
-12
-7
-16
-27
-21
-14
-13
-12
-6
-1
-12
-22
-24
-24
-14
-6
-4
-5
-18
-26
-24
-22
-21
-19
-16
-18
-27
-32
-31
-24
-14
-17
-28
-28
-22
-25
-32
-34
-34
-34
-34
-34
-34
-37
-41
-36
-28
-33
-38
-36
-33
-22
-12
-5
0
2
2
-10
-16
-8
-4
-11
-15
-12
-13
-21
-25
-22
-20
-19
-18
-19
-25
-34
-36
-33
-38
-47
-57
-68
-69
-67
-66
-67
-64
-59
-66
-58
-72
-68
-61
-55
-68
-76
-44
-6
59
124
189
254
319
384
449
466
400
335
269
204
138
73
7
-54
-111
-115
-83
-75
-80
-84
-88
-93
-98
-104
-109
-104
-97
-97
-99
-100
-99
-97
-96
-95
-94
-94
-94
-97
-100
-98
-96
-96
-96
-98
-100
-102
-104
-103
-102
-100
-98
-100
-102
-103
-104
-104
-104
-103
-104
-108
-110
-111
-113
-115
-116
-115
-117
-121
-128
-135
-136
-136
-141
-148
-156
-164
-167
-170
-172
-174
-178
-183
-188
-192
-195
-197
-191
-185
-182
-178
-172
-164
-152
-139
-124
-112
-102
-94
-87
-79
-70
-62
-56
-52
-47
-46
-45
-41
-37
-37
-39
-40
-41
-42
-42
-44
-44
-43
-42
-44
-46
-47
-48
-47
-46
-48
-50
-49
-48
-46
-43
-40
-38
-38
-38
-38
-36
-31
-28
-27
-26
-25
-23
-21
-17
-12
-9
-7
-7
-9
-9
-7
-3
1
2
1
-1
-2
-2
-2
0
2
1
0
-3
-6
-4
-2
-3
-5
-10
-14
-14
-14
-12
-10
-12
-15
-17
-19
-22
-24
-23
-21
-19
-19
-21
-22
-23
-18
-10
-3
3
4
4
4
4
3
0
-4
-8
-8
-8
-15
-22
-21
-20
-18
-16
-14
-12
-12
-13
-18
-22
-24
-30
-40
-48
-53
-56
-55
-54
-53
-52
-51
-50
-51
-51
-49
-53
-60
-56
-48
9
74
139
204
269
208
400
459
394
328
263
197
132
66
1
-60
-105
-128
-90
-59
-41
-36
-52
-63
-66
-71
-78
-78
-69
-65
-67
-69
-72
-72
-69
-66
-63
-64
-67
-69
-71
-72
-71
-70
-69
-70
-73
-77
-80
-73
-66
-65
-64
-70
-76
-73
-70
-70
-70
-67
-65
-72
-75
-72
-70
-70
-70
-71
-75
-81
-84
-85
-87
-89
-91
-95
-99
-104
-107
-109
-111
-113
-119
-127
-128
-128
-130
-133
-134
-134
-133
-132
-125
-118
-109
-101
-88
-76
-66
-57
-51
-43
-32
-23
-18
-12
-7
-2
4
7
4
3
5
6
6
4
0
-2
-1
0
0
-2
-5
-5
-3
-2
-3
-4
-4
-4
-4
-1
0
0
0
2
4
5
6
8
10
10
11
17
22
22
23
26
28
29
30
31
30
25
22
22
19
14
14
17
18
19
23
28
26
21
20
20
20
21
23
25
19
12
13
14
15
16
15
14
13
12
8
5
9
13
20
22
16
13
16
23
35
41
38
38
42
41
35
34
38
36
30
22
14
15
19
20
19
23
29
27
23
20
16
11
6
0
-6
-15
-22
-21
-20
-21
-21
-16
-12
-14
-16
-14
-12
-14
-21
-35
-20
27
84
149
214
279
344
409
387
322
256
191
125
60
-6
-71
-77
-71
-44
-14
-7
-12
-16
-32
-38
-44
-49
-54
-47
-42
-46
-50
-45
-42
-41
-40
-40
-40
-40
-43
-53
-59
-62
-59
-47
-44
-48
-47
-42
-43
-48
-51
-53
-54
-55
-56
-55
-54
-55
-58
-61
-56
-49
-54
-60
-62
-64
-65
-66
-62
-59
-68
-77
-84
-89
-85
-82
-84
-88
-95
-100
-99
-100
-106
-113
-119
-123
-125
-125
-123
-121
-117
-111
-103
-90
-76
-73
-75
-68
-58
-48
-37
-30
-23
-9
6
2
-2
8
18
21
23
16
10
6
1
-6
-11
-6
-2
-1
0
2
4
3
2
1
-2
-6
-8
-7
-4
0
-2
-8
-9
-7
-2
4
10
15
13
9
8
8
8
8
14
20
19
18
19
20
23
27
33
37
31
27
32
36
35
33
30
28
28
28
27
26
25
24
24
23
20
15
10
10
13
14
15
13
9
8
9
10
11
12
12
11
10
11
12
13
14
14
14
18
23
29
34
36
38
40
41
38
36
34
32
33
33
30
26
22
21
23
24
24
22
18
16
15
12
9
1
-8
-11
-13
-13
-11
-10
-10
-12
-14
-14
-14
-5
1
-11
-18
-8
16
81
146
211
276
341
406
471
480
414
349
283
218
152
87
21
-30
-73
-66
-34
-23
-21
-26
-34
-36
-36
-42
-49
-49
-47
-47
-46
-47
-44
-44
-44
-46
-48
-48
-48
-47
-46
-46
-46
-48
-50
-49
-49
-52
-54
-53
-52
-52
-52
-52
-52
-53
-54
-55
-56
-56
-57
-59
-60
-59
-59
-61
-63
-65
-67
-69
-73
-77
-80
-82
-84
-86
-94
-102
-105
-108
-111
-114
-117
-121
-126
-130
-131
-132
-133
-132
-127
-124
-122
-116
-107
-96
-83
-72
-62
-54
-47
-38
-29
-20
-12
-7
-3
-3
-5
-4
-1
3
7
5
0
-5
-10
-8
-6
-4
-2
-3
-4
-8
-12
-11
-10
-7
-6
-13
-18
-16
-12
-7
-4
-1
-1
-4
-6
-6
-2
5
9
11
11
9
9
11
15
19
20
21
22
21
20
20
26
30
27
24
23
22
21
20
23
26
23
20
18
16
16
16
17
18
16
13
8
7
10
12
11
10
10
10
10
10
9
9
11
17
24
27
29
31
33
34
34
30
26
25
24
20
16
15
14
10
8
17
24
25
25
20
14
8
4
2
-3
-11
-19
-25
-27
-24
-22
-21
-19
-17
-19
-24
-21
-14
-20
-30
-24
-14
44
109
174
239
304
370
435
492
427
361
296
230
165
99
34
-27
-71
-90
-47
-17
-14
-16
-27
-34
-36
-41
-50
-52
-47
-44
-45
-45
-42
-42
-46
-47
-45
-44
-44
-44
-45
-47
-49
-48
-45
-44
-44
-46
-46
-46
-46
-47
-48
-48
-48
-46
-44
-45
-46
-44
-41
-37
-35
-41
-46
-51
-54
-57
-58
-58
-62
-70
-75
-77
-78
-78
-78
-78
-85
-95
-102
-107
-106
-103
-103
-105
-110
-115
-114
-112
-108
-104
-100
-96
-91
-84
-70
-56
-47
-38
-26
-18
-17
-12
-1
6
8
10
11
11
8
6
5
5
7
5
0
-1
1
1
-1
0
3
4
4
1
-3
-4
-5
-1
6
5
4
-2
-8
1
8
8
8
9
10
8
7
11
15
18
19
15
12
13
15
20
20
15
13
15
16
16
18
21
22
21
19
17
16
16
13
9
7
5
9
4
12
8
13
18
7
-2
-2
-2
4
8
5
2
1
-1
-4
-5
-2
-2
-7
-9
-4
-2
-3
0
7
6
-1
6
21
26
26
26
26
26
25
21
17
16
16
14
11
8
6
8
10
15
20
18
15
8
2
0
-6
-21
-32
-31
-31
-34
-33
-24
-21
-28
-31
-28
-24
-20
-23
-32
-35
-31
1
47
107
172
237
302
367
432
392
335
270
205
139
73
8
-55
-83
-105
-73
-45
-35
-29
-44
-55
-51
-51
-62
-69
-66
-63
-59
-56
-56
-56
-57
-58
-57
-57
-60
-61
-58
-57
-59
-65
-72
-72
-69
-68
-67
-66
-65
-64
-64
-64
-64
-66
-70
-70
-70
-66
-62
-66
-70
-71
-72
-74
-76
-78
-80
-80
-82
-88
-95
-102
-106
-109
-111
-113
-116
-122
-127
-133
-138
-141
-141
-139
-141
-145
-146
-146
-145
-143
-136
-129
-122
-115
-105
-96
-83
-69
-55
-42
-40
-37
-30
-23
-17
-11
-7
-4
-3
-2
-3
-3
1
3
0
-3
-5
-6
-7
-8
-7
-6
-5
-6
-9
-10
-10
-9
-7
-5
-3
-2
-3
-2
1
4
8
10
12
12
12
16
20
23
26
28
30
29
29
33
36
38
40
40
40
40
40
41
43
45
46
45
43
41
40
40
40
39
38
37
36
35
34
33
31
29
28
28
25
24
23
22
21
20
19
18
17
16
15
14
14
14
15
16
16
16
15
15
18
23
29
34
38
40
39
38
39
40
39
35
31
30
29
25
21
19
17
18
21
24
26
25
24
20
16
12
7
-5
-14
-13
-12
-13
-14
-16
-18
-18
-18
-16
-12
-7
-11
-27
-23
-3
44
109
174
239
304
369
434
499
463
398
332
267
201
136
70
5
-42
-88
-53
-20
-16
-13
-23
-32
-35
-39
-49
-55
-48
-42
-44
-46
-45
-44
-45
-46
-46
-46
-46
-46
-47
-48
-48
-48
-47
-48
-51
-52
-51
-50
-51
-50
-47
-48
-51
-53
-55
-56
-56
-52
-50
-49
-48
-54
-60
-60
-60
-59
-58
-58
-60
-67
-72
-73
-74
-75
-79
-87
-93
-96
-99
-102
-105
-108
-112
-116
-119
-121
-121
-119
-118
-119
-114
-106
-98
-91
-78
-63
-52
-41
-31
-22
-18
-14
-5
4
7
10
12
14
14
14
16
18
20
21
16
12
11
10
12
13
11
9
6
4
4
5
9
10
9
8
8
9
11
12
13
14
15
15
13
15
20
23
26
27
28
31
34
36
38
40
42
40
39
43
46
46
46
46
46
46
46
47
47
45
43
41
40
40
41
43
42
39
38
37
38
41
41
39
36
33
32
32
32
34
35
36
37
38
40
43
51
58
60
62
63
63
59
56
58
59
55
52
49
47
44
41
39
43
52
58
61
57
49
47
49
43
34
20
4
2
3
5
7
6
4
3
2
6
11
19
23
0
-12
15
53
118
183
248
313
378
443
508
515
449
384
318
253
187
122
56
9
-28
-22
4
7
0
-3
-5
-8
-11
-15
-19
-17
-13
-14
-18
-19
-20
-19
-18
-17
-16
-16
-16
-17
-18
-20
-22
-19
-16
-16
-18
-24
-27
-24
-20
-15
-14
-19
-23
-26
-28
-28
-23
-15
-16
-22
-25
-27
-28
-28
-30
-33
-34
-35
-40
-36
-45
-44
-47
-50
-58
-66
-69
-72
-74
-76
-75
-74
-76
-79
-83
-85
-81
-76
-70
-66
-63
-59
-53
-40
-22
-8
4
10
14
14
11
16
26
30
33
35
37
34
29
35
43
35
26
25
24
25
26
30
34
33
31
25
20
21
22
21
22
28
32
30
27
23
21
23
25
28
30
31
34
38
38
35
32
29
31
35
36
37
42
47
48
48
42
34
42
50
48
46
44
42
41
40
36
32
32
31
27
26
32
36
34
32
31
30
33
30
20
16
17
19
22
26
29
28
25
21
17
16
15
15
17
19
21
23
22
24
22
26
30
31
33
40
46
50
54
51
47
43
41
44
46
47
47
44
38
27
25
32
34
30
27
24
22
21
17
12
6
0
-2
-3
-4
-5
-6
-5
-2
1
4
6
-3
-12
-6
7
64
123
188
253
318
383
448
473
407
342
276
211
145
80
14
-42
-90
-93
-57
-28
-3
-4
-20
-26
-26
-30
-36
-36
-33
-32
-31
-31
-33
-32
-29
-28
-26
-29
-32
-34
-36
-33
-30
-29
-28
-32
-36
-36
-36
-34
-32
-32
-33
-36
-38
-39
-39
-36
-34
-34
-36
-40
-42
-43
-44
-43
-43
-45
-49
-53
-57
-61
-62
-63
-67
-71
-78
-72
-90
-94
-99
-104
-107
-110
-117
-122
-123
-124
-124
-124
-123
-121
-117
-111
-103
-93
-81
-70
-59
-48
-34
-25
-19
-13
-8
-2
4
8
11
12
13
14
15
16
16
16
16
14
11
10
10
9
8
6
4
2
0
2
4
6
8
7
6
4
3
8
12
12
12
14
16
16
18
22
25
28
30
30
31
33
34
35
40
45
46
45
44
43
43
45
46
48
47
46
45
44
44
44
43
42
40
38
37
36
36
35
32
30
28
26
24
22
23
24
23
21
19
18
17
16
16
15
13
12
11
10
10
11
13
14
14
17
14
27
32
33
34
34
34
31
28
24
20
21
21
16
12
10
8
10
13
17
20
17
14
10
7
5
-2
-14
-21
-26
-25
-20
-21
-26
-28
-27
-26
-27
-23
-17
-27
-39
-30
-18
47
112
177
242
307
372
437
474
409
343
278
212
146
81
15
-43
-93
-101
-59
-35
-29
-31
-41
-46
-47
-51
-56
-56
-53
-53
-55
-56
-56
-52
-47
-50
-55
-56
-57
-57
-54
-56
-58
-58
-58
-60
-62
-58
-54
-57
-60
-60
-60
-61
-62
-61
-60
-59
-59
-63
-66
-67
-66
-62
-61
-63
-65
-67
-68
-69
-71
-73
-77
-83
-84
-85
-87
-89
-95
-101
-106
-102
-116
-120
-121
-122
-125
-128
-129
-130
-127
-124
-119
-115
-110
-103
-92
-79
-65
-52
-40
-31
-22
-16
-11
-5
1
4
3
2
2
2
2
3
5
3
-1
-1
1
2
1
0
0
1
2
-4
-10
-5
0
-1
-2
-4
-6
-6
-5
3
8
7
5
2
0
2
5
8
12
16
16
12
10
10
14
21
24
24
24
23
22
22
23
25
26
25
17
9
8
10
14
18
19
20
19
18
13
8
9
10
12
14
13
11
6
3
6
8
8
8
5
4
5
6
6
5
3
3
5
6
5
4
4
6
9
10
10
15
21
28
22
38
40
42
44
34
26
27
28
25
22
27
27
15
10
25
34
34
29
16
8
9
6
-3
-10
-16
-18
-19
-18
-14
-14
-17
-15
-10
-7
-5
-11
-20
-22
-22
14
53
118
183
248
313
378
432
406
373
308
242
177
111
46
-17
-72
-92
-47
-16
-6
-5
-16
-26
-35
-42
-47
-49
-46
-39
-29
-30
-38
-37
-33
-33
-35
-36
-37
-38
-39
-41
-43
-44
-42
-43
-44
-42
-40
-37
-34
-35
-36
-40
-44
-47
-50
-51
-49
-40
-35
-39
-44
-49
-52
-55
-56
-56
-58
-62
-62
-58
-60
-66
-73
-82
-86
-89
-90
-89
-88
-89
-96
-103
-107
-104
-113
-114
-112
-110
-111
-112
-110
-107
-98
-88
-77
-66
-57
-47
-36
-25
-16
-7
0
5
8
10
11
14
20
23
25
24
20
18
18
18
18
18
19
17
13
11
9
9
11
14
16
13
10
11
12
14
16
16
16
18
20
23
27
31
34
36
38
40
42
43
45
48
51
54
56
56
57
59
61
63
64
65
66
65
64
63
63
65
65
63
62
62
60
58
59
60
57
54
54
54
51
48
48
48
49
50
49
47
44
42
42
42
41
40
40
39
37
37
40
41
39
38
39
40
40
41
43
49
55
59
63
64
64
64
66
65
64
60
56
54
52
50
48
45
43
47
50
51
51
47
44
43
40
33
25
13
9
11
12
11
10
9
8
7
9
13
16
19
6
-12
18
55
118
183
249
314
379
444
509
558
493
427
362
296
231
165
100
38
-17
-41
-9
10
8
3
-4
-11
-17
-21
-23
-24
-23
-20
-16
-15
-17
-18
-19
-20
-20
-20
-20
-20
-20
-20
-21
-22
-22
-22
-22
-25
-28
-28
-28
-26
-24
-24
-24
-26
-28
-28
-28
-26
-25
-28
-30
-32
-34
-34
-33
-31
-31
-34
-39
-45
-49
-51
-52
-51
-56
-64
-69
-73
-76
-79
-80
-81
-85
-82
-94
-98
-97
-96
-92
-88
-86
-84
-78
-71
-56
-40
-26
-15
-11
-6
1
9
17
23
28
30
31
32
33
35
38
39
37
34
31
29
27
27
29
29
27
25
23
22
23
27
30
27
24
23
22
24
26
28
30
33
38
46
52
48
46
46
47
51
54
55
59
65
71
77
81
83
86
90
97
105
101
91
78
65
58
53
47
41
40
39
38
40
38
36
35
34
34
34
31
28
29
26
7
8
56
110
175
240
305
370
435
472
480
450
384
319
253
188
122
56
-9
-15
3
14
22
15
2
-2
-5
-10
-15
-15
-16
-11
-10
-10
-10
-10
-10
-10
-10
-11
-12
-11
-10
-11
-12
-14
-16
-17
-16
-11
-8
-9
-11
-13
-14
-13
-12
-11
-11
-13
-15
-17
-18
-19
-19
-17
-16
-17
-16
-13
-14
-17
-21
-24
-31
-38
-37
-36
-40
-44
-48
-52
-53
-54
-57
-59
-52
-49
-53
-55
-52
-48
-43
-34
-22
-12
-4
4
13
20
27
31
33
37
41
42
42
43
45
46
46
41
35
34
34
34
34
35
36
36
36
29
24
23
23
28
31
27
24
26
29
32
34
32
30
29
28
29
30
29
29
31
32
31
35
42
39
32
30
31
32
33
32
29
31
28
37
38
32
26
30
34
31
28
27
27
32
36
36
33
24
18
19
20
22
24
25
27
29
29
26
21
16
12
9
10
14
18
21
18
11
14
19
19
17
14
11
10
10
16
22
18
14
16
18
17
15
8
3
7
10
10
10
10
9
6
6
11
14
14
13
10
8
9
9
7
6
6
6
6
9
13
16
19
18
15
11
7
6
6
7
8
7
6
8
10
11
12
14
16
14
12
9
7
10
12
13
13
10
8
9
11
13
14
15
14
10
8
7
8
13
15
17
18
17
16
17
21
25
30
26
38
40
42
44
46
48
46
44
43
42
41
40
42
42
34
29
35
38
40
40
33
30
30
26
18
10
1
0
3
4
4
4
3
3
5
9
13
4
-9
16
45
110
175
240
305
370
435
500
543
478
412
347
281
216
150
84
24
-26
-45
-16
-3
-10
-16
-20
-25
-31
-35
-38
-37
-30
-30
-33
-34
-35
-36
-36
-36
-35
-35
-37
-39
-41
-42
-40
-40
-40
-43
-46
-46
-46
-46
-46
-47
-48
-50
-52
-52
-52
-51
-50
-51
-52
-54
-57
-60
-62
-61
-62
-68
-72
-76
-79
-81
-82
-83
-87
-93
-98
-103
-108
-113
-116
-119
-123
-120
-131
-134
-135
-136
-135
-134
-133
-131
-125
-119
-110
-102
-93
-83
-72
-60
-48
-35
-23
-14
-7
-1
5
10
14
19
25
27
25
24
25
28
31
31
29
27
25
24
24
24
25
25
24
22
20
22
24
27
30
29
28
29
30
30
31
38
42
41
40
41
43
47
52
56
57
55
55
57
61
66
69
71
72
71
70
70
70
71
74
77
73
67
66
64
68
72
68
64
62
60
58
56
56
56
54
52
49
45
41
38
40
42
40
37
34
32
32
32
33
32
28
25
23
22
21
20
21
20
17
16
16
14
11
11
10
13
12
11
10
8
6
7
8
9
10
5
2
3
4
2
0
2
4
4
4
3
2
3
5
7
8
9
13
18
23
28
30
30
30
30
28
25
20
15
17
21
14
6
5
4
6
8
13
18
16
13
8
4
1
-4
-11
-17
-21
-24
-24
-24
-25
-25
-22
-20
-21
-22
-23
-30
-40
-7
47
109
174
239
304
369
434
426
406
344
279
213
147
82
16
-49
-105
-78
-52
-37
-26
-36
-45
-50
-55
-60
-64
-62
-59
-56
-54
-53
-54
-59
-62
-62
-62
-62
-61
-59
-58
-59
-60
-59
-62
-68
-70
-69
-68
-68
-67
-65
-66
-64
-69
-68
-68
-68
-69
-70
-71
-72
-74
-76
-76
-76
-74
-72
-74
-76
-78
-81
-84
-86
-89
-92
-97
-103
-109
-113
-115
-118
-122
-126
-130
-133
-135
-136
-135
-134
-133
-133
-135
-134
-131
-118
-106
-101
-96
-84
-73
-62
-51
-44
-37
-31
-26
-27
-26
-19
-14
-16
-19
-22
-23
-19
-17
-20
-22
-23
-27
-32
-34
-33
-30
-26
-22
-19
-19
-21
-26
-31
-28
-23
-23
-25
-25
-22
-24
-26
-23
-20
-15
-10
-12
-14
-11
-7
-3
0
-3
-6
-7
-8
-7
-6
-8
-9
-6
-6
-10
-11
-9
-9
-11
-10
-6
-4
-5
-7
-9
-10
-11
-12
-12
-12
-13
-20
-14
-28
-28
-23
-18
-16
-14
-19
-24
-26
-28
-27
-25
-21
-19
-22
-24
-22
-20
-20
-23
-30
-34
-34
-31
-25
-25
-30
-32
-32
-32
-33
-34
-34
-30
-25
-24
-24
-26
-29
-27
-23
-14
-6
-4
-2
-3
-4
2
8
10
11
4
-2
-4
-6
-5
-5
-8
-10
-9
-8
-7
-8
-12
-14
-13
-16
-23
-31
-41
-42
-39
-38
-38
-39
-41
-41
-39
-34
-29
-33
-39
-42
-46
8
62
127
192
257
322
387
426
361
295
230
164
99
33
-33
-85
-116
-119
-83
-56
-39
-38
-53
-59
-56
-59
-67
-68
-65
-64
-63
-62
-63
-63
-61
-60
-61
-62
-61
-60
-60
-62
-62
-64
-66
-64
-62
-62
-62
-62
-62
-63
-64
-63
-62
-64
-66
-66
-66
-66
-66
-66
-67
-69
-70
-71
-72
-73
-74
-75
-78
-81
-83
-85
-88
-91
-96
-101
-105
-109
-114
-119
-122
-124
-130
-136
-138
-140
-142
-144
-144
-144
-142
-139
-134
-128
-121
-112
-100
-88
-77
-66
-56
-45
-35
-28
-24
-19
-14
-11
-7
-5
-3
-2
-2
-2
-1
0
-1
-2
-2
-3
-5
-6
-6
-7
-8
-6
-4
-8
-12
-9
-6
-5
-4
-4
-4
-4
-4
-2
2
7
10
10
10
13
15
18
22
26
28
27
27
29
32
35
36
37
38
37
36
36
38
41
40
42
35
34
32
30
34
38
36
34
30
26
27
28
28
28
26
23
19
16
18
20
21
21
19
16
10
9
12
14
14
12
8
6
6
7
9
10
10
8
5
4
3
5
8
7
6
5
4
7
10
12
15
21
26
29
32
33
34
36
37
33
29
25
23
25
23
17
14
13
12
11
14
20
22
22
18
12
8
5
-3
-11
-13
-15
-16
-16
-15
-14
-16
-18
-17
-16
-14
-14
-25
-23
24
77
142
207
272
337
402
449
475
457
391
326
260
195
129
64
-2
-35
-51
-39
-14
-15
-24
-30
-35
-39
-43
-44
-45
-44
-46
-42
-44
-41
-38
-39
-40
-42
-44
-45
-46
-47
-48
-45
-42
-44
-46
-45
-45
-49
-52
-51
-49
-47
-46
-47
-48
-49
-50
-49
-49
-51
-52
-52
-52
-52
-52
-53
-54
-55
-58
-61
-62
-62
-62
-62
-66
-71
-79
-86
-86
-87
-95
-102
-105
-109
-116
-120
-120
-120
-122
-123
-120
-116
-112
-108
-104
-96
-86
-75
-62
-54
-46
-38
-30
-21
-12
-7
-3
0
3
4
3
7
14
14
14
11
8
4
0
0
0
2
4
2
0
0
0
-1
-1
2
3
0
-2
-1
2
7
10
10
10
10
8
5
7
12
16
19
19
17
14
11
18
27
27
28
24
24
19
14
22
30
32
33
24
16
15
14
15
16
17
18
16
14
14
14
13
12
11
9
7
6
6
4
0
2
8
8
5
2
-1
0
3
3
1
-1
-3
-3
-2
-2
-2
-1
0
-4
-8
-7
-6
-3
0
-2
-4
0
2
3
6
12
16
18
19
17
17
20
22
22
20
16
16
20
19
14
10
7
7
9
8
5
4
3
6
12
5
-2
-8
-15
-24
-32
-34
-35
-29
-24
-23
-22
-22
-21
-16
-16
-29
-28
-9
33
98
163
228
293
358
423
488
466
401
335
270
204
139
73
8
-27
-57
-37
-12
-28
-10
-52
-56
-57
-58
-59
-60
-60
-60
-62
-64
-59
-56
-55
-54
-56
-58
-59
-59
-56
-54
-55
-56
-55
-54
-55
-56
-55
-54
-55
-58
-61
-62
-63
-64
-64
-64
-63
-62
-63
-64
-65
-67
-68
-69
-70
-73
-76
-77
-78
-81
-84
-88
-93
-97
-100
-102
-105
-110
-116
-121
-126
-131
-134
-135
-137
-139
-141
-144
-145
-143
-138
-130
-124
-118
-108
-98
-86
-74
-64
-53
-46
-39
-34
-28
-20
-12
-9
-6
-5
-4
-4
-4
-2
0
-1
-2
-4
-6
-7
-8
-7
-6
-7
-8
-11
-11
-9
-8
-7
-6
-6
-6
-6
-5
-3
0
3
4
5
6
7
10
13
16
14
22
24
24
24
25
26
30
34
36
38
38
38
38
38
39
40
41
42
40
38
37
36
36
36
35
34
33
32
31
28
25
25
27
28
27
24
21
20
20
20
20
19
18
15
12
13
14
14
14
13
12
10
8
8
8
8
8
9
10
9
8
10
14
18
23
29
33
35
36
35
34
34
32
29
26
23
22
22
20
17
10
3
9
18
22
26
17
8
8
7
-1
-9
-15
-20
-20
-20
-21
-22
-20
-18
-18
-18
-17
-18
-25
-28
-28
5
64
126
191
256
321
386
451
417
352
286
221
155
90
24
-41
-88
-45
-87
-42
-30
-18
-29
-38
-42
-47
-54
-59
-54
-50
-50
-50
-52
-54
-53
-52
-51
-50
-51
-53
-55
-56
-56
-55
-52
-52
-56
-59
-61
-61
-59
-57
-55
-55
-57
-60
-63
-63
-61
-59
-58
-60
-62
-65
-68
-66
-64
-63
-63
-69
-74
-76
-78
-78
-79
-82
-86
-92
-97
-100
-103
-106
-110
-114
-119
-124
-129
-136
-136
-133
-132
-132
-133
-135
-132
-127
-117
-105
-97
-89
-79
-68
-59
-50
-39
-28
-24
-20
-17
-14
-10
-6
-5
-4
-4
-4
-6
-8
-7
-6
-7
-8
-9
-10
-10
-11
-13
-14
-13
-12
-13
-14
-13
-12
-11
-10
-10
-10
-9
-7
-5
-4
-4
-2
0
1
2
5
8
5
2
5
8
9
10
12
14
15
16
16
16
16
16
19
19
16
14
14
14
14
14
15
14
11
8
5
5
7
8
9
8
5
4
3
2
2
2
2
0
-2
-3
-4
-3
-2
-1
0
-2
-4
-4
-4
-2
0
-1
-2
-2
-1
1
3
5
10
17
22
26
28
28
28
28
27
25
19
13
12
13
11
7
4
0
8
16
18
20
18
16
13
10
6
-1
-13
-22
-23
-24
-25
-26
-25
-24
-26
-26
-19
-16
-17
-26
-40
-16
33
93
158
223
288
353
418
440
452
398
333
267
202
136
198
5
-58
-61
-62
-38
-17
-27
-36
-42
-47
-54
-59
-53
-48
-46
-45
-48
-50
-50
-49
-46
-48
-56
-59
-57
-53
-48
-46
-46
-50
-56
-58
-58
-56
-53
-53
-55
-57
-59
-61
-63
-58
-52
-55
-58
-59
-60
-58
-56
-59
-62
-65
-68
-68
-68
-69
-71
-75
-79
-82
-84
-86
-89
-92
-96
-100
-102
-101
-104
-111
-116
-119
-122
-125
-125
-123
-123
-125
-121
-115
-105
-95
-83
-70
-65
-60
-50
-40
-33
-26
-19
-13
-8
-4
-4
-4
-3
-2
-4
-6
-6
-6
-5
-5
-10
-12
-11
-10
-9
-8
-7
-7
-9
-10
-9
-7
-5
-7
-11
-12
-11
-6
-1
3
0
-4
-16
-9
-2
5
12
12
12
16
19
14
10
13
16
15
15
21
24
22
21
26
24
15
12
18
20
19
17
15
14
13
15
19
20
19
18
17
11
5
2
-1
1
4
6
8
5
2
-1
-4
-3
-2
1
3
-2
-6
-5
-5
-10
-13
-10
-7
-4
-3
-5
-6
-6
-2
5
12
19
22
23
24
25
26
27
26
23
20
17
17
19
19
16
14
12
14
16
14
12
10
8
7
5
0
-6
-15
-22
-21
-20
-19
-18
-19
-20
-21
-21
-18
-14
-8
-14
-29
-15
15
70
135
200
265
330
395
460
525
473
408
342
404
211
145
80
17
-24
-57
-32
-14
-29
-40
-40
-40
-41
-42
-44
-46
-45
-44
-44
-44
-41
-41
-43
-44
-44
-43
-41
-40
-40
-42
-45
-46
-46
-46
-45
-44
-45
-46
-46
-46
-47
-46
-44
-44
-44
-47
-50
-49
-48
-47
-46
-50
-54
-54
-54
-54
-54
-56
-60
-65
-68
-70
-73
-76
-80
-85
-91
-97
-102
-106
-108
-109
-113
-118
-123
-127
-128
-129
-125
-119
-118
-117
-111
-104
-94
-84
-68
-54
-45
-38
-31
-25
-15
-7
0
6
6
6
8
10
12
14
15
15
12
9
6
5
8
10
11
9
4
2
3
4
4
5
7
7
5
4
5
8
6
13
14
14
14
17
20
23
26
28
30
30
30
33
37
40
42
42
42
41
41
44
46
46
46
47
48
47
46
46
44
41
40
40
40
40
40
39
38
37
36
36
34
32
31
30
28
26
25
24
27
30
28
26
23
20
20
20
20
20
20
19
15
13
15
17
19
21
23
23
19
20
24
32
40
44
47
46
43
43
45
44
41
38
34
31
28
27
26
22
18
23
28
27
26
27
28
26
22
15
6
-4
-10
-9
-8
-8
-8
-8
-8
-8
-8
-8
-7
-5
-15
-32
-4
39
100
165
230
295
360
425
490
429
491
425
360
294
229
163
98
35
-15
-49
-24
-7
-13
-19
-24
-29
-33
-36
-38
-40
-37
-36
-36
-36
-35
-35
-37
-38
-37
-36
-37
-38
-38
-38
-38
-38
-37
-38
-41
-42
-41
-40
-40
-38
-36
-37
-38
-33
-28
-30
-32
-35
-39
-43
-46
-46
-47
-50
-52
-53
-54
-56
-58
-59
-61
-64
-67
-70
-74
-78
-82
-86
-91
-95
-100
-106
-112
-117
-114
-109
-109
-111
-111
-108
-105
-102
-92
-82
-73
-64
-51
-39
-31
-23
-19
-15
-9
-3
2
8
13
16
17
18
15
14
13
13
15
15
13
9
4
2
3
8
14
14
11
7
3
2
3
5
4
7
6
6
6
9
12
15
18
15
12
14
18
25
30
29
29
32
33
30
28
31
32
32
31
29
29
31
34
38
38
34
33
35
36
37
32
25
24
24
21
17
22
28
28
28
28
27
18
10
13
16
17
17
12
9
13
16
15
14
13
12
11
9
6
5
7
8
8
10
14
14
10
9
11
13
15
16
17
18
19
31
43
46
50
42
34
32
30
34
38
33
26
12
4
12
18
19
18
12
8
10
11
7
-1
-14
-19
-17
-16
-16
-17
-19
-17
-12
-9
-7
-5
-3
-12
-26
1
36
98
163
228
167
359
423
478
522
457
391
326
260
195
129
64
8
-20
-34
-16
-10
-26
-35
-32
-31
-36
-39
-41
-42
-41
-40
-39
-35
-30
-30
-34
-36
-37
-38
-37
-34
-31
-33
-37
-38
-38
-37
-36
-35
-34
-38
-42
-41
-40
-39
-38
-38
-38
-39
-40
-40
-40
-40
-40
-41
-43
-46
-48
-49
-51
-53
-55
-58
-62
-66
-70
-74
-79
-83
-88
-94
-98
-101
-106
-111
-116
-121
-123
-126
-125
-124
-122
-120
-115
-110
-103
-96
-85
-73
-60
-48
-40
-31
-22
-14
-7
0
6
10
9
11
17
20
21
22
22
20
17
17
19
20
21
21
19
16
13
12
13
16
14
19
18
15
12
16
20
23
26
25
24
26
28
31
35
39
42
43
44
42
42
49
53
56
57
55
54
55
58
61
63
65
63
59
58
58
60
63
64
63
61
59
57
56
57
58
57
56
52
48
49
50
49
48
47
46
44
42
43
44
44
44
42
39
37
36
36
36
37
38
37
36
35
34
35
38
41
42
41
41
43
51
59
63
68
67
66
65
64
63
62
57
52
51
50
48
45
40
38
45
50
52
52
47
44
43
39
32
24
16
13
16
16
13
12
12
12
13
15
17
17
15
4
-7
42
-8
161
226
291
356
421
477
481
472
407
341
276
210
145
79
13
-26
-19
-8
7
14
7
2
-3
-8
-14
-16
-16
-14
-11
-11
-13
-14
-14
-14
-15
-15
-13
-12
-13
-14
-14
-14
-14
-15
-16
-18
-20
-19
-18
-19
-20
-20
-20
-21
-22
-21
-20
-18
-17
-21
-24
-23
-22
-21
-20
-21
-22
-23
-26
-30
-31
-29
-31
-35
-42
-50
-57
-65
-68
-71
-75
-79
-85
-92
-92
-92
-93
-94
-96
-98
-98
-97
-90
-81
-69
-59
-53
-46
-37
-28
-17
-5
9
19
26
32
37
40
39
41
46
48
49
52
55
56
57
61
65
61
55
69
87
80
88
59
48
35
22
16
11
18
24
25
25
19
15
21
27
30
32
33
37
47
56
65
91
132
186
251
316
381
446
511
485
420
354
289
223
158
92
27
-39
-104
-55
3
4
4
-10
-24
-18
-12
-18
-24
-23
-22
-24
-25
-20
-16
-20
-20
-14
-10
-12
-17
-25
-29
-26
-23
-20
-19
-21
-22
-21
-24
-30
-26
-18
-17
-19
-20
-21
-22
-21
-20
-20
-20
-22
-29
-36
-31
-26
-31
-36
-33
-31
-36
-40
-43
-46
-44
-42
-42
-44
-49
-52
-52
-52
-52
-50
-46
-46
-50
-44
-29
-21
-16
-7
3
11
18
24
29
33
37
40
43
44
44
44
46
46
46
44
42
44
46
43
40
39
38
38
38
39
40
38
36
36
37
42
45
47
48
47
46
47
49
51
52
53
53
51
50
51
54
57
57
55
55
57
58
58
57
56
54
52
51
50
51
52
51
49
45
42
40
39
42
44
43
41
38
36
35
34
34
34
34
32
28
26
27
30
33
31
27
26
26
26
26
26
26
25
22
20
18
21
24
24
24
21
18
17
16
19
22
23
23
19
16
15
15
18
20
17
16
16
16
15
14
15
16
15
14
13
12
12
12
13
14
14
13
11
10
10
11
10
11
12
10
8
8
8
9
10
10
10
11
11
8
6
8
10
11
12
9
8
7
6
6
6
7
8
7
5
3
4
7
8
7
6
5
4
4
4
5
6
6
6
6
5
4
4
4
7
9
4
0
-1
-2
0
2
2
2
2
2
3
5
8
11
14
16
16
19
24
29
34
37
39
38
35
32
29
28
29
26
21
20
18
15
12
19
26
29
31
21
12
12
11
7
2
-7
-14
-15
-16
-14
-12
-11
-10
-11
-10
-6
-12
-28
-13
20
75
140
205
270
335
400
465
530
484
419
353
288
222
284
91
26
-25
-70
-42
-18
-22
-26
-32
-37
-44
-50
-51
-51
-47
-45
-49
-52
-50
-48
-49
-50
-50
-51
-53
-54
-54
-54
-53
-52
-53
-55
-57
-58
-58
-56
-53
-54
-57
-58
-57
-54
-52
-52
-52
-51
-50
-52
-54
-60
-64
-68
-73
-79
-84
-86
-88
-87
-86
-86
-90
-99
-107
-113
-116
-116
-119
-125
-128
-129
-135
-143
-143
-139
-138
-138
-138
-139
-135
-129
-121
-113
-105
-96
-87
-78
-68
-57
-43
-29
-21
-14
-10
-4
5
13
17
21
25
27
24
25
32
35
30
28
28
27
24
23
25
26
26
26
26
26
27
29
31
30
27
30
35
35
36
32
32
38
44
44
44
51
56
52
48
53
55
51
50
56
60
60
60
62
64
63
62
63
64
64
63
60
59
61
61
59
58
58
60
63
57
48
46
47
42
35
35
36
38
40
40
40
41
42
36
32
29
26
23
20
19
19
22
23
19
16
15
13
11
12
16
18
17
13
6
10
19
19
15
12
9
5
1
-1
-3
0
5
7
10
7
4
0
-4
-5
-6
-1
4
4
4
7
10
11
13
17
21
25
28
29
30
30
28
23
20
21
22
21
17
12
12
17
18
18
14
7
4
1
-3
-7
-13
-8
-20
-20
-22
-24
-23
-22
-20
-18
-14
-13
-27
-34
-19
13
78
143
208
273
338
403
468
467
401
336
270
205
139
73
8
-35
-67
-58
-33
-31
-35
-38
-41
-44
-47
-53
-59
-57
-54
-52
-50
-48
-46
-48
-50
-51
-52
-49
-46
-47
-48
-52
-53
-50
-48
-49
-50
-50
-50
-50
-50
-50
-50
-50
-50
-50
-52
-55
-56
-56
-56
-55
-55
-57
-58
-59
-60
-61
-63
-66
-68
-70
-75
-80
-84
-88
-92
-96
-100
-105
-109
-113
-119
-125
-128
-131
-134
-136
-137
-139
-142
-142
-137
-132
-126
-119
-110
-100
-89
-79
-69
-58
-47
-39
-32
-28
-25
-18
-11
-7
-10
-1
0
-2
-4
-2
0
1
2
1
0
-3
-6
-6
-6
-4
-2
-4
-6
-7
-7
-2
0
1
1
-1
-1
2
6
10
12
13
14
13
13
15
20
25
26
26
26
25
26
28
31
34
35
36
33
30
29
28
31
34
32
30
28
26
26
26
25
24
23
21
19
18
18
18
18
18
17
14
11
10
11
12
12
12
12
11
9
8
9
9
6
7
8
7
6
6
6
4
2
1
0
1
2
2
2
2
1
-2
-4
-3
-2
-2
-2
-1
1
3
5
7
8
8
12
18
24
30
32
32
32
31
28
25
24
24
25
28
18
8
8
8
11
14
17
20
18
15
9
4
5
3
-6
-13
-17
-20
-20
-20
-19
-18
-18
-18
-19
-18
-15
-24
-38
-6
42
103
168
233
298
363
428
445
459
396
330
265
199
134
68
3
-52
-50
-45
-27
-16
-26
-34
-38
-41
-45
-48
-49
-50
-49
-47
-45
-44
-44
-44
-45
-46
-47
-47
-45
-44
-44
-44
-45
-46
-45
-44
-43
-42
-43
-48
-54
-52
-50
-49
-48
-52
-56
-60
-63
-57
-53
-58
-62
-62
-62
-63
-65
-68
-69
-65
-64
-71
-76
-81
-85
-87
-88
-89
-97
-108
-112
-112
-113
-115
-118
-121
-129
-139
-140
-140
-135
-140
-124
-120
-117
-113
-102
-91
-80
-69
-60
-51
-45
-39
-33
-25
-16
-10
-10
-8
-3
0
0
0
1
2
2
0
-4
-6
-6
-6
-5
-6
-9
-9
-7
-6
-7
-7
-5
-1
3
-1
-6
-4
-2
0
2
5
8
6
4
6
8
9
10
14
17
20
22
24
26
25
25
27
27
25
25
28
30
30
27
22
20
20
17
13
12
13
14
15
15
13
12
14
16
18
17
16
11
6
5
4
3
2
1
0
-1
-2
0
1
-3
-6
-4
-2
-5
-8
-12
-10
-2
-1
-6
-7
-5
-6
-9
-9
-7
-6
-6
-6
-6
-5
-3
4
-2
11
10
12
14
19
24
26
28
24
20
20
18
11
6
7
7
3
3
10
13
8
5
2
-2
-6
-11
-17
-23
-28
-30
-30
-30
-31
-30
-27
-28
-31
-28
-23
-36
-51
-33
-12
53
118
183
248
313
378
443
480
415
349
284
218
152
87
21
-28
-55
-60
-38
-28
-32
-36
-40
-45
-50
-57
-67
-64
-55
-50
-47
-47
-49
-51
-53
-54
-53
-49
-45
-46
-50
-53
-56
-52
-48
-48
-48
-50
-52
-54
-55
-51
-48
-48
-49
-52
-54
-54
-54
-52
-50
-50
-51
-54
-56
-57
-58
-58
-58
-59
-62
-67
-71
-75
-76
-77
-82
-87
-92
-97
-101
-98
-108
-110
-114
-118
-124
-130
-131
-132
-130
-127
-122
-117
-113
-108
-100
-90
-76
-64
-52
-43
-36
-28
-19
-10
-3
3
8
12
15
17
19
20
21
22
23
24
23
22
21
20
19
17
16
18
20
18
16
17
18
19
20
21
22
23
24
25
27
31
34
35
36
36
38
42
45
48
50
51
52
52
54
57
59
61
62
63
64
64
63
61
62
65
66
64
63
62
62
62
61
60
58
56
54
52
53
54
52
50
49
48
46
44
45
46
46
45
43
42
41
40
41
42
42
42
41
39
37
36
37
38
37
36
36
36
36
36
36
36
36
38
40
42
44
47
51
60
66
67
68
69
69
65
60
55
53
58
57
51
47
45
44
44
48
54
56
56
50
42
39
37
30
23
19
15
14
13
12
12
15
18
16
14
17
18
2
-1
41
89
154
219
284
349
414
479
544
551
485
420
354
289
223
158
92
36
-16
-16
7
11
6
2
-1
-7
-15
-19
-23
-19
-13
-12
-12
-13
-14
-17
-20
-17
-14
-13
-12
-14
-16
-17
-18
-18
-18
-17
-17
-20
-22
-23
-24
-21
-20
-21
-23
-25
-26
-25
-24
-24
-24
-25
-28
-31
-30
-27
-28
-31
-32
-33
-36
-34
-40
-40
-46
-52
-54
-56
-59
-63
-69
-75
-84
-90
-92
-95
-99
-102
-103
-104
-105
-105
-100
-96
-91
-83
-72
-62
-50
-41
-33
-22
-10
-3
1
7
14
16
16
20
25
28
31
28
24
26
28
27
26
25
24
21
18
19
20
22
24
22
19
15
13
16
18
18
20
24
25
23
24
28
30
29
28
28
31
35
36
36
36
37
38
39
41
43
39
32
37
42
41
40
42
44
47
50
46
41
36
32
33
34
35
34
29
27
30
30
23
21
23
24
25
25
23
22
22
21
19
17
15
15
17
13
7
7
9
10
10
6
4
7
10
5
0
7
12
14
16
11
10
17
24
31
35
32
30
30
30
30
27
21
17
15
14
14
8
-1
8
25
25
18
6
-7
-5
1
-2
-7
-21
-35
-35
-34
-31
-28
-27
-26
-32
-38
-34
-30
-31
-32
-34
-22
23
75
140
205
270
335
400
401
335
270
204
139
73
8
-58
-89
-105
-86
-52
-37
-28
-39
-55
-59
-61
-67
-73
-70
-64
-63
-62
-63
-64
-65
-66
-66
-66
-66
-66
-68
-70
-69
-68
-68
-68
-68
-68
-70
-72
-71
-70
-71
-72
-72
-72
-73
-74
-74
-75
-77
-78
-78
-78
-78
-78
-78
-82
-87
-88
-88
-91
-92
-93
-94
-99
-104
-111
-116
-118
-121
-127
-133
-138
-142
-144
-147
-151
-155
-158
-160
-160
-159
-156
-152
-148
-143
-137
-129
-121
-109
-96
-83
-71
-64
-57
-53
-49
-42
-35
-28
-21
-22
-24
-23
-22
-20
-18
-18
-18
-20
-22
-25
-28
-26
-24
-25
-26
-27
-28
-26
-24
-23
-22
-21
-20
-21
-21
-19
-17
-15
-14
-13
-11
-9
-6
-3
-2
-2
2
7
8
8
8
10
10
10
13
16
17
18
16
14
13
12
13
14
14
14
13
12
11
10
11
12
9
7
5
4
4
4
5
4
1
0
-1
-2
-2
-2
-2
-2
-3
-6
-9
-10
-10
-5
-2
-4
-6
-8
-10
-9
-8
-7
-6
-7
-8
-7
-6
-4
-1
5
9
13
16
19
21
23
24
23
19
13
11
13
12
9
8
8
3
-4
0
9
13
17
11
3
-1
-4
-10
-16
-21
-26
-25
-24
-26
-28
-26
-24
-25
-25
-20
-20
-34
-36
-21
17
82
147
212
277
342
407
472
455
389
323
258
192
127
61
-4
-52
-96
-70
-33
-26
-21
-28
-38
-40
-42
-49
-56
-50
-44
-45
-46
-46
-46
-45
-44
-43
-42
-43
-44
-45
-46
-46
-46
-46
-46
-47
-48
-49
-50
-50
-50
-49
-48
-48
-48
-48
-48
-48
-48
-49
-50
-50
-50
-50
-52
-52
-54
-56
-56
-56
-61
-66
-67
-68
-69
-72
-79
-85
-89
-92
-94
-97
-101
-106
-111
-116
-120
-122
-122
-122
-122
-121
-119
-113
-106
-98
-88
-78
-68
-58
-48
-37
-27
-18
-9
-3
2
6
10
12
14
16
18
19
20
18
16
16
16
15
15
18
19
15
12
12
12
12
12
13
14
15
16
15
14
15
18
21
22
22
22
22
24
27
30
33
35
38
36
34
36
38
41
44
44
44
43
43
47
50
52
54
52
49
46
44
45
46
47
47
44
42
41
40
40
40
41
40
37
36
35
34
35
36
35
34
33
31
32
28
28
29
30
27
24
24
24
25
26
25
24
23
22
24
27
30
32
31
32
37
42
47
51
53
54
54
54
53
50
46
45
47
40
30
30
33
34
34
37
41
43
44
34
24
25
25
14
4
0
-4
0
4
4
4
2
0
1
3
6
1
-17
-19
-5
37
102
167
232
297
362
427
492
462
397
331
266
200
135
69
4
-35
-70
-38
-2
-2
-2
-16
-28
-25
-22
-24
-26
-23
-21
-28
-34
-33
-32
-31
-32
-37
-40
-39
-36
-29
-28
-32
-34
-34
-35
-38
-35
-27
-24
-25
-30
-36
-38
-37
-38
-41
-42
-42
-42
-42
-44
-44
-42
-40
-45
-50
-50
-50
-52
-54
-59
-62
-63
-65
-68
-70
-71
-74
-79
-85
-92
-98
-102
-104
-104
-106
-110
-114
-118
-120
-120
-117
-112
-106
-101
-94
-87
-76
-65
-55
-45
-35
-26
-19
-12
-7
-2
3
8
10
12
13
14
13
12
13
14
12
10
8
6
7
8
8
8
7
6
5
5
9
10
9
7
5
6
9
12
15
16
16
16
17
19
22
24
26
26
26
27
28
30
32
34
36
35
34
34
34
36
38
37
36
35
34
34
35
37
37
35
34
34
32
29
28
28
28
28
28
28
28
27
26
26
24
26
19
18
19
20
21
22
20
18
16
14
15
16
16
16
15
14
14
14
15
17
20
22
22
24
28
33
38
41
43
45
47
46
43
39
35
38
43
37
29
28
28
27
26
29
32
35
38
30
24
21
17
9
2
-1
-4
-5
-6
-7
-8
-6
-4
-3
0
5
-1
-18
-15
5
53
118
183
248
313
378
443
508
466
401
335
270
204
139
73
8
-28
-61
-35
-12
-15
-18
-20
-22
-25
-29
-35
-39
-35
-32
-30
-28
-28
-29
-32
-34
-34
-33
-31
-30
-31
-33
-35
-36
-36
-35
-33
-33
-35
-36
-36
-36
-36
-36
-36
-36
-36
-38
-38
-37
-36
-36
-36
-38
-40
-41
-42
-41
-40
-42
-45
-50
-54
-55
-56
-58
-61
-66
-70
-75
-79
-82
-85
-88
-92
-96
-100
-103
-104
-104
-104
-103
-102
-101
-95
-89
-78
-67
-56
-46
-38
-30
-19
-9
-1
6
10
14
16
18
20
22
26
28
26
23
20
18
20
22
21
19
16
13
11
11
15
16
16
15
13
12
13
16
19
20
20
20
20
20
20
25
30
32
34
35
36
38
40
42
44
44
44
45
46
48
50
51
52
53
54
53
52
53
53
50
48
49
50
49
47
45
44
43
42
41
40
40
39
37
35
36
33
34
35
36
32
28
28
28
27
26
26
26
24
22
23
24
26
28
28
28
27
27
29
35
44
49
52
52
49
48
48
48
49
47
43
36
29
28
29
28
25
30
36
36
36
32
28
28
27
19
10
-1
-10
-7
-4
-3
-3
-6
-8
-8
-7
-4
-1
2
-6
-24
-8
34
91
156
221
286
351
416
463
504
458
393
327
262
196
131
65
0
-21
-41
-22
-5
-16
-26
-27
-29
-34
-38
-38
-38
-38
-38
-37
-35
-32
-31
-34
-36
-37
-38
-37
-34
-30
-29
-31
-33
-35
-36
-35
-35
-37
-39
-41
-42
-43
-44
-43
-42
-42
-41
-40
-40
-40
-42
-44
-42
-40
-46
-50
-51
-52
-54
-56
-58
-61
-64
-67
-70
-73
-78
-82
-86
-88
-88
-90
-94
-99
-104
-107
-109
-110
-110
-109
-107
-106
-106
-96
-83
-71
-59
-47
-36
-32
-28
-24
-19
-10
-2
2
6
5
4
7
10
8
6
8
9
5
2
0
-1
1
1
-1
-2
-1
-2
-6
-6
-3
0
3
0
-6
-6
-3
0
3
1
-3
1
8
7
6
9
12
15
18
16
14
15
16
16
16
17
19
23
24
19
16
17
17
14
14
19
20
14
12
12
13
15
15
13
9
3
2
2
2
3
4
4
-1
4
-4
0
2
4
0
-4
-9
-14
-13
-12
-10
-8
-10
-11
-8
-6
-7
-8
-6
-4
-3
-3
-6
-6
0
6
15
20
24
24
21
20
21
15
6
8
13
5
-5
-4
-1
1
2
6
10
2
-6
-4
-2
-5
-10
-24
-34
-36
-38
-36
-34
-35
-34
-29
-27
-30
-30
-26
-32
-47
-47
-35
11
76
141
206
271
336
401
466
424
359
293
228
162
97
31
-34
-62
-87
-62
-40
-42
-45
-52
-58
-61
-65
-71
-74
-67
-62
-62
-62
-61
-60
-59
-58
-59
-60
-60
-61
-64
-66
-66
-64
-61
-61
-63
-64
-65
-66
-65
-63
-61
-62
-65
-66
-66
-66
-66
-67
-68
-68
-68
-71
-74
-74
-74
-72
-71
-77
-83
-86
-88
-90
-92
-93
-97
-104
-110
-115
-118
-119
-121
-124
-130
-136
-140
-143
-142
-139
-137
-135
-133
-131
-125
-119
-105
-91
-81
-72
-64
-56
-48
-39
-31
-24
-18
-14
-12
-10
-7
-4
-2
0
0
0
-1
-2
-2
-2
-1
-1
-3
-5
-7
-8
-8
-6
-3
-3
-5
-6
-6
-5
-3
-1
1
3
5
6
8
10
12
16
20
22
24
26
28
30
32
33
34
35
37
40
42
42
42
42
42
42
42
43
43
40
38
39
40
39
37
35
34
34
34
33
32
32
30
27
25
26
22
22
22
22
21
20
18
16
16
16
16
16
14
12
11
10
10
10
10
10
10
10
11
13
16
19
21
25
30
34
37
38
39
38
35
33
31
30
29
26
23
21
20
14
8
16
24
26
27
18
10
10
9
3
-5
-15
-22
-21
-20
-19
-18
-16
-14
-15
-16
-16
-20
-27
-27
-20
24
85
149
214
279
344
409
474
426
361
295
230
164
98
33
-31
-73
-106
-67
-33
-23
-16
-28
-39
-44
-49
-55
-58
-49
-44
-46
-48
-49
-50
-50
-49
-46
-45
-48
-50
-51
-52
-51
-49
-47
-47
-49
-51
-53
-53
-51
-50
-51
-52
-52
-55
-56
-54
-52
-53
-54
-55
-56
-57
-58
-59
-60
-62
-64
-66
-68
-69
-70
-72
-74
-77
-81
-87
-92
-96
-99
-101
-105
-110
-115
-120
-122
-122
-123
-125
-126
-126
-126
-125
-120
-115
-106
-98
-86
-74
-68
-61
-50
-39
-31
-24
-20
-15
-11
-8
-4
-2
-1
0
1
2
2
1
-1
-3
-5
-6
-5
-4
-5
-7
-9
-10
-10
-8
-5
-5
-7
-8
-7
-6
-5
-1
4
6
8
7
6
9
12
16
20
19
18
17
16
17
19
24
26
20
17
20
22
22
23
25
25
22
20
19
21
26
27
25
19
12
10
9
8
9
10
10
8
10
1
-2
6
14
14
14
7
2
8
12
9
6
3
-1
-5
-8
-7
-5
-2
0
0
0
0
1
4
8
12
16
19
22
25
26
26
26
25
23
21
23
27
22
15
11
8
6
4
9
14
14
13
4
-4
-2
-1
-6
-11
-16
-20
-20
-22
-28
-31
-27
-24
-25
-24
-20
-20
-24
-29
-34
-7
36
95
160
225
290
355
420
372
307
241
176
110
44
-21
-83
-88
-91
-58
-28
-13
-4
-29
-49
-53
-56
-58
-59
-54
-49
-46
-46
-51
-53
-50
-48
-48
-48
-48
-48
-48
-48
-47
-49
-54
-56
-56
-56
-55
-54
-53
-48
-43
-52
-42
-62
-60
-56
-52
-52
-52
-55
-58
-57
-56
-54
-53
-57
-61
-64
-66
-67
-70
-76
-80
-80
-84
-93
-98
-98
-99
-102
-105
-107
-110
-114
-116
-117
-118
-119
-120
-120
-120
-120
-115
-109
-104
-100
-89
-77
-64
-52
-47
-41
-34
-27
-19
-10
-1
6
5
4
4
4
4
4
5
5
3
1
-1
-2
-3
-3
-1
0
-1
-2
-3
-4
-3
-2
-1
-1
-3
-3
-1
3
8
9
10
9
8
9
11
18
24
27
30
27
24
27
31
36
40
39
38
38
38
39
41
44
45
42
40
41
42
41
41
43
42
39
38
37
36
36
36
36
35
36
31
30
28
26
27
28
27
26
25
24
23
22
21
20
21
22
21
20
20
20
21
22
23
24
25
29
35
40
44
46
47
48
49
50
49
43
37
38
41
36
29
27
26
28
30
33
36
34
32
26
22
18
13
8
3
-2
-6
-7
-8
-7
-6
-6
-6
-7
-5
3
-1
-15
-11
3
52
117
182
247
312
377
442
507
459
394
328
263
197
131
66
1
-49
-91
-55
-23
-16
-12
-22
-30
-30
-32
-41
-46
-39
-34
-36
-38
-38
-38
-37
-36
-36
-37
-39
-40
-41
-41
-39
-38
-39
-40
-40
-42
-45
-44
-41
-41
-43
-44
-44
-44
-42
-43
-44
-46
-48
-48
-48
-47
-46
-48
-50
-53
-56
-57
-58
-58
-59
-63
-67
-72
-76
-80
-82
-83
-87
-92
-96
-100
-103
-105
-109
-113
-114
-115
-116
-116
-113
-109
-102
-95
-86
-78
-67
-56
-47
-38
-30
-23
-17
-12
-8
-3
3
8
9
10
10
10
9
8
7
6
7
6
2
0
1
2
2
1
-1
-3
-5
-5
-3
-1
1
1
-1
-2
-2
-1
2
4
6
9
12
12
12
13
14
17
20
22
24
24
24
25
26
26
26
27
28
31
31
29
28
28
28
28
28
27
24
21
20
21
22
22
22
21
18
15
14
14
14
14
13
12
9
6
7
8
9
10
9
8
6
4
4
5
8
10
8
6
7
8
9
12
18
21
24
28
32
34
34
34
34
30
25
24
24
24
24
24
23
15
8
16
24
30
35
25
16
14
11
3
-6
-18
-26
-24
-22
-23
-24
-22
-20
-19
-17
-14
-14
-19
-28
-39
-16
29
88
153
218
283
348
413
413
398
339
274
208
143
77
11
-54
-114
-78
-45
-29
-17
-27
-36
-39
-43
-49
-54
-52
-50
-49
-48
-47
-46
-46
-46
-49
-49
-46
-46
-52
-55
-57
-56
-52
-50
-50
-53
-57
-58
-57
-55
-53
-55
-59
-58
-60
-55
-56
-59
-62
-61
-60
-62
-64
-61
-58
-59
-61
-66
-70
-72
-74
-73
-74
-80
-84
-85
-88
-93
-97
-99
-101
-104
-109
-114
-116
-115
-116
-119
-122
-125
-125
-123
-119
-115
-101
-87
-81
-76
-69
-62
-49
-37
-29
-22
-18
-14
-14
-14
-12
-10
-6
-3
1
4
2
-1
-5
-8
-8
-8
-7
-4
0
-1
-8
-11
-13
-12
-9
-8
-7
-11
-17
-12
-5
-4
-4
-2
2
0
-2
1
4
9
14
12
10
9
9
13
17
22
25
21
18
20
22
23
26
31
31
25
22
23
25
27
24
18
15
13
15
19
19
17
16
15
13
11
10
10
11
12
8
4
3
2
3
4
3
2
4
5
-1
-6
-7
-7
-3
1
4
6
5
4
5
10
18
21
19
18
18
20
24
27
29
27
23
20
17
17
19
16
11
12
14
15
16
11
6
5
3
-3
-10
-19
-26
-23
-20
-22
