-492
-497
-500
-502
-505
-508
-509
-511
-513
-512
-514
-514
-514
-516
-514
-515
-516
-515
-517
-518
-518
-518
-515
-516
-517
-516
-514
-514
-512
-514
-514
-513
-510
-509
-509
-510
-508
-508
-509
-508
-507
-507
-506
-508
-506
-506
-505
-506
-506
-506
-506
-506
-506
-506
-507
-508
-506
-506
-509
-511
-512
-509
-507
-505
-501
-500
-502
-502
-501
-497
-490
-490
-493
-494
-496
-495
-494
-495
-500
-502
-506
-506
-506
-510
-511
-516
-515
-518
-519
-519
-519
-518
-520
-519
-518
-517
-516
-514
-514
-512
-511
-513
-508
-486
-443
-395
-348
-300
-242
-185
-162
-222
-353
-490
-569
-586
-577
-561
-554
-552
-558
-560
-558
-556
-549
-543
-534
-530
-524
-519
-517
-514
-516
-512
-512
-512
-512
-511
-509
-508
-507
-508
-506
-505
-503
-503
-500
-498
-497
-495
-494
-492
-490
-488
-486
-485
-482
-479
-476
-473
-473
-470
-467
-465
-463
-463
-462
-460
-458
-460
-458
-457
-457
-457
-461
-461
-464
-466
-472
-477
-482
-487
-490
-495
-498
-500
-503
-503
-505
-506
-509
-507
-507
-506
-508
-507
-506
-506
-508
-508
-507
-506
-506
-508
-508
-507
-506
-506
-506
-506
-505
-506
-504
-502
-502
-502
-503
-502
-502
-502
-502
-500
-500
-499
-500
-498
-498
-498
-498
-499
-498
-499
-501
-502
-502
-502
-502
-502
-503
-504
-503
-503
-505
-506
-506
-506
-506
-502
-498
-495
-495
-496
-498
-494
-490
-486
-485
-488
-492
-490
-490
-489
-492
-497
-498
-498
-500
-500
-501
-503
-506
-509
-510
-511
-511
-511
-512
-511
-512
-510
-510
-511
-509
-508
-506
-506
-508
-506
-494
-463
-422
-381
-337
-285
-227
-186
-206
-298
-430
-526
-566
-561
-548
-537
-534
-543
-547
-550
-550
-546
-541
-534
-529
-522
-518
-516
-514
-513
-512
-514
-512
-511
-510
-510
-510
-510
-508
-506
-506
-505
-505
-503
-502
-502
-500
-500
-498
-495
-495
-494
-491
-488
-489
-486
-484
-484
-481
-479
-476
-476
-473
-471
-470
-468
-468
-466
-465
-465
-465
-465
-466
-466
-469
-473
-478
-482
-486
-490
-495
-498
-502
-502
-503
-505
-505
-506
-506
-507
-507
-506
-506
-506
-507
-507
-507
-508
-508
-508
-510
-509
-508
-507
-508
-508
-510
-506
-506
-507
-505
-504
-503
-502
-505
-505
-502
-502
-502
-503
-503
-502
-501
-503
-503
-503
-502
-502
-503
-504
-502
-505
-505
-505
-506
-508
-506
-506
-508
-509
-510
-508
-509
-511
-510
-510
-509
-509
-511
-509
-509
-509
-509
-510
-508
-504
-501
-500
-500
-500
-498
-494
-489
-486
-489
-490
-493
-492
-492
-492
-495
-498
-501
-502
-502
-502
-504
-506
-509
-511
-510
-512
-514
-514
-512
-512
-514
-514
-512
-512
-511
-509
-508
-510
-509
-509
-494
-462
-419
-378
-330
-278
-222
-191
-234
-344
-464
-537
-557
-552
-543
-535
-536
-540
-545
-547
-546
-543
-538
-532
-527
-522
-518
-516
-514
-514
-514
-511
-510
-511
-511
-510
-511
-508
-506
-506
-506
-505
-502
-502
-502
-500
-498
-498
-497
-495
-495
-492
-490
-490
-489
-486
-482
-481
-481
-479
-478
-474
-473
-472
-471
-468
-466
-466
-465
-465
-463
-463
-466
-468
-470
-472
-474
-480
-486
-489
-492
-494
-498
-501
-502
-502
-502
-506
-505
-506
-505
-505
-506
-505
-506
-505
-506
-506
-507
-508
-506
-506
-506
-506
-506
-506
-505
-505
-505
-505
-505
-505
-505
-503
-502
-501
-502
-503
-505
-502
-500
-503
-502
-502
-504
-506
-505
-505
-504
-503
-506
-506
-507
-506
-506
-506
-507
-508
-508
-508
-508
-510
-509
-509
-508
-510
-510
-511
-510
-512
-512
-512
-511
-510
-509
-509
-511
-509
-510
-510
-511
-511
-509
-511
-511
-512
-509
-508
-503
-502
-502
-503
-503
-498
-494
-490
-490
-492
-495
-495
-494
-495
-497
-499
-502
-502
-505
-505
-507
-511
-512
-514
-512
-514
-515
-517
-515
-515
-515
-514
-514
-514
-512
-512
-510
-509
-511
-512
-506
-481
-437
-391
-343
-287
-227
-186
-207
-305
-438
-534
-563
-561
-554
-546
-544
-549
-553
-554
-553
-550
-543
-537
-530
-527
-522
-518
-516
-514
-515
-514
-514
-512
-514
-511
-510
-508
-508
-508
-506
-505
-504
-502
-502
-500
-498
-496
-498
-495
-492
-489
-486
-486
-482
-479
-476
-474
-473
-470
-466
-465
-463
-462
-459
-457
-455
-455
-455
-456
-456
-458
-460
-463
-466
-471
-476
-482
-487
-492
-496
-501
-504
-507
-510
-508
-511
-511
-511
-511
-512
-512
-513
-511
-511
-512
-512
-512
-511
-512
-512
-512
-511
-512
-510
-510
-511
-510
-510
-508
-508
-508
-508
-506
-506
-507
-506
-505
-505
-502
-505
-506
-506
-506
-506
-506
-506
-505
-505
-506
-508
-507
-506
-506
-507
-508
-508
-509
-510
-509
-509
-509
-509
-509
-510
-510
-511
-510
-511
-512
-511
-511
-511
-511
-512
-512
-511
-510
-511
-510
-510
-511
-509
-511
-510
-508
-505
-502
-501
-501
-502
-500
-495
-492
-489
-490
-492
-495
-495
-496
-494
-495
-500
-502
-504
-504
-505
-508
-511
-512
-512
-514
-515
-514
-515
-514
-514
-514
-514
-514
-512
-512
-511
-510
-510
-511
-506
-488
-452
-399
-350
-295
-234
-177
-167
-242
-386
-510
-566
-573
-562
-551
-543
-543
-548
-551
-553
-547
-542
-535
-528
-522
-518
-514
-512
-511
-512
-511
-509
-508
-507
-506
-506
-503
-504
-502
-502
-500
-499
-496
-496
-495
-494
-494
-490
-490
-488
-486
-484
-482
-482
-478
-476
-472
-471
-468
-466
-465
-465
-462
-462
-460
-458
-458
-457
-457
-455
-455
-457
-458
-462
-465
-470
-474
-478
-483
-487
-490
-494
-496
-498
-499
-501
-502
-503
-503
-504
-502
-503
-503
-502
-505
-505
-506
-506
-503
-504
-505
-505
-505
-505
-502
-503
-502
-502
-502
-502
-502
-502
-501
-500
-500
-501
-501
-499
-498
-498
-498
-498
-498
-498
-500
-501
-500
-500
-500
-501
-500
-500
-502
-503
-502
-502
-502
-504
-505
-506
-504
-504
-505
-505
-506
-507
-506
-505
-506
-506
-507
-505
-505
-504
-505
-505
-505
-505
-505
-506
-506
-506
-505
-506
-506
-506
-506
-508
-507
-508
-508
-508
-508
-506
-507
-508
-507
-506
-503
-500
-498
-496
-497
-496
-495
-490
-486
-486
-488
-491
-490
-490
-492
-491
-494
-497
-498
-500
-500
-502
-505
-507
-509
-510
-509
-510
-510
-510
-510
-510
-510
-508
-508
-507
-505
-505
-505
-506
-508
-500
-476
-439
-398
-345
-283
-217
-175
-201
-298
-430
-520
-553
-552
-540
-532
-530
-534
-542
-543
-545
-541
-537
-529
-524
-519
-515
-511
-510
-510
-510
-509
-508
-507
-506
-505
-506
-503
-502
-502
-501
-500
-498
-498
-496
-496
-495
-494
-492
-492
-490
-490
-486
-484
-482
-481
-479
-478
-475
-473
-470
-469
-469
-465
-464
-464
-462
-461
-458
-458
-457
-457
-457
-459
-462
-463
-467
-470
-478
-481
-483
-486
-490
-494
-495
-496
-496
-498
-500
-501
-500
-499
-500
-502
-500
-500
-501
-502
-502
-500
-502
-502
-503
-503
-502
-502
-501
-500
-502
-502
-498
-499
-500
-498
-498
-496
-496
-497
-498
-496
-496
-496
-496
-497
-495
-496
-497
-496
-496
-496
-497
-498
-498
-498
-498
-498
-498
-500
-500
-500
-502
-500
-502
-502
-500
-501
-505
-503
-502
-503
-503
-505
-502
-502
-504
-503
-502
-502
-502
-502
-503
-502
-503
-502
-502
-502
-504
-503
-503
-503
-504
-503
-502
-503
-504
-504
-505
-504
-505
-505
-502
-502
-503
-502
-505
-502
-501
-495
-492
-494
-494
-494
-492
-489
-484
-481
-482
-486
-487
-486
-487
-486
-490
-494
-495
-497
-497
-496
-500
-503
-504
-505
-506
-507
-507
-506
-508
-507
-507
-506
-506
-505
-505
-502
-502
-502
-506
-504
-488
-457
-416
-372
-317
-255
-193
-166
-220
-335
-459
-530
-551
-543
-533
-526
-526
-532
-538
-540
-540
-535
-530
-526
-521
-515
-510
-508
-508
-508
-508
-506
-505
-505
-504
-503
-502
-502
-501
-498
-498
-496
-497
-495
-495
-494
-492
-491
-492
-490
-486
-486
-483
-484
-482
-479
-476
-475
-473
-470
-468
-466
-466
-463
-462
-461
-459
-458
-458
-457
-455
-457
-457
-458
-460
-462
-466
-471
-475
-478
-482
-487
-490
-493
-494
-494
-495
-497
-498
-498
-498
-499
-501
-500
-500
-501
-502
-502
-502
-502
-502
-503
-502
-502
-502
-502
-502
-500
-500
-500
-500
-500
-500
-498
-498
-498
-498
-498
-498
-496
-498
-498
-498
-497
-496
-496
-497
-497
-496
-500
-500
-500
-500
-498
-501
-502
-502
-503
-505
-503
-505
-505
-505
-506
-505
-505
-506
-505
-505
-506
-506
-505
-506
-505
-506
-506
-506
-506
-506
-506
-506
-506
-506
-506
-506
-506
-506
-506
-506
-506
-505
-506
-506
-506
-508
-506
-507
-508
-508
-508
-509
-508
-507
-508
-508
-509
-507
-508
-506
-505
-501
-498
-496
-496
-498
-495
-490
-486
-486
-488
-489
-490
-490
-489
-490
-492
-495
-498
-500
-501
-500
-503
-506
-508
-509
-509
-509
-510
-509
-510
-509
-509
-507
-508
-506
-505
-505
-506
-506
-509
-506
-490
-462
-418
-367
-306
-240
-180
-171
-238
-362
-482
-542
-551
-545
-535
-531
-534
-539
-543
-545
-543
-541
-533
-527
-521
-518
-514
-511
-510
-511
-510
-510
-508
-506
-506
-505
-503
-502
-504
-502
-500
-500
-496
-498
-496
-497
-495
-493
-492
-489
-487
-486
-484
-482
-480
-476
-473
-471
-468
-467
-464
-462
-458
-457
-457
-455
-453
-453
-451
-451
-452
-450
-454
-455
-459
-462
-466
-473
-478
-482
-486
-490
-494
-497
-498
-503
-502
-504
-505
-505
-505
-504
-506
-506
-506
-506
-508
-508
-507
-506
-505
-506
-506
-505
-505
-504
-503
-504
-502
-502
-500
-501
-500
-500
-500
-499
-499
-498
-498
-498
-498
-498
-496
-496
-497
-496
-498
-501
-498
-496
-498
-499
-500
-500
-501
-503
-502
-502
-502
-502
-502
-504
-504
-504
-505
-505
-505
-505
-505
-505
-506
-506
-505
-505
-505
-506
-506
-505
-506
-505
-506
-506
-508
-509
-506
-508
-507
-508
-507
-509
-508
-508
-508
-508
-511
-510
-510
-509
-509
-509
-505
-500
-498
-499
-499
-501
-496
-494
-489
-489
-489
-490
-490
-492
-490
-491
-492
-496
-500
-501
-502
-502
-504
-507
-509
-510
-509
-512
-513
-513
-511
-511
-511
-511
-511
-509
-510
-509
-510
-508
-509
-508
-486
-450
-401
-346
-289
-226
-169
-163
-244
-386
-510
-563
-568
-558
-550
-544
-545
-549
-551
-551
-546
-540
-532
-526
-521
-516
-511
-511
-510
-510
-508
-506
-506
-506
-506
-502
-503
-501
-500
-500
-498
-499
-496
-495
-494
-492
-490
-489
-487
-485
-482
-481
-478
-476
-471
-468
-466
-465
-462
-458
-455
-452
-452
-450
-449
-447
-447
-447
-447
-446
-447
-449
-451
-456
-460
-466
-472
-478
-483
-488
-492
-497
-501
-502
-503
-504
-505
-506
-506
-506
-506
-508
-508
-508
-508
-509
-509
-510
-510
-509
-509
-509
-510
-509
-508
-509
-509
-507
-505
-504
-506
-502
-502
-502
-501
-500
-501
-499
-499
-500
-498
-498
-498
-499
-499
-501
-498
-499
-498
-500
-502
-502
-501
-502
-502
-502
-502
-502
-502
-502
-502
-503
-502
-504
-506
-505
-505
-502
-505
-505
-505
-505
-505
-505
-506
-506
-506
-504
-506
-506
-506
-505
-505
-506
-507
-506
-506
-508
-507
-508
-506
-508
-510
-507
-503
-500
-498
-498
-498
-497
-494
-490
-486
-488
-489
-490
-491
-490
-491
-491
-494
-496
-498
-498
-498
-502
-506
-508
-508
-509
-510
-511
-511
-509
-510
-510
-510
-510
-508
-508
-506
-506
-506
-508
-509
-496
-466
-423
-380
-329
-274
-215
-172
-202
-313
-450
-534
-559
-551
-541
-532
-530
-536
-542
-545
-543
-540
-534
-527
-522
-516
-512
-510
-509
-509
-509
-506
-507
-506
-505
-505
-502
-501
-502
-502
-500
-500
-498
-496
-495
-496
-494
-490
-490
-489
-488
-483
-482
-481
-479
-478
-474
-473
-471
-468
-466
-463
-463
-462
-460
-457
-454
-455
-454
-453
-452
-452
-456
-457
-461
-465
-469
-474
-478
-481
-486
-489
-493
-498
-496
-498
-501
-502
-504
-502
-501
-503
-502
-502
-503
-502
-502
-503
-502
-503
-502
-504
-504
-503
-503
-505
-504
-503
-502
-502
-503
-503
-502
-502
-501
-502
-502
-502
-500
-500
-500
-498
-498
-499
-498
-498
-498
-498
-498
-498
-501
-500
-499
-498
-501
-502
-502
-502
-502
-502
-502
-502
-502
-503
-502
-502
-504
-503
-502
-503
-505
-502
-502
-502
-504
-503
-502
-503
-505
-505
-505
-505
-504
-505
-506
-506
-506
-505
-506
-506
-506
-504
-506
-506
-506
-506
-506
-508
-506
-503
-500
-496
-497
-497
-498
-496
-493
-489
-486
-486
-489
-490
-490
-490
-490
-492
-495
-497
-499
-498
-498
-501
-505
-506
-506
-510
-511
-511
-511
-508
-510
-509
-510
-509
-509
-506
-506
-506
-505
-509
-506
-491
-459
-417
-368
-316
-258
-198
-172
-227
-355
-482
-543
-552
-543
-534
-527
-528
-534
-540
-541
-541
-539
-534
-527
-521
-516
-512
-511
-511
-511
-509
-509
-509
-508
-508
-505
-505
-503
-504
-502
-503
-500
-500
-498
-498
-498
-495
-494
-494
-492
-490
-489
-486
-486
-482
-481
-477
-476
-473
-470
-468
-467
-465
-463
-462
-459
-458
-457
-457
-454
-454
-455
-456
-458
-462
-466
-471
-476
-480
-484
-486
-491
-495
-496
-498
-501
-503
-505
-502
-503
-502
-502
-503
-503
-503
-504
-505
-504
-503
-504
-506
-504
-505
-505
-503
-505
-505
-505
-503
-503
-502
-502
-502
-502
-502
-502
-502
-502
-500
-500
-501
-501
-500
-500
-501
-501
-501
-500
-500
-502
-502
-500
-500
-501
-502
-503
-502
-503
-503
-505
-505
-503
-503
-502
-504
-506
-505
-505
-505
-505
-506
-505
-505
-505
-505
-505
-505
-504
-505
-506
-505
-504
-505
-506
-507
-507
-505
-506
-506
-507
-505
-506
-506
-506
-507
-506
-508
-507
-506
-508
-505
-503
-500
-498
-496
-496
-497
-496
-490
-486
-486
-488
-491
-493
-490
-490
-491
-495
-498
-498
-498
-501
-502
-504
-506
-508
-510
-509
-509
-511
-510
-511
-510
-509
-508
-508
-508
-506
-506
-505
-506
-510
-502
-477
-442
-400
-354
-297
-231
-181
-198
-294
-423
-516
-546
-546
-538
-529
-526
-532
-539
-542
-543
-541
-537
-531
-524
-519
-514
-514
-511
-512
-511
-511
-510
-508
-508
-506
-506
-506
-506
-504
-503
-502
-503
-502
-500
-498
-498
-497
-497
-494
-492
-492
-490
-486
-485
-484
-482
-479
-476
-474
-473
-470
-468
-465
-463
-462
-462
-461
-458
-458
-457
-457
-458
-460
-463
-466
-471
-475
-481
-486
-492
-494
-497
-500
-503
-506
-506
-506
-507
-506
-508
-508
-506
-508
-508
-509
-508
-508
-509
-510
-510
-509
-508
-508
-510
-509
-509
-508
-509
-508
-508
-507
-506
-508
-507
-505
-505
-504
-505
-504
-503
-505
-506
-504
-505
-502
-502
-506
-505
-505
-502
-503
-503
-505
-505
-504
-505
-506
-506
-505
-506
-506
-506
-506
-506
-505
-506
-507
-508
-508
-508
-508
-509
-508
-508
-508
-509
-510
-510
-506
-510
-511
-511
-510
-508
-509
-509
-510
-509
-509
-509
-510
-511
-511
-511
-510
-509
-509
-510
-507
-505
-502
-500
-499
-498
-501
-496
-490
-487
-490
-494
-495
-491
-490
-492
-495
-499
-500
-502
-502
-502
-505
-508
-510
-512
-511
-510
-511
-512
-512
-512
-514
-511
-509
-510
-509
-509
-506
-509
-513
-506
-482
-445
-402
-355
-300
-236
-182
-189
-278
-412
-518
-559
-560
-551
-542
-538
-540
-546
-549
-550
-546
-540
-532
-526
-519
-516
-514
-512
-512
-510
-510
-510
-510
-507
-506
-505
-505
-506
-502
-500
-501
-500
-498
-497
-495
-494
-492
-489
-487
-486
-485
-482
-477
-475
-474
-470
-466
-463
-460
-457
-454
-452
-450
-449
-447
-446
-444
-442
-444
-444
-446
-448
-450
-456
-462
-468
-473
-479
-486
-494
-495
-498
-502
-505
-508
-510
-508
-509
-510
-509
-510
-510
-509
-511
-511
-512
-511
-511
-512
-512
-512
-512
-514
-512
-511
-509
-510
-511
-511
-509
-508
-507
-508
-506
-505
-503
-501
-505
-506
-506
-505
-506
-504
-502
-502
-502
-505
-502
-502
-502
-502
-503
-502
-502
-502
-503
-503
-503
-503
-502
-505
-506
-505
-505
-505
-507
-506
-506
-506
-508
-507
-509
-508
-508
-510
-510
-509
-509
-508
-510
-509
-510
-508
-510
-511
-509
-506
-502
-502
-500
-500
-498
-496
-492
-488
-489
-490
-494
-495
-494
-492
-494
-497
-500
-502
-502
-503
-506
-510
-511
-511
-511
-512
-514
-514
-513
-512
-514
-513
-513
-511
-511
-510
-509
-508
-509
-511
-500
-468
-423
-374
-322
-258
-192
-156
-201
-321
-462
-547
-570
-564
-551
-542
-538
-543
-548
-549
-547
-541
-535
-529
-521
-515
-511
-511
-510
-509
-508
-507
-506
-506
-505
-503
-502
-501
-502
-501
-497
-498
-496
-495
-494
-494
-490
-490
-487
-486
-486
-482
-481
-478
-474
-473
-470
-468
-466
-462
-461
-458
-457
-454
-452
-450
-451
-450
-449
-449
-450
-453
-454
-457
-462
-466
-472
-479
-482
-488
-494
-497
-498
-501
-502
-505
-503
-503
-505
-506
-506
-505
-505
-502
-502
-505
-505
-505
-505
-506
-506
-506
-506
-505
-505
-506
-505
-505
-507
-506
-506
-505
-502
-503
-502
-502
-500
-500
-501
-501
-500
-499
-499
-498
-498
-498
-498
-499
-498
-498
-498
-498
-500
-501
-502
-501
-502
-502
-503
-505
-502
-502
-502
-503
-503
-502
-502
-505
-503
-502
-502
-505
-505
-505
-503
-504
-505
-505
-505
-505
-505
-505
-506
-504
-505
-505
-502
-505
-505
-505
-505
-505
-506
-503
-500
-498
-499
-495
-497
-496
-492
-489
-483
-485
-487
-490
-490
-488
-489
-493
-494
-498
-498
-499
-500
-502
-503
-506
-509
-508
-510
-509
-510
-509
-509
-508
-507
-507
-506
-506
-505
-504
-503
-506
-506
-492
-458
-418
-373
-322
-265
-206
-178
-229
-351
-475
-542
-554
-547
-534
-527
-530
-538
-543
-545
-543
-538
-534
-527
-521
-516
-514
-511
-510
-510
-509
-509
-509
-508
-508
-507
-506
-505
-504
-502
-502
-502
-500
-498
-498
-497
-497
-495
-494
-493
-493
-489
-487
-486
-482
-482
-478
-476
-473
-472
-471
-466
-464
-463
-462
-461
-458
-457
-456
-457
-457
-458
-461
-463
-468
-471
-475
-481
-486
-490
-494
-498
-500
-503
-505
-505
-506
-506
-508
-506
-506
-507
-509
-509
-508
-508
-508
-510
-510
-511
-509
-511
-511
-511
-510
-510
-509
-510
-510
-510
-509
-509
-508
-508
-506
-506
-507
-506
-506
-505
-505
-506
-506
-505
-505
-505
-506
-505
-505
-505
-508
-506
-506
-506
-506
-508
-508
-509
-509
-511
-510
-510
-509
-509
-512
-512
-511
-511
-512
-512
-511
-511
-512
-513
-514
-513
-512
-512
-514
-514
-514
-512
-512
-512
-512
-512
-511
-512
-513
-513
-511
-511
-513
-513
-512
-512
-510
-512
-513
-512
-511
-514
-514
-513
-511
-506
-506
-504
-503
-502
-502
-498
-494
-490
-491
-494
-497
-498
-494
-495
-498
-500
-505
-506
-505
-505
-508
-511
-512
-514
-515
-515
-516
-517
-515
-515
-516
-514
-512
-514
-514
-512
-511
-509
-509
-513
-509
-487
-452
-406
-359
-302
-236
-177
-178
-261
-396
-506
-556
-561
-547
-536
-532
-538
-545
-550
-550
-547
-543
-538
-530
-524
-520
-518
-515
-515
-515
-514
-514
-514
-512
-511
-512
-511
-510
-506
-506
-506
-506
-505
-506
-503
-503
-502
-500
-500
-496
-495
-494
-491
-490
-487
-485
-482
-480
-478
-475
-474
-472
-470
-466
-466
-465
-462
-460
-460
-460
-458
-460
-461
-463
-468
-470
-478
-482
-486
-492
-495
-498
-501
-502
-505
-510
-506
-508
-509
-510
-512
-510
-510
-510
-509
-509
-510
-510
-512
-511
-509
-510
-510
-512
-509
-510
-509
-509
-510
-510
-509
-508
-509
-510
-509
-508
-508
-508
-506
-506
-506
-506
-506
-506
-506
-505
-506
-505
-506
-506
-506
-506
-508
-507
-508
-508
-510
-510
-509
-508
-511
-510
-511
-511
-512
-513
-513
-512
-513
-512
-512
-512
-511
-513
-514
-514
-512
-510
-511
-511
-512
-512
-513
-512
-511
-514
-512
-511
-512
-513
-513
-512
-514
-515
-514
-514
-512
-514
-512
-514
-512
-512
-512
-514
-514
-514
-512
-509
-506
-504
-503
-503
-505
-502
-497
-492
-492
-495
-498
-496
-495
-495
-496
-500
-503
-505
-505
-506
-508
-509
-512
-512
-516
-516
-516
-516
-518
-517
-515
-516
-514
-516
-513
-511
-512
-509
-511
-512
-510
-493
-455
-410
-360
-302
-240
-186
-179
-252
-380
-496
-552
-561
-552
-543
-540
-545
-550
-553
-553
-550
-544
-537
-530
-524
-521
-519
-518
-516
-514
-514
-514
-512
-511
-512
-510
-510
-508
-506
-508
-505
-503
-502
-502
-501
-501
-498
-496
-495
-494
-490
-487
-486
-483
-481
-478
-473
-470
-470
-466
-462
-460
-459
-458
-458
-455
-454
-453
-453
-452
-454
-455
-458
-462
-467
-471
-479
-484
-490
-495
-498
-506
-507
-510
-509
-511
-511
-514
-514
-514
-514
-516
-514
-514
-514
-514
-514
-514
-514
-516
-516
-515
-515
-514
-512
-513
-514
-512
-511
-511
-511
-509
-510
-506
-509
-509
-509
-508
-506
-508
-508
-507
-506
-507
-505
-506
-506
-505
-506
-506
-506
-506
-506
-506
-507
-507
-507
-507
-508
-511
-510
-512
-512
-511
-511
-510
-511
-511
-512
-511
-511
-511
-512
-512
-512
-511
-513
-513
-512
-512
-510
-512
-514
-514
-514
-514
-512
-512
-514
-514
-514
-514
-514
-514
-514
-512
-511
-508
-505
-503
-505
-506
-502
-496
-492
-492
-495
-496
-498
-495
-495
-498
-500
-502
-505
-506
-506
-506
-511
-513
-516
-518
-514
-517
-517
-518
-518
-518
-516
-516
-515
-514
-514
-512
-509
-511
-512
-508
-486
-446
-394
-342
-287
-228
-174
-171
-254
-398
-516
-566
-573
-566
-557
-551
-553
-556
-558
-556
-550
-542
-534
-527
-522
-517
-514
-513
-512
-512
-511
-508
-510
-508
-508
-506
-506
-505
-503
-503
-502
-501
-500
-496
-495
-494
-492
-490
-489
-486
-484
-479
-477
-474
-471
-468
-464
-462
-459
-456
-454
-451
-450
-447
-445
-444
-442
-443
-442
-444
-446
-450
-454
-458
-462
-470
-476
-484
-491
-494
-498
-500
-502
-506
-506
-508
-508
-509
-508
-507
-510
-509
-508
-509
-510
-511
-509
-510
-510
-512
-512
-511
-509
-508
-509
-509
-508
-508
-508
-506
-504
-502
-502
-502
-503
-502
-502
-501
-501
-500
-501
-498
-499
-498
-498
-501
-498
-498
-500
-501
-498
-500
-502
-502
-502
-502
-502
-504
-504
-503
-502
-505
-504
-503
-502
-502
-506
-505
-505
-505
-505
-505
-505
-505
-504
-506
-506
-505
-505
-505
-506
-506
-505
-505
-502
-507
-507
-509
-506
-506
-506
-506
-508
-505
-503
-500
-496
-495
-495
-497
-494
-489
-485
-483
-487
-489
-489
-486
-486
-490
-491
-495
-495
-496
-498
-500
-504
-505
-506
-506
-508
-508
-508
-509
-508
-508
-508
-508
-506
-507
-503
-503
-502
-503
-507
-501
-479
-438
-390
-332
-274
-210
-158
-162
-252
-390
-506
-554
-556
-545
-535
-532
-538
-544
-546
-545
-541
-535
-529
-521
-515
-511
-509
-507
-508
-508
-506
-506
-505
-503
-503
-503
-501
-498
-498
-496
-498
-494
-494
-494
-494
-492
-490
-489
-487
-486
-485
-482
-481
-478
-476
-473
-470
-468
-466
-465
-461
-458
-457
-457
-455
-451
-452
-452
-451
-450
-449
-450
-454
-457
-462
-465
-471
-476
-482
-484
-490
-493
-498
-498
-498
-500
-500
-503
-502
-502
-502
-502
-502
-502
-502
-502
-502
-503
-504
-503
-505
-506
-504
-503
-503
-505
-502
-502
-502
-502
-503
-502
-502
-500
-498
-501
-500
-498
-497
-497
-500
-498
-497
-497
-498
-497
-498
-497
-498
-501
-498
-500
-500
-501
-502
-502
-502
-502
-502
-502
-502
-502
-502
-503
-502
-503
-503
-503
-505
-503
-505
-505
-505
-505
-506
-506
-506
-506
-506
-505
-505
-503
-505
-506
-505
-505
-504
-506
-506
-505
-505
-508
-508
-506
-506
-506
-506
-506
-506
-506
-506
-506
-503
-498
-495
-495
-496
-496
-494
-489
-486
-484
-489
-490
-490
-489
-490
-492
-494
-497
-500
-500
-500
-500
-502
-506
-507
-507
-508
-510
-510
-509
-508
-510
-508
-508
-508
-506
-507
-504
-505
-505
-506
-505
-486
-451
-406
-358
-302
-240
-182
-163
-233
-368
-490
-547
-554
-543
-534
-527
-531
-539
-545
-546
-543
-534
-529
-524
-518
-513
-508
-510
-508
-508
-508
-508
-506
-505
-505
-502
-502
-502
-500
-499
-496
-496
-497
-497
-495
-494
-492
-492
-490
-489
-486
-484
-482
-481
-478
-474
-474
-472
-470
-466
-463
-462
-461
-459
-457
-456
-455
-454
-451
-451
-452
-452
-454
-456
-458
-465
-470
-475
-481
-482
-487
-491
-494
-496
-497
-500
-502
-502
-502
-503
-504
-505
-502
-502
-504
-503
-505
-503
-503
-505
-505
-503
-502
-503
-505
-504
-502
-502
-502
-503
-501
-502
-502
-501
-502
-498
-500
-500
-501
-502
-502
-499
-499
-500
-500
-501
-500
-501
-502
-500
-500
-501
-502
-503
-502
-502
-502
-502
-504
-503
-502
-502
-505
-506
-505
-505
-506
-506
-507
-506
-506
-506
-506
-507
-506
-506
-508
-506
-508
-506
-509
-508
-509
-508
-508
-508
-510
-509
-508
-508
-508
-509
-507
-506
-506
-508
-508
-507
-506
-506
-507
-508
-506
-506
-508
-508
-504
-500
-498
-498
-499
-498
-495
-490
-486
-486
-489
-490
-492
-490
-490
-492
-495
-498
-500
-498
-498
-500
-505
-509
-509
-509
-509
-510
-513
-509
-510
-510
-511
-510
-508
-506
-507
-505
-504
-502
-506
-506
-492
-462
-421
-374
-322
-262
-198
-164
-206
-316
-449
-532
-556
-549
-540
-533
-534
-540
-544
-547
-546
-541
-535
-530
-522
-518
-512
-511
-512
-511
-511
-509
-509
-510
-508
-505
-505
-504
-503
-502
-502
-501
-501
-498
-498
-497
-497
-495
-494
-492
-490
-489
-488
-485
-482
-481
-477
-476
-473
-470
-467
-466
-465
-461
-461
-458
-457
-455
-454
-454
-455
-455
-456
-457
-460
-465
-470
-474
-479
-483
-489
-494
-497
-498
-502
-502
-505
-505
-506
-508
-508
-508
-508
-508
-508
-508
-508
-506
-507
-507
-508
-507
-506
-506
-506
-507
-506
-505
-506
-506
-506
-506
-506
-505
-505
-505
-502
-505
-504
-502
-502
-503
-503
-503
-502
-502
-503
-503
-505
-504
-502
-502
-502
-504
-503
-505
-506
-506
-507
-506
-506
-506
-508
-510
-508
-508
-509
-509
-509
-508
-510
-508
-510
-509
-511
-508
-509
-511
-510
-511
-508
-509
-510
-510
-510
-511
-510
-509
-510
-509
-510
-510
-509
-509
-510
-510
-509
-510
-509
-508
-509
-510
-510
-508
-510
-509
-511
-510
-506
-504
-502
-499
-500
-500
-500
-495
-489
-487
-487
-490
-493
-494
-490
-489
-494
-496
-498
-500
-502
-502
-504
-505
-506
-510
-511
-511
-510
-511
-510
-511
-510
-509
-509
-509
-509
-506
-505
-502
-505
-507
-501
-477
-438
-390
-338
-281
-217
-163
-170
-254
-393
-508
-559
-566
-556
-546
-542
-546
-552
-553
-550
-545
-538
-530
-524
-519
-515
-511
-509
-506
-508
-509
-506
-506
-505
-504
-503
-502
-500
-498
-498
-496
-496
-494
-494
-492
-492
-490
-488
-486
-482
-482
-478
-478
-474
-474
-469
-464
-462
-458
-458
-454
-450
-447
-446
-446
-444
-442
-440
-440
-441
-440
-442
-446
-449
-454
-459
-466
-474
-479
-484
-489
-493
-497
-502
-503
-505
-506
-508
-510
-511
-509
-509
-511
-511
-509
-509
-508
-511
-509
-510
-508
-510
-509
-510
-510
-508
-510
-508
-506
-506
-506
-506
-506
-505
-505
-506
-505
-505
-502
-503
-502
-503
-503
-500
-501
-502
-502
-502
-502
-501
-503
-502
-502
-501
-502
-505
-505
-505
-502
-505
-505
-506
-506
-508
-508
-508
-507
-507
-508
-508
-508
-507
-506
-508
-508
-510
-508
-509
-509
-510
-509
-508
-508
-508
-509
-509
-509
-509
-508
-509
-509
-507
-509
-509
-510
-506
-503
-500
-500
-498
-498
-498
-495
-491
-487
-486
-490
-493
-491
-490
-492
-492
-495
-498
-500
-501
-502
-502
-506
-508
-509
-511
-511
-511
-511
-511
-511
-512
-510
-509
-510
-510
-506
-505
-503
-505
-508
-502
-476
-432
-383
-330
-274
-213
-161
-163
-252
-396
-509
-560
-569
-559
-550
-541
-543
-549
-550
-550
-543
-538
-530
-524
-518
-512
-511
-510
-508
-506
-507
-506
-505
-502
-500
-500
-501
-501
-498
-495
-495
-495
-495
-494
-492
-490
-489
-486
-483
-484
-482
-479
-477
-475
-473
-470
-470
-466
-462
-461
-458
-458
-454
-452
-450
-450
-449
-447
-446
-446
-446
-445
-449
-450
-455
-458
-463
-468
-473
-479
-485
-489
-492
-494
-496
-498
-498
-500
-501
-502
-502
-500
-502
-502
-502
-502
-502
-502
-502
-503
-503
-504
-504
-506
-502
-503
-502
-502
-502
-502
-500
-499
-500
-500
-498
-496
-496
-497
-496
-495
-495
-496
-495
-495
-495
-495
-495
-496
-495
-494
-495
-495
-496
-497
-496
-495
-496
-498
-496
-496
-496
-500
-498
-498
-498
-501
-498
-500
-500
-500
-503
-502
-501
-501
-500
-501
-502
-502
-502
-502
-503
-503
-503
-502
-502
-502
-503
-502
-502
-502
-503
-502
-500
-496
-494
-494
-494
-492
-491
-489
-483
-482
-481
-485
-487
-487
-486
-486
-488
-492
-495
-495
-496
-495
-496
-502
-502
-506
-506
-506
-506
-506
-506
-506
-506
-506
-505
-502
-502
-502
-500
-500
-503
-504
-492
-463
-422
-381
-330
-274
-211
-165
-187
-291
-431
-524
-554
-553
-540
-530
-529
-534
-541
-542
-542
-538
-532
-527
-521
-516
-509
-507
-506
-506
-505
-505
-505
-505
-502
-500
-498
-500
-500
-498
-495
-494
-494
-494
-491
-490
-490
-490
-488
-486
-483
-482
-481
-479
-477
-474
-472
-470
-469
-466
-463
-462
-462
-458
-456
-454
-453
-454
-452
-450
-450
-450
-450
-450
-454
-457
-460
-464
-468
-473
-477
-482
-485
-488
-490
-494
-495
-497
-496
-498
-498
-498
-498
-498
-498
-498
-500
-501
-499
-500
-502
-500
-500
-500
-501
-500
-500
-498
-498
-500
-500
-498
-496
-496
-496
-497
-497
-495
-495
-495
-495
-494
-494
-494
-494
-494
-494
-494
-494
-494
-494
-494
-494
-494
-495
-497
-495
-495
-496
-498
-497
-496
-499
-498
-498
-500
-498
-498
-498
-500
-501
-501
-500
-500
-500
-501
-502
-502
-502
-502
-500
-500
-502
-502
-503
-502
-503
-500
-499
-495
-493
-491
-492
-493
-490
-484
-481
-482
-483
-486
-486
-484
-484
-486
-490
-491
-493
-494
-494
-495
-496
-502
-503
-506
-504
-504
-505
-505
-506
-503
-502
-502
-502
-501
-501
-500
-498
-501
-501
-496
-477
-444
-405
-358
-304
-245
-186
-168
-230
-357
-478
-538
-547
-539
-528
-524
-526
-531
-538
-538
-536
-534
-528
-522
-515
-511
-509
-505
-504
-504
-505
-502
-502
-502
-500
-500
-499
-498
-497
-496
-497
-494
-494
-493
-492
-491
-490
-489
-487
-486
-483
-483
-481
-478
-478
-476
-474
-470
-468
-467
-464
-462
-458
-457
-456
-455
-454
-451
-450
-450
-449
-450
-450
-449
-451
-455
-458
-465
-466
-473
-478
-480
-484
-487
-490
-492
-494
-495
-497
-497
-497
-496
-496
-498
-496
-496
-495
-495
-497
-497
-496
-497
-497
-498
-496
-497
-497
-498
-498
-498
-498
-497
-497
-498
-498
-495
-495
-495
-495
-495
-494
-492
-494
-494
-494
-492
-492
-494
-494
-494
-494
-494
-494
-494
-494
-494
-494
-495
-495
-497
-496
-497
-498
-496
-496
-497
-497
-496
-496
-498
-498
-496
-500
-498
-498
-499
-498
-500
-500
-498
-500
-502
-501
-500
-500
-501
-500
-497
-493
-490
-489
-490
-490
-486
-482
-480
-479
-482
-484
-486
-485
-484
-486
-488
-490
-492
-494
-494
-495
-497
-500
-502
-504
-504
-505
-506
-506
-506
-503
-505
-506
-505
-502
-502
-501
-501
-502
-502
-501
-478
-442
-398
-351
-299
-240
-182
-163
-228
-364
-492
-554
-562
-551
-541
-534
-534
-540
-544
-545
-543
-537
-528
-522
-516
-512
-508
-507
-506
-505
-505
-502
-503
-502
-502
-502
-502
-498
-496
-495
-497
-497
-492
-492
-492
-490
-489
-486
-483
-482
-481
-479
-475
-473
-470
-469
-465
-462
-458
-456
-454
-449
-447
-445
-444
-442
-439
-438
-439
-439
-438
-439
-441
-443
-447
-452
-455
-460
-466
-474
-480
-482
-487
-494
-494
-495
-496
-500
-503
-502
-502
-502
-503
-502
-502
-502
-502
-503
-505
-503
-503
-503
-504
-504
-504
-502
-502
-502
-502
-502
-500
-501
-500
-500
-498
-496
-498
-498
-498
-497
-494
-496
-496
-497
-495
-497
-496
-495
-494
-494
-496
-494
-494
-494
-495
-495
-498
-496
-498
-496
-498
-498
-498
-498
-498
-500
-500
-499
-498
-498
-500
-501
-500
-500
-500
-502
-502
-502
-502
-503
-501
-496
-493
-492
-491
-490
-490
-487
-483
-481
-479
-482
-486
-486
-486
-486
-486
-489
-492
-494
-495
-494
-495
-498
-503
-505
-505
-506
-506
-508
-509
-506
-506
-506
-506
-505
-503
-502
-501
-501
-500
-501
-495
-473
-430
-382
-330
-278
-222
-169
-154
-223
-356
-486
-559
-570
-562
-551
-543
-543
-546
-547
-546
-543
-537
-529
-522
-517
-513
-507
-505
-503
-505
-503
-502
-501
-499
-500
-498
-496
-495
-495
-496
-494
-492
-490
-489
-489
-488
-486
-482
-481
-480
-478
-475
-471
-472
-468
-463
-460
-458
-457
-451
-449
-447
-445
-444
-442
-439
-438
-438
-438
-437
-438
-438
-440
-442
-447
-451
-458
-465
-470
-476
-481
-487
-490
-494
-496
-498
-498
-501
-502
-502
-500
-503
-502
-502
-501
-500
-502
-503
-504
-502
-504
-503
-502
-502
-502
-503
-502
-502
-502
-500
-500
-500
-500
-500
-498
-498
-496
-498
-498
-498
-497
-498
-496
-495
-495
-495
-496
-495
-495
-495
-495
-496
-495
-495
-497
-497
-498
-498
-498
-499
-500
-500
-502
-500
-502
-502
-502
-505
-503
-503
-506
-505
-505
-504
-505
-505
-502
-498
-496
-493
-494
-494
-493
-490
-486
-484
-484
-487
-490
-490
-489
-488
-490
-494
-495
-498
-498
-498
-501
-505
-507
-508
-509
-511
-512
-511
-511
-511
-511
-514
-511
-509
-508
-508
-506
-506
-506
-508
-498
-470
-426
-382
-335
-281
-215
-162
-169
-258
-400
-519
-570
-569
-554
-542
-536
-540
-546
-549
-548
-546
-540
-534
-530
-524
-518
-514
-511
-512
-512
-511
-510
-512
-512
-510
-508
-507
-508
-504
-505
-502
-502
-502
-502
-500
-498
-498
-496
-496
-494
-492
-490
-487
-486
-484
-482
-479
-478
-475
-473
-470
-468
-466
-465
-463
-461
-459
-458
-459
-458
-458
-458
-462
-462
-466
-468
-473
-478
-484
-489
-492
-497
-500
-502
-506
-506
-508
-509
-509
-509
-509
-511
-511
-511
-510
-512
-511
-511
-510
-511
-511
-511
-512
-511
-511
-511
-511
-512
-513
-512
-513
-511
-511
-511
-511
-511
-511
-510
-509
-509
-511
-512
-510
-510
-509
-510
-509
-509
-508
-510
-511
-511
-509
-511
-511
-512
-511
-511
-512
-513
-514
-514
-512
-512
-514
-514
-515
-515
-515
-516
-517
-518
-516
-516
-518
-518
-518
-517
-517
-519
-519
-518
-516
-514
-511
-510
-508
-508
-509
-504
-500
-498
-499
-502
-505
-506
-503
-502
-506
-510
-511
-511
-513
-512
-514
-518
-521
-522
-524
-524
-524
-524
-526
-526
-526
-522
-524
-523
-524
-522
-519
-519
-521
-524
-520
-502
-467
-423
-374
-319
-258
-202
-186
-247
-367
-494
-560
-574
-566
-555
-547
-549
-554
-559
-559
-558
-555
-551
-546
-539
-534
-530
-528
-528
-529
-527
-526
-526
-524
-522
-522
-522
-521
-521
-520
-519
-518
-516
-517
-515
-514
-515
-514
-511
-509
-510
-508
-506
-504
-501
-500
-498
-497
-493
-490
-489
-486
-483
-482
-480
-479
-478
-476
-474
-470
-471
-473
-473
-473
-475
-479
-484
-487
-490
-496
-500
-506
-509
-511
-512
-518
-519
-521
-521
-522
-522
-522
-522
-522
-522
-522
-522
-522
-521
-522
-522
-523
-522
-522
-524
-523
-522
-522
-522
-524
-524
-522
-522
-523
-524
-523
-523
-523
-522
-524
-522
-521
-522
-521
-522
-521
-520
-521
-520
-521
-522
-522
-521
-522
-522
-521
-522
-522
-522
-523
-523
-523
-523
-524
-524
-523
-525
-526
-526
-526
-524
-526
-526
-527
-527
-527
-527
-526
-527
-527
-526
-527
-528
-527
-526
-526
-527
-528
-527
-526
-524
-519
-518
-515
-518
-518
-515
-512
-510
-508
-509
-512
-512
-513
-510
-510
-514
-518
-520
-520
-519
-521
-524
-526
-529
-529
-530
-532
-532
-532
-532
-533
-532
-532
-529
-530
-528
-528
-526
-525
-524
-529
-521
-492
-450
-405
-358
-303
-240
-191
-195
-285
-420
-532
-578
-582
-572
-562
-558
-561
-566
-570
-566
-564
-561
-554
-548
-541
-538
-535
-534
-532
-530
-529
-529
-530
-527
-526
-526
-524
-526
-524
-521
-521
-519
-521
-518
-514
-514
-514
-512
-511
-509
-505
-502
-502
-498
-496
-494
-491
-489
-486
-482
-479
-478
-476
-473
-470
-468
-466
-466
-465
-462
-463
-465
-466
-468
-471
-478
-484
-489
-494
-500
-505
-509
-512
-515
-519
-521
-522
-523
-524
-525
-526
-524
-526
-526
-527
-527
-529
-526
-526
-526
-527
-527
-526
-525
-526
-526
-526
-525
-524
-526
-526
-523
-522
-522
-522
-522
-522
-521
-521
-521
-521
-519
-518
-518
-518
-518
-515
-515
-516
-518
-518
-516
-518
-515
-518
-518
-518
-519
-521
-519
-520
-519
-519
-522
-520
-519
-519
-521
-521
-521
-521
-521
-521
-521
-520
-521
-521
-522
-522
-522
-521
-522
-522
-522
-521
-521
-521
-522
-523
-522
-520
-518
-515
-513
-510
-510
-511
-509
-506
-500
-498
-502
-505
-505
-502
-502
-502
-506
-508
-509
-511
-512
-512
-514
-518
-520
-522
-522
-522
-522
-524
-522
-522
-521
-520
-521
-521
-519
-518
-516
-515
-518
-518
-511
-486
-442
-396
-345
-290
-232
-178
-176
-266
-410
-530
-583
-585
-574
-562
-554
-556
-558
-561
-559
-556
-552
-544
-535
-530
-527
-524
-521
-519
-519
-520
-519
-518
-515
-514
-514
-513
-512
-510
-509
-507
-506
-505
-504
-503
-502
-500
-497
-495
-494
-490
-488
-486
-482
-479
-479
-474
-471
-468
-466
-466
-460
-456
-455
-454
-451
-450
-449
-449
-450
-450
-450
-451
-455
-460
-463
-470
-476
-483
-487
-492
-496
-501
-505
-508
-510
-510
-512
-512
-512
-512
-513
-512
-515
-512
-512
-512
-513
-516
-514
-514
-514
-517
-516
-514
-514
-516
-515
-514
-513
-512
-513
-511
-511
-509
-509
-508
-508
-507
-506
-505
-506
-504
-505
-503
-505
-505
-505
-505
-505
-505
-506
-506
-506
-506
-508
-508
-510
-508
-508
-509
-511
-511
-511
-513
-512
-511
-511
-511
-511
-512
-511
-513
-512
-512
-512
-512
-512
-511
-512
-514
-514
-512
-511
-506
-505
-504
-503
-503
-502
-498
-494
-493
-495
-498
-498
-496
-495
-498
-502
-506
-505
-506
-506
-509
-511
-515
-516
-518
-519
-521
-521
-519
-519
-519
-519
-518
-518
-518
-518
-515
-515
-514
-518
-512
-500
-466
-423
-380
-331
-273
-207
-166
-194
-302
-444
-546
-578
-573
-556
-546
-541
-547
-551
-555
-553
-551
-546
-540
-534
-530
-524
-522
-522
-520
-519
-519
-518
-518
-514
-514
-514
-514
-512
-511
-509
-510
-509
-508
-506
-506
-505
-504
-502
-500
-499
-498
-495
-493
-490
-489
-488
-486
-482
-479
-478
-478
-474
-470
-468
-468
-467
-466
-465
-465
-466
-465
-465
-465
-466
-472
-474
-478
-483
-489
-495
-500
-502
-504
-506
-510
-511
-511
-512
-514
-512
-514
-514
-514
-514
-514
-514
-512
-512
-514
-516
-514
-513
-514
-515
-514
-514
-513
-514
-514
-514
-512
-512
-513
-512
-512
-511
-512
-511
-511
-511
-510
-508
-508
-509
-510
-509
-508
-509
-510
-510
-509
-510
-511
-510
-511
-511
-511
-512
-512
-512
-514
-514
-514
-514
-514
-514
-514
-515
-514
-515
-514
-516
-518
-516
-516
-517
-518
-518
-519
-517
-518
-518
-518
-518
-512
-511
-510
-508
-508
-506
-506
-502
-498
-495
-498
-503
-505
-502
-500
-502
-506
-509
-511
-509
-511
-514
-515
-519
-520
-522
-521
-524
-523
-524
-524
-522
-522
-522
-521
-521
-522
-519
-518
-518
-520
-519
-502
-468
-426
-380
-327
-270
-210
-180
-226
-340
-470
-548
-570
-564
-553
-546
-544
-550
-555
-558
-556
-552
-548
-543
-537
-532
-529
-526
-524
-524
-522
-521
-522
-521
-520
-520
-518
-518
-518
-518
-515
-518
-517
-514
-514
-512
-512
-511
-511
-508
-506
-505
-505
-503
-501
-498
-495
-494
-491
-489
-486
-485
-484
-482
-479
-478
-476
-474
-474
-471
-471
-470
-470
-470
-472
-474
-479
-484
-488
-494
-498
-503
-505
-509
-511
-512
-516
-515
-517
-515
-517
-518
-518
-516
-516
-515
-518
-516
-514
-516
-515
-515
-514
-514
-514
-515
-516
-514
-514
-514
-514
-514
-512
-512
-514
-512
-512
-512
-512
-511
-511
-511
-511
-511
-511
-512
-509
-510
-509
-511
-512
-511
-510
-511
-512
-512
-511
-511
-512
-513
-514
-514
-516
-515
-515
-515
-516
-514
-518
-518
-518
-515
-515
-518
-518
-516
-515
-518
-518
-518
-518
-518
-516
-520
-518
-514
-510
-508
-509
-509
-509
-505
-502
-498
-498
-500
-502
-504
-503
-502
-505
-508
-511
-512
-512
-511
-514
-519
-521
-522
-522
-522
-524
-522
-524
-522
-524
-524
-524
-521
-521
-520
-520
-519
-518
-521
-515
-496
-458
-412
-362
-303
-239
-182
-178
-252
-386
-509
-567
-577
-566
-558
-552
-551
-556
-560
-561
-558
-553
-545
-539
-534
-530
-525
-522
-522
-523
-522
-519
-519
-518
-518
-518
-516
-515
-514
-514
-512
-509
-509
-509
-506
-506
-505
-503
-500
-502
-498
-495
-494
-492
-492
-484
-482
-479
-478
-474
-470
-467
-466
-465
-462
-458
-457
-456
-457
-456
-456
-457
-458
-460
-461
-465
-469
-476
-481
-486
-490
-496
-503
-508
-510
-512
-512
-516
-517
-517
-516
-517
-519
-519
-518
-518
-520
-520
-519
-518
-518
-519
-519
-518
-518
-518
-518
-517
-515
-515
-516
-516
-514
-514
-512
-511
-511
-511
-511
-510
-509
-506
-503
-494
-475
-446
-406
-369
-358
-390
-460
-542
-610
-663
-717
-767
-806
-812
-809
-810
-799
-772
-730
-690
-664
-642
-623
-606
-592
-590
-585
-578
-563
-546
-530
-518
-503
-489
-475
-468
-465
-462
-462
-458
-454
-445
-438
-434
-431
-430
-428
-423
-417
-415
-412
-410
-405
-397
-388
-381
-374
-373
-366
-359
-352
-340
-334
-324
-315
-306
-300
-296
-291
-290
-294
-297
-300
-304
-313
-321
-331
-342
-354
-370
-383
-399
-411
-425
-438
-454
-464
-473
-481
-490
-497
-504
-510
-511
-516
-517
-518
-519
-518
-521
-521
-521
-519
-521
-521
-522
-521
-519
-522
-519
-519
-518
-519
-519
-520
-520
-521
-521
-522
-522
-521
-521
-521
-525
-524
-526
-526
-527
-529
-527
-528
-529
-530
-532
-532
-530
-533
-533
-534
-535
-534
-534
-534
-534
-534
-537
-534
-535
-535
-536
-537
-534
-535
-536
-537
-534
-534
-534
-537
-535
-534
-534
-534
-537
-534
-535
-534
-535
-534
-534
-534
-534
-534
-534
-534
-534
-532
-534
-534
-533
-532
-532
-530
-530
-530
-530
-530
-529
-529
-528
-527
-529
-531
-530
-529
-528
-527
-528
-529
-528
-529
-530
-530
-529
-527
-528
-528
-527
-528
-527
-526
-527
-528
-527
-526
-526
-527
-527
-526
-526
-526
-527
-527
-526
-524
-526
-526
-526
-524
-522
-524
-523
-524
-522
-524
-524
-523
-522
-518
-518
-514
-514
-515
-514
-511
-507
-502
-504
-506
-508
-509
-507
-506
-508
-509
-514
-515
-515
-515
-518
-521
-524
-526
-526
-527
-528
-526
-527
-527
-527
-527
-524
-522
-522
-522
-525
-527
-517
-490
-452
-406
-353
-298
-234
-176
-167
-242
-382
-511
-570
-575
-564
-554
-550
-553
-558
-560
-560
-559
-555
-546
-541
-536
-533
-529
-527
-526
-526
-524
-524
-522
-522
-521
-521
-521
-519
-518
-518
-515
-515
-515
-514
-512
-513
-509
-508
-506
-504
-504
-500
-498
-497
-495
-492
-489
-486
-486
-483
-481
-478
-476
-475
-474
-472
-468
-468
-466
-465
-463
-462
-462
-463
-463
-464
-466
-469
-472
-476
-479
-482
-486
-490
-494
-497
-498
-502
-502
-504
-505
-506
-508
-508
-508
-508
-508
-510
-509
-508
-509
-510
-510
-510
-509
-510
-509
-509
-509
-510
-510
-509
-509
-510
-508
-508
-510
-510
-510
-508
-508
-509
-510
-509
-507
-510
-510
-511
-510
-510
-509
-511
-508
-499
-484
-457
-426
-407
-399
-399
-399
-398
-414
-464
-541
-610
-670
-726
-787
-847
-894
-911
-891
-834
-770
-703
-652
-626
-622
-630
-636
-638
-634
-626
-616
-598
-572
-546
-515
-494
-481
-475
-474
-476
-478
-476
-474
-470
-466
-462
-458
-456
-450
-445
-442
-437
-431
-422
-415
-410
-403
-393
-383
-375
-366
-355
-346
-337
-330
-322
-315
-306
-302
-297
-294
-288
-287
-287
-291
-294
-298
-304
-314
-326
-337
-350
-362
-378
-393
-410
-426
-440
-454
-470
-476
-485
-494
-500
-507
-510
-512
-515
-518
-519
-519
-518
-519
-518
-516
-515
-514
-516
-514
-515
-514
-512
-512
-512
-512
-512
-511
-512
-512
-513
-511
-511
-514
-516
-514
-514
-514
-518
-518
-518
-518
-520
-519
-521
-521
-521
-521
-522
-522
-522
-522
-523
-524
-524
-525
-524
-524
-524
-525
-524
-524
-526
-526
-526
-524
-526
-526
-526
-525
-524
-526
-526
-526
-524
-526
-526
-527
-528
-526
-526
-527
-529
-527
-528
-526
-526
-527
-527
-527
-527
-527
-528
-529
-527
-527
-527
-529
-529
-528
-528
-529
-528
-529
-528
-528
-528
-528
-528
-528
-529
-529
-527
-527
-527
-528
-527
-527
-526
-526
-526
-522
-520
-518
-518
-518
-518
-512
-506
-505
-506
-512
-511
-510
-510
-510
-511
-514
-517
-519
-521
-521
-522
-524
-527
-530
-530
-529
-530
-530
-531
-531
-530
-530
-530
-530
-527
-526
-530
-530
-522
-498
-461
-417
-367
-304
-234
-182
-195
-282
-414
-519
-564
-573
-562
-556
-552
-556
-564
-567
-569
-567
-562
-556
-551
-546
-542
-538
-535
-534
-535
-534
-534
-534
-534
-530
-530
-530
-530
-529
-526
-526
-525
-525
-523
-522
-522
-520
-520
-519
-514
-515
-512
-512
-510
-509
-506
-502
-500
-496
-496
-493
-491
-489
-487
-486
-482
-482
-481
-479
-478
-478
-477
-477
-476
-478
-480
-484
-485
-486
-490
-495
-500
-502
-506
-509
-511
-512
-515
-518
-518
-519
-519
-519
-521
-522
-522
-522
-521
-521
-521
-521
-521
-519
-518
-519
-520
-519
-518
-517
-518
-518
-518
-516
-517
-519
-519
-519
-518
-518
-519
-518
-519
-518
-519
-520
-521
-519
-518
-519
-521
-521
-522
-522
-522
-524
-526
-526
-527
-526
-526
-522
-521
-519
-522
-522
-520
-518
-514
-511
-511
-512
-515
-518
-518
-518
-518
-521
-523
-524
-526
-526
-529
-532
-535
-537
-538
-538
-538
-540
-540
-540
-540
-540
-540
-539
-537
-538
-538
-537
-538
-534
-516
-479
-436
-392
-338
-282
-223
-202
-262
-391
-521
-585
-598
-591
-579
-574
-574
-578
-582
-582
-581
-573
-566
-558
-552
-547
-545
-542
-542
-540
-541
-540
-538
-534
-534
-534
-532
-532
-532
-531
-530
-527
-526
-526
-524
-521
-519
-517
-515
-513
-511
-511
-506
-503
-501
-498
-493
-489
-487
-484
-482
-478
-476
-474
-474
-471
-468
-468
-469
-471
-470
-473
-476
-482
-486
-493
-497
-503
-510
-516
-520
-525
-529
-531
-534
-534
-538
-540
-539
-540
-540
-539
-540
-542
-539
-538
-539
-541
-541
-540
-539
-540
-540
-541
-539
-538
-540
-538
-538
-538
-537
-536
-534
-535
-534
-534
-534
-534
-534
-532
-532
-532
-532
-532
-531
-530
-532
-532
-532
-530
-530
-532
-531
-533
-534
-534
-534
-530
-527
-526
-527
-527
-527
-525
-521
-515
-514
-517
-518
-521
-521
-520
-521
-525
-527
-530
-530
-529
-530
-534
-540
-542
-541
-542
-542
-546
-545
-545
-543
-544
-543
-542
-539
-537
-538
-537
-539
-532
-511
-471
-423
-374
-318
-261
-199
-170
-221
-349
-498
-588
-614
-605
-591
-580
-579
-583
-586
-585
-582
-577
-569
-561
-554
-550
-546
-542
-541
-541
-540
-538
-538
-536
-536
-537
-534
-534
-532
-531
-530
-528
-529
-526
-527
-526
-526
-522
-519
-518
-517
-515
-510
-508
-505
-503
-500
-496
-492
-490
-489
-486
-484
-481
-481
-479
-478
-475
-474
-473
-474
-474
-478
-481
-486
-490
-496
-502
-508
-514
-519
-522
-526
-527
-532
-533
-534
-534
-537
-537
-535
-534
-536
-538
-536
-534
-534
-534
-534
-534
-534
-535
-535
-534
-534
-534
-535
-534
-534
-534
-534
-532
-532
-533
-532
-530
-530
-530
-530
-529
-527
-527
-527
-527
-527
-524
-527
-528
-527
-527
-528
-528
-528
-528
-529
-530
-530
-532
-529
-526
-525
-522
-522
-522
-522
-520
-516
-512
-515
-517
-518
-519
-518
-518
-521
-526
-529
-528
-529
-529
-534
-536
-537
-538
-540
-540
-542
-540
-541
-542
-542
-541
-538
-538
-537
-538
-537
-538
-537
-524
-493
-447
-396
-349
-291
-230
-191
-226
-344
-487
-578
-602
-592
-579
-570
-569
-575
-581
-582
-580
-577
-570
-562
-558
-553
-548
-546
-545
-545
-542
-543
-542
-540
-540
-537
-537
-538
-537
-535
-535
-533
-532
-532
-531
-530
-527
-526
-524
-522
-520
-518
-518
-515
-514
-511
-508
-506
-504
-502
-498
-496
-496
-494
-494
-491
-490
-490
-487
-487
-486
-488
-490
-494
-496
-500
-506
-509
-514
-519
-522
-527
-529
-533
-534
-534
-535
-537
-534
-535
-535
-536
-537
-534
-534
-536
-534
-537
-535
-535
-534
-537
-536
-536
-534
-535
-536
-536
-536
-534
-535
-535
-534
-534
-534
-535
-534
-534
-533
-530
-532
-532
-532
-531
-530
-532
-532
-531
-530
-534
-532
-533
-532
-533
-534
-534
-534
-534
-534
-535
-534
-536
-537
-534
-530
-527
-526
-526
-526
-527
-521
-517
-514
-515
-520
-521
-519
-519
-520
-522
-526
-527
-527
-527
-529
-530
-532
-537
-538
-540
-539
-537
-540
-540
-539
-538
-538
-538
-538
-536
-534
-534
-534
-534
-519
-489
-450
-406
-358
-298
-238
-198
-234
-340
-474
-562
-591
-586
-574
-565
-564
-570
-575
-575
-574
-572
-566
-561
-551
-547
-543
-541
-541
-538
-538
-540
-538
-538
-538
-536
-534
-534
-534
-534
-530
-530
-530
-529
-527
-527
-526
-524
-522
-521
-519
-518
-516
-514
-511
-510
-508
-506
-502
-500
-498
-496
-494
-491
-490
-489
-486
-485
-484
-483
-484
-484
-486
-489
-492
-496
-502
-506
-511
-517
-521
-524
-525
-526
-530
-532
-530
-531
-532
-534
-533
-532
-533
-534
-532
-533
-533
-532
-532
-532
-532
-532
-532
-533
-532
-532
-532
-533
-533
-530
-530
-530
-530
-528
-528
-529
-527
-527
-526
-527
-526
-527
-527
-529
-526
-526
-526
-527
-529
-526
-527
-527
-528
-528
-530
-530
-530
-532
-530
-531
-530
-534
-534
-534
-534
-532
-534
-534
-532
-532
-533
-534
-534
-533
-528
-524
-522
-522
-522
-522
-519
-515
-511
-511
-514
-518
-517
-515
-516
-519
-524
-526
-525
-524
-524
-527
-530
-533
-534
-537
-536
-538
-538
-537
-537
-538
-537
-535
-534
-534
-534
-533
-534
-534
-525
-497
-455
-410
-362
-303
-236
-188
-210
-310
-452
-556
-592
-591
-582
-570
-566
-572
-580
-579
-577
-572
-566
-559
-553
-546
-541
-539
-538
-537
-537
-535
-534
-534
-533
-532
-531
-530
-530
-528
-526
-526
-524
-525
-523
-522
-522
-519
-519
-516
-511
-511
-509
-506
-503
-498
-497
-495
-492
-489
-488
-485
-482
-481
-478
-478
-476
-475
-473
-472
-473
-476
-478
-482
-487
-493
-498
-505
-509
-514
-521
-524
-528
-530
-530
-533
-534
-534
-535
-535
-534
-534
-534
-535
-534
-534
-534
-534
-534
-537
-538
-536
-538
-537
-537
-537
-536
-538
-534
-535
-534
-534
-534
-534
-534
-533
-531
-530
-530
-530
-530
-530
-530
-530
-530
-529
-527
-529
-528
-529
-529
-528
-530
-530
-530
-530
-530
-531
-532
-530
-530
-530
-533
-532
-532
-534
-533
-534
-534
-535
-532
-534
-534
-534
-533
-534
-534
-534
-534
-534
-534
-535
-534
-534
-530
-526
-526
-523
-523
-525
-522
-518
-514
-513
-513
-518
-518
-518
-515
-518
-521
-522
-526
-525
-526
-529
-530
-534
-534
-537
-538
-540
-537
-537
-537
-538
-537
-536
-534
-534
-534
-532
-530
-532
-530
-513
-471
-422
-370
-317
-259
-198
-169
-223
-353
-499
-582
-602
-596
-583
-572
-572
-577
-577
-579
-575
-568
-560
-552
-548
-542
-538
-534
-536
-533
-532
-530
-531
-530
-529
-527
-526
-526
-524
-522
-521
-519
-520
-518
-516
-514
-514
-512
-509
-508
-505
-502
-501
-498
-495
-492
-490
-487
-483
-481
-479
-478
-476
-473
-470
-468
-468
-468
-467
-466
-468
-469
-471
-473
-478
-486
-489
-494
-500
-506
-510
-514
-518
-521
-523
-525
-526
-525
-526
-526
-527
-528
-527
-526
-527
-528
-526
-526
-526
-528
-529
-527
-526
-526
-527
-527
-527
-525
-527
-526
-527
-526
-524
-524
-526
-524
-522
-524
-522
-521
-521
-519
-519
-519
-519
-518
-518
-518
-519
-519
-518
-519
-520
-519
-520
-521
-521
-524
-524
-524
-524
-522
-524
-525
-526
-526
-526
-526
-526
-525
-525
-526
-527
-526
-525
-526
-526
-526
-526
-526
-526
-526
-527
-526
-527
-526
-527
-527
-527
-526
-526
-527
-528
-527
-527
-525
-522
-519
-515
-515
-518
-515
-514
-507
-504
-506
-509
-511
-509
-509
-509
-512
-514
-516
-518
-519
-519
-522
-525
-528
-530
-530
-530
-530
-530
-530
-532
-529
-529
-528
-527
-527
-525
-522
-525
-526
-526
-514
-486
-446
-398
-340
-278
-210
-169
-201
-310
-456
-556
-586
-578
-566
-555
-554
-560
-566
-567
-566
-560
-555
-548
-540
-538
-532
-530
-530
-528
-527
-528
-526
-524
-522
-522
-522
-520
-519
-518
-518
-516
-516
-512
-512
-512
-511
-509
-508
-507
-506
-503
-502
-500
-498
-496
-494
-490
-487
-486
-483
-482
-481
-479
-477
-476
-475
-473
-471
-472
-471
-470
-471
-473
-478
-481
-484
-489
-495
-499
-503
-506
-510
-514
-515
-518
-518
-519
-519
-521
-521
-521
-519
-521
-520
-521
-521
-522
-522
-522
-522
-522
-522
-523
-522
-522
-522
-524
-522
-521
-519
-522
-521
-521
-519
-517
-520
-519
-518
-518
-519
-518
-518
-517
-515
-518
-518
-518
-518
-518
-518
-519
-519
-519
-519
-521
-521
-521
-521
-522
-522
-523
-522
-522
-522
-524
-524
-522
-523
-524
-524
-525
-521
-524
-524
-524
-526
-522
-526
-525
-526
-526
-527
-526
-526
-527
-527
-529
-527
-527
-527
-526
-527
-527
-527
-527
-526
-527
-527
-527
-527
-526
-526
-526
-526
-526
-526
-526
-526
-526
-525
-524
-526
-526
-526
-522
-519
-515
-514
-512
-516
-514
-510
-506
-501
-504
-509
-510
-509
-509
-510
-513
-514
-515
-517
-517
-518
-521
-523
-526
-526
-528
-528
-527
-527
-527
-527
-527
-526
-526
-526
-525
-522
-521
-520
-522
-522
-511
-482
-442
-399
-349
-290
-226
-180
-202
-302
-435
-537
-577
-573
-562
-550
-550
-558
-562
-564
-562
-558
-553
-546
-537
-534
-530
-528
-527
-526
-526
-524
-524
-524
-522
-522
-521
-519
-518
-518
-518
-518
-516
-514
-512
-513
-511
-510
-508
-506
-505
-503
-501
-501
-498
-498
-496
-492
-489
-486
-486
-486
-481
-478
-476
-475
-475
-471
-471
-471
-471
-470
-470
-473
-475
-478
-482
-487
-494
-499
-502
-505
-510
-513
-515
-518
-518
-518
-521
-521
-521
-521
-521
-520
-522
-522
-521
-521
-521
-522
-522
-522
-522
-524
-522
-521
-522
-521
-524
-522
-520
-520
-521
-520
-519
-519
-519
-519
-518
-518
-518
-518
-518
-518
-518
-518
-518
-519
-518
-518
-519
-521
-521
-521
-521
-521
-524
-524
-522
-524
-524
-526
-524
-525
-524
-527
-526
-526
-526
-526
-529
-528
-527
-527
-529
-529
-527
-527
-527
-528
-528
-528
-528
-527
-528
-530
-529
-527
-528
-530
-530
-528
-527
-528
-530
-530
-528
-526
-528
-528
-528
-527
-527
-528
-528
-528
-528
-529
-528
-529
-529
-527
-530
-528
-530
-530
-528
-525
-521
-519
-518
-519
-520
-518
-512
-507
-507
-510
-514
-512
-511
-511
-512
-518
-519
-520
-519
-521
-522
-526
-527
-529
-530
-530
-528
-530
-531
-532
-531
-528
-529
-530
-528
-526
-526
-525
-526
-529
-526
-511
-476
-434
-386
-326
-258
-196
-176
-237
-366
-498
-569
-585
-578
-566
-562
-562
-566
-570
-570
-566
-560
-553
-546
-539
-534
-532
-529
-529
-527
-527
-526
-524
-524
-523
-522
-522
-522
-521
-520
-518
-518
-518
-514
-513
-512
-511
-510
-506
-506
-504
-502
-498
-496
-495
-492
-490
-483
-481
-479
-476
-473
-470
-470
-466
-466
-465
-463
-465
-465
-463
-465
-466
-470
-473
-478
-482
-490
-496
-502
-507
-509
-516
-519
-522
-522
-524
-524
-527
-527
-526
-528
-529
-529
-529
-529
-529
-530
-530
-530
-529
-528
-528
-529
-529
-529
-528
-529
-527
-527
-526
-526
-524
-525
-524
-523
-522
-524
-524
-522
-522
-520
-521
-521
-519
-521
-523
-521
-521
-522
-522
-525
-523
-523
-523
-524
-526
-526
-525
-525
-526
-527
-527
-527
-527
-527
-529
-529
-527
-528
-530
-530
-528
-528
-530
-530
-530
-530
-528
-530
-530
-530
-530
-530
-532
-532
-530
-530
-532
-530
-530
-530
-529
-532
-530
-530
-527
-528
-530
-530
-530
-529
-528
-530
-528
-528
-530
-530
-530
-526
-522
-519
-519
-521
-520
-518
-513
-508
-508
-510
-512
-513
-512
-512
-512
-512
-518
-520
-520
-522
-521
-524
-528
-530
-530
-532
-532
-534
-533
-530
-530
-530
-530
-530
-527
-527
-526
-524
-526
-528
-521
-501
-460
-413
-364
-308
-247
-186
-170
-246
-390
-515
-577
-586
-578
-570
-562
-559
-566
-566
-567
-564
-554
-549
-541
-537
-532
-528
-524
-526
-525
-524
-524
-521
-521
-519
-518
-516
-515
-514
-514
-512
-511
-510
-509
-509
-506
-505
-503
-502
-500
-498
-495
-494
-494
-490
-488
-485
-482
-481
-478
-475
-473
-472
-470
-470
-468
-468
-468
-470
-466
-466
-466
-470
-473
-473
-477
-484
-489
-493
-497
-501
-507
-510
-514
-516
-518
-521
-521
-521
-522
-522
-522
-522
-522
-522
-522
-521
-521
-521
-521
-521
-520
-519
-518
-518
-518
-518
-516
-516
-514
-514
-514
-512
-512
-512
-513
-511
-509
-509
-509
-510
-510
-508
-507
-508
-508
-506
-508
-509
-509
-509
-509
-510
-510
-511
-511
-512
-512
-513
-512
-512
-512
-513
-514
-514
-515
-514
-514
-517
-515
-515
-515
-514
-515
-515
-518
-517
-519
-518
-517
-516
-515
-519
-518
-518
-518
-518
-518
-518
-516
-515
-518
-518
-519
-517
-518
-518
-519
-518
-518
-518
-518
-519
-518
-518
-518
-518
-518
-518
-518
-518
-516
-512
-510
-506
-508
-508
-508
-502
-495
-494
-498
-500
-502
-503
-500
-502
-502
-506
-508
-509
-510
-511
-513
-515
-519
-519
-519
-521
-522
-522
-521
-519
-519
-521
-520
-519
-518
-516
-516
-515
-519
-516
-497
-462
-419
-373
-317
-255
-188
-163
-230
-359
-492
-559
-570
-560
-550
-543
-546
-552
-558
-558
-556
-551
-545
-537
-534
-528
-526
-522
-522
-521
-522
-521
-518
-515
-517
-516
-515
-512
-513
-513
-512
-511
-509
-510
-508
-506
-505
-504
-503
-502
-499
-498
-497
-495
-494
-494
-487
-486
-484
-482
-479
-476
-476
-475
-474
-470
-470
-469
-468
-466
-466
-466
-468
-470
-472
-473
-478
-483
-486
-491
-495
-500
-505
-509
-510
-512
-512
-515
-516
-515
-517
-518
-516
-518
-516
-516
-516
-515
-515
-515
-516
-515
-518
-516
-514
-512
-504
-487
-458
-418
-378
-346
-341
-364
-409
-465
-522
-579
-638
-702
-762
-807
-816
-795
-764
-735
-703
-673
-652
-646
-642
-633
-610
-576
-538
-511
-494
-487
-487
-489
-490
-487
-486
-482
-482
-479
-476
-473
-471
-470
-466
-463
-461
-458
-457
-453
-450
-446
-443
-439
-435
-431
-424
-418
-410
-402
-394
-388
-380
-370
-359
-350
-340
-335
-330
-328
-332
-334
-339
-342
-350
-359
-368
-379
-390
-401
-411
-431
-446
-458
-470
-482
-487
-495
-500
-503
-508
-511
-512
-512
-512
-513
-514
-512
-512
-510
-510
-510
-509
-508
-508
-507
-506
-505
-502
-505
-506
-505
-506
-506
-509
-508
-505
-502
-506
-508
-510
-509
-508
-511
-512
-514
-512
-515
-516
-515
-515
-515
-518
-517
-518
-518
-519
-521
-521
-521
-521
-521
-522
-523
-522
-523
-524
-526
-526
-526
-526
-526
-526
-527
-528
-527
-528
-529
-527
-526
-527
-527
-528
-530
-527
-529
-530
-528
-530
-530
-529
-530
-531
-530
-530
-530
-532
-530
-530
-530
-531
-530
-532
-532
-530
-530
-532
-532
-530
-530
-530
-530
-530
-530
-532
-530
-530
-530
-529
-530
-530
-530
-532
-532
-532
-532
-530
-530
-530
-530
-532
-531
-532
-532
-534
-532
-532
-531
-528
-529
-530
-530
-530
-528
-530
-528
-527
-527
-528
-530
-530
-528
-528
-529
-530
-528
-528
-528
-530
-530
-530
-530
-529
-530
-529
-529
-528
-527
-527
-529
-528
-528
-529
-527
-528
-528
-529
-530
-532
-530
-528
-529
-528
-528
-527
-526
-527
-528
-529
-528
-526
-527
-527
-529
-527
-527
-527
-527
-527
-527
-528
-527
-527
-525
-521
-519
-518
-518
-516
-512
-508
-506
-506
-508
-510
-508
-508
-506
-508
-509
-515
-518
-518
-519
-521
-524
-524
-526
-526
-526
-528
-528
-527
-527
-526
-527
-526
-524
-524
-526
-528
-522
-498
-460
-415
-365
-298
-224
-164
-171
-263
-404
-524
-573
-579
-574
-564
-558
-562
-566
-568
-566
-559
-556
-548
-541
-534
-532
-528
-527
-527
-526
-525
-525
-522
-521
-521
-521
-520
-519
-518
-515
-515
-514
-512
-510
-509
-508
-506
-505
-502
-502
-500
-498
-495
-492
-490
-490
-487
-483
-481
-479
-478
-476
-474
-472
-471
-470
-470
-470
-466
-466
-466
-466
-466
-466
-469
-470
-471
-473
-476
-478
-482
-486
-489
-494
-497
-502
-502
-504
-508
-509
-511
-511
-512
-514
-515
-516
-516
-514
-516
-514
-512
-513
-514
-513
-512
-512
-511
-512
-511
-512
-510
-510
-512
-511
-512
-511
-511
-511
-512
-510
-510
-511
-511
-511
-511
-511
-512
-514
-514
-512
-514
-516
-516
-518
-516
-518
-518
-519
-519
-520
-521
-521
-521
-521
-522
-522
-521
-521
-521
-521
-521
-519
-518
-512
-512
-511
-514
-511
-507
-502
-501
-502
-502
-505
-505
-505
-502
-506
-509
-512
-516
-514
-515
-515
-521
-524
-527
-527
-527
-527
-527
-527
-526
-525
-526
-526
-523
-522
-519
-521
-524
-525
-514
-489
-450
-404
-354
-293
-225
-170
-178
-278
-424
-537
-573
-575
-565
-558
-551
-554
-559
-561
-560
-558
-551
-546
-538
-534
-530
-526
-524
-522
-522
-522
-521
-519
-519
-518
-518
-516
-512
-514
-511
-511
-509
-508
-508
-506
-505
-502
-500
-500
-498
-495
-494
-494
-490
-488
-485
-482
-481
-478
-475
-473
-470
-471
-469
-468
-468
-466
-465
-466
-466
-466
-466
-470
-472
-475
-478
-483
-488
-494
-496
-501
-505
-509
-510
-509
-512
-512
-514
-512
-512
-514
-515
-514
-514
-516
-512
-514
-515
-514
-515
-514
-514
-514
-514
-514
-514
-514
-514
-512
-511
-512
-513
-511
-511
-511
-511
-511
-511
-511
-510
-511
-512
-512
-511
-511
-511
-511
-511
-513
-511
-513
-512
-512
-512
-512
-514
-515
-514
-514
-515
-515
-515
-514
-514
-516
-517
-515
-512
-508
-506
-503
-502
-504
-502
-498
-495
-492
-494
-498
-500
-500
-496
-498
-501
-505
-507
-508
-508
-509
-511
-514
-514
-518
-518
-521
-519
-519
-519
-518
-520
-519
-518
-517
-518
-514
-516
-518
-512
-488
-447
-401
-351
-297
-234
-175
-169
-250
-392
-515
-569
-572
-563
-551
-546
-547
-554
-558
-559
-556
-552
-546
-540
-534
-528
-526
-522
-522
-522
-521
-520
-519
-519
-518
-518
-515
-517
-514
-512
-513
-511
-513
-510
-509
-508
-506
-505
-505
-502
-502
-499
-497
-495
-494
-492
-489
-487
-485
-482
-481
-480
-478
-476
-474
-470
-471
-471
-470
-468
-469
-468
-468
-469
-471
-474
-478
-482
-486
-494
-495
-500
-503
-506
-508
-509
-512
-511
-511
-512
-512
-512
-512
-512
-513
-512
-512
-514
-512
-511
-512
-512
-514
-512
-512
-514
-512
-512
-511
-512
-512
-512
-511
-511
-511
-511
-510
-510
-509
-509
-509
-509
-508
-510
-511
-511
-512
-511
-511
-512
-512
-514
-514
-514
-516
-515
-515
-514
-516
-516
-514
-514
-514
-515
-518
-517
-514
-511
-509
-507
-506
-506
-506
-505
-502
-497
-495
-498
-501
-503
-502
-499
-502
-504
-508
-511
-511
-511
-512
-516
-518
-520
-521
-522
-523
-522
-522
-522
-525
-524
-522
-522
-521
-520
-519
-521
-523
-514
-487
-450
-406
-358
-304
-244
-193
-201
-294
-434
-539
-576
-573
-566
-556
-553
-556
-559
-563
-564
-560
-554
-549
-543
-538
-533
-529
-529
-527
-527
-526
-524
-523
-523
-521
-519
-518
-518
-518
-517
-515
-514
-512
-512
-511
-508
-506
-506
-505
-502
-501
-498
-496
-494
-491
-487
-486
-483
-481
-478
-473
-471
-470
-468
-465
-465
-465
-464
-463
-463
-462
-465
-466
-469
-473
-477
-482
-487
-492
-497
-502
-506
-510
-511
-511
-515
-515
-518
-518
-518
-518
-518
-518
-515
-516
-518
-519
-519
-517
-518
-518
-518
-518
-518
-518
-519
-518
-515
-515
-515
-516
-518
-514
-512
-514
-512
-514
-512
-512
-512
-512
-511
-511
-512
-512
-511
-511
-512
-512
-512
-514
-514
-514
-517
-518
-517
-516
-515
-517
-518
-518
-518
-518
-518
-519
-518
-518
-518
-519
-521
-518
-514
-511
-509
-509
-510
-509
-506
-503
-498
-499
-503
-504
-505
-503
-502
-506
-510
-511
-512
-512
-514
-515
-521
-522
-524
-526
-526
-528
-526
-526
-526
-526
-524
-522
-522
-521
-519
-520
-522
-517
-498
-461
-414
-369
-317
-259
-199
-170
-222
-346
-489
-573
-594
-586
-572
-562
-559
-564
-568
-567
-565
-560
-552
-544
-538
-534
-528
-527
-526
-526
-526
-524
-525
-522
-522
-521
-519
-518
-517
-517
-514
-512
-512
-511
-509
-508
-506
-505
-505
-502
-499
-498
-494
-491
-489
-486
-482
-478
-478
-473
-469
-468
-466
-463
-460
-458
-458
-458
-458
-458
-458
-459
-461
-466
-470
-478
-483
-490
-496
-503
-506
-511
-515
-518
-519
-521
-524
-524
-522
-523
-522
-517
-506
-483
-450
-410
-385
-390
-435
-503
-591
-681
-766
-834
-865
-859
-849
-840
-822
-784
-738
-697
-656
-618
-586
-567
-563
-562
-556
-546
-535
-522
-502
-487
-481
-481
-481
-482
-481
-479
-478
-474
-472
-470
-466
-465
-460
-457
-453
-449
-446
-438
-434
-430
-428
-426
-420
-416
-414
-410
-406
-406
-402
-400
-394
-387
-381
-378
-373
-366
-361
-358
-354
-354
-358
-363
-374
-383
-393
-402
-414
-425
-435
-447
-457
-466
-476
-484
-492
-498
-503
-508
-512
-512
-512
-514
-516
-518
-515
-515
-517
-516
-516
-514
-514
-514
-515
-515
-514
-514
-514
-514
-514
-514
-515
-516
-515
-516
-517
-515
-518
-518
-517
-518
-519
-519
-521
-521
-521
-519
-521
-521
-521
-521
-520
-522
-522
-522
-522
-526
-524
-524
-525
-524
-527
-526
-526
-527
-527
-530
-528
-528
-530
-530
-530
-530
-531
-532
-532
-534
-532
-533
-534
-534
-534
-535
-534
-534
-534
-534
-534
-532
-534
-535
-534
-534
-533
-535
-534
-534
-534
-536
-534
-535
-534
-534
-534
-534
-535
-534
-534
-534
-534
-534
-533
-532
-533
-533
-532
-532
-532
-534
-532
-532
-530
-530
-530
-530
-530
-529
-530
-530
-530
-529
-527
-528
-528
-529
-526
-528
-528
-530
-528
-528
-529
-530
-528
-528
-530
-530
-528
-529
-527
-529
-528
-530
-530
-530
-529
-528
-528
-529
-527
-527
-528
-528
-527
-526
-528
-527
-527
-527
-528
-529
-528
-527
-527
-527
-527
-527
-526
-526
-527
-528
-526
-520
-518
-515
-518
-518
-518
-512
-507
-505
-506
-511
-511
-511
-509
-508
-509
-511
-515
-518
-519
-519
-521
-524
-526
-527
-528
-529
-530
-530
-528
-528
-528
-527
-526
-526
-527
-529
-519
-496
-458
-414
-366
-307
-241
-188
-201
-297
-438
-532
-567
-569
-561
-555
-552
-556
-562
-565
-566
-562
-556
-551
-546
-540
-534
-532
-530
-530
-530
-529
-527
-527
-525
-524
-522
-522
-522
-522
-519
-519
-519
-518
-518
-515
-514
-512
-512
-510
-509
-507
-505
-505
-503
-502
-500
-502
-498
-496
-492
-492
-490
-487
-486
-486
-485
-482
-481
-481
-481
-479
-479
-477
-477
-478
-478
-480
-482
-484
-486
-490
-492
-495
-498
-502
-505
-508
-510
-509
-512
-515
-516
-515
-516
-518
-520
-518
-517
-519
-519
-519
-518
-517
-519
-519
-518
-518
-516
-515
-515
-515
-515
-514
-515
-514
-513
-514
-513
-512
-512
-513
-512
-512
-509
-506
-494
-478
-447
-406
-362
-333
-320
-322
-337
-382
-495
-656
-775
-811
-782
-732
-693
-662
-640
-622
-604
-588
-589
-606
-624
-635
-636
-636
-634
-627
-615
-594
-569
-546
-522
-505
-496
-492
-490
-489
-488
-488
-487
-487
-485
-484
-482
-481
-478
-478
-474
-472
-466
-462
-458
-454
-449
-442
-437
-431
-426
-422
-412
-409
-404
-403
-398
-393
-392
-390
-390
-390
-390
-391
-394
-396
-400
-405
-410
-419
-428
-435
-446
-454
-465
-474
-482
-490
-500
-509
-514
-521
-526
-529
-528
-532
-532
-533
-534
-532
-532
-532
-532
-534
-534
-530
-528
-529
-530
-531
-527
-527
-529
-529
-530
-530
-530
-530
-531
-531
-532
-533
-534
-534
-534
-534
-534
-534
-535
-536
-534
-538
-537
-538
-538
-537
-538
-538
-538
-538
-538
-537
-539
-538
-538
-538
-540
-538
-538
-538
-538
-540
-539
-538
-538
-539
-540
-540
-540
-540
-542
-542
-542
-540
-540
-540
-540
-539
-538
-541
-540
-541
-540
-540
-541
-541
-541
-540
-542
-541
-541
-542
-540
-540
-541
-542
-540
-540
-539
-542
-542
-542
-542
-544
-542
-543
-543
-542
-543
-543
-542
-542
-542
-542
-544
-543
-542
-541
-542
-542
-542
-541
-542
-543
-542
-541
-542
-542
-542
-542
-540
-539
-537
-533
-532
-530
-532
-532
-528
-522
-518
-521
-523
-527
-525
-524
-522
-526
-527
-530
-534
-535
-535
-537
-538
-540
-543
-544
-543
-543
-546
-546
-546
-545
-541
-541
-542
-543
-543
-542
-527
-494
-451
-402
-346
-284
-221
-193
-238
-364
-505
-582
-598
-594
-586
-579
-579
-584
-588
-588
-586
-581
-574
-566
-562
-558
-554
-551
-551
-550
-549
-547
-546
-545
-545
-544
-541
-541
-540
-540
-537
-536
-534
-534
-534
-530
-528
-527
-527
-524
-520
-518
-516
-514
-511
-508
-506
-503
-502
-498
-497
-494
-492
-490
-490
-486
-486
-486
-484
-485
-482
-483
-484
-484
-486
-487
-490
-492
-494
-498
-502
-508
-511
-514
-516
-520
-524
-526
-529
-530
-530
-532
-533
-533
-534
-534
-532
-534
-534
-534
-533
-532
-532
-532
-531
-530
-533
-530
-530
-529
-529
-530
-529
-530
-530
-530
-529
-529
-529
-530
-532
-532
-531
-530
-530
-530
-532
-532
-532
-533
-534
-534
-535
-537
-538
-537
-538
-540
-541
-540
-538
-534
-534
-532
-534
-534
-532
-529
-522
-521
-522
-526
-529
-530
-527
-529
-530
-534
-537
-538
-538
-540
-543
-546
-548
-550
-551
-552
-554
-553
-551
-553
-552
-552
-550
-550
-547
-547
-551
-551
-542
-514
-471
-422
-369
-308
-246
-193
-202
-305
-462
-575
-615
-614
-602
-591
-586
-588
-591
-591
-590
-585
-577
-569
-562
-556
-552
-550
-547
-547
-547
-547
-545
-544
-543
-543
-541
-539
-538
-538
-537
-534
-534
-532
-530
-529
-526
-522
-522
-521
-518
-514
-511
-512
-508
-505
-503
-501
-498
-495
-492
-490
-489
-486
-486
-486
-485
-484
-484
-486
-485
-487
-490
-495
-498
-505
-511
-516
-522
-526
-529
-534
-537
-540
-542
-542
-545
-546
-546
-545
-543
-545
-546
-545
-543
-545
-545
-544
-544
-541
-543
-543
-543
-542
-543
-538
-526
-500
-468
-434
-398
-370
-367
-385
-423
-474
-530
-588
-650
-724
-790
-836
-842
-818
-788
-753
-713
-680
-662
-660
-660
-649
-625
-593
-562
-538
-521
-517
-516
-514
-513
-510
-508
-506
-503
-502
-500
-497
-494
-492
-486
-482
-476
-473
-471
-468
-463
-457
-450
-443
-437
-431
-423
-415
-406
-393
-384
-374
-366
-361
-355
-350
-348
-346
-343
-342
-345
-350
-354
-361
-368
-382
-393
-406
-418
-431
-447
-460
-474
-486
-498
-508
-517
-524
-526
-530
-533
-534
-534
-534
-534
-536
-534
-534
-534
-534
-532
-532
-532
-530
-530
-530
-530
-530
-529
-528
-528
-527
-529
-528
-530
-529
-530
-530
-532
-531
-534
-534
-534
-537
-535
-538
-538
-539
-540
-543
-541
-542
-543
-543
-546
-545
-545
-547
-547
-548
-547
-547
-550
-551
-551
-551
-551
-553
-554
-553
-553
-552
-554
-554
-554
-554
-554
-554
-554
-555
-554
-554
-556
-555
-554
-554
-554
-557
-556
-555
-554
-557
-555
-554
-556
-554
-556
-554
-553
-553
-554
-554
-554
-554
-553
-553
-554
-553
-551
-551
-552
-552
-551
-551
-551
-552
-551
-551
-551
-550
-550
-551
-550
-550
-550
-550
-550
-550
-547
-551
-552
-550
-550
-548
-550
-550
-550
-551
-552
-551
-550
-547
-548
-550
-550
-550
-549
-547
-547
-550
-549
-550
-547
-550
-550
-549
-550
-549
-550
-550
-548
-548
-548
-550
-550
-548
-547
-549
-550
-549
-545
-543
-540
-538
-538
-537
-537
-534
-530
-526
-528
-531
-534
-534
-530
-532
-534
-536
-538
-541
-539
-541
-543
-546
-547
-550
-551
-551
-552
-551
-552
-551
-551
-548
-546
-549
-550
-551
-543
-518
-478
-431
-372
-310
-246
-196
-207
-300
-437
-546
-593
-592
-583
-575
-574
-579
-586
-590
-589
-588
-583
-577
-569
-566
-560
-560
-558
-556
-556
-554
-554
-554
-552
-551
-550
-547
-546
-545
-545
-543
-542
-542
-540
-540
-538
-538
-534
-534
-534
-532
-530
-528
-529
-526
-522
-521
-519
-518
-515
-515
-512
-511
-509
-508
-507
-503
-502
-503
-502
-502
-500
-501
-500
-500
-500
-502
-506
-508
-511
-512
-516
-521
-524
-527
-530
-531
-534
-537
-537
-537
-540
-539
-541
-542
-542
-542
-541
-545
-543
-543
-543
-545
-543
-541
-540
-541
-542
-540
-539
-540
-541
-541
-540
-539
-539
-540
-540
-539
-540
-540
-540
-542
-540
-540
-540
-542
-542
-540
-534
-525
-503
-472
-444
-431
-430
-433
-430
-434
-466
-528
-598
-658
-710
-773
-843
-899
-931
-922
-879
-820
-757
-703
-672
-667
-668
-672
-673
-670
-668
-655
-636
-609
-578
-550
-527
-512
-500
-496
-495
-495
-494
-493
-490
-489
-486
-483
-482
-482
-479
-477
-471
-466
-458
-451
-446
-438
-430
-422
-413
-404
-391
-386
-377
-368
-359
-350
-345
-338
-334
-330
-327
-326
-327
-329
-332
-339
-346
-354
-364
-377
-392
-406
-418
-433
-446
-462
-476
-488
-500
-509
-519
-530
-535
-540
-543
-546
-548
-547
-551
-552
-553
-552
-553
-551
-550
-551
-551
-552
-548
-547
-547
-546
-545
-545
-545
-546
-546
-546
-546
-547
-548
-546
-547
-549
-550
-551
-552
-551
-552
-553
-554
-553
-553
-554
-554
-556
-554
-556
-555
-554
-558
-558
-556
-556
-556
-558
-558
-556
-558
-559
-558
-556
-556
-558
-558
-558
-558
-558
-559
-559
-559
-558
-558
-560
-561
-559
-558
-558
-559
-559
-559
-558
-560
-560
-559
-559
-560
-560
-561
-561
-560
-559
-562
-562
-561
-560
-558
-563
-562
-563
-562
-563
-562
-562
-560
-561
-562
-560
-561
-561
-560
-561
-561
-561
-560
-561
-560
-562
-561
-560
-560
-560
-559
-559
-561
-559
-560
-559
-559
-559
-559
-558
-554
-550
-550
-550
-551
-550
-543
-541
-537
-538
-542
-543
-540
-540
-541
-543
-546
-549
-550
-553
-553
-554
-557
-558
-559
-559
-561
-560
-562
-563
-560
-560
-558
-559
-558
-558
-558
-559
-546
-514
-469
-417
-361
-297
-230
-182
-202
-304
-457
-567
-610
-615
-609
-598
-596
-598
-602
-603
-603
-596
-588
-581
-573
-569
-564
-562
-560
-561
-559
-558
-558
-556
-555
-552
-553
-551
-552
-550
-550
-546
-546
-546
-545
-544
-541
-539
-538
-537
-534
-532
-528
-528
-525
-522
-519
-518
-517
-514
-510
-508
-508
-505
-503
-500
-499
-500
-496
-495
-494
-494
-494
-495
-495
-497
-500
-502
-505
-508
-511
-515
-520
-524
-526
-528
-534
-537
-537
-538
-539
-542
-543
-545
-542
-546
-545
-545
-544
-542
-544
-544
-544
-543
-543
-543
-542
-540
-540
-541
-540
-540
-540
-540
-539
-541
-539
-538
-538
-541
-539
-540
-541
-540
-542
-541
-541
-542
-542
-545
-545
-546
-546
-546
-547
-548
-548
-550
-550
-550
-546
-542
-541
-542
-543
-543
-540
-538
-534
-532
-534
-537
-537
-537
-537
-538
-541
-543
-546
-548
-548
-550
-552
-556
-558
-559
-560
-560
-562
-562
-561
-562
-561
-560
-559
-558
-558
-558
-559
-561
-554
-533
-495
-446
-390
-329
-263
-207
-202
-278
-418
-546
-605
-616
-605
-596
-591
-592
-598
-601
-601
-598
-592
-585
-577
-571
-567
-564
-562
-560
-560
-561
-559
-560
-558
-555
-556
-554
-553
-553
-551
-551
-550
-546
-545
-543
-543
-540
-540
-538
-534
-536
-532
-530
-528
-526
-524
-521
-519
-517
-516
-512
-510
-507
-508
-508
-506
-505
-503
-505
-505
-505
-505
-507
-511
-514
-519
-522
-528
-533
-537
-541
-543
-548
-550
-551
-552
-552
-554
-554
-554
-554
-551
-553
-554
-553
-551
-547
-547
-545
-538
-530
-524
-514
-506
-502
-497
-497
-494
-496
-503
-510
-518
-524
-526
-519
-505
-489
-466
-429
-382
-334
-290
-246
-206
-189
-219
-303
-410
-478
-500
-516
-562
-628
-683
-719
-729
-726
-716
-700
-686
-658
-629
-602
-585
-578
-578
-578
-574
-569
-563
-561
-562
-563
-564
-563
-562
-564
-565
-567
-570
-572
-572
-572
-573
-575
-578
-580
-578
-577
-576
-574
-572
-567
-566
-562
-559
-555
-552
-550
-546
-543
-542
-540
-537
-534
-532
-530
-527
-526
-525
-525
-521
-522
-526
-529
-532
-534
-540
-546
-550
-553
-554
-556
-559
-559
-559
-561
-560
-560
-559
-559
-558
-559
-559
-558
-558
-556
-556
-557
-556
-556
-555
-554
-557
-556
-556
-558
-555
-558
-558
-557
-558
-559
-558
-558
-558
-559
-560
-559
-558
-560
-560
-561
-560
-559
-560
-561
-561
-560
-560
-562
-562
-562
-560
-560
-562
-560
-562
-561
-561
-561
-562
-562
-561
-559
-562
-562
-561
-560
-561
-562
-562
-562
-561
-562
-562
-562
-562
-561
-562
-562
-562
-563
-560
-560
-561
-561
-561
-560
-562
-562
-560
-560
-560
-562
-560
-562
-562
-562
-564
-564
-562
-562
-562
-562
-562
-562
-561
-560
-562
-562
-559
-560
-560
-562
-561
-559
-562
-562
-562
-562
-563
-562
-561
-560
-559
-561
-559
-561
-559
-559
-559
-559
-558
-554
-550
-546
-549
-550
-548
-545
-539
-536
-537
-541
-542
-542
-540
-540
-543
-546
-548
-551
-550
-551
-552
-556
-558
-558
-559
-559
-560
-561
-562
-559
-559
-559
-558
-558
-556
-559
-559
-550
-521
-481
-434
-384
-326
-259
-204
-214
-305
-447
-558
-598
-598
-590
-583
-582
-586
-594
-600
-598
-598
-591
-583
-579
-574
-570
-566
-563
-566
-564
-562
-560
-561
-561
-558
-557
-556
-558
-554
-553
-552
-551
-551
-550
-547
-547
-547
-546
-545
-542
-541
-540
-540
-537
-534
-533
-532
-529
-526
-524
-522
-520
-520
-518
-516
-514
-512
-511
-509
-506
-508
-509
-508
-506
-506
-508
-510
-512
-514
-518
-520
-522
-526
-527
-532
-535
-537
-539
-540
-542
-544
-545
-546
-546
-546
-546
-546
-548
-547
-548
-548
-547
-545
-545
-546
-546
-546
-545
-545
-543
-545
-541
-543
-543
-543
-543
-541
-542
-542
-544
-542
-542
-542
-541
-543
-542
-543
-543
-543
-545
-545
-545
-545
-545
-546
-546
-546
-546
-548
-550
-550
-551
-550
-548
-545
-542
-540
-541
-542
-542
-537
-532
-529
-530
-533
-534
-534
-532
-532
-537
-539
-543
-545
-543
-546
-546
-552
-553
-558
-557
-556
-558
-558
-558
-556
-557
-557
-556
-554
-554
-553
-554
-556
-556
-545
-516
-476
-434
-386
-326
-254
-202
-225
-330
-471
-566
-606
-606
-598
-589
-586
-592
-599
-601
-597
-590
-585
-578
-570
-566
-562
-560
-558
-558
-554
-556
-554
-553
-553
-551
-550
-550
-547
-546
-545
-543
-542
-543
-542
-538
-538
-537
-534
-530
-529
-529
-524
-522
-518
-515
-514
-511
-506
-506
-502
-501
-498
-495
-494
-494
-494
-492
-492
-490
-492
-494
-495
-500
-502
-508
-514
-518
-523
-528
-535
-539
-542
-546
-547
-550
-551
-553
-555
-554
-553
-553
-552
-554
-554
-554
-554
-554
-554
-554
-554
-553
-553
-553
-554
-552
-553
-553
-553
-554
-550
-551
-550
-550
-550
-552
-549
-548
-548
-548
-548
-546
-546
-547
-547
-547
-546
-546
-546
-547
-547
-547
-548
-550
-549
-550
-550
-550
-551
-553
-552
-551
-551
-553
-553
-554
-553
-551
-550
-546
-543
-543
-542
-544
-540
-534
-530
-532
-535
-538
-537
-537
-538
-538
-541
-543
-546
-545
-546
-547
-551
-554
-557
-558
-558
-558
-558
-559
-558
-558
-558
-558
-558
-556
-553
-552
-554
-558
-552
-527
-487
-438
-390
-332
-272
-211
-191
-254
-387
-529
-602
-620
-614
-602
-592
-594
-601
-605
-603
-598
-593
-586
-578
-571
-566
-563
-562
-561
-558
-559
-558
-558
-558
-556
-556
-554
-553
-553
-551
-550
-547
-547
-546
-543
-543
-541
-538
-538
-534
-534
-533
-529
-527
-524
-522
-520
-519
-514
-511
-510
-508
-506
-502
-502
-502
-500
-497
-495
-495
-496
-496
-498
-500
-504
-508
-512
-514
-521
-526
-532
-535
-538
-541
-543
-546
-546
-546
-548
-547
-547
-547
-550
-550
-547
-547
-547
-548
-547
-550
-549
-550
-547
-550
-551
-548
-547
-546
-548
-547
-546
-546
-546
-545
-545
-545
-543
-542
-543
-543
-542
-542
-541
-542
-542
-541
-540
-541
-542
-543
-541
-542
-544
-546
-545
-545
-543
-546
-546
-547
-547
-546
-547
-548
-547
-549
-550
-550
-550
-550
-547
-548
-550
-550
-550
-548
-546
-543
-540
-541
-540
-540
-538
-533
-529
-528
-532
-535
-536
-534
-534
-536
-538
-540
-542
-543
-543
-544
-546
-551
-553
-554
-554
-554
-556
-556
-558
-555
-556
-554
-554
-554
-552
-551
-552
-553
-547
-526
-487
-445
-398
-343
-282
-217
-196
-257
-388
-522
-595
-610
-603
-591
-583
-586
-592
-598
-598
-594
-590
-583
-574
-569
-564
-561
-559
-557
-558
-556
-556
-556
-555
-554
-552
-553
-551
-550
-548
-547
-547
-546
-545
-542
-543
-541
-540
-537
-537
-534
-534
-533
-528
-527
-525
-522
-521
-519
-516
-514
-512
-512
-510
-508
-509
-507
-506
-505
-505
-502
-505
-506
-508
-511
-512
-518
-522
-527
-532
-538
-539
-541
-543
-546
-547
-549
-550
-550
-550
-551
-550
-548
-550
-550
-550
-550
-550
-550
-550
-551
-550
-550
-550
-550
-550
-547
-549
-542
-526
-496
-462
-422
-387
-368
-376
-409
-461
-521
-583
-645
-710
-775
-831
-858
-850
-819
-786
-758
-722
-690
-676
-673
-669
-657
-633
-600
-566
-543
-529
-522
-521
-522
-519
-518
-514
-512
-510
-508
-505
-502
-501
-498
-496
-494
-491
-488
-487
-484
-479
-477
-474
-469
-460
-452
-442
-434
-422
-409
-394
-388
-377
-368
-361
-356
-356
-355
-354
-354
-354
-358
-362
-368
-376
-388
-398
-410
-422
-434
-449
-464
-476
-488
-496
-508
-517
-524
-529
-532
-535
-537
-538
-538
-539
-538
-538
-537
-537
-535
-534
-534
-536
-534
-533
-532
-533
-532
-530
-530
-530
-530
-530
-528
-530
-530
-530
-531
-532
-534
-534
-536
-538
-537
-538
-540
-540
-542
-541
-543
-545
-545
-545
-546
-545
-546
-546
-547
-550
-547
-551
-550
-551
-551
-554
-553
-553
-553
-553
-554
-554
-553
-554
-556
-555
-556
-554
-556
-556
-556
-556
-554
-555
-556
-558
-557
-557
-558
-558
-556
-554
-554
-556
-556
-555
-554
-553
-554
-555
-554
-553
-551
-554
-553
-553
-553
-553
-554
-553
-553
-552
-552
-552
-551
-552
-551
-551
-551
-550
-550
-550
-550
-550
-550
-550
-550
-551
-551
-551
-551
-551
-553
-553
-551
-551
-551
-551
-550
-550
-550
-550
-550
-550
-546
-550
-551
-550
-550
-546
-548
-550
-550
-550
-550
-550
-550
-550
-550
-549
-547
-548
-548
-548
-547
-547
-547
-548
-546
-546
-547
-548
-548
-548
-548
-547
-547
-546
-546
-548
-547
-547
-548
-548
-548
-548
-546
-545
-540
-539
-538
-537
-538
-537
-533
-527
-527
-527
-530
-532
-530
-529
-529
-532
-537
-538
-539
-540
-540
-542
-545
-544
-548
-547
-550
-549
-548
-548
-550
-548
-546
-545
-543
-545
-546
-543
-521
-482
-432
-378
-316
-249
-194
-194
-273
-411
-533
-588
-598
-593
-585
-583
-589
-594
-593
-590
-586
-580
-572
-566
-559
-556
-553
-551
-549
-549
-547
-546
-545
-543
-542
-542
-542
-540
-537
-537
-537
-537
-534
-533
-532
-532
-530
-528
-526
-523
-523
-521
-518
-514
-511
-511
-510
-507
-503
-503
-500
-498
-496
-496
-496
-494
-492
-490
-491
-492
-490
-490
-490
-491
-491
-494
-495
-498
-501
-505
-510
-512
-516
-522
-524
-526
-529
-532
-534
-537
-538
-537
-538
-540
-542
-541
-540
-543
-543
-541
-540
-542
-539
-539
-538
-537
-538
-535
-534
-532
-526
-513
-487
-450
-406
-380
-388
-439
-528
-624
-708
-780
-830
-854
-855
-846
-846
-835
-801
-753
-706
-669
-639
-617
-606
-605
-609
-604
-588
-572
-558
-544
-530
-514
-507
-503
-502
-502
-502
-498
-494
-494
-490
-488
-483
-482
-478
-474
-468
-464
-462
-457
-449
-442
-434
-429
-425
-419
-412
-401
-387
-378
-372
-367
-362
-354
-346
-338
-337
-335
-338
-341
-343
-349
-358
-366
-377
-386
-400
-412
-428
-438
-452
-465
-478
-490
-499
-510
-519
-526
-530
-534
-535
-538
-541
-542
-543
-543
-544
-542
-543
-543
-544
-542
-543
-541
-541
-541
-542
-541
-542
-539
-538
-541
-541
-542
-542
-540
-543
-543
-542
-543
-545
-546
-545
-546
-547
-549
-547
-549
-550
-550
-550
-550
-550
-550
-550
-551
-552
-552
-553
-553
-554
-554
-553
-553
-554
-556
-554
-554
-554
-554
-554
-556
-554
-556
-556
-556
-556
-554
-557
-558
-558
-557
-555
-558
-558
-559
-558
-559
-558
-558
-560
-558
-558
-558
-558
-559
-558
-558
-558
-558
-558
-558
-558
-558
-558
-557
-557
-558
-558
-558
-558
-558
-558
-558
-556
-556
-556
-556
-556
-554
-556
-556
-557
-556
-554
-555
-557
-558
-558
-558
-555
-556
-558
-557
-558
-556
-556
-558
-556
-556
-556
-554
-556
-556
-554
-555
-554
-554
-554
-554
-555
-554
-555
-554
-553
-553
-554
-554
-553
-553
-553
-552
-554
-553
-553
-553
-551
-553
-552
-552
-552
-553
-553
-550
-546
-543
-543
-542
-542
-540
-536
-531
-530
-530
-534
-535
-534
-532
-533
-535
-538
-542
-541
-542
-543
-546
-550
-550
-551
-554
-554
-555
-554
-554
-554
-554
-553
-551
-548
-550
-551
-550
-532
-495
-450
-398
-336
-272
-207
-176
-221
-342
-484
-578
-605
-602
-593
-586
-588
-595
-599
-598
-596
-593
-585
-578
-572
-568
-565
-562
-560
-558
-558
-558
-555
-554
-551
-551
-551
-549
-546
-546
-546
-546
-543
-540
-541
-542
-539
-537
-538
-535
-534
-534
-532
-529
-527
-526
-524
-522
-519
-519
-518
-517
-514
-512
-511
-511
-510
-509
-508
-508
-506
-505
-503
-503
-503
-505
-505
-505
-507
-509
-513
-514
-516
-521
-526
-526
-528
-531
-536
-539
-540
-543
-544
-544
-545
-545
-543
-543
-545
-545
-545
-543
-543
-542
-542
-542
-540
-541
-540
-538
-537
-538
-541
-540
-541
-540
-539
-541
-541
-540
-541
-540
-542
-541
-541
-542
-542
-541
-543
-544
-545
-546
-545
-547
-547
-547
-548
-551
-550
-550
-550
-551
-554
-553
-553
-553
-553
-553
-553
-551
-553
-554
-554
-552
-546
-546
-546
-545
-545
-541
-540
-535
-532
-534
-537
-538
-538
-537
-537
-538
-543
-546
-547
-546
-545
-550
-553
-554
-557
-559
-558
-558
-558
-558
-559
-558
-558
-558
-556
-554
-554
-554
-556
-558
-546
-519
-478
-426
-368
-304
-239
-196
-225
-334
-475
-571
-602
-601
-592
-585
-585
-590
-594
-596
-597
-591
-583
-580
-574
-570
-564
-560
-559
-559
-559
-558
-558
-556
-554
-553
-551
-551
-550
-550
-548
-546
-545
-545
-545
-542
-539
-538
-538
-537
-534
-533
-532
-529
-528
-525
-522
-521
-519
-516
-514
-512
-511
-511
-509
-508
-507
-506
-505
-502
-505
-506
-508
-510
-512
-514
-518
-522
-527
-533
-534
-539
-543
-545
-546
-547
-547
-550
-550
-550
-550
-551
-552
-551
-551
-550
-551
-550
-550
-550
-550
-552
-550
-550
-550
-550
-549
-550
-550
-550
-550
-546
-548
-547
-546
-546
-548
-546
-546
-548
-548
-547
-546
-548
-548
-547
-549
-548
-550
-551
-551
-550
-551
-552
-553
-553
-553
-551
-552
-553
-554
-553
-553
-551
-553
-554
-554
-554
-554
-554
-554
-554
-554
-553
-554
-555
-554
-554
-553
-551
-546
-545
-543
-546
-545
-541
-537
-532
-534
-535
-538
-538
-538
-538
-540
-542
-543
-546
-548
-547
-549
-553
-556
-556
-557
-558
-558
-558
-558
-558
-558
-558
-556
-554
-554
-552
-553
-556
-558
-550
-526
-489
-444
-394
-332
-266
-207
-194
-259
-396
-534
-604
-618
-607
-596
-589
-593
-598
-601
-598
-596
-592
-585
-578
-570
-566
-563
-561
-559
-558
-559
-560
-558
-557
-556
-555
-553
-552
-552
-550
-550
-550
-546
-546
-545
-546
-543
-538
-538
-538
-536
-533
-532
-528
-527
-524
-519
-518
-514
-514
-510
-508
-506
-505
-502
-502
-499
-498
-498
-498
-498
-499
-500
-503
-507
-511
-516
-522
-527
-532
-538
-541
-545
-548
-548
-551
-553
-554
-554
-553
-554
-554
-556
-556
-557
-556
-554
-558
-558
-559
-558
-556
-556
-555
-556
-554
-555
-555
-554
-553
-552
-553
-551
-551
-551
-550
-550
-550
-550
-550
-549
-548
-550
-550
-550
-549
-548
-549
-550
-550
-549
-547
-550
-551
-551
-551
-554
-553
-554
-554
-554
-556
-554
-554
-554
-556
-557
-555
-556
-556
-557
-556
-556
-556
-556
-556
-558
-556
-554
-553
-550
-547
-546
-546
-548
-546
-543
-538
-535
-538
-540
-542
-542
-538
-540
-543
-545
-547
-547
-550
-551
-553
-555
-559
-560
-561
-562
-562
-562
-562
-562
-561
-561
-559
-559
-558
-556
-556
-558
-559
-547
-519
-476
-428
-374
-310
-240
-188
-206
-310
-460
-574
-618
-624
-614
-598
-596
-598
-605
-604
-598
-597
-590
-583
-574
-570
-566
-562
-561
-559
-559
-558
-558
-556
-554
-553
-553
-553
-551
-550
-546
-547
-546
-545
-543
-541
-540
-537
-537
-534
-533
-531
-528
-526
-523
-521
-518
-514
-511
-508
-505
-502
-500
-500
-497
-496
-496
-497
-493
-493
-494
-495
-497
-498
-503
-506
-512
-515
-522
-528
-532
-537
-540
-542
-546
-550
-551
-553
-553
-553
-553
-552
-553
-553
-553
-554
-553
-554
-554
-554
-553
-553
-553
-553
-551
-553
-551
-551
-550
-550
-550
-548
-550
-550
-550
-547
-546
-546
-547
-549
-547
-546
-546
-548
-548
-546
-546
-546
-546
-546
-546
-546
-546
-547
-547
-548
-548
-549
-547
-550
-547
-547
-549
-550
-551
-550
-547
-550
-550
-550
-550
-550
-551
-551
-550
-550
-551
-551
-552
-552
-551
-553
-552
-551
-550
-550
-551
-551
-551
-551
-551
-548
-545
-541
-542
-542
-543
-540
-534
-530
-532
-536
-538
-537
-534
-534
-537
-540
-542
-541
-545
-546
-547
-547
-551
-554
-554
-554
-553
-554
-554
-556
-556
-555
-555
-554
-553
-550
-549
-550
-553
-550
-532
-496
-450
-396
-339
-278
-216
-190
-239
-366
-505
-590
-610
-602
-590
-583
-584
-590
-593
-594
-590
-588
-581
-571
-569
-562
-559
-558
-554
-554
-553
-554
-553
-552
-550
-550
-550
-547
-546
-545
-545
-545
-543
-542
-540
-540
-540
-537
-534
-534
-534
-532
-529
-527
-524
-522
-520
-515
-514
-511
-510
-508
-506
-504
-502
-502
-502
-499
-497
-496
-497
-498
-498
-500
-502
-508
-509
-514
-519
-524
-528
-534
-534
-540
-541
-543
-544
-543
-546
-546
-546
-547
-548
-547
-548
-546
-546
-546
-547
-548
-547
-547
-547
-548
-547
-546
-546
-548
-547
-548
-546
-546
-545
-546
-546
-545
-545
-542
-543
-543
-541
-542
-543
-542
-542
-542
-541
-543
-543
-543
-542
-542
-545
-545
-544
-545
-546
-546
-546
-546
-546
-547
-548
-548
-548
-547
-547
-549
-549
-550
-550
-550
-550
-547
-546
-549
-549
-550
-547
-546
-547
-550
-550
-550
-551
-550
-550
-550
-550
-552
-551
-551
-550
-550
-550
-550
-551
-551
-551
-549
-546
-543
-542
-540
-541
-540
-538
-533
-528
-529
-531
-534
-534
-534
-534
-537
-537
-541
-542
-542
-543
-543
-547
-550
-553
-553
-553
-553
-554
-553
-553
-552
-553
-553
-553
-550
-549
-547
-546
-549
-550
-540
-514
-473
-423
-372
-313
-252
-201
-208
-300
-440
-553
-598
-602
-590
-579
-577
-582
-586
-588
-588
-586
-578
-573
-566
-564
-558
-554
-554
-553
-552
-553
-554
-550
-550
-550
-547
-547
-546
-546
-545
-543
-542
-542
-540
-540
-539
-537
-534
-534
-534
-530
-530
-527
-526
-523
-521
-518
-517
-514
-512
-511
-508
-506
-505
-505
-503
-501
-500
-498
-498
-498
-496
-498
-502
-503
-506
-510
-514
-521
-524
-527
-532
-535
-538
-540
-542
-543
-544
-545
-545
-546
-545
-546
-546
-546
-546
-546
-546
-548
-547
-546
-546
-548
-548
-546
-546
-546
-546
-545
-545
-542
-545
-545
-545
-544
-543
-544
-543
-543
-541
-543
-543
-543
-541
-542
-542
-543
-543
-543
-542
-544
-545
-545
-544
-545
-546
-546
-546
-546
-546
-549
-548
-548
-547
-547
-549
-547
-547
-547
-550
-550
-550
-547
-549
-548
-550
-548
-546
-548
-550
-551
-550
-551
-550
-550
-551
-550
-550
-547
-550
-550
-550
-550
-551
-551
-551
-550
-548
-547
-550
-551
-550
-551
-551
-551
-548
-546
-543
-541
-542
-541
-541
-538
-533
-527
-528
-532
-534
-534
-532
-534
-535
-538
-543
-545
-542
-544
-546
-550
-553
-553
-553
-554
-554
-554
-553
-553
-554
-554
-551
-551
-550
-550
-547
-548
-551
-551
-540
-512
-469
-424
-372
-313
-249
-202
-227
-340
-479
-573
-602
-599
-587
-582
-579
-584
-590
-590
-590
-585
-580
-574
-569
-562
-558
-554
-553
-553
-552
-551
-550
-550
-549
-547
-546
-546
-546
-545
-543
-540
-540
-540
-540
-538
-537
-534
-532
-532
-528
-527
-527
-524
-521
-518
-512
-512
-509
-506
-502
-500
-500
-498
-496
-494
-495
-492
-490
-489
-488
-490
-490
-492
-495
-499
-502
-507
-511
-515
-521
-526
-530
-534
-538
-540
-543
-546
-545
-546
-546
-547
-547
-547
-546
-547
-550
-550
-548
-550
-550
-550
-549
-546
-550
-549
-550
-547
-548
-546
-546
-548
-546
-546
-545
-545
-545
-543
-543
-543
-543
-543
-542
-542
-543
-542
-542
-542
-541
-541
-542
-542
-542
-543
-544
-545
-544
-545
-546
-546
-546
-546
-546
-546
-547
-546
-547
-548
-550
-550
-549
-549
-550
-550
-551
-551
-550
-550
-549
-550
-550
-550
-550
-550
-551
-550
-550
-550
-551
-551
-550
-551
-551
-551
-550
-552
-551
-551
-551
-551
-551
-550
-550
-550
-551
-550
-550
-546
-546
-542
-540
-540
-540
-539
-534
-530
-527
-532
-533
-534
-534
-532
-534
-534
-538
-540
-542
-542
-543
-545
-548
-551
-553
-553
-553
-553
-554
-554
-552
-551
-551
-551
-550
-547
-546
-546
-548
-547
-541
-518
-479
-430
-381
-326
-266
-206
-189
-255
-390
-529
-599
-614
-606
-594
-588
-588
-590
-594
-591
-588
-582
-573
-566
-561
-556
-554
-551
-550
-548
-549
-547
-546
-546
-544
-545
-543
-542
-538
-538
-538
-537
-536
-534
-534
-534
-530
-527
-526
-525
-522
-521
-518
-516
-513
-511
-508
-506
-502
-500
-496
-494
-492
-490
-490
-489
-486
-483
-484
-486
-483
-483
-486
-488
-492
-495
-499
-504
-512
-517
-522
-526
-529
-534
-537
-538
-540
-541
-544
-543
-546
-545
-546
-546
-545
-546
-547
-546
-548
-547
-546
-545
-545
-546
-546
-544
-543
-544
-545
-542
-542
-540
-541
-539
-538
-538
-538
-540
-538
-538
-537
-537
-538
-538
-537
-537
-538
-538
-538
-537
-538
-538
-539
-540
-539
-540
-539
-542
-540
-541
-541
-542
-543
-543
-543
-544
-546
-545
-545
-543
-545
-546
-546
-546
-545
-547
-546
-545
-545
-546
-546
-546
-546
-545
-546
-546
-546
-546
-545
-546
-546
-546
-545
-546
-546
-546
-546
-546
-543
-546
-546
-546
-546
-545
-546
-543
-540
-537
-538
-537
-538
-534
-530
-527
-524
-527
-530
-531
-529
-530
-531
-534
-534
-538
-538
-538
-539
-541
-546
-547
-548
-547
-549
-550
-550
-550
-547
-547
-548
-547
-545
-545
-543
-543
-544
-543
-540
-522
-490
-446
-394
-345
-286
-225
-195
-244
-370
-509
-588
-601
-590
-580
-573
-572
-578
-582
-583
-583
-578
-574
-567
-560
-556
-553
-550
-547
-547
-548
-546
-545
-546
-545
-545
-543
-541
-540
-540
-538
-538
-538
-535
-534
-534
-532
-530
-529
-528
-529
-524
-522
-520
-519
-518
-514
-511
-510
-508
-505
-502
-500
-499
-498
-496
-494
-492
-492
-490
-489
-490
-489
-490
-491
-494
-496
-501
-506
-511
-514
-519
-520
-526
-530
-532
-534
-534
-538
-539
-540
-538
-541
-540
-540
-540
-541
-541
-542
-541
-540
-539
-540
-542
-540
-540
-538
-538
-540
-538
-539
-537
-538
-538
-537
-534
-535
-537
-536
-536
-534
-534
-535
-535
-534
-534
-534
-535
-534
-534
-534
-537
-538
-537
-537
-537
-537
-538
-539
-540
-539
-540
-541
-538
-538
-540
-541
-540
-541
-540
-542
-543
-543
-542
-543
-543
-543
-543
-542
-542
-542
-543
-542
-541
-542
-543
-542
-543
-541
-542
-542
-542
-543
-541
-541
-542
-541
-542
-542
-542
-542
-545
-542
-542
-541
-542
-542
-542
-541
-540
-537
-534
-532
-532
-534
-532
-527
-522
-519
-521
-526
-527
-526
-524
-526
-528
-532
-534
-535
-535
-536
-538
-538
-540
-543
-545
-544
-543
-543
-543
-543
-544
-543
-545
-543
-541
-540
-538
-540
-541
-542
-534
-508
-470
-427
-377
-321
-259
-203
-201
-272
-402
-520
-580
-590
-580
-570
-564
-568
-574
-577
-578
-577
-575
-569
-560
-556
-551
-549
-545
-542
-545
-543
-543
-541
-539
-539
-538
-539
-538
-537
-536
-534
-534
-533
-530
-531
-530
-530
-529
-526
-526
-524
-522
-521
-518
-516
-514
-513
-510
-508
-505
-502
-501
-498
-495
-495
-494
-494
-492
-490
-490
-488
-485
-486
-488
-490
-491
-495
-500
-505
-510
-515
-518
-521
-526
-528
-532
-533
-535
-537
-537
-538
-538
-539
-539
-540
-538
-538
-539
-539
-537
-539
-538
-538
-540
-540
-538
-538
-537
-538
-537
-538
-538
-534
-536
-536
-537
-536
-534
-537
-535
-535
-534
-536
-535
-534
-534
-534
-537
-534
-536
-537
-537
-538
-538
-537
-537
-540
-540
-540
-540
-540
-541
-542
-541
-541
-541
-542
-542
-541
-540
-542
-541
-541
-542
-541
-541
-542
-542
-542
-540
-543
-542
-543
-541
-540
-542
-544
-543
-543
-544
-544
-543
-543
-543
-543
-543
-544
-543
-543
-542
-543
-543
-543
-542
-543
-543
-543
-543
-542
-540
-537
-534
-534
-534
-534
-534
-527
-522
-523
-527
-528
-527
-528
-529
-530
-533
-534
-536
-538
-538
-538
-542
-543
-545
-546
-546
-546
-548
-547
-548
-547
-546
-546
-546
-545
-542
-540
-540
-543
-546
-537
-511
-474
-427
-372
-307
-243
-194
-207
-298
-438
-546
-589
-589
-582
-575
-572
-576
-579
-583
-582
-578
-575
-567
-561
-554
-551
-548
-548
-545
-545
-545
-543
-543
-541
-542
-539
-538
-537
-537
-536
-534
-534
-534
-530
-528
-528
-527
-526
-524
-522
-520
-519
-516
-512
-511
-510
-505
-502
-500
-497
-494
-491
-489
-488
-486
-486
-484
-481
-479
-482
-480
-480
-481
-483
-489
-492
-495
-502
-507
-512
-516
-521
-526
-530
-534
-534
-537
-538
-540
-541
-542
-540
-542
-542
-542
-542
-541
-541
-541
-542
-541
-540
-542
-541
-541
-540
-538
-540
-540
-538
-537
-539
-537
-534
-534
-534
-536
-534
-534
-533
-534
-534
-534
-533
-534
-534
-534
-535
-534
-534
-534
-534
-535
-534
-536
-536
-538
-537
-537
-537
-537
-539
-539
-538
-538
-541
-540
-538
-537
-540
-540
-539
-539
-540
-540
-542
-542
-542
-542
-540
-542
-540
-540
-540
-541
-541
-541
-540
-540
-541
-541
-542
-542
-541
-542
-542
-542
-540
-540
-538
-533
-534
-531
-533
-532
-532
-526
-522
-521
-522
-525
-527
-524
-524
-526
-526
-530
-532
-534
-534
-537
-538
-540
-542
-543
-545
-545
-544
-545
-545
-543
-543
-543
-542
-542
-540
-538
-538
-542
-542
-529
-498
-455
-404
-347
-282
-215
-172
-201
-310
-460
-565
-604
-602
-590
-580
-576
-577
-583
-583
-582
-578
-572
-564
-556
-551
-547
-546
-544
-542
-542
-542
-541
-540
-538
-537
-536
-535
-532
-530
-532
-530
-530
-529
-527
-525
-524
-524
-521
-518
-516
-514
-511
-508
-506
-505
-502
-498
-494
-490
-490
-487
-483
-481
-479
-479
-478
-477
-474
-476
-474
-474
-474
-476
-479
-482
-486
-490
-497
-501
-508
-512
-518
-521
-524
-527
-530
-530
-533
-534
-536
-535
-534
-534
-536
-536
-537
-536
-536
-537
-538
-535
-537
-536
-538
-537
-534
-534
-534
-534
-533
-534
-533
-532
-531
-530
-530
-530
-529
-528
-529
-528
-527
-528
-527
-527
-526
-527
-528
-528
-527
-529
-527
-528
-529
-529
-529
-530
-530
-530
-529
-530
-532
-530
-530
-531
-532
-533
-530
-532
-532
-533
-534
-534
-532
-532
-534
-534
-535
-534
-532
-534
-535
-534
-534
-534
-534
-535
-534
-534
-534
-535
-534
-535
-534
-532
-529
-526
-524
-523
-526
-524
-521
-516
-511
-512
-516
-518
-517
-515
-515
-520
-522
-524
-526
-526
-526
-529
-532
-533
-537
-537
-537
-537
-536
-538
-537
-535
-534
-534
-534
-533
-531
-530
-530
-532
-529
-511
-478
-436
-390
-336
-276
-213
-177
-217
-340
-484
-572
-590
-579
-566
-556
-558
-565
-570
-571
-566
-567
-561
-554
-548
-543
-539
-537
-534
-534
-534
-532
-533
-532
-530
-529
-528
-527
-526
-526
-526
-524
-524
-522
-521
-521
-520
-518
-516
-515
-512
-512
-509
-509
-506
-503
-502
-498
-495
-494
-492
-489
-486
-484
-482
-481
-481
-481
-477
-476
-476
-476
-477
-476
-479
-482
-486
-488
-493
-498
-503
-508
-511
-514
-518
-522
-522
-524
-526
-527
-529
-528
-527
-527
-527
-527
-527
-527
-529
-528
-530
-528
-529
-529
-527
-528
-529
-527
-529
-527
-529
-528
-527
-526
-528
-525
-526
-525
-524
-526
-524
-523
-522
-522
-524
-522
-522
-524
-524
-524
-523
-522
-524
-526
-526
-525
-524
-526
-526
-526
-526
-526
-526
-526
-527
-527
-525
-527
-528
-527
-527
-526
-527
-528
-527
-527
-528
-528
-528
-529
-527
-528
-529
-528
-528
-529
-530
-530
-529
-529
-529
-530
-530
-528
-528
-528
-530
-530
-527
-525
-522
-521
-520
-519
-518
-516
-511
-509
-508
-511
-514
-514
-512
-512
-515
-519
-521
-522
-521
-522
-524
-527
-530
-530
-530
-532
-534
-532
-532
-532
-531
-532
-530
-529
-529
-529
-527
-526
-529
-529
-514
-486
-446
-403
-351
-290
-226
-188
-217
-317
-449
-542
-575
-574
-562
-552
-553
-560
-567
-570
-566
-564
-559
-553
-546
-542
-537
-534
-535
-534
-534
-532
-530
-530
-530
-527
-527
-527
-526
-524
-522
-522
-522
-522
-521
-519
-518
-517
-518
-514
-512
-511
-510
-507
-504
-502
-500
-498
-495
-494
-490
-489
-486
-485
-482
-481
-479
-482
-476
-475
-473
-474
-478
-476
-478
-479
-484
-489
-494
-496
-502
-506
-510
-512
-516
-521
-522
-523
-523
-524
-526
-526
-526
-525
-525
-526
-527
-527
-527
-527
-527
-528
-529
-527
-526
-528
-528
-526
-526
-526
-527
-526
-526
-526
-527
-526
-526
-525
-524
-525
-524
-522
-523
-524
-524
-524
-524
-522
-522
-524
-524
-522
-524
-524
-526
-524
-525
-525
-524
-527
-527
-526
-526
-527
-527
-527
-526
-527
-527
-527
-528
-526
-529
-530
-530
-529
-530
-529
-530
-530
-530
-532
-530
-532
-531
-530
-531
-530
-532
-532
-530
-532
-532
-532
-532
-533
-534
-534
-530
-526
-522
-522
-522
-522
-520
-516
-511
-510
-511
-514
-516
-516
-514
-514
-518
-522
-522
-524
-524
-526
-528
-532
-533
-535
-534
-537
-537
-536
-534
-535
-534
-535
-534
-532
-532
-530
-530
-531
-532
-522
-494
-452
-407
-355
-298
-234
-185
-204
-302
-441
-545
-584
-585
-575
-566
-561
-568
-574
-578
-575
-570
-563
-557
-551
-546
-541
-538
-538
-537
-534
-536
-534
-534
-533
-533
-531
-528
-528
-527
-527
-526
-524
-523
-522
-521
-519
-517
-518
-515
-514
-510
-507
-506
-503
-502
-498
-495
-494
-490
-486
-482
-479
-476
-474
-474
-473
-473
-474
-470
-468
-466
-469
-473
-474
-478
-482
-489
-496
-502
-506
-512
-518
-522
-526
-527
-530
-533
-534
-533
-534
-534
-536
-534
-534
-535
-534
-536
-535
-535
-536
-537
-537
-535
-537
-535
-536
-535
-534
-534
-534
-535
-534
-532
-532
-533
-533
-530
-530
-530
-530
-530
-528
-529
-529
-528
-528
-527
-526
-527
-530
-530
-528
-528
-529
-530
-529
-529
-530
-532
-533
-532
-532
-532
-534
-534
-533
-532
-534
-534
-533
-534
-531
-534
-534
-534
-534
-534
-534
-535
-534
-534
-537
-536
-534
-534
-534
-537
-537
-538
-537
-534
-532
-528
-527
-526
-527
-527
-526
-522
-518
-518
-520
-521
-519
-519
-519
-522
-524
-526
-527
-530
-531
-532
-533
-537
-538
-540
-540
-542
-540
-541
-542
-541
-542
-540
-538
-538
-535
-535
-536
-539
-535
-514
-478
-434
-387
-333
-270
-206
-190
-257
-393
-522
-588
-599
-591
-582
-574
-575
-580
-583
-583
-577
-572
-564
-554
-550
-545
-542
-540
-537
-538
-538
-537
-535
-534
-532
-532
-534
-530
-530
-529
-528
-527
-526
-524
-521
-521
-519
-515
-512
-512
-510
-506
-505
-502
-500
-498
-494
-490
-487
-484
-481
-478
-475
-473
-473
-471
-470
-468
-466
-466
-468
-470
-470
-474
-479
-486
-489
-495
-502
-508
-514
-515
-522
-524
-529
-530
-530
-530
-532
-532
-533
-533
-534
-534
-535
-534
-534
-534
-535
-534
-534
-533
-534
-534
-535
-535
-533
-532
-534
-532
-530
-530
-528
-530
-529
-527
-527
-528
-527
-527
-526
-526
-528
-526
-524
-526
-524
-524
-525
-523
-525
-524
-526
-526
-525
-526
-526
-526
-525
-526
-527
-529
-530
-527
-527
-527
-529
-530
-528
-530
-530
-531
-530
-529
-529
-530
-530
-530
-530
-529
-531
-530
-530
-530
-532
-530
-531
-533
-531
-529
-524
-522
-521
-520
-522
-520
-515
-509
-508
-511
-512
-514
-514
-512
-514
-517
-519
-520
-522
-525
-525
-526
-528
-532
-532
-532
-531
-534
-533
-533
-533
-530
-532
-530
-530
-528
-529
-529
-530
-530
-517
-486
-441
-390
-333
-270
-205
-172
-214
-330
-470
-560
-585
-577
-566
-558
-559
-567
-571
-572
-569
-566
-559
-551
-543
-540
-537
-534
-532
-531
-531
-531
-531
-527
-527
-529
-527
-526
-526
-524
-522
-522
-521
-521
-518
-515
-515
-514
-512
-511
-509
-508
-505
-503
-500
-499
-497
-493
-490
-488
-486
-482
-481
-478
-478
-476
-475
-473
-473
-471
-470
-470
-471
-473
-476
-478
-483
-487
-494
-498
-503
-508
-512
-517
-519
-522
-521
-523
-526
-526
-526
-525
-526
-524
-526
-525
-524
-524
-526
-526
-526
-526
-526
-526
-526
-527
-526
-526
-526
-525
-526
-524
-524
-524
-522
-522
-522
-521
-522
-521
-521
-520
-520
-519
-518
-519
-519
-521
-520
-519
-519
-520
-522
-522
-520
-521
-522
-522
-522
-522
-524
-524
-523
-522
-523
-522
-524
-525
-524
-524
-524
-525
-524
-524
-524
-524
-526
-524
-524
-523
-526
-524
-524
-524
-523
-525
-524
-525
-526
-526
-527
-527
-526
-522
-522
-519
-517
-516
-515
-516
-513
-508
-505
-505
-510
-511
-510
-508
-508
-511
-514
-516
-518
-518
-519
-521
-523
-526
-529
-530
-528
-529
-528
-530
-530
-528
-528
-527
-526
-526
-524
-522
-526
-529
-526
-506
-472
-427
-382
-327
-265
-205
-182
-242
-374
-500
-566
-573
-562
-553
-547
-551
-559
-564
-566
-564
-559
-554
-546
-539
-534
-532
-531
-529
-529
-527
-528
-527
-524
-524
-523
-524
-522
-519
-519
-519
-518
-518
-518
-516
-516
-514
-512
-512
-510
-510
-507
-504
-502
-500
-500
-497
-494
-490
-489
-487
-485
-481
-478
-478
-478
-474
-474
-472
-471
-471
-470
-469
-470
-471
-476
-478
-482
-486
-491
-496
-503
-505
-508
-512
-512
-516
-518
-519
-520
-522
-521
-520
-520
-521
-522
-520
-521
-521
-521
-522
-522
-522
-522
-522
-523
-522
-522
-522
-523
-524
-522
-522
-521
-521
-521
-519
-519
-520
-519
-519
-519
-518
-519
-519
-518
-518
-518
-520
-519
-519
-520
-521
-521
-519
-519
-520
-522
-521
-521
-522
-522
-522
-522
-522
-522
-522
-525
-524
-524
-523
-524
-525
-524
-524
-525
-524
-526
-526
-524
-524
-524
-524
-524
-524
-526
-526
-526
-526
-523
-526
-526
-526
-526
-526
-527
-527
-526
-526
-527
-526
-529
-527
-527
-524
-522
-520
-518
-518
-518
-517
-511
-506
-504
-505
-509
-510
-509
-508
-509
-511
-514
-517
-519
-519
-520
-521
-524
-526
-529
-530
-528
-530
-530
-530
-530
-528
-529
-528
-527
-526
-526
-522
-527
-530
-522
-499
-458
-414
-359
-297
-230
-178
-192
-282
-421
-530
-574
-578
-570
-561
-558
-564
-572
-574
-572
-566
-559
-552
-546
-540
-535
-534
-531
-530
-529
-528
-528
-526
-527
-526
-524
-524
-524
-521
-520
-521
-519
-520
-518
-515
-515
-513
-511
-510
-508
-506
-503
-502
-498
-497
-493
-490
-487
-484
-481
-478
-475
-471
-469
-466
-466
-466
-463
-462
-463
-463
-462
-463
-466
-471
-476
-479
-486
-492
-498
-503
-508
-512
-518
-522
-522
-522
-524
-527
-527
-527
-528
-530
-530
-530
-530
-528
-530
-532
-532
-530
-528
-530
-530
-529
-527
-529
-529
-529
-527
-526
-526
-525
-526
-524
-523
-521
-522
-522
-522
-521
-521
-522
-522
-521
-522
-525
-522
-522
-522
-522
-524
-522
-524
-524
-525
-525
-526
-526
-524
-526
-527
-528
-525
-526
-527
-530
-529
-528
-528
-528
-530
-528
-529
-530
-530
-531
-530
-529
-530
-531
-531
-530
-530
-532
-532
-532
-530
-534
-532
-532
-532
-530
-532
-532
-532
-532
-530
-528
-526
-522
-521
-522
-521
-520
-515
-512
-511
-512
-514
-516
-514
-512
-515
-518
-520
-522
-524
-524
-526
-529
-530
-532
-534
-534
-533
-534
-536
-537
-536
-534
-534
-534
-535
-534
-533
-532
-535
-532
-514
-480
-434
-386
-326
-258
-192
-172
-233
-364
-500
-578
-595
-588
-578
-571
-574
-578
-579
-579
-575
-570
-562
-554
-548
-542
-538
-537
-535
-534
-534
-534
-533
-528
-530
-529
-529
-527
-527
-525
-526
-525
-524
-522
-519
-518
-518
-514
-513
-510
-508
-507
-504
-501
-498
-495
-492
-487
-483
-482
-478
-475
-473
-471
-470
-469
-468
-466
-465
-465
-463
-466
-468
-470
-475
-478
-485
-490
-496
-504
-510
-514
-515
-522
-524
-527
-528
-530
-531
-533
-534
-532
-533
-535
-534
-534
-534
-535
-534
-535
-535
-535
-534
-534
-535
-535
-534
-534
-534
-533
-532
-530
-532
-530
-528
-529
-529
-527
-528
-526
-526
-526
-525
-525
-524
-524
-526
-526
-524
-525
-526
-526
-527
-526
-526
-527
-527
-526
-527
-527
-529
-528
-529
-530
-530
-530
-531
-530
-530
-530
-532
-532
-532
-530
-532
-531
-532
-532
-532
-530
-533
-532
-530
-532
-530
-534
-534
-534
-534
-534
-528
-524
-522
-522
-525
-522
-518
-514
-511
-512
-515
-515
-515
-514
-518
-519
-521
-522
-525
-526
-524
-526
-530
-533
-534
-534
-536
-535
-537
-537
-535
-534
-534
-533
-533
-531
-528
-530
-530
-531
-522
-495
-454
-408
-358
-300
-234
-182
-189
-284
-428
-542
-585
-586
-575
-566
-563
-568
-574
-574
-572
-570
-562
-554
-547
-542
-538
-534
-534
-534
-532
-534
-532
-531
-530
-528
-528
-527
-523
-525
-524
-522
-522
-519
-519
-519
-518
-516
-515
-512
-511
-510
-507
-506
-503
-501
-498
-494
-493
-491
-487
-483
-482
-479
-479
-478
-475
-473
-473
-473
-472
-471
-471
-473
-474
-478
-481
-486
-492
-498
-501
-506
-509
-514
-518
-518
-522
-522
-524
-524
-526
-526
-525
-526
-524
-524
-524
-525
-524
-524
-526
-526
-526
-526
-526
-524
-526
-526
-526
-524
-524
-524
-524
-524
-522
-521
-521
-520
-519
-519
-519
-520
-519
-518
-518
-518
-518
-515
-518
-518
-519
-519
-518
-518
-517
-519
-521
-522
-521
-521
-521
-521
-520
-521
-522
-522
-522
-522
-521
-522
-522
-522
-522
-521
-521
-522
-522
-522
-522
-521
-522
-522
-522
-522
-522
-523
-523
-522
-522
-522
-524
-524
-524
-522
-518
-515
-512
-512
-514
-516
-511
-505
-500
-502
-506
-507
-506
-505
-506
-508
-510
-512
-514
-515
-514
-515
-519
-522
-525
-525
-524
-526
-526
-526
-526
-524
-524
-524
-524
-521
-519
-518
-520
-522
-520
-505
-473
-433
-388
-330
-265
-196
-172
-224
-345
-478
-554
-569
-560
-550
-545
-547
-554
-559
-560
-558
-553
-546
-540
-535
-530
-527
-524
-522
-522
-522
-522
-521
-519
-518
-518
-516
-514
-514
-512
-513
-511
-510
-507
-508
-508
-506
-505
-501
-502
-500
-497
-495
-496
-493
-491
-487
-483
-482
-478
-476
-474
-473
-471
-469
-468
-466
-465
-463
-462
-462
-460
-460
-462
-465
-467
-470
-476
-481
-486
-489
-494
-498
-503
-506
-506
-510
-511
-512
-511
-511
-513
-513
-514
-512
-514
-512
-513
-514
-512
-514
-514
-514
-514
-513
-512
-514
-514
-514
-514
-511
-511
-512
-511
-510
-510
-511
-511
-510
-509
-509
-511
-509
-510
-510
-510
-510
-509
-510
-509
-511
-511
-510
-512
-511
-512
-512
-512
-513
-512
-514
-514
-514
-514
-515
-515
-514
-514
-514
-514
-516
-514
-514
-515
-517
-518
-515
-515
-515
-516
-515
-515
-515
-517
-518
-518
-518
-516
-518
-518
-518
-517
-518
-519
-518
-518
-518
-518
-519
-518
-519
-518
-517
-514
-512
-509
-510
-509
-508
-506
-498
-496
-499
-502
-502
-502
-501
-502
-504
-507
-510
-509
-511
-512
-514
-518
-519
-521
-521
-522
-521
-522
-522
-522
-521
-521
-519
-519
-518
-516
-515
-515
-519
-518
-502
-469
-427
-378
-322
-262
-199
-169
-218
-340
-476
-552
-572
-566
-556
-550
-552
-557
-562
-562
-559
-554
-548
-542
-534
-528
-526
-522
-521
-522
-521
-521
-520
-518
-515
-516
-514
-514
-514
-511
-511
-511
-509
-509
-508
-508
-506
-505
-503
-502
-500
-496
-494
-492
-490
-486
-482
-479
-478
-474
-471
-468
-468
-465
-462
-460
-458
-457
-457
-455
-455
-454
-457
-460
-463
-466
-470
-477
-484
-489
-494
-496
-502
-506
-510
-512
-512
-517
-518
-518
-518
-521
-519
-519
-519
-519
-521
-521
-519
-519
-520
-519
-521
-521
-519
-518
-518
-518
-518
-518
-518
-516
-515
-514
-514
-514
-514
-514
-514
-512
-514
-514
-512
-511
-511
-513
-512
-512
-511
-512
-514
-514
-513
-514
-514
-516
-516
-515
-517
-517
-518
-518
-518
-518
-518
-518
-517
-517
-518
-519
-520
-520
-521
-521
-519
-521
-521
-521
-522
-521
-519
-519
-521
-522
-522
-522
-522
-522
-522
-524
-521
-522
-522
-523
-522
-521
-522
-524
-524
-523
-522
-518
-515
-514
-512
-515
-512
-510
-505
-502
-503
-506
-510
-508
-506
-507
-510
-512
-514
-516
-514
-518
-520
-522
-524
-527
-529
-528
-527
-527
-527
-528
-526
-527
-526
-526
-524
-521
-521
-523
-526
-521
-498
-458
-410
-362
-306
-242
-186
-172
-244
-386
-524
-586
-593
-580
-566
-560
-564
-569
-570
-569
-564
-558
-550
-542
-534
-530
-527
-526
-526
-523
-524
-524
-521
-522
-519
-519
-518
-516
-515
-515
-512
-512
-513
-509
-508
-508
-506
-506
-502
-499
-496
-494
-490
-486
-484
-482
-479
-475
-471
-469
-466
-462
-458
-457
-454
-454
-453
-451
-451
-454
-454
-455
-455
-460
-466
-470
-477
-482
-490
-494
-500
-504
-509
-512
-514
-517
-519
-521
-521
-522
-521
-522
-522
-522
-524
-524
-524
-524
-525
-524
-524
-524
-524
-522
-522
-521
-522
-522
-521
-520
-519
-519
-518
-517
-514
-514
-514
-516
-514
-514
-514
-513
-514
-514
-514
-515
-514
-514
-512
-514
-515
-515
-515
-514
-515
-515
-518
-517
-516
-518
-518
-518
-517
-518
-519
-519
-519
-518
-519
-519
-519
-521
-519
-519
-519
-521
-521
-519
-522
-522
-522
-519
-520
-520
-521
-520
-520
-520
-521
-521
-519
-521
-520
-518
-514
-511
-510
-511
-512
-508
-503
-498
-500
-502
-505
-504
-502
-502
-505
-508
-510
-511
-511
-512
-516
-518
-521
-522
-522
-522
-524
-524
-523
-524
-522
-522
-522
-521
-519
-517
-515
-518
-518
-517
-500
-464
-420
-372
-319
-260
-199
-172
-221
-340
-475
-559
-577
-571
-559
-551
-551
-558
-560
-559
-558
-551
-543
-537
-532
-527
-524
-522
-519
-519
-519
-519
-518
-515
-515
-516
-514
-512
-511
-511
-509
-510
-508
-506
-506
-506
-502
-502
-503
-501
-498
-495
-494
-494
-490
-486
-484
-482
-478
-475
-474
-470
-470
-468
-466
-463
-462
-462
-462
-460
-458
-459
-461
-463
-466
-471
-476
-481
-486
-491
-495
-498
-503
-506
-508
-508
-511
-512
-511
-512
-510
-512
-512
-512
-511
-512
-512
-512
-512
-512
-512
-513
-513
-511
-511
-511
-511
-509
-508
-508
-508
-508
-508
-506
-506
-506
-505
-505
-505
-506
-505
-505
-502
-504
-505
-506
-505
-504
-506
-505
-505
-505
-506
-508
-508
-507
-506
-509
-508
-509
-508
-509
-511
-510
-509
-511
-509
-510
-511
-511
-510
-511
-512
-512
-511
-511
-511
-512
-511
-511
-511
-514
-512
-512
-512
-513
-514
-514
-512
-511
-512
-514
-514
-514
-512
-514
-512
-509
-505
-506
-505
-505
-503
-500
-496
-492
-495
-498
-498
-498
-497
-498
-500
-504
-506
-508
-506
-509
-511
-514
-517
-518
-518
-518
-519
-520
-518
-518
-519
-519
-518
-517
-516
-514
-514
-516
-516
-512
-490
-452
-407
-355
-302
-239
-182
-178
-255
-392
-511
-566
-569
-559
-550
-546
-546
-554
-558
-559
-556
-550
-543
-538
-534
-528
-524
-522
-523
-523
-522
-521
-520
-521
-519
-518
-517
-516
-516
-514
-512
-512
-511
-511
-510
-507
-508
-506
-506
-504
-502
-500
-498
-496
-494
-494
-489
-486
-484
-482
-479
-478
-476
-474
-471
-470
-468
-468
-466
-466
-463
-465
-466
-470
-471
-474
-480
-485
-490
-495
-500
-504
-505
-508
-511
-514
-514
-514
-516
-516
-517
-515
-515
-517
-515
-518
-517
-518
-515
-517
-518
-517
-516
-517
-514
-505
-482
-451
-416
-379
-351
-348
-370
-412
-469
-532
-594
-660
-724
-783
-819
-819
-792
-761
-730
-698
-667
-650
-644
-637
-625
-598
-562
-529
-502
-490
-487
-490
-490
-491
-486
-484
-481
-480
-478
-475
-473
-471
-469
-466
-462
-462
-459
-457
-454
-449
-446
-443
-439
-436
-432
-429
-420
-413
-405
-398
-390
-381
-370
-361
-354
-347
-340
-335
-336
-338
-344
-347
-351
-359
-366
-375
-387
-398
-409
-420
-436
-447
-458
-468
-478
-487
-494
-498
-503
-505
-507
-508
-509
-511
-509
-510
-510
-508
-508
-507
-507
-506
-506
-506
-505
-502
-502
-503
-504
-504
-503
-503
-503
-505
-505
-505
-506
-506
-507
-508
-507
-506
-511
-510
-509
-510
-511
-512
-513
-512
-514
-514
-516
-515
-515
-518
-520
-521
-520
-520
-519
-521
-522
-522
-521
-522
-522
-524
-522
-524
-526
-526
-526
-525
-523
-526
-528
-528
-527
-526
-527
-528
-527
-527
-530
-528
-528
-529
-528
-528
-530
-529
-528
-529
-529
-530
-528
-530
-528
-529
-530
-528
-530
-530
-533
-532
-530
-530
-528
-530
-530
-530
-530
-530
-530
-530
-527
-530
-530
-532
-531
-528
-530
-530
-530
-530
-531
-530
-532
-531
-531
-531
-530
-530
-530
-529
-529
-530
-530
-529
-529
-528
-528
-528
-527
-527
-528
-528
-528
-527
-527
-527
-527
-527
-527
-527
-527
-528
-526
-527
-526
-529
-527
-526
-527
-527
-527
-527
-526
-527
-528
-529
-527
-527
-527
-527
-526
-526
-526
-526
-528
-527
-526
-526
-526
-526
-526
-526
-526
-526
-526
-524
-525
-526
-526
-524
-519
-515
-514
-516
-514
-511
-506
-502
-503
-503
-506
-506
-505
-502
-503
-506
-511
-514
-516
-518
-516
-519
-522
-523
-526
-524
-525
-526
-526
-526
-524
-524
-522
-522
-521
-522
-525
-522
-506
-473
-429
-380
-317
-249
-185
-167
-230
-356
-482
-554
-573
-568
-560
-554
-556
-560
-562
-562
-560
-553
-547
-540
-534
-529
-526
-526
-526
-523
-522
-521
-519
-518
-517
-515
-516
-514
-512
-512
-511
-510
-510
-506
-506
-505
-502
-502
-498
-498
-496
-495
-492
-488
-486
-483
-479
-478
-473
-473
-470
-470
-466
-464
-465
-462
-460
-457
-455
-455
-458
-455
-455
-456
-458
-460
-460
-463
-466
-472
-476
-479
-483
-489
-492
-495
-498
-502
-505
-506
-508
-508
-510
-512
-512
-511
-511
-511
-511
-511
-510
-510
-510
-509
-508
-507
-508
-506
-508
-506
-506
-506
-508
-506
-506
-506
-506
-507
-506
-505
-505
-506
-506
-507
-506
-506
-508
-509
-509
-508
-508
-509
-510
-511
-511
-513
-513
-513
-512
-512
-514
-515
-516
-514
-514
-516
-514
-514
-515
-514
-515
-518
-516
-514
-511
-509
-506
-506
-506
-508
-502
-498
-494
-495
-499
-502
-500
-498
-498
-502
-503
-506
-507
-508
-509
-511
-514
-518
-519
-521
-521
-519
-521
-521
-522
-519
-518
-519
-518
-517
-514
-512
-516
-518
-515
-502
-466
-418
-368
-310
-250
-188
-162
-212
-338
-474
-559
-578
-570
-558
-550
-550
-554
-557
-556
-553
-547
-542
-534
-527
-522
-521
-518
-515
-515
-517
-514
-514
-512
-511
-509
-509
-508
-506
-506
-505
-504
-503
-501
-500
-498
-497
-494
-494
-490
-488
-486
-483
-482
-479
-476
-474
-470
-470
-467
-464
-463
-462
-459
-458
-457
-456
-456
-455
-456
-456
-457
-460
-462
-466
-470
-474
-481
-485
-490
-495
-498
-502
-506
-508
-508
-510
-512
-511
-511
-510
-512
-512
-512
-511
-512
-511
-512
-511
-511
-511
-511
-512
-512
-511
-510
-511
-511
-509
-509
-508
-510
-508
-506
-507
-506
-508
-506
-507
-506
-507
-508
-508
-506
-508
-508
-508
-506
-508
-508
-508
-509
-508
-508
-509
-510
-510
-512
-511
-510
-511
-511
-512
-512
-513
-512
-512
-511
-511
-511
-512
-512
-511
-512
-512
-512
-508
-502
-503
-502
-502
-502
-498
-497
-492
-492
-494
-496
-498
-495
-498
-498
-502
-505
-505
-506
-506
-509
-512
-516
-516
-518
-519
-518
-519
-518
-518
-518
-518
-516
-515
-516
-515
-512
-512
-515
-515
-502
-472
-428
-381
-328
-268
-202
-161
-194
-310
-458
-551
-575
-566
-553
-543
-542
-549
-554
-554
-554
-550
-545
-538
-531
-527
-522
-521
-521
-522
-519
-519
-518
-517
-518
-514
-514
-514
-512
-513
-511
-510
-512
-509
-508
-507
-506
-505
-502
-502
-498
-499
-497
-494
-492
-489
-488
-486
-483
-479
-478
-475
-473
-470
-469
-468
-466
-466
-464
-464
-463
-466
-463
-465
-466
-470
-478
-479
-484
-488
-494
-498
-502
-504
-508
-510
-511
-511
-512
-513
-514
-513
-512
-512
-514
-514
-512
-512
-512
-514
-514
-514
-512
-512
-514
-514
-513
-512
-512
-514
-512
-511
-511
-512
-513
-513
-511
-511
-514
-512
-512
-512
-512
-512
-512
-512
-511
-514
-512
-513
-512
-512
-514
-514
-514
-512
-512
-514
-514
-514
-514
-516
-518
-515
-517
-516
-518
-518
-518
-518
-516
-518
-519
-519
-518
-517
-519
-520
-519
-518
-521
-519
-521
-520
-520
-522
-519
-515
-512
-511
-511
-511
-511
-508
-503
-500
-500
-503
-505
-505
-502
-504
-506
-509
-511
-514
-514
-512
-514
-518
-522
-523
-522
-524
-526
-527
-526
-524
-526
-526
-526
-524
-524
-521
-522
-520
-521
-524
-518
-498
-459
-414
-364
-310
-249
-191
-188
-270
-404
-519
-568
-570
-561
-550
-546
-550
-554
-559
-561
-559
-555
-547
-543
-539
-534
-530
-527
-527
-526
-525
-526
-524
-524
-522
-521
-521
-519
-519
-519
-519
-515
-515
-516
-514
-512
-512
-511
-511
-508
-506
-505
-504
-502
-499
-495
-494
-492
-489
-486
-482
-481
-479
-476
-474
-473
-473
-473
-471
-468
-468
-468
-470
-472
-474
-478
-482
-486
-491
-497
-501
-507
-511
-513
-514
-518
-519
-522
-521
-521
-522
-522
-521
-521
-521
-521
-522
-522
-521
-521
-522
-521
-521
-522
-522
-524
-524
-524
-522
-522
-522
-522
-522
-522
-519
-522
-520
-519
-519
-518
-519
-519
-518
-519
-521
-519
-518
-518
-519
-521
-519
-518
-518
-518
-519
-521
-521
-520
-520
-522
-521
-522
-522
-522
-523
-522
-525
-524
-526
-526
-524
-523
-524
-526
-526
-525
-526
-526
-526
-526
-525
-522
-526
-526
-526
-526
-524
-528
-526
-526
-527
-527
-526
-522
-519
-515
-518
-518
-518
-512
-508
-505
-506
-508
-510
-509
-510
-509
-511
-515
-518
-520
-519
-519
-521
-524
-527
-529
-528
-528
-531
-532
-530
-528
-529
-529
-530
-529
-526
-526
-526
-526
-526
-526
-511
-479
-434
-386
-330
-274
-212
-174
-207
-318
-459
-553
-583
-579
-569
-562
-559
-564
-567
-569
-567
-564
-556
-550
-545
-540
-535
-530
-528
-529
-530
-527
-527
-525
-526
-524
-522
-521
-520
-521
-521
-521
-518
-516
-515
-515
-514
-509
-510
-506
-505
-502
-500
-496
-495
-492
-489
-486
-482
-481
-476
-473
-470
-469
-466
-463
-462
-460
-460
-460
-458
-457
-459
-462
-466
-468
-473
-480
-486
-494
-499
-505
-509
-512
-518
-519
-522
-524
-527
-526
-526
-526
-527
-529
-528
-527
-528
-529
-529
-529
-527
-528
-529
-530
-528
-528
-529
-528
-529
-527
-527
-526
-526
-526
-524
-524
-524
-524
-522
-521
-521
-522
-522
-521
-521
-521
-522
-521
-521
-521
-523
-521
-521
-521
-522
-524
-522
-522
-522
-522
-522
-523
-525
-525
-526
-526
-526
-526
-526
-526
-527
-527
-527
-528
-527
-529
-528
-527
-527
-528
-528
-529
-529
-528
-529
-528
-529
-529
-530
-532
-532
-527
-526
-522
-521
-521
-521
-522
-517
-512
-508
-509
-511
-514
-514
-514
-512
-514
-519
-522
-522
-522
-524
-526
-530
-530
-532
-534
-534
-534
-534
-534
-536
-534
-534
-532
-533
-532
-530
-527
-526
-530
-530
-518
-484
-439
-392
-340
-284
-221
-181
-208
-322
-468
-566
-594
-590
-578
-566
-562
-567
-571
-573
-570
-566
-559
-553
-546
-538
-536
-534
-532
-532
-531
-530
-528
-527
-526
-525
-524
-524
-522
-521
-519
-519
-518
-515
-515
-514
-512
-511
-511
-508
-505
-502
-501
-501
-495
-494
-490
-487
-486
-482
-480
-476
-474
-470
-468
-468
-467
-466
-466
-465
-463
-464
-465
-466
-468
-470
-476
-480
-484
-490
-496
-501
-506
-509
-512
-514
-519
-521
-521
-522
-521
-524
-524
-523
-524
-524
-524
-524
-524
-526
-526
-524
-524
-524
-526
-526
-524
-524
-524
-524
-524
-524
-522
-522
-522
-522
-521
-519
-519
-519
-518
-518
-518
-518
-518
-518
-518
-515
-518
-518
-518
-518
-516
-518
-519
-518
-518
-519
-521
-521
-521
-521
-522
-522
-522
-521
-521
-522
-523
-523
-522
-522
-524
-524
-524
-522
-522
-524
-524
-524
-523
-524
-522
-524
-524
-523
-522
-524
-524
-521
-523
-522
-523
-523
-522
-524
-522
-524
-525
-524
-521
-518
-515
-514
-514
-514
-512
-509
-505
-501
-502
-506
-509
-506
-505
-506
-508
-513
-512
-512
-514
-515
-518
-521
-524
-526
-526
-527
-526
-526
-526
-526
-526
-524
-524
-525
-522
-522
-519
-520
-521
-521
-516
-494
-458
-418
-367
-316
-257
-200
-189
-259
-386
-502
-558
-566
-558
-549
-542
-546
-553
-555
-557
-554
-551
-545
-538
-534
-528
-526
-524
-522
-521
-520
-521
-521
-519
-518
-515
-515
-514
-514
-512
-511
-511
-510
-510
-509
-508
-506
-503
-502
-502
-502
-498
-495
-494
-491
-490
-487
-484
-482
-479
-478
-473
-471
-470
-467
-466
-465
-463
-462
-462
-460
-460
-458
-459
-460
-463
-466
-470
-476
-481
-487
-490
-494
-500
-505
-508
-509
-511
-511
-512
-513
-512
-514
-514
-516
-516
-514
-515
-517
-516
-516
-515
-516
-516
-516
-515
-516
-514
-515
-515
-514
-512
-513
-514
-512
-511
-511
-512
-512
-510
-510
-509
-510
-511
-509
-510
-509
-509
-510
-509
-510
-509
-511
-511
-512
-511
-511
-512
-511
-512
-512
-512
-514
-514
-512
-514
-516
-516
-515
-514
-514
-516
-518
-518
-515
-516
-518
-518
-517
-516
-518
-519
-519
-519
-518
-518
-518
-519
-519
-519
-519
-518
-518
-518
-519
-519
-521
-519
-518
-518
-518
-519
-518
-518
-518
-518
-518
-517
-518
-518
-518
-518
-518
-515
-514
-511
-508
-508
-508
-508
-506
-502
-499
-497
-498
-501
-501
-500
-498
-501
-505
-506
-508
-508
-509
-511
-512
-516
-517
-519
-521
-521
-521
-521
-521
-520
-519
-519
-519
-519
-517
-516
-514
-512
-514
-515
-514
-500
-469
-429
-383
-327
-265
-201
-170
-212
-322
-455
-540
-564
-558
-546
-540
-540
-545
-550
-554
-554
-551
-546
-538
-534
-527
-524
-522
-522
-520
-520
-519
-518
-518
-516
-514
-514
-512
-511
-511
-511
-511
-510
-508
-507
-507
-506
-502
-502
-502
-502
-500
-496
-494
-494
-494
-490
-487
-484
-482
-478
-478
-474
-471
-469
-467
-465
-463
-463
-462
-462
-459
-458
-458
-460
-464
-465
-467
-471
-477
-484
-487
-492
-498
-502
-505
-506
-510
-511
-512
-513
-514
-514
-514
-514
-515
-514
-514
-516
-515
-514
-515
-514
-516
-516
-516
-514
-514
-516
-517
-516
-515
-514
-516
-514
-514
-512
-515
-515
-514
-512
-511
-512
-512
-511
-511
-512
-511
-512
-511
-512
-511
-512
-512
-513
-514
-514
-514
-514
-514
-515
-517
-518
-518
-518
-518
-518
-519
-520
-518
-520
-519
-519
-520
-518
-521
-522
-522
-522
-524
-522
-523
-524
-524
-526
-525
-524
-526
-526
-526
-526
-527
-527
-526
-526
-526
-526
-526
-526
-526
-526
-527
-528
-527
-527
-527
-527
-527
-526
-526
-527
-527
-527
-527
-527
-528
-526
-523
-519
-518
-516
-518
-516
-512
-508
-504
-505
-506
-508
-509
-508
-507
-507
-510
-514
-516
-517
-516
-515
-518
-521
-524
-524
-524
-524
-526
-526
-524
-524
-524
-525
-522
-522
-521
-521
-519
-518
-518
-519
-522
-509
-478
-434
-386
-334
-278
-214
-173
-191
-286
-418
-524
-566
-572
-564
-558
-553
-556
-561
-565
-564
-559
-553
-546
-541
-536
-530
-526
-526
-524
-522
-522
-521
-521
-521
-518
-515
-514
-514
-514
-512
-511
-510
-509
-507
-505
-505
-505
-505
-502
-502
-497
-495
-494
-492
-490
-486
-482
-479
-476
-474
-471
-468
-466
-462
-459
-457
-454
-454
-453
-450
-451
-450
-450
-452
-451
-455
-460
-465
-470
-475
-482
-488
-494
-500
-505
-509
-511
-516
-516
-518
-519
-519
-521
-521
-521
-522
-523
-522
-522
-521
-522
-524
-522
-521
-522
-522
-522
-522
-521
-521
-521
-522
-519
-519
-519
-518
-519
-518
-515
-514
-514
-514
-514
-514
-512
-513
-514
-512
-511
-512
-512
-514
-514
-514
-516
-515
-515
-515
-518
-518
-518
-519
-518
-520
-519
-520
-521
-521
-521
-522
-522
-522
-522
-521
-522
-524
-523
-522
-523
-524
-525
-524
-524
-524
-526
-524
-526
-525
-524
-524
-524
-525
-524
-524
-525
-524
-526
-524
-525
-526
-527
-524
-523
-524
-525
-526
-524
-523
-523
-522
-524
-524
-524
-522
-519
-516
-514
-512
-514
-514
-510
-506
-500
-500
-502
-502
-496
-483
-463
-432
-394
-362
-364
-414
-502
-586
-649
-695
-737
-777
-815
-833
-830
-830
-822
-801
-762
-720
-692
-673
-659
-641
-626
-614
-604
-596
-586
-572
-558
-540
-526
-514
-502
-494
-483
-479
-477
-478
-477
-472
-470
-466
-463
-461
-457
-454
-450
-447
-444
-438
-434
-430
-424
-418
-411
-402
-397
-390
-381
-372
-366
-358
-351
-342
-333
-328
-322
-316
-310
-305
-303
-303
-303
-304
-307
-314
-322
-330
-337
-349
-359
-372
-386
-399
-412
-425
-439
-449
-460
-470
-478
-486
-492
-496
-500
-503
-506
-508
-508
-510
-511
-514
-510
-511
-511
-511
-512
-510
-509
-509
-510
-510
-508
-506
-506
-507
-506
-506
-506
-506
-507
-507
-507
-505
-506
-507
-508
-508
-508
-509
-510
-509
-509
-511
-511
-513
-512
-514
-512
-514
-515
-518
-517
-517
-519
-519
-519
-520
-521
-522
-522
-522
-521
-522
-522
-522
-522
-522
-525
-525
-524
-522
-524
-525
-526
-526
-524
-524
-525
-526
-525
-525
-526
-526
-526
-525
-526
-526
-526
-526
-526
-526
-525
-527
-527
-526
-526
-527
-529
-527
-529
-527
-527
-527
-527
-529
-527
-527
-528
-526
-526
-526
-526
-527
-526
-526
-526
-526
-526
-524
-526
-525
-524
-525
-524
-524
-524
-525
-526
-526
-524
-522
-518
-516
-514
-514
-515
-513
-509
-505
-504
-506
-510
-511
-511
-511
-513
-515
-517
-515
-518
-518
-518
-519
-521
-524
-526
-526
-527
-526
-527
-528
-527
-526
-524
-524
-526
-524
-522
-521
-522
-524
-519
-498
-462
-415
-362
-304
-240
-186
-166
-224
-346
-477
-551
-570
-564
-554
-549
-551
-558
-562
-564
-562
-559
-553
-546
-540
-534
-530
-530
-527
-527
-526
-526
-525
-522
-522
-521
-522
-519
-519
-517
-516
-514
-516
-514
-511
-512
-511
-510
-506
-507
-505
-505
-503
-500
-500
-498
-495
-492
-492
-488
-486
-483
-480
-478
-474
-474
-472
-470
-468
-465
-464
-462
-463
-462
-463
-465
-466
-469
-471
-476
-481
-486
-490
-494
-498
-502
-506
-507
-509
-513
-514
-514
-514
-514
-515
-515
-516
-514
-514
-516
-514
-514
-514
-515
-515
-518
-515
-514
-514
-514
-515
-514
-514
-514
-516
-515
-514
-514
-514
-515
-515
-514
-514
-516
-516
-514
-516
-516
-518
-518
-518
-517
-516
-519
-519
-519
-518
-518
-521
-522
-522
-522
-521
-523
-522
-524
-522
-525
-525
-524
-524
-524
-526
-526
-526
-526
-526
-526
-526
-526
-526
-526
-527
-528
-528
-527
-527
-529
-528
-527
-526
-527
-528
-528
-527
-527
-527
-527
-526
-526
-526
-526
-526
-526
-525
-526
-526
-526
-526
-527
-526
-526
-526
-526
-527
-526
-526
-524
-521
-517
-517
-517
-518
-514
-509
-506
-505
-507
-508
-509
-508
-508
-509
-511
-514
-515
-518
-518
-519
-519
-522
-526
-527
-527
-529
-529
-527
-528
-529
-527
-529
-526
-527
-526
-526
-523
-526
-522
-524
-523
-511
-483
-442
-399
-348
-290
-227
-181
-194
-282
-409
-514
-561
-566
-559
-551
-547
-551
-558
-564
-566
-562
-558
-552
-546
-540
-534
-531
-528
-528
-529
-528
-527
-524
-526
-524
-524
-522
-523
-520
-520
-519
-517
-518
-516
-516
-514
-511
-510
-510
-508
-506
-503
-502
-502
-498
-497
-494
-492
-490
-487
-483
-482
-479
-478
-478
-474
-473
-471
-470
-469
-468
-466
-466
-468
-467
-470
-473
-477
-482
-487
-490
-495
-501
-505
-509
-511
-516
-518
-520
-521
-522
-522
-524
-524
-524
-522
-522
-522
-522
-521
-522
-522
-522
-522
-522
-522
-522
-523
-522
-521
-522
-521
-521
-521
-521
-521
-521
-521
-520
-519
-521
-519
-519
-519
-519
-519
-522
-521
-521
-521
-522
-524
-522
-522
-522
-522
-524
-524
-524
-523
-526
-526
-526
-526
-526
-527
-529
-528
-527
-526
-527
-528
-527
-527
-529
-528
-528
-528
-527
-529
-528
-529
-529
-527
-528
-528
-528
-529
-530
-528
-530
-530
-529
-530
-530
-530
-530
-528
-530
-530
-531
-530
-530
-529
-532
-532
-531
-528
-530
-529
-526
-522
-521
-521
-521
-519
-515
-512
-508
-509
-513
-514
-513
-514
-514
-514
-518
-521
-521
-522
-522
-524
-527
-530
-532
-534
-532
-534
-535
-534
-532
-532
-531
-532
-530
-530
-529
-527
-527
-527
-529
-529
-519
-494
-454
-404
-348
-287
-223
-177
-193
-288
-426
-534
-575
-578
-570
-560
-560
-564
-571
-572
-570
-569
-562
-554
-548
-545
-540
-534
-534
-534
-534
-533
-530
-528
-529
-528
-527
-526
-524
-524
-524
-524
-522
-521
-519
-519
-517
-512
-511
-512
-508
-506
-506
-504
-503
-500
-495
-491
-490
-486
-483
-481
-478
-476
-474
-472
-469
-470
-466
-465
-462
-459
-462
-462
-463
-465
-468
-473
-478
-482
-487
-492
-498
-505
-510
-514
-517
-519
-522
-525
-526
-526
-527
-529
-530
-529
-528
-530
-530
-528
-527
-527
-529
-528
-527
-528
-527
-527
-527
-526
-526
-526
-527
-526
-526
-524
-522
-524
-524
-522
-522
-522
-522
-522
-521
-522
-522
-522
-522
-521
-521
-522
-524
-524
-524
-526
-526
-526
-526
-526
-526
-526
-526
-527
-526
-526
-527
-529
-529
-527
-529
-528
-530
-530
-530
-530
-532
-528
-528
-528
-530
-532
-530
-530
-530
-530
-531
-530
-530
-532
-532
-533
-532
-532
-531
-532
-534
-532
-532
-530
-528
-526
-521
-521
-521
-523
-522
-514
-509
-509
-511
-514
-514
-513
-514
-514
-518
-521
-524
-524
-525
-526
-527
-532
-534
-534
-534
-534
-535
-536
-536
-534
-534
-535
-534
-533
-532
-530
-530
-530
-532
-530
-516
-482
-438
-385
-326
-264
-201
-168
-213
-329
-473
-565
-593
-586
-579
-573
-572
-575
-577
-578
-575
-569
-562
-555
-548
-543
-538
-534
-534
-535
-534
-532
-532
-530
-530
-529
-526
-526
-524
-524
-522
-522
-521
-519
-518
-516
-515
-512
-511
-510
-508
-506
-503
-500
-496
-494
-492
-487
-483
-482
-478
-474
-473
-470
-469
-468
-463
-462
-462
-462
-462
-460
-462
-462
-466
-469
-472
-479
-483
-490
-495
-502
-508
-512
-516
-519
-522
-524
-526
-526
-527
-529
-528
-528
-527
-528
-529
-529
-530
-529
-529
-529
-528
-528
-529
-529
-529
-529
-527
-526
-526
-526
-527
-526
-524
-524
-524
-525
-522
-522
-522
-522
-522
-521
-519
-519
-520
-520
-520
-521
-521
-521
