-3
-3
-2
0
0
0
0
-2
-2
-1
0
0
1
2
2
2
2
2
2
3
4
4
4
5
4
5
5
5
5
5
5
6
8
9
10
10
11
12
14
16
16
16
16
16
16
17
17
17
18
18
17
16
15
16
16
18
19
19
19
18
17
16
17
16
16
17
18
17
15
15
15
16
16
16
14
13
12
12
14
13
14
15
15
14
12
11
8
7
6
7
8
8
8
7
7
8
9
10
10
10
10
10
9
10
10
10
11
14
16
18
18
18
24
39
63
92
124
156
192
222
243
254
256
256
248
242
216
173
110
46
-5
-40
-55
-54
-47
-42
-38
-36
-35
-35
-35
-36
-37
-37
-36
-36
-36
-36
-37
-38
-40
-42
-42
-43
-44
-45
-44
-46
-47
-49
-48
-50
-52
-54
-56
-56
-57
-58
-60
-62
-63
-65
-64
-64
-64
-66
-67
-69
-70
-71
-73
-72
-72
-71
-72
-72
-74
-76
-76
-78
-78
-82
-83
-85
-84
-84
-86
-86
-88
-88
-89
-87
-86
-85
-83
-82
-79
-78
-77
-75
-73
-72
-69
-65
-61
-55
-52
-48
-46
-42
-38
-35
-31
-27
-23
-19
-15
-11
-7
-5
-1
1
4
6
8
10
11
14
16
18
19
20
20
18
18
18
17
16
16
15
13
11
8
7
6
7
7
6
5
3
1
0
0
0
0
-1
-2
-3
-4
-4
-4
-2
-2
-1
0
0
0
0
0
-1
0
0
0
-1
-3
-5
-7
-8
-9
-9
-9
-10
-11
-11
-11
-13
-14
-15
-15
-15
-15
-16
-17
-17
-17
-17
-15
-15
-16
-17
-17
-19
-19
-18
-17
-16
-15
-14
-15
-14
-13
-12
-12
-12
-12
-13
-13
-13
-13
-13
-13
-14
-14
-14
-14
-14
-13
-14
-15
-15
-16
-17
-17
-17
-17
-17
-17
-17
-18
-19
-19
-19
-19
-18
-18
-17
-16
-15
-14
-14
-14
-13
-13
-13
-13
-13
-12
-12
-13
-11
-12
-11
-11
-10
-10
-9
-8
-8
-8
-8
-8
-9
-9
-10
-12
-12
-12
-12
-12
-12
-12
-11
-10
-10
-10
-10
-11
-11
-11
-10
-10
-9
-8
-8
-9
-9
-10
-10
-11
-12
-12
-13
-14
-14
-13
-13
-12
-12
-12
-12
-11
-10
-10
-10
-10
-11
-11
-12
-12
-12
-13
-12
-12
-12
-13
-13
-13
-13
-13
-12
-12
-11
-10
-9
-7
-7
-5
-4
-3
-2
-1
0
0
0
1
2
4
7
9
11
15
27
47
72
102
131
166
191
209
214
208
200
185
173
140
89
26
-28
-57
-68
-65
-54
-45
-36
-31
-27
-26
-25
-25
-25
-25
-26
-29
-30
-29
-28
-28
-28
-30
-30
-30
-30
-30
-31
-33
-33
-32
-32
-33
-34
-36
-37
-39
-39
-40
-40
-42
-44
-46
-48
-51
-54
-56
-58
-58
-60
-61
-63
-65
-66
-69
-69
-72
-72
-76
-78
-80
-81
-83
-86
-87
-90
-92
-95
-96
-95
-95
-94
-93
-91
-91
-90
-89
-88
-87
-86
-84
-84
-81
-80
-77
-74
-71
-67
-63
-58
-55
-50
-46
-42
-39
-35
-31
-28
-24
-21
-18
-15
-12
-11
-9
-7
-5
-3
-2
0
0
1
1
2
3
5
5
5
5
4
4
3
1
0
-1
-1
-2
-3
-3
-3
-2
-2
-2
-3
-4
-5
-6
-6
-7
-7
-7
-7
-9
-9
-9
-9
-9
-9
-10
-11
-11
-11
-11
-11
-12
-13
-14
-15
-16
-16
-16
-16
-16
-16
-17
-17
-16
-16
-16
-15
-15
-16
-17
-17
-17
-18
-18
-17
-18
-17
-18
-18
-19
-20
-19
-20
-20
-20
-20
-19
-19
-19
-19
-19
-19
-19
-18
-17
-16
-15
-14
-14
-14
-13
-14
-14
-14
-13
-14
-13
-12
-12
-12
-12
-11
-11
-10
-10
-9
-8
-6
-6
-6
-6
-1
11
32
59
89
120
150
175
190
197
196
189
180
166
141
91
33
-22
-56
-73
-75
-68
-58
-51
-46
-42
-38
-36
-34
-33
-34
-34
-34
-34
-35
-34
-34
-35
-35
-36
-36
-36
-36
-37
-39
-40
-43
-43
-44
-45
-46
-47
-48
-50
-51
-54
-55
-58
-58
-60
-61
-62
-63
-64
-66
-67
-70
-72
-75
-76
-77
-79
-79
-80
-81
-82
-82
-83
-85
-86
-87
-88
-89
-88
-87
-86
-85
-85
-85
-86
-85
-85
-84
-83
-81
-80
-79
-76
-75
-72
-70
-67
-65
-62
-59
-56
-52
-48
-44
-40
-36
-33
-30
-27
-24
-21
-16
-11
-7
-3
0
3
6
9
11
14
17
18
20
21
22
23
25
27
29
30
31
32
32
34
34
35
35
35
35
35
35
34
34
32
32
30
29
28
27
26
24
23
21
20
20
19
19
18
18
17
17
17
16
17
14
14
12
12
11
11
10
10
10
9
9
9
10
10
10
10
8
8
7
6
6
5
6
5
6
6
8
8
8
7
7
8
9
10
11
11
11
11
10
10
10
10
10
9
10
10
9
9
9
9
9
10
9
9
8
8
8
8
8
7
7
7
6
6
5
4
4
3
3
3
3
2
1
0
1
0
0
0
0
0
0
1
1
2
3
5
6
7
8
9
9
9
10
11
12
12
13
13
12
12
11
11
10
9
9
8
7
6
5
4
4
4
4
4
3
2
1
0
0
0
0
0
0
0
0
0
1
0
1
2
2
1
0
0
-1
-2
-3
-3
-3
-2
-2
-2
-1
-1
0
0
0
0
1
1
0
0
0
-1
-2
-2
-1
-1
-1
-1
-1
-1
-1
-1
-1
-1
-1
0
0
0
1
2
3
3
4
4
6
6
7
7
7
7
7
8
8
9
9
10
10
11
12
13
15
16
18
24
37
57
81
108
136
165
188
203
205
201
187
168
151
125
84
27
-21
-53
-63
-59
-49
-37
-27
-21
-16
-12
-8
-5
-3
-3
-2
-2
-2
-2
-2
-1
-3
-4
-5
-5
-6
-7
-8
-10
-11
-13
-14
-15
-16
-17
-18
-18
-19
-19
-20
-20
-22
-23
-22
-23
-23
-24
-25
-25
-26
-26
-27
-28
-29
-30
-30
-31
-32
-33
-34
-37
-39
-41
-43
-44
-46
-47
-49
-50
-51
-53
-54
-54
-54
-54
-55
-56
-57
-57
-57
-58
-58
-56
-55
-53
-51
-49
-47
-45
-42
-40
-37
-34
-32
-29
-25
-23
-19
-15
-11
-8
-4
0
1
4
7
9
11
12
13
14
14
15
17
18
19
20
21
21
21
21
21
22
21
21
21
21
20
20
20
20
20
19
19
19
18
18
18
18
18
18
18
17
17
16
16
15
16
15
14
13
12
11
11
11
10
10
10
10
9
8
7
6
5
4
4
4
4
3
2
2
1
1
1
1
1
2
3
3
4
4
5
5
6
7
7
7
6
6
6
7
6
6
6
5
4
4
4
3
3
2
2
2
1
1
1
1
0
-1
-1
-2
-3
-4
-4
-4
-3
-2
-2
-2
-1
-1
0
0
0
1
1
1
1
1
2
1
1
1
1
1
1
1
0
0
0
0
0
0
0
0
0
0
0
0
2
2
2
3
2
3
2
2
1
1
0
0
-1
-1
-1
-1
-1
-2
-1
-1
-1
-1
-1
-1
-1
-1
-1
-1
-2
-3
-3
-4
-3
-4
-5
-5
-6
-8
-9
-9
-10
-10
-10
-9
-9
-8
-7
-5
-2
-1
0
2
10
26
48
75
100
131
153
169
173
169
158
142
124
94
47
-6
-51
-72
-76
-70
-57
-46
-39
-34
-31
-28
-27
-27
-26
-26
-25
-25
-25
-25
-26
-26
-26
-28
-29
-30
-30
-31
-32
-33
-33
-34
-34
-34
-34
-34
-35
-35
-36
-37
-38
-38
-39
-41
-41
-42
-44
-45
-45
-47
-48
-49
-50
-51
-52
-53
-54
-55
-55
-55
-55
-56
-57
-59
-60
-61
-63
-63
-63
-63
-64
-63
-64
-65
-65
-66
-65
-65
-63
-62
-61
-60
-59
-56
-54
-51
-49
-47
-44
-41
-38
-35
-31
-28
-25
-22
-20
-17
-15
-13
-11
-8
-6
-3
-1
0
2
5
7
8
7
7
7
8
8
10
11
12
14
14
14
14
14
16
16
17
17
17
17
16
16
15
15
15
15
14
14
13
13
15
14
16
16
16
14
14
14
13
14
14
15
15
15
16
14
14
13
13
11
10
9
7
6
5
5
5
4
3
3
4
4
4
4
4
5
6
6
6
5
5
5
5
5
5
4
4
4
3
3
3
3
3
4
4
3
4
4
4
4
2
2
0
0
-2
-4
-3
-4
-4
-4
-5
-5
-6
-6
-7
-7
-7
-6
-6
-6
-6
-7
-6
-7
-7
-7
-8
-8
-7
-6
-7
-7
-7
-7
-6
-6
-5
-6
-6
-7
-8
-9
-10
-12
-12
-13
-13
-12
-11
-11
-10
-9
-8
-7
-6
-6
-6
-6
-5
-5
-5
-5
-6
-6
-6
-6
-6
-5
-5
-4
-4
-4
-4
-3
-3
-3
-3
-3
-3
-3
-3
-3
-4
-5
-5
-6
-7
-8
-8
-10
-10
-11
-11
-11
-11
-11
-10
-9
-9
-9
-9
-8
-7
-7
-6
-7
-6
-6
-6
-5
-5
-4
-5
-5
-6
-5
-5
-5
-4
-4
-3
-3
-3
-3
-3
-3
-3
-2
-2
-1
-1
-1
-1
0
-1
-1
-1
0
-1
-1
-1
-1
-1
-1
-1
-1
-1
0
0
0
-1
0
0
1
1
2
3
3
4
4
5
5
5
7
7
8
8
10
11
12
13
15
17
18
20
21
23
23
24
25
25
24
24
24
23
23
23
23
23
23
22
21
21
21
22
22
23
24
24
24
25
26
26
26
27
34
51
73
101
128
158
184
204
211
207
191
168
145
115
72
16
-32
-63
-72
-67
-55
-41
-31
-24
-21
-18
-16
-16
-15
-14
-13
-11
-10
-9
-11
-12
-13
-14
-15
-16
-17
-19
-20
-21
-23
-25
-27
-28
-31
-32
-35
-36
-38
-40
-41
-42
-42
-44
-45
-47
-48
-49
-51
-52
-55
-56
-58
-59
-59
-60
-61
-63
-63
-64
-65
-66
-67
-68
-69
-70
-72
-72
-74
-75
-75
-76
-77
-79
-79
-81
-81
-81
-80
-79
-78
-77
-77
-75
-74
-73
-72
-70
-67
-66
-62
-60
-57
-55
-51
-49
-45
-41
-38
-35
-33
-30
-28
-25
-21
-18
-14
-11
-8
-6
-4
-1
0
3
5
7
10
11
12
12
12
13
12
13
13
13
13
13
13
13
14
14
14
14
14
14
14
14
14
15
15
14
13
13
12
12
12
11
11
10
10
9
7
6
4
2
0
0
-2
-3
-4
-4
-4
-5
-6
-6
-5
-5
-5
-5
-6
-7
-8
-9
-10
-11
-10
-11
-11
-11
-11
-11
-10
-10
-10
-9
-9
-8
-8
-9
-8
-8
-7
-7
-4
-3
-4
-6
-7
-8
-8
-8
-9
-9
-9
-10
-11
-11
-11
-12
-11
-11
-11
-12
-13
-14
-15
-16
-15
-15
-15
-14
-14
-14
-13
-10
-9
-8
-4
1
18
40
70
97
129
157
179
193
193
187
169
150
128
97
52
-4
-49
-74
-84
-79
-69
-56
-47
-41
-36
-33
-30
-29
-29
-31
-32
-33
-34
-35
-37
-38
-39
-40
-41
-42
-43
-45
-46
-47
-48
-50
-51
-52
-53
-54
-55
-56
-58
-58
-59
-60
-60
-60
-62
-62
-62
-63
-64
-64
-64
-64
-64
-65
-66
-66
-68
-69
-72
-72
-74
-76
-77
-80
-81
-84
-85
-89
-91
-92
-95
-96
-98
-99
-101
-102
-101
-102
-100
-101
-98
-98
-95
-93
-89
-84
-82
-77
-73
-68
-66
-62
-57
-53
-49
-44
-40
-37
-32
-29
-25
-22
-19
-16
-12
-9
-7
-6
-4
-3
-1
0
1
1
1
1
1
0
0
-1
0
0
0
1
1
2
3
4
4
6
6
8
8
9
10
10
11
11
12
13
13
14
14
14
13
14
13
15
15
16
16
15
15
15
16
17
19
20
20
20
19
19
19
20
20
19
19
18
17
15
14
13
12
11
11
10
10
9
9
10
11
11
12
12
13
14
14
13
13
14
15
15
16
18
17
18
19
19
19
19
20
19
19
18
17
17
17
17
17
18
17
17
16
15
14
14
14
14
14
14
14
13
13
12
11
10
10
10
8
8
8
8
7
7
8
8
10
11
13
13
14
15
16
17
17
19
19
19
19
18
18
17
17
15
15
12
12
10
10
8
8
7
6
6
5
5
4
4
5
4
3
3
3
2
1
1
0
0
-1
-1
-2
-1
-1
-1
0
0
2
1
1
0
0
1
0
0
0
0
0
0
0
0
0
0
1
1
2
2
2
2
2
2
2
3
2
2
2
2
2
3
2
2
4
4
4
4
4
3
2
3
2
3
3
3
3
4
4
5
6
6
7
8
9
10
11
12
11
11
10
10
10
10
11
10
11
11
12
12
11
11
10
10
10
9
8
7
6
5
5
5
5
4
4
4
5
5
4
4
4
4
4
5
5
5
6
7
8
9
10
9
10
10
11
12
14
15
16
17
16
16
15
15
14
14
15
15
15
14
14
13
12
11
9
8
7
6
5
4
4
4
4
3
4
3
3
3
2
3
1
1
0
0
0
0
1
0
1
2
3
4
5
5
6
7
8
9
10
12
16
27
45
69
93
120
148
170
182
181
174
156
137
113
76
27
-26
-63
-80
-81
-71
-59
-49
-41
-37
-34
-33
-32
-32
-33
-33
-32
-32
-31
-31
-31
-31
-31
-31
-32
-33
-34
-36
-37
-40
-42
-44
-46
-47
-50
-50
-53
-54
-56
-56
-57
-57
-57
-58
-59
-60
-59
-61
-62
-62
-63
-64
-66
-65
-67
-67
-68
-69
-69
-71
-72
-75
-76
-78
-78
-79
-82
-82
-84
-85
-88
-87
-88
-88
-88
-87
-87
-86
-84
-83
-80
-79
-77
-74
-72
-69
-67
-64
-62
-60
-57
-53
-50
-47
-43
-40
-37
-33
-29
-27
-23
-19
-14
-10
-7
-3
-1
1
3
5
6
7
7
8
8
7
8
8
9
10
11
13
13
13
14
15
15
16
16
15
15
15
15
15
15
13
13
11
10
9
9
8
6
6
5
4
3
3
3
3
3
1
1
0
0
-1
-1
-1
-1
0
0
0
1
2
3
4
6
5
6
5
6
5
5
6
5
5
4
3
2
2
3
3
4
4
5
5
6
6
7
7
6
6
5
4
3
2
1
0
0
-1
-2
-4
-5
-7
-9
-10
-11
-12
-12
-11
-10
-9
-8
-8
-7
-7
-8
-9
-8
-9
-11
-12
-12
-13
-13
-12
-13
-13
-15
-15
-16
-16
-16
-17
-17
-17
-17
-17
-16
-17
-17
-16
-16
-15
-14
-13
-12
-11
-11
-11
-10
-10
-11
-11
-13
-13
-15
-16
-17
-18
-18
-18
-18
-18
-18
-19
-18
-18
-18
-18
-18
-18
-19
-19
-18
-18
-18
-18
-18
-18
-18
-18
-17
-16
-16
-17
-18
-19
-19
-20
-20
-21
-21
-20
-20
-19
-19
-19
-19
-19
-18
-18
-17
-17
-17
-18
-18
-18
-19
-19
-19
-19
-20
-21
-20
-21
-21
-21
-20
-20
-21
-21
-21
-21
-22
-22
-21
-21
-21
-22
-21
-21
-20
-18
-17
-16
-15
-14
-14
-13
-12
-11
-10
-9
-9
-8
-6
-3
-1
1
2
3
3
3
2
2
2
2
2
3
2
2
1
2
2
2
2
2
2
2
1
1
0
1
0
1
1
1
1
2
3
3
4
3
4
4
4
3
3
4
3
4
4
6
6
5
4
4
4
3
2
0
-1
-2
-3
-3
-3
-3
-2
-2
-2
-2
-1
-2
-2
-1
-1
-1
-1
-1
-1
-1
-2
-3
-4
-5
-6
-6
-6
-6
-6
-6
-6
-7
-6
-6
-6
-6
-5
-5
-5
-5
-5
-4
-4
-4
-4
-4
-5
-5
-6
-7
-7
-8
-9
-9
-10
-10
-11
-10
-9
-9
-8
-8
-7
-9
-8
-8
-7
-6
-4
-1
1
3
5
8
11
14
16
22
32
44
58
70
68
31
-36
-117
-187
-222
-233
-235
-231
-230
-222
-215
-201
-191
-179
-165
-146
-119
-94
-67
-46
-31
-22
-17
-13
-10
-7
-5
-1
0
2
3
5
5
6
6
7
9
11
12
12
14
13
14
15
16
17
17
18
17
17
17
17
17
17
19
18
19
18
17
16
15
15
13
12
10
8
7
5
4
3
3
2
3
3
4
4
4
4
4
5
5
6
7
8
8
8
8
8
9
10
12
14
17
19
20
22
23
26
27
30
31
33
34
36
38
40
42
42
43
42
41
40
38
38
35
33
29
28
26
25
24
24
25
24
25
25
26
26
26
26
25
26
26
27
27
27
28
27
28
28
29
29
29
29
29
30
30
30
29
30
29
29
30
29
28
27
27
26
26
25
24
22
20
18
15
13
9
7
4
3
1
0
0
-1
-2
-3
-4
-4
-5
-5
-5
-5
-6
-5
-5
-5
-5
-4
-3
-4
-4
-5
-5
-6
-5
-5
-5
-5
-6
-6
-7
-7
-7
-7
-7
-7
-7
-7
-7
-8
-8
-8
-9
-10
-12
-14
-16
-17
-18
-18
-18
-17
-16
-15
-15
-14
-14
-13
-13
-13
-13
-14
-14
-13
-13
-13
-12
-12
-12
-12
-11
-11
-11
-11
-12
-12
-12
-12
-12
-12
-12
-12
-12
-12
-13
-12
-11
-12
-11
-11
-11
-11
-11
-10
-10
-9
-8
-7
-7
-7
-5
-6
-1
11
32
60
92
122
156
184
204
213
204
188
158
131
96
47
-9
-60
-88
-95
-90
-75
-62
-52
-44
-39
-35
-32
-30
-29
-27
-27
-25
-25
-24
-23
-21
-20
-20
-20
-20
-20
-19
-19
-21
-23
-25
-27
-30
-33
-35
-37
-38
-39
-40
-40
-41
-42
-44
-45
-46
-48
-49
-51
-52
-54
-55
-57
-59
-60
-62
-64
-66
-67
-69
-71
-73
-75
-76
-79
-80
-83
-85
-86
-87
-87
-88
-88
-91
-91
-94
-94
-95
-96
-94
-94
-93
-93
-92
-91
-89
-85
-82
-78
-75
-71
-68
-64
-60
-57
-53
-49
-44
-41
-37
-33
-30
-27
-24
-21
-18
-14
-11
-8
-5
-2
-2
-1
0
1
2
3
5
6
7
6
6
6
7
7
8
8
6
5
3
2
1
1
2
1
0
-1
-1
-1
-1
0
1
2
3
4
5
6
6
8
9
10
11
11
12
11
12
12
13
13
13
13
13
12
11
10
10
10
9
8
8
7
6
5
5
4
3
2
1
1
0
0
0
-1
-1
-1
-1
-2
-2
-2
0
0
2
5
6
7
7
8
8
9
10
11
12
11
12
12
11
10
10
10
10
10
10
10
8
9
8
8
8
8
8
7
6
4
3
2
1
1
0
-1
-2
-3
-3
-1
0
0
0
0
0
0
1
1
1
1
1
2
1
0
0
0
0
0
0
0
0
0
0
1
2
3
3
4
2
2
2
1
1
1
2
0
0
0
-1
-1
-2
-2
-2
-2
-2
-2
-2
-2
-2
-3
-2
-3
-3
-3
-4
-6
-7
-7
-8
-8
-8
-8
-8
-7
-8
-7
-7
-6
-6
-5
-4
-4
-3
-2
-1
-1
0
1
2
4
4
4
4
4
3
3
4
2
3
2
2
2
2
3
2
3
2
2
1
1
0
1
1
1
0
0
0
0
-1
0
0
1
2
2
2
3
4
4
5
5
6
7
7
7
8
8
9
10
10
11
11
11
10
10
9
9
9
9
9
9
9
9
9
9
9
9
9
10
9
10
10
11
11
12
13
12
12
12
11
10
10
9
7
7
6
7
7
8
8
8
8
7
7
7
6
6
6
6
5
5
4
3
3
3
4
4
4
4
5
6
7
9
9
9
9
11
11
13
13
17
27
45
67
91
117
145
171
184
191
183
167
147
123
94
45
-8
-55
-81
-86
-79
-67
-55
-47
-41
-37
-35
-33
-31
-29
-28
-26
-26
-26
-27
-27
-27
-26
-27
-28
-28
-29
-29
-29
-28
-30
-30
-31
-32
-33
-34
-35
-38
-40
-41
-43
-44
-46
-48
-50
-51
-53
-55
-56
-59
-60
-63
-63
-64
-64
-65
-65
-65
-67
-67
-70
-70
-71
-71
-72
-74
-75
-77
-77
-78
-78
-77
-77
-76
-77
-77
-78
-77
-76
-76
-75
-73
-72
-70
-68
-66
-63
-61
-58
-55
-52
-49
-46
-42
-39
-35
-31
-26
-23
-20
-16
-11
-7
-3
1
3
6
9
12
15
18
21
22
24
25
26
26
28
28
30
32
34
35
35
35
34
35
34
34
34
33
32
30
30
28
27
26
25
25
24
23
22
22
21
22
21
20
20
20
19
18
17
16
16
16
16
17
16
16
15
15
14
14
15
15
15
14
14
13
13
13
13
14
12
11
9
9
8
8
8
6
4
2
1
0
-1
-2
-4
-4
-4
-3
-2
-1
0
0
1
1
0
0
0
-1
-1
-1
-1
-1
-2
-1
-2
-2
-2
-2
0
0
1
1
1
1
0
0
0
0
-1
-1
-2
-3
-4
-4
-4
-4
-4
-4
-4
-5
-6
-7
-7
-7
-7
-6
-7
-6
-5
-5
-5
-5
-5
-4
-3
-3
-3
-3
-3
-3
-3
-2
-1
-1
0
0
0
0
0
0
0
0
0
0
0
-1
-2
-2
-3
-3
-3
-3
-3
-3
-3
-4
-4
-4
-4
-4
-4
-4
-4
-4
-5
-6
-7
-5
-5
-5
-6
-6
-7
-7
-7
-7
-7
-7
-7
-7
-7
-7
-7
-7
-7
-7
-7
-7
-6
-6
-5
-5
-4
-4
-4
-4
-5
-4
-5
-6
-7
-7
-6
-6
-6
-6
-6
-5
-5
-4
-4
-4
-4
-4
-5
-4
-2
-2
0
0
1
1
1
1
1
1
2
2
3
3
3
3
4
4
5
6
5
5
4
3
2
2
3
2
3
4
5
5
5
5
5
7
9
12
14
15
18
25
43
65
95
122
153
179
198
208
205
195
178
162
139
98
44
-10
-48
-63
-64
-54
-43
-34
-29
-25
-23
-22
-22
-22
-23
-23
-23
-25
-26
-28
-31
-32
-33
-33
-34
-34
-35
-37
-37
-38
-39
-41
-42
-44
-44
-45
-47
-47
-48
-49
-50
-50
-50
-52
-53
-54
-55
-57
-57
-57
-58
-59
-60
-62
-63
-64
-66
-68
-70
-71
-74
-76
-78
-80
-81
-83
-84
-87
-89
-91
-93
-93
-94
-94
-94
-93
-95
-96
-95
-96
-94
-93
-90
-90
-88
-86
-85
-82
-81
-78
-76
-72
-69
-65
-60
-56
-52
-49
-45
-42
-37
-33
-29
-24
-20
-17
-14
-11
-9
-6
-4
-2
-1
0
1
2
2
3
4
5
6
7
8
9
10
11
12
13
13
14
14
13
13
13
13
12
12
12
12
10
9
7
7
6
6
6
6
5
4
3
4
3
3
3
3
2
2
2
1
1
1
1
1
2
2
4
5
6
6
7
8
8
9
9
9
10
10
10
10
10
10
10
10
12
12
13
15
15
16
17
18
19
19
19
20
20
20
21
20
18
16
15
14
12
12
11
12
11
11
12
11
11
11
12
12
13
14
14
15
14
15
14
15
14
14
14
12
12
12
13
13
14
14
13
13
13
14
14
15
16
17
18
18
19
18
17
16
16
15
14
13
12
11
10
10
9
9
8
8
7
7
6
5
3
3
2
2
2
2
1
1
1
1
1
2
2
2
2
2
2
2
2
2
2
3
1
1
0
0
-1
-1
0
0
0
0
0
0
0
0
0
0
0
0
0
-1
-1
-1
-1
-2
-2
-2
-2
-2
-2
-2
-2
-2
-1
-1
0
0
0
1
1
1
1
1
1
0
0
0
0
1
1
2
3
5
6
7
7
8
8
8
8
7
8
8
9
9
9
8
9
9
8
8
8
8
7
7
7
6
6
5
5
4
4
6
5
5
6
6
5
5
5
4
4
4
5
6
7
8
9
10
10
10
10
11
11
12
14
14
15
16
17
18
19
19
19
17
17
17
16
14
12
12
11
10
8
7
6
5
5
4
4
3
3
2
1
1
0
0
-1
-1
-1
-1
-2
-3
-3
-3
-2
-2
-1
-1
-1
0
0
0
0
1
1
2
3
2
2
2
2
2
3
4
4
8
20
40
66
96
125
158
182
201
205
195
175
145
120
84
37
-18
-64
-88
-92
-84
-69
-58
-48
-42
-37
-34
-32
-31
-30
-30
-29
-29
-28
-29
-29
-29
-29
-31
-31
-33
-34
-35
-36
-37
-39
-39
-40
-40
-41
-43
-45
-46
-47
-49
-51
-52
-52
-53
-55
-56
-58
-58
-60
-60
-61
-61
-63
-65
-66
-68
-69
-71
-71
-74
-76
-78
-80
-80
-84
-85
-89
-90
-92
-93
-93
-94
-93
-93
-92
-93
-92
-92
-93
-93
-93
-91
-92
-90
-90
-88
-87
-84
-83
-81
-77
-75
-71
-68
-64
-61
-59
-55
-52
-48
-45
-41
-39
-35
-33
-29
-27
-24
-21
-19
-16
-15
-13
-12
-10
-9
-7
-5
-4
-2
-1
-1
-1
-1
0
0
1
1
2
2
3
4
4
5
5
6
6
6
5
5
5
4
4
3
3
2
0
0
0
-1
-2
-2
-2
-2
-3
-3
-4
-5
-5
-5
-4
-4
-4
-5
-5
-6
-5
-4
-4
-4
-4
-3
-2
-2
-1
0
1
1
1
0
0
0
1
2
3
4
3
3
3
3
3
4
4
4
4
5
6
5
7
7
7
7
6
6
6
6
6
6
7
7
7
6
5
5
7
8
8
8
7
7
6
6
5
6
6
6
7
6
6
6
6
4
4
5
6
7
9
10
9
9
8
9
9
9
10
10
12
13
13
11
10
9
7
7
6
6
6
6
5
6
6
4
4
4
4
4
4
5
4
4
3
2
1
1
1
1
1
0
0
0
-1
-2
-2
-3
-4
-5
-6
-6
-7
-7
-7
-7
-6
-5
-5
-5
-5
-5
-4
-4
-4
-4
-4
-5
-5
-6
-6
-6
-5
-4
-4
-4
-2
-3
-3
-2
-1
-1
-1
0
-1
-1
0
0
1
1
1
0
0
0
0
0
-1
0
0
0
0
0
1
2
3
3
4
2
2
1
0
0
0
1
2
2
3
3
2
2
2
3
3
3
5
5
5
5
6
6
7
8
8
8
8
8
8
9
9
9
9
10
10
9
10
9
9
10
10
9
9
9
8
8
7
8
8
8
9
8
8
8
8
8
9
10
8
8
7
7
6
7
7
7
8
6
6
5
5
4
4
5
3
3
2
2
1
1
1
0
1
0
0
0
0
-1
-2
-2
-2
-2
-3
-4
-6
-6
-6
-6
-7
-7
-7
-7
-7
-7
-7
-6
-5
-4
-3
-4
-6
-9
-14
-18
-22
-24
-23
-19
-7
8
33
62
98
135
167
191
195
186
165
142
118
90
56
15
-24
-50
-62
-59
-51
-43
-38
-36
-35
-34
-34
-35
-35
-35
-34
-34
-33
-33
-33
-33
-34
-34
-36
-36
-36
-37
-37
-38
-38
-39
-39
-40
-40
-41
-42
-43
-44
-44
-45
-44
-45
-46
-46
-48
-49
-50
-52
-53
-55
-56
-57
-59
-62
-63
-65
-67
-69
-70
-72
-74
-76
-78
-80
-82
-83
-84
-86
-86
-87
-86
-87
-86
-86
-86
-87
-87
-87
-87
-85
-85
-83
-82
-82
-80
-79
-78
-78
-75
-73
-70
-66
-64
-60
-57
-55
-52
-48
-45
-42
-38
-35
-31
-29
-26
-23
-19
-15
-11
-8
-6
-4
-3
-1
0
2
4
4
5
6
7
7
8
9
9
10
11
10
10
10
11
11
11
12
11
11
9
9
9
9
8
8
7
5
4
3
1
0
0
0
0
0
0
0
0
1
2
1
0
0
0
0
-1
-1
0
0
1
3
3
4
5
5
6
6
7
7
7
6
7
7
6
6
5
5
4
4
5
5
4
3
3
2
1
0
0
0
0
0
-1
-2
-2
-1
-2
-2
-3
-3
-3
-4
-3
-4
-4
-4
-4
-3
-2
-1
-1
-1
-1
0
0
1
2
3
4
3
3
2
2
2
1
2
1
1
0
1
1
1
1
1
1
3
4
4
4
3
3
4
3
3
3
3
2
3
4
4
3
3
3
3
4
3
4
4
4
4
4
3
3
3
3
3
3
3
2
2
2
1
2
2
2
2
2
2
0
-1
-3
-5
-6
-8
-9
-10
-10
-10
-10
-10
-9
-9
-8
-7
-7
-7
-7
-6
-5
-4
-3
-4
-4
-5
-5
-4
-4
-3
-3
-3
-3
-3
-3
-3
-3
-3
-3
-3
-3
-2
-1
0
0
1
1
1
1
0
0
0
0
-1
-1
-1
0
0
1
1
2
3
4
6
7
9
11
13
13
14
15
16
17
19
21
20
21
21
21
19
20
21
21
22
21
23
23
23
23
23
24
24
24
23
23
23
23
24
24
25
26
27
27
28
29
29
29
30
38
54
77
102
131
158
186
204
212
208
187
164
136
109
65
13
-33
-61
-68
-60
-48
-34
-25
-19
-15
-11
-9
-8
-8
-9
-10
-11
-12
-12
-13
-14
-15
-16
-17
-19
-20
-20
-22
-23
-24
-26
-28
-30
-31
-34
-36
-36
-39
-41
-44
-46
-48
-50
-51
-53
-55
-57
-58
-61
-62
-64
-65
-65
-67
-67
-69
-69
-71
-72
-74
-77
-78
-80
-78
-80
-81
-83
-85
-85
-87
-87
-90
-90
-92
-93
-94
-94
-93
-93
-92
-93
-92
-91
-90
-90
-89
-89
-89
-87
-85
-82
-79
-76
-73
-70
-67
-63
-58
-55
-51
-47
-43
-39
-37
-34
-31
-29
-26
-23
-21
-19
-17
-15
-14
-13
-11
-9
-7
-5
-4
-3
-2
-2
0
0
1
1
1
2
2
3
4
5
5
4
3
1
1
1
1
2
1
1
0
0
-1
-2
-3
-3
-4
-4
-6
-7
-9
-11
-12
-13
-13
-14
-12
-11
-11
-11
-11
-12
-12
-12
-11
-12
-12
-13
-14
-14
-14
-13
-13
-12
-12
-13
-13
-14
-16
-16
-17
-18
-19
-19
-19
-19
-19
-18
-18
-17
-16
-15
-15
-14
-14
-14
-13
-14
-15
-16
-17
-16
-16
-15
-15
-14
-14
-13
-12
-11
-10
-9
-8
-6
-5
-3
3
16
38
65
94
125
156
181
196
201
191
173
142
111
70
20
-34
-77
-98
-99
-89
-74
-60
-49
-43
-39
-35
-33
-32
-31
-29
-29
-29
-30
-31
-31
-31
-31
-32
-32
-33
-33
-33
-33
-33
-34
-35
-36
-35
-35
-36
-36
-37
-36
-37
-39
-40
-41
-41
-43
-43
-45
-46
-48
-49
-50
-52
-54
-56
-58
-60
-59
-60
-60
-60
-60
-60
-62
-62
-63
-64
-66
-69
-70
-73
-73
-75
-75
-76
-77
-76
-76
-74
-74
-73
-73
-72
-69
-66
-64
-61
-58
-56
-53
-49
-44
-41
-37
-34
-30
-26
-21
-17
-14
-10
-9
-6
-4
-2
0
2
5
6
8
9
11
13
15
16
17
18
18
19
18
18
18
19
19
18
17
17
16
17
18
19
19
18
17
17
16
17
17
17
16
16
15
15
15
14
14
13
13
12
12
12
12
13
13
13
13
14
14
15
16
15
15
15
15
14
14
14
13
12
11
11
11
12
11
10
10
9
9
8
8
7
7
6
6
6
5
5
5
5
6
6
6
6
6
6
6
6
6
5
4
4
4
5
6
8
9
9
9
8
8
8
8
7
8
8
8
7
7
7
5
5
4
5
6
6
7
7
7
6
5
4
4
4
3
4
4
5
6
6
6
7
8
7
8
7
7
7
7
8
7
8
7
8
8
8
8
8
7
6
5
4
3
1
1
0
0
0
-1
-2
-2
-2
-2
-2
-2
-1
-1
-2
-1
-1
-1
0
0
-1
-1
-1
-1
-1
-1
-1
-1
-1
-2
-2
-3
-4
-5
-5
-5
-5
-6
-6
-7
-6
-5
-3
-2
0
0
0
0
1
2
3
3
3
6
16
34
59
85
116
142
169
181
185
177
156
134
108
75
27
-25
-62
-81
-80
-68
-56
-43
-36
-30
-27
-24
-22
-22
-23
-23
-22
-23
-23
-25
-26
-28
-28
-29
-30
-31
-32
-32
-31
-31
-30
-29
-29
-28
-27
-27
-27
-27
-28
-29
-29
-29
-28
-28
-29
-30
-32
-34
-35
-36
-36
-37
-37
-39
-40
-42
-43
-44
-46
-47
-49
-50
-53
-54
-55
-58
-59
-62
-62
-64
-64
-64
-65
-63
-63
-62
-63
-62
-61
-60
-58
-58
-55
-54
-51
-50
-48
-46
-43
-41
-38
-35
-32
-29
-26
-23
-20
-16
-13
-10
-7
-4
0
2
6
9
13
15
18
19
20
21
22
24
24
27
29
31
32
32
33
32
33
33
35
35
36
38
37
37
37
38
37
36
36
36
36
35
35
33
33
32
32
31
29
28
26
26
25
25
25
25
25
25
27
27
28
28
28
28
27
26
24
23
21
20
19
18
17
17
17
16
17
15
15
15
15
15
15
16
16
18
18
18
17
17
17
17
17
16
16
15
15
16
17
19
18
18
17
17
16
15
16
14
14
13
13
13
13
13
12
11
10
10
10
10
9
9
9
8
8
9
9
9
9
9
8
8
8
9
10
11
12
11
11
12
12
12
12
11
11
11
11
11
11
11
12
13
12
11
11
11
11
12
14
13
13
12
12
12
12
12
11
12
11
11
11
11
11
12
13
12
12
11
11
11
11
12
12
12
11
11
10
10
11
10
10
11
11
10
9
8
8
8
7
8
8
9
9
10
10
10
10
10
10
9
10
10
10
10
10
10
10
11
10
10
10
9
10
10
10
10
11
10
11
11
11
11
11
12
11
12
11
11
11
12
14
13
14
14
14
14
14
14
15
15
16
16
16
17
17
18
18
18
18
17
17
16
16
15
14
15
15
15
15
16
16
16
16
15
15
15
15
15
15
14
14
13
12
12
13
14
15
16
17
18
19
19
20
20
20
19
19
19
20
20
20
21
20
21
22
22
22
23
27
37
58
81
110
137
167
193
207
213
201
180
155
131
100
52
0
-42
-65
-69
-63
-52
-42
-34
-29
-25
-21
-19
-18
-17
-17
-18
-18
-18
-18
-19
-20
-20
-22
-24
-25
-26
-28
-29
-31
-32
-32
-33
-33
-33
-35
-35
-37
-38
-39
-40
-42
-43
-45
-46
-48
-50
-52
-54
-55
-57
-57
-59
-60
-61
-63
-64
-65
-66
-67
-68
-68
-69
-69
-70
-72
-73
-75
-77
-79
-79
-81
-82
-83
-82
-84
-85
-85
-85
-84
-85
-84
-84
-83
-83
-82
-79
-79
-76
-73
-70
-70
-69
-67
-65
-62
-60
-56
-54
-50
-48
-45
-42
-39
-35
-33
-31
-29
-26
-24
-21
-18
-16
-14
-12
-10
-9
-7
-5
-2
0
1
3
4
5
6
8
8
9
8
9
8
8
8
8
9
9
9
9
8
8
8
8
7
7
6
5
4
3
2
0
-1
-2
-2
-2
-2
-2
-2
-1
-1
0
0
0
0
1
2
2
2
3
3
4
4
5
5
4
4
4
4
4
3
2
1
0
0
-1
-1
0
0
0
0
0
0
0
0
1
0
0
0
0
0
0
1
0
0
0
1
1
1
1
0
0
0
0
-1
-1
-3
-3
-3
-3
-3
-2
-3
-3
-4
-4
-5
-5
-5
-6
-6
-7
-7
-8
-9
-11
-11
-11
-11
-10
-9
-9
-10
-10
-10
-10
-10
-11
-10
-11
-11
-11
-11
-11
-10
-10
-10
-10
-9
-9
-9
-9
-10
-10
-10
-10
-9
-9
-9
-9
-9
-10
-10
-11
-12
-13
-14
-14
-15
-15
-15
-15
-15
-15
-14
-16
-17
-18
-19
-20
-20
-20
-20
-20
-21
-21
-21
-21
-21
-20
-19
-19
-19
-19
-19
-19
-18
-18
-18
-18
-18
-18
-18
-17
-15
-15
-15
-15
-15
-15
-15
-13
-13
-12
-10
-9
-8
-9
-9
-9
-10
-10
-10
-9
-9
-7
-6
-8
-8
-9
-8
-7
-7
-6
-6
-5
-5
-5
-5
-6
-7
-6
-5
-5
-5
-4
-3
-2
-2
0
-1
0
0
-1
-2
-2
-1
-1
-1
-1
-1
-1
-1
0
1
2
4
6
7
7
7
8
8
7
6
5
5
4
4
4
4
5
4
4
4
4
4
4
4
4
4
4
4
4
4
3
2
1
0
0
0
1
0
0
0
0
-1
-2
-2
-3
-2
-3
-3
-3
-2
-2
-2
-1
-1
0
0
2
3
5
7
6
8
9
11
13
14
19
31
49
71
95
120
149
169
186
188
181
165
141
120
85
39
-13
-56
-75
-78
-71
-59
-49
-42
-38
-36
-34
-33
-34
-34
-33
-33
-33
-34
-35
-35
-35
-35
-34
-34
-34
-35
-35
-35
-36
-36
-36
-36
-36
-38
-39
-39
-39
-41
-42
-42
-44
-45
-46
-48
-49
-51
-52
-53
-53
-54
-54
-55
-56
-57
-58
-58
-60
-60
-62
-63
-66
-68
-69
-70
-70
-72
-70
-72
-72
-73
-74
-74
-74
-72
-72
-69
-69
-68
-66
-66
-65
-64
-62
-62
-60
-58
-56
-54
-51
-49
-47
-44
-42
-38
-35
-31
-28
-25
-23
-20
-18
-14
-12
-9
-7
-6
-3
-2
0
1
2
4
4
5
6
8
9
11
12
13
15
15
16
16
18
18
19
21
20
20
20
21
21
21
21
20
20
20
20
19
17
15
12
9
7
5
3
2
0
0
-1
-2
-3
-4
-5
-6
-6
-7
-8
-9
-9
-9
-9
-9
-10
-10
-10
-10
-9
-9
-8
-8
-8
-7
-5
-4
-3
-2
-2
-2
-3
-3
-4
-5
-6
-7
-8
-10
-10
-11
-11
-12
-13
-12
-14
-15
-15
-15
-15
-14
-14
-13
-12
-12
-11
-10
-9
-8
-7
-6
-6
-5
-5
-5
-5
-5
-4
-4
-4
-4
-3
-2
-1
-1
-1
-1
-1
-1
-2
-1
-1
0
0
0
0
-1
-1
-2
-2
-3
-3
-3
-3
-3
-4
-4
-5
-6
-6
-6
-6
-6
-5
-4
-4
-4
-3
-3
-2
-2
-2
-1
-3
-3
-3
-3
-3
-3
-2
-3
-4
-4
-5
-6
-7
-7
-7
-8
-8
-8
-8
-8
-8
-7
-7
-8
-9
-10
-11
-11
-12
-11
-11
-11
-12
-12
-11
-10
-9
-9
-9
-9
-9
-9
-9
-9
-9
-9
-9
-9
-10
-10
-10
-9
-9
-9
-9
-10
-11
-11
-11
-12
-12
-11
-10
-9
-8
-7
-6
-5
-4
-3
-2
-1
-1
0
0
1
3
4
6
8
9
13
22
40
65
96
124
155
177
193
197
184
163
132
105
67
19
-28
-64
-76
-70
-58
-43
-33
-25
-21
-17
-15
-13
-12
-11
-10
-10
-10
-10
-10
-10
-9
-10
-9
-9
-9
-10
-11
-13
-14
-15
-16
-17
-18
-19
-20
-20
-21
-23
-25
-26
-28
-30
-32
-33
-35
-38
-39
-40
-41
-42
-43
-45
-46
-48
-50
-50
-52
-54
-56
-57
-60
-62
-63
-65
-66
-68
-68
-70
-71
-72
-73
-73
-75
-74
-77
-77
-78
-78
-78
-80
-78
-78
-77
-77
-75
-74
-73
-70
-68
-64
-62
-58
-55
-52
-49
-46
-43
-41
-38
-35
-33
-30
-26
-23
-20
-18
-15
-13
-11
-9
-7
-5
-5
-4
-4
-2
-1
0
1
0
1
2
3
4
5
5
6
6
6
6
6
6
5
4
4
4
4
4
3
3
3
4
3
3
3
3
3
3
3
2
1
0
0
0
-1
-1
-1
-2
-3
-4
-4
-4
-4
-3
-2
-1
0
0
0
0
1
1
1
1
2
2
2
3
2
2
1
1
1
2
1
1
1
0
0
0
0
0
1
3
3
3
3
3
3
3
5
5
5
4
5
4
5
4
4
4
4
4
3
3
2
2
2
2
2
2
1
0
0
-1
-1
-2
-2
-2
-3
-2
-3
-3
-3
-4
-5
-5
-6
-6
-6
-7
-7
-6
-7
-7
-8
-8
-8
-8
-8
-7
-7
-6
-5
-6
-6
-6
-6
-6
-6
-6
-6
-5
-6
-7
-6
1
16
41
70
99
130
155
178
185
186
173
149
124
93
58
7
-43
-78
-97
-95
-84
-69
-56
-48
-42
-39
-36
-35
-34
-33
-34
-33
-32
-32
-32
-32
-32
-33
-33
-33
-34
-35
-36
-37
-38
-39
-40
-41
-41
-42
-43
-43
-44
-44
-45
-45
-45
-47
-47
-48
-49
-50
-49
-50
-52
-52
-53
-53
-54
-55
-56
-56
-57
-58
-59
-61
-62
-63
-65
-66
-68
-69
-72
-72
-75
-75
-78
-79
-79
-80
-80
-83
-83
-85
-85
-85
-84
-81
-80
-77
-76
-73
-70
-67
-63
-59
-54
-50
-45
-42
-37
-32
-28
-23
-19
-16
-13
-10
-7
-4
-1
0
2
5
7
9
11
12
13
14
17
17
19
20
22
22
23
24
23
22
21
20
18
17
16
14
13
12
12
10
10
9
9
9
8
8
8
8
8
7
6
4
4
3
3
2
3
3
2
3
3
4
4
4
5
6
7
8
9
9
10
10
12
13
15
17
21
32
51
78
107
141
172
200
217
222
218
204
184
154
114
57
-5
-59
-86
-94
-87
-72
-57
-47
-40
-35
-30
-28
-27
-27
-27
-26
-26
-24
-24
-24
-24
-25
-26
-26
-26
-27
-27
-28
-29
-29
-30
-31
-33
-34
-36
-37
-38
-40
-41
-43
-43
-46
-46
-47
-47
-48
-50
-51
-53
-55
-56
-57
-57
-58
-59
-60
-61
-63
-63
-64
-65
-66
-66
-67
-69
-71
-72
-73
-74
-75
-76
-77
-76
-76
-76
-76
-75
-74
-74
-72
-70
-68
-66
-64
-60
-56
-52
-48
-44
-41
-37
-33
-28
-26
-22
-19
-16
-13
-10
-7
-5
-2
0
1
2
4
5
6
7
8
9
10
12
14
15
16
17
17
18
17
17
19
18
19
19
19
19
19
20
20
21
21
22
23
23
24
23
24
23
23
23
23
22
21
22
21
21
20
21
20
20
20
18
18
17
17
17
19
19
20
21
20
22
22
23
23
24
25
25
26
26
27
27
28
30
30
31
31
32
32
33
32
33
32
32
32
32
32
32
32
32
31
30
28
26
25
25
23
23
22
22
22
23
25
26
28
29
30
30
30
29
28
27
25
24
22
22
21
21
21
18
18
17
16
15
15
15
14
14
13
12
11
10
10
9
8
7
7
7
7
7
8
9
8
9
9
9
8
7
7
6
6
6
6
6
8
9
9
9
9
9
8
8
8
9
8
8
8
8
7
7
7
6
5
3
2
1
0
0
-1
-2
-3
-4
-5
-6
-8
-9
-10
-11
-12
-12
-12
-11
-10
-9
-9
-8
-8
-6
-5
-4
-2
-3
-2
-2
-1
-1
-1
-1
-1
-1
-1
-1
-1
-1
-1
0
0
0
-1
-2
-3
-4
-2
-2
-3
-3
-4
-4
-4
-4
-4
-4
-4
-4
-3
-3
-2
-2
-2
-2
-2
-2
-1
-1
0
0
0
0
0
0
0
1
2
2
2
3
4
4
5
6
6
6
6
6
7
7
8
9
10
10
10
9
8
7
6
6
6
6
5
5
4
5
5
5
7
7
8
8
8
8
8
8
7
8
7
7
6
6
6
5
5
5
6
6
7
8
9
11
12
13
14
20
33
54
79
104
132
158
178
187
187
172
153
128
103
62
11
-40
-72
-83
-79
-68
-55
-46
-40
-38
-35
-33
-32
-31
-30
-30
-30
-30
-30
-32
-32
-33
-34
-36
-36
-37
-38
-39
-41
-42
-43
-43
-45
-45
-45
-45
-44
-45
-45
-46
-47
-48
-48
-48
-48
-47
-48
-47
-47
-46
-47
-47
-47
-47
-47
-48
-48
-49
-50
-52
-53
-54
-56
-57
-58
-59
-61
-62
-63
-64
-64
-66
-66
-67
-67
-68
-67
-66
-66
-63
-62
-61
-60
-58
-57
-55
-52
-50
-46
-43
-39
-37
-34
-31
-28
-25
-21
-18
-14
-9
-6
-1
2
5
8
12
16
19
22
24
26
26
28
29
30
31
32
32
34
35
35
36
37
38
38
37
37
36
36
35
34
33
32
32
30
30
27
25
23
22
21
21
22
22
22
21
20
18
17
15
14
13
11
9
8
7
6
5
5
3
3
3
3
3
3
4
3
2
2
2
2
2
2
2
2
1
2
2
3
2
3
3
2
1
1
1
1
2
2
1
1
1
0
0
1
0
0
-1
-1
-1
-1
-1
-1
-1
-3
-4
-5
-5
-5
-4
-4
-4
-4
-4
-3
-3
-3
-1
-1
0
-1
-1
-1
-1
-1
-1
0
-1
-1
-2
-2
-3
-4
-4
-4
-3
-2
0
0
2
2
1
1
1
1
0
0
1
0
1
1
0
0
0
0
0
1
1
3
3
3
3
4
4
5
6
7
8
7
7
7
6
6
5
4
4
3
2
1
1
1
1
1
0
0
-1
-2
-4
-5
-5
-5
-5
-3
-3
-3
-4
-3
-3
-3
-2
-2
-1
-1
0
0
0
0
1
3
3
4
3
3
3
3
4
3
3
3
3
2
1
1
1
1
2
3
4
6
7
8
10
18
35
61
91
122
154
180
201
207
202
181
150
123
89
46
-9
-53
-79
-85
-77
-62
-48
-36
-29
-22
-18
-15
-12
-11
-11
-10
-9
-9
-9
-9
-9
-9
-10
-11
-11
-13
-15
-15
-17
-17
-18
-19
-20
-21
-22
-24
-25
-26
-26
-27
-28
-28
-28
-28
-28
-29
-30
-31
-32
-34
-34
-37
-37
-36
-38
-41
-43
-44
-47
-48
-51
-53
-55
-57
-59
-61
-63
-65
-65
-66
-67
-68
-70
-71
-73
-74
-75
-75
-76
-75
-75
-76
-74
-73
-72
-70
-68
-66
-64
-62
-60
-56
-53
-51
-48
-46
-44
-41
-38
-35
-33
-30
-26
-23
-20
-16
-14
-11
-9
-6
-4
-2
0
0
1
2
3
5
5
5
6
5
6
6
7
8
7
7
7
7
7
8
8
8
7
6
6
5
5
5
5
4
3
1
0
-1
-1
-1
-2
-2
-3
-4
-5
-6
-5
-6
-6
-6
-6
-7
-7
-7
-7
-6
-5
-5
-5
-6
-6
-7
-8
-9
-10
-11
-11
-11
-11
-11
-11
-12
-13
-13
-13
-13
-11
-13
-13
-13
-13
-13
-13
-12
-13
-13
-14
-15
-15
-15
-15
-14
-13
-12
-12
-10
-10
-9
-8
-8
-8
-9
-9
-9
-9
-9
-9
-10
-11
-11
-11
-11
-11
-11
-11
-10
-10
-9
-9
-8
-8
-7
-8
-8
-9
-9
-9
-8
-8
-9
-9
-9
-8
-8
-8
-8
-9
-9
-10
-10
-11
-12
-14
-14
-14
-15
-14
-13
-13
-12
-11
-9
-10
-10
-10
-9
-10
-10
-10
-12
-12
-11
-10
-10
-10
-11
-11
-11
-10
-9
-8
-8
-8
-9
-9
-10
-11
-11
-11
-11
-11
-11
-11
-10
-10
-10
-9
-8
-7
-7
-7
-3
8
27
55
84
118
145
169
181
183
171
148
121
92
54
5
-46
-81
-94
-89
-77
-61
-47
-38
-32
-27
-23
-21
-19
-19
-18
-18
-18
-18
-18
-17
-18
-19
-19
-20
-21
-23
-23
-25
-25
-25
-24
-23
-23
-23
-24
-24
-25
-25
-25
-26
-26
-27
-27
-28
-28
-29
-29
-29
-29
-29
-30
-31
-33
-34
-35
-36
-37
-39
-40
-42
-44
-47
-49
-52
-54
-55
-56
-57
-59
-60
-62
-63
-65
-68
-68
-69
-69
-69
-68
-70
-70
-69
-69
-68
-67
-65
-64
-63
-61
-60
-56
-54
-51
-49
-45
-43
-39
-35
-32
-28
-25
-20
-16
-13
-10
-8
-5
-2
-1
0
3
4
6
8
9
10
12
12
14
16
16
17
17
18
17
18
17
18
18
17
17
15
15
15
15
15
15
14
14
13
13
12
11
11
11
12
13
12
13
13
13
11
10
11
9
9
9
9
8
8
8
8
9
8
9
9
10
10
11
11
11
10
10
10
9
8
7
5
4
4
4
3
2
1
1
1
1
2
2
3
3
4
5
6
6
6
7
7
7
7
8
9
10
10
10
11
11
12
12
12
12
11
12
12
13
13
13
14
15
15
16
17
17
18
18
18
17
17
17
16
16
15
15
14
13
13
12
11
10
10
10
10
10
12
12
11
9
9
9
8
8
8
8
8
8
9
9
9
10
11
10
11
11
11
11
11
12
11
10
9
8
8
9
10
10
11
11
14
23
39
66
91
122
149
174
191
197
191
169
138
106
72
27
-26
-72
-99
-107
-97
-83
-66
-54
-45
-39
-35
-32
-31
-29
-29
-29
-28
-27
-28
-28
-29
-29
-30
-31
-31
-32
-32
-33
-33
-34
-35
-36
-37
-37
-38
-37
-36
-36
-36
-36
-37
-37
-37
-38
-38
-39
-40
-41
-43
-43
-44
-44
-45
-46
-47
-49
-49
-51
-52
-53
-55
-56
-58
-60
-63
-64
-67
-69
-70
-70
-72
-73
-74
-76
-76
-77
-76
-77
-77
-75
-74
-71
-71
-68
-67
-65
-64
-62
-59
-57
-53
-50
-45
-41
-37
-33
-29
-25
-21
-17
-13
-10
-6
-3
0
2
4
6
9
11
13
14
16
17
19
19
20
20
20
21
21
22
22
23
24
25
25
25
26
26
28
28
28
28
28
28
28
29
28
28
27
27
26
27
27
26
26
25
25
24
24
24
23
22
21
20
18
17
16
15
16
16
16
16
16
15
15
15
14
14
14
14
14
15
16
16
16
16
16
16
17
17
17
18
19
19
20
22
24
35
54
80
108
136
166
189
204
207
203
186
167
140
104
48
-11
-58
-80
-81
-70
-55
-42
-34
-28
-24
-21
-19
-19
-19
-20
-20
-20
-21
-21
-21
-22
-23
-23
-24
-24
-23
-24
-24
-26
-26
-29
-31
-32
-33
-33
-35
-35
-37
-38
-41
-42
-43
-45
-46
-47
-48
-50
-51
-53
-55
-57
-60
-62
-66
-68
-70
-72
-73
-74
-74
-75
-74
-76
-77
-78
-78
-78
-78
-78
-79
-78
-78
-78
-77
-76
-76
-75
-73
-71
-69
-67
-63
-61
-58
-54
-50
-46
-42
-39
-35
-32
-28
-25
-21
-17
-14
-11
-8
-6
-4
-3
-2
0
1
3
5
7
9
11
12
13
14
16
16
17
17
16
16
15
15
15
14
14
14
14
14
15
13
13
12
11
10
10
10
9
8
8
7
6
6
5
5
5
5
6
6
6
7
8
10
10
12
12
13
13
14
16
16
17
18
19
19
20
20
20
21
22
22
22
22
22
22
23
24
25
26
28
27
28
29
29
28
28
28
27
28
27
26
25
24
24
23
23
23
23
23
23
22
22
22
22
22
22
22
22
22
22
23
25
24
26
26
27
27
28
29
29
30
31
32
32
33
32
32
38
50
73
96
126
153
180
201
210
209
193
171
144
113
69
10
-40
-69
-79
-71
-58
-44
-33
-27
-22
-19
-17
-15
-15
-15
-16
-16
-17
-17
-18
-19
-20
-21
-22
-23
-24
-24
-24
-25
-25
-27
-29
-30
-31
-33
-34
-35
-36
-38
-40
-42
-44
-46
-48
-50
-53
-55
-57
-59
-62
-64
-65
-67
-68
-69
-71
-71
-73
-74
-75
-76
-77
-79
-79
-81
-81
-81
-80
-80
-81
-79
-79
-76
-76
-72
-71
-70
-68
-67
-64
-62
-58
-56
-53
-50
-47
-43
-40
-36
-32
-28
-24
-20
-16
-12
-8
-5
-1
1
4
8
10
13
16
18
21
22
23
24
25
27
28
29
30
30
30
29
30
30
32
31
31
30
30
30
30
31
31
31
30
30
29
28
27
26
26
25
25
24
24
22
22
22
20
20
19
18
17
15
15
13
13
13
13
13
12
11
9
8
6
5
4
3
1
1
0
0
0
0
0
1
1
1
1
1
1
2
3
4
4
4
3
3
4
4
5
6
7
6
7
7
7
7
7
8
7
7
6
6
5
4
5
4
4
3
2
2
2
1
1
0
0
1
1
1
1
2
3
4
6
11
25
45
75
103
134
161
181
195
193
184
158
130
99
55
3
-50
-85
-96
-93
-79
-64
-52
-44
-39
-35
-32
-31
-31
-30
-30
-30
-29
-29
-29
-30
-31
-31
-32
-33
-33
-33
-33
-32
-32
-33
-34
-35
-36
-36
-38
-38
-39
-40
-40
-41
-42
-43
-45
-46
-47
-48
-50
-51
-53
-55
-56
-59
-59
-62
-63
-65
-68
-70
-72
-73
-74
-74
-76
-76
-77
-78
-78
-79
-78
-79
-77
-79
-79
-79
-79
-78
-77
-75
-75
-73
-72
-69
-67
-64
-61
-59
-55
-53
-48
-44
-41
-38
-34
-31
-28
-24
-21
-18
-15
-11
-9
-7
-5
-2
0
2
5
7
10
12
14
15
17
18
20
22
22
23
23
24
23
23
24
23
24
24
25
25
27
28
28
29
28
29
28
28
26
25
24
23
23
22
22
22
22
22
21
21
20
20
19
20
19
19
19
20
21
21
22
21
21
20
20
19
18
18
17
18
16
16
16
16
16
17
18
16
15
14
14
13
13
13
12
12
11
10
10
11
12
12
13
13
13
14
15
15
16
17
16
16
15
15
14
14
14
12
12
10
10
10
11
10
9
8
6
5
4
3
2
2
3
3
3
3
3
3
4
5
6
6
7
7
7
8
8
8
7
7
7
7
7
6
7
6
6
5
5
4
4
4
3
4
4
4
4
3
4
2
2
1
1
0
0
-1
-2
-3
-3
-4
-5
-5
-6
-6
-6
-7
-8
-9
-10
-11
-11
-12
-15
-18
-19
-20
-20
-20
-19
-19
-19
-20
-21
-21
-21
-22
-22
-22
-22
-22
-23
-23
-23
-21
-20
-19
-18
-17
-17
-16
-15
-15
-14
-13
-11
-11
-10
-10
-9
-8
-9
-10
-10
-10
-11
-11
-11
-12
-12
-12
-13
-13
-13
-12
-13
-13
-13
-13
-12
-12
-11
-12
-12
-12
-12
-12
-12
-11
-11
-9
-8
-6
-5
-4
-3
-1
0
0
0
0
0
-1
-2
-3
-4
-5
-5
-5
-6
-6
-7
-8
-8
-9
-9
-9
-8
-7
-6
-7
-8
-8
-8
-8
-7
-7
-7
-7
-7
-6
-6
-6
-5
-5
-4
-5
-5
-4
-5
-5
-5
-4
-5
-4
-4
-4
-5
-5
-5
-6
-7
-7
-8
-8
-8
-7
-8
-8
-9
-10
-11
-12
-12
-12
-12
-12
-12
-12
-12
-12
-12
-12
-12
-12
-11
-11
-11
-11
-11
-12
-13
-13
-14
-13
-13
-13
-13
-14
-13
-12
-12
-12
-11
-9
-8
-6
-2
0
5
13
30
51
77
104
131
157
177
188
175
131
60
-22
-92
-132
-143
-132
-111
-89
-71
-56
-46
-39
-35
-33
-33
-33
-33
-34
-34
-34
-34
-35
-36
-37
-38
-38
-39
-38
-39
-39
-38
-38
-37
-36
-36
-35
-34
-35
-35
-35
-35
-33
-33
-33
-33
-33
-32
-33
-34
-35
-36
-37
-39
-40
-40
-40
-41
-41
-42
-44
-46
-47
-48
-48
-48
-49
-50
-51
-51
-52
-53
-53
-52
-53
-53
-52
-52
-51
-50
-48
-49
-49
-49
-49
-48
-47
-45
-43
-40
-38
-35
-32
-29
-27
-24
-21
-20
-19
-18
-16
-13
-10
-6
-4
-3
-1
0
1
3
5
8
10
13
15
17
18
20
22
24
26
27
28
29
30
31
31
32
31
32
31
31
30
29
29
27
26
24
23
22
22
22
20
19
18
17
16
15
14
12
12
11
11
12
12
13
13
12
10
9
8
6
6
5
4
4
4
3
3
1
0
0
-1
-1
-1
-2
-3
-4
-5
-6
-7
-8
-9
-9
-9
-8
-8
-8
-9
-9
-9
-9
-8
-8
-7
-7
-7
-7
-8
-9
-9
-9
-10
-10
-10
-9
-9
-7
-8
-6
-5
-4
-3
-2
-3
-3
-4
-5
-5
-6
-6
-7
-7
-6
-7
-6
-6
-5
-6
-6
-5
-6
-6
-6
-6
-6
-6
-5
-6
-6
-6
-6
-7
-7
-7
-8
-8
-9
-9
-9
-10
-11
-11
-11
-12
-12
-12
-12
-11
-10
-9
-9
-9
-9
-8
-8
-8
-8
-8
-8
-7
-6
-5
-4
-5
-5
-5
-6
-5
-5
-5
-5
-5
-6
-7
-8
-8
-9
-9
-10
-10
-10
-11
-11
-11
-11
-10
-9
-8
-9
-9
-10
-11
-11
-11
-11
-12
-12
-12
-11
-10
-9
-7
-7
-7
-7
-6
-5
-3
-1
0
0
1
5
19
39
66
98
127
156
175
184
181
162
139
110
81
35
-16
-60
-85
-89
-80
-67
-55
-47
-41
-37
-34
-33
-33
-32
-31
-31
-31
-31
-31
-31
-32
-32
-33
-33
-33
-33
-33
-34
-35
-36
-37
-36
-36
-37
-38
-39
-41
-42
-43
-44
-45
-46
-47
-48
-49
-49
-51
-51
-53
-53
-55
-57
-58
-60
-60
-63
-63
-66
-66
-68
-70
-72
-74
-75
-78
-79
-81
-81
-81
-83
-83
-85
-85
-86
-85
-85
-85
-85
-84
-83
-82
-79
-78
-75
-72
-69
-66
-63
-60
-58
-55
-52
-48
-44
-40
-37
-33
-29
-25
-22
-19
-16
-14
-12
-10
-9
-8
-6
-3
-2
0
1
2
3
4
4
5
6
7
7
8
8
9
10
11
10
10
10
10
10
11
11
11
12
12
12
12
13
13
14
13
12
11
10
8
7
7
7
8
8
9
10
11
13
15
17
17
18
18
19
19
19
19
18
17
16
16
15
15
15
14
13
12
12
12
13
15
14
15
16
17
17
17
18
18
19
19
19
17
17
15
14
13
11
10
8
7
6
6
7
6
6
5
6
6
7
8
7
7
7
7
7
7
6
5
5
5
5
5
6
6
7
7
7
7
8
8
8
9
7
8
8
9
9
9
10
9
9
8
7
6
6
5
4
3
1
1
0
0
-1
0
0
-1
-1
-1
-2
-2
-2
0
-1
-1
-1
-1
-1
0
0
1
1
2
3
3
5
5
7
9
9
10
9
9
8
8
8
8
7
6
5
3
3
2
2
1
0
0
0
0
0
0
0
-1
-1
-1
-1
-1
-1
-1
-2
-3
-2
-3
-2
-1
-1
0
-1
0
1
2
4
4
5
5
6
7
7
6
6
6
4
4
3
3
2
3
4
4
5
7
8
9
9
9
7
7
5
5
5
5
4
5
4
4
4
4
5
5
5
5
5
6
6
7
7
9
8
9
10
11
12
14
15
15
16
16
17
18
19
20
21
22
21
21
21
21
21
22
23
22
22
21
21
20
20
21
20
21
20
20
20
19
18
18
18
17
17
17
17
17
18
19
19
20
21
22
22
24
32
49
73
101
131
159
188
206
218
214
201
178
153
132
96
49
-7
-49
-70
-73
-66
-52
-41
-32
-28
-24
-21
-20
-19
-19
-20
-20
-19
-19
-18
-17
-18
-19
-19
-20
-21
-22
-23
-24
-25
-26
-28
-29
-29
-30
-29
-28
-27
-28
-28
-27
-27
-27
-27
-26
-27
-28
-30
-32
-33
-35
-36
-37
-37
-39
-40
-39
-40
-42
-44
-45
-48
-50
-52
-53
-55
-57
-57
-60
-61
-62
-63
-64
-66
-66
-66
-65
-66
-65
-65
-65
-64
-64
-62
-62
-61
-60
-60
-58
-57
-54
-51
-47
-44
-40
-36
-31
-28
-25
-21
-17
-13
-9
-6
-3
0
1
4
6
9
13
16
21
22
24
25
26
27
28
30
30
30
30
31
30
31
31
31
31
29
28
27
26
24
23
23
22
22
20
19
16
15
15
14
14
14
14
13
13
12
12
11
11
10
10
8
7
6
4
3
1
0
0
1
1
0
0
-1
-1
-1
0
0
0
1
1
1
0
0
0
1
2
1
1
1
0
0
-1
-2
-4
-5
-6
-6
-7
-7
-5
-4
-2
-1
-1
-1
-1
-1
-1
-1
-1
-1
-1
-1
-2
-2
-2
-3
-2
-2
-2
-2
-1
-1
-1
0
0
1
2
3
3
5
5
6
6
5
4
3
3
2
1
0
0
-1
-2
-3
-4
-5
-4
-4
-4
-3
-1
-2
-2
-2
-2
-2
-1
0
1
2
2
3
3
3
3
3
4
4
4
4
4
4
4
5
4
3
2
2
1
0
0
-2
-2
-3
-3
-3
-3
-4
-6
-6
-8
-8
-9
-8
-8
-8
-8
-8
-9
-10
-10
-10
-9
-9
-7
-6
-5
-5
-4
-3
-3
-2
-3
-3
-2
-2
-1
-1
0
-1
-1
-2
-2
-2
-1
0
0
0
1
1
2
2
5
15
35
60
90
118
149
171
187
193
184
166
139
118
89
47
-3
-51
-77
-81
-74
-58
-45
-33
-27
-22
-19
-17
-16
-16
-16
-17
-17
-18
-18
-19
-20
-21
-21
-22
-23
-23
-23
-24
-24
-25
-27
-28
-29
-30
-31
-32
-32
-33
-34
-35
-36
-37
-38
-38
-38
-38
-38
-38
-37
-37
-37
-37
-38
-40
-42
-43
-46
-48
-50
-51
-53
-56
-57
-60
-61
-64
-65
-68
-69
-71
-73
-74
-76
-76
-78
-78
-79
-79
-79
-79
-77
-77
-74
-73
-71
-69
-67
-64
-62
-59
-58
-55
-53
-49
-45
-42
-37
-34
-30
-27
-23
-19
-15
-12
-8
-4
-1
0
3
5
6
8
9
10
11
11
12
13
13
13
14
14
14
13
12
12
12
13
13
13
13
12
11
11
13
12
12
12
12
12
12
12
11
10
10
10
10
10
9
8
8
8
7
6
6
5
5
4
3
1
0
-1
-2
-2
-2
-1
-1
-1
-1
-1
-2
-2
-1
-1
0
0
1
2
3
4
4
5
6
7
7
7
8
7
8
9
9
10
9
10
9
9
9
11
12
13
13
14
14
14
13
13
13
12
11
10
8
7
6
6
5
5
7
8
8
6
5
4
4
3
3
3
3
3
2
2
1
2
2
3
4
4
4
5
5
5
6
6
6
5
5
4
3
3
3
2
2
1
0
0
-2
-3
-4
-4
-5
-6
-7
-7
-9
-9
-9
-9
-8
-7
-6
-7
-7
-8
-8
-8
-9
-7
-8
-7
-8
-8
-7
-7
-7
-7
-7
-9
-10
-11
-11
-11
-12
-12
-13
-13
-12
-11
-10
-9
-9
-8
-8
-8
-8
-8
-7
-8
-7
-8
-8
-9
-9
-9
-8
-7
-7
-7
-7
-6
-5
-4
-2
-1
0
0
1
1
1
1
1
1
1
3
4
5
5
6
6
5
4
3
3
3
3
5
4
4
5
6
6
7
7
6
6
6
6
7
8
9
10
12
12
12
12
11
11
10
10
9
9
9
10
10
11
13
13
15
17
18
20
22
23
25
26
26
26
25
24
23
23
22
23
24
24
23
23
25
24
26
26
26
27
28
29
27
27
26
25
24
23
21
20
19
18
17
16
16
14
14
14
12
12
11
11
11
11
12
11
11
11
12
13
14
14
14
15
14
14
13
13
14
15
15
16
16
16
16
16
17
16
15
15
15
15
16
16
17
23
37
60
86
115
146
176
201
213
216
202
180
157
132
96
43
-10
-52
-72
-76
-69
-57
-48
-42
-37
-33
-30
-28
-27
-27
-27
-26
-26
-25
-25
-26
-27
-29
-30
-32
-32
-33
-33
-34
-34
-37
-39
-40
-42
-43
-44
-44
-47
-48
-50
-52
-53
-56
-56
-58
-59
-61
-61
-62
-63
-63
-65
-65
-66
-67
-67
-68
-68
-68
-69
-71
-72
-74
-76
-78
-80
-82
-84
-85
-87
-88
-89
-90
-91
-93
-94
-95
-95
-95
-95
-94
-93
-92
-90
-87
-86
-83
-82
-79
-78
-76
-72
-69
-65
-62
-59
-56
-52
-47
-44
-39
-35
-30
-26
-22
-19
-16
-12
-9
-6
-3
-1
0
2
3
4
5
6
6
6
6
6
6
5
5
5
5
4
4
5
5
4
4
5
5
5
5
4
3
2
2
2
2
1
0
0
-2
-3
-5
-5
-6
-6
-6
-7
-8
-9
-9
-10
-11
-11
-11
-11
-11
-11
-13
-13
-14
-15
-14
-14
-14
-14
-13
-12
-11
-10
-9
-9
-8
-8
-7
-7
-6
-5
-2
6
22
45
70
99
128
151
167
170
171
163
150
129
91
40
-21
-67
-88
-93
-82
-69
-59
-51
-47
-43
-41
-38
-37
-37
-37
-36
-37
-38
-38
-39
-39
-40
-41
-42
-42
-42
-44
-45
-45
-47
-48
-50
-51
-53
-53
-54
-54
-55
-55
-57
-59
-60
-63
-65
-67
-67
-69
-70
-70
-71
-70
-71
-71
-73
-73
-74
-75
-74
-75
-73
-75
-75
-77
-78
-78
-80
-81
-83
-83
-85
-85
-86
-86
-86
-86
-86
-86
-85
-85
-82
-81
-80
-78
-76
-74
-72
-68
-65
-62
-58
-55
-53
-51
-48
-45
-41
-38
-34
-31
-27
-23
-18
-14
-11
-8
-5
-3
-2
-1
0
1
1
1
3
2
1
0
0
-1
-1
0
0
0
0
0
0
-1
-2
-3
-3
-4
-4
-4
-5
-5
-6
-5
-5
-4
-4
-3
-3
-2
-1
0
1
2
2
3
4
5
6
7
9
12
14
16
17
18
18
19
20
21
22
22
23
23
23
22
22
22
22
24
23
23
23
23
23
24
24
25
26
27
28
28
28
27
28
29
29
30
29
30
30
30
31
29
29
29
29
29
31
32
32
33
31
31
30
31
31
32
31
30
30
30
30
29
30
29
29
29
28
28
28
28
27
27
26
26
26
26
27
27
28
28
30
30
29
28
27
27
26
26
24
23
21
20
21
20
20
19
18
17
16
16
15
15
13
11
9
8
7
6
7
6
7
6
6
6
6
7
5
4
4
4
3
4
5
5
5
5
4
3
3
3
3
3
3
2
1
1
1
3
3
3
4
5
6
6
6
6
7
9
10
9
8
7
6
6
6
6
6
7
7
7
7
7
6
7
6
5
5
6
7
9
9
10
10
11
13
13
14
15
15
15
15
16
17
18
18
19
18
17
16
15
15
15
15
15
13
12
13
14
14
14
14
13
12
11
10
10
10
10
11
11
11
12
14
14
15
15
15
14
14
14
13
14
14
15
17
18
20
20
22
22
22
22
21
21
21
22
20
19
19
18
18
19
19
18
18
16
14
14
13
14
12
11
10
8
7
6
7
6
7
5
5
4
3
2
2
3
4
5
5
6
6
7
8
8
8
8
8
8
9
11
12
13
13
16
26
47
77
111
148
186
223
253
271
275
268
247
231
210
180
127
65
6
-36
-58
-64
-58
-48
-40
-34
-31
-30
-29
-29
-29
-28
-27
-27
-27
-27
-28
-27
-26
-26
-25
-25
-25
-25
-27
-29
-31
-32
-31
-33
-33
-33
-34
-36
-39
-40
-42
-42
-42
-43
-44
-47
-48
-51
-53
-55
-56
-57
-58
-60
-61
-62
-64
-64
-65
-67
-68
-70
-70
-71
-71
-73
-74
-76
-79
-81
-83
-85
-87
-86
-86
-85
-84
-83
-83
-85
-86
-86
-85
-84
-82
-82
-84
-83
-83
-80
-80
-78
-78
-78
-77
-76
-74
-73
-71
-68
-65
-63
-60
-55
-52
-48
-44
-40
-38
-35
-31
-28
-23
-19
-14
-12
-10
-10
-8
-7
-6
-4
-2
1
4
7
8
9
11
15
17
18
18
18
19
21
24
25
26
25
26
25
25
24
24
24
23
23
22
22
22
20
18
15
14
12
11
8
6
5
2
2
1
1
2
0
0
-3
-4
-5
-5
-5
-6
-6
-6
-7
-8
-8
-8
-9
-11
-11
-9
-8
-7
-7
-7
-6
-5
-4
-6
-8
-10
-12
-13
-13
-11
-10
-10
-12
-13
-13
-12
-10
-7
-6
-7
-7
-7
-5
-3
-1
0
1
1
1
1
1
2
2
2
2
3
3
4
4
3
3
3
4
5
5
4
3
3
2
3
3
3
3
1
2
0
1
1
2
1
0
0
-2
-2
-1
-1
-2
-3
-4
-3
-3
-4
-4
-4
-3
-2
0
1
2
4
6
7
6
7
7
8
8
8
7
6
5
3
2
0
0
-1
-2
-4
-6
-8
-9
-11
-13
-14
-15
-15
-16
-18
-20
-20
-19
-17
-17
-16
-16
-10
3
30
63
101
142
181
219
243
265
275
287
295
300
283
227
156
81
14
-30
-54
-58
-55
-51
-48
-45
-43
-44
-44
-45
-46
-47
-48
-48
-49
-49
-49
-48
-49
-50
-52
-53
-53
-54
-54
-56
-57
-58
-60
-61
-62
-61
-63
-63
-63
-62
-62
-61
-61
-62
-63
-64
-64
-65
-67
-68
-68
-70
-72
-73
-75
-75
-76
-77
-80
-83
-85
-87
-87
-89
-90
-90
-93
-94
-97
-96
-97
-96
-97
-97
-98
-98
-96
-96
-94
-94
-91
-90
-89
-87
-85
-80
-77
-71
-68
-65
-61
-56
-50
-46
-40
-37
-31
-27
-24
-20
-17
-15
-12
-9
-7
-6
-3
-2
0
1
3
5
6
6
7
7
8
8
9
10
10
11
11
11
11
12
12
13
12
11
10
10
11
9
8
6
6
6
6
5
5
4
5
6
6
6
5
4
4
3
3
3
3
2
1
1
0
-1
-2
-2
-1
0
0
0
-1
0
0
0
0
0
2
3
7
17
35
60
89
122
158
196
228
253
276
303
333
352
359
337
285
200
120
44
-10
-38
-46
-44
-41
-39
-37
-36
-37
-38
-39
-38
-38
-39
-39
-39
-41
-44
-46
-48
-50
-52
-52
-54
-55
-57
-58
-59
-60
-60
-60
-60
-60
-61
-61
-63
-63
-65
-64
-66
-68
-69
-71
-72
-74
-74
-76
-78
-80
-81
-82
-84
-85
-87
-88
-91
-93
-95
-98
-100
-103
-104
-106
-105
-105
-105
-105
-107
-106
-107
-103
-101
-96
-93
-89
-86
-84
-79
-76
-71
-66
-61
-56
-52
-48
-44
-40
-36
-32
-29
-24
-22
-19
-17
-14
-12
-9
-5
-4
-3
-2
-1
-1
0
0
0
0
0
0
0
0
0
0
0
0
1
2
2
3
4
5
6
6
7
8
8
9
11
13
15
16
16
15
16
16
17
17
18
18
18
19
20
20
19
19
20
22
23
23
24
22
23
22
22
22
22
23
23
24
24
25
24
24
23
23
24
23
24
24
24
24
25
26
25
26
26
27
26
26
26
26
27
28
29
29
28
25
26
26
27
27
26
25
23
23
22
21
20
19
19
20
21
21
21
21
20
19
17
16
15
15
14
14
14
14
13
12
13
11
11
11
12
14
16
18
19
21
22
22
22
21
21
20
21
21
22
23
24
24
25
26
26
26
26
26
25
25
26
25
25
23
21
19
18
19
18
19
18
18
16
15
14
15
14
14
13
12
11
10
9
7
6
6
5
6
6
6
7
8
8
8
9
9
10
8
8
7
6
5
4
2
0
-1
-2
-2
-3
-3
-4
-4
-2
-3
-3
-5
-5
-6
-5
-3
-2
-1
0
0
-1
-3
-3
-3
-1
0
1
2
5
6
7
6
6
6
7
9
9
10
11
11
11
11
13
13
15
16
18
19
20
21
21
20
16
15
14
15
17
17
15
13
12
13
15
17
19
20
20
22
22
23
22
22
21
21
21
22
23
23
22
22
22
24
25
27
27
29
30
31
31
36
49
67
91
114
144
170
195
207
213
214
209
208
200
184
145
88
34
-10
-35
-42
-39
-30
-22
-17
-14
-11
-11
-11
-11
-12
-13
-14
-15
-16
-18
-20
-22
-23
-23
-24
-25
-26
-28
-30
-31
-32
-33
-34
-34
-35
-36
-38
-40
-43
-45
-46
-46
-46
-46
-47
-50
-53
-53
-53
-52
-51
-51
-50
-51
-51
-52
-53
-53
-55
-57
-59
-62
-64
-64
-64
-62
-63
-62
-63
-63
-62
-62
-61
-61
-60
-60
-59
-60
-60
-59
-58
-55
-54
-53
-54
-54
-53
-51
-48
-46
-42
-40
-37
-35
-32
-29
-26
-22
-19
-16
-14
-12
-9
-6
-2
1
4
8
10
13
14
17
20
21
23
24
26
29
32
35
37
39
39
40
40
41
41
41
41
39
38
35
33
30
29
29
27
26
25
25
24
23
22
20
20
20
22
21
20
19
18
18
18
20
21
22
21
21
20
18
17
17
18
17
17
17
19
21
20
20
19
20
19
18
18
20
21
21
20
19
19
18
17
15
14
13
13
13
12
12
13
14
14
13
14
13
13
12
11
10
10
10
8
8
7
9
11
12
10
8
8
7
8
7
7
5
5
6
5
5
5
5
5
6
8
9
9
9
8
6
5
3
3
2
1
0
0
-1
-2
-3
-3
-3
-4
-5
-6
-7
-6
-6
-6
-6
-7
-9
-11
-12
-12
-9
-7
-5
-4
-4
-5
-6
-5
-6
-5
-5
-5
-5
-5
-4
-5
-5
-6
-7
-8
-9
-10
-14
-15
-17
-17
-17
-17
-18
-20
-20
-20
-19
-18
-18
-20
-22
-24
-26
-26
-26
-26
-25
-26
-26
-27
-25
-22
-20
-20
-20
-21
-21
-20
-18
-16
-16
-17
-16
-14
-12
-10
-10
-10
-10
-9
-7
-6
-6
-7
-8
-10
-12
-12
-12
-10
-7
-5
-6
-7
-9
-10
-9
-10
-11
-12
-11
-11
-9
-7
-7
-7
-8
-9
-7
-6
-4
-6
-8
-8
-6
-3
0
2
0
0
-3
-4
-5
-5
-4
-2
-1
0
0
-1
-1
-2
-3
-5
-6
-6
-6
-6
-7
-7
-8
-9
-7
-4
-3
-2
-3
-5
-4
-2
-2
-2
-2
-2
0
1
1
1
0
1
1
1
2
1
3
3
3
0
-1
-2
-2
-1
-1
-2
-2
-2
-1
-2
-3
-5
-5
-2
1
4
5
4
1
0
0
-1
-4
-5
2
20
46
76
108
142
180
209
235
242
234
210
178
151
111
62
1
-49
-76
-84
-79
-66
-56
-47
-43
-41
-39
-37
-36
-36
-35
-35
-34
-35
-35
-34
-32
-31
-30
-29
-30
-32
-34
-35
-37
-38
-41
-44
-47
-47
-44
-40
-36
-38
-43
-46
-49
-51
-53
-54
-55
-57
-58
-61
-61
-64
-65
-65
-65
-66
-68
-70
-72
-73
-74
-74
-77
-80
-82
-84
-84
-86
-86
-90
-91
-92
-91
-90
-92
-92
-94
-94
-96
-96
-97
-98
-97
-97
-96
-96
-95
-93
-92
-90
-88
-86
-85
-83
-81
-77
-75
-71
-67
-63
-58
-55
-52
-49
-46
-43
-38
-33
-26
-20
-16
-13
-11
-7
-6
-3
-1
1
2
5
8
10
11
13
14
15
17
19
21
22
21
20
22
26
28
30
29
28
28
27
26
24
23
22
21
21
22
21
19
19
21
23
22
20
19
18
18
17
16
15
15
14
15
15
17
19
20
19
17
15
14
15
18
18
18
16
14
12
11
12
13
13
11
9
8
7
7
8
10
9
8
7
7
5
4
4
2
1
0
0
-1
-1
-2
-4
-4
-5
-3
0
3
3
3
3
3
4
5
5
4
4
2
0
-1
-1
0
0
1
0
0
-1
-3
-5
-6
-6
-5
-3
-4
-5
-8
-9
-10
-11
-11
-11
-12
-12
-12
-12
-13
-12
-13
-13
-13
-14
-14
-13
-12
-11
-10
-10
-10
-10
-10
-10
-10
-8
-6
-4
-4
-5
-6
-7
-7
-7
-6
-6
-7
-8
-9
-8
-9
-9
-9
-9
-10
-12
-14
-15
-17
-19
-20
-20
-20
-20
-20
-19
-20
-20
-21
-22
-22
-21
-22
-22
-20
-20
-19
-19
-18
-18
-16
-16
-17
-17
-17
-18
-17
-17
-18
-19
-19
-18
-16
-14
-12
-13
-14
-14
-16
-16
-15
-13
-13
-14
-15
-15
-12
-9
-7
-8
-9
-10
-10
-10
-9
-8
-6
-5
-5
-5
-6
-5
-5
-4
-4
-4
-3
-2
-2
-2
-3
-5
-4
-2
0
-1
-2
-3
-5
-6
-7
-6
-4
-2
-1
-1
-1
0
1
3
5
5
4
4
4
5
5
5
5
5
4
4
4
3
3
3
2
1
0
0
-1
-2
-2
-2
-2
-3
-2
-1
0
0
-1
-2
-1
0
0
1
2
2
2
3
5
14
32
59
87
118
149
174
195
199
191
167
135
102
55
2
-52
-87
-98
-95
-79
-62
-51
-42
-35
-30
-26
-25
-25
-26
-26
-26
-25
-25
-25
-25
-26
-27
-27
-28
-29
-29
-30
-31
-32
-31
-30
-30
-29
-31
-31
-32
-33
-35
-36
-38
-40
-41
-43
-43
-45
-45
-48
-51
-52
-53
-51
-50
-50
-53
-55
-56
-58
-58
-61
-62
-63
-63
-64
-64
-66
-68
-68
-67
-67
-71
-72
-74
-75
-75
-76
-74
-74
-73
-73
-72
-71
-71
-70
-69
-68
-67
-64
-62
-62
-61
-60
-59
-58
-55
-52
-49
-46
-43
-40
-35
-30
-25
-21
-18
-16
-16
-14
-10
-3
0
3
4
5
8
11
15
17
19
17
16
17
18
20
20
19
17
16
16
17
17
15
13
11
10
8
9
10
10
10
8
7
5
4
4
6
8
10
10
9
7
5
3
2
1
1
1
3
4
4
2
0
0
-2
-2
0
3
6
5
3
0
-2
-2
-1
-1
-1
-2
-3
-3
-3
-2
-4
-5
-6
-5
-4
-4
-4
-4
-5
-5
-5
-4
-3
-2
-2
-1
-2
-3
-3
-4
-4
-4
-4
-4
-3
-2
-2
-1
1
3
3
1
0
0
1
2
2
2
1
0
0
0
0
0
0
0
0
0
0
1
0
1
0
0
-1
-1
-1
-1
-1
-2
-2
-3
-4
-4
-5
-7
-8
-7
-7
-5
-5
-5
-6
-7
-7
-9
-8
-7
-6
-7
-8
-8
-9
-8
-8
-8
-9
-9
-8
-6
-3
-3
-2
-3
-3
-2
-2
-2
-4
-5
-6
-5
-5
-4
-4
-6
-7
-9
-10
-10
-11
-10
-10
-10
-10
-9
-8
-6
-1
9
27
54
83
114
146
173
195
205
206
189
165
136
105
59
5
-46
-75
-85
-79
-67
-54
-45
-39
-35
-32
-28
-25
-22
-20
-20
-22
-23
-24
-27
-29
-31
-31
-31
-30
-31
-33
-34
-36
-38
-40
-41
-42
-43
-42
-43
-43
-44
-44
-45
-44
-44
-44
-44
-45
-44
-45
-46
-47
-47
-48
-50
-51
-52
-53
-54
-55
-56
-59
-61
-62
-61
-60
-58
-59
-62
-64
-64
-65
-67
-68
-70
-71
-72
-72
-74
-76
-76
-77
-76
-77
-76
-76
-76
-75
-74
-71
-70
-67
-65
-62
-60
-57
-54
-51
-47
-43
-38
-34
-30
-26
-23
-21
-18
-15
-11
-7
-5
-4
-2
0
4
9
11
13
16
18
21
22
24
24
24
23
22
21
18
17
16
18
21
23
22
19
17
15
15
13
11
10
10
10
11
12
12
13
13
13
12
11
11
10
11
11
11
9
9
9
8
7
5
4
2
1
0
1
2
3
4
4
4
3
1
0
-2
-3
-5
-6
-7
-7
-7
-8
-9
-10
-11
-12
-13
-14
-15
-17
-18
-19
-19
-19
-19
-19
-18
-18
-17
-16
-16
-16
-14
-14
-12
-9
-7
-7
-8
-9
-9
-8
-7
-7
-6
-4
-2
-3
-3
-4
-5
-5
-5
-7
-8
-8
-8
-7
-6
-5
-5
-5
-5
-6
-6
-4
-2
0
0
0
0
-1
-4
-5
-6
-6
-4
-2
0
-1
-1
-1
-1
-1
-1
-1
-2
-1
0
0
-1
-2
-3
-3
-3
-3
-3
-3
-3
-4
-4
-4
-4
-4
-4
-5
-5
-4
-4
-4
-3
-3
-3
-3
-3
-3
-3
-3
-4
-4
-3
-2
-2
-3
-4
-4
-3
-1
-1
-1
0
1
2
1
0
0
0
0
0
-1
-1
-1
-1
0
0
0
0
0
1
2
2
1
1
0
0
0
0
0
1
3
4
5
5
5
4
3
2
3
3
4
4
5
6
6
5
5
6
10
14
17
18
18
20
21
23
25
26
28
29
31
31
33
34
35
36
38
45
60
84
111
144
172
207
234
252
260
246
221
187
157
119
64
8
-37
-58
-56
-46
-31
-19
-11
-7
-3
0
2
2
2
0
0
0
0
0
2
2
1
1
0
-2
-3
-3
-3
-3
-4
-5
-7
-7
-7
-7
-8
-10
-10
-9
-8
-8
-9
-10
-12
-13
-15
-17
-18
-20
-23
-28
-33
-35
-36
-35
-34
-37
-40
-44
-45
-48
-49
-50
-53
-54
-56
-57
-59
-61
-63
-65
-66
-69
-69
-70
-70
-72
-72
-71
-72
-71
-71
-69
-69
-68
-66
-64
-62
-60
-57
-55
-52
-49
-45
-41
-38
-35
-33
-28
-23
-19
-16
-14
-12
-8
-4
-1
0
1
4
7
11
13
16
18
21
23
23
24
24
24
24
25
25
25
26
26
27
25
25
25
25
25
25
25
22
21
18
17
17
17
17
17
16
16
16
16
15
14
13
14
14
13
11
10
10
11
13
13
12
10
9
8
7
7
6
5
5
4
3
3
1
1
0
0
0
0
0
-1
-1
-2
-2
-2
-2
-2
-2
-1
-2
-1
-1
-1
-1
-1
-1
-2
-1
-1
-1
-2
-3
-5
-5
-4
-3
-2
-2
-3
-4
-4
-2
-2
-1
-2
-3
-4
-5
-3
-3
-2
-1
-1
-2
-3
-4
-5
-5
-6
-5
-4
-2
0
0
0
-1
-1
-1
0
2
6
8
8
6
6
5
3
3
4
6
6
6
6
6
13
28
51
79
110
142
170
192
203
203
189
170
144
114
64
7
-44
-74
-83
-76
-64
-51
-42
-36
-33
-30
-29
-29
-30
-31
-32
-34
-35
-36
-37
-38
-40
-39
-40
-40
-41
-42
-42
-44
-45
-46
-45
-46
-46
-47
-47
-47
-48
-49
-50
-50
-52
-52
-53
-55
-55
-57
-57
-60
-62
-64
-66
-66
-66
-66
-69
-71
-72
-71
-70
-70
-72
-75
-77
-81
-83
-84
-83
-81
-81
-81
-82
-82
-81
-80
-79
-76
-74
-72
-69
-67
-63
-58
-54
-50
-45
-40
-36
-31
-26
-21
-16
-12
-8
-4
-1
0
3
5
9
11
14
17
19
20
22
23
24
25
26
28
30
33
33
33
33
35
38
38
38
36
37
37
38
38
37
36
35
35
34
34
34
34
34
34
35
34
34
33
33
31
29
27
27
29
30
31
29
25
23
23
25
24
24
21
19
17
16
16
15
15
14
14
12
12
11
10
10
10
10
10
9
9
9
9
8
7
7
7
7
7
7
6
6
6
7
8
9
7
6
5
6
7
7
6
4
3
3
1
1
1
0
-1
-2
-4
-4
-5
-6
-6
-7
-6
-6
-5
-5
-4
-2
-2
-2
-2
-1
0
0
0
1
2
2
3
2
3
3
3
2
2
3
1
0
0
1
2
2
0
0
1
0
0
-1
-2
-2
-1
-1
-2
-1
0
1
1
0
1
2
3
2
1
1
2
3
4
4
4
6
7
8
8
8
7
6
6
5
5
5
5
5
4
2
2
2
1
2
1
2
2
1
0
0
0
-1
-1
-2
-3
-2
-3
-3
-4
-3
-4
-4
-4
-3
-3
-3
-1
0
2
4
5
6
6
7
5
4
3
3
2
2
1
2
2
2
2
3
3
2
2
2
3
5
6
6
6
7
7
9
10
11
12
11
11
9
9
10
12
14
15
15
14
15
14
16
17
19
21
22
25
25
27
27
29
32
43
65
92
125
154
187
216
240
252
247
227
195
167
131
81
22
-28
-58
-67
-64
-51
-38
-29
-23
-18
-15
-11
-7
-5
-6
-6
-7
-7
-5
-5
-4
-4
-4
-5
-6
-7
-9
-10
-12
-13
-14
-14
-15
-17
-19
-21
-22
-24
-24
-24
-26
-28
-31
-32
-33
-32
-32
-33
-35
-38
-41
-43
-45
-46
-46
-47
-49
-51
-53
-56
-58
-59
-61
-64
-66
-68
-70
-73
-74
-76
-78
-79
-80
-79
-82
-83
-85
-85
-85
-86
-86
-87
-86
-85
-82
-81
-80
-79
-77
-74
-72
-68
-67
-65
-64
-62
-59
-58
-54
-51
-46
-41
-37
-35
-33
-30
-27
-24
-22
-19
-16
-13
-11
-8
-6
-5
-3
-1
-1
-1
-1
0
4
8
10
10
9
9
10
12
11
11
9
9
8
7
7
6
7
8
8
7
5
4
2
0
-1
-2
-3
-4
-3
-4
-4
-5
-6
-6
-7
-7
-6
-5
-6
-6
-5
-5
-5
-6
-6
-6
-5
-4
-3
-4
-4
-3
-2
-3
-4
-5
-7
-7
-8
-8
-8
-8
-8
-8
-9
-10
-11
-11
-10
-9
-8
-9
-11
-11
-12
-11
-11
-12
-12
-11
-10
-9
-9
-10
-11
-12
-11
-11
-10
-8
-8
-8
-8
-8
-8
-8
-6
-7
-6
-5
-5
-4
-3
-3
-3
-3
-3
-3
-3
-4
-4
-4
-3
-2
-1
0
2
3
4
5
6
8
10
12
11
12
11
10
9
9
9
9
8
7
7
7
7
8
8
10
10
15
24
42
67
94
124
154
183
200
207
202
188
164
139
102
52
-6
-50
-73
-77
-70
-59
-49
-42
-38
-34
-30
-28
-28
-30
-31
-32
-32
-31
-31
-30
-31
-29
-29
-29
-31
-31
-32
-31
-30
-30
-30
-31
-31
-32
-32
-32
-33
-34
-36
-37
-38
-40
-41
-43
-44
-47
-49
-52
-53
-54
-56
-58
-60
-62
-65
-66
-67
-68
-68
-70
-70
-72
-72
-73
-73
-74
-75
-75
-75
-74
-76
-77
-78
-78
-78
-77
-75
-72
-68
-65
-62
-61
-60
-58
-56
-51
-48
-46
-43
-40
-37
-34
-30
-27
-23
-20
-17
-16
-14
-13
-11
-8
-4
-1
0
4
7
9
9
10
11
14
15
16
16
16
16
16
17
18
19
19
19
18
18
19
19
20
20
20
21
20
19
18
18
16
15
15
14
13
14
14
12
10
9
7
6
6
7
6
6
5
6
6
7
8
9
8
6
5
4
3
2
1
2
2
2
2
1
0
0
2
3
3
2
1
0
1
2
1
0
0
-2
-4
-5
-6
-6
-6
-7
-7
-7
-7
-6
-5
-6
-6
-7
-7
-6
-5
-4
-4
-4
-6
-7
-7
-7
-5
-4
-4
-4
-3
-2
0
0
1
2
1
1
1
1
1
2
3
3
4
2
2
3
4
6
6
6
6
7
8
9
9
11
13
14
19
32
55
82
114
145
177
202
219
227
217
199
168
137
96
38
-21
-70
-93
-93
-81
-60
-45
-35
-30
-28
-25
-24
-24
-23
-21
-20
-21
-23
-23
-25
-26
-25
-26
-28
-30
-31
-34
-36
-38
-41
-44
-47
-49
-50
-52
-54
-57
-59
-60
-60
-60
-59
-60
-63
-64
-65
-64
-64
-63
-66
-68
-67
-69
-69
-72
-72
-75
-76
-77
-77
-77
-80
-81
-84
-86
-89
-90
-90
-91
-90
-92
-92
-95
-95
-95
-95
-93
-92
-88
-87
-83
-81
-78
-75
-72
-66
-61
-56
-54
-50
-47
-43
-39
-35
-31
-28
-25
-21
-18
-15
-11
-9
-6
-4
-3
-2
0
1
2
4
6
8
10
11
10
10
10
9
9
9
9
8
8
8
6
5
3
2
0
-1
-1
-1
-1
0
0
-1
-1
-1
0
0
0
1
1
2
3
2
1
0
0
0
0
0
0
0
-1
-2
-2
-3
-6
-7
-8
-6
-6
-6
-7
-7
-7
-8
-8
-10
-10
-11
-10
-10
-10
-10
-12
-13
-13
-13
-13
-14
-14
-15
-14
-12
-11
-8
-6
-5
-5
-6
-6
-6
-6
-6
-5
-4
-3
-4
-5
-6
-6
-6
-6
-6
-7
-8
-9
-9
-7
-6
-5
-5
-6
-8
-8
-8
-7
-6
-6
-6
-7
-7
-6
-5
-4
-2
0
2
3
4
6
7
9
10
10
11
16
29
48
74
101
132
160
186
200
205
199
184
165
140
98
38
-20
-60
-74
-70
-59
-45
-35
-30
-25
-21
-17
-14
-13
-13
-16
-18
-19
-20
-21
-21
-23
-25
-27
-29
-30
-31
-31
-32
-32
-32
-34
-36
-38
-39
-42
-44
-45
-45
-45
-47
-48
-51
-52
-54
-55
-56
-56
-55
-55
-55
-57
-58
-61
-63
-65
-67
-70
-73
-76
-79
-80
-81
-82
-84
-86
-86
-86
-85
-85
-85
-84
-83
-82
-82
-81
-81
-79
-76
-71
-67
-63
-59
-57
-53
-47
-40
-34
-28
-23
-19
-15
-12
-9
-6
-2
0
2
2
3
5
8
10
10
11
12
14
15
16
19
22
24
24
24
24
26
27
27
25
24
24
23
23
22
22
21
20
19
20
21
21
22
20
20
20
20
19
19
18
18
18
20
22
23
22
20
17
16
13
12
11
11
11
11
10
8
7
5
5
6
9
11
10
9
7
6
5
5
5
5
5
5
6
5
5
4
5
5
5
5
7
8
7
6
4
2
3
4
6
6
5
3
2
1
0
0
0
0
1
2
2
3
3
4
4
4
5
4
4
3
2
2
4
6
6
6
5
4
3
2
0
-1
0
1
2
1
0
-2
-3
-4
-4
-3
-3
-4
-5
-7
-7
-9
-9
-8
-5
-4
-3
-1
-2
-1
-1
0
0
1
2
4
6
9
10
10
10
16
30
52
79
104
130
155
175
188
188
181
160
138
113
79
30
-25
-66
-87
-90
-79
-66
-53
-43
-36
-32
-30
-28
-27
-27
-28
-29
-30
-30
-30
-31
-31
-31
-31
-32
-33
-35
-37
-38
-39
-39
-40
-40
-40
-41
-42
-44
-45
-46
-45
-47
-48
-48
-50
-51
-52
-52
-53
-54
-56
-58
-56
-55
-52
-53
-54
-57
-59
-60
-62
-62
-64
-64
-65
-65
-65
-67
-68
-70
-70
-71
-70
-70
-69
-68
-67
-65
-64
-62
-62
-62
-61
-59
-57
-54
-51
-48
-44
-40
-35
-30
-25
-21
-17
-14
-11
-8
-6
-4
-2
0
3
6
8
11
13
15
17
18
20
20
19
18
18
17
15
14
14
15
16
18
19
19
18
16
15
14
14
13
13
14
13
12
11
9
8
8
8
9
9
9
8
8
9
9
8
7
8
9
10
12
10
11
12
14
16
17
17
15
15
13
12
12
13
14
15
16
15
15
14
12
11
12
15
14
14
11
11
10
12
14
14
13
12
12
12
13
12
12
13
15
17
16
15
15
16
18
19
19
19
20
20
20
19
18
18
19
19
18
17
15
15
14
14
14
14
15
15
15
14
12
12
13
15
16
16
15
16
15
14
13
13
14
13
13
13
13
14
14
14
13
13
11
11
10
8
5
4
5
5
7
8
10
11
12
11
7
4
2
2
3
5
7
8
7
5
3
3
3
3
4
5
6
7
7
6
6
6
5
5
4
5
5
4
4
3
4
4
5
4
1
0
1
2
2
1
0
-1
-1
-1
0
-1
0
-1
-1
-1
-2
-1
-2
-3
-3
-3
-2
0
1
1
1
1
3
3
3
2
2
2
0
0
0
3
6
8
10
8
7
5
5
6
9
11
12
13
12
11
10
10
9
8
7
5
4
3
4
6
8
8
7
6
5
5
6
6
5
6
8
10
11
11
10
9
10
10
10
10
9
8
8
9
9
8
6
5
6
7
9
7
7
6
5
4
3
3
3
4
4
5
6
7
7
7
7
7
8
9
10
9
8
7
5
4
5
6
6
6
5
4
7
8
8
7
6
5
5
5
4
3
3
4
4
4
4
4
4
6
8
9
9
7
10
20
36
59
82
110
138
168
188
197
195
186
169
151
125
84
27
-26
-63
-80
-80
-70
-58
-48
-43
-40
-36
-33
-30
-31
-31
-31
-32
-32
-31
-31
-33
-35
-36
-37
-36
-36
-37
-38
-38
-39
-41
-44
-46
-45
-45
-44
-45
-46
-49
-51
-53
-53
-51
-52
-53
-55
-56
-55
-56
-56
-58
-59
-62
-62
-63
-64
-65
-67
-68
-68
-68
-69
-70
-71
-71
-73
-76
-77
-78
-78
-78
-78
-77
-78
-78
-80
-80
-80
-79
-79
-79
-78
-78
-76
-74
-71
-71
-70
-69
-68
-62
-56
-51
-49
-46
-45
-42
-38
-33
-28
-24
-20
-17
-13
-10
-7
-4
0
3
7
10
12
15
18
20
20
21
21
20
19
19
19
19
20
21
23
24
23
22
21
21
21
21
19
18
19
19
18
16
16
13
11
10
11
12
12
11
9
7
6
8
9
10
10
9
9
7
8
7
5
4
3
4
3
3
1
0
0
1
2
0
-1
-2
-1
0
0
-1
-3
-4
-4
-4
-4
-4
-5
-5
-6
-6
-6
-5
-5
-5
-5
-6
-8
-8
-8
-8
-7
-6
-6
-6
-5
-4
-4
-4
-5
-6
-7
-7
-8
-8
-8
-8
-8
-7
-8
-9
-9
-9
-9
-8
-7
-9
-11
-13
-14
-13
-12
-11
-10
-10
-11
-12
-13
-15
-16
-15
-12
-11
-11
-11
-11
-10
-8
-6
-8
-8
-8
-7
-7
-6
-6
-6
-4
-2
-1
-1
-2
-4
-5
-6
-6
-5
-4
-4
-5
-5
-6
-6
-5
-5
-6
-6
-7
-8
-8
-8
-8
-9
-9
-9
-11
-11
-10
-10
-9
-8
-8
-8
-8
-9
-9
-9
-9
-9
-8
-6
-7
-6
-7
-7
-7
-7
-5
-5
-4
-3
-2
-2
-3
-3
-3
-2
-2
-2
-2
-1
-1
-1
0
0
0
1
2
2
3
3
2
1
1
2
2
3
4
6
7
9
10
11
10
9
9
9
9
10
11
12
12
12
11
11
11
12
12
13
14
14
15
15
16
16
15
14
14
15
13
13
14
16
18
19
21
20
21
19
18
16
15
16
17
17
17
17
16
16
14
14
15
17
18
18
19
18
19
19
20
23
31
48
72
101
130
162
186
201
202
188
167
138
112
71
20
-33
-69
-82
-77
-66
-52
-43
-36
-32
-30
-27
-26
-27
-28
-29
-30
-31
-32
-31
-30
-30
-31
-32
-33
-33
-34
-36
-37
-38
-39
-41
-42
-41
-42
-43
-45
-49
-50
-52
-52
-55
-55
-58
-60
-62
-64
-64
-66
-65
-67
-68
-68
-69
-68
-68
-68
-70
-70
-71
-71
-70
-71
-72
-75
-76
-79
-80
-81
-82
-82
-83
-85
-88
-88
-88
-87
-86
-85
-84
-85
-84
-83
-80
-79
-78
-76
-75
-72
-70
-66
-63
-61
-59
-57
-54
-50
-46
-40
-35
-31
-28
-27
-25
-22
-18
-16
-14
-13
-11
-8
-6
-3
0
0
1
2
3
3
3
3
2
2
2
3
3
3
3
2
0
0
0
-1
-1
-2
-3
-5
-6
-7
-7
-6
-7
-8
-9
-10
-11
-12
-14
-14
-15
-15
-16
-16
-14
-12
-11
-10
-11
-12
-11
-10
-10
-9
-9
-7
-6
-6
-6
-7
-8
-9
-9
-7
-6
-6
-6
-5
-7
-8
-10
-11
-12
-11
-8
-7
-6
-7
-7
-6
-5
-4
2
17
42
72
104
140
168
194
203
202
187
159
128
83
28
-31
-77
-96
-97
-86
-69
-56
-44
-37
-32
-29
-26
-25
-24
-23
-22
-22
-21
-21
-20
-20
-21
-22
-23
-23
-21
-20
-20
-21
-23
-25
-26
-28
-29
-30
-30
-30
-29
-29
-29
-29
-31
-34
-38
-40
-40
-41
-42
-43
-47
-49
-52
-53
-56
-58
-60
-63
-64
-67
-69
-71
-72
-75
-77
-78
-79
-78
-80
-81
-83
-84
-82
-81
-79
-80
-78
-79
-77
-76
-75
-73
-70
-66
-63
-59
-56
-51
-48
-44
-40
-36
-31
-28
-25
-22
-20
-18
-14
-13
-10
-7
-4
-1
-1
0
0
1
1
2
2
3
4
5
7
7
7
8
10
12
14
17
17
17
15
12
11
10
12
12
13
13
14
14
13
11
9
8
7
8
7
7
6
7
8
11
13
14
14
13
12
13
14
15
16
15
14
15
14
16
17
19
22
24
24
23
22
20
19
18
19
20
21
22
20
20
20
21
21
20
20
19
20
20
20
18
16
15
15
17
18
20
19
18
18
20
21
21
20
20
22
23
25
26
26
26
25
25
25
27
26
25
23
21
20
21
23
24
24
22
20
18
16
16
15
15
15
15
15
15
14
12
13
12
11
11
9
8
8
9
10
12
12
13
13
14
14
15
16
15
14
13
14
14
14
15
14
15
16
18
19
20
19
19
19
19
20
20
21
18
17
16
15
16
16
16
15
14
13
12
11
10
10
12
13
13
11
10
9
10
11
12
13
13
13
14
20
34
56
84
113
142
173
198
216
223
219
204
181
160
127
80
19
-30
-60
-68
-62
-48
-34
-23
-16
-12
-9
-8
-8
-8
-9
-9
-9
-9
-8
-10
-11
-12
-13
-14
-15
-15
-17
-17
-15
-15
-15
-16
-17
-18
-18
-18
-18
-19
-19
-19
-20
-20
-22
-23
-24
-23
-22
-22
-22
-24
-27
-29
-31
-31
-31
-31
-34
-35
-36
-37
-38
-40
-42
-43
-45
-48
-49
-50
-51
-53
-54
-56
-58
-58
-59
-60
-61
-61
-61
-60
-58
-57
-56
-55
-54
-53
-51
-48
-44
-41
-38
-35
-32
-29
-26
-23
-19
-15
-12
-8
-5
-3
0
3
5
5
7
8
10
14
17
20
22
23
22
23
24
24
27
28
29
29
29
30
30
29
28
28
27
28
28
29
28
27
26
25
24
22
21
21
23
24
23
20
18
16
14
13
12
12
12
12
11
9
8
8
7
6
6
6
5
6
5
7
8
9
11
11
11
9
9
9
9
9
8
7
6
5
6
6
6
5
6
7
8
7
6
6
6
6
6
6
6
6
6
6
5
6
6
6
5
4
4
5
6
6
5
4
5
5
5
5
3
2
2
3
4
5
5
5
4
4
3
4
6
7
9
10
8
8
7
6
6
6
8
9
10
11
11
10
10
10
10
11
13
15
15
14
13
11
10
9
9
10
11
10
11
13
14
14
14
14
15
16
17
19
20
20
21
23
32
50
74
100
128
155
181
200
208
206
187
164
133
102
55
0
-50
-82
-91
-84
-71
-56
-46
-38
-33
-29
-27
-26
-25
-24
-24
-24
-24
-24
-25
-25
-26
-26
-27
-27
-28
-29
-29
-30
-30
-30
-30
-30
-30
-31
-32
-32
-31
-30
-30
-30
-32
-33
-35
-37
-38
-41
-43
-46
-48
-49
-50
-48
-47
-48
-51
-54
-56
-57
-57
-58
-59
-62
-64
-67
-68
-68
-68
-68
-69
-70
-71
-71
-71
-70
-68
-66
-63
-62
-59
-58
-56
-54
-51
-48
-46
-43
-41
-39
-36
-31
-26
-21
-17
-14
-10
-5
-1
1
4
5
8
9
11
12
15
17
16
17
17
19
19
21
20
20
19
18
18
17
17
17
20
21
22
21
20
19
18
18
17
16
16
15
13
11
9
9
10
9
8
7
6
6
6
5
4
3
1
0
-1
0
1
1
0
-1
-1
-1
0
0
-1
-1
-1
1
2
3
2
1
0
0
1
3
4
4
4
4
2
1
0
-1
-2
-3
-2
-3
-2
-2
-2
-2
-2
-2
-3
-4
-6
-7
-8
-8
-7
-5
-4
-4
-3
-2
-1
-1
0
-1
-1
-1
-1
0
0
1
2
3
2
1
0
-1
-2
-2
-2
-2
-3
-5
-6
-7
-7
-4
-2
-2
-3
-4
-5
-5
-4
-4
-2
-1
-1
-1
2
13
33
62
91
124
151
176
186
189
178
154
128
93
50
-4
-57
-86
-98
-92
-76
-61
-48
-40
-34
-31
-28
-25
-24
-24
-26
-27
-28
-28
-29
-29
-30
-30
-30
-31
-32
-34
-35
-38
-39
-40
-39
-39
-40
-41
-42
-42
-42
-43
-46
-48
-49
-50
-51
-53
-54
-55
-55
-54
-55
-56
-57
-59
-62
-64
-67
-69
-69
-70
-70
-72
-73
-76
-77
-77
-78
-77
-79
-79
-82
-83
-83
-84
-82
-83
-81
-80
-78
-78
-76
-73
-71
-67
-64
-59
-56
-52
-47
-44
-38
-33
-28
-22
-18
-15
-12
-8
-5
-3
0
1
3
4
6
9
12
17
20
24
24
25
26
27
28
27
27
27
27
26
26
25
25
26
24
24
23
23
22
23
23
22
21
20
20
20
21
22
22
23
23
24
23
24
23
22
21
20
20
19
20
20
20
19
16
15
14
14
13
13
12
10
8
7
7
7
7
7
7
9
10
10
8
7
7
8
7
6
5
4
4
4
4
2
3
3
4
5
5
5
4
3
2
2
1
1
1
0
-1
-2
-3
-4
-4
-4
-5
-6
-7
-8
-9
-10
-11
-10
-8
-8
-8
-9
-11
-11
-10
-9
-8
-7
-8
-9
-10
-11
-10
-7
-5
-4
-5
-7
-8
-9
-9
-7
-6
-4
-3
-3
-4
-4
-5
-6
-6
-6
-6
-7
-7
-5
-2
0
0
-2
-4
-5
-6
-7
-8
-8
-8
-7
-7
-6
-5
-6
-7
-8
-8
-8
-9
-9
-12
-12
-11
-10
-9
-8
-8
-8
-8
-9
-8
-7
-6
-5
-4
-4
-5
-6
-7
-8
-8
-9
-10
-11
-10
-8
-6
-5
-5
-6
-7
-7
-7
-6
-7
-8
-7
-6
-4
-4
-5
-6
-7
-8
-9
-10
-10
-11
-10
-8
-7
-6
-5
-2
-1
0
0
0
1
1
2
2
4
4
6
7
9
10
9
9
9
9
9
9
9
8
8
8
7
5
4
6
8
9
10
11
11
12
11
12
14
15
17
17
17
17
17
16
17
17
17
17
17
17
17
19
20
20
20
20
21
20
21
21
21
21
21
21
21
21
21
23
26
38
57
81
108
133
162
184
198
200
190
170
145
118
80
27
-26
-66
-84
-83
-72
-57
-44
-36
-31
-28
-25
-23
-22
-22
-22
-23
-24
-26
-26
-29
-29
-29
-30
-31
-33
-35
-37
-38
-38
-37
-36
-37
-38
-40
-41
-42
-42
-41
-41
-42
-43
-45
-47
-48
-49
-50
-51
-52
-53
-53
-53
-54
-54
-55
-56
-57
-57
-58
-59
-61
-64
-66
-68
-70
-71
-73
-73
-75
-75
-75
-74
-74
-74
-73
-73
-72
-71
-70
-69
-68
-66
-65
-62
-61
-59
-58
-56
-54
-51
-47
-45
-42
-40
-36
-34
-30
-24
-19
-15
-12
-9
-6
-4
-2
-1
0
2
2
2
2
1
0
0
0
0
1
1
1
0
0
0
1
3
4
6
7
8
8
8
8
7
8
7
6
6
5
4
3
1
0
-2
-4
-6
-8
-9
-8
-10
-12
-17
-19
-19
-18
-17
-18
-19
-21
-22
-22
-22
-22
-23
-24
-24
-23
-21
-20
-21
-23
-24
-26
-28
-30
-31
-32
-33
-31
-31
-30
-30
-31
-31
-31
-29
-27
-24
-24
-23
-23
-24
-24
-23
-22
-20
-20
-20
-21
-20
-18
-17
-17
-15
-12
-3
12
36
61
92
119
145
160
165
161
147
125
96
59
9
-49
-93
-116
-121
-113
-99
-83
-73
-67
-62
-57
-54
-52
-51
-51
-50
-49
-47
-46
-43
-42
-41
-40
-40
-41
-43
-43
-43
-43
-43
-44
-45
-48
-48
-50
-49
-49
-50
-51
-53
-54
-55
-56
-57
-58
-59
-62
-63
-66
-67
-70
-72
-74
-77
-79
-79
-78
-79
-79
-82
-85
-87
-88
-89
-90
-90
-92
-91
-91
-90
-90
-91
-91
-92
-92
-92
-90
-89
-88
-87
-86
-84
-84
-81
-78
-72
-67
-63
-59
-57
-54
-52
-48
-47
-45
-43
-41
-38
-36
-33
-31
-28
-26
-25
-23
-21
-17
-14
-12
-10
-8
-7
-5
-2
0
0
0
0
0
0
1
3
5
7
7
6
5
5
4
3
3
2
2
2
3
4
4
4
1
1
0
0
0
-1
-2
-3
-2
-2
-1
-1
-1
0
0
1
1
2
3
4
5
7
8
8
8
8
7
3
0
-5
-9
-7
0
12
27
41
46
39
8
-35
-75
-104
-126
-144
-163
-175
-186
-183
-173
-159
-141
-123
-98
-72
-44
-23
-9
-1
1
2
4
5
6
6
7
8
10
13
15
15
13
13
14
15
17
15
15
14
14
13
12
12
12
13
14
14
14
14
15
16
17
16
15
13
12
10
10
9
7
6
6
5
4
3
4
5
6
7
10
11
12
12
12
13
15
16
17
19
19
20
20
22
23
24
25
26
28
29
30
30
31
31
32
33
31
32
30
30
29
28
27
26
26
24
24
22
21
20
19
20
18
20
20
21
20
20
21
21
22
23
25
27
29
31
33
33
33
33
33
34
32
32
32
30
30
30
29
28
26
24
23
22
21
20
18
17
15
13
12
10
9
9
10
11
10
8
6
6
6
6
5
5
5
7
9
9
9
8
9
8
9
8
8
8
10
14
15
15
13
12
11
11
11
11
11
9
10
12
14
16
17
18
17
17
18
20
21
21
21
20
19
18
17
15
16
18
20
20
18
17
16
15
13
12
11
10
11
12
13
14
14
14
14
15
16
16
16
16
16
17
19
19
18
16
13
10
9
9
11
13
14
13
11
10
8
8
7
7
7
7
8
6
5
4
6
7
8
5
4
6
8
10
9
8
6
7
15
31
55
80
109
133
158
171
175
168
148
126
97
64
13
-42
-81
-102
-101
-87
-73
-58
-51
-46
-44
-43
-43
-42
-41
-41
-41
-41
-39
-37
-34
-33
-31
-31
-31
-31
-32
-33
-34
-35
-36
-37
-38
-40
-41
-40
-39
-40
-41
-44
-46
-46
-48
-49
-51
-52
-54
-56
-56
-56
-56
-59
-62
-66
-69
-70
-73
-73
-75
-75
-76
-77
-78
-80
-80
-82
-82
-84
-83
-83
-83
-81
-81
-79
-80
-78
-79
-78
-77
-76
-73
-71
-69
-67
-63
-59
-55
-52
-49
-43
-38
-34
-31
-28
-25
-22
-19
-16
-16
-14
-13
-10
-8
-6
-5
-4
-3
-3
-2
-1
0
0
0
0
0
0
0
0
-1
0
0
0
-1
-2
-3
-4
-5
-4
-6
-7
-9
-10
-10
-11
-13
-14
-15
-15
-16
-17
-17
-18
-18
-17
-17
-16
-15
-15
-15
-16
-16
-17
-16
-16
-15
-14
-14
-14
-15
-15
-15
-14
-14
-15
-16
-17
-16
-15
-13
-13
-13
-14
-14
-15
-15
-16
-17
-17
-17
-16
-17
-18
-20
-20
-19
-19
-19
-20
-21
-21
-18
-16
-15
-15
-15
-13
-10
-1
15
41
69
101
130
154
172
175
173
156
134
104
62
11
-43
-80
-93
-93
-79
-63
-51
-44
-38
-33
-29
-27
-27
-28
-29
-30
-30
-29
-28
-26
-26
-26
-27
-29
-30
-32
-33
-34
-35
-35
-34
-33
-33
-33
-32
-30
-30
-30
-32
-33
-35
-35
-34
-35
-36
-38
-40
-42
-44
-45
-47
-48
-48
-49
-51
-54
-56
-59
-61
-63
-65
-65
-65
-66
-68
-70
-72
-74
-72
-72
-69
-69
-67
-68
-67
-66
-63
-59
-57
-54
-53
-51
-50
-48
-46
-44
-39
-33
-27
-21
-16
-14
-13
-12
-12
-11
-9
-6
-3
-2
-1
0
2
3
4
5
6
7
9
11
14
14
15
14
13
12
12
12
10
10
11
12
13
15
16
14
14
13
13
13
13
13
15
16
15
15
13
12
10
8
9
9
10
11
12
13
15
15
15
13
12
11
12
14
16
17
17
17
17
16
17
17
18
17
16
14
14
14
14
15
14
14
14
15
16
17
17
16
17
17
18
20
21
22
24
24
22
21
21
22
22
21
21
19
18
17
16
15
14
15
14
16
17
18
16
15
15
16
17
16
15
14
13
12
13
12
11
9
8
8
8
9
9
8
8
6
6
5
7
9
10
10
9
9
9
10
11
11
11
12
13
13
13
13
13
14
15
15
15
13
12
11
8
8
8
10
10
10
10
9
8
7
7
8
9
7
6
6
4
6
7
8
9
9
11
11
12
13
14
17
29
47
71
97
122
148
165
179
178
169
148
120
93
54
8
-39
-73
-83
-80
-68
-54
-44
-35
-29
-23
-20
-18
-16
-16
-16
-16
-15
-16
-16
-17
-17
-18
-18
-19
-18
-18
-17
-17
-17
-17
-18
-19
-21
-22
-23
-24
-26
-27
-27
-28
-29
-29
-30
-30
-31
-32
-34
-36
-36
-36
-35
-35
-35
-36
-37
-38
-40
-40
-42
-43
-45
-45
-46
-47
-47
-46
-46
-47
-46
-47
-47
-47
-47
-45
-43
-41
-40
-38
-38
-36
-36
-35
-34
-32
-31
-30
-28
-26
-24
-22
-20
-18
-17
-15
-14
-11
-9
-6
-4
-2
0
1
4
6
10
13
17
19
20
21
22
22
23
25
25
26
26
27
27
28
28
27
28
28
30
29
30
29
29
28
27
26
25
25
24
23
23
21
21
20
20
19
18
17
15
13
11
10
7
7
7
7
7
6
6
4
4
3
4
4
5
4
4
3
3
5
5
5
4
5
6
6
7
7
7
6
6
5
5
5
5
6
6
7
6
6
5
5
5
4
4
5
5
5
5
4
3
3
3
3
2
1
0
0
0
-1
0
0
0
-1
0
0
0
0
0
-1
0
0
0
0
0
0
0
0
2
4
5
6
8
9
8
8
7
8
9
9
8
7
6
5
6
5
5
5
5
5
5
5
4
4
3
3
3
2
1
0
0
-1
-2
-2
-1
0
1
2
2
1
1
2
2
3
5
4
4
3
4
4
5
6
7
8
12
22
38
60
82
108
131
150
160
159
152
129
106
82
52
12
-34
-68
-83
-83
-70
-57
-42
-32
-25
-20
-17
-14
-12
-12
-13
-13
-13
-13
-12
-12
-14
-15
-16
-16
-15
-14
-14
-15
-17
-19
-19
-20
-21
-21
-22
-23
-24
-25
-26
-26
-27
-28
-30
-32
-33
-32
-30
-29
-29
-29
-32
-34
-35
-37
-38
-40
-41
-44
-45
-47
-49
-50
-51
-51
-52
-53
-55
-55
-55
-56
-55
-55
-53
-51
-48
-46
-45
-44
-44
-43
-43
-40
-38
-35
-32
-30
-28
-26
-23
-20
-16
-12
-9
-6
-4
-3
-2
0
3
6
8
9
8
8
9
12
14
16
17
16
16
15
15
15
16
16
17
19
19
19
18
18
17
16
16
15
15
13
13
13
13
13
12
11
9
9
9
9
8
6
6
5
4
3
1
0
0
1
2
2
2
1
0
0
0
0
0
0
-1
-2
-2
-1
1
3
4
3
1
0
0
0
0
1
1
-1
-3
-5
-3
-3
-1
-1
-2
-3
-5
-6
-8
-8
-9
-9
-11
-11
-10
-9
-9
-10
-11
-12
-12
-11
-9
-7
-8
-9
-10
-10
-9
-7
-5
-6
-7
-9
-11
-11
-10
-8
-7
-6
-5
-4
-3
-2
-2
-1
-1
0
0
0
0
0
1
3
3
4
4
5
5
6
7
10
13
15
14
13
12
10
10
8
6
4
1
0
1
4
6
7
5
4
4
6
11
12
16
17
18
16
16
22
36
59
82
111
134
158
169
174
170
152
130
102
74
32
-16
-54
-76
-81
-73
-62
-47
-34
-22
-15
-11
-11
-14
-18
-21
-22
-22
-20
-19
-19
-20
-22
-23
-25
-28
-32
-34
-33
-28
-25
-25
-28
-32
-33
-34
-35
-36
-38
-41
-43
-42
-39
-35
-35
-38
-41
-44
-45
-44
-42
-43
-45
-48
-52
-54
-57
-56
-57
-56
-57
-57
-61
-64
-67
-71
-72
-73
-72
-72
-73
-73
-75
-74
-75
-73
-73
-70
-68
-66
-63
-61
-58
-56
-52
-49
-45
-40
-36
-31
-28
-24
-22
-19
-17
-14
-12
-11
-8
-3
3
8
11
11
13
14
16
15
14
14
14
13
12
12
10
10
9
10
9
9
9
8
7
6
6
6
7
7
7
7
6
6
5
5
5
6
7
7
7
6
7
6
7
8
7
7
7
7
6
5
3
1
0
1
5
7
7
5
3
1
0
-1
-2
-3
-4
-4
-4
-4
-4
-5
-6
-7
-8
-9
-10
-11
-11
-10
-9
-6
-5
-3
-4
-4
-4
-4
-3
-1
0
-1
-1
-1
-3
-3
-2
-1
-2
-2
-4
-4
-5
-4
-2
-1
-1
-3
-5
-6
-6
-5
-4
-4
-6
-7
-8
-9
-10
-11
-11
-12
-12
-12
-12
-11
-11
-12
-13
-13
-13
-11
-8
-6
-4
-1
8
25
47
73
98
123
145
154
156
143
121
92
59
19
-32
-75
-98
-101
-87
-70
-55
-45
-40
-37
-35
-33
-32
-33
-33
-33
-34
-34
-34
-33
-32
-31
-29
-31
-35
-37
-37
-35
-32
-30
-30
-31
-33
-35
-36
-39
-40
-40
-41
-42
-44
-46
-49
-51
-53
-53
-56
-60
-62
-65
-65
-65
-64
-66
-68
-71
-73
-74
-76
-77
-79
-79
-81
-81
-81
-82
-83
-84
-83
-84
-84
-83
-83
-81
-81
-80
-80
-77
-72
-65
-60
-56
-52
-49
-45
-41
-37
-32
-28
-25
-22
-21
-19
-17
-15
-12
-9
-5
-5
-4
-4
-2
0
3
6
7
8
8
8
8
9
10
12
14
14
15
15
16
17
19
21
21
21
22
22
22
22
22
21
21
22
24
24
25
24
25
24
23
22
20
20
20
21
21
21
20
19
17
16
15
13
12
10
9
8
7
7
5
4
4
4
3
1
0
0
0
0
0
0
0
1
2
3
3
3
3
3
3
3
4
4
5
7
7
8
8
7
7
7
6
5
4
3
2
2
1
0
-1
-2
-4
-5
-6
-7
-9
-10
-10
-10
-10
-10
-10
-11
-12
-12
-11
-9
-7
-6
-6
-7
-8
-8
-7
-7
-6
-5
-5
-6
-6
-7
-8
-8
-7
-7
-7
-8
-9
-10
-10
-10
-10
-10
-11
-12
-12
-13
-13
-13
-13
-13
-13
-13
-14
-15
-15
-15
-15
-14
-14
-13
-12
-12
-11
-11
-11
-11
-11
-11
-11
-11
-11
-11
-10
-10
-9
-10
-10
-10
-9
-8
-8
-8
-9
-10
-10
-10
-10
-11
-12
-13
-15
-14
-15
-15
-15
-15
-14
-12
-12
-12
-12
-13
-13
-14
-15
-16
-17
-18
-20
-20
-18
-16
-16
-15
-13
-13
-12
-12
-12
-12
-13
-14
-14
-14
-14
-14
-15
-15
-15
-15
-14
-13
-13
-12
-11
-9
-6
-4
-4
-3
-4
-4
-4
-4
-4
-3
-3
-4
-4
-5
-5
-5
-5
-5
-5
-5
-5
-4
-3
-3
-2
-1
0
0
0
0
-1
-1
0
0
1
2
2
2
1
2
2
3
3
4
4
4
5
3
3
3
4
4
4
4
4
4
4
4
3
2
2
3
5
6
7
7
7
7
7
7
6
6
6
9
20
40
65
93
120
149
174
187
194
183
163
131
96
57
8
-40
-78
-96
-94
-85
-69
-55
-44
-37
-32
-29
-27
-25
-25
-24
-24
-24
-25
-26
-27
-28
-27
-26
-24
-24
-24
-24
-23
-23
-24
-24
-24
-24
-25
-26
-26
-27
-28
-28
-28
-29
-29
-28
-28
-28
-28
-27
-29
-29
-31
-32
-33
-36
-37
-38
-40
-42
-45
-47
-50
-52
-53
-53
-53
-53
-53
-55
-56
-59
-60
-62
-62
-63
-63
-62
-62
-61
-62
-60
-59
-57
-54
-53
-51
-49
-47
-46
-45
-43
-41
-39
-36
-32
-29
-26
-22
-19
-15
-11
-9
-6
-4
-1
1
5
8
10
14
16
20
22
23
24
25
26
26
28
29
31
30
31
32
31
32
31
31
31
32
32
33
33
31
30
30
31
30
30
30
30
29
29
30
30
31
29
27
25
25
26
27
28
26
26
25
24
23
21
19
17
17
16
15
13
12
10
9
8
7
6
6
6
6
7
8
7
6
4
3
3
2
3
3
3
2
2
1
2
3
6
8
9
10
11
11
12
12
13
12
12
11
10
9
8
9
10
11
11
11
11
12
12
13
13
11
10
8
7
6
5
4
4
5
6
7
6
6
5
5
5
6
7
7
7
7
8
9
11
11
12
12
12
13
12
11
9
8
8
8
10
11
13
14
14
14
13
14
14
15
15
15
14
13
11
10
9
8
7
6
6
5
5
5
4
4
4
4
3
2
2
1
0
0
1
1
1
1
1
0
0
0
0
0
-1
-1
-1
-2
-2
-3
-3
-2
-1
-2
-2
-2
-2
-3
-2
0
3
5
7
8
9
11
12
14
24
40
67
96
130
163
193
221
235
242
226
196
161
129
93
40
-16
-58
-80
-81
-71
-56
-42
-33
-27
-22
-18
-14
-11
-9
-9
-9
-9
-9
-9
-8
-8
-7
-8
-9
-9
-10
-10
-9
-9
-9
-9
-9
-10
-11
-11
-11
-12
-12
-14
-16
-17
-19
-20
-20
-22
-23
-24
-25
-27
-29
-28
-29
-31
-34
-37
-38
-40
-42
-44
-47
-49
-53
-55
-57
-60
-63
-66
-68
-71
-72
-74
-75
-76
-78
-80
-81
-80
-80
-78
-77
-74
-73
-72
-71
-70
-67
-65
-61
-59
-55
-52
-47
-43
-40
-36
-32
-27
-25
-23
-21
-20
-17
-15
-13
-12
-10
-10
-8
-6
-4
-2
-1
0
0
1
2
2
3
4
4
5
5
6
7
9
10
10
10
11
12
12
11
13
12
12
11
11
11
10
10
11
12
12
11
10
9
8
7
7
5
4
3
1
0
0
0
-2
-2
-2
-2
-2
-3
-4
-4
-4
-3
-3
-3
-4
-5
-6
-7
-8
-8
-8
-7
-7
-6
-6
-6
-5
-3
-2
0
0
0
0
0
-1
0
1
2
1
1
0
0
0
0
-2
-3
-3
-4
-5
-5
-5
-5
-4
-1
-1
-1
-1
-2
-3
-3
-3
-3
-3
-3
-3
-3
-4
-5
-5
-4
-5
-5
-5
-4
-4
-2
-1
-1
-1
-1
-2
-3
-4
-4
-3
0
2
5
6
7
7
8
9
10
12
13
14
13
12
11
10
9
10
9
8
8
7
9
10
11
12
13
15
15
15
14
14
13
12
10
9
9
8
8
7
7
7
7
9
8
9
8
8
8
8
8
6
6
7
9
10
10
11
12
14
14
16
24
42
68
103
135
169
201
227
246
247
240
217
197
172
135
80
18
-25
-50
-60
-55
-45
-36
-30
-26
-22
-21
-20
-21
-21
-21
-23
-24
-25
-26
-27
-27
-28
-30
-32
-33
-35
-36
-37
-38
-38
-37
-38
-38
-38
-38
-38
-39
-40
-41
-42
-40
-40
-41
-42
-43
-43
-43
-44
-47
-50
-52
-54
-55
-57
-58
-60
-62
-64
-67
-70
-73
-73
-75
-75
-77
-79
-80
-83
-83
-85
-85
-87
-86
-86
-85
-83
-82
-78
-77
-74
-73
-69
-65
-61
-57
-54
-49
-45
-39
-34
-28
-22
-17
-15
-12
-9
-6
-3
-1
2
3
5
5
6
6
7
8
8
8
8
7
7
6
6
6
7
8
9
9
10
10
12
13
12
13
14
15
16
16
17
16
14
12
11
11
12
12
13
13
13
12
10
9
7
7
6
5
3
1
0
-2
-2
-3
-5
-7
-10
-11
-10
-10
-11
-11
-12
-14
-16
-17
-17
-16
-16
-16
-14
-13
-12
-12
-11
-9
-9
-9
-9
-9
-8
-8
-7
-7
-7
-7
-6
-6
-6
-7
-8
-9
-7
-6
-5
-4
-5
-4
-2
-2
-2
-3
-3
-3
-2
-1
-1
-1
-2
-2
4
19
42
70
98
131
161
185
200
203
205
195
185
165
127
72
7
-39
-69
-82
-79
-71
-62
-56
-52
-48
-47
-47
-47
-47
-48
-48
-49
-49
-49
-50
-50
-51
-52
-53
-54
-57
-59
-60
-61
-62
-63
-62
-64
-65
-65
-66
-66
-67
-68
-70
-71
-72
-74
-74
-76
-77
-79
-80
-82
-84
-84
-86
-87
-91
-92
-96
-98
-100
-102
-102
-105
-105
-108
-109
-111
-111
-111
-112
-111
-113
-112
-113
-111
-110
-109
-107
-106
-101
-98
-92
-88
-84
-80
-76
-72
-69
-64
-59
-55
-50
-46
-41
-38
-34
-30
-26
-22
-19
-16
-14
-13
-10
-8
-7
-6
-5
-3
-4
-4
-3
-2
-2
-2
-1
-1
-1
-1
0
0
0
0
0
0
0
0
0
0
1
3
4
3
3
3
4
3
4
5
5
6
7
8
10
11
12
13
12
13
13
14
15
14
14
13
13
12
12
13
13
14
12
12
10
9
8
8
9
9
12
14
16
17
17
16
16
17
17
17
17
18
18
18
18
17
16
15
15
13
12
12
10
9
8
7
6
5
4
3
2
0
0
0
-1
-2
-2
-2
-2
-3
-3
-4
-4
-4
-5
-5
-5
-5
-6
-6
-6
-7
-8
-9
-9
-10
-10
-11
-11
-11
-11
-10
-9
-10
-10
-11
-10
-10
-9
-8
-8
-7
-6
-4
-5
-6
-5
-6
-5
-4
-4
-4
-4
-4
-4
-5
-5
-6
-7
-7
-8
-9
-11
-13
-14
-15
-15
-16
-16
-17
-17
-17
-17
-16
-16
-16
-17
-17
-17
-16
-16
-15
-15
-15
-14
-13
-14
-14
-13
-14
-16
-16
-16
-16
-17
-17
-18
-18
-18
-18
-17
-17
-17
-18
-19
-19
-20
-19
-18
-18
-17
-16
-17
-17
-18
-18
-18
-19
-19
-19
-19
-19
-18
-18
-17
-15
-16
-16
-15
-15
-14
-13
-13
-11
-10
-9
-8
-7
-7
-7
-6
-5
-5
-4
-3
-3
-2
-1
-1
-2
-2
-2
-2
-2
-2
-2
-2
-3
-3
-1
0
0
0
1
2
2
3
4
5
5
6
6
7
7
7
7
7
7
7
7
8
8
8
7
7
7
9
8
9
8
8
8
8
9
8
8
7
7
6
6
6
5
5
6
6
6
6
7
7
7
6
6
5
5
4
4
3
2
2
1
0
0
0
0
0
0
0
0
0
-1
-1
0
-1
-1
0
0
0
0
0
-1
-2
-3
-4
-4
-5
-5
-6
-7
-8
-8
-8
-8
-6
-6
-5
-4
-3
-4
-4
-4
-4
-3
-1
0
3
5
8
11
15
19
24
31
43
55
67
83
90
81
36
-36
-107
-169
-195
-205
-205
-204
-207
-201
-193
-170
-142
-111
-79
-55
-37
-28
-21
-16
-12
-9
-6
-4
-3
-1
0
0
1
1
0
1
2
3
3
4
5
6
7
8
8
8
9
8
8
8
8
8
6
6
4
4
4
5
5
5
5
4
3
3
3
3
4
3
2
2
1
0
0
-1
-2
-3
-2
-4
-4
-4
-4
-4
-4
-3
-3
-2
-2
-1
0
1
2
4
5
6
7
9
11
11
13
14
16
18
19
20
20
21
20
21
21
22
22
22
22
22
22
22
22
22
22
23
23
24
24
25
26
27
29
31
33
34
35
36
37
38
40
43
43
45
45
46
45
46
46
46
47
46
47
46
47
45
46
46
45
44
42
41
38
37
35
33
32
31
30
27
24
21
18
15
13
12
11
10
9
8
7
6
6
4
4
3
2
1
0
0
0
-1
-1
-1
-2
-3
-4
-6
-7
-8
-9
-9
-8
-8
-8
-9
-9
-8
-8
-6
-6
-6
-6
-7
-8
-8
-7
-8
-8
-8
-9
-9
-10
-10
-10
-10
-10
-9
-9
-10
-11
-11
-11
-10
-10
-9
-8
-9
-9
-9
-10
-10
-10
-10
-10
-10
-10
-10
-10
-10
-9
-9
-8
-8
-8
-8
-9
-9
-9
-8
-8
-8
-9
-9
-9
-10
-10
-10
-10
-10
-10
-10
-10
-9
-9
-8
-9
-9
-8
-9
-9
-9
-10
-9
-8
-9
-9
-9
-9
-9
-9
-9
-10
-9
-9
-8
-7
-7
-5
-6
-6
-5
-2
6
24
44
70
96
123
147
160
168
163
156
141
124
101
59
8
-40
-68
-74
-70
-58
-45
-36
-30
-27
-25
-23
-23
-23
-24
-24
-24
-24
-24
-25
-26
-27
-28
-29
-30
-31
-32
-33
-33
-34
-36
-38
-38
-40
-40
-40
-42
-43
-44
-46
-47
-47
-47
-49
-49
-49
-49
-50
-50
-52
-52
-52
-53
-54
-56
-56
-59
-61
-62
-64
-65
-67
-66
-69
-70
-72
-73
-72
-74
-73
-75
-75
-77
-77
-76
-77
-75
-73
-70
-68
-65
-62
-59
-56
-52
-47
-45
-41
-38
-34
-31
-27
-24
-20
-17
-14
-11
-9
-7
-4
-2
-1
-2
-2
-1
-1
-1
0
0
0
0
0
-1
-1
-2
-3
-4
-4
-5
-5
-6
-5
-5
-5
-7
-8
-8
-7
-7
-7
-5
-6
-6
-6
-6
-5
-6
-6
-8
-10
-12
-14
-15
-15
-15
-16
-17
-19
-20
-20
-20
-20
-20
-20
-22
-23
-23
-22
-21
-20
-20
-21
-20
-20
-20
-20
-19
-19
-18
-18
-17
-17
-16
-16
-15
-13
-12
-11
-11
-12
-13
-13
-13
-13
-13
-12
-11
-10
-10
-9
-10
-10
-11
-11
-10
-11
-10
-10
-10
-11
-11
-11
-11
-11
-11
-10
-10
-8
-8
-8
-7
-6
-5
-5
-5
-5
-4
-3
-3
-2
-2
-3
-4
-4
-4
-3
-2
-2
-2
-1
0
0
2
5
7
8
9
10
11
12
12
14
14
14
14
14
14
14
13
13
14
13
14
15
15
15
15
16
15
16
15
14
13
13
13
11
11
10
10
9
8
8
7
7
7
7
7
8
7
7
7
7
7
8
9
9
9
9
8
8
7
7
6
7
7
6
6
6
7
7
8
8
8
8
7
6
6
5
4
4
3
1
1
1
0
0
1
0
0
-1
-1
-1
-1
-1
-1
-1
0
1
2
3
4
6
9
10
13
16
26
42
68
97
126
158
181
201
206
202
182
155
129
94
50
-1
-45
-65
-66
-57
-44
-32
-23
-17
-12
-8
-7
-7
-7
-8
-9
-9
-9
-10
-11
-12
-13
-14
-15
-16
-17
-17
-18
-18
-18
-18
-19
-20
-20
-21
-23
-24
-24
-25
-26
-26
-28
-28
-28
-28
-29
-31
-31
-33
-33
-34
-36
-38
-40
-42
-44
-45
-47
-49
-50
-52
-54
-57
-59
-61
-64
-66
-69
-70
-73
-74
-76
-77
-76
-76
-74
-73
-71
-70
-67
-65
-62
-58
-55
-51
-49
-45
-42
-39
-35
-31
-27
-23
-18
-14
-9
-5
0
3
7
9
12
13
15
16
18
20
22
24
25
26
26
26
27
27
28
28
29
29
30
29
29
29
28
28
28
29
29
30
31
31
32
32
33
34
35
35
35
35
34
33
33
33
33
33
33
32
31
30
29
29
29
29
28
27
27
27
25
25
25
25
23
22
25
36
56
82
112
143
174
195
205
206
202
196
181
163
122
64
-1
-46
-68
-70
-61
-48
-40
-33
-29
-27
-25
-24
-24
-24
-24
-25
-25
-26
-25
-27
-28
-29
-31
-31
-33
-33
-35
-36
-38
-40
-41
-43
-45
-47
-48
-50
-52
-54
-56
-56
-57
-58
-60
-61
-62
-64
-65
-67
-66
-68
-68
-68
-70
-71
-73
-74
-77
-77
-79
-80
-81
-82
-82
-83
-83
-85
-84
-84
-85
-84
-85
-84
-84
-83
-82
-82
-81
-81
-80
-77
-72
-69
-63
-59
-54
-50
-45
-41
-37
-32
-28
-25
-22
-18
-16
-14
-12
-10
-9
-7
-6
-5
-5
-4
-3
-3
-2
-1
-1
0
0
0
-1
-1
-2
-2
-3
-4
-4
-5
-5
-5
-6
-7
-8
-9
-9
-10
-11
-10
-10
-11
-11
-10
-10
-10
-9
-9
-9
-9
-8
-7
-6
-6
-5
-4
-3
-3
-4
-4
-3
-3
-1
-2
0
0
0
1
2
3
4
5
6
7
8
8
7
6
6
4
3
3
2
1
0
-1
-2
-2
-2
-2
-1
0
2
2
3
3
4
4
4
4
6
6
8
9
11
12
13
15
16
16
17
24
38
59
84
110
138
163
180
187
186
176
157
138
111
76
22
-28
-64
-78
-76
-66
-53
-41
-33
-28
-24
-21
-20
-19
-19
-20
-20
-20
-19
-20
-21
-22
-22
-22
-22
-22
-23
-23
-23
-24
-25
-26
-26
-27
-28
-30
-30
-30
-31
-31
-33
-33
-35
-35
-36
-36
-37
-38
-39
-41
-42
-43
-44
-45
-46
-46
-47
-48
-50
-50
-51
-52
-53
-54
-55
-57
-59
-61
-62
-62
-62
-61
-62
-62
-62
-62
-62
-61
-60
-58
-54
-51
-49
-46
-43
-39
-35
-31
-27
-23
-20
-16
-13
-9
-8
-5
-2
1
5
9
13
15
19
21
24
26
29
30
32
34
35
37
38
40
39
40
40
41
41
40
40
38
38
38
38
37
37
36
35
35
34
34
32
31
30
30
30
30
30
30
29
27
25
23
21
21
19
18
17
16
15
15
16
17
18
18
18
18
18
18
19
20
21
21
21
21
21
21
22
22
23
22
22
21
22
22
21
21
19
19
18
18
18
18
18
17
16
15
15
14
14
13
12
11
10
10
9
10
9
9
8
8
8
8
8
9
9
9
9
10
10
10
11
12
12
13
14
14
14
15
16
15
15
14
14
13
13
13
11
11
10
9
8
8
8
8
7
5
4
3
2
1
0
0
-1
-1
-1
0
0
1
3
4
5
6
7
7
7
8
8
8
8
8
8
8
8
9
9
9
9
9
8
8
8
8
8
7
7
6
6
6
5
4
4
3
3
2
1
0
0
0
-1
-1
-1
0
0
1
0
0
0
0
0
2
4
4
5
5
5
5
6
6
6
6
6
6
5
5
5
5
6
6
7
8
8
8
8
9
9
10
11
11
11
13
20
35
57
84
111
138
163
177
184
175
160
137
115
88
44
-7
-53
-77
-82
-74
-61
-48
-39
-34
-31
-27
-26
-24
-23
-23
-24
-24
-25
-25
-22
-21
-21
-23
-24
-24
-25
-26
-27
-28
-29
-29
-32
-33
-34
-36
-37
-39
-40
-42
-44
-46
-48
-49
-51
-52
-53
-53
-54
-55
-55
-57
-57
-58
-58
-59
-58
-58
-59
-60
-62
-63
-65
-65
-66
-68
-68
-70
-71
-73
-72
-73
-72
-72
-72
-71
-71
-71
-71
-69
-68
-67
-64
-62
-60
-59
-57
-56
-53
-50
-45
-43
-39
-36
-33
-30
-27
-24
-20
-17
-14
-10
-6
-3
0
3
7
8
11
13
15
16
18
20
20
21
21
22
22
23
22
22
22
22
23
22
22
21
21
20
19
18
17
16
15
14
13
12
12
12
12
11
11
11
11
9
8
7
7
7
6
6
6
6
6
6
5
4
5
4
4
3
3
3
4
5
5
6
6
6
6
6
6
6
7
7
6
6
6
5
5
6
5
4
3
3
2
1
1
0
0
-1
-1
-1
-1
-1
-2
-2
-1
-1
-1
-1
-1
-1
-1
-2
-1
-1
0
-1
-1
-1
-2
-1
-1
-1
0
0
0
0
0
0
0
0
0
0
-1
-1
-1
-2
-2
-2
-3
-4
-5
-6
-6
-7
-8
-8
-8
-9
-10
-11
-11
-12
-12
-11
-12
-12
-11
-11
-12
-13
-14
-14
-13
-13
-13
-13
-12
-12
-11
-10
-10
-9
-9
-9
-9
-11
-11
-12
-12
-13
-13
-14
-14
-15
-15
-15
-14
-14
-13
-11
-10
-10
-10
-10
-10
-10
-10
-11
-12
-14
-14
-15
-15
-15
-15
-14
-14
-15
-15
-15
-14
-12
-11
-10
-10
-10
-11
-12
-12
-12
-12
-11
-11
-11
-11
-12
-12
-13
-12
-13
-13
-13
-13
-12
-10
-8
-7
-5
-4
-3
-3
-2
-1
0
0
-1
-1
-2
-2
-3
-3
-2
-3
-3
-3
-3
-4
-4
-4
-4
-2
-1
0
0
0
-1
-1
-2
-2
-2
-1
-1
-1
0
1
2
2
2
2
2
5
4
5
5
6
6
7
8
10
11
11
10
10
9
9
9
10
9
9
8
8
8
8
9
8
8
8
7
6
6
6
5
5
6
6
6
6
5
6
6
6
6
6
7
7
9
11
16
28
50
76
106
137
167
194
208
212
197
170
138
103
63
10
-38
-73
-86
-82
-70
-56
-45
-37
-32
-29
-26
-25
-23
-24
-24
-25
-26
-27
-27
-26
-28
-30
-31
-33
-35
-36
-37
-39
-40
-41
-43
-43
-45
-44
-44
-43
-44
-45
-45
-46
-46
-48
-48
-51
-51
-51
-52
-53
-54
-54
-55
-55
-56
-55
-56
-57
-59
-62
-64
-66
-68
-69
-71
-73
-76
-77
-80
-81
-82
-83
-83
-84
-85
-86
-86
-87
-85
-84
-84
-83
-82
-81
-81
-79
-77
-75
-73
-70
-67
-63
-60
-57
-53
-50
-46
-44
-41
-37
-34
-31
-29
-25
-23
-19
-16
-13
-10
-8
-6
-4
-2
-1
0
1
2
2
3
4
4
6
8
9
10
11
12
12
12
13
15
16
18
19
20
19
19
18
19
18
17
17
16
14
14
14
15
15
17
17
17
16
15
14
13
13
13
14
14
13
11
11
10
9
9
7
7
6
6
5
4
4
2
1
0
0
0
0
1
1
2
2
2
2
2
1
1
2
2
3
4
5
4
5
6
6
6
6
7
6
7
8
8
8
9
9
8
8
7
7
7
7
8
8
7
6
6
7
8
8
7
6
5
4
3
2
1
0
0
1
1
0
0
-1
0
1
2
2
1
1
0
0
0
0
0
0
0
-1
-2
-3
-3
-3
-2
-2
-3
-3
-4
-4
-4
-4
-3
-2
-2
-2
-2
-1
-1
-1
-1
-1
-3
-4
-5
-6
-6
-7
-8
-10
-11
-11
-12
-13
-14
-15
-15
-15
-15
-15
-14
-14
-14
-15
-15
-15
-14
-12
-11
-11
-10
-10
-9
-9
-8
-8
-7
-5
-5
-5
-5
-6
-6
-6
-6
-6
-7
-7
-7
-6
-5
-4
-2
-1
-1
-1
-1
-2
-4
-5
-5
-6
-7
-7
-7
-8
-8
-7
-8
-8
-9
-9
-8
-7
-4
-2
-1
-1
0
0
1
1
2
2
2
3
2
2
1
2
2
3
4
5
5
5
6
7
8
8
7
6
5
4
5
6
6
5
4
3
2
3
4
3
3
2
2
1
1
2
2
2
3
4
4
4
3
2
2
2
2
3
3
3
3
3
2
2
3
3
4
6
7
7
7
7
8
9
9
9
10
9
8
7
6
7
7
7
7
6
6
5
5
6
7
8
9
15
28
49
73
100
126
155
178
192
193
180
151
117
83
46
1
-47
-84
-101
-99
-87
-71
-56
-45
-38
-35
-32
-28
-27
-25
-24
-23
-22
-21
-21
-21
-21
-22
-23
-23
-24
-25
-26
-25
-26
-27
-28
-30
-30
-31
-31
-32
-32
-33
-33
-34
-35
-36
-38
-39
-41
-42
-42
-44
-46
-48
-48
-49
-49
-50
-51
-52
-53
-54
-56
-57
-58
-58
-57
-55
-56
-58
-57
-57
-57
-58
-59
-61
-63
-63
-64
-65
-67
-69
-69
-69
-68
-69
-68
-68
-66
-65
-62
-60
-57
-55
-53
-49
-47
-42
-40
-37
-34
-30
-25
-21
-16
-13
-8
-4
0
3
6
8
10
13
16
18
20
22
23
25
27
28
29
30
31
31
31
30
30
28
27
26
25
25
24
24
23
22
21
21
21
22
22
21
21
21
21
21
20
19
16
16
15
13
11
9
8
7
7
7
8
7
7
6
5
5
5
5
6
6
6
5
5
3
2
1
1
1
2
2
1
1
0
0
-1
-1
-1
-1
0
-1
-1
-1
-1
-1
0
0
0
0
0
0
0
1
1
1
1
0
0
0
-1
-1
-1
-1
0
0
0
0
0
2
1
2
1
0
0
0
1
0
0
1
2
1
1
2
3
3
2
2
2
1
1
1
1
0
0
-1
-2
-2
-2
-1
-1
-1
-2
-2
-2
-1
-1
-1
-1
-1
-2
-2
-2
-2
-1
-1
-1
-1
-1
-1
-1
0
1
3
3
3
2
2
3
3
4
4
4
2
1
0
0
-1
-2
-2
-3
-3
-4
-4
-4
-5
-5
-5
-5
-5
-5
-3
-4
-4
-4
-3
-3
-3
-3
-5
-6
-7
-7
-7
-7
-7
-7
-7
-9
-9
-8
-5
-2
2
4
5
5
5
5
4
4
6
6
6
7
8
8
8
8
9
9
10
10
10
9
7
7
7
9
11
12
13
14
14
14
21
36
59
89
118
148
172
191
197
191
167
134
97
62
18
-30
-71
-92
-92
-80
-62
-44
-32
-23
-17
-12
-8
-7
-5
-6
-6
-6
-5
-4
-4
-3
-4
-5
-7
-8
-10
-12
-13
-13
-14
-15
-17
-19
-22
-24
-27
-29
-32
-34
-35
-36
-36
-37
-37
-38
-38
-38
-38
-37
-37
-36
-37
-37
-38
-38
-40
-41
-42
-43
-44
-45
-47
-49
-50
-52
-53
-56
-58
-59
-61
-62
-63
-65
-65
-66
-66
-68
-67
-66
-65
-64
-63
-61
-60
-57
-54
-51
-48
-44
-40
-36
-32
-27
-22
-18
-13
-10
-7
-5
-2
1
4
7
11
14
17
19
20
21
22
24
25
26
27
27
27
27
28
27
27
26
25
25
24
24
23
23
22
22
21
20
18
17
16
15
15
16
16
16
16
17
15
15
15
15
16
16
17
16
16
16
16
16
17
17
18
18
18
18
18
18
18
18
20
18
18
17
17
15
14
15
13
13
12
11
11
11
11
12
13
14
14
15
15
15
16
16
16
17
17
16
15
14
13
12
11
11
10
9
8
7
5
4
3
1
0
0
-1
-3
-5
-6
-6
-7
-8
-8
-7
-7
-7
-7
-8
-9
-10
-11
-13
-15
-15
-16
-15
-15
-14
-13
-12
-11
-11
-10
-9
-9
-8
-8
-8
-9
-10
-10
-9
-9
-8
-8
-8
-9
-10
-10
-10
-9
-10
-9
-9
-9
-10
-11
-11
-12
-12
-11
-11
-12
-12
-14
-15
-15
-16
-15
-14
-13
-13
-14
-15
-15
-14
-13
-13
-13
-13
-12
-12
-13
-14
-15
-16
-16
-15
-14
-15
-15
-15
-15
-14
-13
-12
-12
-11
-11
-10
-10
-10
-8
-9
-8
-8
-8
-8
-9
-10
-10
-10
-10
-11
-12
-12
-13
-14
-13
-14
-12
-11
-9
-8
-6
-5
-5
-4
-4
-3
-3
-3
-2
-2
-2
-1
0
0
1
2
3
3
3
4
5
6
7
8
8
8
8
8
9
10
12
11
10
8
8
8
9
11
12
13
13
13
12
13
12
13
14
13
13
12
14
14
15
16
15
14
13
13
13
13
13
13
15
16
19
21
22
22
22
22
21
20
18
17
15
15
15
16
16
17
17
16
16
16
16
15
15
15
14
14
14
15
14
14
15
15
15
14
14
13
12
10
9
7
6
6
4
4
4
4
4
3
3
3
3
2
2
2
1
0
0
1
1
2
2
2
2
2
4
3
4
4
4
4
5
6
7
8
8
9
10
12
12
14
15
15
17
18
21
26
37
48
59
69
67
37
-29
-107
-177
-221
-236
-241
-242
-243
-244
-238
-233
-219
-209
-190
-172
-155
-138
-125
-111
-103
-97
-95
-92
-84
-68
-47
-25
-7
3
10
13
17
18
21
22
24
26
28
29
30
32
32
33
33
33
32
32
34
33
34
33
34
34
35
36
37
38
37
38
37
39
38
39
39
38
38
37
39
39
41
41
43
44
45
46
47
48
49
50
51
52
54
56
59
60
63
63
66
67
69
71
73
75
75
78
79
82
83
84
86
85
87
86
87
86
86
87
85
87
85
85
82
82
81
80
80
76
74
71
70
68
67
66
63
62
59
59
57
57
56
54
53
51
49
47
48
47
47
45
44
43
42
43
43
45
46
48
48
48
49
49
51
51
51
50
49
48
46
45
43
42
40
39
38
37
36
35
34
32
30
28
27
25
25
25
23
22
19
17
16
16
17
15
16
15
15
14
13
12
11
11
12
14
14
14
14
13
14
14
15
15
14
13
13
13
13
13
11
11
11
11
10
8
7
6
6
6
6
5
3
3
2
2
2
1
0
0
0
-1
-1
-1
-1
-1
0
-1
-2
-3
-2
-1
0
2
2
3
3
3
3
4
4
4
4
4
3
2
0
0
-1
0
-1
-1
-2
-3
-5
-6
-6
-7
-8
-9
-11
-12
-14
-14
-15
-15
-15
-15
-16
-18
-19
-20
-21
-22
-22
-22
-23
-24
-24
-24
-24
-24
-23
-22
-21
-20
-19
-20
-19
-19
-18
-17
-16
-14
-13
-11
-10
-10
-10
-10
-10
-9
-8
-7
-8
-9
-10
-11
-9
-10
-10
-11
-11
-12
-12
-13
-14
-14
-16
-15
-15
-14
-14
-14
-14
-15
-16
-16
-16
-15
-15
-13
-14
-14
-14
-16
-17
-18
-17
-18
-19
-19
-19
-19
-19
-18
-18
-18
-18
-19
-19
-19
-19
-19
-18
-18
-17
-17
-17
-18
-18
-19
-20
-20
-20
-20
-21
-22
-23
-23
-23
-23
-23
-23
-23
-23
-23
-23
-24
-24
-24
-24
-24
-23
-24
-26
-27
-27
-28
-28
-29
-31
-32
-32
-33
-33
-33
-33
-33
-33
-34
-35
-36
-36
-36
-35
-34
-35
-35
-35
-36
-36
-37
-37
-38
-38
-38
-38
-37
-37
-37
-37
-37
-38
-37
-37
-37
-37
-37
-35
-36
-35
-34
-33
-33
-33
-33
-35
-35
-36
-37
-38
-38
-39
-40
-39
-40
-39
-38
-37
-36
-34
-31
-29
-27
-25
-19
-5
18
44
77
107
140
166
183
188
175
146
108
69
29
-20
-67
-103
-119
-116
-106
-90
-77
-67
-61
-57
-54
-53
-52
-53
-52
-53
-52
-53
-52
-50
-50
-49
-50
-49
-50
-50
-52
-53
-53
-54
-54
-55
-54
-56
-56
-57
-58
-58
-58
-58
-59
-59
-60
-61
-61
-62
-63
-65
-65
-67
-69
-70
-72
-74
-76
-78
-80
-80
-82
-83
-84
-85
-86
-88
-88
-90
-91
-92
-93
-96
-98
-97
-99
-98
-98
-97
-99
-99
-98
-98
-96
-95
-94
-92
-90
-87
-85
-81
-80
-77
-75
-71
-68
-66
-62
-59
-54
-50
-46
-43
-40
-37
-33
-29
-26
-23
-19
-16
-13
-10
-8
-5
-3
0
1
3
5
7
8
10
12
13
16
18
21
23
25
26
26
27
26
27
27
26
26
25
25
23
23
22
22
22
21
21
19
18
16
15
14
13
13
12
11
10
9
8
8
8
7
6
5
5
5
6
6
7
7
7
7
6
5
5
5
5
4
4
4
5
5
5
4
4
4
4
3
3
3
3
3
3
3
3
3
3
3
3
1
1
0
0
0
-1
-1
-2
-3
-3
-4
-5
-5
-6
-6
-6
-6
-6
-6
-6
-6
-6
-4
-4
-4
-4
-4
-4
-4
-3
-4
-4
-3
-3
-2
-2
-2
-2
-2
-3
-3
-3
-3
-3
-3
-3
-3
-4
-4
-5
-6
-7
-7
-7
-8
-9
-8
-9
-8
-9
-9
-9
-9
-9
-8
-8
-8
-8
-7
-7
-7
-6
-6
-6
-5
-6
-6
-7
-7
-7
-8
-7
-8
-8
-9
-10
-11
-11
-11
-13
-14
-15
-16
-17
-17
-17
-16
-15
-15
-15
-14
-13
-12
-11
-9
-10
-11
-11
-12
-11
-11
-10
-10
-10
-9
-8
-8
-7
-7
-6
-6
-5
-5
-6
-6
-7
-7
-7
-8
-9
-10
-11
-12
-12
-14
-14
-13
-13
-12
-10
-8
-8
-9
-9
-10
-10
-10
-10
-9
-9
-10
-10
-10
-9
-9
-9
-8
-9
-10
-10
-9
-8
-7
-5
-4
-3
-3
-2
-1
-1
0
0
0
-1
-1
-1
-1
-2
-2
-2
-4
-4
-4
-3
-3
-2
-1
0
1
3
6
7
8
9
14
26
47
72
101
131
158
181
189
186
166
137
108
72
29
-24
-66
-88
-90
-79
-64
-50
-42
-37
-33
-30
-27
-25
-24
-23
-22
-21
-21
-21
-21
-22
-23
-24
-25
-26
-26
-27
-28
-28
-27
-29
-30
-31
-32
-33
-34
-34
-35
-36
-38
-40
-40
-42
-42
-43
-43
-44
-45
-45
-47
-47
-48
-48
-50
-51
-51
-52
-54
-56
-57
-61
-63
-67
-70
-73
-76
-77
-80
-81
-83
-81
-80
-78
-76
-74
-71
-70
-68
-67
-66
-64
-62
-61
-60
-57
-55
-51
-48
-44
-41
-38
-34
-30
-26
-22
-18
-15
-11
-8
-4
0
3
5
8
11
11
12
12
13
14
15
16
15
15
14
13
11
11
10
9
9
8
8
7
8
8
10
11
12
13
14
15
14
15
15
15
15
14
13
13
13
11
11
9
8
7
6
4
4
3
2
2
1
1
1
1
1
0
-1
-2
-2
-3
-3
-2
-4
-5
-7
-8
-9
-9
-8
-7
-5
-3
-2
0
0
0
0
1
1
2
2
2
1
0
1
1
2
2
2
2
1
1
0
1
1
1
1
2
1
1
1
0
0
0
0
1
2
2
1
1
1
1
1
1
1
1
2
3
3
3
4
4
4
4
5
6
6
7
7
8
9
10
11
11
11
11
12
11
10
9
9
9
9
9
8
8
7
7
6
6
6
7
8
8
9
9
9
7
6
6
5
4
3
3
3
4
4
4
5
5
5
5
6
5
5
5
6
6
6
6
6
6
5
4
3
3
2
2
3
2
2
1
2
2
3
4
5
7
7
7
6
6
6
7
7
7
7
8
8
8
9
10
13
24
42
70
96
128
157
182
202
207
203
180
148
116
80
35
-19
-63
-83
-86
-75
-60
-45
-35
-28
-24
-20
-17
-15
-13
-13
-13
-13
-14
-15
-15
-15
-15
-16
-16
-17
-18
-19
-20
-22
-22
-23
-23
-24
-24
-25
-26
-27
-29
-29
-29
-30
-30
-30
-31
-32
-32
-33
-33
-34
-36
-36
-38
-38
-39
-40
-41
-43
-45
-46
-49
-51
-52
-55
-58
-61
-62
-65
-68
-70
-72
-73
-75
-75
-77
-77
-77
-78
-77
-77
-76
-76
-74
-73
-71
-69
-68
-64
-62
-57
-54
-50
-45
-42
-37
-33
-29
-26
-23
-19
-16
-13
-11
-9
-7
-6
-5
-5
-3
-1
0
2
3
4
5
6
7
8
10
11
12
12
13
13
13
14
13
13
13
13
13
14
14
15
16
16
17
16
17
16
16
16
15
14
13
13
12
12
11
10
10
9
9
8
7
6
6
5
5
4
3
3
2
3
2
1
1
1
0
0
0
0
0
0
0
0
0
1
1
2
3
3
3
3
3
3
3
3
3
3
3
3
3
4
4
5
5
6
6
7
8
8
8
7
6
6
5
5
4
4
4
4
5
6
7
8
8
8
9
9
10
9
9
9
8
8
8
8
8
9
9
10
10
11
12
12
12
11
11
10
9
8
8
7
7
7
7
6
5
5
4
3
3
1
0
0
0
0
0
-1
-1
0
-1
0
0
0
0
0
-1
-1
-2
-2
-2
-3
-4
-4
-5
-6
-6
-7
-8
-8
-8
-10
-11
-13
-14
-15
-16
-17
-19
-19
-20
-21
-21
-21
-20
-20
-19
-19
-19
-19
-19
-18
-18
-18
-18
-17
-16
-16
-15
-15
-15
-15
-13
-12
-10
-10
-9
-8
-7
-7
-7
-8
-8
-8
-8
-7
-8
-8
-8
-8
-8
-8
-7
-7
-6
-6
-6
-6
-5
-5
-5
-4
-4
-4
-5
-5
-5
-4
-3
-3
-3
-3
-3
-3
-2
0
1
1
0
0
0
0
0
2
3
4
5
4
5
5
6
6
7
7
8
8
8
9
9
9
8
8
7
7
7
7
6
5
4
4
3
3
4
4
3
3
3
3
3
3
4
3
4
4
4
5
6
8
9
9
9
9
9
8
8
8
9
9
9
9
9
8
8
8
7
7
6
5
3
1
1
0
-2
-3
-5
-5
-6
-6
-8
-9
-9
-10
-10
-11
-11
-11
-11
-12
-12
-11
-11
-10
-9
-9
-9
-9
-9
-8
-8
-7
-7
-7
-6
-6
-6
-6
-5
-5
-4
-3
-2
-1
-1
-1
-1
0
1
2
5
15
32
53
79
102
131
153
170
174
167
146
116
85
50
4
-42
-83
-100
-100
-89
-73
-59
-49
-43
-38
-35
-32
-31
-31
-30
-30
-30
-30
-30
-32
-33
-35
-35
-36
-36
-36
-36
-35
-35
-34
-33
-34
-33
-33
-33
-34
-33
-34
-35
-36
-35
-35
-36
-36
-37
-39
-41
-42
-42
-43
-43
-44
-44
-46
-48
-50
-52
-53
-54
-55
-57
-59
-60
-61
-64
-66
-66
-68
-70
-72
-72
-74
-75
-74
-74
-72
-71
-69
-68
-67
-65
-63
-60
-59
-57
-56
-53
-51
-48
-45
-42
-38
-35
-30
-27
-23
-21
-19
-17
-14
-11
-9
-7
-5
-4
-3
-1
0
2
4
5
6
6
5
4
3
2
4
6
7
7
7
9
8
9
10
11
13
14
14
14
14
13
13
13
13
12
12
12
9
7
5
4
2
1
0
-1
-2
-3
-4
-4
-4
-4
-5
-6
-7
-7
-9
-9
-9
-9
-8
-8
-8
-7
-6
-4
-4
-3
-3
-3
-2
-2
-2
-1
-1
-1
0
0
0
0
0
-1
-1
-2
-1
-1
-2
-3
-4
-4
-5
-5
-5
-4
-4
-4
-4
-5
-6
-6
-6
-6
-5
-4
-5
-4
-5
-5
-5
-4
-3
-3
-2
-3
-4
-4
-5
-5
-5
-5
-7
-8
-8
-8
-9
-9
-9
-10
-10
-10
-10
-10
-10
-10
-10
-10
-10
-10
-10
-9
-8
-7
-6
-5
-3
-3
-3
-2
-1
-1
-1
-1
-1
-2
-3
-3
-4
-3
-3
-4
-4
-4
-3
-3
-3
-3
-4
-4
-5
-5
-5
-4
-5
-5
-4
-4
-4
-5
-4
-6
-7
-8
-9
-9
-10
-11
-12
-13
-14
-14
-14
-15
-15
-14
-12
-10
-8
-7
-5
-4
-3
-1
-1
-1
0
0
0
-1
0
0
1
2
3
4
5
7
15
31
56
85
115
144
166
182
184
175
147
117
86
50
3
-45
-77
-87
-83
-68
-53
-41
-33
-28
-24
-22
-20
-20
-20
-20
-19
-19
-19
-19
-18
-17
-16
-14
-14
-13
-13
-12
-12
-12
-12
-13
-13
-13
-13
-13
-13
-14
-14
-14
-15
-15
-16
-17
-17
-18
-18
-20
-21
-23
-24
-26
-27
-29
-31
-33
-36
-37
-39
-41
-42
-44
-45
-47
-49
-51
-52
-54
-55
-55
-55
-54
-54
-55
-54
-54
-54
-54
-52
-51
-48
-46
-43
-41
-38
-35
-34
-30
-28
-25
-23
-19
-17
-14
-12
-8
-6
-3
-1
0
2
3
4
6
7
8
8
8
8
9
10
11
12
14
15
15
16
16
18
18
19
20
21
22
22
22
22
22
21
21
20
19
18
17
16
15
15
15
14
13
12
12
12
12
12
11
11
10
9
8
7
6
4
2
1
0
0
0
-1
-1
-1
0
0
0
1
1
2
1
2
2
2
3
2
3
3
4
3
4
4
4
5
4
4
4
4
3
3
3
4
4
4
4
3
2
2
2
1
1
1
0
0
0
0
0
0
-1
-1
-1
-1
-1
-1
-2
-2
-2
-2
-2
-3
-4
-4
-4
-4
-4
-3
-3
-2
-1
0
0
0
-1
-1
0
0
-1
-2
-2
-3
-3
-3
-3
-3
-3
-4
-4
-5
-5
-4
-5
-4
-4
-4
-5
-5
-5
-5
-5
-5
-6
-6
-7
-7
-7
-7
-8
-8
-8
-8
-8
-7
-6
-6
-6
-6
-6
-6
-5
-5
-5
-5
-5
-6
-6
-6
-7
-7
-8
-9
-10
-11
-10
-10
-10
-12
-12
-12
-12
-11
-10
-10
-9
-7
-6
-5
-4
-4
-3
1
16
36
63
89
119
143
163
174
171
158
131
102
73
36
-11
-61
-93
-103
-99
-85
-70
-57
-50
-45
-43
-41
-39
-40
-40
-41
-41
-42
-42
-41
-41
-40
-40
-40
-41
-41
-42
-43
-43
-44
-45
-45
-45
-45
-44
-44
-44
-44
-44
-43
-43
-41
-41
-41
-41
-42
-43
-43
-44
-45
-45
-46
-47
-48
-50
-50
-53
-53
-55
-58
-59
-62
-63
-66
-67
-70
-70
-72
-73
-75
-77
-77
-78
-77
-77
-75
-76
-75
-74
-73
-71
-70
-67
-66
-63
-61
-59
-56
-54
-51
-48
-45
-43
-41
-38
-35
-30
-26
-22
-19
-15
-12
-9
-7
-5
-3
-1
0
1
2
3
4
5
7
7
7
9
10
11
12
13
13
14
14
15
15
15
16
17
18
18
19
19
19
19
19
21
21
22
22
23
23
24
25
24
23
21
20
18
18
18
17
16
15
14
11
11
10
10
10
9
9
9
10
10
10
10
10
11
12
12
12
12
11
11
11
10
10
10
10
9
9
8
8
8
8
9
9
10
9
8
8
8
7
7
6
4
3
1
0
0
0
0
-1
-2
-2
-3
-3
-3
-3
-3
-3
-3
-3
-4
-4
-4
-4
-3
-2
-1
-2
-2
-2
-2
-1
-1
0
1
2
3
3
3
3
3
4
5
6
6
6
6
6
6
6
7
7
6
6
5
4
3
1
0
0
0
0
0
-1
-1
-1
-1
-1
-1
-1
-1
-1
-1
-1
-1
-1
0
0
0
1
1
1
3
4
3
4
4
5
4
4
4
4
5
4
4
3
2
0
0
0
0
0
-1
-2
-2
-3
-3
-5
-6
-7
-7
-7
-8
-7
-8
-8
-8
-8
-7
-7
-6
-5
-4
-4
-3
-3
-2
-1
0
1
2
4
4
5
6
7
7
8
7
8
8
8
8
8
9
9
10
10
10
9
9
9
8
8
7
7
7
8
9
9
9
10
12
12
13
14
13
12
11
11
11
11
11
11
12
13
13
13
14
14
15
17
18
19
20
21
21
22
22
22
22
23
24
24
25
25
30
42
62
88
114
142
169
195
208
212
196
170
136
104
67
19
-31
-68
-83
-81
-69
-53
-40
-30
-23
-19
-16
-14
-13
-13
-13
-14
-15
-15
-16
-16
-16
-16
-17
-17
-17
-18
-18
-17
-16
-17
-17
-18
-18
-19
-20
-21
-22
-23
-24
-25
-26
-27
-29
-31
-32
-34
-35
-35
-37
-38
-40
-41
-43
-45
-46
-47
-49
-50
-51
-53
-55
-55
-56
-56
-57
-57
-57
-56
-56
-57
-59
-62
-64
-64
-65
-65
-66
-66
-67
-67
-66
-67
-66
-64
-64
-63
-63
-61
-60
-59
-57
-55
-52
-49
-46
-43
-40
-36
-32
-28
-25
-21
-17
-13
-10
-8
-4
-1
0
3
5
6
7
8
10
11
12
12
13
13
13
13
13
13
14
14
14
13
13
13
12
11
11
10
9
7
7
6
5
5
5
5
4
4
4
3
3
2
3
2
1
0
0
-1
-1
-1
-3
-3
-3
-3
-3
-2
-1
-2
-1
-2
-2
-3
-4
-5
-6
-7
-8
-8
-8
-8
-9
-9
-8
-9
-9
-9
-8
-8
-8
-7
-8
-8
-9
-9
-9
-8
-8
-8
-8
-8
-8
-8
-8
-9
-10
-11
-12
-13
-13
-12
-12
-11
-11
-10
-10
-10
-10
-10
-8
-8
-8
-8
-8
-7
-8
-8
-8
-8
-9
-8
-7
-6
-6
-6
-6
-6
-6
-6
-7
-7
-8
-7
-9
-9
-10
-11
-11
-10
-10
-10
-9
-9
-9
-10
-10
-9
-8
-7
-7
-6
-7
-7
-8
-8
-7
-8
-7
-8
-7
-6
-5
-4
-3
-3
-3
-2
-2
-1
0
0
0
0
-1
-1
-1
-2
-3
-4
-4
-4
-5
-6
-7
-7
-8
-8
-9
-9
-9
-9
-9
-9
-7
-6
-5
-4
-3
-3
-2
-2
-1
0
0
2
3
4
5
4
5
5
6
6
8
10
9
12
20
37
61
90
117
146
167
181
182
168
144
109
80
42
-3
-49
-82
-94
-88
-75
-58
-45
-35
-29
-25
-21
-19
-18
-17
-16
-16
-16
-17
-17
-19
-20
-21
-22
-23
-24
-25
-26
-26
-26
-26
-27
-28
-28
-29
-29
-31
-32
-33
-33
-33
-34
-35
-36
-37
-38
-39
-39
-41
-42
-43
-45
-47
-48
-48
-49
-50
-52
-52
-54
-55
-56
-58
-59
-61
-63
-66
-67
-70
-72
-73
-75
-75
-76
-76
-77
-76
-75
-74
-72
-71
-69
-68
-65
-63
-61
-58
-55
-51
-47
-43
-39
-36
-32
-29
-26
-22
-18
-14
-11
-7
-4
-1
1
3
5
7
9
10
11
12
11
10
9
9
8
8
8
7
7
6
6
6
7
7
7
7
6
6
6
6
6
6
6
5
5
4
4
3
3
3
3
2
1
1
1
0
0
0
0
0
-2
-3
-4
-5
-6
-7
-8
-9
-10
-10
-9
-9
-10
-11
-11
-12
-11
-10
-7
-5
-2
0
1
1
1
1
1
3
3
4
4
4
4
4
4
3
2
1
1
0
0
-1
-2
-2
-3
-3
-4
-4
-5
-5
-5
-5
-5
-5
-5
-5
-5
-5
-6
-6
-5
-4
-4
-3
-2
-2
0
3
15
36
63
95
127
157
182
195
196
183
156
124
85
43
-11
-59
-93
-104
-98
-82
-65
-51
-43
-37
-33
-29
-27
-27
-27
-27
-28
-28
-29
-30
-31
-32
-33
-33
-35
-35
-36
-36
-37
-37
-36
-36
-35
-36
-34
-35
-36
-36
-37
-38
-40
-40
-42
-43
-45
-46
-47
-49
-50
-52
-54
-56
-58
-60
-63
-65
-67
-69
-72
-73
-74
-75
-76
-77
-77
-79
-79
-82
-82
-83
-84
-85
-85
-84
-84
-83
-81
-79
-77
-75
-72
-70
-65
-62
-59
-55
-51
-48
-44
-40
-37
-33
-29
-25
-22
-19
-16
-14
-11
-8
-6
-4
-2
-2
0
1
3
4
6
8
8
9
9
10
11
12
13
14
13
13
14
14
15
16
16
17
18
18
19
20
20
22
22
22
22
23
23
23
24
23
24
23
23
22
21
20
19
18
18
19
19
20
21
22
24
24
26
26
27
28
28
29
27
26
25
24
23
22
22
20
19
17
16
14
13
12
12
12
12
12
12
13
13
14
15
14
14
14
15
14
15
16
16
16
16
16
16
17
16
16
17
18
19
19
20
19
20
20
20
20
20
21
21
22
21
21
20
20
20
19
19
18
17
16
15
14
13
13
12
12
11
11
10
10
10
10
11
11
12
13
13
12
13
14
13
14
14
14
13
12
12
11
11
11
11
11
10
9
8
9
10
10
9
9
8
7
6
5
4
4
3
2
2
2
1
1
0
0
0
0
0
0
-1
-1
-2
-3
-3
-3
-2
-2
-2
-1
-2
-2
-2
-1
-1
0
0
1
1
2
3
3
3
4
4
5
5
5
6
8
7
8
8
8
7
7
7
5
5
5
5
5
5
6
5
4
4
4
3
3
2
2
1
1
1
1
1
1
2
2
2
3
3
4
4
6
6
6
6
6
5
5
4
4
5
6
7
8
8
9
10
11
11
13
14
15
16
16
18
18
18
18
19
19
20
21
21
21
21
21
20
20
20
20
20
20
20
20
21
20
20
21
20
21
19
19
18
17
18
18
19
19
20
20
22
22
23
24
24
24
23
24
24
25
25
24
23
22
21
21
21
19
19
18
17
16
16
15
14
13
12
12
12
12
12
12
13
13
15
20
32
51
73
97
118
145
163
175
175
167
150
126
103
73
29
-19
-62
-84
-88
-80
-65
-51
-41
-35
-31
-28
-26
-25
-24
-24
-24
-24
-25
-25
-27
-28
-28
-29
-30
-31
-31
-32
-33
-33
-33
-33
-34
-35
-37
-39
-41
-42
-42
-43
-44
-45
-46
-47
-47
-47
-48
-48
-49
-50
-51
-53
-56
-57
-56
-56
-57
-58
-58
-59
-60
-62
-63
-65
-66
-68
-71
-72
-73
-75
-76
-76
-77
-78
-78
-78
-77
-76
-75
-75
-75
-73
-72
-69
-68
-65
-64
-62
-61
-61
-59
-58
-55
-52
-49
-47
-44
-42
-39
-35
-32
-28
-26
-23
-20
-17
-14
-12
-8
-6
-4
-2
-1
0
1
2
2
2
2
2
1
1
0
0
0
0
0
1
1
1
1
0
0
0
0
0
0
-1
-1
-2
-3
-4
-5
-5
-6
-6
-6
-8
-8
-8
-8
-7
-7
-6
-7
-8
-9
-10
-10
-11
-11
-11
-11
-12
-12
-12
-13
-14
-14
-15
-15
-16
-17
-18
-19
-20
-21
-22
-22
-22
-23
-23
-23
-22
-22
-21
-20
-19
-18
-18
-17
-17
-17
-17
-16
-15
-13
-12
-10
-9
-6
0
15
38
64
95
122
149
166
175
171
157
130
97
58
12
-43
-90
-117
-124
-116
-102
-87
-75
-66
-62
-58
-56
-53
-52
-50
-50
-50
-49
-49
-47
-46
-44
-43
-41
-39
-39
-38
-38
-36
-36
-35
-34
-34
-34
-36
-37
-39
-41
-42
-44
-45
-47
-49
-52
-53
-56
-58
-60
-62
-64
-67
-69
-72
-72
-73
-74
-74
-76
-76
-78
-78
-78
-78
-78
-78
-79
-80
-80
-81
-80
-81
-80
-81
-81
-80
-81
-79
-78
-76
-75
-73
-70
-68
-65
-62
-59
-56
-51
-47
-44
-40
-35
-31
-27
-23
-21
-18
-15
-13
-12
-10
-8
-6
-4
-1
1
2
4
5
5
6
7
9
10
11
12
13
13
13
13
13
14
14
15
14
14
14
14
14
14
13
13
13
12
12
11
11
10
10
10
10
10
9
10
9
9
10
9
9
9
9
10
10
10
10
11
11
12
12
13
13
14
16
17
17
17
18
18
18
19
17
16
15
15
12
9
4
1
2
8
20
35
50
59
56
30
-9
-52
-85
-110
-130
-148
-162
-171
-169
-161
-147
-130
-111
-88
-63
-37
-18
-5
0
3
4
6
7
9
10
10
11
12
13
13
15
15
16
16
17
19
19
20
21
23
25
27
29
31
32
33
35
34
34
33
33
32
31
31
31
30
29
29
30
29
29
28
28
28
28
28
27
26
26
26
26
27
27
27
26
27
27
28
30
31
33
34
35
36
37
37
38
39
39
41
42
44
45
45
45
43
43
41
40
39
38
37
36
37
36
36
35
36
36
37
39
39
41
41
42
42
43
44
44
44
44
45
44
45
43
43
43
41
41
40
40
38
38
36
35
33
31
30
29
30
28
27
26
26
25
25
26
25
25
24
23
22
21
20
19
20
21
22
21
20
19
19
20
20
20
20
19
18
18
19
17
17
15
15
13
13
12
11
11
11
11
11
11
10
10
10
10
11
12
15
16
17
18
18
18
18
19
19
19
19
18
17
16
16
15
16
15
15
14
13
12
11
11
11
11
11
10
10
10
10
11
12
11
10
9
8
7
5
5
4
4
3
3
3
4
4
5
6
7
7
7
7
7
6
7
6
7
8
9
9
9
9
8
8
7
6
5
4
3
1
0
0
0
0
0
0
-1
-1
-2
-2
-2
-2
-2
-2
-2
-3
-3
-3
-3
-2
-3
-3
-3
-3
-4
-3
-4
-4
-5
-5
-5
-4
-4
-4
-4
-4
-4
-5
-5
-5
-5
-5
-5
-3
-3
-1
-1
0
0
0
0
1
1
1
2
2
3
4
5
7
8
13
23
42
66
92
120
144
167
177
179
165
141
112
82
48
1
-49
-81
-96
-91
-79
-64
-52
-44
-38
-36
-33
-31
-29
-30
-30
-30
-30
-31
-32
-31
-33
-34
-35
-36
-36
-37
-37
-38
-39
-41
-41
-42
-43
-43
-44
-43
-44
-43
-43
-42
-43
-43
-45
-46
-47
-50
-51
-51
-52
-52
-53
-53
-54
-54
-54
-56
-58
-59
-60
-62
-62
-64
-64
-65
-66
-67
-69
-68
-70
-69
-71
-71
-73
-73
-73
-72
-71
-70
-68
-67
-65
-64
-63
-61
-60
-58
-56
-53
-51
-48
-45
-43
-39
-35
-31
-29
-26
-24
-21
-18
-16
-13
-9
-5
-2
0
3
5
7
10
11
13
15
16
17
18
20
20
22
23
24
25
26
26
25
24
23
23
22
20
19
17
16
14
13
11
10
8
7
7
5
4
3
2
2
2
3
3
3
2
1
0
-1
-2
-3
-3
-4
-3
-3
-2
-2
-2
-2
-2
-2
-2
-3
-4
-5
-5
-5
-6
-7
-7
-8
-8
-9
-9
-10
-10
-10
-10
-10
-10
-10
-11
-11
-11
-11
-11
-10
-9
-9
-9
-9
-8
-7
-6
-5
-6
-6
-6
-6
-6
-5
-4
-3
-2
-2
-1
-1
-1
-1
-1
-1
-2
-1
-1
-1
-2
-3
-3
-5
-6
-6
-7
-8
-8
-8
-9
-8
-8
-7
-6
-6
-6
-5
-5
-6
-5
-4
-3
-3
-2
-2
-2
-2
-2
-1
-1
-1
-1
-1
-2
-2
-3
-3
-3
-3
-3
-4
-4
-4
-5
-5
-6
-5
-6
-5
-5
-6
-7
-7
-7
-8
-8
-8
-8
-8
-8
-7
-8
-8
-9
-9
-9
-9
-9
-9
-9
-9
-8
-8
-7
-7
-6
-6
-6
-6
-6
-6
-6
-5
-4
-4
-4
-4
-4
-4
-5
-5
-5
-5
-5
-5
-5
-6
-6
-6
-6
-6
-6
-6
-5
-3
-2
-2
-1
0
0
2
4
10
21
43
69
97
125
150
171
181
181
164
134
98
66
29
-15
-62
-91
-101
-93
-77
-58
-43
-33
-29
-25
-22
-21
-20
-20
-20
-20
-20
-20
-20
-20
-20
-20
-19
-18
-19
-18
-18
-18
-19
-19
-19
-20
-20
-21
-22
-23
-24
-25
-27
-27
-29
-30
-30
-32
-32
-33
-34
-35
-35
-36
-36
-37
-38
-40
-42
-43
-45
-46
-47
-48
-51
-54
-56
-59
-61
-63
-64
-66
-68
-69
-70
-71
-71
-72
-72
-72
-72
-72
-70
-70
-69
-68
-66
-64
-62
-59
-57
-55
-51
-47
-45
-41
-37
-33
-29
-26
-23
-20
-17
-15
-12
-10
-8
-6
-3
-1
0
2
5
7
10
12
14
16
16
17
18
18
19
19
21
21
22
23
23
24
24
25
25
25
25
25
24
24
25
24
23
23
22
21
20
20
18
17
16
16
15
16
16
16
16
15
15
14
15
15
16
17
15
14
13
13
12
12
13
12
12
11
11
11
12
12
12
12
12
13
13
14
14
15
15
14
14
13
13
12
11
11
10
9
7
5
3
2
1
0
0
-1
-2
-4
-6
-7
-9
-10
-10
-11
-11
-11
-11
-12
-13
-13
-13
-13
-13
-13
-12
-14
-14
-14
-14
-13
-13
-13
-12
-12
-12
-12
-12
-12
-11
-11
-9
-9
-9
-9
-10
-10
-10
-9
-10
-11
-12
-13
-13
-14
-14
-14
-14
-13
-13
-13
-13
-13
-13
-12
-12
-10
-10
-9
-10
-10
-10
-11
-12
-11
-11
-10
-10
-11
-11
-11
-12
-11
-11
-10
-10
-9
-9
-8
-8
-8
-7
-6
-5
-6
-6
-7
-8
-9
-9
-8
-9
-9
-10
-10
-10
-11
-10
-10
-10
-9
-8
-7
-7
-7
-7
-7
-8
-8
-9
-9
-9
-9
-9
-9
-8
-8
-7
-6
-6
-5
-4
-3
-2
0
0
2
2
2
2
3
3
4
4
4
4
3
4
4
4
5
5
7
7
8
8
8
7
7
7
7
7
7
8
8
8
8
10
11
11
12
11
12
12
12
14
14
15
16
17
17
17
18
18
19
19
19
19
19
18
18
18
17
17
16
16
15
13
12
10
9
9
9
8
7
7
6
5
5
5
5
5
5
5
5
5
5
4
5
5
5
5
6
6
7
7
8
8
7
7
7
7
7
7
8
7
8
8
9
8
8
8
8
8
7
7
6
6
5
5
6
5
5
5
5
4
4
5
4
4
4
4
4
5
6
6
6
5
6
7
9
10
12
15
18
22
29
40
50
60
66
58
19
-49
-121
-179
-210
-216
-223
-224
-226
-220
-209
-198
-183
-170
-150
-134
-117
-104
-93
-87
-85
-83
-79
-64
-44
-22
-7
2
6
8
10
12
14
16
18
19
22
24
26
27
28
28
29
30
30
31
32
34
35
37
39
38
40
40
42
42
43
43
42
42
40
40
39
40
39
40
40
40
41
40
41
40
41
41
42
43
45
48
51
54
55
57
58
60
61
62
65
66
70
72
75
76
78
79
80
82
82
83
83
84
85
85
87
86
87
86
86
85
85
85
84
84
82
82
79
77
75
73
71
68
67
65
64
62
62
63
61
61
59
60
59
60
59
58
57
56
56
54
55
53
52
51
49
47
44
44
42
42
40
39
37
34
32
30
28
26
24
22
20
17
15
14
12
11
9
8
6
5
4
3
2
0
-1
-2
-3
-4
-4
-4
-5
-5
-5
-4
-4
-3
-1
-3
-3
-3
-4
-4
-6
-6
-8
-8
-9
-9
-9
-10
-11
-12
-11
-12
-12
-12
-13
-14
-15
-15
-16
-17
-17
-18
-17
-17
-16
-18
-18
-18
-19
-19
-19
-18
-19
-18
-17
-17
-17
-16
-16
-17
-17
-17
-17
-16
-15
-14
-13
-13
-13
-14
-15
-17
-17
-17
-17
-17
-17
-17
-18
-19
-20
-20
-20
-21
-21
-22
-22
-23
-22
-21
-22
-22
-23
-23
-23
-24
-23
-24
-24
-24
-23
-22
-21
-20
-20
-19
-19
-18
-18
-18
-19
-20
-21
-22
-23
-23
-24
-23
-23
-22
-23
-23
-23
-24
-24
-23
-23
-22
-22
-22
-21
-20
-19
-18
-18
-17
-17
-16
-16
-15
-15
-14
-15
-14
-14
-12
-12
-11
-10
-10
-9
-9
-8
-8
-7
-7
-6
-6
-5
-5
-4
-4
-4
-3
0
10
29
52
81
106
134
154
164
163
143
114
77
42
1
-48
-86
-106
-106
-91
-76
-61
-52
-46
-42
-40
-38
-38
-37
-36
-35
-35
-35
-35
-35
-35
-35
-35
-37
-38
-40
-41
-42
-43
-43
-44
-46
-47
-48
-48
-50
-51
-51
-52
-53
-54
-55
-56
-57
-58
-60
-62
-63
-65
-66
-68
-68
-71
-73
-75
-77
-78
-81
-83
-86
-89
-92
-95
-96
-99
-100
-102
-101
-102
-103
-102
-103
-101
-102
-101
-103
-103
-103
-104
-102
-102
-100
-101
-99
-99
-98
-96
-95
-92
-92
-89
-88
-84
-81
-79
-75
-72
-68
-66
-62
-59
-56
-54
-52
-49
-47
-45
-43
-40
-38
-36
-34
-33
-31
-30
-28
-27
-25
-24
-22
-21
-21
-21
-20
-20
-19
-18
-19
-20
-20
-20
-19
-19
-18
-19
-19
-19
-20
-20
-20
-21
-21
-21
-22
-22
-23
-24
-25
-25
-26
-27
-28
-29
-30
-31
-32
-31
-31
-30
-30
-29
-29
-29
-30
-30
-28
-27
-25
-24
-23
-23
-22
-22
-22
-22
-22
-22
-22
-21
-21
-22
-22
-23
-24
-24
-24
-24
-25
-25
-25
-25
-24
-24
-23
-22
-23
-24
-24
-24
-25
-26
-25
-27
-27
-28
-28
-28
-28
-27
-26
-25
-24
-22
-21
-20
-19
-18
-18
-17
-17
-16
-16
-16
-16
-16
-16
-15
-15
-15
-16
-16
-16
-16
-16
-16
-16
-16
-16
-16
-16
-17
-17
-17
-17
-17
-17
-17
-18
-19
-19
-19
-19
-18
-17
-16
-15
-14
-12
-9
-7
-4
-4
-2
-1
0
0
0
0
0
1
0
0
0
1
0
0
1
1
1
1
1
1
2
6
16
34
57
83
108
136
155
169
170
156
131
95
63
25
-21
-64
-95
-102
-94
-79
-60
-46
-36
-30
-26
-23
-21
-19
-18
-18
-18
-18
-18
-18
-18
-18
-18
-19
-19
-19
-19
-19
-20
-21
-21
-23
-23
-23
-23
-24
-25
-25
-27
-28
-29
-30
-30
-31
-32
-34
-35
-36
-36
-36
-37
-37
-38
-39
-40
-42
-42
-44
-44
-45
-45
-47
-48
-49
-50
-51
-52
-52
-54
-55
-56
-56
-56
-57
-57
-57
-56
-56
-56
-55
-55
-54
-53
-51
-49
-46
-44
-43
-42
-40
-37
-35
-31
-29
-26
-23
-21
-19
-16
-13
-11
-7
-4
-1
1
4
6
8
10
11
12
13
16
16
16
17
18
19
19
20
20
22
22
23
23
23
23
24
24
24
24
22
21
20
19
19
18
18
17
16
14
14
14
14
14
14
14
13
13
13
12
11
10
10
9
9
9
9
8
8
8
8
8
7
8
7
7
6
5
5
4
4
4
5
4
4
3
3
3
3
4
3
3
3
2
1
1
1
0
0
-1
-1
-1
0
0
-1
0
-1
-1
-2
-2
-2
-3
-2
-2
-2
-1
-1
0
0
1
1
1
0
0
-1
-2
-2
-4
-5
-5
-5
-5
-4
-3
-2
-2
-2
-1
-1
-1
0
0
0
0
-1
-1
-2
-3
-2
-2
-2
-1
-1
0
0
1
0
2
2
3
2
3
3
3
3
4
4
4
4
4
3
4
4
4
4
4
3
3
4
3
3
2
1
1
2
2
2
3
3
3
4
9
21
42
67
96
123
149
171
183
188
173
146
105
64
22
-26
-69
-98
-109
-101
-86
-69
-53
-42
-35
-30
-26
-24
-22
-20
-19
-18
-17
-16
-16
-16
-16
-16
-17
-17
-19
-20
-20
-21
-22
-23
-23
-25
-27
-28
-30
-30
-32
-32
-34
-34
-35
-36
-37
-38
-39
-39
-38
-38
-37
-37
-37
-37
-38
-37
-39
-40
-40
-41
-42
-43
-43
-45
-45
-47
-48
-49
-51
-52
-53
-54
-56
-57
-57
-58
-58
-61
-62
-63
-63
-63
-63
-62
-60
-57
-55
-51
-48
-43
-40
-37
-34
-31
-28
-25
-21
-17
-13
-10
-5
-3
0
2
6
9
12
16
18
21
23
25
27
30
31
32
34
34
35
34
34
33
33
32
31
31
30
30
28
29
29
28
27
26
25
24
24
24
24
24
25
25
25
25
24
24
23
23
23
24
24
23
23
22
22
22
22
22
23
23
23
23
21
21
20
20
20
20
19
18
18
17
17
16
15
14
12
11
10
9
9
9
10
9
11
10
11
11
11
12
12
12
12
12
12
12
11
11
11
10
9
8
8
7
7
7
6
6
6
6
6
5
4
3
1
0
-1
-2
-4
-5
-6
-7
-7
-7
-6
-6
-6
-7
-7
-7
-5
-4
-3
-3
-2
-3
-3
-3
-3
-3
-3
-3
-3
-3
-3
-3
-3
-2
-1
-1
-1
-2
-2
-2
-1
-1
0
1
1
1
1
0
0
0
1
0
0
0
1
1
1
1
1
1
1
1
0
0
0
0
1
1
0
0
0
0
0
1
1
0
0
0
-1
-1
-2
-2
-2
-1
-1
0
0
1
1
2
2
3
3
3
2
3
2
3
3
3
3
3
3
2
1
1
0
0
0
1
1
3
3
3
3
4
4
5
6
6
6
6
7
7
7
8
7
7
7
8
7
8
8
9
10
11
11
11
12
12
13
13
13
14
15
16
15
16
16
16
15
15
14
13
13
12
12
11
12
13
13
12
12
12
11
11
11
11
12
12
14
13
15
15
16
17
18
20
19
20
20
20
20
20
21
21
22
22
21
21
21
21
22
22
20
20
20
21
21
21
22
27
40
61
84
107
133
155
172
175
164
142
108
78
42
0
-44
-76
-85
-79
-66
-49
-37
-27
-22
-17
-14
-12
-10
-9
-9
-7
-7
-6
-5
-4
-4
-4
-4
-5
-6
-7
-8
-9
-10
-10
-12
-13
-14
-15
-16
-16
-16
-19
-20
-21
-22
-22
-23
-23
-24
-25
-26
-27
-29
-30
-30
-31
-31
-32
-33
-32
-33
-34
-35
-35
-37
-38
-39
-41
-42
-43
-44
-46
-46
-47
-48
-48
-49
-49
-51
-51
-52
-51
-50
-49
-48
-47
-45
-45
-42
-41
-39
-36
-34
-33
-31
-28
-26
-24
-21
-17
-15
-12
-8
-5
-1
2
5
8
10
12
13
15
17
18
20
22
23
24
24
26
26
26
27
26
27
27
27
26
26
25
25
24
24
24
23
23
22
22
21
20
19
18
18
17
16
15
14
13
12
12
11
10
8
7
6
7
7
6
5
3
2
1
0
0
0
0
0
0
-1
-2
-3
-4
-5
-6
-6
-8
-8
-9
-9
-8
-9
-9
-9
-8
-8
-8
-8
-9
-10
-10
-10
-10
-9
-8
-7
-6
-5
-4
-4
-4
-5
-4
-5
-6
-6
-7
-8
-9
-9
-9
-9
-9
-10
-10
-11
-11
-12
-12
-11
-11
-11
-11
-11
-11
-11
-11
-11
-11
-10
-10
-10
-11
-11
-11
-11
-11
-11
-12
-12
-12
-12
-12
-11
-12
-11
-12
-11
-10
-9
-7
-6
-5
-3
-2
-1
0
2
1
1
1
0
0
0
-2
-2
-2
-3
-3
-3
-3
-3
-3
-3
-4
-4
-5
-5
-5
-5
-4
-5
-6
-7
-8
-8
-9
-10
-11
-11
-12
-13
-14
-15
-15
-15
-14
-14
-14
-13
-13
-13
-11
-10
-8
-7
-4
-2
0
1
3
6
8
10
17
29
50
73
101
124
150
166
176
172
153
120
82
45
5
-41
-80
-99
-99
-87
-70
-53
-40
-32
-26
-21
-18
-16
-15
-15
-15
-15
-16
-16
-16
-16
-16
-15
-15
-15
-15
-15
-15
-15
-16
-16
-17
-18
-18
-19
-19
-19
-20
-20
-21
-22
-22
-22
-23
-23
-24
-25
-26
-27
-29
-31
-32
-33
-35
-35
-37
-39
-41
-43
-45
-46
-48
-50
-52
-55
-57
-59
-61
-63
-65
-66
-68
-69
-71
-71
-72
-72
-73
-73
-74
-74
-72
-71
-69
-67
-64
-63
-61
-58
-56
-53
-51
-48
-45
-42
-40
-38
-35
-33
-31
-28
-25
-24
-21
-19
-17
-14
-12
-11
-9
-8
-7
-5
-3
-1
0
1
2
2
3
3
4
4
6
7
7
7
7
7
7
7
7
7
7
7
7
7
8
8
9
10
11
11
11
10
9
8
6
5
3
3
2
1
1
0
0
0
0
0
0
1
0
0
0
0
0
1
0
0
0
0
0
-1
-2
-2
-3
-3
-4
-5
-6
-7
-8
-9
-9
-10
-9
-9
-9
-10
-9
-10
-9
-9
-10
-10
-10
-10
-10
-9
-9
-8
-6
-5
-4
-3
-1
-1
0
0
1
2
2
3
2
2
2
3
2
2
3
2
1
0
-1
-2
-2
-3
-3
-2
-3
-3
-3
-2
-2
-1
0
0
0
0
0
-1
-1
0
0
0
0
0
0
2
2
3
4
4
5
5
4
4
4
5
5
6
7
8
9
11
11
14
23
39
61
85
111
135
159
171
176
168
148
116
84
49
7
-42
-81
-102
-103
-92
-76
-61
-49
-41
-36
-33
-30
-27
-26
-24
-23
-23
-23
-24
-24
-25
-25
-25
-26
-27
-28
-28
-28
-26
-26
-26
-25
-26
-26
-28
-28
-30
-31
-32
-33
-34
-35
-37
-39
-41
-42
-44
-45
-45
-45
-47
-49
-51
-52
-53
-54
-55
-56
-58
-60
-62
-63
-65
-66
-67
-69
-71
-72
-74
-74
-75
-76
-77
-78
-78
-78
-77
-77
-76
-76
-74
-72
-71
-68
-67
-65
-62
-58
-56
-53
-49
-45
-40
-36
-31
-27
-23
-19
-15
-11
-8
-6
-4
0
1
3
5
7
9
11
12
14
16
17
19
20
21
22
22
22
22
22
21
21
21
21
21
21
20
20
19
19
20
19
19
19
19
18
17
18
16
16
14
14
13
12
11
10
10
9
8
8
8
8
8
8
7
7
7
8
7
8
8
8
7
6
6
6
6
7
6
6
5
4
3
3
2
2
1
0
0
-1
-2
-3
-3
-4
-5
-5
-6
-7
-8
-9
-9
-9
-9
-9
-9
-9
-9
-10
-10
-10
-11
-11
-12
-12
-13
-13
-14
-14
-13
-12
-12
-13
-13
-14
-15
-15
-15
-15
-15
-14
-16
-16
-17
-17
-17
-16
-15
-14
-13
-13
-12
-11
-10
-8
-6
-1
8
25
50
81
109
140
164
181
186
174
148
107
67
22
-28
-71
-101
-107
-97
-82
-64
-50
-39
-33
-29
-27
-25
-24
-24
-23
-23
-23
-24
-25
-27
-29
-31
-32
-33
-34
-34
-35
-35
-35
-36
-36
-36
-35
-35
-35
-34
-34
-34
-35
-35
-35
-36
-36
-36
-38
-38
-38
-37
-37
-40
-41
-44
-46
-47
-49
-49
-51
-52
-53
-55
-57
-59
-60
-64
-66
-69
-69
-71
-72
-72
-73
-72
-72
-71
-72
-70
-70
-68
-66
-65
-62
-60
-56
-53
-48
-44
-41
-37
-33
-28
-24
-19
-16
-13
-11
-7
-6
-3
-1
1
3
5
7
9
11
12
13
13
13
14
15
17
18
19
19
20
20
20
21
20
20
20
20
20
20
21
20
20
19
19
18
18
16
15
13
12
10
9
8
8
8
8
8
9
9
10
10
11
12
12
13
13
12
12
12
12
12
12
12
11
11
10
9
9
9
9
9
10
10
11
14
19
34
54
80
107
133
158
172
178
171
153
124
92
52
4
-49
-85
-100
-94
-79
-61
-45
-34
-29
-25
-22
-21
-20
-19
-18
-20
-21
-22
-22
-23
-24
-25
-27
-27
-28
-30
-30
-31
-31
-32
-31
-32
-32
-33
-33
-34
-35
-35
-37
-37
-38
-39
-39
-39
-40
-41
-42
-43
-44
-45
-46
-47
-49
-49
-51
-51
-52
-53
-55
-57
-59
-61
-62
-63
-64
-65
-66
-67
-69
-68
-68
-67
-66
-65
-64
-63
-61
-60
-57
-54
-51
-48
-44
-40
-36
-31
-27
-23
-19
-14
-11
-8
-5
-2
0
0
2
3
5
6
8
9
10
10
11
12
12
13
13
14
14
15
16
16
16
16
16
15
15
14
13
12
12
10
9
8
6
6
6
6
6
6
5
6
7
6
7
7
7
7
7
7
6
6
6
6
6
6
8
7
7
7
8
8
9
9
10
11
11
12
12
13
13
13
14
12
12
10
9
8
8
8
6
5
4
2
0
0
-1
-1
-2
-3
-4
-5
-6
-7
-7
-8
-8
-8
-8
-9
-9
-8
-9
-9
-9
-8
-7
-7
-6
-7
-6
-6
-6
-6
-6
-6
-7
-7
-7
-7
-9
-9
-9
-9
-9
-9
-10
-11
-12
-12
-12
-11
-12
-13
-13
-13
-13
-13
-13
-14
-14
-14
-14
-14
-15
-15
-15
-14
-13
-13
-12
-12
-13
-14
-15
-16
-17
-17
-17
-17
-16
-15
-15
-14
-15
-16
-15
-15
-15
-14
-13
-13
-12
-12
-12
-12
-11
-11
-10
-10
-10
-11
-11
-11
-13
-14
-14
-14
-14
-15
-15
-16
-17
-18
-18
-18
-18
-18
-19
-19
-19
-20
-20
-20
-20
-20
-19
-19
-19
-18
-17
-17
-17
-15
-15
-14
-13
-12
-11
-9
-7
-5
-4
-4
-3
-2
-1
-1
0
0
0
0
0
0
0
0
-1
-2
-2
-1
-1
0
0
0
0
0
0
0
0
1
1
1
0
0
0
1
1
2
4
4
5
5
5
6
7
9
8
9
8
9
9
10
10
11
12
11
11
10
11
10
10
11
11
12
13
14
13
13
13
12
13
13
14
15
16
16
15
14
14
13
13
13
13
13
14
14
14
14
14
14
15
14
14
12
12
11
11
12
12
13
13
14
14
14
15
15
15
14
14
14
14
13
13
13
12
13
13
14
14
15
16
15
17
16
17
17
17
17
16
17
18
20
21
23
25
28
31
34
41
49
59
68
78
69
26
-41
-120
-181
-209
-223
-222
-226
-226
-222
-214
-198
-188
-172
-160
-144
-129
-114
-102
-97
-91
-85
-70
-52
-29
-10
1
9
13
15
17
19
21
23
25
26
27
29
29
31
32
34
34
34
35
34
35
35
36
38
40
42
41
43
43
45
45
46
47
47
48
47
47
46
47
46
46
47
46
47
45
46
45
47
47
47
47
47
48
48
50
50
51
52
53
54
54
56
55
56
56
58
58
59
60
61
64
64
66
66
66
67
68
70
70
71
71
72
72
73
74
73
74
73
73
72
71
70
69
69
68
70
70
72
72
73
75
75
77
76
77
77
78
79
78
79
79
81
80
82
82
84
86
87
88
87
89
87
88
87
86
85
82
82
79
78
74
72
69
66
64
60
58
54
52
48
46
43
41
39
37
37
35
34
32
31
30
28
28
26
25
23
22
21
20
21
21
22
23
24
24
24
25
25
26
26
27
26
26
24
23
22
21
20
19
18
18
18
18
17
18
17
18
17
18
19
18
18
18
20
19
21
20
20
19
18
16
14
14
13
13
12
11
11
10
10
8
8
7
7
7
6
6
6
5
3
2
1
1
1
1
0
1
2
3
3
4
5
5
5
6
5
6
5
5
4
4
4
3
3
1
0
-1
-2
-3
-5
-6
-8
-10
-12
-14
-15
-16
-16
-18
-18
-19
-21
-22
-22
-21
-21
-20
-19
-17
-16
-15
-13
-12
-10
-9
-8
-7
-7
-6
-5
-5
-4
-3
-3
-3
-4
-4
-4
-4
-4
-4
-4
-4
-5
-6
-7
-8
-9
-9
-10
-11
-12
-13
-14
-16
-17
-18
-19
-19
-19
-20
-21
-21
-21
-21
-20
-17
-16
-15
-14
-14
-12
-11
-10
-10
-9
-9
-10
-12
-13
-15
-16
-17
-18
-20
-20
-22
-23
-24
-24
-26
-27
-28
-29
-30
-31
-32
-34
-35
-36
-36
-37
-38
-38
-38
-38
-37
-36
-35
-34
-32
-32
-30
-30
-30
-30
-29
-28
-26
-26
-26
-27
-28
-29
-29
-31
-32
-33
-34
-36
-35
-35
-36
-36
-35
-35
-36
-35
-36
-36
-38
-39
-40
-41
-41
-42
-42
-43
-43
-43
-43
-42
-41
-40
-38
-37
-36
-36
-36
-35
-35
-34
-34
-33
-33
-33
-33
-32
-32
-32
-32
-31
-32
-32
-33
-34
-35
-37
-37
-39
-39
-40
-40
-41
-41
-40
-40
-39
-39
-39
-38
-37
-37
-36
-34
-32
-29
-27
-24
-19
-6
13
41
70
102
133
159
175
177
165
137
106
71
26
-30
-83
-116
-123
-116
-101
-87
-75
-70
-65
-63
-60
-58
-58
-58
-59
-58
-58
-58
-58
-58
-56
-56
-55
-55
-55
-57
-56
-54
-54
-53
-53
-52
-54
-54
-55
-56
-57
-57
-57
-59
-61
-63
-63
-63
-64
-64
-65
-66
-68
-69
-70
-72
-73
-73
-73
-74
-74
-76
-78
-79
-79
-80
-81
-81
-83
-83
-84
-84
-86
-87
-87
-88
-87
-87
-86
-87
-87
-86
-87
-85
-86
-84
-84
-82
-81
-80
-77
-76
-72
-69
-65
-63
-61
-57
-54
-49
-46
-41
-37
-33
-30
-27
-24
-21
-17
-13
-8
-3
0
3
5
7
11
13
15
16
17
18
18
18
17
18
18
18
17
16
15
14
13
12
11
10
10
10
9
9
7
6
4
3
1
0
0
-2
-2
-2
-2
-2
-1
-1
-2
-1
-1
-1
0
0
0
-1
-2
-3
-4
-5
-5
-5
-4
-3
-4
-4
-3
-2
-2
-1
-1
-2
-2
-3
-4
-7
-8
-7
-7
-7
-7
-7
-8
-8
-8
-7
-8
-8
-8
-9
-9
-8
-7
-7
-6
-5
-5
-4
-4
-3
-2
-1
-1
-1
-1
-1
-1
-1
-1
-3
-3
-3
-3
-3
-4
-3
-5
-5
-6
-6
-6
-6
-6
-7
-7
-7
-6
-5
-5
-6
-5
-5
-5
-5
-5
-4
-4
-3
-2
-3
-2
-1
-1
-2
-1
-1
-2
-2
-2
-1
-1
0
0
0
0
0
-1
-1
-1
-2
-2
-3
-3
-4
-6
-7
-8
-8
-9
-10
-10
-10
-10
-10
-10
-10
-9
-9
-9
-10
-11
-12
-13
-15
-16
-16
-16
-16
-16
-16
-14
-15
-13
-12
-10
-9
-8
-6
-5
-3
-1
0
2
3
3
5
12
28
51
78
108
135
162
176
181
172
148
121
90
55
4
-47
-80
-92
-87
-72
-57
-45
-37
-33
-30
-27
-26
-25
-24
-24
-24
-24
-24
-23
-22
-21
-19
-18
-18
-17
-18
-19
-19
-19
-20
-21
-22
-23
-24
-26
-27
-29
-30
-31
-32
-33
-35
-36
-37
-36
-38
-38
-38
-39
-40
-41
-41
-43
-44
-45
-47
-48
-51
-52
-55
-56
-58
-60
-61
-63
-64
-66
-67
-69
-70
-69
-69
-68
-69
-67
-69
-68
-68
-68
-66
-65
-63
-63
-61
-61
-59
-57
-55
-53
-51
-49
-47
-44
-41
-38
-35
-32
-29
-27
-24
-21
-19
-17
-13
-11
-7
-5
-4
-3
0
2
3
5
6
8
8
10
11
12
13
12
12
11
10
8
7
7
6
6
5
4
2
0
-1
-4
-6
-8
-9
-10
-11
-11
-11
-12
-12
-12
-12
-13
-13
-13
-12
-12
-11
-11
-11
-10
-9
-8
-6
-5
-5
-5
-5
-4
-4
-3
-3
-3
-4
-4
-5
-6
-6
-8
-9
-9
-8
-7
-7
-7
-8
-9
-10
-11
-12
-14
-13
-13
-12
-12
-12
-12
-12
-12
-12
-13
-14
-15
-15
-15
-15
-14
-13
-13
-13
-12
-11
-11
-11
-10
-9
-8
-8
-8
-8
-8
-7
-6
-6
-6
-6
-6
-5
-5
-4
-4
-4
-4
-4
-5
-5
-5
-6
-7
-6
-5
-4
-3
-1
-1
0
0
1
2
3
2
1
2
2
2
3
4
4
5
7
5
5
5
5
5
5
6
6
6
5
6
10
23
42
69
99
129
160
184
206
213
212
192
158
124
85
40
-13
-60
-84
-94
-87
-72
-60
-48
-41
-36
-34
-30
-28
-26
-25
-24
-24
-25
-25
-25
-24
-24
-25
-26
-27
-29
-31
-31
-31
-32
-32
-32
-33
-34
-34
-35
-35
-36
-36
-37
-37
-38
-39
-40
-42
-42
-43
-42
-42
-43
-43
-43
-43
-44
-44
-46
-48
-49
-51
-53
-54
-54
-57
-59
-61
-63
-63
-64
-64
-66
-66
-67
-68
-67
-68
-67
-69
-68
-69
-67
-66
-65
-64
-64
-62
-62
-60
-59
-56
-53
-50
-46
-43
-38
-35
-31
-27
-24
-20
-16
-12
-10
-7
-5
-2
0
3
6
8
10
12
13
15
18
20
22
24
26
26
27
28
28
29
29
29
28
28
27
27
28
26
25
24
24
23
22
22
20
19
17
16
15
14
13
12
11
9
7
5
4
2
1
0
-1
-2
-2
-2
-2
-1
0
0
1
1
1
0
0
-1
-2
-3
-4
-5
-5
-7
-8
-10
-11
-12
-11
-11
-11
-11
-11
-11
-10
-9
-8
-8
-8
-7
-9
-9
-10
-10
-10
-10
-10
-10
-9
-9
-9
-8
-7
-6
-5
-5
-6
-7
-8
-9
-10
-9
-8
-8
-9
-9
-9
-9
-9
-9
-9
-8
-8
-8
-9
-10
-10
-11
-11
-11
-10
-9
-8
-7
-7
-5
-4
-2
-1
0
1
3
3
2
2
2
1
1
0
0
0
0
0
0
0
0
0
0
-1
-2
-2
-3
-3
-2
-1
-2
-2
-2
-2
-3
-4
-4
-5
-5
-5
-4
-4
-4
-4
-5
-5
-6
-6
-7
-7
-7
-8
-8
-10
-10
-10
-10
-11
-12
-12
-13
-14
-15
-15
-14
-14
-13
-13
-12
-12
-12
-12
-11
-11
-11
-11
-11
-11
-11
-10
-8
-5
-3
-1
0
2
4
5
7
7
7
7
7
6
5
4
3
3
1
2
2
2
2
2
3
3
4
5
6
6
5
6
5
5
5
5
5
5
5
5
5
3
3
3
3
3
2
3
2
3
2
3
4
5
5
5
6
6
7
7
7
7
8
8
8
8
8
8
9
10
11
13
14
15
16
21
35
55
80
106
132
157
176
186
183
171
147
122
94
60
12
-32
-66
-78
-74
-61
-45
-32
-23
-17
-14
-11
-10
-9
-9
-10
-9
-10
-10
-10
-11
-12
-13
-13
-14
-15
-16
-17
-18
-20
-20
-21
-21
-22
-22
-22
-22
-22
-22
-22
-23
-23
-25
-26
-28
-30
-32
-34
-35
-37
-38
-40
-41
-41
-43
-44
-45
-44
-45
-46
-47
-49
-51
-53
-55
-57
-59
-61
-63
-65
-66
-66
-67
-67
-67
-66
-67
-68
-68
-68
-67
-66
-65
-64
-63
-61
-59
-56
-54
-53
-52
-50
-49
-47
-43
-40
-36
-33
-29
-27
-24
-21
-18
-15
-12
-9
-7
-4
0
2
5
8
9
11
12
14
15
16
18
19
22
22
23
23
24
25
26
27
26
25
23
23
22
21
21
20
19
16
15
13
13
12
11
12
10
10
9
9
9
8
8
6
5
5
6
6
6
6
5
5
5
5
5
5
5
4
4
4
4
3
3
1
0
0
-1
-2
-4
-5
-5
-3
-2
-2
-4
-7
-8
-9
-9
-11
-12
-13
-15
-14
-14
-15
-15
-15
-16
-16
-16
-15
-15
-15
-14
-14
-13
-11
-10
-8
-6
-4
-3
-1
0
0
0
0
-1
-1
0
0
0
1
1
1
1
2
1
2
1
1
0
0
0
-1
-2
-3
-4
-4
-5
-6
-7
-7
-8
-8
-8
-7
-7
-6
-6
-6
-5
-4
-3
-2
0
0
0
2
4
6
7
7
8
8
7
7
7
7
7
8
9
9
9
8
8
8
8
9
9
10
9
8
10
18
37
62
92
120
151
175
190
193
181
156
122
88
48
-2
-52
-82
-92
-86
-71
-56
-44
-36
-32
-27
-26
-24
-22
-21
-20
-20
-20
-20
-20
-21
-22
-22
-23
-24
-25
-26
-28
-28
-28
-29
-29
-29
-30
-31
-32
-33
-34
-35
-37
-38
-41
-43
-46
-46
-47
-48
-48
-49
-50
-52
-52
-52
-53
-54
-54
-54
-55
-55
-56
-57
-58
-59
-60
-62
-62
-63
-65
-66
-67
-69
-70
-71
-72
-71
-72
-72
-72
-70
-69
-68
-66
-65
-62
-60
-57
-55
-52
-48
-45
-41
-37
-33
-31
-27
-24
-20
-18
-14
-10
-7
-4
-1
1
4
6
9
12
13
15
15
17
18
20
22
24
26
26
27
26
26
26
26
27
26
27
26
26
26
26
25
24
23
22
24
24
25
25
24
24
23
22
21
20
20
19
20
19
20
20
21
20
20
21
20
21
20
21
20
20
21
20
20
18
18
17
18
19
19
19
18
19
17
17
16
16
15
15
15
14
13
12
11
10
8
8
9
9
9
10
10
10
11
11
12
14
15
15
15
14
14
13
13
13
12
12
11
10
9
8
8
8
8
7
7
6
5
4
3
4
2
2
1
1
0
0
0
-1
-1
-3
-5
-6
-7
-7
-7
-5
-4
-2
-1
0
0
1
2
1
0
0
0
0
0
0
-1
-1
-2
-2
-3
-3
-3
-3
-3
-2
-2
-2
-1
-1
0
0
0
0
0
0
-1
-3
-5
-7
-8
-9
-9
-8
-9
-9
-9
-9
-9
-9
-9
-9
-9
-7
-7
-5
-4
-3
-4
-4
-3
-4
-3
-3
-3
-3
-3
-2
-3
-2
-2
-1
-1
0
0
0
0
0
0
0
0
0
0
0
-1
-2
-3
-4
-4
-2
0
0
0
-1
-2
-2
-2
-1
0
0
0
1
2
3
4
5
5
5
5
5
5
5
7
7
9
9
10
10
9
10
10
11
11
12
11
11
11
10
12
11
11
10
9
9
9
10
9
8
6
5
5
5
5
5
5
5
5
5
7
9
12
13
11
10
9
10
11
13
13
13
14
15
15
16
18
18
19
18
19
19
20
22
24
26
27
29
33
45
65
90
119
148
181
211
235
246
242
221
188
158
124
81
25
-24
-60
-76
-77
-68
-55
-45
-38
-34
-30
-27
-26
-25
-25
-25
-25
-25
-26
-26
-26
-25
-25
-25
-26
-25
-27
-27
-27
-28
-29
-30
-31
-34
-36
-38
-39
-41
-43
-45
-47
-49
-50
-50
-51
-52
-51
-52
-51
-52
-52
-52
-53
-53
-54
-56
-57
-58
-60
-62
-63
-65
-66
-68
-69
-72
-72
-74
-75
-77
-77
-78
-79
-80
-81
-81
-82
-82
-83
-84
-82
-83
-81
-82
-80
-81
-80
-79
-79
-76
-76
-73
-70
-66
-62
-58
-53
-49
-44
-39
-34
-30
-25
-19
-15
-10
-7
-3
-1
1
4
7
9
12
15
18
19
21
21
22
24
24
26
26
26
26
26
27
27
28
28
29
28
28
26
25
24
22
23
24
24
24
24
24
25
26
25
27
27
28
28
28
28
28
28
27
27
26
26
26
23
22
20
19
18
17
15
15
14
12
11
10
9
7
6
5
3
3
1
1
0
0
-1
-2
-3
-5
-6
-8
-9
-9
-7
-6
-4
-3
-2
-2
-1
0
0
0
1
2
2
1
2
0
0
0
0
0
0
0
-1
0
-1
-1
-1
-1
-1
-1
-1
-2
-2
-4
-5
-6
-6
-6
-7
-8
-8
-8
-9
-9
-8
-10
-10
-10
-11
-10
-8
-6
-5
-4
-4
-4
-4
-4
-4
-4
-4
-4
-4
-3
-3
-3
-3
-3
-3
-3
-3
-3
-3
-3
-3
-3
-4
-4
-4
-4
-3
-3
-3
-4
-4
-4
-5
-5
-6
-7
-9
-10
-11
-12
-13
-13
-13
-14
-14
-15
-16
-16
-16
-15
-15
-15
-15
-14
-14
-14
-14
-13
-12
-12
-12
-12
-11
-11
-10
-9
-10
-9
-8
-8
-8
-7
-6
-6
-6
-6
-5
-5
-4
-4
-4
-4
-4
-5
-5
-6
-7
-7
-8
-9
-10
-11
-11
-10
-8
-7
-5
-4
-2
-1
0
1
2
3
3
4
4
4
5
5
7
7
8
9
10
10
10
11
10
11
11
11
11
11
11
10
10
10
11
11
11
10
10
11
11
12
12
12
13
20
35
58
83
110
140
165
188
194
190
173
145
119
86
45
-9
-55
-78
-83
-73
-57
-44
-33
-26
-22
-19
-16
-14
-14
-14
-14
-15
-16
-17
-19
-20
-20
-20
-20
-21
-21
-23
-24
-25
-25
-25
-26
-26
-28
-29
-29
-30
-30
-30
-30
-31
-31
-30
-30
-29
-29
-29
-30
-30
-32
-33
-33
-33
-35
-36
-38
-40
-41
-42
-43
-45
-46
-49
-51
-53
-56
-58
-61
-62
-63
-63
-65
-65
-66
-67
-66
-68
-68
-68
-67
-66
-65
-63
-61
-58
-56
-52
-49
-45
-42
-39
-36
-33
-28
-24
-20
-15
-11
-9
-6
-3
0
2
5
8
10
13
14
16
17
19
20
22
24
23
23
22
22
22
23
24
24
24
23
22
19
18
17
15
14
12
12
11
11
10
11
11
11
11
11
11
10
9
9
8
8
8
8
8
9
10
10
10
9
8
8
8
8
7
6
6
5
5
6
7
7
5
4
3
2
2
2
2
1
0
0
-1
-1
0
1
1
2
3
3
4
6
7
8
9
9
10
9
9
9
9
10
9
9
9
8
8
8
9
9
10
10
10
10
9
9
8
8
7
6
3
1
0
-1
-2
-3
-4
-4
-3
-3
-2
-2
-2
-3
-4
-4
-4
-3
-4
-3
-2
-1
0
3
5
7
9
9
10
11
11
12
12
13
11
11
10
10
10
10
11
10
10
8
7
6
5
5
4
3
2
2
0
0
0
0
0
-1
-1
-2
-2
-2
-2
-1
-2
-1
-1
-1
-1
-1
0
0
2
4
5
7
8
7
7
6
6
5
5
5
5
5
5
5
5
5
6
6
6
5
5
5
6
7
8
10
10
12
16
30
51
78
108
137
170
194
212
213
202
178
150
120
76
19
-33
-69
-78
-72
-58
-44
-33
-26
-22
-18
-17
-16
-15
-15
-15
-15
-15
-16
-16
-16
-16
-17
-17
-19
-21
-22
-23
-23
-24
-24
-24
-24
-24
-25
-26
-27
-28
-30
-32
-33
-35
-36
-37
-37
-38
-38
-38
-38
-38
-38
-39
-40
-41
-43
-44
-46
-48
-51
-53
-55
-57
-58
-60
-61
-63
-65
-67
-68
-69
-71
-71
-72
-72
-73
-74
-73
-73
-72
-72
-69
-69
-69
-67
-66
-64
-62
-59
-56
-52
-48
-44
-39
-35
-31
-26
-22
-18
-13
-9
-6
-3
0
3
5
8
10
12
14
15
16
17
18
19
20
21
21
22
22
22
22
20
20
20
20
20
19
19
18
18
17
17
18
16
16
15
16
16
16
16
16
16
16
17
16
17
17
17
18
16
16
16
16
16
16
17
17
17
16
16
15
14
13
11
10
9
9
8
8
7
7
6
5
4
3
3
2
3
3
3
4
5
6
6
7
7
7
8
8
8
9
8
6
5
3
2
2
1
0
0
0
-1
-2
-3
-4
-4
-5
-6
-8
-8
-10
-11
-13
-15
-17
-19
-21
-22
-23
-25
-26
-26
-26
-26
-27
-28
-29
-29
-30
-30
-29
-29
-28
-26
-25
-24
-24
-23
-23
-23
-24
-24
-23
-21
-21
-21
-20
-19
-20
-21
-21
-21
-22
-23
-24
-25
-26
-26
-25
-25
-26
-27
-27
-27
-28
-28
-27
-28
-29
-28
-26
-25
-24
-24
-23
-23
-23
-23
-23
-22
-22
-21
-21
-22
-24
-24
-25
-26
-26
-25
-26
-26
-25
-24
-23
-23
-23
-23
-23
-23
-23
-22
-21
-21
-21
-20
-21
-21
-21
-21
-21
-21
-21
-21
-21
-21
-21
-20
-21
-20
-19
-18
-17
-15
-13
-12
-12
-12
-12
-12
-11
-11
-11
-11
-11
-11
-11
-10
-9
-8
-7
-6
-7
-7
-7
-6
-6
-6
-6
-6
-6
-6
-6
-6
-6
-5
-4
-2
0
2
3
4
4
6
8
8
9
9
9
9
9
10
10
11
10
11
10
10
9
9
10
9
10
9
9
8
7
6
6
6
6
6
6
7
8
8
7
7
6
6
8
7
8
7
7
7
7
8
9
9
8
7
6
5
4
3
3
2
1
1
1
1
1
2
0
0
0
0
0
0
0
0
0
0
1
1
1
0
1
2
1
2
2
2
2
3
4
4
5
5
6
7
8
8
8
8
8
8
9
10
11
12
12
14
15
16
19
21
25
26
31
39
49
60
70
79
68
22
-54
-136
-198
-229
-240
-242
-245
-243
-242
-233
-223
-210
-197
-183
-166
-149
-133
-121
-109
-101
-96
-93
-88
-76
-57
-34
-12
2
11
16
18
21
23
26
28
31
34
36
39
40
43
44
46
48
49
49
50
51
52
54
54
54
54
54
53
53
54
53
54
52
52
51
49
48
48
48
48
49
49
50
50
51
54
54
57
59
62
64
67
70
72
76
76
79
79
81
83
86
89
91
93
94
97
97
100
102
102
104
104
107
107
108
108
108
109
107
108
104
104
102
102
100
98
96
91
89
84
83
79
78
75
73
72
69
69
67
67
67
68
68
67
68
67
67
66
66
65
65
66
65
66
64
64
62
62
61
61
61
59
60
60
61
61
61
61
59
59
57
57
55
53
51
50
50
48
47
45
45
43
43
41
38
38
36
37
36
36
36
34
33
30
29
27
27
27
26
25
24
23
21
20
18
17
16
15
14
13
12
12
12
12
12
12
12
12
11
10
9
8
7
6
6
5
4
5
