-53
-55
-55
-56
-55
-55
-55
-55
-54
-51
-50
-47
-45
-42
-39
-37
-34
-31
-26
-24
-22
-19
-16
-14
-12
-10
-9
-7
-7
-6
-6
-6
-6
-6
-5
-5
-5
-5
-5
-4
-2
1
7
9
3
-2
-1
0
2
2
4
6
8
8
9
11
12
12
12
11
12
13
13
12
13
14
14
13
13
13
12
10
9
10
11
11
10
9
8
8
7
7
6
6
4
3
2
2
2
0
0
-1
-1
-2
-2
-1
-2
-3
-4
-3
-4
-5
-5
-4
-4
-6
-7
-7
-8
-8
-9
-8
-8
-8
-8
-8
-8
-8
-9
-10
-10
-9
-9
-9
-10
-9
-9
-9
-10
-10
-10
-11
-12
-12
-12
-12
-13
-13
-12
-11
-10
-11
-10
-10
-10
-11
-11
-10
-11
-12
-13
-14
-14
-16
-16
-16
-16
-17
-17
-15
-15
-14
-13
-8
-4
0
3
6
8
10
10
11
14
17
19
21
26
30
33
33
33
35
39
33
17
7
1
-3
-6
-8
-10
-13
-17
-18
-19
-18
-17
-17
-16
-16
-16
-16
-15
-15
-15
-15
-14
-13
-12
-12
-11
-9
-9
-9
-7
-4
0
10
26
50
82
134
199
276
344
386
424
433
404
300
157
36
-42
-68
-62
-52
-44
-41
-39
-38
-36
-34
-33
-33
-33
-31
-31
-31
-31
-31
-29
-30
-30
-31
-30
-30
-29
-28
-28
-28
-28
-28
-27
-26
-25
-25
-24
-23
-22
-23
-22
-23
-24
-25
-25
-26
-27
-28
-28
-29
-30
-32
-33
-34
-34
-37
-37
-39
-40
-42
-43
-44
-45
-45
-48
-48
-49
-49
-51
-53
-52
-52
-50
-51
-49
-49
-48
-47
-46
-42
-39
-35
-33
-29
-26
-24
-20
-17
-12
-6
2
4
0
-3
-2
0
1
1
1
1
1
1
1
1
1
2
3
3
4
5
6
5
7
8
9
10
10
11
12
13
13
14
16
17
17
19
20
21
21
20
21
22
23
24
24
25
25
25
24
25
25
25
25
25
24
23
23
23
24
24
23
23
23
23
22
22
22
22
21
20
20
20
19
18
18
18
18
17
17
17
17
17
16
16
17
17
17
16
17
17
16
16
16
16
16
16
16
16
16
16
16
16
16
15
15
14
15
14
14
14
14
14
14
13
13
11
11
11
11
11
11
11
12
13
14
14
14
15
15
14
15
15
14
13
14
14
15
15
18
25
27
20
16
20
26
29
31
33
35
38
40
43
46
50
55
58
62
64
65
62
58
53
47
40
32
27
23
20
17
13
10
9
9
10
11
11
10
10
12
12
11
11
12
12
12
12
14
14
15
16
17
18
20
22
25
31
40
56
77
113
159
227
304
371
423
456
481
452
360
211
75
-10
-42
-40
-29
-21
-17
-14
-13
-12
-12
-11
-10
-9
-10
-9
-9
-9
-9
-9
-8
-8
-8
-8
-7
-7
-7
-6
-4
-4
-4
-4
-3
-4
-5
-5
-5
-5
-5
-5
-5
-4
-5
-6
-8
-9
-11
-13
-16
-17
-18
-20
-22
-25
-27
-29
-30
-33
-34
-36
-38
-39
-41
-41
-43
-44
-45
-42
-37
-38
-46
-52
-50
-49
-47
-46
-44
-43
-41
-37
-34
-30
-27
-23
-20
-17
-14
-11
-7
-5
-4
-3
-1
-1
-1
-1
-1
-1
-1
-2
-2
-2
-1
-1
-2
-2
-1
-1
-1
-2
0
0
0
0
2
3
4
5
6
7
7
8
9
11
12
12
13
13
13
12
11
12
12
12
11
11
11
11
10
10
10
10
9
8
8
8
7
6
6
6
5
4
3
3
3
2
1
0
0
0
0
-1
-1
-1
-2
-3
-3
-2
-3
-3
-3
-4
-4
-5
-6
-5
-6
-6
-7
-7
-7
-8
-8
-7
-8
-8
-8
-8
-7
-8
-7
-7
-6
-7
-8
-8
-8
-7
-8
-8
-8
-8
-10
-11
-10
-9
-7
-3
3
0
-7
-12
-12
-11
-11
-11
-13
-12
-12
-12
-12
-13
-13
-12
-13
-13
-13
-13
-13
-13
-12
-10
-7
-4
-2
0
1
2
2
5
7
10
13
18
23
26
26
24
21
16
11
5
1
-4
-9
-12
-13
-15
-19
-22
-23
-23
-23
-22
-23
-22
-22
-22
-23
-23
-22
-21
-20
-21
-20
-20
-19
-19
-19
-17
-16
-15
-16
-15
-13
-10
-2
11
34
67
115
181
253
322
369
400
408
351
231
90
-19
-70
-78
-69
-59
-54
-51
-50
-46
-44
-44
-44
-44
-43
-43
-44
-45
-45
-45
-45
-45
-46
-45
-44
-44
-45
-44
-43
-44
-44
-43
-42
-42
-41
-41
-40
-38
-38
-38
-38
-37
-37
-37
-37
-38
-38
-39
-38
-33
-30
-37
-45
-48
-48
-48
-50
-50
-51
-52
-53
-54
-54
-56
-56
-58
-57
-58
-59
-60
-60
-60
-60
-59
-60
-58
-57
-55
-54
-53
-50
-49
-46
-45
-41
-38
-35
-33
-30
-27
-25
-23
-21
-19
-17
-15
-15
-15
-13
-13
-14
-15
-15
-15
-16
-16
-16
-15
-16
-17
-17
-16
-16
-16
-14
-13
-12
-12
-11
-10
-9
-8
-8
-7
-6
-5
-6
-5
-4
-4
-4
-3
-3
-1
-1
-1
0
0
0
0
0
0
0
0
-1
-2
-2
-1
-2
-3
-2
-2
-2
-3
-3
-3
-3
-3
-5
-5
-4
-6
-6
-6
-6
-6
-7
-7
-7
-7
-7
-8
-9
-9
-10
-11
-11
-10
-10
-11
-11
-11
-10
-10
-10
-9
-8
-8
-9
-8
-6
0
4
1
-8
-11
-11
-10
-9
-8
-6
-7
-7
-7
-7
-8
-9
-9
-9
-8
-8
-8
-6
-6
-7
-8
-7
-7
-7
-8
-9
-8
-8
-8
-8
-7
-6
-6
-6
-6
-6
-6
-5
-4
-2
0
4
9
14
17
19
20
21
24
24
27
28
31
34
37
38
39
39
36
33
29
24
19
12
8
4
2
-1
-6
-8
-9
-10
-12
-12
-11
-11
-10
-11
-9
-9
-9
-10
-9
-8
-8
-8
-7
-6
-6
-5
-3
-2
0
3
10
23
41
66
101
152
220
296
363
411
449
467
443
346
204
76
-14
-49
-50
-41
-34
-31
-29
-27
-26
-25
-25
-23
-23
-23
-23
-22
-21
-21
-20
-20
-19
-19
-19
-19
-18
-15
-12
-6
-2
-7
-15
-17
-16
-15
-14
-14
-13
-12
-12
-13
-13
-12
-12
-12
-13
-14
-15
-17
-19
-20
-20
-21
-22
-24
-24
-25
-27
-29
-30
-31
-33
-35
-36
-36
-36
-38
-39
-39
-38
-39
-39
-38
-37
-37
-37
-36
-34
-31
-28
-25
-21
-17
-14
-11
-7
-4
-1
1
4
8
10
11
12
12
13
13
13
15
15
14
14
14
15
15
14
14
16
16
16
16
17
18
19
19
20
21
22
22
23
25
27
27
28
28
29
29
30
30
31
31
31
32
33
34
33
33
32
32
32
32
32
32
32
31
31
31
31
30
29
30
29
28
27
27
27
26
26
25
26
25
24
24
25
26
25
26
31
38
34
24
19
19
21
20
20
19
20
19
19
20
20
20
19
19
20
20
19
19
19
20
20
19
19
19
19
17
17
17
17
17
18
20
20
20
20
20
20
20
20
21
21
21
22
26
31
35
38
41
43
44
43
43
45
48
52
54
58
60
60
58
57
56
52
47
41
35
28
23
20
16
12
7
5
4
5
6
5
5
6
6
6
6
6
6
6
6
8
8
8
9
11
12
12
13
15
18
22
31
48
72
105
151
212
292
368
425
468
498
508
458
344
190
65
-6
-31
-28
-19
-15
-15
-17
-17
-18
-19
-20
-22
-22
-22
-23
-22
-22
-21
-22
-21
-19
-13
-9
-12
-18
-20
-20
-19
-18
-18
-17
-18
-18
-17
-17
-17
-17
-16
-17
-18
-18
-18
-19
-21
-22
-23
-23
-25
-28
-28
-29
-30
-33
-34
-36
-37
-38
-40
-41
-42
-43
-46
-46
-47
-48
-49
-50
-49
-49
-48
-48
-46
-45
-44
-42
-39
-36
-34
-31
-26
-22
-20
-16
-13
-10
-8
-6
-4
-2
-1
-1
-1
0
0
0
0
0
0
0
0
0
0
0
0
0
1
0
0
0
1
2
2
3
3
5
5
6
6
8
8
8
8
9
9
9
9
10
11
11
11
11
11
10
9
9
9
9
8
9
9
8
7
7
7
7
7
7
7
6
5
5
5
5
5
5
5
5
6
8
15
16
7
0
0
1
2
1
1
1
1
0
-1
0
0
0
0
0
0
0
0
0
-1
-1
-1
-2
-2
-2
-2
-4
-4
-4
-4
-5
-5
-4
-4
-5
-5
-5
-5
-5
-5
-4
-4
-5
-5
-6
-6
-7
-8
-7
-7
-7
-8
-8
-8
-8
-8
-6
-2
2
7
10
13
15
17
17
18
19
22
25
27
31
31
31
28
25
23
20
15
9
4
0
-5
-8
-12
-15
-19
-20
-20
-20
-20
-21
-20
-20
-18
-18
-18
-18
-17
-17
-17
-15
-13
-12
-11
-9
-8
-7
-5
-4
-2
1
8
19
38
65
103
156
225
299
361
405
434
440
392
280
133
17
-48
-64
-59
-51
-48
-46
-46
-44
-39
-31
-29
-36
-39
-38
-37
-37
-36
-34
-34
-34
-33
-33
-33
-33
-32
-31
-30
-29
-28
-28
-27
-26
-26
-25
-24
-23
-23
-22
-22
-20
-21
-21
-21
-21
-22
-24
-24
-24
-25
-27
-29
-29
-30
-31
-33
-33
-34
-35
-37
-37
-37
-38
-39
-41
-41
-42
-42
-43
-42
-41
-40
-40
-38
-36
-33
-31
-28
-25
-21
-18
-15
-12
-8
-5
-1
1
3
5
6
8
10
10
9
8
8
8
7
6
6
6
6
4
4
4
4
4
4
6
5
5
4
4
5
6
7
8
9
10
11
10
11
12
14
14
14
15
15
15
16
17
18
18
18
19
20
20
20
20
20
18
17
17
17
17
17
18
19
21
27
31
25
17
15
15
15
15
16
16
16
16
16
15
15
15
15
15
16
15
16
16
15
15
15
16
16
16
15
15
15
15
15
16
17
16
16
15
16
15
15
14
15
14
13
14
14
14
14
15
15
15
15
15
15
15
16
16
15
16
16
16
16
15
16
17
17
16
15
16
16
15
15
14
14
13
12
13
14
15
15
16
17
18
18
17
18
19
21
24
28
32
34
37
37
40
41
44
46
49
52
56
60
62
63
59
56
52
47
41
34
28
24
22
19
17
14
11
10
10
10
11
12
12
12
12
12
13
12
11
11
12
12
12
12
13
13
14
13
14
14
15
18
27
36
44
61
98
153
223
304
370
420
452
454
390
254
111
8
-39
-42
-33
-26
-21
-17
-14
-12
-11
-9
-8
-8
-8
-9
-8
-7
-7
-7
-8
-8
-8
-9
-9
-8
-7
-6
-7
-7
-6
-6
-5
-5
-4
-3
-2
-2
-1
-1
0
0
-1
0
0
-2
-3
-4
-4
-6
-7
-8
-9
-11
-13
-13
-13
-15
-17
-18
-18
-19
-20
-21
-22
-23
-24
-25
-25
-25
-25
-26
-27
-26
-25
-24
-24
-22
-21
-19
-18
-17
-14
-11
-8
-6
-2
0
3
5
7
9
10
12
12
12
13
14
13
13
13
13
13
12
12
12
12
11
10
11
10
9
9
9
9
9
9
9
10
10
9
10
12
12
12
14
19
26
26
17
12
14
15
16
17
18
18
18
18
18
19
19
18
18
18
19
17
16
16
17
17
16
16
16
16
14
13
13
13
13
12
12
11
10
10
9
9
9
9
8
8
8
7
7
7
8
7
6
6
6
6
5
5
6
6
5
5
5
5
4
4
5
5
4
4
4
4
4
3
2
2
2
1
1
1
1
1
1
0
1
1
1
0
1
1
0
0
0
0
0
0
0
1
1
1
1
3
3
3
3
4
4
4
4
5
9
13
16
19
21
24
24
25
28
30
32
33
36
40
44
44
45
44
42
37
32
28
22
17
11
9
7
4
0
-3
-3
0
5
8
2
-4
-6
-5
-4
-4
-4
-5
-5
-3
-2
-2
0
1
1
1
2
4
5
7
13
26
44
72
111
168
244
315
376
412
441
437
369
241
104
2
-42
-46
-35
-26
-22
-21
-20
-19
-18
-18
-18
-18
-18
-18
-19
-19
-18
-18
-19
-19
-18
-18
-18
-18
-18
-16
-16
-15
-15
-13
-12
-12
-12
-11
-9
-9
-9
-9
-8
-8
-9
-8
-8
-8
-9
-9
-9
-11
-12
-13
-13
-14
-15
-17
-17
-17
-18
-19
-21
-21
-22
-22
-22
-22
-22
-23
-24
-24
-22
-22
-22
-21
-19
-19
-19
-16
-13
-10
-7
-4
0
3
6
8
11
15
16
18
19
20
21
20
20
20
20
20
19
19
19
20
20
25
31
31
22
16
16
18
18
18
19
19
20
20
21
22
23
22
23
25
26
25
26
27
28
27
27
28
28
28
28
28
28
28
27
27
28
28
27
27
27
27
26
25
25
25
25
25
24
25
24
23
22
23
22
21
21
20
20
18
18
17
18
18
17
17
17
18
17
16
16
17
17
16
16
17
17
16
15
16
16
16
16
16
15
14
14
14
14
13
13
13
14
14
12
12
12
13
14
14
14
15
15
14
14
15
15
13
12
12
13
13
12
12
12
12
11
12
12
12
11
12
14
14
14
13
13
14
14
17
20
25
27
30
31
34
35
37
41
47
56
61
58
54
56
56
54
51
47
42
35
28
22
17
13
11
8
4
2
1
1
1
1
1
1
2
2
1
1
1
0
0
0
0
1
1
2
3
5
6
7
8
10
17
29
50
79
121
176
249
330
387
434
457
455
388
251
113
4
-46
-51
-43
-35
-31
-28
-27
-26
-25
-24
-23
-24
-24
-24
-24
-24
-25
-24
-24
-24
-24
-23
-22
-22
-22
-22
-21
-20
-20
-20
-19
-19
-19
-18
-17
-16
-15
-15
-15
-14
-13
-14
-14
-15
-15
-16
-17
-18
-19
-21
-22
-23
-24
-24
-25
-26
-27
-28
-29
-31
-30
-31
-32
-33
-33
-33
-34
-34
-34
-33
-33
-31
-30
-27
-25
-24
-21
-18
-13
-6
2
4
0
-4
-1
2
4
6
7
7
6
6
5
4
4
4
3
2
2
2
1
1
0
0
1
1
1
1
2
2
2
2
3
4
4
5
6
7
7
8
9
10
10
11
12
13
13
12
13
13
13
13
13
13
13
13
12
12
12
12
11
11
10
10
9
9
9
10
9
9
8
8
8
7
7
7
7
6
5
5
6
5
4
5
5
5
5
5
5
4
3
4
4
4
3
3
3
3
1
1
2
2
1
1
1
2
1
1
1
2
2
2
2
2
3
2
2
1
1
1
1
0
0
0
0
-1
0
0
0
-2
-3
-3
-4
-4
-4
-5
-4
-4
-3
3
9
5
-2
-4
-3
-2
-2
-1
0
2
5
9
14
17
19
20
23
25
26
27
28
31
34
37
39
40
39
37
33
28
24
19
13
7
4
2
0
-3
-6
-8
-8
-8
-8
-8
-8
-8
-7
-7
-7
-7
-8
-8
-7
-7
-7
-7
-6
-6
-5
-5
-4
-2
0
5
17
34
59
94
149
215
290
354
394
430
437
406
298
155
35
-41
-64
-56
-45
-38
-35
-32
-31
-29
-28
-27
-25
-24
-25
-25
-24
-24
-25
-26
-26
-25
-25
-24
-24
-23
-22
-22
-21
-21
-19
-19
-18
-17
-17
-17
-17
-16
-16
-15
-16
-16
-16
-17
-17
-18
-18
-18
-19
-20
-20
-22
-24
-25
-25
-25
-26
-27
-28
-26
-22
-18
-22
-32
-34
-33
-33
-33
-33
-32
-33
-32
-32
-30
-29
-27
-25
-23
-19
-17
-13
-11
-8
-6
-4
0
1
2
3
4
5
5
5
5
5
4
4
4
4
4
1
1
1
0
0
-1
-1
-1
-1
-2
-2
-2
-2
-2
-2
-1
-1
0
0
0
0
0
0
0
1
2
1
1
0
1
0
0
0
0
1
1
1
2
2
1
0
0
0
0
-1
-1
-1
-1
-2
-3
-3
-3
-4
-4
-4
-4
-5
-6
-6
-6
-7
-8
-8
-7
-8
-8
-9
-8
-8
-9
-10
-10
-10
-10
-11
-12
-12
-11
-11
-13
-13
-12
-13
-14
-14
-14
-13
-14
-14
-14
-15
-16
-16
-15
-13
-13
-12
-12
-11
-11
-9
-5
-4
-11
-16
-16
-16
-15
-16
-17
-16
-16
-16
-16
-16
-15
-15
-15
-15
-15
-15
-16
-16
-16
-16
-17
-17
-17
-16
-16
-15
-14
-12
-9
-5
-2
0
3
4
4
5
6
9
11
12
16
20
23
24
23
22
19
15
10
4
-1
-6
-10
-13
-15
-19
-23
-24
-24
-23
-24
-24
-24
-25
-25
-25
-24
-24
-24
-24
-24
-24
-24
-24
-24
-23
-22
-21
-21
-21
-19
-17
-12
-1
16
42
79
134
198
267
331
371
408
422
398
301
161
40
-42
-73
-70
-61
-53
-48
-46
-43
-41
-39
-40
-39
-39
-39
-39
-39
-39
-38
-38
-39
-39
-37
-37
-37
-36
-35
-35
-34
-34
-33
-32
-32
-32
-31
-29
-29
-28
-26
-20
-16
-22
-30
-33
-31
-31
-32
-33
-33
-33
-34
-35
-36
-36
-37
-39
-40
-41
-40
-42
-43
-44
-44
-45
-46
-46
-46
-45
-46
-45
-45
-44
-44
-43
-41
-40
-37
-36
-33
-31
-28
-25
-22
-18
-15
-13
-12
-10
-9
-8
-8
-7
-7
-7
-7
-8
-8
-8
-10
-11
-12
-12
-13
-14
-14
-14
-14
-15
-16
-17
-16
-16
-16
-17
-16
-16
-16
-15
-15
-14
-13
-13
-13
-12
-11
-11
-11
-10
-9
-9
-9
-9
-8
-8
-8
-8
-7
-5
-6
-7
-6
-6
-6
-7
-7
-7
-7
-7
-7
-6
-6
-6
-6
-6
-6
-6
-7
-7
-7
-7
-7
-8
-8
-6
-6
-7
-7
-7
-7
-8
-8
-8
-8
-7
-7
-7
-6
-6
-7
-7
-6
-2
3
2
-4
-10
-10
-9
-9
-8
-8
-8
-8
-8
-8
-9
-8
-8
-8
-8
-7
-7
-8
-9
-10
-9
-9
-9
-10
-10
-10
-11
-10
-11
-9
-8
-8
-9
-9
-8
-8
-8
-9
-8
-8
-9
-9
-9
-9
-9
-9
-9
-8
-7
-6
-3
0
4
6
8
10
13
15
17
19
22
25
28
32
35
36
34
31
27
22
16
10
4
1
-1
-4
-7
-10
-12
-13
-13
-13
-12
-13
-13
-13
-12
-12
-13
-13
-12
-11
-12
-12
-11
-10
-9
-10
-9
-9
-9
-10
-10
-10
-6
2
16
40
75
127
192
267
337
387
421
428
376
257
110
2
-50
-56
-47
-38
-35
-32
-31
-30
-28
-28
-27
-27
-28
-28
-26
-25
-20
-14
-16
-25
-29
-28
-26
-24
-24
-24
-24
-23
-23
-23
-23
-22
-21
-21
-21
-21
-21
-20
-21
-20
-19
-18
-18
-19
-19
-19
-20
-22
-22
-22
-23
-25
-26
-26
-28
-29
-30
-30
-31
-32
-31
-32
-32
-33
-33
-33
-32
-31
-30
-29
-28
-27
-26
-24
-22
-19
-17
-14
-11
-8
-6
-3
0
2
5
6
7
8
9
10
11
12
12
12
11
10
10
9
8
6
6
5
5
5
4
4
4
3
3
4
4
4
4
4
4
3
4
4
5
5
6
7
7
8
8
8
9
10
9
9
10
10
10
9
9
10
10
10
10
10
9
8
7
7
7
7
6
5
6
6
6
6
6
6
5
5
9
15
14
6
2
3
4
4
4
3
3
3
3
3
3
2
2
3
3
3
2
2
1
0
0
0
0
0
0
0
0
0
0
0
0
1
1
0
0
1
1
2
2
2
2
1
0
1
1
1
1
1
1
2
3
3
4
5
4
4
4
3
3
3
4
4
4
4
5
5
5
5
6
8
10
13
16
20
22
23
24
26
29
31
33
35
40
44
46
49
49
47
44
40
36
30
23
17
14
12
10
7
3
1
0
0
1
2
2
3
2
2
3
3
4
4
5
5
6
7
7
8
8
9
11
13
16
20
32
49
75
113
168
241
321
387
435
470
484
440
317
163
39
-28
-47
-40
-29
-24
-21
-18
-16
-14
-13
-12
-12
-12
-12
-12
-11
-10
-10
-10
-10
-10
-11
-10
-9
-8
-7
-6
-7
-5
-4
-5
-4
-3
-2
-2
-2
-2
-2
-2
-2
-3
-2
-2
-4
-6
-6
-7
-8
-9
-9
-10
-12
-13
-14
-15
-16
-18
-19
-18
-19
-20
-21
-21
-21
-22
-22
-21
-20
-19
-19
-17
-16
-14
-14
-12
-9
-6
-4
-1
1
5
8
10
13
16
19
19
21
22
23
22
23
23
23
23
21
21
20
19
18
18
18
16
16
16
16
15
15
16
17
17
17
17
18
19
19
20
21
22
22
23
24
25
27
27
27
28
29
29
29
30
30
30
31
37
40
35
28
26
28
28
27
27
27
28
27
27
26
26
24
24
24
24
24
23
23
23
22
21
21
22
21
20
20
20
20
20
19
19
20
20
20
19
20
20
19
20
19
20
21
21
20
20
20
19
18
17
18
18
18
18
18
19
17
17
17
17
16
15
15
15
14
14
14
15
16
16
16
16
16
15
14
15
15
15
15
15
15
16
16
16
17
17
17
17
18
18
18
19
21
25
28
31
33
36
39
38
39
41
44
46
47
50
54
58
59
58
55
53
47
41
36
28
22
17
16
13
10
6
5
5
5
5
5
6
6
6
7
7
8
8
10
16
23
21
13
10
12
13
14
16
17
19
21
27
40
58
85
121
176
245
314
371
410
441
446
397
280
140
25
-34
-49
-40
-30
-25
-23
-21
-18
-15
-15
-14
-14
-14
-14
-14
-14
-14
-13
-14
-13
-12
-12
-12
-11
-10
-9
-8
-7
-6
-6
-7
-8
-7
-6
-5
-5
-4
-4
-5
-5
-5
-5
-4
-5
-6
-8
-8
-9
-11
-12
-12
-13
-13
-14
-15
-16
-17
-19
-20
-21
-21
-20
-21
-21
-22
-21
-22
-22
-21
-20
-20
-20
-17
-16
-14
-12
-8
-5
-2
0
3
6
9
11
13
16
17
18
19
21
21
21
21
20
19
18
18
18
18
18
17
15
14
15
15
15
15
15
16
15
14
15
16
18
23
26
22
15
13
14
15
18
17
16
16
16
16
16
16
17
18
19
20
20
20
19
19
20
20
20
19
20
20
20
19
18
19
19
19
18
18
19
17
16
16
17
17
16
15
15
16
14
13
13
14
14
13
13
12
11
10
10
10
10
10
9
9
9
10
9
8
8
8
7
6
7
7
7
7
9
10
9
8
7
8
9
8
8
8
8
8
7
7
9
8
8
7
8
8
9
9
9
10
10
9
8
8
8
8
8
7
8
8
9
9
10
12
12
11
11
12
12
13
14
18
22
25
27
29
31
30
31
33
36
38
39
44
48
52
52
50
48
46
43
39
39
37
27
14
10
9
7
3
1
0
1
2
1
2
2
4
4
4
4
5
5
5
6
7
8
7
6
6
7
7
9
10
12
15
21
33
54
84
127
187
258
337
391
435
462
459
399
264
124
16
-39
-49
-41
-31
-25
-22
-19
-17
-15
-13
-11
-11
-10
-10
-10
-10
-11
-10
-9
-9
-9
-9
-8
-7
-8
-8
-7
-7
-7
-6
-5
-4
-4
-4
-4
-3
-2
-3
-3
-2
-2
-2
-3
-3
-3
-4
-5
-5
-5
-7
-8
-10
-10
-11
-13
-15
-15
-16
-18
-19
-19
-19
-20
-21
-22
-22
-24
-24
-24
-23
-23
-22
-22
-21
-19
-18
-17
-16
-13
-10
-7
-5
-3
0
3
5
8
11
13
14
15
17
22
28
26
17
12
12
12
11
11
11
10
8
8
8
8
7
6
6
5
4
4
5
5
5
6
6
8
8
7
7
9
10
10
11
12
13
13
12
14
15
15
15
15
16
16
15
15
15
15
15
14
14
14
14
13
12
12
11
10
10
10
10
9
8
7
7
6
5
4
4
3
1
0
0
0
-1
-1
-1
0
0
-1
-1
-1
-2
-2
-3
-2
-2
-3
-4
-3
-2
-2
-3
-3
-3
-3
-4
-4
-3
-3
-4
-5
-5
-5
-4
-5
-7
-7
-6
-7
-7
-6
-5
-6
-6
-6
-5
-5
-5
-5
-6
-6
-7
-7
-7
-6
-6
-6
-6
-6
-7
-6
-6
-6
-7
-7
-8
-6
-3
2
7
6
3
4
7
9
11
12
13
15
18
20
22
25
29
31
31
30
26
23
19
13
7
2
-2
-7
-10
-12
-16
-20
-23
-24
-24
-23
-23
-22
-20
-19
-19
-19
-19
-19
-19
-18
-18
-17
-16
-15
-14
-14
-14
-14
-13
-11
-4
6
24
50
90
142
211
280
345
389
419
430
380
273
132
15
-49
-68
-61
-51
-46
-43
-42
-41
-41
-38
-37
-38
-38
-37
-36
-36
-36
-35
-34
-34
-35
-34
-34
-32
-32
-31
-30
-29
-29
-27
-26
-26
-26
-25
-24
-23
-23
-23
-24
-23
-24
-24
-24
-24
-25
-26
-27
-28
-29
-30
-32
-32
-33
-35
-36
-36
-36
-37
-39
-39
-39
-40
-40
-41
-41
-42
-42
-42
-38
-31
-29
-34
-39
-37
-35
-33
-31
-27
-24
-22
-19
-15
-11
-9
-6
-4
-2
-1
0
0
1
0
0
-1
-1
-1
-1
-2
-1
-2
-2
-3
-4
-4
-3
-4
-4
-3
-3
-3
-4
-3
-2
-1
-2
-2
-1
-1
-1
-2
-1
-1
-2
-2
-1
-1
-1
-2
-2
-1
0
-1
-1
0
0
0
0
0
2
2
2
2
2
2
2
2
1
0
0
0
1
1
0
0
0
0
0
0
0
0
2
1
1
1
1
0
0
-1
0
0
0
0
0
0
0
0
0
0
0
0
0
0
0
0
-1
-1
0
0
0
0
0
0
0
0
-1
-2
-2
-2
-1
-1
-2
-2
-1
-2
-2
-1
3
9
10
3
-2
-2
-1
-1
-1
0
0
0
0
1
1
1
0
1
1
1
1
1
1
2
3
5
9
13
16
18
19
20
23
25
28
32
35
38
43
48
48
46
42
39
34
27
20
13
9
6
3
1
-2
-4
-4
-3
-3
-4
-4
-3
-2
-2
-2
-2
-1
0
0
1
2
4
4
5
5
7
8
8
9
9
13
21
34
56
89
134
199
274
352
406
446
468
440
346
189
56
-27
-55
-51
-41
-34
-30
-28
-26
-25
-24
-23
-24
-24
-25
-24
-25
-24
-23
-23
-23
-23
-23
-23
-23
-24
-24
-24
-23
-23
-23
-22
-21
-21
-21
-21
-21
-21
-21
-22
-21
-21
-21
-22
-21
-21
-21
-18
-13
-16
-24
-29
-30
-30
-30
-31
-32
-33
-33
-34
-35
-35
-36
-36
-38
-37
-38
-37
-39
-38
-37
-36
-35
-34
-32
-30
-28
-26
-24
-21
-18
-16
-13
-10
-7
-5
-4
-1
0
2
3
4
5
5
4
3
3
3
2
1
1
1
0
-1
-3
-4
-4
-5
-6
-6
-4
-5
-5
-5
-4
-3
-4
-4
-3
-3
-2
-2
-2
-1
-1
-1
0
0
0
0
0
0
0
0
0
0
0
0
-1
0
0
-1
-2
-3
-3
-3
-4
-5
-5
-4
-5
-5
-5
-6
-6
-7
-7
-8
-8
-8
-9
-9
-9
-9
-10
-10
-9
-9
-10
-10
-9
-9
-10
-11
-10
-9
-9
-9
-8
-8
-9
-9
-9
-9
-9
-8
-4
1
0
-10
-14
-13
-12
-12
-12
-11
-11
-11
-12
-12
-12
-11
-12
-13
-12
-13
-13
-14
-13
-12
-12
-12
-13
-13
-13
-12
-12
-12
-12
-12
-12
-12
-11
-11
-11
-11
-11
-9
-10
-10
-9
-8
-7
-4
0
4
6
7
9
10
12
15
18
22
25
28
32
33
33
30
27
23
18
13
7
1
-2
-4
-6
-9
-11
-14
-16
-17
-17
-16
-16
-16
-16
-15
-15
-14
-14
-14
-13
-14
-14
-13
-12
-10
-9
-8
-7
-6
-5
-3
2
12
30
58
101
159
231
309
368
412
436
425
347
205
73
-27
-67
-67
-56
-48
-44
-40
-37
-35
-33
-32
-31
-31
-31
-30
-29
-28
-28
-28
-27
-26
-26
-26
-25
-24
-20
-13
-12
-19
-24
-24
-23
-21
-19
-19
-19
-19
-17
-16
-15
-15
-14
-14
-14
-15
-15
-15
-16
-17
-18
-18
-19
-21
-23
-23
-22
-24
-24
-25
-25
-26
-27
-26
-26
-25
-27
-26
-26
-25
-25
-24
-23
-22
-22
-21
-19
-16
-13
-10
-8
-6
-3
0
1
4
7
10
12
14
15
17
18
19
21
20
20
19
19
19
19
18
17
18
17
16
15
16
17
18
18
19
19
19
19
20
22
23
22
22
24
25
24
24
25
27
27
27
26
27
27
27
27
28
29
29
28
28
28
28
27
27
28
28
27
26
26
25
25
24
25
26
27
26
24
24
25
24
23
23
24
25
25
25
27
28
33
37
31
24
22
24
25
26
26
27
28
28
28
27
28
28
29
28
27
27
28
28
27
27
26
27
26
25
26
27
28
27
28
27
28
27
26
26
26
26
26
26
27
27
26
25
24
24
24
24
24
24
23
23
23
24
24
24
24
24
24
25
25
26
26
26
26
28
29
32
35
39
42
45
45
46
47
49
52
53
56
58
63
66
70
72
71
68
62
58
52
47
39
33
29
26
24
19
15
14
13
13
13
14
14
13
13
14
14
14
14
14
14
13
13
14
15
16
17
19
21
22
23
26
33
47
67
95
139
196
272
343
399
441
472
484
444
330
182
58
-16
-39
-29
-14
-10
-14
-15
-11
-9
-8
-7
-6
-6
-6
-6
-6
-6
-7
-8
-8
-7
-8
-8
-8
-8
-8
-9
-8
-8
-8
-8
-7
-6
-6
-6
-7
-7
-7
-7
-8
-9
-9
-10
-11
-13
-13
-13
-13
-14
-15
-16
-17
-19
-20
-21
-21
-22
-23
-25
-25
-26
-27
-29
-30
-30
-31
-32
-33
-32
-33
-33
-32
-30
-28
-27
-25
-23
-21
-19
-17
-14
-11
-8
-6
-4
-2
0
1
2
3
4
4
4
4
4
5
3
2
2
1
1
0
0
0
0
0
-1
-1
0
-1
-1
0
0
-1
-1
-1
0
0
0
0
0
0
1
2
3
3
2
2
2
2
2
2
2
3
3
3
3
3
3
3
3
2
4
9
12
8
0
-2
-3
-3
-3
-3
-3
-4
-5
-6
-7
-8
-9
-9
-10
-11
-12
-13
-12
-13
-14
-16
-15
-15
-15
-15
-15
-15
-15
-16
-17
-17
-17
-17
-17
-17
-18
-18
-19
-19
-18
-19
-20
-20
-20
-21
-22
-22
-22
-22
-22
-22
-22
-21
-21
-22
-22
-21
-21
-21
-21
-21
-21
-21
-22
-22
-21
-21
-21
-22
-21
-21
-20
-20
-20
-19
-19
-20
-20
-20
-20
-21
-22
-21
-20
-20
-20
-18
-15
-12
-8
-5
-2
-1
-1
0
1
5
7
9
12
16
20
21
19
17
14
7
1
-2
-7
-13
-17
-19
-21
-24
-29
-31
-30
-30
-30
-30
-28
-28
-27
-28
-28
-27
-28
-28
-29
-28
-28
-28
-27
-24
-23
-22
-18
-12
-14
-19
-16
-3
18
46
89
144
217
295
355
402
428
432
371
240
102
-7
-59
-64
-54
-44
-41
-39
-39
-37
-37
-37
-36
-36
-34
-35
-34
-34
-33
-33
-34
-33
-33
-32
-32
-31
-32
-31
-29
-29
-29
-28
-27
-27
-26
-25
-24
-23
-23
-23
-21
-20
-20
-21
-20
-20
-21
-21
-22
-22
-23
-24
-25
-26
-27
-28
-29
-29
-30
-31
-31
-31
-32
-33
-33
-34
-34
-34
-34
-32
-31
-30
-30
-27
-25
-23
-22
-19
-17
-15
-12
-9
-5
-2
1
2
3
5
7
8
9
10
11
11
11
11
12
11
10
9
9
8
7
7
7
8
8
7
6
7
7
7
7
9
9
9
10
11
11
12
13
18
24
23
16
12
12
12
12
13
14
14
13
13
14
15
15
14
15
15
14
14
15
16
16
15
15
15
16
16
16
15
16
16
16
16
17
16
15
15
15
15
15
14
14
15
15
14
13
13
13
13
15
16
17
17
17
17
18
18
18
19
18
17
17
18
18
18
18
18
18
18
17
17
17
18
18
19
20
22
21
20
19
20
22
21
20
20
20
19
18
19
19
21
20
20
21
21
21
21
21
20
21
22
23
23
22
22
23
24
25
28
31
35
38
39
40
42
44
45
48
50
54
57
61
66
67
67
63
60
56
51
44
37
31
27
26
24
21
18
17
22
23
17
10
9
9
11
11
11
11
11
11
10
10
10
11
12
13
15
17
20
21
24
29
41
63
94
143
204
290
367
429
474
499
502
435
306
152
32
-30
-46
-39
-30
-25
-19
-16
-14
-14
-12
-10
-10
-10
-10
-9
-9
-9
-10
-10
-9
-9
-10
-10
-10
-9
-9
-9
-8
-8
-8
-8
-8
-6
-6
-6
-5
-6
-6
-6
-5
-5
-6
-6
-7
-8
-9
-11
-12
-12
-13
-15
-17
-18
-18
-21
-22
-22
-22
-23
-25
-26
-26
-27
-29
-30
-30
-29
-29
-28
-28
-28
-27
-26
-25
-23
-19
-17
-15
-12
-8
-5
-2
0
4
6
8
9
9
11
11
11
11
11
10
9
9
8
8
12
18
15
6
1
1
2
2
2
2
3
3
2
2
2
3
3
3
4
5
5
5
5
6
6
6
5
5
5
6
6
6
7
7
7
6
6
7
7
7
7
7
6
6
6
7
6
6
5
4
4
3
3
2
2
1
1
1
1
-1
-3
-3
-2
-2
-2
-3
-3
-4
-5
-5
-5
-4
-4
-4
-3
-3
-3
-4
-5
-5
-4
-3
-4
-4
-4
-5
-6
-6
-7
-6
-5
-5
-5
-4
-4
-5
-5
-4
-5
-6
-6
-6
-6
-7
-7
-7
-7
-7
-8
-8
-8
-7
-7
-6
-6
-6
-6
-6
-6
-6
-6
-6
-5
-5
-5
-5
-5
-4
-5
-6
-5
-1
1
5
9
12
14
15
17
22
31
37
33
27
29
33
36
37
37
35
30
25
20
15
8
2
-1
-3
-5
-9
-13
-14
-15
-15
-15
-14
-14
-14
-13
-13
-12
-13
-13
-12
-12
-11
-11
-11
-10
-9
-10
-10
-9
-7
-5
0
9
24
46
76
121
178
253
319
374
411
436
441
382
266
124
8
-53
-68
-60
-49
-44
-41
-40
-37
-36
-34
-32
-31
-29
-30
-30
-31
-29
-29
-29
-28
-27
-26
-26
-26
-25
-24
-24
-24
-24
-23
-23
-23
-22
-21
-21
-21
-21
-20
-20
-21
-21
-20
-20
-21
-22
-23
-22
-22
-22
-23
-24
-24
-25
-27
-28
-28
-29
-30
-32
-32
-31
-31
-32
-34
-33
-34
-34
-35
-34
-32
-32
-30
-29
-26
-24
-22
-18
-14
-8
0
5
2
0
0
3
6
8
10
10
11
11
12
11
11
10
9
8
7
6
6
5
4
3
4
3
2
1
1
1
1
1
1
0
1
0
0
0
1
2
2
2
2
2
3
3
3
2
3
2
4
5
5
5
5
7
7
7
7
8
9
9
9
8
9
8
6
6
6
6
6
6
6
6
5
4
4
5
5
3
2
2
3
3
3
2
2
3
2
1
0
1
2
2
4
4
4
3
3
3
2
2
1
2
3
2
1
1
0
0
0
-1
0
0
0
0
1
1
0
0
0
0
0
-1
-1
-1
-1
-2
-2
-1
0
0
-2
-2
-2
-1
-1
-1
-1
0
0
1
6
12
10
1
-2
-2
0
0
0
0
2
3
3
4
7
11
15
17
19
21
22
23
26
28
31
33
38
42
43
43
42
40
37
33
26
19
14
9
6
4
2
-2
-6
-7
-7
-7
-7
-8
-9
-8
-8
-8
-8
-7
-6
-7
-6
-6
-5
-5
-5
-6
-6
-6
-7
-8
-8
-6
-1
10
29
60
103
164
240
322
391
434
467
460
394
251
100
-3
-52
-57
-47
-39
-33
-30
-28
-27
-26
-24
-25
-25
-24
-24
-24
-24
-24
-24
-23
-23
-24
-23
-23
-23
-24
-24
-23
-22
-22
-23
-22
-22
-22
-23
-22
-22
-21
-21
-21
-21
-21
-21
-22
-22
-23
-23
-25
-26
-27
-29
-31
-33
-33
-34
-35
-35
-32
-27
-26
-34
-41
-43
-44
-44
-43
-43
-43
-44
-43
-44
-42
-41
-40
-38
-35
-32
-30
-27
-25
-20
-18
-16
-12
-9
-6
-5
-3
-1
0
1
1
2
2
2
1
1
1
0
0
-1
-1
-1
-2
-3
-3
-3
-3
-3
-3
-3
-3
-3
-3
-2
-3
-3
-2
-1
-1
-1
-1
0
0
-1
-1
-1
0
0
-1
0
0
0
0
0
0
1
1
0
1
2
1
0
0
0
0
0
0
0
0
-1
-1
-2
-1
-2
-3
-4
-4
-3
-4
-4
-4
-5
-5
-6
-7
-7
-8
-9
-9
-9
-9
-10
-9
-8
-8
-8
-9
-9
-9
-10
-11
-11
-10
-11
-11
-11
-11
-11
-11
-12
-11
-11
-12
-11
-11
-10
-9
-5
0
-4
-12
-16
-15
-14
-14
-14
-14
-14
-13
-13
-13
-13
-13
-14
-15
-16
-15
-15
-15
-15
-15
-15
-15
-14
-13
-13
-14
-15
-15
-14
-12
-9
-5
-1
1
2
3
5
8
11
13
14
16
19
22
24
25
24
20
15
10
5
0
-6
-11
-15
-18
-20
-25
-28
-30
-30
-30
-29
-29
-29
-29
-29
-27
-26
-26
-25
-25
-23
-23
-22
-22
-20
-21
-21
-20
-19
-18
-14
-4
10
33
65
110
171
244
320
378
417
447
441
378
245
102
-4
-59
-68
-58
-49
-44
-42
-40
-40
-42
-42
-41
-38
-38
-39
-38
-38
-37
-38
-37
-36
-35
-36
-37
-36
-36
-35
-35
-34
-33
-33
-33
-33
-31
-31
-29
-24
-19
-22
-30
-33
-33
-32
-34
-34
-34
-33
-35
-36
-36
-38
-39
-42
-42
-42
-41
-42
-43
-43
-44
-44
-45
-44
-44
-44
-44
-44
-43
-43
-42
-41
-39
-36
-34
-32
-30
-26
-24
-21
-17
-13
-10
-8
-6
-3
-1
-1
-1
0
0
0
1
1
0
0
-2
-1
-1
-1
-2
-2
-2
-2
-3
-4
-4
-5
-5
-4
-3
-3
-5
-5
-6
-5
-4
-4
-4
-4
-4
-4
-5
-4
-3
-2
-2
-1
0
0
0
-1
0
-1
-1
-1
0
0
0
-1
-1
0
0
1
1
0
0
0
0
1
0
0
0
0
0
0
0
1
2
1
0
0
0
0
0
0
0
2
2
2
2
1
0
0
1
5
13
15
8
0
-1
-1
-1
0
2
2
1
1
2
2
1
2
3
4
3
3
4
4
4
4
5
6
6
6
6
6
6
7
8
8
8
8
8
8
8
8
8
9
9
9
8
8
10
9
8
8
10
10
10
11
15
19
22
25
26
28
29
30
31
34
38
39
42
46
51
52
52
50
47
44
38
33
26
20
16
13
11
7
3
0
0
1
1
2
2
2
1
1
2
3
3
3
4
5
5
5
4
5
7
8
8
9
10
12
19
33
54
85
128
185
261
336
397
440
470
478
432
310
162
39
-29
-47
-40
-31
-24
-21
-18
-16
-14
-13
-13
-13
-12
-10
-5
0
-1
-8
-12
-12
-10
-9
-8
-8
-7
-7
-7
-7
-7
-6
-5
-5
-4
-3
-3
-3
-3
-3
-2
-2
-2
-2
-2
-2
-3
-4
-4
-5
-6
-7
-8
-10
-11
-12
-14
-15
-15
-15
-17
-17
-17
-18
-19
-19
-19
-19
-19
-19
-18
-17
-16
-14
-11
-9
-7
-5
-2
0
2
5
8
12
14
16
18
20
21
20
20
20
21
20
19
18
18
17
16
16
15
15
14
14
13
13
12
12
11
11
11
11
11
11
12
12
11
12
13
14
14
14
15
15
14
13
13
14
14
13
14
14
14
13
12
12
11
11
11
12
11
10
9
10
10
8
8
7
7
6
5
5
5
5
5
4
9
16
15
5
0
0
1
1
0
0
0
0
-1
-1
-1
-2
-2
-2
-2
-3
-4
-3
-2
-2
-2
-1
0
0
-1
-2
-1
-1
-1
-1
-1
-1
-1
-2
-2
-2
-1
-1
-1
-1
-1
-2
-2
-2
-1
-2
-2
-2
-1
-1
-2
-3
-3
-2
-2
-2
-3
-3
-3
-3
-3
-2
-2
-2
-3
-2
-1
-1
-1
0
2
6
11
15
19
22
23
24
25
27
27
30
34
36
37
35
34
31
28
24
19
14
8
3
0
-2
-6
-11
-13
-13
-13
-13
-14
-14
-12
-12
-12
-13
-12
-11
-10
-10
-10
-10
-9
-8
-9
-7
-6
-5
-4
-2
0
2
7
18
35
61
96
146
214
292
362
408
444
457
420
305
151
27
-38
-54
-47
-37
-32
-30
-30
-27
-25
-25
-25
-24
-23
-21
-22
-22
-21
-21
-21
-21
-20
-20
-20
-20
-19
-18
-18
-18
-17
-16
-16
-15
-16
-15
-13
-13
-13
-14
-14
-14
-14
-14
-13
-13
-15
-17
-17
-17
-19
-20
-21
-21
-22
-23
-24
-25
-26
-27
-28
-27
-27
-28
-29
-28
-28
-27
-28
-28
-28
-27
-26
-25
-22
-20
-18
-16
-13
-10
-7
-5
-2
1
4
6
8
11
13
14
14
16
17
17
17
15
15
15
14
12
12
12
11
10
10
11
11
11
10
11
11
11
10
11
11
11
10
10
11
11
10
11
11
12
12
12
12
12
13
14
15
15
14
13
12
13
15
17
22
26
20
12
9
9
11
12
12
11
11
11
10
9
9
10
10
10
9
9
9
9
9
8
8
8
8
8
9
9
9
8
9
9
9
8
8
7
7
7
8
9
10
9
10
11
12
12
11
11
12
11
11
11
13
13
12
12
13
13
12
12
13
14
14
13
12
12
12
12
11
12
13
13
14
14
17
20
24
29
34
38
39
41
41
43
44
47
51
55
59
58
57
55
53
50
47
44
38
32
26
24
22
18
14
10
9
8
9
9
10
10
10
10
10
11
11
11
11
12
12
12
12
13
14
14
16
17
19
20
22
25
33
49
72
105
152
216
299
375
440
487
511
500
423
282
135
28
-19
-25
-18
-12
-9
-7
-7
-8
-9
-11
-11
-12
-13
-12
-11
-10
-10
-9
-8
-7
-6
-6
-7
-6
-5
-6
-6
-5
-3
-3
-3
-3
-2
-2
-2
-2
0
0
0
0
0
0
0
0
-1
-1
-1
-2
-4
-5
-6
-7
-8
-9
-10
-11
-11
-11
-11
-12
-13
-14
-14
-14
-15
-15
-14
-12
-11
-12
-11
-9
-8
-7
-5
-2
0
3
5
8
12
15
18
21
22
24
24
25
26
27
28
27
26
25
24
23
22
22
21
20
19
18
17
16
15
15
15
15
14
14
15
15
15
15
16
16
17
17
18
19
18
18
17
18
18
17
16
17
18
17
18
18
19
24
30
28
20
15
15
16
17
18
19
18
19
19
18
17
16
15
15
15
14
14
14
13
13
13
14
12
12
12
12
11
11
11
11
11
10
11
12
12
10
9
9
8
7
5
5
5
5
4
4
4
5
6
6
6
7
7
6
5
5
5
5
4
4
4
4
4
3
3
3
3
2
1
0
0
0
0
1
1
1
1
1
0
0
0
0
0
0
0
2
4
8
13
17
19
21
22
22
23
23
24
26
30
33
34
33
32
30
27
24
20
17
12
7
2
-1
-4
-8
-11
-15
-17
-16
-16
-16
-16
-16
-16
-16
-15
-15
-15
-16
-16
-15
-15
-15
-14
-12
-11
-6
0
0
-6
-8
-3
8
25
48
82
129
193
265
336
382
419
439
425
353
220
84
-19
-73
-81
-73
-64
-59
-55
-53
-51
-48
-47
-45
-44
-43
-45
-45
-45
-44
-43
-42
-39
-38
-37
-38
-38
-36
-36
-35
-35
-33
-33
-33
-32
-31
-30
-30
-30
-30
-30
-31
-30
-29
-29
-30
-31
-30
-32
-34
-36
-36
-36
-38
-39
-41
-42
-44
-45
-46
-46
-47
-48
-48
-48
-47
-48
-49
-50
-50
-49
-49
-47
-46
-44
-42
-41
-39
-35
-31
-29
-27
-23
-20
-18
-16
-14
-11
-8
-7
-5
-5
-5
-6
-5
-6
-7
-7
-8
-8
-9
-11
-12
-13
-13
-13
-13
-13
-13
-14
-14
-13
-12
-12
-12
-12
-12
-12
-11
-10
-7
0
2
-4
-11
-11
-10
-9
-7
-7
-6
-6
-6
-7
-6
-6
-7
-8
-7
-8
-8
-9
-8
-7
-8
-9
-9
-8
-9
-9
-8
-8
-8
-9
-8
-9
-9
-9
-8
-8
-8
-9
-10
-10
-10
-9
-9
-8
-9
-10
-11
-12
-11
-11
-11
-12
-10
-10
-11
-11
-10
-10
-11
-12
-12
-10
-10
-11
-11
-10
-11
-11
-12
-11
-11
-12
-13
-13
-12
-12
-11
-9
-8
-8
-8
-8
-8
-8
-8
-8
-8
-9
-9
-9
-9
-8
-9
-9
-9
-10
-10
-11
-10
-9
-9
-9
-9
-9
-8
-9
-10
-9
-10
-10
-10
-10
-9
-8
-6
-3
1
4
6
6
8
9
11
13
15
18
21
24
28
31
32
31
28
25
24
24
19
7
-2
-6
-7
-10
-13
-15
-15
-14
-14
-14
-14
-14
-13
-13
-13
-13
-12
-12
-12
-12
-12
-11
-10
-9
-9
-8
-7
-7
-7
-4
4
18
41
74
126
189
268
337
392
433
449
434
337
195
62
-29
-60
-59
-49
-41
-38
-35
-34
-33
-34
-33
-34
-35
-34
-33
-32
-32
-31
-30
-30
-29
-28
-27
-27
-26
-26
-26
-25
-26
-25
-23
-22
-21
-20
-20
-19
-19
-18
-18
-18
-17
-16
-17
-17
-17
-18
-19
-19
-18
-19
-21
-23
-24
-25
-27
-28
-27
-27
-28
-29
-29
-30
-30
-30
-31
-30
-30
-29
-28
-26
-25
-23
-20
-17
-13
-11
-8
-5
-1
1
3
6
8
10
10
11
12
13
14
20
24
19
10
6
7
8
7
5
4
4
4
3
2
2
1
1
1
1
2
1
0
0
0
0
0
0
1
2
1
2
2
3
3
3
4
5
5
4
4
4
4
4
4
4
4
5
5
5
6
5
5
6
7
7
6
5
5
5
6
6
6
7
6
6
6
6
5
5
5
5
6
5
5
5
4
4
3
3
4
3
3
3
4
4
4
5
5
5
4
3
2
2
1
2
2
2
2
2
2
3
4
3
3
4
5
4
3
3
3
2
1
2
1
1
1
1
2
2
2
2
2
1
0
0
0
0
0
0
0
0
0
0
-1
0
0
0
0
3
9
14
12
9
12
16
18
20
22
24
26
28
30
33
35
39
41
41
39
34
30
26
21
15
9
4
1
0
-2
-5
-8
-10
-11
-11
-10
-9
-9
-10
-9
-9
-8
-7
-8
-6
-6
-6
-6
-6
-4
-4
-3
-3
-2
-1
0
2
9
23
45
78
124
187
258
334
386
428
449
434
359
216
82
-19
-69
-74
-65
-56
-50
-45
-40
-39
-38
-37
-34
-32
-31
-29
-28
-28
-29
-29
-28
-27
-26
-26
-24
-23
-21
-19
-18
-18
-17
-18
-18
-18
-17
-16
-15
-15
-13
-13
-12
-11
-10
-10
-11
-12
-12
-12
-13
-15
-17
-17
-17
-18
-20
-21
-21
-22
-22
-22
-22
-22
-22
-22
-22
-22
-23
-23
-23
-21
-19
-11
-7
-11
-17
-18
-14
-11
-8
-6
-4
-1
1
4
6
9
11
13
14
15
16
18
20
20
20
20
20
20
19
18
17
16
15
14
14
14
13
13
13
13
12
12
14
13
13
13
14
14
15
14
15
16
16
17
17
18
18
18
18
17
18
18
18
17
18
19
19
19
18
19
19
19
19
19
20
20
19
19
20
20
19
18
19
19
19
18
18
19
18
17
16
16
16
16
17
18
18
16
16
16
16
16
15
15
15
15
14
14
14
13
13
12
12
12
13
12
12
13
14
14
13
14
15
16
15
15
15
15
15
14
16
16
15
14
13
14
13
14
14
15
16
17
21
25
23
15
12
13
13
13
12
12
12
11
10
10
11
11
11
11
12
12
12
11
12
13
14
15
18
22
26
28
28
29
31
33
34
36
40
42
45
48
51
53
52
50
45
41
35
28
22
17
16
12
9
5
2
1
1
3
3
3
3
4
4
5
5
6
6
7
7
7
7
8
8
7
6
6
6
5
5
10
20
37
62
99
151
218
294
359
409
443
467
449
372
236
99
3
-41
-46
-35
-28
-24
-20
-17
-16
-16
-15
-14
-14
-15
-15
-15
-15
-15
-16
-16
-15
-16
-16
-15
-13
-12
-12
-11
-11
-10
-9
-9
-8
-8
-8
-9
-9
-8
-9
-10
-10
-10
-8
-8
-8
-8
-4
0
-3
-12
-17
-17
-16
-17
-18
-18
-19
-20
-20
-21
-21
-23
-23
-23
-23
-23
-24
-22
-22
-21
-20
-18
-16
-15
-13
-10
-7
-5
-2
0
3
6
8
10
13
16
16
16
17
18
17
15
14
14
14
12
11
10
9
8
8
7
7
7
6
6
5
5
5
4
4
5
6
5
6
6
6
6
6
7
8
8
8
8
8
8
8
9
9
9
8
8
8
8
8
7
8
7
6
6
6
7
6
5
5
5
5
4
5
5
5
4
4
5
4
2
1
1
2
2
1
0
1
2
2
1
0
0
-1
-1
-1
0
0
0
0
-1
-1
-2
-3
-3
-3
-4
-3
-3
-3
0
4
4
-2
-6
-5
-4
-3
-3
-3
-3
-3
-3
-3
-2
-1
-1
-3
-4
-5
-4
-4
-5
-5
-5
-5
-6
-6
-5
-5
-5
-6
-6
-5
-5
-5
-4
-3
-3
-4
-5
-4
-4
-4
-3
-1
2
7
10
12
14
15
16
17
20
22
24
26
30
34
35
36
33
30
25
20
14
8
3
0
-1
-3
-7
-11
-13
-12
-12
-11
-11
-10
-9
-9
-9
-9
-8
-9
-9
-9
-8
-8
-8
-8
-8
-6
-6
-6
-5
-4
-2
2
14
33
63
105
163
236
313
371
411
432
413
319
178
46
-41
-70
-67
-57
-50
-46
-43
-41
-40
-39
-39
-38
-38
-38
-39
-39
-38
-37
-36
-37
-36
-35
-35
-35
-31
-23
-21
-27
-34
-34
-33
-32
-30
-30
-28
-27
-26
-27
-27
-27
-27
-26
-28
-28
-29
-30
-32
-33
-34
-35
-36
-36
-36
-39
-39
-40
-41
-41
-42
-42
-42
-43
-44
-44
-44
-44
-43
-43
-42
-42
-40
-38
-35
-32
-29
-27
-25
-22
-20
-17
-14
-11
-9
-7
-6
-4
-1
0
1
1
2
1
0
0
-1
-1
-2
-3
-4
-4
-4
-5
-6
-6
-5
-7
-7
-7
-7
-7
-6
-5
-4
-4
-4
-4
-4
-4
-3
-2
0
-1
-1
-1
-1
-1
-1
0
0
0
0
0
0
0
-1
-1
-1
-1
-1
-1
-1
-1
-1
-2
-2
-2
-1
-2
-2
-2
-2
-2
-2
-3
-3
-2
-1
-1
-1
-1
-2
-2
-1
4
6
1
-6
-8
-8
-7
-6
-6
-6
-6
-6
-6
-7
-7
-6
-6
-7
-7
-8
-8
-9
-10
-10
-10
-8
-8
-8
-8
-7
-7
-7
-7
-7
-6
-5
-5
-6
-5
-5
-5
-5
-4
-3
-3
-3
-4
-4
-4
-5
-6
-5
-5
-5
-6
-5
-6
-6
-6
-6
-5
-5
-5
-5
-3
-2
-1
2
7
10
13
15
17
17
19
21
23
26
28
31
34
37
38
36
35
31
27
22
17
11
5
2
-1
-3
-5
-9
-12
-14
-13
-12
-12
-12
-11
-10
-9
-9
-8
-7
-7
-7
-6
-6
-5
-4
-3
-3
-2
-1
-1
0
4
11
25
49
83
133
195
273
346
401
439
460
449
375
235
98
-6
-53
-57
-41
-27
-25
-30
-30
-27
-25
-23
-23
-23
-23
-23
-23
-24
-23
-23
-22
-22
-23
-23
-22
-23
-23
-22
-21
-20
-20
-19
-18
-17
-17
-17
-16
-15
-15
-16
-15
-15
-15
-14
-13
-13
-13
-15
-16
-18
-19
-20
-21
-22
-22
-23
-24
-24
-25
-25
-26
-26
-26
-26
-26
-27
-27
-26
-26
-27
-26
-24
-23
-22
-21
-18
-15
-13
-11
-8
-5
-3
-1
1
5
7
9
10
12
13
13
13
13
13
13
12
11
11
10
9
9
8
7
5
5
5
5
5
6
5
5
4
4
4
4
3
3
3
4
3
4
4
5
6
7
7
8
8
9
8
9
10
10
11
10
11
11
11
11
11
12
12
13
17
23
24
17
11
11
12
12
12
12
12
12
11
11
11
12
11
12
11
11
10
10
12
11
11
10
10
11
11
11
11
12
13
13
12
12
11
11
10
9
9
9
9
9
10
10
9
10
10
11
11
11
11
11
11
10
10
10
10
10
10
10
10
9
9
9
10
10
9
9
9
8
6
6
6
6
6
5
5
6
6
6
7
8
8
9
9
10
12
14
17
20
24
27
29
29
29
31
32
35
36
39
42
45
49
50
51
48
44
39
35
29
23
17
13
11
8
5
2
0
0
0
0
0
0
-1
0
0
0
0
0
2
3
3
4
5
6
6
6
7
9
15
20
16
14
24
43
70
107
161
225
299
360
406
443
463
449
365
224
89
-8
-51
-53
-42
-33
-27
-23
-20
-17
-16
-15
-14
-14
-15
-14
-12
-12
-13
-13
-13
-12
-12
-13
-12
-12
-12
-13
-13
-13
-13
-13
-13
-13
-13
-13
-12
-10
-9
-8
-8
-7
-7
-7
-8
-9
-10
-10
-10
-12
-13
-13
-14
-15
-17
-17
-18
-19
-21
-22
-22
-20
-20
-21
-21
-22
-22
-23
-22
-22
-21
-20
-18
-16
-15
-13
-10
-7
-4
-1
1
5
7
9
11
13
15
16
17
17
19
18
16
15
15
15
13
11
11
11
10
9
8
7
7
6
5
5
5
5
4
3
2
2
2
1
2
3
4
4
5
5
8
13
17
13
7
5
6
6
7
7
7
8
9
8
8
8
8
8
8
8
8
8
8
8
8
9
8
7
8
8
8
7
8
8
8
7
7
7
8
7
7
7
7
7
6
6
6
7
6
6
6
6
7
7
7
7
7
6
5
6
5
4
3
4
6
6
6
6
6
6
5
5
5
5
4
4
4
5
4
4
5
6
6
6
6
6
6
6
5
5
5
5
5
5
4
4
3
4
4
4
5
4
3
4
4
4
4
5
5
5
5
6
9
13
17
20
23
25
25
26
29
30
32
34
38
41
42
43
41
40
36
32
28
23
18
12
9
6
5
2
-1
0
6
6
-1
-7
-7
-6
-5
-5
-5
-4
-3
-3
-2
-2
-1
-1
-1
-1
0
0
-1
-1
0
0
2
9
25
48
83
131
197
273
338
389
417
433
397
292
156
34
-39
-61
-55
-43
-37
-32
-30
-25
-22
-21
-22
-23
-22
-23
-23
-24
-23
-23
-23
-22
-22
-21
-20
-20
-21
-21
-20
-20
-19
-19
-17
-17
-16
-15
-13
-11
-10
-9
-8
-7
-7
-7
-7
-7
-7
-8
-8
-8
-9
-10
-11
-11
-11
-13
-14
-14
-14
-14
-15
-15
-15
-15
-15
-16
-14
-14
-14
-14
-13
-13
-12
-12
-10
-8
-6
-4
-2
0
2
5
8
11
15
18
20
21
22
23
25
25
26
26
26
25
23
22
21
20
19
20
24
28
25
18
14
14
14
15
16
16
16
17
17
16
16
15
16
15
15
15
15
16
16
16
16
17
17
18
17
17
17
17
16
16
17
17
17
16
16
16
16
16
15
16
16
15
15
15
15
15
15
13
14
13
12
12
12
13
12
11
11
11
10
9
9
8
8
8
8
8
7
7
6
6
6
6
5
5
5
4
3
3
4
4
3
4
5
5
5
5
4
4
3
2
2
4
4
4
4
4
3
3
2
2
3
3
2
2
1
1
0
0
0
1
0
0
1
1
0
0
0
0
1
2
2
2
1
1
1
2
2
2
4
6
10
12
14
16
19
21
26
32
34
28
25
28
33
37
39
39
38
35
30
24
18
12
6
1
-1
-5
-8
-12
-16
-18
-18
-17
-18
-18
-18
-17
-18
-18
-17
-16
-16
-15
-15
-13
-12
-11
-10
-9
-8
-7
-5
-3
0
8
25
50
86
135
197
273
335
388
419
446
434
356
225
88
-11
-58
-68
-58
-49
-42
-38
-36
-33
-32
-31
-31
-31
-30
-29
-29
-29
-29
-29
-28
-29
-28
-27
-28
-28
-29
-29
-29
-30
-31
-30
-29
-29
-28
-27
-26
-26
-25
-24
-24
-24
-24
-25
-26
-27
-29
-30
-31
-31
-33
-34
-34
-35
-36
-37
-37
-38
-38
-38
-39
-38
-39
-40
-42
-42
-42
-42
-41
-42
-41
-40
-39
-38
-36
-33
-31
-27
-22
-13
-10
-14
-17
-14
-10
-8
-5
-3
-2
-1
-1
0
0
0
0
0
-2
-3
-4
-4
-4
-4
-5
-6
-6
-7
-7
-7
-6
-6
-6
-6
-6
-5
-4
-4
-3
-1
-1
-1
-2
-2
-1
-2
-1
-1
0
0
0
0
0
0
0
0
1
1
1
1
1
0
0
0
0
0
0
-1
-1
-1
-2
-3
-3
-3
-3
-4
-3
-5
-6
-6
-6
-6
-5
-6
-6
-6
-6
-7
-7
-7
-6
-6
-6
-7
-6
-6
-6
-6
-6
-5
-6
-6
-7
-7
-8
-8
-8
-8
-6
-6
-6
-6
-6
-6
-7
-7
-7
-7
-7
-7
-7
-6
-7
-8
-8
-7
-7
-8
-8
-8
-8
-8
-8
-7
-6
-8
-9
-7
-3
0
-2
-9
-11
-11
-10
-9
-8
-8
-8
-8
-7
-6
-5
-3
0
4
9
11
13
15
17
19
20
22
25
27
30
34
37
36
34
30
26
21
15
9
4
0
-3
-5
-8
-12
-15
-14
-13
-12
-12
-13
-13
-13
-13
-13
-12
-11
-10
-10
-10
-9
-8
-8
-8
-8
-7
-7
-7
-6
-2
5
18
39
67
110
166
234
308
360
403
422
420
354
223
93
-10
-55
-56
-47
-37
-32
-29
-28
-27
-26
-26
-25
-25
-24
-24
-24
-24
-24
-23
-23
-21
-21
-20
-19
-19
-19
-19
-18
-19
-19
-19
-18
-19
-19
-18
-18
-18
-18
-17
-16
-15
-15
-16
-16
-17
-17
-17
-17
-18
-19
-20
-22
-21
-21
-19
-15
-11
-16
-23
-26
-26
-25
-26
-27
-27
-27
-26
-26
-24
-23
-22
-21
-20
-18
-15
-13
-11
-7
-4
-1
0
2
5
7
7
9
11
12
12
13
14
14
14
14
14
13
12
11
10
10
10
10
8
7
6
6
5
5
6
6
6
6
6
6
5
6
6
7
7
8
8
8
7
7
8
9
9
8
8
8
8
8
9
10
11
11
10
10
10
9
9
9
9
9
9
8
8
8
8
8
8
8
8
7
7
7
7
5
5
6
6
5
3
3
4
5
5
6
6
5
4
3
2
1
0
0
0
1
1
1
3
4
4
3
2
3
3
3
2
3
2
2
3
6
14
15
6
-1
-1
-1
0
0
0
0
0
0
-1
-1
-1
-1
-2
-2
-2
-2
-3
-3
-3
-3
-2
-1
0
0
0
-1
0
0
0
0
4
8
11
14
16
18
19
19
19
21
23
25
28
31
33
33
32
30
29
26
23
17
11
7
3
0
-2
-5
-9
-12
-13
-13
-12
-12
-12
-12
-11
-10
-10
-10
-9
-8
-7
-7
-6
-5
-4
-4
-3
-2
-1
0
1
3
6
11
22
42
71
113
167
239
313
373
419
446
461
419
318
175
49
-29
-57
-57
-45
-38
-33
-32
-30
-27
-25
-24
-24
-23
-23
-22
-22
-21
-20
-20
-20
-21
-20
-19
-19
-20
-19
-18
-17
-16
-16
-15
-14
-14
-14
-14
-14
-11
-5
-3
-9
-16
-18
-19
-19
-18
-19
-19
-19
-18
-20
-21
-22
-23
-23
-25
-25
-26
-26
-28
-29
-30
-30
-30
-31
-31
-33
-34
-34
-35
-35
-34
-32
-32
-31
-29
-26
-24
-23
-21
-19
-16
-14
-11
-8
-5
-3
0
1
4
5
6
6
7
7
6
5
5
4
4
2
2
1
0
0
0
0
0
0
-1
-2
-2
-2
-2
-1
0
0
0
2
5
6
5
4
5
6
5
5
5
6
6
6
6
7
8
9
9
9
9
9
10
10
10
10
10
10
9
10
9
8
8
8
8
8
8
8
8
8
7
7
7
8
7
6
6
6
6
6
6
6
6
5
4
3
3
2
2
3
3
4
6
12
15
9
3
2
3
5
4
3
3
3
3
2
1
1
1
1
0
1
2
1
1
0
1
2
1
1
0
-1
-1
-1
-2
-1
-1
-2
-2
-2
-2
-2
-3
-2
-2
-2
-3
-2
-2
-3
-3
-2
0
3
7
11
15
18
20
19
20
21
22
23
25
28
31
34
33
33
33
32
29
25
21
16
11
6
3
1
0
-3
-8
-10
-10
-9
-9
-8
-7
-7
-8
-8
-9
-8
-8
-8
-6
-5
-5
-5
-5
-4
-3
-3
-2
-1
0
3
9
23
44
73
116
173
248
321
379
424
453
467
425
323
176
49
-26
-53
-50
-40
-34
-31
-30
-28
-27
-26
-26
-25
-24
-24
-23
-22
-22
-21
-21
-19
-15
-10
-12
-20
-23
-22
-21
-21
-20
-20
-20
-20
-19
-18
-18
-17
-17
-17
-17
-16
-15
-15
-16
-17
-18
-19
-20
-22
-23
-23
-22
-22
-23
-23
-24
-24
-25
-26
-26
-27
-27
-27
-27
-27
-26
-26
-25
-25
-25
-26
-27
-25
-21
-19
-16
-14
-11
-8
-6
-3
0
3
5
7
10
12
13
14
14
15
14
14
14
14
13
12
11
11
10
9
9
8
7
7
6
6
6
7
5
4
5
6
6
6
7
7
7
6
6
7
8
8
8
9
9
10
9
10
10
10
10
9
9
10
10
10
11
12
11
11
11
11
10
10
11
11
10
9
8
8
7
7
6
7
7
6
5
5
7
11
16
14
6
2
2
2
2
2
2
2
3
3
3
3
2
2
3
3
3
2
3
3
3
3
4
5
5
5
5
5
4
4
4
4
4
5
6
6
6
5
5
6
5
6
6
7
7
6
6
6
5
5
5
6
6
6
6
6
6
7
9
11
15
19
23
27
29
31
31
31
33
35
38
40
44
46
48
47
46
45
42
38
31
25
19
15
11
8
5
1
0
-1
0
0
0
0
0
1
0
1
1
1
2
3
4
4
5
5
6
7
7
9
10
12
16
22
35
55
83
122
174
249
328
397
445
476
493
461
366
211
77
-7
-40
-40
-32
-27
-24
-22
-16
-11
-14
-21
-24
-23
-23
-22
-22
-22
-21
-21
-22
-21
-20
-19
-19
-18
-17
-16
-16
-15
-15
-14
-13
-11
-10
-11
-11
-12
-12
-12
-12
-12
-13
-13
-14
-15
-17
-17
-19
-20
-22
-23
-24
-25
-28
-30
-31
-33
-34
-34
-33
-32
-32
-32
-34
-34
-35
-34
-33
-32
-31
-31
-29
-28
-26
-24
-20
-16
-14
-12
-8
-5
-2
0
1
4
5
5
6
7
8
8
7
7
7
7
6
5
5
5
4
3
1
1
0
-1
-2
-2
-2
-2
-2
-2
-2
-2
-2
-1
0
0
0
0
1
1
1
1
2
2
2
2
2
2
2
2
2
2
2
2
2
3
2
2
2
2
1
1
2
6
12
12
4
-2
-2
-2
-2
-2
-2
-2
-2
-2
-3
-4
-4
-5
-5
-4
-4
-6
-7
-6
-7
-7
-7
-7
-7
-7
-8
-8
-8
-8
-9
-9
-9
-8
-8
-7
-6
-6
-6
-6
-5
-6
-5
-6
-6
-6
-6
-7
-7
-7
-7
-7
-8
-7
-7
-8
-8
-8
-7
-7
-8
-8
-8
-7
-7
-8
-8
-7
-7
-6
-5
-3
0
4
8
13
17
19
20
21
23
25
28
30
34
37
38
38
37
35
32
28
24
19
14
8
5
2
-1
-4
-7
-7
-7
-7
-7
-7
-7
-8
-8
-7
-6
-6
-6
-6
-5
-5
-6
-4
-3
-1
-1
-1
0
2
3
6
12
24
41
65
99
146
211
284
353
401
438
459
441
354
202
71
-16
-48
-46
-37
-32
-30
-30
-29
-30
-31
-30
-30
-30
-31
-30
-29
-29
-28
-27
-26
-26
-27
-27
-26
-25
-25
-24
-23
-23
-23
-23
-23
-21
-21
-22
-21
-19
-17
-17
-16
-16
-16
-16
-17
-18
-18
-18
-19
-21
-23
-23
-24
-25
-26
-27
-27
-29
-29
-31
-32
-33
-34
-34
-34
-34
-35
-35
-36
-35
-35
-34
-32
-31
-29
-26
-23
-20
-18
-15
-12
-9
-6
-3
0
2
4
5
7
8
9
9
9
9
9
9
9
8
7
7
7
6
5
5
5
5
5
5
4
4
5
6
7
6
6
7
9
9
9
9
10
11
11
12
13
12
12
12
13
14
14
15
16
17
17
20
26
28
22
15
14
16
17
17
16
16
17
17
17
16
17
17
16
15
15
15
15
15
14
14
14
14
14
13
13
13
13
13
13
12
11
12
11
11
10
11
11
10
10
9
10
11
11
12
13
14
13
13
12
13
12
13
14
14
14
12
12
11
12
12
11
12
12
13
12
12
11
12
12
12
12
12
12
12
12
13
14
16
19
23
27
31
32
33
33
34
36
37
41
44
49
50
50
49
47
44
40
36
30
24
19
15
13
9
5
2
1
1
1
2
4
3
2
1
1
1
1
1
1
1
2
0
1
2
3
4
5
5
7
8
10
12
17
26
42
66
100
152
220
298
362
410
450
465
438
328
183
61
-12
-32
-28
-22
-20
-20
-20
-20
-21
-22
-23
-24
-25
-25
-24
-23
-23
-23
-23
-23
-22
-22
-23
-23
-22
-22
-23
-21
-20
-19
-20
-19
-19
-19
-18
-18
-17
-16
-16
-16
-16
-15
-16
-16
-16
-16
-17
-19
-20
-21
-22
-23
-23
-24
-25
-27
-29
-30
-31
-31
-33
-33
-35
-35
-36
-36
-36
-36
-35
-35
-34
-33
-32
-31
-29
-26
-24
-23
-21
-18
-16
-14
-13
-10
-7
-6
-4
-2
0
2
3
3
4
4
3
3
3
3
2
1
0
0
0
0
0
-1
0
0
-1
-1
0
0
0
0
1
2
1
1
3
4
4
4
5
5
5
5
6
7
9
14
19
15
8
5
5
7
7
7
7
7
7
7
6
5
5
5
4
3
3
4
4
4
3
2
2
2
1
1
1
1
0
0
0
0
-2
-2
-3
-3
-4
-5
-6
-6
-7
-7
-7
-7
-7
-7
-7
-6
-6
-6
-6
-5
-4
-4
-4
-5
-5
-5
-6
-6
-6
-6
-6
-6
-6
-5
-5
-5
-6
-5
-5
-5
-5
-5
-6
-6
-6
-6
-5
-4
-4
-3
-1
3
8
13
16
19
20
20
21
23
26
29
32
35
35
34
33
31
29
26
21
16
11
7
4
1
-1
-5
-9
-11
-11
-10
-11
-11
-11
-11
-12
-13
-12
-12
-11
-12
-11
-11
-10
-11
-10
-8
-7
-5
-5
-3
-1
1
5
12
30
53
75
102
147
215
297
365
416
447
463
423
316
172
47
-23
-45
-41
-31
-27
-27
-27
-28
-28
-29
-30
-31
-30
-30
-30
-30
-29
-28
-28
-27
-26
-25
-25
-25
-24
-24
-23
-22
-20
-19
-18
-19
-20
-19
-19
-18
-18
-17
-16
-15
-16
-17
-17
-18
-19
-21
-22
-22
-23
-24
-25
-26
-27
-27
-29
-29
-30
-32
-32
-33
-33
-34
-33
-32
-31
-31
-31
-30
-30
-29
-28
-26
-24
-22
-21
-18
-15
-13
-10
-7
-4
-1
0
2
5
7
9
10
10
12
14
14
14
15
15
14
13
13
12
12
11
11
11
11
10
11
10
11
10
10
11
12
13
12
12
13
13
13
14
15
16
16
17
20
26
30
24
16
14
15
15
16
16
16
16
16
16
16
17
17
17
18
18
17
16
17
18
18
17
18
18
17
17
17
17
18
18
17
16
16
15
14
15
16
17
16
17
17
17
16
16
16
16
17
17
18
18
18
18
19
21
22
24
24
23
23
22
22
21
22
21
21
20
21
22
22
22
22
22
21
22
22
22
22
21
21
21
21
21
21
21
22
23
25
28
32
37
41
44
46
47
48
49
51
54
58
61
63
63
61
59
57
54
47
41
35
31
27
24
20
16
13
11
10
11
12
12
11
12
12
12
12
12
13
14
15
15
16
17
18
18
19
20
22
26
32
37
33
31
40
60
90
133
190
267
348
409
457
480
474
392
245
108
10
-26
-26
-18
-11
-7
-6
-6
-6
-7
-8
-9
-10
-10
-10
-11
-11
-11
-11
-11
-10
-9
-8
-8
-8
-9
-8
-7
-7
-7
-6
-5
-5
-4
-4
-3
-3
-3
-3
-4
-4
-4
-5
-6
-6
-7
-10
-10
-11
-11
-12
-14
-15
-16
-18
-21
-22
-23
-25
-26
-28
-28
-30
-30
-30
-30
-30
-31
-30
-30
-29
-28
-26
-25
-23
-21
-19
-16
-14
-11
-8
-5
-2
0
3
4
6
8
10
11
12
12
13
13
12
12
12
11
9
9
9
8
7
6
5
4
3
2
1
1
0
0
2
4
4
5
6
7
9
11
18
21
17
9
9
11
12
12
13
14
14
13
13
13
13
14
13
13
13
13
13
12
13
13
13
12
12
12
12
11
10
9
9
8
8
8
8
8
8
8
8
7
6
5
4
3
3
3
4
3
3
3
4
3
2
2
3
3
2
2
2
3
1
0
0
0
0
-1
-1
-1
0
0
0
0
0
0
-1
-2
-2
-2
-2
-2
-2
-2
-3
-5
-5
-5
-6
-7
-6
-6
-6
-7
-7
-7
-7
-8
-8
-8
-8
-8
-9
-9
-10
-10
-10
-10
-10
-9
-8
-7
-6
-4
0
3
7
10
12
12
13
14
15
16
18
22
25
27
26
25
24
22
18
14
9
4
0
-3
-2
0
-5
-15
-22
-22
-21
-21
-19
-19
-19
-19
-17
-16
-15
-15
-14
-13
-12
-12
-11
-10
-9
-8
-7
-7
-6
-5
-3
4
17
36
62
102
157
223
290
340
378
402
393
317
189
65
-28
-66
-67
-58
-51
-48
-47
-44
-43
-41
-40
-38
-37
-36
-35
-34
-33
-32
-32
-31
-30
-29
-29
-29
-29
-28
-27
-25
-24
-23
-23
-24
-23
-22
-21
-21
-21
-20
-19
-19
-19
-19
-20
-21
-23
-24
-25
-26
-27
-28
-27
-29
-29
-30
-30
-31
-33
-35
-36
-36
-36
-36
-36
-36
-36
-38
-39
-39
-39
-39
-38
-37
-36
-35
-35
-33
-31
-28
-24
-20
-16
-13
-11
-9
-6
-3
-2
0
2
3
3
3
3
4
5
9
11
6
0
-1
-1
0
1
1
0
0
-1
-2
-3
-4
-5
-5
-6
-5
-4
-3
-2
-1
0
0
0
0
0
1
2
3
3
3
4
4
4
5
5
5
4
4
5
4
3
4
5
5
4
4
5
4
4
4
4
5
4
4
4
4
4
4
4
4
5
4
4
4
4
4
3
4
5
4
3
3
4
4
4
4
5
6
5
6
5
6
7
6
5
5
6
5
5
5
6
5
4
5
6
7
7
6
6
6
5
5
5
5
4
4
5
5
5
4
4
5
4
4
4
4
4
4
3
3
4
4
3
3
2
2
1
1
1
2
2
2
1
1
1
1
2
7
13
9
0
-3
-2
-1
0
1
4
8
10
11
12
14
15
16
19
21
24
27
31
34
36
34
31
28
24
19
12
7
3
1
-1
-4
-7
-10
-12
-13
-13
-12
-12
-11
-10
-9
-9
-8
-8
-8
-7
-7
-8
-9
-9
-10
-11
-13
-14
-14
-14
-14
-12
-6
4
23
49
89
145
210
286
343
391
417
408
334
198
67
-24
-63
-63
-54
-48
-44
-42
-40
-38
-37
-35
-33
-33
-32
-32
-30
-31
-31
-30
-30
-29
-30
-29
-29
-27
-27
-27
-26
-25
-24
-24
-24
-24
-22
-22
-22
-21
-20
-20
-20
-20
-21
-22
-22
-23
-23
-25
-26
-28
-30
-31
-33
-35
-37
-38
-39
-41
-42
-43
-44
-46
-46
-46
-42
-38
-41
-49
-53
-52
-52
-51
-51
-49
-49
-48
-47
-46
-44
-42
-41
-39
-35
-33
-32
-29
-27
-24
-23
-21
-19
-17
-17
-16
-15
-15
-15
-15
-15
-16
-16
-17
-18
-19
-20
-21
-23
-23
-23
-22
-23
-22
-21
-21
-20
-20
-18
-17
-16
-16
-15
-13
-13
-13
-13
-12
-11
-12
-12
-11
-10
-9
-10
-10
-8
-8
-8
-7
-7
-6
-6
-7
-8
-9
-9
-10
-10
-10
-10
-10
-11
-11
-11
-11
-11
-12
-12
-12
-12
-13
-13
-12
-12
-12
-12
-12
-12
-12
-11
-11
-11
-12
-13
-12
-13
-13
-14
-14
-14
-15
-15
-15
-14
-14
-14
-14
-13
-12
-13
-14
-15
-14
-14
-14
-15
-15
-14
-14
-14
-15
-16
-15
-15
-16
-16
-15
-14
-12
-6
-5
-11
-18
-19
-17
-16
-16
-16
-17
-16
-17
-17
-16
-16
-16
-17
-17
-17
-17
-18
-18
-18
-18
-18
-18
-19
-18
-18
-18
-19
-17
-15
-13
-11
-8
-5
-3
-3
-2
0
2
4
5
7
11
15
17
19
20
19
17
12
8
4
-1
-6
-10
-12
-13
-16
-19
-22
-22
-22
-22
-21
-21
-20
-20
-20
-19
-18
-18
-17
-16
-14
-15
-15
-14
-14
-14
-15
-15
-14
-13
-10
-3
10
31
57
98
153
218
287
335
379
404
413
363
245
117
7
-50
-60
-53
-41
-35
-32
-29
-26
-23
-23
-22
-21
-20
-20
-20
-19
-19
-19
-19
-18
-17
-17
-17
-16
-14
-13
-13
-12
-10
-9
-9
-8
-7
-6
-6
-5
0
5
4
-3
-7
-5
-5
-6
-6
-7
-7
-8
-9
-10
-10
-11
-13
-14
-15
-15
-17
-18
-19
-20
-20
-21
-22
-22
-22
-22
-22
-21
-21
-21
-22
-20
-20
-20
-18
-17
-13
-10
-8
-6
-3
0
3
6
10
12
15
16
19
20
21
21
21
22
22
21
20
19
19
19
19
19
18
18
18
19
20
21
21
21
22
22
22
22
22
23
23
22
23
24
25
25
25
26
26
28
28
28
29
29
30
29
29
29
29
29
29
30
29
28
27
27
25
25
24
25
26
25
25
25
25
23
23
24
24
24
23
23
23
24
23
23
24
24
23
23
22
22
22
21
22
22
22
21
22
24
29
34
32
25
21
22
22
22
22
22
21
21
21
21
21
21
20
20
20
20
20
21
21
20
20
20
19
19
19
20
19
19
18
19
19
19
20
20
21
19
19
19
19
19
19
20
21
21
20
20
20
21
21
20
21
22
23
25
28
32
34
35
36
38
40
42
42
44
46
49
52
55
58
58
55
51
46
40
33
26
22
19
16
12
8
5
4
5
7
8
8
7
7
7
7
7
8
9
9
9
9
10
10
11
12
12
13
14
15
15
19
27
40
60
88
131
187
261
325
383
420
446
432
346
212
77
-10
-42
-42
-31
-24
-19
-15
-13
-11
-10
-9
-8
-5
0
-1
-8
-13
-12
-12
-11
-11
-11
-10
-9
-9
-10
-9
-8
-8
-9
-9
-8
-8
-7
-8
-8
-7
-7
-7
-7
-7
-7
-8
-9
-10
-11
-11
-12
-14
-14
-15
-17
-19
-19
-20
-21
-22
-23
-23
-25
-26
-28
-29
-30
-31
-31
-31
-31
-32
-31
-29
-29
-28
-27
-24
-22
-20
-19
-15
-12
-10
-7
-4
-1
0
3
5
7
9
11
11
12
12
12
11
10
10
10
9
8
7
8
9
8
9
9
9
9
9
10
10
10
11
11
11
12
13
14
15
15
16
17
17
18
18
20
20
20
21
21
22
22
22
22
23
24
23
23
23
24
23
23
22
22
22
21
21
21
22
22
22
27
33
29
20
16
17
17
16
16
16
16
15
15
15
15
15
15
15
15
15
16
16
16
16
15
15
16
16
15
16
15
15
14
15
16
16
16
15
16
16
14
14
14
15
15
14
13
13
13
12
11
11
12
12
11
11
11
12
11
11
11
12
11
10
10
9
9
9
8
8
9
9
9
9
10
10
10
10
11
12
13
17
21
25
27
29
31
32
34
35
37
39
41
45
48
51
52
50
47
43
39
34
29
24
19
16
13
11
8
4
2
1
2
4
4
4
5
6
7
7
7
7
8
7
7
8
9
9
10
11
13
13
14
15
20
29
44
67
101
152
220
285
341
380
412
423
385
284
144
30
-37
-57
-49
-39
-33
-28
-26
-24
-23
-21
-19
-19
-18
-18
-17
-17
-17
-17
-16
-16
-15
-15
-15
-14
-14
-13
-13
-12
-12
-12
-11
-10
-10
-10
-10
-10
-8
-8
-8
-8
-8
-8
-9
-10
-11
-12
-13
-15
-16
-16
-16
-18
-20
-21
-22
-23
-25
-25
-27
-28
-30
-30
-31
-32
-33
-33
-33
-33
-34
-34
-34
-33
-33
-32
-31
-28
-26
-24
-22
-20
-17
-16
-13
-11
-8
-5
-3
-1
0
1
2
4
5
5
4
5
5
4
3
2
1
0
0
-1
-1
-1
0
0
0
1
2
2
1
2
4
5
5
5
6
6
7
7
7
8
8
9
10
11
13
15
22
24
17
11
10
11
12
12
12
11
11
11
11
11
11
10
10
9
9
9
9
8
8
8
8
7
6
5
6
5
5
4
4
4
3
3
4
4
5
5
5
5
5
5
4
5
5
5
4
4
3
3
2
2
2
2
1
1
2
2
1
0
0
0
0
-1
-2
-1
0
0
-1
-1
-1
-1
-1
0
0
0
0
-1
0
0
-1
0
0
0
0
-1
-1
0
0
-1
-1
-1
-1
-1
-2
-3
-2
-2
-2
-2
-1
-1
-1
0
2
6
8
10
12
13
14
14
16
19
20
23
26
31
35
37
36
34
32
28
23
17
11
7
3
0
-1
-4
-7
-9
-8
-8
-8
-8
-5
0
3
-2
-9
-9
-7
-6
-6
-5
-4
-5
-5
-5
-4
-5
-5
-5
-4
-2
3
15
36
65
106
162
228
300
355
396
423
425
368
250
116
6
-52
-66
-59
-50
-43
-39
-36
-35
-32
-31
-30
-29
-28
-27
-27
-27
-27
-26
-26
-25
-25
-24
-24
-25
-25
-24
-23
-24
-23
-23
-22
-22
-23
-22
-21
-20
-21
-21
-21
-21
-22
-23
-23
-24
-25
-26
-27
-28
-29
-29
-31
-31
-33
-33
-35
-36
-37
-38
-39
-41
-42
-42
-43
-44
-45
-45
-46
-46
-47
-46
-46
-46
-45
-44
-42
-42
-40
-37
-35
-32
-29
-27
-23
-20
-17
-14
-11
-8
-7
-7
-5
-3
-1
-1
-1
-1
-1
-3
-4
-4
-4
-4
-5
-5
-4
0
6
9
3
-2
-1
0
1
2
3
4
5
6
7
7
8
9
11
11
11
13
14
14
14
14
15
16
17
17
18
18
17
17
17
17
16
16
16
16
17
17
16
16
17
16
15
14
14
14
14
12
12
12
11
11
10
12
13
12
11
11
12
11
11
11
11
11
10
9
9
9
8
8
9
9
8
8
8
8
8
8
7
8
8
6
7
7
7
6
6
7
8
7
7
7
7
6
5
6
6
7
6
5
5
6
6
5
4
5
5
4
4
3
3
2
2
2
2
3
3
2
2
2
3
3
2
2
3
3
4
7
12
16
19
22
24
25
27
29
32
35
43
50
52
46
43
42
42
39
33
28
23
17
12
9
8
5
2
-1
-3
-2
-1
-1
-1
-2
-2
-3
-3
-3
-2
-1
-1
-2
-2
-1
-1
-1
0
0
0
0
0
1
3
7
16
34
62
103
161
230
302
352
389
403
365
255
121
8
-49
-61
-52
-42
-35
-33
-31
-28
-26
-24
-23
-22
-22
-21
-21
-21
-21
-20
-19
-19
-18
-18
-17
-17
-17
-17
-17
-16
-17
-17
-17
-16
-16
-16
-16
-16
-17
-16
-15
-15
-15
-16
-17
-17
-18
-18
-19
-19
-20
-21
-22
-23
-24
-26
-27
-28
-29
-31
-33
-34
-34
-35
-36
-37
-37
-38
-38
-40
-41
-41
-41
-41
-41
-40
-39
-38
-38
-36
-35
-33
-31
-29
-24
-14
-7
-10
-14
-14
-10
-8
-6
-5
-4
-4
-5
-6
-6
-7
-8
-10
-10
-10
-10
-10
-10
-9
-8
-9
-8
-6
-6
-6
-5
-4
-4
-3
-2
-1
0
0
0
1
2
3
3
4
5
5
5
5
6
7
7
7
7
8
8
8
7
8
8
8
7
7
8
7
6
5
4
4
3
3
2
2
2
1
1
2
2
2
3
4
5
4
3
4
3
3
3
4
4
3
3
3
3
3
2
3
3
3
2
3
3
2
2
2
2
3
3
1
1
0
0
0
0
1
0
0
0
0
1
1
0
0
1
1
1
0
1
2
2
2
2
3
2
2
1
3
3
2
3
5
9
15
14
6
2
2
3
3
4
4
4
6
8
10
13
16
18
20
22
22
24
26
29
31
34
38
41
42
42
42
40
37
32
27
21
15
11
8
6
4
0
-3
-4
-4
-3
-4
-3
-3
-2
-2
-2
-1
0
0
0
0
1
2
2
4
5
6
6
7
8
10
15
28
46
69
105
153
221
288
348
387
419
436
396
295
155
38
-29
-51
-45
-34
-26
-22
-19
-16
-14
-12
-12
-10
-9
-9
-8
-9
-8
-8
-7
-7
-6
-4
-3
-3
-3
-2
-2
-2
-2
-1
0
0
0
0
0
1
1
1
2
2
0
0
0
0
-1
-2
-2
-4
-6
-7
-8
-8
-10
-12
-13
-14
-15
-15
-11
-7
-13
-22
-24
-23
-23
-24
-25
-25
-24
-24
-25
-25
-24
-23
-22
-20
-19
-16
-15
-12
-8
-5
-1
0
4
8
12
14
16
19
20
19
20
20
20
18
17
18
17
18
18
19
19
19
19
20
20
20
20
19
20
20
21
21
22
24
25
25
26
26
27
28
29
30
31
31
32
32
33
34
33
34
33
34
33
33
33
33
33
31
32
31
31
30
30
29
28
27
27
28
27
26
26
25
25
24
24
24
24
23
22
21
21
21
20
19
19
20
18
18
18
18
18
17
17
18
19
19
18
18
18
18
18
17
18
18
17
17
18
19
18
18
19
19
18
19
24
28
24
16
14
14
14
14
15
15
15
14
14
14
14
14
13
13
12
12
12
12
12
11
11
11
11
11
10
9
9
10
10
10
10
12
15
19
22
25
26
25
25
27
30
31
34
35
39
42
44
46
44
41
36
30
25
18
12
8
6
4
0
-2
-3
-4
-3
-3
-3
-3
-4
-4
-4
-3
-3
-4
-3
-3
-2
-2
-2
-1
0
0
0
0
2
3
5
9
19
33
55
83
131
187
256
310
354
386
393
355
239
111
5
-52
-62
-52
-42
-36
-34
-31
-30
-28
-27
-26
-25
-25
-26
-27
-26
-26
-26
-26
-24
-23
-23
-22
-22
-21
-21
-20
-20
-19
-18
-18
-17
-15
-12
-7
-3
-7
-14
-16
-16
-16
-15
-15
-16
-17
-17
-18
-19
-21
-22
-23
-25
-26
-27
-27
-29
-31
-32
-33
-34
-35
-36
-37
-38
-39
-39
-40
-39
-40
-40
-39
-38
-36
-36
-34
-32
-30
-28
-26
-23
-20
-17
-15
-12
-9
-7
-5
-4
-1
0
0
0
0
0
0
-1
-2
-2
-3
-4
-5
-3
-2
-2
-2
-1
-1
0
0
0
0
1
1
1
2
3
3
4
5
6
6
6
7
9
10
10
10
12
12
12
12
12
13
13
12
13
13
13
12
11
11
11
10
9
8
7
8
7
7
8
9
8
7
7
7
7
6
5
5
5
5
5
4
4
4
3
3
3
3
3
2
3
3
4
8
13
11
3
0
0
1
1
1
2
2
2
1
1
2
5
6
5
4
3
4
3
2
3
3
3
3
4
5
5
4
3
3
3
3
3
4
4
5
4
4
5
5
5
5
6
6
6
5
6
6
6
6
7
7
7
7
6
8
10
13
16
20
22
23
24
25
27
28
30
32
35
39
43
46
47
47
44
40
36
32
25
18
12
9
9
7
4
0
-2
-2
-1
0
0
0
0
0
0
0
0
-1
0
0
1
1
0
1
2
3
2
3
5
6
7
13
24
41
66
101
153
214
278
333
371
406
408
364
246
114
7
-52
-65
-55
-46
-39
-36
-33
-30
-28
-25
-22
-17
-10
-9
-16
-21
-21
-19
-18
-18
-17
-16
-16
-16
-15
-15
-15
-14
-14
-13
-12
-12
-11
-11
-11
-12
-12
-11
-11
-11
-11
-11
-11
-12
-14
-15
-16
-15
-17
-18
-19
-20
-20
-22
-23
-24
-24
-27
-30
-31
-32
-32
-34
-35
-36
-37
-38
-40
-40
-41
-41
-42
-42
-42
-42
-41
-41
-40
-40
-38
-37
-35
-32
-29
-27
-25
-22
-20
-17
-14
-11
-7
-5
-4
-3
-1
-1
-1
-1
0
-1
-2
-2
-2
-2
-2
-2
-2
-2
-2
-2
-1
0
1
1
2
3
5
5
6
6
7
8
7
8
8
10
11
11
11
11
12
11
10
10
11
10
9
8
9
9
8
8
8
9
9
8
8
8
7
7
7
8
11
16
16
8
2
2
2
2
2
1
1
1
0
0
0
0
0
1
0
0
-1
-1
-2
-3
-3
-3
-3
-3
-3
-3
-4
-5
-6
-6
-5
-5
-5
-6
-6
-6
-6
-7
-7
-7
-7
-8
-9
-9
-10
-10
-10
-9
-9
-9
-9
-9
-9
-9
-10
-11
-10
-11
-12
-12
-12
-12
-12
-13
-13
-13
-14
-14
-14
-13
-13
-14
-15
-14
-14
-15
-15
-15
-14
-13
-13
-10
-6
-3
-1
0
1
3
4
5
7
9
12
15
18
22
23
23
20
17
13
8
1
-5
-9
-12
-13
-17
-20
-22
-23
-23
-22
-22
-22
-21
-20
-19
-19
-19
-19
-18
-16
-17
-16
-15
-16
-15
-16
-16
-16
-15
-15
-14
-10
-2
12
37
75
119
167
224
289
341
381
406
393
313
185
58
-26
-61
-61
-51
-43
-40
-37
-36
-35
-35
-35
-34
-35
-34
-33
-32
-33
-33
-32
-32
-32
-33
-32
-32
-31
-31
-30
-28
-29
-28
-28
-27
-28
-28
-27
-27
-26
-27
-26
-27
-27
-28
-29
-29
-30
-30
-31
-32
-33
-34
-35
-36
-37
-38
-39
-41
-42
-44
-46
-48
-50
-51
-53
-55
-57
-57
-58
-58
-58
-59
-58
-58
-57
-57
-56
-55
-53
-51
-48
-45
-43
-39
-35
-31
-29
-28
-25
-22
-20
-18
-16
-14
-13
-12
-12
-11
-11
-10
-11
-10
-10
-10
-10
-11
-11
-10
-9
-9
-9
-8
-8
-7
-7
-5
-3
-2
-2
-1
0
0
1
2
4
5
5
7
11
17
15
7
5
5
6
6
5
5
4
4
4
4
5
5
6
6
5
4
4
5
4
3
3
3
4
3
3
3
4
4
3
2
2
2
3
3
2
2
2
1
0
0
0
0
0
0
0
0
0
-1
0
0
0
0
0
0
-1
-2
-2
-2
-2
-3
-2
-2
-2
-2
-2
-2
-3
-3
-3
-3
-4
-4
-4
-4
-5
-5
-5
-4
-4
-4
-5
-4
-4
-5
-5
-5
-5
-6
-7
-6
-6
-6
-5
-6
-5
-5
-5
-6
-6
-5
-3
-1
2
8
11
13
14
15
17
19
22
24
27
30
34
36
37
35
33
30
24
19
12
7
4
1
0
-4
-7
-8
-9
-9
-8
-5
0
3
0
-7
-9
-9
-8
-7
-7
-7
-7
-6
-5
-5
-5
-4
-3
-2
0
2
7
17
33
57
93
144
208
273
328
367
394
378
292
162
42
-35
-56
-49
-38
-33
-30
-28
-27
-27
-25
-24
-24
-24
-24
-22
-21
-21
-21
-21
-20
-20
-20
-20
-19
-20
-20
-20
-19
-17
-17
-17
-16
-15
-15
-14
-14
-14
-14
-13
-12
-13
-14
-15
-17
-17
-18
-19
-20
-22
-22
-23
-24
-25
-25
-26
-28
-30
-31
-33
-35
-35
-35
-36
-38
-40
-40
-41
-42
-43
-43
-42
-42
-43
-42
-40
-39
-37
-36
-33
-31
-28
-25
-20
-17
-15
-13
-11
-8
-6
-5
-4
-2
-2
-1
-2
-1
0
0
0
0
0
0
0
4
10
8
1
-1
0
1
2
3
3
5
5
5
6
8
9
9
10
11
12
12
12
13
13
12
12
12
12
12
12
12
12
12
12
12
14
14
14
12
12
12
12
11
10
11
11
10
9
9
9
9
9
9
9
9
8
8
7
7
7
7
7
8
7
6
5
5
5
4
4
5
5
5
4
5
5
4
4
5
5
5
5
4
4
4
5
5
5
5
5
5
5
6
5
4
4
4
5
4
3
4
4
3
3
4
5
6
6
6
6
6
6
6
7
7
8
7
8
8
8
8
9
11
11
12
12
13
15
17
20
24
27
29
31
33
35
36
39
44
54
61
57
54
54
55
53
50
47
42
36
28
23
18
16
13
9
6
3
1
0
1
1
2
2
2
2
3
3
3
4
4
5
5
7
9
10
10
11
12
14
15
19
26
40
58
88
129
188
256
318
372
407
438
428
358
230
98
3
-42
-49
-38
-30
-24
-21
-17
-15
-12
-11
-8
-6
-6
-5
-5
-4
-4
-4
-4
-4
-3
-3
-3
-3
-2
-2
-3
-2
-1
-1
-1
-1
0
0
2
3
4
6
6
5
5
6
5
4
4
4
2
0
-1
-2
-2
-4
-6
-7
-7
-9
-11
-12
-13
-14
-15
-16
-17
-17
-18
-19
-20
-21
-22
-24
-24
-25
-24
-25
-24
-24
-22
-20
-19
-17
-14
-9
-4
3
7
4
1
4
8
12
15
17
19
19
20
20
20
21
22
22
21
22
22
23
22
22
22
22
21
21
23
23
23
23
24
25
26
25
25
27
28
28
28
28
29
29
30
30
30
31
32
33
34
36
36
37
36
37
37
37
36
35
37
36
35
34
34
33
33
33
33
33
31
31
30
30
30
28
29
29
28
27
27
26
25
24
24
24
24
23
22
22
23
23
23
22
23
23
22
21
20
20
20
20
20
21
22
22
21
20
20
20
20
21
22
22
22
21
21
22
21
21
22
23
22
22
22
21
21
20
21
21
21
20
20
21
21
21
20
21
21
21
22
29
33
25
18
16
18
19
19
19
18
18
19
21
24
28
31
32
33
34
35
38
40
42
45
47
50
53
55
55
52
50
45
40
33
27
21
18
16
13
10
7
6
5
6
7
7
7
7
7
7
7
7
8
9
9
9
8
9
9
9
10
9
9
9
9
9
13
21
33
52
79
123
177
249
311
366
404
429
417
330
200
73
-9
-36
-34
-23
-17
-15
-14
-13
-12
-12
-11
-10
-10
-11
-10
-10
-10
-10
-10
-10
-9
-10
-10
-10
-10
-10
-10
-9
-7
-6
-5
-5
-3
-2
-2
-3
-3
-1
-1
-1
-1
-1
-1
-2
-3
-4
-5
-6
-8
-9
-10
-11
-14
-15
-17
-19
-20
-22
-21
-18
-14
-21
-30
-32
-32
-32
-33
-32
-33
-33
-34
-34
-34
-34
-34
-33
-31
-31
-30
-27
-24
-21
-19
-15
-12
-10
-8
-6
-3
-1
1
2
3
5
7
7
7
8
9
9
7
7
7
7
6
6
7
7
7
7
8
9
10
10
10
10
11
11
11
13
13
13
14
15
16
15
16
17
19
18
18
18
19
18
18
19
19
19
18
18
18
18
18
17
17
17
17
15
15
15
16
15
14
14
13
13
12
12
11
11
10
9
9
9
9
9
9
9
9
8
7
8
8
7
7
6
7
7
6
6
6
6
5
5
5
5
4
4
4
5
5
4
4
4
5
4
4
4
7
12
17
13
5
2
2
3
4
4
3
3
4
4
4
3
3
4
4
4
4
4
5
5
7
10
15
19
22
26
28
28
28
30
33
35
38
41
45
45
44
43
41
39
34
28
22
17
13
10
7
4
0
-4
-5
-3
-2
-3
-3
-2
-1
0
0
0
0
0
1
2
2
3
3
4
5
7
7
8
10
13
16
21
31
49
76
113
170
240
320
374
417
443
433
358
212
80
-11
-48
-47
-37
-30
-26
-25
-24
-23
-21
-20
-20
-19
-18
-18
-19
-19
-19
-19
-19
-18
-17
-16
-17
-17
-16
-15
-14
-13
-12
-11
-10
-10
-10
-9
-8
-8
-8
-8
-8
-9
-10
-12
-14
-15
-16
-13
-8
-10
-19
-23
-23
-23
-25
-27
-26
-28
-29
-31
-32
-33
-35
-37
-39
-39
-41
-41
-42
-42
-43
-43
-43
-43
-41
-41
-40
-39
-37
-34
-32
-29
-27
-23
-21
-18
-15
-12
-9
-6
-4
-2
-1
0
0
0
1
2
2
2
2
2
1
1
3
4
4
3
4
4
4
5
6
6
6
6
7
8
9
10
11
13
13
14
15
16
17
17
17
16
17
17
16
15
16
16
14
13
13
13
13
12
11
11
12
11
10
10
9
7
5
4
4
4
4
3
3
3
1
1
2
1
1
1
1
2
1
0
0
0
-1
-1
-1
-2
-2
-3
-2
-2
-2
-3
-4
-3
-4
-4
-4
-2
2
9
5
-3
-6
-5
-4
-5
-5
-5
-6
-7
-8
-7
-7
-8
-9
-8
-8
-8
-9
-9
-8
-9
-9
-10
-10
-10
-11
-12
-13
-13
-13
-14
-14
-14
-14
-15
-15
-14
-14
-15
-15
-14
-14
-14
-13
-11
-8
-5
-1
2
4
5
4
5
6
8
9
12
16
18
18
17
16
15
12
7
3
0
-5
-9
-11
-12
-15
-19
-22
-23
-23
-22
-21
-20
-19
-19
-20
-19
-18
-18
-17
-17
-16
-16
-15
-15
-13
-12
-13
-12
-11
-9
-7
0
14
33
60
100
157
224
285
333
367
392
381
302
180
54
-31
-68
-69
-57
-47
-44
-42
-40
-38
-37
-36
-36
-35
-35
-36
-36
-36
-35
-34
-33
-33
-31
-28
-23
-21
-27
-31
-30
-29
-27
-27
-27
-27
-27
-27
-27
-27
-26
-25
-26
-25
-26
-26
-28
-29
-29
-30
-31
-34
-35
-36
-37
-39
-40
-39
-39
-40
-41
-42
-43
-43
-44
-46
-46
-47
-47
-49
-48
-49
-50
-49
-49
-47
-47
-46
-45
-42
-40
-38
-36
-32
-28
-26
-23
-20
-17
-15
-13
-12
-9
-8
-7
-7
-6
-5
-7
-7
-6
-7
-8
-9
-9
-9
-9
-11
-11
-9
-8
-8
-7
-5
-4
-3
-3
-2
-1
-1
0
0
1
1
1
2
3
4
5
5
6
7
7
8
8
8
9
9
9
9
10
10
10
10
9
8
7
8
8
9
8
9
9
8
8
8
9
8
7
7
8
8
9
11
17
21
13
5
4
6
7
6
7
7
8
7
8
8
9
10
8
8
8
9
9
9
9
10
10
9
9
9
9
9
9
10
10
9
9
9
9
10
10
11
10
10
9
9
9
9
9
10
10
9
9
9
10
9
9
9
10
10
9
9
9
9
9
9
9
10
9
9
8
8
9
10
13
18
22
24
26
27
28
30
31
33
36
40
42
47
50
53
51
48
46
41
36
29
23
19
15
14
11
8
5
4
5
6
7
8
9
9
10
10
10
11
12
12
13
13
14
14
15
16
16
17
17
18
20
23
31
44
64
91
133
189
258
326
378
417
440
420
328
191
66
-15
-43
-38
-27
-19
-14
-11
-8
-6
-4
-3
-2
-2
-2
-1
-1
-1
0
0
0
0
1
1
2
3
2
3
4
5
5
5
7
7
7
7
8
8
9
8
7
7
6
5
4
3
2
0
-2
-5
-7
-9
-12
-15
-18
-19
-20
-21
-21
-22
-23
-23
-23
-24
-24
-26
-27
-27
-28
-29
-29
-30
-29
-29
-29
-28
-26
-24
-23
-21
-17
-14
-12
-9
-5
-2
0
3
6
8
9
10
10
11
11
12
11
12
12
12
11
9
9
9
9
9
9
11
12
12
13
14
14
14
14
15
15
15
15
16
16
17
18
19
20
20
20
21
22
22
22
22
23
23
22
20
20
21
24
30
27
19
15
16
17
17
17
17
16
16
17
17
16
15
16
15
15
15
15
16
15
14
14
14
14
13
14
14
15
14
14
13
13
12
12
13
13
12
12
12
12
12
11
11
11
11
10
9
9
9
8
8
9
9
8
7
6
6
6
5
4
4
5
4
4
4
4
3
2
2
3
3
2
1
0
0
0
-1
-1
0
0
0
-1
0
0
0
0
0
0
0
-1
-1
0
1
4
7
11
14
16
17
19
20
21
23
25
28
31
35
38
40
40
38
34
30
26
20
14
8
5
2
0
-2
-5
-8
-10
-12
-12
-11
-11
-11
-11
-10
-9
-8
-8
-8
-8
-7
-6
-5
0
6
1
-7
-8
-7
-6
-5
-3
1
10
26
50
91
145
214
280
336
376
402
398
327
200
72
-22
-60
-60
-48
-40
-38
-37
-37
-36
-35
-33
-31
-29
-29
-29
-29
-29
-28
-29
-29
-29
-28
-29
-29
-28
-27
-26
-26
-26
-26
-25
-24
-24
-23
-23
-23
-23
-21
-20
-20
-20
-20
-21
-21
-22
-23
-23
-24
-25
-26
-27
-29
-31
-33
-34
-35
-35
-37
-37
-38
-38
-39
-40
-39
-38
-38
-40
-40
-40
-40
-41
-41
-40
-39
-39
-39
-38
-36
-33
-32
-31
-29
-26
-22
-20
-17
-13
-9
-8
-6
-3
-1
0
0
1
1
2
1
1
1
0
0
-1
-1
-1
0
0
1
2
1
1
2
3
3
3
5
9
16
18
9
3
4
6
6
7
8
8
8
8
9
10
11
11
11
12
12
11
11
11
12
11
10
10
10
10
9
9
8
8
7
7
9
9
9
8
8
8
7
5
5
6
7
6
6
6
6
5
5
6
6
6
5
6
7
6
5
6
7
7
6
6
6
7
7
6
6
7
7
7
6
6
5
5
4
4
4
3
4
4
5
6
5
4
4
4
4
4
4
4
4
3
3
4
4
4
4
4
4
4
4
5
7
6
5
5
5
5
4
5
6
7
7
8
9
12
14
17
21
24
27
27
28
29
32
34
36
38
41
45
48
51
52
51
47
42
36
30
29
29
26
14
8
5
3
3
4
5
5
6
6
6
6
7
7
7
7
7
7
7
7
8
10
11
11
11
11
11
12
15
23
35
54
79
120
176
244
311
357
399
422
420
347
212
84
-7
-44
-42
-31
-22
-20
-19
-18
-17
-16
-16
-15
-14
-13
-13
-13
-12
-12
-12
-13
-12
-12
-12
-12
-11
-10
-10
-10
-10
-9
-8
-9
-10
-9
-8
-9
-9
-8
-7
-7
-8
-8
-8
-8
-9
-10
-10
-11
-13
-15
-17
-18
-19
-21
-23
-24
-25
-26
-27
-27
-28
-28
-29
-28
-28
-29
-30
-31
-31
-32
-31
-31
-29
-28
-27
-26
-24
-22
-20
-18
-15
-12
-10
-8
-5
-1
1
3
7
9
11
12
16
24
23
13
9
10
10
9
9
10
10
10
11
13
13
13
13
14
14
15
15
15
16
17
18
18
18
19
19
19
20
21
22
22
23
22
23
23
23
23
23
22
22
22
21
20
19
19
19
18
18
17
17
15
14
13
13
14
12
11
11
11
11
10
10
10
10
8
8
8
8
6
6
6
6
6
5
5
6
7
7
6
6
7
6
5
6
6
5
5
5
6
6
5
4
5
5
4
4
5
4
3
2
3
2
1
1
2
1
1
0
0
2
2
1
0
0
0
-1
-2
-2
-2
-2
-3
-2
-1
-1
-1
-2
-2
-1
-1
-1
-1
-1
-1
-1
0
5
14
17
12
11
15
16
18
20
23
25
27
30
34
36
37
37
35
31
26
22
16
9
3
-1
-2
-5
-8
-12
-13
-13
-13
-13
-12
-12
-11
-11
-11
-10
-10
-9
-9
-8
-8
-8
-8
-6
-5
-4
-4
-3
-2
-2
0
4
15
31
56
90
146
210
279
334
369
395
363
264
129
9
-51
-61
-50
-38
-34
-32
-32
-30
-30
-29
-29
-28
-28
-29
-28
-27
-26
-27
-26
-25
-24
-23
-23
-23
-22
-22
-22
-22
-20
-20
-19
-20
-20
-19
-18
-18
-19
-18
-18
-19
-19
-20
-20
-21
-22
-24
-24
-25
-26
-27
-28
-29
-31
-32
-35
-36
-38
-39
-40
-40
-40
-41
-39
-40
-39
-40
-39
-39
-39
-33
-27
-31
-39
-39
-38
-36
-34
-32
-29
-27
-24
-21
-19
-18
-15
-12
-10
-9
-7
-5
-4
-4
-4
-4
-4
-4
-5
-5
-5
-5
-5
-4
-3
-3
-4
-3
-3
-3
-3
-3
-2
-2
-1
0
1
2
1
2
2
3
2
3
4
5
6
5
5
6
6
6
5
6
7
7
8
7
7
7
7
6
7
9
8
7
5
4
4
4
4
4
4
4
3
3
2
2
1
0
-1
-1
0
0
0
1
1
0
0
1
1
2
2
1
0
0
0
1
1
0
1
1
1
0
0
0
0
0
0
0
0
0
0
0
0
1
1
0
0
0
1
0
0
1
2
2
2
1
0
0
1
4
11
13
5
0
0
0
0
-1
0
0
0
0
0
1
0
0
0
1
2
2
3
5
9
12
15
17
19
20
20
22
25
27
28
30
34
39
41
42
42
41
39
34
29
23
18
11
6
4
2
0
-4
-8
-8
-6
-5
-5
-4
-4
-3
-3
-2
0
1
1
2
4
3
3
4
5
6
7
8
10
12
16
26
42
66
95
141
199
268
329
368
403
416
400
309
176
55
-27
-57
-54
-45
-36
-32
-29
-27
-24
-20
-17
-15
-14
-12
-12
-12
-12
-12
-10
-10
-9
-8
-7
-7
-7
-6
-4
-3
-3
-2
-1
0
0
0
1
2
2
2
1
1
1
0
0
0
-2
-3
-4
-4
0
5
0
-12
-15
-15
-15
-16
-17
-18
-20
-22
-23
-23
-25
-26
-27
-27
-28
-29
-29
-29
-28
-29
-29
-29
-28
-26
-25
-23
-22
-19
-17
-15
-12
-8
-5
-3
0
3
6
7
9
11
12
12
12
13
14
14
14
15
16
16
15
14
14
14
14
14
14
15
17
15
15
16
16
16
17
19
20
21
20
21
23
24
25
24
25
26
27
26
27
28
29
29
28
29
29
30
29
30
29
29
28
27
27
27
27
27
27
26
25
24
23
24
22
22
21
22
21
21
21
22
22
20
20
21
20
20
19
19
20
19
18
18
18
18
17
16
17
18
17
16
15
16
15
15
14
14
15
17
20
26
24
15
11
12
13
13
13
13
11
12
11
10
10
10
10
9
9
8
8
7
7
8
9
9
8
9
9
9
8
8
9
9
9
9
9
9
9
8
9
9
9
8
10
13
16
19
21
23
25
25
25
25
27
29
30
31
34
38
41
43
41
39
36
32
26
20
15
9
3
0
-1
-4
-8
-10
-10
-9
-8
-9
-8
-7
-8
-8
-7
-6
-6
-6
-6
-5
-5
-4
-3
-3
-2
-3
-4
-4
-3
0
8
23
45
75
119
174
239
296
343
374
399
400
339
225
91
-8
-57
-65
-56
-46
-40
-38
-37
-35
-33
-32
-30
-30
-30
-30
-29
-30
-30
-30
-29
-29
-29
-29
-28
-27
-24
-17
-15
-22
-27
-26
-24
-24
-22
-21
-20
-20
-20
-19
-19
-18
-19
-20
-20
-20
-21
-22
-23
-24
-24
-25
-27
-28
-29
-30
-32
-32
-34
-34
-36
-37
-39
-39
-39
-40
-39
-39
-38
-39
-39
-39
-38
-38
-38
-37
-36
-34
-33
-31
-28
-27
-25
-22
-19
-17
-16
-14
-11
-10
-9
-8
-7
-6
-6
-6
-5
-5
-5
-6
-6
-6
-7
-8
-9
-10
-10
-10
-11
-11
-9
-8
-9
-9
-8
-7
-7
-7
-6
-6
-5
-6
-5
-4
-3
-3
-2
-2
-1
-2
-3
-3
-2
-2
-3
-2
-1
-2
-2
-2
-2
-3
-4
-4
-3
-4
-5
-6
-6
-6
-7
-8
-8
-7
-8
-8
-8
-8
-8
-9
-9
-8
-7
-7
-8
-8
-6
0
2
-4
-11
-11
-11
-12
-12
-12
-12
-13
-12
-11
-11
-12
-11
-10
-10
-10
-10
-11
-10
-11
-12
-11
-11
-10
-11
-11
-10
-11
-12
-12
-11
-11
-12
-12
-11
-10
-11
-12
-12
-11
-11
-11
-11
-10
-10
-10
-10
-10
-10
-11
-11
-11
-10
-9
-10
-10
-10
-9
-9
-9
-8
-6
-5
-3
0
4
7
9
10
11
12
14
16
19
21
25
27
30
31
31
28
24
20
15
10
5
1
-1
-3
-5
-8
-11
-13
-13
-12
-11
-11
-11
-11
-12
-11
-11
-11
-10
-9
-9
-10
-9
-7
-6
-5
-4
-3
-1
0
0
3
10
20
36
59
92
141
198
258
308
347
377
388
351
243
122
13
-43
-54
-45
-33
-22
-17
-20
-23
-20
-17
-17
-18
-18
-17
-16
-16
-16
-16
-15
-15
-14
-14
-13
-12
-11
-10
-10
-9
-8
-7
-7
-5
-5
-5
-5
-5
-4
-3
-4
-4
-3
-4
-5
-7
-7
-7
-8
-8
-9
-9
-10
-11
-12
-12
-13
-14
-15
-16
-18
-19
-21
-22
-22
-21
-22
-22
-21
-21
-20
-20
-18
-17
-16
-14
-12
-10
-8
-6
-4
-1
1
3
5
9
12
15
16
19
21
23
24
25
28
28
27
26
26
25
23
23
22
23
21
20
20
20
19
19
20
21
22
21
20
20
22
22
22
23
23
24
23
25
26
26
26
27
28
28
29
28
29
30
30
29
28
30
31
31
31
32
32
31
33
39
42
34
26
26
27
27
26
27
27
28
27
28
29
28
28
27
28
27
27
27
27
27
26
26
26
27
26
26
26
27
27
26
26
25
27
27
26
26
26
27
26
27
26
26
25
25
26
26
26
25
26
26
27
27
27
27
27
26
25
26
26
25
25
26
26
26
26
26
26
25
24
24
24
24
24
24
25
25
25
24
24
24
25
24
24
25
26
28
31
35
36
38
39
41
42
44
46
48
52
53
57
59
61
60
56
53
48
43
36
30
26
23
21
18
14
10
8
8
10
10
10
9
8
9
9
10
10
11
11
11
11
11
12
13
14
16
18
25
31
26
23
31
48
71
105
155
217
284
342
383
415
428
392
285
149
33
-28
-41
-32
-23
-18
-15
-12
-11
-10
-9
-8
-7
-8
-8
-8
-8
-9
-10
-10
-10
-10
-11
-10
-10
-9
-9
-10
-10
-9
-9
-9
-8
-8
-8
-8
-8
-8
-8
-9
-10
-10
-9
-10
-11
-12
-13
-14
-15
-16
-16
-16
-18
-20
-21
-22
-24
-25
-26
-27
-29
-31
-32
-33
-34
-35
-34
-34
-34
-33
-33
-32
-31
-30
-29
-27
-25
-23
-21
-19
-16
-13
-11
-9
-6
-4
-2
0
1
3
4
5
6
6
5
5
5
5
4
2
2
3
3
1
1
1
1
1
0
0
1
1
0
0
1
1
1
0
1
2
4
9
14
9
2
0
2
4
5
5
5
5
6
6
5
6
7
6
5
5
5
5
4
4
4
4
3
3
3
2
1
0
1
1
1
0
0
0
0
0
-1
0
0
0
-1
0
0
0
-1
-1
-1
0
-1
-1
-1
-1
-1
-2
-2
-2
-1
-2
-3
-3
-3
-2
-2
-2
-2
-3
-4
-5
-5
-4
-3
-2
-1
-2
-2
-3
-3
-3
-3
-3
-3
-3
-4
-3
-3
-4
-4
-4
-4
-3
-2
-2
-3
-5
-5
-5
-5
-4
-3
-2
-3
-3
-4
-3
-4
-5
-5
-4
0
2
6
8
10
10
11
13
16
17
18
21
26
29
31
32
30
26
22
17
12
5
0
-1
-3
-5
-9
-7
-2
-4
-14
-17
-15
-14
-14
-14
-14
-13
-13
-13
-13
-11
-10
-10
-11
-11
-10
-9
-9
-8
-6
-4
-3
0
9
24
46
76
122
183
249
310
350
385
390
338
219
86
-17
-62
-65
-54
-45
-39
-36
-34
-32
-31
-30
-29
-29
-30
-30
-30
-29
-30
-30
-30
-30
-29
-29
-28
-27
-25
-25
-25
-25
-24
-24
-23
-23
-23
-22
-21
-22
-22
-21
-21
-22
-22
-22
-23
-23
-24
-25
-25
-26
-27
-29
-29
-30
-31
-32
-32
-34
-34
-35
-35
-36
-38
-39
-40
-40
-41
-42
-43
-42
-42
-43
-42
-41
-38
-35
-34
-32
-31
-28
-26
-23
-20
-17
-15
-11
-8
-4
-2
-2
-1
0
0
0
-1
-1
-1
-2
-2
-2
0
3
7
1
-7
-9
-8
-8
-8
-9
-9
-10
-10
-9
-9
-9
-9
-8
-7
-7
-6
-4
-3
-3
-4
-3
-2
-2
-2
-1
0
0
-1
-1
0
0
0
-1
0
0
1
0
0
0
0
0
-1
-1
-1
-1
-2
-2
-3
-3
-4
-6
-6
-6
-6
-6
-6
-7
-7
-7
-8
-7
-6
-6
-8
-9
-7
-7
-6
-6
-5
-5
-5
-6
-6
-5
-5
-6
-6
-5
-6
-6
-6
-7
-7
-8
-8
-9
-9
-10
-10
-10
-9
-9
-10
-10
-10
-10
-10
-10
-11
-11
-11
-12
-12
-12
-11
-12
-13
-13
-13
-12
-13
-14
-15
-14
-14
-15
-15
-14
-15
-15
-14
-14
-13
-13
-14
-12
-11
-8
-5
-1
2
4
5
6
7
9
16
23
22
18
18
18
19
18
17
15
11
7
1
-4
-9
-11
-13
-17
-22
-24
-26
-26
-26
-25
-25
-24
-24
-25
-24
-24
-24
-24
-24
-24
-23
-23
-22
-22
-21
-20
-20
-20
-19
-18
-17
-14
-5
8
30
62
107
168
239
301
355
388
413
390
301
170
44
-36
-63
-62
-51
-46
-42
-41
-40
-39
-39
-37
-37
-36
-36
-36
-36
-34
-33
-33
-33
-33
-31
-31
-31
-31
-31
-30
-31
-31
-31
-30
-30
-29
-28
-27
-27
-28
-28
-27
-26
-26
-26
-26
-26
-26
-28
-28
-28
-29
-30
-31
-31
-33
-34
-35
-36
-36
-37
-38
-39
-39
-40
-40
-40
-40
-42
-43
-44
-44
-44
-45
-44
-43
-41
-40
-39
-37
-36
-33
-31
-27
-20
-11
-9
-15
-16
-13
-11
-10
-9
-8
-7
-7
-8
-8
-7
-7
-8
-9
-8
-9
-10
-10
-11
-12
-12
-13
-12
-12
-13
-14
-14
-13
-12
-12
-10
-8
-6
-4
-3
-4
-4
-4
-5
-5
-4
-4
-4
-3
-3
-3
-3
-2
-2
-2
-2
-3
-3
-3
-2
-2
-2
-2
-2
-2
-3
-3
-3
-3
-3
-3
-3
-2
-2
-3
-2
-2
-2
-2
-2
-1
-1
-1
-1
-2
-1
-1
-1
0
0
-1
-1
0
0
0
0
0
1
1
0
-1
-1
-2
-3
-3
-2
-1
-1
-1
-1
-1
0
-1
-1
0
0
0
0
0
0
0
0
0
0
1
1
1
1
0
0
0
1
2
2
1
1
2
2
3
4
8
14
14
7
5
8
13
17
21
24
26
26
27
28
30
30
32
35
38
38
38
38
36
33
30
26
21
16
11
6
3
2
-1
-4
-7
-8
-9
-9
-9
-9
-9
-9
-9
-9
-8
-8
-7
-7
-6
-6
-6
-4
-2
-1
-1
0
2
5
8
15
28
49
77
116
172
237
310
359
402
429
441
403
292
162
44
-27
-48
-44
-35
-31
-29
-27
-26
-24
-23
-21
-20
-20
-20
-21
-21
-20
-20
-20
-20
-20
-19
-19
-18
-17
-17
-16
-15
-15
-15
-16
-15
-14
-12
-12
-11
-10
-10
-10
-11
-11
-11
-12
-13
-12
-12
-12
-14
-16
-17
-18
-20
-22
-23
-25
-26
-26
-27
-26
-26
-26
-28
-28
-28
-27
-23
-19
-22
-30
-33
-32
-29
-26
-26
-24
-23
-21
-17
-13
-8
-4
-1
1
3
5
7
9
11
11
12
11
12
12
11
9
8
7
7
6
5
4
4
3
3
4
4
3
3
3
3
3
4
5
6
7
7
6
6
7
7
7
8
9
9
9
9
10
10
10
9
9
10
10
9
9
10
9
9
9
9
8
8
8
7
7
6
6
6
6
5
5
5
5
4
4
4
4
3
2
2
2
1
0
1
2
2
3
3
4
4
3
3
2
3
3
3
3
3
3
2
2
3
4
3
2
2
2
2
1
1
2
1
1
1
2
3
3
3
4
4
6
10
16
13
4
1
2
3
3
3
3
3
3
3
4
5
5
7
10
14
17
20
22
24
25
27
27
28
30
33
37
40
42
41
39
37
36
33
28
23
19
16
13
10
6
3
1
0
1
1
1
0
0
1
2
2
1
2
2
2
2
3
4
4
4
5
7
7
8
10
13
17
27
44
69
104
150
215
286
352
399
430
452
428
349
209
81
-1
-34
-34
-26
-21
-19
-19
-20
-20
-19
-18
-19
-19
-19
-18
-18
-18
-18
-18
-18
-18
-17
-16
-16
-16
-16
-15
-15
-15
-15
-14
-14
-13
-13
-11
-10
-10
-11
-10
-9
-9
-8
-6
-6
-8
-9
-10
-10
-10
-12
-12
-13
-12
-8
-7
-14
-22
-23
-22
-22
-22
-22
-22
-22
-21
-21
-21
-22
-22
-21
-21
-20
-18
-15
-13
-10
-8
-5
-1
0
4
7
10
13
15
17
19
19
20
20
21
21
21
21
21
21
20
20
20
20
20
19
19
18
18
17
16
16
17
18
18
18
19
20
19
20
20
21
22
21
23
23
24
24
25
26
25
25
24
25
24
24
24
24
25
24
24
24
24
23
23
23
23
22
20
20
20
20
19
18
18
18
17
16
15
15
15
14
13
13
14
13
11
12
14
15
14
14
13
13
14
13
13
14
13
12
13
13
12
12
12
13
13
14
14
15
15
14
13
13
13
15
20
24
18
11
9
9
10
10
10
9
9
10
9
9
9
10
9
9
9
10
9
9
9
9
9
9
9
8
9
10
12
14
18
22
24
25
26
28
29
31
32
35
38
41
43
42
42
40
37
33
29
24
18
13
10
7
3
-1
-3
-4
-4
-4
-3
-2
-2
-2
-1
0
0
0
0
1
2
1
1
3
4
4
4
5
5
6
6
7
10
16
28
45
68
104
151
216
284
344
389
417
432
392
291
151
33
-30
-46
-40
-32
-27
-24
-23
-22
-22
-20
-18
-19
-18
-18
-18
-17
-17
-16
-16
-16
-16
-16
-16
-17
-16
-17
-16
-16
-16
-16
-15
-14
-13
-13
-13
-13
-13
-12
-12
-11
-6
0
-6
-15
-18
-17
-17
-18
-18
-18
-19
-20
-22
-23
-25
-25
-26
-27
-27
-28
-29
-30
-30
-31
-31
-31
-30
-28
-29
-29
-29
-28
-29
-27
-25
-24
-23
-22
-20
-17
-14
-12
-7
-3
0
3
3
4
5
6
7
6
6
6
5
4
4
5
4
4
3
2
2
2
1
0
0
0
0
1
1
1
1
1
1
1
2
2
3
4
3
2
3
4
4
4
3
4
5
4
4
4
4
3
4
5
5
5
6
6
6
5
5
5
5
5
5
4
3
3
4
4
3
3
3
3
2
1
1
2
1
0
0
1
1
1
0
1
1
1
1
3
3
3
2
3
2
1
2
3
7
12
11
3
0
0
0
1
1
1
1
2
3
3
3
3
3
4
5
3
3
4
4
4
3
3
4
5
5
5
5
5
3
3
4
5
5
7
8
10
14
18
21
23
26
27
27
29
31
34
37
41
44
45
43
41
40
37
33
27
22
17
13
10
7
4
0
-3
-5
-4
-3
-4
-4
-3
-4
-5
-6
-5
-5
-4
-4
-4
-4
-4
-3
-3
-1
0
2
3
5
7
10
13
20
34
55
85
123
179
248
326
382
423
451
453
404
272
134
27
-27
-36
-28
-22
-19
-19
-19
-18
-18
-19
-19
-18
-17
-18
-19
-19
-19
-18
-19
-18
-17
-16
-16
-16
-15
-15
-14
-14
-14
-12
-11
-8
-2
2
-3
-10
-12
-11
-9
-7
-7
-8
-8
-9
-11
-12
-12
-13
-14
-15
-16
-17
-18
-20
-20
-21
-20
-22
-22
-22
-22
-23
-24
-23
-23
-23
-24
-23
-23
-22
-21
-19
-17
-15
-14
-12
-10
-7
-5
-2
1
4
7
8
10
12
13
13
13
13
12
12
11
10
11
11
10
9
9
9
9
8
8
8
7
7
7
7
8
7
8
7
8
7
7
7
8
8
7
7
7
7
6
6
6
6
6
5
5
5
5
5
5
6
5
5
4
4
3
3
3
3
4
4
3
3
3
3
3
2
2
2
2
1
0
0
0
-1
-1
-1
-1
-2
-3
-3
-3
-3
-3
-3
-3
-3
-2
2
7
2
-5
-6
-4
-3
-4
-4
-4
-4
-5
-6
-5
-5
-6
-6
-6
-6
-6
-6
-5
-4
-4
-5
-5
-4
-4
-4
-5
-5
-5
-5
-5
-5
-4
-5
-6
-6
-6
-5
-6
-4
-2
1
3
7
11
14
16
16
16
18
19
22
24
27
30
29
28
25
23
19
14
9
4
0
-4
-7
-10
-14
-17
-19
-20
-19
-20
-20
-19
-19
-19
-19
-20
-19
-19
-18
-18
-17
-16
-14
-13
-12
-10
-8
-7
-5
-3
0
1
7
20
40
67
106
159
228
299
351
391
413
417
353
232
103
0
-47
-52
-45
-38
-37
-37
-38
-38
-39
-41
-41
-42
-42
-44
-44
-44
-42
-41
-41
-40
-40
-39
-40
-39
-38
-35
-28
-26
-33
-38
-37
-36
-36
-34
-34
-33
-34
-33
-33
-32
-33
-33
-34
-35
-36
-36
-36
-37
-38
-39
-40
-40
-41
-42
-42
-42
-42
-43
-43
-43
-43
-44
-43
-43
-43
-44
-44
-43
-43
-41
-40
-37
-36
-35
-34
-31
-28
-26
-23
-21
-17
-14
-12
-11
-9
-6
-5
-4
-3
-2
-2
-2
-2
-2
-2
-4
-5
-6
-6
-7
-8
-9
-10
-11
-12
-12
-12
-12
-12
-11
-10
-9
-9
-8
-7
-7
-7
-7
-5
-5
-5
-4
-4
-3
-4
-4
-4
-3
-3
-3
-3
-3
-3
-4
-4
-4
-4
-4
-5
-5
-5
-4
-4
-5
-5
-4
-4
-5
-5
-5
-5
-6
-8
-8
-7
-7
-8
-8
-7
-8
-8
-8
-8
-7
-2
2
-2
-9
-10
-10
-9
-9
-9
-10
-9
-8
-8
-8
-7
-7
-7
-7
-7
-6
-3
-4
-5
-6
-6
-6
-7
-7
-7
-6
-6
-7
-6
-6
-5
-6
-6
-6
-6
-6
-6
-5
-4
-3
-1
3
8
12
15
18
20
20
22
24
27
30
35
37
38
37
35
34
31
28
22
16
12
8
5
2
-2
-5
-7
-9
-9
-8
-8
-9
-9
-9
-8
-8
-8
-7
-7
-7
-7
-7
-6
-5
-4
-2
-1
1
3
6
8
11
15
23
37
60
93
138
204
280
357
405
441
456
412
301
151
36
-21
-32
-24
-18
-14
-13
-14
-14
-15
-16
-18
-19
-21
-22
-23
-25
-26
-27
-27
-28
-27
-27
-26
-25
-24
-19
-12
-13
-21
-25
-24
-23
-23
-23
-21
-20
-20
-20
-20
-19
-19
-20
-21
-21
-22
-24
-25
-25
-25
-27
-28
-28
-28
-29
-29
-29
-30
-30
-32
-31
-31
-31
-32
-33
-32
-33
-32
-32
-31
-30
-29
-28
-26
-23
-22
-20
-18
-14
-12
-10
-7
-4
0
1
3
4
6
9
9
9
9
10
9
9
9
9
9
8
8
8
7
7
7
8
8
7
7
7
7
6
7
7
7
7
7
7
7
6
7
7
8
8
7
6
7
7
7
8
9
10
9
8
8
8
7
6
6
7
9
9
9
9
10
9
9
9
9
9
9
8
8
8
8
7
6
6
6
4
3
2
2
2
3
5
10
12
6
0
0
1
1
1
1
1
0
0
0
0
0
-1
-1
0
-1
-2
-1
-1
-1
-1
-1
0
0
0
0
1
1
0
0
0
0
0
0
0
1
1
1
0
0
0
0
0
1
3
5
9
14
17
19
20
20
22
25
27
29
31
34
34
34
34
31
28
24
20
15
10
5
1
-1
-4
-7
-10
-12
-12
-13
-14
-14
-14
-15
-15
-15
-14
-13
-13
-12
-11
-12
-12
-12
-11
-10
-9
-8
-7
-5
-4
-3
0
7
19
37
63
103
157
230
301
363
403
427
423
353
227
97
1
-36
-36
-25
-19
-17
-17
-18
-20
-22
-22
-23
-24
-26
-27
-27
-28
-29
-29
-27
-25
-23
-17
-13
-18
-25
-27
-25
-22
-22
-21
-21
-21
-19
-19
-18
-18
-17
-16
-16
-15
-15
-14
-15
-16
-16
-16
-17
-18
-20
-20
-21
-23
-24
-24
-25
-26
-27
-27
-27
-27
-28
-27
-27
-28
-28
-27
-25
-24
-24
-23
-21
-19
-17
-15
-13
-9
-7
-4
-2
2
5
7
10
11
13
14
15
16
17
18
17
17
17
17
18
18
17
17
17
16
16
15
15
13
12
13
14
14
14
13
13
13
14
14
14
14
13
13
14
14
14
14
15
17
17
16
15
15
16
17
18
18
17
17
16
15
15
14
14
15
17
18
19
19
18
19
19
19
18
19
19
19
18
17
17
16
16
16
17
16
16
19
25
30
25
18
16
17
19
19
19
18
17
18
19
20
20
20
20
20
20
20
21
22
22
22
21
21
22
21
21
21
21
22
22
22
22
23
22
22
22
23
24
23
22
22
23
22
22
22
23
24
24
24
23
24
23
23
24
25
26
25
24
24
25
27
32
37
41
44
44
46
45
46
47
50
53
55
58
60
60
58
57
54
53
49
44
38
33
29
27
25
22
18
16
14
14
14
15
15
15
15
15
16
16
16
17
19
20
19
20
21
22
22
23
24
25
25
26
28
31
40
53
77
109
156
218
292
363
407
444
462
455
386
250
115
13
-36
-43
-37
-29
-25
-19
-12
-9
-15
-20
-19
-19
-18
-18
-17
-18
-18
-18
-17
-16
-15
-14
-13
-11
-11
-10
-9
-8
-6
-6
-5
-4
-3
-2
-2
-1
-1
0
-1
0
0
0
0
0
1
0
0
-2
-3
-4
-5
-7
-8
-8
-9
-10
-12
-12
-13
-15
-16
-16
-16
-17
-18
-18
-18
-17
-18
-17
-16
-14
-13
-12
-11
-10
-8
-6
-4
-1
1
3
5
7
8
10
12
14
16
18
18
18
17
18
17
16
15
15
14
13
12
11
10
9
9
8
8
8
7
6
7
6
6
6
7
7
6
7
7
7
7
6
6
7
7
7
7
7
7
7
7
7
8
8
8
7
8
8
7
6
6
7
6
5
5
5
6
11
17
14
7
4
5
5
4
4
3
3
2
2
1
0
0
0
-1
-2
-1
0
0
-1
0
0
0
-1
-1
-1
-1
-1
-2
-1
-1
-2
-2
-3
-3
-3
-3
-3
-2
-2
-3
-3
-2
-2
-2
-3
-3
-3
-3
-3
-3
-3
-3
-4
-4
-4
-5
-6
-7
-6
-6
-5
-6
-5
-5
-5
-5
-6
-5
-4
-5
-5
-6
-5
-5
-6
-6
-6
-5
-6
-6
-7
-6
-7
-7
-7
-7
-7
-8
-8
-9
-9
-9
-10
-9
-8
-8
-9
-9
-9
-8
-8
-7
-6
-5
-3
-1
3
7
9
11
12
14
16
18
20
21
23
27
29
32
33
31
28
25
22
17
12
7
2
0
-2
-4
-8
-11
-14
-15
-15
-11
-10
-18
-27
-29
-29
-30
-31
-31
-30
-29
-29
-28
-27
-26
-25
-23
-21
-19
-18
-16
-12
-1
13
35
67
113
172
236
295
341
371
394
371
293
164
46
-29
-56
-53
-41
-35
-32
-29
-27
-25
-23
-22
-21
-19
-18
-17
-17
-17
-18
-19
-18
-17
-17
-17
-17
-16
-15
-15
-14
-13
-12
-12
-11
-9
-8
-8
-7
-8
-8
-7
-7
-6
-6
-6
-7
-6
-7
-8
-9
-10
-10
-11
-12
-13
-13
-13
-14
-15
-16
-16
-17
-17
-18
-17
-18
-17
-18
-17
-17
-17
-17
-17
-15
-15
-13
-11
-7
-5
-3
-1
2
5
7
10
14
17
17
18
19
21
21
21
22
21
20
19
19
18
17
17
17
20
25
28
22
15
14
14
15
14
15
15
15
14
15
15
14
14
14
15
15
15
15
16
17
18
19
20
21
20
21
21
21
21
21
23
23
23
21
20
19
19
20
21
23
23
23
22
22
22
23
23
23
24
24
23
23
22
23
23
23
23
23
22
22
23
23
24
23
24
25
26
25
24
25
24
23
22
23
24
24
24
24
25
24
24
24
25
25
24
25
25
25
23
23
23
23
23
22
23
23
23
22
23
22
23
22
22
22
22
22
22
23
22
23
23
23
23
22
22
22
23
23
22
22
22
22
22
22
22
22
21
22
22
22
22
23
26
29
34
42
49
47
41
40
42
44
47
48
50
53
58
61
64
65
65
63
59
54
47
41
34
30
29
26
23
17
14
15
15
16
16
16
15
15
15
16
17
16
16
17
18
17
17
18
18
17
15
15
15
16
19
27
42
65
96
141
201
273
337
386
422
448
445
380
254
113
11
-39
-47
-38
-29
-24
-21
-18
-16
-13
-12
-11
-11
-11
-12
-11
-11
-10
-10
-10
-10
-10
-10
-10
-10
-9
-9
-10
-10
-9
-9
-9
-9
-8
-8
-9
-9
-10
-9
-9
-8
-9
-9
-10
-10
-11
-12
-11
-13
-14
-14
-15
-15
-16
-17
-18
-18
-20
-21
-21
-21
-22
-23
-24
-24
-25
-25
-25
-25
-24
-23
-21
-14
-11
-16
-19
-17
-13
-11
-10
-8
-5
-3
-1
0
3
4
4
4
5
5
4
4
3
3
2
0
0
-1
0
-2
-3
-3
-4
-5
-6
-7
-8
-8
-9
-10
-10
-9
-8
-8
-7
-7
-7
-7
-7
-6
-5
-5
-6
-5
-5
-6
-6
-6
-6
-8
-8
-9
-9
-10
-11
-10
-9
-9
-9
-8
-8
-9
-10
-10
-10
-11
-12
-12
-11
-11
-10
-12
-12
-12
-13
-14
-16
-16
-16
-17
-18
-19
-18
-18
-19
-20
-19
-19
-20
-20
-19
-18
-19
-19
-20
-19
-19
-20
-20
-20
-19
-20
-20
-19
-19
-19
-20
-19
-20
-21
-22
-22
-22
-23
-23
-23
-22
-22
-22
-22
-22
-21
-22
-21
-21
-21
-20
-21
-21
-19
-15
-7
-4
-12
-19
-20
-19
-19
-19
-18
-19
-19
-20
-20
-20
-20
-19
-19
-19
-18
-17
-16
-15
-15
-14
-12
-8
-4
-1
1
2
4
5
6
9
11
12
15
19
22
23
21
19
16
13
9
4
0
-6
-10
-12
-14
-16
-20
-24
-25
-24
-23
-23
-22
-22
-21
-22
-21
-21
-20
-19
-18
-18
-17
-16
-16
-16
-16
-15
-14
-15
-16
-16
-14
-9
2
21
50
90
148
217
287
345
382
408
395
317
185
56
-32
-66
-67
-57
-50
-45
-43
-41
-39
-36
-34
-32
-30
-28
-26
-26
-25
-24
-23
-23
-23
-23
-22
-21
-22
-22
-21
-19
-18
-18
-17
-17
-17
-18
-17
-16
-14
-14
-14
-14
-13
-13
-13
-14
-15
-15
-13
-9
-7
-13
-20
-22
-21
-21
-22
-23
-24
-24
-23
-23
-23
-24
-23
-24
-24
-24
-23
-23
-23
-22
-21
-20
-19
-18
-16
-13
-11
-10
-8
-6
-3
-1
1
4
6
8
11
12
15
16
18
18
20
20
19
18
17
16
16
15
15
14
15
14
13
13
14
14
14
15
15
15
15
16
16
17
16
15
17
18
18
17
18
19
19
20
19
20
20
21
20
19
19
19
19
19
20
22
24
24
25
25
24
24
23
24
24
23
22
22
22
21
21
20
20
19
19
19
18
19
19
20
20
21
21
20
20
20
20
20
20
21
21
20
20
20
20
20
20
21
21
21
20
21
21
21
20
22
28
33
28
18
16
18
19
19
19
19
18
18
17
18
18
18
17
17
17
18
17
16
16
17
16
16
15
16
16
16
15
15
15
14
14
14
14
14
13
14
14
14
13
12
13
13
13
12
12
12
13
15
20
24
27
29
29
30
30
32
33
36
39
42
45
48
50
51
52
49
46
42
38
32
25
20
16
14
11
7
3
1
0
0
1
2
1
1
2
3
2
2
2
2
2
2
2
3
3
3
3
3
2
1
1
6
16
33
57
95
144
209
277
338
385
416
439
416
340
210
84
-4
-46
-50
-40
-34
-30
-28
-25
-24
-23
-22
-20
-20
-21
-21
-21
-21
-21
-21
-21
-18
-13
-10
-15
-21
-22
-21
-20
-19
-18
-18
-18
-18
-18
-18
-18
-18
-17
-18
-18
-19
-18
-19
-20
-20
-21
-21
-23
-24
-25
-25
-26
-27
-27
-27
-27
-29
-29
-29
-30
-31
-33
-33
-34
-33
-35
-36
-36
-36
-37
-38
-36
-36
-35
-34
-32
-30
-28
-25
-23
-19
-17
-14
-12
-10
-8
-7
-6
-6
-5
-5
-6
-6
-6
-7
-8
-8
-8
-8
-9
-9
-8
-7
-8
-9
-10
-10
-11
-12
-13
-13
-13
-14
-15
-14
-14
-12
-11
-10
-10
-9
-9
-9
-8
-7
-7
-8
-8
-7
-6
-6
-6
-4
-4
-4
-5
-4
-4
-4
-4
-3
-2
-3
-3
-4
-3
-4
-4
-3
-3
-3
-3
-3
-3
-3
-3
-3
-2
-2
0
5
5
-1
-6
-6
-5
-4
-4
-4
-5
-6
-6
-6
-7
-7
-6
-7
-7
-8
-8
-7
-8
-8
-7
-7
-7
-8
-9
-9
-9
-9
-9
-8
-8
-9
-9
-8
-8
-7
-7
-7
-6
-6
-6
-6
-5
-6
-6
-5
-5
-5
-6
-5
-5
-5
-6
-6
-6
-5
-4
-5
-6
-6
-5
-5
-5
-5
-4
-4
-5
-5
-5
-3
-3
-1
1
6
9
12
13
14
14
16
18
20
23
25
28
32
36
38
37
34
31
28
22
15
8
3
0
-1
-2
-4
-7
-7
-7
-6
-6
-6
-6
-6
-6
-6
-6
-6
-5
-5
-5
-4
-3
-2
-1
-1
0
0
0
0
1
5
13
27
47
77
121
178
248
311
366
399
421
393
295
157
31
-37
-53
-46
-35
-28
-23
-21
-20
-19
-17
-17
-17
-18
-17
-17
-18
-17
-15
-14
-15
-16
-16
-14
-13
-13
-12
-11
-11
-11
-10
-10
-9
-9
-9
-9
-8
-7
-7
-7
-6
-7
-7
-6
-6
-5
-6
-6
-6
-7
-8
-11
-13
-13
-13
-14
-14
-15
-15
-15
-16
-15
-15
-15
-16
-16
-16
-16
-16
-15
-13
-13
-13
-12
-10
-7
-4
-2
0
3
5
7
10
13
14
16
17
19
20
19
19
18
19
19
18
18
19
19
19
18
18
18
17
17
16
16
16
15
14
13
13
13
12
12
12
13
13
15
16
16
16
17
18
17
17
15
15
15
16
16
17
18
18
18
20
24
29
27
20
15
15
15
15
14
15
15
14
13
14
13
13
12
12
12
10
9
10
11
10
9
10
10
9
8
8
9
9
9
8
8
7
6
5
6
7
7
7
7
7
6
5
6
6
6
5
5
5
5
5
5
7
6
5
5
5
5
5
5
4
5
4
4
4
4
4
3
2
2
3
2
2
1
1
2
0
0
0
0
0
0
1
1
0
0
-1
-1
0
-1
-1
-1
0
0
0
2
6
9
11
14
15
15
16
17
20
23
24
26
30
33
34
34
33
31
27
22
17
13
8
3
0
-2
-4
-6
-11
-12
-12
-12
-12
-12
-12
-11
-11
-12
-12
-12
-11
-8
-3
-3
-11
-14
-14
-12
-10
-9
-9
-8
-7
-5
1
16
39
72
119
180
252
313
361
390
403
363
253
121
5
-55
-67
-58
-48
-43
-42
-41
-40
-38
-37
-37
-36
-36
-36
-36
-37
-38
-38
-37
-37
-37
-37
-37
-37
-37
-36
-35
-34
-33
-33
-32
-31
-31
-31
-30
-29
-29
-29
-28
-28
-28
-29
-28
-28
-28
-29
-30
-31
-32
-33
-34
-34
-35
-36
-36
-36
-35
-37
-37
-38
-37
-38
-38
-38
-38
-36
-37
-37
-37
-35
-34
-34
-32
-31
-29
-29
-27
-25
-22
-19
-17
-14
-12
-9
-7
-4
-2
-1
-1
-1
-1
0
0
-1
0
0
-1
-3
-4
-5
-6
-6
-6
-5
-6
-7
-6
-5
-5
-5
-1
3
1
-7
-11
-10
-10
-10
-10
-8
-7
-6
-4
-4
-2
-2
-2
-3
-3
-2
-2
-1
-1
0
1
0
-1
-2
-1
0
0
0
0
0
0
0
0
0
0
0
0
0
-1
-2
-2
-2
-2
-3
-3
-3
-4
-3
-3
-3
-3
-4
-4
-3
-3
-5
-6
-5
-5
-5
-5
-4
-4
-3
-2
-3
-1
-1
-1
-2
-2
-2
-2
-3
-3
-2
-1
-1
-1
-1
-1
-1
-2
-1
-1
-1
-1
-1
-2
-1
-1
-2
-1
-1
-1
-2
-1
0
0
-1
-1
-1
-1
-1
-2
-2
-2
-2
-1
0
0
0
0
0
1
2
1
0
2
6
10
13
16
19
20
20
21
23
25
27
28
31
35
39
41
42
41
41
43
38
23
12
7
5
3
2
1
-3
-5
-5
-4
-4
-4
-3
-3
-3
-4
-3
-3
-4
-3
-2
-2
-1
0
0
1
3
3
3
6
8
10
16
29
49
74
111
161
225
295
351
391
422
439
411
314
174
52
-28
-56
-54
-44
-36
-31
-29
-27
-24
-22
-21
-20
-18
-17
-17
-17
-16
-14
-14
-13
-12
-11
-11
-10
-8
-7
-7
-7
-7
-6
-6
-6
-6
-6
-5
-5
-6
-5
-4
-4
-4
-5
-6
-6
-6
-7
-8
-9
-9
-11
-13
-13
-13
-14
-15
-15
-16
-17
-18
-19
-19
-20
-21
-23
-22
-23
-22
-22
-22
-20
-20
-19
-18
-17
-15
-14
-12
-9
-7
-6
-5
-2
0
2
4
6
9
12
19
25
23
15
11
12
12
12
11
10
9
8
8
7
5
5
6
5
4
4
4
4
3
2
2
2
2
1
2
2
3
4
5
6
8
8
9
11
12
11
11
11
12
12
12
12
13
13
12
11
11
11
10
9
8
9
8
7
6
7
6
6
5
5
5
4
3
3
3
3
2
2
1
1
1
0
0
0
1
0
0
0
0
0
-1
-1
-1
0
-1
-2
-1
0
-1
-2
-3
-3
-3
-3
-4
-3
-2
-2
-3
-2
-2
-3
-3
-3
-3
-3
-4
-4
-3
-2
-3
-3
-1
-1
-3
-5
-6
-5
-5
-5
-6
-6
-5
-6
-6
-6
-5
-5
-7
-8
-8
-7
-7
-7
-6
-6
-6
-5
0
6
3
-4
-6
-4
-1
1
5
8
11
13
13
15
17
19
20
22
25
28
30
31
30
28
25
20
16
12
6
0
-3
-4
-6
-9
-12
-15
-16
-17
-18
-18
-17
-18
-19
-19
-18
-18
-18
-17
-17
-16
-15
-15
-14
-13
-12
-13
-13
-13
-13
-13
-11
-5
8
29
57
103
160
232
293
341
377
392
368
265
135
21
-47
-63
-55
-45
-39
-38
-35
-33
-31
-30
-30
-29
-29
-29
-30
-30
-30
-29
-31
-31
-30
-29
-28
-29
-28
-28
-27
-27
-26
-25
-25
-24
-24
-23
-22
-21
-20
-20
-19
-19
-19
-20
-20
-20
-20
-22
-23
-23
-24
-25
-25
-25
-25
-26
-27
-27
-28
-29
-30
-30
-30
-30
-31
-30
-29
-24
-21
-26
-32
-31
-30
-31
-30
-29
-27
-26
-24
-23
-20
-17
-14
-10
-7
-4
-2
1
4
5
6
6
7
8
7
7
6
6
7
6
6
6
6
5
4
5
5
5
4
3
3
2
0
0
0
0
-1
-1
-1
0
1
2
3
5
6
5
5
5
5
5
5
6
7
7
7
7
7
8
7
8
8
9
8
8
7
8
8
7
7
8
7
6
6
7
8
7
5
5
5
6
5
6
6
5
4
4
4
4
3
5
5
5
5
5
5
5
4
4
5
5
4
4
4
5
4
4
4
4
3
2
1
1
1
1
1
0
0
1
1
0
0
0
0
0
1
3
4
7
11
10
2
-1
-2
-1
0
-1
-1
0
0
0
0
1
2
1
0
0
1
1
1
0
1
1
1
2
4
7
10
13
17
18
19
20
21
23
25
26
27
28
32
37
40
42
43
41
37
33
29
25
19
12
8
6
4
1
-1
-3
-4
-5
-5
-4
-3
-3
-3
-2
-2
-2
-1
0
2
3
4
4
5
6
6
7
8
9
12
18
32
52
78
119
171
240
305
357
396
424
438
389
283
145
33
-30
-49
-43
-32
-26
-22
-20
-17
-15
-15
-14
-14
-13
-14
-14
-14
-13
-13
-13
-12
-11
-11
-11
-11
-10
-10
-10
-9
-9
-9
-9
-9
-9
-8
-9
-8
-8
-8
-8
-5
0
0
-7
-14
-14
-13
-13
-15
-15
-16
-16
-18
-19
-20
-21
-21
-23
-24
-25
-25
-26
-27
-27
-27
-28
-28
-27
-27
-27
-26
-25
-23
-22
-20
-18
-16
-13
-11
-8
-6
-3
0
3
6
9
10
12
13
13
12
12
12
11
11
10
9
8
7
6
6
7
6
4
3
4
3
2
2
3
4
4
4
4
6
8
8
9
11
13
13
14
14
16
16
17
17
17
17
16
16
16
17
17
17
17
17
17
17
18
17
16
16
16
15
15
14
14
14
13
12
12
13
12
12
13
13
13
12
11
12
12
11
11
11
11
11
10
11
11
12
11
11
11
12
11
11
13
18
22
17
10
9
9
9
10
10
9
8
7
7
7
7
7
9
8
8
7
8
7
6
6
6
6
6
5
6
6
6
5
5
5
5
4
4
4
4
4
3
3
4
4
4
4
5
4
3
3
3
5
7
10
13
16
19
20
21
23
25
27
29
30
33
36
39
41
41
38
34
29
24
18
11
7
4
2
0
-4
-7
-8
-9
-9
-8
-6
-7
-7
-7
-6
-6
-6
-6
-5
-3
-3
-3
-2
0
0
0
0
1
2
3
4
10
21
38
62
100
155
220
290
340
378
398
386
312
177
53
-33
-63
-58
-46
-39
-35
-33
-30
-29
-27
-25
-24
-23
-22
-22
-21
-19
-15
-10
-14
-21
-24
-23
-22
-22
-21
-21
-20
-20
-19
-19
-18
-16
-15
-15
-14
-13
-13
-13
-13
-14
-13
-13
-13
-14
-15
-16
-17
-18
-19
-20
-21
-23
-24
-25
-27
-27
-26
-27
-27
-28
-27
-27
-28
-28
-29
-28
-29
-29
-29
-28
-27
-27
-26
-25
-23
-21
-19
-16
-13
-10
-8
-5
-2
0
1
1
2
3
3
3
3
2
2
1
1
1
1
0
0
0
0
0
0
0
0
0
-1
-2
-2
-2
-3
-5
-5
-4
-4
-3
-2
0
0
0
0
0
1
1
0
1
1
1
2
2
2
1
0
0
0
1
1
0
1
1
0
0
0
1
0
0
0
0
0
0
-1
-1
0
0
0
0
5
10
6
-2
-5
-4
-3
-4
-4
-3
-3
-3
-3
-2
-2
-2
-3
-4
-2
-2
-2
-2
-1
-1
-1
-2
-1
-1
0
0
0
2
2
1
1
2
3
2
2
2
2
1
0
1
0
0
0
-1
-1
0
0
0
1
1
2
1
1
2
3
3
3
3
4
4
3
3
4
4
3
3
3
3
3
3
4
6
7
9
13
17
19
20
20
22
24
26
27
29
33
35
38
41
43
42
39
37
33
30
24
18
12
9
7
5
3
0
-1
-2
-2
-2
-1
0
-1
0
1
2
3
3
4
4
5
5
5
6
7
8
8
9
10
10
11
13
21
36
60
97
150
215
289
350
399
437
449
404
292
150
34
-36
-57
-52
-40
-33
-29
-26
-24
-24
-21
-19
-17
-16
-16
-15
-14
-13
-13
-13
-13
-12
-11
-12
-11
-11
-11
-11
-11
-10
-10
-10
-10
-9
-7
-7
-7
-7
-7
-7
-7
-8
-7
-6
-7
-7
-7
-7
-9
-10
-11
-11
-13
-14
-14
-15
-15
-17
-18
-18
-19
-20
-21
-20
-20
-20
-19
-19
-17
-16
-17
-18
-17
-16
-16
-16
-14
-12
-10
-8
-6
-3
0
2
4
7
10
13
14
16
17
18
18
18
18
18
17
16
15
15
13
12
11
12
11
10
10
11
10
9
8
9
10
9
8
8
8
8
7
8
9
10
12
13
13
15
16
16
16
16
17
18
19
19
20
22
24
30
31
24
19
19
20
20
20
20
19
19
19
18
17
17
17
17
15
15
15
14
14
13
14
14
14
13
13
14
14
14
14
14
13
12
12
13
14
13
12
13
14
14
13
14
14
15
14
14
13
14
13
12
11
12
12
11
11
11
12
12
11
11
12
13
11
10
10
9
8
8
9
10
10
9
9
9
8
8
8
8
8
6
5
5
6
5
4
4
5
5
5
4
4
5
4
4
5
7
9
12
15
20
23
25
27
28
30
31
33
36
38
41
44
48
49
49
45
42
36
28
22
16
11
8
6
3
-1
-5
-7
-8
-8
-8
-8
-8
-8
-8
-8
-7
-3
3
3
-5
-9
-8
-6
-6
-6
-5
-3
-3
-3
-3
-2
3
15
33
61
101
157
224
293
351
388
417
411
342
211
79
-13
-49
-48
-38
-32
-30
-28
-27
-27
-25
-25
-26
-26
-26
-25
-24
-24
-25
-24
-23
-24
-24
-24
-22
-22
-22
-22
-21
-20
-20
-18
-17
-16
-16
-16
-16
-15
-15
-16
-16
-16
-16
-17
-18
-18
-18
-18
-19
-19
-20
-20
-21
-22
-23
-24
-24
-26
-26
-26
-26
-27
-27
-26
-27
-28
-28
-27
-27
-27
-26
-26
-24
-24
-24
-23
-21
-20
-17
-14
-11
-9
-7
-4
-1
1
3
5
7
8
9
9
10
10
10
9
8
8
8
7
6
7
6
6
4
3
4
4
4
4
7
13
16
9
3
3
4
5
7
9
9
8
8
9
10
10
10
10
10
9
10
10
11
11
11
11
12
12
11
11
11
11
10
10
11
11
11
10
10
10
10
10
11
11
11
10
9
9
10
10
10
10
10
9
8
8
8
9
8
9
10
11
9
9
9
9
9
8
9
11
11
10
10
9
8
8
8
8
8
8
7
7
7
7
7
7
9
9
9
8
8
8
7
7
9
12
13
12
11
10
10
10
11
12
12
12
12
13
14
16
19
24
28
31
32
34
34
34
36
38
42
45
48
50
52
51
48
46
42
39
32
27
23
20
18
15
12
10
11
17
18
11
6
5
6
7
8
8
9
9
9
10
10
11
13
14
14
14
15
16
17
19
22
27
37
54
80
114
164
228
308
376
427
462
476
453
354
203
74
-5
-29
-25
-18
-13
-11
-10
-10
-9
-8
-8
-8
-7
-6
-6
-6
-6
-5
-5
-6
-7
-5
-4
-4
-4
-5
-4
-3
-2
-3
-2
-2
-2
-2
-2
-2
-1
-2
-2
-1
0
-1
-2
-2
-3
-3
-4
-4
-6
-7
-8
-10
-11
-12
-14
-16
-17
-17
-19
-21
-22
-23
-24
-24
-24
-24
-24
-24
-23
-21
-19
-19
-18
-16
-14
-13
-10
-8
-5
-2
0
2
6
8
10
12
15
18
18
20
20
21
20
19
19
19
19
18
19
24
26
19
12
12
13
14
14
14
14
15
15
15
17
18
18
18
19
18
17
17
17
17
17
18
19
20
20
21
22
24
25
24
25
25
24
22
21
22
22
23
21
20
20
20
19
18
18
18
18
18
17
17
17
16
15
16
16
16
14
13
13
13
13
12
12
13
12
11
11
10
10
10
10
10
10
9
10
10
10
9
9
8
7
7
7
7
7
6
6
7
7
6
5
5
5
4
4
4
4
4
4
3
3
4
4
3
3
3
3
3
2
2
2
2
3
3
5
6
9
14
19
23
24
26
26
27
29
30
33
36
39
38
38
36
34
31
28
29
28
18
6
1
0
-4
-7
-11
-12
-13
-13
-11
-11
-11
-12
-13
-13
-12
-12
-12
-11
-10
-9
-9
-8
-7
-6
-5
-5
-3
-2
0
0
0
4
11
25
48
81
128
189
261
329
376
408
416
370
251
113
1
-49
-55
-48
-43
-41
-41
-41
-41
-41
-40
-40
-40
-39
-36
-35
-34
-34
-33
-32
-33
-32
-32
-31
-31
-31
-31
-30
-28
-29
-28
-27
-25
-25
-24
-24
-23
-22
-23
-22
-22
-21
-21
-22
-22
-23
-24
-26
-26
-27
-27
-28
-29
-29
-29
-30
-32
-31
-32
-32
-32
-32
-33
-34
-34
-34
-33
-34
-34
-34
-33
-32
-32
-30
-29
-26
-24
-22
-20
-16
-13
-10
-7
-4
0
0
1
4
6
8
14
18
12
4
2
2
3
2
1
0
-1
-1
-1
-2
-3
-3
-4
-4
-5
-6
-5
-5
-5
-4
-2
-2
-2
-2
-2
-2
-3
-3
-2
-2
-2
-2
-1
0
1
2
3
4
3
3
3
4
4
2
1
1
2
2
1
1
1
1
1
0
0
0
0
-1
-2
-1
-1
-2
-3
-3
-2
-2
-3
-2
-1
-1
-1
-2
-1
-2
-2
-2
-1
-1
-2
-2
-1
-1
-1
-1
-1
0
0
0
0
1
1
0
0
1
0
0
0
0
1
1
0
0
0
0
0
1
3
3
3
3
3
4
4
3
3
4
4
3
2
3
3
4
4
3
4
3
2
3
3
3
2
2
2
2
3
5
10
14
7
0
0
0
1
2
2
3
5
8
10
15
18
21
21
22
24
27
28
30
33
35
39
42
46
47
47
44
40
36
30
24
17
12
9
6
4
0
-2
-4
-5
-6
-6
-5
-5
-5
-4
-4
-4
-4
-4
-3
-3
-3
-3
-4
-3
-3
-4
-5
-4
-4
-3
0
8
23
46
80
130
193
270
333
384
417
439
425
341
208
76
-17
-55
-57
-47
-40
-36
-33
-31
-29
-28
-24
-22
-20
-20
-20
-19
-18
-17
-17
-16
-15
-15
-15
-15
-14
-13
-13
-13
-12
-12
-12
-12
-11
-10
-9
-9
-9
-9
-8
-9
-9
-9
-8
-9
-10
-10
-11
-12
-14
-14
-14
-15
-17
-18
-20
-20
-21
-22
-23
-19
-15
-20
-29
-33
-33
-33
-33
-32
-31
-30
-31
-32
-31
-31
-31
-32
-29
-27
-25
-24
-22
-19
-16
-13
-10
-7
-4
-1
0
2
3
3
4
5
6
4
3
2
1
0
-1
-1
-2
-1
-2
-2
-2
-1
-1
-1
-1
0
0
0
-1
0
1
1
0
1
2
3
3
3
3
3
3
3
4
6
7
7
7
8
8
8
7
7
7
8
7
7
7
7
7
6
6
5
4
4
4
4
3
3
2
3
2
1
1
1
1
0
0
-1
0
-1
-1
-1
0
0
-1
-1
-1
-1
-1
-2
-2
-1
-1
-1
-1
-1
-1
-1
-1
-1
-2
-2
-3
-3
-2
-1
-2
-3
-3
-2
-2
-2
-2
-1
1
7
7
0
-5
-6
-5
-4
-4
-5
-5
-4
-4
-4
-4
-4
-4
-3
-4
-4
-4
-3
-5
-6
-5
-4
-3
-4
-3
-2
-1
-2
-2
-2
-1
-1
-2
-2
-1
0
3
6
10
13
15
15
16
19
21
22
25
28
33
36
39
40
38
34
29
25
19
13
6
1
0
-3
-7
-11
-13
-13
-13
-12
-12
-11
-12
-12
-12
-11
-10
-11
-11
-10
-9
-10
-11
-11
-11
-10
-11
-11
-12
-13
-13
-13
-8
3
21
47
87
143
213
280
339
377
407
400
322
195
63
-25
-57
-56
-45
-38
-34
-31
-30
-28
-28
-27
-27
-26
-26
-25
-25
-24
-24
-25
-24
-24
-23
-23
-24
-23
-23
-24
-24
-23
-22
-21
-20
-16
-8
-9
-17
-21
-20
-18
-16
-17
-17
-16
-17
-17
-17
-17
-17
-18
-19
-20
-20
-22
-23
-24
-24
-25
-27
-27
-28
-28
-30
-29
-29
-29
-30
-30
-29
-29
-28
-30
-29
-28
-28
-28
-27
-25
-23
-21
-19
-15
-10
-6
-3
0
2
4
5
6
8
10
10
10
10
10
9
8
7
8
8
7
7
6
6
5
5
5
5
3
3
3
4
4
4
6
6
6
6
6
8
8
8
8
9
10
10
10
11
12
11
11
11
11
11
12
11
11
10
9
8
8
9
9
8
7
6
6
5
4
5
5
5
4
3
4
4
3
3
3
3
1
1
1
2
1
1
2
2
1
1
3
8
14
11
2
0
0
0
1
2
2
2
1
0
0
0
0
1
1
1
1
0
1
2
3
3
3
3
3
2
2
2
3
3
2
2
2
2
2
3
3
3
3
3
2
2
2
3
4
4
4
3
4
4
3
2
2
2
2
1
1
1
3
4
7
11
15
17
18
20
22
23
24
26
28
31
35
38
43
44
44
41
38
34
29
23
17
11
8
4
0
-2
-5
-5
-4
-3
-3
-3
-3
-2
-1
-1
-3
-5
-4
-3
-2
0
2
3
4
5
5
4
4
6
10
19
33
55
85
131
186
259
323
376
412
434
425
342
211
76
-17
-53
-53
-41
-32
-28
-24
-20
-13
-11
-16
-20
-20
-19
-19
-19
-20
-19
-19
-19
-19
-19
-19
-19
-18
-19
-18
-18
-18
-17
-17
-16
-17
-17
-17
-15
-16
-17
-18
-18
-17
-17
-18
-18
-19
-19
-21
-22
-23
-24
-26
-27
-28
-29
-30
-32
-33
-34
-34
-36
-37
-37
-37
-38
-40
-41
-43
-43
-44
-43
-41
-40
-37
-36
-33
-32
-30
-28
-25
-22
-19
-15
-12
-10
-8
-6
-3
-1
0
1
3
3
3
2
2
2
2
2
1
2
2
1
1
1
1
1
2
2
3
3
2
2
2
4
4
4
5
6
8
8
8
10
10
11
10
11
12
11
12
12
13
13
12
12
12
12
11
12
12
13
12
13
13
13
13
18
24
19
12
9
9
10
11
10
10
10
9
8
7
8
8
7
6
6
6
6
5
4
4
3
2
1
2
3
3
3
2
2
2
1
1
1
2
1
0
1
0
0
0
0
1
1
0
0
2
1
0
0
1
1
2
3
3
2
2
2
2
2
2
1
2
3
3
2
2
3
3
2
1
1
1
0
0
1
4
5
3
2
2
2
3
3
4
7
11
14
17
20
23
24
24
27
30
31
33
38
43
45
44
42
39
34
28
23
16
10
6
4
2
-1
-5
-7
-6
-5
-6
-6
-6
-6
-6
-6
-5
-4
-3
-3
-3
-2
-1
0
0
1
2
3
3
5
8
16
21
21
28
50
82
128
189
265
331
378
413
429
400
283
143
20
-45
-58
-48
-40
-35
-33
-29
-26
-24
-23
-22
-21
-20
-20
-19
-18
-18
-19
-19
-19
-18
-19
-19
-18
-17
-16
-16
-15
-14
-13
-13
-13
-13
-12
-12
-13
-14
-14
-13
-13
-12
-13
-12
-11
-12
-12
-13
-13
-14
-16
-18
-19
-19
-21
-22
-23
-24
-26
-26
-25
-25
-26
-27
-26
-27
-28
-29
-30
-30
-31
-30
-30
-29
-29
-28
-26
-24
-22
-20
-18
-14
-10
-7
-5
-2
0
2
3
3
4
6
6
6
5
5
6
5
4
3
3
3
2
1
1
1
1
0
0
0
0
0
0
1
2
2
3
3
4
4
4
5
7
13
19
15
8
7
8
9
10
11
11
11
11
11
10
10
10
11
10
9
9
10
10
9
8
8
8
8
8
8
8
9
8
7
7
7
6
5
5
6
6
6
5
5
5
4
4
3
4
4
4
4
3
3
3
5
5
4
3
3
3
3
2
1
1
1
0
0
0
0
0
-1
-1
0
0
-1
-1
-2
-1
-1
-1
-1
0
0
0
0
0
0
0
0
-2
-2
-1
-1
-1
-1
0
0
0
-1
-1
0
-1
-1
0
0
0
0
0
1
0
0
0
2
6
9
13
15
17
18
20
22
23
25
27
29
33
37
41
42
43
42
41
37
32
27
20
13
6
3
2
0
-2
0
4
-3
-12
-13
-12
-10
-9
-8
-8
-7
-6
-5
-4
-3
-2
-3
-3
-2
-1
0
-1
-1
-1
0
0
3
12
28
49
81
130
195
270
334
381
416
432
401
294
149
30
-43
-63
-56
-45
-39
-36
-33
-29
-25
-23
-21
-20
-20
-20
-19
-19
-17
-17
-17
-17
-16
-14
-14
-14
-15
-15
-15
-15
-15
-15
-14
-14
-13
-12
-11
-12
-13
-12
-12
-11
-12
-11
-11
-11
-12
-13
-14
-15
-16
-18
-19
-20
-21
-22
-23
-23
-24
-25
-25
-25
-25
-27
-28
-29
-29
-31
-32
-33
-33
-32
-32
-33
-34
-33
-33
-33
-32
-30
-28
-26
-25
-22
-19
-16
-13
-10
-7
-4
-2
-1
1
3
5
6
5
6
5
5
5
7
13
15
8
0
0
1
0
0
1
1
1
1
1
2
1
2
3
5
5
5
7
10
11
9
9
9
10
10
10
11
12
13
13
13
14
15
14
14
14
14
14
13
12
12
12
11
9
10
10
10
9
9
9
9
8
7
7
7
6
6
6
6
5
4
4
5
4
4
5
4
4
4
3
4
4
4
4
4
3
3
3
3
4
3
3
2
3
4
3
2
2
3
3
3
3
3
3
2
2
2
3
3
3
3
4
3
3
3
3
3
3
2
3
3
2
2
3
3
2
2
3
3
2
3
3
3
3
3
2
2
2
1
2
2
4
5
7
10
16
20
27
31
26
22
22
25
27
29
31
35
39
42
44
42
39
34
30
25
17
11
6
2
0
-2
-6
-10
-11
-12
-11
-10
-10
-9
-10
-10
-11
-11
-10
-8
-8
-7
-7
-6
-6
-6
-7
-7
-6
-6
-7
-5
-2
5
19
42
74
125
185
255
317
363
400
417
397
303
165
43
-34
-59
-55
-44
-37
-34
-31
-30
-28
-27
-25
-25
-25
-24
-24
-24
-25
-25
-24
-24
-24
-24
-22
-21
-21
-22
-21
-21
-21
-21
-20
-19
-19
-20
-20
-19
-19
-19
-18
-18
-19
-21
-22
-24
-25
-27
-29
-30
-31
-30
-31
-31
-31
-32
-34
-36
-36
-36
-37
-39
-41
-42
-43
-44
-46
-46
-48
-50
-52
-51
-49
-48
-42
-37
-40
-45
-44
-40
-35
-33
-31
-27
-24
-22
-20
-18
-17
-15
-15
-14
-12
-12
-12
-13
-12
-12
-13
-14
-16
-16
-17
-17
-18
-17
-17
-18
-18
-18
-17
-17
-16
-16
-15
-13
-13
-12
-11
-9
-9
-9
-9
-8
-8
-8
-7
-6
-6
-6
-6
-5
-4
-4
-4
-3
-2
-3
-4
-5
-5
-5
-6
-7
-6
-6
-7
-7
-7
-7
-8
-9
-9
-9
-9
-9
-10
-11
-11
-12
-12
-13
-11
-11
-11
-12
-13
-12
-13
-13
-12
-11
-12
-12
-11
-11
-11
-11
-10
-10
-10
-10
-11
-10
-9
-9
-9
-8
-8
-9
-10
-10
-10
-11
-10
-10
-10
-11
-12
-12
-11
-12
-13
-12
-11
-11
-12
-12
-12
-11
-11
-11
-11
-8
-1
0
-9
-15
-15
-14
-14
-13
-11
-10
-10
-10
-9
-9
-10
-10
-9
-7
-6
-4
-1
3
6
9
11
14
14
15
17
20
22
26
32
35
36
33
31
27
21
15
9
4
0
-2
-3
-5
-8
-12
-12
-11
-10
-9
-9
-9
-9
-9
-9
-9
-8
-6
-6
-6
-5
-5
-3
-3
-3
-2
0
0
1
3
7
13
26
48
78
125
184
261
327
375
408
414
372
250
111
3
-50
-58
-48
-39
-33
-30
-27
-26
-23
-21
-19
-18
-17
-16
-15
-15
-16
-14
-13
-13
-13
-11
-9
-9
-9
-10
-9
-8
-8
-9
-8
-6
-6
-5
-4
-2
-1
-1
0
0
2
1
0
0
0
-2
-4
-4
-3
0
4
1
-8
-12
-13
-13
-13
-13
-14
-14
-15
-16
-17
-17
-18
-18
-18
-18
-18
-17
-18
-19
-19
-19
-17
-16
-14
-11
-7
-2
0
4
7
11
14
17
19
22
25
26
27
29
31
31
31
31
31
30
29
29
30
29
28
27
27
28
28
28
29
30
32
32
33
34
35
35
37
37
38
40
42
44
44
44
43
44
45
45
46
46
48
47
47
47
48
49
48
48
48
49
48
46
46
46
48
47
48
47
47
45
44
44
45
45
44
44
42
42
41
41
42
42
41
40
41
41
41
40
40
39
38
39
39
39
39
40
39
40
40
40
39
39
40
39
39
39
40
40
41
47
52
48
38
35
37
39
40
39
39
39
39
38
38
38
38
38
36
36
37
37
36
36
37
36
37
36
38
38
38
39
39
40
39
39
38
38
37
36
37
37
37
36
38
40
44
46
49
52
52
53
54
57
59
62
64
67
72
75
78
78
78
75
70
63
56
50
43
38
35
33
31
27
24
24
25
25
25
25
24
24
24
26
26
26
26
27
29
30
30
30
31
31
31
32
34
34
36
44
58
80
107
151
208
285
354
401
441
463
473
415
292
149
34
-25
-38
-32
-22
-16
-12
-10
-8
-5
-3
-2
-1
0
0
0
0
0
0
-1
-2
-1
0
0
1
3
9
14
8
1
1
2
2
2
2
2
1
1
1
1
0
0
-1
-1
-2
-4
-6
-7
-7
-7
-9
-9
-11
-12
-13
-15
-15
-17
-18
-20
-22
-22
-24
-25
-27
-27
-27
-28
-29
-31
-32
-33
-34
-35
-34
-33
-33
-31
-29
-26
-24
-20
-17
-13
-10
-7
-4
-1
0
2
5
7
8
7
8
9
9
8
8
8
8
7
5
4
4
3
2
2
3
4
3
2
3
4
4
5
5
6
8
9
9
10
11
12
12
13
14
15
16
15
16
18
18
18
18
19
18
17
17
16
15
14
14
14
14
12
12
12
11
11
11
11
10
9
8
9
9
8
7
7
6
5
4
4
5
6
10
15
11
2
0
0
0
0
0
0
0
0
0
0
-1
-2
-2
-2
-4
-5
-6
-5
-6
-6
-6
-5
-6
-6
-7
-6
-6
-7
-7
-6
-6
-7
-7
-6
-5
-6
-5
-4
-3
-4
-4
-3
-2
-2
-4
-5
-5
-4
-5
-4
-3
-3
-3
-3
-1
0
0
-2
-3
-3
-2
-1
-2
-1
0
3
6
10
13
17
19
20
21
23
25
26
28
32
36
39
40
39
37
33
27
22
17
11
6
4
3
0
-4
-7
-7
-7
-7
-7
-7
-7
-6
-6
-5
-4
-4
-4
-3
-3
-1
-1
-1
0
0
2
0
0
1
2
3
6
14
30
50
80
124
186
262
329
385
420
446
421
322
177
45
-31
-53
-43
-27
-25
-27
-25
-22
-19
-18
-17
-16
-15
-15
-14
-14
-14
-14
-15
-14
-12
-11
-10
-9
-7
-6
-6
-6
-6
-4
-3
-4
-5
-4
-4
-4
-5
-5
-5
-4
-5
-4
-3
-3
-3
-5
-5
-6
-7
-9
-12
-13
-13
-14
-16
-17
-18
-19
-20
-22
-22
-23
-24
-24
-25
-26
-27
-27
-28
-29
-30
-31
-30
-30
-29
-29
-26
-23
-20
-18
-15
-10
-6
-3
0
2
5
7
9
10
13
15
16
17
18
19
20
19
18
18
18
17
17
16
16
16
14
15
16
17
17
16
18
19
19
19
20
21
23
23
23
24
25
26
26
28
29
30
31
32
32
32
32
32
33
33
32
31
32
32
32
33
36
44
45
36
29
28
29
28
28
29
30
29
29
29
29
29
27
24
23
23
24
24
25
25
25
24
23
23
23
23
21
22
23
24
23
23
24
24
24
23
24
24
23
24
24
25
25
24
24
25
23
23
23
24
25
24
24
23
23
22
23
22
22
20
19
19
20
21
20
20
20
20
20
19
20
20
21
20
20
21
22
22
22
23
23
23
22
22
23
23
23
23
24
26
28
31
35
40
41
41
42
44
46
48
51
54
60
64
67
67
67
65
61
57
50
44
35
30
27
25
21
16
13
11
11
11
11
11
10
9
9
9
10
11
10
11
11
12
11
12
14
18
25
25
17
13
14
17
24
39
63
97
146
213
296
369
423
464
485
462
366
209
76
-10
-39
-36
-25
-19
-16
-14
-11
-10
-8
-8
-7
-7
-7
-8
-8
-6
-6
-8
-8
-8
-7
-7
-7
-7
-6
-6
-6
-6
-5
-5
-5
-5
-5
-5
-5
-6
-6
-7
-8
-9
-9
-9
-10
-11
-11
-12
-14
-15
-16
-17
-20
-23
-24
-26
-27
-30
-31
-31
-33
-35
-37
-38
-40
-42
-44
-46
-46
-47
-48
-50
-49
-48
-48
-48
-47
-46
-45
-43
-42
-39
-36
-33
-30
-28
-25
-22
-19
-17
-14
-12
-10
-9
-7
-6
-6
-7
-7
-6
-6
-7
-7
-7
-7
-7
-7
-6
-5
-5
-4
-3
-1
0
0
2
2
4
10
18
17
11
8
8
9
10
10
10
11
12
11
11
11
12
12
12
11
12
12
11
9
8
8
8
7
6
6
5
4
4
4
5
3
2
2
1
0
-1
0
0
0
-1
-1
-1
-1
-1
-1
-1
-1
-1
-1
-1
-1
-2
-2
-2
-2
-1
-1
-1
-1
-1
-1
-2
-1
-1
-1
-2
-2
-1
-1
-2
-2
-2
-2
-2
-3
-2
-2
-2
-3
-3
-2
-2
-3
-3
-3
-3
-4
-4
-4
-4
-5
-4
-3
-2
-3
-3
-2
-1
0
3
7
12
15
17
20
21
22
23
26
28
31
34
37
39
38
37
34
32
28
22
16
8
3
-1
-5
-8
-12
-16
-20
-21
-20
-18
-17
-17
-15
-10
-3
-8
-15
-17
-16
-15
-15
-14
-13
-12
-11
-9
-6
-4
-1
2
7
15
29
51
82
124
184
261
336
394
431
458
460
401
270
125
9
-48
-61
-55
-47
-44
-44
-43
-43
-42
-40
-40
-40
-40
-39
-39
-39
-39
-38
-38
-39
-39
-38
-37
-36
-36
-36
-36
-36
-35
-34
-33
-32
-32
-31
-31
-32
-32
-33
-32
-32
-33
-33
-33
-34
-36
-38
-40
-41
-44
-46
-48
-47
-48
-50
-51
-52
-52
-54
-55
-57
-58
-59
-60
-61
-62
-62
-64
-65
-65
-65
-65
-65
-64
-63
-61
-60
-58
-55
-52
-48
-44
-39
-37
-34
-28
-23
-21
-20
-18
-16
-15
-15
-13
-13
-12
-13
-13
-13
-14
-14
-13
-12
-10
-5
-1
-6
-12
-14
-12
-12
-11
-10
-10
-10
-10
-8
-8
-8
-7
-5
-4
-4
-3
-2
0
0
0
0
0
0
0
0
0
0
0
-1
0
0
-2
-2
-2
-2
-4
-5
-5
-6
-6
-6
-7
-6
-7
-7
-7
-7
-8
-8
-8
-8
-8
-8
-10
-10
-10
-9
-10
-10
-9
-8
-8
-8
-9
-9
-10
-11
-11
-11
-11
-11
-11
-11
-11
-10
-10
-9
-9
-10
-11
-10
-9
-10
-10
-10
-9
-9
-9
-9
-8
-9
-9
-9
-9
-8
-8
-8
-8
-8
-8
-8
-7
-5
-3
-2
1
6
11
14
16
19
20
20
21
24
27
32
35
39
42
42
41
39
37
32
26
19
13
9
6
2
-1
-6
-7
-5
0
0
-7
-13
-13
-12
-11
-10
-10
-10
-10
-10
-9
-8
-7
-7
-7
-7
-5
-3
-1
0
3
7
14
27
49
81
124
184
263
345
408
451
482
493
451
337
181
53
-20
-43
-40
-31
-25
-23
-23
-24
-24
-24
-24
-26
-28
-28
-28
-28
-30
-30
-30
-29
-29
-29
-27
-26
-25
-25
-24
-24
-23
-23
-23
-21
-21
-20
-21
-20
-20
-21
-20
-20
-20
-21
-21
-21
-22
-24
-26
-27
-28
-29
-32
-33
-35
-34
-35
-38
-41
-43
-45
-47
-48
-49
-51
-52
-53
-52
-52
-51
-52
-52
-52
-52
-52
-52
-49
-48
-47
-45
-42
-40
-38
-35
-32
-28
-26
-23
-19
-14
-11
-9
-7
-5
-4
-3
-3
-3
-3
-4
-4
-2
5
10
4
-3
-3
-1
0
1
2
4
5
5
6
8
9
8
9
9
11
12
12
13
15
16
16
16
17
18
19
19
19
20
21
20
20
21
22
21
20
19
19
19
18
18
18
18
17
16
16
16
14
13
13
13
12
12
11
10
9
7
6
7
8
7
7
7
7
6
5
5
5
5
5
4
3
4
4
3
3
4
5
5
4
4
4
4
3
3
3
3
2
1
1
2
1
1
1
1
1
0
0
0
0
0
-1
0
1
1
1
0
0
0
-1
-1
0
1
3
6
9
14
17
20
22
24
24
24
25
27
31
33
37
38
39
38
37
35
31
27
21
15
9
7
10
9
-2
-13
-16
-16
-16
-15
-14
-14
-14
-13
-13
-14
-14
-13
-12
-12
-12
-11
-10
-9
-9
-9
-7
-5
-5
-4
-3
0
3
12
27
50
80
122
180
251
328
386
428
458
470
435
328
176
45
-41
-71
-71
-61
-54
-50
-47
-46
-44
-43
-41
-40
-39
-37
-36
-36
-36
-35
-33
-33
-34
-33
-32
-32
-32
-31
-29
-29
-30
-30
-29
-28
-28
-27
-26
-24
-25
-24
-24
-23
-22
-24
-25
-27
-28
-30
-31
-33
-33
-33
-35
-37
-38
-39
-40
-43
-45
-47
-47
-49
-50
-52
-52
-53
-54
-55
-55
-55
-58
-59
-59
-59
-60
-60
-59
-59
-56
-55
-51
-48
-45
-42
-38
-33
-30
-26
-24
-20
-17
-14
-14
-12
-8
-6
-4
3
8
0
-8
-10
-9
-7
-6
-7
-7
-8
-8
-9
-10
-10
-10
-10
-11
-12
-11
-9
-9
-7
-6
-3
-1
0
0
0
2
2
3
4
5
5
6
8
9
9
9
9
10
10
9
9
9
9
8
8
8
8
8
7
8
8
8
7
6
7
7
6
6
6
5
4
4
4
4
4
4
2
2
2
3
2
2
3
3
2
2
3
3
1
1
1
2
2
1
1
2
2
2
2
3
2
2
2
2
2
1
1
2
2
2
2
2
2
1
1
2
3
4
4
4
4
5
5
4
5
6
6
6
5
6
7
7
6
7
8
7
7
6
7
7
6
6
7
8
8
9
14
21
18
12
14
20
25
27
29
30
32
32
35
38
41
45
48
51
50
49
47
45
41
35
28
22
19
16
13
9
6
3
0
0
1
2
1
0
0
2
3
4
4
5
6
6
5
5
6
7
7
8
8
8
8
7
8
12
24
43
74
118
180
260
334
397
434
463
447
364
222
81
-12
-50
-52
-41
-33
-27
-24
-21
-20
-17
-14
-13
-13
-12
-11
-10
-10
-11
-10
-9
-9
-9
-9
-8
-8
-8
-7
-6
-4
-3
-3
-2
-1
-2
-2
-3
-2
-2
-2
-2
-2
-2
-3
-4
-4
-5
-6
-8
-10
-11
-13
-15
-16
-17
-20
-21
-23
-23
-24
-26
-27
-28
-29
-32
-33
-33
-30
-25
-27
-36
-42
-41
-42
-40
-38
-37
-35
-34
-31
-29
-26
-26
-23
-20
-16
-13
-10
-7
-4
-3
-2
-1
1
2
2
3
4
3
2
1
0
0
-2
-4
-4
-4
-4
-3
-2
0
0
1
2
4
5
5
6
7
7
7
7
9
10
10
10
11
10
10
10
10
11
11
12
11
12
12
11
11
11
11
11
11
10
10
9
8
6
6
6
5
4
4
4
4
3
3
2
1
0
0
0
0
0
-1
0
-1
-1
-1
0
0
0
0
0
0
0
0
0
1
0
0
0
0
0
0
-1
-1
-1
-2
-2
-1
0
0
-1
-1
-2
-2
-2
-3
-3
-3
-2
-4
-5
-4
-3
0
5
3
-4
-8
-7
-6
-5
-6
-7
-6
-6
-6
-7
-6
-7
-7
-8
-7
-6
-7
-8
-9
-8
-9
-9
-10
-9
-9
-8
-7
-5
-3
0
3
6
8
11
12
13
16
18
21
22
25
29
33
37
38
38
36
33
27
22
17
12
6
1
0
0
-4
-9
-12
-13
-13
-13
-12
-12
-12
-12
-13
-12
-12
-12
-11
-11
-10
-10
-10
-9
-8
-8
-8
-7
-6
-5
-1
6
21
42
75
121
188
261
330
380
415
445
435
372
235
95
-7
-60
-68
-56
-46
-40
-38
-35
-33
-31
-28
-26
-24
-23
-22
-22
-22
-22
-23
-23
-22
-21
-21
-20
-19
-19
-19
-18
-18
-17
-16
-16
-15
-13
-12
-11
-8
0
2
-6
-12
-13
-12
-13
-15
-15
-15
-16
-17
-18
-19
-20
-21
-23
-24
-25
-27
-28
-30
-31
-32
-33
-34
-36
-36
-37
-36
-36
-36
-36
-37
-37
-37
-36
-34
-33
-30
-28
-25
-23
-20
-18
-15
-11
-8
-4
-2
0
2
5
6
7
7
8
8
7
5
5
6
7
7
7
7
7
6
7
9
10
10
11
11
12
12
12
13
14
15
15
16
16
17
17
18
18
20
21
20
21
21
23
22
22
23
24
25
23
23
23
22
21
22
24
23
22
21
21
20
20
20
20
20
19
18
17
17
17
16
17
18
18
17
17
16
16
16
16
17
17
16
16
16
17
17
16
16
16
19
26
28
21
15
15
16
17
19
19
18
18
19
20
19
18
17
17
16
16
16
17
16
17
17
18
18
18
18
18
19
19
19
19
19
20
20
20
20
20
20
19
20
20
21
20
19
19
19
19
19
20
21
22
21
20
20
20
21
23
28
32
35
36
38
40
41
43
45
49
52
56
61
65
67
65
62
58
54
48
41
34
29
26
23
19
16
12
10
10
12
13
12
11
11
12
12
11
11
12
13
13
12
12
13
13
14
14
15
15
14
13
15
19
28
44
70
107
160
230
306
372
414
449
457
419
304
151
32
-36
-54
-46
-36
-30
-25
-23
-20
-17
-13
-10
-7
0
3
-3
-10
-10
-9
-7
-7
-8
-8
-8
-7
-7
-8
-8
-6
-5
-5
-5
-5
-4
-4
-4
-3
-2
-2
-2
-3
-3
-4
-5
-6
-6
-7
-9
-11
-12
-13
-15
-17
-19
-21
-23
-25
-27
-28
-29
-29
-31
-31
-31
-31
-32
-33
-33
-34
-35
-37
-37
-38
-40
-40
-40
-39
-38
-37
-34
-31
-27
-24
-20
-16
-12
-11
-9
-6
-2
0
0
1
2
4
5
4
4
5
5
4
5
5
4
4
3
4
5
4
4
5
8
9
9
9
10
11
10
11
12
13
12
11
12
13
14
15
15
16
16
16
16
18
18
18
17
17
18
17
16
16
17
17
17
15
14
14
13
12
11
12
12
11
13
19
21
12
4
4
5
5
4
3
4
4
3
2
2
2
0
-1
0
-1
-1
-2
-2
-2
-2
-3
-4
-4
-3
-3
-5
-5
-5
-5
-5
-6
-6
-6
-6
-7
-6
-4
-5
-5
-6
-6
-5
-6
-6
-6
-5
-6
-7
-6
-6
-7
-8
-8
-7
-7
-8
-9
-9
-8
-8
-9
-8
-8
-8
-8
-8
-7
-8
-9
-10
-9
-9
-9
-9
-8
-6
-7
-7
-7
-5
-3
0
3
6
8
10
10
12
15
16
17
19
23
28
31
33
32
31
27
23
18
13
6
0
-5
-7
-9
-13
-18
-20
-20
-19
-19
-18
-17
-16
-16
-16
-15
-15
-15
-14
-13
-12
-12
-11
-11
-10
-12
-13
-13
-12
-12
-12
-9
0
19
47
77
115
175
246
311
357
391
415
402
317
182
52
-39
-75
-74
-63
-53
-49
-47
-44
-42
-40
-39
-38
-37
-36
-36
-36
-34
-34
-34
-35
-35
-35
-36
-36
-36
-35
-35
-34
-34
-33
-32
-32
-32
-31
-30
-30
-30
-30
-29
-28
-29
-29
-30
-29
-31
-33
-34
-35
-36
-39
-41
-43
-43
-45
-45
-44
-45
-45
-45
-45
-45
-45
-46
-47
-48
-49
-49
-51
-52
-52
-53
-54
-56
-55
-53
-52
-52
-50
-48
-47
-44
-41
-37
-34
-31
-28
-25
-22
-20
-18
-16
-14
-13
-12
-11
-9
-9
-10
-10
-11
-10
-11
-12
-12
-12
-13
-14
-13
-13
-12
-12
-12
-12
-10
-9
-8
-7
-6
-4
-5
-5
-4
-3
-2
-1
0
1
2
7
11
5
-1
-2
-1
1
2
2
1
0
0
0
-1
-1
-1
-1
-2
-2
-2
-2
-2
-3
-3
-2
-2
-2
-1
-1
-2
-3
-4
-4
-4
-5
-6
-6
-6
-5
-6
-7
-7
-7
-9
-9
-9
-9
-8
-9
-9
-10
-10
-11
-10
-9
-9
-9
-10
-9
-9
-10
-10
-9
-8
-9
-9
-9
-9
-9
-10
-10
-10
-9
-9
-9
-8
-9
-10
-11
-9
-8
-8
-9
-9
-9
-9
-10
-10
-10
-10
-10
-10
-10
-10
-11
-12
-13
-12
-12
-13
-14
-14
-13
-13
-13
-12
-12
-11
-9
-6
-1
1
2
3
5
7
9
11
14
18
22
25
28
29
29
25
22
15
8
1
-3
-6
-7
-10
-14
-17
-19
-19
-18
-13
-6
-10
-19
-22
-20
-19
-19
-19
-18
-17
-15
-16
-16
-15
-15
-14
-14
-14
-12
-11
-11
-10
-8
0
14
36
71
124
191
271
336
388
421
423
358
218
74
-25
-65
-64
-53
-44
-39
-35
-34
-33
-32
-30
-29
-29
-29
-29
-28
-29
-29
-28
-28
-27
-28
-28
-27
-27
-26
-27
-25
-24
-23
-24
-25
-25
-24
-23
-24
-25
-25
-24
-25
-25
-23
-22
-22
-24
-25
-26
-27
-28
-30
-31
-32
-33
-34
-35
-36
-39
-41
-42
-43
-45
-46
-48
-49
-51
-53
-53
-55
-56
-56
-56
-56
-55
-55
-56
-54
-53
-51
-50
-48
-46
-43
-42
-40
-36
-33
-30
-28
-25
-22
-19
-17
-16
-13
-12
-11
-11
-10
-11
-11
-11
-9
-3
2
-1
-9
-11
-11
-9
-8
-7
-6
-6
-5
-4
-2
-1
0
1
1
2
3
4
4
3
4
5
6
5
6
6
7
7
7
6
7
7
7
6
6
6
6
6
5
5
5
5
5
5
6
5
4
5
5
5
4
5
4
4
3
4
4
4
3
4
4
4
2
1
1
1
1
1
1
2
1
0
1
1
2
1
1
2
1
1
1
2
2
1
0
1
1
1
0
1
1
0
0
0
-1
0
-1
-1
-1
-1
-1
-1
-1
0
0
-1
-1
0
0
0
-1
-1
0
0
-1
-1
-1
-1
-1
0
0
0
0
0
0
2
3
5
10
13
16
18
20
23
28
36
36
31
29
32
35
41
43
43
41
37
33
27
22
17
12
8
5
3
1
-2
-5
-8
-8
-7
-7
-6
-6
-5
-4
-4
-4
-3
-2
-1
-1
-1
-1
-1
-1
0
1
2
3
5
9
16
30
51
82
127
184
260
324
376
407
422
394
291
156
36
-35
-53
-46
-37
-30
-26
-24
-23
-20
-18
-16
-16
-16
-15
-14
-13
-14
-14
-14
-13
-14
-13
-13
-12
-12
-12
-11
-11
-11
-11
-10
-8
-7
-6
-5
-4
-3
-2
-3
-2
-3
-3
-5
-6
-8
-10
-11
-12
-13
-13
-14
-14
-15
-17
-18
-19
-20
-21
-23
-24
-24
-25
-26
-26
-26
-27
-29
-29
-29
-29
-30
-29
-28
-27
-25
-24
-19
-10
-5
-12
-17
-14
-9
-6
-3
0
2
5
5
6
7
9
10
10
11
11
12
11
12
12
12
12
12
12
13
12
12
13
14
14
15
16
16
16
18
19
21
20
20
21
22
22
21
22
23
24
25
25
25
26
27
26
26
26
25
24
23
23
24
23
22
22
21
22
21
21
21
20
20
18
18
17
16
16
17
17
16
15
16
16
16
15
16
16
16
16
16
17
17
16
17
16
15
15
14
14
14
14
13
13
13
13
12
12
13
13
13
12
12
13
14
13
12
13
13
13
13
13
14
14
13
12
13
13
12
11
11
11
10
9
9
10
10
10
13
18
22
15
8
8
9
9
8
9
8
8
8
9
10
10
9
10
12
15
18
19
22
24
25
26
27
30
32
35
37
40
44
47
49
49
48
44
40
34
29
24
18
13
10
8
5
0
-2
-2
-1
0
0
0
0
0
0
1
3
3
3
4
5
5
5
5
6
6
7
8
9
11
11
15
26
44
66
99
143
208
275
338
384
418
446
428
351
211
80
-9
-50
-54
-43
-35
-29
-27
-25
-23
-21
-20
-18
-15
-14
-13
-14
-12
-12
-11
-12
-11
-9
-7
-6
-6
-5
-5
-6
-6
-4
-3
-2
-2
-1
0
0
1
1
2
2
1
1
2
1
-1
-3
-4
-5
-6
-8
-10
-10
-9
-6
-1
-3
-12
-18
-20
-21
-20
-21
-22
-24
-25
-25
-26
-27
-28
-28
-30
-30
-31
-30
-30
-29
-29
-27
-26
-24
-21
-18
-15
-12
-8
-4
0
2
4
6
8
11
12
13
13
14
13
14
14
15
15
16
15
15
15
15
14
13
14
15
15
16
17
19
19
19
21
22
23
23
24
25
26
26
26
27
28
29
28
29
29
30
30
29
29
30
30
28
29
28
28
28
28
29
29
29
27
28
28
28
27
27
26
26
25
24
25
25
24
22
22
22
22
22
21
22
22
22
21
21
21
21
20
20
21
21
20
19
19
20
20
20
20
21
20
20
20
20
20
20
20
20
20
20
20
25
31
30
20
15
16
17
18
17
18
18
18
18
17
17
17
17
15
16
16
17
15
15
16
17
16
15
15
15
15
15
14
15
14
13
13
14
15
14
14
14
15
16
17
20
24
27
28
30
31
32
34
36
37
41
44
48
52
56
58
56
53
48
44
39
33
27
22
19
17
14
10
7
5
5
6
6
6
5
5
6
7
7
6
6
6
5
5
5
6
6
6
5
4
4
3
2
1
5
15
31
55
92
142
211
284
351
399
434
456
430
346
200
71
-14
-48
-47
-36
-30
-26
-24
-21
-21
-20
-19
-19
-19
-20
-20
-19
-19
-18
-17
-14
-13
-14
-15
-15
-14
-14
-13
-11
-5
0
-5
-13
-14
-12
-12
-12
-11
-12
-13
-14
-14
-14
-15
-16
-16
-17
-16
-17
-17
-19
-19
-21
-24
-25
-26
-27
-29
-30
-31
-32
-34
-37
-37
-39
-39
-42
-42
-43
-43
-44
-45
-43
-43
-43
-44
-43
-41
-40
-38
-36
-32
-31
-28
-25
-21
-18
-17
-14
-12
-9
-8
-7
-5
-4
-3
-2
-2
-2
-2
-3
-5
-6
-4
-4
-5
-6
-5
-4
-4
-4
-4
-4
-3
-3
-3
-2
-1
-1
0
2
3
3
4
5
6
8
7
8
8
9
9
9
10
9
8
8
8
8
7
6
6
6
6
5
5
5
4
2
2
3
2
2
1
1
0
0
-1
-1
-1
-1
-2
-2
-1
-1
-2
-3
-2
0
2
6
2
-5
-7
-6
-6
-5
-5
-5
-6
-6
-5
-6
-7
-7
-6
-7
-6
-6
-5
-6
-7
-7
-7
-7
-8
-8
-7
-8
-8
-9
-9
-9
-9
-9
-10
-8
-8
-8
-9
-8
-8
-9
-9
-9
-8
-8
-9
-9
-9
-9
-9
-8
-7
-7
-8
-9
-9
-8
-8
-9
-9
-8
-6
-4
0
4
6
8
9
11
13
14
17
19
23
28
31
33
35
34
31
27
23
17
11
5
1
-1
-3
-6
-10
-14
-17
-18
-18
-18
-18
-19
-19
-18
-18
-18
-19
-18
-18
-17
-18
-16
-15
-15
-15
-14
-13
-12
-11
-8
-3
7
22
44
78
126
188
255
316
362
393
409
369
267
130
14
-49
-64
-56
-44
-36
-26
-23
-30
-34
-33
-31
-31
-31
-31
-31
-31
-31
-32
-31
-29
-28
-27
-25
-24
-24
-24
-23
-22
-20
-20
-20
-20
-19
-19
-20
-19
-19
-20
-20
-19
-18
-17
-17
-18
-18
-18
-19
-21
-22
-23
-25
-25
-26
-27
-30
-31
-33
-33
-32
-35
-36
-37
-37
-39
-40
-40
-39
-40
-41
-41
-41
-40
-40
-39
-37
-35
-34
-33
-30
-28
-24
-21
-17
-13
-11
-9
-7
-4
-2
0
1
3
4
3
3
2
3
3
3
3
4
4
3
3
4
5
6
7
7
9
10
11
12
13
14
14
14
15
16
17
18
20
21
22
22
23
23
23
22
24
25
25
25
25
27
27
26
25
26
27
27
26
29
37
37
27
21
21
22
22
22
22
21
20
20
20
21
21
21
21
21
21
19
19
19
20
20
18
19
19
19
18
17
18
18
19
19
20
20
19
19
19
19
19
19
18
18
17
16
17
18
18
17
17
18
19
20
20
21
21
20
18
18
20
20
18
17
17
17
17
17
19
19
19
18
16
16
16
16
16
17
16
16
15
16
17
17
18
19
20
20
20
23
28
33
35
36
37
38
40
42
45
47
51
55
60
62
61
59
55
53
48
43
37
32
29
26
22
18
15
14
14
14
15
16
15
15
15
15
15
15
16
17
18
18
19
19
20
20
21
22
24
28
34
32
28
36
55
85
127
185
261
340
403
446
475
466
393
243
97
-2
-45
-47
-37
-30
-22
-17
-14
-12
-11
-9
-8
-8
-8
-7
-6
-5
-4
-3
-2
-1
-1
-1
0
0
0
0
1
1
2
2
2
3
2
1
0
-1
-1
-2
-2
-2
-2
-2
-2
-2
-3
-3
-6
-7
-8
-9
-11
-13
-14
-15
-16
-18
-19
-21
-23
-26
-28
-28
-30
-31
-32
-32
-33
-35
-36
-38
-38
-38
-39
-39
-38
-37
-36
-35
-34
-31
-29
-26
-23
-19
-15
-12
-9
-6
-2
0
2
4
7
8
9
10
10
11
9
8
9
10
10
10
11
11
11
11
12
12
14
14
16
18
19
19
20
22
23
25
31
39
36
26
23
24
27
28
29
28
29
30
30
31
31
31
31
30
29
29
29
28
27
27
26
25
24
23
24
24
23
22
22
22
22
21
21
21
20
19
19
19
19
18
17
17
17
17
16
17
17
16
17
17
17
16
15
15
15
16
14
14
14
14
12
12
12
13
13
11
10
10
11
10
10
10
10
9
9
9
9
10
10
9
9
9
9
8
8
8
8
8
7
7
7
6
5
6
6
6
5
5
4
4
3
3
4
4
3
4
4
4
4
6
10
15
18
18
20
21
22
22
24
26
28
29
31
35
39
42
41
38
35
31
27
21
15
8
4
2
1
4
8
4
-7
-12
-10
-10
-10
-10
-8
-8
-8
-8
-7
-8
-8
-7
-6
-5
-5
-4
-3
-3
-4
-4
-2
0
7
20
42
74
121
180
250
317
362
395
415
405
335
208
78
-15
-58
-61
-52
-45
-41
-39
-38
-36
-34
-30
-28
-27
-25
-23
-21
-21
-20
-20
-19
-18
-18
-18
-18
-17
-18
-17
-17
-16
-15
-16
-15
-15
-15
-16
-15
-15
-16
-16
-15
-12
-11
-12
-13
-14
-15
-17
-18
-18
-18
-19
-20
-20
-22
-23
-24
-25
-25
-26
-28
-30
-29
-29
-30
-32
-33
-33
-32
-33
-34
-34
-33
-32
-33
-32
-31
-29
-27
-27
-25
-21
-18
-16
-13
-9
-5
-4
0
3
5
7
7
8
9
10
11
13
17
23
22
13
9
9
9
9
9
8
8
9
9
10
9
8
9
10
10
10
10
11
12
12
11
11
12
12
12
11
12
12
12
12
13
14
14
13
12
12
14
14
13
13
13
14
14
15
14
13
12
12
13
11
10
10
10
9
8
7
8
9
10
11
10
8
7
8
9
10
10
8
8
9
9
8
8
8
8
9
8
7
7
8
7
6
6
7
7
7
8
9
10
9
6
5
6
7
6
7
7
8
7
8
8
9
9
8
8
10
10
8
9
10
10
8
7
8
9
8
8
8
8
7
8
9
10
9
7
7
7
7
6
7
8
9
9
9
9
11
15
19
27
35
34
25
21
23
25
29
31
32
34
39
45
50
52
50
48
44
40
35
29
22
16
12
10
8
4
0
0
0
0
1
2
2
2
2
2
4
4
4
5
5
5
4
4
4
3
3
3
3
2
1
0
7
21
44
73
120
181
263
335
392
434
464
484
447
342
186
50
-31
-58
-54
-41
-33
-28
-25
-21
-19
-17
-16
-15
-14
-15
-15
-15
-14
-13
-13
-13
-14
-14
-14
-13
-13
-13
-14
-14
-13
-14
-14
-14
-12
-12
-11
-11
-10
-10
-11
-12
-13
-12
-13
-15
-16
-16
-17
-19
-20
-21
-23
-25
-27
-28
-30
-32
-34
-36
-37
-38
-40
-42
-44
-46
-46
-49
-50
-52
-52
-52
-51
-45
-41
-46
-54
-53
-50
-47
-45
-41
-36
-34
-31
-28
-23
-20
-17
-14
-11
-10
-9
-7
-6
-5
-5
-5
-5
-5
-5
-6
-6
-6
-6
-6
-6
-5
-5
-5
-5
-5
-3
-3
-2
-1
-1
0
0
0
1
3
4
4
5
6
7
7
8
9
11
11
10
10
11
11
11
11
13
12
11
10
10
9
9
9
8
8
7
6
5
6
5
3
2
3
3
3
3
3
3
2
1
2
2
2
0
0
0
0
-1
-2
-2
-1
-1
-1
-1
-2
-2
-2
-2
-1
0
-1
-2
-2
-2
-2
-3
-3
-2
-2
-2
-2
-1
-2
-2
-2
-2
-2
-3
-3
-3
-2
-2
-3
-4
-3
-3
-3
-2
-1
2
9
8
-1
-6
-6
-6
-6
-5
-5
-6
-6
-5
-5
-5
-6
-6
-6
-7
-7
-7
-5
-2
0
3
7
10
12
13
14
16
18
20
22
25
28
31
33
34
32
27
22
17
12
5
0
-4
-5
-8
-12
-15
-17
-18
-18
-17
-17
-16
-16
-16
-15
-14
-15
-16
-15
-14
-15
-16
-15
-14
-14
-13
-13
-13
-12
-12
-12
-10
-2
11
31
63
109
174
245
312
363
396
418
386
290
149
20
-52
-70
-62
-51
-47
-43
-41
-39
-38
-36
-34
-34
-33
-34
-33
-32
-31
-31
-31
-30
-31
-32
-33
-32
-32
-31
-30
-29
-27
-25
-24
-23
-22
-21
-21
-20
-19
-18
-19
-20
-20
-20
-20
-21
-22
-21
-21
-19
-15
-12
-18
-26
-29
-28
-29
-30
-32
-31
-31
-32
-33
-34
-34
-35
-36
-37
-37
-38
-38
-37
-37
-35
-35
-34
-33
-30
-28
-26
-23
-20
-16
-13
-11
-9
-6
-2
-1
1
5
7
7
7
8
9
9
8
8
9
9
8
7
6
8
8
7
7
7
8
9
10
10
10
10
11
11
12
13
14
16
14
13
13
15
16
18
18
17
19
19
20
20
20
19
18
20
20
21
19
19
19
20
20
19
18
18
18
17
18
18
18
18
18
19
19
18
17
17
16
15
15
16
18
17
17
17
18
18
17
17
19
19
17
17
18
18
18
18
21
21
21
20
20
21
20
20
22
30
36
30
21
19
20
20
20
19
20
20
20
20
20
19
18
18
18
19
19
19
20
19
19
19
20
21
22
21
22
23
22
21
21
24
24
24
24
26
27
26
27
27
28
28
31
35
39
41
43
45
46
48
50
52
55
57
59
63
68
70
71
70
67
64
58
51
43
37
33
31
29
26
22
18
18
18
19
19
19
20
20
20
19
21
21
22
22
23
25
25
26
27
29
30
31
31
32
36
43
59
83
120
168
238
315
386
435
471
497
489
428
283
134
21
-35
-43
-32
-23
-15
-10
-7
-5
-2
0
0
-1
-1
0
0
0
1
2
2
1
2
3
9
14
10
1
-1
0
0
0
1
1
1
2
1
1
1
1
1
1
1
0
0
-1
-2
-4
-6
-7
-8
-10
-12
-13
-13
-14
-17
-20
-21
-23
-24
-25
-27
-28
-30
-32
-34
-34
-35
-37
-36
-37
-36
-37
-35
-34
-32
-31
-28
-25
-22
-20
-17
-12
-9
-7
-4
0
1
3
3
4
6
7
8
7
7
7
6
5
4
4
3
3
3
3
3
2
2
3
4
4
4
5
6
7
6
7
8
9
8
9
10
11
11
12
13
13
13
13
13
14
14
14
14
15
14
13
13
13
12
11
10
10
10
9
8
7
7
6
5
4
4
3
2
1
0
-1
-1
-2
-2
-2
-1
0
5
7
-2
-9
-8
-7
-6
-7
-8
-8
-8
-8
-8
-8
-8
-8
-9
-9
-8
-8
-9
-10
-9
-9
-10
-11
-10
-10
-9
-11
-11
-11
-11
-11
-12
-11
-12
-13
-14
-14
-13
-13
-13
-14
-13
-13
-14
-16
-17
-17
-17
-18
-18
-18
-18
-19
-20
-20
-20
-21
-22
-22
-22
-22
-23
-23
-23
-22
-22
-21
-19
-15
-11
-8
-5
-4
-3
-2
-1
1
3
4
6
10
14
14
12
11
7
3
-2
-7
-12
-17
-21
-24
-26
-28
-33
-35
-36
-34
-34
-34
-34
-34
-33
-34
-34
-35
-34
-33
-33
-33
-32
-31
-31
-31
-30
-29
-29
-29
-28
-27
-26
-21
-9
9
37
78
136
202
269
319
354
373
353
264
139
20
-51
-77
-79
-71
-61
-55
-53
-51
-50
-48
-48
-48
-47
-47
-47
-48
-48
-48
-47
-48
-48
-47
-46
-45
-46
-45
-44
-42
-43
-43
-42
-41
-41
-41
-41
-41
-40
-40
-39
-38
-37
-37
-37
-37
-37
-37
-38
-40
-40
-41
-41
-43
-44
-45
-46
-47
-48
-48
-49
-49
-50
-50
-51
-52
-54
-54
-54
-54
-54
-54
-53
-53
-54
-53
-52
-50
-50
-47
-45
-42
-40
-38
-36
-33
-30
-28
-25
-22
-18
-16
-15
-14
-12
-10
-9
-9
-8
-7
-8
-9
-8
-7
-7
-7
-7
-8
-8
-9
-10
-8
-7
-7
-7
-5
-4
-3
-3
-3
-2
-1
0
0
2
2
1
1
2
3
4
4
4
3
4
6
7
7
7
7
7
8
9
14
22
22
13
8
8
9
9
10
10
10
10
10
11
11
12
11
12
11
10
11
12
12
13
14
14
14
13
12
12
13
14
12
12
12
13
13
14
14
14
13
13
14
15
15
14
13
13
13
13
13
13
14
15
14
14
14
15
15
15
15
16
16
16
17
17
18
19
18
18
19
19
20
20
22
22
22
21
21
22
22
22
24
28
31
36
39
43
46
47
49
50
53
54
57
60
65
67
65
66
65
63
59
54
48
42
37
33
32
29
26
20
18
18
20
20
19
18
18
19
19
19
20
21
21
20
21
22
24
25
26
27
29
30
32
34
37
40
44
52
71
100
147
207
284
363
430
481
511
511
470
339
178
55
-10
-24
-17
-8
-2
0
2
4
4
5
5
5
4
3
3
5
8
9
9
9
9
9
8
8
8
9
9
9
9
10
10
10
10
12
12
12
12
12
12
12
12
12
12
11
10
8
6
4
3
2
0
0
-2
-4
-6
-8
-10
-11
-12
-12
-14
-15
-16
-16
-18
-19
-20
-20
-21
-22
-22
-21
-21
-21
-20
-18
-15
-13
-11
-8
-5
-2
0
3
6
10
13
15
18
19
21
20
20
21
21
20
18
18
18
17
16
15
16
15
15
14
15
15
15
15
15
16
16
16
18
19
19
19
19
20
20
20
21
22
22
22
25
33
35
25
16
17
18
19
18
17
17
17
16
15
15
14
13
11
10
10
9
9
8
7
7
6
5
5
5
4
3
3
2
0
0
0
0
0
-1
-2
-2
-2
-3
-3
-4
-4
-4
-4
-4
-4
-5
-6
-6
-6
-6
-7
-7
-7
-8
-8
-9
-9
-9
-9
-10
-10
-10
-10
-11
-12
-12
-12
-12
-13
-13
-13
-14
-14
-15
-15
-15
-15
-16
-16
-17
-18
-19
-19
-19
-17
-13
-9
-4
-1
2
4
5
5
6
8
10
12
13
16
18
18
16
14
12
8
3
-3
-8
-13
-17
-20
-24
-27
-32
-35
-36
-36
-35
-36
-35
-36
-35
-35
-35
-35
-35
-34
-35
-34
-34
-32
-32
-31
-28
-22
-17
-22
-28
-28
-25
-17
-1
22
55
101
162
234
300
350
383
405
386
293
153
22
-63
-90
-88
-78
-73
-71
-71
-70
-70
-69
-68
-68
-66
-65
-64
-64
-63
-62
-63
-63
-64
-63
-64
-63
-64
-62
-61
-60
-59
-58
-55
-54
-52
-51
-49
-48
-48
-47
-47
-47
-48
-47
-46
-47
-47
-49
-49
-51
-52
-54
-54
-54
-56
-57
-59
-59
-60
-60
-61
-62
-64
-65
-65
-66
-65
-66
-65
-64
-64
-63
-63
-61
-60
-59
-57
-55
-52
-49
-45
-43
-39
-36
-33
-29
-26
-23
-21
-19
-17
-15
-15
-15
-15
-15
-15
-15
-14
-15
-15
-16
-16
-16
-16
-16
-16
-15
-15
-15
-14
-14
-13
-13
-12
-12
-10
-8
-1
3
-2
-9
-10
-8
-7
-6
-6
-6
-6
-6
-6
-6
-6
-6
-4
-4
-5
-5
-4
-4
-4
-4
-4
-3
-3
-4
-4
-4
-4
-4
-3
-2
-2
-1
-1
-1
-2
-2
-1
0
-1
-2
-2
-2
-2
-2
-1
-1
-2
-3
-3
-2
-2
-2
-1
0
0
0
0
0
1
2
2
2
1
1
1
1
1
1
1
0
0
1
1
1
2
3
3
3
4
5
5
5
6
6
6
7
7
7
7
6
5
7
8
8
7
7
8
9
10
9
9
9
10
10
12
14
13
13
13
14
13
13
13
14
16
17
17
18
22
26
30
33
35
38
38
40
42
46
47
49
54
59
62
63
69
72
66
51
42
37
32
28
26
26
23
18
15
15
16
17
18
19
20
20
20
19
21
22
22
21
21
20
20
20
21
21
21
20
20
21
22
25
34
54
80
120
170
243
320
386
435
465
488
461
370
220
81
-6
-40
-39
-27
-17
-10
-6
-3
0
1
2
3
3
3
2
1
1
0
0
0
0
1
2
3
4
6
7
7
7
8
8
8
8
8
9
9
9
9
10
11
10
9
8
7
7
5
3
2
1
0
-2
-3
-4
-7
-10
-11
-13
-14
-17
-18
-19
-21
-22
-23
-24
-26
-27
-28
-28
-29
-30
-29
-29
-27
-26
-25
-24
-22
-19
-17
-14
-11
-7
-5
-3
1
8
17
19
11
7
9
11
10
10
10
9
8
7
7
7
6
6
6
6
5
5
5
6
6
6
6
7
7
7
8
9
9
9
10
11
12
12
12
13
12
11
13
15
16
16
16
16
17
18
16
16
16
16
15
15
15
15
15
14
13
12
11
10
9
9
9
8
7
6
6
6
5
4
4
5
4
3
1
1
1
1
0
0
0
0
-1
-1
-1
-2
-3
-3
-4
-5
-6
-6
-7
-8
-9
-9
-8
-9
-11
-12
-12
-13
-14
-15
-15
-15
-15
-16
-17
-16
-17
-17
-17
-17
-18
-17
-18
-19
-18
-18
-18
-19
-19
-19
-19
-20
-21
-21
-21
-21
-22
-22
-21
-22
-22
-22
-20
-17
-11
-12
-20
-24
-23
-21
-20
-19
-16
-12
-8
-5
-4
-3
-1
0
1
2
4
6
8
11
13
15
15
13
10
7
3
-1
-7
-13
-17
-20
-22
-25
-28
-31
-33
-34
-33
-32
-31
-33
-33
-33
-32
-33
-34
-34
-33
-33
-33
-32
-32
-32
-31
-30
-30
-30
-30
-30
-25
-16
-1
23
59
113
177
241
304
343
378
392
370
286
153
34
-51
-87
-85
-76
-68
-63
-61
-58
-57
-54
-52
-50
-50
-51
-51
-52
-52
-53
-52
-50
-47
-46
-45
-44
-44
-43
-43
-42
-41
-40
-40
-39
-38
-38
-38
-38
-37
-36
-35
-35
-35
-35
-35
-35
-35
-35
-35
-36
-37
-39
-39
-41
-42
-43
-43
-43
-45
-45
-46
-46
-46
-45
-43
-36
-35
-44
-50
-51
-49
-50
-50
-50
-49
-47
-47
-47
-46
-43
-41
-39
-36
-32
-29
-27
-24
-20
-16
-13
-11
-9
-7
-7
-6
-5
-4
-4
-4
-5
-5
-5
-5
-6
-6
-6
-5
-6
-6
-6
-7
-7
-7
-6
-5
-5
-6
-5
-3
-2
-2
-2
-1
0
0
0
0
0
1
2
3
4
4
4
4
5
6
7
7
7
7
8
8
8
7
8
7
6
6
7
7
7
6
7
8
7
6
6
7
7
7
8
9
9
8
7
6
5
5
5
7
7
7
8
9
9
8
8
8
9
9
8
8
10
10
9
9
9
9
9
10
10
11
11
11
11
11
11
12
12
12
14
14
14
13
16
23
24
16
10
10
10
11
12
12
12
11
11
11
11
11
11
12
12
12
12
13
13
12
12
13
14
15
15
15
16
17
17
20
24
28
31
33
33
35
35
37
39
43
46
48
50
53
58
61
61
59
57
54
48
41
34
28
24
23
21
18
15
12
12
14
14
14
15
15
15
16
16
17
18
18
19
20
22
22
23
22
23
22
20
20
21
23
30
43
64
95
136
192
261
334
394
435
469
483
462
363
213
83
-5
-35
-32
-22
-14
-10
-7
-6
-3
-2
0
0
0
2
3
4
5
6
7
7
9
9
8
7
7
7
7
7
7
7
8
8
7
7
9
12
18
24
19
9
5
5
5
5
5
4
3
2
1
0
-2
-3
-4
-5
-7
-9
-9
-10
-12
-14
-15
-15
-16
-17
-19
-20
-19
-20
-20
-20
-19
-19
-19
-18
-16
-14
-12
-9
-6
-2
0
3
7
10
12
15
17
19
20
21
22
22
22
21
21
21
20
20
19
19
19
17
17
16
16
16
16
14
15
16
16
17
16
17
17
18
18
20
20
21
21
22
23
23
24
24
24
23
23
23
24
24
23
23
24
25
25
25
25
24
23
22
22
22
22
21
21
21
20
19
18
18
17
17
16
16
15
15
15
14
15
14
13
13
13
14
14
13
13
13
12
13
13
14
14
14
19
25
23
14
9
10
11
12
11
11
11
11
11
11
11
11
11
11
12
12
10
10
10
11
10
10
10
10
10
8
8
8
8
7
7
6
6
6
6
5
6
7
6
6
6
6
6
5
6
6
7
6
6
6
6
6
6
9
13
17
19
21
23
24
25
27
29
32
33
34
37
41
41
40
38
35
31
26
21
15
10
5
3
1
-1
-6
-10
-10
-10
-11
-12
-13
-12
-11
-11
-11
-9
-9
-10
-9
-9
-8
-7
-8
-7
-6
-6
-6
-6
-5
-3
0
8
24
49
83
133
197
270
332
375
403
412
366
247
112
0
-53
-60
-50
-40
-36
-35
-34
-33
-29
-28
-27
-26
-21
-15
-19
-28
-30
-28
-27
-26
-25
-25
-24
-25
-24
-23
-21
-21
-21
-21
-21
-21
-21
-20
-19
-19
-19
-18
-17
-17
-19
-20
-19
-21
-22
-23
-23
-24
-26
-26
-27
-27
-29
-31
-30
-31
-31
-32
-32
-33
-33
-34
-34
-34
-35
-36
-36
-35
-34
-34
-33
-32
-30
-30
-28
-26
-24
-21
-18
-16
-13
-9
-7
-4
-1
0
0
0
1
2
3
3
3
3
3
2
1
1
2
1
0
0
0
0
0
1
1
1
0
0
2
3
3
3
4
4
4
4
4
6
6
7
8
9
9
8
8
10
10
10
11
12
12
11
12
12
12
11
10
11
11
12
11
10
10
11
11
11
11
12
15
21
18
10
7
7
7
8
8
7
7
7
7
6
6
6
7
7
7
7
7
7
6
6
6
7
7
7
7
7
6
5
6
6
6
5
4
5
5
4
3
4
5
5
5
4
5
6
6
6
7
7
6
5
6
6
6
6
6
7
7
5
5
7
8
8
8
7
7
6
7
8
9
8
7
8
9
9
9
10
13
17
21
25
27
28
29
31
33
36
37
38
41
47
52
52
52
50
49
44
39
34
26
20
15
13
12
9
5
1
0
0
0
0
0
1
2
3
4
5
5
6
6
7
8
8
7
8
8
9
10
11
12
14
19
31
52
82
124
189
268
335
384
422
452
458
402
272
123
6
-50
-60
-50
-40
-35
-33
-31
-28
-26
-25
-23
-21
-20
-20
-20
-18
-17
-16
-17
-16
-16
-16
-16
-16
-14
-14
-14
-14
-13
-12
-12
-12
-11
-10
-10
-10
-10
-10
-10
-11
-11
-10
-9
-11
-13
-14
-14
-16
-17
-18
-19
-19
-22
-23
-24
-25
-27
-28
-28
-28
-28
-29
-30
-31
-33
-34
-34
-34
-33
-34
-34
-33
-31
-31
-29
-26
-23
-21
-19
-15
-11
-8
-5
-2
0
3
3
4
5
6
5
5
6
5
5
4
4
4
4
3
1
1
1
1
1
2
2
1
1
0
1
3
3
3
4
5
5
6
6
7
9
10
11
11
12
13
14
16
23
28
23
14
12
13
14
13
13
14
13
12
12
12
12
11
11
11
12
11
10
10
10
9
8
8
8
7
6
6
6
5
4
2
2
2
2
2
1
2
3
2
1
1
2
2
3
2
2
2
2
1
1
1
1
0
0
1
1
1
1
2
2
2
2
3
3
2
1
3
2
1
1
1
2
1
0
0
0
0
0
0
0
1
1
0
0
0
0
0
-1
0
0
0
-2
-1
0
0
0
0
0
1
0
0
2
5
10
14
17
20
22
23
23
25
28
29
32
35
39
40
41
40
38
34
28
23
17
11
5
1
0
-3
-7
-11
-12
-11
-11
-11
-11
-8
-2
4
1
-7
-10
-9
-8
-7
-6
-6
-6
-6
-5
-4
-4
-4
-4
-3
-3
-2
0
9
26
49
83
134
204
278
345
388
419
430
383
268
124
5
-55
-67
-57
-48
-44
-41
-39
-36
-34
-31
-29
-26
-25
-23
-23
-22
-21
-23
-23
-23
-21
-20
-21
-21
-20
-19
-19
-18
-17
-16
-15
-16
-16
-16
-14
-14
-14
-15
-14
-13
-14
-14
-14
-14
-15
-16
-17
-17
-17
-18
-20
-20
-20
-22
-24
-24
-25
-26
-28
-29
-28
-28
-28
-29
-29
-30
-31
-32
-31
-31
-30
-29
-28
-27
-26
-23
-20
-17
-14
-11
-9
-6
-4
-2
-1
1
4
6
7
8
9
11
11
10
10
10
10
10
9
9
8
7
6
5
5
5
5
7
13
12
4
-1
0
2
3
3
3
4
6
6
7
7
7
7
7
8
8
8
7
8
9
9
9
9
10
10
9
8
8
7
7
6
7
8
8
7
5
5
5
5
4
4
4
3
3
2
1
1
2
0
0
0
0
0
-1
-1
-1
-1
-2
-3
-3
-3
-3
-4
-5
-5
-5
-6
-6
-5
-5
-6
-6
-5
-4
-4
-4
-4
-4
-5
-5
-4
-3
-4
-4
-4
-3
-3
-4
-5
-5
-6
-7
-8
-8
-8
-8
-8
-7
-7
-9
-10
-11
-10
-9
-9
-9
-8
-8
-8
-9
-10
-11
-11
-10
-9
-8
-8
-8
-8
-8
-7
-7
-7
-6
-4
0
3
5
7
9
10
12
14
18
20
24
34
45
44
36
34
34
33
29
25
20
14
7
2
0
-1
-3
-6
-8
-9
-10
-10
-9
-8
-6
-6
-6
-5
-5
-5
-5
-5
-4
-3
-3
-2
-2
-1
-1
-2
-2
-1
0
1
7
21
44
75
126
189
269
340
388
429
440
413
302
155
33
-43
-63
-54
-42
-34
