649
649
652
649
648
649
651
649
651
648
647
648
648
647
647
644
647
649
657
659
660
665
664
659
656
660
668
668
660
659
660
656
648
643
644
644
643
647
643
646
644
644
649
647
642
640
640
640
640
640
640
640
640
640
636
636
629
633
636
628
619
616
608
596
574
540
540
583
589
574
544
544
655
680
638
572
556
578
598
597
589
588
592
593
593
598
600
601
602
606
604
608
608
606
606
604
604
604
604
604
602
598
598
597
598
597
597
595
596
595
596
595
592
591
591
588
583
583
583
585
582
578
576
572
572
572
576
574
576
578
578
574
576
578
583
588
592
596
604
608
615
620
624
625
628
628
625
629
629
629
628
624
624
625
625
624
625
624
624
623
624
624
623
620
621
620
623
620
619
619
621
621
619
620
623
621
619
619
619
617
619
619
617
621
621
620
619
619
620
619
621
623
623
624
621
620
620
619
623
624
624
625
627
629
629
628
628
624
628
628
629
629
625
625
628
625
627
628
629
633
636
633
632
632
630
629
630
634
633
632
629
630
632
632
636
640
644
648
652
648
648
642
644
656
664
659
655
659
660
653
644
640
640
640
636
630
636
640
640
640
640
638
636
636
638
636
636
636
636
638
640
640
638
638
636
633
629
624
615
608
598
592
572
540
563
598
596
572
556
629
708
693
632
572
572
595
604
602
598
598
604
608
610
612
611
614
615
614
615
617
615
614
614
615
617
616
614
612
614
614
614
612
608
608
608
606
608
608
608
610
606
602
601
601
601
598
595
595
593
589
589
588
588
585
585
585
585
584
587
589
591
592
593
597
604
608
614
619
627
629
636
640
642
643
644
644
648
649
643
643
644
644
640
640
642
640
642
640
643
644
646
644
644
643
642
642
640
636
638
636
636
636
636
636
636
636
638
636
636
633
633
632
630
630
632
629
629
629
628
629
629
629
630
629
629
629
629
632
634
633
633
634
636
636
636
636
636
636
636
638
638
638
638
636
638
636
638
640
640
640
642
640
640
638
640
647
652
655
656
656
655
649
653
662
665
660
656
661
660
655
646
640
642
640
640
640
640
642
644
644
642
638
638
640
640
640
640
640
640
640
640
642
640
640
640
636
630
619
614
610
604
595
564
565
611
621
611
582
604
689
694
644
579
578
604
619
615
610
610
611
614
619
620
625
628
625
628
627
629
628
625
624
624
627
624
624
625
623
623
623
620
619
617
619
621
617
615
616
616
616
614
611
608
606
606
604
604
602
598
598
597
595
593
595
595
592
592
593
596
597
600
604
608
612
619
624
634
640
644
649
652
655
657
657
660
657
659
656
656
655
656
653
655
655
656
656
656
656
653
655
655
651
652
653
651
653
653
653
652
651
651
649
649
649
649
648
647
647
647
647
646
648
647
647
647
647
647
647
649
648
648
647
647
647
647
649
652
648
651
652
655
655
653
653
652
652
653
655
655
655
656
655
651
652
653
655
655
655
653
655
655
655
655
653
655
655
656
655
655
655
657
661
668
670
670
672
672
666
664
670
680
679
668
670
672
668
661
656
657
655
655
653
657
656
657
657
657
656
656
656
657
656
655
655
657
656
656
656
656
656
656
653
648
636
629
629
625
610
570
555
596
619
614
578
547
629
676
653
596
579
604
624
624
616
614
619
624
625
628
629
632
632
632
632
633
632
632
629
629
629
629
627
625
625
627
627
625
625
624
621
621
621
619
617
615
612
612
608
608
608
604
604
601
597
595
592
591
589
587
585
585
583
582
583
585
585
584
588
591
596
602
608
615
621
627
629
636
638
640
640
643
643
642
640
640
640
640
638
640
638
640
636
636
636
636
636
636
636
633
636
634
633
633
633
633
634
632
629
629
629
629
629
629
629
629
629
628
628
625
624
627
624
627
628
628
628
628
628
629
627
628
628
629
629
630
630
632
629
629
629
633
632
633
636
634
633
632
633
634
632
633
633
634
633
632
632
630
633
633
633
634
632
630
630
632
629
632
633
630
630
632
632
633
633
632
629
629
629
632
629
630
630
630
629
629
628
629
632
634
636
640
643
646
648
646
640
640
648
656
649
644
646
648
640
634
630
629
630
629
628
630
629
632
630
633
629
632
630
632
630
632
632
632
629
629
632
632
629
628
628
620
606
600
598
588
565
521
527
568
576
565
516
527
636
649
606
559
566
591
597
593
588
587
595
600
602
604
604
604
604
604
608
604
604
604
606
604
604
604
604
602
604
602
600
600
598
600
597
597
596
598
597
593
592
591
591
587
584
585
582
579
576
572
568
568
569
566
564
566
565
566
565
566
569
572
576
580
583
591
598
608
614
619
625
629
633
636
633
634
633
632
633
634
633
633
632
630
630
630
630
633
632
630
630
632
629
632
629
629
629
630
630
632
629
632
633
632
630
630
629
632
629
632
632
632
629
630
632
636
634
633
636
634
636
636
636
636
638
642
640
640
640
640
640
643
643
642
643
644
644
644
643
643
643
644
647
647
644
644
644
646
647
647
647
646
647
649
649
651
649
649
648
648
648
648
646
648
652
649
647
648
648
649
651
651
651
651
649
649
649
649
651
652
652
649
649
649
649
652
656
660
664
664
666
668
665
661
664
672
674
668
665
668
668
660
656
656
652
651
651
653
657
657
655
657
656
656
655
653
656
657
656
653
655
657
656
656
657
656
656
655
647
636
625
624
619
615
588
560
588
619
606
572
574
688
751
710
624
583
598
619
629
621
615
619
624
629
636
640
640
642
640
638
640
640
642
640
640
643
642
638
640
640
640
640
638
640
638
636
636
636
633
633
636
636
634
632
629
629
629
628
627
624
621
619
615
615
617
617
615
612
612
616
617
617
621
627
627
629
632
636
643
652
660
665
670
672
675
675
679
680
679
680
678
676
675
676
675
676
676
676
676
676
674
674
676
676
672
675
674
672
672
670
670
672
672
672
670
670
666
668
668
670
668
668
668
662
665
666
665
665
668
668
668
668
664
665
665
665
668
668
670
668
668
668
670
670
670
672
672
674
670
670
670
670
670
672
672
674
676
674
674
675
674
672
672
675
672
674
674
676
675
672
674
676
675
672
670
670
670
672
674
674
670
670
670
670
670
672
672
672
672
672
674
676
680
684
683
685
685
685
683
685
694
700
692
685
689
691
685
680
676
674
672
670
670
672
672
672
670
668
668
668
670
670
670
666
666
665
668
670
668
665
668
666
668
664
655
640
640
636
633
615
580
588
634
633
610
585
660
736
715
640
588
604
624
636
629
625
630
634
636
640
643
644
644
646
647
648
647
646
646
647
647
644
643
640
640
642
642
642
640
640
638
640
638
636
636
636
633
632
632
630
629
625
623
617
616
617
616
612
608
611
608
608
608
608
608
608
611
612
615
621
625
632
638
642
648
653
657
662
664
665
664
665
665
661
661
662
661
661
661
661
660
662
662
661
660
660
660
661
660
660
659
659
657
660
659
657
656
659
656
655
653
651
652
653
651
652
649
649
649
651
648
648
649
649
649
648
649
649
652
651
652
655
653
653
653
655
655
653
652
656
656
656
657
657
656
657
659
660
659
657
659
659
657
659
659
659
661
660
660
660
659
659
659
659
660
660
659
660
656
657
656
659
657
656
657
657
657
656
656
657
655
656
656
656
655
657
657
656
653
653
656
657
655
655
657
662
668
670
670
670
665
661
666
675
676
672
668
670
670
662
660
657
657
655
653
655
656
656
655
655
656
653
655
655
655
655
655
655
653
653
653
653
653
653
652
651
644
633
627
627
619
598
559
557
600
614
602
561
544
640
668
636
580
582
610
624
620
615
614
617
623
624
628
630
630
632
633
630
629
629
629
630
629
630
629
629
628
628
627
625
624
625
623
624
620
620
619
620
617
614
615
612
611
610
608
604
604
600
597
596
592
588
588
588
588
587
587
587
588
588
588
588
595
600
604
611
616
624
633
636
642
644
646
648
648
648
649
648
648
648
648
648
647
644
644
644
644
646
643
643
643
643
640
640
640
640
640
638
638
640
638
640
640
638
638
640
638
638
638
640
636
638
638
636
636
636
636
638
638
636
638
638
638
638
640
640
638
640
640
642
640
642
642
644
643
643
643
644
643
642
642
640
643
643
643
643
644
644
643
644
643
643
646
644
647
646
646
643
644
644
644
644
646
644
644
644
643
643
646
644
644
644
644
646
644
644
644
644
642
643
644
644
642
643
646
644
642
642
643
644
647
646
646
646
652
656
659
660
659
652
648
653
662
661
655
649
651
648
643
643
646
647
647
644
646
644
646
644
646
647
644
644
646
646
646
647
647
647
646
647
646
644
644
644
640
630
619
615
612
600
574
533
552
596
595
574
525
572
672
665
608
565
578
606
612
606
602
606
608
614
617
619
621
623
624
624
624
623
620
621
620
621
619
621
620
619
619
617
615
617
617
617
614
612
611
611
608
608
604
602
602
598
598
595
595
592
588
585
582
576
578
578
576
574
576
576
576
576
578
584
588
592
598
608
614
620
628
636
640
643
646
644
647
647
644
646
644
643
642
640
642
638
636
636
638
640
638
640
638
638
638
640
636
638
636
636
636
634
636
636
636
634
634
634
633
636
636
636
633
633
633
634
633
633
636
636
636
636
633
636
638
638
638
640
636
638
638
640
638
638
640
640
640
640
643
643
642
640
640
642
640
640
644
644
643
643
646
644
640
642
640
644
646
647
646
644
644
646
646
646
644
644
643
644
646
646
644
646
644
646
646
644
647
648
647
643
643
646
649
649
647
648
647
648
648
647
647
647
647
652
659
662
665
668
666
657
656
661
668
668
660
659
659
655
649
652
649
653
652
651
653
655
651
649
649
649
649
649
651
649
649
652
649
652
652
649
649
647
648
649
647
640
630
619
615
608
598
568
548
591
612
596
564
588
717
736
666
587
570
595
615
615
606
606
611
616
621
623
624
628
628
629
629
629
629
629
628
625
627
628
629
629
624
623
624
623
620
621
623
620
617
617
617
615
614
611
608
608
608
608
608
606
602
600
598
600
598
597
596
593
595
596
597
598
601
602
602
606
612
619
627
633
638
643
649
655
655
656
659
660
659
657
656
655
656
655
653
655
656
655
653
655
656
657
656
655
652
652
653
655
655
653
655
655
653
649
648
649
648
649
647
646
648
647
644
646
646
647
644
647
647
644
643
644
644
646
646
644
646
646
647
647
647
646
647
649
649
651
652
651
651
653
653
651
652
652
652
655
655
652
649
653
656
655
655
655
655
656
656
653
657
657
655
655
653
653
655
655
652
653
655
655
655
655
656
657
656
655
656
655
653
655
655
655
655
653
653
655
655
656
655
657
656
656
656
662
665
668
670
674
668
664
666
675
676
670
665
668
665
659
656
659
657
657
655
655
656
653
653
655
653
653
653
653
655
656
656
655
653
655
656
655
655
653
649
649
646
636
627
620
619
612
588
557
580
615
608
582
566
652
715
685
611
572
591
614
619
611
608
612
619
624
625
628
629
632
632
630
629
629
629
628
629
629
629
629
628
625
623
624
627
627
624
624
624
621
619
619
619
619
615
615
612
612
610
608
604
602
602
601
597
596
596
592
592
592
595
596
595
595
595
598
600
604
608
614
620
627
636
640
644
647
649
652
653
653
653
655
652
649
649
652
649
651
649
649
648
649
649
649
647
648
648
649
648
649
648
647
646
646
646
647
646
646
646
644
643
643
642
642
643
642
640
640
638
640
640
640
638
638
640
642
642
640
640
640
642
642
643
644
646
646
646
646
644
644
646
644
644
644
647
649
649
648
647
648
648
647
648
647
648
648
649
649
649
648
648
648
649
648
648
649
648
648
649
649
649
648
651
652
649
649
647
649
649
648
649
649
648
648
648
648
648
648
649
651
648
648
649
649
649
655
659
662
664
666
660
653
652
659
665
664
657
656
657
651
647
646
647
646
648
648
649
649
648
649
649
649
648
648
649
649
649
649
649
651
649
649
649
649
649
648
644
636
627
620
617
608
576
544
574
608
604
584
536
593
674
660
604
572
595
616
619
614
610
614
619
624
625
629
629
630
632
633
632
633
633
633
632
632
629
629
629
629
627
627
628
629
624
624
624
624
624
621
619
619
617
615
615
614
608
608
608
604
602
598
597
596
593
591
588
589
588
588
588
588
592
595
596
601
606
612
619
629
636
642
647
648
653
655
657
656
656
653
653
655
652
652
651
652
649
649
649
649
648
648
648
647
646
647
647
647
644
644
646
644
647
647
646
644
646
643
643
642
643
644
642
643
642
643
643
644
642
640
640
642
643
644
646
647
646
647
646
647
644
646
647
647
646
647
648
649
648
648
649
649
649
648
649
652
651
652
651
652
652
652
651
651
651
652
653
653
652
651
653
655
653
651
651
653
651
652
649
652
651
652
652
653
653
653
653
653
652
652
649
649
648
649
649
652
652
651
652
652
649
649
649
649
648
652
655
660
661
665
666
660
655
656
662
666
660
655
656
653
649
647
647
649
651
651
649
652
649
649
649
649
649
651
649
652
652
652
651
651
651
652
653
652
651
651
647
646
633
623
619
611
595
556
536
578
606
597
565
547
649
696
657
588
576
601
616
615
608
608
615
616
620
625
628
625
624
625
627
628
629
628
628
627
624
624
624
627
623
621
623
620
623
624
623
620
619
616
614
614
611
611
608
608
604
601
601
600
598
593
588
588
588
585
583
579
579
583
583
585
585
587
589
593
597
602
608
617
623
629
636
643
647
648
649
649
649
652
649
648
648
646
648
649
648
646
648
647
646
646
646
644
644
643
644
647
647
646
642
642
644
643
642
642
643
642
640
640
640
640
640
644
642
638
638
640
640
640
640
640
640
640
640
640
640
640
642
644
643
642
643
646
646
643
646
646
647
647
647
647
646
644
644
648
646
647
648
647
644
646
644
644
646
646
646
648
647
646
647
646
644
642
646
646
648
648
647
647
646
644
643
646
646
646
646
647
647
647
649
649
646
647
646
649
648
648
648
649
648
652
653
657
660
662
664
660
656
657
664
666
661
659
660
660
651
649
652
651
653
648
648
652
652
651
649
649
649
652
651
649
649
649
651
651
652
649
649
652
652
652
649
640
627
615
612
608
595
564
552
598
612
593
566
634
748
734
653
583
582
606
619
616
610
611
617
623
627
627
627
629
633
636
636
636
634
636
636
632
629
627
628
630
632
634
634
630
627
625
627
627
628
624
623
621
617
620
616
614
614
612
612
611
610
604
604
602
602
601
598
600
598
598
602
606
608
608
611
611
616
625
633
638
648
653
656
660
660
661
664
668
668
668
664
661
660
659
660
662
661
661
660
662
661
662
664
661
659
659
660
662
661
660
660
660
657
656
656
655
655
656
656
653
652
653
653
655
653
653
651
655
651
649
648
649
649
652
653
651
649
648
651
652
655
655
653
653
659
657
655
655
651
651
652
653
656
656
657
659
657
659
659
660
659
660
660
660
659
659
659
659
660
659
657
660
660
659
659
656
657
659
659
657
657
657
656
657
659
657
656
657
655
656
656
657
655
655
656
659
660
659
659
655
656
660
666
668
670
672
668
665
664
670
676
672
665
664
665
661
657
657
657
656
656
656
655
655
656
659
657
655
652
653
655
655
656
657
656
656
656
655
653
656
655
652
646
636
628
623
617
606
570
552
596
615
600
569
592
700
707
656
583
578
608
623
620
614
614
617
623
627
629
633
636
636
634
636
633
634
633
632
632
634
630
630
629
629
628
627
628
628
627
627
624
624
623
623
620
619
617
615
615
614
611
608
608
604
604
601
598
598
595
595
595
595
597
597
597
598
602
604
608
612
619
625
632
640
643
651
653
656
656
659
657
657
657
657
660
659
660
659
659
659
656
657
657
659
657
659
656
657
656
656
656
655
653
653
653
653
651
652
649
652
652
652
649
649
649
648
648
648
646
648
647
648
648
648
648
649
649
649
648
649
649
648
649
651
649
649
652
653
653
653
652
655
652
653
655
655
655
655
655
657
657
656
656
657
656
656
657
656
656
656
656
657
656
657
657
656
656
656
656
657
656
655
656
656
656
656
656
656
656
653
653
655
653
653
656
657
655
656
656
657
656
655
653
655
655
655
656
660
664
668
672
670
660
657
664
672
670
664
660
662
657
651
651
652
653
655
653
655
652
652
651
653
651
652
649
651
651
651
652
649
651
649
649
652
649
648
646
646
636
628
623
617
608
578
542
564
604
604
585
536
578
668
665
616
576
588
614
621
615
610
612
615
623
625
625
628
628
628
630
629
628
628
629
629
628
629
628
625
627
625
623
623
624
624
624
623
621
620
620
619
617
615
615
614
612
608
608
606
604
600
598
595
592
589
588
588
585
584
584
585
584
585
587
591
592
595
598
606
614
623
629
636
643
649
649
651
655
656
659
657
656
653
655
655
655
653
651
651
651
651
649
649
651
652
649
649
649
649
649
649
648
648
649
649
648
648
646
646
648
648
647
647
646
647
647
647
647
647
647
648
648
647
644
647
647
648
649
649
649
648
649
649
649
648
649
652
651
651
653
655
653
653
652
653
653
652
655
653
655
653
653
655
656
655
655
655
655
656
656
657
656
656
656
657
655
653
653
653
655
655
653
655
655
655
655
655
655
653
649
651
653
653
653
653
652
652
653
653
653
653
653
656
655
653
649
652
655
659
661
665
666
668
660
656
659
662
672
665
659
657
656
651
649
649
649
652
651
651
652
652
649
651
649
649
648
651
649
649
652
652
649
652
649
648
649
651
649
646
640
630
621
617
608
592
552
532
572
598
592
566
540
634
698
668
598
572
596
614
615
608
604
608
616
620
623
624
623
627
627
627
624
624
623
624
623
624
621
620
619
620
620
619
617
619
617
616
614
611
608
608
608
604
604
602
604
598
597
593
588
587
585
580
576
578
576
574
572
572
572
572
576
574
578
579
583
588
592
597
608
617
623
629
636
638
640
640
640
640
640
643
643
642
638
638
636
640
636
636
636
640
640
638
638
636
636
636
633
636
634
634
632
634
633
633
633
633
632
630
630
630
628
628
628
629
627
625
625
629
627
627
628
629
629
629
629
629
628
628
629
628
630
633
632
632
632
636
636
636
636
634
636
636
636
633
636
636
636
634
636
636
636
638
638
638
638
636
636
636
634
636
636
636
633
633
632
636
638
636
636
636
636
636
636
636
636
636
636
636
636
636
636
636
636
636
636
636
636
636
636
634
636
634
633
640
643
647
649
649
643
640
642
649
653
648
643
647
646
638
636
636
636
636
636
636
636
636
636
636
636
634
636
636
636
638
638
636
638
638
638
636
638
640
640
640
632
623
612
604
598
595
582
544
540
587
602
583
555
608
728
732
656
576
565
588
604
604
596
595
600
606
611
616
617
619
619
620
619
619
619
620
621
620
619
621
619
616
617
615
616
616
615
614
612
612
612
614
612
611
608
610
608
604
602
600
598
598
598
596
592
589
588
587
587
585
587
589
588
588
591
595
597
598
601
604
610
617
625
632
636
640
646
651
652
655
653
657
656
655
653
655
653
652
652
655
655
655
655
657
656
656
656
655
653
656
656
653
655
653
655
655
653
653
653
651
651
653
651
649
649
649
648
649
649
648
649
649
649
647
648
649
648
648
647
649
649
652
651
651
652
651
649
652
655
656
655
655
655
653
655
656
655
653
653
655
655
653
653
657
655
655
653
653
653
653
653
655
653
652
655
653
655
653
653
655
655
656
656
653
653
655
653
655
653
653
649
653
653
653
655
655
652
652
649
651
653
653
655
655
655
655
656
659
662
664
666
670
666
661
660
670
675
672
666
665
665
660
656
656
656
656
656
657
657
656
656
657
656
657
655
657
656
657
659
656
656
656
655
655
655
655
656
653
649
640
629
624
620
611
582
550
576
614
608
584
560
634
708
684
614
576
595
619
623
617
612
617
623
627
628
632
633
636
636
633
632
633
634
633
632
633
633
632
630
628
629
627
625
627
625
624
623
620
619
619
619
617
615
614
614
612
611
608
608
602
601
597
596
595
592
593
592
589
588
589
591
593
596
598
601
604
608
615
623
629
634
642
643
647
649
652
652
652
652
653
653
651
649
649
649
649
651
652
651
651
649
649
649
649
649
649
648
648
648
649
648
647
644
644
646
644
643
643
644
644
646
644
643
643
644
644
640
643
640
642
640
642
640
644
644
643
644
643
643
642
643
644
646
647
646
647
648
648
649
649
648
648
649
648
648
648
649
649
649
648
649
651
649
651
649
649
649
649
649
651
651
651
651
652
651
651
649
649
649
651
652
651
651
652
649
651
648
648
649
651
651
652
651
651
651
651
649
648
649
651
651
652
649
649
649
655
660
665
666
668
665
657
655
660
668
668
661
660
660
656
649
649
649
651
649
652
649
652
649
649
649
648
649
652
649
648
649
648
652
651
652
651
649
648
646
648
644
640
628
619
617
610
596
557
537
576
602
597
568
536
623
676
651
593
574
598
614
612
606
604
608
614
617
620
623
624
625
624
624
623
624
623
624
623
623
620
621
621
619
619
619
619
619
616
616
615
616
615
614
612
611
608
604
604
602
601
600
598
596
592
588
587
587
584
580
579
580
579
578
579
580
584
585
587
589
598
604
614
619
627
633
640
643
647
647
649
649
651
649
648
646
648
647
644
644
644
644
643
646
644
644
646
644
644
643
644
644
644
644
644
643
644
643
640
640
642
640
640
640
640
640
640
643
644
644
642
643
642
643
643
643
643
644
647
644
647
643
646
646
646
649
648
648
646
647
647
646
648
648
649
651
649
649
648
649
651
651
649
649
651
649
649
649
652
651
651
651
652
649
651
649
651
652
649
649
651
651
651
651
649
651
653
653
655
653
652
651
652
653
652
651
651
649
652
649
651
651
651
649
649
648
649
649
653
653
652
651
651
653
656
660
660
664
662
656
653
655
664
664
659
656
657
653
646
644
646
649
649
648
649
647
647
648
648
649
649
647
647
647
648
647
647
647
646
647
647
647
644
644
646
640
630
619
616
612
598
574
536
551
595
596
576
544
608
704
688
623
572
578
604
615
608
602
604
608
614
617
623
623
624
625
625
624
624
623
625
624
625
623
620
623
621
619
620
621
621
617
617
617
614
612
614
614
612
608
608
608
604
600
597
596
595
591
589
588
588
585
583
584
580
580
579
582
582
583
585
591
596
598
606
612
621
629
634
640
647
648
649
649
649
648
649
649
652
649
648
647
646
647
648
649
649
646
647
647
646
648
644
646
646
644
644
646
643
643
643
644
644
642
643
642
640
642
643
643
642
640
640
638
638
638
640
640
640
640
642
642
646
644
644
646
644
644
643
644
644
646
647
647
649
647
647
647
649
649
649
649
649
649
648
649
651
651
652
649
649
649
652
649
651
655
653
652
652
649
648
648
649
651
648
649
649
649
651
649
651
649
649
648
648
648
649
649
649
648
648
648
648
648
647
649
649
649
649
649
649
653
651
648
649
655
657
660
662
665
661
659
656
660
665
666
660
660
664
656
651
652
655
653
649
647
651
649
649
649
651
649
651
652
651
649
652
652
653
651
652
653
652
649
649
649
648
643
634
623
619
614
604
578
551
582
612
604
576
583
697
747
694
606
572
595
612
616
608
611
615
619
621
623
627
628
632
630
633
633
634
633
632
629
632
630
630
628
624
625
628
627
625
624
625
625
627
623
621
619
619
615
614
615
614
610
610
608
606
602
600
598
600
597
596
595
596
597
597
597
598
600
602
604
608
611
619
625
632
636
640
647
649
649
652
653
655
653
653
651
655
652
652
652
652
649
651
649
652
655
653
655
657
655
653
653
651
652
652
653
655
655
651
649
651
649
648
648
648
648
648
648
647
647
646
647
646
644
644
644
643
644
644
643
644
643
643
646
647
646
646
644
644
647
647
647
647
647
647
648
649
647
648
649
651
649
648
648
649
649
648
648
649
651
649
649
649
649
648
647
647
646
648
649
647
646
647
648
649
648
646
644
649
648
648
646
644
646
646
646
646
647
646
644
644
647
644
646
643
644
644
644
648
647
648
648
649
655
659
660
664
664
656
653
657
664
666
661
656
660
657
652
649
649
648
649
651
652
655
652
653
652
648
646
648
649
652
652
651
651
652
653
653
652
652
651
655
651
647
636
625
625
619
608
574
550
583
612
604
576
548
628
693
668
606
578
600
621
623
615
612
616
621
623
628
630
636
636
634
630
630
633
632
632
630
630
632
630
628
628
628
628
625
625
627
625
625
623
621
620
619
619
615
614
612
611
608
608
604
604
604
600
596
595
592
591
591
588
591
592
592
593
595
597
600
606
611
617
625
632
638
643
647
649
652
652
653
655
655
651
649
649
651
649
648
649
648
649
652
649
652
649
651
651
652
648
648
649
649
647
647
647
649
647
646
647
649
647
647
647
644
644
644
644
644
643
643
644
643
643
643
644
647
647
648
648
648
647
647
648
649
649
648
649
649
649
648
649
649
651
652
653
653
656
656
653
652
652
652
652
655
653
652
653
653
652
653
655
657
653
653
655
657
656
656
656
657
656
653
653
655
653
655
653
655
655
655
655
655
656
656
656
653
655
655
653
652
653
653
652
652
653
651
652
652
652
653
653
657
661
661
665
661
655
651
656
665
665
660
656
655
648
644
642
644
646
643
643
644
644
643
646
646
643
640
640
643
642
643
642
642
642
640
640
640
642
642
640
640
634
623
614
611
604
588
547
533
576
596
588
557
534
628
670
646
585
569
593
611
611
604
602
606
608
611
615
617
617
619
619
619
619
619
619
619
617
617
616
615
615
614
615
614
614
612
612
611
608
608
608
604
604
604
602
601
598
595
595
593
591
588
585
583
580
578
576
576
572
572
572
572
572
572
576
578
580
583
591
598
604
611
617
623
629
633
636
636
638
640
638
638
640
638
638
638
636
636
636
636
636
634
633
636
636
636
636
636
633
634
633
636
633
632
633
634
633
633
633
633
636
633
630
634
633
633
630
632
632
633
633
634
633
634
636
636
636
634
636
636
636
634
636
638
640
638
638
640
640
642
640
642
642
642
640
642
640
642
640
640
640
640
640
640
640
642
643
643
642
642
643
642
642
643
643
640
643
643
642
643
640
642
640
640
642
640
643
644
642
642
640
644
643
640
643
643
642
640
640
642
643
642
640
640
640
640
640
642
640
640
640
644
649
652
653
659
651
643
643
649
655
651
642
644
643
636
632
634
636
640
633
633
632
633
636
636
633
630
633
634
633
632
629
632
633
633
629
629
629
630
630
629
623
612
606
602
591
576
540
527
572
587
574
542
561
683
693
634
568
564
584
598
598
591
591
595
598
602
604
608
610
608
610
610
610
611
608
611
611
612
608
608
606
606
606
606
606
604
604
604
602
602
602
601
597
593
595
593
588
587
583
584
583
583
578
576
574
572
572
569
566
569
569
570
572
574
578
579
584
589
598
608
614
619
624
630
636
638
640
642
642
642
640
640
638
638
634
636
638
638
638
636
636
636
636
636
638
638
638
640
638
636
638
636
636
636
636
636
633
632
632
633
630
632
633
634
632
630
632
632
632
629
629
629
630
633
633
633
632
630
632
634
636
636
636
636
636
636
638
638
638
636
636
636
638
638
638
640
638
638
640
640
638
640
640
640
640
642
640
640
642
643
643
640
638
636
640
642
642
640
640
640
640
640
640
640
640
640
640
640
643
642
640
638
640
643
643
643
643
643
643
643
642
643
646
643
648
652
656
657
659
661
656
652
655
661
665
661
655
655
653
649
646
648
648
646
643
644
647
649
646
647
647
648
646
643
640
644
646
647
647
647
647
647
646
646
647
646
640
629
619
614
608
604
588
555
564
604
610
589
572
653
742
720
643
579
579
604
617
614
608
610
612
616
619
624
624
624
624
627
627
624
627
624
624
625
629
627
624
620
621
623
621
619
621
620
623
624
623
619
617
615
614
614
614
611
608
610
608
604
600
598
597
596
595
595
595
596
596
596
596
595
598
600
604
610
614
617
623
629
636
640
647
649
653
657
656
655
655
655
653
655
653
652
649
651
649
648
649
651
652
651
652
651
651
652
649
649
649
649
649
648
648
648
648
647
647
644
646
644
646
644
647
647
644
644
643
644
642
640
640
640
642
643
644
644
643
644
643
644
643
643
643
644
644
646
647
649
649
649
648
649
649
651
649
652
651
653
652
652
652
651
652
653
652
652
653
656
656
655
655
655
653
656
656
655
655
656
656
657
656
655
653
655
656
656
659
657
655
656
655
655
655
652
649
652
653
653
652
655
655
656
659
661
668
668
670
672
664
661
661
670
672
665
660
662
660
656
655
655
656
655
653
656
656
653
655
657
659
657
659
657
653
653
655
656
656
656
656
656
656
656
653
648
640
632
629
625
608
572
559
597
617
610
576
568
668
692
649
592
591
617
629
624
616
617
623
625
629
633
634
633
633
636
636
634
636
636
634
630
632
630
630
630
629
629
629
629
627
627
627
627
624
623
619
619
617
615
615
614
608
608
604
604
598
597
596
596
593
592
591
591
589
589
591
593
596
598
602
606
610
619
624
630
636
644
649
655
655
655
655
655
652
651
651
651
653
652
649
652
653
653
653
655
655
653
651
651
652
652
649
649
651
652
651
651
651
649
649
651
649
648
649
649
651
651
649
649
648
648
648
648
647
648
648
649
644
646
648
649
649
649
649
649
651
652
651
652
653
653
655
652
651
652
652
651
652
652
655
655
655
653
653
653
652
651
651
653
653
653
655
655
655
655
653
655
655
653
657
655
653
653
649
652
652
651
649
649
652
652
649
652
652
652
651
652
652
653
652
653
653
652
649
652
649
652
649
655
660
664
665
668
668
659
653
655
664
668
659
653
656
655
649
649
649
649
649
649
649
648
644
647
648
649
649
649
647
647
648
646
648
649
648
649
649
648
647
647
644
643
633
623
619
614
604
578
540
561
601
604
585
544
588
683
672
621
578
592
614
619
616
608
610
614
619
624
625
627
628
629
628
630
629
628
629
628
629
629
629
628
629
629
624
625
625
627
625
625
623
623
620
619
617
615
614
612
611
608
606
604
602
598
598
595
592
591
588
585
585
585
585
584
584
584
587
591
595
601
604
612
620
629
636
642
644
649
651
651
649
649
652
651
652
652
651
651
652
651
649
651
652
655
652
649
652
652
649
648
649
649
649
648
648
649
649
648
649
649
648
648
647
647
644
646
644
644
643
643
644
644
644
643
643
644
644
643
643
643
644
644
644
644
644
644
648
649
646
644
647
648
648
647
647
649
648
649
649
651
651
652
651
652
649
648
648
646
649
648
649
649
648
648
649
649
649
649
647
648
647
646
647
647
648
647
648
647
648
647
646
646
644
643
643
644
647
648
648
647
646
644
644
644
643
640
643
647
651
653
653
659
656
649
648
651
659
659
651
652
653
644
643
644
648
648
647
644
644
644
647
648
648
648
646
643
644
643
647
644
644
647
648
649
644
642
646
644
640
634
619
612
608
597
576
536
546
592
595
578
547
595
704
697
630
572
578
601
612
608
600
602
608
611
614
617
619
620
619
619
617
617
619
619
620
617
615
616
616
617
615
612
614
614
614
614
611
611
608
608
608
606
606
604
601
598
597
595
592
592
588
587
583
582
578
578
576
574
574
572
574
576
578
580
584
588
595
598
606
614
623
630
633
636
638
644
646
646
644
643
644
643
640
643
640
642
643
646
643
643
642
644
646
640
640
642
642
640
640
642
642
640
636
638
640
640
640
640
640
636
640
640
636
638
640
642
640
636
636
638
640
638
640
640
640
640
640
640
640
642
642
644
644
643
643
647
644
646
647
647
647
646
647
646
648
648
648
649
648
649
649
649
649
648
649
649
648
648
648
649
649
649
649
651
651
649
649
649
649
648
648
649
648
646
649
649
649
648
648
648
646
648
647
649
651
651
649
647
647
648
649
649
651
649
649
655
656
661
664
665
664
656
657
661
668
668
664
660
660
657
649
649
653
653
653
652
652
653
653
655
652
653
651
653
653
652
653
655
655
653
653
653
655
656
656
655
655
652
643
633
625
620
615
601
563
556
604
617
604
572
604
717
724
664
593
583
608
625
624
615
614
620
627
629
630
633
634
636
636
636
636
636
636
636
636
634
632
630
630
630
630
629
629
629
628
625
625
624
623
623
620
619
617
616
615
614
611
608
608
606
602
600
598
597
596
595
593
593
592
592
591
592
595
598
598
604
608
615
620
630
636
640
647
651
653
657
660
661
662
661
659
661
659
659
659
660
661
662
660
660
659
660
660
659
660
659
660
660
659
659
660
659
657
657
659
657
655
653
655
653
655
653
653
655
653
655
653
651
651
652
653
652
652
652
652
651
651
652
653
655
653
655
656
657
656
656
660
660
657
657
659
662
660
660
659
662
661
661
660
660
661
662
660
660
661
662
660
660
662
661
662
662
660
660
660
660
656
656
659
660
659
659
657
659
657
656
657
657
656
657
656
659
659
656
653
655
655
656
656
657
656
656
656
655
653
653
656
657
660
666
670
672
670
665
660
659
666
674
672
665
665
660
653
651
653
655
657
656
656
657
657
657
656
656
656
657
656
653
655
657
656
655
653
655
653
653
653
651
651
648
644
636
625
621
614
604
576
542
569
608
608
588
546
593
683
672
617
574
588
614
617
611
606
608
614
617
619
620
623
624
628
628
628
624
624
624
623
624
621
623
620
621
621
620
619
619
616
614
615
614
611
611
608
608
608
606
604
602
598
597
596
592
588
587
584
583
578
576
576
574
574
574
574
576
576
578
583
588
592
601
608
614
620
628
633
636
640
644
646
647
644
646
644
647
646
647
647
646
643
643
643
646
644
644
643
644
643
643
640
642
640
640
640
642
640
638
640
640
640
638
638
640
636
636
636
640
638
636
636
636
638
636
638
636
636
636
636
636
638
640
640
642
640
638
640
640
640
640
642
642
640
640
644
644
643
643
642
644
643
644
643
644
644
644
643
643
643
643
643
644
644
644
644
643
642
644
642
644
643
644
643
643
642
640
642
642
644
643
644
643
644
643
643
640
643
643
644
644
643
643
644
644
643
643
642
644
642
643
644
640
643
643
646
651
655
656
659
657
648
647
649
659
661
655
649
653
649
644
644
646
646
644
644
644
646
643
646
644
644
644
646
647
647
646
644
643
643
644
643
647
646
646
644
647
643
636
627
617
614
604
588
552
527
570
598
596
570
546
636
697
668
602
572
588
610
614
608
602
606
610
615
619
621
620
621
624
623
625
625
627
624
623
621
621
621
620
621
623
621
617
619
617
617
617
615
615
614
612
611
608
608
604
602
601
601
597
593
592
588
585
583
579
579
578
578
576
574
574
574
576
576
578
583
588
595
604
611
619
624
633
638
643
647
649
649
652
652
653
652
652
651
651
649
649
648
648
649
649
648
649
649
649
649
652
649
652
651
652
649
651
648
649
649
647
647
647
643
647
647
648
647
647
646
647
644
644
644
644
646
647
647
646
647
647
644
646
647
648
647
648
649
649
648
648
649
649
649
651
649
652
652
652
653
655
653
655
655
657
659
656
656
657
656
655
657
657
656
656
657
660
659
657
657
656
656
659
660
660
660
659
656
657
656
656
657
657
657
657
659
657
657
656
657
659
659
659
659
659
659
659
657
660
660
659
659
660
660
660
659
660
662
668
670
674
676
672
664
662
668
675
676
668
665
668
664
660
660
662
661
665
660
661
666
666
664
664
665
665
664
664
662
665
664
664
665
665
664
664
664
661
664
661
660
652
640
628
624
612
593
551
547
600
614
604
572
588
704
719
670
601
589
614
629
625
616
615
621
627
629
633
636
638
638
636
636
636
636
638
638
636
633
636
636
636
633
632
629
632
630
628
625
624
624
624
625
625
621
617
615
614
611
610
608
606
604
598
597
595
591
588
588
585
587
587
587
587
587
587
591
596
600
606
612
617
627
636
644
649
655
659
661
665
665
664
661
661
660
659
659
659
660
659
660
659
657
660
660
659
660
659
659
660
661
661
659
660
659
659
657
657
656
655
653
655
655
655
653
651
653
656
656
656
655
653
653
655
653
653
655
655
653
653
653
655
655
656
659
657
656
656
657
659
656
659
660
661
661
661
660
660
660
661
660
660
660
661
664
664
659
660
660
659
659
660
660
659
660
660
660
661
660
659
656
657
657
659
659
655
653
653
657
660
659
659
659
660
656
656
656
657
656
653
653
656
657
656
655
655
655
656
656
656
653
656
655
655
653
656
660
668
668
668
665
660
656
660
668
670
662
661
664
660
656
653
655
655
655
652
649
655
652
652
651
652
651
653
653
652
655
656
656
655
655
656
656
656
657
657
659
657
652
640
627
623
614
608
592
559
576
623
627
604
595
680
762
736
657
591
583
610
624
623
612
615
619
625
628
629
633
633
633
634
636
636
636
636
636
634
636
636
636
633
633
632
632
630
633
632
629
628
629
628
624
625
625
624
621
616
616
615
612
610
608
606
604
602
598
598
598
597
596
596
596
596
597
598
598
602
608
614
617
625
633
640
647
652
656
660
664
664
664
665
665
665
662
661
662
662
660
660
661
661
664
662
660
660
660
660
660
659
659
660
657
659
660
660
659
660
660
657
656
653
655
655
655
655
653
655
653
652
652
652
652
652
651
652
653
652
653
651
653
655
653
655
655
653
655
657
656
657
657
659
659
660
660
660
659
660
660
660
659
659
660
660
660
660
660
660
659
659
660
661
661
661
660
665
661
660
660
660
659
659
659
657
657
659
657
660
659
659
660
662
659
659
659
659
657
657
659
657
657
656
657
656
655
656
656
657
656
656
656
660
660
665
668
672
672
668
662
660
664
672
670
665
661
661
656
655
655
655
656
656
655
655
655
653
653
652
651
652
652
651
652
653
653
652
653
651
651
649
649
651
649
646
640
629
621
615
608
589
553
546
592
614
611
582
570
666
696
657
595
582
604
621
619
610
608
612
616
621
624
627
624
625
627
627
625
624
624
625
627
628
627
624
624
624
624
623
621
620
621
619
617
619
615
614
614
614
612
608
606
606
604
600
597
596
592
591
588
585
580
579
578
578
578
579
578
578
582
583
584
591
597
606
611
621
629
636
640
643
648
651
652
655
653
653
649
649
652
651
651
649
648
648
649
651
648
648
649
649
649
649
648
647
647
644
643
644
644
643
643
643
643
644
646
644
643
643
643
640
642
640
643
642
640
640
640
640
642
640
640
642
640
640
643
643
640
643
643
643
643
644
643
643
644
643
644
648
647
647
644
646
646
644
644
646
644
647
647
647
646
643
644
647
647
646
646
643
644
644
647
644
646
644
646
647
647
647
647
644
646
644
646
644
643
643
644
644
647
646
646
644
644
643
642
643
644
643
644
646
644
640
642
642
643
648
655
655
656
656
649
647
646
653
659
655
649
652
649
644
643
646
646
647
644
646
646
644
643
643
643
644
644
644
642
643
644
647
648
646
644
644
644
646
643
644
640
629
616
608
602
591
566
529
551
598
601
587
556
604
706
693
630
572
578
602
614
604
598
598
604
608
612
615
619
619
617
619
619
619
617
617
616
619
616
615
615
615
614
614
612
614
611
608
608
608
608
608
604
604
602
600
598
598
596
593
592
588
583
580
578
576
576
574
574
572
572
569
569
572
572
574
578
583
588
593
600
608
615
624
629
636
640
646
648
648
647
647
647
647
646
643
643
643
643
644
643
644
643
644
643
643
640
640
640
640
643
644
644
640
642
640
640
640
640
640
640
640
640
638
640
640
638
636
638
636
636
638
640
640
640
640
640
640
640
640
640
640
640
640
640
643
640
640
642
644
646
643
643
644
646
646
646
644
647
646
647
647
648
648
649
649
649
649
648
646
647
648
649
648
648
648
648
649
649
649
651
651
648
646
647
646
647
644
646
646
648
648
646
646
647
648
648
649
644
644
644
647
644
646
647
649
651
652
656
660
660
662
656
649
651
657
660
659
656
657
659
655
648
648
648
649
648
644
646
647
649
648
647
644
647
647
648
648
648
648
648
649
649
652
651
649
647
647
643
634
621
612
604
598
579
548
576
619
614
591
592
700
751
700
612
576
592
614
619
610
606
608
615
617
621
621
624
625
628
627
627
625
627
625
624
625
625
623
623
620
621
619
619
620
620
621
621
619
616
614
612
614
614
611
608
604
604
604
601
598
597
595
592
588
588
587
588
588
589
589
592
595
596
597
600
606
611
617
624
630
638
643
648
655
653
653
653
653
653
653
652
655
655
653
653
653
651
652
649
652
651
651
652
651
653
652
651
649
649
652
651
651
652
652
649
649
651
651
649
649
649
649
649
648
647
647
647
646
646
646
644
647
647
644
646
646
646
646
644
644
647
648
648
649
649
649
649
652
651
649
649
652
653
652
649
649
651
652
649
653
653
653
652
651
652
653
655
656
655
653
652
652
652
652
652
651
651
649
649
649
649
649
649
649
648
649
649
649
648
649
649
651
652
649
649
649
652
653
653
653
652
653
653
655
656
661
665
665
666
660
659
660
665
668
666
660
657
657
652
649
649
651
651
649
649
651
648
649
649
652
653
651
651
651
649
649
648
648
649
649
649
648
649
649
646
642
629
624
619
608
596
557
542
585
608
601
570
561
666
696
657
593
578
604
623
620
612
610
614
617
620
624
625
627
629
629
629
629
629
625
627
627
624
625
625
623
624
623
623
620
620
620
620
620
619
615
614
612
611
611
608
606
604
604
601
597
595
593
589
587
584
582
582
582
579
580
579
582
584
585
588
593
598
608
614
621
628
636
640
643
647
649
653
652
651
651
649
652
649
649
648
648
649
649
649
648
649
649
649
648
648
646
648
648
648
647
644
646
646
644
642
642
642
642
640
643
642
640
640
640
640
640
640
638
638
640
640
642
640
640
642
640
640
640
644
644
643
643
644
644
646
647
648
647
647
648
648
648
647
648
648
647
648
649
649
648
647
648
648
648
649
649
648
648
649
649
648
648
649
649
651
649
649
649
649
649
648
649
649
648
649
648
649
648
648
649
648
649
649
649
648
648
647
649
648
647
646
649
648
648
648
651
656
659
662
666
659
653
655
662
666
664
656
657
655
649
648
649
649
648
649
649
649
648
647
649
648
648
648
648
647
648
649
649
649
648
648
648
647
647
647
647
643
634
619
615
608
596
568
533
563
604
602
585
553
620
704
679
615
574
592
616
619
610
606
610
615
619
619
623
624
625
625
625
625
627
625
624
624
621
623
620
623
621
619
619
619
620
620
619
617
615
615
614
611
611
608
608
604
604
601
598
595
595
592
588
585
584
579
578
578
576
578
578
578
578
580
583
585
591
598
604
611
617
628
634
638
646
649
652
652
653
653
652
651
648
648
646
647
647
647
647
647
647
648
649
647
647
647
646
647
644
644
644
646
644
643
644
642
642
640
640
640
642
642
642
640
640
640
642
640
640
640
642
640
640
640
642
640
643
642
642
643
643
644
644
643
642
644
646
644
642
643
644
644
643
643
643
644
644
647
648
648
647
647
647
646
647
646
646
644
643
646
644
647
644
644
644
647
646
644
642
644
646
647
647
644
647
646
643
642
643
644
646
644
646
644
644
644
643
643
644
644
647
647
644
643
646
644
651
655
656
659
656
649
648
652
660
661
656
652
651
649
644
643
644
643
644
644
646
647
648
647
647
644
646
646
647
644
646
646
646
644
644
644
644
646
647
646
644
638
627
617
611
598
583
548
529
576
608
598
572
580
694
724
672
593
572
593
612
614
604
601
604
608
612
617
620
621
623
623
621
620
620
619
620
617
619
619
617
617
617
617
617
615
614
611
610
608
608
608
608
604
604
606
602
598
597
595
592
588
587
585
582
578
576
572
572
572
572
572
572
574
579
582
583
585
593
601
608
615
623
628
636
638
642
644
646
647
646
646
644
644
643
646
642
643
640
640
640
640
642
643
642
643
643
643
640
640
638
640
640
638
640
638
638
636
636
636
636
636
633
634
634
636
633
633
634
633
632
630
634
636
636
636
634
629
630
632
634
633
636
636
636
634
636
636
640
636
634
636
640
638
638
636
636
638
638
640
640
640
642
640
640
642
642
638
638
640
640
640
642
642
640
640
640
640
640
638
640
640
638
640
640
638
638
640
640
640
638
640
640
640
638
638
642
640
638
640
640
638
640
642
644
652
653
656
657
651
646
647
655
656
651
648
652
648
643
640
642
640
640
640
640
643
640
640
642
640
640
640
642
642
642
642
642
644
644
644
642
642
640
640
636
629
617
608
604
597
582
550
540
584
604
591
563
595
706
717
653
579
572
596
611
604
597
598
602
608
611
614
616
617
617
617
617
617
619
619
619
615
615
616
615
612
612
611
612
611
611
608
608
608
608
604
604
604
602
601
600
597
596
593
591
587
584
583
582
578
576
574
572
574
574
572
576
576
578
579
583
587
593
598
608
614
621
628
634
636
640
640
644
643
644
643
644
643
643
640
640
640
640
640
640
640
640
643
644
642
640
640
640
640
640
640
640
636
638
638
640
638
638
636
636
636
634
636
636
636
636
636
636
636
633
633
634
636
636
634
634
634
634
636
636
636
636
636
640
638
640
640
640
640
640
640
640
640
640
642
642
642
642
640
642
642
642
643
640
642
643
643
642
642
643
642
643
644
643
643
644
643
642
646
643
643
643
643
643
644
643
643
644
646
644
643
643
643
643
643
644
646
644
644
646
648
647
647
649
652
656
659
662
661
656
652
655
661
666
660
657
656
653
648
647
647
648
648
647
646
648
647
646
647
648
647
647
644
644
647
646
647
646
647
646
646
644
644
643
640
636
625
619
614
604
591
555
533
574
608
604
580
547
632
692
661
598
576
598
616
615
608
604
608
612
617
619
620
624
623
624
624
623
621
624
623
623
623
620
620
619
619
617
619
616
615
614
615
614
614
612
610
611
608
606
604
601
598
597
595
592
588
588
585
583
579
578
576
574
574
576
574
576
576
579
583
585
592
598
606
612
621
629
633
638
640
644
646
644
644
644
644
642
642
642
640
640
640
640
640
640
642
642
640
640
640
640
640
638
638
640
636
636
636
636
636
634
636
636
636
634
634
634
633
633
632
634
632
633
634
634
633
632
634
636
636
636
636
636
636
636
638
638
638
638
640
638
640
640
640
642
642
642
640
643
644
643
642
643
643
643
646
646
646
646
646
644
646
647
647
643
643
643
646
646
644
644
646
646
644
643
643
643
644
642
640
640
640
642
642
642
640
640
640
640
642
642
643
642
642
640
640
640
640
644
651
655
655
656
649
644
646
655
659
653
648
649
648
642
640
640
642
643
642
640
642
643
640
643
642
642
642
640
643
644
644
644
644
644
644
644
642
642
638
636
629
619
611
604
595
578
537
537
587
606
596
565
583
694
697
634
572
576
600
614
608
601
600
606
611
615
619
620
619
619
620
619
617
619
620
619
619
619
617
615
616
615
612
612
614
614
612
611
608
610
606
608
604
604
604
600
596
595
592
591
587
582
578
576
576
574
572
572
572
572
570
572
576
578
579
582
588
595
600
608
617
624
629
634
638
642
643
642
644
644
643
643
640
642
640
642
642
642
640
640
640
640
642
640
640
640
640
640
643
642
640
638
636
636
636
636
636
638
638
636
636
636
636
634
636
636
633
632
633
634
632
630
633
632
633
633
636
638
636
633
634
636
636
636
636
638
638
638
640
640
638
638
640
640
642
640
642
640
640
640
640
642
642
640
640
640
640
638
638
640
642
640
643
642
640
642
642
644
644
643
640
640
642
643
644
646
644
644
642
640
642
640
642
642
643
643
640
640
640
644
644
649
652
655
657
660
655
648
649
655
660
659
653
655
656
649
643
642
643
643
643
643
644
644
643
644
643
643
644
644
643
644
644
643
642
640
640
642
643
644
643
640
638
634
621
614
608
600
593
564
542
583
608
604
576
601
720
742
676
597
572
595
614
615
606
604
608
612
617
621
621
621
623
621
624
627
628
624
623
624
624
624
619
617
619
619
617
619
617
619
617
615
614
612
610
612
608
608
608
604
604
604
600
597
598
595
595
593
592
588
587
588
588
588
589
592
593
597
601
604
608
614
620
628
633
640
644
648
653
657
655
655
655
656
655
652
651
651
649
648
649
649
652
652
649
652
652
651
649
649
648
651
653
653
652
652
649
648
648
646
647
649
648
649
648
647
646
646
647
644
646
648
649
647
644
644
647
648
646
643
648
652
649
649
648
649
653
657
655
651
653
655
653
655
656
656
656
656
657
656
659
660
660
656
653
657
657
657
656
660
656
657
655
653
656
656
659
659
657
655
657
656
656
656
656
655
652
653
656
659
656
657
655
655
655
655
659
660
660
661
668
670
672
675
672
668
666
670
676
679
672
668
670
666
661
661
662
661
662
661
664
662
661
661
662
661
661
660
659
664
664
664
664
661
661
660
660
662
660
659
656
648
636
628
624
616
598
568
587
628
625
604
583
665
744
725
648
589
598
620
629
625
619
619
623
628
629
633
636
636
638
638
640
640
636
636
634
630
633
634
634
633
630
630
629
632
629
628
627
624
624
625
624
623
619
619
619
619
614
612
610
608
604
604
602
602
600
598
598
598
598
598
598
601
602
604
606
612
615
620
629
636
640
644
649
652
653
656
659
660
660
659
660
660
656
656
655
655
655
653
656
657
656
655
653
655
655
655
655
656
655
653
655
649
648
648
648
649
647
649
647
647
644
647
646
642
643
642
642
644
643
643
640
640
640
638
638
640
643
642
640
640
642
640
640
640
643
644
646
644
646
646
644
647
646
648
647
646
647
646
647
647
647
648
647
646
647
647
647
648
648
648
648
649
648
648
648
647
646
646
644
647
648
648
648
649
648
647
648
647
647
647
648
649
649
648
647
648
647
648
651
655
659
660
666
668
660
655
653
659
665
662
657
656
656
652
649
649
651
651
648
649
649
651
648
648
649
652
649
649
651
649
649
652
651
649
648
647
648
648
649
649
646
636
624
621
619
611
588
552
564
608
608
597
556
569
670
680
636
582
585
610
621
617
610
611
614
617
619
620
624
625
625
627
627
627
628
625
624
624
625
627
624
624
624
623
624
623
623
620
620
620
619
619
615
614
614
614
610
611
608
606
604
602
601
598
596
595
595
592
588
591
589
588
588
589
592
595
596
600
604
611
617
625
630
640
646
649
652
655
656
659
660
659
657
659
659
657
655
653
656
657
655
653
655
655
655
653
653
652
652
653
653
651
651
652
649
651
652
652
649
649
648
648
648
646
647
644
644
647
647
647
646
646
646
644
644
647
646
647
647
647
647
647
648
648
649
647
648
649
649
651
651
651
649
651
651
649
651
652
652
652
653
653
653
655
653
653
653
655
655
653
653
657
656
655
653
653
655
653
652
652
652
655
653
655
652
652
649
652
652
651
653
653
655
656
655
655
653
653
652
652
651
653
660
661
664
666
666
662
659
660
668
672
666
660
660
660
655
653
655
653
656
656
656
657
655
655
656
655
653
656
656
657
656
655
653
657
656
655
655
657
655
656
655
649
642
630
627
621
611
591
551
552
598
612
602
566
560
668
689
652
595
588
612
623
621
615
615
619
623
625
628
629
630
630
632
634
633
632
632
632
629
628
628
629
629
628
627
627
624
623
623
621
621
620
620
619
617
615
614
612
611
608
604
604
602
601
598
595
592
589
588
587
587
585
583
584
583
585
587
588
592
595
600
608
616
623
628
636
640
643
647
649
652
652
652
651
649
649
649
648
648
648
648
646
646
647
647
646
646
644
646
647
644
644
643
644
644
643
644
644
643
643
640
642
640
640
640
640
640
640
640
642
640
638
640
640
640
640
640
640
640
640
640
643
642
640
643
644
640
640
643
644
646
644
646
644
646
646
647
649
648
647
649
648
649
652
652
653
652
648
647
648
649
649
649
651
652
651
649
649
649
651
649
649
649
651
649
649
649
652
649
651
649
649
649
649
648
649
649
652
652
652
647
649
648
648
649
649
649
655
659
661
665
665
660
657
656
664
666
660
659
661
660
655
649
652
651
655
653
652
655
655
653
653
652
651
652
652
652
652
652
652
649
653
652
653
655
653
651
651
649
648
638
625
620
614
604
582
547
563
610
614
598
572
619
729
717
649
585
584
608
624
617
608
612
617
621
624
627
630
633
632
632
636
636
636
636
634
633
633
632
629
632
633
632
629
625
625
625
625
627
625
624
623
624
623
619
615
615
614
614
608
606
606
604
604
600
597
595
596
595
593
595
596
597
601
602
602
608
615
620
628
636
640
649
657
661
666
668
670
670
668
670
670
668
664
664
665
666
665
664
662
664
665
666
664
664
662
662
665
664
664
665
664
661
662
660
660
660
660
660
661
659
659
659
657
653
655
657
657
656
656
655
655
655
656
655
655
656
657
655
655
657
656
657
657
659
661
661
660
660
659
660
661
660
661
660
661
662
664
665
668
665
662
664
664
662
661
660
664
662
661
660
662
661
661
662
662
662
662
660
662
665
664
661
662
661
661
662
660
660
659
660
660
661
662
662
664
661
660
661
665
672
674
676
678
675
670
668
672
679
681
675
672
674
672
665
664
665
664
666
665
664
662
662
665
664
661
661
664
664
664
664
662
661
662
664
664
665
664
665
662
659
655
647
638
630
625
617
598
569
584
632
636
617
596
668
752
729
653
592
597
620
633
628
620
623
627
632
634
636
638
638
640
640
640
640
642
640
640
640
640
636
636
636
636
636
636
633
633
632
632
629
630
628
625
627
625
623
620
619
619
616
614
612
608
606
604
604
604
601
602
598
601
601
601
602
604
608
608
614
619
623
628
636
642
646
651
657
660
662
664
664
665
664
664
665
662
660
660
661
661
657
659
660
660
659
659
659
660
660
659
657
657
656
656
655
657
653
653
653
652
649
648
649
649
649
648
649
649
647
644
644
643
644
644
644
643
644
644
644
646
644
646
644
646
643
646
648
647
647
646
644
643
644
644
644
647
646
646
647
647
647
647
644
644
644
646
644
644
646
646
644
647
646
646
643
642
643
643
643
643
642
643
643
643
642
643
642
642
640
642
643
643
642
640
640
642
642
642
643
642
643
644
649
655
655
659
659
651
648
652
660
662
656
652
652
649
640
640
642
646
644
643
643
644
644
643
643
644
644
644
643
644
643
644
644
644
644
643
644
644
644
643
642
640
630
617
615
608
597
566
536
572
610
610
592
552
608
683
666
606
570
588
614
619
608
604
608
614
615
615
619
621
624
624
624
624
624
623
623
620
621
620
619
619
619
619
619
617
617
616
616
612
614
612
611
612
608
608
608
606
604
601
598
597
595
592
588
587
585
585
582
579
578
580
580
582
583
585
588
588
593
598
604
614
619
627
632
638
640
644
646
647
646
646
647
649
647
647
646
647
644
646
646
644
643
643
643
644
643
643
642
640
640
640
640
640
640
640
640
642
638
640
640
642
640
640
640
640
638
638
640
640
638
640
640
640
640
640
640
642
643
644
644
644
644
644
643
644
643
643
644
643
644
646
644
646
644
646
648
649
648
648
649
649
649
648
647
649
649
649
649
652
652
653
653
653
649
649
652
649
649
652
653
655
653
651
652
653
653
653
652
651
651
652
652
652
652
653
653
652
651
651
653
655
656
656
657
661
665
665
668
668
661
657
659
668
672
666
660
661
660
655
649
653
653
656
653
655
655
652
649
655
655
653
652
651
653
655
653
653
655
655
655
655
652
651
651
649
646
638
628
623
614
602
570
546
582
619
616
597
565
640
710
675
608
576
597
619
623
614
608
614
617
623
625
627
629
630
629
630
632
629
629
629
627
628
629
629
628
627
627
628
627
623
624
625
627
624
623
624
620
617
615
614
614
612
612
608
604
602
601
601
597
596
597
595
595
592
591
593
595
593
595
598
601
604
611
619
627
629
638
646
652
655
657
661
661
662
664
661
661
661
660
661
662
661
664
662
660
660
660
662
661
661
660
659
659
660
657
660
660
660
660
659
657
659
659
660
659
660
660
660
659
653
652
655
655
653
656
657
659
659
656
656
656
655
655
657
659
660
660
660
660
660
660
659
660
661
662
664
664
662
662
660
661
664
664
661
661
660
661
664
662
662
660
661
660
660
660
662
664
660
659
660
660
661
660
657
659
661
664
659
660
661
661
660
660
660
661
662
660
657
657
657
656
657
657
660
661
662
665
670
672
670
674
672
665
664
668
676
676
670
668
670
666
660
659
660
660
662
660
662
661
659
659
660
660
660
659
659
659
659
659
661
662
661
660
659
656
656
657
656
649
638
629
624
614
604
578
566
608
629
619
593
620
734
751
688
611
595
615
632
629
623
623
627
629
633
636
638
640
640
640
640
642
642
640
638
636
638
640
640
636
636
636
633
633
634
634
634
633
630
629
629
624
624
625
625
621
619
619
615
615
615
614
612
611
610
606
606
606
606
608
608
610
612
615
616
619
625
629
638
646
653
659
665
668
670
672
672
674
674
672
670
670
668
668
670
666
668
670
670
670
668
670
672
672
672
668
668
668
668
668
665
668
665
666
665
665
666
666
666
664
660
660
659
659
659
660
660
659
656
656
657
656
657
657
657
656
656
659
659
656
656
657
659
660
657
656
659
659
659
656
660
657
659
659
659
659
660
660
660
657
659
660
661
662
659
659
660
661
659
659
660
659
659
659
660
660
660
659
656
659
659
660
660
659
659
657
660
660
659
659
660
660
659
659
659
662
668
672
675
678
675
668
665
668
674
672
668
668
670
665
660
659
659
659
660
660
662
660
659
662
661
660
659
659
657
659
660
659
660
660
661
660
659
659
656
657
653
640
632
627
620
610
578
559
601
629
624
598
576
666
711
676
608
592
614
632
632
619
617
621
625
629
634
636
636
636
636
636
636
636
636
636
636
636
634
636
633
630
630
630
630
629
629
629
630
629
629
624
624
624
624
621
619
617
614
615
612
608
604
604
600
598
598
600
598
598
598
596
597
601
604
604
606
612
619
625
634
640
644
648
655
659
659
661
664
664
662
661
661
661
665
662
662
660
662
661
661
661
660
661
661
661
662
659
660
660
660
660
660
657
657
656
657
659
660
659
659
659
660
657
657
656
659
659
659
659
660
657
656
656
653
655
653
655
657
655
653
655
657
656
656
656
660
659
659
657
656
660
661
660
661
659
659
660
659
656
659
659
660
660
657
659
660
660
660
657
659
659
659
659
660
659
659
659
657
656
656
656
656
656
656
657
657
656
659
659
657
657
659
659
657
656
657
656
657
659
665
668
670
672
670
665
661
665
674
674
668
666
665
662
655
655
657
659
660
656
656
656
656
655
657
656
655
653
653
655
656
656
656
655
655
653
653
655
651
652
648
640
634
624
620
614
597
556
550
597
615
610
576
565
666
700
665
600
585
611
629
625
617
615
620
627
629
632
632
633
630
633
636
636
636
636
636
636
636
636
634
633
633
632
632
630
632
632
629
627
625
624
625
623
621
617
615
614
612
608
608
604
604
601
597
597
596
592
588
588
588
588
588
591
593
593
595
598
604
610
617
625
632
640
646
649
653
656
656
657
660
660
659
659
656
656
655
653
655
653
653
653
655
652
652
652
651
652
651
649
649
649
648
649
649
648
648
649
648
647
647
642
644
644
647
644
647
648
647
648
648
648
648
647
648
648
648
648
649
648
648
647
646
648
649
649
649
651
648
648
648
649
652
649
649
651
652
649
651
652
651
653
655
652
653
652
651
651
652
653
655
655
655
655
655
655
656
653
655
653
656
656
657
657
657
656
655
656
656
655
657
656
657
655
655
655
656
655
660
665
666
668
670
668
664
660
665
674
674
668
665
664
660
657
656
659
660
659
655
656
659
657
657
659
659
659
659
659
659
659
659
656
656
659
659
656
655
655
653
647
634
624
620
612
602
572
542
576
612
608
582
574
685
736
691
612
580
598
620
623
612
612
617
624
629
629
629
632
633
634
633
634
634
636
633
630
632
629
630
629
628
628
627
625
624
623
624
624
623
624
621
620
617
617
614
608
610
608
604
602
598
597
596
595
593
592
591
588
585
587
587
589
593
595
598
602
608
615
619
624
634
640
646
649
649
653
657
655
657
655
655
653
653
653
653
651
653
653
649
648
648
652
653
649
648
649
649
649
649
652
651
649
648
648
647
648
647
647
648
649
651
648
647
646
644
646
643
644
644
644
647
647
647
648
646
646
643
646
647
648
652
653
652
652
653
652
653
653
652
655
657
655
651
651
653
652
652
655
655
655
653
655
655
655
656
656
660
657
655
653
657
660
657
655
655
657
656
659
660
660
659
659
659
659
656
657
657
657
656
659
660
659
659
660
660
664
668
670
675
672
665
668
672
678
676
672
670
668
666
662
662
662
662
664
664
665
664
664
664
662
661
665
664
664
664
665
668
664
664
664
661
664
665
665
665
661
651
640
629
624
619
608
572
568
617
632
619
595
644
752
756
681
606
596
619
632
632
624
624
629
634
636
640
640
643
644
644
644
644
647
644
644
643
642
642
640
640
640
640
638
638
636
636
636
636
636
633
629
629
629
628
627
624
624
617
619
619
617
615
612
611
610
610
608
608
608
611
611
610
612
614
616
623
628
636
644
652
653
659
664
668
668
670
670
670
670
670
670
668
666
668
668
668
670
672
670
668
668
668
668
665
666
666
668
666
665
664
661
664
660
660
660
660
659
657
657
659
660
656
656
655
653
653
653
653
655
655
652
653
655
655
653
652
655
656
656
656
655
655
655
656
655
655
655
656
659
660
657
656
655
655
655
657
656
655
653
653
655
653
653
653
653
655
655
653
652
652
651
651
653
655
651
651
651
653
652
652
652
649
651
652
653
655
653
653
652
651
651
653
660
668
668
668
665
660
660
666
672
668
661
661
664
659
653
652
653
657
655
655
656
657
656
656
655
657
659
659
660
662
661
661
661
660
662
664
664
664
661
659
649
638
629
625
617
598
561
572
615
620
608
572
615
704
687
628
588
604
627
633
628
624
624
628
633
636
636
636
638
640
638
640
640
640
636
638
640
638
636
636
636
636
636
634
633
634
630
629
629
630
629
628
625
624
623
620
619
617
615
614
611
608
604
602
600
598
596
596
596
598
598
597
598
604
606
608
614
619
627
634
640
648
651
660
664
666
666
665
664
665
664
664
665
665
664
662
660
660
659
661
660
661
659
657
660
656
656
656
656
657
656
657
656
655
655
655
655
655
652
651
651
653
653
651
649
649
648
648
648
647
647
647
648
651
651
648
647
648
648
649
649
649
651
651
649
651
651
652
653
652
653
652
649
653
652
649
651
652
653
652
653
651
653
653
652
652
652
653
655
657
656
656
655
655
653
653
649
652
652
653
653
655
653
653
651
652
649
651
652
652
652
651
651
652
652
652
653
657
660
661
664
668
661
656
656
662
668
666
660
660
660
653
649
651
653
656
653
653
653
651
655
655
655
656
656
657
655
655
653
652
652
656
656
655
653
651
649
649
644
636
625
621
614
602
572
537
566
604
608
588
547
616
697
675
608
576
598
619
619
612
610
614
617
620
624
624
624
627
628
629
629
628
625
625
627
624
624
627
624
624
624
620
617
617
617
619
616
615
615
614
614
612
608
608
606
604
602
601
597
595
592
588
588
584
582
582
580
579
580
578
579
582
585
588
592
597
604
614
620
628
633
640
644
648
649
651
651
652
649
648
649
648
649
649
648
648
647
647
646
646
648
649
647
644
644
646
644
644
644
644
646
646
644
647
643
640
640
644
643
644
644
643
644
643
642
643
646
644
643
644
647
646
646
644
644
644
644
646
646
647
648
649
649
648
649
649
649
648
648
649
649
651
652
655
653
653
655
655
652
652
653
652
652
655
655
652
652
653
653
655
656
656
653
655
655
655
653
653
653
653
653
653
651
651
652
653
652
652
653
653
655
652
653
655
655
656
664
665
666
668
665
660
660
665
670
668
659
660
660
655
651
653
653
655
653
651
655
655
655
653
655
657
655
655
652
651
655
656
655
653
652
653
655
653
653
651
643
630
619
614
606
591
548
544
592
608
600
568
578
694
706
652
587
584
608
620
617
611
608
614
619
625
627
628
628
628
628
627
628
624
624
625
624
624
625
627
624
624
624
625
627
624
623
620
619
619
617
616
614
612
611
608
608
606
604
598
598
598
595
589
588
585
583
582
583
584
583
583
585
588
589
592
597
604
611
619
629
636
640
643
649
653
653
655
653
655
656
656
655
655
653
651
651
652
653
651
649
652
653
649
649
649
649
652
649
651
648
646
647
647
644
644
643
647
647
647
644
647
646
644
643
643
644
644
646
647
647
646
647
646
646
644
644
644
646
646
648
649
651
649
647
649
652
651
651
651
653
653
655
657
656
655
652
653
652
652
656
657
656
656
656
657
655
653
652
652
653
655
655
655
653
653
655
655
653
651
649
649
651
652
652
653
652
653
653
652
651
652
649
649
653
653
655
655
655
659
665
668
668
668
668
661
660
666
674
672
666
665
668
661
659
659
660
661
659
657
657
660
660
661
660
657
657
657
659
660
659
657
659
661
660
659
657
660
660
660
657
647
636
625
621
612
598
564
568
616
632
615
591
652
755
736
659
593
595
620
630
623
616
619
623
624
629
632
633
636
636
636
636
636
636
638
640
636
636
634
636
636
636
636
633
630
630
629
630
630
625
627
624
625
624
623
623
621
619
617
616
614
611
608
604
601
601
601
602
600
600
600
604
602
604
604
608
614
616
623
628
636
643
648
653
657
660
664
664
665
664
661
660
661
662
661
661
661
662
661
660
660
660
659
659
660
660
661
660
661
660
659
659
660
656
657
656
657
655
653
655
652
649
651
653
651
653
653
651
652
651
651
651
652
649
651
652
651
652
651
652
652
653
656
653
652
655
656
656
659
659
659
656
657
656
656
656
657
659
659
660
660
659
660
659
660
660
660
660
660
660
660
660
659
659
657
659
659
657
657
657
660
656
659
659
656
656
656
659
659
656
656
655
655
656
656
656
657
660
668
670
672
672
665
660
662
670
674
670
665
666
662
660
659
660
661
660
660
657
659
657
655
657
659
659
657
655
653
656
656
657
657
659
657
656
655
653
651
651
644
630
624
621
611
591
553
564
611
619
608
572
608
704
692
634
587
598
620
628
620
615
617
623
625
627
629
633
634
633
632
632
636
636
633
632
632
632
634
633
633
629
629
628
629
627
624
624
623
623
621
620
617
617
615
615
614
610
608
604
604
602
597
596
596
595
593
591
591
588
591
592
593
595
598
604
608
615
619
628
634
643
649
653
656
660
660
660
659
660
659
656
656
655
653
655
656
655
655
656
657
655
655
652
653
653
655
653
651
653
652
649
649
648
649
647
648
647
649
648
647
647
647
646
644
646
644
644
643
644
647
644
647
647
647
646
646
647
647
648
648
649
649
649
648
649
651
649
649
649
652
649
649
649
652
651
649
649
651
653
652
652
655
656
653
652
652
651
653
652
652
652
653
655
655
652
653
652
651
649
652
652
653
653
655
655
655
656
656
653
653
653
651
653
653
653
653
653
653
656
659
665
666
668
668
666
660
659
666
670
666
660
660
659
655
652
655
655
657
656
653
655
653
653
653
653
655
653
653
653
652
652
656
657
656
653
651
652
653
655
651
649
643
629
624
619
611
584
547
565
608
614
602
568
596
697
693
640
591
596
620
625
620
614
615
623
628
629
633
632
634
633
634
634
634
636
633
633
633
633
632
633
630
632
630
629
629
628
629
628
627
624
624
624
620
619
616
615
614
614
611
610
608
606
604
600
598
595
592
591
591
592
591
592
593
595
595
598
600
606
612
621
629
636
642
648
651
655
656
660
660
661
660
660
661
660
659
659
659
656
656
655
657
656
653
655
655
656
656
656
656
657
657
656
655
653
653
653
655
653
655
653
652
649
649
649
653
653
653
652
655
653
651
652
655
655
653
655
655
655
655
653
655
653
656
657
655
656
656
656
656
657
660
660
661
660
659
659
660
659
660
660
662
664
662
660
660
661
661
661
660
662
662
662
662
662
662
660
660
660
661
661
661
662
662
666
666
665
661
660
662
661
661
660
662
661
661
660
660
660
662
662
661
665
670
674
676
674
668
665
668
674
681
675
670
670
668
662
660
661
664
664
662
660
661
660
662
664
664
660
660
660
659
660
665
664
660
661
666
665
665
662
660
660
655
643
632
629
623
614
588
555
585
628
627
602
592
696
757
711
630
589
606
628
632
625
623
625
628
629
633
636
640
640
642
640
640
638
640
640
636
638
640
640
638
638
636
636
636
636
634
630
633
630
630
628
627
625
624
623
621
620
619
616
612
611
612
608
604
604
604
604
601
598
604
604
604
604
606
610
615
619
624
629
638
644
652
656
661
664
665
665
665
668
668
668
664
664
664
664
664
665
664
666
666
666
664
664
664
665
664
664
661
660
660
661
662
661
659
660
660
657
656
659
660
659
659
656
655
652
655
653
653
653
655
655
655
653
655
655
657
657
657
656
657
655
655
653
656
657
660
660
660
661
660
659
659
657
660
660
661
660
660
659
661
660
660
661
661
660
660
661
661
660
661
662
661
661
661
662
661
661
660
659
660
661
661
661
660
660
662
660
660
660
660
660
660
659
660
662
661
660
660
662
665
670
675
676
675
670
668
670
676
680
678
672
672
672
668
664
664
661
664
661
662
664
661
661
660
662
661
660
660
660
661
662
661
660
662
661
660
659
660
659
659
656
649
638
630
623
615
602
568
563
611
629
624
597
610
715
739
691
615
592
615
634
634
624
621
627
629
633
636
640
640
642
642
640
642
640
643
642
642
640
640
640
640
636
636
636
636
636
634
632
632
630
629
629
629
624
624
623
620
619
615
615
611
610
608
606
604
601
600
598
598
598
597
597
598
598
598
601
604
608
614
619
625
636
642
647
655
657
660
664
665
665
664
662
662
661
660
661
660
661
661
660
662
660
661
660
662
659
660
662
662
660
659
660
660
657
657
660
659
656
655
655
653
656
655
653
652
652
656
655
655
652
653
653
652
653
653
653
655
655
655
655
655
653
656
657
656
655
656
659
660
657
657
660
660
659
660
660
661
661
661
660
661
661
661
664
665
664
662
664
662
662
664
664
665
664
664
664
665
665
664
665
665
665
666
666
666
665
665
664
665
664
664
664
661
662
661
662
665
664
661
664
665
668
674
676
678
679
674
666
670
676
685
680
674
672
672
666
664
665
665
668
668
666
668
665
665
666
666
668
668
665
664
665
665
665
666
664
665
665
665
664
665
662
659
647
636
633
625
608
572
550
589
624
624
597
570
664
713
680
619
595
612
632
633
624
624
627
629
636
636
636
636
638
640
640
642
640
640
638
638
636
636
636
636
636
636
636
634
632
633
633
632
629
629
628
627
623
623
620
619
619
615
612
610
608
606
602
600
597
596
595
595
592
593
592
589
592
596
597
602
606
612
619
628
633
640
644
652
657
657
659
661
662
662
662
661
659
656
657
657
655
657
657
656
655
653
655
652
653
652
651
652
649
653
651
651
649
652
649
649
648
647
647
646
648
649
649
648
646
647
644
644
646
644
646
644
644
646
647
644
644
646
648
649
649
649
651
652
651
652
651
652
653
653
655
655
653
655
656
656
656
657
656
659
660
660
659
656
656
657
655
656
659
660
659
660
659
660
659
659
659
660
659
659
660
661
659
659
657
657
656
657
659
659
657
656
655
655
655
653
653
655
655
657
655
656
661
666
668
670
668
660
656
660
670
672
666
660
662
660
653
652
655
653
656
655
653
656
655
655
653
649
655
655
655
653
653
655
655
653
655
651
652
652
652
652
649
646
638
627
620
612
602
583
540
552
601
612
600
570
601
711
710
656
589
585
608
623
617
608
608
612
617
620
624
625
625
627
628
627
630
629
629
628
627
624
625
624
624
624
623
623
623
620
620
619
617
619
616
614
614
614
614
610
608
604
600
597
596
595
593
592
588
585
583
582
580
579
580
579
578
582
584
587
588
595
601
606
615
621
628
634
642
644
646
648
649
649
649
649
649
649
647
646
644
647
646
648
649
648
648
648
647
647
644
646
647
647
644
647
647
644
644
644
646
646
643
642
640
642
642
640
640
640
643
642
643
640
640
640
640
642
642
640
640
640
640
643
646
644
644
642
646
647
646
647
647
648
647
647
648
649
648
648
649
651
648
649
649
651
652
652
648
649
649
651
653
651
648
649
649
649
649
649
649
649
648
647
647
649
647
647
647
648
649
648
647
647
648
649
649
649
649
648
647
647
647
649
655
656
659
664
664
655
653
656
665
668
664
657
659
657
649
648
649
651
652
649
649
652
651
648
648
648
653
651
649
649
649
647
647
649
648
649
649
649
649
647
644
638
627
617
614
604
597
568
548
587
619
614
588
614
732
743
676
601
576
597
617
619
610
610
614
616
619
623
625
628
627
627
628
630
629
629
628
628
627
628
627
624
625
624
623
624
623
620
619
619
619
619
617
615
616
614
614
612
608
606
604
602
601
601
598
596
592
591
592
591
591
589
589
592
592
596
598
604
608
610
617
629
636
642
647
655
659
661
664
660
660
660
659
657
656
656
657
657
656
656
656
657
657
657
657
656
656
656
655
655
653
651
649
651
652
651
649
649
649
648
648
648
647
647
647
646
644
646
646
644
644
646
648
647
643
643
644
646
648
648
648
649
647
647
648
649
649
646
644
644
647
648
649
648
649
648
648
649
649
649
649
651
649
652
649
651
649
649
649
651
651
652
649
652
649
651
649
652
651
649
649
649
649
648
649
651
649
648
649
649
649
651
651
651
649
651
649
652
653
659
661
665
665
665
659
657
661
668
670
665
664
662
656
652
651
655
655
653
652
655
656
655
652
653
653
655
655
653
653
655
656
656
653
655
652
652
653
655
655
649
643
634
624
620
614
604
568
551
595
621
616
591
597
702
728
680
606
585
606
623
624
615
615
617
621
624
627
629
632
633
633
633
632
632
633
630
628
629
628
629
629
629
628
627
624
627
624
623
624
624
621
619
617
619
617
614
614
610
610
606
606
602
601
597
595
592
592
591
591
588
588
588
588
588
592
593
597
604
610
615
621
629
636
642
644
649
652
653
655
655
656
656
655
655
655
656
655
653
653
653
653
653
653
656
655
655
652
651
653
655
652
653
653
651
652
652
649
649
649
649
649
649
648
649
649
649
648
648
647
646
648
648
648
646
647
648
649
649
649
648
649
651
652
651
652
651
652
652
653
655
656
657
659
659
657
656
656
657
657
659
660
659
660
662
660
660
660
661
660
660
660
660
661
660
660
662
662
664
661
660
660
660
660
660
660
660
661
662
664
665
662
662
662
661
662
664
664
665
664
668
672
678
679
675
672
670
668
676
680
676
670
672
670
665
661
662
664
665
662
661
665
665
665
665
665
665
665
665
665
668
668
668
668
666
668
668
665
664
664
664
656
644
636
628
619
602
560
557
606
620
614
579
588
700
710
664
601
598
619
636
633
624
623
625
629
634
636
638
638
640
640
642
640
640
636
636
638
636
636
636
636
636
636
633
632
633
632
630
629
630
629
628
625
624
625
623
619
619
614
612
610
606
604
602
601
598
596
593
595
596
595
595
595
597
598
602
604
611
616
620
629
636
646
649
653
657
660
662
664
664
665
664
661
662
660
660
659
660
660
659
659
660
659
661
659
656
656
656
656
655
653
656
655
655
655
653
653
652
651
649
649
649
649
651
649
649
648
649
648
647
647
649
649
649
648
648
648
648
651
648
651
652
651
648
648
651
651
652
652
651
652
653
653
655
655
653
653
655
653
651
652
653
655
653
653
653
655
656
653
655
653
653
655
656
653
652
652
653
655
653
655
655
651
652
652
653
653
653
653
651
649
649
649
651
653
653
655
652
651
656
660
661
666
665
659
657
656
664
668
661
660
660
659
655
649
648
649
649
649
652
653
652
648
648
649
649
648
648
649
652
651
648
647
649
649
649
649
649
649
648
646
638
627
619
615
608
591
552
548
597
611
598
572
612
724
725
660
589
580
604
619
619
608
608
612
617
619
621
624
625
627
627
624
624
623
627
627
623
621
620
619
620
621
621
621
619
620
617
615
614
614
614
615
614
612
608
606
604
601
602
602
598
598
598
596
592
588
587
588
589
589
588
588
592
592
597
598
604
610
614
619
627
633
638
643
647
649
651
652
653
651
653
653
652
652
652
649
649
649
648
647
647
648
649
649
651
647
648
649
652
649
646
646
643
644
646
647
647
644
644
646
644
642
642
640
642
643
640
640
642
640
640
640
642
640
640
640
642
642
644
643
643
643
643
644
646
647
647
646
646
644
643
644
646
648
648
649
647
644
648
648
646
647
647
649
649
649
647
646
647
649
651
648
646
644
646
647
649
648
648
649
648
648
647
648
646
649
649
649
649
651
653
649
652
649
646
647
651
656
662
660
662
664
660
656
659
665
670
665
660
657
659
653
649
651
653
652
655
652
651
649
649
651
651
649
649
647
648
649
651
649
649
649
649
649
651
649
649
648
646
638
629
619
615
612
598
566
564
608
621
608
580
630
729
728
659
588
585
608
623
617
612
614
616
621
625
628
627
629
630
632
630
629
629
628
629
629
630
628
625
625
625
624
625
623
621
620
621
620
619
617
617
615
614
614
612
608
608
606
606
604
598
598
596
596
595
595
592
593
593
595
595
596
598
601
604
608
615
620
625
633
640
643
646
649
652
652
651
649
652
651
649
649
652
651
651
649
649
649
652
649
649
648
647
647
649
648
648
647
648
648
646
647
644
644
644
643
642
640
640
640
642
638
636
638
640
638
636
636
636
636
636
638
636
636
638
638
638
636
638
636
638
640
640
640
640
640
640
640
642
643
643
642
642
640
640
642
642
642
642
644
643
644
644
644
644
644
646
644
647
647
643
643
644
644
644
646
644
646
647
648
644
643
643
643
644
644
643
643
643
646
646
644
644
643
643
646
647
644
648
649
656
660
661
664
662
655
653
656
664
665
656
655
655
653
649
647
648
649
649
649
652
651
648
648
649
649
649
649
649
649
649
651
652
651
652
649
649
649
649
648
646
643
633
621
619
615
602
572
547
579
614
608
587
553
627
691
665
606
580
601
621
624
615
611
612
619
623
624
625
628
628
627
625
627
628
628
629
628
628
628
625
627
625
627
628
624
625
624
624
620
620
617
619
615
615
614
614
614
611
606
606
604
601
598
596
595
592
588
588
588
587
588
588
588
588
591
595
596
602
606
614
620
628
633
638
642
646
647
649
649
651
649
649
648
648
649
647
647
646
648
649
648
647
644
644
646
644
647
646
644
647
644
643
646
643
642
640
640
643
643
643
640
640
640
640
643
642
640
642
640
640
640
640
640
640
640
640
640
640
643
644
642
643
643
644
643
644
646
647
647
647
644
647
648
646
647
647
647
648
647
647
648
648
648
649
648
648
649
649
649
648
649
649
648
648
649
648
648
648
649
649
649
649
651
649
649
649
649
649
652
649
649
649
649
648
649
648
648
651
649
649
649
648
649
649
649
648
649
649
653
657
656
660
662
656
649
652
659
666
665
655
652
653
648
647
648
648
649
651
647
647
647
647
647
646
644
646
648
647
648
649
647
647
644
647
647
646
648
648
644
642
638
633
620
614
608
598
572
536
560
601
601
582
544
601
685
668
604
572
592
614
615
608
602
604
611
614
617
617
619
621
623
619
620
624
623
621
619
620
619
617
615
615
617
616
614
615
615
616
615
614
608
608
608
610
608
602
601
598
597
595
591
588
584
584
583
580
579
579
579
579
579
580
582
585
587
591
597
602
608
614
619
628
636
638
640
643
644
644
643
643
643
644
643
643
640
642
643
644
643
642
643
642
642
640
642
644
643
642
643
640
640
640
640
642
640
640
640
640
640
640
640
642
640
640
640
640
636
636
636
642
640
640
638
638
638
640
640
640
638
640
640
642
640
640
642
644
642
643
640
642
642
644
646
647
646
643
642
644
644
646
643
643
642
642
643
644
644
646
643
643
643
642
643
644
643
643
643
643
643
644
646
644
644
643
643
640
640
640
643
644
646
643
643
644
644
644
644
644
643
644
644
648
647
647
646
648
651
655
656
660
660
657
651
649
656
666
665
660
656
656
651
648
646
648
649
648
644
647
648
647
648
648
644
643
644
648
647
643
644
647
647
647
646
647
647
647
644
643
640
634
623
615
608
604
592
563
552
604
621
608
580
625
725
719
652
579
572
598
614
612
604
604
610
612
616
623
623
623
621
620
620
620
624
625
624
624
621
620
624
624
620
620
619
621
617
616
616
615
616
615
614
612
611
608
608
608
606
604
604
602
598
597
597
595
596
589
588
591
589
591
589
593
595
597
602
604
612
617
625
629
634
640
643
648
648
649
652
653
652
652
649
649
649
648
647
649
651
648
649
649
649
648
649
651
649
648
648
648
647
648
648
646
647
646
644
644
644
642
640
642
640
643
640
642
640
640
640
640
638
638
638
636
638
638
638
640
638
638
640
640
642
640
640
642
640
640
640
642
640
642
643
643
643
643
643
640
643
644
644
644
644
643
640
644
646
644
644
644
644
644
647
647
646
644
643
646
644
643
643
644
643
643
644
644
646
646
643
643
647
646
643
644
643
644
647
647
646
643
644
643
644
644
642
644
647
649
653
657
659
660
655
649
652
660
664
657
653
656
652
647
646
646
648
646
646
647
648
647
646
648
647
646
646
647
647
646
647
648
648
649
649
647
647
644
647
644
642
632
619
616
612
600
568
547
591
615
608
576
568
664
693
648
587
583
608
623
619
611
610
615
619
625
627
628
628
630
629
629
628
629
629
628
627
625
624
624
623
623
623
623
619
621
619
619
617
617
616
615
614
614
610
608
608
608
604
602
598
598
596
596
591
591
589
588
587
587
587
588
589
595
596
600
608
614
617
624
633
640
644
647
649
652
649
649
649
652
652
653
652
651
653
651
649
652
651
653
655
655
655
653
653
655
655
655
657
656
659
659
659
660
659
660
659
661
660
661
660
660
657
657
659
659
659
659
660
660
662
662
661
662
660
660
660
660
660
660
660
660
660
659
660
660
660
660
660
660
660
660
660
660
660
661
659
661
660
659
660
660
660
659
660
661
659
660
660
660
660
660
660
660
660
660
660
660
660
662
660
660
660
660
660
660
661
660
660
660
660
660
660
660
660
661
660
660
659
659
659
656
659
660
659
659
660
660
660
660
659
665
670
670
670
674
668
665
665
670
676
672
665
665
668
661
656
656
656
656
656
657
659
657
653
656
656
656
656
656
656
657
659
657
659
659
657
659
659
657
656
656
653
648
640
632
628
621
608
579
551
582
621
621
604
570
629
708
683
619
587
608
629
630
624
617
620
624
628
632
636
640
636
636
636
636
636
636
636
634
636
636
636
633
633
633
633
632
630
629
629
629
627
629
624
624
620
621
621
619
616
614
611
608
604
604
602
600
597
596
593
593
591
588
588
592
592
595
597
601
604
612
619
628
636
642
648
653
656
660
660
661
661
660
660
660
659
659
660
659
659
660
659
660
659
657
656
657
656
656
655
655
653
653
653
652
651
652
649
652
651
651
649
648
648
648
649
648
648
648
647
646
648
648
647
644
646
646
644
646
647
646
647
646
646
646
646
649
649
651
649
649
649
651
649
649
649
651
649
652
652
655
653
652
652
653
655
655
652
651
652
655
653
653
653
655
655
656
655
653
652
653
655
653
651
651
651
655
652
652
651
652
652
651
653
655
652
652
651
652
651
652
649
651
651
652
653
652
651
651
651
652
652
651
649
652
655
659
660
664
666
664
657
656
661
668
668
660
656
659
653
649
653
655
653
655
652
651
652
651
651
652
649
649
649
649
649
651
651
653
651
649
648
648
648
648
649
646
642
632
619
615
608
598
572
542
576
619
616
597
582
672
729
684
608
574
595
615
620
614
608
610
615
619
624
625
628
628
632
630
628
629
627
629
628
629
627
627
625
624
623
624
624
624
624
621
619
619
619
616
619
616
616
612
608
608
606
604
601
598
596
596
595
595
591
588
585
585
584
585
588
589
595
597
600
606
608
614
623
629
636
640
646
649
652
656
659
659
659
656
659
656
652
649
649
653
652
652
653
653
651
652
655
655
655
655
652
652
652
652
649
651
649
651
649
652
648
648
646
646
647
646
646
647
649
648
649
649
644
646
647
646
647
646
647
646
649
648
649
649
647
648
651
652
649
648
649
651
651
649
649
651
653
653
653
655
655
656
653
653
655
656
656
655
651
656
656
656
655
657
657
656
656
656
659
660
659
656
656
657
656
659
657
656
656
655
657
657
657
657
657
657
655
652
655
656
655
655
655
655
652
655
656
657
655
653
651
652
649
651
652
657
660
662
664
666
665
659
657
664
668
665
662
662
664
659
655
655
656
656
655
655
653
651
651
652
652
652
649
649
649
648
649
649
651
649
649
649
648
649
649
649
646
640
633
621
614
608
604
593
564
572
619
629
616
596
659
743
723
651
588
582
604
619
617
610
608
612
616
620
624
627
624
624
628
628
629
628
628
625
627
627
625
625
625
625
625
623
621
621
619
617
617
619
619
617
615
614
611
612
612
611
608
606
602
602
600
598
596
596
595
593
592
591
589
589
591
595
595
597
601
604
608
615
621
629
633
640
643
648
649
651
649
651
653
652
649
649
649
651
651
648
646
647
648
649
647
647
647
644
644
646
644
644
644
643
642
643
642
643
643
642
642
642
643
643
640
642
642
642
640
638
640
640
640
638
636
640
640
640
640
640
640
640
643
640
640
640
640
642
642
643
643
640
640
640
642
640
642
642
643
646
644
647
646
644
644
644
644
647
646
646
647
648
647
647
644
647
647
646
646
646
647
648
647
646
647
648
646
647
647
644
644
644
644
646
646
644
646
644
643
644
644
644
644
640
642
643
643
644
644
643
643
643
646
649
655
657
659
657
651
649
649
655
659
656
651
652
649
643
640
640
640
644
643
643
642
644
640
640
640
640
640
640
640
642
640
642
640
642
644
642
642
643
643
642
640
630
620
614
612
604
587
550
560
608
614
604
572
580
680
685
642
583
582
608
619
615
606
606
611
615
617
620
621
623
624
627
625
627
627
627
625
624
624
624
623
624
624
624
624
620
620
621
619
619
617
619
616
617
615
614
611
610
608
608
604
602
600
597
596
593
591
589
588
588
588
587
588
588
591
592
595
598
602
611
615
624
629
636
640
646
649
652
655
657
657
656
655
655
655
653
649
652
652
651
653
651
652
652
652
651
653
652
652
652
651
651
651
649
648
649
651
651
652
651
652
649
651
649
649
652
649
651
649
652
651
651
652
651
651
649
649
649
652
651
652
651
653
653
653
655
656
659
656
653
656
656
657
656
657
657
656
656
656
657
656
657
656
659
659
659
657
656
656
656
656
656
657
656
656
657
656
660
659
657
656
657
659
656
656
657
655
656
656
656
656
656
655
655
655
655
655
655
655
655
655
657
655
656
656
656
656
657
659
657
656
656
659
659
657
659
660
665
668
668
670
670
662
659
660
670
672
668
664
665
659
656
656
657
656
657
657
656
659
656
656
657
659
657
657
660
657
659
656
657
657
657
659
659
656
656
656
656
653
643
632
625
623
614
592
556
568
616
623
614
583
588
694
704
659
598
597
619
630
628
619
619
623
628
629
633
636
636
636
636
636
636
636
640
636
636
636
636
636
636
632
634
632
632
629
632
629
628
628
629
625
625
624
623
619
619
617
612
611
608
608
604
602
598
596
595
592
591
589
589
587
591
592
589
592
595
601
604
611
617
628
636
638
642
648
652
656
657
656
659
659
656
653
653
656
656
656
653
655
653
656
653
656
655
653
653
655
655
656
655
652
653
653
653
653
652
652
652
652
652
649
652
649
651
652
655
651
649
649
648
648
648
649
649
652
651
649
649
649
648
649
651
652
651
652
653
652
652
653
655
653
653
652
655
655
656
659
655
653
652
653
656
657
656
655
657
656
656
656
657
655
657
656
657
657
657
656
657
655
656
656
653
655
653
652
655
653
655
655
655
655
655
655
655
655
655
655
655
655
656
656
655
652
653
653
655
653
653
653
655
653
655
659
662
665
668
665
660
656
660
665
665
660
656
657
655
648
649
649
652
647
643
646
649
646
646
644
644
644
642
644
644
646
646
644
646
644
644
644
642
640
638
636
632
621
611
604
595
588
564
534
565
608
608
588
582
676
734
691
612
563
572
595
606
598
591
592
595
601
604
604
608
608
608
610
611
610
608
608
608
606
606
604
604
604
602
601
601
601
602
602
600
598
597
592
595
592
592
588
588
587
584
583
578
578
574
572
570
566
566
566
565
563
564
564
565
565
566
569
572
574
578
585
589
597
602
608
617
624
628
629
629
629
628
629
629
629
629
628
627
624
624
625
623
623
623
623
624
623
624
624
625
627
624
625
624
620
619
619
620
620
620
623
621
623
621
620
620
619
617
617
619
617
617
616
617
617
617
617
617
616
617
619
619
619
620
619
621
621
620
620
621
620
620
621
624
624
624
623
624
624
625
624
625
625
627
627
627
627
627
624
625
627
627
625
625
625
625
627
629
624
624
624
627
624
624
625
624
625
627
627
627
625
625
625
624
625
624
625
625
625
625
624
625
624
624
625
627
627
625
627
627
629
634
636
640
643
643
638
636
636
642
647
644
640
642
643
636
636
634
636
636
636
636
636
640
636
636
640
636
638
638
636
640
640
640
640
643
643
642
642
644
647
648
647
640
629
617
614
608
597
572
556
596
627
624
604
604
692
738
697
624
580
597
619
624
617
612
615
619
623
627
629
632
632
632
633
634
634
636
634
634
633
633
632
632
630
632
629
630
632
629
629
625
625
623
621
621
623
620
619
619
617
614
612
608
608
608
604
604
601
598
598
597
596
597
597
598
597
598
602
604
606
610
619
627
630
638
643
649
653
659
661
666
665
662
664
665
662
662
662
660
660
659
660
661
660
662
660
662
660
662
661
661
661
661
660
660
661
660
660
660
660
660
660
660
659
659
656
657
655
655
653
651
655
655
655
655
652
652
649
653
653
653
651
655
655
655
655
655
655
656
659
657
657
659
660
660
659
657
659
660
659
659
660
659
659
659
659
660
660
660
660
659
660
660
660
660
660
661
662
661
662
661
661
662
660
661
660
660
659
660
660
660
657
659
660
660
659
657
660
660
661
660
657
660
660
659
659
659
657
659
659
660
666
670
668
672
670
666
661
662
668
674
670
665
668
662
656
655
655
656
656
657
655
656
655
653
656
657
657
655
656
657
659
659
656
656
656
655
656
657
655
657
656
649
638
629
625
617
606
576
556
597
627
621
598
574
655
707
676
612
588
608
628
629
621
615
619
624
625
629
629
633
634
634
633
633
632
630
632
630
629
630
630
629
629
629
629
628
627
625
627
625
625
624
621
620
619
619
617
615
614
612
610
608
606
604
602
598
597
596
595
592
592
592
591
592
595
596
596
598
604
611
617
624
632
638
644
648
652
653
657
659
660
660
659
659
660
659
659
656
656
659
656
656
659
657
657
656
656
657
659
659
656
657
657
657
659
657
656
653
655
653
655
653
653
655
655
653
653
651
653
653
652
652
652
651
652
653
652
653
655
655
653
655
653
655
655
652
653
655
656
655
655
653
656
657
656
659
657
656
660
656
659
659
657
657
656
656
657
660
657
657
657
657
656
660
659
656
656
656
657
659
657
656
657
660
659
659
656
655
656
656
657
659
660
657
656
657
656
656
655
655
655
655
656
657
656
656
656
657
656
657
659
662
665
666
670
670
664
660
661
668
672
670
665
661
661
657
655
657
657
656
656
655
656
656
655
655
653
652
653
655
653
653
649
652
652
652
652
652
649
649
652
649
648
643
633
625
619
611
598
570
540
574
611
608
593
564
623
707
687
627
584
595
617
621
615
608
612
617
621
624
627
624
627
629
628
628
628
629
628
625
628
628
627
624
627
625
624
625
623
621
620
620
619
620
617
617
616
614
612
608
606
606
604
601
598
597
595
592
589
588
585
584
582
582
580
583
583
585
588
592
596
600
608
615
623
632
640
644
648
651
651
652
653
651
649
648
649
651
649
648
648
646
647
648
649
649
649
648
647
649
649
647
646
644
643
643
646
644
642
642
640
640
640
640
640
640
640
638
640
640
638
636
636
640
640
640
638
640
640
638
640
640
640
640
643
644
644
642
642
640
643
644
644
644
644
646
643
640
644
647
646
647
647
646
648
646
646
644
646
649
647
648
649
649
649
647
648
648
649
649
649
649
652
651
649
649
649
651
649
652
651
649
649
649
649
648
648
648
649
652
649
649
649
652
649
655
656
665
664
665
665
661
660
660
665
670
668
665
668
668
659
657
656
659
660
657
659
661
660
656
656
659
659
659
656
657
659
657
657
657
656
659
660
659
657
655
652
648
640
627
621
611
604
578
557
606
642
636
612
614
720
758
697
612
579
601
623
627
617
615
617
623
625
628
629
633
634
633
634
633
633
633
630
630
629
629
630
630
629
630
628
625
625
623
621
620
623
624
623
620
619
619
614
611
610
608
606
604
602
600
598
593
593
591
589
591
592
593
595
595
595
596
598
604
608
614
619
624
632
636
643
648
649
656
657
657
657
656
656
656
655
657
656
653
655
653
652
651
649
652
653
653
653
655
653
653
655
651
653
651
649
649
649
648
648
648
647
646
644
646
646
643
642
640
640
638
638
640
638
640
640
642
640
638
636
636
636
636
636
640
640
640
638
636
636
638
640
640
640
640
640
642
642
640
640
642
640
640
640
642
640
640
638
640
636
638
638
640
638
640
640
640
638
636
640
640
636
636
636
636
636
634
636
636
636
636
636
636
636
634
634
636
636
638
636
636
636
636
640
647
649
651
655
652
644
644
649
657
655
651
648
648
643
640
640
643
643
640
638
638
640
640
642
642
640
638
638
640
640
640
640
640
642
643
642
642
642
640
638
636
629
617
611
604
598
580
548
565
610
615
601
572
617
700
684
623
574
584
608
615
608
602
604
608
611
615
619
621
619
620
621
621
619
619
619
620
621
619
617
621
619
617
617
617
615
616
615
614
612
611
611
612
611
608
608
606
604
600
598
598
595
593
591
589
588
585
583
584
584
584
583
585
587
587
589
596
601
604
612
621
630
636
640
646
648
649
649
652
651
653
653
651
649
647
647
647
647
647
644
646
646
647
649
649
648
648
647
648
648
648
646
647
643
646
647
647
644
643
640
643
643
642
643
640
642
643
642
642
640
642
640
640
643
640
640
642
642
640
644
643
642
643
643
644
646
644
646
644
644
646
647
648
644
648
648
649
649
651
649
651
652
652
652
651
649
649
649
651
649
649
649
648
651
649
649
648
644
647
647
647
647
646
646
648
647
648
647
647
647
647
647
646
644
644
646
643
644
646
644
646
649
653
656
656
661
661
653
649
652
660
664
659
652
653
648
644
644
646
646
648
648
648
651
649
647
647
647
648
649
647
648
649
652
652
653
649
651
651
652
651
652
648
640
630
624
617
606
574
550
584
616
615
597
564
633
696
670
611
584
608
627
625
619
612
616
620
625
628
632
630
634
636
636
634
633
633
632
632
632
630
628
628
629
629
629
628
628
628
627
624
624
623
623
620
619
619
616
614
610
608
608
606
604
598
597
595
593
593
589
589
588
588
588
588
588
593
595
601
604
611
619
627
633
640
646
649
653
657
657
659
659
659
659
660
660
656
656
656
656
657
655
655
656
657
656
656
656
655
656
656
656
655
655
656
656
657
653
653
653
652
651
652
649
649
649
651
649
649
652
653
652
653
651
652
649
649
648
648
649
649
651
652
651
651
649
652
653
655
653
656
656
655
653
653
656
657
656
656
657
656
655
656
656
657
659
659
659
660
660
659
659
657
656
656
659
660
660
659
660
657
657
659
660
662
661
661
660
660
659
659
659
659
656
656
659
659
659
657
659
660
659
659
660
659
656
657
660
665
668
672
674
668
661
665
672
678
672
668
666
665
660
657
661
660
660
657
656
660
659
659
660
660
660
661
659
656
659
657
657
659
659
659
659
653
655
655
653
652
640
632
625
615
604
574
550
591
623
617
593
582
681
720
672
606
591
615
633
629
617
615
619
624
628
630
634
633
634
634
636
636
636
634
636
634
636
636
636
634
632
630
629
632
629
628
628
629
628
627
624
627
620
617
615
612
612
608
606
604
602
601
598
598
596
592
595
593
591
591
592
595
597
601
602
604
610
616
625
634
640
648
653
656
659
659
656
660
659
659
656
656
653
655
655
655
653
651
649
653
653
655
653
652
651
651
649
652
649
651
652
651
648
647
646
644
647
646
647
649
647
644
644
644
647
647
644
646
646
643
643
644
643
642
646
644
644
647
647
647
646
647
646
644
644
644
644
644
644
643
643
646
647
647
648
646
648
646
647
646
643
643
643
644
644
647
644
644
644
646
646
644
646
644
644
644
647
646
647
646
646
647
647
644
643
643
643
643
643
643
643
643
643
643
646
644
647
646
646
647
648
655
655
657
659
655
649
652
656
660
659
651
653
652
649
647
643
644
644
644
643
646
644
643
644
644
644
644
643
644
644
644
644
647
646
647
647
647
644
643
643
638
629
617
610
600
595
572
542
576
614
614
589
587
689
726
674
598
572
593
612
614
604
604
606
610
615
615
621
623
621
621
621
620
619
617
617
620
619
619
617
614
615
615
615
612
612
610
610
611
608
608
604
604
602
600
600
597
596
593
591
587
583
583
580
578
576
578
576
572
572
572
574
574
576
574
580
583
589
596
602
608
615
620
627
629
632
636
638
636
636
636
634
633
633
634
634
633
633
634
634
634
633
634
633
633
633
636
636
636
636
636
633
633
633
630
630
630
630
636
636
632
630
632
630
633
633
629
629
629
630
632
630
630
629
632
629
630
630
630
633
633
636
636
636
636
636
634
636
638
638
640
636
636
638
640
638
640
640
640
640
638
636
638
638
638
640
640
638
638
638
640
638
638
640
640
638
638
638
640
640
640
640
640
638
638
638
638
638
636
636
636
636
636
636
638
636
636
636
636
636
636
636
636
636
636
636
640
642
646
649
649
643
636
640
643
649
646
640
640
638
634
632
636
636
634
633
633
636
634
633
634
636
634
633
636
636
636
636
636
636
634
636
636
636
634
634
634
628
619
608
604
597
583
551
525
565
598
596
578
550
624
685
656
595
566
584
604
604
597
595
597
601
604
606
608
608
608
608
608
608
608
608
608
608
608
608
608
606
606
606
606
604
602
602
602
602
600
598
598
597
596
592
592
589
587
583
582
582
579
574
572
572
570
569
568
566
565
566
566
566
568
572
576
576
582
588
598
604
611
617
624
627
628
633
634
636
634
634
634
633
633
633
632
632
632
632
633
633
630
629
632
630
632
630
630
629
628
629
629
628
628
629
632
630
629
629
629
628
625
625
625
628
628
625
627
627
625
625
627
624
627
628
628
627
627
628
627
627
627
628
629
629
628
629
630
630
630
633
634
633
632
634
636
636
634
632
632
633
632
633
633
633
636
634
636
636
636
634
636
634
634
636
636
636
636
636
636
636
634
633
634
633
636
634
633
634
633
633
634
634
633
630
630
634
632
632
629
630
630
632
633
632
632
633
640
640
640
644
642
636
634
638
644
647
638
636
636
632
628
629
629
629
629
628
629
628
628
629
629
629
628
628
629
629
628
627
629
629
629
628
628
625
628
628
624
615
604
598
593
582
556
520
546
588
589
574
546
608
693
666
604
565
579
602
604
595
592
595
598
602
604
606
608
608
610
610
611
608
608
606
608
608
606
606
604
604
604
604
604
602
602
601
601
598
597
597
596
595
592
592
588
587
583
580
578
576
572
570
570
568
566
564
563
564
564
563
563
564
566
570
572
578
587
595
604
608
615
623
629
632
636
636
636
636
634
633
634
632
632
632
632
630
633
633
630
630
630
630
630
629
629
629
630
632
630
630
629
628
628
627
628
625
624
624
624
624
623
624
624
623
621
623
624
624
624
624
624
624
624
623
620
623
624
624
623
624
624
627
628
628
627
629
630
629
629
629
629
629
629
629
629
632
630
630
632
632
630
629
632
630
633
633
634
633
633
632
630
630
632
633
632
633
632
634
634
634
636
634
634
633
633
633
633
633
633
633
634
636
636
634
636
633
633
633
634
634
634
636
638
640
644
646
649
648
646
640
640
644
652
648
644
644
644
636
636
638
638
638
640
636
638
640
640
640
640
640
642
642
642
640
640
638
640
640
640
640
638
640
640
638
634
625
614
604
597
588
566
529
552
602
608
592
570
636
723
693
612
565
579
604
610
598
595
596
602
606
608
608
612
612
614
614
612
615
614
611
610
608
610
610
610
610
608
608
606
608
608
608
604
604
602
600
600
597
598
595
593
592
591
588
587
583
579
578
576
574
572
572
572
572
570
572
572
576
578
578
582
587
593
598
604
615
623
629
633
636
642
642
642
640
642
642
640
640
640
636
636
638
636
636
636
640
642
640
638
636
638
638
636
636
634
636
638
640
636
636
634
633
632
633
634
634
634
632
633
634
634
632
633
633
634
633
632
632
632
630
633
633
634
633
633
636
636
636
636
636
640
638
638
640
638
640
640
640
638
636
636
638
640
638
640
640
640
640
642
640
640
642
642
643
642
642
640
640
642
640
640
640
640
640
642
640
640
640
640
640
643
642
640
638
638
640
640
640
640
640
640
640
638
640
640
640
644
648
652
655
655
648
644
647
657
660
656
649
652
649
643
640
644
646
646
643
644
644
643
643
642
642
640
643
643
640
640
643
642
640
642
640
642
640
642
638
640
633
625
614
606
598
593
576
547
578
620
619
602
595
688
742
696
612
572
587
608
614
606
600
604
608
612
616
617
617
617
619
621
623
620
619
617
615
615
617
617
615
615
615
615
612
610
608
608
606
608
608
608
604
604
604
601
597
597
596
595
592
588
587
584
580
579
576
574
576
574
574
576
576
574
578
580
582
587
593
600
604
610
617
624
630
636
638
640
642
642
643
643
642
642
644
642
640
640
640
642
642
640
640
640
640
640
640
640
640
642
640
640
640
640
640
638
640
638
636
636
636
636
636
636
634
633
634
636
636
633
633
633
634
636
636
634
632
632
633
634
636
636
634
636
636
636
638
636
638
636
640
640
640
640
640
644
642
640
640
640
638
640
642
640
642
640
640
640
643
644
644
644
644
647
643
644
644
644
644
643
644
646
644
644
644
643
646
647
647
646
646
644
647
647
647
647
646
646
646
647
647
647
647
647
644
644
648
655
656
659
664
662
655
649
649
662
662
656
653
653
653
648
647
648
648
648
648
646
647
646
644
647
648
647
648
648
649
651
649
649
648
648
649
649
648
649
649
648
642
632
621
620
614
597
560
550
595
619
615
595
565
649
691
660
598
583
606
623
621
614
611
615
620
621
624
625
627
625
627
628
628
628
628
625
625
624
625
624
623
623
624
621
621
620
619
619
619
619
617
616
614
614
612
612
608
606
604
604
600
597
596
593
589
587
587
585
583
584
583
583
583
585
584
588
592
598
604
608
615
624
629
636
640
646
649
652
651
652
649
649
649
648
648
649
646
646
648
649
648
646
647
647
644
646
648
649
647
646
646
646
646
644
646
644
643
642
642
642
642
640
640
643
642
643
644
644
642
640
642
643
644
643
643
644
644
646
643
644
644
646
646
644
647
647
649
649
649
647
648
649
648
648
648
649
648
648
649
652
649
649
649
651
649
648
649
652
652
651
652
652
652
651
652
652
651
651
649
655
653
652
649
652
652
652
652
655
652
653
652
655
651
651
649
653
653
653
653
655
653
652
649
651
651
652
649
655
656
659
661
664
665
664
659
657
659
666
668
665
660
661
659
653
652
652
651
655
653
652
653
655
651
655
656
653
655
655
653
653
652
652
653
652
653
652
652
652
648
649
649
644
633
623
617
608
595
556
537
580
608
606
584
568
659
710
679
620
584
598
619
623
614
608
612
617
617
621
625
624
624
625
624
625
627
625
625
624
624
623
624
624
620
620
620
621
620
620
619
619
617
617
616
616
615
611
610
610
608
604
602
600
597
595
591
591
587
585
584
583
579
580
578
579
579
580
582
583
587
591
597
602
608
615
624
629
636
640
644
646
648
649
651
649
649
649
649
647
644
647
647
644
644
647
646
644
644
647
647
647
644
644
644
644
644
644
644
644
643
642
640
642
640
643
643
642
640
640
640
640
638
638
640
640
638
640
640
642
640
642
640
644
640
640
642
643
643
643
644
644
646
647
644
644
644
647
646
647
648
648
648
648
647
648
649
649
649
649
649
648
649
651
649
652
651
648
648
649
649
652
649
649
649
651
649
649
649
648
649
651
651
651
652
649
651
649
649
649
648
648
648
646
649
649
649
649
649
649
648
647
648
648
647
652
655
656
659
662
656
651
649
657
662
660
655
655
653
648
647
649
648
646
646
647
648
648
647
647
647
647
647
647
644
646
649
648
647
647
646
644
646
646
646
647
644
642
630
620
614
608
598
578
540
564
610
614
596
576
653
732
700
632
578
588
611
623
616
608
610
612
615
620
624
627
628
625
627
628
629
628
628
629
629
632
628
628
628
627
628
625
625
624
624
620
619
621
619
617
616
615
616
614
611
608
604
604
604
604
598
597
595
592
588
587
587
588
588
588
592
596
596
598
602
608
612
621
629
640
647
652
655
657
657
657
660
659
661
659
657
657
655
655
656
655
653
653
655
657
656
656
655
655
656
656
656
655
655
653
652
649
652
653
651
651
649
649
649
649
648
648
649
649
648
646
647
649
649
649
644
647
644
648
647
647
643
644
644
647
649
649
649
652
649
651
652
653
652
652
649
649
649
651
651
651
649
651
649
653
652
653
653
655
653
651
649
652
653
652
653
655
655
652
649
649
651
651
651
652
651
652
655
652
649
651
649
649
651
653
653
651
652
653
649
649
651
652
653
652
652
652
653
657
660
664
665
666
665
660
657
662
668
672
668
662
665
661
657
657
655
655
655
653
652
655
653
655
653
653
653
653
652
652
649
652
649
649
649
651
649
648
651
649
649
646
640
630
620
614
606
601
576
559
598
636
633
608
615
719
749
697
621
583
598
620
624
616
610
614
619
624
625
628
629
629
629
632
629
630
632
633
629
632
629
628
629
627
625
625
623
624
624
621
619
617
619
619
617
615
616
614
614
610
608
606
604
604
600
597
595
595
592
592
589
589
588
587
588
588
588
591
593
595
598
604
608
615
623
628
633
640
640
643
646
647
647
647
646
646
647
644
643
644
644
644
644
647
647
644
644
647
644
643
646
646
644
644
642
640
642
642
640
642
642
642
640
643
640
640
638
636
636
638
636
636
636
636
636
636
636
636
636
636
634
636
634
636
636
634
636
636
638
638
638
640
638
638
640
640
640
638
640
640
640
640
642
640
642
643
643
643
642
640
642
640
642
640
642
642
642
643
643
643
644
643
642
643
644
643
643
643
642
640
640
642
640
640
640
640
640
640
640
640
640
642
643
640
643
640
642
644
643
643
648
655
656
659
660
660
651
648
649
661
664
653
651
655
651
646
646
647
646
647
646
644
644
644
644
644
644
643
646
644
643
643
643
644
644
644
642
644
644
642
642
640
633
620
611
612
606
589
555
547
592
614
611
584
555
638
680
648
591
579
604
619
614
606
604
608
612
615
617
619
620
621
619
620
620
620
619
619
620
621
619
619
619
619
619
615
614
615
616
615
614
612
612
612
612
610
608
608
602
604
601
598
596
595
589
588
585
583
580
580
578
578
578
578
576
580
582
583
585
592
598
606
615
621
628
633
636
640
643
646
646
647
644
647
646
644
644
644
643
643
643
644
643
642
640
640
640
642
642
640
640
640
640
640
640
640
640
640
642
640
640
640
638
638
638
640
640
640
636
638
638
636
638
638
636
638
640
640
640
642
640
642
643
643
643
644
644
644
644
644
646
644
644
647
648
648
647
646
648
647
649
648
649
649
648
649
651
651
649
651
649
649
649
649
651
652
651
651
652
652
649
649
652
651
649
649
648
649
649
648
649
651
651
648
649
651
649
649
651
648
647
649
649
649
647
649
649
649
649
649
649
651
652
655
660
662
668
665
656
652
655
662
668
661
655
655
651
646
644
644
646
646
647
644
647
644
644
644
643
643
644
643
643
643
644
644
640
643
643
643
642
644
643
642
640
636
627
615
611
602
589
552
536
576
608
606
583
564
652
697
668
611
582
597
615
617
608
606
608
614
617
619
619
621
624
623
623
623
623
623
621
620
619
620
620
620
619
617
617
617
617
619
615
614
612
614
614
612
610
608
608
606
604
602
598
595
593
591
588
587
584
583
580
579
578
578
576
576
576
578
582
584
587
591
596
604
611
619
625
633
640
643
643
647
648
649
649
649
649
647
646
647
644
644
644
644
644
642
642
644
643
643
640
640
640
642
638
638
640
640
636
636
636
638
636
636
636
636
636
636
636
636
634
633
636
636
636
634
633
636
636
634
636
636
636
636
636
636
636
636
636
640
640
640
642
642
640
638
640
642
642
640
640
642
640
642
640
640
640
642
642
642
642
640
640
640
640
640
640
643
642
640
640
640
642
642
642
644
643
642
643
642
642
640
640
640
640
638
640
640
642
640
640
640
640
640
640
640
643
643
643
643
644
640
642
642
644
649
652
655
655
649
643
644
651
656
651
647
648
647
640
636
640
640
642
640
640
640
638
636
636
638
640
640
638
638
638
638
638
638
636
636
638
640
640
640
636
633
624
614
606
600
593
572
537
557
608
615
604
580
632
728
708
642
574
572
598
611
606
597
600
606
608
610
614
615
617
617
619
617
619
617
619
617
619
619
617
615
615
615
616
615
611
614
614
614
612
611
608
608
608
608
604
602
598
601
600
597
596
593
589
587
585
585
583
582
582
579
578
582
583
585
587
587
592
598
604
608
615
621
629
636
640
644
646
648
648
649
649
648
648
649
649
647
648
648
647
644
644
644
646
644
644
643
646
647
646
644
644
643
643
642
643
643
643
642
640
640
640
640
640
638
636
636
638
638
636
636
636
636
636
636
638
638
638
640
636
636
636
640
640
638
638
640
640
642
640
640
643
643
644
646
643
643
642
642
644
646
647
644
644
646
646
646
647
646
649
651
649
649
648
646
646
647
646
648
646
646
647
649
649
648
648
646
647
648
649
649
651
648
648
646
648
648
647
646
648
648
648
649
648
649
655
656
660
664
660
655
652
655
660
664
660
659
660
657
649
647
649
649
649
647
648
649
648
648
648
648
647
647
644
644
646
644
644
647
648
644
646
647
647
644
643
640
627
615
608
604
598
574
551
587
625
627
604
598
688
738
691
614
576
593
611
615
608
604
606
611
614
617
619
620
623
620
619
619
620
623
619
621
619
617
617
619
617
615
615
615
615
615
614
614
611
610
608
608
606
606
604
604
602
598
596
595
592
591
588
587
584
582
579
578
578
576
578
578
580
582
583
587
588
595
602
608
615
621
627
636
636
640
646
646
644
644
644
644
643
643
640
640
640
640
640
642
640
640
642
640
642
640
640
642
642
640
640
642
640
640
640
640
640
640
640
638
638
638
638
636
636
636
636
640
636
636
638
636
636
638
638
638
638
638
640
638
640
638
640
640
640
640
642
642
640
642
643
643
643
642
643
644
643
643
644
643
644
644
646
644
644
644
644
644
644
643
646
647
647
644
646
647
646
644
644
644
647
646
644
644
643
643
643
640
640
640
643
646
644
644
643
644
642
643
643
644
646
644
644
643
647
652
655
657
657
655
648
649
653
659
656
651
649
649
646
640
643
644
644
647
646
648
647
647
644
646
648
647
647
647
647
646
644
644
644
647
648
648
647
646
643
636
624
619
614
604
588
551
555
602
619
615
576
561
656
670
636
585
588
610
617
615
608
606
610
615
617
619
623
625
623
620
621
621
620
621
621
620
619
621
621
617
617
615
616
616
616
616
617
616
615
612
608
608
610
604
604
604
604
600
596
593
589
588
587
585
582
579
580
579
578
578
576
578
578
582
584
589
593
598
604
615
623
629
636
638
642
644
644
647
644
644
644
644
643
643
642
643
640
640
640
640
640
640
640
638
636
636
638
638
636
636
636
636
636
636
636
634
636
636
636
636
636
636
634
633
633
634
633
636
636
636
636
634
636
636
636
636
638
636
636
636
636
638
638
638
640
642
640
640
640
642
642
640
640
640
642
640
642
643
642
643
643
643
643
644
644
644
644
644
643
642
643
643
646
646
643
643
643
644
644
644
643
640
640
642
640
640
640
644
644
644
644
640
640
644
643
642
642
642
642
640
640
644
646
648
649
655
651
647
644
649
655
656
649
644
646
640
636
638
640
640
640
638
640
640
640
640
642
640
640
640
638
640
638
640
640
638
640
638
640
638
640
640
636
628
615
608
602
592
568
531
544
593
602
595
564
602
700
689
633
579
585
608
614
608
602
604
608
610
612
615
617
617
619
619
619
616
615
615
616
616
617
616
614
614
615
614
614
612
611
610
610
610
608
606
604
604
604
604
600
598
597
596
592
588
583
584
582
578
576
576
574
574
572
572
572
572
572
578
579
583
592
598
604
611
617
625
633
638
640
643
644
643
644
643
642
640
643
640
640
640
636
636
636
636
636
636
636
638
636
636
636
633
632
636
634
632
629
632
632
634
629
630
630
632
629
632
630
630
632
630
630
630
630
630
629
627
629
630
632
633
632
630
632
633
636
634
634
634
636
636
636
636
636
636
636
636
636
640
640
640
640
640
640
638
638
636
636
636
638
640
638
638
638
638
638
638
636
640
638
638
636
636
636
638
640
640
638
636
636
636
636
636
640
640
638
640
640
640
640
640
638
638
636
638
643
649
651
653
655
648
642
643
649
655
651
646
649
646
640
638
640
642
643
640
640
644
644
643
642
642
643
643
642
643
643
642
640
640
642
643
644
643
642
640
636
629
615
604
600
595
579
546
551
606
620
608
588
660
747
716
636
574
578
601
614
608
601
604
608
612
614
617
617
619
616
616
617
621
620
619
619
617
616
617
619
621
619
615
615
614
614
610
610
614
612
610
608
610
608
606
608
606
602
598
598
598
595
592
588
588
587
585
588
588
588
591
593
595
593
595
598
604
610
617
625
633
636
640
647
652
655
653
655
655
652
648
647
647
648
649
649
652
649
648
648
648
649
649
648
649
649
649
649
646
644
646
647
647
646
644
646
644
644
646
644
644
644
643
644
643
643
642
640
640
642
640
640
642
643
643
643
644
643
642
643
644
646
643
643
644
647
646
647
646
649
649
649
648
647
646
647
649
649
648
648
649
648
649
651
651
648
648
649
653
651
648
648
649
649
649
649
651
651
652
649
652
648
649
649
653
655
655
653
653
652
652
649
652
652
656
660
665
666
668
666
661
660
664
672
672
664
660
661
660
655
656
656
659
656
655
657
657
656
656
655
655
652
656
657
657
655
655
653
657
656
656
652
653
651
648
646
636
625
619
611
606
579
565
608
640
636
611
625
726
747
685
608
587
606
624
625
617
615
619
623
627
627
628
630
629
633
636
636
634
630
628
629
630
629
629
629
629
628
627
627
624
623
623
623
620
621
621
619
615
615
614
612
610
608
608
608
606
604
601
598
595
595
593
593
592
592
592
593
596
596
598
602
604
610
615
627
632
636
643
644
649
653
656
653
653
653
653
653
652
651
649
649
651
649
652
651
652
652
653
651
651
651
652
649
649
648
649
649
649
647
648
648
647
644
647
644
644
643
644
646
643
642
640
640
640
642
640
642
640
643
642
640
640
642
643
643
644
647
646
647
647
644
644
646
647
647
646
648
649
647
648
648
649
649
651
653
651
649
651
653
652
651
649
649
649
649
652
652
651
651
653
656
653
653
651
651
652
652
653
655
652
651
653
653
655
653
652
655
657
656
656
656
660
664
665
666
670
668
661
660
666
676
675
662
659
660
659
653
655
656
656
656
655
655
657
656
656
659
656
655
657
656
655
655
659
656
657
656
655
655
652
653
649
644
633
627
627
617
598
563
570
617
629
623
584
582
674
678
636
589
598
624
629
624
619
619
625
625
629
633
636
636
634
636
636
636
634
634
634
633
633
632
632
629
629
629
629
628
628
627
624
623
623
623
624
621
619
617
615
614
608
608
604
604
602
598
598
595
593
593
593
591
591
592
595
596
597
600
604
610
617
625
632
638
646
649
657
656
659
659
659
657
659
657
656
656
653
655
656
655
655
655
655
653
653
653
653
653
653
652
652
652
651
652
652
652
649
649
649
649
651
649
649
648
648
648
649
647
646
646
644
644
646
644
644
643
646
647
649
646
647
648
646
647
646
648
648
648
647
649
649
649
649
651
652
652
651
649
649
649
648
649
646
649
648
649
648
647
648
648
649
649
648
648
647
647
644
644
649
646
647
646
647
647
646
647
649
646
646
647
647
644
647
648
649
648
646
644
647
649
653
657
660
661
660
652
649
651
659
660
655
651
653
649
646
644
647
646
646
646
647
647
646
648
648
648
649
648
648
649
651
649
649
649
652
652
651
649
652
649
647
640
629
623
616
606
584
547
552
598
611
604
569
582
689
694
644
592
596
617
627
621
615
615
620
624
629
630
632
633
630
632
630
629
632
633
632
629
629
630
628
629
629
627
628
627
627
624
624
623
624
620
620
617
617
614
614
612
608
604
604
602
602
598
598
595
593
589
587
584
584
585
587
587
588
587
588
592
597
604
610
619
624
630
636
640
644
647
649
649
649
649
652
649
649
648
648
647
647
648
648
649
649
647
648
648
651
649
649
649
649
649
649
649
649
646
647
649
651
649
648
648
647
643
643
644
644
646
644
646
646
646
647
647
644
646
644
647
647
646
646
646
646
647
648
649
649
649
651
649
651
649
649
649
649
651
653
652
651
652
653
653
653
652
651
655
655
655
653
652
653
653
653
653
655
655
653
653
655
656
656
656
655
655
653
655
655
655
653
655
657
656
659
659
660
657
656
653
655
656
656
655
657
664
668
670
670
665
660
659
664
670
670
665
665
664
661
655
655
659
661
660
661
660
659
656
659
660
661
660
659
656
659
660
660
657
656
656
656
657
656
656
657
653
647
636
628
621
611
596
561
553
606
629
619
595
644
752
736
662
596
592
616
630
625
615
615
624
628
628
629
630
633
632
630
632
633
636
634
632
630
632
629
632
630
629
625
625
625
623
624
624
624
621
621
620
620
617
615
612
610
610
608
606
604
600
598
597
595
592
595
595
593
595
596
595
597
598
602
608
612
617
624
629
634
640
646
649
652
656
657
656
656
655
655
653
655
655
649
649
651
649
651
651
649
651
652
649
648
649
652
649
648
649
649
649
648
647
644
644
648
647
644
646
643
640
643
644
643
643
643
640
640
640
644
642
640
640
640
643
643
640
642
640
640
643
644
644
646
646
647
647
647
644
644
646
647
648
649
649
647
643
643
648
648
646
646
649
648
648
646
647
647
647
646
644
644
646
644
648
647
646
644
644
644
643
640
643
643
642
643
644
646
643
643
640
640
643
644
642
644
649
652
653
659
660
652
644
648
659
659
653
648
649
647
643
643
643
644
643
640
640
642
640
640
642
640
640
640
640
640
638
636
638
640
640
640
640
638
636
636
636
632
623
610
604
598
592
572
546
579
617
620
597
588
678
729
679
598
569
587
606
608
598
596
597
604
608
610
612
614
615
614
615
610
611
611
612
612
612
612
608
608
608
608
608
608
606
606
604
604
600
598
598
600
600
600
596
595
592
592
588
587
583
583
582
578
576
576
576
576
572
572
574
576
578
580
582
584
588
596
601
608
614
619
627
632
633
634
636
636
636
638
638
640
636
636
638
636
636
636
636
640
638
638
640
640
640
640
640
640
640
640
640
642
640
640
640
640
638
638
640
640
640
640
640
640
638
638
636
636
636
638
638
636
636
638
638
640
640
638
638
636
638
640
640
640
640
640
640
642
643
643
643
644
643
646
647
649
648
644
644
644
647
649
649
649
649
648
646
647
648
648
648
649
649
651
649
649
648
646
647
648
648
647
647
649
648
648
647
647
649
648
649
649
647
647
648
648
647
648
651
652
648
648
648
651
656
660
660
662
659
653
653
660
665
662
655
655
653
649
646
649
648
651
649
649
651
649
647
649
651
652
651
649
649
651
652
653
651
649
652
649
648
648
649
651
649
643
632
624
623
615
595
557
574
619
629
619
574
587
679
678
629
585
598
627
630
627
617
619
624
628
630
634
636
636
638
640
638
640
636
636
636
636
636
638
636
636
634
633
636
634
633
633
632
630
630
629
625
625
623
623
619
619
617
615
614
610
608
608
604
601
598
598
598
597
595
596
596
600
610
617
615
615
620
627
630
636
642
647
652
656
660
665
666
666
668
668
666
665
665
665
665
666
665
664
665
666
668
666
665
665
668
668
668
668
666
662
665
672
668
661
661
660
656
660
670
674
665
660
660
660
657
656
660
659
656
655
656
668
676
668
655
653
665
672
668
660
659
656
662
666
670
670
664
665
666
674
676
670
668
672
674
670
670
670
672
672
674
678
679
674
668
672
676
679
679
678
668
668
679
683
676
668
665
662
668
676
676
670
668
676
685
688
685
676
670
665
674
681
676
660
660
670
670
670
668
672
674
672
666
670
680
692
694
691
680
668
670
691
704
687
665
668
676
678
668
664
660
665
666
666
670
672
678
676
668
665
660
664
670
670
668
664
653
644
657
676
683
670
659
656
655
651
653
656
655
624
596
566
547
592
628
615
584
556
640
704
688
638
604
604
619
627
624
624
627
633
638
629
615
619
627
628
630
636
636
634
636
629
628
634
642
649
644
620
608
616
621
615
617
620
612
615
615
611
612
608
611
615
610
604
604
604
608
602
596
584
582
582
584
596
597
578
572
578
576
584
597
608
602
593
595
604
619
621
633
652
659
644
634
638
647
652
656
655
651
646
649
666
661
642
633
636
644
651
647
640
644
649
646
644
643
643
642
644
644
643
642
643
644
644
647
648
646
632
624
625
629
636
640
640
632
630
632
638
648
649
643
630
627
628
629
634
636
638
638
640
636
628
636
642
649
648
636
636
640
636
646
646
629
620
632
640
643
638
636
636
636
638
640
646
644
638
636
640
638
638
642
651
648
636
630
636
638
638
633
636
643
640
629
629
633
633
636
642
647
640
636
644
647
638
629
633
640
643
647
647
655
666
662
648
642
646
649
651
649
659
664
652
636
630
636
644
643
643
643
649
657
656
653
636
633
638
632
623
624
636
646
640
630
624
628
636
640
651
640
617
606
604
608
619
583
520
525
583
592
578
570
661
747
720
640
582
588
608
608
608
606
604
598
608
621
632
617
602
608
616
619
619
625
628
624
620
619
619
619
620
625
625
619
614
614
615
615
619
617
614
612
614
616
625
623
602
596
592
589
589
591
591
591
588
588
591
595
589
584
584
588
593
596
596
598
604
608
612
619
627
630
640
644
642
642
646
647
649
652
652
653
655
653
652
649
651
651
655
657
657
649
651
649
649
644
648
649
651
652
653
653
653
653
655
653
656
657
656
655
652
649
646
648
651
655
656
652
649
649
648
648
648
647
647
649
652
655
651
647
649
652
653
653
651
653
657
659
660
660
662
659
660
660
660
666
665
660
660
660
664
664
664
664
661
664
660
659
660
664
666
665
666
668
664
660
662
664
661
660
660
664
664
665
665
662
666
668
668
662
661
665
668
665
668
674
679
680
681
680
678
674
679
688
691
683
680
683
683
676
672
668
666
665
666
666
668
670
668
666
666
666
665
666
665
662
665
666
664
664
665
665
665
662
661
664
660
649
640
636
633
624
602
568
588
621
614
592
572
640
730
720
662
608
611
633
642
636
630
629
636
642
644
644
646
647
648
649
651
647
647
647
648
648
648
648
646
646
644
646
646
644
642
642
640
640
636
636
636
633
630
630
632
629
624
625
625
624
623
623
621
619
614
615
619
615
608
608
612
619
615
617
620
624
628
636
640
648
656
660
662
661
665
668
670
672
672
668
668
668
665
665
665
664
665
664
664
664
666
664
661
664
664
664
660
660
660
660
661
661
659
656
657
656
656
657
657
656
655
653
652
651
651
652
652
652
649
649
649
649
648
648
649
651
651
649
652
649
652
653
652
652
651
653
652
653
655
655
655
655
656
656
655
655
656
656
655
653
652
652
655
653
655
655
657
656
655
653
655
656
653
653
655
656
656
655
655
653
653
653
655
657
656
656
655
656
659
664
668
670
674
670
664
664
668
680
681
675
672
676
676
670
664
659
659
660
659
660
661
661
659
656
660
662
660
660
660
659
659
659
660
659
656
656
657
657
656
656
652
643
636
634
629
621
591
576
619
648
646
623
584
653
692
665
611
591
611
632
632
624
621
624
629
630
632
636
636
636
636
636
636
636
636
636
636
636
636
633
636
636
634
634
634
632
632
633
630
630
629
627
625
625
628
625
624
621
617
619
617
614
612
608
608
608
604
604
604
602
604
601
604
604
608
610
615
619
623
629
636
642
648
652
657
660
660
664
666
668
668
665
664
664
665
664
665
665
664
664
665
664
664
662
661
662
664
664
665
662
664
662
665
662
659
659
660
659
660
660
661
660
657
655
655
655
653
656
653
653
656
653
655
656
659
657
656
655
656
659
657
656
655
655
655
655
657
657
660
657
657
656
659
659
660
660
660
660
661
659
660
659
660
660
660
659
661
664
661
660
659
660
660
664
661
660
662
662
664
665
664
660
661
661
661
664
664
664
662
662
664
664
665
665
672
675
678
680
679
672
670
676
684
684
678
678
679
676
668
666
665
665
665
661
662
662
664
664
662
661
664
662
661
661
660
660
660
660
660
661
661
664
661
660
655
648
636
633
632
624
608
566
561
601
608
595
564
579
696
712
668
602
593
615
630
628
621
620
627
630
636
636
636
636
636
640
640
643
640
636
636
640
640
636
634
636
634
632
633
633
630
629
629
628
625
628
625
624
623
619
617
617
615
616
611
608
608
606
604
604
604
602
604
602
601
598
601
604
604
608
611
611
614
617
625
629
636
640
643
648
649
655
653
655
655
655
653
652
655
655
656
656
653
649
649
653
655
653
653
659
660
659
653
651
652
648
646
649
653
649
646
648
649
649
646
647
648
646
646
649
651
647
646
646
646
644
644
646
643
643
648
647
647
643
643
646
646
648
648
648
651
649
647
646
649
649
649
649
651
649
648
649
653
656
653
653
655
651
649
648
649
651
652
652
651
649
649
649
649
649
652
651
649
649
647
648
649
648
648
647
647
648
649
649
651
659
661
664
664
659
653
656
665
672
668
662
662
664
659
653
653
651
644
642
640
640
643
647
644
640
640
640
640
642
642
638
636
640
642
640
640
640
638
636
640
636
628
623
615
614
612
602
578
559
593
619
608
583
620
720
729
665
587
569
595
611
612
604
606
611
615
616
615
621
624
619
619
621
623
620
619
623
620
619
619
620
621
619
619
617
617
617
619
617
612
610
612
615
615
610
610
608
604
602
602
604
602
598
601
598
593
595
595
595
592
592
597
598
600
598
602
608
611
616
621
624
633
636
640
640
644
648
649
648
646
644
644
644
644
644
647
647
643
643
648
644
644
644
643
646
648
648
644
644
646
647
646
643
642
644
647
644
644
643
642
642
640
640
640
640
640
643
642
640
638
638
640
640
636
636
633
638
636
632
636
638
640
642
640
640
642
640
640
640
642
640
642
640
638
640
643
643
642
642
643
640
644
647
644
644
652
655
656
660
659
660
655
653
661
674
678
668
664
674
670
659
653
649
647
651
649
648
647
649
652
647
644
644
647
646
652
648
646
649
647
646
647
651
649
648
647
649
647
629
621
627
623
621
597
583
620
649
648
628
629
697
708
659
587
566
596
619
623
612
612
617
619
624
625
623
627
629
628
625
627
624
625
625
624
623
625
625
623
628
627
624
621
617
617
619
612
614
615
625
615
614
619
615
611
606
604
606
608
608
602
600
604
598
597
598
604
604
597
596
604
608
606
608
615
617
627
629
625
630
642
643
640
640
640
646
646
632
629
636
642
640
633
634
638
640
629
624
636
636
633
638
642
634
624
629
636
636
628
632
633
627
623
629
629
624
624
632
636
623
621
628
624
612
619
628
619
614
617
619
624
616
608
619
624
617
606
612
617
611
615
623
624
629
615
612
612
608
612
625
624
615
608
614
616
620
625
632
633
623
634
640
623
624
632
646
651
643
634
640
644
636
629
636
620
621
634
619
606
612
615
611
602
616
624
616
608
604
615
629
623
608
602
614
617
604
601
608
614
612
608
588
588
602
602
600
604
619
628
649
655
633
659
668
640
598
561
555
556
588
604
585
583
576
584
604
608
596
584
596
604
596
596
604
601
591
600
612
604
596
596
604
598
595
595
588
608
624
604
595
604
610
600
595
593
597
604
601
593
583
574
578
592
601
598
587
580
585
595
600
591
592
602
602
602
604
604
600
620
633
623
619
619
619
624
633
634
640
634
632
629
627
617
611
614
620
614
617
625
629
633
633
624
619
628
628
629
640
634
628
624
627
617
617
619
608
615
623
621
619
614
621
610
598
611
624
611
592
585
604
598
604
606
583
576
585
587
583
583
602
604
588
591
601
591
584
595
602
582
559
552
583
604
576
593
616
600
588
608
611
614
615
617
620
617
598
619
640
628
617
629
640
620
606
614
608
602
601
582
578
611
628
629
606
610
614
619
608
604
608
598
596
608
619
619
617
619
614
614
600
593
588
601
604
588
565
568
601
621
610
583
629
687
666
601
551
569
602
604
576
580
583
584
584
612
617
611
617
614
595
595
600
600
602
619
627
614
604
601
602
612
615
612
602
606
608
604
608
595
606
611
595
596
604
604
608
611
597
587
584
587
591
584
578
579
582
585
576
579
583
588
595
598
604
602
598
597
608
615
614
624
640
652
655
644
634
640
638
634
644
648
649
647
649
655
647
651
648
647
644
648
646
648
656
655
647
653
646
646
651
644
647
648
651
647
640
647
649
647
646
648
646
647
649
648
648
649
640
642
648
646
643
646
649
647
643
649
644
644
651
647
653
656
653
655
656
657
651
651
659
657
653
656
651
660
660
657
659
652
657
668
656
657
668
678
676
672
679
676
674
672
679
687
675
668
670
674
676
670
665
662
664
662
660
661
664
662
659
655
659
668
665
660
662
662
661
662
668
672
665
659
660
660
661
668
659
647
646
642
630
608
608
647
662
664
643
604
660
687
668
611
596
624
644
644
647
644
643
646
642
640
653
659
662
665
659
656
656
653
655
659
659
657
653
656
655
656
655
655
657
659
649
643
648
653
651
647
646
642
636
636
638
640
636
634
638
640
636
636
636
636
629
636
640
636
634
636
629
627
633
638
646
652
657
659
659
666
678
678
678
674
672
675
678
684
680
668
666
670
672
672
670
665
668
668
670
672
670
661
661
670
670
664
664
668
672
665
660
664
668
662
664
655
655
659
660
661
656
659
659
655
656
659
661
659
657
661
665
662
660
666
672
678
676
661
652
651
649
647
655
665
665
656
657
662
662
660
665
666
666
668
672
672
675
684
683
679
678
685
692
688
684
681
685
683
680
675
668
665
661
660
665
668
666
668
666
664
666
668
666
665
664
668
670
672
668
666
664
665
668
668
670
660
640
630
629
625
606
587
619
655
660
652
624
670
708
689
629
598
616
640
647
640
642
647
646
647
644
647
649
651
651
647
648
651
649
651
653
649
652
652
649
649
647
649
649
644
643
646
647
643
640
640
644
644
649
652
644
640
630
632
634
636
634
630
630
633
634
633
636
638
640
643
646
649
652
651
651
657
665
670
679
685
679
681
684
687
688
685
683
685
687
688
691
691
692
691
678
668
668
674
679
680
680
681
680
680
681
684
680
680
680
683
679
681
685
685
680
678
678
674
674
675
676
679
678
678
676
676
676
678
674
670
674
680
676
674
678
679
678
678
680
687
683
683
684
684
684
687
681
680
680
687
691
697
700
693
693
696
687
685
693
704
708
702
700
704
704
697
691
688
687
685
681
681
687
687
685
685
681
680
674
678
679
687
689
691
689
688
684
678
672
668
672
670
661
655
655
652
643
620
632
684
706
710
688
680
732
724
675
614
614
647
659
655
648
648
649
655
656
661
660
661
660
661
664
662
664
662
659
660
659
659
656
659
657
656
656
657
656
656
655
655
653
652
649
649
647
647
644
642
643
642
640
638
636
636
636
636
632
630
633
630
630
632
633
636
640
642
644
648
656
661
666
670
670
674
676
678
679
679
678
676
675
672
672
670
670
672
670
672
668
668
670
670
668
666
666
665
664
661
662
665
664
661
660
661
664
664
659
657
657
659
659
657
656
656
656
657
656
655
656
657
655
655
656
653
653
655
655
655
655
656
660
660
657
656
659
657
659
660
660
659
659
661
662
665
670
672
675
672
666
666
670
681
683
676
674
680
678
670
664
662
661
657
655
656
657
656
659
657
656
659
660
656
653
652
653
655
655
656
656
655
655
653
653
649
640
628
625
623
614
589
588
640
666
672
662
640
702
715
670
606
596
621
638
638
629
628
629
633
636
636
638
640
640
642
640
640
640
640
640
640
638
638
636
636
634
633
636
636
633
632
630
632
630
629
628
623
624
624
623
619
616
616
614
614
611
608
606
606
608
608
606
606
606
608
608
612
614
617
619
625
630
636
640
647
651
653
655
655
656
653
652
655
653
651
649
648
644
649
648
649
644
646
649
646
644
643
640
642
640
642
640
640
640
642
643
640
640
636
636
636
640
638
636
636
638
640
638
636
636
636
636
638
640
640
638
640
640
640
638
638
636
636
638
640
636
636
636
636
636
638
640
640
640
642
647
649
653
656
656
653
651
653
661
665
659
662
666
662
649
643
643
642
640
636
636
640
640
640
638
636
634
630
633
636
636
634
633
632
633
633
633
633
633
632
624
614
602
597
593
583
557
579
625
630
624
611
672
732
696
619
570
580
604
614
608
604
601
606
608
608
611
615
616
615
617
614
610
612
614
614
614
608
606
608
610
614
612
608
606
606
604
604
604
604
602
598
598
597
596
597
595
595
591
588
589
587
587
588
591
588
588
588
588
592
595
593
596
598
608
611
615
621
628
634
636
636
636
636
636
636
633
630
630
633
632
629
629
632
630
629
629
627
623
623
627
625
624
624
628
627
624
624
621
619
619
620
619
619
617
614
615
619
619
619
617
617
617
619
619
620
619
617
617
619
619
620
619
617
619
621
621
623
624
623
623
623
624
625
625
624
624
625
624
628
636
640
643
640
642
640
638
644
651
651
648
649
655
652
644
636
633
633
629
629
628
629
629
629
629
627
629
629
627
625
627
628
628
628
629
629
628
628
629
625
617
608
602
601
600
585
572
608
643
648
647
629
672
700
668
601
574
597
615
616
608
604
608
612
615
619
619
619
621
623
624
623
621
624
624
623
621
623
623
624
623
623
620
619
617
619
620
623
620
620
619
620
619
