26
6
0
-5
-10
-10
-10
-11
-13
-19
-24
-26
-28
-28
-28
-27
-26
-26
-25
-22
-20
-20
-20
-20
-20
-19
-18
-18
-18
-18
-18
-17
-15
-13
-14
-17
-18
-19
-20
-20
-20
-19
-19
-20
-20
-20
-25
-30
-34
-38
-34
-25
1
22
31
18
-48
-113
-179
-210
-190
-166
-138
-105
-66
-50
-54
-69
-93
-99
-94
-81
-65
-60
-60
-52
-42
-35
-27
-22
-17
-12
-7
-8
-12
-6
0
-3
-6
-4
-2
2
6
8
10
9
9
13
16
18
20
22
26
31
36
41
46
51
59
70
75
78
85
93
98
103
107
111
116
123
124
124
121
117
113
116
98
88
82
76
69
62
55
49
42
35
30
25
19
13
8
3
0
-2
-4
-6
-6
-7
-10
-11
-9
-8
-8
-8
-7
-6
-6
-6
-7
-8
-8
-8
-7
-8
-11
-12
-11
-12
-14
-16
-18
-14
-10
-14
-18
-20
-22
-21
-20
-21
-22
-22
-22
-23
-24
-25
-26
-25
-23
-20
-17
-14
-10
-6
-5
-7
-10
-14
-17
-19
-20
-21
-23
-25
-27
-29
-30
-31
-32
-34
-36
-38
-38
-38
-35
-32
-31
-30
-28
-26
-25
-24
-22
-20
-22
-24
-23
-22
-24
-26
-23
-22
-23
-24
-23
-21
-19
-18
-18
-18
-18
-18
-18
-18
-18
-18
-17
-16
-15
-14
-14
-20
-26
-24
-22
-25
-26
-6
14
39
43
-22
-88
-153
-194
-179
-161
-135
-108
-77
-60
-60
-71
-94
-103
-101
-91
-76
-64
-54
-46
-40
-32
-24
-18
-13
-10
-7
-6
-6
-6
-6
-5
-4
-3
-2
-2
-2
-2
-2
1
4
4
4
5
6
8
10
12
14
15
17
20
22
23
29
38
42
43
47
54
59
64
69
73
77
81
85
89
94
99
100
100
98
94
90
86
82
78
72
66
59
53
47
41
35
29
25
20
14
9
6
4
2
0
-3
-3
0
4
10
12
13
14
15
18
23
20
14
16
21
26
31
35
39
68
40
109
120
129
141
181
214
200
187
178
155
90
47
66
80
82
76
52
26
-5
-22
-25
-27
-29
-32
-36
-38
-38
-38
-39
-40
-41
-42
-43
-44
-43
-43
-45
-46
-45
-44
-43
-45
-48
-48
-48
-50
-52
-52
-52
-53
-54
-53
-52
-54
-56
-55
-53
-50
-47
-44
-40
-35
-29
-22
-15
-9
0
10
23
39
47
52
59
66
70
73
74
73
67
61
58
55
49
42
35
28
24
20
16
12
11
10
7
5
10
12
5
0
2
4
5
6
4
2
1
0
-1
-2
-2
-2
-2
-3
-5
-6
-6
-6
-7
-8
-8
-8
-9
-10
-11
-11
-12
-12
-16
-15
-14
-15
-16
-15
-14
-14
-14
-15
-16
-18
-19
-16
-15
-18
-20
-20
-20
-21
-23
-25
-25
-23
-22
-22
-22
-23
-24
-24
-24
-23
-19
-15
-14
-13
-10
-7
-6
-6
-7
-8
-11
-14
-18
-22
-22
-22
-25
-28
-28
-28
-29
-30
-34
-36
-34
-32
-32
-32
-30
-28
-29
-30
-30
-28
-24
-23
-25
-26
-25
-25
-27
-27
-25
-24
-25
-26
-26
-26
-27
-27
-24
-25
-26
-26
-26
-25
-24
-25
-26
-24
-22
-25
-29
-33
-36
-35
-36
-41
-43
-39
-23
6
17
11
-29
-95
-157
-216
-206
-161
-128
-99
-76
-55
-62
-77
-91
-104
-97
-87
-79
-86
-69
-68
-57
-46
-41
-36
-31
-26
-24
-22
-22
-22
-20
-19
-22
-24
-23
-22
-22
-22
-19
-19
-21
-22
-21
-20
-20
-19
-17
-15
-13
-9
-4
-2
-1
1
3
10
17
18
19
27
34
38
42
46
50
54
58
62
66
69
72
71
70
70
69
66
62
57
53
50
44
36
31
28
22
13
9
5
1
-4
-8
-11
-13
-15
-17
-19
-20
-21
-22
-21
-19
-16
-13
-10
-6
-2
3
8
8
8
8
8
6
4
3
1
-2
-4
-3
-2
-2
-4
-9
-11
-8
-10
-17
-17
-12
-10
-11
-12
-12
-12
-11
-11
-13
-16
-19
-20
-20
-21
-20
-25
-26
-24
-22
-26
-30
-27
-24
-26
-28
-27
-26
-26
-26
-28
-30
-28
-26
-27
-28
-27
-27
-29
-31
-33
-36
-40
-36
-26
-6
18
20
14
-40
-105
-167
-229
-191
-140
-112
-85
-69
-54
-68
-83
-96
-107
-95
-83
-72
-63
-58
-52
-43
-34
-26
-19
-16
-14
-13
-12
-10
-8
-8
-9
-11
-9
-3
-2
-6
-7
-5
-2
1
2
3
4
5
9
13
15
17
20
24
28
32
37
42
49
56
61
67
73
79
85
90
93
97
100
102
104
106
105
102
95
91
89
82
71
64
60
54
48
40
31
25
21
16
9
4
-1
-5
-9
-11
-10
-16
-18
-17
-16
-15
-13
-6
0
2
4
7
9
5
2
2
1
-2
-4
-4
-4
-7
-9
-11
-12
-13
-13
-10
-12
-18
-19
-17
-15
-13
-12
-13
-14
-15
-16
-15
-14
-15
-17
-18
-21
-24
-24
-24
-25
-26
-25
-24
-25
-26
-26
-26
-30
-32
-30
-28
-29
-30
-30
-30
-30
-30
-31
-32
-31
-31
-33
-34
-35
-39
-43
-40
-34
-8
22
22
17
-44
-109
-175
-240
-192
-145
-120
-98
-91
-85
-94
-103
-113
-116
-97
-80
-65
-54
-55
-52
-39
-30
-24
-19
-14
-12
-11
-9
-7
-6
-6
-6
-5
-4
-3
-2
-1
1
3
4
5
8
11
13
12
19
22
24
26
28
30
37
43
54
63
68
73
79
86
94
103
112
118
117
116
119
121
124
126
125
123
121
116
109
102
96
89
82
74
66
60
55
50
45
35
25
14
4
3
2
0
-2
-4
-6
-6
-6
-5
-4
-5
-6
-5
-4
-3
-2
0
2
3
5
7
8
7
6
7
8
9
9
7
6
6
5
3
3
5
6
5
0
-5
-3
2
20
38
45
45
-20
-86
-151
-201
-182
-163
-143
-120
-93
-74
-75
-84
-107
-116
-107
-94
-75
-65
-63
-52
-35
-24
-17
-10
-4
-1
1
2
2
3
5
6
7
9
11
12
12
15
18
18
18
21
24
29
34
37
41
47
53
59
65
70
76
83
92
102
110
117
122
127
132
138
142
146
148
147
144
141
137
132
123
114
105
96
89
83
72
61
53
46
40
34
28
22
18
14
12
10
8
6
7
8
7
6
5
4
4
4
2
1
4
5
2
0
1
1
-1
-1
1
0
-3
-4
-5
-6
-6
-6
-7
-8
-8
-9
-12
-13
-14
-15
-16
-17
-18
-18
-18
-17
-16
-16
-16
-16
-16
-16
-16
-18
-19
-16
-14
-15
-15
-13
-10
-4
-1
1
0
-3
-4
-5
-7
-9
-12
-15
-17
-19
-21
-23
-24
-24
-28
-32
-33
-34
-35
-36
-35
-33
-26
-20
-25
-28
-25
-22
-22
-22
-22
-22
-23
-24
-23
-22
-23
-24
-24
-24
-25
-26
-25
-23
-21
-21
-23
-24
-24
-24
-23
-24
-27
-28
-27
-23
-20
-27
-34
-32
-30
-38
-43
-36
-23
11
30
5
-32
-98
-152
-188
-194
-154
-118
-85
-61
-45
-46
-63
-78
-92
-87
-70
-64
-64
-61
-56
-46
-34
-28
-23
-20
-17
-16
-15
-12
-8
-9
-10
-11
-12
-8
-4
-8
-12
-9
-6
-5
-4
-2
0
1
2
4
6
8
10
13
15
17
19
21
23
26
33
41
46
49
54
60
64
67
71
75
80
85
87
86
91
92
90
88
82
76
74
71
62
54
49
46
43
38
30
23
20
17
13
9
6
4
3
2
1
0
-1
-1
1
4
8
14
20
22
23
24
23
22
21
20
20
18
16
15
14
12
10
11
12
9
6
7
8
8
8
9
10
12
14
12
10
11
11
9
8
9
7
2
0
1
2
2
2
1
0
1
2
1
0
-1
-2
-3
-4
-2
-4
-6
-4
-2
-3
-4
-5
-6
-7
-8
-9
-10
-12
-13
-8
6
33
50
55
27
-39
-104
-170
-178
-142
-115
-94
-73
-54
-55
-65
-80
-96
-91
-78
-67
-56
-50
-45
-35
-44
-20
-16
-11
-6
-1
4
-1
-6
-3
0
0
0
2
4
6
8
8
8
10
12
13
15
18
21
24
26
26
30
36
40
43
50
58
61
63
71
80
86
91
97
103
109
114
118
122
123
124
123
122
118
113
107
101
93
87
80
75
70
63
54
45
38
32
27
22
18
13
8
5
3
2
2
3
5
10
15
16
17
18
19
18
15
14
14
12
10
10
10
6
2
0
-2
-1
-1
-5
-8
-6
-4
-6
-7
-3
0
1
2
1
1
3
3
1
-1
-4
-6
-5
-4
-5
-5
-3
-2
-3
-4
-5
-6
-7
-8
-8
-8
-10
-6
-2
-7
-12
-10
-8
-8
-8
-8
-8
-9
-11
-14
-16
-18
-20
-20
-8
17
40
59
32
-34
-99
-165
-175
-155
-133
-110
-88
-67
-65
-69
-83
-100
-93
-83
-70
-57
-50
-44
-30
-16
-13
-10
-5
0
1
2
5
8
6
4
8
10
11
12
12
12
14
17
19
20
21
23
25
26
27
28
29
35
42
47
51
57
63
68
73
79
85
92
100
103
106
113
120
122
124
129
134
134
134
131
127
123
118
111
104
98
91
83
75
66
58
48
42
36
31
25
18
12
10
10
8
5
3
1
0
1
2
3
6
4
15
20
22
24
23
22
20
18
21
23
14
8
9
9
6
4
5
5
1
-2
-3
-5
-7
-8
-8
-8
-7
-8
-11
-12
-11
-11
-13
-14
-13
-12
-13
-14
-14
-15
-17
-19
-20
-22
-24
-20
-16
-21
-26
-26
-26
-25
-24
-25
-26
-28
-30
-29
-28
-27
-26
-28
-31
-33
-34
-35
-37
-39
-32
-19
3
29
-6
-63
-127
-192
-202
-199
-170
-137
-104
-72
-61
-50
-69
-88
-95
-101
-88
-75
-67
-60
-58
-55
-48
-39
-25
-17
-20
-22
-21
-19
-16
-14
-14
-13
-11
-10
-10
-10
-9
-8
-8
-6
-3
-2
-1
4
9
10
11
14
17
23
18
35
40
46
52
55
59
67
74
76
80
89
96
97
99
103
106
108
109
106
103
98
93
87
80
72
67
64
56
47
37
27
22
19
12
4
-2
-7
-9
-11
-14
-17
-20
-22
-23
-24
-24
-24
-23
-21
-15
-10
-7
-3
2
8
18
25
28
31
34
45
65
79
85
100
122
152
185
194
187
146
91
33
-27
-8
34
50
60
41
16
-13
-43
-43
-40
-44
-48
-51
-54
-56
-58
-60
-62
-63
-64
-65
-66
-67
-68
-68
-68
-68
-68
-69
-70
-71
-72
-73
-75
-77
-79
-81
-82
-83
-86
-89
-90
-90
-90
-90
-90
-90
-88
-85
-81
-84
-69
-62
-54
-46
-36
-27
-17
-7
4
13
19
24
25
27
31
32
26
21
17
12
5
0
-5
-10
-16
-18
-18
-20
-23
-25
-27
-28
-28
-28
-29
-30
-29
-28
-28
-28
-27
-27
-28
-28
-28
-27
-26
-26
-26
-26
-26
-27
-28
-27
-26
-26
-26
-25
-24
-25
-26
-25
-25
-27
-28
-28
-28
-28
-28
-29
-30
-31
-32
-33
-34
-34
-34
-34
-34
-33
-32
-33
-34
-34
-34
-34
-36
-38
-38
-38
-40
-42
-42
-42
-42
-42
-42
-42
-41
-40
-39
-36
-31
-28
-28
-28
-28
-30
-34
-37
-40
-42
-43
-46
-49
-51
-53
-54
-55
-58
-61
-62
-63
-63
-64
-61
-62
-60
-58
-57
-56
-58
-60
-57
-54
-57
-60
-59
-58
-58
-58
-57
-56
-55
-54
-53
-52
-52
-52
-51
-50
-49
-48
-47
-46
-45
-44
-44
-44
-44
-42
-39
-39
-41
-42
-43
-45
-46
-40
-32
-2
23
10
-13
-78
-138
-179
-200
-163
-128
-100
-80
-74
-76
-91
-102
-108
-105
-89
-76
-65
-59
-57
-49
-38
-30
-24
-20
-17
-16
-15
-14
-13
-11
-9
-8
-7
-6
-6
-6
-6
-4
-2
-1
0
2
4
5
6
6
6
8
11
16
20
22
25
29
33
36
40
44
48
54
58
62
67
72
76
81
85
89
91
93
95
97
98
97
91
96
81
78
73
68
61
54
49
43
36
29
23
18
15
11
7
4
3
2
0
-2
-2
-2
-3
-1
5
8
9
12
15
16
15
13
11
10
9
8
8
7
5
4
3
2
2
-2
-6
-6
-6
-5
-4
-6
-8
-6
-4
-5
-6
-6
-6
-8
-10
-11
-12
-12
-13
-15
-17
-19
-20
-20
-20
-21
-21
-19
-18
-19
-22
-25
-25
-23
-22
-23
-24
-23
-22
-20
-21
-22
-21
-20
-26
-32
-31
-30
-31
-29
-13
5
31
26
-40
-105
-171
-203
-191
-170
-140
-107
-70
-52
-46
-57
-78
-88
-91
-81
-66
-59
-53
-48
-43
-36
-29
-22
-15
-14
-14
-11
-10
-8
-6
-6
-6
-4
-2
-2
-2
-2
-2
-2
-2
0
2
4
6
8
11
14
17
20
24
28
32
36
42
49
54
58
66
74
78
81
86
91
94
97
104
111
110
108
109
110
103
96
90
83
76
69
62
54
46
38
28
20
14
9
5
1
-3
-8
-13
-17
-19
-20
-19
-19
-21
-22
-21
-20
-21
-18
-13
-8
-3
-2
-1
1
3
1
-4
-7
-10
-12
-14
-16
-18
-21
-24
-25
-27
-33
-38
-38
-38
-38
-39
-42
-42
-36
-32
-33
-34
-33
-32
-33
-35
-37
-38
-38
-38
-37
-36
-35
-35
-37
-38
-37
-36
-37
-38
-38
-33
-30
-32
-34
-33
-32
-31
-30
-30
-30
-31
-32
-30
-30
-36
-40
-38
-38
-43
-36
-13
9
30
4
-62
-127
-193
-198
-169
-142
-115
-83
-49
-37
-30
-47
-71
-80
-87
-70
-51
-50
-50
-45
-40
-35
-29
-21
-14
-12
-10
-8
-6
-7
-8
-8
-8
-9
-10
-8
-6
-4
-2
-1
1
3
4
5
6
7
9
11
14
17
21
25
28
31
33
35
42
49
53
58
64
70
73
76
79
82
89
94
94
94
92
89
84
79
76
72
66
60
54
48
41
36
32
25
16
11
8
4
1
-2
-7
-9
-11
-12
-12
-12
-11
-8
-5
-1
-4
6
8
8
8
7
6
5
4
5
6
4
2
1
-1
-4
-6
-7
-8
-10
-12
-11
-10
-10
-9
-7
-6
-5
-40
-97
-160
-225
-291
-356
-422
-487
-535
-579
-584
-585
-584
-581
-547
-513
-468
-424
-392
-360
-328
-292
-239
-190
-150
-111
-74
-42
-22
-2
18
37
55
66
67
69
72
77
83
87
90
93
97
104
113
118
121
128
136
144
152
162
173
190
207
219
232
251
271
288
305
322
338
356
373
390
406
418
427
431
434
433
431
427
420
411
400
385
370
353
336
319
300
279
259
238
217
196
176
156
138
119
103
88
76
65
59
64
47
42
37
32
31
30
30
30
29
28
23
20
19
18
17
16
16
16
14
12
11
10
10
10
10
10
10
8
5
7
12
9
2
-2
-5
-8
-11
-12
-13
-14
-15
-15
-14
-15
-16
-16
-16
-16
-16
-16
-16
-16
-16
-17
-18
-16
-15
-19
-22
-21
-20
-20
-20
-20
-19
-17
-16
-17
-18
-19
-22
-25
-26
-27
-28
-27
-14
2
21
42
-16
-81
-147
-212
-186
-161
-136
-111
-82
-57
-64
-73
-92
-106
-103
-95
-77
-62
-53
-46
-41
-35
-28
-20
-11
-5
-2
1
3
4
4
5
7
8
7
7
9
10
11
12
12
12
13
16
14
21
22
25
28
30
32
35
39
45
50
52
55
61
66
68
72
78
83
86
90
95
100
105
108
109
109
106
103
101
97
92
88
85
78
70
64
59
53
47
40
33
28
24
21
18
13
8
6
4
3
2
0
-2
-2
-2
-1
0
0
0
1
2
3
4
5
6
7
8
8
8
8
9
11
12
11
10
9
8
9
8
5
2
-1
-2
-2
0
2
2
2
5
8
9
10
9
8
7
6
3
-1
-6
-10
-11
-13
-16
-18
-19
-22
-27
-29
-27
-27
-29
-30
-31
-29
-24
-22
-21
-20
-21
-21
-19
-19
-21
-23
-22
-22
-18
-18
-18
-20
-22
-23
-24
-23
-22
-23
-24
-24
-24
-24
-24
-24
-24
-25
-26
-23
-22
-22
-24
-28
-30
-30
-32
-35
-30
-21
5
35
11
-27
-89
-154
-186
-214
-176
-133
-101
-70
-57
-45
-63
-81
-92
-99
-81
-66
-62
-58
-56
-51
-41
-33
-28
-23
-20
-18
-18
-18
-17
-15
-13
-12
-13
-13
-11
-10
-9
-8
-9
-9
-7
-6
-5
-4
-3
-2
-1
2
6
10
14
18
22
27
32
35
39
44
49
54
59
64
69
72
74
76
80
85
88
87
86
86
84
78
73
67
61
56
49
40
35
29
23
16
10
5
-1
-7
-10
-8
-16
-18
-18
-18
-20
-22
-23
-24
-22
-18
-9
-2
-2
-2
0
3
9
12
13
20
35
51
69
78
78
106
152
173
181
185
187
139
74
43
22
33
51
51
47
20
-9
-28
-46
-47
-48
-48
-48
-51
-54
-57
-60
-60
-60
-62
-64
-64
-64
-65
-66
-66
-66
-66
-66
-67
-68
-68
-68
-69
-70
-71
-73
-75
-76
-77
-78
-79
-80
-80
-80
-79
-76
-73
-69
-64
-58
-52
-44
-35
-23
-12
-8
-2
10
22
30
37
42
46
48
50
48
43
36
32
29
25
19
12
5
2
3
-1
-9
-12
-11
-11
-13
-14
-14
-14
-15
-16
-15
-15
-14
-17
-16
-15
-14
-14
-14
-16
-18
-19
-20
-21
-22
-21
-21
-25
-28
-27
-26
-27
-28
-28
-28
-27
-26
-26
-27
-29
-30
-30
-30
-29
-28
-28
-29
-31
-32
-31
-30
-31
-32
-33
-33
-32
-32
-32
-31
-30
-31
-32
-31
-30
-31
-32
-33
-34
-32
-29
-25
-22
-21
-20
-20
-21
-23
-25
-27
-28
-29
-31
-35
-37
-39
-41
-43
-44
-43
-43
-45
-46
-47
-48
-49
-47
-42
-42
-42
-42
-42
-40
-38
-38
-38
-38
-38
-37
-36
-37
-38
-38
-38
-37
-36
-36
-36
-36
-36
-36
-36
-35
-34
-33
-32
-33
-34
-33
-31
-29
-28
-29
-32
-35
-36
-37
-38
-38
-10
18
30
36
-29
-95
-160
-207
-170
-136
-118
-99
-80
-68
-76
-87
-103
-109
-99
-89
-76
-66
-58
-49
-40
-35
-32
-26
-20
-17
-15
-11
-7
-8
-11
-11
-9
-8
-8
-8
-8
-8
-8
-6
-4
-3
-2
1
4
5
6
8
10
12
14
18
21
26
31
35
39
42
46
51
56
61
67
72
76
80
84
88
91
93
97
101
100
97
93
89
83
77
72
66
59
52
46
40
33
26
22
17
11
5
1
-2
-3
-4
-6
-8
-8
-7
-3
0
3
5
8
10
9
8
7
4
1
0
1
2
2
2
1
0
0
-1
-3
-4
-4
-4
-2
-3
-4
-1
2
0
-2
0
2
-1
-4
-5
-6
-6
-7
-10
-12
-14
-16
-15
-15
-17
-17
-15
-14
-15
-16
-16
-16
-16
-16
-17
-18
-18
-18
-17
-16
-17
-19
-21
-23
-24
-27
-30
-24
-15
17
44
42
26
-39
-105
-170
-207
-178
-149
-122
-98
-76
-67
-75
-88
-106
-106
-89
-75
-63
-57
-53
-45
-33
-27
-22
-17
-13
-11
-9
-8
-7
-5
-3
-2
0
0
0
1
2
3
4
7
10
12
14
15
16
19
23
26
29
32
35
39
44
51
57
63
71
80
87
92
98
104
109
114
118
121
124
127
127
125
121
117
109
116
94
88
81
73
62
51
44
37
30
23
17
11
7
3
-2
-6
-6
-6
-8
-10
-11
-13
-15
-14
-8
-5
-2
2
6
8
8
8
8
7
5
3
1
0
-1
-4
-7
-13
-18
-18
-18
-21
-24
-24
-24
-25
-26
-25
-24
-22
-20
-22
-24
-22
-20
-22
-24
-24
-24
-24
-24
-24
-24
-23
-22
-22
-23
-25
-25
-23
-22
-21
-21
-23
-24
-23
-23
-25
-25
-22
-22
-22
-24
-26
-24
-22
-27
-32
-31
-30
-32
-27
0
23
41
27
-39
-104
-170
-192
-166
-141
-117
-86
-52
-39
-41
-56
-77
-80
-74
-63
-51
-48
-47
-39
-31
-26
-21
-15
-20
-7
-6
-5
-4
-3
-2
0
2
2
2
2
2
3
4
5
6
7
8
8
10
17
20
21
22
23
27
32
38
45
50
54
59
64
69
73
77
81
87
93
97
101
102
102
102
102
99
96
93
89
83
77
70
63
57
50
42
35
30
24
16
10
4
-2
-6
-8
-9
-10
-10
-10
-11
-12
-12
-11
-9
-3
4
6
5
8
13
14
13
11
8
6
4
4
4
2
0
-1
-2
-4
-6
-8
-10
-12
-13
-8
-5
-9
-12
-10
-9
-12
-13
-11
-11
-13
-15
-17
-12
-3
-25
-59
-117
-181
-247
-312
-378
-443
-482
-518
-556
-520
-592
-590
-577
-561
-524
-486
-442
-402
-376
-347
-305
-260
-206
-158
-120
-84
-51
-23
0
24
51
66
70
75
81
85
88
94
101
104
103
107
114
119
123
130
137
145
153
163
173
183
192
207
223
237
252
268
284
298
313
329
346
362
378
391
403
413
423
432
438
438
435
429
423
415
404
390
375
361
346
331
311
291
269
246
227
209
186
162
146
131
115
98
85
72
63
54
48
42
37
32
29
25
21
18
18
18
16
14
15
16
16
16
15
14
15
15
12
10
11
12
12
12
12
12
11
10
10
16
23
24
23
22
22
19
16
12
8
6
4
1
-2
-4
-6
-9
-12
-14
-17
-20
-22
-23
-24
-23
-22
-19
-17
-15
-15
-17
-17
-14
-13
-15
-16
-15
-14
-13
-12
-13
-14
-14
-14
-14
-15
-17
-18
-18
-18
-18
-17
-16
-15
-14
-17
-20
-16
-12
-14
-16
-14
-13
-16
-18
-20
-22
-24
-25
-22
-5
22
36
40
1
-65
-131
-196
-186
-147
-124
-106
-93
-82
-87
-95
-106
-117
-105
-90
-81
-72
-62
-52
-43
-36
-31
-25
-20
-16
-13
-10
-11
-12
-11
-10
-10
-9
-6
-4
-4
-5
-7
-7
-5
-3
-1
0
1
4
7
10
13
17
21
24
27
33
39
45
40
56
60
64
69
82
94
94
94
97
100
101
103
107
110
110
109
105
100
95
90
85
79
73
68
64
56
44
40
39
30
18
9
2
-2
-5
-6
-7
-10
-13
-14
-15
-18
-20
-19
-18
-19
-20
-16
-12
-12
-12
-9
-6
-6
-6
-6
-6
-4
-2
0
2
0
-2
-1
-1
-3
-4
-3
-1
3
-1
-9
-3
9
27
46
5
-51
-115
-180
-213
-243
-203
-160
-121
-84
-78
-73
-91
-106
-113
-115
-98
-84
-81
-75
-64
-53
-44
-35
-26
-20
-20
-19
-14
-13
-16
-17
-15
-14
-13
-10
-7
-5
-3
-2
-2
0
3
5
7
14
21
22
22
28
32
39
46
51
57
64
71
80
89
95
101
107
113
117
120
120
120
119
115
106
100
96
90
82
73
64
56
49
41
34
28
22
16
11
7
3
-1
-5
-5
-3
-5
-8
-9
-10
-11
-12
-11
-10
-12
-14
-12
-10
-8
-6
-10
-12
-12
-12
-14
-16
-15
-14
-13
-13
-16
-18
-19
-21
-23
-24
-23
-22
-22
-25
-29
-29
-27
-26
-27
-28
-28
-30
-34
-34
-34
-33
-32
-37
-42
-39
-36
-37
-38
-36
-34
-31
-27
-24
-22
-21
-20
-20
-22
-29
-33
-35
-36
-37
-39
-42
-45
-47
-48
-48
-49
-51
-52
-53
-53
-51
-50
-50
-48
-50
-44
-44
-44
-44
-42
-40
-42
-44
-44
-44
-43
-42
-44
-45
-41
-38
-40
-42
-43
-44
-44
-44
-43
-42
-42
-42
-43
-41
-36
-36
-40
-42
-43
-44
-44
-47
-51
-47
-41
-12
19
8
-6
-71
-136
-196
-242
-194
-151
-129
-108
-85
-71
-83
-96
-109
-115
-106
-95
-82
-72
-67
-58
-45
-37
-34
-28
-21
-17
-15
-15
-17
-16
-13
-12
-13
-13
-11
-10
-10
-10
-10
-8
-4
-5
-6
-5
-4
-4
-4
3
8
7
6
9
13
19
25
29
33
37
41
45
50
57
62
66
70
74
77
80
85
90
92
91
88
85
83
81
80
80
70
59
57
58
48
42
36
30
23
16
12
8
4
0
1
2
0
-2
-2
-2
-2
0
6
10
10
12
16
16
12
11
13
12
9
8
8
8
7
6
5
4
4
2
-1
-2
-3
-2
0
0
0
0
0
-2
-4
-2
0
-1
-2
-3
-4
-4
-4
-4
-5
-8
-10
-10
-10
-9
-10
-14
-15
-12
-11
-15
-16
-15
-14
-14
-14
-14
-14
-14
-14
-15
-17
-19
-20
-22
-26
-30
-20
-7
24
49
37
15
-50
-116
-181
-216
-174
-138
-112
-91
-77
-72
-84
-96
-109
-106
-85
-70
-59
-52
-48
-40
-29
-21
-12
-7
-3
-2
-2
-2
-2
-1
1
2
2
3
6
5
4
7
10
10
10
12
14
19
22
22
24
30
34
36
41
49
54
53
56
65
73
79
84
88
94
100
105
110
114
117
119
121
122
121
116
111
106
101
91
82
76
70
57
46
40
33
25
17
12
8
5
2
-2
-4
-6
-8
-9
-10
-11
-12
-13
-14
-13
-11
-9
-5
0
6
14
14
11
10
11
12
11
6
1
0
-1
-2
-4
-9
-14
-15
-16
-20
-24
-26
-28
-27
-26
-25
-24
-22
-20
-21
-22
-21
-20
-20
-20
-23
-24
-25
-26
-26
-26
-27
-26
-23
-24
-29
-30
-29
-28
-28
-28
-29
-30
-31
-32
-32
-31
-32
-32
-32
-31
-30
-33
-36
-40
-44
-49
-50
-42
-27
0
19
25
1
-65
-130
-196
-211
-177
-149
-126
-103
-80
-77
-85
-98
-114
-108
-93
-78
-63
-59
-57
-45
-31
-28
-25
-17
-10
-12
-14
-11
-8
-7
-6
-6
-6
-5
-4
-3
-2
0
2
3
6
12
15
11
10
15
19
21
23
26
31
36
41
46
51
56
65
74
79
83
89
95
98
101
105
110
113
116
117
118
116
113
106
99
91
82
74
66
59
52
43
35
27
21
18
13
4
-2
-6
-9
-11
-13
-15
-18
-21
-21
-19
-18
-18
-18
-17
-15
-13
-9
-5
2
-4
7
4
6
8
8
8
3
-2
-4
-6
-8
-11
-17
-21
-17
-15
-19
-23
-26
-26
-21
-22
-30
-31
-25
-22
-22
-22
-23
-24
-25
-24
-21
-22
-25
-26
-27
-28
-28
-28
-28
-29
-30
-31
-32
-28
-24
-28
-32
-31
-30
-31
-32
-30
-28
-29
-30
-29
-29
-33
-36
-37
-39
-42
-40
-32
-12
16
11
-14
-67
-132
-179
-219
-192
-146
-112
-80
-60
-42
-55
-71
-84
-98
-86
-74
-65
-56
-58
-59
-49
-39
-34
-29
-23
-18
-17
-16
-17
-17
-13
-10
-12
-13
-10
-8
-8
-8
-7
-6
-5
-3
-1
1
3
4
5
9
13
16
19
26
33
35
34
44
50
56
62
67
72
76
80
86
90
91
92
93
93
90
88
87
84
79
73
66
59
52
45
39
32
23
16
10
4
-2
-8
-14
-16
-16
-20
-25
-24
-21
-22
-25
-27
-28
-26
-24
-20
-16
-13
-10
-6
-2
-1
0
-1
-2
-2
-3
-8
-12
-13
-15
-19
-22
-23
-25
-27
-29
-31
-32
-33
-34
-35
-36
-37
-35
-31
-34
-39
-34
-27
-29
-33
-34
-34
-35
-36
-37
-38
-38
-38
-38
-38
-39
-40
-39
-38
-39
-40
-39
-37
-33
-31
-34
-36
-37
-37
-35
-34
-35
-37
-39
-40
-39
-40
-43
-37
-26
0
31
15
-9
-71
-136
-182
-140
-183
-139
-108
-80
-73
-68
-84
-99
-108
-112
-95
-79
-68
-59
-55
-49
-38
-29
-21
-14
-9
-7
-9
-9
-6
-4
-5
-5
-3
-2
-2
-1
1
3
5
6
7
12
17
18
17
19
22
25
28
31
34
38
43
49
55
60
65
71
77
82
88
94
100
105
109
112
114
115
115
112
110
109
105
98
90
81
75
71
63
54
47
41
36
31
24
17
13
8
4
0
2
4
-2
-8
-6
-4
-2
1
6
10
13
16
18
20
19
18
17
16
13
12
11
9
6
4
4
2
-1
-3
-5
-6
-7
-8
-8
-5
-1
0
1
0
2
0
4
0
-4
-5
-6
-7
-8
-9
-10
-8
-6
-9
-12
-10
-8
-10
-12
-11
-10
-11
-12
-11
-10
-11
-12
-11
-10
-10
-11
-13
-14
-14
-16
-19
-22
-25
-17
-7
22
53
40
24
-41
-107
-172
-224
-173
-126
-99
-77
-70
-67
-80
-93
-103
-103
-81
-64
-54
-46
-41
-34
-26
-19
-11
-7
-4
-1
1
2
1
0
1
2
1
3
7
7
5
6
9
11
14
14
14
17
20
22
24
28
32
34
36
39
45
56
64
65
68
74
81
88
94
99
104
108
112
116
119
121
120
117
114
109
102
94
86
78
74
71
60
49
43
48
29
22
16
10
6
2
1
0
-3
-6
-8
-10
-10
-10
-9
-8
-7
-6
-6
-3
4
6
1
3
12
17
19
21
23
22
19
16
13
10
7
6
5
2
-1
-3
-5
-10
-14
-12
-10
-15
-20
-18
-16
-15
-14
-15
-16
-17
-18
-17
-16
-16
-16
-16
-16
-18
-21
-23
-23
-21
-21
-24
-25
-23
-22
-23
-24
-25
-26
-27
-26
-23
-25
-29
-29
-27
-26
-28
-28
-28
-32
-36
-38
-40
-39
-34
-9
14
31
25
-40
-106
-172
-205
-187
-165
-138
-110
-79
-66
-70
-83
-104
-107
-98
-88
-77
-68
-59
-53
-49
-43
-36
-28
-21
-20
-19
-17
-18
-13
-12
-11
-10
-9
-8
-6
-4
-4
-4
-3
-1
3
6
7
9
12
15
19
23
28
32
37
41
44
50
57
66
75
80
84
89
93
101
110
116
121
129
137
137
135
132
130
122
114
103
94
88
81
70
61
55
48
38
28
21
14
7
4
9
9
1
-4
-3
-2
-2
-5
-10
-12
-13
-14
-13
-12
-12
-11
-9
-9
-11
-7
-1
-4
-9
-9
-6
-6
-6
-7
-8
-9
-10
-10
-10
-13
-16
-18
-20
-21
-22
-22
-22
-23
-25
-29
-33
-36
-38
-38
-28
-11
6
22
-16
-81
-147
-212
-218
-203
-176
-145
-108
-70
-66
-66
-88
-66
-114
-116
-96
-78
-77
-75
-64
-54
-51
-47
-38
-31
-27
-24
-25
-26
-24
-22
-20
-18
-15
-14
-13
-12
-11
-9
-6
-2
2
5
7
11
16
19
21
30
40
46
51
58
65
73
80
87
94
99
104
112
118
124
128
125
122
119
114
106
99
96
90
80
71
64
58
53
46
38
31
25
19
12
7
2
0
1
-2
-7
-8
-8
-8
-8
-9
-11
-12
-12
-12
-12
-12
-12
-12
-12
-13
-14
-15
-16
-13
-12
-19
-23
-20
-18
-20
-22
-21
-20
-21
-22
-22
-23
-25
-26
-26
-26
-26
-27
-29
-29
-27
-27
-29
-30
-29
-28
-28
-28
-28
-29
-28
-27
-26
-25
-24
-24
-23
-17
-12
-10
-8
-10
-13
-17
-20
-20
-20
-22
-24
-27
-30
-34
-36
-35
-36
-40
-42
-43
-43
-41
-40
-40
-39
-37
-36
-35
-33
-31
-30
-29
-28
-28
-27
-26
-28
-30
-24
-18
-24
-28
-26
-24
-24
-24
-23
-22
-21
-20
-20
-20
-18
-16
-15
-14
-14
-15
-17
-20
-24
-26
-25
-25
-27
-3
30
39
43
-13
-78
-144
-209
-175
-136
-116
-95
-76
-59
-69
-80
-94
-104
-89
-75
-63
-53
-49
-43
-31
-22
-17
-12
-7
-4
-3
-2
-1
0
0
1
3
4
3
2
2
2
2
5
9
9
7
7
9
12
10
18
20
22
24
28
32
34
37
44
50
53
57
61
66
72
77
81
86
91
96
101
105
108
110
109
109
112
108
99
94
90
84
78
69
60
52
45
39
33
28
23
17
12
8
4
2
0
-2
-4
-4
-4
-5
-6
-5
-4
0
3
7
10
12
14
14
14
15
15
12
9
6
4
4
2
-1
-2
-2
-5
-9
-11
-13
-13
-11
-10
-11
-11
-8
-9
-10
-10
-10
-12
-14
-14
-14
-16
-18
-18
-18
-20
-22
-21
-20
-22
-24
-22
-20
-20
-20
-19
-18
-19
-20
-21
-22
-22
-22
-23
-24
-23
-23
-25
-28
-31
-32
-31
-30
-30
-10
11
35
52
-13
-79
-144
-198
-194
-184
-158
-131
-103
-84
-86
-94
-110
-116
-104
-91
-74
-62
-54
-45
-34
-27
-22
-16
-10
-6
-3
-2
-2
-2
-1
0
0
0
1
4
7
10
12
13
14
14
14
18
22
22
23
28
32
35
39
44
49
54
61
69
76
81
90
102
108
107
112
122
127
129
132
135
136
135
130
125
118
110
101
93
87
81
72
62
54
46
38
30
23
16
12
8
4
0
-2
-4
-7
-10
-11
-12
-12
-12
-12
-12
-9
-8
-8
-7
-4
-1
2
9
17
18
15
14
14
12
9
5
1
0
0
-3
0
-9
-10
-13
-16
-21
-26
-24
-22
-22
-22
-24
-26
-23
-20
-21
-22
-21
-20
-22
-24
-24
-23
-21
-20
-21
-22
-21
-22
-25
-24
-20
-21
-26
-26
-23
-23
-25
-26
-25
-23
-21
-19
-18
-19
-20
-20
-20
-21
-22
-24
-26
-27
-27
-22
-10
19
37
32
2
-64
-129
-195
-205
-158
-121
-92
-70
-51
-52
-65
-77
-89
-81
-66
-57
-50
-48
-48
-38
-25
-19
-13
-7
0
-4
-8
-6
-4
-2
0
-1
-2
-2
-2
1
4
3
2
3
4
6
8
10
13
16
19
21
24
28
33
38
44
51
56
59
65
72
77
81
86
91
96
101
105
102
113
116
116
116
110
104
97
91
85
78
69
61
55
47
37
28
21
14
8
4
3
-1
-7
-11
-14
-17
-19
-20
-20
-20
-21
-22
-21
-20
-19
-19
-21
-19
-15
-12
-9
1
10
9
8
9
10
8
5
-1
-6
-6
-7
-11
-14
-16
-19
-24
-26
-21
-34
-70
-120
-186
-251
-317
-382
-448
-513
-579
-614
-636
-642
-643
-627
-604
-557
-505
-469
-435
-397
-358
-297
-236
-191
-146
-107
-70
-43
-16
10
36
60
78
77
77
81
85
90
95
99
105
112
117
122
128
138
146
153
162
172
184
196
209
222
236
251
266
281
303
325
340
353
369
354
405
424
436
448
454
460
467
472
466
461
454
444
429
412
393
374
358
339
318
296
273
251
230
208
185
163
140
125
114
97
77
64
53
43
34
26
17
13
9
7
5
3
2
0
-2
-4
-6
-1
3
-5
-12
-11
-10
-10
-10
-10
-10
-12
-14
-16
-18
-16
-14
-15
-17
-19
-20
-20
-21
-23
-24
-23
-24
-27
-27
-25
-25
-27
-27
-25
-28
-33
-33
-30
-31
-32
-31
-30
-32
-34
-32
-30
-27
-24
-21
-18
-17
-16
-17
-18
-18
-20
-26
-30
-30
-31
-34
-38
-42
-44
-44
-45
-47
-49
-51
-52
-51
-50
-50
-50
-49
-48
-47
-44
-46
-40
-40
-42
-44
-44
-44
-43
-42
-41
-40
-41
-42
-41
-40
-39
-38
-38
-38
-38
-38
-35
-33
-30
-28
-29
-30
-31
-32
-31
-30
-29
-30
-33
-34
-34
-35
-37
-22
-4
22
47
-16
-82
-147
-207
-188
-168
-145
-122
-94
-72
-76
-84
-103
-116
-112
-105
-91
-78
-68
-59
-52
-46
-41
-33
-23
-18
-17
-17
-19
-20
-19
-16
-13
-12
-13
-14
-13
-12
-12
-12
-13
-12
-8
-6
-4
-2
0
4
8
6
4
8
13
17
21
25
29
33
37
40
45
52
58
65
70
74
78
84
87
89
94
100
98
92
90
91
89
85
79
73
67
61
55
60
43
38
33
28
23
18
14
10
7
4
2
0
-1
-2
-2
-2
-1
2
7
10
13
14
15
15
13
11
8
5
3
2
2
1
-1
-3
-5
-9
-13
-16
-19
-80
-144
-210
-276
-341
-406
-460
-514
-565
-608
-607
-605
-597
-579
-536
-495
-457
-423
-395
-356
-302
-248
-195
-148
-107
-71
-38
-12
10
30
49
62
71
77
81
84
87
92
97
99
101
107
113
120
128
134
140
149
159
171
184
197
211
226
241
255
270
287
304
322
339
353
369
385
400
413
427
440
447
450
451
448
443
438
427
414
399
383
369
355
333
311
289
268
246
266
203
182
161
141
125
108
94
81
70
60
50
41
36
31
26
21
18
15
12
9
6
4
4
4
3
2
2
1
-1
-2
-3
-5
-7
-8
-8
-10
-13
-13
-11
-11
-13
-17
-20
-19
-18
-18
-18
-18
-18
-20
-22
-22
-22
-23
-24
-24
-25
-28
-30
-29
-28
-28
-29
-31
-31
-29
-28
-27
-26
-27
-27
-25
-21
-17
-15
-13
-12
-13
-15
-17
-18
-19
-24
-30
-32
-34
-37
-40
-41
-42
-43
-44
-45
-46
-45
-44
-46
-48
-46
-44
-42
-40
-42
-42
-37
-35
-38
-39
-36
-35
-37
-38
-38
-38
-37
-36
-37
-38
-37
-36
-37
-38
-38
-37
-38
-37
-40
-36
-32
-33
-34
-33
-32
-33
-34
-39
-42
-40
-39
-42
-40
-29
-10
18
10
-41
-99
-165
-198
-205
-186
-149
-116
-84
-70
-64
-76
-96
-104
-109
-98
-82
-76
-71
-68
-65
-55
-46
-37
-28
-27
-26
-25
-24
-23
-22
-23
-24
-21
-18
-19
-20
-20
-19
-16
-13
-9
-8
-12
-13
-10
-6
-2
1
3
5
7
11
15
18
21
24
27
31
35
43
51
52
50
57
64
68
72
76
80
82
84
82
80
79
77
72
67
64
62
60
54
44
36
31
26
22
17
11
7
4
0
-3
-6
-11
-11
-9
-10
-13
-14
-15
-16
-15
-11
-14
-3
0
3
6
5
4
2
0
-3
-6
-8
-10
-7
-6
-12
-16
-15
-15
-18
-20
-21
-22
-23
-23
-21
-20
-19
-20
-23
-22
-19
-19
-21
-24
-27
-28
-27
-29
-33
-34
-34
-34
-34
-32
-30
-31
-32
-31
-30
-31
-32
-32
-32
-30
-28
-28
-28
-30
-32
-31
-30
-32
-35
-37
-38
-38
-34
-27
-4
29
31
18
-34
-99
-165
-230
-203
-156
-126
-99
-88
-79
-89
-102
-112
-122
-106
-91
-75
-62
-61
-58
-48
-39
-32
-25
-20
-16
-16
-14
-9
-7
-11
-13
-10
-8
-9
-9
-6
-3
-1
0
1
2
3
7
11
12
12
14
17
21
25
27
26
39
48
48
48
58
66
71
77
83
88
93
97
101
105
108
110
110
109
105
99
92
84
75
69
67
58
43
35
30
25
20
12
4
-1
-5
-7
-9
-13
-17
-18
-18
-19
-20
-18
-16
-13
-10
-4
2
2
2
4
5
1
-2
-4
-6
-6
-6
-7
-9
-12
-15
-18
-21
-23
-25
-27
-27
-25
-24
-24
-22
-19
-18
-19
-20
-19
-18
-17
-16
-17
-19
-22
-20
-18
-21
-24
-21
-18
-19
-20
-21
-22
-19
-16
-18
-20
-21
-22
-20
-18
-20
-22
-23
-22
-17
-16
-22
-24
-24
-24
-24
-24
-25
-15
1
27
55
9
-50
-115
-180
-187
-184
-159
-125
-99
-74
-75
-78
-95
-110
-104
-97
-80
-66
-55
-47
-42
-37
-31
-24
-14
-8
-8
-8
-8
-7
-5
-4
-4
-2
1
2
2
3
5
6
6
7
9
10
11
14
17
21
24
28
32
36
40
46
52
56
62
72
80
82
86
94
101
105
110
116
121
125
128
128
128
127
124
120
114
107
100
92
84
75
67
60
52
44
37
31
23
15
13
10
6
2
0
-2
-4
-6
-6
-6
-4
-2
-5
-7
-1
4
5
8
14
18
19
20
19
17
14
11
9
7
5
2
-1
-3
-5
-7
-9
-13
-17
-17
-15
-18
-23
-24
-24
-20
-16
-19
-22
-20
-18
-18
-18
-19
-20
-20
-20
-21
-22
-23
-23
-20
-18
-20
-22
-22
-22
-22
-22
-23
-24
-25
-24
-21
-22
-25
-25
-23
-22
-23
-30
-39
-90
-146
-211
-276
-342
-407
-444
-476
-450
-426
-427
-421
-376
-326
-261
-196
-131
-77
-45
-20
-8
2
7
11
14
17
19
22
26
25
20
21
26
27
25
27
31
32
32
32
33
34
34
38
43
44
44
47
50
57
64
71
78
81
86
97
108
118
129
139
149
159
170
181
192
202
209
214
218
223
225
222
217
212
204
195
181
166
150
134
119
105
86
66
52
37
30
36
14
6
-1
-8
-11
-14
-18
-22
-21
-20
-20
-20
-21
-22
-21
-20
-21
-22
-21
-20
-17
-16
-15
-15
-17
-16
-12
-7
-2
2
5
6
7
6
3
0
-3
-6
-9
-13
-17
-19
-20
-24
-28
-31
-34
-34
-34
-36
-38
-37
-36
-34
-32
-31
-30
-32
-33
-30
-29
-32
-34
-33
-32
-32
-32
-33
-34
-34
-34
-35
-35
-33
-32
-33
-34
-34
-33
-31
-30
-31
-32
-30
-31
-32
-32
-32
-31
-30
-30
-30
-31
-32
-34
-35
-29
-16
10
26
28
2
-64
-129
-195
-206
-167
-136
-112
-88
-66
-64
-73
-89
-109
-107
-96
-84
-70
-65
-61
-49
-37
-34
-36
-23
-16
-15
-14
-14
-14
-13
-12
-9
-6
-6
-5
0
3
0
-2
0
2
4
6
7
9
12
14
15
18
22
27
32
36
40
45
49
57
66
73
79
86
93
99
105
112
118
118
118
113
108
107
105
99
94
91
86
78
70
63
56
47
41
38
34
28
23
20
17
14
8
-1
-5
-9
-8
-5
-8
-14
-15
-13
-12
-11
-10
-10
-10
-9
-7
-4
-5
-6
-4
-2
-2
-2
0
2
2
2
3
4
4
4
3
2
1
0
-1
-1
2
2
-2
-4
-5
1
13
34
59
19
-46
-112
-177
-194
-199
-175
-145
-116
-86
-84
-84
-98
-114
-113
-111
-95
-79
-68
-57
-48
-37
-24
-12
-3
4
5
6
6
6
7
8
11
12
12
13
15
16
17
19
21
22
23
26
29
36
44
46
45
50
57
64
71
78
84
92
100
106
112
118
124
128
133
139
145
149
151
146
141
137
131
123
114
104
97
94
85
70
61
55
46
36
30
26
21
16
11
7
5
3
2
2
1
-1
-2
-2
-2
-2
-2
-2
-2
-2
-4
-6
-5
-4
-5
-6
-6
-6
-6
-7
-10
-12
-10
-8
-11
-12
-12
-13
-15
-16
-16
-17
-19
-20
-19
-18
-18
-18
-19
-20
-21
-22
-21
-19
-20
-21
-26
-23
-20
-19
-18
-19
-20
-19
-17
-12
-7
-3
0
1
1
-2
-4
-6
-8
-8
-11
-18
-22
-21
-20
-21
-23
-25
-26
-27
-29
-31
-31
-29
-27
-25
-22
-19
-18
-19
-17
-14
-16
-18
-17
-16
-20
-24
-23
-22
-20
-18
-19
-20
-20
-20
-20
-21
-24
-26
-24
-22
-22
-23
-25
-26
-26
-26
-25
-27
-32
-33
-31
-33
-37
-30
-20
8
39
15
-15
-79
-144
-190
-232
-187
-143
-115
-89
-77
-70
-81
-93
-107
-113
-93
-77
-68
-60
-55
-49
-42
-35
-26
-21
-19
-18
-17
-16
-15
-14
-13
-12
-11
-10
-10
-9
-7
-6
-6
-6
-5
-2
-4
4
6
7
8
11
14
16
18
22
27
33
38
38
40
47
53
59
64
70
76
83
87
89
92
96
98
99
100
100
97
92
90
89
82
74
66
57
50
43
36
29
21
14
9
4
0
-4
-8
-12
-16
-20
-21
-22
-25
-28
-24
-22
-24
-26
-26
-26
-25
-21
-15
-11
-9
-5
0
1
-1
-2
-2
-4
-7
-8
-8
-9
-11
-12
-13
-15
-17
-20
-24
-26
-28
-28
-28
-28
-28
-23
-19
-25
-29
-24
-20
-21
-22
-24
-26
-25
-24
-24
-24
-24
-25
-27
-28
-28
-28
-27
-26
-25
-25
-27
-26
-23
-23
-25
-26
-26
-26
-25
-24
-24
-29
-32
-33
-34
-36
-38
-31
-20
12
32
4
-34
-99
-161
-213
-228
-178
-136
-105
-78
-55
-50
-62
-76
-92
-91
-79
-68
-59
-60
-66
-58
-43
-36
-29
-24
-19
-18
-18
-18
-17
-17
-18
-13
-8
-13
-18
-13
-8
-8
-8
-8
-8
-6
-4
-2
0
2
6
12
16
18
22
27
32
37
44
53
57
61
66
72
77
82
88
93
98
103
106
109
109
107
102
96
91
86
80
74
67
59
50
41
35
29
22
14
7
2
0
-3
-7
-10
-12
-14
-15
-16
-17
-17
-15
-15
-18
-18
-15
-12
-7
-8
-11
-6
2
7
11
12
13
14
14
10
6
5
4
1
-2
-6
-10
-8
-7
-13
-18
-20
-22
-23
-24
-23
-22
-22
-22
-19
-19
-22
-22
-18
-17
-20
-21
-19
-20
-24
-26
-25
-23
-21
-19
-17
-16
-17
-18
-18
-18
-18
-17
-16
-18
-20
-17
-14
-16
-18
-17
-16
-16
-16
-15
-15
-19
-22
-23
-23
-20
-7
15
36
54
24
-42
-107
-173
-187
-175
-154
-130
-103
-75
-71
-73
-89
-106
-104
-99
-82
-64
-57
-50
-42
-34
-25
-18
-16
-13
-8
-4
-6
-8
-8
-7
-4
-2
-3
-2
3
6
3
3
5
6
6
9
14
14
10
12
18
21
23
27
31
35
39
45
51
58
52
73
80
85
90
95
100
105
110
112
114
116
118
118
117
113
108
101
93
86
79
72
65
59
52
44
36
29
24
20
14
8
3
-1
0
3
0
-5
-5
-3
-1
1
3
4
10
16
19
22
23
24
23
22
21
20
18
16
15
13
9
6
6
5
2
-2
-6
-8
-7
-6
-7
-8
-9
-10
-10
-11
-13
-12
-9
-11
-15
-16
-16
-16
-16
-16
-16
-19
-22
-22
-22
-23
-24
-26
-28
-25
-23
-28
-31
-27
-24
-24
-24
-25
-26
-25
-24
-25
-26
-26
-28
-32
-34
-34
-32
-29
-9
19
36
51
1
-64
-130
-195
-186
-167
-142
-166
-97
-78
-84
-91
-106
-118
-102
-86
-71
-60
-55
-50
-39
-29
-18
-10
-10
-9
-6
-4
-1
0
0
0
1
3
5
7
9
10
10
10
11
12
13
16
19
23
27
31
35
37
38
45
52
55
59
68
76
80
85
92
98
101
105
112
117
121
125
128
129
126
123
120
114
106
99
93
84
74
64
55
49
44
35
26
19
13
9
5
4
3
1
-2
-6
-10
-9
-8
-11
-14
-11
-8
-12
-16
-13
-10
-7
-4
-3
0
5
9
12
14
14
13
11
8
4
1
-1
-4
-7
-10
-15
-17
-19
-21
-23
-25
-27
-28
-27
-27
-26
-25
-20
-21
-22
-23
-24
-23
-22
-22
-22
-23
-24
-26
-28
-26
-24
-25
-26
-24
-22
-23
-24
-25
-26
-25
-24
-25
-26
-27
-28
-28
-28
-28
-28
-29
-30
-30
-30
-30
-33
-37
-38
-38
-22
-4
22
39
-20
-81
-146
-199
-206
-202
-165
-129
-97
-73
-64
-65
-83
-94
-96
-93
-82
-73
-65
-59
-53
-45
-37
-30
-22
-18
-15
-14
-13
-12
-11
-10
-9
-8
-9
-7
-2
-3
-4
0
4
1
-2
3
8
10
12
15
18
20
23
27
32
37
41
45
51
58
65
71
76
82
87
93
97
99
104
110
112
111
109
107
101
95
90
85
80
84
67
60
52
44
36
28
21
15
9
3
-2
-6
-9
-12
-13
-14
-15
-16
-16
-16
-16
-16
-16
-16
-17
-17
-14
-12
-12
-6
3
7
9
10
9
8
9
9
7
2
-3
-5
-6
-10
-14
-15
-16
-21
-26
-25
-24
-27
-30
-29
-28
-30
-32
-30
-28
-28
-28
-27
-26
-27
-28
-29
-29
-27
-28
-32
-34
-33
-32
-31
-30
-30
-30
-30
-30
-31
-32
-32
-31
-28
-27
-26
-27
-28
-28
-28
-23
-19
-24
-28
-29
-30
-32
-33
-28
-14
11
31
45
21
-45
-110
-176
-194
-177
-152
-122
-97
-73
-68
-71
-86
-106
-105
-98
-84
-70
-62
-55
-43
-54
-25
-20
-15
-10
-4
2
-5
-10
-8
-6
-5
-4
-3
-2
0
2
2
3
7
10
10
11
13
14
15
20
29
31
29
32
38
44
50
55
59
65
71
75
79
86
93
99
104
109
114
115
116
118
120
118
115
109
103
95
88
81
74
65
57
49
41
34
28
23
18
13
9
7
3
-4
-6
-6
-6
-7
-8
-9
-10
-9
-8
-7
-6
-5
0
6
11
16
19
22
19
16
16
15
10
6
4
2
2
1
-3
-7
-10
-12
-12
-13
-18
-19
-17
-17
-19
-16
-9
-10
-17
-19
-17
-16
-16
-16
-16
-17
-19
-20
-20
-20
-20
-19
-20
-18
-16
-16
-16
-17
-18
-16
-14
-17
-20
-17
-14
-16
-18
-18
-18
-18
-18
-17
-18
-22
-24
-23
-23
-26
-18
-3
22
50
19
-35
-98
-163
-188
-206
-177
-143
-111
-79
-80
-82
-94
-106
-104
-100
-83
-67
-56
-47
-40
-33
-27
-21
-16
-11
-7
-4
-5
-6
-4
-1
1
2
1
1
3
4
3
3
5
6
6
10
15
15
13
16
21
23
25
30
36
41
46
54
62
68
75
82
89
94
99
106
113
117
123
132
136
129
124
126
127
122
117
110
102
94
85
76
66
57
49
40
34
28
22
17
13
9
5
1
0
0
-1
-4
-4
-4
-4
-4
-2
0
0
0
1
2
5
9
12
16
22
26
26
28
35
35
28
24
24
21
16
14
13
10
6
4
3
-2
-7
-8
-8
-9
-11
-12
-13
-11
-8
-5
-2
-7
-12
-9
-6
-8
-10
-10
-10
-11
-12
-13
-14
-14
-14
-15
-16
-15
-15
-17
-17
-15
-14
-13
-12
-13
-15
-17
-18
-18
-18
-19
-19
-17
-20
-25
-26
-27
-28
-28
-15
-1
31
53
-12
-78
-143
-197
-205
-204
-168
-134
-104
-84
-84
-90
-105
-114
-113
-105
-88
-72
-57
-49
-47
-41
-33
-26
-19
-15
-13
-12
-11
-10
-10
-9
-7
-6
-5
-4
-4
2
10
6
2
5
8
10
12
13
14
19
22
25
29
34
39
43
49
57
65
74
83
93
100
104
111
120
126
130
132
132
132
132
132
131
126
121
111
101
94
87
76
66
60
54
46
38
35
32
26
20
6
-4
-6
-8
-12
-14
-15
-16
-17
-18
-20
-20
-16
-15
-17
-17
-14
-12
-12
-12
-13
-14
-13
-12
-11
-10
-10
-10
-10
-10
-11
-12
-12
-13
-14
-13
-12
-10
-8
-9
-10
-14
-17
-10
2
22
36
34
7
-59
-124
-190
-215
-194
-168
-136
-107
-79
-69
-71
-87
-111
-113
-104
-89
-72
-68
-67
-52
-36
-29
-23
-14
-22
-6
-8
-6
-4
-1
2
2
2
4
6
7
8
10
13
16
19
22
24
26
29
32
35
38
46
59
65
67
74
84
94
103
111
118
124
129
137
146
150
153
151
147
142
138
137
135
120
106
101
95
86
76
66
57
51
44
37
30
23
18
16
11
4
0
0
-1
-3
-4
-4
-3
-1
0
-1
-3
-5
-5
-3
-4
-7
-8
-7
-6
-7
-9
-12
-12
-12
-11
-10
-13
-16
-13
-10
-13
-16
-16
-16
-15
-15
-18
-20
-21
-22
-23
-25
-28
-27
-21
-20
-24
-26
-25
-24
-25
-26
-25
-24
-25
-26
-25
-25
-27
-27
-25
-25
-24
-24
-20
-25
-30
-27
-24
-25
-26
-26
-26
-26
-26
-25
-24
-23
-21
-17
-14
-13
-11
-6
-8
-16
-20
-20
-21
-23
-24
-25
-27
-29
-33
-37
-36
-33
-36
-41
-40
-37
-36
-37
-35
-32
-30
-28
-27
-26
-25
-24
-25
-26
-26
-26
-26
-26
-26
-25
-22
-21
-25
-28
-27
-27
-29
-30
-29
-28
-27
-26
-27
-27
-25
-24
-25
-26
-25
-27
-31
-32
-32
-34
-37
-32
-24
7
36
21
1
-64
-128
-182
-218
-174
-134
-106
-83
-73
-70
-85
-99
-112
-113
-95
-84
-79
-73
-66
-56
-45
-37
-31
-26
-23
-21
-19
-18
-17
-16
-16
-16
-17
-18
-18
-16
-18
-12
-12
-11
-10
-9
-8
-6
-4
-3
-2
3
6
7
9
14
18
20
25
32
36
39
44
52
57
59
64
71
78
84
89
94
97
99
100
101
102
101
97
93
92
92
79
66
64
62
55
48
43
38
32
28
25
21
17
14
10
8
7
6
5
3
0
-2
-2
-3
-5
-5
-3
-2
-1
3
8
13
17
20
23
24
24
24
24
22
19
17
14
11
8
8
8
1
-6
-4
-2
-5
-8
-9
-10
-11
-12
-10
-8
-7
-6
-8
-10
-10
-10
-11
-14
-18
-20
-20
-18
-15
-17
-22
-22
-19
-20
-23
-24
-23
-22
-22
-22
-22
-24
-24
-24
-24
-24
-24
-23
-22
-22
-22
-27
-29
-24
-22
-28
-28
-17
3
36
41
11
-37
-103
-158
-205
-198
-155
-122
-93
-82
-79
-87
-99
-102
-103
-90
-72
-61
-51
-45
-39
-31
-24
-17
-10
-7
-4
-4
-4
-3
-2
1
4
3
3
10
13
8
6
11
14
14
15
17
19
21
23
26
30
34
38
41
45
50
56
61
67
73
79
85
93
101
105
110
114
118
121
124
126
128
126
124
121
116
107
98
89
80
73
64
54
45
38
31
22
16
12
5
-4
-8
-9
-11
-13
-14
-13
-13
-15
-16
-16
-16
-16
-15
-13
-12
-12
-10
-8
-9
-10
-6
-2
-2
-1
5
10
11
12
13
14
12
9
6
3
0
-2
-5
-7
-10
-15
-21
-23
-21
-24
-30
-32
-31
-30
-29
-27
-25
-23
-21
-21
-23
-23
-21
-21
-22
-22
-22
-20
-18
-22
-26
-23
-20
-20
-20
-21
-22
-22
-22
-22
-22
-22
-22
-21
-20
-20
-21
-23
-23
-20
-20
-24
-26
-27
-28
-28
-28
-29
-23
-14
13
43
7
-36
-101
-166
-200
-229
-180
-133
-105
-79
-69
-62
-73
-85
-99
-104
-84
-68
-62
-57
-54
-48
-38
-30
-25
-20
-16
-14
-15
-14
-10
-11
-16
-14
-8
-7
-9
-9
-7
-6
-7
-6
-3
-2
-2
-1
-2
3
8
11
14
18
22
26
31
37
43
48
54
60
65
71
76
82
88
93
98
103
107
110
111
108
106
106
101
94
89
85
76
64
56
49
42
35
26
17
9
2
-1
-4
-6
-8
-12
-16
-19
-22
-22
-22
-21
-20
-18
-17
-21
-23
-20
-18
-18
-17
-14
-12
-13
-12
-8
-5
-3
1
6
9
11
11
9
6
3
-1
-5
-8
-11
-14
-18
-22
-26
-26
-26
-28
-30
-32
-34
-35
-36
-35
-34
-32
-31
-34
-35
-32
-30
-32
-34
-35
-34
-30
-31
-37
-40
-39
-38
-38
-38
-37
-36
-37
-38
-38
-37
-35
-34
-35
-36
-36
-36
-36
-36
-36
-33
-30
-34
-38
-38
-38
-38
-37
-33
-21
9
28
30
5
-61
-126
-192
-205
-169
-140
-117
-94
-69
-64
-71
-89
-112
-110
-99
-85
-71
-62
-55
-46
-37
-33
-29
-21
-14
-12
-10
-9
-8
-7
-6
-6
-6
-6
-6
-4
-2
0
2
4
6
5
5
8
10
11
14
19
23
26
32
39
42
41
46
55
61
65
71
77
83
89
93
97
103
110
112
114
116
118
114
110
109
106
94
83
78
73
67
59
49
40
35
28
19
13
10
6
2
-2
-6
-7
-4
-6
-12
-13
-11
-10
-11
-11
-9
-8
-7
-6
-5
-4
-4
7
16
13
10
15
20
19
18
12
8
5
2
2
1
-2
-5
-8
-10
-10
-12
-17
-21
-23
-23
-20
-20
-24
-25
-23
-22
-21
-20
-20
-21
-23
-24
-23
-22
-23
-24
-23
-25
-28
-26
-24
-25
-26
-26
-26
-27
-28
-29
-30
-28
-26
-26
-26
-25
-24
-24
-23
-19
-17
-20
-23
-26
-28
-27
-25
-21
-5
18
40
63
17
-48
-114
-179
-180
-171
-149
-125
-97
-68
-77
-86
-99
-109
-99
-87
-68
-51
-46
-39
-27
-18
-15
-10
-1
4
4
5
9
10
5
3
6
8
9
13
18
18
15
14
14
16
19
20
21
24
27
28
29
34
30
42
44
51
58
63
69
76
82
88
92
97
101
106
113
122
128
128
130
135
136
131
126
122
116
108
100
93
83
72
65
60
51
41
33
26
21
17
11
5
4
4
-1
-6
-4
-2
-3
-4
-4
-4
-3
-2
-3
-4
-3
-2
0
3
7
12
20
24
26
28
28
27
25
23
20
18
18
15
10
6
3
1
-1
-4
-7
-9
-11
-12
-13
-12
-8
-13
-18
-12
-6
-9
-12
-10
-8
-10
-12
-14
-16
-15
-14
-16
-17
-14
-12
-13
-14
-17
-18
-17
-16
-16
-16
-16
-16
-17
-18
-17
-16
-16
-16
-16
-16
-17
-19
-21
-19
-22
-22
-30
-19
-5
28
54
21
-18
-83
-146
-202
-229
-180
-135
-102
-75
-61
-58
-75
-88
-99
-96
-78
-64
-53
-45
-39
-32
-26
-18
-9
-6
-5
-4
-4
-4
-4
-4
-3
2
7
5
2
2
2
5
8
10
12
12
12
15
18
20
22
26
30
36
41
45
51
58
64
68
73
79
86
93
99
104
109
114
119
124
126
126
125
123
117
111
105
99
93
86
76
66
59
52
45
37
29
21
15
9
5
1
-4
-8
-9
-10
-11
-11
-8
-7
-10
-12
-11
-10
-11
-11
-8
-6
-7
-8
-7
-6
-5
-4
-3
3
9
10
9
12
8
12
6
4
2
-2
-6
-8
-10
-12
-15
-20
-24
-26
-29
-34
-38
-38
-38
-37
-35
-32
-30
-31
-32
-33
-34
-33
-32
-31
-30
-31
-32
-32
-33
-35
-36
-35
-33
-31
-31
-33
-35
-36
-34
-32
-34
-36
-35
-34
-34
-34
-33
-32
-34
-36
-35
-35
-39
-40
-35
-34
-40
-39
-28
-7
20
20
0
-49
-115
-172
-225
-204
-155
-120
-90
-71
-55
-64
-78
-90
-101
-90
-76
-65
-54
-55
-55
-44
-33
-26
-20
-16
-12
-9
-6
-7
-8
-7
-6
-5
-4
-3
0
5
7
4
3
5
6
7
8
9
12
17
19
21
24
27
34
41
45
49
55
50
70
78
84
90
96
103
111
118
122
126
126
125
120
116
118
117
106
98
93
86
77
69
62
54
46
39
33
25
17
14
13
7
0
-5
-9
-12
-15
-14
-11
-12
-15
-15
-14
-14
-14
-13
-12
-10
-8
-7
-6
-6
-6
-3
0
1
2
1
0
2
4
4
4
3
2
2
2
1
0
1
1
-1
-2
-2
-2
-1
15
33
47
60
2
-63
-129
-194
-181
-167
-143
-120
-100
-82
-80
-81
-101
-113
-100
-88
-79
-70
-64
-54
-36
-23
-15
-8
-1
3
5
6
7
9
12
13
11
11
13
15
17
18
19
20
20
26
33
34
34
38
42
47
52
58
64
71
77
84
91
100
108
115
121
125
131
142
148
146
145
150
151
148
143
137
129
120
111
103
94
85
76
68
59
50
42
33
29
25
17
9
7
6
5
4
2
0
-2
-4
-3
-2
-1
0
0
0
-1
-2
-2
-2
-1
0
-1
-2
-1
0
-1
-2
-2
-2
-3
-4
-4
-4
-5
-6
-7
-7
-5
-6
-9
-10
-9
-8
-10
-10
-10
-10
-10
-10
-10
-12
-14
-13
-12
-13
-14
-14
-15
-18
-18
-13
-12
-18
-22
-19
-18
-17
-16
-16
-16
-16
-14
-10
-7
-5
-2
1
2
1
-2
-5
-10
-15
-13
-16
-17
-26
-24
-22
-24
-26
-29
-32
-34
-36
-35
-34
-34
-33
-30
-28
-29
-30
-31
-32
-29
-27
-25
-25
-27
-27
-25
-24
-23
-24
-27
-28
-27
-26
-25
-25
-27
-28
-27
-26
-25
-20
-16
-23
-30
-25
-20
-21
-22
-28
-32
-30
-28
-29
-25
-9
11
36
26
-40
-105
-171
-198
-186
-168
-144
-114
-79
-65
-61
-73
-92
-100
-103
-91
-73
-65
-57
-50
-43
-33
-23
-21
-18
-15
-12
-9
-6
-7
-8
-8
-8
-6
-4
-1
2
0
-2
0
4
9
10
5
3
8
11
14
17
20
25
30
33
35
38
43
47
53
55
57
63
69
71
73
82
74
95
98
104
110
109
108
107
106
103
99
94
88
81
75
70
63
55
47
37
30
25
20
15
11
9
6
2
0
-1
-4
-8
-10
-9
-8
-9
-11
-13
-14
-13
-12
-12
-11
-10
-7
-4
-2
1
9
16
14
12
16
19
14
10
9
8
6
3
0
-2
-3
-5
-7
-9
-12
-15
-17
-18
-19
-20
-19
-19
-21
-21
-19
-18
-19
-20
-21
-24
-27
-27
-24
-24
-24
-25
-26
-25
-24
-26
-28
-27
-27
-31
-33
-28
-25
-28
-30
-28
-26
-27
-28
-27
-26
-25
-24
-24
-26
-30
-32
-33
-32
-29
-9
17
31
42
-12
-77
-143
-208
-183
-212
-129
-105
-70
-38
-41
-46
-67
-84
-81
-76
-65
-56
-54
-50
-42
-33
-25
-20
-19
-17
-12
-10
-9
-8
-7
-6
-5
-4
-4
-4
-3
-1
1
2
3
4
5
7
9
11
13
19
24
23
22
29
36
40
45
51
56
60
66
74
81
86
92
98
103
106
109
112
114
114
114
114
111
105
99
92
86
78
70
61
54
48
40
32
26
21
13
5
2
-2
-6
-10
-11
-12
-12
-12
-15
-18
-16
-14
-14
-14
-13
-12
-11
-10
-10
-10
-8
-4
3
6
7
9
12
13
10
8
8
3
-4
-6
-5
-8
-13
-14
-14
-16
-19
-23
-20
-29
-30
-27
-24
-24
-24
-22
-20
-21
-22
-22
-22
-21
-20
-20
-20
-20
-20
-20
-20
-20
-20
-21
-21
-19
-18
-19
-20
-19
-18
-18
-18
-18
-18
-19
-20
-19
-18
-18
-19
-21
-22
-22
-25
-28
-27
-26
-23
-16
11
34
46
39
-26
-92
-158
-191
-164
-141
-121
-102
-82
-75
-81
-92
-107
-106
-92
-75
-58
-52
-51
-43
-33
-26
-20
-15
-11
-10
-9
-8
-7
-6
-8
-6
-4
-5
-6
-4
-2
0
2
1
0
3
6
8
10
12
15
19
23
26
29
34
39
45
51
57
64
71
78
84
90
96
102
108
111
113
121
129
126
121
120
120
114
108
101
94
89
83
75
67
60
52
42
33
28
23
18
13
9
5
2
-1
-4
-6
-7
-8
-8
-8
-9
-9
-7
-4
0
4
7
12
17
18
18
18
18
16
13
9
6
5
4
3
2
0
-2
-4
-6
-9
-12
-15
-18
-18
-18
-19
-19
-15
-13
-17
-19
-16
-15
-18
-19
-17
-17
-19
-20
-20
-20
-21
-22
-22
-22
-21
-21
-23
-24
-24
-24
-24
-26
-28
-23
-18
-23
-28
-25
-22
-21
-20
-22
-24
-25
-26
-28
-30
-29
-17
10
30
45
18
-48
-113
-179
-189
-165
-141
-119
-91
-61
-57
-63
-81
-102
-97
-86
-72
-59
-55
-58
-40
-30
-26
-22
-17
-12
-10
-8
-8
-8
-8
-8
-7
-5
-2
0
-1
-2
-1
0
3
4
5
7
9
11
14
18
21
24
28
33
37
42
47
54
61
66
71
77
83
90
96
99
102
107
112
115
118
117
116
119
120
108
98
90
83
79
72
62
52
42
32
23
15
9
3
-2
-6
-10
-13
-15
-18
-21
-22
-22
-22
-23
-24
-23
-22
-21
-20
-18
-19
-20
-17
-14
-12
-9
-2
4
8
12
11
10
7
3
-1
-4
-5
-8
-14
-18
-17
-17
-20
-23
-26
-28
-29
-31
-33
-33
-31
-30
-29
-28
-28
-26
-23
-23
-25
-26
-26
-28
-28
-27
-26
-28
-30
-30
-30
-30
-30
-28
-26
-28
-29
-26
-25
-28
-30
-29
-28
-28
-28
-29
-30
-31
-30
-26
-26
-30
-34
-37
-37
-35
-14
12
28
44
-12
-77
-143
-208
-185
-160
-139
-117
-79
-44
-43
-45
-67
-84
-85
-83
-68
-58
-56
-52
-43
-37
-34
-29
-22
-17
-14
-12
-13
-14
-13
-12
-11
-9
-7
-4
-1
-3
-7
-6
-3
-2
-2
0
3
6
10
12
14
15
16
21
26
30
35
41
48
56
62
65
69
74
80
87
92
94
97
102
104
104
104
103
99
93
87
82
76
70
64
58
48
38
31
25
21
17
10
16
-2
-6
-10
-14
-15
-16
-17
-18
-14
-11
-16
-19
-15
-12
-14
-16
-14
-10
-5
-2
-1
2
7
11
14
16
16
14
11
10
11
8
2
0
-1
-4
-7
-10
-13
-15
-17
-21
-24
-22
-20
-22
-24
-23
-22
-21
-20
-17
-14
-17
-20
-20
-20
-21
-22
-23
-24
-24
-24
-25
-26
-27
-28
-28
-28
-28
-28
-27
-26
-27
-28
-27
-26
-27
-28
-28
-28
-28
-28
-28
-31
-34
-37
-40
-35
-26
0
24
38
32
-33
-99
-164
-199
-170
-144
-121
-100
-79
-71
-80
-92
-107
-107
-95
-82
-69
-60
-54
-44
-31
-25
-19
-14
-7
-6
-6
-4
-1
0
0
4
8
5
2
5
8
8
8
11
14
16
18
20
22
24
27
30
34
39
42
45
49
55
59
62
68
77
83
88
94
100
106
112
115
117
120
123
124
124
123
121
116
112
105
98
87
77
69
62
59
54
43
33
28
23
19
15
12
9
6
4
2
-1
-3
-4
-5
-6
-6
-6
-5
-2
2
8
14
16
17
21
25
22
17
16
15
13
10
9
8
6
4
1
-2
-3
-4
-8
-12
-12
-12
-10
-8
-9
-8
-2
-1
-9
-11
-4
-1
-4
-6
-7
-8
-9
-9
-7
-6
-6
-6
-7
-8
-7
-6
-7
-8
-9
-10
-10
-7
-4
-9
-14
-12
-10
-9
-8
-9
-10
-10
-11
-15
-18
-20
-20
-13
2
28
45
52
23
-43
-108
-174
-181
-148
-122
-99
-84
-72
-72
-78
-88
-100
-90
-74
-62
-49
-47
-45
-32
-20
-16
-12
-1
8
3
-2
0
2
3
4
6
8
8
8
9
10
12
14
14
15
18
20
21
23
25
28
32
36
40
45
49
54
60
67
75
80
85
92
99
104
110
117
124
127
130
136
142
135
130
130
129
122
114
107
99
90
81
73
64
55
47
40
33
26
20
14
10
6
2
-1
-2
-3
-4
-3
-2
-3
-4
-4
-2
1
-1
2
0
6
5
4
10
16
21
26
25
24
24
24
22
19
15
12
10
7
4
1
-2
-6
-10
-13
-16
-19
-21
-22
-21
-20
-21
-19
-15
-15
-17
-18
-17
-15
-13
-14
-17
-19
-20
-20
-20
-21
-22
-22
-22
-24
-26
-25
-24
-24
-24
-25
-26
-25
-24
-25
-26
-27
-27
-24
-22
-22
-23
-26
-29
-33
-34
-35
-34
-31
-10
15
32
48
-7
-72
-138
-203
-181
-154
-133
-110
-77
-46
-53
-63
-84
-99
-83
-69
-65
-62
-60
-55
-45
-36
-31
-26
-20
-16
-16
-16
-15
-14
-13
-12
-13
-14
-15
-13
-8
-7
-9
-7
-3
-1
1
3
5
7
6
13
16
20
24
29
34
38
42
48
53
62
69
75
82
88
93
97
102
108
112
113
114
115
115
112
107
101
94
88
81
73
66
60
51
42
39
37
25
11
8
5
0
-4
-6
-8
-11
-14
-15
-16
-16
-16
-17
-18
-15
-12
-12
-11
-8
-5
-2
1
5
12
21
41
70
88
99
115
134
172
219
226
217
198
176
118
53
55
68
86
103
82
58
15
-26
-34
-42
-47
-52
-54
-56
-54
-53
-57
-59
-55
-52
-53
-55
-58
-60
-58
-56
-59
-60
-61
-62
-63
-64
-65
-66
-67
-68
-69
-71
-73
-73
-71
-70
-71
-72
-73
-74
-74
-67
-62
-58
-54
-48
-41
-32
-23
-15
-6
7
18
25
33
43
51
55
58
58
57
52
49
46
39
30
23
17
11
6
3
1
-1
-3
-5
-7
-8
-8
-8
-8
-8
-8
-9
-10
-7
-4
-10
-16
-14
-12
-14
-16
-15
-14
-14
-14
-14
-14
-16
-18
-18
-18
-20
-22
-23
-22
-17
-17
-23
-26
-25
-24
-25
-26
-26
-26
-26
-26
-26
-26
-27
-28
-27
-26
-28
-24
-20
-24
-28
-28
-28
-28
-28
-29
-30
-29
-28
-27
-26
-25
-24
-25
-26
-27
-28
-27
-26
-27
-28
-29
-30
-29
-28
-29
-30
-31
-32
-32
-32
-31
-29
-27
-26
-26
-24
-26
-14
-8
-8
-8
-8
-8
-12
-16
-18
-20
-22
-24
-25
-26
-28
-30
-30
-31
-34
-36
-37
-38
-39
-38
-34
-32
-32
-32
-31
-31
-33
-33
-31
-30
-29
-28
-28
-28
-28
-28
-28
-30
-32
-26
-20
-26
-32
-30
-28
-27
-26
-27
-28
-27
-26
-25
-24
-24
-24
-24
-25
-28
-30
-29
-29
-32
-29
-20
4
36
27
-2
-58
-123
-168
-207
-174
-125
-96
-70
-62
-55
-71
-90
-98
-105
-86
-68
-64
-60
-53
-47
-39
-31
-25
-19
-14
-10
-8
-6
-6
-6
-5
-4
-4
-3
0
1
-2
-2
2
4
5
6
7
8
8
11
15
18
21
23
25
29
26
36
38
49
60
59
59
67
74
78
83
88
93
99
105
108
111
115
118
120
122
119
116
112
110
109
104
97
89
81
74
68
59
49
43
39
33
27
24
21
19
17
15
14
10
6
8
10
8
6
5
4
8
12
14
17
22
26
28
30
28
26
25
22
18
16
16
17
19
15
5
2
3
3
1
-4
-9
-10
-9
-8
-9
-9
-7
-6
-6
-7
-8
-9
-10
-14
-18
-15
-12
-16
-20
-19
-18
-20
-22
-21
-20
-20
-20
-22
-24
-23
-22
-23
-25
-28
-29
-27
-27
-29
-27
-22
-24
-30
-41
-54
-107
-168
-233
-298
-344
-302
-394
-399
-424
-444
-391
-338
-276
-216
-161
-106
-53
-14
-13
-9
1
8
10
12
14
16
17
20
24
26
26
26
27
28
29
32
36
37
35
35
37
39
41
44
47
49
51
57
62
68
74
80
86
94
101
108
116
128
138
141
147
160
170
179
188
199
206
206
206
207
208
208
202
192
183
175
162
147
131
116
97
78
64
52
41
29
23
17
10
2
-1
-4
-5
-6
-9
-12
-13
-14
-16
-18
-15
-12
-13
-14
-15
-15
-12
-10
-9
-8
-11
-11
-9
-8
-8
-8
-8
-6
-3
0
5
7
9
10
9
5
1
-2
-5
-7
-6
-11
-12
-16
-20
-22
-24
-26
-28
-29
-30
-27
-26
-35
-40
-34
-29
-26
-24
-25
-26
-23
-22
-23
-24
-24
-25
-27
-28
-28
-28
-28
-28
-28
-28
-29
-30
-31
-32
-33
-34
-33
-32
-32
-34
-36
-33
-30
-32
-34
-31
-29
-36
-42
-41
-41
-45
-41
-21
-1
16
-3
-69
-134
-200
-218
-194
-168
-140
-106
-67
-51
-46
-60
-83
-92
-97
-85
-69
-60
-53
-54
-57
-48
-36
-27
-18
-16
-14
-12
-10
-11
-12
-10
-8
-7
-6
-5
-3
0
1
-2
-3
1
4
7
8
9
12
16
18
19
22
25
29
34
39
43
46
49
55
61
64
67
73
68
84
88
94
100
101
102
102
102
99
96
91
87
82
76
69
61
52
46
45
40
29
22
18
14
10
5
-1
-4
-5
-8
-11
-14
-17
-18
-17
-16
-17
-19
-21
-21
-19
-16
-14
-8
-2
1
4
5
6
5
4
1
-2
-5
-8
-10
-13
-17
-21
-24
-26
-25
-27
-33
-36
-36
-36
-36
-36
-35
-34
-33
-33
-35
-35
-33
-32
-33
-37
-41
-32
-21
-68
-119
-184
-250
-315
-380
-439
-494
-524
-554
-586
-610
-608
-601
-581
-554
-513
-472
-432
-395
-364
-329
-289
-243
-191
-147
-110
-78
-48
-24
-3
22
48
54
55
60
67
72
77
78
79
85
80
99
106
108
110
120
128
133
139
150
160
171
184
198
211
222
234
248
263
280
298
315
331
345
360
376
388
400
408
415
423
430
429
424
418
413
405
396
382
367
350
333
313
294
274
255
234
214
196
177
159
141
125
109
97
85
72
63
58
50
37
29
25
21
18
16
17
18
17
15
13
12
11
10
11
12
12
13
15
18
21
14
5
4
4
4
4
5
6
6
6
5
4
3
2
1
0
-1
-2
-2
-3
-6
-8
-8
-8
-7
-7
-9
-10
-10
-10
-10
-10
-9
-8
-8
-8
-8
-9
-11
-12
-11
-11
-13
-7
-14
30
56
10
-38
-103
-163
-189
-202
-158
-118
-89
-68
-68
-73
-91
-102
-104
-98
-79
-64
-53
-46
-41
-34
-26
-17
-8
-3
-1
0
-1
-1
1
2
2
3
5
8
11
12
11
12
14
14
14
17
20
23
26
28
30
33
37
41
45
52
58
64
69
73
78
83
89
95
100
105
109
112
116
120
121
119
118
119
112
100
97
95
87
79
73
67
61
54
47
40
32
24
21
18
14
10
7
4
2
0
-1
-2
-4
-6
-5
-5
-9
-11
-6
-4
-4
-4
-3
-2
-1
0
1
2
2
1
-1
-2
-2
-2
-1
-1
-3
-6
-4
-9
-8
-9
-10
-11
-12
-13
-14
-14
-14
-13
-13
-17
-20
-20
-20
-20
-20
-20
-20
-19
-17
-14
-11
-8
-6
-5
-6
-10
-14
-17
-19
-21
-23
-25
-26
-27
-29
-31
-32
-31
-38
-46
-42
-38
-39
-40
-35
-30
-31
-32
-32
-32
-29
-26
-30
-32
-32
-32
-32
-32
-33
-34
-35
-35
-33
-32
-33
-33
-31
-30
-31
-31
-29
-30
-33
-33
-31
-30
-30
-31
-33
-33
-30
-40
-50
-45
-37
-8
19
29
25
-40
-106
-171
-211
-184
-159
-138
-112
-82
-64
-66
-76
-93
-101
-98
-89
-75
-67
-62
-54
-45
-41
-39
-31
-22
-21
-23
-22
-19
-19
-21
-22
-22
-21
-20
-20
-20
-15
-10
-13
-16
-13
-10
-10
-10
-9
-8
-6
-2
4
8
8
9
12
16
20
25
31
35
38
45
53
58
61
66
72
77
81
82
82
82
83
84
85
80
74
70
66
58
50
46
42
36
31
24
17
9
4
0
-3
-8
-12
-13
-14
-15
-16
-17
-18
-19
-20
-20
-17
-12
-10
-9
-5
-1
0
1
5
9
5
-1
-3
-5
-6
-6
-10
-14
-14
-14
-16
-18
-21
-24
-27
-30
-30
-30
-31
-32
-30
-28
-27
-26
-27
-28
-31
-32
-33
-34
-35
-36
-37
-38
-39
-38
-35
-35
-37
-39
-41
-40
-37
-39
-43
-44
-44
-42
-42
-43
-44
-43
-42
-42
-42
-43
-44
-46
-48
-49
-49
-45
-32
-3
15
19
-8
-74
-139
-205
-213
-174
-144
-121
-99
-79
-79
-89
-103
-118
-114
-102
-93
-84
-75
-67
-58
-49
-43
-38
-33
-28
-25
-22
-23
-24
-23
-22
-21
-19
-15
-13
-17
-18
-12
-8
-9
-10
-8
-5
-3
-2
-1
1
3
7
12
16
19
25
32
38
43
47
51
58
65
71
77
82
88
92
96
96
96
95
94
94
93
87
81
76
69
59
51
47
40
30
23
20
14
5
-1
-4
-8
-14
-16
-17
-19
-21
-22
-22
-19
-15
-13
-11
-9
-7
-5
-3
-6
-2
-13
-14
-15
-16
-18
-20
-21
-22
-24
-26
-28
-30
-33
-35
-32
-30
-32
-34
-33
-32
-31
-30
-31
-32
-31
-31
-33
-33
-31
-31
-33
-32
-29
-28
-29
-30
-31
-32
-31
-30
-30
-31
-32
-30
-28
-30
-32
-28
-24
-25
-26
-26
-26
-26
-26
-30
-32
-34
-35
-31
-18
6
28
48
23
-43
-108
-174
-183
-160
-138
-116
-96
-77
-77
-84
-98
-114
-102
-86
-73
-61
-58
-54
-42
-30
-25
-20
-16
-12
-10
-8
-6
-4
-4
-4
-3
-2
-1
0
0
1
4
6
5
5
8
10
10
11
14
17
19
24
30
35
39
44
49
54
59
65
71
78
72
91
96
100
104
108
112
117
122
121
120
118
115
110
104
96
87
76
68
62
53
42
34
30
23
12
5
0
-3
-5
-9
-14
-16
-17
-18
-19
-19
-17
-15
-13
-10
-7
-2
2
2
2
-2
-6
-6
-6
-9
-12
-11
-10
-12
-14
-14
-15
-20
-24
-25
-26
-25
-25
-27
-27
-24
-22
-23
-24
-24
-24
-24
-24
-24
-25
-27
-28
-27
-29
-33
-33
-31
-30
-32
-33
-34
-33
-32
-35
-38
-36
-34
-33
-32
-33
-34
-34
-34
-34
-34
-33
-34
-39
-42
-43
-41
-35
-17
11
22
23
-20
-85
-151
-216
-208
-176
-146
-117
-90
-63
-68
-77
-95
-78
-98
-82
-72
-62
-62
-61
-52
-43
-36
-30
-25
-22
-22
-22
-20
-18
-18
-18
-17
-16
-15
-14
-13
-12
-12
-11
-8
-6
-5
-3
-1
1
3
7
11
16
21
26
31
34
37
47
56
62
68
72
76
82
88
94
98
101
105
110
114
110
106
100
94
89
83
76
68
60
52
44
36
29
21
13
6
0
-5
-9
-13
-17
-18
-19
-20
-20
-21
-23
-24
-24
-23
-22
-18
-14
-11
-8
-3
2
0
-2
0
1
-4
-8
-9
-10
-12
-14
-16
-18
-19
-21
-23
-25
-28
-29
-27
-27
-29
-28
-25
-24
-25
-26
-25
-24
-23
-22
-23
-24
-24
-27
-28
-27
-26
-29
-32
-25
-20
-26
-30
-29
-28
-28
-28
-28
-28
-29
-30
-28
-26
-26
-26
-27
-29
-31
-32
-32
-34
-37
-32
-23
3
33
12
-24
-85
-150
-188
-221
-182
-137
-102
-68
-52
-37
-52
-67
-80
-90
-74
-61
-56
-52
-53
-51
-40
-29
-20
-14
-15
-16
-14
-12
-12
-12
-11
-9
-7
-6
-5
-4
-4
-4
-3
0
3
4
4
7
11
12
13
15
18
22
26
33
40
44
48
53
58
62
68
76
83
88
92
94
98
105
110
108
106
107
106
101
96
90
85
79
72
65
57
50
43
36
30
23
19
15
10
5
1
4
-5
-6
-9
-12
-9
-6
-10
-14
-8
-4
1
4
7
10
11
12
11
10
8
6
5
4
3
2
1
-1
-3
-5
-7
-8
-9
-10
-11
-12
-11
-9
-7
-6
-7
-8
-7
-3
0
-5
-10
-11
-12
-14
-15
-6
-7
-52
-103
-168
-234
-300
-362
-421
-468
-497
-529
-564
-582
-583
-573
-551
-518
-476
-437
-400
-370
-344
-302
-255
-204
-153
-114
-77
-47
-17
5
27
50
74
76
78
82
86
89
92
93
95
102
108
108
110
118
126
132
138
145
154
163
172
183
195
208
222
236
249
261
277
293
307
320
334
347
362
377
390
402
408
413
417
414
421
420
414
408
397
386
372
357
341
324
304
284
263
243
227
207
183
163
150
132
109
91
77
66
58
50
41
36
32
28
25
21
17
16
15
14
13
12
12
13
15
17
18
14
10
12
14
13
12
12
12
13
15
20
24
26
28
28
28
27
24
19
16
16
13
5
1
-1
-3
-5
-6
-7
-11
-15
-16
-17
-18
-19
-17
-13
-11
-9
-8
-10
-8
-6
-8
-10
-9
-8
-10
-12
-12
-12
-12
-12
-11
-10
-10
-10
-10
-10
-10
-10
-11
-12
-13
-14
-13
-12
-13
-12
-8
-9
-14
-16
-16
-17
-19
-21
-23
-21
-17
9
-16
49
59
-6
-72
-137
-191
-169
-146
-125
-106
-93
-85
-91
-100
-112
-114
-95
-79
-66
-58
-55
-49
-39
-33
-30
-26
-22
-20
-20
-19
-17
-19
-23
-22
-19
-18
-17
-16
-16
-16
-16
-15
-14
-13
-12
-11
-10
-8
-6
-4
-2
2
6
9
13
17
21
26
33
42
49
52
57
64
70
75
80
84
87
91
96
102
103
101
96
91
88
85
79
73
67
61
54
46
40
34
28
22
17
12
9
6
2
-2
-2
-2
-5
-8
-9
-9
-6
-3
0
3
8
10
11
12
12
11
9
6
3
3
5
3
-1
-2
-3
-4
-4
-6
-9
-10
-10
-11
-10
-14
-18
-12
-6
-6
-6
-12
-16
-15
-14
-13
-13
-17
-20
-20
-20
-20
-20
-19
-19
-21
-22
-21
-20
-20
-20
-21
-22
-21
-20
-21
-22
-22
-23
-25
-24
-21
-21
-23
-28
-32
-33
-34
-29
-21
5
29
41
36
-29
-95
-160
-200
-181
-158
-130
-100
-68
-53
-60
-73
-91
-93
-80
-70
-63
-60
-60
-50
-35
-30
-31
-27
-20
-18
-17
-16
-17
-17
-15
-13
-10
-12
-14
-9
-4
-5
-6
-4
-2
0
2
5
9
13
16
17
19
22
26
31
37
44
50
55
61
67
73
79
85
90
95
100
105
109
110
111
111
109
105
101
97
100
84
76
71
66
56
48
41
36
30
25
18
11
6
1
-3
-6
-8
-10
-12
-15
-18
-19
-17
-16
-17
-18
-19
-19
-17
-11
-3
0
0
0
1
2
1
0
1
-2
-7
-9
-10
-13
-16
-20
-24
-25
-26
-25
-25
-31
-36
-35
-34
-34
-34
-34
-34
-34
-33
-30
-28
-29
-31
-33
-33
-31
-30
-31
-31
-29
-30
-33
-33
-31
-30
-31
-32
-31
-30
-31
-30
-26
-27
-28
-28
-28
-28
-28
-26
-24
-25
-26
-28
-30
-31
-31
-27
-14
14
34
43
17
-49
-114
-180
-191
-162
-138
-117
-96
-75
-73
-82
-96
-112
-108
-98
-85
-72
-65
-59
-48
-58
-33
-30
-23
-16
-14
-12
-13
-14
-12
-10
-11
-11
-7
-5
-9
-12
-11
-10
-9
-8
-5
-3
0
3
5
7
9
11
13
19
26
28
29
34
41
47
53
58
63
66
69
78
86
91
96
98
100
101
102
98
94
93
90
81
74
70
65
56
48
40
34
28
22
17
12
7
3
1
-1
-5
-8
-11
-11
-9
-8
-8
-4
1
4
7
8
9
10
8
6
4
4
4
4
4
6
7
1
-4
-4
-4
-7
-10
-10
-10
-11
-12
-12
-11
-8
-7
-10
-11
-8
-7
-9
-12
-16
-16
-13
-14
-17
-18
-18
-19
-21
-22
-23
-25
-24
-28
-28
-27
-26
-27
-28
-29
-30
-32
-33
-28
-25
-29
-32
-34
-36
-37
-39
-43
-43
-34
-14
19
30
23
-19
-85
-151
-216
-210
-172
-146
-125
-112
-102
-106
-115
-125
-135
-117
-97
-83
-70
-66
-62
-49
-38
-32
-26
-22
-17
-12
-9
-13
-15
-11
-8
-8
-8
-7
-6
-5
-3
-1
2
7
10
10
12
16
20
23
26
29
34
39
42
45
53
61
65
69
76
84
91
98
106
114
116
118
121
124
126
128
127
125
121
116
109
101
92
83
76
68
59
50
42
34
26
19
13
10
9
3
-6
-8
-9
-10
-11
-12
-12
-12
-13
-14
-14
-11
-8
-4
0
3
6
11
16
13
10
9
8
5
2
1
-1
-4
-7
-11
-14
-14
-16
-21
-24
-24
-24
-25
-26
-27
-26
-23
-22
-21
-24
-31
-28
-23
-22
-23
-27
-31
-30
-28
-28
-28
-28
-28
-27
-26
-28
-30
-30
-30
-30
-30
-30
-30
-31
-31
-28
-26
-28
-30
-29
-28
-28
-29
-31
-32
-31
-32
-36
-25
-7
18
43
-6
-71
-137
-202
-205
-201
-170
-138
-101
-66
-60
-56
-75
-92
-93
-92
-80
-69
-62
-55
-49
-43
-40
-34
-24
-18
-17
-16
-15
-13
-11
-11
-13
-13
-11
-9
-7
-6
-6
-5
-3
-2
-3
0
5
6
6
7
6
15
20
21
22
28
35
46
56
58
60
63
68
75
81
85
90
96
101
104
106
106
106
106
104
98
93
88
82
75
67
60
52
42
35
28
22
17
7
-3
-5
-7
-9
-10
-16
-22
-21
-20
-20
-20
-20
-20
-20
-20
-19
-18
-16
-12
-6
-1
3
7
10
12
12
11
9
5
-1
-3
1
1
-1
-5
-9
-11
-13
-14
-15
-20
-25
-24
-21
-23
-28
-24
-20
-21
-22
-20
-18
-17
-16
-17
-19
-23
-26
-24
-22
-22
-22
-23
-24
-24
-24
-27
-28
-29
-30
-30
-29
-26
-26
-29
-27
-22
-23
-29
-29
-27
-26
-26
-30
-35
-36
-36
-39
-42
-33
-22
7
29
3
-30
-95
-153
-183
-195
-153
-115
-85
-61
-45
-41
-54
-70
-89
-92
-78
-70
-64
-62
-63
-54
-37
-32
-32
-26
-18
-16
-15
-14
-13
-12
-11
-10
-10
-8
-6
-6
-6
-5
-4
-4
-4
-1
2
4
6
8
10
14
17
21
25
29
35
42
49
56
61
63
71
83
88
89
92
95
98
101
103
105
106
106
103
99
93
87
80
72
65
58
53
47
38
30
29
27
17
10
7
1
-9
-16
-16
-16
-18
-20
-19
-18
-21
-22
-21
-20
-20
-20
-19
-18
-17
-14
-11
-11
-13
-11
-7
-6
-7
-8
-9
-10
-10
-9
-10
-10
-10
-9
-8
-6
-4
-4
-4
-7
-7
4
19
43
37
-19
-79
-145
-192
-217
-206
-159
-125
-100
-89
-86
-89
-97
-109
-122
-113
-94
-82
-72
-59
-46
-38
-31
-19
-7
-4
-2
-2
-2
-1
0
2
4
5
6
8
10
11
12
14
17
21
24
25
27
30
34
38
42
46
52
59
66
73
80
86
94
102
108
113
119
127
132
137
139
141
142
144
138
132
124
116
110
103
95
87
79
70
61
53
47
40
31
25
21
16
11
8
8
6
1
-1
1
1
-2
-4
-4
-3
-1
0
0
0
-1
-2
-2
-2
-3
-4
-4
-4
-4
-7
-10
-10
-10
-9
-8
-9
-10
-11
-12
-12
-12
-11
-10
-12
-14
-14
-14
-14
-13
-11
-11
-13
-14
-15
-15
-13
-14
-17
-17
-15
-14
-14
-14
-13
-12
-12
-6
1
3
4
4
4
0
-4
-7
-10
-13
-16
-14
-13
-21
-26
-22
-21
-24
-26
-28
-30
-31
-31
-29
-28
-27
-26
-25
-25
-27
-26
-23
-22
-22
-22
-21
-21
-23
-23
-21
-20
-21
-21
-18
-20
-22
-23
-24
-24
-24
-25
-26
-23
-20
-19
-19
-24
-28
-26
-26
-31
-34
-35
-36
-35
-23
0
21
42
10
-56
-122
-187
-193
-173
-154
-134
-108
-80
-81
-87
-102
-119
-110
-120
-86
-74
-66
-58
-48
-40
-36
-31
-25
-20
-19
-16
-9
-5
-8
-10
-9
-8
-8
-7
-4
-2
-3
-2
4
5
3
4
7
8
9
10
11
13
15
19
23
31
39
40
41
48
54
58
62
67
72
78
84
88
93
99
105
110
114
116
118
117
116
115
110
101
93
86
78
70
64
60
53
43
35
27
22
19
14
8
5
3
2
1
-1
-3
-4
-6
-6
-6
-6
-6
-4
-2
1
4
8
12
15
18
19
21
24
24
17
12
10
8
7
4
0
-2
-2
-3
-5
-8
-11
-13
-15
-16
-15
-14
-13
-12
-12
-12
-11
-10
-10
-13
-16
-15
-14
-15
-16
-13
-10
-16
-20
-23
-24
-16
-12
-18
-22
-20
-18
-20
-22
-21
-20
-19
-18
-18
-19
-22
-23
-21
-23
-28
-30
-30
-29
-27
-7
15
34
52
-7
-72
-138
-202
-185
-166
-141
-114
-75
-42
-38
-38
-58
-75
-79
-78
-64
-52
-46
-41
-38
-34
-28
-19
-9
-5
-8
-9
-7
-6
-5
-4
-3
-2
-3
-2
1
2
1
2
5
7
9
12
16
15
14
21
28
29
30
34
38
40
43
48
53
59
66
72
78
83
87
91
96
103
106
106
107
109
109
107
106
105
97
87
78
70
64
59
52
45
38
31
23
30
10
6
-1
-8
-8
-8
-11
-14
-16
-18
-19
-20
-19
-18
-17
-15
-11
-8
-6
-3
2
5
8
10
10
10
11
12
13
9
2
0
-1
-4
-7
-8
-9
-10
-10
-12
-15
-16
-16
-16
-16
-15
-14
-13
-12
-13
-14
-12
-10
-11
-12
-16
-18
-16
-14
-14
-14
-14
-14
-14
-15
-18
-20
-19
-18
-18
-18
-17
-16
-17
-18
-19
-20
-21
-21
-19
-18
-18
-18
-18
-21
-24
-23
-21
-10
4
34
49
4
-46
-111
-164
-188
-191
-151
-114
-82
-64
-63
-69
-84
-94
-98
-92
-76
-62
-47
-40
-36
-29
-20
-12
-4
-2
-1
2
5
6
7
8
8
10
10
11
12
12
12
13
14
15
16
17
19
23
26
28
31
35
39
42
46
51
56
60
64
68
74
81
86
89
95
102
106
109
112
115
118
121
122
121
117
113
109
106
101
96
83
72
69
65
57
49
42
35
30
25
20
15
11
8
6
4
3
3
5
6
6
9
14
16
17
20
24
22
16
14
15
14
11
10
10
9
7
6
4
4
4
1
-2
-2
-2
-2
-2
1
4
2
0
1
1
-2
-4
-4
-4
-3
-2
-5
-6
-5
-4
-5
-6
-7
-8
-8
-8
-9
-10
-10
-10
-10
-11
-13
-14
-13
-12
-12
-13
-14
-11
-8
-14
-20
-16
-12
-16
-16
1
21
49
48
-16
-80
-146
-185
-188
-175
-141
-112
-89
-78
-78
-87
-104
-104
-95
-81
-65
-56
-50
-40
-28
-23
-19
-13
-7
-6
-6
-5
-4
-4
-4
0
4
1
-2
2
6
7
8
6
5
10
14
15
16
17
19
23
28
32
36
41
46
50
54
58
66
75
78
79
87
96
103
109
110
111
115
119
121
124
121
118
114
110
104
97
85
75
69
62
53
43
33
24
18
14
12
7
0
-4
-7
-9
-11
-12
-11
-9
-7
-8
-11
-9
-4
1
5
9
13
13
11
10
11
12
12
6
-2
0
2
0
-2
-9
-14
-15
-16
-19
-22
-23
-25
-28
-29
-26
-24
-25
-26
-26
-26
-25
-23
-21
-23
-28
-30
-29
-28
-28
-28
-29
-30
-30
-30
-31
-31
-29
-30
-33
-33
-32
-33
-34
-31
-28
-31
-34
-34
-33
-28
-25
-31
-36
-37
-39
-42
-42
-37
-21
9
22
18
-19
-85
-150
-216
-212
-168
-135
-108
-82
-58
-56
-61
-80
-103
-89
-70
-65
-61
-60
-58
-47
-36
-31
-25
-16
-8
-13
-18
-15
-12
-9
-6
-7
-8
-7
-6
-5
-4
-5
-5
-2
1
4
7
9
11
14
17
19
22
27
32
38
45
52
61
69
77
85
89
86
99
104
107
110
112
114
119
124
120
116
113
109
103
96
90
83
72
63
55
49
44
39
33
25
16
9
3
-2
-5
-8
-11
-12
-13
-16
-19
-20
-20
-20
-20
-21
-23
-21
-18
-16
-14
-17
-20
-15
-10
-13
-16
-15
-14
-13
-12
-14
-16
-14
-12
-14
-15
-12
-10
-11
-11
-9
-7
-4
9
28
36
40
-6
-71
-137
-202
-202
-186
-158
-127
-86
-44
-51
-62
-83
-104
-104
-103
-86
-72
-71
-68
-58
-48
-39
-31
-27
-23
-19
-16
-15
-14
-13
-12
-11
-10
-9
-8
-7
-3
3
5
3
5
10
13
15
19
23
27
31
36
41
46
42
56
60
70
80
82
85
94
102
106
110
115
118
116
114
112
109
105
99
91
84
79
73
66
58
51
44
37
32
29
23
15
10
7
3
-1
-3
-5
-7
-9
-10
-10
-11
-12
-13
-14
-14
-14
-15
-16
-10
-6
-10
-14
-14
-14
-14
-14
-15
-16
-17
-18
-18
-19
-22
-23
-21
-21
-23
-25
-27
-26
-23
-24
-27
-28
-28
-28
-28
-28
-27
-26
-27
-28
-28
-29
-30
-31
-32
-31
-30
-29
-28
-27
-26
-26
-26
-24
-20
-13
-9
-13
-16
-15
-15
-20
-23
-25
-26
-27
-29
-32
-34
-34
-34
-34
-35
-37
-38
-39
-40
-41
-40
-37
-33
-36
-32
-36
-31
-26
-28
-30
-31
-32
-31
-30
-31
-32
-32
-32
-33
-34
-33
-32
-33
-34
-33
-33
-35
-36
-37
-36
-32
-32
-36
-38
-37
-37
-39
-41
-43
-47
-51
-45
-37
-6
27
16
2
-63
-128
-185
-231
-189
-150
-126
-105
-97
-93
-108
-119
-123
-122
-111
-98
-83
-73
-70
-63
-52
-44
-40
-35
-30
-27
-23
-21
-19
-18
-17
-16
-16
-16
-15
-14
-14
-12
-9
-6
-2
-2
-2
1
4
6
8
11
14
17
21
25
28
31
35
40
46
52
57
61
67
74
79
82
87
93
99
104
108
112
114
115
116
115
109
102
100
99
89
79
74
78
62
56
49
42
37
32
29
26
22
18
16
14
13
12
12
13
16
20
25
28
25
24
23
22
22
18
11
10
14
16
15
13
11
10
11
10
7
6
5
4
4
4
4
7
10
8
6
7
8
6
4
3
2
1
0
-2
-4
-3
-2
-2
-3
-7
-9
-7
-7
-9
-10
-11
-12
-11
-10
-10
-11
-13
-14
-13
-13
-15
-16
-15
-19
-25
-26
-26
-26
-26
-10
7
34
48
-17
-83
-148
-199
-204
-198
-162
-129
-103
-86
-85
-89
-103
-108
-103
-90
-71
-59
-53
-43
-32
-22
-13
-8
-3
-2
-1
0
-1
-1
1
2
3
4
4
5
6
9
12
8
4
7
10
12
14
19
22
24
27
32
37
40
44
49
55
62
68
72
80
91
96
95
99
107
112
116
121
125
125
123
119
115
110
105
96
87
78
70
62
54
46
37
29
21
15
10
8
4
-5
-12
-8
-6
-8
-11
-15
-18
-18
-18
-18
-21
-27
-30
-31
-32
-31
-26
-20
-18
-19
-19
-17
-16
-15
-16
-19
-18
-15
-13
-10
-11
-12
-14
-16
-15
-14
-13
-12
-14
-16
-16
-16
-17
-18
-18
-18
-16
-16
-21
-23
-20
-17
-15
-14
-15
-16
-16
-16
-17
-20
-25
-25
-23
-22
-22
-9
6
33
60
3
62
-125
-188
-208
-222
-179
-137
-96
-60
-49
-44
-62
-78
-86
-87
-71
-58
-51
-46
-44
-38
-27
-19
-13
-9
-6
-2
2
2
-2
-3
-1
2
5
6
6
6
6
7
9
10
11
15
18
18
18
23
28
28
28
31
35
41
47
53
59
63
68
74
80
85
90
96
102
106
109
111
112
113
113
109
105
100
94
88
82
76
70
65
58
51
41
31
26
20
14
8
3
-2
-2
-3
-10
-16
-12
-8
-11
-14
-13
-12
-12
-12
-10
-8
-8
-7
-4
-2
-1
0
0
0
1
0
-3
-4
-4
-1
5
2
-5
-6
-5
-4
-3
-1
-2
5
8
8
8
8
8
4
0
-2
-5
-10
-14
-14
-14
-14
-15
-19
-22
-24
-26
-29
-29
-27
-25
-22
-20
-19
-18
-19
-18
-15
-14
-15
-16
-16
-16
-16
-16
-16
-17
-19
-15
-10
-15
-20
-19
-18
-17
-16
-17
-18
-17
-16
-15
-14
-13
-12
-12
-12
-11
-11
-15
-18
-19
-20
-19
-11
3
25
53
30
-17
-78
-143
-170
-187
-161
-125
-96
-69
-66
-65
-78
-94
-96
-97
-78
-59
-49
-40
-33
-27
-21
-14
-5
2
1
1
5
8
7
6
7
8
8
8
9
10
11
12
13
14
14
15
17
18
18
22
29
30
30
35
41
42
42
49
54
60
66
69
73
80
86
89
93
98
102
104
108
116
121
117
114
114
112
105
100
95
88
80
74
70
63
55
47
39
33
28
23
19
16
13
11
9
6
3
4
6
4
2
5
8
14
20
22
24
25
26
24
22
21
19
16
14
14
14
15
14
9
6
6
5
2
0
0
0
-1
-2
-1
2
5
5
3
3
5
6
5
4
2
0
-2
-3
-4
-6
-8
-7
-6
-6
-6
-7
-8
-8
-8
-7
-6
-6
-6
-7
-8
-9
-10
-9
-6
-2
-3
-8
-10
-11
-14
-17
-15
-9
16
45
55
61
3
-62
-128
-66
-170
-145
-121
-97
-81
-67
-80
-91
-100
-104
-83
-65
-51
-42
-40
-35
-24
-15
-5
0
3
3
0
0
4
8
12
12
8
6
6
8
11
12
13
16
19
19
17
22
29
29
28
32
36
39
42
48
55
64
72
73
76
84
91
96
102
109
115
119
124
129
132
133
134
134
130
123
117
112
105
97
86
75
66
58
49
40
32
25
20
15
9
2
-2
-6
-8
-10
-14
-18
-16
-14
-17
-20
-20
-20
-19
-18
-18
-17
-14
-11
-7
-2
3
6
6
5
3
2
3
0
-7
-10
-10
-13
-19
-21
-23
-24
-24
-27
-31
-32
-32
-32
-32
-30
-28
-28
-28
-30
-32
-29
-26
-24
-23
-28
-31
-28
-26
-28
-30
-28
-26
-26
-27
-29
-30
-29
-28
-28
-28
-27
-26
-27
-30
-33
-29
-22
-23
-27
-28
-27
-25
-23
-27
-32
-34
-36
-34
-30
-6
16
34
34
-31
-97
-162
-201
-179
-156
-132
-103
-64
-45
-52
-64
-80
-86
-82
-75
-66
-62
-61
-52
-40
-33
-28
-21
-14
-12
-13
-14
-15
-11
-5
-7
-12
-9
-6
-5
-4
-4
-4
-2
0
1
2
4
6
8
10
10
14
24
29
26
27
34
40
45
50
54
59
65
71
76
81
86
91
95
97
99
105
111
105
97
94
96
85
80
74
68
61
53
46
39
31
24
19
15
10
4
-2
-6
-7
-8
-9
-10
-9
-9
-12
-14
-13
-12
-12
-10
-6
-3
-1
3
8
12
15
16
17
18
17
15
13
13
14
8
2
3
4
-1
-6
-7
-8
-11
-14
-17
-20
-18
-16
-15
-14
-14
-15
-18
-19
-16
-14
-14
-15
-17
-18
-18
-20
-23
-23
-21
-20
-21
-22
-23
-24
-25
-26
-26
-26
-24
-22
-20
-21
-22
-22
-22
-22
-22
-21
-20
-21
-22
-23
-24
-26
-26
-21
-7
20
39
52
24
-42
-107
-173
-184
-160
-137
-113
-93
-73
-74
-82
-94
-108
-100
-88
-74
-61
-56
-60
-38
-26
-20
-14
-9
-4
-2
0
0
0
-1
-2
0
2
3
4
6
8
6
5
8
11
13
14
15
17
20
24
27
28
29
36
46
48
47
52
59
64
69
74
79
86
92
98
104
108
112
116
120
120
119
114
110
107
102
95
88
81
73
65
57
49
41
35
31
28
22
15
9
4
1
-1
-3
-5
-6
-7
-6
-3
-2
-2
2
7
10
14
15
16
15
14
13
12
12
12
8
4
2
0
1
1
-2
-5
-8
-10
-11
-12
-13
-13
-11
-9
-7
-7
-9
-10
-10
-10
-10
-10
-11
-12
-13
-14
-15
-16
-16
-16
-16
-19
-20
-19
-18
-18
-18
-16
-14
-18
-22
-20
-18
-19
-20
-20
-20
-20
-20
-20
-21
-24
-26
-27
-27
-25
-10
15
40
64
26
-39
-105
-170
-178
-170
-149
-125
-105
-86
-90
-97
-109
-120
-103
-85
-72
-60
-52
-45
-33
-23
-18
-13
-7
-2
-3
-4
-3
-2
-1
0
1
2
3
4
5
7
10
13
15
16
16
16
16
21
28
27
23
29
37
39
41
44
48
55
62
68
74
83
90
95
101
108
114
115
117
122
126
127
128
128
124
114
107
104
97
85
76
68
59
51
44
38
31
24
19
13
10
7
3
-1
-3
-5
-6
-6
-7
-6
-8
-10
-8
-6
-5
-4
-1
3
12
18
18
19
24
26
19
14
14
13
8
5
2
0
1
0
-4
-7
-9
-12
-16
-18
-19
-20
-21
-21
-19
-18
-17
-16
-17
-17
-16
-19
-22
-19
-16
-20
-24
-22
-20
-19
-18
-20
-22
-22
-22
-23
-24
-24
-24
-24
-24
-23
-22
-23
-24
-24
-23
-21
-21
-23
-23
-21
-24
-29
-33
-37
-31
-23
2
29
37
45
-20
-86
-151
-208
-186
-162
-137
-110
-77
-52
-54
-61
-79
-90
-83
-74
-64
-57
-53
-47
-38
-32
-27
-22
-16
-12
-8
-8
-11
-10
-7
-6
-6
-6
-7
-6
-3
-2
-3
-3
-4
3
6
7
8
8
8
13
18
21
25
31
36
39
44
51
57
63
68
73
77
82
86
90
93
95
99
104
106
106
104
100
93
86
82
79
72
65
55
45
39
33
25
18
11
4
0
-4
-9
-14
-14
-14
-17
-20
-20
-20
-21
-22
-23
-23
-20
-18
-20
-19
-13
-9
-7
-5
-2
0
1
2
1
-1
-3
-4
-4
-9
-15
-16
-16
-18
-21
-22
-24
-26
-28
-30
-32
-33
-34
-31
-28
-29
-30
-30
-30
-29
-28
-28
-28
-30
-32
-32
-32
-35
-35
-32
-30
-31
-32
-33
-34
-33
-31
-29
-31
-37
-35
-31
-30
-31
-32
-33
-32
-34
-30
-32
-33
-34
-36
-38
-41
-43
-32
-18
8
24
9
-23
-89
-154
-220
-237
-186
-146
-121
-97
-76
-72
-83
-98
-116
-113
-99
-89
-81
-73
-66
-53
-39
-35
-33
-27
-21
-19
-17
-14
-12
-12
-12
-12
-12
-13
-14
-13
-12
-10
-8
-6
-4
-2
0
2
4
5
6
8
11
14
17
20
24
28
33
40
45
50
55
60
69
78
81
83
86
89
93
97
98
96
93
90
85
80
71
63
55
47
37
29
23
18
15
9
-1
-10
-16
-20
-22
-25
-28
-31
-34
-37
-39
-40
-40
-40
-41
-42
-41
-34
-26
-22
-19
-17
-15
-15
-17
-18
-18
-21
-24
-25
-26
-28
-30
-33
-36
-35
-35
-41
-46
-43
-40
-41
-42
-41
-40
-38
-37
-40
-41
-38
-36
-37
-38
-38
-38
-38
-36
-33
-34
-37
-38
-37
-35
-33
-32
-32
-32
-31
-31
-32
-31
-30
-29
-28
-28
-28
-31
-34
-30
-27
-31
-34
-33
-32
-33
-33
-29
-14
12
33
49
21
-45
-110
-176
-193
-182
-162
-137
-115
-93
-90
-93
-107
-123
-111
-94
-80
-67
-62
-56
-44
-32
-27
-22
-17
-12
-11
-10
-10
-10
-8
-6
-6
-5
0
3
0
-2
0
2
2
3
6
9
11
12
13
18
24
28
33
35
37
42
49
60
72
76
79
86
80
104
114
118
122
126
130
131
132
131
130
128
124
116
108
102
97
93
85
72
62
57
50
41
35
32
23
11
4
1
-2
-6
-8
-9
-11
-13
-10
-5
-6
-9
-10
-11
-10
-8
-7
-6
-6
-6
-4
-2
-2
-2
-4
-6
-5
-4
-3
-2
-3
-4
-4
-4
-2
-2
-6
-8
-7
-7
-9
-9
-5
7
25
35
42
-7
-72
-138
-203
-202
-189
-163
-135
-104
-72
-76
-81
-98
-113
-104
-94
-79
-66
-64
-58
-42
-29
-23
-16
-10
-6
-4
-2
-1
1
6
7
4
3
5
7
10
12
12
14
19
20
20
24
29
32
35
39
43
50
44
65
72
81
90
95
101
109
117
125
132
134
137
143
148
148
147
144
139
131
123
116
107
97
90
86
76
63
53
45
37
30
25
20
14
9
7
5
3
1
0
0
-1
-2
-4
-6
-2
2
-6
-12
-9
-6
-7
-8
-11
-14
-14
-14
-15
-16
-17
-18
-18
-18
-17
-17
-20
-22
-22
-23
-25
-24
-21
-23
-27
-29
-31
-31
-29
-28
-29
-30
-31
-30
-26
-29
-32
-32
-32
-31
-30
-31
-32
-31
-30
-31
-32
-31
-30
-32
-34
-32
-30
-29
-26
-21
-18
-17
-16
-15
-14
-15
-19
-24
-26
-26
-29
-35
-36
-37
-40
-43
-44
-43
-42
-42
-46
-48
-48
-48
-45
-42
-40
-38
-39
-39
-34
-31
-35
-38
-37
-36
-34
-32
-34
-34
-27
-26
-31
-33
-31
-30
-31
-32
-31
-30
-30
-30
-30
-30
-29
-28
-27
-26
-26
-27
-29
-28
-26
-34
-42
-34
-23
8
31
9
-22
-87
-149
-199
-220
-173
-133
-105
-81
-64
-57
-64
-78
-100
-104
-91
-81
-72
-65
-60
-51
-41
-35
-31
-26
-20
-18
-17
-16
-16
-11
-5
-6
-10
-7
-4
-5
-6
-4
-2
-1
0
0
0
1
2
5
8
9
10
11
12
14
20
31
35
33
36
43
49
54
58
62
66
71
79
88
91
93
96
99
100
100
100
100
95
92
88
84
77
70
67
63
52
44
42
39
33
27
22
16
10
6
4
2
2
1
-2
-3
-1
-1
-4
-6
-5
-4
-4
-2
1
6
13
16
19
20
20
20
20
19
18
17
16
13
10
7
4
7
10
7
3
-1
-4
-4
-4
-5
-6
-5
-4
-3
-3
-5
-4
0
1
-1
-2
-3
-2
1
-1
-5
-6
-5
-4
-5
-6
-7
-8
-8
-8
-6
-7
-8
-8
-8
-9
-10
-8
-6
-9
-11
-7
-5
-9
-12
-13
-14
-16
-15
-7
12
43
53
41
-1
-67
-132
-198
-190
-145
-112
-83
-76
-75
-80
-88
-97
-105
-89
-69
-57
-68
-41
-38
-29
-20
-13
-6
-3
0
1
2
3
4
4
4
6
8
7
7
10
12
11
11
14
17
20
22
23
26
29
33
38
42
45
49
53
59
65
69
73
84
95
97
98
105
112
118
124
127
130
132
134
135
135
130
125
121
115
105
95
87
79
71
61
51
45
42
35
26
20
16
13
11
8
5
4
3
2
1
0
1
2
1
1
4
6
8
15
22
22
22
26
30
26
22
21
20
18
15
11
7
4
1
-2
-4
-7
-9
-11
-13
-15
-16
-16
-16
-15
-12
-9
-10
-13
-11
-7
-8
-11
-12
-12
-12
-12
-13
-14
-14
-14
-13
-12
-13
-14
-14
-14
-16
-18
-16
-14
-15
-16
-17
-18
-19
-20
-17
-16
-15
-15
-17
-17
-15
-18
-25
-21
-11
14
43
29
3
-57
-122
-169
-213
-174
-129
-97
-66
-54
-43
-58
-73
-83
-89
-66
-48
-48
-47
-43
-37
-27
-18
-11
-6
-4
-2
-1
-1
-3
-3
-1
1
4
6
6
7
9
10
10
13
17
18
17
21
27
28
27
29
34
37
40
46
52
61
69
76
83
88
94
102
109
113
117
120
123
126
128
130
132
129
127
125
120
112
105
99
92
85
75
65
61
59
50
40
30
19
12
5
1
4
-4
-4
-9
-14
-12
-10
-10
-10
-11
-12
-11
-10
-9
-8
-7
-6
-4
-2
-3
-4
-3
-2
-2
-2
-2
-2
-1
0
-1
-2
-2
-1
1
2
3
2
-1
4
11
32
53
-2
-60
-125
-187
-201
-210
-172
-134
-94
-60
-46
-41
-60
-79
-95
-99
-79
-66
-64
-61
-58
-50
-38
-30
-25
-15
-1
-1
-11
-11
-6
-4
-4
-3
-1
0
1
2
3
5
7
9
12
13
14
17
20
27
34
37
41
46
51
58
65
71
78
84
91
99
105
109
112
115
119
125
126
122
119
117
111
103
97
92
83
74
67
60
54
49
39
29
24
28
11
4
0
-4
-5
-6
-8
-10
-11
-12
-13
-14
-15
-16
-18
-20
-18
-17
-21
-23
-18
-17
-20
-21
-19
-19
-21
-22
-22
-22
-23
-24
-24
-24
-24
-25
-27
-28
-27
-27
-29
-30
-30
-32
-34
-34
-34
-33
-32
-33
-34
-32
-30
-33
-35
-28
-25
-30
-34
-34
-34
-32
-30
-31
-32
-33
-33
-30
-25
-20
-16
-12
-9
-7
-7
-9
-13
-17
-19
-21
-22
-23
-26
-30
-32
-34
-33
-32
-36
-40
-39
-38
-34
-30
-32
-34
-31
-28
-30
-31
-28
-26
-25
-25
-28
-29
-26
-25
-28
-29
-27
-25
-23
-22
-23
-24
-24
-24
-24
-24
-24
-24
-23
-22
-22
-22
-22
-23
-24
-28
-32
-28
-25
-32
-35
-22
-5
23
31
-5
-52
-118
-165
-189
-183
-142
-110
-85
-73
-71
-81
-99
-107
-109
-100
-86
-72
-57
-53
-51
-43
-34
-28
-23
-19
-15
-10
-6
-8
-10
-10
-10
-10
-10
-8
-6
-6
-6
-3
0
-1
-1
2
4
2
4
13
15
9
9
15
20
24
26
27
32
38
43
48
54
59
64
69
74
79
84
89
93
98
101
104
104
104
100
96
96
95
89
82
74
68
67
62
49
39
35
31
28
23
16
12
11
8
4
1
-2
0
6
6
3
6
12
15
17
18
18
18
17
14
16
9
8
7
6
4
2
0
-2
-1
0
-3
-6
-6
-6
-5
-4
-5
-6
-5
-4
-4
-4
-3
-3
-5
-7
-9
-10
-9
-8
-7
-10
-16
-17
-15
-14
-14
-15
-17
-18
-18
-17
-16
-18
-20
-20
-20
-20
-20
-19
-18
-17
-16
-19
-22
-22
-23
-27
-25
-10
6
26
35
33
-3
-69
-134
-200
-194
-146
-114
-91
-79
-72
-78
-88
-97
-106
-90
-68
-58
-49
-47
-44
-33
-22
-16
-10
-8
-6
-8
-10
-6
-2
-2
-2
-2
-2
0
2
3
4
4
5
8
11
13
14
15
16
17
21
26
28
29
37
46
49
51
58
65
72
79
87
80
98
100
105
110
117
124
122
120
120
119
113
107
101
94
87
79
68
59
52
45
36
28
20
15
12
6
-3
-7
-9
-11
-13
-16
-19
-21
-23
-20
-15
-15
-17
-18
-17
-15
-14
-10
-6
-3
0
1
2
2
1
-6
-12
-11
-11
-15
-18
-20
-23
-26
-29
-32
-34
-34
-34
-35
-38
-42
-43
-41
-38
-35
-36
-39
-38
-35
-34
-35
-35
-33
-33
-35
-36
-34
-35
-36
-36
-36
-36
-36
-37
-38
-37
-36
-36
-36
-34
-32
-32
-32
-33
-34
-32
-31
-34
-37
-39
-41
-43
-43
-41
-28
-10
12
34
-10
-75
-141
-206
-195
-171
-147
-124
-87
-122
-47
-44
-65
-84
-86
-87
-74
-64
-64
-63
-56
-49
-44
-37
-28
-22
-21
-20
-21
-22
-22
-19
-12
-12
-19
-20
-16
-14
-14
-14
-14
-11
-7
-6
-6
-4
-1
0
1
6
11
15
18
22
26
31
36
42
48
54
58
61
66
74
81
85
89
93
96
98
99
96
93
91
88
84
79
73
67
60
53
45
36
27
20
15
12
9
4
-1
-3
-5
-6
-8
-10
-12
-11
-10
-13
-16
-11
-6
-4
-1
3
6
9
13
16
17
14
12
10
8
8
6
2
1
3
1
-4
-6
-7
-9
-11
-12
-13
-14
-13
-10
-7
-7
-9
-10
-10
-9
-10
-11
-12
-12
-12
-14
-16
-16
-16
-15
-14
-14
-14
-15
-14
-8
-7
-14
-18
-15
-14
-13
-12
-13
-14
-13
-12
-11
-10
-10
-13
-17
-18
-17
-16
-16
0
18
45
73
14
-48
-113
-174
-185
-190
-153
-117
-83
-56
-58
-64
-80
-92
-93
-88
-68
-53
-44
-35
-28
-21
-15
-9
-3
1
4
6
6
7
9
10
10
10
10
10
11
12
13
15
17
18
18
20
22
23
24
30
36
35
35
40
45
49
53
59
65
70
76
82
88
93
98
103
107
110
113
116
118
119
120
119
117
115
107
96
89
82
73
65
59
53
45
52
30
24
20
16
12
8
4
0
-2
-4
-4
-4
-4
-3
0
4
10
14
13
14
19
20
15
12
11
10
10
10
9
6
3
2
2
-1
-5
-6
-6
-6
-5
-4
-5
-3
0
-1
-2
-3
-4
-1
2
1
0
-2
-4
-6
-8
-8
-8
-8
-8
-8
-8
-8
-8
-8
-8
-7
-6
-7
-8
-9
-10
-9
-9
-11
-11
-9
-8
-9
-10
-11
-12
-13
-14
-16
-5
7
37
62
43
16
-49
-114
-174
-208
-159
-117
-91
-74
-75
-80
-90
-96
-98
-91
-72
-56
-44
-37
-35
-29
-20
-10
-1
2
3
4
4
3
1
5
11
8
3
4
2
10
12
13
14
16
18
19
20
23
26
29
32
34
36
38
42
48
54
59
65
74
82
91
97
100
106
113
118
122
126
130
133
135
139
143
134
122
117
113
106
99
90
82
74
66
57
48
40
34
31
27
21
16
13
10
8
5
2
0
2
4
4
5
8
12
17
20
20
21
25
26
25
23
21
18
15
13
11
9
7
5
3
0
-4
-6
-8
-8
-8
-9
-10
-8
-6
-6
-6
-8
-10
-9
-8
-8
-10
-16
-20
-18
-16
-19
-19
-17
-18
-22
-24
-23
-22
-22
-23
-25
-26
-26
-25
-23
-23
-25
-27
-29
-30
-30
-29
-30
-30
-30
-31
-32
-36
-39
-30
-16
13
32
23
-5
-71
-136
-202
-221
-176
-135
-98
-72
-56
-54
-67
-80
-93
-89
-75
-63
-53
-50
-49
-40
-30
-24
-19
-14
-9
-8
-9
-8
-6
-5
-4
-3
-2
-2
-2
0
2
2
2
5
8
8
9
12
14
13
16
26
31
28
30
38
45
51
56
60
66
74
79
84
94
104
109
113
117
121
127
133
130
124
123
122
106
92
90
87
78
69
59
50
42
35
30
24
15
10
8
4
-1
-4
-4
-3
0
-3
-12
-15
-13
-12
-13
-14
-13
-10
-7
-6
-6
-6
-6
-6
-6
-6
-6
-5
-4
-3
-2
-2
-2
-4
-6
-7
-8
-11
-14
-14
-14
-15
-16
-16
-16
-17
-19
-22
-24
-25
-22
-15
4
30
28
10
-42
-107
-173
-238
-214
-166
-130
-96
-70
-44
-52
-63
-82
-100
-98
-95
-81
-68
-67
-64
-52
-42
-38
-33
-25
-20
-18
-16
-17
-17
-14
-12
-14
-15
-12
-9
-7
-4
0
2
1
2
6
9
11
16
21
26
31
37
43
47
51
58
66
75
84
90
96
105
112
115
119
124
128
127
126
125
122
113
106
99
91
84
77
70
63
56
47
38
31
26
22
19
12
3
-1
-3
-4
-5
-8
-11
-11
-9
-10
-8
-13
-12
-11
-10
-9
-8
-12
-16
-13
-10
-11
-12
-13
-14
-13
-12
-13
-14
-14
-14
-15
-16
-17
-18
-18
-18
-17
-17
-19
-18
-14
-15
-19
-19
-17
-16
-17
-18
-18
-18
-18
-19
-20
-19
-18
-18
-18
-14
-10
-4
0
1
2
1
0
-4
-7
-10
-12
-13
-15
-19
-22
-23
-25
-27
-28
-29
-31
-33
-33
-31
-30
-30
-28
-25
-24
-25
-24
-21
-20
-20
-20
-22
-22
-22
-22
-22
-23
-24
-24
-24
-22
-20
-21
-22
-21
-20
-21
-22
-22
-21
-17
-16
-23
-26
-25
-24
-23
-23
-26
-27
-25
-25
-27
-17
-1
22
48
8
-43
-107
-172
-182
-176
-154
-118
-97
-78
-74
-72
-89
-104
-102
-96
-78
-62
-53
-45
-40
-35
-29
-23
-15
-10
-10
-8
-3
-2
-6
-6
-2
0
-1
-2
-1
0
1
2
1
1
3
5
7
9
11
13
14
19
24
23
22
26
30
36
41
46
51
55
59
64
69
74
80
86
91
95
100
104
107
109
110
110
109
107
106
105
98
90
84
79
72
64
58
53
44
35
32
28
24
20
15
10
7
4
5
6
4
2
5
8
7
8
15
20
21
22
24
26
23
21
19
17
15
14
13
12
12
12
11
10
10
7
3
2
3
4
3
2
2
6
8
7
6
4
2
3
4
2
0
0
0
1
2
1
0
-2
-4
-6
-8
-7
-6
-5
-5
-7
-7
-5
-7
-12
-12
-8
-6
-5
-4
-5
-6
-6
-8
-11
-12
-12
-8
-4
21
45
63
72
7
-59
-124
-174
-163
-148
-123
-101
-85
-75
-79
-87
-102
-103
-87
-72
-59
-50
-46
-38
-27
-19
-12
-9
-7
-3
1
2
2
2
3
4
5
6
5
5
8
8
8
12
16
16
16
17
18
21
25
30
34
34
36
42
48
53
59
67
74
81
87
93
99
105
110
114
118
122
126
131
131
129
128
127
117
106
101
97
88
96
69
60
54
48
40
31
23
16
12
7
2
-2
-3
-4
-5
-6
-7
-8
-9
-9
-6
-5
-7
-8
-7
-6
-7
-6
-3
0
3
7
11
12
13
15
17
16
13
11
9
0
-8
-8
-8
-10
-12
-14
-16
-22
-26
-26
-26
-27
-28
-27
-26
-24
-22
-24
-25
-22
-20
-20
-21
-23
-23
-21
-20
-21
-23
-25
-26
-26
-26
-25
-23
-21
-21
-23
-24
-23
-22
-20
-22
-24
-23
-22
-20
-18
-20
-22
-23
-24
-25
-26
-28
-30
-31
-26
-10
12
41
25
-41
-106
-172
-201
-203
-181
-145
-106
-67
-52
-46
-56
-72
-81
-88
-77
-62
-56
-51
-49
-50
-39
-32
-26
-20
-15
-10
-10
-10
-9
-8
-8
-8
-6
-4
-2
0
-1
-2
-1
0
3
4
5
7
10
14
18
20
21
24
28
35
42
48
53
58
63
70
77
84
91
93
94
97
100
107
114
114
114
116
117
110
103
99
95
88
83
78
72
66
60
54
47
41
32
21
15
12
7
2
-1
-3
-6
-9
-10
-9
-8
-8
-8
-8
-8
-7
-6
-6
-4
-2
1
4
1
-2
1
4
4
4
2
0
1
2
3
4
3
3
6
8
11
12
11
12
18
30
46
59
70
27
-38
-104
-169
-182
-181
-156
-127
-101
-76
-74
-74
-94
-112
-110
-107
-88
-72
-70
-65
-47
-31
-24
-17
-11
-6
-5
-4
-3
-1
3
6
6
6
7
9
12
14
14
16
19
21
23
26
29
31
33
39
45
50
55
60
65
73
80
85
90
99
108
116
122
124
127
135
142
142
142
138
135
131
126
118
111
104
97
90
81
71
62
53
45
37
33
31
24
16
14
13
10
7
6
5
4
3
2
4
3
2
0
-2
0
2
-2
-6
-2
2
-1
-4
-4
-4
-5
-6
-8
-10
-9
-8
-11
-12
-12
-12
-12
-12
-13
-15
-17
-16
-11
-13
-19
-20
-19
-18
-18
-18
-18
-18
-18
-17
-16
-17
-18
-18
-18
-18
-18
-18
-18
-18
-18
-18
-18
-18
-18
-18
-17
-14
-10
-3
0
0
0
1
1
-2
-6
-9
-11
-13
-16
-19
-21
-23
-25
-27
-28
-29
-31
-33
-33
-32
-32
-32
-27
-22
-24
-26
-26
-26
-24
-22
-24
-26
-25
-24
-26
-28
-26
-24
-23
-23
-26
-27
-24
-22
-22
-22
-23
-24
-24
-24
-24
-24
-24
-24
-25
-25
-23
-24
-27
-31
-36
-33
-30
-32
-31
1
29
38
33
-32
-98
-163
-202
-172
-146
-126
-109
-95
-88
-93
-101
-112
-110
-93
-79
-65
-59
-57
-47
-33
-27
-25
-21
-17
-14
-11
-10
-11
-12
-12
-11
-12
-7
-6
-6
-6
1
8
1
-4
0
4
5
6
7
8
10
13
19
22
22
23
28
32
36
41
47
53
58
64
70
78
87
90
91
96
103
108
113
114
113
112
111
105
100
97
94
87
79
71
63
55
47
39
32
32
29
19
10
4
0
-1
-3
-6
-9
-11
-12
-13
-14
-13
-12
-12
-12
-13
-13
-11
-6
-1
0
-1
4
11
12
11
8
4
4
4
1
-2
-3
-4
-8
-12
-15
-18
-17
-17
-23
-28
-26
-24
-26
-28
-27
-26
-25
-24
-25
-25
-22
-21
-23
-24
-24
-24
-25
-26
-27
-28
-28
-28
-27
-27
-29
-30
-30
-32
-32
-31
-30
-30
-30
-30
-30
-31
-32
-32
-32
-31
-30
-31
-33
-36
-38
-39
-37
-30
-9
26
25
-6
-57
-123
-176
-222
-203
-155
-117
-83
-67
-54
-66
-84
-95
-105
-89
-71
-64
-58
-57
-56
-47
-37
-29
-22
-19
-16
-17
-18
-16
-14
-13
-12
-12
-12
-13
-13
-9
-6
-5
-4
-4
-3
0
3
7
8
8
11
15
19
23
26
29
35
41
45
49
57
66
68
70
77
84
87
90
94
98
101
104
102
99
95
90
84
78
72
65
58
50
39
33
30
21
9
3
0
-5
-10
-14
-19
-20
-21
-22
-23
-25
-27
-28
-27
-26
-26
-25
-24
-21
-18
-23
-28
-21
-16
-12
-8
-3
0
0
0
-2
-5
-8
-11
-14
-17
-22
-24
-23
-26
-33
-36
-36
-37
-39
-40
-40
-40
-40
-39
-37
-36
-35
-35
-37
-35
-31
-32
-34
-36
-38
-37
-36
-31
-26
-32
-36
-33
-30
-32
-34
-33
-32
-31
-31
-34
-34
-29
-27
-29
-30
-29
-28
-29
-29
-27
-26
-27
-29
-31
-32
-33
-29
-21
6
37
40
40
-23
-89
-154
-215
-184
-154
-133
-111
-91
-75
-81
-90
-106
-115
-104
-91
-76
-64
-58
-50
-40
-32
-27
-22
-17
-13
-11
-11
-13
-12
-9
-8
-7
-6
-5
-4
-3
-2
-3
-2
1
2
2
5
8
8
8
14
20
21
22
24
27
32
37
41
46
54
62
69
75
79
86
95
103
109
112
111
111
114
112
106
102
98
93
89
81
72
64
55
48
41
34
27
18
10
6
2
0
-3
-12
-20
-24
-28
-30
-32
-29
-26
-27
-28
-29
-30
-28
-26
-25
-24
-23
-22
-21
-20
-20
-19
-17
-16
-15
-15
-17
-14
-8
-9
-13
-13
-11
-11
-13
-14
-14
-13
-12
-14
-16
-20
-24
-17
-8
12
30
40
29
-36
-102
-168
-204
-191
-173
-148
-127
-110
-101
-98
-106
-123
-123
-111
-96
-81
-73
-68
-53
-36
-27
-20
-11
-3
-6
-11
-7
-12
-1
-2
-1
0
2
4
4
4
7
10
12
14
14
15
20
26
32
36
36
39
48
55
62
70
77
84
93
99
104
111
118
126
134
140
145
146
146
145
143
138
133
121
110
103
96
87
77
69
61
49
39
32
25
21
17
12
7
3
0
0
0
-1
-2
-1
-1
-3
-3
-1
0
-1
-2
-3
-4
-5
-5
-3
-2
-2
-2
-2
-3
-5
-3
2
-3
-8
-10
-12
-10
-8
-11
-14
-15
-16
-15
-14
-14
-14
-13
-12
-14
-16
-16
-16
-19
-20
-19
-18
-19
-20
-21
-22
-21
-20
-19
-16
-13
-10
-7
-4
-1
-2
-5
-6
-6
-11
-18
-19
-20
-23
-26
-28
-30
-31
-32
-34
-37
-41
-43
-40
-37
-34
-32
-34
-35
-32
-30
-30
-30
-29
-29
-31
-32
-31
-30
-30
-29
-27
-26
-27
-28
-27
-26
-26
-26
-25
-24
-24
-23
-22
-23
-24
-23
-22
-23
-24
-25
-26
-29
-32
-33
-34
-36
-31
-13
10
38
20
-46
-111
-177
-200
-193
-173
-145
-112
-76
-63
-58
-72
-92
-99
-103
-89
-72
-64
-57
-51
-44
-41
-38
-30
-22
-17
-12
-13
-14
-14
-14
-15
-16
-14
-12
-11
-10
-10
-9
-6
-4
-1
-1
-3
0
7
9
6
6
10
14
17
19
21
26
31
37
43
48
53
59
54
72
78
82
86
89
92
99
104
105
106
105
103
99
95
90
84
78
71
64
57
48
41
35
30
26
21
15
9
4
2
3
-2
-10
-12
-12
-11
-9
-10
-13
-13
-11
-7
-4
-1
2
4
6
10
14
15
16
13
10
7
4
5
5
2
-1
-4
-6
-5
-6
-10
-12
-12
-12
-12
-12
-13
-12
-9
-11
-15
-16
-16
-16
-16
-16
-16
-18
-21
-21
-18
-19
-20
-21
-22
-22
-22
-24
-26
-24
-22
-22
-22
-23
-24
-22
-21
-24
-26
-25
-24
-24
-24
-23
-23
-25
-26
-25
-26
-29
-21
-8
18
48
17
-29
-92
-157
-187
-212
-172
-214
-95
-64
-55
-47
-66
-83
-93
-99
-82
-67
-58
-51
-47
-41
-31
-23
-17
-13
-9
-6
-5
-4
-3
-2
-2
-1
1
2
2
4
8
9
7
8
11
12
13
14
14
18
23
28
32
36
40
43
46
52
58
64
69
76
82
85
90
98
105
109
113
116
118
120
121
119
117
115
109
100
92
85
78
72
64
55
51
49
37
24
19
15
11
7
4
0
1
2
-1
-4
-5
-6
-5
-4
-5
-6
-4
0
9
15
11
9
13
15
12
9
6
4
4
4
3
0
-4
-6
-6
-8
-11
-12
-13
-18
-23
-23
-21
-19
-17
-16
-16
-16
-16
-13
-10
-13
-16
-18
-20
-16
-13
-20
-25
-19
-15
-18
-20
-18
-17
-20
-22
-21
-20
-19
-18
-19
-20
-19
-18
-17
-14
-11
-12
-15
-15
-13
-16
-21
-22
-22
-21
-19
4
26
52
71
6
-60
-125
-180
-177
-168
-141
-114
-91
-74
-78
-84
-98
-102
-91
-78
-62
-51
-45
-36
-23
-16
-12
-6
1
2
-1
1
6
6
3
3
5
6
6
7
9
10
8
10
12
16
20
20
20
23
26
29
32
35
39
43
47
51
59
72
80
82
88
99
108
116
122
126
129
131
134
138
139
137
141
148
141
128
120
113
105
97
88
96
70
62
57
52
48
42
28
16
17
16
7
0
1
2
0
-2
-2
-2
-3
-4
-3
-2
-2
-2
-1
1
4
6
5
4
5
6
6
6
7
8
8
7
5
5
7
4
0
4
8
6
4
4
4
6
10
22
36
55
48
-18
-83
-149
-189
-192
-182
-154
-127
-99
-83
-77
-86
-108
-112
-105
-91
-73
-66
-63
-50
-35
-26
-18
-11
-5
-4
-4
-4
-2
-1
0
1
2
3
4
7
10
12
14
14
15
19
23
27
30
30
33
41
47
52
57
64
72
79
86
93
101
109
116
122
127
133
140
148
147
143
142
143
136
144
117
108
101
94
84
75
67
59
52
44
35
27
23
18
12
8
9
7
0
-4
-1
-1
-3
-4
-4
-4
-5
-6
-5
-4
-5
-6
-5
-4
-3
-4
-7
-9
-11
-12
-12
-13
-14
-14
-14
-14
-14
-15
-16
-16
-16
-14
-13
-19
-24
-20
-18
-20
-22
-21
-21
-24
-25
-22
-21
-24
-26
-25
-24
-25
-26
-27
-27
-25
-24
-25
-26
-25
-20
-15
-14
-13
-12
-14
-17
-20
-19
-18
-22
-26
-28
-30
-30
-30
-32
-34
-35
-37
-40
-42
-43
-43
-40
-38
-38
-36
-32
-31
-34
-33
-28
-27
-29
-30
-29
-28
-29
-29
-27
-26
-27
-28
-29
-28
-30
-26
-28
-29
-30
-27
-24
-25
-26
-25
-24
-24
-24
-24
-24
-26
-28
-29
-32
-37
-38
-31
-14
15
24
16
-27
-93
-153
-210
-195
-148
-117
-90
-65
-40
-47
-60
-77
-94
-88
-79
-70
-62
-59
-56
-45
-36
-32
-27
-19
-12
-13
-13
-9
-6
-8
-10
-10
-10
-8
-6
-6
-5
-3
-1
1
2
1
1
3
6
9
10
11
14
17
23
29
30
30
35
41
46
52
56
60
64
68
72
76
83
88
92
96
99
102
104
105
102
98
93
89
85
81
76
70
62
56
52
45
37
32
28
23
18
14
11
9
7
4
1
0
-1
-2
-2
-4
-4
-1
2
7
12
14
16
18
20
17
14
17
18
11
6
6
6
5
4
4
3
1
-1
-4
-6
-6
-6
-7
-6
-3
-2
-3
-3
-1
-1
-3
-4
-5
-7
-9
-10
-10
-11
-12
-13
-14
-14
-14
-14
-14
-14
-14
-14
-14
-15
-16
-16
-16
-17
-18
-18
-18
-19
-20
-20
-20
-20
-22
-26
-28
-27
-21
-14
12
42
48
48
-9
-74
-140
-205
-181
-152
-128
-104
-89
-76
-85
-93
-102
-107
-90
-73
-59
-48
-45
-39
-29
-20
-13
-7
-3
0
0
1
4
6
6
6
7
8
8
8
9
12
15
16
17
20
23
24
25
28
26
35
38
42
46
51
56
60
65
71
77
82
88
95
101
106
111
115
121
128
132
133
134
133
132
131
126
119
112
106
97
87
77
67
60
53
46
37
31
25
19
13
8
4
3
2
-1
-4
-4
-4
-5
-6
-6
-5
-1
3
10
14
15
16
17
18
16
13
10
8
8
6
2
0
0
-2
-6
-10
-13
-16
-19
-20
-20
-20
-19
-18
-17
-15
-12
-14
-16
-14
-12
-14
-16
-16
-16
-18
-20
-22
-24
-23
-22
-21
-21
-24
-25
-21
-20
-25
-27
-25
-24
-24
-24
-25
-26
-27
-28
-28
-28
-29
-29
-27
-32
-39
-39
-37
-34
-36
-11
9
35
54
-11
-77
-142
-195
-188
-176
-148
-122
-101
-88
-95
-104
-116
-118
-104
-90
-77
-68
-64
-54
-40
-33
-30
-24
-17
-14
-13
-13
-15
-15
-13
-11
-9
-7
-5
-3
-1
1
2
2
2
8
14
11
8
14
18
21
24
26
30
37
43
46
50
58
63
67
74
82
88
93
100
109
112
113
117
122
125
127
124
119
113
107
98
89
83
77
70
62
51
40
33
26
21
15
8
2
-1
-4
-7
-10
-12
-14
-14
-14
-13
-12
-12
-12
-13
-11
-4
0
0
4
11
14
14
14
14
12
9
5
1
0
0
-1
-3
-5
-4
-12
-16
-15
-14
-21
-28
-25
-22
-24
-26
-25
-24
-25
-26
-25
-24
-24
-24
-25
-26
-29
-30
-30
-30
-31
-33
-35
-34
-30
-30
-33
-34
-35
-36
-36
-37
-39
-40
-39
-38
-38
-37
-36
-36
-36
-38
-40
-43
-46
-48
-49
-43
-34
-16
1
20
9
-57
-122
-188
-214
-192
-168
-144
-115
-82
-69
-72
-87
-107
-110
-104
-93
-81
-73
-66
-63
-61
-52
-43
-38
-33
-31
-28
-26
-24
-23
-22
-22
-22
-23
-24
-21
-18
-18
-18
-16
-14
-15
-14
-8
-4
-5
-5
0
3
6
10
14
19
24
30
36
42
48
55
62
66
69
72
75
84
93
93
94
93
96
94
92
86
80
73
67
60
53
47
40
31
22
16
11
5
0
-6
-10
-11
-13
-15
-17
-19
-21
-23
-24
-23
-23
-25
-24
-21
-19
-17
-14
-11
-7
-3
-1
1
2
2
2
2
-2
-6
-7
-8
-9
-11
-17
-22
-24
-26
-30
-33
-36
-38
-36
-35
-38
-38
-33
-30
-31
-32
-33
-34
-34
-34
-33
-33
-35
-35
-33
-32
-32
-33
-35
-36
-35
-34
-32
-32
-32
-31
-30
-30
-30
-29
-28
-28
-28
-27
-26
-26
-26
-25
-25
-28
-29
-25
-25
-32
-31
-19
1
29
30
14
-36
-101
-160
-216
-194
-146
-116
-90
-72
-54
-67
-85
-96
-86
-96
-84
-72
-60
-56
-51
-38
-28
-25
-21
-16
-12
-9
-6
-6
-6
-6
-6
-5
-4
-4
-2
2
4
5
5
3
3
5
6
7
10
13
17
21
23
25
29
33
35
37
43
48
57
66
69
72
80
87
93
98
102
106
107
108
109
110
109
107
103
97
89
81
75
70
65
56
45
38
34
28
22
17
12
8
5
2
-1
-3
-5
-7
-9
-11
-14
-5
4
2
0
7
14
16
18
16
14
13
12
9
6
5
3
0
-2
-1
0
1
0
-5
-8
-8
-8
-8
-8
-7
-6
-5
-5
-7
-6
-3
-4
-7
-8
-8
-10
-8
-12
-10
-15
-20
-16
-12
-15
-18
-18
-18
-20
-22
-20
-18
-18
-18
-17
-16
-18
-19
-16
-15
-18
-19
-16
-15
-17
-18
-18
-18
-17
-4
12
37
63
13
-52
-118
-183
-188
-189
-155
-120
-90
-62
-70
-79
-90
-100
-96
-89
-71
-57
-49
-42
-34
-26
-19
-12
-4
0
0
0
0
2
6
8
7
9
14
13
8
8
11
13
15
17
19
20
21
24
27
29
32
34
36
42
48
52
56
63
70
80
88
90
94
101
108
114
119
122
126
131
134
134
133
131
128
122
118
114
105
94
85
78
69
60
54
47
39
31
26
21
16
20
8
6
7
8
3
-2
-2
-2
-2
-2
0
2
5
9
14
19
22
24
25
26
23
22
21
18
12
10
9
7
5
4
3
1
-1
-5
-9
-10
-10
-11
-13
-14
-13
-11
-10
-12
-14
-11
-8
-11
-14
-12
-10
-13
-16
-16
-16
-16
-16
-18
-20
-20
-20
-19
-18
-18
-19
-21
-19
-14
-15
-20
-22
-21
-19
-17
-16
-16
-16
-17
-20
-23
-25
-27
-24
-18
10
36
43
43
-22
-88
-153
-200
-171
-142
-114
-88
-64
-50
-56
-67
-87
-93
-81
-68
-55
-48
-48
-42
-31
-23
-17
-12
-8
-6
-6
-6
-5
-4
-5
-2
3
4
3
2
2
2
4
4
4
5
6
9
12
13
14
19
22
25
29
33
37
41
47
55
60
63
67
73
81
90
94
95
100
106
111
116
118
117
113
109
105
101
93
85
79
73
64
56
47
38
34
29
17
6
5
3
-3
-8
-11
-14
-13
-12
-12
-12
-14
-16
-15
-14
-15
-15
-12
-9
-6
-3
1
9
19
17
10
11
15
13
9
7
5
2
-1
-2
-4
-7
-10
-12
-14
-15
-16
-19
-22
-21
-19
-15
-12
-11
-11
-16
-18
-12
-9
-13
-16
-17
-18
-19
-20
-19
-18
-19
-20
-20
-21
-23
-24
-23
-22
-23
-24
-25
-26
-25
-24
-24
-25
-26
-27
-28
-26
-24
-28
-32
-32
-32
-37
-38
-31
-17
12
28
21
-11
-77
-142
-208
-214
-163
-127
-102
-76
-48
-40
-44
-62
-86
-86
-76
-67
-58
-56
-55
-45
-35
-31
-27
-22
-18
-15
-12
-11
-10
-11
-12
-9
-6
-7
-8
-7
-6
-2
0
1
2
3
5
8
10
11
13
16
20
24
27
31
36
44
49
54
60
65
70
75
79
83
89
95
98
102
107
112
111
110
106
102
98
93
86
78
70
63
58
51
41
33
29
24
19
14
7
3
0
-2
-3
-5
-8
-10
-10
-10
-11
-11
-9
-9
-11
-8
-3
0
3
7
4
15
18
17
16
13
10
9
8
2
-2
-3
-4
-5
-7
-10
-13
-17
-19
-16
-14
-17
-18
-18
-17
-14
-13
-15
-14
-11
-10
-11
-12
-11
-13
-17
-17
-15
-14
-15
-13
-9
-13
-18
-17
-16
-15
-14
-15
-16
-15
-14
-14
-15
-19
-22
-18
-16
-17
-18
-17
-17
-21
-23
-20
-19
-21
-13
2
24
50
20
-35
-98
-163
-183
-190
-163
-127
-98
-71
-69
-71
-83
-96
-101
-105
-88
-71
-62
-54
-47
-41
-34
-27
-21
-16
-14
-12
-13
-13
-9
-6
-5
-4
-1
0
-1
-1
2
4
5
6
7
9
11
14
17
21
25
28
31
33
35
43
36
57
62
67
72
78
84
89
95
101
107
112
116
119
122
121
120
120
120
118
114
109
102
94
86
79
72
65
58
52
43
33
30
29
24
19
14
9
8
7
5
3
3
4
4
4
6
9
18
26
20
16
20
24
22
20
19
18
16
14
14
14
12
10
9
7
4
2
2
3
5
2
-4
-3
2
4
3
2
1
0
-1
-2
-1
0
0
-1
-2
-3
-4
-5
-6
-3
0
-3
-6
-7
-8
-7
-6
-7
-8
-9
-10
-8
-6
-9
-9
-7
-6
-6
-8
-12
-14
-13
-16
-22
-15
-3
23
51
39
18
-43
-108
-173
-112
-187
-137
-114
-92
-88
-85
-95
-105
-112
-114
-97
-81
-67
-57
-54
-50
-43
-35
-25
-20
-19
-17
-14
-12
-12
-12
-11
-10
-9
-8
-9
-7
-3
-2
-2
-2
-1
1
3
5
7
11
14
18
22
27
32
36
41
49
57
62
68
77
85
92
97
102
107
111
116
122
127
129
130
129
128
128
121
110
102
94
87
80
71
62
54
46
39
33
25
17
14
10
6
2
1
0
-3
-6
-4
-2
-5
-8
-5
-2
-4
-5
0
5
8
10
12
19
32
38
37
41
52
71
95
104
104
130
167
184
195
198
198
142
77
38
2
27
0
63
69
44
18
-5
-26
-28
-30
-32
-34
-37
-39
-35
-34
-42
-48
-46
-45
-48
-49
-46
-45
-47
-48
-47
-46
-47
-48
-48
-48
-48
-49
-51
-52
-52
-52
-51
-50
-49
-54
-61
-57
-52
-50
-48
-44
-40
-34
-27
-18
-9
-1
8
18
28
36
45
54
63
71
76
76
75
73
70
65
59
53
47
40
34
26
21
17
15
13
8
3
5
9
4
-3
-2
2
-1
-4
-3
-2
-4
-6
-4
-2
-2
-2
-4
-6
-5
-4
-5
-7
-10
-12
-12
-12
-15
-16
-15
-15
-17
-17
-15
-16
-19
-20
-21
-21
-19
-18
-19
-20
-21
-21
-19
-20
-18
-24
-24
-24
-24
-25
-26
-26
-26
-24
-22
-22
-22
-23
-24
-24
-24
-24
-24
-24
-24
-25
-26
-27
-28
-29
-29
-26
-24
-25
-23
-18
-16
-17
-14
-9
-7
-5
-4
-5
-7
-9
-13
-16
-18
-20
-20
-20
-25
-30
-30
-30
-28
-27
-33
-38
-36
-34
-36
-36
-31
-28
-28
-28
-29
-30
-29
-28
-27
-26
-27
-26
-23
-24
-27
-28
-27
-26
-26
-27
-29
-27
-23
-22
-24
-25
-26
-27
-28
-25
-22
-24
-26
-24
-22
-23
-24
-26
-28
-30
-32
-30
-17
10
29
42
14
-52
-117
-183
-187
-152
-125
-103
-82
-61
-63
-74
-90
-107
-104
-97
-85
-73
-64
-72
-46
-38
-35
-31
-19
-8
-10
-12
-9
-6
-6
-6
-6
-6
-5
-4
-4
-3
0
2
1
1
3
4
3
5
10
12
11
14
20
23
25
28
31
35
39
43
47
54
61
68
74
79
84
88
92
97
102
104
106
110
114
112
110
109
107
102
97
93
88
82
75
69
63
57
50
41
35
30
26
22
18
15
13
11
10
9
10
13
9
3
4
8
10
12
15
18
21
24
26
28
29
30
30
29
25
22
23
23
19
15
12
10
10
9
6
3
0
-2
-1
-1
-3
-2
3
3
1
0
0
-1
-3
-4
-3
-5
-2
-9
-8
-9
-10
-11
-12
-13
-14
-13
-12
-14
-16
-16
-16
-14
-13
-16
-18
-17
-16
-16
-16
-17
-18
-19
-21
-23
-24
-24
-26
-29
-21
-7
20
51
32
4
-58
-123
-178
-233
-189
-144
-119
-96
-93
-91
-101
-111
-117
-118
-100
-83
-71
-61
-54
-46
-35
-26
-21
-17
-13
-10
-9
-8
-7
-5
-2
-1
-3
-3
-1
1
3
4
5
8
11
12
11
13
17
20
24
27
30
33
36
43
50
51
54
64
73
79
85
91
97
102
108
114
119
122
124
125
125
123
121
118
112
105
96
87
78
69
61
54
47
40
31
23
16
9
5
8
-2
-4
-9
-14
-10
-6
-10
-14
-12
-10
-10
-10
-9
-8
-7
-6
-4
-1
3
7
10
12
13
13
11
9
6
2
-1
-6
-12
-14
-15
-16
-16
-20
-25
-27
-29
-31
-33
-35
-36
-33
-30
-28
-26
-25
-24
-26
-28
-26
-24
-25
-26
-27
-28
-27
-26
-24
-22
-22
-24
-28
-29
-27
-26
-27
-28
-28
-28
-28
-28
-27
-26
-25
-24
-23
-23
-25
-26
-25
-25
-28
-29
-30
-30
-29
-12
6
32
41
-24
-90
-155
-202
-200
-186
-149
-113
-78
-55
-48
-55
-80
-91
-89
-80
-66
-57
-51
-44
-38
-31
-24
-17
-10
-8
-7
-6
-7
-4
1
-2
2
-2
4
2
0
3
6
5
4
7
10
10
10
13
17
20
23
27
31
34
37
42
47
53
58
64
71
80
86
89
92
96
101
106
109
111
115
119
119
117
111
105
96
88
83
78
69
60
56
51
43
35
28
21
13
8
8
6
-1
-6
-5
-4
-5
-7
-9
-10
-9
-8
-8
-7
-5
-5
-7
-8
-7
-6
-5
0
5
10
15
16
17
18
20
17
14
11
8
2
-4
-1
1
-7
-14
-15
-17
-21
-24
-24
-24
-25
-26
-26
-25
-22
-20
-21
-22
-22
-22
-22
-22
-22
-23
-25
-26
-26
-26
-27
-27
-25
-24
-24
-24
-24
-27
-28
-28
-28
-26
-24
-25
-26
-26
-26
-26
-26
-24
-23
-28
-31
-25
-23
-26
-28
-29
-27
-20
0
28
34
22
-25
-90
-154
-218
-195
-141
-112
-88
-64
-39
-47
-61
-77
-93
-85
-76
-67
-58
-56
-53
-42
-32
-26
-21
-16
-12
-13
-14
-14
-12
-3
0
-5
-8
-7
-5
-3
-2
-2
-2
-2
0
4
6
7
8
9
12
15
19
23
27
31
40
49
50
48
56
64
72
80
83
86
93
99
105
110
109
109
113
114
105
100
98
93
86
80
73
67
60
51
40
33
27
23
21
15
8
5
3
-1
-5
-6
-7
-8
-7
-6
-6
-8
-8
-9
-10
-4
2
2
2
2
3
10
16
17
18
16
14
13
11
8
6
3
2
1
-2
-6
-9
-12
-14
-15
-19
-24
-25
-23
-23
-25
-23
-19
-18
-18
-18
-18
-17
-16
-15
-14
-16
-18
-17
-16
-16
-16
-15
-14
-14
-14
-14
-14
-16
-18
-16
-14
-15
-15
-13
-12
-12
-12
-12
-12
-11
-10
-11
-11
-9
-8
-7
-11
-17
-11
-3
25
55
56
55
-10
-76
-141
-197
-163
-131
-107
-87
-77
-72
-81
-90
-98
-99
-81
-64
-48
-38
-40
-36
-23
-12
-4
0
1
2
3
5
7
8
8
8
8
8
8
12
17
14
9
12
8
20
22
22
22
24
26
29
32
36
40
43
48
57
64
65
68
74
81
88
94
99
105
111
116
120
125
131
134
134
132
129
125
120
111
102
95
89
78
67
60
53
45
38
34
30
24
18
15
12
8
4
2
0
2
3
-1
-4
-2
0
-1
-1
3
9
15
18
19
23
28
27
22
20
19
15
10
8
7
4
1
-4
-9
-12
-15
-16
-16
-18
-20
-20
-20
-18
-16
-17
-18
-20
-22
-20
-18
-20
-22
-24
-26
-27
-28
-28
-28
-29
-29
-26
-24
-23
-22
-23
-24
-24
-24
-25
-26
-26
-22
-17
-21
-27
-28
-27
-25
-26
-23
-24
-24
-24
-27
-29
-19
-5
24
44
34
8
-57
-123
-189
-216
-178
-144
-114
-91
-76
-72
-80
-89
-98
-96
-84
-71
-57
-50
-46
-37
-27
-19
-12
-7
-3
-4
-7
-7
-5
-5
-6
1
8
3
-2
0
2
4
6
7
8
8
8
12
14
15
20
31
35
28
28
36
42
47
53
58
65
73
79
84
91
98
103
107
110
113
120
127
124
119
118
116
105
94
84
72
54
42
74
93
59
32
32
28
14
4
4
2
-3
-6
-5
-5
-10
-12
-11
-10
-9
-8
-9
-9
-7
-6
-5
-4
-5
-6
-5
-1
3
8
13
14
14
14
16
13
10
8
6
2
-2
-5
-8
-9
-10
-12
-15
-18
-21
-24
-26
-25
-25
-28
-29
-26
-24
-25
-26
-25
-23
-21
-21
-23
-24
-25
-26
-25
-24
-25
-26
-26
-26
-27
-29
-30
-28
-26
-27
-28
-25
-22
-25
-28
-28
-28
-27
-26
-25
-24
-24
-25
-28
-30
-30
-31
-34
-32
-24
-4
24
31
24
-23
-88
-154
-219
-203
-163
-132
-102
-76
-50
-58
-69
-83
-98
-86
-74
-65
-56
-55
-53
-43
-33
-26
-19
-14
-10
-11
-12
-12
-12
-10
-8
-6
-4
-5
-6
-5
-3
0
1
-1
1
6
8
9
12
15
17
19
22
25
32
39
42
40
51
56
62
68
74
80
87
92
98
102
105
109
114
118
116
114
112
108
102
95
88
82
77
68
55
47
42
36
29
23
18
14
11
8
5
1
-3
-5
-7
-8
-9
-10
-10
-9
-8
-8
-8
-7
-6
-6
-6
-4
-1
5
11
15
18
19
20
21
20
15
12
12
9
3
-1
-3
-5
-9
-11
-13
-14
-15
-16
-17
-18
-17
-17
-19
-18
-15
-14
-16
-15
-14
-15
-16
-17
-18
-17
-16
-13
-11
-17
-22
-20
-18
-16
-14
-16
-18
-18
-18
-18
-18
-18
-18
-17
-16
-17
-15
-10
-11
-16
-16
-13
-14
-17
-15
-11
-10
-10
9
-10
53
73
8
-58
-123
-180
-179
-173
-146
-118
-93
-74
-74
-79
-97
-105
-97
-85
-68
-54
-45
-36
-27
-21
-19
-13
-4
0
-1
-2
-1
0
0
1
3
4
5
6
6
6
6
8
10
11
12
14
16
17
18
20
22
26
30
32
35
42
47
52
59
68
74
75
80
89
97
103
108
112
116
120
122
121
120
121
118
112
106
101
94
87
79
71
63
54
45
36
28
20
20
19
10
2
0
-2
-4
-6
-8
-10
-10
-10
-10
-10
-10
-10
-9
-6
-1
3
6
10
14
16
15
11
6
5
7
0
-10
-5
3
-4
-13
-14
-14
-20
-24
-27
-30
-29
-28
-29
-30
-27
-24
-25
-26
-26
-26
-24
-22
-23
-24
-25
-26
-26
-26
-25
-25
-27
-28
-28
-27
-25
-24
-25
-28
-31
-31
-29
-28
-27
-26
-25
-24
-24
-24
-24
-24
-24
-26
-28
-28
-28
-30
-30
-18
0
30
47
30
-5
-71
-136
-202
-219
-176
-142
-116
-99
-89
-88
-95
-104
-114
-104
-84
-69
-55
-51
-49
-40
-30
-20
-11
-9
-7
-5
-2
-4
-6
-4
-2
0
2
1
0
4
8
8
8
8
10
17
21
17
15
19
25
34
38
38
41
47
53
59
65
70
76
82
87
91
96
101
115
130
128
123
128
122
134
132
129
126
119
111
104
96
85
75
69
61
50
39
30
23
19
14
8
4
3
-1
-7
-10
-10
-11
-13
-12
-9
-10
-13
-14
-14
-14
-13
-11
-9
-8
-8
-8
-7
1
8
10
12
14
16
14
12
8
4
0
-4
-6
-9
-13
-17
-20
-21
-17
-19
-31
-37
-35
-34
-34
-34
-35
-35
-31
-32
-36
-36
-33
-32
-31
-34
-39
-36
-31
-35
-41
-39
-34
-34
-34
-36
-38
-34
-30
-34
-38
-36
-34
-33
-32
-34
-36
-35
-34
-34
-34
-34
-32
-27
-27
-34
-37
-35
-35
-37
-27
-11
11
36
-8
-73
-139
-204
-214
-213
-178
-140
-106
-138
-64
-57
-78
-98
-101
-102
-87
-74
-68
-63
-57
-50
-43
-36
-30
-25
-21
-18
-18
-17
-14
-12
-12
-12
-11
-9
-6
-5
-7
-7
-5
-4
-3
1
5
6
5
4
5
12
19
23
26
30
34
38
42
47
53
60
66
70
76
88
97
104
109
112
115
118
119
116
109
99
93
90
84
75
68
61
53
45
37
30
24
18
12
7
4
1
-4
-9
-9
-6
-11
-16
-19
-22
-18
-14
-21
-25
-20
-16
-15
-14
-15
-16
-15
-13
-9
-8
-14
-17
-14
-13
-15
-15
-13
-12
-13
-14
-15
-16
-16
-19
-25
-25
-23
-22
-23
-25
-27
-28
-28
-32
-36
-27
-16
10
28
-7
-48
-113
-176
-229
-254
-203
-157
-124
-94
-73
-65
-78
-94
-113
-116
-102
-90
-77
-72
-71
-59
-42
-34
-30
-23
-16
-14
-13
-12
-11
-10
-9
-8
-7
-5
-4
-2
0
1
2
10
16
14
12
16
20
22
25
29
35
44
52
57
64
73
78
79
86
97
105
111
117
122
128
136
136
133
132
133
133
131
119
106
98
91
83
74
67
60
52
44
37
30
25
19
13
7
3
0
-2
-4
-4
-5
-8
-10
-10
-9
-6
-6
-10
-11
-9
-8
-8
-8
-8
-8
-7
-7
-9
-10
-9
-8
-9
-10
-10
-11
-10
-13
-12
-14
-16
-14
-12
-15
-18
-16
-14
-17
-20
-17
-15
-18
-20
-19
-18
-19
-20
-20
-20
-21
-22
-22
-22
-21
-20
-20
-18
-14
-8
-2
0
-1
-6
-11
-12
-13
-16
-19
-24
-28
-28
-28
-32
-36
-36
-36
-37
-38
-39
-40
-40
-40
-36
-33
-30
-28
-30
-31
-28
-25
-22
-22
-26
-28
-27
-26
-27
-29
-31
-28
-22
-24
-29
-30
-29
-28
-28
-25
-21
-23
-28
-28
-28
-28
-28
-26
-24
-24
-24
-28
-32
-29
-26
-29
-27
-9
12
39
37
-3
-55
-121
-167
-197
-187
-146
-115
-91
-82
-82
-92
-106
-107
-103
-88
-71
-60
-49
-43
-37
-32
-36
-22
-18
-13
-8
-3
2
-1
-4
-4
-4
-3
-2
-1
0
0
0
1
2
3
4
7
9
11
13
15
16
16
19
24
28
32
38
44
47
49
58
68
70
71
82
93
97
100
106
112
118
124
124
124
124
124
122
119
115
110
102
94
87
79
70
61
54
47
40
36
35
30
21
16
12
9
7
6
6
6
5
4
3
2
1
0
1
5
10
13
16
19
22
25
28
25
22
20
18
18
17
13
11
14
14
8
5
8
6
-5
-9
-6
-5
-7
-8
-9
-9
-7
-7
-9
-9
-7
-6
-6
-7
-9
-10
-11
-12
-12
-15
-18
-18
-18
-17
-16
-19
-21
-14
-10
-20
-27
-22
-18
-20
-22
-20
-19
-22
-24
-23
-22
-21
-21
-24
-26
-25
-26
-29
-23
-13
16
50
15
-39
-103
-168
-203
-234
-194
-149
-114
-80
-70
-61
-76
-90
-98
-101
-79
-61
-53
-46
-43
-38
-31
-24
-15
-9
-6
-4
-4
-4
-4
-3
0
2
2
2
2
2
3
6
9
10
10
10
10
18
29
26
21
24
30
34
38
43
48
52
57
69
78
79
81
88
95
99
104
110
115
119
123
127
128
121
118
117
113
107
98
88
79
71
60
49
39
28
23
19
12
5
3
1
-4
0
-14
-18
-21
-24
-23
-22
-18
-15
-21
-26
-23
-20
-20
-20
-21
-22
-21
-20
-18
-15
-12
-9
-7
-6
-5
-4
-5
-4
0
-4
-13
-19
-24
-26
-25
-30
-37
-38
-37
-38
-41
-43
-44
-46
-48
-49
-50
-45
-40
-43
-46
-44
-42
-41
-40
-44
-47
-50
-51
-47
-44
-45
-45
-43
-43
-45
-46
-45
-44
-44
-44
-45
-46
-46
-46
-45
-44
-44
-42
-39
-38
-38
-38
-36
-36
-36
-41
-46
-46
-45
-38
-27
2
22
14
-11
-76
-142
-208
-229
-179
-137
-105
-79
-60
-54
-64
-76
-90
-91
-82
-72
-61
-59
-61
-52
-39
-34
-31
-24
-17
-16
-16
-16
-16
-11
-8
-8
-8
-9
-10
-8
-6
-5
-4
-1
3
7
9
5
3
7
11
14
17
22
25
27
31
37
42
46
52
58
62
66
71
76
88
101
102
99
102
107
109
111
110
108
103
98
91
84
76
69
63
57
51
45
37
30
23
16
10
5
2
0
0
-3
-9
-12
-11
-12
-16
-16
-12
-10
-9
-8
-8
-8
-7
-5
-3
1
5
10
15
16
18
19
20
15
10
7
4
5
6
2
-3
-7
-10
-12
-15
-18
-18
-11
-6
-8
-13
-20
-20
-12
-9
-11
-11
-9
-8
-9
-10
-11
-12
-13
-14
-15
-16
-16
-16
-17
-18
-18
-15
-12
-15
-18
-16
-14
-16
-18
-19
-20
-20
-20
-19
-17
-13
-12
-18
-22
-22
-22
-25
-22
-14
5
33
46
50
9
-56
-122
-187
-183
-154
-131
-110
-93
-76
-82
-91
-99
-107
-96
-84
-71
-58
-51
-43
-35
-27
-21
-15
-10
-6
-5
-4
-3
-2
-1
0
0
0
1
4
8
10
9
8
8
11
16
18
17
19
23
24
25
30
35
41
47
49
51
58
66
72
78
87
96
102
109
116
123
130
136
136
136
137
136
130
124
117
109
101
95
90
80
63
54
50
44
37
32
29
21
11
11
17
7
-7
-10
-10
-13
-17
-15
-18
-17
-24
-20
-16
-15
-14
-13
-12
-12
-12
-10
-8
-9
-10
-9
-8
-10
-12
-13
-13
-10
-9
-12
-14
-15
-16
-17
-17
-15
-14
-15
-65
-130
-196
-261
-327
-392
-440
-485
-467
-445
-436
-427
-376
-323
-258
-193
-128
-70
-43
-21
-13
-6
-4
-1
4
8
8
8
10
13
16
19
21
22
23
25
28
31
35
38
42
46
49
53
57
62
67
76
87
88
89
100
112
126
140
149
159
173
188
201
214
226
239
252
263
269
275
279
282
280
275
268
257
242
227
213
190
161
142
129
111
92
77
64
52
41
31
22
17
13
8
3
2
2
-1
-2
-4
-6
-5
-4
-3
-2
-3
-4
-4
-4
-5
-6
-7
-7
-3
-2
-8
-12
-11
-10
-11
-13
-15
-17
-19
-17
-12
-15
-22
-23
-21
-19
-17
-18
-21
-22
-23
-24
-24
-25
-26
-23
-20
-26
-32
-27
-22
-25
-28
-24
-20
-23
-26
-26
-26
-26
-26
-24
-23
-26
-27
-25
-23
-20
-16
-12
-9
-7
-8
-11
-12
-12
-15
-19
-22
-25
-27
-29
-32
-35
-36
-34
-37
-40
-43
-46
-45
-44
-43
-42
-40
-38
-37
-35
-31
-29
-32
-35
-38
-38
-33
-31
-34
-37
-39
-39
-37
-36
-37
-35
-30
-30
-33
-33
-31
-30
-31
-32
-32
-32
-32
-32
-32
-31
-32
-35
-38
-39
-40
-41
-42
-36
-25
5
20
-8
-49
-115
-169
-205
-207
-162
-124
-92
-70
-58
-60
-74
-88
-103
-97
-80
-71
-66
-64
-64
-51
-33
-31
-33
-27
-19
-18
-19
-19
-18
-18
-18
-17
-16
-16
-16
-14
-12
-12
-12
-11
-10
-8
-6
-6
-4
2
5
2
3
9
13
16
20
24
28
32
37
42
47
52
58
64
73
82
84
85
91
97
99
102
102
102
100
98
97
95
85
76
72
68
65
60
53
46
40
34
28
23
20
16
9
7
9
8
2
0
-1
-2
-3
-4
-4
-4
-5
-4
-1
1
3
7
11
14
12
20
22
22
22
19
16
14
12
8
3
-6
-30
-95
-161
-227
-292
-358
-423
-489
-548
-599
-624
-624
-611
-586
-549
-504
-465
-429
-394
-359
-307
-248
-197
-148
-107
-67
-37
-8
13
33
56
78
79
80
89
98
95
92
96
101
107
113
117
121
125
131
141
150
156
165
177
189
199
211
226
238
249
261
274
291
310
328
344
356
368
381
394
406
419
422
425
427
430
424
418
409
399
388
375
356
337
321
304
287
267
241
219
202
184
164
146
132
117
100
88
78
69
60
52
45
38
32
28
25
22
19
17
15
16
19
15
9
7
8
7
10
8
6
4
2
3
4
2
0
-1
-2
-3
-4
-4
-4
-6
-8
-6
-4
-5
-5
-3
-3
-6
-8
-9
-10
-10
-10
-10
-10
-10
-10
-9
-9
-11
-11
-9
-6
-3
-7
-12
-9
-6
-7
-8
-9
-10
-8
-6
-3
0
2
4
5
5
0
-2
3
4
-1
-5
-7
-10
-14
-17
-19
-21
-23
-25
-27
-29
-31
-31
-29
-27
-25
-23
-21
-18
-15
-14
-12
-17
-22
-18
-14
-16
-18
-18
-18
-17
-16
-16
-16
-16
-16
-16
-16
-17
-18
-17
-16
-17
-18
-18
-18
-18
-17
-15
-15
-17
-17
-15
-18
-24
-27
-29
-28
-25
-7
13
36
14
-5
-71
-136
-194
-167
-142
-121
-100
-77
-59
-66
-76
-94
-103
-93
-82
-70
-59
-52
-43
-32
-26
-27
-22
-9
-4
-5
-6
-6
-5
-3
-2
-3
-4
-4
-4
-3
-1
1
2
2
4
6
6
6
13
20
15
10
16
20
23
26
29
33
38
43
48
54
60
65
69
75
82
87
89
94
103
109
116
118
118
118
117
114
111
104
96
95
97
87
75
69
62
56
50
43
36
29
22
18
14
11
7
1
-3
2
4
-5
-9
-5
-3
-6
-8
-7
-4
1
4
5
9
14
14
11
10
11
9
5
4
3
0
-3
-5
-7
-8
-8
-10
-14
-15
-16
-15
-14
-17
-20
-14
-11
-17
-21
-15
-12
-19
-23
-19
-17
-21
-24
-27
-26
-21
-19
-22
-25
-28
-28
-25
-24
-24
-26
-29
-28
-25
-28
-33
-32
-29
-28
-29
-29
-28
-29
-30
-33
-36
-36
-36
-33
-25
-2
19
31
20
-46
-111
-177
-204
-175
-149
-127
-99
-64
-49
-51
-65
-89
-93
-83
-71
-56
-56
-62
-54
-41
-38
-38
-30
-21
-20
-21
-20
-16
-15
-14
-13
-12
-11
-10
-9
-8
-8
-8
-7
-6
-5
-3
1
4
5
7
10
12
13
16
20
25
31
36
40
44
47
55
65
70
73
80
88
90
91
96
101
97
102
90
90
83
76
74
71
62
53
42
33
27
20
13
6
-2
-9
-15
-19
-22
-25
-28
-31
-33
-33
-31
-31
-34
-34
-30
-31
-36
-34
-28
-25
-23
-19
-15
-13
-11
-6
-1
-8
-16
-17
-18
-20
-22
-24
-26
-27
-28
-32
-35
-30
-29
-40
-47
-43
-41
-44
-44
-38
-35
-37
-37
-35
-34
-35
-35
-31
-31
-33
-33
-31
-31
-33
-35
-37
-30
-21
-32
-45
-43
-38
-35
-32
-33
-34
-33
-32
-32
-32
-31
-30
-32
-34
-35
-35
-32
-30
-28
-28
-34
-35
-28
-8
23
24
3
-46
-112
-168
-219
-198
-146
-115
-89
-77
-68
-80
-96
-104
-111
-101
-112
-78
-68
-66
-63
-51
-40
-35
-30
-29
-28
-23
-20
-21
-22
-23
-24
-22
-20
-19
-18
-18
-16
-12
-11
-13
-13
-10
-6
-2
0
1
5
10
12
12
14
17
25
33
37
41
48
54
59
64
73
82
84
86
92
96
98
100
102
103
99
94
88
84
84
78
64
55
52
44
33
25
19
14
10
6
2
-3
-8
-10
-11
-15
-19
-19
-17
-17
-19
-18
-14
-7
0
-1
-2
0
2
1
0
-2
-4
-7
-10
-9
-8
-6
-6
-11
-15
-18
-20
-21
-22
-21
-20
-21
-20
-16
-15
-17
-18
-18
-16
-13
-14
-17
-16
-13
-16
-21
-21
-22
-20
-22
-21
-20
-23
-26
-23
-20
-20
-20
-21
-20
-12
-9
-20
-26
-20
-16
-18
-19
-16
-15
-17
-17
-14
-33
-68
-116
-171
-224
-276
-313
-343
-378
-414
-381
-334
-278
-222
-178
-135
-80
-26
-15
-4
2
8
9
10
12
14
15
16
16
16
18
20
22
24
24
24
24
25
27
28
29
29
27
29
34
34
31
35
42
45
47
59
74
76
75
84
95
102
110
119
128
136
144
150
156
163
169
175
182
191
196
187
180
179
175
166
155
141
127
112
97
84
70
54
41
29
20
13
7
2
0
-1
-6
-13
-14
-14
-14
-14
-18
-14
-18
-12
-18
-24
-21
-18
-19
-20
-14
-9
-4
0
3
6
5
3
0
-3
-7
-8
-3
-4
-12
-17
-20
-23
-25
-26
-25
-29
-37
-39
-37
-37
-39
-40
-39
-38
-37
-35
-33
-34
-36
-31
-26
-32
-38
-37
-36
-37
-38
-36
-34
-34
-33
-29
-27
-32
-36
-35
-34
-33
-32
-31
-29
-27
-27
-29
-29
-27
-28
-31
-32
-32
-32
-33
-37
-41
-34
-23
1
27
27
23
-42
-108
-173
-227
-181
-139
-116
-95
-75
-61
-68
-77
-91
-96
-84
-74
-67
-61
-57
-52
-45
-37
-27
-21
-19
-18
-18
-16
-12
-10
-11
-12
-11
-9
-7
-3
1
0
-3
-3
-4
3
6
6
6
11
16
18
20
19
19
28
34
37
42
48
54
60
66
71
77
84
89
91
95
101
106
110
112
111
108
105
99
92
86
81
74
65
61
57
46
35
30
26
24
22
14
6
1
-4
-6
-8
-10
-12
-13
-14
-15
-16
-14
-12
-13
-13
-10
-8
-7
-4
0
6
15
16
12
10
9
8
7
4
1
-1
-3
-6
-9
-11
-13
-12
-8
-19
-30
-27
-24
-26
-28
-21
-16
-20
-24
-26
-28
-25
-22
-24
-26
-28
-30
-30
-28
-21
-21
-27
-29
-26
-24
-24
-24
-24
-24
-25
-25
-23
-23
-25
-22
-17
-21
-27
-23
-28
-21
-26
-27
-28
-26
-24
-31
-35
-24
-10
20
36
14
-23
-89
-150
-204
-212
-154
-112
-89
-70
-52
-51
-64
-79
-94
-93
-82
-71
-59
-56
-55
-46
-34
-29
-25
-21
-17
-14
-11
-6
-2
-4
-6
-5
-4
1
6
0
-4
-2
0
2
4
6
8
8
9
13
17
20
26
34
37
35
37
42
48
55
60
63
73
87
89
87
91
99
103
107
110
113
115
118
112
106
101
96
95
92
78
65
59
52
44
37
31
24
17
10
5
2
2
1
-4
-6
-7
-5
1
0
-7
-9
-7
-4
-1
0
1
6
13
14
14
14
13
20
12
20
10
12
14
10
6
1
-4
-4
-4
-5
-6
-9
-12
-14
-16
-14
-12
-12
-12
-9
-9
-12
-13
-10
-7
-5
-7
-12
-12
-9
-8
-9
-11
-13
-12
-9
-11
-15
-16
-15
-14
-14
-14
-14
-12
-10
-13
-16
-15
-14
-15
-16
-15
-14
-13
-13
-17
-20
-22
-21
-14
1
25
44
61
30
-36
-101
-167
-176
-157
-136
-113
-94
-76
-77
-83
-95
-108
-98
-85
-64
-42
-46
-49
-33
-18
-9
-2
0
2
3
4
5
6
5
5
9
11
7
6
12
15
12
12
17
20
19
19
21
24
27
29
31
35
39
43
47
51
55
60
65
70
66
84
92
98
104
112
120
121
123
132
139
134
131
135
137
133
127
116
108
103
94
81
71
64
56
49
44
40
32
23
18
15
13
11
7
3
2
3
4
3
6
11
2
-8
0
8
11
14
22
28
29
30
28
26
26
26
27
26
17
12
12
11
8
4
0
-2
-3
-5
-7
-8
-8
-7
-5
-4
-4
-4
-4
-4
-5
-6
-6
-11
-17
-12
-4
-12
-20
-18
-16
-13
-10
-13
-16
-16
-16
-18
-20
-19
-18
-20
-22
-21
-20
-22
-22
-15
-15
-22
-25
-22
-21
-23
-24
-24
-23
-21
-8
8
33
60
8
-57
-123
-188
-193
-192
-165
-133
-100
-70
-66
-64
-85
-101
-93
-84
-74
-64
-55
-46
-39
-33
-29
-23
-13
-8
-5
-5
-7
-7
-5
-4
-5
-4
0
2
1
2
5
6
7
8
9
10
11
12
13
17
20
22
24
28
32
34
38
50
60
64
70
78
84
88
92
98
104
110
115
119
123
125
126
125
118
108
105
107
97
81
74
71
63
54
47
39
32
25
18
11
6
0
-3
-6
-8
-10
-12
-14
-15
-15
-9
-5
-11
-16
-14
-12
-11
-10
-11
-9
-1
4
3
6
14
17
14
12
11
9
7
4
-1
-3
-5
-6
-5
-11
-19
-20
-21
-23
-22
-28
-30
-28
-26
-24
-22
-27
-32
-28
-24
-25
-26
-25
-25
-28
-30
-28
-27
-31
-34
-33
-33
-35
-35
-32
-33
-38
-40
-39
-34
-28
-32
-40
-39
-35
-34
-33
-32
-33
-34
-33
-34
-36
-37
-38
-39
-40
-37
-30
-1
23
31
21
-44
-110
-176
-207
-177
-149
-125
-94
-54
-39
-50
-64
-79
-83
-78
-71
-61
-57
-55
-47
-37
-31
-27
-22
-17
-14
-11
-10
-10
-10
-8
-7
-6
-5
-4
-4
-4
-3
-1
5
9
2
-1
11
19
16
14
15
17
20
24
29
34
38
41
44
51
59
63
65
70
76
80
83
86
89
101
114
108
99
99
98
96
90
84
78
72
65
58
51
45
39
32
25
21
16
9
4
4
2
-4
-8
-11
-12
-11
-12
-18
-17
-12
-12
-16
-14
-8
-3
1
2
2
6
11
13
15
16
16
11
6
3
0
3
5
-3
-10
-9
-8
-11
-14
-17
-20
-19
-18
-19
-18
-13
-12
-17
-20
-20
-18
-14
-13
-15
-16
-17
-18
-18
-21
-25
-22
-17
-21
-27
-23
-17
-18
-21
-20
-16
-20
-24
-23
-22
-22
-22
-21
-20
-21
-22
-22
-22
-21
-21
-24
-26
-25
-20
-11
10
44
47
21
-27
-93
-150
-202
-190
-145
-111
-81
-70
-64
-73
-87
-97
-107
-92
-73
-63
-72
-47
-42
-34
-26
-16
-8
-4
0
-2
-4
-3
-2
0
2
3
4
2
1
5
8
5
7
13
15
12
13
18
20
21
23
25
28
31
37
44
46
46
52
59
65
71
79
86
91
96
97
99
111
122
118
114
116
118
116
112
105
98
92
85
77
70
64
56
48
39
30
24
20
17
15
10
4
1
-1
-3
-5
-8
-11
-12
-13
-10
-5
1
8
10
12
15
18
16
14
12
10
9
8
8
8
5
1
-3
-6
-4
-4
-9
-12
-15
-15
-12
-10
-10
-9
-7
-6
-7
-6
-1
-5
-12
-11
-7
-8
-11
-12
-12
-12
-12
-7
-4
-12
-20
-16
-12
-14
-16
-15
-14
-15
-15
-11
-9
-14
-18
-16
-14
-15
-16
-16
-16
-17
-18
-17
-13
-8
0
9
32
62
28
-28
-92
-157
-182
-200
-170
-133
-106
-79
-82
-86
-94
-102
-102
-100
-81
-63
-54
-45
-38
-31
-23
-16
-8
-2
0
1
-2
-4
-2
1
3
4
5
6
7
9
11
13
15
16
16
18
21
22
23
25
27
31
35
37
40
50
60
62
64
73
81
89
96
95
96
106
114
116
121
131
137
133
130
131
130
125
118
110
103
97
87
76
67
59
50
41
35
29
26
23
12
0
-2
-2
-3
-2
-6
-6
-9
-12
-6
0
-7
-12
-8
-4
-4
-4
-3
0
8
15
18
19
16
14
14
12
8
7
9
7
2
-2
-6
-10
-13
-16
-19
-24
-29
-27
-23
-22
-22
-22
-23
-25
-26
-26
-26
-24
-22
-18
-15
-24
-32
-28
-24
-26
-27
-22
-19
-24
-28
-29
-29
-25
-24
-28
-30
-30
-29
-27
-26
-27
-28
-29
-30
-30
-28
-25
-26
-29
-32
-35
-35
-33
-30
-26
5
34
28
15
-50
-116
-181
-225
-179
-137
-109
-83
-66
-57
-67
-79
-93
-96
-82
-68
-55
-49
-51
-47
-38
-28
-18
-14
-13
-10
-7
-6
-6
-6
-6
-5
-3
-1
1
2
2
4
6
3
0
11
20
13
9
15
20
21
24
31
36
37
41
49
55
59
66
75
83
90
95
98
101
104
108
111
117
124
123
119
116
113
110
107
97
87
82
77
67
58
51
44
40
35
25
15
7
0
3
5
-1
-7
-12
-16
-17
-18
-16
-14
-14
-14
-14
-14
-14
-14
-13
-12
-11
-8
-5
-5
-7
-4
2
-3
-12
-10
-5
-3
-1
-2
-6
-7
-8
-7
-6
0
6
3
2
14
28
44
41
-13
-70
-136
-187
-217
-214
-167
-124
-86
-61
-47
-51
-72
-89
-104
-93
-68
-62
-65
-63
-59
-46
-31
-26
-23
-19
-15
-14
-14
-14
-12
-14
-16
-14
-12
-9
-6
-6
-6
-3
0
0
1
4
6
8
12
18
23
26
29
32
43
59
63
58
64
78
84
88
95
102
106
109
115
121
122
122
115
107
104
102
95
88
77
68
62
55
47
39
33
26
17
9
5
1
-4
-9
-13
-16
-14
-14
-18
-21
-23
-23
-21
-20
-20
-22
-26
-25
-20
-19
-21
-22
-22
-22
-22
-22
-23
-24
-24
-24
-24
-24
-24
-24
-24
-23
-22
-22
-22
-22
-22
-19
-18
-24
-27
-24
-22
-21
-20
-23
-20
-12
-13
-24
-27
-24
-22
-23
-24
-23
-22
-21
-20
-19
-20
-23
-24
-25
-22
-26
-21
-26
-24
-22
-26
-30
-25
-20
-19
-18
-13
-10
-11
-12
-13
-14
-16
-18
-19
-21
-26
-27
-24
-25
-31
-32
-28
-32
-41
-42
-39
-37
-35
-34
-35
-30
-23
-24
-27
-26
-23
-24
-26
-27
-28
-28
-28
-28
-28
-28
-28
-25
-23
-29
-33
-28
-25
-28
-30
-28
-26
-26
-26
-27
-27
-24
-22
-22
-22
-23
-27
-32
-34
-35
-32
-26
-10
7
31
56
-2
-67
-133
-198
-181
-163
-138
-114
-95
-78
-80
-85
-102
-114
-104
-93
-79
-67
-58
-50
-43
-35
-27
-20
-15
-12
-12
-9
-3
-2
-6
-8
-8
-8
-7
-5
-3
-2
-2
-2
-1
3
7
8
8
9
8
11
14
17
20
22
24
27
32
41
48
46
47
56
64
71
77
80
84
89
95
101
106
112
116
120
120
117
114
111
107
103
96
88
86
86
75
61
57
53
44
36
31
26
21
16
14
12
10
8
5
2
2
2
1
0
2
4
3
3
7
11
13
18
26
26
17
15
19
18
14
11
9
8
8
7
5
4
3
2
1
-1
-4
-5
-6
-7
-8
-5
-2
-3
-4
-4
-4
-3
-2
-2
-3
-8
-10
-5
-4
-10
-14
-13
-13
-15
-15
-13
-12
-13
-14
-13
-14
-19
-17
-11
-13
-17
-18
-17
-16
-15
-14
-14
-18
-20
-17
-14
-18
-21
-11
3
35
51
9
-40
-105
-164
-207
-216
-166
-124
-96
-78
-73
-77
-91
-99
-102
-93
-73
-59
-48
-42
-38
-27
-15
-14
-17
-10
0
-1
-5
-5
-3
-2
-2
-1
0
-1
-2
1
4
5
6
5
4
7
10
14
16
18
20
22
27
35
40
41
44
49
58
68
75
80
86
92
98
104
107
109
115
123
124
124
124
125
120
112
103
94
92
89
75
62
57
50
35
24
21
16
7
0
-2
-6
-12
-16
-17
-18
-21
-22
-21
-20
-20
-20
-20
-20
-20
-19
-17
-16
-16
-16
-16
-13
-9
-5
-1
5
0
11
10
7
4
-2
-8
-10
-12
-13
-15
-20
-24
-23
-23
-28
-32
-34
-36
-35
-34
-33
-31
-28
-27
-30
-32
-31
-28
-25
-26
-29
-30
-30
-32
-35
-35
-33
-32
-33
-34
-34
-37
-40
-39
-38
-32
-26
-29
-32
-35
-38
-35
-32
-31
-30
-30
-30
-31
-33
-36
-38
-40
-40
-36
-22
2
22
39
5
-61
-127
-192
-195
-173
-149
-125
-91
-55
-50
-51
-73
-97
-94
-88
-75
-62
-61
-60
-51
-44
-42
-39
-31
-23
-19
-16
-18
-20
-18
-16
-16
-16
-15
-14
-13
-11
-8
-6
-5
-3
0
2
1
3
8
10
11
16
23
24
24
33
43
45
44
54
60
68
76
83
90
89
88
91
95
100
104
106
108
108
106
100
94
89
82
73
69
71
63
47
40
40
34
25
16
7
3
1
-4
-11
-12
-12
-13
-15
-17
-19
-19
-18
-18
-18
-14
-10
-10
-10
-11
-12
-11
-10
-8
-6
-5
-4
-4
-5
-8
-8
-2
-1
-7
-9
-6
-3
-1
1
5
4
0
4
12
29
48
56
61
5
-60
-126
-191
-177
-158
-137
-115
-91
-70
-72
-77
-96
-111
-106
-99
-86
-75
-69
-59
-44
-32
-25
-16
-4
0
-7
-7
-1
2
2
2
2
4
8
10
10
10
10
14
21
22
22
25
29
30
30
40
48
51
54
60
67
74
81
90
99
104
109
114
119
124
130
137
142
141
139
136
132
128
121
112
104
97
88
79
71
63
55
48
40
32
26
21
20
20
12
3
3
4
3
2
2
2
2
2
2
2
1
0
-3
-6
-2
0
-2
-4
-3
-2
-4
-6
-6
-6
-5
-4
-5
-5
-3
-4
-8
-11
-13
-10
-5
-7
-11
-12
-12
-12
-11
-11
-14
-15
-16
-15
-14
-16
-18
-14
-10
-14
-18
-17
-16
-17
-17
-14
-14
-19
-20
-14
-8
-3
0
1
2
1
-1
-3
-7
-12
-14
-13
-15
-19
-22
-25
-26
-27
-28
-28
-33
-28
-39
-38
-38
-38
-36
-34
-27
-22
-28
-31
-26
-22
-23
-24
-25
-26
-26
-26
-27
-28
-28
-28
-28
-27
-25
-25
-27
-28
-27
-26
-27
-26
-23
-25
-29
-25
-19
-21
-25
-29
-33
-32
-30
-32
-34
-21
-7
23
41
-2
-50
-115
-171
-201
-210
-169
-133
-108
-92
-92
-96
-106
-112
-111
-99
-79
-66
-57
-51
-44
-36
-27
-20
-14
-10
-7
-5
-3
-2
-2
-2
-3
-3
0
0
0
-1
-2
0
2
3
4
5
7
11
14
12
11
15
18
19
21
25
30
37
41
43
48
55
61
67
72
76
83
90
96
102
108
115
117
119
122
125
122
126
113
110
102
94
87
79
69
59
53
47
41
35
29
22
15
10
10
9
6
3
-2
-3
0
1
-1
-3
-5
-4
0
4
7
12
18
20
20
22
25
22
17
15
13
12
12
7
2
7
11
-1
-12
-10
-8
-8
-8
-11
-14
-15
-14
-5
-2
-8
-11
-8
-7
-10
-12
-11
-11
-13
-15
-17
-18
-19
-20
-19
-18
-18
-18
-17
-20
-25
-26
-27
-22
-14
-19
-24
-27
-30
-27
-24
-25
-26
-27
-28
-30
-32
-33
-34
-32
-24
-6
16
43
27
-39
-104
-170
-198
-197
-177
-145
-110
-73
-62
-61
-75
-96
-99
-97
-83
-68
-64
-61
-50
-60
-32
-26
-20
-14
-17
-20
-17
-14
-12
-10
-11
-12
-12
-11
-7
-4
-4
-4
-3
-2
-2
-1
2
5
7
12
19
22
21
23
28
33
38
47
56
60
63
69
75
85
95
99
102
105
108
111
114
116
118
116
113
106
99
93
86
79
71
61
54
55
48
30
21
23
18
7
1
-1
-2
-3
-6
-10
-15
-20
-18
-12
-11
-13
-17
-21
-20
-17
-16
-16
-9
-2
3
8
6
4
4
4
2
-1
-5
-8
-10
-12
-12
-13
-17
-20
-21
-24
-31
-31
-25
-25
-31
-33
-30
-25
-20
-22
-28
-28
-25
-25
-27
-27
-25
-24
-23
-24
-22
-25
-22
-24
-26
-27
-28
-26
-24
-25
-26
-27
-28
-27
-26
-25
-24
-22
-20
-21
-22
-21
-20
-20
-22
-28
-29
-26
-21
-16
1
22
39
54
6
-59
-125
-190
-184
-168
-141
-113
-83
-54
-61
-69
-86
-102
-97
-90
-74
-60
-51
-43
-35
-29
-24
-18
-9
-3
0
2
1
1
3
5
7
7
4
6
13
15
13
12
11
14
19
19
17
20
25
26
27
32
38
40
42
46
50
54
59
66
73
78
84
93
102
110
116
117
120
126
131
135
136
131
124
116
111
108
101
93
84
73
68
63
55
46
40
35
27
19
16
13
12
12
11
8
2
-4
-5
-6
-6
-6
-7
-8
-7
-6
-5
-4
-6
-7
-1
1
-2
-3
0
2
2
2
1
0
1
2
2
1
-1
-2
-3
-4
-4
-4
-5
-9
-13
-13
-11
-15
-20
-9
4
37
60
11
-41
-106
-166
-207
-228
-188
-151
-120
-100
-98
-98
-104
-110
-115
-108
-86
-73
-65
-56
-45
-34
-24
-14
-5
-2
-1
2
5
5
3
2
3
10
17
13
6
13
20
20
20
26
32
28
25
31
36
39
43
49
55
58
63
71
79
86
96
109
116
116
120
127
134
141
146
149
150
149
144
138
131
124
119
115
107
99
85
98
64
58
50
42
37
31
24
18
14
10
8
6
5
4
3
2
2
1
-3
-4
1
5
7
6
0
-1
1
2
2
1
-1
-2
-1
0
-1
-2
-3
-8
-13
-14
-13
-5
2
-4
-10
-10
-10
-9
-8
-11
-14
-13
-12
-13
-14
-16
-17
-14
-14
-20
-22
-16
-11
-9
-6
-1
2
1
-1
-3
-6
-10
-12
-13
-17
-21
-22
-23
-24
-24
-31
-39
-37
-32
-36
-40
-41
-42
-39
-36
-31
-26
-29
-32
-30
-28
-28
-28
-30
-32
-31
-30
-29
-27
-24
-26
-34
-33
-22
-21
-27
-30
-30
-28
-23
-24
-27
-28
-27
-26
-27
-28
-29
-29
-30
-31
-36
-39
-42
-40
-35
-8
17
33
31
-34
-100
-165
-205
-190
-170
-141
-112
-82
-67
-70
-80
-98
-101
-90
-78
-65
-59
-57
-46
-32
-28
-27
-22
-15
-14
-14
-10
-5
-10
-17
-12
-6
-7
-8
-7
-6
-6
-6
0
4
3
2
2
3
7
10
9
10
18
22
21
22
26
29
31
36
43
52
62
67
69
74
80
85
89
94
99
104
109
112
115
115
112
109
106
98
90
84
77
70
63
56
49
42
34
27
20
14
8
3
0
1
0
-5
-8
-8
-8
-9
-12
-16
-16
-13
-12
-11
-10
-10
-6
-1
1
3
4
4
1
4
-7
-10
-13
-16
-15
-14
-17
-20
-16
-14
-25
-34
-31
-29
-33
-35
-29
-27
-30
-32
-35
-34
-30
-29
-31
-33
-35
-36
-37
-38
-37
-36
-37
-38
-38
-36
-33
-37
-43
-40
-35
-35
-36
-38
-40
-41
-42
-40
-38
-38
-38
-37
-36
-37
-38
-36
-35
-40
-44
-45
-39
-23
1
33
13
-53
-118
-184
-213
-221
-193
-147
-109
-74
-60
-52
-65
-83
-93
-101
-87
-71
-64
-56
-54
-52
-42
-31
-22
-14
-15
-16
-14
-12
-12
-12
-10
-8
-7
-5
-1
0
-6
-9
-4
-1
2
4
5
6
6
7
9
13
18
23
27
30
33
41
49
53
57
64
58
79
86
90
94
99
104
108
112
112
112
112
112
112
110
103
94
83
76
74
66
51
41
34
27
21
19
21
15
4
-2
-5
-6
-7
-8
-7
-7
-9
-10
-10
-9
-7
-3
0
2
4
9
14
22
26
14
4
7
10
9
8
4
2
0
-2
-4
-7
-11
-15
-17
-18
-18
-19
-21
-19
-12
-11
-13
-17
-21
-17
-10
-11
-15
-16
-16
-16
-15
-15
-18
-16
-14
-15
-16
-18
-20
-16
-13
-19
-24
-22
-20
-18
-16
-18
-20
-18
-16
-15
-15
-18
-19
-16
-18
-26
-26
-19
-16
-16
2
28
44
57
7
-58
-124
-189
-181
-163
-141
-162
-99
-80
-87
-94
-104
-110
-95
-81
-73
-64
-55
-46
-35
-25
-15
-8
-7
-6
-5
-4
-1
0
0
1
3
4
3
3
5
6
5
5
7
9
11
14
17
20
23
26
29
36
42
42
42
49
56
59
63
70
77
83
88
90
95
105
113
117
122
128
131
128
126
126
125
122
117
111
105
98
89
79
73
68
58
48
39
30
22
15
14
15
11
4
4
4
-1
-6
-1
4
6
8
10
12
10
7
3
0
-1
-1
2
4
4
4
5
6
5
3
1
1
4
1
-7
-7
-2
-3
-7
-8
-8
-8
-8
-9
-11
-12
-12
-12
-10
-14
-18
-19
-20
-24
-28
-30
-32
-29
-21
-3
16
35
24
-42
-107
-173
-204
-195
-175
-145
-113
-78
-64
-65
-82
-108
-111
-104
-88
-68
-64
-64
-51
-34
-33
-35
-25
-13
-12
-12
-11
-10
-10
-10
-7
-4
-6
-7
-2
1
-3
-5
0
4
4
4
4
10
26
32
27
27
33
40
47
53
58
64
70
78
87
96
104
109
113
117
121
126
131
131
128
125
122
117
111
98
86
83
78
64
53
49
43
33
24
15
8
3
-1
-4
-6
-3
-5
-11
-14
-13
-11
-8
-8
-12
-12
-9
-8
-8
-9
-11
-8
-3
-9
-17
-14
-18
-11
-14
-11
-8
-10
-12
-15
-18
-19
-20
-19
-18
-19
-20
-21
-22
-22
-22
-24
-26
-25
-23
-20
-16
-10
-8
-9
-10
-11
-12
-13
-16
-19
-22
-25
-27
-29
-31
-33
-35
-37
-36
-34
-36
-38
-39
-40
-37
-34
-35
-36
-34
-32
-33
-34
-34
-33
-30
-31
-39
-43
-39
-36
-37
-38
-37
-36
-36
-36
-37
-38
-38
-38
-39
-40
-39
-38
-38
-38
-39
-40
-39
-38
-38
-43
-48
-48
-48
-46
-42
-27
-10
13
14
-51
-117
-182
-221
-204
-183
-153
-119
-81
-57
-50
-56
-75
-89
-98
-94
-79
-68
-59
-58
-61
-52
-39
-35
-33
-28
-23
-22
-22
-22
-22
-20
-18
-19
-20
-17
-14
-14
-14
-13
-12
-10
-8
-9
-10
-10
-9
-5
-1
2
4
4
6
11
15
18
22
26
31
36
42
48
56
66
68
67
72
81
85
89
90
90
94
98
90
82
82
82
74
68
62
57
51
46
44
38
25
16
15
13
10
6
0
-4
-4
-6
-10
-11
-8
-8
-12
-10
-4
-5
-9
0
13
12
7
10
15
14
11
10
8
6
4
3
2
3
4
1
-2
-3
-5
-9
-12
-14
-16
-14
-10
-5
-3
-7
-10
-10
-10
-9
-8
-9
-10
-11
-13
-15
-16
-15
-14
-15
-16
-15
-17
-21
-18
-13
-16
-12
-22
-22
-20
-18
-22
-26
-22
-18
-19
-20
-18
-16
-18
-20
-21
-22
-24
-23
-15
3
32
46
45
8
-58
-123
-189
-186
-146
-119
-98
-79
-62
-69
-83
-94
-104
-91
-74
-60
-47
-44
-42
-27
-12
-9
-6
-2
2
4
6
6
6
9
12
11
10
9
9
12
14
13
14
18
21
23
23
21
20
21
26
34
37
39
45
52
55
57
63
69
76
83
87
92
98
104
109
114
115
116
120
124
123
123
128
128
114
102
95
88
83
76
64
56
49
42
34
26
18
11
5
-1
-6
-8
-8
-11
-17
-18
-18
-18
-18
-15
-11
-10
-10
-3
2
0
-2
-2
-2
-6
-10
-13
-16
-15
-14
-15
-17
-20
-22
-24
-26
-28
-30
-30
-30
-31
-30
-26
-23
-21
-24
-30
-30
-26
-24
-24
-24
-23
-22
-22
-22
-21
-23
-27
-23
-18
-19
-20
-21
-22
-23
-24
-23
-22
-21
-20
-21
-22
-18
-16
-18
-20
-20
-20
-19
-20
-25
-29
-31
-29
-23
-8
11
32
52
10
-55
-121
-186
-187
-174
-153
-130
-107
-83
-87
-94
-106
-118
-105
-92
-73
-56
-57
-55
-40
-27
-22
-17
-12
-8
-7
-6
-5
-4
-5
-6
-5
-4
-4
-2
2
4
4
4
3
3
5
6
6
9
13
14
15
20
25
30
26
39
42
47
52
57
64
81
96
92
89
96
103
109
114
116
118
120
121
118
116
113
107
95
87
81
74
65
57
49
39
29
20
12
6
-1
-3
-5
-10
-15
-16
-17
-21
-24
-19
-14
-20
-26
-23
-20
-18
-16
-16
-15
-11
-8
-4
-1
3
6
7
7
3
0
0
-1
-4
-7
-9
-11
-13
-14
-14
-19
-26
-29
-31
-31
-29
-25
-21
-23
-27
-27
-24
-22
-20
-24
-28
-27
-26
-28
-30
-30
-30
-31
-32
-33
-34
-32
-30
-32
-34
-34
-32
-25
-25
-31
-33
-31
-27
-22
-22
-25
-26
-26
-25
-23
-26
-33
-34
-35
-33
-29
-6
-28
37
53
-12
-78
-143
-197
-171
-146
-123
-97
-67
-44
-47
-56
-77
-87
-76
-66
-56
-50
-51
-47
-37
-31
-28
-23
-18
-16
-15
-11
-6
-7
-11
-9
-5
-5
-7
-6
-3
-2
-1
2
4
6
8
10
12
16
20
17
16
26
34
35
36
40
44
51
58
63
67
71
77
83
89
97
100
101
103
107
108
107
106
106
100
92
87
83
75
67
59
51
50
50
38
26
22
18
11
4
2
0
-4
-8
-9
-10
-11
-13
-16
-17
-14
-14
-19
-18
-9
-7
-13
-12
-4
3
8
9
7
8
13
12
9
6
3
-1
-5
-6
-5
-10
-4
-17
-16
-18
-20
-23
-26
-27
-28
-27
-26
-21
-18
-19
-20
-19
-19
-25
-23
-11
-27
-77
-135
-201
-266
-332
-397
-463
-508
-543
-574
-604
-609
-604
-589
-573
-535
-493
-446
-398
-368
-339
-289
-239
-190
-142
-108
-75
-46
-19
4
27
51
70
70
71
78
83
86
88
88
93
104
110
109
112
120
126
130
138
148
155
160
172
186
199
211
222
232
249
266
283
299
314
330
346
363
379
395
404
414
429
442
442
442
439
435
431
424
412
399
386
372
356
336
310
290
275
255
233
210
188
169
153
135
117
103
91
83
76
63
50
40
31
28
30
19
14
16
18
14
10
9
8
5
3
8
11
6
4
11
14
8
3
0
-4
-9
-9
-3
-4
-12
-14
-10
-10
-13
-14
-15
-16
-17
-18
-19
-20
-21
-22
-22
-23
-25
-26
-26
-27
-28
-25
-22
-25
-28
-27
-26
-23
-21
-26
-30
-28
-26
-25
-25
-28
-30
-32
-32
-28
-14
8
27
42
7
-59
-125
-190
-193
-173
-148
-123
-102
-83
-85
-91
-106
-121
-113
-102
-86
-70
-64
-57
-46
-35
-25
-16
-13
-10
-9
-8
-8
-7
-3
0
0
1
4
6
6
6
6
7
9
12
16
18
18
20
25
26
26
30
35
37
39
47
55
60
56
69
72
77
82
89
96
100
104
108
112
112
112
111
109
106
103
97
92
87
82
77
71
65
57
48
40
31
26
23
17
10
8
7
2
-3
-2
1
-5
-13
-8
-1
-7
-14
-11
-8
-10
-12
-8
-4
-3
-2
-1
0
-1
-2
-3
-4
-2
-2
-7
-9
-6
-4
-4
-5
-7
-9
-11
-12
-12
-14
-17
-12
-4
-10
-20
-19
-15
-14
-15
-17
-19
-21
-24
-20
-16
-20
-24
-22
-20
-17
-13
-8
-4
-4
-4
-4
-6
-13
-18
-20
-21
-18
-19
-26
-28
-24
-24
-30
-36
-43
-44
-40
-40
-43
-42
-39
-35
-31
-33
-37
-37
-35
-34
-34
-35
-36
-33
-30
-37
-43
-35
-29
-37
-43
-36
-31
-37
-42
-41
-40
-38
-36
-36
-36
-36
-36
-37
-38
-39
-40
-41
-43
-45
-48
-51
-55
-59
-42
-18
8
35
-20
-85
-151
-216
-205
-192
-163
-133
-95
-60
-58
-59
-82
-99
-91
-82
-74
-66
-59
-52
-43
-37
-34
-31
-27
-23
-20
-18
-18
-17
-15
-14
-14
-14
-15
-15
-13
-10
-7
-6
-7
-1
7
0
-9
-6
0
2
4
5
6
9
12
15
19
24
28
31
36
43
49
53
57
61
67
74
78
81
84
88
91
94
95
92
88
85
81
76
66
55
52
51
46
41
31
21
15
20
2
-4
-4
-4
-9
-14
-16
-18
-22
-26
-21
-18
-21
-24
-24
-24
-22
-20
-18
-14
-7
-5
-7
-3
8
10
6
3
1
-3
-8
-10
-11
-12
-12
-16
-21
-23
-25
-26
-25
-31
-38
-35
-32
-37
-42
-37
-32
-32
-32
-35
-37
-33
-30
-34
-36
-38
-39
-36
-34
-35
-35
-32
-33
-39
-39
-34
-32
-33
-34
-35
-37
-39
-37
-33
-32
-32
-33
-35
-34
-31
-31
-34
-35
-36
-35
-34
-38
-40
-26
-9
19
28
-21
-75
-140
-186
-192
-182
-147
-110
-72
-52
-49
-59
-82
-96
-104
-98
-82
-74
-70
-64
-58
-51
-44
-36
-28
-24
-21
-20
-20
-19
-20
-18
-20
-16
-12
-13
-14
-13
-12
-12
-12
-11
-10
-8
-5
-2
0
0
1
4
7
12
16
20
24
30
36
43
49
54
58
62
68
74
80
85
86
87
88
89
95
101
93
84
83
82
74
66
66
64
50
38
36
32
24
16
9
4
2
-2
-7
-10
-8
-7
-9
-11
-14
-17
-19
-16
-9
-8
-12
-11
-7
-3
1
6
11
12
11
10
10
14
20
10
0
1
2
0
-2
-6
-10
-12
-14
-12
-11
-17
-22
-20
-18
-17
-16
-14
-13
-16
-16
-12
-9
-7
-9
-14
-16
-16
-16
-17
-15
-11
-14
-21
-22
-23
-24
-23
-21
-22
-21
-24
-22
-20
-17
-14
-19
-24
-22
-20
-21
-22
-24
-25
-21
-22
-36
-41
-31
-15
8
31
52
26
-40
-105
-171
-182
-162
-143
-123
-103
-83
-85
-94
-105
-116
-108
-95
-80
-65
-57
-50
-40
-30
-24
-17
-7
2
-4
-8
-5
-2
-1
0
1
3
6
7
4
2
3
7
13
15
12
12
16
18
19
22
26
30
33
38
43
48
53
62
73
74
73
85
100
105
110
117
124
