24
25
24
23
23
27
28
26
26
28
30
29
28
28
27
27
27
27
26
25
25
24
22
21
19
17
16
16
16
16
16
16
16
15
15
15
14
15
15
16
16
16
16
16
17
16
16
16
18
20
19
17
16
17
17
19
18
15
14
15
18
17
16
15
14
11
7
4
2
0
-1
0
2
6
8
7
6
8
11
13
14
13
12
12
13
11
10
10
11
11
8
6
6
8
9
10
11
12
14
16
17
17
19
21
21
20
20
20
22
24
29
35
40
38
28
13
-10
-41
-73
-98
-103
-95
-80
-64
-47
-30
-16
-6
2
9
16
20
22
23
23
23
23
23
23
24
24
23
23
24
24
23
22
22
22
23
22
21
21
21
22
24
24
24
24
23
24
25
27
26
25
25
26
26
26
27
27
26
24
24
24
23
24
24
23
21
21
20
19
18
18
19
17
16
15
15
14
12
12
12
12
11
11
11
11
12
13
13
13
14
15
15
15
15
17
17
17
16
16
16
17
17
17
17
17
18
18
19
19
19
17
13
9
6
4
2
2
3
6
7
8
10
12
14
18
21
21
20
18
17
17
17
17
16
17
18
19
19
19
19
20
21
22
21
21
20
21
20
20
20
20
19
20
22
24
28
33
37
33
23
10
-11
-38
-66
-91
-101
-100
-85
-66
-45
-24
-10
1
8
12
18
22
24
25
25
25
24
24
25
25
24
24
24
24
25
25
25
24
24
24
25
24
24
24
24
23
23
23
24
24
25
25
26
26
26
27
28
28
28
28
27
26
26
27
27
26
26
24
23
21
20
20
19
20
18
17
16
16
15
15
15
14
14
14
14
14
14
15
15
16
16
17
17
17
18
19
19
18
18
17
16
17
18
20
20
19
18
17
15
12
9
7
5
4
5
7
9
10
12
14
16
20
22
21
20
20
19
19
19
20
20
20
21
22
23
21
21
21
22
23
24
26
26
26
26
27
27
27
28
28
29
29
33
38
43
43
36
23
2
-26
-57
-83
-93
-89
-74
-55
-38
-21
-7
4
12
18
23
27
30
32
32
33
32
34
36
36
36
34
35
34
34
34
33
33
33
33
32
33
32
32
31
32
32
33
33
33
34
34
34
34
35
36
35
35
35
35
35
35
35
34
33
32
32
30
30
29
28
28
26
25
24
24
23
23
24
24
24
24
24
24
24
25
25
25
24
24
25
26
26
28
28
29
29
29
30
30
31
30
30
29
28
28
28
28
28
28
28
28
28
26
23
20
16
14
12
12
14
17
18
19
20
22
24
26
27
26
26
25
26
25
24
24
24
25
24
26
26
26
27
28
27
27
29
29
30
30
30
30
31
31
31
31
32
36
42
45
42
35
25
8
-15
-43
-68
-82
-83
-69
-50
-30
-12
0
11
18
22
27
30
31
31
32
32
31
31
30
30
30
29
30
30
30
29
29
29
28
28
28
27
26
26
26
26
26
27
28
28
27
27
27
27
27
28
28
28
28
28
28
28
27
27
27
26
25
24
23
21
20
19
17
16
15
13
12
11
11
12
12
12
12
12
11
12
12
13
13
13
13
13
12
13
14
14
14
14
15
15
15
15
15
15
15
14
14
15
14
14
14
15
14
11
8
5
3
1
0
0
2
3
5
6
7
9
11
15
17
17
17
15
15
15
15
15
15
16
16
17
17
18
17
18
18
20
20
20
21
22
22
22
22
22
22
21
22
24
28
33
35
31
21
9
-11
-40
-70
-93
-101
-91
-74
-50
-29
-15
-5
2
7
10
14
19
21
23
24
24
24
23
23
23
23
23
22
22
22
22
21
21
21
20
21
21
21
20
20
20
20
20
20
20
19
19
20
20
20
20
21
20
20
20
21
22
22
21
21
21
20
19
18
18
16
14
13
12
11
11
11
10
9
8
8
9
9
9
9
10
10
11
11
11
11
12
13
13
12
11
11
11
12
13
12
13
13
12
12
12
13
13
12
9
6
4
1
0
-2
-1
0
0
2
3
4
5
8
11
12
12
12
11
10
10
10
10
10
10
11
12
13
13
12
12
13
14
14
15
17
17
18
19
19
20
20
21
20
22
24
29
35
38
37
30
17
-4
-35
-68
-91
-98
-88
-69
-46
-25
-8
1
7
12
16
20
23
25
26
27
27
28
27
27
27
28
27
27
28
27
27
26
27
27
27
26
25
25
25
24
24
24
24
25
25
26
26
27
27
27
28
28
28
27
27
26
27
27
26
25
25
25
24
23
21
21
20
19
17
16
17
16
15
15
15
15
15
14
13
13
13
12
13
13
14
13
13
14
14
15
15
15
14
14
14
15
15
13
13
14
14
13
14
15
15
15
15
15
13
11
9
6
3
0
0
0
0
2
4
5
6
7
10
11
12
12
12
11
10
10
9
8
8
9
9
9
9
9
10
11
12
13
14
14
15
16
17
16
17
17
16
15
16
19
23
28
28
25
18
5
-16
-49
-80
-99
-100
-84
-65
-47
-30
-16
-6
0
3
8
12
15
16
16
17
16
17
18
18
17
17
17
16
16
16
16
16
16
16
17
16
16
16
16
16
15
15
14
14
14
15
15
15
15
15
14
13
13
14
14
14
14
14
14
14
13
13
12
12
11
10
9
8
7
6
5
5
4
4
4
3
4
4
4
2
3
3
4
4
4
4
4
4
4
4
3
4
4
4
4
4
3
3
2
3
3
3
3
3
2
2
2
1
-1
-5
-7
-9
-12
-14
-14
-13
-10
-9
-8
-7
-5
-3
0
1
1
0
0
0
0
0
0
-1
-1
0
0
1
2
2
2
3
3
3
3
3
3
3
3
3
3
2
2
3
5
8
13
19
20
14
1
-18
-44
-78
-106
-120
-118
-102
-85
-64
-47
-34
-23
-15
-11
-7
-3
0
1
2
3
3
3
3
4
5
5
5
5
5
5
5
5
6
5
5
6
5
6
6
7
7
7
8
8
8
8
9
9
9
9
10
10
9
10
10
10
10
10
9
8
8
7
7
6
5
4
2
0
0
0
-1
-3
-3
-3
-3
-4
-4
-5
-4
-4
-4
-3
-3
-3
-2
0
-1
0
0
1
0
0
0
0
0
0
0
1
2
3
4
4
2
0
-3
-4
-6
-8
-10
-11
-10
-9
-6
-3
-3
-2
1
4
5
5
4
3
2
1
1
2
2
2
3
2
3
3
3
3
4
5
6
7
7
7
8
8
8
9
9
9
9
10
13
18
24
28
25
14
-3
-28
-61
-90
-104
-104
-88
-70
-50
-31
-20
-11
-5
0
4
8
11
12
13
14
14
15
14
15
16
16
16
16
17
17
17
16
15
15
15
17
17
17
17
17
17
17
17
17
17
16
17
18
19
19
18
20
20
21
20
21
21
20
20
20
19
18
17
16
14
14
15
14
11
11
11
12
11
10
11
12
12
12
12
12
13
13
14
13
12
11
11
12
13
14
13
13
13
14
15
15
14
13
13
13
12
13
13
13
13
14
14
13
13
10
8
6
3
1
0
0
2
4
5
6
9
11
13
14
15
14
13
12
11
10
10
9
8
8
8
8
8
9
9
9
10
10
11
12
13
13
13
14
14
14
14
14
16
18
23
28
27
21
6
-15
-46
-76
-101
-109
-104
-89
-71
-50
-31
-17
-8
-1
4
9
14
17
18
18
19
20
20
19
19
20
19
19
19
19
19
19
18
18
18
17
16
16
16
16
16
16
15
15
15
15
14
14
14
14
13
13
14
14
15
16
16
15
15
16
15
14
14
14
13
11
10
9
8
7
7
6
5
5
5
5
5
4
4
4
4
3
3
4
4
4
4
4
3
3
3
4
5
5
5
5
4
3
3
3
5
4
5
5
3
0
-2
-5
-8
-11
-11
-11
-9
-7
-6
-5
-3
-1
4
6
6
6
5
4
4
3
3
3
3
3
4
4
4
4
5
5
6
7
8
8
9
10
10
9
9
9
9
9
9
10
14
19
23
21
12
0
-20
-48
-78
-102
-116
-116
-103
-87
-67
-47
-31
-19
-11
-6
-1
3
8
11
12
13
13
13
13
13
13
13
13
13
14
14
14
13
13
13
14
14
14
14
14
15
14
13
13
14
15
15
16
17
19
19
19
20
20
20
20
21
21
21
21
21
20
19
19
19
17
16
15
15
15
15
14
14
14
13
13
14
13
14
15
14
14
14
13
14
15
15
15
15
15
15
16
16
16
17
18
17
17
16
16
16
15
15
15
16
15
15
14
11
8
5
3
0
0
1
3
5
5
6
8
10
12
14
14
14
13
13
13
13
12
12
12
12
12
12
12
12
13
14
15
15
16
17
18
18
18
19
19
17
17
18
19
22
24
30
32
30
23
11
-8
-34
-61
-84
-99
-97
-87
-70
-52
-34
-19
-7
0
3
8
13
15
17
19
19
19
19
19
21
22
21
21
22
22
21
21
21
20
20
20
19
18
16
16
18
18
17
17
17
17
18
18
19
19
20
21
21
21
21
22
22
21
20
20
20
19
19
19
19
17
17
16
15
13
13
14
13
13
13
14
14
14
15
16
16
15
15
16
16
16
16
17
17
17
17
17
17
18
18
17
17
17
17
17
17
17
18
18
17
18
19
19
18
16
13
10
7
5
3
2
3
6
8
9
10
11
14
17
19
19
18
17
16
16
16
15
15
15
16
17
18
19
19
20
20
21
22
21
21
22
23
22
22
21
21
20
21
22
25
29
32
30
23
12
-4
-31
-59
-84
-96
-90
-77
-56
-36
-18
-6
0
5
9
12
16
19
19
19
19
19
19
18
18
17
16
15
16
16
16
15
16
16
16
16
16
15
14
14
15
14
14
14
15
15
15
15
16
16
17
17
18
19
19
20
19
19
19
19
19
18
17
16
15
14
13
11
10
9
8
7
6
6
6
6
6
6
6
5
5
6
6
6
7
7
7
7
7
8
9
9
9
9
10
10
10
10
10
10
10
10
9
7
3
0
-1
-4
-5
-4
-3
-1
0
1
2
3
5
8
9
8
7
8
7
7
7
7
7
8
8
8
7
7
7
7
8
8
10
11
12
12
12
12
12
13
13
13
14
18
24
27
27
21
10
-5
-28
-55
-81
-101
-104
-95
-76
-56
-37
-20
-9
-2
2
8
12
14
15
15
16
16
16
18
18
18
18
18
19
19
18
17
17
16
16
17
16
15
15
15
15
15
15
16
16
15
16
17
17
18
18
20
20
20
20
20
20
20
20
20
20
19
19
17
16
15
15
14
13
12
11
11
10
11
10
10
10
11
10
9
10
11
11
11
11
12
13
13
13
13
12
13
14
14
14
14
15
14
14
15
16
15
15
16
16
15
13
11
7
4
3
1
0
1
3
5
6
7
8
11
13
15
14
14
13
12
12
12
12
13
13
14
14
14
13
13
13
14
13
14
15
16
17
18
19
19
20
20
20
21
24
27
31
33
31
24
12
-5
-34
-64
-88
-96
-88
-72
-54
-34
-17
-4
2
8
13
16
17
18
18
18
19
20
21
20
19
19
19
19
19
20
20
19
19
19
18
17
16
15
15
14
15
15
16
15
15
16
16
16
16
17
18
18
18
19
19
18
19
20
20
19
19
19
19
18
16
16
15
14
13
14
13
12
12
12
12
12
13
13
13
13
13
13
13
14
14
14
13
14
14
14
14
14
14
13
13
14
14
14
14
14
15
16
16
16
18
18
18
16
13
11
9
7
4
4
4
6
8
9
9
10
13
15
18
20
20
19
18
18
18
18
19
19
19
19
19
18
19
19
20
20
20
21
22
22
23
24
24
24
23
23
23
23
25
29
35
38
35
26
12
-8
-37
-67
-88
-94
-84
-67
-45
-26
-11
-1
6
10
14
17
21
22
22
23
24
25
24
24
23
24
23
23
23
22
22
22
23
23
23
22
23
23
23
23
23
24
23
24
24
24
24
24
24
24
24
24
24
24
24
24
23
23
23
23
23
23
23
23
22
21
20
19
17
15
15
14
13
13
13
13
13
13
13
13
14
13
14
14
15
15
15
15
15
15
16
16
16
15
15
15
15
14
15
15
15
14
13
11
8
5
2
0
0
0
1
3
5
6
8
9
12
15
16
16
15
14
13
13
13
14
14
14
14
14
14
15
15
16
17
17
18
18
18
18
18
19
19
19
19
19
19
19
23
27
31
31
25
14
-4
-31
-62
-93
-107
-106
-89
-68
-46
-28
-13
-4
1
6
11
15
18
19
21
22
21
22
22
23
24
24
24
24
24
24
25
24
24
24
24
24
24
26
27
26
25
26
25
24
25
25
25
24
25
26
25
25
26
26
26
25
25
25
25
24
23
23
23
20
18
17
16
14
14
14
13
13
13
14
13
13
14
13
13
13
13
13
12
14
14
15
14
14
13
14
14
15
16
15
15
15
16
15
16
17
16
16
17
18
17
16
14
10
7
5
3
1
0
1
2
3
4
5
7
10
13
15
16
15
14
13
13
13
13
13
13
13
13
14
15
16
16
17
18
18
19
20
21
22
23
23
24
24
24
24
26
30
35
38
35
27
15
-3
-30
-61
-88
-99
-95
-78
-58
-38
-21
-9
0
7
11
15
18
21
22
21
21
21
22
22
23
22
22
22
22
21
21
21
22
22
21
20
20
21
21
21
21
20
21
21
22
22
23
23
23
23
23
23
23
23
24
24
24
23
23
23
22
22
21
20
18
17
16
15
13
11
11
10
10
9
9
10
9
10
9
10
10
10
11
11
10
10
10
10
10
10
11
12
14
14
13
12
10
11
11
11
11
11
12
12
13
12
11
8
5
2
0
-2
-3
-1
0
2
3
4
4
6
10
12
12
11
11
9
9
9
9
10
9
10
11
12
12
13
15
14
15
16
16
16
16
16
16
16
15
15
15
16
17
22
28
33
33
24
11
-10
-43
-77
-106
-115
-105
-89
-67
-47
-29
-15
-5
0
4
8
13
16
18
19
18
18
18
19
19
20
20
19
19
19
20
20
20
19
20
19
18
18
19
18
19
19
20
19
19
20
20
20
20
21
21
21
21
21
21
21
19
20
18
17
16
16
15
14
13
11
10
8
7
6
5
6
5
6
6
5
5
5
6
6
6
6
6
6
6
7
6
7
7
8
7
8
8
8
8
9
9
10
10
11
12
11
10
8
5
1
0
-1
-3
-4
-4
-2
0
1
2
3
6
9
11
12
12
11
10
10
10
10
10
10
10
9
10
9
8
8
8
9
9
9
9
10
10
10
11
12
11
11
12
12
15
19
25
27
23
10
-9
-36
-69
-97
-111
-109
-91
-70
-47
-30
-19
-9
-4
0
3
9
13
13
14
15
16
16
16
17
16
16
16
16
16
16
16
16
16
15
14
15
16
17
17
16
15
15
16
17
16
16
16
16
16
17
17
18
17
18
18
18
18
19
19
19
18
16
16
15
13
12
12
11
9
9
9
8
7
7
7
6
7
7
7
8
9
9
9
9
9
10
10
11
11
11
11
12
11
12
12
13
13
13
13
12
12
12
13
14
13
12
9
6
4
2
1
0
0
0
3
4
5
6
6
9
12
12
11
11
11
10
11
11
11
11
10
9
9
10
10
11
12
12
12
13
14
15
15
16
17
17
17
17
17
17
18
23
29
34
32
26
13
-8
-38
-70
-91
-94
-83
-64
-47
-31
-18
-7
2
7
11
15
18
19
20
22
23
22
23
23
23
23
22
22
22
22
20
21
19
19
19
19
18
17
17
16
16
16
16
15
14
15
16
16
15
16
17
17
17
16
16
17
17
16
16
16
15
15
14
14
13
12
11
9
8
7
6
6
6
6
7
6
5
6
6
6
7
8
8
8
8
8
8
8
9
9
10
10
10
10
10
9
9
9
9
7
7
6
5
5
6
6
6
6
5
3
0
0
-2
-3
-4
-4
-2
0
1
3
4
7
10
12
12
11
10
10
9
10
10
11
10
9
9
8
9
9
10
10
11
10
11
11
11
12
11
10
10
10
10
10
12
14
19
23
22
14
1
-19
-46
-75
-99
-110
-105
-92
-73
-53
-34
-21
-10
-2
3
7
12
15
17
17
18
19
18
19
20
20
21
21
22
20
20
19
20
19
18
18
18
18
17
18
18
18
18
18
18
18
18
18
19
19
19
20
20
20
20
21
21
21
22
22
21
21
20
20
19
18
17
16
15
14
13
13
12
12
11
11
10
10
9
10
10
9
10
11
11
11
11
12
11
11
11
11
12
11
11
12
12
12
12
12
12
13
14
14
13
11
8
5
2
0
-1
-2
-2
0
1
3
4
7
11
15
16
17
16
15
14
15
15
15
15
14
15
15
15
14
15
16
17
18
19
19
20
21
21
21
21
21
21
20
20
20
22
26
32
35
31
19
0
-27
-58
-85
-104
-107
-97
-81
-62
-39
-21
-9
-1
4
9
14
18
21
22
22
23
22
23
23
24
23
23
23
23
24
23
23
24
24
24
24
24
24
24
24
25
24
24
23
24
24
24
25
26
27
27
28
28
29
29
30
31
30
31
31
30
29
29
28
28
26
25
24
21
19
20
20
21
21
21
20
20
19
19
19
19
20
19
20
19
19
19
20
21
20
20
20
21
21
20
20
20
21
20
20
20
21
21
21
21
20
20
18
15
12
10
7
4
3
3
5
7
8
9
10
12
15
17
16
16
15
16
15
15
16
16
17
17
17
17
17
18
19
19
19
20
21
21
21
21
22
22
22
22
23
23
24
29
34
38
34
25
10
-12
-41
-73
-95
-100
-89
-71
-52
-33
-17
-4
3
9
13
17
19
19
19
20
19
19
20
20
20
19
20
20
20
20
19
19
19
20
20
20
19
19
19
19
20
20
20
19
20
20
19
19
19
19
19
19
19
19
19
19
20
20
20
19
19
19
18
17
15
14
12
11
10
10
10
9
10
10
10
10
10
10
10
9
9
10
9
11
11
12
12
13
13
13
13
13
13
12
13
12
12
12
11
10
10
10
9
10
11
11
10
8
6
3
0
-2
-4
-5
-4
-2
0
0
0
1
3
6
7
8
7
6
5
5
5
5
5
5
5
6
6
7
7
8
9
10
10
11
11
11
11
10
11
10
10
9
10
12
16
21
22
17
10
-2
-20
-44
-72
-93
-105
-101
-85
-67
-46
-29
-15
-6
-1
2
6
9
11
11
12
12
13
12
12
12
11
11
10
10
10
10
9
9
9
8
8
7
7
6
6
5
4
3
4
4
3
2
2
2
2
3
4
3
3
3
3
3
3
3
3
3
2
2
2
1
0
-1
-3
-4
-6
-6
-7
-7
-8
-8
-9
-9
-9
-9
-9
-9
-8
-7
-7
-6
-6
-5
-4
-3
-3
-2
-2
-1
-1
-1
0
0
0
0
0
0
0
0
0
0
-1
-2
-5
-8
-10
-11
-12
-11
-9
-7
-7
-6
-4
-2
0
2
2
2
1
0
0
0
0
0
0
0
0
0
0
0
0
1
2
3
4
5
5
6
7
7
7
7
7
7
8
10
14
19
21
17
7
-4
-24
-49
-75
-98
-108
-107
-92
-75
-54
-35
-23
-14
-7
-4
0
3
6
7
6
7
7
7
7
7
7
7
7
7
8
7
7
7
6
5
5
5
4
4
4
4
4
5
5
6
6
5
5
6
6
6
7
8
7
7
7
6
6
6
7
6
6
5
4
4
3
2
1
0
0
-1
-2
-2
-3
-3
-3
-3
-3
-2
-2
-1
-1
0
-1
0
0
0
0
0
1
0
0
0
0
0
0
0
1
2
2
3
3
2
2
2
2
1
0
-2
-5
-7
-9
-10
-9
-7
-5
-3
-3
-1
1
4
6
7
6
6
5
5
6
6
6
7
7
7
7
8
8
8
8
8
9
10
11
11
12
12
12
13
14
14
14
15
18
23
29
33
30
23
11
-7
-34
-64
-90
-104
-105
-90
-71
-47
-28
-15
-5
0
5
9
13
16
17
18
19
19
19
19
20
21
21
21
21
20
20
20
21
21
21
20
21
21
21
21
22
22
23
23
23
24
23
24
25
25
26
27
29
29
30
29
29
28
28
29
29
29
28
28
27
26
25
24
23
22
21
21
21
20
20
20
19
20
21
21
21
21
21
22
22
21
21
21
22
22
21
20
21
21
21
21
20
21
22
22
22
22
23
23
24
24
23
22
19
16
14
12
9
8
9
10
12
14
15
16
16
18
22
25
25
23
23
23
22
22
22
22
22
22
23
23
24
24
25
25
27
28
28
28
28
28
28
28
27
28
28
28
31
35
40
42
40
33
25
11
-12
-45
-74
-90
-88
-74
-53
-32
-13
0
9
14
18
22
25
27
28
29
29
29
29
30
29
29
29
29
29
28
28
28
28
28
27
28
26
26
26
25
26
27
27
26
26
25
25
25
25
25
25
25
25
26
25
25
25
26
26
26
26
26
24
23
23
22
21
20
20
19
18
18
17
16
16
16
17
17
17
17
18
19
18
19
19
20
20
21
21
20
19
19
19
19
19
19
20
19
18
18
17
17
17
18
17
17
17
15
12
8
6
3
1
0
2
4
6
7
8
10
12
15
17
18
17
17
17
16
15
15
15
14
15
15
16
16
17
18
19
20
21
23
24
24
24
25
25
24
24
24
24
25
28
33
37
37
29
15
-6
-36
-71
-97
-104
-92
-73
-49
-31
-16
-5
3
8
12
17
21
24
25
27
27
27
27
28
28
27
27
27
27
26
27
26
26
25
26
26
25
25
25
26
25
25
25
25
25
25
26
26
25
25
26
26
25
26
27
27
26
26
25
25
24
24
24
22
21
20
19
18
18
17
16
16
15
16
15
15
15
16
15
15
16
16
16
17
18
19
18
19
19
20
20
20
21
21
21
20
19
18
18
17
18
18
18
18
16
14
9
7
5
2
1
1
4
6
8
9
10
11
15
18
20
20
19
19
19
19
19
19
20
21
21
21
22
23
22
21
20
21
23
25
25
26
27
28
28
27
27
27
27
27
30
35
41
42
37
27
9
-20
-56
-88
-104
-98
-80
-57
-36
-20
-7
2
9
12
16
21
24
26
27
29
29
30
31
31
30
29
29
29
29
29
28
29
28
28
28
29
28
27
26
26
27
26
27
26
27
27
27
27
27
28
28
29
29
29
29
29
28
27
27
26
26
25
24
23
22
21
20
19
18
18
18
18
18
18
19
19
19
20
20
21
21
23
22
23
23
24
24
25
26
27
27
27
28
28
28
28
28
29
28
28
27
27
27
27
27
27
26
24
22
19
16
14
11
9
9
10
13
16
17
18
20
23
25
25
25
23
22
23
24
24
24
25
26
27
27
27
27
28
29
30
31
31
32
33
34
34
33
32
32
33
32
32
34
38
43
46
45
37
23
-2
-36
-66
-84
-85
-72
-56
-38
-21
-6
5
13
19
24
27
31
32
34
34
35
35
34
34
34
35
34
34
34
35
34
33
33
33
32
32
33
33
32
32
31
31
31
32
33
33
32
32
32
32
31
30
31
33
34
33
33
34
33
33
32
30
28
27
26
24
23
22
22
20
19
19
18
19
18
20
20
19
19
19
19
18
19
19
20
20
20
21
22
22
22
23
23
23
23
23
23
22
22
22
22
21
22
22
22
22
22
23
22
20
17
15
12
10
9
8
8
10
13
14
15
16
19
21
22
23
22
21
20
20
20
20
20
20
20
21
21
23
24
24
24
25
26
26
26
26
26
26
26
25
25
24
24
25
29
34
36
35
27
16
-1
-31
-62
-89
-101
-95
-83
-64
-44
-23
-6
4
11
16
20
25
27
30
31
30
30
30
29
28
28
27
27
25
25
24
24
23
23
24
24
24
24
24
24
24
25
24
24
24
25
25
25
26
26
26
25
25
25
24
25
24
25
24
24
24
23
22
21
21
19
17
16
15
14
12
12
11
10
10
10
9
9
10
10
9
9
9
10
10
11
11
11
12
12
12
12
12
12
12
12
11
11
11
10
10
10
10
10
8
5
3
0
-2
-5
-6
-5
-4
-3
-2
-1
0
2
5
7
6
5
5
4
3
3
3
4
4
5
6
5
6
7
9
9
9
10
10
10
10
11
11
12
12
12
12
12
12
14
19
24
27
24
13
-2
-27
-59
-87
-108
-113
-107
-91
-73
-52
-30
-16
-7
-2
1
6
11
14
15
15
16
17
17
17
17
17
17
16
16
16
16
15
15
14
14
14
14
13
12
12
12
12
11
11
12
12
12
12
13
14
14
14
13
13
13
12
13
13
12
12
11
11
10
9
8
7
5
3
2
2
1
1
1
1
0
0
0
0
0
0
0
-2
-1
0
0
0
0
0
1
1
1
1
2
2
2
3
4
4
4
3
3
3
3
4
4
3
3
2
0
-2
-6
-9
-11
-13
-12
-11
-9
-8
-6
-5
-4
-2
0
1
0
0
0
0
0
0
0
0
0
0
0
0
0
0
0
1
3
4
5
6
6
6
5
5
6
6
6
7
10
14
20
22
19
10
-1
-20
-49
-81
-107
-120
-112
-94
-73
-54
-38
-24
-14
-7
-2
3
7
8
9
10
11
12
12
12
12
11
11
11
11
11
11
10
9
10
9
9
8
8
9
8
8
7
8
7
7
7
8
9
9
10
9
10
11
12
11
11
11
11
11
10
9
8
8
7
6
4
3
1
0
0
0
-1
-1
-1
-2
-2
-1
0
-1
-1
-1
-2
-2
-1
-1
-1
-1
-1
-1
0
0
0
0
0
0
0
0
0
0
0
0
0
0
0
0
0
0
0
1
-1
-5
-8
-12
-13
-12
-11
-8
-6
-5
-4
-3
-1
1
3
5
3
3
3
4
3
3
4
3
4
4
5
5
6
7
8
9
8
9
10
10
9
10
10
9
9
9
10
12
17
24
27
23
13
-1
-24
-54
-86
-110
-114
-101
-79
-56
-37
-23
-13
-6
-2
1
6
9
11
12
12
13
12
12
12
12
13
12
13
13
13
13
13
13
13
14
14
14
13
14
14
15
16
16
18
17
18
17
18
18
18
19
19
19
19
19
19
18
19
19
19
19
19
17
17
16
15
13
11
10
10
9
8
7
7
7
6
5
5
5
5
5
5
5
6
6
7
7
7
7
8
7
7
8
10
9
9
9
10
11
10
10
10
10
10
9
7
2
0
-3
-6
-7
-7
-5
-3
-1
0
0
2
4
8
10
10
10
9
8
8
8
7
7
7
8
9
10
10
11
11
12
13
13
14
15
15
15
16
16
15
14
14
14
15
19
26
31
29
20
5
-17
-49
-83
-108
-112
-99
-76
-54
-33
-18
-6
0
3
7
12
15
17
18
19
20
19
19
19
20
20
21
21
20
20
19
18
17
17
17
17
17
17
17
16
17
17
17
17
18
17
17
17
19
20
19
19
19
18
18
17
17
17
16
15
15
14
12
11
11
10
8
7
6
5
4
4
5
5
4
4
4
4
3
5
5
4
4
6
7
7
8
8
8
8
9
9
10
10
11
12
11
11
11
11
12
13
15
15
14
13
11
9
5
3
0
-1
-3
-2
0
2
3
3
5
9
12
15
15
14
13
13
13
12
12
11
11
12
11
12
12
13
13
14
15
15
16
17
18
18
16
16
15
14
14
15
15
17
22
27
30
24
13
-5
-34
-64
-91
-107
-104
-91
-72
-51
-31
-17
-7
0
7
12
16
19
21
22
23
23
21
22
23
24
24
25
25
25
25
25
25
25
24
23
23
24
24
24
24
24
23
24
24
23
23
24
24
24
24
24
24
25
25
26
26
27
26
26
25
25
24
23
22
21
20
19
18
17
16
16
16
16
15
16
17
17
17
16
17
16
16
17
18
18
17
18
18
18
17
18
19
19
19
20
20
19
19
19
20
20
21
22
22
22
22
23
24
24
22
19
16
13
10
7
7
8
10
12
13
14
16
18
21
22
21
20
20
21
21
22
22
22
23
24
25
26
27
27
28
29
29
30
31
31
31
30
30
29
30
30
29
30
31
36
39
42
37
27
13
-11
-40
-67
-87
-90
-82
-65
-47
-27
-10
1
10
17
21
25
28
31
31
32
32
32
32
32
33
33
33
33
34
34
33
33
33
33
33
33
33
33
33
34
34
33
33
32
33
33
34
35
36
37
37
38
38
38
39
38
39
38
38
38
37
36
35
35
34
33
31
30
30
28
27
26
25
24
23
23
22
22
22
22
21
21
21
22
22
21
21
21
21
20
21
20
20
21
21
21
21
21
20
21
21
21
21
21
21
21
21
20
18
14
11
8
6
6
6
8
10
11
12
13
16
19
21
22
21
21
20
21
21
22
21
21
22
23
24
25
27
27
28
28
29
30
30
31
31
31
30
31
30
30
30
31
35
39
44
42
36
24
5
-21
-53
-79
-91
-90
-73
-54
-30
-11
0
8
13
16
20
24
28
29
29
30
30
30
30
31
32
32
32
32
32
32
31
30
30
29
29
30
30
30
29
30
30
29
29
29
28
28
30
30
30
30
30
31
31
31
31
32
31
31
30
30
29
28
27
25
24
22
22
21
21
20
18
16
16
17
16
15
14
14
15
14
14
14
15
15
15
17
17
17
18
21
21
21
20
21
23
22
21
20
20
18
19
21
21
20
17
12
9
9
9
8
7
7
7
9
11
11
11
14
17
19
18
17
17
16
15
14
14
15
18
18
17
16
15
15
16
16
16
16
18
20
20
21
21
20
20
18
18
17
18
21
28
31
30
26
17
1
-23
-53
-80
-97
-93
-77
-57
-38
-24
-12
-2
4
8
11
13
14
16
17
16
15
14
14
14
15
13
12
12
11
11
11
11
10
10
11
12
13
14
14
12
10
11
12
11
9
10
13
13
14
15
14
11
12
15
17
18
16
13
12
13
15
15
15
13
13
14
14
10
7
7
10
11
9
8
9
10
11
11
9
8
9
12
12
8
7
6
4
5
8
10
8
6
8
8
6
4
6
8
7
6
6
7
7
6
5
7
8
8
7
12
16
12
5
3
2
-3
-7
-4
0
0
0
2
5
6
8
12
13
10
9
11
12
11
12
11
8
8
12
14
13
11
8
8
12
14
14
15
14
15
17
19
17
15
17
19
21
23
27
32
34
33
26
13
-11
-42
-76
-98
-105
-97
-84
-66
-43
-22
-11
-4
1
6
10
14
16
17
18
19
20
18
20
21
19
14
15
20
21
21
21
20
17
15
17
19
18
17
21
20
20
20
19
18
18
18
17
19
20
17
17
18
21
24
26
26
24
22
23
23
24
23
23
22
19
13
11
14
15
13
10
11
14
13
11
11
11
8
6
7
7
4
5
10
12
12
10
9
8
7
7
8
10
12
12
9
5
5
7
10
9
8
8
6
3
-1
-7
-10
-10
-5
-1
0
-2
-4
-2
1
5
6
4
1
1
1
-1
-4
-4
-1
1
0
0
2
3
0
-2
0
5
7
4
2
2
3
5
5
4
4
7
7
8
9
13
20
22
15
2
-15
-43
-74
-102
-119
-120
-106
-90
-71
-52
-40
-32
-23
-14
-8
-5
-2
0
2
1
0
0
0
1
4
2
-1
-2
-2
-1
-1
0
0
0
-1
-3
-3
-2
-3
-3
-4
-7
-8
-6
-5
-4
-5
-6
-6
-4
-3
-3
-3
-4
-4
-4
-4
-3
-3
-4
-5
-7
-9
-12
-14
-13
-9
-11
-15
-17
-15
-13
-13
-16
-18
-16
-17
-21
-21
-18
-15
-13
-12
-12
-14
-15
-13
-12
-13
-14
-13
-12
-12
-11
-12
-11
-9
-9
-9
-8
-10
-11
-12
-13
-12
-11
-11
-16
-20
-23
-23
-22
-25
-27
-27
-25
-23
-18
-13
-11
-9
-7
-9
-14
-16
-16
-14
-12
-12
-13
-15
-16
-16
-16
-15
-15
-14
-14
-14
-15
-14
-11
-8
-8
-10
-14
-16
-13
-8
-2
-2
-4
0
9
12
4
-11
-33
-63
-95
-123
-139
-146
-133
-106
-74
-51
-42
-37
-33
-31
-31
-26
-10
3
2
-7
-16
-21
-14
0
8
3
-7
-18
-19
-7
1
-2
-8
-8
-8
-9
-13
-15
-15
-16
-15
-18
-22
-22
-21
-23
-27
-19
-9
-8
-15
-20
-19
-13
-9
-9
-9
-8
-8
-12
-12
-9
-10
-16
-21
-21
-19
-23
-29
-30
-20
-13
-16
-22
-22
-20
-17
-15
-15
-17
-19
-19
-20
-24
-29
-23
-9
-5
-9
-12
-9
-5
-1
-2
-6
-10
-11
-9
-6
-3
-1
1
-1
-7
-11
-9
-6
-10
-14
-12
-10
-14
-21
-16
-5
0
-6
-11
-12
-9
-2
6
10
9
6
3
0
1
3
3
1
-2
-8
-13
-6
9
18
19
17
14
12
11
10
11
11
11
11
11
11
11
12
16
22
29
32
30
23
13
-3
-32
-64
-87
-95
-83
-64
-44
-27
-14
-2
6
12
19
25
30
32
34
35
35
36
36
38
37
37
37
36
35
34
35
34
35
35
35
34
34
36
35
34
32
33
34
33
33
35
36
35
36
36
37
37
37
37
34
33
33
34
36
35
34
32
30
28
26
24
23
24
25
28
27
24
21
19
19
19
21
21
21
20
19
19
20
20
20
20
19
19
19
20
20
21
22
22
22
21
22
22
23
24
24
23
22
23
23
24
26
27
26
23
21
19
18
16
15
15
15
16
17
20
22
24
25
28
31
31
31
30
30
29
29
29
29
28
30
31
32
33
33
34
33
34
35
35
36
35
37
37
37
37
37
38
36
36
37
42
47
52
54
50
42
27
2
-31
-61
-76
-76
-64
-46
-27
-7
5
14
22
28
33
36
40
42
42
43
43
44
44
43
44
44
43
43
44
44
43
41
40
39
39
41
43
44
44
43
43
43
44
43
43
41
41
41
41
41
39
39
37
36
36
38
40
40
39
37
38
37
39
37
35
32
30
29
27
26
25
24
24
24
23
22
23
22
22
22
23
23
24
24
24
25
24
24
24
25
27
29
30
29
28
27
27
26
27
28
29
29
30
30
30
29
28
25
20
17
16
15
14
15
17
18
19
22
23
25
25
29
32
34
34
33
34
34
32
30
31
31
31
33
34
35
34
34
33
33
34
36
37
34
34
35
36
35
35
34
32
32
35
43
48
48
40
29
12
-10
-39
-69
-87
-86
-76
-59
-41
-25
-11
0
9
15
21
25
28
30
31
30
30
29
28
29
31
32
31
29
27
28
29
29
30
30
31
29
28
27
28
29
30
29
28
28
29
29
28
29
29
30
30
30
31
30
31
30
29
29
28
29
28
28
26
26
25
24
23
22
20
19
19
19
18
17
16
16
16
16
15
14
14
15
15
15
15
15
16
16
16
17
17
16
16
17
17
17
16
16
16
16
17
16
16
15
15
16
16
16
16
16
13
10
8
5
3
3
5
6
8
9
11
12
14
16
18
17
16
15
14
13
13
13
13
13
13
13
14
14
16
17
19
19
19
20
21
22
22
22
21
21
21
20
20
20
23
28
35
36
32
22
8
-13
-41
-74
-100
-109
-102
-86
-65
-45
-28
-13
-4
0
5
12
16
19
21
22
22
22
23
23
22
22
22
22
22
22
22
22
21
20
19
19
20
20
21
20
20
21
22
22
22
22
22
22
22
23
23
22
21
21
21
20
21
21
20
19
19
18
18
17
16
15
14
13
12
11
9
8
6
6
6
6
6
7
8
7
6
5
6
6
6
6
7
7
8
9
10
9
8
8
8
8
8
9
9
8
8
8
7
7
8
10
11
9
7
4
1
-1
-3
-6
-7
-6
-3
-1
0
0
2
4
7
9
9
7
6
4
4
4
3
4
5
5
5
6
7
8
8
8
8
9
9
10
11
11
11
11
12
12
11
11
13
15
20
25
28
26
17
4
-16
-45
-76
-102
-112
-105
-85
-62
-40
-26
-16
-8
-3
0
4
8
11
12
13
14
14
14
13
14
14
14
14
14
14
13
13
13
13
12
12
12
11
11
12
12
12
12
12
13
13
13
13
13
13
13
14
14
14
14
15
14
14
14
14
14
14
13
13
12
11
9
8
7
6
5
4
3
2
2
2
2
2
1
1
1
1
1
1
2
3
3
3
4
3
3
4
4
5
4
4
4
4
5
5
5
5
5
5
5
5
7
6
5
2
-1
-3
-4
-6
-8
-8
-6
-4
-2
-1
0
1
4
7
9
10
9
8
7
7
7
6
6
7
7
8
9
10
11
11
12
12
12
12
12
12
12
12
11
10
9
9
9
9
12
17
24
26
21
11
-5
-30
-64
-95
-112
-111
-92
-72
-49
-34
-21
-12
-4
1
4
8
13
15
16
17
17
17
17
17
17
18
18
18
18
17
18
18
18
17
18
17
16
16
16
16
15
15
16
16
16
16
16
16
17
17
17
18
18
18
19
19
19
19
19
19
18
18
18
16
15
14
13
12
11
11
10
9
8
9
8
8
7
8
8
8
9
9
10
9
9
9
9
9
10
10
10
10
10
10
10
9
10
9
9
8
8
9
10
11
11
9
6
3
0
-2
-4
-6
-6
-5
-3
-1
0
1
2
5
9
10
10
10
9
9
9
10
10
9
10
11
12
14
16
18
19
20
20
21
22
22
22
22
23
22
24
24
24
22
23
26
32
39
42
40
30
15
-11
-47
-78
-99
-101
-87
-72
-52
-32
-13
0
8
14
19
23
28
32
33
34
34
34
34
35
35
36
35
33
34
35
36
35
35
35
35
34
34
35
34
35
35
36
36
36
34
33
34
35
37
37
38
37
37
37
37
38
38
39
38
39
39
37
37
36
37
34
33
32
31
30
30
30
29
29
29
30
30
30
30
30
29
28
30
31
32
32
32
32
31
30
30
31
31
30
30
30
29
28
29
30
30
29
30
28
28
28
28
30
28
25
23
21
18
15
14
15
17
19
22
23
24
27
31
33
32
31
31
30
29
28
28
28
28
28
30
29
29
31
30
31
31
32
32
32
33
33
33
32
32
32
32
31
31
32
36
41
46
45
38
27
6
-24
-57
-83
-95
-91
-79
-60
-41
-21
-6
5
14
20
25
29
31
33
33
33
33
33
32
31
31
30
30
30
30
32
31
31
31
31
31
31
31
30
30
29
29
29
28
29
29
28
27
28
28
28
28
28
29
28
27
27
27
27
28
28
27
26
25
25
24
23
21
20
20
19
17
16
14
13
13
13
12
12
12
12
12
12
12
13
14
14
14
14
14
14
14
14
13
13
13
13
12
12
12
12
12
11
11
11
11
11
11
11
11
11
12
12
8
5
1
-1
-4
-4
-2
-1
1
3
4
6
7
9
13
16
15
15
14
14
14
15
15
15
15
16
17
17
18
18
19
19
20
20
21
20
19
19
19
19
19
19
19
18
20
25
30
35
35
29
18
2
-24
-62
-96
-115
-116
-101
-79
-57
-36
-19
-8
-1
4
9
14
17
19
20
20
19
19
20
21
19
19
19
18
18
19
19
19
19
19
19
20
20
21
22
21
21
21
21
20
20
20
20
20
20
21
21
21
21
21
20
20
20
19
19
18
17
17
16
16
15
15
14
13
12
11
10
9
9
9
8
9
9
9
7
7
8
7
8
8
8
8
7
8
8
8
8
9
9
8
7
8
8
8
9
9
9
9
9
9
8
5
1
-1
-4
-7
-8
-9
-8
-8
-6
-5
-4
-2
1
5
7
7
6
6
6
5
5
5
6
7
8
10
10
11
13
14
14
14
15
15
15
15
15
15
15
16
17
17
16
16
18
22
28
33
34
27
14
-6
-38
-75
-103
-119
-111
-93
-68
-43
-25
-13
-4
1
6
10
15
19
21
23
24
25
25
26
26
25
24
24
24
24
25
25
26
26
25
25
26
27
26
27
27
28
28
28
28
28
28
28
29
30
31
32
31
31
31
31
30
31
31
31
30
29
28
26
25
24
23
23
21
20
19
19
18
19
19
20
20
19
19
20
20
21
21
21
20
21
21
20
20
21
21
22
21
21
22
21
21
21
20
19
19
19
19
18
18
19
19
17
15
12
8
5
3
3
4
6
8
10
11
12
15
18
19
19
19
18
17
18
18
18
17
17
18
18
18
18
20
21
22
23
23
24
25
27
28
26
25
26
26
26
25
27
28
33
39
42
38
28
10
-20
-56
-85
-103
-98
-85
-65
-43
-24
-11
-2
6
12
17
21
24
26
27
28
28
28
28
29
30
30
29
30
30
30
29
30
30
30
30
31
31
31
31
31
30
29
29
29
29
29
29
30
29
28
27
28
29
29
29
28
27
27
27
27
26
25
24
23
21
21
20
18
17
17
17
17
16
16
17
17
16
17
17
17
17
18
18
17
18
18
19
19
19
19
19
18
17
17
17
17
17
17
16
15
15
14
14
13
13
13
13
12
12
11
9
6
3
0
-2
-4
-4
-2
0
1
3
4
6
9
12
13
13
13
12
12
12
12
12
13
13
13
14
15
15
16
16
16
17
18
18
18
17
17
17
16
15
15
15
15
16
20
26
31
30
25
14
-1
-28
-65
-95
-117
-117
-105
-85
-62
-41
-23
-12
-5
0
4
8
11
12
12
11
11
11
11
10
11
11
11
10
10
11
11
11
11
12
11
10
10
9
8
8
8
9
9
9
9
9
9
10
11
11
11
11
11
11
11
11
11
11
10
9
9
8
7
7
7
5
5
4
4
3
2
2
0
0
0
-1
-1
-1
0
0
0
0
0
0
1
1
1
2
2
2
1
2
2
2
1
1
1
0
0
1
1
1
2
2
1
-1
-4
-8
-12
-15
-17
-19
-18
-17
-16
-14
-13
-12
-11
-8
-5
-3
-3
-4
-6
-7
-7
-7
-7
-6
-4
-3
-3
-2
-2
-1
-1
0
0
0
0
1
2
1
1
1
1
0
0
1
0
1
4
11
16
16
10
0
-15
-39
-70
-102
-124
-131
-117
-95
-71
-52
-37
-26
-19
-15
-11
-5
-2
-1
0
0
1
1
1
1
2
1
1
1
0
0
0
-1
-1
0
0
0
0
0
1
1
1
0
1
1
1
1
1
2
0
1
1
2
3
3
4
3
3
2
2
1
1
1
1
1
0
0
-1
-2
-3
-4
-4
-5
-6
-6
-6
-6
-5
-5
-5
-5
-5
-4
-4
-4
-3
-2
-2
-1
-1
0
0
0
0
-1
-1
0
0
0
0
0
0
0
-1
-1
-1
0
0
0
-1
-5
-7
-9
-11
-13
-13
-12
-11
-10
-8
-7
-6
-3
0
3
3
2
0
0
-1
0
0
1
1
2
2
3
4
5
6
7
7
7
7
7
7
7
7
7
7
7
7
7
7
9
14
20
23
22
17
7
-9
-38
-74
-104
-114
-104
-85
-66
-47
-30
-18
-11
-5
0
4
6
7
8
8
8
9
10
9
8
8
10
10
10
10
10
9
7
8
9
9
9
9
10
9
9
9
10
9
10
11
11
11
12
14
14
13
13
13
14
13
13
14
14
12
12
12
11
10
10
9
8
8
7
6
6
6
5
4
4
5
5
4
4
4
4
4
5
5
5
6
6
7
7
7
7
7
7
8
7
7
8
8
8
9
8
7
8
8
8
8
9
9
9
8
5
3
2
0
-3
-5
-5
-3
0
0
0
2
4
6
6
6
5
4
4
3
2
3
4
6
7
8
8
9
9
8
8
9
9
8
7
7
6
6
6
7
6
6
6
7
9
14
19
19
13
0
-20
-46
-75
-98
-108
-104
-90
-74
-55
-39
-26
-16
-8
-3
0
3
6
6
7
8
8
8
8
9
9
9
9
9
9
9
8
8
7
7
7
7
7
7
7
7
7
8
9
8
7
7
7
7
7
8
9
9
9
8
9
8
8
8
7
7
6
5
4
4
2
1
1
0
0
-1
-1
-1
-1
-2
-2
-2
-2
-2
-3
-2
-2
-2
-2
-3
-3
-3
-3
-2
-2
-1
-2
-2
-2
-2
-2
-3
-2
-2
-2
-2
-2
-2
-2
-1
-1
0
-1
-1
-2
-4
-7
-11
-13
-16
-16
-15
-14
-12
-11
-9
-8
-6
-4
-1
0
0
-1
-2
-3
-4
-4
-3
-3
-3
-2
-1
-1
-1
0
0
0
-1
-1
0
0
-1
-1
-1
-2
-2
-2
-3
-3
-2
0
4
8
9
5
-2
-14
-32
-59
-88
-113
-118
-113
-96
-76
-55
-37
-26
-18
-13
-9
-5
-1
0
1
2
2
2
3
3
3
3
3
3
3
3
4
3
4
4
5
5
4
5
5
5
4
3
2
2
2
3
3
3
3
4
4
4
4
4
4
4
4
3
3
3
3
4
2
1
0
0
-1
-3
-4
-5
-7
-7
-7
-7
-7
-7
-6
-5
-6
-6
-5
-4
-5
-5
-4
-3
-3
-2
-2
-2
-2
-1
-1
-1
-1
-1
0
0
0
0
0
0
0
1
2
1
0
-2
-5
-7
-10
-12
-12
-11
-9
-7
-6
-5
-3
-1
2
5
6
6
5
4
4
3
3
5
6
6
6
7
8
9
9
9
10
10
10
10
10
10
10
10
10
9
9
10
10
10
13
18
25
26
23
13
-1
-24
-54
-85
-104
-107
-90
-69
-46
-30
-17
-6
0
4
8
14
17
18
18
20
20
21
22
23
22
22
23
24
24
25
25
24
23
24
25
26
26
26
27
27
28
27
28
29
29
27
27
27
27
28
28
27
25
26
26
26
26
27
27
26
26
25
25
23
23
22
22
21
19
19
18
17
16
15
15
15
15
15
15
15
15
16
17
18
19
20
20
19
18
20
21
21
22
22
22
21
20
21
22
22
22
23
23
22
22
22
22
23
24
25
24
22
21
18
16
13
12
11
12
14
16
17
18
19
22
24
25
24
24
22
20
20
22
21
20
22
22
23
23
23
24
24
25
24
24
24
24
23
24
23
23
22
22
22
22
22
22
26
31
36
34
26
14
-9
-38
-67
-87
-89
-79
-64
-46
-29
-15
-5
2
9
13
16
19
22
23
24
25
26
26
25
25
25
24
24
25
25
25
25
25
25
25
25
26
26
25
25
25
26
26
26
25
25
24
24
25
24
24
24
25
24
22
23
23
23
22
22
20
20
19
18
17
15
13
12
12
10
10
10
9
9
9
9
10
10
10
10
10
10
11
13
14
14
14
15
15
15
15
15
16
16
16
16
17
17
18
18
17
16
16
15
15
15
15
15
15
14
14
15
15
15
15
12
10
7
5
2
0
0
3
5
6
6
7
7
9
13
16
16
16
16
16
16
17
18
18
17
17
17
16
16
15
16
15
14
14
15
15
14
14
14
14
13
13
12
12
12
15
20
24
25
21
12
0
-19
-50
-82
-104
-108
-97
-79
-58
-38
-22
-12
-6
-1
2
6
9
10
11
11
11
12
12
13
11
12
12
11
11
11
11
10
11
11
11
11
10
10
10
10
10
11
11
11
10
10
11
11
11
11
11
10
9
9
8
9
9
9
9
9
8
7
6
5
5
4
3
2
1
0
-1
-2
-2
-3
-3
-3
-3
-2
-2
-2
-2
-2
-1
-1
0
0
0
1
1
1
1
2
2
1
1
2
2
2
2
1
2
2
1
2
2
3
2
2
1
-1
-3
-6
-8
-10
-10
-10
-8
-6
-4
-3
-2
0
2
5
7
7
7
7
7
7
8
9
9
9
11
11
12
12
12
12
12
11
12
12
12
11
12
12
12
12
13
13
12
11
13
16
21
26
27
22
9
-11
-41
-75
-101
-110
-103
-85
-66
-44
-28
-17
-10
-5
0
4
8
12
15
17
18
17
18
18
18
18
18
19
19
19
20
20
20
20
20
20
20
21
21
21
22
21
22
22
22
22
21
21
20
19
19
20
20
21
21
20
20
20
20
19
20
20
20
19
18
17
15
15
15
15
14
14
15
15
15
15
15
14
15
16
16
17
18
19
18
19
19
18
19
20
21
21
22
22
23
23
23
23
24
24
24
25
25
24
24
25
26
25
24
22
23
24
26
25
25
23
20
18
16
14
14
15
17
19
20
20
21
22
26
28
29
28
26
27
27
28
29
30
30
30
31
31
31
30
29
29
29
30
30
30
29
28
27
28
29
28
27
27
28
29
33
39
43
42
35
25
7
-19
-50
-80
-95
-92
-77
-54
-35
-17
-3
8
13
17
22
26
27
29
30
31
30
30
30
30
30
30
32
32
32
31
31
31
30
30
29
29
28
28
28
28
28
27
27
27
27
27
27
26
27
27
26
26
26
26
26
25
26
26
26
25
24
24
24
24
23
22
21
21
20
19
19
18
19
18
18
17
17
16
15
15
14
15
14
15
15
15
15
15
15
15
16
16
17
16
16
16
16
16
16
17
17
17
17
17
16
16
16
17
18
18
18
16
13
9
7
4
2
1
2
4
6
7
8
9
11
15
18
18
17
17
17
17
15
14
15
16
15
15
16
16
16
16
15
14
14
14
14
14
13
13
13
13
12
12
11
11
12
14
19
25
28
24
14
-1
-28
-65
-99
-119
-115
-102
-82
-64
-46
-31
-20
-13
-7
-2
2
6
9
11
12
13
12
11
10
9
9
9
9
8
8
8
8
8
8
8
7
7
7
6
5
5
6
6
6
6
6
6
6
6
6
7
6
6
7
7
7
7
7
6
5
5
5
3
2
1
0
-1
-2
-3
-3
-4
-4
-4
-4
-4
-4
-4
-4
-5
-5
-5
-5
-5
-6
-6
-5
-5
-4
-4
-3
-4
-3
-3
-2
-2
-2
-2
-2
-1
-1
-1
0
0
0
0
0
0
0
0
0
-2
-5
-8
-11
-14
-16
-16
-14
-12
-10
-8
-8
-6
-3
1
3
2
2
1
2
2
3
4
4
5
6
7
7
7
8
8
8
9
9
9
8
8
9
8
7
7
7
7
6
5
7
9
13
18
22
18
7
-8
-34
-67
-98
-119
-126
-119
-105
-87
-62
-42
-28
-18
-10
-5
0
4
8
10
10
11
11
12
12
11
12
12
11
11
12
12
12
12
13
12
12
13
14
14
14
14
15
15
15
16
16
15
14
15
16
16
16
17
17
17
16
16
17
16
15
16
16
13
12
12
11
10
9
9
9
8
7
6
5
5
5
4
4
4
5
5
6
5
6
7
7
7
7
7
8
9
9
11
12
11
12
11
11
10
12
12
11
12
12
13
12
12
13
13
12
12
12
12
11
8
5
3
2
0
-3
-5
-6
-4
-1
1
2
4
8
11
13
14
14
13
13
14
15
16
17
17
17
16
16
17
17
17
17
17
18
18
18
19
18
18
19
19
18
18
18
18
19
21
26
32
37
34
27
14
-7
-39
-76
-103
-106
-94
-73
-51
-34
-21
-9
-1
4
8
12
15
17
18
19
19
19
19
19
19
19
20
20
20
20
20
21
21
21
20
21
21
21
21
21
20
19
18
19
19
19
19
20
20
20
20
21
20
21
21
20
20
20
20
20
18
17
16
15
14
14
13
12
11
10
9
9
9
9
9
9
8
9
8
8
8
9
9
9
9
9
8
7
8
8
8
8
8
8
7
7
7
7
7
7
7
7
6
5
6
6
5
5
5
5
6
6
6
4
2
-1
-4
-8
-10
-11
-10
-9
-7
-5
-3
-2
0
4
8
9
9
10
11
10
11
11
11
10
10
11
11
11
11
12
11
11
11
11
12
12
11
11
10
10
10
10
10
10
12
17
23
26
24
16
3
-18
-50
-84
-108
-123
-118
-104
-84
-59
-38
-22
-12
-5
-1
3
8
11
13
14
14
15
15
15
15
16
15
15
15
15
15
15
14
14
13
13
13
14
14
13
13
14
13
12
13
13
13
13
13
13
12
12
12
12
12
12
12
13
12
11
11
10
9
8
7
6
5
3
2
1
0
-1
-1
-2
-2
-2
-1
-2
-2
-2
-1
0
0
0
0
1
1
1
1
1
1
1
0
0
1
1
2
3
3
2
0
0
1
2
2
2
2
2
0
-3
-6
-9
-12
-13
-13
-12
-10
-8
-6
-5
-4
-3
0
3
3
3
3
3
3
4
5
6
7
9
9
10
10
11
12
12
13
12
12
12
12
13
12
13
14
14
13
13
13
14
17
22
29
33
30
20
8
-12
-42
-74
-103
-113
-104
-86
-60
-38
-22
-12
-4
1
4
8
12
16
17
18
19
20
20
21
21
21
20
21
21
21
21
21
21
20
19
20
20
21
21
22
23
24
23
24
25
25
25
24
25
24
24
24
24
22
22
23
21
21
20
20
20
19
19
18
16
14
13
11
9
8
9
9
9
8
9
10
10
10
10
11
12
11
12
13
14
14
15
15
15
15
15
15
14
14
15
15
15
16
17
17
17
18
19
19
19
19
20
20
19
19
20
21
21
20
20
18
15
12
9
7
5
6
8
11
12
13
14
16
18
21
23
22
23
23
24
24
25
27
28
28
28
29
30
31
31
31
31
31
30
31
31
30
31
31
32
31
30
30
30
32
33
38
44
49
46
39
28
8
-20
-52
-78
-91
-89
-76
-59
-41
-21
-5
7
15
21
26
30
32
34
34
35
35
35
35
34
35
35
35
34
34
34
34
34
33
34
33
32
33
34
35
33
33
32
31
30
31
31
30
31
30
31
31
31
30
31
31
30
30
30
29
29
29
28
28
27
27
25
24
23
22
21
19
20
20
20
21
23
23
23
23
25
25
25
25
27
27
27
27
28
29
29
30
30
30
30
31
30
30
30
29
30
29
29
30
31
31
30
31
31
32
31
32
33
33
32
30
28
23
21
19
16
16
16
19
21
23
24
26
29
33
37
39
39
38
38
38
38
38
39
38
37
36
36
37
37
37
37
37
37
37
38
39
39
38
38
38
36
36
37
37
37
38
43
50
54
51
43
27
3
-30
-69
-94
-97
-83
-60
-38
-20
-7
4
13
18
22
27
31
34
34
35
35
35
35
34
33
33
33
33
33
33
34
33
32
31
31
31
30
30
31
30
30
29
29
29
30
30
30
29
29
29
29
28
27
27
28
28
27
27
28
27
27
26
25
24
22
21
19
18
17
16
15
14
14
14
14
13
13
13
14
14
15
16
15
15
15
14
13
13
14
13
13
12
13
12
12
12
12
11
11
12
11
11
11
11
12
12
12
10
7
3
0
-2
-5
-6
-5
-4
-2
-1
0
1
3
6
9
10
10
10
11
11
11
12
12
13
14
15
15
15
15
15
15
15
16
16
17
16
15
15
16
16
16
16
16
15
16
20
25
32
35
29
18
2
-24
-56
-89
-108
-114
-106
-88
-69
-47
-29
-14
-4
3
9
13
17
20
22
23
22
22
22
21
22
23
23
23
22
23
22
22
21
22
22
21
21
21
21
21
21
21
21
21
21
22
22
22
22
23
23
23
23
24
23
22
23
23
22
22
21
20
18
19
18
18
15
15
14
14
12
11
10
9
9
9
10
10
10
11
12
13
12
13
13
13
14
15
17
17
16
16
17
17
18
19
19
18
18
19
20
20
20
21
21
21
21
21
22
22
22
24
24
22
20
16
13
10
8
8
9
11
13
14
15
16
18
21
22
23
22
23
22
23
22
23
25
27
28
27
28
28
30
30
30
29
30
30
29
29
29
28
27
27
27
27
28
28
28
30
35
40
43
39
30
14
-9
-39
-72
-95
-96
-83
-61
-39
-23
-12
-3
4
9
13
17
20
21
22
21
21
20
20
21
20
20
20
20
19
19
19
19
19
18
20
20
20
20
20
20
21
21
20
20
19
20
20
21
21
21
21
21
21
20
21
20
20
20
20
20
19
19
19
18
17
16
15
13
11
11
10
9
8
7
8
7
7
7
8
8
8
8
9
9
10
11
11
10
10
11
11
11
11
11
11
10
10
10
10
9
10
9
9
9
9
10
9
10
11
11
11
10
11
11
8
5
2
0
-2
-4
-4
-3
-1
0
0
2
3
6
10
12
12
12
12
11
11
12
13
13
12
12
12
12
12
13
13
12
12
13
13
13
13
13
13
12
12
12
13
13
14
18
22
28
30
25
15
2
-21
-51
-83
-105
-116
-109
-94
-75
-53
-33
-18
-8
-2
2
6
9
11
12
14
14
15
15
15
14
14
15
15
15
16
17
17
18
18
17
17
17
17
17
18
18
18
18
18
18
18
18
18
18
18
18
18
19
19
18
19
19
19
18
18
18
18
18
17
16
15
14
12
11
11
9
7
6
6
5
5
5
4
4
4
4
4
4
5
4
4
4
4
4
4
5
5
6
5
5
5
5
5
4
4
4
5
6
6
6
5
5
5
6
6
3
-1
-4
-6
-8
-9
-9
-7
-4
-3
-3
-1
1
5
9
9
9
9
9
10
11
12
12
13
13
13
14
15
15
15
15
15
16
16
17
17
17
17
17
17
17
18
17
17
17
20
25
32
37
35
27
12
-11
-41
-78
-106
-117
-108
-86
-62
-40
-24
-10
-1
3
8
13
17
18
19
21
22
22
23
23
23
22
21
21
22
23
24
25
24
24
24
24
24
23
23
24
24
23
23
24
25
26
29
30
30
30
31
32
31
31
32
34
32
32
33
33
32
31
31
30
30
30
28
27
26
26
26
26
26
26
27
25
26
26
27
26
26
27
27
27
27
29
29
29
30
30
31
30
31
30
30
30
30
30
29
29
28
28
29
29
27
26
24
23
23
23
23
23
23
23
21
18
14
11
9
6
3
3
4
6
8
8
8
10
13
14
14
14
14
14
14
15
16
16
16
17
19
17
17
16
16
16
17
18
17
17
16
17
17
18
18
18
19
18
18
19
23
28
34
36
30
20
2
-24
-56
-84
-101
-105
-93
-78
-60
-38
-22
-10
-1
6
11
15
18
19
21
22
23
23
23
24
24
24
24
23
24
24
24
24
25
25
25
25
26
26
26
26
26
26
27
27
27
26
25
25
25
26
25
27
26
25
25
26
27
26
26
25
25
24
23
22
22
21
19
19
17
16
15
14
13
12
11
11
11
10
10
10
9
8
9
10
10
10
10
12
11
11
11
11
11
11
12
12
12
12
12
12
12
12
12
12
11
11
11
10
10
9
11
11
10
10
8
4
0
-1
-3
-5
-6
-5
-3
-1
0
0
1
4
7
11
13
13
12
11
11
10
10
10
11
11
10
10
10
10
10
11
11
11
10
11
11
11
11
10
10
9
9
9
9
10
14
21
25
26
21
11
-4
-29
-63
-96
-116
-115
-98
-76
-55
-36
-21
-11
-5
0
3
8
11
13
15
15
14
14
14
14
15
15
15
14
14
14
15
15
15
16
16
16
16
17
17
17
17
17
17
18
18
18
19
19
19
20
20
21
22
23
23
23
24
24
24
24
23
22
22
21
20
19
17
16
15
16
15
14
14
13
12
11
11
10
10
11
12
11
11
12
12
13
13
14
15
15
15
16
17
16
16
16
16
16
15
16
15
16
17
17
17
19
19
19
17
14
12
10
8
6
6
8
10
12
14
15
16
20
24
25
24
23
23
23
24
25
26
26
26
26
27
29
29
30
31
32
33
34
34
32
32
33
32
31
30
31
31
33
32
34
37
43
48
47
39
24
0
-34
-70
-93
-101
-94
-78
-60
-37
-16
-2
6
13
19
23
26
31
32
32
33
34
33
31
30
30
31
30
31
31
32
31
29
29
28
29
28
29
28
28
27
27
26
26
27
27
26
25
27
28
28
28
29
29
28
27
26
26
25
25
24
22
21
20
19
18
17
16
16
14
12
11
11
10
10
9
9
8
7
6
6
5
5
6
7
7
7
8
8
8
9
10
11
10
10
11
11
11
10
10
9
9
9
8
8
7
7
7
7
8
8
8
6
4
1
0
-1
-3
-5
-5
-4
-2
0
1
1
3
6
8
8
7
6
5
5
6
6
6
7
9
11
10
10
11
12
12
13
13
10
10
12
13
12
12
12
10
9
11
13
15
18
23
30
29
23
13
-5
-34
-69
-99
-113
-112
-94
-71
-43
-22
-13
-9
-4
2
9
13
15
14
14
16
17
17
17
17
18
20
19
12
6
7
10
12
10
10
11
11
11
15
17
15
11
9
11
12
12
11
14
18
20
18
14
13
16
16
14
13
16
19
15
11
10
12
14
12
9
7
6
5
5
5
3
1
0
-1
-3
-3
-3
-1
0
-1
-3
-3
-4
-6
-7
-5
-3
-1
0
-1
-3
-6
-6
-4
0
1
-2
-6
-5
-2
0
0
-1
-1
0
0
2
5
3
-2
-8
-10
-11
-13
-13
-11
-11
-8
-5
-2
0
3
5
5
1
0
1
2
3
2
1
2
7
12
13
11
7
7
7
8
10
11
12
12
15
18
16
12
11
12
13
14
18
19
19
19
23
33
38
32
20
7
-7
-30
-63
-96
-108
-96
-77
-50
-26
-12
-3
4
7
6
7
11
16
20
23
21
20
19
22
23
23
25
25
20
15
16
20
23
27
25
24
21
19
19
20
24
26
25
24
25
24
24
25
29
31
27
24
21
21
23
24
22
22
28
31
24
18
18
18
18
20
21
20
17
13
14
17
18
16
13
7
4
7
12
14
12
10
11
14
16
16
14
12
11
13
14
12
12
18
18
11
10
11
9
9
13
15
11
8
11
15
12
10
10
9
9
13
19
18
8
4
6
7
2
-2
-2
-2
-3
0
5
8
10
11
15
15
16
19
20
18
17
21
25
24
20
17
22
29
28
24
23
22
20
22
26
26
23
21
20
23
26
26
24
26
28
27
30
34
36
35
30
21
9
-12
-45
-78
-94
-91
-75
-57
-40
-25
-11
0
6
8
12
16
18
19
19
23
24
21
19
18
20
22
24
22
23
25
29
28
20
16
18
21
22
23
24
24
23
21
21
20
19
20
21
19
17
18
21
23
23
21
19
18
19
21
22
22
23
23
22
21
19
17
20
21
18
15
14
14
15
15
12
10
9
9
12
14
11
7
9
11
7
4
4
6
5
5
6
7
7
5
4
6
5
3
2
3
3
4
4
3
3
3
3
4
4
2
-1
-5
-6
-6
-7
-7
-7
-7
-9
-9
-5
0
2
1
2
5
9
12
11
11
13
14
11
10
9
9
10
11
9
6
7
10
13
11
8
9
11
12
10
9
10
11
11
15
16
13
12
17
23
24
18
5
-19
-51
-86
-111
-117
-104
-78
-58
-42
-28
-16
-11
-7
-3
1
3
4
9
14
15
13
11
11
11
12
13
14
14
14
15
13
12
12
13
12
11
14
13
10
11
13
14
14
15
16
18
16
15
15
14
15
21
27
22
12
7
11
15
16
16
16
14
13
13
11
10
10
9
8
6
5
6
4
4
6
6
4
3
5
4
2
3
7
9
5
0
0
5
10
9
4
5
6
4
1
1
4
4
1
0
2
5
7
6
1
2
6
7
5
0
-3
-8
-11
-7
-7
-13
-17
-15
-10
-4
-2
-4
-4
-5
-6
-7
-5
-2
-1
-6
-11
-9
-4
-1
-3
-4
-2
0
1
0
-1
2
3
0
-1
-1
3
6
4
-1
-3
-3
-2
1
6
8
9
10
12
16
14
0
-25
-51
-75
-94
-106
-103
-92
-72
-52
-38
-23
-10
-3
3
10
9
7
8
12
18
19
13
10
17
21
13
6
7
15
20
15
8
8
11
12
14
14
13
12
10
12
14
12
10
11
12
12
14
16
16
14
15
15
14
13
14
15
16
20
19
13
11
16
17
10
6
8
11
10
8
7
6
4
3
4
8
6
2
2
5
3
0
0
4
8
7
4
0
-1
2
7
8
4
2
4
3
0
-2
-3
-2
-1
0
0
-2
-3
-4
-5
-6
-2
0
-4
-8
-12
-14
-13
-15
-19
-21
-17
-13
-14
-19
-20
-16
-10
-8
-8
-6
-3
-4
-5
-5
-5
-3
-1
-2
-2
-2
-4
-3
0
0
-2
-4
-4
-2
-2
-2
0
-2
-4
-4
-4
-6
-8
-7
-5
-5
-4
0
5
11
12
6
-7
-25
-52
-84
-107
-116
-110
-93
-77
-58
-42
-27
-18
-12
-8
-4
-1
0
3
8
11
11
9
10
9
8
8
7
6
8
10
11
9
8
9
9
9
9
10
11
10
9
8
7
7
8
9
9
10
13
15
18
19
16
12
11
11
13
16
17
17
17
16
17
16
15
15
16
16
13
10
9
7
5
6
7
8
8
9
11
13
10
8
10
14
17
16
14
13
14
15
16
16
15
14
15
18
20
20
17
15
16
17
17
18
20
21
20
17
14
11
10
9
7
4
5
7
9
11
12
14
17
20
20
20
20
19
21
23
24
24
26
28
30
29
28
28
27
27
27
29
30
30
28
28
29
30
31
31
32
32
31
29
29
32
36
42
47
48
39
25
3
-23
-58
-86
-96
-89
-74
-52
-32
-16
-4
6
15
21
27
31
34
36
39
40
40
39
41
41
40
42
43
44
43
44
45
44
43
43
44
42
43
42
42
41
41
41
40
40
39
41
41
41
41
43
45
45
44
43
43
44
45
45
43
41
41
42
42
43
43
41
39
37
37
37
37
34
33
33
33
34
35
34
33
34
34
34
34
36
40
38
35
33
35
37
38
38
37
37
37
38
38
39
39
38
38
36
34
35
36
37
39
41
41
40
37
35
31
31
30
29
27
27
29
31
33
34
37
39
39
39
40
41
40
40
41
42
44
45
45
44
45
47
48
48
47
46
46
47
47
47
47
47
46
46
47
47
48
48
46
42
45
52
58
60
56
47
33
11
-18
-51
-75
-80
-69
-48
-24
-5
9
20
27
32
36
43
47
48
45
43
42
42
44
44
46
45
45
42
41
43
44
44
40
39
38
39
38
37
37
36
37
37
38
38
38
38
37
36
36
40
44
43
39
39
39
38
36
36
37
37
37
37
37
37
37
38
35
33
31
30
29
28
28
27
26
26
27
28
26
25
24
26
27
28
28
29
28
25
25
25
25
24
24
24
23
23
24
25
25
25
24
22
20
18
18
19
19
19
20
19
19
19
16
12
9
9
6
3
2
3
5
7
7
8
10
13
15
16
16
16
15
13
12
14
17
19
19
17
15
15
17
16
16
15
13
12
14
15
14
12
11
11
10
10
11
11
12
14
17
21
23
18
6
-11
-39
-73
-102
-119
-111
-96
-75
-53
-37
-24
-15
-7
-1
3
9
12
12
14
17
18
16
14
13
13
15
15
14
14
15
15
14
15
16
18
19
19
17
16
15
14
15
16
17
17
17
16
16
17
18
20
20
19
20
21
18
15
15
16
17
17
17
17
16
15
14
14
11
9
7
5
4
4
6
5
4
2
2
3
4
3
4
6
5
4
4
4
2
4
7
7
5
5
4
5
6
7
8
7
7
7
6
7
6
6
6
6
3
0
-2
-5
-8
-10
-11
-10
-8
-6
-4
-3
-2
0
3
4
3
2
3
2
2
2
2
2
1
1
2
5
5
2
0
1
2
3
4
4
5
6
6
7
6
6
5
5
6
8
12
17
20
18
12
1
-16
-44
-75
-102
-121
-116
-100
-78
-58
-42
-25
-14
-8
-6
-1
3
5
7
9
8
8
8
9
8
7
8
10
10
8
7
9
10
12
11
9
8
10
11
9
10
9
9
9
10
9
10
11
9
8
8
9
9
10
10
9
7
5
6
6
6
6
6
5
4
4
3
2
2
1
0
-1
0
1
2
1
0
-1
-1
-2
-3
-1
0
0
1
2
1
0
0
2
5
4
1
1
2
3
3
1
0
0
2
2
2
0
-1
-1
0
-1
0
2
1
0
-3
-6
-8
-10
-13
-15
-18
-18
-16
-13
-11
-11
-11
-11
-9
-5
-4
-5
-7
-8
-7
-6
-5
-4
-4
-2
-2
-3
-3
-3
-3
-3
-5
-8
-8
-5
-2
-1
-1
-3
-4
-5
-5
-5
-4
-3
-1
4
8
9
7
-1
-17
-44
-77
-105
-116
-110
-92
-74
-55
-40
-28
-19
-14
-11
-6
-1
0
1
2
1
0
0
1
1
1
2
1
1
1
2
2
0
-2
-4
-3
-2
-2
-3
-4
-5
-5
-4
-5
-6
-5
-4
-4
-4
-5
-5
-6
-7
-8
-6
-6
-7
-7
-6
-5
-7
-6
-6
-6
-5
-5
-5
-8
-11
-13
-14
-15
-16
-17
-17
-17
-18
-17
-16
-15
-15
-16
-15
-14
-14
-14
-15
-15
-14
-13
-13
-13
-11
-11
-13
-13
-13
-13
-14
-16
-16
-17
-17
-17
-17
-17
-18
-18
-16
-13
-13
-17
-21
-24
-26
-28
-29
-31
-32
-34
-32
-30
-28
-26
-25
-24
-22
-20
-19
-19
-18
-18
-15
-13
-14
-18
-20
-19
-19
-19
-19
-19
-19
-19
-20
-22
-22
-20
-17
-17
-18
-19
-20
-20
-20
-20
-21
-19
-15
-7
-5
-9
-18
-33
-53
-81
-108
-131
-141
-134
-119
-101
-82
-65
-52
-40
-33
-28
-25
-22
-19
-19
-17
-17
-16
-15
-14
-12
-12
-13
-15
-15
-14
-11
-10
-9
-10
-14
-14
-13
-12
-14
-16
-16
-15
-13
-13
-14
-14
-14
-14
-14
-14
-14
-14
-13
-10
-9
-11
-13
-13
-12
-12
-11
-10
-12
-15
-16
-15
-15
-17
-18
-17
-16
-18
-20
-21
-21
-22
-22
-22
-20
-20
-20
-19
-17
-19
-19
-17
-16
-16
-17
-18
-19
-19
-18
-16
-14
-14
-14
-13
-14
-17
-17
-15
-14
-14
-16
-16
-16
-14
-14
-17
-21
-24
-24
-27
-30
-30
-26
-23
-22
-18
-17
-16
-15
-13
-12
-14
-14
-13
-12
-11
-10
-9
-9
-10
-9
-7
-7
-7
-8
-4
-1
-2
-7
-10
-9
-8
-8
-7
-7
-7
-7
-8
-8
-7
-3
0
1
-1
-9
-19
-37
-63
-89
-114
-123
-116
-100
-78
-59
-43
-29
-21
-21
-20
-16
-13
-15
-16
-13
-10
-9
-13
-17
-18
-16
-11
-5
-2
-6
-10
-13
-15
-14
-13
-15
-16
-14
-13
-13
-13
-13
-14
-13
-9
-9
-12
-15
-16
-14
-13
-18
-20
-13
-6
-4
-4
-6
-9
-11
-12
-13
-13
-12
-10
-10
-12
-14
-14
-12
-10
-10
-10
-11
-15
-22
-18
-8
-4
-5
-7
-11
-13
-11
-8
-5
-5
-5
-3
-4
-8
-9
-7
-3
-1
0
0
-2
-3
1
4
0
-7
-8
-7
-6
-5
-2
5
10
9
3
0
0
-2
-8
-14
-20
-21
-14
-4
-1
-1
0
0
1
3
3
2
-2
-4
0
8
13
14
11
8
12
14
11
5
8
19
23
19
15
14
15
17
13
9
10
12
13
16
20
19
21
23
25
25
24
16
-7
-36
-65
-85
-84
-75
-61
-47
-30
-13
-3
2
4
8
16
25
28
25
24
22
21
24
26
25
25
26
26
26
24
20
18
19
22
22
22
22
22
23
22
20
19
23
27
29
29
26
21
21
27
28
23
20
20
18
16
20
26
26
23
20
19
19
19
20
19
18
17
14
12
15
18
18
14
14
17
17
14
16
20
18
16
16
17
16
12
11
15
20
20
18
16
17
22
26
24
18
13
12
15
21
24
21
20
19
20
22
19
17
19
23
22
17
14
15
16
18
21
24
23
21
20
25
30
31
31
27
26
27
29
28
27
27
32
44
53
50
37
32
29
29
34
38
36
30
30
33
36
36
36
35
33
34
38
46
52
51
39
25
8
-16
-41
-59
-69
-67
-58
-39
-15
3
12
17
21
26
30
32
34
36
39
43
43
41
40
41
42
42
44
47
46
43
43
45
47
47
44
44
47
47
47
49
51
52
55
59
55
49
46
45
44
47
52
56
57
52
48
45
48
51
50
48
46
47
45
47
50
52
50
48
46
46
48
48
45
42
44
45
46
46
46
46
46
47
46
46
48
50
51
51
53
54
56
57
57
54
50
52
52
51
48
50
54
56
54
51
53
54
52
49
46
43
41
42
40
37
36
42
48
49
49
47
47
48
53
56
56
54
50
50
49
51
51
53
54
56
58
57
57
57
60
62
62
59
57
57
59
62
62
61
59
58
58
60
65
71
75
71
65
52
33
5
-22
-47
-63
-60
-41
-20
0
15
25
33
40
44
50
56
57
56
56
56
54
54
55
58
59
56
55
55
56
56
56
56
56
57
56
56
53
53
55
57
57
56
57
58
60
58
56
53
55
56
55
54
56
58
54
52
50
52
53
53
50
49
51
52
51
48
47
47
44
42
43
46
44
42
42
44
45
46
46
42
40
40
43
42
42
43
42
42
42
44
43
42
42
41
43
44
42
40
41
43
43
41
38
38
39
41
41
39
40
43
44
41
41
40
38
33
30
29
30
32
30
29
29
30
31
33
35
36
37
39
40
38
34
32
34
34
33
33
35
38
38
37
36
35
39
43
40
34
34
35
35
34
32
34
37
37
34
33
36
42
47
44
34
17
-6
-36
-64
-83
-85
-75
-61
-47
-31
-15
-1
9
18
23
28
29
27
27
28
28
29
33
33
30
27
27
28
29
30
30
30
29
27
25
24
24
24
24
23
24
23
23
24
26
25
22
21
20
21
22
21
18
18
19
20
19
19
20
20
18
17
17
16
14
13
14
12
7
5
4
5
4
3
2
2
1
0
2
3
3
1
-1
0
3
4
0
-2
0
0
0
-1
-1
0
0
-1
-2
-2
-2
-1
0
-1
-4
-6
-3
-1
0
0
-1
-5
-11
-13
-13
-14
-14
-11
-8
-8
-6
-4
-2
-1
0
1
1
1
0
0
2
2
3
3
3
4
3
3
3
2
0
0
0
-1
-2
0
1
1
2
1
0
-1
0
0
0
3
8
13
15
7
-8
-30
-58
-85
-110
-122
-117
-104
-83
-64
-47
-32
-20
-15
-10
-5
0
2
3
3
0
-1
0
1
2
4
5
3
1
0
1
1
0
1
1
0
0
0
-2
-3
-3
-1
0
0
0
2
2
1
1
4
4
3
4
5
6
6
6
8
7
5
3
2
2
1
1
1
1
0
-2
-6
-8
-8
-6
-4
-4
-7
-7
-7
-6
-6
-5
-6
-6
-5
-5
-4
-4
-3
-4
-4
-3
-2
-1
-2
-1
-2
-3
-2
0
0
-2
-4
-6
-5
-2
0
0
1
0
-2
-7
-9
-10
-10
-10
-11
-10
-8
-5
-2
-2
-1
0
1
2
3
4
4
2
2
4
5
5
4
4
4
5
8
9
10
9
9
10
12
12
10
7
5
8
10
10
10
11
13
18
22
24
22
14
2
-18
-50
-81
-102
-105
-91
-74
-52
-35
-22
-13
-6
0
5
10
12
13
15
19
22
22
20
20
22
20
15
12
15
19
19
19
17
16
16
16
18
19
18
18
18
18
16
16
18
20
19
18
20
20
20
21
20
19
17
18
20
21
19
18
18
19
20
19
18
16
16
14
12
10
11
12
11
9
9
11
14
14
14
13
12
12
12
12
13
13
13
15
17
18
18
19
20
20
19
19
19
18
19
21
24
23
23
25
25
25
24
22
20
23
25
23
19
16
14
11
9
9
9
10
12
15
16
17
17
19
21
21
22
21
20
18
20
22
24
25
25
27
27
28
28
29
29
30
31
32
33
32
30
28
28
29
30
30
31
32
33
36
39
41
39
33
23
1
-31
-66
-91
-98
-92
-74
-55
-37
-20
-5
5
12
17
24
28
30
32
32
31
30
30
29
28
30
31
32
31
31
30
29
29
30
30
29
27
27
27
27
26
27
28
28
26
25
24
25
27
28
28
26
26
25
27
27
28
27
25
26
26
26
25
23
22
21
21
21
20
17
16
14
13
12
12
12
13
13
12
11
9
9
12
13
12
10
10
9
9
8
7
7
7
7
7
8
7
5
4
5
6
6
6
7
9
9
9
9
8
5
2
0
-2
-4
-5
-5
-3
-1
0
0
1
3
6
9
10
10
9
9
8
9
11
12
12
10
11
12
12
12
12
11
9
9
10
12
11
11
12
11
10
9
10
11
12
13
17
23
28
27
20
9
-5
-29
-59
-88
-107
-111
-102
-85
-64
-41
-23
-12
-6
0
3
8
11
13
13
14
14
15
14
14
14
14
13
12
12
11
11
13
13
13
10
8
9
13
12
10
9
8
8
9
11
11
10
9
8
8
9
9
8
8
9
11
10
9
8
7
6
6
4
2
1
1
1
0
-3
-4
-4
-5
-5
-5
-5
-4
-4
-6
-8
-8
-8
-7
-6
-5
-5
-5
-5
-6
-7
-6
-6
-6
-6
-6
-5
-6
-9
-9
-9
-7
-7
-8
-8
-8
-7
-5
-4
-6
-6
-6
-6
-6
-8
-9
-11
-13
-16
-19
-21
-20
-16
-13
-11
-12
-13
-12
-10
-8
-7
-8
-11
-12
-12
-10
-9
-8
-7
-6
-3
-2
-2
-1
-2
-2
-2
-3
-3
-4
-4
-4
-2
-2
-3
-5
-5
-4
-2
1
6
9
9
7
0
-13
-36
-66
-95
-110
-103
-88
-66
-48
-34
-23
-15
-11
-8
-5
-1
0
0
1
0
0
0
1
2
2
2
0
0
0
0
0
1
2
1
0
0
1
1
1
2
3
3
1
0
0
1
1
0
0
0
0
1
2
1
1
3
6
8
8
5
2
1
0
0
-2
-2
0
1
-1
-4
-6
-6
-4
-5
-7
-7
-7
-7
-6
-4
-4
-4
-4
-4
-5
-5
-5
-5
-5
-3
-1
0
-1
-2
-3
-1
-1
-2
-3
-2
-1
-1
-1
-1
-3
-3
-1
1
0
-1
-4
-7
-9
-9
-11
-15
-16
-14
-10
-8
-7
-4
-2
-2
0
2
2
-1
-3
-2
-1
0
1
5
7
6
6
8
10
9
5
2
4
6
5
6
7
7
8
10
11
9
8
7
9
11
16
20
17
5
-12
-34
-59
-85
-101
-102
-86
-69
-50
-33
-20
-10
-2
5
11
14
15
16
20
23
23
20
16
17
19
19
19
21
21
18
22
26
25
23
22
23
24
25
26
27
26
25
24
23
22
21
24
27
28
28
28
27
29
31
30
32
33
32
30
34
39
35
30
29
29
27
30
33
31
29
30
31
28
26
25
25
25
25
27
27
28
28
28
25
23
23
25
29
30
30
29
29
30
32
33
32
32
30
30
29
29
29
30
31
31
30
29
29
27
24
19
14
11
11
13
14
13
14
15
14
13
13
13
13
12
12
10
8
6
5
5
5
6
7
7
7
7
10
10
9
9
10
11
9
10
12
13
14
13
14
15
17
20
26
30
33
30
24
12
-7
-34
-63
-83
-90
-85
-68
-51
-35
-18
-5
2
8
13
17
21
23
21
17
15
17
20
21
21
21
20
15
12
14
14
13
16
17
16
15
16
17
20
22
23
21
16
14
16
16
12
11
13
16
19
19
14
8
6
8
10
11
12
12
9
6
4
3
5
5
6
5
4
2
0
0
1
0
-2
-2
-3
-2
0
-2
-5
-1
3
6
11
14
13
9
8
12
11
5
6
13
18
22
26
25
14
8
7
6
13
23
26
22
18
17
18
20
19
18
13
9
9
11
12
10
9
6
4
5
10
13
16
20
23
23
24
27
23
18
15
22
29
27
20
22
30
29
19
17
22
25
25
25
24
22
18
13
12
16
19
15
10
9
13
20
27
30
28
18
2
-16
-36
-61
-81
-84
-71
-54
-40
-29
-17
-7
-2
0
1
3
7
12
16
11
4
4
9
10
11
12
12
11
10
10
11
11
9
9
9
9
9
9
8
6
5
6
6
4
2
1
1
0
0
0
1
0
0
0
0
0
-1
0
0
0
0
0
-1
-2
-1
-1
-1
0
-1
-1
-1
-1
0
0
0
0
0
0
0
0
0
0
0
-1
-2
-2
-2
-3
-3
-4
-4
-5
-6
-6
-8
-8
-8
-7
-6
-5
-5
-2
-1
-1
-3
-6
-8
-10
-12
-14
-14
-12
-10
-9
-10
-9
-8
-8
-6
-4
-1
0
0
-2
-4
-4
-4
-3
-2
0
0
1
2
2
3
4
6
6
7
7
7
8
9
10
9
9
9
9
8
8
10
15
19
20
16
8
-1
-17
-42
-67
-86
-88
-76
-61
-45
-31
-19
-10
-4
-2
0
2
7
10
13
14
15
13
11
12
14
15
14
14
14
15
16
16
15
14
15
17
17
17
17
17
19
19
19
19
20
22
22
21
22
24
25
25
24
21
22
23
25
26
27
24
22
23
24
23
20
20
21
20
17
15
16
14
12
13
15
14
13
12
12
12
13
13
14
14
13
12
11
11
13
15
13
11
10
13
14
14
13
14
14
14
14
14
14
13
12
13
14
13
11
11
12
13
12
11
7
4
3
1
0
0
2
4
7
8
10
11
11
11
12
15
13
11
11
11
10
12
14
14
15
14
15
16
17
18
19
19
19
20
21
20
18
17
17
17
19
20
20
19
22
27
29
27
18
1
-20
-43
-64
-79
-80
-70
-59
-43
-27
-15
-6
1
6
10
15
18
20
22
23
22
21
21
22
21
19
20
22
23
22
22
23
25
26
26
24
24
26
27
25
24
23
22
23
24
24
22
21
21
22
23
25
25
23
19
19
20
23
24
23
23
22
22
23
24
23
21
18
17
17
17
17
15
15
14
14
13
13
14
14
15
16
16
15
15
16
17
17
15
15
15
16
16
16
15
14
15
16
17
16
14
14
14
14
14
14
15
15
13
13
15
14
11
7
4
3
2
1
1
1
2
3
7
9
9
10
12
13
14
15
16
16
16
15
13
13
15
17
17
18
17
19
20
20
19
19
18
18
18
17
17
17
18
19
18
19
21
25
29
32
30
23
14
0
-23
-50
-76
-87
-85
-70
-52
-33
-16
-5
3
8
11
14
16
18
18
17
18
20
21
21
19
19
18
17
18
20
20
20
21
21
21
20
20
20
19
19
20
20
20
20
21
22
22
20
20
20
22
23
25
25
24
22
20
20
21
22
22
22
22
22
19
17
16
17
17
14
12
11
12
12
13
13
12
11
11
11
12
13
14
15
14
14
14
15
16
16
16
17
16
16
15
16
16
16
16
16
17
18
19
18
18
17
15
13
10
8
6
4
4
4
5
6
8
9
11
13
16
18
17
16
15
15
16
16
16
17
17
17
18
17
19
20
20
20
19
19
19
19
20
21
22
24
23
23
21
21
22
25
30
35
37
33
24
10
-10
-39
-68
-87
-88
-75
-55
-39
-25
-11
0
9
14
18
22
23
24
26
28
31
32
31
29
27
27
28
28
27
28
29
29
29
28
28
27
29
30
31
31
31
30
30
31
32
34
32
31
30
31
32
32
32
32
35
35
34
32
32
32
34
34
33
32
31
32
30
29
28
26
25
25
27
27
26
23
23
24
24
25
25
24
24
23
22
23
24
25
26
25
26
27
29
29
28
28
27
27
26
26
25
26
28
27
27
26
27
27
27
27
27
27
25
22
19
15
12
11
12
13
15
16
17
18
20
23
24
23
22
22
22
22
22
22
21
21
22
24
24
24
25
25
25
25
25
24
23
24
25
26
24
23
22
23
24
24
26
32
36
34
26
14
-4
-32
-63
-88
-98
-93
-80
-62
-44
-28
-14
-2
5
10
14
19
20
21
22
22
21
21
22
23
25
24
23
22
21
20
20
20
20
20
19
18
17
17
18
17
16
16
15
14
15
18
19
19
18
18
19
19
18
17
17
18
18
17
16
15
16
17
15
13
13
13
14
13
10
8
8
8
8
7
5
4
5
5
6
6
5
4
4
4
3
3
3
3
3
3
5
5
4
3
2
1
1
3
3
2
2
2
2
2
2
3
3
2
1
0
-3
-7
-10
-11
-12
-11
-8
-6
-5
-5
-4
-3
0
3
3
2
2
2
2
3
4
3
3
2
3
4
4
4
4
4
5
6
6
6
6
5
4
3
3
4
3
2
2
4
9
14
18
15
7
-4
-22
-44
-71
-96
-110
-111
-98
-78
-56
-40
-29
-19
-12
-9
-5
1
6
8
9
9
7
7
9
10
11
11
9
9
9
9
7
6
6
8
10
9
7
7
8
9
9
9
8
8
9
9
9
10
11
11
12
13
13
13
13
14
15
15
13
10
10
12
13
13
12
9
7
5
5
5
6
6
6
7
8
7
5
3
3
4
6
6
6
6
6
6
5
6
7
7
6
8
10
10
10
9
8
7
7
9
11
11
10
8
8
8
8
8
9
11
11
8
4
1
0
0
-3
-5
-6
-3
-2
1
3
5
6
6
8
9
8
7
7
9
9
9
10
12
14
14
13
11
11
13
14
13
13
13
13
13
12
12
13
13
13
13
12
12
16
22
26
26
20
9
-8
-35
-65
-86
-95
-87
-72
-52
-34
-21
-11
-3
1
6
9
14
17
17
17
18
17
18
20
22
22
20
20
20
19
18
18
21
24
23
22
21
21
20
20
21
22
22
22
22
21
21
22
23
22
22
22
22
23
23
23
23
23
24
25
26
25
24
23
23
23
21
20
17
16
16
15
14
15
16
16
17
16
15
14
16
16
15
15
15
17
17
16
15
16
17
17
18
17
16
15
14
14
13
12
12
13
13
12
13
15
15
14
14
14
13
11
8
6
5
4
2
0
1
3
5
7
9
11
13
14
14
14
15
15
16
15
14
14
13
15
15
15
15
16
17
17
17
15
15
14
15
16
16
15
15
14
13
14
17
22
24
25
22
12
-2
-26
-57
-84
-103
-105
-97
-81
-62
-45
-27
-15
-6
1
7
12
16
18
20
22
23
23
23
22
21
21
21
21
21
21
21
21
21
22
23
21
20
20
19
18
18
19
19
20
19
17
17
19
20
20
21
20
20
21
21
21
21
22
22
22
21
21
20
20
18
17
19
19
18
14
12
11
10
9
9
10
10
10
10
10
10
11
11
10
9
9
10
11
11
10
9
9
10
10
9
9
8
9
8
8
7
7
9
11
11
9
6
1
0
-2
-5
-7
-6
-5
-4
-2
0
1
3
6
8
9
9
9
9
7
7
8
8
8
9
10
10
10
12
11
11
13
15
15
14
15
15
14
13
13
15
15
14
14
17
21
26
28
27
17
2
-19
-44
-71
-94
-110
-107
-96
-77
-55
-35
-19
-11
-5
0
9
17
17
15
17
20
20
17
18
20
21
19
17
17
16
14
13
16
19
17
14
13
14
14
13
13
15
16
13
10
9
10
11
11
12
13
14
13
10
8
8
9
13
16
16
12
10
9
10
12
13
11
9
7
8
9
10
11
11
7
4
5
8
9
9
11
11
9
10
13
13
10
8
8
11
14
13
11
9
9
13
19
20
15
12
13
13
13
13
13
12
10
10
9
11
13
11
9
7
3
-2
-3
2
5
4
3
4
5
8
12
15
14
12
14
17
20
16
13
14
16
16
17
20
21
22
21
19
17
16
20
23
23
20
19
20
24
25
25
24
21
20
22
26
32
35
34
28
16
-6
-37
-66
-83
-85
-75
-58
-40
-23
-10
-2
7
17
24
25
23
23
28
32
33
29
26
27
30
32
28
23
25
31
32
26
25
29
32
32
32
29
25
25
28
30
28
28
26
22
20
21
24
26
27
26
26
24
20
20
25
29
28
25
22
23
26
27
26
23
18
17
21
21
18
15
17
23
25
20
12
11
13
15
15
15
18
19
17
15
18
19
15
13
17
20
18
15
18
21
19
15
16
19
19
17
16
17
18
18
19
20
16
12
9
5
3
5
9
8
3
0
2
8
12
10
9
14
19
23
22
17
13
15
21
20
19
22
25
24
21
19
23
27
29
27
24
21
21
21
17
13
14
19
23
23
21
18
17
19
26
36
34
20
2
-17
-45
-74
-95
-100
-95
-82
-64
-44
-29
-15
-4
0
1
9
17
18
17
20
25
25
22
21
22
22
19
17
20
26
26
23
21
22
21
22
23
23
21
20
24
25
23
21
18
19
23
26
26
23
20
19
21
24
25
23
18
16
18
21
22
20
17
14
13
16
18
16
14
13
11
11
12
12
10
7
7
7
7
9
10
10
6
4
7
10
9
5
5
8
11
12
11
10
10
11
12
12
12
10
10
14
17
17
17
13
10
8
6
4
1
0
-1
-1
1
4
5
6
8
10
12
14
15
15
16
14
13
12
12
14
14
14
15
18
18
17
18
19
19
19
18
18
20
22
24
23
21
20
20
20
21
23
28
32
33
27
16
1
-24
-53
-82
-97
-100
-93
-77
-59
-42
-27
-14
-3
4
9
14
18
20
19
20
21
21
22
23
23
20
20
21
21
21
20
19
18
19
20
19
18
18
19
19
19
19
21
20
18
17
19
21
22
22
21
21
22
22
22
22
22
21
22
22
21
21
21
20
19
18
17
16
16
15
13
11
11
10
10
11
10
9
8
8
8
9
10
11
10
11
13
13
13
14
15
15
16
17
17
18
17
16
15
15
15
15
15
15
15
14
14
15
17
17
17
15
12
10
7
5
2
3
5
7
9
9
9
10
13
15
17
17
17
17
17
17
17
16
16
18
18
19
20
22
23
23
24
24
24
24
24
25
24
25
25
25
24
24
25
24
27
31
38
39
35
27
14
-2
-28
-55
-76
-87
-80
-65
-45
-27
-13
-1
7
12
16
20
23
25
25
25
26
26
25
26
25
25
25
25
25
25
26
26
26
26
26
26
25
25
24
25
24
24
24
24
25
24
25
26
26
28
28
28
27
27
27
27
27
27
27
28
27
28
30
30
28
26
25
25
23
22
20
19
18
18
18
18
17
17
17
17
17
17
18
19
18
18
17
18
18
19
19
18
18
18
18
18
17
16
16
16
15
15
16
16
17
17
17
15
12
9
6
4
4
4
5
6
7
9
10
11
13
16
18
17
17
15
15
14
15
14
15
16
18
19
19
20
21
22
22
22
23
23
23
23
23
23
22
21
21
21
20
22
25
30
33
34
28
18
2
-24
-54
-79
-91
-84
-71
-51
-32
-15
-4
3
9
13
17
21
25
27
27
27
28
28
27
27
26
26
26
27
27
27
27
28
28
28
28
29
30
30
30
29
29
29
29
30
30
30
30
30
30
31
31
32
32
32
33
33
34
33
32
32
31
32
31
30
28
27
26
25
25
24
25
24
24
23
23
22
20
20
21
22
20
20
19
19
19
20
21
21
21
20
20
20
20
21
22
22
21
21
22
22
22
23
24
24
24
24
23
22
20
19
16
12
9
7
8
9
11
13
16
17
19
21
23
23
22
21
19
19
19
20
20
19
19
19
21
21
21
20
20
20
21
22
22
22
23
23
23
24
25
26
25
24
27
30
34
36
36
30
18
-4
-34
-65
-86
-94
-86
-73
-55
-38
-21
-7
2
9
14
18
23
25
27
28
28
28
28
28
27
27
28
27
27
26
26
24
24
24
25
25
24
25
24
24
23
23
22
22
23
23
23
22
21
21
21
22
22
23
22
22
22
22
22
22
22
21
20
20
20
20
19
18
17
16
16
15
14
14
13
12
12
13
13
13
12
13
13
13
14
14
14
14
14
15
15
15
15
15
15
15
16
16
16
15
15
16
16
17
17
17
17
16
17
17
18
18
18
17
16
14
13
12
9
6
4
4
5
8
10
11
12
13
16
17
19
19
19
19
19
19
20
21
21
22
22
22
22
22
22
21
22
22
23
23
23
22
21
21
20
20
20
20
21
23
29
34
36
33
25
14
-2
-29
-60
-87
-98
-94
-77
-56
-35
-17
-4
3
8
12
16
20
23
25
25
25
25
26
25
25
24
25
25
24
24
23
22
21
22
22
21
20
19
19
18
17
16
16
15
15
15
16
16
16
17
16
17
17
18
19
18
19
19
19
19
20
19
19
19
18
18
17
17
16
15
13
12
11
11
10
10
9
9
9
10
10
10
10
11
12
13
15
14
14
13
12
12
12
12
13
13
13
14
14
14
14
14
14
14
15
15
15
14
14
11
8
5
2
0
0
0
1
2
4
4
5
7
9
12
14
15
14
13
13
12
14
15
16
18
18
18
18
18
18
19
19
19
19
19
19
18
18
19
18
17
17
17
17
18
22
27
32
32
27
16
1
-20
-49
-80
-98
-103
-90
-71
-50
-31
-16
-5
1
6
10
15
19
21
22
22
22
22
23
24
25
25
24
24
23
22
22
22
22
23
23
23
23
22
22
21
21
21
20
20
19
19
19
19
19
19
19
19
19
19
19
20
21
21
22
21
20
20
20
20
19
18
16
15
14
14
13
12
12
12
12
12
12
11
11
11
12
13
13
14
14
14
14
15
16
16
16
15
15
16
16
16
16
16
16
16
15
15
15
14
14
15
15
16
16
17
16
14
12
9
6
5
4
2
3
5
7
8
10
12
15
18
18
17
18
17
17
16
16
17
18
20
20
21
21
22
22
23
24
23
23
23
23
23
22
20
20
20
18
17
17
20
23
28
31
28
19
4
-16
-43
-69
-85
-90
-81
-67
-51
-33
-20
-8
0
5
10
14
18
20
21
23
24
23
23
24
23
23
23
23
22
22
22
22
22
22
21
21
20
20
19
17
17
17
18
18
18
17
17
17
16
16
16
17
18
17
16
16
17
17
18
18
18
16
15
14
13
14
14
13
11
10
9
9
9
8
7
6
6
7
7
7
7
7
7
7
7
7
8
7
7
7
8
8
8
7
7
7
7
7
6
5
5
6
5
5
4
4
4
5
7
7
6
4
2
0
-2
-5
-7
-6
-5
-3
-1
-1
-1
0
2
4
4
3
2
2
1
2
2
2
2
3
4
5
6
7
8
7
7
7
7
7
7
7
7
6
6
5
5
4
5
8
13
17
17
12
5
-5
-24
-51
-79
-98
-105
-98
-82
-65
-46
-30
-16
-8
-3
0
4
8
10
11
10
10
10
11
10
10
10
9
9
9
9
9
9
9
9
8
8
7
7
7
6
6
6
6
7
7
8
7
8
8
8
8
7
8
8
8
7
7
7
7
7
6
7
7
6
5
4
4
3
2
1
0
0
0
0
0
-1
-1
-1
-1
-1
-1
-1
0
0
0
1
1
1
1
1
1
1
1
2
2
2
2
3
2
1
2
2
2
2
4
3
3
1
-1
-3
-6
-9
-11
-12
-11
-9
-7
-6
-6
-5
-3
0
3
3
2
1
0
0
-1
-2
-1
0
0
0
1
1
3
4
4
5
6
6
6
6
6
6
6
7
7
7
7
7
9
13
19
23
21
12
0
-18
-42
-69
-92
-106
-105
-93
-73
-52
-32
-19
-10
-3
1
5
10
13
15
15
16
17
16
17
17
18
18
18
19
19
19
18
18
18
18
18
18
18
16
16
15
15
14
14
15
15
15
14
14
14
15
15
15
15
16
17
16
16
16
17
17
17
16
15
15
14
13
12
10
9
8
7
7
6
6
5
5
4
4
4
4
4
4
4
4
4
4
5
6
5
5
5
6
7
7
7
7
7
8
8
8
8
8
9
8
9
9
10
10
8
6
2
0
-3
-5
-7
-7
-5
-2
0
0
0
2
5
8
9
9
9
8
7
7
7
7
7
7
8
7
7
9
10
11
11
11
11
10
10
12
12
12
11
10
10
9
10
11
14
18
23
24
21
13
0
-21
-50
-81
-100
-105
-94
-78
-59
-41
-27
-17
-8
-2
2
7
12
15
15
15
15
16
16
17
18
19
19
19
19
18
18
18
18
17
17
17
17
16
15
14
14
14
14
15
15
14
14
15
15
14
14
15
15
14
13
13
13
12
12
11
11
11
10
9
8
6
4
3
3
3
2
0
0
0
0
-1
-1
0
0
1
1
1
2
1
2
3
4
4
3
3
3
4
4
4
4
4
3
3
4
5
5
5
5
5
5
5
6
5
5
6
6
5
3
0
-2
-4
-7
-7
-7
-6
-5
-3
-2
-1
0
2
3
3
3
3
3
2
2
2
2
3
3
4
4
5
4
4
4
4
4
4
4
4
5
5
5
6
6
6
6
7
10
14
17
16
10
0
-18
-44
-74
-95
-106
-100
-85
-69
-51
-35
-21
-12
-6
-2
2
6
8
9
10
10
10
10
11
11
11
11
12
12
12
12
11
11
11
11
11
11
11
10
9
9
9
9
8
9
9
9
9
10
11
11
11
11
11
11
11
11
11
12
11
12
11
10
9
9
8
6
5
4
3
2
1
2
1
0
0
0
0
0
1
1
1
0
1
1
2
2
3
3
2
2
3
3
4
4
5
4
4
4
4
3
3
4
5
5
5
4
2
0
-3
-4
-7
-9
-10
-8
-6
-6
-5
-4
-3
-1
0
1
1
0
0
-1
-1
-1
-2
-1
-1
0
2
4
6
6
5
6
7
7
7
6
6
7
7
8
8
7
7
8
9
12
18
23
24
19
9
-5
-27
-55
-81
-100
-98
-85
-64
-44
-28
-15
-5
0
4
8
12
14
15
16
16
16
16
16
16
16
16
15
16
16
16
17
18
18
18
19
20
20
19
19
18
18
19
19
19
19
20
21
22
23
23
23
23
23
22
22
22
22
22
22
22
22
21
20
20
19
17
15
14
14
12
11
11
10
8
7
7
8
8
8
9
9
9
8
8
9
9
11
12
12
11
11
10
11
12
12
12
13
14
14
14
14
13
14
15
16
17
17
16
14
13
10
8
6
3
3
4
6
6
7
7
8
10
13
16
16
15
12
12
12
12
12
12
12
13
14
15
16
17
18
19
19
20
20
20
19
20
20
20
19
19
20
20
20
21
26
32
34
31
23
10
-11
-40
-71
-94
-98
-88
-70
-50
-33
-18
-5
3
8
12
17
21
23
25
25
25
24
25
26
25
26
26
27
26
25
25
25
25
24
25
26
25
24
24
24
24
25
25
25
25
25
25
25
26
26
27
27
28
27
28
27
27
27
27
26
26
26
25
25
23
22
21
20
19
18
18
18
17
17
17
16
15
15
15
15
15
16
15
15
16
16
15
14
14
15
15
16
15
14
14
15
16
17
17
17
17
16
16
15
15
16
16
17
16
17
16
16
15
11
9
6
4
2
2
3
5
6
6
7
8
9
11
13
13
12
11
10
10
11
11
12
13
13
13
13
13
13
14
14
14
14
14
14
14
14
14
14
13
13
12
12
13
17
22
24
21
14
2
-15
-39
-66
-90
-100
-97
-81
-63
-45
-29
-17
-8
-2
1
5
8
10
10
11
11
11
11
11
12
11
11
12
12
12
11
11
11
11
12
12
13
12
11
11
11
11
11
11
12
12
12
12
12
12
13
13
13
13
14
14
14
14
14
14
13
12
12
10
9
8
7
6
5
4
3
3
2
1
1
0
0
0
0
0
0
0
0
0
0
0
1
0
0
0
0
0
0
0
0
0
1
1
2
2
3
3
4
3
4
4
4
3
1
-1
-4
-7
-9
-11
-11
-10
-8
-6
-6
-5
-3
0
2
3
4
3
2
1
1
2
2
2
3
4
4
4
5
6
7
7
7
7
7
7
7
6
5
6
7
8
8
8
9
12
17
21
21
15
4
-10
-34
-61
-86
-100
-97
-87
-68
-50
-33
-21
-11
-4
0
5
10
13
15
16
16
16
17
17
16
16
16
15
15
15
15
15
14
14
14
14
13
13
13
13
13
13
13
13
12
11
11
13
14
14
14
14
15
15
15
16
16
16
15
15
15
15
16
15
15
14
13
12
11
10
9
9
9
8
7
5
5
5
6
5
5
4
4
4
4
4
4
4
3
4
4
4
3
3
5
5
5
5
5
4
4
4
5
5
5
6
7
8
7
4
2
0
-3
-5
-6
-5
-4
-2
0
0
2
3
6
9
10
10
10
9
7
7
7
7
7
8
9
10
11
13
13
14
15
16
15
15
14
15
16
16
17
16
16
16
17
19
21
26
31
32
26
16
1
-23
-51
-77
-95
-96
-87
-68
-47
-27
-13
-4
4
9
13
17
21
24
24
25
26
27
28
28
29
28
26
26
26
27
27
26
25
24
25
25
25
25
25
25
24
23
23
24
24
25
24
25
25
26
27
28
29
29
30
30
29
28
30
31
30
30
28
28
27
27
25
25
24
23
24
23
22
21
22
21
20
20
21
21
21
21
21
22
22
23
24
24
23
23
23
24
24
23
24
25
26
26
26
26
25
24
23
23
23
23
23
24
24
23
22
20
18
15
12
10
10
11
13
14
15
15
15
18
21
21
20
19
19
19
18
19
20
21
21
21
22
22
22
22
22
22
23
24
23
23
22
22
21
21
21
21
21
20
21
24
28
31
30
23
10
-9
-38
-67
-85
-89
-77
-62
-44
-30
-16
-4
4
9
14
19
21
21
22
23
23
23
23
23
23
23
25
25
24
24
25
24
23
23
22
21
21
22
22
21
21
21
22
21
21
20
19
19
19
20
19
19
20
21
21
21
21
21
22
22
22
21
21
20
20
19
18
17
17
16
14
14
13
12
12
12
12
12
11
11
11
11
11
11
12
12
12
13
13
13
13
13
14
13
14
14
14
14
13
14
14
14
13
14
15
15
15
15
15
13
10
8
6
4
3
1
1
2
3
5
6
6
8
11
14
14
14
13
12
12
12
12
12
13
13
13
13
14
14
14
13
14
14
14
15
15
15
15
15
14
13
13
12
13
14
17
21
23
21
15
3
-13
-38
-64
-85
-93
-87
-74
-56
-36
-20
-8
-1
4
8
11
15
16
17
17
18
18
17
19
18
19
19
18
17
16
17
18
19
18
18
17
17
17
17
18
19
18
17
16
16
16
16
17
17
17
16
17
17
16
17
17
17
17
18
17
17
17
17
17
15
14
13
13
13
11
10
10
10
9
9
9
9
9
10
10
9
9
9
10
10
10
11
11
11
11
11
11
11
10
10
11
11
11
11
11
11
12
12
13
12
12
9
7
3
1
-1
-3
-3
-2
0
1
2
4
5
7
9
13
14
13
12
12
12
12
12
13
13
14
14
16
17
17
18
18
19
19
19
20
21
21
20
20
19
18
18
18
18
18
21
25
28
27
21
12
-3
-26
-55
-85
-98
-96
-81
-62
-43
-28
-14
-5
0
4
8
13
16
18
18
19
19
19
19
19
20
19
20
20
20
20
21
21
21
21
21
22
21
21
21
21
21
21
22
22
21
21
21
21
22
21
21
22
21
21
21
21
21
21
21
21
21
20
19
17
16
15
14
13
12
11
11
10
10
10
10
9
9
9
9
9
8
9
9
10
10
11
11
11
11
12
13
13
14
14
15
14
14
14
14
14
14
14
13
14
14
15
15
14
11
9
6
4
1
0
0
1
4
6
8
8
8
10
14
17
17
16
15
14
14
14
14
14
15
16
17
17
17
18
19
20
21
20
21
20
21
20
20
19
19
18
17
17
17
19
22
28
32
30
21
7
-12
-37
-65
-86
-98
-93
-78
-61
-41
-25
-12
-2
5
8
12
17
20
21
22
23
23
23
23
23
23
23
22
23
22
22
21
20
20
20
20
20
20
19
19
19
18
19
18
19
18
19
19
19
19
19
19
19
19
20
20
20
19
20
20
19
18
18
17
16
16
15
14
13
13
12
12
11
10
9
9
9
9
10
10
10
10
10
11
11
12
12
12
12
13
13
14
14
15
15
14
14
14
14
13
12
13
12
12
11
11
12
11
11
12
11
8
5
3
1
-1
-4
-5
-5
-3
0
2
3
4
6
7
8
7
7
6
5
5
6
6
6
5
5
7
9
10
9
9
9
9
10
12
14
13
10
8
8
9
9
8
8
9
13
18
21
20
14
5
-8
-32
-63
-88
-100
-95
-79
-62
-45
-31
-17
-8
-3
1
5
8
8
8
8
9
10
11
12
12
11
11
10
8
9
10
10
9
9
8
7
7
7
7
6
3
3
3
4
4
6
6
4
3
5
6
8
8
7
6
5
4
5
6
4
4
6
7
6
3
2
1
0
-1
-2
-3
-4
-4
-3
-2
-2
-3
-3
-3
-2
0
-1
-1
0
0
1
1
1
1
2
2
1
1
1
1
0
0
0
1
2
2
1
0
1
1
2
3
5
5
3
-1
-4
-5
-4
-8
-11
-11
-10
-9
-7
-4
-2
-1
0
2
3
3
2
1
2
1
0
1
2
2
3
4
6
7
7
7
7
7
7
7
7
7
7
6
5
4
4
4
3
2
5
11
16
15
6
-6
-27
-54
-83
-105
-113
-105
-92
-72
-53
-38
-28
-18
-12
-9
-4
0
3
3
4
4
5
6
7
8
7
6
7
8
7
6
6
6
7
8
10
10
9
6
4
5
6
7
9
7
6
6
7
8
8
8
9
10
10
9
10
11
10
8
10
12
11
11
12
12
9
6
4
4
3
1
0
1
1
-2
-3
-3
-3
-3
-1
2
4
0
-4
-6
-3
1
3
1
-1
-3
-3
-1
1
3
3
4
4
4
3
1
1
4
9
11
10
5
1
-3
-8
-9
-8
-4
-1
0
0
1
2
4
7
11
13
13
12
11
10
10
9
9
11
14
17
16
12
10
11
15
17
17
17
20
24
25
22
18
16
18
21
22
23
23
24
30
39
39
32
20
2
-23
-53
-82
-102
-108
-96
-75
-52
-32
-16
-1
6
9
15
19
22
22
23
24
25
27
27
25
24
28
29
28
27
27
27
25
28
30
31
30
30
29
29
31
32
31
31
33
33
33
34
34
32
31
35
37
37
36
35
35
35
36
39
40
38
36
35
36
36
34
33
34
34
33
34
33
30
28
27
29
30
29
27
26
28
29
29
27
25
27
29
32
33
32
28
28
30
34
35
32
31
31
31
30
34
35
34
31
30
31
30
30
32
35
36
34
30
26
23
19
17
20
24
25
24
24
25
25
26
29
31
32
34
33
29
28
29
29
30
33
34
33
33
35
38
39
38
38
40
41
40
38
38
39
42
41
40
40
41
44
44
47
51
56
56
49
37
15
-16
-51
-80
-88
-81
-62
-40
-19
-1
11
19
25
30
37
43
45
45
43
43
44
46
46
47
46
47
48
47
46
45
44
44
43
43
42
42
43
44
43
42
43
44
44
43
42
42
45
48
48
46
44
45
45
46
46
45
44
44
45
44
42
40
43
45
43
40
37
37
37
36
34
32
31
31
33
33
33
30
31
33
34
33
31
30
30
30
31
33
33
32
32
33
33
32
33
34
35
34
31
30
30
31
32
32
32
32
31
32
33
33
33
30
29
28
25
22
20
18
17
18
20
21
22
24
25
28
32
32
30
29
29
29
29
31
33
35
36
36
35
35
35
34
35
35
35
34
34
33
33
34
33
34
33
34
32
32
35
39
45
50
51
43
30
9
-20
-52
-81
-93
-86
-70
-49
-31
-12
4
15
20
23
27
30
31
33
35
35
36
37
37
36
35
34
33
32
32
33
32
32
32
33
32
32
31
29
29
27
27
28
27
26
27
30
30
30
29
30
29
29
30
30
30
28
28
27
28
27
27
26
25
24
23
22
21
22
23
21
19
19
19
18
17
18
18
18
17
18
19
19
19
20
21
22
22
20
19
19
21
22
22
21
21
21
21
22
22
23
23
23
22
22
22
22
22
22
20
19
18
16
16
14
10
7
7
9
11
13
14
15
17
18
19
20
20
19
18
18
19
19
19
20
22
21
21
21
22
21
21
20
21
21
21
22
22
21
21
21
22
21
21
21
23
26
33
36
35
27
14
-6
-34
-64
-90
-103
-98
-85
-63
-40
-21
-9
-1
5
9
14
17
19
20
21
21
21
21
20
20
20
19
18
19
18
17
16
17
17
15
15
15
15
14
13
13
14
14
13
13
14
13
12
14
15
15
15
14
15
16
17
16
16
16
15
14
14
15
14
13
12
12
13
12
12
12
12
11
10
10
10
10
10
9
8
9
9
9
10
9
10
11
10
8
8
10
11
9
9
11
11
10
9
9
9
9
9
9
9
9
9
10
10
10
11
11
9
4
1
0
-1
-2
-2
-2
0
2
3
3
3
6
8
10
9
9
8
8
8
7
8
8
8
9
10
11
11
11
11
11
11
11
10
10
10
10
10
9
8
9
9
8
10
13
18
22
21
17
8
-6
-30
-61
-90
-105
-103
-89
-71
-52
-35
-21
-11
-5
-1
3
7
9
11
12
12
12
12
12
12
11
11
11
10
11
12
12
10
10
9
8
7
7
8
8
9
8
8
7
6
5
5
5
4
5
6
5
5
6
7
6
6
6
6
6
6
5
5
3
2
2
1
0
-1
-1
-1
-3
-4
-4
-4
-5
-5
-5
-5
-5
-5
-5
-6
-4
-2
-2
-2
-3
-3
-2
-3
-3
-2
-2
-2
-1
-1
0
-1
-1
1
3
2
0
-1
-3
-5
-8
-11
-14
-16
-15
-13
-11
-9
-7
-6
-5
-4
-2
0
0
-1
-1
0
0
0
0
0
0
0
0
0
1
2
3
3
4
4
4
4
4
4
4
4
5
5
5
4
4
6
10
14
16
14
7
-5
-22
-50
-79
-102
-108
-98
-80
-61
-43
-29
-18
-11
-7
-2
2
7
11
14
15
14
13
14
14
13
14
14
14
13
12
13
15
15
16
16
16
14
13
14
15
14
13
12
12
12
12
12
12
11
11
11
11
11
11
11
11
12
12
12
12
12
12
11
11
10
8
6
4
4
3
1
0
-1
-1
-1
-1
0
0
0
-2
-3
-2
-1
-1
0
0
-1
0
0
0
0
0
0
1
0
1
1
2
2
1
2
2
2
2
1
1
0
0
-2
-6
-10
-13
-15
-15
-14
-13
-12
-11
-10
-8
-5
-1
1
1
0
-2
-4
-5
-6
-6
-3
-3
-3
-3
-3
-2
-1
0
0
1
2
2
3
4
4
4
5
4
4
4
4
4
5
8
15
21
20
12
-3
-25
-53
-86
-109
-119
-112
-95
-73
-53
-37
-25
-15
-8
-3
1
6
8
9
11
12
11
11
11
11
11
11
12
12
11
12
12
11
11
11
12
12
12
12
12
13
13
14
14
14
14
15
16
15
14
14
13
13
13
14
14
14
14
14
14
13
12
11
11
10
9
9
8
6
5
6
6
4
3
3
2
2
2
2
1
0
1
1
1
1
2
3
3
3
3
2
2
2
2
2
2
2
2
1
0
0
1
1
0
0
0
0
0
0
0
0
0
-4
-6
-9
-11
-12
-13
-12
-11
-9
-8
-8
-8
-5
-1
1
0
0
0
0
0
0
0
0
1
2
3
5
6
6
7
8
7
7
7
7
7
7
7
7
8
8
8
6
5
6
10
15
20
22
16
6
-9
-35
-64
-93
-110
-108
-96
-75
-55
-37
-24
-15
-9
-4
0
3
6
8
8
10
11
12
11
11
11
12
12
12
12
11
11
12
13
13
12
12
12
12
12
12
12
11
11
12
11
11
11
11
11
11
11
11
10
9
10
9
9
8
7
7
7
7
6
5
4
3
2
1
1
0
0
0
0
0
0
0
0
0
0
0
0
0
0
0
0
-1
-1
0
0
0
0
0
-1
-1
-1
-1
0
0
0
-1
-1
-1
-2
-2
-2
-2
-3
-3
-2
-3
-3
-4
-5
-7
-11
-14
-16
-18
-20
-19
-17
-14
-10
-9
-9
-8
-6
-3
-1
-1
-2
-2
-1
0
0
1
2
2
2
2
3
5
6
6
6
5
5
7
8
8
6
5
5
5
5
4
5
6
10
16
20
18
11
0
-18
-44
-71
-95
-105
-100
-85
-66
-47
-31
-21
-11
-4
0
4
7
9
11
12
13
12
11
12
13
13
13
14
13
13
12
12
13
12
13
13
13
13
13
13
13
14
13
14
15
15
15
15
16
15
15
15
17
17
16
16
15
16
16
16
15
15
14
13
12
11
9
7
6
6
6
6
5
4
4
5
5
6
6
6
6
6
6
7
7
7
7
7
7
8
8
8
8
8
8
8
7
8
9
10
10
9
9
8
8
9
10
11
11
11
10
8
6
3
1
-1
-3
-3
-3
-1
0
1
1
2
4
6
7
7
8
7
6
7
8
8
8
9
10
10
11
11
10
9
9
10
9
9
8
8
7
8
8
9
9
8
9
11
13
17
21
20
13
2
-16
-43
-71
-92
-98
-89
-74
-54
-36
-21
-12
-5
0
5
9
11
13
13
13
14
15
15
15
14
14
12
12
13
14
14
14
13
12
11
11
13
14
13
13
13
14
13
14
14
14
14
15
16
15
15
16
17
17
17
17
17
17
18
18
17
15
15
14
13
11
11
11
10
9
8
8
8
7
6
5
4
3
3
4
5
5
6
6
6
7
6
6
6
7
6
5
4
4
4
4
5
5
4
4
4
5
6
5
2
0
-4
-7
-10
-10
-9
-8
-6
-4
-3
-3
0
2
4
4
4
4
4
3
3
4
5
6
7
8
8
9
10
11
12
13
14
15
15
16
17
18
17
17
17
17
17
16
18
21
26
30
32
28
19
4
-18
-45
-69
-84
-85
-74
-58
-39
-21
-9
0
6
9
11
15
18
20
20
21
22
22
21
21
21
21
21
22
21
21
22
22
22
20
20
21
22
22
23
23
22
21
21
21
21
21
21
22
23
23
24
25
26
25
25
25
26
26
27
28
29
29
28
28
26
25
24
24
24
23
21
20
19
19
19
20
19
18
17
17
17
17
18
19
19
18
19
20
20
20
21
23
22
21
22
23
23
23
24
23
24
24
25
25
24
24
21
19
15
13
11
11
11
12
14
15
14
14
17
20
22
23
23
22
22
22
22
22
22
22
22
23
23
24
24
24
25
26
26
27
29
31
31
32
33
34
33
34
35
36
37
39
45
50
53
50
40
26
5
-21
-48
-69
-71
-60
-41
-24
-9
4
15
23
28
31
33
36
37
38
39
39
39
40
40
40
40
39
39
38
39
39
39
39
39
39
37
37
37
37
37
38
38
38
38
37
36
38
41
40
40
41
42
43
42
43
43
43
42
43
43
42
41
40
40
40
39
38
37
36
35
34
33
32
32
32
34
32
32
32
32
31
31
32
32
33
32
32
30
31
32
33
34
33
33
32
32
31
32
32
32
32
32
31
29
30
30
30
30
30
31
29
28
26
25
22
20
19
18
18
19
20
21
21
22
25
27
28
28
26
26
25
25
25
25
25
25
26
26
27
27
28
28
29
29
28
28
28
26
26
27
28
27
26
26
27
29
34
38
37
33
25
11
-11
-40
-62
-72
-68
-54
-39
-23
-8
3
10
15
20
24
26
28
29
29
30
30
30
29
28
29
29
29
30
30
30
29
28
27
26
26
26
27
26
26
25
24
24
23
23
24
24
24
24
24
23
24
24
25
25
25
24
24
24
23
23
23
23
23
22
21
20
19
19
18
17
17
17
15
14
14
14
14
14
15
15
16
16
17
16
15
13
13
12
11
10
11
11
11
11
12
11
11
12
12
11
11
11
11
10
10
10
11
12
12
11
7
4
2
0
0
-1
0
1
2
2
3
4
4
7
8
10
10
9
8
8
8
8
9
10
9
9
8
8
8
8
7
7
6
6
6
6
6
4
3
2
2
2
3
4
6
10
12
8
0
-11
-27
-49
-72
-92
-96
-85
-70
-50
-36
-25
-17
-10
-7
-4
-1
0
2
3
3
2
2
2
0
-2
-2
-1
0
1
1
0
-2
-4
-5
-7
-9
-8
-8
-6
-7
-8
-9
-8
-8
-8
-7
-6
-6
-7
-6
-6
-7
-6
-5
-4
-4
-5
-4
-3
-3
-4
-5
-6
-7
-6
-6
-8
-9
-11
-12
-13
-14
-14
-14
-14
-14
-14
-14
-15
-14
-14
-14
-15
-14
-13
-14
-15
-15
-14
-15
-15
-15
-14
-15
-15
-14
-13
-13
-13
-12
-10
-10
-11
-11
-12
-14
-16
-18
-19
-20
-20
-19
-18
-16
-14
-13
-13
-12
-9
-8
-8
-9
-10
-9
-8
-7
-7
-7
-7
-7
-7
-6
-6
-6
-5
-4
-4
-4
-3
-2
-1
-1
0
-1
0
-1
-2
-1
0
5
11
14
9
-1
-16
-36
-62
-88
-105
-108
-94
-75
-54
-38
-28
-20
-12
-7
-4
0
3
4
6
7
8
8
8
7
6
6
5
4
4
4
3
3
3
2
3
3
1
1
2
3
3
3
4
4
5
5
5
4
5
7
7
7
6
8
8
9
11
11
10
10
9
9
10
10
10
8
6
6
5
5
4
4
4
3
1
1
2
3
4
4
4
4
4
4
5
6
7
8
8
8
7
8
9
10
12
12
13
13
13
12
12
14
13
14
15
15
14
13
11
8
6
5
5
4
5
7
8
9
9
12
15
17
18
18
17
16
16
15
16
15
15
16
16
15
14
15
17
18
18
19
22
23
22
22
23
23
24
26
27
27
28
32
39
45
47
43
32
17
-7
-38
-66
-81
-80
-64
-46
-25
-6
7
17
23
28
32
35
38
41
43
43
42
44
45
45
45
45
47
45
45
45
46
46
47
46
46
46
46
45
44
46
45
43
43
44
45
44
45
45
45
45
46
46
46
45
45
46
46
46
45
44
42
42
42
41
40
39
39
37
36
36
36
36
35
37
38
39
39
38
38
37
36
36
36
36
36
37
37
37
36
36
36
36
37
36
35
33
33
33
32
31
31
33
31
30
30
32
32
32
31
29
27
24
23
20
18
17
18
21
22
23
25
28
31
34
34
34
32
30
30
30
30
30
31
31
30
31
32
34
34
34
33
32
31
32
32
32
31
31
32
32
31
30
31
32
35
41
44
41
34
23
4
-23
-54
-78
-89
-81
-65
-46
-27
-13
-2
6
10
14
18
22
25
25
26
27
28
28
28
29
28
27
26
27
27
27
26
27
26
25
27
27
27
27
28
28
28
28
28
28
27
27
27
28
28
28
28
29
30
30
31
30
29
29
29
28
28
28
27
27
26
25
24
22
22
21
21
21
21
21
22
22
21
22
22
22
22
23
23
23
23
23
23
22
21
21
21
23
21
21
20
20
20
20
21
20
20
19
20
20
20
19
18
16
13
10
7
5
6
8
9
10
11
13
14
17
19
20
20
19
18
17
16
17
18
18
18
19
19
19
20
21
21
21
21
21
21
21
22
23
22
21
21
21
21
22
25
30
36
38
34
24
7
-18
-52
-85
-102
-102
-86
-66
-47
-30
-15
-5
1
6
10
15
19
22
22
21
21
21
20
21
21
21
21
21
21
21
21
20
20
20
20
20
20
21
21
21
21
22
22
22
23
24
25
24
22
22
23
24
25
27
27
27
26
27
26
26
27
27
26
25
24
22
20
20
20
20
18
18
17
16
16
17
17
16
16
17
18
17
16
17
18
18
18
20
20
19
18
19
21
20
18
18
19
19
19
20
20
20
19
20
21
22
22
23
25
25
23
20
18
15
14
12
10
9
9
10
11
13
14
17
19
21
23
22
21
20
20
19
19
20
21
21
22
23
24
25
26
25
25
25
26
26
26
26
25
25
26
26
24
25
26
28
30
36
40
38
33
22
5
-20
-50
-74
-87
-81
-67
-49
-29
-15
-3
5
12
15
19
22
25
25
25
26
27
27
26
27
27
26
26
27
26
27
27
27
27
27
27
26
25
25
25
25
25
25
25
26
25
25
25
25
24
24
24
24
25
26
26
26
26
27
26
26
25
25
24
23
23
22
21
20
18
17
17
16
15
15
15
15
13
13
12
12
11
10
11
11
12
12
12
12
12
13
12
12
12
13
14
13
13
13
12
13
13
13
13
13
14
15
15
15
15
16
14
14
11
8
5
4
2
1
2
3
5
5
5
7
9
12
14
15
14
13
12
13
14
14
14
15
16
16
16
17
17
17
17
18
18
18
18
18
18
18
19
20
20
20
20
22
24
29
33
32
23
11
-8
-37
-67
-92
-104
-98
-86
-66
-46
-28
-17
-8
-1
3
7
11
14
15
16
15
15
15
16
16
16
16
15
16
16
16
17
17
16
17
17
17
16
15
15
15
15
15
14
15
15
15
14
15
15
16
16
17
18
17
17
17
17
16
16
16
15
15
14
13
11
11
9
8
7
6
6
5
3
3
3
3
2
2
3
2
2
2
3
3
3
3
3
3
4
4
4
5
6
7
6
5
5
5
4
3
4
5
6
6
7
6
6
6
2
-1
-4
-5
-7
-8
-6
-4
-3
-2
0
0
3
6
7
8
7
5
4
4
6
7
7
7
8
9
10
10
10
11
11
11
13
13
12
12
12
12
12
11
13
13
13
14
16
20
24
25
20
8
-8
-35
-67
-94
-105
-100
-85
-69
-50
-34
-18
-8
-1
2
6
9
13
14
14
14
15
15
14
14
14
14
13
13
14
13
13
12
12
12
10
11
11
10
9
9
9
9
9
9
9
7
7
9
10
10
9
9
9
9
9
10
11
11
10
9
7
6
6
6
6
4
3
2
1
1
1
0
0
0
-1
-1
0
0
0
0
1
1
1
0
0
1
1
1
1
1
2
4
4
3
3
3
3
3
4
4
2
2
2
2
1
0
1
1
2
2
2
2
1
-1
-3
-6
-10
-11
-10
-8
-7
-5
-3
-3
-2
0
2
1
0
0
0
0
0
0
0
0
1
1
3
4
3
3
4
4
4
4
3
3
3
3
3
3
3
3
3
4
6
11
16
16
12
4
-7
-29
-59
-88
-109
-110
-97
-77
-59
-45
-32
-21
-14
-10
-6
-1
3
4
5
5
5
5
5
6
5
4
4
5
5
5
5
5
5
4
3
4
4
4
4
4
3
4
4
3
2
3
4
5
5
5
5
4
4
5
5
6
6
6
5
5
6
7
7
6
6
5
2
0
0
-1
-2
-4
-5
-5
-5
-6
-6
-6
-7
-7
-6
-6
-5
-6
-6
-5
-5
-5
-5
-5
-5
-4
-4
-3
-3
-3
-3
-4
-4
-4
-4
-3
-4
-4
-4
-3
-4
-4
-5
-6
-9
-11
-13
-14
-15
-14
-12
-10
-9
-8
-8
-7
-6
-2
0
0
0
0
0
0
0
0
0
0
1
2
2
2
3
4
5
5
5
4
3
3
4
4
4
4
3
2
2
3
5
11
17
18
10
0
-17
-40
-65
-91
-103
-102
-89
-70
-52
-35
-25
-14
-8
-2
1
4
6
7
7
9
9
9
9
10
10
10
10
10
9
9
10
10
9
10
11
11
10
10
10
10
10
10
10
10
11
11
10
10
12
14
14
14
15
16
17
17
18
17
17
16
17
17
16
15
14
13
12
11
10
9
9
8
7
6
5
5
4
3
3
4
5
6
7
6
6
6
6
5
5
5
7
8
8
8
8
8
9
9
8
7
7
8
8
9
9
9
9
10
11
9
7
5
3
1
-1
-3
-2
0
1
2
2
2
4
7
10
10
9
9
8
8
8
9
9
10
11
12
12
11
10
11
12
12
12
11
11
12
11
11
10
9
9
10
10
12
14
18
21
22
20
12
-1
-26
-58
-82
-94
-89
-75
-60
-44
-29
-15
-6
1
7
11
13
14
16
17
16
16
17
18
17
16
17
16
16
16
16
16
15
14
14
13
13
13
13
12
13
12
10
9
10
11
12
13
13
13
13
13
13
14
15
14
15
15
15
16
16
15
14
13
14
14
13
12
12
11
11
10
9
8
8
8
9
9
8
9
10
10
10
9
9
9
9
9
9
10
9
10
10
9
8
8
7
7
7
8
7
6
5
4
4
4
6
8
7
6
5
3
1
-1
-3
-5
-6
-7
-5
-4
-2
-2
-1
-1
1
4
7
8
6
6
6
6
7
7
8
8
9
11
12
12
12
11
12
11
11
11
12
11
10
10
11
10
9
9
10
12
16
22
24
20
13
1
-17
-42
-68
-90
-98
-89
-70
-51
-33
-20
-9
-2
0
4
9
12
13
14
15
16
16
15
15
15
15
16
16
15
15
15
16
16
16
16
15
15
14
14
13
13
13
13
13
12
12
12
13
13
14
14
14
14
15
15
14
14
14
15
15
14
12
11
11
11
11
11
9
7
6
6
6
7
8
8
6
7
7
8
9
9
9
8
7
8
8
7
6
6
6
7
8
9
9
8
8
8
8
7
7
8
8
9
11
12
11
8
6
3
1
-1
-3
-3
-2
0
2
4
5
6
8
11
12
11
10
10
9
8
8
8
8
7
8
8
8
9
9
9
8
8
10
10
11
11
11
11
11
12
13
13
13
13
16
21
25
27
22
13
1
-21
-50
-77
-95
-95
-84
-68
-52
-35
-20
-9
-2
2
6
9
11
12
14
15
15
14
15
15
14
15
16
17
16
17
17
16
16
16
16
16
16
17
17
18
17
16
16
15
15
16
16
15
14
14
15
16
16
16
17
17
17
18
18
18
17
17
16
16
15
14
12
11
10
10
8
7
7
6
6
6
6
5
4
3
3
4
4
4
4
4
4
3
3
3
2
2
2
1
1
1
1
1
1
1
1
1
1
0
0
-1
-1
0
0
0
0
1
1
1
0
-2
-4
-7
-11
-12
-11
-9
-6
-4
-4
-5
-5
-1
2
4
4
2
2
2
1
1
2
3
3
3
4
5
6
7
5
4
3
5
4
3
3
4
4
4
3
3
4
5
7
11
15
16
12
5
-7
-27
-53
-80
-92
-94
-82
-66
-51
-36
-25
-16
-11
-7
-2
1
4
7
8
6
5
4
6
7
8
7
7
8
8
9
11
10
8
5
4
4
3
1
2
3
3
4
3
2
2
5
6
6
5
4
3
4
5
6
5
5
5
5
6
7
7
6
6
7
6
6
5
4
2
1
3
4
4
4
4
3
0
0
1
2
3
2
1
2
1
0
-1
0
2
2
3
2
1
1
2
1
2
2
0
-1
-1
-1
0
0
1
1
0
0
2
2
0
-2
-6
-9
-9
-9
-10
-8
-8
-9
-8
-6
-5
-5
-4
-1
2
4
3
1
2
4
5
4
4
6
7
5
4
3
3
5
8
9
9
8
9
9
7
7
9
11
10
7
6
8
11
15
19
18
14
5
-9
-31
-58
-82
-95
-92
-79
-66
-49
-36
-23
-12
-4
0
3
8
10
9
9
11
11
12
12
12
12
12
10
9
10
10
10
8
11
13
13
12
12
12
12
12
10
9
9
7
7
10
13
12
12
11
12
14
14
15
14
13
13
13
14
15
15
13
12
10
8
8
8
8
7
7
6
6
7
8
8
8
8
9
9
11
14
18
19
15
9
9
10
11
12
14
15
17
17
16
16
16
16
16
16
15
15
15
16
16
15
12
9
7
6
2
1
1
2
4
5
5
6
7
11
15
15
14
11
9
9
10
10
9
9
10
12
13
14
15
16
17
16
17
18
19
18
18
18
19
19
19
18
18
19
22
27
31
31
27
20
10
-10
-40
-69
-89
-91
-81
-66
-48
-28
-14
-6
0
5
9
12
15
16
16
17
20
21
21
20
20
21
20
21
22
22
19
17
19
20
22
23
24
24
23
21
20
20
18
17
14
13
13
15
17
17
18
19
21
20
19
18
17
18
18
18
18
17
15
13
11
10
10
11
9
8
7
6
6
5
5
4
4
5
6
7
6
6
6
7
7
6
6
5
6
8
10
10
9
9
9
10
10
9
10
11
12
10
9
8
9
9
8
9
8
8
9
10
8
4
0
-4
-5
-7
-8
-9
-8
-5
-3
-3
-3
-1
0
2
3
3
2
0
1
1
2
3
4
5
4
4
5
5
5
5
7
7
6
4
5
7
7
5
5
4
3
3
5
9
14
18
17
10
-1
-18
-46
-76
-101
-110
-105
-90
-73
-54
-36
-21
-12
-6
-2
1
4
8
9
9
11
11
12
11
11
12
13
14
13
14
14
14
13
14
14
14
14
14
14
13
12
13
15
15
15
14
14
13
14
15
16
16
16
17
16
16
17
18
18
17
16
16
15
15
15
15
14
13
12
10
9
8
7
7
6
6
7
7
8
9
8
7
7
8
9
9
10
10
11
11
12
12
13
12
12
12
13
13
13
13
13
13
15
17
18
17
15
13
11
10
8
4
1
0
4
8
10
7
3
1
3
9
13
15
15
13
13
13
14
13
13
13
14
15
16
17
18
18
20
20
21
21
21
19
18
19
19
19
19
19
19
19
20
24
32
34
32
24
13
-4
-30
-60
-87
-101
-94
-79
-57
-36
-20
-6
4
11
15
19
23
27
29
31
32
31
29
28
29
31
32
34
33
30
28
28
29
30
32
32
31
32
32
32
30
32
34
34
33
35
38
41
44
41
37
38
42
43
43
42
40
39
38
37
36
37
40
42
43
44
41
35
33
30
27
30
35
39
38
35
32
31
33
34
35
34
33
32
35
36
38
38
35
36
36
35
35
37
38
39
41
38
36
35
37
37
33
30
32
32
30
32
35
36
35
34
31
28
25
22
20
19
19
21
23
24
25
27
29
32
32
32
31
29
29
29
30
31
32
32
31
31
31
33
33
35
35
36
35
35
36
36
37
35
34
33
33
33
33
35
39
44
45
43
37
27
8
-24
-55
-74
-80
-66
-48
-28
-10
1
10
18
23
25
26
30
32
34
35
36
36
35
34
34
34
34
33
33
34
36
35
33
28
27
29
31
31
31
31
30
29
28
27
28
28
28
29
29
29
28
29
30
31
30
31
32
31
30
30
30
28
28
27
27
25
23
22
21
20
19
19
19
18
17
17
16
14
15
15
15
15
16
17
17
17
16
15
14
15
16
16
15
15
15
14
13
13
14
15
16
15
14
14
14
14
15
15
14
13
12
11
7
4
2
0
-2
-1
0
3
3
4
4
5
7
10
12
10
10
9
8
8
8
9
9
9
9
9
9
9
9
9
10
9
9
10
10
9
9
8
7
7
8
8
8
10
16
21
21
16
7
-7
-30
-61
-92
-110
-111
-95
-73
-54
-36
-23
-11
-3
0
4
8
10
11
11
12
13
13
14
13
12
11
12
13
13
11
10
9
8
8
8
8
8
7
5
4
7
9
9
7
8
8
7
7
7
7
5
5
6
7
8
5
1
-1
1
3
5
2
-5
-12
-13
-12
-11
-12
-13
-14
-12
-13
-17
-22
-24
-22
-19
-18
-19
-19
-17
-15
-18
-24
-27
-25
-20
-19
-21
-23
-23
-19
-15
-14
-16
-17
-15
-12
-12
-13
-14
-13
-10
-8
-8
-10
-12
-11
-12
-16
-20
-21
-24
-24
-19
-16
-16
-19
-19
-17
-15
-11
-6
-5
-6
-6
-5
-5
-8
-10
-8
-4
-2
0
1
2
2
1
2
3
5
3
0
0
2
4
2
0
-2
-1
0
0
0
2
11
20
17
5
-11
-33
-60
-88
-113
-120
-111
-93
-73
-53
-36
-24
-15
-8
-2
0
3
5
8
9
11
13
15
15
13
12
13
15
14
14
15
16
16
15
15
14
13
13
15
17
16
18
18
16
15
16
19
19
19
18
19
20
21
20
21
21
21
21
21
18
16
17
19
18
16
14
13
12
12
12
12
11
11
11
11
9
9
11
11
12
13
13
10
10
12
14
15
15
14
12
11
13
16
19
20
20
18
17
18
19
21
22
21
20
22
23
23
23
23
25
24
22
18
17
16
14
12
11
14
18
19
19
20
22
23
27
31
31
26
24
25
26
26
27
28
28
27
28
29
29
29
30
30
31
30
30
30
32
33
32
30
28
29
29
30
32
37
43
47
45
36
21
-1
-31
-61
-82
-87
-77
-60
-38
-18
-4
6
15
20
24
28
33
35
36
36
36
36
35
35
34
35
36
36
34
32
33
34
34
31
31
33
33
32
31
32
31
30
30
30
30
30
30
29
30
29
30
29
30
31
33
34
33
33
32
32
31
30
29
29
29
29
28
26
24
23
22
22
21
21
20
21
21
21
21
21
22
22
23
23
22
21
21
22
23
23
21
19
20
23
24
21
20
21
23
23
25
23
22
21
22
23
24
25
26
28
28
25
20
16
14
13
13
12
12
13
15
17
18
19
22
26
28
28
27
25
24
24
25
27
28
29
29
29
28
27
27
28
27
28
29
29
29
28
28
28
28
27
27
27
28
28
29
33
38
38
30
19
2
-26
-57
-79
-90
-84
-71
-54
-34
-17
-4
4
11
17
21
25
27
29
31
31
31
30
30
29
29
30
30
31
30
30
29
30
30
31
31
31
31
30
30
30
30
29
28
28
28
27
26
27
28
27
26
26
27
26
27
28
28
28
27
27
26
24
22
22
20
19
19
19
17
16
15
14
14
14
14
15
15
15
13
13
14
14
14
13
14
16
16
15
15
14
14
14
13
13
13
14
13
12
12
11
12
12
11
11
11
11
11
11
10
9
11
12
10
6
3
1
-1
-1
0
1
3
6
7
7
8
11
16
19
17
15
15
16
17
17
18
18
18
19
20
21
20
20
20
19
17
16
17
19
18
16
16
15
14
15
17
18
20
24
29
32
28
22
9
-10
-36
-68
-92
-99
-92
-74
-55
-37
-23
-11
-1
5
8
13
16
17
18
20
20
19
20
19
18
18
19
21
21
19
19
20
19
18
18
18
18
16
16
16
16
17
17
16
15
12
12
14
15
15
13
12
13
14
17
16
17
17
17
16
15
15
16
16
14
13
11
10
9
9
9
8
7
6
5
3
4
5
7
7
7
6
6
6
7
7
7
8
8
9
9
9
9
9
10
10
10
10
10
10
10
11
9
9
10
11
12
11
11
12
12
12
12
13
13
12
9
6
3
1
0
0
0
1
2
4
5
7
9
12
15
17
18
17
17
17
18
18
20
20
19
18
18
19
19
18
17
18
18
18
17
19
19
18
18
18
17
16
15
17
20
24
28
27
19
10
-6
-32
-62
-86
-97
-93
-80
-65
-47
-27
-14
-4
2
6
10
15
18
20
19
18
18
19
20
20
20
19
17
17
18
19
20
21
20
20
19
19
19
19
20
21
21
20
19
19
19
18
17
18
17
17
17
19
19
18
18
18
19
19
20
20
21
20
18
17
16
15
14
14
14
12
12
11
11
10
10
11
11
11
12
13
13
13
13
14
15
17
17
17
17
18
19
19
18
19
19
19
18
19
18
17
17
18
18
17
17
18
19
18
17
14
10
8
6
6
5
6
8
10
12
12
14
17
20
22
24
23
22
20
21
22
24
26
27
28
27
27
27
27
27
27
28
28
29
29
29
29
28
27
26
27
27
28
29
32
38
43
43
36
24
4
-23
-53
-78
-93
-88
-72
-51
-29
-11
0
11
18
23
27
33
35
36
37
37
38
38
40
40
40
38
38
38
37
37
37
38
38
38
37
38
37
36
38
39
39
38
39
40
41
42
42
41
38
39
40
40
39
39
39
38
38
38
38
37
38
38
36
34
33
34
34
32
31
31
31
31
30
29
28
28
28
28
27
28
29
31
31
30
29
31
32
32
33
32
32
32
33
33
34
34
34
35
33
33
33
34
34
33
33
33
34
33
34
34
35
36
36
36
34
32
30
30
28
26
24
24
25
26
29
30
31
33
37
39
40
41
38
37
37
40
41
41
41
41
41
40
41
42
44
44
44
44
42
40
39
39
41
41
40
40
40
39
39
42
48
53
55
53
45
34
13
-18
-49
-71
-79
-71
-56
-38
-20
-2
11
21
27
31
35
39
41
43
44
45
45
46
46
46
46
44
45
46
47
47
46
46
46
47
46
47
47
47
45
45
46
46
47
46
46
45
45
44
45
45
44
44
44
43
43
44
44
44
44
43
43
41
40
40
39
40
39
39
37
35
33
32
32
32
33
33
32
31
31
31
30
30
30
31
29
29
30
31
32
32
33
32
32
31
32
32
31
30
31
32
31
31
31
31
30
28
29
29
31
31
32
32
31
30
28
25
23
21
19
17
18
20
23
24
25
26
29
33
36
37
37
38
38
38
38
37
36
36
38
38
38
37
36
36
35
35
34
34
33
33
31
31
32
33
34
32
31
30
32
34
39
44
43
36
24
7
-22
-56
-82
-96
-92
-77
-60
-38
-19
-5
3
11
18
22
25
27
29
30
31
31
31
31
31
31
30
29
28
27
27
27
28
29
29
28
28
28
28
28
28
28
28
27
28
28
28
27
27
28
26
26
26
27
25
24
24
24
25
24
25
23
22
21
22
22
20
18
17
16
14
13
13
11
11
11
11
11
11
11
11
11
11
11
12
13
13
14
14
14
14
14
15
15
15
16
16
16
17
18
18
18
18
18
18
18
18
18
19
19
19
19
18
16
14
11
8
4
1
1
2
3
4
6
7
7
9
14
16
17
16
17
16
16
17
17
17
16
16
17
17
16
14
13
14
15
16
16
15
15
15
16
16
17
17
17
17
18
23
29
32
30
23
12
-5
-34
-68
-94
-105
-100
-81
-63
-43
-25
-11
-3
2
7
11
14
16
16
16
17
17
18
18
17
17
17
17
17
18
18
17
17
17
17
17
17
16
17
16
17
18
19
19
17
17
17
17
17
18
19
19
18
18
18
16
15
15
15
15
14
13
11
11
11
9
8
7
6
4
4
4
3
2
0
0
0
0
0
0
1
2
1
1
0
1
1
2
2
2
2
3
3
3
3
3
2
1
1
0
0
0
0
0
0
-1
-2
-2
-2
-2
-2
-2
-3
-4
-5
-8
-11
-12
-13
-15
-16
-15
-13
-10
-10
-9
-7
-5
-2
-1
0
0
0
0
0
0
0
1
2
1
0
1
1
1
1
1
1
1
0
0
0
0
0
-1
-1
-2
-3
-2
-1
3
8
9
6
-2
-13
-34
-61
-87
-106
-109
-99
-82
-63
-45
-32
-23
-16
-10
-6
-2
0
0
0
1
1
1
1
1
2
2
2
2
2
1
1
0
0
0
0
0
1
0
0
1
0
0
0
1
1
1
0
0
0
0
0
0
0
0
0
-1
-1
-1
-2
-2
-2
-3
-4
-5
-5
-7
-8
-8
-7
-8
-11
-12
-12
-13
-14
-14
-14
-14
-14
-13
-14
-14
-14
-14
-14
-13
-13
-13
-14
-14
-13
-13
-14
-13
-14
-14
-15
-15
-14
-14
-15
-15
-15
-15
-14
-13
-12
-12
-12
-11
-12
-13
-15
-17
-19
-21
-23
-24
-25
-25
-22
-20
-18
-17
-16
-13
-11
-9
-8
-9
-9
-8
-7
-6
-6
-6
-5
-3
-3
-3
-2
-2
-2
-1
0
0
-1
-1
-2
-3
-4
-3
-3
-3
-4
-5
-6
-5
-1
3
5
2
-6
-20
-43
-73
-96
-114
-114
-103
-88
-71
-53
-40
-32
-24
-19
-15
-12
-7
-4
-3
-2
-1
0
-1
0
0
0
-1
-1
0
0
0
-1
-1
-2
-2
-2
-1
-1
-2
-3
-3
-4
-4
-4
-4
-4
-4
-4
-4
-4
-4
-3
-3
-4
-6
-6
-6
-7
-8
-8
-8
-9
-9
-10
-12
-13
-13
-14
-15
-17
-18
-17
-16
-17
-18
-18
-18
-18
-18
-18
-18
-18
-18
-18
-17
-17
-17
-17
-18
-17
-18
-17
-17
-17
-17
-16
-15
-15
-15
-16
-17
-17
-16
-15
-15
-15
-15
-15
-15
-16
-18
-21
-24
-25
-26
-28
-28
-27
-26
-25
-24
-22
-21
-21
-18
-15
-14
-15
-15
-14
-13
-13
-11
-10
-9
-9
-8
-7
-6
-7
-7
-7
-6
-7
-7
-7
-6
-7
-7
-6
-6
-6
-6
-7
-8
-6
0
3
3
0
-9
-24
-44
-73
-100
-121
-123
-110
-93
-72
-56
-41
-31
-24
-19
-15
-11
-8
-7
-6
-5
-4
-4
-4
-4
-3
-2
-2
-3
-4
-4
-4
-3
-3
-3
-3
-4
-5
-5
-4
-4
-5
-5
-5
-4
-4
-4
-5
-6
-6
-5
-4
-3
-4
-3
-3
-3
-3
-3
-3
-4
-5
-7
-8
-9
-10
-11
-12
-13
-13
-14
-15
-16
-17
-17
-17
-18
-17
-17
-16
-17
-16
-16
-15
-15
-16
-15
-15
-15
-15
-15
-14
-14
-12
-12
-13
-13
-13
-14
-13
-13
-12
-11
-11
-11
-12
-12
-12
-11
-11
-11
-11
-13
-16
-18
-21
-23
-24
-23
-22
-20
-18
-18
-16
-14
-12
-10
-7
-7
-7
-7
-7
-7
-7
-7
-6
-5
-4
-3
-3
-3
-3
-4
-4
-3
-3
-3
-3
-2
-1
-1
-1
-1
-1
-1
-1
0
2
6
10
11
5
-5
-22
-48
-76
-100
-113
-110
-99
-82
-63
-43
-31
-22
-16
-12
-7
-3
0
2
2
3
4
4
5
5
5
4
4
6
6
6
5
5
6
5
5
4
4
4
4
3
3
4
5
6
6
5
4
5
6
6
6
6
5
5
6
6
6
5
5
5
5
4
4
3
3
1
0
0
-1
-2
-2
-2
-3
-5
-5
-4
-4
-4
-4
-4
-4
-3
-3
-2
-2
-2
-1
0
0
-1
-1
-1
-1
0
0
0
0
0
0
0
0
0
1
0
0
1
2
2
1
1
-1
-4
-6
-8
-10
-10
-9
-7
-6
-5
-4
-2
-1
1
3
4
4
4
3
3
5
7
8
9
9
10
10
11
12
12
13
13
13
13
13
13
13
13
14
14
13
14
13
14
16
22
28
29
24
13
-2
-26
-54
-83
-102
-103
-90
-71
-51
-34
-19
-8
-1
3
7
13
17
19
21
23
22
21
22
24
25
24
25
25
24
24
26
26
26
25
25
26
26
27
26
26
25
24
25
24
24
24
25
25
25
26
26
26
25
25
26
27
27
27
26
26
26
25
25
24
24
23
22
20
19
17
16
14
14
14
13
12
11
12
12
11
12
12
12
12
11
12
12
12
12
13
13
13
15
15
15
15
14
14
13
13
13
14
13
12
12
14
15
16
16
17
16
14
11
8
6
3
2
3
4
5
6
7
8
11
15
17
16
15
15
14
13
13
14
15
15
16
18
19
18
18
18
18
18
18
19
18
18
18
18
17
16
17
17
17
18
23
29
33
34
29
19
3
-23
-55
-83
-99
-99
-86
-67
-48
-29
-13
-3
3
8
12
16
19
21
22
24
25
26
25
24
24
23
23
22
23
24
23
22
21
23
23
23
23
23
23
22
22
21
20
21
21
21
21
21
20
20
21
21
22
22
22
21
21
20
21
21
22
21
20
18
16
15
13
13
11
10
8
7
7
6
6
5
4
3
3
4
4
5
6
6
5
6
5
3
3
4
5
5
5
5
6
7
6
6
6
6
6
6
6
7
8
9
9
10
10
10
9
7
4
1
0
-2
-5
-5
-4
-3
-1
0
0
1
4
7
9
9
8
7
6
6
7
9
10
11
11
11
11
11
12
13
13
12
12
12
13
14
13
14
13
13
12
13
12
14
18
23
27
26
22
11
-8
-36
-71
-97
-103
-95
-77
-58
-40
-26
-13
-5
0
4
10
14
16
17
18
18
18
19
20
20
20
20
20
20
20
20
21
20
19
19
19
18
18
18
18
18
18
19
19
18
18
20
20
20
21
21
21
21
22
22
21
22
22
22
22
22
23
21
21
19
18
17
16
16
15
14
13
13
12
12
12
11
11
9
9
10
11
10
10
11
12
12
12
13
13
13
13
14
14
14
15
15
15
15
15
14
13
13
13
13
13
15
16
16
14
10
6
4
3
1
1
3
5
7
7
7
8
12
14
16
17
16
15
14
14
15
16
17
17
17
17
18
18
19
19
19
18
19
19
18
18
18
18
17
18
18
18
19
20
24
28
32
31
26
15
-1
-28
-59
-85
-98
-98
-82
-66
-44
-23
-9
0
4
9
13
18
22
24
25
24
24
24
24
25
26
26
25
24
25
25
25
26
27
28
27
28
28
28
27
27
28
27
27
27
28
27
27
27
28
28
27
28
27
27
26
27
28
28
29
28
28
26
25
24
23
22
20
19
18
16
15
14
13
12
12
11
11
10
10
10
8
6
6
7
8
11
16
18
17
17
14
11
13
20
23
25
25
19
14
14
17
16
15
16
16
17
18
19
19
19
18
14
10
6
3
0
-1
-1
0
2
3
3
4
6
9
11
12
11
10
9
7
6
7
9
9
10
11
11
11
13
15
16
16
16
17
18
18
17
15
13
13
14
15
17
17
16
18
24
27
25
19
9
-8
-36
-68
-95
-105
-96
-79
-60
-42
-28
-16
-7
0
6
9
11
12
13
14
17
20
17
13
11
12
14
14
14
13
13
13
11
8
7
10
12
10
6
5
6
6
8
7
3
1
2
3
3
3
3
3
3
2
2
3
6
6
1
-1
0
1
1
0
-3
-6
-6
-4
-2
-5
-8
-11
-12
-12
-12
-14
-15
-14
-15
-16
-15
-13
-13
-14
-13
-9
-9
-12
-13
-13
-14
-13
-12
-12
-11
-10
-11
-14
-16
-15
-14
-14
-12
-9
-8
-10
-10
-10
-11
-12
-11
-8
-7
-8
-13
-16
-18
-19
-22
-24
-24
-23
-20
-18
-17
-16
-17
-22
-21
-13
-8
-7
-9
-11
-12
-9
-5
-5
-10
-15
-16
-12
-9
-9
-8
-10
-15
-16
-10
-3
-2
-5
-7
-7
-8
-10
-11
-8
-6
-2
3
5
2
-1
-6
-17
-40
-70
-95
-111
-110
-101
-86
-72
-57
-41
-28
-20
-18
-18
-17
-11
-4
-3
-7
-7
-7
-8
-6
-5
-5
-5
-7
-7
-8
-9
-13
-15
-12
-5
0
0
0
-2
-8
-13
-13
-9
-3
-1
-2
-4
-7
-9
-10
-9
-7
-5
-5
-7
-7
-4
-2
-1
-3
-7
-10
-10
-8
-5
-7
-11
-11
-9
-8
-10
-12
-12
-11
-12
-11
-10
-10
-13
-12
-11
-12
-12
-12
-12
-10
-10
-11
-11
-11
-13
-13
-12
-11
-11
-10
-9
-9
-11
-12
-12
-12
-11
-9
-10
-11
-10
-10
-12
-13
-12
-12
-12
-14
-17
-19
-21
-24
-25
-23
-21
-19
-17
-16
-14
-11
-8
-5
-1
0
-1
-1
0
0
2
4
5
5
5
6
8
9
10
12
13
14
13
14
15
17
18
19
20
19
19
21
25
31
36
38
34
27
12
-11
-42
-74
-88
-83
-68
-48
-30
-12
4
14
18
23
29
35
38
39
41
43
44
44
44
43
44
44
45
45
45
44
44
45
46
48
47
47
46
47
48
48
48
48
49
49
48
48
47
48
49
51
49
47
48
50
51
51
53
53
55
55
56
54
54
55
54
54
53
53
51
52
53
52
53
52
52
50
51
52
53
54
53
53
52
53
51
52
52
52
51
52
54
53
52
51
54
53
52
52
52
53
53
54
53
53
52
53
55
56
55
52
49
46
44
42
42
42
41
42
44
46
47
49
54
57
57
54
54
54
53
53
53
54
53
54
54
55
55
56
59
59
59
58
60
60
60
60
60
60
59
59
58
59
58
61
65
70
71
65
56
40
15
-17
-47
-65
-67
-55
-38
-18
4
20
30
40
49
54
59
64
68
69
70
70
71
72
72
73
73
73
71
71
72
73
74
72
72
71
70
71
72
73
72
74
73
72
69
69
71
71
71
70
71
70
71
70
69
69
68
69
67
69
69
71
72
71
70
69
69
67
67
65
64
62
61
60
58
59
60
61
58
57
56
56
56
57
60
59
57
55
56
57
56
58
59
58
57
56
57
58
59
58
59
59
59
58
58
58
58
59
58
57
56
57
57
56
55
51
49
45
43
44
45
45
45
47
48
50
51
54
56
55
54
52
52
52
54
54
55
55
54
54
54
56
55
56
54
54
54
55
54
52
52
51
51
49
49
49
49
49
52
59
61
60
51
38
16
-12
-48
-76
-87
-77
-59
-39
-21
-5
5
13
18
22
26
30
31
31
33
33
33
31
30
29
28
28
28
28
27
28
29
30
31
32
33
33
35
36
37
37
38
38
38
39
40
42
42
43
43
43
43
42
42
43
45
43
43
43
45
45
45
46
46
45
45
44
43
42
41
41
41
39
39
37
37
36
36
36
36
36
36
35
34
34
34
34
34
34
34
34
34
34
33
33
32
32
31
32
32
30
31
31
32
30
29
28
29
30
30
31
31
31
29
28
26
23
20
17
16
16
18
19
22
23
23
24
27
31
32
32
31
32
31
31
30
30
30
29
31
32
31
31
31
30
29
30
30
30
31
32
32
32
31
29
28
27
27
30
37
44
44
38
26
8
-17
-50
-82
-105
-109
-94
-72
-48
-28
-12
1
11
16
20
25
30
32
33
35
35
36
36
38
37
37
36
37
37
36
36
35
36
36
36
35
35
36
36
36
35
34
34
35
35
35
37
37
37
36
38
39
39
39
40
41
41
40
39
38
38
38
37
35
34
32
31
29
27
26
25
24
23
24
23
22
22
23
24
23
22
21
22
22
23
23
21
21
21
21
21
21
21
22
22
22
22
22
22
21
22
23
23
24
24
24
23
23
21
18
14
11
8
6
6
8
10
12
14
14
15
17
20
23
23
22
20
20
21
19
20
21
22
22
23
24
24
24
24
25
24
23
23
24
23
23
23
21
20
20
21
20
21
27
33
38
35
26
11
-12
-42
-77
-106
-118
-114
-92
-67
-43
-24
-9
1
6
9
15
18
21
22
23
23
22
22
24
25
24
24
25
24
22
22
23
23
24
24
25
24
24
23
23
24
23
24
23
23
22
21
22
22
23
23
22
22
23
24
24
24
23
24
24
23
22
21
19
17
16
15
13
12
11
11
10
10
9
9
7
6
7
6
4
3
5
7
7
8
9
10
9
10
10
10
10
10
11
11
11
12
12
12
12
11
12
12
11
11
11
11
10
9
8
7
5
3
0
-2
-6
-8
-8
-8
-7
-5
-3
-2
-1
2
5
6
7
6
5
4
4
4
3
4
7
9
9
9
8
8
8
8
9
10
10
10
9
8
8
8
9
9
7
6
8
12
17
21
20
13
2
-18
-49
-82
-109
-119
-116
-101
-84
-63
-44
-32
-22
-15
-10
-5
0
3
5
5
6
7
7
7
7
7
6
7
8
8
8
6
6
7
8
7
8
8
8
7
7
7
6
7
7
6
5
4
4
5
6
4
3
3
3
4
5
5
5
5
6
5
4
3
2
0
-1
-1
-1
-3
-4
-5
-6
-6
-8
-8
-7
-8
-9
-9
-9
-10
-10
-10
-9
-9
-9
-9
-10
-11
-11
-9
-9
-10
-10
-10
-10
-11
-10
-9
-10
-11
-11
-11
-11
-11
-11
-11
-11
-11
-10
-9
-8
-10
-12
-14
-17
-20
-22
-24
-24
-21
-19
-17
-17
-15
-13
-10
-7
-5
-5
-6
-6
-7
-5
-4
-4
-3
-3
-3
-3
-3
-3
-3
-2
-2
-2
-2
-2
-2
-2
-2
-2
-1
-1
-2
-2
0
3
6
10
9
2
-9
-26
-54
-87
-113
-127
-125
-111
-90
-69
-48
-35
-26
-20
-15
-11
-8
-4
-3
-3
-2
-2
-1
-2
-3
-2
-2
-2
-2
-2
-1
-1
-1
0
0
0
0
1
0
0
0
0
0
-1
0
0
0
0
-1
-1
-1
-1
0
0
0
0
1
1
1
2
2
2
1
1
1
0
0
-1
-2
-3
-4
-5
-5
-5
-5
-5
-5
-4
-4
-4
-4
-4
-4
-4
-2
-2
-2
-3
-3
-3
-2
-1
-1
-2
-2
-2
-2
-2
-1
-1
-2
-2
-1
-1
-1
0
0
0
0
-1
-4
-7
-10
-12
-14
-15
-16
-15
-14
-11
-10
-9
-7
-4
-1
1
1
1
0
1
2
3
3
3
5
6
7
7
8
8
8
7
7
7
7
8
8
9
9
9
10
10
10
10
12
15
19
24
25
21
11
-4
-29
-60
-90
-108
-111
-98
-79
-57
-36
-21
-11
-4
0
4
9
14
17
17
17
17
18
19
20
21
21
21
21
22
21
21
22
24
24
24
25
26
26
25
26
27
27
26
25
25
26
25
25
25
24
24
25
25
24
24
25
24
24
24
23
22
21
21
20
18
17
16
16
15
14
13
12
12
12
11
11
12
13
13
12
12
13
14
14
15
16
17
17
17
19
20
20
21
21
23
23
22
22
22
20
20
21
22
22
23
23
23
23
23
24
24
24
23
22
19
16
13
10
7
5
6
8
11
12
12
12
15
18
20
20
20
19
20
21
22
21
21
22
22
23
23
24
24
24
25
25
25
24
24
24
23
22
23
25
24
22
22
25
27
32
37
37
31
20
3
-24
-57
-83
-100
-101
-87
-70
-49
-32
-17
-6
3
10
14
18
21
22
23
24
26
27
25
24
26
27
26
26
26
27
28
28
29
29
29
29
29
27
26
28
28
28
27
28
26
25
26
27
26
26
26
27
27
26
25
26
27
27
26
26
25
25
25
24
24
23
22
21
20
19
19
19
19
19
17
16
15
13
13
13
14
15
18
19
20
20
19
18
19
20
19
19
18
18
18
18
19
19
18
17
16
14
13
13
14
15
16
14
13
13
14
14
14
13
12
9
5
3
2
0
-2
-2
0
1
3
4
5
7
10
14
16
14
14
15
16
16
15
16
16
16
15
16
15
15
15
15
15
14
15
15
15
14
13
13
12
12
13
14
15
19
24
27
25
16
4
-17
-45
-76
-102
-108
-101
-84
-63
-45
-31
-20
-11
-5
-1
4
9
12
13
15
16
15
14
15
16
17
17
17
16
14
14
14
14
14
15
15
15
13
13
15
16
17
17
18
18
19
20
19
20
20
19
18
18
17
17
18
19
19
19
19
18
17
16
16
16
15
14
12
11
10
8
7
6
6
7
7
7
7
6
6
7
8
9
8
7
7
8
9
8
8
10
10
9
11
11
11
11
11
11
11
11
11
12
12
12
12
13
14
15
15
14
11
7
4
2
1
0
1
1
3
5
5
6
8
11
13
14
13
11
11
11
10
12
12
13
13
14
13
13
14
14
14
14
14
13
13
11
11
10
10
9
8
8
8
10
14
20
21
16
7
-6
-27
-55
-85
-106
-109
-99
-81
-62
-43
-29
-16
-7
-3
1
8
12
13
14
14
13
13
14
14
13
12
14
15
16
16
17
17
16
16
16
16
16
16
16
16
17
17
17
16
17
19
20
21
21
20
19
19
21
22
22
22
22
22
21
20
20
20
21
20
19
17
15
15
14
15
13
13
12
12
13
12
12
12
12
12
11
12
12
13
14
14
15
16
16
15
15
15
15
15
16
18
17
17
15
15
16
16
16
16
15
14
15
16
17
17
17
17
15
14
10
8
4
2
3
3
3
3
5
7
7
7
11
14
14
12
9
10
10
11
12
14
15
15
15
15
15
16
16
15
15
15
16
16
15
14
12
12
11
12
12
12
14
18
24
27
26
19
8
-11
-39
-73
-96
-104
-93
-75
-55
-38
-22
-10
-2
1
5
10
13
15
15
16
16
16
16
17
17
17
18
17
18
17
17
16
17
17
16
16
15
15
16
16
16
15
15
16
17
17
17
16
17
17
17
16
17
18
18
18
18
18
17
17
16
15
15
14
13
12
11
9
8
7
5
5
5
5
3
2
2
2
2
2
2
3
3
2
1
2
3
3
4
3
3
3
4
4
4
4
4
3
3
4
5
5
5
4
4
5
5
5
5
5
5
6
7
7
4
1
-1
-3
-4
-6
-6
-6
-5
-5
-3
-2
-2
0
3
6
7
8
9
8
7
8
9
9
9
9
10
11
11
12
12
10
10
10
11
11
10
10
10
9
9
9
10
10
12
17
22
24
22
15
4
-10
-36
-67
-97
-114
-111
-99
-79
-59
-40
-25
-14
-8
-4
0
4
7
8
9
8
8
8
8
8
8
8
9
9
9
10
9
9
10
11
10
9
8
9
10
10
9
9
10
9
7
6
6
7
8
8
9
8
7
7
8
8
9
9
8
8
8
9
7
6
6
5
4
3
2
0
-2
-3
-2
-1
-1
-2
-3
-3
-4
-4
-4
-4
-4
-3
-1
-1
-2
-1
0
0
0
0
0
0
0
2
4
4
3
3
4
4
5
5
6
7
7
6
6
6
5
3
0
0
-3
-5
-6
-7
-5
-4
-2
-1
-1
1
4
6
7
7
7
7
8
9
8
9
10
11
10
9
9
10
10
9
9
10
9
9
10
10
9
10
11
13
13
12
12
14
18
23
24
21
12
-2
-28
-60
-87
-102
-97
-84
-66
-47
-31
-19
-10
-1
3
7
10
13
16
17
17
17
17
17
17
17
15
14
15
16
17
16
16
16
15
13
13
15
16
16
15
15
15
15
16
15
15
15
15
14
14
15
15
15
14
16
17
17
18
19
19
18
17
16
15
15
14
13
11
10
10
9
8
7
7
6
6
5
5
6
7
7
6
6
6
6
6
5
5
6
7
7
7
6
6
7
8
7
6
6
6
6
6
6
6
5
5
5
6
7
8
7
8
9
8
6
3
0
-1
-4
-6
-6
-5
-3
-2
0
0
0
1
4
7
7
7
7
6
7
8
8
8
7
6
6
6
7
8
8
7
7
7
7
6
7
7
7
6
6
6
6
7
10
14
17
15
9
0
-14
-33
-59
-85
-100
-98
-86
-68
-52
-36
-22
-12
-6
-2
2
7
9
10
10
10
10
10
11
11
10
11
12
12
12
12
12
12
11
11
11
10
10
10
10
9
8
8
8
9
9
9
10
10
10
9
10
9
10
10
10
10
11
11
11
10
9
8
7
7
6
4
3
1
0
0
-1
-1
-1
-1
-1
-1
-1
-2
-2
-1
-1
-2
-2
-1
0
0
0
0
1
1
1
2
2
2
2
3
3
2
3
4
4
4
6
6
7
6
3
0
-1
-3
-4
-4
-3
-2
0
0
0
1
4
6
9
9
9
9
8
9
8
7
8
9
10
11
11
12
13
13
13
13
14
14
14
13
12
12
13
13
13
14
15
16
17
21
27
31
28
18
4
-18
-46
-75
-95
-99
-88
-69
-48
-31
-17
-6
2
8
13
18
22
24
25
26
27
27
28
28
27
27
27
28
29
30
30
30
31
30
30
29
28
27
26
27
26
25
25
26
27
28
29
29
28
27
27
27
27
28
30
31
30
28
27
28
27
27
27
26
26
24
23
21
19
19
20
19
18
18
18
19
19
19
19
19
19
19
20
20
20
21
21
21
21
22
22
21
20
21
22
22
23
22
22
21
21
21
22
23
23
24
23
23
22
24
25
26
27
27
28
28
26
22
19
17
16
15
16
17
19
21
23
23
24
27
30
31
32
32
32
31
31
32
32
32
33
34
34
34
34
34
34
34
34
33
32
32
33
33
33
33
32
32
32
33
36
40
45
47
44
35
21
0
-30
-58
-78
-85
-76
-62
-43
-25
-8
4
14
20
25
28
31
33
35
35
37
38
37
37
37
37
36
37
38
38
38
36
37
36
36
37
37
36
34
35
36
37
36
36
35
36
36
35
35
34
35
35
37
37
38
39
39
39
39
40
39
39
38
39
39
37
36
35
35
34
33
33
32
32
31
31
30
30
29
29
30
28
28
28
28
28
29
29
28
28
28
29
29
29
29
30
30
29
30
30
31
31
31
31
30
31
31
33
33
33
33
34
35
35
33
29
26
22
21
18
18
19
21
23
25
28
30
32
35
37
38
38
37
37
36
36
35
35
36
37
35
35
34
35
34
34
34
33
34
33
34
33
33
33
35
36
35
35
35
39
43
48
48
41
28
5
-24
-54
-82
-91
-86
-70
-49
-29
-13
-1
9
17
22
27
31
35
37
38
39
39
40
40
40
40
40
40
40
41
40
40
40
39
39
38
39
39
38
38
37
37
36
37
36
37
37
37
36
35
37
37
38
37
36
36
36
37
35
36
34
34
33
33
33
33
33
31
29
27
26
25
25
25
24
23
22
22
22
21
22
23
23
22
21
21
22
21
23
25
25
23
23
24
25
25
24
24
23
24
24
25
26
25
25
26
26
25
25
25
22
17
15
14
12
12
13
15
17
17
19
21
22
25
27
27
26
26
26
26
27
28
29
28
28
28
28
27
28
29
28
28
27
28
28
28
27
28
28
28
27
27
27
29
35
41
44
39
28
12
-11
-41
-70
-92
-95
-84
-64
-42
-24
-11
0
10
16
20
25
29
31
31
31
31
31
32
32
32
32
32
32
31
31
32
33
33
30
29
28
29
28
27
27
28
29
29
30
29
28
27
27
29
28
29
28
28
27
27
27
27
27
26
26
25
24
23
22
21
21
21
20
19
16
14
14
14
15
14
12
10
10
9
9
10
11
12
11
10
9
9
9
10
11
11
12
13
14
13
12
11
11
12
14
14
13
13
14
14
14
14
14
14
15
15
15
16
15
12
8
5
3
1
0
0
0
2
4
5
6
7
10
13
15
15
13
13
13
13
14
15
16
16
17
18
17
17
17
18
18
16
15
14
15
15
15
15
15
15
15
14
14
18
24
29
29
23
13
-3
-29
-62
-89
-102
-96
-82
-64
-46
-30
-17
-7
-2
2
7
10
12
13
14
15
15
16
16
17
16
16
14
14
13
13
13
13
13
14
13
12
11
11
10
9
9
10
9
9
9
9
9
9
10
11
12
12
11
11
11
11
11
10
10
11
11
10
9
8
7
6
5
4
3
2
1
1
0
-1
-1
-1
-1
-1
-1
-2
-2
-2
-2
-2
-3
-4
-4
-3
-3
-3
-3
-2
-2
-4
-5
-5
-5
-6
-6
-7
-6
-7
-6
-6
-6
-6
-5
-5
-5
-5
-6
-6
-8
-11
-15
-19
-22
-24
-24
-23
-23
-21
-21
-19
-19
-16
-12
-11
-11
-12
-12
-12
-12
-13
-14
-15
-15
-15
-16
-17
-17
-15
-15
-16
-16
-16
-16
-16
-15
-15
-16
-16
-16
-15
-14
-13
-9
-5
-1
-2
-7
-16
-32
-60
-89
-115
-129
-126
-115
-97
-78
-57
-40
-29
-24
-20
-14
-9
-6
-5
-5
-6
-6
-6
-7
-7
-7
-7
-6
-4
-4
-5
-6
-6
-6
-6
-7
-8
-8
-9
-9
-9
-9
-9
-9
-8
-9
-9
-9
-11
-11
-13
-12
-11
-9
-10
-11
-11
-12
-12
-12
-11
-11
-12
-12
-14
-15
-17
-18
-19
-20
-21
-20
-21
-23
-24
-25
-26
-28
-27
-25
-24
-25
-26
-26
-26
-23
-24
-25
-24
-23
-24
-24
-24
-25
-22
-19
-16
-18
-20
-23
-23
-21
-19
-20
-22
-22
-20
-18
-18
-20
-22
-25
-28
-31
-32
-31
-30
-29
-27
-24
-24
-23
-20
-17
-16
-17
-17
-16
-16
-15
-14
-13
-15
-15
-15
-14
-13
-11
-10
-10
-9
-7
-6
-7
-8
-9
-9
-9
-9
-9
-8
-7
-7
-7
-5
-1
3
7
4
-4
-18
-41
-69
-99
-116
-114
-102
-81
-61
-44
-33
-25
-17
-12
-7
-4
-2
0
0
1
1
0
0
1
2
2
1
0
1
2
2
3
4
3
1
1
1
0
-1
-2
-1
0
0
0
2
2
0
0
2
4
4
4
5
5
5
6
8
8
7
7
8
8
8
9
7
5
4
3
2
1
2
2
0
0
1
2
1
1
0
2
3
4
3
3
3
3
4
2
1
1
2
4
4
4
3
3
3
2
2
2
1
2
3
1
0
0
0
1
2
3
4
3
3
3
1
0
-1
-3
-6
-7
-6
-4
-2
-1
0
0
3
6
7
7
7
8
10
11
11
10
11
12
14
14
15
15
15
16
16
16
13
13
13
15
16
18
17
16
16
16
16
16
21
26
31
31
22
10
-8
-32
-58
-83
-95
-97
-85
-68
-49
-28
-13
-3
4
10
16
21
24
25
25
25
24
23
23
25
27
27
26
24
24
24
25
25
26
27
27
28
27
26
25
25
26
27
27
27
25
24
24
25
26
26
25
26
25
25
27
27
27
24
24
23
23
23
23
22
21
20
18
18
16
16
14
12
11
10
10
10
11
11
11
10
9
9
10
10
11
11
12
11
11
12
13
13
12
13
12
11
10
9
9
9
8
8
9
8
7
7
6
3
1
-2
-5
-8
-9
-7
-5
-2
0
0
2
4
7
9
10
10
10
9
9
9
8
8
9
11
12
13
12
11
11
10
11
11
11
10
10
10
10
10
10
9
10
9
9
10
15
19
21
18
11
0
-14
-36
-63
-88
-103
-101
-87
-67
-48
-31
-19
-10
-5
0
3
7
10
11
12
12
12
13
13
13
13
13
12
12
11
11
12
11
12
11
12
13
13
12
11
10
11
12
11
11
12
12
11
10
10
11
11
12
13
12
11
12
11
10
9
9
9
9
8
7
6
5
3
1
0
0
-1
-2
-2
-2
-4
-4
-5
-6
-7
-7
-7
-6
-6
-6
-6
-5
-4
-5
-7
-7
-5
-5
-6
-9
-11
-11
-9
-9
-11
-12
-11
-12
-14
-14
-14
-15
-17
-23
-28
-30
-29
-30
-30
-29
-26
-26
-27
-27
-24
-20
-18
-16
-16
-17
-17
-17
-16
-15
-13
-12
-11
-12
-12
-13
-13
-12
-10
-9
-10
-10
-9
-7
-7
-9
-9
-8
-8
-9
-9
-8
-7
-2
2
5
2
-7
-19
-38
-62
-87
-107
-116
-111
-97
-77
-59
-45
-35
-29
-25
-21
-15
-8
-5
-4
-4
-3
-2
-3
-5
-5
-4
-4
-4
-4
-4
-3
-3
-3
-3
-4
-5
-6
-5
-5
-5
-5
-5
-5
-6
-5
-4
-5
-5
-3
-2
-3
-4
-5
-4
-2
-1
-1
-2
-2
-1
-1
-1
-3
-5
-6
-4
-3
-3
-2
-4
-7
-9
-9
-9
-7
-7
-10
-11
-10
-8
-8
-7
-7
-8
-8
-7
-7
-8
-7
-6
-5
-4
-2
-2
-2
-2
-2
-1
-1
-1
0
0
-1
-1
-3
-6
-9
-12
-13
-13
-12
-11
-9
-7
-6
-5
-3
0
2
3
4
5
5
4
4
5
5
6
6
4
3
3
3
6
6
5
5
6
8
9
10
11
12
12
11
11
11
13
14
19
26
30
28
19
6
-13
-38
-65
-89
-97
-90
-72
-51
-31
-18
-8
0
6
9
15
21
25
25
26
28
30
32
33
34
34
34
35
37
37
35
36
39
41
40
42
44
44
43
43
45
45
46
46
49
48
46
45
45
46
47
50
48
46
48
52
52
49
49
48
48
49
50
51
49
46
43
42
42
42
40
40
42
40
38
36
37
37
36
34
34
37
37
36
35
35
34
32
33
34
36
37
37
34
31
31
34
37
36
36
36
37
36
35
35
35
37
37
36
33
33
36
38
36
32
32
31
29
23
20
20
22
25
27
27
26
28
30
33
34
36
36
35
34
32
32
33
35
35
35
36
37
38
38
38
37
37
36
38
40
40
40
38
36
35
34
35
35
37
39
46
49
46
41
28
9
-16
-46
-68
-81
-77
-62
-43
-24
-8
3
11
18
25
31
34
36
37
39
39
40
41
42
41
41
42
42
43
43
43
43
43
44
44
44
42
43
43
44
44
44
44
42
42
43
45
46
46
46
44
43
40
41
41
41
41
42
45
46
46
42
40
40
41
42
41
39
35
35
36
37
36
36
36
35
37
37
37
35
37
37
35
35
36
37
39
41
38
34
34
36
36
35
36
37
39
38
37
38
38
36
33
33
34
38
39
39
37
38
39
39
36
35
35
33
29
25
23
22
21
22
24
25
27
28
30
30
32
34
35
33
33
35
35
35
34
33
33
34
34
31
30
30
33
33
31
31
33
36
35
33
32
34
34
35
35
35
34
36
42
45
44
38
34
24
4
-19
-43
-63
-68
-61
-42
-23
-7
5
15
22
26
29
32
35
36
38
39
39
37
36
35
36
36
38
40
40
37
34
32
31
32
34
35
36
33
31
30
31
32
33
32
29
29
29
31
32
30
30
30
32
31
31
30
31
31
32
33
33
33
33
34
33
32
30
28
27
26
25
26
28
28
28
27
27
26
26
27
27
28
27
27
27
27
28
29
30
30
31
29
29
29
30
31
31
30
28
28
28
30
31
31
30
28
27
26
27
28
29
30
29
30
31
30
29
27
26
23
21
18
16
15
16
19
20
21
22
24
26
30
32
31
31
30
31
31
31
30
30
29
29
29
29
30
29
29
29
29
29
30
30
29
28
27
27
26
26
27
29
32
36
40
40
34
24
11
-7
-30
-56
-76
-82
-74
-58
-41
-24
-9
1
10
15
19
24
28
30
31
32
32
31
31
31
30
29
29
28
29
29
30
30
30
30
29
30
29
31
31
31
30
29
29
30
31
30
30
29
29
28
28
29
31
32
31
30
29
29
28
28
28
30
31
31
30
28
26
24
22
21
21
20
19
18
18
17
16
18
19
18
17
16
16
16
17
19
19
19
19
18
17
17
19
18
17
16
17
17
17
16
16
17
17
17
17
17
18
18
18
14
10
8
7
4
2
2
2
4
4
6
8
10
12
16
17
16
15
15
14
13
13
15
15
15
15
15
15
15
14
14
14
14
13
12
12
13
14
12
12
12
12
13
16
20
25
29
27
20
10
-4
-28
-59
-86
-97
-93
-77
-58
-40
-26
-14
-6
-2
2
7
12
15
16
14
14
14
15
15
14
13
12
13
12
12
11
11
11
9
9
9
9
10
10
10
10
10
10
10
11
10
8
9
10
10
10
9
8
7
8
7
7
8
8
7
6
6
6
6
5
4
3
1
0
-1
-2
-2
-3
-3
-4
-5
-6
-5
-5
-6
-6
-5
-6
-7
-7
-8
-9
-8
-6
-4
-5
-5
-6
-6
-5
-4
-4
-5
-7
-8
-7
-7
-8
-7
-7
-8
-10
-10
-9
-9
-8
-8
-8
-8
-9
-10
-13
-17
-21
-23
-23
-23
-22
-20
-19
-18
-17
-15
-12
-10
-10
-10
-9
-9
-9
-9
-9
-8
-7
-7
-6
-6
-5
-5
-6
-7
-6
-5
-5
-6
-7
-7
-7
-7
-7
-8
-9
-8
-5
-1
1
3
1
-6
-16
-37
-63
-91
-113
-121
-120
-105
-91
-72
-56
-43
-34
-28
-20
-14
-10
-8
-8
-8
-7
-6
-6
-6
-7
-7
-7
-6
-6
-6
-7
-7
-8
-8
-8
-8
-8
-9
-9
-8
-8
-8
-8
-8
-8
-8
-8
-6
-5
-5
-5
-5
-5
-4
-4
-5
-5
-5
-6
-6
-6
-6
-7
-7
-8
-8
-9
-11
-12
-13
-14
-15
-16
-16
-17
-17
-16
-16
-17
-16
-15
-15
-14
-14
-14
-14
-12
-12
-12
-11
-11
-11
-12
-13
-13
-11
-9
-9
-10
-11
-10
-10
-10
-9
-8
-8
-8
-8
-8
-8
-9
-11
-14
-18
-19
-19
-19
-18
-16
-14
-15
-14
-12
-8
-5
-3
-3
-3
-3
-3
-4
-3
-2
-1
0
0
0
-1
0
0
0
0
1
1
0
1
2
2
2
3
4
3
3
4
7
11
16
20
19
11
-1
-20
-48
-77
-99
-110
-103
-91
-74
-56
-37
-22
-11
-3
0
3
8
13
15
15
15
18
19
19
18
18
18
18
19
21
22
20
18
18
19
20
21
22
21
21
21
22
21
21
21
20
21
22
23
23
25
27
27
27
26
26
25
26
26
26
26
24
22
22
24
25
24
23
22
22
21
20
20
20
21
21
22
21
19
19
22
21
21
21
21
21
22
23
24
24
24
24
25
26
25
24
25
24
25
26
27
27
26
28
28
28
28
29
30
30
31
30
31
30
28
25
23
22
22
23
21
22
24
26
27
27
31
33
34
33
34
34
35
34
32
32
33
33
31
32
33
35
35
34
34
33
33
30
29
31
32
30
30
31
31
31
32
35
39
44
46
43
35
21
-2
-35
-64
-80
-79
-67
-51
-34
-16
0
13
23
30
32
35
36
37
37
39
41
42
41
39
40
40
41
40
38
37
36
37
37
39
38
36
33
34
36
36
36
35
35
33
33
35
35
32
30
31
31
31
29
29
30
31
28
25
25
27
28
27
24
23
23
23
23
24
22
20
16
15
15
16
18
19
19
18
17
17
19
20
19
17
17
17
18
18
17
16
18
18
18
16
14
11
11
15
17
17
15
14
15
17
17
16
16
17
18
18
18
17
14
12
10
9
5
2
4
8
10
8
7
8
10
12
14
15
15
14
13
13
14
15
14
14
14
15
15
14
13
12
12
11
11
11
10
10
10
9
7
7
8
10
10
10
14
18
19
13
0
-17
-42
-72
-98
-111
-108
-97
-78
-59
-43
-33
-24
-16
-9
-4
0
3
6
7
6
5
6
7
5
3
4
7
8
8
6
6
8
9
11
12
9
6
5
6
6
8
10
10
7
3
3
6
8
7
8
10
12
11
10
9
9
10
11
10
9
9
11
11
9
8
7
7
5
3
3
3
0
-2
-1
0
0
0
1
1
0
-1
-1
-1
0
2
3
1
-2
-3
0
2
3
3
3
2
2
1
1
0
-1
0
0
0
0
1
2
3
4
3
1
0
0
-1
-4
-6
-8
-9
-8
-7
-7
-7
-6
-4
-2
-1
0
1
4
6
4
2
1
0
0
2
5
6
5
4
4
4
4
4
4
6
8
7
6
5
4
4
5
3
3
6
10
14
19
21
18
12
3
-15
-43
-70
-93
-100
-93
-77
-59
-42
-27
-18
-8
0
4
7
8
9
12
13
12
10
8
8
9
8
7
10
13
13
10
9
11
11
10
9
8
8
7
7
7
7
5
4
6
8
9
8
6
5
5
6
7
8
8
9
10
10
8
9
9
8
7
8
7
6
6
5
5
4
4
3
1
1
1
1
1
2
3
4
4
4
4
4
4
4
4
4
5
5
5
6
5
6
6
5
4
5
5
4
4
4
4
5
5
6
6
7
8
8
7
5
3
1
0
-2
-4
-3
-1
0
0
2
1
1
3
7
8
9
9
8
8
8
9
10
12
12
11
10
9
9
11
14
13
13
14
13
12
10
9
8
8
9
10
10
11
12
17
22
23
18
7
-9
-38
-73
-99
-113
-105
-88
-69
-50
-34
-19
-9
-2
1
5
10
13
16
18
19
19
18
18
18
19
19
19
19
20
21
21
20
19
19
19
19
19
18
17
17
18
18
17
16
16
17
17
15
15
16
18
17
16
15
15
17
18
20
20
20
18
17
15
15
16
15
15
14
14
13
12
11
11
10
9
8
9
9
9
9
9
9
8
8
9
10
11
10
10
9
9
9
10
10
10
11
11
10
10
10
10
10
11
12
12
10
8
7
4
1
-1
-3
-2
-1
1
3
5
5
5
7
10
12
12
13
12
10
9
11
13
13
13
13
13
13
14
14
14
14
14
15
15
16
16
15
13
13
13
14
14
15
16
19
24
27
25
16
1
-23
-53
-81
-99
-102
-91
-76
-58
-40
-25
-13
-4
3
9
13
16
18
18
19
21
21
21
21
22
22
24
24
25
25
25
23
23
23
23
24
23
22
21
22
22
23
24
23
23
22
23
23
22
23
24
24
22
22
22
24
25
25
23
22
23
23
23
22
22
21
20
18
18
17
15
16
16
16
15
16
16
17
16
16
15
15
15
16
17
17
16
16
16
17
19
20
20
19
19
20
20
21
21
21
20
20
19
19
19
19
20
20
22
21
21
19
17
15
14
12
10
8
7
8
10
11
11
13
14
16
21
22
21
19
20
20
20
21
22
22
21
21
22
23
23
24
25
27
28
28
27
25
24
23
23
24
24
23
22
23
25
30
35
36
31
24
12
-5
-29
-55
-76
-85
-79
-64
-46
-29
-15
-2
7
12
17
20
23
23
24
25
26
27
28
29
29
29
29
29
30
28
28
27
28
28
28
27
27
27
27
27
27
26
25
26
25
24
24
25
25
25
26
27
27
27
27
26
24
24
26
27
27
26
26
26
26
25
24
22
20
19
19
19
18
18
18
19
18
17
17
17
19
19
19
18
19
19
19
18
19
20
20
20
20
20
20
21
22
22
23
22
22
22
22
21
21
21
21
22
22
23
23
22
21
19
16
13
12
10
9
10
11
13
15
16
16
18
22
25
26
26
25
24
25
25
26
27
27
28
28
28
28
28
28
28
28
28
28
29
29
29
29
30
30
29
28
30
31
35
39
43
42
36
25
8
-18
-49
-78
-90
-87
-73
-53
-31
-12
0
8
15
19
23
27
31
33
34
35
35
36
36
35
34
34
34
34
33
32
32
32
33
33
33
33
32
33
32
33
32
32
32
32
33
32
32
32
32
32
32
32
32
32
32
32
32
31
32
31
30
28
28
27
26
25
24
24
21
19
19
19
18
17
17
17
17
17
17
17
17
17
18
17
16
17
17
17
17
18
19
20
20
20
20
20
20
21
22
22
22
22
22
22
23
23
20
17
13
10
8
5
5
6
8
10
12
13
14
17
20
22
21
21
21
21
20
20
22
22
22
22
23
24
24
26
26
26
25
26
26
26
26
26
28
28
27
27
26
26
28
35
42
45
40
29
9
-20
-55
-86
-103
-97
-84
-64
-47
-28
-12
0
9
14
18
24
28
29
30
30
30
30
31
32
31
31
31
30
29
29
29
29
27
27
26
26
27
28
28
26
25
25
25
24
23
24
23
23
24
24
23
22
22
23
23
22
23
22
22
20
20
21
19
17
15
14
12
10
9
8
7
6
6
5
6
7
7
6
7
7
7
7
7
8
9
10
12
12
13
13
14
14
15
16
16
16
16
16
15
15
15
14
14
14
15
13
12
13
15
16
16
14
12
9
6
4
2
0
0
2
5
6
7
8
9
11
13
14
14
14
13
12
11
11
12
11
11
11
13
14
15
16
16
17
17
17
16
16
16
16
18
18
16
15
16
17
22
29
34
30
21
7
-13
-40
-69
-96
-110
-110
-96
-77
-57
-36
-22
-10
-1
3
8
13
15
16
17
18
19
19
18
18
18
18
18
18
18
18
18
18
18
17
17
17
16
16
16
17
17
16
15
13
13
12
12
12
12
13
13
15
15
15
14
14
15
14
14
13
12
12
12
10
8
6
6
5
4
3
2
1
0
0
-1
0
0
-1
-1
-1
-2
-2
-2
-1
0
0
0
1
1
1
1
1
2
2
1
0
-1
0
0
0
0
-1
-1
0
0
0
0
-1
-1
-2
-6
-10
-11
-12
-15
-15
-13
-10
-8
-9
-11
-11
-7
-3
1
2
1
0
0
0
1
2
3
4
5
6
7
8
9
8
8
8
9
10
10
12
12
12
11
9
9
10
11
13
14
16
21
25
23
14
2
-19
-50
-83
-109
-120
-112
-95
-71
-48
-29
-16
-6
-2
1
5
10
12
13
15
16
16
15
15
16
16
16
16
15
15
16
16
17
17
17
16
15
15
15
15
15
15
14
14
14
14
14
13
15
16
16
15
15
16
16
16
17
17
17
17
18
16
15
15
14
13
13
12
10
8
7
7
5
3
3
3
3
3
5
5
3
2
3
4
5
5
4
4
5
5
5
6
5
5
6
6
6
5
7
8
9
9
8
8
7
6
7
8
9
11
12
11
8
4
1
0
-2
-3
-4
-4
-3
0
1
3
4
6
7
8
9
10
10
11
10
10
12
12
12
12
13
15
14
14
14
14
14
14
12
12
12
12
11
10
11
11
10
10
14
21
25
26
22
13
-1
-25
-60
-91
-111
-109
-93
-73
-53
-35
-18
-6
0
5
8
12
14
16
18
18
18
17
17
16
15
15
14
13
13
15
15
15
15
14
14
12
11
11
11
10
11
10
9
8
9
10
10
11
11
11
11
11
11
12
12
12
13
13
14
14
14
14
12
10
10
10
9
7
5
4
4
3
3
2
2
1
0
0
0
1
0
0
0
0
0
0
0
0
0
1
1
1
1
2
2
2
2
1
1
1
2
2
1
1
1
1
2
3
3
3
4
3
0
-2
-5
-6
-8
-10
-9
-6
-4
-3
-2
0
1
3
6
7
6
6
6
7
7
8
9
10
12
11
11
12
11
11
11
11
11
11
11
11
10
10
10
11
12
11
11
13
19
25
27
23
10
-7
-32
-63
-89
-111
-112
-101
-83
-59
-38
-23
-11
-1
4
8
13
15
16
18
18
18
18
18
18
17
17
16
17
17
17
16
15
15
14
15
15
14
13
13
13
14
14
14
15
14
15
16
16
16
17
18
18
17
17
19
20
19
19
18
18
16
16
16
15
14
13
12
11
9
8
8
7
7
6
5
5
5
5
4
4
4
4
4
4
4
4
5
5
5
5
5
5
5
5
5
4
5
5
5
5
5
5
6
7
7
6
5
1
-1
-5
-7
-7
-6
-5
-4
-2
-1
0
2
5
8
9
9
8
8
8
7
9
9
10
10
11
13
13
16
18
19
20
20
21
21
21
20
21
22
22
21
21
21
22
26
33
38
36
30
18
0
-24
-55
-85
-103
-109
-96
-78
-55
-33
-16
-2
6
11
15
19
23
25
26
27
26
26
27
28
28
28
27
26
27
27
27
27
27
28
28
28
27
27
26
25
25
26
26
25
24
25
26
26
26
27
27
27
27
28
27
27
26
27
28
26
26
25
24
22
21
20
19
18
16
16
15
15
14
15
15
14
14
14
14
15
15
15
15
15
16
15
14
15
16
16
15
14
14
14
15
16
16
15
13
13
14
14
13
13
14
15
15
15
15
15
13
11
9
6
3
2
4
5
6
7
8
9
11
13
16
17
17
15
14
12
12
12
13
12
11
13
15
15
14
16
17
18
19
19
19
18
18
17
18
18
18
18
17
17
21
26
30
31
26
19
6
-15
-44
-77
-98
-96
-80
-58
-39
-25
-12
-3
2
6
10
15
16
17
18
18
19
19
18
18
17
18
17
17
17
18
19
18
17
16
16
15
16
17
18
17
17
16
16
16
15
15
15
15
16
16
16
16
16
17
17
16
16
17
17
17
18
18
17
16
15
13
12
11
11
11
11
10
9
10
9
9
10
10
9
9
9
8
8
9
9
9
9
9
9
9
9
8
9
9
9
8
8
7
7
7
7
7
6
6
5
5
4
5
4
4
2
0
-3
-5
-7
-10
-11
-10
-9
-7
-6
-4
-2
0
4
5
4
4
4
3
2
2
3
3
4
5
6
7
7
7
8
8
9
9
9
9
8
8
8
7
7
7
8
8
8
12
17
19
16
8
-4
-26
-54
-84
-103
-104
-94
-78
-61
-44
-30
-17
-8
-2
2
6
10
12
13
14
14
14
15
15
15
15
15
15
15
14
15
16
15
14
14
15
15
15
14
13
13
13
13
13
13
14
14
14
13
13
13
14
14
15
14
14
13
13
13
12
11
11
11
10
10
9
8
8
7
6
6
4
4
3
4
4
3
3
3
3
3
3
3
3
4
4
4
5
6
5
5
5
6
5
5
5
4
5
4
4
3
3
3
4
4
4
3
0
-3
-6
-9
-11
-12
-10
-9
-8
-7
-5
-2
1
3
3
3
3
3
3
3
4
5
5
4
4
5
7
8
8
9
9
9
10
11
12
12
12
11
11
12
12
12
13
16
21
24
25
21
11
-3
-28
-60
-86
-105
-107
-97
-79
-60
-40
-21
-8
-1
4
9
13
17
20
22
23
25
26
27
26
25
26
27
26
25
26
26
25
25
24
24
23
23
23
24
25
24
24
24
23
24
24
24
23
24
25
26
25
25
24
24
25
27
27
26
26
25
25
23
21
21
21
21
21
21
20
18
17
17
17
16
16
16
17
16
16
16
17
17
18
19
17
16
17
20
22
20
17
16
17
16
17
18
19
19
18
18
19
18
18
18
19
19
20
19
18
17
17
16
13
8
4
1
2
5
7
8
8
8
8
10
11
14
16
16
15
13
12
10
12
14
15
14
13
13
14
16
18
18
19
18
18
17
17
17
17
18
17
17
16
17
21
27
32
33
28
17
1
-22
-51
-75
-94
-95
-82
-66
-45
-27
-13
-2
5
11
14
16
18
20
23
24
24
23
23
25
26
27
27
26
26
27
27
26
24
23
24
24
24
24
24
23
22
23
24
24
24
24
24
25
26
26
26
27
28
29
28
28
28
31
31
30
28
27
27
27
27
26
26
24
23
21
20
19
18
19
18
17
16
15
15
16
17
18
18
17
17
16
16
15
15
16
17
17
17
18
16
15
16
17
17
16
16
17
17
16
17
19
18
17
15
12
8
6
4
1
-1
-1
0
4
7
7
6
7
11
13
12
10
10
11
12
11
12
12
15
16
16
16
17
18
18
20
20
21
20
19
21
22
22
20
19
18
18
18
20
24
31
35
32
23
8
-14
-45
-77
-99
-105
-96
-79
-62
-41
-27
-18
-9
-3
2
6
11
15
16
16
15
15
16
17
17
16
16
15
15
15
16
17
17
17
17
17
17
16
16
17
18
17
16
16
16
18
17
17
14
12
14
17
19
18
18
17
16
14
15
16
17
15
15
16
14
13
10
9
10
10
9
6
5
5
7
8
8
7
6
6
7
7
8
9
8
8
11
13
13
12
11
10
11
12
12
13
15
15
14
13
13
14
15
15
14
15
16
16
14
10
7
4
3
3
3
3
2
4
5
6
9
12
16
15
14
14
15
14
13
14
13
11
10
11
12
12
14
15
16
17
18
17
16
15
16
16
15
15
14
15
16
16
15
17
22
26
24
17
5
-18
-51
-83
-106
-109
-98
-83
-66
-49
-30
-16
-4
2
8
13
16
19
21
20
20
22
22
21
22
25
25
24
23
23
23
22
22
23
23
22
22
20
19
21
20
20
19
19
19
19
19
19
20
20
21
21
20
19
20
22
22
23
22
22
21
21
21
21
20
20
19
16
14
14
13
12
9
7
9
10
10
8
7
7
9
10
10
9
10
13
13
11
10
13
15
16
15
13
13
13
12
13
14
14
15
15
15
13
12
12
13
15
16
16
15
13
12
8
4
1
0
-2
-5
-6
-5
-1
1
2
2
3
5
9
11
12
12
9
6
5
6
7
8
9
8
8
7
8
8
10
11
9
8
8
8
8
8
7
7
7
7
7
7
9
16
23
24
20
10
-4
-27
-58
-93
-119
-126
-114
-92
-68
-47
-31
-17
-6
0
6
12
17
20
24
26
26
26
26
27
27
27
29
27
28
30
31
29
28
26
25
26
25
24
24
23
22
21
20
18
19
19
17
15
14
13
13
14
14
14
14
16
15
15
15
16
16
17
17
15
14
11
9
7
7
7
7
5
3
3
4
2
1
2
4
5
5
4
4
3
2
3
2
2
2
1
0
2
4
6
6
5
4
3
1
1
5
7
5
4
4
4
3
1
-1
-6
-10
-13
-15
-15
-14
-13
-11
-9
-9
-10
-5
1
6
6
4
3
2
2
3
3
3
3
6
8
9
10
11
11
10
10
10
11
11
12
13
12
10
9
7
8
9
11
13
17
20
22
20
13
-1
-26
-61
-93
-117
-121
-111
-91
-68
-46
-29
-17
-9
-2
2
5
8
12
16
16
15
16
15
15
18
20
18
18
18
19
19
18
17
18
20
20
20
20
20
17
17
19
20
20
19
18
17
17
18
20
22
21
20
20
22
24
24
23
21
21
23
22
21
21
20
18
19
20
20
17
15
14
14
15
14
14
15
15
14
14
14
13
11
12
15
15
15
15
15
13
12
14
16
16
15
15
15
15
15
15
14
13
14
15
15
14
15
16
18
18
16
13
11
9
6
3
2
2
6
9
9
9
13
16
18
18
17
16
17
18
16
15
15
17
19
19
18
19
22
23
22
22
23
25
24
24
24
24
23
22
22
22
22
22
24
28
32
33
28
19
3
-21
-52
-81
-94
-93
-81
-63
-42
-24
-13
-5
0
5
9
13
15
17
18
19
19
19
18
19
21
21
21
22
22
20
19
18
17
17
17
17
17
17
16
15
15
16
19
19
18
16
17
19
21
21
21
22
21
22
23
24
24
24
24
23
22
21
22
22
20
19
18
16
14
13
12
11
10
10
12
11
10
10
10
10
10
12
12
12
12
12
13
13
12
12
12
13
14
15
14
12
12
12
12
13
14
13
12
10
10
11
13
14
13
10
7
4
1
0
0
0
2
4
5
5
5
8
11
12
11
10
10
10
10
10
9
10
12
13
13
14
15
16
16
17
18
18
19
20
19
18
16
16
16
16
14
14
15
19
23
24
21
11
-2
-26
-57
-85
-105
-105
-96
-79
-55
-33
-18
-10
-1
4
8
11
13
16
18
19
21
21
20
19
19
20
22
23
23
23
22
22
22
21
20
21
23
23
21
21
20
20
19
20
21
21
20
20
21
20
20
20
21
21
23
23
23
24
23
22
21
23
24
22
20
17
16
15
15
13
13
12
11
9
9
11
11
10
9
10
9
8
9
9
10
10
10
10
10
10
10
10
10
10
11
12
10
8
7
6
5
6
7
8
8
8
7
4
2
0
-2
-5
-6
-7
-6
-4
-2
-2
-2
-2
1
6
10
10
8
7
6
6
6
7
7
7
8
8
9
10
10
12
12
12
11
11
12
14
14
15
14
15
16
16
16
17
20
25
32
35
32
23
10
-9
-40
-74
-99
-110
-99
-80
-59
-39
-23
-11
-3
1
5
9
13
16
17
17
16
18
18
20
20
19
19
19
21
23
23
22
22
22
21
20
20
23
24
24
22
21
23
21
20
22
24
21
20
22
22
22
22
22
22
21
21
20
22
21
20
18
18
17
17
17
17
15
13
13
12
12
12
13
12
12
11
11
12
11
12
12
12
10
10
12
13
13
14
15
15
15
17
18
17
17
16
16
17
16
16
16
16
17
18
17
16
15
16
17
19
19
18
16
13
11
10
7
5
5
6
9
11
13
14
15
18
20
21
19
18
18
20
22
22
22
22
22
21
22
23
24
24
24
24
24
23
23
23
24
23
22
22
22
22
23
23
25
30
35
34
27
15
-4
-33
-64
-89
-103
-99
-84
-65
-45
-28
-17
-8
0
4
7
10
15
19
20
19
20
19
19
18
18
18
20
22
21
20
18
17
17
19
19
19
17
15
15
15
16
15
16
16
16
17
17
18
17
18
20
21
19
17
17
16
17
18
19
17
16
16
16
15
14
14
13
11
10
10
9
9
9
8
7
7
8
8
8
8
7
8
9
9
8
8
8
8
8
8
8
9
10
10
10
10
9
9
9
10
11
11
12
11
11
12
13
13
13
12
9
6
3
1
0
-1
0
2
4
4
5
7
10
13
15
14
13
13
14
14
14
15
15
16
17
18
19
20
21
20
20
20
21
20
20
21
21
21
19
19
18
19
19
19
23
28
34
34
27
14
-6
-35
-66
-94
-106
-102
-85
-63
-41
-25
-14
-5
1
5
9
14
17
17
17
18
18
18
17
18
19
18
17
17
17
17
18
17
17
16
16
17
17
17
17
17
17
17
16
16
17
17
18
19
18
17
17
16
15
16
16
16
16
16
16
15
14
14
14
12
10
9
8
7
7
6
4
3
2
2
1
1
1
1
1
3
4
5
5
4
4
4
4
4
4
5
6
6
7
6
6
6
5
5
6
6
6
6
6
7
7
6
5
3
0
-2
-4
-5
-7
-6
-4
-2
-1
-1
0
4
9
10
10
9
9
9
9
8
8
9
8
8
9
9
10
11
11
12
13
13
12
11
12
12
13
13
13
13
12
12
13
17
22
27
27
20
7
-13
-42
-74
-102
-115
-113
-96
-78
-56
-35
-21
-11
-4
0
3
8
12
14
14
15
16
16
16
17
17
17
17
16
17
18
18
18
19
18
19
18
18
19
17
18
18
17
16
16
16
16
16
17
17
16
15
16
16
16
16
16
17
17
16
16
16
15
15
14
12
12
11
9
7
7
6
6
5
5
4
4
5
5
6
5
4
4
5
6
6
6
7
8
8
9
9
9
9
9
10
9
9
11
12
11
9
9
9
8
8
9
11
13
13
13
11
9
6
4
1
-1
-3
-3
-1
0
0
2
4
6
8
10
11
9
9
9
10
9
10
11
12
13
13
13
13
14
15
16
17
16
16
16
16
15
16
16
16
17
17
17
17
22
29
35
33
29
20
4
-21
-55
-88
-106
-107
-91
-69
-48
-30
-17
-5
3
7
11
15
18
20
22
22
22
22
23
24
23
22
22
22
22
22
21
21
20
20
20
21
20
19
19
19
19
18
19
18
18
17
18
18
18
19
18
18
19
20
21
21
21
20
21
20
21
20
19
18
18
18
16
14
12
12
10
9
9
8
7
7
8
8
7
7
8
9
9
9
9
10
9
9
10
10
9
9
10
11
11
11
11
11
11
10
11
11
10
10
10
10
10
11
11
11
9
6
4
1
0
-2
-3
-3
-2
0
0
2
2
3
7
10
11
11
10
10
10
11
12
13
14
15
15
17
17
18
18
18
18
20
20
19
19
20
20
20
20
20
20
21
23
28
33
37
37
30
19
1
-28
-65
-96
-106
-100
-83
-62
-41
-22
-9
0
4
9
14
19
22
24
25
24
24
24
24
23
23
24
25
24
23
23
22
21
21
22
21
20
20
20
21
20
21
22
22
21
22
22
21
22
22
23
23
24
24
25
25
24
25
26
27
27
26
26
24
23
22
21
19
18
16
16
15
15
13
13
12
12
12
11
12
12
12
11
11
13
13
12
12
12
13
14
15
15
16
16
16
17
16
16
16
17
17
17
18
19
19
18
18
16
11
7
5
3
1
2
2
3
5
6
7
9
12
15
16
14
13
12
13
12
12
13
13
14
14
15
16
17
18
19
19
19
19
20
20
19
20
19
19
18
18
19
19
21
27
34
38
34
23
8
-15
-46
-79
-105
-112
-103
-85
-62
-40
-25
-14
-5
1
5
9
14
18
18
18
19
18
17
18
20
19
20
20
20
20
21
22
21
20
18
18
18
18
19
19
19
18
18
18
19
18
19
19
19
19
19
20
20
21
22
22
22
22
23
22
22
21
20
18
17
17
16
14
13
12
11
9
8
8
7
6
7
9
9
8
7
7
8
9
9
10
10
10
10
11
11
10
10
10
10
11
11
11
11
12
11
12
12
12
12
12
12
12
12
13
13
10
6
4
2
1
0
-1
-1
1
4
4
4
6
10
13
13
12
12
11
11
11
12
12
13
14
14
14
14
13
14
13
14
15
16
16
16
15
15
15
14
15
16
15
16
21
27
31
32
27
17
0
-28
-61
-90
-106
-103
-90
-68
-47
-28
-13
-3
2
8
13
17
20
22
23
23
23
24
25
25
25
25
25
24
23
24
24
24
22
22
22
21
20
20
19
19
18
17
17
17
17
17
16
15
16
17
17
17
17
17
17
17
18
18
17
17
16
16
16
15
13
12
10
10
10
9
8
8
8
7
7
7
6
6
6
8
8
7
6
7
8
8
8
8
9
8
8
7
7
7
9
10
9
8
8
8
8
8
9
9
7
7
9
11
11
9
6
2
0
-2
-3
-5
-5
-3
0
1
1
2
5
8
11
12
12
12
11
9
9
10
11
12
12
12
12
12
13
13
14
13
13
12
12
12
12
12
11
10
10
11
13
16
20
24
29
28
22
10
-10
-39
-74
-101
-111
-106
-88
-66
-40
-22
-11
-2
4
8
12
17
22
24
25
26
25
25
25
25
26
26
24
23
24
24
24
24
24
25
25
24
24
24
24
25
25
25
25
25
24
23
23
23
24
24
25
26
26
26
24
23
22
25
27
28
27
25
23
19
18
17
17
16
13
10
9
9
9
10
9
8
7
7
8
9
9
9
9
8
8
7
9
11
12
12
10
9
10
9
8
9
11
11
9
7
8
9
9
10
10
9
7
2
-1
-4
-8
-9
-7
-6
-5
-1
0
0
1
3
7
9
9
8
7
5
6
8
9
8
8
9
11
13
14
15
14
14
14
15
14
12
13
13
13
13
15
14
13
11
14
20
28
31
26
16
-1
-28
-63
-98
-117
-117
-105
-83
-64
-45
-30
-16
-6
0
4
7
9
13
16
16
15
15
15
15
14
13
14
16
16
16
15
15
14
13
14
15
15
15
15
13
13
14
14
14
14
15
16
16
14
14
15
15
15
16
17
15
15
16
17
16
14
13
12
12
11
10
8
7
8
9
8
6
4
4
3
2
1
0
1
2
3
2
1
1
2
4
4
2
3
5
5
4
4
4
5
6
6
5
4
4
4
4
4
4
5
4
5
5
4
2
0
-3
-5
-7
-10
-10
-9
-8
-5
-3
-2
-1
2
6
8
6
6
6
5
3
2
3
5
5
5
5
5
6
8
8
9
10
10
11
11
11
11
12
12
12
10
9
9
12
17
23
27
26
20
8
-13
-47
-82
-107
-116
-106
-87
-69
-51
-33
-17
-8
-2
2
6
9
12
12
12
14
16
16
15
15
16
16
16
15
15
15
16
17
15
13
13
14
15
15
13
14
14
14
13
14
16
16
16
16
17
17
17
18
20
21
20
20
21
21
20
19
17
17
18
18
18
15
14
13
12
11
10
10
10
10
10
11
12
10
9
10
11
10
9
10
10
10
10
11
12
12
12
12
12
12
12
12
12
12
13
14
14
14
13
14
13
13
14
15
14
13
14
12
8
6
5
3
2
0
2
4
6
7
8
10
13
15
16
15
15
15
17
18
19
18
17
16
17
17
17
18
18
19
20
19
18
19
21
21
20
20
20
21
20
21
21
23
26
32
37
36
28
14
-9
-39
-71
-96
-105
-96
-78
-57
-35
-19
-9
0
6
10
14
19
22
23
24
23
23
24
26
27
26
26
25
25
24
24
25
24
24
22
22
23
23
23
23
24
25
25
25
25
24
24
24
24
23
23
24
25
25
25
25
25
25
24
24
24
23
24
24
23
20
17
16
16
17
17
16
15
15
15
14
12
12
13
13
14
14
14
14
14
15
16
17
17
19
19
19
20
19
20
20
21
21
20
21
22
22
23
24
23
22
20
17
15
12
10
8
7
8
9
10
11
12
13
15
19
21
20
18
17
17
16
17
18
18
19
20
21
21
21
22
22
22
23
24
24
23
23
23
23
22
21
23
24
24
25
30
35
39
38
30
18
0
-27
-60
-91
-103
-99
-81
-60
-40
-21
-7
1
7
10
15
19
22
26
28
29
27
27
27
28
27
27
26
26
27
28
28
27
27
27
27
27
27
27
26
27
28
29
28
27
27
28
28
28
30
30
30
30
30
29
28
29
30
30
29
28
27
27
27
25
23
23
23
23
20
18
16
16
15
15
14
12
12
11
11
11
11
12
14
14
14
13
12
13
13
13
13
13
13
13
14
13
13
12
13
13
13
14
15
15
14
14
14
13
11
7
4
1
-1
-2
-2
0
2
2
3
5
9
14
16
16
15
14
14
13
13
14
14
14
14
15
15
15
17
19
19
19
18
18
18
18
20
20
18
17
17
17
17
20
25
31
32
29
18
1
-23
-60
-91
-108
-107
-89
-70
-49
-30
-14
-4
0
4
8
12
17
20
23
23
23
24
24
24
24
25
26
25
24
25
25
25
25
25
26
26
27
26
27
28
28
28
28
28
28
29
28
27
27
28
28
29
29
29
28
28
28
29
29
28
26
25
26
24
22
21
21
20
18
17
17
17
16
16
15
15
14
13
13
14
14
14
15
15
17
17
17
17
16
17
17
17
17
18
18
19
18
17
17
17
18
18
18
18
16
17
18
19
17
15
12
9
8
7
4
2
3
5
7
8
8
8
10
15
17
18
17
15
15
13
12
13
15
16
16
17
18
19
19
20
20
21
21
21
22
21
21
20
20
20
19
19
20
22
26
32
36
35
26
12
-9
-39
-69
-94
-107
-99
-86
-64
-42
-25
-12
-2
6
11
16
21
23
23
23
24
24
25
26
26
26
26
25
27
27
27
25
26
26
25
25
25
25
24
24
24
24
24
24
25
25
26
26
25
25
24
24
24
25
25
26
25
25
26
26
26
26
25
24
23
21
20
20
19
18
15
14
14
13
12
12
12
12
10
9
8
8
8
9
10
10
10
9
9
9
10
10
10
9
9
9
9
8
8
8
8
9
9
8
8
8
8
7
7
8
7
4
1
-1
-3
-5
-7
-7
-7
-5
-4
-2
0
1
4
7
8
8
8
6
5
5
6
7
7
7
9
11
11
10
9
9
10
11
13
12
11
10
10
9
9
9
8
7
8
13
20
25
25
19
8
-7
-32
-67
-101
-122
-123
-107
-86
-63
-43
-27
-14
-8
-6
-4
0
3
5
5
5
4
3
3
3
2
1
1
0
0
0
1
1
0
2
2
0
-1
-1
-1
0
0
0
1
1
1
1
1
1
2
3
4
4
4
4
3
1
0
2
3
4
4
4
5
5
1
-1
-3
-4
-2
0
-2
-6
-7
-7
-8
-9
-10
-9
-8
-7
-8
-9
-11
-12
-10
-8
-9
-11
-10
-9
-10
-12
-13
-11
-8
-8
-10
-11
-12
-11
-10
-11
-12
-11
-11
-10
-9
-8
-11
-17
-21
-22
-24
-27
-30
-28
-27
-26
-25
-22
-20
-16
-13
