-411
-415
-424
-432
-434
-430
-426
-430
-435
-437
-434
-430
-433
-437
-438
-440
-442
-442
-439
-438
-437
-442
-440
-439
-437
-434
-434
-433
-426
-401
-372
-394
-478
-573
-642
-679
-693
-686
-671
-648
-619
-592
-560
-526
-493
-463
-442
-435
-433
-432
-428
-424
-423
-422
-418
-417
-414
-414
-414
-414
-410
-409
-407
-406
-406
-403
-399
-393
-386
-385
-382
-379
-373
-365
-362
-355
-346
-337
-330
-318
-306
-298
-292
-284
-277
-273
-270
-268
-264
-262
-263
-265
-270
-275
-281
-286
-295
-307
-321
-335
-350
-361
-370
-380
-389
-398
-402
-408
-411
-414
-413
-414
-418
-421
-421
-418
-423
-426
-424
-421
-421
-423
-423
-424
-424
-420
-418
-422
-422
-420
-417
-414
-418
-422
-422
-420
-418
-418
-422
-422
-420
-417
-418
-418
-421
-421
-418
-422
-423
-420
-420
-421
-425
-425
-421
-420
-418
-418
-425
-426
-427
-427
-426
-424
-422
-424
-426
-428
-427
-426
-424
-423
-424
-424
-424
-426
-427
-426
-426
-428
-429
-428
-426
-425
-427
-428
-430
-427
-426
-426
-429
-430
-430
-428
-427
-430
-431
-428
-425
-421
-417
-412
-408
-406
-401
-402
-406
-415
-424
-426
-420
-414
-418
-425
-428
-425
-423
-426
-427
-430
-430
-428
-427
-430
-433
-433
-432
-431
-430
-431
-429
-426
-424
-419
-402
-376
-390
-470
-570
-644
-679
-688
-682
-670
-650
-624
-591
-554
-516
-482
-453
-434
-425
-421
-418
-417
-414
-414
-414
-413
-410
-410
-410
-410
-408
-404
-399
-396
-398
-396
-393
-388
-383
-378
-375
-375
-374
-370
-363
-352
-339
-330
-324
-318
-313
-301
-292
-286
-276
-268
-259
-257
-257
-255
-254
-254
-254
-257
-262
-270
-278
-287
-297
-309
-322
-333
-345
-354
-365
-374
-381
-386
-392
-398
-399
-402
-409
-411
-414
-411
-410
-411
-414
-416
-414
-413
-410
-410
-410
-410
-409
-414
-413
-411
-408
-405
-406
-408
-412
-411
-410
-409
-410
-412
-411
-412
-410
-409
-410
-411
-414
-411
-410
-410
-411
-414
-414
-415
-417
-415
-414
-414
-415
-418
-418
-422
-420
-418
-412
-414
-418
-418
-416
-421
-421
-421
-420
-416
-418
-420
-423
-422
-419
-420
-421
-424
-422
-422
-424
-425
-422
-422
-423
-424
-423
-421
-420
-422
-425
-426
-425
-423
-424
-425
-426
-425
-424
-424
-424
-426
-425
-424
-424
-426
-426
-426
-423
-423
-425
-427
-421
-414
-406
-402
-402
-405
-405
-409
-416
-419
-418
-416
-418
-424
-430
-428
-424
-425
-426
-426
-427
-429
-430
-430
-430
-426
-424
-427
-430
-429
-427
-428
-427
-419
-398
-370
-378
-457
-564
-649
-686
-693
-682
-668
-645
-616
-584
-547
-513
-484
-457
-437
-427
-422
-422
-422
-418
-414
-411
-414
-414
-414
-411
-408
-406
-403
-402
-401
-398
-397
-396
-394
-389
-386
-383
-378
-373
-367
-362
-355
-350
-346
-338
-329
-321
-310
-298
-292
-285
-278
-272
-267
-261
-259
-260
-260
-259
-262
-268
-271
-276
-282
-286
-297
-310
-328
-343
-355
-366
-374
-380
-388
-394
-402
-404
-405
-409
-411
-411
-410
-414
-417
-417
-415
-414
-415
-415
-417
-418
-416
-410
-410
-411
-414
-417
-414
-414
-415
-417
-416
-414
-415
-414
-411
-414
-414
-416
-415
-417
-418
-420
-421
-420
-418
-418
-422
-422
-422
-418
-421
-426
-426
-424
-426
-424
-423
-425
-428
-430
-429
-427
-429
-429
-425
-427
-430
-430
-433
-430
-429
-429
-431
-430
-430
-427
-428
-431
-434
-434
-432
-430
-432
-433
-433
-433
-431
-433
-433
-433
-434
-433
-432
-432
-433
-434
-435
-435
-434
-433
-432
-435
-435
-430
-429
-433
-437
-437
-437
-436
-437
-431
-430
-434
-437
-439
-436
-434
-431
-426
-423
-422
-420
-418
-418
-422
-425
-433
-438
-434
-430
-429
-433
-434
-434
-434
-437
-437
-434
-435
-440
-441
-438
-437
-438
-437
-436
-436
-440
-439
-435
-427
-405
-376
-367
-417
-506
-596
-662
-693
-695
-680
-660
-631
-604
-580
-554
-523
-494
-466
-447
-439
-434
-434
-433
-430
-427
-426
-429
-429
-426
-423
-423
-421
-418
-417
-416
-416
-413
-409
-406
-403
-406
-403
-398
-395
-389
-383
-378
-370
-365
-358
-352
-343
-334
-328
-321
-312
-303
-297
-296
-295
-292
-289
-285
-286
-288
-294
-298
-302
-313
-323
-336
-347
-356
-363
-374
-384
-396
-406
-411
-418
-421
-422
-424
-424
-428
-430
-430
-427
-429
-431
-427
-430
-431
-430
-434
-434
-432
-431
-431
-434
-434
-430
-425
-424
-428
-430
-431
-431
-429
-426
-426
-430
-435
-434
-430
-427
-429
-430
-434
-437
-438
-434
-433
-436
-437
-438
-436
-437
-439
-440
-442
-444
-442
-442
-439
-437
-440
-444
-447
-446
-441
-439
-443
-446
-442
-441
-442
-442
-446
-446
-446
-442
-442
-446
-447
-446
-444
-444
-446
-442
-441
-440
-444
-446
-447
-447
-446
-446
-446
-446
-449
-449
-446
-443
-441
-443
-446
-450
-449
-443
-443
-443
-442
-440
-441
-435
-430
-424
-423
-431
-440
-442
-442
-439
-440
-446
-448
-446
-446
-449
-449
-446
-444
-446
-450
-450
-444
-446
-450
-448
-444
-443
-444
-442
-444
-439
-423
-393
-374
-402
-470
-545
-618
-670
-686
-677
-654
-628
-602
-583
-565
-542
-512
-482
-459
-446
-441
-442
-445
-446
-441
-437
-435
-433
-431
-430
-431
-430
-428
-426
-429
-429
-424
-421
-421
-420
-414
-409
-410
-407
-402
-398
-394
-392
-386
-377
-365
-354
-350
-343
-338
-332
-323
-316
-308
-306
-306
-308
-307
-302
-306
-313
-317
-323
-335
-343
-352
-362
-372
-384
-393
-399
-403
-407
-415
-425
-429
-430
-430
-432
-434
-437
-437
-440
-442
-439
-438
-435
-437
-439
-437
-437
-437
-434
-434
-434
-437
-436
-434
-435
-435
-436
-434
-431
-434
-436
-435
-434
-434
-433
-434
-437
-437
-437
-435
-435
-437
-437
-438
-439
-438
-438
-439
-440
-439
-440
-442
-443
-442
-442
-442
-446
-442
-443
-447
-446
-445
-439
-440
-443
-445
-449
-447
-444
-446
-446
-446
-446
-446
-444
-446
-446
-445
-444
-443
-442
-444
-446
-449
-448
-445
-444
-443
-442
-444
-447
-446
-443
-442
-442
-438
-430
-428
-427
-425
-427
-435
-443
-447
-438
-434
-438
-443
-446
-445
-444
-444
-446
-446
-445
-447
-446
-446
-446
-446
-446
-449
-449
-446
-442
-441
-441
-435
-414
-385
-377
-420
-500
-580
-646
-682
-695
-684
-664
-635
-606
-586
-565
-540
-510
-480
-456
-444
-439
-439
-440
-435
-430
-426
-430
-433
-433
-431
-425
-420
-420
-422
-420
-417
-414
-414
-410
-408
-405
-403
-402
-398
-395
-392
-383
-374
-370
-364
-353
-343
-334
-326
-321
-311
-306
-298
-289
-283
-284
-282
-281
-282
-286
-290
-296
-304
-313
-321
-331
-342
-354
-367
-378
-389
-396
-402
-410
-418
-424
-423
-421
-423
-430
-433
-432
-433
-434
-434
-434
-430
-430
-432
-434
-434
-433
-431
-430
-430
-429
-431
-428
-429
-427
-428
-430
-428
-430
-429
-430
-430
-427
-427
-428
-427
-427
-426
-427
-431
-433
-432
-430
-430
-430
-434
-435
-433
-430
-429
-430
-431
-433
-437
-434
-434
-434
-434
-433
-436
-439
-438
-435
-434
-436
-436
-437
-438
-440
-438
-439
-437
-437
-438
-437
-438
-439
-438
-436
-437
-440
-441
-439
-439
-439
-438
-440
-439
-438
-438
-439
-441
-440
-438
-438
-435
-429
-421
-418
-420
-418
-418
-423
-430
-437
-436
-434
-433
-437
-438
-439
-438
-439
-440
-440
-443
-440
-442
-445
-443
-442
-441
-441
-442
-443
-442
-439
-439
-434
-419
-391
-377
-423
-515
-605
-666
-693
-696
-687
-670
-645
-615
-582
-554
-526
-497
-463
-440
-433
-434
-434
-433
-434
-428
-425
-425
-421
-415
-418
-417
-418
-415
-412
-411
-410
-407
-402
-398
-398
-395
-392
-387
-382
-378
-372
-364
-356
-346
-339
-330
-322
-312
-303
-297
-289
-281
-275
-273
-267
-266
-259
-258
-261
-266
-274
-276
-282
-288
-298
-311
-328
-340
-350
-359
-368
-378
-388
-401
-409
-410
-410
-410
-414
-420
-425
-424
-423
-425
-425
-422
-423
-423
-426
-424
-418
-416
-422
-426
-426
-422
-420
-420
-423
-421
-421
-420
-418
-420
-421
-424
-423
-418
-417
-417
-420
-422
-418
-422
-424
-426
-422
-421
-423
-424
-425
-425
-427
-428
-429
-426
-424
-427
-431
-430
-426
-428
-427
-427
-427
-431
-433
-427
-426
-429
-430
-431
-432
-435
-434
-431
-430
-431
-433
-434
-433
-434
-431
-430
-434
-433
-433
-430
-430
-433
-434
-435
-435
-435
-434
-433
-433
-435
-435
-433
-434
-434
-436
-435
-430
-430
-430
-434
-435
-434
-430
-425
-423
-419
-417
-411
-410
-410
-416
-424
-430
-431
-429
-427
-430
-431
-434
-431
-430
-432
-434
-436
-435
-438
-437
-437
-438
-435
-431
-430
-433
-434
-434
-437
-430
-410
-381
-388
-461
-565
-645
-689
-702
-700
-687
-667
-641
-610
-570
-534
-498
-467
-444
-431
-429
-429
-427
-426
-421
-422
-418
-418
-418
-413
-414
-410
-407
-406
-407
-407
-403
-399
-396
-394
-390
-388
-385
-380
-372
-365
-358
-352
-348
-339
-326
-317
-311
-302
-292
-279
-275
-271
-267
-261
-257
-259
-258
-258
-259
-262
-268
-272
-279
-292
-305
-313
-325
-339
-352
-360
-366
-378
-388
-396
-402
-407
-410
-409
-411
-416
-417
-418
-418
-417
-417
-418
-419
-418
-418
-416
-418
-420
-418
-415
-413
-415
-415
-417
-418
-418
-418
-418
-417
-415
-416
-418
-418
-414
-416
-416
-418
-416
-418
-420
-420
-419
-418
-422
-426
-423
-420
-422
-423
-420
-421
-428
-430
-429
-430
-430
-428
-426
-424
-426
-432
-431
-426
-424
-426
-429
-430
-430
-433
-432
-429
-427
-427
-429
-432
-436
-433
-432
-434
-433
-431
-429
-433
-434
-433
-430
-432
-437
-434
-430
-431
-434
-435
-435
-433
-430
-430
-431
-435
-438
-437
-434
-434
-433
-432
-436
-438
-438
-433
-434
-436
-436
-434
-431
-426
-422
-418
-415
-411
-412
-418
-426
-435
-434
-430
-426
-428
-434
-436
-436
-435
-434
-434
-434
-435
-436
-437
-438
-438
-439
-437
-438
-437
-439
-440
-439
-434
-424
-403
-374
-379
-454
-562
-644
-686
-700
-693
-679
-657
-626
-597
-563
-530
-503
-476
-450
-434
-427
-430
-434
-430
-426
-423
-423
-420
-418
-418
-418
-415
-414
-411
-410
-409
-409
-409
-403
-399
-398
-395
-395
-392
-384
-374
-370
-365
-358
-351
-343
-337
-329
-316
-306
-298
-292
-286
-281
-275
-274
-271
-270
-270
-270
-272
-276
-284
-294
-302
-311
-318
-329
-341
-355
-367
-378
-388
-394
-400
-406
-410
-415
-416
-421
-426
-431
-430
-428
-426
-426
-426
-426
-424
-423
-424
-425
-425
-426
-426
-426
-426
-428
-428
-424
-424
-429
-427
-426
-424
-425
-428
-427
-430
-432
-430
-426
-424
-426
-431
-433
-435
-435
-431
-431
-434
-434
-434
-438
-439
-439
-437
-437
-439
-440
-437
-435
-437
-440
-442
-441
-437
-438
-439
-441
-443
-440
-441
-446
-443
-440
-441
-444
-446
-442
-439
-439
-440
-446
-450
-450
-449
-443
-443
-443
-443
-442
-442
-445
-446
-446
-443
-444
-446
-445
-444
-445
-446
-446
-446
-447
-446
-447
-448
-449
-446
-444
-443
-443
-442
-444
-443
-438
-430
-428
-430
-429
-434
-442
-446
-446
-442
-444
-446
-446
-446
-445
-444
-443
-446
-450
-452
-450
-450
-454
-455
-450
-446
-447
-446
-444
-445
-441
-427
-402
-380
-396
-463
-548
-623
-674
-690
-680
-662
-637
-612
-591
-574
-552
-524
-490
-462
-447
-443
-445
-443
-438
-440
-437
-435
-432
-434
-437
-437
-435
-430
-428
-424
-423
-426
-426
-424
-422
-418
-414
-410
-405
-403
-402
-398
-389
-380
-378
-372
-361
-353
-350
-343
-333
-322
-317
-312
-308
-306
-302
-304
-303
-303
-305
-309
-316
-325
-334
-342
-351
-359
-370
-380
-390
-402
-410
-416
-421
-424
-425
-426
-432
-435
-437
-437
-438
-442
-438
-440
-441
-440
-438
-435
-436
-439
-440
-437
-437
-436
-435
-438
-442
-439
-439
-440
-438
-436
-435
-435
-432
-432
-438
-439
-438
-437
-439
-437
-435
-435
-439
-445
-449
-446
-439
-437
-438
-442
-446
-446
-446
-446
-444
-442
-442
-443
-447
-450
-451
-450
-448
-448
-446
-444
-446
-446
-449
-450
-450
-454
-449
-446
-445
-446
-450
-452
-453
-452
-450
-448
-446
-446
-447
-452
-452
-450
-447
-448
-450
-450
-451
-453
-449
-442
-442
-444
-443
-440
-437
-433
-433
-431
-432
-439
-446
-448
-446
-442
-442
-446
-450
-450
-446
-450
-452
-452
-450
-446
-446
-450
-452
-450
-447
-446
-448
-450
-453
-451
-445
-434
-410
-380
-377
-429
-509
-585
-648
-679
-685
-667
-642
-611
-590
-573
-557
-528
-497
-472
-455
-449
-446
-442
-440
-440
-436
-434
-436
-437
-437
-433
-432
-430
-426
-423
-422
-423
-423
-418
-414
-414
-414
-410
-406
-402
-398
-394
-386
-377
-370
-364
-359
-354
-348
-338
-326
-318
-311
-308
-303
-300
-300
-295
-296
-297
-299
-305
-313
-320
-329
-337
-346
-361
-372
-382
-389
-396
-407
-414
-419
-420
-423
-426
-432
-433
-433
-433
-433
-433
-435
-438
-437
-435
-438
-440
-438
-436
-438
-438
-433
-431
-433
-434
-433
-433
-434
-431
-430
-433
-434
-436
-435
-433
-434
-431
-433
-433
-432
-434
-434
-433
-434
-435
-435
-433
-432
-433
-437
-438
-438
-439
-439
-439
-440
-440
-439
-437
-437
-438
-439
-440
-439
-438
-439
-442
-442
-442
-443
-442
-442
-441
-442
-441
-442
-442
-441
-439
-440
-442
-444
-446
-444
-442
-442
-443
-442
-440
-440
-443
-442
-443
-440
-437
-436
-438
-438
-435
-430
-424
-422
-423
-425
-426
-426
-430
-437
-435
-431
-430
-436
-441
-440
-439
-441
-443
-442
-442
-447
-446
-446
-440
-438
-440
-437
-437
-442
-445
-443
-437
-423
-391
-368
-402
-488
-575
-642
-683
-699
-694
-677
-652
-622
-590
-563
-536
-505
-474
-449
-438
-436
-433
-431
-430
-428
-424
-423
-423
-424
-420
-418
-417
-414
-411
-413
-410
-412
-407
-402
-398
-396
-394
-391
-387
-385
-380
-372
-362
-352
-346
-340
-335
-325
-312
-302
-294
-290
-284
-278
-274
-270
-268
-266
-267
-269
-272
-280
-290
-294
-301
-310
-321
-335
-350
-364
-374
-378
-383
-394
-405
-414
-416
-415
-418
-422
-421
-422
-424
-422
-426
-427
-427
-426
-424
-424
-425
-426
-425
-424
-426
-425
-421
-420
-423
-424
-424
-420
-420
-422
-424
-422
-420
-420
-421
-421
-423
-422
-420
-418
-418
-425
-426
-426
-423
-421
-424
-428
-427
-426
-424
-425
-426
-425
-426
-429
-427
-427
-430
-430
-430
-429
-425
-428
-430
-432
-431
-430
-430
-431
-430
-434
-436
-431
-427
-426
-430
-431
-432
-431
-429
-429
-433
-435
-433
-431
-434
-437
-433
-429
-428
-430
-431
-432
-434
-434
-433
-431
-430
-426
-421
-417
-412
-410
-406
-406
-414
-423
-428
-428
-424
-423
-426
-431
-431
-430
-430
-432
-430
-433
-434
-437
-434
-431
-430
-430
-431
-433
-434
-438
-435
-433
-424
-407
-378
-380
-446
-550
-631
-680
-693
-690
-678
-657
-629
-599
-564
-526
-494
-463
-442
-430
-430
-427
-425
-426
-424
-418
-414
-414
-414
-414
-414
-411
-410
-406
-402
-400
-400
-399
-398
-392
-390
-382
-374
-371
-366
-365
-359
-351
-340
-331
-325
-319
-311
-301
-290
-280
-274
-270
-266
-261
-257
-254
-256
-258
-261
-265
-270
-276
-286
-298
-308
-322
-335
-346
-355
-364
-380
-390
-396
-398
-401
-409
-414
-416
-416
-415
-412
-418
-418
-420
-418
-418
-420
-418
-418
-418
-418
-416
-414
-414
-414
-416
-414
-414
-414
-414
-415
-417
-416
-416
-418
-419
-420
-418
-418
-416
-418
-416
-417
-418
-421
-423
-421
-420
-420
-420
-423
-422
-418
-420
-420
-424
-424
-427
-425
-426
-426
-429
-430
-426
-424
-428
-426
-425
-423
-423
-427
-430
-430
-431
-431
-429
-427
-428
-430
-430
-430
-429
-430
-430
-434
-434
-433
-428
-427
-431
-430
-427
-427
-430
-430
-430
-430
-430
-430
-434
-433
-433
-430
-430
-430
-430
-426
-422
-418
-414
-414
-410
-409
-407
-411
-422
-427
-426
-422
-421
-424
-427
-427
-430
-430
-429
-430
-431
-434
-432
-430
-434
-437
-439
-435
-430
-427
-428
-430
-433
-430
-407
-378
-374
-441
-543
-631
-679
-696
-693
-680
-662
-634
-602
-565
-526
-490
-462
-442
-430
-427
-428
-429
-426
-423
-420
-417
-412
-411
-413
-413
-413
-407
-406
-404
-402
-401
-398
-395
-393
-391
-387
-382
-374
-370
-365
-361
-358
-351
-342
-330
-321
-314
-306
-297
-286
-275
-270
-266
-262
-261
-260
-257
-258
-259
-261
-267
-276
-287
-295
-303
-314
-328
-342
-356
-370
-380
-388
-395
-402
-406
-407
-411
-416
-414
-416
-420
-422
-423
-422
-428
-429
-424
-422
-420
-420
-424
-423
-421
-422
-422
-421
-420
-421
-420
-422
-425
-424
-422
-421
-422
-424
-424
-426
-426
-426
-426
-426
-428
-427
-426
-426
-429
-433
-434
-431
-427
-428
-431
-434
-434
-434
-434
-429
-431
-434
-436
-440
-438
-438
-435
-433
-434
-438
-440
-441
-438
-436
-437
-439
-441
-441
-440
-438
-437
-439
-439
-438
-440
-438
-438
-441
-442
-443
-442
-440
-438
-439
-440
-440
-441
-441
-440
-440
-442
-441
-443
-447
-447
-443
-437
-435
-434
-431
-427
-422
-422
-426
-430
-434
-435
-436
-436
-436
-439
-442
-442
-440
-442
-446
-446
-446
-446
-444
-443
-442
-443
-442
-443
-445
-445
-444
-443
-441
-427
-402
-375
-387
-454
-542
-619
-674
-693
-690
-670
-646
-617
-594
-570
-540
-508
-482
-462
-450
-446
-444
-443
-438
-435
-437
-435
-433
-430
-433
-430
-427
-422
-424
-429
-427
-423
-422
-421
-416
-411
-410
-409
-403
-399
-396
-393
-386
-376
-366
-362
-356
-351
-345
-332
-321
-316
-314
-309
-299
-296
-297
-298
-296
-296
-299
-305
-311
-317
-326
-338
-350
-360
-371
-381
-389
-398
-406
-411
-418
-422
-427
-430
-435
-437
-437
-436
-435
-437
-438
-439
-442
-442
-440
-440
-441
-442
-435
-433
-434
-439
-442
-439
-438
-437
-435
-436
-440
-440
-439
-439
-438
-437
-434
-433
-435
-438
-441
-443
-444
-441
-436
-437
-440
-446
-449
-446
-443
-442
-443
-445
-444
-447
-449
-448
-444
-443
-447
-452
-450
-448
-446
-449
-451
-448
-443
-445
-452
-454
-453
-449
-447
-447
-453
-454
-452
-450
-448
-449
-450
-450
-450
-450
-449
-446
-446
-446
-442
-438
-436
-433
-430
-431
-434
-440
-445
-446
-446
-446
-449
-452
-448
-446
-446
-450
-453
-452
-452
-454
-453
-452
-450
-450
-452
-451
-451
-447
-446
-446
-442
-426
-398
-380
-409
-478
-558
-629
-676
-689
-676
-651
-624
-599
-580
-561
-538
-511
-482
-462
-452
-448
-446
-443
-445
-444
-442
-440
-442
-438
-433
-430
-430
-431
-429
-427
-426
-426
-427
-424
-420
-418
-414
-414
-409
-405
-401
-395
-390
-382
-372
-363
-358
-352
-345
-336
-330
-325
-321
-316
-311
-302
-302
-304
-306
-308
-313
-318
-324
-332
-338
-351
-360
-370
-380
-390
-403
-409
-415
-421
-426
-427
-430
-431
-434
-437
-437
-439
-438
-439
-442
-443
-441
-441
-444
-443
-440
-437
-438
-439
-438
-438
-438
-439
-438
-437
-435
-433
-433
-435
-439
-440
-440
-437
-436
-433
-431
-435
-436
-439
-440
-437
-439
-439
-440
-439
-439
-442
-443
-441
-439
-440
-441
-442
-442
-439
-438
-440
-446
-449
-442
-438
-438
-442
-449
-448
-446
-439
-436
-436
-441
-446
-446
-444
-442
-442
-442
-443
-443
-445
-442
-438
-433
-426
-427
-423
-422
-424
-426
-433
-434
-433
-433
-436
-442
-444
-442
-438
-442
-443
-446
-446
-446
-445
-443
-446
-444
-443
-442
-444
-444
-440
-437
-434
-422
-398
-374
-402
-483
-572
-642
-682
-690
-680
-661
-634
-607
-581
-556
-528
-498
-466
-444
-439
-439
-434
-433
-433
-431
-430
-431
-428
-424
-421
-422
-422
-420
-416
-414
-410
-409
-410
-410
-406
-401
-396
-393
-389
-384
-378
-374
-369
-363
-354
-347
-334
-323
-316
-308
-303
-295
-289
-284
-280
-278
-277
-275
-274
-278
-282
-290
-295
-303
-314
-326
-336
-348
-359
-370
-378
-389
-401
-409
-411
-414
-418
-420
-422
-426
-430
-427
-425
-426
-430
-431
-430
-430
-427
-427
-427
-433
-431
-431
-430
-430
-430
-426
-423
-426
-427
-428
-427
-426
-424
-423
-425
-426
-427
-426
-426
-424
-424
-426
-426
-426
-423
-422
-425
-430
-430
-431
-434
-434
-430
-428
-430
-433
-430
-431
-432
-433
-434
-437
-434
-431
-430
-431
-434
-431
-430
-430
-433
-438
-436
-430
-431
-434
-437
-436
-434
-433
-434
-435
-435
-434
-433
-431
-427
-420
-414
-413
-411
-412
-414
-420
-429
-434
-430
-426
-427
-431
-438
-438
-432
-430
-434
-439
-439
-438
-442
-441
-438
-436
-439
-439
-434
-435
-440
-442
-438
-426
-407
-382
-388
-458
-558
-639
-684
-698
-696
-681
-656
-629
-598
-563
-526
-490
-459
-439
-432
-433
-434
-433
-433
-427
-420
-416
-418
-421
-420
-414
-406
-406
-407
-410
-408
-402
-398
-391
-390
-390
-387
-386
-383
-378
-372
-365
-357
-351
-344
-335
-324
-314
-306
-299
-290
-282
-275
-270
-265
-262
-259
-258
-258
-258
-262
-270
-276
-284
-290
-301
-313
-326
-336
-351
-362
-375
-384
-387
-394
-402
-408
-412
-414
-417
-418
-421
-420
-418
-421
-422
-423
-422
-423
-421
-420
-421
-423
-423
-422
-420
-420
-419
-420
-418
-420
-418
-417
-418
-418
-418
-418
-417
-420
-422
-422
-421
-418
-419
-419
-418
-420
-418
-421
-421
-418
-420
-419
-422
-423
-426
-425
-421
-420
-419
-422
-427
-429
-429
-427
-424
-423
-425
-428
-428
-423
-425
-427
-427
-424
-423
-425
-427
-427
-426
-424
-425
-424
-425
-427
-430
-430
-432
-428
-430
-430
-428
-429
-429
-429
-429
-431
-433
-430
-429
-427
-427
-430
-430
-428
-426
-427
-429
-428
-426
-424
-416
-410
-409
-407
-406
-408
-416
-424
-427
-423
-420
-423
-428
-433
-430
-430
-427
-426
-430
-429
-431
-431
-434
-437
-435
-434
-431
-430
-432
-434
-432
-426
-418
-401
-380
-393
-470
-571
-647
-682
-693
-688
-672
-654
-626
-594
-558
-520
-489
-458
-437
-426
-424
-426
-426
-423
-420
-418
-418
-418
-418
-420
-417
-410
-403
-401
-406
-404
-402
-399
-394
-392
-387
-382
-378
-378
-374
-367
-360
-354
-346
-337
-329
-321
-311
-298
-289
-282
-278
-276
-271
-263
-255
-254
-253
-254
-254
-258
-258
-266
-274
-283
-296
-304
-318
-332
-345
-354
-366
-376
-382
-386
-393
-401
-406
-414
-416
-413
-412
-412
-415
-416
-415
-414
-415
-417
-418
-418
-416
-416
-415
-414
-414
-415
-414
-415
-416
-418
-416
-414
-416
-417
-417
-417
-416
-417
-417
-417
-418
-414
-417
-418
-420
-418
-415
-418
-420
-423
-422
-421
-425
-425
-427
-426
-426
-424
-426
-427
-425
-423
-426
-430
-430
-426
-423
-424
-427
-427
-429
-427
-431
-432
-434
-434
-432
-432
-432
-430
-429
-431
-434
-432
-431
-431
-431
-429
-431
-427
-430
-432
-436
-435
-430
-428
-428
-430
-433
-434
-435
-430
-428
-427
-429
-433
-434
-434
-431
-430
-432
-432
-432
-432
-435
-437
-438
-435
-431
-432
-434
-434
-430
-430
-434
-435
-435
-437
-436
-435
-440
-440
-440
-437
-433
-435
-434
-434
-434
-434
-436
-437
-440
-437
-435
-436
-437
-437
-435
-434
-433
-438
-441
-441
-437
-435
-434
-436
-439
-438
-431
-426
-426
-421
-414
-414
-418
-429
-438
-440
-434
-430
-432
-440
-446
-440
-430
-430
-430
-435
-438
-442
-442
-442
-440
-440
-439
-439
-438
-440
-440
-437
-433
-418
-391
-363
-380
-455
-550
-628
-680
-699
-696
-680
-657
-629
-602
-574
-544
-511
-478
-449
-434
-432
-435
-437
-433
-425
-421
-419
-422
-423
-422
-419
-416
-420
-418
-411
-407
-406
-407
-406
-406
-402
-398
-394
-391
-386
-383
-380
-374
-366
-362
-359
-352
-341
-331
-324
-316
-307
-302
-298
-287
-278
-274
-274
-274
-273
-275
-279
-284
-289
-297
-299
-306
-317
-328
-345
-361
-373
-378
-383
-390
-400
-409
-416
-422
-423
-424
-427
-430
-431
-430
-430
-431
-431
-430
-430
-431
-434
-435
-430
-428
-429
-430
-430
-430
-432
-434
-433
-431
-429
-430
-433
-434
-430
-427
-430
-438
-435
-430
-426
-429
-433
-433
-434
-434
-436
-441
-440
-441
-439
-437
-436
-437
-437
-435
-437
-442
-447
-446
-440
-438
-440
-442
-445
-444
-444
-443
-443
-443
-446
-446
-440
-438
-442
-449
-450
-447
-440
-442
-446
-450
-450
-447
-449
-446
-446
-445
-446
-450
-450
-450
-449
-447
-443
-442
-446
-452
-451
-448
-449
-450
-447
-446
-446
-449
-450
-450
-452
-452
-450
-446
-442
-444
-446
-445
-443
-441
-439
-438
-438
-435
-430
-433
-439
-444
-446
-440
-436
-439
-446
-450
-449
-446
-445
-446
-445
-445
-452
-454
-452
-446
-442
-444
-450
-452
-450
-448
-446
-441
-430
-408
-380
-383
-431
-500
-574
-635
-667
-676
-660
-636
-610
-588
-577
-559
-534
-503
-475
-454
-448
-446
-444
-444
-441
-439
-436
-435
-435
-434
-434
-432
-427
-429
-431
-429
-424
-422
-421
-420
-418
-414
-410
-408
-407
-404
-399
-394
-390
-381
-376
-370
-362
-354
-346
-338
-330
-325
-321
-314
-308
-303
-302
-304
-310
-310
-310
-312
-317
-325
-338
-352
-364
-373
-377
-382
-391
-402
-410
-412
-415
-418
-424
-429
-433
-434
-434
-435
-435
-437
-437
-438
-439
-439
-439
-439
-436
-434
-434
-434
-437
-439
-439
-437
-432
-427
-427
-433
-434
-439
-437
-435
-434
-431
-433
-434
-434
-434
-434
-436
-434
-434
-435
-434
-434
-437
-439
-437
-439
-440
-437
-435
-437
-442
-446
-444
-442
-441
-442
-444
-446
-444
-442
-444
-445
-443
-442
-443
-448
-449
-442
-440
-440
-443
-449
-447
-446
-443
-443
-446
-444
-443
-443
-444
-445
-446
-446
-444
-439
-439
-440
-437
-430
-427
-426
-424
-427
-434
-439
-441
-439
-437
-439
-442
-442
-444
-446
-444
-446
-447
-449
-450
-446
-447
-449
-450
-450
-449
-446
-442
-441
-442
-438
-422
-395
-373
-399
-468
-553
-631
-679
-694
-682
-658
-632
-606
-583
-559
-536
-508
-478
-453
-437
-440
-442
-443
-438
-433
-430
-430
-427
-425
-424
-425
-423
-420
-418
-418
-414
-414
-412
-412
-411
-409
-406
-401
-397
-390
-385
-378
-372
-366
-357
-350
-344
-336
-326
-319
-311
-301
-290
-285
-286
-287
-286
-281
-279
-283
-290
-298
-307
-313
-323
-337
-350
-361
-367
-380
-393
-402
-406
-417
-423
-424
-427
-434
-439
-441
-441
-441
-440
-441
-443
-442
-443
-449
-447
-448
-449
-446
-442
-440
-439
-441
-444
-440
-434
-434
-438
-440
-437
-437
-438
-434
-434
-437
-441
-438
-430
-434
-438
-437
-435
-429
-430
-434
-437
-438
-434
-428
-427
-432
-439
-438
-435
-432
-426
-426
-427
-430
-432
-430
-426
-423
-424
-430
-434
-428
-423
-426
-430
-432
-430
-427
-433
-435
-432
-427
-424
-422
-420
-417
-414
-410
-409
-409
-411
-422
-430
-430
-423
-422
-425
-426
-428
-428
-430
-430
-435
-440
-444
-450
-448
-445
-441
-438
-440
-445
-446
-446
-446
-443
-433
-408
-382
-387
-441
-511
-584
-650
-683
-682
-667
-639
-613
-590
-568
-546
-514
-484
-462
-458
-456
-458
-456
-454
-458
-457
-453
-452
-451
-452
-450
-442
-436
-437
-443
-452
-456
-454
-450
-452
-460
-461
-452
-438
-425
-418
-405
-394
-390
-394
-397
-396
-383
-370
-366
-361
-354
-346
-338
-330
-323
-322
-321
-311
-306
-310
-319
-334
-342
-352
-366
-381
-390
-398
-407
-412
-416
-421
-427
-438
-452
-458
-452
-449
-450
-454
-456
-465
-479
-484
-475
-471
-471
-466
-467
-470
-470
-468
-462
-456
-452
-450
-452
-450
-444
-451
-470
-482
-484
-473
-467
-466
-466
-468
-461
-457
-455
-455
-458
-462
-468
-468
-465
-463
-466
-468
-462
-458
-455
-453
-453
-458
-462
-459
-452
-454
-458
-458
-455
-454
-450
-449
-450
-453
-455
-454
-450
-446
-446
-447
-452
-450
-445
-438
-433
-429
-424
-425
-426
-429
-435
-440
-443
-440
-439
-446
-449
-445
-438
-439
-446
-450
-454
-454
-455
-457
-456
-455
-456
-458
-453
-450
-449
-441
-439
-433
-414
-386
-401
-482
-580
-650
-686
-702
-698
-688
-673
-650
-619
-581
-538
-495
-466
-452
-450
-446
-442
-441
-438
-437
-433
-426
-422
-421
-418
-416
-414
-414
-414
-414
-418
-415
-409
-406
-406
-400
-390
-385
-380
-376
-372
-365
-360
-358
-354
-347
-334
-321
-306
-292
-286
-282
-272
-262
-258
-258
-257
-254
-254
-257
-262
-267
-276
-284
-292
-298
-310
-326
-342
-362
-379
-390
-396
-398
-403
-410
-421
-428
-430
-426
-427
-426
-424
-422
-426
-434
-438
-435
-429
-428
-431
-439
-433
-422
-418
-420
-427
-430
-433
-431
-429
-430
-430
-426
-424
-424
-428
-430
-427
-423
-422
-426
-430
-433
-430
-430
-429
-426
-422
-424
-426
-424
-422
-425
-424
-424
-422
-424
-427
-433
-433
-425
-423
-426
-428
-428
-427
-427
-430
-426
-424
-419
-414
-406
-409
-410
-408
-406
-411
-421
-423
-420
-418
-420
-428
-433
-430
-425
-426
-431
-434
-429
-425
-426
-430
-432
-435
-434
-430
-429
-430
-433
-430
-418
-391
-361
-370
-444
-541
-625
-679
-696
-691
-678
-654
-621
-592
-562
-534
-506
-474
-446
-430
-425
-424
-424
-423
-422
-418
-414
-414
-410
-409
-408
-406
-406
-407
-410
-407
-400
-394
-394
-392
-390
-388
-384
-380
-375
-370
-364
-358
-350
-345
-338
-329
-319
-311
-298
-293
-286
-280
-275
-270
-267
-263
-262
-265
-266
-273
-278
-282
-286
-295
-310
-327
-341
-350
-363
-376
-387
-394
-399
-402
-402
-407
-414
-418
-419
-421
-424
-426
-428
-426
-425
-424
-424
-424
-427
-427
-429
-429
-427
-421
-416
-417
-420
-421
-422
-421
-420
-423
-424
-427
-426
-421
-418
-420
-421
-421
-420
-423
-425
-426
-426
-425
-423
-421
-422
-422
-426
-426
-421
-418
-420
-421
-425
-424
-425
-421
-416
-407
-399
-400
-403
-409
-410
-409
-417
-420
-419
-417
-418
-423
-426
-426
-425
-422
-424
-427
-429
-434
-431
-427
-425
-426
-430
-434
-434
-432
-428
-421
-407
-377
-358
-395
-486
-585
-657
-686
-695
-685
-664
-635
-603
-580
-557
-533
-501
-465
-435
-425
-427
-428
-427
-423
-416
-414
-414
-414
-419
-420
-418
-414
-410
-406
-406
-406
-404
-398
-391
-390
-390
-390
-388
-383
-378
-370
-364
-358
-352
-344
-333
-326
-321
-312
-304
-295
-290
-283
-278
-274
-270
-266
-266
-261
-258
-266
-274
-281
-288
-298
-307
-319
-334
-347
-357
-366
-375
-383
-390
-398
-403
-410
-414
-418
-424
-424
-420
-418
-420
-424
-423
-423
-425
-424
-425
-424
-423
-423
-424
-426
-425
-425
-422
-420
-420
-420
-418
-423
-427
-427
-422
-420
-422
-426
-430
-432
-432
-427
-429
-430
-430
-431
-434
-439
-439
-434
-430
-427
-430
-433
-433
-433
-433
-434
-427
-421
-417
-414
-414
-415
-422
-430
-437
-433
-426
-425
-431
-437
-441
-438
-437
-437
-440
-444
-444
-442
-438
-439
-444
-446
-446
-443
-442
-442
-441
-434
-419
-390
-363
-381
-450
-539
-620
-678
-698
-693
-676
-650
-622
-594
-567
-546
-518
-487
-462
-449
-446
-446
-446
-439
-438
-437
-440
-439
-434
-431
-428
-430
-433
-433
-429
-423
-422
-422
-418
-414
-415
-414
-410
-407
-402
-396
-388
-385
-380
-374
-370
-364
-356
-342
-329
-322
-322
-318
-310
-306
-304
-302
-294
-292
-297
-300
-300
-303
-309
-317
-327
-337
-353
-365
-377
-386
-392
-400
-410
-418
-422
-428
-431
-433
-434
-434
-434
-436
-439
-436
-430
-430
-431
-434
-438
-440
-437
-437
-439
-439
-440
-440
-441
-437
-433
-434
-433
-433
-434
-433
-432
-430
-431
-435
-434
-434
-435
-436
-438
-434
-430
-433
-437
-440
-440
-440
-441
-442
-440
-433
-426
-422
-420
-418
-418
-422
-427
-430
-432
-431
-428
-434
-442
-447
-442
-437
-439
-442
-442
-443
-444
-443
-446
-449
-448
-447
-442
-443
-445
-440
-439
-433
-415
-384
-368
-414
-507
-594
-661
-693
-699
-686
-666
-640
-615
-591
-566
-539
-510
-478
-457
-446
-444
-442
-442
-439
-438
-437
-439
-435
-427
-430
-439
-439
-431
-425
-426
-430
-429
-425
-424
-418
-411
-412
-414
-411
-404
-394
-386
-383
-379
-375
-368
-361
-352
-345
-335
-326
-321
-314
-311
-307
-305
-299
-294
-292
-294
-299
-307
-312
-318
-325
-336
-348
-359
-367
-376
-389
-399
-409
-414
-418
-421
-424
-430
-432
-430
-429
-434
-441
-442
-442
-439
-433
-430
-430
-432
-430
-432
-439
-441
-436
-431
-430
-431
-433
-434
-435
-437
-434
-432
-431
-431
-434
-435
-435
-437
-436
-431
-430
-431
-435
-439
-438
-437
-434
-434
-426
-422
-418
-420
-426
-428
-433
-435
-437
-438
-437
-436
-437
-438
-439
-441
-441
-439
-442
-444
-445
-447
-450
-449
-446
-446
-449
-450
-448
-446
-443
-440
-421
-393
-377
-418
-516
-613
-677
-706
-704
-687
-674
-648
-617
-585
-552
-521
-490
-466
-449
-441
-438
-437
-435
-437
-436
-432
-430
-429
-426
-425
-422
-420
-420
-420
-418
-416
-416
-411
-408
-405
-403
-401
-396
-389
-383
-377
-370
-360
-354
-346
-339
-337
-328
-321
-313
-301
-292
-290
-290
-287
-285
-282
-279
-278
-282
-287
-293
-298
-306
-316
-326
-337
-351
-363
-376
-384
-390
-396
-406
-414
-421
-427
-427
-426
-427
-426
-424
-430
-438
-434
-427
-427
-430
-430
-427
-427
-428
-430
-433
-432
-434
-429
-427
-433
-433
-430
-425
-422
-421
-426
-430
-434
-433
-431
-427
-425
-429
-434
-434
-434
-434
-434
-434
-427
-418
-411
-411
-413
-415
-415
-421
-431
-436
-430
-426
-427
-432
-437
-436
-434
-431
-434
-437
-438
-443
-450
-446
-441
-438
-435
-439
-442
-442
-439
-436
-432
-414
-390
-389
-454
-554
-636
-682
-702
-700
-689
-667
-644
-614
-580
-542
-506
-475
-452
-439
-430
-430
-433
-435
-436
-434
-430
-424
-422
-421
-421
-420
-415
-414
-411
-410
-406
-400
-402
-403
-406
-402
-395
-389
-382
-378
-374
-369
-362
-354
-345
-337
-331
-322
-310
-295
-285
-282
-285
-286
-280
-274
-270
-271
-275
-281
-286
-290
-293
-305
-318
-332
-338
-346
-358
-374
-383
-387
-394
-401
-413
-418
-421
-421
-421
-421
-423
-424
-426
-430
-430
-427
-423
-418
-420
-423
-426
-428
-425
-421
-419
-422
-423
-423
-422
-425
-427
-429
-426
-424
-420
-419
-426
-431
-432
-430
-429
-428
-426
-426
-425
-426
-422
-420
-414
-410
-410
-412
-406
-405
-414
-430
-435
-428
-421
-421
-430
-435
-437
-435
-433
-430
-430
-433
-437
-442
-446
-443
-440
-436
-434
-433
-434
-435
-438
-435
-418
-390
-378
-435
-540
-632
-683
-702
-700
-689
-670
-644
-617
-578
-535
-497
-467
-443
-430
-430
-436
-438
-434
-424
-419
-420
-424
-427
-428
-425
-422
-418
-418
-416
-412
-409
-409
-410
-406
-402
-398
-392
-387
-384
-381
-374
-368
-361
-350
-339
-335
-333
-326
-316
-304
-297
-289
-283
-281
-278
-278
-275
-276
-277
-282
-288
-294
-303
-311
-322
-332
-342
-352
-362
-374
-386
-393
-395
-401
-410
-416
-421
-421
-423
-424
-426
-425
-423
-424
-429
-428
-424
-423
-424
-423
-421
-417
-422
-420
-414
-415
-418
-426
-426
-425
-425
-429
-426
-426
-427
-424
-420
-421
-426
-433
-433
-429
-426
-429
-430
-428
-427
-427
-433
-434
-430
-426
-425
-420
-414
-412
-411
-410
-406
-406
-418
-431
-430
-420
-420
-424
-433
-436
-437
-434
-433
-431
-430
-434
-434
-434
-436
-438
-441
-439
-434
-430
-430
-434
-439
-433
-410
-380
-396
-479
-587
-661
-690
-695
-686
-670
-650
-618
-582
-542
-504
-477
-451
-438
-435
-434
-430
-430
-429
-429
-430
-424
-420
-421
-418
-415
-420
-420
-416
-412
-410
-410
-409
-407
-402
-398
-393
-389
-386
-382
-376
-370
-366
-358
-348
-340
-330
-321
-314
-310
-306
-301
-298
-287
-281
-275
-274
-278
-278
-279
-282
-288
-294
-301
-312
-325
-337
-348
-361
-370
-377
-383
-395
-406
-414
-414
-414
-418
-423
-422
-420
-420
-421
-422
-424
-426
-424
-425
-422
-422
-421
-422
-421
-424
-426
-426
-424
-424
-423
-428
-430
-424
-421
-422
-427
-428
-427
-428
-428
-429
-424
-426
-430
-431
-434
-432
-431
-430
-430
-434
-436
-438
-436
-434
-433
-433
-435
-435
-433
-428
-427
-431
-431
-431
-430
-426
-421
-414
-413
-413
-411
-414
-424
-433
-430
-425
-421
-424
-432
-435
-436
-437
-435
-438
-442
-444
-446
-440
-440
-439
-442
-446
-443
-441
-441
-440
-434
-409
-373
-375
-450
-566
-655
-696
-705
-695
-677
-651
-622
-587
-552
-523
-498
-469
-447
-438
-439
-442
-440
-437
-430
-431
-436
-438
-429
-426
-430
-432
-434
-426
-421
-422
-418
-417
-417
-414
-410
-406
-402
-402
-398
-395
-388
-385
-375
-365
-358
-357
-350
-344
-333
-323
-315
-313
-309
-306
-298
-295
-295
-298
-301
-301
-306
-309
-314
-319
-331
-344
-358
-366
-373
-386
-395
-403
-411
-414
-421
-426
-426
-425
-427
-434
-438
-439
-437
-434
-434
-434
-435
-435
-431
-430
-427
-430
-434
-434
-435
-438
-438
-437
-434
-436
-440
-439
-439
-440
-440
-442
-440
-438
-436
-442
-449
-447
-447
-449
-449
-449
-447
-449
-446
-445
-446
-448
-446
-446
-446
-446
-446
-447
-446
-446
-450
-448
-446
-447
-446
-444
-438
-434
-434
-431
-431
-435
-440
-445
-443
-440
-437
-437
-442
-446
-446
-450
-457
-452
-449
-447
-450
-455
-458
-458
-458
-454
-452
-451
-453
-452
-446
-429
-394
-372
-402
-478
-569
-647
-693
-703
-690
-667
-638
-610
-586
-567
-545
-514
-482
-458
-450
-450
-454
-455
-455
-450
-447
-446
-443
-442
-442
-445
-442
-442
-437
-437
-437
-434
-434
-430
-427
-426
-425
-424
-418
-415
-414
-408
-399
-393
-386
-382
-377
-372
-366
-359
-354
-344
-335
-330
-329
-330
-327
-326
-326
-330
-329
-333
-340
-348
-356
-362
-369
-378
-390
-396
-404
-410
-420
-428
-434
-434
-439
-442
-445
-444
-442
-442
-445
-447
-446
-444
-446
-450
-448
-444
-443
-446
-448
-446
-446
-446
-444
-446
-446
-444
-443
-446
-450
-447
-444
-445
-446
-451
-453
-454
-453
-454
-454
-454
-452
-451
-455
-454
-453
-454
-452
-450
-446
-446
-451
-457
-459
-457
-455
-455
-453
-452
-454
-456
-455
-450
-447
-445
-442
-439
-437
-434
-434
-442
-450
-457
-449
-441
-442
-453
-458
-456
-456
-454
-454
-456
-460
-460
-459
-457
-456
-456
-457
-458
-457
-460
-458
-454
-442
-414
-386
-394
-453
-535
-614
-672
-698
-695
-677
-648
-618
-596
-583
-566
-534
-499
-478
-469
-463
-464
-456
-453
-450
-450
-450
-448
-446
-444
-446
-446
-445
-436
-437
-442
-441
-437
-433
-434
-430
-428
-426
-423
-418
-414
-410
-406
-403
-397
-390
-383
-376
-370
-364
-355
-344
-338
-334
-333
-332
-326
-322
-319
-322
-330
-338
-341
-342
-351
-359
-368
-378
-388
-394
-403
-410
-417
-426
-434
-433
-434
-439
-444
-450
-450
-450
-450
-451
-450
-448
-448
-449
-450
-449
-446
-446
-443
-443
-446
-447
-447
-446
-443
-444
-447
-449
-447
-447
-447
-446
-446
-449
-450
-451
-450
-447
-450
-453
-454
-455
-458
-452
-451
-455
-459
-458
-452
-450
-453
-456
-460
-458
-454
-450
-450
-454
-458
-458
-456
-453
-451
-446
-442
-438
-438
-435
-434
-434
-442
-453
-456
-453
-446
-443
-449
-454
-450
-449
-451
-455
-457
-457
-458
-457
-457
-456
-458
-461
-460
-459
-458
-457
-450
-436
-414
-388
-393
-453
-540
-622
-682
-708
-709
-695
-671
-641
-614
-586
-559
-536
-507
-478
-458
-452
-453
-452
-449
-446
-447
-449
-446
-440
-435
-436
-438
-439
-435
-430
-431
-437
-429
-422
-422
-421
-419
-418
-414
-406
-401
-395
-393
-391
-386
-378
-367
-357
-346
-339
-335
-330
-321
-317
-313
-306
-297
-295
-298
-301
-301
-302
-309
-320
-326
-328
-336
-348
-365
-376
-386
-390
-398
-403
-418
-426
-429
-430
-434
-435
-437
-439
-441
-443
-441
-438
-437
-439
-445
-444
-440
-438
-439
-438
-438
-435
-434
-435
-437
-437
-438
-438
-438
-438
-442
-441
-439
-438
-441
-442
-442
-443
-443
-442
-442
-443
-443
-444
-446
-446
-449
-446
-450
-452
-449
-444
-441
-446
-450
-449
-446
-446
-446
-446
-446
-446
-447
-446
-446
-446
-445
-446
-447
-449
-446
-442
-446
-450
-449
-446
-446
-446
-446
-443
-437
-430
-428
-427
-424
-423
-429
-438
-446
-442
-437
-432
-436
-446
-450
-446
-443
-446
-449
-450
-450
-450
-450
-447
-446
-449
-450
-449
-449
-449
-446
-441
-423
-396
-390
-450
-550
-634
-687
-709
-706
-699
-679
-651
-620
-583
-552
-520
-489
-466
-454
-443
-439
-440
-442
-446
-442
-436
-430
-430
-433
-430
-429
-426
-426
-423
-422
-418
-417
-418
-414
-410
-406
-402
-398
-394
-390
-385
-379
-374
-364
-357
-352
-346
-338
-329
-318
-310
-303
-297
-292
-291
-286
-282
-282
-282
-283
-283
-287
-296
-304
-310
-320
-332
-342
-351
-363
-377
-386
-393
-401
-409
-417
-421
-423
-424
-427
-430
-432
-432
-434
-433
-434
-435
-432
-426
-428
-430
-433
-430
-428
-426
-429
-430
-430
-430
-430
-430
-430
-430
-426
-426
-429
-435
-439
-434
-433
-431
-430
-430
-431
-433
-435
-437
-435
-432
-434
-437
-438
-437
-436
-437
-441
-441
-437
-437
-439
-437
-437
-439
-441
-437
-437
-437
-439
-438
-438
-440
-441
-440
-442
-443
-438
-439
-442
-443
-443
-438
-436
-437
-439
-441
-442
-445
-446
-442
-440
-437
-438
-438
-434
-430
-426
-424
-425
-421
-415
-417
-425
-434
-440
-434
-428
-430
-434
-439
-438
-437
-437
-438
-438
-442
-447
-449
-448
-446
-442
-439
-442
-443
-442
-438
-438
-434
-415
-386
-398
-482
-590
-666
-698
-706
-700
-686
-662
-634
-602
-564
-526
-491
-463
-448
-443
-439
-433
-431
-431
-429
-426
-424
-425
-423
-422
-424
-421
-414
-410
-409
-411
-411
-410
-409
-404
-399
-397
-392
-387
-379
-376
-372
-365
-361
-355
-350
-339
-332
-326
-318
-307
-296
-287
-284
-280
-279
-275
-271
-270
-274
-278
-278
-278
-283
-295
-305
-315
-322
-334
-348
-361
-370
-381
-390
-399
-406
-408
-410
-412
-414
-419
-422
-425
-424
-422
-421
-424
-425
-422
-418
-420
-423
-425
-423
-420
-418
-416
-417
-422
-423
-421
-417
-417
-420
-422
-424
-424
-421
-422
-424
-423
-423
-425
-427
-427
-424
-419
-421
-427
-433
-433
-430
-423
-423
-429
-434
-437
-430
-426
-426
-428
-432
-430
-427
-426
-427
-433
-435
-434
-434
-435
-437
-438
-435
-430
-429
-430
-430
-433
-433
-434
-434
-434
-432
-430
-433
-437
-437
-436
-436
-437
-436
-434
-434
-432
-435
-438
-439
-439
-437
-435
-433
-432
-432
-431
-424
-418
-414
-411
-411
-413
-417
-422
-427
-430
-426
-424
-427
-434
-435
-433
-430
-432
-435
-437
-435
-435
-437
-438
-439
-439
-437
-434
-433
-434
-438
-434
-420
-390
-372
-417
-526
-623
-678
-696
-695
-681
-662
-635
-606
-570
-537
-505
-474
-450
-434
-430
-430
-430
-430
-426
-426
-425
-421
-418
-420
-418
-414
-413
-410
-410
-406
-405
-403
-401
-401
-400
-400
-398
-390
-384
-379
-374
-370
-364
-358
-350
-342
-336
-330
-323
-315
-307
-300
-294
-286
-281
-278
-275
-272
-271
-270
-270
-273
-278
-285
-290
-298
-310
-322
-333
-345
-357
-366
-375
-383
-391
-398
-402
-406
-414
-416
-418
-421
-427
-423
-420
-418
-420
-420
-420
-416
-417
-418
-418
-420
-419
-418
-418
-418
-420
-420
-418
-415
-421
-426
-425
-420
-416
-418
-423
-426
-426
-425
-424
-422
-425
-426
-428
-430
-430
-427
-427
-427
-431
-433
-431
-430
-433
-434
-434
-434
-428
-430
-429
-433
-434
-434
-434
-438
-438
-435
-432
-434
-439
-439
-436
-437
-438
-437
-438
-439
-437
-435
-437
-439
-434
-435
-440
-441
-439
-434
-435
-437
-437
-437
-436
-437
-439
-440
-438
-437
-439
-442
-439
-437
-435
-437
-440
-439
-434
-423
-418
-418
-422
-418
-418
-423
-430
-433
-434
-433
-434
-434
-434
-434
-437
-436
-438
-439
-439
-439
-443
-444
-445
-440
-439
-439
-441
-443
-444
-440
-433
-414
-382
-363
-412
-511
-610
-673
-698
-696
-681
-658
-630
-600
-575
-546
-516
-484
-460
-446
-441
-438
-436
-437
-434
-430
-430
-430
-430
-426
-428
-428
-424
-421
-422
-422
-421
-418
-416
-410
-407
-406
-402
-401
-402
-401
-395
-386
-380
-373
-367
-364
-358
-352
-345
-332
-325
-319
-314
-305
-298
-295
-292
-289
-289
-291
-293
-291
-292
-300
-307
-316
-326
-337
-350
-362
-371
-378
-386
-398
-408
-411
-415
-418
-422
-424
-428
-430
-430
-430
-431
-430
-431
-430
-434
-436
-436
-433
-426
-427
-430
-430
-427
-427
-433
-434
-430
-430
-431
-435
-434
-433
-432
-433
-434
-434
-435
-437
-439
-440
-439
-438
-438
-438
-441
-446
-446
-441
-439
-442
-444
-445
-442
-442
-444
-443
-444
-442
-443
-447
-448
-449
-449
-446
-445
-446
-447
-446
-445
-446
-446
-450
-448
-448
-448
-448
-449
-448
-444
-444
-446
-449
-445
-445
-446
-443
-440
-436
-438
-437
-434
-431
-434
-441
-445
-442
-438
-439
-442
-446
-446
-449
-446
-447
-447
-449
-451
-452
-450
-450
-454
-455
-450
-449
-447
-449
-447
-439
-418
-388
-374
-409
-484
-570
-642
-680
-689
-674
-651
-622
-597
-578
-556
-527
-501
-476
-458
-452
-449
-447
-444
-443
-442
-442
-437
-436
-436
-433
-433
-430
-433
-432
-431
-431
-431
-426
-422
-421
-422
-422
-420
-414
-410
-405
-401
-395
-390
-386
-382
-376
-368
-358
-350
-345
-338
-334
-326
-318
-312
-308
-311
-313
-314
-314
-314
-314
-322
-334
-343
-349
-355
-366
-377
-387
-398
-405
-413
-418
-424
-426
-430
-430
-434
-438
-441
-442
-444
-442
-439
-440
-439
-442
-442
-440
-441
-440
-441
-439
-434
-436
-442
-446
-444
-440
-437
-436
-440
-441
-439
-439
-442
-442
-443
-440
-438
-439
-444
-446
-445
-444
-444
-446
-444
-445
-446
-446
-447
-450
-451
-450
-444
-443
-449
-450
-449
-446
-443
-443
-446
-450
-450
-449
-447
-449
-448
-450
-453
-450
-448
-450
-453
-450
-446
-445
-450
-450
-448
-445
-441
-439
-434
-435
-432
-430
-434
-442
-450
-450
-446
-442
-440
-443
-448
-450
-452
-449
-446
-446
-450
-453
-453
-453
-452
-453
-454
-456
-458
-455
-450
-442
-426
-398
-374
-394
-462
-546
-625
-678
-695
-686
-661
-635
-610
-588
-567
-542
-514
-486
-463
-452
-449
-450
-449
-446
-439
-433
-435
-440
-441
-435
-430
-426
-429
-430
-432
-430
-428
-426
-427
-426
-422
-416
-414
-414
-414
-409
-401
-394
-390
-386
-382
-373
-363
-352
-346
-340
-333
-326
-318
-314
-310
-307
-307
-306
-306
-309
-314
-317
-321
-325
-334
-345
-354
-366
-375
-384
-393
-401
-407
-414
-421
-427
-433
-434
-434
-437
-437
-437
-441
-444
-440
-437
-436
-439
-442
-442
-436
-436
-438
-440
-442
-437
-438
-440
-442
-442
-440
-437
-435
-433
-434
-435
-438
-435
-435
-437
-440
-441
-438
-435
-438
-439
-442
-442
-443
-444
-442
-443
-443
-444
-441
-438
-438
-442
-442
-440
-442
-443
-444
-446
-446
-440
-439
-440
-446
-446
-444
-446
-443
-442
-442
-443
-447
-443
-442
-437
-432
-426
-423
-425
-427
-426
-427
-434
-438
-436
-434
-435
-440
-444
-444
-443
-441
-442
-446
-446
-446
-449
-450
-450
-446
-444
-445
-446
-450
-450
-446
-435
-410
-376
-378
-439
-531
-615
-677
-699
-699
-683
-658
-628
-599
-574
-545
-512
-478
-455
-446
-442
-440
-439
-437
-434
-434
-433
-430
-428
-428
-430
-427
-424
-420
-418
-418
-415
-414
-412
-410
-410
-407
-401
-396
-394
-396
-390
-383
-370
-359
-356
-354
-350
-342
-331
-319
-310
-307
-301
-292
-289
-288
-286
-281
-277
-281
-286
-290
-294
-303
-312
-323
-331
-342
-352
-367
-380
-390
-398
-406
-414
-416
-418
-424
-429
-430
-430
-427
-433
-436
-436
-436
-430
-429
-431
-434
-435
-434
-431
-427
-427
-429
-431
-430
-430
-433
-430
-430
-433
-434
-430
-426
-426
-428
-428
-428
-430
-431
-431
-430
-430
-434
-434
-433
-430
-433
-435
-439
-442
-435
-433
-433
-434
-439
-439
-438
-437
-436
-437
-439
-438
-434
-434
-438
-440
-441
-438
-438
-436
-437
-439
-439
-438
-439
-438
-435
-434
-435
-438
-438
-435
-430
-424
-420
-418
-417
-417
-417
-424
-431
-435
-433
-430
-433
-437
-442
-437
-437
-436
-435
-437
-444
-447
-446
-440
-440
-440
-442
-443
-442
-438
-434
-433
-423
-399
-377
-403
-493
-593
-661
-693
-696
-690
-674
-651
-622
-587
-546
-514
-484
-458
-442
-437
-435
-431
-429
-427
-421
-418
-418
-421
-423
-424
-418
-414
-414
-414
-413
-410
-409
-406
-403
-398
-398
-394
-391
-385
-381
-377
-370
-362
-352
-347
-339
-333
-326
-314
-303
-296
-292
-283
-278
-274
-273
-271
-267
-268
-268
-272
-274
-281
-287
-298
-310
-319
-334
-348
-360
-370
-380
-392
-401
-403
-406
-413
-420
-423
-425
-424
-422
-421
-424
-430
-430
-426
-426
-426
-427
-426
-426
-422
-421
-423
-427
-426
-424
-421
-422
-422
-424
-426
-429
-427
-425
-426
-425
-424
-422
-425
-427
-426
-430
-429
-429
-430
-431
-433
-429
-426
-428
-430
-431
-430
-431
-434
-433
-429
-427
-430
-433
-433
-434
-431
-429
-429
-430
-433
-437
-435
-434
-430
-431
-433
-431
-430
-430
-431
-434
-435
-432
-434
-438
-438
-437
-430
-429
-421
-414
-412
-416
-414
-411
-414
-421
-426
-428
-428
-429
-430
-431
-433
-431
-430
-432
-432
-434
-436
-440
-439
-439
-439
-437
-434
-434
-437
-438
-437
-434
-420
-394
-372
-411
-512
-614
-674
-697
-695
-684
-667
-645
-616
-578
-538
-498
-466
-442
-430
-427
-433
-434
-429
-426
-424
-422
-418
-416
-414
-416
-418
-415
-414
-410
-410
-410
-409
-406
-398
-394
-393
-394
-390
-385
-378
-372
-368
-366
-362
-354
-346
-335
-326
-321
-313
-306
-299
-292
-286
-281
-278
-273
-270
-268
-271
-273
-274
-275
-280
-290
-301
-312
-325
-335
-346
-358
-369
-380
-391
-399
-406
-410
-410
-416
-420
-423
-424
-425
-424
-425
-422
-418
-424
-426
-423
-420
-418
-422
-424
-422
-421
-420
-422
-422
-423
-422
-418
-418
-420
-422
-425
-427
-426
-425
-425
-424
-423
-424
-428
-427
-426
-427
-430
-430
-430
-429
-430
-429
-427
-427
-430
-428
-430
-431
-433
-435
-435
-432
-433
-430
-427
-427
-433
-438
-435
-434
-433
-430
-430
-431
-432
-434
-432
-430
-430
-431
-434
-434
-435
-435
-436
-437
-435
-431
-430
-433
-433
-427
-421
-416
-414
-414
-414
-415
-421
-428
-430
-427
-426
-428
-436
-435
-432
-428
-430
-435
-434
-438
-439
-440
-441
-440
-440
-440
-436
-436
-439
-439
-434
-422
-398
-374
-398
-486
-589
-662
-694
-697
-686
-666
-638
-606
-571
-539
-507
-478
-452
-438
-434
-435
-434
-431
-430
-428
-428
-423
-423
-421
-423
-418
-418
-421
-420
-417
-411
-408
-406
-406
-407
-405
-402
-398
-394
-390
-383
-380
-376
-371
-363
-357
-350
-342
-333
-322
-316
-310
-304
-298
-294
-293
-289
-286
-283
-283
-283
-290
-295
-302
-308
-314
-326
-336
-350
-361
-372
-380
-391
-401
-408
-413
-417
-422
-426
-429
-427
-427
-427
-430
-434
-437
-435
-430
-427
-426
-425
-426
-430
-430
-429
-430
-430
-432
-430
-430
-430
-430
-431
-430
-427
-428
-430
-435
-434
-435
-434
-433
-435
-435
-437
-438
-437
-437
-438
-440
-440
-442
-441
-439
-437
-436
-436
-435
-438
-438
-439
-437
-436
-438
-442
-445
-442
-437
-439
-441
-443
-444
-442
-441
-442
-440
-439
-439
-442
-444
-442
-444
-442
-441
-440
-439
-438
-434
-430
-426
-426
-431
-434
-438
-439
-436
-436
-439
-440
-439
-440
-446
-449
-446
-444
-443
-446
-450
-450
-450
-450
-450
-443
-446
-446
-449
-442
-430
-402
-374
-383
-446
-534
-617
-674
-692
-683
-664
-638
-610
-584
-562
-540
-515
-486
-462
-447
-443
-446
-446
-443
-439
-437
-438
-438
-434
-433
-434
-434
-430
-427
-426
-426
-427
-427
-423
-420
-418
-414
-415
-413
-414
-410
-404
-398
-391
-383
-377
-370
-368
-358
-346
-336
-330
-326
-324
-321
-315
-311
-310
-310
-310
-308
-309
-317
-327
-334
-340
-351
-361
-369
-380
-393
-404
-411
-418
-422
-424
-424
-431
-434
-437
-439
-441
-442
-442
-442
-443
-443
-441
-442
-442
-442
-442
-440
-442
-440
-440
-438
-437
-438
-443
-445
-440
-435
-436
-438
-442
-442
-442
-439
-438
-439
-440
-440
-441
-442
-443
-445
-446
-444
-446
-449
-445
-442
-441
-443
-446
-450
-450
-446
-446
-443
-443
-446
-447
-446
-451
-450
-449
-446
-446
-452
-453
-450
-448
-446
-447
-450
-450
-449
-443
-440
-438
-437
-436
-437
-436
-435
-437
-442
-449
-449
-444
-441
-442
-446
-449
-450
-452
-452
-452
-452
-453
-452
-451
-452
-454
-453
-457
-454
-452
-446
-446
-443
-424
-396
-376
-403
-474
-555
-633
-683
-696
-685
-658
-628
-602
-584
-566
-541
-509
-478
-460
-450
-446
-449
-449
-446
-440
-439
-442
-444
-439
-430
-429
-434
-434
-430
-429
-430
-432
-426
-422
-419
-417
-414
-416
-414
-416
-411
-400
-390
-387
-386
-378
-370
-364
-354
-344
-338
-333
-326
-323
-321
-316
-310
-313
-312
-313
-312
-314
-317
-327
-341
-350
-359
-366
-376
-387
-398
-406
-412
-420
-425
-426
-428
-433
-442
-442
-442
-440
-442
-446
-443
-446
-443
-442
-442
-440
-441
-442
-442
-442
-443
-442
-440
-444
-446
-442
-439
-438
-437
-437
-436
-439
-442
-440
-440
-440
-439
-439
-437
-442
-446
-446
-445
-445
-443
-442
-443
-443
-446
-444
-443
-446
-446
-444
-446
-446
-446
-442
-442
-445
-446
-446
-448
-454
-450
-446
-443
-445
-445
-446
-446
-441
-434
-431
-430
-430
-427
-433
-443
-445
-440
-439
-440
-441
-447
-450
-446
-443
-444
-446
-446
-446
-447
-452
-453
-456
-454
-447
-446
-447
-446
-447
-446
-438
-411
-382
-383
-439
-528
-613
-670
-692
-686
-668
-640
-612
-589
-570
-549
-522
-492
-463
-446
-443
-444
-446
-444
-441
-435
-434
-433
-432
-430
-430
-430
-431
-430
-430
-427
-428
-427
-422
-416
-414
-411
-410
-410
-406
-403
-399
-395
-390
-382
-371
-364
-362
-356
-349
-340
-332
-325
-316
-310
-304
-303
-302
-298
-298
-297
-298
-306
-314
-326
-335
-342
-349
-357
-362
-373
-386
-399
-408
-411
-420
-421
-424
-427
-434
-435
-437
-435
-435
-436
-434
-435
-437
-437
-437
-439
-438
-435
-434
-435
-437
-435
-434
-435
-434
-434
-437
-435
-434
-430
-430
-430
-434
-435
-434
-433
-432
-434
-434
-430
-428
-431
-436
-442
-442
-436
-438
-437
-437
-435
-438
-439
-438
-436
-437
-437
-439
-439
-438
-438
-441
-440
-439
-437
-438
-437
-439
-440
-438
-437
-437
-439
-439
-440
-442
-438
-429
-422
-421
-423
-421
-418
-420
-430
-434
-435
-430
-426
-433
-436
-440
-440
-437
-438
-438
-441
-445
-444
-442
-442
-444
-443
-440
-439
-441
-442
-442
-438
-428
-403
-377
-391
-464
-558
-634
-680
-696
-689
-673
-650
-620
-590
-554
-519
-489
-463
-446
-439
-438
-438
-435
-424
-425
-427
-427
-424
-420
-420
-420
-418
-415
-414
-411
-410
-408
-409
-406
-398
-394
-398
-398
-396
-390
-381
-377
-372
-364
-355
-350
-344
-334
-326
-319
-309
-299
-289
-282
-281
-278
-279
-278
-278
-273
-274
-278
-285
-292
-299
-308
-317
-326
-339
-354
-367
-377
-386
-394
-398
-407
-414
-415
-414
-420
-423
-426
-426
-426
-428
-433
-430
-424
-422
-426
-430
-429
-426
-424
-424
-426
-427
-426
-423
-422
-422
-425
-423
-422
-422
-421
-420
-422
-422
-424
-426
-427
-427
-426
-427
-426
-424
-426
-427
-431
-430
-427
-426
-425
-426
-426
-429
-429
-429
-430
-431
-433
-433
-433
-433
-430
-428
-428
-430
-434
-434
-434
-433
-429
-430
-433
-433
-433
-433
-430
-430
-430
-431
-431
-430
-433
-430
-433
-435
-433
-426
-418
-414
-414
-414
-411
-411
-418
-427
-430
-426
-425
-427
-430
-432
-431
-429
-429
-430
-434
-434
-434
-436
-436
-437
-437
-435
-435
-436
-437
-435
-430
-430
-422
-401
-374
-402
-491
-590
-657
-689
-691
-680
-666
-642
-614
-578
-544
-510
-475
-446
-430
-425
-426
-430
-430
-426
-421
-420
-417
-414
-410
-411
-411
-410
-410
-410
-410
-401
-396
-398
-399
-394
-391
-385
-383
-382
-377
-372
-364
-359
-354
-349
-341
-330
-321
-313
-303
-293
-284
-281
-276
-273
-271
-268
-266
-264
-265
-269
-273
-280
-285
-293
-306
-319
-331
-342
-354
-362
-374
-383
-390
-398
-403
-408
-410
-414
-418
-415
-414
-420
-422
-421
-418
-414
-415
-417
-420
-424
-425
-420
-415
-414
-414
-414
-416
-416
-417
-414
-416
-416
-416
-414
-415
-416
-417
-418
-418
-414
-417
-419
-419
-418
-414
-420
-422
-421
-420
-421
-422
-421
-418
-423
-424
-426
-424
-420
-422
-424
-428
-430
-429
-426
-425
-424
-422
-422
-422
-426
-425
-425
-426
-427
-429
-430
-430
-430
-429
-427
-427
-427
-426
-425
-426
-430
-429
-430
-430
-430
-430
-429
-430
-430
-429
-426
-430
-427
-426
-428
-429
-432
-431
-428
-422
-417
-414
-411
-410
-410
-410
-410
-414
-420
-425
-426
-423
-423
-425
-428
-428
-423
-422
-426
-433
-435
-436
-433
-433
-430
-433
-435
-435
-434
-430
-431
-431
-427
-411
-385
-381
-449
-558
-644
-682
-686
-677
-664
-644
-618
-585
-542
-506
-478
-453
-434
-427
-427
-427
-426
-423
-418
-415
-414
-414
-410
-410
-410
-410
-409
-407
-406
-403
-401
-398
-394
-394
-390
-389
-386
-382
-376
-370
-363
-363
-355
-348
-342
-336
-330
-318
-310
-301
-296
-290
-284
-278
-270
-266
-265
-268
-270
-268
-270
-276
-282
-288
-297
-308
-321
-332
-344
-354
-366
-377
-386
-393
-399
-402
-408
-416
-417
-415
-418
-418
-414
-418
-418
-418
-418
-417
-418
-414
-414
-414
-414
-416
-416
-418
-418
-414
-414
-414
-414
-418
-421
-420
-420
-418
-417
-418
-416
-418
-421
-422
-421
-420
-418
-422
-426
-425
-423
-421
-424
-426
-426
-423
-422
-428
-430
-429
-427
-430
-430
-429
-428
-430
-430
-426
-430
-434
-434
-430
-426
-427
-432
-438
-441
-435
-430
-429
-431
-433
-434
-435
-434
-436
-435
-433
-433
-433
-433
-433
-437
-437
-434
-431
-431
-437
-438
-438
-435
-433
-433
-435
-437
-439
-439
-438
-440
-439
-438
-437
-437
-439
-440
-441
-439
-435
-434
-438
-442
-443
-439
-432
-434
-437
-438
-440
-438
-438
-440
-442
-443
-439
-436
-437
-439
-439
-434
-428
-423
-422
-423
-422
-422
-424
-427
-429
-427
-427
-434
-435
-435
-437
-437
-439
-438
-437
-437
-438
-439
-439
-442
-442
-442
-440
-440
-441
-442
-440
-434
-419
-391
-367
-393
-477
-578
-652
-690
-693
-682
-662
-632
-604
-574
-550
-520
-490
-462
-444
-435
-434
-437
-432
-426
-426
-428
-433
-429
-425
-422
-418
-416
-418
-416
-417
-417
-416
-414
-409
-402
-403
-407
-406
-402
-393
-388
-385
-383
-377
-367
-358
-350
-346
-343
-333
-324
-319
-314
-308
-298
-289
-284
-284
-283
-284
-286
-288
-295
-297
-301
-308
-321
-333
-346
-357
-367
-378
-384
-390
-401
-410
-415
-419
-423
-424
-424
-425
-431
-435
-433
-430
-432
-432
-431
-430
-430
-428
-428
-430
-430
-428
-426
-429
-433
-433
-428
-427
-430
-433
-433
-434
-431
-432
-430
-432
-434
-434
-437
-438
-435
-434
-432
-434
-438
-439
-438
-440
-440
-438
-439
-441
-442
-442
-439
-439
-440
-442
-442
-445
-444
-442
-441
-442
-444
-445
-442
-442
-446
-446
-445
-443
-443
-447
-446
-446
-443
-447
-450
-446
-443
-444
-446
-446
-443
-446
-448
-449
-449
-445
-444
-445
-443
-447
-446
-446
-449
-450
-449
-446
-443
-443
-442
-437
-434
-430
-427
-430
-433
-435
-436
-437
-437
-435
-441
-447
-446
-442
-441
-444
-446
-446
-446
-449
-451
-450
-447
-446
-446
-446
-449
-450
-450
-444
-436
-422
-392
-372
-393
-456
-538
-618
-671
-686
-670
-648
-621
-598
-578
-560
-534
-506
-475
-454
-441
-441
-443
-442
-434
-433
-438
-438
-438
-434
-433
-429
-430
-433
-429
-426
-425
-423
-421
-422
-415
-410
-409
-412
-414
-410
-401
-396
-394
-390
-384
-378
-370
-363
-355
-348
-339
-334
-330
-323
-318
-309
-306
-305
-306
-308
-309
-313
-316
-322
-329
-339
-348
-358
-366
-375
-386
-396
-403
-411
-418
-424
-424
-428
-433
-434
-434
-434
-435
-437
-439
-439
-438
-436
-436
-437
-439
-439
-437
-435
-437
-436
-434
-434
-441
-440
-434
-430
-434
-441
-437
-430
-430
-433
-437
-437
-436
-438
-437
-439
-438
-434
-434
-441
-443
-441
-439
-439
-439
-440
-443
-446
-444
-443
-442
-442
-445
-443
-443
-442
-444
-446
-446
-449
-449
-446
-443
-444
-446
-446
-446
-447
-450
-447
-443
-444
-446
-450
-452
-451
-446
-446
-446
-447
-449
-446
-449
-451
-450
-449
-442
-438
-434
-433
-434
-433
-434
-436
-438
-438
-436
-437
-442
-444
-443
-442
-443
-444
-442
-443
-449
-452
-454
-452
-449
-447
-448
-450
-449
-442
-442
-446
-440
-425
-394
-372
-400
-478
-563
-640
-682
-690
-674
-650
-620
-593
-569
-546
-522
-493
-468
-449
-442
-441
-438
-436
-437
-438
-436
-433
-427
-424
-424
-430
-429
-425
-424
-422
-421
-418
-415
-417
-416
-414
-410
-406
-405
-402
-393
-386
-379
-375
-370
-362
-355
-346
-337
-330
-325
-318
-308
-299
-294
-290
-290
-289
-291
-294
-295
-300
-305
-314
-322
-334
-342
-354
-369
-382
-392
-398
-404
-410
-415
-422
-424
-426
-424
-428
-432
-434
-436
-433
-434
-433
-434
-439
-438
-437
-434
-431
-430
-431
-433
-433
-434
-431
-430
-427
-426
-427
-430
-433
-430
-427
-430
-434
-432
-427
-426
-429
-431
-434
-433
-430
-429
-428
-430
-433
-432
-431
-434
-437
-437
-431
-431
-434
-438
-443
-440
-436
-431
-434
-439
-439
-437
-437
-437
-434
-430
-434
-439
-440
-436
-437
-440
-438
-436
-438
-439
-440
-436
-437
-439
-440
-440
-437
-436
-439
-442
-440
-437
-434
-433
-431
-427
-425
-422
-419
-414
-415
-427
-430
-430
-428
-431
-432
-433
-430
-430
-435
-438
-438
-438
-438
-437
-440
-446
-445
-443
-439
-438
-436
-434
-436
-440
-436
-414
-379
-366
-418
-510
-595
-658
-688
-693
-681
-655
-629
-599
-569
-539
-512
-482
-455
-437
-433
-434
-432
-433
-426
-420
-420
-424
-425
-418
-410
-410
-414
-414
-413
-410
-410
-411
-409
-402
-394
-394
-396
-394
-391
-385
-379
-372
-365
-362
-354
-342
-332
-327
-319
-310
-299
-294
-288
-284
-278
-273
-266
-262
-266
-270
-270
-273
-280
-287
-295
-305
-316
-327
-337
-352
-367
-380
-387
-393
-400
-406
-410
-415
-420
-420
-418
-418
-422
-425
-425
-424
-424
-424
-425
-423
-423
-423
-422
-420
-420
-421
-420
-421
-421
-420
-423
-422
-417
-413
-412
-418
-422
-423
-420
-417
-417
-418
-420
-421
-421
-423
-421
-420
-420
-422
-424
-424
-420
-420
-425
-427
-430
-426
-422
-424
-423
-426
-427
-425
-425
-426
-426
-425
-425
-427
-427
-428
-425
-427
-431
-429
-430
-430
-430
-427
-425
-423
-422
-423
-430
-433
-430
-426
-427
-430
-431
-428
-426
-427
-427
-421
-414
-406
-403
-403
-403
-406
-407
-414
-421
-421
-418
-414
-418
-424
-426
-424
-425
-427
-426
-426
-428
-430
-434
-430
-431
-430
-428
-431
-430
-430
-429
-428
-424
-405
-375
-380
-457
-566
-646
-686
-694
-686
-674
-655
-626
-589
-546
-506
-472
-446
-426
-422
-424
-420
-418
-418
-418
-414
-410
-409
-410
-409
-406
-402
-399
-401
-401
-400
-395
-390
-390
-386
-382
-381
-382
-378
-370
-363
-359
-352
-345
-339
-331
-319
-310
-303
-297
-288
-282
-278
-270
-264
-258
-255
-250
-250
-253
-253
-255
-257
-262
-274
-282
-295
-309
-323
-335
-350
-360
-369
-375
-382
-394
-400
-403
-406
-409
-411
-414
-414
-414
-415
-416
-417
-418
-417
-414
-411
-411
-414
-415
-414
-414
-416
-416
-414
-414
-410
-410
-410
-411
-412
-414
-414
-415
-414
-418
-418
-416
-414
-416
-418
-415
-411
-416
-418
-420
-418
-418
-421
-421
-421
-420
-421
-423
-423
-421
-419
-422
-426
-425
-423
-422
-423
-423
-425
-426
-426
-428
-425
-422
-424
-428
-429
-430
-426
-425
-427
-430
-430
-426
-425
-426
-430
-430
-433
-430
-430
-426
-426
-433
-433
-433
-427
-424
-416
-410
-410
-410
-406
-407
-416
-423
-424
-419
-418
-420
-427
-430
-431
-430
-429
-431
-434
-434
-434
-437
-436
-437
-437
-435
-432
-433
-434
-436
-435
-434
-421
-395
-374
-411
-507
-607
-666
-690
-690
-679
-663
-635
-606
-568
-532
-503
-478
-454
-434
-426
-429
-433
-433
-430
-427
-422
-418
-422
-423
-418
-418
-421
-419
-414
-409
-410
-411
-407
-402
-403
-403
-399
-395
-394
-392
-385
-377
-370
-370
-365
-357
-350
-342
-337
-329
-317
-306
-297
-294
-294
-291
-286
-282
-282
-277
-275
-280
-285
-291
-299
-309
-318
-329
-338
-350
-362
-373
-385
-394
-402
-408
-417
-424
-423
-423
-426
-430
-430
-433
-438
-434
-431
-430
-430
-431
-429
-431
-433
-429
-430
-430
-432
-432
-431
-434
-430
-424
-424
-430
-437
-435
-432
-430
-433
-432
-432
-430
-434
-437
-438
-439
-438
-437
-440
-439
-438
-435
-438
-443
-444
-439
-438
-440
-443
-443
-441
-442
-440
-440
-440
-443
-446
-446
-447
-446
-442
-439
-444
-446
-446
-446
-444
-445
-444
-447
-450
-446
-445
-444
-446
-446
-446
-443
-439
-436
-434
-434
-430
-426
-429
-437
-440
-442
-440
-437
-437
-440
-443
-450
-446
-444
-444
-446
-450
-449
-450
-451
-454
-452
-449
-448
-451
-453
-453
-446
-435
-414
-385
-382
-433
-511
-593
-656
-686
-686
-669
-644
-614
-590
-574
-553
-530
-500
-472
-452
-444
-448
-446
-440
-438
-440
-440
-437
-433
-434
-440
-439
-438
-435
-431
-427
-422
-424
-425
-425
-425
-421
-416
-412
-410
-410
-408
-406
-401
-394
-389
-381
-374
-371
-362
-351
-342
-337
-334
-330
-322
-314
-310
-307
-309
-312
-310
-308
-313
-322
-334
-338
-342
-354
-364
-375
-387
-396
-406
-409
-414
-421
-426
-427
-433
-436
-438
-442
-442
-440
-440
-443
-445
-446
-442
-439
-442
-443
-444
-441
-441
-443
-442
-440
-439
-436
-434
-436
-438
-439
-440
-438
-437
-438
-439
-441
-443
-442
-441
-442
-440
-442
-442
-440
-437
-439
-442
-445
-444
-443
-442
-442
-441
-443
-445
-448
-449
-449
-446
-443
-442
-446
-449
-450
-446
-442
-441
-446
-452
-451
-449
-446
-446
-446
-446
-447
-450
-449
-449
-446
-446
-450
-446
-439
-433
-430
-431
-428
-428
-433
-438
-442
-443
-440
-438
-440
-446
-446
-446
-448
-450
-449
-449
-450
-447
-449
-450
-452
-452
-446
-450
-449
-446
-446
-446
-439
-421
-390
-377
-416
-494
-580
-648
-686
-690
-677
-654
-625
-596
-568
-544
-521
-499
-474
-452
-444
-442
-443
-442
-440
-439
-439
-437
-430
-431
-433
-430
-428
-425
-423
-423
-424
-424
-421
-418
-416
-415
-411
-409
-406
-403
-401
-395
-392
-386
-378
-373
-365
-358
-350
-338
-330
-324
-318
-310
-304
-300
-298
-298
-298
-296
-295
-295
-302
-310
-315
-324
-332
-342
-353
-366
-377
-387
-398
-402
-404
-410
-418
-426
-427
-429
-430
-429
-431
-433
-433
-434
-435
-433
-434
-437
-438
-438
-433
-430
-429
-430
-430
-431
-431
-428
-426
-429
-433
-431
-427
-424
-426
-430
-430
-430
-428
-428
-426
-425
-427
-430
-429
-429
-429
-427
-430
-434
-434
-431
-430
-430
-432
-436
-435
-433
-431
-433
-433
-435
-434
-433
-433
-434
-438
-434
-430
-434
-439
-438
-434
-432
-435
-434
-433
-434
-437
-437
-434
-433
-434
-437
-437
-436
-434
-433
-430
-429
-423
-418
-416
-414
-410
-411
-420
-423
-422
-424
-427
-430
-433
-433
-426
-427
-434
-437
-440
-438
-434
-433
-434
-435
-434
-438
-437
-435
-434
-434
-434
-428
-414
-390
-377
-422
-515
-605
-666
-690
-691
-678
-657
-630
-600
-569
-536
-500
-468
-448
-435
-430
-424
-425
-422
-418
-418
-418
-418
-416
-410
-410
-409
-407
-407
-405
-403
-400
-398
-395
-394
-394
-390
-386
-382
-377
-372
-366
-360
-355
-350
-343
-336
-332
-326
-314
-302
-293
-286
-281
-274
-270
-269
-262
-259
-261
-262
-265
-266
-271
-278
-288
-298
-311
-322
-332
-339
-350
-365
-377
-387
-395
-399
-402
-406
-410
-412
-414
-418
-421
-421
-418
-418
-418
-419
-421
-420
-416
-415
-417
-421
-420
-416
-414
-414
-418
-416
-415
-414
-414
-411
-410
-414
-413
-410
-414
-417
-417
-414
-412
-415
-415
-417
-418
-418
-416
-417
-418
-418
-417
-418
-422
-424
-425
-423
-421
-423
-424
-422
-424
-424
-426
-426
-423
-423
-423
-425
-425
-423
-423
-425
-426
-424
-423
-425
-426
-426
-426
-425
-427
-427
-430
-425
-426
-427
-428
-429
-427
-427
-429
-429
-426
-423
-423
-430
-431
-427
-422
-418
-415
-409
-403
-402
-402
-410
-415
-418
-415
-416
-420
-424
-425
-424
-423
-426
-426
-426
-427
-430
-431
-434
-431
-427
-430
-430
-434
-434
-434
-434
-427
-421
-408
-381
-374
-437
-546
-638
-682
-696
-688
-674
-655
-629
-596
-561
-524
-488
-455
-434
-428
-425
-425
-423
-418
-416
-418
-421
-418
-414
-410
-408
-408
-410
-410
-406
-401
-403
-402
-402
-397
-390
-390
-390
-388
-382
-376
-376
-372
-365
-355
-348
-343
-335
-328
-322
-311
-302
-296
-295
-290
-284
-278
-270
-265
-266
-267
-271
-273
-274
-278
-285
-294
-304
-315
-328
-338
-349
-365
-378
-385
-392
-398
-404
-414
-420
-422
-418
-418
-427
-430
-424
-420
-422
-426
-427
-424
-424
-422
-421
-423
-424
-421
-418
-424
-431
-433
-430
-424
-421
-424
-424
-426
-428
-428
-427
-428
-426
-424
-427
-429
-431
-430
-429
-430
-437
-434
-433
-432
-436
-441
-439
-436
-431
-430
-435
-439
-440
-437
-434
-433
-435
-439
-440
-441
-440
-439
-440
-443
-442
-443
-442
-441
-438
-438
-440
-442
-442
-442
-444
-443
-440
-439
-440
-444
-443
-442
-443
-445
-446
-446
-446
-445
-437
-434
-430
-430
-430
-427
-426
-429
-438
-442
-437
-434
-435
-442
-443
-443
-442
-442
-442
-446
-449
-450
-452
-452
-450
-447
-450
-450
-452
-452
-449
-443
-443
-437
-414
-389
-385
-439
-529
-615
-672
-693
-690
-674
-651
-622
-593
-568
-548
-527
-498
-467
-448
-442
-440
-443
-449
-449
-442
-438
-435
-436
-434
-434
-434
-434
-433
-430
-428
-427
-427
-425
-424
-423
-421
-419
-418
-412
-406
-401
-399
-398
-392
-382
-378
-371
-364
-359
-350
-344
-335
-330
-327
-318
-310
-311
-310
-307
-304
-306
-310
-314
-321
-334
-343
-351
-359
-367
-379
-390
-402
-412
-418
-424
-426
-429
-434
-439
-440
-440
-443
-448
-450
-447
-446
-444
-446
-448
-446
-446
-449
-445
-446
-447
-446
-446
-442
-442
-442
-444
-446
-443
-442
-443
-442
-442
-442
-443
-448
-446
-446
-444
-444
-448
-452
-450
-448
-446
-446
-450
-450
-450
-447
-448
-450
-452
-450
-447
-447
-450
-456
-456
-453
-450
-453
-454
-452
-453
-450
-454
-455
-455
-454
-454
-454
-452
-452
-452
-453
-454
-454
-454
-455
-455
-453
-450
-446
-442
-442
-442
-440
-439
-437
-438
-439
-446
-449
-446
-446
-452
-455
-454
-450
-450
-455
-457
-461
-458
-455
-457
-454
-457
-462
-460
-452
-450
-455
-458
-449
-426
-398
-385
-418
-488
-567
-637
-680
-690
-679
-657
-628
-604
-583
-561
-537
-510
-484
-459
-450
-451
-455
-454
-449
-441
-437
-441
-440
-442
-442
-438
-435
-438
-436
-435
-431
-431
-433
-428
-426
-424
-423
-420
-420
-418
-411
-402
-395
-393
-391
-386
-377
-366
-357
-354
-348
-340
-332
-324
-321
-319
-317
-316
-316
-318
-314
-316
-321
-330
-342
-352
-363
-371
-378
-386
-399
-408
-414
-422
-430
-431
-434
-439
-442
-444
-442
-443
-446
-444
-446
-446
-446
-448
-450
-447
-442
-442
-446
-449
-446
-443
-443
-444
-439
-436
-440
-443
-445
-442
-437
-436
-437
-440
-443
-442
-441
-442
-440
-442
-443
-442
-446
-446
-446
-442
-443
-446
-446
-446
-446
-444
-444
-446
-446
-447
-447
-446
-444
-444
-446
-446
-446
-445
-443
-446
-450
-449
-450
-451
-449
-446
-444
-447
-450
-451
-447
-443
-443
-449
-452
-450
-442
-433
-431
-430
-430
-429
-430
-435
-439
-442
-439
-437
-437
-441
-446
-445
-442
-445
-447
-446
-446
-444
-447
-449
-449
-449
-446
-447
-446
-446
-446
-446
-442
-433
-409
-380
-382
-438
-520
-596
-654
-685
-686
-667
-643
-614
-590
-568
-544
-517
-485
-461
-446
-441
-440
-437
-435
-434
-430
-429
-430
-429
-427
-426
-426
-424
-418
-418
-420
-422
-418
-417
-414
-410
-408
-406
-404
-398
-393
-391
-387
-382
-374
-366
-360
-351
-339
-334
-332
-321
-310
-301
-298
-292
-287
-284
-282
-281
-282
-283
-286
-295
-302
-306
-315
-330
-345
-355
-365
-378
-390
-394
-398
-403
-410
-415
-420
-423
-424
-425
-427
-430
-433
-434
-434
-431
-430
-429
-430
-429
-426
-426
-426
-433
-431
-430
-424
-421
-418
-423
-424
-424
-424
-426
-426
-427
-428
-426
-423
-420
-418
-423
-429
-426
-422
-420
-424
-428
-427
-426
-427
-430
-431
-429
-429
-428
-429
-430
-430
-430
-430
-429
-427
-427
-430
-434
-430
-428
-430
-431
-430
-426
-427
-433
-433
-430
-427
-430
-430
-429
-428
-426
-426
-429
-431
-430
-430
-429
-428
-425
-418
-410
-409
-409
-408
-410
-414
-419
-420
-420
-421
-424
-427
-428
-428
-425
-423
-428
-433
-434
-433
-431
-434
-431
-430
-433
-431
-434
-434
-431
-428
-429
-418
-389
-366
-400
-490
-590
-655
-681
-683
-675
-658
-631
-597
-564
-529
-497
-469
-445
-428
-420
-421
-424
-421
-417
-411
-412
-413
-411
-411
-410
-410
-403
-398
-398
-398
-398
-395
-390
-389
-387
-385
-381
-378
-375
-373
-368
-361
-356
-351
-344
-334
-325
-318
-310
-300
-290
-283
-278
-271
-266
-259
-257
-257
-255
-258
-257
-260
-262
-270
-279
-288
-301
-314
-325
-338
-352
-363
-377
-387
-395
-402
-402
-402
-407
-411
-416
-417
-417
-414
-411
-414
-415
-417
-414
-412
-411
-411
-416
-417
-414
-410
-410
-410
-412
-411
-410
-410
-410
-411
-412
-410
-412
-414
-414
-418
-417
-414
-412
-413
-417
-418
-413
-412
-414
-418
-418
-417
-418
-414
-417
-420
-422
-421
-417
-414
-417
-420
-422
-425
-424
-421
-420
-420
-422
-423
-422
-422
-424
-421
-419
-420
-422
-424
-426
-426
-426
-424
-422
-422
-422
-423
-423
-422
-420
-423
-425
-422
-420
-414
-412
-406
-402
-399
-396
-398
-407
-416
-418
-417
-415
-416
-420
-422
-421
-418
-420
-422
-425
-427
-428
-430
-429
-430
-428
-426
-426
-426
-428
-427
-425
-418
-403
-381
-375
-430
-534
-625
-675
-691
-687
-674
-652
-625
-594
-554
-508
-472
-447
-430
-420
-418
-420
-421
-418
-414
-414
-411
-409
-410
-411
-411
-406
-402
-401
-401
-400
-401
-399
-398
-393
-390
-387
-382
-378
-375
-374
-369
-364
-357
-349
-342
-335
-326
-322
-317
-310
-299
-286
-280
-279
-277
-271
-265
-262
-262
-262
-266
-271
-275
-283
-290
-299
-310
-324
-335
-349
-362
-374
-383
-390
-396
-404
-410
-414
-418
-422
-423
-422
-420
-418
-418
-420
-423
-422
-418
-426
-424
-423
-424
-426
-421
-419
-422
-421
-418
-418
-420
-421
-423
-425
-424
-425
-426
-423
-422
-426
-427
-426
-423
-421
-423
-426
-430
-433
-433
-430
-430
-429
-430
-432
-433
-430
-429
-433
-433
-430
-430
-433
-434
-434
-433
-433
-432
-434
-434
-435
-434
-431
-430
-433
-434
-438
-437
-439
-439
-439
-437
-436
-436
-435
-437
-437
-430
-424
-418
-418
-418
-418
-421
-430
-434
-429
-426
-426
-430
-433
-433
-434
-437
-439
-440
-442
-443
-448
-443
-441
-440
-445
-449
-443
-440
-438
-437
-440
-441
-426
-394
-374
-407
-493
-584
-653
-682
-683
-667
-645
-618
-591
-565
-537
-508
-479
-454
-439
-437
-439
-441
-440
-440
-435
-433
-429
-427
-430
-430
-432
-426
-423
-421
-422
-419
-424
-421
-416
-414
-413
-414
-411
-407
-401
-396
-393
-387
-382
-376
-373
-367
-358
-348
-338
-332
-326
-318
-312
-310
-311
-308
-304
-300
-301
-306
-306
-310
-317
-325
-334
-344
-355
-368
-382
-395
-401
-401
-408
-414
-424
-427
-433
-434
-435
-437
-438
-439
-439
-440
-445
-448
-446
-439
-434
-437
-440
-443
-444
-442
-440
-440
-442
-440
-435
-434
-438
-439
-442
-442
-441
-439
-439
-440
-440
-438
-440
-442
-440
-441
-440
-442
-444
-443
-443
-443
-446
-444
-446
-449
-447
-446
-446
-446
-442
-442
-446
-450
-450
-448
-446
-443
-442
-444
-446
-449
-449
-449
-446
-446
-446
-445
-446
-446
-442
-434
-434
-437
-436
-433
-434
-439
-442
-442
-440
-437
-442
-444
-447
-446
-443
-446
-448
-452
-457
-458
-455
-450
-450
-450
-454
-456
-454
-450
-446
-449
-446
-426
-394
-373
-403
-476
-555
-625
-669
-681
-673
-651
-622
-602
-582
-562
-538
-510
-484
-462
-451
-446
-450
-446
-444
-442
-439
-442
-441
-439
-438
-435
-435
-437
-438
-437
-431
-428
-427
-428
-429
-426
-422
-423
-422
-417
-407
-402
-401
-400
-398
-393
-388
-379
-370
-361
-354
-349
-340
-334
-330
-326
-322
-317
-310
-310
-310
-311
-318
-323
-332
-338
-347
-355
-364
-376
-387
-398
-405
-411
-419
-421
-426
-434
-441
-442
-440
-442
-444
-444
-446
-449
-447
-446
-446
-443
-444
-442
-444
-445
-446
-446
-446
-446
-445
-445
-445
-442
-442
-441
-442
-446
-442
-442
-443
-443
-442
-441
-443
-443
-442
-442
-443
-446
-446
-442
-439
-440
-442
-446
-446
-446
-446
-447
-446
-446
-446
-450
-450
-450
-449
-444
-442
-443
-447
-450
-447
-446
-444
-444
-447
-446
-444
-446
-442
-436
-430
-430
-434
-427
-426
-430
-438
-442
-441
-439
-440
-442
-441
-439
-442
-446
-447
-449
-446
-449
-450
-452
-450
-449
-447
-447
-450
-450
-451
-448
-438
-418
-393
-384
-433
-514
-594
-656
-684
-685
-670
-645
-618
-593
-570
-545
-517
-488
-463
-446
-439
-440
-441
-437
-433
-431
-434
-430
-429
-427
-429
-430
-430
-427
-423
-420
-418
-416
-414
-412
-414
-414
-410
-405
-398
-395
-393
-385
-380
-375
-365
-360
-355
-345
-335
-329
-321
-314
-305
-299
-297
-293
-290
-288
-287
-288
-294
-298
-303
-307
-316
-324
-335
-347
-364
-376
-386
-392
-402
-409
-414
-418
-422
-426
-427
-427
-427
-427
-430
-430
-434
-434
-434
-434
-434
-430
-430
-433
-437
-431
-430
-427
-428
-430
-427
-429
-430
-430
-431
-430
-427
-426
-426
-427
-430
-430
-428
-427
-426
-425
-426
-428
-426
-426
-431
-434
-432
-430
-430
-430
-432
-434
-434
-430
-428
-429
-431
-434
-434
-433
-430
-430
-431
-431
-431
-434
-429
-427
-427
-428
-429
-432
-434
-433
-433
-430
-426
-420
-414
-409
-407
-408
-410
-410
-414
-420
-422
-422
-424
-423
-426
-427
-427
-426
-426
-427
-431
-434
-434
-434
-433
-433
-432
-435
-439
-437
-434
-436
-433
-430
-418
-390
-369
-410
-503
-596
-655
-682
-684
-674
-658
-634
-604
-572
-534
-498
-467
-442
-428
-424
-426
-424
-420
-418
-416
-418
-418
-414
-410
-409
-409
-409
-409
-406
-401
-396
-394
-395
-394
-390
-390
-386
-384
-380
-374
-371
-367
-360
-354
-346
-340
-332
-324
-315
-310
-304
-294
-284
-277
-273
-270
-266
-263
-262
-262
-265
-268
-274
-281
-288
-299
-311
-318
-330
-343
-358
-369
-377
-386
-396
-401
-402
-409
-411
-414
-416
-416
-420
-420
-418
-417
-417
-419
-419
-420
-417
-416
-417
-418
-420
-418
-414
-414
-418
-423
-424
-417
-411
-414
-418
-420
-420
-418
-418
-418
-417
-414
-416
-420
-419
-416
-419
-420
-420
-422
-421
-422
-421
-418
-422
-420
-420
-422
-427
-428
-427
-425
-424
-422
-424
-426
-424
-420
-418
-419
-422
-426
-424
-423
-421
-421
-424
-425
-425
-421
-420
-420
-410
-400
-395
-398
-400
-402
-409
-416
-420
-418
-417
-418
-420
-418
-420
-422
-427
-429
-430
-429
-430
-430
-427
-426
-425
-427
-430
-430
-430
-431
-430
-428
-417
-390
-369
-410
-510
-607
-661
-678
-676
-665
-647
-622
-590
-552
-514
-478
-450
-432
-421
-418
-419
-421
-423
-423
-418
-414
-410
-409
-406
-409
-407
-406
-406
-402
-400
-398
-395
-392
-391
-390
-386
-385
-379
-377
-375
-370
-365
-360
-354
-344
-331
-322
-314
-308
-305
-297
-287
-280
-275
-272
-271
-267
-268
-268
-268
-271
-275
-282
-288
-295
-301
-314
-328
-339
-352
-365
-378
-387
-394
-399
-402
-408
-414
-418
-418
-418
-417
-414
-414
-414
-418
-421
-422
-421
-418
-417
-418
-420
-420
-420
-421
-418
-416
-415
-414
-418
-421
-420
-421
-419
-418
-416
-414
-420
-421
-423
-421
-417
-420
-418
-418
-420
-426
-428
-426
-424
-423
-423
-426
-427
-426
-425
-425
-426
-426
-424
-423
-426
-426
-429
-430
-434
-433
-428
-428
-425
-427
-430
-431
-430
-427
-427
-423
-418
-418
-418
-417
-414
-414
-418
-426
-426
-423
-422
-428
-431
-433
-434
-435
-438
-437
-437
-437
-439
-439
-436
-435
-437
-440
-439
-440
-442
-441
-436
-418
-390
-369
-393
-470
-562
-636
-674
-682
-670
-647
-620
-591
-569
-546
-524
-498
-473
-449
-439
-433
-430
-434
-434
-434
-434
-434
-431
-425
-424
-426
-424
-420
-418
-418
-420
-421
-421
-418
-415
-412
-410
-408
-404
-399
-396
-397
-394
-387
-379
-373
-369
-361
-351
-345
-338
-334
-331
-324
-314
-308
-305
-304
-305
-302
-302
-304
-309
-316
-322
-329
-339
-350
-362
-372
-379
-390
-402
-408
-410
-416
-425
-430
-433
-431
-433
-435
-438
-440
-437
-435
-436
-438
-440
-438
-437
-440
-442
-442
-437
-433
-429
-433
-438
-440
-438
-437
-436
-438
-439
-439
-438
-434
-433
-430
-434
-440
-442
-441
-437
-437
-442
-443
-444
-442
-442
-440
-439
-438
-440
-443
-443
-442
-442
-443
-445
-443
-441
-440
-441
-444
-446
-444
-446
-446
-446
-443
-445
-446
-435
-427
-427
-428
-430
-427
-429
-435
-439
-436
-433
-431
-434
-442
-447
-447
-446
-445
-446
-446
-446
-449
-451
-453
-454
-452
-448
-446
-446
-449
-450
-448
-434
-414
-386
-383
-435
-518
-595
-654
-679
-674
-659
-635
-607
-584
-569
-547
-519
-490
-465
-450
-444
-443
-444
-445
-442
-435
-434
-437
-439
-438
-435
-434
-433
-430
-428
-427
-427
-426
-426
-424
-419
-417
-418
-417
-412
-407
-402
-398
-392
-386
-382
-378
-370
-364
-359
-352
-345
-336
-329
-326
-321
-314
-313
-311
-312
-316
-319
-321
-324
-332
-339
-346
-356
-368
-382
-392
-398
-402
-413
-424
-428
-428
-430
-434
-439
-442
-443
-444
-444
-443
-442
-439
-439
-443
-449
-446
-440
-439
-446
-447
-443
-439
-435
-440
-443
-446
-442
-438
-441
-442
-442
-442
-441
-442
-442
-440
-439
-440
-441
-439
-437
-439
-441
-441
-442
-442
-440
-438
-439
-442
-447
-446
-446
-443
-442
-440
-442
-443
-446
-448
-447
-443
-441
-439
-439
-443
-442
-437
-430
-426
-420
-422
-426
-433
-434
-434
-434
-436
-437
-439
-440
-439
-439
-443
-447
-446
-445
-444
-446
-449
-450
-449
-444
-442
-446
-450
-450
-446
-440
-426
-403
-380
-395
-461
-546
-622
-671
-686
-678
-660
-634
-604
-579
-551
-526
-498
-469
-449
-442
-441
-438
-435
-434
-434
-431
-430
-432
-431
-429
-427
-426
-423
-422
-421
-421
-418
-416
-414
-414
-410
-404
-403
-404
-402
-398
-391
-385
-378
-370
-363
-359
-350
-339
-330
-322
-320
-314
-308
-303
-301
-299
-294
-288
-286
-290
-297
-302
-310
-319
-330
-339
-351
-364
-377
-386
-394
-402
-409
-411
-414
-420
-424
-427
-430
-435
-437
-434
-434
-435
-438
-439
-437
-437
-439
-438
-437
-439
-437
-434
-434
-434
-437
-433
-432
-430
-430
-431
-432
-433
-430
-432
-434
-434
-433
-431
-433
-435
-434
-435
-435
-434
-434
-438
-436
-436
-437
-435
-435
-434
-433
-433
-434
-435
-437
-439
-439
-437
-438
-441
-438
-434
-433
-437
-440
-433
-426
-419
-415
-414
-417
-415
-418
-425
-427
-428
-426
-426
-430
-434
-434
-433
-430
-434
-440
-442
-439
-439
-439
-440
-443
-442
-435
-434
-438
-443
-442
-438
-434
-426
-404
-378
-407
-497
-594
-658
-683
-685
-674
-660
-637
-605
-574
-542
-512
-484
-456
-435
-427
-429
-433
-433
-430
-423
-420
-421
-423
-421
-420
-418
-414
-414
-413
-416
-417
-410
-402
-397
-398
-398
-396
-393
-387
-384
-380
-371
-362
-361
-356
-346
-333
-322
-315
-306
-301
-297
-295
-292
-286
-280
-275
-278
-277
-277
-278
-283
-288
-294
-301
-313
-328
-342
-354
-367
-376
-382
-390
-398
-406
-413
-418
-421
-423
-423
-422
-421
-424
-431
-432
-432
-430
-429
-428
-427
-427
-431
-426
-426
-427
-426
-426
-423
-424
-426
-424
-423
-424
-425
-426
-427
-427
-426
-425
-428
-433
-431
-427
-427
-430
-432
-430
-428
-430
-426
-427
-430
-434
-434
-433
-434
-430
-426
-425
-427
-427
-429
-430
-433
-433
-433
-431
-430
-433
-430
-430
-428
-429
-428
-424
-421
-414
-409
-407
-406
-406
-409
-418
-423
-423
-419
-422
-425
-430
-427
-426
-428
-429
-431
-434
-434
-435
-438
-439
-438
-436
-435
-436
-439
-438
-436
-430
-430
-418
-395
-380
-434
-532
-621
-668
-686
-685
-674
-658
-636
-606
-570
-530
-494
-466
-444
-433
-428
-427
-429
-426
-422
-423
-422
-419
-419
-418
-417
-414
-413
-411
-410
-410
-407
-405
-402
-399
-396
-398
-391
-386
-383
-381
-382
-374
-366
-360
-354
-346
-338
-332
-326
-321
-311
-303
-295
-289
-283
-279
-278
-275
-274
-276
-278
-282
-286
-293
-302
-313
-326
-338
-349
-359
-372
-381
-387
-393
-402
-410
-415
-421
-422
-423
-423
-427
-425
-424
-427
-430
-434
-430
-429
-426
-427
-433
-432
-430
-427
-426
-426
-426
-426
-424
-423
-426
-427
-427
-426
-427
-430
-431
-431
-431
-433
-434
-434
-431
-430
-425
-422
-423
-430
-430
-431
-430
-428
-433
-433
-433
-434
-434
-435
-434
-434
-434
-434
-434
-430
-427
-429
-431
-433
-430
-424
-419
-414
-411
-410
-410
-408
-410
-420
-427
-427
-423
-420
-424
-430
-430
-428
-428
-430
-430
-432
-434
-436
-435
-436
-438
-438
-437
-434
-435
-441
-439
-441
-437
-427
-400
-376
-398
-485
-589
-661
-685
-684
-674
-657
-632
-601
-567
-534
-506
-478
-453
-437
-430
-431
-433
-434
-429
-424
-423
-424
-424
-418
-414
-412
-414
-414
-418
-415
-410
-405
-403
-402
-404
-402
-399
-393
-386
-386
-383
-379
-372
-363
-357
-350
-344
-338
-331
-322
-313
-306
-299
-293
-289
-286
-283
-282
-280
-281
-282
-286
-290
-298
-304
-317
-326
-338
-350
-358
-370
-380
-390
-401
-407
-410
-414
-418
-422
-424
-427
-426
-426
-428
-429
-430
-427
-426
-426
-428
-428
-425
-424
-427
-429
-427
-427
-426
-424
-424
-424
-426
-426
-425
-421
-422
-426
-427
-426
-426
-430
-430
-430
-429
-430
-428
-427
-430
-434
-434
-431
-433
-433
-427
-429
-431
-430
-431
-430
-429
-428
-430
-430
-429
-430
-432
-433
-431
-430
-426
-424
-418
-412
-408
-406
-406
-407
-414
-418
-419
-418
-417
-419
-424
-430
-430
-430
-432
-433
-434
-433
-434
-435
-438
-440
-436
-436
-435
-434
-437
-431
-429
-426
-424
-406
-380
-392
-475
-581
-654
-677
-678
-670
-654
-632
-604
-571
-534
-498
-470
-450
-437
-430
-430
-427
-424
-423
-423
-422
-422
-420
-420
-420
-418
-416
-414
-409
-407
-403
-403
-402
-399
-398
-399
-398
-392
-387
-387
-386
-381
-373
-365
-358
-354
-350
-343
-337
-325
-314
-307
-302
-296
-290
-282
-279
-280
-278
-275
-275
-276
-281
-286
-290
-302
-316
-329
-339
-350
-362
-374
-382
-390
-395
-399
-410
-414
-418
-420
-420
-422
-421
-424
-424
-425
-423
-422
-424
-427
-428
-426
-422
-421
-418
-417
-418
-422
-424
-424
-422
-422
-424
-425
-425
-426
-427
-426
-426
-424
-421
-422
-424
-428
-427
-425
-421
-430
-433
-432
-430
-428
-430
-431
-431
-430
-430
-429
-430
-433
-430
-428
-426
-428
-427
-430
-431
-431
-433
-431
-432
-430
-430
-427
-421
-414
-410
-409
-409
-411
-414
-419
-423
-422
-418
-418
-423
-430
-432
-431
-429
-430
-434
-434
-438
-438
-440
-441
-438
-434
-431
-432
-435
-438
-440
-440
-434
-418
-390
-375
-422
-519
-612
-664
-678
-676
-664
-647
-623
-596
-565
-534
-500
-471
-446
-434
-430
-429
-427
-428
-430
-428
-426
-425
-425
-424
-425
-420
-418
-420
-416
-412
-410
-410
-411
-411
-409
-405
-401
-398
-394
-390
-386
-382
-378
-371
-367
-362
-355
-350
-343
-333
-321
-314
-311
-306
-300
-295
-293
-286
-284
-285
-286
-290
-290
-297
-307
-318
-328
-342
-351
-362
-374
-383
-394
-402
-410
-417
-420
-420
-421
-427
-432
-434
-431
-431
-433
-429
-429
-430
-430
-432
-433
-431
-429
-428
-429
-430
-430
-434
-438
-438
-435
-434
-435
-435
-434
-432
-433
-436
-438
-438
-439
-442
-440
-441
-437
-439
-441
-440
-441
-442
-446
-443
-441
-440
-442
-447
-446
-445
-443
-446
-446
-444
-443
-445
-446
-442
-436
-431
-430
-430
-430
-430
-434
-437
-439
-439
-440
-442
-440
-441
-440
-442
-443
-447
-448
-450
-453
-456
-453
-450
-453
-453
-452
-451
-453
-454
-451
-448
-439
-422
-393
-374
-402
-474
-558
-635
-677
-682
-666
-640
-612
-590
-575
-556
-529
-500
-475
-458
-455
-454
-452
-450
-446
-446
-444
-439
-437
-438
-434
-434
-437
-438
-438
-435
-434
-430
-430
-427
-424
-422
-424
-423
-418
-414
-411
-414
-409
-398
-387
-384
-384
-378
-370
-358
-349
-342
-337
-332
-326
-324
-318
-316
-319
-318
-317
-317
-322
-326
-334
-339
-349
-358
-366
-377
-386
-398
-408
-418
-424
-429
-427
-430
-434
-439
-442
-444
-443
-442
-440
-440
-440
-442
-445
-444
-440
-438
-439
-440
-442
-442
-443
-443
-442
-442
-443
-446
-442
-438
-438
-440
-446
-444
-442
-443
-442
-442
-446
-446
-446
-446
-446
-447
-443
-442
-445
-446
-449
-449
-446
-446
-443
-446
-446
-448
-446
-444
-443
-446
-450
-452
-450
-446
-443
-437
-431
-429
-427
-430
-428
-431
-437
-439
-439
-439
-442
-445
-442
-441
-448
-452
-453
-450
-452
-455
-454
-450
-450
-454
-457
-454
-453
-454
-453
-447
-440
-428
-400
-376
-396
-468
-558
-633
-677
-691
-686
-670
-647
-620
-591
-566
-545
-518
-486
-462
-449
-446
-446
-444
-446
-447
-442
-438
-435
-436
-435
-438
-437
-434
-427
-426
-420
-423
-424
-426
-426
-420
-414
-414
-414
-410
-402
-398
-394
-389
-383
-378
-370
-362
-357
-351
-341
-326
-320
-318
-316
-308
-302
-299
-297
-298
-300
-303
-308
-313
-321
-332
-342
-350
-362
-374
-384
-391
-398
-410
-417
-423
-424
-429
-433
-435
-440
-442
-445
-440
-435
-434
-437
-441
-442
-442
-443
-444
-441
-436
-433
-432
-437
-443
-439
-435
-433
-434
-435
-439
-440
-440
-439
-435
-434
-439
-442
-436
-432
-435
-442
-442
-440
-438
-435
-439
-442
-444
-440
-438
-437
-440
-442
-442
-441
-442
-443
-441
-438
-439
-439
-437
-430
-422
-420
-421
-418
-421
-427
-434
-434
-430
-426
-427
-430
-435
-437
-436
-438
-439
-440
-444
-446
-445
-446
-447
-447
-447
-443
-442
-441
-440
-440
-441
-434
-415
-384
-378
-437
-538
-626
-675
-693
-691
-679
-657
-629
-598
-568
-538
-510
-482
-453
-438
-435
-438
-437
-435
-435
-434
-430
-422
-418
-418
-418
-424
-423
-421
-414
-410
-414
-414
-414
-410
-407
-406
-406
-403
-395
-389
-384
-378
-367
-361
-358
-351
-343
-334
-329
-323
-319
-311
-303
-295
-292
-290
-290
-282
-281
-281
-282
-288
-289
-294
-302
-311
-321
-332
-345
-359
-369
-377
-390
-402
-411
-414
-414
-416
-420
-427
-430
-430
-430
-430
-430
-432
-435
-435
-433
-429
-430
-430
-430
-431
-430
-428
-430
-432
-426
-421
-424
-431
-432
-431
-430
-428
-426
-426
-430
-431
-432
-434
-434
-436
-433
-431
-430
-430
-432
-434
-437
-438
-436
-433
-430
-430
-433
-434
-434
-434
-434
-430
-430
-428
-426
-418
-414
-409
-407
-409
-420
-431
-431
-424
-423
-426
-431
-431
-430
-433
-435
-436
-435
-435
-437
-443
-443
-442
-437
-437
-439
-437
-437
-439
-439
-436
-425
-404
-377
-386
-468
-572
-647
-682
-690
-686
-674
-653
-622
-589
-554
-521
-490
-462
-440
-431
-431
-435
-431
-427
-425
-424
-427
-425
-422
-421
-418
-418
-418
-414
-410
-407
-406
-410
-408
-406
-402
-397
-394
-390
-386
-385
-379
-373
-364
-356
-347
-342
-337
-329
-318
-314
-307
-300
-291
-286
-282
-280
-282
-281
-281
-277
-275
-281
-292
-303
-314
-324
-332
-343
-355
-368
-378
-386
-392
-402
-407
-410
-411
-415
-422
-425
-426
-426
-424
-426
-426
-428
-430
-429
-426
-423
-422
-422
-423
-425
-426
-426
-426
-424
-424
-422
-424
-425
-421
-422
-425
-426
-425
-426
-426
-426
-426
-429
-427
-426
-423
-429
-433
-431
-430
-433
-430
-428
-423
-425
-430
-430
-430
-431
-433
-433
-429
-427
-426
-419
-410
-408
-410
-409
-406
-410
-420
-425
-421
-419
-421
-422
-425
-427
-429
-429
-430
-431
-433
-433
-430
-434
-438
-436
-434
-431
-430
-434
-432
-434
-434
-430
-414
-392
-374
-411
-512
-610
-663
-681
-681
-670
-654
-628
-597
-562
-522
-486
-457
-439
-430
-429
-429
-428
-423
-418
-418
-422
-420
-417
-414
-411
-411
-414
-414
-410
-402
-398
-400
-402
-403
-399
-396
-390
-386
-386
-382
-377
-372
-365
-358
-349
-339
-334
-330
-322
-311
-303
-294
-288
-283
-281
-279
-278
-275
-274
-274
-276
-281
-286
-295
-308
-318
-326
-334
-345
-361
-376
-386
-389
-390
-396
-403
-409
-418
-424
-427
-422
-423
-422
-422
-424
-426
-426
-422
-420
-416
-418
-420
-422
-421
-421
-418
-417
-418
-419
-421
-421
-423
-423
-420
-422
-424
-425
-424
-422
-423
-426
-427
-428
-427
-426
-426
-428
-426
-427
-430
-430
-434
-432
-430
-427
-424
-429
-427
-430
-427
-427
-431
-430
-428
-425
-421
-415
-411
-414
-414
-410
-409
-414
-421
-424
-423
-423
-426
-429
-430
-429
-430
-433
-433
-431
-430
-433
-437
-438
-436
-438
-437
-436
-438
-433
-434
-434
-430
-417
-398
-378
-411
-509
-613
-671
-691
-690
-679
-662
-634
-604
-570
-534
-499
-470
-443
-431
-430
-429
-427
-426
-424
-426
-429
-427
-424
-418
-418
-419
-418
-416
-414
-411
-414
-412
-410
-409
-406
-402
-396
-390
-390
-388
-385
-381
-374
-370
-364
-358
-351
-342
-330
-322
-319
-314
-305
-300
-296
-291
-286
-286
-287
-288
-289
-289
-295
-304
-309
-318
-330
-348
-362
-370
-379
-386
-396
-403
-410
-418
-421
-427
-431
-432
-426
-430
-434
-438
-437
-430
-428
-427
-429
-432
-436
-438
-431
-428
-430
-432
-437
-438
-434
-433
-433
-434
-433
-430
-430
-435
-441
-442
-440
-441
-441
-439
-437
-438
-441
-443
-443
-439
-440
-442
-446
-446
-439
-440
-442
-443
-444
-442
-442
-442
-443
-444
-443
-443
-442
-445
-446
-442
-435
-430
-429
-426
-424
-424
-430
-437
-439
-437
-435
-435
-439
-444
-446
-449
-446
-447
-446
-446
-449
-451
-450
-446
-443
-444
-449
-450
-449
-450
-453
-446
-431
-406
-378
-390
-465
-554
-632
-678
-689
-674
-650
-622
-594
-572
-551
-524
-496
-473
-454
-445
-446
-450
-449
-442
-437
-437
-440
-440
-439
-437
-434
-434
-433
-430
-428
-427
-425
-422
-424
-423
-418
-419
-417
-414
-410
-403
-400
-396
-393
-390
-385
-379
-370
-358
-350
-345
-341
-333
-326
-322
-321
-320
-318
-316
-314
-314
-321
-326
-332
-338
-346
-358
-367
-375
-384
-398
-409
-416
-421
-426
-430
-433
-434
-436
-441
-446
-442
-443
-442
-445
-445
-441
-440
-441
-442
-441
-438
-441
-443
-444
-443
-442
-440
-439
-440
-443
-444
-442
-439
-441
-446
-445
-442
-446
-446
-445
-445
-446
-446
-446
-446
-447
-446
-446
-446
-450
-450
-444
-444
-450
-451
-452
-448
-445
-446
-445
-447
-447
-446
-445
-442
-442
-442
-440
-438
-433
-430
-435
-442
-446
-443
-441
-442
-447
-449
-447
-450
-452
-446
-442
-446
-449
-452
-451
-452
-452
-446
-446
-449
-452
-454
-454
-450
-446
-430
-403
-381
-406
-471
-549
-622
-670
-680
-670
-647
-618
-590
-574
-560
-542
-517
-486
-464
-451
-446
-446
-447
-446
-443
-442
-439
-437
-439
-440
-435
-433
-433
-435
-434
-431
-426
-424
-427
-430
-427
-425
-422
-415
-410
-409
-405
-402
-402
-398
-391
-381
-374
-364
-359
-357
-350
-342
-334
-329
-326
-326
-322
-319
-318
-322
-326
-330
-334
-341
-346
-353
-364
-374
-385
-395
-406
-410
-414
-420
-426
-432
-435
-437
-436
-439
-443
-443
-443
-446
-448
-450
-443
-438
-438
-442
-446
-442
-436
-439
-442
-442
-440
-439
-437
-439
-441
-439
-439
-441
-440
-442
-443
-446
-439
-438
-440
-443
-442
-441
-440
-441
-444
-446
-443
-442
-446
-450
-450
-446
-443
-442
-442
-446
-447
-446
-443
-442
-442
-443
-443
-438
-431
-428
-427
-429
-427
-430
-437
-440
-437
-434
-436
-441
-443
-442
-441
-441
-442
-445
-445
-440
-442
-446
-446
-445
-446
-446
-449
-448
-443
-440
-441
-438
-424
-387
-366
-395
-476
-567
-642
-680
-688
-675
-654
-624
-593
-570
-551
-526
-490
-459
-440
-436
-438
-438
-433
-429
-428
-426
-424
-422
-420
-422
-420
-418
-417
-417
-418
-416
-411
-408
-407
-405
-404
-405
-402
-394
-389
-386
-383
-377
-367
-361
-352
-346
-341
-334
-325
-314
-308
-302
-297
-290
-285
-282
-283
-285
-286
-288
-291
-294
-298
-308
-319
-330
-340
-352
-362
-374
-384
-394
-402
-403
-407
-413
-417
-423
-427
-432
-430
-432
-431
-433
-433
-426
-425
-426
-424
-427
-429
-426
-425
-424
-426
-427
-427
-427
-424
-424
-426
-426
-421
-419
-421
-424
-426
-424
-424
-427
-430
-429
-430
-431
-430
-427
-424
-429
-432
-431
-430
-429
-430
-428
-425
-426
-430
-430
-427
-428
-430
-434
-430
-429
-427
-431
-433
-429
-424
-422
-421
-416
-412
-410
-408
-406
-404
-406
-418
-428
-430
-424
-423
-424
-426
-428
-427
-427
-426
-429
-430
-428
-430
-433
-435
-434
-430
-431
-434
-431
-430
-430
-430
-434
-427
-410
-383
-380
-446
-550
-635
-677
-686
-683
-672
-654
-627
-593
-552
-513
-479
-452
-430
-422
-419
-421
-420
-420
-418
-417
-414
-413
-410
-410
-410
-406
-403
-404
-409
-405
-399
-399
-398
-394
-391
-383
-378
-374
-374
-370
-362
-354
-350
-348
-342
-334
-326
-321
-310
-300
-293
-287
-279
-273
-270
-267
-266
-263
-262
-263
-266
-273
-281
-288
-296
-306
-322
-338
-350
-359
-367
-375
-386
-396
-402
-403
-409
-412
-418
-415
-414
-413
-413
-420
-420
-418
-416
-414
-417
-421
-421
-418
-415
-418
-420
-421
-420
-418
-418
-418
-418
-418
-418
-418
-419
-420
-418
-419
-419
-422
-424
-424
-421
-419
-420
-424
-424
-423
-424
-426
-424
-426
-425
-421
-421
-427
-426
-424
-423
-428
-430
-427
-426
-426
-426
-424
-424
-424
-425
-428
-430
-428
-426
-427
-427
-425
-420
-414
-408
-406
-406
-405
-406
-411
-420
-423
-421
-417
-419
-426
-427
-425
-422
-426
-430
-433
-432
-430
-427
-429
-433
-434
-433
-434
-434
-430
-427
-428
-431
-424
-406
-375
-373
-440
-550
-636
-676
-683
-679
-666
-645
-619
-588
-551
-512
-478
-450
-433
-424
-421
-421
-424
-420
-414
-412
-409
-410
-409
-407
-410
-410
-408
-408
-402
-400
-398
-398
-394
-394
-393
-390
-385
-381
-378
-374
-368
-366
-360
-354
-348
-338
-331
-326
-319
-310
-299
-290
-284
-278
-278
-278
-274
-273
-272
-273
-275
-278
-285
-293
-303
-311
-322
-331
-342
-351
-362
-376
-389
-398
-399
-398
-403
-409
-414
-416
-418
-419
-425
-425
-423
-421
-420
-421
-422
-422
-422
-421
-418
-418
-418
-423
-426
-426
-425
-423
-420
-418
-418
-421
-423
-424
-425
-426
-426
-425
-425
-424
-428
-427
-427
-427
-428
-430
-430
-430
-430
-435
-438
-433
-428
-426
-430
-434
-436
-435
-433
-433
-433
-434
-434
-433
-434
-434
-436
-437
-438
-433
-434
-439
-442
-440
-437
-433
-432
-437
-439
-439
-438
-441
-444
-439
-437
-434
-433
-430
-425
-422
-422
-421
-422
-426
-432
-436
-434
-431
-429
-433
-435
-436
-438
-443
-447
-446
-443
-442
-442
-442
-443
-443
-443
-446
-447
-446
-441
-439
-441
-438
-420
-387
-367
-409
-505
-598
-658
-682
-681
-669
-647
-619
-591
-565
-536
-507
-481
-458
-442
-434
-434
-435
-436
-434
-431
-431
-429
-426
-423
-425
-423
-421
-421
-422
-421
-418
-418
-422
-418
-414
-410
-406
-406
-403
-400
-394
-387
-383
-379
-374
-366
-356
-354
-351
-344
-334
-324
-318
-312
-309
-310
-307
-304
-301
-298
-298
-299
-303
-311
-322
-330
-339
-351
-363
-372
-381
-393
-405
-414
-420
-422
-425
-430
-430
-434
-436
-439
-440
-441
-439
-439
-439
-439
-440
-439
-440
-438
-439
-444
-442
-441
-434
-433
-435
-438
-438
-438
-437
-439
-440
-440
-442
-444
-443
-442
-440
-441
-440
-442
-443
-444
-441
-443
-446
-447
-449
-446
-446
-445
-444
-443
-447
-452
-452
-450
-449
-447
-446
-447
-450
-452
-450
-453
-453
-451
-449
-448
-450
-453
-455
-452
-446
-442
-446
-450
-452
-450
-449
-450
-450
-449
-444
-440
-437
-436
-434
-438
-446
-449
-446
-446
-446
-447
-450
-452
-452
-452
-450
-452
-453
-455
-458
-458
-452
-454
-457
-456
-456
-452
-450
-450
-443
-438
-420
-390
-378
-415
-492
-574
-642
-678
-681
-662
-638
-611
-590
-570
-551
-526
-494
-467
-453
-450
-449
-446
-443
-443
-444
-442
-439
-435
-433
-434
-437
-438
-430
-426
-427
-430
-431
-427
-424
-423
-421
-418
-416
-414
-412
-410
-406
-405
-399
-389
-377
-372
-372
-370
-362
-349
-342
-337
-335
-333
-330
-327
-327
-326
-324
-322
-324
-330
-337
-343
-350
-357
-365
-378
-394
-402
-406
-410
-414
-425
-430
-432
-434
-438
-438
-440
-440
-441
-443
-446
-446
-444
-443
-443
-444
-445
-446
-443
-440
-439
-441
-443
-443
-440
-439
-440
-440
-438
-437
-439
-440
-442
-444
-441
-435
-437
-444
-447
-440
-438
-443
-446
-446
-444
-446
-447
-446
-445
-444
-444
-446
-447
-450
-450
-450
-446
-446
-447
-446
-446
-447
-446
-443
-446
-450
-450
-446
-445
-446
-445
-443
-446
-446
-446
-440
-437
-435
-433
-430
-433
-436
-442
-446
-442
-442
-444
-445
-449
-447
-447
-446
-447
-446
-446
-449
-455
-456
-453
-452
-450
-449
-450
-452
-449
-446
-445
-442
-420
-387
-377
-420
-496
-577
-642
-680
-684
-667
-642
-610
-580
-562
-544
-520
-493
-465
-447
-442
-441
-441
-441
-439
-438
-436
-434
-434
-433
-434
-433
-430
-426
-424
-422
-421
-420
-421
-421
-420
-417
-412
-410
-405
-402
-398
-396
-390
-385
-380
-373
-362
-356
-350
-346
-338
-329
-322
-316
-312
-308
-306
-304
-304
-305
-310
-314
-318
-326
-335
-346
-352
-361
-373
-386
-399
-409
-418
-424
-424
-422
-426
-432
-439
-442
-441
-437
-436
-440
-442
-440
-440
-438
-437
-439
-442
-443
-438
-437
-437
-440
-439
-437
-435
-435
-437
-438
-438
-437
-439
-440
-440
-434
-431
-431
-434
-438
-439
-439
-437
-436
-437
-439
-442
-442
-441
-440
-440
-441
-438
-439
-439
-440
-440
-443
-442
-438
-438
-442
-443
-446
-444
-442
-440
-439
-441
-441
-445
-443
-441
-441
-442
-440
-438
-435
-434
-429
-425
-420
-421
-425
-430
-434
-440
-440
-434
-429
-433
-439
-443
-440
-437
-441
-445
-446
-443
-440
-442
-446
-446
-444
-442
-442
-443
-445
-441
-435
-430
-414
-380
-367
-417
-509
-598
-660
-690
-690
-676
-651
-619
-589
-562
-536
-504
-471
-446
-437
-435
-436
-435
-430
-424
-422
-425
-422
-420
-417
-418
-416
-414
-415
-415
-415
-414
-412
-409
-406
-404
-398
-395
-394
-393
-388
-382
-377
-372
-366
-358
-350
-341
-334
-325
-318
-312
-305
-297
-290
-288
-287
-283
-279
-279
-279
-278
-284
-293
-300
-306
-314
-326
-338
-351
-366
-377
-385
-390
-395
-403
-412
-418
-421
-423
-426
-428
-430
-429
-428
-428
-429
-427
-430
-433
-433
-430
-430
-428
-428
-426
-424
-421
-424
-424
-425
-426
-428
-426
-425
-427
-427
-424
-424
-428
-429
-426
-422
-422
-427
-430
-429
-428
-427
-430
-431
-430
-428
-427
-428
-431
-434
-434
-431
-430
-430
-433
-435
-435
-434
-430
-433
-430
-430
-433
-434
-437
-435
-434
-432
-430
-432
-433
-434
-434
-434
-430
-430
-431
-434
-436
-436
-435
-434
-428
-419
-414
-414
-414
-416
-417
-421
-429
-431
-424
-422
-427
-432
-437
-435
-430
-431
-433
-435
-435
-437
-441
-440
-438
-435
-437
-439
-437
-437
-435
-435
-433
-426
-405
-379
-396
-480
-578
-647
-679
-684
-678
-663
-641
-610
-577
-543
-510
-478
-449
-432
-426
-426
-426
-424
-418
-418
-418
-414
-414
-415
-416
-412
-407
-408
-406
-406
-402
-398
-398
-395
-393
-391
-389
-383
-378
-375
-372
-367
-361
-354
-346
-336
-326
-318
-311
-301
-296
-295
-289
-282
-275
-271
-266
-265
-268
-270
-271
-270
-274
-283
-292
-301
-313
-327
-342
-358
-366
-374
-383
-394
-406
-410
-411
-414
-414
-414
-417
-421
-423
-422
-424
-422
-423
-422
-420
-419
-421
-423
-422
-421
-418
-416
-415
-417
-418
-417
-420
-425
-423
-416
-414
-415
-418
-419
-418
-417
-418
-422
-424
-422
-418
-416
-420
-418
-421
-423
-427
-426
-424
-422
-424
-425
-423
-422
-425
-430
-430
-430
-425
-421
-421
-426
-430
-430
-431
-430
-427
-425
-424
-427
-430
-426
-424
-426
-430
-430
-430
-431
-430
-427
-429
-429
-429
-430
-426
-428
-431
-429
-433
-431
-434
-431
-424
-419
-418
-411
-406
-403
-406
-410
-418
-425
-426
-424
-421
-422
-426
-429
-427
-426
-423
-425
-429
-430
-434
-436
-434
-433
-434
-434
-434
-434
-434
-432
-430
-426
-418
-398
-372
-390
-487
-593
-661
-682
-681
-672
-656
-634
-604
-565
-520
-483
-455
-435
-426
-424
-424
-420
-418
-416
-418
-417
-409
-401
-402
-406
-407
-403
-401
-399
-401
-401
-398
-391
-387
-386
-381
-378
-377
-375
-373
-366
-358
-355
-352
-346
-334
-321
-314
-307
-299
-290
-284
-278
-274
-269
-262
-259
-260
-261
-262
-265
-270
-274
-281
-293
-301
-310
-324
-339
-358
-367
-374
-378
-386
-394
-402
-410
-414
-417
-420
-420
-418
-414
-410
-414
-414
-416
-417
-414
-415
-416
-419
-417
-414
-412
-414
-415
-414
-414
-418
-417
-418
-415
-414
-414
-416
-418
-417
-414
-414
-416
-417
-418
-420
-419
-418
-421
-423
-422
-422
-422
-423
-425
-426
-426
-424
-422
-423
-422
-421
-427
-428
-430
-426
-426
-431
-431
-430
-429
-430
-430
-426
-426
-427
-428
-430
-430
-430
-433
-433
-431
-430
-431
-433
-433
-429
-427
-430
-431
-432
-432
-430
-431
-431
-434
-435
-434
-431
-431
-433
-434
-434
-434
-430
-431
-429
-424
-418
-418
-416
-414
-412
-415
-425
-430
-430
-426
-430
-433
-435
-432
-430
-430
-435
-438
-437
-437
-437
-438
-440
-440
-439
-437
-437
-438
-439
-438
-437
-430
-403
-372
-383
-469
-578
-654
-682
-686
-677
-659
-634
-603
-574
-539
-505
-474
-450
-436
-429
-427
-430
-430
-426
-426
-424
-424
-423
-420
-418
-414
-414
-411
-410
-410
-410
-411
-410
-408
-402
-398
-399
-399
-395
-387
-383
-381
-375
-372
-365
-353
-342
-338
-336
-333
-321
-309
-301
-296
-297
-294
-290
-286
-285
-282
-283
-284
-287
-295
-301
-304
-316
-333
-349
-359
-368
-383
-394
-398
-402
-410
-416
-423
-427
-427
-429
-429
-428
-429
-430
-431
-429
-428
-427
-429
-431
-430
-433
-431
-430
-433
-426
-424
-424
-426
-430
-433
-433
-434
-434
-432
-432
-432
-433
-434
-434
-434
-435
-435
-438
-435
-434
-436
-441
-440
-437
-436
-438
-443
-446
-441
-438
-438
-440
-442
-446
-449
-446
-442
-440
-443
-443
-447
-444
-446
-446
-446
-447
-447
-449
-444
-442
-443
-446
-450
-450
-447
-446
-446
-446
-444
-446
-445
-448
-450
-450
-447
-446
-449
-450
-449
-449
-450
-449
-447
-447
-447
-449
-451
-450
-446
-437
-432
-434
-437
-434
-433
-440
-446
-449
-444
-442
-443
-447
-447
-443
-446
-446
-449
-452
-454
-455
-454
-453
-447
-446
-447
-451
-455
-456
-454
-449
-442
-427
-406
-381
-390
-448
-531
-612
-665
-679
-674
-651
-622
-593
-574
-558
-538
-510
-480
-459
-446
-440
-442
-441
-442
-442
-441
-436
-432
-430
-429
-430
-427
-430
-428
-426
-426
-427
-426
-421
-421
-421
-420
-415
-414
-408
-405
-400
-400
-398
-393
-386
-380
-375
-369
-358
-349
-339
-334
-331
-326
-318
-313
-310
-310
-311
-308
-308
-309
-314
-321
-330
-339
-351
-359
-368
-378
-392
-402
-410
-414
-418
-424
-427
-427
-430
-435
-441
-442
-440
-435
-434
-437
-442
-443
-442
-438
-436
-435
-438
-442
-443
-442
-442
-437
-437
-439
-437
-435
-430
-437
-442
-439
-434
-434
-436
-438
-439
-443
-443
-441
-440
-442
-441
-442
-446
-449
-446
-441
-442
-442
-440
-443
-446
-450
-450
-447
-443
-440
-442
-446
-455
-455
-450
-446
-450
-449
-446
-449
-450
-451
-449
-449
-446
-446
-447
-448
-450
-450
-452
-454
-452
-450
-448
-447
-450
-454
-453
-448
-443
-442
-446
-446
-442
-438
-434
-434
-433
-434
-442
-450
-449
-440
-439
-443
-446
-446
-446
-447
-450
-450
-449
-453
-453
-454
-452
-450
-450
-447
-448
-449
-453
-453
-449
-442
-426
-398
-375
-400
-465
-544
-618
-670
-683
-672
-647
-616
-590
-570
-552
-530
-503
-473
-447
-437
-437
-442
-442
-441
-436
-435
-434
-434
-433
-433
-427
-426
-425
-424
-425
-422
-424
-426
-422
-414
-414
-411
-410
-408
-406
-402
-394
-389
-385
-380
-374
-368
-363
-357
-350
-340
-329
-322
-316
-311
-307
-306
-299
-299
-298
-300
-307
-310
-317
-326
-335
-346
-360
-372
-384
-392
-395
-402
-409
-414
-421
-429
-432
-433
-433
-434
-435
-437
-434
-434
-437
-439
-438
-437
-435
-434
-436
-438
-438
-434
-433
-434
-433
-433
-433
-432
-431
-430
-427
-431
-434
-434
-434
-433
-431
-430
-430
-433
-437
-435
-437
-437
-435
-438
-436
-436
-434
-435
-437
-437
-435
-435
-436
-438
-438
-438
-437
-438
-442
-441
-435
-432
-434
-439
-442
-442
-441
-440
-440
-442
-439
-438
-439
-439
-439
-438
-437
-437
-438
-439
-443
-439
-435
-430
-427
-430
-426
-421
-417
-418
-426
-434
-437
-433
-430
-431
-436
-437
-435
-433
-430
-435
-441
-443
-442
-442
-441
-437
-434
-437
-442
-442
-440
-438
-439
-437
-433
-417
-387
-372
-417
-502
-585
-645
-673
-678
-666
-649
-622
-597
-569
-541
-513
-487
-462
-442
-430
-428
-430
-432
-430
-424
-420
-418
-417
-416
-418
-416
-416
-415
-411
-407
-406
-406
-405
-401
-401
-402
-400
-394
-390
-386
-382
-374
-370
-365
-359
-351
-343
-333
-326
-320
-317
-310
-295
-286
-280
-275
-272
-272
-272
-270
-267
-271
-277
-284
-289
-295
-306
-321
-334
-348
-362
-373
-382
-391
-401
-406
-409
-410
-413
-415
-422
-426
-426
-425
-423
-425
-424
-426
-427
-430
-424
-426
-427
-426
-420
-420
-420
-424
-426
-425
-422
-421
-423
-423
-420
-420
-418
-418
-422
-421
-421
-421
-423
-422
-424
-424
-425
-427
-426
-422
-422
-427
-426
-426
-428
-430
-430
-430
-427
-426
-427
-430
-431
-430
-427
-426
-427
-427
-430
-433
-433
-431
-429
-430
-427
-426
-429
-430
-430
-430
-430
-434
-434
-434
-430
-428
-426
-427
-426
-425
-415
-410
-409
-410
-409
-411
-422
-429
-430
-423
-423
-426
-430
-430
-429
-428
-430
-432
-435
-433
-434
-433
-434
-435
-432
-430
-430
-433
-434
-430
-426
-416
-391
-365
-390
-479
-582
-649
-679
-683
-678
-662
-636
-606
-572
-535
-498
-466
-441
-426
-420
-421
-420
-419
-414
-413
-414
-411
-410
-407
-406
-407
-406
-406
-404
-399
-398
-398
-395
-391
-387
-386
-381
-377
-373
-372
-368
-359
-351
-346
-346
-340
-330
-319
-311
-305
-299
-290
-282
-274
-270
-265
-263
-261
-260
-258
-260
-267
-270
-278
-286
-299
-309
-317
-329
-342
-359
-371
-383
-390
-396
-401
-402
-410
-414
-420
-418
-416
-416
-418
-422
-420
-418
-420
-422
-420
-417
-414
-414
-414
-418
-418
-416
-418
-418
-415
-412
-414
-418
-422
-420
-414
-414
-416
-419
-420
-421
-419
-420
-418
-421
-418
-420
-422
-426
-422
-420
-422
-423
-421
-422
-421
-424
-426
-425
-422
-421
-422
-422
-425
-428
-428
-424
-422
-424
-426
-430
-430
-427
-424
-422
-426
-426
-426
-424
-422
-421
-422
-425
-426
-424
-419
-417
-410
-409
-407
-403
-401
-405
-415
-423
-423
-417
-415
-418
-423
-424
-423
-424
-426
-424
-422
-425
-427
-433
-434
-431
-429
-430
-429
-430
-430
-430
-429
-428
-423
-406
-378
-380
-450
-553
-633
-669
-675
-672
-658
-636
-608
-574
-535
-495
-462
-439
-429
-425
-425
-423
-418
-415
-412
-410
-410
-410
-410
-410
-409
-406
-401
-400
-401
-402
-400
-398
-394
-391
-390
-389
-385
-382
-377
-374
-365
-361
-357
-350
-344
-332
-322
-316
-311
-305
-296
-286
-282
-278
-273
-269
-265
-266
-266
-268
-270
-274
-282
-291
-299
-309
-321
-337
-352
-366
-374
-383
-390
-398
-406
-410
-414
-418
-422
-421
-421
-421
-424
-426
-426
-427
-427
-424
-424
-424
-425
-426
-425
-424
-424
-421
-420
-425
-425
-424
-422
-426
-426
-426
-425
-421
-421
-425
-428
-427
-428
-427
-426
-427
-430
-434
-436
-434
-433
-433
-436
-437
-434
-430
-429
-431
-430
-430
-433
-434
-435
-435
-436
-434
-433
-433
-436
-437
-440
-435
-433
-433
-435
-442
-442
-441
-438
-438
-439
-438
-437
-434
-434
-438
-438
-436
-432
-429
-426
-426
-424
-421
-423
-428
-432
-430
-427
-430
-435
-442
-440
-439
-438
-442
-443
-445
-443
-441
-442
-446
-449
-443
-439
-440
-443
-446
-442
-440
-435
-417
-384
-372
-420
-514
-602
-660
-680
-678
-661
-638
-611
-583
-558
-532
-502
-472
-450
-438
-438
-439
-437
-435
-434
-430
-430
-429
-426
-422
-421
-420
-423
-424
-422
-421
-418
-415
-414
-414
-414
-407
-402
-402
-398
-398
-394
-387
-382
-382
-378
-370
-358
-351
-347
-337
-326
-321
-319
-313
-306
-301
-300
-298
-296
-296
-298
-299
-303
-310
-321
-332
-339
-351
-364
-375
-387
-398
-403
-408
-414
-418
-430
-434
-434
-434
-438
-437
-438
-438
-439
-440
-440
-438
-438
-437
-439
-441
-442
-439
-437
-436
-437
-436
-435
-438
-442
-439
-434
-434
-437
-438
-439
-439
-439
-437
-436
-438
-440
-440
-441
-439
-437
-439
-442
-444
-445
-443
-442
-442
-443
-446
-445
-446
-444
-443
-444
-445
-446
-443
-442
-442
-447
-449
-447
-447
-447
-446
-442
-440
-444
-449
-447
-443
-442
-440
-439
-434
-430
-430
-434
-434
-437
-440
-442
-443
-443
-443
-442
-444
-446
-446
-446
-444
-447
-452
-450
-447
-447
-449
-449
-450
-454
-455
-452
-450
-446
-446
-442
-425
-396
-381
-410
-481
-561
-634
-673
-678
-663
-637
-609
-587
-565
-546
-522
-495
-470
-453
-447
-443
-440
-437
-442
-441
-441
-440
-437
-434
-430
-430
-431
-431
-431
-430
-426
-426
-426
-426
-423
-419
-421
-418
-410
-403
-403
-406
-403
-396
-386
-378
-374
-370
-365
-356
-346
-338
-331
-329
-326
-324
-322
-319
-318
-319
-320
-322
-327
-334
-342
-350
-364
-374
-381
-390
-397
-406
-414
-426
-432
-434
-436
-437
-438
-441
-443
-446
-446
-449
-450
-450
-447
-446
-446
-446
-447
-445
-444
-446
-449
-448
-446
-443
-445
-445
-446
-446
-442
-440
-442
-443
-443
-444
-443
-447
-450
-446
-443
-439
-440
-444
-447
-449
-444
-444
-449
-450
-449
-445
-442
-446
-449
-447
-448
-452
-451
-446
-446
-450
-454
-452
-450
-450
-450
-447
-446
-449
-452
-453
-450
-446
-446
-444
-442
-439
-431
-429
-431
-437
-444
-446
-450
-449
-447
-446
-448
-449
-448
-447
-449
-449
-450
-453
-455
-455
-450
-446
-452
-459
-458
-452
-447
-446
-450
-449
-434
-406
-378
-406
-478
-558
-626
-668
-679
-666
-645
-617
-594
-568
-548
-524
-498
-469
-449
-441
-443
-446
-442
-440
-438
-437
-434
-434
-433
-433
-433
-431
-431
-427
-424
-420
-422
-422
-422
-421
-418
-417
-410
-401
-399
-401
-399
-394
-387
-382
-377
-370
-362
-355
-346
-338
-332
-326
-321
-314
-309
-306
-307
-306
-308
-309
-313
-318
-329
-339
-350
-358
-369
-380
-390
-399
-406
-411
-420
-426
-431
-434
-434
-436
-439
-440
-442
-443
-444
-446
-443
-442
-443
-442
-442
-445
-446
-444
-442
-443
-447
-443
-442
-441
-440
-440
-437
-439
-440
-442
-440
-438
-437
-437
-438
-439
-439
-440
-440
-443
-446
-445
-442
-441
-442
-442
-442
-444
-446
-446
-443
-442
-445
-445
-446
-444
-442
-440
-441
-441
-442
-445
-446
-442
-440
-443
-446
-450
-446
-446
-444
-442
-442
-439
-437
-434
-430
-424
-422
-423
-433
-440
-444
-438
-433
-435
-442
-444
-444
-444
-446
-443
-442
-443
-447
-448
-448
-449
-449
-443
-442
-445
-444
-446
-448
-446
-437
-414
-386
-378
-429
-514
-595
-654
-679
-678
-664
-645
-618
-586
-558
-534
-508
-478
-453
-440
-436
-434
-435
-434
-428
-426
-428
-426
-423
-424
-426
-423
-420
-418
-416
-414
-416
-415
-414
-411
-408
-402
-399
-400
-399
-391
-387
-383
-378
-374
-364
-356
-347
-339
-332
-326
-322
-312
-305
-297
-294
-291
-287
-282
-282
-285
-286
-289
-294
-302
-310
-321
-332
-342
-352
-366
-381
-393
-399
-403
-411
-418
-424
-430
-434
-432
-433
-434
-435
-434
-434
-437
-439
-435
-438
-439
-435
-435
-433
-434
-435
-433
-433
-434
-434
-434
-433
-434
-432
-431
-431
-430
-431
-430
-427
-427
-429
-432
-434
-437
-437
-431
-428
-430
-435
-438
-439
-435
-434
-434
-437
-440
-438
-438
-441
-437
-438
-439
-440
-438
-434
-435
-439
-437
-437
-438
-440
-439
-439
-441
-439
-439
-437
-438
-439
-438
-438
-440
-441
-439
-438
-434
-433
-430
-428
-424
-422
-418
-416
-422
-432
-437
-436
-434
-433
-434
-436
-437
-434
-434
-438
-443
-443
-443
-442
-442
-440
-440
-442
-443
-439
-439
-438
-442
-444
-439
-425
-396
-377
-414
-506
-598
-656
-680
-684
-674
-660
-637
-610
-577
-542
-507
-475
-448
-434
-430
-431
-431
-427
-423
-418
-418
-418
-417
-418
-417
-415
-411
-407
-408
-409
-409
-407
-402
-396
-394
-394
-391
-389
-386
-381
-378
-373
-365
-356
-350
-346
-339
-330
-321
-313
-307
-300
-295
-290
-283
-278
-276
-271
-268
-270
-273
-281
-282
-286
-292
-302
-314
-326
-340
-351
-366
-378
-386
-388
-395
-404
-414
-421
-423
-419
-420
-421
-424
-426
-427
-426
-426
-429
-430
-429
-427
-427
-430
-426
-424
-422
-422
-421
-421
-422
-422
-424
-424
-424
-424
-422
-423
-425
-424
-424
-421
-418
-425
-427
-427
-427
-430
-426
-427
-428
-430
-429
-426
-427
-429
-430
-433
-430
-427
-429
-430
-431
-430
-431
-430
-429
-431
-434
-434
-432
-430
-430
-433
-431
-430
-434
-437
-435
-433
-431
-430
-432
-434
-439
-437
-437
-436
-436
-437
-434
-434
-434
-436
-434
-433
-434
-436
-434
-434
-434
-436
-431
-422
-415
-414
-415
-414
-418
-424
-430
-430
-426
-424
-427
-432
-434
-434
-434
-431
-434
-435
-436
-439
-439
-437
-436
-434
-436
-437
-438
-439
-436
-438
-438
-430
-412
-386
-385
-448
-551
-634
-670
-678
-674
-660
-640
-614
-581
-542
-506
-471
-446
-430
-426
-427
-428
-426
-422
-420
-418
-418
-414
-414
-412
-410
-410
-408
-407
-409
-407
-402
-398
-392
-395
-393
-390
-387
-382
-379
-374
-369
-363
-359
-354
-350
-340
-330
-320
-314
-308
-302
-294
-286
-282
-280
-277
-274
-270
-270
-270
-273
-278
-283
-289
-297
-306
-322
-337
-348
-361
-374
-384
-391
-396
-401
-410
-414
-415
-418
-418
-426
-427
-424
-423
-423
-425
-424
-421
-420
-424
-426
-425
-425
-422
-421
-420
-420
-425
-425
-424
-424
-424
-422
-417
-418
-425
-428
-427
-424
-424
-424
-426
-426
-425
-424
-427
-427
-428
-427
-427
-430
-438
-435
-433
-430
-432
-434
-434
-433
-432
-431
-431
-430
-434
-435
-435
-434
-436
-437
-435
-433
-430
-430
-434
-436
-434
-434
-438
-440
-439
-438
-437
-438
-438
-436
-438
-439
-437
-436
-439
-442
-439
-436
-438
-437
-437
-438
-441
-442
-438
-439
-440
-440
-439
-439
-439
-437
-438
-441
-440
-439
-438
-440
-442
-434
-427
-424
-424
-423
-422
-424
-431
-434
-434
-433
-430
-431
-436
-440
-438
-435
-435
-437
-439
-442
-446
-443
-444
-442
-444
-446
-441
-440
-440
-440
-446
-446
-438
-417
-387
-380
-434
-532
-615
-662
-679
-674
-659
-638
-614
-584
-553
-523
-498
-473
-449
-437
-434
-430
-435
-434
-431
-428
-425
-426
-426
-422
-419
-416
-415
-415
-414
-414
-415
-414
-414
-411
-403
-400
-399
-399
-397
-393
-393
-388
-380
-370
-366
-362
-357
-350
-343
-336
-326
-318
-314
-309
-303
-299
-295
-290
-287
-287
-289
-291
-289
-293
-300
-309
-319
-330
-342
-352
-364
-370
-378
-386
-396
-406
-414
-420
-422
-423
-427
-431
-431
-431
-432
-433
-432
-431
-431
-430
-432
-431
-430
-430
-431
-433
-434
-434
-434
-432
-433
-430
-429
-430
-430
-434
-434
-438
-438
-434
-431
-430
-434
-437
-436
-437
-437
-437
-439
-442
-446
-443
-440
-438
-439
-440
-443
-446
-446
-439
-440
-444
-447
-449
-447
-444
-442
-443
-445
-449
-448
-443
-444
-446
-446
-446
-446
-450
-450
-447
-445
-445
-445
-449
-450
-448
-446
-446
-446
-443
-447
-446
-450
-452
-454
-452
-446
-445
-446
-450
-452
-450
-446
-442
-441
-437
-434
-434
-434
-431
-433
-439
-446
-449
-442
-439
-441
-444
-447
-446
-446
-445
-446
-452
-453
-447
-444
-447
-454
-455
-452
-450
-451
-447
-448
-450
-450
-444
-431
-408
-381
-383
-439
-522
-602
-659
-679
-676
-654
-626
-600
-581
-564
-541
-514
-488
-466
-450
-442
-442
-441
-441
-439
-435
-434
-431
-434
-434
-430
-430
-431
-430
-429
-426
-421
-423
-425
-424
-422
-416
-416
-411
-408
-404
-401
-402
-398
-392
-386
-380
-375
-370
-359
-350
-343
-338
-334
-329
-322
-315
-311
-311
-310
-309
-310
-314
-316
-318
-323
-333
-342
-351
-358
-370
-384
-394
-402
-407
-414
-423
-427
-434
-433
-434
-435
-436
-439
-439
-442
-442
-442
-438
-438
-443
-446
-443
-442
-438
-437
-437
-441
-443
-442
-440
-437
-438
-437
-437
-438
-442
-440
-436
-437
-438
-440
-442
-444
-444
-443
-442
-441
-440
-440
-445
-446
-446
-445
-446
-447
-443
-444
-446
-445
-446
-448
-450
-450
-449
-449
-450
-450
-450
-450
-449
-446
-446
-447
-450
-450
-450
-449
-449
-450
-450
-450
-452
-450
-450
-450
-452
-450
-447
-446
-449
-452
-450
-446
-439
-435
-434
-440
-437
-433
-433
-435
-440
-438
-436
-440
-446
-448
-446
-446
-446
-448
-449
-450
-450
-453
-455
-453
-450
-449
-450
-452
-451
-449
-446
-448
-443
-426
-398
-373
-392
-460
-543
-620
-667
-680
-667
-645
-619
-595
-574
-554
-532
-506
-481
-457
-443
-441
-440
-439
-437
-435
-434
-434
-434
-430
-428
-425
-423
-426
-430
-430
-423
-420
-421
-418
-412
-410
-411
-411
-409
-405
-403
-399
-396
-389
-386
-382
-374
-367
-361
-351
-344
-338
-335
-326
-314
-309
-306
-305
-301
-298
-298
-298
-300
-300
-305
-310
-317
-329
-336
-348
-361
-374
-386
-394
-401
-406
-410
-417
-421
-426
-430
-435
-434
-435
-437
-438
-436
-434
-434
-435
-439
-438
-437
-434
-435
-437
-439
-436
-434
-434
-434
-437
-433
-432
-434
-433
-434
-434
-433
-430
-430
-435
-434
-434
-433
-431
-430
-430
-435
-438
-436
-436
-437
-438
-438
-439
-437
-438
-437
-435
-435
-438
-442
-439
-439
-438
-435
-439
-444
-439
-436
-434
-437
-441
-440
-442
-446
-444
-443
-440
-436
-434
-438
-443
-444
-444
-441
-440
-439
-437
-437
-438
-438
-433
-427
-423
-421
-418
-421
-430
-434
-434
-431
-433
-434
-437
-438
-438
-439
-439
-440
-438
-437
-442
-444
-446
-440
-439
-440
-441
-439
-436
-438
-440
-440
-436
-418
-390
-370
-406
-487
-577
-644
-679
-683
-674
-654
-626
-597
-570
-542
-514
-485
-455
-435
-427
-429
-430
-427
-426
-425
-422
-420
-419
-420
-417
-414
-412
-418
-415
-411
-409
-403
-404
-404
-401
-397
-390
-390
-389
-386
-381
-380
-378
-370
-362
-358
-354
-346
-335
-325
-314
-306
-298
-293
-288
-285
-279
-274
-273
-270
-270
-274
-279
-286
-288
-295
-303
-314
-325
-342
-354
-365
-374
-384
-394
-400
-408
-414
-417
-420
-421
-423
-422
-422
-430
-434
-434
-430
-427
-427
-428
-429
-427
-424
-424
-425
-423
-421
-421
-422
-423
-424
-422
-421
-422
-424
-425
-424
-423
-422
-422
-426
-426
-424
-424
-422
-426
-428
-427
-426
-422
-427
-428
-426
-426
-427
-428
-427
-426
-425
-427
-433
-434
-430
-426
-425
-431
-434
-432
-431
-431
-430
-430
-430
-430
-432
-432
-433
-431
-428
-428
-430
-430
-430
-431
-433
-434
-434
-429
-430
-427
-421
-412
-410
-410
-410
-410
-414
-423
-427
-425
-422
-421
-426
-430
-430
-428
-427
-428
-430
-431
-434
-437
-434
-430
-427
-433
-436
-438
-434
-434
-430
-428
-427
-418
-396
-370
-400
-491
-593
-654
-680
-684
-674
-660
-635
-604
-570
-532
-497
-467
-443
-427
-423
-418
-417
-417
-418
-418
-415
-411
-410
-409
-406
-407
-407
-406
-404
-401
-402
-399
-396
-392
-387
-386
-383
-382
-378
-377
-372
-362
-357
-355
-350
-341
-332
-321
-312
-302
-296
-293
-286
-282
-277
-272
-266
-265
-263
-262
-263
-263
-266
-270
-278
-290
-302
-310
-321
-334
-349
-362
-374
-380
-390
-397
-401
-406
-410
-414
-418
-420
-419
-422
-424
-426
-424
-424
-423
-420
-424
-425
-425
-422
-416
-418
-419
-420
-418
-416
-417
-414
-414
-418
-421
-422
-418
-418
-418
-420
-419
-418
-417
-420
-424
-427
-425
-422
-421
-422
-422
-422
-424
-427
-425
-424
-423
-426
-427
-427
-426
-429
-426
-424
-424
-425
-427
-427
-430
-427
-425
-426
-427
-427
-429
-429
-430
-431
-427
-425
-427
-430
-430
-432
-429
-426
-423
-418
-414
-413
-411
-406
-402
-405
-412
-421
-424
-424
-423
-426
-425
-424
-424
-426
-429
-432
-430
-426
-430
-434
-434
-431
-430
-431
-433
-437
-436
-429
-424
-426
-423
-406
-377
-383
-455
-557
-634
-670
-680
-675
-664
-644
-615
-579
-542
-505
-469
-438
-422
-423
-424
-423
-420
-417
-414
-414
-414
-413
-409
-407
-402
-405
-405
-403
-402
-394
-394
-393
-394
-392
-388
-387
-386
-381
-374
-368
-363
-359
-355
-352
-349
-340
-330
-321
-314
-306
-298
-288
-283
-278
-272
-268
-266
-262
-262
-266
-270
-272
-273
-280
-291
-304
-312
-321
-330
-345
-360
-372
-385
-394
-400
-406
-408
-410
-411
-418
-422
-423
-422
-421
-421
-420
-420
-423
-425
-425
-421
-418
-418
-420
-421
-420
-420
-420
-420
-418
-418
-418
-417
-418
-422
-425
-424
-422
-420
-420
-420
-422
-423
-420
-423
-422
-422
-427
-433
-429
-425
-424
-423
-422
-428
-432
-433
-430
-428
-427
-426
-428
-433
-434
-430
-426
-426
-430
-430
-430
-430
-430
-433
-434
-433
-430
-430
-433
-432
-431
-430
-432
-433
-431
-430
-431
-434
-438
-439
-434
-427
-418
-414
-416
-414
-416
-420
-426
-429
-428
-426
-426
-428
-431
-433
-432
-433
-433
-436
-438
-437
-437
-437
-439
-439
-440
-440
-438
-435
-436
-435
-434
-431
-423
-402
-377
-385
-452
-548
-625
-666
-676
-667
-651
-628
-601
-577
-548
-516
-485
-462
-447
-435
-430
-434
-435
-434
-427
-423
-422
-422
-420
-417
-414
-415
-414
-411
-411
-410
-409
-409
-408
-406
-402
-401
-402
-399
-398
-392
-386
-381
-376
-373
-368
-358
-352
-346
-339
-331
-321
-316
-311
-306
-298
-294
-292
-290
-290
-288
-286
-282
-283
-290
-297
-302
-314
-326
-339
-350
-363
-374
-383
-390
-399
-406
-411
-418
-421
-423
-428
-431
-433
-431
-432
-434
-437
-437
-431
-430
-430
-430
-434
-434
-432
-427
-428
-430
-432
-433
-433
-430
-428
-425
-426
-431
-431
-434
-435
-434
-431
-430
-434
-435
-434
-433
-434
-434
-434
-437
-438
-439
-439
-437
-436
-434
-436
-439
-442
-439
-436
-437
-440
-440
-444
-443
-444
-442
-441
-442
-441
-439
-442
-446
-445
-442
-441
-442
-443
-442
-440
-442
-442
-440
-438
-436
-434
-430
-430
-430
-429
-434
-440
-443
-441
-437
-439
-442
-446
-443
-443
-443
-442
-444
-446
-450
-451
-447
-449
-450
-448
-450
-447
-450
-449
-447
-446
-442
-433
-409
-381
-385
-441
-525
-606
-661
-681
-674
-654
-631
-605
-583
-558
-533
-508
-482
-458
-443
-441
-442
-440
-437
-435
-434
-434
-434
-433
-429
-427
-424
-423
-426
-431
-432
-425
-422
-421
-420
-417
-418
-414
-410
-406
-402
-398
-393
-393
-389
-386
-380
-378
-370
-356
-345
-338
-337
-335
-329
-322
-316
-313
-309
-310
-311
-312
-316
-321
-327
-333
-340
-352
-366
-380
-390
-399
-404
-414
-423
-426
-430
-434
-439
-444
-446
-444
-446
-445
-442
-447
-453
-457
-452
-451
-450
-450
-450
-450
-449
-450
-446
-444
-446
-449
-452
-449
-449
-450
-445
-443
-443
-443
-444
-442
-446
-450
-452
-453
-453
-450
-446
-446
-446
-451
-446
-448
-449
-452
-452
-447
-443
-444
-447
-450
-449
-449
-448
-450
-453
-452
-446
-444
-446
-447
-450
-450
-453
-454
-450
-446
-450
-454
-450
-443
-437
-431
-430
-433
-437
-442
-446
-450
-449
-441
-441
-456
-456
-451
-446
-444
-449
-457
-462
-458
-454
-454
-453
-452
-450
-450
-453
-454
-453
-454
-453
-452
-443
-416
-392
-395
-430
-484
-550
-609
-648
-654
-634
-606
-585
-571
-565
-554
-523
-492
-465
-453
-453
-454
-452
-450
-446
-444
-444
-439
-437
-439
-439
-437
-435
-438
-442
-442
-439
-434
-434
-434
-430
-427
-427
-430
-433
-431
-425
-421
-416
-411
-407
-400
-393
-386
-380
-375
-371
-364
-355
-346
-342
-339
-335
-328
-328
-330
-330
-327
-329
-342
-355
-366
-374
-382
-391
-402
-410
-415
-424
-438
-446
-454
-457
-459
-466
-471
-472
-474
-485
-496
-498
-494
-486
-484
-481
-475
-471
-483
-488
-482
-478
-476
-471
-475
-482
-487
-489
-488
-488
-487
-490
-495
-498
-490
-486
-483
-474
-474
-474
-477
-475
-470
-463
-454
-451
-462
-475
-479
-481
-479
-478
-482
-484
-474
-464
-471
-494
-505
-500
-490
-475
-470
-476
-477
-471
-467
-466
-466
-475
-479
-474
-474
-481
-484
-478
-468
-459
-458
-452
-447
-449
-458
-471
-478
-472
-467
-472
-476
-471
-467
-472
-482
-486
-491
-490
-490
-488
-486
-481
-479
-482
-484
-482
-478
-471
-468
-471
-465
-440
-409
-414
-486
-587
-655
-681
-686
-683
-674
-655
-631
-599
-562
-526
-498
-478
-465
-458
-459
-462
-458
-453
-450
-455
-459
-451
-442
-443
-442
-438
-433
-430
-426
-427
-426
-421
-420
-420
-421
-418
-414
-408
-402
-396
-390
-386
-383
-376
-366
-358
-350
-343
-332
-324
-314
-310
-303
-297
-290
-286
-282
-281
-280
-281
-284
-290
-296
-305
-314
-326
-338
-352
-369
-382
-394
-404
-412
-422
-427
-427
-428
-430
-435
-439
-440
-439
-442
-442
-442
-442
-443
-443
-442
-439
-442
-443
-444
-442
-437
-440
-442
-444
-437
-430
-429
-434
-446
-452
-446
-438
-435
-440
-444
-442
-439
-439
-442
-446
-450
-449
-444
-438
-438
-438
-439
-443
-447
-440
-432
-431
-434
-440
-443
-443
-439
-437
-440
-445
-448
-446
-446
-448
-443
-442
-440
-439
-437
-435
-434
-425
-418
-418
-425
-432
-439
-442
-442
-441
-443
-443
-442
-442
-443
-443
-449
-448
-442
-445
-451
-452
-447
-440
-441
-442
-446
-449
-450
-449
-442
-430
-414
-387
-380
-424
-511
-594
-655
-680
-677
-658
-633
-603
-580
-559
-539
-510
-480
-458
-447
-443
-441
-440
-437
-433
-428
-427
-430
-426
-422
-421
-421
-424
-425
-422
-419
-415
-414
-414
-414
-414
-412
-406
-402
-406
-403
-394
-384
-375
-374
-372
-363
-355
-343
-334
-330
-326
-321
-312
-308
-302
-298
-293
-291
-292
-291
-294
-298
-303
-307
-313
-322
-334
-345
-356
-366
-379
-389
-398
-405
-414
-422
-425
-426
-425
-428
-433
-435
-434
-434
-438
-438
-439
-441
-438
-438
-437
-435
-437
-438
-437
-434
-433
-434
-433
-433
-434
-434
-433
-431
-432
-433
-434
-434
-434
-432
-429
-431
-434
-436
-434
-434
-435
-437
-434
-433
-434
-436
-434
-434
-434
-436
-438
-439
-439
-441
-437
-438
-436
-435
-437
-436
-433
-426
-421
-422
-424
-421
-420
-422
-425
-430
-431
-431
-431
-434
-438
-441
-440
-437
-437
-440
-442
-446
-446
-445
-442
-440
-442
-441
-437
-439
-443
-446
-442
-426
-395
-362
-378
-446
-538
-614
-662
-676
-673
-656
-630
-598
-574
-554
-532
-509
-481
-454
-440
-437
-439
-437
-427
-424
-427
-431
-430
-424
-421
-423
-424
-423
-422
-418
-414
-417
-421
-420
-414
-409
-402
-401
-401
-399
-394
-392
-393
-386
-374
-365
-358
-356
-351
-342
-332
-322
-315
-308
-305
-304
-299
-294
-288
-288
-290
-292
-293
-295
-300
-309
-321
-332
-342
-352
-365
-374
-385
-402
-409
-406
-409
-418
-426
-430
-430
-431
-431
-434
-433
-432
-442
-444
-442
-439
-437
-438
-434
-437
-438
-434
-433
-434
-436
-437
-430
-428
-433
-439
-435
-429
-431
-437
-437
-433
-430
-431
-434
-435
-433
-429
-430
-434
-437
-437
-439
-442
-441
-433
-428
-432
-438
-439
-430
-426
-431
-438
-439
-439
-433
-430
-423
-422
-422
-422
-414
-416
-424
-433
-430
-424
-422
-426
-433
-436
-438
-439
-437
-438
-439
-439
-440
-444
-448
-447
-442
-441
-442
-439
-436
-434
-438
-440
-434
-416
-386
-370
-411
-498
-589
-654
-679
-681
-674
-658
-634
-607
-578
-546
-516
-490
-465
-441
-429
-431
-433
-431
-426
-423
-426
-426
-424
-422
-418
-417
-417
-418
-411
-410
-410
-411
-412
-414
-410
-406
-399
-390
-387
-386
-382
-375
-370
-364
-362
-358
-350
-345
-332
-323
-316
-313
-307
-295
-286
-284
-281
-275
-273
-274
-274
-278
-281
-286
-295
-305
-313
-326
-341
-354
-367
-377
-382
-390
-402
-410
-411
-418
-424
-424
-425
-426
-424
-425
-428
-433
-433
-430
-427
-430
-434
-430
-431
-430
-433
-430
-430
-430
-427
-423
-423
-427
-430
-429
-427
-424
-427
-428
-427
-429
-430
-431
-430
-430
-428
-430
-434
-433
-433
-432
-433
-434
-434
-433
-430
-430
-430
-432
-432
-430
-423
-416
-414
-417
-414
-411
-414
-421
-430
-429
-426
-426
-430
-431
-430
-430
-430
-434
-434
-435
-434
-437
-439
-440
-442
-441
-436
-431
-433
-438
-442
-438
-426
-407
-379
-380
-446
-544
-623
-665
-679
-676
-664
-644
-616
-588
-553
-517
-490
-466
-442
-431
-427
-426
-429
-430
-424
-418
-414
-415
-418
-418
-414
-412
-414
-414
-410
-406
-407
-407
-403
-398
-398
-398
-394
-389
-386
-378
-368
-364
-366
-365
-354
-340
-334
-326
-321
-312
-304
-298
-290
-280
-274
-273
-274
-274
-272
-273
-275
-282
-291
-298
-303
-311
-325
-339
-351
-358
-366
-378
-389
-398
-406
-410
-414
-419
-424
-424
-423
-426
-427
-427
-426
-424
-426
-428
-430
-427
-424
-423
-426
-423
-421
-419
-424
-425
-423
-422
-418
-422
-421
-420
-422
-428
-430
-429
-424
-422
-421
-426
-430
-431
-430
-428
-427
-426
-423
-424
-428
-430
-433
-432
-430
-425
-424
-422
-418
-412
-409
-409
-406
-403
-408
-418
-426
-427
-421
-419
-423
-424
-427
-428
-433
-433
-429
-426
-430
-433
-436
-437
-437
-435
-437
-437
-433
-429
-426
-428
-422
-401
-370
-375
-450
-559
-638
-677
-684
-678
-663
-642
-613
-579
-542
-510
-479
-452
-431
-423
-421
-421
-423
-423
-414
-410
-407
-410
-414
-414
-414
-412
-410
-409
-407
-408
-406
-406
-402
-398
-394
-388
-383
-378
-377
-373
-370
-366
-359
-353
-342
-335
-326
-321
-316
-307
-302
-294
-285
-278
-273
-274
-273
-270
-270
-270
-270
-274
-281
-290
-302
-312
-326
-338
-349
-358
-370
-386
-393
-398
-401
-407
-414
-421
-423
-424
-423
-424
-425
-422
-418
-418
-418
-423
-425
-422
-421
-420
-416
-417
-418
-421
-421
-423
-424
-423
-421
-418
-420
-425
-424
-420
-422
-430
-427
-425
-423
-421
-424
-426
-425
-426
-428
-429
-426
-425
-427
-431
-430
-429
-426
-428
-427
-424
-420
-414
-412
-410
-409
-403
-407
-414
-421
-425
-422
-421
-424
-426
-426
-427
