-79
-84
-81
-83
-78
-80
-78
-78
-79
-82
-82
-77
-76
-72
-74
-72
-75
-76
-76
-71
-71
-69
-71
-74
-76
-75
-77
-74
-75
-70
-69
-74
-76
-78
-80
-79
-76
-74
-74
-76
-77
-80
-77
-77
-76
-77
-75
-73
-75
-78
-77
-82
-78
-78
-74
-76
-76
-79
-82
-82
-81
-78
-76
-75
-80
-80
-82
-85
-82
-81
-79
-77
-75
-76
-79
-77
-82
-79
-75
-73
-72
-74
-77
-81
-84
-83
-78
-72
-71
-76
-79
-81
-79
-82
-79
-77
-74
-72
-74
-76
-77
-77
-74
-72
-68
-69
-70
-72
-75
-76
-76
-73
-72
-70
-72
-77
-75
-79
-77
-74
-73
-70
-73
-72
-76
-76
-80
-77
-76
-71
-72
-75
-79
-81
-81
-78
-76
-74
-68
-66
-63
-60
-58
-57
-55
-52
-51
-53
-55
-62
-63
-69
-70
-72
-72
-71
-74
-80
-80
-82
-83
-81
-78
-79
-81
-80
-84
-87
-86
-83
-80
-78
-80
-83
-82
-78
-23
33
90
144
177
175
131
52
-44
-112
-129
-106
-78
-60
-64
-74
-77
-77
-77
-73
-72
-72
-76
-77
-79
-76
-77
-74
-73
-72
-76
-78
-78
-78
-78
-72
-72
-69
-69
-67
-70
-71
-67
-64
-57
-56
-53
-54
-53
-53
-54
-53
-46
-43
-39
-39
-39
-39
-40
-35
-31
-23
-18
-19
-17
-16
-13
-6
-3
3
8
10
13
16
17
16
20
24
28
28
27
27
20
13
10
8
2
-4
-13
-23
-30
-39
-44
-53
-57
-62
-65
-72
-75
-76
-83
-86
-83
-84
-84
-89
-91
-94
-95
-94
-92
-89
-90
-88
-92
-97
-94
-91
-90
-87
-84
-86
-85
-90
-90
-92
-90
-89
-84
-85
-85
-87
-89
-89
-89
-87
-87
-84
-85
-88
-92
-91
-90
-89
-88
-87
-89
-88
-91
-93
-97
-95
-92
-90
-91
-92
-94
-99
-98
-98
-95
-94
-92
-95
-95
-99
-102
-100
-98
-94
-93
-95
-92
-97
-98
-100
-99
-93
-92
-93
-98
-96
-102
-103
-100
-99
-98
-95
-96
-99
-99
-102
-103
-100
-98
-94
-97
-96
-101
-101
-100
-97
-97
-94
-95
-94
-100
-100
-101
-100
-98
-99
-96
-97
-99
-100
-102
-104
-102
-101
-98
-97
-99
-102
-103
-105
-103
-99
-97
-96
-97
-97
-96
-96
-96
-96
-92
-92
-95
-94
-96
-101
-100
-98
-94
-91
-96
-96
-99
-99
-104
-101
-94
-92
-91
-88
-88
-87
-82
-75
-73
-69
-66
-69
-70
-75
-79
-81
-83
-81
-86
-90
-89
-93
-93
-98
-95
-95
-92
-96
-98
-99
-101
-102
-101
-99
-94
-93
-93
-100
-95
-73
-37
15
69
133
186
206
179
164
22
-63
-104
-105
-83
-70
-72
-79
-87
-87
-89
-86
-88
-87
-92
-91
-95
-95
-92
-89
-88
-86
-87
-88
-90
-92
-90
-86
-82
-77
-80
-85
-85
-86
-85
-79
-77
-75
-74
-75
-79
-82
-78
-76
-72
-68
-64
-67
-65
-65
-59
-55
-47
-42
-39
-38
-39
-37
-34
-31
-23
-18
-13
-9
-11
-13
-11
-7
-1
0
5
7
5
3
1
0
-3
-2
-5
-9
-17
-26
-35
-41
-48
-50
-50
-56
-62
-69
-79
-81
-82
-84
-82
-84
-83
-87
-92
-94
-95
-94
-92
-90
-87
-91
-91
-96
-95
-97
-93
-89
-86
-87
-88
-89
-90
-93
-89
-86
-86
-84
-87
-88
-88
-87
-87
-84
-81
-84
-84
-86
-88
-88
-88
-84
-84
-82
-83
-86
-86
-92
-93
-92
-88
-84
-84
-87
-88
-88
-91
-89
-85
-83
-82
-86
-83
-89
-90
-91
-91
-87
-82
-86
-85
-90
-90
-91
-88
-85
-86
-84
-85
-88
-91
-91
-88
-84
-82
-81
-83
-86
-87
-87
-83
-84
-82
-80
-84
-84
-87
-89
-91
-87
-84
-80
-81
-83
-87
-88
-90
-88
-84
-81
-81
-80
-79
-84
-83
-80
-78
-74
-75
-78
-82
-80
-85
-86
-81
-79
-77
-75
-79
-82
-81
-87
-84
-77
-77
-77
-76
-79
-79
-83
-80
-78
-77
-73
-76
-78
-79
-86
-86
-81
-75
-73
-71
-67
-65
-62
-59
-57
-53
-50
-48
-50
-58
-63
-68
-72
-72
-71
-68
-72
-73
-80
-81
-83
-81
-78
-76
-75
-75
-78
-80
-82
-83
-79
-77
-74
-75
-78
-66
-41
5
54
109
148
162
136
72
-22
-105
-151
-145
-112
-82
-71
-73
-75
-77
-75
-68
-67
-66
-72
-74
-76
-77
-74
-70
-69
-68
-67
-65
-67
-67
-69
-70
-66
-60
-58
-59
-61
-61
-60
-54
-51
-49
-43
-46
-48
-45
-47
-45
-38
-35
-32
-29
-31
-29
-29
-24
-19
-13
-8
-4
-3
-3
-3
2
6
13
21
30
31
30
33
36
37
40
41
42
39
36
32
26
19
11
5
-3
-10
-22
-34
-37
-52
-59
-60
-64
-68
-73
-79
-85
-89
-93
-91
-87
-85
-85
-89
-94
-93
-94
-86
-89
-88
-86
-88
-92
-93
-94
-94
-91
-88
-86
-89
-89
-92
-92
-91
-89
-86
-83
-86
-87
-87
-89
-92
-87
-83
-82
-83
-83
-87
-92
-92
-92
-89
-89
-86
-90
-91
-95
-98
-94
-96
-90
-90
-91
-94
-94
-97
-98
-95
-93
-89
-90
-92
-94
-95
-98
-96
-94
-92
-88
-91
-95
-99
-99
-101
-98
-95
-93
-97
-98
-101
-103
-100
-100
-97
-94
-96
-97
-99
-100
-103
-102
-99
-93
-93
-91
-96
-96
-100
-103
-101
-100
-96
-96
-102
-103
-105
-106
-104
-99
-96
-95
-97
-100
-102
-103
-102
-97
-94
-93
-96
-99
-101
-101
-100
-98
-96
-93
-92
-95
-99
-99
-100
-98
-97
-95
-95
-99
-98
-99
-101
-101
-100
-98
-95
-97
-101
-102
-103
-107
-103
-99
-95
-95
-92
-89
-87
-80
-80
-75
-72
-70
-76
-76
-77
-83
-85
-83
-86
-85
-93
-95
-98
-99
-99
-100
-98
-99
-97
-102
-105
-107
-108
-104
-100
-99
-98
-98
-100
-101
-101
-83
-45
10
71
135
194
216
189
113
12
-74
-111
-106
-83
-70
-76
-88
-93
-93
-96
-94
-94
-98
-100
-100
-102
-99
-93
-93
-94
-95
-100
-100
-98
-96
-91
-91
-91
-92
-93
-97
-96
-94
-90
-88
-86
-88
-86
-84
-87
-88
-81
-73
-73
-69
-71
-73
-71
-70
-64
-59
-54
-50
-50
-47
-46
-43
-38
-32
-28
-21
-19
-18
-18
-18
-11
-9
-5
-1
-3
-4
-7
-8
-16
-16
-16
-17
-26
-33
-44
-51
-60
-67
-71
-76
-80
-89
-91
-94
-102
-106
-107
-103
-105
-108
-110
-113
-114
-119
-117
-113
-114
-116
-116
-118
-123
-120
-119
-118
-114
-113
-113
-113
-116
-117
-115
-112
-109
-105
-109
-109
-112
-112
-116
-113
-110
-106
-109
-110
-110
-113
-114
-113
-111
-107
-108
-108
-113
-112
-115
-114
-111
-109
-105
-108
-112
-113
-115
-115
-116
-112
-110
-111
-113
-120
-119
-120
-120
-117
-114
-113
-113
-115
-116
-118
-119
-115
-113
-109
-113
-113
-116
-120
-119
-118
-115
-111
-111
-113
-116
-119
-121
-121
-115
-114
-115
-114
-117
-120
-119
-120
-118
-114
-112
-114
-119
-118
-118
-117
-115
-114
-110
-111
-112
-118
-120
-117
-116
-115
-110
-110
-113
-114
-117
-118
-118
-118
-114
-111
-112
-116
-117
-118
-117
-115
-113
-112
-112
-113
-117
-118
-116
-116
-110
-109
-108
-104
-111
-113
-115
-114
-114
-111
-110
-110
-111
-110
-115
-117
-120
-116
-113
-110
-108
-106
-106
-101
-99
-89
-83
-79
-81
-83
-85
-90
-91
-93
-92
-95
-100
-105
-108
-108
-112
-110
-108
-111
-110
-111
-112
-113
-116
-113
-109
-107
-110
-110
-111
-112
-116
-104
-74
-30
26
77
122
143
136
85
3
-86
-150
-160
-132
-108
-97
-100
-102
-102
-99
-98
-100
-102
-103
-107
-105
-104
-101
-96
-96
-95
-98
-100
-100
-97
-95
-91
-88
-89
-90
-92
-93
-92
-86
-81
-83
-81
-81
-82
-82
-78
-78
-73
-70
-67
-66
-65
-63
-57
-54
-50
-45
-39
-37
-37
-31
-28
-23
-16
-11
-5
-3
0
0
3
3
11
16
20
21
19
18
13
10
6
2
-1
-12
-18
-28
-40
-46
-55
-60
-63
-69
-77
-82
-86
-95
-98
-98
-100
-97
-104
-107
-109
-109
-112
-112
-109
-109
-111
-110
-112
-115
-117
-114
-113
-108
-106
-104
-108
-111
-114
-108
-107
-104
-103
-103
-105
-108
-111
-111
-109
-106
-104
-106
-106
-108
-110
-113
-114
-111
-109
-108
-107
-110
-111
-116
-115
-112
-109
-107
-110
-113
-114
-116
-116
-117
-113
-111
-110
-113
-117
-119
-124
-122
-119
-118
-115
-112
-115
-117
-118
-120
-116
-118
-115
-115
-115
-116
-122
-118
-116
-111
-112
-109
-112
-113
-118
-116
-116
-114
-114
-112
-112
-116
-116
-119
-119
-117
-113
-114
-112
-114
-116
-119
-116
-115
-113
-111
-111
-112
-114
-116
-115
-117
-115
-110
-108
-110
-113
-115
-117
-119
-116
-114
-112
-112
-113
-117
-118
-120
-117
-115
-112
-112
-114
-114
-117
-119
-117
-115
-112
-114
-116
-117
-115
-117
-115
-109
-101
-95
-92
-91
-93
-98
-96
-95
-92
-94
-96
-99
-107
-109
-116
-114
-113
-113
-112
-118
-117
-116
-120
-123
-118
-115
-114
-115
-114
-118
-121
-122
-122
-118
-119
-109
-85
-45
7
63
125
172
185
149
79
-16
-46
-144
-137
-112
-98
-91
-96
-105
-111
-114
-116
-115
-110
-109
-108
-112
-116
-116
-114
-116
-114
-113
-114
-112
-113
-111
-114
-115
-114
-108
-106
-105
-106
-108
-110
-108
-107
-101
-98
-92
-92
-95
-95
-93
-89
-84
-82
-76
-78
-79
-78
-79
-76
-68
-64
-58
-54
-54
-52
-50
-46
-41
-34
-29
-23
-23
-24
-22
-21
-20
-16
-13
-11
-14
-20
-23
-38
-41
-47
-54
-62
-70
-75
-88
-97
-102
-108
-108
-110
-115
-117
-125
-128
-130
-131
-126
-127
-126
-126
-131
-134
-136
-134
-132
-129
-128
-128
-132
-134
-136
-135
-135
-131
-129
-128
-130
-133
-132
-135
-135
-132
-130
-126
-128
-131
-132
-132
-133
-128
-128
-125
-126
-129
-129
-133
-135
-135
-132
-129
-130
-132
-135
-136
-138
-137
-134
-131
-134
-132
-133
-135
-142
-141
-138
-135
-131
-132
-133
-137
-135
-139
-138
-135
-132
-131
-132
-137
-138
-141
-139
-135
-136
-135
-133
-138
-141
-141
-143
-137
-135
-133
-136
-135
-139
-140
-142
-142
-135
-134
-135
-135
-138
-140
-140
-140
-138
-134
-134
-135
-135
-137
-140
-141
-140
-138
-137
-135
-134
-141
-143
-142
-142
-139
-136
-137
-137
-143
-144
-144
-143
-141
-136
-135
-136
-137
-140
-142
-143
-139
-138
-135
-136
-136
-138
-142
-145
-142
-138
-134
-136
-140
-141
-144
-146
-143
-138
-135
-131
-127
-127
-126
-122
-120
-117
-112
-110
-110
-113
-116
-119
-119
-125
-125
-129
-132
-134
-136
-140
-144
-140
-141
-140
-140
-142
-145
-146
-148
-149
-145
-143
-137
-140
-141
-146
-145
-125
-88
-35
24
81
135
161
135
72
-20
-105
-151
-150
-128
-115
-113
-122
-130
-129
-128
-129
-130
-132
-134
-137
-139
-135
-132
-131
-132
-128
-127
-132
-132
-134
-128
-125
-123
-121
-122
-121
-126
-125
-124
-119
-116
-115
-113
-117
-115
-114
-112
-107
-101
-102
-98
-98
-100
-97
-94
-89
-84
-79
-79
-73
-72
-70
-67
-60
-57
-47
-47
-44
-45
-43
-40
-37
-31
-26
-24
-21
-25
-28
-30
-32
-30
-35
-39
-43
-53
-56
-68
-76
-85
-85
-90
-94
-104
-111
-120
-123
-125
-127
-124
-121
-126
-131
-133
-135
-136
-134
-131
-128
-129
-132
-133
-135
-136
-135
-129
-131
-129
-128
-130
-133
-132
-134
-133
-132
-128
-132
-132
-135
-137
-135
-134
-128
-125
-130
-128
-131
-133
-136
-136
-131
-129
-131
-132
-135
-137
-137
-136
-135
-131
-132
-133
-137
-139
-141
-142
-141
-139
-139
-135
-135
-136
-140
-141
-141
-140
-136
-134
-136
-137
-142
-144
-143
-138
-136
-134
-133
-137
-141
-143
-141
-142
-138
-141
-141
-140
-138
-147
-146
-142
-143
-141
-139
-142
-142
-142
-146
-140
-141
-137
-135
-137
-139
-140
-144
-142
-139
-135
-135
-139
-139
-142
-143
-145
-142
-138
-138
-136
-141
-142
-144
-145
-144
-138
-137
-134
-138
-141
-142
-145
-142
-143
-136
-135
-136
-139
-140
-143
-143
-142
-140
-141
-140
-140
-142
-140
-140
-135
-128
-121
-115
-114
-116
-120
-121
-118
-119
-122
-120
-125
-130
-132
-138
-140
-141
-137
-136
-136
-137
-139
-144
-147
-146
-145
-142
-141
-143
-143
-148
-146
-147
-146
-145
-138
-120
-85
-73
9
50
85
98
75
17
-70
-159
-217
-211
-180
-151
-141
-137
-140
-143
-146
-148
-150
-147
-145
-144
-143
-144
-143
-149
-150
-150
-145
-141
-141
-143
-142
-145
-149
-144
-142
-136
-133
-136
-137
-137
-138
-136
-131
-128
-126
-126
-125
-125
-125
-126
-122
-116
-114
-112
-110
-108
-106
-105
-100
-95
-89
-84
-82
-77
-75
-72
-66
-59
-55
-47
-45
-46
-46
-45
-44
-43
-40
-38
-41
-42
-51
-60
-64
-73
-79
-82
-87
-99
-109
-120
-127
-133
-136
-138
-140
-147
-149
-148
-156
-160
-157
-157
-155
-157
-159
-162
-167
-170
-168
-167
-165
-162
-162
-166
-168
-167
-168
-165
-162
-160
-163
-164
-165
-166
-168
-166
-161
-158
-157
-161
-162
-164
-166
-165
-165
-161
-162
-161
-165
-166
-168
-172
-167
-163
-161
-162
-167
-168
-170
-172
-170
-169
-164
-166
-169
-168
-173
-172
-172
-168
-168
-167
-170
-173
-174
-176
-174
-172
-170
-170
-169
-171
-172
-175
-174
-176
-172
-169
-167
-169
-173
-174
-175
-172
-171
-167
-167
-169
-173
-175
-173
-173
-174
-167
-169
-168
-173
-175
-177
-178
-173
-170
-170
-167
-168
-173
-174
-176
-175
-172
-168
-167
-167
-166
-173
-174
-175
-173
-167
-167
-170
-171
-172
-173
-176
-174
-171
-170
-168
-168
-172
-175
-176
-174
-172
-169
-168
-168
-171
-173
-173
-172
-170
-167
-165
-164
-167
-168
-172
-175
-174
-169
-167
-161
-163
-157
-155
-154
-149
-145
-143
-139
-144
-146
-149
-153
-157
-158
-160
-158
-162
-160
-162
-170
-170
-171
-167
-165
-164
-166
-170
-171
-172
-172
-170
-166
-165
-165
-168
-173
-165
-138
-93
-38
26
91
135
145
100
19
-74
-151
-181
-169
-151
-142
-144
-150
-157
-160
-156
-155
-161
-165
-167
-169
-170
-167
-165
-161
-163
-164
-165
-167
-169
-167
-164
-158
-154
-154
-155
-154
-156
-156
-152
-146
-143
-144
-145
-148
-146
-145
-143
-140
-134
-134
-135
-135
-135
-132
-131
-124
-119
-116
-112
-114
-112
-107
-102
-96
-92
-82
-80
-75
-73
-72
-71
-66
-61
-58
-57
-57
-58
-62
-60
-64
-63
-64
-69
-77
-89
-97
-105
-112
-118
-121
-123
-131
-138
-143
-146
-157
-155
-152
-152
-150
-154
-156
-160
-164
-164
-159
-159
-158
-161
-164
-166
-168
-165
-161
-159
-156
-156
-159
-161
-163
-163
-162
-159
-155
-156
-157
-155
-158
-160
-159
-156
-153
-154
-152
-155
-157
-159
-160
-157
-156
-152
-155
-154
-159
-159
-162
-160
-161
-155
-159
-160
-162
-166
-168
-162
-159
-156
-155
-160
-159
-161
-162
-163
-163
-158
-153
-156
-158
-160
-162
-160
-160
-157
-153
-155
-157
-157
-161
-164
-160
-163
-156
-156
-155
-158
-160
-155
-156
-153
-150
-147
-150
-156
-157
-158
-161
-157
-154
-152
-151
-153
-157
-157
-159
-156
-152
-148
-150
-153
-154
-155
-154
-156
-152
-148
-145
-149
-151
-152
-154
-156
-155
-152
-147
-150
-151
-152
-154
-156
-155
-153
-151
-152
-154
-159
-160
-161
-159
-157
-156
-153
-152
-156
-155
-157
-158
-156
-150
-148
-153
-150
-151
-157
-151
-152
-147
-141
-138
-134
-131
-132
-131
-131
-131
-129
-130
-134
-138
-144
-148
-152
-150
-148
-147
-145
-151
-153
-158
-159
-160
-155
-155
-150
-153
-156
-158
-161
-160
-155
-153
-155
-147
-128
-90
-43
8
58
94
107
88
23
-1
-154
-206
-205
-174
-147
-140
-142
-147
-153
-155
-158
-154
-153
-150
-152
-156
-157
-160
-161
-155
-156
-152
-149
-153
-154
-157
-157
-156
-150
-148
-144
-147
-145
-147
-147
-147
-143
-140
-141
-137
-134
-137
-139
-136
-131
-126
-122
-121
-119
-118
-118
-117
-112
-104
-98
-94
-92
-89
-86
-85
-79
-74
-66
-63
-60
-61
-62
-61
-61
-59
-56
-60
-59
-65
-68
-80
-92
-96
-102
-108
-115
-122
-135
-141
-149
-152
-158
-157
-158
-161
-165
-169
-174
-179
-178
-177
-178
-177
-178
-179
-186
-188
-185
-186
-180
-180
-179
-180
-182
-184
-183
-185
-179
-175
-176
-178
-182
-183
-180
-182
-177
-176
-175
-175
-174
-180
-182
-181
-180
-179
-177
-175
-181
-182
-187
-186
-184
-182
-180
-181
-185
-185
-189
-190
-187
-186
-185
-182
-186
-187
-191
-190
-190
-189
-186
-183
-187
-188
-190
-195
-194
-191
-190
-188
-189
-191
-192
-196
-192
-192
-189
-187
-185
-189
-189
-194
-194
-192
-191
-186
-188
-187
-191
-192
-194
-194
-191
-191
-189
-188
-192
-195
-198
-200
-197
-191
-191
-187
-189
-190
-196
-195
-194
-191
-186
-189
-187
-188
-189
-192
-192
-190
-185
-185
-185
-187
-187
-192
-193
-191
-189
-186
-185
-188
-190
-191
-192
-193
-189
-187
-185
-189
-186
-191
-192
-192
-188
-185
-181
-185
-186
-188
-190
-191
-189
-190
-187
-183
-186
-186
-187
-183
-179
-172
-164
-160
-160
-162
-164
-166
-168
-165
-166
-165
-170
-177
-180
-183
-185
-185
-181
-181
-176
-185
-187
-186
-191
-191
-186
-185
-182
-184
-184
-186
-191
-189
-172
-137
-88
-30
30
88
123
112
57
-28
-118
-181
-193
-190
-160
-156
-161
-169
-168
-172
-174
-177
-179
-182
-184
-181
-177
-172
-175
-175
-177
-179
-176
-171
-170
-168
-167
-165
-166
-168
-170
-168
-164
-163
-158
-159
-159
-163
-163
-162
-157
-154
-148
-147
-144
-146
-149
-147
-145
-137
-133
-127
-126
-123
-126
-118
-115
-112
-103
-96
-90
-93
-90
-90
-86
-81
-73
-67
-67
-67
-69
-70
-69
-69
-69
-74
-76
-84
-88
-105
-115
-118
-121
-128
-133
-141
-145
-152
-159
-160
-160
-161
-159
-162
-165
-165
-169
-175
-171
-170
-168
-169
-169
-168
-175
-175
-176
-171
-168
-169
-166
-171
-172
-174
-174
-171
-168
-162
-164
-165
-169
-167
-168
-168
-168
-164
-165
-167
-168
-173
-175
-173
-170
-167
-166
-168
-170
-172
-173
-174
-170
-166
-163
-168
-169
-171
-171
-172
-169
-166
-164
-162
-162
-161
-167
-169
-169
-167
-166
-164
-166
-165
-165
-168
-169
-165
-163
-162
-160
-160
-165
-166
-167
-165
-163
-160
-158
-161
-161
-166
-164
-161
-160
-159
-158
-159
-162
-162
-165
-167
-164
-162
-159
-156
-158
-159
-163
-165
-162
-162
-157
-154
-155
-156
-155
-158
-159
-154
-152
-151
-154
-153
-154
-160
-160
-161
-156
-151
-150
-150
-154
-156
-156
-156
-154
-153
-151
-152
-154
-157
-155
-153
-150
-148
-145
-147
-145
-148
-151
-153
-152
-149
-145
-146
-147
-146
-143
-141
-135
-127
-121
-124
-121
-122
-123
-131
-128
-127
-128
-130
-133
-140
-142
-145
-147
-147
-142
-140
-142
-144
-146
-150
-153
-154
-150
-144
-144
-144
-145
-148
-152
-147
-127
-91
-41
11
58
91
87
52
-14
-97
-175
-216
-212
-179
-156
-148
-146
-142
-139
-137
-139
-140
-144
-146
-144
-141
-141
-140
-137
-139
-141
-142
-140
-140
-136
-133
-133
-131
-134
-136
-136
-130
-127
-124
-124
-124
-123
-125
-127
-123
-122
-118
-114
-113
-113
-114
-113
-109
-103
-99
-94
-92
-91
-89
-88
-85
-79
-72
-64
-59
-54
-53
-51
-48
-47
-44
-40
-35
-36
-36
-37
-40
-41
-39
-42
-43
-50
-57
-67
-78
-86
-92
-99
-105
-111
-122
-124
-136
-141
-145
-145
-145
-145
-149
-151
-153
-156
-159
-159
-155
-155
-154
-157
-159
-163
-161
-163
-158
-155
-158
-156
-155
-158
-161
-161
-156
-152
-153
-149
-152
-155
-159
-157
-154
-153
-149
-150
-154
-157
-159
-158
-156
-155
-154
-153
-156
-157
-158
-160
-160
-158
-156
-154
-154
-156
-160
-160
-161
-161
-156
-155
-154
-158
-159
-163
-164
-164
-162
-158
-160
-159
-162
-163
-161
-164
-162
-159
-158
-158
-161
-163
-166
-169
-166
-165
-162
-159
-160
-159
-162
-164
-164
-160
-159
-156
-158
-158
-165
-165
-168
-167
-160
-159
-160
-159
-161
-164
-166
-164
-159
-156
-157
-158
-161
-164
-164
-162
-157
-157
-157
-157
-156
-160
-162
-161
-158
-158
-157
-157
-160
-163
-165
-166
-162
-160
-159
-156
-160
-161
-164
-163
-163
-162
-155
-156
-156
-154
-160
-163
-161
-159
-160
-153
-154
-155
-155
-158
-160
-161
-158
-155
-153
-148
-148
-145
-143
-139
-131
-128
-125
-126
-127
-130
-133
-133
-133
-135
-137
-138
-142
-147
-150
-152
-150
-151
-151
-151
-151
-157
-159
-159
-155
-155
-153
-148
-150
-149
-155
-152
-127
-80
-19
51
121
163
167
111
27
-72
-138
-155
-136
-121
-116
-127
-135
-140
-141
-140
-138
-141
-142
-148
-149
-149
-145
-142
-141
-142
-142
-143
-143
-143
-145
-139
-136
-134
-132
-134
-139
-131
-132
-130
-126
-122
-123
-121
-126
-127
-126
-122
-116
-115
-112
-113
-112
-109
-111
-108
-99
-91
-90
-89
-85
-87
-82
-77
-69
-64
-58
-57
-55
-59
-54
-54
-49
-45
-40
-40
-43
-45
-50
-51
-52
-53
-59
-60
-66
-78
-87
-94
-99
-104
-108
-112
-118
-121
-129
-135
-137
-139
-138
-137
-140
-141
-144
-148
-148
-144
-143
-140
-144
-145
-149
-151
-151
-150
-147
-145
-142
-143
-145
-143
-146
-147
-145
-142
-140
-138
-144
-144
-145
-146
-144
-139
-134
-138
-139
-141
-143
-145
-143
-140
-136
-133
-139
-140
-143
-144
-143
-142
-136
-134
-135
-139
-143
-146
-146
-146
-142
-140
-138
-139
-143
-146
-148
-147
-143
-142
-140
-141
-141
-147
-147
-147
-144
-141
-138
-140
-141
-140
-141
-144
-142
-136
-136
-134
-138
-136
-138
-139
-141
-139
-137
-136
-138
-139
-140
-141
-142
-137
-134
-133
-130
-133
-135
-135
-137
-135
-132
-130
-127
-130
-133
-133
-135
-133
-133
-130
-128
-130
-133
-131
-134
-135
-135
-131
-127
-128
-126
-130
-132
-135
-134
-130
-129
-125
-127
-132
-134
-134
-134
-128
-123
-123
-122
-124
-130
-133
-132
-132
-127
-125
-129
-128
-130
-130
-131
-129
-126
-126
-123
-130
-127
-128
-127
-125
-117
-111
-104
-104
-103
-98
-99
-98
-97
-96
-92
-96
-102
-109
-114
-118
-117
-118
-113
-115
-116
-116
-119
-121
-124
-122
-122
-118
-117
-118
-122
-121
-121
-119
-116
-114
-111
-97
-62
-13
43
96
135
140
95
16
-79
-155
-172
-149
-118
-101
-99
-105
-107
-109
-109
-111
-110
-108
-106
-101
-103
-108
-108
-108
-104
-102
-99
-94
-99
-99
-102
-102
-101
-97
-93
-91
-91
-91
-93
-95
-96
-89
-85
-81
-79
-79
-80
-78
-79
-74
-71
-64
-60
-59
-56
-53
-54
-52
-45
-36
-35
-31
-30
-27
-24
-19
-12
-3
4
5
7
7
5
6
9
13
15
14
11
9
1
-7
-11
-15
-18
-27
-35
-39
-54
-65
-73
-80
-83
-86
-91
-94
-102
-105
-107
-111
-111
-107
-109
-112
-111
-115
-117
-117
-114
-110
-107
-106
-107
-109
-112
-110
-111
-111
-106
-103
-108
-110
-112
-111
-112
-107
-105
-102
-102
-106
-107
-110
-109
-107
-103
-104
-103
-102
-108
-109
-109
-107
-105
-103
-104
-106
-108
-112
-114
-113
-111
-108
-109
-109
-115
-117
-116
-117
-117
-114
-111
-110
-112
-116
-117
-118
-115
-113
-110
-111
-113
-114
-115
-118
-120
-113
-117
-112
-117
-119
-122
-124
-123
-121
-117
-113
-115
-114
-121
-123
-123
-123
-119
-116
-115
-117
-121
-119
-120
-122
-117
-117
-112
-115
-118
-120
-122
-124
-121
-121
-114
-117
-120
-122
-124
-126
-121
-121
-119
-117
-120
-120
-126
-126
-125
-120
-118
-116
-117
-120
-121
-123
-124
-120
-117
-114
-118
-117
-123
-125
-129
-126
-125
-119
-118
-116
-116
-113
-107
-108
-100
-97
-95
-92
-95
-100
-104
-111
-108
-110
-112
-114
-116
-120
-123
-124
-126
-120
-120
-122
-123
-125
-128
-127
-126
-123
-118
-118
-117
-124
-128
-115
-85
-35
20
83
139
154
167
116
19
-79
-139
-142
-119
-101
-98
-107
-116
-120
-120
-121
-117
-120
-121
-124
-123
-122
-117
-113
-111
-113
-115
-116
-116
-116
-113
-111
-107
-108
-109
-110
-112
-113
-109
-106
-102
-100
-102
-104
-101
-103
-99
-97
-91
-84
-86
-85
-84
-85
-82
-76
-71
-65
-63
-59
-57
-56
-54
-48
-44
-38
-34
-30
-27
-26
-28
-26
-23
-19
-16
-18
-21
-25
-34
-42
-44
-51
-54
-58
-71
-78
-89
-96
-100
-103
-106
-108
-115
-118
-123
-126
-128
-126
-124
-125
-126
-127
-130
-131
-133
-130
-127
-126
-125
-127
-130
-133
-131
-128
-128
-125
-123
-125
-127
-129
-128
-131
-130
-126
-129
-124
-127
-126
-128
-133
-129
-124
-124
-125
-127
-128
-131
-131
-130
-128
-125
-123
-126
-126
-130
-131
-129
-130
-129
-125
-125
-125
-130
-134
-134
-132
-129
-130
-130
-130
-130
-135
-136
-136
-131
-130
-127
-127
-130
-131
-135
-133
-132
-127
-126
-125
-125
-129
-132
-131
-129
-128
-129
-125
-127
-130
-132
-133
-133
-131
-127
-127
-130
-131
-133
-134
-134
-130
-129
-124
-128
-129
-128
-126
-130
-129
-128
-126
-127
-124
-128
-129
-132
-132
-127
-123
-122
-126
-124
-128
-129
-131
-128
-127
-123
-125
-126
-131
-134
-136
-131
-128
-127
-123
-126
-127
-129
-131
-130
-125
-124
-123
-123
-125
-126
-128
-127
-123
-122
-122
-126
-127
-126
-127
-128
-125
-119
-114
-107
-105
-99
-101
-103
-100
-98
-96
-96
-97
-102
-108
-114
-118
-118
-114
-115
-117
-118
-122
-120
-124
-123
-120
-116
-116
-117
-118
-122
-121
-118
-118
-117
-116
-110
-90
-56
-9
47
106
152
176
151
136
0
-84
-138
-138
-116
-94
-90
-96
-103
-107
-110
-111
-110
-107
-104
-106
-107
-110
-112
-111
-107
-103
-98
-101
-104
-101
-103
-104
-104
-100
-96
-94
-97
-99
-99
-98
-96
-92
-89
-87
-83
-86
-88
-87
-84
-80
-75
-71
-69
-68
-69
-67
-64
-61
-52
-47
-43
-42
-42
-39
-38
-32
-25
-20
-12
-11
-10
-10
-7
-5
2
4
2
5
3
-1
-6
-11
-13
-21
-27
-35
-46
-54
-64
-69
-72
-76
-75
-82
-84
-91
-97
-99
-104
-99
-100
-100
-99
-101
-104
-106
-106
-106
-103
-99
-98
-102
-103
-104
-106
-105
-102
-98
-97
-97
-99
-101
-100
-102
-103
-100
-96
-97
-97
-100
-104
-102
-103
-99
-95
-95
-94
-96
-98
-100
-98
-95
-97
-91
-95
-95
-100
-102
-104
-101
-99
-97
-97
-97
-100
-101
-103
-103
-100
-98
-95
-99
-104
-103
-104
-101
-98
-95
-93
-93
-97
-99
-99
-102
-100
-96
-94
-94
-94
-98
-100
-101
-99
-97
-94
-93
-94
-97
-102
-101
-104
-101
-97
-94
-93
-97
-98
-99
-97
-96
-93
-91
-90
-91
-93
-96
-99
-96
-95
-93
-94
-94
-96
-97
-100
-100
-95
-93
-88
-89
-93
-97
-99
-97
-95
-91
-90
-89
-88
-92
-94
-96
-95
-90
-89
-89
-89
-90
-94
-95
-95
-95
-94
-91
-91
-92
-92
-89
-87
-81
-73
-69
-67
-67
-70
-71
-72
-72
-72
-71
-73
-79
-85
-89
-92
-92
-92
-90
-90
-91
-96
-99
-101
-100
-95
-95
-94
-94
-93
-96
-98
-100
-92
-68
-25
26
79
127
148
142
100
24
-63
-133
-158
-134
-107
-94
-91
-91
-89
-85
-86
-87
-91
-96
-98
-92
-91
-88
-87
-89
-87
-91
-89
-86
-87
-78
-78
-80
-83
-85
-86
-88
-81
-80
-74
-73
-71
-74
-76
-76
-71
-71
-64
-62
-61
-59
-61
-59
-57
-49
-48
-41
-39
-36
-38
-34
-30
-24
-19
-12
-10
-10
-6
-6
-3
-1
3
10
12
11
11
11
8
8
8
11
6
-1
-8
-17
-28
-34
-39
-45
-51
-56
-60
-73
-81
-85
-90
-89
-91
-91
-95
-99
-100
-107
-107
-104
-105
-100
-101
-104
-106
-108
-109
-107
-102
-97
-99
-101
-103
-105
-104
-103
-104
-99
-98
-99
-100
-103
-105
-105
-101
-100
-96
-98
-100
-103
-103
-104
-101
-101
-100
-97
-97
-103
-107
-104
-106
-101
-100
-97
-101
-102
-106
-108
-107
-107
-107
-106
-106
-104
-109
-110
-112
-109
-105
-105
-103
-104
-109
-111
-115
-110
-110
-108
-104
-105
-106
-108
-110
-110
-110
-108
-102
-105
-105
-108
-111
-113
-111
-107
-107
-104
-105
-108
-110
-111
-108
-107
-103
-105
-105
-106
-108
-108
-108
-107
-101
-102
-101
-103
-103
-107
-106
-108
-104
-101
-99
-100
-108
-107
-109
-108
-106
-103
-99
-101
-102
-105
-107
-107
-103
-101
-99
-102
-100
-103
-106
-104
-103
-103
-101
-97
-98
-102
-102
-104
-104
-104
-100
-99
-102
-101
-102
-103
-102
-96
-87
-81
-77
-77
-77
-78
-81
-77
-75
-74
-75
-77
-84
-91
-92
-95
-97
-95
-92
-95
-98
-102
-103
-104
-103
-101
-101
-100
-102
-101
-105
-105
-102
-102
-101
-97
-95
-51
-4
55
119
182
213
195
121
21
-73
-122
-116
-88
-71
-70
-79
-85
-92
-95
-97
-99
-94
-92
-91
-92
-94
-98
-99
-97
-94
-89
-88
-90
-90
-92
-95
-95
-91
-87
-85
-85
-87
-91
-90
-90
-90
-84
-80
-79
-76
-80
-81
-82
-78
-77
-71
-70
-67
-67
-67
-66
-62
-57
-51
-46
-44
-44
-44
-40
-38
-33
-28
-24
-19
-19
-17
-18
-15
-14
-8
-5
-1
0
-1
-3
-5
-12
-12
-15
-15
-23
-33
-41
-51
-57
-62
-65
-71
-73
-75
-90
-95
-99
-101
-100
-101
-101
-101
-102
-109
-111
-113
-110
-105
-101
-103
-107
-106
-108
-107
-109
-104
-101
-101
-100
-105
-107
-108
-110
-107
-104
-100
-102
-102
-104
-106
-106
-104
-102
-100
-100
-102
-103
-106
-108
-109
-106
-100
-100
-100
-101
-103
-107
-107
-107
-104
-103
-106
-105
-107
-113
-110
-110
-109
-107
-106
-111
-113
-115
-114
-113
-110
-106
-106
-108
-111
-109
-108
-107
-105
-103
-101
-102
-104
-106
-108
-107
-107
-105
-103
-105
-107
-109
-110
-111
-108
-106
-106
-106
-105
-104
-108
-109
-110
-107
-102
-99
-98
-100
-102
-106
-105
-104
-100
-96
-101
-100
-103
-103
-107
-105
-100
-99
-97
-97
-102
-105
-103
-103
-101
-99
-97
-96
-96
-102
-100
-99
-98
-93
-93
-95
-96
-93
-97
-99
-99
-97
-94
-95
-97
-102
-107
-106
-101
-95
-89
-86
-82
-79
-76
-74
-73
-70
-67
-68
-68
-72
-79
-84
-91
-92
-91
-92
-93
-95
-99
-101
-104
-101
-98
-95
-95
-94
-96
-101
-104
-105
-98
-96
-92
-89
-74
-46
-3
53
103
142
150
114
98
-52
-136
-169
-151
-114
-90
-80
-83
-88
-94
-93
-96
-94
-91
-89
-90
-88
-90
-89
-91
-90
-83
-79
-77
-77
-79
-83
-83
-83
-82
-77
-75
-74
-76
-77
-74
-74
-69
-66
-64
-63
-65
-63
-64
-63
-57
-51
-49
-40
-39
-37
-32
-30
-27
-22
-13
-5
-3
-2
1
2
6
12
21
27
31
31
29
30
30
30
34
38
34
33
24
16
8
1
-5
-11
-21
-28
-36
-48
-56
-64
-68
-71
-76
-78
-83
-85
-89
-94
-93
-93
-91
-91
-93
-97
-99
-99
-100
-99
-93
-90
-91
-93
-96
-97
-99
-97
-95
-90
-94
-93
-97
-100
-99
-96
-94
-91
-93
-93
-97
-99
-100
-99
-98
-96
-95
-97
-97
-99
-102
-102
-98
-98
-94
-94
-99
-97
-102
-103
-103
-101
-104
-100
-101
-104
-106
-105
-107
-105
-104
-101
-102
-103
-106
-108
-109
-107
-104
-102
-98
-104
-105
-108
-108
-105
-106
-101
-103
-103
-107
-110
-109
-111
-106
-106
-103
-104
-105
-109
-110
-109
-110
-106
-103
-105
-107
-110
-110
-109
-108
-105
-102
-102
-103
-109
-109
-111
-110
-106
-103
-103
-105
-106
-109
-111
-110
-108
-108
-106
-103
-106
-108
-110
-112
-112
-109
-105
-105
-104
-107
-109
-109
-112
-111
-107
-107
-107
-109
-113
-114
-114
-113
-111
-106
-106
-100
-100
-95
-94
-88
-85
-84
-83
-82
-85
-87
-92
-93
-97
-94
-96
-100
-101
-106
-107
-112
-109
-106
-105
-106
-107
-111
-113
-113
-113
-110
-110
-106
-106
-111
-114
-110
-85
-44
11
69
129
181
202
179
114
29
-57
-112
-119
-98
-81
-83
-89
-97
-98
-97
-98
-99
-105
-106
-110
-108
-104
-104
-101
-102
-104
-103
-105
-105
-105
-98
-98
-98
-98
-96
-100
-99
-97
-94
-91
-91
-90
-93
-93
-93
-91
-87
-83
-82
-77
-78
-79
-78
-76
-70
-69
-63
-61
-58
-59
-56
-54
-51
-41
-38
-31
-30
-29
-30
-28
-24
-20
-14
-11
-11
-10
-10
-16
-18
-15
-16
-14
-21
-26
-33
-42
-51
-56
-62
-67
-70
-73
-88
-98
-100
-105
-107
-108
-109
-113
-114
-119
-123
-124
-119
-117
-114
-114
-117
-118
-124
-124
-125
-121
-117
-118
-117
-116
-120
-121
-121
-119
-117
-112
-116
-118
-119
-119
-122
-120
-115
-114
-117
-117
-119
-119
-121
-125
-120
-118
-117
-116
-121
-123
-125
-124
-123
-121
-118
-117
-120
-121
-128
-127
-125
-123
-122
-122
-122
-127
-127
-131
-129
-127
-125
-126
-125
-128
-131
-135
-132
-131
-130
-125
-126
-126
-129
-129
-130
-127
-127
-125
-124
-122
-126
-127
-130
-130
-129
-127
-125
-124
-129
-131
-135
-131
-130
-128
-124
-127
-128
-128
-133
-136
-131
-130
-126
-125
-127
-128
-131
-130
-129
-129
-127
-126
-127
-132
-131
-134
-133
-128
-128
-128
-128
-128
-130
-136
-135
-133
-130
-127
-128
-126
-128
-132
-131
-130
-129
-128
-125
-124
-128
-128
-132
-131
-128
-126
-124
-128
-128
-134
-134
-133
-127
-124
-119
-117
-110
-108
-110
-107
-105
-103
-99
-99
-101
-102
-109
-112
-115
-118
-118
-117
-123
-124
-128
-131
-134
-131
-129
-126
-127
-127
-127
-131
-132
-130
-128
-124
-126
-125
-109
-80
-30
25
84
134
158
129
61
-33
-122
-161
-152
-126
-109
-107
-113
-119
-121
-125
-125
-126
-125
-124
-123
-125
-126
-128
-126
-121
-118
-113
-111
-117
-119
-119
-119
-117
-109
-109
-108
-107
-107
-108
-110
-107
-104
-102
-99
-98
-99
-97
-98
-94
-91
-86
-82
-77
-76
-75
-75
-72
-67
-61
-54
-48
-51
-48
-45
-44
-39
-33
-28
-24
-22
-22
-22
-22
-16
-12
-13
-8
-13
-17
-24
-30
-41
-42
-45
-49
-56
-64
-73
-87
-92
-99
-100
-104
-105
-107
-115
-120
-123
-126
-124
-124
-119
-121
-121
-125
-129
-128
-129
-126
-124
-121
-120
-123
-124
-125
-124
-123
-122
-119
-117
-121
-122
-124
-125
-124
-122
-119
-116
-117
-120
-124
-124
-123
-123
-120
-119
-120
-122
-127
-127
-127
-122
-120
-120
-122
-125
-127
-131
-132
-131
-125
-123
-120
-120
-125
-128
-130
-128
-127
-124
-121
-124
-124
-126
-128
-126
-125
-121
-119
-120
-121
-125
-126
-126
-124
-122
-117
-118
-121
-124
-126
-128
-126
-123
-120
-116
-120
-122
-124
-125
-125
-121
-121
-120
-118
-123
-125
-130
-126
-125
-121
-118
-118
-117
-120
-122
-121
-120
-118
-119
-121
-118
-120
-125
-126
-127
-124
-119
-118
-115
-122
-124
-125
-124
-123
-117
-118
-118
-118
-122
-121
-122
-120
-119
-116
-114
-117
-122
-123
-129
-126
-124
-121
-115
-113
-110
-108
-104
-101
-99
-93
-96
-93
-96
-99
-104
-108
-109
-111
-113
-111
-114
-116
-118
-123
-128
-124
-122
-119
-119
-123
-124
-129
-128
-125
-123
-121
-121
-122
-119
-102
-60
-2
54
108
142
139
94
4
-95
-161
-168
-141
-110
-104
-103
-108
-116
-118
-118
-114
-115
-112
-114
-116
-119
-120
-116
-114
-110
-108
-110
-112
-113
-112
-109
-106
-104
-102
-101
-102
-105
-107
-103
-103
-102
-97
-98
-92
-96
-95
-93
-88
-83
-77
-75
-74
-73
-70
-72
-65
-59
-53
-48
-47
-44
-40
-41
-36
-31
-25
-22
-16
-15
-13
-15
-14
-11
-13
-9
-9
-10
-15
-22
-30
-34
-37
-45
-49
-50
-66
-78
-87
-92
-94
-96
-101
-102
-111
-115
-118
-123
-126
-125
-124
-124
-125
-129
-130
-132
-133
-131
-128
-127
-126
-127
-129
-132
-133
-130
-126
-124
-124
-126
-128
-131
-134
-131
-127
-126
-125
-126
-129
-132
-133
-131
-130
-130
-125
-124
-127
-129
-129
-131
-135
-131
-125
-128
-127
-130
-133
-136
-134
-133
-130
-131
-128
-134
-136
-138
-138
-138
-133
-130
-129
-134
-137
-140
-144
-139
-135
-133
-133
-135
-138
-140
-141
-139
-138
-131
-127
-132
-134
-134
-136
-138
-135
-136
-135
-136
-136
-138
-142
-140
-140
-138
-135
-134
-134
-138
-139
-141
-141
-136
-135
-135
-134
-139
-140
-142
-143
-142
-141
-136
-137
-140
-143
-144
-147
-147
-142
-142
-141
-141
-142
-143
-143
-143
-140
-137
-135
-137
-135
-142
-141
-142
-139
-133
-132
-133
-135
-141
-141
-140
-138
-139
-137
-135
-137
-141
-143
-144
-145
-143
-142
-135
-137
-136
-136
-135
-132
-123
-120
-114
-112
-115
-117
-119
-122
-124
-120
-120
-124
-127
-134
-139
-136
-139
-138
-138
-135
-137
-139
-142
-143
-143
-143
-141
-137
-134
-140
-141
-144
-138
-113
-73
-18
38
98
146
167
145
80
-7
-95
-148
-149
-129
-118
-116
-127
-132
-132
-131
-131
-138
-141
-142
-144
-141
-138
-135
-135
-135
-134
-138
-139
-137
-130
-130
-129
-130
-132
-136
-137
-137
-132
-129
-124
-125
-124
-126
-128
-125
-120
-118
-114
-111
-113
-116
-111
-111
-106
-103
-99
-91
-92
-90
-90
-86
-83
-79
-72
-65
-63
-64
-63
-61
-55
-53
-49
-48
-44
-48
-49
-51
-53
-57
-59
-62
-65
-76
-84
-94
-101
-108
-113
-119
-122
-123
-132
-142
-144
-146
-151
-149
-148
-148
-150
-155
-159
-159
-159
-158
-157
-152
-156
-158
-158
-159
-157
-158
-151
-148
-147
-150
-153
-155
-159
-156
-151
-150
-151
-152
-154
-159
-158
-157
-154
-153
-148
-152
-154
-156
-154
-158
-156
-151
-150
-146
-150
-151
-154
-157
-158
-155
-156
-151
-157
-156
-162
-163
-159
-159
-157
-155
-156
-157
-162
-165
-160
-160
-156
-151
-149
-157
-155
-155
-159
-158
-155
-150
-152
-151
-154
-157
-161
-160
-158
-155
-153
-153
-154
-160
-158
-160
-158
-155
-152
-152
-156
-156
-160
-159
-158
-154
-151
-149
-150
-152
-154
-155
-159
-157
-151
-145
-153
-155
-159
-162
-160
-158
-157
-153
-152
-155
-157
-160
-159
-158
-157
-153
-151
-150
-151
-152
-154
-150
-152
-146
-145
-147
-147
-151
-150
-152
-151
-147
-148
-149
-150
-149
-151
-149
-143
-140
-133
-129
-124
-123
-124
-122
-123
-117
-119
-120
-125
-129
-136
-139
-140
-142
-137
-138
-139
-141
-143
-147
-149
-149
-147
-144
-145
-146
-147
-148
-142
-146
-146
-141
-128
-100
-62
-14
37
78
99
88
32
10
-146
-211
-217
-184
-151
-138
-134
-134
-133
-134
-135
-139
-137
-133
-133
-129
-130
-131
-131
-131
-131
-130
-124
-121
-119
-122
-123
-123
-124
-123
-120
-117
-115
-115
-117
-119
-117
-116
-111
-107
-105
-105
-104
-102
-101
-102
-95
-91
-87
-85
-79
-80
-80
-77
-71
-68
-59
-54
-51
-53
-48
-48
-44
-38
-32
-24
-25
-25
-26
-26
-25
-22
-21
-22
-21
-28
-33
-39
-46
-51
-56
-62
-71
-80
-89
-98
-110
-115
-121
-121
-123
-129
-135
-141
-146
-149
-149
-149
-146
-143
-145
-147
-151
-151
-151
-149
-143
-143
-142
-148
-148
-149
-149
-146
-144
-142
-141
-143
-147
-149
-151
-151
-144
-144
-143
-144
-149
-149
-151
-149
-146
-150
-144
-145
-149
-151
-152
-155
-153
-148
-147
-147
-148
-152
-155
-157
-154
-151
-153
-153
-152
-153
-156
-158
-159
-154
-150
-150
-151
-157
-159
-158
-158
-159
-151
-150
-150
-150
-153
-156
-154
-154
-151
-148
-149
-153
-155
-157
-157
-157
-154
-153
-152
-152
-155
-155
-159
-156
-156
-154
-153
-151
-152
-153
-157
-155
-152
-153
-145
-146
-148
-150
-152
-154
-152
-151
-148
-147
-146
-149
-151
-153
-152
-152
-146
-145
-143
-145
-151
-150
-152
-149
-146
-142
-141
-144
-147
-149
-152
-154
-151
-146
-146
-145
-151
-152
-153
-153
-152
-148
-145
-147
-149
-151
-153
-147
-147
-145
-139
-137
-132
-129
-127
-125
-124
-120
-115
-117
-122
-126
-130
-134
-137
-140
-141
-140
-141
-143
-147
-150
-152
-151
-148
-147
-145
-146
-150
-150
-152
-150
-148
-145
-145
-146
-146
-136
-103
-52
11
82
150
178
159
88
-14
-109
-156
-152
-128
-120
-118
-127
-136
-141
-143
-143
-142
-139
-141
-144
-146
-147
-147
-145
-140
-139
-139
-139
-141
-143
-143
-142
-137
-136
-136
-136
-138
-141
-141
-139
-137
-131
-126
-126
-131
-129
-130
-127
-122
-120
-114
-114
-113
-116
-115
-112
-108
-104
-98
-95
-94
-95
-92
-90
-86
-80
-75
-72
-70
-67
-69
-67
-64
-58
-56
-53
-51
-51
-56
-58
-59
-61
-61
-67
-70
-82
-92
-104
-114
-115
-124
-126
-132
-143
-146
-152
-158
-160
-162
-161
-164
-163
-164
-166
-168
-170
-167
-164
-163
-162
-162
-164
-167
-167
-166
-164
-164
-159
-160
-164
-167
-171
-168
-163
-164
-160
-163
-165
-166
-168
-168
-170
-164
-165
-163
-167
-167
-171
-172
-170
-169
-165
-165
-167
-170
-170
-177
-177
-176
-172
-171
-172
-174
-178
-180
-178
-178
-175
-171
-172
-173
-180
-179
-182
-182
-177
-174
-172
-173
-174
-175
-179
-176
-179
-179
-176
-175
-177
-183
-183
-182
-180
-178
-176
-176
-177
-178
-182
-181
-180
-180
-174
-176
-176
-178
-180
-182
-180
-179
-175
-172
-171
-174
-179
-183
-181
-183
-176
-176
-174
-174
-177
-182
-183
-180
-179
-175
-171
-170
-175
-177
-182
-176
-176
-171
-169
-167
-171
-171
-174
-176
-173
-170
-170
-170
-170
-173
-175
-177
-178
-174
-172
-168
-168
-171
-173
-179
-176
-174
-168
-164
-163
-162
-164
-161
-156
-148
-142
-136
-137
-139
-143
-148
-151
-153
-150
-153
-154
-158
-161
-164
-167
-168
-165
-164
-166
-165
-167
-168
-170
-173
-169
-163
-162
-159
-161
-164
-164
-167
-156
-131
-88
-33
20
70
103
101
57
-21
-112
-187
-207
-187
-162
-151
-150
-153
-152
-148
-147
-151
-151
-154
-158
-156
-152
-147
-147
-147
-149
-155
-157
-154
-153
-147
-145
-142
-144
-149
-147
-150
-147
-141
-136
-134
-136
-134
-138
-141
-133
-128
-125
-120
-118
-119
-118
-118
-117
-113
-107
-97
-94
-93
-91
-88
-84
-77
-72
-66
-62
-55
-50
-49
-47
-41
-37
-33
-30
-29
-27
-30
-32
-35
-33
-35
-34
-38
-49
-60
-67
-77
-84
-92
-95
-95
-109
-120
-124
-131
-138
-136
-136
-136
-140
-143
-152
-152
-154
-151
-148
-141
-147
-149
-153
-153
-152
-151
-149
-148
-148
-146
-146
-153
-153
-153
-150
-149
-144
-144
-146
-149
-149
-150
-149
-145
-141
-141
-144
-144
-149
-151
-147
-146
-142
-141
-143
-149
-151
-151
-153
-147
-144
-144
-146
-147
-148
-150
-153
-148
-147
-147
-148
-148
-150
-152
-153
-152
-147
-146
-144
-145
-148
-152
-152
-154
-149
-145
-147
-147
-149
-151
-153
-156
-152
-150
-149
-153
-151
-154
-154
-152
-152
-151
-146
-145
-144
-150
-149
-153
-154
-151
-147
-146
-147
-150
-151
-151
-154
-150
-147
-147
-146
-146
-150
-152
-153
-151
-149
-146
-144
-147
-149
-153
-153
-158
-152
-149
-149
-149
-150
-153
-157
-157
-156
-155
-153
-152
-151
-151
-153
-155
-153
-149
-149
-150
-153
-156
-157
-155
-155
-150
-144
-137
-129
-125
-123
-126
-126
-123
-120
-119
-121
-124
-128
-134
-139
-139
-142
-139
-137
-141
-143
-148
-149
-148
-148
-149
-143
-142
-147
-147
-148
-147
-143
-142
-140
-144
-141
-131
-103
-60
-5
50
107
124
159
132
63
-33
-123
-176
-175
-150
-127
-121
-126
-137
-138
-140
-135
-134
-134
-136
-138
-139
-142
-141
-136
-135
-135
-134
-137
-138
-139
-138
-137
-133
-130
-128
-129
-132
-134
-133
-127
-127
-122
-121
-125
-124
-126
-124
-121
-118
-114
-112
-110
-110
-112
-110
-104
-102
-98
-93
-92
-88
-86
-86
-80
-74
-64
-56
-50
-49
-48
-45
-44
-41
-34
-30
-28
-25
-28
-30
-33
-33
-36
-41
-43
-54
-61
-74
-85
-90
-94
-102
-106
-113
-120
-126
-131
-136
-139
-137
-141
-138
-141
-146
-148
-153
-151
-149
-146
-145
-146
-148
-150
-154
-153
-154
-151
-148
-149
-151
-151
-155
-154
-152
-151
-146
-143
-144
-146
-146
-150
-148
-146
-145
-143
-142
-141
-145
-143
-147
-147
-144
-144
-142
-144
-148
-149
-149
-151
-149
-146
-145
-150
-152
-153
-157
-158
-158
-155
-153
-150
-152
-154
-157
-160
-158
-154
-149
-151
-153
-156
-158
-157
-159
-155
-152
-151
-151
-150
-154
-157
-159
-155
-151
-146
-146
-149
-150
-153
-156
-153
-148
-146
-145
-146
-150
-149
-153
-153
-147
-144
-145
-145
-149
-152
-154
-154
-151
-148
-142
-143
-146
-149
-150
-150
-150
-147
-148
-143
-145
-147
-149
-148
-148
-146
-148
-146
-146
-143
-149
-149
-150
-148
-146
-144
-143
-145
-146
-147
-148
-149
-145
-139
-141
-141
-144
-148
-144
-145
-141
-139
-138
-143
-146
-148
-147
-142
-138
-134
-130
-124
-121
-118
-117
-120
-120
-118
-113
-115
-119
-123
-131
-133
-138
-137
-137
-136
-136
-135
-142
-145
-148
-145
-145
-142
-141
-144
-147
-149
-148
-148
-142
-142
-145
-143
-122
-88
-37
25
94
158
175
182
119
26
-72
-140
-156
-138
-114
-109
-116
-124
-133
-136
-138
-137
-137
-136
-138
-139
-142
-144
-145
-141
-138
-136
-136
-135
-136
-137
-140
-135
-130
-128
-126
-130
-130
-132
-131
-127
-121
-120
-119
-121
-122
-122
-120
-122
-113
-110
-108
-108
-109
-105
-106
-102
-100
-95
-91
-88
-86
-84
-80
-78
-71
-64
-56
-55
-53
-51
-52
-51
-48
-44
-40
-37
-39
-42
-44
-50
-57
-61
-64
-67
-72
-84
-94
-103
-111
-118
-121
-123
-126
-133
-137
-142
-145
-148
-148
-149
-147
-150
-151
-154
-155
-157
-157
-155
-151
-149
-152
-155
-158
-158
-155
-154
-155
-149
-151
-154
-156
-157
-156
-152
-151
-149
-145
-148
-150
-153
-156
-156
-154
-150
-149
-150
-157
-156
-159
-159
-153
-150
-150
-153
-156
-160
-158
-158
-157
-154
-152
-152
-154
-156
-157
-158
-158
-156
-155
-156
-157
-159
-160
-161
-159
-157
-154
-155
-155
-156
-160
-161
-160
-159
-156
-155
-154
-151
-155
-158
-159
-156
-150
-150
-148
-152
-154
-158
-157
-156
-156
-156
-152
-154
-157
-158
-156
-156
-154
-153
-152
-152
-152
-153
-154
-152
-152
-148
-146
-146
-149
-152
-154
-156
-155
-150
-151
-147
-147
-148
-151
-151
-153
-151
-149
-150
-147
-151
-149
-148
-152
-149
-147
-142
-143
-144
-147
-149
-149
-151
-147
-147
-145
-151
-150
-151
-151
-147
-143
-134
-131
-124
-124
-123
-125
-125
-119
-120
-118
-118
-123
-126
-130
-135
-136
-136
-136
-134
-139
-144
-148
-148
-148
-143
-144
-144
-142
-142
-147
-147
-148
-144
-136
-115
-81
-26
30
81
107
97
40
-48
-144
-208
-213
-186
-156
-142
-137
-134
-132
-131
-133
-136
-137
-136
-133
-131
-127
-127
-132
-128
-129
-127
-129
-125
-121
-121
-119
-121
-123
-122
-120
-119
-114
-113
-111
-112
-112
-114
-117
-111
-106
-102
-98
-100
-99
-98
-98
-90
-89
-83
-78
-75
-73
-71
-70
-67
-61
-54
-51
-38
-35
-34
-33
-32
-25
-21
-16
-12
-10
-15
-16
-16
-16
-14
-14
-15
-22
-26
-38
-46
-56
-59
-67
-70
-81
-93
-102
-110
-114
-118
-121
-125
-128
-133
-137
-139
-142
-145
-141
-139
-139
-139
-142
-145
-148
-147
-145
-140
-138
-137
-139
-142
-141
-143
-140
-138
-134
-135
-136
-139
-143
-143
-141
-139
-136
-133
-134
-139
-140
-143
-141
-142
-136
-135
-137
-139
-143
-143
-146
-142
-140
-139
-139
-137
-141
-142
-146
-146
-141
-140
-139
-143
-145
-149
-147
-148
-144
-144
-144
-142
-141
-145
-145
-146
-145
-143
-141
-139
-139
-141
-145
-145
-143
-142
-137
-138
-139
-141
-148
-144
-146
-142
-139
-137
-140
-141
-143
-145
-148
-147
-138
-136
-136
-141
-139
-144
-144
-141
-137
-134
-135
-134
-136
-138
-142
-141
-141
-135
-134
-134
-136
-137
-140
-140
-138
-137
-135
-134
-136
-137
-143
-140
-141
-136
-134
-132
-131
-136
-138
-139
-136
-136
-133
-134
-133
-133
-137
-137
-139
-136
-130
-135
-133
-134
-132
-133
-132
-129
-119
-110
-106
-103
-105
-108
-108
-107
-107
-105
-104
-110
-117
-124
-127
-132
-129
-123
-124
-124
-127
-128
-132
-133
-133
-131
-126
-127
-126
-128
-129
-129
-128
-127
-122
-119
-63
-10
58
132
198
227
201
116
3
-95
-139
-131
-106
-92
-95
-104
-109
-112
-116
-119
-121
-121
-119
-116
-115
-116
-118
-117
-118
-119
-118
-113
-108
-110
-109
-111
-113
-114
-110
-107
-106
-103
-103
-104
-104
-105
-104
-97
-97
-97
-90
-90
-92
-91
-89
-84
-77
-73
-70
-68
-67
-67
-62
-58
-53
-50
-42
-41
-37
-36
-34
-28
-24
-20
-20
-11
-11
-12
-12
-11
-10
-7
-6
-7
-14
-23
-30
-40
-43
-49
-56
-62
-69
-77
-85
-94
-98
-100
-101
-102
-106
-107
-116
-119
-118
-116
-119
-114
-115
-113
-116
-118
-119
-117
-115
-115
-110
-110
-114
-113
-117
-115
-113
-113
-114
-113
-113
-116
-117
-116
-116
-115
-109
-109
-109
-113
-116
-118
-118
-113
-111
-109
-109
-110
-113
-113
-117
-112
-112
-113
-110
-112
-116
-117
-120
-119
-116
-113
-112
-116
-116
-118
-122
-120
-117
-117
-114
-115
-116
-118
-122
-119
-115
-115
-116
-111
-113
-116
-122
-120
-119
-117
-114
-113
-115
-116
-118
-120
-119
-116
-115
-112
-111
-111
-116
-118
-119
-115
-112
-108
-107
-110
-108
-113
-116
-116
-110
-110
-111
-112
-113
-118
-118
-114
-113
-110
-108
-107
-109
-112
-117
-113
-114
-108
-106
-108
-108
-107
-110
-113
-111
-106
-102
-100
-104
-107
-107
-110
-110
-108
-105
-102
-104
-106
-109
-113
-113
-111
-108
-107
-107
-109
-109
-106
-100
-99
-95
-88
-81
-77
-77
-77
-78
-77
-78
-75
-75
-77
-81
-87
-95
-97
-98
-92
-91
-93
-97
-99
-103
-105
-102
-101
-95
-95
-95
-97
-98
-100
-101
-95
-96
-93
-80
-47
-5
47
101
151
182
187
119
30
-66
-134
-150
-125
-95
-83
-81
-88
-91
-95
-95
-94
-89
-87
-85
-85
-87
-88
-87
-89
-86
-85
-82
-81
-81
-84
-85
-85
-83
-79
-76
-73
-73
-72
-78
-76
-77
-70
-67
-61
-58
-56
-59
-62
-59
-53
-49
-47
-44
-40
-40
-40
-33
-30
-24
-20
-15
-11
-8
-4
-1
6
15
22
24
25
29
33
34
35
38
39
39
36
31
22
14
4
-1
-6
-9
-15
-28
-39
-50
-57
-63
-65
-67
-68
-74
-78
-82
-85
-88
-89
-85
-87
-85
-87
-92
-91
-94
-94
-92
-90
-89
-91
-95
-96
-98
-99
-96
-91
-89
-85
-87
-89
-89
-90
-87
-83
-84
-79
-82
-84
-86
-87
-86
-86
-83
-81
-82
-87
-91
-93
-91
-89
-88
-87
-88
-90
-93
-94
-93
-97
-96
-95
-95
-95
-95
-98
-97
-96
-94
-89
-88
-87
-89
-93
-96
-93
-96
-95
-91
-91
-93
-95
-97
-97
-97
-96
-95
-90
-91
-96
-98
-100
-96
-95
-93
-90
-92
-94
-97
-99
-99
-93
-91
-90
-92
-91
-98
-97
-99
-94
-96
-95
-93
-95
-95
-98
-99
-98
-96
-92
-92
-92
-95
-98
-97
-100
-95
-91
-92
-93
-98
-100
-103
-101
-99
-97
-95
-93
-96
-98
-101
-103
-101
-96
-90
-90
-94
-99
-100
-99
-98
-91
-88
-79
-72
-72
-72
-68
-69
-66
-66
-68
-68
-71
-77
-82
-90
-90
-85
-89
-89
-89
-91
-92
-96
-100
-97
-91
-92
-94
-94
-93
-98
-97
-94
-94
-92
-88
-74
-43
11
69
133
192
216
199
127
24
-74
-128
-126
-93
-73
-67
-72
-77
-85
-90
-93
-89
-88
-88
-84
-87
-88
-89
-92
-89
-88
-85
-84
-84
-87
-90
-90
-90
-85
-82
-80
-79
-83
-79
-78
-78
-77
-74
-75
-68
-63
-68
-66
-63
-63
-60
-55
-49
-48
-50
-48
-47
-45
-38
-31
-27
-24
-22
-22
-18
-16
-11
-2
0
7
9
7
9
7
11
13
17
20
20
18
12
6
1
-5
-9
-16
-26
-35
-48
-60
-68
-72
-75
-77
-82
-87
-91
-96
-98
-100
-101
-97
-95
-99
-101
-103
-107
-105
-104
-102
-100
-103
-100
-103
-108
-107
-109
-104
-102
-98
-99
-102
-102
-106
-103
-101
-98
-94
-99
-102
-103
-102
-102
-101
-98
-96
-97
-99
-101
-103
-104
-103
-106
-106
-104
-106
-109
-111
-113
-114
-112
-109
-105
-107
-111
-115
-114
-114
-112
-111
-109
-107
-110
-111
-112
-112
-111
-108
-105
-104
-106
-107
-110
-112
-114
-110
-106
-106
-108
-108
-109
-112
-113
-113
-111
-108
-109
-108
-112
-109
-111
-109
-105
-104
-104
-105
-110
-114
-115
-113
-110
-106
-106
-107
-110
-109
-115
-115
-113
-108
-104
-105
-109
-111
-112
-114
-111
-109
-107
-106
-105
-108
-109
-110
-110
-109
-107
-107
-106
-108
-108
-111
-109
-109
-110
-104
-105
-105
-107
-112
-112
-113
-109
-106
-106
-110
-111
-115
-117
-116
-110
-105
-98
-95
-91
-91
-87
-89
-81
-78
-76
-77
-81
-84
-89
-93
-95
-99
-98
-98
-101
-103
-103
-107
-105
-104
-100
-100
-101
-103
-105
-108
-109
-108
-104
-102
-104
-109
-102
-76
-32
28
99
122
205
192
120
17
-82
-128
-124
-93
-75
-76
-84
-93
-98
-99
-97
-98
-95
-96
-100
-99
-97
-98
-100
-98
-97
-93
-93
-94
-96
-96
-95
-94
-92
-87
-88
-91
-90
-89
-85
-84
-80
-78
-76
-77
-78
-79
-76
-75
-70
-69
-57
-60
-57
-58
-58
-53
-47
-39
-37
-36
-34
-33
-31
-26
-20
-11
-5
-2
0
2
0
2
6
9
10
15
12
11
6
-1
-5
-6
-9
-11
-22
-33
-44
-52
-62
-67
-69
-72
-75
-80
-90
-91
-94
-97
-93
-93
-92
-96
-99
-103
-104
-102
-102
-101
-99
-102
-101
-101
-102
-104
-100
-98
-96
-96
-99
-101
-106
-104
-104
-101
-99
-97
-98
-100
-102
-102
-102
-98
-96
-94
-93
-94
-99
-101
-101
-103
-98
-98
-99
-102
-102
-106
-104
-101
-96
-95
-96
-99
-103
-106
-104
-108
-104
-99
-101
-102
-102
-104
-104
-107
-103
-101
-102
-101
-99
-103
-104
-106
-107
-106
-106
-101
-100
-103
-103
-107
-104
-100
-100
-100
-97
-101
-105
-106
-104
-104
-103
-97
-96
-96
-102
-102
-107
-107
-102
-99
-100
-98
-102
-100
-100
-99
-97
-95
-92
-96
-96
-102
-101
-101
-99
-96
-93
-95
-96
-99
-102
-103
-103
-98
-95
-92
-93
-97
-100
-99
-100
-97
-94
-92
-91
-93
-98
-100
-103
-101
-100
-92
-90
-91
-91
-88
-85
-79
-71
-70
-69
-70
-73
-74
-76
-79
-82
-85
-87
-88
-93
-94
-98
-96
-98
-95
-93
-94
-96
-97
-101
-103
-105
-100
-99
-97
-94
-100
-97
-101
-99
-94
-77
-43
0
53
103
140
152
129
71
-16
-110
-166
-165
-133
-104
-93
-89
-87
-87
-86
-89
-93
-93
-94
-93
-90
-87
-85
-88
-89
-90
-90
-87
-81
-82
-80
-80
-83
-82
-84
-81
-77
-75
-73
-73
-73
-74
-74
-73
-72
-65
-62
-60
-61
-64
-61
-59
-55
-52
-46
-42
-41
-39
-37
-34
-30
-22
-18
-9
-6
-4
-4
0
5
12
17
19
20
21
22
22
18
23
22
24
24
17
10
3
-5
-12
-17
-18
-28
-37
-45
-53
-63
-66
-69
-71
-71
-77
-81
-87
-90
-95
-96
-92
-91
-90
-95
-100
-101
-104
-104
-101
-100
-98
-96
-102
-100
-105
-102
-100
-94
-94
-92
-93
-96
-98
-98
-100
-94
-95
-93
-92
-98
-98
-102
-99
-98
-96
-94
-95
-98
-103
-102
-104
-100
-99
-95
-97
-98
-100
-105
-106
-105
-100
-101
-99
-101
-104
-108
-109
-107
-106
-104
-103
-103
-105
-108
-109
-109
-107
-103
-102
-103
-105
-105
-107
-106
-106
-101
-101
-100
-102
-105
-106
-107
-107
-105
-104
-101
-101
-105
-108
-112
-113
-110
-105
-103
-104
-107
-107
-109
-109
-106
-103
-102
-99
-100
-101
-105
-107
-109
-106
-106
-100
-102
-102
-104
-108
-109
-106
-104
-101
-98
-102
-108
-112
-109
-107
-102
-98
-99
-100
-101
-101
-102
-98
-97
-96
-96
-98
-101
-102
-102
-101
-102
-100
-98
-97
-100
-102
-105
-106
-103
-99
-97
-93
-91
-91
-87
-82
-78
-73
-72
-67
-70
-70
-76
-81
-85
-88
-90
-95
-95
-97
-100
-101
-105
-105
-103
-100
-99
-102
-105
-108
-109
-106
-103
-101
-94
-98
-97
-97
-79
-40
16
77
145
204
235
221
159
67
-24
-93
-100
-81
-65
-61
-72
-81
-86
-86
-86
-83
-85
-85
-87
-91
-90
-88
-83
-81
-81
-84
-84
-88
-88
-87
-83
-81
-79
-79
-81
-84
-83
-81
-79
-77
-71
-69
-68
-73
-72
-73
-63
-61
-58
-56
-55
-53
-55
-54
-49
-46
-41
-35
-36
-37
-32
-32
-26
-20
-16
-9
-6
-1
-2
-2
1
7
10
11
11
13
12
12
11
5
1
0
-3
-15
-25
-34
-43
-48
-51
-53
-59
-68
-73
-81
-85
-90
-89
-87
-89
-89
-92
-95
-98
-100
-98
-94
-94
-93
-92
-95
-98
-101
-102
-100
-100
-96
-95
-96
-102
-103
-101
-102
-96
-92
-94
-97
-101
-101
-103
-98
-95
-91
-92
-94
-98
-100
-100
-102
-100
-99
-98
-102
-101
-105
-112
-108
-107
-102
-98
-100
-108
-106
-109
-114
-111
-109
-107
-107
-108
-110
-106
-109
-109
-105
-103
-100
-104
-107
-110
-115
-113
-111
-110
-104
-106
-105
-108
-111
-112
-108
-109
-107
-107
-107
-109
-107
-110
-112
-107
-108
-106
-103
-105
-109
-112
-113
-111
-108
-106
-105
-107
-111
-114
-115
-113
-110
-108
-110
-108
-110
-115
-113
-112
-108
-105
-99
-101
-106
-108
-110
-109
-107
-107
-105
-103
-106
-107
-110
-113
-109
-106
-104
-102
-105
-109
-112
-114
-112
-110
-108
-101
-101
-102
-105
-111
-110
-105
-100
-100
-96
-92
-90
-89
-88
-85
-81
-82
-80
-78
-80
-85
-89
-94
-93
-94
-98
-97
-103
-105
-107
-107
-106
-104
-103
-102
-104
-105
-110
-110
-111
-106
-104
-102
-104
-108
-107
-94
-62
-12
3
91
132
151
131
78
-3
-90
-151
-165
-136
-107
-97
-96
-100
-96
-97
-92
-95
-96
-97
-101
-100
-96
-97
-95
-91
-94
-95
-98
-96
-94
-96
-87
-85
-82
-85
-85
-86
-88
-81
-77
-77
-77
-78
-78
-82
-77
-75
-72
-70
-63
-60
-59
-61
-59
-61
-53
-48
-44
-37
-34
-34
-31
-27
-20
-12
-11
-3
2
3
1
3
10
16
20
25
24
26
23
22
20
20
19
17
12
4
-4
-16
-26
-34
-40
-42
-50
-58
-67
-71
-79
-86
-88
-87
-90
-91
-95
-99
-102
-104
-106
-103
-100
-100
-106
-109
-108
-110
-110
-107
-105
-102
-103
-106
-109
-109
-108
-105
-103
-100
-99
-103
-104
-103
-104
-105
-101
-99
-97
-99
-102
-105
-105
-106
-103
-102
-102
-103
-105
-109
-111
-114
-110
-108
-106
-104
-107
-109
-113
-111
-110
-108
-106
-108
-110
-114
-117
-116
-116
-116
-113
-113
-113
-114
-118
-122
-121
-117
-116
-112
-113
-114
-119
-119
-118
-115
-114
-112
-109
-111
-113
-116
-121
-120
-121
-119
-117
-117
-120
-122
-122
-123
-121
-119
-118
-116
-118
-121
-123
-125
-122
-118
-116
-117
-116
-118
-120
-121
-120
-116
-114
-113
-115
-116
-118
-116
-117
-115
-116
-112
-112
-114
-119
-123
-123
-118
-117
-113
-112
-113
-114
-116
-118
-118
-113
-112
-111
-109
-115
-117
-118
-120
-118
-116
-115
-116
-117
-119
-120
-117
-112
-107
-99
-93
-92
-96
-99
-99
-99
-96
-95
-94
-99
-104
-109
-113
-115
-115
-117
-112
-114
-118
-121
-125
-124
-123
-121
-119
-118
-120
-120
-125
-121
-122
-122
-116
-100
-65
-16
36
99
160
197
205
141
55
-42
-116
-139
-122
-97
-87
-87
-95
-102
-105
-108
-110
-114
-109
-109
-106
-107
-109
-109
-112
-112
-107
-107
-100
-101
-101
-102
-103
-105
-104
-103
-99
-96
-98
-98
-101
-102
-98
-95
-92
-89
-87
-86
-89
-88
-87
-80
-77
-71
-67
-68
-66
-66
-63
-60
-55
-47
-44
-44
-43
-41
-37
-33
-27
-23
-20
-16
-20
-18
-16
-18
-11
-7
-11
-8
-14
-17
-23
-31
-37
-39
-46
-51
-62
-71
-84
-89
-96
-101
-102
-103
-109
-115
-121
-124
-124
-125
-123
-120
-121
-125
-126
-129
-127
-126
-123
-122
-119
-120
-125
-127
-127
-127
-126
-124
-120
-125
-125
-127
-127
-126
-124
-122
-122
-121
-123
-127
-131
-132
-133
-128
-126
-121
-123
-127
-125
-126
-127
-128
-124
-121
-125
-125
-130
-132
-136
-133
-131
-126
-128
-129
-133
-133
-135
-131
-130
-124
-123
-127
-128
-129
-128
-131
-128
-127
-126
-124
-128
-128
-132
-132
-132
-129
-127
-127
-130
-131
-133
-135
-132
-129
-125
-127
-129
-127
-130
-129
-129
-124
-126
-123
-123
-126
-129
-131
-132
-132
-132
-126
-128
-131
-133
-134
-136
-134
-133
-132
-127
-130
-132
-134
-134
-131
-130
-127
-122
-124
-125
-129
-130
-132
-128
-124
-125
-126
-126
-128
-132
-133
-131
-129
-125
-120
-124
-127
-128
-129
-127
-128
-123
-123
-125
-125
-128
-126
-123
-123
-124
-120
-122
-122
-126
-128
-130
-122
-122
-117
-110
-110
-106
-102
-104
-104
-102
-97
-98
-99
-103
-106
-109
-111
-114
-113
-114
-113
-117
-119
-125
-125
-126
-122
-123
-120
-124
-126
-129
-128
-127
-125
-118
-119
-123
-126
-123
-104
-67
-11
9
109
150
154
113
40
-49
-125
-151
-133
-106
-96
-98
-107
-107
-111
-109
-107
-107
-108
-111
-110
-110
-111
-108
-107
-103
-102
-100
-104
-107
-107
-104
-99
-97
-91
-94
-92
-95
-98
-98
-94
-93
-89
-89
-90
-90
-90
-88
-84
-83
-75
-72
-69
-73
-71
-68
-63
-58
-53
-48
-44
-41
-40
-39
-33
-26
-25
-20
-17
-14
-12
-11
-10
-8
-7
3
3
2
1
-4
-7
-5
-10
-12
-11
-20
-30
-40
-50
-56
-64
-68
-77
-82
-88
-97
-103
-106
-108
-107
-105
-104
-109
-115
-115
-117
-116
-115
-113
-113
-116
-117
-118
-118
-115
-112
-107
-108
-109
-111
-111
-117
-118
-117
-116
-112
-110
-112
-114
-118
-120
-119
-116
-112
-110
-111
-117
-120
-121
-121
-114
-110
-106
-110
-112
-117
-116
-118
-117
-116
-112
-110
-116
-120
-120
-121
-120
-117
-117
-116
-117
-119
-121
-124
-122
-118
-118
-114
-115
-117
-117
-118
-120
-119
-117
-112
-111
-114
-117
-122
-122
-121
-120
-116
-114
-115
-116
-119
-124
-123
-122
-117
-116
-117
-120
-122
-123
-125
-121
-122
-115
-113
-114
-118
-120
-123
-122
-120
-120
-118
-121
-125
-128
-129
-132
-125
-123
-122
-126
-128
-127
-131
-131
-128
-127
-124
-122
-123
-127
-128
-130
-127
-127
-122
-122
-123
-126
-129
-130
-131
-130
-128
-126
-127
-126
-127
-129
-130
-128
-125
-121
-122
-126
-128
-130
-128
-124
-119
-113
-105
-101
-102
-102
-103
-104
-103
-100
-97
-103
-105
-112
-119
-121
-122
-121
-121
-119
-120
-126
-128
-132
-131
-126
-125
-123
-125
-129
-130
-131
-131
-129
-126
-128
-124
-108
-69
-18
41
99
114
156
115
34
-70
-148
-170
-150
-119
-104
-101
-106
-114
-116
-121
-122
-120
-118
-115
-119
-121
-123
-126
-125
-124
-123
-118
-117
-118
-120
-123
-124
-121
-121
-119
-114
-115
-115
-116
-115
-115
-110
-105
-102
-101
-102
-104
-105
-104
-102
-99
-93
-88
-90
-89
-90
-89
-85
-77
-72
-64
-61
-56
-56
-54
-51
-41
-37
-33
-28
-28
-26
-30
-30
-29
-28
-25
-25
-28
-34
-40
-47
-53
-56
-61
-66
-75
-86
-96
-101
-109
-115
-116
-119
-122
-124
-131
-134
-140
-140
-138
-138
-139
-143
-148
-152
-152
-149
-149
-146
-145
-148
-149
-153
-151
-155
-152
-148
-146
-146
-148
-149
-149
-150
-147
-147
-146
-144
-144
-149
-152
-155
-156
-151
-150
-149
-151
-152
-157
-161
-162
-154
-156
-156
-155
-155
-161
-166
-165
-163
-161
-158
-156
-156
-159
-162
-165
-168
-165
-165
-161
-163
-166
-167
-169
-170
-170
-168
-165
-164
-166
-169
-171
-172
-169
-168
-162
-163
-166
-165
-167
-169
-166
-167
-166
-163
-164
-169
-169
-174
-173
-172
-169
-166
-167
-167
-170
-172
-172
-171
-168
-165
-162
-165
-166
-169
-169
-168
-166
-164
-162
-161
-167
-171
-171
-172
-167
-168
-168
-164
-166
-168
-171
-171
-168
-165
-166
-165
-166
-167
-168
-167
-167
-166
-166
-162
-162
-164
-163
-168
-169
-167
-167
-164
-165
-165
-167
-172
-174
-169
-167
-167
-164
-163
-173
-173
-176
-172
-166
-161
-157
-155
-152
-150
-146
-144
-143
-138
-139
-141
-142
-144
-150
-151
-155
-158
-157
-159
-160
-163
-165
-166
-169
-168
-164
-159
-162
-164
-165
-168
-168
-163
-163
-161
-162
-162
-166
-169
-155
-116
-98
1
64
119
137
104
28
-66
-149
-182
-170
-149
-138
-138
-146
-152
-154
-150
-151
-153
-158
-159
-163
-163
-160
-158
-154
-151
-152
-155
-159
-158
-156
-154
-150
-149
-149
-146
-149
-151
-148
-143
-140
-140
-136
-138
-141
-142
-143
-139
-137
-132
-130
-128
-127
-127
-127
-124
-120
-113
-107
-104
-100
-100
-98
-92
-85
-76
-67
-66
-64
-62
-63
-58
-57
-56
-51
-50
-49
-52
-57
-62
-65
-66
-69
-73
-81
-90
-101
-111
-117
-123
-127
-130
-134
-136
-143
-148
-152
-153
-152
-153
-151
-155
-158
-161
-163
-163
-161
-159
-158
-159
-159
-158
-163
-162
-158
-156
-154
-151
-153
-156
-153
-152
-151
-150
-148
-149
-149
-148
-151
-152
-154
-152
-151
-147
-149
-151
-155
-156
-156
-153
-153
-151
-154
-155
-158
-160
-162
-157
-156
-151
-148
-150
-153
-156
-156
-154
-152
-149
-149
-153
-153
-157
-159
-158
-153
-151
-149
-148
-150
-153
-155
-158
-158
-159
-151
-149
-149
-152
-152
-152
-153
-150
-148
-148
-148
-150
-154
-155
-158
-155
-150
-148
-147
-150
-149
-152
-155
-155
-157
-148
-148
-146
-149
-153
-155
-153
-149
-146
-145
-144
-146
-150
-152
-152
-152
-151
-145
-145
-145
-146
-149
-151
-148
-148
-146
-144
-145
-147
-147
-150
-150
-147
-143
-141
-140
-140
-142
-147
-146
-146
-141
-141
-140
-142
-147
-148
-150
-148
-150
-142
-143
-144
-145
-149
-148
-147
-141
-136
-128
-126
-121
-118
-122
-120
-118
-114
-114
-114
-119
-126
-131
-136
-140
-142
-137
-139
-140
-144
-146
-149
-152
-150
-145
-146
-145
-147
-147
-151
-151
-147
-143
-140
-139
-141
-142
-130
-100
-51
-34
59
100
117
91
22
-74
-163
-203
-191
-157
-137
-132
-137
-144
-145
-144
-143
-140
-139
-139
-141
-144
-141
-140
-138
-136
-136
-136
-136
-139
-140
-137
-133
-132
-128
-127
-131
-131
-136
-135
-133
-131
-126
-119
-123
-121
-120
-119
-116
-114
-109
-107
-105
-106
-106
-100
-98
-92
-88
-81
-78
-77
-76
-75
-71
-64
-58
-50
-48
-47
-46
-43
-44
-43
-42
-38
-33
-36
-41
-46
-53
-60
-64
-67
-73
-81
-87
-100
-108
-116
-120
-124
-126
-132
-135
-140
-144
-146
-144
-145
-143
-142
-144
-148
-150
-150
-153
-151
-150
-148
-148
-151
-153
-154
-156
-153
-150
-147
-149
-149
-150
-154
-152
-151
-152
-144
-141
-143
-145
-146
-148
-148
-147
-145
-145
-145
-148
-150
-154
-154
-155
-151
-149
-149
-153
-153
-159
-160
-157
-157
-155
-153
-152
-154
-157
-159
-160
-155
-154
-152
-153
-157
-159
-161
-164
-157
-158
-156
-154
-159
-161
-164
-165
-163
-162
-157
-156
-156
-156
-159
-162
-159
-158
-156
-153
-151
-152
-156
-160
-162
-160
-160
-155
-156
-158
-164
-162
-162
-162
-163
-158
-154
-155
-159
-161
-160
-158
-157
-157
-155
-156
-157
-160
-162
-163
-163
-162
-161
-159
-160
-163
-164
-163
-161
-159
-159
-157
-155
-159
-161
-164
-164
-159
-154
-151
-153
-154
-158
-158
-157
-154
-156
-155
-153
-156
-156
-158
-160
-159
-160
-155
-151
-153
-154
-159
-162
-160
-158
-155
-148
-147
-142
-139
-139
-134
-130
-125
-122
-124
-126
-130
-134
-137
-142
-144
-144
-144
-146
-149
-153
-156
-156
-155
-153
-151
-150
-151
-154
-153
-152
-149
-147
-143
-146
-146
-149
-144
-120
-74
-58
43
108
157
173
135
59
-39
-124
-160
-146
-125
-116
-122
-133
-137
-139
-138
-135
-135
-136
-137
-142
-145
-145
-143
-138
-135
-136
-140
-141
-141
-143
-141
-136
-131
-132
-134
-135
-138
-135
-134
-131
-124
-121
-121
-120
-122
-122
-121
-119
-114
-109
-112
-111
-110
-111
-108
-104
-100
-95
-94
-93
-90
-88
-84
-81
-75
-69
-64
-64
-59
-60
-57
-52
-50
-47
-42
-42
-47
-51
-54
-60
-59
-63
-69
-73
-82
-90
-102
-107
-113
-115
-118
-121
-124
-133
-137
-139
-139
-140
-138
-137
-137
-142
-143
-148
-145
-147
-147
-143
-143
-146
-148
-149
-150
-146
-146
-144
-141
-142
-143
-145
-142
-143
-143
-140
-138
-138
-136
-141
-141
-144
-144
-141
-140
-138
-138
-140
-143
-145
-144
-142
-142
-137
-144
-141
-146
-149
-146
-148
-140
-137
-139
-141
-145
-146
-142
-144
-143
-141
-142
-144
-144
-149
-146
-144
-144
-141
-140
-141
-141
-146
-149
-148
-151
-143
-139
-138
-141
-145
-144
-145
-143
-143
-138
-136
-139
-143
-144
-149
-147
-144
-141
-142
-141
-145
-146
-149
-147
-148
-147
-140
-140
-144
-144
-146
-145
-142
-140
-134
-134
-136
-143
-144
-147
-144
-142
-138
-136
-141
-142
-143
-141
-145
-144
-139
-138
-133
-137
-142
-145
-144
-141
-134
-132
-130
-135
-136
-139
-138
-138
-135
-135
-135
-137
-138
-141
-142
-136
-136
-132
-135
-132
-134
-136
-141
-144
-140
-135
-130
-125
-125
-124
-122
-121
-116
-109
-102
-106
-104
-111
-114
-114
-118
-120
-118
-119
-124
-128
-131
-136
-138
-136
-135
-133
-133
-137
-139
-140
-141
-140
-138
-132
-130
-132
-133
-136
-139
-135
-133
-103
-63
-17
33
71
95
93
52
-16
-106
-177
-202
-182
-153
-139
-132
-131
-128
-121
-123
-125
-130
-134
-132
-133
-125
-122
-121
-125
-127
-127
-127
-128
-127
-121
-121
-124
-123
-122
-123
-121
-116
-114
-110
-109
-111
-110
-111
-110
-108
-104
-98
-98
-100
-99
-102
-100
-96
-90
-83
-81
-80
-79
-79
-74
-69
-64
-55
-50
-47
-42
-41
-35
-33
-31
-22
-18
-18
-18
-21
-23
-27
-27
-30
-31
-37
-48
-58
-68
-80
-86
-95
-98
-104
-109
-117
-122
-126
-132
-132
-132
-134
-136
-139
-143
-146
-150
-147
-146
-145
-148
-147
-148
-150
-151
-156
-152
-149
-145
-145
-147
-149
-150
-151
-150
-142
-142
-143
-143
-144
-147
-150
-146
-145
-145
-147
-148
-150
-151
-151
-155
-150
-148
-148
-149
-150
-155
-155
-156
-153
-151
-150
-146
-152
-152
-156
-156
-151
-151
-151
-147
-150
-156
-156
-160
-160
-156
-152
-152
-153
-156
-158
-161
-161
-160
-156
-151
-153
-155
-154
-156
-156
-155
-151
-150
-151
-150
-152
-157
-157
-156
-154
-150
-150
-151
-155
-158
-155
-159
-158
-152
-150
-152
-154
-153
-154
-154
-151
-148
-146
-148
-149
-149
-153
-155
-153
-154
-155
-151
-152
-155
-156
-158
-158
-159
-157
-154
-150
-153
-156
-157
-157
-154
-155
-150
-147
-147
-148
-151
-152
-150
-147
-146
-148
-149
-152
-151
-152
-153
-152
-147
-147
-147
-147
-149
-153
-155
-151
-149
-148
-146
-148
-146
-143
-143
-136
-130
-122
-120
-119
-118
-122
-125
-125
-127
-125
-126
-126
-132
-139
-142
-144
-143
-142
-139
-138
-141
-143
-141
-145
-144
-140
-139
-134
-137
-141
-143
-150
-149
-151
-118
-76
-28
31
93
146
176
159
102
10
-83
-142
-153
-135
-121
-115
-116
-124
-126
-130
-132
-137
-140
-141
-143
-135
-131
-134
-134
-138
-138
-138
-136
-135
-133
-133
-134
-134
-135
-135
-135
-131
-126
-121
-120
-122
-123
-122
-121
-120
-115
-113
-111
-113
-112
-113
-108
-105
-102
-95
-92
-90
-91
-90
-89
-85
-76
-71
-66
-61
-58
-58
-55
-53
-52
-44
-40
-38
-39
-43
-44
-43
-41
-40
-42
-45
-49
-58
-65
-73
-79
-82
-84
-90
-97
-103
-112
-120
-119
-119
-121
-122
-122
-127
-131
-134
-136
-139
-136
-135
-135
-138
-138
-139
-141
-140
-137
-136
-137
-140
-139
-140
-140
-142
-140
-133
-128
-132
-130
-132
-135
-138
-136
-136
-134
-131
-135
-135
-139
-139
-140
-137
-134
-135
-135
-138
-140
-142
-140
-140
-135
-134
-132
-133
-136
-139
-136
-137
-132
-131
-131
-132
-135
-139
-141
-139
-140
-136
-131
-135
-138
-143
-145
-143
-142
-139
-134
-135
-137
-137
-138
-139
-136
-133
-131
-130
-132
-133
-135
-138
-136
-137
-135
-133
-134
-134
-138
-139
-139
-138
-136
-131
-131
-134
-135
-137
-140
-138
-134
-131
-129
-127
-130
-132
-133
-133
-133
-130
-127
-125
-133
-134
-136
-134
-133
-132
-130
-128
-128
-132
-135
-134
-135
-132
-130
-127
-122
-125
-128
-130
-130
-128
-125
-122
-122
-127
-130
-133
-131
-129
-127
-127
-125
-125
-128
-128
-130
-129
-125
-122
-121
-120
-122
-125
-127
-128
-123
-121
-117
-115
-116
-115
-117
-114
-113
-101
-97
-94
-95
-98
-101
-102
-101
-105
-105
-110
-114
-116
-117
-118
-119
-116
-112
-116
-114
-114
-118
-119
-118
-120
-116
-112
-113
-113
-117
-120
-119
-104
-75
-30
20
72
121
150
146
107
36
-52
-121
-146
-134
-110
-98
-99
-101
-99
-100
-105
-105
-109
-112
-110
-110
-108
-105
-104
-104
-103
-103
-107
-109
-106
-105
-101
-100
-97
-99
-101
-101
-98
-94
-92
-89
-90
-90
-91
-91
-92
-88
-82
-79
-76
-78
-78
-79
-73
-74
-67
-63
-62
-60
-59
-57
-54
-51
-39
-31
-27
-25
-21
-20
-19
-14
-11
-4
-1
2
2
1
-2
1
3
3
3
-4
-9
-16
-20
-27
-28
-38
-43
-46
-56
-64
-73
-78
-82
-81
-84
-86
-91
-97
-101
-101
-103
-102
-100
-101
-102
-103
-106
-108
-107
-109
-104
-102
-99
-102
-104
-106
-106
-100
-94
-97
-95
-96
-99
-98
-99
-99
-98
-96
-95
-96
-97
-99
-104
-106
-105
-102
-100
-99
-102
-102
-104
-105
-104
-99
-97
-96
-97
-101
-102
-103
-104
-101
-99
-97
-99
-102
-103
-108
-107
-105
-101
-99
-100
-102
-103
-106
-108
-108
-106
-100
-97
-99
-99
-100
-102
-102
-101
-98
-95
-99
-100
-104
-107
-105
-103
-102
-100
-101
-100
-103
-103
-105
-104
-103
-101
-97
-99
-101
-98
-104
-103
-95
-97
-95
-94
-97
-101
-104
-107
-106
-101
-96
-98
-98
-104
-104
-104
-106
-104
-101
-98
-98
-99
-101
-104
-105
-100
-98
-95
-97
-96
-98
-103
-104
-104
-100
-96
-99
-96
-99
-103
-106
-103
-104
-102
-100
-101
-102
-103
-103
-95
-85
-78
-73
-72
-71
-72
-77
-76
-79
-79
-82
-86
-89
-96
-97
-98
-98
-99
-98
-95
-96
-99
-103
-105
-105
-103
-102
-96
-97
-98
-96
-99
-102
-103
-87
-58
-12
43
98
148
181
180
138
58
-37
-113
-140
-126
-100
-88
-84
-84
-90
-92
-94
-97
-99
-99
-99
-90
-87
-86
-86
-92
-93
-92
-89
-89
-87
-86
-84
-87
-86
-89
-88
-86
-82
-79
-79
-78
-80
-82
-82
-79
-73
-66
-67
-63
-68
-65
-64
-63
-59
-54
-51
-46
-47
-48
-48
-43
-40
-32
-27
-23
-20
-19
-18
-15
-12
-5
2
5
5
3
5
5
7
8
9
7
2
-6
-15
-24
-32
-36
-42
-50
-56
-63
-72
-79
-87
-87
-89
-91
-92
-98
-100
-102
-105
-103
-102
-99
-97
-101
-105
-109
-110
-111
-109
-108
-106
-108
-108
-112
-109
-111
-111
-107
-107
-104
-106
-109
-109
-109
-108
-101
-98
-94
-97
-98
-99
-100
-101
-102
-98
-97
-99
-99
-105
-107
-108
-107
-104
-103
-102
-103
-108
-109
-111
-110
-109
-107
-102
-103
-106
-106
-110
-107
-103
-103
-102
-101
-103
-107
-113
-115
-113
-109
-109
-107
-107
-111
-115
-115
-113
-109
-107
-104
-105
-108
-113
-110
-111
-107
-102
-101
-102
-104
-106
-106
-108
-106
-105
-103
-103
-104
-108
-108
-110
-109
-106
-103
-102
-104
-106
-108
-108
-107
-105
-102
-101
-100
-97
-102
-106
-105
-107
-100
-100
-100
-105
-107
-108
-107
-108
-107
-103
-102
-101
-103
-105
-108
-109
-106
-104
-99
-99
-99
-103
-103
-104
-104
-99
-95
-96
-101
-102
-102
-103
-105
-103
-102
-99
-100
-100
-100
-100
-102
-95
-85
-80
-79
-75
-77
-77
-78
-78
-73
-75
-73
-78
-86
-92
-97
-96
-97
-94
-94
-96
-101
-101
-103
-108
-105
-101
-99
-98
-97
-100
-103
-102
-101
-100
-87
-54
-8
47
108
162
197
195
138
54
-37
-102
-119
-98
-81
-72
-73
-77
-83
-88
-89
-93
-95
-94
-93
-89
-91
-90
-87
-90
-94
-92
-90
-86
-82
-84
-85
-85
-90
-90
-88
-85
-82
-83
-85
-85
-87
-86
-85
-78
-73
-71
-68
-69
-69
-71
-66
-60
-56
-53
-50
-51
-51
-50
-47
-45
-39
-33
-31
-32
-27
-26
-22
-21
-11
-6
-4
-1
-2
-2
-3
-1
6
7
8
10
6
1
0
-5
-10
-16
-19
-27
-39
-46
-54
-64
-67
-72
-73
-77
-82
-86
-88
-94
-95
-93
-89
-89
-89
-92
-94
-99
-99
-98
-96
-91
-93
-94
-94
-97
-95
-96
-98
-94
-92
-94
-94
-95
-96
-95
-97
-94
-91
-91
-92
-95
-96
-98
-97
-92
-88
-87
-86
-90
-93
-94
-93
-94
-92
-91
-93
-95
-96
-98
-101
-96
-92
-92
-95
-101
-101
-104
-106
-102
-96
-94
-95
-95
-98
-97
-101
-101
-96
-93
-92
-96
-97
-97
-99
-102
-100
-98
-95
-93
-96
-100
-100
-101
-99
-96
-93
-96
-99
-104
-106
-106
-103
-100
-94
-89
-92
-94
-95
-97
-96
-95
-92
-88
-93
-94
-97
-98
-96
-95
-94
-91
-93
-95
-97
-98
-96
-95
-92
-91
-86
-89
-89
-92
-95
-94
-92
-90
-89
-91
-90
-94
-95
-97
-96
-93
-92
-89
-92
-94
-98
-98
-98
-95
-90
-90
-91
-93
-97
-93
-94
-88
-84
-78
-73
-72
-74
-75
-75
-71
-71
-68
-69
-71
-76
-81
-85
-88
-90
-89
-88
-91
-93
-97
-97
-100
-98
-95
-93
-94
-95
-95
-101
-105
-101
-96
-93
-97
-97
-89
-61
-10
8
108
150
157
115
32
-64
-147
-172
-150
-115
-92
-88
-86
-87
-92
-94
-94
-93
-92
-91
-92
-95
-96
-98
-97
-93
-88
-84
-89
-90
-90
-91
-89
-88
-85
-81
-79
-79
-80
-84
-83
-80
-77
-71
-69
-70
-72
-73
-72
-74
-65
-61
-59
-59
-58
-56
-55
-50
-45
-40
-35
-33
-28
-26
-24
-19
-14
-8
-2
2
4
6
4
4
5
11
14
17
11
9
5
1
-4
-7
-10
-16
-26
-36
-46
-55
-62
-67
-69
-74
-77
-83
-91
-97
-100
-102
-104
-106
-101
-108
-110
-114
-114
-118
-112
-111
-110
-111
-113
-116
-118
-118
-116
-114
-113
-112
-110
-110
-112
-114
-113
-111
-106
-104
-107
-111
-112
-113
-114
-112
-109
-108
-105
-109
-115
-117
-115
-117
-114
-109
-111
-113
-115
-118
-117
-115
-113
-111
-108
-113
-115
-116
-121
-122
-118
-117
-118
-115
-118
-121
-123
-121
-124
-122
-117
-120
-120
-123
-124
-126
-127
-122
-119
-115
-116
-118
-120
-123
-123
-119
-116
-113
-116
-118
-121
-122
-125
-123
-120
-118
-118
-118
-122
-123
-124
-123
-121
-120
-119
-116
-116
-119
-121
-119
-119
-116
-116
-114
-116
-120
-121
-123
-123
-119
-119
-117
-118
-120
-119
-122
-123
-122
-119
-116
-118
-121
-122
-120
-122
-117
-115
-113
-114
-116
-118
-119
-120
-120
-119
-116
-115
-116
-119
-122
-121
-121
-118
-116
-119
-118
-122
-118
-121
-118
-109
-102
-98
-89
-90
-90
-92
-93
-93
-91
-90
-91
-96
-100
-106
-112
-113
-111
-110
-107
-110
-112
-117
-122
-121
-118
-114
-110
-110
-111
-115
-114
-112
-114
-112
-112
-104
-72
-28
32
102
126
216
212
143
37
-68
-125
-125
-103
-83
-82
-90
-95
-101
-105
-110
-112
-107
-105
-104
-103
-105
-110
-114
-116
-115
-113
-108
-107
-106
-106
-110
-112
-109
-106
-102
-101
-98
-100
-96
-98
-93
-91
-88
-82
-80
-77
-81
-83
-83
-86
-76
-71
-66
-65
-65
-65
-65
-60
-56
-48
-44
-36
-37
-35
-33
-29
-26
-19
-14
-10
-12
-14
-14
-16
-17
-15
-18
-15
-21
-27
-36
-45
-53
-58
-61
-68
-75
-88
-93
-97
-104
-106
-106
-100
-106
-108
-112
-113
-117
-118
-115
-113
-112
-114
-117
-122
-125
-122
-119
-118
-115
-111
-116
-117
-121
-122
-119
-119
-119
-117
-115
-114
-118
-115
-117
-115
-111
-107
-107
-110
-115
-119
-119
-115
-113
-112
-112
-113
-116
-118
-121
-118
-118
-116
-114
-117
-119
-121
-122
-123
-116
-114
-114
-113
-114
-119
-118
-121
-120
-117
-115
-116
-120
-120
-122
-123
-124
-120
-120
-117
-115
-120
-120
-125
-125
-119
-116
-113
-112
-113
-116
-118
-118
-115
-114
-112
-111
-113
-116
-120
-121
-122
-117
-116
-115
-116
-118
-119
-122
-121
-120
-118
-112
-111
-111
-115
-116
-117
-114
-111
-109
-111
-110
-112
-117
-118
-117
-113
-113
-113
-113
-115
-116
-117
-117
-114
-113
-111
-108
-110
-112
-112
-112
-114
-110
-106
-102
-107
-111
-110
-108
-113
-111
-107
-109
-109
-113
-117
-117
-115
-110
-108
-99
-96
-92
-91
-90
-90
-85
-81
-80
-76
-78
-83
-86
-91
-93
-96
-97
-97
-100
-104
-107
-111
-112
-110
-108
-106
-106
-109
-112
-112
-110
-109
-106
-104
-103
-105
-105
-89
-57
0
61
115
149
148
104
24
-76
-106
-176
-151
-117
-99
-97
-100
-105
-102
-104
-101
-98
-101
-98
-98
-99
-97
-96
-94
-91
-88
-89
-91
-91
-94
-93
-89
-89
-87
-84
-87
-88
-92
-90
-87
-79
-77
-74
-77
-75
-73
-74
-74
-66
-62
-56
-51
-49
-47
-49
-48
-39
-35
-32
-30
-26
-21
-19
-14
-7
0
7
11
13
15
15
20
18
23
29
28
26
20
17
6
2
-2
-8
-16
-28
-39
-50
-56
-66
-69
-73
-77
-82
-88
-94
-97
-104
-103
-104
-105
-103
-105
-106
-108
-109
-110
-110
-105
-103
-106
-108
-111
-114
-112
-113
-109
-107
-106
-104
-110
-113
-114
-114
-109
-107
-109
-110
-112
-111
-113
-112
-112
-106
-102
-105
-107
-109
-115
-115
-114
-110
-109
-109
-112
-120
-120
-120
-119
-121
-118
-113
-118
-120
-122
-124
-125
-123
-120
-115
-114
-117
-118
-121
-123
-120
-119
-116
-116
-116
-121
-126
-127
-124
-123
-119
-120
-120
-120
-123
-125
-123
-122
-119
-114
-117
-117
-117
-121
-121
-120
-117
-116
-115
-115
-117
-121
-125
-123
-120
-118
-116
-118
-118
-119
-123
-124
-122
-119
-119
-117
-117
-118
-119
-119
-117
-115
-111
-110
-113
-114
-116
-120
-117
-115
-116
-113
-114
-116
-118
-120
-119
-118
-114
-114
-113
-114
-116
-119
-119
-117
-116
-113
-111
-114
-115
-116
-115
-116
-107
-100
-94
-92
-91
-92
-93
-94
-92
-89
-90
-96
-101
-105
-112
-116
-115
-112
-108
-108
-109
-114
-118
-118
-116
-114
-112
-112
-112
-114
-118
-120
-122
-119
-116
-105
-77
-36
14
72
131
190
214
197
129
32
-69
-125
-132
-105
-85
-79
-85
-97
-103
-109
-110
-109
-110
-108
-110
-108
-108
-111
-113
-111
-112
-108
-106
-106
-103
-105
-105
-106
-104
-101
-96
-93
-95
-93
-93
-96
-97
-92
-90
-87
-85
-85
-87
-88
-86
-86
-79
-76
-73
-70
-71
-68
-70
-61
-55
-51
-45
-38
-39
-37
-36
-33
-27
-19
-16
-13
-16
-14
-16
-14
-12
-11
-10
-10
-12
-19
-26
-35
-37
-44
-48
-55
-64
-72
-77
-85
-85
-94
-97
-100
-102
-106
-111
-116
-119
-121
-119
-118
-117
-118
-123
-123
-125
-124
-120
-122
-119
-120
-123
-127
-123
-126
-121
-118
-117
-116
-118
-122
-124
-125
-123
-119
-118
-115
-115
-119
-123
-125
-122
-122
-119
-115
-121
-121
-122
-124
-124
-123
-119
-116
-114
-117
-120
-124
-123
-126
-122
-122
-120
-123
-126
-128
-130
-125
-126
-125
-123
-122
-124
-124
-128
-128
-128
-120
-121
-119
-120
-122
-126
-125
-123
-121
-116
-120
-121
-122
-124
-128
-127
-126
-120
-120
-122
-122
-124
-127
-128
-125
-126
-124
-121
-120
-124
-127
-124
-122
-120
-117
-118
-119
-119
-125
-126
-127
-124
-119
-117
-121
-120
-121
-127
-128
-123
-121
-119
-119
-121
-124
-125
-126
-124
-120
-117
-115
-117
-118
-120
-123
-124
-122
-118
-118
-117
-119
-120
-124
-125
-123
-120
-120
-120
-122
-125
-124
-121
-119
-113
-107
-102
-100
-96
-95
-97
-95
-93
-93
-91
-95
-95
-101
-107
-109
-113
-115
-114
-112
-114
-117
-120
-122
-121
-119
-117
-116
-118
-122
-122
-124
-123
-120
-115
-115
-115
-116
-104
-68
-53
37
98
152
179
163
101
16
-79
-143
-145
-123
-99
-93
-101
-108
-110
-111
-108
-106
-105
-106
-107
-114
-114
-115
-115
-113
-112
-110
-109
-111
-110
-112
-110
-105
-106
-101
-104
-107
-108
-108
-104
-101
-95
-90
-90
-90
-90
-92
-90
-85
-81
-78
-75
-76
-77
-78
-78
-73
-68
-65
-60
-58
-55
-54
-50
-46
-36
-30
-28
-23
-21
-16
-19
-17
-14
-7
-5
-3
-3
-7
-9
-14
-20
-21
-23
-31
-39
-48
-61
-72
-80
-85
-86
-88
-97
-102
-105
-111
-112
-111
-111
-111
-113
-116
-119
-121
-125
-124
-120
-118
-116
-116
-118
-118
-117
-120
-118
-118
-114
-115
-118
-119
-119
-117
-117
-114
-112
-110
-109
-110
-113
-112
-112
-108
-108
-108
-111
-113
-118
-118
-118
-116
-117
-115
-115
-114
-120
-122
-121
-121
-115
-113
-111
-110
-115
-121
-124
-123
-122
-118
-115
-117
-121
-123
-127
-129
-126
-123
-118
-118
-116
-119
-122
-123
-119
-119
-117
-117
-119
-119
-122
-118
-118
-113
-114
-114
-115
-117
-120
-121
-123
-123
-117
-115
-115
-115
-117
-121
-120
-120
-117
-115
-120
-116
-120
-123
-122
-126
-122
-120
-114
-114
-113
-117
-120
-121
-119
-117
-114
-113
-115
-119
-119
-119
-120
-117
-114
-112
-115
-114
-117
-119
-117
-111
-107
-104
-110
-110
-117
-117
-118
-113
-110
-105
-106
-101
-100
-97
-96
-91
-89
-86
-86
-88
-92
-96
-102
-105
-107
-108
-105
-110
-112
-114
-114
-115
-112
-112
-110
-111
-115
-118
-121
-121
-121
-115
-114
-113
-116
-117
-117
-97
-55
0
61
111
136
124
67
-26
-124
-181
-177
-139
-112
-104
-108
-113
-114
-113
-112
-112
-111
-113
-114
-116
-117
-115
-114
-113
-108
-108
-110
-112
-112
-109
-106
-101
-96
-97
-99
-96
-100
-99
-98
-96
-90
-90
-88
-91
-93
-92
-90
-82
-78
-75
-73
-74
-71
-70
-66
-61
-52
-47
-45
-39
-38
-33
-30
-25
-21
-15
-9
-9
-7
-10
-7
-8
-2
-1
-2
-5
-9
-16
-22
-30
-34
-37
-42
-48
-59
-68
-77
-80
-89
-91
-95
-97
-104
-107
-115
-120
-120
-120
-119
-121
-123
-123
-128
-128
-128
-129
-126
-125
-125
-123
-128
-129
-130
-122
-124
-119
-119
-121
-124
-125
-125
-126
-124
-120
-120
-120
-123
-125
-126
-127
-125
-123
-121
-121
-121
-124
-128
-126
-126
-123
-123
-120
-122
-125
-128
-131
-133
-128
-128
-124
-126
-128
-132
-135
-136
-134
-130
-128
-128
-130
-132
-134
-133
-131
-126
-123
-123
-124
-125
-126
-131
-130
-127
-127
-124
-125
-129
-131
-133
-134
-131
-127
-122
-125
-125
-130
-130
-132
-131
-129
-123
-120
-122
-125
-127
-129
-128
-126
-123
-122
-123
-129
-127
-134
-131
-128
-125
-121
-126
-125
-125
-129
-128
-129
-125
-120
-119
-120
-123
-125
-125
-125
-123
-120
-119
-122
-121
-125
-127
-130
-126
-123
-122
-121
-124
-128
-128
-128
-126
-122
-122
-119
-120
-124
-126
-128
-124
-121
-116
-111
-112
-107
-110
-105
-101
-97
-95
-92
-95
-97
-98
-102
-103
-109
-112
-110
-111
-116
-115
-118
-121
-122
-120
-116
-115
-116
-117
-121
-126
-124
-122
-117
-117
-118
-117
-122
-124
-126
-103
-65
-19
38
98
156
194
190
140
54
-40
-109
-128
-114
-98
-91
-99
-104
-112
-110
-112
-112
-117
-120
-119
-117
-117
-115
-113
-116
-117
-117
-116
-116
-113
-112
-106
-107
-109
-109
-108
-110
-105
-103
-97
-96
-100
-99
-103
-105
-103
-98
-93
-92
-94
-90
-91
-91
-88
-84
-77
-76
-75
-73
-74
-73
-68
-64
-55
-51
-45
-44
-43
-42
-40
-34
-30
-27
-24
-24
-23
-24
-24
-24
-21
-18
-22
-25
-32
-40
-46
-54
-61
-62
-64
-71
-78
-89
-93
-95
-102
-100
-102
-104
-111
-115
-118
-124
-123
-120
-120
-118
-119
-121
-126
-127
-127
-125
-121
-121
-120
-120
-120
-122
-124
-120
-120
-116
-114
-115
-120
-122
-123
-125
-123
-120
-115
-116
-119
-121
-126
-123
-123
-120
-117
-118
-122
-124
-122
-122
-123
-120
-114
-115
-119
-120
-123
-126
-125
-122
-120
-120
-123
-124
-125
-127
-127
-122
-120
-121
-120
-121
-123
-124
-125
-123
-121
-117
-118
-118
-119
-123
-122
-121
-120
-117
-117
-115
-115
-119
-121
-119
-119
-119
-116
-117
-121
-122
-121
-123
-123
-120
-115
-114
-117
-119
-117
-120
-119
-116
-112
-113
-112
-116
-120
-122
-118
-116
-115
-113
-113
-116
-117
-119
-120
-118
-116
-113
-110
-111
-110
-112
-112
-114
-111
-108
-108
-112
-113
-116
-117
-116
-115
-111
-111
-112
-112
-115
-119
-119
-120
-112
-110
-111
-110
-113
-114
-115
-114
-110
-106
-102
-103
-99
-102
-101
-92
-87
-81
-79
-76
-77
-83
-84
-85
-89
-89
-92
-93
-97
-102
-107
-106
-104
-102
-100
-97
-99
-99
-105
-106
-108
-108
-106
-99
-101
-100
-103
-106
-108
-84
-41
2
50
90
125
137
119
64
-16
-101
-153
-155
-131
-102
-92
-93
-93
-90
-89
-89
-93
-97
-99
-101
-98
-93
-93
-89
-89
-93
-94
-97
-95
-95
-93
-89
-91
-86
-87
-84
-83
-80
-77
-73
-75
-76
-79
-78
-77
-73
-70
-64
-64
-60
-60
-65
-61
-59
-56
-48
-45
-42
-42
-40
-37
-30
-25
-16
-12
-4
0
1
3
3
9
14
20
21
23
20
19
16
15
12
12
10
2
-7
-14
-26
-34
-41
-43
-47
-54
-60
-70
-77
-79
-84
-85
-85
-90
-90
-95
-100
-104
-105
-104
-102
-101
-103
-103
-106
-108
-111
-108
-103
-102
-100
-100
-104
-103
-105
-105
-104
-102
-102
-102
-103
-108
-108
-106
-106
-104
-103
-103
-104
-108
-110
-110
-109
-107
-105
-104
-103
-102
-104
-107
-106
-104
-101
-100
-102
-104
-106
-111
-110
-108
-106
-104
-107
-109
-112
-117
-116
-113
-111
-107
-108
-110
-107
-114
-114
-115
-111
-104
-106
-107
-108
-113
-114
-114
-111
-110
-106
-109
-113
-114
-117
-116
-115
-112
-112
-111
-110
-111
-115
-118
-115
-113
-108
-104
-106
-111
-109
-114
-115
-113
-111
-110
-110
-113
-115
-116
-117
-115
-113
-111
-110
-110
-112
-116
-118
-115
-113
-105
-106
-107
-109
-115
-114
-113
-113
-110
-108
-107
-109
-116
-115
-116
-114
-115
-112
-112
-115
-119
-119
-120
-114
-106
-97
-92
-87
-88
-87
-91
-88
-85
-86
-85
-91
-94
-101
-109
-111
-110
-109
-109
-105
-111
-115
-117
-116
-119
-116
-116
-112
-113
-115
-115
-115
-116
-112
-113
-110
-93
-56
-7
51
120
180
203
178
104
4
-94
-141
-147
-108
-90
-84
-90
-101
-106
-106
-112
-112
-107
-107
-106
-106
-104
-106
-111
-114
-112
-110
-106
-104
-106
-106
-110
-112
-110
-107
-106
-101
-100
-102
-104
-104
-100
-96
-91
-88
-88
-89
-90
-88
-91
-88
-82
-80
-78
-75
-80
-77
-76
-73
-67
-61
-56
-50
-49
-49
-49
-46
-38
-33
-27
-22
-21
-20
-23
-20
-16
-18
-14
-14
-18
-22
-30
-33
-40
-47
-51
-58
-69
-75
-89
-94
-102
-103
-105
-106
-110
-111
-114
-122
-123
-121
-122
-119
-119
-123
-125
-132
-133
-133
-131
-129
-127
-127
-129
-132
-135
-134
-131
-128
-126
-127
-128
-129
-133
-132
-126
-125
-122
-122
-122
-127
-128
-129
-128
-128
-128
-126
-124
-129
-130
-134
-136
-134
-132
-133
-132
-134
-134
-136
-140
-138
-135
-131
-133
-131
-134
-137
-139
-138
-137
-135
-132
-137
-138
-143
-142
-143
-138
-137
-136
-137
-137
-141
-142
-145
-144
-140
-139
-138
-139
-139
-140
-143
-142
-137
-137
-133
-138
-138
-143
-144
-144
-143
-141
-139
-140
-143
-145
-145
-149
-147
-144
-143
-140
-141
-143
-145
-146
-142
-141
-138
-138
-140
-144
-144
-150
-150
-149
-146
-143
-143
-145
-148
-151
-155
-154
-149
-146
-146
-147
-150
-152
-152
-152
-147
-144
-142
-146
-149
-152
-157
-154
-155
-150
-151
-149
-151
-155
-158
-158
-157
-153
-150
-150
-154
-159
-159
-160
-157
-153
-146
-142
-135
-133
-132
-134
-133
-133
-130
-128
-133
-133
-141
-144
-146
-148
-150
-149
-151
-155
-157
-157
-157
-158
-158
-155
-154
-151
-153
-159
-161
-158
-156
-153
-150
-149
-153
-152
-130
-88
-32
35
98
142
141
93
13
-16
-151
-179
-166
-141
-130
-134
-143
-148
-149
-149
-145
-148
-148
-150
-153
-153
-154
-154
-152
-151
-148
-149
-151
-152
-154
-152
-147
-145
-143
-145
-144
-147
-147
-146
-146
-140
-138
-135
-137
-137
-136
-134
-133
-130
-128
-126
-125
-125
-123
-125
-119
-114
-111
-105
-101
-97
-96
-94
-92
-81
-77
-66
-63
-64
-60
-60
-57
-54
-50
-48
-50
-51
-53
-55
-57
-61
-63
-67
-73
-76
-89
-98
-109
-115
-120
-122
-126
-129
-132
-140
-146
-147
-152
-151
-148
-145
-149
-152
-157
-159
-158
-156
-152
-150
-149
-154
-156
-157
-159
-155
-153
-150
-151
-150
-152
-153
-153
-151
-147
-146
-142
-144
-148
-150
-151
-151
-151
-148
-148
-146
-147
-150
-149
-152
-152
-152
-147
-145
-147
-148
-154
-153
-151
-150
-147
-146
-146
-151
-156
-158
-156
-153
-152
-150
-149
-150
-152
-154
-155
-154
-152
-146
-146
-146
-154
-157
-157
-153
-152
-148
-146
-145
-147
-148
-147
-146
-147
-146
-144
-143
-147
-152
-152
-151
-150
-147
-144
-145
-148
-148
-150
-152
-151
-147
-140
-137
-139
-141
-145
-145
-147
-143
-137
-136
-139
-144
-148
-149
-149
-144
-143
-140
-139
-144
-144
-146
-148
-146
-140
-139
-139
-141
-140
-144
-141
-140
-142
-137
-134
-136
-139
-142
-143
-144
-144
-142
-141
-142
-141
-143
-142
-138
-133
-124
-117
-113
-115
-119
-117
-115
-117
-115
-112
-115
-121
-127
-133
-133
-136
-136
-134
-133
-134
-134
-140
-142
-144
-143
-139
-139
-136
-137
-142
-139
-140
-140
-138
-124
-96
-55
-3
49
86
106
90
41
-38
-128
-194
-209
-185
-152
-137
-132
-131
-129
-130
-131
-134
-136
-138
-137
-129
-124
-127
-129
-130
-132
-133
-134
-127
-127
-125
-128
-129
-131
-131
-129
-125
-123
-118
-119
-120
-120
-122
-120
-115
-111
-108
-105
-105
-107
-107
-106
-100
-92
-89
-88
-86
-86
-86
-82
-77
-71
-63
-59
-56
-58
-54
-52
-47
-40
-34
-28
-26
-29
-27
-26
-27
-24
-22
-23
-22
-27
-34
-45
-52
-57
-62
-69
-77
-88
-96
-105
-107
-118
-121
-124
-125
-131
-136
-138
-140
-141
-141
-137
-135
-136
-138
-143
-144
-146
-145
-141
-143
-139
-140
-143
-146
-145
-145
-143
-142
-138
-139
-141
-139
-143
-145
-144
-138
-134
-132
-137
-137
-140
-142
-141
-139
-136
-135
-136
-140
-141
-143
-143
-142
-141
-137
-138
-144
-148
-149
-149
-145
-144
-142
-142
-144
-143
-146
-146
-146
-144
-142
-139
-142
-143
-146
-147
-151
-150
-147
-145
-147
-149
-148
-154
-153
-151
-146
-145
-143
-145
-149
-149
-149
-146
-145
-141
-140
-138
-139
-143
-144
-147
-144
-143
-140
-140
-142
-145
-146
-145
-144
-143
-139
-141
-145
-145
-145
-149
-148
-146
-141
-140
-140
-143
-145
-146
-142
-140
-139
-139
-138
-142
-145
-148
-146
-144
-142
-139
-143
-140
-144
-148
-149
-147
-144
-142
-139
-143
-141
-142
-141
-143
-138
-139
-136
-136
-138
-142
-143
-145
-147
-145
-145
-142
-140
-139
-138
-139
-131
-124
-119
-115
-116
-119
-118
-121
-122
-121
-121
-122
-125
-131
-135
-139
-138
-137
-137
-134
-134
-135
-139
-141
-144
-142
-142
-137
-137
-137
-139
-140
-141
-144
-143
-134
-111
-74
-21
39
107
162
186
159
83
-18
-110
-149
-143
-120
-108
-105
-112
-117
-123
-128
-129
-131
-135
-132
-128
-126
-127
-126
-125
-129
-132
-129
-127
-127
-125
-127
-130
-135
-132
-130
-126
-121
-120
-117
-117
-120
-122
-121
-117
-113
-107
-110
-110
-111
-110
-106
-104
-98
-97
-93
-92
-91
-89
-88
-89
-80
-75
-68
-66
-67
-61
-59
-56
-49
-45
-39
-39
-40
-40
-40
-41
-41
-39
-41
-41
-47
-56
-67
-73
-82
-83
-86
-90
-100
-111
-113
-116
-123
-126
-126
-126
-130
-134
-136
-138
-138
-140
-134
-131
-130
-132
-136
-137
-137
-138
-136
-134
-130
-132
-136
-138
-137
-139
-136
-135
-129
-136
-135
-137
-138
-139
-137
-132
-129
-128
-129
-131
-133
-131
-132
-132
-130
-128
-130
-133
-135
-136
-140
-138
-136
-133
-134
-135
-135
-140
-139
-137
-138
-131
-132
-130
-134
-135
-135
-131
-130
-130
-128
-132
-137
-136
-137
-140
-138
-135
-133
-132
-133
-135
-136
-138
-138
-136
-133
-133
-133
-135
-136
-136
-131
-130
-129
-127
-126
-127
-131
-132
-134
-133
-131
-129
-129
-133
-134
-135
-136
-133
-132
-128
-129
-131
-130
-132
-131
-132
-127
-126
-122
-123
-125
-129
-130
-131
-128
-125
-126
-121
-125
-126
-133
-132
-128
-126
-124
-123
-123
-126
-130
-129
-127
-124
-121
-116
-119
-120
-121
-122
-124
-127
-126
-121
-122
-121
-124
-121
-118
-111
-102
-98
-94
-95
-100
-100
-102
-101
-103
-103
-100
-106
-109
-116
-117
-119
-119
-116
-116
-119
-123
-122
-123
-123
-124
-121
-121
-119
-121
-120
-124
-121
-121
-111
-80
-40
9
59
94
104
107
66
-8
-94
-168
-189
-172
-141
-124
-118
-117
-115
-113
-110
-114
-116
-117
-117
-115
-112
-109
-106
-109
-112
-112
-110
-106
-103
-99
-99
-99
-103
-104
-104
-102
-97
-95
-91
-92
-92
-93
-94
-94
-90
-83
-82
-80
-77
-77
-78
-73
-68
-62
-59
-49
-52
-50
-50
-46
-41
-35
-26
-23
-21
-15
-15
-15
-8
-3
4
7
6
4
6
5
-1
0
1
-5
-13
-20
-33
-43
-53
-61
-66
-71
-77
-88
-95
-102
-107
-108
-110
-112
-112
-115
-117
-123
-124
-126
-126
-123
-120
-117
-121
-121
-126
-127
-125
-122
-120
-121
-123
-126
-127
-129
-130
-127
-125
-121
-125
-125
-127
-126
-125
-125
-123
-121
-120
-120
-123
-124
-125
-122
-122
-119
-120
-120
-124
-128
-128
-129
-128
-126
-121
-125
-128
-129
-130
-135
-130
-128
-125
-123
-126
-130
-130
-127
-129
-125
-125
-123
-124
-124
-130
-132
-132
-129
-128
-126
-127
-129
-131
-133
-133
-133
-129
-127
-129
-127
-129
-130
-132
-130
-127
-126
-125
-126
-129
-135
-134
-134
-135
-131
-130
-131
-129
-135
-138
-138
-136
-132
-129
-130
-133
-132
-136
-137
-133
-133
-126
-126
-127
-126
-128
-130
-129
-123
-124
-120
-123
-124
-129
-131
-130
-128
-126
-125
-124
-127
-126
-131
-132
-128
-125
-124
-123
-126
-126
-128
-130
-130
-128
-128
-122
-119
-121
-118
-116
-113
-108
-103
-96
-96
-96
-100
-104
-105
-108
-107
-110
-109
-113
-118
-122
-124
-125
-122
-118
-117
-119
-123
-123
-125
-126
-125
-124
-123
-124
-124
-125
-129
-130
-129
-119
-94
-49
3
66
132
184
210
183
119
27
-65
-124
-131
-127
-93
-92
-97
-105
-108
-114
-119
-121
-123
-123
-121
-117
-118
-117
-120
-125
-126
-123
-124
-119
-117
-114
-117
-116
-116
-117
-115
-110
-106
-102
-105
-109
-109
-110
-108
-106
-101
-100
-98
-100
-101
-102
-99
-97
-90
-84
-84
-82
-80
-81
-71
-65
-60
-55
-52
-48
-46
-49
-48
-39
-39
-33
-30
-25
-27
-27
-28
-29
-27
-23
-25
-27
-31
-39
-41
-52
-56
-61
-65
-72
-82
-93
-99
-107
-111
-113
-113
-114
-116
-122
-128
-128
-128
-127
-125
-123
-126
-126
-129
-131
-132
-131
-129
-126
-125
-123
-127
-128
-129
-128
-126
-122
-122
-123
-125
-130
-128
-129
-125
-121
-120
-121
-121
-123
-124
-128
-123
-123
-120
-118
-121
-122
-121
-124
-126
-123
-120
-121
-122
-122
-125
-125
-127
-123
-124
-121
-124
-127
-125
-126
-129
-129
-125
-123
-123
-122
-124
-125
-126
-124
-119
-117
-116
-119
-119
-124
-127
-124
-124
-122
-119
-122
-123
-129
-128
-126
-124
-122
-119
-121
-120
-122
-124
-121
-119
-117
-113
-112
-114
-116
-122
-123
-123
-120
-118
-117
-117
-117
-119
-120
-122
-122
-118
-115
-114
-117
-119
-121
-122
-121
-116
-113
-110
-114
-115
-117
-116
-116
-115
-114
-114
-113
-115
-115
-116
-118
-116
-116
-111
-112
-111
-113
-115
-117
-116
-111
-109
-107
-107
-107
-109
-109
-104
-99
-95
-88
-84
-82
-84
-85
-87
-82
-82
-85
-86
-92
-99
-102
-107
-106
-104
-102
-102
-102
-104
-109
-111
-111
-106
-106
-106
-106
-109
-112
-111
-111
-110
-110
-98
-75
-29
22
77
120
138
118
48
-46
-134
-164
-148
-117
-95
-91
-93
-97
-95
-95
-100
-102
-106
-101
-102
-99
-98
-98
-95
-99
-100
-100
-99
-94
-91
-86
-91
-93
-92
-93
-87
-83
-81
-78
-77
-79
-80
-80
-80
-74
-72
-68
-72
-72
-71
-70
-65
-60
-56
-51
-51
-48
-46
-47
-42
-32
-22
-16
-9
-8
-10
-11
-5
4
8
15
19
19
15
16
14
14
18
17
14
9
1
-7
-16
-25
-27
-36
-40
-50
-54
-64
-68
-80
-84
-85
-87
-89
-95
-100
-103
-107
-109
-106
-108
-105
-107
-108
-111
-115
-114
-112
-108
-107
-107
-109
-108
-107
-110
-109
-106
-103
-102
-106
-108
-109
-109
-109
-107
-104
-104
-105
-104
-109
-112
-112
-108
-108
-106
-106
-108
-111
-112
-111
-109
-106
-107
-108
-107
-112
-114
-119
-119
-118
-115
-115
-117
-120
-121
-123
-124
-124
-120
-121
-117
-119
-124
-124
-124
-121
-118
-117
-116
-117
-119
-122
-123
-123
-121
-122
-117
-120
-121
-125
-124
-123
-123
-121
-118
-117
-120
-121
-121
-122
-119
-116
-115
-113
-116
-116
-121
-121
-122
-120
-117
-117
-117
-119
-123
-126
-124
-119
-118
-117
-118
-117
-119
-120
-125
-124
-120
-116
-113
-116
-118
-122
-121
-123
-122
-118
-116
-117
-119
-122
-124
-124
-122
-121
-117
-120
-123
-125
-124
-125
-123
-113
-103
-99
-94
-97
-97
-99
-97
-98
-97
-96
-99
-105
-111
-116
-121
-121
-118
-117
-117
-120
-123
-124
-129
-127
-124
-122
-120
-121
-123
-122
-123
-123
-120
-117
-119
-114
-100
-69
-22
33
94
151
187
185
136
54
26
-120
-148
-131
-106
-97
-97
-107
-116
-119
-118
-115
-115
-113
-117
-117
-121
-121
-121
-119
-116
-113
-113
-116
-118
-120
-122
-117
-116
-114
-108
-112
-111
-116
-114
-111
-110
-103
-99
-99
-99
-100
-97
-98
-94
-90
-86
-86
-87
-88
-87
-84
-80
-77
-71
-67
-65
-67
-61
-59
-57
-50
-44
-38
-33
-33
-28
-29
-28
-23
-19
-18
-17
-18
-23
-26
-33
-37
-39
-44
-50
-60
-70
-79
-89
-96
-98
-101
-104
-111
-116
-121
-125
-125
-127
-124
-122
-125
-128
-131
-134
-140
-139
-136
-134
-130
-132
-132
-134
-137
-138
-137
-135
-132
-132
-130
-130
-134
-133
-128
-126
-124
-125
-124
-126
-129
-130
-131
-128
-126
-127
-126
-129
-130
-133
-131
-133
-130
-130
-130
-130
-137
-138
-137
-137
-133
-127
-128
-130
-131
-133
-134
-134
-134
-130
-130
-132
-135
-136
-137
-138
-136
-134
-133
-129
-133
-136
-138
-139
-137
-133
-130
-128
-129
-132
-134
-132
-134
-130
-129
-124
-130
-133
-136
-136
-137
-135
-131
-130
-130
-133
-137
-137
-137
-135
-131
-128
-129
-130
-131
-132
-132
-134
-129
-129
-127
-128
-135
-135
-138
-137
-136
-133
-131
-129
-134
-135
-137
-135
-135
-132
-129
-129
-130
-132
-133
-134
-132
-124
-121
-119
-122
-125
-130
-129
-129
-129
-124
-123
-123
-124
-126
-126
-130
-125
-123
-124
-123
-124
-127
-129
-127
-120
-114
-108
-105
-101
-97
-96
-95
-97
-98
-95
-95
-95
-101
-106
-111
-119
-120
-120
-117
-120
-123
-126
-127
-126
-124
-121
-119
-113
-117
-121
-123
-122
-118
-120
-118
-115
-104
-74
-28
25
83
141
181
181
134
50
-45
-74
-138
-123
-98
-86
-85
-92
-100
-107
-110
-107
-106
-105
-103
-105
-106
-111
-112
-110
-108
-106
-103
-102
-100
-102
-103
-106
-104
-102
-97
-91
-93
-95
-94
-95
-94
-91
-87
-82
-83
-84
-87
-87
-86
-81
-75
-71
-70
-68
-69
-67
-66
-64
-53
-51
-45
-43
-39
-36
-34
-29
-23
-18
-10
-9
-6
-6
-8
-7
-8
-6
-1
-2
-4
-11
-12
-23
-28
-34
-41
-45
-56
-66
-77
-82
-86
-89
-88
-91
-95
-98
-103
-105
-107
-112
-107
-107
-108
-111
-112
-115
-116
-116
-114
-113
-112
-113
-114
-115
-113
-113
-109
-103
-101
-103
-105
-108
-110
-110
-108
-107
-103
-102
-106
-110
-111
-109
-113
-109
-108
-105
-107
-111
-111
-112
-112
-113
-104
-99
-102
-105
-105
-109
-112
-111
-106
-105
-104
-107
-108
-109
-115
-117
-114
-111
-108
-109
-110
-113
-114
-115
-114
-109
-107
-107
-108
-109
-111
-111
-110
-104
-102
-103
-104
-110
-112
-112
-113
-107
-104
-105
-106
-107
-111
-114
-112
-112
-112
-108
-108
-106
-110
-107
-107
-104
-101
-100
-101
-104
-108
-107
-110
-111
-110
-107
-102
-104
-105
-109
-109
-112
-106
-103
-103
-104
-107
-113
-108
-108
-107
-105
-99
-98
-102
-103
-105
-109
-107
-105
-103
-103
-103
-105
-111
-114
-112
-110
-108
-100
-99
-95
-91
-91
-91
-86
-82
-80
-76
-75
-75
-76
-81
-85
-88
-90
-93
-98
-97
-103
-104
-107
-107
-105
-104
-103
-107
-109
-114
-116
-114
-113
-108
-107
-108
-107
-109
-109
-95
-59
-8
53
103
143
151
122
45
-49
-130
-165
-148
-118
-101
-98
-103
-104
-104
-99
-100
-101
-104
-106
-108
-104
-104
-99
-96
-98
-99
-100
-97
-102
-98
-97
-95
-93
-95
-95
-95
-97
-93
-89
-88
-85
-88
-85
-84
-84
-83
-76
-71
-68
-66
-67
-66
-66
-66
-63
-57
-54
-52
-54
-52
-52
-52
-45
-38
-30
-28
-27
-25
-24
-21
-16
-10
-6
0
5
1
4
1
4
5
9
7
3
-6
-16
-24
-35
-38
-45
-49
-56
-65
-73
-77
-91
-94
-98
-99
-100
-101
-105
-111
-111
-111
-110
-109
-108
-107
-112
-116
-117
-119
-118
-116
-115
-114
-114
-116
-119
-122
-118
-118
-114
-114
-111
-112
-114
-114
-115
-107
-107
-107
-104
-107
-109
-110
-114
-110
-109
-111
-109
-108
-113
-115
-119
-119
-118
-113
-113
-114
-116
-121
-120
-121
-119
-118
-115
-113
-115
-117
-118
-121
-117
-116
-113
-113
-115
-117
-120
-121
-121
-119
-119
-116
-119
-120
-123
-123
-123
-121
-119
-117
-117
-118
-119
-120
-120
-119
-117
-111
-112
-113
-117
-119
-120
-123
-119
-116
-114
-114
-113
-120
-121
-122
-123
-120
-118
-117
-119
-122
-123
-122
-118
-118
-116
-112
-115
-117
-115
-118
-119
-116
-117
-112
-114
-113
-115
-117
-120
-118
-114
-115
-113
-116
-117
-121
-120
-118
-115
-113
-109
-110
-111
-115
-118
-119
-119
-118
-114
-112
-115
-121
-123
-123
-118
-113
-109
-108
-105
-102
-101
-95
-92
-88
-83
-81
-86
-89
-89
-96
-98
-98
-104
-104
-108
-108
-111
-113
-117
-116
-116
-113
-114
-119
-121
-124
-126
-122
-120
-117
-114
-112
-116
-118
-103
-67
-9
59
134
199
228
188
101
-14
-100
-127
-107
-87
-77
-85
-98
-103
-106
-106
-106
-104
-104
-104
-106
-109
-104
-107
-104
-100
-102
-103
-105
-108
-108
-105
-102
-98
-96
-101
-99
-101
-102
-99
-98
-95
-92
-93
-90
-91
-90
-87
-82
-80
-75
-74
-74
-74
-75
-75
-70
-65
-58
-59
-54
-57
-52
-51
-46
-41
-35
-31
-25
-25
-25
-25
-18
-16
-9
-4
-6
-7
-12
-14
-18
-18
-21
-27
-35
-38
-48
-60
-66
-74
-80
-84
-87
-96
-101
-104
-111
-113
-114
-112
-108
-110
-114
-116
-119
-121
-119
-116
-116
-112
-116
-119
-124
-122
-120
-118
-114
-114
-115
-116
-117
-120
-121
-118
-112
-110
-111
-113
-114
-116
-112
-112
-109
-109
-107
-110
-113
-117
-118
-117
-111
-113
-111
-114
-115
-118
-119
-123
-119
-114
-116
-113
-117
-121
-123
-122
-122
-118
-120
-117
-118
-123
-122
-123
-126
-123
-118
-116
-116
-119
-121
-125
-125
-119
-119
-116
-117
-118
-119
-123
-121
-122
-115
-114
-113
-115
-118
-118
-121
-122
-120
-117
-116
-116
-119
-120
-122
-120
-118
-116
-114
-116
-117
-118
-120
-120
-119
-115
-111
-112
-113
-113
-116
-115
-114
-112
-109
-113
-114
-116
-117
-118
-119
-115
-114
-109
-112
-111
-115
-115
-116
-114
-113
-109
-110
-105
-113
-116
-115
-113
-109
-107
-104
-106
-112
-110
-112
-115
-111
-108
-104
-103
-100
-98
-97
-92
-85
-78
-79
-77
-75
-80
-82
-87
-89
-89
-89
-93
-98
-100
-101
-108
-111
-110
-107
-106
-107
-108
-111
-112
-115
-114
-110
-110
-106
-106
-111
-111
-111
-102
-76
-30
23
82
127
140
137
85
-4
-97
-161
-173
-148
-119
-104
-102
-103
-103
-101
-98
-99
-107
-104
-102
-98
-96
-93
-89
-93
-92
-93
-102
-101
-99
-94
-90
-92
-91
-91
-93
-94
-91
-86
-83
-79
-81
-81
-83
-82
-76
-70
-68
-64
-64
-62
-63
-60
-58
-51
-48
-41
-42
-37
-37
-36
-32
-23
-18
-9
-4
-5
-4
2
3
7
13
16
19
23
22
20
16
14
11
10
7
-1
-10
-24
-31
-42
-49
-53
-61
-68
-79
-87
-93
-98
-101
-100
-100
-103
-105
-107
-110
-114
-114
-116
-113
-109
-112
-118
-121
-122
-124
-124
-119
-116
-114
-116
-121
-120
-123
-119
-119
-117
-114
-116
-118
-117
-122
-116
-115
-113
-112
-111
-112
-116
-119
-119
-121
-117
-118
-117
-120
-121
-122
-127
-126
-124
-122
-124
-122
-125
-128
-130
-129
-129
-128
-121
-122
-122
-125
-127
-129
-127
-125
-122
-122
-125
-129
-133
-137
-137
-134
-129
-126
-130
-130
-130
-133
-132
-133
-127
-126
-125
-128
-126
-128
-130
-124
-122
-122
-119
-120
-125
-124
-128
-128
-126
-123
-122
-122
-124
-126
-129
-131
-128
-126
-123
-125
-127
-126
-128
-129
-127
-123
-121
-120
-119
-126
-128
-131
-130
-130
-129
-125
-127
-130
-132
-137
-136
-134
-129
-127
-127
-127
-131
-132
-133
-130
-125
-121
-120
-120
-125
-125
-127
-126
-125
-124
-124
-128
-126
-128
-126
-122
-120
-112
-104
-100
-99
-101
-101
-103
-102
-102
-102
-103
-110
-117
-122
-125
-127
-122
-121
-123
-123
-126
-128
-135
-133
-132
-130
-127
-127
-128
-130
-129
-131
-131
-126
-110
-78
-27
31
98
163
206
209
160
68
-41
-120
-139
-125
-103
-94
-97
-105
-111
-117
-117
-125
-125
-123
-121
-120
-119
-121
-122
-126
-125
-122
-121
-117
-115
-115
-115
-116
-119
-118
-116
-111
-109
-107
-108
-109
-110
-111
-109
-101
-98
-98
-96
-95
-95
-92
-89
-84
-78
-75
-73
-72
-70
-71
-66
-62
-59
-52
-47
-46
-46
-44
-46
-40
-36
-28
-27
-26
-26
-28
-30
-29
-25
-22
-26
-30
-38
-42
-57
-64
-70
-75
-81
-90
-96
-107
-116
-119
-124
-128
-128
-131
-132
-135
-138
-143
-142
-139
-138
-136
-137
-138
-138
-142
-142
-142
-139
-136
-136
-137
-139
-138
-138
-139
-137
-134
-132
-134
-139
-139
-141
-138
-137
-135
-131
-130
-130
-129
-135
-136
-133
-130
-132
-132
-134
-137
-138
-139
-141
-140
-136
-135
-137
-137
-143
-144
-143
-141
-141
-137
-137
-139
-141
-142
-142
-139
-136
-134
-134
-137
-140
-141
-145
-146
-143
-140
-137
-138
-142
-143
-143
-147
-142
-140
-139
-140
-140
-142
-144
-142
-140
-139
-134
-134
-132
-138
-138
-142
-140
-141
-138
-135
-137
-142
-142
-145
-144
-141
-137
-133
-133
-137
-138
-140
-141
-140
-134
-133
-129
-130
-134
-135
-134
-136
-133
-132
-130
-132
-133
-137
-136
-136
-136
-134
-129
-131
-133
-134
-140
-135
-133
-132
-128
-125
-126
-130
-132
-134
-133
-128
-128
-124
-129
-130
-135
-138
-139
-135
-127
-120
-118
-120
-119
-118
-113
-107
-103
-100
-103
-101
-106
-106
-107
-108
-107
-108
-112
-115
-121
-124
-127
-130
-127
-126
-124
-127
-125
-125
-132
-132
-129
-127
-124
-123
-124
-127
-128
-127
-106
-69
-13
46
104
150
165
144
73
-19
-103
-156
-160
-133
-124
-109
-110
-113
-111
-109
-112
-114
-117
-119
-116
-118
-111
-108
-106
-108
-107
-108
-108
-111
-110
-107
-105
-105
-109
-110
-108
-105
-102
-94
-94
-92
-94
-94
-95
-94
-91
-85
-82
-73
-75
-75
-73
-71
-67
-64
-59
-56
-54
-51
-49
-44
-41
-34
-30
-26
-19
-19
-16
-13
-11
-5
0
7
8
6
5
0
-5
-7
-15
-19
-24
-37
-46
-47
-68
-73
-80
-83
-91
-96
-106
-108
-114
-117
-118
-116
-113
-109
-111
-114
-116
-118
-121
-119
-116
-115
-113
-116
-117
-120
-123
-121
-119
-114
-114
-115
-117
-118
-119
-118
-115
-111
-104
-106
-107
-111
-113
-111
-112
-108
-108
-108
-110
-111
-116
-117
-114
-115
-113
-112
-115
-118
-119
-121
-119
-117
-113
-110
-112
-112
-114
-117
-118
-116
-114
-113
-114
-118
-120
-123
-122
-123
-119
-118
-117
-120
-123
-124
-124
-125
-122
-119
-118
-122
-120
-121
-119
-122
-120
-116
-116
-115
-118
-119
-124
-126
-125
-122
-119
-116
-119
-122
-125
-126
-127
-124
-120
-120
-121
-122
-127
-124
-122
-122
-120
-118
-117
-121
-120
-125
-127
-128
-122
-124
-121
-122
-125
-128
-128
-129
-124
-123
-121
-122
-125
-124
-128
-128
-124
-119
-117
-117
-120
-121
-127
-125
-127
-125
-123
-122
-123
-125
-124
-120
-115
-111
-102
-95
-97
-99
-102
-103
-104
-103
-100
-101
-103
-109
-111
-122
-122
-119
-121
-118
-119
-122
-124
-128
-129
-129
-129
-126
-124
-126
-124
-126
-129
-130
-128
-123
-99
-54
2
21
120
165
179
150
80
-20
-110
-155
-151
-125
-108
-101
-103
-107
-112
-117
-118
-119
-122
-121
-119
-114
-114
-119
-120
-120
-119
-117
-112
-111
-109
-109
-112
-116
-116
-115
-113
-110
-106
-106
-106
-104
-108
-107
-103
-99
-97
-96
-94
-96
-93
-91
-87
-82
-76
-72
-69
-68
-66
-65
-64
-59
-51
-46
-40
-40
-36
-34
-33
-25
-21
-17
-16
-13
-13
-17
-18
-15
-12
-15
-15
-24
-27
-41
-46
-54
-59
-66
-75
-83
-92
-99
-108
-113
-113
-115
-117
-119
-124
-124
-134
-135
-136
-131
-130
-129
-128
-133
-134
-136
-135
-133
-133
-128
-130
-132
-134
-137
-136
-134
-131
-128
-132
-131
-132
-134
-134
-130
-130
-129
-125
-125
-127
-129
-132
-129
-127
-130
-124
-126
-129
-133
-135
-137
-135
-132
-130
-130
-135
-136
-138
-141
-140
-134
-132
-132
-133
-133
-136
-138
-136
-136
-132
-132
-134
-138
-139
-144
-140
-142
-137
-138
-137
-137
-138
-141
-144
-141
-139
-135
-135
-134
-134
-137
-137
-136
-134
-134
-130
-134
-134
-137
-139
-140
-140
-137
-135
-131
-137
-138
-141
-141
-141
-137
-132
-136
-138
-138
-141
-140
-142
-139
-138
-133
-133
-134
-141
-142
-139
-139
-136
-130
-131
-135
-134
-140
-139
-138
-135
-135
-132
-133
-133
-136
-139
-137
-134
-130
-130
-130
-131
-134
-136
-134
-135
-131
-132
-133
-133
-137
-138
-141
-140
-137
-130
-129
-126
-122
-121
-115
-111
-108
-104
-102
-101
-105
-109
-116
-117
-116
-121
-121
-127
-128
-130
-134
-134
-136
-134
-134
-132
-133
-134
-136
-139
-141
-138
-133
-131
-130
-130
-132
-136
-127
-96
-48
13
82
146
165
173
107
6
-95
-142
-140
-118
-104
-103
-118
-124
-126
-122
-122
-125
-125
-126
-128
-127
-126
-125
-120
-122
-121
-123
-127
-129
-126
-122
-122
-117
-118
-121
-120
-118
-118
-117
-114
-108
-110
-107
-108
-107
-106
-104
-99
-95
-95
-92
-93
-95
-93
-89
-86
-79
-73
-70
-70
-69
-69
-63
-60
-51
-45
-40
-38
-38
-36
-34
-30
-26
-21
-21
-24
-26
-29
-32
-34
-36
-39
-45
-52
-60
-71
-78
-87
-87
-92
-98
-103
-110
-117
-122
-125
-122
-122
-122
-122
-125
-127
-134
-133
-137
-132
-132
-130
-133
-136
-137
-140
-139
-137
-134
-134
-132
-132
-135
-136
-131
-127
-125
-120
-119
-122
-122
-126
-129
-126
-123
-120
-123
-125
-128
-130
-131
-133
-130
-128
-125
-125
-126
-131
-132
-133
-131
-128
-126
-124
-125
-127
-128
-130
-131
-129
-124
-125
-126
-129
-136
-134
-132
-130
-128
-126
-128
-129
-131
-130
-132
-132
-130
-127
-126
-127
-127
-130
-130
-129
-125
-124
-121
-120
-125
-128
-126
-128
-127
-124
-122
-127
-127
-127
-129
-130
-128
-127
-123
-119
-122
-121
-125
-123
-123
-122
-119
-118
-120
-120
-123
-126
-127
-124
-122
-118
-121
-122
-123
-124
-126
-124
-119
-118
-118
-118
-119
-123
-123
-123
-118
-116
-113
-117
-117
-117
-124
-124
-123
-121
-118
-118
-118
-122
-124
-121
-118
-111
-104
-103
-98
-97
-94
-96
-94
-92
-90
-90
-91
-99
-108
-112
-117
-115
-114
-114
-115
-117
-120
-125
-125
-122
-121
-119
-118
-118
-119
-123
-124
-122
-119
-118
-111
-99
-68
-29
19
67
106
127
110
56
-25
-120
-190
-203
-170
-137
-118
-112
-114
-115
-117
-120
-119
-115
-114
-112
-113
-110
-113
-115
-114
-109
-109
-103
-105
-108
-110
-113
-111
-108
-106
-102
-101
-101
-102
-104
-104
-103
-98
-95
-92
-94
-92
-92
-91
-86
-82
-80
-72
-73
-75
-74
-76
-74
-69
-64
-60
-55
-49
-48
-47
-44
-40
-32
-22
-17
-15
-13
-12
-12
-11
-8
-5
-4
-6
-11
-19
-28
-34
-43
-47
-53
-56
-66
-69
-82
-94
-99
-101
-105
-103
-111
-115
-116
-123
-123
-124
-121
-119
-120
-122
-127
-131
-134
-131
-130
-131
-130
-131
-129
-135
-133
-133
-129
-126
-127
-127
-127
-129
-131
-131
-128
-124
-122
-120
-119
-122
-124
-130
-124
-125
-122
-122
-124
-125
-129
-132
-131
-128
-127
-125
-128
-131
-133
-134
-136
-134
-130
-126
-125
-126
-129
-131
-133
-135
-130
-128
-128
-129
-132
-135
-139
-138
-135
-134
-130
-129
-134
-136
-141
-137
-136
-133
-130
-130
-128
-131
-129
-132
-131
-128
-128
-126
-131
-133
-135
-135
-131
-131
-133
-129
-132
-134
-135
-136
-138
-136
-133
-130
-129
-131
-131
-135
-135
-134
-131
-129
-130
-128
-130
-134
-137
-136
-133
-132
-131
-130
-131
-133
-135
-134
-136
-130
-128
-128
-130
-131
-134
-133
-132
-132
-128
-124
-128
-127
-132
-135
-135
-132
-130
-129
-129
-132
-134
-140
-139
-135
-132
-127
-125
-122
-117
-116
-109
-105
-101
-97
-95
-99
-101
-106
-110
-113
-117
-118
-119
-121
-123
-126
-128
-131
-130
-129
-128
-127
-129
-132
-134
-133
-130
-128
-125
-124
-124
-127
-128
-117
-79
-27
32
96
159
199
195
140
59
-34
-107
-137
-122
-104
-97
-101
-112
-116
-119
-118
-114
-118
-120
-121
-123
-124
-122
-122
-119
-120
-120
-121
-124
-125
-124
-119
-118
-117
-116
-120
-120
-122
-117
-115
-110
-106
-105
-106
-105
-104
-102
-99
-98
-91
-91
-95
-94
-92
-92
-88
-85
-80
-78
-75
-75
-74
-74
-67
-63
-59
-54
-51
-49
-48
-47
-43
-39
-36
-31
-32
-30
-37
-37
-37
-37
-37
-43
-44
-52
-60
-70
-79
-89
-90
-95
-97
-106
-108
-118
-120
-124
-123
-122
-121
-120
-127
-128
-133
-134
-132
-130
-126
-129
-133
-132
-131
-136
-134
-131
-127
-124
-130
-132
-133
-130
-129
-124
-124
-122
-119
-124
-125
-128
-129
-125
-125
-125
-123
-126
-127
-131
-132
-130
-129
-126
-123
-124
-124
-129
-132
-132
-127
-122
-122
-123
-126
-127
-131
-130
-129
-126
-128
-128
-127
-130
-132
-132
-132
-131
-126
-125
-127
-125
-130
-132
-131
-127
-125
-122
-119
-122
-124
-124
-125
-128
-123
-121
-121
-121
-125
-129
-129
-126
-123
-123
-117
-123
-123
-125
-127
-129
-125
-123
-117
-116
-118
-121
-127
-124
-122
-120
-118
-114
-119
-121
-126
-124
-123
-122
-119
-113
-116
-117
-122
-122
-124
-122
-117
-116
-116
-117
-116
-119
-119
-119
-116
-113
-116
-119
-119
-121
-121
-118
-120
-114
-111
-113
-113
-119
-122
-124
-121
-121
-114
-112
-111
-108
-103
-100
-93
-86
-82
-82
-83
-88
-92
-95
-95
-95
-95
-97
-103
-104
-112
-112
-114
-111
-110
-108
-107
-110
-110
-111
-111
-111
-109
-107
-103
-103
-104
-109
-111
-100
-67
-18
39
86
101
141
121
65
-15
-98
-158
-167
-137
-109
-98
-96
-100
-99
-95
-96
-101
-99
-101
-103
-105
-98
-95
-91
-97
-96
-100
-101
-100
-95
-89
-88
-93
-91
-93
-94
-91
-90
-85
-84
-80
-81
-78
-76
-79
-77
-73
-69
-68
-70
-71
-66
-64
-66
-59
-56
-51
-46
-45
-43
-41
-39
-35
-26
-20
-15
-12
-9
-7
-4
1
6
10
14
11
13
11
10
10
12
13
14
9
0
-8
-17
-20
-29
-31
-38
-44
-51
-63
-68
-75
-82
-82
-85
-88
-93
-96
-101
-105
-105
-112
-109
-108
-111
-112
-115
-117
-117
-117
-112
-110
-109
-113
-111
-112
-113
-112
-109
-107
-105
-107
-106
-109
-113
-113
-112
-110
-107
-108
-109
-110
-112
-114
-114
-111
-108
-108
-110
-113
-115
-116
-118
-115
-115
-113
-114
-116
-119
-120
-121
-116
-115
-113
-119
-118
-123
-124
-125
-122
-124
-122
-122
-119
-127
-129
-128
-128
-125
-121
-118
-119
-118
-121
-122
-121
-121
-121
-117
-116
-118
-124
-126
-128
-128
-123
-122
-119
-122
-122
-123
-125
-126
-123
-120
-117
-119
-120
-120
-122
-122
-117
-117
-116
-118
-119
-121
-125
-125
-124
-121
-120
-118
-120
-123
-125
-129
-131
-125
-124
-121
-122
-121
-123
-123
-123
-122
-117
-117
-115
-119
-122
-123
-121
-124
-122
-119
-118
-117
-121
-123
-126
-123
-123
-120
-122
-121
-123
-123
-124
-121
-115
-106
-102
-93
-95
-96
-96
-96
-97
-96
-93
-95
-98
-103
-109
-115
-117
-117
-114
-114
-115
-116
-120
-123
-126
-122
-119
-116
-120
-118
-120
-121
-120
-120
-119
-117
-114
-101
-67
-21
37
100
164
200
188
118
92
-86
-136
-132
-104
-86
-82
-91
-100
-106
-111
-110
-111
-109
-107
-107
-112
-112
-114
-113
-115
-113
-110
-106
-107
-108
-116
-115
-113
-109
-102
-104
-103
-101
-101
-102
-102
-99
-98
-92
-91
-93
-90
-93
-95
-92
-89
-82
-81
-79
-78
-78
-77
-75
-67
-62
-58
-52
-52
-48
-47
-45
-39
-34
-30
-26
-22
-22
-22
-22
-22
-19
-17
-12
-16
-16
-21
-25
-32
-33
-38
-43
-49
-57
-69
-75
-81
-84
-85
-90
-93
-100
-105
-108
-114
-115
-118
-114
-116
-116
-115
-123
-123
-126
-124
-121
-119
-117
-120
-121
-123
-125
-123
-119
-116
-112
-113
-116
-117
-120
-121
-116
-114
-115
-114
-116
-118
-119
-122
-121
-117
-115
-116
-117
-119
-123
-124
-123
-120
-117
-115
-113
-119
-119
-120
-121
-121
-119
-115
-121
-123
-124
-126
-130
-126
-121
-124
-121
-123
-124
-127
-131
-126
-124
-121
-121
-119
-120
-125
-125
-124
-120
-117
-119
-118
-119
-123
-126
-127
-125
-123
-120
-119
-123
-125
-125
-127
-126
-124
-125
-119
-120
-122
-121
-122
-121
-118
-115
-115
-114
-115
-124
-125
-125
-123
-117
-119
-118
-119
-123
-126
-126
-123
-119
-117
-115
-118
-119
-119
-121
-119
-118
-114
-116
-114
-114
-117
-120
-121
-118
-116
-116
-116
-115
-118
-119
-121
-121
-120
-118
-114
-115
-116
-120
-121
-124
-123
-121
-114
-114
-113
-112
-109
-105
-98
-93
-89
-87
-86
-91
-94
-97
-100
-99
-100
-102
-104
-108
-110
-110
-112
-107
-108
-109
-108
-111
-116
-119
-117
-113
-112
-111
-107
-108
-113
-113
-112
-89
-50
2
65
125
169
172
121
36
-57
-120
-135
-110
-101
-86
-92
-98
-101
-101
-98
-99
-100
-105
-108
-107
-106
-104
-100
-99
-100
-100
-98
-100
-98
-94
-90
-87
-86
-85
-89
-90
-91
-88
-85
-81
-79
-79
-81
-81
-82
-79
-76
-72
-66
-65
-65
-63
-63
-59
-52
-47
-40
-37
-35
-35
-34
-30
-26
-18
-12
-10
-7
-5
-10
-8
-5
-1
3
4
4
0
-3
-8
-10
-13
-16
-20
-29
-33
-50
-57
-63
-70
-69
-74
-80
-84
-88
-91
-98
-95
-98
-94
-97
-99
-99
-102
-104
-106
-102
-101
-96
-99
-97
-101
-102
-102
-97
-97
-95
-95
-96
-97
-101
-99
-99
-97
-95
-92
-96
-96
-99
-102
-101
-99
-97
-92
-94
-93
-96
-98
-98
-98
-95
-89
-93
-94
-98
-100
-102
-102
-101
-99
-94
-95
-98
-101
-104
-103
-102
-100
-94
-96
-95
-100
-100
-100
-100
-96
-95
-97
-94
-99
-99
-101
-99
-98
-97
-95
-94
-95
-100
-100
-104
-100
-98
-98
-97
-98
-97
-99
-102
-99
-95
-92
-89
-91
-93
-93
-95
-95
-93
-91
-92
-97
-95
-99
-97
-98
-96
-92
-90
-91
-90
-95
-100
-99
-99
-95
-91
-88
-86
-89
-91
-93
-93
-91
-90
-88
-89
-93
-93
-97
-97
-98
-96
-93
-93
-92
-98
-99
-98
-98
-91
-91
-92
-91
-95
-98
-97
-94
-87
-83
-76
-73
-72
-75
-74
-73
-71
-68
-68
-69
-71
-79
-84
-85
-88
-88
-86
-86
-87
-91
-92
-94
-94
-91
-88
-87
-92
-92
-98
-100
-98
-96
-93
-89
-88
-84
-27
21
74
124
158
164
130
58
-38
-117
-150
-133
-100
-80
-73
-77
-81
-84
-90
-91
-89
-88
-87
-85
-86
-86
-89
-92
-89
-84
-83
-80
-79
-82
-83
-85
-80
-77
-74
-72
-73
-73
-74
-75
-77
-72
-70
-67
-67
-66
-68
-68
-67
-64
-59
-56
-53
-52
-53
-50
-51
-45
-38
-35
-29
-24
-23
-23
-19
-13
-9
-5
1
1
3
2
0
2
5
8
10
9
4
2
-6
-15
-19
-23
-25
-30
-40
-46
-58
-65
-70
-75
-79
-85
-82
-85
-93
-98
-101
-101
-100
-98
-99
-101
-102
-106
-106
-107
-104
-104
-101
-101
-103
-103
-106
-104
-101
-101
-101
-99
-100
-103
-105
-106
-104
-104
-100
-97
-97
-99
-103
-105
-102
-102
-100
-100
-98
-100
-102
-106
-107
-104
-99
-96
-102
-103
-106
-110
-110
-111
-105
-104
-102
-106
-108
-111
-113
-110
-110
-109
-108
-109
-109
-107
-113
-111
-110
-107
-104
-105
-104
-109
-114
-115
-114
-111
-111
-112
-108
-111
-115
-116
-117
-113
-111
-109
-109
-109
-111
-114
-111
-107
-108
-106
-105
-106
-110
-112
-114
-114
-109
-107
-104
-107
-111
-114
-114
-116
-114
-110
-108
-108
-111
-112
-112
-113
-113
-106
-105
-103
-106
-107
-112
-113
-112
-109
-106
-106
-106
-110
-110
-116
-113
-109
-109
-106
-107
-107
-110
-113
-113
-111
-106
-103
-103
-102
-104
-110
-109
-111
-109
-110
-107
-110
-108
-106
-106
-102
-94
-86
-83
-79
-81
-84
-86
-86
-84
-82
-81
-84
-85
-94
-100
-103
-104
-99
-101
-101
-102
-106
-107
-111
-109
-108
-102
-102
-101
-105
-105
-108
-108
-109
-89
-59
-9
7
100
156
194
199
156
82
-6
-81
-115
-105
-87
-77
-77
-83
-86
-88
-93
-97
-100
-103
-102
-98
-96
-91
-91
-95
-96
-97
-94
-91
-89
-86
-88
-92
-94
-93
-93
-89
-88
-83
-82
-81
-83
-83
-84
-81
-75
-73
-65
-68
-66
-66
-67
-63
-60
-53
-51
-49
-49
-48
-47
-42
-40
-35
-27
-25
-26
-25
-21
-21
-18
-12
-6
-3
-4
-3
-2
-3
-2
-1
-1
-3
-11
-16
-25
-36
-42
-47
-51
-56
-61
-69
-78
-87
-91
-91
-94
-92
-92
-93
-98
-100
-98
-98
-96
-97
-97
-97
-97
-104
-105
-106
-102
-99
-97
-96
-97
-99
-100
-98
-97
-91
-91
-91
-89
-94
-94
-97
-94
-91
-87
-85
-87
-88
-92
-94
-94
-92
-90
-89
-90
-92
-94
-97
-97
-99
-97
-94
-92
-91
-97
-99
-97
-97
-91
-88
-88
-91
-94
-98
-98
-96
-96
-96
-94
-96
-95
-96
-98
-99
-101
-96
-92
-94
-96
-97
-99
-100
-98
-95
-91
-92
-92
-93
-96
-98
-98
-94
-94
-92
-92
-95
-97
-100
-101
-98
-96
-94
-91
-90
-94
-96
-102
-98
-93
-92
-88
-89
-90
-91
-93
-93
-90
-89
-87
-89
-92
-99
-99
-98
-96
-93
-91
-88
-89
-91
-92
-94
-96
-93
-92
-90
-90
-89
-90
-89
-91
-90
-86
-87
-86
-91
-92
-96
-97
-93
-91
-90
-89
-88
-89
-91
-92
-86
-79
-70
-64
-64
-66
-70
-68
-68
-64
-63
-65
-67
-71
-79
-84
-87
-87
-84
-83
-86
-89
-92
-96
-95
-94
-95
-91
-91
-88
-93
-95
-97
-95
-91
-89
-79
-54
-11
41
88
128
145
129
75
-11
-38
-155
-157
-124
-97
-79
-83
-85
-81
-82
-85
-86
-90
-84
-83
-77
-77
-81
-81
-83
-84
-79
-80
-74
-73
-75
-80
-84
-78
-81
-73
-70
-66
-69
-70
-73
-74
-72
-67
-65
-59
-58
-57
-57
-57
-54
-51
-45
-42
-40
-39
-41
-40
-39
-34
-29
-19
-14
-13
-11
-10
-8
-3
3
8
15
19
21
21
19
21
24
28
30
29
25
16
5
0
-9
-14
-20
-26
-38
-47
-57
-66
-71
-76
-80
-80
-82
-86
-93
-93
-96
-96
-93
-96
-95
-95
-102
-104
-107
-105
-103
-101
-100
-101
-102
-105
-106
-103
-102
-102
-99
-98
-99
-99
-102
-100
-98
-96
-96
-94
-95
-97
-101
-100
-104
-102
-101
-95
-100
-101
-104
-106
-107
-104
-102
-98
-100
-104
-108
-106
-106
-104
-104
-105
-102
-102
-104
-106
-110
-110
-109
-106
-103
-104
-106
-109
-108
-110
-108
-106
-104
-103
-106
-108
-107
-108
-107
-105
-101
-99
-98
-103
-107
-107
-109
-106
-105
-103
-106
-107
-108
-109
-112
-109
-105
-105
-104
-107
-105
-109
-108
-107
-103
-103
-100
-102
-105
-106
-106
-108
-105
-106
-104
-104
-106
-106
-109
-110
-108
-103
-104
-105
-106
-110
-111
-112
-109
-106
-101
-99
-97
-102
-106
-106
-105
-103
-102
-99
-102
-103
-106
-108
-113
-112
-109
-107
-105
-107
-104
-103
-100
-93
-83
-77
-75
-74
-77
-79
-85
-85
-87
-87
-90
-96
-100
-103
-104
-108
-108
-107
-104
-103
-106
-107
-111
-113
-111
-107
-108
-103
-102
-104
-107
-111
-106
-84
-42
10
67
131
181
201
175
107
13
-74
-119
-112
-91
-80
-80
-89
-96
-97
-93
-90
-97
-100
-102
-102
-101
-98
-92
-95
-96
-101
-105
-105
-102
-97
-95
-91
-93
-98
-99
-99
-97
-94
-89
-86
-87
-87
-88
-87
-82
-79
-76
-71
-71
-70
-75
-75
-74
-71
-64
-59
-57
-54
-53
-53
-53
-48
-40
-33
-28
-26
-24
-23
-20
-19
-13
-10
-5
-6
-8
-11
-9
-16
-17
-20
-17
-25
-33
-41
-51
-56
-62
-64
-69
-74
-78
-89
-94
-99
-101
-101
-100
-99
-103
-105
-105
-109
-110
-112
-109
-108
-108
-109
-112
-113
-114
-113
-110
-105
-108
-109
-110
-108
-110
-107
-106
-102
-101
-102
-103
-106
-108
-113
-109
-107
-105
-105
-108
-110
-110
-114
-112
-112
-110
-107
-107
-108
-113
-115
-113
-113
-108
-107
-109
-110
-111
-117
-114
-113
-111
-110
-108
-111
-113
-116
-116
-117
-113
-107
-112
-111
-114
-117
-116
-114
-113
-108
-107
-105
-106
-110
-112
-112
-112
-106
-106
-108
-110
-111
-113
-115
-117
-110
-111
-108
-107
-110
-111
-113
-113
-109
-105
-102
-102
-103
-105
-110
-108
-107
-104
-102
-103
-103
-107
-108
-109
-109
-106
-106
-104
-105
-105
-108
-111
-109
-106
-103
-103
-100
-101
-102
-105
-104
-102
-97
-97
-97
-99
-103
-105
-108
-105
-103
-103
-98
-97
-103
-103
-103
-103
-101
-97
-97
-98
-100
-99
-99
-98
-94
-89
-83
-79
-76
-74
-74
-76
-74
-70
-66
-69
-68
-73
-79
-85
-87
-88
-88
-88
-87
-89
-95
-96
-95
-94
-91
-87
-87
-88
-91
-95
-97
-98
-94
-90
-89
-88
-96
-92
-73
-41
9
57
108
144
162
136
77
-7
-91
-132
-127
-95
-74
-70
-74
-82
-79
-80
-78
-78
-79
-84
-87
-91
-87
-85
-82
-78
-76
-80
-78
-78
-81
-80
-72
-71
-67
-67
-68
-71
-72
-71
-71
-65
-66
-64
-64
-65
-65
-63
-59
-58
-50
-52
-51
-52
-53
-54
-47
-42
-37
-29
-28
-27
-27
-22
-17
-10
-6
-1
0
3
4
3
9
11
18
23
25
23
22
17
14
13
15
12
7
3
-4
-13
-22
-31
-31
-36
-40
-42
-58
-65
-69
-76
-76
-77
-78
-80
-83
-87
-91
-90
-88
-87
-89
-87
-86
-89
-90
-90
-90
-86
-82
-82
-84
-81
-84
-85
-89
-85
-86
-81
-81
-83
-83
-87
-85
-84
-84
-78
-79
-80
-85
-88
-85
-84
-83
-78
-77
-79
-82
-84
-85
-87
-85
-84
-83
-85
-87
-89
-91
-93
-90
-87
-85
-87
-88
-91
-93
-95
-93
-88
-84
-83
-84
-85
-90
-91
-92
-88
-87
-87
-87
-87
-91
-94
-95
-90
-87
-85
-87
-86
-92
-90
-93
-95
-89
-84
-82
-82
-86
-90
-92
-93
-90
-88
-87
-88
-90
-89
-91
-96
-92
-90
-87
-90
-88
-91
-92
-96
-93
-90
-89
-84
-86
-89
-91
-91
-93
-91
-89
-87
-88
-92
-95
-96
-98
-94
-94
-91
-90
-89
-94
-96
-97
-97
-92
-91
-91
-89
-90
-90
-95
-95
-91
-87
-79
-74
-73
-73
-73
-73
-72
-69
-67
-65
-72
-80
-83
-88
-91
-89
-89
-87
-88
-90
-90
-93
-96
-93
-94
-91
-90
-94
-97
-98
-99
-97
-97
-95
-94
-85
-60
-16
34
93
148
188
185
179
52
-43
-109
-122
-101
-76
-65
-69
-78
-85
-90
-93
-90
-87
-87
-87
-89
-90
-91
-91
-91
-86
-86
-83
-82
-80
-83
-83
-81
-79
-76
-74
-71
-74
-75
-77
-81
-76
-71
-71
-66
-70
-71
-70
-72
-70
-62
-58
-54
-50
-53
-51
-51
-45
-44
-37
-33
-27
-27
-25
-25
-23
-20
-11
-9
-3
-3
-1
-2
-4
-1
3
8
7
5
4
2
-8
-8
-10
-13
-20
-26
-37
-43
-57
-63
-68
-72
-77
-81
-85
-89
-96
-99
-98
-98
-98
-98
-95
-99
-106
-107
-106
-102
-100
-97
-97
-98
-98
-103
-104
-102
-102
-100
-98
-98
-100
-103
-103
-103
-100
-97
-93
-94
-97
-100
-103
-100
-97
-96
-90
-92
-95
-98
-102
-104
-102
-100
-99
-100
-98
-102
-105
-107
-107
-106
-107
-102
-102
-103
-106
-108
-107
-105
-103
-98
-99
-101
-102
-106
-105
-105
-103
-102
-103
-103
-106
-107
-110
-110
-108
-103
-103
-102
-104
-107
-110
-111
-108
-104
-100
-100
-100
-103
-105
-105
-105
-104
-102
-105
-103
-104
-109
-112
-108
-109
-100
-103
-102
-103
-107
-109
-109
-105
-101
-102
-100
-102
-106
-110
-110
-107
-106
-104
-102
-104
-104
-107
-109
-109
-106
-103
-102
-100
-103
-109
-108
-107
-105
-101
-98
-100
-98
-98
-102
-102
-103
-99
-100
-99
-97
-104
-105
-109
-109
-108
-105
-104
-102
-99
-102
-100
-92
-86
-77
-71
-68
-68
-72
-77
-79
-79
-80
-81
-84
-89
-94
-97
-100
-101
-98
-100
-97
-98
-99
-102
-106
-106
-102
-97
-95
-93
-94
-99
-100
-102
-88
-53
-3
55
119
175
200
173
106
17
-67
-106
-113
-84
-72
-75
-81
-84
-84
-79
-83
-84
-88
-91
-94
-91
-88
-87
-87
-86
-88
-92
-92
-94
-90
-87
-88
-87
-87
-90
-90
-89
-89
-85
-81
-80
-78
-82
-78
-79
-76
-72
-68
-68
-67
-68
-69
-70
-67
-61
-56
-53
-51
-50
-50
-49
-49
-41
-32
-30
-25
-25
-20
-20
-17
-9
-8
-1
4
3
2
-1
0
-1
3
9
9
9
-1
-7
-13
-20
-22
-25
-29
-36
-43
-53
-61
-70
-72
-71
-72
-73
-79
-83
-90
-95
-94
-94
-89
-90
-89
-90
-95
-99
-97
-97
-93
-88
-91
-92
-94
-97
-97
-97
-92
-88
-84
-86
-88
-87
-88
-91
-89
-87
-84
-83
-86
-91
-95
-93
-91
-89
-88
-88
-88
-90
-94
-96
-94
-90
-88
-85
-87
-86
-89
-92
-92
-92
-91
-88
-88
-90
-95
-96
-97
-97
-92
-90
-90
-92
-95
-96
-96
-95
-93
-90
-90
-91
-89
-92
-95
-93
-91
-88
-86
-86
-93
-95
-99
-96
-94
-91
-90
-87
-88
-89
-92
-93
-93
-91
-90
-89
-87
-89
-92
-92
-93
-89
-88
-87
-86
-89
-89
-92
-93
-92
-89
-90
-87
-88
-91
-93
-91
-91
-87
-84
-85
-83
-86
-89
-87
-90
-85
-86
-82
-81
-83
-83
-87
-88
-82
-83
-82
-83
-82
-84
-84
-85
-84
-82
-79
-80
-77
-82
-86
-86
-87
-82
-79
-74
-73
-68
-64
-63
-63
-65
-59
-56
-57
-59
-62
-69
-68
-73
-73
-74
-74
-74
-76
-79
-81
-86
-81
-78
-79
-78
-81
-86
-87
-88
-88
-85
-82
-81
-82
-84
-75
-50
-5
48
102
142
151
123
53
-35
-118
-147
-131
-93
-82
-68
-71
-77
-81
-77
-78
-77
-73
-73
-76
-78
-78
-79
-76
-74
-67
-70
-72
-73
-72
-72
-70
-66
-66
-63
-65
-65
-69
-66
-66
-63
-59
-57
-56
-56
-58
-57
-57
-53
-50
-49
-45
-46
-44
-43
-40
-34
-24
-20
-18
-13
-13
-15
-12
-9
-4
5
8
8
7
9
10
12
12
17
18
17
14
9
8
5
1
-1
-4
-7
-23
-32
-40
-48
-53
-57
-63
-64
-69
-77
-82
-87
-88
-89
-89
-84
-91
-92
-92
-94
-95
-91
-92
-86
-84
-87
-91
-94
-95
-95
-92
-88
-88
-89
-92
-94
-94
-95
-91
-89
-86
-92
-90
-92
-91
-92
-92
-89
-85
-85
-89
-88
-94
-96
-97
-94
-95
-95
-98
-101
-104
-104
-103
-99
-97
-95
-97
-98
-102
-105
-105
-100
-98
-94
-94
-98
-99
-104
-103
-103
-99
-99
-99
-101
-100
-102
-109
-105
-100
-99
-98
-100
-102
-103
-106
-106
-103
-97
-97
-94
-98
-100
-103
-104
-104
-103
-101
-97
-104
-103
-105
-104
-105
-103
-100
-98
-100
-103
-106
-108
-108
-104
-102
-99
-97
-98
-101
-105
-105
-105
-101
-99
-99
-100
-104
-105
-107
-106
-104
-102
-99
-97
-102
-102
-105
-105
-102
-101
-99
-96
-99
-103
-101
-102
-101
-98
-98
-98
-99
-101
-103
-104
-102
-104
-100
-98
-99
-101
-108
-106
-106
-102
-97
-92
-91
-82
-80
-78
-78
-78
-74
-74
-72
-75
-81
-88
-90
-94
-96
-91
-95
-93
-96
-101
-103
-105
-103
-100
-99
-99
-102
-103
-102
-102
-103
-96
-94
-91
-100
-94
-74
-33
20
83
145
193
192
144
53
-46
-105
-108
-88
-70
-65
-75
-82
-89
-90
-93
-90
-87
-87
-86
-92
-96
-99
-97
-93
-92
-87
-88
-91
-94
-93
-93
-92
-89
-87
-84
-86
-86
-87
-85
-84
-76
-74
-73
-73
-76
-77
-77
-75
-73
-68
-63
-64
-63
-64
-63
-63
-59
-51
-49
-46
-44
-44
-41
-37
-30
-26
-21
-16
-15
-14
-16
-16
-15
-13
-9
-6
-6
-10
-10
-13
-15
-16
-17
-20
-22
-31
-41
-50
-55
-59
-62
-64
-69
-72
-78
-83
-89
-93
-90
-92
-95
-96
-96
-101
-106
-105
-101
-101
-101
-99
-99
-104
-107
-109
-111
-105
-103
-99
-98
-99
-103
-104
-106
-102
-99
-95
-98
-100
-103
-104
-107
-104
-102
-102
-99
-103
-105
-107
-107
-104
-103
-101
-98
-97
-101
-104
-106
-102
-98
-98
-94
-101
-99
-104
-105
-107
-104
-100
-100
-99
-102
-102
-105
-106
-105
-103
-101
-99
-97
-101
-101
-104
-104
-104
-98
-97
-97
-98
-101
-104
-105
-105
-100
-96
-94
-98
-100
-103
-106
-102
-100
-95
-95
-98
-97
-99
-100
-98
-98
-93
-92
-94
-93
-98
-101
-101
-99
-95
-92
-92
-92
-94
-96
-98
-96
-96
-93
-92
-93
-92
-96
-98
-95
-92
-88
-84
-85
-87
-89
-89
-94
-94
-89
-89
-89
-87
-90
-92
-93
-93
-90
-85
-86
-89
-89
-92
-92
-89
-87
-83
-82
-87
-85
-90
-88
-86
-82
-80
-72
-70
-64
-62
-62
-63
-63
-59
-57
-58
-61
-68
-75
-80
-82
-79
-74
-70
-72
-74
-80
-86
-84
-85
-80
-77
-75
-80
-78
-82
-86
-80
-77
-82
-77
-68
-39
4
55
104
141
150
117
41
-49
-116
-134
-110
-81
-65
-61
-63
-67
-69
-69
-73
-71
-70
-68
-68
-69
-70
-69
-68
-65
-64
-62
-57
-58
-61
-62
-63
-59
-61
-57
-52
-49
-51
-54
-53
-52
-51
-46
-43
-40
-40
-41
-38
-39
-37
-31
-23
-19
-15
-15
-13
-14
-10
-4
3
6
9
14
16
19
21
25
29
34
39
40
42
39
39
40
43
45
40
38
30
23
15
5
0
-5
-11
-14
-28
-38
-42
-51
-55
-56
-57
-59
-64
-67
-72
-75
-74
-75
-73
-69
-68
-73
-73
-75
-78
-78
-76
-73
-71
-74
-75
-79
-81
-78
-74
-73
-73
-73
-73
-77
-77
-75
-73
-71
-68
-70
-72
-77
-79
-80
-79
-76
-72
-69
-72
-73
-76
-79
-78
-75
-74
-71
-74
-76
-79
-79
-80
-78
-77
-76
-78
-77
-81
-83
-84
-82
-78
-78
-77
-76
-76
-79
-81
-83
-82
-80
-75
-76
-78
-79
-82
-82
-81
-77
-72
-74
-73
-79
-84
-84
-80
-76
-76
-73
-73
-76
-78
-81
-79
-77
-72
-73
-73
-76
-78
-82
-81
-81
-77
-74
-75
-78
-82
-83
-83
-80
-78
-76
-75
-75
-77
-78
-78
-79
-79
-74
-74
-76
-77
-78
-81
-82
-78
-74
-70
-70
-71
-74
-79
-79
-77
-74
-72
-70
-72
-74
-73
-74
-77
-74
-71
-72
-75
-76
-78
-77
-72
-70
-61
-54
-52
-49
-50
-52
-53
-51
-50
-51
-50
-55
-62
-66
-70
-71
-67
-66
-66
-68
-72
-72
-77
-76
-75
-74
-70
-70
-70
-73
-75
-78
-76
-76
-73
-69
-35
6
54
114
170
216
226
190
116
26
-57
-89
-77
-53
-41
-40
-46
-54
-61
-64
-64
-66
-65
-63
-60
-64
-65
-66
-70
-67
-63
-58
-56
-59
-61
-63
-64
-62
-60
-58
-54
-54
-55
-57
-57
-58
-57
-51
-47
-44
-42
-45
-45
-50
-43
-38
-31
-31
-30
-26
-29
-28
-26
-22
-15
-10
-8
-6
-8
-8
-6
-1
6
9
12
12
13
10
8
12
14
17
15
15
9
3
-7
-12
-18
-19
-29
-30
-39
-45
-52
-58
-60
-61
-64
-65
-70
-72
-79
-81
-81
-79
-76
-77
-77
-79
-81
-81
-84
-81
-79
-74
-78
-78
-79
-82
-83
-79
-79
-75
-74
-76
-79
-83
-85
-80
-80
-75
-75
-74
-75
-78
-82
-83
-79
-74
-75
-76
-78
-81
-85
-86
-86
-83
-84
-84
-82
-87
-90
-92
-89
-90
-89
-82
-85
-87
-92
-94
-90
-91
-87
-86
-86
-88
-93
-95
-94
-94
-87
-88
-86
-88
-92
-95
-96
-96
-93
-93
-88
-91
-92
-95
-96
-96
-96
-89
-84
-90
-90
-91
-95
-97
-95
-92
-89
-89
-92
-94
-93
-97
-98
-96
-94
-92
-93
-94
-95
-99
-97
-97
-94
-91
-88
-91
-92
-96
-100
-96
-92
-89
-88
-88
-95
-95
-97
-98
-94
-92
-92
-92
-90
-94
-99
-97
-94
-91
-87
-87
-88
-94
-96
-95
-96
-92
-90
-89
-89
-90
-95
-99
-100
-97
-94
-93
-92
-93
-94
-97
-99
-101
-97
-90
-90
-87
-89
-87
-87
-80
-73
-68
-66
-66
-67
-70
-70
-72
-76
-72
-77
-83
-88
-88
-96
-94
-95
-90
-90
-92
-93
-95
-98
-99
-98
-93
-92
-88
-93
-95
-96
-99
-99
-93
-80
-46
-2
44
91
134
150
128
63
-22
-98
-133
-123
-97
-79
-78
-79
-81
-83
-85
-86
-88
-88
-90
-88
-87
-84
-84
-84
-86
-89
-93
-86
-86
-80
-79
-81
-82
-83
-86
-82
-77
-74
-72
-70
-70
-70
-73
-70
-70
-66
-65
-63
-64
-65
-68
-62
-60
-55
-47
-46
-45
-44
-43
-38
-33
-31
-19
-15
-12
-9
-8
-9
-7
-2
3
8
11
7
3
0
-1
-4
-3
-4
-12
-21
-29
-39
-50
-54
-57
-61
-62
-76
-80
-87
-92
-95
-96
-93
-95
-96
-100
-105
-110
-110
-109
-105
-103
-102
-104
-107
-109
-108
-109
-107
-103
-104
-102
-102
-105
-107
-108
-105
-102
-98
-97
-101
-104
-107
-109
-105
-101
-99
-99
-104
-107
-105
-105
-105
-106
-104
-104
-103
-106
-108
-111
-108
-108
-107
-104
-104
-105
-111
-112
-113
-112
-111
-106
-107
-108
-110
-113
-113
-112
-110
-107
-108
-107
-111
-112
-113
-111
-110
-108
-107
-107
-109
-111
-112
-114
-114
-111
-108
-108
-110
-111
-111
-116
-114
-109
-107
-105
-106
-108
-111
-112
-111
-110
-106
-108
-110
-109
-110
-113
-114
-113
-109
-104
-106
-110
-111
-114
-114
-114
-110
-108
-107
-106
-108
-110
-113
-111
-110
-108
-106
-106
-108
-110
-115
-115
-112
-108
-108
-107
-108
-112
-114
-112
-112
-110
-108
-107
-109
-110
-110
-110
-111
-104
-98
-91
-86
-88
-85
-88
-85
-83
-85
-83
-84
-90
-95
-99
-104
-107
-106
-102
-101
-103
-103
-109
-109
-114
-110
-109
-107
-106
-109
-110
-110
-111
-114
-110
-109
-106
-89
-53
-7
43
97
142
165
167
98
17
-70
-134
-146
-122
-93
-83
-85
-90
-100
-103
-103
-101
-99
-101
-100
-102
-104
-106
-107
-106
-101
-100
-99
-96
-100
-100
-101
-101
-97
-92
-91
-90
-92
-93
-95
-95
-93
-86
-83
-78
-81
-81
-83
-81
-80
-75
-72
-71
-66
-65
-60
-60
-55
-51
-44
-40
-38
-35
-36
-32
-30
-25
-18
-12
-11
-12
-9
-9
-8
-9
-5
-4
-3
-4
-9
-11
-18
-26
-28
-36
-40
-47
-58
-68
-76
-84
-88
-91
-91
-94
-97
-102
-108
-112
-112
-107
-109
-108
-108
-110
-114
-113
-112
-114
-110
-105
-103
-108
-110
-111
-111
-110
-106
-101
-102
-106
-105
-107
-107
-106
-103
-102
-103
-103
-101
-103
-105
-104
-104
-99
-100
-99
-104
-107
-111
-111
-112
-110
-108
-107
-107
-111
-113
-115
-115
-112
-110
-110
-105
-108
-108
-113
-112
-113
-109
-106
-106
-108
-109
-109
-110
-107
-106
-104
-103
