120
119
121
126
135
136
140
142
150
154
155
158
156
159
153
154
150
146
143
145
154
154
159
157
156
154
151
156
148
143
132
126
120
120
121
119
118
113
113
105
104
98
96
93
91
96
99
101
97
98
98
94
94
92
98
103
113
122
132
135
133
133
141
161
187
223
255
286
298
286
251
191
126
56
12
-9
-13
-10
-1
13
22
31
35
37
44
49
52
49
49
45
43
39
39
39
41
41
40
39
35
30
27
26
29
21
18
15
12
10
8
11
2
-2
-6
-10
-12
-13
-11
-12
-13
-18
-22
-23
-22
-26
-29
-31
-38
-41
-46
-50
-52
-56
-56
-60
-60
-61
-62
-64
-66
-68
-68
-68
-68
-67
-66
-70
-71
-67
-62
-58
-56
-55
-53
-50
-44
-38
-31
-25
-21
-16
-7
5
4
6
9
18
24
29
32
36
43
45
47
44
44
43
45
48
49
54
50
49
49
52
56
55
60
63
65
63
65
67
66
67
67
71
70
74
74
82
84
83
83
86
92
90
91
88
90
90
90
91
92
96
95
97
92
90
88
88
90
87
87
80
78
73
73
74
79
82
78
78
75
75
74
74
75
66
66
65
67
65
64
68
65
65
62
63
62
64
63
61
61
58
58
58
59
58
62
64
66
66
66
73
75
78
80
81
85
88
91
91
94
89
90
87
88
89
90
94
96
100
98
102
101
97
92
88
88
84
81
77
78
80
81
87
85
86
79
73
69
68
68
68
66
62
61
58
57
58
63
70
68
74
80
89
94
101
106
106
116
134
166
198
236
258
261
239
190
138
77
26
-9
-28
-36
-41
-37
-29
-16
-8
-3
4
7
10
12
15
14
14
10
7
5
7
4
-1
-5
-8
-9
-12
-14
-13
-12
-14
-16
-18
-25
-28
-29
-32
-36
-39
-37
-41
-43
-47
-49
-52
-56
-58
-62
-63
-63
-64
-66
-68
-70
-70
-70
-72
-72
-75
-80
-82
-82
-80
-83
-82
-79
-79
-83
-91
-89
-88
-85
-84
-81
-77
-74
-77
-79
-73
-68
-59
-51
-45
-41
-35
-26
-21
-17
-11
-6
-1
3
7
11
16
21
26
33
39
42
43
43
45
46
48
50
51
52
47
47
48
49
50
52
59
56
59
55
56
57
61
67
66
70
67
69
70
73
76
79
84
82
82
80
81
81
84
89
86
87
86
86
83
84
87
86
86
82
80
76
75
69
67
67
68
70
68
68
63
60
57
56
57
60
60
57
54
48
48
48
47
47
46
45
42
43
42
41
39
42
44
43
39
36
36
39
44
44
39
40
34
36
40
47
52
55
59
60
66
65
63
59
59
56
55
58
57
58
57
60
60
64
67
62
55
44
37
30
27
26
23
21
18
15
12
9
8
7
7
5
5
7
7
5
6
5
7
9
10
10
11
15
18
27
35
45
51
55
67
85
120
157
196
221
222
192
136
68
-1
-57
-91
-107
-111
-103
-92
-83
-72
-58
-49
-46
-45
-39
-42
-45
-47
-48
-47
-48
-45
-46
-47
-51
-55
-56
-55
-58
-64
-65
-67
-69
-73
-78
-81
-84
-85
-92
-95
-99
-103
-104
-106
-106
-111
-112
-117
-121
-123
-125
-128
-130
-132
-135
-136
-138
-140
-141
-146
-148
-152
-154
-155
-156
-159
-158
-163
-167
-164
-162
-159
-160
-160
-164
-162
-153
-151
-149
-148
-148
-145
-141
-136
-127
-116
-107
-98
-88
-78
-78
-80
-79
-71
-64
-53
-45
-49
-50
-50
-49
-46
-44
-42
-40
-36
-36
-38
-41
-40
-40
-38
-38
-39
-37
-34
-31
-28
-29
-29
-30
-30
-32
-32
-31
-26
-23
-21
-20
-17
-15
-14
-12
-14
-14
-17
-15
-12
-10
-13
-16
-16
-20
-18
-16
-12
-13
-13
-12
-18
-20
-23
-25
-28
-32
-31
-30
-29
-34
-36
-37
-36
-36
-32
-29
-35
-42
-46
-45
-44
-47
-44
-42
-42
-40
-41
-42
-40
-37
-39
-43
-49
-50
-49
-45
-43
-37
-35
-35
-38
-44
-50
-51
-48
-47
-46
-46
-47
-47
-42
-27
-21
-18
-17
-14
-10
-11
-15
-18
-18
-17
-14
-13
-13
-11
-10
-6
-10
-13
-16
-18
-24
-28
-30
-38
-39
-40
-40
-40
-41
-40
-46
-47
-51
-54
-53
-50
-47
-48
-49
-52
-52
-52
-49
-45
-44
-40
-32
-20
-10
-3
-1
6
24
51
88
126
159
179
176
140
91
27
-32
-78
-106
-121
-125
-123
-114
-107
-96
-89
-82
-76
-69
-68
-69
-69
-68
-70
-73
-72
-73
-73
-74
-73
-72
-73
-77
-80
-81
-82
-80
-80
-83
-86
-90
-92
-97
-97
-95
-98
-98
-102
-100
-106
-106
-108
-109
-107
-108
-109
-115
-117
-119
-121
-122
-122
-122
-125
-126
-130
-131
-133
-134
-132
-135
-133
-136
-136
-138
-142
-141
-137
-132
-130
-129
-129
-127
-127
-125
-118
-115
-108
-103
-94
-88
-80
-72
-65
-61
-55
-48
-40
-34
-27
-15
-13
-7
-4
7
12
16
16
16
17
16
19
22
28
28
29
33
35
36
35
37
39
42
47
46
47
46
49
51
54
54
56
59
56
57
56
64
65
70
72
75
76
73
74
73
76
78
79
76
74
72
72
78
76
77
76
76
73
71
72
73
73
71
70
68
66
62
57
60
56
59
61
64
62
61
63
59
62
63
66
66
66
67
64
65
61
57
56
58
58
58
62
58
58
56
59
60
62
65
64
67
68
74
77
87
89
92
95
94
96
95
98
96
97
97
98
98
98
100
103
108
108
105
101
96
92
86
86
81
83
82
80
76
72
70
66
69
73
77
74
70
68
68
71
71
76
78
81
81
82
88
87
94
101
112
117
121
127
131
150
174
214
249
288
299
278
234
169
110
51
2
-28
-40
-33
-23
-11
-3
9
20
34
41
41
39
39
36
32
32
32
32
30
29
30
27
24
21
20
19
20
16
13
9
4
2
-2
-1
-2
-4
-6
-8
-9
-15
-18
-19
-20
-22
-26
-30
-33
-34
-38
-41
-41
-40
-41
-43
-44
-47
-49
-53
-54
-55
-56
-53
-60
-61
-62
-63
-63
-63
-58
-58
-56
-58
-59
-57
-54
-51
-49
-44
-38
-32
-28
-22
-16
-9
-1
6
14
20
24
28
36
40
45
49
56
62
64
66
68
72
74
77
80
81
84
83
83
80
82
83
88
88
89
94
89
89
87
93
95
98
103
102
104
98
98
100
104
104
106
112
111
111
108
110
111
116
119
116
115
113
114
112
113
115
115
115
110
107
104
107
103
104
104
103
101
96
96
94
97
96
97
97
94
94
89
90
87
88
86
87
85
84
83
79
79
79
80
79
77
77
77
79
75
79
79
79
76
74
76
71
72
74
82
87
90
95
92
98
98
102
103
105
104
100
96
90
91
91
94
96
101
105
100
98
91
89
84
80
73
63
59
56
55
52
49
47
45
45
44
42
41
42
43
44
43
42
41
42
41
41
44
45
50
59
69
76
80
83
83
98
124
161
199
229
249
245
211
151
83
15
-37
-74
-88
-85
-75
-61
-47
-34
-20
-10
-1
-3
-3
-1
-1
-1
-1
-1
-4
-7
-12
-10
-10
-9
-12
-13
-13
-20
-24
-28
-31
-31
-29
-30
-33
-37
-40
-45
-46
-45
-46
-50
-53
-58
-61
-61
-63
-63
-63
-65
-68
-69
-74
-75
-76
-77
-79
-82
-83
-85
-87
-88
-88
-90
-90
-89
-89
-89
-91
-91
-94
-94
-93
-88
-84
-80
-78
-75
-72
-68
-64
-58
-52
-46
-38
-28
-26
-17
-12
-5
-1
7
16
16
19
20
23
28
35
36
37
39
40
42
42
44
46
49
51
52
51
50
50
51
58
60
63
62
65
65
65
70
71
74
75
76
78
77
79
81
87
86
87
85
86
84
82
84
83
85
86
87
85
80
82
77
79
74
75
72
71
66
62
62
62
65
62
60
56
55
59
56
56
49
43
41
46
50
45
45
42
42
39
38
36
35
35
35
33
29
31
27
26
24
23
22
16
18
22
29
27
22
20
24
28
33
41
44
48
49
48
49
52
57
59
62
59
56
53
53
53
56
62
63
68
71
68
61
56
56
45
37
29
27
27
24
19
10
8
7
10
10
9
6
4
1
-1
0
1
3
3
4
6
3
5
9
17
25
33
38
39
41
47
62
93
137
177
209
212
190
142
76
11
-51
-88
-106
-119
-123
-119
-110
-95
-80
-68
-60
-57
-60
-61
-64
-62
-62
-62
-61
-61
-64
-71
-77
-79
-79
-81
-81
-81
-82
-83
-85
-84
-87
-86
-87
-95
-103
-110
-110
-116
-118
-118
-118
-122
-128
-129
-131
-135
-136
-134
-133
-138
-142
-147
-148
-154
-156
-156
-157
-159
-161
-161
-167
-169
-168
-168
-167
-167
-164
-167
-168
-168
-163
-161
-159
-154
-151
-146
-146
-144
-141
-136
-130
-122
-116
-110
-105
-100
-95
-88
-77
-74
-69
-65
-58
-57
-57
-55
-52
-49
-49
-46
-45
-44
-41
-40
-35
-32
-29
-30
-31
-29
-26
-22
-27
-24
-22
-23
-24
-26
-24
-25
-22
-16
-8
-4
-4
-6
-5
-5
-7
-4
-3
-3
-2
2
1
-2
-3
-2
0
3
7
11
10
4
0
0
0
0
-1
2
4
4
0
-1
-3
-4
-3
-5
-5
-7
-9
-9
-7
-4
-10
-8
-7
-7
-10
-10
-8
-9
-6
-7
-9
-11
-12
-13
-12
-8
-8
-5
-4
-1
-1
1
6
6
12
16
23
25
28
28
24
24
21
22
23
26
24
26
32
35
34
31
32
28
24
17
10
5
5
7
8
4
-4
-10
-14
-14
-13
-12
-8
-10
-8
-12
-13
-13
-8
-4
0
2
0
1
6
13
22
31
40
38
44
55
79
112
154
198
220
225
195
142
80
16
-37
-76
-100
-111
-110
-104
-100
-92
-83
-69
-59
-52
-48
-47
-46
-46
-44
-48
-48
-48
-47
-48
-48
-47
-48
-48
-52
-54
-55
-54
-53
-54
-53
-57
-61
-67
-72
-72
-71
-72
-76
-82
-86
-92
-95
-95
-97
-98
-99
-100
-101
-101
-105
-109
-109
-109
-111
-111
-115
-119
-124
-125
-126
-125
-123
-127
-132
-134
-126
-125
-125
-124
-127
-127
-125
-120
-119
-117
-115
-112
-108
-104
-98
-90
-84
-79
-70
-63
-56
-50
-42
-32
-24
-14
-7
-4
0
4
11
12
15
16
18
22
25
22
22
25
28
29
32
35
38
42
41
43
45
48
47
45
51
53
57
53
54
53
53
57
59
64
63
67
67
68
70
72
75
70
73
72
74
72
73
76
71
72
72
75
73
71
72
68
70
64
65
63
66
66
65
62
59
59
56
56
55
60
60
52
47
43
45
46
50
50
49
46
44
45
45
48
47
47
45
45
45
44
45
46
51
51
51
51
52
53
57
63
67
75
79
83
86
89
94
90
89
86
87
86
89
91
94
100
100
103
101
98
91
84
78
67
65
63
64
65
64
63
54
54
52
54
52
51
53
53
52
51
52
51
55
55
56
56
53
56
63
74
85
94
96
101
115
140
175
215
255
271
268
224
166
94
25
-26
-59
-69
-68
-62
-50
-41
-30
-19
-8
-2
5
8
7
3
1
3
1
1
2
1
-2
-3
-1
-4
-4
-7
-9
-11
-12
-14
-17
-18
-21
-24
-27
-30
-32
-32
-32
-37
-37
-37
-38
-40
-44
-42
-50
-53
-58
-60
-60
-61
-61
-63
-67
-72
-73
-74
-74
-73
-74
-73
-76
-77
-80
-80
-82
-79
-77
-77
-76
-75
-75
-74
-70
-66
-59
-53
-51
-46
-43
-38
-32
-25
-19
-10
-2
3
6
14
24
26
34
37
43
47
52
59
56
61
64
68
68
70
71
72
74
74
77
79
84
82
85
87
85
88
89
94
94
98
102
102
103
100
102
103
108
107
111
111
109
108
108
112
114
117
114
112
111
110
113
112
112
108
110
107
104
103
105
106
100
99
97
97
94
92
92
90
92
90
91
90
89
86
86
88
83
84
83
80
80
80
83
76
74
71
71
70
70
71
67
66
64
64
63
63
61
61
61
59
60
62
65
70
80
84
85
89
91
93
92
96
92
87
84
86
89
90
94
95
100
99
95
88
80
73
67
64
60
57
53
51
48
47
48
46
47
45
43
39
37
39
37
38
37
40
40
40
39
41
42
41
51
63
71
74
74
84
96
124
156
198
225
238
221
173
115
48
-12
-57
-84
-86
-79
-68
-57
-45
-34
-26
-19
-16
-12
-13
-13
-14
-12
-10
-13
-15
-20
-20
-21
-22
-23
-22
-26
-31
-34
-41
-43
-46
-47
-48
-50
-57
-63
-64
-65
-67
-71
-74
-79
-82
-84
-87
-90
-91
-93
-101
-106
-110
-111
-116
-117
-118
-118
-118
-120
-123
-123
-128
-130
-134
-133
-133
-134
-137
-144
-147
-150
-146
-149
-147
-141
-137
-137
-139
-135
-130
-124
-120
-116
-109
-105
-101
-97
-90
-84
-78
-72
-68
-64
-60
-56
-52
-48
-45
-44
-43
-39
-37
-34
-31
-29
-28
-28
-25
-26
-24
-24
-27
-28
-27
-23
-18
-15
-17
-17
-16
-15
-13
-16
-12
-12
-8
-7
-4
-5
-6
-6
-7
-6
-8
-8
-7
-4
-4
-5
-5
-9
-8
-9
-9
-12
-11
-7
-11
-15
-15
-13
-15
-19
-22
-28
-30
-33
-33
-33
-33
-34
-37
-42
-48
-48
-46
-47
-49
-49
-49
-50
-50
-52
-53
-55
-56
-56
-57
-59
-62
-60
-58
-55
-58
-58
-57
-56
-58
-62
-66
-65
-63
-59
-54
-48
-45
-40
-34
-25
-26
-23
-20
-20
-24
-27
-28
-33
-32
-31
-29
-27
-23
-20
-18
-18
-24
-27
-33
-42
-50
-56
-56
-59
-58
-57
-57
-61
-67
-70
-79
-81
-83
-82
-81
-82
-82
-84
-82
-83
-80
-76
-78
-80
-80
-78
-76
-65
-53
-48
-45
-44
-39
-26
2
33
68
99
127
127
105
56
-2
-64
-112
-148
-170
-180
-180
-176
-167
-161
-153
-146
-139
-136
-134
-134
-136
-137
-138
-135
-141
-143
-141
-144
-144
-146
-146
-153
-158
-160
-161
-162
-167
-169
-173
-174
-177
-180
-179
-183
-183
-189
-189
-196
-197
-196
-200
-199
-201
-201
-207
-208
-215
-220
-221
-227
-228
-232
-230
-232
-232
-234
-237
-236
-237
-238
-242
-242
-244
-244
-244
-240
-241
-243
-241
-240
-237
-235
-231
-229
-225
-216
-213
-205
-201
-194
-187
-181
-176
-168
-159
-150
-142
-136
-128
-127
-124
-118
-115
-112
-108
-103
-103
-101
-98
-96
-92
-88
-85
-84
-81
-80
-79
-76
-75
-73
-70
-64
-63
-63
-61
-57
-52
-50
-47
-48
-44
-42
-38
-38
-36
-34
-29
-26
-25
-23
-22
-22
-20
-17
-15
-16
-15
-16
-17
-17
-14
-17
-15
-15
-14
-14
-15
-15
-21
-21
-22
-22
-24
-28
-31
-34
-33
-33
-31
-30
-28
-29
-33
-33
-36
-35
-34
-32
-32
-33
-30
-36
-39
-43
-42
-37
-32
-30
-30
-31
-32
-31
-30
-28
-29
-29
-29
-28
-26
-24
-18
-12
-6
-2
2
6
10
12
15
19
19
18
15
14
14
15
17
18
23
27
29
28
22
17
13
10
2
-3
-2
-2
-4
-5
-5
-10
-12
-13
-12
-13
-12
-11
-16
-16
-17
-16
-17
-16
-15
-13
-13
-14
-11
-5
4
16
24
29
28
36
51
81
114
155
188
205
193
149
92
22
-37
-83
-113
-125
-126
-117
-104
-90
-73
-61
-52
-46
-43
-42
-41
-43
-42
-43
-43
-43
-45
-47
-47
-47
-47
-47
-47
-50
-52
-56
-58
-59
-59
-61
-63
-64
-68
-71
-72
-72
-75
-74
-77
-80
-82
-85
-83
-89
-91
-93
-95
-97
-99
-102
-106
-109
-112
-114
-115
-117
-118
-121
-120
-122
-123
-120
-121
-121
-123
-120
-123
-122
-122
-124
-120
-118
-114
-113
-108
-105
-100
-95
-89
-82
-77
-71
-66
-57
-49
-44
-39
-28
-23
-15
-12
-7
-5
-1
5
7
13
15
18
17
16
16
16
20
20
25
26
27
25
26
30
29
32
35
38
40
41
46
44
48
50
51
52
55
59
59
62
63
66
65
67
66
70
71
69
69
66
69
69
70
70
68
67
67
67
67
67
66
63
60
58
57
55
54
53
55
51
49
47
46
47
45
48
49
51
48
46
43
44
48
45
45
44
44
43
42
42
40
42
38
40
39
40
36
35
37
37
41
42
43
40
44
49
50
56
58
64
66
69
76
74
76
75
77
75
76
75
76
80
80
82
84
89
87
87
80
72
66
59
53
48
50
48
46
44
41
38
36
37
36
36
36
37
37
36
37
39
42
41
43
44
45
45
48
58
65
74
76
78
82
95
124
155
198
225
238
222
180
120
53
-14
-65
-92
-95
-85
-72
-59
-44
-33
-21
-12
-6
-4
-3
0
-4
-4
-6
-4
-6
-6
-9
-12
-12
-14
-14
-17
-19
-24
-27
-31
-35
-35
-39
-41
-42
-41
-40
-45
-47
-47
-50
-52
-52
-54
-57
-60
-64
-67
-69
-71
-72
-72
-76
-80
-83
-84
-89
-91
-91
-94
-94
-93
-95
-99
-100
-95
-96
-94
-96
-96
-95
-95
-95
-96
-93
-88
-85
-82
-78
-74
-69
-62
-55
-47
-40
-36
-30
-21
-13
-12
-5
1
9
13
20
25
27
28
29
34
36
40
40
42
41
40
42
42
46
45
48
48
49
49
50
50
51
56
57
60
58
59
60
65
68
68
72
71
74
73
72
70
71
76
76
77
75
75
74
73
77
75
76
74
75
72
72
72
65
63
60
61
60
58
54
50
51
50
51
51
55
51
48
46
43
43
42
45
45
46
45
42
43
43
43
41
42
42
41
38
36
36
35
35
35
38
38
39
36
33
32
35
40
39
39
40
42
46
50
57
59
65
68
73
77
79
78
77
79
75
75
72
73
74
76
82
81
85
84
80
71
66
63
55
53
48
46
43
44
41
36
35
31
31
30
32
32
32
33
31
33
34
35
34
36
37
35
37
42
52
63
72
74
75
83
100
128
162
199
224
235
210
168
102
32
-30
-74
-92
-95
-87
-74
-61
-49
-38
-23
-15
-7
-7
-8
-9
-9
-11
-14
-12
-13
-15
-16
-19
-21
-22
-22
-25
-24
-26
-26
-27
-29
-29
-35
-35
-35
-36
-36
-37
-36
-43
-46
-49
-50
-52
-56
-58
-61
-66
-71
-72
-72
-75
-78
-80
-81
-87
-90
-93
-93
-93
-93
-92
-95
-93
-95
-97
-98
-99
-100
-101
-99
-101
-101
-98
-99
-97
-92
-88
-85
-82
-80
-77
-72
-63
-60
-51
-46
-40
-34
-29
-20
-18
-11
-6
1
6
12
15
17
22
24
29
31
34
35
37
38
35
40
42
46
46
49
52
47
48
49
53
52
55
57
60
61
60
62
63
66
65
67
70
71
72
74
76
76
79
77
79
78
76
74
74
81
80
79
76
75
71
69
69
71
73
72
71
67
64
62
61
62
58
59
56
55
52
52
54
49
50
49
48
47
46
46
42
44
41
40
39
39
37
36
35
32
34
35
37
37
38
39
35
35
36
36
34
35
38
39
42
45
51
58
64
64
68
69
70
70
69
69
68
68
62
60
61
65
68
69
73
70
68
62
59
54
47
41
37
39
39
35
28
23
16
13
14
11
11
13
14
10
7
8
7
12
17
23
23
23
25
24
34
42
49
50
52
56
70
94
123
163
194
215
203
170
119
47
-14
-64
-93
-102
-102
-91
-85
-77
-68
-55
-45
-37
-32
-30
-31
-33
-35
-36
-37
-36
-34
-39
-42
-42
-44
-45
-48
-49
-53
-54
-57
-62
-63
-64
-61
-64
-64
-68
-72
-77
-84
-87
-88
-88
-90
-92
-95
-99
-104
-107
-108
-113
-117
-118
-120
-121
-123
-121
-128
-131
-128
-128
-130
-134
-136
-142
-146
-146
-143
-139
-140
-141
-142
-141
-142
-142
-136
-132
-125
-124
-117
-115
-110
-104
-97
-89
-84
-79
-75
-67
-64
-61
-57
-50
-43
-38
-35
-34
-30
-27
-23
-18
-12
-11
-9
-9
-8
-10
-9
-2
0
5
8
10
8
2
1
0
5
8
11
12
12
9
12
15
15
18
20
23
22
19
22
20
23
21
19
17
17
19
16
15
15
22
21
16
8
8
9
6
2
2
3
1
-3
-6
-7
-5
-4
-7
-7
-4
-6
-11
-13
-13
-12
-13
-11
-11
-12
-14
-18
-24
-28
-29
-28
-25
-25
-23
-22
-19
-18
-17
-18
-23
-20
-20
-20
-25
-28
-25
-27
-19
-13
-7
-3
-2
0
4
8
6
6
5
3
1
0
7
8
14
19
19
18
14
12
2
-4
-8
-11
-15
-18
-20
-21
-24
-30
-36
-39
-39
-36
-36
-38
-43
-45
-45
-40
-37
-33
-33
-34
-36
-36
-32
-23
-12
-4
2
4
3
9
24
55
93
136
168
187
171
131
69
10
-42
-83
-109
-124
-135
-140
-135
-123
-117
-108
-100
-93
-91
-92
-92
-97
-96
-98
-99
-98
-100
-99
-103
-106
-110
-112
-114
-121
-124
-126
-124
-133
-138
-136
-137
-136
-141
-143
-152
-154
-159
-160
-159
-163
-165
-168
-167
-170
-174
-179
-184
-187
-189
-193
-197
-196
-198
-200
-201
-201
-203
-208
-209
-214
-215
-216
-212
-211
-213
-213
-212
-210
-211
-212
-210
-207
-202
-199
-192
-188
-179
-169
-159
-158
-154
-150
-145
-140
-132
-121
-114
-104
-99
-96
-93
-91
-90
-87
-80
-73
-66
-63
-68
-69
-69
-63
-63
-60
-55
-54
-53
-55
-52
-52
-49
-45
-46
-42
-39
-38
-41
-39
-33
-24
-21
-22
-25
-22
-18
-19
-21
-23
-22
-21
-17
-22
-25
-27
-23
-20
-20
-17
-18
-17
-19
-24
-28
-29
-27
-26
-27
-34
-36
-33
-34
-38
-42
-40
-41
-44
-46
-46
-46
-45
-43
-44
-40
-42
-48
-48
-46
-46
-48
-48
-50
-51
-55
-58
-61
-63
-61
-60
-54
-51
-53
-55
-59
-59
-62
-60
-56
-52
-48
-44
-40
-40
-34
-30
-30
-35
-39
-40
-38
-35
-29
-27
-28
-33
-33
-32
-33
-33
-35
-35
-42
-52
-56
-61
-62
-68
-74
-78
-81
-80
-82
-84
-86
-86
-82
-83
-82
-82
-81
-82
-82
-83
-85
-86
-87
-81
-77
-66
-52
-41
-35
-34
-26
-9
22
64
111
150
178
168
134
78
6
-54
-103
-136
-157
-171
-175
-177
-169
-156
-144
-132
-123
-117
-120
-120
-124
-125
-124
-122
-124
-127
-128
-131
-134
-138
-138
-134
-134
-137
-141
-144
-149
-152
-155
-157
-165
-169
-170
-173
-177
-181
-181
-184
-184
-184
-188
-191
-197
-202
-203
-203
-205
-209
-209
-214
-217
-220
-219
-221
-224
-222
-224
-221
-227
-225
-227
-224
-222
-225
-222
-224
-222
-226
-223
-221
-219
-214
-211
-205
-203
-196
-194
-189
-182
-177
-168
-160
-153
-148
-138
-134
-129
-122
-112
-104
-100
-95
-92
-91
-87
-81
-76
-72
-67
-65
-66
-65
-64
-61
-56
-56
-53
-49
-46
-46
-45
-40
-43
-39
-39
-40
-35
-28
-23
-24
-22
-22
-19
-18
-18
-17
-15
-12
-13
-11
-11
-11
-8
-9
-7
-9
-8
-6
-6
-6
-4
-3
-5
-9
-13
-13
-13
-14
-17
-19
-22
-24
-22
-20
-20
-22
-21
-23
-26
-26
-25
-26
-27
-24
-26
-27
-29
-32
-31
-30
-26
-27
-26
-26
-26
-29
-32
-32
-32
-28
-29
-27
-25
-23
-23
-18
-10
-8
-1
4
10
12
14
17
16
18
15
12
11
14
16
18
20
21
27
30
27
21
16
12
2
-6
-10
-10
-10
-12
-12
-16
-16
-19
-21
-22
-24
-25
-25
-25
-24
-25
-22
-20
-17
-14
-14
-12
-10
-5
5
16
29
28
30
36
55
86
124
171
206
231
223
187
123
52
-19
-69
-104
-124
-127
-118
-107
-97
-83
-66
-58
-53
-50
-48
-47
-50
-52
-58
-56
-55
-55
-56
-58
-57
-58
-57
-59
-61
-66
-70
-72
-76
-76
-82
-84
-85
-87
-89
-96
-99
-107
-108
-109
-113
-114
-116
-119
-125
-128
-131
-133
-132
-132
-132
-137
-141
-146
-147
-150
-152
-154
-154
-154
-157
-158
-159
-158
-158
-153
-155
-154
-152
-152
-152
-152
-148
-143
-140
-136
-133
-126
-122
-119
-113
-97
-89
-80
-72
-62
-56
-52
-45
-42
-36
-32
-27
-23
-16
-11
-8
-9
-8
-2
1
6
7
7
8
7
6
10
14
13
17
16
17
18
18
20
22
26
27
29
32
37
39
43
44
46
51
51
52
53
55
58
60
63
57
57
57
59
57
55
60
56
59
58
60
60
58
60
57
58
57
56
55
56
53
51
50
47
46
44
47
46
46
45
40
42
42
41
40
41
42
39
38
37
38
36
38
36
36
35
36
36
36
38
39
41
39
38
40
42
46
51
57
60
64
70
76
78
77
77
75
76
72
72
75
77
79
82
86
85
84
76
70
64
61
59
52
51
47
47
44
42
43
36
37
34
35
36
36
37
37
38
36
37
39
42
41
42
45
47
55
63
74
79
82
84
88
105
135
173
211
247
258
249
208
151
83
9
-44
-79
-93
-92
-82
-69
-59
-44
-29
-16
-11
-8
-8
-6
-8
-10
-8
-9
-9
-10
-12
-12
-12
-13
-16
-14
-15
-17
-20
-24
-29
-29
-31
-36
-37
-40
-41
-45
-48
-45
-51
-52
-57
-59
-62
-66
-67
-70
-69
-71
-74
-77
-80
-83
-88
-92
-93
-93
-91
-92
-93
-96
-95
-97
-97
-97
-97
-94
-93
-94
-97
-96
-93
-90
-86
-84
-80
-77
-77
-72
-65
-61
-55
-48
-38
-34
-30
-20
-10
-1
5
16
20
26
27
30
32
34
39
39
44
46
47
47
48
48
50
49
48
53
54
52
51
52
56
56
59
58
59
59
62
67
65
67
67
70
71
76
78
81
83
82
82
82
84
84
87
86
86
86
86
88
89
92
89
88
85
85
85
84
86
86
86
81
80
79
77
75
74
77
76
76
71
72
71
73
76
71
71
68
69
68
66
71
66
66
64
67
64
64
66
66
69
66
64
61
60
57
57
59
57
59
58
62
64
70
76
78
80
82
88
92
97
96
94
91
88
88
88
94
93
95
96
98
98
94
90
86
85
76
70
63
58
55
51
52
49
48
43
41
39
38
38
35
37
34
33
34
38
40
40
44
41
46
47
53
61
69
76
72
79
92
118
149
186
219
231
228
186
125
56
-12
-60
-91
-104
-102
-91
-77
-64
-54
-43
-33
-27
-21
-20
-21
-21
-19
-20
-24
-24
-28
-29
-32
-30
-29
-31
-33
-34
-32
-35
-39
-43
-46
-50
-58
-62
-64
-64
-64
-64
-66
-69
-73
-75
-74
-73
-71
-75
-78
-82
-87
-90
-92
-96
-99
-103
-106
-110
-112
-112
-111
-110
-108
-112
-113
-114
-115
-117
-119
-117
-122
-124
-125
-128
-126
-125
-120
-118
-114
-113
-110
-106
-104
-97
-90
-83
-82
-79
-73
-68
-57
-46
-37
-34
-31
-26
-23
-20
-13
-9
-10
-11
-8
1
7
7
5
8
8
9
9
9
10
11
12
12
13
14
14
13
14
20
21
25
26
26
24
23
25
25
26
25
29
32
32
29
29
33
34
34
31
29
30
36
44
35
32
30
35
34
35
35
31
28
19
17
18
21
19
16
16
14
12
6
4
8
8
6
3
5
6
6
1
-4
-7
-10
-10
-5
-4
-4
-7
-8
-10
-14
-14
-12
-12
-16
-17
-16
-16
-12
-12
-11
-8
-1
11
13
16
14
13
15
18
21
18
20
22
24
24
28
33
36
34
25
21
15
8
-4
-14
-15
-15
-11
-8
-9
-14
-20
-21
-26
-27
-28
-27
-25
-23
-26
-32
-31
-28
-23
-20
-20
-21
-17
-8
0
9
11
7
9
23
46
76
115
151
177
183
163
114
52
-14
-59
-87
-102
-115
-121
-119
-115
-110
-100
-91
-84
-80
-74
-74
-75
-81
-85
-86
-88
-88
-93
-93
-94
-97
-97
-96
-97
-104
-108
-110
-110
-109
-111
-113
-120
-125
-130
-129
-128
-133
-140
-144
-139
-140
-141
-140
-144
-148
-155
-154
-157
-158
-163
-163
-166
-170
-171
-174
-172
-171
-172
-176
-182
-184
-186
-184
-184
-183
-183
-177
-176
-174
-176
-176
-172
-170
-167
-165
-162
-157
-152
-146
-144
-139
-134
-126
-117
-110
-108
-104
-97
-90
-83
-80
-74
-74
-74
-73
-75
-74
-70
-63
-64
-62
-59
-58
-59
-61
-59
-55
-52
-49
-45
-42
-45
-44
-40
-35
-35
-34
-31
-28
-25
-22
-19
-16
-14
-13
-12
-11
-7
-7
-5
-6
-5
-3
0
2
4
7
7
6
6
4
4
3
3
-1
-1
-2
-4
-5
-4
-2
-2
-1
-1
-3
-3
-6
-7
-6
-4
-9
-12
-14
-12
-10
-9
-8
-14
-15
-14
-13
-12
-11
-8
-12
-12
-15
-15
-17
-13
-8
-3
1
3
9
11
12
11
10
9
8
6
6
9
14
17
17
16
15
15
16
14
10
0
-7
-11
-13
-13
-11
-11
-13
-18
-26
-29
-27
-25
-26
-29
-28
-29
-24
-23
-24
-28
-28
-23
-26
-26
-22
-13
-1
10
16
19
22
30
55
88
130
163
192
199
169
118
51
-13
-63
-102
-119
-130
-129
-122
-116
-108
-98
-85
-80
-77
-78
-77
-79
-82
-84
-82
-82
-86
-87
-88
-90
-91
-94
-97
-101
-100
-99
-102
-108
-112
-115
-120
-121
-122
-123
-122
-125
-130
-133
-136
-140
-141
-146
-151
-157
-160
-162
-163
-162
-160
-161
-162
-165
-171
-174
-174
-176
-176
-176
-172
-177
-180
-179
-181
-182
-184
-180
-178
-178
-177
-176
-169
-168
-167
-168
-162
-160
-156
-150
-145
-137
-132
-122
-116
-108
-101
-96
-89
-85
-79
-74
-67
-63
-56
-49
-46
-47
-46
-42
-43
-41
-37
-33
-31
-30
-32
-31
-30
-28
-25
-23
-21
-20
-17
-16
-16
-12
-10
-9
-9
-5
-5
-1
1
2
3
6
11
8
9
10
12
14
16
21
19
21
20
20
20
23
22
21
21
18
15
13
12
10
8
11
13
15
11
8
4
5
6
5
4
2
0
0
0
-4
-5
-8
-9
-10
-12
-9
-5
-4
-4
-6
-5
-5
-6
-8
-8
-8
-5
-3
-1
0
-2
-2
-7
-2
2
4
8
12
15
18
20
19
21
20
18
15
14
16
14
18
22
23
23
22
23
16
12
6
0
-6
-9
-11
-14
-14
-16
-17
-24
-30
-32
-30
-31
-35
-38
-37
-37
-38
-40
-40
-37
-33
-32
-33
-30
-23
-18
-9
-2
3
3
4
16
33
59
91
126
160
182
178
145
91
22
-41
-97
-132
-152
-156
-150
-144
-135
-122
-110
-100
-92
-82
-83
-85
-87
-87
-87
-89
-89
-92
-92
-92
-93
-93
-96
-97
-100
-100
-103
-104
-106
-109
-112
-116
-115
-119
-122
-127
-130
-132
-134
-136
-138
-138
-140
-143
-146
-150
-152
-156
-157
-160
-160
-162
-166
-170
-170
-172
-173
-173
-174
-174
-174
-174
-175
-174
-173
-174
-173
-173
-171
-170
-168
-167
-166
-161
-156
-152
-147
-142
-141
-136
-128
-122
-114
-108
-96
-92
-86
-81
-80
-75
-67
-61
-54
-47
-46
-42
-38
-32
-27
-23
-18
-18
-16
-15
-14
-12
-8
-4
-5
-4
-4
-4
-2
2
3
3
4
8
9
7
6
9
16
21
23
27
27
29
29
33
34
35
32
32
31
32
34
32
35
35
33
31
31
34
32
31
24
24
25
25
24
23
25
21
23
22
20
20
19
22
17
15
13
12
12
11
12
10
12
10
8
8
11
12
13
12
10
9
6
8
8
10
13
11
12
11
9
7
9
14
19
24
32
37
40
44
48
53
52
51
50
47
46
44
46
47
50
51
52
52
52
51
44
42
37
30
23
20
19
16
17
16
14
8
6
5
7
7
6
4
1
0
-1
3
10
6
7
7
8
8
15
28
36
45
45
45
48
62
82
118
157
195
220
217
197
144
84
16
-55
-101
-128
-132
-122
-107
-92
-80
-67
-55
-47
-43
-42
-40
-40
-41
-42
-42
-42
-42
-45
-47
-48
-48
-50
-49
-50
-51
-52
-55
-56
-58
-64
-66
-68
-68
-73
-75
-78
-81
-84
-85
-87
-91
-95
-98
-100
-102
-105
-106
-106
-105
-109
-112
-113
-114
-117
-121
-117
-120
-121
-123
-124
-121
-124
-122
-125
-125
-124
-123
-121
-122
-121
-118
-111
-109
-105
-101
-99
-94
-88
-81
-73
-63
-56
-56
-51
-43
-33
-25
-18
-10
-5
-2
3
6
11
17
22
26
29
27
29
33
33
36
38
40
41
42
44
40
43
44
48
49
51
55
52
55
57
59
59
61
61
67
71
68
68
66
70
69
72
78
77
76
73
74
74
76
76
74
74
73
71
69
72
71
71
68
67
68
67
67
63
60
55
53
52
52
51
50
51
47
48
47
47
45
42
44
42
45
44
42
41
39
35
36
39
39
40
38
39
38
37
39
35
38
38
39
38
41
47
46
49
51
57
58
61
64
72
76
74
73
70
69
63
67
70
70
72
75
79
76
75
71
66
64
59
49
39
34
34
35
35
32
28
21
19
17
18
18
20
19
19
19
20
20
14
15
16
19
20
21
30
32
43
48
55
59
71
92
121
163
192
212
203
165
103
35
-29
-75
-103
-112
-109
-99
-90
-80
-77
-65
-56
-48
-43
-39
-36
-37
-42
-47
-50
-53
-54
-55
-57
-54
-58
-60
-62
-63
-66
-68
-68
-71
-72
-77
-82
-86
-88
-88
-92
-94
-98
-103
-106
-108
-112
-114
-116
-120
-121
-122
-123
-121
-123
-128
-134
-134
-137
-142
-146
-147
-150
-148
-145
-145
-145
-148
-149
-155
-161
-163
-166
-163
-159
-156
-158
-160
-160
-157
-150
-145
-140
-136
-131
-129
-128
-122
-117
-104
-95
-86
-86
-80
-72
-67
-61
-57
-50
-48
-46
-48
-45
-41
-41
-43
-42
-39
-38
-38
-37
-32
-27
-24
-24
-27
-29
-29
-24
-24
-24
-24
-21
-19
-19
-18
-14
-8
-3
-2
-4
-4
-3
-5
-5
-4
1
-1
-1
-1
0
0
0
1
-2
-2
-5
-6
-8
-11
-16
-21
-22
-23
-18
-17
-18
-22
-24
-19
-20
-21
-26
-31
-33
-33
-30
-32
-31
-29
-28
-28
-27
-26
-32
-39
-44
-40
-35
-32
-32
-34
-36
-38
-40
-40
-43
-44
-43
-42
-38
-29
-22
-22
-22
-18
-17
-12
-11
-11
-15
-18
-18
-20
-17
-11
-6
-1
1
2
4
9
8
5
-3
-9
-17
-24
-29
-40
-42
-41
-42
-45
-49
-48
-48
-45
-48
-52
-60
-65
-63
-56
-50
-49
-48
-48
-45
-43
-43
-41
-40
-35
-27
-19
-15
-12
-6
4
29
66
107
143
163
156
132
82
25
-34
-82
-112
-129
-141
-148
-150
-145
-139
-133
-124
-114
-108
-102
-100
-103
-108
-111
-112
-117
-121
-123
-127
-126
-123
-119
-120
-122
-129
-138
-144
-144
-143
-141
-140
-143
-147
-147
-153
-158
-163
-159
-165
-170
-170
-172
-172
-176
-179
-184
-185
-187
-188
-186
-191
-188
-188
-189
-192
-194
-196
-199
-194
-196
-193
-202
-204
-205
-204
-201
-202
-202
-204
-202
-204
-200
-197
-193
-183
-180
-178
-176
-167
-160
-154
-146
-141
-138
-135
-128
-123
-113
-101
-89
-87
-84
-80
-77
-70
-66
-66
-64
-58
-55
-55
-53
-47
-41
-36
-34
-37
-37
-35
-32
-30
-30
-26
-29
-25
-26
-25
-20
-20
-19
-20
-16
-13
-11
-10
-6
-4
-1
0
-1
0
2
3
3
0
1
3
7
10
10
9
11
10
12
14
13
15
19
22
19
17
15
15
14
14
10
8
7
6
7
9
11
7
7
10
8
10
11
12
6
4
7
7
9
8
9
9
8
8
12
20
23
25
25
27
28
35
41
41
44
46
48
47
46
48
50
54
56
56
54
56
53
51
48
46
39
30
27
28
30
27
25
25
23
20
18
18
12
14
17
22
24
21
19
18
21
22
25
28
31
34
42
55
62
66
68
78
96
126
164
197
235
252
244
207
151
93
35
-7
-37
-54
-61
-58
-53
-50
-46
-41
-30
-22
-15
-14
-14
-12
-15
-18
-23
-23
-21
-21
-17
-18
-18
-22
-26
-29
-29
-31
-34
-37
-38
-42
-48
-49
-50
-51
-55
-59
-59
-62
-64
-67
-66
-69
-73
-79
-84
-87
-89
-87
-89
-94
-97
-103
-106
-106
-104
-105
-107
-109
-114
-116
-117
-120
-118
-117
-119
-123
-123
-123
-121
-119
-114
-120
-122
-119
-115
-112
-109
-101
-96
-89
-83
-75
-68
-61
-57
-48
-37
-30
-24
-20
-17
-14
-9
-1
4
8
10
10
12
19
24
24
26
23
22
21
23
24
26
27
31
35
37
38
41
48
46
45
44
47
48
49
54
54
57
59
64
65
66
71
71
75
71
71
71
74
72
71
71
68
70
67
67
64
65
68
64
64
61
61
61
65
68
61
58
55
56
54
54
52
52
50
48
49
50
53
50
49
48
48
48
45
47
48
51
49
51
48
47
44
44
49
50
51
50
54
61
64
68
72
76
74
75
73
74
70
67
66
61
61
62
64
65
68
78
78
79
71
64
59
54
45
36
33
29
28
26
26
25
23
20
13
13
9
6
4
10
16
14
11
9
12
12
16
19
24
32
36
39
38
43
45
56
75
106
143
179
208
218
208
163
106
38
-25
-74
-102
-111
-111
-105
-95
-87
-76
-66
-59
-54
-52
-53
-53
-52
-54
-58
-60
-60
-64
-66
-70
-71
-72
-76
-75
-82
-84
-88
-91
-93
-97
-98
-104
-108
-112
-117
-117
-121
-123
-130
-132
-135
-136
-137
-141
-142
-145
-144
-150
-151
-149
-155
-160
-167
-165
-169
-169
-169
-171
-172
-175
-173
-175
-175
-179
-177
-171
-169
-168
-167
-165
-167
-166
-163
-160
-156
-151
-145
-140
-135
-135
-130
-121
-110
-101
-95
-88
-83
-78
-75
-74
-68
-58
-54
-54
-54
-53
-53
-52
-46
-45
-43
-42
-40
-38
-38
-36
-37
-36
-34
-31
-29
-28
-26
-25
-22
-22
-22
-22
-17
-14
-11
-8
-8
-4
-2
-2
-4
-2
0
-1
-3
-4
-5
-3
1
4
4
0
-5
-6
-6
-5
-6
-5
-6
-8
-12
-14
-15
-15
-11
-12
-11
-13
-16
-17
-18
-16
-18
-16
-17
-22
-26
-28
-27
-26
-28
-31
-29
-29
-29
-31
-30
-25
-26
-25
-27
-28
-30
-30
-27
-29
-25
-24
-22
-20
-18
-16
-14
-10
-6
0
3
7
6
4
3
-3
-5
-5
0
6
12
15
15
15
9
4
-2
-5
-12
-21
-26
-28
-30
-33
-33
-32
-35
-42
-46
-47
-46
-48
-48
-47
-47
-46
-48
-48
-49
-48
-43
-42
-40
-38
-33
-23
-13
-4
-3
-1
3
18
41
76
113
151
184
185
166
116
53
-14
-81
-127
-158
-170
-167
-158
-145
-136
-121
-112
-102
-92
-89
-86
-86
-83
-84
-85
-89
-91
-93
-94
-94
-92
-92
-96
-98
-100
-104
-107
-109
-108
-111
-113
-118
-119
-124
-124
-128
-129
-129
-135
-138
-142
-144
-143
-144
-144
-148
-150
-153
-156
-159
-156
-158
-164
-164
-166
-168
-172
-170
-174
-175
-173
-177
-176
-178
-174
-174
-174
-172
-173
-171
-170
-165
-164
-159
-157
-153
-147
-142
-132
-124
-113
-109
-103
-95
-89
-80
-71
-60
-55
-50
-44
-38
-32
-27
-21
-15
-14
-13
-9
-4
-1
-1
3
5
7
9
11
12
13
16
15
18
19
17
16
19
22
25
27
30
36
40
39
40
41
47
46
49
49
51
51
51
54
52
55
56
58
58
58
57
54
56
54
56
55
56
54
55
54
53
53
50
51
48
47
46
42
44
43
43
42
43
45
44
41
38
39
40
42
40
42
40
38
36
38
40
41
44
45
45
43
42
39
40
44
41
43
43
48
52
56
63
68
76
80
83
85
86
84
82
83
78
81
79
83
84
88
91
87
88
82
78
73
67
62
51
49
43
44
42
41
36
32
31
31
34
32
31
32
34
36
33
34
36
38
38
42
46
49
55
65
78
81
82
83
100
126
162
201
233
248
235
196
131
60
-13
-68
-99
-108
-96
-83
-70
-56
-43
-30
-20
-8
-8
-6
-6
-8
-9
-10
-12
-15
-15
-16
-14
-15
-16
-19
-20
-18
-23
-24
-25
-26
-28
-30
-30
-36
-40
-42
-44
-45
-49
-52
-57
-58
-60
-62
-62
-61
-61
-65
-68
-72
-71
-74
-78
-80
-78
-76
-81
-83
-84
-88
-88
-88
-88
-90
-91
-93
-92
-92
-92
-89
-89
-86
-84
-82
-78
-74
-73
-68
-64
-59
-54
-48
-41
-34
-23
-20
-11
-4
5
12
17
26
29
36
40
47
50
52
52
56
58
57
60
63
69
68
70
71
67
70
71
76
77
80
80
78
80
81
84
83
88
87
90
90
92
96
99
100
98
100
100
99
99
99
100
98
101
100
104
102
101
99
97
98
95
96
93
93
91
89
87
84
86
84
88
84
83
80
79
85
80
81
78
78
75
74
80
77
79
74
76
73
73
71
75
76
72
71
68
68
64
64
65
60
60
60
63
64
66
68
71
78
84
90
91
95
96
103
103
103
102
97
92
87
89
90
91
93
96
100
100
104
99
97
88
82
74
66
64
58
56
53
50
45
42
40
38
37
35
37
34
30
29
31
32
31
36
37
39
36
36
44
47
57
61
67
68
76
91
118
156
192
224
229
213
166
101
31
-36
-78
-97
-101
-94
-83
-72
-64
-52
-41
-36
-33
-31
-31
-34
-37
-38
-37
-38
-38
-42
-45
-48
-50
-52
-53
-52
-54
-56
-60
-63
-68
-71
-74
-77
-76
-82
-89
-95
-101
-104
-107
-108
-111
-112
-112
-114
-114
-115
-119
-124
-126
-130
-133
-137
-144
-146
-147
-145
-154
-159
-156
-158
-159
-164
-160
-162
-160
-159
-161
-161
-163
-161
-162
-160
-157
-152
-146
-146
-145
-144
-134
-128
-119
-112
-106
-99
-95
-92
-88
-81
-75
-70
-64
-60
-58
-57
-55
-56
-58
-57
-52
-50
-50
-54
-55
-50
-50
-49
-45
-41
-43
-44
-41
-36
-35
-38
-37
-40
-34
-29
-26
-24
-24
-27
-31
-32
-29
-26
-26
-28
-31
-33
-30
-32
-32
-32
-31
-32
-32
-29
-31
-31
-31
-29
-29
-28
-32
-40
-44
-49
-52
-54
-55
-54
-55
-55
-59
-60
-61
-61
-63
-60
-61
-64
-68
-72
-71
-69
-68
-71
-72
-71
-72
-74
-74
-75
-80
-82
-83
-83
-84
-89
-93
-89
-82
-77
-71
-66
-66
-66
-68
-63
-65
-62
-61
-61
-63
-67
-68
-67
-61
-58
-57
-52
-48
-51
-60
-64
-66
-65
-71
-80
-88
-92
-90
-98
-104
-110
-112
-111
-113
-107
-108
-113
-120
-122
-120
-119
-118
-118
-115
-113
-107
-104
-102
-103
-100
-89
-79
-74
-75
-73
-62
-40
-11
26
68
103
117
107
73
19
-42
-104
-150
-179
-197
-210
-213
-213
-206
-198
-186
-174
-163
-154
-149
-154
-157
-156
-159
-164
-168
-167
-173
-176
-175
-175
-173
-176
-176
-175
-173
-176
-181
-183
-188
-188
-191
-189
-193
-196
-198
-203
-201
-207
-207
-215
-218
-217
-220
-218
-220
-215
-224
-229
-232
-229
-227
-228
-228
-233
-234
-240
-239
-240
-241
-240
-243
-241
-244
-242
-245
-244
-242
-239
-239
-241
-238
-240
-236
-232
-226
-220
-214
-205
-201
-196
-194
-187
-178
-168
-165
-160
-152
-146
-141
-134
-123
-120
-117
-112
-109
-104
-103
-98
-99
-96
-93
-89
-84
-84
-85
-83
-78
-76
-76
-72
-69
-66
-65
-61
-59
-55
-51
-49
-43
-39
-36
-34
-31
-30
-31
-29
-26
-24
-23
-25
-26
-23
-19
-17
-14
-8
-4
-4
-3
-2
0
3
8
7
11
12
14
13
13
16
15
17
17
17
16
17
16
18
20
19
22
24
26
25
27
32
31
32
32
35
35
38
41
37
39
36
39
39
40
40
42
45
47
54
59
67
70
77
81
86
88
89
88
85
85
83
83
84
88
92
95
102
102
107
103
101
94
89
86
82
83
79
81
78
73
67
64
68
64
64
65
67
63
64
70
69
74
74
77
78
80
80
84
95
103
113
114
118
119
136
164
196
235
265
292
285
253
200
131
72
21
-10
-22
-22
-14
-6
4
16
28
40
49
53
56
55
55
56
55
55
55
57
57
56
53
54
54
55
57
54
53
48
46
42
41
39
35
34
31
31
27
23
21
19
22
20
18
14
11
8
7
7
3
4
1
-1
-3
-5
-6
-8
-10
-13
-13
-12
-12
-15
-16
-14
-13
-12
-11
-7
-4
-4
-4
-6
-3
1
6
8
11
16
18
26
34
41
46
52
58
65
73
80
86
91
96
100
108
113
120
122
124
125
128
133
133
138
139
142
140
142
144
143
146
143
146
146
145
144
148
155
154
158
158
163
163
167
174
170
174
174
178
176
174
176
173
177
175
179
178
180
176
176
174
172
171
166
168
165
164
163
160
161
159
161
159
162
160
158
157
156
155
152
155
151
153
149
149
148
144
144
142
145
142
141
139
138
138
136
140
135
136
134
134
130
129
134
134
139
140
144
144
146
148
151
157
156
159
155
154
151
149
153
150
153
152
156
153
156
162
155
150
142
140
132
127
120
115
116
111
108
101
99
91
89
87
88
91
89
90
86
89
87
87
84
82
82
80
84
87
91
97
105
110
110
113
118
135
158
191
226
254
266
253
219
158
94
25
-27
-61
-75
-70
-62
-51
-39
-27
-16
-9
-2
1
4
2
1
-4
-6
-9
-10
-6
-9
-13
-15
-15
-16
-18
-16
-24
-26
-31
-37
-39
-42
-45
-54
-56
-58
-61
-65
-69
-72
-77
-82
-86
-88
-87
-89
-93
-102
-105
-111
-114
-119
-124
-126
-126
-124
-128
-133
-141
-144
-147
-147
-146
-146
-149
-159
-158
-156
-155
-159
-159
-158
-156
-156
-156
-154
-154
-148
-143
-137
-131
-129
-128
-125
-116
-115
-109
-101
-96
-93
-88
-81
-77
-74
-73
-69
-62
-59
-60
-60
-60
-66
-64
-60
-57
-59
-61
-58
-63
-61
-59
-59
-59
-57
-56
-57
-55
-52
-48
-45
-46
-48
-51
-50
-52
-54
-57
-55
-49
-45
-46
-49
-52
-50
-50
-50
-48
-52
-58
-63
-64
-65
-66
-68
-71
-72
-75
-79
-81
-77
-73
-72
-69
-73
-77
-84
-91
-96
-98
-90
-89
-88
-92
-97
-99
-100
-100
-102
-106
-110
-111
-111
-112
-114
-115
-113
-116
-119
-119
-117
-114
-115
-112
-112
-105
-100
-98
-96
-93
-89
-89
-86
-85
-89
-92
-95
-96
-98
-97
-93
-86
-83
-83
-82
-82
-86
-94
-97
-99
-111
-121
-127
-130
-132
-136
-141
-143
-146
-145
-148
-151
-153
-153
-153
-157
-157
-154
-150
-149
-148
-146
-147
-148
-149
-144
-141
-128
-116
-113
-113
-110
-93
-73
-40
-1
39
65
74
51
5
-53
-122
-179
-213
-240
-253
-261
-256
-252
-244
-232
-222
-213
-213
-210
-215
-216
-217
-218
-212
-210
-205
-209
-210
-217
-218
-222
-225
-225
-229
-233
-241
-240
-239
-243
-247
-251
-251
-254
-253
-257
-263
-269
-268
-273
-277
-276
-280
-287
-295
-295
-291
-288
-286
-292
-293
-301
-305
-312
-310
-308
-310
-308
-313
-310
-312
-310
-317
-320
-316
-321
-319
-324
-317
-317
-313
-311
-310
-304
-305
-299
-301
-296
-292
-285
-274
-272
-260
-256
-243
-238
-231
-224
-220
-210
-204
-194
-192
-187
-186
-177
-170
-168
-165
-162
-159
-158
-156
-151
-147
-143
-141
-140
-138
-134
-132
-130
-131
-126
-125
-123
-119
-115
-110
-107
-103
-100
-96
-93
-90
-87
-84
-84
-81
-76
-73
-69
-66
-64
-63
-62
-56
-55
-50
-48
-50
-53
-53
-49
-52
-52
-54
-56
-57
-57
-56
-59
-61
-65
-62
-62
-65
-68
-65
-62
-64
-64
-62
-63
-65
-65
-64
-64
-65
-65
-62
-63
-61
-61
-60
-59
-57
-56
-53
-49
-43
-40
-37
-33
-30
-28
-26
-25
-20
-22
-21
-19
-16
-14
-12
-8
-7
-4
-4
-2
-4
-5
-8
-12
-19
-26
-32
-36
-38
-40
-40
-40
-43
-41
-41
-41
-41
-38
-35
-39
-40
-39
-39
-37
-32
-28
-27
-27
-27
-20
-10
1
7
14
16
21
35
59
94
132
168
190
193
163
112
45
-17
-64
-97
-112
-119
-119
-116
-107
-96
-83
-73
-69
-66
-62
-63
-67
-69
-66
-68
-68
-68
-66
-68
-70
-71
-76
-76
-77
-80
-82
-84
-84
-87
-88
-89
-92
-94
-99
-101
-105
-106
-109
-111
-112
-116
-114
-114
-115
-122
-123
-122
-125
-125
-128
-124
-128
-132
-136
-135
-135
-135
-132
-131
-130
-132
-131
-129
-128
-128
-130
-128
-131
-128
-125
-122
-121
-116
-114
-110
-104
-98
-94
-88
-81
-76
-68
-58
-51
-44
-38
-31
-23
-14
-10
-4
2
6
7
7
13
11
16
19
23
26
27
28
26
27
27
28
32
37
34
28
27
28
32
33
33
33
36
39
40
45
48
51
52
58
63
65
63
65
66
67
68
66
68
71
70
68
67
68
68
68
68
68
68
64
63
61
64
61
61
59
60
59
58
59
55
57
55
55
51
51
48
44
45
43
48
49
51
47
43
44
41
46
44
43
40
41
46
45
48
49
51
53
58
62
66
71
70
69
64
61
57
58
58
60
65
67
69
66
66
61
56
49
42
37
30
28
23
23
20
17
14
11
8
5
7
6
3
1
0
1
0
5
6
11
12
11
9
14
23
29
42
47
50
51
61
82
114
159
196
228
225
197
144
81
16
-51
-98
-120
-128
-124
-118
-105
-96
-83
-71
-64
-58
-56
-53
-55
-55
-58
-61
-65
-69
-71
-71
-73
-76
-76
-76
-78
-80
-82
-83
-88
-91
-94
-97
-99
-101
-105
-109
-114
-119
-123
-124
-126
-130
-134
-138
-144
-147
-149
-152
-154
-155
-158
-163
-163
-167
-168
-168
-167
-170
-173
-169
-171
-171
-174
-173
-176
-178
-176
-174
-172
-176
-177
-175
-171
-169
-169
-163
-161
-155
-154
-148
-144
-134
-125
-122
-115
-108
-96
-92
-85
-79
-71
-63
-57
-53
-51
-46
-41
-35
-31
-31
-31
-29
-28
-29
-27
-25
-23
-21
-16
-15
-15
-14
-13
-12
-9
-5
-3
2
3
2
5
10
13
14
19
21
23
24
26
27
28
34
30
30
30
31
30
30
34
29
28
26
28
27
27
27
28
28
25
25
26
27
25
24
24
22
24
25
26
23
26
28
25
23
21
20
17
18
18
18
16
14
14
15
18
18
19
16
14
15
19
22
25
32
38
44
45
48
51
53
57
54
54
50
47
46
51
54
54
58
58
61
58
53
46
44
42
33
30
26
26
25
23
23
14
12
9
12
10
9
10
7
8
10
14
12
15
15
17
18
17
20
27
39
48
57
59
58
66
84
115
152
195
221
229
201
152
88
12
-48
-93
-113
-114
-107
-91
-77
-63
-50
-36
-27
-21
-18
-16
-15
-15
-13
-16
-14
-15
-16
-18
-17
-13
-17
-19
-20
-20
-22
-24
-26
-28
-30
-33
-33
-33
-37
-41
-43
-42
-48
-50
-52
-56
-59
-62
-59
-62
-62
-63
-64
-65
-68
-67
-67
-68
-73
-76
-75
-77
-78
-80
-79
-80
-79
-79
-78
-77
-76
-78
-81
-79
-76
-74
-73
-68
-64
-60
-56
-53
-47
-41
-34
-28
-19
-12
-7
-3
1
9
17
26
30
39
45
51
54
58
67
66
71
72
76
77
80
82
82
87
87
90
92
93
93
94
97
95
100
103
108
108
112
116
117
119
118
122
121
127
131
133
134
132
134
134
135
134
137
138
137
136
135
137
137
139
136
137
135
136
135
133
135
132
135
134
131
128
127
132
130
131
126
127
125
121
119
118
119
114
116
115
115
114
114
119
114
119
117
118
115
112
112
108
107
104
109
112
116
118
124
129
130
137
140
146
143
143
143
139
137
134
136
134
139
142
142
143
142
141
135
135
128
125
116
111
105
100
99
94
96
92
88
81
78
75
75
78
73
75
75
75
76
78
80
74
75
75
76
77
82
92
102
110
108
108
111
124
142
173
216
240
260
245
210
154
89
32
-19
-53
-66
-64
-53
-42
-33
-23
-12
-5
0
4
8
8
7
6
3
2
-1
-1
-1
-1
-3
-9
-14
-17
-20
-22
-26
-27
-31
-35
-39
-41
-44
-45
-48
-51
-54
-58
-61
-64
-66
-69
-76
-83
-86
-85
-86
-91
-96
-100
-106
-106
-106
-107
-109
-113
-116
-118
-120
-121
-123
-121
-122
-129
-133
-133
-135
-133
-131
-133
-132
-131
-126
-127
-128
-125
-123
-118
-117
-110
-106
-100
-93
-90
-85
-80
-73
-69
-64
-56
-50
-42
-37
-37
-37
-32
-32
-31
-30
-29
-30
-32
-31
-28
-24
-25
-28
-31
-30
-28
-23
-20
-17
-15
-14
-13
-12
-13
-13
-9
-9
-10
-11
-10
-9
-13
-12
-11
-9
-8
-8
-7
-11
-12
-14
-12
-10
-14
-19
-19
-14
-16
-21
-29
-31
-32
-33
-29
-32
-31
-35
-36
-36
-41
-43
-49
-49
-49
-50
-53
-58
-60
-60
-55
-53
-57
-64
-63
-59
-57
-62
-68
-72
-72
-70
-70
-72
-72
-69
-65
-64
-63
-61
-57
-59
-57
-51
-46
-43
-42
-42
-41
-41
-45
-48
-49
-48
-48
-47
-42
-43
-44
-50
-57
-64
-70
-74
-84
-90
-93
-95
-100
-108
-113
-117
-120
-123
-125
-122
-120
-117
-116
-108
-105
-105
-107
-112
-115
-118
-111
-105
-93
-84
-78
-73
-69
-59
-49
-23
14
54
90
115
112
89
38
-26
-89
-140
-172
-191
-202
-204
-208
-206
-205
-196
-184
-173
-168
-169
-169
-169
-169
-169
-169
-172
-175
-172
-173
-175
-180
-184
-186
-190
-191
-192
-189
-192
-194
-198
-197
-200
-205
-204
-207
-207
-211
-213
-219
-222
-223
-227
-226
-232
-233
-234
-237
-238
-240
-239
-241
-239
-241
-241
-248
-250
-250
-254
-251
-255
-249
-253
-252
-254
-254
-253
-254
-250
-250
-246
-248
-246
-241
-237
-229
-227
-218
-215
-208
-201
-195
-188
-180
-173
-167
-159
-152
-143
-133
-123
-119
-114
-107
-102
-96
-93
-89
-84
-80
-79
-75
-71
-69
-71
-67
-60
-60
-60
-58
-55
-53
-52
-46
-48
-45
-42
-39
-33
-29
-29
-27
-24
-26
-25
-23
-19
-20
-20
-16
-13
-8
-9
-6
-5
-3
-1
1
2
-1
-1
2
4
1
-3
-6
-7
-6
-7
-8
-7
-7
-7
-7
-6
-8
-8
-8
-5
-8
-9
-9
-7
-9
-10
-6
-9
-7
-8
-8
-8
-7
-6
-6
-3
-3
0
1
6
7
11
17
19
24
27
26
22
18
21
19
22
25
31
34
36
38
39
38
33
31
25
22
14
9
6
3
3
3
-1
-6
-10
-10
-9
-10
-10
-9
-7
-3
-5
-5
-3
0
2
2
4
8
12
23
36
47
50
50
52
68
84
115
148
186
213
219
202
152
92
28
-26
-66
-85
-92
-92
-85
-77
-70
-64
-53
-46
-36
-30
-28
-26
-27
-30
-32
-33
-31
-36
-38
-39
-37
-38
-42
-43
-48
-47
-48
-47
-45
-46
-52
-58
-60
-62
-63
-62
-63
-65
-69
-74
-80
-81
-84
-91
-96
-99
-102
-106
-106
-106
-108
-111
-113
-114
-118
-122
-127
-127
-127
-129
-128
-129
-133
-136
-136
-138
-138
-135
-132
-130
-128
-122
-120
-117
-112
-102
-101
-97
-92
-87
-81
-76
-70
-63
-56
-51
-42
-35
-27
-23
-17
-16
-16
-11
-5
0
3
6
10
13
15
15
14
14
18
22
22
22
21
19
20
21
24
27
26
25
26
30
34
38
44
46
46
43
45
48
50
56
55
56
59
60
58
57
62
62
66
67
68
65
64
62
64
67
62
61
60
59
58
57
60
53
51
49
51
48
45
46
44
47
44
42
41
43
40
42
44
41
41
40
41
39
41
42
41
42
41
42
43
46
46
46
48
53
57
59
62
65
70
72
73
72
70
66
64
68
69
73
73
76
76
77
80
74
72
67
62
56
51
50
43
41
38
38
33
27
24
22
26
23
24
26
29
28
28
27
24
25
24
26
26
28
33
39
50
58
64
66
64
62
71
92
126
162
190
215
213
193
143
77
17
-41
-81
-102
-107
-99
-92
-84
-76
-64
-49
-39
-33
-33
-31
-32
-32
-32
-31
-32
-32
-35
-38
-38
-41
-45
-47
-46
-47
-45
-45
-46
-48
-50
-49
-54
-57
-61
-64
-65
-68
-72
-75
-79
-82
-85
-85
-89
-91
-93
-93
-96
-96
-96
-98
-100
-102
-101
-107
-108
-108
-110
-113
-115
-113
-116
-113
-112
-112
-113
-114
-110
-110
-110
-114
-111
-108
-107
-102
-97
-90
-89
-86
-80
-70
-61
-53
-48
-42
-35
-29
-22
-18
-12
-6
1
6
11
17
18
18
21
30
31
28
26
26
26
28
31
27
31
32
35
36
38
42
42
44
45
50
52
54
56
60
63
61
64
66
70
70
71
72
72
75
76
77
76
79
79
76
75
75
75
72
73
74
76
73
71
71
70
70
68
69
66
64
62
60
58
57
60
57
57
53
52
51
51
54
52
54
52
53
52
51
49
49
53
51
51
48
47
48
49
53
49
52
52
58
59
63
69
69
75
76
82
84
87
83
80
81
76
77
77
82
84
88
90
90
91
84
79
72
72
65
56
52
49
46
43
43
39
35
29
28
29
30
30
28
29
28
28
26
26
27
28
31
31
33
40
51
62
66
69
68
80
97
126
160
195
220
221
195
144
81
14
-45
-85
-101
-103
-94
-78
-63
-52
-45
-35
-24
-25
-22
-22
-21
-22
-23
-21
-25
-25
-28
-29
-30
-29
-34
-38
-37
-38
-38
-42
-45
-45
-48
-48
-52
-52
-54
-59
-64
-66
-67
-72
-76
-80
-80
-82
-84
-86
-89
-91
-96
-99
-102
-105
-106
-107
-109
-115
-117
-116
-114
-116
-114
-117
-117
-118
-119
-118
-118
-115
-117
-114
-111
-112
-111
-112
-109
-107
-103
-98
-90
-83
-78
-74
-66
-56
-52
-46
-39
-31
-26
-23
-16
-12
-6
-1
5
8
13
13
13
15
16
20
23
27
26
27
26
26
28
28
29
29
33
34
36
37
40
43
44
48
47
49
48
49
52
56
57
59
61
59
60
61
59
56
57
64
62
62
60
60
58
56
59
54
55
52
52
50
50
51
47
45
43
44
40
41
40
42
43
39
39
37
37
34
32
33
31
32
31
29
26
24
25
27
29
29
30
29
29
26
27
26
26
29
34
39
42
48
48
50
51
52
54
53
53
46
44
43
44
46
47
50
51
51
44
38
34
31
28
22
18
9
7
2
-1
-4
-7
-7
-12
-12
-14
-15
-15
-16
-15
-19
-16
-12
-8
-10
-14
-18
-17
-12
-5
9
13
14
12
19
36
57
91
126
156
167
159
118
58
-6
-70
-117
-147
-158
-152
-144
-132
-124
-112
-96
-88
-83
-81
-79
-80
-81
-82
-84
-85
-84
-86
-86
-87
-87
-89
-91
-90
-92
-92
-95
-102
-105
-109
-113
-114
-117
-121
-125
-126
-130
-134
-138
-139
-144
-146
-146
-149
-151
-154
-151
-157
-162
-164
-167
-168
-171
-170
-172
-172
-177
-180
-179
-183
-180
-183
-183
-186
-186
-184
-187
-186
-190
-187
-191
-190
-187
-182
-174
-173
-169
-169
-164
-161
-155
-146
-140
-132
-129
-122
-116
-107
-103
-98
-91
-84
-82
-82
-80
-75
-72
-69
-66
-68
-64
-63
-62
-61
-60
-57
-55
-52
-52
-50
-49
-48
-46
-43
-39
-42
-42
-41
-38
-37
-34
-28
-27
-25
-25
-24
-24
-24
-23
-26
-26
-24
-21
-22
-24
-25
-23
-22
-23
-22
-23
-22
-25
-26
-28
-35
-37
-39
-39
-38
-36
-36
-41
-46
-48
-48
-45
-42
-40
-46
-56
-59
-55
-52
-52
-57
-58
-59
-57
-56
-56
-58
-60
-60
-66
-65
-63
-63
-64
-66
-63
-61
-57
-53
-51
-52
-52
-50
-43
-36
-33
-28
-25
-27
-30
-29
-25
-31
-34
-35
-34
-30
-28
-26
-32
-37
-41
-43
-48
-55
-61
-65
-65
-70
-74
-75
-78
-81
-85
-87
-88
-87
-90
-92
-92
-92
-90
-89
-87
-82
-80
-78
-78
-80
-76
-70
-65
-54
-45
-40
-41
-38
-28
-4
25
59
94
124
141
121
82
24
-38
-93
-132
-152
-168
-174
-173
-168
-160
-156
-148
-142
-135
-132
-130
-129
-132
-131
-134
-133
-136
-137
-138
-141
-138
-140
-138
-144
-146
-146
-147
-146
-150
-152
-157
-161
-164
-165
-168
-175
-174
-174
-173
-179
-178
-179
-183
-186
-187
-187
-189
-190
-193
-198
-200
-203
-208
-210
-206
-208
-209
-210
-209
-212
-215
-213
-213
-212
-214
-216
-214
-212
-212
-212
-208
-209
-208
-205
-200
-200
-196
-189
-186
-181
-177
-170
-168
-160
-151
-144
-135
-128
-122
-118
-110
-106
-99
-92
-89
-82
-76
-72
-69
-65
-63
-64
-62
-59
-56
-57
-55
-52
-49
-46
-42
-38
-33
-32
-32
-30
-27
-24
-22
-14
-8
-6
-4
-1
4
7
13
11
13
13
12
12
15
19
18
20
22
23
22
21
20
22
24
22
21
19
20
20
22
25
22
22
20
23
23
22
24
19
20
20
24
22
23
22
23
22
22
22
22
22
22
24
23
20
21
23
25
23
25
25
26
25
25
25
27
31
35
40
45
47
50
53
60
64
69
67
67
64
63
63
68
75
75
79
81
85
87
84
85
77
74
67
63
56
52
51
51
55
52
51
48
48
45
44
46
44
46
46
48
47
49
53
51
54
54
58
62
72
81
88
91
91
96
106
129
159
198
226
246
242
210
163
97
37
-15
-45
-58
-56
-46
-34
-21
-8
1
10
16
22
25
27
22
23
21
21
18
15
15
17
19
17
12
8
7
7
7
11
6
6
1
-2
-5
-5
-5
-10
-12
-13
-12
-13
-16
-21
-26
-26
-28
-30
-31
-34
-35
-37
-38
-42
-42
-43
-45
-47
-47
-45
-47
-49
-50
-49
-49
-48
-47
-46
-47
-50
-49
-49
-49
-47
-44
-41
-39
-38
-37
-32
-26
-21
-17
-15
-12
-6
0
11
20
23
29
34
41
45
48
46
51
58
62
67
69
70
68
70
77
78
83
81
81
78
79
84
83
86
85
87
88
90
88
91
93
92
93
92
97
96
98
96
97
102
105
109
109
112
109
104
103
105
106
103
103
103
107
105
102
98
97
100
96
96
91
89
85
84
83
83
86
81
80
75
74
70
67
71
69
70
67
68
66
66
64
64
64
63
62
57
56
56
60
62
58
60
60
60
58
62
71
72
78
82
86
82
82
83
84
83
77
76
75
79
77
79
81
81
79
72
68
62
62
56
46
38
33
28
27
27
24
24
21
20
20
20
17
11
9
7
6
6
7
9
11
13
12
16
19
24
31
39
46
42
44
48
66
91
127
165
192
207
192
156
102
40
-20
-66
-94
-105
-107
-101
-93
-85
-78
-67
-66
-64
-65
-64
-64
-62
-59
-62
-64
-69
-74
-77
-77
-79
-86
-92
-97
-97
-96
-96
-96
-97
-97
-103
-108
-114
-123
-128
-130
-132
-138
-142
-147
-149
-151
-149
-150
-155
-159
-168
-173
-180
-184
-184
-186
-185
-186
-183
-185
-188
-198
-205
-207
-206
-205
-208
-210
-212
-206
-208
-207
-204
-207
-207
-210
-207
-204
-200
-196
-189
-178
-175
-172
-173
-169
-167
-160
-151
-144
-137
-135
-129
-127
-121
-115
-109
-100
-96
-96
-98
-97
-96
-89
-87
-89
-89
-87
-84
-85
-87
-89
-90
-86
-81
-77
-76
-75
-74
-74
-73
-67
-65
-63
-65
-70
-71
-66
-61
-56
-54
-52
-52
-49
-48
-46
-47
-45
-45
-42
-39
-42
-48
-53
-48
-51
-51
-51
-52
-53
-54
-52
-55
-55
-56
-55
-56
-57
-60
-66
-68
-72
-70
-70
-69
-69
-72
-72
-73
-72
-73
-74
-73
-74
-76
-80
-78
-77
-76
-75
-74
-73
-70
-70
-70
-68
-65
-64
-60
-56
-55
-53
-52
-52
-53
-53
-51
-53
-49
-45
-42
-40
-37
-34
-36
-38
-42
-44
-49
-57
-63
-66
-67
-70
-71
-72
-78
-83
-85
-82
-85
-86
-85
-85
-83
-85
-85
-89
-86
-83
-80
-77
-76
-72
-65
-54
-45
-41
-40
-36
-24
-2
33
75
112
142
146
118
72
8
-50
-98
-133
-155
-165
-166
-162
-156
-148
-140
-128
-119
-117
-114
-112
-114
-120
-121
-120
-116
-118
-120
-125
-125
-124
-123
-122
-122
-121
-125
-129
-130
-132
-136
-141
-142
-145
-149
-153
-156
-153
-154
-156
-159
-159
-162
-162
-162
-168
-170
-177
-175
-181
-182
-181
-183
-178
-182
-181
-188
-191
-195
-193
-190
-189
-187
-187
-185
-188
-187
-185
-189
-189
-191
-189
-192
-189
-188
-184
-179
-172
-167
-163
-157
-152
-144
-136
-128
-120
-112
-104
-97
-92
-88
-81
-76
-69
-64
-59
-55
-51
-48
-44
-34
-34
-31
-32
-30
-29
-30
-29
-29
-26
-22
-19
-18
-15
-15
-13
-8
-5
-2
0
3
4
6
12
12
15
15
18
19
23
25
26
27
27
26
26
31
33
37
38
40
40
41
42
42
44
46
45
43
41
38
36
41
38
40
40
41
38
38
39
38
39
37
38
38
38
37
39
43
40
41
41
42
39
40
43
39
40
41
44
43
42
45
42
47
50
59
65
71
72
76
82
85
86
87
91
90
90
91
91
92
95
97
100
106
105
102
96
88
83
74
70
62
62
58
55
53
52
48
42
39
36
38
36
35
38
39
42
40
43
44
45
42
45
52
51
60
67
79
84
84
87
100
126
152
190
221
249
245
216
169
101
34
-24
-64
-80
-82
-70
-61
-49
-36
-21
-11
-4
-2
-2
2
1
1
-1
1
0
-1
-2
-2
-3
-4
-6
-9
-8
-9
-13
-15
-16
-18
-23
-22
-23
-25
-28
-33
-37
-39
-43
-45
-46
-44
-48
-51
-54
-56
-58
-60
-65
-70
-74
-77
-80
-81
-78
-82
-85
-85
-88
-90
-93
-90
-92
-93
-94
-95
-93
-93
-93
-90
-85
-87
-86
-81
-76
-72
-69
-64
-61
-55
-48
-41
-32
-25
-18
-14
-5
1
7
13
21
28
32
36
40
46
49
53
54
58
58
58
58
61
64
65
67
66
68
67
68
67
68
72
70
74
76
79
78
77
80
84
90
87
92
94
96
95
98
103
100
104
106
109
108
108
113
110
113
110
114
112
112
108
110
111
106
104
100
102
99
100
101
101
102
98
98
97
98
96
94
95
94
92
92
95
93
94
90
90
89
89
89
88
91
88
86
87
91
96
100
110
111
116
118
124
126
127
127
123
124
118
119
120
123
125
127
130
127
124
116
109
101
96
93
86
83
79
78
74
69
69
62
63
59
58
55
57
58
56
56
55
58
58
60
59
61
65
72
81
87
90
88
96
109
135
167
204
239
253
250
207
153
84
17
-37
-72
-86
-86
-78
-64
-51
-37
-26
-18
-12
-7
-9
-9
-10
-12
-15
-17
-16
-22
-25
-26
-27
-29
-33
-36
-38
-36
-40
-43
-46
-45
-46
-47
-47
-49
-52
-57
-61
-64
-68
-67
-73
-76
-78
-83
-87
-90
-89
-96
-99
-103
-107
-106
-109
-109
-110
-107
-111
-117
-119
-121
-121
-124
-123
-125
-125
-125
-125
-121
-120
-120
-122
-120
-121
-119
-116
-112
-109
-103
-97
-94
-88
-83
-76
-69
-61
-55
-49
-42
-35
-28
-21
-11
-9
-6
-3
0
3
6
12
11
12
8
9
9
10
11
14
17
18
18
17
21
21
21
24
24
29
31
32
30
32
39
41
43
45
48
48
49
50
53
55
56
59
59
58
56
58
57
56
55
57
56
54
56
52
53
51
48
45
43
48
46
46
43
42
41
40
39
35
33
29
30
28
29
28
29
31
26
26
29
35
38
44
53
51
54
54
55
56
62
65
65
65
58
54
51
53
54
54
56
56
56
52
46
38
35
31
26
21
12
2
-4
-5
-10
-15
-16
-19
-19
-20
-21
-25
-26
-26
-27
-29
-30
-30
-29
-27
-28
-28
-27
-24
-18
-7
5
5
6
6
14
27
51
89
127
162
166
150
108
48
-22
-84
-136
-166
-179
-172
-159
-142
-131
-120
-114
-103
-95
-95
-96
-96
-91
-96
-100
-104
-105
-107
-111
-114
-116
-117
-117
-113
-112
-117
-121
-124
-126
-134
-139
-140
-144
-148
-152
-154
-155
-151
-151
-154
-158
-163
-166
-173
-176
-184
-188
-189
-186
-185
-193
-200
-204
-203
-205
-209
-208
-204
-203
-207
-207
-207
-210
-217
-217
-221
-221
-218
-217
-211
-206
-203
-205
-208
-206
-205
-200
-197
-189
-184
-176
-171
-165
-159
-157
-148
-139
-127
-126
-124
-118
-112
-105
-104
-101
-102
-99
-97
-93
-91
-91
-90
-89
-85
-84
-79
-74
-70
-70
-72
-75
-76
-73
-71
-70
-71
-66
-62
-59
-55
-52
-49
-49
-47
-39
-32
-29
-30
-33
-35
-37
-32
-29
-34
-33
-32
-31
-27
-26
-22
-26
-29
-31
-30
-29
-27
-26
-29
-31
-37
-40
-40
-39
-42
-45
-44
-46
-49
-48
-50
-51
-55
-52
-56
-57
-58
-58
-57
-53
-50
-51
-46
-40
-34
-28
-25
-23
-21
-18
-15
-13
-15
-18
-20
-18
-19
-20
-16
-12
-10
-11
-9
-15
-21
-31
-38
-45
-51
-54
-56
-53
-54
-60
-64
-64
-66
-66
-66
-67
-65
-62
-60
-57
-55
-51
-53
-48
-41
-37
-37
-37
-28
-20
-8
-3
-1
-2
3
20
53
88
123
158
172
167
125
65
0
-61
-102
-131
-148
-154
-152
-146
-145
-138
-128
-120
-111
-106
-99
-97
-96
-98
-98
-100
-102
-101
-102
-106
-108
-108
-107
-111
-115
-116
-119
-120
-118
-119
-122
-125
-122
-128
-132
-136
-137
-137
-140
-144
-147
-147
-146
-149
-149
-153
-155
-160
-160
-162
-164
-167
-175
-175
-176
-175
-183
-187
-187
-189
-185
-186
-184
-190
-192
-191
-188
-185
-186
-184
-184
-180
-178
-174
-172
-170
-162
-152
-145
-147
-144
-136
-130
-124
-119
-108
-100
-91
-84
-75
-68
-61
-54
-46
-42
-38
-37
-37
-36
-32
-26
-24
-18
-14
-11
-9
-10
-5
-8
-6
-7
-8
-8
-7
-4
-6
-4
-2
0
2
3
7
12
19
22
23
24
28
31
33
38
35
33
32
35
36
38
39
36
36
37
38
35
32
27
24
26
28
31
33
34
33
30
25
23
23
22
20
19
22
20
17
16
17
15
10
11
13
16
14
12
11
13
15
19
25
30
38
41
44
46
49
56
52
53
50
50
48
51
57
60
65
65
68
66
65
60
54
51
43
38
30
25
20
17
16
12
10
4
-1
-2
-2
0
-1
-1
0
0
0
4
5
6
5
6
7
6
12
24
39
43
43
44
51
70
94
137
180
214
220
205
161
105
43
-25
-76
-109
-124
-121
-113
-98
-86
-72
-61
-54
-46
-41
-37
-36
-37
-42
-43
-45
-46
-48
-49
-47
-53
-56
-54
-53
-55
-57
-59
-65
-66
-70
-71
-71
-73
-77
-83
-86
-92
-94
-95
-97
-99
-104
-106
-113
-117
-124
-130
-131
-133
-133
-140
-144
-145
-145
-147
-149
-150
-152
-155
-160
-158
-157
-159
-158
-157
-156
-157
-156
-154
-150
-146
-142
-145
-144
-139
-133
-128
-125
-121
-118
-114
-108
-101
-93
-89
-87
-78
-67
-61
-52
-45
-42
-40
-34
-27
-26
-22
-17
-14
-16
-17
-13
-13
-9
-8
-5
-4
-2
-4
-3
1
3
7
10
13
15
18
17
15
16
19
23
28
33
35
36
37
40
43
43
46
48
53
52
52
52
56
57
57
56
55
57
56
56
55
52
53
47
49
48
49
46
47
49
44
44
44
46
45
42
40
41
43
41
42
41
40
38
39
42
41
43
44
49
51
54
59
61
67
70
75
78
84
84
85
83
82
82
82
85
88
94
94
96
100
103
104
98
94
88
83
74
67
62
58
60
58
59
54
51
50
49
47
48
51
52
52
51
51
51
51
55
51
55
55
56
59
66
80
83
89
90
96
105
124
152
189
229
248
254
230
188
126
54
-8
-57
-82
-86
-78
-63
-48
-35
-28
-18
-8
-2
2
6
7
4
2
1
3
0
-1
-5
-5
-7
-10
-13
-15
-13
-14
-13
-16
-18
-21
-24
-27
-27
-24
-29
-30
-33
-36
-39
-39
-44
-49
-52
-54
-58
-60
-63
-67
-69
-71
-75
-76
-77
-76
-76
-78
-78
-82
-82
-81
-80
-82
-84
-81
-83
-83
-84
-82
-80
-80
-80
-78
-74
-71
-68
-66
-63
-55
-48
-40
-38
-33
-25
-18
-10
0
10
15
19
26
32
36
39
43
49
51
54
56
57
58
60
63
63
64
64
65
65
64
68
68
73
74
75
76
80
84
82
87
88
92
94
96
97
98
102
100
105
104
103
100
102
106
104
108
105
107
106
106
107
103
106
103
103
99
101
102
100
99
95
96
92
91
89
93
93
86
85
81
81
79
81
80
82
81
78
76
76
79
77
79
76
75
74
74
73
72
77
80
89
92
94
97
102
109
109
114
113
114
112
111
116
111
114
114
118
120
123
125
120
117
109
102
93
87
80
75
71
68
68
61
58
55
57
58
54
55
53
51
49
53
54
51
47
45
47
46
47
47
55
65
76
83
83
84
87
103
127
158
189
216
231
217
184
120
54
-16
-67
-97
-104
-97
-81
-68
-58
-49
-41
-33
-29
-25
-24
-25
-25
-26
-25
-26
-26
-25
-32
-33
-32
-32
-36
-39
-39
-44
-46
-53
-57
-57
-54
-56
-57
-60
-64
-69
-70
-72
-77
-80
-81
-88
-93
-99
-103
-104
-108
-108
-116
-121
-122
-122
-121
-125
-126
-127
-128
-132
-136
-139
-145
-145
-148
-145
-147
-148
-149
-150
-149
-148
-145
-143
-142
-142
-143
-141
-140
-143
-144
-139
-134
-123
-114
-107
-102
-97
-90
-79
-75
-73
-72
-69
-62
-60
-58
-59
-57
-53
-50
-43
-49
-49
-49
-49
-47
-45
-44
-47
-42
-36
-32
-33
-35
-36
-34
-30
-28
-23
-19
-21
-25
-27
-26
-26
-24
-23
-23
-23
-20
-12
-10
-16
-24
-26
-26
-23
-18
-13
-11
-13
-14
-13
-16
-18
-16
-17
-21
-28
-30
-30
-30
-28
-31
-32
-32
-35
-39
-39
-39
-40
-40
-41
-43
-46
-49
-49
-44
-41
-46
-45
-46
-47
-49
-50
-45
-45
-43
-41
-37
-38
-35
-28
-23
-15
-11
-9
-12
-21
-25
-25
-21
-21
-20
-18
-16
-16
-16
-17
-25
-34
-43
-49
-54
-57
-59
-60
-64
-67
-68
-67
-70
-73
-74
-74
-75
-77
-81
-81
-80
-78
-77
-74
-70
-69
-68
-66
-59
-53
-43
-35
-31
-29
-26
-10
12
51
88
124
145
145
116
67
5
-52
-101
-129
-147
-155
-160
-160
-159
-152
-143
-135
-128
-123
-116
-120
-122
-124
-125
-124
-124
-119
-118
-122
-132
-140
-140
-138
-137
-140
-141
-147
-147
-146
-147
-148
-150
-148
-151
-153
-160
-166
-170
-173
-175
-177
-173
-177
-182
-188
-192
-194
-200
-203
-205
-206
-209
-214
-214
-214
-215
-217
-214
-215
-217
-219
-215
-216
-217
-214
-214
-210
-208
-204
-205
-206
-204
-204
-196
-190
-183
-177
-171
-168
-161
-150
-142
-138
-136
-128
-122
-114
-105
-100
-93
-87
-81
-83
-82
-77
-71
-68
-66
-64
-61
-59
-56
-53
-50
-49
-48
-45
-41
-37
-35
-34
-33
-33
-32
-32
-31
-25
-20
-18
-14
-9
-6
-2
-3
-3
-2
-1
-2
-1
3
2
2
1
3
4
4
10
8
9
7
8
5
5
8
4
3
0
1
-1
-1
-2
-4
-5
-6
-6
-6
-6
-6
-5
-4
-4
-1
-2
-2
-4
-4
-1
-5
-5
-5
-4
-7
-7
-4
-1
2
7
10
12
13
14
18
19
20
19
18
17
17
19
22
27
31
35
35
35
35
28
24
16
12
4
-1
-4
-5
-8
-12
-14
-17
-20
-23
-24
-22
-25
-23
-24
-20
-20
-20
-15
-18
-20
-22
-19
-13
-8
-4
2
13
18
22
27
40
61
95
133
169
193
193
173
123
64
0
-63
-107
-137
-150
-144
-133
-117
-105
-90
-79
-70
-66
-61
-63
-64
-65
-65
-67
-69
-67
-65
-70
-77
-78
-76
-77
-78
-82
-83
-81
-80
-82
-86
-88
-91
-96
-98
-100
-102
-107
-110
-112
-115
-120
-124
-129
-135
-140
-143
-144
-147
-147
-154
-157
-157
-160
-158
-159
-157
-166
-170
-171
-172
-172
-176
-175
-176
-173
-176
-178
-177
-179
-174
-173
-168
-165
-163
-161
-158
-150
-146
-139
-134
-126
-121
-116
-109
-103
-94
-90
-83
-78
-71
-66
-60
-54
-48
-47
-45
-41
-39
-37
-37
-33
-35
-35
-36
-32
-31
-28
-24
-27
-28
-28
-23
-18
-16
-17
-17
-15
-12
-8
-7
-4
-1
2
6
3
7
10
14
15
17
22
20
19
18
20
20
20
21
22
22
19
19
21
21
18
18
19
17
16
15
12
12
11
10
10
9
9
6
5
7
6
5
6
6
6
5
3
4
7
4
2
1
0
1
1
5
3
4
2
3
6
12
21
23
26
27
30
32
35
39
37
38
38
39
39
37
34
37
45
48
51
50
51
47
42
41
32
28
21
17
12
11
10
4
0
-3
-4
-7
-10
-11
-10
-10
-11
-10
-10
-11
-11
-11
-8
-6
-3
1
6
11
20
29
36
37
39
48
66
97
132
171
198
207
182
139
75
8
-56
-110
-136
-141
-130
-116
-103
-88
-79
-68
-59
-52
-48
-46
-42
-46
-48
-52
-53
-52
-52
-54
-55
-53
-55
-57
-58
-59
-60
-62
-62
-65
-65
-68
-72
-73
-75
-77
-84
-86
-88
-91
-94
-97
-100
-102
-102
-104
-106
-110
-113
-113
-115
-117
-122
-120
-121
-122
-124
-124
-127
-128
-130
-131
-132
-131
-132
-134
-134
-131
-131
-130
-130
-127
-125
-125
-125
-121
-118
-115
-113
-105
-93
-91
-87
-79
-72
-63
-55
-42
-38
-32
-28
-25
-20
-11
-6
-4
1
4
9
12
16
18
21
24
25
28
29
29
28
32
39
40
40
40
41
42
49
52
55
57
60
64
67
68
69
75
79
80
81
81
84
84
87
84
86
87
88
87
88
89
84
83
80
79
76
75
76
74
73
67
66
67
69
64
64
65
61
62
62
63
60
57
59
54
57
56
57
55
56
57
55
53
50
49
46
46
46
46
48
49
50
48
47
46
48
53
57
62
66
70
70
72
72
73
74
74
75
74
73
68
70
71
74
79
86
91
86
84
75
70
63
57
50
46
46
39
35
32
31
25
19
21
21
20
17
18
18
19
17
18
21
19
20
18
19
21
31
46
53
62
60
62
70
89
117
152
188
210
214
184
136
67
-9
-72
-115
-132
-128
-117
-101
-91
-80
-69
-57
-49
-46
-44
-42
-44
-48
-49
-50
-55
-59
-59
-57
-58
-61
-66
-69
-69
-72
-74
-76
-80
-86
-87
-85
-85
-87
-91
-95
-96
-100
-101
-102
-103
-106
-118
-124
-122
-124
-126
-131
-135
-141
-144
-144
-144
-144
-144
-146
-148
-147
-149
-153
-154
-157
-157
-161
-159
-160
-160
-160
-163
-161
-163
-159
-158
-151
-148
-145
-139
-134
-126
-122
-116
-113
-110
-109
-104
-92
-85
-80
-81
-78
-73
-69
-64
-57
-52
-50
-48
-48
-44
-44
-45
-45
-43
-45
-45
-45
-43
-43
-44
-41
-37
-32
-29
-29
-29
-32
-30
-31
-28
-26
-26
-21
-15
-9
-13
-11
-13
-15
-18
-20
-20
-18
-16
-14
-8
-7
-6
-10
-15
-16
-22
-25
-32
-32
-33
-32
-27
-23
-20
-22
-27
-35
-40
-40
-40
-39
-37
-34
-36
-39
-43
-41
-44
-44
-43
-42
-44
-45
-43
-44
-48
-50
-48
-48
-50
-48
-50
-50
-52
-52
-48
-42
-40
-38
-34
-31
-28
-24
-20
-20
-21
-18
-21
-23
-26
-23
-16
-10
-5
-9
-8
-13
-15
-16
-18
-22
-32
-40
-45
-46
-46
-50
-55
-60
-64
-68
-67
-68
-70
-68
-66
-62
-64
-64
-67
-70
-71
-70
-66
-63
-61
-55
-46
-38
-32
-26
-23
-23
-13
12
45
85
125
156
163
140
89
29
-38
-90
-121
-141
-150
-152
-149
-144
-136
-126
-118
-109
-100
-100
-104
-106
-106
-105
-106
-108
-110
-113
-116
-117
-120
-119
-123
-125
-125
-127
-128
-131
-131
-136
-140
-146
-150
-151
-155
-157
-163
-163
-167
-170
-170
-174
-174
-178
-178
-182
-183
-183
-185
-183
-183
-182
-186
-185
-188
-187
-189
-190
-190
-193
-196
-199
-196
-193
-193
-191
-189
-186
-188
-185
-186
-180
-174
-170
-171
-168
-161
-156
-149
-144
-138
-134
-126
-117
-110
-104
-99
-92
-86
-78
-72
-63
-60
-59
-57
-48
-40
-44
-44
-40
-34
-31
-31
-25
-23
-19
-20
-21
-19
-12
-10
-12
-9
-5
0
3
7
12
16
17
18
21
23
21
21
27
28
27
25
25
24
24
25
25
29
32
33
35
35
33
32
32
29
26
24
25
27
27
26
21
22
21
18
15
12
14
11
12
12
11
10
9
11
12
13
8
3
2
3
2
3
8
8
8
8
11
12
12
13
8
12
12
11
11
14
22
29
33
35
39
42
46
45
46
46
43
41
44
47
49
53
54
56
57
57
56
52
51
42
37
28
24
20
20
18
15
13
9
9
10
11
9
6
8
8
13
15
19
20
23
26
21
20
21
28
35
45
54
56
61
65
81
104
140
172
207
224
209
176
120
65
8
-43
-73
-94
-97
-87
-80
-71
-59
-43
-34
-26
-21
-16
-17
-18
-17
-17
-17
-20
-21
-23
-25
-28
-28
-28
-29
-29
-32
-32
-32
-31
-36
-38
-40
-42
-45
-45
-44
-47
-50
-52
-56
-58
-61
-66
-67
-68
-73
-79
-81
-82
-84
-87
-85
-87
-87
-88
-92
-92
-94
-92
-98
-101
-102
-105
-103
-104
-104
-108
-109
-110
-109
-105
-106
-105
-103
-98
-97
-95
-92
-90
-84
-78
-71
-67
-59
-52
-46
-40
-34
-28
-21
-16
-11
-5
0
4
8
12
16
18
22
26
28
30
31
29
30
31
34
33
34
37
34
34
33
37
38
41
44
46
50
50
51
50
56
60
64
68
67
70
67
69
70
74
79
75
78
77
78
73
71
70
67
67
69
71
71
72
70
70
69
65
66
67
69
65
64
65
63
60
58
56
55
59
60
62
61
60
61
63
62
59
61
60
60
57
56
57
57
57
54
55
55
56
57
60
65
65
69
72
77
80
83
90
93
95
92
90
86
82
83
84
89
90
96
96
100
100
99
98
90
88
80
75
69
67
68
63
62
58
56
50
50
49
50
50
47
46
46
47
47
48
48
49
52
55
56
59
72
80
86
85
87
96
113
141
171
210
235
246
224
183
127
62
-1
-54
-82
-92
-90
-79
-65
-49
-38
-25
-16
-8
-9
-7
-2
-6
-9
-14
-13
-12
-14
-17
-21
-21
-22
-24
-28
-32
-34
-36
-36
-41
-46
-48
-46
-47
-50
-52
-58
-62
-66
-74
-78
-80
-79
-81
-82
-87
-89
-89
-92
-96
-99
-100
-106
-106
-106
-107
-111
-112
-113
-114
-117
-120
-119
-119
-121
-126
-127
-122
-123
-123
-121
-117
-114
-112
-108
-105
-101
-100
-96
-89
-84
-80
-74
-68
-63
-55
-47
-36
-33
-29
-22
-16
-12
-6
2
4
7
7
10
12
15
15
18
20
18
19
21
24
24
26
30
28
32
32
32
33
37
36
34
35
38
39
39
40
42
44
46
48
50
49
48
46
45
44
45
47
47
44
43
46
44
42
41
42
41
39
36
31
34
36
37
34
32
29
30
31
28
25
22
22
21
20
20
13
14
15
14
12
11
14
11
12
12
15
15
12
10
10
8
4
3
2
3
1
5
7
9
12
12
12
15
19
24
27
32
36
36
32
32
30
31
32
33
34
32
32
33
40
40
38
32
26
18
9
1
-5
-8
-13
-16
-16
-17
-17
-25
-25
-25
-24
-25
-28
-32
-34
-36
-39
-36
-33
-28
-23
-20
-15
-16
-8
-5
-1
2
9
23
40
70
108
151
174
180
156
105
40
-33
-87
-120
-138
-143
-143
-135
-128
-120
-110
-103
-95
-90
-88
-92
-92
-94
-97
-100
-101
-101
-102
-102
-105
-106
-108
-111
-113
-112
-110
-114
-120
-126
-132
-137
-143
-146
-148
-146
-149
-151
-155
-156
-160
-160
-160
-165
-170
-172
-171
-173
-175
-178
-183
-184
-186
-188
-193
-197
-202
-204
-203
-208
-209
-208
-205
-209
-212
-209
-205
-202
-209
-207
-209
-207
-207
-207
-200
-199
-189
-184
-176
-175
-173
-166
-161
-153
-148
-141
-137
-131
-125
-121
-115
-110
-102
-99
-93
-91
-91
-90
-85
-82
-83
-86
-91
-91
-90
-88
-83
-78
-76
-74
-69
-67
-70
-72
-71
-72
-70
-67
-62
-57
-53
-47
-48
-49
-51
-51
-49
-46
-43
-42
-41
-41
-38
-35
-34
-35
-35
-36
-43
-44
-42
-41
-40
-40
-37
-41
-43
-48
-48
-47
-49
-52
-56
-53
-56
-56
-56
-55
-56
-57
-55
-56
-58
-60
-61
-60
-58
-59
-61
-63
-65
-64
-61
-55
-56
-57
-60
-61
-57
-53
-52
-50
-50
-50
-50
-44
-37
-34
-33
-29
-28
-25
-25
-24
-26
-26
-21
-21
-15
-15
-15
-13
-13
-12
-19
-25
-34
-37
-42
-46
-53
-54
-53
-59
-63
-64
-63
-64
-68
-66
-67
-64
-67
-70
-69
-66
-62
-61
-58
-59
-62
-64
-58
-47
-36
-29
-25
-24
-21
-8
18
54
92
128
150
150
120
67
9
-56
-101
-134
-154
-165
-167
-162
-156
-147
-137
-129
-120
-114
-108
-105
-106
-111
-111
-111
-113
-116
-116
-112
-113
-115
-115
-116
-116
-119
-117
-121
-123
-125
-129
-129
-129
-131
-136
-137
-140
-145
-148
-151
-150
-150
-150
-154
-154
-154
-156
-159
-165
-167
-173
-173
-174
-177
-179
-181
-182
-186
-185
-186
-188
-189
-191
-188
-186
-186
-188
-185
-184
-186
-186
-181
-175
-173
-171
-166
-162
-159
-153
-148
-143
-137
-133
-125
-115
-104
-99
-97
-96
-92
-89
-83
-78
-71
-66
-66
-63
-57
-51
-48
-46
-38
-38
-38
-40
-41
-39
-35
-32
-32
-29
-30
-28
-25
-24
-24
-20
-19
-20
-21
-19
-15
-13
-12
-10
-6
-2
0
-1
-1
3
3
6
9
8
4
3
3
4
7
7
6
3
3
5
5
7
8
8
6
4
3
4
5
-3
-5
-4
-4
-4
-2
0
-7
-8
-11
-10
-8
-6
-7
-6
-6
-7
-7
-9
-10
-12
-10
-5
-7
-8
-7
-7
-8
-9
-5
-6
-4
-9
-11
-11
-7
-1
5
12
15
18
19
22
25
27
26
24
25
24
20
15
16
17
23
24
26
28
29
26
16
11
6
3
1
-1
-3
-5
-6
-13
-16
-18
-18
-19
-18
-15
-18
-18
-19
-17
-16
-18
-15
-18
-15
-17
-14
-9
-2
5
14
21
22
23
30
51
78
119
158
186
202
182
144
82
14
-46
-97
-120
-130
-130
-120
-109
-94
-86
-74
-63
-54
-48
-46
-44
-42
-42
-44
-46
-48
-52
-52
-49
-52
-54
-55
-54
-56
-57
-59
-64
-65
-66
-67
-69
-72
-74
-78
-81
-83
-85
-84
-85
-90
-94
-96
-98
-100
-102
-104
-103
-104
-103
-108
-109
-109
-108
-107
-109
-108
-109
-110
-113
-118
-117
-120
-118
-117
-114
-114
-115
-113
-109
-105
-103
-100
-101
-98
-94
-90
-83
-76
-71
-66
-59
-52
-48
-43
-38
-30
-24
-20
-13
-7
-3
-1
1
4
4
9
12
14
14
16
22
23
26
26
28
30
31
34
31
35
35
40
42
42
43
45
49
49
50
51
55
57
59
63
62
66
67
71
72
74
78
74
73
68
70
70
71
69
72
74
73
72
70
71
69
67
67
67
66
63
60
60
65
63
61
60
61
62
61
61
60
60
57
56
58
61
60
55
58
57
61
61
62
58
58
61
60
58
57
61
61
62
64
60
61
60
62
63
70
76
80
88
91
95
94
97
100
103
106
100
100
99
100
99
105
114
115
119
114
116
111
107
102
99
93
83
77
76
77
74
71
69
68
69
68
68
67
72
72
72
74
76
78
77
81
78
77
73
76
88
100
113
119
121
123
133
152
182
221
256
278
265
233
184
128
65
9
-29
-51
-49
-40
-27
-15
1
16
20
27
30
33
30
33
35
40
44
39
37
34
31
27
26
27
22
19
17
18
19
19
23
22
21
15
9
2
-2
-10
-12
-8
-7
-9
-15
-16
-16
-14
-16
-21
-21
-22
-26
-32
-33
-33
-36
-38
-42
-47
-51
-51
-50
-45
-43
-46
-50
-58
-64
-64
-59
-56
-55
-53
-50
-47
-45
-40
-40
-34
-28
-23
-21
-20
-15
-15
-8
0
8
15
24
32
35
36
35
40
43
48
50
59
69
70
67
63
64
62
66
68
67
67
67
68
70
76
80
83
81
76
71
66
67
71
80
84
89
93
97
96
94
94
92
96
100
103
105
106
110
104
100
91
90
94
99
100
96
93
86
87
96
107
108
93
77
62
67
75
80
75
74
80
76
75
76
81
84
83
76
60
48
42
46
51
54
47
48
51
52
54
54
58
57
56
48
42
43
48
51
51
50
45
41
36
33
31
34
38
38
44
53
63
67
64
54
51
57
62
65
65
68
70
71
78
80
81
67
51
40
42
46
43
42
38
38
35
31
31
30
29
15
8
4
4
2
3
4
-2
-4
-5
-3
-1
3
6
0
-1
0
-2
-6
-2
9
26
36
38
31
24
30
50
88
129
161
175
170
147
104
56
0
-50
-88
-114
-125
-128
-120
-108
-95
-80
-70
-63
-64
-75
-88
-100
-105
-102
-93
-88
-86
-88
-88
-92
-96
-99
-101
-103
-112
-121
-136
-145
-146
-145
-141
-144
-147
-153
-156
-157
-157
-157
-162
-167
-172
-171
-172
-176
-183
-192
-191
-189
-187
-196
-200
-200
-205
-205
-206
-200
-207
-210
-214
-217
-219
-225
-230
-238
-233
-229
-223
-223
-226
-225
-225
-226
-228
-226
-225
-224
-222
-218
-214
-209
-201
-196
-190
-181
-173
-168
-164
-155
-149
-144
-143
-139
-132
-127
-130
-131
-128
-124
-121
-117
-110
-108
-106
-103
-101
-97
-97
-95
-97
-96
-96
-97
-95
-89
-85
-84
-81
-81
-80
-79
-78
-76
-75
-71
-73
-72
-71
-68
-64
-61
-57
-57
-54
-49
-45
-45
-48
-52
-54
-55
-52
-43
-35
-37
-43
-47
-50
-53
-53
-51
-48
-50
-54
-63
-68
-71
-68
-64
-62
-62
-63
-61
-59
-66
-73
-76
-74
-72
-70
-71
-70
-73
-80
-81
-77
-73
-79
-79
-74
-66
-60
-58
-54
-54
-52
-50
-50
-47
-44
-42
-42
-43
-40
-37
-40
-42
-45
-43
-37
-36
-38
-43
-48
-52
-58
-60
-66
-68
-70
-74
-77
-81
-85
-89
-89
-92
-91
-92
-92
-90
-89
-90
-91
-89
-86
-84
-87
-87
-86
-81
-75
-64
-52
-44
-38
-40
-30
-9
24
61
103
137
149
133
87
24
-41
-102
-143
-165
-177
-183
-180
-170
-161
-148
-136
-122
-119
-119
-118
-118
-115
-115
-114
-119
-122
-123
-124
-126
-127
-125
-126
-126
-131
-131
-132
-137
-140
-145
-146
-152
-153
-154
-156
-157
-160
-161
-165
-168
-171
-170
-170
-175
-178
-181
-183
-189
-189
-190
-191
-192
-192
-190
-187
-187
-192
-196
-198
-201
-210
-212
-205
-204
-200
-197
-193
-195
-196
-196
-192
-184
-181
-176
-171
-162
-156
-149
-139
-133
-124
-119
-111
-112
-108
-100
-94
-87
-80
-69
-66
-62
-56
-47
-40
-38
-36
-34
-32
-30
-26
-26
-24
-23
-19
-16
-13
-12
-11
-8
-5
-2
-4
-7
-7
-2
0
5
9
10
12
12
15
19
21
22
22
23
24
28
29
32
34
37
42
40
43
44
46
45
44
44
36
36
34
36
39
44
44
42
42
39
37
34
35
35
35
34
32
36
37
35
34
38
41
40
40
42
45
43
44
44
49
47
44
42
43
44
45
48
50
51
50
50
52
56
64
68
73
74
75
75
81
90
88
89
84
83
80
82
82
84
90
92
98
97
99
95
93
92
86
85
79
75
71
71
74
70
69
64
61
58
60
62
60
58
58
62
63
64
64
69
72
70
72
72
79
85
96
102
106
109
113
125
143
175
209
247
263
260
228
180
123
62
19
-12
-27
-33
-27
-15
-3
12
23
32
34
34
32
36
41
40
40
38
39
39
37
37
33
32
29
31
32
31
27
24
24
21
20
16
15
12
13
12
3
-1
-6
-6
-4
-5
-6
-12
-13
-16
-16
-17
-18
-19
-23
-23
-20
-16
-20
-25
-28
-32
-38
-44
-41
-40
-39
-37
-34
-34
-36
-41
-46
-45
-41
-36
-34
-31
-31
-36
-37
-32
-25
-16
-8
-2
5
11
16
21
27
36
35
38
40
44
49
52
57
54
57
61
69
68
63
57
56
58
59
62
62
62
60
60
63
62
64
63
66
67
71
72
70
67
66
66
66
72
74
76
74
76
81
81
81
79
83
81
79
80
82
83
79
78
77
81
80
77
73
72
77
74
76
76
76
74
71
70
69
68
63
63
59
58
60
64
67
57
52
47
47
44
45
48
41
41
38
36
34
33
35
36
36
36
38
39
42
42
44
46
41
40
41
46
48
50
51
48
49
51
54
50
52
50
48
46
42
42
46
50
50
53
51
49
47
43
39
30
26
20
20
16
11
4
-1
1
0
0
-4
-8
-10
-8
-5
-7
-7
-9
-9
-13
-11
-10
-7
-7
-6
3
11
19
22
24
27
28
45
71
107
136
164
172
152
116
58
2
-46
-81
-99
-110
-111
-108
-101
-95
-90
-83
-78
-72
-73
-74
-74
-73
-74
-76
-77
-78
-77
-79
-78
-78
-83
-92
-97
-98
-102
-106
-111
-114
-117
-118
-116
-114
-117
-123
-127
-128
-128
-132
-136
-140
-146
-148
-146
-141
-147
-153
-156
-160
-164
-170
-176
-179
-183
-181
-181
-177
-180
-186
-192
-189
-189
-189
-188
-191
-193
-203
-206
-207
-197
-188
-188
-184
-186
-184
-185
-179
-174
-169
-163
-163
-160
-156
-150
-146
-137
-128
-122
-116
-115
-112
-112
-109
-105
-102
-95
-91
-89
-89
-88
-87
-84
-82
-82
-84
-83
-81
-83
-88
-88
-81
-77
-73
-73
-68
-62
-59
-59
-62
-61
-68
-67
-63
-58
-57
-58
-56
-53
-50
-49
-45
-40
-39
-43
-47
-47
-46
-44
-40
-38
-34
-32
-32
-39
-39
-40
-42
-41
-40
-37
-37
-37
-35
-34
-39
-43
-46
-47
-46
-47
-45
-45
-45
-49
-52
-53
-54
-54
-51
-50
-53
-51
-50
-49
-47
-47
-46
-48
-48
-50
-47
-45
-45
-48
-48
-51
-51
-49
-48
-43
-39
-32
-26
-20
-12
-14
-15
-17
-17
-20
-21
-18
-17
-11
-9
-7
-6
-6
-7
-4
-1
-4
-8
-12
-18
-26
-32
-30
-32
-33
-34
-36
-37
-39
-41
-44
-42
-40
-40
-38
-35
-33
-32
-29
-26
-27
-30
-29
-23
-10
-1
7
11
12
19
35
65
98
138
169
192
191
160
108
44
-14
-64
-97
-114
-117
-113
-105
-97
-85
-75
-64
-58
-56
-52
-46
-48
-47
-47
-46
-48
-50
-48
-52
-52
-53
-52
-52
-53
-56
-58
-57
-58
-59
-60
-63
-66
-71
-73
-79
-81
-83
-83
-83
-85
-86
-92
-99
-104
-106
-106
-105
-107
-112
-115
-119
-119
-118
-117
-117
-121
-125
-130
-131
-133
-133
-133
-132
-136
-136
-135
-134
-134
-133
-125
-121
-118
-117
-122
-126
-125
-120
-115
-105
-97
-92
-87
-81
-73
-64
-54
-48
-40
-34
-31
-29
-27
-19
-17
-14
-9
-5
-3
1
8
8
9
11
15
16
16
13
11
12
15
18
20
23
22
20
19
22
25
28
32
35
42
42
42
42
43
44
45
50
50
49
47
51
52
54
53
56
62
60
59
57
57
56
54
57
52
54
53
52
52
54
57
52
50
50
52
50
49
49
49
49
43
41
38
39
40
42
44
39
39
36
36
34
33
35
30
27
23
20
19
21
25
29
30
30
30
30
32
29
33
32
29
28
26
28
30
33
35
41
44
47
47
48
56
58
60
60
63
63
62
56
53
51
48
50
53
55
56
56
59
52
49
42
35
29
27
30
25
23
19
16
10
8
8
7
10
10
11
11
10
8
8
10
12
14
16
17
19
28
35
41
48
49
50
55
72
96
127
160
194
211
200
171
118
64
6
-42
-76
-94
-97
-88
-80
-73
-64
-50
-38
-30
-27
-20
-24
-25
-27
-26
-28
-28
-30
-30
-30
-33
-36
-37
-41
-43
-47
-47
-50
-53
-55
-56
-58
-59
-58
-62
-66
-70
-74
-75
-76
-76
-79
-77
-78
-83
-87
-90
-88
-88
-90
-96
-99
-99
-102
-104
-109
-108
-117
-120
-122
-123
-124
-127
-122
-124
-123
-127
-125
-121
-119
-120
-121
-120
-123
-122
-119
-114
-107
-104
-99
-93
-86
-80
-74
-67
-58
-55
-50
-45
-39
-32
-26
-19
-18
-16
-16
-14
-11
-8
-6
-4
-1
-2
0
-1
-1
-1
2
7
5
3
-1
0
2
3
7
4
6
5
8
9
11
12
15
20
24
27
25
22
20
21
23
23
24
24
25
22
22
21
20
19
20
21
19
19
15
15
12
11
11
11
12
10
10
7
6
7
7
4
2
5
3
4
3
1
-3
-5
-4
-8
-7
-9
-10
-13
-14
-14
-15
-16
-18
-18
-18
-18
-24
-30
-30
-32
-34
-38
-34
-31
-29
-26
-30
-30
-32
-36
-41
-41
-35
-32
-29
-29
-27
-25
-23
-24
-22
-21
-17
-10
-2
-1
4
9
6
2
-2
-2
-3
-4
1
1
3
6
9
9
9
6
-2
-10
-14
-17
-21
-24
-26
-27
-26
-32
-35
-38
-42
-46
-49
-46
-52
-53
-52
-50
-50
-50
-45
-45
-44
-47
-49
-44
-33
-24
-14
-9
-8
-4
4
21
48
85
120
146
156
132
87
21
-41
-91
-135
-156
-169
-169
-161
-154
-141
-128
-114
-105
-99
-95
-96
-96
-98
-100
-105
-107
-106
-104
-105
-108
-111
-115
-114
-110
-110
-114
-116
-119
-118
-119
-122
-122
-123
-123
-121
-122
-127
-130
-133
-136
-141
-142
-143
-143
-146
-147
-151
-152
-158
-158
-166
-168
-167
-169
-169
-171
-169
-173
-174
-175
-175
-170
-171
-169
-170
-170
-175
-178
-176
-177
-173
-172
-168
-169
-166
-163
-159
-152
-148
-141
-138
-130
-123
-113
-103
-97
-92
-84
-76
-70
-64
-60
-58
-54
-46
-41
-36
-32
-30
-29
-26
-21
-22
-20
-16
-12
-12
-16
-15
-14
-10
-10
-8
-7
-3
-3
-1
5
6
8
7
10
14
16
18
12
13
12
14
17
22
27
25
24
23
24
22
22
24
28
28
26
24
24
26
25
29
30
27
28
23
23
23
28
28
28
25
22
19
17
17
17
18
16
17
16
15
16
17
21
20
19
18
16
14
14
16
14
15
15
16
17
15
16
16
20
18
17
15
15
12
12
14
13
17
19
20
18
20
24
23
27
30
35
40
45
48
47
51
55
59
56
53
49
52
57
59
59
61
67
68
71
69
69
67
64
60
51
47
37
32
27
24
23
26
28
24
21
15
18
21
22
27
27
29
24
21
20
22
25
30
37
36
40
46
56
59
59
66
75
99
125
161
194
226
231
203
152
88
22
-33
-70
-81
-80
-73
-64
-52
-39
-25
-15
-8
-3
-4
-4
-4
-3
-4
-7
-10
-14
-11
-9
-9
-13
-16
-19
-22
-23
-25
-22
-20
-23
-26
-28
-32
-36
-37
-36
-34
-34
-34
-40
-43
-44
-49
-59
-67
-66
-67
-67
-69
-72
-73
-73
-76
-75
-76
-80
-89
-93
-96
-95
-96
-92
-96
-97
-100
-100
-98
-95
-87
-92
-95
-98
-97
-96
-97
-95
-90
-83
-77
-72
-63
-58
-52
-47
-42
-40
-32
-28
-25
-20
-12
-4
-2
0
1
3
3
4
6
12
15
15
15
14
15
16
20
22
23
23
24
22
22
23
21
22
24
28
29
28
31
30
33
30
33
32
32
30
35
40
37
33
34
39
39
37
36
33
35
32
31
30
31
33
30
32
30
27
20
17
14
9
8
8
7
6
3
1
-2
-3
-5
-6
-7
-5
-6
-5
-4
-6
-10
-8
-5
-6
-11
-17
-18
-16
-17
-18
-20
-20
-21
-22
-21
-17
-13
-17
-23
-25
-21
-21
-20
-21
-22
-28
-31
-28
-28
-23
-19
-12
-9
-6
-6
-5
-1
-5
-10
-13
-11
-10
-6
-2
-2
2
3
1
-4
-9
-11
-20
-22
-26
-29
-30
-31
-34
-46
-51
-54
-55
-58
-60
-60
-62
-62
-61
-56
-55
-58
-61
-60
-57
-59
-61
-60
-55
-43
-31
-27
-28
-27
-20
-4
22
61
98
131
144
133
89
35
-25
-73
-110
-140
-158
-164
-161
-158
-153
-144
-139
-133
-128
-125
-122
-118
-112
-113
-117
-123
-131
-134
-137
-140
-140
-137
-136
-136
-139
-146
-153
-157
-158
-161
-162
-164
-169
-167
-167
-166
-175
-179
-186
-193
-196
-200
-195
-200
-200
-205
-206
-205
-214
-218
-222
-219
-226
-232
-234
-236
-234
-235
-233
-235
-238
-245
-245
-243
-239
-241
-244
-239
-241
-241
-241
-240
-237
-236
-230
-228
-223
-220
-218
-215
-207
-201
-195
-185
-178
-169
-161
-149
-148
-146
-141
-136
-128
-124
-120
-119
-116
-112
-109
-103
-100
-96
-95
-96
-97
-96
-94
-93
-88
-83
-78
-81
-81
-77
-76
-75
-74
-71
-67
-62
-61
-56
-52
-49
-50
-50
-50
-51
-52
-53
-49
-41
-37
-38
-42
-45
-46
-42
-41
-41
-46
-46
-46
-48
-48
-49
-48
-48
-47
-49
-52
-53
-55
-54
-55
-53
-57
-56
-57
-60
-64
-63
-56
-57
-60
-62
-63
-67
-70
-69
-71
-66
-64
-69
-73
-76
-73
-69
-65
-65
-62
-60
-61
-59
-57
-53
-53
-50
-45
-39
-38
-38
-34
-31
-28
-30
-32
-35
-35
-32
-30
-27
-26
-20
-17
-16
-17
-18
-24
-26
-26
-28
-32
-38
-43
-50
-53
-54
-52
-53
-58
-58
-62
-61
-60
-59
-56
-56
-56
-57
-52
-53
-55
-56
-55
-51
-45
-39
-33
-22
-13
-11
-8
-4
11
32
68
110
152
173
183
160
118
66
0
-58
-97
-123
-135
-144
-143
-135
-125
-114
-106
-93
-84
-78
-82
-80
-78
-78
-77
-79
-80
-84
-83
-85
-86
-88
-88
-88
-87
-86
-86
-87
-90
-93
-96
-98
-101
-105
-107
-108
-110
-112
-114
-118
-120
-120
-125
-128
-128
-129
-132
-135
-133
-131
-129
-132
-136
-136
-136
-141
-143
-140
-141
-143
-149
-145
-146
-148
-150
-151
-148
-151
-149
-153
-154
-151
-145
-141
-139
-133
-129
-125
-120
-112
-102
-96
-88
-81
-76
-74
-70
-63
-56
-48
-38
-31
-24
-22
-19
-16
-13
-10
-8
-5
-5
-4
-3
1
2
2
4
3
7
8
11
15
18
22
19
21
23
25
24
24
30
31
33
35
40
42
46
45
46
47
50
54
54
56
53
55
59
59
61
60
62
63
65
68
65
67
67
68
66
65
60
59
58
57
57
55
54
54
53
51
50
51
51
53
51
54
52
52
50
48
48
47
50
50
52
49
48
48
51
53
51
51
49
51
50
50
52
54
56
50
53
57
63
62
63
70
70
75
75
81
81
82
77
77
79
78
78
74
75
75
79
83
84
85
80
78
72
70
65
56
53
51
50
46
42
39
37
33
29
29
28
32
34
35
33
30
31
30
31
36
42
41
43
49
58
64
67
69
71
86
110
144
184
216
235
220
180
124
63
2
-43
-70
-77
-74
-69
-59
-48
-36
-26
-16
-4
-4
-5
-6
-6
-7
-9
-8
-10
-9
-12
-12
-12
-14
-17
-16
-18
-23
-27
-29
-32
-35
-36
-37
-41
-45
-49
-48
-48
-49
-49
-52
-53
-58
-60
-63
-66
-68
-72
-72
-70
-70
-72
-75
-76
-77
-80
-81
-80
-78
-82
-85
-85
-86
-87
-87
-86
-84
-84
-81
-82
-80
-79
-79
-78
-75
-72
-69
-63
-58
-49
-42
-36
-28
-18
-9
-5
2
7
12
15
21
28
28
32
37
42
42
42
42
46
48
53
56
55
54
52
57
56
54
55
58
61
58
60
60
61
60
63
68
72
76
73
76
77
78
79
82
84
83
84
81
84
86
86
85
86
91
89
88
85
87
87
85
87
81
83
82
86
83
82
78
76
79
75
74
71
71
69
69
71
66
69
65
63
59
60
61
55
56
56
59
58
56
55
55
57
61
64
60
56
49
51
53
52
51
51
55
52
54
53
55
58
61
68
76
80
80
82
85
89
89
86
85
81
81
80
83
84
86
88
92
95
92
90
84
81
75
69
67
59
58
54
53
50
48
48
44
46
44
43
41
44
44
49
54
49
49
50
52
51
54
56
58
68
75
80
78
82
93
110
137
176
216
243
254
228
186
121
45
-19
-68
-91
-97
-91
-75
-62
-49
-34
-22
-12
-7
-7
-5
-6
-9
-10
-9
-5
-7
-10
-12
-14
-14
-13
-14
-13
-15
-20
-24
-26
-28
-29
-30
-29
-37
-41
-42
-44
-46
-45
-44
-49
-49
-54
-57
-61
-64
-67
-70
-69
-72
-76
-80
-85
-88
-89
-87
-89
-88
-89
-92
-94
-96
-92
-96
-97
-97
-96
-99
-103
-100
-99
-93
-90
-85
-80
-79
-79
-75
-70
-66
-61
-53
-45
-39
-32
-29
-23
-15
-8
-2
2
10
11
15
16
19
22
26
32
34
38
37
40
42
43
44
46
50
44
45
46
51
51
54
57
54
56
53
55
55
56
60
61
64
65
66
68
73
71
73
74
76
79
75
75
73
76
75
73
72
72
72
70
71
67
66
64
63
62
61
61
57
57
56
55
51
50
48
46
46
42
41
40
37
33
30
31
26
27
27
29
24
24
30
30
30
25
24
22
17
14
16
23
21
18
15
18
18
19
22
18
17
13
12
19
26
32
31
34
40
45
47
49
48
49
47
43
41
41
45
42
41
45
49
55
54
52
43
34
24
16
12
8
8
6
5
3
1
-6
-11
-16
-17
-16
-17
-18
-17
-19
-21
-21
-22
-21
-18
-19
-15
-10
-2
6
15
25
24
26
31
49
75
115
154
181
191
166
120
59
-12
-77
-123
-140
-141
-134
-124
-115
-106
-93
-77
-72
-70
-68
-67
-68
-70
-68
-72
-75
-76
-75
-75
-78
-78
-81
-86
-92
-96
-99
-102
-101
-102
-103
-106
-104
-107
-110
-110
-109
-112
-118
-121
-122
-120
-124
-130
-135
-139
-141
-143
-141
-145
-151
-153
-154
-155
-160
-164
-167
-170
-172
-172
-174
-177
-177
-180
-179
-176
-171
-174
-176
-179
-180
-176
-174
-173
-175
-172
-167
-162
-157
-153
-150
-149
-142
-136
-126
-117
-113
-109
-104
-94
-88
-79
-73
-67
-59
-54
-54
-59
-62
-62
-60
-55
-50
-46
-45
-47
-48
-47
-45
-41
-39
-34
-32
-29
-30
-31
-34
-34
-31
-31
-31
-33
-31
-26
-21
-19
-20
-23
-27
-23
-20
-20
-20
-17
-12
-13
-11
-12
-13
-15
-19
-18
-19
-17
-16
-16
-19
-18
-20
-23
-25
-32
-34
-32
-26
-24
-25
-26
-35
-35
-34
-33
-34
-37
-38
-39
-37
-38
-41
-45
-46
-45
-46
-50
-54
-52
-46
-44
-44
-46
-47
-50
-52
-50
-44
-39
-36
-38
-38
-39
-38
-32
-24
-17
-18
-17
-19
-18
-16
-16
-17
-16
-9
-9
-10
-9
-3
-2
-5
-9
-18
-24
-28
-32
-34
-37
-39
-46
-48
-48
-47
-52
-58
-57
-57
-58
-57
-54
-52
-55
-58
-58
-53
-55
-56
-54
-48
-42
-33
-20
-14
-11
-13
-10
5
27
56
92
129
160
165
139
93
31
-25
-72
-101
-120
-135
-143
-143
-137
-129
-122
-114
-108
-107
-103
-97
-99
-105
-110
-111
-108
-109
-109
-115
-117
-117
-119
-123
-128
-131
-132
-133
-136
-137
-137
-144
-146
-150
-148
-153
-159
-161
-165
-165
-168
-165
-170
-169
-176
-186
-190
-195
-194
-198
-196
-197
-200
-202
-205
-203
-204
-200
-206
-210
-213
-214
-214
-217
-217
-219
-218
-219
-216
-212
-212
-216
-220
-211
-205
-202
-206
-206
-199
-192
-187
-184
-176
-170
-168
-164
-155
-150
-142
-135
-132
-129
-126
-118
-118
-114
-114
-112
-109
-106
-102
-98
-94
-91
-91
-91
-92
-91
-89
-83
-83
-81
-81
-81
-77
-75
-70
-73
-70
-66
-68
-66
-65
-63
-62
-59
-56
-53
-52
-53
-54
-53
-51
-52
-49
-45
-41
-40
-39
-41
-41
-41
-41
-40
-36
-32
-38
-41
-44
-46
-43
-42
-40
-41
-42
-46
-46
-44
-43
-47
-49
-47
-48
-49
-48
-48
-50
-54
-53
-56
-53
-51
-50
-52
-55
-56
-60
-57
-51
-48
-44
-40
-36
-32
-27
-24
-20
-21
-25
-26
-28
-28
-31
-29
-28
-28
-26
-22
-17
-17
-21
-24
-30
-40
-49
-54
-58
-61
-68
-73
-76
-73
-72
-73
-73
-71
-71
-72
-76
-74
-70
-72
-74
-75
-73
-71
-71
-64
-60
-52
-41
-29
-20
-23
-28
-21
-3
21
56
95
132
153
147
112
44
-26
-85
-130
-155
-168
-164
-162
-160
-151
-140
-124
-114
-110
-111
-111
-112
-113
-115
-116
-114
-116
-117
-118
-117
-116
-118
-121
-122
-121
-127
-128
-125
-127
-132
-136
-135
-136
-136
-140
-141
-145
-149
-152
-155
-157
-160
-163
-166
-170
-171
-175
-178
-182
-185
-189
-192
-194
-192
-197
-199
-200
-203
-202
-203
-205
-205
-205
-202
-202
-200
-200
-198
-197
-194
-194
-195
-190
-187
-182
-177
-170
-166
-161
-155
-150
-143
-139
-130
-125
-115
-108
-103
-97
-91
-87
-81
-73
-68
-61
-60
-61
-61
-56
-50
-49
-48
-48
-46
-46
-44
-42
-41
-40
-38
-35
-33
-32
-33
-32
-32
-29
-26
-21
-19
-17
-16
-16
-10
-6
-3
-2
-3
1
-1
3
3
5
7
10
12
7
8
8
9
11
12
13
14
14
9
9
10
10
10
9
12
9
8
6
7
8
5
4
0
3
4
5
3
4
5
2
0
-2
-1
-2
-1
-4
-3
-4
-7
-8
-11
-11
-9
-8
-6
-5
-2
-1
-1
-4
-6
-8
-8
-4
1
8
14
15
18
21
22
26
30
33
32
27
21
15
19
21
24
25
26
32
27
28
26
23
15
10
6
2
1
-2
-3
-5
-7
-11
-10
-8
-10
-12
-13
-13
-12
-10
-8
-13
-12
-10
-9
-8
-5
-4
-2
4
13
19
24
26
32
49
77
116
156
188
201
184
145
82
21
-41
-91
-128
-145
-144
-138
-127
-112
-99
-84
-75
-70
-68
-69
-68
-71
-72
-73
-72
-73
-72
-76
-80
-82
-84
-84
-84
-80
-83
-84
-84
-86
-89
-94
-94
-99
-102
-103
-104
-104
-105
-104
-104
-106
-112
-113
-115
-121
-125
-129
-128
-132
-131
-130
-132
-137
-143
-140
-140
-139
-140
-143
-146
-149
-151
-152
-150
-152
-150
-149
-151
-147
-144
-143
-143
-136
-130
-126
-121
-118
-122
-119
-115
-109
-104
-98
-89
-82
-74
-65
-59
-54
-50
-45
-38
-29
-26
-18
-15
-12
-10
-9
-7
-8
-2
1
4
2
4
7
5
6
2
2
3
6
11
13
15
16
18
15
17
19
25
26
20
18
20
25
29
36
38
38
40
41
40
38
38
36
38
39
42
44
44
46
49
52
52
52
49
48
48
43
44
39
38
35
34
29
29
32
29
31
28
27
25
23
21
19
20
16
12
10
13
14
15
19
20
24
25
25
24
26
29
22
20
19
20
20
22
24
22
22
24
28
32
38
43
48
49
49
53
55
59
60
59
55
47
44
48
51
52
58
59
63
60
57
54
53
47
40
35
32
34
35
35
32
25
21
15
17
18
20
19
19
22
19
22
25
30
35
37
39
37
39
43
52
60
70
72
75
84
101
133
170
213
232
238
216
166
104
35
-21
-54
-69
-65
-59
-46
-34
-25
-16
-7
0
9
11
12
10
8
8
9
11
13
15
17
18
14
11
16
17
17
12
7
8
10
11
6
-1
-7
-10
-13
-11
-9
-8
-7
-11
-13
-16
-15
-15
-15
-13
-20
-23
-24
-24
-25
-24
-21
-29
-33
-37
-36
-36
-33
-31
-30
-25
-26
-26
-28
-31
-32
-29
-21
-18
-16
-20
-28
-33
-29
-18
-10
-1
8
18
27
33
32
32
36
46
56
63
68
69
75
76
81
86
91
99
101
108
110
118
117
116
109
104
109
109
115
113
112
110
113
120
125
127
121
117
113
118
124
133
140
135
132
126
128
126
128
134
137
144
146
152
149
151
148
140
134
129
137
142
148
148
152
154
152
151
140
128
117
120
129
134
133
134
141
145
148
136
127
115
114
120
124
125
119
120
120
127
133
133
126
115
110
102
109
115
121
120
116
114
107
114
122
130
126
115
109
107
115
119
128
128
128
130
141
150
147
145
139
138
136
137
138
133
135
139
147
150
158
158
152
147
140
135
127
128
131
136
130
117
106
92
81
75
76
77
75
74
71
71
74
81
86
93
101
108
105
96
88
79
74
71
80
94
110
124
139
162
179
198
215
234
244
231
197
137
68
7
-32
-51
-54
-40
-30
-10
9
33
54
61
46
17
0
-3
7
12
12
4
-6
-9
-10
-1
8
14
11
7
3
-4
-4
5
6
-6
-11
-11
-11
-21
-35
-39
-31
-20
-16
-20
-32
-47
-56
-55
-45
-40
-39
-52
-68
-80
-84
-82
-81
-83
-88
-93
-96
-98
-97
-102
-110
-115
-108
-91
-76
-73
-85
-109
-129
-133
-120
-102
-97
-112
-124
-126
-120
-124
-126
-119
-105
-93
-92
-91
-92
-80
-64
-54
-55
-65
-70
-65
-55
-49
-48
-44
-41
-40
-42
-43
-44
-36
-34
-39
-51
-58
-58
-57
-58
-58
-58
-56
-50
-45
-43
-43
-39
-30
-28
-33
-46
-53
-55
-54
-57
-59
-54
-45
-36
-37
-40
-45
-55
-66
-68
-63
-63
-60
-56
-51
-48
-50
-58
-61
-57
-52
-51
-57
-67
-73
-77
-80
-89
-92
-91
-88
-82
-78
-78
-93
-105
-110
-112
-115
-117
-115
-114
-108
-108
-113
-126
-137
-130
-121
-120
-135
-146
-144
-134
-119
-114
-122
-136
-140
-138
-140
-145
-151
-152
-142
-122
-109
-104
-107
-116
-120
-119
-118
-118
-116
-115
-120
-125
-123
-122
-117
-110
-105
-108
-121
-128
-133
-131
-132
-142
-148
-156
-160
-164
-170
-172
-174
-176
-180
-178
-176
-174
-177
-180
-176
-173
-170
-179
-185
-195
-193
-183
-175
-165
-158
-151
-154
-146
-134
-121
-107
-85
-48
-8
22
21
-10
-61
-114
-159
-193
-222
-250
-265
-271
-272
-270
-267
-256
-250
-245
-245
-232
-218
-212
-220
-235
-242
-250
-253
-253
-250
-248
-252
-257
-260
-258
-265
-269
-273
-270
-275
-279
-277
-281
-285
-295
-296
-300
-303
-303
-306
-300
-303
-303
-311
-312
-311
-308
-309
-322
-324
-328
-324
-328
-330
-330
-330
-325
-329
-329
-340
-344
-350
-352
-348
-346
-342
-351
-354
-361
-353
-347
-347
-344
-343
-339
-341
-331
-320
-311
-304
-303
-303
-305
-296
-290
-283
-276
-266
-264
-265
-262
-259
-251
-244
-237
-233
-236
-238
-241
-237
-229
-218
-213
-209
-212
-209
-204
-205
-204
-202
-194
-196
-199
-193
-188
-188
-199
-198
-189
-177
-177
-180
-176
-176
-173
-173
-166
-160
-157
-153
-150
-142
-140
-140
-148
-152
-152
-148
-143
-141
-136
-138
-139
-145
-141
-136
-132
-129
-126
-133
-148
-156
-153
-146
-141
-140
-142
-143
-138
-138
-139
-147
-155
-161
-155
-146
-142
-141
-143
-141
-138
-137
-136
-135
-135
-139
-143
-144
-143
-147
-150
-150
-146
-137
-130
-125
-130
-127
-120
-118
-116
-115
-107
-105
-106
-115
-117
-113
-112
-108
-102
-93
-95
-101
-115
-128
-128
-124
-119
-121
-124
-128
-130
-132
-141
-150
-151
-141
-136
-139
-140
-141
-140
-141
-139
-136
-132
-133
-138
-137
-135
-131
-128
-121
-115
-107
-100
-95
-98
-95
-82
-61
-30
10
47
62
54
21
-33
-92
-150
-188
-209
-216
-216
-209
-198
-191
-182
-176
-170
-171
-168
-163
-159
-153
-153
-152
-158
-161
-168
-171
-171
-173
-172
-171
-169
-173
-171
-171
-170
-169
-173
-177
-180
-178
-179
-183
-186
-189
-189
-191
-192
-194
-199
-206
-215
-224
-226
-221
-222
-222
-223
-221
-217
-220
-223
-225
-222
-223
-224
-222
-218
-221
-227
-227
-227
-220
-219
-219
-228
-232
-224
-217
-205
-196
-189
-185
-184
-182
-181
-175
-171
-160
-150
-138
-132
-127
-120
-116
-111
-108
-104
-106
-102
-98
-91
-83
-79
-76
-76
-72
-70
-67
-65
-64
-61
-59
-61
-63
-61
-59
-58
-55
-55
-56
-52
-50
-47
-43
-39
-32
-35
-34
-36
-34
-33
-29
-27
-22
-20
-20
-20
-21
-19
-18
-18
-13
-16
-15
-17
-14
-11
-10
-7
-13
-15
-17
-16
-17
-18
-18
-22
-25
-32
-36
-36
-36
-36
-36
-34
-36
-32
-27
-22
-20
-22
-24
-27
-26
-23
-23
-22
-20
-19
-20
-21
-22
-21
-21
-20
-18
-15
-13
-12
-10
-5
1
8
14
15
18
16
13
11
11
15
13
16
22
29
33
34
36
32
30
24
22
16
10
3
2
1
-1
-1
-2
-4
-6
-5
-2
-5
-3
-1
4
5
6
10
10
12
13
16
19
24
29
42
54
59
59
58
69
88
117
152
190
212
218
200
154
96
22
-40
-76
-87
-82
-72
-59
-49
-38
-30
-22
-16
-11
-6
-7
-7
-10
-12
-12
-10
-9
-6
-4
-9
-9
-11
-9
-12
-14
-13
-17
-16
-17
-18
-17
-18
-19
-21
-22
-25
-26
-30
-34
-38
-38
-35
-37
-39
-40
-42
-47
-48
-45
-48
-49
-51
-53
-52
-53
-50
-51
-49
-51
-51
-52
-49
-49
-48
-50
-49
-45
-43
-42
-40
-37
-36
-35
-33
-27
-20
-15
-7
-5
0
5
12
21
28
34
39
47
52
56
59
63
69
73
80
78
83
84
89
90
93
100
96
97
93
98
98
99
101
103
108
107
110
110
115
116
118
120
119
124
123
127
127
129
135
135
137
138
142
141
144
143
143
145
145
145
144
148
147
146
143
146
147
146
146
144
146
143
144
143
141
142
140
145
141
143
139
138
136
137
140
137
138
133
133
134
136
134
135
138
134
136
134
135
134
134
139
136
138
136
140
143
149
157
160
165
169
176
173
175
174
176
176
171
171
168
174
172
179
182
183
189
189
188
182
180
171
164
160
156
153
150
152
150
150
142
136
132
132
133
130
133
131
132
129
128
130
133
139
137
139
138
142
149
160
170
170
172
172
186
206
238
276
308
329
316
282
228
166
99
45
13
1
8
19
31
42
52
67
71
79
81
85
84
84
83
83
83
82
83
82
84
79
80
79
78
77
74
72
71
72
70
69
68
67
65
59
59
54
50
44
40
38
36
33
30
30
28
25
25
25
24
21
21
15
12
10
12
11
11
13
8
7
6
8
11
10
8
7
9
7
11
12
12
10
11
16
17
23
25
29
32
39
48
52
56
60
67
70
79
85
90
96
102
106
108
112
110
115
118
120
121
118
120
120
124
123
124
121
118
119
118
127
128
131
129
133
134
133
134
136
140
139
140
137
136
138
140
146
144
147
147
152
152
153
155
147
149
147
147
145
146
149
146
147
144
146
143
143
140
141
143
138
136
135
135
129
128
128
124
125
123
122
120
118
116
110
108
107
108
106
108
105
105
101
100
101
101
100
96
97
97
97
95
93
96
99
108
110
112
115
122
127
131
137
135
136
134
132
127
125
125
128
134
133
136
133
130
124
120
117
108
103
96
93
90
92
94
83
77
70
67
64
65
68
74
80
78
78
76
75
72
70
71
74
79
82
90
95
103
109
107
105
105
113
132
159
189
223
249
262
245
201
149
87
34
-5
-28
-37
-40
-37
-30
-24
-16
-7
1
7
11
14
17
15
15
12
9
3
-1
-3
-5
-3
-3
-2
-8
-16
-24
-24
-21
-21
-24
-27
-32
-36
-37
-32
-35
-37
-43
-46
-48
-48
-51
-59
-63
-64
-64
-65
-69
-72
-73
-74
-77
-80
-85
-88
-88
-88
-88
-92
-94
-96
-98
-97
-96
-95
-98
-99
-100
-101
-98
-94
-89
-90
-90
-91
-88
-84
-82
-77
-71
-66
-65
-62
-58
-54
-47
-37
-27
-18
-12
-11
-10
-8
-3
-4
-1
0
7
11
16
17
18
20
18
17
14
14
18
20
24
22
25
28
32
30
30
32
28
34
38
42
40
41
43
44
47
48
50
46
44
40
40
44
45
46
44
41
37
38
37
34
33
37
38
39
39
35
31
28
29
33
29
19
9
7
5
2
2
5
8
6
-1
-6
-10
-11
-8
-7
-7
-4
-8
-8
-9
-4
-1
1
4
9
14
14
17
19
18
19
21
25
23
21
18
14
12
14
19
16
16
8
2
-4
-8
-11
-18
-21
-29
-32
-37
-43
-45
-45
-47
-52
-52
-52
-53
-53
-54
-56
-58
-57
-56
-58
-57
-57
-57
-55
-43
-28
-16
-15
-18
-16
2
28
64
105
140
159
147
103
43
-18
-70
-105
-132
-147
-152
-159
-161
-157
-153
-146
-138
-126
-123
-124
-128
-133
-135
-141
-145
-148
-144
-141
-142
-147
-157
-158
-159
-160
-165
-166
-168
-175
-178
-180
-178
-184
-186
-189
-192
-193
-199
-197
-202
-207
-215
-217
-218
-222
-223
-225
-226
-231
-233
-241
-249
-250
-248
-244
-249
-250
-252
-254
-260
-261
-266
-269
-268
-270
-267
-266
-266
-266
-267
-264
-267
-263
-261
-256
-252
-248
-243
-236
-225
-219
-211
-206
-196
-189
-183
-178
-174
-165
-159
-151
-147
-141
-137
-133
-128
-126
-122
-120
-117
-115
-112
-107
-104
-104
-104
-99
-99
-97
-96
-93
-87
-86
-82
-84
-81
-81
-77
-76
-77
-80
-81
-78
-74
-70
-65
-61
-59
-58
-64
-65
-60
-53
-49
-52
-50
-49
-50
-57
-62
-60
-56
-53
-56
-58
-58
-60
-60
-61
-61
-59
-55
-56
-54
-54
-56
-59
-64
-64
-67
-66
-68
-71
-72
-72
-68
-72
-73
-72
-72
-72
-68
-63
-56
-50
-51
-52
-51
-50
-50
-50
-48
-51
-53
-51
-49
-45
-44
-42
-42
-37
-33
-36
-44
-53
-64
-71
-76
-81
-83
-81
-82
-85
-89
-94
-103
-106
-108
-107
-105
-101
-104
-105
-107
-105
-101
-96
-91
-93
-92
-90
-83
-74
-63
-53
-49
-45
-41
-27
-3
33
68
106
134
131
105
54
-10
-68
-116
-144
-169
-180
-180
-176
-168
-163
-150
-139
-127
-120
-116
-113
-116
-118
-121
-120
-118
-120
-121
-124
-122
-124
-124
-128
-129
-128
-127
-126
-128
-128
-131
-132
-133
-132
-132
-133
-133
-136
-137
-140
-140
-141
-140
-141
-144
-151
-154
-155
-156
-158
-159
-157
-163
-167
-168
-170
-169
-169
-167
-168
-167
-168
-171
-170
-169
-166
-164
-165
-164
-160
-156
-156
-151
-147
-139
-138
-134
-125
-119
-113
-107
-97
-90
-80
-73
-65
-58
-53
-48
-40
-32
-27
-21
-14
-10
-6
-1
1
3
6
9
11
10
14
13
13
12
15
17
22
25
26
29
30
29
32
35
39
42
46
46
49
50
54
56
61
70
69
74
74
76
77
80
84
83
88
88
92
91
92
90
91
94
93
96
94
92
91
92
94
91
92
88
90
88
88
90
88
88
87
89
86
87
86
89
85
87
88
87
86
83
86
86
87
86
86
89
92
97
99
105
107
110
111
114
121
122
125
122
123
121
120
120
122
129
127
131
132
134
131
127
125
119
114
107
104
102
102
103
96
96
92
90
87
88
89
89
89
89
91
90
92
91
94
98
99
102
102
110
118
129
133
132
135
145
167
196
233
260
278
271
242
194
133
73
20
-10
-23
-21
-11
2
14
24
34
40
46
48
49
49
51
55
51
51
49
49
49
47
48
46
45
43
42
40
41
38
40
42
37
32
28
25
24
25
26
20
18
13
11
5
0
1
-2
-5
-10
-11
-13
-16
-20
-22
-22
-23
-23
-25
-27
-30
-29
-30
-32
-32
-32
-32
-33
-33
-34
-34
-33
-33
-32
-28
-25
-26
-25
-23
-19
-17
-17
-11
-7
-2
2
10
15
21
25
28
36
39
46
50
54
55
59
66
66
70
69
71
72
73
73
73
74
72
74
74
76
73
74
80
77
78
75
76
76
79
84
82
84
84
88
88
91
90
92
93
96
99
98
100
98
103
103
102
101
100
102
100
104
105
108
104
103
101
101
103
98
96
93
92
87
82
82
80
81
78
79
76
77
77
78
77
69
68
63
64
63
62
65
61
62
59
58
56
57
59
61
67
68
68
68
71
73
82
86
82
82
79
77
71
69
72
73
78
79
80
80
81
79
72
65
56
49
40
35
30
30
31
30
27
20
11
4
3
2
3
3
4
6
8
11
9
7
9
6
5
6
11
16
25
33
41
45
44
44
50
70
93
125
153
173
175
150
101
31
-41
-97
-134
-150
-148
-132
-120
-105
-93
-81
-71
-63
-59
-56
-51
-53
-55
-58
-59
-60
-60
-58
-62
-64
-64
-65
-62
-62
-62
-70
-74
-76
-76
-78
-80
-78
-80
-81
-87
-92
-96
-101
-104
-105
-106
-110
-114
-118
-122
-124
-126
-129
-132
-130
-132
-133
-135
-134
-138
-142
-144
-145
-143
-144
-149
-153
-156
-156
-155
-151
-151
-151
-149
-147
-149
-146
-141
-137
-133
-128
-117
-115
-112
-108
-102
-92
-85
-77
-70
-64
-60
-55
-50
-45
-40
-34
-29
-28
-25
-25
-25
-24
-21
-16
-16
-16
-16
-14
-12
-10
-9
-8
-9
-11
-8
-4
0
0
3
6
9
12
15
19
20
23
20
23
27
30
32
34
37
32
31
30
32
32
34
36
34
35
33
35
34
34
33
33
37
33
32
30
32
30
31
34
32
32
29
27
27
28
28
24
23
20
20
17
17
18
21
21
21
20
18
20
18
20
24
24
23
24
25
27
31
37
41
45
49
53
55
58
56
55
51
48
43
42
43
45
51
52
55
54
50
43
39
39
30
23
15
10
9
8
9
1
-4
-6
-2
-1
-3
-5
-2
3
1
-1
-4
-5
-5
-2
5
6
7
10
17
28
38
45
44
46
56
77
101
135
164
184
178
139
88
27
-28
-76
-111
-120
-121
-110
-98
-92
-82
-72
-63
-57
-50
-45
-44
-45
-44
-45
-49
-52
-56
-57
-56
-56
-57
-63
-65
-65
-62
-62
-64
-63
-62
-69
-76
-80
-80
-79
-79
-79
-86
-89
-90
-92
-93
-97
-99
-101
-101
-102
-104
-104
-109
-113
-115
-115
-117
-117
-119
-125
-128
-129
-124
-126
-127
-124
-121
-115
-116
-118
-120
-116
-114
-113
-115
-119
-120
-119
-116
-116
-112
-105
-100
-95
-92
-88
-87
-80
-76
-70
-64
-58
-56
-47
-37
-31
-28
-24
-18
-16
-17
-19
-18
-16
-15
-9
-8
-8
-11
-10
-10
-9
-8
-7
1
4
10
7
3
4
8
15
14
17
17
23
26
30
29
28
30
28
29
31
36
37
38
39
35
37
33
31
25
24
26
25
28
28
27
24
24
24
31
32
26
19
18
18
10
5
1
-2
1
0
-2
-6
-4
-7
-10
-13
-16
-21
-23
-17
-15
-13
-13
-12
-8
-8
-12
-13
-7
-2
0
1
6
8
10
11
7
8
7
7
4
3
9
10
11
8
9
9
6
-2
-15
-25
-33
-37
-40
-41
-38
-37
-38
-41
-43
-49
-55
-56
-54
-50
-55
-59
-60
-57
-53
-51
-52
-56
-58
-57
-56
-52
-49
-38
-26
-23
-28
-31
-24
-2
31
72
107
132
134
115
74
25
-28
-78
-110
-130
-147
-156
-156
-150
-146
-135
-123
-117
-114
-117
-121
-122
-121
-120
-122
-123
-125
-126
-125
-123
-130
-134
-136
-137
-136
-137
-136
-141
-143
-145
-148
-150
-156
-155
-160
-161
-164
-166
-167
-170
-173
-180
-179
-185
-186
-187
-191
-192
-195
-193
-198
-197
-196
-197
-196
-197
-195
-201
-202
-204
-200
-196
-196
-192
-192
-192
-192
-189
-186
-183
-179
-175
-174
-173
-171
-166
-157
-153
-145
-140
-133
-129
-125
-120
-119
-118
-109
-97
-95
-93
-89
-88
-85
-81
-77
-78
-77
-75
-73
-71
-69
-68
-71
-66
-61
-56
-52
-52
-54
-59
-62
-66
-66
-64
-60
-56
-52
-49
-46
-42
-41
-39
-35
-30
-30
-32
-33
-31
-31
-32
-32
-33
-31
-33
-34
-33
-30
-29
-30
-30
-31
-31
-31
-28
-30
-32
-29
-34
-37
-41
-44
-45
-46
-43
-48
-45
-49
-51
-52
-49
-47
-48
-46
-44
-41
-40
-40
-40
-41
-42
-49
-50
-48
-45
-40
-35
-32
-34
-31
-28
-23
-19
-16
-15
-17
-16
-16
-12
-9
-6
-5
-5
-5
-8
-10
-15
-20
-27
-34
-40
-43
-43
-42
-45
-50
-52
-58
-62
-63
-64
-62
-60
-60
-60
-58
-56
-56
-58
-55
-54
-52
-44
-38
-29
-18
-10
-9
-8
4
14
42
75
116
144
154
141
99
45
-14
-70
-110
-141
-159
-164
-159
-149
-141
-130
-121
-111
-105
-101
-102
-101
-100
-102
-104
-104
-100
-104
-105
-108
-109
-110
-111
-109
-113
-115
-118
-117
-117
-117
-117
-122
-127
-133
-133
-136
-139
-139
-140
-143
-148
-152
-154
-155
-158
-156
-160
-162
-164
-169
-170
-173
-175
-176
-179
-182
-187
-188
-191
-192
-193
-191
-191
-191
-189
-191
-187
-184
-181
-185
-185
-182
-182
-177
-178
-177
-176
-172
-165
-159
-149
-143
-136
-132
-126
-121
-113
-107
-106
-102
-97
-91
-92
-88
-84
-78
-74
-74
-73
-73
-70
-71
-68
-67
-65
-64
-62
-58
-57
-58
-59
-60
-58
-56
-58
-59
-57
-52
-46
-45
-39
-40
-37
-36
-34
-31
-25
-24
-21
-17
-16
-17
-15
-12
-11
-13
-10
-11
-9
-10
-11
-13
-13
-11
-14
-13
-14
-14
-16
-14
-11
-14
-14
-13
-13
-16
-18
-19
-16
-15
-17
-15
-16
-17
-18
-18
-20
-20
-18
-17
-16
-16
-13
-13
-16
-15
-14
-12
-10
-5
-1
2
3
6
10
14
17
16
16
11
8
4
2
3
5
10
7
11
13
16
15
13
13
7
0
-6
-13
-17
-20
-22
-23
-25
-31
-33
-34
-33
-32
-32
-26
-25
-24
-24
-25
-25
-26
-22
-22
-19
-18
-15
-11
-3
0
2
5
9
20
41
72
110
148
167
166
135
86
27
-38
-88
-123
-143
-143
-133
-120
-110
-97
-87
-81
-75
-72
-68
-67
-69
-69
-69
-71
-70
-70
-71
-73
-72
-72
-73
-74
-76
-77
-79
-82
-80
-86
-89
-92
-95
-96
-99
-99
-101
-101
-104
-109
-113
-119
-119
-122
-124
-126
-128
-129
-135
-136
-138
-135
-139
-138
-136
-139
-139
-142
-137
-140
-141
-145
-146
-144
-147
-147
-145
-142
-143
-140
-138
-138
-137
-136
-133
-135
-132
-125
-115
-108
-99
-96
-91
-88
-84
-77
-68
-59
-54
-50
-47
-41
-36
-30
-27
-24
-16
-15
-13
-13
-11
-9
-7
0
-2
1
2
3
3
4
4
3
8
9
12
11
11
11
13
17
19
24
25
27
26
27
29
30
33
34
37
37
38
38
38
38
40
42
41
42
40
43
41
40
38
38
38
36
36
34
33
32
31
30
29
32
29
29
27
27
27
27
29
28
27
25
25
26
26
23
22
22
20
21
21
25
23
24
25
22
22
21
22
24
31
40
41
46
48
51
50
56
57
58
57
53
52
51
53
55
59
62
62
64
63
62
57
53
49
44
39
35
32
28
27
25
26
22
20
18
16
15
15
16
17
17
15
14
16
17
21
20
22
22
24
27
33
43
46
56
58
59
59
71
87
111
148
178
206
210
190
146
94
41
-16
-62
-88
-100
-94
-81
-63
-53
-41
-30
-23
-19
-15
-11
-10
-11
-14
-16
-17
-18
-19
-20
-21
-24
-23
-24
-26
-29
-30
-30
-33
-35
-37
-39
-41
-45
-51
-55
-58
-60
-62
-63
-64
-66
-72
-77
-80
-82
-84
-86
-88
-88
-90
-93
-95
-96
-97
-99
-99
-103
-103
-104
-108
-110
-109
-106
-108
-110
-111
-113
-111
-109
-109
-106
-101
-100
-95
-90
-88
-86
-80
-71
-67
-60
-53
-48
-42
-34
-26
-22
-16
-10
-4
-1
4
7
12
15
20
24
27
31
31
34
33
34
35
35
38
38
40
39
40
39
40
41
42
45
46
47
46
46
46
49
55
58
63
61
64
63
63
64
69
74
70
70
69
69
71
73
79
75
77
75
76
74
78
78
76
76
74
76
74
73
70
73
76
72
70
70
72
69
68
70
67
65
64
64
64
68
66
65
63
63
64
62
63
63
66
62
60
60
58
57
55
57
55
55
54
56
59
64
72
72
78
80
81
83
86
88
87
90
86
85
78
78
78
83
90
89
91
91
93
90
85
82
71
65
57
54
51
51
51
46
44
40
39
36
36
36
36
38
36
37
38
37
35
39
44
39
36
38
44
51
63
67
66
65
70
85
109
144
176
206
215
203
159
103
36
-29
-75
-101
-106
-99
-87
-71
-56
-41
-31
-20
-14
-12
-13
-12
-9
-13
-13
-15
-13
-16
-18
-20
-19
-17
-19
-21
-23
-25
-28
-32
-32
-37
-38
-39
-41
-45
-48
-45
-50
-49
-50
-51
-54
-57
-57
-59
-60
-64
-64
-64
-68
-71
-75
-78
-81
-81
-83
-84
-87
-89
-89
-91
-91
-91
-93
-92
-90
-91
-92
-92
-92
-86
-85
-84
-83
-78
-76
-73
-68
-62
-57
-51
-42
-37
-30
-22
-14
-6
0
13
14
20
22
28
31
35
39
42
47
46
46
46
47
46
47
50
49
55
57
58
55
58
61
61
62
63
67
67
71
72
77
81
81
82
83
86
86
89
90
88
86
87
91
93
96
95
96
96
94
92
89
91
89
90
86
85
86
86
85
83
83
77
74
71
73
75
73
74
68
68
66
64
63
63
68
63
63
63
61
56
55
56
52
53
50
51
51
51
50
50
51
48
50
50
51
51
56
63
64
68
73
78
76
79
82
83
83
80
80
79
78
74
76
80
84
86
83
83
79
78
72
66
56
51
47
45
47
43
44
40
37
33
30
30
26
28
26
30
32
34
33
33
34
31
31
32
37
43
54
67
66
64
63
73
90
122
163
193
214
203
170
120
61
4
-43
-72
-87
-89
-83
-76
-68
-57
-44
-38
-32
-31
-31
-31
-30
-27
-28
-32
-35
-36
-36
-38
-41
-43
-44
-46
-47
-49
-51
-53
-56
-59
-63
-68
-74
-81
-86
-88
-90
-95
-98
-100
-99
-101
-102
-110
-115
-116
-117
-117
-118
-119
-121
-125
-129
-132
-131
-132
-134
-136
-138
-143
-149
-153
-155
-153
-156
-152
-156
-155
-154
-157
-156
-157
-150
-151
-149
-148
-146
-141
-138
-132
-128
-121
-117
-112
-105
-103
-100
-97
-88
-83
-80
-76
-72
-68
-67
-68
-67
-62
-57
-51
-49
-48
-50
-50
-48
-47
-45
-41
-40
-39
-41
-41
-36
-30
-26
-25
-24
-19
-23
-21
-21
-22
-25
-24
-20
-21
-21
-17
-14
-13
-12
-12
-10
-12
-16
-16
-18
-17
-17
-17
-18
-25
-28
-28
-29
-32
-33
-32
-39
-41
-43
-45
-46
-45
-46
-48
-49
-51
-49
-45
-44
-49
-55
-58
-58
-56
-55
-56
-55
-56
-59
-64
-65
-66
-66
-66
-68
-72
-72
-69
-70
-74
-74
-73
-70
-66
-69
-69
-65
-59
-54
-48
-36
-34
-33
-34
-39
-40
-43
-45
-51
-53
-49
-42
-38
-39
-41
-44
-46
-53
-60
-71
-80
-84
-88
-88
-91
-93
-94
-98
-101
-106
-103
-107
-107
-113
-116
-112
-110
-110
-113
-110
-109
-106
-106
-103
-96
-85
-74
-65
-64
-70
-68
-50
-24
12
51
86
104
98
66
16
-50
-108
-149
-176
-194
-204
-206
-202
-194
-184
-177
-168
-161
-156
-152
-151
-151
-151
-150
-154
-157
-164
-163
-167
-168
-169
-172
-171
-174
-176
-184
-188
-188
-191
-192
-197
-197
-200
-200
-207
-214
-216
-220
-222
-227
-227
-231
-231
-230
-234
-232
-233
-229
-233
-232
-235
-235
-234
-237
-239
-246
-246
-248
-244
-246
-248
-250
-252
-250
-252
-249
-248
-245
-244
-240
-239
-237
-231
-227
-221
-218
-211
-205
-200
-194
-190
-181
-174
-165
-157
-149
-144
-141
-136
-129
-124
-118
-110
-108
-106
-102
-97
-91
-92
-88
-87
-81
-76
-71
-67
-63
-61
-60
-58
-54
-50
-47
-45
-45
-44
-41
-37
-32
-27
-22
-18
-17
-16
-13
-8
-5
-3
-1
3
-1
-4
-6
-6
-4
-3
-1
2
5
7
10
9
7
5
3
4
0
0
-2
-3
-5
-4
-2
-5
-4
0
3
3
0
-1
0
2
-1
-1
-1
1
0
1
5
5
5
4
4
3
3
8
7
9
9
11
14
21
25
25
29
35
42
45
46
43
45
46
45
44
46
46
48
54
56
61
64
65
61
56
54
47
41
34
32
30
32
33
30
26
23
24
24
23
19
20
25
24
26
25
26
26
26
31
27
29
34
44
52
59
61
56
61
71
95
126
170
203
231
233
201
157
100
44
-9
-49
-65
-74
-71
-62
-52
-40
-28
-18
-13
-8
-5
0
0
-6
-13
-15
-13
-11
-10
-11
-12
-13
-14
-16
-16
-15
-17
-18
-22
-22
-27
-28
-29
-27
-28
-29
-30
-33
-36
-40
-43
-46
-50
-55
-57
-57
-61
-65
-68
-68
-68
-68
-67
-72
-75
-77
-78
-81
-83
-79
-84
-86
-89
-89
-87
-87
-87
-87
-84
-82
-77
-75
-74
-76
-75
-69
-64
-60
-55
-51
-47
-40
-32
-27
-20
-12
-5
2
10
14
17
22
28
34
37
40
42
46
45
50
54
56
57
57
61
58
60
57
59
60
60
65
66
70
70
71
71
73
74
75
80
80
83
81
83
83
89
96
94
100
100
102
102
105
111
109
111
108
112
110
114
113
112
112
111
111
108
112
109
107
103
104
106
105
105
103
103
101
102
100
99
98
96
98
95
98
97
98
97
95
95
93
92
89
90
91
92
91
90
90
86
87
87
88
87
89
98
99
102
102
105
108
113
118
115
117
114
113
108
108
109
110
113
112
117
115
116
107
101
97
89
83
75
70
69
71
72
68
64
57
53
50
51
48
48
44
45
48
47
46
44
47
47
47
48
50
54
60
72
76
78
76
82
96
120
155
186
212
215
201
155
100
36
-20
-62
-85
-89
-80
-65
-52
-41
-28
-20
-12
-8
-5
-2
-2
-1
-4
-3
-4
-5
-7
-8
-9
-8
-5
-9
-12
-14
-16
-19
-19
-17
-21
-22
-26
-29
-33
-37
-37
-40
-39
-42
-49
-54
-55
-54
-57
-59
-59
-60
-61
-64
-64
-65
-67
-71
-73
-78
-82
-86
-86
-89
-90
-91
-90
-92
-94
-93
-93
-92
-90
-90
-88
-88
-87
-85
-79
-77
-75
-72
-67
-64
-61
-55
-51
-46
-38
-32
-25
-19
-8
-5
0
4
8
11
14
19
21
23
23
26
28
34
33
37
40
41
40
38
38
37
39
40
40
42
42
43
43
46
45
46
45
48
49
49
52
54
58
60
63
63
63
62
63
67
65
65
66
68
66
65
68
65
65
62
62
63
63
62
58
60
54
53
52
54
54
53
55
53
53
50
51
50
49
52
47
47
43
41
39
39
41
38
39
37
38
38
38
35
34
32
34
37
37
38
35
37
35
35
40
42
45
46
51
51
53
54
56
59
58
58
54
53
51
51
53
54
55
55
54
52
54
51
48
42
36
33
25
22
19
19
17
16
20
15
9
2
-1
-5
-3
-2
-2
-1
-4
-3
-4
-3
-3
-1
2
1
6
11
19
28
30
31
31
39
52
71
96
128
155
167
148
108
55
-9
-65
-105
-124
-125
-120
-110
-102
-98
-92
-83
-76
-70
-66
-63
-61
-60
-59
-62
-67
-69
-69
-68
-69
-70
-71
-69
-68
-72
-74
-76
-81
-85
-88
-92
-96
-96
-97
-98
-102
-101
-107
-110
-112
-113
-115
-120
-121
-124
-125
-130
-136
-137
-138
-138
-144
-147
-150
-154
-158
-165
-165
-165
-162
-168
-169
-168
-170
-168
-170
-166
-167
-165
-164
-159
-153
-156
-158
-160
-157
-156
-152
-147
-141
-131
-125
-121
-119
-114
-108
-101
-96
-89
-89
-91
-87
-82
-79
-77
-72
-71
-68
-69
-67
-64
-61
-59
-60
-60
-60
-55
-51
-50
-49
-51
-48
-50
-47
-43
-40
-40
-39
-35
-35
-32
-33
-35
-30
-24
-27
-34
-34
-35
-34
-32
-29
-26
-24
-25
-29
-26
-24
-22
-21
-18
-22
-28
-30
-31
-32
-32
-30
-28
-27
-28
-31
-34
-35
-36
-36
-38
-45
-52
-55
-54
-56
-56
-51
-52
-50
-53
-55
-57
-60
-59
-64
-66
-71
-70
-68
-68
-72
-72
-71
-74
-76
-73
-72
-74
-73
-66
-58
-55
-54
-53
-48
-46
-42
-48
-48
-50
-53
-53
-51
-46
-42
-40
-39
-37
-38
-44
-53
-59
-59
-61
-68
-79
-88
-92
-92
-92
-97
-98
-98
-100
-104
-104
-105
-105
-104
-105
-103
-103
-105
-106
-104
-99
-97
-95
-91
-81
-71
-64
-67
-69
-65
-49
-20
16
59
83
100
88
50
0
-58
-105
-142
-168
-184
-195
-192
-188
-178
-169
-159
-154
-151
-146
-144
-142
-145
-144
-147
-150
-151
-155
-152
-154
-151
-155
-155
-157
-159
-160
-164
-165
-170
-173
-180
-180
-181
-182
-183
-189
-192
-199
-199
-201
-203
-204
-206
-207
-212
-211
-216
-216
-221
-225
-229
-232
-233
-237
-238
-239
-240
-239
-240
-238
-238
-236
-237
-237
-238
-238
-239
-240
-239
-239
-237
-233
-224
-221
-219
-214
-213
-207
-200
-189
-184
-176
-170
-165
-158
-151
-142
-134
-125
-122
-114
-107
-103
-97
-93
-88
-91
-90
-85
-81
-77
-72
-67
-65
-65
-66
-64
-64
-64
-63
-61
-59
-57
-54
-50
-50
-53
-49
-46
-44
-42
-40
-36
-32
-25
-27
-27
-28
-28
-28
-25
-22
-21
-21
-21
-20
-18
-18
-19
-20
-18
-19
-18
-18
-16
-18
-17
-16
-18
-17
-17
-18
-18
-16
-17
-21
-22
-22
-21
-22
-22
-24
-25
-26
-29
-27
-28
-27
-26
-25
-23
-27
-28
-26
-25
-24
-23
-20
-22
-18
-15
-11
-8
-4
-2
4
8
12
15
16
11
8
10
8
9
11
14
19
21
26
24
25
24
21
15
11
8
3
1
-4
-4
-4
-2
-5
-10
-11
-14
-15
-16
-15
-14
-10
-5
-5
-5
-4
-5
-4
-1
3
4
10
20
31
36
39
38
46
63
88
123
161
193
203
194
157
105
45
-22
-73
-106
-119
-114
-105
-92
-82
-72
-61
-49
-42
-36
-34
-34
-36
-37
-38
-38
-37
-36
-37
-40
-41
-42
-43
-41
-46
-46
-46
-46
-48
-51
-49
-54
-54
-57
-60
-60
-59
-58
-64
-68
-74
-79
-80
-82
-86
-88
-87
-92
-95
-97
-98
-98
-100
-97
-102
-105
-106
-108
-109
-112
-112
-112
-111
-111
-109
-107
-105
-105
-107
-104
-103
-101
-95
-93
-91
-86
-81
-77
-70
-64
-59
-55
-44
-35
-27
-21
-14
-8
-3
3
6
12
17
22
25
29
34
39
44
43
46
48
50
50
51
56
52
55
56
57
56
60
63
63
67
66
70
69
73
76
82
84
82
86
86
87
89
96
101
100
99
99
101
101
106
106
107
107
104
104
103
106
104
107
104
105
104
102
101
100
104
103
101
98
97
96
94
94
90
92
93
94
91
90
88
84
87
86
88
88
88
87
87
89
86
87
84
84
84
83
86
83
83
83
87
88
92
99
99
105
107
113
114
118
116
119
121
118
116
112
116
116
122
127
128
130
129
128
121
118
114
109
100
93
88
86
88
86
84
80
79
75
75
74
74
76
74
76
79
78
77
76
80
79
84
83
85
90
97
108
107
109
109
120
134
160
195
227
254
250
229
185
131
72
18
-21
-42
-44
-34
-21
-7
5
18
23
30
35
39
38
38
37
38
37
34
34
33
37
34
34
33
31
29
27
22
21
20
18
15
12
9
4
3
2
-1
-5
-8
-8
-10
-13
-15
-17
-17
-18
-18
-19
-20
-24
-29
-29
-35
-34
-35
-35
-35
-36
-34
-40
-42
-43
-44
-48
-48
-46
-49
-50
-50
-48
-48
-48
-48
-46
-44
-41
-37
-37
-36
-31
-26
-18
-16
-11
-7
-4
1
12
21
25
29
33
40
43
49
52
59
61
63
70
72
73
72
76
78
78
79
82
86
84
84
82
83
82
84
85
86
87
86
88
88
89
88
91
95
95
99
99
102
102
104
105
106
111
110
114
111
114
113
113
115
110
111
108
109
106
106
103
104
104
101
102
97
98
94
94
96
92
90
83
81
82
86
88
85
83
80
79
76
77
76
76
75
76
75
72
72
69
69
66
66
66
66
67
67
70
64
64
66
71
73
74
79
81
88
89
91
91
92
93
93
94
87
83
82
87
90
95
101
98
100
97
92
85
82
81
68
61
54
52
48
49
47
43
41
35
31
26
28
31
33
31
25
26
25
26
23
23
24
21
20
24
29
37
46
49
47
47
51
64
89
121
154
180
178
155
108
52
-6
-60
-94
-109
-108
-102
-96
-90
-81
-70
-65
-59
-55
-54
-51
-50
-49
-52
-56
-59
-62
-64
-68
-72
-74
-75
-80
-84
-86
-89
-91
-93
-93
-100
-104
-110
-113
-115
-121
-125
-135
-140
-142
-146
-147
-152
-151
-152
-149
-149
-149
-152
-159
-165
-170
-169
-176
-178
-180
-184
-186
-189
-189
-192
-193
-193
-194
-195
-197
-197
-200
-199
-201
-199
-201
-203
-202
-199
-194
-192
-186
-181
-178
-175
-172
-169
-167
-162
-155
-147
-144
-134
-132
-128
-123
-121
-116
-111
-111
-109
-109
-108
-107
-107
-106
-103
-100
-97
-97
-98
-100
-104
-104
-100
-91
-93
-94
-93
-92
-91
-91
-87
-85
-83
-84
-84
-85
-84
-81
-78
-76
-80
-84
-85
-86
-83
-79
-76
-74
-76
-75
-76
-77
-80
-84
-89
-92
-95
-94
-96
-96
-95
-96
-97
-100
-104
-108
-110
-111
-111
-113
-115
-112
-110
-111
-115
-116
-123
-127
-129
-130
-127
-124
-121
-125
-130
-133
-139
-142
-142
-140
-139
-136
-136
-136
-136
-134
-126
-120
-117
-121
-120
-113
-110
-108
-108
-103
-107
-108
-110
-114
-117
-118
-110
-104
-104
-111
-112
-114
-121
-129
-140
-145
-148
-150
-156
-160
-160
-163
-168
-170
-169
-169
-166
-161
-162
-169
-176
-173
-170
-167
-166
-164
-161
-161
-160
-154
-144
-134
-128
-130
-128
-125
-111
-83
-45
-7
25
48
39
8
-42
-103
-155
-200
-226
-245
-255
-257
-256
-247
-243
-231
-220
-209
-206
-205
-203
-208
-210
-216
-213
-215
-216
-217
-220
-220
-221
-217
-220
-219
-222
-222
-224
-229
-230
-231
-229
-232
-232
-234
-236
-238
-240
-243
-245
-246
-248
-248
-249
-249
-256
-261
-261
-264
-264
-263
-264
-263
-266
-266
-268
-269
-270
-268
-269
-272
-276
-278
-273
-271
-266
-266
-261
-260
-259
-258
-262
-259
-258
-252
-249
-245
-237
-233
-224
-219
-212
-209
-199
-190
-181
-173
-164
-155
-152
-145
-142
-136
-133
-136
-133
-130
-122
-118
-114
-114
-112
-109
-106
-107
-109
-109
-109
-106
-105
-103
-100
-96
-93
-91
-85
-84
-82
-77
-69
-68
-69
-72
-70
-67
-64
-62
-61
-58
-57
-54
-49
-46
-44
-44
-38
-39
-37
-39
-40
-42
-38
-32
-37
-40
-41
-40
-43
-46
-43
-43
-40
-42
-46
-45
-46
-47
-46
-45
-43
-42
-43
-45
-48
-48
-47
-47
-45
-40
-38
-39
-39
-37
-37
-36
-35
-35
-35
-35
-35
-31
-25
-19
-13
-9
-6
-5
1
6
12
15
17
15
12
12
8
11
12
16
18
22
27
27
30
28
28
22
15
5
0
0
-3
-4
-8
-12
-14
-11
-7
-8
-9
-10
-9
-9
-10
-8
-8
-4
-5
-4
-3
-1
1
5
14
24
34
36
36
35
43
61
87
123
162
191
201
193
156
105
44
-14
-56
-80
-88
-91
-88
-77
-65
-51
-40
-32
-25
-23
-23
-24
-21
-21
-21
-21
-19
-22
-21
-23
-23
-24
-24
-23
-28
-28
-29
-32
-35
-36
-35
-35
-35
-39
-42
-46
-49
-54
-56
-56
-61
-65
-68
-71
-71
-73
-71
-76
-77
-78
-79
-81
-82
-81
-84
-82
-84
-83
-84
-84
-85
-86
-86
-89
-91
-90
-88
-87
-86
-83
-82
-81
-81
-81
-79
-77
-75
-72
-69
-62
-56
-49
-43
-39
-34
-27
-18
-10
-4
3
7
16
16
20
23
29
32
35
43
39
40
41
46
49
51
54
52
57
55
58
57
59
59
64
68
68
70
70
73
73
77
83
83
83
83
87
90
92
93
95
96
97
97
95
97
97
98
99
102
102
100
100
96
98
95
93
95
94
92
91
94
91
92
90
88
86
84
85
82
81
80
81
80
78
79
78
80
77
79
78
78
76
78
83
78
80
76
76
72
72
77
72
74
72
72
71
74
78
83
87
87
90
92
94
91
90
91
89
88
84
85
84
85
85
88
92
95
96
92
92
86
80
74
70
66
62
59
56
53
51
48
44
43
46
45
45
42
43
42
42
39
39
44
45
45
44
44
46
51
60
66
75
76
78
82
96
119
150
190
216
234
221
183
126
63
4
-49
-81
-90
-84
-71
-58
-44
-33
-18
-10
-4
-2
0
0
-2
-2
-4
-3
-4
-2
-5
-10
-12
-15
-15
-14
-18
-22
-25
-25
-29
-32
-32
-34
-36
-38
-41
-43
-47
-53
-53
-56
-57
-59
-61
-65
-66
-68
-70
-74
-78
-80
-85
-89
-90
-92
-93
-98
-99
-104
-104
-106
-111
-113
-113
-115
-114
-114
-114
-112
-111
-111
-111
-110
-106
-104
-100
-96
-93
-88
-82
-73
-68
-60
-56
-51
-45
-39
-33
-28
-21
-16
-13
-10
-6
-3
0
2
3
5
5
6
7
11
12
12
12
13
13
13
15
13
14
14
14
15
16
17
18
20
21
25
30
33
36
38
43
40
40
40
45
48
50
55
50
53
51
50
51
55
56
53
52
49
49
46
44
42
43
45
41
43
44
43
37
32
33
29
28
25
24
24
24
25
25
26
24
22
18
19
19
20
18
15
13
13
13
12
12
13
12
10
9
10
13
15
15
18
24
28
32
36
44
46
48
48
46
42
39
37
36
38
37
41
46
50
55
54
55
47
43
36
30
23
19
16
6
3
0
-3
-6
-6
-5
-5
-5
-10
-11
-12
-12
-14
-13
-10
-10
-7
-5
-6
-9
-9
-4
2
12
21
27
24
24
34
54
80
111
143
167
172
144
99
34
-33
-91
-126
-140
-137
-128
-118
-109
-96
-84
-74
-70
-66
-67
-67
-71
-76
-78
-80
-82
-82
-84
-84
-83
-82
-81
-83
-84
-85
-90
-93
-98
-102
-106
-109
-106
-108
-106
-108
-116
-123
-132
-135
-140
-141
-142
-143
-140
-140
-143
-147
-148
-148
-147
-149
-154
-154
-158
-158
-163
-167
-171
-176
-175
-176
-176
-181
-179
-179
-176
-174
-177
-179
-181
-176
-174
-169
-166
-165
-161
-157
-152
-148
-141
-135
-128
-121
-111
-105
-101
-99
-95
-90
-85
-82
-78
-71
-66
-64
-63
-60
-60
-58
-55
-55
-53
-53
-52
-49
-44
-40
-44
-41
-41
-40
-40
-37
-32
-34
-31
-29
-29
-28
-25
-22
-20
-15
-14
-10
-9
-9
-9
-6
-4
-4
-1
3
6
5
6
7
8
7
6
5
6
9
8
8
6
6
6
3
0
-2
-3
-5
-8
-8
-7
-9
-12
-9
-11
-10
-13
-15
-18
-19
-15
-16
-17
-19
-20
-20
-22
-25
-25
-23
-21
-19
-17
-14
-14
-7
0
1
5
6
6
6
8
12
9
8
7
6
3
5
10
14
16
15
14
12
11
6
1
-4
-14
-21
-23
-24
-22
-22
-25
-31
-35
-35
-36
-37
-36
-36
-35
-36
-35
-34
-33
-31
-27
-26
-26
-25
-22
-14
-1
9
16
16
18
19
33
59
96
139
163
176
161
127
76
16
-41
-85
-111
-126
-132
-129
-123
-115
-103
-89
-77
-68
-64
-64
-64
-62
-58
-61
-62
-63
-64
-64
-66
-66
-71
-69
-70
-71
-72
-74
-75
-79
-80
-84
-83
-84
-86
-88
-90
-91
-97
-100
-101
-101
-104
-103
-107
-110
-114
-118
-117
-117
-118
-121
-123
-124
-128
-130
-132
-135
-138
-139
-141
-142
-142
-144
-145
-143
-137
-137
-139
-139
-141
-140
-138
-133
-136
-135
-132
-126
-121
-117
-113
-106
-98
-90
-84
-78
-71
-63
-56
-51
-48
-40
-33
-29
-24
-18
-13
-13
-10
-7
-5
-4
-3
0
0
1
2
6
7
8
8
10
10
11
13
16
18
18
22
23
26
27
31
32
34
38
39
41
41
42
43
45
47
49
56
55
57
56
59
57
58
60
56
57
56
56
54
55
58
53
51
49
51
48
47
46
46
47
44
45
44
45
42
44
44
42
44
46
48
47
48
49
47
46
45
45
46
48
49
49
49
49
51
50
50
48
49
51
54
59
63
66
68
73
73
78
80
80
76
74
76
71
71
72
77
80
80
82
82
85
80
79
71
64
57
51
49
45
44
42
43
40
36
38
31
32
30
30
28
31
33
31
32
32
34
34
36
36
38
41
44
52
58
64
64
71
83
103
130
164
198
213
211
174
121
52
-12
-63
-94
-104
-95
-81
-65
-55
-43
-33
-20
-14
-11
-10
-10
-10
-12
-12
-11
-11
-17
-18
-18
-20
-22
-26
-24
-29
-27
-28
-32
-35
-38
-44
-44
-45
-50
-52
-53
-55
-59
-60
-60
-63
-63
-66
-68
-71
-73
-74
-81
-83
-84
-87
-89
-94
-94
-98
-101
-105
-103
-103
-105
-105
-109
-107
-109
-111
-112
-111
-108
-107
-108
-109
-109
-106
-103
-98
-95
-90
-86
-80
-76
-67
-60
-52
-46
-38
-33
-29
-23
-16
-11
-5
0
2
9
14
14
12
13
19
16
21
20
23
24
25
26
24
25
26
29
29
31
30
34
38
37
39
41
46
45
48
54
55
57
58
59
60
63
64
64
64
63
65
65
67
63
65
64
63
61
59
62
60
60
56
55
53
53
53
51
51
47
46
44
45
43
40
41
38
38
35
37
35
31
30
32
35
33
35
34
35
32
29
32
27
27
26
28
27
27
30
28
30
30
30
29
31
31
35
40
42
44
47
55
58
62
63
60
59
57
57
56
57
60
62
66
68
70
65
62
57
54
49
41
35
29
28
28
27
25
21
15
14
12
11
15
13
14
13
11
9
10
12
10
9
10
12
11
12
18
30
40
43
46
46
55
73
103
147
177
201
191
156
102
32
-35
-95
-130
-136
-130
-112
-97
-84
-70
-60
-50
-43
-39
-37
-39
-38
-37
-38
-39
-40
-41
-41
-40
-41
-46
-48
-50
-50
-49
-50
-52
-55
-58
-63
-66
-69
-70
-72
-74
-79
-84
-88
-92
-93
-96
-97
-100
-102
-103
-106
-110
-113
-113
-119
-121
-120
-121
-123
-125
-126
-128
-131
-134
-136
-136
-140
-143
-143
-140
-140
-141
-141
-143
-144
-144
-137
-136
-133
-130
-127
-121
-117
-109
-107
-101
-96
-89
-79
-74
-71
-63
-56
-50
-45
-40
-34
-32
-29
-26
-23
-20
-18
-14
-13
-10
-10
-12
-11
-9
-7
-7
-5
-4
0
0
0
0
2
2
4
7
9
10
12
14
15
16
20
17
21
24
26
24
23
25
22
20
18
18
16
14
12
12
15
12
10
6
6
5
5
8
3
1
-2
-2
-3
-5
-4
-12
-14
-15
-14
-13
-12
-11
-9
-8
-13
-15
-14
-13
-16
-19
-20
-23
-26
-27
-26
-23
-22
-23
-25
-24
-25
-27
-30
-29
-26
-20
-15
-15
-13
-11
-8
-4
-1
2
6
5
0
-5
-8
-5
-5
-3
-2
0
3
7
12
8
3
-3
-10
-19
-27
-35
-41
-42
-42
-44
-47
-50
-54
-57
-57
-61
-61
-60
-59
-61
-62
-59
-60
-62
-65
-67
-63
-59
-51
-47
-39
-29
-22
-22
-25
-24
-17
2
31
66
98
117
116
96
45
-15
-78
-130
-160
-171
-170
-169
-168
-161
-154
-145
-136
-126
-117
-115
-116
-119
-121
-122
-123
-124
-123
-122
-122
-121
-121
-123
-126
-125
-130
-132
-131
-133
-135
-140
-141
-148
-156
-159
-162
-164
-169
-173
-174
-174
-172
-171
-169
-172
-173
-180
-182
-189
-192
-193
-198
-198
-201
-198
-201
-200
-204
-208
-209
-214
-213
-217
-218
-222
-221
-220
-223
-221
-225
-222
-224
-220
-220
-217
-212
-205
-200
-197
-191
-187
-182
-175
-166
-161
-154
-146
-143
-136
-132
-129
-125
-119
-116
-113
-108
-105
-101
-96
-90
-92
-90
-90
-87
-85
-86
-80
-81
-78
-76
-74
-71
-66
-64
-62
-58
-56
-55
-53
-49
-47
-49
-48
-48
-46
-43
-40
-40
-37
-34
-33
-31
-32
-30
-29
-27
-29
-31
-30
-28
-26
-28
-30
-27
-24
-24
-27
-28
-28
-29
-29
-28
-30
-28
-29
-29
-30
-33
-31
-35
-34
-33
-34
-35
-32
-27
-26
-28
-34
-32
-31
-31
-32
-33
-31
-34
-36
-38
-41
-39
-37
-32
-35
-31
-21
-14
-14
-14
-8
-2
4
5
4
-2
-6
-10
-5
-1
1
4
6
12
19
22
19
11
6
-4
-14
-20
-21
-21
-19
-19
-21
-25
-27
-30
-36
-38
-38
-35
-32
-34
-35
-33
-29
-27
-25
-24
-23
-23
-20
-13
-7
5
15
19
19
19
26
43
80
117
157
180
186
161
113
52
-11
-63
-95
-117
-125
-126
-118
-112
-103
-91
-76
-65
-57
-51
-51
-49
-52
-52
-52
-51
-52
-53
-54
-60
-62
-64
-64
-63
-63
-63
-68
-69
-70
-69
-69
-68
-69
-71
-74
-76
-79
-83
-86
-89
-92
-95
-101
-101
-101
-100
-99
-97
-99
-103
-104
-105
-108
-109
-110
-112
-116
-120
-124
-125
-124
-120
-122
-122
-124
-123
-123
-122
-122
-124
-124
-122
-120
-117
-114
-109
-102
-96
-95
-91
-87
-80
-72
-63
-55
-50
-44
-40
-37
-32
-24
-17
-14
-9
-6
-2
-1
4
7
10
11
11
14
14
15
18
23
24
26
25
27
28
31
37
38
39
38
41
43
44
45
47
52
53
56
59
63
64
63
63
60
61
63
65
68
67
71
65
67
65
67
66
66
69
68
68
65
65
63
65
63
66
67
64
62
60
63
64
66
66
64
64
63
64
64
68
69
66
65
66
68
66
66
64
66
65
66
64
62
65
71
80
82
87
89
93
94
95
99
97
96
94
94
92
93
98
99
104
105
108
106
103
96
89
85
76
72
67
65
62
60
61
53
50
47
48
44
43
45
42
43
42
44
44
47
47
47
47
46
47
50
56
62
71
77
75
76
83
102
129
165
196
220
217
189
140
78
20
-36
-71
-85
-87
-77
-64
-51
-38
-27
-18
-11
-7
-6
-9
-9
-8
-13
-15
-17
-17
-18
-20
-18
-21
-21
-24
-26
-29
-28
-30
-34
-37
-41
-42
-44
-47
-50
-54
-55
-60
-61
-64
-68
-70
-72
-71
-76
-79
-82
-86
-87
-87
-87
-92
-95
-97
-99
-99
-101
-101
-104
-105
-109
-110
-113
-116
-117
-115
-112
-113
-114
-113
-112
-111
-108
-106
-106
-104
-103
-100
-96
-90
-82
-75
-69
-62
-54
-48
-41
-34
-26
-21
-18
-13
-8
-5
-4
0
-1
5
7
9
8
11
14
12
15
13
15
16
19
17
16
17
17
20
21
23
22
23
25
24
28
28
31
34
40
43
42
42
43
44
43
44
44
46
46
46
46
46
43
40
43
41
39
34
32
31
30
31
30
30
28
27
25
24
25
23
24
23
22
22
18
16
16
16
15
15
12
11
8
7
10
5
4
3
2
0
2
7
4
7
11
14
16
19
23
30
37
39
42
42
42
38
34
33
31
35
35
37
40
47
48
42
37
32
28
21
14
6
-2
-4
-6
-8
-9
-13
-16
-16
-17
-19
-22
-24
-26
-26
-26
-28
-30
-29
-29
-29
-30
-26
-29
-28
-24
-16
-5
3
7
6
10
20
43
73
109
142
157
150
110
54
-9
-79
-134
-166
-172
-167
-155
-141
-130
-117
-106
-94
-88
-80
-78
-78
-79
-80
-80
-82
-85
-88
-86
-85
-85
-89
-93
-97
-104
-104
-101
-100
-100
-103
-106
-111
-112
-115
-118
-122
-125
-130
-132
-132
-135
-136
-135
-136
-136
-139
-141
-143
-145
-146
-150
-153
-153
-155
-156
-160
-165
-168
-166
-165
-168
-169
-168
-169
-169
-171
-169
-168
-166
-164
-160
-157
-157
-156
-154
-148
-144
-138
-132
-131
-123
-114
-102
-103
-101
-97
-90
-80
-72
-68
-65
-60
-56
-54
-52
-51
-47
-41
-39
-38
-34
-31
-32
-33
-33
-30
-29
-30
-29
-26
-23
-15
-13
-15
-18
-17
-13
-12
-12
-10
-9
-7
-4
-2
1
6
10
19
21
26
27
26
23
21
23
19
20
16
18
19
19
19
15
14
11
12
13
15
14
12
14
7
7
2
0
2
6
10
8
10
12
12
7
7
8
10
9
6
3
4
3
0
-2
-3
-5
-8
-10
-8
-3
6
12
18
24
31
38
39
41
39
43
45
46
44
41
42
43
46
47
49
48
48
46
45
44
35
29
25
22
17
12
13
11
13
12
14
13
8
7
3
4
4
7
7
8
6
6
7
5
7
9
12
11
15
25
34
43
45
46
46
55
76
104
136
172
194
193
173
127
79
25
-18
-45
-61
-69
-70
-69
-64
-58
-48
-41
-38
-37
-34
-35
-34
-34
-35
-40
-45
-47
-49
-45
-44
-42
-42
-43
-47
-52
-56
-60
-60
-61
-63
-64
-62
-63
-71
-75
-76
-79
-79
-81
-82
-90
-92
-91
-90
-89
-93
-96
-102
-106
-113
-114
-113
-111
-109
-107
-107
-115
-121
-121
-121
-120
-121
-119
-119
-119
-123
-129
-128
-125
-120
-117
-112
-109
-106
-102
-99
-93
-88
-86
-82
-76
-71
-64
-56
-48
-44
-39
-36
-32
-31
-29
-22
-21
-18
-16
-14
-15
-13
-10
-11
-9
-7
-4
-2
-1
-1
0
6
7
11
8
5
3
4
10
11
18
23
25
26
29
28
25
27
30
35
35
37
36
37
33
30
31
33
31
28
27
25
25
24
27
28
29
28
25
26
25
24
20
18
20
24
26
24
22
17
14
11
11
11
6
5
6
6
4
7
11
6
5
3
2
5
7
10
8
12
14
19
21
24
24
27
31
28
28
24
21
23
26
31
29
30
31
35
35
36
35
29
24
18
13
4
1
0
2
0
-6
-11
-13
-15
-17
-15
-13
-13
-15
-17
-15
-12
-8
-8
-6
-5
-4
-1
4
12
20
29
29
30
33
44
63
91
131
162
189
189
165
118
60
1
-48
-80
-97
-106
-106
-105
-96
-90
-77
-68
-62
-56
-51
-52
-58
-61
-65
-65
-66
-66
-68
-69
-68
-72
-75
-78
-82
-83
-82
-79
-83
-86
-91
-93
-92
-88
-89
-92
-96
-104
-111
-113
-113
-115
-118
-122
-129
-134
-135
-138
-140
-142
-145
-146
-147
-147
-152
-156
-158
-163
-165
-165
-167
-167
-170
-172
-170
-170
-170
-171
-170
-169
-168
-165
-163
-161
-160
-154
-152
-148
-142
-136
-134
-125
-118
-112
-104
-97
-89
-85
-80
-74
-69
-66
-62
-59
-56
-53
-52
-49
-47
-46
-46
-44
-41
-42
-40
-39
-40
-41
-38
-34
-34
-35
-35
-34
-31
-28
-27
-24
-21
-18
-17
-15
-10
-6
-1
-1
2
3
4
6
8
12
12
16
19
18
16
15
19
16
17
15
16
16
17
15
13
12
12
14
14
15
13
12
15
11
11
9
9
9
8
12
9
10
10
9
8
9
7
7
8
8
8
8
8
6
10
19
21
26
27
29
33
39
42
43
43
42
43
42
39
38
42
46
49
48
48
50
52
53
47
43
39
36
28
24
23
20
21
19
16
13
8
10
6
5
3
3
2
4
5
8
9
9
11
12
13
14
16
24
32
41
44
48
48
58
80
108
144
177
201
202
181
126
59
-9
-71
-106
-123
-122
-107
-93
-81
-73
-63
-53
-47
-42
-39
-37
-38
-39
-41
-41
-42
-41
-42
-40
-40
-41
-42
-42
-42
-45
-48
-50
-49
-52
-55
-60
-61
-61
-65
-66
-68
-69
-71
-75
-75
-81
-84
-85
-89
-93
-95
-94
-97
-99
-101
-104
-104
-107
-109
-112
-112
-113
-114
-115
-116
-116
-117
-117
-121
-119
-115
-115
-115
-116
-113
-113
-111
-112
-111
-105
-100
-94
-89
-83
-78
-76
-71
-64
-58
-51
-45
-38
-30
-25
-21
-16
-8
-6
-4
-2
1
5
7
11
11
16
17
18
19
20
18
20
23
22
24
25
26
24
25
30
29
33
35
41
43
46
50
51
53
52
57
60
65
66
69
72
73
76
74
75
73
74
76
75
73
73
77
75
78
77
78
76
73
73
72
74
71
71
69
69
65
62
63
61
64
62
63
61
59
57
56
57
53
56
55
54
54
54
56
52
54
51
51
50
51
52
53
57
60
65
67
71
71
76
82
78
78
76
79
76
74
74
69
71
74
80
81
86
85
84
79
72
67
60
54
45
40
37
33
33
31
28
23
22
22
19
16
16
16
17
22
21
22
21
23
24
24
23
24
28
30
39
48
54
55
54
59
65
87
114
148
177
195
199
168
120
62
-5
-63
-100
-113
-115
-108
-95
-80
-67
-56
-49
-42
-38
-37
-36
-37
-39
-42
-39
-35
-38
-44
-49
-49
-50
-52
-52
-54
-57
-61
-64
-67
-69
-72
-74
-77
-79
-78
-81
-85
-90
-93
-94
-95
-98
-101
-103
-104
-107
-111
-115
-119
-122
-124
-124
-123
-127
-128
-126
-125
-127
-132
-139
-140
-142
-143
-146
-148
-152
-152
-152
-145
-146
-146
-142
-136
-130
-126
-122
-128
-128
-127
-124
-119
-113
-105
-97
-90
-84
-79
-74
-70
-66
-66
-61
-60
-56
-53
-50
-45
-36
-25
-25
-28
-32
-35
-38
-38
-35
-32
-31
-34
-36
-39
-37
-36
-35
-37
-38
-37
-33
-29
-27
-26
-30
-29
-28
-28
-26
-27
-25
-25
-24
-22
-18
-17
-17
-15
-13
-12
-12
-12
-12
-10
-9
-9
-9
-14
-17
-20
-20
-20
-21
-19
-23
-24
-26
-25
-22
-19
-11
-13
-16
-22
-23
-21
-19
-22
-21
-21
-23
-23
-24
-25
-25
-24
-26
-34
-37
-37
-36
-33
-34
-37
-40
-35
-26
-18
-16
-13
-9
-2
2
4
1
0
0
0
4
3
4
6
9
12
12
14
9
3
-7
-13
-15
-22
-27
-32
-34
-38
-42
-43
-47
-52
-54
-55
-56
-55
-56
-57
-58
-57
-53
-53
-50
-48
-48
-45
-43
-39
-35
-24
-20
-18
-20
-19
-13
7
38
78
115
142
149
124
85
32
-25
-77
-119
-141
-148
-149
-147
-149
-145
-140
-129
-120
-112
-106
-103
-100
-102
-104
-108
-114
-119
-122
-124
-122
-120
-124
-125
-126
-121
-128
-135
-140
-142
-141
-141
-138
-143
-147
-147
-151
-153
-157
-157
-160
-166
-172
-176
-176
-180
-180
-183
-183
-185
-187
-184
-184
-186
-193
-191
-194
-197
-200
-202
-199
-203
-199
-198
-191
-192
-191
-189
-190
-188
-185
-183
-185
-184
-180
-174
-172
-172
-167
-161
-150
-142
-136
-132
-129
-125
-116
-109
-104
-100
-95
-90
-86
-84
-83
-80
-76
-75
-72
-70
-64
-65
-64
-63
-63
-64
-63
-56
-57
-56
-55
-52
-50
-49
-48
-48
-46
-44
-40
-37
-35
-36
-33
-30
-28
-27
-23
-20
-19
-19
-17
-16
-17
-16
-12
-10
-8
-8
-7
-6
-7
-6
-7
-7
-9
-10
-12
-12
-10
-11
-12
-12
-9
-6
-5
-7
-11
-14
-13
-8
-9
-11
-16
-18
-23
-28
-29
-27
-22
-23
-25
-25
-25
-26
-25
-20
-18
-14
-12
-8
-9
-9
-2
-1
1
1
3
3
-2
-2
-5
-1
2
6
7
7
7
8
7
0
-4
-10
-18
-23
-28
-29
-33
-32
-35
-36
-35
-35
-36
-37
-37
-40
-42
-46
-47
-47
-46
-45
-44
-42
-40
-37
-32
-26
-16
-7
-5
-6
-3
6
30
57
99
139
170
180
162
123
63
-3
-60
-106
-131
-142
-140
-133
-125
-118
-110
-101
-94
-87
-84
-81
-82
-80
-80
-83
-85
-88
-85
-89
-88
-88
-87
-85
-85
-84
-87
-87
-89
-89
-89
-95
-98
-100
-102
-106
-109
-111
-115
-114
-116
-119
-125
-127
-129
-131
-133
-132
-135
-140
-142
-144
-144
-145
-145
-146
-150
-153
-156
-156
-158
-156
-153
-152
-156
-160
-161
-160
-159
-156
-149
-152
-152
-147
-143
-139
-142
-140
-138
-129
-119
-114
-109
-102
-94
-86
-78
-73
-68
-63
-58
-54
-48
-41
-39
-36
-33
-29
-30
-29
-27
-25
-24
-25
-25
-25
-22
-23
-23
-23
-22
-21
-21
-17
-12
-10
-12
-13
-10
-8
-6
-5
1
2
5
6
8
12
15
19
20
23
22
22
23
25
27
30
33
29
31
31
33
29
28
32
28
29
29
33
32
30
33
30
30
29
29
28
24
21
19
20
19
22
22
22
20
20
20
19
20
18
19
20
22
22
20
20
19
20
22
26
29
32
36
39
41
42
47
51
56
58
58
