325
316
305
297
290
285
284
284
283
280
278
276
272
273
273
274
270
266
264
264
261
261
260
261
260
261
263
264
268
271
278
283
290
297
304
313
320
330
337
345
348
358
368
370
374
379
385
388
385
385
385
385
383
385
379
378
374
376
372
372
372
370
367
365
365
366
366
366
365
365
363
363
360
363
363
363
366
363
366
363
366
363
363
364
370
366
367
367
370
377
372
376
374
374
376
374
377
377
379
380
378
377
376
372
367
370
368
367
365
364
361
361
360
361
361
363
361
360
358
350
348
358
385
425
477
534
588
630
638
617
565
503
447
412
390
374
363
346
334
323
310
301
298
296
296
294
292
288
284
284
279
280
278
278
277
273
273
271
270
270
268
271
268
271
271
278
281
284
290
294
301
307
314
318
330
337
344
354
366
367
371
377
380
386
388
388
387
386
384
381
381
379
379
379
378
374
373
374
370
370
370
368
367
365
363
363
366
363
363
363
361
360
360
360
360
365
363
363
361
363
368
366
366
365
367
367
366
367
367
370
372
374
374
377
376
373
374
374
376
376
373
372
368
367
365
365
366
365
363
363
360
360
359
358
358
358
358
358
353
350
345
353
381
416
464
520
578
624
633
610
556
497
446
416
393
377
360
346
333
321
312
304
299
294
294
290
290
290
285
284
280
279
278
276
274
273
270
268
268
268
267
268
272
274
273
278
278
283
287
290
301
307
312
318
325
337
345
353
363
368
372
377
381
386
386
388
388
386
387
386
386
384
381
381
377
374
372
372
372
373
374
376
376
373
372
370
371
366
367
367
367
367
363
363
363
367
370
370
367
367
367
370
370
372
371
373
372
374
376
377
378
379
380
384
385
386
385
386
385
386
385
384
379
376
371
368
368
370
371
370
370
368
368
372
367
366
366
365
365
359
354
361
381
417
466
520
571
606
623
603
560
505
457
419
399
385
368
356
343
331
320
311
305
301
298
299
297
297
297
292
287
283
279
280
279
276
278
277
277
274
271
274
276
276
277
278
283
285
290
294
301
308
316
325
331
339
346
356
363
373
381
385
391
396
396
396
398
396
397
393
391
391
388
386
386
384
384
384
380
378
377
379
381
379
376
373
376
377
374
372
370
370
370
367
367
367
370
370
370
372
372
376
376
377
377
374
377
377
377
377
376
377
381
386
386
385
384
384
381
381
381
381
381
379
381
376
371
370
367
370
365
367
367
370
371
370
368
365
359
356
360
385
420
468
528
581
621
633
608
551
488
436
405
391
376
361
346
334
325
314
311
308
306
301
297
294
287
292
292
290
285
279
283
284
280
279
278
276
276
276
273
276
278
280
284
285
290
293
299
306
316
324
333
341
347
353
360
370
379
384
391
394
396
397
400
400
400
400
397
394
391
388
387
391
385
384
380
379
381
374
377
377
378
378
374
376
372
374
374
373
376
372
372
370
370
370
370
372
372
376
374
376
376
372
372
372
374
377
378
379
379
378
378
379
379
384
379
381
379
379
381
376
370
367
365
367
366
364
364
367
367
367
364
361
363
363
361
356
350
350
363
388
433
488
548
601
631
620
583
520
461
418
393
379
366
347
332
316
307
299
294
292
287
286
283
283
281
276
273
276
273
270
265
261
259
260
261
264
263
259
257
259
259
261
265
268
272
276
278
283
291
297
304
312
319
325
333
339
343
350
358
366
368
371
373
370
367
367
364
370
363
360
358
358
357
354
353
351
351
350
346
344
344
345
344
344
341
340
339
339
339
339
339
339
339
337
337
337
337
337
340
341
341
340
338
340
348
345
345
346
348
350
348
348
350
350
352
350
348
346
347
340
341
339
336
337
334
332
327
327
327
328
330
332
330
330
327
325
316
318
326
348
386
441
500
558
598
605
573
517
457
410
378
363
341
324
306
290
276
268
264
264
263
257
254
252
250
248
246
245
244
240
239
238
236
236
233
236
234
233
233
233
234
233
238
243
245
250
254
261
268
276
283
292
299
301
311
318
324
328
330
339
344
343
345
348
347
348
346
346
343
340
336
334
332
332
330
331
330
330
327
327
328
330
327
327
324
324
320
320
321
320
323
325
325
325
325
318
321
320
325
325
320
323
324
325
325
326
330
333
334
336
333
334
334
334
334
332
333
333
331
332
332
328
327
327
325
325
321
316
320
320
321
323
320
320
318
316
312
308
307
320
347
386
440
494
546
574
576
548
494
434
388
360
343
327
312
299
286
273
264
257
254
252
254
252
248
247
246
247
247
246
241
238
234
230
230
227
226
228
228
231
231
232
232
233
234
238
241
250
254
259
268
278
285
294
299
307
316
323
330
337
344
348
348
351
348
348
348
350
350
350
346
344
341
339
341
340
339
336
334
334
332
336
333
331
332
331
330
332
332
332
331
325
331
331
330
327
324
326
326
328
332
333
336
334
337
337
340
344
344
343
341
341
340
341
340
344
344
344
344
341
343
341
341
341
339
338
337
332
332
330
330
330
330
325
327
327
325
321
318
330
353
396
450
513
565
593
590
546
485
426
385
361
347
333
317
304
293
283
278
271
272
270
268
268
265
265
260
259
259
257
256
252
250
246
245
240
244
245
245
246
240
243
246
248
253
257
261
268
273
280
287
296
304
316
321
330
338
341
345
351
359
365
367
370
370
367
367
367
366
363
360
360
359
359
354
352
351
352
348
347
348
346
348
343
343
341
344
348
344
341
339
339
339
340
341
344
344
344
344
346
345
346
346
348
347
348
346
346
348
350
352
351
350
353
353
356
358
358
361
363
359
356
350
348
352
346
345
344
341
337
339
338
338
337
339
339
334
330
326
327
344
378
427
485
541
586
608
591
541
479
424
388
367
354
337
325
314
303
293
285
278
276
273
271
270
270
264
264
263
259
259
254
254
252
251
250
250
248
248
248
247
248
248
251
252
257
263
271
277
283
288
297
303
310
317
325
332
337
339
348
353
356
359
363
363
364
363
363
360
358
357
356
353
356
348
351
348
346
352
346
348
345
344
341
339
340
339
341
339
337
336
337
336
337
337
337
337
339
341
339
339
340
341
344
344
344
344
346
345
346
348
350
352
351
352
358
353
354
353
353
357
348
345
344
343
343
340
338
338
334
333
337
336
337
337
339
338
332
326
324
336
358
396
443
498
551
591
606
601
556
494
441
400
378
361
346
332
316
306
297
286
280
271
273
272
268
268
266
265
261
259
257
254
254
252
252
250
250
246
245
245
246
250
250
250
251
252
254
259
261
271
280
287
294
301
307
313
324
330
339
344
350
352
356
363
360
360
360
361
365
360
358
356
356
354
351
352
351
348
351
347
348
346
348
346
345
343
341
341
343
341
341
338
338
339
339
339
340
341
344
343
344
344
344
343
345
348
346
347
348
352
356
354
356
354
356
358
356
354
356
354
356
356
356
351
346
343
344
341
340
340
341
339
337
336
337
337
337
333
332
330
325
321
332
351
385
432
492
550
584
594
572
520
461
408
377
360
346
330
320
310
297
285
278
274
270
267
266
266
263
261
259
257
254
252
252
252
251
250
250
245
243
243
240
240
243
243
246
250
251
256
260
264
268
274
280
292
300
311
318
324
332
337
341
346
353
356
360
363
363
360
358
354
352
348
348
348
350
348
348
348
346
345
344
343
341
343
341
339
337
334
332
333
336
334
336
334
330
333
334
336
334
328
334
334
339
338
341
339
340
340
344
344
346
348
351
350
348
346
348
348
350
348
351
348
346
346
344
343
340
338
339
339
336
334
332
334
336
336
337
334
332
327
320
316
330
353
391
441
497
547
585
592
563
512
454
405
374
358
346
331
318
306
297
287
280
277
273
270
268
264
261
263
260
260
257
257
254
252
252
247
247
243
243
240
240
240
246
248
248
251
250
254
259
264
271
277
287
294
301
308
318
326
332
338
345
350
358
363
366
367
367
370
372
368
366
360
358
358
360
358
356
354
351
350
346
345
345
351
344
344
344
344
346
343
344
343
345
344
340
340
340
341
344
341
340
340
341
341
344
343
344
345
348
348
351
350
353
353
356
356
356
354
356
353
354
352
353
348
346
345
346
344
344
341
334
339
339
337
336
332
336
336
334
332
325
321
325
345
374
423
480
541
585
604
588
541
481
428
388
366
351
336
323
311
299
288
283
277
274
270
268
264
263
260
259
259
253
254
252
248
248
243
245
243
243
243
243
245
243
246
248
253
257
260
265
268
274
279
288
296
301
308
317
325
330
339
344
348
353
356
358
360
363
363
363
360
358
356
360
353
354
352
351
353
348
346
346
343
345
343
346
344
343
340
341
339
337
339
339
340
339
337
337
339
340
339
341
343
345
345
345
344
344
345
346
348
348
348
348
350
352
353
356
356
356
358
354
353
352
354
356
348
346
344
344
341
340
339
337
336
336
336
334
334
336
337
336
330
326
330
351
383
428
486
544
590
611
599
560
499
439
400
374
359
345
330
316
298
292
284
280
276
271
270
268
266
264
264
261
259
257
256
254
254
252
252
252
250
247
246
247
248
250
252
257
259
264
266
271
273
283
288
299
306
313
320
327
333
339
348
351
354
359
361
367
366
367
364
366
366
360
359
358
357
356
353
351
350
350
347
348
348
346
348
346
345
345
344
345
344
344
343
344
340
340
343
344
344
344
344
346
347
346
345
346
347
353
348
351
353
354
358
356
358
356
357
358
358
359
361
361
363
360
358
356
351
350
348
351
350
351
347
346
344
340
341
344
347
348
346
344
336
336
343
367
410
461
516
570
601
610
584
536
478
426
394
374
360
346
331
320
311
303
294
293
287
283
278
278
277
274
274
273
272
270
270
268
266
266
265
259
259
259
258
259
263
261
264
268
270
274
277
283
287
294
299
311
319
326
332
337
347
354
358
366
372
376
376
377
380
381
381
379
377
377
373
377
376
371
370
366
363
363
363
363
363
366
364
365
366
363
359
360
360
363
360
360
363
356
358
360
363
366
361
361
361
363
366
366
366
365
367
370
372
374
374
377
374
374
374
377
378
379
378
377
376
376
372
374
372
370
367
366
366
365
364
363
363
366
368
366
366
364
361
360
350
353
363
387
432
480
538
588
617
614
580
525
470
423
393
379
367
354
341
330
320
311
305
304
301
300
297
297
297
298
293
294
292
290
287
285
284
280
279
280
278
274
278
277
276
277
273
283
288
294
303
308
316
320
326
334
343
353
363
371
379
383
387
391
394
399
400
404
400
399
400
398
400
399
398
398
394
390
387
384
385
385
384
386
381
385
381
381
386
381
383
381
379
378
374
374
377
378
378
379
377
374
374
376
377
379
383
384
385
385
384
386
388
393
393
393
394
391
386
388
388
391
393
391
391
388
384
379
379
381
386
380
379
377
376
377
376
374
373
374
376
372
366
361
363
376
406
452
507
564
610
632
623
579
524
470
432
407
394
380
366
354
341
327
318
312
308
308
305
307
304
301
292
292
290
290
291
285
284
283
281
279
276
278
277
277
276
274
278
280
283
287
291
294
299
306
311
320
330
337
344
353
358
366
371
374
381
387
391
394
396
396
394
394
394
391
388
386
386
387
383
378
374
376
377
377
377
377
376
372
372
372
370
371
370
367
367
365
365
366
367
368
367
367
365
366
367
370
370
370
371
372
372
373
373
376
376
374
376
376
374
379
378
379
379
381
385
378
378
377
374
374
371
370
365
367
365
361
359
360
360
359
359
360
358
359
354
352
348
356
378
412
461
519
576
619
632
614
564
511
460
423
399
386
364
348
332
318
306
301
298
297
294
292
290
287
286
283
279
280
280
278
274
276
271
270
267
268
266
267
266
268
267
271
273
278
279
285
290
297
303
308
318
327
332
337
346
353
358
365
376
376
379
381
384
384
385
383
381
381
381
378
374
372
370
367
367
368
368
370
367
367
366
363
365
363
361
361
361
359
359
359
359
360
359
358
357
358
358
360
363
365
370
365
366
363
361
367
365
367
370
370
370
370
370
370
372
377
374
374
372
372
372
373
374
372
370
367
365
365
363
363
361
363
360
360
359
358
358
360
357
356
350
348
359
377
416
470
525
579
616
626
600
546
483
434
406
391
376
359
345
333
321
311
305
301
300
296
290
290
286
285
286
285
286
285
279
277
273
271
271
271
272
271
271
271
272
271
273
274
276
277
284
292
300
306
311
321
326
334
339
346
353
358
363
370
376
376
379
381
386
386
390
386
385
383
381
379
379
377
377
377
376
372
370
370
368
372
372
370
370
367
367
370
366
367
367
367
370
366
365
363
365
367
367
370
367
370
370
372
372
374
374
374
376
374
373
374
376
378
379
379
381
377
379
379
381
383
383
384
378
377
374
372
372
376
370
370
367
367
368
366
363
363
361
360
357
354
352
360
381
416
470
532
584
617
613
577
521
464
420
396
379
363
352
344
331
320
316
311
310
305
303
299
297
293
291
292
290
286
284
280
274
276
276
279
276
272
273
278
278
279
279
280
283
280
283
285
291
296
304
316
328
336
341
346
351
358
366
370
377
381
386
391
394
396
399
398
397
393
392
391
388
388
391
387
386
384
381
381
376
377
378
377
376
372
371
372
376
374
374
376
372
371
370
370
370
367
370
370
376
377
376
377
376
377
377
379
377
376
377
377
380
384
384
384
387
381
383
386
386
391
387
386
385
381
378
376
376
376
374
372
368
365
365
367
366
367
367
367
366
361
356
356
367
397
440
497
550
596
616
612
573
508
457
417
396
379
363
346
334
327
318
306
304
299
297
293
288
290
288
287
284
280
279
279
277
274
271
270
266
265
264
264
266
265
266
266
268
271
273
280
285
292
298
306
311
317
325
333
339
348
354
360
364
376
374
378
381
383
386
381
379
377
374
376
372
370
367
367
366
360
361
361
361
360
358
356
353
353
353
353
353
353
352
351
348
350
348
351
351
352
352
350
350
350
352
358
354
356
354
356
358
356
354
358
359
360
358
359
359
359
361
361
361
360
358
356
352
351
348
351
348
345
343
341
339
340
339
340
339
340
340
339
333
328
330
341
370
412
463
520
572
604
612
584
532
471
420
391
367
350
333
320
306
294
283
276
273
271
270
270
266
265
261
259
254
254
252
252
252
248
246
246
243
240
243
243
245
245
245
248
246
250
256
261
265
276
280
286
293
297
307
316
324
330
333
339
344
348
353
358
356
356
353
351
348
348
347
348
348
346
345
344
339
339
340
341
336
337
334
337
334
332
334
332
332
333
333
330
330
327
327
326
330
330
331
332
330
332
333
334
336
336
337
332
334
336
337
340
341
344
343
341
340
340
343
344
344
345
343
339
339
337
336
334
332
331
330
327
326
327
327
330
328
323
326
325
324
318
311
318
338
366
412
466
523
570
594
585
541
479
424
385
361
346
330
318
304
288
274
266
264
264
261
259
257
252
251
250
252
252
251
248
245
240
237
233
236
236
237
234
233
236
238
243
245
247
248
252
257
261
265
273
283
290
298
306
308
316
324
332
340
346
351
353
353
354
354
356
351
354
350
348
347
345
344
345
345
345
344
344
339
339
333
339
338
334
334
330
332
332
334
334
334
334
336
337
334
334
332
332
334
337
336
336
337
339
339
341
341
344
344
344
343
343
343
344
348
350
354
356
353
353
348
350
353
346
345
344
341
336
337
334
334
334
337
339
338
337
336
332
334
332
328
327
338
361
401
457
513
565
591
593
558
501
436
390
363
348
336
325
312
299
290
287
285
283
274
273
268
266
264
259
261
259
258
256
254
254
254
252
250
248
246
247
248
248
250
252
251
254
257
261
267
273
279
285
294
303
308
318
325
331
337
346
351
358
360
363
366
366
368
367
367
370
364
363
361
360
363
358
358
356
354
353
351
350
348
350
352
350
348
346
345
344
345
346
344
345
343
341
340
343
345
346
348
346
345
348
346
346
348
346
348
348
352
358
356
356
354
356
360
356
356
354
358
359
357
358
356
354
353
348
346
344
344
344
341
340
339
339
339
339
339
339
338
336
327
328
344
370
408
464
523
576
603
605
573
516
457
412
379
363
351
332
319
307
294
285
279
276
273
271
268
268
266
264
263
260
258
257
252
252
252
250
248
247
245
246
244
245
250
252
253
256
258
261
266
273
279
286
292
299
306
313
319
332
339
344
350
358
358
359
361
363
363
365
363
360
358
358
357
356
353
354
352
348
346
345
346
345
345
346
344
341
340
339
339
337
337
339
339
340
339
341
339
340
336
344
341
339
340
339
343
344
344
346
345
343
343
346
348
352
352
353
353
354
353
353
353
354
352
351
350
348
346
344
341
341
340
339
339
339
337
337
338
337
339
337
334
327
325
326
341
377
417
474
532
581
610
600
558
498
440
401
376
360
341
327
316
304
292
283
278
276
273
273
270
268
265
263
258
257
254
254
256
254
251
248
250
247
248
247
247
248
248
250
254
259
261
268
268
278
283
290
297
307
318
330
334
341
346
348
353
358
361
366
367
365
364
366
366
365
364
361
360
358
356
356
353
354
352
351
352
350
348
346
350
356
348
351
348
348
348
346
345
346
347
351
350
347
345
346
350
351
353
353
354
354
354
356
356
358
358
360
360
361
363
363
367
367
367
367
366
366
366
365
363
360
358
358
356
353
352
351
357
351
352
351
353
356
352
350
345
340
346
364
396
441
498
554
601
613
596
547
485
431
397
377
366
352
339
327
319
307
299
297
294
292
287
280
277
277
276
278
278
274
268
271
270
271
268
264
264
264
261
263
263
265
267
271
277
280
284
290
296
304
313
325
333
339
345
350
358
365
370
374
378
380
384
386
390
390
391
388
386
384
381
381
385
378
377
377
376
378
372
372
372
373
376
372
370
367
365
361
363
366
368
370
370
367
365
367
370
370
373
374
372
368
367
370
372
372
373
372
376
377
378
379
380
385
384
385
385
380
378
381
378
379
379
377
377
372
370
367
366
366
365
367
365
365
366
365
366
363
354
348
358
378
414
464
519
571
612
624
598
544
481
428
401
386
374
363
348
336
323
311
305
299
300
298
297
294
288
292
290
287
285
285
283
280
278
278
276
274
273
273
272
273
271
274
277
279
283
285
287
292
299
311
319
323
333
339
345
354
361
370
376
379
386
387
390
392
393
398
400
394
391
386
385
386
380
381
379
381
381
379
379
377
374
376
376
374
373
374
372
372
373
372
370
370
368
367
367
367
367
370
371
372
373
372
376
374
374
377
376
376
378
377
379
378
381
384
381
383
383
381
380
380
381
381
379
378
374
372
372
372
372
370
366
363
361
363
365
366
365
365
361
358
353
351
359
381
421
473
532
586
626
628
603
545
485
438
410
393
376
358
344
332
320
313
306
301
298
296
293
290
288
287
285
283
280
276
274
274
273
273
272
270
268
268
264
265
266
268
268
271
273
278
281
285
292
299
306
311
316
320
334
345
348
358
363
363
367
370
376
377
379
379
379
379
379
377
376
372
373
372
370
367
364
363
361
360
360
360
360
356
354
352
353
354
352
351
350
350
348
348
350
352
348
351
350
350
353
350
350
351
353
356
357
356
353
353
356
356
358
358
358
358
358
360
358
359
358
360
359
356
352
348
348
346
345
345
341
339
336
337
339
338
340
341
340
337
330
327
323
344
374
419
474
530
579
612
620
590
530
464
413
385
363
345
328
314
303
292
284
276
271
271
267
266
264
261
257
257
256
254
253
251
250
247
244
243
240
240
239
240
237
238
240
240
245
247
257
264
268
274
280
287
294
304
311
316
321
327
334
339
343
351
352
353
353
353
352
348
346
346
346
346
345
344
343
340
340
341
339
337
336
334
330
333
333
332
331
326
327
327
328
326
325
327
328
330
330
327
328
327
330
332
334
332
330
333
331
334
334
337
340
341
341
341
341
339
340
344
340
340
339
339
336
333
330
332
330
328
325
318
320
320
324
325
324
324
321
320
313
311
317
339
376
430
492
551
593
608
586
530
466
414
380
361
343
327
312
299
288
276
266
264
260
260
257
254
253
250
245
243
243
237
238
238
236
233
228
231
231
231
232
233
233
236
236
240
244
247
252
257
261
268
274
280
288
294
303
308
316
321
326
334
339
343
346
346
344
344
344
341
340
337
337
334
338
337
334
336
331
334
333
332
328
327
326
327
325
325
326
327
325
325
324
325
325
326
326
325
325
326
326
327
328
331
333
330
332
332
330
332
338
341
341
341
338
337
337
339
339
340
337
341
337
334
333
330
331
330
327
327
324
325
326
327
328
327
327
327
320
317
310
313
327
352
391
437
493
546
580
583
545
485
424
385
361
346
330
318
306
293
284
274
263
264
264
264
263
257
257
254
251
251
251
252
248
245
241
238
239
240
241
243
245
243
243
243
244
246
250
254
263
265
273
280
288
297
303
312
320
327
333
339
341
348
357
360
363
365
367
370
363
361
358
358
358
356
353
350
347
350
348
351
348
348
346
348
348
346
346
344
345
344
343
344
344
345
344
344
343
343
344
344
347
350
348
351
353
352
352
351
356
363
361
364
363
361
366
363
361
363
366
366
360
356
353
351
353
354
353
352
348
346
343
345
346
350
350
351
346
340
334
341
359
391
434
487
539
581
599
592
546
483
428
396
372
359
345
334
323
316
306
297
291
285
283
283
284
283
279
280
278
278
276
276
272
271
270
268
264
261
259
260
261
261
265
265
268
271
278
283
292
299
307
316
320
326
333
346
352
363
373
372
377
377
381
385
386
388
386
386
385
383
379
379
376
374
370
367
367
367
368
370
370
367
365
363
365
365
367
365
363
363
359
358
358
358
363
365
366
366
363
361
367
363
365
366
367
372
370
372
372
376
374
377
377
376
378
377
377
377
377
377
373
370
367
365
366
365
364
363
361
361
359
363
363
364
363
360
354
348
353
374
413
468
534
587
624
636
613
565
503
451
414
394
379
363
348
333
325
313
306
304
301
297
296
292
291
290
287
285
283
280
278
278
278
276
271
276
273
271
270
271
273
273
278
279
284
286
290
297
305
308
321
330
337
343
352
358
365
370
377
379
381
386
388
392
394
394
392
393
388
386
384
385
385
384
380
378
377
374
374
372
374
376
373
376
372
372
368
370
368
367
366
371
367
367
365
367
371
370
370
370
370
371
372
376
372
376
377
377
378
379
379
381
381
383
381
381
379
378
379
379
379
376
374
372
368
367
365
367
366
364
363
363
363
367
363
364
359
356
353
353
367
397
439
494
552
603
632
638
608
557
498
447
417
396
379
365
348
334
325
316
310
303
299
299
294
292
293
292
291
287
285
280
278
279
278
278
277
274
273
271
266
268
271
273
273
273
280
285
290
299
307
318
324
332
337
346
352
356
363
367
372
377
381
385
386
386
390
388
388
388
387
388
385
384
385
381
381
378
374
376
371
372
378
376
374
372
368
370
367
367
365
367
367
366
364
366
367
372
372
371
370
371
370
368
370
370
373
372
372
372
372
376
377
381
385
386
385
381
381
381
380
381
379
379
378
374
372
370
367
371
370
367
366
365
365
363
361
360
363
363
354
350
354
374
413
460
516
570
611
627
608
563
498
438
397
379
366
353
341
332
323
317
308
306
301
294
290
287
288
286
286
280
283
280
279
278
273
273
270
266
265
264
265
266
267
268
270
271
273
278
284
294
301
307
313
320
326
334
344
352
358
363
367
374
377
381
383
387
388
387
384
381
380
384
377
377
376
370
370
365
366
364
365
366
363
360
359
358
356
356
352
351
352
353
353
354
353
353
353
356
353
354
353
351
354
356
356
358
356
358
356
356
358
356
360
363
361
359
357
360
363
359
361
361
360
358
350
348
344
344
340
339
338
337
337
339
341
340
338
339
334
325
324
332
358
397
450
508
564
598
599
565
499
438
388
363
348
336
320
308
297
287
273
271
268
265
261
259
259
257
256
254
250
247
245
243
244
241
239
238
236
234
236
233
236
237
240
243
245
247
251
257
264
271
280
285
290
296
301
313
321
327
336
339
348
346
352
353
354
356
351
348
346
345
345
344
341
339
337
337
334
336
334
332
332
331
327
327
325
325
325
325
324
321
321
321
317
318
318
320
320
320
320
323
325
326
326
326
325
326
325
320
325
326
327
330
326
330
328
330
330
330
333
332
332
330
326
325
323
321
320
320
319
317
316
313
316
316
316
316
316
313
306
301
300
308
333
370
424
485
541
584
601
583
532
466
408
367
350
330
316
299
284
271
259
254
251
248
246
245
241
238
236
233
231
231
228
226
224
224
223
221
221
220
219
218
218
219
221
224
231
233
239
243
250
256
263
271
283
290
294
304
310
316
321
327
334
340
341
344
345
341
339
337
336
337
334
334
333
332
330
327
327
327
328
326
324
323
321
321
325
324
323
323
319
318
318
320
321
323
321
320
313
318
320
321
325
323
326
327
326
327
325
327
333
332
334
334
334
337
339
340
339
337
337
338
337
339
339
337
334
332
331
327
325
321
321
325
325
325
325
323
324
320
313
313
313
327
356
403
453
516
566
592
585
541
476
413
372
353
339
324
308
294
286
278
270
266
264
261
259
257
256
254
252
252
246
247
245
245
244
243
240
238
240
240
241
238
236
238
241
243
253
257
259
264
268
278
288
298
306
312
320
327
337
346
354
360
363
363
365
364
364
365
365
364
358
354
353
351
354
356
356
356
351
350
345
346
346
346
345
344
343
337
339
339
337
343
348
343
343
340
343
344
343
345
345
347
351
350
352
351
351
353
356
360
358
356
356
358
360
361
363
363
361
360
360
360
357
356
353
352
350
348
350
356
350
351
348
346
348
346
346
344
339
334
340
361
394
443
504
563
605
614
579
516
451
404
377
364
350
336
321
308
300
294
290
286
287
283
279
276
276
274
273
274
272
268
264
261
260
259
258
259
259
256
253
252
257
259
265
271
273
277
280
287
298
307
318
327
332
339
346
356
363
370
376
379
381
383
383
384
381
385
380
377
376
372
371
373
372
372
368
365
367
363
363
363
363
364
360
360
359
358
358
360
359
360
358
358
358
358
358
360
359
360
363
363
363
363
364
367
367
367
366
368
367
370
372
376
377
374
374
374
372
372
377
372
370
365
363
367
359
359
359
361
363
359
358
358
356
357
356
351
345
346
357
385
433
492
553
606
636
633
598
543
479
428
400
380
367
348
334
323
311
303
298
297
293
290
288
285
283
278
278
278
276
273
270
271
272
270
267
266
264
261
261
264
265
268
270
271
273
280
285
294
301
308
314
323
330
337
343
350
360
366
372
377
379
380
384
386
386
385
381
385
376
376
372
374
377
373
372
370
367
367
364
366
363
363
363
363
360
358
358
358
358
358
358
358
356
356
356
358
357
358
358
358
356
356
356
360
360
361
363
363
363
368
367
367
367
370
372
367
367
370
372
372
367
365
361
360
358
358
356
354
353
351
348
348
348
352
353
352
352
344
341
351
371
410
464
525
583
618
626
605
556
499
448
413
391
374
354
339
320
313
305
299
294
287
286
285
283
280
278
276
274
271
267
266
266
264
261
261
259
259
259
259
259
261
261
264
265
268
273
279
287
292
298
306
311
318
326
337
341
350
363
363
366
368
372
379
376
374
374
374
371
370
367
367
367
365
363
360
358
358
356
356
357
354
352
351
350
351
351
351
350
348
348
346
346
346
346
348
350
351
348
351
352
352
353
353
354
359
354
358
358
363
367
363
363
360
361
364
363
363
364
363
359
356
353
351
353
351
348
346
344
343
343
344
344
344
344
344
341
337
336
339
351
381
427
485
545
588
610
596
551
491
436
398
378
360
344
327
313
299
290
285
281
278
277
276
274
273
268
268
264
261
261
261
260
257
254
252
247
248
248
252
253
254
252
252
256
260
266
273
280
285
293
301
313
320
325
334
341
345
352
363
366
370
373
376
373
372
368
366
363
363
364
366
361
361
359
360
359
358
357
356
353
350
348
347
346
346
344
341
341
341
344
346
346
348
348
351
353
348
346
346
348
354
352
356
353
354
353
356
358
359
359
360
360
361
361
363
360
360
360
358
356
354
352
351
351
350
346
344
343
344
344
344
344
345
343
341
334
332
346
367
410
463
518
573
603
603
565
508
448
404
377
360
346
332
318
306
294
288
287
286
284
280
278
276
272
268
264
261
260
260
259
261
260
259
257
256
254
252
251
250
256
254
260
266
270
271
278
285
292
298
307
320
330
340
346
353
357
361
367
376
378
381
381
379
377
374
372
372
370
368
366
367
366
363
358
358
358
357
356
356
353
351
348
348
348
350
352
356
352
350
348
351
353
348
348
348
351
354
353
356
353
352
353
356
358
359
359
360
360
360
359
360
360
363
364
366
363
358
354
351
352
353
352
351
350
346
345
345
344
350
345
346
343
337
327
333
345
372
417
473
536
586
613
607
565
504
443
398
373
358
341
330
313
301
290
285
281
279
278
276
273
265
266
266
264
263
261
259
256
252
250
250
247
248
250
250
248
250
251
252
254
257
264
270
273
280
287
294
301
312
321
330
339
346
348
356
359
363
366
368
367
366
364
364
361
360
356
356
353
350
348
348
348
348
346
346
343
341
346
341
340
340
341
334
336
336
336
337
339
337
339
337
337
337
339
339
339
341
341
341
340
341
344
346
348
348
346
346
347
348
348
352
350
348
346
345
341
339
337
337
332
332
330
332
330
327
333
332
332
330
326
326
320
318
326
356
394
445
504
559
599
607
576
518
452
400
372
356
338
324
311
297
283
276
268
266
264
261
258
257
253
252
251
250
247
247
245
238
238
237
236
233
232
234
236
236
236
236
240
243
247
252
257
264
272
278
286
297
304
311
317
323
330
334
340
346
348
350
350
351
348
348
345
346
347
345
344
341
340
336
339
339
339
340
334
336
330
330
330
332
331
331
330
327
328
331
333
332
333
332
330
331
328
331
333
332
334
333
334
337
336
337
339
344
346
346
346
346
346
345
345
350
346
346
346
348
350
343
340
339
339
337
336
334
334
333
331
332
332
332
330
330
330
325
320
323
343
379
431
494
551
593
604
579
527
463
405
372
356
344
330
323
310
298
284
276
272
270
265
268
265
264
260
258
259
258
256
254
252
250
250
250
248
250
245
243
238
238
240
243
248
254
260
264
270
274
284
294
303
311
317
325
330
337
343
351
357
364
367
370
372
370
372
372
372
376
367
365
359
356
356
356
358
356
356
356
350
350
352
353
351
351
348
348
348
346
346
350
346
344
341
344
347
350
351
351
353
354
353
354
351
354
353
351
352
356
359
367
367
368
367
370
372
366
365
363
359
356
358
360
360
359
354
351
352
353
353
351
352
350
348
348
344
340
339
351
376
411
463
525
583
618
626
596
532
472
419
384
367
358
341
327
316
300
288
290
288
288
286
280
278
276
273
273
273
271
268
266
258
257
254
252
254
257
259
257
256
257
257
259
263
266
268
278
290
299
308
318
327
336
343
353
356
360
365
372
380
381
384
386
386
384
381
381
379
378
378
374
370
367
368
370
370
370
365
364
359
358
358
359
360
358
358
358
358
356
353
356
354
353
353
351
358
360
361
363
363
363
365
361
363
363
365
370
367
367
364
367
370
370
367
367
366
367
368
367
366
364
361
361
359
356
354
351
353
352
352
351
350
351
348
344
340
339
353
379
419
476
533
586
621
621
587
528
467
419
388
372
356
340
326
313
303
294
290
290
287
285
283
280
278
273
271
271
268
266
263
261
260
259
258
257
257
257
256
257
257
259
260
264
267
271
274
280
287
294
303
311
324
332
340
346
353
359
364
370
372
376
377
377
376
374
376
376
372
370
367
365
365
363
363
363
361
360
358
354
353
352
353
351
352
352
350
350
348
350
350
350
348
354
348
351
348
351
354
351
352
350
352
351
351
356
358
363
363
363
363
364
366
363
365
365
366
366
363
360
358
356
353
351
347
348
345
346
345
346
346
346
346
345
344
337
334
337
348
381
432
485
544
598
630
631
591
532
471
424
393
377
359
340
326
313
300
290
283
283
281
279
277
276
273
271
266
261
264
261
260
257
257
254
254
254
254
257
254
256
257
259
260
266
271
271
278
283
291
299
308
318
328
336
341
344
352
356
360
366
370
372
373
374
372
370
367
367
366
364
364
361
359
360
359
360
358
352
348
348
348
348
348
351
356
347
346
344
344
350
345
344
341
343
344
344
346
346
347
351
348
350
350
351
352
354
354
356
357
356
354
358
360
363
363
363
363
361
363
363
360
358
352
350
345
344
346
344
343
340
344
351
346
346
344
339
336
339
353
379
423
474
531
586
621
614
566
498
433
392
372
358
344
332
320
306
294
286
279
284
283
279
277
273
268
265
264
261
264
264
260
257
254
250
252
252
250
251
246
247
247
248
251
257
264
270
274
280
287
294
299
311
319
327
334
341
348
356
361
367
372
372
371
367
367
367
367
367
363
361
363
363
363
359
358
363
358
356
353
351
356
351
348
346
344
344
346
348
348
352
351
348
344
339
340
344
348
352
353
356
356
356
353
353
354
353
356
358
356
358
358
360
363
365
365
365
366
368
364
360
353
353
356
351
353
352
348
351
348
350
348
346
345
344
343
337
334
344
368
412
470
532
586
617
612
567
504
441
400
379
366
348
334
320
307
293
284
280
279
278
278
276
272
271
265
266
261
261
259
253
254
254
253
253
251
250
247
246
246
247
250
254
256
260
263
268
273
280
288
296
303
311
319
325
333
341
346
351
356
360
361
363
364
363
363
363
364
357
353
350
348
351
344
344
339
339
334
334
334
337
336
336
334
332
330
328
327
327
328
330
326
325
324
324
325
327
328
327
326
330
330
327
327
327
327
330
331
331
328
331
331
337
338
334
336
337
336
336
333
332
330
327
326
324
321
320
317
316
317
317
313
313
312
313
316
313
305
304
316
344
391
450
518
579
613
607
570
506
447
400
370
351
331
317
301
283
272
259
251
248
244
243
239
238
234
233
233
233
231
228
223
221
219
219
220
219
216
217
214
214
216
217
219
221
226
227
233
238
239
246
254
264
271
278
280
290
297
299
307
313
319
320
318
323
324
325
324
325
325
321
318
316
313
313
312
313
312
312
311
308
306
306
305
306
304
301
298
299
300
298
303
304
303
301
299
299
299
299
299
301
300
301
299
299
297
301
301
301
301
301
304
306
310
307
308
311
311
311
308
304
303
303
301
301
297
294
292
290
293
290
288
292
292
290
290
290
288
287
287
286
284
293
316
356
410
472
533
567
567
528
465
405
358
331
316
298
284
273
260
250
240
233
228
224
221
219
221
217
216
212
212
216
212
211
207
203
203
201
201
196
190
188
190
193
196
199
203
205
206
213
220
226
231
233
246
254
263
271
278
290
297
304
308
313
318
318
316
318
319
321
320
318
313
312
312
313
313
313
312
308
303
303
303
303
301
303
299
299
299
303
301
299
298
297
294
290
296
298
296
292
290
294
297
301
304
305
307
308
310
308
307
308
308
311
314
318
316
313
313
317
320
321
320
321
320
313
307
308
308
308
311
308
311
306
306
306
305
301
307
306
301
298
292
304
328
365
416
474
530
572
593
586
536
468
404
361
337
321
306
294
283
273
266
260
254
254
250
247
244
240
241
243
240
239
240
238
236
233
233
231
230
228
227
226
226
228
230
231
234
236
238
243
246
254
264
273
281
287
296
304
314
320
327
332
338
339
341
346
348
347
348
350
348
346
340
341
340
341
341
339
339
336
332
330
331
330
326
327
328
325
325
321
325
325
326
326
325
321
320
323
321
323
325
325
327
327
328
330
332
330
327
327
328
330
334
337
336
334
340
346
345
345
344
344
343
344
344
344
336
339
337
337
337
332
334
332
332
332
330
332
333
334
331
325
326
336
360
403
452
508
564
614
630
604
546
483
433
404
383
363
344
327
314
304
293
287
280
278
274
271
268
266
264
264
261
257
257
254
251
252
247
250
250
250
248
246
246
247
247
250
254
257
259
264
268
273
280
286
293
304
311
316
321
330
338
345
348
357
358
359
359
361
361
363
363
361
361
363
359
358
356
356
358
351
351
350
352
354
352
351
348
348
348
343
344
344
344
346
345
346
345
345
344
344
345
346
348
348
352
352
353
356
356
358
359
358
360
360
364
373
368
370
367
370
370
367
366
366
363
363
358
356
354
354
353
351
350
347
346
346
346
344
344
346
348
348
343
344
356
381
426
480
536
585
614
613
576
525
468
424
396
378
361
346
332
323
307
304
297
293
288
285
286
283
279
280
276
274
273
271
268
266
265
266
265
261
260
258
260
265
266
268
270
271
273
278
283
286
292
299
306
313
321
330
337
344
348
358
365
367
372
374
379
386
384
385
379
377
377
376
376
374
374
377
373
371
370
367
367
367
368
366
366
364
363
364
363
361
361
363
360
358
358
358
359
361
361
361
363
365
367
366
367
368
371
376
370
372
373
374
379
379
380
378
379
379
378
379
378
378
373
372
367
367
364
366
366
363
361
363
359
359
360
363
360
354
350
351
360
388
436
491
546
599
632
638
611
557
491
441
410
392
380
363
348
333
321
312
306
305
304
299
293
290
287
287
286
284
280
280
278
280
280
280
281
279
274
276
272
274
273
278
280
280
285
287
292
299
305
308
320
327
334
341
356
360
370
374
383
388
391
391
391
393
397
396
397
396
397
396
393
393
391
387
386
386
384
381
378
378
378
379
377
374
372
373
372
376
374
376
379
379
372
370
370
372
379
377
379
378
377
379
376
374
376
379
385
388
393
391
392
393
391
391
390
388
386
388
387
386
385
386
381
377
373
372
370
372
371
371
370
370
371
372
370
368
366
363
370
385
419
471
534
596
628
631
599
544
483
437
407
391
378
365
350
337
325
318
311
310
312
308
311
308
304
299
297
294
292
294
292
287
284
285
284
281
281
280
280
279
274
280
281
283
287
290
298
304
308
317
325
333
340
351
358
363
367
374
381
388
396
400
404
401
400
399
398
399
397
396
391
388
386
386
385
381
384
379
377
374
373
376
376
376
373
370
367
372
367
367
365
366
367
366
367
367
370
372
372
371
373
372
370
371
373
377
379
379
381
381
379
381
381
384
383
381
380
379
377
374
374
374
372
372
372
370
366
361
363
367
366
366
364
361
361
353
350
356
370
401
445
501
560
610
636
619
576
512
454
412
391
374
360
348
338
325
316
306
301
299
297
293
292
291
287
285
281
278
278
276
273
270
268
266
266
264
260
265
264
261
260
261
266
270
278
283
287
293
299
306
312
320
327
339
346
353
358
366
368
372
378
380
385
386
384
384
379
378
377
374
372
370
367
366
363
363
363
363
367
361
358
358
358
360
356
358
356
356
354
351
353
351
353
353
353
353
352
353
354
356
358
358
359
360
361
361
366
366
365
367
366
366
364
363
363
366
364
363
359
356
358
351
352
350
348
351
346
346
345
350
348
347
346
341
336
330
337
363
400
454
516
574
610
614
579
523
461
411
381
367
352
337
324
311
300
292
285
283
279
276
273
271
272
266
265
264
259
254
256
257
256
252
251
252
250
246
246
245
247
250
252
254
257
261
265
271
278
286
293
301
311
320
327
334
340
346
352
358
360
363
366
367
366
365
361
360
357
356
358
363
356
354
350
350
352
348
346
346
348
346
341
339
339
339
340
340
340
337
336
334
332
334
336
337
339
340
341
339
339
344
344
346
347
348
348
351
347
350
348
351
351
354
347
348
347
348
352
346
343
339
336
332
334
334
333
332
331
331
330
331
331
330
325
318
320
332
359
407
464
525
574
604
598
553
494
436
391
370
353
337
321
308
294
286
276
273
271
267
263
261
258
257
253
251
254
253
248
247
243
240
238
238
240
238
236
236
233
233
236
238
241
245
250
252
256
261
270
279
288
297
305
313
320
327
334
343
346
352
352
354
358
356
357
354
353
356
348
346
344
346
346
345
343
344
341
337
337
337
338
337
337
334
334
332
330
332
332
330
331
332
330
330
330
337
339
337
338
341
340
339
338
344
348
346
346
346
348
353
348
351
350
351
352
351
348
344
344
341
340
337
334
332
334
336
334
332
334
333
331
330
330
330
325
324
324
340
368
413
470
525
573
598
584
537
472
417
381
361
347
330
320
308
297
285
274
276
274
273
272
266
264
261
260
257
256
252
250
248
246
247
246
248
250
247
244
239
239
241
245
250
256
261
265
270
274
283
291
299
307
318
324
328
337
346
352
359
367
366
363
363
363
365
365
366
364
363
363
363
361
360
358
354
353
353
352
351
348
351
348
350
348
346
346
344
344
344
343
345
345
344
346
346
346
350
348
351
352
351
356
353
354
354
358
363
360
360
359
359
360
363
363
363
363
361
360
356
353
351
353
353
353
351
348
346
348
348
348
348
346
346
344
340
334
331
339
360
396
447
507
559
599
611
591
545
485
432
391
367
352
339
324
316
303
297
291
287
284
284
283
280
278
276
273
271
267
268
266
265
261
259
257
252
252
252
252
252
254
257
258
260
263
268
272
279
285
290
297
301
317
324
330
337
343
350
357
360
367
372
374
376
381
385
385
380
379
376
377
376
373
372
368
368
365
366
366
364
364
360
359
359
357
358
358
356
358
356
356
354
356
360
356
356
356
356
359
356
354
358
360
363
363
363
360
361
365
370
372
372
372
370
370
372
373
372
372
372
370
366
361
356
358
360
360
358
354
356
354
354
354
356
354
358
352
348
343
351
378
421
483
545
594
625
617
579
518
459
410
384
367
353
341
332
320
308
300
294
292
287
285
284
283
283
280
279
273
271
272
268
270
267
264
261
259
254
254
257
257
259
256
260
264
266
272
276
280
290
298
306
311
320
330
339
348
356
361
365
370
372
376
379
381
385
385
385
381
379
374
373
367
367
367
366
367
365
363
364
363
363
363
361
364
356
357
353
356
361
358
354
352
351
351
353
356
358
358
356
356
358
358
358
359
363
363
360
360
360
361
365
367
370
370
370
367
366
367
368
366
366
365
366
360
358
360
356
353
351
353
356
352
351
351
351
348
344
340
348
373
419
476
538
593
626
630
594
533
470
419
391
377
361
350
332
321
311
300
294
292
290
287
285
279
276
273
271
270
268
268
266
264
256
257
257
256
254
253
252
252
256
254
257
258
261
264
270
274
280
286
294
303
313
319
326
333
341
348
358
363
367
370
370
372
376
376
376
372
372
371
367
364
363
360
363
358
358
357
356
359
356
357
353
352
351
350
348
346
348
347
346
346
346
347
346
346
348
348
348
346
348
347
350
352
351
356
356
358
356
358
358
358
363
363
363
363
366
359
357
356
356
358
352
348
348
347
345
341
344
343
344
344
341
341
340
340
339
332
327
330
346
377
421
479
538
586
618
613
567
507
444
399
376
358
344
330
318
304
293
284
280
277
278
271
271
267
266
263
260
259
259
256
254
250
248
246
247
245
247
246
247
246
247
248
252
253
257
260
266
271
278
284
293
301
307
312
318
324
331
337
346
353
358
359
361
367
366
365
366
366
366
359
358
354
354
354
351
353
350
348
346
346
346
345
346
344
343
340
339
339
339
338
339
339
341
341
341
339
337
341
341
344
345
345
346
344
346
352
351
352
352
353
357
354
356
358
360
361
360
354
351
350
350
348
351
346
346
344
341
340
339
338
339
340
339
336
337
337
334
326
325
323
332
354
396
451
510
568
607
606
576
513
450
401
378
363
350
336
321
305
297
287
283
279
276
273
271
268
268
267
266
261
261
259
257
254
254
254
252
248
247
245
246
245
247
245
248
250
254
257
260
265
271
281
290
301
306
316
321
326
332
338
351
358
363
368
371
368
370
370
372
374
373
370
368
367
366
363
361
359
358
358
356
353
353
354
353
353
356
353
352
352
351
351
350
348
348
347
351
345
346
346
348
352
348
350
353
356
359
358
356
358
363
366
365
365
366
366
363
363
361
363
364
363
360
358
360
359
358
354
352
346
346
345
344
344
348
351
351
350
346
341
336
337
346
376
412
466
530
586
621
610
563
498
438
396
372
359
340
330
318
306
296
290
290
291
286
281
280
278
274
271
271
273
271
270
266
264
261
259
257
257
260
257
254
254
254
252
259
263
265
267
271
279
287
294
304
313
324
336
344
350
356
363
370
376
378
378
379
378
377
377
379
377
374
373
372
367
366
363
363
365
363
363
363
360
358
356
357
360
358
356
353
353
358
352
352
348
351
356
351
350
348
350
352
353
354
354
356
357
356
358
360
360
361
363
363
363
366
365
367
368
367
365
363
360
358
357
358
358
359
356
353
350
348
347
353
348
348
346
346
348
341
336
339
352
377
418
473
532
584
620
631
603
546
481
424
391
370
353
339
325
313
299
292
286
285
280
280
273
271
270
268
267
265
264
264
261
256
254
254
251
250
245
251
253
252
252
252
253
256
260
265
268
274
279
285
290
299
307
316
324
332
339
344
348
354
358
360
366
367
367
365
363
364
363
360
356
354
352
351
352
351
348
348
350
345
343
341
341
339
341
344
339
337
333
332
332
334
334
336
336
333
333
332
334
337
339
341
341
340
337
337
336
337
343
344
341
341
340
344
346
346
344
344
341
340
334
337
332
332
330
325
325
325
324
324
325
325
325
325
324
320
317
311
306
313
336
370
419
480
539
587
604
580
521
454
399
367
350
337
320
308
292
280
268
261
259
257
253
253
250
247
244
237
238
236
236
234
233
231
226
226
226
224
225
224
223
224
225
224
224
228
234
240
243
248
254
259
267
276
283
292
299
308
311
320
325
330
333
336
337
339
338
337
333
330
333
332
330
330
324
325
324
323
323
321
321
320
319
318
316
316
317
316
313
313
312
312
311
313
316
313
311
312
311
311
311
316
316
318
318
318
318
318
318
320
321
318
324
323
324
325
324
327
328
327
325
324
324
321
320
320
319
318
316
312
310
306
306
306
307
308
308
308
306
303
297
298
303
318
354
400
454
508
553
581
574
534
472
407
363
338
326
311
294
287
277
266
253
245
241
243
240
240
237
234
231
228
230
232
227
226
221
219
217
214
214
217
214
213
212
214
217
219
221
226
234
237
241
247
253
261
270
280
288
296
298
308
314
321
327
330
337
337
337
337
337
337
337
337
334
330
326
325
325
327
327
327
325
325
321
320
318
318
317
318
317
314
313
311
312
313
316
318
319
318
316
313
314
320
325
324
320
313
316
320
321
326
327
332
331
327
326
327
325
327
330
332
332
332
332
331
333
336
332
330
324
318
316
313
311
316
318
321
321
323
318
313
304
299
303
316
344
388
444
508
553
590
593
565
508
440
386
356
339
325
311
299
290
279
270
261
257
254
254
254
253
250
248
247
246
243
241
240
239
236
231
231
228
231
231
232
231
227
226
228
234
233
240
247
256
261
264
271
277
287
296
304
314
320
327
334
344
350
353
356
358
358
358
358
356
356
353
351
348
346
346
346
345
344
344
344
338
337
336
337
337
337
337
332
334
332
333
332
328
334
336
339
336
333
330
332
338
340
340
341
339
340
340
344
344
345
344
346
348
350
348
348
350
350
353
353
353
352
347
348
347
344
344
343
339
337
337
337
339
339
334
341
339
336
330
323
328
341
368
412
470
526
577
612
614
579
516
454
405
379
363
351
339
325
311
300
287
280
279
278
278
273
273
271
266
265
263
261
263
259
259
254
248
252
252
252
251
247
250
250
252
251
254
258
263
270
273
278
283
288
296
304
312
318
330
337
345
351
356
363
367
371
372
374
372
372
370
370
370
367
366
361
358
358
359
359
359
359
358
358
350
350
348
351
357
350
348
348
346
350
346
348
347
350
346
346
348
346
352
351
357
356
354
356
353
354
353
356
359
361
363
365
363
364
363
363
363
366
365
363
360
363
358
358
357
356
358
351
350
348
348
348
346
346
345
346
346
341
337
332
338
354
387
436
494
556
604
628
610
560
496
437
404
381
368
353
339
325
311
299
291
285
284
280
281
278
274
271
267
268
268
265
264
259
258
257
257
257
256
257
254
252
252
252
254
260
265
268
271
274
280
290
294
305
312
317
326
333
339
344
351
353
359
363
367
370
368
370
367
370
372
367
366
363
361
363
360
360
358
358
354
354
348
352
351
352
352
351
348
346
345
346
347
346
346
346
345
345
344
346
346
350
348
351
350
352
348
351
352
354
353
356
361
359
359
360
361
366
360
360
360
361
363
363
363
361
359
356
350
347
348
348
347
348
346
345
345
344
344
344
344
341
337
331
336
351
383
426
480
538
593
624
620
583
524
464
417
391
372
361
339
325
312
304
294
292
287
286
284
279
278
278
278
276
274
273
268
266
264
261
259
260
257
259
258
257
256
260
261
261
264
266
270
271
278
287
294
301
307
316
320
321
334
344
348
358
365
367
372
376
379
379
379
376
373
372
372
372
372
374
372
367
365
363
363
361
359
361
363
363
361
358
358
353
353
356
356
356
356
356
354
353
356
360
358
358
358
359
360
356
356
358
360
363
363
363
363
366
368
372
372
372
370
367
370
371
372
376
372
372
370
366
361
359
357
358
358
356
352
351
351
351
356
360
360
360
352
346
341
340
354
377
417
473
534
592
618
610
566
505
451
410
386
372
361
346
334
325
311
301
294
290
288
286
286
284
283
283
283
278
278
273
271
268
266
266
265
266
263
264
264
264
257
259
258
260
266
267
277
280
285
290
297
306
314
325
334
341
351
358
363
367
372
377
381
384
385
384
383
380
379
378
379
379
377
374
371
365
366
366
364
365
366
365
367
363
363
358
358
363
358
358
356
356
358
358
359
360
361
363
359
360
359
363
363
366
366
363
363
363
365
367
370
372
370
367
368
372
374
377
377
374
372
372
370
367
367
365
363
361
360
361
356
356
358
359
361
358
356
352
348
346
343
351
370
407
460
517
571
610
623
604
551
485
428
394
373
363
347
337
325
313
301
296
292
290
287
284
281
280
278
276
274
271
272
271
270
266
259
261
259
259
259
258
258
257
257
259
259
264
266
271
276
280
284
292
299
311
319
326
333
339
344
350
360
367
372
377
377
377
376
376
373
372
372
374
367
366
363
360
363
358
358
354
354
356
353
351
348
352
350
348
348
346
346
346
346
348
348
350
346
348
348
348
348
351
353
353
351
351
352
352
354
356
356
356
356
358
358
359
360
363
366
361
361
360
358
363
359
358
351
350
348
346
344
344
344
346
344
345
341
338
338
336
330
330
338
358
394
441
499
560
607
621
592
537
471
419
387
370
353
339
325
312
294
287
281
279
277
271
272
270
267
266
264
265
264
261
259
257
254
252
253
252
250
250
248
248
245
247
250
254
259
261
266
271
276
283
288
296
303
308
316
324
331
337
348
350
356
360
363
367
363
365
361
363
364
361
359
356
353
353
352
352
348
351
345
346
344
344
346
345
344
344
340
339
339
339
339
340
340
341
340
340
338
340
340
340
343
344
344
343
345
351
348
350
348
351
357
351
353
353
356
358
356
356
356
356
356
356
354
351
348
346
344
343
341
341
340
339
337
337
337
337
337
339
337
337
330
330
339
365
410
470
530
584
612
612
576
513
454
407
380
363
348
332
318
306
297
290
284
280
279
276
273
273
270
268
267
264
260
259
256
254
256
254
253
250
251
250
248
250
252
254
254
259
260
264
268
274
280
287
291
303
308
318
325
331
341
346
350
356
359
360
366
367
370
370
368
367
366
366
364
364
363
363
361
359
358
356
353
352
348
350
350
350
350
346
344
344
343
344
340
343
352
352
353
354
356
360
358
358
354
356
357
356
358
358
358
359
359
363
364
366
366
366
367
366
364
361
363
365
365
361
359
356
353
351
354
354
353
351
348
350
352
353
359
354
352
348
344
334
340
353
380
426
485
546
592
611
599
552
493
436
397
372
353
340
331
324
319
311
301
297
291
284
278
274
271
280
290
292
287
280
274
273
273
271
268
264
263
261
259
257
263
264
267
271
267
271
273
280
291
298
306
313
319
327
336
345
348
353
361
367
374
379
383
385
384
384
384
386
384
381
379
379
376
370
365
367
368
367
367
367
367
372
366
367
363
363
365
363
363
360
359
358
357
358
359
363
363
361
359
358
359
363
365
370
372
370
367
368
367
370
372
372
376
374
373
376
377
379
379
379
377
372
368
371
366
366
364
366
367
363
360
359
356
356
356
358
358
354
352
346
352
370
408
461
520
577
617
628
601
550
484
431
396
376
361
348
334
323
316
304
298
293
290
290
288
287
285
285
281
280
273
276
273
271
268
266
265
265
261
261
259
261
261
261
263
264
265
270
273
278
287
294
301
308
314
323
330
339
348
356
360
364
367
370
374
377
380
381
379
378
372
370
372
367
370
366
366
365
358
360
358
356
354
353
351
351
352
351
350
350
348
351
346
344
344
346
348
348
348
348
348
348
348
348
352
351
353
351
352
352
352
353
354
358
363
360
357
354
354
359
357
359
357
356
353
348
345
346
345
344
340
339
338
336
334
337
337
337
337
331
325
321
324
344
376
425
481
539
585
607
591
537
480
426
391
370
352
332
316
304
292
278
273
268
266
265
261
266
264
259
256
252
247
246
245
247
246
246
243
240
237
237
237
238
236
236
237
238
240
246
254
261
266
273
279
285
292
301
311
320
328
332
336
341
345
350
352
356
358
354
350
346
347
346
344
344
343
344
343
339
336
337
336
334
332
330
326
325
328
330
330
331
332
331
326
324
325
326
326
327
328
328
330
330
330
332
330
331
331
330
325
332
336
339
338
337
339
339
337
339
340
340
344
341
341
339
336
333
330
330
327
325
324
323
320
323
320
324
325
326
325
320
314
311
316
336
371
421
483
543
590
598
568
508
445
394
363
346
327
313
301
292
280
271
265
261
259
257
257
256
252
250
247
245
243
243
240
240
238
236
234
231
230
231
234
232
232
233
234
238
240
243
250
256
258
268
274
283
290
297
307
316
321
325
331
337
341
346
350
352
351
351
348
348
346
346
345
344
341
340
337
337
336
336
336
332
327
330
328
330
327
330
328
327
326
326
325
326
326
327
327
321
325
325
328
330
327
332
331
332
331
330
332
334
338
339
340
341
340
339
341
344
344
345
340
341
339
337
334
334
333
332
331
327
325
324
325
327
326
327
328
327
325
316
316
317
327
351
396
443
497
551
587
600
579
528
466
411
377
356
336
320
308
297
285
274
270
266
266
264
260
259
256
256
252
252
253
250
247
245
244
243
241
243
244
241
241
243
244
243
243
252
254
261
265
271
278
284
292
299
306
316
320
327
332
339
344
351
354
360
361
364
366
366
364
365
363
361
358
356
350
350
352
351
352
351
348
348
348
347
348
348
350
345
343
341
344
350
346
348
347
346
346
346
347
346
348
350
350
352
352
356
357
357
358
358
359
359
360
361
367
368
367
367
367
365
364
363
361
360
356
356
353
354
357
351
352
354
353
358
352
350
346
345
339
341
348
372
408
463
524
579
614
621
588
531
470
413
385
365
353
343
327
316
306
298
292
294
293
293
292
290
286
283
281
283
283
280
279
276
273
266
266
264
265
264
261
261
264
265
268
276
280
284
288
297
304
312
318
327
333
340
352
361
367
376
381
386
390
393
393
391
388
386
381
383
379
377
374
376
378
379
378
379
378
386
391
388
388
384
381
381
379
377
372
370
370
370
371
372
372
370
370
368
370
373
372
372
367
363
360
367
381
396
406
407
398
391
385
384
388
396
397
400
396
396
388
387
386
387
391
381
377
371
370
372
368
366
366
372
381
387
381
376
376
386
412
453
508
565
613
640
636
596
536
479
436
412
399
388
372
358
345
332
323
320
317
316
313
313
312
308
301
299
297
294
294
290
293
296
292
290
288
290
291
288
287
286
291
293
298
303
304
311
317
323
328
336
344
356
366
374
381
386
391
396
400
403
404
403
405
406
405
405
405
398
393
397
399
404
398
398
396
393
391
392
388
388
391
390
388
386
386
383
378
377
379
378
378
377
374
377
377
379
379
385
391
398
399
392
391
391
394
397
397
396
397
392
390
391
394
400
404
405
404
399
398
396
394
391
387
386
383
378
374
377
378
383
385
381
379
374
370
366
367
386
417
461
516
573
619
650
645
601
547
490
447
419
400
384
366
356
346
332
326
320
317
316
311
313
307
304
298
294
297
299
296
297
296
297
294
293
290
288
287
286
286
286
291
293
296
299
301
305
308
316
324
336
345
356
365
374
379
385
391
400
404
407
405
404
403
400
398
398
397
400
398
396
392
388
385
383
381
381
385
386
386
386
388
391
391
386
381
378
378
374
376
377
378
379
377
377
377
378
377
374
377
381
386
393
393
396
398
393
393
394
396
396
391
394
396
398
397
396
398
396
398
396
391
385
379
377
377
377
376
377
378
378
379
381
386
386
380
372
366
366
385
414
461
517
576
626
653
647
603
536
471
425
405
393
379
367
353
339
324
317
314
317
314
313
311
306
300
297
296
294
292
293
293
294
292
288
284
283
284
283
286
286
287
290
293
297
299
304
307
311
310
317
325
332
338
350
356
371
385
388
391
391
393
393
393
398
400
403
400
400
397
393
387
385
381
381
384
384
384
381
377
376
372
368
368
365
367
367
368
367
367
367
370
368
370
367
368
372
367
370
370
373
377
374
372
370
367
367
368
376
381
386
386
384
381
379
381
384
388
390
387
384
378
372
371
368
370
367
367
366
361
360
361
366
367
370
372
370
363
360
353
363
391
440
505
563
611
637
638
607
554
496
447
417
394
374
356
341
331
320
308
301
301
299
298
293
287
285
285
280
274
273
273
278
283
279
278
273
273
273
270
270
268
266
264
266
265
273
279
287
292
293
298
306
316
325
330
337
344
350
359
368
381
386
386
385
377
376
374
374
378
378
381
381
377
372
366
363
361
367
379
381
376
367
361
365
366
365
368
363
358
356
357
361
360
360
359
360
360
361
365
366
367
370
370
367
367
366
366
370
370
370
371
372
373
376
378
379
376
373
371
368
370
367
367
370
370
365
360
356
358
356
359
363
363
365
358
356
353
350
347
356
372
404
447
506
565
611
632
617
565
497
438
400
378
365
352
341
331
320
311
301
292
293
291
292
288
285
281
280
280
280
283
280
274
271
267
261
263
264
264
265
264
268
270
268
270
271
274
280
286
287
292
301
312
325
334
341
348
353
357
366
370
376
381
386
386
384
383
381
381
380
378
374
372
367
367
367
367
370
366
361
360
360
363
358
357
358
357
358
358
356
357
360
358
356
356
356
353
351
352
353
353
356
358
361
363
360
361
363
366
365
367
367
366
366
367
367
367
365
367
372
366
361
358
358
360
358
356
351
351
351
350
350
348
346
346
344
339
334
333
346
370
410
458
512
563
599
614
593
539
478
427
393
377
361
344
332
320
308
296
286
280
283
280
280
278
273
267
268
267
266
265
261
259
258
256
254
254
254
252
253
250
252
252
257
263
265
271
276
281
285
290
298
305
313
323
330
337
341
346
351
358
363
367
373
376
376
372
372
372
366
363
358
358
358
354
356
353
353
353
351
346
344
341
344
345
350
347
348
345
344
344
343
344
341
343
341
339
339
339
339
340
345
346
346
345
346
348
351
354
356
359
356
354
352
353
358
358
358
354
353
353
348
347
346
348
348
344
341
338
337
338
338
339
337
337
337
330
323
324
339
366
410
463
524
576
610
608
570
512
448
404
377
359
341
327
318
304
285
278
271
267
265
265
268
263
261
259
254
253
250
250
247
244
243
243
243
244
241
241
240
240
238
239
240
244
248
254
261
264
270
273
283
291
298
306
316
321
330
334
334
343
348
348
356
359
354
352
351
350
351
348
348
345
345
339
339
336
334
333
334
334
336
333
333
333
332
330
332
328
327
326
325
328
330
327
327
327
326
326
331
331
332
336
337
334
332
330
336
339
341
340
339
338
338
338
343
346
344
341
341
340
339
336
332
332
332
330
327
328
325
325
327
327
325
326
325
320
317
311
316
334
367
417
473
530
579
604
586
536
467
410
376
357
336
325
313
300
286
273
264
259
257
256
254
253
252
251
250
247
243
241
243
238
237
232
228
226
226
227
231
232
232
233
239
236
238
241
247
252
259
259
268
274
285
292
299
308
316
324
330
334
339
344
348
348
352
348
348
347
346
344
344
340
337
334
332
333
334
334
332
333
331
325
330
330
331
330
327
325
325
323
320
321
321
324
327
325
323
327
330
331
331
330
332
333
331
330
332
337
340
339
339
340
340
341
339
341
341
341
343
340
337
336
332
331
331
328
331
327
326
326
327
330
327
326
326
321
317
311
308
327
358
406
468
532
578
601
586
537
472
417
381
360
348
334
318
304
292
280
271
264
260
259
257
254
250
245
243
241
241
241
246
244
241
238
236
234
231
230
231
228
226
231
233
236
243
243
252
257
261
267
276
286
294
303
308
313
321
326
332
338
344
348
350
348
346
345
346
345
344
344
341
340
334
334
334
334
332
330
332
328
328
326
327
328
330
327
327
320
325
325
324
321
318
321
323
324
325
325
327
328
330
330
327
328
330
331
334
337
339
337
336
338
338
337
337
338
337
336
332
332
330
330
330
328
325
323
319
320
321
317
323
321
321
319
313
312
311
314
332
366
413
468
528
579
600
584
532
465
408
371
351
334
318
303
290
276
265
261
259
257
254
254
252
250
248
246
245
244
240
240
238
236
232
233
232
232
231
233
233
232
231
232
236
241
248
253
259
264
268
274
285
294
300
307
316
324
331
336
344
346
348
348
351
348
346
348
346
343
343
340
341
339
337
334
334
333
334
331
328
332
332
331
328
324
327
327
330
328
325
326
327
330
328
326
327
330
332
332
337
338
337
333
334
334
337
340
344
346
344
341
341
340
345
345
346
345
344
344
341
341
337
339
339
334
330
325
327
328
327
330
330
330
327
327
325
320
320
330
356
396
448
506
559
592
596
565
508
445
399
370
353
339
325
311
296
283
274
273
271
272
271
267
266
263
260
259
257
253
254
252
252
250
246
246
247
245
245
245
243
244
243
245
252
259
266
273
278
284
290
297
306
314
320
328
334
344
352
358
366
365
367
366
367
367
370
368
370
366
363
363
356
356
356
356
358
353
353
352
351
353
353
353
351
350
350
348
350
352
351
346
346
346
348
348
351
353
356
358
358
356
354
353
356
358
364
367
370
368
367
367
367
372
366
368
366
366
365
360
363
363
361
356
351
350
352
354
356
354
354
353
353
345
341
344
361
396
443
500
558
600
619
604
556
490
433
396
376
361
350
337
327
320
308
303
297
294
293
292
287
292
290
287
285
278
278
274
274
273
271
271
266
264
261
261
264
266
270
268
271
276
280
286
290
297
303
308
316
324
332
340
350
357
364
370
374
379
385
386
387
388
394
387
386
385
383
386
380
379
374
374
372
371
372
370
370
367
365
364
363
361
363
363
363
360
359
357
360
361
363
361
360
360
360
363
363
361
365
365
367
367
367
367
372
367
370
372
374
378
378
379
377
377
376
370
367
365
366
364
363
361
359
357
356
358
356
357
358
358
356
348
344
343
352
374
414
464
520
577
617
625
604
548
483
432
398
385
372
358
345
327
321
311
304
299
294
294
292
290
287
285
283
280
278
279
276
273
276
273
271
270
266
264
265
265
268
266
270
268
271
278
284
293
300
307
316
321
328
334
339
344
353
367
372
381
386
391
393
392
393
386
384
380
379
377
377
374
376
374
372
370
370
370
372
373
372
368
363
363
363
363
365
366
365
365
361
359
356
358
360
360
363
361
363
365
365
367
368
368
374
370
370
368
370
377
378
380
379
379
378
377
377
377
376
374
372
370
366
367
367
367
367
364
363
359
358
359
361
363
359
356
348
348
364
393
443
500
565
616
637
620
570
503
450
413
393
379
360
344
332
321
311
304
299
298
294
292
290
290
287
285
284
280
278
274
274
276
273
273
271
268
266
266
267
268
270
273
273
277
280
285
292
298
303
312
321
327
332
337
348
356
363
370
376
378
381
385
386
386
384
381
378
377
376
377
377
374
376
371
370
368
367
366
363
364
361
360
360
359
363
359
357
358
356
358
360
359
363
361
363
365
363
363
363
363
368
366
366
364
366
366
366
368
372
373
376
374
377
376
374
371
370
370
368
366
363
361
359
357
358
357
356
354
352
353
353
354
356
351
346
346
361
396
440
504
563
611
626
605
556
493
440
406
388
377
359
344
330
317
306
299
297
296
292
288
288
284
285
280
280
279
277
273
271
272
270
271
271
270
267
264
260
261
264
265
271
274
280
283
283
291
297
306
313
323
332
338
346
351
360
365
370
376
377
379
381
385
385
385
384
381
377
374
372
367
367
366
367
370
370
368
367
367
367
364
363
363
360
359
359
361
367
364
363
363
363
365
360
360
360
361
364
363
363
366
366
370
372
373
370
370
368
371
374
376
377
377
377
377
377
377
371
370
363
359
361
360
360
359
359
360
359
358
363
358
358
354
351
353
353
376
417
471
530
579
612
616
586
530
468
423
393
379
367
357
344
330
319
307
297
293
290
287
290
288
287
291
288
285
283
281
277
274
273
272
268
267
268
267
266
260
265
264
267
268
271
276
280
286
292
300
307
317
325
331
339
346
354
363
372
379
384
388
391
390
388
391
391
387
388
386
383
378
374
374
373
372
374
372
372
368
370
376
372
372
370
366
367
363
365
366
366
365
363
363
361
363
365
367
367
365
367
366
365
365
367
372
374
377
377
376
374
377
378
379
379
378
376
374
372
372
372
370
367
367
357
354
354
359
367
366
366
363
363
359
351
343
341
348
371
408
461
526
579
618
626
592
525
456
405
385
370
354
344
331
318
301
297
293
293
293
290
287
284
283
280
281
277
276
274
271
265
265
266
265
261
258
259
258
259
261
264
268
274
279
283
285
290
298
308
318
328
334
341
344
352
358
366
370
374
378
379
381
381
379
378
376
372
370
368
368
367
367
368
366
361
361
360
363
358
357
356
358
359
358
358
353
353
352
351
352
352
352
353
351
352
352
354
358
358
357
356
356
356
359
360
363
363
363
361
363
361
366
363
366
367
361
360
356
356
358
356
354
352
352
351
350
351
350
351
352
350
346
341
334
332
340
365
405
457
514
567
607
626
600
546
483
430
393
373
358
343
330
318
304
294
288
285
283
283
281
280
273
274
271
268
264
260
260
259
261
259
256
252
250
252
256
257
257
257
258
259
264
267
271
280
287
296
299
306
313
321
330
334
339
346
354
366
372
374
373
372
371
370
373
368
370
370
368
370
363
359
356
358
358
358
354
352
352
352
348
351
348
350
353
358
357
354
353
351
352
350
348
350
348
348
348
351
353
352
354
356
353
353
353
358
361
360
363
363
363
366
361
361
363
363
363
358
356
354
353
353
352
350
348
346
343
341
341
344
343
344
343
341
334
331
334
348
376
418
472
528
584
613
614
574
512
450
408
385
368
351
337
318
308
298
288
283
276
276
273
273
272
270
270
266
263
261
261
261
259
256
252
250
248
248
251
252
250
250
251
254
256
260
266
273
278
284
288
294
301
308
318
326
333
334
346
352
353
359
366
365
366
365
363
363
360
360
358
356
354
352
348
346
347
345
345
346
344
344
341
341
339
337
337
337
336
332
337
337
338
339
339
339
339
339
337
337
339
341
343
346
348
344
344
344
345
350
347
351
352
351
352
351
350
350
350
348
346
343
339
339
339
337
334
332
330
327
330
332
333
336
336
332
325
318
319
334
363
407
461
518
565
588
580
539
483
427
388
368
350
333
318
304
293
283
274
271
265
264
261
261
260
258
256
252
250
250
248
248
245
241
236
233
230
228
231
228
234
233
237
238
238
243
250
256
257
264
268
276
283
286
297
304
311
320
327
336
339
341
345
352
352
354
351
351
348
346
344
345
344
344
340
337
334
332
330
328
328
331
330
327
327
325
325
325
325
323
320
320
320
321
321
318
320
320
320
325
325
330
333
332
332
331
330
332
330
328
330
332
333
336
334
334
336
332
333
332
332
330
325
325
321
320
318
318
317
317
313
313
312
313
311
311
305
299
311
339
379
433
494
543
576
577
538
476
410
366
339
327
314
304
288
276
265
258
252
250
246
244
243
243
240
240
240
240
238
237
233
231
227
224
223
221
221
219
218
217
218
219
219
221
219
224
228
236
244
254
264
271
281
286
292
299
307
317
321
331
334
337
337
339
338
337
333
332
334
336
332
330
328
328
327
327
328
326
320
318
316
318
317
318
319
317
308
312
311
312
316
313
317
317
316
313
314
317
317
318
318
318
317
318
320
323
325
325
325
325
325
327
328
327
330
331
330
327
327
327
325
325
321
321
317
316
313
313
308
313
311
313
311
307
306
304
299
299
307
330
366
417
478
532
573
584
561
507
441
385
353
336
324
311
296
283
270
259
252
250
245
246
243
239
236
237
232
231
231
230
232
228
225
221
221
217
219
218
219
219
219
219
221
224
227
233
239
245
251
259
267
276
285
294
301
311
314
320
327
332
339
340
343
344
343
343
340
341
339
337
337
337
334
332
331
330
328
324
326
325
324
324
321
325
324
326
324
320
318
318
320
320
321
324
325
324
325
325
325
327
330
331
330
332
330
332
334
337
339
339
337
337
340
340
340
341
340
337
334
327
330
330
330
330
325
325
325
325
323
324
326
327
325
320
313
313
324
350
391
443
500
556
596
610
588
532
464
410
379
360
344
325
310
297
284
276
268
264
260
259
257
259
256
254
253
251
245
246
245
245
243
240
240
240
240
240
240
241
243
246
247
251
256
260
266
271
278
286
292
298
304
313
321
327
334
339
344
351
353
358
361
363
363
363
358
356
354
358
360
358
357
356
353
356
348
350
348
347
348
346
345
344
343
344
344
343
340
341
339
339
339
341
345
348
348
350
348
348
350
351
353
354
354
354
356
356
358
360
363
365
368
365
366
363
363
366
358
356
353
351
351
348
348
346
347
348
345
346
344
346
344
341
338
339
348
376
419
476
537
591
628
631
597
537
473
428
404
386
370
353
334
320
306
298
292
290
287
284
283
280
278
279
273
276
273
271
268
266
266
265
265
264
264
261
261
261
264
268
268
273
274
279
286
290
298
304
311
320
326
334
340
352
356
363
370
376
379
378
381
386
385
384
381
381
383
378
378
377
374
374
374
376
372
372
370
370
367
367
368
365
366
365
364
365
363
364
365
365
361
363
364
365
367
367
367
370
368
370
372
374
379
385
384
386
385
381
386
386
387
386
386
386
381
378
374
374
376
376
373
372
372
370
370
370
370
370
367
367
366
363
359
360
370
394
433
485
546
597
626
621
579
519
461
418
398
386
371
361
351
339
330
325
317
311
311
308
304
304
301
301
300
299
297
294
293
291
287
283
279
280
281
286
286
286
281
280
283
287
292
299
301
306
310
318
328
337
346
356
363
368
380
379
385
393
400
407
405
404
401
405
407
410
410
408
405
404
399
393
391
391
388
391
394
390
392
388
388
386
386
386
386
386
385
385
381
378
379
379
381
384
386
386
386
388
391
394
394
397
392
394
394
394
399
400
404
403
400
399
398
398
397
398
396
392
388
386
386
388
392
391
388
386
383
384
386
388
386
379
372
367
373
394
432
485
545
605
641
650
619
563
499
451
423
405
396
379
365
350
339
332
327
324
320
318
318
317
313
311
306
306
307
306
304
301
300
298
294
294
292
290
287
290
287
291
292
294
298
300
303
308
316
323
333
344
348
356
370
377
385
391
396
400
404
403
407
412
413
412
412
410
406
404
401
400
399
399
396
396
394
392
391
387
388
388
386
386
385
384
383
381
381
379
379
377
377
377
377
380
386
381
385
381
383
387
385
388
388
390
391
388
387
388
390
391
391
391
392
392
388
388
386
385
381
378
378
377
376
376
373
376
374
373
373
368
370
367
361
359
359
372
403
444
498
556
606
639
637
598
534
471
425
400
386
372
358
345
330
320
310
303
301
299
296
292
290
290
285
284
280
280
281
278
276
271
268
268
268
268
268
267
266
268
266
270
271
278
281
280
288
297
301
311
316
327
332
340
345
351
357
361
370
377
379
383
383
383
381
380
378
377
374
374
370
370
367
366
365
366
363
363
359
358
356
358
358
357
358
354
353
358
351
353
352
353
358
353
353
351
353
354
354
356
357
356
358
358
359
360
363
363
364
365
364
361
361
363
363
363
360
358
354
353
350
351
348
348
346
345
344
341
340
337
341
344
339
338
331
327
332
350
385
431
486
544
590
611
593
546
483
431
394
370
352
334
320
306
296
287
279
274
270
268
267
264
265
261
259
256
253
252
250
248
250
250
245
243
241
240
238
240
241
240
240
240
243
250
254
261
268
278
284
290
297
299
305
313
321
330
337
344
348
351
358
360
359
360
358
356
352
351
351
354
354
353
352
348
343
344
340
344
348
346
343
340
337
331
333
334
336
339
338
337
334
334
336
336
339
341
341
341
341
341
344
345
345
346
345
345
346
351
354
356
353
351
350
346
348
348
348
348
344
344
339
341
338
337
334
330
334
332
332
331
327
330
332
332
327
324
330
348
380
428
488
544
585
598
567
513
450
400
367
351
336
323
303
293
285
280
277
276
271
268
266
261
261
259
256
254
251
247
247
248
247
247
244
240
239
238
238
238
240
240
244
243
246
250
254
259
265
274
284
293
299
308
316
324
331
341
347
354
356
358
363
367
368
370
366
363
359
356
354
358
353
356
356
354
354
346
348
346
348
348
346
346
346
346
346
344
340
339
340
341
340
340
340
344
345
346
346
346
348
350
350
354
356
358
358
358
354
356
358
356
360
365
363
363
360
359
360
354
354
353
353
351
346
344
344
346
348
351
348
346
345
344
339
337
341
359
387
433
487
546
593
614
600
554
490
433
392
372
358
346
334
325
312
301
293
287
284
284
277
278
274
274
271
266
266
264
265
261
259
257
254
252
250
248
248
250
251
252
256
257
261
266
271
277
281
287
294
299
310
318
326
332
337
343
350
360
367
374
374
379
384
378
377
378
377
379
373
373
367
367
367
366
366
363
365
364
360
358
356
358
357
356
354
356
354
353
353
354
356
356
354
356
356
356
356
358
360
360
361
361
360
360
363
363
366
367
368
374
370
371
370
368
372
370
370
368
367
365
363
361
358
358
357
356
353
351
352
348
352
354
352
351
344
340
336
344
367
401
452
508
566
607
627
619
577
523
467
424
397
383
363
348
333
323
306
299
292
288
285
283
283
280
278
278
276
272
270
271
266
266
264
261
261
259
259
257
257
257
260
261
263
265
263
268
273
279
286
292
297
303
311
316
328
334
343
351
359
360
364
370
376
379
379
379
378
377
374
376
376
374
373
370
370
367
365
363
363
363
363
361
363
360
358
358
358
358
356
358
356
356
354
356
358
358
358
360
358
360
364
363
363
364
366
368
367
367
367
370
371
372
373
374
376
374
373
373
370
372
368
367
366
363
361
360
361
360
359
360
358
358
356
358
359
358
354
352
345
348
360
391
439
490
546
596
626
630
597
539
473
426
396
378
366
348
337
327
317
308
303
299
294
290
288
290
287
287
286
285
283
279
274
273
272
270
268
268
267
268
267
268
271
271
270
273
277
280
283
287
298
305
311
318
325
336
343
352
360
367
372
377
381
386
387
393
394
392
392
388
388
386
385
384
381
380
378
376
377
376
377
377
377
377
372
372
370
370
368
368
370
376
372
372
372
371
374
372
376
374
377
379
377
376
377
378
377
378
381
381
381
381
383
386
386
386
386
387
386
387
386
386
385
384
381
379
379
379
378
377
376
372
372
376
368
367
367
370
372
367
363
361
372
398
440
497
560
610
633
619
573
512
457
417
398
388
376
363
350
339
327
320
316
313
308
304
304
303
304
304
303
301
300
297
292
292
287
287
288
286
283
283
280
277
274
278
283
287
292
294
296
299
305
313
321
331
337
344
347
356
366
374
381
388
396
403
405
406
405
404
403
403
405
407
405
404
403
399
396
393
392
391
394
391
391
388
390
391
386
388
386
386
386
386
386
387
387
388
386
384
381
381
385
387
391
388
386
384
386
388
388
392
393
396
396
399
401
404
400
400
399
399
396
397
404
400
398
393
388
388
385
381
385
385
386
388
387
386
385
384
380
377
372
370
374
398
433
480
539
598
637
646
617
560
494
443
412
401
391
378
365
353
339
327
325
323
321
318
317
313
310
303
305
306
304
299
294
297
293
293
292
290
291
288
286
285
284
285
288
294
294
299
301
306
311
316
321
327
337
345
353
360
367
373
379
388
396
400
405
407
410
408
411
412
405
405
404
400
400
396
393
393
394
394
393
396
394
392
388
388
386
386
386
385
386
385
384
383
383
384
384
385
381
378
380
379
381
386
386
388
388
388
392
391
394
397
392
393
396
397
400
398
397
397
393
396
391
391
391
388
386
384
381
378
378
377
377
379
378
379
376
377
376
374
368
366
367
377
401
445
501
564
617
652
647
607
550
485
441
414
397
384
371
354
339
328
320
311
312
308
306
303
299
297
293
290
288
287
286
285
283
283
281
279
278
276
273
274
273
273
273
276
279
283
287
292
296
301
310
317
325
332
339
348
360
361
370
376
383
388
388
391
388
392
391
391
391
388
388
386
381
381
380
379
378
379
377
374
373
372
372
371
370
370
367
366
365
366
367
366
365
366
366
365
363
366
368
367
367
367
370
373
368
372
372
374
378
377
377
376
376
377
378
378
379
379
377
374
373
374
372
368
367
365
363
361
360
359
360
358
358
357
358
356
354
353
347
346
348
367
398
444
497
558
601
628
618
573
508
451
411
388
373
358
340
327
312
301
293
290
288
285
283
280
277
273
273
271
271
270
267
264
263
259
259
259
257
256
252
252
253
256
258
261
264
264
268
273
280
285
290
301
310
316
320
325
332
339
346
353
357
360
363
366
366
365
365
367
366
363
359
360
358
356
356
353
354
353
351
350
346
346
345
346
346
344
340
339
339
339
339
341
346
341
339
339
339
339
341
344
343
344
343
344
344
344
346
351
350
352
348
351
352
354
352
351
351
351
350
352
350
346
344
344
340
339
336
332
333
331
333
332
332
331
327
332
331
327
321
316
321
337
367
417
476
534
578
596
583
541
485
432
388
365
348
337
321
307
296
286
276
268
264
261
259
257
256
254
254
254
252
250
245
241
239
240
236
238
237
236
234
227
226
224
226
231
237
243
245
250
251
258
265
273
283
290
297
301
307
313
320
326
333
341
344
346
348
351
352
353
354
351
348
346
340
340
339
341
340
341
340
337
336
333
337
334
336
332
325
327
327
327
330
327
327
330
330
327
326
327
328
328
330
332
332
333
334
337
334
336
334
337
339
341
343
344
344
345
346
346
344
341
341
341
344
346
338
337
337
333
326
330
328
330
330
330
330
327
330
330
324
318
318
325
344
377
425
483
540
583
598
577
527
463
407
372
353
336
320
308
294
280
273
271
270
271
270
266
263
260
257
254
247
250
250
247
244
239
240
243
244
241
239
236
234
232
232
233
234
240
244
250
254
259
265
273
283
293
299
306
314
323
331
339
347
351
356
360
364
366
363
363
359
358
360
356
353
351
353
356
352
350
346
346
346
345
346
348
350
350
347
346
344
339
334
332
332
333
334
334
336
337
337
339
341
343
345
346
346
344
343
344
346
348
348
350
356
353
354
358
360
366
360
361
358
356
353
352
352
350
352
353
353
353
352
350
347
345
343
341
341
343
344
344
339
340
352
379
423
476
537
593
627
624
591
530
466
416
390
372
358
346
337
318
304
294
290
287
283
285
285
285
278
274
271
271
272
268
271
268
268
267
265
261
258
257
259
257
257
258
261
264
266
271
272
278
283
290
303
313
325
333
340
346
353
363
364
371
377
381
392
388
388
386
387
388
385
383
379
379
379
379
379
380
381
377
371
367
366
368
370
370
366
363
365
366
365
367
367
366
365
364
364
363
363
363
365
376
372
370
370
372
377
372
368
367
370
376
379
381
379
379
383
384
381
384
386
386
386
386
384
385
379
379
376
370
368
370
372
372
372
370
367
367
367
367
366
363
361
366
381
417
470
525
585
631
656
650
607
546
483
433
404
386
370
358
346
332
324
313
308
306
305
303
303
301
297
292
290
287
283
283
284
283
280
276
276
273
272
271
270
271
272
274
276
276
274
283
287
294
301
306
317
327
338
344
352
356
363
368
376
384
388
391
390
387
386
386
385
385
381
378
376
373
370
368
364
366
363
360
360
358
358
358
358
356
353
353
356
352
350
350
352
356
352
350
348
348
351
350
351
351
353
356
353
353
353
354
353
356
357
358
358
356
358
360
359
360
360
360
358
358
358
354
354
351
350
347
344
344
343
341
340
341
339
336
339
337
337
332
325
325
332
354
393
445
501
558
604
620
598
544
476
416
381
361
345
330
313
299
288
280
274
271
268
266
261
261
259
257
254
254
254
250
245
243
243
240
241
241
241
240
236
238
239
240
240
243
246
250
256
261
268
276
283
287
294
304
307
313
320
327
332
337
341
344
345
346
346
348
347
346
344
345
341
338
339
339
337
336
333
333
331
330
326
327
330
327
326
325
323
323
325
323
321
324
325
323
323
323
324
325
325
325
327
326
325
327
327
327
330
330
330
332
333
334
334
337
337
338
336
336
337
337
337
337
333
334
330
330
326
321
325
323
321
318
317
318
318
318
318
320
318
312
305
304
316
343
384
438
499
553
588
591
553
490
428
386
360
341
325
308
292
283
271
264
259
254
250
250
247
247
244
240
241
239
236
236
234
231
231
228
226
224
224
226
226
224
228
228
231
232
236
238
244
248
254
263
268
276
279
290
297
306
312
320
325
328
336
339
340
343
343
341
340
334
336
337
334
332
326
327
323
323
325
330
334
333
330
327
328
330
330
330
325
325
324
323
320
320
321
320
324
325
325
325
324
324
324
325
325
326
326
325
325
327
326
323
328
330
334
339
344
341
340
344
343
344
340
338
337
336
330
330
328
327
326
325
320
313
310
311
319
324
325
324
319
318
317
320
330
345
371
410
461
518
565
586
574
537
480
426
387
364
350
327
313
303
292
279
268
261
257
257
257
257
257
259
259
256
252
250
250
247
244
243
240
236
231
228
226
228
236
238
238
240
241
243
247
250
256
261
266
273
280
287
290
303
316
327
334
337
344
346
346
346
351
356
357
354
353
356
352
351
346
347
346
344
341
341
341
340
339
339
337
337
340
337
331
332
336
339
337
337
334
337
338
334
330
332
338
339
343
346
340
339
340
344
345
344
345
346
347
351
348
351
347
350
352
353
353
354
353
354
353
354
352
351
348
348
344
341
338
337
337
339
339
339
340
341
339
339
336
332
327
336
364
403
453
513
568
598
596
560
499
437
394
370
356
341
328
312
301
290
284
280
278
276
273
271
271
270
266
264
261
259
257
257
256
252
253
251
248
250
250
252
252
248
253
256
256
257
259
271
280
288
294
304
311
319
330
337
344
350
356
361
368
372
377
377
377
374
372
373
374
374
372
367
368
367
366
361
358
360
359
360
359
358
357
359
353
356
354
353
356
351
352
351
353
353
356
356
353
353
354
354
354
353
354
356
358
361
361
360
359
360
360
360
363
363
363
364
364
365
366
367
367
366
361
358
356
358
353
351
348
346
348
343
345
346
347
350
344
341
337
331
330
341
364
406
459
520
574
607
607
565
501
437
391
365
353
339
325
313
299
290
283
276
274
270
268
266
264
261
259
257
254
250
247
250
250
247
245
240
240
239
237
236
238
238
239
240
245
250
256
261
267
271
278
283
287
297
304
310
318
326
331
337
343
346
350
351
353
350
348
348
345
343
340
341
336
336
333
332
331
327
330
327
326
324
321
323
324
324
321
320
320
318
317
316
317
317
317
318
319
317
317
318
318
318
320
323
318
321
323
323
321
323
325
326
325
325
324
325
324
327
326
323
325
325
325
323
318
318
317
317
313
311
308
308
306
308
307
308
306
304
303
299
297
299
312
344
387
445
505
558
584
574
530
464
407
370
346
331
313
299
286
271
258
245
243
240
238
238
232
232
230
227
224
225
225
223
219
214
212
212
210
211
210
211
211
211
211
211
216
214
218
221
227
231
237
243
250
257
266
273
279
285
292
298
303
308
314
320
321
323
320
324
324
324
321
318
317
316
313
312
311
313
312
311
307
308
306
306
305
306
304
303
303
304
301
303
301
304
303
301
301
301
300
301
304
306
304
307
305
307
307
308
306
308
311
311
311
308
314
317
317
318
317
316
316
316
316
313
314
313
308
306
305
306
304
303
299
299
298
299
297
299
300
299
297
292
288
296
316
353
400
461
519
560
574
545
494
436
386
356
332
316
300
284
270
261
251
248
243
240
237
236
233
233
234
232
231
226
221
219
218
219
219
219
218
217
213
217
217
219
220
223
223
226
230
234
240
245
254
261
268
271
283
290
299
306
312
318
320
326
328
330
332
332
336
332
333
332
334
334
330
331
328
326
325
323
324
324
325
325
325
318
316
316
317
318
318
318
318
318
320
323
317
313
317
318
317
317
317
324
325
325
324
323
324
326
330
332
334
336
336
337
334
336
334
336
336
337
336
332
328
326
325
324
320
324
326
325
321
321
320
320
324
326
327
318
314
306
311
327
366
411
472
530
571
590
581
541
480
421
377
350
333
317
304
292
283
273
265
261
257
254
252
252
254
254
252
246
245
243
240
245
245
244
237
234
231
232
230
232
232
236
233
240
245
250
252
257
264
266
268
276
283
292
303
313
324
334
339
345
346
351
354
358
360
358
357
356
357
354
353
354
353
350
346
346
348
346
345
346
344
345
341
344
337
339
337
339
339
344
344
344
339
337
339
344
345
343
344
348
350
351
348
350
346
346
345
346
348
350
353
356
358
359
359
363
366
366
367
366
360
358
358
358
352
354
357
356
352
348
346
352
348
352
352
351
352
350
344
337
341
356
386
433
492
554
603
626
617
573
506
443
404
378
366
351
338
321
311
299
294
294
297
299
296
292
287
285
286
284
279
277
273
267
267
264
266
265
260
261
263
263
261
259
263
265
270
274
283
290
298
306
313
321
330
337
340
345
352
360
367
376
378
381
385
384
386
387
386
388
386
385
385
379
374
377
370
367
367
370
371
366
361
361
363
367
370
370
365
364
363
361
359
358
359
358
358
358
358
363
363
363
364
363
363
361
364
366
366
367
367
367
367
368
368
370
370
373
372
373
370
370
374
372
376
372
367
366
363
361
359
358
358
358
358
356
354
354
354
356
347
344
345
358
388
436
494
556
605
632
625
586
526
468
420
400
381
365
347
332
320
308
301
297
291
292
288
287
284
278
279
278
276
274
271
268
267
265
264
265
264
265
264
265
263
261
261
266
270
273
278
284
291
298
307
312
320
328
333
339
347
353
358
366
371
376
381
377
379
377
374
378
377
374
372
371
372
370
368
367
367
365
363
363
359
358
358
358
357
356
354
351
352
353
353
358
356
356
354
356
353
352
353
356
356
356
354
356
358
356
358
356
356
360
359
363
361
363
367
363
363
361
360
359
360
360
358
358
354
351
348
346
345
344
343
341
339
339
339
339
339
336
334
331
324
326
345
385
440
503
556
598
616
598
547
490
433
394
370
351
328
316
301
290
281
277
272
271
266
264
260
259
257
257
257
254
252
248
245
245
244
241
239
238
236
233
233
238
240
240
240
243
248
250
253
263
267
277
280
290
297
303
307
318
325
331
333
336
341
344
344
346
348
346
344
341
339
339
337
337
334
334
330
327
328
330
330
327
328
325
325
324
324
324
324
323
324
323
318
318
318
318
319
320
313
317
318
318
320
318
324
324
325
325
324
325
325
330
331
331
332
330
330
332
331
330
330
333
328
325
318
317
316
316
316
316
313
311
311
311
310
308
311
312
312
304
296
299
311
340
385
443
498
546
577
574
536
480
420
374
347
327
312
298
283
268
259
252
247
245
241
243
240
238
234
231
226
226
223
224
225
224
223
224
218
214
213
212
216
211
213
214
217
217
223
228
234
239
243
250
257
265
274
283
293
301
307
312
318
323
327
331
334
334
331
328
330
330
327
328
330
327
326
325
325
324
321
320
320
317
314
314
312
312
311
308
311
311
312
314
310
313
313
316
314
313
312
313
314
317
317
318
317
317
316
318
320
324
326
327
326
328
330
333
332
332
330
332
330
330
327
325
320
318
320
323
321
316
316
311
311
312
311
316
316
314
308
304
310
325
357
405
464
523
567
579
556
503
444
393
358
339
326
311
297
286
272
264
258
250
252
252
252
252
253
250
246
239
236
236
234
236
236
233
224
224
223
224
225
224
226
228
226
228
233
240
247
254
260
266
272
279
287
297
306
316
321
327
334
343
346
353
357
361
359
356
353
352
348
348
350
351
350
348
343
345
337
341
341
338
339
337
339
337
333
332
332
337
339
341
339
337
334
337
339
339
343
341
339
337
337
344
346
350
346
348
348
350
352
354
358
356
357
359
358
360
358
358
359
356
354
351
352
354
352
353
351
350
348
346
346
348
348
346
343
341
337
334
337
346
370
406
460
519
571
605
610
583
525
464
414
385
368
351
339
327
316
304
294
288
286
285
283
280
279
273
274
273
271
268
264
266
265
265
264
260
260
259
259
259
258
259
259
261
265
271
276
280
287
293
301
308
316
324
330
339
345
351
357
365
368
376
379
381
383
381
379
384
378
379
377
377
377
372
372
370
368
370
370
370
367
367
366
363
363
363
365
365
364
363
361
363
360
363
363
363
363
363
363
363
364
367
365
367
366
367
367
370
372
378
374
374
374
379
385
383
381
380
379
379
377
374
374
372
371
367
367
366
364
363
363
364
363
365
363
363
361
358
351
350
361
386
424
476
534
591
625
638
607
546
483
433
407
390
372
358
346
330
319
311
307
301
304
304
304
301
297
292
290
290
287
285
284
280
279
278
278
276
276
277
276
277
274
276
276
280
285
292
298
301
306
313
321
330
336
341
345
353
363
366
373
379
386
394
393
394
394
393
392
392
388
387
384
384
380
381
380
384
384
385
381
379
377
374
377
377
376
377
373
376
372
372
372
372
373
373
373
376
374
374
374
378
378
377
378
383
378
379
379
381
386
385
384
385
387
392
393
393
392
392
391
391
388
387
386
385
381
378
378
374
376
374
374
374
376
372
372
372
370
370
366
366
367
378
404
440
491
550
599
638
646
625
577
516
464
428
411
394
376
359
343
332
321
316
313
313
311
308
307
306
304
303
298
297
292
290
288
290
291
290
287
287
286
285
285
285
284
287
290
292
297
299
303
308
313
325
330
339
345
351
356
366
371
379
386
392
394
396
397
400
400
401
401
405
404
400
397
393
392
388
387
385
386
384
383
384
383
387
388
387
388
384
381
379
379
383
386
379
377
377
378
385
379
380
380
384
386
387
388
388
391
392
390
388
388
391
396
399
400
400
399
396
396
394
392
393
394
391
385
381
381
385
386
388
391
391
391
388
390
385
381
381
379
378
371
370
377
396
430
478
537
592
626
639
611
559
497
445
413
397
380
367
356
341
334
327
328
324
321
320
312
308
305
308
311
311
308
304
301
299
293
290
283
278
279
279
288
290
290
294
294
297
299
304
310
308
316
320
328
337
348
356
359
363
370
379
388
398
401
405
407
413
412
411
413
411
407
400
393
396
400
405
404
399
393
392
396
400
392
394
394
396
398
393
388
385
387
388
386
387
387
388
388
388
387
385
385
381
383
388
391
393
396
400
399
398
396
394
396
396
398
399
398
399
398
400
400
400
399
396
385
377
381
396
407
405
400
390
387
386
381
381
381
386
388
386
379
368
367
379
413
461
519
572
619
646
638
597
538
481
441
414
400
381
365
356
341
332
325
323
321
320
318
316
311
308
304
308
310
305
298
290
292
298
299
299
294
292
292
290
287
286
284
288
294
304
311
316
319
324
330
340
348
353
356
363
370
379
385
390
400
410
416
417
417
414
410
407
408
403
399
398
398
399
392
393
392
391
384
379
380
384
388
391
391
391
388
386
377
376
374
379
381
381
381
385
385
381
377
379
377
378
377
381
387
388
384
381
385
388
391
385
381
383
384
393
397
401
398
393
385
386
384
381
379
379
376
374
376
376
372
376
376
374
371
367
366
361
356
353
360
379
412
457
508
561
608
638
640
600
538
476
425
400
387
376
360
348
327
318
311
303
294
299
301
298
291
285
286
286
284
279
272
274
277
273
267
261
260
264
265
266
267
271
268
270
273
280
287
292
290
294
310
321
327
332
337
341
346
356
353
360
367
372
374
374
377
376
372
372
374
374
370
365
363
366
367
363
358
353
353
353
351
351
352
352
353
353
354
350
345
341
343
344
346
351
356
352
346
343
341
340
348
353
350
350
354
351
350
347
352
356
358
356
353
356
354
353
353
351
356
358
357
358
353
348
341
341
343
344
344
341
338
336
333
331
333
332
330
325
319
320
334
361
404
454
514
567
604
603
563
501
443
405
377
360
343
327
312
297
284
273
271
271
272
267
263
257
258
254
254
254
250
247
245
240
240
240
236
236
236
234
234
233
233
236
238
243
248
250
250
260
268
279
284
285
292
298
301
306
310
318
325
332
336
336
339
337
339
346
346
344
339
334
330
330
332
334
333
331
330
327
324
325
324
321
318
320
323
321
318
313
312
316
317
316
314
311
314
316
312
313
317
325
325
324
320
318
319
318
320
320
319
320
326
331
331
327
325
321
325
327
333
330
327
327
325
325
319
317
311
308
311
314
318
318
312
307
306
304
306
303
304
301
300
310
333
368
419
478
528
565
570
539
485
428
387
363
346
330
312
292
277
266
254
250
250
250
245
240
236
236
237
240
237
232
226
223
223
226
228
224
224
219
216
214
211
217
217
219
219
219
221
228
239
250
257
260
260
266
272
280
288
297
303
311
314
320
326
334
334
334
332
330
333
327
325
325
330
330
328
324
320
320
321
321
319
319
318
318
316
314
316
316
321
320
314
313
314
318
313
308
310
316
319
320
317
312
310
308
317
327
330
325
325
328
332
336
337
337
331
330
326
327
328
327
330
332
330
328
325
325
325
319
317
313
318
320
317
313
313
318
318
313
306
299
303
318
353
396
440
492
541
572
570
533
472
414
370
346
332
318
303
290
276
265
259
261
263
261
259
257
250
248
246
245
241
236
238
236
233
231
231
233
234
231
226
228
233
233
232
233
236
238
241
247
256
265
271
280
287
299
307
313
318
326
331
339
346
348
348
356
359
360
358
353
352
351
353
356
346
345
337
337
333
339
341
341
340
339
336
332
333
332
332
337
339
337
334
332
333
333
333
332
336
336
336
337
339
340
341
344
341
340
339
339
341
348
352
351
351
356
348
351
352
353
354
350
348
340
340
339
344
345
340
344
343
339
333
332
333
336
337
332
327
320
318
330
354
392
440
494
545
577
591
574
532
478
426
391
367
348
331
318
306
297
286
278
273
276
277
273
267
266
261
261
259
254
252
250
250
251
250
252
250
247
243
243
241
240
243
245
246
251
259
266
272
274
278
283
291
299
308
318
325
331
336
341
348
354
361
358
358
358
363
372
366
360
354
356
358
356
354
351
348
348
347
348
345
345
341
344
347
346
344
341
343
346
346
346
341
340
344
344
340
338
339
341
340
341
341
351
360
358
356
351
352
353
348
350
353
359
363
363
361
360
360
360
356
356
356
356
353
353
352
353
352
348
346
346
340
339
339
339
339
340
340
344
341
339
348
376
416
471
530
581
613
608
571
517
459
416
387
368
361
345
331
316
301
294
293
290
287
285
284
283
278
273
271
271
272
273
273
273
271
263
257
252
254
259
261
264
264
265
264
266
270
274
279
285
288
288
298
304
310
318
325
337
344
348
354
360
360
360
363
374
381
385
381
379
377
376
372
372
367
366
365
365
366
366
366
366
363
360
358
356
354
359
361
363
359
356
358
365
359
358
358
363
367
363
363
363
363
365
366
368
367
367
367
368
370
370
371
372
372
374
378
380
380
379
378
379
376
372
374
376
376
374
371
370
365
360
358
358
360
363
367
366
363
360
361
352
353
363
386
432
479
530
580
612
616
585
528
467
424
401
387
377
363
351
339
325
316
308
301
297
298
304
307
304
300
294
293
292
292
290
284
283
277
276
277
276
273
276
272
273
274
274
278
278
278
285
293
304
311
314
318
325
336
346
356
366
372
377
380
386
388
390
391
393
393
393
391
391
386
386
384
386
388
388
385
385
379
379
381
378
379
380
381
384
377
376
376
374
377
377
377
376
376
372
367
367
367
371
374
377
377
378
381
386
388
386
381
381
381
380
383
385
388
387
387
391
391
391
388
385
381
377
377
379
381
387
381
378
373
373
377
376
376
372
368
367
363
363
361
370
392
431
480
537
592
631
637
607
554
490
436
406
391
378
366
351
337
325
316
316
316
317
311
308
301
299
297
294
300
298
293
292
291
293
290
292
291
283
278
280
283
285
283
280
281
285
297
311
319
320
325
330
339
345
348
351
361
373
383
388
391
396
400
401
400
399
400
403
401
398
394
396
394
392
391
388
391
392
392
391
386
384
381
381
381
378
376
374
378
387
384
380
377
379
378
379
378
379
378
379
385
388
391
387
385
381
381
386
391
390
390
391
396
400
400
396
398
396
399
398
394
393
391
391
386
384
383
379
379
379
378
377
372
370
366
366
367
373
374
379
396
427
470
518
567
610
633
628
586
534
474
431
410
391
374
360
341
327
311
308
312
318
318
311
306
299
297
294
294
297
292
287
285
284
284
283
283
280
280
279
281
284
286
285
283
284
290
299
310
317
318
327
331
337
343
351
357
363
370
377
386
391
394
393
396
399
396
394
392
391
392
386
381
379
379
381
381
379
373
372
376
381
381
376
372
370
370
371
370
367
365
366
367
368
370
367
365
364
361
363
370
374
372
367
367
370
373
380
379
379
381
379
379
374
373
372
377
380
384
386
381
381
379
377
376
371
370
366
366
366
364
365
366
366
365
363
361
360
356
351
353
365
392
431
479
534
590
633
645
621
565
501
447
414
397
374
357
339
326
313
308
303
298
294
292
290
284
283
283
285
283
279
277
273
271
268
268
268
270
271
268
266
265
264
266
270
276
279
283
284
287
294
300
306
314
324
326
337
344
348
357
367
368
374
374
377
378
378
377
374
377
377
376
373
367
365
363
365
365
367
367
365
361
358
356
354
353
356
353
354
352
351
353
351
352
351
351
351
353
351
350
350
352
358
356
356
354
356
358
358
359
360
360
360
360
364
366
365
365
366
363
361
363
363
361
359
356
356
350
348
346
346
344
345
345
346
344
343
340
337
333
334
348
377
426
485
539
587
620
621
590
534
473
424
393
374
357
339
326
308
298
285
280
278
274
273
270
268
265
264
261
261
259
257
256
252
250
250
246
248
245
246
245
243
245
246
250
247
254
259
261
266
268
278
285
294
301
307
312
320
328
334
340
348
353
354
354
356
357
356
356
356
356
353
352
350
348
346
345
346
345
345
340
341
339
339
338
337
339
332
337
334
334
334
330
337
337
336
334
332
334
336
336
337
338
337
337
337
339
339
340
345
345
346
345
344
345
346
346
350
348
348
346
346
344
344
340
339
339
337
334
332
331
331
330
330
326
327
327
327
325
318
317
324
340
377
431
494
554
591
591
553
494
436
392
366
352
337
325
308
297
284
274
272
270
268
268
266
264
259
256
254
254
254
250
247
245
240
237
238
237
237
237
233
234
234
232
233
236
243
250
254
257
261
267
276
283
290
298
306
312
321
330
336
341
343
344
346
346
348
348
348
347
344
343
341
338
340
337
337
332
332
328
327
330
326
331
331
330
327
326
326
324
324
326
327
330
327
324
325
323
324
325
324
328
330
330
331
330
331
331
334
334
337
337
339
339
339
339
337
338
332
330
331
330
327
327
323
325
324
323
318
311
313
312
318
320
318
317
316
311
306
307
325
356
403
458
516
556
571
547
498
436
384
346
327
319
308
298
288
274
264
258
254
252
248
245
241
238
233
233
233
234
231
226
224
225
221
223
219
218
218
217
212
211
213
220
226
228
233
238
243
248
258
265
271
278
287
298
306
311
312
318
324
328
332
333
334
336
336
336
336
334
330
326
325
316
318
318
323
320
318
317
316
316
313
312
313
312
312
308
308
311
311
311
308
308
311
311
308
307
307
308
311
313
316
317
318
318
320
321
325
324
325
321
320
321
321
318
323
324
323
318
312
314
312
311
308
306
305
306
306
304
306
306
306
306
303
299
294
292
305
336
385
443
500
546
567
550
491
419
364
332
314
301
290
279
268
258
250
238
238
233
233
228
225
224
224
225
223
220
219
217
214
214
212
211
211
207
210
211
211
211
212
212
217
219
224
227
233
239
248
253
266
276
284
290
298
301
306
312
318
325
327
330
332
330
325
328
323
324
321
318
318
317
313
312
311
311
311
312
311
307
307
306
304
303
304
304
304
305
306
303
300
303
304
304
305
306
306
307
308
311
311
312
311
314
313
316
312
318
318
319
317
314
318
319
320
319
320
319
316
313
311
310
308
307
308
305
304
303
306
306
306
306
306
301
294
290
294
306
334
372
424
479
530
565
581
565
518
458
403
365
341
323
304
284
276
265
256
247
243
239
236
234
231
228
228
226
224
224
224
221
219
217
214
214
211
211
210
211
211
210
211
212
216
218
226
234
238
243
250
253
259
265
271
278
286
290
304
310
316
319
323
327
332
332
333
330
327
327
327
327
327
326
325
319
317
316
318
318
320
320
320
319
318
317
318
314
316
316
313
313
312
311
313
312
316
317
318
314
317
318
318
320
317
320
323
323
324
326
330
331
334
334
332
334
334
334
334
333
336
334
331
328
326
324
326
328
325
325
320
318
318
317
318
319
320
321
318
312
308
318
344
381
431
487
546
583
596
577
527
470
416
381
360
344
325
311
297
287
278
270
264
263
260
260
258
257
257
256
252
250
247
245
245
245
243
240
243
240
238
239
238
240
240
241
243
247
247
254
261
271
276
279
287
294
303
308
318
325
333
339
344
348
353
356
360
360
361
361
363
363
363
360
360
358
353
352
350
348
350
352
351
350
351
350
350
350
348
348
351
345
346
345
350
351
350
352
351
353
353
352
354
353
354
356
360
360
360
359
361
363
367
367
370
370
370
368
370
372
373
373
372
371
367
365
367
368
365
363
361
359
358
358
360
358
358
361
356
352
346
345
351
366
393
433
488
543
588
612
605
565
508
450
408
386
373
359
348
338
327
317
306
301
298
298
298
294
292
288
287
286
286
286
285
284
283
278
276
270
273
271
273
272
267
271
274
274
277
283
290
294
301
306
313
320
327
337
346
351
358
363
372
378
385
388
392
392
396
396
393
391
391
391
391
391
388
386
381
379
379
384
381
381
379
378
379
374
376
376
376
372
370
370
370
371
376
376
376
370
368
367
372
376
378
383
386
386
385
381
381
380
381
384
386
390
392
391
388
390
393
393
392
391
388
386
381
385
381
374
376
373
376
379
377
377
374
373
376
372
368
366
367
385
416
463
518
574
619
638
626
580
518
461
424
404
386
371
358
346
336
326
320
314
308
307
308
305
306
303
297
296
293
290
290
286
290
290
287
286
284
279
280
279
280
280
284
285
286
290
294
300
306
313
320
328
337
347
351
358
365
372
377
381
386
391
396
399
400
401
398
396
397
392
388
386
385
387
381
380
378
374
377
377
377
377
377
376
373
372
370
370
367
367
367
365
367
367
367
367
367
370
367
367
366
368
370
370
372
373
372
372
374
374
377
378
380
379
379
380
377
376
374
376
377
373
370
367
366
366
363
363
360
357
356
357
356
356
358
358
353
348
344
347
360
388
436
491
551
600
626
611
567
506
450
413
388
372
358
344
331
316
311
303
297
291
287
288
287
284
284
279
276
273
273
268
266
266
266
266
265
261
261
258
260
259
261
261
265
266
271
273
277
279
290
297
303
308
316
324
330
339
344
352
356
359
363
365
372
370
372
370
370
370
366
366
363
364
366
361
359
356
356
354
354
352
351
350
348
346
346
344
345
344
345
343
343
343
344
344
344
343
346
344
345
343
344
346
346
348
354
350
350
350
353
358
356
358
358
357
359
358
357
358
358
358
356
353
351
348
348
347
346
345
344
341
341
339
338
339
340
340
341
337
331
330
334
358
396
450
512
563
603
607
579
523
461
417
386
367
348
333
318
305
298
286
280
276
273
271
268
267
267
264
264
260
259
260
257
254
252
251
248
246
241
243
245
247
247
251
250
250
254
259
266
272
279
285
290
294
304
312
318
323
327
337
344
347
351
354
356
358
357
358
360
358
356
354
356
352
350
348
348
347
346
347
346
348
345
340
339
338
337
336
337
338
336
336
336
339
340
346
341
341
340
338
337
340
341
340
344
344
343
345
346
348
351
352
351
351
352
348
351
351
352
354
354
356
353
348
346
344
344
344
344
343
338
337
337
334
337
339
341
336
333
327
326
332
361
400
453
514
565
591
586
541
479
421
385
363
350
334
324
314
301
293
284
278
274
273
271
268
268
266
264
259
257
257
259
259
261
259
252
250
248
250
247
246
244
245
245
247
251
254
259
258
266
271
278
286
297
306
313
319
327
333
340
347
348
353
358
363
367
365
366
361
361
359
358
359
358
354
351
352
351
352
351
348
346
344
343
341
337
340
341
341
343
345
344
343
340
339
337
340
340
343
346
348
350
350
351
350
348
345
344
346
350
354
358
360
360
360
358
357
354
353
356
353
352
350
348
348
346
348
351
347
345
343
344
346
341
339
339
339
336
331
325
328
344
377
424
480
536
576
593
573
523
460
407
372
353
339
327
313
301
288
280
274
273
273
271
273
270
267
266
263
261
257
254
253
251
246
250
247
247
246
243
244
243
245
246
248
250
252
257
264
271
279
287
293
299
307
316
324
330
333
341
346
350
354
359
363
364
363
360
357
356
354
351
352
350
348
351
353
346
345
344
344
346
339
339
339
339
336
337
339
337
337
337
336
334
334
337
337
337
336
337
337
337
339
341
341
343
343
344
344
344
345
346
347
346
346
346
345
348
348
351
352
347
345
339
341
339
336
337
334
336
333
332
332
331
333
332
333
327
323
318
320
337
370
419
479
537
584
603
588
539
476
423
386
363
348
331
319
307
294
285
278
273
270
266
264
259
260
258
257
254
250
250
248
247
246
245
244
241
241
243
240
240
241
243
244
246
250
252
256
261
267
273
283
288
294
301
307
317
325
330
336
340
345
350
353
356
356
360
356
354
352
351
353
346
345
344
344
345
341
344
341
340
340
337
336
334
334
337
337
336
334
332
332
332
330
332
334
334
333
330
333
334
336
339
339
341
339
340
339
339
339
341
341
344
346
346
346
346
347
351
348
348
345
344
339
337
334
334
332
331
330
330
327
327
326
327
325
325
321
318
317
327
356
398
452
508
557
591
601
580
534
473
424
386
360
344
325
314
301
290
281
271
271
270
267
264
261
261
259
254
252
252
253
250
250
247
245
240
239
236
236
233
236
236
236
237
240
245
248
254
259
264
267
274
280
290
297
304
308
316
324
327
333
332
340
346
348
351
356
353
351
351
352
352
348
348
344
341
340
339
339
337
338
339
334
331
330
333
334
334
333
332
333
332
330
333
332
332
334
332
333
332
333
337
338
336
339
339
338
337
334
341
344
345
348
351
350
350
346
346
348
346
348
346
346
343
338
337
336
334
334
332
334
334
334
332
331
332
330
332
328
324
318
323
336
361
404
460
508
554
581
584
556
501
444
396
367
351
336
325
311
299
290
280
277
273
271
271
268
267
266
261
258
254
254
254
254
251
250
243
244
241
241
243
245
243
241
243
245
251
256
261
266
271
272
280
291
299
307
312
320
325
330
334
339
346
356
363
367
370
368
366
366
365
360
358
358
358
358
358
353
351
348
348
348
350
348
346
343
341
343
344
344
344
341
339
334
337
337
339
345
352
345
344
341
345
346
348
350
352
353
354
354
354
353
356
357
358
356
356
356
354
356
360
360
358
354
353
353
351
350
350
348
345
344
344
341
343
346
344
340
336
330
332
356
388
433
487
543
586
600
574
520
457
410
380
363
346
333
321
310
299
290
287
281
276
273
273
271
271
267
268
264
259
259
259
256
256
253
252
253
251
250
248
248
247
251
254
257
259
261
271
278
283
288
297
304
311
318
327
334
340
346
351
356
359
364
367
370
370
367
366
365
361
359
358
360
359
356
353
352
354
353
351
352
350
348
351
347
346
345
346
348
345
344
344
344
344
344
346
345
344
344
346
346
345
348
348
348
351
348
351
352
354
353
356
356
353
354
351
351
354
357
359
358
354
348
346
346
348
343
344
340
339
333
337
339
337
340
339
337
330
325
334
356
391
440
497
554
597
618
600
554
493
438
404
379
363
345
332
319
305
294
287
285
280
279
274
274
273
271
268
265
265
264
261
257
259
260
257
254
250
252
253
253
254
254
257
258
260
265
270
273
280
286
293
299
304
310
318
324
331
337
344
348
356
358
363
363
365
367
367
366
363
361
363
360
360
361
356
353
351
352
353
350
348
348
348
348
350
348
346
348
346
345
344
341
340
341
344
345
346
345
346
346
346
346
348
348
351
348
351
350
348
348
353
356
358
358
358
358
356
357
356
358
360
353
351
346
344
348
344
341
340
339
337
337
336
336
337
337
336
332
327
325
333
353
391
441
501
558
596
601
570
513
452
410
379
364
348
334
318
307
297
287
280
274
268
266
261
261
259
254
254
252
252
250
250
250
248
250
251
246
243
240
238
236
238
238
241
245
245
247
252
258
264
271
278
284
294
300
307
316
323
325
330
334
341
346
352
348
351
351
351
353
346
344
344
344
344
338
337
336
337
333
336
337
334
332
332
330
330
326
325
325
326
325
326
324
325
325
325
330
332
331
330
330
331
330
332
330
334
332
336
334
337
334
341
340
339
340
337
338
339
337
339
339
339
333
327
325
326
326
328
331
330
325
318
316
318
320
323
320
313
308
308
325
351
394
445
503
551
574
560
519
461
404
366
345
327
314
301
288
273
268
261
260
257
254
254
254
254
251
247
243
239
238
237
234
236
233
233
231
228
225
224
226
228
231
233
237
238
239
243
245
252
259
267
274
280
287
297
305
316
324
324
330
332
341
346
352
351
347
346
345
346
344
339
337
337
334
334
336
337
337
334
333
332
331
330
328
327
325
325
325
325
325
323
325
325
324
323
325
326
328
330
327
325
330
332
333
332
331
336
334
334
336
337
341
344
339
339
339
337
334
336
334
334
334
333
330
328
328
324
321
320
319
321
323
325
325
324
320
313
310
313
331
366
419
484
534
572
585
570
524
461
405
367
346
332
318
305
293
283
271
265
263
261
257
252
250
247
246
246
245
243
238
236
236
233
236
231
233
231
228
230
231
233
234
236
238
243
244
247
252
257
263
271
277
285
288
294
303
311
320
330
334
341
344
344
348
352
350
353
348
351
348
346
346
344
344
343
339
337
334
334
334
332
331
331
330
332
330
330
327
327
327
326
323
327
330
330
330
327
330
330
330
332
330
332
336
337
339
337
338
340
339
339
341
341
343
344
344
344
341
344
343
344
341
339
337
336
333
332
330
330
330
327
327
327
324
326
325
327
320
313
316
330
359
403
458
518
565
600
605
574
518
453
405
374
358
341
325
311
300
288
279
274
272
268
266
261
257
257
256
257
254
254
250
248
248
247
250
245
245
243
240
238
240
243
246
250
250
254
256
261
268
274
280
290
297
303
311
318
325
331
337
344
347
352
353
358
358
359
360
360
360
358
356
356
352
353
352
351
350
348
346
346
348
353
346
346
344
344
338
341
341
340
344
346
340
340
341
344
344
344
344
346
346
345
346
348
350
351
352
351
353
356
358
358
360
360
360
361
359
360
360
360
360
359
358
360
352
348
345
348
353
351
352
350
348
346
345
346
346
344
339
337
340
354
381
424
479
534
581
610
611
577
524
468
424
397
383
365
350
337
324
311
301
294
292
290
287
287
287
286
284
283
276
276
273
271
268
264
266
266
266
266
264
265
265
266
264
265
266
271
273
280
287
292
300
307
311
316
324
330
336
344
353
363
370
376
378
379
384
387
387
384
379
377
377
373
374
379
380
384
377
374
371
367
367
366
366
361
363
363
363
364
363
365
363
363
363
363
366
366
367
365
363
366
366
366
367
368
367
368
370
372
374
379
379
381
383
381
385
381
379
379
374
373
373
379
381
376
376
372
370
370
367
366
363
366
365
367
366
363
361
363
363
360
354
356
372
407
459
523
579
614
613
576
518
460
414
393
377
363
348
334
325
311
311
306
303
304
298
301
301
299
297
294
292
290
287
288
286
280
278
276
276
278
278
278
280
279
279
278
279
280
284
290
294
303
307
318
326
334
343
351
361
368
377
386
386
391
393
396
396
392
393
394
394
393
391
391
391
391
391
388
386
385
381
378
376
374
377
377
378
377
374
374
376
372
374
373
372
374
372
376
376
377
377
377
377
377
377
379
381
385
388
385
381
384
386
392
388
388
386
387
386
387
386
387
387
386
384
379
377
374
374
377
376
376
374
371
372
371
372
371
370
367
361
356
356
367
400
445
504
561
608
625
603
546
478
428
401
388
371
356
343
330
318
311
306
303
299
297
297
297
294
293
292
290
287
285
281
279
276
277
272
273
272
271
268
268
268
271
273
278
279
280
285
288
292
304
311
320
327
330
339
345
348
358
367
373
378
380
385
386
386
387
384
383
378
377
377
374
372
368
367
368
365
363
363
363
363
363
363
359
357
356
356
356
354
354
354
353
352
350
352
358
356
356
356
356
360
358
358
358
359
360
359
360
358
360
360
361
363
366
367
367
366
366
363
361
359
358
354
352
348
348
350
351
348
346
344
345
344
344
343
338
336
328
334
352
384
433
494
547
593
614
598
552
492
437
400
378
364
346
330
316
304
293
285
280
280
276
273
267
265
264
264
261
260
260
257
256
252
251
251
248
247
245
243
245
246
248
250
253
250
257
258
263
267
273
281
287
297
301
307
316
321
330
334
341
346
351
351
356
356
358
358
358
356
353
350
348
346
346
346
348
345
344
341
339
339
340
340
341
337
337
331
336
334
337
337
332
334
332
333
331
330
332
334
337
337
337
338
337
337
339
339
340
341
343
347
347
346
346
346
348
345
346
345
345
345
346
341
339
337
332
332
331
325
327
330
330
330
327
330
327
330
327
323
320
317
330
357
399
454
513
561
591
594
558
499
440
397
368
358
340
320
306
292
280
271
271
270
264
261
259
257
259
258
259
258
252
250
247
245
239
243
243
243
240
236
238
237
238
240
243
245
248
251
254
259
265
270
278
286
294
301
306
313
323
330
337
341
345
348
350
353
354
354
356
353
352
348
350
348
346
345
337
339
337
337
337
333
337
337
337
336
337
336
334
333
332
330
332
331
331
330
334
334
334
333
337
336
337
339
339
340
343
343
341
340
343
343
344
345
346
348
350
350
353
348
348
347
346
346
339
338
337
336
336
337
336
334
332
331
332
333
332
333
331
325
323
327
345
372
414
465
519
559
581
574
536
480
424
384
365
348
331
317
306
294
287
279
273
267
266
260
264
264
264
264
259
258
254
253
253
251
250
248
246
245
243
244
241
240
243
245
246
251
254
260
265
270
273
279
285
297
306
316
324
327
334
339
345
347
351
357
363
368
365
363
359
358
360
360
363
360
360
358
354
352
350
348
346
345
345
344
345
344
344
343
343
344
343
341
337
337
338
340
343
343
348
347
346
344
346
348
350
348
351
353
350
353
356
356
360
358
360
360
363
364
361
360
360
360
359
358
353
352
351
348
345
345
344
344
343
343
344
344
343
338
332
332
344
367
407
460
517
568
600
601
566
504
445
400
374
361
351
332
321
311
301
291
288
285
284
280
278
278
277
276
274
270
268
263
261
259
260
259
259
257
257
257
256
256
258
257
259
261
264
265
271
278
285
292
299
308
318
325
330
339
346
353
361
368
367
372
374
377
379
377
377
373
372
368
367
365
365
365
363
360
358
357
354
353
353
353
352
353
354
357
356
354
356
352
354
352
351
353
350
353
356
353
354
356
356
360
356
358
358
359
363
360
359
360
363
363
366
367
366
367
367
365
366
363
363
360
356
354
356
357
353
353
351
352
348
346
348
348
348
346
345
339
334
339
356
385
428
487
539
587
616
604
563
503
445
407
385
367
350
336
325
313
300
294
290
286
284
279
276
276
277
277
276
271
270
265
264
263
259
259
257
256
254
254
257
254
257
258
259
259
265
268
276
283
287
299
307
312
318
323
330
337
341
348
356
358
361
364
367
367
371
370
370
367
366
364
365
363
363
361
360
358
354
353
351
353
354
354
353
348
348
348
348
350
348
348
351
346
346
345
346
351
350
348
347
348
350
348
351
352
354
354
356
356
356
356
356
354
356
358
360
360
363
361
361
360
359
358
356
352
350
348
348
348
346
345
344
344
346
341
341
341
343
336
332
332
341
366
410
464
523
572
607
611
579
523
464
420
390
374
358
341
327
317
306
300
293
287
285
281
279
277
276
276
273
271
268
265
264
261
261
263
259
259
254
251
254
254
257
254
257
257
260
263
266
270
276
284
292
298
306
311
317
325
331
336
341
348
351
358
361
366
370
372
373
368
367
363
363
363
361
363
363
361
360
358
356
358
351
352
351
352
356
352
351
352
354
354
351
348
346
348
348
346
348
348
351
352
351
353
354
353
356
356
356
356
358
358
360
360
363
363
363
363
363
363
365
363
361
366
358
353
351
352
356
353
353
350
348
348
346
348
350
348
351
344
339
333
334
348
377
417
468
523
568
596
587
547
490
436
399
374
361
348
334
325
316
307
297
292
288
286
283
278
278
278
276
277
271
267
266
265
266
264
261
257
257
259
257
254
254
256
257
257
257
259
264
268
276
283
290
296
304
311
318
324
330
336
346
353
360
365
368
376
377
377
374
376
379
374
374
368
365
364
360
363
363
364
361
360
359
356
356
357
356
353
353
352
347
347
348
348
352
352
353
353
354
352
352
353
353
354
356
358
359
356
354
356
356
358
365
366
367
365
365
367
363
364
365
368
370
365
363
358
359
359
360
358
354
351
350
350
347
348
348
348
348
348
344
339
340
353
379
424
478
536
581
603
596
550
487
433
397
377
363
345
332
317
311
301
293
287
284
286
285
283
280
277
276
271
271
270
270
268
266
264
261
259
257
256
252
253
257
256
256
252
254
257
261
270
276
281
288
293
304
310
318
326
334
347
348
354
358
363
367
368
373
374
374
373
372
372
370
367
367
366
366
363
360
358
358
356
356
357
354
352
352
348
347
346
348
346
346
346
346
348
350
348
350
346
345
348
346
348
346
348
353
350
350
348
352
353
353
356
358
358
358
359
360
360
361
361
361
359
356
352
348
348
350
347
348
346
344
340
339
339
339
339
341
339
340
337
332
330
340
364
405
461
520
570
605
611
573
519
460
414
385
364
348
332
318
306
297
286
278
277
273
273
271
267
266
264
264
260
259
257
256
254
252
250
246
245
243
245
246
250
250
250
252
252
252
261
265
271
278
281
290
297
306
312
320
326
332
338
341
348
351
358
359
363
364
363
361
359
360
357
356
354
356
353
350
348
352
350
350
345
346
346
345
344
344
345
346
344
344
339
339
336
341
341
340
343
346
341
343
341
345
347
346
348
348
348
350
352
353
352
354
353
356
354
356
358
358
358
359
354
353
348
348
348
346
347
344
343
339
339
337
337
341
339
344
340
337
333
324
330
348
379
428
490
548
596
613
588
534
473
421
392
376
358
343
327
317
306
296
288
285
280
278
277
273
272
271
268
268
266
264
260
259
259
256
251
252
251
252
251
250
254
254
254
253
257
259
264
268
273
276
280
287
294
304
311
318
325
333
338
344
353
356
360
366
366
367
366
367
366
364
366
366
366
363
358
358
357
356
356
356
356
358
352
351
351
352
353
351
350
347
348
350
348
348
346
348
350
348
347
348
350
352
353
354
357
356
354
356
358
363
365
365
367
366
364
366
363
364
364
366
366
363
359
360
356
356
354
356
358
350
348
348
352
353
353
353
348
346
344
337
336
345
361
393
438
485
534
579
604
594
551
487
426
386
365
353
340
332
321
308
300
290
287
285
283
280
284
283
283
278
273
273
272
270
268
266
264
261
259
261
259
259
259
259
259
261
261
266
268
271
279
283
286
290
297
304
311
318
330
341
350
358
363
367
373
377
379
381
381
380
377
376
377
373
372
370
367
370
364
363
363
363
365
366
365
363
360
360
358
359
358
360
358
358
358
356
356
354
354
356
354
356
353
359
360
366
367
367
367
365
363
363
363
367
373
372
372
374
374
377
372
372
370
367
367
366
365
363
361
360
358
356
353
356
353
353
353
356
360
356
348
341
344
366
400
452
510
565
603
616
594
540
483
430
393
374
363
345
333
326
316
305
303
297
294
292
290
287
287
287
284
280
278
276
273
273
273
271
270
268
266
266
264
264
263
265
266
268
270
272
279
285
287
293
297
306
321
327
337
346
352
358
365
374
377
381
384
386
391
388
390
388
385
384
379
378
377
377
374
372
372
368
371
370
370
370
365
366
363
364
363
363
363
363
363
360
360
359
359
361
363
363
363
361
363
368
364
367
367
370
374
372
372
373
372
374
372
372
372
372
376
374
376
372
370
366
364
363
360
359
357
358
356
354
353
351
353
354
352
351
344
340
341
356
385
425
480
541
588
617
610
570
512
451
410
388
372
359
341
327
316
305
294
292
286
283
279
278
279
278
277
273
272
268
266
264
264
261
259
257
256
256
256
256
257
257
259
259
259
264
267
273
281
287
290
301
310
316
323
324
336
343
347
356
361
364
367
370
372
372
372
370
367
366
361
363
363
361
360
358
356
354
354
353
352
351
348
346
346
344
346
351
350
350
345
346
350
346
346
348
348
350
346
346
347
348
348
352
351
352
352
353
353
356
356
359
357
359
357
357
356
354
356
358
358
358
353
351
350
348
348
346
343
343
340
341
339
340
341
344
340
336
330
325
340
367
414
471
532
578
610
614
581
532
479
433
399
378
363
348
331
318
305
294
285
280
279
276
277
273
271
268
265
264
261
261
261
260
258
257
257
254
252
252
253
248
252
252
253
256
254
261
266
270
276
283
291
296
303
308
316
324
330
337
341
346
353
358
363
365
364
367
366
363
363
361
363
363
360
360
358
353
352
351
352
351
352
356
350
350
346
348
350
346
346
346
346
348
346
348
348
352
352
351
348
348
350
351
354
356
354
351
350
353
356
360
363
363
366
364
363
360
357
360
360
363
364
361
360
357
354
351
350
350
353
348
348
346
346
351
348
348
346
344
338
333
340
361
403
458
514
566
596
598
566
512
452
405
379
365
351
339
327
316
306
298
292
287
286
286
281
278
276
273
270
270
264
268
270
270
266
260
260
257
257
256
252
254
256
259
260
264
265
266
270
276
283
290
298
304
310
318
325
332
339
348
350
356
360
366
372
374
380
379
377
376
376
374
374
372
368
364
363
365
359
363
366
367
367
363
359
357
358
358
356
358
356
353
352
350
348
350
353
356
358
359
358
358
358
356
356
356
356
356
363
370
371
374
373
374
370
366
365
367
368
374
370
372
370
367
367
360
360
359
356
356
353
353
354
358
359
359
356
356
352
348
344
344
352
376
419
480
537
586
607
593
545
480
431
393
376
365
352
340
330
321
308
297
297
294
290
287
283
285
285
285
280
276
273
271
271
268
266
266
263
260
260
261
263
261
261
261
264
264
267
273
277
283
290
292
303
311
318
326
334
340
350
358
363
370
372
377
377
379
384
381
381
378
378
377
372
373
371
370
370
366
365
363
363
361
360
360
358
356
352
351
353
353
356
354
354
356
353
353
353
353
353
353
353
353
354
356
358
357
358
358
360
356
358
360
363
367
363
365
363
365
365
363
363
366
363
363
356
353
352
351
351
354
352
348
348
346
345
346
347
348
346
346
339
334
334
345
377
423
478
532
580
605
607
573
520
464
419
396
373
359
343
327
314
303
293
287
284
280
279
274
273
270
270
268
266
265
261
259
258
257
254
252
252
250
250
251
251
251
251
252
252
256
259
261
267
273
278
285
292
294
306
313
320
327
331
341
346
348
354
358
358
359
360
363
363
363
361
360
359
356
354
351
348
348
348
346
346
345
344
341
341
340
340
341
338
340
339
339
336
337
334
331
334
336
337
337
333
337
337
337
339
341
343
344
339
340
340
343
346
346
348
348
346
348
348
350
350
351
350
348
346
341
340
339
339
337
336
334
332
331
331
333
333
332
330
330
328
324
316
318
330
356
399
454
513
567
599
592
548
486
430
387
366
346
330
313
303
290
279
273
270
265
261
259
257
256
254
252
250
248
250
245
245
243
240
240
238
236
237
233
228
233
232
233
236
236
241
245
250
254
259
264
268
276
286
292
301
308
316
325
330
336
339
341
346
345
345
346
345
345
345
346
345
343
340
339
339
340
339
337
336
333
325
330
328
331
330
327
332
331
327
327
325
324
326
327
330
327
328
331
331
330
330
334
334
336
336
339
338
339
341
344
341
345
344
346
346
346
348
346
345
345
343
344
343
340
337
337
334
327
330
332
330
328
326
327
328
330
333
330
328
323
321
332
358
397
454
516
568
592
574
527
461
406
370
351
339
327
316
304
293
283
273
268
264
261
261
261
261
260
258
252
253
250
248
247
243
243
241
240
236
236
233
233
231
233
233
236
240
245
250
252
256
261
267
276
286
297
305
313
317
321
327
337
343
350
351
356
356
356
356
356
352
356
352
351
345
344
346
341
341
341
339
337
337
336
337
339
337
337
333
332
334
336
336
337
334
332
330
330
328
331
334
339
341
337
336
333
337
339
344
346
348
348
348
346
347
346
345
350
353
351
352
348
348
352
348
346
341
338
336
334
337
337
339
337
334
332
333
333
330
324
325
325
339
363
405
459
517
567
601
603
570
513
447
398
367
350
336
324
311
299
286
285
281
276
273
268
266
261
260
261
259
259
258
257
256
251
250
245
244
240
241
240
241
244
245
245
245
247
250
257
263
267
271
283
292
301
307
317
319
327
334
339
350
354
360
361
367
372
370
370
370
370
368
366
363
360
357
356
353
352
352
356
353
351
348
351
350
350
348
348
344
345
344
346
346
346
347
348
348
347
346
348
347
350
352
351
347
346
348
356
351
354
356
358
359
358
359
361
363
364
363
361
360
360
360
358
357
354
353
351
350
346
345
346
345
346
348
348
347
345
343
339
334
336
348
377
420
476
534
585
614
613
568
506
445
404
383
366
352
337
325
313
301
292
286
283
281
279
278
274
273
271
270
266
265
264
260
259
257
254
252
252
253
250
252
252
253
252
256
257
263
266
271
278
283
290
294
304
306
318
325
332
339
350
352
358
361
366
366
366
370
372
373
372
367
366
363
361
359
358
356
358
359
356
356
356
352
352
350
351
350
348
347
346
348
348
346
346
347
346
352
348
347
347
348
354
350
348
352
351
352
352
353
356
356
358
358
360
360
363
361
361
363
363
360
360
358
356
354
351
347
346
344
346
346
346
348
348
348
346
343
341
337
336
334
341
361
400
445
504
565
608
627
596
545
485
436
403
379
363
344
327
316
303
294
290
287
286
283
278
276
273
273
271
266
265
265
261
258
257
254
252
253
252
251
250
253
256
256
257
261
264
266
268
271
280
288
299
307
313
318
325
332
338
346
353
358
363
366
370
370
372
371
373
371
368
365
366
366
361
363
363
363
361
358
360
357
354
353
353
354
359
353
351
350
352
354
351
352
351
353
352
352
353
354
356
358
356
354
354
358
359
361
363
363
365
365
367
366
367
368
367
367
367
367
367
365
366
363
359
358
354
356
361
357
354
352
350
351
346
348
351
353
353
348
344
341
356
386
431
490
551
600
619
603
557
497
445
410
388
374
358
344
330
318
308
300
293
290
287
285
281
280
280
278
280
276
273
273
273
267
268
265
265
264
259
259
257
257
259
258
261
266
271
273
278
280
288
293
300
311
318
328
334
341
348
358
366
368
374
376
379
379
383
384
383
381
381
378
377
374
377
378
372
367
366
363
370
368
370
370
367
363
359
356
356
358
360
361
361
363
363
361
363
361
363
363
363
363
363
366
367
368
370
370
365
365
368
376
374
374
377
374
374
378
379
377
374
378
379
372
367
363
363
363
358
358
360
363
363
366
363
361
361
360
356
348
346
353
372
410
464
523
579
612
613
579
520
460
414
388
372
358
344
331
318
307
301
297
298
297
293
293
287
284
280
273
276
273
274
271
271
272
272
270
266
264
261
264
261
264
265
265
264
267
274
281
290
294
303
311
321
328
339
344
353
358
365
370
377
385
386
388
394
391
388
386
385
385
378
377
377
376
372
371
370
370
370
370
365
366
364
365
363
360
359
356
358
358
361
363
363
363
359
360
360
363
363
360
363
361
366
365
365
366
365
367
370
372
374
379
377
376
374
374
379
374
377
374
372
370
366
364
361
361
360
360
361
360
361
358
358
356
353
353
351
346
341
346
363
398
448
505
565
607
624
603
544
483
426
392
377
367
350
334
325
311
298
294
290
291
285
283
283
283
280
278
276
273
271
267
266
264
264
264
264
263
260
260
261
259
260
260
261
267
271
277
284
291
297
301
308
316
324
327
339
347
353
360
370
370
372
374
377
379
377
374
372
371
370
367
370
367
366
363
363
360
360
358
358
356
356
353
353
352
351
351
351
352
350
348
351
352
350
348
351
350
350
348
350
351
356
353
356
357
356
360
360
360
360
361
363
363
361
361
363
364
363
363
361
361
359
354
351
352
351
348
350
346
344
344
341
341
344
344
346
344
339
333
334
356
396
448
512
564
604
620
603
551
490
437
403
383
368
350
337
323
311
298
290
283
278
274
273
273
273
270
268
266
261
260
259
257
254
252
252
251
250
250
248
250
248
251
252
253
254
259
261
268
273
278
286
292
299
307
316
323
331
337
341
347
350
354
360
363
364
363
364
363
363
360
360
360
356
354
351
350
351
352
351
350
350
346
346
347
346
345
344
344
343
340
340
338
343
344
344
344
348
344
343
340
343
346
348
348
348
348
351
350
351
352
356
357
356
356
356
357
356
356
356
353
353
352
352
348
346
345
346
344
341
339
339
338
340
339
344
340
336
331
325
330
341
367
410
464
523
574
608
607
567
512
447
405
379
359
344
328
316
304
292
284
280
278
276
274
271
265
268
264
261
260
259
259
257
254
254
254
253
251
250
250
246
247
250
250
252
252
259
263
266
270
274
283
290
299
308
317
325
331
339
344
350
356
360
363
366
365
367
367
367
364
363
360
356
353
351
354
356
358
354
352
350
348
356
350
351
348
351
353
346
344
344
343
346
346
346
343
345
346
348
347
348
348
351
353
354
353
356
357
356
358
358
357
356
359
363
363
365
364
366
363
364
363
363
361
366
359
356
350
348
348
346
345
346
352
351
348
346
344
346
343
340
343
351
377
416
467
523
574
604
599
556
493
434
396
370
358
344
333
323
311
299
296
290
288
286
284
280
278
274
273
276
272
274
270
268
264
257
258
259
257
254
252
257
261
264
264
261
264
266
270
277
281
285
290
301
311
321
330
339
345
353
360
367
370
372
376
377
379
381
384
387
386
384
383
374
374
370
368
370
365
367
367
367
367
370
370
367
366
363
360
360
358
356
356
358
358
360
361
363
361
360
358
360
363
365
366
365
366
367
370
368
370
368
368
372
377
374
372
374
378
385
381
381
379
378
376
373
376
372
370
367
363
363
361
366
366
366
365
363
361
356
348
346
354
376
406
454
511
570
616
633
612
557
499
445
405
386
377
365
350
334
325
313
311
307
303
301
297
297
294
292
286
285
285
286
287
284
279
277
274
271
268
271
268
271
273
277
276
276
279
280
285
288
292
299
306
316
323
330
337
345
354
363
372
385
385
391
390
393
396
394
394
393
394
391
388
386
383
385
383
384
381
384
380
378
377
374
376
376
374
374
373
372
370
370
370
370
370
370
367
366
366
365
366
367
370
372
372
372
372
376
379
374
374
374
377
381
377
379
378
379
383
381
381
379
379
379
378
377
374
371
367
367
367
365
363
363
363
363
363
363
360
363
360
353
348
351
368
404
450
508
567
614
640
631
592
527
467
428
404
388
370
356
340
327
317
308
305
301
298
293
292
290
288
285
281
279
276
273
271
271
270
268
268
267
267
266
265
264
265
268
270
271
274
280
280
291
293
301
310
313
325
332
340
346
352
358
366
372
374
379
381
384
386
386
386
385
381
377
376
372
374
376
376
372
367
367
366
365
367
367
370
368
366
363
359
360
360
360
359
356
356
363
358
360
359
360
365
360
360
360
363
366
364
367
366
365
364
365
366
366
367
367
370
370
368
370
370
370
368
367
367
363
359
358
356
356
356
356
353
351
352
351
350
354
348
346
339
334
337
360
396
443
500
556
603
626
604
550
483
432
399
379
361
345
331
318
306
297
290
286
283
279
276
274
272
270
267
266
261
260
259
257
256
256
254
252
250
250
250
250
250
252
254
254
257
259
264
271
278
285
290
297
301
307
312
320
326
332
339
346
348
353
356
358
360
360
359
356
354
354
352
351
351
348
346
344
344
343
341
341
339
339
333
337
336
336
334
330
332
332
331
330
330
330
330
330
331
331
330
331
331
332
333
337
337
337
337
337
338
337
339
341
341
341
340
341
341
341
341
344
341
341
336
334
328
327
327
327
328
323
324
321
321
323
321
325
323
321
317
313
308
311
328
363
410
466
524
577
596
576
521
457
403
371
348
334
317
301
287
276
265
261
254
254
252
250
252
248
245
243
240
238
238
234
233
231
226
224
221
224
225
224
224
224
225
226
228
231
234
240
246
250
253
259
266
273
284
293
299
307
312
321
326
330
333
337
337
337
336
336
334
334
332
327
331
333
333
331
326
330
326
325
324
323
320
318
316
317
317
318
318
318
316
313
311
313
316
318
318
318
314
316
317
323
324
324
324
323
321
323
325
327
328
328
326
320
324
325
326
327
325
330
327
330
325
320
317
316
314
317
316
317
314
313
313
313
313
312
311
308
307
301
300
313
344
388
445
504
548
570
556
511
445
391
356
337
324
311
298
286
274
264
254
252
248
247
247
246
246
243
238
236
231
231
230
227
226
224
223
224
225
224
224
224
221
219
218
219
223
227
233
240
246
251
257
266
273
284
292
299
307
312
318
324
325
336
340
345
344
346
341
341
339
337
336
337
334
336
336
333
333
332
330
327
328
326
325
325
325
325
324
323
324
321
318
318
319
320
321
325
324
325
325
324
325
328
328
333
333
331
330
327
332
334
334
337
337
339
340
341
344
345
344
341
339
336
334
331
331
330
330
327
325
325
327
327
330
330
327
327
325
320
313
317
325
351
393
452
511
564
594
592
554
501
440
394
363
345
326
317
301
291
280
271
265
264
261
259
259
257
254
252
250
250
248
247
244
245
245
243
238
236
232
233
233
238
240
241
244
243
245
248
253
259
266
268
279
287
298
306
310
320
