-920
-921
-917
-913
-913
-918
-919
-915
-912
-917
-923
-926
-924
-922
-925
-930
-934
-936
-936
-934
-930
-933
-937
-936
-934
-932
-933
-932
-929
-928
-926
-913
-876
-810
-747
-710
-690
-679
-675
-681
-699
-732
-793
-883
-956
-966
-944
-925
-920
-923
-925
-928
-929
-932
-939
-943
-941
-936
-930
-929
-930
-930
-930
-930
-932
-932
-930
-927
-923
-918
-915
-916
-923
-928
-921
-913
-910
-907
-903
-899
-900
-902
-898
-891
-885
-879
-875
-874
-873
-872
-868
-863
-859
-855
-855
-855
-853
-849
-847
-849
-854
-859
-864
-872
-879
-884
-888
-895
-902
-910
-912
-913
-915
-921
-921
-922
-926
-927
-928
-925
-924
-921
-921
-926
-928
-927
-925
-922
-921
-925
-927
-924
-922
-927
-930
-930
-928
-925
-922
-924
-924
-926
-929
-927
-925
-922
-925
-929
-930
-929
-928
-927
-928
-929
-933
-935
-930
-925
-926
-928
-933
-933
-934
-933
-930
-929
-930
-933
-934
-936
-939
-937
-931
-929
-930
-934
-938
-938
-936
-934
-933
-933
-930
-928
-933
-937
-936
-932
-932
-934
-934
-934
-934
-934
-936
-934
-932
-933
-933
-933
-930
-930
-928
-920
-914
-914
-915
-915
-915
-918
-920
-916
-915
-914
-918
-921
-921
-920
-922
-925
-928
-933
-938
-938
-938
-937
-934
-935
-936
-937
-935
-931
-928
-927
-925
-922
-910
-880
-831
-778
-741
-718
-703
-697
-701
-718
-748
-796
-873
-945
-962
-943
-924
-917
-921
-928
-932
-934
-936
-934
-933
-934
-937
-937
-935
-933
-930
-929
-927
-925
-928
-928
-925
-925
-925
-924
-921
-918
-918
-918
-918
-914
-906
-898
-898
-902
-907
-902
-896
-889
-882
-879
-876
-876
-877
-872
-865
-864
-863
-860
-858
-855
-855
-855
-858
-859
-861
-863
-872
-881
-887
-891
-895
-898
-902
-907
-912
-915
-919
-921
-922
-921
-922
-921
-924
-926
-928
-927
-928
-927
-925
-925
-928
-932
-930
-928
-926
-925
-926
-928
-930
-929
-928
-925
-926
-927
-928
-927
-928
-928
-929
-928
-929
-930
-930
-932
-934
-933
-932
-933
-934
-932
-927
-925
-928
-934
-941
-941
-936
-934
-933
-934
-938
-939
-939
-938
-938
-941
-939
-936
-938
-939
-941
-941
-940
-938
-938
-938
-939
-939
-940
-941
-939
-937
-938
-939
-941
-941
-939
-939
-941
-941
-941
-941
-941
-939
-939
-937
-940
-939
-940
-941
-941
-941
-939
-938
-940
-941
-938
-937
-936
-936
-934
-929
-923
-920
-921
-923
-926
-925
-922
-920
-918
-919
-922
-927
-929
-930
-930
-933
-934
-936
-937
-937
-938
-937
-938
-937
-936
-938
-937
-936
-934
-930
-925
-924
-910
-882
-838
-784
-743
-714
-696
-689
-695
-713
-743
-793
-868
-934
-953
-941
-929
-925
-929
-933
-934
-937
-939
-938
-938
-938
-939
-941
-941
-939
-937
-937
-937
-937
-935
-933
-933
-930
-928
-925
-926
-925
-924
-921
-917
-913
-914
-911
-911
-908
-905
-902
-898
-896
-892
-890
-884
-881
-881
-879
-874
-872
-870
-869
-866
-862
-862
-864
-864
-862
-865
-868
-875
-884
-892
-896
-899
-904
-910
-915
-917
-919
-922
-926
-928
-928
-929
-929
-930
-930
-930
-932
-932
-928
-930
-934
-934
-930
-929
-930
-929
-929
-930
-933
-932
-930
-930
-929
-928
-929
-929
-929
-930
-930
-930
-932
-934
-934
-934
-934
-936
-936
-934
-935
-936
-934
-937
-937
-936
-933
-933
-937
-941
-944
-941
-941
-941
-939
-937
-939
-944
-946
-944
-944
-945
-943
-941
-944
-943
-940
-939
-941
-943
-944
-943
-942
-941
-943
-944
-944
-944
-943
-941
-941
-939
-941
-938
-938
-941
-943
-941
-941
-943
-943
-941
-938
-938
-939
-939
-938
-941
-944
-944
-944
-943
-940
-937
-937
-939
-941
-941
-941
-937
-930
-926
-928
-929
-930
-929
-925
-922
-919
-921
-923
-921
-919
-923
-927
-925
-925
-928
-933
-937
-936
-938
-939
-941
-938
-934
-933
-934
-937
-938
-939
-934
-930
-925
-920
-905
-861
-793
-732
-695
-675
-664
-664
-675
-699
-745
-835
-932
-969
-953
-932
-922
-922
-929
-934
-938
-937
-937
-938
-937
-938
-938
-938
-939
-939
-936
-933
-932
-933
-932
-927
-925
-926
-927
-926
-923
-921
-921
-914
-911
-910
-907
-903
-902
-902
-902
-897
-891
-885
-882
-879
-875
-873
-873
-868
-864
-860
-861
-861
-860
-858
-854
-855
-861
-868
-873
-875
-877
-881
-885
-893
-902
-904
-909
-913
-919
-923
-924
-925
-929
-928
-926
-925
-925
-928
-929
-929
-927
-925
-928
-928
-925
-925
-928
-929
-929
-927
-924
-922
-921
-922
-925
-927
-928
-925
-924
-928
-930
-932
-932
-930
-928
-929
-933
-934
-929
-928
-932
-934
-934
-934
-937
-938
-937
-938
-939
-941
-939
-937
-938
-939
-940
-941
-941
-941
-938
-939
-943
-941
-938
-936
-937
-941
-945
-945
-941
-941
-944
-944
-944
-943
-941
-941
-939
-938
-938
-940
-939
-939
-938
-936
-940
-947
-947
-944
-941
-941
-944
-944
-940
-937
-937
-939
-941
-941
-939
-936
-934
-933
-929
-926
-924
-925
-928
-929
-926
-924
-922
-922
-927
-931
-930
-929
-932
-934
-933
-933
-936
-939
-941
-938
-937
-939
-939
-938
-934
-933
-933
-934
-933
-927
-909
-867
-798
-733
-694
-678
-672
-672
-683
-704
-749
-837
-940
-981
-963
-934
-922
-926
-933
-938
-941
-941
-941
-941
-937
-934
-936
-937
-938
-937
-937
-934
-930
-927
-927
-929
-930
-929
-925
-921
-921
-919
-917
-913
-911
-911
-910
-904
-904
-902
-897
-888
-883
-880
-878
-877
-875
-868
-860
-858
-858
-853
-849
-847
-849
-847
-847
-851
-857
-862
-866
-870
-878
-885
-892
-898
-904
-907
-910
-916
-920
-921
-922
-925
-928
-930
-933
-933
-933
-932
-933
-933
-932
-930
-929
-930
-928
-928
-928
-929
-928
-927
-925
-927
-930
-929
-929
-928
-926
-928
-930
-929
-926
-926
-929
-933
-933
-929
-929
-932
-933
-933
-933
-932
-932
-933
-933
-933
-933
-935
-939
-938
-938
-939
-939
-939
-939
-939
-939
-938
-938
-938
-941
-941
-939
-938
-938
-937
-938
-939
-941
-940
-939
-939
-941
-941
-939
-934
-934
-939
-940
-939
-941
-943
-941
-939
-934
-934
-937
-939
-939
-937
-934
-935
-933
-928
-924
-924
-921
-922
-927
-928
-924
-919
-919
-922
-925
-928
-930
-932
-930
-933
-936
-938
-939
-939
-937
-937
-938
-941
-940
-937
-933
-932
-929
-926
-915
-893
-846
-781
-729
-699
-681
-675
-680
-692
-718
-766
-849
-934
-962
-949
-933
-925
-927
-928
-932
-934
-937
-937
-934
-934
-936
-938
-941
-938
-933
-929
-929
-933
-935
-931
-928
-927
-925
-925
-921
-919
-918
-919
-920
-915
-911
-906
-903
-899
-897
-896
-893
-888
-885
-884
-879
-873
-867
-860
-856
-858
-855
-853
-851
-849
-847
-849
-851
-851
-854
-858
-864
-870
-879
-886
-889
-892
-902
-911
-916
-918
-918
-919
-921
-925
-925
-928
-927
-927
-925
-923
-922
-926
-929
-933
-932
-928
-928
-928
-927
-927
-927
-926
-927
-928
-928
-929
-925
-925
-925
-925
-927
-928
-928
-925
-922
-924
-928
-930
-930
-929
-928
-929
-933
-934
-934
-934
-936
-934
-933
-933
-933
-933
-934
-934
-935
-936
-936
-936
-937
-934
-936
-937
-939
-938
-940
-939
-939
-941
-940
-937
-936
-937
-939
-939
-940
-940
-938
-936
-934
-934
-934
-937
-941
-941
-938
-934
-934
-936
-937
-938
-938
-936
-937
-936
-929
-922
-919
-921
-924
-920
-918
-919
-921
-920
-919
-921
-925
-925
-924
-925
-925
-930
-936
-939
-939
-939
-941
-939
-934
-933
-934
-938
-938
-934
-930
-928
-929
-924
-902
-854
-786
-731
-699
-680
-670
-670
-681
-706
-745
-822
-920
-971
-962
-939
-923
-919
-925
-934
-941
-942
-938
-938
-940
-941
-941
-934
-932
-932
-933
-938
-941
-938
-933
-925
-924
-925
-927
-928
-926
-922
-920
-918
-915
-913
-913
-911
-905
-902
-897
-894
-892
-893
-891
-886
-881
-875
-869
-865
-864
-862
-860
-856
-856
-855
-856
-853
-850
-851
-856
-867
-872
-877
-883
-888
-892
-900
-907
-911
-911
-913
-920
-925
-928
-931
-931
-933
-933
-930
-930
-929
-932
-932
-930
-930
-932
-933
-932
-930
-932
-932
-932
-932
-930
-930
-930
-929
-932
-933
-935
-934
-934
-930
-928
-928
-930
-934
-937
-934
-932
-932
-935
-937
-936
-932
-931
-937
-943
-942
-939
-938
-940
-941
-939
-937
-938
-937
-939
-943
-944
-944
-941
-941
-939
-939
-941
-945
-948
-945
-944
-945
-945
-941
-940
-941
-944
-945
-944
-944
-941
-942
-943
-945
-944
-941
-938
-941
-944
-944
-944
-947
-944
-941
-941
-945
-945
-945
-941
-941
-941
-941
-944
-943
-943
-939
-934
-929
-925
-924
-921
-919
-920
-925
-927
-924
-924
-925
-932
-934
-933
-936
-936
-937
-937
-938
-943
-948
-950
-947
-942
-941
-939
-939
-941
-943
-943
-941
-938
-925
-897
-839
-772
-722
-695
-680
-672
-675
-689
-716
-764
-850
-941
-976
-960
-934
-924
-927
-935
-941
-945
-944
-941
-943
-944
-948
-948
-944
-941
-941
-941
-941
-941
-938
-934
-934
-939
-940
-934
-929
-928
-928
-925
-924
-920
-919
-918
-915
-912
-909
-906
-904
-899
-895
-894
-893
-888
-880
-876
-876
-874
-869
-864
-865
-864
-862
-864
-862
-861
-862
-867
-879
-883
-885
-888
-896
-903
-911
-918
-922
-925
-927
-930
-934
-934
-933
-933
-934
-934
-936
-937
-940
-939
-937
-937
-938
-937
-934
-934
-936
-937
-939
-939
-941
-941
-938
-933
-929
-932
-937
-940
-937
-936
-934
-938
-941
-941
-939
-938
-939
-940
-942
-944
-944
-941
-939
-940
-942
-943
-943
-944
-944
-943
-945
-946
-943
-943
-946
-948
-950
-950
-948
-948
-948
-949
-951
-951
-952
-950
-948
-948
-948
-949
-948
-949
-948
-948
-945
-945
-948
-951
-953
-951
-948
-948
-950
-948
-947
-945
-948
-948
-948
-948
-950
-951
-948
-949
-951
-948
-948
-947
-945
-944
-945
-947
-947
-945
-950
-951
-952
-947
-941
-939
-938
-936
-933
-930
-927
-929
-931
-933
-933
-929
-925
-929
-934
-938
-936
-937
-939
-939
-940
-940
-943
-947
-949
-952
-950
-948
-943
-940
-942
-947
-947
-941
-937
-927
-902
-847
-777
-726
-693
-677
-671
-671
-685
-713
-767
-861
-948
-972
-956
-934
-927
-929
-938
-946
-950
-948
-948
-947
-945
-947
-948
-948
-945
-943
-944
-945
-945
-943
-941
-939
-936
-933
-932
-933
-934
-929
-925
-922
-922
-921
-919
-917
-914
-911
-909
-903
-898
-896
-894
-888
-886
-885
-885
-880
-876
-872
-865
-859
-862
-865
-869
-871
-870
-869
-869
-874
-883
-892
-898
-903
-906
-908
-911
-919
-927
-930
-930
-930
-933
-937
-938
-937
-934
-934
-933
-936
-939
-939
-936
-935
-934
-934
-938
-941
-941
-937
-934
-934
-934
-934
-931
-932
-934
-934
-937
-937
-937
-934
-934
-936
-936
-937
-938
-939
-939
-941
-941
-941
-941
-940
-942
-945
-947
-944
-941
-945
-948
-946
-943
-944
-948
-948
-948
-945
-944
-947
-948
-951
-950
-948
-947
-951
-948
-948
-946
-948
-949
-947
-947
-948
-951
-951
-951
-952
-950
-949
-949
-948
-945
-947
-948
-949
-947
-947
-947
-944
-941
-944
-948
-950
-947
-947
-948
-948
-948
-948
-949
-948
-944
-943
-944
-947
-948
-944
-935
-929
-929
-932
-933
-929
-929
-929
-929
-930
-933
-934
-934
-934
-936
-937
-939
-943
-948
-950
-946
-941
-941
-944
-947
-946
-943
-941
-937
-933
-934
-933
-925
-888
-816
-744
-701
-680
-670
-669
-677
-699
-741
-826
-929
-976
-966
-944
-934
-933
-934
-937
-941
-944
-945
-945
-944
-941
-940
-941
-945
-945
-944
-941
-937
-934
-934
-932
-933
-935
-934
-932
-928
-925
-920
-919
-921
-921
-915
-911
-909
-909
-904
-898
-893
-889
-885
-882
-881
-873
-868
-867
-867
-864
-860
-856
-855
-853
-851
-855
-862
-868
-868
-869
-875
-884
-891
-900
-907
-910
-911
-915
-921
-925
-929
-930
-932
-933
-934
-934
-933
-936
-936
-935
-937
-935
-934
-932
-934
-936
-938
-937
-934
-933
-930
-933
-932
-932
-932
-932
-933
-934
-934
-933
-933
-933
-931
-934
-937
-938
-934
-933
-933
-937
-939
-937
-935
-938
-941
-943
-944
-944
-941
-940
-938
-938
-939
-944
-949
-948
-947
-944
-943
-943
-941
-942
-941
-946
-946
-948
-948
-947
-944
-943
-943
-941
-941
-943
-946
-947
-943
-939
-941
-947
-947
-944
-944
-944
-946
-944
-943
-941
-943
-944
-944
-939
-936
-937
-940
-938
-937
-934
-930
-926
-926
-929
-929
-925
-924
-927
-929
-930
-929
-925
-928
-934
-942
-943
-943
-942
-941
-941
-945
-945
-943
-940
-936
-937
-939
-935
-932
-929
-921
-893
-836
-768
-718
-692
-679
-675
-680
-699
-730
-798
-906
-975
-973
-943
-923
-924
-932
-938
-939
-940
-938
-937
-939
-941
-941
-941
-939
-936
-934
-933
-935
-934
-934
-933
-933
-928
-925
-922
-920
-918
-918
-917
-916
-913
-911
-909
-904
-899
-899
-901
-896
-890
-883
-877
-873
-870
-868
-864
-858
-853
-849
-847
-846
-847
-849
-855
-855
-853
-856
-861
-873
-881
-885
-888
-896
-905
-911
-915
-921
-926
-927
-929
-929
-928
-928
-930
-933
-934
-936
-936
-934
-936
-934
-933
-934
-934
-933
-932
-932
-933
-933
-930
-930
-929
-929
-930
-933
-930
-928
-930
-934
-935
-933
-929
-928
-930
-932
-932
-933
-934
-934
-932
-932
-933
-936
-938
-937
-936
-935
-937
-939
-942
-940
-939
-940
-940
-939
-938
-937
-940
-941
-941
-940
-939
-939
-939
-941
-938
-937
-940
-941
-942
-941
-941
-938
-937
-939
-941
-941
-941
-939
-938
-937
-938
-939
-941
-938
-937
-937
-936
-933
-936
-941
-938
-930
-925
-924
-926
-927
-927
-928
-923
-918
-915
-915
-921
-928
-929
-926
-925
-928
-934
-937
-934
-939
-944
-941
-936
-931
-932
-933
-933
-936
-938
-938
-936
-927
-907
-864
-799
-740
-704
-681
-667
-665
-675
-693
-729
-796
-896
-962
-960
-937
-922
-920
-925
-929
-932
-934
-934
-936
-936
-936
-939
-937
-934
-934
-934
-932
-930
-930
-932
-932
-927
-925
-927
-927
-922
-919
-918
-915
-911
-911
-906
-900
-899
-900
-902
-899
-891
-884
-883
-882
-879
-873
-869
-864
-859
-860
-857
-851
-849
-849
-849
-850
-849
-850
-850
-854
-862
-873
-876
-879
-885
-896
-903
-910
-914
-918
-923
-923
-924
-927
-929
-929
-930
-929
-928
-930
-927
-924
-927
-933
-935
-933
-932
-930
-928
-927
-927
-929
-932
-930
-929
-927
-926
-924
-923
-925
-926
-930
-932
-930
-928
-925
-929
-933
-933
-933
-932
-928
-930
-932
-932
-933
-933
-933
-934
-934
-934
-935
-938
-937
-935
-936
-938
-937
-936
-937
-941
-942
-940
-934
-934
-936
-939
-941
-941
-934
-933
-934
-940
-940
-937
-937
-938
-941
-939
-938
-935
-934
-936
-937
-939
-939
-941
-940
-934
-934
-937
-939
-939
-938
-939
-934
-925
-921
-922
-923
-921
-918
-919
-922
-921
-919
-918
-920
-926
-930
-929
-929
-929
-930
-932
-934
-936
-938
-938
-937
-939
-938
-939
-938
-937
-936
-934
-930
-927
-919
-893
-841
-776
-727
-698
-681
-675
-679
-694
-722
-773
-862
-945
-967
-948
-928
-920
-925
-933
-936
-936
-938
-940
-939
-936
-936
-937
-941
-938
-935
-932
-934
-937
-936
-934
-930
-929
-926
-925
-922
-921
-921
-921
-920
-915
-913
-910
-905
-904
-904
-899
-896
-895
-892
-889
-884
-878
-872
-869
-868
-865
-862
-860
-857
-854
-853
-855
-859
-859
-859
-862
-868
-874
-880
-886
-893
-900
-907
-911
-917
-921
-925
-928
-928
-927
-928
-930
-933
-933
-930
-928
-928
-932
-934
-936
-934
-932
-933
-933
-932
-930
-933
-932
-930
-930
-930
-929
-929
-930
-930
-930
-930
-930
-928
-932
-934
-934
-933
-933
-934
-933
-931
-930
-933
-936
-936
-934
-934
-934
-937
-937
-938
-941
-938
-937
-939
-941
-941
-939
-940
-941
-938
-937
-938
-941
-941
-941
-941
-940
-940
-941
-941
-941
-943
-941
-938
-939
-940
-943
-944
-944
-939
-938
-941
-941
-939
-939
-941
-941
-941
-939
-938
-938
-938
-940
-941
-942
-943
-943
-941
-938
-932
-925
-924
-924
-925
-924
-922
-923
-923
-922
-921
-920
-922
-926
-928
-927
-929
-933
-934
-934
-937
-939
-941
-943
-944
-941
-941
-938
-938
-938
-938
-936
-933
-930
-924
-902
-854
-787
-730
-699
-679
-670
-671
-684
-710
-760
-849
-938
-970
-952
-925
-915
-918
-928
-937
-941
-941
-941
-941
-937
-936
-937
-941
-939
-936
-934
-934
-933
-934
-934
-932
-928
-928
-929
-927
-922
-921
-919
-918
-919
-916
-911
-906
-902
-900
-902
-902
-899
-892
-885
-881
-877
-874
-873
-869
-865
-864
-865
-861
-855
-856
-859
-859
-855
-856
-861
-869
-879
-884
-888
-891
-896
-903
-909
-911
-916
-920
-921
-924
-927
-925
-925
-927
-930
-934
-930
-926
-927
-929
-929
-927
-928
-929
-929
-925
-925
-925
-926
-928
-929
-929
-927
-924
-922
-924
-928
-925
-925
-928
-932
-932
-929
-929
-930
-932
-932
-931
-932
-930
-928
-928
-930
-934
-934
-933
-930
-932
-934
-934
-936
-937
-936
-934
-933
-928
-927
-937
-943
-941
-938
-936
-936
-938
-938
-937
-934
-934
-937
-937
-936
-935
-934
-936
-937
-937
-937
-936
-934
-934
-937
-938
-938
-938
-937
-937
-934
-933
-934
-938
-938
-938
-934
-932
-932
-930
-930
-929
-926
-921
-918
-919
-920
-921
-920
-919
-920
-921
-922
-926
-925
-925
-927
-929
-933
-936
-936
-936
-937
-936
-933
-930
-932
-934
-936
-934
-928
-925
-922
-914
-889
-828
-763
-715
-688
-673
-668
-670
-688
-725
-800
-905
-962
-955
-932
-919
-918
-923
-931
-934
-937
-934
-933
-933
-933
-934
-933
-932
-929
-933
-934
-933
-929
-928
-926
-924
-923
-925
-921
-917
-915
-914
-914
-911
-909
-904
-900
-899
-900
-896
-891
-888
-885
-879
-875
-873
-869
-862
-856
-855
-854
-851
-849
-848
-847
-846
-847
-850
-853
-854
-858
-866
-875
-881
-883
-888
-897
-905
-909
-911
-911
-915
-919
-925
-926
-924
-924
-925
-925
-925
-928
-928
-929
-928
-926
-925
-922
-923
-925
-925
-926
-928
-925
-921
-919
-924
-927
-925
-923
-923
-923
-923
-923
-925
-926
-928
-926
-925
-927
-928
-929
-928
-928
-930
-930
-929
-930
-930
-930
-932
-934
-936
-935
-930
-929
-932
-936
-941
-938
-935
-934
-932
-931
-933
-936
-938
-938
-937
-934
-934
-934
-937
-938
-939
-937
-934
-933
-934
-936
-935
-936
-938
-938
-938
-937
-928
-925
-927
-928
-928
-924
-921
-922
-921
-919
-918
-921
-925
-927
-925
-922
-924
-927
-932
-934
-933
-937
-941
-941
-938
-934
-938
-942
-937
-932
-928
-929
-930
-924
-907
-868
-802
-738
-699
-679
-670
-673
-687
-714
-768
-865
-954
-972
-952
-935
-928
-929
-930
-932
-933
-932
-934
-936
-938
-937
-936
-935
-931
-930
-929
-929
-931
-933
-928
-927
-927
-925
-921
-915
-912
-913
-914
-911
-911
-910
-904
-897
-896
-895
-891
-888
-884
-879
-874
-870
-868
-865
-858
-850
-847
-847
-847
-844
-841
-842
-842
-844
-846
-847
-854
-861
-872
-882
-887
-888
-895
-904
-910
-913
-915
-919
-920
-923
-925
-925
-924
-923
-925
-925
-926
-928
-930
-932
-929
-925
-926
-924
-921
-921
-925
-928
-928
-925
-920
-920
-924
-927
-927
-922
-920
-924
-925
-924
-924
-924
-925
-922
-925
-926
-928
-928
-925
-925
-925
-929
-929
-929
-930
-929
-930
-930
-929
-928
-927
-929
-933
-936
-935
-932
-930
-932
-937
-936
-934
-931
-930
-929
-929
-932
-933
-932
-933
-934
-934
-934
-930
-928
-928
-925
-926
-929
-925
-921
-918
-918
-916
-915
-915
-914
-914
-917
-924
-925
-924
-921
-922
-925
-928
-930
-932
-934
-936
-938
-934
-930
-929
-933
-934
-930
-923
-921
-920
-911
-875
-805
-740
-696
-672
-662
-663
-675
-696
-740
-822
-924
-967
-955
-933
-921
-918
-920
-924
-930
-935
-938
-936
-930
-932
-937
-934
-929
-927
-932
-936
-932
-925
-922
-920
-924
-926
-926
-920
-918
-916
-914
-913
-906
-904
-904
-904
-902
-901
-892
-888
-885
-885
-882
-873
-869
-868
-865
-860
-858
-854
-851
-847
-845
-842
-842
-843
-847
-851
-854
-858
-864
-869
-874
-881
-891
-900
-906
-909
-911
-911
-913
-919
-925
-925
-925
-925
-925
-925
-925
-929
-928
-927
-929
-928
-926
-925
-927
-926
-925
-925
-923
-923
-925
-929
-930
-929
-925
-921
-921
-925
-928
-925
-920
-918
-920
-926
-929
-926
-924
-924
-926
-930
-929
-928
-930
-933
-933
-929
-930
-933
-933
-930
-930
-929
-930
-932
-934
-935
-934
-934
-936
-934
-933
-934
-936
-937
-937
-933
-930
-932
-935
-934
-936
-936
-936
-934
-933
-932
-932
-933
-933
-928
-924
-920
-919
-917
-918
-920
-921
-921
-916
-914
-916
-921
-928
-928
-928
-928
-933
-934
-937
-939
-943
-945
-939
-934
-935
-937
-934
-933
-934
-936
-934
-929
-915
-888
-837
-773
-725
-696
-679
-671
-675
-690
-722
-778
-872
-951
-968
-944
-921
-914
-922
-933
-939
-941
-944
-939
-934
-933
-937
-939
-941
-938
-934
-934
-936
-937
-933
-929
-927
-929
-929
-929
-926
-924
-921
-920
-919
-916
-913
-911
-911
-909
-902
-898
-896
-892
-885
-881
-882
-885
-884
-876
-868
-864
-863
-860
-856
-851
-850
-853
-854
-853
-854
-858
-861
-865
-875
-885
-893
-899
-904
-906
-911
-916
-922
-927
-930
-930
-929
-928
-926
-928
-934
-937
-934
-932
-930
-932
-933
-933
-933
-934
-934
-932
-933
-934
-936
-934
-934
-934
-934
-934
-933
-934
-935
-935
-936
-937
-935
-934
-932
-929
-932
-934
-937
-938
-937
-934
-934
-939
-941
-941
-941
-938
-937
-938
-938
-939
-941
-944
-943
-941
-939
-937
-940
-944
-944
-942
-943
-941
-941
-944
-947
-947
-946
-943
-939
-939
-943
-945
-945
-945
-947
-948
-945
-940
-938
-938
-941
-944
-945
-947
-948
-947
-943
-941
-940
-939
-944
-945
-943
-942
-941
-942
-943
-944
-941
-933
-925
-925
-925
-925
-925
-923
-923
-924
-922
-923
-924
-928
-934
-934
-933
-934
-934
-937
-941
-941
-941
-944
-947
-945
-941
-938
-939
-942
-941
-938
-934
-929
-917
-889
-841
-781
-731
-701
-682
-675
-677
-692
-721
-772
-861
-944
-968
-950
-928
-917
-921
-933
-939
-941
-941
-937
-936
-938
-944
-944
-944
-941
-936
-933
-933
-936
-938
-938
-934
-930
-929
-928
-927
-926
-922
-921
-922
-920
-916
-915
-911
-907
-904
-903
-902
-898
-893
-888
-886
-884
-879
-874
-875
-872
-867
-862
-858
-855
-855
-854
-851
-851
-851
-858
-865
-870
-876
-885
-889
-891
-897
-907
-913
-917
-921
-925
-927
-925
-925
-927
-930
-932
-930
-930
-930
-928
-928
-933
-934
-932
-929
-930
-933
-930
-928
-930
-932
-930
-930
-932
-934
-934
-934
-933
-929
-929
-930
-933
-934
-935
-929
-928
-929
-932
-933
-932
-930
-929
-933
-937
-941
-941
-941
-939
-937
-937
-937
-937
-937
-938
-939
-938
-937
-937
-939
-944
-947
-944
-940
-937
-938
-944
-948
-946
-940
-938
-940
-944
-944
-944
-941
-941
-943
-947
-944
-938
-938
-941
-942
-943
-944
-945
-941
-937
-936
-939
-943
-945
-944
-938
-936
-934
-941
-945
-944
-942
-941
-941
-941
-941
-942
-943
-943
-943
-941
-939
-938
-941
-941
-938
-934
-934
-936
-939
-945
-948
-947
-941
-941
-938
-938
-939
-940
-941
-940
-938
-934
-936
-941
-941
-937
-934
-936
-936
-936
-933
-934
-937
-941
-942
-941
-937
-933
-933
-934
-937
-937
-933
-926
-920
-921
-924
-925
-924
-922
-919
-915
-911
-911
-919
-932
-936
-931
-921
-915
-918
-923
-930
-934
-937
-935
-932
-933
-934
-933
-933
-933
-933
-930
-925
-916
-906
-884
-837
-772
-718
-685
-666
-657
-660
-675
-703
-762
-854
-938
-957
-937
-918
-911
-916
-925
-933
-934
-934
-936
-937
-937
-938
-934
-933
-934
-938
-939
-938
-934
-929
-925
-927
-929
-928
-926
-924
-920
-920
-917
-914
-911
-911
-907
-907
-909
-907
-902
-895
-892
-892
-891
-889
-888
-881
-875
-870
-865
-861
-858
-856
-858
-859
-856
-851
-851
-852
-852
-853
-861
-872
-881
-883
-884
-888
-894
-901
-910
-914
-919
-921
-922
-924
-926
-928
-927
-927
-927
-925
-925
-925
-925
-928
-929
-928
-924
-924
-925
-925
-926
-930
-930
-928
-925
-925
-924
-927
-927
-927
-925
-925
-930
-930
-925
-925
-929
-933
-933
-934
-934
-933
-933
-934
-938
-934
-934
-936
-934
-931
-929
-933
-941
-948
-944
-939
-938
-939
-941
-943
-945
-948
-948
-943
-940
-939
-941
-943
-945
-945
-944
-944
-943
-941
-945
-948
-947
-944
-941
-940
-938
-942
-947
-945
-942
-945
-948
-947
-941
-940
-944
-948
-951
-948
-944
-941
-936
-939
-945
-949
-946
-943
-945
-946
-943
-938
-936
-943
-948
-948
-946
-940
-937
-937
-935
-933
-932
-930
-930
-930
-930
-925
-920
-924
-930
-933
-934
-936
-938
-940
-938
-939
-944
-947
-947
-942
-939
-939
-942
-944
-941
-937
-935
-934
-932
-924
-895
-832
-759
-711
-687
-677
-676
-685
-696
-725
-782
-880
-964
-977
-955
-938
-932
-933
-935
-938
-941
-941
-942
-945
-944
-939
-936
-936
-938
-938
-934
-933
-936
-937
-932
-925
-925
-928
-929
-926
-923
-918
-915
-917
-916
-911
-907
-902
-899
-900
-897
-893
-888
-881
-873
-869
-867
-863
-857
-850
-850
-849
-846
-845
-842
-841
-841
-842
-845
-850
-855
-865
-873
-880
-885
-893
-902
-911
-914
-918
-922
-928
-933
-934
-934
-934
-934
-933
-931
-933
-937
-938
-939
-934
-932
-933
-936
-938
-940
-941
-938
-936
-934
-932
-929
-929
-932
-934
-935
-934
-929
-930
-934
-936
-935
-937
-938
-938
-937
-936
-933
-933
-936
-938
-939
-936
-938
-940
-938
-936
-938
-944
-945
-939
-939
-941
-941
-941
-939
-941
-944
-947
-947
-947
-945
-945
-947
-945
-943
-941
-941
-946
-948
-945
-941
-939
-941
-943
-945
-948
-948
-945
-944
-945
-948
-947
-945
-941
-939
-936
-934
-933
-929
-929
-930
-935
-934
-933
-928
-927
-930
-934
-934
-933
-934
-932
-932
-937
-944
-947
-947
-945
-945
-945
-944
-945
-944
-943
-944
-940
-934
-929
-916
-880
-812
-743
-699
-676
-669
-672
-684
-708
-752
-834
-932
-978
-967
-944
-933
-929
-928
-934
-941
-945
-947
-945
-944
-943
-941
-938
-938
-937
-936
-934
-934
-934
-929
-925
-925
-929
-929
-925
-922
-921
-919
-919
-919
-915
-910
-905
-901
-899
-898
-895
-888
-884
-877
-869
-865
-862
-865
-862
-853
-843
-837
-836
-837
-836
-836
-838
-838
-841
-847
-853
-858
-869
-881
-890
-898
-909
-913
-913
-915
-928
-939
-938
-934
-934
-934
-939
-947
-947
-948
-952
-948
-948
-952
-951
-951
-957
-954
-948
-951
-957
-955
-947
-943
-948
-956
-958
-960
-953
-948
-948
-952
-954
-951
-952
-958
-958
-953
-956
-960
-962
-959
-958
-963
-964
-966
-969
-968
-964
-960
-962
-964
-968
-974
-975
-979
-975
-967
-964
-967
-974
-974
-971
-971
-974
-975
-971
-967
-965
-969
-971
-974
-971
-971
-971
-967
-962
-953
-956
-960
-962
-960
-962
-960
-959
-962
-965
-964
-956
-948
-944
-944
-949
-962
-974
-976
-972
-967
-967
-965
-965
-962
-958
-957
-958
-959
-951
-941
-928
-900
-841
-772
-727
-706
-701
-706
-718
-741
-776
-851
-948
-999
-985
-953
-932
-933
-945
-957
-953
-947
-941
-939
-944
-951
-952
-948
-936
-930
-932
-941
-956
-956
-945
-934
-930
-939
-959
-971
-975
-978
-956
-927
-915
-929
-943
-936
-915
-903
-902
-890
-891
-911
-924
-907
-879
-869
-885
-907
-913
-905
-881
-856
-860
-884
-902
-894
-876
-872
-881
-896
-906
-910
-918
-922
-918
-911
-919
-928
-927
-930
-945
-943
-936
-936
-936
-930
-934
-946
-953
-960
-962
-950
-944
-961
-971
-966
-955
-952
-957
-948
-934
-929
-930
-942
-941
-934
-941
-943
-934
-936
-948
-948
-927
-911
-923
-947
-955
-952
-945
-941
-938
-944
-948
-943
-939
-941
-942
-952
-962
-962
-957
-956
-957
-956
-955
-958
-957
-952
-950
-952
-956
-962
-963
-956
-952
-953
-958
-959
-960
-957
-953
-948
-943
-939
-934
-937
-936
-935
-938
-938
-934
-933
-944
-962
-960
-952
-948
-949
-951
-952
-953
-955
-957
-959
-958
-960
-960
-956
-949
-948
-952
-958
-953
-936
-909
-866
-804
-745
-708
-688
-679
-684
-701
-732
-785
-872
-956
-982
-963
-934
-924
-936
-953
-962
-957
-951
-953
-960
-958
-948
-938
-941
-948
-957
-962
-960
-953
-943
-938
-938
-939
-941
-944
-941
-933
-927
-930
-930
-925
-925
-936
-941
-934
-921
-911
-905
-900
-900
-904
-904
-897
-888
-884
-881
-874
-872
-873
-877
-875
-872
-869
-869
-869
-870
-869
-866
-865
-868
-873
-882
-890
-898
-902
-910
-922
-927
-926
-927
-925
-918
-918
-928
-938
-940
-933
-925
-927
-933
-937
-940
-933
-925
-924
-927
-934
-934
-931
-929
-932
-933
-929
-928
-925
-927
-934
-931
-925
-925
-929
-934
-937
-937
-936
-934
-932
-928
-929
-934
-934
-927
-925
-927
-928
-928
-932
-934
-937
-939
-938
-939
-934
-933
-932
-932
-932
-931
-934
-931
-925
-920
-920
-922
-922
-917
-907
-909
-915
-917
-912
-910
-918
-923
-924
-925
-927
-930
-933
-932
-928
-928
-934
-939
-938
-937
-937
-937
-933
-928
-928
-933
-929
-913
-886
-833
-768
-718
-685
-668
-660
-664
-678
-707
-762
-862
-952
-965
-939
-919
-913
-917
-925
-930
-930
-929
-929
-925
-925
-932
-935
-933
-927
-922
-925
-930
-932
-927
-925
-925
-925
-920
-917
-921
-917
-904
-902
-908
-911
-910
-909
-907
-902
-897
-898
-899
-896
-893
-887
-882
-879
-873
-868
-869
-865
-859
-853
-854
-859
-860
-859
-855
-856
-859
-862
-865
-874
-883
-890
-895
-898
-900
-895
-898
-911
-919
-916
-911
-915
-920
-924
-921
-918
-920
-924
-922
-920
-919
-919
-919
-913
-911
-915
-919
-919
-919
-918
-917
-919
-921
-919
-918
-918
-918
-921
-922
-921
-921
-924
-923
-924
-926
-927
-920
-919
-926
-930
-925
-925
-926
-927
-924
-924
-929
-929
-928
-929
-928
-922
-919
-913
-912
-913
-916
-915
-910
-907
-909
-911
-913
-917
-918
-914
-918
-925
-928
-925
-927
-929
-935
-936
-934
-932
-929
-928
-934
-941
-937
-925
-918
-918
-907
-869
-798
-734
-694
-669
-659
-662
-670
-694
-737
-816
-920
-975
-971
-941
-917
-910
-914
-929
-939
-939
-940
-938
-933
-928
-927
-930
-933
-930
-934
-934
-930
-928
-929
-930
-928
-925
-922
-921
-921
-921
-919
-916
-910
-907
-910
-909
-905
-902
-902
-899
-896
-892
-892
-888
-883
-875
-874
-882
-882
-875
-864
-860
-862
-862
-860
-857
-853
-854
-860
-869
-877
-881
-882
-884
-888
-891
-896
-900
-906
-911
-915
-920
-922
-918
-911
-909
-917
-925
-925
-920
-918
-918
-918
-915
-911
-913
-916
-918
-919
-918
-913
-911
-909
-912
-916
-919
-916
-913
-915
-916
-919
-922
-921
-921
-921
-923
-921
-921
-920
-923
-928
-933
-933
-927
-920
-921
-922
-925
-930
-934
-932
-923
-919
-921
-924
-925
-925
-921
-918
-920
-919
-915
-913
-917
-923
-928
-928
-925
-928
-933
-937
-939
-938
-934
-936
-938
-938
-937
-934
-932
-928
-926
-929
-925
-911
-879
-818
-755
-711
-684
-669
-662
-667
-690
-726
-801
-905
-967
-966
-941
-927
-924
-929
-939
-948
-951
-947
-942
-944
-950
-953
-947
-938
-937
-938
-938
-940
-938
-934
-937
-940
-936
-933
-930
-934
-933
-930
-926
-924
-921
-921
-919
-915
-913
-910
-908
-902
-895
-892
-891
-884
-879
-884
-888
-886
-877
-870
-868
-871
-872
-868
-865
-862
-865
-872
-873
-877
-886
-898
-903
-905
-909
-911
-918
-921
-925
-925
-928
-928
-928
-928
-929
-929
-934
-934
-925
-918
-919
-921
-921
-921
-924
-925
-926
-926
-925
-925
-923
-922
-924
-921
-921
-924
-922
-925
-926
-925
-927
-923
-920
-923
-928
-926
-923
-925
-930
-929
-925
-927
-932
-933
-931
-927
-924
-919
-914
-913
-915
-920
-923
-921
-914
-914
-916
-920
-922
-926
-923
-922
-924
-929
-930
-933
-933
-933
-937
-938
-940
-936
-936
-934
-932
-929
-927
-927
-923
-906
-858
-786
-722
-690
-670
-661
-660
-669
-693
-740
-831
-934
-978
-959
-934
-927
-930
-938
-941
-937
-942
-948
-950
-947
-944
-948
-951
-951
-950
-947
-944
-941
-939
-934
-934
-936
-941
-941
-934
-930
-929
-930
-928
-926
-922
-922
-924
-922
-920
-917
-911
-906
-902
-902
-899
-895
-889
-888
-889
-887
-878
-872
-875
-876
-875
-873
-875
-875
-876
-881
-884
-889
-895
-901
-904
-909
-913
-921
-929
-930
-928
-930
-929
-929
-933
-936
-937
-938
-934
-928
-925
-929
-933
-929
-928
-932
-937
-934
-929
-929
-930
-926
-928
-932
-929
-925
-924
-924
-928
-930
-933
-934
-934
-933
-929
-930
-938
-941
-934
-932
-929
-929
-928
-928
-925
-922
-922
-923
-921
-915
-920
-926
-925
-922
-921
-925
-933
-937
-941
-939
-936
-936
-939
-943
-948
-952
-949
-941
-939
-943
-944
-944
-945
-946
-941
-933
-915
-873
-802
-738
-699
-679
-669
-670
-681
-707
-754
-845
-945
-985
-967
-943
-936
-938
-944
-948
-948
-948
-950
-948
-944
-945
-948
-952
-951
-945
-944
-946
-948
-948
-943
-943
-945
-943
-939
-941
-941
-937
-936
-936
-934
-930
-924
-925
-928
-925
-922
-918
-917
-915
-911
-906
-904
-901
-899
-898
-894
-886
-883
-887
-894
-893
-888
-885
-888
-890
-889
-892
-900
-909
-914
-914
-915
-919
-921
-924
-933
-941
-943
-941
-939
-937
-936
-941
-941
-941
-939
-940
-938
-937
-938
-941
-941
-944
-947
-944
-937
-933
-934
-938
-941
-941
-939
-938
-936
-934
-937
-941
-943
-941
-938
-936
-939
-943
-943
-943
-943
-944
-943
-934
-929
-928
-925
-924
-928
-934
-936
-934
-930
-929
-930
-933
-939
-941
-937
-936
-945
-955
-960
-963
-960
-958
-956
-956
-953
-952
-955
-956
-951
-946
-939
-933
-911
-862
-794
-736
-700
-683
-676
-681
-695
-723
-772
-865
-960
-994
-975
-948
-940
-941
-948
-955
-960
-962
-965
-965
-962
-956
-953
-958
-961
-962
-962
-962
-955
-949
-950
-955
-958
-959
-958
-953
-949
-947
-943
-938
-941
-944
-943
-939
-934
-932
-936
-938
-933
-922
-913
-911
-918
-922
-919
-910
-906
-906
-910
-911
-910
-906
-902
-902
-907
-909
-905
-904
-913
-926
-933
-932
-930
-934
-938
-937
-941
-943
-944
-945
-948
-948
-945
-949
-956
-958
-952
-947
-948
-951
-953
-955
-955
-950
-944
-941
-941
-945
-952
-955
-952
-948
-948
-949
-950
-949
-948
-949
-951
-953
-956
-955
-951
-948
-946
-948
-953
-951
-948
-944
-941
-936
-932
-932
-941
-948
-950
-942
-937
-938
-948
-952
-950
-948
-951
-951
-953
-959
-964
-966
-967
-967
-967
-967
-966
-964
-965
-962
-958
-959
-949
-924
-877
-812
-754
-717
-696
-690
-693
-706
-732
-782
-874
-973
-1004
-985
-959
-944
-944
-953
-966
-974
-976
-971
-964
-961
-966
-972
-971
-962
-962
-967
-968
-964
-960
-956
-952
-957
-963
-963
-960
-955
-952
-954
-956
-952
-951
-948
-945
-943
-941
-941
-941
-937
-933
-933
-929
-925
-925
-928
-927
-920
-917
-919
-924
-924
-921
-918
-913
-914
-918
-920
-921
-923
-928
-932
-934
-934
-936
-941
-944
-948
-951
-948
-948
-952
-955
-953
-953
-955
-955
-952
-948
-952
-953
-951
-948
-951
-952
-949
-945
-947
-950
-953
-951
-948
-951
-956
-956
-953
-951
-949
-947
-951
-955
-955
-952
-956
-959
-955
-948
-947
-955
-960
-957
-955
-955
-953
-947
-938
-938
-943
-944
-939
-937
-941
-943
-939
-934
-938
-941
-950
-951
-948
-951
-951
-953
-960
-962
-964
-962
-962
-964
-966
-967
-962
-959
-956
-954
-957
-957
-941
-902
-841
-777
-738
-714
-699
-694
-701
-722
-763
-836
-935
-994
-989
-960
-948
-950
-956
-960
-962
-959
-958
-962
-966
-965
-963
-962
-964
-965
-966
-964
-958
-956
-959
-962
-960
-958
-953
-953
-955
-952
-950
-948
-948
-952
-948
-941
-939
-939
-937
-934
-933
-933
-933
-932
-929
-925
-925
-921
-917
-917
-919
-920
-919
-918
-918
-919
-917
-918
-918
-919
-921
-926
-926
-924
-928
-937
-941
-944
-943
-943
-943
-944
-945
-945
-944
-944
-947
-948
-948
-943
-940
-941
-941
-940
-941
-945
-948
-947
-947
-945
-945
-944
-941
-939
-939
-945
-948
-948
-945
-947
-948
-947
-947
-948
-948
-945
-945
-945
-948
-951
-953
-952
-950
-949
-950
-952
-955
-955
-955
-951
-949
-950
-953
-956
-956
-953
-948
-944
-939
-936
-940
-938
-934
-936
-941
-943
-938
-930
-928
-937
-944
-943
-939
-939
-947
-955
-960
-962
-959
-957
-957
-956
-957
-957
-957
-957
-955
-952
-949
-938
-911
-855
-786
-734
-704
-689
-685
-690
-711
-751
-831
-938
-993
-987
-962
-947
-941
-945
-952
-959
-960
-960
-962
-958
-957
-957
-957
-953
-955
-959
-959
-955
-953
-956
-956
-952
-948
-948
-951
-951
-947
-941
-937
-936
-938
-941
-938
-932
-928
-928
-928
-928
-925
-920
-921
-924
-921
-918
-915
-914
-915
-919
-919
-913
-907
-907
-910
-911
-913
-915
-918
-918
-918
-919
-920
-924
-930
-934
-934
-932
-932
-934
-934
-938
-941
-941
-937
-936
-937
-939
-941
-939
-937
-936
-937
-940
-938
-936
-934
-937
-939
-942
-940
-937
-938
-941
-941
-943
-947
-947
-946
-941
-941
-944
-948
-950
-950
-950
-949
-947
-946
-945
-948
-952
-957
-955
-950
-951
-955
-956
-956
-955
-955
-956
-957
-956
-953
-952
-951
-951
-948
-945
-944
-941
-941
-940
-939
-938
-938
-938
-937
-937
-941
-943
-945
-948
-948
-952
-952
-955
-959
-959
-957
-956
-958
-956
-956
-957
-956
-953
-951
-945
-930
-892
-824
-756
-717
-699
-694
-694
-706
-733
-797
-902
-983
-994
-975
-960
-951
-947
-950
-953
-957
-960
-962
-963
-960
-958
-957
-959
-958
-955
-955
-952
-949
-947
-948
-952
-953
-953
-951
-947
-943
-939
-939
-938
-938
-937
-935
-930
-927
-926
-927
-925
-927
-925
-917
-910
-913
-916
-913
-911
-911
-912
-911
-910
-909
-908
-911
-913
-913
-917
-918
-916
-917
-919
-921
-922
-929
-934
-934
-936
-937
-939
-941
-941
-943
-943
-941
-941
-939
-939
-941
-940
-939
-939
-941
-943
-938
-936
-939
-944
-944
-941
-938
-937
-937
-941
-945
-943
-939
-939
-944
-947
-948
-945
-941
-945
-952
-950
-948
-948
-948
-953
-955
-953
-953
-953
-951
-949
-948
-953
-958
-956
-952
-952
-956
-957
-956
-956
-956
-957
-955
-949
-944
-942
-941
-941
-942
-941
-941
-941
-936
-928
-929
-936
-943
-948
-948
-946
-947
-951
-958
-959
-958
-957
-955
-953
-951
-951
-953
-958
-957
-949
-943
-934
-903
-841
-768
-724
-701
-693
-690
-699
-719
-763
-851
-956
-1002
-989
-963
-948
-943
-946
-951
-954
-952
-951
-952
-952
-953
-958
-958
-956
-953
-951
-949
-948
-947
-948
-947
-945
-943
-941
-939
-936
-938
-938
-938
-937
-935
-932
-928
-925
-921
-924
-925
-925
-920
-913
-904
-900
-902
-907
-910
-906
-900
-896
-897
-902
-906
-905
-900
-904
-909
-907
-910
-915
-919
-922
-925
-928
-930
-930
-933
-934
-938
-941
-941
-941
-943
-943
-944
-947
-947
-942
-938
-937
-934
-933
-937
-941
-941
-941
-941
-939
-938
-938
-939
-938
-939
-938
-941
-941
-938
-937
-939
-944
-947
-944
-941
-941
-943
-948
-951
-951
-948
-944
-945
-948
-948
-947
-945
-947
-955
-957
-952
-949
-951
-953
-953
-953
-952
-950
-948
-948
-947
-944
-944
-944
-941
-934
-933
-937
-941
-944
-936
-931
-933
-939
-941
-938
-936
-937
-943
-951
-956
-957
-956
-953
-951
-952
-953
-955
-955
-953
-948
-945
-939
-929
-905
-851
-784
-730
-704
-691
-687
-692
-708
-741
-807
-911
-985
-987
-959
-940
-933
-934
-943
-952
-953
-953
-953
-955
-956
-953
-950
-948
-952
-952
-951
-947
-945
-948
-948
-945
-941
-937
-939
-939
-937
-933
-928
-926
-927
-933
-934
-931
-923
-916
-914
-915
-911
-907
-907
-906
-906
-902
-896
-891
-893
-900
-899
-897
-897
-898
-896
-895
-895
-894
-897
-898
-902
-913
-918
-921
-924
-927
-928
-928
-929
-933
-933
-936
-941
-943
-941
-938
-937
-936
-936
-939
-936
-932
-932
-937
-938
-936
-933
-930
-930
-932
-933
-932
-929
-930
-933
-934
-933
-928
-928
-933
-937
-936
-930
-933
-940
-942
-937
-936
-936
-938
-938
-934
-938
-944
-946
-942
-940
-942
-941
-943
-944
-944
-941
-941
-941
-941
-943
-944
-947
-943
-938
-938
-941
-941
-941
-944
-945
-942
-938
-937
-939
-939
-941
-941
-939
-935
-929
-926
-925
-925
-920
-924
-928
-930
-929
-924
-919
-922
-930
-933
-929
-930
-935
-939
-937
-938
-944
-948
-945
-939
-941
-941
-941
-939
-939
-939
-937
-928
-902
-847
-779
-726
-694
-679
-670
-673
-689
-711
-763
-860
-952
-976
-953
-932
-923
-926
-934
-937
-939
-941
-943
-945
-941
-938
-938
-939
-941
-941
-942
-938
-934
-932
-933
-938
-941
-941
-933
-928
-928
-929
-929
-925
-921
-915
-913
-913
-914
-913
-910
-910
-907
-907
-907
-904
-899
-898
-899
-898
-895
-887
-884
-888
-892
-892
-888
-888
-886
-888
-891
-888
-884
-892
-903
-910
-907
-906
-907
-910
-915
-921
-927
-929
-927
-925
-925
-923
-922
-928
-933
-932
-927
-927
-928
-928
-927
-925
-925
-925
-927
-927
-925
-924
-929
-930
-925
-921
-924
-931
-933
-931
-930
-932
-933
-932
-929
-928
-929
-930
-930
-930
-933
-936
-938
-936
-933
-930
-934
-938
-939
-938
-939
-938
-940
-940
-941
-938
-938
-939
-941
-939
-937
-936
-938
-943
-941
-939
-934
-934
-938
-943
-944
-943
-943
-940
-936
-934
-937
-941
-943
-943
-941
-936
-934
-936
-938
-938
-933
-929
-925
-922
-921
-920
-919
-921
-929
-933
-928
-917
-913
-918
-928
-932
-933
-933
-929
-933
-939
-946
-947
-944
-939
-937
-941
-943
-944
-938
-930
-930
-934
-925
-896
-841
-773
-726
-696
-682
-676
-680
-698
-729
-785
-878
-955
-968
-947
-922
-917
-925
-936
-940
-941
-942
-939
-938
-940
-940
-939
-943
-941
-940
-936
-934
-935
-936
-933
-933
-937
-934
-932
-932
-933
-928
-922
-920
-921
-925
-925
-920
-915
-911
-913
-917
-914
-907
-904
-905
-906
-905
-902
-898
-897
-895
-896
-898
-892
-888
-888
-892
-891
-891
-891
-892
-893
-896
-900
-906
-913
-917
-919
-921
-924
-922
-923
-928
-929
-929
-930
-929
-928
-929
-934
-937
-936
-929
-928
-928
-933
-933
-928
-925
-927
-933
-938
-933
-928
-930
-934
-934
-934
-933
-930
-928
-928
-933
-938
-938
-937
-934
-929
-927
-934
-938
-938
-938
-938
-939
-939
-938
-938
-941
-941
-939
-938
-941
-943
-941
-936
-936
-936
-941
-944
-945
-943
-943
-941
-940
-943
-945
-941
-938
-939
-941
-942
-943
-941
-936
-938
-942
-944
-941
-941
-941
-942
-941
-941
-942
-939
-939
-941
-943
-941
-938
-934
-934
-938
-941
-941
-937
-930
-925
-923
-926
-927
-925
-924
-927
-929
-925
-919
-917
-926
-934
-934
-927
-924
-925
-931
-937
-939
-938
-941
-945
-948
-948
-943
-938
-934
-934
-938
-941
-933
-911
-867
-802
-744
-710
-689
-676
-676
-685
-710
-753
-835
-929
-970
-955
-932
-919
-918
-924
-933
-939
-940
-937
-938
-941
-943
-941
-941
-943
-941
-937
-934
-933
-934
-934
-930
-930
-929
-930
-931
-931
-925
-926
-927
-925
-921
-917
-916
-918
-918
-915
-910
-909
-907
-909
-907
-902
-899
-899
-899
-896
-895
-896
-895
-890
-888
-889
-891
-891
-889
-890
-890
-892
-893
-898
-898
-900
-904
-910
-915
-914
-914
-917
-920
-924
-928
-933
-936
-930
-928
-930
-933
-934
-932
-930
-930
-929
-929
-929
-928
-930
-929
-928
-928
-928
-927
-928
-932
-934
-930
-927
-930
-934
-936
-934
-933
-933
-933
-933
-933
-934
-937
-939
-938
-934
-934
-936
-939
-937
-939
-941
-941
-941
-937
-934
-934
-937
-943
-944
-941
-941
-941
-941
-941
-945
-946
-943
-943
-942
-939
-939
-938
-939
-941
-941
-941
-941
-941
-944
-941
-940
-938
-938
-938
-941
-941
-942
-941
-940
-939
-941
-942
-941
-943
-941
-941
-941
-938
-937
-941
-945
-944
-938
-933
-929
-930
-928
-923
-922
-925
-930
-928
-924
-922
-925
-929
-930
-928
-927
-928
-932
-937
-941
-948
-948
-948
-941
-939
-941
-945
-945
-943
-940
-937
-934
-926
-909
-868
-804
-750
-715
-692
-680
-677
-686
-709
-756
-845
-939
-970
-952
-930
-924
-930
-937
-941
-942
-941
-937
-942
-947
-945
-942
-941
-943
-941
-936
-936
-937
-939
-940
-937
-933
-928
-929
-932
-930
-926
-924
-925
-927
-924
-921
-916
-914
-915
-914
-913
-910
-905
-905
-906
-904
-899
-896
-893
-890
-890
-891
-891
-890
-890
-889
-886
-883
-883
-885
-890
-892
-893
-894
-895
-900
-906
-912
-917
-920
-921
-925
-929
-929
-927
-930
-934
-937
-937
-934
-933
-930
-930
-930
-931
-930
-930
-932
-932
-929
-930
-932
-935
-936
-934
-932
-932
-932
-933
-934
-936
-934
-933
-934
-934
-934
-934
-934
-934
-937
-941
-944
-946
-944
-937
-938
-945
-948
-947
-943
-939
-939
-945
-945
-944
-943
-943
-947
-948
-948
-945
-944
-946
-947
-944
-943
-943
-944
-948
-947
-946
-944
-944
-945
-941
-938
-941
-950
-951
-946
-944
-947
-948
-939
-934
-938
-937
-930
-928
-930
-934
-934
-928
-924
-929
-934
-937
-936
-934
-934
-938
-946
-948
-945
-941
-941
-946
-951
-950
-946
-943
-942
-941
-941
-938
-930
-911
-870
-806
-745
-711
-694
-685
-687
-699
-726
-781
-873
-962
-982
-956
-930
-925
-930
-941
-947
-943
-938
-941
-945
-944
-944
-944
-944
-941
-939
-938
-938
-938
-937
-936
-936
-934
-934
-929
-929
-928
-928
-925
-922
-919
-921
-922
-918
-913
-910
-911
-911
-907
-902
-900
-899
-896
-887
-883
-879
-879
-882
-884
-887
-885
-879
-872
-870
-879
-885
-889
-888
-887
-885
-896
-904
-911
-915
-918
-918
-918
-921
-925
-928
-930
-934
-939
-939
-937
-936
-937
-938
-936
-936
-934
-933
-936
-937
-933
-927
-928
-934
-938
-935
-932
-932
-933
-934
-937
-938
-937
-937
-934
-934
-937
-934
-936
-941
-944
-939
-936
-937
-939
-938
-937
-939
-943
-947
-947
-945
-941
-936
-936
-943
-948
-946
-945
-946
-941
-941
-943
-946
-945
-948
-948
-945
-943
-947
-947
-945
-946
-944
-941
-941
-944
-948
-945
-944
-945
-941
-934
-933
-934
-934
-934
-935
-934
-934
-931
-928
-927
-930
-935
-934
-934
-936
-934
-936
-939
-945
-948
-948
-948
-951
-950
-945
-944
-946
-943
-939
-934
-932
-920
-884
-819
-755
-714
-694
-684
-683
-692
-713
-755
-840
-941
-985
-967
-941
-929
-928
-933
-941
-948
-951
-947
-941
-940
-945
-947
-944
-941
-939
-941
-941
-938
-937
-937
-939
-936
-934
-933
-933
-929
-927
-927
-927
-926
-921
-918
-918
-919
-913
-911
-910
-906
-905
-900
-899
-898
-894
-887
-882
-881
-879
-881
-882
-882
-878
-874
-874
-876
-877
-879
-882
-888
-893
-899
-900
-902
-906
-912
-919
-926
-933
-937
-936
-933
-933
-934
-937
-939
-939
-937
-937
-938
-938
-936
-938
-937
-936
-934
-933
-934
-933
-934
-934
-938
-939
-938
-932
-931
-934
-936
-936
-937
-937
-934
-933
-937
-939
-939
-938
-938
-939
-941
-944
-945
-939
-936
-936
-943
-947
-945
-941
-941
-942
-941
-944
-947
-951
-955
-951
-941
-938
-941
-943
-944
-947
-948
-949
-948
-944
-941
-941
-941
-944
-947
-940
-930
-928
-934
-934
-932
-932
-934
-934
-930
-926
-928
-933
-936
-935
-936
-937
-937
-939
-944
-948
-948
-952
-953
-951
-944
-941
-944
-948
-948
-941
-934
-925
-906
-856
-787
-732
-701
-687
-679
-683
-699
-732
-794
-895
-967
-973
-947
-928
-925
-934
-941
-943
-944
-948
-948
-950
-952
-951
-949
-948
-943
-943
-941
-939
-938
-936
-934
-934
-937
-939
-938
-934
-932
-933
-934
-933
-927
-922
-921
-920
-920
-918
-914
-911
-910
-907
-905
-904
-901
-896
-892
-892
-892
-884
-879
-879
-884
-884
-881
-879
-877
-876
-880
-884
-890
-897
-904
-907
-910
-913
-918
-924
-928
-927
-931
-934
-936
-937
-937
-941
-943
-943
-945
-941
-938
-941
-941
-938
-937
-938
-939
-936
-930
-933
-938
-941
-938
-934
-938
-941
-941
-936
-936
-938
-938
-937
-936
-938
-938
-937
-940
-941
-943
-944
-944
-943
-941
-943
-943
-943
-941
-941
-941
-945
-948
-949
-948
-945
-943
-943
-945
-944
-943
-945
-949
-948
-945
-944
-945
-951
-947
-941
-941
-944
-943
-944
-944
-944
-943
-941
-939
-937
-934
-933
-933
-932
-929
-929
-930
-930
-930
-930
-928
-930
-935
-938
-939
-936
-935
-938
-941
-948
-952
-951
-948
-945
-947
-953
-953
-948
-939
-937
-937
-937
-925
-890
-829
-767
-727
-703
-690
-685
-692
-713
-745
-808
-904
-966
-967
-943
-925
-925
-938
-950
-950
-945
-941
-941
-944
-941
-943
-947
-950
-948
-944
-941
-938
-936
-938
-941
-941
-939
-936
-933
-932
-930
-930
-930
-928
-926
-925
-924
-921
-919
-918
-919
-913
-908
-909
-913
-909
-902
-897
-896
-894
-892
-892
-890
-888
-888
-888
-884
-883
-883
-882
-885
-891
-897
-901
-903
-910
-917
-918
-918
-925
-932
-933
-934
-938
-939
-939
-936
-938
-941
-939
-938
-940
-941
-941
-941
-941
-938
-937
-936
-937
-938
-937
-937
-939
-938
-938
-939
-944
-941
-938
-937
-936
-938
-939
-941
-941
-940
-940
-942
-941
-944
-946
-941
-937
-938
-941
-945
-945
-944
-941
-939
-941
-941
-944
-950
-952
-949
-946
-942
-938
-943
-947
-950
-949
-944
-942
-947
-947
-943
-941
-944
-944
-943
-941
-945
-948
-948
-948
-944
-941
-941
-938
-930
-926
-925
-928
-929
-932
-932
-930
-926
-925
-927
-929
-933
-934
-934
-934
-937
-941
-943
-946
-948
-951
-953
-948
-944
-943
-944
-944
-944
-941
-938
-934
-920
-888
-826
-767
-726
-702
-689
-685
-693
-711
-748
-817
-913
-969
-963
-938
-925
-928
-936
-939
-941
-944
-944
-944
-944
-944
-941
-942
-944
-945
-944
-941
-938
-936
-937
-940
-938
-934
-932
-932
-934
-933
-929
-925
-928
-927
-926
-928
-924
-919
-915
-913
-913
-913
-913
-910
-906
-904
-903
-899
-896
-891
-890
-893
-893
-890
-884
-882
-883
-884
-885
-887
-888
-892
-896
-899
-904
-906
-912
-918
-920
-919
-922
-930
-934
-934
-935
-934
-933
-932
-935
-938
-940
-937
-933
-930
-933
-937
-935
-933
-934
-935
-938
-939
-936
-934
-933
-934
-936
-936
-934
-936
-938
-937
-934
-934
-936
-937
-934
-932
-934
-941
-944
-941
-937
-938
-941
-941
-939
-939
-938
-938
-939
-945
-950
-948
-941
-936
-937
-938
-941
-943
-943
-941
-941
-942
-941
-940
-940
-943
-945
-944
-943
-940
-937
-936
-939
-941
-941
-941
-944
-945
-941
-938
-939
-941
-940
-933
-927
-925
-925
-926
-925
-927
-930
-928
-922
-922
-926
-933
-934
-932
-930
-932
-936
-941
-941
-944
-947
-947
-944
-941
-941
-941
-938
-937
-939
-937
-929
-914
-884
-830
-770
-727
-700
-684
-679
-688
-706
-745
-823
-923
-971
-958
-933
-919
-921
-929
-938
-941
-941
-938
-940
-939
-940
-941
-941
-941
-941
-941
-940
-938
-934
-933
-933
-933
-935
-935
-932
-928
-928
-928
-928
-927
-924
-922
-921
-919
-918
-915
-913
-911
-906
-904
-902
-902
-901
-898
-895
-891
-890
-888
-888
-888
-891
-888
-887
-887
-888
-886
-884
-888
-892
-895
-898
-904
-911
-917
-918
-919
-922
-929
-933
-932
-932
-934
-934
-937
-938
-935
-933
-932
-933
-930
-930
-933
-933
-933
-934
-938
-936
-932
-930
-930
-934
-936
-936
-933
-932
-933
-934
-940
-938
-938
-940
-939
-938
-936
-937
-939
-941
-941
-940
-941
-943
-941
-939
-939
-943
-945
-945
-944
-941
-941
-944
-947
-948
-947
-945
-944
-943
-943
-941
-942
-947
-947
-945
-945
-945
-945
-943
-944
-947
-948
-945
-946
-944
-941
-939
-938
-936
-933
-933
-934
-934
-934
-932
-925
-925
-928
-934
-935
-934
-936
-941
-941
-941
-941
-941
-941
-947
-950
-948
-948
-948
-944
-944
-941
-939
-938
-934
-930
-906
-849
-778
-729
-704
-690
-686
-689
-708
-745
-815
-916
-975
-973
-948
-933
-929
-933
-938
-941
-948
-951
-951
-946
-946
-945
-944
-944
-944
-947
-947
-941
-937
-936
-937
-938
-938
-937
-935
-933
-930
-929
-928
-928
-929
-925
-918
-915
-916
-915
-917
-914
-907
-902
-898
-898
-898
-898
-895
-890
-888
-885
-881
-879
-879
-880
-882
-884
-883
-885
-888
-892
-895
-900
-909
-914
-919
-921
-924
-927
-933
-931
-927
-930
-941
-947
-945
-941
-938
-936
-934
-936
-939
-941
-939
-938
-936
-936
-934
-934
-937
-939
-939
-938
-936
-933
-934
-941
-942
-937
-936
-939
-939
-939
-939
-941
-941
-941
-941
-943
-944
-944
-945
-947
-944
-943
-941
-941
-943
-947
-951
-951
-948
-948
-951
-948
-947
-947
-948
-951
-948
-943
-945
-948
-950
-949
-945
-941
-945
-951
-953
-948
-944
-943
-943
-941
-937
-937
-937
-934
-933
-933
-934
-933
-928
-927
-934
-940
-941
-941
-943
-942
-945
-946
-948
-951
-948
-948
-948
-947
-948
-950
-948
-945
-943
-943
-939
-920
-877
-812
-753
-715
-699
-690
-690
-702
-724
-775
-870
-964
-986
-960
-937
-936
-944
-944
-944
-946
-944
-944
-947
-948
-945
-941
-939
-940
-943
-945
-941
-938
-939
-944
-943
-938
-934
-930
-928
-930
-933
-930
-928
-925
-923
-921
-919
-918
-913
-913
-913
-909
-904
-903
-900
-892
-890
-890
-885
-880
-876
-877
-883
-884
-879
-874
-873
-879
-885
-886
-886
-890
-899
-909
-914
-915
-915
-916
-920
-929
-934
-936
-939
-941
-941
-941
-942
-944
-941
-939
-938
-937
-939
-937
-938
-941
-941
-938
-938
-938
-939
-943
-941
-938
-934
-935
-937
-938
-939
-939
-937
-938
-937
-938
-939
-939
-936
-937
-943
-943
-941
-941
-945
-947
-946
-944
-945
-945
-948
-949
-947
-943
-944
-945
-944
-944
-945
-943
-944
-949
-955
-952
-946
-944
-947
-948
-948
-946
-941
-941
-940
-938
-934
-932
-933
-937
-936
-932
-929
-931
-933
-936
-940
-944
-941
-939
-942
-943
-948
-953
-956
-955
-948
-944
-943
-944
-945
-945
-947
-948
-941
-930
-902
-843
-771
-722
-696
-685
-683
-689
-708
-745
-816
-919
-981
-978
-952
-936
-933
-937
-942
-947
-948
-948
-947
-947
-948
-946
-944
-947
-945
-941
-938
-939
-938
-939
-941
-943
-941
-936
-930
-928
-929
-929
-930
-928
-925
-927
-926
-921
-915
-911
-911
-908
-905
-904
-904
-899
-891
-885
-885
-888
-885
-881
-877
-873
-874
-875
-879
-881
-884
-882
-879
-879
-884
-893
-899
-907
-912
-915
-921
-923
-926
-931
-939
-944
-941
-938
-938
-941
-943
-941
-941
-941
-944
-941
-938
-938
-940
-943
-944
-941
-937
-937
-936
-936
-938
-939
-938
-934
-934
-937
-934
-934
-935
-937
-939
-940
-938
-937
-937
-941
-945
-943
-939
-937
-939
-943
-943
-941
-939
-941
-941
-943
-946
-948
-947
-943
-943
-948
-948
-944
-943
-943
-941
-943
-946
-944
-944
-944
-944
-944
-944
-944
-944
-945
-942
-936
-930
-925
-927
-930
-934
-936
-934
-928
-924
-922
-924
-934
-941
-943
-938
-933
-934
-943
-948
-949
-945
-945
-950
-948
-943
-945
-948
-947
-941
-939
-936
-922
-891
-832
-767
-721
-693
-680
-676
-681
-701
-738
-813
-916
-973
-966
-943
-930
-928
-933
-941
-947
-945
-941
-941
-945
-945
-941
-939
-945
-948
-943
-940
-939
-941
-940
-937
-936
-939
-939
-933
-929
-930
-933
-932
-927
-926
-925
-922
-917
-914
-913
-911
-911
-911
-910
-906
-902
-898
-895
-892
-888
-888
-883
-876
-870
-875
-879
-879
-879
-876
-874
-874
-876
-884
-895
-904
-911
-913
-915
-921
-925
-927
-930
-934
-936
-937
-937
-938
-941
-943
-941
-937
-934
-934
-938
-944
-942
-939
-939
-941
-941
-938
-935
-933
-934
-939
-943
-941
-939
-938
-939
-939
-935
-938
-943
-943
-941
-938
-938
-941
-941
-936
-936
-940
-944
-945
-941
-939
-941
-944
-944
-942
-939
-943
-948
-948
-949
-947
-944
-944
-942
-941
-941
-947
-951
-949
-944
-943
-948
-948
-948
-945
-941
-941
-944
-948
-947
-944
-944
-945
-944
-944
-945
-943
-938
-933
-932
-929
-927
-925
-928
-932
-933
-934
-932
-925
-926
-933
-936
-938
-938
-941
-941
-945
-945
-943
-944
-947
-950
-950
-949
-945
-945
-944
-941
-944
-944
-939
-920
-883
-819
-759
-718
-695
-684
-681
-692
-714
-753
-823
-916
-970
-968
-946
-928
-921
-925
-934
-946
-948
-949
-947
-947
-945
-944
-942
-941
-941
-945
-946
-947
-943
-934
-933
-936
-939
-938
-936
-934
-936
-934
-930
-925
-924
-924
-924
-925
-923
-919
-915
-914
-911
-910
-910
-907
-898
-893
-896
-899
-896
-890
-885
-883
-882
-879
-876
-877
-877
-879
-884
-888
-891
-895
-900
-906
-913
-919
-922
-925
-932
-934
-935
-934
-934
-936
-936
-939
-943
-943
-941
-938
-939
-941
-944
-941
-938
-940
-944
-944
-940
-940
-941
-938
-938
-939
-943
-945
-944
-939
-937
-937
-938
-938
-937
-939
-941
-944
-943
-939
-940
-939
-939
-941
-943
-947
-945
-946
-946
-948
-947
-941
-941
-943
-945
-951
-952
-948
-945
-943
-941
-941
-944
-952
-957
-953
-945
-941
-944
-948
-948
-950
-951
-951
-950
-945
-941
-943
-948
-948
-948
-948
-949
-951
-950
-948
-946
-945
-947
-950
-950
-948
-947
-947
-949
-948
-947
-947
-945
-939
-933
-929
-930
-930
-929
-930
-930
-933
-933
-928
-927
-929
-934
-939
-937
-932
-934
-941
-948
-949
-947
-948
-950
-950
-947
-945
-944
-941
-941
-939
-937
-938
-933
-915
-868
-797
-736
-704
-687
-681
-684
-698
-729
-784
-874
-948
-964
-945
-927
-921
-928
-937
-945
-947
-941
-938
-937
-941
-941
-938
-938
-938
-941
-941
-941
-938
-936
-934
-933
-934
-935
-932
-930
-928
-929
-929
-924
-921
-922
-919
-918
-918
-915
-914
-911
-911
-909
-906
-904
-899
-892
-889
-886
-885
-886
-887
-886
-884
-881
-875
-874
-875
-876
-878
-881
-883
-888
-892
-898
-905
-912
-913
-914
-918
-924
-928
-930
-934
-936
-934
-934
-934
-934
-938
-939
-940
-935
-930
-930
-933
-933
-934
-937
-941
-941
-934
-929
-928
-934
-937
-936
-934
-933
-934
-936
-934
-932
-933
-936
-937
-936
-934
-933
-936
-939
-941
-937
-936
-938
-939
-938
-938
-941
-944
-944
-941
-940
-941
-942
-944
-944
-944
-941
-943
-943
-941
-941
-942
-943
-947
-948
-948
-944
-941
-944
-945
-945
-945
-947
-948
-948
-947
-944
-943
-944
-943
-945
-948
-950
-945
-944
-945
-948
-948
-945
-944
-944
-944
-944
-947
-945
-944
-945
-944
-941
-941
-947
-948
-945
-941
-943
-944
-947
-947
-948
-949
-948
-944
-939
-941
-944
-947
-941
-938
-939
-944
-944
-943
-943
-943
-944
-943
-941
-939
-934
-932
-928
-929
-929
-932
-930
-928
-921
-918
-917
-921
-930
-933
-932
-932
-934
-937
-939
-941
-941
-940
-943
-944
-942
-939
-937
-938
-939
-939
-936
-932
-928
-921
-888
-819
-749
-704
-683
-673
-666
-675
-696
-738
-822
-920
-965
-951
-928
-921
-925
-930
-932
-935
-937
-937
-937
-939
-944
-945
-941
-936
-934
-933
-929
-929
-933
-937
-938
-938
-934
-925
-924
-925
-928
-927
-924
-920
-918
-918
-918
-914
-910
-909
-910
-910
-905
-902
-900
-897
-894
-892
-890
-888
-885
-880
-874
-877
-879
-880
-878
-870
-872
-873
-875
-879
-884
-888
-890
-892
-899
-909
-916
-919
-919
-923
-925
-927
-928
-932
-934
-934
-934
-934
-934
-932
-931
-932
-932
-934
-934
-933
-929
-929
-933
-935
-934
-933
-932
-928
-928
-932
-936
-935
-932
-929
-929
-933
-936
-938
-938
-936
-936
-937
-937
-937
-938
-941
-939
-937
-937
-940
-941
-941
-941
-942
-943
-942
-941
-941
-944
-947
-946
-944
-945
-947
-944
-941
-941
-946
-948
-944
-941
-944
-946
-948
-945
-944
-944
-945
-949
-945
-943
-944
-945
-944
-941
-941
-941
-947
-949
-948
-945
-941
-938
-937
-942
-948
-948
-948
-948
-943
-941
-941
-941
-938
-933
-929
-929
-930
-930
-928
-924
-922
-921
-924
-929
-934
-936
-937
-937
-935
-934
-934
-941
-948
-948
-944
-942
-941
-941
-941
-943
-939
-934
-934
-930
-915
-881
-814
-745
-707
-688
-681
-683
-695
-719
-768
-859
-952
-978
-956
-934
-923
-921
-930
-940
-945
-941
-936
-931
-933
-936
-939
-940
-936
-930
-930
-930
-932
-930
-928
-925
-927
-928
-923
-919
-918
-921
-921
-920
-916
-911
-907
-903
-901
-902
-904
-904
-897
-889
-884
-883
-884
-882
-876
-868
-865
-865
-861
-859
-859
-859
-855
-854
-858
-861
-866
-869
-873
-877
-884
-894
-904
-909
-911
-914
-918
-921
-925
-929
-930
-929
-929
-934
-938
-937
-934
-930
-930
-930
-934
-937
-935
-933
-933
-933
-933
-932
-934
-933
-928
-928
-932
-934
-930
-928
-926
-930
-933
-936
-937
-934
-933
-933
-934
-933
-930
-933
-937
-937
-934
-934
-934
-938
-939
-938
-938
-938
-940
-938
-938
-940
-941
-941
-939
-938
-939
-944
-942
-939
-941
-943
-941
-941
-938
-938
-941
-943
-944
-944
-941
-941
-938
-934
-938
-944
-944
-941
-938
-939
-942
-947
-947
-941
-937
-934
-930
-927
-928
-930
-933
-928
-922
-918
-919
-923
-929
-930
-929
-929
-933
-934
-934
-934
-937
-944
-944
-941
-937
-937
-940
-941
-941
-939
-938
-935
-934
-928
-911
-867
-794
-731
-699
-682
-676
-679
-693
-724
-782
-880
-957
-970
-949
-933
-926
-925
-930
-936
-936
-934
-936
-938
-938
-934
-930
-933
-933
-932
-928
-929
-929
-928
-925
-921
-924
-928
-928
-925
-920
-915
-914
-911
-911
-912
-911
-909
-906
-902
-899
-896
-893
-889
-883
-879
-877
-876
-873
-865
-860
-857
-858
-859
-860
-858
-853
-849
-851
-859
-864
-868
-876
-883
-885
-888
-897
-906
-911
-918
-921
-920
-922
-928
-930
-929
-928
-929
-930
-932
-932
-934
-934
-934
-938
-934
-932
-930
-933
-936
-934
-929
-926
-927
-929
-930
-930
-930
-930
-929
-928
-929
-930
-929
-928
-929
-930
-932
-929
-929
-930
-934
-934
-934
-933
-935
-937
-934
-934
-934
-935
-937
-939
-937
-934
-934
-936
-939
-939
-937
-937
-939
-937
-934
-934
-936
-940
-941
-941
-937
-938
-937
-937
-937
-937
-937
-937
-937
-938
-939
-938
-936
-937
-938
-943
-944
-941
-938
-936
-934
-933
-932
-923
-919
-919
-924
-928
-925
-921
-921
-922
-925
-927
-927
-929
-933
-934
-934
-936
-938
-939
-939
-937
-937
-940
-939
-941
-944
-939
-934
-935
-937
-929
-903
-851
-787
-736
-704
-687
-677
-680
-694
-722
-768
-851
-937
-965
-950
-932
-919
-919
-927
-934
-941
-941
-937
-930
-933
-943
-948
-941
-932
-932
-934
-934
-934
-935
-933
-932
-932
-929
-926
-925
-925
-922
-920
-919
-920
-920
-919
-917
-916
-913
-907
-902
-899
-898
-898
-897
-892
-886
-881
-880
-877
-873
-869
-869
-865
-864
-864
-862
-860
-860
-864
-868
-870
-876
-883
-888
-896
-903
-911
-915
-921
-925
-928
-931
-933
-934
-933
-933
-934
-935
-938
-939
-937
-935
-936
-938
-937
-938
-941
-941
-937
-934
-934
-937
-941
-939
-938
-937
-934
-933
-931
-933
-937
-939
-937
-934
-937
-938
-937
-934
-934
-935
-937
-938
-941
-943
-941
-939
-939
-941
-944
-945
-939
-934
-937
-944
-944
-941
-941
-945
-948
-945
-943
-941
-943
-943
-945
-947
-947
-945
-944
-945
-945
-945
-944
-943
-941
-943
-944
-947
-947
-944
-944
-945
-947
-945
-944
-946
-943
-937
-932
-930
-932
-932
-929
-927
-927
-929
-928
-925
-922
-925
-933
-938
-934
-932
-937
-943
-945
-944
-941
-943
-948
-952
-952
-952
-951
-948
-945
-947
-944
-939
-933
-922
-896
-844
-781
-732
-702
-687
-680
-685
-702
-733
-788
-875
-951
-968
-949
-926
-916
-925
-938
-944
-945
-943
-943
-943
-942
-941
-945
-946
-944
-941
-939
-941
-941
-939
-934
-936
-936
-936
-935
-933
-929
-927
-925
-924
-924
-921
-921
-921
-919
-913
-910
-909
-907
-904
-902
-902
-902
-899
-895
-888
-883
-879
-878
-879
-877
-876
-876
-873
-868
-865
-867
-875
-880
-885
-886
-893
-899
-904
-910
-914
-917
-921
-929
-938
-939
-941
-942
-941
-937
-940
-942
-941
-941
-938
-937
-938
-937
-938
-939
-943
-944
-942
-937
-934
-937
-940
-941
-939
-939
-939
-938
-941
-943
-939
-936
-938
-939
-941
-941
-938
-938
-940
-943
-941
-941
-941
-943
-943
-941
-943
-944
-944
-943
-944
-945
-945
-944
-941
-945
-948
-951
-951
-948
-948
-947
-945
-944
-943
-946
-950
-952
-948
-945
-947
-948
-947
-944
-944
-948
-949
-950
-951
-951
-947
-945
-949
-951
-952
-950
-948
-943
-938
-934
-934
-934
-932
-930
-931
-933
-934
-930
-926
-928
-935
-939
-941
-941
-944
-944
-945
-947
-951
-952
-951
-951
-953
-952
-951
-950
-945
-944
-943
-941
-934
-921
-888
-827
-759
-713
-688
-678
-676
-685
-710
-756
-835
-927
-970
-957
-934
-928
-932
-936
-941
-943
-948
-950
-948
-945
-944
-945
-943
-943
-947
-949
-948
-941
-939
-941
-942
-941
-937
-936
-934
-934
-934
-932
-928
-927
-925
-923
-926
-927
-921
-915
-913
-913
-911
-910
-904
-900
-897
-895
-894
-890
-887
-884
-880
-877
-876
-873
-873
-874
-875
-876
-879
-881
-881
-884
-885
-897
-911
-917
-913
-914
-920
-926
-930
-932
-936
-938
-941
-943
-945
-944
-942
-938
-937
-941
-941
-941
-938
-937
-938
-941
-943
-945
-945
-941
-935
-933
-940
-945
-944
-938
-936
-937
-937
-938
-941
-941
-940
-939
-939
-943
-944
-945
-944
-945
-947
-945
-946
-943
-939
-939
-947
-950
-948
-944
-944
-946
-944
-945
-948
-947
-948
-948
-948
-948
-948
-949
-947
-943
-941
-944
-947
-948
-949
-948
-946
-943
-944
-947
-948
-948
-947
-941
-940
-937
-934
-933
-930
-928
-929
-929
-930
-928
-928
-928
-930
-933
-939
-945
-944
-941
-944
-948
-951
-953
-952
-950
-947
-942
-941
-947
-951
-947
-938
-930
-924
-907
-859
-784
-729
-701
-689
-685
-691
-707
-738
-795
-892
-967
-978
-952
-933
-925
-925
-933
-939
-944
-944
-943
-941
-941
-941
-941
-938
-936
-937
-938
-938
-937
-934
-929
-929
-932
-934
-934
-927
-921
-920
-925
-926
-922
-917
-911
-910
-913
-910
-905
-900
-897
-899
-898
-892
-888
-887
-883
-875
-873
-875
-875
-872
-865
-859
-856
-864
-868
-865
-864
-865
-874
-880
-888
-897
-902
-905
-907
-910
-911
-915
-924
-932
-934
-930
-929
-934
-936
-937
-937
-936
-934
-934
-936
-935
-933
-933
-932
-932
-932
-929
-930
-932
-934
-935
-934
-932
-930
-929
-927
-929
-934
-938
-934
-934
-936
-937
-935
-935
-934
-932
-933
-937
-939
-938
-941
-939
-937
-937
-937
-938
-939
-938
-938
-939
-941
-938
-936
-937
-939
-942
-941
-939
-941
-941
-943
-943
-943
-939
-934
-933
-937
-943
-944
-943
-940
-938
-941
-940
-934
-930
-930
-928
-928
-928
-927
-924
-922
-921
-923
-924
-925
-926
-926
-929
-932
-933
-937
-941
-941
-937
-934
-937
-947
-952
-948
-941
-936
-934
-936
-937
-936
-937
-932
-910
-854
-778
-723
-693
-678
-673
-677
-691
-720
-778
-874
-956
-971
-952
-937
-928
-924
-925
-928
-934
-939
-939
-939
-941
-941
-938
-934
-934
-934
-933
-933
-933
-933
-934
-931
-925
-921
-919
-922
-929
-927
-920
-919
-919
-919
-915
-913
-910
-907
-905
-906
-903
-897
-892
-888
-888
-885
-879
-875
-874
-873
-872
-870
-869
-867
-862
-860
-860
-865
-868
-867
-868
-872
-882
-896
-904
-907
-907
-909
-918
-925
-932
-933
-929
-928
-929
-936
-938
-934
-932
-936
-942
-941
-937
-934
-934
-928
-928
-934
-938
-936
-935
-933
-930
-929
-934
-937
-936
-932
-930
-933
-934
-934
-933
-933
-930
-929
-933
-936
-938
-937
-935
-934
-938
-939
-937
-934
-934
-938
-943
-944
-941
-941
-941
-939
-940
-941
-944
-943
-941
-943
-945
-943
-939
-941
-944
-943
-941
-941
-941
-939
-939
-943
-947
-944
-939
-939
-946
-948
-941
-938
-939
-944
-945
-942
-934
-927
-925
-929
-930
-929
-927
-925
-923
-923
-925
-930
-934
-933
-930
-929
-936
-944
-947
-947
-945
-945
-944
-941
-944
-947
-948
-948
-945
-941
-941
-938
-930
-914
-868
-796
-733
-696
-678
-671
-675
-687
-713
-758
-842
-936
-976
-958
-934
-927
-933
-937
-939
-941
-943
-943
-945
-946
-945
-944
-943
-943
-939
-939
-941
-941
-941
-938
-934
-935
-936
-938
-938
-936
-932
-928
-927
-925
-921
-920
-921
-920
-920
-919
-915
-909
-905
-904
-902
-903
-902
-898
-891
-885
-882
-882
-883
-882
-882
-879
-877
-875
-875
-874
-876
-880
-886
-897
-904
-908
-912
-915
-920
-924
-927
-930
-935
-939
-941
-942
-940
-939
-940
-940
-944
-945
-945
-947
-949
-949
-946
-941
-940
-941
-943
-943
-944
-943
-941
-943
-941
-941
-941
-943
-945
-947
-944
-940
-941
-944
-948
-944
-941
-942
-948
-947
-944
-945
-948
-948
-944
-947
-951
-953
-952
-952
-951
-947
-945
-951
-955
-952
-951
-952
-952
-951
-951
-948
-948
-951
-955
-956
-952
-950
-950
-953
-956
-953
-948
-945
-948
-953
-955
-951
-950
-955
-957
-955
-953
-951
-949
-948
-948
-952
-955
-953
-950
-948
-944
-938
-933
-933
-934
-934
-934
-933
-932
-927
-927
-934
-943
-947
-943
-942
-943
-945
-948
-948
-951
-956
-960
-955
-948
-948
-953
-957
-958
-955
-948
-944
-941
-933
-913
-866
-796
-741
-708
-687
-676
-677
-693
-721
-768
-853
-943
-979
-962
-934
-922
-929
-941
-945
-944
-943
-944
-950
-955
-953
-950
-948
-945
-943
-947
-952
-951
-947
-945
-943
-942
-938
-936
-938
-939
-939
-937
-935
-934
-932
-928
-925
-925
-924
-921
-919
-919
-918
-913
-909
-909
-911
-910
-906
-898
-891
-889
-891
-888
-886
-885
-884
-881
-879
-880
-884
-887
-884
-884
-892
-904
-906
-910
-915
-920
-928
-933
-934
-937
-938
-944
-948
-947
-943
-943
-947
-948
-947
-944
-945
-945
-947
-947
-944
-941
-940
-945
-953
-954
-945
-941
-941
-944
-945
-948
-951
-951
-947
-940
-934
-938
-945
-948
-948
-944
-943
-944
-945
-947
-952
-955
-955
-955
-952
-948
-943
-945
-952
-958
-956
-951
-948
-950
-949
-948
-951
-953
-949
-948
-955
-957
-954
-953
-952
-952
-951
-951
-950
-949
-948
-951
-950
-948
-950
-950
-951
-951
-950
-948
-951
-951
-953
-952
-948
-944
-943
-941
-941
-939
-938
-934
-932
-930
-932
-933
-933
-933
-934
-939
-941
-939
-937
-939
-945
-948
-948
-948
-952
-952
-948
-950
-951
-952
-950
-944
-938
-937
-941
-938
-916
-865
-789
-731
-699
-681
-676
-680
-696
-726
-784
-879
-959
-970
-951
-934
-930
-933
-938
-939
-939
-941
-944
-943
-941
-943
-943
-940
-937
-936
-937
-936
-934
-934
-934
-933
-933
-933
-932
-928
-927
-924
-918
-915
-916
-923
-925
-920
-914
-911
-907
-904
-900
-899
-899
-896
-894
-888
-879
-872
-875
-876
-872
-867
-864
-861
-858
-855
-861
-872
-875
-875
-874
-876
-885
-896
-906
-909
-906
-907
-918
-925
-925
-925
-927
-930
-934
-934
-934
-933
-933
-934
-933
-932
-933
-937
-938
-933
-929
-930
-934
-932
-929
-930
-930
-929
-929
-930
-930
-932
-930
-929
-930
-930
-932
-932
-927
-925
-931
-936
-934
-933
-933
-934
-934
-934
-934
-934
-933
-933
-934
-936
-934
-933
-934
-936
-937
-934
-937
-938
-941
-941
-937
-933
-932
-936
-941
-941
-943
-940
-934
-929
-933
-938
-941
-941
-939
-936
-934
-933
-932
-933
-934
-930
-925
-925
-926
-926
-920
-912
-911
-918
-924
-925
-925
-925
-925
-927
-930
-932
-937
-940
-940
-938
-936
-936
-936
-936
-934
-934
-934
-934
-934
-935
-928
-906
-858
-790
-732
-702
-686
-681
-683
-694
-717
-764
-855
-947
-971
-948
-930
-925
-924
-925
-925
-930
-936
-934
-932
-929
-927
-927
-929
-927
-926
-927
-928
-930
-929
-925
-922
-922
-921
-917
-914
-914
-914
-916
-915
-913
-909
-902
-900
-902
-902
-899
-893
-889
-888
-888
-884
-875
-870
-869
-868
-863
-859
-860
-859
-856
-854
-856
-857
-856
-858
-865
-867
-868
-872
-883
-891
-898
-904
-911
-915
-916
-918
-918
-922
-929
-930
-928
-925
-923
-927
-933
-936
-934
-929
-925
-926
-932
-935
-930
-925
-921
-925
-928
-928
-925
-923
-924
-925
-926
-927
-928
-926
-924
-925
-927
-930
-933
-933
-930
-928
-930
-934
-934
-930
-928
-927
-930
-933
-933
-933
-934
-936
-934
-934
-934
-933
-933
-934
-937
-935
-933
-933
-934
-937
-937
-936
-934
-936
-935
-934
-932
-932
-934
-936
-934
-936
-937
-937
-940
-937
-932
-925
-924
-925
-925
-924
-921
-921
-921
-918
-915
-914
-918
-925
-930
-928
-925
-929
-933
-934
-936
-938
-938
-938
-938
-938
-937
-935
-932
-930
-934
-934
-936
-933
-920
-891
-837
-770
-718
-690
-676
-670
-675
-690
-723
-781
-876
-953
-968
-944
-925
-920
-923
-929
-933
-933
-932
-934
-934
-934
-934
-933
-934
-934
-936
-934
-929
-927
-929
-929
-926
-928
-927
-922
-921
-925
-928
-924
-918
-914
-913
-911
-911
-910
-910
-907
-906
-904
-899
-892
-886
-885
-889
-887
-881
-875
-873
-873
-872
-868
-865
-865
-862
-861
-861
-865
-872
-879
-884
-890
-898
-902
-903
-909
-916
-922
-926
-928
-930
-932
-930
-933
-939
-943
-939
-938
-939
-941
-939
-938
-936
-936
-941
-941
-941
-940
-937
-933
-932
-934
-938
-940
-939
-937
-935
-936
-939
-941
-938
-934
-934
-937
-941
-941
-941
-939
-939
-939
-938
-937
-940
-943
-943
-945
-947
-945
-944
-944
-947
-948
-944
-941
-943
-948
-948
-945
-944
-945
-948
-948
-946
-947
-949
-952
-948
-943
-941
-941
-945
-947
-945
-945
-947
-948
-946
-945
-947
-948
-949
-947
-937
-929
-925
-928
-933
-932
-929
-928
-927
-925
-927
-933
-937
-938
-941
-941
-940
-942
-947
-945
-947
-948
-951
-953
-951
-950
-948
-948
-948
-947
-943
-941
-939
-923
-886
-824
-762
-721
-695
-681
-679
-687
-710
-751
-821
-914
-973
-971
-948
-928
-923
-929
-938
-943
-945
-946
-947
-946
-947
-947
-945
-947
-948
-948
-943
-938
-936
-941
-941
-939
-939
-941
-941
-939
-936
-928
-925
-927
-928
-925
-925
-925
-921
-915
-914
-914
-911
-910
-909
-907
-907
-905
-900
-896
-892
-885
-884
-883
-883
-882
-879
-879
-880
-878
-878
-879
-885
-895
-904
-911
-917
-920
-922
-925
-928
-932
-936
-943
-948
-947
-944
-943
-943
-944
-947
-948
-947
-945
-947
-948
-948
-950
-948
-946
-947
-947
-945
-947
-948
-948
-947
-943
-943
-944
-941
-943
-946
-948
-947
-945
-944
-945
-948
-948
-950
-948
-948
-943
-939
-941
-948
-951
-954
-955
-950
-948
-948
-945
-947
-952
-954
-955
-953
-950
-947
-944
-948
-953
-953
-952
-950
-948
-947
-951
-955
-953
-950
-948
-950
-948
-948
-945
-949
-951
-951
-950
-951
-951
-950
-948
-944
-941
-939
-936
-933
-930
-928
-929
-931
-934
-934
-933
-933
-935
-935
-938
-942
-947
-946
-945
-945
-947
-952
-955
-955
-952
-949
-948
-947
-948
-948
-947
-943
-936
-919
-876
-811
-753
-714
-693
-681
-680
-692
-715
-758
-833
-928
-971
-960
-934
-922
-925
-934
-942
-945
-945
-945
-951
-955
-950
-945
-944
-943
-939
-941
-942
-943
-941
-941
-941
-938
-938
-938
-936
-933
-933
-929
-927
-927
-928
-928
-923
-921
-921
-920
-919
-918
-917
-911
-905
-900
-900
-900
-896
-891
-891
-895
-893
-887
-883
-883
-887
-884
-881
-879
-877
-879
-883
-891
-900
-907
-911
-914
-914
-919
-925
-934
-937
-939
-937
-937
-937
-936
-938
-943
-945
-944
-941
-939
-939
-941
-941
-944
-945
-944
-939
-936
-937
-941
-941
-941
-941
-943
-943
-939
-937
-937
-939
-941
-945
-947
-941
-934
-934
-937
-946
-948
-944
-940
-941
-945
-945
-944
-944
-943
-943
-941
-943
-944
-944
-944
-948
-952
-948
-943
-943
-945
-947
-942
-941
-946
-948
-948
-943
-939
-942
-947
-948
-944
-941
-941
-944
-947
-947
-941
-936
-933
-932
-929
-928
-929
-932
-932
-927
-920
-917
-923
-933
-934
-934
-933
-934
-939
-944
-947
-947
-944
-939
-940
-944
-947
-944
-941
-939
-938
-936
-937
-935
-921
-885
-822
-759
-718
-696
-683
-680
-690
-716
-762
-847
-938
-968
-948
-926
-916
-918
-926
-934
-939
-941
-939
-941
-937
-930
-929
-930
-933
-937
-938
-934
-929
-926
-927
-929
-929
-925
-923
-921
-922
-925
-922
-918
-915
-911
-909
-910
-910
-906
-904
-904
-902
-897
-895
-891
-884
-879
-881
-882
-877
-872
-865
-861
-862
-868
-870
-870
-866
-863
-862
-865
-869
-879
-888
-893
-896
-897
-899
-906
-910
-915
-921
-924
-925
-925
-925
-925
-925
-922
-922
-925
-930
-928
-925
-923
-924
-925
-928
-924
-921
-921
-922
-922
-920
-920
-928
-932
-929
-921
-919
-919
-924
-928
-929
-928
-924
-921
-923
-926
-925
-925
-923
-925
-926
-925
-927
-932
-934
-934
-932
-930
-929
-927
-928
-929
-932
-932
-930
-934
-934
-929
-927
-925
-927
-932
-934
-934
-934
-932
-929
-925
-925
-927
-927
-922
-918
-916
-916
-917
-920
-919
-912
-905
-904
-910
-921
-925
-926
-924
-920
-919
-922
-930
-937
-935
-930
-928
-929
-930
-930
-929
-928
-926
-925
-923
-920
-907
-873
-810
-749
-710
-689
-680
-676
-684
-706
-745
-820
-915
-960
-948
-924
-913
-913
-915
-916
-918
-925
-925
-926
-928
-926
-925
-920
-919
-919
-919
-921
-924
-925
-921
-915
-913
-914
-916
-916
-913
-909
-910
-907
-902
-898
-897
-900
-904
-904
-902
-897
-890
-886
-884
-882
-878
-876
-875
-873
-866
-862
-860
-854
-849
-845
-851
-859
-856
-855
-853
-854
-858
-864
-872
-880
-885
-891
-897
-898
-899
-905
-914
-918
-920
-919
-919
-919
-918
-919
-916
-918
-920
-921
-921
-919
-920
-921
-921
-921
-921
-921
-917
-914
-916
-924
-923
-919
-916
-918
-921
-921
-920
-920
-920
-921
-921
-921
-922
-920
-920
-925
-928
-925
-922
-920
-920
-922
-925
-926
-925
-926
-929
-930
-929
-928
-927
-927
-929
-929
-927
-925
-928
-930
-930
-929
-924
-924
-928
-932
-930
-925
-924
-921
-920
-919
-918
-913
-911
-911
-911
-909
-909
-912
-917
-921
-919
-918
-919
-923
-928
-929
-930
-933
-934
-933
-929
-929
-930
-931
-930
-932
-929
-924
-922
-918
-902
-856
-789
-733
-698
-680
-672
-676
-689
-718
-770
-859
-937
-959
-941
-923
-913
-911
-917
-925
-932
-930
-925
-925
-927
-925
-925
-927
-925
-925
-928
-929
-925
-922
-920
-919
-922
-922
-918
-919
-919
-915
-912
-910
-911
-913
-912
-905
-899
-899
-903
-899
-895
-889
-888
-885
-879
-878
-879
-879
-877
-873
-867
-865
-866
-864
-861
-861
-860
-858
-860
-868
-875
-877
-879
-885
-898
-906
-914
-919
-918
-915
-920
-924
-925
-925
-926
-926
-927
-928
-931
-929
-928
-931
-931
-929
-927
-929
-927
-925
-926
-925
-925
-925
-925
-925
-928
-930
-928
-926
-926
-931
-933
-930
-929
-928
-927
-925
-927
-930
-933
-935
-934
-935
-934
-930
-930
-934
-936
-935
-936
-936
-933
-930
-934
-939
-943
-939
-934
-934
-937
-941
-942
-939
-936
-934
-934
-937
-937
-940
-941
-941
-939
-937
-935
-934
-930
-927
-925
-925
-920
-918
-919
-921
-920
-920
-921
-924
-928
-929
-930
-929
-933
-937
-939
-944
-945
-943
-942
-941
-941
-944
-943
-941
-941
-943
-941
-938
-934
-919
-885
-823
-759
-717
-694
-682
-678
-687
-706
-741
-805
-900
-962
-959
-934
-918
-919
-930
-942
-941
-936
-935
-941
-948
-948
-945
-939
-938
-940
-943
-944
-943
-936
-929
-932
-934
-936
-934
-936
-930
-925
-928
-929
-928
-927
-925
-924
-919
-917
-915
-914
-910
-910
-911
-910
-904
-897
-893
-891
-890
-891
-890
-888
-884
-883
-881
-879
-878
-878
-879
-879
-879
-883
-886
-888
-897
-909
-917
-920
-920
-923
-927
-932
-935
-938
-939
-938
-938
-937
-935
-934
-936
-939
-941
-937
-935
-937
-940
-941
-941
-938
-936
-936
-939
-937
-933
-933
-937
-941
-943
-941
-940
-939
-938
-934
-934
-938
-938
-938
-940
-941
-939
-939
-941
-941
-943
-944
-947
-944
-941
-944
-947
-947
-944
-939
-938
-945
-952
-953
-948
-943
-941
-941
-942
-945
-948
-948
-947
-945
-946
-947
-948
-947
-943
-941
-934
-930
-929
-930
-929
-927
-925
-927
-925
-922
-925
-930
-933
-933
-936
-939
-943
-945
-949
-952
-953
-951
-948
-944
-944
-945
-947
-950
-950
-947
-944
-941
-937
-923
-892
-836
-773
-730
-704
-689
-685
-694
-716
-759
-836
-925
-967
-956
-933
-922
-925
-933
-938
-942
-947
-948
-948
-945
-944
-941
-939
-943
-944
-941
-941
-938
-937
-937
-934
-934
-936
-934
-932
-931
-932
-932
-929
-929
-927
-924
-923
-921
-913
-911
-911
-911
-911
-910
-904
-898
-896
-893
-892
-890
-888
-888
-885
-884
-884
-883
-882
-880
-878
-875
-876
-878
-883
-888
-896
-900
-905
-911
-916
-920
-925
-929
-933
-932
-927
-927
-929
-932
-934
-936
-937
-934
-934
-937
-934
-929
-928
-933
-934
-929
-925
-925
-929
-932
-932
-932
-933
-934
-934
-932
-927
-928
-932
-935
-934
-934
-932
-929
-928
-933
-938
-939
-936
-933
-932
-934
-934
-934
-933
-933
-934
-936
-938
-936
-934
-934
-936
-938
-939
-939
-937
-934
-933
-934
-938
-939
-941
-937
-933
-932
-925
-921
-925
-929
-926
-919
-916
-918
-919
-917
-918
-920
-923
-925
-925
-927
-929
-933
-938
-939
-937
-936
-938
-936
-934
-933
-934
-937
-938
-938
-934
-932
-926
-913
-883
-826
-762
-718
-694
-681
-680
-683
-702
-739
-812
-910
-957
-948
-928
-916
-914
-915
-919
-925
-930
-934
-933
-932
-932
-932
-932
-930
-929
-924
-921
-921
-922
-924
-925
-925
-921
-918
-916
-916
-915
-914
-910
-908
-909
-911
-907
-902
-899
-900
-900
-897
-889
-883
-884
-887
-887
-882
-874
-872
-870
-869
-866
-864
-866
-866
-867
-867
-865
-865
-867
-870
-873
-880
-887
-894
-897
-900
-902
-906
-910
-913
-915
-919
-922
-923
-925
-925
-924
-923
-923
-925
-929
-925
-923
-921
-922
-924
-921
-918
-919
-919
-920
-919
-918
-919
-918
-919
-920
-919
-919
-919
-918
-921
-926
-928
-925
-921
-919
-921
-925
-929
-930
-932
-930
-927
-925
-927
-927
-927
-927
-929
-934
-934
-933
-928
-928
-928
-930
-930
-928
-930
-934
-933
-929
-929
-928
-927
-922
-920
-918
-918
-918
-915
-914
-916
-916
-914
-911
-915
-917
-916
-919
-922
-925
-928
-928
-929
-928
-928
-930
-936
-937
-931
-925
-925
-928
-930
-930
-923
-912
-892
-851
-789
-738
-706
-687
-679
-683
-696
-725
-777
-869
-947
-962
-936
-914
-907
-913
-921
-925
-927
-928
-925
-924
-925
-928
-929
-927
-925
-925
-927
-922
-918
-917
-918
-920
-921
-919
-915
-911
-910
-911
-910
-907
-910
-909
-907
-904
-900
-897
-895
-891
-890
-890
-888
-884
-874
-874
-876
-872
-868
-868
-865
-862
-860
-859
-861
-864
-865
-864
-862
-863
-870
-881
-885
-888
-895
-900
-905
-911
-913
-912
-917
-924
-928
-925
-922
-922
-924
-920
-916
-920
-925
-925
-921
-921
-925
-929
-928
-923
-918
-917
-919
-919
-918
-920
-921
-922
-922
-919
-917
-919
-924
-925
-922
-918
-920
-922
-925
-926
-927
-925
-923
-926
-930
-929
-923
-919
-924
-932
-935
-935
-932
-927
-925
-926
-930
-933
-934
-934
-929
-927
-929
-930
-930
-925
-920
-918
-915
-915
-913
-911
-913
-914
-913
-913
-915
-916
-917
-918
-921
-925
-929
-934
-934
-934
-932
-933
-934
-935
-934
-933
-933
-932
-930
-928
-925
-921
-913
-888
-835
-767
-719
-694
-679
-675
-680
-698
-733
-801
-899
-956
-951
-929
-915
-911
-920
-930
-933
-932
-930
-928
-929
-930
-930
-930
-930
-930
-926
-922
-922
-927
-928
-926
-922
-922
-921
-918
-914
-918
-922
-923
-917
-910
-908
-906
-906
-906
-905
-900
-896
-894
-893
-892
-887
-884
-884
-885
-884
-877
-870
-868
-866
-865
-869
-870
-870
-868
-868
-872
-876
-884
-888
-892
-900
-905
-905
-907
-913
-920
-925
-927
-925
-926
-925
-928
-932
-934
-929
-927
-929
-930
-929
-929
-933
-933
-928
-927
-929
-929
-929
-928
-925
-925
-925
-927
-928
-928
-928
-932
-932
-927
-925
-928
-929
-929
-930
-933
-935
-934
-934
-934
-936
-936
-939
-940
-936
-934
-937
-940
-939
-941
-939
-938
-938
-939
-943
-945
-940
-939
-943
-942
-941
-937
-930
-926
-924
-922
-923
-926
-926
-925
-922
-918
-918
-925
-933
-937
-934
-933
-934
-939
-944
-947
-947
-945
-946
-947
-948
-945
-945
-945
-945
-944
-940
-939
-934
-921
-891
-832
-770
-722
-695
-681
-679
-687
-709
-745
-813
-909
-964
-963
-938
-921
-918
-928
-936
-941
-944
-944
-941
-941
-939
-941
-947
-949
-944
-938
-937
-937
-939
-941
-941
-935
-933
-933
-934
-935
-934
-932
-930
-930
-923
-919
-921
-924
-922
-917
-913
-911
-910
-910
-909
-909
-907
-902
-896
-891
-890
-891
-889
-888
-888
-884
-879
-881
-883
-882
-883
-887
-895
-902
-906
-907
-909
-914
-920
-926
-930
-934
-936
-936
-933
-933
-937
-941
-943
-938
-938
-939
-938
-939
-942
-943
-939
-937
-937
-937
-937
-934
-935
-934
-935
-937
-938
-939
-938
-936
-934
-940
-941
-941
-938
-935
-936
-941
-944
-941
-938
-936
-939
-941
-942
-943
-943
-944
-948
-945
-943
-944
-948
-950
-948
-944
-943
-948
-952
-948
-944
-945
-948
-948
-947
-946
-941
-941
-943
-940
-932
-929
-928
-926
-927
-928
-929
-925
-925
-929
-935
-938
-936
-933
-934
-941
-944
-945
-947
-948
-952
-955
-955
-952
-948
-948
-948
-948
-945
-945
-943
-937
-921
-882
-816
-757
-719
-699
-687
-683
-693
-715
-755
-826
-916
-966
-962
-941
-925
-923
-932
-940
-944
-946
-945
-945
-945
-944
-944
-944
-945
-944
-945
-945
-944
-941
-939
-941
-939
-937
-937
-940
-938
-938
-936
-933
-932
-930
-928
-926
-924
-922
-922
-922
-921
-920
-918
-914
-911
-909
-905
-903
-902
-900
-898
-898
-898
-898
-896
-891
-891
-892
-893
-891
-892
-895
-904
-910
-910
-910
-911
-916
-924
-932
-934
-936
-938
-938
-938
-938
-942
-943
-943
-941
-941
-943
-945
-943
-941
-938
-939
-940
-939
-940
-939
-939
-939
-940
-941
-937
-936
-937
-939
-941
-941
-944
-945
-944
-944
-945
-941
-937
-934
-937
-943
-947
-948
-946
-945
-945
-947
-948
-950
-951
-950
-948
-947
-947
-948
-951
-951
-947
-948
-948
-947
-945
-941
-938
-934
-933
-932
-929
-928
-929
-931
-934
-934
-930
-925
-927
-934
-941
-942
-941
-941
-943
-947
-950
-955
-956
-956
-952
-950
-949
-950
-951
-951
-951
-948
-947
-944
-933
-905
-849
-782
-736
-710
-694
-689
-695
-715
-750
-817
-910
-966
-965
-943
-929
-928
-936
-945
-951
-951
-948
-943
-947
-951
-951
-947
-944
-947
-947
-948
-945
-944
-938
-936
-941
-948
-950
-945
-939
-934
-936
-937
-938
-936
-932
-928
-928
-928
-927
-925
-924
-922
-920
-916
-914
-911
-911
-911
-910
-909
-907
-904
-903
-904
-902
-901
-898
-897
-899
-900
-903
-902
-905
-910
-917
-922
-923
-925
-935
-941
-940
-941
-948
-951
-951
-948
-948
-948
-947
-947
-949
-952
-948
-944
-944
-945
-948
-948
-949
-947
-944
-944
-945
-944
-945
-948
-950
-948
-948
-947
-947
-951
-952
-951
-951
-950
-952
-951
-951
-952
-955
-952
-955
-956
-953
-953
-953
-956
-957
-956
-956
-955
-956
-958
-959
-959
-959
-958
-956
-955
-955
-956
-954
-948
-944
-939
-938
-940
-941
-939
-937
-934
-935
-938
-942
-947
-947
-943
-944
-948
-955
-956
-957
-959
-962
-962
-962
-962
-962
-961
-960
-959
-956
-951
-948
-951
-944
-921
-869
-801
-745
-715
-699
-693
-696
-713
-746
-813
-910
-976
-978
-952
-933
-933
-944
-949
-949
-952
-956
-960
-960
-958
-955
-956
-956
-956
-956
-958
-956
-953
-950
-948
-947
-949
-955
-955
-948
-945
-943
-945
-948
-945
-939
-934
-934
-937
-940
-937
-934
-928
-927
-928
-927
-928
-927
-924
-921
-921
-922
-920
-917
-914
-913
-911
-911
-913
-912
-910
-910
-911
-913
-915
-918
-925
-929
-933
-937
-940
-943
-945
-949
-952
-951
-948
-948
-948
-948
-947
-948
-952
-953
-952
-948
-945
-945
-945
-943
-945
-948
-950
-949
-947
-947
-948
-946
-947
-953
-953
-948
-945
-941
-944
-951
-957
-957
-952
-947
-948
-951
-952
-949
-951
-954
-957
-956
-954
-953
-952
-953
-953
-953
-954
-957
-956
-953
-956
-956
-957
-957
-955
-953
-953
-955
-950
-943
-938
-939
-941
-938
-935
-934
-936
-937
-935
-933
-933
-938
-941
-943
-944
-948
-951
-952
-952
-953
-957
-959
-958
-953
-955
-958
-958
-956
-951
-948
-949
-951
-943
-925
-886
-824
-767
-731
-709
-695
-690
-699
-722
-766
-843
-934
-975
-962
-938
-924
-924
-934
-939
-943
-948
-952
-953
-953
-950
-948
-948
-948
-951
-951
-952
-948
-945
-943
-945
-946
-944
-938
-936
-936
-938
-938
-934
-932
-934
-936
-936
-930
-927
-926
-928
-928
-927
-926
-922
-925
-921
-918
-913
-911
-911
-911
-910
-907
-909
-907
-909
-908
-906
-907
-908
-907
-910
-911
-912
-915
-920
-927
-930
-930
-928
-928
-933
-937
-937
-938
-941
-941
-940
-938
-938
-941
-943
-941
-936
-934
-934
-936
-936
-937
-941
-944
-941
-938
-934
-934
-936
-938
-941
-941
-944
-941
-941
-940
-941
-944
-943
-943
-941
-940
-941
-946
-947
-947
-947
-945
-943
-946
-951
-950
-948
-948
-948
-945
-946
-948
-951
-948
-943
-935
-929
-932
-937
-937
-934
-933
-928
-922
-924
-925
-929
-928
-931
-937
-939
-934
-937
-939
-943
-947
-948
-948
-949
-949
-948
-946
-943
-946
-949
-948
-939
-934
-928
-912
-872
-805
-746
-710
-693
-685
-685
-698
-727
-792
-900
-974
-971
-943
-928
-925
-929
-937
-941
-941
-943
-945
-945
-944
-941
-941
-939
-941
-943
-941
-939
-934
-936
-938
-941
-941
-937
-934
-934
-937
-938
-936
-928
-920
-918
-916
-916
-916
-914
-916
-921
-916
-911
-910
-907
-905
-905
-904
-902
-898
-898
-899
-900
-898
-895
-898
-900
-899
-896
-899
-902
-905
-906
-905
-908
-911
-917
-918
-918
-921
-927
-933
-932
-929
-932
-934
-934
-931
-933
-936
-937
-934
-930
-925
-927
-929
-930
-932
-932
-932
-930
-929
-929
-931
-932
-932
-929
-929
-929
-932
-934
-934
-933
-932
-933
-934
-938
-940
-941
-939
-938
-938
-939
-937
-935
-937
-945
-950
-952
-948
-941
-938
-941
-942
-944
-944
-944
-945
-948
-948
-944
-941
-936
-930
-930
-933
-933
-930
-927
-925
-925
-925
-929
-933
-934
-930
-930
-934
-941
-945
-943
-943
-948
-949
-947
-945
-948
-952
-950
-947
-945
-941
-936
-934
-934
-923
-890
-827
-759
-717
-693
-676
-671
-677
-696
-736
-816
-918
-968
-958
-934
-925
-925
-927
-930
-937
-941
-939
-937
-937
-941
-939
-938
-937
-936
-938
-943
-941
-936
-933
-930
-929
-928
-932
-934
-930
-926
-922
-919
-916
-916
-918
-919
-916
-914
-916
-915
-913
-910
-904
-898
-899
-906
-905
-900
-895
-895
-895
-891
-888
-889
-890
-890
-892
-895
-897
-896
-895
-893
-897
-900
-905
-910
-915
-920
-919
-920
-924
-925
-925
-930
-937
-936
-934
-935
-933
-930
-929
-934
-937
-934
-929
-925
-924
-925
-929
-932
-927
-924
-921
-925
-932
-936
-937
-933
-929
-927
-925
-928
-934
-935
-932
-930
-934
-938
-936
-934
-934
-937
-937
-938
-938
-937
-936
-937
-941
-943
-945
-943
-939
-937
-937
-941
-941
-939
-935
-927
-924
-925
-922
-925
-930
-929
-924
-921
-921
-921
-922
-925
-930
-932
-935
-936
-941
-944
-945
-948
-945
-943
-944
-950
-953
-944
-936
-936
-940
-941
-936
-925
-906
-861
-791
-732
-695
-675
-665
-665
-679
-707
-759
-853
-944
-965
-947
-927
-919
-924
-933
-937
-941
-941
-941
-943
-941
-938
-930
-928
-934
-944
-946
-941
-934
-930
-932
-934
-935
-934
-934
-936
-938
-936
-929
-924
-920
-915
-915
-918
-918
-918
-915
-915
-915
-915
-911
-907
-904
-902
-905
-907
-906
-900
-896
-895
-894
-895
-896
-893
-889
-885
-888
-895
-896
-899
-900
-899
-904
-911
-918
-921
-922
-921
-922
-927
-930
-928
-928
-930
-930
-929
-933
-936
-934
-934
-934
-934
-934
-933
-932
-934
-934
-934
-932
-925
-922
-928
-930
-929
-930
-929
-925
-923
-927
-934
-936
-936
-933
-929
-932
-934
-936
-938
-939
-936
-934
-936
-937
-937
-937
-940
-941
-939
-938
-936
-935
-936
-934
-934
-932
-928
-924
-924
-920
-919
-919
-922
-925
-926
-924
-920
-920
-924
-929
-933
-936
-936
-937
-938
-941
-945
-947
-944
-941
-938
-934
-936
-937
-941
-944
-941
-933
-919
-893
-844
-778
-725
-695
-676
-666
-670
-685
-717
-775
-870
-948
-965
-941
-921
-913
-918
-930
-938
-936
-933
-930
-934
-938
-939
-938
-937
-934
-933
-934
-934
-934
-930
-929
-930
-932
-929
-928
-928
-928
-925
-921
-919
-919
-919
-920
-919
-911
-907
-910
-914
-913
-909
-906
-904
-902
-899
-898
-898
-899
-902
-902
-895
-890
-890
-892
-895
-893
-890
-889
-892
-896
-898
-900
-904
-907
-911
-913
-919
-920
-920
-922
-928
-931
-932
-929
-928
-927
-928
-932
-933
-929
-925
-925
-928
-930
-930
-928
-926
-928
-929
-928
-927
-930
-928
-923
-921
-925
-929
-928
-922
-924
-930
-932
-930
-929
-928
-927
-931
-933
-934
-933
-932
-936
-936
-930
-928
-930
-934
-938
-942
-940
-936
-933
-929
-929
-927
-925
-921
-919
-917
-915
-919
-920
-918
-915
-915
-920
-927
-933
-930
-925
-925
-929
-936
-938
-939
-939
-938
-937
-940
-941
-938
-936
-934
-938
-937
-937
-938
-933
-913
-873
-813
-753
-715
-689
-675
-671
-680
-702
-743
-816
-911
-962
-955
-928
-913
-914
-924
-935
-937
-933
-933
-933
-934
-934
-933
-934
-934
-932
-929
-931
-930
-929
-927
-928
-928
-927
-925
-924
-921
-923
-924
-919
-918
-918
-918
-915
-912
-911
-911
-911
-910
-907
-905
-904
-902
-900
-900
-898
-895
-893
-893
-892
-891
-892
-893
-893
-895
-895
-892
-888
-888
-894
-900
-904
-904
-902
-905
-911
-915
-922
-928
-928
-928
-925
-920
-919
-924
-928
-929
-928
-925
-923
-921
-921
-920
-922
-925
-925
-924
-924
-922
-922
-924
-925
-924
-920
-919
-922
-925
-925
-925
-925
-925
-925
-924
-924
-925
-927
-926
-925
-925
-927
-929
-927
-928
-929
-932
-932
-929
-929
-930
-933
-934
-932
-930
-929
-927
-924
-922
-919
-916
-916
-916
-916
-915
-918
-917
-915
-916
-922
-925
-924
-921
-922
-925
-932
-933
-933
-933
-934
-935
-937
-940
-938
-934
-932
-935
-934
-934
-932
-925
-913
-881
-821
-756
-713
-685
-673
-669
-678
-699
-738
-814
-912
-962
-951
-924
-909
-911
-919
-924
-928
-930
-931
-933
-934
-934
-933
-930
-933
-934
-932
-926
-925
-928
-932
-930
-929
-929
-928
-925
-923
-921
-922
-920
-918
-915
-913
-915
-918
-918
-917
-912
-907
-907
-907
-905
-902
-899
-902
-905
-904
-899
-898
-900
-899
-897
-896
-896
-898
-900
-899
-898
-899
-902
-903
-903
-905
-910
-914
-917
-916
-919
-922
-925
-928
-927
-925
-926
-928
-927
-928
-929
-925
-924
-926
-928
-925
-922
-923
-924
-925
-925
-925
-928
-927
-925
-925
-925
-925
-927
-932
-934
-934
-930
-928
-928
-925
-928
-934
-937
-933
-929
-932
-936
-938
-937
-936
-934
-938
-941
-941
-941
-938
-934
-933
-938
-941
-941
-939
-937
-936
-934
-933
-930
-929
-929
-928
-927
-925
-925
-924
-924
-925
-925
-925
-927
-930
-930
-930
-934
-941
-943
-941
-939
-941
-940
-941
-941
-943
-941
-941
-940
-937
-937
-930
-918
-884
-824
-760
-717
-693
-680
-678
-687
-715
-771
-872
-960
-977
-948
-925
-921
-925
-930
-937
-941
-939
-934
-934
-938
-941
-939
-936
-934
-934
-934
-933
-930
-930
-933
-932
-933
-933
-932
-928
-922
-921
-925
-925
-922
-916
-914
-919
-919
-916
-913
-910
-906
-904
-905
-905
-902
-898
-898
-899
-899
-898
-898
-898
-902
-901
-898
-898
-898
-898
-897
-898
-900
-908
-911
-913
-915
-915
-919
-925
-928
-928
-933
-936
-937
-934
-930
-930
-932
-934
-934
-933
-932
-933
-933
-930
-929
-929
-928
-928
-929
-930
-929
-930
-932
-933
-934
-933
-933
-934
-935
-933
-934
-937
-934
-936
-938
-937
-936
-936
-937
-937
-937
-936
-938
-938
-938
-941
-946
-948
-946
-941
-939
-941
-943
-947
-947
-945
-944
-939
-934
-933
-933
-932
-929
-930
-929
-928
-927
-925
-927
-932
-936
-938
-938
-938
-941
-938
-937
-940
-947
-946
-946
-947
-947
-944
-941
-941
-944
-947
-944
-941
-936
-930
-919
-881
-808
-747
-710
-694
-688
-691
-703
-729
-779
-872
-960
-982
-960
-937
-929
-932
-935
-938
-938
-941
-944
-945
-944
-941
-938
-937
-934
-934
-934
-936
-938
-940
-936
-934
-934
-933
-934
-936
-933
-929
-925
-924
-924
-923
-922
-923
-921
-917
-911
-907
-909
-910
-907
-904
-904
-902
-899
-899
-902
-900
-896
-896
-895
-892
-893
-897
-898
-897
-893
-895
-900
-904
-907
-915
-918
-921
-924
-929
-933
-933
-930
-933
-936
-935
-934
-938
-944
-945
-941
-936
-934
-934
-939
-939
-936
-933
-933
-933
-930
-929
-933
-938
-939
-937
-933
-932
-932
-933
-934
-937
-941
-941
-939
-936
-934
-939
-941
-939
-936
-936
-941
-941
-939
-939
-945
-948
-948
-944
-941
-943
-945
-947
-947
-948
-947
-945
-945
-945
-942
-936
-930
-932
-934
-933
-932
-933
-930
-928
-925
-930
-937
-940
-936
-933
-934
-941
-948
-948
-941
-941
-943
-944
-947
-950
-956
-957
-951
-943
-941
-941
-947
-941
-924
-883
-812
-748
-709
-689
-680
-682
-694
-721
-775
-875
-961
-980
-959
-936
-924
-925
-933
-939
-945
-945
-945
-945
-945
-944
-944
-943
-943
-943
-944
-944
-941
-940
-938
-934
-935
-937
-941
-938
-936
-933
-930
-929
-928
-925
-922
-920
-923
-925
-921
-918
-917
-916
-915
-914
-911
-909
-907
-906
-905
-902
-898
-899
-900
-902
-902
-900
-902
-902
-900
-900
-906
-911
-915
-916
-920
-924
-928
-932
-932
-933
-933
-934
-939
-944
-944
-945
-947
-941
-940
-940
-941
-943
-943
-942
-941
-938
-936
-937
-938
-940
-938
-938
-939
-939
-937
-934
-933
-934
-934
-934
-934
-938
-942
-941
-938
-938
-937
-934
-934
-937
-941
-945
-945
-944
-945
-945
-941
-941
-944
-944
-941
-941
-948
-951
-947
-944
-944
-945
-947
-947
-948
-948
-943
-936
-930
-928
-929
-932
-933
-929
-925
-924
-926
-931
-932
-932
-934
-941
-938
-934
-934
-936
-939
-947
-948
-949
-950
-948
-947
-947
-951
-953
-953
-952
-948
-947
-945
-941
-929
-902
-851
-787
-736
-706
-687
-678
-681
-695
-726
-782
-875
-956
-974
-951
-927
-919
-925
-934
-939
-943
-946
-946
-941
-941
-938
-941
-945
-944
-941
-937
-939
-941
-941
-938
-938
-938
-939
-937
-933
-933
-930
-930
-930
-926
-924
-924
-925
-923
-920
-919
-919
-918
-915
-916
-915
-912
-906
-904
-904
-907
-907
-903
-900
-897
-896
-897
-897
-898
-898
-898
-898
-899
-904
-910
-917
-919
-924
-925
-930
-932
-933
-936
-938
-936
-937
-939
-939
-939
-939
-943
-944
-941
-941
-944
-945
-944
-942
-943
-943
-939
-938
-941
-943
-941
-937
-934
-936
-939
-943
-940
-934
-933
-939
-944
-948
-944
-939
-935
-934
-937
-939
-941
-942
-944
-943
-943
-941
-941
-941
-941
-944
-948
-948
-948
-943
-941
-942
-943
-944
-947
-950
-950
-947
-944
-943
-941
-941
-944
-947
-941
-930
-924
-924
-928
-929
-925
-925
-927
-928
-929
-929
-933
-938
-940
-936
-933
-933
-939
-945
-948
-949
-948
-947
-945
-944
-944
-946
-947
-948
-944
-939
-938
-937
-929
-906
-857
-792
-738
-707
-689
-681
-683
-696
-725
-778
-868
-945
-963
-943
-922
-916
-921
-928
-937
-943
-944
-937
-934
-938
-941
-941
-938
-938
-937
-938
-938
-936
-935
-934
-933
-930
-929
-930
-930
-928
-924
-922
-925
-927
-925
-923
-921
-920
-915
-915
-918
-919
-915
-912
-907
-904
-902
-900
-899
-900
-901
-900
-900
-898
-895
-892
-895
-898
-899
-898
-892
-893
-897
-900
-904
-909
-915
-920
-922
-923
-925
-925
-929
-934
-937
-934
-933
-934
-938
-937
-936
-936
-938
-939
-938
-936
-933
-931
-933
-936
-939
-937
-934
-932
-930
-929
-929
-933
-934
-937
-938
-938
-933
-933
-933
-936
-937
-937
-939
-942
-940
-936
-935
-939
-944
-945
-941
-936
-932
-934
-941
-947
-947
-943
-939
-939
-938
-936
-936
-941
-944
-945
-942
-938
-935
-937
-941
-943
-941
-938
-937
-938
-941
-943
-947
-945
-943
-940
-940
-938
-937
-936
-932
-928
-927
-929
-930
-929
-928
-926
-923
-920
-920
-925
-930
-934
-929
-927
-934
-943
-947
-945
-944
-941
-939
-939
-941
-942
-944
-944
-941
-937
-935
-934
-936
-930
-913
-872
-805
-745
-709
-689
-678
-675
-685
-714
-772
-870
-951
-962
-941
-924
-917
-921
-927
-932
-934
-938
-941
-942
-940
-936
-933
-934
-939
-939
-938
-936
-933
-930
-929
-930
-933
-934
-929
-925
-925
-926
-925
-924
-921
-920
-920
-915
-913
-909
-906
-912
-915
-915
-912
-905
-900
-896
-899
-902
-899
-895
-893
-892
-892
-892
-892
-892
-891
-890
-889
-894
-900
-902
-904
-906
-909
-913
-918
-919
-923
-926
-925
-925
-930
-934
-937
-934
-933
-934
-934
-934
-934
-937
-936
-934
-933
-933
-937
-937
-934
-932
-930
-934
-934
-934
-933
-934
-936
-937
-937
-937
-934
-933
-934
-938
-941
-938
-937
-938
-934
-933
-936
-941
-944
-946
-944
-941
-939
-944
-944
-944
-941
-945
-949
-948
-945
-944
-943
-941
-944
-945
-947
-943
-939
-942
-947
-951
-951
-944
-940
-940
-943
-947
-947
-944
-943
-945
-944
-940
-934
-933
-934
-933
-930
-930
-930
-928
-928
-929
-929
-930
-931
-933
-935
-939
-938
-941
-946
-950
-951
-947
-941
-941
-945
-944
-944
-943
-943
-939
-938
-938
-935
-913
-861
-789
-733
-701
-687
-683
-687
-703
-736
-805
-909
-974
-972
-943
-920
-916
-929
-939
-941
-937
-934
-938
-941
-940
-938
-936
-936
-937
-938
-936
-932
-928
-929
-930
-928
-926
-924
-927
-929
-927
-921
-914
-916
-922
-925
-920
-916
-913
-906
-904
-904
-904
-902
-900
-897
-891
-889
-891
-890
-889
-888
-888
-884
-881
-880
-880
-883
-886
-888
-889
-892
-897
-903
-902
-905
-906
-912
-924
-929
-929
-927
-929
-934
-937
-936
-936
-936
-938
-941
-942
-937
-936
-934
-936
-936
-934
-931
-929
-932
-938
-939
-937
-936
-936
-934
-932
-929
-932
-934
-938
-938
-936
-934
-932
-930
-934
-938
-939
-939
-941
-940
-939
-941
-939
-939
-939
-941
-941
-939
-938
-944
-947
-943
-937
-939
-943
-941
-944
-945
-945
-945
-945
-947
-943
-939
-937
-941
-944
-947
-945
-944
-943
-940
-933
-930
-928
-927
-932
-933
-930
-929
-927
-926
-930
-934
-933
-933
-933
-934
-938
-941
-941
-944
-948
-949
-948
-946
-944
-944
-947
-944
-938
-937
-937
-935
-928
-905
-853
-783
-727
-698
-683
-681
-689
-703
-738
-809
-911
-967
-962
-941
-930
-926
-928
-932
-934
-936
-939
-940
-939
-938
-937
-934
-934
-934
-934
-933
-932
-932
-929
-926
-925
-925
-926
-928
-928
-925
-920
-915
-914
-915
-919
-919
-916
-911
-908
-900
-897
-899
-902
-898
-894
-890
-889
-886
-881
-880
-877
-877
-877
-881
-878
-875
-875
-879
-883
-882
-883
-885
-892
-902
-909
-915
-921
-923
-922
-925
-930
-937
-939
-937
-937
-937
-941
-940
-936
-936
-941
-943
-941
-939
-938
-936
-937
-938
-937
-937
-934
-934
-934
-936
-938
-937
-930
-932
-933
-932
-932
-933
-934
-936
-938
-939
-938
-938
-937
-938
-940
-938
-939
-938
-938
-938
-939
-941
-941
-941
-939
-941
-945
-945
-941
-939
-941
-941
-941
-941
-942
-941
-939
-939
-941
-944
-947
-947
-942
-939
-939
-941
-941
-940
-936
-934
-933
-929
-925
-928
-933
-936
-933
-925
-919
-924
-930
-932
-934
-938
-937
-941
-944
-944
-943
-945
-945
-944
-941
-941
-941
-945
-945
-944
-941
-940
-930
-906
-855
-785
-730
-698
-680
-673
-678
-695
-727
-792
-885
-956
-958
-938
-925
-924
-930
-934
-937
-938
-938
-939
-941
-939
-934
-934
-934
-936
-940
-939
-937
-932
-929
-933
-934
-932
-930
-928
-927
-925
-922
-922
-924
-922
-922
-920
-918
-914
-916
-913
-910
-906
-905
-904
-899
-897
-895
-892
-892
-890
-885
-881
-881
-882
-882
-883
-879
-879
-882
-882
-881
-884
-892
-900
-907
-910
-913
-920
-925
-927
-928
-933
-939
-941
-940
-938
-943
-942
-939
-941
-943
-943
-938
-941
-947
-948
-944
-941
-939
-938
-938
-939
-941
-941
-938
-934
-930
-933
-935
-939
-943
-943
-941
-939
-938
-937
-940
-941
-941
-941
-941
-941
-944
-943
-937
-937
-942
-948
-951
-948
-945
-944
-944
-947
-948
-951
-950
-948
-944
-941
-939
-943
-951
-953
-951
-948
-945
-944
-945
-948
-948
-948
-950
-947
-944
-944
-948
-951
-951
-948
-945
-938
-932
-930
-934
-934
-933
-930
-933
-934
-934
-932
-930
-933
-937
-939
-939
-938
-939
-944
-949
-951
-948
-947
-951
-950
-948
-951
-952
-952
-948
-944
-943
-941
-939
-927
-895
-833
-767
-722
-699
-685
-683
-689
-710
-751
-824
-917
-967
-962
-938
-925
-921
-928
-938
-943
-941
-941
-945
-947
-944
-941
-941
-939
-940
-941
-941
-941
-941
-938
-936
-936
-936
-936
-936
-932
-928
-927
-928
-928
-926
-924
-925
-925
-921
-918
-914
-911
-911
-910
-911
-911
-909
-902
-898
-892
-891
-895
-897
-895
-888
-884
-885
-885
-885
-882
-883
-890
-898
-903
-909
-911
-917
-921
-924
-930
-938
-941
-939
-939
-941
-943
-943
-944
-944
-945
-945
-944
-945
-951
-950
-950
-947
-944
-944
-945
-948
-950
-948
-945
-945
-947
-943
-939
-941
-943
-945
-943
-941
-941
-949
-950
-945
-941
-943
-945
-945
-945
-947
-950
-952
-948
-945
-946
-947
-945
-945
-948
-948
-948
-950
-950
-948
-945
-945
-949
-953
-956
-953
-951
-948
-945
-948
-952
-953
-952
-948
-942
-941
-946
-951
-954
-950
-949
-951
-950
-948
-950
-951
-949
-945
-948
-949
-947
-945
-944
-943
-937
-930
-929
-930
-932
-932
-932
-932
-933
-934
-932
-932
-934
-937
-938
-938
-938
-939
-944
-951
-953
-951
-949
-950
-950
-951
-951
-948
-948
-948
-950
-947
-938
-920
-889
-831
-770
-724
-700
-685
-684
-693
-713
-753
-822
-911
-962
-957
-932
-919
-921
-928
-934
-938
-941
-944
-945
-941
-934
-933
-934
-939
-940
-938
-934
-934
-938
-941
-939
-932
-928
-928
-928
-926
-925
-922
-921
-922
-923
-924
-920
-919
-916
-914
-914
-915
-914
-911
-907
-902
-897
-895
-891
-890
-890
-892
-891
-889
-885
-885
-885
-884
-883
-883
-884
-885
-893
-898
-902
-904
-904
-906
-918
-929
-932
-932
-932
-933
-932
-933
-937
-941
-940
-937
-937
-939
-941
-938
-938
-939
-939
-937
-936
-936
-935
-937
-939
-937
-934
-934
-936
-936
-936
-937
-938
-936
-933
-933
-934
-936
-938
-939
-938
-936
-937
-940
-941
-941
-938
-937
-937
-936
-936
-939
-941
-941
-938
-940
-943
-944
-944
-944
-941
-941
-941
-942
-943
-943
-941
-941
-938
-938
-941
-943
-944
-943
-941
-938
-938
-939
-941
-941
-939
-939
-939
-941
-941
-941
-941
-944
-943
-943
-943
-941
-938
-938
-941
-941
-939
-936
-936
-934
-930
-927
-925
-927
-927
-922
-921
-924
-925
-924
-919
-919
-925
-930
-930
-928
-928
-930
-934
-936
-934
-936
-938
-938
-940
-939
-940
-941
-939
-935
-933
-936
-936
-933
-918
-887
-831
-768
-722
-696
-680
-673
-680
-699
-737
-808
-900
-948
-941
-922
-911
-910
-914
-921
-929
-932
-930
-929
-928
-928
-928
-932
-930
-925
-924
-926
-928
-927
-922
-920
-922
-924
-919
-918
-916
-916
-915
-911
-911
-911
-911
-913
-910
-899
-896
-902
-906
-905
-898
-895
-890
-887
-886
-885
-883
-879
-877
-877
-879
-874
-869
-868
-868
-868
-873
-876
-875
-876
-883
-892
-898
-897
-898
-902
-905
-910
-916
-920
-923
-925
-925
-922
-925
-929
-929
-928
-925
-925
-925
-929
-928
-927
-926
-922
-924
-927
-924
-923
-925
-927
-926
-926
-925
-923
-922
-925
-930
-929
-927
-925
-928
-928
-925
-926
-928
-930
-932
-929
-927
-929
-932
-933
-934
-933
-930
-930
-933
-936
-934
-933
-933
-934
-933
-934
-936
-937
-934
-932
-934
-936
-937
-938
-934
-930
-933
-937
-937
-937
-934
-933
-934
-936
-936
-933
-932
-933
-934
-937
-937
-936
-932
-930
-934
-936
-936
-934
-934
-933
-932
-933
-934
-934
-934
-935
-929
-923
-922
-921
-920
-918
-920
-921
-919
-916
-916
-921
-924
-922
-921
-922
-926
-928
-929
-932
-934
-936
-934
-931
-929
-933
-934
-934
-934
-931
-929
-925
-920
-913
-888
-828
-759
-715
-693
-681
-679
-688
-707
-752
-841
-933
-963
-939
-919
-915
-918
-919
-916
-919
-921
-923
-925
-927
-925
-921
-918
-920
-922
-922
-921
-918
-920
-922
-918
-911
-913
-913
-913
-913
-911
-910
-910
-906
-902
-900
-902
-901
-900
-898
-895
-891
-889
-885
-885
-883
-881
-876
-869
-864
-867
-870
-870
-865
-860
-863
-867
-867
-862
-861
-868
-874
-875
-876
-882
-888
-893
-897
-902
-909
-911
-913
-917
-921
-925
-928
-929
-926
-923
-925
-928
-928
-929
-926
-924
-924
-924
-926
-928
-928
-925
-922
-918
-918
-922
-925
-924
-920
-920
-922
-924
-925
-929
-928
-925
-928
-927
-925
-925
-927
-927
-928
-933
-936
-934
-927
-925
-929
-930
-930
-930
-934
-937
-933
-928
-927
-926
-929
-937
-941
-938
-934
-934
-934
-928
-929
-935
-937
-936
-933
-933
-933
-934
-936
-936
-934
-934
-936
-937
-934
-934
-936
-936
-933
-933
-930
-928
-929
-933
-934
-929
-926
-925
-924
-921
-920
-925
-925
-921
-916
-914
-917
-921
-922
-923
-927
-929
-932
-934
-936
-936
-936
-938
-938
-935
-933
-934
-934
-933
-929
-925
-919
-913
-904
-872
-807
-747
-711
-692
-684
-684
-694
-718
-764
-849
-934
-958
-941
-923
-915
-916
-917
-919
-923
-925
-925
-927
-927
-927
-924
-926
-925
-923
-921
-920
-918
-917
-918
-919
-921
-919
-915
-914
-914
-913
-911
-909
-906
-899
-895
-898
-900
-897
-895
-892
-892
-891
-885
-879
-877
-877
-875
-874
-870
-865
-862
-859
-859
-859
-857
-858
-860
-862
-865
-864
-869
-877
-884
-888
-892
-896
-903
-910
-915
-920
-923
-925
-925
-924
-924
-922
-924
-925
-929
-934
-937
-936
-932
-925
-923
-928
-930
-928
-924
-924
-924
-921
-922
-924
-925
-926
-925
-925
-922
-922
-925
-930
-930
-929
-924
-922
-925
-927
-930
-932
-930
-929
-929
-928
-929
-929
-929
-929
-933
-935
-934
-932
-932
-932
-933
-934
-933
-933
-932
-934
-937
-936
-933
-930
-933
-936
-937
-935
-934
-935
-934
-934
-933
-930
-932
-932
-934
-936
-934
-930
-930
-925
-922
-922
-922
-922
-920
-920
-923
-923
-919
-918
-919
-922
-925
-927
-928
-925
-925
-933
-937
-939
-937
-934
-934
-934
-934
-934
-934
-934
-933
-930
-930
-929
-921
-902
-861
-794
-739
-708
-688
-680
-679
-690
-715
-754
-828
-915
-956
-944
-920
-907
-910
-919
-925
-930
-932
-930
-925
-922
-922
-927
-929
-929
-929
-930
-927
-925
-925
-925
-927
-925
-919
-914
-916
-919
-916
-911
-913
-917
-913
-910
-907
-906
-904
-900
-899
-900
-900
-900
-896
-890
-884
-877
-876
-877
-876
-875
-873
-870
-868
-864
-862
-861
-861
-863
-864
-865
-872
-880
-882
-886
-896
-911
-916
-915
-915
-916
-919
-919
-924
-933
-936
-933
-929
-932
-933
-933
-930
-932
-933
-933
-933
-930
-930
-933
-935
-933
-932
-933
-933
-932
-933
-932
-928
-927
-925
-929
-930
-928
-927
-929
-930
-930
-930
-930
-932
-932
-930
-933
-933
-934
-934
-934
-932
-932
-934
-937
-938
-936
-934
-937
-937
-934
-933
-933
-937
-936
-938
-938
-937
-938
-938
-937
-937
-939
-937
-936
-934
-934
-938
-936
-933
-933
-934
-935
-937
-937
-933
-925
-920
-919
-921
-923
-924
-925
-924
-920
-920
-925
-927
-925
-923
-925
-930
-932
-934
-938
-944
-941
-938
-938
-943
-943
-941
-938
-936
-936
-934
-933
-928
-915
-885
-831
-771
-729
-701
-685
-679
-685
-707
-741
-798
-889
-948
-952
-928
-910
-907
-915
-923
-930
-930
-929
-927
-929
-932
-932
-929
-927
-929
-927
-928
-928
-925
-929
-928
-927
-922
-916
-916
-920
-918
-915
-917
-918
-917
-912
-910
-910
-907
-905
-902
-899
-899
-898
-896
-896
-894
-889
-884
-882
-882
-881
-876
-872
-868
-870
-870
-869
-871
-871
-870
-870
-872
-877
-886
-896
-900
-906
-911
-915
-918
-920
-925
-927
-924
-927
-933
-933
-930
-930
-932
-934
-934
-933
-929
-927
-929
-936
-938
-936
-933
-932
-932
-929
-929
-932
-933
-932
-933
-933
-929
-927
-928
-930
-932
-933
-933
-933
-929
-929
-932
-933
-934
-934
-934
-934
-932
-929
-932
-934
-939
-941
-939
-937
-934
-929
-928
-933
-939
-940
-937
-936
-936
-938
-938
-936
-936
-938
-939
-936
-936
-936
-938
-936
-933
-934
-936
-937
-932
-928
-924
-924
-922
-920
-918
-917
-925
-929
-925
-920
-920
-923
-924
-925
-930
-934
-933
-930
-932
-938
-943
-943
-943
-941
-940
-934
-934
-936
-939
-940
-939
-937
-932
-920
-899
-853
-791
-743
-713
-694
-685
-685
-701
-733
-791
-879
-948
-950
-928
-910
-907
-915
-926
-932
-934
-934
-932
-932
-930
-930
-932
-932
-933
-933
-930
-929
-925
-925
-926
-925
-923
-923
-925
-925
-922
-920
-919
-918
-914
-913
-912
-911
-911
-909
-906
-905
-904
-905
-903
-894
-892
-893
-894
-892
-887
-884
-882
-880
-879
-876
-876
-875
-873
-873
-872
-875
-879
-885
-889
-892
-897
-904
-910
-914
-924
-927
-927
-925
-925
-925
-928
-933
-934
-934
-931
-930
-930
-930
-932
-934
-934
-934
-932
-929
-928
-930
-932
-933
-933
-932
-933
-933
-930
-928
-929
-934
-938
-936
-933
-930
-928
-931
-934
-934
-934
-933
-933
-930
-933
-937
-938
-937
-934
-934
-936
-933
-934
-938
-941
-941
-940
-938
-937
-937
-937
-938
-938
-941
-939
-938
-939
-937
-937
-939
-941
-940
-937
-938
-941
-939
-936
-937
-938
-937
-934
-930
-928
-928
-927
-927
-928
-929
-928
-925
-922
-922
-927
-932
-933
-931
-934
-938
-943
-943
-938
-940
-944
-947
-945
-941
-936
-938
-938
-938
-939
-940
-939
-933
-915
-874
-812
-755
-717
-695
-683
-684
-698
-728
-781
-875
-952
-964
-942
-922
-915
-920
-928
-935
-936
-938
-938
-937
-937
-937
-937
-934
-933
-933
-934
-934
-935
-936
-934
-932
-929
-929
-930
-928
-928
-925
-924
-923
-925
-922
-918
-915
-915
-916
-913
-911
-909
-902
-896
-896
-899
-899
-895
-888
-885
-882
-879
-882
-883
-881
-874
-869
-872
-875
-878
-881
-887
-892
-900
-906
-910
-910
-915
-922
-930
-932
-933
-934
-934
-936
-936
-936
-936
-938
-939
-939
-938
-937
-938
-941
-943
-939
-937
-936
-936
-936
-937
-940
-939
-937
-934
-934
-936
-937
-937
-939
-941
-941
-938
-938
-938
-938
-941
-941
-941
-936
-938
-941
-944
-943
-939
-941
-944
-948
-947
-941
-939
-943
-950
-950
-949
-944
-941
-943
-948
-949
-948
-948
-948
-948
-945
-943
-945
-948
-948
-947
-946
-944
-938
-937
-937
-938
-937
-934
-933
-933
-933
-933
-938
-939
-939
-937
-934
-934
-936
-941
-945
-951
-952
-948
-948
-948
-948
-949
-950
-953
-951
-945
-942
-939
-937
-933
-918
-879
-812
-753
-718
-704
-698
-700
-713
-740
-793
-886
-958
-967
-947
-933
-930
-933
-934
-938
-937
-940
-944
-948
-946
-944
-943
-939
-937
-938
-941
-941
-934
-933
-933
-933
-934
-934
-933
-928
-927
-926
-922
-917
-917
-921
-925
-921
-915
-911
-907
-907
-907
-904
-902
-896
-891
-887
-886
-885
-881
-880
-879
-878
-875
-872
-874
-875
-876
-879
-883
-884
-888
-893
-896
-903
-913
-920
-925
-928
-928
-929
-933
-937
-940
-940
-941
-941
-943
-944
-941
-939
-939
-940
-941
-939
-938
-938
-939
-940
-934
-933
-934
-940
-941
-939
-937
-934
-934
-937
-936
-934
-940
-941
-942
-943
-944
-939
-934
-933
-938
-939
-938
-939
-941
-944
-948
-949
-943
-941
-941
-944
-943
-947
-947
-946
-943
-941
-944
-948
-947
-947
-947
-945
-944
-948
-949
-948
-947
-948
-947
-941
-935
-934
-936
-934
-930
-932
-934
-935
-932
-930
-930
-934
-939
-940
-934
-934
-941
-946
-948
-948
-948
-951
-947
-943
-943
-949
-953
-951
-944
-939
-941
-943
-938
-921
-885
-822
-759
-721
-701
-694
-693
-704
-729
-777
-864
-948
-971
-953
-934
-925
-923
-927
-933
-939
-941
-941
-940
-937
-936
-940
-941
-939
-937
-936
-936
-937
-934
-932
-932
-930
-930
-929
-927
-925
-922
-923
-922
-921
-918
-915
-914
-911
-906
-904
-905
-904
-902
-899
-893
-886
-882
-882
-881
-879
-876
-873
-870
-870
-870
-867
-865
-867
-870
-873
-879
-884
-892
-898
-900
-905
-911
-918
-922
-926
-932
-936
-940
-941
-937
-934
-937
-939
-938
-936
-936
-934
-934
-936
-938
-937
-935
-934
-936
-938
-938
-938
-937
-934
-933
-932
-933
-934
-932
-931
-930
-929
-929
-932
-933
-933
-934
-937
-939
-938
-938
-937
-938
-939
-937
-934
-934
-939
-941
-941
-938
-936
-939
-941
-937
-936
-936
-939
-941
-941
-943
-943
-938
-938
-941
-941
-944
-944
-942
-939
-939
-939
-934
-928
-925
-928
-927
-925
-927
-929
-928
-925
-923
-925
-933
-935
-933
-933
-934
-934
-933
-934
-941
-949
-948
-946
-942
-941
-937
-938
-939
-939
-939
-939
-938
-928
-909
-864
-794
-741
-710
-692
-683
-683
-696
-725
-776
-865
-945
-966
-945
-924
-915
-915
-922
-929
-933
-934
-934
-937
-938
-936
-933
-932
-932
-930
-932
-934
-932
-927
-924
-924
-925
-928
-928
-924
-924
-925
-925
-922
-919
-911
-911
-913
-915
-914
-907
-902
-898
-897
-898
-897
-892
-888
-886
-886
-885
-880
-875
-873
-870
-870
-870
-870
-867
-865
-865
-867
-871
-878
-887
-897
-900
-904
-909
-914
-921
-927
-930
-930
-930
-932
-934
-934
-934
-933
-932
-934
-936
-937
-933
-932
-933
-934
-934
-933
-932
-932
-934
-935
-934
-933
-932
-930
-928
-929
-929
-931
-932
-933
-932
-932
-933
-935
-936
-933
-931
-929
-926
-927
-933
-937
-937
-934
-933
-937
-941
-941
-940
-936
-933
-936
-939
-939
-938
-937
-934
-934
-934
-939
-940
-939
-938
-937
-937
-937
-937
-937
-938
-939
-938
-937
-939
-940
-941
-938
-934
-930
-928
-928
-927
-922
-923
-925
-925
-925
-922
-922
-925
-932
-934
-930
-928
-930
-933
-936
-943
-944
-943
-941
-941
-943
-943
-941
-941
-941
-943
-942
-938
-933
-926
-913
-883
-828
-768
-728
-699
-685
-681
-688
-710
-745
-809
-899
-953
-952
-930
-915
-915
-924
-933
-938
-937
-934
-932
-933
-935
-934
-938
-939
-938
-935
-930
-930
-932
-934
-937
-935
-929
-924
-922
-921
-921
-923
-924
-921
-918
-915
-915
-917
-917
-915
-913
-909
-906
-903
-902
-904
-900
-895
-888
-887
-884
-879
-879
-881
-877
-874
-876
-878
-873
-869
-868
-874
-879
-889
-891
-895
-897
-902
-909
-919
-927
-930
-928
-928
-933
-935
-937
-938
-936
-935
-934
-935
-937
-938
-937
-938
-938
-936
-932
-930
-935
-939
-938
-937
-937
-937
-938
-940
-939
-936
-935
-934
-934
-934
-936
-938
-937
-938
-941
-938
-933
-932
-936
-938
-937
-940
-941
-939
-937
-939
-941
-942
-941
-942
-939
-937
-937
-941
-945
-945
-947
-945
-946
-944
-941
-941
-941
-939
-941
-947
-948
-947
-939
-938
-940
-943
-945
-947
-947
-944
-945
-944
-943
-944
-946
-948
-945
-944
-944
-943
-946
-947
-948
-944
-938
-932
-927
-927
-928
-926
-929
-934
-934
-930
-926
-925
-927
-933
-934
-934
-937
-938
-939
-941
-941
-947
-952
-950
-945
-945
-945
-948
-948
-945
-945
-944
-943
-939
-928
-906
-868
-811
-759
-725
-703
-695
-698
-711
-738
-786
-862
-936
-958
-941
-920
-914
-920
-933
-940
-939
-937
-937
-939
-941
-941
-937
-933
-934
-933
-933
-936
-941
-941
-936
-930
-926
-928
-929
-929
-925
-924
-922
-924
-925
-922
-919
-920
-919
-916
-911
-911
-909
-907
-906
-904
-902
-898
-892
-890
-890
-888
-889
-888
-885
-881
-882
-881
-876
-872
-873
-880
-882
-884
-890
-898
-902
-902
-909
-922
-929
-929
-929
-930
-933
-934
-938
-939
-937
-936
-937
-937
-937
-938
-940
-942
-940
-938
-938
-936
-938
-939
-941
-939
-938
-939
-939
-934
-934
-937
-941
-939
-940
-937
-937
-936
-936
-938
-941
-941
-939
-938
-940
-940
-939
-938
-941
-943
-941
-941
-943
-945
-946
-944
-942
-941
-943
-945
-945
-947
-947
-947
-947
-944
-944
-945
-945
-945
-945
-947
-947
-945
-944
-945
-950
-952
-948
-948
-945
-945
-944
-943
-944
-947
-948
-948
-948
-944
-944
-943
-945
-948
-951
-949
-947
-944
-944
-945
-945
-943
-944
-948
-948
-945
-942
-941
-945
-948
-944
-938
-934
-931
-928
-928
-930
-935
-934
-929
-925
-925
-930
-936
-934
-933
-930
-933
-937
-941
-944
-945
-947
-944
-944
-945
-944
-945
-945
-947
-944
-943
-939
-935
-928
-912
-873
-809
-754
-717
-694
-683
-683
-696
-722
-770
-849
-926
-951
-937
-922
-918
-921
-927
-933
-936
-938
-938
-934
-930
-933
-937
-938
-937
-934
-929
-928
-932
-936
-937
-934
-932
-929
-929
-930
-929
-924
-921
-921
-924
-925
-920
-914
-913
-914
-916
-915
-909
-902
-902
-902
-904
-904
-902
-896
-891
-888
-884
-884
-885
-886
-882
-879
-879
-879
-876
-879
-881
-885
-891
-894
-897
-900
-905
-911
-919
-925
-925
-927
-929
-933
-934
-936
-936
-937
-938
-938
-939
-938
-937
-941
-941
-939
-937
-937
-941
-941
-938
-936
-936
-937
-938
-939
-938
-936
-934
-937
-943
-941
-938
-937
-939
-941
-944
-941
-944
-944
-944
-943
-942
-941
-941
-941
-943
-944
-947
-949
-945
-941
-941
-949
-955
-955
-952
-949
-945
-945
-948
-952
-951
-950
-949
-950
-948
-951
-951
-954
-952
-947
-947
-947
-949
-951
-953
-953
-950
-948
-948
-948
-947
-951
-953
-957
-958
-953
-947
-944
-948
-952
-952
-952
-950
-949
-947
-943
-941
-943
-943
-941
-938
-937
-938
-937
-934
-933
-934
-940
-941
-940
-939
-941
-948
-952
-955
-951
-948
-948
-951
-952
-950
-948
-948
-948
-947
-947
-946
-941
-938
-928
-903
-846
-782
-734
-711
-700
-696
-702
-717
-752
-817
-910
-964
-960
-938
-928
-929
-930
-934
-938
-941
-941
-943
-944
-945
-941
-941
-939
-938
-938
-940
-940
-936
-933
-932
-934
-933
-932
-934
-934
-935
-930
-926
-922
-918
-919
-919
-919
-918
-915
-913
-910
-909
-906
-902
-896
-894
-893
-896
-895
-890
-884
-879
-877
-879
-879
-877
-873
-872
-874
-878
-879
-880
-884
-888
-893
-902
-911
-915
-920
-925
-928
-931
-933
-937
-938
-939
-940
-943
-948
-945
-941
-941
-945
-947
-945
-943
-940
-937
-938
-943
-948
-945
-941
-937
-938
-940
-939
-939
-941
-940
-938
-941
-938
-934
-941
-947
-947
-941
-938
-939
-941
-944
-944
-945
-945
-947
-949
-945
-944
-941
-940
-941
-948
-953
-952
-947
-945
-947
-951
-952
-951
-949
-948
-947
-948
-947
-947
-948
-950
-947
-945
-948
-951
-951
-948
-947
-948
-952
-952
-948
-947
-949
-950
-951
-951
-948
-941
-938
-938
-938
-939
-937
-935
-933
-928
-924
-923
-930
-940
-947
-944
-939
-938
-939
-947
-952
-951
-950
-950
-949
-949
-947
-946
-947
-948
-947
-944
-941
-941
-941
-928
-891
-825
-759
-717
-694
-683
-684
-693
-715
-758
-836
-932
-970
-958
-936
-925
-925
-929
-934
-937
-940
-941
-938
-937
-941
-941
-939
-936
-934
-934
-937
-936
-934
-934
-934
-933
-930
-927
-925
-925
-925
-925
-923
-921
-920
-917
-913
-915
-918
-918
-913
-911
-906
-903
-897
-893
-891
-888
-885
-882
-882
-879
-879
-876
-876
-873
-869
-865
-865
-868
-868
-870
-875
-876
-881
-888
-893
-898
-900
-907
-915
-923
-927
-930
-930
-932
-935
-938
-941
-940
-936
-938
-941
-941
-940
-941
-938
-938
-937
-938
-937
-936
-937
-939
-939
-936
-934
-935
-936
-937
-938
-937
-934
-933
-934
-933
-934
-936
-937
-936
-934
-935
-936
-938
-939
-940
-939
-941
-938
-938
-939
-937
-937
-941
-943
-941
-939
-938
-939
-941
-944
-945
-945
-943
-943
-944
-945
-943
-939
-941
-944
-944
-941
-939
-937
-938
-940
-944
-944
-943
-944
-943
-941
-939
-943
-945
-939
-933
-932
-930
-927
-926
-930
-933
-929
-928
-925
-925
-928
-929
-931
-935
-937
-936
-940
-942
-941
-941
-942
-944
-944
-944
-942
-939
-941
-941
-943
-943
-941
-933
-913
-872
-807
-746
-708
-688
-678
-677
-685
-707
-745
-820
-917
-962
-952
-928
-915
-916
-922
-930
-934
-933
-931
-930
-933
-934
-936
-935
-933
-933
-934
-937
-932
-929
-929
-932
-930
-928
-924
-920
-920
-920
-918
-918
-918
-915
-911
-913
-913
-913
-911
-910
-906
-906
-904
-899
-891
-884
-887
-888
-887
-882
-879
-875
-875
-875
-873
-869
-868
-868
-865
-865
-864
-866
-877
-884
-888
-893
-902
-905
-909
-913
-920
-925
-925
-928
-932
-934
-937
-938
-937
-934
-934
-936
-937
-937
-934
-934
-937
-937
-934
-933
-933
-935
-938
-937
-937
-935
-934
-934
-933
-932
-933
-934
-934
-933
-933
-930
-928
-929
-934
-937
-936
-934
-934
-934
-936
-934
-936
-938
-938
-941
-941
-938
-934
-937
-938
-939
-938
-936
-937
-941
-941
-940
-941
-939
-936
-936
-938
-941
-943
-941
-936
-934
-938
-944
-945
-941
-938
-938
-941
-941
-941
-940
-936
-929
-925
-924
-925
-924
-923
-927
-932
-930
-924
-921
-924
-930
-930
-929
-929
-933
-934
-939
-941
-944
-943
-942
-941
-944
-943
-943
-943
-944
-942
-937
-933
-932
-929
-919
-888
-828
-763
-718
-692
-680
-676
-685
-704
-740
-802
-893
-953
-952
-931
-915
-911
-918
-925
-932
-935
-937
-936
-932
-931
-935
-937
-934
-932
-932
-933
-933
-933
-934
-933
-929
-921
-918
-920
-924
-927
-927
-925
-922
-919
-918
-918
-915
-913
-911
-910
-909
-904
-902
-900
-898
-895
-893
-891
-888
-887
-889
-888
-884
-877
-875
-875
-879
-876
-872
-869
-870
-874
-876
-881
-888
-895
-904
-911
-915
-920
-924
-927
-928
-930
-933
-934
-934
-934
-934
-934
-936
-939
-939
-937
-937
-936
-933
-936
-941
-944
-941
-936
-932
-933
-934
-936
-937
-936
-937
-938
-938
-936
-933
-933
-934
-938
-938
-939
-938
-934
-934
-937
-937
-936
-937
-937
-936
-933
-934
-941
-948
-948
-944
-941
-940
-937
-936
-938
-941
-945
-945
-945
-939
-934
-938
-943
-945
-945
-947
-947
-941
-936
-938
-941
-943
-943
-941
-939
-940
-934
-929
-928
-929
-928
-924
-924
-923
-926
-928
-928
-926
-925
-927
-933
-934
-936
-937
-939
-944
-948
-947
-945
-943
-942
-943
-945
-947
-947
-947
-939
-933
-933
-933
-927
-907
-861
-798
-747
-714
-695
-685
-685
-698
-722
-769
-847
-930
-958
-944
-922
-911
-912
-921
-930
-935
-936
-939
-938
-934
-934
-934
-934
-936
-938
-934
-930
-929
-930
-928
-928
-930
-930
-928
-925
-925
-925
-921
-916
-917
-919
-921
-920
-918
-914
-912
-911
-910
-908
-904
-902
-899
-899
-898
-893
-889
-887
-887
-888
-886
-881
-877
-879
-882
-882
-877
-873
-876
-883
-888
-893
-902
-907
-912
-916
-920
-922
-925
-930
-936
-939
-939
-936
-933
-934
-938
-938
-941
-942
-939
-936
-936
-940
-941
-939
-938
-938
-938
-936
-936
-937
-941
-943
-941
-941
-935
-933
-936
-941
-940
-938
-938
-939
-940
-937
-936
-938
-944
-944
-941
-939
-938
-936
-936
-937
-941
-947
-948
-945
-944
-943
-943
-947
-944
-941
-938
-941
-945
-944
-943
-944
-947
-947
-946
-947
-946
-945
-941
-939
-941
-943
-948
-947
-944
-943
-944
-945
-945
-944
-941
-937
-931
-928
-928
-930
-932
-934
-933
-927
-922
-924
-933
-938
-936
-934
-936
-939
-941
-944
-948
-952
-951
-950
-947
-945
-944
-944
-945
-947
-943
-936
-934
-938
-936
-914
-858
-789
-734
-706
-687
-676
-679
-693
-722
-779
-874
-951
-964
-939
-921
-916
-922
-928
-935
-939
-943
-941
-938
-936
-939
-943
-941
-938
-934
-931
-930
-934
-938
-938
-938
-938
-937
-933
-928
-927
-929
-930
-929
-925
-919
-917
-917
-920
-920
-917
-911
-910
-910
-908
-906
-902
-899
-902
-902
-900
-897
-896
-890
-884
-882
-882
-882
-879
-879
-880
-882
-883
-885
-888
-892
-899
-905
-910
-917
-919
-919
-920
-926
-934
-941
-943
-941
-937
-936
-939
-941
-939
-938
-939
-940
-941
-943
-941
-938
-936
-936
-937
-938
-936
-933
-933
-939
-941
-939
-939
-941
-940
-939
-938
-939
-941
-943
-944
-941
-939
-939
-941
-943
-944
-944
-941
-939
-941
-943
-945
-947
-948
-949
-950
-948
-943
-939
-939
-944
-948
-948
-948
-948
-945
-943
-944
-948
-948
-948
-945
-947
-948
-948
-944
-941
-942
-944
-947
-943
-938
-935
-934
-933
-933
-934
-934
-930
-930
-930
-930
-933
-936
-938
-937
-939
-941
-943
-945
-947
-948
-948
-948
-948
-946
-941
-941
-944
-947
-947
-943
-939
-934
-923
-902
-853
-785
-734
-707
-694
-687
-690
-706
-738
-805
-902
-964
-962
-937
-924
-923
-927
-933
-936
-935
-935
-938
-943
-945
-947
-943
-939
-938
-938
-934
-934
-936
-935
-934
-929
-927
-927
-927
-929
-930
-927
-922
-915
-912
-917
-924
-923
-917
-915
-919
-915
-904
-895
-893
-898
-902
-899
-894
-888
-887
-882
-879
-881
-884
-882
-876
-874
-873
-873
-874
-883
-885
-888
-893
-898
-908
-911
-914
-919
-923
-929
-936
-941
-938
-936
-934
-937
-943
-948
-950
-945
-937
-934
-942
-948
-948
-944
-941
-939
-934
-934
-940
-948
-948
-947
-943
-941
-942
-946
-944
-941
-939
-939
-940
-944
-948
-948
-945
-941
-939
-941
-947
-951
-954
-955
-955
-952
-948
-948
-953
-955
-956
-958
-948
-943
-950
-957
-957
-950
-948
-945
-941
-941
-947
-948
-951
-955
-952
-948
-950
-945
-936
-934
-937
-938
-939
-940
-941
-941
-937
-925
-925
-933
-941
-945
-939
-933
-933
-943
-953
-955
-950
-948
-950
-948
-948
-950
-948
-943
-943
-944
-941
-938
-938
-939
-924
-886
-827
-770
-732
-717
-714
-713
-722
-738
-771
-836
-925
-982
-978
-945
-926
-929
-936
-934
-933
-941
-947
-944
-939
-936
-936
-934
-930
-927
-929
-932
-934
-938
-938
-934
-927
-925
-929
-929
-921
-914
-915
-918
-916
-911
-906
-906
-906
-904
-904
-904
-902
-897
-891
-888
-892
-891
-887
-887
-893
-892
-883
-872
-876
-882
-885
-884
-885
-884
-885
-890
-896
-896
-893
-896
-900
-900
-902
-913
-930
-936
-934
-938
-947
-956
-964
-980
-985
-979
-980
-981
-974
-952
-930
-925
-933
-937
-937
-944
-941
-929
-939
-948
-929
-932
-948
-962
-962
-954
-956
-956
-952
-960
-962
-948
-944
-949
-962
-975
-965
-952
-953
-959
-951
-945
-951
-960
-963
-964
-952
-943
-945
-960
-965
-967
-968
-962
-958
-955
-951
-959
-966
-967
-958
-955
-959
-958
-958
-958
-961
-970
-960
-937
-929
-941
-952
-947
-929
-914
-911
-925
-947
-957
-952
-941
-937
-943
-948
-945
-951
-960
-965
-965
-966
-962
-957
-956
-962
-964
-962
-963
-958
-948
-948
-951
-951
-944
-918
-870
-813
-767
-736
-722
-718
-726
-743
-777
-839
-929
-982
-985
-966
-948
-941
-944
-949
-956
-965
-965
-960
-962
-966
-967
-962
-957
-956
-955
-950
-948
-948
-948
-948
-948
-946
-941
-938
-937
-938
-935
-926
-926
-934
-939
-939
-935
-930
-928
-927
-925
-921
-918
-915
-916
-915
-911
-904
-899
-902
-902
-902
-899
-896
-890
-884
-882
-883
-883
-885
-887
-892
-896
-900
-903
-902
-906
-916
-923
-925
-923
-924
-929
-933
-935
-937
-938
-938
-937
-938
-941
-941
-939
-933
-930
-933
-941
-950
-948
-945
-945
-943
-941
-941
-945
-948
-947
-941
-934
-936
-945
-948
-947
-941
-941
-946
-950
-952
-949
-941
-941
-944
-952
-956
-957
-953
-953
-951
-945
-948
-953
-953
-952
-948
-943
-943
-950
-951
-948
-948
-948
-948
-946
-945
-941
-937
-939
-939
-929
-922
-924
-928
-933
-934
-933
-932
-930
-932
-934
-934
-934
-936
-938
-943
-941
-938
-940
-944
-945
-943
-934
-927
-927
-934
-943
-945
-940
-934
-930
-924
-906
-862
-794
-733
-702
-685
-681
-685
-699
-729
-785
-876
-949
-960
-936
-915
-913
-925
-933
-933
-928
-930
-933
-934
-936
-936
-934
-930
-925
-924
-926
-925
-925
-924
-929
-930
-927
-922
-921
-926
-927
-925
-922
-924
-919
-910
-902
-909
-918
-919
-917
-905
-896
-893
-893
-895
-898
-898
-895
-889
-885
-883
-883
-881
-881
-883
-886
-883
-879
-877
-876
-877
-881
-885
-891
-895
-898
-900
-906
-913
-919
-923
-921
-918
-919
-926
-929
-929
-928
-926
-926
-925
-929
-927
-925
-924
-922
-923
-925
-925
-928
-927
-925
-925
-925
-924
-925
-925
-925
-925
-927
-928
-926
-922
-922
-927
-933
-936
-934
-930
-929
-932
-930
-931
-933
-934
-932
-925
-925
-930
-935
-936
-934
-933
-936
-934
-934
-933
-930
-933
-930
-927
-923
-922
-922
-921
-919
-920
-921
-919
-916
-917
-918
-921
-923
-921
-924
-928
-930
-929
-929
-933
-939
-941
-937
-934
-934
-934
-932
-932
-934
-934
-934
-929
-916
-885
-828
-771
-730
-704
-689
-685
-692
-710
-745
-805
-890
-939
-943
-933
-923
-918
-917
-921
-928
-929
-924
-919
-920
-923
-924
-924
-923
-924
-925
-926
-922
-918
-919
-925
-925
-920
-918
-914
-913
-915
-915
-913
-911
-913
-914
-911
-905
-900
-896
-900
-904
-900
-889
-884
-888
-892
-891
-887
-880
-879
-881
-882
-881
-879
-875
-875
-875
-874
-872
-872
-873
-876
-880
-884
-891
-898
-902
-898
-897
-902
-912
-920
-920
-918
-919
-922
-923
-925
-927
-929
-929
-929
-922
-918
-915
-920
-927
-928
-925
-919
-918
-921
-920
-918
-921
-926
-926
-921
-921
-922
-918
-911
-911
-919
-925
-928
-925
-920
-919
-922
-927
-925
-928
-931
-927
-919
-915
-924
-933
-933
-926
-927
-929
-930
-928
-927
-927
-924
-921
-920
-919
-915
-910
-911
-920
-921
-915
-906
-903
-906
-913
-922
-927
-925
-922
-925
-929
-932
-932
-934
-939
-937
-933
-930
-932
-929
-924
-924
-928
-930
-928
-920
-902
-864
-809
-752
-716
-695
-681
-679
-687
-708
-745
-812
-898
-945
-941
-920
-909
-907
-914
-921
-924
-922
-923
-927
-932
-930
-928
-925
-925
-922
-924
-925
-926
-927
-923
-919
-920
-922
-921
-921
-916
-910
-905
-907
-911
-911
-910
-910
-911
-910
-906
-904
-903
-905
-902
-902
-900
-895
-892
-891
-887
-882
-881
-883
-884
-881
-877
-877
-880
-881
-879
-879
-879
-884
-888
-891
-893
-898
-901
-904
-906
-913
-921
-924
-923
-922
-923
-921
-919
-924
-930
-929
-929
-931
-932
-929
-924
-924
-925
-924
-922
-926
-926
-924
-923
-925
-924
-919
-918
-922
-930
-929
-922
-924
-928
-929
-928
-927
-926
-927
-929
-929
-928
-930
-928
-929
-930
-929
-927
-927
-932
-937
-937
-932
-925
-921
-921
-922
-922
-920
-917
-915
-915
-920
-925
-928
-929
-925
-918
-915
-925
-934
-938
-941
-939
-938
-937
-937
-940
-941
-937
-933
-933
-938
-938
-930
-922
-911
-885
-840
-785
-743
-713
-694
-685
-687
-703
-733
-787
-873
-941
-951
-933
-916
-911
-914
-921
-927
-927
-933
-938
-937
-930
-929
-933
-933
-931
-933
-934
-933
-927
-925
-928
-929
-925
-921
-925
-929
-929
-925
-919
-915
-913
-913
-919
-920
-917
-913
-913
-914
-913
-913
-912
-909
-904
-899
-900
-897
-897
-898
-899
-896
-892
-892
-894
-893
-892
-891
-892
-896
-898
-895
-893
-898
-907
-914
-916
-919
-921
-925
-929
-933
-934
-935
-934
-934
-934
-933
-932
-930
-930
-933
-934
-936
-938
-936
-933
-929
-930
-929
-929
-928
-928
-930
-932
-932
-933
-934
-936
-937
-936
-934
-933
-933
-937
-938
-938
-934
-933
-934
-934
-934
-936
-937
-938
-937
-938
-936
-933
-929
-930
-929
-930
-928
-925
-924
-925
-925
-925
-925
-930
-929
-932
-931
-928
-928
-930
-934
-937
-938
-941
-943
-944
-945
-948
-948
-947
-943
-940
-934
-932
-934
-930
-915
-887
-842
-789
-745
-719
-703
-698
-703
-721
-750
-807
-888
-947
-953
-938
-921
-912
-917
-928
-934
-939
-939
-934
-929
-929
-934
-937
-936
-934
-934
-934
-933
-933
-934
-935
-933
-931
-929
-929
-930
-925
-922
-922
-925
-923
-919
-918
-918
-915
-913
-916
-918
-916
-914
-913
-912
-910
-906
-905
-907
-907
-907
-906
-903
-898
-897
-896
-900
-902
-902
-902
-900
-902
-902
-908
-914
-915
-915
-915
-918
-925
-930
-933
-932
-930
-930
-937
-936
-930
-930
-932
-934
-936
-934
-933
-933
-933
-930
-930
-930
-930
-932
-932
-929
-925
-925
-929
-937
-938
-934
-930
-932
-936
-934
-933
-932
-934
-936
-937
-937
-938
-938
-937
-936
-939
-941
-939
-936
-934
-940
-941
-940
-933
-932
-930
-927
-923
-922
-925
-927
-927
-925
-925
-925
-925
