-13
-11
-12
-13
-13
-13
-12
-9
-13
-11
-14
-15
-11
-13
-12
-12
-11
-7
-6
-2
1
5
9
11
13
13
13
15
17
17
17
17
14
10
5
-1
-6
-9
-11
-14
-15
-19
-20
-23
-22
-23
-23
-22
-23
-25
-26
-25
-23
-23
-27
-23
-26
-33
-43
-53
-53
-51
-36
4
68
137
180
180
139
93
57
33
15
1
-9
-17
-22
-23
-25
-27
-29
-28
-28
-28
-29
-29
-27
-29
-29
-27
-27
-27
-28
-27
-27
-28
-32
-27
-28
-28
-28
-32
-32
-35
-35
-37
-41
-41
-43
-45
-47
-50
-53
-53
-55
-55
-55
-57
-57
-57
-55
-51
-49
-43
-38
-33
-33
-29
-27
-24
-20
-18
-18
-19
-19
-18
-18
-17
-20
-15
-15
-19
-19
-21
-18
-17
-17
-16
-17
-17
-19
-18
-17
-18
-17
-18
-18
-20
-19
-19
-18
-19
-17
-17
-18
-19
-19
-18
-19
-17
-12
-15
-14
-11
-5
-2
4
5
5
6
7
9
12
12
13
16
13
9
4
0
-3
-12
-14
-17
-20
-23
-26
-27
-27
-27
-29
-28
-28
-31
-31
-31
-31
-29
-29
-30
-28
-31
-37
-43
-52
-57
-59
-51
-25
28
97
156
181
164
121
77
44
23
5
-5
-18
-25
-31
-29
-33
-35
-35
-36
-35
-35
-34
-35
-35
-37
-35
-35
-35
-35
-34
-35
-35
-35
-37
-37
-35
-36
-38
-37
-41
-41
-44
-45
-45
-48
-50
-52
-57
-58
-59
-63
-63
-62
-63
-65
-68
-65
-61
-57
-55
-53
-47
-43
-41
-39
-37
-31
-31
-28
-28
-25
-27
-26
-26
-27
-25
-25
-24
-27
-27
-26
-25
-24
-25
-25
-25
-27
-27
-27
-26
-25
-25
-27
-28
-27
-27
-28
-30
-26
-25
-25
-26
-29
-27
-27
-26
-26
-26
-27
-26
-25
-21
-18
-13
-7
-4
-3
-3
-2
-1
1
4
5
5
4
1
-1
-6
-10
-15
-19
-23
-26
-30
-32
-33
-31
-32
-33
-40
-37
-38
-37
-36
-41
-37
-37
-35
-36
-38
-39
-44
-53
-61
-63
-63
-53
-17
47
119
167
173
143
100
60
32
12
-1
-13
-22
-31
-31
-36
-37
-37
-39
-39
-38
-39
-39
-39
-41
-39
-39
-37
-37
-43
-40
-39
-38
-39
-39
-38
-39
-43
-43
-44
-45
-45
-44
-47
-49
-53
-55
-55
-57
-57
-59
-60
-62
-65
-65
-67
-66
-65
-60
-57
-55
-53
-49
-45
-42
-37
-35
-33
-32
-31
-29
-33
-28
-27
-27
-28
-31
-27
-27
-27
-26
-25
-25
-28
-27
-28
-27
-26
-27
-25
-27
-27
-29
-29
-27
-27
-26
-27
-27
-27
-29
-27
-27
-27
-26
-27
-27
-28
-29
-27
-27
-23
-19
-17
-10
-7
-6
-5
-2
-2
4
4
5
5
4
3
-1
-5
-7
-13
-19
-22
-26
-27
-29
-31
-31
-33
-35
-36
-37
-37
-37
-36
-37
-33
-36
-37
-38
-37
-37
-42
-51
-59
-65
-65
-56
-26
36
107
165
177
150
104
63
35
13
0
-14
-25
-32
-36
-39
-39
-41
-41
-42
-43
-43
-43
-43
-41
-41
-41
-42
-43
-42
-42
-43
-41
-43
-42
-43
-43
-45
-45
-47
-47
-49
-51
-55
-55
-60
-59
-61
-60
-63
-69
-69
-69
-68
-69
-69
-67
-68
-65
-63
-59
-55
-52
-46
-41
-39
-38
-37
-35
-34
-32
-32
-31
-29
-31
-31
-32
-27
-31
-28
-27
-28
-30
-31
-31
-28
-31
-33
-30
-28
-31
-30
-32
-28
-28
-30
-31
-31
-31
-32
-29
-28
-30
-28
-28
-29
-31
-31
-28
-27
-25
-23
-17
-15
-12
-10
-7
-7
-3
1
3
5
5
5
4
4
-1
-7
-13
-19
-23
-27
-28
-31
-35
-34
-37
-39
-39
-42
-39
-36
-37
-39
-43
-41
-41
-40
-41
-44
-47
-56
-63
-67
-63
-47
-7
55
124
167
168
137
95
57
28
7
-10
-24
-33
-39
-41
-42
-43
-45
-44
-47
-51
-44
-45
-45
-45
-49
-47
-47
-47
-47
-44
-43
-41
-44
-47
-48
-47
-48
-47
-47
-49
-51
-51
-54
-55
-59
-60
-62
-63
-63
-67
-69
-65
-71
-71
-70
-69
-67
-66
-64
-61
-57
-55
-47
-45
-43
-41
-43
-37
-35
-32
-31
-32
-31
-32
-31
-31
-33
-31
-31
-32
-31
-29
-30
-29
-30
-30
-30
-32
-33
-31
-31
-29
-31
-31
-30
-31
-31
-31
-31
-31
-32
-30
-31
-31
-32
-32
-30
-28
-30
-24
-20
-15
-12
-7
-8
-5
-4
-2
1
3
7
7
7
5
4
-1
-10
-17
-20
-25
-29
-31
-32
-34
-37
-39
-39
-38
-39
-39
-39
-41
-43
-41
-41
-41
-39
-39
-43
-51
-63
-65
-63
-55
-32
19
79
137
161
147
111
73
44
19
0
-14
-27
-32
-36
-39
-39
-41
-43
-43
-45
-45
-43
-43
-41
-41
-41
-43
-39
-43
-41
-41
-41
-41
-43
-43
-42
-42
-45
-43
-43
-45
-47
-52
-51
-53
-52
-54
-57
-57
-60
-62
-63
-63
-63
-62
-63
-63
-59
-57
-54
-49
-44
-41
-39
-35
-34
-32
-29
-29
-28
-27
-26
-26
-25
-26
-25
-22
-22
-21
-23
-23
-24
-23
-23
-27
-21
-23
-22
-23
-27
-23
-23
-21
-20
-23
-22
-23
-23
-23
-22
-21
-20
-21
-22
-23
-23
-21
-21
-19
-16
-12
-10
-7
-2
1
3
5
5
7
8
14
11
12
12
9
7
5
-5
-9
-16
-18
-23
-22
-24
-27
-29
-28
-28
-28
-29
-29
-31
-31
-31
-31
-29
-28
-28
-28
-34
-43
-51
-57
-57
-51
-30
16
85
148
173
159
119
79
46
28
10
-5
-15
-23
-27
-29
-29
-31
-35
-34
-34
-33
-33
-34
-32
-32
-33
-32
-32
-31
-32
-31
-31
-32
-32
-32
-31
-33
-32
-32
-34
-37
-39
-39
-40
-41
-43
-45
-46
-47
-51
-52
-53
-52
-52
-54
-55
-55
-55
-53
-53
-45
-41
-37
-35
-35
-28
-28
-24
-23
-22
-19
-19
-19
-20
-20
-21
-19
-18
-17
-17
-17
-19
-19
-17
-17
-17
-16
-18
-20
-18
-18
-15
-17
-17
-17
-18
-19
-18
-18
-18
-17
-20
-17
-17
-17
-17
-20
-16
-17
-17
-15
-13
-10
-7
-3
1
7
7
7
7
8
12
15
17
16
17
14
10
5
0
-5
-9
-13
-15
-18
-21
-22
-23
-23
-23
-23
-23
-25
-27
-27
-27
-25
-25
-29
-25
-25
-29
-35
-47
-51
-51
-47
-31
13
76
140
180
182
152
113
76
45
25
10
-2
-11
-19
-22
-24
-27
-29
-27
-28
-28
-28
-29
-28
-29
-27
-27
-27
-29
-27
-25
-27
-31
-29
-28
-29
-28
-31
-28
-31
-33
-35
-35
-36
-37
-39
-41
-44
-47
-47
-49
-51
-49
-51
-52
-55
-53
-51
-49
-47
-41
-38
-35
-31
-25
-26
-22
-19
-19
-18
-15
-16
-17
-15
-13
-13
-13
-15
-14
-12
-15
-14
-15
-12
-11
-13
-15
-15
-14
-13
-13
-13
-12
-13
-13
-15
-15
-15
-13
-11
-12
-14
-13
-14
-13
-13
-13
-11
-12
-13
-10
-6
-2
2
5
9
12
9
9
12
15
20
20
20
18
15
14
9
3
-1
-5
-8
-13
-16
-17
-19
-20
-20
-21
-20
-21
-21
-23
-23
-21
-21
-21
-20
-23
-23
-27
-33
-42
-47
-51
-50
-35
5
67
135
181
182
151
105
67
40
20
7
-1
-13
-18
-20
-25
-27
-24
-25
-25
-25
-25
-27
-27
-27
-27
-27
-26
-26
-26
-27
-27
-27
-26
-27
-28
-27
-28
-28
-32
-34
-32
-35
-35
-38
-41
-44
-44
-46
-47
-49
-50
-51
-55
-55
-56
-54
-51
-51
-47
-43
-39
-36
-32
-29
-25
-23
-19
-19
-17
-17
-17
-17
-15
-15
-15
-15
-15
-15
-15
-15
-16
-15
-15
-14
-15
-16
-16
-17
-16
-13
-15
-15
-17
-18
-20
-17
-15
-16
-15
-21
-17
-17
-17
-18
-18
-15
-17
-18
-15
-12
-7
-3
1
5
5
5
5
8
13
15
15
15
13
12
6
5
1
-5
-9
-15
-19
-22
-23
-24
-25
-26
-28
-27
-28
-28
-28
-32
-28
-28
-27
-28
-31
-29
-30
-36
-45
-54
-56
-55
-42
-6
57
128
180
187
157
112
73
44
21
7
-6
-15
-24
-28
-32
-35
-37
-35
-34
-33
-33
-36
-37
-37
-35
-34
-33
-37
-36
-35
-35
-37
-38
-35
-35
-35
-37
-40
-42
-42
-41
-43
-44
-46
-49
-52
-55
-55
-57
-59
-59
-61
-63
-64
-65
-64
-60
-59
-57
-54
-49
-44
-41
-37
-33
-31
-28
-29
-29
-31
-27
-26
-23
-24
-27
-25
-25
-25
-25
-26
-23
-23
-23
-26
-26
-24
-23
-23
-23
-23
-26
-27
-26
-25
-25
-22
-21
-23
-23
-25
-25
-20
-23
-23
-23
-23
-23
-23
-23
-19
-16
-9
-8
-4
-3
-2
1
1
3
9
11
13
10
9
6
5
1
-5
-11
-17
-21
-23
-27
-28
-29
-28
-28
-31
-33
-34
-33
-33
-32
-31
-31
-35
-35
-34
-35
-39
-47
-55
-59
-60
-49
-23
29
95
159
179
159
117
76
44
20
4
-10
-21
-28
-32
-35
-37
-37
-39
-37
-37
-37
-40
-38
-38
-37
-36
-35
-34
-37
-36
-38
-38
-37
-36
-38
-39
-39
-39
-41
-40
-41
-41
-42
-45
-49
-49
-51
-54
-55
-59
-57
-61
-63
-64
-65
-64
-61
-57
-55
-54
-51
-48
-42
-38
-33
-33
-28
-28
-27
-27
-25
-23
-24
-21
-21
-23
-21
-23
-22
-23
-23
-20
-21
-21
-21
-21
-22
-23
-21
-20
-21
-25
-23
-23
-22
-22
-23
-20
-21
-21
-23
-23
-23
-22
-21
-20
-21
-22
-21
-20
-21
-18
-13
-7
-5
-1
0
1
4
5
9
13
15
14
13
13
11
8
4
-3
-10
-15
-19
-25
-23
-24
-26
-27
-31
-30
-29
-31
-31
-31
-31
-31
-31
-32
-33
-33
-32
-34
-41
-48
-55
-54
-47
-29
13
76
135
169
164
128
89
55
33
15
0
-12
-22
-29
-30
-31
-32
-37
-31
-34
-34
-35
-39
-35
-33
-32
-32
-31
-31
-31
-32
-31
-31
-31
-31
-31
-32
-34
-35
-35
-35
-35
-36
-41
-42
-43
-43
-44
-45
-47
-49
-51
-53
-54
-53
-52
-53
-50
-49
-47
-43
-41
-37
-33
-32
-26
-24
-20
-21
-22
-19
-17
-15
-14
-15
-15
-15
-16
-14
-12
-14
-14
-15
-15
-15
-15
-15
-12
-13
-13
-12
-15
-15
-15
-13
-14
-13
-13
-13
-14
-13
-14
-13
-12
-12
-13
-10
-12
-13
-13
-9
-3
-2
1
5
7
12
12
12
15
17
19
20
20
20
20
16
15
12
5
-1
-7
-9
-13
-13
-16
-17
-19
-19
-19
-21
-21
-21
-20
-19
-22
-21
-21
-23
-21
-21
-20
-28
-43
-47
-50
-44
-29
12
71
136
180
179
151
109
73
47
29
15
4
-7
-15
-19
-21
-21
-20
-23
-24
-23
-23
-23
-23
-22
-22
-23
-25
-22
-23
-22
-23
-20
-19
-20
-22
-22
-27
-23
-24
-22
-25
-28
-28
-31
-31
-33
-35
-34
-37
-39
-42
-45
-44
-45
-45
-45
-44
-44
-43
-41
-36
-34
-28
-23
-20
-19
-18
-16
-12
-13
-9
-11
-9
-10
-11
-10
-10
-9
-5
-7
-8
-9
-10
-5
-9
-9
-10
-7
-8
-9
-9
-9
-9
-8
-8
-7
-9
-9
-10
-9
-8
-7
-8
-6
-9
-9
-10
-7
-7
-5
-3
-1
2
3
9
13
15
17
17
20
21
21
22
22
23
25
21
19
13
8
4
-1
-3
-7
-7
-9
-11
-13
-15
-15
-15
-15
-14
-13
-15
-17
-17
-15
-15
-13
-15
-17
-25
-35
-42
-45
-43
-32
1
60
125
175
187
164
121
84
55
37
21
9
0
-6
-8
-13
-15
-17
-19
-21
-19
-19
-17
-17
-18
-17
-19
-18
-19
-19
-17
-16
-18
-19
-19
-19
-20
-19
-20
-19
-21
-21
-25
-25
-27
-27
-30
-31
-34
-36
-36
-43
-40
-41
-41
-43
-45
-43
-43
-41
-38
-35
-31
-27
-23
-21
-19
-15
-13
-11
-9
-9
-7
-7
-8
-8
-8
-6
-5
-7
-7
-9
-9
-9
-7
-7
-7
-8
-6
-9
-9
-9
-8
-5
-7
-6
-8
-7
-4
-9
-7
-7
-7
-2
-7
-7
-9
-9
-7
-6
-4
-5
-3
0
4
7
12
14
16
17
17
17
20
23
22
23
24
23
16
13
9
5
1
-1
-4
-8
-10
-13
-16
-13
-11
-15
-15
-15
-17
-21
-18
-17
-18
-15
-15
-15
-17
-21
-27
-40
-43
-43
-36
-13
36
103
165
195
179
141
98
62
37
22
9
-1
-7
-11
-12
-15
-18
-17
-18
-18
-18
-15
-19
-18
-20
-18
-19
-21
-18
-17
-19
-18
-21
-19
-19
-19
-19
-21
-19
-21
-23
-25
-27
-27
-28
-28
-31
-34
-37
-39
-41
-41
-42
-41
-43
-44
-45
-42
-41
-37
-33
-29
-26
-23
-21
-15
-12
-13
-10
-5
-7
-7
-6
-5
-2
-6
-5
-5
-4
-5
-7
-5
-4
-5
-5
-5
-7
-9
-7
-7
-7
-6
-5
-5
-7
-6
-8
-6
-7
-6
-6
-7
-7
-6
-7
-7
-6
-5
-5
-5
-3
1
4
7
12
15
20
15
17
20
23
23
23
25
23
21
20
14
10
4
1
-3
-6
-9
-13
-14
-15
-15
-14
-15
-15
-17
-17
-17
-19
-17
-18
-16
-15
-17
-20
-28
-38
-43
-43
-37
-10
44
117
175
201
188
149
108
71
45
29
15
4
-7
-12
-17
-19
-21
-21
-22
-22
-23
-22
-22
-22
-23
-23
-21
-21
-19
-19
-20
-21
-23
-23
-25
-25
-25
-25
-25
-27
-29
-28
-31
-35
-35
-35
-37
-41
-45
-43
-44
-45
-47
-49
-49
-51
-49
-48
-46
-43
-37
-35
-31
-28
-25
-22
-19
-18
-15
-14
-13
-14
-13
-12
-13
-10
-11
-11
-11
-13
-11
-11
-11
-13
-11
-9
-13
-14
-13
-11
-7
-11
-9
-11
-11
-10
-11
-10
-11
-8
-9
-9
-11
-13
-11
-10
-9
-10
-9
-7
-4
0
5
9
12
15
16
15
17
20
21
23
25
26
24
20
16
10
5
-1
-5
-7
-7
-12
-15
-17
-17
-19
-17
-19
-19
-20
-23
-23
-21
-20
-21
-21
-21
-23
-28
-38
-45
-47
-41
-29
4
61
129
175
185
159
121
84
49
29
16
-2
-10
-15
-17
-18
-21
-25
-28
-26
-25
-25
-25
-27
-23
-25
-25
-25
-27
-25
-25
-26
-25
-26
-25
-26
-25
-25
-25
-27
-28
-31
-33
-34
-34
-36
-37
-38
-39
-43
-41
-45
-45
-47
-49
-49
-49
-50
-49
-47
-45
-39
-35
-31
-28
-31
-25
-21
-17
-15
-13
-13
-11
-12
-12
-11
-11
-10
-10
-11
-13
-12
-13
-13
-12
-11
-11
-13
-13
-11
-11
-9
-11
-12
-11
-11
-11
-11
-10
-10
-12
-9
-9
-10
-9
-11
-9
-6
-7
-4
-5
0
7
7
12
14
15
17
20
22
25
28
28
28
26
25
20
13
6
1
-2
-5
-7
-9
-13
-15
-17
-17
-18
-18
-17
-17
-17
-19
-18
-19
-18
-17
-17
-23
-26
-35
-41
-41
-37
-21
9
60
121
167
182
164
125
89
61
37
21
7
-5
-11
-15
-17
-17
-19
-21
-21
-21
-20
-21
-19
-19
-17
-20
-19
-19
-18
-19
-18
-17
-17
-19
-21
-18
-20
-19
-19
-23
-22
-25
-25
-27
-28
-27
-29
-31
-34
-37
-38
-39
-39
-39
-38
-39
-39
-39
-37
-33
-28
-25
-21
-17
-16
-13
-11
-9
-7
-5
-5
-5
-4
-5
-5
-3
-2
-1
-1
-3
-4
-1
-3
-3
-3
-1
0
-3
-3
-5
-3
-3
-2
-3
-3
-5
-4
-5
-3
-4
-2
-2
-2
-3
-5
-3
-3
-1
4
5
12
12
15
17
21
21
21
23
27
27
28
28
28
29
23
19
13
6
5
-2
-5
-7
-7
-6
-8
-9
-12
-13
-13
-13
-11
-13
-13
-13
-14
-13
-13
-13
-14
-20
-31
-39
-41
-38
-29
2
55
121
175
192
169
131
92
61
40
25
9
-1
-10
-13
-11
-15
-15
-15
-17
-20
-17
-17
-16
-17
-16
-16
-17
-17
-17
-17
-15
-15
-15
-15
-15
-17
-19
-19
-19
-17
-19
-21
-24
-25
-26
-29
-28
-30
-31
-33
-37
-39
-39
-39
-40
-39
-43
-38
-37
-33
-31
-31
-23
-21
-15
-14
-13
-13
-10
-8
-7
-5
-4
-5
-7
-5
-6
-5
-5
-5
-4
-5
-7
-7
-7
-5
-6
-5
-4
-7
-6
-7
-7
-5
-5
-5
-7
-6
-5
-7
-7
-7
-5
-3
-7
-7
-7
-6
-1
1
6
12
13
15
17
17
17
19
23
26
25
25
22
20
17
13
6
0
-4
-7
-8
-11
-11
-13
-13
-13
-15
-15
-17
-15
-15
-15
-15
-15
-16
-13
-17
-17
-23
-28
-38
-41
-43
-42
-27
15
77
145
190
192
160
117
78
53
31
17
4
-5
-12
-17
-18
-18
-19
-18
-18
-19
-20
-21
-21
-21
-19
-18
-18
-19
-19
-20
-21
-22
-19
-19
-19
-19
-25
-24
-23
-23
-25
-27
-27
-30
-32
-35
-37
-37
-39
-39
-41
-43
-44
-47
-47
-45
-43
-41
-39
-37
-32
-29
-25
-18
-19
-15
-15
-13
-13
-11
-10
-9
-7
-5
-8
-7
-9
-9
-6
-9
-7
-7
-7
-7
-8
-9
-10
-7
-7
-8
-9
-11
-9
-9
-10
-7
-7
-7
-9
-10
-9
-9
-7
-8
-7
-6
-6
-3
-1
5
9
13
17
15
15
15
20
21
23
25
28
23
20
14
12
7
0
-3
-7
-9
-11
-13
-15
-15
-15
-13
-15
-17
-18
-17
-18
-17
-18
-17
-17
-17
-18
-21
-28
-37
-44
-45
-39
-18
30
100
164
190
175
135
92
57
36
19
5
-5
-13
-13
-19
-22
-22
-23
-24
-23
-22
-23
-23
-25
-25
-26
-23
-23
-23
-23
-23
-25
-25
-25
-25
-25
-26
-26
-27
-29
-28
-31
-33
-32
-34
-35
-39
-41
-43
-45
-44
-49
-49
-49
-51
-57
-52
-51
-49
-44
-43
-37
-35
-31
-29
-25
-24
-19
-17
-15
-17
-17
-17
-15
-13
-13
-14
-13
-16
-15
-15
-15
-15
-15
-16
-17
-18
-18
-18
-17
-17
-15
-14
-15
-17
-17
-18
-12
-17
-15
-16
-15
-16
-19
-19
-19
-17
-13
-11
-7
-4
0
4
4
7
7
9
11
12
13
13
13
12
11
7
1
-3
-10
-13
-15
-17
-21
-23
-25
-27
-28
-29
-28
-28
-31
-29
-28
-28
-30
-31
-28
-28
-28
-33
-41
-49
-55
-55
-50
-31
17
85
150
183
173
132
86
52
28
9
-5
-17
-26
-29
-29
-31
-33
-35
-37
-36
-38
-38
-35
-36
-37
-39
-37
-36
-36
-36
-37
-39
-35
-36
-37
-39
-41
-39
-39
-38
-39
-43
-43
-44
-47
-50
-52
-52
-56
-58
-60
-61
-63
-62
-61
-60
-61
-61
-59
-55
-50
-46
-41
-40
-37
-34
-31
-31
-29
-28
-27
-27
-27
-28
-23
-23
-23
-22
-27
-23
-25
-25
-25
-27
-25
-23
-21
-23
-25
-25
-25
-25
-25
-24
-22
-23
-25
-27
-25
-23
-24
-22
-23
-23
-23
-19
-23
-20
-17
-13
-7
-6
-5
-3
0
4
4
8
13
12
14
12
10
7
3
1
-7
-12
-18
-22
-26
-28
-29
-28
-29
-31
-31
-31
-32
-33
-33
-32
-31
-32
-34
-33
-33
-35
-41
-50
-57
-59
-53
-41
-8
47
113
162
173
149
107
71
44
20
5
-9
-21
-31
-32
-35
-37
-36
-38
-38
-37
-37
-36
-37
-35
-35
-35
-35
-36
-35
-37
-37
-35
-35
-35
-34
-34
-36
-39
-39
-39
-41
-41
-41
-43
-44
-47
-50
-50
-52
-57
-55
-57
-57
-61
-63
-60
-59
-56
-55
-53
-49
-47
-42
-37
-34
-31
-27
-26
-27
-25
-23
-21
-20
-18
-19
-19
-20
-20
-21
-19
-19
-17
-19
-19
-19
-21
-21
-19
-18
-19
-19
-19
-19
-21
-19
-19
-23
-18
-19
-17
-19
-21
-18
-17
-17
-17
-17
-14
-12
-9
-3
1
5
7
5
6
8
13
15
17
20
19
15
13
8
5
-1
-5
-11
-13
-17
-21
-23
-23
-24
-25
-25
-25
-31
-27
-28
-27
-27
-29
-23
-25
-27
-30
-35
-43
-50
-50
-47
-40
-21
21
84
145
177
168
133
92
55
29
13
0
-13
-19
-23
-25
-26
-27
-28
-28
-30
-28
-28
-29
-28
-28
-32
-28
-27
-26
-27
-29
-27
-27
-27
-27
-28
-28
-27
-28
-31
-31
-33
-33
-35
-35
-39
-41
-43
-43
-44
-44
-47
-47
-49
-52
-50
-49
-48
-44
-42
-40
-35
-33
-30
-27
-23
-19
-18
-15
-15
-15
-15
-17
-12
-13
-13
-13
-11
-13
-13
-14
-12
-10
-12
-11
-12
-13
-13
-13
-13
-13
-11
-13
-12
-13
-14
-13
-12
-11
-9
-13
-12
-13
-13
-11
-11
-10
-10
-6
-4
0
5
9
12
15
13
12
15
18
22
20
21
20
17
13
8
4
-3
-7
-9
-11
-13
-18
-19
-18
-19
-19
-19
-19
-21
-21
-20
-19
-21
-21
-19
-15
-21
-25
-32
-43
-46
-45
-40
-19
25
93
151
188
184
150
112
75
47
28
13
1
-8
-15
-17
-21
-22
-24
-23
-23
-23
-21
-22
-23
-23
-23
-23
-23
-23
-21
-20
-21
-24
-23
-23
-23
-22
-22
-24
-25
-27
-29
-31
-31
-31
-33
-35
-37
-42
-41
-42
-43
-45
-47
-44
-47
-49
-47
-44
-42
-38
-33
-31
-27
-25
-20
-19
-16
-13
-11
-11
-11
-11
-11
-10
-9
-11
-9
-11
-12
-11
-11
-12
-10
-10
-9
-11
-12
-11
-11
-7
-10
-10
-11
-11
-9
-13
-11
-11
-10
-9
-11
-11
-13
-13
-11
-11
-8
-6
-1
0
5
7
11
13
12
14
16
19
20
20
20
20
17
13
5
0
-4
-8
-9
-12
-13
-15
-17
-19
-21
-22
-23
-21
-19
-21
-21
-23
-21
-22
-21
-20
-22
-25
-35
-44
-49
-47
-39
-12
40
109
169
191
172
130
87
54
32
15
2
-9
-17
-19
-21
-20
-23
-25
-27
-28
-25
-27
-25
-25
-29
-27
-27
-27
-25
-28
-25
-25
-25
-26
-27
-27
-28
-29
-27
-28
-31
-33
-35
-35
-36
-38
-39
-41
-44
-46
-49
-51
-51
-52
-51
-51
-50
-52
-50
-44
-41
-37
-31
-28
-27
-25
-25
-20
-18
-15
-13
-17
-15
-16
-15
-15
-13
-13
-13
-15
-15
-15
-16
-15
-15
-13
-13
-15
-15
-15
-15
-15
-15
-14
-13
-15
-16
-14
-14
-15
-14
-14
-13
-15
-15
-14
-15
-12
-9
-5
-1
0
3
9
6
8
9
11
17
15
13
13
13
13
9
7
1
-7
-10
-14
-15
-19
-19
-19
-21
-25
-25
-26
-25
-23
-23
-24
-25
-25
-25
-26
-25
-25
-27
-35
-44
-52
-55
-49
-29
23
89
153
187
175
140
96
60
37
21
7
-7
-15
-21
-25
-27
-27
-27
-26
-28
-28
-31
-31
-30
-28
-29
-28
-28
-28
-29
-28
-28
-23
-28
-30
-31
-33
-32
-33
-32
-32
-35
-39
-39
-41
-41
-43
-47
-47
-47
-51
-53
-56
-55
-55
-57
-57
-55
-55
-52
-49
-44
-41
-37
-31
-29
-26
-25
-24
-22
-19
-19
-17
-17
-17
-19
-19
-18
-18
-19
-19
-18
-20
-19
-19
-18
-19
-17
-17
-22
-21
-21
-19
-18
-21
-17
-17
-18
-21
-21
-19
-19
-19
-18
-20
-19
-19
-17
-17
-15
-10
-5
-1
0
4
5
5
5
8
12
13
12
12
9
6
4
0
-7
-12
-18
-22
-25
-25
-25
-27
-27
-31
-28
-29
-28
-28
-29
-28
-28
-28
-29
-31
-31
-34
-39
-46
-53
-55
-50
-29
18
84
151
188
181
144
104
69
43
22
7
-6
-16
-25
-28
-31
-31
-32
-34
-33
-35
-35
-35
-37
-33
-35
-33
-32
-33
-33
-33
-34
-35
-35
-35
-37
-37
-40
-39
-40
-39
-41
-42
-42
-44
-48
-51
-53
-52
-55
-57
-58
-59
-60
-61
-61
-58
-57
-53
-51
-49
-47
-41
-37
-32
-33
-28
-27
-25
-25
-28
-26
-23
-20
-21
-23
-22
-23
-21
-22
-21
-20
-22
-22
-21
-20
-20
-19
-20
-20
-21
-23
-23
-23
-20
-21
-19
-19
-21
-23
-20
-21
-19
-19
-19
-19
-19
-22
-13
-9
-5
1
7
5
3
5
9
13
15
15
16
15
12
6
1
-4
-10
-15
-18
-23
-23
-26
-27
-29
-27
-27
-27
-30
-31
-32
-31
-32
-29
-29
-31
-33
-37
-45
-53
-57
-55
-48
-31
5
65
126
166
165
133
94
57
30
12
-4
-14
-23
-27
-29
-31
-35
-35
-33
-34
-35
-36
-35
-35
-36
-37
-35
-33
-32
-31
-32
-35
-35
-35
-33
-32
-32
-35
-39
-39
-41
-41
-42
-45
-44
-44
-47
-49
-55
-52
-55
-53
-56
-59
-61
-61
-59
-57
-53
-49
-44
-41
-38
-35
-35
-31
-29
-23
-23
-19
-19
-19
-19
-19
-19
-16
-18
-17
-17
-17
-19
-17
-18
-18
-17
-21
-17
-19
-19
-18
-21
-17
-18
-17
-18
-19
-17
-17
-16
-15
-16
-15
-18
-17
-17
-15
-14
-11
-9
-4
-2
1
4
7
9
10
15
17
20
21
21
21
21
20
15
7
0
-5
-9
-13
-15
-17
-21
-19
-22
-21
-23
-26
-23
-23
-22
-23
-24
-23
-22
-23
-23
-27
-34
-43
-48
-45
-35
-19
20
77
140
174
170
139
100
65
39
23
7
-5
-15
-17
-20
-23
-21
-20
-25
-25
-30
-26
-25
-23
-22
-25
-23
-25
-23
-23
-25
-21
-21
-21
-23
-23
-22
-23
-23
-23
-24
-25
-27
-28
-31
-31
-33
-33
-35
-37
-39
-40
-37
-41
-41
-39
-39
-39
-36
-33
-31
-26
-25
-18
-15
-13
-11
-6
-8
-5
-4
-3
-3
-5
-4
-5
-3
-1
-3
-3
-3
-3
-3
-3
-3
-3
0
-2
-2
-5
-3
-3
-3
-1
0
-1
-2
-3
-3
-2
-2
-1
-3
-1
-1
-1
1
4
7
17
17
20
20
21
23
23
27
29
30
32
30
28
28
23
20
13
7
3
0
-3
-4
-5
-6
-5
-9
-9
-10
-13
-11
-11
-9
-9
-9
-10
-10
-10
-11
-18
-26
-33
-36
-38
-25
5
61
126
183
198
177
137
97
68
45
31
16
5
-2
-9
-10
-13
-12
-13
-13
-13
-15
-15
-15
-15
-12
-13
-12
-13
-12
-13
-13
-11
-12
-11
-11
-13
-15
-17
-17
-17
-17
-19
-19
-21
-27
-26
-27
-27
-28
-32
-32
-32
-35
-36
-39
-37
-35
-33
-31
-30
-27
-22
-19
-13
-11
-5
-5
-5
-3
-3
-2
-1
-1
1
-1
-1
-2
-1
0
1
1
0
0
1
-1
-1
4
1
4
1
0
4
1
1
1
2
2
1
0
0
1
1
1
4
4
4
4
8
13
18
21
22
23
23
23
28
29
30
32
33
29
26
23
17
12
7
4
0
1
-5
-5
-7
-8
-5
-10
-9
-11
-11
-11
-11
-10
-9
-8
-9
-10
-14
-21
-28
-35
-38
-35
-27
5
65
135
188
201
173
127
89
60
39
25
12
1
-5
-9
-11
-12
-14
-15
-15
-12
-14
-13
-13
-18
-15
-15
-14
-12
-15
-14
-15
-15
-15
-15
-15
-17
-17
-18
-21
-22
-23
-23
-23
-25
-29
-29
-33
-35
-35
-38
-36
-40
-41
-41
-43
-43
-41
-38
-35
-31
-27
-26
-21
-19
-18
-11
-9
-9
-6
-5
-7
-7
-7
-5
-3
-4
-6
-6
-5
-4
-5
-6
-5
-3
-6
-7
-7
-7
-7
-7
-5
-4
-7
-6
-8
-6
-5
-6
-5
-4
-6
-8
-7
-6
-5
-2
1
1
5
8
12
17
17
19
20
21
23
23
23
23
23
22
16
12
4
-1
-5
-8
-9
-11
-13
-15
-16
-17
-17
-17
-16
-18
-17
-19
-19
-18
-15
-15
-17
-21
-27
-39
-45
-47
-41
-23
21
88
150
191
191
156
113
73
47
28
13
0
-11
-15
-17
-20
-21
-23
-22
-24
-24
-23
-23
-23
-23
-23
-25
-25
-25
-23
-24
-23
-23
-26
-25
-27
-26
-27
-27
-28
-29
-33
-35
-41
-38
-39
-41
-43
-49
-47
-49
-51
-53
-53
-51
-52
-53
-53
-51
-47
-42
-39
-33
-31
-29
-26
-24
-20
-21
-19
-17
-17
-19
-19
-19
-16
-18
-17
-15
-17
-21
-19
-19
-17
-18
-18
-17
-19
-21
-22
-23
-19
-19
-18
-17
-20
-21
-22
-21
-20
-21
-21
-21
-20
-22
-22
-19
-18
-13
-9
-7
-4
-1
-1
1
0
4
6
8
7
7
7
5
4
-1
-6
-13
-18
-21
-25
-27
-28
-33
-32
-33
-33
-34
-38
-36
-35
-35
-35
-38
-37
-35
-35
-35
-39
-44
-54
-60
-63
-59
-45
-1
63
133
180
179
145
100
60
29
9
-7
-21
-32
-37
-39
-40
-41
-41
-43
-45
-49
-47
-45
-45
-45
-49
-46
-46
-47
-47
-47
-44
-44
-47
-47
-47
-47
-49
-49
-50
-52
-52
-56
-59
-59
-60
-63
-65
-67
-68
-71
-73
-73
-75
-75
-72
-71
-71
-70
-66
-60
-58
-53
-50
-47
-44
-43
-46
-41
-39
-37
-39
-41
-37
-39
-39
-39
-38
-35
-37
-35
-39
-41
-39
-39
-36
-37
-39
-39
-39
-39
-38
-39
-40
-37
-39
-39
-41
-41
-41
-39
-36
-37
-37
-39
-39
-36
-35
-31
-31
-23
-22
-19
-19
-21
-16
-13
-11
-6
-2
-5
-3
-5
-6
-7
-12
-19
-27
-32
-36
-39
-43
-43
-44
-45
-48
-49
-50
-51
-51
-49
-45
-49
-49
-49
-49
-49
-51
-58
-66
-73
-77
-69
-55
-15
44
110
152
159
127
89
53
23
4
-11
-25
-37
-46
-49
-51
-51
-51
-51
-51
-55
-55
-55
-56
-53
-53
-50
-50
-51
-53
-51
-52
-52
-53
-51
-53
-53
-55
-55
-55
-57
-57
-59
-60
-65
-63
-64
-67
-69
-73
-71
-71
-73
-75
-77
-76
-77
-75
-71
-71
-69
-65
-61
-57
-52
-50
-45
-44
-43
-40
-39
-39
-37
-37
-37
-36
-37
-38
-37
-36
-35
-35
-35
-36
-38
-38
-40
-35
-36
-34
-35
-39
-36
-36
-35
-35
-35
-35
-35
-35
-36
-38
-35
-35
-34
-34
-35
-35
-31
-29
-23
-19
-14
-13
-13
-11
-10
-7
-1
1
4
4
1
0
-2
-5
-11
-16
-22
-26
-31
-35
-37
-43
-39
-41
-41
-45
-47
-44
-44
-43
-41
-43
-43
-45
-43
-44
-49
-55
-64
-66
-63
-55
-32
12
76
135
165
149
113
72
41
16
1
-13
-26
-32
-38
-42
-43
-44
-44
-45
-45
-49
-47
-47
-48
-47
-47
-45
-43
-43
-44
-45
-43
-43
-44
-44
-45
-44
-45
-47
-47
-47
-49
-49
-49
-52
-54
-57
-57
-59
-59
-61
-61
-62
-65
-66
-64
-63
-61
-59
-55
-52
-51
-50
-43
-37
-35
-31
-34
-31
-29
-29
-28
-28
-26
-26
-26
-25
-28
-26
-26
-25
-25
-24
-26
-25
-25
-25
-24
-23
-23
-23
-25
-24
-25
-23
-23
-23
-22
-23
-25
-25
-25
-23
-23
-23
-21
-22
-21
-19
-19
-10
-5
-3
1
5
1
1
4
8
12
12
12
9
6
5
1
-3
-9
-15
-17
-22
-25
-27
-27
-29
-29
-28
-29
-31
-29
-31
-31
-30
-28
-28
-28
-31
-31
-35
-41
-50
-59
-56
-53
-35
5
71
133
175
174
143
100
63
34
17
4
-7
-17
-24
-27
-31
-31
-33
-32
-32
-32
-32
-33
-34
-33
-33
-32
-31
-25
-31
-31
-31
-31
-33
-31
-31
-31
-33
-36
-35
-36
-35
-36
-41
-37
-41
-43
-45
-49
-49
-50
-50
-50
-52
-55
-55
-56
-52
-50
-47
-43
-41
-37
-33
-29
-27
-25
-23
-20
-20
-20
-21
-18
-18
-17
-18
-18
-19
-19
-18
-18
-18
-17
-15
-17
-23
-18
-19
-17
-17
-19
-15
-17
-17
-18
-18
-17
-15
-17
-16
-17
-17
-18
-18
-15
-15
-14
-15
-15
-13
-10
-6
0
4
4
4
7
7
9
12
15
16
17
15
12
7
4
3
-5
-10
-16
-18
-23
-20
-23
-23
-23
-24
-25
-27
-26
-26
-27
-26
-23
-25
-25
-27
-29
-31
-38
-48
-51
-53
-49
-31
14
83
150
185
176
140
95
60
36
21
7
-5
-13
-20
-24
-27
-29
-28
-31
-28
-29
-28
-31
-31
-31
-28
-28
-28
-29
-28
-31
-31
-30
-31
-29
-30
-28
-31
-34
-34
-35
-36
-36
-38
-41
-44
-45
-47
-47
-51
-51
-54
-53
-55
-57
-57
-57
-55
-52
-50
-49
-43
-41
-37
-31
-31
-25
-23
-21
-23
-22
-22
-21
-19
-18
-19
-19
-19
-18
-19
-19
-17
-18
-19
-19
-19
-19
-19
-17
-17
-16
-18
-17
-19
-19
-19
-17
-18
-17
-19
-19
-21
-23
-18
-17
-18
-17
-22
-17
-15
-13
-6
-1
1
5
4
5
5
9
10
12
13
12
12
7
5
0
-5
-9
-13
-17
-21
-21
-23
-25
-26
-25
-27
-27
-29
-29
-28
-28
-29
-27
-27
-28
-28
-31
-41
-44
-53
-58
-58
-53
-26
29
95
157
184
175
137
93
57
32
17
4
-8
-17
-23
-27
-31
-32
-33
-31
-31
-32
-33
-33
-33
-33
-32
-32
-31
-31
-32
-32
-33
-33
-32
-34
-38
-35
-35
-37
-39
-41
-40
-41
-41
-43
-47
-49
-51
-51
-52
-55
-55
-57
-59
-60
-61
-61
-59
-59
-54
-51
-49
-44
-41
-37
-34
-31
-24
-25
-25
-26
-23
-23
-23
-22
-21
-23
-27
-23
-23
-21
-23
-25
-22
-23
-22
-23
-25
-23
-23
-21
-22
-23
-25
-25
-26
-25
-23
-23
-22
-23
-26
-25
-24
-25
-23
-23
-23
-23
-23
-21
-18
-14
-7
-5
-2
-1
-3
-2
0
4
5
5
6
7
1
0
-6
-10
-11
-18
-22
-25
-28
-32
-32
-32
-33
-33
-37
-37
-36
-37
-37
-37
-35
-36
-34
-37
-36
-39
-47
-55
-60
-60
-55
-27
29
99
160
181
157
114
69
36
15
4
-11
-21
-28
-35
-43
-41
-41
-43
-42
-43
-43
-42
-43
-43
-43
-41
-42
-41
-43
-42
-43
-45
-44
-45
-43
-43
-44
-48
-47
-47
-50
-47
-53
-54
-56
-57
-59
-61
-63
-64
-63
-65
-68
-70
-71
-71
-74
-69
-66
-63
-59
-57
-53
-49
-44
-41
-39
-35
-35
-36
-35
-33
-33
-33
-31
-31
-32
-34
-35
-32
-32
-31
-31
-29
-31
-31
-31
-32
-33
-31
-30
-31
-33
-34
-34
-32
-33
-32
-35
-31
-33
-33
-31
-35
-31
-31
-31
-31
-31
-29
-27
-21
-18
-15
-12
-11
-9
-10
-7
-1
1
4
4
1
-1
-5
-7
-13
-20
-23
-26
-33
-35
-36
-38
-39
-39
-39
-40
-42
-47
-43
-43
-43
-44
-44
-43
-43
-43
-47
-53
-60
-67
-67
-61
-41
5
69
132
167
160
124
81
44
18
0
-14
-27
-36
-43
-46
-47
-44
-47
-47
-48
-50
-49
-49
-47
-47
-47
-47
-47
-47
-48
-50
-53
-49
-49
-49
-49
-51
-53
-55
-55
-55
-55
-56
-57
-59
-60
-61
-64
-65
-66
-67
-69
-72
-74
-75
-75
-75
-73
-69
-65
-63
-59
-55
-51
-47
-43
-41
-40
-39
-37
-37
-37
-35
-38
-34
-35
-35
-35
-39
-35
-35
-35
-34
-35
-36
-37
-36
-35
-36
-33
-35
-33
-37
-35
-35
-35
-35
-34
-34
-35
-36
-35
-35
-35
-34
-31
-31
-33
-32
-29
-26
-21
-15
-13
-10
-5
-9
-7
-5
1
7
3
3
0
-1
-3
-8
-16
-20
-26
-30
-33
-36
-39
-39
-39
-39
-39
-41
-41
-42
-43
-41
-41
-41
-41
-43
-43
-44
-49
-57
-63
-65
-62
-53
-29
20
79
135
160
148
111
72
39
14
-5
-18
-28
-32
-38
-42
-45
-44
-44
-45
-43
-43
-44
-45
-44
-43
-43
-42
-39
-39
-41
-41
-41
-41
-41
-41
-39
-41
-41
-44
-43
-44
-43
-46
-47
-47
-50
-52
-54
-59
-56
-58
-59
-59
-65
-62
-64
-62
-61
-59
-53
-49
-47
-43
-41
-36
-34
-31
-27
-27
-27
-25
-25
-23
-23
-23
-21
-20
-22
-22
-21
-18
-20
-21
-17
-20
-21
-21
-21
-19
-19
-19
-19
-19
-19
-21
-23
-19
-19
-18
-17
-20
-21
-21
-17
-18
-19
-17
-15
-17
-15
-13
-9
-4
-1
4
4
7
7
7
10
12
15
15
15
13
9
6
3
-2
-7
-13
-15
-19
-21
-22
-23
-23
-27
-23
-25
-25
-27
-30
-26
-27
-25
-25
-25
-25
-26
-29
-33
-44
-49
-51
-49
-39
-2
60
128
173
175
145
104
69
44
25
12
-1
-11
-20
-23
-25
-27
-28
-28
-28
-27
-27
-31
-28
-30
-30
-28
-31
-27
-26
-24
-27
-28
-27
-27
-27
-27
-29
-28
-31
-31
-31
-31
-32
-34
-35
-39
-41
-43
-43
-45
-47
-46
-47
-49
-52
-51
-51
-49
-47
-44
-43
-39
-36
-33
-30
-25
-23
-20
-23
-19
-18
-17
-16
-17
-15
-14
-16
-15
-14
-15
-14
-16
-15
-13
-14
-15
-15
-15
-14
-15
-14
-13
-14
-13
-15
-15
-14
-13
-13
-13
-14
-15
-15
-14
-15
-13
-12
-13
-14
-13
-8
-8
-3
1
5
12
9
9
9
13
16
20
20
20
16
13
9
5
0
-4
-9
-13
-15
-17
-19
-19
-20
-20
-20
-21
-23
-23
-20
-23
-23
-20
-23
-23
-23
-23
-25
-31
-42
-45
-47
-47
-39
-3
52
121
174
188
161
119
77
47
29
15
2
-7
-15
-21
-23
-25
-25
-25
-25
-25
-25
-25
-27
-25
-25
-25
-24
-24
-23
-23
-25
-25
-25
-25
-24
-23
-25
-28
-29
-27
-28
-33
-32
-31
-32
-36
-42
-41
-41
-43
-43
-45
-47
-49
-50
-50
-49
-47
-45
-43
-39
-36
-32
-29
-25
-21
-19
-15
-15
-15
-14
-14
-12
-13
-12
-9
-11
-11
-12
-11
-11
-10
-9
-5
-11
-12
-13
-11
-7
-10
-9
-11
-11
-10
-11
-11
-12
-10
-9
-11
-12
-11
-10
-9
-9
-8
-8
-9
-9
-9
-6
-3
1
5
12
11
13
13
13
15
18
21
22
21
21
21
17
13
9
5
1
-5
-9
-13
-13
-11
-14
-13
-16
-17
-19
-17
-19
-17
-17
-17
-18
-17
-18
-19
-18
-21
-28
-37
-44
-45
-41
-21
28
94
159
193
180
142
100
65
41
27
13
4
-7
-13
-20
-20
-21
-21
-20
-23
-20
-21
-23
-22
-22
-22
-20
-19
-20
-23
-20
-20
-21
-21
-20
-21
-21
-21
-23
-26
-27
-25
-26
-27
-30
-32
-35
-37
-38
-39
-41
-42
-45
-47
-47
-47
-51
-47
-45
-41
-39
-39
-32
-28
-24
-21
-19
-15
-13
-13
-11
-10
-10
-9
-8
-6
-7
-9
-8
-9
-7
-7
-7
-7
-8
-7
-8
-7
-7
-7
-6
-7
-6
-7
-7
-8
-8
-7
-4
-6
-7
-7
-7
-4
-6
-5
-6
-5
-5
-7
-7
-5
-3
1
7
12
13
14
15
15
17
20
22
23
24
25
22
23
20
17
15
8
4
-5
-7
-9
-11
-11
-12
-13
-13
-15
-15
-17
-15
-18
-15
-15
-15
-17
-20
-17
-18
-21
-27
-37
-45
-45
-43
-29
12
75
143
189
190
160
117
79
52
36
20
7
-5
-13
-17
-19
-22
-19
-21
-22
-23
-23
-25
-25
-22
-21
-20
-23
-22
-23
-23
-23
-25
-21
-20
-21
-24
-25
-27
-27
-27
-26
-28
-30
-31
-35
-36
-39
-39
-41
-42
-43
-45
-47
-49
-49
-50
-49
-49
-47
-46
-43
-38
-34
-31
-28
-23
-20
-20
-19
-15
-15
-16
-13
-9
-13
-14
-15
-14
-11
-14
-13
-12
-13
-14
-15
-14
-13
-14
-11
-12
-13
-15
-15
-15
-16
-14
-13
-12
-13
-13
-13
-14
-13
-14
-13
-11
-13
-14
-15
-16
-12
-11
-7
-4
-1
5
4
7
7
9
13
15
20
18
18
20
17
15
13
9
4
-5
-10
-12
-15
-15
-19
-19
-21
-22
-23
-25
-25
-25
-25
-23
-23
-20
-25
-25
-23
-24
-25
-31
-39
-46
-51
-51
-31
12
76
145
189
189
159
115
79
49
28
13
-1
-13
-21
-25
-27
-27
-27
-27
-27
-29
-28
-28
-28
-28
-27
-27
-29
-29
-29
-28
-28
-29
-29
-28
-30
-31
-32
-28
-32
-31
-32
-35
-37
-39
-45
-43
-43
-45
-45
-51
-50
-53
-54
-55
-57
-56
-56
-55
-54
-53
-49
-44
-42
-38
-33
-31
-28
-27
-25
-24
-20
-19
-19
-17
-17
-19
-18
-17
-17
-17
-15
-17
-17
-19
-18
-19
-23
-18
-15
-17
-17
-22
-17
-18
-18
-18
-17
-17
-18
-19
-19
-20
-19
-18
-17
-17
-17
-19
-17
-17
-15
-13
-9
-4
-4
-1
0
4
7
7
9
12
13
13
14
15
13
13
13
5
-1
-10
-13
-19
-17
-21
-21
-24
-27
-27
-28
-28
-31
-31
-31
-31
-31
-31
-32
-31
-31
-31
-33
-41
-51
-57
-57
-49
-28
17
83
143
175
167
132
92
57
33
15
1
-13
-24
-27
-32
-32
-35
-31
-35
-36
-38
-39
-36
-36
-35
-35
-36
-35
-34
-33
-34
-34
-32
-32
-33
-35
-35
-37
-36
-39
-39
-39
-41
-43
-45
-45
-47
-49
-47
-49
-52
-53
-57
-58
-60
-59
-59
-58
-60
-57
-55
-49
-47
-44
-38
-33
-31
-31
-29
-27
-25
-21
-21
-21
-20
-21
-22
-21
-19
-20
-19
-19
-21
-21
-21
-21
-19
-19
-19
-19
-19
-19
-21
-19
-21
-19
-18
-19
-19
-21
-19
-19
-19
-18
-19
-21
-19
-19
-19
-19
-19
-15
-11
-6
-3
-2
0
2
5
7
9
13
13
13
15
14
13
12
8
4
-3
-10
-14
-17
-17
-19
-21
-21
-23
-25
-25
-25
-25
-25
-25
-25
-27
-31
-25
-26
-25
-25
-30
-32
-43
-51
-54
-53
-45
-19
31
96
153
177
163
125
87
53
33
16
1
-9
-18
-23
-25
-25
-25
-27
-28
-25
-29
-30
-28
-27
-27
-27
-27
-26
-27
-30
-26
-25
-25
-25
-30
-28
-29
-28
-27
-28
-29
-29
-31
-33
-34
-35
-36
-39
-40
-41
-43
-43
-47
-47
-47
-49
-47
-46
-47
-46
-45
-39
-35
-31
-27
-25
-23
-22
-19
-17
-15
-15
-14
-15
-18
-16
-11
-13
-12
-14
-13
-9
-13
-14
-15
-13
-12
-13
-13
-12
-12
-13
-15
-14
-12
-12
-13
-13
-15
-15
-15
-13
-13
-11
-11
-11
-13
-12
-13
-12
-9
-7
-4
1
3
7
8
12
15
13
15
15
17
21
17
17
15
15
12
5
-1
-7
-10
-11
-14
-15
-15
-17
-20
-21
-22
-21
-20
-20
-21
-21
-23
-23
-21
-21
-17
-20
-23
-32
-42
-47
-47
-44
-20
27
94
155
185
177
139
100
62
39
21
7
-3
-15
-19
-21
-23
-25
-24
-26
-27
-26
-26
-25
-25
-25
-25
-27
-27
-26
-25
-23
-23
-23
-22
-25
-25
-25
-26
-25
-26
-27
-28
-32
-33
-34
-37
-37
-36
-43
-42
-45
-44
-47
-50
-47
-47
-47
-47
-49
-44
-41
-39
-33
-31
-27
-26
-21
-20
-18
-15
-13
-13
-13
-13
-13
-15
-14
-13
-13
-11
-11
-13
-13
-14
-13
-13
-11
-11
-12
-13
-9
-12
-13
-13
-11
-8
-11
-13
-13
-12
-13
-13
-11
-11
-11
-13
-13
-12
-13
-10
-7
-4
-3
1
4
7
11
12
13
13
15
17
17
20
20
17
16
13
9
4
-5
-7
-10
-13
-13
-15
-16
-22
-19
-20
-20
-21
-21
-19
-19
-22
-21
-23
-21
-21
-19
-20
-27
-34
-43
-49
-49
-44
-28
16
81
148
185
175
140
97
63
39
23
8
-3
-12
-18
-21
-21
-20
-23
-24
-27
-27
-25
-25
-24
-23
-27
-25
-25
-25
-25
-25
-22
-23
-23
-25
-27
-25
-26
-26
-27
-28
-28
-31
-32
-35
-35
-36
-37
-39
-41
-43
-47
-44
-49
-50
-49
-50
-50
-50
-47
-44
-41
-40
-33
-28
-26
-25
-26
-19
-18
-15
-15
-12
-15
-15
-15
-12
-13
-14
-13
-12
-14
-15
-14
-14
-14
-13
-13
-12
-13
-14
-15
-15
-14
-13
-13
-11
-13
-14
-13
-12
-13
-13
-11
-11
-13
-14
-12
-12
-8
-10
-7
-4
-1
5
4
9
10
12
13
14
15
15
16
18
17
16
13
9
4
-2
-7
-10
-13
-15
-15
-17
-20
-22
-21
-20
-21
-22
-21
-22
-22
-24
-25
-25
-23
-23
-27
-28
-39
-46
-51
-51
-37
-3
57
128
178
191
169
126
87
55
33
17
4
-8
-15
-19
-23
-24
-25
-27
-29
-29
-27
-28
-28
-29
-25
-28
-31
-29
-30
-28
-29
-29
-29
-28
-31
-31
-31
-31
-31
-35
-32
-36
-39
-40
-43
-43
-44
-45
-47
-51
-52
-55
-55
-55
-55
-55
-55
-56
-55
-51
-49
-44
-39
-37
-32
-31
-28
-26
-22
-20
-21
-19
-17
-19
-17
-17
-17
-17
-17
-15
-17
-23
-21
-20
-19
-18
-21
-15
-15
-16
-17
-19
-17
-17
-17
-18
-17
-19
-19
-19
-17
-17
-15
-15
-19
-19
-17
-17
-15
-15
-13
-11
-8
-4
0
4
5
5
7
9
12
12
13
17
15
15
13
12
9
0
-5
-10
-13
-15
-18
-22
-25
-27
-28
-26
-26
-26
-25
-27
-28
-31
-31
-30
-28
-28
-28
-32
-41
-49
-52
-52
-45
-25
21
84
148
183
179
143
101
65
39
20
4
-11
-23
-26
-29
-28
-29
-32
-31
-32
-33
-32
-32
-31
-31
-31
-31
-32
-33
-34
-32
-31
-31
-31
-33
-33
-34
-35
-35
-35
-35
-38
-39
-41
-41
-43
-43
-43
-46
-49
-51
-52
-54
-55
-57
-55
-55
-55
-55
-57
-51
-46
-43
-39
-36
-31
-28
-27
-24
-23
-19
-19
-17
-19
-21
-20
-19
-18
-17
-18
-18
-18
-17
-17
-17
-16
-13
-16
-16
-18
-19
-19
-19
-17
-17
-15
-21
-18
-19
-19
-17
-21
-15
-15
-16
-17
-19
-18
-17
-15
-13
-10
-7
-1
1
4
4
7
9
11
14
15
17
20
17
20
17
15
11
4
-4
-10
-12
-15
-17
-19
-19
-22
-23
-25
-25
-24
-23
-28
-25
-26
-26
-27
-28
-27
-28
-31
-40
-50
-54
-49
-41
-21
23
84
142
173
166
135
97
63
39
21
5
-6
-17
-23
-25
-27
-28
-28
-28
-29
-29
-28
-28
-29
-27
-27
-29
-31
-27
-27
-26
-26
-29
-25
-27
-27
-29
-28
-28
-29
-28
-31
-33
-35
-35
-36
-37
-39
-41
-43
-44
-48
-47
-50
-49
-49
-49
-47
-48
-42
-43
-39
-35
-32
-26
-25
-22
-19
-16
-17
-15
-13
-13
-11
-10
-13
-13
-12
-11
-10
-10
-11
-13
-13
-10
-11
-10
-10
-10
-10
-11
-12
-11
-11
-11
-10
-9
-11
-11
-11
-9
-9
-9
-8
-9
-10
-10
-9
-9
-9
-5
-2
1
5
7
12
15
15
17
18
21
25
23
23
22
23
21
17
13
7
1
-3
-7
-9
-10
-11
-14
-15
-18
-19
-17
-17
-17
-15
-17
-19
-19
-17
-17
-19
-17
-19
-24
-35
-43
-47
-42
-31
8
66
133
181
185
157
113
76
49
29
15
1
-9
-14
-17
-18
-18
-19
-21
-23
-21
-21
-21
-20
-21
-21
-21
-20
-21
-21
-19
-19
-15
-18
-18
-20
-21
-21
-21
-20
-21
-23
-25
-27
-28
-29
-31
-35
-32
-35
-37
-39
-43
-41
-41
-41
-43
-45
-42
-42
-39
-35
-32
-27
-23
-21
-21
-18
-15
-13
-12
-9
-9
-10
-9
-11
-9
-10
-7
-7
-7
-9
-9
-9
-9
-8
-7
-8
-8
-6
-8
-9
-9
-9
-5
-7
-7
-10
-9
-9
-9
-8
-7
-7
-9
-9
-11
-11
-11
-10
-7
-3
-1
4
5
9
11
14
15
15
20
20
21
21
21
22
20
15
10
4
0
-1
-7
-10
-11
-12
-11
-18
-17
-19
-19
-18
-17
-19
-21
-21
-21
-19
-18
-18
-19
-23
-32
-41
-44
-44
-41
-21
28
94
157
189
180
141
100
65
39
21
5
-6
-13
-18
-19
-20
-21
-20
-23
-24
-27
-23
-23
-22
-23
-25
-24
-23
-23
-20
-23
-21
-22
-22
-23
-24
-23
-23
-25
-25
-27
-28
-31
-32
-33
-35
-36
-37
-41
-43
-44
-46
-47
-47
-49
-48
-49
-49
-48
-45
-41
-36
-34
-29
-27
-25
-22
-22
-17
-15
-14
-13
-13
-14
-13
-14
-11
-11
-11
-11
-13
-12
-12
-11
-11
-11
-11
-11
-13
-12
-12
-11
-13
-12
-12
-13
-13
-12
-13
-13
-12
-11
-13
-13
-9
-12
-12
-13
-11
-5
-8
-5
-1
3
7
9
11
13
13
15
17
20
19
20
19
15
12
6
1
-5
-7
-11
-13
-12
-17
-18
-19
-19
-20
-21
-21
-20
-21
-23
-23
-23
-23
-21
-21
-20
-28
-39
-43
-49
-51
-47
-27
23
91
153
186
176
137
92
55
31
15
1
-9
-17
-21
-22
-23
-25
-27
-27
-27
-27
-25
-26
-26
-27
-29
-27
-25
-25
-25
-25
-26
-25
-27
-26
-27
-31
-27
-29
-29
-31
-37
-34
-36
-36
-37
-41
-44
-44
-48
-49
-51
-53
-53
-53
-53
-55
-55
-53
-49
-44
-41
-38
-35
-33
-28
-26
-24
-19
-17
-18
-19
-19
-19
-16
-17
-17
-18
-18
-19
-19
-19
-19
-21
-19
-17
-18
-20
-20
-19
-19
-20
-19
-19
-19
-21
-19
-19
-19
-19
-19
-19
-21
-21
-20
-20
-21
-20
-18
-17
-15
-13
-9
-5
0
1
4
4
4
5
9
12
12
11
12
11
4
-1
-7
-11
-13
-18
-20
-23
-27
-28
-28
-31
-28
-28
-31
-31
-33
-33
-32
-31
-31
-28
-28
-31
-34
-43
-49
-55
-55
-43
-8
57
128
180
186
157
109
69
39
16
1
-10
-23
-28
-32
-33
-39
-37
-37
-37
-35
-36
-35
-35
-36
-39
-39
-37
-36
-35
-35
-33
-35
-36
-36
-37
-36
-36
-37
-37
-40
-41
-45
-45
-45
-47
-51
-52
-55
-57
-58
-57
-59
-59
-61
-61
-63
-63
-63
-57
-52
-47
-45
-43
-39
-36
-34
-31
-28
-26
-25
-25
-25
-26
-24
-23
-22
-21
-22
-21
-23
-24
-24
-24
-23
-23
-22
-23
-25
-25
-25
-23
-23
-21
-21
-23
-23
-23
-21
-21
-25
-23
-23
-23
-24
-26
-23
-21
-20
-21
-21
-15
-12
-9
-5
-1
1
4
4
4
7
12
13
12
14
13
9
4
0
-5
-12
-13
-17
-21
-23
-25
-27
-27
-30
-28
-28
-28
-31
-32
-31
-30
-30
-33
-28
-28
-31
-37
-44
-51
-55
-52
-41
-15
39
107
165
183
164
124
81
47
25
9
-5
-14
-22
-25
-27
-28
-31
-32
-31
-32
-32
-31
-31
-31
-32
-31
-31
-31
-29
-29
-28
-32
-30
-31
-28
-31
-32
-31
-33
-32
-35
-37
-36
-37
-38
-39
-42
-45
-47
-47
-50
-49
-51
-50
-52
-54
-55
-53
-51
-47
-43
-39
-36
-35
-31
-25
-23
-21
-18
-17
-18
-15
-15
-19
-15
-13
-15
-13
-11
-15
-15
-14
-12
-11
-13
-13
-15
-15
-13
-14
-12
-12
-13
-13
-13
-14
-14
-13
-12
-11
-13
-13
-12
-14
-13
-11
-11
-9
-10
-7
-4
-2
4
7
12
15
13
13
13
17
23
20
21
20
20
19
12
9
4
-1
-3
-7
-11
-14
-15
-15
-15
-15
-17
-18
-19
-20
-20
-21
-21
-18
-18
-18
-19
-21
-28
-38
-45
-45
-43
-25
17
83
147
183
181
148
105
68
41
23
12
1
-10
-13
-19
-21
-22
-23
-23
-23
-22
-23
-23
-23
-23
-22
-20
-21
-21
-20
-20
-22
-23
-22
-21
-21
-21
-21
-23
-25
-27
-25
-27
-29
-30
-31
-35
-36
-42
-39
-41
-41
-43
-47
-48
-47
-46
-45
-43
-38
-36
-32
-31
-27
-23
-21
-17
-15
-14
-13
-12
-12
-11
-9
-10
-9
-9
-11
-11
-10
-10
-9
-9
-9
-10
-9
-11
-9
-10
-9
-7
-9
-10
-11
-10
-8
-10
-9
-9
-10
-7
-9
-10
-10
-10
-7
-8
-7
-7
-5
-1
4
8
12
15
15
14
15
20
21
23
25
23
21
17
13
9
4
0
-3
-8
-11
-14
-13
-16
-15
-15
-13
-17
-19
-19
-19
-20
-17
-17
-17
-17
-19
-21
-27
-36
-43
-46
-43
-30
10
76
144
189
191
158
113
73
45
28
12
1
-7
-14
-17
-19
-21
-23
-21
-21
-21
-21
-21
-23
-24
-22
-22
-19
-20
-23
-21
-21
-20
-21
-21
-20
-20
-22
-23
-27
-27
-27
-27
-28
-31
-33
-35
-36
-38
-39
-41
-43
-44
-46
-47
-47
-47
-46
-43
-39
-36
-34
-31
-27
-23
-21
-17
-15
-12
-13
-11
-8
-10
-10
-9
-8
-6
-11
-12
-11
-9
-7
-9
-7
-9
-10
-9
-9
-9
-10
-9
-9
-9
-11
-11
-9
-9
-7
-9
-10
-11
-11
-10
-9
-9
-8
-9
-9
-7
-6
-1
1
7
15
14
15
14
15
19
21
21
22
21
21
18
14
10
5
1
-5
-9
-12
-13
-15
-15
-15
-17
-18
-17
-19
-19
-20
-19
-18
-17
-14
-19
-19
-21
-27
-36
-43
-47
-49
-44
-20
30
100
161
193
183
140
92
53
29
15
1
-9
-18
-21
-23
-24
-25
-25
-23
-25
-27
-27
-27
-27
-25
-26
-25
-25
-27
-27
-27
-27
-27
-27
-27
-27
-29
-31
-32
-31
-31
-33
-35
-36
-38
-41
-47
-44
-47
-48
-49
-52
-52
-54
-55
-55
-54
-50
-47
-43
-41
-39
-33
-28
-25
-21
-19
-18
-17
-17
-17
-16
-15
-15
-15
-15
-17
-15
-15
-16
-15
-15
-16
-17
-17
-17
-17
-15
-20
-14
-15
-15
-15
-13
-15
-15
-15
-15
-17
-17
-15
-17
-16
-14
-13
-14
-12
-11
-8
-3
0
5
5
7
6
8
14
15
16
20
20
17
15
13
7
3
-3
-7
-14
-17
-18
-19
-21
-21
-20
-25
-23
-24
-25
-25
-27
-24
-22
-23
-24
-26
-28
-33
-41
-46
-49
-47
-32
4
69
140
188
189
157
109
68
39
21
5
-7
-17
-23
-26
-27
-27
-27
-28
-28
-29
-28
-28
-29
-32
-28
-27
-27
-28
-32
-28
-30
-29
-28
-28
-29
-31
-32
-32
-33
-33
-33
-35
-39
-41
-45
-44
-46
-46
-49
-49
-51
-54
-55
-55
-52
-48
-47
-44
-43
-42
-37
-31
-27
-23
-21
-20
-17
-16
-15
-14
-10
-11
-11
-12
-15
-14
-14
-14
-14
-14
-11
-14
-14
-14
-13
-12
-13
-9
-11
-11
-13
-14
-13
-11
-10
-11
-11
-12
-13
-13
-12
-12
-11
-13
-11
-11
-6
-3
4
7
11
13
15
13
15
20
22
28
25
23
20
17
13
7
2
-2
-6
-11
-13
-15
-17
-18
-17
-19
-21
-22
-21
-20
-21
-21
-19
-20
-19
-23
-23
-27
-35
-42
-43
-36
-23
13
73
141
183
180
145
103
68
44
22
8
-3
-11
-13
-20
-21
-21
-23
-24
-22
-21
-21
-23
-23
-23
-21
-20
-19
-18
-19
-20
-21
-21
-20
-20
-14
-21
-21
-23
-23
-26
-24
-25
-27
-29
-33
-34
-35
-37
-37
-43
-41
-42
-43
-43
-43
-41
-39
-36
-33
-31
-25
-23
-18
-15
-13
-10
-8
-7
-7
-4
-5
-5
-5
-3
-5
-3
-3
-4
-4
-5
-1
-3
-3
-5
-5
-3
-3
-2
-1
-3
-3
-2
-5
-3
-5
-3
0
-2
-3
-5
-3
-1
-1
0
0
0
1
5
8
13
20
21
23
23
23
25
28
32
33
33
32
29
25
21
16
12
5
4
1
-3
-5
-5
-7
-3
-7
-8
-9
-8
-5
-8
-7
-7
-7
-7
-9
-11
-17
-25
-33
-33
-30
-21
15
76
145
191
196
164
119
84
54
36
21
9
0
-3
-6
-8
-11
-11
-11
-11
-9
-11
-10
-10
-9
-10
-10
-9
-5
-9
-10
-11
-9
-7
-9
-7
-9
-11
-11
-13
-13
-15
-15
-15
-17
-20
-22
-25
-25
-27
-29
-28
-28
-30
-31
-32
-31
-29
-27
-24
-21
-19
-15
-13
-9
-5
-4
0
-1
0
4
0
4
4
4
5
3
1
1
3
4
4
4
1
1
2
1
3
4
4
4
4
3
1
4
4
3
5
4
4
1
4
4
4
6
5
7
9
14
20
21
25
31
27
26
28
32
36
34
36
33
31
29
24
20
13
9
8
4
1
0
-3
-5
-3
-4
-6
-5
-8
-7
-7
-7
-4
-7
-6
-7
-9
-18
-24
-31
-34
-31
-18
23
90
159
203
200
167
123
85
57
39
23
11
5
-3
-5
-7
-9
-11
-12
-10
-9
-9
-8
-10
-10
-11
-10
-11
-9
-9
-9
-10
-10
-11
-11
-12
-10
-13
-13
-16
-17
-17
-20
-19
-21
-20
-25
-27
-29
-33
-31
-31
-33
-35
-39
-38
-37
-35
-32
-31
-25
-22
-19
-17
-13
-9
-7
-5
-3
-3
-3
-2
-1
0
0
1
0
1
0
-1
-1
-1
0
1
0
1
-1
-1
-1
-1
0
4
1
0
-1
-2
4
-1
-1
0
0
-1
-3
-3
-1
0
1
3
7
9
13
17
21
21
21
21
23
25
28
28
29
28
28
23
19
13
7
4
1
-3
-5
-8
-9
-13
-12
-13
-13
-12
-10
-14
-15
-15
-15
-12
-14
-15
-19
-26
-37
-43
-43
-39
-19
29
95
161
197
191
157
116
79
52
32
15
5
-4
-13
-15
-17
-19
-21
-23
-23
-21
-22
-23
-23
-23
-25
-25
-29
-23
-23
-23
-23
-28
-26
-25
-25
-26
-27
-28
-28
-31
-34
-37
-37
-36
-39
-41
-43
-47
-49
-50
-51
-51
-52
-54
-56
-55
-52
-51
-44
-43
-39
-35
-32
-31
-27
-25
-21
-19
-19
-19
-19
-18
-19
-22
-18
-18
-19
-21
-21
-20
-21
-21
-19
-19
-19
-21
-21
-20
-21
-19
-18
-19
-19
-22
-21
-20
-21
-21
-19
-20
-21
-23
-22
-20
-19
-15
-11
-8
-7
-2
-1
0
4
4
6
11
9
9
9
9
9
4
-3
-10
-15
-19
-21
-23
-25
-25
-27
-28
-31
-31
-32
-33
-32
-31
-33
-33
-31
-32
-32
-31
-36
-45
-55
-57
-58
-48
-13
47
123
177
190
159
114
76
43
21
5
-9
-25
-28
-32
-35
-35
-36
-36
-38
-40
-39
-41
-39
-39
-37
-39
-39
-39
-40
-39
-39
-39
-40
-41
-41
-41
-41
-41
-42
-43
-44
-46
-49
-49
-52
-52
-54
-57
-59
-61
-63
-63
-65
-67
-63
-62
-63
-60
-61
-53
-51
-47
-42
-39
-36
-35
-31
-29
-29
-28
-27
-27
-29
-26
-25
-25
-25
-25
-24
-27
-27
-27
-27
-25
-25
-25
-25
-25
-27
-26
-26
-25
-25
-25
-27
-31
-28
-27
-25
-25
-27
-26
-27
-25
-25
-25
-21
-15
-11
-7
-5
-3
-3
-2
1
5
7
7
6
6
6
3
1
-5
-12
-19
-23
-21
-28
-29
-31
-31
-35
-37
-36
-35
-35
-39
-35
-34
-35
-37
-39
-38
-41
-47
-54
-60
-60
-54
-31
15
81
143
173
160
124
81
46
21
4
-10
-22
-31
-36
-39
-39
-39
-41
-41
-43
-45
-43
-43
-42
-39
-39
-39
-40
-43
-43
-43
-41
-42
-44
-43
-45
-45
-46
-49
-47
-47
-47
-51
-54
-55
-57
-58
-59
-60
-63
-65
-66
-67
-67
-67
-67
-65
-64
-60
-60
-55
-51
-47
-42
-39
-37
-35
-34
-31
-31
-31
-30
-29
-27
-29
-32
-27
-28
-27
-27
-31
-28
-28
-29
-29
-28
-27
-26
-25
-28
-28
-29
-27
-27
-26
-25
-27
-27
-29
-27
-25
-27
-25
-24
-25
-25
-25
-18
-15
-11
-6
-2
-4
-3
-2
1
5
8
9
9
7
4
4
-4
-8
-15
-19
-23
-27
-29
-31
-31
-32
-33
-35
-35
-37
-35
-35
-34
-33
-35
-35
-36
-37
-43
-50
-59
-63
-60
-55
-39
5
69
133
169
161
124
77
41
20
4
-11
-21
-31
-33
-35
-37
-39
-41
-38
-37
-35
-36
-39
-38
-36
-35
-34
-34
-33
-34
-35
-35
-34
-35
-33
-32
-33
-36
-36
-39
-38
-39
-40
-41
-41
-47
-47
-48
-49
-51
-52
-53
-55
-56
-59
-55
-53
-51
-50
-50
-46
-43
-37
-32
-30
-26
-25
-23
-23
-23
-21
-21
-21
-19
-19
-19
-21
-19
-19
-19
-17
-17
-19
-18
-17
-19
-19
-19
-17
-17
-18
-19
-19
-19
-18
-18
-17
-18
-17
-19
-17
-20
-17
-16
-15
-15
-10
-10
-5
-1
3
6
9
8
7
9
12
14
15
15
15
9
6
2
-3
-8
-13
-15
-17
-20
-23
-24
-26
-25
-26
-25
-28
-28
-28
-27
-26
-26
-26
-29
-26
-31
-39
-47
-55
-54
-49
-31
15
84
149
181
167
129
85
51
28
12
-2
-13
-20
-24
-25
-29
-31
-31
-32
-31
-31
-28
-28
-25
-31
-31
-32
-30
-30
-28
-29
-30
-32
-33
-30
-31
-28
-31
-35
-33
-35
-35
-37
-38
-37
-38
-43
-45
-46
-47
-49
-50
-51
-51
-52
-54
-53
-52
-49
-47
-43
-40
-36
-34
-31
-27
-25
-22
-21
-19
-21
-21
-19
-18
-18
-17
-15
-18
-18
-17
-21
-18
-18
-17
-17
-20
-18
-18
-17
-17
-17
-15
-17
-17
-18
-19
-19
-17
-15
-15
-17
-17
-17
-18
-17
-15
-13
-9
-7
-3
1
3
5
7
8
12
12
13
13
14
15
12
13
4
-3
-10
-13
-13
-17
-19
-21
-23
-25
-25
-26
-25
-25
-27
-25
-26
-25
-27
-25
-27
-25
-27
-33
-42
-50
-53
-52
-42
-7
53
125
173
188
161
117
75
47
28
12
-2
-10
-20
-25
-26
-27
-31
-30
-31
-31
-31
-31
-30
-28
-28
-31
-31
-32
-31
-28
-29
-29
-29
-31
-32
-31
-31
-32
-32
-35
-36
-40
-42
-41
-43
-43
-46
-49
-51
-52
-54
-55
-55
-56
-57
-56
-55
-54
-54
-46
-42
-38
-33
-35
-28
-26
-23
-21
-20
-20
-19
-19
-20
-21
-19
-19
-17
-18
-19
-21
-19
-21
-21
-17
-18
-17
-21
-19
-19
-20
-18
-17
-18
-18
-19
-19
-19
-19
-19
-16
-20
-17
-19
-19
-18
-19
-11
-7
-4
0
4
5
5
6
9
12
13
12
12
12
9
7
4
-3
-9
-15
-17
-19
-20
-22
-23
-25
-25
-27
-27
-26
-27
-27
-27
-27
-27
-27
-27
-29
-31
-40
-47
-59
-57
-52
-31
19
92
153
184
172
129
85
52
29
12
0
-11
-21
-27
-28
-31
-31
-32
-31
-34
-35
-35
-35
-34
-32
-32
-31
-33
-35
-34
-35
-34
-32
-34
-35
-37
-37
-37
-41
-38
-39
-39
-43
-47
-45
-47
-50
-52
-53
-55
-57
-59
-61
-63
-61
-61
-59
-60
-59
-55
-53
-48
-43
-39
-35
-33
-32
-29
-27
-25
-21
-23
-23
-24
-25
-23
-21
-23
-22
-23
-26
-24
-25
-25
-23
-25
-21
-22
-21
-23
-23
-22
-23
-24
-23
-23
-24
-24
-25
-24
-23
-23
-21
-22
-21
-23
-22
-18
-13
-9
-5
-1
1
-1
-1
4
9
12
12
12
8
7
4
0
-5
-11
-15
-23
-24
-27
-28
-30
-33
-31
-31
-34
-35
-36
-34
-34
-32
-33
-34
-31
-33
-34
-40
-49
-57
-59
-57
-45
-9
53
125
175
183
152
108
63
34
13
-1
-13
-22
-28
-36
-38
-40
-43
-41
-40
-40
-40
-44
-40
-40
-40
-39
-40
-38
-39
-39
-39
-39
-39
-39
-39
-39
-41
-43
-45
-45
-44
-45
-45
-49
-51
-55
-55
-58
-52
-58
-59
-61
-63
-64
-65
-63
-63
-60
-60
-55
-52
-50
-46
-43
-38
-35
-31
-32
-32
-31
-29
-27
-25
-25
-23
-25
-26
-26
-26
-27
-27
-25
-26
-26
-25
-26
-26
-25
-25
-25
-24
-25
-27
-25
-27
-26
-25
-26
-26
-27
-27
-27
-27
-25
-25
-27
-21
-17
-15
-11
-3
-3
0
0
0
0
4
7
8
9
12
9
7
0
-3
-10
-15
-19
-23
-25
-27
-30
-32
-32
-34
-35
-35
-37
-37
-39
-39
-39
-39
-39
-37
-36
-41
-53
-59
-64
-63
-53
-39
3
64
126
162
156
121
81
45
20
0
-13
-26
-32
-35
-37
-39
-41
-42
-43
-43
-43
-43
-43
-41
-41
-43
-39
-41
-41
-42
-42
-41
-41
-42
-41
-43
-43
-44
-43
-43
-46
-51
-49
-51
-51
-53
-57
-58
-59
-62
-63
-63
-63
-62
-63
-64
-65
-63
-60
-57
-53
-48
-45
-43
-41
-38
-34
-32
-30
-27
-27
-28
-28
-29
-27
-25
-25
-25
-25
-27
-27
-26
-25
-28
-24
-23
-23
-25
-29
-24
-23
-23
-23
-23
-23
-25
-25
-24
-24
-23
-21
-22
-23
-23
-23
-21
-19
-12
-11
-7
-5
-1
0
0
4
5
9
12
11
12
12
10
9
4
0
-5
-13
-17
-19
-22
-26
-23
-25
-28
-27
-29
-28
-27
-27
-27
-28
-29
-29
-27
-28
-29
-33
-42
-51
-56
-52
-46
-21
29
97
156
175
159
121
79
49
29
12
0
-11
-19
-23
-25
-27
-27
-25
-28
-32
-29
-29
-27
-27
-29
-25
-25
-27
-27
-27
-27
-25
-25
-25
-27
-27
-27
-29
-27
-28
-29
-28
-31
-33
-36
-37
-39
-40
-40
-41
-44
-47
-48
-49
-47
-47
-47
-47
-44
-44
-40
-39
-33
-28
-24
-23
-25
-20
-18
-15
-12
-15
-13
-13
-15
-14
-13
-13
-12
-13
-13
-13
-12
-13
-14
-12
-12
-11
-11
-13
-12
-13
-14
-13
-12
-13
-13
-13
-12
-14
-13
-12
-11
-8
-10
-11
-12
-8
-1
1
5
9
11
13
13
13
15
19
21
21
21
19
17
14
11
6
0
-5
-10
-13
-15
-18
-18
-17
-19
-20
-21
-21
-20
-21
-21
-21
-19
-18
-21
-21
-20
-26
-35
-42
-51
-48
-45
-28
15
84
148
185
181
148
101
65
39
21
9
-1
-11
-18
-21
-22
-24
-25
-25
-23
-23
-25
-27
-25
-25
-25
-23
-22
-23
-23
-24
-24
-24
-24
-23
-23
-24
-25
-30
-27
-28
-27
-30
-33
-33
-33
-35
-37
-41
-43
-43
-43
-44
-47
-47
-49
-49
-49
-47
-43
-41
-37
-35
-31
-27
-25
-21
-17
-15
-15
-13
-15
-13
-13
-11
-11
-11
-10
-13
-13
-11
-12
-10
-11
-11
-9
-13
-11
-12
-12
-9
-11
-10
-11
-11
-13
-11
-12
-11
-9
-9
-11
-11
-13
-11
-11
-10
-8
-4
-2
1
5
9
12
12
12
14
15
16
20
20
19
19
17
13
7
1
0
-5
-9
-11
-13
-11
-17
-18
-19
-19
-21
-19
-21
-21
-21
-21
-20
-20
-19
-21
-23
-28
-39
-45
-49
-47
-35
-2
57
129
181
190
161
121
82
55
35
17
3
-6
-16
-18
-23
-19
-21
-23
-25
-27
-25
-25
-23
-23
-23
-23
-25
-25
-25
-25
-25
-24
-23
-25
-27
-26
-27
-27
-27
-26
-29
-31
-35
-37
-35
-36
-38
-41
-43
-43
-47
-49
-51
-51
-51
-53
-53
-53
-52
-50
-47
-44
-39
-34
-29
-27
-27
-21
-19
-17
-16
-17
-17
-18
-17
-15
-14
-15
-15
-15
-15
-17
-18
-17
-15
-15
-15
-14
-14
-17
-15
-17
-15
-15
-15
-15
-17
-17
-17
-17
-15
-17
-14
-11
-15
-15
-15
-13
-5
-3
0
4
4
7
7
7
9
13
15
15
15
14
13
10
6
4
-1
-7
-11
-15
-17
-19
-22
-20
-23
-21
-27
-27
-28
-27
-25
-25
-25
-23
-25
-27
-26
-27
-33
-41
-51
-51
-47
-27
17
86
152
189
183
146
101
63
37
20
5
-7
-15
-23
-25
-28
-28
-31
-31
-28
-28
-30
-31
-31
-31
-31
-31
-32
-31
-31
-32
-28
-28
-28
-28
-28
-29
-32
-37
-36
-37
-39
-39
-43
-41
-45
-45
-47
-50
-51
-51
-52
-55
-57
-58
-59
-59
-57
-55
-52
-51
-51
-47
-41
-37
-32
-29
-25
-25
-24
-22
-21
-21
-19
-17
-19
-19
-21
-20
-19
-23
-21
-19
-19
-20
-22
-19
-17
-19
-17
-19
-18
-18
-19
-21
-20
-19
-19
-17
-18
-18
-18
-17
-19
-18
-18
-14
-14
-13
-10
-7
-3
1
4
5
5
5
7
12
15
15
17
21
20
13
8
5
0
-8
-12
-13
-16
-21
-22
-23
-25
-25
-26
-25
-27
-28
-28
-27
-27
-28
-28
-27
-28
-36
-45
-51
-54
-51
-43
-21
28
92
152
181
165
131
92
54
30
12
-1
-13
-20
-25
-30
-29
-31
-32
-32
-35
-31
-31
-30
-31
-32
-34
-34
-31
-31
-31
-30
-28
-31
-31
-31
-31
-33
-32
-32
-33
-35
-37
-39
-39
-40
-41
-40
-45
-47
-49
-50
-51
-52
-53
-53
-54
-58
-54
-51
-51
-47
-46
-38
-35
-33
-28
-27
-23
-20
-20
-18
-19
-18
-15
-18
-15
-15
-14
-14
-15
-15
-16
-15
-15
-15
-14
-15
-14
-12
-15
-15
-16
-13
-13
-13
-14
-15
-15
-14
-13
-12
-13
-12
-9
-12
-13
-13
-11
-4
-5
1
4
5
8
9
12
12
15
18
21
20
20
20
19
17
15
9
4
-3
-7
-10
-13
-12
-15
-15
-17
-19
-21
-19
-20
-21
-19
-18
-19
-20
-24
-19
-21
-20
-27
-39
-45
-46
-41
-30
5
60
125
172
183
157
118
81
51
33
20
6
-5
-12
-17
-18
-20
-19
-19
-21
-21
-20
-17
-23
-21
-19
-19
-19
-19
-19
-19
-19
-21
-17
-17
-16
-17
-23
-20
-21
-19
-20
-22
-23
-26
-26
-29
-30
-29
-31
-32
-35
-37
-39
-41
-40
-39
-40
-39
-39
-37
-35
-31
-29
-25
-20
-17
-14
-13
-11
-9
-7
-6
-4
-5
-5
-6
-6
-5
-2
-5
-4
-3
-2
-1
-5
-5
-5
-3
-3
-3
-3
-5
-5
-4
-5
-3
-3
-3
-5
-5
-4
-5
-5
-5
-3
-2
-3
-3
-4
1
4
8
13
15
18
18
20
20
22
25
31
28
28
27
23
23
15
13
7
4
0
-3
-7
-9
-11
-10
-12
-11
-14
-13
-15
-15
-14
-15
-12
-13
-14
-15
-17
-21
-26
-35
-35
-36
-31
-3
53
123
177
195
175
133
94
63
44
28
14
5
-5
-11
-15
-17
-18
-18
-18
-18
-18
-19
-19
-21
-21
-19
-19
-19
-18
-18
-18
-19
-19
-20
-19
-19
-17
-19
-21
-21
-23
-23
-24
-25
-25
-27
-28
-31
-35
-36
-38
-37
-39
-43
-43
-45
-44
-45
-46
-41
-39
-37
-33
-31
-28
-25
-21
-18
-16
-11
-11
-13
-11
-10
-10
-7
-8
-7
-8
-9
-9
-9
-10
-9
-7
-7
-8
-8
-9
-9
-8
-9
-7
-8
-7
-5
-9
-9
-9
-9
-4
-7
-7
-10
-9
-8
-8
-7
-7
-5
-1
1
5
7
12
12
15
15
15
19
20
21
21
22
22
19
15
12
5
1
-3
-5
-7
-9
-11
-15
-15
-17
-18
-17
-17
-17
-22
-18
-19
-19
-19
-19
-17
-18
-21
-28
-40
-45
-46
-43
-33
3
60
125
177
196
177
137
95
63
40
22
9
-1
-10
-13
-17
-18
-17
-17
-20
-21
-22
-21
-20
-21
-21
-23
-25
-21
-22
-21
-20
-22
-21
-20
-23
-23
-25
-23
-24
-24
-26
-29
-28
-31
-32
-33
-35
-37
-39
-41
-43
-44
-46
-47
-47
-47
-48
-49
-43
-44
-41
-37
-34
-31
-27
-25
-20
-19
-19
-13
-12
-13
-13
-11
-12
-12
-13
-11
-11
-11
-12
-13
-11
-11
-11
-11
-11
-10
-12
-13
-12
-13
-13
-13
-11
-12
-12
-13
-14
-12
-13
-13
-11
-11
-13
-13
-12
-13
-11
-7
-1
2
5
4
6
11
9
9
13
17
21
17
17
15
12
11
5
1
-5
-10
-12
-17
-19
-19
-20
-22
-24
-25
-25
-26
-26
-25
-25
-23
-24
-26
-27
-27
-28
-31
-39
-47
-50
-51
-44
-11
44
117
172
193
172
132
92
57
36
20
7
-4
-16
-22
-27
-28
-31
-32
-31
-32
-32
-33
-35
-35
-34
-33
-32
-32
-33
-35
-35
-33
-34
-32
-35
-35
-34
-37
-36
-39
-39
-39
-41
-41
-45
-45
-49
-51
-54
-52
-53
-55
-57
-57
-60
-61
-63
-63
-63
-60
-58
-58
-55
-51
-47
-43
-39
-35
-32
-31
-28
-27
-26
-26
-25
-23
-23
-23
-25
-25
-26
-26
-25
-23
-23
-24
-23
-25
-25
-25
-27
-23
-23
-23
-25
-28
-27
-25
-23
-22
-23
-22
-25
-25
-25
-26
-25
-25
-23
-22
-21
-19
-14
-11
-8
-5
-2
-2
-3
0
5
7
9
9
9
5
4
-1
-6
-9
-17
-19
-26
-25
-28
-31
-34
-36
-35
-35
-35
-37
-40
-37
-38
-37
-36
-36
-37
-37
-38
-43
-50
-58
-62
-59
-51
-25
25
91
149
175
163
125
86
52
25
5
-9
-23
-31
-36
-38
-40
-40
-41
-42
-41
-43
-45
-42
-43
-44
-44
-47
-42
-43
-43
-42
-43
-43
-43
-42
-41
-43
-44
-42
-45
-47
-47
-49
-49
-52
-53
-53
-55
-57
-59
-60
-59
-63
-63
-65
-65
-67
-69
-67
-65
-63
-59
-53
-53
-47
-44
-41
-39
-39
-33
-31
-32
-32
-33
-31
-31
-28
-27
-29
-27
-27
-27
-29
-30
-28
-29
-27
-27
-28
-29
-29
-29
-29
-27
-27
-25
-29
-29
-28
-29
-27
-27
-27
-27
-28
-31
-29
-27
-27
-25
-25
-19
-16
-15
-10
-5
-4
-4
-2
3
7
7
7
7
8
7
5
1
-4
-13
-17
-21
-25
-28
-28
-28
-31
-33
-35
-37
-35
-36
-35
-35
-36
-36
-37
-37
-36
-36
-38
-45
-57
-59
-61
-53
-40
-3
49
111
159
165
140
103
66
37
20
4
-8
-22
-29
-33
-35
-36
-37
-37
-38
-39
-39
-40
-39
-36
-37
-37
-36
-36
-38
-37
-35
-35
-35
-35
-35
-36
-41
-37
-36
-37
-39
-41
-40
-43
-43
-45
-47
-47
-48
-49
-51
-53
-56
-57
-57
-57
-57
-58
-55
-57
-55
-51
-49
-45
-41
-37
-35
-32
-27
-29
-27
-23
-22
-21
-20
-21
-21
-21
-22
-20
-19
-19
-19
-22
-19
-19
-19
-19
-21
-19
-19
-19
-19
-21
-19
-19
-19
-17
-18
-18
-19
-19
-19
-19
-18
-17
-16
-16
-17
-15
-13
-10
-5
-1
4
5
5
6
7
9
12
15
15
15
15
16
12
9
4
0
-3
-9
-14
-17
-19
-21
-21
-21
-21
-22
-25
-25
-25
-25
-26
-25
-23
-23
-23
-26
-27
-31
-40
-47
-51
-50
-45
-28
20
81
143
180
173
143
101
68
41
27
10
-1
-13
-19
-25
-26
-27
-28
-29
-28
-27
-27
-27
-28
-29
-28
-27
-27
-27
-27
-27
-26
-28
-27
-27
-27
-27
-27
-27
-28
-29
-29
-31
-32
-31
-32
-36
-39
-41
-41
-40
-42
-44
-44
-48
-50
-52
-51
-51
-47
-47
-45
-42
-39
-35
-32
-28
-25
-22
-19
-19
-17
-18
-16
-15
-14
-14
-13
-15
-14
-14
-14
-13
-13
-12
-11
-13
-13
-14
-15
-13
-13
-12
-11
-13
-13
-15
-15
-11
-14
-12
-12
-14
-11
-15
-14
-14
-13
-11
-10
-9
-7
-3
3
5
10
12
12
10
12
15
17
18
17
20
19
15
12
5
1
-3
-7
-10
-13
-14
-15
-17
-19
-21
-21
-23
-19
-21
-21
-23
-25
-22
-21
-19
-19
-22
-27
-35
-42
-47
-47
-43
-20
28
95
159
189
180
140
101
64
40
23
7
-4
-13
-17
-20
-21
-22
-25
-25
-26
-24
-25
-25
-25
-24
-25
-25
-25
-24
-27
-23
-23
-23
-25
-28
-26
-27
-25
-26
-27
-27
-27
-31
-31
-31
-33
-35
-37
-38
-41
-43
-45
-47
-46
-47
-47
-47
-49
-51
-49
-47
-43
-39
-36
-32
-32
-28
-25
-22
-17
-17
-20
-15
-15
-15
-14
-11
-13
-12
-13
-13
-11
-12
-13
-13
-11
-11
-11
-11
-12
-12
-13
-14
-13
-12
-11
-12
-13
-12
-13
-13
-13
-11
-11
-11
-11
-12
-13
-11
-9
-7
-3
1
7
7
9
12
12
15
15
20
17
20
20
20
17
13
11
7
0
-6
-9
-8
-13
-16
-15
-17
-18
-20
-22
-22
-21
-20
-19
-21
-21
-20
-21
-21
-20
-25
-31
-40
-45
-49
-48
-34
5
69
135
185
187
159
119
81
55
33
20
5
-6
-17
-19
-22
-23
-23
-23
-23
-25
-25
-26
-27
-26
-25
-25
-25
-24
-26
-27
-25
-25
-25
-26
-25
-25
-28
-27
-28
-28
-31
-31
-30
-32
-38
-37
-40
-41
-43
-44
-44
-45
-49
-51
-53
-51
-51
-51
-50
-49
-47
-45
-42
-39
-35
-29
-27
-23
-23
-21
-19
-17
-15
-15
-14
-14
-14
-18
-15
-15
-15
-14
-13
-13
-15
-15
-13
-15
-15
-15
-14
-12
-15
-16
-17
-15
-17
-15
-14
-15
-15
-18
-17
-17
-17
-15
-13
-13
-12
-13
-10
-5
-2
2
5
6
7
6
7
9
12
14
15
14
13
10
7
4
-1
-6
-8
-13
-17
-23
-22
-21
-23
-24
-28
-27
-28
-28
-27
-28
-27
-27
-26
-25
-27
-27
-31
-39
-47
-51
-53
-47
-32
8
73
140
183
188
156
111
73
44
24
11
-3
-14
-21
-26
-28
-31
-32
-35
-33
-31
-31
-32
-36
-35
-34
-33
-34
-34
-32
-32
-31
-33
-34
-33
-36
-34
-34
-34
-35
-37
-39
-37
-39
-41
-42
-45
-47
-50
-51
-53
-55
-55
-55
-55
-58
-60
-61
-59
-58
-56
-54
-49
-47
-45
-45
-37
-33
-30
-29
-29
-25
-25
-23
-23
-24
-23
-22
-19
-20
-23
-22
-23
-23
-20
-20
-21
-20
-21
-22
-23
-20
-21
-21
-21
-20
-22
-23
-23
-21
-21
-22
-21
-20
-23
-22
-22
-26
-22
-21
-17
-17
-17
-11
-4
-3
1
4
4
4
7
12
12
12
12
12
8
5
0
-7
-13
-18
-19
-21
-23
-25
-27
-27
-28
-27
-31
-31
-31
-33
-32
-32
-33
-33
-33
-37
-35
-36
-44
-54
-61
-56
-49
-26
21
85
142
174
169
135
97
63
37
15
0
-13
-24
-28
-32
-34
-35
-36
-36
-39
-38
-36
-39
-39
-37
-36
-36
-40
-39
-39
-37
-35
-37
-36
-39
-39
-41
-41
-43
-40
-39
-41
-42
-47
-47
-47
-49
-51
-51
-52
-55
-59
-60
-63
-63
-63
-61
-60
-60
-61
-59
-57
-52
-49
-45
-41
-37
-35
-31
-31
-28
-27
-26
-24
-25
-27
-26
-28
-25
-26
-28
-25
-27
-26
-25
-27
-25
-25
-23
-23
-27
-26
-27
-27
-26
-25
-23
-23
-25
-26
-25
-25
-25
-24
-23
-23
-23
-24
-25
-23
-19
-15
-5
-7
-4
-3
-1
-1
0
4
6
11
12
10
10
7
6
5
-3
-9
-15
-21
-23
-25
-27
-29
-28
-31
-31
-34
-33
-35
-35
-33
-33
-33
-33
-34
-33
-35
-36
-45
-50
-56
-53
-47
-28
15
78
138
173
167
133
92
54
32
13
-3
-13
-27
-29
-33
-34
-36
-39
-37
-37
-36
-37
-40
-38
-36
-35
-35
-35
-35
-35
-36
-35
-35
-35
-36
-35
-33
-34
-37
-39
-40
-40
-39
-39
-39
-41
-43
-45
-47
-50
-51
-51
-51
-54
-59
-57
-57
-57
-55
-58
-52
-53
-49
-45
-42
-37
-34
-29
-27
-27
-26
-25
-22
-21
-18
-17
-19
-19
-21
-19
-20
-18
-18
-17
-17
-17
-18
-17
-18
-18
-15
-15
-18
-18
-18
-17
-17
-15
-16
-15
-15
-13
-17
-17
-18
-15
-11
-13
-12
-13
-12
-9
-3
1
5
9
9
12
9
10
14
17
20
21
20
17
13
12
7
2
-2
-7
-11
-14
-17
-17
-20
-19
-18
-19
-20
-22
-23
-25
-23
-21
-19
-19
-23
-20
-21
-25
-32
-41
-45
-45
-43
-28
9
71
140
181
183
150
109
71
45
28
11
1
-7
-13
-19
-20
-23
-19
-23
-22
-21
-23
-23
-24
-25
-24
-23
-22
-22
-21
-20
-21
-25
-23
-20
-21
-21
-20
-20
-24
-24
-25
-27
-27
-27
-28
-31
-32
-33
-35
-36
-37
-39
-41
-42
-44
-46
-45
-44
-42
-40
-36
-35
-32
-31
-27
-23
-19
-15
-12
-12
-13
-11
-11
-6
-9
-7
-7
-9
-7
-10
-10
-9
-9
-7
-7
-8
-9
-9
-9
-11
-9
-8
-7
-9
-9
-9
-9
-9
-9
-7
-7
-9
-9
-10
-9
-9
-7
-6
-5
-4
-3
0
4
8
12
17
15
15
15
20
22
21
23
24
25
23
19
14
8
4
-1
-3
-5
-10
-12
-14
-15
-15
-15
-15
-15
-16
-17
-18
-17
-16
-15
-11
-15
-15
-19
-26
-35
-42
-44
-42
-31
9
68
135
183
191
165
121
84
53
35
20
5
-5
-12
-14
-16
-19
-19
-22
-23
-23
-21
-19
-21
-20
-21
-23
-21
-20
-20
-20
-19
-19
-19
-22
-20
-20
-20
-21
-21
-21
-24
-26
-27
-28
-28
-28
-35
-33
-35
-37
-39
-44
-43
-43
-43
-44
-47
-47
-47
-44
-41
-39
-33
-31
-28
-25
-22
-19
-15
-13
-10
-10
-10
-10
-11
-10
-9
-7
-5
-7
-8
-9
-9
-9
-7
-6
-7
-7
-4
-8
-7
-9
-7
-2
-4
-7
-7
-7
-6
-8
-7
-7
-6
-4
-7
-7
-9
-8
-7
-5
-3
-3
1
4
9
11
15
17
17
20
21
21
22
23
25
24
23
20
15
9
3
0
-2
-5
-7
-4
-10
-13
-15
-15
-11
-15
-13
-15
-15
-18
-15
-15
-15
-12
-13
-19
-26
-35
-41
-43
-39
-19
28
93
160
196
189
156
117
81
53
33
20
5
-3
-10
-13
-15
-15
-17
-17
-23
-18
-18
-17
-17
-21
-16
-17
-20
-19
-18
-16
-15
-15
-15
-16
-18
-17
-19
-17
-17
-19
-20
-23
-26
-27
-27
-27
-28
-31
-35
-37
-37
-40
-39
-39
-41
-41
-43
-41
-38
-36
-34
-27
-22
-19
-17
-19
-14
-9
-8
-5
-5
-5
-4
-6
-6
-5
-3
-2
-3
-3
-4
-5
-5
-5
-3
-2
-2
-3
-4
-5
-5
-4
-3
-2
-1
-5
-4
-5
-5
-3
-3
-2
-5
-5
-4
-7
-6
-1
0
3
7
12
15
15
17
20
21
23
23
26
25
25
28
25
23
20
15
7
4
0
-5
-5
-7
-9
-11
-13
-12
-15
-14
-13
-12
-12
-14
-15
-15
-13
-13
-14
-15
-28
-32
-39
-42
-37
-21
30
97
164
199
194
161
119
84
56
39
23
9
-3
-11
-15
-15
-15
-16
-17
-21
-21
-20
-20
-19
-17
-18
-15
-21
-21
-19
-21
-19
-19
-19
-19
-22
-23
-25
-25
-23
-23
-28
-27
-29
-31
-31
-33
-35
-37
-36
-39
-45
-45
-44
-45
-45
-44
-44
-47
-46
-43
-39
-34
-31
-26
-20
-18
-17
-15
-14
-11
-10
-9
-9
-9
-10
-11
-9
-8
-7
-7
-8
-9
-5
-9
-7
-8
-7
-5
-8
-9
-11
-10
-9
-8
-6
-7
-6
-8
-11
-10
-9
-8
-7
-7
-9
-9
-8
-9
-7
-3
-1
4
5
7
11
12
15
17
20
23
25
25
24
25
28
23
21
14
10
7
0
-5
-8
-9
-10
-13
-14
-15
-17
-17
-17
-17
-15
-17
-15
-17
-18
-17
-17
-19
-26
-33
-41
-45
-40
-31
1
58
126
181
198
173
134
93
61
41
25
10
-2
-12
-18
-21
-17
-18
-19
-21
-25
-25
-24
-22
-20
-19
-18
-19
-19
-21
-21
-19
-19
-19
-21
-20
-20
-23
-23
-23
-23
-23
-24
-27
-28
-31
-33
-34
-35
-36
-35
-39
-41
-43
-43
-43
-44
-47
-45
-43
-41
-37
-37
-31
-25
-20
-18
-15
-13
-12
-13
-9
-4
-5
-5
-5
-8
-7
-7
-7
-5
-5
-6
-6
-5
-7
-6
-7
-4
-3
-5
-4
-7
-5
-5
-3
-3
-5
-4
-1
-5
-5
-6
-5
0
-5
-6
-5
-4
-4
-2
3
5
9
13
15
17
17
21
23
28
31
31
31
29
29
28
24
21
12
7
1
-1
-5
-6
-6
-9
-11
-13
-15
-15
-14
-14
-13
-12
-11
-10
-14
-15
-15
-16
-23
-28
-36
-39
-35
-23
7
57
124
173
191
172
134
95
65
44
29
15
2
-6
-13
-15
-15
-15
-14
-17
-17
-18
-19
-18
-17
-15
-15
-14
-15
-14
-16
-20
-15
-13
-13
-12
-12
-15
-15
-17
-17
-18
-17
-18
-19
-22
-26
-26
-27
-27
-27
-30
-32
-34
-35
-36
-37
-37
-33
-34
-34
-31
-31
-24
-21
-17
-13
-10
-9
-8
-7
-4
-2
1
1
1
1
0
4
1
2
1
3
4
1
1
0
3
4
4
4
1
1
1
1
4
4
4
1
1
1
-1
1
1
4
4
2
3
2
3
3
5
7
12
16
20
23
25
27
29
33
33
36
36
36
37
33
31
29
28
21
15
9
6
4
3
4
4
1
-1
-3
-5
-3
-3
-4
-3
-2
-3
-5
-6
-5
-3
-6
-13
-21
-27
-31
-30
-19
15
73
136
188
193
167
128
92
65
45
31
15
5
0
-5
-6
-7
-5
-8
-9
-9
-11
-10
-9
-9
-7
-7
-7
-9
-9
-9
-8
-7
-7
-7
-8
-9
-10
-11
-10
-10
-11
-13
-15
-15
-20
-21
-21
-22
-23
-28
-29
-28
-31
-31
-33
-31
-31
-31
-31
-31
-27
-23
-18
-15
-11
-7
-5
-7
-3
-3
0
1
4
3
1
1
2
3
5
4
4
4
3
1
1
1
3
4
5
4
4
5
1
1
1
4
5
1
0
1
1
1
3
4
3
3
0
1
3
5
9
12
15
20
21
23
24
26
27
30
32
30
31
29
29
28
24
21
13
6
4
0
-1
1
-2
-5
-7
-9
-6
-11
-9
-10
-9
-8
-9
-10
-11
-10
-8
-11
-13
-23
-31
-37
-37
-27
5
68
137
188
197
172
128
87
59
42
29
15
4
-5
-9
-11
-11
-11
-13
-12
-14
-14
-15
-15
-13
-13
-12
-12
-13
-11
-15
-13
-13
-13
-13
-12
-15
-18
-17
-15
-17
-17
-19
-20
-22
-25
-27
-27
-28
-28
-31
-35
-37
-39
-39
-39
-39
-39
-39
-36
-36
-34
-29
-24
-21
-17
-10
-12
-11
-11
-8
-3
-5
-5
-7
-7
-5
-6
-5
-4
-5
-5
-5
-7
-7
-7
-5
-4
-5
-5
-5
-7
-7
-6
-5
-4
-6
-6
-7
-7
-7
-7
-6
-4
-5
-6
-7
-7
-3
-6
-3
0
5
12
12
13
15
15
19
21
23
23
22
23
23
21
20
15
9
2
-3
-7
-9
-11
-9
-12
-14
-14
-18
-17
-17
-17
-17
-17
-17
-18
-19
-19
-19
-18
-19
-25
-35
-43
-47
-50
-31
11
77
145
188
180
143
100
65
39
21
7
-5
-15
-21
-20
-22
-23
-23
-25
-27
-27
-28
-27
-26
-25
-25
-27
-26
-27
-27
-27
-26
-26
-26
-27
-29
-29
-30
-28
-31
-34
-31
-35
-37
-39
-43
-43
-43
-45
-47
-51
-52
-53
-53
-52
-55
-54
-55
-52
-52
-50
-46
-40
-35
-32
-28
-27
-25
-24
-21
-19
-17
-15
-17
-18
-19
-19
-17
-17
-15
-17
-17
-19
-19
-19
-19
-17
-19
-18
-17
-18
-18
-19
-15
-14
-16
-15
-15
-17
-18
-18
-17
-15
-15
-15
-17
-17
-17
-15
-14
-11
-7
-5
0
1
4
7
6
9
11
12
13
13
13
12
13
12
5
0
-3
-11
-14
-18
-17
-20
-21
-22
-25
-25
-26
-23
-23
-23
-25
-27
-27
-26
-25
-24
-25
-31
-39
-49
-53
-53
-47
-21
32
101
161
186
166
127
87
53
32
14
1
-10
-20
-25
-29
-27
-27
-28
-30
-34
-29
-28
-29
-28
-28
-28
-29
-29
-31
-32
-28
-29
-29
-28
-29
-31
-32
-31
-31
-31
-31
-34
-37
-39
-39
-41
-42
-45
-44
-49
-53
-54
-55
-55
-55
-55
-55
-57
-56
-54
-51
-49
-41
-37
-33
-32
-32
-29
-26
-23
-22
-21
-19
-21
-20
-21
-19
-19
-18
-17
-17
-19
-21
-19
-19
-20
-17
-18
-19
-20
-20
-19
-20
-19
-17
-17
-17
-19
-20
-21
-19
-17
-17
-21
-19
-19
-20
-19
-23
-17
-14
-13
-9
-4
-3
1
3
6
7
9
12
12
13
11
13
12
5
2
-5
-9
-13
-17
-19
-19
-22
-19
-25
-27
-27
-27
-27
-27
-28
-28
-31
-33
-31
-29
-26
-28
-37
-43
-53
-57
-57
-50
-21
31
101
164
188
170
129
85
53
28
12
-2
-15
-23
-27
-30
-28
-30
-32
-34
-37
-35
-35
-33
-32
-35
-34
-35
-34
-36
-34
-32
-33
-33
-34
-35
-39
-36
-35
-37
-39
-43
-41
-43
-44
-44
-47
-49
-51
-53
-56
-58
-57
-59
-59
-61
-61
-60
-60
-59
-55
-51
-47
-43
-39
-35
-33
-32
-28
-28
-25
-23
-25
-24
-25
-23
-23
-23
-25
-21
-23
-23
-25
-28
-23
-20
-20
-22
-24
-23
-24
-22
-22
-23
-22
-22
-23
-23
-23
-23
-23
-20
-22
-23
-23
-23
-23
-22
-21
-20
-17
-18
-13
-12
-5
-1
1
4
1
4
7
7
9
9
12
15
9
4
-3
-11
-17
-18
-21
-23
-25
-29
-31
-33
-31
-31
-32
-33
-33
-34
-37
-35
-35
-34
-32
-32
-36
-46
-54
-60
-61
-54
-35
12
73
140
174
169
129
87
51
23
3
-7
-23
-31
-32
-34
-39
-36
-39
-39
-41
-41
-41
-39
-39
-39
-40
-39
-39
-36
-36
-37
-37
-39
-39
-39
-41
-40
-41
-40
-41
-43
-44
-45
-47
-49
-49
-51
-51
-52
-56
-58
-59
-63
-59
-59
-60
-61
-66
-60
-55
-49
-47
-42
-39
-38
-35
-31
-31
-27
-25
-24
-23
-23
-25
-23
-21
-23
-23
-25
-25
-25
-24
-22
-21
-19
-21
-23
-23
-23
-23
-21
-21
-20
-23
-22
-23
-23
-21
-21
-23
-20
-22
-23
-23
-25
-21
-21
-15
-12
-9
-6
-3
0
3
4
5
7
12
12
11
13
15
11
8
4
-2
-11
-15
-19
-20
-22
-25
-27
-28
-31
-31
-31
-30
-31
-31
-33
-36
-32
-32
-31
-31
-39
-43
-54
-59
-55
-46
-28
11
69
131
172
172
141
101
65
37
17
0
-12
-23
-29
-32
-31
-31
-34
-33
-35
-32
-33
-32
-32
-32
-31
-31
-33
-32
-31
-32
-31
-31
-30
-32
-35
-32
-32
-31
-31
-33
-35
-36
-38
-39
-41
-41
-43
-44
-47
-49
-51
-51
-51
-50
-51
-51
-53
-51
-49
-45
-41
-37
-33
-31
-28
-27
-25
-23
-20
-15
-17
-18
-15
-17
-16
-15
-11
-15
-15
-16
-17
-19
-15
-14
-14
-15
-12
-15
-15
-15
-12
-12
-13
-13
-12
-15
-15
-15
-13
-12
-13
-13
-15
-15
-15
-13
-12
-9
-5
-3
1
4
7
10
12
13
13
16
21
17
20
18
17
17
9
4
-4
-9
-13
-15
-16
-17
-19
-21
-20
-23
-23
-21
-20
-20
-22
-23
-23
-23
-23
-21
-20
-25
-31
-43
-47
-51
-47
-28
13
75
140
177
173
140
94
60
36
17
4
-7
-19
-22
-23
-23
-26
-25
-27
-25
-27
-28
-27
-26
-25
-27
-27
-27
-27
-25
-25
-23
-25
-26
-27
-27
-27
-27
-27
-27
-28
-31
-31
-35
-35
-37
-37
-37
-41
-43
-46
-47
-48
-51
-47
-47
-47
-48
-50
-45
-41
-35
-31
-28
-27
-25
-24
-21
-19
-16
-14
-14
-16
-16
-15
-15
-15
-13
-13
-13
-14
-15
-15
-15
-12
-13
-13
-12
-14
-15
-14
-13
-13
-13
-14
-9
-15
-15
-17
-15
-11
-12
-13
-15
-13
-14
-15
-11
-9
-5
-1
3
5
7
9
11
12
13
15
15
14
15
15
15
12
6
1
-5
-11
-15
-17
-17
-17
-19
-22
-21
-25
-23
-23
-23
-23
-23
-27
-25
-25
-25
-24
-29
-32
-43
-51
-52
-49
-31
13
80
149
188
180
141
95
61
35
20
5
-9
-19
-23
-25
-25
-26
-27
-27
-27
-30
-28
-27
-27
-27
-27
-27
-28
-29
-29
-31
-26
-26
-25
-27
-31
-30
-29
-28
-31
-31
-32
-35
-37
-39
-41
-41
-41
-45
-47
-50
-52
-53
-53
-51
-51
-51
-51
-49
-44
-39
-33
-29
-27
-26
-23
-23
-21
-18
-15
-15
-15
-13
-17
-17
-18
-15
-13
-15
-15
-17
-17
-17
-17
-15
-15
-15
-14
-15
-15
-17
-15
-14
-15
-15
-17
-17
-17
-17
-15
-15
-13
-15
-17
-15
-15
-11
-8
-3
1
3
5
5
6
7
12
15
15
15
17
12
12
7
4
1
-9
-12
-17
-19
-21
-20
-21
-23
-25
-26
-27
-27
-26
-25
-25
-24
-26
-27
-27
-26
-27
-32
-42
-51
-53
-51
-33
15
82
149
188
180
147
105
67
41
24
7
-5
-18
-23
-31
-29
-30
-30
-28
-31
-32
-32
-32
-32
-32
-31
-31
-31
-31
-33
-33
-32
-31
-31
-32
-32
-33
-35
-36
-36
-37
-33
-39
-43
-45
-48
-47
-49
-50
-52
-55
-59
-61
-59
-59
-58
-61
-57
-55
-52
-48
-43
-39
-34
-30
-28
-28
-28
-26
-23
-20
-21
-21
-21
-23
-23
-22
-21
-20
-21
-21
-21
-23
-22
-22
-21
-19
-21
-21
-23
-22
-23
-23
-23
-20
-21
-21
-21
-27
-23
-22
-21
-20
-25
-19
-21
-20
-18
-13
-6
-3
-1
0
1
1
4
7
11
9
9
7
4
4
0
-3
-9
-15
-19
-22
-25
-27
-28
-29
-28
-31
-31
-32
-33
-32
-32
-33
-29
-28
-29
-31
-37
-35
-39
-47
-55
-58
-55
-41
5
73
148
188
177
135
87
47
24
9
-3
-16
-25
-32
-35
-37
-37
-35
-35
-35
-35
-36
-39
-39
-39
-36
-37
-35
-36
-36
-38
-39
-37
-36
-40
-39
-39
-41
-42
-45
-43
-42
-44
-47
-52
-52
-53
-55
-55
-58
-61
-61
-63
-65
-65
-63
-61
-59
-57
-55
-55
-51
-44
-40
-37
-32
-32
-29
-28
-29
-27
-26
-23
-25
-25
-27
-28
-25
-25
-23
-23
-27
-25
-26
-25
-26
-27
-25
-23
-25
-26
-28
-27
-25
-24
-22
-23
-21
-23
-25
-25
-25
-25
-24
-23
-24
-23
-22
-15
-12
-9
-6
-3
-1
-1
-1
0
5
13
12
12
8
5
3
-3
-9
-15
-18
-23
-25
-28
-31
-31
-33
-32
-33
-35
-36
-37
-37
-34
-34
-33
-35
-35
-36
-39
-45
-51
-57
-57
-51
-28
20
89
152
181
163
120
75
40
17
1
-13
-23
-35
-37
-39
-41
-41
-43
-40
-39
-41
-41
-42
-41
-39
-38
-38
-37
-36
-39
-41
-43
-41
-41
-40
-39
-42
-43
-45
-45
-47
-48
-47
-49
-51
-52
-56
-56
-57
-57
-59
-60
-63
-65
-70
-65
-63
-61
-58
-59
-51
-50
-46
-41
-39
-34
-31
-31
-31
-32
-30
-29
-27
-25
-25
-27
-27
-27
-27
-26
-27
-27
-26
-27
-27
-27
-22
-25
-25
-24
-26
-25
-27
-29
-26
-25
-27
-25
-25
-26
-27
-28
-26
-25
-23
-23
-22
-19
-14
-10
-6
0
1
1
0
3
5
9
12
13
12
9
5
1
-5
-13
-15
-21
-24
-28
-29
-29
-31
-31
-31
-31
-31
-33
-35
-35
-33
-33
-32
-36
-34
-39
-47
-55
-60
-55
-47
-27
17
83
144
177
168
133
89
55
29
9
-6
-17
-25
-29
-31
-33
-35
-36
-38
-37
-35
-34
-34
-35
-35
-36
-34
-33
-33
-33
-32
-33
-35
-39
-35
-33
-32
-32
-37
-37
-36
-39
-39
-39
-39
-41
-43
-45
-49
-51
-50
-51
-51
-53
-55
-55
-56
-53
-51
-47
-43
-38
-37
-32
-32
-25
-23
-20
-19
-20
-21
-20
-17
-18
-15
-16
-15
-16
-15
-16
-19
-15
-15
-15
-15
-13
-15
-16
-18
-14
-13
-13
-15
-16
-16
-16
-15
-15
-13
-11
-12
-15
-13
-13
-13
-11
-10
-7
-4
0
4
8
12
13
12
11
15
17
17
20
20
20
21
13
9
4
-1
-3
-9
-11
-13
-15
-19
-21
-21
-21
-19
-21
-21
-21
-20
-21
-21
-21
-19
-19
-22
-29
-36
-45
-46
-41
-23
15
79
134
167
164
135
100
69
47
27
13
5
-7
-13
-17
-18
-22
-21
-21
-23
-23
-24
-21
-20
-22
-23
-23
-23
-23
-21
-21
-19
-20
-21
-22
-23
-21
-21
-21
-23
-25
-25
-27
-27
-28
-29
-29
-32
-35
-38
-40
-41
-41
-40
-41
-43
-42
-40
-43
-36
-33
-29
-26
-25
-19
-18
-15
-14
-11
-10
-11
-10
-11
-10
-9
-7
-6
-7
-7
-7
-9
-10
-7
-7
-6
-7
-7
-7
-9
-9
-6
-7
-7
-7
-8
-7
-9
-8
-7
-6
-3
-7
-7
-8
-7
-3
-3
-1
2
7
12
13
15
17
20
20
21
23
23
24
24
24
22
20
14
7
1
-3
-6
-7
-9
-11
-11
-15
-14
-16
-15
-14
-15
-15
-17
-18
-18
-16
-15
-15
-17
-26
-32
-41
-45
-43
-28
9
71
138
185
193
164
121
79
52
32
17
4
-7
-13
-16
-17
-17
-17
-19
-19
-21
-21
-20
-18
-19
-21
-20
-21
-21
-19
-18
-18
-19
-19
-19
-21
-24
-19
-20
-21
-23
-27
-27
-28
-30
-29
-33
-32
-34
-37
-41
-44
-42
-42
-43
-43
-45
-43
-41
-39
-35
-30
-25
-21
-19
-17
-17
-14
-13
-9
-9
-9
-10
-9
-11
-9
-9
-7
-4
-9
-10
-9
-9
-6
-7
-7
-8
-7
-7
-10
-9
-9
-8
-7
-7
-7
-10
-8
-9
-9
-7
-7
-7
-8
-8
-9
-7
-3
0
4
9
11
13
13
15
17
20
22
21
23
23
20
20
17
13
12
1
-3
-9
-11
-10
-13
-13
-14
-16
-19
-19
-17
-17
-17
-17
-17
-17
-18
-19
-18
-19
-25
-34
-43
-44
-45
-30
11
77
146
187
184
153
107
73
47
30
17
5
-7
-12
-21
-18
-19
-19
-19
-25
-21
-23
-22
-23
-21
-20
-19
-21
-21
-24
-21
-21
-19
-19
-21
-22
-22
-23
-23
-23
-25
-27
-28
-31
-32
-32
-32
-35
-37
-38
-41
-43
-43
-44
-47
-46
-47
-43
-44
-42
-39
-38
-31
-24
-20
-19
-18
-15
-15
-15
-12
-10
-9
-10
-12
-11
-10
-11
-9
-8
-9
-11
-10
-11
-11
-11
-10
-9
-8
-10
-11
-13
-11
-12
-10
-10
-11
-9
-10
-11
-11
-11
-10
-6
-10
-9
-11
-8
-3
-2
5
9
12
11
12
13
14
20
21
20
20
17
14
13
10
7
3
-4
-7
-13
-14
-15
-15
-17
-18
-18
-21
-20
-21
-22
-21
-20
-19
-23
-23
-27
-23
-25
-32
-39
-50
-47
-41
-11
45
117
177
196
169
124
78
47
29
15
1
-11
-19
-24
-27
-27
-29
-28
-27
-28
-28
-30
-28
-25
-27
-26
-26
-27
-28
-30
-29
-28
-28
-30
-27
-30
-31
-32
-37
-35
-35
-34
-37
-39
-41
-45
-45
-47
-47
-47
-51
-55
-55
-56
-57
-55
-52
-50
-49
-47
-44
-40
-35
-31
-27
-25
-23
-23
-23
-22
-19
-17
-18
-19
-19
-20
-20
-21
-19
-19
-23
-21
-20
-20
-21
-22
-18
-19
-17
-19
-21
-20
-21
-22
-21
-20
-20
-22
-23
-23
-24
-23
-21
-19
-19
-19
-17
-14
-10
-5
0
4
5
4
4
6
9
12
13
13
12
10
9
0
-6
-11
-15
-20
-20
-24
-27
-28
-31
-30
-31
-31
-32
-34
-33
-35
-33
-32
-32
-32
-36
-42
-51
-57
-57
-53
-41
-4
55
124
170
176
148
104
63
31
12
-2
-15
-23
-31
-34
-37
-39
-40
-43
-42
-41
-39
-39
-41
-41
-41
-40
-40
-40
-39
-40
-39
-41
-41
-40
-39
-39
-40
-40
-43
-44
-46
-47
-45
-48
-50
-53
-53
-55
-57
-57
-59
-59
-59
-61
-63
-65
-63
-61
-58
-59
-51
-48
-43
-43
-42
-36
-31
-28
-28
-29
-29
-28
-27
-25
-26
-25
-27
-27
-27
-27
-26
-25
-25
-25
-25
-26
-27
-25
-27
-25
-26
-25
-25
-27
-26
-27
-26
-25
-26
-25
-26
-31
-27
-27
-25
-23
-23
-18
-13
-11
-6
-2
-1
0
2
5
9
9
12
12
11
10
6
4
-5
-11
-17
-19
-21
-23
-25
-28
-31
-31
-33
-33
-31
-31
-32
-33
-34
-34
-33
-33
-32
-35
-43
-52
-60
-58
-49
-35
0
61
124
165
167
137
95
60
33
13
-1
-14
-25
-30
-31
-33
-32
-35
-35
-37
-37
-38
-36
-33
-33
-33
-33
-34
-34
-33
-31
-32
-32
-31
-33
-35
-35
-35
-38
-34
-34
-37
-39
-43
-41
-42
-43
-43
-48
-49
-51
-51
-53
-53
-51
-51
-53
-53
-51
-48
-44
-39
-37
-33
-30
-28
-25
-23
-21
-19
-13
-17
-17
-17
-17
-16
-15
-14
-13
-14
-11
-15
-15
-17
-14
-11
-13
-12
-14
-14
-13
-15
-13
-14
-14
-12
-15
-15
-17
-14
-13
-13
-13
-12
-13
-13
-13
-8
-3
1
3
7
9
9
12
13
16
20
20
20
17
15
12
10
7
0
-5
-7
-14
-15
-17
-17
-21
-18
-19
-21
-22
-23
-21
-21
-18
-19
-21
-20
-21
-22
-23
-28
-37
-45
-44
-43
-27
15
80
148
185
181
148
101
68
42
24
12
-1
-11
-18
-20
-23
-28
-22
-23
-21
-24
-27
-25
-25
-25
-23
-24
-23
-21
-23
-23
-25
-23
-21
-20
-21
-22
-25
-25
-27
-26
-27
-27
-28
-30
-31
-35
-35
-33
-36
-36
-39
-42
-43
-44
-44
-45
-43
-43
-41
-39
-35
-33
-33
-25
-21
-18
-17
-18
-14
-14
-14
-11
-9
-9
-9
-11
-11
-11
-11
-10
-9
-8
-9
-11
-11
-11
-10
-9
-7
-7
-9
-10
-9
-10
-9
-8
-7
-9
-9
-9
-11
-10
-9
-7
-3
-4
-3
-1
5
10
12
15
15
15
16
17
21
20
21
23
21
17
13
7
1
-3
-6
-7
-9
-12
-13
-15
-17
-17
-16
-17
-17
-19
-19
-19
-19
-19
-17
-15
-15
-19
-28
-35
-41
-44
-44
-32
5
68
135
185
196
169
126
84
53
32
15
2
-7
-12
-15
-19
-19
-20
-22
-23
-21
-22
-21
-22
-21
-24
-21
-23
-21
-20
-21
-21
-20
-23
-21
-22
-23
-23
-23
-23
-27
-31
-30
-31
-31
-31
-35
-37
-37
-41
-42
-43
-43
-43
-44
-46
-47
-47
-45
-42
-37
-32
-30
-27
-25
-22
-19
-16
-13
-11
-10
-13
-13
-12
-12
-12
-9
-8
-8
-10
-9
-11
-11
-6
-9
-9
-9
-11
-7
-11
-9
-11
-9
-8
-9
-11
-11
-11
-10
-11
-9
-9
-9
-11
-10
-10
-7
-5
1
5
7
9
11
12
13
14
19
20
21
20
20
17
14
11
7
4
-5
-9
-13
-14
-17
-15
-17
-18
-19
-23
-22
-20
-19
-20
-21
-20
-21
-21
-21
-20
-25
-31
-41
-48
-47
-46
-29
20
92
161
191
175
132
87
52
32
15
4
-9
-19
-24
-26
-27
-27
-27
-27
-31
-28
-28
-29
-28
-31
-27
-29
-29
-28
-31
-30
-29
-28
-30
-32
-31
-33
-33
-34
-33
-32
-35
-35
-36
-39
-42
-45
-45
-46
-47
-50
-52
-56
-59
-59
-59
-56
-53
-53
-49
-47
-46
-39
-35
-31
-27
-28
-27
-27
-25
-23
-24
-22
-22
-22
-23
-25
-22
-22
-21
-19
-19
-19
-19
-20
-21
-22
-21
-20
-19
-21
-21
-23
-20
-22
-23
-20
-21
-23
-21
-21
-21
-21
-21
-18
-17
-15
-13
-7
-6
-1
0
4
4
4
5
8
12
13
13
13
10
7
0
-4
-10
-15
-19
-23
-26
-28
-29
-30
-29
-31
-32
-31
-31
-31
-33
-34
-34
-34
-32
-32
-36
-42
-49
-57
-59
-57
-39
-4
55
121
168
171
141
100
68
39
20
3
-13
-23
-31
-32
-33
-34
-35
-38
-39
-39
-39
-40
-39
-39
-39
-40
-41
-39
-39
-37
-36
-36
-36
-38
-41
-41
-39
-39
-41
-44
-45
-47
-47
-48
-51
-50
-50
-52
-55
-58
-59
-59
-60
-61
-60
-60
-62
-63
-59
-57
-52
-50
-45
-41
-41
-39
-37
-33
-29
-26
-25
-23
-26
-26
-26
-25
-25
-23
-24
-26
-27
-28
-28
-27
-23
-23
-27
-25
-27
-24
-25
-25
-23
-23
-23
-25
-27
-27
-25
-25
-25
-23
-23
-25
-26
-25
-25
-20
-16
-11
-5
-3
-1
0
0
4
7
12
12
12
11
9
9
7
4
-3
-11
-17
-25
-26
-27
-28
-28
-32
-32
-32
-35
-38
-39
-36
-34
-35
-35
-36
-37
-40
-41
-47
-53
-59
-57
-51
-38
-5
53
114
159
167
144
105
65
37
17
0
-11
-23
-28
-32
-37
-37
-42
-36
-36
-37
-37
-43
-41
-41
-39
-36
-37
-37
-37
-36
-37
-38
-35
-35
-34
-35
-37
-36
-39
-39
-39
-39
-40
-41
-43
-44
-47
-50
-49
-51
-53
-53
-55
-57
-59
-58
-57
-55
-53
-51
-49
-47
-43
-43
-35
-31
-28
-26
-27
-23
-23
-22
-21
-19
-17
-17
-17
-19
-19
-18
-17
-16
-16
-17
-17
-18
-18
-18
-17
-16
-15
-17
-17
-17
-18
-18
-17
-15
-15
-15
-15
-17
-18
-18
-14
-11
-13
-10
-9
-4
4
4
7
9
12
12
11
15
15
16
19
18
17
14
12
5
0
-5
-10
-11
-13
-15
-17
-20
-22
-23
-23
-18
-21
-21
-23
-24
-25
-23
-23
-20
-22
-27
-33
-43
-49
-50
-47
-28
7
68
133
175
175
143
105
69
41
23
8
-4
-14
-18
-21
-23
-24
-26
-27
-28
-27
-27
-27
-25
-25
-26
-27
-27
-27
-27
-25
-25
-25
-25
-25
-27
-27
-27
-25
-26
-31
-29
-29
-31
-32
-37
-33
-35
-36
-41
-43
-44
-45
-44
-45
-47
-47
-47
-47
-44
-42
-39
-35
-31
-28
-27
-25
-23
-20
-18
-15
-14
-14
-14
-13
-12
-13
-12
-12
-11
-12
-13
-9
-14
-13
-13
-10
-7
-11
-13
-13
-12
-11
-12
-10
-11
-11
-11
-13
-12
-12
-10
-9
-10
-9
-11
-11
-9
-5
1
4
9
9
12
12
12
16
20
20
21
20
20
14
13
12
7
0
-4
-9
-9
-13
-15
-15
-16
-17
-17
-21
-21
-21
-20
-19
-19
-19
-20
-20
-21
-21
-23
-28
-35
-42
-45
-43
-31
4
65
135
183
186
156
111
71
47
29
15
5
-5
-12
-17
-22
-23
-25
-22
-22
-21
-22
-26
-25
-25
-23
-23
-23
-20
-20
-22
-23
-25
-23
-21
-23
-21
-23
-25
-27
-27
-27
-27
-29
-29
-32
-33
-37
-39
-36
-41
-40
-41
-43
-47
-47
-47
-48
-47
-49
-42
-39
-36
-35
-36
-28
-25
-21
-17
-17
-15
-15
-13
-12
-10
-11
-10
-11
-12
-13
-12
-11
-10
-9
-11
-11
-11
-13
-10
-11
-9
-8
-9
-9
-11
-11
-11
-11
-9
-10
-10
-10
-11
-11
-11
-9
-5
-7
-5
-3
0
7
7
12
13
14
14
15
15
20
19
21
21
19
15
12
6
1
-3
-7
-9
-13
-13
-15
-20
-21
-19
-20
-20
-21
-21
-20
-23
-22
-21
-19
-21
-21
-29
-35
-43
-50
-49
-47
-24
24
92
158
191
181
143
103
69
44
27
12
-2
-12
-15
-19
-20
-22
-23
-26
-27
-27
-25
-25
-25
-27
-20
-27
-27
-27
-25
-25
-25
-25
-25
-27
-29
-28
-28
-27
-28
-34
-31
-34
-35
-38
-39
-38
-39
-43
-45
-48
-49
-50
-49
-50
-51
-51
-51
-53
-50
-47
-43
-39
-34
-31
-27
-27
-25
-22
-21
-18
-15
-17
-15
-15
-18
-17
-17
-15
-13
-15
-15
-12
-16
-15
-15
-14
-11
-13
-14
-17
-17
-15
-14
-14
-15
-15
-15
-17
-18
-18
-16
-15
-15
-15
-17
-16
-15
-13
-7
-3
1
4
5
5
7
7
10
13
15
13
15
13
12
13
6
4
-3
-8
-11
-18
-20
-21
-21
-23
-22
-22
-25
-27
-27
-27
-26
-24
-23
-26
-26
-27
-28
-30
-37
-44
-51
-54
-52
-33
12
81
148
188
183
147
100
65
39
21
7
-3
-15
-23
-27
-31
-35
-31
-31
-31
-31
-34
-33
-32
-33
-35
-35
-33
-33
-34
-33
-35
-35
-33
-32
-33
-35
-37
-38
-41
-41
-41
-41
-42
-41
-45
-45
-49
-51
-53
-53
-54
-57
-58
-60
-61
-60
-61
-61
-55
-54
-53
-51
-51
-44
-39
-35
-31
-31
-29
-27
-27
-25
-25
-23
-23
-23
-24
-25
-25
-25
-24
-23
-23
-23
-24
-23
-25
-23
-23
-19
-20
-20
-21
-23
-25
-25
-23
-21
-23
-27
-24
-27
-25
-24
-26
-21
-19
-18
-16
-11
-7
-5
-2
0
0
1
4
5
7
7
12
12
9
5
1
-5
-11
-15
-19
-20
-25
-26
-28
-31
-31
-32
-31
-31
-32
-33
-35
-35
-35
-36
-33
-32
-37
-39
-46
-55
-59
-57
-49
-27
20
83
144
172
163
128
89
55
32
11
-5
-15
-25
-31
-34
-35
-35
-37
-40
-41
-41
-39
-37
-38
-39
-41
-41
-39
-40
-39
-38
-38
-38
-39
-43
-41
-41
-41
-40
-43
-44
-45
-47
-49
-51
-51
-52
-53
-55
-59
-57
-59
-60
-62
-62
-64
-63
-63
-64
-60
-57
-53
-48
-45
-41
-39
-35
-35
-32
-31
-29
-26
-28
-29
-29
-30
-31
-27
-26
-25
-27
-31
-30
-27
-27
-25
-28
-28
-27
-27
-28
-29
-27
-27
-26
-25
-27
-28
-28
-27
-27
-26
-26
-28
-28
-28
-28
-26
-20
-17
-13
-13
-9
-7
-5
-3
-3
1
6
9
9
7
7
8
4
1
-5
-13
-21
-23
-28
-31
-33
-32
-31
-33
-36
-39
-39
-39
-36
-37
-37
-37
-39
-40
-41
-44
-52
-60
-62
-61
-52
-32
8
67
129
164
162
133
91
61
33
11
-1
-11
-26
-32
-36
-40
-45
-44
-43
-41
-42
-42
-43
-43
-43
-41
-41
-41
-40
-40
-41
-41
-42
-39
-40
-39
-38
-40
-41
-43
-43
-41
-41
-39
-45
-47
-49
-51
-52
-53
-52
-55
-56
-59
-59
-61
-61
-59
-60
-57
-55
-53
-51
-49
-45
-39
-35
-32
-31
-29
-27
-27
-26
-23
-21
-21
-21
-21
-20
-23
-22
-21
-20
-19
-19
-19
-19
-20
-21
-21
-20
-19
-19
-19
-19
-20
-21
-19
-19
-17
-21
-18
-18
-18
-18
-21
-15
-15
-15
-13
-11
-9
-3
1
5
9
8
9
9
12
13
15
17
17
15
13
9
3
0
-4
-9
-13
-15
-17
-19
-21
-21
-22
-20
-21
-23
-25
-28
-25
-23
-21
-20
-25
-23
-26
-32
-39
-46
-47
-44
-36
-8
45
111
165
183
165
129
91
62
38
23
7
-3
-11
-17
-19
-21
-23
-24
-26
-26
-25
-25
-25
-24
-25
-27
-27
-26
-25
-23
-23
-23
-28
-25
-25
-24
-22
-25
-25
-26
-27
-28
-31
-30
-29
-31
-32
-35
-37
-39
-41
-41
-42
-43
-45
-45
-45
-44
-43
-41
-37
-35
-31
-29
-26
-23
-20
-18
-15
-12
-11
-11
-11
-11
-9
-10
-9
-9
-9
-6
-11
-11
-10
-10
-7
-7
-9
-10
-9
-11
-10
-10
-8
-9
-9
-9
-11
-11
-9
-10
-7
-8
-8
-9
-11
-9
-8
-6
-3
-1
4
6
9
13
13
17
21
19
20
20
21
23
21
21
19
15
12
5
-1
-4
-7
-8
-10
-11
-13
-14
-15
-17
-17
-17
-14
-15
-14
-17
-17
-17
-17
-15
-14
-19
-29
-37
-42
-41
-35
-10
38
105
164
196
185
149
109
76
51
33
19
6
-1
-10
-14
-15
-14
-15
-18
-17
-19
-20
-21
-17
-17
-17
-18
-17
-18
-20
-19
-17
-17
-17
-17
-19
-19
-19
-19
-21
-19
-20
-21
-24
-27
-28
-28
-28
-32
-36
-35
-38
-39
-41
-43
-39
-40
-40
-39
-39
-37
-32
-28
-24
-21
-17
-16
-14
-13
-11
-8
-6
-5
-4
-5
-5
-5
-6
-5
-5
-3
-4
-5
-5
-5
-5
-3
-3
-1
-4
-3
-2
-5
-4
-5
-2
0
-3
-5
-6
-5
-3
-5
-1
-3
-2
-1
-3
-1
-1
5
9
13
17
18
20
20
21
25
28
29
28
29
27
24
22
20
15
10
4
0
-5
-5
-6
-7
-7
-11
-11
-9
-14
-12
-12
-11
-7
-9
-11
-13
-13
-13
-15
-21
-28
-34
-39
-35
-23
13
77
148
193
198
169
125
85
59
40
28
15
5
-4
-9
-11
-13
-12
-13
-13
-13
-15
-15
-17
-13
-14
-12
-13
-13
-11
-15
-16
-15
-12
-12
-13
-13
-15
-15
-19
-17
-19
-19
-21
-21
-26
-27
-28
-31
-31
-32
-34
-35
-39
-39
-43
-39
-39
-39
-36
-33
-31
-28
-25
-19
-17
-11
-10
-5
-7
-5
-2
-3
-1
-1
1
4
-1
-2
-2
-1
-1
-1
-1
-3
-3
-4
-2
-1
-1
-1
0
1
-1
-2
-2
-3
-1
0
0
-1
-3
-2
-3
-2
-2
-1
-1
-1
-1
0
3
9
17
17
21
20
21
23
23
27
29
27
27
28
24
20
15
12
5
4
-2
-4
-9
-11
-13
-13
-13
-13
-14
-15
-15
-16
-15
-15
-12
-12
-13
-15
-16
-21
-26
-33
-39
-39
-40
-19
24
92
159
199
191
153
108
69
44
26
13
1
-7
-13
-15
-18
-20
-22
-22
-21
-20
-21
-19
-21
-23
-23
-23
-21
-19
-19
-21
-21
-23
-23
-23
-23
-22
-21
-22
-25
-28
-29
-30
-27
-28
-35
-36
-37
-39
-42
-45
-43
-44
-44
-46
-47
-49
-51
-50
-47
-43
-39
-35
-31
-27
-25
-22
-19
-15
-14
-14
-13
-12
-13
-11
-9
-10
-11
-13
-13
-12
-13
-11
-10
-11
-11
-11
-10
-12
-13
-12
-9
-7
-11
-13
-15
-15
-15
-14
-13
-12
-13
-11
-13
-14
-14
-13
-13
-11
-9
-6
-3
1
5
8
9
12
12
15
17
20
21
21
21
20
17
13
6
1
-1
-6
-9
-14
-17
-23
-22
-23
-22
-22
-24
-21
-21
-23
-23
-25
-24
-22
-21
-21
-27
-37
-45
-51
-49
-42
-23
17
77
143
184
182
149
108
71
44
23
7
-5
-15
-20
-25
-27
-27
-28
-29
-31
-35
-31
-30
-28
-30
-32
-31
-29
-31
-31
-31
-28
-28
-28
-31
-31
-32
-32
-31
-32
-31
-32
-36
-39
-41
-41
-41
-42
-44
-49
-50
-51
-51
-51
-53
-51
-52
-53
-53
-53
-47
-45
-45
-37
-35
-31
-29
-29
-24
-23
-19
-19
-20
-19
-19
-17
-17
-18
-15
-15
-15
-17
-19
-19
-19
-21
-21
-19
-18
-17
-18
-17
-19
-18
-15
-17
-17
-17
-20
-21
-20
-21
-18
-18
-17
-19
-19
-19
-17
-18
-10
-5
-4
-1
4
3
5
7
10
13
15
15
15
16
16
15
12
5
-1
-9
-14
-17
-19
-21
-23
-25
-26
-27
-28
-28
-28
-29
-29
-28
-27
-28
-30
-31
-31
-31
-37
-47
-51
-53
-50
-39
-17
35
97
152
173
157
121
81
49
28
12
-2
-15
-25
-29
-31
-33
-32
-32
-33
-34
-35
-35
-35
-35
-33
-31
-30
-32
-32
-32
-33
-32
-31
-31
-29
-31
-36
-32
-35
-36
-35
-38
-36
-36
-39
-41
-45
-44
-44
-46
-47
-49
-51
-54
-55
-55
-54
-54
-53
-52
-51
-47
-45
-41
-35
-32
-28
-27
-26
-26
-23
-23
-21
-21
-21
-21
-21
-21
-21
-19
-20
-19
-19
-23
-19
-21
-21
-20
-21
-17
-17
-18
-19
-22
-21
-19
-19
-19
-19
-19
-18
-21
-21
-19
-18
-19
-17
-19
-19
-18
-15
-11
-5
0
3
4
4
4
5
9
12
13
13
13
12
12
5
4
-1
-7
-9
-17
-21
-23
-23
-27
-26
-27
-25
-28
-31
-30
-30
-28
-27
-29
-27
-28
-28
-32
-34
-41
-49
-56
-57
-52
-43
-6
48
117
167
175
142
101
61
33
15
5
-10
-21
-25
-31
-37
-35
-33
-32
-33
-35
-35
-35
-35
-37
-35
-33
-32
-33
-33
-34
-35
-35
-33
-31
-31
-32
-32
-35
-37
-37
-37
-37
-39
-41
-41
-44
-45
-49
-49
-49
-51
-51
-53
-56
-57
-58
-59
-52
-51
-49
-47
-47
-41
-37
-32
-30
-28
-26
-25
-25
-25
-25
-23
-20
-20
-21
-23
-22
-23
-22
-21
-19
-19
-22
-21
-23
-21
-23
-21
-19
-21
-21
-21
-22
-23
-21
-21
-19
-23
-21
-21
-20
-20
-23
-19
-19
-18
-19
-19
-12
-9
-5
0
5
5
4
3
5
9
11
13
12
11
7
5
0
-5
-10
-13
-17
-21
-21
-25
-27
-27
-28
-27
-27
-28
-30
-31
-28
-29
-27
-27
-31
-29
-31
-35
-44
-52
-55
-52
-48
-23
32
101
158
180
157
113
73
41
21
4
-7
-17
-22
-27
-28
-31
-32
-32
-32
-32
-31
-31
-33
-33
-32
-33
-32
-31
-30
-31
-31
-32
-37
-33
-33
-31
-31
-35
-32
-35
-37
-39
-39
-39
-41
-41
-44
-49
-49
-51
-51
-51
-52
-53
-55
-57
-57
-54
-52
-48
-45
-41
-36
-37
-31
-28
-27
-24
-24
-22
-23
-23
-21
-21
-23
-19
-18
-19
-20
-25
-21
-19
-19
-19
-19
-19
-19
-20
-19
-21
-19
-19
-18
-19
-19
-21
-21
-21
-19
-18
-19
-20
-20
-21
-19
-18
-15
-17
-14
-9
-8
-3
0
3
5
6
6
7
9
10
12
15
12
9
5
1
-3
-11
-15
-17
-19
-23
-22
-24
-27
-27
-29
-27
-27
-28
-27
-27
-28
-28
-29
-27
-27
-29
-37
-47
-52
-58
-56
-48
-23
28
95
156
175
156
111
70
39
20
4
-11
-21
-28
-31
-30
-31
-33
-34
-37
-35
-35
-33
-32
-32
-33
-34
-35
-35
-34
-33
-32
-35
-35
-37
-37
-36
-38
-38
-39
-36
-36
-43
-45
-48
-47
-47
-49
-52
-55
-58
-62
-60
-60
-59
-60
-65
-63
-62
-57
-55
-51
-44
-43
-39
-36
-37
-33
-29
-27
-25
-26
-25
-27
-28
-27
-25
-25
-25
-25
-25
-28
-28
-27
-25
-25
-23
-23
-25
-26
-25
-25
-24
-23
-24
-25
-25
-27
-31
-27
-25
-25
-26
-30
-26
-25
-25
-21
-23
-18
-15
-10
-7
-5
-2
-1
-2
4
4
5
5
5
7
5
4
1
-5
-11
-19
-22
-26
-25
-28
-31
-31
-33
-37
-36
-38
-35
-39
-35
-34
-35
-36
-39
-36
-36
-40
-48
-59
-63
-60
-53
-27
28
100
159
182
161
121
79
46
23
7
-7
-22
-31
-35
-37
-38
-37
-35
-39
-41
-41
-41
-41
-41
-39
-39
-39
-41
-39
-41
-41
-41
-44
-39
-41
-41
-43
-44
-44
-45
-42
-43
-46
-49
-51
-52
-55
-57
-57
-59
-60
-64
-63
-65
-65
-64
-63
-63
-63
-60
-58
-53
-47
-43
-41
-36
-36
-35
-33
-32
-28
-26
-25
-27
-31
-29
-27
-26
-25
-29
-25
-27
-27
-29
-28
-27
-27
-26
-24
-25
-25
-26
-27
-28
-25
-26
-27
-27
-26
-27
-27
-26
-24
-23
-23
-25
-25
-26
-22
-18
-13
-9
-5
-3
-3
0
5
5
11
12
11
13
9
7
4
1
-3
-9
-13
-19
-25
-28
-28
-31
-31
-31
-31
-35
-36
-37
-35
-36
-34
-35
-37
-37
-39
-43
-49
-58
-59
-55
-47
-20
31
96
149
167
145
108
68
36
12
0
-13
-23
-28
-35
-41
-41
-40
-39
-42
-41
-41
-41
-43
-43
-43
-43
-41
-41
-41
-40
-41
-43
-41
-41
-39
-39
-41
-42
-42
-44
-47
-47
-47
-47
-48
-53
-55
-57
-58
-59
-57
-63
-60
-63
-65
-66
-67
-62
-59
-55
-52
-51
-47
-43
-41
-36
-35
-33
-31
-30
-31
-31
-29
-28
-27
-27
-27
-27
-27
-28
-27
-26
-27
-23
-27
-27
-29
-27
-27
-26
-26
-25
-27
-31
-28
-27
-25
-26
-28
-26
-28
-27
-27
-27
-25
-23
-21
-23
-20
-15
-11
-9
-3
-2
-1
-2
-1
4
5
9
9
9
7
4
0
-5
-11
-15
-18
-23
-25
-27
-29
-32
-31
-31
-31
-31
-31
-32
-37
-33
-33
-31
-30
-34
-35
-41
-51
-57
-59
-52
-42
-15
38
101
156
171
150
111
72
44
22
5
-9
-19
-25
-27
-28
-32
-33
-35
-35
-35
-35
-32
-32
-32
-32
-33
-32
-31
-33
-28
-29
-28
-32
-34
-31
-31
-29
-31
-32
-32
-33
-35
-35
-38
-36
-36
-39
-41
-43
-44
-47
-46
-47
-47
-49
-49
-50
-51
-47
-43
-37
-36
-33
-31
-28
-27
-24
-21
-17
-17
-18
-18
-17
-17
-15
-18
-12
-12
-16
-15
-13
-16
-15
-14
-13
-12
-15
-15
-15
-16
-15
-14
-13
-13
-15
-17
-15
-15
-13
-13
-13
-12
-13
-14
-13
-12
-10
-7
-5
0
1
6
7
12
13
13
15
21
20
20
17
20
20
15
8
3
-5
-10
-11
-13
-14
-15
-17
-18
-21
-21
-21
-20
-19
-17
-19
-20
-21
-22
-21
-19
-21
-29
-37
-44
-47
-45
-27
17
80
144
185
185
152
113
76
52
32
17
5
-9
-18
-21
-21
-24
-22
-23
-23
-25
-28
-26
-25
-23
-23
-21
-21
-23
-24
-23
-23
-24
-22
-21
-23
-24
-25
-25
-25
-25
-25
-26
-28
-33
-33
-35
-35
-35
-37
-39
-41
-43
-48
-46
-45
-44
-44
-47
-43
-41
-37
-32
-31
-25
-23
-21
-19
-20
-17
-14
-15
-11
-12
-13
-11
-12
-13
-13
-11
-11
-11
-11
-13
-12
-13
-11
-11
-11
-10
-11
-13
-12
-13
-11
-7
-11
-11
-13
-13
-9
-13
-11
-11
-9
-9
-11
-11
-11
-7
-2
1
5
7
12
12
12
13
17
19
21
21
20
20
17
15
12
7
-1
-5
-11
-13
-14
-15
-15
-17
-18
-23
-21
-20
-20
-19
-23
-19
-19
-19
-22
-22
-23
-28
-36
-43
-49
-47
-41
-13
39
108
167
193
175
135
89
56
34
20
5
-5
-16
-20
-22
-25
-23
-23
-23
-24
-27
-26
-27
-27
-26
-23
-23
-25
-28
-26
-26
-25
-24
-26
-23
-25
-26
-28
-30
-28
-28
-31
-31
-35
-35
-36
-39
-42
-42
-45
-45
-48
-49
-50
-51
-51
-51
-50
-46
-44
-42
-39
-35
-29
-27
-23
-21
-19
-19
-19
-21
-14
-12
-14
-13
-11
-15
-16
-15
-15
-12
-13
-13
-13
-16
-14
-14
-12
-11
-13
-13
-13
-15
-15
-14
-13
-12
-13
-14
-15
-15
-13
-13
-13
-11
-12
-13
-11
-8
-3
1
5
12
9
9
8
11
17
17
19
17
17
16
13
7
3
-2
-5
-12
-15
-18
-21
-20
-21
-21
-23
-23
-25
-26
-25
-25
-23
-23
-23
-23
-25
-29
-35
-43
-50
-51
-47
-35
4
68
137
188
191
157
113
73
45
24
9
0
-13
-21
-23
-27
-31
-30
-28
-28
-29
-29
-28
-31
-31
-31
-29
-28
-27
-28
-29
-29
-31
-32
-31
-28
-29
-31
-32
-31
-35
-35
-37
-39
-39
-42
-43
-44
-53
-51
-51
-51
-53
-57
-55
-55
-56
-54
-52
-49
-44
-41
-37
-35
-31
-27
-25
-23
-20
-20
-19
-19
-18
-17
-17
-16
-16
-15
-17
-17
-17
-15
-15
-15
-15
-16
-17
-17
-17
-16
-13
-15
-15
-17
-17
-13
-18
-18
-17
-18
-13
-17
-17
-17
-15
-14
-13
-11
-9
-6
-3
-1
4
6
9
12
12
12
14
15
17
20
20
15
12
5
0
-4
-9
-13
-15
-17
-20
-22
-23
-25
-25
-27
-23
-25
-25
-27
-28
-27
-25
-23
-25
-31
-39
-48
-51
-49
-41
-14
38
108
167
191
171
133
92
61
36
17
1
-13
-21
-24
-27
-25
-28
-28
-30
-32
-32
-31
-28
-29
-28
-32
-29
-30
-30
-28
-30
-28
-28
-28
-31
-32
-32
-31
-31
-32
-33
-35
-36
-38
-41
-41
-41
-43
-47
-50
-49
-51
-51
-51
-51
-53
-54
-52
-50
-46
-39
-35
-32
-29
-27
-25
-24
-23
-18
-18
-18
-18
-21
-16
-16
-17
-15
-11
-15
-15
-17
-16
-16
-17
-15
-15
-15
-14
-15
-16
-17
-15
-15
-14
-15
-17
-17
-17
-15
-14
-15
-15
-17
-17
-15
-13
-11
-7
-1
1
4
5
6
9
16
15
20
20
20
21
17
17
13
12
5
-3
-8
-13
-15
-18
-18
-19
-20
-23
-25
-25
-25
-25
-23
-23
-23
-25
-25
-27
-28
-31
-33
-46
-49
-47
-41
-21
28
93
154
181
167
129
87
55
32
20
4
-9
-17
-23
-27
-27
-29
-29
-27
-28
-29
-28
-29
-31
-27
-28
-27
-26
-27
-27
-28
-28
-25
-25
-25
-27
-27
-28
-28
-29
-30
-28
-29
-32
-33
-36
-38
-39
-41
-41
-43
-48
-47
-47
-49
-49
-49
-44
-45
-42
-39
-36
-32
-27
-21
-21
-19
-15
-15
-15
-12
-11
-9
-10
-11
-11
-11
-11
-11
-10
-9
-10
-9
-10
-10
-11
-9
-8
-6
-8
-9
-10
-9
-7
-9
-7
-7
-8
-6
-9
-9
-9
-7
-5
-4
-6
-5
-4
3
7
12
15
17
20
19
20
21
24
25
28
29
29
26
21
20
15
9
5
0
-3
-7
-8
-8
-11
-10
-9
-11
-11
-13
-14
-8
-11
-10
-11
-11
-11
-17
-25
-33
-39
-39
-37
-27
4
60
128
181
197
173
132
89
60
37
21
9
0
-5
-8
-11
-12
-15
-15
-15
-14
-14
-15
-15
-15
-15
-14
-13
-11
-9
-11
-11
-12
-12
-9
-13
-11
-13
-13
-13
-18
-17
-18
-17
-19
-19
-21
-25
-26
-26
-27
-27
-28
-29
-30
-33
-32
-32
-30
-25
-23
-19
-18
-15
-13
-9
-6
-2
-1
-2
0
4
0
1
3
5
7
4
4
0
1
3
4
6
4
4
3
1
4
4
5
3
5
5
4
4
4
4
5
4
5
4
4
4
4
5
5
8
12
15
20
21
25
28
29
31
31
33
36
36
36
36
34
33
28
21
14
12
8
5
4
0
0
-2
-5
-5
-4
-3
-5
-5
-4
-7
-6
-5
-4
-3
-7
-13
-23
-31
-35
-31
-20
13
76
145
193
201
170
125
89
60
41
27
13
5
-3
-5
-6
-6
-7
-9
-10
-11
-10
-9
-7
-8
-9
-10
-9
-9
-8
-9
-7
-6
-8
-9
-9
-9
-11
-9
-10
-11
-13
-15
-16
-17
-17
-19
-20
-23
-27
-28
-28
-28
-29
-31
-28
-30
-31
-31
-28
-23
-19
-14
-11
-10
-8
-7
-3
-1
1
4
4
1
2
1
4
4
5
4
4
4
1
1
4
4
3
3
4
3
1
3
4
4
4
4
4
5
1
4
3
4
8
5
4
4
4
5
7
11
17
21
23
24
25
27
29
31
32
35
33
33
31
29
28
21
16
9
5
1
0
-1
-1
-3
-4
-5
-8
-9
-7
-3
-5
-5
-6
-5
-4
-7
-8
-12
-19
-29
-34
-33
-27
3
65
135
189
204
177
134
94
65
45
33
17
7
-2
-7
-8
-10
-8
-9
-9
-10
-11
-11
-12
-11
-11
-10
-9
-9
-11
-10
-11
-11
-6
-9
-9
-10
-10
-9
-12
-13
-14
-13
-17
-19
-21
-22
-24
-23
-26
-27
-28
-31
-32
-33
-35
-32
-31
-31
-28
-27
-24
-21
-15
-11
-7
-5
-3
-2
-2
0
1
4
4
4
5
3
4
4
4
7
4
4
1
0
1
0
4
4
3
4
1
1
0
0
1
4
2
3
2
1
1
1
1
4
1
1
2
4
7
13
20
21
23
22
21
24
30
30
31
32
30
31
24
21
17
12
9
4
0
-3
-4
-6
-8
-7
-8
-9
-11
-13
-12
-13
-11
-9
-10
-11
-11
-13
-17
-25
-31
-35
-36
-32
-13
36
102
167
201
192
151
108
71
44
30
20
5
-2
-9
-13
-19
-17
-19
-18
-19
-19
-18
-19
-21
-21
-19
-17
-18
-17
-19
-19
-21
-20
-19
-19
-20
-20
-20
-23
-23
-23
-25
-26
-29
-29
-31
-35
-37
-38
-39
-39
-41
-47
-47
-47
-47
-45
-48
-41
-38
-35
-32
-30
-26
-20
-17
-14
-13
-13
-12
-12
-13
-13
-10
-8
-11
-9
-12
-11
-11
-11
-11
-10
-10
-11
-13
-13
-13
-11
-11
-10
-10
-13
-12
-10
-13
-11
-11
-11
-7
-11
-12
-13
-13
-9
-11
-11
-11
-7
-3
0
5
9
12
12
12
12
17
19
21
22
20
17
13
9
5
0
-4
-5
-12
-15
-18
-18
-20
-20
-21
-21
-23
-23
-25
-27
-31
-27
-24
-22
-23
-28
-32
-41
-47
-47
-40
-22
20
85
150
187
181
145
102
64
36
17
3
-11
-17
-20
-24
-25
-27
-28
-31
-31
-31
-28
-29
-28
-31
-32
-31
-32
-28
-30
-33
-31
-31
-29
-30
-32
-28
-28
-30
-32
-35
-35
-37
-37
-36
-41
-42
-45
-47
-47
-47
-49
-50
-51
-53
-52
-52
-51
-49
-44
-41
-39
-33
-33
-31
-28
-26
-23
-20
-19
-19
-19
-19
-18
-18
-16
-15
-19
-15
-15
-19
-17
-17
-15
-17
-17
-18
-21
-19
-19
-17
-17
-15
-16
-17
-19
-19
-17
-15
-15
-15
-15
-18
-18
-19
-18
-17
-17
-12
-10
-6
-1
0
5
9
9
8
12
14
20
17
20
20
19
16
9
1
-7
-11
-13
-15
-18
-23
-25
-27
-29
-27
-27
-26
-27
-28
-28
-30
-29
-28
-29
-28
-33
-41
-51
-57
-53
-43
-17
30
97
149
172
153
114
76
49
25
7
-7
-17
-29
-29
-29
-30
-31
-33
-32
-35
-34
-33
-33
-31
-31
-32
-32
-32
-31
-31
-28
-29
-29
-28
-31
-31
-31
-29
-31
-31
-31
-35
-36
-37
-39
-40
-39
-41
-43
-47
-49
-49
-50
-49
-52
-51
-51
-51
-49
-47
-42
-37
-32
-30
-29
-25
-23
-20
-19
-17
-17
-16
-18
-18
-16
-15
-14
-15
-15
-15
-15
-15
-16
-14
-13
-13
-15
-16
-17
-15
-15
-13
-14
-13
-15
-15
-13
-16
-15
-12
-13
-9
-12
-13
-15
-13
-12
-11
-9
-5
-1
4
5
7
11
13
14
14
17
19
19
20
21
21
20
15
9
5
-2
-7
-9
-11
-13
-15
-17
-19
-19
-19
-20
-17
-18
-17
-19
-23
-21
-19
-17
-19
-24
-31
-43
-47
-45
-39
-17
33
97
159
186
172
132
92
61
37
21
6
-4
-13
-15
-17
-20
-21
-22
-21
-23
-25
-22
-21
-20
-21
-23
-21
-23
-21
-21
-22
-19
-19
-18
-21
-23
-21
-21
-19
-19
-23
-23
-25
-27
-27
-29
-29
-31
-31
-34
-37
-38
-39
-39
-39
-39
-39
-38
-39
-36
-32
-28
-25
-20
-19
-18
-15
-15
-12
-9
-7
-7
-4
-8
-7
-8
-7
-3
-5
-4
-7
-7
-7
-7
-6
-6
-5
-4
-7
-7
-9
-7
-6
-5
-5
-6
-6
-7
-7
-7
-6
-5
-5
-8
-6
-7
-5
-7
-5
-5
-1
1
4
8
15
15
20
20
21
23
21
25
24
28
28
23
19
15
9
4
-1
-4
-6
-9
-11
-12
-15
-16
-15
-12
-13
-14
-17
-16
-18
-17
-15
-15
-14
-17
-21
-28
-37
-42
-43
-40
-21
23
89
156
191
188
151
109
71
47
31
13
1
-8
-11
-12
-16
-17
-19
-20
-21
-21
-19
-18
-18
-19
-19
-19
-21
-19
-17
-17
-15
-18
-17
-18
-19
-19
-17
-18
-19
-21
-23
-25
-25
-26
-25
-31
-31
-32
-35
-36
-41
-38
-39
-39
-41
-41
-41
-40
-36
-32
-28
-25
-23
-19
-17
-17
-12
-10
-7
-7
-7
-7
-7
-7
-6
-6
-5
-4
-6
-6
-7
-6
-5
-6
-5
-6
-6
-6
-6
-7
-7
-5
0
-4
-5
-9
-7
-3
-5
-5
-5
-4
-5
-6
-7
-7
-5
-3
-5
-3
-5
-2
0
5
11
14
17
18
18
20
21
24
25
27
25
25
21
15
13
7
4
0
-3
-7
-7
-13
-13
-12
-13
-11
-13
-15
-17
-19
-17
-15
-15
-15
-13
-14
-17
-22
-31
-39
-43
-43
-37
-15
36
105
165
193
175
133
92
57
35
19
9
-1
-9
-13
-15
-17
-19
-21
-22
-19
-19
-19
-21
-25
-21
-21
-21
-19
-19
-19
-18
-19
-21
-21
-20
-19
-19
-21
-21
-23
-25
-25
-25
-27
-27
-30
-31
-35
-35
-39
-39
-39
-41
-42
-43
-44
-45
-45
-41
-39
-37
-34
-31
-27
-25
-25
-17
-15
-12
-11
-9
-11
-11
-11
-9
-7
-9
-10
-11
-11
-9
-9
-7
-9
-8
-10
-9
-10
-10
-10
-10
-9
-9
-11
-10
-11
-10
-10
-9
-7
-9
-11
-11
-11
-10
-10
-9
-4
-9
-9
-11
-9
-4
-2
4
5
9
12
12
11
12
17
19
21
20
18
17
15
13
9
4
-1
-7
-11
-13
-15
-15
-15
-17
-15
-22
-23
-23
-23
-23
-23
-21
-20
-23
-26
-23
-25
-28
-37
-47
-51
-52
-46
-17
41
113
174
192
169
125
84
49
27
15
1
-10
-19
-23
-27
-29
-27
-28
-29
-29
-31
-31
-31
-32
-31
-29
-31
-30
-31
-31
-30
-29
-28
-30
-30
-32
-32
-36
-35
-33
-33
-35
-39
-39
-41
-43
-45
-45
-44
-48
-50
-53
-55
-57
-58
-57
-55
-55
-54
-52
-50
-44
-38
-33
-31
-28
-27
-25
-27
-25
-24
-21
-19
-21
-21
-23
-20
-21
-22
-23
-19
-19
-21
-21
-27
-23
-22
-20
-20
-23
-21
-23
-21
-22
-22
-19
-19
-19
-21
-21
-21
-21
-21
-21
-20
-21
-23
-23
-25
-23
-22
-17
-17
-15
-13
-9
-4
-1
1
4
4
7
9
12
12
13
16
13
9
3
-3
-6
-14
-19
-22
-23
-27
-27
-28
-30
-28
-31
-31
-32
-31
-32
-35
-35
-35
-32
-31
-31
-34
-42
-53
-59
-58
-52
-31
20
84
150
181
166
132
92
55
29
15
-3
-17
-25
-33
-38
-35
-36
-36
-39
-40
-39
-36
-37
-37
-37
-36
-39
-39
-37
-37
-35
-35
-35
-36
-37
-38
-40
-39
-39
-36
-40
-39
-42
-45
-45
-47
-47
-48
-51
-52
-56
-62
-57
-59
-59
-61
-63
-60
-60
-59
-56
-51
-47
-44
-41
-39
-37
-33
-31
-27
-27
-26
-27
-27
-27
-26
-25
-23
-23
-23
-24
-25
-25
-24
-23
-23
-22
-23
-26
-27
-27
-27
-27
-26
-25
-24
-25
-27
-31
-27
-26
-23
-23
-26
-23
-25
-26
-24
-24
-25
-25
-23
-24
-23
-21
-14
-9
-6
-2
-2
-1
-3
0
4
9
12
11
12
8
7
5
1
-3
-11
-15
-21
-23
-27
-28
-30
-35
-33
-35
-37
-37
-43
-37
-37
-35
-35
-37
-37
-37
-41
-47
-55
-61
-60
-55
-41
-5
53
118
158
159
128
84
47
21
5
-9
-18
-27
-32
-35
-38
-40
-39
-39
-38
-37
-36
-41
-41
-41
-39
-37
-39
-35
-35
-37
-38
-39
-36
-35
-35
-35
-36
-36
-38
-39
-39
-39
-39
-39
-41
-44
-46
-47
-49
-50
-51
-52
-52
-55
-57
-57
-56
-54
-53
-51
-49
-44
-42
-39
-35
-31
-27
-26
-28
-23
-23
-23
-20
-23
-18
-19
-20
-19
-21
-19
-19
-17
-18
-19
-19
-19
-19
-19
-18
-18
-17
-17
-18
-18
-18
-17
-17
-16
-16
-17
-18
-18
-19
-17
-15
-15
-15
-17
-16
-17
-13
-15
-12
-10
-8
-1
-1
1
4
7
12
12
11
14
16
17
16
20
17
15
12
5
-1
-7
-11
-13
-12
-15
-18
-19
-19
-23
-22
-23
-23
-21
-21
-23
-24
-23
-22
-21
-20
-21
-29
-38
-47
-53
-48
-36
-1
57
124
172
183
158
117
79
52
31
15
1
-9
-17
-21
-21
-22
-23
-25
-25
-26
-25
-26
-23
-23
-23
-23
-23
-23
-23
-21
-21
-19
-21
-22
-22
-23
-23
-22
-25
-21
-23
-25
-28
-32
-28
-29
-31
-32
-35
-38
-39
-39
-41
-41
-41
-40
-42
-43
-42
-41
-37
-32
-26
-25
-22
-21
-17
-15
-12
-11
-7
-11
-10
-10
-10
-10
-9
-7
-9
-8
-5
-9
-9
-9
-8
-5
-7
-8
-9
-9
-7
-9
-7
-7
-7
-8
-9
-9
-9
-9
-8
-8
-7
-9
-9
-10
-10
-9
-7
-6
-9
-7
-7
-6
-3
3
9
12
15
15
15
15
18
21
25
25
25
25
20
17
11
7
5
-1
-7
-9
-11
-13
-13
-12
-15
-15
-17
-19
-19
-19
-17
-17
-16
-18
-17
-18
-18
-23
-28
-36
-42
-43
-39
-19
31
97
161
191
175
140
97
61
37
24
9
-1
-10
-15
-21
-19
-21
-21
-21
-20
-19
-21
-21
-21
-22
-21
-18
-19
-19
-21
-21
-20
-20
-19
-17
-19
-21
-22
-23
-23
-25
-21
-25
-27
-29
-30
-33
-35
-35
-37
-37
-41
-41
-45
-43
-45
-46
-42
-39
-38
-35
-34
-29
-27
-23
-18
-17
-14
-13
-14
-11
-10
-9
-7
-7
-8
-9
-10
-8
-9
-8
-8
-7
-7
-9
-9
-9
-9
-6
-8
-6
-9
-9
-10
-9
-9
-9
-7
-5
-9
-9
-11
-9
-4
-7
-7
-9
-9
-9
-10
-7
-7
-3
1
4
8
12
13
15
15
17
20
23
23
23
23
21
19
17
13
7
0
-3
-9
-9
-9
-11
-13
-15
-16
-21
-18
-17
-17
-17
-21
-19
-19
-18
-18
-17
-17
-23
-32
-43
-47
-47
-37
-2
55
126
179
190
165
124
81
53
31
15
4
-9
-12
-18
-20
-19
-18
-19
-22
-23
-23
-21
-22
-21
-19
-21
-21
-21
-25
-20
-21
-19
-19
-22
-21
-21
-23
-23
-23
-23
-25
-26
-27
-31
-32
-32
-32
-35
-36
-39
-42
-45
-44
-45
-45
-45
-44
-45
-43
-41
-36
-33
-29
-25
-23
-21
-18
-17
-15
-13
-6
-9
-10
-11
-11
-9
-11
-10
-11
-11
-10
-13
-13
-13
-11
-9
-9
-9
-11
-13
-13
-13
-11
-11
-9
-13
-11
-13
-13
-13
-11
-11
-11
-13
-12
-14
-13
-11
-10
-10
-9
-7
-3
-2
2
5
12
15
13
12
13
15
19
20
21
20
15
11
5
1
-5
-6
-11
-13
-16
-19
-20
-23
-22
-21
-20
-24
-24
-25
-25
-25
-25
-24
-23
-24
-25
-28
-36
-47
-51
-49
-44
-17
37
111
169
191
170
128
85
49
28
9
-5
-14
-22
-25
-27
-29
-31
-33
-33
-32
-31
-32
-31
-32
-31
-32
-32
-31
-29
-29
-28
-28
-31
-31
-31
-31
-31
-32
-33
-35
-36
-36
-39
-42
-41
-42
-45
-47
-53
-49
-51
-51
-53
-56
-57
-57
-56
-55
-52
-50
-47
-45
-43
-39
-37
-33
-30
-27
-24
-23
-23
-23
-22
-20
-20
-15
-19
-19
-19
-21
-21
-21
-20
-19
-19
-21
-19
-19
-21
-21
-25
-20
-19
-19
-20
-23
-22
-20
-19
-19
-20
-17
-20
-21
-22
-22
-20
-19
-17
-18
-20
-21
-19
-15
-9
-5
0
4
4
3
5
7
12
14
15
13
13
11
7
7
1
-5
-7
-15
-20
-23
-26
-29
-27
-27
-27
-29
-31
-31
-31
-31
-31
-31
-28
-28
-31
-31
-34
-39
-49
-55
-57
-49
-31
18
89
152
179
161
116
75
44
20
5
-6
-17
-25
-30
-33
-39
-35
-35
-33
-35
-39
-37
-37
-35
-35
-35
-33
-32
-32
-34
-35
-35
-35
-33
-32
-31
-34
-33
-34
-36
-37
-38
-37
-39
-41
-41
-45
-43
-49
-50
-49
-51
-52
-54
-55
-57
-57
-57
-53
-51
-50
-49
-49
-42
-37
-31
-28
-27
-25
-24
-23
-23
-22
-19
-17
-18
-20
-19
-19
-19
-20
-18
-17
-17
-18
-19
-19
-18
-17
-18
-18
-17
-18
-18
-21
-19
-19
-18
-17
-18
-17
-19
-19
-19
-21
-17
-15
-15
-15
-19
-17
-15
-13
-9
-3
0
4
5
6
9
12
14
17
20
20
18
17
17
15
12
7
0
-7
-10
-14
-17
-17
-18
-19
-19
-22
-23
-25
-23
-23
-23
-27
-23
-23
-23
-24
-27
-23
-27
-37
-44
-50
-47
-39
-11
39
106
161
183
164
121
79
49
30
15
4
-9
-17
-21
-21
-24
-21
-22
-21
-25
-25
-25
-25
-23
-21
-21
-21
-20
-20
-21
-21
-20
-18
-22
-18
-20
-20
-22
-23
-19
-21
-21
-24
-25
-27
-29
-28
-28
-31
-32
-33
-35
-38
-39
-39
-39
-39
-38
-39
-36
-33
-31
-27
-23
-21
-18
-13
-12
-13
-9
-7
-6
-5
-6
-6
-3
-6
-5
-5
-3
1
-2
-3
-4
-5
-2
-3
-2
-3
-2
-1
-3
-4
-5
-1
-3
-1
-1
-4
-3
-5
-3
-1
-2
0
-2
-3
-3
-3
-2
0
3
5
8
13
15
20
25
23
25
25
28
32
29
30
29
31
29
26
21
14
9
5
1
-1
-3
-5
-7
-9
-10
-11
-10
-11
-11
-11
-13
-13
-12
-13
-10
-10
-10
-15
-23
-33
-39
-38
-31
-3
52
119
175
196
173
133
91
62
41
25
13
1
-6
-9
-11
-10
-12
-15
-15
-15
-15
-15
-14
-15
-13
-15
-14
-14
-15
-13
-11
-10
-11
-12
-13
-13
-12
-12
-13
-13
-15
-17
-18
-19
-20
-21
-22
-27
-25
-27
-28
-32
-35
-32
-32
-32
-35
-35
-34
-32
-28
-25
-24
-19
-16
-15
-13
-10
-7
-5
-3
-1
-1
-1
-2
-1
0
0
1
0
0
-1
-3
-1
0
1
1
0
0
1
-1
-1
-1
0
4
-1
-1
-1
-2
1
0
1
1
0
0
-1
-2
-1
0
1
1
4
4
7
12
15
21
23
25
24
24
28
30
32
33
33
33
28
25
21
15
12
7
5
0
-1
-1
-7
-6
-6
-7
-3
-7
-10
-11
-11
-8
-9
-7
-9
-9
-11
-15
-22
-30
-35
-36
-34
-21
20
80
149
194
199
167
128
87
61
39
24
12
3
-3
-7
-11
-13
-15
-14
-10
-13
-12
-13
-14
-11
-15
-12
-13
-11
-11
-13
-13
-15
-12
-12
-13
-13
-12
-15
-17
-19
-19
-19
-19
-21
-23
-25
-28
-31
-30
-32
-32
-35
-35
-36
-39
-39
-39
-36
-33
-32
-29
-25
-23
-19
-15
-9
-9
-7
-4
-5
-2
-5
-3
-2
-1
-1
-3
-3
-5
-3
-3
-1
-2
-1
-2
-5
-5
-5
-4
-3
-2
-3
-3
-5
-6
-7
-4
-4
-3
-3
-4
-5
-5
-5
-4
-5
-5
-1
-4
-5
-5
0
7
9
13
14
17
17
17
17
21
25
29
27
28
23
21
20
15
9
4
0
-4
-9
-10
-11
-11
-13
-13
-15
-17
-21
-19
-19
-18
-17
-15
-17
-17
-21
-17
-21
-25
-32
-43
-43
-41
-23
28
101
168
199
183
141
95
61
39
22
9
-3
-13
-17
-20
-23
-23
-23
-23
-23
-25
-25
-25
-26
-26
-25
-23
-23
-24
-25
-27
-27
-27
-27
-25
-27
-27
-28
-32
-30
-31
-28
-31
-36
-37
-39
-41
-43
-45
-45
-44
-48
-50
-53
-52
-54
-53
-51
-51
-50
-47
-45
-42
-37
-32
-28
-27
-25
-22
-21
-20
-21
-19
-15
-15
-17
-18
-17
-17
-17
-13
-15
-12
-17
-18
-21
-19
-18
-18
-17
-18
-17
-19
-19
-19
-19
-17
-16
-17
-17
-18
-19
-19
-20
-18
-15
-17
-17
-20
-19
-17
-17
-9
-9
-3
-2
1
1
3
5
9
12
17
14
15
13
13
15
8
4
-4
-9
-11
-17
-19
-20
-23
-25
-25
-27
-28
-31
-31
-30
-31
-32
-32
-33
-35
-32
-31
-31
-35
-43
-52
-59
-56
-47
-20
31
97
156
181
161
115
73
40
18
3
-6
-21
-28
-32
-33
-36
-35
-37
-37
-39
-41
-39
-39
-36
-35
-37
-37
-36
-37
-37
-34
-34
-35
-34
-37
-38
-39
-39
-39
-39
-41
-43
-43
-47
-48
-49
-49
-52
-52
-55
-57
-59
-63
-59
-58
-58
-58
-62
-59
-58
-55
-51
-47
-41
-37
-34
-33
-32
-29
-27
-23
-25
-25
-27
-27
-27
-25
-24
-24
-25
-26
-27
-27
-27
-23
-23
-23
-25
-25
-27
-27
-27
-25
-24
-23
-23
-24
-25
-27
-31
-27
-27
-25
-25
-27
-26
-26
-25
-25
-23
-21
-18
-15
-10
-7
-4
-2
-1
0
4
7
9
8
12
9
9
5
0
-7
-15
-21
-20
-24
-26
-29
-33
-34
-35
-35
-35
-37
-39
-37
-36
-37
-39
-41
-39
-38
-38
-44
-51
-61
-66
-61
-51
-28
17
78
135
164
153
119
84
48
23
4
-12
-25
-34
-37
-39
-39
-39
-41
-43
-45
-45
-44
-41
-41
-40
-42
-44
-42
-41
-40
-39
-42
-39
-39
-40
-41
-42
-42
-41
-41
-42
-45
-44
-47
-47
-49
-50
-50
-53
-54
-57
-59
-61
-59
-61
-60
-61
-61
-59
-60
-56
-50
-47
-43
-39
-37
-36
-34
-32
-30
-27
-26
-26
-31
-27
-27
-26
-25
-25
-23
-23
-23
-25
-25
-25
-23
-23
-24
-23
-25
-25
-25
-24
-23
-23
-23
-24
-23
-23
-25
-23
-23
-21
-21
-23
-23
-23
-23
-21
-21
-19
-18
-14
-13
-8
2
1
4
4
5
8
6
10
12
12
13
12
9
4
-1
-7
-13
-15
-17
-19
-21
-23
-25
-27
-27
-27
-25
-27
-27
-30
-28
-29
-25
-29
-27
-27
-29
-37
-45
-52
-57
-55
-49
-23
24
88
148
180
164
128
85
53
29
12
-3
-17
-22
-26
-25
-28
-31
-31
-31
-32
-30
-30
-28
-28
-31
-31
-31
-28
-28
-28
-26
-27
-28
-28
-28
-28
-27
-27
-27
-28
-31
-32
-33
-32
-34
-38
-37
-39
-41
-42
-46
-44
-45
-45
-47
-49
-50
-51
-50
-47
-43
-39
-37
-32
-31
-28
-26
-23
-19
-18
-17
-17
-18
-16
-15
-14
-13
-14
-13
-15
-15
-15
-15
-15
-14
-14
-15
-11
-15
-15
-15
-15
-11
-13
-13
-15
-15
-16
-15
-14
-14
-13
-13
-15
-15
-15
-15
-14
-13
-13
-13
-11
-11
-6
-1
5
9
8
12
12
11
13
17
20
21
20
17
13
10
7
1
-4
-9
-13
-17
-17
-19
-19
-19
-20
-21
-21
-23
-25
-26
-25
-23
-20
-21
-23
-22
-25
-31
-38
-46
-49
-49
-42
-17
36
105
165
188
169
128
85
52
32
16
2
-7
-15
-19
-24
-25
-27
-30
-27
-26
-25
-26
-30
-28
-27
-27
-26
-26
-25
-25
-26
-26
-27
-27
-25
-25
-25
-25
-27
-28
-31
-31
-31
-31
-34
-35
-38
-40
-43
-42
-45
-45
-47
-48
-51
-51
-51
-49
-46
-47
-43
-39
-37
-33
-33
-25
-22
-19
-19
-19
-20
-19
-17
-15
-15
-13
-15
-16
-16
-17
-15
-15
-15
-13
-15
-16
-15
-15
-15
-15
-14
-13
-16
-15
-17
-16
-15
-12
-13
-13
-16
-15
-17
-15
-15
-13
-10
-13
-12
-14
-12
-5
-3
4
7
9
9
7
9
12
15
20
20
20
15
13
8
5
0
-5
-11
-13
-17
-18
-19
-21
-19
-21
-22
-23
-25
-25
-25
-24
-24
-23
-22
-25
-28
-28
-32
-41
-49
-55
-53
-43
-11
47
118
174
191
168
124
81
49
28
13
0
-9
-18
-23
-26
-27
-28
-27
-27
-27
-27
-28
-28
-25
-29
-27
-25
-27
-27
-27
-27
-28
-28
-30
-28
-27
-28
-31
-35
-32
-32
-31
-33
-36
-39
-42
-43
-44
-46
-47
-48
-49
-52
-52
-56
-55
-53
-52
-49
-47
-43
-41
-37
-33
-29
-26
-23
-23
-22
-22
-19
-19
-17
-15
-17
-17
-18
-18
-19
-19
-21
-15
-15
-17
-17
-22
-19
-17
-16
-15
-18
-17
-18
-19
-19
-19
-17
-15
-19
-19
-17
-20
-19
-19
-17
-17
-17
-19
-19
-17
-14
-9
-5
0
1
4
4
4
6
9
13
14
15
13
12
8
5
4
-5
-11
-15
-19
-23
-25
-25
-24
-25
-27
-29
-27
-29
-28
-28
-27
-27
-27
-27
-28
-31
-33
-39
-47
-53
-55
-49
-39
4
69
141
189
191
156
108
68
39
20
6
-6
-17
-27
-28
-31
-32
-33
-35
-32
-33
-34
-33
-35
-33
-32
-31
-31
-32
-31
-33
-34
-34
-34
-33
-31
-33
-34
-35
-36
-36
-37
-37
-39
-41
-42
-45
-47
-49
-50
-51
-52
-54
-55
-56
-60
-57
-55
-53
-52
-55
-50
-46
-40
-35
-31
-27
-25
-25
-25
-24
-23
-21
-18
-19
-19
-19
-19
-19
-20
-21
-19
-19
-19
-21
-21
-21
-19
-18
-17
-17
-19
-19
-19
-17
-17
-17
-21
-17
-19
-19
-19
-23
-19
-18
-17
-17
-19
-18
-17
-15
-9
-3
1
5
5
5
5
8
15
18
20
17
16
15
12
9
5
1
-5
-11
-15
-21
-21
-23
-23
-23
-24
-25
-25
-27
-27
-25
-25
-28
-25
-26
-27
-27
-32
-39
-47
-53
-53
-47
-23
28
95
158
188
173
133
92
56
31
14
1
-11
-18
-23
-27
-28
-31
-31
-30
-31
-31
-31
-31
-32
-32
-31
-30
-32
-31
-32
-35
-31
-32
-28
-29
-31
-28
-31
-31
-33
-34
-33
-33
-34
-36
-42
-45
-47
-48
-47
-49
-51
-51
-50
-53
-54
-54
-51
-51
-49
-47
-46
-39
-36
-30
-26
-23
-20
-20
-21
-21
-19
-21
-17
-18
-19
-18
-22
-18
-17
-18
-15
-13
-15
-18
-18
-19
-17
-17
-15
-17
-17
-18
-17
-17
-18
-15
-13
-15
-15
-18
-18
-17
-17
-14
-15
-13
-15
-15
-14
-10
-4
0
5
6
12
9
10
15
21
22
23
23
21
21
14
12
5
0
-5
-9
-15
-18
-21
-20
-20
-21
-22
-23
-23
-25
-26
-24
-23
-23
-23
-25
-27
-28
-34
-42
-48
-47
-42
-29
4
61
128
174
180
149
109
69
44
23
7
-1
-15
-19
-22
-26
-28
-28
-29
-27
-25
-28
-27
-27
-27
-28
-27
-23
-23
-24
-25
-25
-25
-25
-23
-23
-23
-23
-21
-25
-27
-26
-26
-27
-28
-31
-31
-33
-38
-37
-38
-37
-39
-44
-42
-45
-43
-43
-43
-39
-36
-33
-31
-28
-25
-21
-17
-15
-12
-11
-10
-11
-10
-9
-7
-7
-7
-7
-7
-7
-7
-6
-5
-5
-4
-5
-8
-7
-7
-5
-5
-5
-4
-7
-6
-3
-6
-5
-5
-3
-2
-5
-6
-5
-5
-4
-3
-3
-2
0
4
8
13
17
20
21
21
21
23
28
28
29
29
28
25
20
15
10
5
4
-1
-3
-7
-8
-10
-9
-10
-5
-10
-11
-12
-13
-10
-13
-11
-11
-11
-9
-15
-20
-30
-38
-41
-36
-26
5
61
132
184
197
172
129
86
57
37
21
9
-1
-7
-11
-13
-15
-17
-18
-15
-15
-15
-15
-15
-13
-16
-16
-15
-15
-11
-14
-15
-15
-15
-12
-16
-13
-15
-15
-18
-17
-19
-21
-19
-20
-23
-25
-27
-28
-31
-32
-32
-32
-35
-37
-38
-39
-39
-38
-33
-31
-27
-25
-22
-19
-16
-11
-9
-7
-7
-7
-3
-7
-4
-5
-3
1
-3
-4
-6
-5
-4
-5
-3
-3
-3
-3
-5
-5
-3
-3
-3
-2
-4
-5
-3
-5
-3
-3
-3
-1
-3
-3
-5
-3
-3
-2
0
1
8
7
11
15
21
21
21
21
23
27
26
28
29
28
28
21
17
12
5
1
-1
-4
-5
-6
-10
-11
-13
-13
-11
-10
-12
-13
-15
-14
-14
-13
-12
-13
-14
-21
-28
-37
-41
-37
-27
7
68
135
187
201
175
137
95
65
44
28
15
0
-7
-13
-13
-15
-18
-17
-19
-19
-19
-17
-17
-17
-18
-18
-19
-19
-18
-17
-16
-15
-17
-19
-19
-18
-19
-19
-19
-21
-24
-25
-27
-27
-29
-27
-31
-36
-37
-38
-40
-40
-43
-41
-43
-43
-43
-45
-41
-38
-35
-31
-28
-24
-22
-19
-17
-15
-11
-9
-9
-9
-9
-9
-9
-7
-7
-7
-7
-8
-8
-9
-10
-7
-6
-7
-7
-9
-9
-5
-8
-7
-7
-8
-4
-9
-8
-9
-7
-4
-6
-7
-9
-8
-7
-7
-5
-2
2
5
9
12
13
14
15
19
21
22
23
21
21
20
20
15
9
5
-1
-5
-8
-9
-10
-11
-13
-13
-15
-17
-21
-17
-15
-15
-15
-19
-17
-17
-18
-19
-20
-27
-37
-45
-47
-44
-30
12
81
151
194
188
151
103
65
40
25
13
0
-9
-15
-18
-19
-19
-19
-18
-19
-21
-20
-21
-21
-20
-22
-20
-19
-21
-20
-25
-21
-18
-17
-19
-21
-21
-23
-23
-22
-25
-25
-26
-29
-32
-34
-33
-35
-36
-38
-41
-43
-46
-44
-46
-45
-45
-43
-43
-43
-39
-36
-33
-29
-25
-21
-18
-18
-15
-15
-15
-12
-7
-12
-11
-14
-13
-11
-13
-11
-11
-11
-11
-14
-13
-12
-13
-11
-11
-11
-13
-14
-13
-12
-11
-11
-10
-11
-10
-13
-14
-13
-13
-13
-11
-12
-13
-12
-6
-3
3
7
9
12
13
9
13
15
20
21
20
17
15
12
6
2
-2
-7
-11
-15
-18
-21
-21
-20
-21
-23
-22
-24
-25
-25
-25
-25
-23
-23
-22
-25
-23
-31
-37
-44
-48
-47
-36
4
70
142
193
197
164
117
79
52
29
13
0
-10
-19
-23
-28
-28
-31
-31
-31
-31
-31
-31
-32
-33
-32
-33
-31
-28
-30
-31
-31
-32
-32
-33
-31
-32
-31
-32
-35
-36
-39
-39
-37
-41
-41
-43
-46
-47
-51
-54
-53
-55
-55
-58
-61
-59
-58
-55
-52
-49
-46
-45
-43
-39
-36
-32
-27
-27
-27
-25
-25
-25
-25
-23
-21
-20
-21
-22
-23
-23
-23
-23
-21
-20
-21
-21
-21
-20
-20
-22
-21
-25
-23
-23
-25
-24
-25
-21
-21
-19
-21
-23
-23
-23
-20
-18
-17
-15
-11
-9
-5
-1
1
4
5
7
8
9
10
12
13
12
11
5
0
-7
-13
-16
-19
-22
-25
-27
-28
-34
-31
-31
-30
-31
-35
-33
-35
-35
-33
-32
-31
-35
-43
-52
-61
-61
-55
-41
-5
51
121
169
175
145
102
63
36
15
-1
-15
-26
-31
-32
-35
-35
-38
-37
-39
-38
-38
-38
-36
-38
-37
-39
-39
-43
-39
-39
-36
-36
-41
-40
-42
-41
-42
-41
-39
-39
-41
-45
-47
-49
-49
-47
-49
-51
-54
-58
-59
-60
-61
-59
-60
-60
-61
-59
-59
-55
-51
-47
-41
-39
-37
-36
-33
-31
-29
-31
-25
-25
-26
-27
-31
-27
-27
-25
-24
-25
-25
-25
-27
-25
-25
-23
-23
-23
-26
-26
-26
-25
-23
-24
-23
-23
-25
-25
-25
-24
-22
-19
-23
-22
-21
-19
-16
-10
-5
-1
1
4
2
4
5
12
17
14
14
13
13
13
5
1
-5
-10
-15
-19
-23
-23
-24
-25
-24
-26
-27
-28
-29
-28
-29
-28
-26
-25
-27
-28
-29
-35
-41
-49
-50
-47
-36
-13
34
99
156
183
174
137
97
61
36
20
5
-5
-17
-21
-23
-27
-29
-27
-27
-26
-26
-29
-28
-28
-29
-28
-25
-25
-23
-25
-25
-25
-25
-22
-23
-23
-22
-23
-23
-28
-25
-25
-27
-28
-28
-31
-33
-35
-40
-37
-36
-36
-39
-43
-43
-43
-43
-41
-39
-37
-33
-29
-27
-25
-21
-15
-15
-13
-11
-11
-11
-9
-9
-7
-5
-6
-6
-8
-8
-7
-7
-5
-4
-6
-6
-7
-7
-7
-7
-5
-3
-5
-6
-7
-7
-2
-5
-2
-4
-5
-3
-5
-6
-5
-3
0
4
7
12
13
15
17
21
21
23
25
24
25
25
27
25
22
20
13
5
0
-3
-5
-6
-7
-9
-11
-13
-13
-12
-13
-13
-10
-12
-14
-14
-13
-11
-12
-13
-17
-27
-36
-41
-39
-31
-5
53
123
177
191
165
122
83
55
37
23
7
-2
-9
-11
-12
-14
-13
-15
-15
-16
-18
-17
-15
-13
-15
-15
-15
-13
-15
-15
-16
-12
-10
-13
-12
-15
-15
-13
-15
-14
-15
-17
-19
-22
-22
-25
-25
-25
-27
-29
-33
-33
-34
-33
-32
-31
-32
-31
-33
-31
-27
-22
-17
-14
-13
-11
-9
-7
-5
-3
-1
0
-1
-1
1
-2
0
0
1
3
1
0
0
0
1
0
4
1
1
0
0
0
0
1
1
1
1
1
-1
0
1
4
4
5
5
9
12
17
21
25
28
28
28
28
29
32
36
33
33
30
28
25
17
13
7
5
4
0
-2
-5
-6
-6
-5
-6
-7
-7
-9
-9
-7
-6
-5
-5
-4
-7
-14
-23
-31
-34
-27
-21
7
63
132
187
205
183
143
102
70
49
33
20
9
4
-2
-5
-8
-8
-8
-10
-11
-10
-11
-9
-11
-11
-13
-11
-9
-8
-9
-9
-11
-11
-13
-11
-11
-10
-11
-11
-12
-17
-17
-17
-17
-19
-21
-23
-27
-28
-29
-28
-31
-31
-31
-37
-34
-35
-34
-32
-33
-22
-21
-17
-15
-11
-9
-5
-3
-1
-1
-3
-1
-2
-1
1
3
4
1
1
0
0
0
1
2
1
1
0
-1
-1
-2
0
1
1
0
-1
-2
1
0
0
0
1
2
-3
-1
1
6
12
15
20
20
20
21
21
24
28
29
29
30
29
28
27
21
20
13
5
0
-5
-7
-7
-6
-7
-9
-10
-13
-12
-12
-13
-11
-10
-11
-11
-13
-13
-21
-24
-31
-37
-39
-38
-23
22
92
164
206
199
161
116
78
52
31
19
7
-3
-11
-15
-18
-19
-20
-19
-19
-21
-23
-25
-26
-25
-23
-21
-21
-21
-20
-22
-23
-21
-20
-21
-25
-23
-25
-27
-28
-32
-28
-29
-31
-35
-40
-39
-39
-41
-42
-44
-46
-47
-49
-51
-50
-50
-47
-44
-42
-41
-36
-35
-31
-27
-23
-19
-14
-17
-15
-15
-15
-13
-12
-13
-14
-13
-11
-14
-13
-13
-11
-9
-14
-13
-15
-14
-13
-13
-11
-11
-14
-14
-15
-15
-15
-13
-13
-13
-14
-15
-15
-16
-13
-11
-9
-7
-5
-1
3
5
8
9
12
13
15
17
17
20
20
20
20
13
6
4
-4
-9
-13
-13
-19
-17
-21
-21
-23
-23
-23
-23
-23
-23
-26
-25
-27
-26
-25
-27
-33
-45
-53
-53
-44
-31
7
70
137
182
181
148
109
72
46
25
7
-7
-17
-23
-27
-31
-29
-31
-32
-33
-37
-31
-31
-29
-30
-28
-28
-31
-31
-31
-31
-31
-30
-31
-31
-32
-34
-33
-35
-34
-32
-33
-36
-39
-42
-45
-44
-41
-46
-47
-49
-53
-53
-53
-53
-53
-55
-55
-52
-50
-47
-45
-43
-37
-32
-32
-28
-28
-24
-21
-19
-18
-21
-21
-20
-19
-21
-19
-18
-17
-19
-19
-18
-19
-18
-19
-19
-18
-20
-21
-20
-20
-21
-18
-19
-18
-17
-17
-19
-19
-20
-18
-17
-17
-21
-16
-15
-13
-6
1
4
6
5
5
7
9
12
16
19
20
17
14
12
7
0
-5
-9
-15
-18
-21
-23
-25
-26
-25
-26
-27
-28
-29
-28
-28
-27
-27
-27
-27
-28
-33
-44
-47
-50
-47
-36
-19
30
93
152
179
165
132
92
57
33
14
0
-11
-21
-23
-27
-28
-31
-31
-31
-31
-31
-28
-29
-31
-31
-32
-28
-28
-28
-27
-27
-28
-30
-28
-28
-29
-27
-27
-29
-29
-31
-35
-32
-32
-34
-33
-38
-39
-41
-41
-43
-44
-44
-45
-47
-49
-49
-49
-47
-44
-42
-39
-36
-33
-31
-27
-24
-21
-19
-15
-15
-15
-15
-15
-14
-13
-11
-11
-12
-13
-13
-13
-12
-7
-11
-10
-12
-14
-11
-14
-13
-12
-10
-11
-11
-13
-13
-13
-11
-11
-10
-11
-11
-13
-13
-11
-9
-4
-2
4
6
7
9
12
13
14
15
20
20
20
19
20
16
15
12
9
-2
-7
-11
-13
-11
-15
-15
-19
-19
-21
-21
-21
-20
-19
-21
-19
-20
-21
-21
-21
-20
-25
-34
-43
-48
-47
-40
-15
31
97
157
187
178
141
100
64
40
23
10
-5
-12
-19
-21
-21
-23
-22
-27
-23
-25
-25
-24
-27
-23
-22
-21
-24
-25
-23
-23
-21
-20
-21
-22
-22
-23
-25
-26
-25
-25
-26
-27
-27
-31
-34
-34
-33
-34
-36
-39
-41
-44
-43
-45
-43
-43
-41
-42
-41
-41
-35
-31
-26
-23
-23
-19
-17
-17
-15
-14
-11
-11
-11
-11
-11
-12
-13
-11
-11
-11
-11
-11
-13
-12
-13
-10
-9
-10
-11
-13
-11
-11
-13
-11
-9
-10
-11
-11
-13
-12
-11
-9
-11
-10
-9
-8
-1
-1
4
7
12
14
13
12
13
17
20
20
21
19
15
10
5
1
-5
-7
-11
-12
-17
-19
-21
-19
-20
-21
-20
-20
-21
-23
-23
-21
-21
-19
-19
-20
-23
-30
-37
-44
-52
-47
-36
-7
51
124
175
191
168
128
86
57
36
18
5
-3
-13
-18
-21
-20
-23
-25
-26
-25
-25
-23
-24
-25
-25
-27
-25
-25
-25
-23
-23
-25
-27
-24
-26
-25
-25
-25
-32
-30
-32
-32
-33
-36
-35
-37
-39
-41
-44
-45
-44
-44
-46
-49
-49
-51
-50
-50
-47
-44
-41
-37
-32
-28
-27
-23
-21
-19
-17
-15
-15
-17
-16
-15
-15
-12
-13
-13
-15
-15
-13
-15
-15
-12
-14
-10
-13
-15
-15
-15
-12
-12
-13
-15
-15
-15
-15
-15
-15
-12
-13
-14
-13
-15
-14
-14
-11
-7
-5
0
2
5
7
8
12
12
15
15
14
15
15
13
12
7
1
-5
-9
-9
-15
-17
-17
-19
-23
-22
-24
-25
-27
-27
-25
-25
-25
-26
-27
-27
-25
-26
-31
-36
-45
-51
-51
-44
-11
49
121
177
190
162
117
76
47
29
13
0
-13
-23
-29
-28
-31
-35
-31
-32
-32
-34
-38
-35
-33
-33
-32
-32
-34
-35
-35
-35
-37
-34
-33
-35
-37
-38
-39
-39
-39
-39
-39
-41
-44
-47
-49
-49
-51
-51
-51
-55
-57
-59
-60
-60
-60
-59
-57
-57
-55
-53
-49
-44
-43
-37
-35
-33
-31
-31
-29
-27
-25
-24
-26
-25
-27
-27
-26
-26
-25
-24
-25
-27
-26
-27
-26
-26
-25
-23
-25
-25
-26
-27
-27
-27
-26
-27
-27
-27
-29
-27
-27
-27
-25
-25
-27
-24
-22
-21
-15
-7
-6
-4
-1
-3
-2
0
4
7
9
9
7
4
0
-5
-7
-12
-15
-21
-25
-27
-31
-32
-32
-32
-34
-37
-32
-39
-40
-38
-39
-36
-37
-37
-37
-39
-47
-53
-59
-62
-59
-54
-23
31
105
164
180
156
111
68
33
12
-5
-18
-27
-32
-36
-39
-41
-43
-43
-42
-41
-43
-45
-45
-45
-43
-43
-44
-43
-43
-43
-43
-42
-43
-43
-43
-44
-43
-42
-44
-45
-51
-50
-53
-51
-52
-57
-57
-59
-60
-63
-63
-64
-65
-65
-66
-67
-67
-67
-65
-60
-55
-51
-47
-43
-41
-39
-37
-34
-32
-31
-31
-32
-31
-28
-29
-28
-30
-31
-31
-31
-33
-32
-34
-30
-28
-28
-31
-33
-31
-31
-30
-30
-28
-28
-29
-28
-29
-30
-29
-29
-28
-28
-31
-33
-31
-29
-27
-23
-19
-17
-14
-11
-7
-5
-2
-3
0
3
4
4
5
5
5
5
1
-7
-15
-19
-23
-28
-28
-31
-32
-35
-39
-39
-39
-39
-39
-39
-39
-39
-39
-39
-39
-39
-41
-46
-57
-63
-63
-57
-42
-8
52
116
157
160
132
92
53
25
9
-5
-20
-30
-37
-39
-41
-41
-41
-45
-43
-44
-45
-43
-46
-41
-41
-41
-43
-42
-42
-39
-39
-40
-40
-40
-39
-40
-41
-41
-43
-42
-43
-43
-48
-48
-49
-51
-51
-51
-54
-54
-57
-58
-58
-58
-58
-58
-58
-55
-56
-55
-48
-43
-39
-35
-35
-32
-28
-27
-26
-25
-23
-21
-23
-23
-23
-21
-21
-21
-19
-20
-21
-21
-20
-21
-21
-19
-17
-20
-21
-21
-19
-19
-18
-17
-18
-19
-21
-19
-19
-20
-17
-17
-17
-17
-18
-17
-22
-17
-14
-13
-7
0
1
3
7
8
9
10
13
15
15
16
15
15
11
11
5
-1
-7
-13
-15
-17
-19
-19
-20
-21
-23
-25
-25
-24
-23
-21
-20
-23
-24
-23
-23
-23
-28
-28
-36
-47
-51
-54
-43
-18
33
103
161
180
158
118
77
48
29
13
0
-11
-18
-21
-25
-25
-25
-25
-27
-28
-27
-27
-27
-26
-22
-25
-25
-27
-27
-25
-25
-25
-23
-23
-27
-26
-27
-25
-27
-28
-27
-27
-28
-30
-34
-33
-35
-35
-35
-38
-41
-42
-42
-45
-44
-44
-45
-43
-43
-42
-39
-37
-32
-28
-24
-23
-20
-19
-17
-15
-15
-13
-14
-15
-15
-13
-13
-14
-13
-13
-13
-9
-12
-13
-14
-12
-10
-13
-11
-13
-12
-12
-13
-11
-11
-11
-10
-13
-12
-13
-13
-13
-11
-11
-13
-13
-12
-13
-11
-11
-7
-6
-1
1
5
9
12
12
13
14
17
17
20
21
19
20
15
13
9
0
-4
-9
-10
-13
-15
-15
-17
-18
-20
-20
-21
-19
-19
-19
-21
-21
-20
-21
-21
-21
-20
-27
-38
-45
-49
-45
-35
0
62
129
177
189
159
117
79
51
31
17
1
-9
-19
-21
-22
-23
-24
-27
-27
-27
-28
-27
-27
-23
-25
-25
-26
-25
-25
-24
-25
-23
-23
-25
-25
-25
-27
-27
-27
-27
-27
-28
-30
-33
-35
-37
-37
-37
-40
-43
-45
-44
-47
-47
-51
-47
-49
-48
-47
-47
-41
-35
-31
-28
-27
-24
-23
-21
-19
-18
-15
-14
-16
-17
-16
-15
-15
-15
-13
-15
-15
-17
-18
-17
-15
-14
-14
-14
-15
-15
-16
-15
-15
-14
-14
-15
-20
-17
-18
-17
-14
-17
-14
-15
-15
-16
-18
-15
-15
-15
-13
-11
-9
-5
0
4
5
7
8
7
9
12
14
15
15
13
9
6
3
-3
-8
-13
-15
-17
-21
-23
-23
-25
-25
-25
-25
-25
-26
-31
-28
-28
-27
-27
-28
-25
-27
-32
-41
-51
-55
-55
-51
-28
20
87
151
183
171
133
90
55
30
14
1
-11
-21
-25
-27
-28
-31
-32
-31
-31
-31
-31
-31
-28
-32
-31
-31
-36
-31
-29
-28
-31
-33
-31
-31
-31
-32
-31
-31
-32
-35
-37
-40
-39
-41
-41
-44
-44
-48
-49
-51
-53
-54
-55
-55
-57
-59
-57
-57
-50
-51
-47
-45
-41
-38
-35
-31
-29
-26
-26
-23
-22
-23
-22
-27
-22
-23
-21
-20
-23
-23
-23
-21
-21
-22
-21
-20
-21
-23
-22
-23
-24
-22
-22
-23
-24
-24
-25
-25
-25
-24
-23
-23
-23
-25
-25
-25
-25
-25
-23
-24
-23
-21
-19
-14
-10
-2
-3
-1
-2
-2
3
4
6
6
7
8
7
4
0
-3
-9
-14
-17
-22
-26
-29
-30
-31
-32
-31
-31
-35
-37
-37
-36
-36
-37
-38
-35
-35
-34
-37
-41
-49
-57
-59
-57
-49
-9
53
125
175
185
153
109
65
36
15
-1
-14
-25
-32
-37
-39
-41
-42
-41
-41
-41
-42
-43
-43
-44
-45
-43
-41
-41
-39
-41
-39
-42
-42
-41
-43
-42
-41
-42
-44
-47
-47
-49
-49
-49
-51
-57
-57
-58
-61
-60
-60
-63
-65
-67
-69
-68
-67
-65
-63
-61
-56
-55
-51
-47
-45
-41
-39
-35
-36
-35
-33
-34
-32
-32
-28
-29
-28
-29
-31
-32
-32
-32
-31
-28
-29
-30
-31
-34
-29
-29
-28
-28
-31
-31
-31
-30
-31
-32
-29
-29
-30
-31
-33
-32
-31
-31
-33
-31
-32
-31
-29
-27
-23
-18
-15
-12
-10
-9
-7
-6
-3
0
4
5
4
3
1
-1
-2
-3
-11
-17
-22
-26
-35
-33
-35
-35
-36
-39
-40
-41
-41
-41
-41
-41
-41
-41
-43
-41
-43
-44
-51
-59
-66
-68
-64
-49
-17
39
108
156
167
141
100
60
29
8
-6
-21
-30
-36
-41
-43
-43
-45
-47
-45
-44
-46
-46
-49
-44
-44
-42
-43
-43
-43
-44
-42
-44
-42
-42
-41
-43
-43
-44
-45
-45
-45
-46
-47
-49
-51
-53
-55
-55
-57
-57
-59
-60
-63
-65
-65
-65
-65
-63
-61
-63
-57
-56
-51
-48
-46
-39
-37
-35
-34
-34
-31
-28
-27
-27
-27
-27
-27
-27
-28
-25
-26
-25
-25
-25
-26
-27
-25
-25
-25
-24
-23
-20
-25
-25
-23
-23
-23
-22
-23
-23
-24
-27
-22
-22
-21
-21
-23
-20
-22
-22
-21
-20
-17
-15
-13
-10
-5
-3
0
4
5
6
9
9
12
12
13
14
14
12
8
4
-2
-7
-11
-15
-17
-18
-20
-21
-23
-23
-25
-25
-25
-24
-24
-25
-29
-26
-25
-23
-23
-27
-31
-39
-49
-54
-51
-44
-18
33
100
160
182
167
129
92
60
38
20
5
-7
-16
-21
-23
-24
-23
-26
-27
-29
-26
-26
-25
-25
-23
-25
-25
-25
-24
-27
-22
-21
-21
-23
-25
-23
-23
-22
-23
-23
-23
-25
-27
-28
-30
-29
-31
-31
-31
-35
-36
-40
-39
-39
-41
-41
-41
-41
-41
-39
-37
-28
-27
-25
-22
-21
-21
-15
-15
-15
-11
-8
-9
-9
-11
-9
-6
-9
-8
-8
-9
-7
-9
-9
-9
-7
-5
-5
-7
-7
-8
-8
-7
-5
-7
-6
-7
-8
-9
-9
-8
-7
-4
-5
-6
-6
-7
-7
-7
-7
-4
-5
-5
-3
-1
3
9
13
21
20
17
17
21
25
24
27
26
25
23
20
17
13
8
4
-1
-5
-6
-9
-11
-11
-12
-13
-12
-13
-14
-15
-15
-15
-15
-13
-12
-14
-15
-17
-24
-31
-39
-41
-41
-33
-2
52
124
179
193
172
127
87
54
36
20
7
-2
-9
-12
-13
-17
-17
-19
-18
-17
-17
-17
-18
-19
-19
-18
-16
-15
-16
-15
-16
-15
-15
-15
-15
-16
-15
-16
-17
-19
-19
-20
-21
-22
-21
-23
-28
-28
-30
-32
-33
-35
-35
-35
-37
-39
-39
-38
-36
-35
-29
-27
-25
-23
-18
-17
-12
-9
-8
-9
-7
-7
-7
-4
-5
-3
-3
-3
-5
-6
-5
-5
-3
-3
-3
-3
-5
-5
-1
-4
-3
-3
-1
1
-5
-5
-5
-4
-5
-4
-3
-3
-3
-4
-5
-3
-3
-3
-3
-3
-3
-2
0
4
7
12
15
17
17
20
20
21
23
27
29
28
28
28
25
23
23
15
12
5
1
0
-5
-7
-9
-8
-9
-10
-11
-13
-13
-12
-13
-13
-11
-12
-13
-13
-13
-16
-21
-27
-36
-41
-39
-29
5
65
135
188
197
169
126
83
57
37
23
12
1
-9
-15
-17
-17
-21
-20
-18
-19
-21
-25
-22
-21
-20
-19
-22
-19
-19
-21
-21
-21
-20
-19
-19
-19
-20
-23
-23
-23
-25
-25
-25
-27
-31
-32
-34
-37
-39
-39
-39
-39
-43
-44
-47
-47
-44
-44
-46
-41
-39
-39
-33
-33
-27
-23
-19
-17
-20
-17
-17
-14
-13
-13
-13
-11
-12
-13
-13
-13
-12
-13
-13
-13
-12
-13
-13
-13
-12
-13
-11
-11
-11
-13
-15
-13
-15
-12
-14
-13
-10
-14
-13
-14
-11
-9
-11
-11
-12
-13
-11
-11
-9
-5
-1
4
5
5
7
9
12
15
18
21
20
20
20
17
16
13
7
5
-2
-7
-11
-15
-17
-19
-19
-21
-23
-23
-23
-23
-23
-23
-24
-28
-25
-25
-25
-24
-31
-35
-43
-49
-52
-47
-27
17
82
149
189
184
149
109
72
45
25
12
-3
-13
-22
-25
-29
-28
-28
-28
-31
-31
-31
-31
-31
-31
-31
-28
-30
-29
-31
-35
-31
-31
-28
-28
-33
-31
-33
-32
-34
-35
-33
-35
-38
-39
-43
-43
-45
-45
-47
-49
-50
-53
-53
-53
-53
-53
-52
-52
-51
-49
-45
-40
-38
-32
-28
-27
-29
-25
-24
-21
-21
-19
-19
-19
-20
-19
-23
-19
-21
-19
-19
-22
-19
-21
-20
-19
-19
-19
-19
-18
-19
-20
-20
-20
-22
-21
-21
-21
-22
-21
-20
-19
-20
-19
-20
-21
-21
-23
-22
-21
-20
-17
-15
-11
-6
-3
-1
0
5
5
7
11
13
15
13
15
12
12
9
4
-5
-13
-17
-20
-22
-22
-25
-27
-29
-28
-31
-31
-31
-31
-31
-30
-32
-32
-32
-32
-31
-34
-43
-51
-58
-57
-49
-29
17
84
149
174
160
121
79
48
24
9
-4
-17
-26
-29
-33
-33
-34
-35
-35
-36
-38
-37
-36
-37
-35
-35
-35
-36
-34
-36
-35
-35
-34
-33
-33
-35
-37
-35
-35
-35
-35
-37
-36
-39
-39
-41
-43
-43
-45
-49
-49
-51
-51
-53
-55
-52
-53
-53
-52
-53
-49
-47
-43
-39
-35
-31
-28
-27
-26
-23
-20
-21
-21
-19
-19
-18
-19
-19
-19
-18
-17
-17
-17
-18
-18
-19
-19
-18
-17
-17
-19
-23
-19
-17
-17
-18
-21
-15
-19
-19
-21
-21
-19
-18
-15
-17
-19
-19
-19
-17
-18
-12
-10
-6
-3
1
4
5
7
7
9
12
13
11
12
13
12
11
7
3
-3
-12
-15
-19
-19
-20
-22
-23
-28
-25
-26
-28
-27
-27
-26
-27
-27
-28
-28
-27
-28
-27
-31
-37
-49
-55
-56
-52
-31
12
77
141
177
170
133
93
59
36
17
3
-10
-19
-24
-27
-28
-28
-29
-31
-32
-32
-35
-31
-31
-30
-29
-32
-28
-31
-30
-31
-31
-28
-29
-28
-28
-31
-30
-29
-31
-31
-31
-31
-34
-36
-37
-39
-39
-39
-41
-43
-44
-47
-49
-49
-49
-49
-50
-49
-48
-47
-45
-41
-41
-33
-31
-27
-27
-27
-23
-21
-18
-16
-19
-17
-19
-19
-19
-19
-18
-17
-18
-19
-17
-18
-18
-17
-17
-16
-15
-18
-18
-19
-18
-17
-15
-17
-18
-17
-17
-19
-18
-17
-16
-15
-15
-17
-17
-18
-18
-21
-15
-13
-12
-6
-1
-1
4
5
7
9
8
12
13
15
15
14
13
12
7
0
-4
-11
-15
-17
-17
-19
-22
-23
-25
-25
-27
-26
-25
-25
-27
-27
-28
-27
-26
-25
-25
-31
-31
-41
-49
-53
-56
-41
-3
61
131
175
175
141
100
65
39
21
6
-7
-16
-22
-26
-27
-27
-29
-31
-31
-33
-31
-31
-31
-31
-28
-32
-32
-31
-31
-30
-28
-28
-28
-31
-35
-31
-32
-31
-31
-35
-34
-35
-35
-38
-39
-40
-41
-43
-44
-47
-49
-51
-50
-53
-51
-52
-53
-53
-53
-51
-47
-43
-38
-35
-32
-31
-28
-25
-23
-22
-19
-20
-21
-21
-21
-19
-20
-17
-17
-18
-18
-23
-21
-19
-18
-18
-19
-18
-19
-19
-19
-19
-18
-18
-17
-17
-16
-18
-17
-19
-17
-18
-17
-17
-18
-18
-17
-19
-17
-17
-13
-12
-11
-8
-5
1
4
6
7
7
7
9
12
17
13
15
13
13
12
3
-3
-9
-13
-14
-17
-19
-22
-23
-26
-25
-25
-25
-23
-26
-28
-27
-27
-26
-25
-23
-24
-25
-31
-38
-47
-48
-51
-46
-21
31
100
158
183
169
130
92
59
36
17
4
-5
-17
-21
-23
-25
-27
-27
-27
-28
-28
-29
-29
-27
-27
-28
-28
-29
-28
-27
-26
-26
-27
-28
-28
-28
-27
-28
-29
-27
-31
-32
-34
-35
-37
-37
-38
-39
-43
-45
-45
-47
-49
-51
-50
-49
-52
-53
-55
-49
-47
-44
-40
-37
-32
-31
-29
-25
-25
-21
-18
-19
-19
-19
-19
-19
-19
-18
-18
-17
-20
-21
-19
-19
-19
-19
-18
-17
-19
-19
-21
-19
-17
-17
-15
-21
-19
-19
-18
-19
-20
-17
-17
-19
-20
-21
-21
-19
-17
-17
-18
-15
-15
-13
-8
-2
-1
4
5
5
4
7
10
12
13
12
13
11
5
3
-3
-9
-12
-15
-17
-20
-23
-25
-26
-25
-27
-27
-31
-28
-31
-31
-31
-32
-28
-28
-27
-27
-33
-40
-46
-53
-55
-51
-37
0
65
135
181
181
148
101
63
36
15
0
-13
-21
-27
-29
-31
-33
-35
-35
-35
-35
-36
-37
-37
-37
-39
-36
-37
-34
-34
-36
-34
-35
-36
-36
-37
-35
-35
-35
-38
-39
-41
-41
-43
-43
-44
-44
-47
-49
-51
-51
-54
-55
-57
-57
-58
-59
-59
-59
-57
-54
-52
-47
-45
-41
-38
-35
-35
-27
-27
-25
-25
-29
-25
-24
-23
-23
-24
-23
-24
-23
-23
-25
-23
-23
-23
-23
-24
-26
-25
-25
-24
-21
-22
-23
-23
-23
-23
-23
-22
-23
-23
-23
-24
-25
-27
-25
-23
-23
-20
-21
-20
-17
-13
-6
-7
-3
-2
-1
1
1
5
7
9
12
12
10
6
2
-1
-8
-15
-17
-21
-25
-28
-31
-31
-31
-31
-32
-34
-35
-37
-37
-35
-35
-34
-33
-34
-36
-39
-45
-51
-58
-58
-56
-36
-1
61
129
175
175
145
103
68
37
15
-1
-15
-25
-30
-31
-35
-37
-40
-42
-41
-41
-38
-37
-36
-39
-39
-40
-39
-37
-37
-32
-36
-37
-37
-39
-39
-39
-38
-39
-39
-43
-42
-43
-43
-44
-47
-45
-47
-49
-53
-53
-55
-55
-55
-57
-59
-60
-62
-60
-59
-55
-53
-49
-44
-43
-39
-37
-33
-31
-29
-27
-27
-27
-27
-27
-24
-25
-25
-24
-23
-25
-26
-24
-24
-23
-22
-23
-28
-25
-25
-23
-23
-26
-23
-23
-23
-24
-25
-23
-23
-23
-23
-23
-23
-25
-23
-22
-23
-22
-21
-21
-20
-19
-14
-9
-4
-1
1
1
1
4
6
9
12
11
13
11
7
4
2
-7
-11
-15
-19
-25
-25
-27
-27
-29
-28
-29
-28
-30
-32
-32
-31
-32
-31
-30
-30
-31
-32
-39
-48
-55
-59
-57
-52
-36
5
65
134
172
173
141
97
60
33
15
-2
-13
-23
-27
-30
-31
-32
-37
-37
-35
-36
-34
-34
-33
-35
-34
-34
-33
-31
-31
-31
-31
-32
-33
-32
-32
-31
-29
-31
-32
-34
-35
-34
-37
-35
-37
-38
-41
-43
-44
-46
-47
-48
-48
-50
-51
-52
-50
-50
-49
-43
-41
-38
-35
-35
-29
-27
-23
-22
-21
-21
-19
-19
-19
-19
-17
-15
-14
-16
-17
-18
-18
-17
-17
-16
-17
-16
-17
-17
-18
-18
-15
-17
-15
-17
-17
-18
-16
-16
-15
-15
-20
-17
-17
-17
-16
-19
-15
-15
-17
-15
-13
-11
-6
-3
1
5
7
7
6
9
11
13
15
15
15
13
12
7
4
-1
-8
-11
-15
-19
-21
-20
-23
-23
-22
-23
-25
-27
-27
-27
-27
-26
-25
-28
-25
-27
-29
-34
-45
-50
-51
-52
-44
-15
44
116
169
183
157
113
70
40
23
8
-5
-15
-21
-24
-26
-29
-31
-31
-29
-29
-29
-31
-31
-31
-29
-28
-28
-27
-27
-27
-28
-32
-28
-28
-27
-29
-31
-28
-30
-31
-32
-32
-33
-35
-34
-39
-41
-42
-43
-43
-45
-45
-45
-49
-49
-49
-49
-49
-47
-43
-42
-39
-36
-30
-28
-27
-23
-21
-21
-19
-19
-18
-17
-19
-16
-15
-18
-18
-20
-17
-17
-17
-16
-17
-15
-17
-17
-18
-19
-17
-15
-15
-15
-17
-17
-17
-17
-15
-15
-15
-15
-17
-17
-16
-15
-15
-17
-17
-18
-18
-16
-14
-9
-4
1
4
5
6
7
7
12
13
15
15
15
15
11
7
4
-1
-6
-11
-14
-19
-19
-21
-21
-23
-23
-23
-25
-27
-26
-27
-26
-25
-23
-26
-25
-27
-25
-28
-37
-43
-51
-52
-51
-36
3
70
140
185
185
150
107
68
39
25
7
-3
-12
-21
-25
-27
-29
-28
-29
-28
-27
-29
-29
-30
-28
-29
-27
-27
-27
-27
-28
-28
-28
-28
-25
-27
-23
-29
-30
-28
-31
-32
-31
-32
-35
-37
-41
-42
-41
-42
-43
-47
-47
-49
-49
-51
-52
-51
-49
-46
-44
-43
-39
-35
-32
-28
-25
-21
-20
-21
-18
-18
-17
-15
-16
-15
-16
-16
-15
-15
-14
-16
-13
-12
-14
-15
-18
-15
-15
-14
-13
-15
-15
-13
-17
-15
-15
-14
-10
-12
-13
-15
-14
-15
-15
-15
-13
-12
-14
-13
-13
-12
-9
-6
-1
4
5
7
9
9
9
12
15
15
15
15
14
13
12
8
4
-5
-9
-13
-15
-12
-17
-18
-19
-20
-25
-22
-23
-23
-23
-23
-21
-23
-23
-23
-23
-23
-27
-35
-43
-51
-54
-53
-39
-1
63
133
181
