-723
-723
-723
-723
-725
-723
-724
-723
-723
-723
-723
-722
-725
-721
-721
-722
-722
-721
-721
-721
-722
-721
-719
-719
-720
-719
-720
-719
-719
-719
-719
-721
-719
-719
-719
-721
-719
-719
-719
-719
-719
-721
-719
-721
-721
-721
-719
-719
-719
-718
-717
-713
-710
-707
-708
-709
-709
-707
-706
-704
-701
-699
-697
-697
-697
-700
-703
-702
-704
-705
-707
-708
-713
-717
-721
-725
-729
-731
-734
-735
-735
-735
-736
-735
-737
-737
-738
-738
-737
-739
-739
-737
-738
-738
-738
-737
-735
-734
-734
-732
-729
-722
-706
-689
-674
-636
-567
-515
-517
-527
-529
-539
-575
-662
-755
-829
-891
-899
-870
-835
-797
-771
-751
-737
-729
-717
-707
-705
-703
-701
-700
-699
-697
-695
-693
-692
-693
-690
-687
-687
-685
-684
-682
-682
-679
-678
-676
-675
-675
-669
-669
-667
-667
-663
-663
-663
-661
-658
-653
-653
-648
-647
-643
-640
-637
-633
-631
-626
-625
-618
-614
-609
-607
-602
-598
-595
-590
-587
-581
-579
-573
-573
-573
-574
-573
-573
-576
-579
-583
-586
-593
-600
-613
-621
-634
-642
-654
-665
-671
-680
-689
-695
-701
-707
-711
-713
-715
-719
-719
-721
-721
-722
-723
-723
-724
-725
-727
-725
-725
-725
-727
-727
-727
-727
-727
-728
-727
-727
-726
-726
-727
-727
-728
-726
-726
-725
-727
-725
-725
-725
-725
-727
-726
-727
-727
-726
-727
-727
-727
-726
-727
-729
-727
-725
-728
-729
-730
-730
-730
-731
-731
-733
-732
-731
-732
-731
-731
-730
-730
-731
-731
-733
-732
-733
-733
-732
-733
-731
-733
-731
-731
-731
-729
-729
-729
-729
-731
-728
-729
-729
-731
-727
-729
-729
-729
-729
-727
-729
-728
-729
-729
-729
-727
-727
-729
-729
-729
-727
-727
-728
-727
-725
-722
-719
-716
-718
-716
-715
-716
-714
-712
-710
-708
-705
-703
-703
-704
-707
-709
-709
-710
-710
-713
-715
-719
-723
-727
-731
-733
-737
-737
-739
-741
-741
-742
-740
-741
-742
-743
-743
-742
-743
-743
-743
-742
-742
-742
-741
-740
-738
-737
-734
-730
-717
-701
-688
-668
-621
-547
-518
-529
-541
-545
-566
-625
-719
-789
-854
-898
-881
-853
-817
-785
-761
-746
-734
-725
-716
-709
-707
-703
-704
-703
-701
-700
-698
-698
-695
-697
-693
-693
-691
-690
-689
-687
-686
-683
-680
-679
-678
-675
-673
-671
-669
-668
-664
-663
-659
-658
-658
-653
-651
-649
-645
-643
-642
-637
-631
-630
-625
-623
-619
-617
-613
-608
-603
-597
-594
-589
-587
-583
-583
-581
-579
-577
-575
-573
-571
-575
-578
-583
-584
-593
-599
-611
-621
-635
-646
-657
-669
-677
-685
-692
-698
-703
-706
-711
-713
-714
-715
-717
-719
-719
-719
-721
-719
-721
-721
-721
-721
-722
-725
-721
-722
-722
-723
-723
-723
-723
-722
-723
-722
-722
-722
-721
-721
-721
-722
-721
-722
-721
-721
-721
-721
-721
-719
-723
-721
-722
-721
-721
-721
-721
-721
-721
-723
-722
-721
-723
-721
-723
-722
-723
-723
-722
-723
-723
-721
-723
-723
-723
-723
-723
-723
-725
-725
-724
-723
-724
-724
-722
-722
-721
-721
-719
-719
-719
-719
-719
-719
-719
-718
-717
-719
-717
-718
-717
-718
-718
-717
-719
-717
-717
-717
-717
-717
-715
-717
-717
-718
-717
-716
-717
-716
-716
-715
-715
-713
-709
-706
-704
-703
-704
-705
-703
-703
-701
-699
-695
-697
-693
-694
-697
-699
-699
-699
-701
-701
-703
-707
-711
-714
-719
-721
-725
-727
-729
-729
-729
-730
-730
-731
-732
-732
-732
-731
-733
-733
-735
-731
-731
-731
-731
-730
-728
-727
-727
-723
-718
-705
-691
-675
-637
-570
-521
-515
-519
-519
-526
-546
-610
-703
-784
-866
-890
-858
-823
-787
-759
-742
-728
-718
-709
-699
-698
-697
-695
-694
-691
-691
-688
-689
-686
-685
-683
-682
-680
-678
-677
-674
-674
-671
-669
-669
-667
-667
-663
-662
-661
-659
-658
-654
-653
-649
-649
-643
-641
-639
-632
-631
-627
-626
-621
-621
-616
-614
-611
-603
-603
-597
-595
-587
-584
-581
-576
-573
-571
-569
-566
-566
-562
-565
-563
-563
-561
-565
-567
-575
-581
-591
-602
-613
-627
-635
-647
-655
-665
-674
-680
-687
-692
-697
-700
-703
-704
-707
-710
-709
-711
-711
-711
-713
-711
-713
-712
-713
-713
-713
-713
-714
-714
-713
-714
-713
-714
-716
-715
-715
-715
-715
-715
-716
-715
-715
-716
-715
-716
-717
-717
-716
-717
-716
-717
-717
-717
-719
-720
-719
-720
-719
-722
-719
-719
-721
-721
-721
-721
-721
-722
-721
-721
-721
-722
-721
-723
-723
-722
-723
-723
-725
-723
-721
-724
-723
-723
-723
-723
-722
-722
-723
-721
-721
-721
-722
-719
-719
-721
-719
-720
-719
-719
-717
-717
-718
-718
-718
-717
-718
-717
-717
-717
-717
-717
-718
-721
-717
-717
-715
-718
-717
-717
-717
-717
-718
-717
-717
-717
-716
-714
-712
-708
-706
-705
-705
-706
-707
-704
-702
-700
-698
-697
-693
-693
-695
-697
-698
-698
-701
-701
-702
-703
-710
-713
-718
-722
-725
-727
-729
-731
-731
-732
-733
-733
-733
-733
-733
-733
-734
-734
-733
-733
-733
-734
-733
-732
-731
-729
-729
-727
-725
-719
-705
-692
-677
-643
-575
-517
-507
-515
-519
-527
-547
-618
-713
-792
-873
-891
-862
-825
-790
-763
-743
-730
-719
-709
-700
-697
-695
-694
-693
-691
-691
-688
-689
-686
-686
-684
-682
-680
-678
-677
-675
-673
-671
-669
-669
-664
-666
-663
-663
-660
-658
-658
-653
-653
-650
-647
-643
-641
-637
-632
-630
-625
-623
-619
-617
-614
-612
-609
-604
-602
-595
-595
-590
-587
-581
-579
-574
-573
-571
-567
-566
-566
-566
-564
-565
-565
-571
-573
-579
-586
-597
-607
-621
-632
-642
-655
-663
-674
-680
-685
-693
-699
-703
-706
-710
-713
-714
-715
-715
-718
-717
-717
-718
-719
-719
-717
-719
-719
-721
-721
-721
-721
-721
-723
-721
-721
-721
-721
-723
-721
-721
-721
-722
-722
-722
-722
-721
-723
-722
-723
-723
-723
-723
-723
-725
-725
-726
-726
-726
-725
-726
-727
-727
-731
-729
-729
-729
-729
-731
-729
-729
-730
-730
-730
-730
-731
-731
-731
-731
-730
-731
-731
-731
-731
-729
-730
-730
-731
-729
-730
-729
-729
-730
-729
-729
-727
-729
-729
-729
-729
-727
-728
-727
-729
-726
-727
-726
-727
-726
-725
-725
-725
-726
-726
-725
-725
-723
-727
-724
-725
-726
-725
-725
-725
-727
-727
-726
-725
-725
-723
-721
-717
-715
-715
-714
-714
-714
-712
-710
-709
-705
-702
-702
-702
-705
-707
-710
-710
-711
-711
-713
-717
-722
-727
-730
-733
-735
-737
-738
-740
-740
-742
-741
-741
-741
-741
-742
-741
-743
-742
-742
-740
-742
-743
-741
-742
-739
-739
-735
-731
-725
-709
-694
-680
-653
-594
-533
-519
-533
-541
-551
-584
-661
-749
-818
-881
-893
-870
-840
-804
-776
-753
-739
-729
-721
-711
-705
-705
-703
-703
-699
-698
-697
-697
-695
-695
-693
-691
-690
-689
-689
-686
-685
-683
-682
-680
-677
-677
-675
-673
-671
-669
-667
-666
-665
-661
-659
-657
-655
-652
-650
-646
-642
-641
-637
-635
-629
-626
-621
-617
-615
-609
-609
-603
-599
-594
-591
-586
-583
-581
-578
-577
-573
-573
-571
-577
-575
-581
-585
-593
-597
-605
-615
-627
-641
-648
-661
-669
-679
-686
-693
-698
-703
-711
-711
-715
-717
-718
-718
-719
-721
-721
-723
-722
-722
-723
-723
-725
-725
-725
-724
-725
-725
-725
-725
-725
-724
-725
-723
-723
-722
-723
-725
-723
-722
-721
-722
-722
-722
-722
-722
-721
-721
-722
-721
-722
-722
-722
-722
-722
-723
-723
-724
-723
-722
-722
-723
-727
-723
-724
-724
-725
-724
-724
-723
-725
-725
-724
-725
-725
-725
-725
-725
-725
-725
-724
-724
-723
-722
-722
-723
-722
-721
-721
-719
-721
-722
-721
-719
-718
-719
-718
-719
-719
-719
-719
-718
-718
-718
-719
-719
-719
-718
-717
-718
-718
-718
-717
-718
-718
-717
-719
-714
-713
-709
-709
-706
-704
-705
-706
-703
-703
-701
-699
-695
-694
-693
-693
-696
-699
-699
-699
-702
-701
-703
-707
-710
-715
-717
-721
-725
-725
-726
-727
-729
-727
-727
-729
-728
-730
-730
-731
-730
-730
-730
-729
-729
-729
-727
-725
-725
-722
-722
-721
-714
-701
-687
-675
-641
-578
-526
-518
-523
-525
-530
-547
-607
-699
-779
-847
-871
-849
-811
-783
-755
-737
-722
-713
-703
-694
-693
-692
-690
-689
-686
-686
-686
-685
-683
-682
-679
-680
-675
-675
-674
-673
-670
-669
-667
-666
-664
-661
-660
-659
-655
-653
-649
-648
-646
-645
-641
-639
-637
-632
-631
-627
-626
-621
-619
-615
-610
-607
-601
-600
-594
-591
-587
-583
-579
-575
-571
-567
-566
-559
-561
-555
-555
-551
-552
-552
-557
-557
-562
-570
-577
-589
-598
-611
-619
-632
-642
-653
-662
-669
-678
-683
-688
-695
-697
-700
-701
-703
-704
-704
-705
-706
-708
-710
-709
-707
-708
-709
-709
-709
-709
-710
-708
-711
-711
-710
-710
-710
-711
-710
-711
-711
-711
-711
-709
-711
-710
-711
-711
-713
-711
-711
-714
-711
-713
-711
-713
-713
-714
-713
-713
-715
-716
-715
-714
-715
-717
-717
-718
-717
-717
-717
-717
-718
-717
-718
-718
-720
-717
-718
-718
-719
-719
-719
-719
-719
-718
-717
-717
-718
-717
-717
-715
-717
-715
-716
-716
-715
-714
-713
-714
-714
-713
-714
-713
-714
-716
-714
-713
-712
-714
-715
-714
-713
-713
-713
-713
-713
-713
-714
-714
-713
-712
-713
-713
-713
-711
-711
-708
-704
-701
-703
-702
-702
-701
-701
-698
-697
-697
-693
-690
-689
-691
-694
-694
-695
-697
-699
-699
-702
-707
-710
-714
-719
-723
-723
-725
-727
-727
-727
-729
-727
-729
-727
-730
-729
-729
-728
-729
-729
-729
-729
-727
-727
-725
-725
-723
-721
-718
-707
-694
-682
-661
-609
-543
-517
-522
-525
-530
-542
-594
-685
-763
-839
-878
-857
-825
-792
-765
-743
-729
-718
-707
-697
-693
-693
-692
-691
-689
-688
-686
-685
-682
-682
-678
-679
-677
-675
-673
-671
-670
-669
-669
-667
-666
-665
-661
-661
-658
-657
-655
-653
-651
-648
-647
-643
-641
-635
-635
-631
-627
-624
-621
-616
-612
-609
-603
-600
-594
-589
-585
-580
-575
-573
-573
-566
-563
-560
-561
-558
-558
-555
-557
-557
-561
-562
-567
-575
-582
-594
-603
-617
-626
-637
-647
-657
-665
-673
-680
-685
-691
-695
-699
-703
-703
-706
-707
-709
-709
-710
-711
-712
-713
-713
-713
-714
-713
-716
-713
-713
-713
-715
-713
-716
-716
-715
-715
-715
-715
-715
-717
-717
-715
-717
-717
-717
-717
-719
-716
-717
-719
-718
-718
-719
-719
-721
-722
-721
-721
-722
-722
-722
-722
-722
-723
-722
-723
-725
-725
-725
-723
-725
-725
-726
-725
-727
-727
-725
-726
-725
-729
-728
-727
-727
-727
-727
-725
-727
-725
-725
-725
-726
-725
-723
-724
-723
-724
-723
-723
-723
-722
-725
-723
-725
-722
-722
-723
-723
-723
-723
-725
-722
-722
-723
-723
-723
-723
-724
-721
-722
-722
-723
-723
-723
-722
-722
-721
-719
-718
-715
-713
-711
-713
-712
-713
-713
-710
-707
-705
-703
-701
-700
-703
-705
-706
-707
-707
-710
-711
-714
-718
-723
-727
-730
-733
-734
-737
-738
-738
-738
-738
-739
-739
-740
-743
-741
-741
-741
-742
-741
-741
-741
-740
-740
-738
-737
-734
-732
-726
-711
-697
-683
-653
-589
-533
-534
-543
-549
-559
-601
-679
-761
-831
-886
-887
-864
-827
-797
-768
-752
-738
-727
-718
-710
-707
-706
-705
-703
-703
-701
-701
-698
-697
-695
-694
-693
-691
-691
-686
-687
-685
-685
-683
-680
-680
-679
-678
-675
-675
-671
-671
-669
-666
-663
-661
-659
-655
-653
-650
-647
-645
-642
-638
-633
-633
-627
-625
-619
-618
-615
-611
-609
-602
-600
-596
-593
-589
-587
-586
-587
-586
-586
-584
-588
-591
-594
-601
-610
-621
-626
-637
-647
-658
-667
-678
-686
-690
-700
-703
-711
-713
-716
-719
-721
-721
-722
-725
-725
-725
-727
-725
-725
-726
-727
-728
-727
-727
-727
-727
-726
-727
-730
-727
-727
-727
-727
-726
-727
-726
-726
-725
-725
-726
-725
-725
-725
-725
-725
-725
-725
-725
-727
-722
-725
-725
-726
-725
-725
-727
-727
-729
-727
-727
-728
-728
-729
-727
-729
-728
-729
-729
-729
-729
-727
-729
-727
-729
-727
-729
-728
-726
-729
-727
-727
-726
-729
-726
-725
-725
-725
-725
-725
-725
-725
-725
-724
-723
-723
-722
-723
-723
-723
-723
-721
-723
-722
-723
-722
-722
-723
-721
-722
-722
-722
-723
-722
-721
-721
-721
-717
-713
-710
-710
-710
-710
-711
-710
-707
-705
-703
-700
-699
-699
-701
-703
-704
-705
-705
-706
-708
-711
-716
-719
-725
-725
-729
-731
-733
-733
-733
-735
-733
-734
-735
-735
-735
-734
-735
-734
-735
-735
-735
-734
-733
-732
-731
-731
-727
-727
-717
-703
-689
-669
-627
-561
-525
-525
-533
-535
-545
-583
-673
-755
-826
-877
-865
-834
-799
-768
-743
-731
-721
-713
-703
-699
-699
-697
-698
-693
-692
-691
-689
-687
-687
-686
-683
-682
-679
-679
-677
-675
-674
-671
-669
-667
-667
-663
-662
-659
-658
-655
-653
-651
-650
-649
-643
-642
-638
-637
-634
-631
-627
-623
-621
-616
-613
-607
-604
-600
-595
-590
-586
-585
-579
-578
-573
-573
-570
-567
-565
-565
-563
-566
-563
-568
-571
-577
-586
-595
-605
-616
-629
-639
-654
-661
-669
-677
-684
-691
-695
-701
-701
-706
-707
-707
-710
-710
-712
-713
-714
-715
-713
-714
-715
-717
-715
-715
-715
-716
-717
-717
-717
-715
-717
-717
-717
-715
-717
-717
-717
-717
-716
-717
-717
-717
-719
-717
-717
-717
-718
-718
-718
-718
-718
-718
-718
-719
-719
-719
-719
-719
-720
-719
-721
-721
-721
-718
-721
-721
-721
-721
-721
-721
-721
-723
-722
-722
-722
-723
-723
-722
-721
-722
-721
-721
-720
-721
-719
-719
-719
-719
-718
-718
-719
-718
-717
-717
-718
-717
-718
-717
-717
-718
-717
-717
-717
-717
-717
-717
-717
-716
-717
-716
-717
-717
-717
-717
-715
-714
-711
-707
-704
-705
-704
-705
-704
-703
-701
-702
-697
-695
-693
-691
-695
-697
-697
-698
-699
-701
-701
-704
-710
-714
-717
-721
-723
-725
-727
-729
-729
-730
-729
-731
-731
-731
-732
-733
-734
-731
-731
-730
-731
-729
-730
-730
-727
-727
-725
-723
-717
-706
-695
-680
-646
-581
-532
-527
-535
-539
-542
-565
-639
-729
-802
-870
-869
-838
-806
-775
-751
-737
-725
-715
-706
-699
-699
-697
-697
-695
-693
-690
-690
-689
-689
-687
-686
-685
-682
-680
-679
-679
-675
-675
-674
-673
-671
-669
-668
-666
-664
-663
-661
-659
-655
-653
-649
-649
-645
-643
-639
-635
-634
-630
-626
-622
-619
-613
-611
-607
-603
-597
-592
-587
-584
-581
-576
-573
-570
-569
-566
-567
-565
-568
-568
-571
-573
-582
-585
-597
-607
-620
-630
-637
-650
-658
-666
-675
-683
-689
-695
-701
-703
-707
-709
-711
-711
-713
-713
-714
-715
-714
-715
-714
-715
-715
-715
-717
-716
-716
-716
-717
-717
-717
-718
-719
-718
-717
-717
-717
-717
-717
-718
-719
-717
-719
-718
-719
-719
-719
-719
-719
-719
-719
-721
-721
-721
-721
-721
-722
-725
-722
-723
-723
-725
-723
-724
-723
-725
-723
-724
-724
-723
-725
-724
-725
-725
-725
-725
-726
-726
-723
-726
-725
-725
-724
-724
-723
-722
-725
-723
-723
-722
-721
-721
-721
-721
-719
-719
-719
-719
-719
-719
-720
-718
-717
-718
-719
-719
-717
-719
-717
-717
-717
-719
-717
-717
-718
-719
-718
-717
-717
-718
-715
-713
-707
-704
-703
-704
-705
-706
-705
-701
-701
-698
-697
-694
-693
-697
-699
-699
-698
-702
-703
-703
-706
-711
-716
-719
-723
-726
-729
-730
-729
-730
-731
-734
-733
-733
-733
-734
-733
-732
-734
-733
-734
-733
-732
-731
-730
-731
-729
-728
-725
-722
-711
-697
-683
-656
-593
-527
-517
-524
-527
-533
-549
-617
-714
-794
-873
-889
-854
-819
-781
-757
-739
-726
-719
-707
-701
-700
-699
-697
-695
-693
-693
-691
-690
-687
-686
-686
-685
-683
-680
-681
-677
-677
-675
-673
-671
-669
-666
-663
-663
-661
-661
-655
-655
-653
-648
-646
-643
-642
-638
-635
-629
-625
-621
-619
-614
-610
-608
-602
-599
-593
-589
-586
-586
-581
-578
-573
-567
-565
-562
-559
-558
-557
-559
-562
-564
-571
-575
-584
-593
-607
-615
-629
-639
-648
-660
-669
-679
-685
-691
-697
-700
-706
-707
-712
-711
-717
-715
-716
-717
-718
-719
-719
-721
-719
-719
-719
-719
-719
-721
-720
-719
-719
-718
-719
-719
-719
-718
-719
-718
-717
-719
-719
-719
-719
-721
-719
-719
-721
-719
-719
-720
-720
-719
-720
-721
-722
-721
-721
-722
-723
-722
-723
-723
-723
-723
-725
-723
-723
-723
-726
-725
-725
-725
-723
-724
-725
-725
-725
-725
-725
-724
-725
-725
-723
-723
-723
-724
-722
-723
-723
-721
-722
-722
-723
-722
-723
-723
-723
-725
-722
-722
-723
-725
-723
-722
-723
-722
-721
-718
-716
-713
-711
-710
-711
-713
-711
-708
-706
-703
-701
-699
-698
-700
-704
-703
-704
-706
-710
-709
-713
-718
-721
-725
-727
-731
-733
-733
-736
-735
-735
-737
-737
-737
-738
-738
-737
-739
-738
-738
-739
-739
-739
-739
-739
-735
-735
-732
-728
-716
-699
-687
-667
-619
-547
-518
-532
-543
-551
-575
-651
-745
-815
-879
-896
-874
-845
-807
-776
-755
-742
-731
-724
-713
-709
-709
-708
-706
-703
-703
-701
-701
-699
-698
-695
-695
-692
-693
-691
-689
-689
-686
-687
-684
-683
-682
-679
-675
-675
-673
-669
-669
-666
-663
-661
-658
-658
-653
-651
-648
-646
-643
-639
-635
-631
-627
-621
-620
-615
-611
-605
-600
-597
-593
-591
-587
-586
-583
-584
-581
-582
-579
-582
-584
-589
-593
-602
-609
-618
-631
-637
-648
-658
-669
-679
-685
-694
-698
-705
-709
-713
-718
-716
-719
-721
-725
-723
-723
-724
-725
-724
-723
-725
-724
-725
-725
-725
-725
-723
-723
-723
-723
-722
-723
-722
-721
-722
-721
-721
-721
-722
-719
-719
-719
-719
-719
-717
-717
-717
-717
-717
-717
-717
-717
-718
-717
-717
-718
-717
-718
-717
-717
-717
-718
-718
-717
-717
-718
-718
-719
-717
-719
-718
-718
-718
-718
-718
-719
-719
-719
-719
-719
-719
-718
-719
-719
-717
-717
-716
-718
-717
-718
-718
-718
-720
-717
-716
-716
-715
-711
-708
-703
-703
-702
-703
-705
-703
-700
-699
-697
-694
-692
-692
-693
-695
-694
-697
-698
-699
-701
-703
-708
-711
-717
-719
-720
-723
-723
-725
-725
-725
-725
-725
-726
-726
-726
-726
-727
-727
-725
-727
-725
-725
-723
-723
-722
-721
-719
-719
-707
-691
-679
-650
-594
-529
-514
-518
-523
-528
-541
-598
-697
-771
-842
-876
-849
-813
-783
-753
-735
-722
-714
-705
-698
-697
-695
-693
-695
-691
-690
-688
-687
-687
-685
-683
-682
-679
-679
-677
-677
-674
-673
-669
-669
-669
-667
-665
-663
-663
-659
-658
-655
-653
-648
-646
-645
-640
-639
-635
-632
-629
-626
-624
-618
-616
-611
-609
-603
-599
-595
-592
-589
-583
-581
-573
-573
-567
-568
-561
-562
-557
-561
-559
-562
-563
-573
-578
-590
-599
-611
-621
-633
-646
-653
-664
-673
-680
-687
-693
-699
-702
-706
-705
-710
-711
-711
-713
-713
-713
-713
-715
-713
-714
-714
-715
-716
-714
-715
-714
-714
-716
-713
-714
-713
-714
-713
-713
-713
-713
-713
-711
-713
-712
-713
-713
-715
-714
-714
-715
-715
-714
-714
-714
-715
-714
-715
-714
-714
-715
-715
-715
-715
-717
-715
-716
-716
-715
-715
-717
-716
-716
-717
-717
-717
-719
-717
-717
-717
-718
-718
-718
-718
-718
-719
-718
-718
-717
-717
-717
-717
-717
-715
-716
-715
-716
-715
-716
-715
-714
-711
-709
-704
-701
-704
-701
-703
-704
-702
-698
-697
-695
-691
-689
-689
-692
-694
-695
-697
-699
-698
-701
-704
-709
-711
-718
-721
-721
-723
-726
-726
-725
-726
-727
-726
-727
-726
-727
-727
-727
-729
-727
-727
-727
-727
-727
-726
-725
-725
-724
-719
-720
-711
-697
-684
-659
-605
-541
-519
-528
-533
-537
-549
-595
-685
-767
-845
-877
-847
-815
-782
-757
-739
-727
-719
-711
-701
-701
-700
-698
-698
-695
-695
-690
-691
-691
-690
-687
-686
-685
-684
-682
-680
-680
-677
-675
-674
-672
-669
-669
-667
-664
-663
-662
-659
-657
-654
-653
-650
-647
-643
-642
-637
-634
-632
-626
-625
-620
-618
-611
-609
-606
-601
-595
-593
-589
-584
-583
-579
-578
-573
-573
-571
-573
-571
-577
-576
-582
-583
-593
-600
-610
-623
-633
-645
-653
-664
-671
-681
-687
-693
-698
-702
-706
-708
-711
-711
-713
-715
-715
-717
-718
-718
-719
-718
-720
-721
-721
-719
-721
-721
-721
-721
-719
-722
-721
-721
-721
-721
-721
-719
-721
-719
-721
-719
-719
-719
-717
-721
-721
-721
-719
-721
-721
-721
-723
-721
-722
-721
-723
-722
-722
-722
-723
-723
-723
-722
-723
-723
-725
-722
-722
-722
-723
-722
-723
-723
-723
-725
-723
-724
-722
-723
-723
-724
-722
-722
-721
-721
-721
-721
-721
-721
-719
-719
-719
-718
-719
-719
-719
-718
-719
-719
-721
-719
-719
-719
-717
-718
-721
-719
-719
-717
-715
-710
-707
-705
-705
-707
-707
-707
-703
-701
-698
-695
-693
-693
-693
-695
-695
-695
-699
-699
-702
-703
-709
-713
-718
-724
-725
-725
-727
-729
-730
-730
-731
-730
-731
-730
-730
-731
-733
-733
-733
-732
-733
-731
-733
-731
-732
-730
-729
-727
-727
-724
-717
-704
-689
-677
-639
-573
-519
-519
-526
-528
-535
-567
-648
-746
-822
-882
-886
-853
-818
-787
-757
-742
-730
-721
-710
-703
-701
-701
-697
-695
-695
-694
-692
-691
-690
-689
-689
-686
-685
-683
-682
-682
-679
-678
-674
-673
-671
-669
-667
-665
-663
-661
-657
-655
-653
-652
-647
-647
-642
-642
-637
-637
-634
-630
-629
-623
-618
-613
-611
-605
-602
-597
-593
-589
-584
-583
-578
-581
-575
-575
-571
-570
-570
-570
-571
-571
-575
-578
-585
-591
-605
-614
-627
-637
-647
-658
-669
-680
-687
-693
-698
-703
-708
-711
-714
-716
-717
-718
-718
-719
-721
-721
-719
-720
-721
-722
-723
-722
-723
-723
-724
-723
-724
-725
-725
-725
-724
-723
-724
-724
-724
-725
-725
-723
-724
-726
-724
-725
-725
-723
-723
-725
-725
-725
-727
-726
-725
-725
-727
-726
-727
-726
-727
-729
-727
-727
-726
-727
-728
-729
-729
-727
-729
-727
-731
-730
-729
-729
-729
-729
-729
-730
-729
-730
-731
-729
-729
-729
-729
-729
-729
-729
-727
-727
-727
-726
-726
-727
-727
-727
-727
-725
-725
-726
-725
-725
-725
-725
-725
-723
-724
-725
-725
-723
-725
-723
-725
-723
-724
-723
-722
-721
-719
-718
-714
-711
-711
-711
-714
-711
-709
-705
-705
-701
-699
-698
-699
-701
-702
-702
-701
-706
-707
-710
-714
-718
-723
-727
-730
-731
-734
-735
-735
-735
-737
-737
-738
-739
-739
-738
-738
-738
-737
-738
-738
-737
-737
-737
-737
-735
-734
-733
-733
-730
-728
-722
-707
-693
-680
-652
-593
-527
-516
-527
-533
-538
-565
-638
-723
-794
-865
-889
-870
-837
-801
-773
-749
-734
-723
-716
-705
-702
-699
-699
-698
-695
-694
-693
-691
-689
-690
-685
-687
-686
-684
-682
-679
-679
-678
-677
-674
-673
-671
-669
-666
-665
-665
-661
-659
-658
-653
-653
-648
-646
-641
-642
-635
-633
-631
-626
-623
-619
-615
-611
-605
-600
-598
-595
-589
-587
-579
-580
-575
-574
-571
-567
-565
-564
-563
-562
-567
-568
-573
-575
-584
-589
-600
-611
-623
-634
-644
-657
-663
-673
-680
-686
-693
-695
-700
-703
-705
-707
-708
-710
-711
-711
-711
-713
-714
-714
-714
-714
-716
-714
-717
-715
-715
-717
-716
-716
-716
-715
-716
-717
-717
-715
-716
-713
-714
-714
-714
-713
-713
-714
-714
-714
-713
-714
-715
-717
-716
-715
-716
-716
-717
-717
-717
-718
-718
-718
-719
-719
-719
-719
-721
-721
-721
-722
-722
-721
-721
-722
-722
-722
-723
-723
-724
-723
-726
-723
-723
-722
-723
-723
-722
-723
-721
-721
-720
-721
-719
-719
-719
-719
-719
-719
-719
-719
-718
-718
-718
-718
-717
-719
-718
-717
-717
-718
-716
-715
-715
-715
-715
-715
-714
-714
-714
-713
-712
-713
-711
-711
-712
-711
-713
-711
-711
-713
-711
-711
-713
-712
-713
-713
-713
-713
-713
-711
-711
-713
-711
-711
-708
-706
-703
-701
-701
-701
-702
-701
-701
-697
-695
-690
-690
-689
-691
-692
-693
-695
-695
-701
-698
-699
-704
-708
-713
-715
-718
-721
-722
-724
-723
-725
-725
-723
-725
-724
-725
-724
-723
-723
-723
-723
-722
-723
-725
-723
-721
-721
-720
-718
-718
-715
-712
-707
-695
-682
-667
-631
-564
-509
-499
-507
-511
-515
-531
-597
-697
-775
-855
-875
-847
-808
-774
-748
-725
-711
-701
-691
-683
-681
-679
-678
-675
-674
-673
-671
-669
-667
-667
-664
-663
-662
-661
-659
-657
-657
-654
-653
-648
-649
-647
-645
-643
-641
-641
-635
-635
-631
-629
-625
-623
-622
-619
-618
-615
-611
-607
-605
-602
-597
-594
-589
-584
-579
-576
-568
-563
-557
-557
-553
-549
-547
-543
-542
-539
-539
-535
-536
-536
-541
-541
-549
-552
-565
-577
-590
-602
-614
-627
-637
-649
-658
-667
-674
-679
-685
-685
-691
-694
-695
-699
-697
-699
-700
-701
-701
-702
-703
-701
-703
-703
-703
-704
-705
-706
-706
-706
-706
-708
-707
-709
-710
-709
-708
-707
-709
-709
-710
-710
-710
-710
-710
-711
-710
-711
-711
-711
-711
-711
-713
-712
-713
-713
-714
-715
-714
-715
-716
-717
-717
-719
-719
-719
-719
-719
-721
-721
-721
-721
-722
-723
-725
-725
-725
-725
-726
-725
-726
-726
-725
-725
-725
-725
-725
-725
-725
-725
-725
-724
-727
-725
-725
-725
-725
-725
-723
-724
-724
-725
-723
-724
-725
-724
-723
-723
-723
-723
-723
-723
-723
-723
-722
-722
-722
-723
-722
-721
-721
-722
-721
-721
-721
-721
-719
-721
-719
-721
-719
-719
-719
-719
-721
-719
-721
-719
-717
-721
-721
-721
-721
-721
-721
-721
-723
-721
-723
-722
-722
-722
-722
-724
-721
-723
-722
-721
-717
-714
-713
-714
-713
-711
-713
-710
-707
-705
-701
-699
-699
-702
-700
-702
-701
-705
-707
-705
-709
-714
-718
-722
-725
-729
-731
-734
-734
-735
-735
-735
-735
-735
-737
-735
-735
-735
-735
-735
-735
-735
-735
-733
-733
-733
-733
-730
-730
-727
-725
-722
-714
-699
-687
-670
-625
-558
-518
-524
-529
-533
-541
-584
-673
-757
-830
-879
-873
-838
-805
-774
-748
-735
-721
-713
-701
-695
-693
-693
-690
-690
-687
-686
-683
-682
-682
-679
-678
-675
-675
-675
-673
-669
-670
-670
-663
-663
-661
-659
-658
-655
-654
-650
-649
-645
-643
-641
-639
-637
-635
-632
-627
-626
-621
-620
-614
-609
-607
-602
-602
-597
-592
-586
-583
-576
-571
-569
-565
-563
-557
-557
-553
-554
-552
-556
-555
-558
-559
-565
-570
-579
-588
-600
-613
-623
-639
-647
-659
-667
-674
-682
-686
-693
-697
-701
-705
-707
-708
-710
-711
-713
-715
-715
-714
-714
-716
-717
-718
-718
-719
-719
-719
-719
-718
-717
-719
-719
-719
-722
-720
-721
-721
-723
-721
-721
-721
-721
-721
-721
-721
-721
-722
-722
-721
-722
-722
-723
-723
-725
-724
-725
-726
-727
-729
-727
-729
-729
-729
-731
-730
-733
-733
-733
-734
-733
-731
-733
-733
-735
-734
-735
-734
-736
-735
-737
-735
-735
-735
-735
-735
-735
-735
-737
-735
-735
-734
-735
-734
-735
-735
-735
-735
-734
-735
-733
-735
-734
-734
-735
-734
-733
-733
-733
-729
-734
-733
-732
-734
-731
-732
-732
-734
-731
-729
-731
-731
-731
-730
-730
-729
-730
-730
-729
-729
-729
-729
-730
-729
-730
-730
-731
-731
-731
-730
-730
-731
-733
-731
-730
-731
-731
-730
-731
-731
-732
-730
-730
-727
-723
-721
-719
-719
-717
-719
-718
-717
-714
-711
-707
-707
-710
-710
-711
-715
-712
-715
-713
-715
-719
-725
-728
-731
-735
-737
-739
-741
-741
-741
-741
-741
-740
-740
-740
-740
-740
-739
-741
-739
-739
-739
-739
-737
-736
-735
-735
-731
-728
-723
-711
-695
-682
-662
-615
-541
-512
-521
-531
-536
-561
-622
-716
-786
-851
-894
-878
-847
-812
-776
-753
-738
-725
-714
-704
-698
-697
-695
-693
-689
-689
-689
-687
-686
-683
-681
-679
-679
-677
-677
-676
-675
-673
-669
-669
-667
-666
-663
-661
-660
-656
-655
-652
-652
-648
-646
-643
-639
-639
-635
-634
-630
-629
-625
-621
-617
-613
-611
-603
-602
-597
-593
-584
-579
-573
-567
-567
-563
-562
-557
-556
-554
-555
-552
-555
-557
-561
-566
-573
-581
-591
-602
-613
-625
-632
-645
-654
-663
-673
-679
-686
-690
-695
-698
-703
-703
-705
-707
-709
-711
-711
-711
-711
-713
-713
-713
-715
-714
-714
-715
-712
-715
-715
-715
-715
-716
-715
-715
-716
-716
-717
-716
-715
-718
-715
-715
-715
-716
-715
-715
-716
-715
-717
-713
-716
-715
-714
-714
-714
-716
-717
-717
-717
-718
-719
-718
-721
-721
-723
-721
-722
-721
-722
-723
-723
-723
-725
-724
-725
-725
-726
-725
-727
-726
-726
-726
-725
-727
-726
-723
-725
-726
-725
-723
-725
-725
-725
-725
-725
-725
-723
-725
-723
-725
-723
-725
-725
-723
-725
-722
-723
-722
-723
-722
-722
-722
-722
-722
-721
-721
-721
-721
-723
-719
-721
-719
-722
-719
-719
-719
-717
-718
-717
-719
-718
-718
-717
-717
-718
-716
-717
-716
-717
-717
-717
-718
-719
-718
-717
-718
-719
-721
-719
-718
-719
-720
-719
-719
-720
-718
-715
-713
-710
-710
-709
-707
-707
-706
-705
-703
-700
-698
-695
-695
-698
-699
-701
-702
-703
-703
-706
-707
-713
-716
-720
-722
-725
-729
-729
-729
-729
-730
-730
-729
-729
-729
-729
-730
-731
-729
-728
-729
-727
-727
-727
-727
-725
-722
-721
-718
-713
-701
-687
-674
-643
-583
-522
-510
-517
-519
-523
-539
-603
-703
-784
-862
-878
-845
-812
-780
-751
-732
-718
-707
-699
-689
-689
-686
-685
-684
-682
-680
-679
-678
-677
-675
-674
-673
-671
-669
-668
-666
-664
-663
-661
-659
-658
-658
-655
-651
-651
-648
-647
-643
-643
-642
-641
-634
-633
-627
-627
-625
-621
-618
-613
-611
-603
-602
-595
-594
-589
-586
-583
-579
-578
-570
-568
-561
-561
-555
-556
-553
-552
-551
-551
-551
-551
-554
-557
-566
-571
-585
-594
-609
-619
-631
-643
-651
-663
-669
-675
-682
-688
-691
-694
-697
-698
-703
-703
-704
-705
-706
-707
-707
-708
-709
-709
-710
-709
-711
-710
-710
-711
-710
-712
-711
-712
-711
-712
-711
-711
-714
-715
-713
-713
-713
-713
-713
-715
-713
-714
-714
-715
-714
-715
-716
-715
-715
-715
-717
-716
-717
-718
-714
-717
-717
-719
-719
-721
-722
-722
-724
-721
-723
-723
-723
-725
-725
-726
-725
-727
-727
-727
-728
-727
-727
-727
-727
-727
-727
-726
-726
-726
-726
-726
-726
-727
-727
-726
-726
-727
-726
-726
-727
-727
-726
-726
-726
-725
-725
-725
-725
-725
-725
-725
-725
-725
-725
-725
-725
-724
-723
-725
-724
-724
-725
-723
-723
-722
-723
-721
-723
-722
-722
-722
-721
-722
-721
-721
-721
-721
-721
-721
-721
-722
-721
-722
-721
-722
-721
-721
-721
-722
-721
-723
-722
-722
-723
-724
-723
-724
-725
-723
-723
-722
-718
-716
-713
-712
-711
-711
-711
-710
-709
-705
-703
-701
-697
-697
-702
-702
-702
-703
-705
-706
-706
-710
-715
-717
-722
-724
-726
-729
-730
-731
-730
-731
-731
-731
-731
-730
-732
-730
-731
-730
-730
-729
-728
-730
-725
-725
-725
-723
-721
-717
-710
-695
-682
-664
-626
-559
-517
-516
-521
-524
-533
-563
-644
-729
-803
-868
-867
-837
-801
-769
-747
-730
-719
-707
-697
-689
-689
-686
-684
-682
-680
-679
-676
-677
-675
-673
-673
-673
-670
-668
-666
-663
-661
-661
-661
-658
-656
-652
-650
-648
-646
-645
-641
-639
-637
-637
-637
-633
-631
-627
-626
-620
-616
-615
-613
-609
-602
-600
-597
-593
-589
-583
-578
-573
-570
-565
-559
-555
-552
-549
-549
-543
-546
-541
-542
-540
-545
-547
-553
-559
-567
-578
-589
-605
-616
-632
-639
-653
-661
-669
-678
-682
-689
-693
-697
-701
-702
-705
-707
-709
-707
-708
-710
-711
-711
-713
-714
-713
-713
-713
-714
-714
-712
-715
-715
-715
-714
-716
-716
-715
-717
-714
-715
-714
-714
-714
-714
-714
-714
-716
-716
-718
-717
-719
-718
-719
-719
-720
-721
-721
-721
-721
-723
-723
-723
-725
-723
-725
-725
-727
-727
-727
-727
-727
-727
-727
-727
-729
-729
-730
-729
-730
-731
-731
-730
-730
-731
-730
-730
-729
-730
-729
-730
-729
-731
-729
-729
-729
-729
-728
-730
-729
-727
-727
-728
-727
-727
-727
-727
-727
-726
-727
-726
-726
-727
-725
-725
-725
-723
-723
-725
-725
-725
-726
-725
-723
-723
-725
-723
-723
-725
-723
-725
-723
-725
-725
-725
-725
-725
-725
-725
-725
-725
-726
-725
-725
-726
-725
-725
-719
-716
-717
-717
-719
-717
-716
-715
-713
-710
-709
-707
-708
-710
-711
-711
-711
-713
-716
-716
-719
-725
-727
-732
-733
-737
-741
-742
-743
-742
-742
-741
-743
-742
-743
-742
-741
-742
-741
-742
-741
-742
-741
-740
-739
-737
-737
-733
-731
-720
-704
-690
-676
-637
-575
-525
-529
-540
-549
-561
-605
-689
-770
-832
-885
-887
-863
-831
-799
-767
-747
-734
-724
-714
-707
-703
-701
-700
-700
-698
-696
-695
-695
-691
-690
-689
-688
-685
-685
-683
-682
-680
-678
-675
-675
-674
-671
-669
-667
-664
-661
-659
-658
-655
-653
-651
-649
-645
-643
-642
-637
-634
-630
-627
-621
-621
-616
-611
-607
-603
-600
-595
-591
-586
-584
-579
-577
-573
-573
-570
-568
-566
-565
-565
-566
-570
-571
-580
-586
-596
-603
-617
-626
-638
-649
-658
-669
-675
-685
-691
-697
-702
-705
-710
-711
-714
-715
-717
-719
-719
-719
-721
-722
-722
-722
-725
-722
-724
-723
-723
-723
-723
-721
-721
-723
-721
-722
-721
-722
-721
-721
-722
-721
-722
-721
-721
-722
-721
-721
-721
-723
-721
-722
-722
-723
-722
-723
-724
-723
-723
-723
-725
-725
-725
-725
-725
-725
-725
-727
-726
-727
-727
-727
-727
-727
-727
-728
-729
-730
-731
-729
-729
-729
-730
-729
-729
-728
-727
-727
-727
-727
-727
-725
-726
-727
-725
-724
-725
-725
-725
-722
-723
-723
-723
-722
-723
-723
-721
-724
-721
-722
-719
-721
-719
-719
-719
-719
-719
-719
-719
-718
-718
-717
-718
-719
-719
-719
-718
-718
-718
-718
-718
-717
-719
-717
-718
-717
-717
-717
-716
-716
-711
-709
-705
-705
-705
-706
-706
-703
-702
-701
-698
-697
-695
-697
-699
-701
-701
-701
-703
-703
-705
-709
-713
-716
-721
-725
-725
-727
-729
-729
-730
-729
-731
-729
-730
-729
-730
-729
-730
-730
-728
-729
-726
-727
-726
-725
-725
-721
-719
-715
-710
-691
-679
-657
-607
-538
-513
-519
-523
-524
-533
-568
-661
-747
-817
-874
-869
-833
-805
-770
-743
-725
-712
-704
-695
-687
-687
-686
-685
-682
-680
-679
-678
-677
-674
-673
-671
-669
-669
-667
-666
-664
-663
-661
-659
-658
-654
-652
-648
-647
-645
-642
-641
-638
-634
-632
-631
-627
-626
-625
-621
-619
-617
-613
-609
-605
-599
-594
-589
-583
-578
-574
-572
-565
-562
-559
-557
-553
-551
-547
-547
-545
-546
-546
-546
-549
-549
-557
-559
-567
-573
-586
-596
-610
-619
-633
-643
-652
-663
-671
-678
-683
-689
-694
-695
-699
-700
-701
-705
-703
-705
-706
-707
-707
-708
-707
-707
-707
-708
-710
-710
-710
-710
-710
-710
-709
-710
-710
-710
-709
-709
-710
-709
-711
-708
-709
-709
-711
-710
-710
-711
-710
-711
-710
-711
-711
-713
-712
-712
-713
-711
-713
-715
-714
-716
-716
-717
-716
-717
-717
-718
-719
-721
-719
-719
-719
-721
-722
-721
-721
-722
-722
-722
-721
-721
-723
-721
-721
-721
-721
-721
-721
-721
-717
-721
-720
-719
-719
-719
-721
-719
-721
-718
-719
-719
-718
-719
-717
-718
-717
-716
-717
-716
-717
-715
-717
-714
-715
-714
-715
-715
-714
-714
-714
-714
-713
-715
-714
-713
-714
-713
-713
-713
-715
-714
-713
-714
-713
-714
-714
-715
-715
-715
-715
-714
-714
-714
-714
-710
-706
-704
-703
-703
-703
-705
-706
-701
-700
-697
-697
-693
-693
-694
-697
-699
-699
-702
-703
-703
-706
-710
-714
-717
-722
-723
-725
-727
-727
-729
-729
-731
-730
-730
-729
-730
-730
-729
-729
-729
-729
-727
-727
-726
-725
-723
-722
-721
-716
-707
-691
-679
-658
-611
-537
-501
-509
-514
-517
-525
-557
-649
-745
-823
-886
-878
-838
-806
-771
-748
-731
-717
-708
-697
-690
-689
-689
-685
-685
-682
-682
-678
-677
-675
-674
-673
-669
-671
-670
-667
-667
-664
-663
-661
-659
-657
-653
-654
-651
-650
-646
-646
-642
-641
-637
-633
-632
-627
-627
-622
-622
-615
-611
-608
-601
-601
-595
-594
-589
-584
-580
-576
-573
-567
-563
-558
-557
-555
-555
-550
-547
-546
-549
-548
-550
-550
-555
-557
-567
-575
-583
-594
-603
-617
-627
-640
-650
-659
-669
-674
-682
-685
-691
-694
-698
-702
-701
-705
-706
-707
-707
-709
-710
-708
-710
-710
-711
-711
-711
-711
-711
-711
-712
-711
-711
-710
-711
-710
-711
-710
-710
-709
-710
-711
-711
-711
-711
-711
-711
-713
-713
-714
-714
-714
-713
-714
-714
-718
-717
-716
-716
-717
-718
-717
-717
-717
-718
-718
-719
-718
-720
-721
-721
-719
-719
-721
-722
-721
-720
-723
-723
-721
-723
-722
-722
-722
-723
-722
-721
-722
-721
-721
-721
-721
-720
-719
-721
-721
-720
-721
-719
-721
-719
-719
-719
-719
-719
-717
-719
-717
-719
-721
-717
-718
-717
-719
-716
-717
-716
-717
-716
-714
-716
-714
-717
-715
-714
-714
-714
-716
-715
-717
-715
-717
-717
-716
-717
-717
-718
-717
-720
-717
-715
-711
-709
-706
-707
-707
-707
-705
-703
-703
-701
-699
-697
-695
-695
-697
-700
-702
-701
-706
-706
-707
-711
-714
-719
-722
-726
-730
-730
-733
-733
-734
-733
-733
-733
-733
-733
-733
-734
-733
-734
-733
-732
-732
-731
-731
-730
-730
-729
-727
-724
-718
-708
-690
-680
-653
-599
-533
-519
-527
-531
-535
-555
-615
-711
-788
-858
-888
-867
-832
-802
-770
-749
-731
-722
-711
-702
-697
-694
-692
-690
-687
-686
-687
-683
-683
-682
-680
-679
-678
-675
-674
-674
-671
-670
-667
-666
-665
-662
-661
-658
-657
-654
-651
-650
-647
-645
-643
-643
-637
-635
-633
-629
-629
-621
-619
-615
-613
-608
-605
-599
-595
-593
-587
-583
-576
-573
-569
-566
-562
-563
-562
-559
-557
-556
-555
-555
-557
-561
-567
-571
-581
-589
-602
-611
-626
-635
-647
-657
-666
-675
-682
-688
-692
-697
-702
-705
-709
-710
-710
-714
-713
-713
-714
-716
-715
-717
-717
-717
-717
-717
-717
-715
-717
-717
-717
-716
-716
-717
-715
-718
-718
-717
-717
-717
-717
-717
-718
-718
-719
-717
-718
-718
-718
-717
-719
-721
-721
-721
-721
-721
-721
-721
-721
-722
-721
-723
-723
-725
-725
-722
-725
-724
-725
-725
-725
-725
-725
-727
-726
-726
-727
-729
-727
-727
-727
-726
-727
-727
-726
-727
-726
-725
-725
-725
-723
-725
-723
-725
-721
-722
-723
-722
-725
-723
-723
-722
-723
-722
-719
-721
-721
-719
-720
-719
-719
-719
-719
-719
-718
-719
-718
-719
-719
-719
-718
-721
-719
-719
-718
-719
-719
-721
-719
-717
-718
-715
-712
-711
-707
-707
-706
-708
-707
-705
-703
-701
-699
-697
-695
-697
-699
-701
-701
-701
-703
-703
-707
-711
-715
-719
-725
-725
-729
-731
-733
-733
-733
-733
-732
-735
-733
-735
-735
-734
-734
-734
-733
-733
-733
-731
-731
-731
-729
-727
-723
-721
-705
-687
-674
-650
-595
-525
-508
-518
-529
-535
-558
-629
-725
-797
-859
-892
-867
-836
-799
-769
-743
-730
-718
-709
-698
-693
-693
-690
-689
-688
-687
-685
-683
-683
-679
-680
-678
-677
-674
-674
-673
-669
-669
-666
-666
-661
-660
-658
-657
-655
-651
-651
-647
-645
-643
-643
-641
-635
-634
-630
-629
-625
-622
-618
-615
-611
-605
-605
-598
-597
-587
-583
-578
-575
-573
-567
-566
-560
-562
-557
-557
-555
-555
-554
-555
-557
-560
-563
-568
-578
-585
-595
-605
-619
-629
-641
-651
-661
-671
-677
-684
-689
-694
-697
-701
-704
-704
-707
-707
-709
-710
-712
-711
-711
-711
-712
-711
-713
-711
-711
-710
-711
-711
-711
-711
-711
-712
-711
-711
-713
-713
-712
-711
-712
-711
-712
-714
-713
-713
-713
-713
-711
-711
-713
-713
-714
-713
-712
-713
-713
-713
-713
-713
-713
-714
-714
-714
-711
-715
-716
-715
-717
-715
-716
-715
-719
-717
-717
-717
-718
-718
-717
-718
-719
-717
-719
-716
-717
-716
-717
-716
-715
-714
-714
-714
-714
-714
-713
-713
-713
-715
-712
-711
-712
-713
-711
-711
-710
-711
-710
-710
-710
-710
-710
-708
-709
-709
-710
-709
-708
-709
-709
-710
-709
-709
-709
-709
-709
-709
-713
-709
-708
-708
-707
-703
-700
-698
-696
-697
-697
-697
-697
-694
-693
-690
-689
-686
-686
-688
-690
-691
-693
-695
-695
-697
-700
-703
-708
-714
-717
-718
-720
-721
-722
-723
-723
-723
-725
-724
-726
-725
-725
-723
-725
-723
-723
-723
-722
-721
-719
-719
-717
-715
-716
-707
-693
-679
-662
-621
-552
-507
-511
-518
-519
-526
-553
-627
-719
-803
-869
-867
-834
-797
-768
-739
-725
-713
-704
-695
-689
-689
-687
-684
-685
-682
-680
-679
-678
-675
-674
-673
-671
-669
-669
-667
-667
-664
-664
-661
-659
-657
-653
-657
-653
-651
-648
-647
-643
-642
-641
-638
-633
-630
-629
-626
-621
-619
-614
-613
-607
-605
-599
-595
-591
-587
-583
-577
-573
-569
-565
-559
-557
-556
-554
-548
-548
-545
-547
-546
-549
-551
-552
-559
-567
-576
-584
-597
-609
-623
-631
-646
-657
-666
-673
-678
-684
-689
-693
-697
-698
-700
-700
-703
-703
-703
-706
-703
-706
-705
-707
-705
-707
-707
-705
-707
-706
-708
-707
-708
-706
-707
-706
-706
-706
-705
-706
-706
-707
-707
-708
-711
-709
-710
-709
-711
-710
-710
-711
-711
-711
-711
-711
-713
-714
-714
-714
-714
-713
-714
-714
-715
-713
-714
-717
-716
-717
-715
-718
-718
-721
-719
-719
-719
-719
-721
-719
-721
-719
-720
-720
-719
-719
-719
-719
-718
-718
-718
-717
-718
-718
-717
-717
-716
-717
-718
-715
-715
-714
-715
-713
-715
-714
-714
-713
-713
-713
-711
-713
-711
-712
-711
-711
-711
-710
-710
-711
-711
-711
-710
-711
-710
-711
-711
-714
-711
-711
-711
-711
-711
-711
-713
-711
-711
-711
-710
-709
-705
-701
-701
-700
-701
-701
-701
-698
-697
-695
-691
-689
-689
-692
-693
-694
-697
-697
-698
-698
-702
-707
-711
-715
-718
-721
-722
-726
-725
-726
-725
-725
-725
-726
-727
-727
-727
-726
-727
-726
-727
-727
-726
-724
-722
-722
-719
-719
-715
-710
-695
-683
-669
-637
-570
-516
-514
-521
-523
-529
-554
-633
-729
-804
-868
-874
-837
-805
-773
-746
-732
-716
-707
-695
-689
-687
-687
-685
-685
-682
-681
-679
-678
-677
-674
-674
-671
-669
-669
-669
-666
-664
-663
-660
-659
-654
-655
-653
-651
-649
-646
-646
-643
-640
-637
-635
-633
-629
-626
-623
-621
-617
-615
-609
-606
-601
-597
-593
-587
-585
-579
-573
-567
-565
-562
-559
-554
-551
-547
-546
-546
-545
-545
-545
-547
-547
-553
-557
-567
-575
-590
-599
-613
-627
-637
-649
-654
-666
-673
-680
-685
-692
-695
-699
-700
-703
-704
-706
-707
-708
-709
-709
-708
-711
-711
-711
-711
-711
-711
-711
-711
-710
-710
-711
-710
-711
-710
-711
-713
-713
-711
-713
-713
-714
-715
-715
-716
-714
-716
-715
-715
-717
-716
-717
-717
-718
-717
-717
-718
-716
-719
-719
-719
-719
-721
-722
-721
-725
-723
-722
-723
-723
-725
-725
-724
-723
-723
-725
-726
-725
-725
-726
-726
-725
-726
-726
-725
-724
-723
-724
-723
-723
-725
-722
-722
-722
-723
-722
-722
-721
-723
-721
-721
-721
-721
-721
-721
-721
-718
-719
-719
-721
-719
-719
-719
-718
-719
-718
-719
-718
-719
-721
-718
-718
-718
-719
-718
-719
-717
-720
-719
-719
-721
-719
-718
-716
-716
-713
-709
-709
-710
-710
-709
-709
-705
-703
-702
-698
-698
-696
-701
-701
-703
-703
-705
-708
-708
-713
-716
-721
-725
-727
-730
-733
-735
-735
-735
-737
-737
-737
-738
-737
-737
-738
-737
-739
-737
-737
-735
-736
-735
-734
-733
-733
-729
-727
-718
-703
-687
-674
-644
-579
-517
-514
-527
-537
-545
-582
-661
-750
-819
-882
-894
-867
-831
-797
-763
-745
-731
-721
-711
-702
-698
-697
-695
-695
-692
-690
-690
-687
-689
-685
-683
-680
-680
-681
-678
-677
-675
-673
-672
-669
-669
-664
-665
-662
-663
-658
-657
-654
-651
-650
-646
-647
-643
-642
-637
-634
-631
-627
-625
-618
-615
-610
-610
-603
-599
-594
-589
-585
-580
-578
-573
-573
-569
-567
-562
-565
-563
-567
-566
-568
-573
-578
-582
-590
-599
-608
-622
-631
-642
-653
-664
-673
-679
-687
-693
-701
-702
-706
-710
-711
-713
-714
-715
-716
-718
-718
-718
-718
-717
-718
-718
-718
-718
-717
-718
-718
-718
-718
-719
-720
-721
-719
-718
-719
-719
-719
-719
-719
-719
-718
-718
-719
-717
-718
-717
-719
-717
-719
-719
-719
-719
-717
-719
-719
-721
-721
-721
-721
-721
-725
-721
-722
-721
-723
-722
-722
-723
-722
-725
-724
-725
-723
-723
-725
-725
-726
-725
-725
-725
-724
-723
-723
-723
-722
-724
-721
-722
-722
-722
-722
-721
-721
-719
-719
-721
-719
-719
-719
-718
-717
-718
-719
-717
-719
-717
-718
-718
-718
-718
-719
-718
-717
-717
-719
-717
-717
-718
-719
-717
-718
-717
-716
-716
-714
-711
-708
-706
-706
-706
-706
-705
-703
-701
-699
-697
-695
-694
-696
-697
-699
-699
-701
-703
-703
-705
-710
-714
-717
-721
-725
-727
-728
-730
-730
-730
-730
-731
-733
-731
-733
-731
-733
-731
-731
-730
-730
-730
-731
-727
-726
-726
-725
-721
-716
-703
-689
-677
-648
-587
-525
-517
-527
-529
-533
-554
-625
-715
-786
-854
-871
-845
-810
-778
-750
-731
-719
-711
-701
-695
-691
-690
-690
-686
-687
-685
-683
-682
-682
-680
-678
-676
-674
-675
-673
-671
-669
-668
-667
-663
-663
-661
-657
-657
-653
-653
-648
-650
-647
-645
-641
-640
-637
-635
-632
-629
-627
-621
-621
-615
-613
-605
-602
-597
-592
-590
-585
-582
-573
-573
-568
-567
-562
-563
-561
-561
-557
-557
-557
-558
-561
-563
-570
-575
-587
-595
-609
-617
-630
-639
-650
-661
-667
-678
-684
-691
-693
-697
-701
-703
-707
-706
-709
-709
-710
-710
-710
-711
-711
-711
-710
-711
-710
-710
-711
-710
-710
-709
-711
-711
-710
-711
-711
-712
-711
-714
-711
-713
-713
-713
-713
-712
-712
-713
-714
-713
-713
-713
-714
-715
-715
-715
-717
-716
-717
-715
-717
-716
-717
-718
-717
-718
-718
-719
-721
-719
-719
-719
-721
-721
-721
-721
-721
-721
-721
-722
-721
-722
-721
-722
-721
-721
-721
-719
-719
-719
-719
-719
-718
-719
-717
-718
-717
-719
-717
-717
-716
-717
-717
-717
-717
-716
-715
-714
-715
-714
-714
-715
-715
-714
-714
-714
-714
-714
-714
-713
-714
-714
-717
-714
-715
-715
-713
-713
-713
-714
-713
-713
-711
-707
-703
-702
-703
-703
-703
-702
-701
-699
-695
-694
-693
-692
-693
-695
-697
-697
-699
-702
-701
-703
-709
-713
-716
-721
-723
-725
-727
-727
-729
-727
-729
-729
-730
-729
-730
-729
-730
-730
-729
-729
-727
-727
-729
-726
-725
-723
-723
-718
-712
-698
-685
-667
-629
-561
-519
-519
-525
-529
-535
-559
-639
-731
-807
-872
-874
-840
-810
-775
-750
-734
-721
-713
-700
-693
-692
-690
-689
-689
-687
-685
-684
-683
-679
-679
-677
-675
-675
-671
-669
-667
-664
-663
-664
-661
-659
-658
-653
-655
-651
-653
-647
-647
-645
-641
-639
-635
-635
-631
-631
-626
-623
-621
-618
-615
-610
-605
-599
-597
-591
-587
-582
-578
-573
-571
-569
-563
-562
-561
-561
-557
-557
-553
-557
-557
-562
-564
-573
-578
-589
-599
-609
-618
-630
-645
-655
-667
-673
-680
-687
-691
-695
-698
-701
-703
-708
-707
-707
-710
-711
-711
-711
-711
-713
-711
-712
-711
-713
-711
-712
-711
-711
-713
-711
-713
-711
-711
-711
-713
-713
-716
-713
-714
-714
-716
-715
-715
-715
-715
-716
-717
-716
-717
-717
-717
-718
-718
-717
-717
-717
-718
-719
-719
-719
-719
-721
-721
-721
-721
-723
-721
-721
-721
-722
-722
-722
-723
-723
-724
-725
-723
-723
-723
-724
-723
-723
-721
-722
-722
-722
-721
-721
-721
-720
-721
-721
-719
-721
-721
-719
-719
-719
-719
-719
-719
-717
-718
-716
-717
-717
-717
-718
-717
-718
-715
-717
-718
-717
-717
-717
-718
-717
-718
-719
-718
-717
-718
-719
-718
-717
-718
-718
-717
-717
-716
-713
-709
-707
-708
-707
-707
-709
-706
-703
-699
-700
-697
-697
-697
-701
-702
-702
-705
-704
-707
-708
-715
-718
-723
-725
-729
-731
-733
-735
-735
-735
-735
-735
-735
-735
-737
-736
-735
-735
-734
-735
-734
-737
-734
-734
-733
-731
-729
-727
-723
-711
-693
-680
-655
-600
-535
-517
-527
-531
-538
-563
-637
-726
-802
-878
-897
-873
-835
-801
-773
-749
-737
-723
-713
-702
-698
-695
-695
-693
-691
-690
-689
-687
-685
-685
-682
-682
-679
-677
-675
-674
-673
-669
-669
-667
-669
-665
-664
-663
-659
-655
-653
-653
-651
-648
-647
-643
-641
-637
-635
-630
-629
-625
-621
-615
-611
-611
-604
-603
-597
-595
-593
-589
-585
-582
-578
-574
-573
-567
-568
-565
-566
-563
-567
-565
-571
-575
-582
-587
-597
-607
-620
-631
-642
-653
-663
-673
-679
-687
-693
-697
-703
-707
-711
-716
-717
-717
-717
-719
-719
-719
-721
-720
-721
-721
-721
-721
-719
-720
-721
-721
-719
-719
-719
-721
-721
-720
-721
-721
-722
-721
-722
-723
-723
-722
-721
-722
-722
-723
-723
-723
-723
-723
-723
-723
-723
-725
-725
-726
-725
-726
-726
-727
-727
-728
-729
-729
-730
-729
-730
-728
-730
-731
-731
-730
-731
-731
-731
-733
-734
-732
-733
-732
-731
-730
-731
-730
-730
-730
-730
-730
-729
-730
-730
-729
-730
-728
-729
-727
-727
-727
-727
-727
-727
-728
-726
-726
-725
-725
-725
-725
-725
-725
-725
-725
-725
-724
-725
-725
-725
-725
-725
-727
-726
-725
-725
-725
-725
-725
-725
-722
-721
-717
-713
-714
-713
-713
-713
-712
-710
-709
-707
-703
-701
-702
-704
-705
-709
-707
-708
-711
-715
-717
-721
-725
-729
-733
-735
-737
-738
-739
-739
-739
-741
-742
-741
-741
-742
-741
-741
-741
-741
-739
-740
-739
-738
-739
-736
-735
-731
-729
-719
-702
-685
-667
-625
-557
-514
-519
-530
-538
-550
-596
-686
-765
-833
-891
-885
-859
-819
-787
-759
-742
-730
-721
-713
-703
-701
-700
-699
-699
-697
-695
-694
-691
-690
-690
-689
-687
-685
-683
-682
-681
-679
-677
-675
-673
-671
-669
-669
-665
-665
-661
-658
-653
-654
-653
-648
-647
-645
-642
-639
-635
-632
-627
-627
-622
-616
-611
-608
-603
-597
-594
-589
-590
-584
-581
-575
-573
-566
-567
-565
-563
-565
-566
-566
-567
-572
-573
-583
-589
-602
-611
-623
-632
-645
-653
-661
-671
-681
-687
-691
-697
-702
-703
-707
-709
-713
-715
-714
-715
-714
-716
-715
-716
-717
-717
-717
-717
-717
-715
-717
-716
-715
-715
-715
-717
-715
-717
-717
-717
-717
-717
-719
-717
-717
-717
-718
-717
-717
-718
-718
-718
-717
-717
-717
-717
-718
-718
-718
-717
-719
-719
-719
-721
-721
-721
-721
-721
-721
-721
-721
-723
-721
-723
-722
-724
-723
-723
-723
-722
-723
-723
-724
-723
-723
-722
-722
-722
-722
-721
-721
-721
-721
-721
-721
-721
-721
-719
-719
-719
-721
-719
-718
-718
-718
-718
-717
-717
-718
-717
-716
-715
-715
-714
-715
-717
-716
-715
-713
-717
-714
-715
-714
-715
-716
-717
-717
-715
-715
-716
-715
-715
-713
-713
-709
-706
-703
-703
-703
-703
-703
-702
-700
-698
-697
-695
-689
-692
-693
-695
-697
-698
-699
-699
-703
-704
-710
-713
-718
-721
-723
-725
-726
-727
-728
-728
-727
-728
-729
-729
-729
-728
-729
-729
-729
-727
-727
-727
-727
-728
-725
-722
-722
-719
-713
-698
-685
-666
-625
-555
-518
-519
-525
-525
-533
-561
-644
-737
-812
-874
-871
-835
-802
-768
-745
-730
-717
-707
-699
-691
-691
-689
-686
-685
-681
-680
-678
-676
-674
-674
-673
-669
-669
-669
-669
-667
-666
-663
-661
-661
-657
-658
-653
-651
-651
-647
-646
-640
-641
-637
-638
-635
-632
-631
-626
-626
-620
-618
-611
-609
-605
-600
-597
-593
-589
-585
-583
-578
-576
-570
-567
-563
-560
-561
-557
-558
-554
-555
-555
-557
-559
-565
-570
-576
-579
-587
-595
-605
-618
-629
-641
-648
-659
-667
-674
-682
-687
-693
-697
-700
-702
-706
-706
-707
-709
-711
-710
-711
-711
-711
-711
-713
-713
-713
-713
-713
-714
-713
-713
-713
-714
-714
-711
-713
-712
-712
-716
-713
-714
-713
-716
-715
-715
-715
-715
-715
-715
-717
-717
-718
-718
-717
-718
-718
-719
-719
-719
-721
-721
-722
-721
-722
-723
-722
-723
-725
-723
-722
-723
-724
-723
-725
-725
-725
-725
-726
-725
-726
-727
-725
-726
-724
-725
-725
-723
-723
-722
-723
-722
-723
-723
-722
-723
-722
-724
-721
-722
-722
-722
-722
-721
-721
-719
-720
-721
-719
-719
-719
-719
-719
-719
-719
-718
-718
-718
-718
-718
-718
-718
-720
-718
-718
-719
-717
-718
-718
-718
-719
-718
-718
-718
-719
-719
-719
-719
-718
-717
-713
-710
-708
-705
-709
-708
-709
-706
-704
-702
-699
-701
-697
-697
-699
-703
-703
-703
-705
-706
-708
-711
-717
-719
-723
-727
-730
-731
-734
-734
-735
-734
-734
-734
-735
-735
-738
-736
-735
-735
-735
-734
-734
-733
-733
-731
-731
-729
-727
-725
-720
-709
-694
-683
-654
-595
-531
-521
-527
-530
-533
-555
-613
-709
-787
-861
-885
-859
-822
-791
-763
-743
-731
-721
-711
-702
-698
-698
-697
-695
-693
-691
-689
-688
-687
-686
-683
-682
-679
-679
-678
-677
-674
-675
-673
-670
-669
-666
-665
-663
-659
-659
-657
-655
-653
-653
-648
-646
-643
-639
-637
-633
-633
-627
-625
-623
-616
-615
-611
-605
-602
-599
-594
-591
-584
-579
-577
-571
-569
-566
-565
-561
-563
-561
-562
-562
-563
-567
-567
-573
-575
-586
-593
-605
-615
-627
-638
-648
-658
-667
-677
-684
-691
-696
-701
-704
-706
-710
-711
-713
-714
-714
-716
-715
-715
-716
-715
-718
-716
-718
-717
-718
-717
-719
-719
-718
-718
-719
-719
-720
-719
-719
-719
-721
-720
-719
-721
-721
-721
-721
-721
-721
-721
-722
-721
-722
-721
-722
-722
-722
-722
-723
-726
-722
-724
-725
-725
-725
-725
-726
-727
-727
-728
-727
-727
-727
-729
-729
-727
-729
-729
-729
-729
-730
-730
-730
-730
-729
-730
-729
-728
-729
-729
-727
-728
-729
-727
-727
-726
-725
-725
-725
-727
-725
-725
-725
-725
-725
-724
-725
-724
-724
-723
-725
-725
-725
-727
-725
-725
-723
-725
-724
-723
-725
-725
-725
-725
-724
-725
-723
-723
-721
-719
-716
-714
-713
-713
-711
-712
-713
-710
-708
-706
-703
-701
-702
-703
-706
-706
-707
-709
-710
-711
-714
-717
-722
-727
-731
-734
-735
-737
-739
-739
-739
-740
-741
-741
-742
-742
-742
-744
-742
-742
-741
-742
-739
-740
-739
-739
-738
-735
-733
-730
-718
-701
-689
-671
-625
-555
-522
-533
-541
-549
-566
-621
-711
-787
-859
-899
-887
-862
-826
-797
-767
-751
-737
-727
-717
-708
-705
-706
-703
-701
-702
-699
-697
-695
-695
-693
-691
-691
-687
-687
-683
-682
-680
-679
-679
-675
-677
-674
-673
-669
-664
-664
-663
-664
-661
-658
-654
-651
-648
-643
-643
-637
-634
-630
-627
-625
-620
-615
-611
-605
-597
-597
-594
-589
-587
-582
-581
-575
-573
-570
-568
-565
-566
-565
-566
-567
-569
-573
-577
-583
-589
-603
-613
-626
-635
-647
-657
-664
-675
-679
-689
-695
-700
-706
-709
-713
-714
-716
-718
-719
-721
-720
-721
-721
-723
-724
-723
-725
-725
-724
-724
-724
-724
-724
-727
-724
-724
-725
-726
-725
-725
-725
-725
-723
-724
-723
-723
-722
-722
-722
-722
-723
-722
-723
-722
-723
-723
-723
-723
-723
-725
-725
-725
-727
-725
-726
-725
-727
-725
-727
-727
-727
-727
-727
-727
-726
-727
-727
-727
-727
-727
-728
-727
-727
-727
-727
-727
-727
-726
-725
-725
-723
-725
-723
-722
-722
-721
-722
-721
-721
-722
-721
-721
-719
-721
-721
-719
-719
-719
-719
-719
-719
-719
-718
-719
-719
-718
-721
-717
-719
-718
-719
-717
-715
-711
-708
-705
-704
-703
-704
-703
-703
-701
-698
-695
-695
-693
-693
-691
-695
-695
-697
-699
-699
-701
-704
-710
-713
-716
-721
-725
-725
-727
-727
-729
-729
-729
-730
-730
-730
-729
-730
-729
-730
-730
-729
-729
-729
-729
-727
-727
-728
-723
-722
-718
-713
-695
-685
-661
-613
-543
-517
-522
-527
-531
-541
-582
-674
-754
-825
-875
-865
-827
-795
-763
-743
-729
-719
-711
-701
-699
-697
-695
-693
-693
-691
-690
-689
-687
-687
-685
-685
-683
-680
-679
-679
-678
-674
-674
-671
-669
-669
-667
-666
-663
-662
-658
-657
-653
-650
-651
-647
-645
-640
-637
-635
-633
-631
-625
-623
-618
-616
-613
-608
-605
-599
-595
-587
-584
-578
-578
-573
-570
-568
-565
-563
-560
-559
-557
-559
-557
-557
-558
-562
-565
-573
-583
-592
-603
-613
-626
-637
-650
-659
-670
-678
-683
-689
-694
-699
-702
-704
-707
-710
-710
-710
-713
-713
-711
-712
-713
-713
-713
-712
-714
-713
-714
-714
-714
-715
-715
-715
-714
-715
-715
-716
-714
-715
-718
-717
-716
-717
-719
-717
-717
-718
-717
-717
-717
-717
-718
-717
-718
-718
-718
-718
-717
-719
-718
-719
-719
-720
-721
-720
-721
-721
-721
-723
-721
-722
-721
-722
-722
-721
-722
-722
-722
-721
-722
-722
-723
-723
-722
-722
-721
-721
-721
-721
-719
-718
-719
-718
-718
-718
-717
-717
-718
-717
-716
-717
-718
-716
-717
-715
-715
-716
-715
-716
-714
-716
-715
-715
-715
-715
-715
-714
-715
-714
-715
-714
-714
-719
-715
-715
-714
-713
-711
-709
-705
-703
-703
-704
-704
-705
-702
-699
-697
-695
-693
-690
-690
-693
-695
-695
-697
-697
-699
-702
-705
-711
-717
-719
-722
-723
-727
-727
-730
-731
-730
-731
-730
-731
-731
-732
-731
-731
-731
-732
-733
-731
-731
-731
-729
-729
-727
-727
-724
-721
-714
-701
-687
-673
-634
-567
-525
-522
-529
-530
-537
-557
-628
-723
-795
-869
-881
-847
-815
-781
-757
-739
-725
-716
-705
-696
-698
-694
-691
-691
-688
-687
-686
-685
-683
-680
-681
-678
-677
-674
-673
-671
-670
-667
-664
-663
-661
-661
-659
-655
-655
-652
-651
-647
-646
-643
-641
-639
-635
-634
-630
-627
-625
-621
-621
-615
-614
-609
-605
-602
-597
-595
-587
-584
-578
-577
-573
-570
-566
-562
-557
-554
-554
-551
-554
-552
-557
-555
-561
-563
-573
-581
-593
-602
-614
-626
-635
-647
-657
-666
-675
-682
-689
-693
-697
-700
-702
-705
-706
-710
-709
-711
-711
-711
-711
-711
-713
-711
-713
-711
-713
-712
-713
-713
-713
-713
-713
-713
-714
-714
-714
-715
-715
-716
-717
-717
-715
-717
-719
-718
-718
-716
-718
-717
-718
-717
-718
-719
-719
-719
-719
-721
-721
-721
-721
-721
-722
-721
-722
-722
-723
-722
-722
-725
-723
-725
-725
-725
-723
-723
-726
-725
-726
-727
-725
-727
-726
-726
-725
-725
-725
-724
-725
-723
-722
-723
-723
-723
-722
-722
-721
-722
-723
-722
-722
-721
-722
-721
-721
-721
-721
-721
-721
-722
-721
-721
-721
-721
-721
-721
-722
-722
-721
-721
-721
-721
-721
-723
-721
-721
-721
-721
-721
-717
-713
-711
-710
-709
-711
-711
-709
-706
-703
-700
-698
-698
-698
-701
-703
-703
-703
-705
-707
-709
-712
-718
-723
-727
-730
-733
-737
-737
-739
-738
-738
-739
-739
-741
-741
-741
-740
-740
-741
-740
-739
-738
-738
-737
-737
-737
-733
-735
-727
-721
-704
-694
-676
-643
-579
-525
-525
-533
-535
-545
-581
-665
-755
-823
-884
-893
-863
-832
-797
-770
-752
-738
-727
-717
-707
-703
-703
-701
-699
-698
-698
-695
-693
-693
-691
-689
-687
-688
-686
-685
-684
-682
-681
-678
-677
-674
-671
-670
-667
-667
-665
-663
-658
-657
-655
-651
-651
-649
-647
-643
-641
-636
-631
-631
-626
-625
-621
-618
-612
-609
-605
-599
-597
-593
-591
-584
-585
-581
-579
-578
-573
-573
-571
-573
-575
-579
-579
-586
-587
-597
-603
-611
-621
-631
-643
-653
-663
-669
-679
-687
-694
-699
-703
-709
-710
-713
-717
-717
-719
-722
-721
-721
-721
-725
-723
-724
-725
-725
-725
-725
-726
-727
-726
-725
-725
-725
-725
-726
-725
-725
-725
-725
-725
-724
-727
-725
-725
-724
-726
-725
-725
-725
-725
-725
-725
-725
-725
-725
-725
-725
-725
-725
-725
-727
-727
-729
-727
-729
-728
-729
-729
-728
-729
-731
-728
-729
-729
-730
-729
-730
-730
-729
-729
-729
-730
-728
-730
-729
-729
-727
-727
-728
-727
-727
-724
-726
-726
-725
-725
-725
-725
-725
-726
-725
-723
-725
-725
-725
-725
-725
-723
-723
-724
-723
-724
-725
-724
-723
-722
-723
-722
-722
-719
-717
-714
-711
-710
-713
-711
-711
-710
-707
-705
-703
-700
-700
-698
-699
-701
-701
-703
-703
-706
-706
-710
-713
-718
-722
-725
-729
-730
-733
-733
-733
-734
-735
-737
-735
-735
-735
-735
-737
-735
-735
-735
-735
-734
-733
-733
-732
-731
-727
-725
-718
-703
-690
-678
-645
-578
-518
-513
-525
-529
-535
-564
-645
-735
-813
-883
-887
-858
-820
-784
-758
-741
-727
-718
-707
-699
-697
-695
-695
-693
-693
-690
-689
-689
-685
-684
-683
-679
-679
-678
-678
-675
-674
-673
-672
-669
-669
-667
-665
-665
-661
-660
-657
-655
-653
-648
-648
-645
-645
-639
-638
-635
-632
-630
-625
-621
-615
-615
-611
-605
-602
-597
-595
-589
-585
-578
-577
-573
-571
-567
-565
-565
-562
-562
-559
-562
-563
-570
-570
-575
-583
-594
-603
-614
-624
-633
-645
-653
-664
-673
-679
-687
-691
-697
-699
-703
-704
-707
-709
-708
-710
-710
-710
-711
-711
-711
-711
-711
-713
-713
-716
-713
-715
-713
-714
-714
-715
-715
-714
-713
-713
-714
-713
-714
-713
-713
-713
-711
-713
-712
-713
-713
-712
-711
-712
-713
-713
-714
-713
-715
-714
-713
-714
-714
-715
-715
-715
-714
-715
-717
-715
-715
-715
-717
-717
-717
-717
-715
-717
-717
-717
-717
-717
-718
-719
-718
-717
-717
-717
-715
-715
-714
-715
-714
-714
-713
-714
-714
-712
-713
-711
-713
-711
-713
-713
-710
-713
-711
-713
-713
-711
-711
-711
-714
-711
-713
-711
-713
-711
-711
-713
-711
-710
-707
-703
-701
-699
-699
-699
-701
-699
-697
-693
-690
-689
-686
-687
-687
-687
-690
-691
-693
-695
-695
-699
-705
-709
-713
-717
-719
-721
-722
-725
-725
-725
-725
-727
-727
-727
-727
-727
-727
-727
-727
-727
-727
-727
-729
-725
-725
-723
-722
-721
-717
-711
-695
-684
-666
-621
-554
-518
-519
-523
-527
-535
-571
-662
-745
-823
-881
-865
-831
-797
-767
-746
-731
-721
-710
-699
-695
-695
-693
-693
-690
-690
-687
-687
-685
-683
-682
-679
-678
-677
-675
-674
-671
-671
-669
-669
-665
-664
-661
-661
-659
-656
-654
-652
-653
-648
-646
-643
-641
-641
-638
-635
-629
-626
-623
-619
-615
-611
-607
-602
-599
-593
-590
-587
-583
-579
-575
-573
-569
-569
-567
-566
-564
-566
-565
-566
-565
-571
-573
-582
-587
-597
-607
-621
-631
-641
-652
-659
-670
-675
-680
-688
-690
-697
-698
-701
-701
-703
-705
-706
-709
-707
-709
-709
-710
-711
-711
-711
-710
-711
-713
-712
-713
-713
-713
-712
-713
-713
-713
-712
-713
-715
-713
-713
-713
-714
-714
-714
-714
-713
-712
-713
-713
-713
-714
-714
-714
-714
-715
-717
-715
-716
-715
-716
-717
-716
-718
-718
-719
-718
-721
-718
-718
-719
-719
-719
-718
-719
-719
-720
-721
-719
-721
-719
-719
-719
-719
-719
-718
-719
-717
-717
-717
-716
-716
-719
-715
-714
-715
-716
-715
-714
-714
-714
-714
-715
-714
-715
-714
-714
-714
-714
-714
-714
-716
-716
-711
-715
-713
-712
-709
-705
-702
-701
-705
-703
-703
-702
-699
-695
-694
-689
-689
-689
-691
-693
-693
-695
-697
-698
-702
-706
-713
-716
-721
-723
-725
-727
-728
-732
-729
-730
-730
-731
-733
-733
-733
-733
-734
-733
-733
-732
-732
-732
-731
-730
-729
-727
-725
-721
-713
-697
-683
-665
-618
-546
-511
-516
-520
-525
-537
-584
-686
-775
-855
-897
-871
-839
-805
-774
-751
-736
-725
-715
-703
-701
-699
-698
-695
-694
-692
-690
-689
-686
-685
-683
-682
-680
-679
-678
-675
-674
-673
-671
-669
-667
-665
-662
-659
-658
-656
-653
-653
-651
-649
-647
-645
-643
-641
-637
-633
-630
-627
-624
-622
-616
-615
-609
-605
-601
-597
-593
-587
-584
-578
-577
-574
-575
-570
-569
-566
-565
-563
-564
-565
-567
-571
-576
-581
-590
-601
-611
-630
-639
-653
-663
-675
-683
-689
-695
-699
-704
-707
-709
-712
-713
-715
-717
-719
-719
-719
-719
-721
-722
-721
-723
-725
-722
-722
-724
-723
-723
-723
-723
-723
-722
-723
-724
-723
-725
-723
-723
-723
-723
-723
-723
-723
-723
-723
-724
-725
-725
-725
-727
-725
-729
-725
-727
-726
-726
-726
-727
-727
-727
-727
-727
-729
-729
-729
-730
-729
-729
-730
-731
-731
-731
-731
-731
-731
-731
-731
-730
-730
-730
-731
-731
-729
-729
-729
-727
-727
-726
-725
-726
-726
-726
-725
-725
-725
-726
-725
-725
-725
-725
-725
-725
-725
-723
-723
-725
-725
-725
-725
-724
-724
-725
-725
-725
-722
-721
-718
-714
-713
-712
-713
-713
-713
-709
-706
-703
-699
-701
-702
-703
-701
-703
-702
-706
-710
-710
-714
-718
-723
-727
-731
-734
-735
-737
-737
-738
-738
-739
-739
-739
-739
-739
-740
-740
-740
-739
-739
-739
-739
-741
-737
-738
-736
-735
-731
-721
-705
-693
-677
-641
-573
-519
-525
-538
-545
-559
-613
-701
-785
-853
-895
-887
-855
-821
-785
-759
-744
-733
-726
-714
-706
-704
-703
-702
-701
-699
-697
-695
-695
-693
-692
-691
-689
-689
-686
-685
-683
-680
-680
-678
-678
-673
-673
-669
-669
-666
-663
-659
-657
-655
-651
-649
-643
-642
-637
-635
-630
-627
-625
-618
-615
-610
-609
-603
-602
-598
-594
-589
-586
-583
-579
-579
-573
-577
-571
-573
-571
-573
-571
-576
-575
-582
-587
-595
-605
-616
-627
-639
-651
-659
-671
-679
-687
-695
-699
-704
-706
-710
-713
-714
-715
-719
-718
-718
-719
-721
-721
-721
-721
-721
-721
-721
-723
-722
-722
-722
-723
-722
-723
-723
-722
-722
-721
-721
-721
-722
-723
-721
-721
-721
-722
-721
-721
-721
-721
-721
-721
-721
-721
-721
-722
-722
-721
-722
-722
-722
-723
-722
-723
-722
-722
-722
-722
-723
-722
-725
-722
-722
-722
-723
-723
-723
-723
-722
-723
-722
-722
-721
-722
-722
-721
-721
-719
-719
-719
-719
-719
-719
-718
-719
-719
-717
-717
-718
-719
-717
-716
-718
-718
-717
-717
-716
-715
-715
-718
-716
-715
-714
-713
-711
-706
-704
-702
-703
-703
-704
-703
-701
-697
-698
-693
-692
-693
-694
-695
-695
-695
-698
-698
-701
-705
-711
-714
-719
-721
-723
-726
-726
-727
-729
-725
-729
-729
-730
-729
-731
-731
-730
-733
-730
-731
-731
-731
-729
-729
-727
-726
-725
-721
-711
-695
-683
-658
-605
-533
-507
-512
-516
-518
-533
-582
-688
-774
-858
-892
-861
-823
-791
-758
-740
-723
-716
-703
-698
-697
-697
-694
-694
-691
-691
-689
-687
-686
-685
-683
-682
-681
-680
-679
-678
-675
-674
-669
-671
-669
-667
-665
-661
-659
-655
-655
-651
-651
-648
-646
-643
-639
-636
-631
-630
-627
-624
-618
-616
-613
-605
-602
-597
-595
-589
-586
-579
-578
-573
-568
-566
-562
-561
-557
-561
-559
-559
-558
-561
-562
-570
-572
-582
-591
-604
-615
-626
-639
-649
-661
-669
-674
-683
-689
-697
-701
-703
-706
-708
-710
-711
-713
-713
-713
-713
-713
-714
-713
-715
-713
-714
-713
-712
-715
-715
-716
-715
-715
-715
-717
-718
-716
-717
-715
-717
-717
-717
-717
-717
-718
-717
-718
-718
-719
-719
-719
-719
-719
-719
-719
-721
-721
-721
-721
-721
-724
-722
-722
-722
-725
-722
-723
-723
-722
-723
-722
-724
-722
-723
-723
-724
-724
-725
-725
-724
-725
-724
-723
-722
-723
-723
-722
-722
-721
-723
-721
-721
-721
-721
-720
-719
-719
-718
-718
-718
-718
-718
-717
-718
-717
-717
-717
-717
-717
-717
-717
-717
-717
-717
-717
-718
-717
-717
-719
-717
-717
-717
-717
-714
-713
-709
-705
-703
-703
-705
-705
-703
-700
-698
-694
-691
-689
-693
-693
-693
-695
-695
-699
-702
-702
-707
-711
-719
-722
-725
-727
-730
-731
-730
-731
-733
-733
-733
-734
-734
-735
-735
-734
-735
-731
-733
-733
-732
-731
-729
-729
-725
-727
-722
-715
-701
-686
-667
-622
-545
-502
-505
-511
-515
-525
-565
-663
-759
-843
-895
-878
-841
-805
-768
-747
-733
-721
-713
-699
-695
-695
-695
-691
-690
-687
-686
-685
-684
-682
-680
-679
-677
-675
-674
-673
-671
-670
-667
-664
-663
-661
-659
-655
-655
-652
-651
-647
-646
-643
-639
-638
-635
-635
-632
-630
-625
-620
-618
-613
-611
-605
-602
-597
-594
-589
-586
-580
-575
-571
-566
-566
-562
-558
-554
-555
-551
-552
-553
-557
-557
-564
-567
-575
-583
-597
-607
-619
-632
-642
-653
-665
-675
-682
-689
-695
-698
-703
-705
-709
-708
-713
-714
-714
-714
-715
-716
-715
-715
-715
-717
-715
-716
-717
-717
-716
-716
-718
-717
-718
-718
-718
-717
-718
-718
-718
-719
-719
-719
-721
-723
-721
-721
-721
-721
-723
-723
-722
-723
-723
-724
-725
-724
-727
-727
-726
-726
-729
-729
-729
-730
-729
-729
-729
-730
-732
-731
-731
-731
-733
-731
-732
-731
-733
-733
-733
-733
-732
-733
-731
-731
-731
-731
-730
-729
-730
-729
-730
-729
-729
-729
-729
-729
-727
-730
-727
-729
-729
-729
-729
-727
-727
-727
-727
-728
-727
-727
-726
-726
-726
-727
-726
-727
-727
-727
-727
-727
-729
-727
-727
-727
-726
-724
-723
-719
-715
-714
-715
-716
-715
-713
-711
-707
-703
-702
-701
-701
-703
-704
-705
-706
-708
-710
-713
-719
-723
-729
-734
-738
-739
-740
-743
-743
-743
-745
-745
-746
-746
-747
-745
-743
-747
-745
-746
-745
-745
-743
-742
-742
-739
-739
-737
-733
-721
-703
-687
-669
-618
-548
-513
-523
-530
-538
-555
-615
-711
-793
-865
-906
-887
-855
-818
-787
-759
-745
-733
-725
-713
-709
-707
-706
-703
-706
-701
-699
-700
-698
-697
-695
-693
-690
-689
-688
-687
-686
-683
-682
-680
-678
-675
-673
-671
-668
-667
-663
-663
-661
-659
-658
-654
-652
-646
-649
-643
-640
-637
-634
-631
-626
-625
-619
-617
-609
-604
-600
-597
-593
-589
-584
-579
-577
-575
-579
-574
-578
-575
-582
-579
-585
-587
-593
-601
-609
-617
-626
-643
-652
-663
-673
-681
-691
-697
-704
-707
-713
-715
-717
-721
-722
-723
-725
-726
-725
-725
-725
-727
-727
-726
-727
-727
-727
-727
-727
-730
-729
-729
-728
-727
-727
-729
-729
-727
-729
-728
-727
-729
-727
-729
-729
-729
-727
-729
-727
-729
-730
-727
-727
-729
-729
-729
-729
-731
-730
-730
-731
-730
-730
-731
-731
-731
-731
-731
-731
-731
-732
-732
-731
-733
-732
-735
-733
-734
-735
-735
-734
-733
-734
-734
-733
-731
-731
-731
-730
-730
-729
-729
-728
-727
-728
-727
-729
-727
-727
-727
-726
-726
-725
-727
-727
-726
-725
-725
-725
-724
-725
-725
-725
-724
-725
-725
-725
-725
-724
-725
-723
-723
-721
-718
-716
-713
-713
-711
-712
-711
-710
-709
-704
-705
-701
-700
-699
-703
-703
-703
-703
-705
-707
-709
-714
-718
-723
-729
-730
-733
-735
-737
-738
-738
-738
-739
-738
-738
-742
-739
-739
-740
-740
-739
-738
-738
-739
-737
-736
-734
-733
-731
-728
-719
-703
-689
-669
-624
-551
-510
-511
-519
-520
-533
-569
-662
-751
-827
-891
-883
-850
-814
-781
-757
-739
-726
-717
-706
-700
-700
-699
-697
-695
-693
-691
-690
-690
-687
-686
-684
-683
-680
-677
-678
-677
-677
-671
-673
-669
-669
-665
-663
-663
-659
-660
-653
-653
-651
-647
-645
-642
-643
-638
-637
-632
-630
-627
-625
-619
-614
-613
-605
-603
-597
-591
-587
-579
-579
-573
-573
-566
-566
-559
-559
-557
-557
-557
-555
-557
-557
-562
-565
-575
-582
-594
-602
-615
-626
-639
-651
-659
-672
-678
-685
-689
-694
-696
-701
-704
-705
-706
-707
-708
-710
-710
-710
-710
-710
-711
-711
-713
-713
-713
-713
-713
-715
-712
-714
-713
-714
-712
-713
-713
-713
-714
-714
-713
-713
-713
-714
-713
-714
-712
-714
-713
-713
-713
-714
-714
-714
-715
-715
-715
-716
-718
-717
-717
-717
-717
-717
-718
-718
-717
-718
-718
-717
-717
-718
-717
-718
-718
-719
-719
-719
-719
-719
-719
-719
-719
-721
-718
-719
-717
-719
-717
-716
-716
-715
-717
-716
-715
-715
-715
-714
-713
-714
-714
-715
-714
-713
-713
-713
-713
-713
-713
-713
-713
-713
-716
-713
-714
-713
-713
-711
-713
-711
-709
-706
-702
-699
-699
-701
-701
-702
-699
-697
-695
-691
-690
-688
-689
-691
-693
-694
-694
-698
-698
-702
-704
-707
-713
-718
-722
-722
-725
-726
-727
-727
-727
-728
-729
-730
-729
-729
-730
-730
-730
-731
-730
-730
-729
-729
-731
-728
-727
-725
-725
-719
-711
-694
-683
-659
-609
-539
-511
-514
-518
-520
-530
-566
-653
-749
-831
-888
-883
-841
-805
-771
-749
-735
-721
-713
-702
-697
-695
-694
-691
-689
-687
-686
-685
-682
-680
-679
-677
-677
-674
-675
-673
-671
-669
-669
-667
-666
-664
-663
-659
-658
-658
-654
-650
-647
-645
-645
-640
-637
-632
-632
-629
-626
-625
-619
-618
-611
-610
-605
-601
-597
-591
-589
-582
-582
-574
-569
-562
-558
-554
-552
-549
-547
-547
-546
-550
-550
-556
-555
-562
-567
-578
-587
-599
-611
-623
-638
-647
-659
-666
-675
-683
-689
-695
-699
-703
-705
-710
-711
-711
-713
-713
-714
-715
-716
-717
-717
-716
-718
-717
-718
-718
-718
-718
-718
-717
-717
-717
-717
-718
-718
-717
-721
-718
-719
-720
-721
-721
-721
-721
-721
-721
-721
-722
-723
-721
-723
-722
-723
-724
-725
-726
-725
-726
-726
-727
-727
-727
-729
-729
-727
-729
-728
-728
-729
-729
-729
-730
-729
-730
-730
-731
-732
-731
-731
-731
-731
-731
-730
-730
-729
-729
-729
-728
-729
-729
-730
-729
-727
-727
-729
-727
-727
-727
-727
-725
-725
-725
-725
-725
-725
-725
-725
-725
-724
-725
-723
-725
-723
-724
-725
-723
-725
-723
-723
-727
-723
-725
-723
-725
-724
-724
-724
-725
-723
-724
-725
-723
-723
-721
-719
-715
-714
-713
-714
-713
-711
-711
-710
-706
-705
-703
-701
-701
-705
-706
-706
-707
-711
-711
-713
-717
-721
-727
-731
-735
-735
-738
-741
-743
-742
-743
-742
-743
-743
-743
-744
-744
-743
-746
-743
-743
-742
-743
-742
-741
-741
-739
-738
-736
-733
-729
-714
-701
-687
-663
-601
-533
-514
-526
-527
-533
-551
-619
-717
-797
-875
-905
-883
-851
-813
-785
-761
-747
-734
-725
-713
-704
-703
-703
-701
-701
-699
-697
-695
-693
-693
-691
-691
-691
-687
-687
-685
-680
-682
-678
-677
-674
-675
-674
-671
-669
-666
-666
-663
-661
-657
-653
-653
-650
-647
-645
-642
-641
-637
-637
-631
-627
-625
-621
-618
-613
-609
-605
-602
-597
-591
-587
-582
-582
-575
-575
-571
-573
-568
-570
-567
-570
-571
-573
-578
-583
-593
-599
-610
-618
-631
-639
-648
-661
-668
-677
-686
-694
-699
-704
-709
-711
-714
-717
-719
-719
-719
-721
-722
-722
-725
-724
-725
-725
-726
-727
-726
-727
-726
-725
-727
-727
-726
-727
-727
-725
-726
-727
-727
-727
-727
-726
-726
-727
-726
-725
-727
-727
-726
-727
-729
-727
-727
-729
-729
-728
-729
-730
-730
-731
-730
-729
-731
-731
-731
-732
-731
-731
-731
-733
-731
-731
-733
-733
-734
-731
-733
-733
-734
-733
-733
-734
-733
-733
-733
-731
-733
-731
-733
-730
-730
-729
-729
-730
-729
-731
-729
-729
-727
-727
-728
-727
-729
-727
-727
-729
-727
-729
-727
-727
-727
-728
-729
-731
-729
-729
-730
-730
-729
-729
-727
-726
-722
-719
-717
-717
-718
-718
-718
-715
-713
-709
-707
-706
-702
-706
-707
-709
-709
-710
-713
-713
-719
-721
-725
-729
-733
-736
-738
-741
-742
-743
-745
-745
-745
-746
-747
-747
-746
-747
-746
-746
-747
-746
-747
-746
-746
-747
-746
-744
-742
-740
-733
-720
-702
-691
-669
-619
-547
-522
-533
-545
-550
-574
-639
-730
-803
-863
-905
-898
-867
-834
-795
-768
-753
-741
-734
-724
-716
-713
-714
-711
-711
-709
-707
-706
-703
-703
-703
-702
-700
-700
-698
-695
-695
-691
-692
-690
-687
-688
-687
-682
-678
-679
-677
-669
-673
-671
-669
-664
-663
-658
-658
-658
-652
-649
-643
-640
-634
-630
-627
-623
-621
-615
-614
-608
-605
-601
-597
-594
-588
-587
-583
-583
-578
-578
-574
-578
-577
-579
-581
-589
-593
-603
-610
-621
-637
-647
-659
-667
-678
-686
-694
-703
-710
-717
-718
-723
-727
-731
-731
-733
-734
-734
-734
-737
-737
-737
-737
-737
-737
-737
-738
-736
-735
-738
-737
-738
-737
-739
-737
-735
-735
-737
-738
-735
-735
-735
-737
-737
-734
-735
-735
-735
-734
-735
-735
-735
-735
-733
-734
-735
-735
-737
-735
-738
-737
-736
-737
-737
-737
-736
-737
-739
-737
-735
-735
-737
-735
-735
-734
-735
-736
-735
-735
-735
-736
-733
-734
-734
-733
-733
-733
-733
-732
-733
-733
-733
-733
-733
-734
-734
-735
-733
-733
-735
-734
-734
-733
-731
-731
-731
-731
-727
-723
-721
-718
-717
-715
-718
-717
-714
-713
-709
-707
-703
-704
-707
-706
-706
-706
-707
-709
-714
-715
-716
-719
-724
-729
-730
-733
-735
-738
-739
-737
-739
-738
-738
-737
-737
-739
-739
-739
-737
-737
-737
-738
-738
-735
-735
-733
-732
-730
-729
-723
-711
-693
-683
-663
-624
-567
-530
-539
-557
-580
-605
-663
-736
-791
-842
-877
-873
-849
-813
-778
-750
-729
-722
-714
-708
-701
-700
-700
-697
-694
-695
-693
-692
-689
-688
-689
-686
-685
-680
-680
-680
-678
-675
-673
-669
-664
-667
-666
-666
-661
-659
-659
-653
-655
-653
-654
-648
-648
-646
-642
-643
-637
-635
-631
-627
-627
-623
-617
-613
-611
-605
-605
-597
-595
-589
-586
-582
-578
-578
-575
-573
-573
-575
-571
-573
-574
-581
-582
-589
-597
-605
-615
-621
-633
-640
-652
-657
-663
-675
-680
-685
-689
-694
-693
-697
-701
-699
-698
-698
-701
-702
-702
-701
-700
-702
-699
-702
-701
-701
-700
-698
-701
-699
-701
-701
-699
-699
-698
-702
-697
-698
-697
-697
-695
-694
-695
-692
-691
-692
-691
-691
-691
-693
-692
-693
-691
-692
-691
-693
-694
-693
-693
-691
-691
-693
-693
-694
-691
-694
-694
-695
-697
-695
-695
-695
-695
-697
-698
-699
-697
-699
-698
-699
-698
-699
-698
-699
-699
-698
-697
-697
-697
-698
-695
-693
-689
-687
-685
-685
-687
-687
-685
-683
-684
-684
-683
-680
-680
-683
-683
-685
-685
-687
-689
-690
-693
-694
-698
-701
-703
-703
-707
-708
-708
-709
-710
-709
-710
-709
-709
-709
-710
-710
-709
-710
-709
-710
-707
-707
-709
-706
-705
-702
-697
-683
-669
-655
-635
-588
-530
-522
-535
-549
-558
-587
-650
-723
-774
-820
-845
-827
-799
-766
-733
-710
-698
-691
-684
-683
-680
-682
-679
-678
-679
-677
-677
-677
-677
-677
-675
-675
-674
-675
-673
-671
-670
-669
-669
-663
-664
-663
-661
-659
-658
-659
-657
-658
-653
-653
-650
-645
-646
-641
-639
-632
-634
-631
-626
-626
-620
-618
-612
-610
-603
-597
-595
-589
-588
-580
-579
-574
-573
-567
-569
-567
-567
-563
-565
-567
-568
-573
-577
-587
-593
-602
-609
-621
-631
-641
-650
-658
-669
-674
-682
-686
-690
-694
-696
-699
-701
-702
-704
-703
-705
-706
-706
-705
-706
-707
-703
-706
-705
-706
-705
-704
-705
-703
-705
-704
-703
-704
-704
-705
-701
-702
-702
-701
-701
-700
-701
-699
-700
-698
-701
-700
-698
-701
-700
-701
-699
-699
-700
-698
-699
-699
-699
-699
-698
-698
-697
-699
-699
-701
-700
-697
-702
-701
-701
-700
-700
-701
-700
-706
-702
-703
-702
-704
-704
-704
-704
-703
-704
-703
-703
-702
-699
-699
-697
-693
-693
-690
-692
-693
-694
-689
-687
-687
-685
-685
-683
-685
-685
-687
-689
-689
-690
-691
-695
-698
-701
-706
-707
-710
-711
-714
-717
-715
-717
-716
-717
-717
-717
-718
-717
-717
-717
-719
-717
-717
-717
-717
-717
-715
-715
-713
-710
-704
-691
-680
-665
-630
-562
-527
-531
-535
-538
-541
-562
-626
-711
-780
-849
-862
-829
-797
-763
-734
-715
-705
-701
-695
-693
-695
-694
-693
-691
-690
-690
-687
-688
-687
-687
-687
-684
-685
-683
-683
-679
-678
-676
-673
-673
-671
-671
-667
-667
-664
-663
-661
-658
-658
-655
-655
-651
-648
-646
-643
-643
-637
-636
-630
-627
-622
-621
-618
-613
-609
-605
-603
-595
-594
-590
-587
-582
-579
-575
-573
-574
-573
-575
-574
-579
-579
-589
-594
-605
-611
-621
-635
-647
-659
-665
-677
-685
-690
-697
-701
-709
-712
-714
-716
-718
-719
-718
-720
-719
-721
-721
-722
-721
-721
-722
-721
-722
-721
-721
-721
-721
-722
-722
-722
-721
-720
-722
-719
-719
-720
-721
-719
-718
-719
-719
-719
-719
-719
-719
-717
-719
-719
-719
-721
-721
-722
-721
-721
-719
-720
-721
-720
-721
-720
-721
-722
-721
-719
-719
-721
-719
-721
-721
-721
-721
-721
-722
-721
-721
-722
-722
-723
-722
-723
-723
-723
-721
-722
-721
-721
-724
-719
-718
-714
-714
-711
-709
-709
-709
-710
-709
-705
-706
-703
-702
-699
-698
-699
-701
-704
-702
-703
-705
-707
-709
-713
-717
-721
-725
-728
-729
-731
-730
-732
-731
-732
-733
-733
-733
-733
-733
-734
-733
-733
-733
-734
-733
-733
-732
-732
-730
-730
-729
-724
-716
-700
-687
-658
-595
-536
-527
-534
-538
-541
-555
-611
-713
-794
-867
-887
-862
-825
-794
-764
-745
-733
-723
-715
-710
-709
-706
-704
-703
-704
-701
-700
-698
-698
-697
-695
-695
-693
-691
-689
-687
-685
-683
-683
-679
-679
-675
-676
-675
-672
-670
-667
-667
-663
-661
-659
-657
-654
-649
-648
-645
-642
-638
-632
-630
-626
-626
-620
-618
-613
-610
-605
-602
-599
-594
-589
-586
-586
-582
-583
-578
-579
-575
-577
-578
-583
-587
-595
-605
-614
-627
-635
-650
-661
-671
-680
-688
-697
-702
-709
-713
-717
-719
-720
-722
-725
-726
-727
-726
-727
-726
-727
-729
-727
-727
-727
-729
-728
-729
-730
-730
-730
-729
-729
-727
-729
-729
-729
-729
-727
-729
-727
-729
-728
-727
-729
-729
-730
-727
-727
-729
-729
-727
-727
-727
-728
-727
-729
-727
-728
-727
-727
-727
-727
-729
-727
-729
-727
-728
-727
-727
-727
-727
-727
-727
-728
-730
-727
-729
-727
-729
-727
-729
-729
-728
-729
-727
-729
-727
-728
-727
-727
-729
-727
-727
-727
-727
-725
-725
-724
-719
-717
-714
-714
-713
-717
-716
-713
-710
-708
-705
-701
-702
-704
-703
-705
-705
-707
-710
-710
-714
-719
-723
-727
-730
-733
-735
-737
-738
-739
-740
-738
-739
-739
-739
-739
-739
-739
-739
-741
-739
-740
-739
-740
-738
-737
-737
-735
-734
-730
-725
-707
-697
-676
-627
-553
-518
-523
-527
-531
-541
-578
-678
-773
-853
-901
-885
-845
-813
-781
-759
-743
-734
-725
-716
-711
-711
-709
-707
-706
-704
-703
-701
-701
-701
-698
-697
-695
-695
-691
-691
-689
-686
-686
-684
-682
-679
-678
-677
-677
-674
-671
-670
-667
-667
-661
-661
-657
-655
-653
-648
-646
-642
-637
-635
-633
-627
-621
-618
-614
-613
-607
-606
-600
-599
-594
-591
-590
-589
-587
-583
-583
-583
-587
-589
-592
-595
-606
-614
-625
-634
-646
-655
-667
-678
-684
-693
-698
-705
-709
-713
-717
-720
-723
-725
-726
-727
-728
-729
-729
-729
-730
-730
-730
-730
-729
-730
-733
-730
-730
-731
-730
-730
-730
-729
-730
-730
-731
-730
-729
-729
-730
-730
-729
-730
-729
-730
-730
-729
-730
-731
-731
-729
-730
-729
-730
-733
-731
-731
-731
-732
-731
-731
-731
-731
-731
-731
-731
-730
-732
-731
-731
-733
-731
-733
-731
-733
-732
-733
-733
-731
-734
-731
-731
-730
-732
-730
-729
-729
-729
-729
-727
-727
-727
-727
-727
-727
-727
-727
-728
-727
-727
-727
-727
-729
-727
-727
-727
-725
-723
-721
-717
-714
-715
-715
-716
-715
-711
-708
-706
-703
-701
-702
-701
-703
-705
-705
-708
-709
-711
-715
-719
-725
-729
-731
-733
-735
-737
-738
-741
-739
-739
-739
-740
-742
-741
-742
-740
-742
-741
-742
-741
-739
-741
-738
-739
-737
-737
-735
-732
-725
-708
-697
-678
-631
-557
-519
-523
-525
-530
-541
-586
-684
-772
-845
-900
-887
-853
-819
-787
-763
-746
-736
-726
-716
-710
-710
-707
-706
-705
-703
-701
-701
-703
-697
-697
-694
-694
-692
-690
-690
-688
-687
-685
-684
-680
-679
-678
-677
-675
-671
-671
-669
-667
-664
-662
-659
-655
-651
-648
-648
-643
-639
-637
-633
-630
-626
-623
-618
-613
-605
-603
-599
-595
-593
-588
-587
-583
-579
-575
-575
-571
-571
-573
-575
-579
-587
-591
-603
-613
-625
-637
-647
-659
-669
-681
-687
-695
-702
-707
-713
-717
-719
-722
-723
-724
-725
-727
-725
-727
-727
-727
-729
-729
-729
-729
-732
-730
-729
-730
-730
-729
-730
-730
-730
-730
-731
-730
-730
-730
-731
-730
-729
-730
-730
-731
-730
-730
-730
-730
-731
-734
-733
-733
-733
-733
-733
-733
-733
-735
-734
-735
-735
-734
-735
-735
-736
-735
-736
-735
-737
-735
-735
-737
-735
-735
-735
-737
-737
-737
-740
-737
-737
-736
-737
-735
-734
-735
-733
-734
-734
-736
-735
-733
-732
-733
-733
-733
-733
-732
-732
-731
-731
-733
-731
-733
-731
-731
-731
-731
-730
-730
-730
-731
-730
-730
-729
-730
-727
-726
-722
-721
-718
-716
-717
-717
-718
-714
-711
-708
-706
-703
-703
-703
-706
-706
-706
-709
-712
-713
-716
-719
-723
-727
-731
-734
-735
-739
-738
-739
-739
-740
-741
-739
-742
-739
-742
-741
-743
-742
-742
-743
-741
-743
-739
-739
-738
-737
-735
-733
-729
-717
-701
-690
-665
-605
-536
-515
-525
-529
-533
-558
-637
-734
-799
-868
-886
-861
-826
-793
-765
-744
-731
-723
-713
-704
-703
-701
-701
-699
-697
-695
-693
-693
-689
-688
-685
-685
-684
-683
-681
-679
-678
-675
-675
-673
-671
-667
-667
-664
-663
-663
-659
-657
-653
-653
-648
-647
-643
-641
-637
-631
-629
-621
-621
-615
-611
-609
-605
-602
-597
-595
-589
-591
-585
-581
-575
-575
-573
-573
-570
-568
-568
-567
-571
-573
-579
-584
-595
-605
-617
-626
-639
-650
-659
-669
-675
-683
-689
-695
-698
-706
-707
-709
-711
-713
-713
-715
-715
-717
-717
-717
-717
-717
-718
-719
-719
-719
-719
-719
-718
-719
-717
-721
-719
-721
-721
-719
-719
-719
-721
-717
-718
-718
-717
-718
-717
-719
-718
-719
-718
-719
-719
-719
-721
-721
-722
-721
-722
-723
-723
-725
-725
-725
-725
-727
-726
-727
-726
-727
-727
-725
-727
-726
-726
-727
-727
-729
-727
-729
-729
-729
-727
-727
-727
-727
-727
-725
-727
-726
-726
-725
-726
-726
-727
-726
-725
-726
-725
-724
-724
-723
-726
-724
-725
-723
-722
-723
-722
-722
-721
-722
-721
-721
-719
-720
-721
-720
-719
-720
-719
-719
-719
-721
-718
-719
-718
-719
-718
-718
-718
-719
-719
-718
-718
-719
-719
-719
-718
-719
-717
-719
-716
-716
-713
-709
-706
-705
-710
-707
-708
-706
-701
-699
-697
-695
-695
-697
-697
-699
-699
-702
-703
-705
-709
-713
-718
-722
-724
-725
-727
-731
-730
-731
-731
-732
-733
-733
-731
-731
-731
-732
-730
-731
-730
-730
-729
-729
-729
-726
-726
-725
-723
-719
-718
-713
-701
-687
-671
-634
-568
-514
-509
-515
-518
-525
-549
-629
-722
-800
-867
-869
-837
-797
-768
-743
-727
-714
-705
-695
-691
-690
-687
-687
-683
-682
-679
-678
-675
-674
-673
-669
-669
-667
-667
-663
-662
-661
-659
-659
-657
-655
-652
-651
-648
-648
-645
-643
-643
-639
-638
-635
-635
-630
-627
-623
-618
-620
-615
-613
-605
-603
-597
-591
-589
-582
-579
-571
-569
-563
-561
-555
-553
-549
-551
-546
-546
-545
-547
-549
-551
-557
-562
-568
-579
-589
-602
-616
-627
-641
-651
-662
-669
-675
-682
-686
-691
-695
-697
-700
-701
-703
-703
-704
-707
-706
-705
-707
-708
-707
-709
-709
-710
-710
-710
-709
-709
-710
-710
-711
-710
-710
-710
-709
-710
-710
-711
-711
-711
-711
-711
-713
-711
-714
-713
-714
-713
-714
-716
-718
-717
-717
-717
-718
-718
-719
-719
-721
-719
-721
-721
-722
-723
-723
-723
-722
-725
-723
-724
-725
-725
-726
-725
-727
-726
-727
-726
-727
-729
-726
-727
-727
-729
-729
-727
-727
-727
-728
-727
-729
-729
-729
-729
-727
-729
-728
-729
-729
-729
-729
-729
-729
-729
-730
-729
-729
-729
-730
-730
-729
-730
-730
-729
-729
-729
-729
-729
-729
-729
-727
-729
-729
-729
-727
-729
-729
-727
-728
-727
-729
-727
-729
-730
-729
-727
-727
-727
-727
-729
-726
-727
-727
-726
-727
-727
-727
-726
-727
-727
-727
-727
-727
-726
-724
-726
-726
-726
-728
-727
-727
-725
-727
-725
-727
-726
-727
-726
-725
-725
-725
-725
-725
-725
-723
-723
-722
-721
-719
-715
-712
-711
-709
-708
-709
-707
-706
-705
-699
-697
-695
-699
-701
-701
-701
-702
-703
-703
-707
-712
-714
-719
-721
-725
-727
-728
-729
-728
-728
-726
-728
-727
-727
-727
-727
-727
-727
-726
-725
-725
-723
-721
-721
-720
-719
-715
-715
-713
-704
-689
-675
-657
-612
-537
-495
-499
-503
-508
-516
-557
-658
-749
-817
-874
-866
-829
-797
-765
-738
-721
-709
-699
-688
-683
-680
-679
-677
-675
-673
-671
-669
-669
-667
-665
-664
-663
-661
-659
-658
-657
-653
-653
-650
-649
-645
-644
-642
-641
-639
-635
-634
-631
-631
-629
-627
-626
-621
-621
-615
-611
-609
-605
-600
-597
-594
-589
-584
-578
-576
-571
-567
-561
-558
-555
-551
-549
-545
-545
-540
-541
-535
-537
-535
-541
-542
-547
-551
-559
-568
-581
-593
-603
-616
-626
-638
-648
-658
-667
-671
-679
-682
-687
-689
-693
-696
-697
-698
-698
-700
-701
-701
-702
-703
-703
-703
-703
-704
-706
-706
-705
-706
-706
-707
-709
-707
-707
-707
-708
-707
-707
-709
-709
-709
-709
-709
-709
-710
-710
-711
-711
-709
-710
-711
-711
-713
-713
-714
-714
-716
-715
-717
-717
-719
-719
-719
-719
-720
-721
-722
-722
-723
-723
-725
-724
-724
-725
-726
-726
-725
-727
-726
-727
-726
-727
-727
-726
-726
-727
-725
-725
-727
-727
-726
-727
-726
-729
-725
-727
-729
-727
-730
-729
-729
-728
-729
-729
-729
-729
-726
-730
-730
-731
-730
-730
-730
-729
-733
-730
-730
-729
-730
-729
-729
-731
-730
-731
-730
-731
-730
-730
-731
-731
-730
-730
-729
-730
-730
-729
-729
-731
-730
-733
-731
-731
-731
-731
-729
-731
-730
-731
-731
-731
-730
-731
-730
-730
-730
-730
-732
-730
-730
-729
-730
-730
-730
-730
-729
-730
-729
-730
-731
-729
-730
-729
-729
-727
-728
-727
-729
-729
-727
-727
-727
-729
-727
-727
-727
-726
-727
-725
-723
-721
-717
-714
-711
-711
-711
-713
-710
-709
-701
-699
-699
-700
-703
-704
-705
-703
-704
-706
-706
-711
-714
-718
-721
-724
-727
-727
-729
-729
-730
-729
-728
-729
-731
-729
-727
-727
-727
-725
-726
-725
-725
-723
-722
-719
-719
-718
-714
-713
-701
-685
-671
-650
-599
-531
-501
-507
-509
-513
-526
-586
-686
-763
-841
-881
-857
-823
-785
-758
-734
-719
-708
-697
-686
-682
-681
-680
-679
-675
-674
-671
-670
-669
-667
-664
-662
-662
-657
-658
-657
-657
-652
-652
-650
-649
-646
-644
-643
-639
-639
-635
-632
-631
-627
-626
-621
-621
-615
-614
-610
-607
-605
-601
-597
-589
-589
-583
-582
-578
-573
-568
-562
-559
-555
-554
-547
-546
-541
-542
-538
-539
-536
-538
-537
-541
-541
-547
-557
-563
-574
-583
-597
-609
-621
-633
-642
-653
-661
-669
-675
-680
-685
-689
-693
-695
-697
-698
-701
-702
-702
-703
-703
-705
-703
-705
-706
-706
-707
-706
-707
-709
-708
-707
-708
-708
-707
-709
-709
-710
-708
-709
-709
-709
-709
-709
-709
-708
-709
-710
-709
-710
-708
-711
-711
-713
-713
-713
-713
-714
-717
-715
-717
-717
-718
-718
-719
-719
-719
-721
-721
-722
-721
-722
-723
-723
-725
-725
-726
-727
-727
-727
-727
-729
-728
-729
-727
-727
-727
-727
-726
-726
-727
-727
-727
-727
-727
-727
-727
-729
-729
-730
-730
-729
-731
-729
-730
-730
-729
-730
-731
-730
-729
-730
-733
-730
-731
-731
-732
-731
-732
-731
-731
-731
-731
-731
-730
-731
-731
-731
-730
-730
-730
-731
-731
-730
-730
-731
-731
-730
-730
-730
-731
-733
-731
-731
-732
-731
-731
-731
-731
-730
-730
-731
-731
-730
-730
-731
-731
-730
-730
-729
-731
-730
-730
-729
-729
-729
-730
-729
-727
-729
-729
-728
-727
-727
-729
-726
-727
-727
-727
-727
-725
-726
-725
-727
-726
-726
-727
-723
-725
-723
-723
-723
-723
-721
-717
-717
-711
-711
-709
-710
-709
-708
-705
-699
-697
-695
-698
-699
-701
-702
-701
-701
-703
-703
-708
-713
-717
-719
-721
-725
-728
-727
-727
-727
-727
-727
-727
-727
-727
-727
-726
-725
-725
-723
-722
-722
-721
-721
-719
-717
-715
-713
-704
-689
-675
-659
-619
-546
-498
-498
-506
-509
-518
-549
-634
-727
-798
-870
-870
-839
-803
-773
-746
-727
-713
-702
-690
-682
-681
-681
-679
-675
-674
-673
-669
-669
-666
-664
-659
-662
-661
-659
-658
-655
-655
-651
-651
-647
-645
-643
-642
-641
-637
-637
-632
-631
-627
-626
-623
-623
-622
-617
-615
-609
-607
-605
-601
-597
-593
-591
-586
-586
-578
-573
-567
-563
-562
-557
-557
-551
-551
-547
-547
-541
-543
-541
-543
-541
-547
-549
-551
-557
-562
-570
-578
-590
-601
-615
-626
-637
-647
-655
-664
-672
-679
-682
-686
-691
-693
-697
-697
-699
-701
-702
-702
-703
-704
-706
-705
-706
-706
-709
-707
-707
-707
-708
-708
-707
-707
-707
-709
-709
-709
-707
-708
-710
-709
-709
-710
-710
-711
-710
-711
-711
-711
-711
-713
-713
-712
-713
-714
-714
-715
-716
-717
-716
-717
-717
-718
-718
-719
-719
-718
-721
-721
-721
-722
-722
-723
-722
-723
-723
-723
-725
-725
-727
-725
-726
-727
-727
-727
-726
-729
-727
-727
-727
-727
-729
-728
-729
-729
-729
-729
-729
-729
-729
-729
-729
-729
-730
-732
-730
-730
-730
-730
-730
-729
-730
-731
-729
-729
-730
-729
-730
-729
-730
-729
-730
-730
-730
-730
-729
-731
-729
-730
-730
-731
-730
-730
-731
-729
-730
-729
-729
-729
-729
-729
-727
-729
-729
-728
-729
-729
-729
-727
-729
-729
-728
-729
-729
-729
-727
-728
-729
-729
-729
-727
-729
-729
-727
-727
-729
-729
-727
-729
-727
-729
-729
-728
-729
-729
-729
-727
-727
-728
-728
-727
-725
-723
-719
-717
-713
-713
-715
-713
-711
-709
-707
-701
-700
-701
-701
-703
-705
-706
-703
-706
-707
-709
-713
-717
-721
-723
-726
-729
-730
-731
-729
-730
-730
-730
-730
-731
-730
-729
-729
-728
-727
-727
-726
-725
-723
-722
-722
-721
-718
-714
-705
-687
-677
-657
-614
-538
-506
-509
-517
-517
-527
-570
-669
-754
-824
-882
-871
-835
-804
-770
-746
-727
-714
-703
-693
-686
-685
-683
-681
-680
-678
-678
-675
-674
-673
-671
-669
-667
-666
-663
-663
-659
-658
-657
-654
-655
-651
-650
-649
-647
-646
-643
-642
-639
-637
-633
-631
-629
-626
-625
-621
-619
-610
-609
-602
-597
-594
-587
-583
-576
-573
-568
-566
-563
-559
-557
-552
-551
-547
-548
-545
-545
-540
-541
-536
-539
-539
-543
-546
-552
-557
-567
-578
-588
-602
-611
-627
-638
-647
-658
-666
-674
-679
-685
-691
-695
-698
-701
-703
-703
-706
-706
-707
-708
-707
-709
-710
-710
-710
-709
-710
-710
-714
-711
-711
-711
-713
-713
-711
-713
-713
-713
-713
-713
-713
-713
-714
-714
-713
-714
-713
-715
-714
-716
-715
-715
-715
-718
-717
-717
-717
-718
-718
-719
-719
-721
-721
-721
-721
-721
-721
-721
-721
-722
-723
-723
-723
-724
-722
-725
-727
-727
-727
-727
-727
-727
-730
-727
-727
-729
-729
-728
-729
-729
-729
-729
-729
-729
-729
-729
-729
-729
-729
-728
-729
-729
-729
-728
-729
-729
-729
-729
-729
-729
-729
-731
-729
-730
-727
-729
-727
-729
-729
-728
-729
-729
-727
-727
-727
-729
-726
-727
-727
-726
-726
-727
-727
-727
-726
-725
-727
-727
-726
-726
-725
-725
-725
-725
-725
-725
-725
-725
-725
-725
-724
-726
-725
-725
-725
-725
-725
-725
-726
-725
-726
-726
-727
-727
-725
-729
-726
-728
-726
-727
-728
-727
-727
-727
-725
-721
-717
-715
-715
-715
-713
-713
-711
-709
-706
-703
-700
-699
-700
-701
-706
-705
-706
-709
-707
-710
-713
-716
-721
-724
-727
-729
-731
-733
-732
-732
-733
-733
-733
-732
-733
-731
-731
-730
-731
-730
-728
-729
-727
-729
-726
-725
-723
-719
-715
-704
-688
-677
-653
-597
-529
-506
-514
-516
-519
-535
-593
-690
-772
-851
-887
-867
-835
-797
-771
-745
-729
-715
-707
-694
-688
-685
-683
-683
-680
-680
-678
-677
-673
-673
-671
-669
-668
-666
-666
-661
-661
-659
-658
-657
-653
-655
-651
-648
-647
-646
-646
-641
-639
-637
-634
-632
-629
-628
-623
-623
-619
-616
-613
-609
-607
-602
-599
-593
-592
-587
-581
-575
-571
-567
-560
-557
-551
-549
-545
-541
-542
-541
-541
-540
-541
-540
-545
-545
-549
-554
-565
-573
-585
-597
-607
-619
-627
-640
-651
-661
-669
-674
-683
-688
-693
-698
-699
-703
-703
-706
-705
-707
-709
-710
-711
-711
-711
-711
-711
-713
-713
-714
-713
-714
-713
-714
-715
-716
-715
-715
-717
-715
-715
-717
-717
-716
-715
-715
-715
-715
-716
-717
-716
-715
-718
-717
-717
-719
-719
-719
-719
-719
-721
-721
-722
-724
-722
-722
-722
-725
-723
-725
-725
-725
-725
-725
-727
-727
-729
-730
-730
-731
-731
-731
-733
-733
-731
-731
-732
-731
-732
-732
-732
-732
-734
-733
-731
-733
-733
-733
-733
-733
-734
-733
-733
-733
-733
-734
-733
-733
-731
-734
-733
-733
-732
-730
-732
-733
-733
-732
-732
-732
-731
-733
-729
-731
-731
-731
-731
-730
-730
-730
-730
-730
-730
-730
-729
-730
-729
-730
-729
-729
-729
-729
-729
-729
-729
-730
-732
-730
-730
-730
-730
-730
-729
-729
-731
-729
-731
-730
-730
-731
-731
-731
-730
-730
-730
-731
-731
-731
-731
-731
-731
-731
-730
-729
-725
-723
-718
-718
-718
-717
-718
-717
-713
-711
-708
-706
-705
-706
-707
-710
-711
-711
-713
-712
-713
-716
-721
-723
-727
-730
-733
-734
-735
-735
-737
-735
-737
-735
-737
-737
-735
-736
-733
-736
-734
-734
-733
-732
-731
-729
-729
-727
-724
-721
-709
-695
-682
-664
-618
-552
-520
-527
-531
-533
-547
-597
-687
-765
-835
-882
-869
-839
-806
-778
-751
-736
-722
-713
-702
-695
-691
-690
-689
-687
-685
-683
-682
-679
-675
-675
-674
-674
-669
-669
-669
-669
-666
-663
-662
-661
-660
-655
-654
-653
-651
-650
-648
-649
-646
-647
-643
-641
-638
-632
-632
-629
-627
-621
-621
-619
-615
-611
-605
-601
-594
-589
-584
-582
-577
-574
-571
-567
-564
-559
-559
-557
-557
-553
-557
-555
-559
-557
-562
-568
-574
-583
-590
-602
-611
-624
-632
-644
-653
-664
-675
-681
-686
-691
-695
-699
-702
-707
-707
-710
-709
-711
-711
-714
-714
-714
-715
-717
-715
-715
-715
-717
-716
-717
-716
-717
-717
-717
-717
-717
-718
-717
-718
-717
-718
-719
-718
-717
-718
-718
-718
-717
-722
-719
-719
-720
-719
-719
-721
-721
-721
-721
-722
-721
-721
-722
-722
-723
-723
-725
-725
-725
-725
-724
-727
-727
-729
-729
-731
-731
-731
-734
-731
-733
-732
-733
-732
-732
-733
-731
-732
-731
-731
-732
-731
-733
-731
-731
-731
-731
-733
-731
-731
-731
-731
-730
-732
-731
-730
-731
-731
-731
-730
-730
-731
-730
-731
-730
-730
-729
-730
-730
-729
-729
-729
-729
-727
-727
-727
-728
-727
-727
-727
-727
-727
-729
-727
-727
-727
-727
-726
-727
-727
-727
-727
-727
-727
-725
-726
-727
-725
-725
-725
-726
-726
-727
-727
-727
-727
-727
-727
-727
-727
-729
-730
-729
-727
-726
-725
-719
-717
-716
-717
-716
-716
-715
-711
-711
-707
-705
-701
-703
-706
-707
-709
-709
-711
-711
-713
-719
-721
-723
-727
-731
-733
-735
-737
-736
-737
-736
-737
-737
-737
-738
-735
-737
-736
-735
-735
-734
-732
-733
-733
-731
-729
-729
-725
-721
-713
-697
-683
-664
-619
-554
-519
-526
-531
-533
-543
-587
-680
-755
-830
-885
-873
-842
-806
-775
-751
-733
-722
-713
-702
-696
-693
-690
-689
-687
-686
-683
-682
-680
-679
-677
-673
-673
-669
-669
-669
-666
-665
-663
-661
-658
-657
-653
-651
-650
-646
-645
-642
-643
-639
-636
-635
-631
-631
-626
-623
-621
-619
-615
-610
-605
-600
-599
-594
-589
-582
-579
-573
-568
-566
-562
-559
-554
-552
-546
-549
-546
-547
-546
-550
-549
-549
-554
-557
-563
-568
-579
-587
-602
-613
-627
-635
-646
-658
-667
-675
-682
-688
-693
-698
-702
-703
-706
-711
-710
-711
-712
-714
-712
-713
-714
-714
-715
-715
-716
-715
-717
-717
-717
-717
-717
-717
-718
-718
-715
-718
-719
-718
-718
-718
-719
-718
-723
-721
-719
-721
-721
-719
-719
-719
-719
-719
-720
-719
-721
-721
-721
-722
-721
-723
-723
-725
-725
-725
-725
-726
-727
-730
-728
-729
-728
-730
-730
-731
-730
-732
-732
-733
-733
-733
-734
-733
-734
-733
-733
-733
-731
-732
-731
-731
-733
-732
-733
-731
-732
-732
-733
-731
-731
-731
-731
-731
-730
-730
-729
-730
-730
-730
-729
-729
-730
-729
-729
-730
-728
-727
-727
-727
-729
-727
-727
-727
-727
-727
-727
-729
-727
-726
-727
-727
-727
-726
-727
-726
-725
-725
-725
-726
-725
-726
-725
-725
-725
-725
-727
-726
-727
-725
-727
-726
-729
-727
-727
-727
-728
-729
-729
-729
-729
-725
-725
-721
-717
-716
-717
-717
-717
-717
-713
-711
-709
-702
-703
-702
-705
-707
-708
-708
-710
-713
-711
-715
-718
-723
-726
-729
-732
-734
-737
-737
-737
-737
-738
-738
-737
-738
-737
-736
-735
-735
-735
-734
-733
-733
-734
-731
-728
-727
-726
-721
-710
-694
-682
-661
-611
-536
-512
-518
-523
-526
-541
-589
-684
-764
-839
-893
-880
-848
-813
-775
-749
-733
-721
-713
-700
-693
-691
-688
-687
-685
-683
-681
-679
-679
-677
-675
-673
-671
-669
-669
-669
-667
-666
-663
-662
-659
-657
-657
-652
-653
-648
-648
-643
-643
-639
-635
-635
-631
-630
-627
-623
-620
-615
-615
-609
-608
-601
-600
-594
-589
-584
-581
-581
-575
-571
-565
-563
-557
-556
-554
-554
-553
-551
-550
-549
-553
-551
-557
-557
-569
-573
-583
-593
-603
-615
-623
-637
-646
-658
-666
-675
-681
-686
-692
-695
-699
-703
-703
-707
-709
-711
-710
-712
-713
-713
-713
-713
-714
-714
-715
-716
-715
-715
-714
-715
-715
-717
-716
-716
-715
-717
-719
-715
-715
-716
-717
-717
-716
-716
-716
-716
-715
-717
-717
-715
-716
-717
-718
-718
-718
-719
-719
-720
-721
-721
-721
-722
-723
-723
-724
-726
-725
-725
-725
-726
-726
-725
-727
-727
-729
-727
-729
-727
-729
-729
-727
-729
-727
-729
-727
-727
-725
-727
-727
-725
-725
-726
-726
-726
-729
-727
-726
-726
-726
-726
-726
-725
-725
-725
-726
-725
-725
-724
-723
-725
-723
-724
-722
-723
-722
-722
-722
-722
-722
-723
-721
-721
-721
-721
-721
-721
-721
-721
-719
-721
-721
-721
-721
-721
-721
-721
-721
-721
-721
-721
-719
-722
-722
-722
-721
-721
-722
-721
-725
-722
-721
-718
-715
-711
-711
-712
-712
-711
-709
-707
-705
-703
-701
-699
-700
-703
-705
-703
-704
-707
-707
-709
-713
-719
-721
-723
-729
-730
-731
-733
-733
-734
-733
-735
-733
-733
-734
-734
-734
-732
-733
-733
-733
-731
-729
-729
-729
-727
-723
-722
-715
-701
-683
-673
-637
-571
-513
-511
-521
-523
-530
-558
-637
-733
-807
-879
-885
-855
-818
-783
-757
-737
-723
-713
-702
-693
-691
-687
-688
-686
-685
-682
-681
-680
-679
-677
-675
-674
-671
-669
-669
-666
-667
-665
-663
-661
-658
-657
-653
-653
-650
-649
-647
-643
-641
-637
-635
-632
-631
-626
-625
-623
-620
-616
-613
-611
-605
-605
-597
-595
-593
-587
-584
-579
-577
-570
-568
-563
-562
-557
-557
-554
-552
-547
-550
-550
-552
-554
-557
-565
-569
-582
-590
-599
-609
-623
-635
-647
-657
-664
-674
-680
-687
-692
-697
-699
-703
-706
-707
-708
-713
-711
-713
-712
-713
-713
-714
-714
-715
-716
-715
-716
-715
-716
-715
-716
-716
-716
-716
-717
-715
-717
-715
-717
-715
-716
-715
-715
-716
-717
-716
-715
-715
-717
-717
-717
-716
-718
-719
-719
-719
-719
-721
-722
-722
-722
-723
-722
-722
-724
-725
-725
-725
-725
-726
-725
-727
-727
-729
-727
-729
-729
-729
-729
-729
-729
-729
-728
-729
-728
-729
-727
-727
-728
-727
-728
-727
-727
-728
-727
-727
-727
-727
-728
-726
-726
-726
-727
-725
-725
-723
-725
-723
-723
-723
-723
-723
-722
-723
-722
-722
-722
-721
-723
-721
-722
-721
-721
-721
-720
-720
-719
-722
-720
-719
-721
-721
-721
-721
-721
-721
-719
-721
-719
-721
-721
-721
-722
-721
-721
-721
-721
-717
-714
-711
-710
-711
-713
-713
-711
-707
-707
-703
-700
-698
-701
-701
-704
-703
-703
-707
-706
-709
-711
-716
-720
-723
-725
-727
-731
-733
-733
-733
-733
-735
-734
-736
-733
-733
-733
-732
-731
-731
-732
-730
-730
-729
-728
-726
-725
-721
-714
-702
-686
-675
-643
-582
-518
-506
-514
-518
-524
-545
-621
-721
-807
-878
-891
-863
-823
-791
-761
-741
-725
-715
-703
-694
-691
-689
-688
-686
-686
-682
-682
-679
-679
-678
-674
-673
-669
-667
-668
-667
-664
-662
-662
-659
-659
-656
-655
-654
-651
-651
-647
-648
-645
-643
-640
-637
-637
-631
-631
-625
-623
-617
-615
-611
-605
-603
-597
-594
-589
-587
-582
-582
-577
-574
-568
-565
-562
-557
-557
-554
-555
-554
-555
-552
-557
-557
-563
-568
-577
-585
-597
-604
-618
-627
-637
-648
-659
-669
-677
-683
-690
-694
-699
-702
-704
-707
-709
-711
-711
-713
-714
-713
-715
-714
-715
-714
-715
-715
-716
-716
-717
-715
-715
-715
-715
-715
-715
-714
-715
-715
-717
-715
-715
-717
-716
-717
-716
-717
-717
-717
-717
-717
-718
-718
-719
-718
-719
-719
-720
-722
-719
-721
-721
-722
-722
-723
-723
-722
-724
-723
-724
-723
-725
-725
-725
-726
-727
-727
-727
-727
-727
-726
-727
-726
-729
-727
-725
-725
-725
-725
-725
-725
-724
-725
-725
-723
-725
-723
-725
-723
-722
-722
-722
-722
-722
-721
-722
-721
-720
-719
-721
-721
-721
-722
-719
-719
-718
-719
-719
-719
-719
-718
-719
-719
-721
-718
-719
-718
-719
-718
-719
-721
-720
-721
-719
-721
-721
-719
-719
-713
-710
-708
-711
-710
-711
-710
-707
-705
-702
-699
-697
-699
-702
-703
-704
-705
-708
-707
-710
-713
-718
-721
-725
-729
-731
-735
-737
-739
-737
-738
-738
-737
-738
-738
-738
-738
-737
-738
-737
-737
-736
-735
-735
-733
-732
-730
-728
-722
-709
-691
-678
-655
-602
-531
-509
-522
-529
-535
-557
-629
-723
-794
-862
-894
-875
-843
-807
-776
-753
-739
-726
-717
-705
-701
-698
-697
-695
-693
-690
-689
-687
-685
-685
-683
-682
-679
-678
-677
-675
-674
-670
-670
-668
-666
-664
-662
-662
-657
-657
-653
-652
-649
-648
-647
-643
-642
-637
-635
-631
-629
-625
-621
-619
-614
-613
-605
-602
-597
-591
-589
-584
-583
-577
-574
-569
-566
-564
-561
-559
-557
-557
-555
-557
-557
-563
-562
-568
-573
-582
-589
-599
-612
-625
-638
-646
-658
-667
-675
-680
-687
-694
-697
-703
-705
-706
-709
-709
-711
-711
-713
-714
-713
-714
-714
-717
-714
-715
-715
-715
-715
-715
-716
-716
-715
-717
-715
-716
-716
-717
-716
-715
-716
-717
-717
-717
-715
-715
-715
-717
-715
-716
-715
-717
-718
-716
-715
-717
-718
-717
-718
-717
-717
-717
-718
-719
-718
-718
-719
-719
-719
-719
-721
-719
-721
-719
-721
-721
-721
-725
-722
-722
-722
-722
-721
-722
-721
-721
-721
-720
-719
-719
-719
-719
-719
-718
-718
-716
-717
-716
-715
-716
-715
-716
-714
-716
-715
-715
-717
-715
-715
-715
-715
-715
-714
-714
-713
-714
-714
-714
-713
-715
-714
-714
-714
-713
-714
-714
-713
-713
-712
-711
-707
-707
-702
-703
-702
-705
-703
-702
-699
-698
-697
-694
-691
-691
-691
-697
-697
-698
-699
-701
-702
-705
-711
-714
-718
-722
-723
-727
-729
-730
-733
-730
-730
-731
-733
-733
-733
-733
-733
-733
-733
-731
-731
-730
-730
-729
-727
-725
-723
-721
-713
-699
-684
-668
-631
-567
-513
-509
-517
-519
-527
-554
-637
-738
-813
-883
-891
-859
-821
-789
-761
-742
-726
-715
-703
-694
-691
-692
-689
-690
-687
-685
-684
-682
-679
-678
-677
-675
-672
-671
-669
-669
-667
-665
-663
-659
-659
-656
-655
-653
-651
-651
-647
-646
-643
-642
-639
-637
-633
-629
-626
-621
-618
-613
-609
-607
-602
-601
-597
-594
-589
-586
-582
-575
-574
-567
-565
-559
-557
-554
-553
-549
-547
-547
-550
-549
-547
-552
-553
-561
-565
-573
-581
-595
-606
-618
-631
-639
-654
-661
-671
-678
-685
-692
-695
-701
-703
-707
-708
-710
-713
-713
-714
-714
-715
-715
-715
-719
-717
-717
-717
-717
-717
-715
-717
-717
-717
-717
-716
-716
-715
-717
-716
-717
-717
-717
-717
-717
-717
-718
-717
-717
-717
-719
-719
-717
-721
-719
-719
-719
-721
-720
-721
-721
-721
-721
-721
-722
-722
-722
-722
-722
-723
-723
-723
-725
-723
-724
-723
-725
-723
-728
-726
-726
-726
-726
-726
-725
-725
-725
-723
-723
-722
-723
-721
-721
-722
-722
-721
-721
-721
-719
-721
-722
-721
-720
-719
-719
-718
-718
-721
-717
-718
-716
-718
-717
-717
-717
-715
-716
-716
-716
-715
-715
-715
-715
-715
-715
-715
-714
-716
-715
-716
-717
-716
-717
-717
-716
-716
-717
-715
-714
-711
-707
-705
-705
-703
-706
-705
-703
-702
-700
-698
-695
-694
-693
-695
-699
-700
-700
-702
-704
-703
-707
-714
-715
-719
-722
-725
-727
-729
-730
-730
-731
-731
-731
-730
-731
-730
-731
-730
-729
-729
-729
-729
-727
-729
-727
-725
-724
-721
-719
-711
-698
-682
-666
-625
-557
-513
-514
-520
-522
-529
-563
-653
-744
-818
-881
-877
-849
-813
-781
-755
-735
-724
-712
-702
-693
-689
-689
-689
-686
-683
-682
-679
-679
-677
-677
-674
-674
-671
-670
-669
-667
-668
-664
-663
-661
-659
-658
-655
-655
-651
-650
-646
-643
-642
-637
-637
-633
-633
-629
-626
-621
-620
-618
-610
-607
-601
-597
-594
-589
-587
-581
-579
-573
-568
-562
-563
-557
-555
-551
-549
-551
-549
-551
-549
-551
-549
-552
-555
-562
-567
-578
-589
-600
-614
-626
-639
-647
-659
-669
-677
-683
-688
-694
-697
-702
-705
-707
-709
-711
-711
-711
-711
-713
-712
-713
-713
-713
-714
-715
-715
-715
-717
-717
-718
-718
-718
-717
-717
-717
-716
-718
-718
-718
-719
-717
-719
-719
-721
-719
-719
-720
-719
-719
-721
-720
-721
-719
-721
-721
-721
-721
-722
-723
-722
-723
-724
-725
-726
-725
-725
-724
-725
-727
-725
-727
-726
-727
-726
-728
-729
-729
-729
-729
-729
-728
-729
-727
-727
-727
-727
-727
-727
-726
-725
-725
-726
-725
-725
-725
-725
-725
-727
-725
-723
-724
-725
-725
-724
-725
-725
-724
-723
-723
-722
-723
-724
-725
-724
-724
-725
-725
-725
-723
-725
-725
-723
-724
-719
-719
-714
-716
-714
-713
-713
-713
-711
-709
-707
-705
-703
-701
-702
-707
-707
-708
-709
-711
-713
-715
-718
-721
-724
-729
-733
-735
-739
-739
-739
-740
-741
-740
-740
-740
-743
-743
-742
-742
-742
-743
-742
-742
-741
-741
-741
-739
-737
-733
-733
-725
-710
-694
-682
-657
-600
-536
-525
-540
-550
-562
-595
-674
-759
-821
-882
-896
-877
-850
-812
-785
-759
-745
-733
-725
-713
-706
-703
-703
-701
-699
-701
-697
-697
-695
-694
-691
-689
-689
-686
-685
-683
-682
-680
-678
-677
-675
-677
-673
-673
-672
-669
-666
-663
-665
-661
-659
-657
-653
-651
-647
-647
-643
-642
-637
-634
-631
-625
-625
-619
-617
-610
-605
-602
-597
-597
-591
-589
-584
-584
-579
-581
-577
-573
-573
-573
-579
-581
-584
-586
-595
-600
-611
-619
-629
-642
-653
-664
-671
-682
-689
-695
-702
-706
-711
-714
-717
-719
-719
-722
-723
-723
-725
-725
-728
-725
-727
-727
-728
-729
-729
-729
-727
-730
-729
-729
-728
-729
-729
-729
-730
-729
-729
-729
-728
-726
-727
-729
-727
-727
-727
-727
-728
-729
-728
-726
-727
-727
-727
-729
-727
-729
-729
-729
-729
-729
-729
-729
-731
-730
-729
-729
-730
-730
-729
-731
-730
-730
-733
-731
-731
-731
-731
-731
-730
-730
-729
-729
-727
-727
-727
-726
-726
-726
-725
-726
-725
-724
-723
-724
-723
-723
-723
-722
-722
-722
-722
-723
-722
-721
-722
-722
-721
-721
-719
-721
-722
-720
-721
-721
-721
-719
-719
-717
-714
-710
-708
-707
-707
-708
-708
-705
-704
-699
-698
-695
-697
-694
-697
-697
-701
-700
-701
-703
-703
-709
-713
-717
-721
-723
-726
-727
-729
-730
-730
-730
-731
-732
-732
-733
-732
-734
-733
-731
-732
-732
-730
-729
-729
-729
-727
-727
-725
-721
-717
-703
-689
-675
-637
-571
-519
-514
-522
-523
-527
-547
-621
-716
-795
-868
-879
-849
-814
-780
-753
-733
-721
-711
-701
-695
-694
-693
-692
-689
-689
-687
-686
-685
-683
-682
-680
-678
-677
-674
-674
-669
-671
-669
-669
-666
-665
-662
-658
-658
-653
-653
-648
-647
-643
-639
-637
-634
-633
-630
-630
-627
-623
-622
-616
-614
-609
-606
-600
-594
-589
-584
-582
-573
-573
-565
-563
-555
-552
-551
-550
-547
-547
-549
-548
-550
-551
-557
-559
-568
-575
-589
-597
-610
-622
-633
-645
-654
-666
-671
-681
-686
-690
-697
-699
-702
-703
-705
-707
-707
-709
-709
-708
-708
-709
-710
-710
-713
-709
-713
-713
-714
-713
-713
-715
-712
-714
-713
-713
-714
-713
-714
-713
-713
-713
-713
-713
-713
-713
-713
-713
-714
-714
-714
-714
-712
-715
-715
-714
-715
-716
-715
-716
-718
-717
-717
-717
-718
-716
-718
-717
-717
-717
-718
-719
-718
-719
-718
-719
-719
-719
-719
-719
-719
-717
-718
-718
-717
-719
-716
-716
-715
-716
-714
-714
-714
-715
-716
-715
-715
-712
-714
-713
-711
-713
-713
-713
-711
-712
-711
-713
-713
-713
-713
-713
-713
-712
-714
-713
-712
-713
-711
-708
-705
-703
-701
-701
-702
-701
-702
-700
-697
-695
-690
-689
-687
-689
-691
-693
-693
-695
-697
-698
-701
-705
-710
-716
-718
-719
-722
-723
-726
-727
-727
-727
-727
-729
-729
-730
-730
-730
-729
-730
-730
-729
-730
-729
-729
-727
-726
-725
-725
-722
-718
-707
-692
-679
-647
-585
-518
-514
-519
-521
-529
-547
-610
-714
-797
-868
-887
-859
-823
-790
-762
-743
-727
-716
-706
-698
-695
-697
-693
-692
-690
-687
-687
-685
-684
-683
-682
-680
-679
-679
-677
-677
-674
-674
-673
-669
-669
-669
-667
-663
-661
-659
-654
-655
-651
-651
-645
-646
-643
-640
-637
-633
-631
-626
-625
-618
-615
-609
-605
-603
-597
-595
-588
-583
-575
-573
-567
-566
-559
-557
-557
-552
-551
-549
-549
-549
-551
-551
-558
-563
-575
-584
-598
-605
-620
-635
-647
-659
-666
-677
-682
-690
-695
-699
-703
-703
-707
-708
-709
-712
-714
-712
-710
-711
-712
-712
-713
-713
-713
-713
-714
-715
-714
-715
-715
-716
-715
-715
-715
-716
-717
-715
-715
-715
-715
-717
-716
-717
-715
-717
-715
-716
-716
-715
-716
-716
-717
-717
-718
-718
-718
-719
-719
-719
-719
-719
-716
-719
-721
-720
-721
-721
-721
-721
-723
-723
-721
-722
-722
-723
-723
-722
-722
-722
-723
-722
-721
-721
-721
-719
-719
-721
-719
-719
-718
-719
-718
-717
-717
-719
-717
-717
-717
-718
-715
-715
-715
-715
-715
-715
-715
-714
-714
-715
-715
-716
-715
-715
-715
-715
-716
-717
-715
-715
-714
-713
-710
-707
-707
-703
-703
-704
-705
-701
-699
-698
-695
-693
-691
-691
-693
-695
-695
-697
-699
-700
-702
-707
-711
-717
-719
-725
-727
-727
-730
-730
-731
-733
-731
-732
-732
-735
-734
-735
-734
-733
-734
-733
-734
-733
-734
-731
-731
-729
-727
-726
-722
-715
-697
-685
-667
-625
-550
-516
-521
-529
-530
-542
-589
-685
-771
-837
-891
-885
-850
-817
-782
-757
-741
-727
-719
-707
-700
-695
-697
-695
-693
-690
-690
-689
-687
-684
-684
-683
-680
-681
-679
-678
-676
-673
-673
-669
-669
-669
-667
-664
-661
-660
-657
-657
-653
-652
-648
-646
-643
-640
-635
-631
-630
-626
-623
-619
-614
-613
-607
-605
-597
-594
-588
-584
-581
-576
-573
-570
-567
-566
-566
-562
-563
-559
-562
-562
-562
-563
-570
-575
-583
-588
-597
-611
-621
-635
-647
-658
-666
-675
-685
-690
-697
-701
-706
-709
-710
-713
-713
-715
-716
-717
-718
-717
-718
-719
-721
-721
-722
-720
-721
-721
-721
-722
-721
-722
-721
-722
-723
-721
-722
-721
-722
-723
-721
-722
-722
-722
-721
-722
-723
-722
-723
-725
-723
-723
-725
-723
-724
-725
-725
-725
-725
-727
-727
-727
-728
-727
-727
-727
-727
-727
-727
-729
-726
-728
-727
-729
-729
-729
-730
-729
-733
-730
-730
-730
-729
-730
-727
-729
-727
-727
-727
-727
-727
-727
-727
-726
-726
-727
-726
-726
-725
-726
-725
-725
-725
-727
-726
-725
-725
-726
-725
-725
-725
-726
-725
-725
-726
-726
-726
-725
-724
-719
-717
-715
-714
-714
-714
-713
-712
-710
-707
-705
-703
-701
-705
-704
-705
-704
-705
-707
-710
-713
-715
-719
-723
-727
-730
-734
-737
-738
-740
-739
-739
-739
-741
-740
-741
-742
-741
-742
-742
-741
-742
-743
-741
-739
-741
-740
-737
-737
-733
-729
-718
-701
-689
-671
-626
-558
-525
-539
-557
-571
-592
-653
-742
-807
-866
-899
-882
-859
-821
-789
-758
-743
-731
-723
-714
-709
-706
-705
-703
-701
-701
-698
-698
-697
-697
-694
-693
-690
-690
-691
-689
-686
-685
-685
-682
-679
-679
-678
-677
-673
-673
-669
-669
-666
-663
-662
-658
-657
-651
-650
-646
-643
-638
-634
-632
-629
-627
-622
-620
-615
-609
-605
-602
-600
-593
-593
-587
-585
-581
-579
-577
-577
-578
-578
-582
-584
-590
-594
-603
-610
-621
-627
-639
-650
-660
-669
-678
-689
-694
-702
-703
-709
-713
-716
-719
-721
-722
-725
-724
-726
-726
-729
-729
-729
-729
-727
-729
-728
-729
-727
-727
-727
-729
-729
-727
-728
-727
-727
-729
-725
-726
-725
-726
-725
-725
-724
-724
-723
-723
-723
-723
-723
-722
-721
-722
-722
-722
-722
-722
-722
-722
-723
-721
-725
-722
-723
-723
-723
-722
-723
-723
-725
-724
-725
-725
-725
-725
-724
-725
-722
-723
-723
-723
-722
-718
-721
-721
-721
-719
-719
-719
-719
-721
-719
-718
-718
-719
-717
-716
-717
-716
-718
-717
-717
-716
-717
-717
-717
-716
-717
-717
-714
-714
-711
-710
-706
-703
-703
-701
-703
-702
-704
-699
-697
-695
-691
-690
-690
-691
-692
-693
-693
-695
-697
-698
-703
-707
-711
-715
-717
-720
-721
-723
-725
-724
-725
-726
-726
-725
-726
-726
-726
-726
-727
-725
-725
-725
-725
-723
-722
-721
-721
-719
-717
-713
-701
-687
-674
-645
-584
-525
-515
-521
-525
-529
-541
-597
-690
-767
-842
-871
-846
-814
-780
-754
-732
-717
-709
-701
-693
-693
-692
-691
-690
-687
-687
-685
-683
-681
-681
-677
-678
-675
-674
-671
-669
-669
-666
-665
-664
-661
-661
-658
-657
-654
-651
-650
-646
-646
-641
-638
-634
-633
-629
-625
-624
-619
-617
-610
-607
-604
-602
-599
-594
-590
-584
-583
-575
-573
-568
-566
-561
-557
-551
-547
-547
-545
-547
-545
-546
-546
-551
-554
-562
-567
-577
-587
-599
-611
-621
-637
-646
-659
-667
-674
-680
-686
-690
-693
-697
-697
-698
-700
-701
-701
-701
-701
-703
-702
-704
-703
-704
-703
-708
-705
-705
-707
-706
-707
-707
-707
-707
-707
-707
-707
-708
-706
-707
-706
-706
-707
-707
-708
-707
-707
-708
-709
-709
-707
-709
-707
-707
-710
-708
-710
-709
-711
-709
-711
-711
-709
-711
-711
-712
-710
-711
-711
-711
-713
-711
-713
-711
-712
-712
-713
-714
-713
-715
-713
-711
-711
-711
-711
-710
-710
-709
-709
-709
-709
-709
-707
-708
-707
-707
-708
-707
-707
-707
-706
-707
-707
-707
-707
-708
-706
-708
-709
-708
-708
-706
-708
-707
-707
-706
-706
-706
-703
-699
-695
-695
-694
-695
-695
-695
-693
-689
-687
-684
-683
-683
-685
-684
-686
-688
-690
-691
-693
-697
-701
-707
-710
-714
-715
-717
-719
-721
-721
-722
-723
-725
-725
-725
-726
-725
-727
-727
-726
-727
-726
-725
-726
-724
-723
-723
-721
-719
-716
-704
-690
-677
-653
-601
-531
-504
-512
-515
-520
-530
-576
-671
-765
-846
-898
-877
-840
-798
-767
-743
-729
-718
-707
-697
-694
-693
-691
-689
-689
-689
-686
-686
-683
-684
-680
-679
-679
-677
-675
-673
-672
-669
-667
-667
-664
-664
-659
-659
-657
-653
-653
-649
-648
-647
-646
-642
-641
-637
-634
-630
-625
-625
-621
-619
-615
-609
-605
-601
-597
-593
-589
-586
-583
-575
-573
-566
-565
-563
-561
-559
-557
-557
-555
-557
-557
-562
-563
-573
-578
-589
-597
-612
-621
-634
-647
-657
-668
-674
-683
-689
-690
-697
-701
-704
-707
-708
-710
-710
-711
-711
-713
-711
-713
-713
-713
-714
-713
-715
-714
-714
-714
-714
-714
-715
-717
-717
-716
-717
-715
-719
-717
-718
-717
-719
-717
-717
-718
-717
-719
-719
-719
-719
-721
-721
-719
-719
-721
-721
-721
-721
-721
-722
-723
-723
-723
-722
-722
-723
-725
-723
-723
-724
-724
-725
-725
-725
-726
-725
-726
-726
-726
-726
-727
-727
-725
-726
-725
-724
-723
-724
-725
-723
-723
-725
-722
-722
-722
-722
-721
-721
-721
-722
-721
-721
-721
-719
-719
-719
-721
-721
-719
-720
-719
-721
-718
-720
-721
-721
-719
-719
-721
-719
-722
-719
-719
-719
-715
-713
-710
-709
-707
-708
-709
-710
-705
-701
-701
-697
-695
-695
-697
-698
-698
-701
-702
-703
-706
-711
-715
-721
-726
-730
-731
-733
-734
-735
-735
-737
-737
-736
-739
-738
-741
-739
-740
-739
-739
-739
-738
-739
-737
-737
-735
-735
-733
-730
-729
-713
-697
-685
-663
-610
-541
-523
-533
-539
-545
-568
-638
-730
-807
-877
-901
-877
-843
-806
-775
-751
-741
-729
-719
-708
-703
-703
-702
-702
-699
-697
-695
-697
-693
-693
-689
-690
-687
-686
-685
-684
-682
-681
-679
-678
-675
-673
-671
-671
-669
-666
-665
-663
-658
-657
-655
-651
-647
-643
-642
-637
-634
-632
-629
-626
-622
-619
-613
-613
-609
-605
-601
-596
-593
-586
-582
-575
-576
-573
-571
-567
-569
-566
-570
-571
-573
-578
-583
-591
-596
-609
-618
-633
-642
-653
-663
-673
-680
-686
-693
-698
-703
-709
-711
-715
-716
-719
-721
-721
-721
-723
-725
-723
-723
-723
-724
-725
-726
-726
-725
-726
-726
-727
-727
-727
-727
-727
-727
-727
-727
-726
-727
-727
-726
-727
-726
-730
-727
-727
-726
-729
-729
-729
-729
-728
-729
-729
-729
-729
-730
-730
-731
-730
-731
-730
-731
-731
-729
-731
-730
-731
-730
-731
-731
-732
-735
-733
-732
-731
-734
-733
-735
-734
-734
-733
-731
-731
-731
-732
-730
-730
-729
-730
-730
-729
-730
-729
-729
-727
-727
-731
-729
-729
-727
-729
-728
-727
-727
-728
-729
-727
-727
-725
-727
-728
-727
-727
-727
-728
-726
-727
-727
-729
-726
-723
-722
-717
-715
-716
-718
-717
-714
-714
-710
-707
-705
-705
-705
-706
-707
-709
-708
-710
-713
-713
-717
-722
-725
-729
-733
-734
-738
-738
-739
-740
-741
-741
-741
-744
-741
-742
-742
-742
-743
-742
-742
-741
-742
-741
-741
-739
-737
-737
-734
-727
-715
-701
-690
-669
-623
-557
-533
-547
-562
-573
-599
-667
-750
-807
-862
-890
-870
-845
-808
-776
-755
-739
-729
-721
-713
-707
-707
-704
-705
-700
-701
-700
-698
-698
-695
-695
-693
-695
-691
-690
-687
-686
-685
-682
-682
-679
-678
-676
-675
-673
-669
-669
-667
-666
-664
-659
-658
-654
-654
-648
-646
-645
-641
-637
-633
-631
-625
-621
-616
-613
-609
-604
-602
-597
-594
-589
-588
-585
-582
-577
-578
-575
-576
-575
-575
-579
-581
-589
-591
-601
-609
-620
-630
-641
-652
-659
-669
-675
-684
-689
-695
-701
-705
-709
-711
-715
-715
-717
-717
-718
-719
-719
-719
-719
-719
-720
-721
-721
-721
-722
-723
-721
-721
-721
-722
-721
-721
-721
-719
-720
-719
-721
-720
-719
-719
-719
-718
-717
-718
-719
-718
-719
-717
-717
-718
-721
-718
-717
-718
-718
-719
-717
-719
-719
-719
-719
-718
-719
-718
-720
-719
-721
-721
-719
-721
-720
-718
-721
-721
-721
-721
-721
-721
-722
-723
-719
-719
-718
-719
-719
-718
-717
-717
-717
-715
-716
-715
-716
-715
-714
-714
-714
-715
-713
-713
-714
-713
-712
-712
-715
-713
-713
-713
-713
-713
-713
-713
-713
-713
-714
-713
-713
-711
-711
-709
-706
-703
-700
-699
-699
-699
-701
-700
-697
-694
-693
-691
-690
-687
-691
-691
-692
-691
-694
-697
-697
-701
-707
-710
-715
-718
-721
-722
-725
-727
-725
-727
-727
-727
-727
-727
-729
-727
-729
-727
-728
-729
-730
-727
-726
-725
-725
-724
-722
-719
-715
-702
-689
-671
-631
-559
-515
-512
-519
-522
-527
-545
-621
-719
-795
-873
-880
-842
-807
-774
-749
-729
-717
-709
-699
-695
-694
-693
-693
-689
-689
-687
-685
-684
-682
-679
-680
-679
-677
-673
-672
-671
-668
-667
-665
-666
-660
-661
-659
-657
-657
-653
-653
-648
-647
-645
-642
-641
-637
-635
-632
-631
-627
-625
-621
-615
-615
-611
-607
-601
-597
-594
-588
-583
-578
-574
-567
-566
-561
-559
-557
-557
-553
-551
-551
-548
-551
-551
-557
-562
-573
-579
-593
-605
-615
-626
-637
-650
-658
-669
-675
-685
-690
-693
-698
-699
-703
-703
-705
-707
-707
-709
-708
-709
-709
-710
-710
-710
-711
-711
-711
-711
-711
-713
-711
-712
-712
-713
-713
-714
-714
-713
-713
-714
-715
-714
-713
-714
-713
-713
-714
-715
-717
-714
-715
-715
-716
-715
-716
-716
-716
-717
-716
-717
-719
-718
-719
-717
-719
-718
-719
-719
-719
-719
-719
-721
-719
-719
-721
-721
-721
-721
-722
-721
-721
-719
-721
-721
-721
-719
-719
-718
-719
-721
-719
-717
-717
-717
-717
-717
-717
-715
-717
-715
-716
-715
-716
-715
-716
-715
-715
-716
-715
-715
-715
-714
-714
-713
-718
-714
-714
-713
-714
-713
-710
-708
-705
-703
-702
-701
-702
-703
-701
-698
-696
-693
-689
-689
-689
-691
-691
-693
-693
-696
-697
-697
-703
-710
-713
-719
-719
-723
-723
-726
-727
-727
-729
-729
-729
-729
-730
-730
-730
-731
-730
-731
-731
-731
-731
-729
-730
-729
-727
-726
-724
-722
-721
-707
-693
-680
-653
-595
-529
-515
-524
-525
-530
-539
-582
-674
-765
-844
-888
-871
-838
-805
-775
-749
-735
-723
-713
-705
-699
-697
-696
-694
-691
-689
-688
-687
-685
-683
-683
-678
-678
-675
-675
-674
-671
-670
-669
-669
-664
-663
-661
-659
-658
-657
-655
-651
-650
-648
-646
-645
-639
-637
-634
-632
-630
-627
-626
-620
-616
-611
-610
-605
-603
-600
-595
-593
-586
-584
-577
-575
-571
-568
-565
-562
-562
-560
-561
-558
-559
-557
-563
-565
-573
-580
-590
-599
-609
-621
-630
-645
-653
-664
-673
-679
-687
-691
-697
-700
-703
-705
-710
-711
-712
-713
-714
-713
-714
-714
-715
-714
-715
-715
-714
-716
-717
-718
-718
-717
-718
-717
-717
-718
-719
-719
-719
-719
-717
-718
-717
-719
-718
-719
-721
-719
-719
-720
-719
-719
-721
-721
-721
-721
-722
-722
-723
-723
-724
-724
-725
-725
-724
-726
-726
-726
-728
-726
-727
-727
-727
-727
-727
-729
-728
-729
-728
-729
-729
-730
-730
-729
-729
-729
-728
-727
-727
-725
-727
-727
-727
-727
-727
-725
-726
-727
-725
-725
-725
-727
-725
-725
-725
-724
-723
-724
-725
-725
-725
-723
-725
-724
-725
-725
-725
-726
-725
-725
-726
-725
-727
-722
-721
-716
-715
-713
-714
-715
-714
-713
-711
-706
-705
-703
-703
-701
-704
-706
-707
-705
-707
-711
-711
-716
-721
-723
-729
-732
-735
-738
-739
-741
-741
-742
-743
-743
-743
-745
-745
-744
-746
-746
-745
-745
-744
-744
-743
-743
-742
-741
-741
-739
-735
-727
-710
-695
-683
-649
-583
-532
-535
-547
-557
-567
-609
-691
-773
-843
-898
-898
-874
-842
-810
-781
-761
-747
-737
-729
-719
-715
-713
-713
-711
-713
-709
-707
-705
-703
-701
-702
-702
-701
-699
-697
-695
-695
-693
-691
-690
-687
-685
-685
-685
-683
-680
-678
-675
-673
-670
-668
-664
-663
-658
-658
-656
-651
-648
-643
-641
-635
-634
-629
-625
-623
-616
-613
-606
-603
-597
-594
-591
-589
-589
-586
-584
-581
-584
-581
-584
-585
-589
-591
-599
-607
-615
-625
-631
-643
-651
-664
-674
-682
-691
-697
-704
-709
-714
-719
-721
-725
-725
-726
-727
-729
-729
-729
-731
-729
-730
-730
-730
-730
-730
-731
-731
-731
-733
-731
-733
-732
-733
-731
-730
-731
-731
-731
-731
-730
-730
-730
-730
-729
-731
-730
-731
-732
-730
-730
-730
-731
-731
-730
-730
-729
-730
-730
-731
-731
-731
-732
-731
-733
-733
-732
-733
-731
-734
-733
-732
-732
-733
-735
-733
-733
-733
-733
-734
-733
-733
-731
-732
-730
-729
-730
-729
-729
-727
-727
-727
-727
-727
-723
-726
-726
-725
-725
-725
-725
-725
-726
-725
-725
-723
-723
-724
-723
-724
-723
-723
-723
-723
-722
-722
-722
-722
-722
-722
-721
-717
-715
-711
-710
-709
-711
-713
-710
-709
-705
-703
-699
-698
-697
-699
-699
-701
-702
-702
-705
-704
-707
-711
-715
-721
-723
-727
-729
-731
-733
-732
-732
-734
-734
-734
-735
-735
-733
-735
-735
-734
-734
-734
-734
-733
-733
-731
-729
-729
-727
-725
-721
-709
-695
-683
-661
-607
-545
-524
-529
-531
-534
-545
-591
-675
-749
-819
-871
-865
-833
-797
-768
-743
-729
-718
-710
-702
-698
-696
-695
-694
-691
-690
-689
-689
-686
-684
-684
-681
-679
-679
-678
-675
-673
-673
-669
-669
-665
-664
-663
-661
-661
-656
-655
-652
-651
-647
-643
-642
-637
-637
-631
-630
-626
-625
-621
-616
-615
-609
-611
-605
-599
-595
-589
-588
-581
-578
-571
-570
-566
-565
-560
-557
-557
-555
-554
-551
-551
-552
-559
-557
-566
-573
-583
-593
-606
-617
-625
-639
-648
-661
-667
-676
-683
-688
-692
-695
-698
-701
-702
-706
-705
-706
-707
-707
-709
-708
-708
-708
-709
-709
-709
-712
-710
-710
-711
-711
-710
-711
-713
-711
-713
-712
-713
-712
-711
-713
-713
-712
-713
-713
-713
-712
-714
-714
-714
-714
-714
-715
-713
-715
-717
-716
-715
-715
-718
-717
-718
-717
-718
-719
-719
-719
-718
-719
-719
-719
-719
-719
-721
-721
-721
-721
-721
-721
-721
-725
-721
-721
-719
-721
-719
-718
-719
-719
-719
-719
-719
-718
-717
-718
-717
-718
-718
-717
-716
-716
-715
-715
-715
-716
-715
-716
-715
-715
-716
-715
-714
-713
-715
-714
-714
-715
-715
-714
-714
-714
-714
-715
-715
-715
-715
-714
-713
-710
-707
-704
-702
-703
-702
-705
-702
-700
-698
-699
-694
-692
-691
-691
-694
-696
-698
-698
-700
-700
-701
-706
-711
-714
-719
-721
-725
-725
-729
-728
-729
-731
-729
-731
-733
-731
-731
-731
-733
-731
-731
-730
-731
-730
-729
-729
-727
-727
-725
-723
-719
-709
-695
-682
-658
-605
-541
-517
-522
-526
-527
-539
-590
-687
-771
-849
-889
-867
-833
-797
-768
-746
-731
-719
-711
-702
-698
-697
-694
-694
-691
-691
-689
-689
-686
-685
-685
-682
-679
-678
-677
-676
-674
-673
-670
-670
-667
-667
-663
-661
-659
-655
-654
-651
-652
-648
-646
-645
-641
-637
-633
-632
-629
-627
-625
-619
-618
-611
-611
-605
-602
-597
-593
-590
-582
-581
-573
-572
-563
-561
-557
-556
-555
-555
-555
-555
-559
-561
-567
-568
-578
-584
-594
-605
-615
-627
-636
-647
-653
-665
-669
-679
-685
-690
-696
-698
-701
-703
-704
-707
-707
-710
-708
-710
-711
-711
-711
-711
-713
-712
-713
-715
-711
-712
-713
-714
-713
-713
-713
-714
-713
-714
-715
-715
-715
-717
-715
-717
-717
-717
-716
-717
-718
-717
-719
-718
-718
-719
-718
-719
-722
-721
-721
-722
-722
-722
-722
-721
-722
-723
-723
-723
-723
-723
-723
-724
-725
-725
-725
-725
-725
-725
-726
-727
-727
-727
-725
-727
-726
-727
-725
-725
-725
-723
-725
-724
-725
-725
-723
-723
-723
-723
-723
-722
-722
-721
-719
-721
-721
-722
-721
-721
-719
-722
-721
-719
-721
-721
-721
-718
-719
-720
-719
-720
-720
-721
-719
-721
-719
-721
-721
-721
-721
-720
-719
-719
-719
-717
-713
-713
-709
-710
-709
-711
-710
-707
-705
-702
-702
-698
-698
-701
-703
-704
-703
-705
-707
-709
-713
-717
-721
-725
-730
-732
-733
-735
-736
-737
-739
-737
-739
-737
-739
-739
-738
-740
-738
-740
-739
-741
-739
-737
-736
-735
-734
-733
-730
-724
-709
-695
-684
-657
-597
-535
-525
-538
-545
-552
-594
-678
-763
-831
-884
-883
-857
-823
-793
-767
-751
-738
-727
-718
-711
-707
-705
-704
-702
-700
-698
-697
-697
-695
-697
-691
-690
-688
-687
-687
-686
-685
-682
-682
-679
-678
-677
-673
-673
-669
-669
-664
-663
-661
-659
-657
-653
-653
-650
-648
-645
-642
-638
-631
-632
-627
-627
-621
-618
-613
-606
-603
-599
-598
-591
-589
-583
-582
-581
-578
-576
-575
-573
-573
-578
-573
-577
-578
-586
-593
-602
-612
-622
-635
-643
-655
-662
-674
-682
-689
-697
-702
-705
-708
-711
-714
-714
-717
-718
-721
-721
-719
-721
-722
-723
-723
-724
-726
-723
-725
-725
-725
-723
-724
-725
-723
-725
-725
-725
-724
-725
-725
-723
-723
-725
-724
-723
-724
-723
-724
-725
-724
-723
-724
-725
-726
-725
-726
-726
-727
-727
-727
-727
-726
-727
-728
-729
-728
-727
-729
-729
-729
-729
-729
-729
-730
-730
-730
-731
-731
-731
-733
-730
-731
-730
-730
-729
-729
-727
-729
-729
-727
-727
-727
-727
-727
-726
-726
-726
-726
-726
-725
-725
-725
-725
-723
-723
-723
-723
-724
-725
-723
-724
-725
-725
-724
-725
-724
-723
-723
-722
-719
-715
-714
-713
-711
-711
-711
-711
-709
-707
-704
-702
-700
-700
-703
-702
-704
-703
-707
-707
-710
-713
-715
-719
-722
-726
-729
-731
-735
-733
-737
-735
-735
-737
-737
-737
-735
-738
-737
-737
-737
-737
-737
-737
-737
-735
-735
-734
-732
-729
-723
-711
-695
-685
-665
-615
-540
-514
-525
-535
-539
-558
-621
-710
-785
-846
-885
-873
-840
-809
-778
-753
-741
-727
-719
-709
-703
-701
-702
-699
-698
-697
-695
-694
-692
-691
-689
-689
-688
-686
-685
-683
-680
-678
-677
-675
-674
-669
-669
-669
-664
-663
-661
-661
-658
-655
-653
-647
-647
-643
-639
-635
-633
-630
-625
-625
-619
-616
-611
-607
-604
-595
-594
-587
-586
-579
-578
-573
-573
-569
-567
-563
-562
-565
-565
-569
-567
-572
-573
-583
-586
-597
-606
-616
-627
-636
-647
-655
-667
-675
-682
-686
-693
-698
-699
-703
-703
-705
-707
-707
-709
-710
-711
-711
-713
-713
-713
-713
-713
-713
-715
-714
-715
-713
-715
-713
-714
-715
-714
-714
-715
-714
-714
-714
-714
-713
-713
-714
-714
-713
-713
-713
-713
-713
-713
-713
-712
-713
-714
-713
-714
-711
-714
-715
-715
-715
-715
-715
-715
-718
-715
-715
-716
-717
-717
-717
-717
-717
-717
-718
-717
-718
-718
-718
-718
-716
-717
-715
-717
-716
-716
-715
-714
-715
-717
-714
-714
-713
-714
-713
-714
-711
-713
-711
-713
-713
-713
-713
-711
-711
-710
-711
-713
-712
-712
-711
-713
-712
-711
-711
-709
-705
-701
-702
-699
-701
-700
-701
-697
-694
-692
-689
-687
-686
-687
-689
-689
-691
-691
-694
-694
-697
-701
-706
-711
-714
-717
-721
-722
-723
-725
-725
-726
-725
-727
-726
-727
-726
-727
-727
-727
-728
-727
-726
-727
-725
-725
-724
-722
-719
-717
-708
-693
-681
-657
-601
-535
-513
-519
-523
-526
-536
-584
-681
-761
-837
-886
-859
-823
-789
-758
-739
-726
-717
-708
-699
-697
-695
-693
-693
-691
-691
-689
-687
-685
-683
-680
-679
-680
-678
-677
-675
-673
-673
-671
-669
-668
-666
-664
-663
-663
-660
-659
-655
-653
-650
-647
-645
-641
-641
-637
-634
-630
-627
-621
-618
-614
-609
-605
-600
-599
-594
-591
-584
-581
-577
-574
-571
-570
-569
-567
-567
-566
-567
-566
-571
-573
-575
-578
-586
-592
-605
-615
-626
-636
-645
-658
-663
-674
-682
-687
-694
-697
-702
-703
-707
-707
-710
-711
-710
-711
-711
-711
-711
-712
-713
-712
-714
-715
-717
