112
104
98
89
79
68
57
48
40
37
33
28
23
18
14
12
10
11
12
10
8
9
10
11
11
9
9
11
12
11
10
10
9
7
6
7
8
8
8
8
8
7
6
6
5
4
5
6
6
6
4
2
4
6
4
2
1
0
1
2
1
0
2
3
1
0
-1
-1
1
2
1
0
1
1
-1
-2
-1
0
-1
-2
-2
-2
-3
-4
-2
0
2
-2
-6
-4
-2
-2
-2
-2
-2
-2
-2
-4
-6
-4
-2
-3
-4
-4
-4
-4
-4
-3
-3
-5
-6
-5
-4
-4
-4
-5
-5
-3
-2
-2
-4
-7
-7
-5
-4
-4
-3
-4
-4
-4
-4
-4
-3
-2
-4
-6
-4
-2
-4
-6
-4
-2
-4
-6
-4
-2
-1
0
-1
-2
-2
-2
-3
-2
1
2
2
2
1
0
0
2
5
6
5
0
-5
-14
-22
-19
-16
-17
-18
-18
-18
-22
-26
-25
-23
-17
-11
-7
-4
-2
0
-1
-2
-2
-2
-3
-4
-4
-4
-3
-2
-2
-3
-5
-7
-9
-7
-3
-2
-3
-4
-5
0
7
38
70
64
54
-11
-77
-142
-208
-273
-327
-333
-338
-338
-319
-254
-189
-124
-64
-12
18
18
18
19
21
23
24
24
25
27
27
25
26
29
29
27
26
27
28
28
29
31
33
32
34
32
34
36
39
42
40
38
40
42
42
42
45
48
49
50
49
48
49
50
51
52
52
52
52
52
53
53
51
50
51
51
49
48
49
50
49
48
47
46
45
40
36
34
32
28
24
23
22
20
18
16
14
14
14
12
10
10
10
9
8
10
12
12
12
11
12
16
18
17
16
15
14
15
16
17
18
19
20
19
18
19
18
14
15
16
14
12
11
10
11
12
12
12
10
8
8
8
6
4
5
6
5
4
4
4
4
3
1
1
3
3
1
0
0
0
1
2
1
0
0
0
0
0
0
1
2
0
-2
-1
0
-1
-2
-3
-4
-2
0
-2
-4
-2
0
-2
-3
0
2
-1
-2
-3
-3
-1
0
-1
-2
-3
-4
-3
-2
-2
-2
-2
-3
-5
-5
-3
-2
-3
-3
-2
-3
-4
-4
-4
-2
0
0
0
-1
-2
0
2
4
6
6
4
-2
-10
-19
-24
-24
-22
-18
-17
-20
-23
-25
-29
-34
-30
-21
-13
-6
-1
3
0
-5
-5
-3
-4
-8
-6
-4
-6
-8
-6
-4
-5
-6
-4
-2
-3
-4
-4
-4
-4
-4
-5
1
19
39
62
67
53
9
-57
-122
-188
-254
-319
-334
-328
-318
-307
-252
-187
-122
-57
-19
16
18
18
20
22
21
20
21
22
23
24
25
26
26
26
25
24
24
25
28
30
30
30
31
31
29
30
36
37
35
35
37
38
39
41
43
44
43
42
43
45
47
48
48
49
50
49
48
48
48
50
52
48
44
44
44
46
47
43
39
35
32
32
32
31
29
26
23
21
19
17
16
15
14
14
14
15
12
6
6
9
9
7
6
6
5
2
6
10
10
10
8
6
6
6
8
10
11
12
11
10
12
14
16
17
14
12
15
15
12
10
11
12
12
11
9
9
11
11
9
8
7
6
7
6
3
3
2
6
6
5
4
3
2
4
6
4
2
2
2
4
6
4
2
3
4
3
2
3
3
1
1
3
4
3
2
2
2
3
4
3
2
2
1
-1
-1
1
2
2
1
0
0
0
0
0
0
0
1
2
1
0
0
0
0
0
0
0
0
0
0
1
3
4
5
5
2
1
5
6
5
5
7
4
-2
-10
-18
-19
-17
-16
-16
-15
-12
-20
-28
-25
-22
-15
-8
-5
-2
-1
0
0
0
-1
-2
-3
-4
-4
-4
-2
-1
-4
-6
-5
-4
-4
-4
-4
-4
-4
-4
-4
5
17
40
66
64
57
-3
-68
-134
-72
-265
-328
-310
-294
-301
-299
-234
-169
-104
-46
-10
16
15
14
16
18
19
20
21
22
22
22
22
22
23
24
24
24
25
26
26
27
29
30
29
28
28
30
33
34
35
35
34
37
40
40
40
40
40
43
46
47
48
50
52
51
51
54
56
55
54
54
55
57
57
55
54
54
53
51
49
47
44
41
39
37
33
29
28
27
25
23
20
16
15
14
12
10
9
8
9
10
8
6
6
6
6
6
7
8
8
8
7
7
12
14
14
13
10
9
11
12
13
14
13
12
12
12
13
14
13
12
12
14
12
11
4
7
10
9
8
9
10
9
8
9
10
8
6
5
4
5
6
6
6
3
2
2
2
2
2
2
2
2
2
1
0
1
2
2
2
1
0
0
1
3
2
0
0
0
0
0
-1
-2
-1
0
0
0
-1
-2
0
2
3
4
3
2
1
0
0
0
1
2
1
0
-1
-2
-1
0
1
2
1
0
0
-1
-3
-3
-1
0
0
0
0
2
4
4
4
1
-2
2
6
3
0
0
-2
-8
-12
-13
-15
-18
-20
-19
-20
-25
-26
-22
-18
-14
-7
1
2
-1
-3
-5
-4
-1
-2
-5
-6
-5
-4
-4
-6
-6
-5
-4
-4
-4
-4
-4
-3
-2
-1
8
38
59
64
49
-5
-63
-129
-194
-260
-325
-391
-407
-384
-335
-270
-205
-140
-75
-10
11
18
20
21
22
21
21
23
25
27
26
24
25
26
25
24
25
26
27
28
28
28
29
30
31
32
32
32
32
32
34
36
37
39
41
42
42
43
47
48
48
49
51
53
55
56
57
58
59
60
60
60
60
59
58
58
58
57
56
55
53
48
44
42
39
35
31
28
25
22
20
18
16
15
14
13
11
9
7
5
6
9
8
3
2
2
2
2
2
3
4
4
4
4
3
2
4
6
7
8
9
10
12
14
12
10
12
14
12
10
11
12
12
12
11
10
11
12
12
12
13
13
11
10
9
8
7
6
7
7
5
4
5
6
5
3
2
3
4
3
2
1
0
0
0
0
0
-1
-2
-2
-2
-2
-2
-2
-2
-3
-4
-3
-2
-1
0
0
-1
-5
-5
-3
-2
-3
-4
-3
-2
-1
-1
-3
-4
-4
-2
2
-1
-4
-4
-4
-3
-2
-2
-2
-2
-2
-3
-4
-3
-2
-2
-2
-3
-4
-3
-2
-2
-2
-3
-4
-3
-2
-2
-2
-3
-3
-1
0
-1
-1
1
2
1
-2
-5
-10
-6
-19
-22
-21
-20
-20
-20
-27
-32
-28
-24
-19
-14
-7
-2
-3
-4
-6
-7
-4
-2
-3
-4
-5
-6
-5
-4
-5
-7
-9
-8
-5
-5
-7
-6
-3
-3
-5
11
30
45
59
48
34
-31
-97
-162
-228
-293
-348
-344
-335
-311
-275
-210
-145
-80
-29
-2
14
15
16
18
20
21
22
23
24
23
22
22
23
25
26
25
24
25
26
26
26
25
24
25
27
30
30
30
33
36
35
34
36
38
39
40
40
40
42
44
43
43
46
48
50
52
51
51
53
53
51
50
50
50
50
50
50
48
45
41
37
35
33
30
27
24
26
18
16
15
14
13
12
10
8
6
4
5
6
4
2
3
4
5
4
-2
-5
0
1
-2
-3
-1
0
1
2
2
2
1
3
7
8
7
6
6
6
6
6
7
11
14
12
10
11
12
12
12
10
8
9
10
9
8
9
10
9
8
6
4
4
4
4
4
3
2
3
4
3
3
5
4
1
0
0
0
0
0
1
1
-1
-2
-4
-1
2
0
-2
-2
-2
-2
-2
0
1
-4
-7
-3
0
-1
-2
-2
-2
-3
-4
-1
0
-1
-2
-2
-2
-3
-4
-3
-2
-2
-2
-3
-4
-3
-4
-7
-5
-1
0
0
-3
-4
-6
-8
-8
-8
-5
-2
-1
0
-2
-4
-3
-2
-2
-2
-2
-2
-1
0
3
3
1
-3
-9
-12
-11
-13
-18
-20
-19
-21
-25
-26
-27
-23
-17
-12
-7
-6
-5
-3
-2
-4
-6
-5
-4
-5
-6
-6
-6
-4
-2
-3
-4
-4
-4
-5
-6
-6
-5
-1
1
-2
9
34
53
68
54
22
-33
-98
-164
-229
-295
-360
-339
-298
-276
-258
-197
-132
-67
-2
7
16
15
14
15
16
17
18
17
16
17
18
20
22
20
18
20
22
21
20
21
22
23
24
23
23
26
26
23
24
27
28
29
30
29
30
33
34
34
34
34
39
42
41
40
43
46
47
48
49
50
49
48
49
50
49
48
48
48
48
47
42
39
36
33
30
27
25
23
21
18
15
13
11
10
9
8
8
8
8
7
5
2
0
1
2
1
0
2
4
3
2
2
2
2
2
3
4
4
4
6
8
8
8
9
10
9
8
8
8
9
10
10
10
10
10
10
10
9
8
9
10
9
8
8
7
6
7
8
7
6
5
4
3
2
3
4
3
2
2
2
1
0
1
2
2
1
-1
-1
1
2
1
0
-1
-2
-2
-1
1
2
1
0
0
0
0
0
0
1
4
1
-2
-2
-2
-2
-2
-1
0
-1
-2
-1
0
0
0
-1
-2
-1
-1
-4
-6
-5
-4
-3
-2
-3
-4
-4
-4
-3
-2
-3
-4
-5
-5
-3
-2
-3
-4
-5
-4
-2
-3
-4
-3
-2
-2
-2
0
2
1
0
3
6
2
0
-2
-5
-8
-11
-14
-17
-20
-22
-23
-25
-27
-26
-22
-16
-10
-5
-1
0
-1
-2
-2
-2
-2
-3
-5
-6
-6
-5
-4
-3
-2
-4
-6
-4
-2
-3
-4
-3
-1
3
16
47
66
66
43
-12
-71
-137
-202
-268
-333
-399
-410
-388
-337
-272
-207
-142
-77
-12
13
27
22
11
14
19
21
20
32
40
28
17
33
46
31
18
21
25
32
38
37
34
26
21
27
32
37
41
44
44
40
39
41
39
34
37
45
51
56
52
44
50
62
58
49
55
63
71
79
61
42
50
58
63
68
66
64
62
60
60
60
57
52
45
40
41
41
38
35
32
31
33
20
-7
-10
4
11
15
14
11
11
13
6
-6
-1
8
10
11
12
12
8
2
4
6
4
2
5
8
12
16
13
10
13
15
9
5
9
13
16
18
16
14
14
14
14
16
20
20
16
14
15
16
15
15
17
16
13
12
13
14
13
13
12
5
-6
1
8
16
24
19
14
11
9
18
20
4
-5
4
10
8
6
5
5
8
10
9
7
5
5
7
8
7
6
6
6
6
3
-1
-1
1
2
3
5
7
6
4
1
-2
2
6
7
8
2
-2
1
4
5
6
5
4
4
4
2
0
2
5
8
8
3
0
-1
-1
3
4
4
4
3
2
3
4
3
2
3
4
5
6
4
6
8
9
10
7
4
6
7
-3
-10
-8
-7
-11
-14
-14
-16
-21
-24
-23
-19
-12
-5
1
4
4
3
1
0
1
2
1
0
1
2
3
3
1
0
1
1
2
-1
0
4
8
5
3
17
32
58
75
60
30
-35
-101
-167
-232
-298
-328
-309
-303
-314
-287
-222
-157
-92
-40
4
20
20
22
25
26
27
28
27
27
29
27
23
25
29
31
32
30
28
29
30
28
26
29
32
33
34
31
28
32
34
35
36
36
36
37
39
41
42
41
41
44
45
43
43
45
47
49
50
50
49
47
48
51
51
49
48
46
45
44
42
40
35
30
30
30
28
26
24
22
20
18
17
16
17
17
14
12
13
13
11
9
7
7
9
9
7
6
5
4
4
5
7
8
7
6
6
6
6
6
4
7
10
9
8
8
8
11
14
14
14
13
12
13
14
16
18
16
14
14
14
15
15
13
12
12
12
12
12
12
12
11
10
11
12
12
9
5
5
7
9
10
8
6
6
6
7
8
7
6
6
6
5
4
4
4
5
6
5
4
5
5
3
3
6
5
0
0
4
6
6
6
6
6
5
4
5
6
6
6
5
4
4
6
8
5
2
3
4
4
4
5
6
5
4
4
4
6
7
4
2
3
5
8
8
4
3
5
6
7
10
13
13
11
7
1
2
5
0
-7
-10
-13
-14
-14
-17
-22
-15
-8
-6
-4
1
6
3
0
2
4
4
4
3
2
0
-2
0
2
-1
-1
2
4
4
4
3
2
2
6
12
33
60
66
65
11
-53
-118
-183
-249
-314
-358
-400
-375
-347
-282
-217
-152
-88
-30
17
22
26
26
26
25
24
26
28
28
28
27
26
27
28
28
28
28
28
29
30
31
31
29
29
31
32
33
34
33
35
39
40
40
40
40
42
44
48
52
52
52
53
54
57
60
61
62
64
66
67
68
67
67
70
71
69
68
68
67
64
61
59
55
50
45
41
38
35
31
27
24
21
18
20
11
8
10
12
10
8
9
10
8
6
7
8
9
10
8
6
4
2
4
6
9
9
7
6
6
7
10
12
11
10
10
11
13
14
15
16
16
16
15
14
13
13
14
15
16
16
16
14
12
11
10
12
13
9
6
7
8
7
6
8
10
9
7
5
5
7
8
8
7
5
4
5
6
6
6
7
7
5
4
3
2
3
4
4
3
2
3
4
6
8
6
4
4
4
3
2
2
2
2
2
3
4
3
2
2
2
1
0
1
2
1
0
0
1
3
2
-1
0
3
3
1
0
0
0
0
1
2
0
-2
0
2
1
0
-1
-2
-1
0
0
0
0
0
0
0
-1
-2
-2
-2
-1
0
-1
-2
-1
2
6
7
5
3
1
-3
-7
-9
-11
-14
-17
-18
-18
-20
-22
-21
-20
-15
-10
-6
-2
-1
0
-1
-2
-2
-2
-2
-2
-2
-2
-3
-4
-4
-4
-3
-2
-3
-4
-3
-2
-3
-3
-1
17
40
50
55
34
6
-55
-120
-186
-251
-317
-382
-359
-333
-272
-211
-146
-84
-33
9
14
18
19
20
21
22
23
24
25
26
25
24
24
24
25
26
26
26
27
28
28
28
28
30
33
31
27
28
31
32
32
35
32
39
38
40
42
43
44
47
50
52
54
54
54
57
60
62
64
66
68
67
66
67
68
69
70
71
70
66
63
61
59
57
51
44
38
33
31
29
25
21
19
17
12
8
9
10
9
8
6
4
3
2
2
2
2
2
1
0
1
2
3
4
2
0
1
3
5
6
5
4
4
5
7
8
7
9
13
12
9
8
9
10
10
10
12
11
10
9
8
7
6
9
12
8
4
5
6
5
4
4
4
4
4
2
0
0
0
1
2
3
2
-2
-4
-3
-2
-2
-1
1
0
-3
-4
-3
-2
-2
0
-2
-1
-6
-6
-6
-4
-2
-2
-2
-3
-4
-4
-4
-4
-4
-3
-2
-3
-4
-4
-4
-1
-1
-4
-6
-5
-4
-5
-5
-3
-2
-3
-4
-4
-4
-3
-2
-3
-4
-4
-4
-4
-5
-6
-5
-4
-5
-6
-6
-6
-7
-8
-5
-2
-4
-6
-7
-8
-7
-6
-6
-6
-5
-4
-5
-6
-6
-6
-7
-6
-2
0
-1
-3
-5
-6
-5
-9
-17
-18
-19
-20
-21
-22
-22
-26
-30
-28
-26
-20
-14
-7
-2
-4
-6
-8
-10
-10
-10
-9
-8
-8
-8
-8
-8
-9
-9
-7
-7
-10
-12
-11
-10
-10
-8
-5
14
39
46
49
23
-9
-71
-136
-202
-140
-333
-396
-376
-352
-287
-222
-157
-94
-40
3
8
12
13
14
16
18
16
14
15
16
16
16
17
18
19
20
19
19
21
22
22
22
23
24
23
22
23
24
25
26
26
28
30
31
32
35
38
37
36
38
40
44
48
48
48
52
54
55
56
58
60
61
62
62
62
63
63
61
60
61
59
54
49
45
41
37
31
23
21
19
16
13
11
8
7
6
2
-2
-2
-2
-2
-2
-3
-4
-3
-2
-5
-8
-6
-4
-3
-2
-4
-6
-5
-4
-3
-2
-1
0
-1
-1
1
2
2
2
2
2
1
2
5
6
5
4
4
4
4
5
6
7
8
5
2
2
2
1
0
2
3
0
-2
0
2
0
-2
-1
0
1
1
-2
-4
-4
-4
-3
-2
-3
-4
-4
-4
-4
-4
-4
-4
-3
-2
-3
-3
-2
-4
-6
-7
-8
-8
-8
-8
-8
-7
-6
-5
-4
-6
-8
-7
-6
-5
-5
-8
-10
-9
-8
-9
-9
-7
-6
-7
-8
-8
-8
-7
-6
-6
-7
-9
-10
-9
-8
-7
-6
-6
-7
-8
-8
-8
-9
-10
-9
-8
-8
-8
-7
-6
-8
-10
-10
-10
-9
-8
-9
-10
-9
-8
-9
-10
-9
-8
-8
-8
-8
-8
-8
-8
-8
-6
-3
-3
-5
-9
-13
-14
-14
-21
-26
-27
-28
-30
-32
-33
-33
-27
-21
-16
-12
-11
-10
-11
-12
-12
-12
-11
-10
-11
-12
-11
-10
-11
-12
-11
-10
-11
-12
-11
-10
-9
-9
-11
-3
8
31
56
52
45
-20
-86
-151
-217
-282
-340
-344
-347
-338
-316
-251
-186
-121
-62
-17
12
12
13
16
18
18
19
21
22
21
19
17
17
19
20
20
20
21
22
21
21
23
24
24
24
25
26
26
27
28
30
32
34
36
33
31
36
40
41
42
44
46
46
47
50
53
57
60
59
59
62
64
64
64
63
62
63
63
61
60
60
57
53
50
47
42
37
32
36
24
22
20
18
14
10
9
8
8
8
5
2
2
2
2
2
2
2
1
0
0
1
3
3
0
-1
1
2
1
1
3
4
5
6
7
6
3
5
9
10
9
8
8
9
10
10
10
10
10
9
8
9
10
8
6
7
8
8
8
6
4
6
8
8
6
1
-1
1
2
1
1
3
3
1
0
0
0
0
0
0
0
-1
-2
0
-1
-2
-2
-2
-3
-4
-3
-2
-3
-4
-3
-2
-3
-4
-4
-4
-3
-2
-3
-4
-4
-4
-4
-4
-4
-4
-3
-2
-2
-2
-3
-4
-3
-2
-3
-4
-4
-4
-3
-2
-2
-1
-2
-2
-2
-3
-4
-3
-2
-3
-4
-4
-4
-4
-4
-3
-2
-3
-4
-4
-4
-5
-6
-5
-4
-5
-6
-5
-4
-4
-4
-5
-6
-5
-4
-4
-4
-3
-3
-5
-5
-3
1
4
0
-4
-5
-6
-11
-16
-17
-18
-21
-24
-23
-23
-27
-28
-22
-16
-11
-6
-1
0
-4
-6
-5
-4
-4
-4
-5
-6
-5
-4
-5
-6
-6
-6
-6
-6
-6
-6
-5
-4
-6
7
21
42
62
53
36
-29
-95
-160
-226
-291
-338
-341
-342
-336
-307
-242
-177
-112
-56
-9
15
18
20
21
22
22
22
23
24
24
24
23
23
25
26
26
26
27
28
28
27
28
28
28
28
28
30
32
34
36
35
34
36
38
38
39
42
44
45
46
47
49
51
53
55
56
57
59
61
62
63
65
67
68
67
67
69
68
65
63
61
59
58
51
44
42
40
35
30
26
22
21
19
15
12
10
8
9
9
6
4
4
4
3
2
3
4
3
2
1
0
1
2
3
4
3
2
2
2
2
2
3
4
6
6
6
6
6
9
12
11
10
10
10
9
8
10
12
11
10
10
10
9
8
8
8
8
8
8
8
7
6
7
8
8
7
5
4
4
4
5
6
5
4
4
4
4
4
4
4
4
3
2
3
4
2
0
1
2
1
0
1
2
3
4
1
0
1
2
2
2
2
2
1
0
0
0
1
2
3
4
3
2
1
0
0
-1
-2
-1
0
0
0
0
0
1
2
1
0
1
2
1
0
2
4
2
0
-1
-1
1
1
-1
-1
1
1
-1
-2
-1
0
1
2
2
2
1
0
1
2
2
2
0
1
2
6
10
7
4
1
-2
-5
-9
-13
-16
-16
-16
-18
-20
-21
-21
-17
-13
-10
-6
-1
1
-1
-2
-2
-2
-2
-1
1
0
-3
-4
-4
-4
-3
-2
-2
-1
-2
0
-2
-1
1
13
27
53
72
61
37
-28
-94
-159
-225
-291
-331
-328
-328
-333
-306
-241
-176
-111
-55
-6
16
20
23
25
25
23
24
27
28
28
28
27
27
29
29
27
31
36
32
28
29
30
30
30
33
36
37
38
36
34
35
36
38
40
41
42
43
44
44
45
48
51
53
55
57
58
58
60
63
64
65
66
67
68
68
68
69
70
70
67
64
63
62
58
54
50
46
43
39
32
26
25
23
20
17
14
12
11
10
10
10
9
8
9
8
4
3
5
6
6
6
6
6
6
6
7
8
7
6
6
7
8
9
10
10
10
11
12
12
12
13
14
12
10
11
12
12
12
12
12
13
14
15
14
10
8
9
10
11
11
9
8
9
9
7
6
7
8
7
7
9
9
8
9
10
7
4
4
4
5
6
5
4
7
9
5
2
4
6
4
2
4
6
7
7
4
3
6
6
2
0
1
2
2
2
2
2
3
4
3
3
5
4
0
1
2
2
2
1
0
0
0
1
2
2
2
0
-2
-1
0
1
2
0
-2
1
2
1
0
0
0
-1
-2
-3
-3
-1
0
0
0
0
0
-1
-2
-1
0
0
-1
-4
-2
0
-1
-2
1
4
3
2
2
1
-5
-10
-10
-11
-17
-20
-20
-20
-19
-19
-22
-22
-16
-11
-6
-2
1
0
-3
-3
-1
-1
-3
-3
-1
0
-1
-2
-3
-3
-2
-2
-2
0
2
-1
-4
-2
5
28
47
55
52
26
-15
-81
-146
-212
-277
-343
-366
-346
-304
-245
-182
-117
-61
-10
10
16
18
19
20
20
21
23
24
24
24
24
24
26
25
24
24
24
28
32
28
24
28
32
29
27
31
34
33
32
34
36
37
38
37
37
39
42
46
47
45
46
49
52
57
58
58
59
61
62
63
65
67
68
68
71
72
69
66
67
68
65
62
59
56
51
47
41
35
30
26
26
24
19
16
13
11
9
8
9
9
7
5
3
2
3
4
3
2
3
4
3
2
2
1
-1
1
4
3
2
3
4
4
4
5
6
5
4
6
8
9
10
9
8
10
11
8
7
10
12
12
11
9
8
7
6
7
8
7
6
6
6
6
5
3
4
7
6
2
3
4
4
4
4
4
3
2
1
0
1
2
2
1
-2
-4
-2
0
0
0
0
0
-1
-2
-1
0
1
2
1
0
1
2
2
2
3
4
3
2
2
2
2
-1
-2
-1
0
-2
-4
-2
0
0
0
-1
-2
-2
-1
4
7
3
0
-1
-2
-2
-2
-2
-2
-3
-4
-4
-3
-1
0
-1
-2
-1
-3
-7
-5
-1
0
0
-1
-3
-2
0
-1
-2
-1
0
-1
-2
0
2
2
2
2
1
-6
-10
-8
-8
-14
-18
-17
-17
-19
-20
-20
-19
-17
-13
-6
-3
-1
0
-1
-2
-2
-2
-2
-2
-2
-2
-1
-1
-4
-3
-2
-3
-4
-3
-2
-2
-2
0
9
37
59
63
51
7
-45
-111
-176
-242
-307
-373
-378
-328
-276
-224
-164
-99
-50
-8
8
14
16
15
17
21
21
19
19
21
23
22
22
18
20
22
22
22
24
26
24
22
25
28
26
24
23
22
24
26
26
26
26
26
25
26
30
32
32
32
32
31
29
30
33
34
35
36
36
36
37
38
38
40
42
37
32
34
36
36
36
36
36
33
30
27
24
22
20
19
17
13
10
10
10
9
8
8
7
5
4
3
2
2
2
2
2
1
0
0
0
-1
-2
-2
-2
-2
-3
-4
-3
-2
0
2
2
2
2
2
3
4
4
4
5
6
6
6
8
10
9
8
8
7
5
4
5
6
7
8
7
6
5
5
7
7
5
4
3
2
2
4
4
3
2
2
2
1
0
1
2
1
0
0
0
-1
-2
-1
0
0
0
-1
-2
-2
-1
1
2
1
0
0
0
0
0
0
0
0
0
0
0
0
0
-1
0
2
0
-2
-2
-2
-2
-2
-1
0
-1
-2
-2
-2
-2
-2
-1
0
-1
-2
-2
-2
-3
-3
-1
-1
-3
-4
-3
-2
-2
-2
-2
-2
-1
-1
-3
-4
-3
-2
-1
1
4
3
2
-5
-12
-10
-9
-16
-22
-20
-19
-23
-26
-25
-23
-18
-12
-6
-2
-1
0
-3
-4
-3
-2
-1
-1
-4
-5
-3
-2
-3
-4
-4
-4
-4
-4
-4
-4
-3
1
-2
33
60
59
54
2
-51
-116
-182
-247
-313
-378
-416
-381
-335
-270
-205
-140
-77
-18
15
20
22
21
21
23
24
25
26
26
26
27
27
25
24
25
26
27
28
29
30
30
31
32
31
30
32
34
34
34
35
36
39
42
41
40
41
42
43
45
49
52
52
53
56
58
59
62
66
69
71
72
72
72
72
73
75
76
75
73
71
68
65
60
54
51
48
41
34
31
28
25
22
20
18
16
14
11
8
8
8
7
6
5
4
5
6
6
6
6
6
5
4
4
4
4
5
7
8
7
6
5
6
9
10
10
8
8
10
12
13
14
13
12
12
12
12
12
14
16
15
14
13
12
13
14
11
10
10
10
9
8
9
10
9
8
7
6
6
6
7
8
7
6
5
4
4
4
4
4
4
3
2
2
2
3
4
3
2
0
-2
2
4
3
2
1
0
2
4
3
2
2
2
2
2
1
0
1
2
2
2
1
0
1
2
1
0
0
0
0
0
0
0
0
0
0
0
0
0
0
0
0
-1
-2
-1
0
0
0
-1
-2
-2
-2
-1
0
-1
-2
-2
-2
-1
0
1
3
5
4
1
0
-1
-6
-11
-13
-12
-16
-16
-17
-18
-22
-25
-18
-12
-10
-7
-2
2
0
-2
-2
-2
-2
-2
-3
-4
-1
-1
-3
-4
-4
-4
-4
-4
-4
-4
-3
-2
-1
12
27
44
62
54
43
-19
-84
-150
-216
-281
-342
-344
-344
-328
-303
-238
-173
-108
-50
-10
18
22
24
24
24
25
26
27
28
28
28
28
28
27
27
29
30
31
31
29
29
31
32
32
33
35
36
35
34
36
39
42
41
40
42
44
47
50
51
52
51
51
55
58
60
63
66
68
69
70
70
71
73
74
74
74
74
73
71
70
70
69
67
62
55
50
45
41
37
33
36
25
22
19
16
14
12
11
10
9
8
8
8
8
8
7
6
5
4
4
4
4
4
5
6
6
6
6
6
7
8
7
8
11
11
9
9
11
12
13
14
13
14
16
15
14
13
12
14
16
16
16
14
12
13
14
15
15
12
10
10
10
9
8
8
8
8
7
5
5
7
8
7
6
6
6
5
5
7
7
5
4
5
5
2
4
6
4
2
3
4
3
2
2
2
3
4
5
6
4
2
4
6
5
4
3
2
3
4
4
4
4
4
4
3
1
0
1
2
3
3
1
0
0
0
0
1
2
0
-2
-2
-2
-2
-2
2
6
1
-2
-1
0
1
2
2
2
2
2
2
2
2
3
6
8
8
6
2
-1
-3
-4
-5
-8
-11
-14
-17
-18
-17
-20
-25
-19
-12
-8
-4
0
4
3
2
1
0
1
2
1
0
1
2
0
-2
0
2
1
0
1
2
2
2
2
14
33
49
64
58
44
-11
-76
-142
-207
-273
-338
-338
-331
-303
-273
-208
-143
-78
-18
3
22
23
24
26
28
29
30
30
30
28
27
30
32
33
34
31
30
31
33
35
36
36
35
33
33
35
37
39
40
41
42
41
40
40
41
40
45
46
49
52
54
56
57
58
60
62
61
60
62
65
68
69
63
61
64
66
65
64
63
62
61
57
51
47
45
42
38
35
33
29
25
22
19
18
18
16
13
13
14
12
10
10
10
8
6
8
10
8
6
7
8
8
8
8
8
8
8
9
10
10
10
10
10
11
13
15
14
11
10
11
14
17
18
18
18
17
16
16
16
14
15
16
16
16
15
14
12
10
10
10
11
12
11
10
10
10
10
10
10
10
7
6
7
7
5
5
7
8
8
8
7
6
6
6
6
6
7
6
3
2
2
4
4
4
4
4
4
2
0
3
6
4
2
3
4
2
0
1
2
2
2
2
2
2
1
-1
-1
2
3
1
0
0
0
0
0
1
1
-1
-2
-2
-1
1
1
0
1
2
1
0
1
2
1
0
1
2
4
6
4
1
-3
-6
-8
-11
-15
-18
-19
-20
-20
-22
-26
-24
-17
-12
-8
-3
1
0
-3
-4
-4
-4
-3
-2
-3
-4
-4
-4
-4
-3
-2
-3
-4
-3
-2
-2
-2
-2
4
25
44
57
58
37
-4
-70
-135
-201
-266
-332
-339
-302
-276
-257
-207
-142
-77
-13
7
14
16
17
20
23
24
23
22
22
22
24
24
24
24
24
24
24
25
26
26
26
26
26
28
30
29
28
30
32
32
32
31
32
36
38
38
38
38
38
39
42
45
46
47
49
51
53
55
56
57
61
64
64
64
64
64
64
64
63
62
62
61
57
54
50
47
42
37
33
29
26
23
21
19
17
16
15
13
11
9
7
6
6
6
6
6
6
6
5
4
4
4
4
4
4
5
6
5
4
7
10
9
8
9
10
10
10
9
8
8
8
9
10
11
12
11
10
10
10
9
8
7
6
6
6
5
4
4
4
5
6
6
5
6
3
4
4
4
4
4
3
2
2
2
2
2
2
2
1
0
-1
-2
0
2
2
2
1
0
0
0
1
2
2
2
2
1
-1
-2
-1
0
1
2
1
0
-1
-1
0
1
2
1
0
1
2
2
2
2
2
1
0
-1
-2
-2
-2
0
2
1
0
-1
-2
-1
0
-1
-1
1
0
-3
-3
-1
0
0
0
0
0
0
0
-1
-2
0
-1
-2
1
4
4
4
3
1
-6
-12
-12
-12
-15
-18
-18
-19
-22
-24
-26
-25
-18
-12
-7
-3
-1
-1
-3
-4
-5
-5
-3
-3
-5
-6
-6
-6
-6
-6
-6
-6
-6
-7
-10
-6
-2
0
6
34
58
58
48
4
-46
-111
-177
-243
-308
-374
-403
-380
-338
-273
-208
-143
-79
-15
13
18
20
21
22
22
22
23
24
24
24
25
26
25
24
24
26
28
27
26
27
28
28
28
29
30
30
30
31
32
34
36
36
36
37
38
40
42
42
43
46
49
52
55
57
59
61
62
62
64
67
68
68
68
68
69
71
72
70
69
68
65
62
57
52
47
42
38
33
27
22
21
19
15
12
12
10
5
2
3
4
4
3
1
0
-1
0
3
3
1
0
-1
-2
-2
0
3
4
3
2
2
2
2
3
4
5
6
5
4
5
6
7
8
8
8
8
8
8
8
9
10
10
10
9
7
5
5
7
8
8
7
5
3
1
1
3
4
4
3
1
0
1
2
2
0
-2
-1
0
0
0
0
0
-1
-2
-2
-2
-2
-2
-1
0
-1
-2
-2
-2
-2
-2
-3
-3
-1
0
-1
-2
-1
-1
-3
-3
-1
0
-1
-2
-2
-2
-3
-4
-4
-3
-2
-3
-4
-4
-4
-3
-2
-4
-6
-5
-4
-5
-6
-6
-6
-6
-6
-6
-6
-6
-6
-6
-6
-6
-6
-6
-6
-7
-6
-3
-2
-2
-2
-3
-4
-5
-3
1
-1
2
-8
-10
-13
-16
-18
-20
-22
-24
-25
-26
-28
-29
-23
-17
-13
-10
-8
-6
-7
-8
-5
-6
-10
-11
-9
-8
-7
-6
-7
-7
-5
-6
-9
-9
-7
-7
-9
-9
-7
17
41
51
60
30
-3
-68
-134
-199
-265
-330
-377
-351
-323
-288
-244
-179
-114
-49
-6
5
12
13
15
17
18
18
18
18
18
19
20
20
20
20
20
21
22
21
20
21
22
22
22
22
24
26
26
26
26
26
28
30
30
30
30
30
31
32
33
34
36
39
42
44
44
44
44
45
47
48
48
47
45
44
45
46
46
46
45
41
37
35
33
31
32
26
24
21
18
14
10
9
8
6
4
1
-2
-1
0
-2
-4
-2
-1
-4
-6
-5
-4
-4
-4
-4
-4
-4
-5
-7
-7
-5
-4
-3
-3
-5
-6
-5
-3
-1
0
-1
-1
0
1
2
2
2
2
2
2
2
1
0
2
4
4
4
2
0
1
2
1
0
0
-1
-4
-5
-3
-2
-2
-2
-2
-2
-3
-4
-5
-5
-3
-3
-5
-6
-6
-6
-6
-6
-6
-7
-8
-8
-8
-7
-6
-5
-4
-6
-8
-8
-8
-7
-6
-5
-4
-5
-6
-7
-8
-9
-9
-7
-6
-7
-8
-7
-6
-7
-8
-7
-7
-9
-10
-9
-8
-9
-10
-10
-7
-6
-7
-8
-9
-10
-8
-6
-8
-10
-9
-8
-8
-8
-6
-4
-6
-8
-7
-6
-6
-7
-9
-12
-16
-19
-21
-24
-27
-27
-25
-28
-34
-32
-25
-22
-19
-13
-7
-7
-9
-11
-12
-12
-12
-11
-10
-11
-12
-12
-12
-11
-10
-9
-8
-10
-12
-10
-8
-8
0
18
36
54
54
39
-6
-72
-137
-203
-269
-334
-322
-281
-285
-303
-253
-188
-123
-58
-25
5
7
10
12
14
13
12
14
16
15
14
17
20
19
18
17
16
17
18
18
18
19
20
21
22
23
24
24
24
24
24
25
26
26
28
31
32
32
32
33
35
37
40
38
45
46
47
48
51
54
55
56
57
58
59
60
59
58
58
58
58
57
54
51
48
43
37
33
31
27
22
18
15
13
11
10
10
8
5
4
3
2
2
2
2
1
0
0
0
0
0
2
4
3
2
2
2
3
4
3
2
4
6
5
4
4
5
7
8
7
6
6
6
6
6
7
8
7
6
5
4
5
6
6
6
5
3
0
0
0
0
0
1
2
1
0
1
2
2
2
0
-2
0
2
3
3
0
-2
1
1
-1
-2
-2
-2
-1
0
0
-1
-3
-2
1
2
2
2
1
0
-1
-1
-2
0
-2
-2
-2
-1
0
0
0
0
0
0
0
-2
-4
-3
-2
-1
0
0
0
-3
-4
-3
-2
-2
-2
-3
-4
-5
-5
-3
-2
-1
-1
-3
-4
-4
-3
-1
0
0
-1
-2
-3
-4
-2
0
0
0
3
6
2
-3
-7
-10
-10
-11
-15
-18
-19
-20
-21
-23
-26
-25
-19
-15
-12
-7
-2
-1
-3
-4
-3
-2
-3
-4
-4
-4
-3
-2
-3
-4
-4
-4
-4
-4
-4
-3
-2
-2
2
25
44
54
57
37
2
-64
-129
-195
-260
-326
-355
-344
-317
-277
-223
-158
-93
-28
2
16
20
21
22
23
24
25
26
25
24
25
26
26
28
28
29
30
29
28
30
32
31
30
31
32
33
34
36
38
38
38
39
40
41
42
43
45
48
51
53
54
55
57
59
61
63
66
69
70
71
72
73
74
74
77
80
77
74
75
76
75
73
67
62
58
52
44
38
36
33
30
26
21
18
18
17
14
12
13
13
10
8
8
8
8
7
5
4
5
6
5
4
4
5
7
7
4
5
6
6
6
7
8
9
10
9
8
10
12
13
14
14
14
14
14
14
14
15
16
15
14
15
16
16
16
15
14
13
12
11
10
10
10
11
12
11
10
10
8
8
9
10
7
4
4
4
5
6
6
6
5
4
3
2
3
4
4
4
3
2
3
4
4
4
3
2
2
2
2
2
2
2
3
4
3
2
2
2
2
2
2
1
0
2
4
2
0
1
2
2
2
3
4
2
0
-1
-2
-1
0
0
0
1
2
1
0
0
1
3
4
3
2
3
3
1
0
1
2
1
3
7
7
4
3
2
-6
-14
-12
-10
-12
-14
-16
-18
-21
-24
-24
-22
-16
-11
-7
-3
1
3
-2
-4
-3
-2
-3
-4
-4
-4
-3
-2
-2
-2
-2
-3
-5
-5
-3
-2
-2
-2
-2
25
52
57
59
21
-21
-86
-152
-217
-283
-348
-391
-372
-337
-272
-207
-142
-79
-20
13
18
20
21
22
23
24
24
24
25
26
26
26
25
25
27
28
27
27
29
30
29
30
32
31
30
31
32
31
30
33
36
38
40
39
38
38
39
42
45
48
50
49
49
51
53
56
58
58
58
59
61
63
64
63
62
62
60
57
56
57
56
53
50
46
42
38
32
26
25
24
21
18
14
10
10
10
10
9
6
4
4
4
2
0
0
0
1
2
2
1
-2
-3
-1
0
1
2
2
2
3
3
1
0
0
1
0
4
4
5
6
5
4
7
10
8
6
9
12
10
8
8
8
9
10
10
10
7
6
7
8
7
6
6
6
5
4
3
3
5
3
-1
-2
-1
0
0
0
0
-1
-2
-1
0
-1
-2
-3
-4
-2
0
0
0
0
0
0
0
-2
-4
-3
-2
-1
-1
-4
-5
-3
-2
-3
-4
-3
-2
-2
-2
-2
-2
-3
-3
-1
0
-1
-2
-3
-4
-2
-4
-6
-4
-2
-3
-4
-4
-4
-4
-4
-4
-4
-3
-2
-2
-2
-2
-2
-2
-3
-6
-7
-4
-1
1
2
2
-3
-11
-14
-13
-15
-19
-20
-20
-22
-25
-26
-26
-20
-26
-12
-12
-8
-4
-5
-6
-7
-8
-7
-6
-8
-10
-8
-6
-6
-6
-7
-8
-7
-6
-9
-9
-7
-6
-5
10
35
50
60
42
10
-47
-112
-178
-243
-309
-374
-339
-290
-252
-215
-150
-86
-43
-2
5
12
12
12
13
14
15
16
16
16
17
18
17
16
16
16
17
18
19
20
20
21
23
23
21
20
19
20
23
24
23
24
27
28
27
27
29
30
32
34
36
37
38
39
40
43
46
48
50
50
50
52
54
55
56
56
56
57
58
61
61
58
55
53
49
44
40
36
32
27
25
23
20
17
14
11
10
10
9
10
4
2
3
4
3
2
3
4
3
2
1
0
0
0
1
2
1
0
1
2
3
5
7
8
7
6
5
5
7
8
9
9
7
6
6
6
6
6
6
6
5
4
4
5
6
6
6
5
4
3
2
2
2
2
2
1
0
1
2
2
2
3
3
0
-2
-1
0
0
0
0
0
-1
-2
-1
0
1
2
3
2
-1
-2
-2
-2
-4
-3
-2
-2
-2
-2
-2
0
2
0
-2
-1
0
-1
-2
-2
-2
-1
0
1
2
-1
-2
-2
-2
-2
-2
-1
0
0
0
-1
-2
-1
0
1
0
-3
-4
-4
-4
-4
-3
-4
-2
0
-1
-2
0
2
0
-2
-1
0
-1
-1
2
4
4
4
4
0
-11
-15
-12
-12
-18
-20
-20
-22
-25
-26
-25
-20
-14
-9
-5
-3
-1
0
-1
-2
-1
-2
-4
-3
-2
-1
0
-2
-4
-4
-4
-5
-6
-4
-2
-1
0
1
14
43
60
61
39
-7
-63
-129
-194
-260
-325
-391
-397
-374
-321
-256
-191
-126
-61
3
16
21
22
22
23
26
26
26
26
26
26
26
28
30
28
26
28
30
30
30
30
30
30
30
31
32
33
34
34
35
38
41
43
44
43
42
43
45
47
49
51
53
55
56
57
61
58
68
70
72
74
74
74
74
74
76
78
73
70
72
73
69
66
64
60
54
47
40
35
32
29
26
22
18
16
15
12
9
9
11
9
5
4
3
3
5
6
5
2
0
1
2
2
2
2
2
3
4
6
8
6
4
5
6
7
8
8
8
9
10
11
12
13
14
13
12
12
12
13
14
14
14
14
14
13
12
12
12
11
10
10
10
10
9
8
8
8
8
8
8
8
8
8
8
7
4
2
3
4
3
2
3
4
4
4
4
4
3
3
5
4
1
0
0
2
5
5
3
2
2
1
2
0
2
2
2
2
2
0
-2
0
2
2
2
2
2
2
2
1
0
0
0
1
2
2
1
-1
-1
1
2
1
0
0
0
0
0
1
2
2
2
2
2
1
1
2
1
0
3
6
5
4
4
2
-7
-14
-12
-11
-15
-18
-17
-17
-20
-22
-23
-21
-15
-9
-1
1
-1
-2
-2
-2
-2
-2
-1
-1
-3
-4
-3
-2
-2
-2
-2
-2
-2
-3
-4
-3
-2
4
14
43
66
64
47
-13
-75
-140
-206
-272
-337
-403
-427
-396
-349
-284
-219
-154
-89
-24
7
18
23
25
26
26
26
26
26
26
27
29
30
29
28
28
28
28
29
30
30
30
30
30
31
32
33
34
34
34
34
35
38
40
41
42
42
43
45
47
49
51
53
54
55
56
57
60
63
64
64
64
65
65
63
62
63
64
64
62
60
60
60
54
48
45
41
36
31
27
24
20
17
14
12
12
12
12
11
8
6
5
4
4
4
5
6
7
7
5
4
3
2
2
2
2
2
2
4
8
7
6
6
6
6
6
7
8
10
12
9
6
9
13
16
17
14
12
11
11
14
15
13
12
13
13
11
10
11
12
11
10
9
8
9
10
9
9
11
8
12
4
6
7
8
6
4
4
4
4
4
4
4
6
7
3
1
4
6
5
4
3
3
5
4
0
-1
2
4
3
3
5
5
3
2
1
1
3
4
3
2
3
2
0
2
4
1
-2
-1
0
1
2
5
7
2
-2
-2
-2
0
2
1
0
1
2
1
0
1
2
2
2
1
0
1
2
2
3
5
6
6
5
3
-3
-9
-10
-10
-15
-20
-18
-16
-20
-24
-21
-18
-14
-9
-3
2
2
2
0
-2
-2
-2
-1
0
-1
-2
-3
-4
-3
-1
1
2
1
0
0
-1
-3
-2
1
23
47
62
77
50
78
-45
-111
-176
-242
-307
-358
-310
-270
-268
-251
-186
-121
-56
-8
5
14
15
16
17
18
18
19
21
22
21
20
19
18
19
21
23
24
23
22
22
23
25
25
23
22
23
25
26
26
26
28
30
28
26
28
30
31
32
35
38
38
38
37
38
43
46
47
49
51
52
52
52
53
54
54
54
54
55
57
56
53
53
55
50
43
39
35
33
30
25
20
19
18
14
10
11
12
11
10
8
6
6
6
5
4
5
6
5
3
0
-1
1
2
2
2
2
2
3
4
4
5
7
8
7
7
9
10
10
10
10
10
8
9
10
11
12
11
10
10
10
9
8
7
6
7
8
6
5
8
9
6
4
5
6
6
6
5
4
4
4
4
4
4
4
5
6
6
5
3
2
3
3
2
3
4
4
4
2
0
1
2
1
0
2
4
2
0
1
2
2
2
2
2
1
0
0
0
1
1
-3
-3
-1
0
0
0
0
0
-1
-2
-1
0
-1
-2
-2
-1
0
0
0
0
0
-1
-2
0
2
0
-2
-2
-2
-1
0
0
0
0
0
-1
-1
2
4
4
4
4
-1
-9
-12
-11
-12
-15
-16
-17
-19
-21
-22
-23
-19
-24
-7
-2
1
4
1
-2
-2
-2
-2
-2
-2
-2
-1
0
-2
-4
-3
-2
-2
-2
-3
-4
-3
-2
-1
13
36
52
64
52
28
-27
-92
-158
-223
-289
-354
-354
-345
-292
-235
-170
-106
-47
8
14
20
22
24
25
26
26
26
27
28
27
26
27
28
27
26
28
30
29
28
29
30
31
32
32
33
35
36
35
35
37
38
37
38
41
42
43
45
48
49
50
52
54
55
56
59
62
66
70
70
70
72
74
73
72
72
72
73
74
73
71
69
67
65
61
56
50
43
38
33
29
23
21
19
16
13
11
9
8
8
7
6
5
4
3
2
4
6
5
4
3
2
4
6
5
4
4
4
5
6
5
5
7
8
8
9
11
10
7
8
11
12
12
12
12
12
12
13
15
15
13
12
12
12
12
11
10
10
10
9
8
7
6
7
8
8
8
6
4
5
6
6
6
5
4
4
3
1
0
1
2
2
2
2
2
1
1
3
4
3
1
-1
-2
0
1
2
1
0
0
0
-1
-2
-2
-2
-1
0
-1
-2
-2
-2
-1
0
0
0
-1
-2
-2
-1
1
1
-1
-2
-2
-2
-2
-1
1
1
-1
-2
-2
-2
-2
-2
-2
-2
-2
-1
0
-2
-4
-3
-2
-2
-2
-3
-4
-3
-2
-2
-2
-1
0
0
0
3
3
1
1
3
-2
-14
-17
-15
-16
-19
-20
-20
-22
-25
-25
-23
-19
-15
-8
-1
-2
-4
-5
-6
-5
-4
-4
-4
-3
-2
-3
-4
-3
-2
-4
-6
-5
-4
-4
-4
-2
2
6
24
53
65
62
22
-39
-103
-168
-234
-299
-365
-430
-413
-377
-316
-251
-186
-121
-56
9
14
20
21
22
23
24
23
22
24
26
25
24
25
26
26
26
26
26
26
26
29
30
29
28
29
30
31
32
33
34
34
35
37
39
41
42
42
42
43
46
44
51
52
52
52
55
58
60
62
62
62
63
64
65
66
65
64
64
64
63
62
59
55
48
43
41
39
36
31
26
22
18
15
13
12
12
11
9
7
5
4
4
5
6
4
2
1
0
1
2
1
0
-1
-2
0
2
2
2
3
4
6
7
3
1
3
4
5
6
6
6
7
8
8
9
11
12
12
12
11
10
10
9
7
7
10
10
10
9
8
5
2
4
6
5
4
5
6
4
2
3
4
4
4
4
4
3
2
2
2
2
2
2
2
1
0
1
0
-3
-4
-3
-2
-1
0
1
2
2
0
-2
-1
0
-1
-2
-2
-2
-3
-4
-2
0
-1
-2
-2
-2
-3
-4
-2
0
-3
-4
-5
-5
-2
0
0
-1
-3
-4
-4
-4
-4
-4
-3
-2
-2
-3
-5
-6
-5
-1
2
1
0
-2
-4
-3
-2
-1
0
4
7
3
-1
-5
-8
-9
-11
-15
-18
-18
-18
-19
-21
-24
-23
-18
-16
-15
-12
-8
-4
-1
-4
-9
-8
-5
-4
-3
-2
-2
-3
-6
-7
-8
-7
-6
-6
-6
-6
-6
-2
5
18
35
61
69
41
-1
-67
-132
-198
-263
-329
-334
-285
-272
-286
-252
-187
-122
-57
-22
0
7
9
12
15
16
17
18
17
16
16
15
16
17
18
18
18
17
16
17
18
18
18
16
15
18
20
21
22
23
24
21
20
20
21
23
24
24
24
23
24
27
28
29
33
37
38
37
36
35
37
41
42
42
41
40
40
40
39
38
39
40
38
35
31
28
27
25
21
17
14
12
10
8
7
6
6
5
3
2
1
0
0
0
0
0
0
-2
-5
-5
-3
-2
-3
-4
-4
-3
-2
-3
-4
-1
2
1
0
1
2
2
2
4
6
4
2
3
4
4
4
5
6
6
6
5
4
5
6
5
4
3
2
2
2
3
2
-1
-2
-2
-1
-2
2
2
1
0
-1
-2
-1
0
-1
-2
-1
0
-1
-2
-3
-4
-2
0
-1
-2
-3
-4
-3
-2
-2
-2
-3
-4
-3
-2
-2
-2
-2
-2
-3
-4
-4
-4
-3
-2
-2
-3
-4
-4
-4
-4
-4
-4
-4
-5
-6
-5
-4
-4
-4
-4
-4
-3
-2
-1
0
-2
-4
-4
-4
-4
-4
-4
-4
-3
-2
-2
-2
-3
-4
-3
-2
-3
-3
-1
0
1
1
-2
-8
-14
-14
-14
-16
-18
-20
-22
-24
-26
-26
-25
-21
-16
-9
-4
-3
-2
-3
-4
-4
-4
-4
-4
-5
-6
-5
-4
-3
-2
-3
-4
-4
-4
-5
-6
-5
0
5
35
6
63
58
2
-56
-121
-187
-252
-318
-383
-426
-392
-348
-283
-218
-153
-89
-25
13
16
18
21
22
22
22
23
24
25
26
25
24
25
25
23
23
25
26
27
28
27
26
27
28
28
31
34
33
32
33
34
36
38
39
40
41
42
42
43
46
48
50
53
56
58
57
59
65
68
68
68
69
70
71
72
72
72
72
72
72
71
69
66
63
58
52
45
38
36
34
28
22
20
18
16
14
11
8
9
10
8
6
6
6
6
6
5
5
7
7
4
3
5
6
5
4
3
3
5
6
7
8
9
10
9
8
8
11
12
11
10
12
14
14
14
14
14
14
14
15
16
14
12
13
14
13
12
12
12
13
14
13
11
9
8
9
10
10
10
10
9
7
6
7
8
8
8
7
5
4
5
6
7
8
7
6
5
4
4
4
7
10
6
4
5
6
5
4
6
7
5
4
4
4
4
4
4
4
4
4
4
4
4
5
7
7
5
4
4
4
2
3
4
3
2
3
4
3
2
3
4
2
0
1
2
2
2
3
4
4
4
3
2
2
2
3
5
7
6
3
1
-1
-4
-7
-10
-13
-14
-15
-16
-17
-21
-18
-20
-14
-9
-4
0
4
3
2
-1
-4
-3
-2
-1
0
0
0
-1
-2
-2
-2
-1
0
-1
-2
-2
-2
-1
14
35
51
64
55
36
-20
-85
-151
-216
-282
-347
-343
-333
-313
-292
-227
-162
-97
-37
-6
20
22
24
25
26
27
28
29
30
29
28
29
30
29
29
31
32
32
32
31
31
35
36
36
36
37
38
39
40
39
38
39
41
43
44
44
47
50
54
58
56
54
58
62
63
64
67
70
72
74
75
76
78
79
76
74
75
76
75
74
73
71
68
63
58
54
49
43
36
31
27
26
26
22
17
16
16
14
12
11
10
10
10
9
8
9
10
8
6
5
4
5
6
5
4
6
8
5
5
7
8
9
10
10
10
11
12
12
12
13
14
13
12
13
14
14
14
14
14
14
14
14
14
14
14
14
12
10
9
8
9
10
11
12
10
8
7
6
7
8
8
8
7
6
6
6
6
6
6
6
6
5
3
2
2
3
5
6
5
4
2
3
4
3
2
2
2
2
2
1
0
2
4
2
0
0
0
2
4
2
0
3
3
0
0
4
6
5
3
1
0
1
2
3
4
3
2
2
1
-1
0
-2
2
0
0
0
0
0
1
2
1
0
2
4
4
5
9
10
4
0
-1
-4
-9
-13
-15
-16
-17
-18
-17
-19
-24
-24
-21
-17
-13
-5
4
4
1
0
-1
-2
-1
-2
-4
-3
-2
-5
-8
-4
0
0
0
-1
-2
-3
-4
-3
0
7
24
56
72
67
32
-34
-99
-165
-230
-296
-346
-387
-386
-364
-311
-246
-181
-116
-58
-2
12
19
20
20
20
18
19
20
22
24
23
22
22
22
21
20
23
26
25
24
25
26
24
22
22
23
28
29
27
26
26
27
30
32
31
30
30
31
33
34
35
37
39
40
40
40
40
40
40
45
50
46
42
42
42
41
40
41
42
39
36
35
34
32
30
28
25
22
19
17
16
15
14
13
10
7
6
7
7
5
4
5
5
3
2
2
2
1
1
2
1
0
1
2
1
0
1
2
0
-2
1
4
2
1
4
6
4
3
6
7
5
4
5
6
6
6
7
8
7
6
7
8
7
6
7
7
5
4
3
2
0
2
4
3
2
2
2
3
4
2
0
-2
-4
-2
0
0
0
-1
-2
-2
-2
-2
-2
-1
0
-1
-2
-2
-2
-1
-1
-3
-3
-1
0
-1
-2
-3
-3
-1
0
0
-2
-2
-2
-2
-2
-2
-2
-2
-1
0
-2
-4
-4
-4
-4
-4
-3
-2
-3
-4
-3
-2
-1
-1
-3
-4
-4
-4
-3
-2
-2
-2
-3
-4
-3
-2
-2
-2
-2
-2
-1
3
6
4
2
-4
-10
-10
-10
-14
-18
-19
-20
-21
-22
-26
-26
-19
-13
-10
-4
5
4
-8
-11
-5
-2
-3
-4
-4
-5
-7
-7
-5
-4
-5
-6
-7
-8
-8
-8
-7
-5
-2
21
44
51
57
40
16
-49
-115
-180
-246
-311
-348
-315
-290
-283
-253
-188
-123
-58
-14
7
18
17
17
19
20
21
22
23
24
23
22
22
22
22
23
25
26
26
26
26
25
26
26
26
27
28
28
28
28
28
33
36
35
34
35
36
36
37
40
43
46
48
49
51
53
55
57
58
59
61
63
64
63
63
65
66
66
66
65
64
64
59
54
51
48
43
38
34
30
27
24
22
20
17
14
12
10
8
6
5
4
4
4
3
3
5
6
5
4
3
2
2
2
3
4
3
2
3
4
5
6
5
4
6
7
8
8
8
9
10
9
8
10
12
11
10
11
11
8
6
7
8
8
8
8
8
7
6
5
4
3
2
3
4
3
2
2
2
3
3
1
0
0
0
0
0
-2
0
2
1
0
0
0
0
0
1
2
0
-2
-1
0
-1
-2
-2
-2
-2
-2
-2
-2
-2
-2
-3
-4
-3
-2
-1
0
-1
-2
-2
-2
-1
0
-1
-2
-3
-4
-4
-3
-2
-2
-2
-2
-2
-3
-4
-3
-2
-2
-2
-2
-2
-3
-4
-2
0
-2
-4
-3
-2
-2
-2
-2
-2
-2
-1
1
2
3
4
4
-1
-9
-10
-10
-12
-15
-17
-20
-21
-22
-25
-28
-21
-14
-9
-4
-1
2
0
-2
-2
-2
-3
-4
-3
-2
-3
-4
-3
-2
-3
-4
-4
-4
-4
-3
-1
0
0
18
41
52
60
42
19
-43
-108
-174
-112
-305
-367
-345
-322
-290
-253
-188
-123
-58
-5
8
18
21
24
24
24
24
24
25
26
26
26
26
26
27
28
29
30
30
30
30
30
31
33
35
35
33
33
35
36
36
38
40
42
44
43
42
45
48
51
54
52
51
56
60
61
63
66
68
70
72
73
74
75
76
75
74
74
74
74
74
75
73
69
63
56
52
49
44
39
34
29
25
20
20
20
18
16
14
12
9
6
7
8
8
8
9
9
5
2
4
6
7
8
5
4
5
6
7
8
9
10
9
8
8
8
9
10
11
12
11
10
11
12
12
14
14
14
14
15
16
16
16
18
20
15
12
12
12
12
12
12
12
11
10
9
8
9
10
10
10
9
7
5
5
7
7
5
4
4
4
5
6
6
4
1
3
6
5
4
5
6
4
2
1
0
1
2
2
2
1
0
1
2
2
2
0
-2
-1
0
1
1
-1
-2
-1
-1
-3
-2
1
2
2
2
1
0
1
2
2
2
0
0
0
2
4
1
-2
-2
-2
-1
0
2
4
2
0
0
0
2
4
3
2
3
6
10
10
4
2
3
-2
-11
-13
-11
-13
-19
-19
-17
-18
-21
-22
-21
-18
-20
-8
-2
0
2
1
0
-2
-4
-4
-4
-1
2
-1
-4
-3
-2
-2
-2
-3
-4
-1
0
0
2
6
27
59
68
64
21
-37
-101
-166
-232
-297
-363
-428
-396
-351
-288
-223
-157
-93
-41
8
13
18
20
22
22
22
21
20
21
22
23
24
24
24
24
24
24
24
25
26
26
26
26
25
21
22
26
28
29
29
27
30
35
34
31
30
30
31
34
35
36
37
38
41
44
44
44
45
46
46
46
48
49
45
42
43
44
43
42
45
42
34
31
33
33
30
26
22
20
19
15
11
10
10
9
7
6
5
4
4
3
2
2
2
0
-2
-2
-2
-1
0
-1
-2
-3
-4
-3
-2
-2
-2
-1
0
-3
-3
-1
-1
-3
-3
0
2
2
2
3
4
4
4
4
4
4
4
4
4
3
2
2
2
2
2
2
2
2
1
0
0
0
0
0
1
2
0
-2
0
2
1
0
-1
-3
-5
-5
-2
0
0
-1
-3
-4
-4
-4
-3
-2
-2
-2
-2
-3
-5
-5
-2
-3
-4
-5
-6
-5
-4
-4
-4
-5
-6
-6
-6
-5
-4
-3
-2
-3
-4
-6
-8
-7
-6
-6
-6
-5
-4
-4
-4
-5
-6
-5
-4
-4
-5
-7
-7
-5
-4
-5
-6
-6
-5
-4
-3
-2
-2
-2
-2
-2
-3
-4
-3
-3
-7
-11
-14
-17
-20
-22
-22
-22
-23
-25
-28
-26
-19
-13
-8
-5
-3
-3
-5
-6
-5
-4
-4
-5
-7
-8
-7
-6
-6
-6
-6
-5
-4
-5
-6
-5
-4
-2
4
26
44
52
52
33
-3
-69
-134
-200
-265
-331
-350
-320
-297
-280
-234
-169
-104
-39
-7
11
17
19
20
21
22
21
21
23
24
25
26
26
26
26
26
26
25
24
25
26
28
30
29
28
29
30
30
30
31
32
33
34
35
37
39
40
41
43
45
46
47
49
51
53
55
58
61
62
62
64
67
68
68
70
70
71
72
71
70
70
70
67
63
58
54
52
48
42
37
33
29
25
22
21
20
19
17
15
13
11
10
11
12
11
10
9
8
8
8
8
9
11
10
7
6
6
8
10
11
12
10
8
10
12
13
14
15
16
15
14
12
11
14
16
16
16
15
14
14
14
13
13
15
15
13
12
11
10
9
8
9
10
9
8
8
8
8
8
8
7
6
6
6
7
8
9
9
5
2
4
6
5
4
5
6
5
4
4
4
4
4
4
4
4
4
4
4
4
4
4
4
4
4
5
5
3
2
2
3
4
3
2
3
4
4
4
4
4
3
2
2
2
3
3
0
-1
2
4
3
2
2
2
2
2
2
2
3
4
3
2
2
2
3
4
4
4
5
6
6
5
4
0
-4
-6
-8
-11
-14
-12
-11
-17
-22
-23
-23
-19
-14
-8
-3
1
4
2
0
0
0
0
0
-1
-2
-2
-1
1
1
-1
-2
-2
-2
-2
-2
-3
-2
1
22
44
55
65
36
3
-62
-128
-193
-259
-324
-371
-355
-330
-281
-226
-161
-96
-31
9
17
22
21
21
23
24
25
26
27
28
29
29
27
26
27
28
29
30
30
30
30
31
30
34
34
35
36
35
34
37
40
40
40
42
44
43
43
47
50
51
52
54
56
59
60
61
64
70
72
73
74
75
76
77
78
78
78
77
76
75
74
73
69
65
60
56
49
42
38
34
31
28
22
18
16
14
13
12
11
10
9
8
7
6
5
4
3
2
3
4
5
5
3
2
3
4
4
4
4
4
5
6
7
8
8
8
8
9
10
9
8
9
10
10
10
10
10
10
10
10
10
8
6
7
8
6
4
5
6
5
4
3
3
5
6
5
2
-1
-2
-1
0
1
2
1
0
-1
-2
-2
-2
-2
0
2
0
-2
-2
-2
1
4
3
2
0
-2
-2
-2
-1
0
-2
-4
-3
-2
-1
0
-1
-2
-2
-2
-3
-3
-1
-1
-3
-4
-4
-4
-5
-5
-3
-2
-2
-3
-4
-5
-6
-6
-6
-4
-2
-2
-2
-3
-4
-5
-6
-6
-6
-5
-4
-5
-6
-5
-4
-3
-3
-5
-6
-5
-3
-1
0
0
0
0
-6
-14
-13
-9
-14
-21
-22
-22
-23
-26
-28
-30
-25
-20
-14
-8
-5
-2
-3
-4
-6
-8
-8
-8
-8
-8
-7
-6
-6
-6
-6
-7
-9
-9
-7
-7
-9
-9
-7
5
22
43
65
54
33
-26
-91
-157
-222
-288
-226
-331
-308
-312
-310
-245
-180
-115
-56
-19
10
10
10
10
10
12
14
15
16
16
16
16
16
17
18
18
18
19
20
19
18
18
18
19
20
20
20
19
18
19
22
25
26
26
25
24
26
28
30
32
34
36
33
30
33
36
36
37
40
42
43
43
40
39
42
43
40
37
35
34
34
34
33
30
27
22
17
15
13
12
12
9
5
4
2
2
2
2
2
-1
-4
-3
-2
-4
-6
-6
-6
-6
-6
-8
-10
-9
-8
-8
-8
-9
-9
-7
-6
-7
-8
-7
-6
-5
-4
-3
-2
-2
-2
-3
-4
-3
-2
-1
0
0
0
0
1
2
1
0
0
0
-1
-2
-2
-2
-2
-2
-2
-2
-2
-2
-1
0
-1
-2
-3
-4
-4
-4
-3
-2
-2
-2
-2
-2
-2
-2
-3
-4
-3
-2
-2
-2
-2
-2
-2
-2
-2
-5
-8
-6
-4
-4
-4
-4
-4
-5
-6
-4
-2
-3
-4
-4
-4
-6
-8
-7
-5
-3
-2
-2
-3
-7
-6
-3
-2
-3
-3
-1
-3
-7
-7
-5
-4
-4
-4
-4
-3
-2
-3
-4
-3
-2
0
2
2
2
4
4
-4
-10
-11
-13
-16
-18
-19
-20
-21
-23
-25
-23
-17
-12
-8
-3
2
2
-1
-2
-2
-2
-3
-3
-1
0
-1
-2
-2
-5
-6
-4
-2
-5
-8
-7
-6
-4
1
16
33
51
60
48
16
-50
-115
-181
-246
-312
-336
-320
-314
-320
-283
-218
-153
-88
-39
3
15
17
19
21
22
22
22
23
25
27
27
26
24
22
24
26
27
28
30
32
30
28
28
28
30
32
33
34
35
36
36
36
37
39
41
42
43
45
47
48
49
52
55
56
56
58
61
63
65
68
71
71
68
68
68
70
72
70
68
68
68
65
61
57
53
48
43
38
33
30
27
23
20
19
17
15
14
13
12
12
11
9
8
8
8
8
8
8
8
8
8
7
7
6
8
6
7
8
9
10
10
10
11
12
12
12
12
12
13
14
13
12
14
16
16
16
16
16
16
15
13
12
13
14
13
12
12
12
12
12
11
10
10
10
11
12
12
10
8
9
10
9
8
9
10
9
8
7
6
6
6
7
8
8
8
7
6
6
6
6
6
7
8
7
6
6
6
6
7
9
8
5
5
7
7
5
5
8
7
6
6
6
6
6
6
6
6
6
7
8
8
8
6
4
6
7
4
2
5
6
5
4
5
6
6
6
6
6
6
6
6
6
6
6
6
6
7
8
8
11
14
11
8
8
7
0
-6
-8
-10
-11
-12
-11
-12
-18
-21
-15
-11
-8
-3
6
9
6
3
1
0
1
3
5
4
1
0
1
2
2
2
2
2
2
2
3
5
6
20
35
57
75
65
45
-20
-86
-151
-217
-282
-336
-362
-376
-365
-332
-267
-202
-137
-72
-7
24
26
29
31
32
32
32
32
32
32
32
33
34
34
34
34
34
35
36
36
36
36
36
36
38
40
41
42
42
42
43
44
45
47
50
52
50
48
50
52
55
56
57
60
64
66
67
69
71
73
75
76
77
78
77
76
76
76
77
77
78
73
72
70
68
60
52
48
44
38
34
31
28
25
21
18
16
15
14
13
12
11
10
11
11
9
8
9
10
9
8
8
8
9
8
5
6
9
10
11
11
9
7
6
8
10
10
10
10
10
11
12
13
14
13
12
12
12
13
14
15
15
12
10
11
12
11
10
10
10
11
11
9
8
7
6
7
8
8
8
8
6
3
2
4
4
4
3
2
1
0
1
2
3
4
4
4
2
0
0
0
2
4
5
6
3
2
3
4
4
4
4
4
4
4
3
2
3
4
4
3
1
0
1
2
2
3
2
0
-2
0
2
2
2
3
4
3
2
2
2
2
2
1
0
0
0
0
0
1
2
2
2
1
0
1
2
2
2
2
2
3
4
4
4
5
6
6
1
-4
-5
-6
-10
-14
-16
-18
-18
-18
-21
-23
-17
-11
-7
-3
0
2
1
0
0
0
0
0
0
0
-1
-2
-2
-2
-1
-1
-3
-2
1
2
1
0
0
20
43
58
74
48
20
-45
-111
-176
-242
-307
-354
-324
-300
-301
-283
-218
-153
-88
-36
-3
16
16
16
19
20
20
20
19
19
22
24
24
24
24
24
24
24
24
24
23
22
22
23
22
26
26
27
28
25
22
25
28
28
28
30
32
31
30
32
35
38
40
39
38
39
40
39
40
46
47
45
44
44
44
44
44
43
42
42
40
37
36
35
34
33
25
18
17
16
12
8
9
10
7
4
2
0
1
2
2
2
0
-2
-2
-2
-2
-2
-2
-2
-3
-4
-4
-4
-4
-4
-3
-2
-2
-3
-5
-5
-3
-2
-1
0
1
2
0
1
2
3
4
4
4
4
4
4
4
4
4
3
2
3
4
4
4
3
2
-1
-1
1
2
1
0
0
0
-1
-2
-2
-2
-1
0
-1
-2
-3
-4
-4
-4
-4
-2
0
-3
-6
-4
-2
-2
-2
-2
-2
-2
-2
-3
-4
-3
-2
-1
-1
-4
-6
-3
-2
-3
-4
-4
-4
-3
-2
-3
-4
-3
-2
-3
-4
-4
-4
-4
-4
-4
-4
-4
-4
-4
-4
-4
-4
-4
-4
-4
-5
-6
-5
-4
-2
0
-4
-6
-4
-2
-2
-2
-2
-2
-2
-5
-13
-15
-13
-14
-18
-20
-20
-23
-28
-30
-29
-23
-17
-13
-9
-7
-5
-5
-8
-7
-6
-5
-4
-5
-6
-6
-6
-6
-6
-7
-8
-6
-4
-6
-8
-6
-4
-2
14
44
58
57
29
-18
-76
-142
-208
-273
-339
-404
-399
-370
-312
-247
-182
-117
-58
1
9
4
16
16
18
20
18
16
19
22
21
20
22
24
21
18
20
22
22
22
24
26
26
26
27
28
28
28
29
30
30
30
31
32
33
36
39
40
40
40
40
43
47
50
52
52
52
55
58
61
64
64
64
65
66
65
64
64
64
66
68
66
63
59
55
52
48
43
37
32
27
22
20
19
16
13
11
9
8
8
7
5
4
5
6
4
1
-2
0
2
2
2
3
4
2
0
1
2
3
4
4
4
3
3
6
8
8
8
8
8
8
8
9
10
10
10
10
10
10
10
10
10
10
10
9
8
8
6
4
4
4
4
4
4
4
4
4
4
4
3
2
2
2
2
2
4
5
2
1
3
3
1
0
0
0
1
2
2
2
1
1
3
4
3
2
3
3
1
0
0
1
2
2
2
1
0
1
2
2
2
1
0
0
0
1
2
3
3
0
-2
-1
0
0
0
1
2
2
2
1
0
1
2
2
2
1
0
1
1
-1
-1
2
1
0
1
2
6
10
6
2
1
-1
-8
-14
-13
-12
-14
-16
-17
-18
-20
-22
-22
-20
-15
-8
-1
2
1
0
-1
-2
-1
0
0
0
-1
-1
1
2
1
0
0
-2
-2
-2
-2
0
2
6
15
46
70
67
46
-19
-85
-151
-216
-282
-347
-413
-433
-399
-349
-284
-219
-154
-89
-24
7
20
24
25
26
26
26
27
28
27
26
27
28
29
29
28
30
32
31
30
30
30
32
34
34
34
34
34
36
38
39
40
41
42
43
44
45
47
50
52
53
55
57
60
63
64
64
67
71
72
72
72
73
76
79
79
76
77
78
76
74
76
77
69
62
58
53
48
43
37
32
30
27
24
21
18
16
16
15
12
11
13
13
10
8
9
10
9
8
8
8
8
8
8
8
8
8
8
8
8
8
8
9
10
10
10
12
14
15
16
15
14
14
14
16
18
16
14
17
17
15
14
13
13
15
16
15
13
11
10
10
10
10
10
11
12
11
10
10
8
6
7
8
8
8
7
6
7
8
9
10
8
6
6
6
6
6
6
6
7
7
4
2
3
4
4
5
7
6
3
2
2
3
5
6
6
6
5
4
4
4
2
2
2
2
2
3
4
3
2
2
2
2
2
2
2
2
2
1
0
2
4
1
0
1
2
3
3
1
0
1
2
3
4
3
2
3
4
5
6
7
1
8
-10
-12
-14
-16
-16
-16
-17
-18
-22
-25
-19
-13
-8
-3
1
3
-1
-4
-3
-2
-1
0
-1
-3
-5
-6
-5
-4
-3
-2
-3
-4
-3
-2
-2
-1
1
16
32
52
71
54
34
-31
-97
-162
-228
-293
-345
-326
-310
-311
-295
-230
-165
-100
-46
-11
11
15
18
19
20
19
18
18
18
18
19
21
20
17
16
17
18
19
20
20
20
21
23
25
25
22
23
24
24
24
25
26
27
28
28
28
29
30
32
34
35
36
37
38
40
42
42
43
45
46
46
47
49
48
44
42
42
42
43
41
37
36
35
34
34
28
34
18
16
14
12
8
4
6
8
6
4
3
2
1
0
-1
-2
-3
-4
-5
-6
-6
-6
-7
-8
-9
-9
-6
-5
-7
-8
-7
-6
-6
-6
-5
-4
-5
-6
-5
-4
-3
-1
0
-1
-2
-2
-2
-1
0
-1
-2
-1
0
1
2
1
0
0
0
-2
-4
-2
0
1
0
-4
-6
-6
-5
-3
-3
-5
-6
-5
-4
-5
-6
-6
-6
-6
-6
-7
-8
-6
-5
-4
-5
-6
-8
-10
-9
-8
-8
-8
-7
-6
-7
-8
-9
-10
-8
-6
-7
-8
-8
-8
-9
-10
-10
-9
-7
-6
-7
-8
-8
-8
-9
-10
-10
-10
-10
-10
-9
-8
-8
-9
-10
-9
-8
-8
-8
-8
-8
-7
-6
-7
-8
-8
-7
-4
-2
-2
-2
-4
-9
-16
-19
-17
-18
-22
-25
-27
-28
-28
-30
-33
-30
-24
-18
-13
-10
-7
-8
-11
-10
-7
-9
-12
-11
-10
-10
-10
-11
-12
-10
-8
-10
-12
-11
-10
-10
-10
-9
-1
19
36
50
49
31
-13
-79
-144
-210
-275
-341
-344
-318
-306
-300
-248
-183
-118
-53
-19
9
13
15
16
16
14
12
15
18
18
18
18
18
17
16
17
18
19
20
21
22
22
22
21
21
24
26
25
24
25
26
27
28
29
30
31
32
33
36
39
42
45
45
43
44
42
50
52
54
56
57
58
57
56
58
60
61
62
60
58
57
56
54
52
51
47
40
34
29
25
23
19
14
11
9
8
7
6
6
6
5
3
1
0
0
0
0
1
2
-2
-6
-6
-6
-11
-15
-6
-2
-22
-46
-76
-109
-147
-192
-251
-279
-262
-266
-299
-302
-272
-278
-316
-294
-229
-164
-99
-45
3
16
16
16
16
16
16
16
16
16
17
18
18
18
18
19
20
20
20
22
24
25
26
23
20
23
26
26
26
27
28
29
30
33
34
34
33
30
31
37
41
43
46
51
55
59
64
71
75
79
80
79
79
78
83
84
84
84
83
82
78
73
66
59
50
43
38
33
30
27
24
21
17
14
14
14
14
13
11
10
11
12
11
12
15
13
9
9
11
12
12
12
12
12
11
11
12
13
14
12
10
9
8
9
10
10
10
7
4
5
6
7
8
8
8
6
4
4
4
4
4
5
6
5
4
4
4
3
2
3
4
3
2
2
2
3
4
4
4
4
2
0
1
2
4
6
3
0
-1
-2
0
2
2
2
2
2
1
0
0
0
1
2
1
0
1
2
2
2
1
0
0
0
0
0
0
0
0
0
0
1
0
0
0
1
2
0
-2
-2
-2
0
2
2
2
2
2
1
0
1
2
2
2
1
1
3
3
0
0
3
4
4
3
1
0
0
0
1
2
2
2
3
5
6
5
4
3
2
2
2
1
0
2
4
4
4
3
2
2
2
3
4
2
0
1
2
2
2
3
4
4
3
1
0
1
2
2
2
1
2
5
6
5
2
-2
0
2
1
0
1
2
1
0
1
2
3
4
3
2
2
2
2
2
2
2
2
2
3
4
4
3
1
0
1
2
1
0
1
2
1
0
1
2
2
2
2
1
0
1
2
1
0
0
0
1
2
2
2
2
2
1
0
0
0
1
2
3
3
1
0
1
2
1
0
0
0
0
0
1
2
2
2
3
4
4
3
1
0
0
3
6
7
8
11
14
10
7
12
15
11
7
0
-6
-13
-18
-17
-15
-12
-11
-13
-17
-25
-24
-17
-11
-6
0
6
5
1
1
3
4
4
4
3
2
1
0
2
3
4
2
0
-1
-2
0
2
2
4
13
29
61
76
58
21
-45
-110
-176
-241
-307
-331
-318
-322
-339
-306
-241
-176
-111
-51
6
21
23
26
29
30
29
28
29
30
30
31
30
30
30
29
28
32
36
33
30
29
28
31
34
35
36
35
34
34
34
37
39
41
42
41
40
41
43
45
48
51
50
47
47
49
52
55
55
53
53
55
56
56
56
56
58
60
58
56
55
54
54
54
54
54
50
47
42
37
34
32
31
27
21
17
14
12
13
13
9
8
8
7
5
4
4
4
4
4
3
2
3
4
2
5
8
8
8
9
10
9
8
10
12
12
12
12
12
13
14
14
14
12
10
10
10
10
10
11
12
11
10
9
8
7
6
7
8
7
6
5
4
5
6
6
3
2
3
4
4
4
4
4
3
2
3
4
4
4
4
4
3
2
2
2
3
4
3
2
3
4
3
2
3
4
4
4
4
3
1
0
1
2
2
2
3
5
6
4
2
3
4
3
2
2
2
2
2
3
4
5
6
4
2
2
2
3
4
3
3
5
6
7
8
7
5
3
4
7
6
3
2
3
-4
-13
-14
-13
-12
-12
-13
-14
-19
-24
-18
-12
-5
0
4
8
6
4
3
2
3
4
2
0
1
2
2
2
2
2
2
2
2
2
2
4
9
34
66
68
61
18
-31
-95
-160
-226
-164
-357
-419
-387
-352
-287
-222
-157
-93
-32
16
21
24
26
28
28
28
28
28
28
28
31
32
32
32
31
30
30
31
33
34
33
32
33
34
34
35
37
38
39
40
40
41
42
41
40
44
48
47
46
49
52
53
54
57
60
61
62
63
65
68
70
71
72
72
72
73
74
74
74
74
72
69
67
65
60
55
51
47
42
37
32
27
26
24
21
18
16
14
13
12
12
12
11
10
9
8
7
6
7
8
8
8
8
8
9
11
13
13
11
10
10
10
11
12
12
13
15
16
15
14
15
16
16
16
16
14
14
14
14
15
16
16
16
14
12
12
12
11
10
11
12
11
10
11
12
9
8
9
10
9
8
7
7
9
10
9
8
9
10
9
8
9
10
9
8
7
7
8
8
8
7
6
6
6
6
6
5
4
5
6
7
8
8
8
6
4
5
5
3
2
2
2
3
4
4
4
4
4
3
2
2
2
3
4
3
2
3
3
0
3
6
4
2
3
4
4
4
7
9
5
1
-3
-6
-6
-7
-10
-12
-13
-15
-18
-21
-23
-21
-15
-9
-4
0
4
5
3
2
1
0
1
2
2
2
1
0
0
1
0
1
2
1
0
0
0
4
14
43
64
62
44
-8
-64
-130
-195
-261
-326
-392
-411
-384
-336
-271
-206
-141
-76
-11
15
23
26
25
24
24
25
27
29
31
30
27
27
28
29
30
30
30
29
28
29
30
32
34
33
32
34
36
37
38
38
38
39
40
40
41
44
46
47
49
53
54
55
56
57
59
61
63
65
66
67
70
73
74
72
73
74
72
70
71
72
70
68
66
63
59
54
47
41
36
31
28
25
21
18
17
15
13
12
12
12
11
10
10
10
9
8
7
6
7
8
8
6
3
3
2
7
8
7
6
7
8
8
8
10
12
12
12
12
12
12
12
13
14
14
14
13
12
12
13
15
15
12
10
11
12
11
10
9
8
9
10
9
8
7
6
7
7
6
6
6
5
4
5
6
6
6
5
4
4
4
3
2
3
4
3
2
4
6
5
4
3
2
2
2
3
4
4
3
1
0
1
2
2
2
2
1
-1
-1
2
1
0
0
0
0
0
3
6
3
0
0
0
1
1
-2
-4
-2
0
0
0
1
2
3
4
3
2
3
4
3
4
7
6
3
1
-1
-4
-7
-13
-19
-19
-20
-17
-18
-21
-24
-23
-22
-15
-9
-3
2
0
-2
-3
-4
-3
-2
-2
-2
-2
-2
-2
-3
-5
-6
-6
-6
-5
-4
-5
-4
-1
11
26
49
74
64
46
-14
-79
-145
-210
-276
-340
-314
-290
-297
-296
-231
-166
-101
-44
-13
10
13
16
16
16
16
16
17
18
18
19
21
21
19
18
18
18
19
20
20
20
20
20
21
22
23
24
25
26
26
26
26
28
30
30
30
30
30
32
34
33
32
34
36
36
36
38
41
44
46
44
42
42
42
42
42
41
40
40
39
37
36
35
32
29
27
25
21
17
15
13
12
12
10
10
7
4
3
2
2
2
0
-2
-2
-2
-2
-2
-2
-2
-2
-2
-3
-4
-3
-2
-3
-4
-3
-2
-1
0
0
1
3
4
4
4
4
4
4
4
5
6
6
7
8
7
6
7
8
8
8
6
4
4
4
3
2
3
4
4
3
0
-1
2
4
3
1
-1
-2
-2
-1
3
3
1
0
0
0
0
0
-1
-2
-2
-2
-2
-1
2
1
0
0
0
-3
-6
-3
0
1
2
0
-2
-1
0
-1
-2
-1
0
-1
-2
-1
0
-1
-2
-1
0
-1
-2
-2
-2
-3
-4
-4
-3
-1
-1
-3
-4
-4
-4
-4
-1
0
-1
-2
-2
-2
-1
0
1
2
2
2
2
0
-8
-14
-12
-12
-18
-22
-19
-20
-25
-27
-25
-21
-16
-10
-4
-2
-1
-1
-3
-4
-3
-3
-5
-5
-3
-2
-3
-4
-4
-3
-2
-4
-6
-4
-2
-2
-2
1
11
37
56
58
48
13
-34
-100
-165
-231
-296
-362
-376
-347
-296
-231
-166
-101
-51
-8
10
19
21
19
19
21
22
22
24
27
27
24
24
24
24
24
26
28
28
28
27
26
27
28
29
30
30
30
31
32
33
34
35
36
37
38
39
41
43
44
45
47
49
50
51
55
59
60
59
60
63
64
64
64
66
66
66
64
62
64
66
63
60
60
58
50
43
39
35
32
29
25
22
19
17
14
12
13
13
11
9
7
6
6
6
6
6
6
5
3
2
2
2
3
5
6
6
6
6
6
7
8
11
14
11
8
8
8
10
12
12
12
13
14
12
10
11
12
12
12
13
13
11
10
10
10
11
10
7
6
6
6
6
6
7
8
6
4
2
4
6
5
4
4
4
3
2
3
4
2
0
0
0
0
0
0
0
0
0
0
0
1
2
2
2
2
2
2
2
1
1
3
3
1
1
3
3
4
0
0
1
2
2
2
3
4
3
2
2
2
1
0
1
2
2
2
2
2
-1
-2
-1
0
1
2
1
0
1
2
3
4
3
2
2
3
5
6
6
6
5
3
2
-5
-12
-11
-10
-13
-16
-15
-15
-20
-24
-23
-20
-13
-6
0
4
4
3
-1
-3
-1
0
0
0
-1
-2
-2
-2
-2
-2
-2
-2
-2
-2
-2
-2
-2
0
3
32
62
62
60
14
-35
-100
-166
-231
-297
-362
-405
-377
-337
-272
-207
-142
-80
-23
12
18
22
22
23
26
28
28
28
28
28
28
28
29
30
30
30
30
30
29
28
29
31
30
34
34
35
36
37
38
38
38
39
40
42
44
46
48
49
50
50
50
52
55
58
60
61
63
66
68
68
70
73
73
71
70
70
70
69
68
68
68
67
63
59
54
50
43
36
34
32
29
26
23
20
19
18
17
16
14
12
12
12
10
8
8
8
7
6
7
8
8
8
7
6
6
6
6
6
7
8
8
8
8
9
11
12
12
12
12
14
16
16
16
15
14
15
16
15
14
14
14
13
12
13
14
12
10
11
12
11
10
10
10
9
8
8
8
7
6
7
8
7
6
5
5
7
7
8
3
2
4
6
5
4
4
4
4
4
5
6
4
2
2
2
2
2
3
4
1
1
3
4
3
2
3
4
3
2
2
2
1
0
0
1
3
4
3
2
1
0
0
1
2
0
-2
-2
-2
1
4
2
0
-1
-2
-3
-3
1
4
2
0
1
2
3
3
1
0
1
2
3
4
4
4
3
-3
-10
-12
-11
-13
-17
-18
-17
-19
-24
-25
-26
-21
-16
-11
-6
-2
2
-2
-6
-5
-4
-3
-2
-1
-1
-4
-6
-4
-3
-6
-7
-4
-2
-3
-4
-4
-4
-5
5
22
45
71
62
45
-14
-79
-145
-210
-276
-214
-323
-305
-328
-344
-279
-214
-149
-87
-34
6
11
14
14
14
15
16
15
15
19
21
18
16
16
16
17
18
17
16
17
18
18
20
23
23
21
20
20
20
21
23
25
27
28
25
22
27
32
31
30
31
32
33
34
34
34
34
35
39
42
42
42
42
42
41
39
37
36
35
34
35
34
31
29
27
23
19
18
17
15
13
10
7
6
6
5
4
2
0
0
0
-1
-2
-1
0
-1
-2
-4
-6
-5
-4
-3
-2
-3
-4
-5
-6
-5
-4
-3
-2
-3
-4
-3
-2
-2
0
3
3
1
0
1
2
2
4
2
7
6
5
4
5
6
5
4
3
2
2
2
2
2
2
2
0
-1
2
3
0
-2
-1
0
0
0
-1
-2
-1
0
-1
-2
-2
-3
-5
-5
-3
-2
-2
-2
-3
-2
0
-3
-6
-5
-4
-4
-4
-5
-6
-5
-4
-4
-4
-4
-4
-5
-6
-5
-4
-4
-4
-5
-6
-7
-7
-5
-4
-5
-6
-5
-5
-7
-7
-5
-4
-5
-6
-5
-4
-5
-6
-6
-3
0
-3
-6
-5
-4
-3
-2
-3
-4
-2
0
2
4
2
0
-2
-6
-12
-16
-16
-17
-19
-20
-19
-22
-29
-28
-22
-18
-13
-9
-3
-2
-3
-4
-4
-4
-4
-4
-4
-5
-6
-6
-6
-6
-6
-6
-6
-4
-2
-4
-6
-4
-1
3
17
48
64
59
27
-37
-101
-167
-232
-298
-347
-384
-388
-371
-321
-256
-191
-126
-61
3
15
17
19
21
22
21
21
22
23
24
24
24
24
24
25
26
26
26
28
30
28
26
27
28
30
32
33
35
37
38
37
37
39
40
41
42
42
44
47
48
49
50
51
54
57
59
61
62
64
66
68
69
70
71
72
71
70
70
70
71
72
69
64
58
54
54
52
46
41
38
34
29
25
23
22
21
18
15
13
11
10
10
10
10
10
10
9
7
6
6
6
8
8
8
8
8
8
8
8
8
9
10
8
7
10
12
11
10
12
14
14
14
15
16
16
16
16
15
13
13
15
16
17
17
15
13
11
10
10
10
10
8
6
8
10
10
10
10
10
10
10
7
4
5
6
7
8
7
6
6
6
6
6
7
7
5
4
3
3
7
8
7
6
6
6
5
4
5
6
6
5
3
2
4
4
4
4
4
4
4
4
4
2
0
1
2
2
2
3
4
3
2
1
2
9
8
0
-2
2
4
3
4
7
6
3
5
11
3
-10
-4
7
5
1
1
0
3
2
1
0
1
2
2
2
6
10
5
2
-1
-4
-5
-7
-13
-16
-16
-16
-19
-22
-26
-26
-22
-18
-14
-8
-1
1
-1
-2
-2
-2
-3
-4
-5
-4
-1
-1
-3
-5
-6
-5
-4
-5
-6
-6
-6
-3
1
9
22
47
63
58
31
-35
-100
-166
-231
-297
-350
-392
-405
-390
-346
-281
-216
-151
-86
-21
4
13
16
17
18
19
19
17
21
27
25
20
21
22
22
22
25
28
26
24
25
26
27
28
28
28
29
30
29
28
30
32
35
36
35
34
34
36
40
42
43
44
44
45
47
48
48
50
53
54
53
55
52
58
56
55
54
52
50
51
52
50
48
45
41
37
33
28
24
23
19
12
8
8
8
8
8
9
7
2
0
1
2
2
2
3
3
1
2
5
6
7
8
7
13
20
5
-10
-7
-4
-1
2
4
6
3
0
2
6
16
18
7
4
15
21
17
13
11
17
30
25
5
7
21
22
14
9
5
4
3
5
9
11
13
13
11
11
14
12
10
10
10
12
14
10
6
8
10
9
8
9
10
8
7
10
12
11
10
10
10
10
10
10
9
7
6
7
8
9
9
7
4
1
5
11
11
9
9
8
8
4
5
6
8
10
9
8
7
6
5
5
9
11
8
6
4
3
6
8
7
7
10
9
3
1
4
7
9
10
10
10
11
11
9
5
1
0
-1
-6
-11
-15
-18
-15
-12
-15
-17
-9
-2
-1
0
3
6
3
0
0
0
1
2
1
0
1
1
-1
-1
2
3
1
0
0
0
-1
4
12
38
68
67
58
16
-30
-94
-159
-225
-290
-332
-370
-331
-290
-227
-164
-99
-42
-16
5
10
14
16
18
19
20
21
21
18
17
20
21
19
19
21
21
19
20
23
23
21
21
23
24
24
24
23
24
27
27
28
28
32
31
30
30
30
31
32
32
32
35
38
38
39
42
45
48
50
48
47
50
51
49
49
52
54
53
52
53
54
53
51
49
46
43
39
35
32
29
26
23
18
14
15
16
12
8
9
10
8
6
7
8
6
4
5
6
5
4
3
2
4
6
7
7
5
4
5
7
11
9
4
3
5
6
7
8
9
9
7
6
7
8
8
10
12
10
8
7
6
6
6
7
8
6
4
4
4
5
6
4
2
3
4
1
0
1
2
3
4
3
2
2
2
2
3
5
4
1
0
1
2
2
2
2
3
2
2
2
1
0
1
2
1
0
0
0
1
2
2
2
1
0
1
2
1
0
0
1
3
4
3
2
2
2
3
2
-1
-2
-1
0
0
0
1
2
2
2
2
1
0
1
2
2
2
2
2
2
2
2
2
3
5
9
10
5
2
1
-2
-6
-9
-12
-14
-14
-14
-15
-18
-22
-22
-19
-14
-8
-1
5
4
1
0
-1
-2
0
0
0
-1
-2
-2
-2
-2
-2
0
2
1
0
0
0
1
10
33
50
59
53
28
-18
-84
-149
-215
-280
-346
-353
-331
-295
-254
-195
-130
-65
-1
14
21
22
22
24
22
27
26
27
28
28
28
28
28
29
30
30
30
31
32
32
32
32
32
34
36
36
37
40
41
38
37
40
42
42
43
45
48
51
52
52
55
59
60
61
62
63
67
70
71
72
75
78
78
78
78
78
79
80
77
74
73
71
68
65
62
58
52
46
42
38
34
31
28
25
23
20
17
16
15
14
14
14
15
14
11
10
9
8
8
11
14
11
8
8
8
10
12
12
12
11
10
11
12
13
14
15
16
16
16
19
19
17
17
19
20
19
18
18
18
18
19
21
21
19
18
17
16
16
16
16
17
16
15
14
13
12
13
14
14
14
11
8
9
10
10
10
11
11
8
6
7
8
8
8
7
6
7
8
7
6
7
7
5
5
7
8
7
6
7
8
7
6
6
7
8
7
6
6
6
6
6
7
8
8
8
6
4
5
6
6
6
6
6
5
4
4
4
5
6
7
8
7
5
3
2
3
5
7
7
5
4
4
4
4
7
10
12
14
9
4
2
0
-2
-5
-9
-12
-13
-14
-14
-15
-19
-21
-17
-12
-5
0
4
6
5
4
3
2
1
0
0
0
-1
-2
-3
-3
-1
0
1
2
2
1
2
1
1
14
29
54
72
59
33
-32
-98
-163
-229
-295
-335
-331
-332
-342
-318
-253
-188
-123
-63
-6
16
17
20
23
24
24
23
21
21
23
23
21
20
21
22
22
23
24
23
22
22
22
23
24
25
26
27
28
29
30
30
30
30
31
34
36
34
32
33
36
40
43
45
46
47
48
49
50
49
50
53
54
55
54
51
50
50
50
48
49
50
46
42
39
36
33
29
24
20
19
18
15
12
10
8
6
4
4
4
4
3
1
0
0
-1
-3
-4
-4
-4
-4
-4
-3
-2
-3
-4
-3
-2
-2
-2
-2
-3
-2
-2
-2
-3
-4
-2
0
1
2
2
2
1
0
1
2
3
4
4
4
4
3
0
-2
-1
0
1
2
2
1
-1
-3
-5
-6
-5
-4
-3
-2
-2
-3
-5
-7
-8
-6
-4
-6
-8
-8
-8
-8
-8
-8
-8
-7
-6
-7
-8
-8
-8
-9
-10
-9
-8
-8
-8
-9
-10
-10
-10
-11
-12
-11
-10
-9
-9
-11
-12
-11
-11
-13
-14
-13
-12
-10
-10
-10
-11
-12
-13
-14
-11
-8
-8
-9
-14
-18
-15
-12
-12
-12
-13
-14
-12
-10
-11
-12
-11
-12
-16
-15
-9
-7
-9
-10
-11
-16
-22
-24
-23
-26
-31
-32
-32
-33
-32
-35
-34
-31
-28
-21
-14
-14
-14
-14
-14
-14
-14
-16
-18
-17
-16
-15
-14
-15
-16
-16
-17
-19
-19
-17
-16
-17
-16
-13
8
36
47
51
24
-12
-73
-138
-204
-269
-335
-400
-347
-292
-265
-235
-170
-107
-55
-11
-4
2
1
0
2
4
4
4
5
6
5
4
5
6
7
8
8
8
7
6
7
8
9
10
11
12
11
11
13
14
15
16
16
16
18
18
18
21
24
23
22
22
22
26
30
32
34
35
36
37
38
40
42
43
44
41
40
41
42
41
41
43
42
39
36
31
29
27
23
19
15
11
8
5
4
4
1
0
-2
-4
-5
-6
-7
-8
-6
-4
-5
-6
-7
-8
-7
-6
-6
-6
-6
-6
-6
-5
-3
-2
-2
-2
-2
-2
-2
-2
-2
-2
-1
0
1
1
-1
-2
-2
-2
-2
-2
-2
-3
-4
-3
-2
-2
-2
-3
-4
-5
-6
-6
-6
-5
-4
-6
-8
-8
-8
-6
-4
-5
-6
-7
-8
-9
-9
-5
-4
-5
-6
-7
-9
-11
-11
-9
-8
-8
-9
-11
-11
-8
-8
-8
-10
-12
-9
-6
-9
-12
-10
-8
-9
-10
-9
-8
-9
-10
-9
-8
-9
-10
-10
-10
-9
-8
-7
-7
-9
-10
-9
-9
-11
-11
-9
-8
-8
-8
-8
-8
-9
-9
-10
-9
-12
-11
-10
-10
-10
-8
-6
-8
-10
-9
-8
-8
-8
-7
-6
-6
-6
-5
-4
-5
-6
-6
-10
-18
-21
-19
-21
-26
-28
-27
-27
-29
-30
-30
-26
-21
-15
-9
-8
-8
-9
-10
-11
-12
-11
-10
-9
-8
-10
-12
-11
-10
-10
-10
-11
-12
-12
-12
-11
-8
-2
16
46
58
53
12
-54
-119
-185
-251
-316
-369
-417
-411
-388
-331
-266
-201
-136
-71
-6
3
10
13
16
16
16
18
20
19
18
16
14
16
18
19
20
20
20
20
20
21
22
22
22
22
22
23
24
25
26
27
29
31
32
31
31
33
36
39
40
39
41
38
46
46
50
54
56
58
59
60
61
62
62
62
63
63
60
58
60
62
60
58
55
51
45
38
31
28
27
22
15
12
11
9
7
6
6
4
1
0
0
-1
-3
-2
0
-1
-2
-2
-2
-1
0
-1
-2
-2
-2
-2
-2
-2
-2
0
2
1
0
0
0
0
1
4
6
6
6
5
4
5
8
11
10
7
6
6
6
6
6
7
7
4
3
2
4
6
6
6
4
2
1
0
2
4
4
4
2
0
0
0
0
0
0
0
0
-1
-4
-5
-3
-2
-2
-2
-3
-4
-5
-5
-3
-2
-3
-4
-3
-3
-2
-5
-4
-3
-2
-3
-4
-6
-8
-6
-4
-4
-4
-4
-4
-5
-6
-5
-4
-6
-8
-7
-6
-7
-8
-7
-6
-5
-5
-7
-8
-7
-6
-6
-6
-6
-6
-5
-4
-3
-4
-7
-7
-6
-5
-4
-3
-2
-4
-6
-5
-4
-2
0
1
2
-2
-6
-12
-16
-16
-17
-20
-22
-21
-22
-27
-30
-29
-25
-20
-14
-6
-4
-5
-6
-5
-4
-5
-6
-6
-6
-5
-4
-6
-5
-4
-5
-6
-6
-6
-7
-8
-7
-6
-3
9
39
60
59
41
-4
-58
-124
-189
-255
-320
-386
-400
-376
-326
-261
-196
-131
-69
-9
9
15
17
19
20
19
19
21
23
22
23
20
21
22
22
22
23
24
24
24
26
28
26
24
25
26
26
26
27
28
31
32
32
33
36
38
37
37
39
40
41
42
42
44
47
48
49
52
55
56
56
56
56
58
60
58
56
55
54
52
50
54
57
51
46
42
39
35
31
27
24
23
19
13
11
13
13
10
7
3
3
5
6
6
5
3
3
5
3
-1
-2
-1
0
2
2
2
0
-2
0
2
3
4
4
4
3
2
5
8
6
5
8
10
8
7
12
14
13
12
11
10
11
12
12
12
13
11
7
6
7
9
11
12
11
10
10
5
2
4
6
7
8
6
4
4
4
3
2
5
7
4
2
1
0
2
4
3
2
2
1
-1
-1
1
2
2
1
-1
-1
1
2
1
0
1
1
-1
-2
-2
0
2
1
0
-1
-2
-1
0
1
2
0
-2
-2
-2
-1
0
0
0
0
0
0
0
0
0
-1
-2
-2
-2
-1
0
-1
-2
-1
0
1
1
-1
1
5
6
5
4
2
-5
-12
-10
-8
-13
-18
-18
-18
-21
-24
-24
-23
-17
-10
-3
2
2
2
0
-2
-1
-1
-3
-4
-3
-2
-2
-2
-2
-2
-2
-2
-1
0
-1
-2
-2
1
5
34
6
61
56
11
-36
-101
-167
-232
-298
-363
-405
-364
-316
-251
-186
-121
-64
-21
7
14
18
18
19
21
22
21
20
21
22
22
23
25
24
21
22
25
26
26
26
27
28
27
28
30
29
28
29
30
32
34
31
28
31
34
36
38
38
38
40
42
42
43
47
50
50
51
54
56
57
59
61
62
63
64
64
64
64
64
63
62
62
60
57
54
50
46
42
37
32
28
24
22
20
18
16
16
16
14
12
10
8
9
10
9
8
5
4
5
6
6
6
7
8
7
6
6
6
7
8
7
7
9
10
10
10
10
13
14
12
10
11
12
13
14
12
10
11
12
12
12
13
14
12
10
10
10
9
8
8
8
8
8
7
6
7
8
7
6
5
4
4
4
5
6
6
6
5
4
4
3
2
4
6
4
2
2
2
3
4
5
6
5
4
2
0
2
4
4
3
1
1
3
4
4
4
4
4
3
2
1
1
3
4
3
2
3
4
3
2
2
4
6
3
0
1
2
2
2
2
2
1
0
1
2
3
4
3
2
1
0
3
4
3
2
2
3
5
4
1
1
3
4
4
4
4
4
4
2
-1
-4
-2
-11
-14
-14
-14
-15
-16
-19
-22
-18
-14
-11
-7
-1
4
3
2
2
2
2
2
2
2
2
2
1
1
3
3
1
0
0
0
1
2
3
13
24
48
74
69
61
-4
-70
-135
-201
-266
-326
-349
-368
-366
-350
-285
-220
-155
-90
-25
18
21
25
28
30
30
30
30
30
31
32
31
31
33
34
33
32
33
34
34
34
34
35
37
37
35
36
40
40
40
41
42
43
44
44
44
46
48
50
52
53
54
55
57
61
64
65
67
70
72
72
72
73
75
78
78
75
75
77
78
77
75
73
69
65
58
51
50
50
41
34
32
30
27
24
22
20
19
18
16
14
12
10
11
12
12
12
11
10
9
9
11
11
9
8
8
8
8
8
9
11
13
13
11
10
11
14
17
18
17
16
16
17
18
18
18
18
18
18
18
18
18
18
18
18
18
17
16
16
16
16
15
13
12
12
12
13
14
13
12
11
10
11
12
12
11
9
8
9
10
10
9
6
10
14
10
6
7
8
7
6
7
8
7
6
5
4
6
8
10
10
5
2
3
4
5
6
6
6
6
7
9
8
5
5
7
8
8
6
3
3
5
6
6
6
4
6
8
6
4
5
6
5
4
4
4
4
4
5
6
6
6
6
6
7
8
8
7
4
3
5
8
12
12
8
3
-1
-2
-1
1
3
4
3
2
2
3
4
2
0
0
0
-1
-2
-1
0
-1
-2
0
2
1
1
4
5
1
-2
-1
0
1
2
1
0
1
2
3
16
35
52
70
56
33
-26
-91
-157
-222
-288
-353
-323
-288
-294
-296
-231
-166
-101
-42
-10
16
17
18
21
24
25
26
24
22
23
24
23
22
22
22
23
24
23
23
25
26
26
26
26
26
25
24
25
28
31
31
29
29
28
34
36
36
36
37
38
39
40
42
44
45
46
47
48
49
50
51
52
51
50
51
52
51
49
47
47
50
49
44
42
41
37
33
30
27
24
21
19
17
16
17
15
12
11
10
10
10
8
6
7
8
6
4
4
4
5
6
5
4
4
4
4
4
4
4
5
6
5
5
7
8
8
10
13
13
11
10
10
10
11
12
13
14
12
12
12
12
12
12
12
11
10
11
12
10
8
9
9
6
4
6
8
8
8
9
9
6
5
7
8
7
6
5
4
5
6
6
6
6
6
6
4
1
1
0
4
4
5
6
4
2
3
4
3
2
2
2
3
4
4
4
2
0
2
4
3
2
1
0
0
1
3
3
1
1
3
2
-1
-2
-1
0
0
0
0
0
-1
0
2
2
2
3
4
4
4
3
2
1
0
1
2
2
3
6
4
-6
-12
-14
-16
-17
-18
-17
-17
-19
-21
-23
-21
-16
-11
-6
-1
3
3
1
-1
-3
-3
-1
0
-2
-1
0
-1
-2
0
2
0
-2
-1
0
-1
-2
-1
5
23
40
58
63
49
11
-55
-120
-186
-251
-317
-331
-313
-302
-296
-248
-183
-118
-53
-16
13
20
23
24
25
26
26
25
24
26
28
28
28
27
26
27
28
28
28
30
32
31
30
31
32
32
32
32
32
33
35
37
38
39
40
40
42
46
47
45
46
49
51
53
54
55
58
61
63
64
67
70
69
68
68
68
68
68
67
66
67
68
64
62
60
56
50
46
44
39
32
28
27
24
20
18
19
18
15
13
11
10
10
10
10
10
9
8
8
8
6
7
8
8
8
7
6
8
10
10
10
10
10
10
10
12
14
13
12
13
14
14
14
15
16
17
18
17
16
17
17
15
14
14
14
13
12
12
12
12
12
12
14
14
10
6
8
10
10
10
9
8
8
8
8
8
7
6
5
4
5
6
6
6
6
6
6
6
6
6
6
6
6
6
5
4
4
4
5
5
3
2
2
3
4
4
4
4
4
4
4
2
0
2
4
3
2
2
2
1
0
2
4
3
2
2
2
2
2
3
4
3
2
1
0
-1
-1
1
2
3
4
4
4
3
2
4
5
6
7
7
-2
-10
-15
-20
-17
-14
-15
-16
-17
-19
-22
-24
-24
-22
-16
-10
-5
-2
-2
-2
-3
-4
-4
-4
-4
-4
-4
-4
-4
-4
-3
-2
-3
-4
-4
-4
-4
-4
-2
-2
0
29
54
58
55
13
-35
-100
-166
-231
-297
-363
-396
-375
-335
-270
-205
-140
-78
-20
9
15
18
19
20
21
22
23
24
24
24
24
24
24
24
25
26
26
26
26
26
26
27
28
31
34
32
30
31
32
34
36
37
38
39
40
40
40
41
43
45
47
50
52
51
51
55
58
61
62
63
64
64
64
64
65
67
67
65
64
64
65
66
63
60
55
50
43
38
35
32
29
26
23
20
18
16
15
14
13
12
9
7
5
4
5
6
7
7
5
4
3
3
5
6
6
5
3
2
2
2
2
7
10
8
6
6
6
7
8
10
12
13
13
8
5
9
12
13
14
12
10
10
10
10
10
11
11
8
6
7
8
9
10
9
8
7
5
3
4
7
7
5
4
4
3
2
2
2
2
2
2
2
1
0
1
2
1
0
0
0
1
2
0
-2
-1
0
0
0
-1
-1
1
2
1
0
0
0
0
0
-1
-2
-1
0
0
0
-2
-1
0
0
0
-2
-4
-3
-2
-2
-2
-1
0
0
0
-2
-4
-2
0
-1
-2
-2
-2
-2
-2
-2
0
4
7
9
10
9
6
3
-2
-9
-14
-19
-22
-25
-25
-26
-21
-20
-25
-30
-28
-25
-18
-12
-6
-2
-3
-4
-3
-2
-4
-6
-6
-6
-6
-6
-6
-6
-5
-4
-5
-6
-6
-6
-7
-8
-7
-5
-3
1
5
33
66
65
59
-1
-65
-130
-196
-261
-327
-392
-444
-396
-345
-280
-215
-150
-89
-38
0
7
12
12
12
13
14
14
14
14
14
15
16
17
17
13
13
15
16
17
18
18
17
15
14
15
17
19
20
20
19
18
20
22
22
22
23
24
27
30
27
24
27
30
32
34
33
33
36
38
39
40
39
38
37
36
35
34
34
34
33
32
31
30
29
26
23
20
17
16
16
10
6
5
4
4
4
1
-2
-1
0
-1
-2
-3
-4
-5
-6
-5
-4
-5
-6
-5
-4
-5
-6
-7
-8
-8
-8
-8
-7
-5
-4
-4
-4
-3
-1
1
0
-3
-3
-1
0
0
1
2
2
2
2
2
2
2
1
0
1
2
0
-2
-1
0
-1
-2
-1
0
-1
-2
-1
-1
-3
-3
-1
0
-1
-2
-2
-2
-2
-2
-3
-4
-3
-3
-5
-5
-2
-4
-6
-5
-4
-3
-2
-3
-4
-4
-4
-4
-4
-2
-1
-4
-6
-5
-4
-4
-4
-3
-2
-3
-4
-4
-4
-4
-4
-3
-2
-2
-3
-5
-6
-5
-4
-3
-2
-3
-4
-4
-2
0
-1
-2
0
2
3
4
7
10
9
6
-2
-9
-13
-17
-20
-22
-24
-26
-27
-28
-29
-30
-30
-27
-21
-14
-8
-6
-7
-5
-1
-1
-3
-4
-4
-4
-5
-5
-3
-2
-2
-4
-6
-4
-2
-3
-4
-2
0
-1
-2
1
14
48
68
62
35
-24
-85
-151
-216
-282
-347
-413
-416
-374
-317
-252
-187
-122
-62
-3
14
19
20
19
20
23
24
23
22
24
23
22
22
22
24
26
24
22
24
26
26
26
27
28
28
28
28
28
30
32
32
32
32
33
35
37
39
40
40
40
41
43
45
47
49
52
55
56
55
55
54
61
64
63
62
62
62
60
58
59
60
61
61
56
51
47
42
36
32
32
29
22
18
17
15
13
12
12
12
11
8
5
4
5
6
7
6
3
3
5
6
5
5
6
4
2
3
4
4
4
5
6
7
8
7
6
8
10
10
10
9
8
9
10
11
12
13
14
13
12
13
14
13
12
13
12
9
8
8
8
7
6
7
8
8
6
4
4
4
6
8
4
0
3
6
4
2
3
4
3
2
2
2
3
4
1
1
3
3
1
1
3
3
1
0
1
2
1
1
3
4
4
4
3
1
2
-1
0
1
2
1
0
0
0
1
2
2
2
1
0
0
0
2
4
2
0
3
3
0
-2
-1
0
1
2
2
2
2
4
7
9
11
12
13
9
3
0
-3
-11
-18
-18
-18
-20
-22
-24
-26
-29
-31
-23
-15
-10
-6
-5
-3
0
2
3
4
2
0
1
2
1
0
0
0
0
0
0
0
0
0
1
2
2
2
3
18
33
53
74
60
42
-23
-89
-154
-220
-285
-337
-332
-327
-321
-297
-232
-167
-102
-46
-3
22
23
24
25
26
27
28
28
28
29
29
27
27
29
30
29
28
29
30
30
30
31
32
32
32
34
36
38
38
38
39
40
40
40
42
45
49
52
51
50
51
53
56
59
62
64
64
65
67
69
71
72
73
74
75
76
75
74
73
72
73
72
69
64
59
54
50
47
44
38
32
30
28
27
25
20
16
16
16
14
12
13
14
13
12
11
10
9
8
9
10
11
11
7
8
11
12
13
14
13
12
12
12
11
11
13
14
14
15
16
16
16
16
16
17
18
18
18
19
20
19
18
17
16
16
16
15
14
15
15
13
12
11
10
11
12
13
13
11
10
9
8
8
8
8
8
8
8
8
7
8
7
6
6
6
6
6
4
2
4
6
7
8
7
6
4
2
4
6
5
4
4
4
4
4
3
4
7
7
5
4
5
4
1
0
1
2
3
4
4
4
4
4
4
3
2
2
2
4
6
4
2
2
2
2
2
3
4
5
6
8
10
9
11
17
16
7
1
-4
-9
-14
-16
-16
-19
-23
-24
-23
-22
-23
-19
-13
-10
-6
-3
0
2
4
3
2
1
0
2
4
3
2
2
2
1
0
0
0
0
0
0
0
1
2
2
10
23
45
72
67
49
-6
-71
-137
-202
-268
-333
-318
-294
-310
-292
-265
-200
-135
-72
-26
14
14
14
16
18
18
18
19
20
19
18
18
18
19
20
21
21
19
18
19
20
21
22
21
20
20
20
21
23
25
26
25
25
27
27
25
27
30
31
32
33
34
34
34
35
36
38
40
40
40
40
40
40
40
41
42
41
39
37
36
36
35
32
30
29
26
22
19
17
15
13
11
9
8
8
6
3
2
2
1
0
-1
-2
-3
-4
-4
-4
-5
-6
-5
-4
-7
-10
-8
-6
-6
-6
-7
-8
-8
-8
-7
-6
-6
-6
-6
-6
-5
-4
-3
0
3
4
3
2
1
0
0
0
0
1
0
-1
-2
-2
-2
-1
0
-1
-2
-4
-6
-4
-2
-2
-2
-2
-2
-4
-6
-5
-4
-4
-4
-4
-4
-4
-4
-4
-4
-3
-2
-3
-4
-4
-4
-5
-6
-5
-4
-5
-7
-8
-7
-6
-5
-4
-4
-4
-6
-8
-8
-8
-7
-6
-6
-6
-7
-8
-7
-6
-5
-5
-7
-8
-7
-6
-5
-5
-7
-8
-7
-6
-6
-6
-6
-6
-6
-6
-6
-6
-6
-6
-4
-1
2
1
0
4
8
3
-3
-8
-13
-17
-20
-23
-26
-26
-27
-30
-32
-33
-33
-30
-25
-19
-15
-12
-9
-7
-6
-5
-5
-7
-7
-5
-5
-7
-8
-7
-6
-6
-6
-6
-8
-10
-8
-6
-5
-4
-5
-5
4
18
44
63
59
35
-31
-96
-162
-227
-293
-338
-361
-369
-362
-322
-257
-192
-127
-66
-6
12
13
16
19
20
19
20
23
24
23
22
21
21
22
22
22
23
24
23
22
24
26
25
24
26
28
28
28
30
32
31
30
31
32
33
35
37
39
41
43
47
48
48
48
49
51
53
57
61
62
61
61
63
64
64
64
64
64
64
62
60
59
58
56
53
49
45
41
37
32
28
26
22
17
14
14
13
11
10
10
10
9
8
8
7
5
4
5
6
6
6
5
4
5
6
6
5
6
6
6
6
6
7
8
9
10
10
10
10
10
12
14
12
10
11
12
12
12
12
12
12
12
12
11
9
8
9
10
9
8
8
8
9
10
9
8
7
6
6
5
4
5
6
6
6
5
4
5
6
5
4
4
4
4
4
2
0
2
4
5
6
5
4
3
3
5
5
3
2
2
2
1
0
0
2
5
5
3
2
0
1
2
3
4
3
2
0
-2
0
2
3
4
1
-2
-2
-2
-1
0
1
2
1
0
-1
-1
1
2
2
1
-1
-2
-1
2
5
8
11
12
13
8
1
-3
0
-13
-18
-19
-20
-23
-26
-26
-26
-28
-29
-22
-16
-13
-9
-5
-2
0
2
2
2
1
0
0
0
-1
-1
1
2
1
0
0
0
1
2
1
0
0
1
3
17
31
51
70
55
35
-30
-96
-161
-227
-292
-342
-332
-319
-300
-266
-201
-136
-71
-21
6
23
26
27
25
25
27
28
28
28
27
26
27
28
29
30
30
30
31
31
29
28
29
30
32
34
36
35
34
36
38
39
40
40
40
42
44
46
48
47
47
50
52
53
54
57
58
59
62
66
67
65
66
70
72
72
72
71
69
67
66
66
66
65
61
64
51
46
43
40
36
32
27
22
20
18
16
14
13
12
11
10
10
10
9
8
8
7
5
5
7
8
7
6
7
8
7
6
6
7
9
10
9
8
9
11
13
12
10
12
14
14
14
15
16
16
16
17
18
17
16
17
18
17
16
14
12
11
10
11
12
13
13
10
9
11
12
11
10
9
8
9
9
7
6
6
6
6
6
8
6
4
5
6
7
8
7
6
7
8
6
4
6
8
7
6
5
4
5
6
5
4
4
4
4
4
3
4
8
8
5
4
3
2
3
4
5
6
5
4
4
5
4
4
4
5
6
4
2
3
4
4
4
4
4
3
2
4
6
5
4
7
10
14
16
15
15
17
13
5
0
-4
-9
-13
-15
-17
-19
-21
-22
-23
-23
-21
-14
-8
-6
-4
-3
-2
4
10
7
4
4
4
3
2
2
2
4
6
5
4
3
2
2
2
3
4
3
3
5
25
54
66
72
44
5
-56
-121
-187
-252
-318
-383
-348
-308
-264
-218
-153
-90
-37
8
15
20
22
24
24
24
24
24
23
22
24
26
25
24
25
27
29
28
24
23
26
28
28
28
27
26
26
27
29
30
31
32
32
32
32
32
32
34
36
38
40
38
36
39
42
42
42
44
46
45
44
44
44
45
46
46
46
45
43
40
38
39
38
35
31
26
26
29
26
21
17
13
12
11
10
9
8
8
6
4
4
4
4
4
3
2
2
2
2
2
0
-2
-2
-2
-1
0
0
0
-1
-2
-1
0
0
0
1
2
2
3
5
6
5
4
4
4
4
4
4
4
6
6
6
5
4
4
4
5
6
4
2
1
0
1
2
3
4
3
2
1
0
0
0
-1
-2
-2
-2
-2
-2
-2
-2
-1
0
-1
-2
-2
-2
-1
0
-1
-2
-2
-2
-2
0
2
-1
-4
-2
0
-1
-2
-2
-2
-2
-2
-1
-1
-4
-5
-2
0
-3
-3
-1
-1
-3
-4
-3
-2
-1
0
0
0
-1
-2
-1
0
0
0
1
2
1
0
0
3
6
7
8
8
8
14
16
7
-1
-5
-8
-12
-15
-18
-20
-20
-20
-22
-25
-27
-26
-22
-17
-12
-9
-5
-4
-3
-1
1
1
-1
-2
-3
-4
-3
-2
-1
0
-2
-1
0
-2
-4
-3
-2
-1
0
0
2
12
28
55
71
59
27
-39
-104
-170
-235
-301
-337
-347
-349
-343
-300
-235
-170
-105
-51
-2
14
20
22
21
20
20
21
23
24
24
24
24
23
22
23
24
26
28
26
24
25
26
26
27
30
32
30
28
29
30
30
31
34
36
36
36
37
38
39
42
45
46
45
45
47
49
51
53
55
57
59
59
58
59
60
60
60
59
58
59
60
57
54
53
51
47
43
38
33
30
27
24
21
18
15
13
12
12
11
9
8
8
7
5
4
4
4
5
6
5
4
4
4
6
5
4
6
8
7
6
7
8
9
10
10
10
9
8
9
10
10
10
11
12
11
10
11
12
13
13
10
8
9
10
9
8
8
8
9
8
5
4
5
6
6
6
6
5
4
4
4
5
6
5
4
5
6
6
6
5
4
3
2
3
4
4
4
3
2
3
4
3
2
3
4
5
6
5
4
5
5
3
2
3
4
4
3
2
2
2
2
2
2
2
2
2
1
0
2
4
0
-1
2
4
2
0
0
0
1
2
2
1
-1
-1
1
2
1
2
5
6
7
8
7
10
15
9
1
-3
-8
-13
-18
-21
-24
-23
-22
-25
-28
-29
-29
-23
-18
-16
-13
-9
-6
-4
-2
0
2
-1
-2
-3
-3
-1
0
1
2
1
0
1
1
-1
-2
-1
0
-1
-2
-2
17
-2
55
72
55
34
-31
-97
-162
-228
-293
-344
-341
-332
-311
-275
-210
-145
-80
-29
3
20
21
22
23
25
27
27
25
24
25
26
27
28
28
28
28
28
27
26
27
29
31
31
30
32
34
34
34
35
36
36
36
36
37
41
44
44
45
48
50
50
50
52
55
57
58
58
59
61
63
67
68
68
68
68
68
67
67
69
67
63
62
62
60
56
50
44
41
38
33
28
26
24
21
18
16
14
15
15
12
10
10
10
9
8
8
8
8
8
8
8
8
8
8
8
9
10
9
8
8
8
8
9
11
12
12
12
12
14
16
14
12
15
18
15
12
13
14
16
18
17
16
14
12
14
16
15
14
14
14
13
12
13
12
9
8
9
10
10
10
9
8
9
10
11
11
9
9
10
11
12
8
4
6
8
8
8
8
8
9
10
9
8
8
8
7
6
8
10
9
8
8
8
8
7
3
2
3
5
7
8
7
6
5
4
4
4
4
4
2
3
4
3
2
3
4
1
-2
1
4
6
7
3
0
1
2
1
1
5
8
9
12
17
16
8
2
-2
-6
-9
-12
-17
-19
-21
-23
-25
-26
-26
-24
-21
-17
-20
-7
-2
-2
-2
-1
0
0
0
-1
-2
-2
-2
-1
0
-2
-4
-3
-2
-3
-4
-3
-2
-1
0
0
4
13
36
66
69
59
7
-58
-124
-189
-255
-320
-338
-351
-351
-349
-284
-219
-154
-90
-39
6
9
12
14
16
17
18
19
20
19
18
17
16
17
18
18
18
19
20
19
18
19
20
19
18
19
20
21
22
23
23
21
22
25
26
27
28
28
29
30
30
30
32
34
35
36
36
36
37
38
39
40
40
40
39
37
34
32
33
33
31
30
29
27
24
22
22
18
12
10
11
12
11
7
3
2
2
2
2
1
-2
-1
0
0
0
-1
-2
-5
-8
-6
-4
-5
-6
-6
-6
-5
-4
-4
-4
-4
-4
-3
-2
-2
-2
-2
-2
-1
0
0
0
0
0
1
2
3
4
3
3
5
3
0
3
6
4
2
1
0
0
0
0
0
0
0
0
0
-1
-2
-2
-2
-1
0
-1
-2
-3
-3
-1
0
0
0
0
0
0
0
1
0
-3
-4
-5
-5
-3
-2
-2
-3
-4
-4
-4
-2
0
-1
-2
-3
-4
-5
-6
-4
-2
-1
0
-2
-4
-3
-2
-2
-2
-1
-1
-3
-4
-3
-2
-2
-2
-1
0
0
0
-1
-2
-2
1
5
6
6
10
12
8
4
-1
-6
-11
-16
-19
-22
-23
-24
-25
-26
-28
-29
-26
-23
-20
-15
-8
-4
-4
-3
-1
0
-1
-2
-1
-1
-3
-4
-3
-2
-2
-2
-1
-1
-3
-4
-3
-1
0
0
0
9
21
49
71
64
44
-21
-87
-152
-218
-284
-330
-344
-352
-350
-319
-254
-189
-124
-64
-7
17
19
20
21
22
23
25
27
25
21
21
23
24
25
26
27
28
26
27
28
29
30
29
28
29
30
31
32
32
32
33
34
35
36
37
38
38
38
41
43
46
48
49
50
51
53
55
57
59
60
60
60
61
62
63
64
64
64
64
61
60
59
58
54
50
46
42
38
34
31
28
26
23
20
18
16
14
13
12
11
10
9
8
8
8
8
8
8
8
7
6
6
6
6
6
7
8
8
8
8
8
8
8
8
11
14
12
10
12
14
14
14
14
14
15
16
15
14
15
16
16
16
15
14
13
12
13
14
13
11
9
8
9
10
9
8
8
8
8
8
8
8
8
8
8
6
4
5
6
6
6
6
6
6
6
7
8
6
4
4
4
5
6
6
6
7
8
8
7
5
4
5
6
5
4
5
6
6
6
6
6
6
6
6
5
6
5
4
4
4
4
4
5
6
6
6
5
4
5
6
6
6
4
3
8
11
14
16
15
14
14
10
3
-2
-5
-9
-13
-14
-15
-19
-23
-24
-23
-23
-25
-19
-12
-6
0
1
2
5
8
6
4
2
0
2
4
3
2
2
2
2
2
3
4
3
2
2
2
3
6
10
31
60
68
69
26
-32
-96
-161
-227
-292
-358
-423
-397
-365
-300
-235
-170
-105
-40
15
21
26
26
26
27
28
28
28
29
30
31
32
31
30
31
31
29
29
31
32
32
32
32
32
33
34
35
36
37
37
35
36
39
40
40
43
44
46
48
48
48
51
54
54
54
57
60
61
63
66
68
68
68
68
68
68
68
68
67
64
61
59
58
57
54
51
44
36
32
29
25
21
20
19
18
18
13
8
10
12
10
8
7
6
6
6
6
6
6
6
5
4
4
4
5
6
5
6
10
10
6
4
5
6
6
6
7
8
9
10
10
10
11
12
11
10
11
13
16
15
14
12
10
10
10
11
12
11
10
10
10
9
8
8
8
9
8
3
0
3
4
4
4
5
6
6
5
3
2
3
4
4
4
3
2
2
2
2
3
2
3
0
1
2
0
-2
0
2
1
0
1
2
1
1
4
4
-2
-6
-4
-2
-2
-1
1
2
1
0
1
2
1
0
1
1
-1
-2
-2
-2
-1
0
1
2
1
0
0
4
8
8
8
10
11
5
-1
-6
-11
-16
-20
-21
-23
-26
-28
-28
-28
-30
-29
-22
-17
-15
-11
-5
-2
-3
-4
-5
-6
-5
-4
-4
-4
-5
-6
-5
-4
-5
-5
-2
-2
-2
-5
-8
-7
-6
-3
6
36
61
65
55
7
-46
-112
-177
-243
-308
-374
-389
-349
-298
-236
-173
-108
-57
-14
3
8
11
13
14
14
14
15
16
16
16
15
15
14
16
14
15
16
17
18
17
16
18
20
17
14
17
20
18
16
18
20
20
20
21
22
23
24
25
26
25
25
27
30
33
34
33
32
32
33
35
36
35
34
34
32
30
33
36
33
30
28
26
27
27
22
18
17
15
10
6
5
4
4
4
2
0
1
2
1
-1
-3
-4
-3
-3
-5
-6
-5
-6
-9
-10
-9
-8
-8
-8
-9
-10
-8
-8
-8
-7
-6
-6
-6
-4
-2
-2
-2
-2
-2
-1
0
0
0
1
2
2
2
2
2
3
3
1
0
0
-1
-3
-3
-1
0
0
-1
-3
-4
-4
-4
-4
-4
-4
-4
-4
-4
-4
-5
-6
-6
-6
-7
-8
-8
-8
-8
-8
-7
-6
-7
-8
-7
-6
-6
-6
-7
-8
-8
-8
-8
-8
-7
-6
-6
-6
-7
-8
-7
-6
-6
-6
-6
-6
-6
-7
-8
-8
-8
-8
-8
-8
-8
-8
-8
-7
-6
-7
-8
-7
-6
-7
-7
-3
0
1
2
3
3
1
-3
-9
-13
-15
-19
-24
-26
-27
-28
-29
-32
-35
-36
-37
-32
-25
-18
-10
-10
-10
-8
-6
-6
-6
-7
-8
-8
-8
-9
-10
-8
-6
-7
-8
-9
-10
-10
-10
-9
-8
-7
-5
-3
15
42
55
60
32
-10
-70
-135
-201
-266
-332
-397
-379
-352
-289
-350
-158
-94
-43
4
8
12
13
14
16
18
19
20
19
18
19
20
22
23
20
18
19
20
21
23
25
26
25
24
24
26
29
29
27
27
29
30
30
31
33
35
37
39
40
41
42
43
44
46
48
49
50
53
56
57
58
62
64
62
60
60
60
61
61
59
58
59
58
54
52
52
48
40
35
30
27
25
22
19
18
17
15
13
11
8
9
10
7
4
4
4
4
4
5
6
6
6
5
4
4
4
4
4
5
6
6
6
7
8
8
9
11
12
11
10
10
11
13
14
15
16
16
15
13
12
12
12
12
11
10
10
10
10
10
11
12
11
10
8
6
7
8
7
6
6
6
5
4
5
6
6
6
6
6
5
4
4
4
4
4
3
3
5
6
5
5
7
5
2
4
6
5
4
5
6
6
6
5
4
4
4
6
8
6
4
5
6
6
6
7
8
7
6
6
6
7
8
7
6
5
4
4
4
5
7
9
8
5
4
6
10
14
17
20
17
14
7
2
-2
-7
-12
-16
-17
-19
-22
-24
-24
-23
-20
-16
-11
-6
-2
1
3
5
7
7
5
4
4
4
5
6
5
4
5
5
3
2
2
5
6
5
4
5
7
15
27
56
77
72
50
-15
-81
-147
-212
-278
-343
-407
-428
-396
-347
-282
-217
-152
-87
-22
9
22
26
27
29
31
32
31
30
30
30
30
30
31
32
32
32
32
33
34
34
34
36
38
36
34
36
38
39
40
40
40
41
43
46
48
47
47
49
50
51
54
58
60
61
63
65
66
67
68
68
69
71
73
75
76
74
74
74
73
72
70
68
66
63
57
51
47
44
41
36
29
24
24
23
20
18
19
19
17
15
13
12
13
14
15
15
13
12
12
12
11
11
13
14
14
13
14
11
12
13
14
14
14
14
14
16
18
19
20
19
18
19
20
19
18
20
22
19
18
18
18
18
18
18
18
19
18
15
14
15
16
15
14
15
16
15
14
13
12
12
14
16
14
12
11
10
10
10
10
10
10
10
11
12
11
10
10
10
9
8
8
8
9
10
10
10
9
8
8
8
9
10
9
8
9
10
10
10
9
8
8
8
8
8
8
9
10
8
6
8
10
11
12
9
6
6
6
7
8
8
8
8
9
12
15
17
20
24
22
15
8
2
-3
-7
-8
-9
-12
-15
-16
-15
-17
-14
-18
-14
-11
-8
-2
4
2
0
3
6
7
8
5
2
3
4
4
4
4
4
7
6
2
1
3
4
4
4
3
11
24
48
76
74
62
5
-60
-126
-191
-257
-322
-334
-344
-347
-345
-280
-215
-150
-87
-33
11
16
20
21
22
21
20
20
21
24
26
25
24
24
24
23
22
22
22
23
24
24
24
24
26
29
30
29
28
28
28
27
26
26
28
30
29
28
29
30
33
36
36
36
36
36
36
37
40
41
38
36
37
38
41
41
38
36
37
37
34
32
32
32
32
29
23
21
19
16
13
12
12
11
12
6
4
4
4
6
8
4
0
1
2
2
2
2
2
0
-2
-2
-2
-1
0
1
1
-1
-2
-2
-2
-1
1
3
4
3
2
3
4
4
4
5
6
5
5
7
7
6
7
8
8
8
6
4
4
4
4
4
3
2
2
2
2
2
2
2
1
0
0
0
0
0
0
0
1
2
1
1
3
3
1
0
-1
-2
-2
-2
-2
-1
2
0
-2
-1
0
0
0
0
0
-1
-2
-2
-2
-1
0
0
0
0
0
0
0
0
0
1
1
-1
-2
-2
-2
-1
0
0
0
0
0
0
0
0
0
1
2
2
3
6
8
10
14
17
9
2
0
-3
-9
-14
-17
-20
-21
-23
-26
-28
-29
-29
-24
-21
-18
-12
-5
-2
-3
-2
2
2
-2
-4
-3
-2
-2
-2
-3
-4
-4
-4
-4
-3
-2
-2
-2
-2
-2
-2
0
12
27
51
68
60
34
-32
-97
-163
-228
-294
-337
-353
-360
-355
-317
-252
-187
-122
-62
-6
15
20
22
21
20
21
22
23
24
23
22
23
25
28
25
22
23
24
25
26
27
28
28
28
29
30
29
29
32
34
34
34
34
34
35
36
37
39
41
43
45
46
46
48
51
53
55
56
57
59
61
62
62
62
62
64
64
62
60
61
62
59
56
55
54
49
44
37
32
31
29
23
20
18
16
15
14
13
12
11
10
9
8
7
6
7
7
5
4
5
6
7
8
8
8
7
6
6
9
12
10
8
9
10
10
10
12
14
14
14
13
12
12
12
14
16
16
15
13
12
13
14
13
12
11
10
11
11
9
8
8
8
9
10
9
8
8
8
6
6
6
6
6
5
4
5
6
7
8
6
4
6
7
4
2
3
4
4
4
5
6
6
6
6
6
6
6
5
4
5
6
6
6
5
4
4
4
4
4
4
4
4
4
4
4
4
4
4
5
6
4
2
3
4
4
4
3
2
2
2
3
4
5
5
2
1
3
6
9
11
13
15
17
14
9
3
-3
-7
-11
-14
-17
-20
-22
-23
-24
-26
-28
-20
-14
-12
-10
-6
-2
-1
0
4
6
5
4
3
2
2
2
1
0
1
1
-1
-1
1
2
2
2
2
2
2
12
24
47
72
70
65
1
-65
-130
-196
-261
-323
-358
-386
-373
-349
-284
-219
-154
-89
-24
19
21
23
26
28
28
28
29
30
29
28
28
28
29
30
30
30
29
28
29
30
31
32
33
34
33
33
32
38
40
40
40
39
38
40
42
45
48
48
48
49
50
52
55
59
62
63
64
64
66
70
71
69
69
71
71
69
69
71
72
72
69
65
63
61
58
55
49
43
37
32
29
26
25
24
21
18
17
16
14
12
12
12
12
11
8
6
7
8
8
8
8
8
8
8
7
7
9
10
10
10
11
12
11
10
11
12
13
14
15
16
14
16
18
17
16
16
16
18
20
18
16
16
16
15
14
15
16
14
12
11
10
11
12
11
10
11
11
9
8
8
8
7
6
7
8
8
8
8
7
5
5
4
8
8
7
6
6
6
6
6
4
2
4
6
5
4
3
2
2
2
3
4
4
3
1
1
3
4
3
2
3
4
4
4
5
4
1
1
3
4
3
3
5
5
4
3
2
3
4
3
2
2
2
2
2
1
0
1
3
6
8
8
10
15
17
14
8
0
-5
-8
-13
-18
-20
-20
-21
-23
-25
-27
-25
-21
-19
-17
-10
-3
-2
0
-1
-2
1
4
2
0
-1
-2
0
2
0
-2
-2
-2
-1
0
-1
-2
-3
-3
0
2
2
20
52
64
65
38
-4
-63
-128
-194
-259
-325
-390
-365
-324
-268
-209
-145
-206
-38
2
8
14
16
18
18
18
18
18
17
16
18
20
19
18
19
19
16
14
17
18
19
19
17
17
20
22
21
21
23
22
19
20
23
24
25
26
26
26
27
30
32
31
30
32
34
36
38
37
36
38
40
40
40
41
42
40
38
38
38
37
36
36
35
32
28
24
22
22
19
14
11
9
8
8
6
3
2
3
3
1
0
0
0
0
-1
-2
-3
-4
-4
-4
-5
-6
-6
-6
-5
-4
-4
-4
-4
-4
-4
-4
-4
-3
0
2
1
0
1
2
1
1
3
4
4
4
3
2
3
4
4
4
4
2
2
2
2
3
4
0
-4
-4
-4
-2
0
-1
-2
-2
-2
-4
-5
-1
1
-2
-4
-5
-6
-6
-6
-5
-4
-3
-2
-2
-3
-5
-4
-1
0
-1
-2
-3
-4
-5
-5
-4
-3
-2
-2
-2
-3
-4
-3
-2
-1
0
-2
-4
-4
-4
-3
-2
-2
-2
-2
-2
-2
-2
-2
-2
-1
0
0
-1
-3
-4
-3
-2
-2
-2
-3
-4
-4
-2
1
4
8
10
12
8
4
0
-4
-9
-14
-17
-20
-21
-22
-24
-26
-27
-28
-27
-25
-22
-17
-8
-4
-5
-5
-2
0
-1
-2
-2
-2
-2
-2
-2
-2
-3
-4
-4
-4
-3
-2
-2
-3
-2
-2
-2
3
12
41
66
60
42
-22
-86
-151
-217
-283
-345
-404
-421
-379
-326
-261
-196
-131
-70
-13
13
18
20
20
21
23
24
23
22
22
24
27
27
25
24
25
25
24
25
26
26
26
26
26
27
28
31
34
33
32
31
30
31
32
33
34
36
38
38
39
41
43
45
47
49
51
53
54
53
54
57
59
61
62
61
62
65
65
62
62
62
62
62
59
56
54
51
46
41
36
32
30
27
23
20
20
19
16
14
13
13
15
15
12
10
9
8
8
8
8
8
9
10
10
10
9
8
9
10
10
11
10
11
12
12
12
13
14
15
16
16
16
16
16
17
18
18
18
17
16
15
14
14
14
13
12
12
12
11
10
10
10
10
10
9
8
9
10
11
10
7
7
8
8
8
7
6
8
10
9
8
7
6
8
10
9
8
7
6
6
6
6
6
6
7
9
9
6
4
5
6
7
8
8
7
5
5
7
8
8
8
7
6
6
6
6
7
8
7
6
6
6
6
6
6
6
4
2
4
6
6
6
6
6
7
8
7
6
5
6
10
12
12
15
20
19
13
8
3
-2
-7
-12
-17
-18
-18
-20
-22
-24
-26
-22
-18
-13
-7
-1
4
4
4
5
6
6
6
5
4
3
2
3
4
4
4
3
2
3
4
4
4
5
6
7
19
33
54
75
66
51
-11
-76
-142
-208
-273
-334
-333
-332
-332
-321
-256
-191
-126
-65
-12
24
24
25
29
32
32
31
28
27
29
30
29
29
32
33
31
30
31
32
32
33
35
36
36
36
36
36
37
38
40
41
42
43
44
46
48
48
48
49
50
51
52
55
58
59
60
61
63
66
68
69
70
70
70
71
72
72
72
73
74
73
69
63
62
62
58
53
49
45
40
44
31
28
26
24
21
18
17
16
15
14
13
12
13
13
10
8
9
10
11
11
8
6
7
8
9
10
11
12
11
10
10
10
11
13
15
15
13
12
13
15
17
18
18
18
18
16
14
15
16
17
18
16
14
15
16
14
12
13
14
12
10
11
12
11
10
11
12
11
10
9
8
8
8
9
10
9
7
5
4
4
5
7
8
6
5
4
6
8
7
6
7
8
6
4
5
6
6
6
5
4
3
2
3
4
4
4
4
4
4
4
4
4
4
4
4
3
1
1
3
4
4
4
3
2
2
2
0
2
4
4
4
2
0
3
6
9
12
13
14
12
9
3
-2
-8
-13
-18
-20
-21
-23
-25
-26
-26
-25
-23
-22
-21
-14
-6
-4
-4
-3
-1
0
-1
-1
1
1
0
-1
-2
-2
-2
-3
-4
0
4
0
-4
-4
-4
-2
3
12
30
59
71
59
20
-46
-111
-177
-242
-308
-345
-367
-371
-366
-317
-252
-187
-122
-63
-6
9
17
16
13
13
16
16
16
16
16
16
16
15
14
16
18
17
16
16
16
16
16
17
18
19
20
19
19
21
22
21
19
17
18
21
22
23
25
27
28
29
30
29
30
33
34
34
35
36
39
42
38
34
37
40
37
34
34
34
33
32
30
28
26
24
22
18
13
10
9
8
7
5
3
2
2
2
1
-1
-3
-2
1
0
-3
-4
-5
-7
-9
-7
-4
-6
-8
-7
-6
-8
-10
-9
-8
-7
-6
-4
-3
-7
-9
-6
-4
-3
-2
-2
-2
-3
-3
-1
0
-1
-2
-1
0
0
0
0
0
-1
-2
-1
-2
-5
-6
-5
-4
-4
-4
-4
-4
-4
-5
-6
-6
-6
-7
-8
-8
-8
-6
-4
-6
-8
-7
-6
-8
-10
-7
-6
-7
-8
-7
-7
-9
-9
-7
-6
-7
-8
-9
-10
-10
-10
-9
-8
-7
-6
-6
-10
-12
-10
-8
-7
-6
-9
-12
-11
-10
-10
-10
-8
-6
-7
-8
-9
-10
-9
-8
-5
-5
-8
-10
-10
-10
-9
-6
-2
0
0
3
7
4
-1
-6
-11
-15
-19
-23
-27
-28
-28
-30
-32
-35
-38
-32
-26
-25
-23
-15
-8
-9
-10
-8
-6
-6
-6
-7
-8
-9
-10
-10
-9
-7
-6
-6
-6
-6
-6
-6
-6
-6
-6
-6
8
25
44
62
53
41
-23
-89
-154
-220
-285
-342
-323
-306
-310
-301
-236
-171
-106
-50
-13
12
14
16
15
14
16
18
19
20
20
20
20
20
21
22
21
20
21
22
22
22
22
23
25
25
23
22
22
25
26
27
28
28
28
29
30
31
32
35
38
39
40
40
41
44
46
47
49
52
55
57
58
57
57
59
59
57
56
57
57
55
54
53
49
45
42
39
36
33
26
20
19
18
16
14
12
10
8
6
6
6
4
2
1
0
1
2
0
-2
-1
0
-1
-4
-9
-12
-11
-10
-9
-26
-52
-84
-116
-156
-198
-250
-303
-277
-239
-283
-334
-324
-310
-254
-198
-133
-70
-18
25
18
12
16
20
20
20
19
18
18
18
19
20
21
22
23
24
24
24
25
26
26
26
27
28
28
28
29
30
29
30
33
34
35
34
36
29
28
31
34
38
42
47
52
54
57
64
70
73
77
82
86
85
84
85
86
89
90
89
88
88
85
79
72
65
57
50
45
40
35
31
27
23
22
21
18
15
15
16
16
16
16
16
16
16
17
18
16
14
15
16
17
18
18
18
18
18
18
18
18
18
17
15
13
13
17
16
12
10
11
12
12
12
11
10
9
8
8
8
8
9
10
9
8
8
8
6
4
5
6
6
6
3
0
2
4
5
6
5
4
4
4
3
2
2
2
2
2
1
0
1
2
3
4
3
2
1
0
1
2
2
2
0
0
0
1
2
2
2
1
0
1
2
2
2
3
4
2
0
1
2
2
2
3
3
1
0
-1
-2
-1
0
1
1
-1
-2
-2
-2
-1
0
0
0
-1
-2
-2
0
2
1
0
-1
-2
-2
-2
-2
-2
-1
0
-1
-2
-2
-2
-2
-2
-1
0
0
0
-1
-2
-1
0
0
-1
-3
-4
-3
-2
-2
-3
-5
-5
-3
-2
-2
-2
-4
-4
-4
-5
-6
-5
-4
-4
-4
-4
-4
-4
-4
-4
-4
-4
-4
-3
-2
-4
-6
-5
-4
-5
-6
-6
-6
-6
-6
-6
-6
-5
-4
-5
-6
-7
-7
-5
-4
-5
-6
-6
-6
-6
-5
-4
-4
-4
-4
-4
-4
-4
-3
-2
-3
-4
-3
-3
-6
-8
-6
-4
-7
-7
-5
-4
-5
-6
-6
-6
-6
-6
-6
-6
-6
-6
-5
-4
-4
-4
-4
-4
-4
-5
-6
-6
-6
-7
-8
-6
-4
-5
-6
-6
-6
-3
0
2
4
4
4
5
3
-4
-10
-15
-20
-25
-28
-28
-28
-27
-28
-31
-33
-35
-32
-27
-19
-10
-8
-7
-6
-6
-8
-12
-11
-10
-11
-12
-11
-10
-10
-10
-11
-12
-12
-12
-12
-12
-12
-12
-13
-9
5
25
53
54
30
-17
-83
-148
-214
-280
-345
-357
-347
-352
-363
-314
-249
-184
-119
-63
-9
0
-6
8
8
8
8
10
12
12
12
12
12
12
12
11
10
10
10
11
12
13
14
13
12
13
14
13
12
13
14
15
17
19
20
21
22
22
22
22
23
25
26
27
29
30
30
30
31
32
32
32
33
34
34
34
33
32
32
32
31
30
31
31
28
26
27
25
19
16
15
12
8
6
5
1
-3
-4
-5
-7
-9
-11
-13
-14
-13
-13
-16
-16
-16
-16
-16
-16
-16
-17
-18
-16
-14
-15
-16
-15
-14
-14
-14
-12
-10
-10
-10
-9
-8
-7
-7
-9
-10
-9
-8
-8
-8
-7
-7
-9
-10
-10
-10
-10
-10
-11
-12
-12
-13
-14
-13
-12
-13
-14
-17
-20
-18
-16
-15
-14
-16
-18
-18
-18
-16
-14
-15
-16
-16
-16
-17
-18
-17
-16
-15
-14
-15
-17
-19
-19
-17
-16
-15
-15
-17
-18
-17
-16
-15
-15
-16
-16
-16
-15
-14
-15
-16
-16
-16
-15
-14
-15
-16
-15
-14
-14
-14
-15
-16
-15
-14
-14
-13
-10
-8
-9
-12
-16
-14
-8
-5
-3
-2
-1
-1
-3
-10
-17
-20
-23
-28
-34
-35
-36
-35
-34
-35
-36
-39
-41
-35
-29
-22
-15
-11
-8
-9
-10
-12
-14
-13
-12
-12
-12
-13
-14
-13
-12
-11
-10
-10
-10
-11
-12
-12
-12
-12
-5
3
29
58
55
60
-17
-83
-148
-214
-279
-343
-396
-433
-394
-349
-284
-219
-154
-92
-36
1
7
10
10
10
10
10
11
12
13
14
14
14
14
14
15
16
17
18
19
20
19
19
21
22
21
22
24
23
22
23
24
25
26
28
30
29
28
30
32
36
38
37
36
38
41
44
46
47
49
51
52
52
53
55
56
55
54
54
54
55
55
53
52
51
47
43
39
34
29
24
20
16
13
10
9
8
6
4
3
2
1
0
-1
-2
-3
-4
-4
-4
-3
-3
-5
-5
-3
-2
-2
-2
-3
-4
-3
-2
-1
0
0
0
1
2
3
4
4
4
6
4
2
2
2
2
2
1
0
1
2
2
2
1
0
-1
-2
-2
-2
1
1
-1
-3
-5
-5
-2
0
-1
-2
-3
-4
-4
-4
-3
-3
-5
-3
1
-4
-11
-10
-8
-7
-6
-6
-6
-7
-7
4
9
-6
-16
-8
-3
-10
-13
-9
-6
-5
-4
-5
-6
-6
-6
-6
-6
-6
-6
-6
-6
-6
-6
-6
-6
-6
-5
-3
-5
-9
0
11
-2
-18
-13
-8
-7
-6
-7
-8
-4
-1
-6
-9
-2
4
1
-2
0
4
9
7
-7
-14
-17
-20
-24
-26
-26
-26
-26
-26
-27
-33
-40
-35
-24
-18
-11
-10
-10
-8
-5
-4
-4
-8
-10
-7
-4
-6
-8
-6
-4
-5
-6
-6
-6
-6
-6
-7
-7
-4
-1
2
7
16
31
54
52
29
-19
-85
-151
-216
-282
-347
-348
-325
-312
-302
-246
-181
-116
-51
-20
9
13
16
15
14
16
18
18
18
15
12
15
18
18
18
20
21
18
16
18
20
21
22
23
24
25
25
22
23
28
29
27
27
29
30
30
32
35
36
36
36
36
38
42
46
50
48
46
46
46
48
50
51
52
50
48
51
54
53
52
51
50
48
46
43
41
38
35
33
29
24
20
17
16
16
14
11
10
9
8
8
8
7
6
6
6
6
3
0
3
6
3
0
-2
-4
1
4
5
6
5
4
5
6
6
6
6
6
7
9
11
12
13
14
13
14
17
15
11
14
19
15
9
11
15
15
13
15
18
15
12
13
14
12
10
9
8
10
12
12
12
11
11
14
16
15
14
12
10
9
8
9
10
11
12
12
11
9
9
11
12
12
12
12
12
13
14
13
11
8
13
18
14
10
13
16
14
12
12
12
14
16
16
16
16
16
16
16
14
13
18
19
17
17
19
20
20
22
25
21
14
10
7
2
-3
-2
1
2
2
2
2
-2
-6
-2
2
4
7
14
20
19
18
17
16
16
16
15
14
15
16
16
16
15
14
15
16
15
14
15
14
11
21
37
61
88
82
67
9
-56
-122
-187
-253
-318
-257
-195
-234
-265
-200
-135
-70
-13
6
23
28
32
33
34
34
34
35
36
35
34
36
38
38
39
41
41
39
38
39
40
40
40
39
38
39
40
40
40
41
43
45
44
40
44
48
48
48
48
48
49
50
52
54
57
60
58
57
62
66
66
66
67
68
69
70
69
68
68
68
69
70
69
66
61
60
59
55
51
48
45
42
39
36
38
31
30
25
20
20
20
20
20
20
20
19
18
18
18
16
15
18
20
19
18
17
17
19
21
23
23
20
18
19
21
23
23
21
20
20
20
21
22
21
20
21
21
20
19
18
20
22
19
16
15
14
14
14
14
14
14
14
15
16
14
12
11
10
11
12
11
10
10
10
10
10
11
12
11
10
10
10
11
11
9
8
8
8
10
10
10
12
14
12
10
10
10
8
6
9
12
9
7
10
12
10
8
9
10
11
11
9
9
12
13
11
10
10
13
18
20
20
19
17
14
11
7
3
-2
2
-6
-4
-7
-10
-13
-15
-6
2
4
6
11
14
11
8
9
10
10
10
11
11
8
6
5
5
7
8
7
6
6
7
9
10
11
35
65
70
69
28
-17
-81
-146
-212
-278
-343
-402
-366
-326
-261
-196
-131
-70
-21
17
25
30
31
32
33
34
35
36
35
34
35
36
35
35
37
38
38
38
38
39
41
42
41
42
45
46
45
44
45
46
48
48
48
50
52
53
54
55
56
58
60
60
61
65
68
69
70
71
73
76
78
81
82
82
82
81
81
84
86
85
82
79
77
75
70
65
63
61
55
49
47
48
39
34
33
32
27
22
22
22
20
18
17
16
15
14
14
14
15
16
14
12
13
14
14
14
14
14
15
16
15
14
15
16
17
18
17
16
17
19
21
22
22
19
16
18
20
21
22
20
18
19
20
19
18
18
18
17
16
16
16
15
14
15
15
12
11
13
14
13
12
12
12
11
10
11
12
12
12
11
10
10
10
10
10
12
10
8
8
8
8
8
9
10
9
8
6
4
7
10
8
6
7
8
7
6
7
8
7
7
9
9
6
4
5
6
7
8
7
6
7
8
9
10
10
10
10
8
8
10
12
12
12
12
12
13
14
11
8
8
6
0
-5
-9
-12
-11
-11
-14
-16
-15
-12
-6
-1
5
7
5
4
4
6
9
7
3
2
3
4
3
3
5
4
2
3
4
3
2
5
8
8
14
44
66
66
53
11
-39
-105
-170
-236
-301
-367
-389
-365
-319
-254
-189
-124
-63
-5
16
20
22
22
24
27
28
27
26
26
27
29
29
26
29
32
31
30
30
30
31
32
32
32
31
30
32
34
36
38
38
38
37
38
43
45
43
42
43
45
47
48
49
50
50
53
59
60
60
60
60
63
67
64
68
61
64
63
62
60
58
59
60
56
52
47
44
42
38
32
28
27
25
22
20
19
16
11
8
7
7
9
10
9
7
5
4
5
4
1
0
1
2
1
1
3
1
-2
-2
-2
1
4
2
0
0
0
3
6
7
8
7
6
6
6
8
10
10
9
7
6
7
8
8
8
9
10
10
10
9
8
9
5
-1
1
5
4
1
1
4
1
-2
1
4
0
-4
-1
2
1
0
-1
-2
-2
-2
0
2
1
0
-1
-2
-3
-4
-4
-3
-1
0
-1
-2
-2
-2
-2
-2
-2
-2
-3
-4
-3
-2
-2
-2
-2
-3
-4
-5
-6
-4
-2
-2
-2
-4
-6
-5
-4
-3
-2
-1
0
0
0
-2
-4
-1
1
3
3
1
-1
-3
-6
-10
-14
-17
-19
-21
-22
-23
-24
-24
-21
-17
-15
-13
-7
-2
-5
-8
-9
-10
-8
-6
-7
-8
-8
-8
-6
-4
-8
-10
-11
-12
-11
-10
-10
-10
-10
-4
9
27
49
55
48
1
-64
-130
-195
-261
-326
-327
-314
-326
-342
-285
-220
-155
-90
-42
4
8
12
12
12
13
14
15
16
17
18
18
18
17
16
16
16
18
20
19
18
19
20
21
22
21
21
23
24
24
24
25
26
27
28
28
28
28
30
28
36
38
39
40
42
44
47
50
50
51
56
60
57
55
58
60
59
58
58
58
59
60
61
60
54
50
46
40
34
32
32
30
27
22
15
14
13
11
9
7
5
4
4
2
0
1
2
2
2
1
0
0
0
0
0
-1
-2
-1
0
1
2
3
4
4
5
7
8
7
6
6
7
9
7
3
4
7
8
7
6
6
6
6
6
4
4
4
4
4
1
-2
1
4
2
0
-1
-2
-1
0
-1
-2
-2
-2
-1
0
0
-1
-3
-4
-3
-2
-2
-2
-2
-2
-3
-4
-3
-2
-2
-2
-3
-4
-4
-4
-4
-5
-6
-4
-2
-2
-2
-2
-2
-2
-2
-3
-4
-4
-4
-4
-4
-3
-2
-2
-2
-3
-4
-5
-6
-6
-5
-3
-2
-3
-4
-3
-2
-3
-4
-3
-2
-3
-4
-5
-5
-3
-2
-2
-3
-4
-4
-4
-1
2
3
4
1
-2
-2
-3
-10
-14
-15
-16
-18
-20
-20
-22
-26
-27
-24
-19
-14
-9
-4
-2
-2
-3
-5
-6
-6
-6
-6
-6
-5
-4
-5
-6
-6
-5
-4
-5
-6
-6
-6
-4
-2
-4
-1
22
41
51
53
35
-1
-67
-132
-198
-263
-329
-357
-351
-317
-261
-200
-135
-73
-13
9
16
18
17
18
21
22
22
22
22
22
22
25
26
27
28
28
28
27
26
26
26
27
28
29
30
31
32
33
34
35
36
37
39
41
42
43
44
44
46
49
51
53
55
57
59
61
63
65
66
67
71
75
78
80
77
74
75
76
75
74
75
76
72
68
65
61
54
48
41
35
32
29
26
22
18
15
13
11
9
8
7
5
3
2
1
0
1
2
2
2
1
0
0
0
-2
-1
0
1
2
2
2
3
4
3
2
3
4
4
4
6
8
7
6
6
6
7
8
8
9
11
11
8
6
7
8
8
7
5
5
7
7
5
4
4
4
4
3
2
1
0
0
0
0
0
0
0
1
2
-1
-4
-3
-2
-3
-4
-3
-2
-2
-2
-2
-2
-3
-3
-1
-1
-3
-4
-4
-4
-5
-6
-6
-6
-5
-4
-4
-4
-5
-8
-10
-6
-2
-4
-6
-6
-6
-5
-4
-5
-6
-5
-4
-6
-8
-7
-6
-6
-6
-6
-6
-7
-7
-4
-3
-6
-8
-7
-7
-9
-9
-7
-6
-6
-6
-5
-4
-5
-6
-5
-6
-10
-5
0
2
4
-1
-6
-5
-5
-11
-16
-18
-20
-23
-25
-22
-22
-28
-31
-28
-24
-17
-12
-8
-6
-6
-7
-10
-11
-9
-8
-9
-10
-9
-8
-8
-9
-11
-11
-9
-8
-8
-9
-10
-10
-10
-5
3
25
44
50
47
17
-24
-89
-155
-221
-286
-352
-385
-372
-334
-269
-204
-139
-79
-24
3
12
16
15
14
15
16
17
18
19
20
21
22
21
20
20
22
24
24
24
24
24
25
26
27
28
28
28
28
28
29
30
32
34
34
34
36
38
38
39
42
45
48
50
49
49
51
55
59
62
65
64
61
62
65
66
66
66
64
63
62
62
62
60
58
55
51
43
35
30
26
25
23
20
16
11
8
7
6
6
5
3
1
-1
-1
1
0
-3
-4
-3
-2
-1
-1
-3
-4
-3
-2
-2
-2
-2
-3
-2
0
2
1
0
1
2
2
2
5
8
6
4
4
4
6
8
8
8
8
8
7
6
5
4
4
4
5
6
6
3
-1
-1
1
2
1
0
0
0
0
0
0
-1
-2
-3
-4
-3
-2
-3
-4
-7
-10
-8
-6
-6
-6
-7
-8
-6
-4
-5
-7
-9
-9
-7
-6
-5
-4
-5
-6
-6
-5
-3
-6
-11
-10
-7
-6
-7
-8
-7
-6
-8
-7
-6
-8
-10
-10
-10
-9
-8
-7
-6
-7
-8
-7
-6
-6
-6
-8
-10
-9
-8
-9
-9
-7
-6
-7
-8
-7
-6
-5
-5
-7
-8
-7
-6
-7
-6
-3
-2
-3
-3
-4
-9
-18
-16
-14
-20
-26
-25
-24
-27
-30
-29
-27
-21
-15
-10
-6
-6
-6
-6
-6
-7
-8
-7
-6
-6
-7
-9
-10
-9
-8
-8
-7
-5
-6
-9
-10
-10
-7
-3
6
15
40
64
54
39
-26
-92
-157
-223
-288
-340
-343
-347
-355
-340
-275
-210
-145
-84
-29
5
12
15
12
12
17
19
16
15
19
20
19
18
17
16
17
20
23
24
23
22
22
22
22
23
24
25
26
26
26
28
30
31
32
32
32
34
36
37
39
42
44
44
44
47
49
52
54
54
56
60
62
61
60
61
63
65
66
65
63
61
60
59
58
58
51
44
41
38
34
30
26
22
20
18
13
10
11
11
8
6
4
2
3
4
1
0
1
2
2
2
1
0
1
2
3
4
5
4
1
1
3
5
7
7
5
6
8
8
8
9
10
9
8
8
8
11
13
9
6
7
8
7
6
7
8
7
6
5
4
4
4
5
6
5
5
7
5
1
2
5
5
3
2
1
0
1
2
2
2
2
2
2
2
2
1
0
2
4
1
-2
-1
0
1
2
2
2
2
2
-1
-2
-1
0
1
1
-1
-2
-1
0
1
0
-3
-4
-4
-2
1
2
1
0
0
0
0
-1
-2
0
2
1
0
-1
-2
-1
0
1
2
0
-2
-1
0
-2
-4
-1
0
1
1
-1
-2
-2
-2
-1
0
0
0
0
0
1
1
-1
-1
1
4
7
5
2
2
2
-3
-8
-11
-14
-17
-20
-17
-15
-20
-24
-22
-19
-14
-8
-3
0
1
1
-2
-4
-3
-2
-2
-2
-2
-2
-3
-3
-1
-1
-3
-3
-1
-1
-3
-4
-3
0
4
34
62
62
58
17
-28
-93
-159
-224
-290
-355
-396
-372
-334
-269
-204
-139
-78
-22
12
21
26
25
25
27
28
28
28
29
30
29
28
28
28
29
30
29
31
35
34
36
31
32
33
34
36
38
38
38
38
38
41
44
45
46
46
46
48
50
52
54
57
59
61
63
66
68
68
70
73
74
75
76
77
78
78
78
79
80
80
77
73
73
74
69
64
58
52
47
42
36
32
29
26
23
20
19
18
17
15
11
8
8
9
11
11
8
6
5
4
4
4
5
6
7
8
7
6
6
7
9
10
9
8
8
9
10
12
14
12
10
11
12
13
14
15
16
17
17
12
9
13
16
16
15
12
10
11
12
12
11
9
8
8
8
7
7
9
10
9
8
7
6
5
5
4
7
6
5
4
2
0
3
6
7
8
5
2
3
4
3
2
3
4
3
2
2
2
2
2
2
2
2
1
-1
-1
1
2
3
3
1
0
1
2
2
2
2
1
0
-2
-4
0
4
2
0
0
0
1
2
4
5
1
-2
-1
0
0
0
-1
-1
1
2
2
1
-1
-2
-1
0
0
0
0
-1
-3
-3
-1
0
-1
-2
-2
-2
0
2
4
5
6
3
-1
-8
-14
-13
-13
-18
-22
-20
-19
-23
-26
-25
-21
-14
-9
-4
-2
-2
-3
-5
-6
-7
-7
-5
-4
-4
-5
-7
-7
-5
-4
-4
-4
-4
-4
-4
-6
-6
-3
2
32
58
58
49
0
-53
-118
-184
-249
-315
-381
-409
-372
-323
-258
-193
-128
-70
-19
4
5
8
12
12
8
10
16
17
15
14
15
16
17
18
18
15
11
11
12
13
14
16
18
15
12
15
18
17
16
18
20
22
24
25
26
28
29
26
27
33
36
36
36
37
39
43
46
49
51
53
55
57
58
58
59
61
62
63
67
72
68
64
64
64
58
52
49
45
39
33
26
20
18
14
8
4
3
2
1
0
-1
-2
-3
-4
-5
-7
-10
-10
-7
-7
-9
-9
-7
-6
-7
-8
-7
-6
-5
-4
-4
-5
-6
-5
-4
-3
-2
-3
-4
-2
0
1
2
-1
-3
0
2
2
1
-2
-4
-4
-4
-4
-4
-4
-4
-4
-4
-4
-5
-7
-8
-7
-7
-9
-10
-9
-8
-8
-8
-7
-8
-10
-11
-12
-11
-10
-9
-8
-8
-8
-9
-10
-9
-8
-9
-10
-8
-6
-8
-10
-9
-8
-7
-7
-9
-9
-7
-6
-7
-8
-8
-8
-7
-7
-9
-10
-9
-7
-5
-4
-3
-4
-8
-7
-6
-6
-6
-6
-6
-6
-6
-5
-4
-6
-8
-6
-4
-5
-6
-4
-3
-6
-8
-7
-5
-3
-2
-3
-4
-4
-4
-4
-4
-3
-3
-5
-6
-5
-4
-5
-5
-3
-2
-2
-2
-2
-2
-2
-1
0
1
2
0
-2
-1
-2
-9
-14
-13
-13
-16
-18
-19
-20
-21
-22
-23
-21
-15
-10
-6
-4
-3
-2
-2
-2
-2
-2
-2
-2
-3
-3
-1
0
-1
-2
-2
0
2
0
-2
0
3
9
20
48
70
69
49
-13
-77
-143
-208
-274
-339
-405
-426
-400
-353
-288
-223
-158
-93
-28
3
19
26
29
30
30
30
29
29
31
32
32
33
36
36
36
33
30
32
34
37
40
38
36
37
38
39
40
42
44
43
42
43
44
47
49
51
52
53
54
54
56
59
61
63
64
65
68
71
73
75
76
76
76
76
77
78
79
80
79
78
76
74
72
70
68
64
57
51
47
43
39
36
34
31
26
22
17
14
13
12
13
14
13
11
9
8
8
8
9
9
7
6
5
4
4
7
10
6
2
4
6
6
6
8
10
11
12
11
10
11
12
14
16
16
16
15
14
15
16
15
14
14
14
13
12
13
14
13
12
13
13
11
9
7
8
11
10
6
5
4
7
10
8
6
5
4
3
2
4
6
5
4
2
0
0
1
4
6
3
2
1
1
3
4
3
1
-1
-2
-2
0
3
1
-3
-4
-3
-2
-1
1
0
2
0
-1
-2
-1
0
-1
-2
-1
0
-1
-2
-3
-3
0
1
-2
-4
-4
-4
-3
-2
-3
-4
-4
-4
-5
-6
-5
-4
-3
-3
-5
-6
-6
-4
-1
-2
-5
-5
-3
-2
-2
-1
0
1
2
1
-1
-8
-14
-11
-9
-17
-22
-22
-22
-24
-26
-28
-26
-16
-9
-7
-6
-6
-6
-5
-4
-3
-4
-7
-8
-8
-8
-7
-6
-7
-8
-7
-6
-6
-6
-6
-6
-6
-4
1
29
54
57
53
16
-28
-93
-159
-224
-290
-356
-377
-327
-279
-235
-181
-116
-63
-20
1
7
14
21
18
7
6
9
10
10
12
15
16
15
14
14
15
14
17
16
15
14
14
14
17
20
19
18
17
17
21
24
22
20
21
22
23
24
25
27
29
30
31
32
31
32
35
36
37
38
39
40
40
42
45
45
43
42
43
44
44
44
44
44
44
40
36
35
34
31
27
23
20
18
15
11
8
7
6
5
4
4
3
1
-1
-3
-4
-3
-2
-1
-1
-3
-4
-3
-2
-2
-2
-1
0
0
0
2
2
2
2
2
4
6
5
4
5
6
4
2
4
6
6
6
5
4
5
6
5
4
4
4
3
2
1
0
1
2
1
0
1
2
1
0
0
0
0
0
0
0
0
-1
-2
-2
-2
-2
-2
-3
-4
-4
-4
-5
-6
-4
-2
-2
-2
-2
-2
-5
-6
-5
-4
-5
-6
-5
-4
-5
-6
-6
-6
-5
-4
-3
-2
-3
-4
-3
-4
-7
-6
-4
-5
-6
-5
-4
-4
-4
-4
-4
-3
-2
-3
-4
-5
-6
-4
-2
-3
-4
-4
-4
-4
-4
-3
-2
-2
-2
-3
-4
-3
1
5
5
3
1
-1
-4
-7
-9
-11
-15
-20
-19
-18
-19
-20
-23
-26
-19
-14
-12
-9
-3
2
-1
-4
-3
-2
-3
-4
-3
-2
-2
-3
-6
-7
-4
-3
-5
-6
-5
-4
-4
-3
-1
22
50
54
55
33
8
-56
6
-187
-253
-318
-377
-361
-337
-272
-207
-142
-81
-31
7
13
18
20
22
23
24
26
27
22
21
24
26
26
26
26
26
26
26
27
28
28
28
27
26
25
27
31
32
32
31
30
33
36
35
34
38
42
41
40
43
46
49
52
52
53
57
60
59
59
63
66
67
69
72
73
71
71
75
76
76
76
75
74
73
68
63
60
57
50
43
38
32
30
28
22
16
14
12
10
8
9
9
5
2
4
6
4
2
3
4
2
0
0
0
0
1
3
4
5
4
1
1
3
4
4
4
4
5
7
8
8
8
8
8
8
9
10
10
10
11
12
9
6
8
10
9
8
8
8
6
4
5
6
6
6
5
4
5
6
5
3
1
0
0
0
0
0
1
2
1
0
-1
-2
-1
0
0
-1
-2
-1
0
-2
-4
-2
0
0
0
0
0
0
0
-1
-2
-1
0
-1
-2
-2
-2
-1
-1
-3
-4
-3
-2
-3
-3
-1
0
0
-1
-3
-4
-3
0
3
1
-4
-3
-2
-2
-2
-2
-2
-3
-4
-4
-4
-2
0
-2
-4
-3
-2
-1
0
-2
-4
-1
0
0
0
1
2
1
0
1
3
5
4
1
2
5
-1
-11
-10
-7
-12
-6
-18
-16
-20
-24
-23
-22
-15
-9
-3
2
1
0
-2
-4
-3
-2
-3
-3
0
1
-2
-4
-4
-4
-3
-2
-3
-4
-3
-2
-2
-1
1
27
59
62
59
17
-31
-95
-160
-226
-292
-357
-417
-393
-364
-299
-234
-169
-104
-39
10
14
18
19
20
21
22
23
24
24
24
25
27
29
29
26
24
23
24
28
30
31
32
31
30
31
32
33
34
34
35
38
37
36
38
40
42
44
45
46
48
50
52
54
56
58
60
63
66
68
70
72
73
75
77
78
77
77
79
79
77
76
75
74
75
72
65
62
59
53
47
42
46
31
26
24
22
19
16
13
10
8
6
6
6
5
4
4
4
2
0
0
0
1
1
-1
-1
1
2
1
2
5
5
3
2
3
4
4
4
5
6
7
8
7
8
10
9
8
10
12
10
8
8
8
9
10
8
6
6
6
6
6
5
4
3
2
3
4
4
4
3
2
3
3
1
0
0
0
1
2
2
1
-1
-2
-1
0
0
0
0
-1
-2
-4
-6
-3
0
-2
-4
-3
-2
-3
-4
-3
-2
-3
-4
-5
-6
-5
-4
-3
-3
-5
-6
-6
-6
-5
-4
-3
-4
-7
-8
-7
-6
-5
-4
-4
-4
-4
-6
-6
-5
-4
-6
-8
-7
-6
-7
-8
-8
-8
-6
-4
-6
-8
-7
-6
-6
-6
-7
-8
-8
-7
-5
-4
-5
-6
-6
-5
-3
-1
1
1
-1
-4
-7
-11
-15
-17
-19
-22
-24
-25
-26
-30
-34
-26
-20
-17
-13
-7
-2
-4
-6
-6
-7
-11
-13
-10
-8
-8
-9
-11
-11
-8
-6
-6
-6
-7
-8
-9
-9
-7
5
19
42
66
55
38
-24
-89
-155
-221
-286
-347
-322
-302
-323
-332
-267
-202
-137
-76
-27
8
10
12
12
12
13
14
14
14
15
16
16
17
19
20
19
18
18
18
19
19
17
16
17
18
19
20
21
22
22
23
24
24
24
26
28
29
30
30
30
31
32
33
34
36
38
40
42
42
43
46
48
49
50
50
50
50
50
50
50
50
50
51
49
45
43
41
38
35
32
29
23
18
17
16
13
10
9
8
6
4
4
4
5
5
-2
-6
-4
-2
-3
-4
-3
-3
-5
-7
-9
-7
-2
0
0
0
1
0
-3
-2
1
2
2
2
3
4
3
2
4
6
8
8
8
6
4
5
6
5
4
5
6
4
2
3
4
5
6
4
2
2
2
2
2
3
3
0
-2
-2
-1
1
2
1
0
0
0
-1
-2
-2
-2
-2
-2
-2
-3
-4
-4
-4
-1
2
-4
-8
-6
-4
-6
-7
-3
0
-2
-4
-5
-6
-7
-7
-5
-5
-8
-9
-6
-4
-5
-6
-6
-6
-5
-5
-7
-7
-5
-5
-7
-8
-7
-7
-8
-9
-10
-5
0
-5
-10
-7
-4
-6
-8
-7
-6
-7
-8
-7
-6
-6
-6
-7
-8
-7
-6
-7
-7
-5
-4
-3
-2
-1
-1
-3
-6
-9
-12
-15
-19
-23
-24
-25
-26
-24
-26
-28
-25
-22
-19
-16
-9
-4
-6
-8
-9
-10
-11
-12
-11
-10
-10
-10
-10
-10
-9
-9
-11
-12
-11
-10
-9
-8
-9
-1
12
32
53
55
51
-6
-71
-137
-202
-268
-206
-351
-368
-361
-348
-283
-218
-153
-90
-32
12
14
16
18
20
21
22
23
24
25
26
23
22
23
24
25
26
27
28
28
28
29
29
27
28
31
32
32
33
35
36
35
37
40
39
38
39
40
43
46
48
50
53
56
58
60
61
63
66
68
68
68
70
72
73
74
74
75
77
77
73
72
71
70
70
66
61
56
51
45
39
35
31
29
26
20
14
13
12
10
8
7
6
6
6
6
6
5
4
3
2
4
5
1
-1
2
4
3
2
3
4
5
6
5
4
4
4
4
5
7
8
7
6
6
8
6
8
4
6
8
6
4
7
10
8
6
5
4
4
4
4
4
2
0
1
2
3
3
1
0
0
0
0
0
0
0
-1
-2
-1
0
0
0
0
0
-1
-1
1
-2
-6
-3
0
-2
-4
-4
-4
-4
-4
-4
-4
-4
-4
-4
-4
-4
-4
-2
-1
-5
-7
-5
-4
-5
-6
-7
-7
-5
-4
-5
-6
-6
-6
-5
-4
-4
-4
-5
-6
-6
-6
-8
-7
-6
-6
-6
-5
-4
-5
-6
-5
-4
-3
-2
-5
-8
-6
-4
-5
-6
-5
-4
-4
-4
-5
-5
-3
-2
-2
-2
-3
-2
1
2
1
-1
-3
-4
-5
-11
-17
-18
-18
-21
-24
-24
-24
-27
-29
-22
-16
-15
-13
-6
-1
-5
-8
-6
-4
-5
-6
-6
-6
-7
-7
-5
-4
-4
-5
-8
-9
-7
-6
-6
-6
-5
3
12
34
59
59
55
-7
-72
-138
-204
-269
-331
-344
-355
-346
-327
-262
-197
-132
-71
-22
12
16
18
20
22
23
24
24
24
24
24
24
24
24
24
25
26
25
24
25
26
27
28
29
30
30
30
31
32
34
34
34
37
40
38
36
39
42
42
43
47
50
52
54
56
59
62
64
62
61
66
68
69
70
71
73
75
75
73
72
72
71
69
68
67
64
61
53
45
43
44
35
30
27
24
19
14
13
12
11
10
9
8
7
6
8
9
5
2
3
4
4
4
4
4
5
6
6
6
5
5
7
8
7
2
-3
-10
-17
-23
-29
-30
-30
-26
-21
12
47
85
127
191
255
320
385
450
515
580
633
661
657
591
537
499
500
549
606
671
734
796
784
718
653
587
521
456
390
325
259
194
128
63
-3
-68
-83
-93
-97
-102
-104
-106
-109
-112
-119
-126
-129
-133
-138
-143
-149
-155
-160
-167
-177
-188
-199
-210
-219
-228
-239
-248
-256
-270
-287
-299
-307
-319
-333
-349
-364
-378
-391
-403
-416
-420
-423
-430
-437
-435
-438
-417
-404
-391
-377
-358
-339
-314
-290
-267
-243
-221
-198
-176
-152
-128
-105
-86
-70
-58
-47
-36
-26
-17
-11
-9
-7
-5
-4
-5
-6
-5
-4
-3
-4
-7
-5
-1
0
-1
-3
-5
-4
-2
-2
-2
-2
-2
-2
-2
-1
0
-1
-2
-1
0
2
4
2
0
0
0
1
3
6
7
4
2
1
0
1
3
5
6
5
3
1
0
0
1
3
4
4
4
2
3
4
3
2
2
2
0
-2
1
4
4
4
2
0
2
4
4
4
5
6
3
2
1
0
1
2
1
0
-1
-1
1
2
1
0
1
2
2
2
2
2
2
0
0
0
0
2
4
1
-2
-3
-4
-2
0
-2
-3
0
2
0
-2
-2
-2
-1
0
0
1
3
2
-2
-4
-3
-2
-1
0
-1
-1
1
1
-1
-2
-1
1
3
1
-2
-3
-4
-1
2
1
0
-1
-2
-1
0
1
2
1
0
0
0
-1
-2
-4
-5
-2
0
1
2
1
0
-1
-2
-1
0
1
1
-1
-2
-1
0
1
1
-1
-1
2
0
-2
0
2
0
-2
-1
0
0
0
1
2
1
0
-1
-2
0
2
0
-2
1
2
1
0
0
0
1
1
-1
0
3
2
-1
-1
1
0
-3
-4
-3
-2
-2
0
0
-1
-2
-1
0
0
0
-2
-4
-4
-4
-3
-2
-2
-2
-2
-2
-2
-2
-2
-2
-3
-4
-3
-2
-3
-4
-3
-2
-3
-3
-1
0
0
1
3
3
1
0
1
5
8
5
2
2
2
-6
-12
-13
-14
-14
-14
-14
-15
-19
-20
-14
-9
-6
-3
1
2
-2
-4
-4
-3
-1
0
0
-1
-3
-4
-3
-2
-3
-4
-5
-4
-1
0
0
14
30
48
65
46
21
-44
-110
-175
-241
-306
-344
-296
-267
-287
-278
-213
-148
-83
-34
-5
11
16
18
19
20
21
22
22
23
25
26
25
24
24
25
27
27
25
24
25
26
26
26
24
27
30
31
32
31
30
32
34
36
38
37
36
38
40
40
41
44
46
46
47
50
53
56
58
59
61
63
65
67
69
71
72
72
72
73
74
75
77
79
81
82
78
74
69
64
60
56
52
47
41
35
30
26
24
22
20
18
17
15
12
10
11
12
12
12
12
11
9
9
11
13
15
16
16
14
11
13
17
18
18
18
18
16
14
17
20
20
20
18
15
7
-1
-6
-12
-19
-24
-26
-24
-11
10
43
81
126
182
247
312
377
442
507
572
637
660
666
618
553
517
489
523
569
632
697
761
701
759
693
628
562
497
431
366
300
235
169
104
38
-27
-75
-86
-95
-98
-101
-105
-109
-112
-116
-120
-125
-131
-136
-140
-145
-150
-156
-162
-171
-181
-189
-196
-204
-213
-220
-227
-241
-255
-267
-278
-287
-297
-312
-327
-340
-355
-373
-390
-400
-410
-419
-426
-428
-429
-426
-421
-413
-401
-383
-365
-347
-326
-302
-279
-257
-231
-205
-182
-160
-139
-117
-98
-80
-62
-45
-36
-29
-22
-15
-11
-6
-4
-2
0
2
1
0
0
0
0
0
-1
-2
-1
0
0
0
0
0
1
2
2
2
1
0
0
1
3
4
3
2
3
4
4
4
4
4
5
4
1
2
0
4
2
3
4
3
2
4
6
4
2
2
2
2
2
3
4
3
2
3
4
3
2
3
4
3
2
3
4
3
2
2
2
1
0
1
2
1
1
3
4
4
3
2
2
2
1
0
-1
-2
1
4
2
0
3
6
2
0
1
2
0
-1
2
3
1
1
3
4
4
4
3
2
3
4
3
2
2
2
2
2
1
1
3
4
4
3
2
2
2
4
6
3
0
1
2
2
2
4
6
6
6
5
4
3
3
6
6
2
1
3
4
3
3
5
6
5
4
4
4
4
4
4
3
1
1
0
3
2
2
2
2
2
2
2
2
2
2
2
3
4
4
4
2
0
0
0
1
2
3
4
4
4
4
3
1
1
3
4
3
1
-1
0
3
3
1
1
3
3
2
2
2
3
4
4
4
3
2
1
0
2
4
2
0
0
0
1
2
1
1
3
3
1
0
0
0
1
2
2
2
2
2
2
2
3
4
4
4
5
5
2
2
2
4
6
4
2
5
8
9
11
15
18
21
21
9
1
-2
-6
-11
-14
-17
-18
-18
-18
-19
-20
-20
-18
-14
-9
-4
-1
1
3
5
4
1
0
1
2
2
4
6
3
0
3
6
4
2
2
2
3
4
3
9
31
51
65
65
41
-2
-68
-133
-199
-264
-330
-343
-320
-309
-304
-257
-192
-127
-62
-20
16
24
27
28
27
26
27
29
30
32
34
31
28
30
32
31
30
32
34
35
36
35
34
32
32
37
40
40
40
39
38
39
40
40
42
46
48
47
48
51
52
53
56
59
60
59
61
65
69
74
72
70
75
80
81
82
82
82
84
86
86
86
86
86
85
84
84
82
76
70
65
59
52
46
40
35
29
25
23
20
17
15
13
12
11
9
7
6
7
7
8
4
4
5
6
7
8
9
10
8
6
9
12
13
14
15
16
14
12
13
14
17
18
19
19
16
15
17
18
17
16
16
16
16
16
15
14
13
12
12
12
12
10
8
7
6
8
10
8
6
5
4
5
6
5
4
3
2
3
4
6
7
3
1
3
4
3
2
1
0
1
2
3
4
3
2
2
2
1
0
-1
-1
1
1
-2
-1
0
-2
-4
-1
2
1
0
1
2
-1
-4
-3
-2
-2
-2
-3
-4
-2
0
-3
-3
-1
-1
-4
-6
-5
-2
1
1
-1
1
7
7
5
4
3
5
9
4
10
-12
-20
-21
-22
-22
-22
-21
-20
-22
-24
-27
-30
-27
-22
-15
-9
-5
-2
-3
-4
-5
-6
-7
-8
-9
-9
-6
-4
-5
-5
-3
-3
-5
-6
-6
-6
-6
-4
-1
0
0
33
66
62
55
9
-40
-105
-171
-236
-302
-367
-405
-362
-312
-247
-182
-117
-63
-24
1
9
14
13
13
15
16
15
14
14
15
17
18
17
16
17
18
17
17
19
20
19
18
18
19
20
21
22
23
24
23
22
24
26
27
28
29
30
28
26
27
29
33
36
36
37
40
42
42
44
48
50
49
48
48
49
51
52
51
51
53
54
53
52
52
51
50
45
40
35
30
29
27
21
16
14
12
9
6
6
6
5
4
2
0
1
2
1
0
1
1
-1
-2
-2
-2
-2
-2
-2
-2
-1
0
-1
-1
1
2
1
2
4
4
4
4
4
6
8
8
8
6
4
5
6
6
6
5
4
4
4
5
5
3
2
3
5
7
6
2
1
3
3
1
0
-1
-2
-1
0
1
1
-1
-2
-4
-2
0
-1
-2
-2
-2
-1
0
-1
-2
-1
0
-1
-2
-2
-2
-2
-2
0
2
-1
-2
-1
-1
-3
-4
-4
-2
1
2
1
-1
-3
-4
-3
-2
-1
0
1
0
2
-3
-2
-1
0
0
0
-1
-2
-1
0
1
2
1
1
4
6
6
6
6
6
5
1
-6
-14
-22
-25
-23
-21
-19
-18
-18
-19
-21
-25
-29
-26
-21
-14
-7
-4
-1
1
2
-1
-4
-4
-4
-3
-2
-2
-2
-3
-4
-3
-2
-3
-4
-2
0
-2
-4
-4
-1
5
23
52
64
64
32
-20
-81
-146
-212
-277
-343
-408
-397
-368
-308
-243
-178
-113
-51
10
15
20
22
24
23
22
25
27
22
18
21
24
24
24
24
24
24
24
25
26
29
29
27
26
26
27
30
32
33
34
35
36
35
35
37
38
39
41
43
44
44
49
52
55
58
56
54
59
64
65
66
67
68
70
72
71
70
70
70
72
74
71
70
69
67
65
61
56
51
46
42
38
32
26
24
23
22
21
16
11
10
10
10
10
7
4
5
6
5
4
5
6
5
4
6
8
4
2
4
6
5
4
4
5
7
8
8
8
9
10
11
12
13
14
13
12
12
12
12
12
11
11
13
14
14
12
10
10
10
9
8
8
8
9
10
8
6
6
6
6
6
6
6
4
2
3
4
5
6
7
7
4
2
3
4
4
3
1
1
3
4
4
4
4
4
4
1
0
0
0
0
0
1
2
2
2
2
2
2
2
2
2
1
0
1
2
2
2
1
0
0
0
1
2
1
0
1
2
1
0
1
2
2
3
5
6
7
9
10
13
16
8
0
-5
-10
-13
-16
-17
-18
-20
-22
-26
-28
-28
-26
-18
-13
-10
-8
-7
-5
-2
0
1
1
-3
-4
-5
-5
-3
-2
-2
-2
-1
0
0
0
-1
-1
2
0
-2
-1
1
14
29
50
67
61
40
-25
-91
-156
-222
-288
-333
-346
-352
-346
-311
-246
-181
-116
-58
-4
17
19
21
23
24
24
24
25
26
26
26
27
28
27
26
26
27
28
29
30
31
32
30
28
30
32
33
34
34
34
34
35
38
40
40
40
43
45
47
48
49
50
50
52
56
59
61
64
67
68
67
67
69
71
73
72
69
70
72
69
66
67
68
65
62
58
54
50
45
41
37
30
25
22
20
19
18
17
15
12
9
7
6
7
8
7
6
5
4
5
5
3
2
2
1
-1
-1
1
2
2
3
4
5
6
4
2
5
8
9
10
9
8
9
10
10
10
12
13
10
8
8
8
8
9
12
11
6
5
7
8
7
6
7
7
5
4
3
2
3
4
4
2
0
0
0
1
2
1
0
-1
-2
-1
0
0
0
0
0
0
0
2
3
0
-2
-2
-2
-3
-4
-3
-1
1
1
-1
-2
-1
0
-1
-2
-3
-3
-1
-1
-3
-4
-4
-2
0
-1
-2
-4
-6
-5
-4
-2
0
-2
-4
-3
-2
-2
-2
-3
-4
-6
-7
-4
-2
-3
-3
-1
1
3
6
9
9
7
2
-4
-7
-9
-16
-23
-24
-24
-25
-28
-29
-30
-29
-28
-24
-20
-15
-10
-9
-8
-5
-2
-3
-5
-8
-9
-6
-4
-5
-6
-9
-10
-9
-7
-4
-3
-5
-8
-11
-11
-9
-8
-8
6
25
46
67
60
49
-14
48
-145
-211
-276
-335
-319
-305
-312
-306
-241
-176
-111
-54
-17
8
10
12
14
16
17
18
18
18
17
16
16
17
19
20
19
18
17
19
23
22
19
18
19
21
23
24
24
22
20
24
28
27
26
26
26
30
34
32
31
35
38
39
40
40
39
36
36
41
44
44
44
44
44
44
43
39
40
43
43
41
40
41
40
37
32
27
24
21
20
18
12
6
10
14
9
4
5
6
5
4
3
2
0
-2
-2
-2
-4
-5
-1
1
-4
-6
-5
-4
-3
-3
-5
-5
-3
-2
-3
-4
-3
-2
-1
1
3
4
5
3
6
-2
-2
1
4
4
4
5
6
5
4
4
4
4
3
0
-1
2
4
3
2
-1
-2
-1
-1
-3
-4
-3
-3
-5
-5
-3
-2
-3
-4
-3
-2
-3
-5
-7
-8
-7
-8
-10
-8
-6
-6
-6
-6
-6
-6
-6
-7
-8
-8
-8
-7
-6
-6
-6
-6
-6
-5
-5
-7
-8
-8
-8
-8
-8
-8
-9
-11
-9
-5
-4
-4
-6
-9
-9
-7
-6
-6
-6
-6
-6
-6
-6
-6
-3
0
1
2
4
6
5
3
-1
-6
-12
-17
-20
-22
-23
-24
-27
-28
-27
-27
-29
-26
-19
-13
-8
-6
-7
-7
-5
-4
-4
-4
-5
-6
-6
-7
-6
-7
-4
-5
-6
-6
-6
-6
-6
-5
-4
-3
-2
-3
3
25
44
55
56
41
2
-64
-129
-195
-260
-326
-332
-298
-279
-268
-219
-154
-89
-24
0
13
16
15
16
19
20
20
22
24
22
20
20
20
21
22
21
20
21
22
22
22
24
26
27
28
27
26
25
25
27
29
31
31
29
30
34
36
35
36
39
40
41
42
42
45
49
50
51
53
56
58
60
59
58
59
60
61
62
60
58
58
58
60
60
54
50
50
48
43
38
33
29
27
24
20
17
15
14
13
10
5
4
5
6
5
4
4
4
5
4
6
2
4
4
4
3
2
3
4
4
4
5
6
6
6
8
10
8
6
7
8
8
8
8
8
9
10
10
10
9
8
7
6
5
5
7
7
5
4
4
4
5
4
2
3
4
2
0
1
2
3
4
3
2
3
4
2
0
0
0
0
0
0
0
1
2
1
0
0
0
1
0
-3
-3
-1
-1
-3
-4
-3
-2
-2
-2
-2
-2
-4
-4
-4
-3
-2
-2
-2
-3
-4
-3
-2
-2
-2
-2
-2
-2
-2
-1
0
-1
-2
-1
0
1
1
-2
-3
-1
0
-1
-1
1
1
-1
-2
-2
2
7
8
9
10
10
13
14
5
-4
-8
-12
-15
-18
-19
-20
-22
-24
-26
-28
-26
-22
-16
-10
-5
-2
-5
-4
0
2
1
-1
-3
-4
-4
-4
-4
-4
-3
0
3
0
-5
-6
-5
-4
-3
-3
-4
-2
2
29
54
59
59
25
-16
-81
-147
-212
-278
-344
-380
-361
-324
-259
-194
-129
-69
-15
12
17
20
21
23
25
25
23
23
25
26
25
24
25
26
26
26
27
28
30
29
28
29
30
32
34
34
34
34
34
35
36
36
37
40
42
42
42
44
46
49
51
53
54
55
57
60
62
63
66
69
70
71
72
72
73
75
75
73
72
72
72
72
69
66
64
61
54
48
44
40
35
31
27
24
22
19
15
12
13
13
10
8
8
7
5
4
5
6
5
4
5
5
3
2
3
3
1
1
3
4
3
4
6
7
8
9
10
9
8
9
10
10
10
12
14
13
12
13
14
15
16
15
13
11
11
13
14
13
12
13
12
9
8
9
10
11
9
5
4
4
5
7
8
8
7
6
4
2
5
8
5
2
2
2
1
0
2
4
2
0
0
0
-1
-2
-2
-1
1
1
-1
-2
-3
-3
-1
0
0
-1
-3
-4
-4
-3
-1
0
0
0
0
-3
-4
-3
-2
-2
-2
-2
-2
-3
-4
-2
0
-1
-2
-1
0
-2
-4
-3
-2
-3
-4
-4
-4
-4
-3
-1
0
-1
-2
-2
-2
-2
-3
-5
-4
-1
1
3
4
4
9
14
6
-2
-5
-8
-14
-20
-21
-22
-22
-22
-25
-28
-29
-27
-18
-11
-8
-6
-5
-4
-4
-4
-3
-1
1
1
-3
-4
-4
-4
-3
-2
-1
0
0
-2
-5
-4
-1
0
-2
-2
-2
1
7
38
64
63
51
-4
-62
-127
-193
-258
-324
-390
-419
-391
-346
-281
-216
-151
-86
-21
10
17
21
23
24
24
24
25
26
26
26
26
27
29
29
27
26
26
29
30
29
28
28
28
30
32
33
34
35
36
37
38
39
40
41
42
43
45
48
50
51
53
55
56
57
60
63
65
67
68
69
72
75
76
77
78
78
78
78
77
76
74
72
72
72
67
62
56
52
48
43
37
32
28
25
22
20
18
16
16
15
13
12
12
11
8
6
6
6
6
6
7
7
5
4
4
6
9
7
3
3
6
8
10
7
4
7
10
11
12
12
12
12
12
12
13
16
17
14
12
13
14
13
12
13
14
14
13
11
10
10
11
13
12
9
8
9
7
3
4
7
7
8
5
6
5
4
3
2
4
6
3
0
1
2
2
2
4
5
1
-2
-1
0
0
0
0
0
-1
-2
-1
0
-1
-1
1
2
1
0
1
2
2
1
-1
-1
1
0
-2
-1
0
-1
-2
0
2
-1
-4
-2
0
1
2
0
-2
-1
0
1
1
-2
-3
-1
0
-1
-2
-2
-2
-3
-3
-1
0
-1
-2
-2
0
3
2
-1
0
3
5
8
11
14
15
16
9
2
-3
-8
-11
-14
-17
-20
-21
-22
-22
-22
-24
-24
-18
-13
-8
-5
-3
0
4
5
3
1
-1
-2
-1
1
3
2
-1
-2
-2
-2
-1
0
0
-3
-4
-1
2
2
3
10
21
50
72
69
48
-17
-83
-149
-214
-280
-345
-409
-426
-387
-335
-270
-205
-140
-76
-14
13
21
22
19
20
23
23
21
23
27
25
21
22
25
26
26
26
26
25
24
24
24
24
24
26
28
29
30
30
30
31
32
31
30
30
31
34
37
39
40
39
39
43
44
45
46
47
48
49
51
53
54
55
56
56
56
56
54
52
52
52
52
52
51
50
47
44
41
37
33
29
26
24
22
20
19
17
12
10
9
8
9
9
7
6
7
7
5
4
4
4
5
5
3
3
5
5
6
3
4
4
4
4
4
5
6
9
12
10
8
9
10
11
12
11
10
11
12
12
12
13
14
13
12
12
12
12
12
11
10
11
12
11
10
9
8
8
9
11
8
4
5
6
7
8
7
6
6
6
5
4
4
4
4
4
4
4
4
4
5
6
6
6
5
4
4
4
4
4
4
4
4
4
3
3
5
6
6
6
5
4
2
2
2
2
2
3
4
1
-2
1
4
3
2
1
0
0
0
0
0
1
2
2
2
2
2
2
2
3
3
1
0
1
2
3
4
4
6
9
10
10
14
10
17
14
7
0
-4
-8
-12
-16
-17
-18
-23
-26
-26
-25
-22
-19
-13
-8
-3
0
0
1
3
3
1
0
-1
-2
-1
0
1
2
1
0
-1
-2
-1
0
1
2
2
1
0
4
10
38
64
65
59
16
-32
-97
-163
-228
-294
-360
-395
-375
-336
-271
-206
-141
-77
-13
18
22
24
25
27
29
29
27
27
29
29
27
27
29
30
31
32
31
30
28
31
34
34
34
35
36
36
36
37
38
39
40
40
40
41
43
46
48
47
47
52
54
54
55
58
61
63
64
65
68
73
74
73
73
75
76
76
76
76
77
76
78
76
77
78
74
70
67
63
55
47
42
38
37
35
31
28
26
24
22
20
17
16
15
14
14
13
11
10
10
10
11
12
12
12
11
10
10
10
11
12
12
14
16
15
14
13
12
14
16
16
16
16
16
17
18
19
20
19
18
19
19
16
15
18
18
14
13
15
16
15
14
13
12
13
14
14
14
13
12
12
12
12
12
14
11
8
9
10
10
10
10
10
10
10
9
8
10
11
8
6
7
8
9
10
7
6
7
8
7
6
7
8
9
8
5
4
5
6
5
6
9
8
5
4
4
6
6
6
6
6
6
3
0
4
8
7
6
5
4
4
4
5
6
4
2
2
2
2
2
3
3
1
1
3
3
1
0
1
4
7
6
3
3
5
9
13
12
10
12
14
8
2
-3
-8
-10
-12
-16
-20
-21
-22
-23
-24
-23
-20
-14
-9
-6
-4
-4
-2
3
4
0
-2
-1
0
1
2
1
0
-1
-2
-2
-1
1
3
5
3
-2
-1
0
1
4
31
54
59
58
26
-14
-79
-145
-210
-276
-342
-375
-355
-318
-256
-193
-128
-68
-14
12
18
21
24
26
26
26
26
26
26
26
27
29
31
31
29
28
28
27
28
30
32
32
32
32
32
33
34
34
34
35
36
38
40
39
38
40
43
46
48
49
50
50
52
56
58
59
60
61
64
67
69
71
72
72
73
75
75
73
74
76
74
72
73
74
71
68
65
60
51
43
39
35
31
27
22
18
17
15
12
10
9
8
8
7
5
4
3
2
3
4
5
5
3
2
2
3
5
6
5
3
0
2
4
3
2
6
10
7
4
5
6
6
6
7
8
8
8
8
8
7
6
7
7
5
4
4
4
4
4
5
4
1
1
3
2
-1
0
3
2
-1
-2
-2
-3
-4
-4
-4
-2
0
-3
-6
-6
-6
-6
-6
-5
-4
-4
-4
-4
-4
-6
-8
-7
-6
-5
-5
-7
-8
-8
-8
-7
-7
-9
-9
-7
-6
-7
-8
-9
-9
-7
-7
-9
-9
-8
-7
-6
-8
-10
-11
-12
-11
-10
-9
-8
-10
-12
-8
-6
-7
-8
-10
-12
-10
-8
-9
-10
-9
-10
-14
-15
-11
-10
-9
-9
-11
-12
-11
-10
-11
-12
-12
-9
-5
-4
-4
-1
2
0
-2
-7
-13
-22
-30
-29
-29
-33
-36
-38
-40
-40
-39
-36
-34
-32
-28
-23
-19
-17
-14
-8
-8
-12
-14
-14
-15
-17
-16
-13
-13
-15
-16
-15
-14
-14
-14
-14
-13
-12
-15
-18
-11
0
28
52
51
40
-5
-56
-121
-187
-253
-318
-384
-406
-367
-316
-251
-186
-121
-68
-25
-3
6
10
10
9
7
7
9
10
9
9
11
12
11
10
11
12
12
13
14
12
10
12
14
15
16
16
16
16
16
16
16
17
18
18
18
19
21
23
24
25
27
29
30
29
29
31
33
35
36
36
36
35
34
35
37
39
41
44
40
36
35
34
34
34
33
32
29
25
18
12
12
11
8
6
4
2
0
-2
-3
-4
-3
-3
-5
-7
-9
-10
-10
-9
-7
-8
-11
-12
-12
-12
-11
-10
-10
-10
-10
-10
-8
-8
-8
-8
-8
-7
-6
-6
-6
-5
-4
-5
-6
-5
-4
-4
-4
-3
-2
-2
-2
-2
-2
-2
-3
-5
-6
-6
-6
-5
-4
-4
-4
-4
-4
-5
-5
-3
-3
-5
-6
-6
-7
-8
-6
-4
-5
-6
-8
-10
-8
-6
-6
-6
-7
-8
-9
-10
-10
-10
-8
-7
-9
-9
-7
-6
-7
-8
-7
-6
-6
-6
-7
-8
-7
-6
-7
-8
-8
-8
-8
-8
-6
-7
-8
-7
-6
-5
-4
-6
-8
-7
-6
-7
-8
-9
-9
-6
-5
-8
-9
-6
-4
-7
-8
-9
-9
-7
-6
-5
-4
-5
-6
-7
-5
1
2
2
4
7
3
-3
-5
-4
-14
-20
-22
-24
-24
-24
-28
-32
-33
-34
-29
-25
-21
-16
-10
-6
-7
-8
-7
-6
-5
-5
-7
-8
-8
-8
-8
-8
-9
-9
-7
-7
-9
-10
-9
-7
-5
-5
-7
4
17
38
58
52
41
-24
-90
-155
-221
-286
-338
-341
-343
-335
-310
-245
-180
-115
-58
-12
14
15
17
19
20
20
20
21
22
23
24
23
22
22
22
22
25
29
27
23
23
25
26
26
27
28
28
28
29
30
31
32
34
36
36
36
35
35
40
44
45
46
46
46
49
51
53
55
58
60
61
64
67
68
68
68
68
68
68
68
67
66
67
66
68
61
60
54
48
43
38
35
32
28
24
21
18
15
12
11
10
9
8
9
9
6
4
5
6
5
4
5
6
5
4
4
5
7
8
7
6
6
6
7
10
13
11
8
9
10
10
10
13
16
13
10
11
12
12
12
11
10
10
10
9
8
8
8
8
8
9
9
7
6
6
6
7
7
5
4
4
4
5
6
6
6
5
4
2
3
4
3
2
3
4
3
2
3
4
4
4
3
2
3
4
3
2
2
2
5
5
2
0
0
0
1
2
2
2
1
0
1
2
3
3
1
0
1
2
2
3
2
1
0
0
0
0
0
2
4
2
0
0
0
0
0
1
2
0
-2
-1
0
1
1
-1
-2
-2
-2
-2
-1
1
2
1
0
0
3
7
8
8
13
19
14
8
2
-4
-8
-12
-14
-16
-18
-20
-22
-24
-26
-27
-23
-19
-14
-9
-5
-1
2
3
1
0
1
1
-2
-3
1
2
1
0
-1
-1
1
2
2
2
3
2
-1
-2
0
11
23
47
68
61
44
-21
-87
-152
-218
-283
-333
-344
-348
-336
-303
-238
-173
-108
-51
-2
22
23
25
27
28
29
30
30
30
30
30
31
32
32
32
31
30
31
32
32
32
32
33
34
36
38
39
40
39
38
39
41
45
47
44
42
44
46
47
49
54
56
57
58
59
61
63
65
67
70
73
74
75
76
76
77
79
79
77
76
77
77
76
75
74
71
68
63
58
54
49
41
34
31
28
24
22
22
21
17
14
13
12
12
12
12
11
9
8
8
8
7
6
7
8
7
6
7
8
7
7
9
10
10
9
8
11
14
15
16
13
10
12
14
15
16
16
16
16
16
15
14
15
16
16
15
13
13
15
15
12
11
13
13
11
10
10
10
10
10
10
10
9
8
8
10
10
8
6
7
8
5
2
3
4
6
8
6
4
5
6
6
6
6
5
2
0
1
2
3
4
4
4
4
4
4
4
3
3
5
5
3
2
2
2
3
3
2
3
4
3
2
2
2
4
6
4
2
2
2
4
6
5
4
2
0
1
2
3
3
1
0
0
0
1
2
3
4
3
2
3
2
-1
2
7
8
9
10
12
12
12
6
0
-4
-8
-11
-14
-18
-22
-24
-26
-25
-24
-24
-22
-17
-11
-4
0
-1
-1
1
1
-1
-2
-2
-2
-1
0
0
0
0
-1
-3
-3
-1
0
-1
-1
-2
1
0
1
4
32
56
59
55
15
-31
-96
-162
-227
-293
-359
-391
-367
-325
-260
-195
-130
-71
-16
12
19
22
22
22
23
24
24
24
24
24
24
24
24
25
27
27
25
25
26
27
28
28
28
28
28
29
30
31
32
33
34
34
34
34
34
36
38
40
42
42
43
45
46
46
47
51
53
55
56
57
58
59
60
60
60
61
62
61
60
62
60
58
56
54
52
50
47
44
40
35
30
26
24
21
18
15
11
8
9
9
6
4
5
5
2
0
1
2
1
0
0
0
-1
-2
-2
-1
1
2
2
0
2
-1
2
4
6
5
4
3
2
2
2
5
7
3
1
6
9
6
5
9
12
12
10
5
2
2
2
3
4
4
4
3
2
2
2
3
4
4
4
3
2
1
2
4
1
-2
-2
-2
-3
-4
-4
-4
-3
-2
-1
0
-2
-4
-4
-4
-4
-4
-4
-4
-4
-4
-4
-4
-5
-6
-6
-5
-3
-2
-3
-4
-5
-6
-5
-5
-7
-8
-7
-6
-6
-8
-10
-10
-10
-9
-8
-6
-4
-5
-6
-8
-10
-9
-8
-9
-10
-9
-8
-8
-9
-12
-13
-10
-8
-9
-10
-9
-8
-8
-7
-5
-4
-3
-2
-2
3
9
2
-7
-11
-8
-19
-22
-23
-24
-27
-30
-32
-34
-35
-35
-29
-24
-21
-17
-13
-11
-14
-15
-11
-8
-11
-12
-13
-14
-13
-12
-13
-13
-11
-11
-13
-14
-13
-12
-12
-12
-11
-11
-13
0
15
42
68
49
27
-38
-104
-169
-235
-300
-342
-293
-262
-288
-286
-221
-156
-91
-42
-15
0
2
4
5
7
9
10
11
11
9
8
8
10
13
14
13
12
12
12
11
13
17
17
14
14
14
15
16
16
16
17
18
19
20
20
21
25
28
29
30
30
30
32
34
34
35
37
39
41
42
43
45
47
48
49
50
50
50
51
52
52
52
51
50
50
44
38
35
32
28
24
20
16
13
10
10
10
8
6
4
2
0
-2
-2
-2
-2
-2
-2
-2
-3
-4
-4
-4
-4
-4
-4
-4
-3
-2
-2
-2
-1
0
-1
0
3
3
2
2
2
1
0
1
2
2
2
2
2
3
4
0
-2
-1
0
-1
-2
-1
0
-1
-2
-1
-1
-3
-3
-1
-1
-3
-4
-3
-2
-2
-2
-3
-4
-4
-4
-4
-4
-4
-3
-2
-4
-6
-6
-6
-6
-6
-4
-2
-5
-8
-8
-8
-6
-4
-5
-6
-6
-6
-6
-6
-5
-4
-5
-6
-6
-6
-6
-6
-5
-5
-7
-8
-8
-8
-7
-6
-5
-5
-4
-7
-6
-6
-6
-6
-6
-6
-6
-5
-4
-3
-2
-5
-7
-4
-2
-4
-6
-5
-4
-5
-6
-5
-4
-3
-2
-2
-3
-5
-4
-1
1
3
4
4
6
9
4
-3
-8
-13
-18
-22
-23
-24
-26
-28
-29
-30
-31
-31
-25
-19
-14
-10
-6
-4
-5
-6
-4
-2
-3
-4
-5
-6
-5
-4
-4
-4
-5
-6
-6
-5
-3
-2
-2
-2
-2
-2
-2
21
47
53
60
23
-16
-81
-147
-212
-278
-343
-392
-372
-340
-275
-210
-145
-82
-24
13
17
20
21
22
22
22
23
24
24
24
23
24
27
28
27
26
26
26
27
28
27
26
27
28
28
30
30
31
32
34
36
36
36
37
38
39
40
42
44
46
48
50
52
54
56
57
59
62
64
65
67
69
71
73
74
74
74
74
74
73
72
73
74
73
68
63
59
56
51
46
41
36
32
28
22
18
17
16
14
12
10
8
7
6
6
6
7
7
5
4
4
4
5
6
6
6
7
6
3
3
5
6
7
8
9
9
7
8
12
11
10
11
12
11
10
13
16
17
18
16
14
12
10
11
12
13
14
12
10
7
7
9
10
11
11
8
6
7
8
7
6
6
6
5
4
3
2
3
4
4
4
4
3
2
3
4
3
2
3
4
3
2
4
6
4
2
2
2
1
0
1
2
2
2
1
0
1
2
2
2
2
2
2
1
-1
-1
1
2
1
0
0
0
0
1
2
1
0
-1
-2
-2
-2
0
2
1
0
1
1
-2
-4
-2
0
-1
-2
-1
0
0
0
0
1
3
6
9
10
11
12
12
7
1
-4
-9
-12
-15
-17
-20
-22
-24
-26
-28
-27
-26
-19
-13
-7
-2
-2
-2
-1
0
-1
-2
-1
0
-2
-4
-1
-1
-4
-5
-2
0
-1
-2
-2
-2
-1
0
0
2
5
30
59
62
62
16
62
-99
-165
-230
-296
-361
-414
-383
-346
-281
-216
-151
-88
-28
13
18
22
23
24
26
28
29
30
29
28
28
28
27
26
27
28
29
30
30
30
30
30
31
32
33
34
35
36
36
36
36
37
38
40
42
42
42
44
46
47
48
52
54
56
58
59
60
62
65
67
69
72
74
73
72
73
74
75
75
73
74
77
73
67
66
65
59
53
48
42
37
32
29
26
22
18
17
16
14
12
11
10
9
8
6
4
5
6
4
3
6
7
4
2
3
4
4
4
4
4
4
5
7
8
7
6
7
8
9
10
10
12
12
11
10
11
12
12
12
11
10
12
13
9
6
8
10
10
10
9
8
8
8
8
8
9
8
4
2
3
4
4
4
4
5
7
5
1
1
3
4
3
2
2
0
-2
1
4
2
0
0
0
1
2
0
-2
-1
0
0
0
-1
-2
-1
0
0
0
-1
-2
-1
0
0
0
1
1
-1
-2
-3
-3
-1
0
1
2
2
1
-2
0
2
-1
-4
-3
-2
-2
-2
-2
-2
-2
-2
-2
-2
-3
-4
-2
0
0
0
1
1
-1
0
6
9
11
12
12
7
-2
-5
-7
-12
-19
-21
-23
-24
-25
-26
-26
-27
-26
-21
-16
-12
-8
-5
-2
-2
-2
-1
0
-3
-6
-4
-2
-1
0
0
0
-1
-2
-1
0
-1
-2
-1
0
0
1
3
16
32
49
65
51
31
-30
-95
-161
-226
-292
-356
-329
-304
-291
-272
-207
-142
-77
-22
-3
12
14
17
21
23
20
19
22
24
23
22
23
24
24
24
24
24
24
24
25
25
23
24
27
27
25
26
29
30
29
28
28
30
32
31
30
33
36
37
38
37
36
39
42
43
44
45
47
50
51
48
46
49
50
50
50
50
49
47
46
46
46
46
43
39
37
35
34
33
30
27
22
26
14
12
12
12
10
8
6
4
5
6
5
4
5
5
2
0
0
0
1
2
1
0
1
2
1
0
1
2
1
1
3
4
5
6
6
6
6
6
6
6
7
8
8
8
8
8
8
9
10
8
6
7
8
7
6
5
4
3
2
3
4
4
4
4
4
4
4
3
2
3
4
3
2
1
0
0
0
0
0
1
2
2
1
-2
-2
-2
0
2
1
0
0
0
0
0
-1
-2
0
1
-2
-4
-2
0
0
0
0
0
0
0
-1
-2
-2
-2
-1
0
1
0
-3
-4
-3
-2
-1
0
0
0
0
-1
0
0
0
-1
-2
0
2
-2
-6
-1
2
0
-1
2
4
5
8
13
14
9
4
-1
-6
-12
-15
-17
-20
-24
-26
-26
-27
-29
-27
-23
-20
-17
-11
-5
-4
-4
-2
0
-1
-2
-2
-2
-2
-2
-2
-2
-2
-2
-3
-4
-3
-2
-2
-2
-1
0
-1
1
7
25
54
64
60
24
-31
-93
-158
-224
-289
-355
-420
-400
-361
-300
-235
-170
-105
-47
10
15
20
22
24
24
24
23
22
24
26
25
24
24
24
24
24
26
28
26
25
28
30
29
28
29
30
30
31
33
34
34
36
39
39
37
37
39
42
45
46
46
48
50
52
54
55
56
58
60
63
66
67
68
67
66
66
67
70
71
67
65
70
70
65
61
58
54
50
44
38
35
33
29
25
23
21
18
15
14
13
12
12
11
10
9
8
7
6
7
8
8
8
7
6
7
8
10
11
8
6
8
10
10
10
9
10
14
16
15
14
14
14
14
14
15
15
13
12
13
14
14
13
11
11
14
13
12
10
8
10
12
12
12
11
10
10
10
10
10
10
10
9
8
7
6
7
8
8
8
7
6
7
8
8
8
7
6
7
7
5
5
7
7
5
5
4
5
2
4
6
5
4
5
6
5
4
4
4
4
4
4
4
4
4
4
4
4
3
1
1
3
4
3
2
3
4
4
4
3
2
3
4
3
2
2
1
-1
-2
-2
1
4
3
2
3
4
3
2
5
8
10
12
14
14
8
3
0
-3
-7
-11
-13
-16
-20
-21
-19
-20
-24
-22
-16
-13
-11
-6
0
2
1
1
3
4
5
4
0
2
4
1
-2
2
6
4
2
4
6
3
0
2
4
4
6
13
30
57
70
65
28
-36
-101
-167
-232
-298
-348
-391
-383
-353
-297
-232
-167
-102
-43
14
22
25
26
26
25
26
28
30
29
28
26
24
24
24
27
30
30
30
30
30
29
28
30
32
31
32
37
38
32
32
36
38
39
40
41
42
43
44
44
46
49
50
51
52
53
59
64
60
56
61
66
64
62
64
66
66
66
66
66
65
64
62
60
59
57
54
49
43
38
34
30
26
23
19
18
17
15
13
10
7
6
6
6
5
4
4
4
2
3
4
3
2
3
4
3
2
1
0
1
2
2
2
0
-1
3
6
6
6
3
3
5
6
6
6
6
6
7
8
8
8
8
8
8
8
7
6
5
4
4
5
4
3
2
2
2
2
2
0
-2
-2
-2
1
4
2
0
1
2
0
-2
-2
-1
1
1
-1
-2
-1
0
-1
-2
-2
-2
-2
-2
-1
0
-1
-1
1
0
-3
-5
-6
-3
0
-2
-4
-3
-2
-3
-4
-4
-4
-2
0
-1
-2
-2
-2
-4
-5
-2
-1
-4
-6
-5
-4
-5
-5
-1
-2
-5
-6
-6
-5
-3
-2
-2
-4
-7
-4
1
1
-2
0
2
5
8
3
-2
-6
-10
-13
-16
-18
-22
-29
-33
-28
-25
-29
-30
-25
-22
-21
-19
-16
-13
-10
-7
-4
-5
-10
-10
-7
-7
-9
-10
-11
-10
-7
-8
-11
-10
-12
-8
-10
-12
-14
-12
-9
0
13
44
66
55
28
-37
-103
-169
-234
-300
-336
-331
-329
-332
-301
-236
-171
-106
-58
-21
-3
5
8
8
8
7
6
6
6
6
6
7
8
8
8
8
9
10
11
12
8
4
7
10
8
7
13
17
13
10
8
8
13
15
11
11
17
19
17
17
19
21
25
25
23
22
21
24
29
30
29
28
28
27
25
24
26
29
32
29
26
28
30
26
22
22
22
19
16
14
11
7
4
3
1
-2
-4
-3
-2
-3
-4
-3
-4
-8
-8
-5
-5
-7
-9
-11
-12
-13
-11
-7
-8
-11
-12
-12
-10
-8
-9
-10
-10
-10
-10
-10
-11
-12
-9
-6
-7
-4
9
12
-5
-15
-12
-9
-6
-4
-4
-4
-4
-5
-7
-8
-7
-7
-9
-10
-9
-8
-8
-8
-9
-10
-9
-8
-8
-10
-12
-11
-10
-10
-10
-9
-8
-8
-8
-7
-7
-11
-14
-13
-12
-11
-10
-10
-10
-9
-8
-9
-10
-10
-11
-13
-14
-13
-12
-11
-10
-11
-11
-9
-9
-11
-12
-11
-10
-9
-9
-12
-11
-10
-10
-10
-11
-12
-11
-10
-10
-10
-10
-10
-11
-11
-8
-6
-7
-8
-8
-7
-2
0
-1
-2
-2
1
7
5
-3
-9
-14
-16
-17
-21
-25
-27
-29
-30
-30
-31
-30
-27
-20
-15
-10
-10
-10
-8
-6
-7
-8
-7
-6
-7
-8
-7
-6
-7
-8
-8
-8
-7
-6
-6
-6
-6
-5
-3
-2
-3
17
48
53
49
18
-20
-81
-146
-212
-277
-343
-408
-367
-322
-257
-192
-127
-66
-28
4
10
14
14
14
16
18
18
19
22
23
20
18
19
20
19
19
21
22
22
22
23
22
19
22
28
28
25
25
27
28
28
28
28
29
32
32
32
36
40
38
36
39
42
42
42
45
48
50
52
53
54
55
56
58
60
63
63
61
60
61
62
62
62
61
60
59
53
46
44
43
38
33
30
27
22
26
15
14
15
16
13
10
10
10
8
6
11
14
11
8
7
6
6
6
8
10
9
8
8
8
8
9
12
13
11
10
11
12
13
14
14
14
14
14
13
13
15
14
12
12
12
12
12
11
10
10
10
10
10
10
10
9
8
8
8
8
8
8
8
7
6
7
8
8
8
8
7
5
5
7
7
5
4
5
6
7
8
7
6
6
5
4
5
6
6
6
7
8
7
6
5
4
7
9
6
4
4
4
6
8
7
6
6
6
6
6
5
5
7
8
8
8
7
6
5
5
7
8
8
8
8
6
6
8
10
7
4
6
8
5
3
8
12
12
12
14
16
17
16
10
5
2
-2
-6
-9
-12
-14
-15
-17
-19
-20
-20
-17
-12
-6
1
3
5
7
9
8
5
5
6
6
6
6
6
6
6
8
10
7
4
6
8
8
8
7
7
11
26
55
70
70
47
4
-52
-118
-183
-249
-315
-380
-383
-361
-306
-241
-176
-111
-49
13
24
31
32
30
31
32
34
36
37
38
37
36
36
36
35
34
36
38
38
38
38
38
38
38
39
41
43
44
43
42
43
44
45
47
49
51
53
54
54
55
57
59
61
63
62
68
70
72
74
76
78
80
82
81
80
81
82
83
84
84
84
82
80
80
79
74
71
69
63
54
48
44
40
36
33
31
28
25
24
23
20
17
16
16
15
13
15
18
16
14
13
12
13
14
14
14
13
12
12
12
14
16
16
16
16
16
16
16
17
18
18
18
19
20
21
22
21
20
21
22
22
22
21
20
19
18
18
18
20
19
18
17
16
18
20
17
14
13
12
14
16
14
12
13
14
13
12
11
10
9
9
11
12
11
10
9
9
11
11
9
8
8
8
8
8
7
7
9
10
10
9
10
9
8
7
6
8
10
8
6
6
6
6
6
7
8
7
6
5
4
5
6
6
6
5
4
3
3
5
6
5
4
5
4
1
0
1
2
2
2
3
4
4
4
4
6
8
10
12
14
16
13
9
3
-3
-8
-13
-16
-18
-18
-18
-20
-23
-25
-24
-20
-15
-10
-5
0
2
2
2
1
0
0
1
3
2
-1
-2
-2
-2
0
0
0
-1
-2
-2
-2
-1
0
1
3
8
19
46
64
64
41
-20
-82
-148
-213
-279
-344
-410
-418
-384
-330
-265
-200
-135
-70
-5
15
20
22
22
22
22
25
29
30
30
26
24
26
28
27
26
25
24
26
28
26
24
27
30
31
32
32
32
32
33
36
38
38
38
37
37
39
42
45
46
47
48
49
50
50
54
59
60
61
62
63
65
66
65
64
65
66
65
64
64
64
65
65
61
57
53
49
45
41
37
32
27
23
20
17
15
13
10
8
8
7
5
4
3
3
5
6
6
4
1
0
1
2
2
1
0
-2
-4
-1
2
2
2
4
6
5
4
3
3
7
10
8
6
7
8
8
8
9
10
10
9
7
7
9
9
7
7
9
8
5
4
5
7
9
6
10
2
4
2
0
2
4
2
0
2
4
3
2
0
-2
0
2
0
-2
-2
-2
-2
-2
-1
0
-1
-2
-3
-3
-1
0
-1
-2
-3
-4
-3
-2
-3
-4
-4
-4
-4
-3
-2
-3
-4
-4
-4
-3
-2
-3
-4
-5
-6
-5
-4
-4
-4
-4
-4
-4
-4
-3
-2
-3
-4
-4
-5
-7
-7
-5
-4
-5
-4
-1
-2
-5
-5
-3
-1
1
4
7
8
8
1
-6
-11
-16
-17
-18
-21
-24
-27
-30
-31
-32
-33
-32
-25
-19
-16
-14
-12
-10
-7
-7
-10
-11
-8
-6
-6
-7
-9
-10
-11
-10
-7
-6
-7
-9
-11
-10
-7
-6
-6
-8
-7
15
37
52
63
41
10
-55
-121
-186
-252
-317
-348
-303
-271
-260
-227
-162
-98
-35
-2
2
4
5
8
12
14
13
13
15
16
15
14
13
12
12
12
12
12
13
13
12
13
14
14
14
16
18
17
16
15
14
17
20
19
18
20
22
21
20
21
23
25
26
27
29
31
32
32
34
37
38
37
36
37
38
37
36
37
38
39
39
36
37
38
36
34
32
30
26
22
20
17
13
10
10
9
6
4
3
2
1
0
-1
-2
-3
-4
-4
-4
-3
-4
-7
-8
-8
-8
-7
-6
-6
-5
-3
-4
-7
-6
-8
-2
-2
-2
-2
-2
-2
-1
0
0
0
-1
-2
0
2
1
0
1
2
1
0
0
0
0
0
0
0
0
0
-1
-2
-2
-2
-3
-4
-4
-4
-4
-4
-3
-2
-3
-4
-4
-5
-6
-5
-4
-5
-6
-6
-6
-7
-8
-6
-4
-6
-8
-7
-6
-7
-8
-6
-5
-7
-8
-7
-6
-7
-8
-7
-6
-6
-7
-9
-10
-10
-9
-7
-6
-6
-6
-7
-8
-8
-7
-6
-6
-6
-7
-8
-8
-8
-7
-6
-7
-8
-7
-6
-6
-6
-5
-4
-5
-6
-3
-1
1
3
6
7
4
-2
-8
-12
-15
-18
-21
-23
-25
-26
-27
-30
-33
-34
-34
-27
-22
-16
-10
-9
-8
-7
-6
-7
-8
-7
-6
-8
-10
-9
-8
-8
-8
-8
-8
-7
-6
-7
-8
-8
-8
-7
-6
-5
15
43
51
53
31
1
-59
-124
-190
-255
-321
-386
-364
-338
-273
-208
-143
-81
-36
3
11
18
16
14
16
18
18
18
19
20
20
20
21
22
21
20
21
22
22
22
22
22
23
24
24
25
27
28
27
27
29
31
33
34
36
36
36
37
38
40
42
45
48
48
49
53
56
58
60
61
62
63
65
68
70
70
70
69
68
68
67
65
64
64
63
61
57
51
48
45
38
31
28
25
21
24
16
16
12
8
8
8
6
4
4
4
4
4
4
4
2
0
2
4
5
5
2
1
3
4
5
6
7
8
7
7
9
10
10
10
10
10
10
10
10
10
11
11
10
11
12
11
10
11
12
9
6
6
6
7
8
8
8
6
4
5
6
5
4
5
6
5
4
4
4
3
2
3
4
3
2
3
3
1
0
0
2
5
4
0
1
2
2
2
3
4
4
4
3
2
4
6
7
7
2
-2
0
2
2
2
2
2
2
2
2
2
3
4
3
2
2
2
2
2
1
1
3
3
1
0
0
2
2
2
2
0
-2
0
2
3
4
3
2
3
5
8
10
10
11
15
15
8
2
-3
-7
-9
-11
-14
-16
-17
-18
-19
-21
-23
-20
-13
-9
-5
-2
1
2
3
4
4
5
6
4
2
3
4
5
6
5
4
4
4
5
6
5
4
4
4
4
11
27
44
64
69
64
21
-45
-111
-176
-242
-307
-330
-342
-336
-326
-268
-203
-138
-73
-23
26
26
26
27
28
30
32
33
34
33
32
31
30
30
31
34
36
34
32
31
30
33
34
35
36
36
36
37
39
41
42
41
40
41
42
43
47
51
52
53
54
54
57
58
63
68
68
68
70
72
76
80
79
78
79
80
80
80
79
78
79
80
80
79
77
73
67
62
58
54
50
44
38
33
29
28
27
24
21
20
19
18
18
16
14
14
14
13
12
12
12
13
14
13
12
11
10
12
13
10
9
13
16
15
14
15
16
17
18
17
16
17
18
18
19
21
21
19
18
19
20
20
20
20
19
16
15
14
15
16
15
14
15
16
14
12
11
10
11
12
10
8
9
10
12
13
8
7
9
9
7
6
7
8
7
8
11
11
9
8
7
6
7
8
8
8
8
8
8
7
6
6
6
7
8
7
6
4
2
2
2
4
6
7
8
6
4
3
2
3
3
1
1
3
4
3
2
3
4
3
2
2
2
2
1
-1
-1
1
2
2
1
0
1
2
3
4
6
8
8
9
15
18
11
4
-2
-7
-10
-12
-14
-17
-20
-23
-26
-29
-31
-26
-16
-12
-11
-7
-3
-2
-2
-2
-1
0
0
-2
-5
-6
-4
-2
0
-2
-4
-4
-4
-4
-4
-2
0
0
0
-2
0
13
31
56
67
60
25
-41
-106
-172
-237
-303
-336
-349
-354
-355
-310
-245
-180
-115
-57
0
10
13
14
15
18
16
20
18
19
20
20
20
21
22
22
22
21
20
22
24
25
25
22
20
22
24
27
27
24
22
23
24
24
26
30
30
26
25
27
30
33
34
35
36
37
38
38
40
42
43
44
45
46
46
46
48
50
48
46
44
42
41
40
41
41
38
36
34
29
22
18
19
17
12
9
7
4
1
0
1
1
-1
-2
-1
-1
-3
-4
-4
-4
-4
-6
-8
-8
-8
-8
-8
-6
-4
-5
-6
-6
-6
-7
-7
-4
-2
-1
0
-1
-2
1
1
-2
-2
2
2
-2
-3
-1
0
-1
-2
-3
-2
1
-2
-7
-7
-5
-4
-4
-6
-6
-7
-8
-7
-6
-7
-8
-7
-6
-8
-10
-9
-9
-14
-17
-14
-12
-14
-16
-17
-17
-15
-14
-14
-14
-13
-14
-17
-17
-15
-14
-15
-16
-15
-14
-14
-15
-17
-18
-17
-16
-16
-16
-16
-16
-16
-15
-14
-15
-16
-16
-16
-16
-16
-14
-12
-13
-14
-16
-18
-17
-15
-13
-13
-15
-16
-15
-14
-14
-14
-13
-12
-12
-12
-13
-11
-7
-6
-6
-3
1
-2
-8
-14
-20
-21
-22
-25
-28
-31
-34
-34
-34
-36
-37
-33
-29
-25
-21
-17
-14
-12
-10
-10
-10
-11
-12
-12
-12
-12
-12
-12
-12
-12
-12
-12
-11
-9
-9
-11
-13
-15
-15
-16
-6
1
28
54
49
38
-12
-64
-129
-195
-260
-326
-391
-423
-381
-330
-265
-200
-135
-76
-25
3
9
12
12
13
15
16
16
16
17
18
17
16
17
18
17
16
17
18
19
20
20
21
22
23
24
23
22
23
24
24
24
25
26
27
28
28
29
32
34
35
36
37
39
41
43
45
47
49
51
53
54
55
57
59
60
59
59
61
62
61
60
60
60
60
55
50
48
46
41
35
30
26
24
21
17
14
12
10
9
8
7
6
5
3
1
0
1
2
1
2
5
4
-1
-2
-1
0
0
0
1
2
2
3
2
6
6
6
6
8
10
7
4
6
8
8
8
8
8
7
6
6
6
6
6
6
6
6
6
5
4
4
4
3
2
1
0
1
2
3
4
4
3
1
0
1
2
2
1
0
-1
-2
-2
-2
0
2
0
-2
-2
-2
0
2
3
4
5
5
1
-1
1
2
3
3
0
-1
1
2
2
2
2
2
1
0
0
1
3
3
1
0
2
1
0
1
2
1
0
0
0
0
0
0
0
0
0
0
0
0
0
-1
-1
2
2
-2
-3
-1
1
3
6
9
11
13
9
2
-2
-5
-9
-13
-16
-19
-20
-20
-23
-24
-27
-30
-23
-16
-12
-8
-5
-2
0
2
1
0
0
0
-2
-4
-2
0
0
0
-1
-2
-2
-2
-1
0
0
0
-1
-2
-1
18
42
53
62
47
28
-35
-100
-166
-232
-297
-358
-347
-333
-286
-235
-170
-105
-40
9
17
22
22
22
24
26
26
26
28
30
29
29
31
31
29
28
29
30
30
30
31
32
33
34
34
34
35
36
36
36
38
40
42
43
44
45
46
47
48
50
52
53
54
57
60
61
63
66
68
70
73
76
77
74
73
76
78
77
76
77
78
78
78
77
74
71
66
61
56
51
46
50
36
32
29
26
23
20
19
18
16
14
13
12
12
12
11
10
10
10
11
12
9
8
8
8
7
7
9
10
11
12
11
10
11
12
12
13
15
16
15
14
13
13
14
15
16
17
18
16
14
15
16
17
18
17
16
16
16
14
12
13
14
13
12
11
10
10
10
9
8
9
9
7
7
9
10
9
8
8
8
8
8
7
6
6
7
8
6
4
4
4
5
6
5
4
3
2
3
4
6
7
4
2
3
3
0
-1
1
2
2
2
1
0
1
2
2
2
1
0
-1
-2
-1
0
1
2
2
-1
-2
0
2
1
0
1
2
1
0
0
0
1
2
2
2
3
4
4
4
5
9
15
16
10
7
4
-2
-8
-12
-16
-18
-19
-21
-23
-25
-27
-27
-25
-18
-11
-7
-4
-2
0
1
2
0
-2
-2
-2
-1
0
-1
-2
-2
-2
-1
0
0
0
-1
-2
-2
-2
-1
1
3
23
52
62
63
34
-8
-69
-134
-200
-265
-331
-396
-379
-353
-290
-224
-159
-95
-42
6
13
20
19
18
21
24
23
22
23
24
24
24
24
24
24
24
24
24
25
26
26
26
25
24
25
26
27
28
28
28
28
30
33
32
29
31
28
34
32
36
40
41
42
42
42
46
50
48
46
49
52
53
54
53
52
53
54
53
52
52
52
51
49
47
46
45
42
39
35
31
28
25
22
19
16
13
12
12
11
10
7
4
3
2
2
2
1
0
0
0
-1
-2
-3
-4
-3
-2
-2
-2
-2
-1
1
1
-1
-2
-1
0
1
2
2
2
2
3
5
6
5
5
7
8
8
7
4
6
8
7
6
6
6
6
6
6
6
4
2
3
4
2
0
0
0
1
2
1
0
1
2
1
0
0
0
1
1
-1
-1
1
2
1
0
-1
-2
-3
-4
-4
-2
0
-2
-4
-4
-4
-3
-2
-1
0
-1
-2
-2
-2
-1
0
-2
-4
-3
-2
-3
-3
-1
0
1
0
-4
-6
-5
-4
-3
-2
-1
0
-1
-3
-5
-6
-5
-3
-1
-1
-2
-4
-6
-3
0
-1
-2
-3
-4
-4
-3
1
4
6
8
8
8
10
9
2
-4
-8
-11
-13
-17
-22
-24
-25
-26
-26
-26
-26
-22
-17
-11
-5
-4
-3
-2
-1
0
0
-1
-2
-1
0
-1
-2
-3
-4
-2
0
-1
-2
-2
-2
-2
-2
-2
-1
2
16
42
55
58
38
-1
-56
-122
-188
-253
-319
-384
-381
-355
-298
-233
-168
-103
-46
9
17
12
25
26
26
26
27
28
27
26
26
26
28
30
29
28
29
30
29
28
28
28
29
30
31
32
32
32
32
33
35
36
37
38
37
37
39
41
43
44
44
45
47
50
52
55
58
58
58
60
62
64
66
67
68
69
70
69
68
68
68
66
64
64
64
63
60
56
51
46
41
36
33
31
27
23
21
19
17
15
13
11
10
10
10
12
9
6
7
8
7
6
6
6
5
4
6
8
7
6
7
8
8
8
9
10
11
10
6
6
12
13
11
10
11
12
13
13
11
10
10
10
11
12
12
10
12
8
10
9
8
7
6
4
2
3
4
6
8
6
4
3
2
2
2
3
4
4
4
3
2
2
2
3
4
4
2
-1
-1
1
2
3
3
1
0
0
1
3
3
2
2
2
2
2
2
2
2
2
2
2
1
0
1
2
2
2
2
2
1
0
1
2
3
3
1
0
0
0
0
0
0
0
0
0
1
2
1
0
1
2
2
1
0
1
2
1
0
2
4
2
0
3
6
6
7
10
12
14
13
6
0
-5
-9
-12
-15
-18
-21
-23
-24
-25
-26
-25
-21
-17
-11
-4
-2
-2
-1
1
2
2
-1
-2
-1
0
1
2
0
-2
0
2
0
-2
0
2
2
2
1
1
4
14
31
47
63
60
42
-5
-71
-137
-202
-268
-333
-344
-334
-298
-255
-194
-129
-64
1
12
19
22
24
25
26
25
24
25
26
27
28
28
28
27
26
26
26
28
30
30
30
31
32
31
31
33
35
37
38
38
37
35
35
37
39
41
42
43
44
44
46
49
50
52
53
54
56
58
60
62
64
66
65
64
66
68
68
68
67
66
65
64
63
62
61
59
56
50
43
38
34
30
27
25
23
22
21
17
13
12
12
11
9
7
8
6
8
6
4
5
6
6
6
3
0
2
4
5
6
5
4
4
4
6
8
7
6
6
6
7
8
9
10
11
12
11
11
13
13
11
11
13
12
9
8
8
10
12
11
10
8
6
7
8
8
8
7
6
7
8
6
4
5
6
6
6
4
2
3
3
0
-1
2
4
3
2
2
1
-1
-2
-1
0
-1
0
3
4
3
2
0
1
2
0
-2
-1
0
-1
-2
-1
0
0
0
-1
-2
-3
-4
-3
-2
-3
-4
-5
-5
-2
-1
-3
-4
-3
-2
-3
-4
-4
-3
-1
-2
-5
-6
-6
-6
-6
-5
-6
-3
-4
-3
-2
0
2
2
2
8
11
2
-4
-6
-10
-17
-22
-22
-22
-23
-25
-28
-31
-33
-30
-23
-19
-16
-13
-11
-9
-7
-6
-5
-4
-5
-6
-7
-8
-8
-8
-7
-7
-8
-8
-8
-6
-4
-5
-6
-8
-10
-7
-2
8
25
57
73
58
22
-44
-109
-175
-240
-306
-335
-333
-334
-338
-299
-234
-169
-104
-54
-10
4
9
12
15
14
11
10
10
10
10
12
14
12
10
10
10
12
14
17
20
17
14
15
16
17
18
17
16
17
18
17
16
16
17
19
20
20
20
20
21
23
25
27
28
27
27
29
30
31
32
32
34
34
32
30
32
34
34
34
33
32
31
30
31
31
27
24
22
19
15
11
8
6
7
7
4
1
-1
-2
-3
-4
-4
-4
-4
-4
-5
-6
-6
-6
-6
-6
-7
-7
-6
-6
-6
-6
-6
-6
-6
-6
-6
-5
-4
-3
-2
-3
-4
-4
-4
-2
0
1
2
1
0
1
2
2
2
1
0
0
0
-1
-2
-1
0
-1
-2
-1
0
-1
-3
-6
-4
-2
-3
-4
-5
-6
-4
-2
-5
-8
-7
-6
-7
-8
-6
-4
-6
-8
-6
-4
-5
-6
-7
-8
-7
-6
-5
-5
-7
-8
-7
-6
-6
-6
-6
-6
-7
-7
-5
-5
-4
-7
-6
-7
-8
-7
-6
-7
-8
-8
-8
-9
-10
-9
-8
-8
-8
-8
-8
-7
-6
-7
-7
-5
-5
-7
-8
-8
-7
-5
-4
-5
-5
-3
-1
1
5
9
5
-1
-5
-9
-16
-22
-22
-22
-23
-24
-28
-32
-35
-37
-30
-24
-21
-17
-10
-6
-7
-8
-7
-6
-5
-5
-7
-8
-8
-8
-8
-8
-7
-6
-7
-8
-7
-6
-6
-6
-6
-6
-6
2
11
38
66
60
50
-15
-81
-146
-212
-277
-333
-352
-363
-349
-319
-254
-189
-124
-65
-16
12
13
14
15
16
17
18
18
18
19
20
20
19
17
18
21
22
22
22
21
20
21
22
22
25
26
28
30
29
28
29
30
31
32
32
32
