-27
-25
-25
-25
-25
-24
-23
-23
-23
-24
-25
-25
-25
-23
-21
-22
-23
-22
-21
-21
-21
-22
-23
-23
-23
-23
-23
-23
-23
-22
-21
-21
-21
-21
-21
-21
-21
-20
-19
-20
-21
-21
-21
-21
-20
-19
-19
-19
-19
-19
-19
-19
-19
-19
-19
-19
-20
-21
-20
-19
-18
-17
-17
-17
-17
-17
-17
-17
-17
-17
-16
-15
-15
-15
-15
-12
-8
-7
-6
-5
-4
-2
0
1
1
2
3
4
5
6
7
5
3
2
1
0
-2
-8
-13
-15
-17
-18
-19
-20
-21
-21
-21
-20
-19
-19
-19
-19
-19
-19
-19
-18
-17
-17
-17
-17
-16
-14
-11
-8
1
-7
39
69
131
189
210
226
201
170
110
52
4
-31
-34
-34
-23
-15
-14
-13
-15
-17
-20
-21
-21
-22
-24
-25
-24
-23
-22
-21
-21
-21
-21
-21
-21
-21
-21
-21
-20
-19
-19
-19
-19
-17
-15
-15
-15
-14
-13
-11
-9
-9
-9
-7
-5
-3
-1
-1
0
3
6
10
14
17
20
23
27
31
34
38
41
45
48
50
54
58
61
64
66
68
69
70
71
71
69
67
64
61
54
47
42
36
30
23
15
8
4
-1
-7
-12
-16
-19
-20
-22
-27
-29
-29
-29
-30
-31
-31
-31
-31
-31
-32
-33
-32
-31
-31
-32
-34
-34
-32
-31
-31
-31
-31
-30
-29
-30
-31
-31
-31
-31
-31
-32
-33
-32
-31
-30
-29
-29
-29
-29
-29
-29
-29
-30
-31
-31
-31
-31
-31
-31
-31
-31
-31
-32
-33
-32
-31
-31
-31
-32
-33
-32
-32
-33
-32
-31
-31
-31
-31
-31
-31
-31
-31
-31
-31
-31
-32
-33
-32
-31
-31
-31
-30
-29
-29
-29
-30
-31
-30
-29
-29
-29
-30
-31
-30
-29
-29
-29
-28
-27
-27
-27
-27
-27
-27
-27
-27
-28
-29
-28
-27
-27
-27
-26
-25
-25
-25
-25
-25
-25
-25
-25
-25
-25
-25
-25
-25
-25
-25
-24
-23
-23
-23
-23
-23
-23
-23
-23
-24
-26
-27
-26
-25
-24
-23
-23
-21
-21
-22
-23
-23
-23
-22
-21
-22
-23
-22
-21
-21
-21
-21
-21
-20
-19
-20
-21
-21
-21
-21
-21
-22
-23
-22
-21
-20
-19
-18
-15
-12
-11
-10
-9
-9
-8
-6
-5
-5
-5
-5
-1
3
3
3
2
1
-2
-5
-7
-10
-15
-19
-23
-25
-25
-25
-25
-25
-24
-23
-23
-23
-24
-25
-25
-25
-24
-23
-24
-25
-24
-22
-20
-18
-16
-13
-10
0
10
41
74
138
200
219
235
210
180
118
59
5
-35
-36
-35
-26
-19
-19
-19
-21
-24
-27
-29
-29
-29
-29
-29
-28
-27
-27
-28
-30
-31
-30
-29
-28
-27
-28
-29
-28
-27
-26
-25
-25
-22
-21
-21
-21
-20
-19
-18
-17
-16
-15
-14
-13
-10
-7
-5
-2
1
3
5
8
11
14
17
20
22
25
29
33
37
41
45
49
52
54
56
59
62
63
64
64
62
59
57
53
49
44
39
33
26
19
12
6
0
-5
-10
-15
-19
-21
-23
-25
-27
-29
-31
-32
-33
-33
-33
-34
-35
-35
-35
-35
-35
-36
-37
-37
-37
-36
-35
-35
-35
-34
-33
-33
-33
-33
-33
-33
-35
-37
-35
-33
-33
-33
-33
-33
-32
-31
-31
-31
-31
-31
-31
-31
-34
-35
-34
-33
-33
-33
-33
-33
-32
-31
-32
-33
-34
-35
-34
-34
-36
-37
-36
-35
-35
-33
-33
-33
-33
-33
-33
-33
-33
-32
-31
-33
-35
-33
-31
-31
-31
-31
-31
-31
-31
-31
-31
-31
-31
-30
-29
-30
-31
-30
-29
-29
-29
-29
-29
-29
-29
-28
-27
-27
-27
-27
-28
-29
-28
-27
-27
-27
-26
-25
-25
-25
-25
-25
-25
-25
-25
-25
-24
-23
-23
-23
-23
-23
-23
-23
-23
-23
-23
-23
-23
-23
-22
-21
-22
-23
-22
-21
-21
-21
-21
-21
-21
-21
-21
-20
-19
-21
-23
-22
-21
-20
-19
-19
-19
-18
-17
-18
-19
-19
-19
-18
-17
-19
-21
-18
-17
-17
-17
-17
-17
-16
-15
-15
-13
-8
-7
-6
-5
-6
-5
-2
-1
0
1
1
4
7
7
7
7
7
4
1
-1
-3
-5
-8
-12
-15
-16
-17
-17
-17
-18
-19
-19
-19
-19
-19
-20
-21
-21
-21
-20
-19
-19
-19
-18
-16
-14
-11
-8
-5
-2
14
30
76
122
179
231
237
239
201
159
95
36
-6
-36
-32
-27
-19
-13
-15
-17
-18
-19
-21
-23
-23
-23
-23
-23
-24
-25
-25
-25
-25
-25
-26
-26
-24
-23
-23
-23
-23
-22
-20
-19
-19
-19
-19
-18
-17
-17
-17
-15
-13
-12
-11
-9
-7
-5
-3
-1
2
5
7
9
11
14
17
22
26
29
33
37
42
47
50
52
55
58
61
64
65
66
68
70
71
71
66
63
59
55
48
40
33
26
18
10
4
-2
-6
-10
-14
-17
-19
-22
-25
-27
-27
-27
-28
-30
-32
-33
-33
-33
-32
-31
-31
-31
-30
-29
-30
-31
-30
-29
-29
-29
-29
-29
-29
-29
-29
-29
-29
-29
-29
-29
-29
-28
-27
-27
-27
-28
-29
-29
-29
-29
-29
-29
-29
-28
-27
-28
-29
-30
-31
-30
-29
-30
-31
-31
-31
-30
-29
-29
-29
-28
-27
-28
-29
-31
-31
-31
-31
-31
-31
-31
-30
-29
-29
-29
-28
-27
-28
-29
-29
-29
-28
-27
-28
-29
-29
-29
-28
-27
-27
-26
-24
-24
-26
-27
-26
-25
-25
-25
-26
-27
-26
-25
-24
-23
-23
-24
-23
-23
-23
-23
-23
-22
-21
-23
-25
-24
-23
-22
-21
-21
-21
-20
-19
-20
-21
-21
-21
-20
-19
-20
-21
-21
-21
-20
-19
-19
-19
-18
-17
-18
-19
-18
-17
-17
-17
-18
-19
-19
-18
-17
-17
-17
-17
-17
-16
-15
-15
-15
-16
-17
-17
-17
-17
-17
-15
-12
-9
-7
-6
-5
-5
-4
-1
1
1
1
2
4
6
7
8
8
6
4
2
0
-2
-7
-13
-15
-17
-19
-21
-21
-21
-20
-19
-19
-19
-19
-19
-19
-19
-19
-19
-19
-19
-18
-17
-17
-16
-13
-10
-8
0
11
37
71
125
186
208
219
194
160
106
49
4
-40
-38
-43
-22
-13
-14
-15
-17
-19
-20
-21
-23
-25
-24
-23
-23
-23
-22
-21
-21
-21
-22
-23
-23
-23
-22
-21
-21
-21
-20
-19
-18
-17
-16
-15
-14
-13
-12
-11
-10
-8
-6
-5
-5
-2
1
3
5
8
11
14
17
20
23
26
30
34
37
41
44
48
51
53
56
60
64
66
67
68
69
69
69
68
65
62
58
53
46
39
32
24
17
10
4
-2
-7
-13
-17
-21
-24
-27
-29
-31
-33
-35
-35
-35
-35
-35
-36
-37
-37
-37
-37
-37
-38
-39
-38
-37
-37
-37
-36
-35
-36
-37
-36
-35
-35
-35
-36
-37
-36
-35
-36
-37
-36
-35
-35
-35
-35
-34
-33
-34
-35
-36
-37
-37
-37
-37
-37
-37
-37
-38
-39
-38
-37
-37
-37
-38
-39
-39
-39
-39
-39
-40
-41
-40
-39
-39
-39
-39
-39
-39
-39
-38
-37
-37
-37
-38
-39
-39
-38
-37
-37
-37
-36
-35
-36
-37
-37
-37
-36
-35
-36
-37
-37
-37
-36
-35
-35
-35
-34
-33
-34
-35
-34
-33
-33
-33
-34
-35
-34
-33
-33
-33
-32
-31
-31
-31
-32
-33
-31
-30
-29
-31
-33
-32
-31
-31
-31
-30
-29
-29
-29
-29
-29
-29
-29
-29
-29
-29
-29
-29
-29
-28
-27
-27
-27
-27
-27
-27
-27
-27
-27
-26
-25
-26
-27
-27
-27
-26
-24
-25
-18
-15
-14
-13
-13
-13
-11
-9
-9
-9
-8
-7
-4
-1
0
0
-3
-5
-6
-7
-10
-13
-18
-22
-25
-27
-27
-27
-27
-27
-26
-25
-25
-25
-25
-25
-25
-25
-25
-25
-25
-24
-23
-22
-21
-17
-13
-9
-2
17
44
97
150
200
235
231
213
165
111
45
-4
-35
-45
-32
-24
-21
-19
-20
-21
-22
-24
-26
-27
-27
-27
-27
-27
-27
-27
-26
-25
-25
-25
-27
-25
-23
-24
-25
-24
-23
-22
-21
-20
-19
-18
-17
-17
-17
-16
-15
-13
-11
-11
-11
-8
-6
-4
-2
1
4
7
10
12
15
18
22
26
30
34
37
40
44
48
52
49
60
63
65
67
68
69
70
71
69
67
64
60
56
51
44
37
30
23
17
11
4
-1
-6
-11
-17
-19
-20
-22
-24
-25
-26
-27
-27
-27
-28
-29
-29
-29
-29
-29
-30
-30
-29
-28
-27
-26
-25
-25
-25
-26
-27
-27
-27
-26
-25
-26
-27
-27
-27
-26
-25
-24
-23
-23
-23
-24
-25
-25
-25
-24
-24
-26
-27
-26
-25
-25
-25
-25
-25
-24
-23
-24
-25
-25
-25
-25
-27
-29
-28
-27
-26
-25
-25
-25
-24
-23
-24
-25
-25
-25
-24
-23
-25
-27
-26
-25
-24
-23
-23
-23
-22
-21
-22
-23
-22
-21
-21
-22
-24
-25
-24
-23
-22
-21
-21
-20
-19
-20
-21
-21
-21
-20
-19
-21
-23
-22
-21
-20
-19
-18
-17
-17
-17
-18
-19
-18
-17
-17
-17
-18
-19
-18
-17
-17
-17
-16
-15
-15
-15
-15
-15
-14
-13
-14
-15
-16
-16
-15
-14
-13
-13
-13
-13
-13
-14
-15
-14
-13
-12
-11
-13
-15
-14
-13
-12
-11
-11
-11
-10
-9
-10
-11
-11
-11
-10
-9
-9
-7
-4
-2
0
1
2
4
6
7
8
9
9
12
15
13
11
10
9
8
7
4
0
-4
-7
-10
-13
-13
-13
-13
-13
-14
-15
-15
-15
-14
-13
-13
-13
-12
-11
-12
-13
-12
-10
-8
-6
-4
1
6
30
55
115
57
215
253
245
233
184
132
68
10
-20
-40
-26
-14
-10
-7
-8
-9
-11
-13
-15
-17
-17
-17
-17
-18
-20
-21
-20
-19
-18
-17
-17
-17
-16
-15
-15
-15
-15
-15
-15
-15
-14
-13
-13
-12
-11
-9
-7
-6
-5
-4
-3
-2
-1
1
3
5
7
8
10
14
18
21
25
29
32
35
38
41
45
49
54
59
61
62
66
70
72
74
75
76
77
77
76
73
68
63
58
53
44
37
30
24
17
10
6
2
-2
-6
-9
-12
-15
-17
-18
-19
-22
-23
-22
-21
-22
-23
-23
-23
-23
-23
-23
-23
-23
-23
-23
-23
-23
-23
-23
-23
-23
-21
-21
-21
-21
-21
-21
-21
-21
-21
-21
-22
-23
-22
-21
-21
-21
-21
-21
-21
-21
-22
-23
-23
-23
-23
-23
-24
-25
-24
-23
-23
-23
-23
-23
-24
-25
-24
-23
-23
-23
-24
-25
-25
-24
-23
-23
-23
-22
-21
-22
-23
-23
-23
-23
-23
-24
-25
-24
-23
-23
-23
-22
-21
-20
-20
-22
-23
-22
-21
-21
-21
-22
-23
-22
-21
-20
-19
-19
-19
-18
-17
-18
-19
-19
-18
-17
-19
-21
-19
-17
-17
-17
-17
-17
-16
-15
-16
-17
-17
-17
-16
-15
-17
-19
-18
-17
-16
-15
-15
-15
-14
-13
-14
-15
-15
-15
-14
-13
-14
-15
-14
-13
-13
-13
-13
-13
-13
-14
-15
-14
-13
-13
-13
-14
-15
-14
-13
-13
-13
-12
-10
-7
-5
-3
-1
-2
-2
0
1
2
3
3
5
8
10
12
13
12
10
8
7
6
2
-2
-6
-10
-13
-15
-15
-15
-15
-15
-15
-15
-15
-15
-15
-15
-15
-15
-15
-15
-15
-15
-13
-11
-10
-8
-5
-1
4
19
41
81
133
178
221
226
216
177
130
74
17
-14
-40
-30
-16
-13
-9
-11
-13
-15
-17
-17
-17
-18
-19
-18
-17
-17
-17
-18
-19
-18
-17
-16
-15
-17
-19
-16
-15
-14
-13
-12
-11
-10
-9
-9
-9
-8
-7
-6
-5
-4
-2
0
2
4
6
5
12
15
18
21
24
27
31
35
37
40
45
49
52
56
59
62
66
70
73
75
76
77
78
78
75
72
69
65
61
54
46
40
35
28
21
13
6
2
-2
-7
-12
-15
-17
-19
-21
-23
-25
-24
-23
-25
-27
-28
-29
-28
-27
-28
-29
-29
-29
-28
-27
-26
-25
-25
-25
-26
-27
-26
-25
-25
-25
-26
-27
-26
-25
-24
-23
-23
-23
-23
-23
-24
-25
-25
-25
-25
-26
-27
-27
-27
-27
-27
-27
-27
-26
-25
-26
-27
-27
-27
-28
-29
-29
-29
-29
-29
-28
-27
-27
-27
-27
-27
-27
-27
-27
-27
-27
-27
-27
-27
-27
-27
-27
-27
-27
-25
-25
-25
-25
-25
-25
-26
-27
-26
-25
-26
-27
-26
-25
-25
-25
-25
-25
-24
-23
-24
-25
-24
-23
-23
-23
-24
-25
-24
-23
-23
-23
-23
-23
-22
-21
-21
-21
-21
-21
-21
-22
-23
-22
-21
-21
-21
-21
-21
-20
-19
-20
-21
-20
-19
-20
-21
-20
-19
-19
-19
-18
-17
-17
-17
-17
-17
-16
-14
-10
-9
-10
-11
-10
-7
-4
-3
-2
-1
0
1
2
3
5
4
3
0
-3
-5
-7
-12
-17
-18
-19
-20
-21
-21
-21
-21
-21
-21
-21
-23
-25
-24
-23
-22
-21
-20
-19
-18
-17
-17
-15
-12
-8
-4
11
30
74
122
173
224
229
227
187
141
79
20
-17
-48
-37
-27
-23
-19
-19
-19
-21
-23
-24
-25
-25
-25
-25
-25
-25
-25
-25
-25
-26
-27
-26
-25
-24
-23
-23
-23
-22
-21
-21
-21
-21
-21
-20
-19
-19
-18
-17
-15
-13
-11
-9
-7
-5
-4
-3
-2
0
4
7
8
10
14
18
22
26
29
33
37
40
43
46
49
52
56
57
58
62
66
67
67
67
66
64
62
56
50
44
37
30
23
16
9
3
-3
-7
-11
-15
-19
-22
-25
-27
-29
-31
-33
-33
-33
-35
-37
-37
-37
-36
-35
-35
-35
-34
-33
-34
-35
-35
-35
-35
-35
-35
-35
-35
-35
-34
-33
-33
-32
-31
-32
-33
-33
-33
-33
-33
-34
-35
-34
-33
-33
-33
-33
-33
-33
-33
-34
-35
-34
-33
-33
-34
-36
-37
-36
-35
-34
-33
-34
-35
-34
-33
-34
-35
-35
-35
-35
-35
-36
-37
-37
-36
-35
-35
-35
-33
-31
-32
-33
-34
-35
-35
-35
-35
-35
-35
-35
-34
-33
-33
-33
-32
-31
-31
-31
-31
-31
-31
-31
-31
-31
-31
-31
-31
-31
-31
-31
-30
-29
-29
-29
-29
-29
-29
-29
-29
-29
-29
-28
-27
-27
-27
-27
-27
-27
-27
-27
-27
-27
-27
-27
-27
-27
-27
-26
-25
-25
-25
-24
-23
-23
-23
-24
-25
-25
-25
-24
-23
-24
-25
-24
-23
-23
-23
-23
-22
-21
-21
-21
-21
-21
-17
-13
-12
-11
-11
-11
-9
-7
-5
-3
-3
-2
1
3
3
2
0
-2
-4
-6
-8
-11
-15
-18
-20
-22
-24
-25
-24
-23
-23
-23
-24
-25
-25
-24
-23
-23
-23
-22
-21
-21
-21
-19
-17
-14
-9
1
18
51
97
162
210
238
244
226
182
116
53
-8
-33
-37
-33
-24
-21
-21
-21
-22
-24
-26
-27
-27
-27
-27
-27
-29
-28
-27
-28
-29
-29
-29
-28
-27
-27
-27
-26
-25
-25
-25
-24
-23
-22
-21
-22
-23
-20
-19
-18
-17
-16
-14
-11
-9
-8
-6
-4
-2
0
2
4
8
12
15
18
22
19
32
37
39
41
44
47
51
55
56
57
60
63
65
67
67
67
66
64
60
55
48
42
36
29
21
14
8
2
-3
-7
-11
-15
-18
-21
-24
-26
-28
-29
-30
-32
-34
-34
-33
-33
-33
-33
-33
-33
-33
-33
-33
-33
-33
-32
-31
-32
-33
-33
-33
-32
-31
-32
-32
-30
-29
-30
-31
-31
-31
-31
-31
-32
-33
-32
-31
-31
-31
-31
-31
-30
-30
-32
-33
-31
-31
-31
-33
-35
-34
-33
-33
-33
-32
-31
-32
-33
-33
-33
-33
-33
-32
-31
-33
-35
-34
-33
-32
-31
-32
-33
-32
-31
-32
-33
-32
-31
-31
-32
-34
-35
-34
-33
-32
-31
-31
-30
-29
-30
-31
-30
-29
-29
-29
-30
-31
-31
-31
-30
-29
-28
-27
-27
-27
-28
-29
-29
-29
-28
-27
-28
-29
-28
-27
-27
-27
-27
-27
-27
-27
-27
-27
-26
-25
-25
-25
-26
-27
-27
-26
-25
-25
-25
-25
-25
-26
-27
-26
-25
-25
-25
-26
-27
-26
-25
-24
-23
-23
-23
-23
-23
-23
-23
-23
-23
-23
-23
-23
-23
-23
-23
-23
-23
-22
-21
-21
-21
-21
-21
-21
-20
-19
-19
-19
-17
-15
-13
-11
-11
-10
-6
-3
-3
-3
-3
-2
1
3
2
1
0
-1
-2
-4
-6
-10
-15
-19
-22
-23
-24
-25
-25
-25
-25
-25
-25
-25
-25
-25
-25
-24
-23
-23
-23
-22
-21
-20
-19
-17
-15
-10
-2
16
46
98
149
197
224
221
197
149
94
34
-10
-42
-47
-34
-26
-21
-19
-20
-21
-22
-24
-26
-27
-28
-29
-29
-29
-29
-29
-29
-29
-29
-28
-27
-25
-23
-24
-25
-25
-25
-24
-23
-24
-25
-23
-21
-19
-17
-16
-15
-14
-13
-12
-10
-8
-7
-6
-4
-2
0
2
6
10
14
18
22
26
29
32
36
41
45
49
51
53
57
61
64
67
68
69
70
71
68
64
61
57
52
46
38
31
24
18
11
4
-2
-7
-11
-15
-19
-22
-24
-25
-26
-29
-32
-33
-33
-33
-33
-33
-33
-33
-33
-34
-35
-35
-35
-34
-33
-34
-35
-34
-33
-33
-33
-33
-33
-32
-31
-31
-31
-31
-31
-31
-31
-32
-33
-32
-31
-32
-33
-32
-31
-30
-29
-30
-31
-31
-31
-32
-33
-34
-34
-33
-33
-33
-32
-31
-31
-31
-32
-33
-33
-33
-33
-33
-33
-33
-33
-33
-32
-31
-32
-33
-32
-31
-31
-31
-32
-33
-33
-33
-33
-33
-32
-31
-31
-31
-31
-31
-30
-29
-30
-31
-31
-30
-29
-29
-29
-29
-29
-28
-27
-27
-27
-27
-27
-27
-27
-27
-27
-27
-27
-28
-29
-28
-27
-26
-25
-25
-25
-24
-23
-24
-25
-25
-25
-25
-25
-25
-25
-24
-23
-23
-23
-23
-21
-19
-20
-21
-22
-23
-22
-21
-22
-23
-22
-21
-21
-21
-21
-21
-20
-19
-19
-19
-19
-19
-18
-16
-14
-13
-12
-11
-10
-8
-6
-5
-4
-3
-2
0
2
3
4
5
4
0
-3
-2
-1
-4
-7
-11
-15
-17
-19
-20
-21
-21
-21
-21
-21
-21
-21
-21
-21
-21
-20
-18
-17
-18
-19
-18
-16
-14
-12
-10
-6
-1
19
42
91
144
188
231
229
222
172
121
61
4
-23
-46
-33
-21
-18
-15
-16
-17
-18
-19
-20
-21
-22
-23
-23
-23
-24
-25
-24
-23
-22
-21
-21
-21
-20
-19
-19
-19
-18
-17
-16
-15
-16
-16
-14
-13
-12
-11
-11
-7
-5
-4
-3
-1
1
4
7
8
9
12
15
18
22
26
30
34
37
39
42
47
51
55
57
58
60
63
67
70
71
72
73
74
73
70
67
64
59
54
47
40
33
27
21
15
9
3
-1
-5
-9
-13
-16
-19
-20
-21
-23
-25
-25
-25
-25
-25
-25
-25
-25
-25
-26
-27
-27
-27
-26
-25
-26
-27
-26
-25
-25
-25
-24
-23
-22
-21
-22
-23
-23
-22
-21
-23
-25
-24
-23
-23
-23
-22
-21
-21
-21
-22
-23
-22
-21
-22
-23
-24
-25
-25
-25
-24
-23
-23
-23
-22
-21
-22
-23
-23
-23
-23
-23
-24
-25
-25
-25
-24
-23
-23
-22
-21
-22
-23
-23
-23
-22
-21
-23
-25
-24
-23
-22
-21
-21
-21
-20
-19
-20
-21
-20
-19
-18
-18
-20
-21
-20
-19
-19
-19
-18
-17
-17
-17
-18
-19
-18
-17
-17
-17
-18
-19
-19
-18
-17
-17
-17
-16
-15
-15
-15
-16
-17
-16
-15
-16
-17
-16
-15
-15
-15
-15
-15
-14
-13
-14
-15
-14
-13
-13
-13
-14
-15
-15
-15
-14
-13
-13
-13
-12
-11
-12
-13
-13
-12
-11
-12
-13
-13
-13
-11
-9
-9
-9
-6
-3
-2
-1
-1
-1
1
3
4
5
5
7
11
13
13
13
12
9
6
5
4
0
-4
-9
-14
-15
-15
-15
-15
-15
-15
-13
-13
-14
-15
-15
-15
-15
-15
-16
-17
-15
-13
-12
-10
-7
-4
-1
5
15
36
69
117
179
220
245
242
219
168
103
45
-11
-26
-28
-21
-11
-10
-12
-13
-14
-17
-20
-21
-21
-21
-21
-21
-21
-20
-19
-20
-21
-21
-21
-20
-19
-20
-21
-20
-19
-18
-17
-17
-16
-14
-13
-13
-13
-12
-11
-10
-9
-9
-8
-6
-4
-2
0
2
5
8
10
12
15
19
22
25
28
31
35
39
43
47
50
54
58
61
63
65
67
69
71
73
73
73
70
68
66
63
57
52
46
39
32
25
19
13
7
1
-4
-9
-14
-16
-18
-20
-19
-24
-25
-26
-27
-28
-29
-28
-27
-29
-31
-30
-29
-29
-29
-29
-29
-28
-27
-27
-27
-27
-27
-27
-27
-28
-29
-29
-29
-28
-27
-27
-27
-26
-25
-26
-27
-27
-27
-27
-27
-28
-29
-29
-29
-29
-29
-29
-28
-27
-28
-29
-30
-31
-30
-29
-30
-31
-31
-31
-31
-31
-31
-31
-30
-29
-29
-29
-30
-31
-30
-30
-32
-33
-32
-31
-30
-29
-29
-29
-28
-27
-28
-29
-29
-28
-27
-28
-29
-28
-27
-27
-27
-27
-27
-27
-27
-27
-27
-26
-25
-25
-25
-26
-27
-26
-25
-25
-25
-24
-23
-23
-23
-23
-23
-23
-23
-23
-23
-24
-25
-24
-23
-23
-23
-23
-21
-21
-22
-23
-22
-21
-21
-21
-21
-21
-21
-21
-21
-21
-21
-21
-20
-19
-20
-21
-21
-21
-20
-19
-20
-21
-20
-19
-19
-19
-19
-19
-18
-17
-18
-19
-19
-19
-18
-18
-20
-19
-17
-17
-17
-16
-15
-12
-9
-8
-7
-6
-5
-3
-1
-2
-3
-1
2
5
7
7
7
7
6
3
1
0
-4
-9
-13
-17
-19
-20
-21
-21
-21
-20
-19
-19
-19
-20
-21
-21
-21
-21
-20
-19
-19
-19
-17
-15
-14
-13
-10
-6
-2
8
29
64
119
168
209
227
218
189
143
92
36
-4
-34
-38
-27
-20
-15
-14
-16
-18
-20
-21
-22
-23
-23
-23
-23
-22
-23
-23
-23
-23
-23
-22
-21
-21
-21
-21
-21
-21
-21
-19
-17
-17
-17
-15
-13
-13
-13
-12
-11
-10
-9
-8
-5
-2
0
2
4
6
9
12
14
16
20
24
27
30
35
39
43
47
51
55
59
63
65
67
69
71
72
73
73
73
71
68
65
61
56
50
43
36
28
21
14
8
3
-2
-7
-12
-16
-18
-20
-21
-22
-24
-26
-27
-27
-27
-27
-29
-31
-31
-31
-30
-29
-29
-29
-28
-27
-27
-27
-27
-27
-27
-27
-27
-27
-27
-27
-28
-29
-28
-27
-26
-25
-25
-25
-25
-25
-25
-25
-25
-25
-26
-27
-27
-27
-27
-27
-27
-26
-25
-26
-27
-27
-27
-27
-27
-27
-27
-28
-29
-29
-29
-28
-27
-26
-25
-26
-27
-27
-27
-27
-27
-28
-29
-28
-27
-26
-25
-25
-25
-25
-25
-26
-27
-26
-25
-25
-25
-25
-25
-25
-24
-23
-24
-25
-24
-23
-23
-23
-23
-23
-23
-23
-23
-23
-23
-23
-23
-23
-22
-21
-21
-21
-21
-21
-21
-21
-21
-21
-21
-21
-21
-21
-21
-21
-20
-19
-19
-19
-19
-19
-19
-19
-19
-19
-19
-19
-19
-19
-19
-18
-17
-18
-19
-18
-17
-17
-17
-17
-17
-17
-17
-18
-19
-18
-17
-17
-17
-16
-15
-16
-17
-16
-15
-15
-15
-16
-17
-17
-16
-14
-13
-13
-12
-11
-10
-9
-7
-5
-4
-3
-3
-3
-1
1
2
4
7
9
10
11
10
8
5
3
3
0
-6
-10
-13
-15
-16
-17
-17
-17
-16
-15
-16
-17
-17
-17
-17
-17
-17
-17
-17
-15
-13
-12
-11
-8
-5
-3
2
20
46
95
143
189
221
230
219
179
128
62
12
-23
-36
-28
-21
-14
-11
-12
-15
-18
-19
-20
-21
-21
-21
-21
-21
-21
-21
-21
-21
-21
-21
-21
-22
-23
-22
-21
-20
-19
-18
-17
-17
-17
-16
-15
-15
-15
-13
-11
-12
-13
-10
-8
-5
-3
-3
-2
1
4
6
8
10
13
16
19
22
25
28
32
36
40
37
49
53
56
59
62
65
67
69
69
69
71
73
71
68
65
62
56
50
42
34
27
20
14
7
0
-5
-9
-13
-16
-18
-20
-21
-22
-25
-28
-29
-29
-29
-29
-30
-32
-32
-31
-31
-31
-30
-29
-29
-29
-29
-29
-29
-29
-29
-29
-30
-31
-31
-31
-30
-29
-29
-29
-28
-27
-28
-29
-29
-29
-29
-29
-30
-31
-30
-29
-29
-29
-29
-29
-29
-29
-30
-31
-31
-31
-31
-32
-33
-33
-33
-33
-33
-32
-31
-31
-31
-31
-31
-31
-31
-31
-31
-32
-33
-33
-33
-32
-31
-31
-31
-31
-31
-31
-31
-31
-31
-31
-31
-31
-31
-30
-29
-28
-27
-27
-27
-27
-28
-29
-28
-27
-27
-27
-27
-27
-28
-29
-28
-27
-27
-27
-26
-25
-26
-27
-27
-27
-26
-26
-28
-29
-28
-27
-26
-25
-25
-25
-24
-23
-24
-25
-25
-25
-24
-23
-24
-24
-23
-23
-23
-23
-23
-22
-21
-22
-23
-23
-23
-23
-23
-24
-25
-24
-23
-23
-23
-23
-23
-22
-21
-21
-21
-21
-21
-21
-21
-21
-21
-21
-21
-21
-21
-21
-21
-20
-19
-19
-19
-19
-16
-13
-11
-9
-10
-11
-9
-7
-5
-3
-3
-3
0
3
3
3
3
3
1
-1
-4
-6
-9
-13
-17
-20
-22
-23
-23
-23
-23
-23
-23
-23
-24
-25
-25
-25
-25
-25
-25
-21
-19
-19
-19
-16
-13
-9
-3
13
37
90
144
199
238
242
231
192
142
76
20
-26
-44
-34
-27
-21
-19
-20
-22
-24
-25
-26
-27
-27
-27
-28
-29
-29
-29
-28
-28
-30
-31
-31
-30
-29
-28
-27
-26
-25
-26
-27
-26
-25
-24
-23
-23
-23
-22
-21
-19
-17
-16
-14
-12
-11
-10
-8
-6
-4
0
2
4
6
8
12
16
20
24
29
34
36
38
42
47
50
53
55
57
60
63
65
67
67
67
66
64
59
53
47
41
35
28
21
14
7
1
-3
-7
-11
-15
-19
-23
-27
-29
-30
-31
-32
-34
-36
-37
-37
-37
-37
-36
-37
-33
-33
-34
-35
-35
-35
-35
-35
-36
-37
-36
-35
-35
-35
-34
-33
-33
-33
-34
-35
-34
-33
-33
-33
-33
-33
-34
-35
-35
-35
-34
-33
-33
-33
-33
-33
-33
-33
-34
-35
-35
-35
-35
-35
-35
-35
-35
-35
-35
-35
-35
-35
-35
-35
-35
-36
-37
-37
-37
-36
-35
-35
-35
-34
-33
-33
-33
-33
-33
-33
-33
-34
-35
-35
-35
-34
-33
-33
-33
-32
-31
-32
-33
-31
-31
-31
-33
-35
-33
-31
-31
-31
-31
-31
-30
-29
-30
-31
-30
-29
-29
-29
-31
-33
-30
-29
-29
-29
-29
-29
-28
-27
-28
-29
-29
-29
-29
-29
-29
-29
-30
-30
-28
-27
-27
-27
-27
-27
-27
-27
-27
-27
-27
-26
-25
-27
-29
-28
-27
-27
-27
-26
-25
-25
-25
-26
-27
-27
-27
-26
-26
-28
-28
-26
-25
-25
-25
-25
-25
-24
-23
-23
-23
-23
-21
-18
-17
-17
-16
-15
-13
-11
-9
-7
-6
-5
-4
-3
-1
1
1
0
-4
-7
-7
-8
-12
-17
-21
-24
-26
-27
-27
-27
-27
-27
-27
-27
-28
-29
-28
-27
-27
-27
-26
-25
-25
-25
-23
-21
-19
-18
-17
-10
1
26
59
119
172
203
222
208
182
129
75
19
-22
-43
-49
-34
-26
-23
-22
-24
-25
-26
-27
-28
-29
-30
-31
-31
-31
-32
-33
-33
-32
-30
-29
-29
-28
-27
-27
-27
-27
-27
-26
-25
-25
-25
-25
-25
-23
-21
-19
-17
-16
-15
-14
-13
-10
-8
-6
-5
-4
-1
3
7
10
13
17
22
26
29
32
36
40
44
48
50
52
56
59
62
65
66
67
68
69
66
62
57
52
46
39
32
25
18
11
5
-1
-6
-11
-15
-19
-23
-26
-28
-30
-32
-34
-36
-37
-37
-37
-37
-37
-37
-37
-37
-37
-37
-37
-37
-37
-37
-38
-39
-38
-37
-37
-37
-36
-35
-35
-35
-35
-35
-35
-35
-35
-35
-35
-35
-35
-35
-35
-35
-34
-33
-34
-35
-35
-35
-34
-33
-33
-33
-34
-35
-36
-37
-36
-35
-35
-35
-35
-35
-35
-35
-35
-35
-35
-36
-37
-37
-37
-36
-35
-34
-33
-34
-35
-34
-33
-33
-33
-34
-35
-34
-33
-33
-33
-33
-33
-33
-33
-32
-31
-31
-31
-31
-31
-31
-31
-32
-32
-31
-31
-31
-31
-31
-30
-29
-29
-29
-29
-29
-29
-29
-30
-31
-30
-29
-29
-29
-28
-27
-27
-27
-27
-27
-27
-27
-27
-27
-28
-29
-28
-27
-26
-25
-25
-25
-25
-25
-25
-25
-23
-23
-23
-25
-27
-26
-25
-24
-23
-23
-23
-22
-21
-20
-19
-17
-15
-14
-13
-13
-12
-9
-7
-6
-5
-4
-2
1
3
3
2
0
-1
-1
-4
-8
-13
-18
-19
-20
-21
-21
-22
-21
-22
-23
-23
-23
-23
-23
-23
-23
-23
-23
-22
-21
-20
-19
-18
-16
-13
-11
-10
-5
4
23
50
98
159
201
231
229
212
164
105
47
-11
-30
-41
-32
-18
-17
-17
-18
-19
-20
-21
-21
-21
-22
-23
-23
-23
-23
-23
-23
-23
-24
-25
-24
-23
-22
-21
-20
-19
-19
-19
-18
-17
-16
-15
-15
-15
-15
-14
-12
-11
-10
-8
-6
-4
-2
0
2
4
7
10
13
15
17
20
23
27
31
35
40
44
47
50
54
57
60
63
65
67
69
70
71
72
73
72
69
65
59
53
46
39
33
27
20
13
6
0
-4
-8
-11
-9
-18
-21
-23
-25
-26
-27
-27
-27
-28
-29
-30
-31
-30
-29
-29
-29
-29
-29
-28
-27
-27
-27
-28
-29
-29
-29
-29
-29
-29
-29
-28
-27
-27
-27
-27
-27
-27
-27
-26
-25
-26
-27
-27
-27
-27
-27
-27
-26
-25
-26
-27
-27
-27
-27
-27
-28
-29
-29
-29
-28
-27
-27
-27
-27
-27
-28
-29
-28
-27
-27
-27
-28
-29
-29
-29
-28
-27
-27
-27
-27
-27
-27
-27
-25
-25
-25
-26
-27
-27
-27
-26
-25
-24
-23
-23
-23
-23
-23
-23
-23
-23
-23
-23
-23
-24
-25
-24
-23
-22
-21
-21
-21
-21
-21
-21
-21
-21
-21
-21
-21
-22
-23
-22
-21
-21
-21
-21
-20
-19
-19
-19
-20
-21
-20
-19
-20
-21
-20
-19
-19
-19
-19
-19
-18
-17
-18
-19
-18
-17
-17
-17
-18
-19
-18
-17
-17
-17
-17
-17
-16
-15
-15
-15
-15
-12
-8
-6
-5
-4
-3
-2
-1
1
3
3
3
5
7
8
9
9
8
4
1
1
0
-4
-9
-13
-15
-16
-17
-17
-17
-18
-19
-18
-18
-20
-20
-18
-17
-18
-19
-18
-17
-16
-15
-15
-13
-11
-8
-4
5
17
48
86
151
207
235
249
226
190
129
68
7
-27
-29
-27
-18
-13
-14
-16
-18
-19
-20
-21
-22
-23
-24
-25
-24
-23
-24
-25
-25
-25
-24
-23
-23
-22
-21
-21
-21
-20
-19
-19
-19
-19
-19
-18
-17
-16
-15
-13
-11
-9
-7
-6
-5
-4
-2
1
3
4
7
11
15
19
23
26
30
34
36
38
43
48
51
54
56
58
62
65
67
69
70
71
71
71
68
64
59
54
49
43
36
29
23
17
11
5
0
-5
-9
-13
-17
-20
-22
-23
-24
-26
-28
-29
-30
-31
-30
-29
-30
-31
-31
-31
-31
-31
-31
-31
-31
-32
-33
-32
-31
-31
-31
-31
-31
-30
-29
-30
-31
-31
-31
-31
-31
-32
-33
-33
-33
-32
-31
-31
-31
-30
-29
-30
-31
-31
-31
-31
-31
-32
-33
-33
-33
-33
-33
-33
-33
-33
-33
-33
-33
-33
-32
-31
-32
-33
-33
-33
-33
-33
-32
-31
-31
-31
-31
-31
-32
-33
-32
-31
-32
-33
-33
-33
-32
-31
-30
-29
-30
-31
-31
-31
-30
-29
-29
-29
-29
-29
-29
-29
-29
-28
-27
-28
-29
-28
-27
-28
-29
-28
-27
-27
-27
-28
-29
-28
-27
-27
-27
-26
-25
-26
-27
-27
-27
-27
-27
-27
-27
-27
-27
-26
-25
-25
-25
-24
-23
-24
-25
-25
-24
-23
-24
-25
-25
-25
-24
-23
-23
-23
-23
-23
-23
-23
-23
-23
-22
-21
-23
-25
-24
-23
-22
-21
-21
-21
-20
-19
-19
-18
-16
-13
-10
-9
-10
-11
-10
-7
-4
-3
-3
-1
-1
1
3
4
5
3
1
-2
-5
-7
-10
-14
-17
-18
-19
-21
-23
-23
-23
-23
-23
-23
-23
-23
-23
-23
-23
-23
-23
-22
-21
-20
-19
-18
-16
-14
-11
-8
8
24
71
118
172
223
226
225
185
141
78
21
-19
-47
-37
-28
-21
-17
-18
-19
-20
-21
-22
-23
-23
-23
-24
-25
-25
-25
-25
-25
-25
-25
-25
-25
-24
-23
-22
-21
-21
-21
-21
-21
-19
-18
-17
-17
-17
-16
-15
-13
-11
-10
-9
-7
-5
-3
-1
1
3
5
8
11
14
17
21
25
29
33
36
39
43
46
50
55
58
60
64
68
69
69
70
72
73
73
71
69
65
61
55
48
41
34
28
22
13
6
1
-4
-8
-11
-13
-16
-19
-21
-24
-25
-26
-27
-27
-27
-28
-29
-29
-29
-29
-29
-28
-27
-28
-29
-28
-27
-28
-29
-28
-28
-29
-28
-27
-27
-27
-27
-27
-26
-25
-26
-27
-26
-25
-26
-27
-27
-27
-27
-27
-26
-25
-26
-27
-26
-25
-25
-25
-26
-27
-26
-26
-28
-29
-28
-27
-27
-27
-27
-27
-27
-27
-27
-27
-27
-27
-27
-27
-27
-27
-27
-27
-27
-27
-27
-26
-25
-25
-25
-25
-25
-26
-27
-27
-26
-24
-23
-23
-23
-22
-21
-22
-23
-23
-23
-23
-23
-23
-23
-23
-23
-22
-21
-21
-21
-21
-21
-21
-21
-21
-21
-21
-21
-21
-21
-21
-20
-19
-19
-19
-19
-19
-19
-19
-19
-19
-19
-19
-19
-19
-19
-19
-18
-17
-17
-17
-17
-17
-18
-19
-18
-17
-17
-17
-17
-17
-17
-16
-15
-15
-15
-14
-13
-14
-15
-15
-15
-14
-13
-14
-14
-11
-9
-7
-5
-5
-4
-2
0
2
3
3
4
6
7
8
9
9
8
6
5
5
3
0
-5
-10
-12
-15
-15
-15
-16
-17
-16
-15
-15
-15
-15
-15
-15
-15
-15
-15
-14
-13
-12
-11
-11
-10
-5
0
7
25
51
93
145
187
222
229
223
183
133
78
21
-11
-40
-32
-20
-15
-19
-11
-13
-14
-15
-16
-17
-17
-17
-19
-21
-20
-19
-19
-19
-19
-19
-18
-17
-18
-19
-18
-17
-16
-15
-16
-16
-14
-13
-12
-11
-10
-9
-8
-7
-6
-5
-4
-2
0
1
2
5
7
10
13
16
19
23
27
29
31
34
38
42
45
47
50
54
58
61
64
67
70
72
73
74
75
74
72
70
67
63
57
51
45
40
34
26
20
14
9
4
-1
-7
-11
-15
-16
-17
-19
-21
-22
-23
-24
-25
-25
-25
-25
-25
-26
-27
-27
-27
-26
-25
-26
-27
-26
-25
-25
-25
-25
-25
-24
-23
-24
-25
-25
-25
-25
-25
-26
-27
-26
-25
-25
-25
-25
-25
-25
-25
-25
-25
-25
-26
-27
-28
-29
-28
-27
-27
-27
-28
-29
-28
-27
-27
-27
-28
-29
-28
-27
-28
-29
-29
-29
-29
-29
-28
-27
-27
-27
-27
-27
-27
-27
-27
-28
-29
-28
-27
-27
-27
-26
-25
-26
-27
-27
-27
-27
-27
-26
-25
-26
-27
-26
-25
-24
-23
-23
-23
-24
-25
-25
-25
-24
-24
-26
-27
-26
-25
-24
-23
-23
-23
-23
-23
-24
-25
-23
-22
-21
-23
-25
-25
-25
-24
-23
-22
-21
-21
-21
-22
-23
-23
-23
-22
-21
-22
-23
-23
-23
-22
-21
-20
-19
-19
-19
-20
-21
-21
-21
-20
-19
-20
-21
-21
-21
-20
-19
-19
-19
-19
-19
-19
-19
-19
-18
-17
-18
-19
-16
-13
-11
-9
-8
-7
-5
-3
-3
-3
-2
0
3
5
4
3
3
1
-2
-3
-3
-6
-10
-14
-18
-20
-22
-23
-22
-21
-22
-23
-23
-23
-23
-23
-23
-22
-21
-22
-23
-22
-21
-20
-19
-17
-15
-13
-8
1
19
47
93
158
204
234
236
216
171
112
54
-3
-28
-42
-35
-22
-19
-18
-18
-20
-23
-26
-27
-27
-27
-27
-28
-29
-29
-29
-28
-27
-28
-29
-28
-27
-27
-27
-26
-25
-25
-25
-24
-23
-24
-24
-22
-21
-20
-19
-18
-17
-16
-15
-14
-12
-10
-8
-6
-5
-4
-1
2
5
3
12
15
19
23
26
29
33
37
40
43
48
51
54
57
59
61
63
65
66
67
67
66
63
59
53
48
42
35
29
22
15
8
1
-5
-10
-14
-18
-20
-22
-25
-28
-30
-31
-31
-31
-31
-31
-31
-31
-32
-33
-34
-35
-33
-31
-33
-35
-34
-33
-32
-31
-31
-31
-30
-29
-30
-31
-31
-31
-31
-31
-32
-33
-32
-31
-30
-29
-30
-31
-30
-29
-30
-31
-31
-30
-29
-30
-31
-32
-33
-32
-31
-31
-31
-31
-31
-31
-31
-31
-31
-31
-31
-31
-31
-32
-33
-32
-31
-31
-31
-31
-31
-31
-31
-31
-31
-30
-29
-30
-31
-31
-31
-30
-29
-29
-28
-27
-28
-29
-29
-29
-28
-27
-28
-29
-29
-29
-28
-27
-27
-27
-26
-25
-26
-27
-27
-27
-26
-25
-26
-27
-26
-25
-25
-25
-24
-23
-24
-25
-25
-25
-25
-25
-24
-23
-24
-25
-25
-24
-23
-23
-23
-22
-21
-22
-23
-23
-23
-22
-21
-22
-23
-22
-21
-21
-21
-21
-21
-20
-19
-20
-21
-21
-21
-20
-19
-20
-21
-21
-21
-20
-19
-19
-19
-18
-17
-17
-17
-17
-17
-17
-14
-11
-10
-9
-7
-5
-4
-3
-2
-1
0
1
3
5
6
7
7
6
1
-1
-2
-5
-9
-13
-17
-19
-20
-21
-21
-21
-21
-21
-21
-21
-22
-23
-22
-21
-21
-20
-19
-18
-17
-17
-17
-14
-11
-9
-6
3
17
49
90
149
195
216
220
199
161
103
49
-2
-29
-36
-33
-21
-17
-16
-16
-18
-20
-22
-23
-23
-23
-23
-23
-24
-25
-25
-25
-25
-25
-25
-25
-25
-23
-21
-21
-21
-21
-21
-20
-19
-19
-19
-18
-17
-16
-15
-13
-10
-8
-7
-7
-6
-4
-2
2
3
4
7
10
14
18
22
26
30
34
36
38
42
47
51
55
56
57
60
63
66
69
70
71
71
71
68
64
59
53
48
42
34
27
20
14
8
3
-3
-7
-11
-15
-19
-22
-24
-25
-26
-29
-32
-33
-33
-33
-33
-33
-33
-32
-31
-32
-33
-33
-33
-33
-33
-34
-35
-34
-33
-32
-31
-32
-33
-31
-29
-30
-31
-31
-31
-31
-31
-32
-33
-33
-33
-32
-31
-31
-31
-31
-31
-31
-31
-32
-33
-33
-33
-33
-33
-33
-33
-33
-33
-33
-32
-31
-32
-33
-33
-33
-33
-33
-34
-35
-34
-33
-32
-31
-32
-33
-32
-31
-32
-33
-32
-31
-31
-31
-32
-33
-33
-33
-32
-31
-30
-29
-29
-29
-29
-29
-29
-29
-29
-31
-33
-32
-31
-30
-29
-29
-29
-28
-27
-28
-29
-28
-27
-27
-27
-27
-27
-28
-29
-28
-27
-27
-27
-26
-25
-25
-25
-25
-25
-25
-25
-26
-27
-26
-25
-24
-23
-23
-23
-23
-23
-23
-23
-23
-23
-23
-22
-21
-22
-22
-18
-15
-13
-11
-12
-12
-9
-7
-7
-7
-6
-4
-2
-1
0
1
1
0
-2
-4
-6
-10
-14
-17
-20
-21
-22
-23
-24
-25
-25
-24
-23
-23
-23
-22
-21
-22
-23
-23
-23
-21
-19
-19
-18
-15
-13
-11
-4
7
29
62
112
176
212
229
219
193
143
82
28
-23
-36
-38
-30
-19
-17
-17
-18
-20
-22
-25
-26
-27
-27
-27
-27
-27
-27
-27
-26
-25
-25
-25
-25
-25
-25
-25
-24
-23
-24
-25
-22
-21
-20
-19
-18
-16
-14
-13
-13
-13
-12
-10
-8
-7
-6
-4
-2
2
6
9
7
17
21
22
23
27
31
35
39
41
43
48
52
56
60
63
65
67
69
69
69
69
68
66
63
57
52
47
41
35
28
21
15
9
3
-4
-8
-12
-15
-18
-22
-26
-28
-29
-29
-29
-29
-29
-29
-29
-30
-31
-31
-31
-31
-31
-31
-31
-31
-31
-31
-31
-30
-29
-29
-29
-29
-29
-29
-29
-29
-29
-30
-31
-31
-31
-30
-29
-29
-29
-28
-28
-30
-31
-29
-29
-29
-31
-33
-32
-31
-31
-31
-31
-31
-30
-29
-30
-31
-32
-33
-32
-31
-32
-33
-33
-33
-33
-33
-32
-31
-30
-29
-30
-31
-30
-29
-29
-30
-32
-33
-32
-31
-30
-29
-29
-28
-27
-28
-29
-29
-29
-28
-27
-28
-29
-29
-29
-28
-27
-26
-25
-25
-25
-25
-25
-25
-25
-25
-25
-26
-27
-26
-25
-25
-25
-24
-23
-22
-21
-22
-23
-23
-23
-23
-23
-23
-23
-23
-22
-21
-21
-21
-21
-21
-21
-21
-21
-21
-21
-21
-21
-21
-21
-21
-20
-19
-19
-19
-19
-19
-19
-19
-18
-17
-16
-14
-12
-11
-10
-9
-8
-6
-4
-2
0
1
1
3
7
6
5
4
3
0
-3
-3
-3
-7
-11
-14
-17
-18
-19
-20
-21
-21
-21
-20
-19
-22
-22
-20
-19
-19
-19
-19
-19
-18
-17
-16
-13
-10
-8
-6
7
21
58
97
159
99
235
246
220
190
127
66
13
-31
-31
-29
-20
-13
-14
-15
-17
-19
-20
-21
-21
-21
-22
-23
-23
-23
-23
-23
-23
-23
-22
-21
-21
-21
-20
-19
-18
-17
-17
-17
-16
-15
-15
-14
-13
-12
-11
-9
-7
-6
-5
-4
-3
-1
1
3
5
7
9
11
15
20
24
27
31
35
38
41
45
49
52
56
58
60
63
66
69
72
73
74
75
75
74
72
68
63
58
53
45
37
30
23
18
12
7
2
-2
-6
-10
-13
-15
-17
-18
-19
-21
-23
-24
-25
-25
-25
-25
-25
-24
-23
-24
-25
-24
-23
-24
-25
-25
-25
-25
-25
-24
-23
-23
-22
-21
-22
-23
-23
-23
-23
-23
-24
-25
-24
-23
-23
-23
-23
-23
-23
-23
-23
-23
-24
-25
-24
-23
-23
-23
-24
-25
-26
-27
-26
-25
-25
-25
-25
-25
-26
-27
-26
-25
-25
-26
-27
-26
-25
-25
-25
-24
-23
-23
-23
-23
-23
-24
-25
-24
-23
-24
-25
-24
-23
-23
-23
-22
-21
-22
-23
-23
-23
-22
-21
-22
-23
-23
-23
-22
-21
-20
-19
-18
-18
-20
-21
-19
-19
-19
-20
-21
-21
-21
-20
-19
-19
-19
-18
-17
-18
-19
-19
-19
-19
-19
-20
-21
-18
-17
-17
-17
-17
-17
-16
-15
-16
-17
-17
-17
-17
-17
-18
-19
-19
-19
-18
-17
-17
-16
-15
-16
-17
-17
-17
-16
-15
-17
-19
-17
-15
-13
-10
-7
-5
-5
-5
-5
-5
-2
-1
0
1
1
2
4
5
6
5
2
1
1
-2
-6
-11
-16
-17
-18
-20
-22
-23
-23
-22
-21
-21
-21
-21
-21
-22
-23
-22
-21
-21
-21
-21
-21
-20
-18
-15
-13
-11
-4
6
27
56
103
162
197
219
216
198
152
96
41
-13
-33
-45
-36
-23
-21
-20
-20
-23
-25
-27
-27
-27
-28
-29
-29
-29
-29
-29
-28
-27
-27
-27
-27
-27
-27
-27
-26
-25
-26
-27
-26
-25
-24
-23
-22
-21
-20
-19
-18
-16
-14
-13
-13
-12
-10
-7
-4
-2
-3
5
9
11
13
17
21
25
29
32
35
38
42
46
50
53
55
57
59
60
61
62
63
63
61
55
51
47
41
35
29
23
16
9
2
-5
-10
-14
-18
-22
-26
-30
-33
-35
-35
-35
-36
-37
-38
-39
-39
-39
-40
-41
-41
-41
-42
-43
-43
-43
-42
-41
-41
-41
-40
-39
-40
-41
-41
-41
-40
-39
-40
-41
-41
-41
-40
-39
-39
-39
-38
-37
-38
-39
-41
-41
-41
-42
-43
-43
-43
-42
-41
-41
-41
-41
-41
-42
-43
-43
-43
-42
-41
-43
-45
-45
-45
-44
-43
-42
-41
-41
-41
-41
-41
-42
-43
-42
-41
-41
-41
-41
-41
-41
-41
-41
-39
-39
-40
-41
-40
-39
-39
-39
-38
-37
-38
-39
-38
-37
-38
-39
-38
-37
-37
-37
-37
-37
-36
-35
-35
-35
-36
-37
-36
-35
-35
-35
-35
-35
-34
-33
-33
-33
-33
-33
-33
-34
-35
-33
-31
-32
-33
-32
-31
-31
-31
-32
-33
-33
-33
-32
-31
-32
-33
-32
-31
-30
-29
-30
-31
-30
-29
-29
-29
-29
-29
-29
-29
-30
-31
-30
-29
-28
-27
-27
-27
-27
-27
-27
-27
-27
-28
-29
-27
-25
-25
-25
-24
-22
-18
-15
-15
-15
-14
-13
-11
-9
-10
-11
-8
-6
-3
-1
-1
-2
-4
-5
-6
-9
-12
-16
-20
-23
-26
-27
-27
-27
-27
-27
-27
-26
-25
-26
-27
-26
-25
-25
-25
-26
-27
-25
-23
-22
-20
-17
-14
-11
-5
5
26
59
108
172
211
229
221
195
146
85
31
-20
-35
-38
-31
-21
-19
-19
-19
-20
-24
-28
-29
-29
-28
-27
-27
-27
-27
-27
-27
-27
-27
-27
-26
-25
-26
-27
-26
-25
-24
-23
-22
-21
-21
-21
-20
-19
-18
-17
-16
-15
-14
-12
-10
-8
-6
-4
-2
0
2
5
8
10
13
16
19
23
27
30
33
37
41
45
50
54
57
59
61
63
65
67
69
70
71
71
70
68
65
59
54
48
42
37
30
23
17
11
5
-2
-6
-10
-12
-14
-16
-15
-20
-21
-22
-23
-24
-25
-25
-25
-25
-25
-26
-27
-26
-25
-25
-25
-24
-23
-24
-25
-25
-25
-25
-25
-25
-25
-25
-25
-24
-23
-23
-23
-22
-21
-22
-23
-22
-21
-22
-23
-24
-25
-25
-25
-25
-24
-23
-23
-23
-23
-23
-23
-23
-24
-25
-25
-25
-25
-25
-24
-23
-23
-23
-23
-23
-23
-23
-23
-23
-23
-23
-23
-23
-23
-23
-23
-23
-23
-23
-22
-21
-21
-21
-21
-21
-21
-21
-21
-21
-21
-20
-19
-19
-19
-19
-19
-19
-19
-19
-19
-19
-19
-20
-21
-20
-19
-18
-17
-17
-17
-17
-17
-17
-17
-17
-17
-17
-17
-17
-17
-17
-17
-16
-15
-15
-14
-13
-14
-15
-15
-15
-15
-15
-16
-17
-16
-15
-14
-13
-13
-13
-13
-13
-13
-13
-13
-13
-13
-13
-13
-13
-14
-15
-14
-13
-13
-13
-12
-11
-11
-11
-11
-11
-11
-11
-12
-12
-11
-10
-9
-6
-3
-1
1
1
1
2
3
4
5
5
6
10
13
13
13
11
9
8
6
3
-2
-7
-10
-12
-14
-16
-17
-17
-17
-16
-15
-15
-15
-15
-15
-15
-15
-15
-14
-13
-14
-15
-14
-13
-10
-7
-4
2
16
37
72
116
178
224
242
239
206
159
95
39
-10
-30
-28
-22
-13
-10
-12
-14
-16
-17
-17
-19
-22
-23
-22
-21
-21
-21
-21
-21
-21
-21
-21
-21
-21
-20
-19
-20
-21
-20
-19
-18
-17
-16
-15
-14
-13
-13
-13
-10
-9
-8
-7
-7
-6
-4
-1
3
6
8
10
12
15
18
21
24
28
32
34
36
42
47
51
55
56
57
62
67
68
69
70
71
72
73
69
67
65
61
56
50
43
36
30
24
16
10
4
-1
-5
-9
-13
-17
-20
-22
-24
-25
-26
-27
-28
-29
-29
-29
-31
-30
-29
-31
-33
-33
-33
-31
-29
-30
-31
-30
-29
-29
-29
-30
-31
-30
-29
-31
-33
-32
-31
-31
-31
-31
-31
-30
-29
-30
-31
-30
-29
-29
-30
-32
-33
-33
-33
-32
-31
-31
-31
-31
-31
-31
-31
-31
-31
-31
-32
-33
-32
-31
-31
-31
-31
-31
-30
-29
-30
-31
-31
-31
-31
-31
-32
-33
-32
-31
-30
-29
-29
-29
-28
-28
-30
-31
-30
-29
-28
-28
-30
-30
-29
-29
-29
-28
-27
-26
-25
-26
-27
-27
-27
-26
-25
-26
-27
-27
-27
-27
-27
-26
-25
-25
-25
-24
-23
-23
-23
-23
-23
-24
-25
-24
-23
-22
-21
-21
-21
-21
-21
-22
-23
-21
-21
-21
-22
-23
-22
-21
-21
-21
-20
-19
-19
-19
-19
-19
-18
-17
-17
-17
-18
-19
-19
-19
-18
-17
-17
-15
-11
-9
-9
-9
-8
-5
-2
-1
-2
-2
0
3
6
7
7
8
7
3
-1
-1
-1
-8
-13
-16
-19
-19
-19
-18
-17
-18
-19
-18
-17
-18
-19
-19
-19
-18
-17
-18
-19
-18
-17
-16
-14
-12
-9
-6
-1
4
27
54
111
173
202
230
210
188
136
83
31
-16
-29
-39
-27
-17
-15
-13
-14
-15
-19
-21
-21
-21
-21
-21
-20
-19
-19
-19
-20
-21
-21
-21
-20
-19
-20
-21
-20
-19
-18
-17
-16
-15
-14
-13
-13
-13
-11
-10
-9
-9
-9
-6
-3
-1
1
2
3
6
9
11
14
17
20
24
27
29
32
37
41
45
49
53
57
61
64
66
68
70
71
72
73
74
75
74
70
66
61
65
48
41
33
25
18
11
6
0
-6
-11
-14
-17
-18
-19
-21
-23
-23
-24
-27
-29
-28
-27
-27
-28
-30
-31
-30
-29
-28
-27
-28
-29
-28
-27
-27
-27
-27
-27
-27
-27
-28
-28
-27
-26
-25
-25
-25
-25
-25
-26
-27
-27
-27
-26
-25
-27
-29
-29
-29
-28
-27
-27
-27
-27
-27
-28
-29
-29
-29
-29
-29
-30
-31
-30
-29
-29
-29
-29
-29
-28
-27
-28
-29
-29
-29
-29
-29
-29
-29
-29
-28
-27
-27
-27
-27
-27
-27
-27
-27
-27
-26
-25
-27
-29
-28
-27
-27
-27
-26
-25
-25
-25
-25
-25
-25
-25
-25
-25
-26
-27
-26
-25
-25
-25
-25
-23
-23
-23
-23
-23
-23
-23
-23
-23
-23
-23
-23
-23
-23
-22
-21
-20
-19
-20
-21
-21
-21
-21
-21
-22
-23
-22
-21
-21
-21
-20
-19
-18
-17
-18
-19
-19
-19
-18
-18
-20
-20
-19
-18
-17
-15
-13
-10
-7
-8
-9
-8
-7
-4
-1
-2
-3
-1
1
3
5
5
4
2
1
0
-3
-7
-11
-15
-18
-20
-21
-21
-21
-21
-21
-21
-21
-20
-19
-20
-21
-21
-21
-21
-21
-21
-20
-19
-17
-15
-12
-8
-3
6
26
56
106
156
205
233
235
216
172
117
51
2
-35
-42
-30
-23
-19
-17
-18
-20
-22
-25
-28
-29
-28
-27
-27
-27
-27
-26
-25
-26
-27
-26
-25
-25
-25
-26
-27
-25
-23
-23
-23
-23
-22
-19
-17
-18
-19
-18
-16
-14
-13
-12
-11
-10
-7
-4
-2
0
3
6
8
10
14
18
22
26
28
30
35
39
43
47
50
53
57
61
62
63
65
67
68
69
67
65
63
60
56
51
45
38
32
25
17
10
4
-1
-5
-11
-17
-20
-22
-24
-26
-27
-28
-29
-30
-31
-32
-33
-33
-33
-33
-34
-35
-35
-35
-34
-33
-33
-33
-32
-31
-32
-33
-32
-31
-31
-31
-32
-33
-33
-33
-32
-31
-32
-33
-32
-31
-31
-31
-31
-31
-32
-33
-34
-35
-34
-33
-33
-33
-33
-32
-31
-32
-33
-33
-33
-33
-33
-34
-35
-35
-35
-35
-35
-34
-33
-32
-31
-32
-33
-33
-33
-32
-32
-34
-35
-34
-33
-32
-31
-31
-31
-31
-31
-31
-31
-31
-31
-30
-29
-30
-31
-31
-30
-29
-29
-29
-28
-27
-28
-29
-29
-29
-28
-27
-28
-29
-28
-27
-27
-27
-26
-25
-24
-24
-26
-27
-26
-25
-25
-25
-26
-27
-26
-25
-24
-23
-23
-23
-23
-23
-23
-23
-23
-23
-23
-23
-23
-23
-23
-22
-21
-21
-21
-21
-21
-22
-23
-22
-21
-21
-21
-22
-23
-22
-21
-21
-21
-20
-19
-19
-19
-19
-19
-19
-19
-18
-17
-18
-19
-18
-17
-17
-15
-17
-8
-5
-6
-7
-5
-3
-1
1
0
-1
2
5
6
7
7
6
3
1
0
-2
-5
-9
-13
-16
-19
-21
-20
-19
-19
-19
-19
-19
-18
-17
-18
-19
-19
-19
-18
-17
-18
-17
-15
-13
-11
-8
-5
1
10
33
63
120
174
216
245
241
224
181
129
63
12
-23
-36
-26
-19
-15
-14
-16
-18
-20
-22
-24
-25
-25
-25
-25
-25
-24
-23
-22
-21
-22
-23
-23
-22
-21
-22
-23
-22
-21
-20
-19
-18
-17
-16
-15
-15
-15
-14
-13
-11
-9
-9
-9
-6
-4
-2
0
3
6
9
12
14
17
20
24
28
30
32
37
42
46
50
53
51
60
63
65
67
69
71
73
75
73
71
69
66
62
57
51
46
40
34
24
17
12
7
3
-2
-8
-12
-14
-16
-18
-19
-20
-21
-22
-23
-24
-25
-26
-27
-27
-27
-28
-28
-27
-27
-27
-27
-27
-26
-25
-26
-27
-27
-27
-26
-25
-26
-27
-27
-27
-26
-25
-25
-25
-25
-25
-26
-27
-26
-25
-25
-26
-28
-28
-26
-25
-25
-25
-25
-25
-25
-25
-26
-27
-27
-27
-27
-28
-29
-29
-29
-28
-27
-28
-29
-28
-27
-27
-27
-28
-29
-28
-27
-28
-29
-29
-29
-28
-27
-27
-26
-24
-24
-26
-27
-26
-25
-25
-25
-26
-27
-26
-25
-24
-23
-23
-24
-23
-24
-25
-24
-23
-23
-23
-24
-25
-24
-23
-23
-23
-22
-21
-21
-21
-22
-23
-22
-21
-21
-21
-22
-23
-22
-21
-21
-21
-21
-21
-20
-19
-20
-21
-21
-21
-20
-19
-20
-21
-21
-20
-19
-19
-19
-19
-19
-19
-19
-19
-19
-18
-17
-18
-19
-20
-21
-19
-17
-17
-17
-17
-17
-18
-19
-19
-19
-18
-17
-17
-17
-17
-17
-16
-15
-14
-11
-8
-7
-7
-7
-7
-4
-1
-1
-1
-1
-1
3
7
7
7
6
5
2
-1
-1
-2
-6
-11
-16
-19
-20
-21
-21
-21
-21
-21
-20
-19
-20
-21
-21
-21
-20
-19
-20
-21
-20
-19
-19
-18
-19
-11
-7
-3
3
25
52
106
157
193
219
208
185
134
82
29
-13
-35
-44
-32
-23
-18
-16
-18
-20
-23
-25
-25
-25
-25
-25
-26
-27
-26
-25
-25
-25
-26
-27
-26
-25
-26
-26
-25
-24
-23
-22
-21
-20
-19
-19
-19
-19
-19
-17
-15
-15
-15
-13
-11
-9
-7
-5
-2
1
3
4
6
9
13
17
20
22
26
30
34
38
42
46
50
54
56
58
60
63
65
67
67
67
67
67
64
61
57
52
47
41
33
25
19
13
6
-1
-7
-12
-15
-18
-21
-24
-27
-29
-29
-29
-30
-32
-34
-35
-34
-34
-36
-37
-36
-35
-35
-35
-35
-34
-33
-34
-35
-34
-33
-33
-33
-34
-35
-35
-35
-34
-33
-33
-33
-32
-31
-32
-33
-32
-31
-31
-31
-32
-33
-33
-33
-33
-33
-33
-33
-33
-33
-33
-33
-33
-33
-34
-35
-36
-36
-35
-35
-35
-35
-35
-34
-33
-34
-35
-34
-33
-33
-33
-35
-37
-36
-35
-34
-33
-33
-33
-32
-31
-32
-33
-32
-31
-31
-31
-32
-33
-32
-31
-31
-31
-30
-29
-29
-29
-30
-31
-29
-29
-29
-29
-29
-29
-29
-29
-29
-28
-27
-27
-27
-27
-27
-27
-27
-27
-27
-27
-27
-27
-27
-26
-25
-25
-25
-24
-23
-24
-25
-25
-25
-24
-23
-24
-25
-24
-23
-22
-21
-21
-21
-21
-21
-21
-21
-21
-21
-21
-21
-21
-20
-19
-19
-19
-19
-19
-18
-17
-17
-17
-14
-12
-9
-7
-8
-8
-5
-3
-2
-1
-1
2
6
7
6
5
5
4
2
0
-2
-7
-11
-14
-17
-18
-19
-18
-17
-18
-19
-19
-19
-19
-19
-19
-19
-19
-19
-19
-19
-17
-15
-14
-13
-12
-10
-7
2
13
40
74
130
195
223
240
213
176
116
52
7
-37
-34
-27
-19
-11
-14
-17
-18
-19
-20
-21
-22
-23
-22
-21
-22
-23
-22
-21
-21
-21
-21
-21
-21
-21
-20
-19
-19
-18
-16
-15
-15
-15
-15
-15
-14
-13
-12
-11
-10
-9
-8
-6
-7
0
3
4
5
7
9
12
15
17
19
24
28
32
36
39
42
46
50
53
56
59
62
65
67
68
70
72
73
74
74
72
69
66
61
56
50
44
37
30
22
14
8
3
-1
-5
-9
-13
-14
-15
-18
-21
-23
-25
-24
-23
-25
-27
-27
-27
-26
-25
-25
-25
-25
-25
-25
-25
-25
-25
-24
-23
-24
-25
-24
-23
-23
-23
-23
-23
-22
-21
-22
-23
-23
-23
-23
-25
-27
-26
-25
-25
-25
-25
-25
-24
-23
-24
-25
-25
-25
-25
-25
-26
-27
-26
-25
-26
-27
-27
-27
-26
-25
-25
-25
-25
-25
-25
-25
-26
-27
-27
-27
-26
-25
-25
-24
-23
-24
-25
-24
-23
-23
-23
-24
-25
-24
-23
-23
-23
-23
-23
-22
-21
-21
-21
-22
-23
-22
-21
-22
-23
-23
-23
-22
-21
-21
-21
-20
-19
-20
-21
-21
-21
-20
-19
-20
-20
-19
-18
-17
-18
-19
-18
-17
-18
-19
-19
-19
-17
-15
-17
-19
-19
-19
-18
-17
-16
-15
-15
-15
-16
-17
-16
-15
-16
-17
-17
-17
-16
-15
-15
-15
-15
-15
-14
-13
-14
-15
-13
-13
-13
-14
-15
-14
-13
-13
-13
-12
-11
-10
-9
-7
-5
-3
-1
-1
-1
0
1
4
5
5
6
9
12
14
13
10
8
6
5
4
-1
-8
-10
-12
-13
-14
-15
-15
-15
-13
-14
-15
-15
-15
-15
-15
-14
-13
-14
-15
-14
-13
-13
-13
-11
-8
-5
-1
6
23
50
98
162
206
238
235
214
164
103
44
-13
-27
-30
-24
-15
-13
-13
-15
-18
-20
-21
-21
-21
-21
-21
-20
-19
-20
-21
-22
-23
-22
-21
-21
-21
-21
-21
-20
-19
-19
-19
-18
-17
-17
-17
-16
-15
-14
-13
-12
-11
-10
-9
-8
-6
-4
-2
0
2
4
6
9
12
15
19
23
26
29
33
37
41
46
50
53
55
58
61
63
65
67
68
69
70
71
70
68
65
61
57
51
44
36
27
21
15
8
1
-4
-8
-11
-14
-17
-15
-23
-25
-27
-29
-30
-31
-30
-29
-32
-35
-34
-33
-33
-33
-33
-33
-32
-31
-31
-31
-31
-31
-31
-31
-32
-33
-32
-31
-31
-31
-32
-32
-30
-29
-30
-31
-31
-31
-31
-31
-32
-33
-33
-32
-31
-32
-33
-32
-31
-32
-33
-33
-33
-32
-31
-33
-35
-35
-35
-34
-33
-33
-33
-32
-31
-32
-33
-33
-33
-33
-33
-34
-35
-34
-33
-33
-33
-33
-33
-32
-31
-31
-31
-33
-32
-31
-31
-31
-31
-31
-31
-31
-30
-29
-28
-27
-28
-29
-29
-29
-29
-29
-30
-31
-30
-29
-28
-27
-27
-27
-27
-27
-27
-27
-27
-27
-27
-27
-28
-29
-28
-27
-27
-27
-27
-26
-25
-25
-25
-26
-27
-26
-25
-27
-29
-28
-27
-27
-27
-27
-27
-26
-25
-26
-27
-26
-25
-25
-25
-26
-27
-26
-25
-24
-23
-23
-21
-18
-17
-16
-15
-15
-14
-12
-11
-10
-8
-7
-6
-5
-3
-1
0
1
-1
-3
-5
-7
-9
-12
-17
-21
-23
-25
-26
-27
-27
-26
-24
-23
-24
-25
-26
-27
-26
-25
-26
-27
-26
-25
-24
-23
-22
-17
-12
-10
-8
12
33
87
139
180
216
206
189
138
86
27
-21
-40
-49
-35
-24
-21
-19
-21
-23
-25
-27
-28
-29
-29
-29
-29
-29
-28
-27
-27
-27
-27
-27
-26
-26
-28
-29
-28
-26
-24
-23
-23
-22
-21
-20
-19
-18
-17
-16
-15
-15
-15
-13
-11
-9
-7
-5
-2
1
3
4
6
11
14
17
20
22
25
29
34
39
42
44
48
53
56
58
61
64
66
68
69
69
68
67
65
63
59
55
50
44
37
30
22
14
8
2
-5
-10
-14
-17
-19
-22
-25
-27
-28
-29
-30
-31
-32
-33
-33
-33
-34
-35
-34
-33
-33
-33
-32
-31
-31
-31
-32
-33
-31
-30
-29
-30
-31
-31
-31
-31
-31
-30
-29
-28
-27
-28
-29
-29
-29
-29
-29
-30
-31
-31
-31
-31
-31
-31
-31
-30
-29
-30
-31
-31
-31
-30
-30
-32
-33
-32
-31
-31
-31
-31
-29
-29
-30
-31
-30
-29
-29
-29
-30
-31
-30
-29
-29
-29
-28
-27
-27
-27
-27
-27
-27
-27
-27
-27
-28
-29
-28
-27
-26
-25
-26
-27
-26
-25
-25
-25
-25
-25
-25
-25
-26
-26
-25
-24
-23
-23
-23
-23
-23
-24
-25
-24
-23
-23
-23
-24
-25
-23
-21
-21
-21
-21
-21
-21
-21
-20
-19
-20
-21
-21
-21
-21
-21
-21
-21
-20
-19
-19
-19
-18
-17
-18
-19
-17
-17
-17
-17
-17
-16
-15
-12
-9
-8
-7
-6
-5
-3
-1
-1
-1
-1
0
4
7
6
5
4
2
0
-1
-2
-6
-11
-14
-16
-17
-18
-19
-20
-21
-21
-21
-20
-19
-19
-19
-19
-20
-21
-19
-17
-17
-17
-16
-15
-12
-8
-3
9
33
72
136
187
222
238
231
204
159
104
42
-2
-35
-39
-27
-20
-15
-13
-14
-17
-20
-21
-22
-23
-23
-23
-23
-24
-25
-24
-23
-23
-23
-23
-23
-22
-21
-21
-21
-21
-21
-21
-21
-21
-21
-19
-17
-16
-14
-12
-11
-11
-11
-10
-8
-6
-5
-4
-1
2
6
10
12
14
19
24
26
28
32
37
41
45
47
49
52
55
58
61
64
67
69
71
71
71
70
68
65
61
55
49
42
36
29
21
14
8
3
-2
-7
-11
-16
-18
-20
-22
-24
-25
-26
-27
-28
-29
-29
-29
-29
-30
-31
-31
-31
-30
-29
-29
-29
-29
-29
-29
-29
-28
-27
-27
-27
-28
-29
-29
-29
-28
-27
-28
-29
-29
-29
-28
-27
-27
-27
-27
-27
-28
-29
-28
-27
-28
-29
-30
-30
-29
-29
-29
-29
-29
-29
-29
-29
-29
-29
-29
-29
-29
-30
-31
-31
-31
-30
-29
-29
-29
-29
-29
-29
-29
-29
-29
-29
-29
-30
-31
-30
-29
-28
-27
-27
-27
-26
-25
-26
-27
-27
-27
-27
-28
-29
-28
-27
-26
-25
-25
-25
-25
-25
-25
-25
-26
-27
-26
-25
-25
-25
-25
-25
-25
-25
-25
-24
-22
-21
-22
-23
-23
-23
-23
-23
-23
-23
-23
-23
-22
-21
-21
-21
-19
-20
-21
-21
-21
-21
-21
-21
-21
-21
-21
-21
-21
-21
-21
-19
-17
-18
-19
-19
-19
-19
-19
-19
-19
-19
-19
-19
-19
-18
-17
-16
-15
-16
-16
-14
-11
-8
-7
-7
-6
-5
-3
-1
0
1
2
3
5
7
6
5
3
1
0
-2
-5
-8
-12
-15
-17
-19
-19
-19
-19
-19
-20
-21
-21
-21
-21
-21
-21
-21
-21
-21
-20
-18
-16
-15
-14
-11
-7
0
8
36
67
129
186
220
246
236
216
162
105
42
-7
-32
-42
-28
-19
-17
-15
-18
-20
-22
-23
-24
-25
-24
-23
-24
-25
-25
-25
-25
-25
-25
-25
-25
-25
-25
-25
-25
-22
-21
-21
-21
-21
-21
-20
-19
-18
-17
-16
-15
-13
-11
-10
-9
-7
-5
-3
-1
2
4
7
9
10
14
19
23
26
29
33
38
42
45
48
51
54
57
60
61
62
66
69
70
71
70
69
66
62
56
50
43
36
28
21
14
8
3
-2
-6
-10
-13
-16
-18
-20
-23
-25
-26
-27
-27
-28
-30
-31
-31
-31
-30
-29
-29
-29
-29
-29
-29
-29
-29
-28
-27
-28
-29
-29
-29
-29
-29
-29
-29
-28
-27
-28
-29
-28
-27
-27
-27
-28
-29
-29
-29
-28
-27
-28
-29
-28
-27
-28
-29
-29
-29
-29
-29
-30
-31
-30
-29
-29
-29
-29
-28
-27
-29
-31
-30
-29
-29
-29
-30
-31
-30
-29
-29
-29
-28
-27
-26
-25
-26
-27
-27
-27
-27
-27
-28
-29
-28
-27
-26
-25
-25
-25
-25
-25
-25
-25
-25
-25
-25
-25
-26
-26
-25
-24
-23
-23
-23
-22
-21
-22
-23
-22
-21
-21
-21
-22
-23
-23
-23
-22
-21
-21
-20
-18
-18
-20
-21
-21
-21
-20
-20
-22
-22
-20
-19
-18
-17
-18
-19
-18
-17
-18
-19
-17
-17
-17
-19
-21
-19
-17
-17
-17
-17
-17
-16
-15
-16
-17
-16
-15
-15
-15
-16
-17
-16
-15
-14
-12
-9
-6
-4
-3
-4
-4
-2
0
2
3
2
3
6
7
8
9
9
7
5
3
1
-3
-7
-10
-13
-15
-17
-17
-17
-17
-17
-17
-17
-17
-17
-17
-17
-17
-17
-16
-15
-16
-17
-16
-13
-10
-8
-6
1
9
27
47
99
156
194
228
219
206
158
110
57
5
-21
-44
-29
-17
-14
-11
-13
-15
-16
-17
-19
-21
-20
-19
-20
-21
-21
-21
-20
-19
-19
-19
-19
-19
-19
-19
-20
-20
-18
-17
-16
-15
-14
-13
-12
-11
-11
-11
-9
-8
-7
-6
-5
-3
-1
1
3
5
8
12
15
17
20
23
26
30
33
35
38
43
47
51
54
57
61
65
67
68
70
72
73
74
75
74
72
70
65
60
56
59
44
37
29
21
15
9
4
-1
-7
-11
-14
-17
-19
-21
-23
-25
-25
-25
-26
-27
-27
-27
-28
-29
-29
-29
-28
-27
-27
-27
-27
-27
-26
-25
-26
-27
-27
-27
-27
-27
-28
-28
-27
-26
-25
-25
-25
-24
-23
-24
-25
-25
-25
-25
-25
-26
-27
-27
-27
-27
-27
-27
-27
-26
-25
-26
-27
-27
-27
-27
-27
-27
-27
-28
-29
-28
-27
-27
-27
-27
-27
-27
-27
-29
-28
-27
-28
-29
-28
-27
-27
-27
-27
-27
-26
-25
-26
-27
-27
-27
-26
-25
-26
-27
-27
-27
-26
-25
-25
-25
-24
-23
-24
-25
-25
-25
-24
-23
-24
-25
-25
-25
-24
-23
-23
-22
-21
-22
-23
-22
-21
-21
-21
-22
-23
-22
-21
-20
-19
-20
-21
-20
-19
-20
-21
-20
-19
-19
-19
-20
-21
-20
-19
-18
-17
-18
-19
-18
-17
-17
-17
-18
-19
-18
-17
-17
-17
-17
-15
-13
-10
-7
-7
-7
-5
-3
-2
-1
0
1
2
3
5
7
7
6
3
1
1
-1
-5
-9
-13
-15
-16
-18
-20
-21
-21
-21
-20
-19
-19
-19
-18
-17
-18
-19
-19
-18
-17
-16
-15
-12
-9
-7
-3
11
29
65
108
166
210
228
229
201
159
99
43
-7
-32
-34
-29
-18
-13
-13
-15
-18
-19
-20
-21
-21
-22
-24
-25
-25
-24
-22
-21
-21
-22
-21
-21
-21
-20
-19
-19
-19
-19
-19
-18
-17
-17
-17
-16
-15
-13
-11
-10
-9
-8
-6
-4
-3
-3
-2
0
3
6
9
12
15
18
21
24
27
30
35
40
42
44
49
53
56
59
62
65
67
69
70
71
70
69
69
68
64
60
55
49
43
37
31
25
20
14
6
1
-3
-7
-11
-15
-19
-21
-22
-23
-24
-25
-26
-27
-27
-27
-27
-27
-29
-28
-27
-28
-29
-29
-29
-28
-27
-27
-27
-27
-27
-27
-27
-27
-27
-27
-27
-27
-27
-28
-29
-28
-27
-28
-29
-28
-27
-27
-27
-27
-27
-27
-27
-27
-27
-28
-29
-29
-29
-29
-29
-29
-29
-29
-29
-29
-29
-29
-28
-27
-29
-31
-30
-29
-29
-29
-29
-29
-29
-29
-29
-29
-29
-29
-28
-27
-28
-29
-29
-29
-29
-29
-28
-27
-27
-27
-27
-27
-28
-28
-26
-26
-27
-27
-27
-26
-25
-26
-27
-26
-25
-26
-27
-26
-25
-25
-25
-26
-27
-26
-25
-25
-25
-25
-25
-24
-23
-23
-23
-24
-25
-24
-23
-24
-24
-22
-22
-24
-25
-24
-23
-22
-21
-21
-21
-21
-21
-21
-21
-21
-21
-21
-21
-21
-20
-19
-20
-21
-21
-21
-21
-21
-21
-21
-21
-21
-20
-19
-18
-17
-17
-16
-14
-11
-8
-7
-7
-7
-7
-6
-4
-3
-2
0
-1
5
7
5
3
0
-3
-3
-3
-7
-11
-16
-19
-19
-19
-20
-21
-21
-21
-22
-23
-22
-21
-21
-21
-22
-23
-23
-23
-22
-21
-20
-19
-18
-15
-12
-8
-4
15
35
86
140
191
241
241
237
186
133
68
8
-23
-45
-34
-24
-20
-17
-21
-23
-25
-27
-27
-27
-27
-27
-27
-27
-28
-29
-29
-29
-28
-27
-28
-29
-28
-27
-26
-25
-25
-25
-24
-23
-23
-23
-21
-21
-21
-20
-19
-18
-17
-15
-13
-12
-11
-8
-5
-4
-2
1
3
5
8
11
14
17
21
25
29
33
37
41
44
46
49
52
55
58
59
60
62
64
65
66
66
67
60
57
51
45
38
30
23
16
10
4
-1
-5
-8
-12
-16
-19
-21
-23
-25
-27
-30
-31
-32
-33
-33
-33
-34
-35
-34
-33
-34
-35
-34
-33
-33
-33
-33
-33
-33
-33
-34
-34
-33
-33
-33
-33
-33
-32
-31
-31
-31
-32
-33
-32
-31
-33
-35
-34
-33
-33
-33
-32
-31
-32
-33
-33
-33
-33
-33
-33
-33
-34
-35
-35
-35
-34
-33
-33
-33
-33
-33
-33
-33
-33
-33
-33
-34
-35
-34
-33
-33
-33
-33
-33
-32
-31
-32
-33
-33
-33
-32
-31
-32
-33
-32
-31
-31
-31
-31
-31
-30
-29
-30
-31
-31
-31
-30
-29
-30
-31
-30
-29
-29
-29
-29
-28
-27
-27
-27
-28
-29
-28
-27
-27
-27
-27
-27
-26
-25
-25
-25
-25
-25
-25
-25
-26
-27
-26
-25
-26
-27
-27
-27
-26
-25
-25
-25
-24
-23
-24
-25
-24
-23
-23
-23
-24
-25
-25
-24
-23
-23
-23
-22
-21
-22
-23
-22
-21
-20
-19
-20
-20
-16
-13
-13
-13
-12
-10
-7
-5
-5
-5
-5
-3
1
3
2
0
-2
-3
-4
-5
-6
-11
-16
-19
-22
-23
-23
-24
-25
-26
-27
-26
-25
-24
-23
-24
-25
-24
-23
-23
-23
-22
-21
-20
-19
-17
-14
-11
1
22
61
113
159
202
216
214
186
147
96
42
-1
-41
-44
-40
-30
-20
-19
-19
-21
-23
-25
-27
-28
-29
-28
-27
-28
-29
-29
-29
-29
-29
-28
-27
-27
-27
-27
-27
-27
-27
-26
-25
-25
-25
-24
-22
-20
-19
-18
-17
-16
-15
-14
-13
-12
-10
-8
-6
-4
-2
-1
2
5
8
11
14
17
21
25
28
31
34
38
42
45
47
50
54
57
59
62
64
65
66
67
66
64
60
56
51
43
35
29
24
18
10
4
-2
-6
-10
-15
-21
-24
-27
-29
-31
-32
-33
-34
-35
-35
-35
-35
-35
-35
-35
-35
-35
-35
-35
-35
-35
-35
-35
-35
-35
-34
-33
-33
-33
-33
-33
-33
-33
-32
-32
-34
-35
-34
-33
-33
-33
-33
-31
-31
-32
-33
-34
-35
-34
-33
-34
-35
-35
-35
-34
-33
-34
-35
-35
-35
-34
-33
-34
-35
-35
-35
-35
-35
-35
-35
-34
-33
-34
-35
-34
-33
-33
-33
-32
-31
-31
-32
-34
-33
-31
-31
-31
-31
-31
-30
-29
-29
-29
-30
-31
-30
-29
-30
-31
-31
-31
-30
-29
-28
-27
-26
-25
-26
-27
-27
-27
-27
-27
-27
-27
-27
-27
-26
-25
-25
-25
-24
-23
-23
-23
-25
-24
-23
-25
-27
-26
-25
-24
-23
-23
-23
-22
-21
-21
-21
-21
-21
-21
-21
-22
-23
-22
-21
-21
-21
-20
-19
-19
-19
-19
-19
-19
-19
-19
-19
-19
-19
-19
-19
-18
-17
-17
-17
-17
-16
-15
-16
-17
-17
-17
-16
-15
-15
-15
-14
-13
-11
-9
-8
-7
-6
-5
-2
-1
0
1
2
4
6
7
8
9
8
6
4
3
2
-2
-6
-10
-14
-15
-16
-18
-19
-18
-17
-17
-17
-18
-19
-18
-17
-18
-19
-19
-19
-17
-15
-16
-16
-13
-10
-7
-2
5
24
51
100
162
203
232
227
207
154
90
34
-19
-30
-32
-24
-12
-12
-14
-15
-17
-18
-19
-22
-25
-23
-21
-21
-21
-21
-21
-20
-19
-20
-21
-21
-21
-20
-19
-20
-21
-20
-19
-18
-16
-14
-13
-12
-11
-11
-11
-10
-8
-6
-5
-5
-4
-2
1
4
6
5
12
15
17
19
23
27
31
35
38
41
46
50
54
57
59
62
65
67
68
69
70
71
71
70
68
66
63
58
53
47
41
35
29
22
15
9
4
0
-4
-9
-14
-17
-19
-20
-21
-22
-23
-23
-23
-24
-25
-26
-27
-27
-27
-27
-27
-28
-29
-28
-27
-27
-27
-27
-27
-27
-27
-27
-27
-27
-27
-27
-27
-27
-27
-27
-27
-27
-27
-26
-25
-25
-25
-27
-27
-27
-27
-27
-28
-29
-28
-27
-27
-27
-28
-29
-28
-27
-28
-29
-29
-29
-28
-27
-30
-31
-30
-29
-29
-29
-29
-29
-28
-27
-28
-29
-29
-29
-28
-27
-28
-29
-28
-27
-27
-27
-27
-26
-25
-26
-27
-26
-25
-26
-27
-27
-27
-26
-25
-25
-25
-24
-23
-24
-25
-25
-25
-25
-25
-25
-25
-25
-25
-24
-23
-23
-23
-22
-21
-22
-23
-23
-23
-23
-23
-23
-23
-23
-22
-21
-21
-21
-21
-21
-21
-21
-21
-21
-21
-21
-22
-23
-22
-21
-20
-19
-19
-19
-18
-17
-18
-19
-19
-19
-19
-19
-20
-21
-20
-19
-19
-19
-18
-17
-16
-15
-14
-12
-9
-8
-7
-7
-7
-5
-3
-2
-1
1
3
5
7
5
3
1
-1
-2
-5
-10
-14
-17
-19
-19
-19
-20
-21
-21
-21
-22
-23
-22
-21
-21
-21
-22
-23
-23
-23
-22
-20
-21
-15
-13
-11
-9
-2
8
35
68
129
184
217
238
226
199
143
85
26
-16
-35
-40
-27
-20
-17
-17
-21
-24
-26
-27
-27
-27
-27
-27
-26
-25
-26
-27
-28
-29
-28
-27
-28
-28
-27
-26
-25
-24
-23
-23
-23
-22
-21
-21
-21
-20
-19
-19
-19
-17
-15
-13
-11
-10
-8
-6
-4
-2
0
2
4
6
9
12
16
20
24
28
31
34
38
42
46
50
52
55
57
59
62
65
65
65
66
67
65
63
60
56
51
45
39
33
26
19
13
7
0
-5
-9
-13
-17
-20
-23
-25
-26
-28
-30
-31
-31
-31
-31
-31
-32
-33
-33
-33
-33
-33
-33
-32
-31
-32
-33
-33
-33
-32
-31
-32
-33
-33
-33
-33
-33
-32
-31
-30
-29
-30
-31
-32
-33
-33
-33
-33
-33
-32
-31
-31
-31
-31
-31
-32
-33
-33
-33
-33
-33
-34
-35
-35
-35
-35
-34
-33
-32
-31
-32
-33
-33
-33
-32
-31
-33
-35
-35
-35
-34
-33
-33
-33
-32
-31
-32
-33
-32
-31
-31
-31
-32
-33
-32
-31
-31
-31
-30
-29
-29
-29
-29
-29
-29
-29
-29
-29
-29
-29
-29
-28
-27
-27
-27
-26
-25
-27
-29
-28
-27
-27
-27
-28
-29
-28
-27
-26
-25
-24
-23
-23
-23
-24
-25
-24
-23
-24
-25
-25
-25
-24
-23
-23
-23
-23
-22
-21
-22
-23
-22
-21
-21
-21
-22
-23
-22
-21
-21
-21
-20
-19
-17
-15
-13
-11
-11
-11
-10
-9
-8
-7
-6
-5
-4
-1
2
3
4
4
2
0
-2
-3
-4
-9
-14
-17
-19
-20
-21
-21
-21
-21
-21
-22
-23
-22
-21
-21
-21
-22
-23
-21
-19
-19
-19
-18
-15
-11
-9
-9
-2
12
38
72
121
176
201
215
195
163
112
56
11
-33
-37
-36
-26
-15
-15
-15
-18
-21
-21
-21
-21
-21
-22
-23
-22
-21
-22
-23
-22
-21
-21
-21
-22
-23
-22
-21
-21
-21
-20
-18
-16
-15
-15
-15
-14
-13
-12
-11
-11
-11
-10
-7
-4
-3
-3
2
5
7
9
11
13
16
19
22
25
30
33
36
40
44
48
51
54
57
60
63
66
68
70
72
73
74
75
74
71
68
64
59
52
45
38
32
25
18
10
2
-3
-7
-11
-15
-17
-19
-20
-21
-24
-27
-27
-27
-27
-27
-28
-29
-29
-29
-29
-29
-28
-27
-27
-27
-27
-27
-27
-27
-26
-25
-26
-27
-27
-27
-26
-25
-25
-25
-24
-23
-24
-25
-25
-25
-25
-26
-27
-26
-25
-25
-25
-25
-25
-24
-23
-25
-27
-27
-27
-27
-27
-28
-29
-28
-27
-27
-27
-27
-27
-26
-25
-26
-27
-27
-27
-26
-26
-28
-29
-28
-27
-26
-25
-25
-23
-23
-24
-25
-25
-25
-24
-23
-24
-25
-24
-23
-23
-23
-22
-21
-21
-21
-21
-21
-21
-21
-21
-21
-22
-23
-23
-23
-22
-21
-21
-20
-18
-18
-20
-21
-20
-19
-19
-19
-19
-20
-21
-19
-17
-17
-17
-16
-15
-16
-17
-17
-17
-16
-15
-17
-19
-18
-17
-16
-15
-15
-15
-15
-15
-15
-15
-15
-15
-15
-15
-15
-15
-14
-13
-12
-9
-6
-5
-4
-3
-3
-1
3
3
3
4
5
6
7
9
11
10
9
7
5
4
2
-2
-6
-10
-13
-13
-13
-16
-17
-16
-15
-15
-15
-15
-15
-15
-15
-15
-15
-15
-15
-14
-13
-13
-11
-8
-6
-7
9
22
58
96
159
215
231
240
210
173
110
53
6
-26
-29
-28
-17
-11
-10
-10
-13
-16
-19
-21
-21
-21
-22
-23
-22
-21
-21
-21
-21
-21
-20
-19
-19
-19
-19
-19
-19
-19
-19
-18
-17
-16
-15
-15
-15
-13
-11
-11
-11
-10
-9
-7
-5
-4
-2
1
3
5
8
10
13
17
20
23
26
30
33
37
42
46
50
54
57
60
63
66
68
70
71
73
73
73
70
67
64
61
54
48
41
34
28
21
14
8
4
-1
-6
-11
-16
-19
-22
-23
-24
-25
-25
-25
-26
-27
-28
-29
-29
-29
-29
-29
-30
-31
-30
-29
-29
-29
-29
-27
-27
-28
-29
-29
-29
-28
-27
-29
-31
-30
-29
-28
-27
-27
-27
-26
-25
-27
-29
-28
-27
-27
-28
-30
-31
-30
-29
-28
-27
-28
-29
-28
-27
-28
-29
-29
-29
-28
-28
-30
-30
-29
-29
-29
-29
-29
-28
-27
-28
-29
-29
-29
-28
-27
-29
-31
-30
-29
-29
-29
-29
-29
-28
-27
-28
-29
-28
-27
-27
-27
-27
-27
-27
-27
-27
-27
-26
-25
-25
-25
-25
-25
-25
-24
-23
-23
-23
-24
-25
-24
-23
-23
-23
-22
-21
-21
-21
-22
-23
-22
-21
-21
-21
-21
-21
-21
-21
-21
-21
-20
-19
-19
-19
-19
-19
-19
-19
-19
-19
-19
-19
-19
-19
-19
-17
-17
-17
-17
-17
-17
-18
-19
-18
-17
-18
-19
-18
-17
-17
-17
-16
-15
-15
-15
-15
-15
-15
-15
-15
-15
-16
-17
-16
-15
-15
-15
-15
-15
-15
-15
-14
-13
-13
-13
-13
-14
-15
-14
-13
-13
-13
-13
-13
-13
-13
-13
-13
-13
-13
-14
-15
-14
-13
-12
-11
-11
-11
-10
-9
-10
-10
-8
-6
-2
-1
-2
-3
-2
1
4
6
8
10
12
13
12
11
13
10
7
5
3
-1
-5
-10
-15
-15
-15
-14
-13
-15
-17
-17
-17
-16
-15
-17
-19
-18
-17
-17
-17
-16
-14
-12
-11
-11
-9
-6
2
11
32
57
111
169
208
245
239
247
183
136
71
9
-18
-40
-27
-17
-16
-15
-16
-17
-18
-19
-20
-21
-21
-21
-22
-23
-23
-23
-23
-23
-24
-25
-24
-23
-22
-21
-21
-21
-20
-19
-19
-19
-19
-19
-18
-17
-17
-16
-15
-13
-11
-10
-9
-7
-5
-4
-3
-1
1
4
7
8
10
13
17
22
26
30
34
37
41
45
48
51
54
58
60
62
64
66
69
72
73
74
75
74
69
64
59
53
46
39
31
23
17
11
6
1
-3
-8
-12
-15
-18
-21
-22
-23
-24
-25
-27
-29
-29
-29
-29
-29
-29
-29
-29
-29
-29
-29
-29
-29
-29
-29
-30
-31
-30
-29
-28
-27
-27
-28
-27
-28
-29
-29
-29
-28
-27
-28
-29
-29
-29
-29
-29
-28
-27
-27
-27
-28
-29
-29
-29
-29
-30
-32
-33
-32
-31
-31
-31
-31
-31
-31
-31
-32
-33
-32
-31
-30
-29
-30
-31
-31
-31
-31
-31
-31
-30
-29
-30
-31
-30
-29
-29
-29
-30
-31
-30
-29
-29
-29
-29
-29
-28
-27
-28
-29
-28
-27
-27
-27
-28
-29
-28
-27
-26
-25
-25
-25
-25
-25
-26
-27
-25
-25
-25
-26
-27
-27
-27
-26
-25
-24
-23
-23
-23
-23
-23
-23
-23
-24
-25
-25
-25
-25
-25
-24
-23
-23
-23
-22
-21
-22
-23
-23
-23
-23
-23
-24
-25
-24
-23
-22
-21
-21
-22
-21
-21
-21
-21
-21
-21
-21
-21
-21
-19
-17
-15
-13
-12
-11
-9
-7
-6
-5
-5
-5
-4
-2
1
3
2
1
0
-2
-4
-6
-8
-13
-18
-20
-22
-23
-24
-25
-25
-25
-25
-25
-25
-25
-25
-25
-25
-25
-25
-24
-23
-23
-23
-22
-20
-17
-15
-13
-5
8
33
71
119
176
204
213
197
164
112
52
4
-39
-45
-39
-31
-23
-21
-20
-20
-22
-24
-27
-27
-27
-28
-29
-30
-31
-30
-29
-28
-27
-27
-27
-27
-27
-27
-27
-27
-27
-27
-27
-26
-25
-24
-23
-22
-21
-20
-18
-16
-15
-15
-14
-12
-11
-11
-9
-6
-3
0
3
1
11
15
17
19
23
27
31
35
38
41
46
49
52
56
59
62
65
67
67
67
67
66
64
60
54
48
42
35
28
20
13
7
1
-6
-13
-18
-22
-25
-28
-31
-34
-35
-35
-36
-37
-38
-39
-39
-39
-39
-39
-39
-39
-39
-39
-40
-41
-40
-39
-39
-39
-39
-39
-38
-37
-37
-37
-38
-39
-38
-37
-37
-37
-37
-37
-37
-37
-37
-37
-36
-35
-36
-37
-37
-37
-37
-39
-41
-40
-39
-39
-39
-39
-39
-38
-37
-38
-39
-39
-39
-39
-39
-40
-41
-41
-41
-40
-39
-38
-37
-38
-39
-39
-39
-38
-37
-37
-37
-38
-39
-39
-39
-38
-37
-37
-36
-35
-36
-37
-36
-35
-35
-35
-36
-37
-36
-35
-34
-33
-33
-33
-33
-33
-33
-33
-33
-33
-32
-31
-32
-33
-33
-33
-32
-31
-31
-31
-30
-29
-30
-31
-30
-29
-29
-29
-30
-31
-31
-30
-29
-28
-27
-27
-27
-27
-27
-27
-27
-26
-25
-26
-27
-27
-27
-26
-25
-25
-25
-25
-25
-26
-27
-26
-25
-25
-25
-26
-27
-26
-25
-24
-23
-23
-23
-22
-21
-22
-23
-21
-18
-15
-14
-13
-12
-11
-9
-7
-6
-5
-5
-5
-2
1
2
3
1
-2
-5
-7
-8
-11
-15
-18
-20
-21
-22
-23
-23
-23
-24
-25
-24
-23
-24
-25
-24
-23
-23
-23
-23
-20
-19
-19
-19
-16
-13
-10
-5
8
27
65
109
167
211
223
220
191
147
83
28
-18
-40
-37
-31
-23
-19
-19
-19
-20
-22
-24
-25
-25
-25
-25
-25
-25
-25
-25
-26
-28
-27
-25
-25
-25
-24
-23
-23
-23
-23
-23
-22
-21
-20
-19
-19
-19
-18
-17
-16
-15
-13
-10
-8
-7
-6
-4
-2
0
4
6
8
11
14
18
22
25
28
33
38
40
42
46
51
55
59
60
61
64
67
69
71
71
71
69
66
61
55
49
43
38
31
22
15
10
5
0
-5
-9
-12
-15
-19
-23
-25
-26
-27
-28
-31
-34
-35
-34
-33
-33
-33
-33
-32
-31
-32
-33
-32
-31
-31
-31
-32
-33
-32
-31
-30
-29
-30
-31
-30
-29
-29
-29
-29
-29
-29
-29
-30
-31
-30
-29
-29
-29
-29
-29
-28
-27
-28
-29
-30
-31
-31
-31
-32
-33
-33
-32
-31
-31
-31
-31
-31
-31
-31
-31
-31
-31
-31
-32
-33
-33
-33
-32
-31
-30
-29
-29
-29
-30
-31
-31
-31
-31
-31
-31
-31
-31
-31
-30
-29
-29
-29
-28
-28
-30
-31
-29
-28
-27
-28
-29
-29
-29
-28
-27
-27
-27
-27
-27
-27
-27
-27
-27
-26
-25
-27
-29
-28
-27
-26
-25
-25
-25
-24
-23
-24
-25
-25
-25
-24
-23
-24
-25
-25
-25
-24
-23
-23
-22
-21
-22
-23
-23
-23
-22
-21
-23
-25
-24
-23
-22
-21
-22
-23
-22
-21
-22
-23
-22
-21
-21
-21
-22
-23
-22
-21
-21
-21
-21
-21
-21
-21
-21
-21
-21
-21
-20
-19
-20
-20
-19
-19
-19
-19
-19
-18
-17
-18
-19
-19
-19
-18
-17
-19
-21
-20
-19
-19
-19
-18
-17
-17
-17
-17
-17
-17
-17
-17
-17
-17
-15
-12
-10
-8
-7
-6
-4
-2
-1
0
3
7
8
9
7
5
5
5
3
1
0
-2
-6
-10
-15
-19
-20
-21
-20
-19
-20
-21
-21
-21
-21
-21
-21
-21
-21
-21
-20
-19
-19
-19
-18
-16
-14
-12
-10
3
16
48
17
144
205
226
244
228
206
154
100
36
-16
-33
-42
-28
-19
-18
-17
-18
-20
-23
-25
-26
-27
-27
-27
-28
-29
-29
-29
-29
-29
-28
-27
-26
-25
-26
-27
-26
-25
-25
-25
-25
-24
-23
-22
-21
-20
-19
-18
-17
-16
-15
-14
-13
-12
-11
-9
-7
-6
-4
-1
2
5
8
11
15
19
22
25
28
32
35
39
43
46
50
54
58
62
64
66
68
70
71
71
69
67
63
59
54
49
42
36
30
24
17
10
4
-2
-7
-12
-15
-18
-22
-25
-26
-27
-28
-29
-30
-31
-30
-29
-30
-31
-31
-31
-32
-33
-32
-31
-31
-31
-31
-31
-31
-30
-29
-30
-31
-31
-31
-31
-31
-32
-33
-32
-31
-31
-31
-31
-31
-30
-29
-30
-31
-30
-29
-30
-31
-32
-33
-33
-33
-32
-31
-31
-31
-31
-31
-32
-33
-33
-33
-33
-33
-33
-33
-33
-33
-33
-33
-33
-32
-31
-32
-33
-32
-31
-30
-29
-31
-33
-32
-31
-30
-29
-29
-29
-29
-29
-30
-31
-30
-29
-29
-29
-30
-31
-30
-29
-28
-27
-27
-27
-27
-27
-27
-27
-27
-27
-27
-27
-27
-27
-27
-27
-27
-27
-27
-26
-25
-25
-25
-25
-25
-25
-25
-26
-27
-27
-26
-24
-23
-23
-23
-23
-23
-23
-23
-23
-23
-23
-23
-24
-25
-24
-23
-23
-23
-23
-21
-21
-22
-23
-22
-21
-21
-21
-22
-23
-21
-19
-19
-18
-15
-13
-11
-9
-9
-9
-6
-5
-4
-3
-4
-4
-1
1
2
3
3
2
0
-2
-4
-8
-12
-15
-18
-20
-22
-23
-23
-22
-21
-21
-21
-21
-21
-22
-23
-23
-23
-21
-19
-19
-19
-19
-18
-15
-13
-11
-6
1
18
43
87
146
186
215
214
196
153
101
48
-5
-27
-43
-34
-21
-18
-16
-16
-19
-20
-21
-23
-25
-25
-25
-25
-25
-25
-25
-23
-21
-22
-23
-23
-23
-22
-21
-22
-23
-22
-21
-20
-19
-18
-17
-16
-15
-14
-13
-12
-11
-10
-9
-9
-7
-4
-2
0
2
1
8
11
14
17
19
21
26
31
33
35
40
44
49
54
57
60
64
67
69
71
74
75
76
76
74
72
70
67
63
57
51
44
37
30
23
15
8
2
-4
-9
-14
-17
-19
-22
-25
-25
-25
-27
-29
-30
-31
-31
-31
-30
-29
-30
-31
-31
-31
-30
-29
-29
-29
-28
-27
-28
-29
-29
-29
-28
-27
-28
-29
-28
-27
-27
-27
-27
-27
-27
-27
-27
-27
-27
-26
-25
-26
-27
-27
-27
-27
-27
-27
-27
-27
-27
-28
-29
-28
-27
-27
-27
-28
-29
-28
-27
-27
-27
-27
-27
-26
-25
-26
-27
-27
-27
-26
-26
-28
-29
-28
-27
-26
-25
-25
-24
-23
-24
-25
-24
-23
-22
-21
-23
-25
-24
-23
-22
-21
-21
-21
-20
-19
-20
-21
-21
-21
-21
-21
-22
-23
-22
-21
-20
-19
-20
-21
-20
-19
-19
-19
-19
-19
-19
-19
-19
-19
-19
-18
-17
-18
-19
-17
-15
-16
-17
-17
-17
-17
-17
-18
-19
-18
-17
-16
-15
-15
-15
-15
-15
-14
-13
-14
-15
-14
-13
-14
-15
-15
-15
-14
-13
-13
-13
-12
-11
-11
-11
-11
-12
-13
-13
-13
-12
-11
-10
-9
-6
-3
-1
1
0
-1
1
3
4
5
5
6
9
11
11
11
10
9
8
6
4
0
-5
-9
-12
-14
-16
-17
-16
-15
-15
-15
-15
-13
-13
-14
-15
-15
-15
-14
-13
-13
-13
-11
-9
-6
-1
5
15
34
67
119
169
216
239
238
208
154
95
33
-6
-33
-33
-21
-14
-9
-9
-12
-14
-16
-17
-18
-20
-22
-22
-21
-21
-21
-21
-21
-20
-19
-20
-21
-20
-19
-19
-19
-19
-19
-18
-17
-17
-17
-16
-15
-14
-13
-13
-13
-12
-10
-8
-7
-7
-6
-4
-2
0
3
6
9
12
14
16
19
23
27
31
34
37
42
47
51
55
58
62
66
69
70
71
72
73
74
74
71
68
65
60
54
48
42
36
30
22
14
8
3
-2
-6
-11
-16
-18
-20
-21
-22
-23
-23
-25
-25
-27
-29
-29
-29
-29
-29
-30
-31
-30
-29
-29
-29
-29
-29
-28
-27
-28
-29
-29
-29
-28
-28
-30
-31
-30
-29
-28
-27
-27
-27
-27
-27
-28
-29
-29
-29
-28
-28
-30
-30
-29
-29
-29
-29
-29
-29
-29
-29
-29
-29
-29
-29
-29
-30
-31
-31
-31
-30
-29
-30
-31
-30
-29
-30
-31
-30
-29
-28
-27
-28
-29
-29
-29
-29
-29
-29
-29
-28
-27
-28
-29
-27
-27
-27
-28
-29
-28
-27
-27
-27
-26
-25
-25
-25
-26
-27
-26
-25
-26
-27
-26
-25
-25
-25
-25
-25
-24
-23
-23
-23
-23
-23
-23
-23
-22
-22
-24
-25
-24
-23
-22
-21
-21
-21
-21
-21
-21
-21
-21
-20
-19
-20
-21
-21
-21
-20
-19
-19
-19
-19
-19
-19
-19
-19
-19
-19
-19
-20
-21
-21
-21
-20
-19
-19
-19
-18
-17
-17
-17
-17
-17
-17
-17
-17
-18
-19
-17
-15
-16
-17
-16
-15
-14
-13
-11
-9
-7
-5
-4
-3
-3
-3
-1
1
2
4
7
9
9
9
8
6
4
3
2
-2
-7
-12
-16
-17
-18
-19
-19
-19
-18
-17
-19
-19
-19
-18
-17
-18
-19
-19
-19
-18
-17
-15
-13
-11
-8
-5
1
14
37
75
124
186
225
244
237
208
157
93
37
-14
-29
-29
-23
-15
-13
-14
-17
-20
-21
-22
-23
-23
-23
-23
-23
-23
-23
-23
-23
-23
-24
-25
-24
-23
-23
-23
-22
-21
-19
-17
-17
-17
-17
-17
-16
-15
-15
-14
-12
-11
-10
-8
-6
-4
-2
0
2
4
6
9
12
15
18
23
27
31
35
39
43
47
51
54
57
60
63
66
69
71
73
74
75
74
72
69
65
61
55
47
39
32
25
18
12
7
1
-5
-9
-12
-14
-16
-18
-20
-22
-24
-25
-25
-25
-25
-27
-29
-28
-27
-27
-27
-27
-27
-26
-25
-26
-27
-27
-27
-27
-27
-28
-29
-26
-25
-25
-25
-25
-25
-24
-23
-24
-25
-25
-25
-25
-25
-26
-27
-27
-27
-26
-25
-25
-25
-25
-26
-27
-27
-27
-27
-27
-28
-29
-28
-27
-27
-27
-27
-27
-26
-25
-27
-29
-28
-27
-26
-26
-28
-29
-28
-27
-27
-27
-27
-27
-26
-25
-25
-25
-26
-27
-26
-25
-26
-26
-25
-25
-25
-25
-25
-25
-25
-25
-25
-25
-25
-24
-23
-25
-27
-26
-25
-24
-23
-23
-23
-22
-21
-22
-23
-23
-23
-22
-21
-22
-23
-23
-23
-22
-21
-20
-19
-19
-19
-20
-21
-21
-20
-19
-20
-21
-21
-21
-20
-19
-19
-19
-18
-17
-18
-19
-19
-19
-18
-17
-18
-19
-19
-19
-18
-17
-17
-17
-16
-15
-16
-17
-16
-15
-15
-15
-16
-17
-17
-16
-14
-13
-13
-9
-7
-7
-7
-6
-5
-1
3
1
-1
0
2
6
9
9
8
5
3
2
0
-3
-7
-12
-16
-18
-19
-20
-21
-20
-19
-19
-19
-19
-19
-20
-21
-21
-21
-20
-20
-22
-21
-19
-18
-17
-15
-13
-10
-7
-1
7
29
59
112
160
196
215
201
174
127
76
20
-18
-36
-39
-26
-20
-17
-16
-18
-20
-22
-23
-24
-25
-25
-25
-24
-23
-23
-23
-24
-25
-25
-25
-25
-24
-23
-23
-23
-22
-21
-21
-21
-20
-19
-19
-19
-18
-17
-16
-15
-15
-14
-11
-8
-6
-5
-4
-2
1
3
4
7
10
14
18
20
22
26
30
34
38
41
39
50
55
57
59
61
63
65
67
66
65
64
63
60
56
51
45
39
32
25
18
9
2
-4
-9
-15
-19
-23
-26
-28
-30
-32
-33
-34
-36
-38
-39
-38
-37
-37
-38
-40
-40
-39
-39
-39
-39
-39
-38
-37
-38
-39
-38
-37
-38
-39
-40
-41
-40
-39
-38
-37
-37
-37
-37
-37
-38
-39
-39
-39
-38
-38
-40
-41
-40
-39
-39
-39
-39
-39
-39
-39
-39
-39
-41
-40
-39
-41
-43
-42
-41
-40
-39
-40
-41
-40
-39
-40
-41
-41
-41
-40
-39
-40
-41
-41
-41
-41
-41
-40
-39
-39
-39
-39
-39
-39
-39
-39
-39
-39
-39
-39
-39
-39
-39
-39
-37
-37
-37
-37
-37
-37
-37
-37
-38
-39
-38
-37
-36
-35
-35
-35
-35
-35
-35
-35
-35
-35
-35
-35
-36
-37
-36
-35
-34
-33
-33
-33
-32
-31
-32
-33
-32
-31
-31
-31
-32
-32
-31
-31
-31
-30
-29
-29
-29
-29
-29
-29
-29
-29
-29
-30
-31
-30
-29
-28
-27
-27
-27
-26
-25
-25
-25
-25
-24
-20
-19
-18
-17
-16
-15
-14
-12
-10
-9
-8
-7
-6
-5
-3
-3
-3
-7
-11
-11
-11
-14
-17
-21
-25
-26
-27
-28
-29
-29
-29
-28
-27
-29
-31
-30
-29
-29
-29
-28
-27
-26
-25
-25
-23
-18
-14
-10
4
20
65
114
168
222
226
225
188
144
79
16
-20
-50
-39
-29
-26
-23
-23
-23
-25
-27
-29
-31
-30
-29
-30
-31
-31
-31
-31
-31
-31
-31
-31
-31
-30
-29
-28
-27
-26
-25
-26
-27
-26
-25
-24
-23
-23
-21
-19
-18
-17
-15
-13
-11
-9
-8
-7
-5
-3
0
3
5
8
11
14
17
20
24
29
33
36
39
43
47
51
55
57
58
62
66
67
68
69
69
69
68
63
58
53
47
41
35
28
21
15
9
2
-3
-7
-11
-14
-17
-20
-23
-25
-27
-28
-29
-31
-33
-33
-33
-33
-33
-33
-33
-32
-31
-31
-31
-31
-31
-31
-31
-31
-31
-31
-31
-31
-31
-31
-29
-29
-29
-29
-29
-29
-29
-29
-30
-31
-30
-29
-29
-29
-29
-29
-28
-27
-28
-29
-29
-29
-29
-29
-30
-31
-30
-29
-29
-29
-29
-29
-28
-27
-28
-29
-29
-29
-29
-29
-30
-30
-29
-29
-29
-28
-27
-27
-27
-27
-27
-27
-27
-27
-27
-27
-27
-27
-27
-26
-25
-25
-25
-24
-23
-24
-25
-25
-25
-24
-23
-24
-25
-24
-23
-23
-23
-23
-23
-22
-21
-21
-21
-23
-22
-21
-22
-23
-22
-21
-21
-21
-21
-21
-20
-19
-20
-21
-20
-19
-19
-19
-20
-21
-20
-19
-18
-17
-17
-17
-17
-17
-18
-19
-18
-17
-16
-15
-16
-17
-18
-19
-18
-17
-17
-16
-15
-16
-17
-16
-15
-15
-15
-16
-17
-16
-15
-15
-15
-14
-13
-12
-11
-11
-10
-7
-4
-2
-2
-4
-4
-1
1
2
3
3
6
10
11
11
11
10
7
4
2
0
-5
-9
-12
-15
-16
-17
-17
-17
-17
-17
-18
-19
-18
-17
-18
-19
-18
-17
-16
-15
-14
-13
-12
-10
-8
-6
-4
5
18
46
80
134
195
225
245
232
210
156
96
40
-17
-26
-35
-23
-11
-12
-13
-15
-17
-18
-19
-20
-21
-21
-21
-21
-21
-22
-23
-22
-21
-23
-25
-22
-21
-20
-19
-19
-19
-18
-17
-17
-17
-16
-15
-15
-15
-15
-14
-12
-11
-10
-8
-9
-3
-1
0
1
3
5
7
9
11
13
18
22
26
30
33
36
42
45
47
50
55
58
61
63
64
66
69
72
74
75
74
73
72
67
60
54
48
41
34
26
18
11
5
0
-5
-8
-11
-14
-17
-20
-23
-24
-25
-25
-25
-27
-29
-29
-29
-28
-27
-28
-29
-28
-27
-28
-29
-28
-27
-27
-27
-28
-29
-29
-29
-28
-27
-27
-27
-26
-25
-26
-27
-27
-26
-25
-27
-29
-28
-27
-26
-25
-25
-25
-25
-25
-26
-27
-27
-27
-27
-27
-28
-29
-28
-27
-27
-27
-27
-27
-27
-27
-27
-27
-27
-27
-27
-27
-28
-29
-29
-29
-29
-29
-29
-27
-27
-27
-27
-28
-29
-28
-27
-28
-29
-29
-29
-28
-27
-27
-27
-26
-25
-25
-25
-25
-25
-24
-24
-26
-27
-26
-25
-25
-25
-24
-23
-22
-21
-22
-23
-23
-23
-22
-22
-24
-24
-23
-23
-23
-22
-21
-20
-19
-20
-21
-21
-21
-20
-19
-20
-21
-20
-19
-19
-19
-19
-19
-19
-19
-19
-19
-18
-17
-17
-17
-18
-19
-18
-17
-17
-17
-17
-17
-16
-15
-16
-17
-15
-14
-13
-11
-9
-7
-5
-5
-5
-2
1
2
3
3
3
5
7
8
8
5
3
2
1
1
-2
-8
-12
-14
-16
-18
-19
-18
-17
-18
-19
-19
-19
-19
-19
-18
-17
-17
-18
-17
-16
-15
-14
-13
-10
-7
-6
-2
12
33
72
116
171
208
219
212
180
139
85
36
-10
-32
-35
-30
-18
-13
-12
-12
-14
-15
-16
-17
-18
-19
-19
-19
-20
-21
-21
-21
-21
-21
-21
-20
-19
-18
-17
-17
-17
-16
-15
-14
-13
-14
-15
-13
-11
-11
-11
-9
-6
-4
-3
-3
-2
0
2
4
5
6
10
14
16
18
21
24
29
34
36
38
42
47
51
55
56
57
61
65
68
71
73
75
77
79
78
76
73
70
66
60
53
47
40
34
28
22
16
10
5
0
-5
-9
-12
-15
-18
-20
-22
-23
-23
-23
-24
-25
-25
-24
-23
-24
-25
-25
-25
-25
-25
-26
-27
-26
-25
-24
-23
-23
-23
-22
-21
-22
-23
-23
-23
-22
-21
-22
-23
-23
-23
-23
-23
-23
-23
-22
-21
-21
-21
-22
-23
-23
-23
-24
-25
-25
-24
-23
-24
-25
-24
-23
-24
-25
-25
-25
-25
-25
-26
-27
-26
-25
-25
-25
-24
-23
-23
-23
-23
-23
-23
-23
-23
-23
-24
-25
-24
-23
-23
-23
-22
-21
-21
-21
-21
-21
-21
-21
-21
-21
-21
-20
-19
-20
-21
-20
-19
-18
-17
-18
-19
-19
-19
-18
-17
-19
-21
-20
-19
-19
-19
-18
-17
-16
-15
-16
-17
-17
-17
-16
-16
-18
-19
-18
-17
-16
-15
-15
-14
-13
-14
-15
-15
-15
-14
-13
-15
-17
-16
-15
-14
-13
-13
-13
-13
-13
-13
-13
-12
-11
-10
-9
-8
-6
-4
-3
-2
0
2
3
4
5
5
7
10
11
11
9
6
4
3
1
-1
-6
-11
-11
-11
-14
-17
-16
-15
-14
-13
-15
-17
-17
-17
-16
-15
-14
-13
-12
-11
-11
-11
-10
-7
-3
3
9
32
60
115
176
214
248
239
223
167
107
47
-13
-24
-35
-24
-13
-12
-11
-13
-15
-16
-17
-18
-19
-20
-21
-21
-21
-20
-19
-20
-21
-21
-21
-20
-19
-19
-19
-18
-17
-17
-17
-17
-16
-14
-13
-14
-15
-14
-12
-10
-9
-9
-7
-5
-4
-3
0
3
5
7
8
9
12
16
20
24
27
30
34
38
41
44
49
53
57
59
60
62
65
68
70
72
74
75
75
73
70
66
62
57
52
43
34
27
21
16
11
5
-1
-4
-7
-11
-15
-18
-21
-22
-23
-25
-27
-27
-27
-27
-27
-27
-27
-27
-27
-28
-29
-28
-27
-27
-27
-28
-29
-28
-27
-27
-27
-26
-25
-25
-25
-26
-27
-27
-27
-27
-28
-29
-28
-27
-27
-27
-27
-27
-26
-25
-26
-27
-27
-27
-27
-27
-29
-31
-30
-29
-29
-29
-29
-29
-28
-27
-28
-29
-28
-27
-28
-29
-30
-31
-30
-29
-29
-29
-29
-27
-27
-28
-29
-29
-29
-28
-27
-28
-29
-29
-29
-28
-27
-27
-27
-26
-25
-26
-27
-27
-27
-26
-26
-28
-29
-28
-27
-26
-25
-25
-25
-24
-23
-24
-25
-25
-25
-24
-23
-24
-25
-25
-24
-23
-23
-23
-22
-21
-22
-23
-23
-23
-22
-21
-23
-25
-24
-23
-22
-21
-21
-21
-20
-19
-20
-21
-21
-21
-20
-20
-22
-23
-22
-21
-21
-21
-20
-19
-19
-19
-19
-19
-19
-19
-19
-20
-21
-19
-17
-17
-17
-14
-11
-8
-5
-6
-7
-5
-3
-2
-1
-2
-2
1
3
4
5
5
4
1
-1
-2
-6
-11
-15
-18
-20
-22
-23
-23
-23
-22
-21
-21
-20
-19
-20
-21
-21
-21
-20
-19
-20
-21
-19
-17
-15
-12
-9
-4
5
23
51
96
158
204
235
240
224
183
125
65
4
-25
-39
-33
-18
-15
-15
-16
-18
-20
-22
-24
-26
-27
-27
-26
-25
-25
-25
-24
-23
-24
-25
-25
-25
-24
-23
-23
-23
-23
-23
-22
-21
-20
-18
-16
-15
-15
-15
-15
-14
-12
-11
-11
-9
-6
-4
-2
0
2
6
10
12
14
17
21
25
29
31
33
37
41
45
49
52
56
60
63
65
67
69
71
72
73
71
69
66
63
59
53
46
40
34
25
16
9
3
-2
-6
-11
-16
-18
-20
-22
-24
-25
-25
-27
-27
-28
-29
-29
-29
-29
-29
-30
-31
-31
-31
-30
-29
-29
-29
-28
-27
-29
-31
-30
-29
-28
-28
-30
-31
-30
-29
-29
-29
-29
-29
-28
-27
-28
-29
-29
-29
-28
-29
-32
-31
-29
-29
-29
-29
-29
-29
-29
-30
-31
-30
-29
-29
-29
-30
-31
-31
-31
-31
-31
-30
-29
-29
-29
-30
-31
-31
-31
-30
-29
-30
-31
-31
-31
-30
-29
-28
-27
-27
-27
-28
-29
-27
-27
-27
-28
-29
-29
-29
-28
-27
-27
-27
-25
-23
-25
-27
-26
-25
-25
-25
-26
-27
-27
-27
-26
-25
-25
-25
-24
-23
-23
-23
-23
-23
-23
-23
-23
-23
-23
-23
-22
-21
-21
-22
-21
-21
-21
-21
-21
-20
-19
-21
-23
-22
-21
-20
-19
-19
-19
-18
-17
-19
-21
-20
-19
-18
-17
-18
-19
-18
-17
-17
-17
-16
-14
-12
-11
-10
-9
-8
-7
-6
-4
-2
-1
-1
2
5
6
7
7
7
4
1
0
-2
-6
-10
-15
-19
-20
-21
-21
-21
-21
-21
-20
-19
-19
-19
-20
-21
-21
-21
-21
-21
-20
-19
-18
-16
-14
-11
-8
-4
0
21
43
93
143
186
224
210
189
138
86
29
-18
-32
-40
-26
-17
-15
-13
-15
-17
-19
-21
-22
-23
-23
-23
-23
-23
-23
-23
-22
-21
-22
-23
-22
-21
-21
-21
-20
-19
-19
-19
-19
-16
-15
-14
-13
-12
-11
-10
-9
-9
-9
-7
-5
-2
1
3
6
9
11
12
14
19
23
27
30
32
34
37
41
45
49
53
57
60
62
64
66
68
70
72
72
70
68
67
64
61
56
51
45
38
30
22
16
10
4
-2
-7
-12
-15
-17
-19
-22
-25
-27
-26
-26
-29
-31
-30
-29
-29
-29
-30
-31
-32
-33
-32
-31
-31
-31
-30
-29
-30
-31
-29
-28
-27
-29
-31
-30
-29
-29
-29
-28
-27
-27
-27
-28
-29
-29
-29
-29
-29
-30
-31
-31
-31
-30
-29
-29
-29
-29
-29
-29
-29
-30
-31
-31
-31
-31
-31
-31
-31
-31
-31
-31
-31
-31
-31
-31
-31
-31
-31
-31
-31
-31
-31
-31
-31
-31
-31
-31
-30
-29
-30
-31
-30
-29
-29
-29
-30
-31
-30
-29
-29
-29
-28
-27
-27
-27
-27
-27
-27
-27
-27
-27
-28
-28
-27
-26
-25
-26
-27
-26
-25
-25
-25
-25
-25
-25
-25
-26
-27
-26
-25
-24
-23
-24
-24
-22
-22
-24
-25
-24
-23
-22
-22
-24
-25
-24
-23
-23
-23
-22
-21
-21
-21
-21
-21
-21
-21
-21
-21
-21
-20
-19
-18
-17
-14
-11
-9
-7
-8
-9
-7
-5
-4
-3
-3
-2
1
3
4
4
2
1
1
-1
-5
-10
-15
-17
-18
-20
-22
-23
-23
-23
-22
-21
-21
-21
-21
-22
-23
-22
-21
-21
-21
-21
-21
-19
-17
-14
-10
-5
7
28
60
106
155
206
231
232
208
163
107
45
-1
-38
-42
-30
-23
-17
-16
-18
-20
-22
-23
-23
-24
-26
-27
-27
-27
-27
-26
-25
-25
-25
-26
-27
-27
-27
-25
-23
-24
-25
-24
-23
-22
-21
-20
-18
-16
-15
-16
-17
-16
-14
-12
-11
-11
-10
-8
-5
-2
0
2
6
10
12
14
17
21
24
27
30
33
37
41
45
49
52
55
58
61
63
65
66
67
68
69
67
64
59
54
48
42
36
30
24
17
10
3
-3
-8
-12
-16
-20
-22
-24
-25
-26
-27
-27
-29
-29
-30
-31
-32
-33
-32
-31
-33
-35
-34
-33
-32
-31
-31
-31
-31
-31
-31
-31
-31
-31
-30
-29
-30
-31
-31
-31
-30
-29
-29
-29
-28
-27
-28
-29
-29
-29
-29
-30
-32
-32
-31
-31
-31
-31
-31
-30
-29
-31
-33
-32
-31
-31
-31
-32
-33
-32
-31
-31
-31
-31
-31
-30
-29
-30
-31
-31
-31
-30
-30
-32
-33
-32
-31
-30
-29
-29
-29
-29
-29
-29
-29
-29
-28
-27
-28
-29
-29
-29
-28
-27
-27
-27
-26
-25
-26
-27
-27
-27
-26
-25
-26
-27
-27
-27
-26
-25
-25
-25
-24
-23
-24
-25
-24
-23
-23
-23
-24
-25
-25
-25
-24
-23
-23
-22
-21
-21
-21
-21
-21
-21
-21
-21
-21
-22
-23
-22
-21
-21
-21
-21
-21
-20
-19
-20
-21
-20
-19
-19
-19
-19
-19
-19
-19
-19
-19
-18
-17
-17
-17
-17
-17
-16
-13
-10
-8
-7
-6
-5
-3
-1
1
3
3
3
5
7
6
5
4
3
1
-1
-3
-7
-12
-15
-16
-18
-20
-21
-20
-19
-20
-21
-21
-21
-21
-21
-21
-21
-20
-19
-18
-17
-17
-16
-13
-9
-5
-1
5
30
59
114
167
211
244
238
218
166
109
43
-6
-29
-39
-27
-20
-17
-16
-18
-20
-22
-23
-23
-24
-26
-27
-26
-25
-25
-25
-26
-27
-26
-25
-24
-23
-23
-22
-21
-22
-23
-22
-21
-20
-19
-20
-21
-19
-17
-16
-15
-13
-11
-10
-9
-8
-6
-3
0
2
3
3
5
9
13
16
19
22
26
30
33
36
40
44
47
50
52
54
57
59
63
67
69
71
72
73
70
66
61
56
51
45
37
29
23
17
11
5
-1
-6
-9
-13
-18
-22
-24
-25
-26
-28
-30
-31
-32
-33
-32
-31
-31
-31
-31
-31
-32
-33
-33
-32
-31
-32
-33
-32
-31
-31
-31
-31
-31
-31
-31
-32
-33
-32
-31
-31
-31
-33
-35
-34
-33
-32
-31
-30
-29
-30
-31
-32
-33
-33
-33
-33
-33
-34
-35
-34
-33
-33
-33
-33
-33
-33
-34
-35
-34
-33
-32
-31
-33
-35
-35
-35
-34
-33
-33
-33
-32
-31
-32
-33
-33
-33
-33
-33
-34
-35
-34
-33
-32
-31
-31
-31
-31
-31
-31
-31
-30
-29
-29
-29
-30
-31
-31
-30
-29
-29
-29
-28
-27
-28
-29
-29
-29
-27
-25
-29
-31
-29
-27
-27
-27
-27
-27
-26
-25
-26
-27
-26
-25
-25
-25
-26
-27
-27
-26
-24
-23
-23
-23
-23
-23
-24
-25
-25
-24
-23
-24
-25
-24
-23
-23
-23
-23
-23
-22
-21
-22
-23
-23
-23
-22
-21
-22
-23
-22
-21
-20
-18
-16
-14
-12
-11
-11
-11
-10
-8
-6
-5
-5
-5
-5
-2
2
3
3
2
1
-2
-5
-7
-9
-13
-17
-19
-21
-23
-25
-24
-23
-23
-23
-24
-25
-24
-23
-23
-23
-23
-23
-23
-23
-23
-22
-20
-18
-16
-13
-10
-4
3
31
63
121
183
202
218
196
172
119
66
15
-30
-38
-43
-30
-19
-18
-17
-19
-21
-22
-23
-25
-27
-26
-25
-26
-27
-27
-27
-26
-25
-25
-25
-25
-25
-25
-25
-25
-25
-24
-23
-22
-20
-18
-17
-17
-17
-17
-15
-13
-12
-11
-10
-9
-7
-5
-3
-1
2
5
7
10
13
16
19
22
25
28
33
37
41
45
49
53
57
60
62
64
66
67
68
69
68
67
66
63
60
54
59
41
35
27
19
13
7
2
-4
-11
-17
-19
-21
-23
-25
-27
-29
-29
-29
-30
-31
-32
-33
-32
-32
-34
-34
-32
-31
-31
-31
-31
-31
-31
-31
-31
-31
-31
-31
-30
-29
-30
-30
-29
-29
-29
-29
-29
-29
-29
-29
-29
-29
-29
-29
-29
-30
-31
-31
-31
-30
-29
-30
-31
-30
-29
-30
-31
-31
-31
-31
-32
-34
-35
-34
-33
-33
-33
-32
-31
-31
-31
-31
-31
-31
-31
-31
-32
-33
-31
-29
-30
-31
-30
-29
-28
-27
-28
-29
-29
-29
-29
-29
-29
-29
-29
-29
-28
-27
-27
-27
-26
-25
-25
-25
-26
-27
-26
-25
-25
-25
-26
-26
-24
-23
-23
-25
-25
-23
-21
-22
-23
-23
-23
-22
-21
-22
-23
-22
-21
-21
-21
-21
-21
-21
-21
-21
-21
-21
-21
-20
-19
-19
-19
-19
-19
-19
-19
-19
-19
-18
-17
-17
-17
-16
-15
-15
-14
-13
-10
-7
-7
-7
-5
-3
-1
1
1
1
3
5
6
7
7
7
5
3
2
0
-2
-5
-10
-14
-16
-17
-17
-17
-18
-19
-18
-17
-17
-17
-16
-15
-15
-15
-16
-17
-15
-14
-13
-13
-13
-9
-4
3
14
39
74
134
185
215
230
213
183
131
77
22
-15
-32
-34
-20
-12
-10
-10
-12
-15
-18
-19
-19
-19
-19
-19
-20
-21
-21
-21
-20
-19
-19
-18
-17
-17
-17
-17
-17
-16
-15
-16
-17
-16
-15
-13
-11
-11
-11
-9
-7
-7
-7
-4
-2
0
1
1
2
5
9
12
14
16
20
24
27
30
33
36
40
44
46
48
53
57
60
63
66
69
72
75
74
73
73
73
71
68
61
55
49
43
38
32
25
19
15
10
2
-2
-5
-8
-12
-15
-19
-21
-21
-21
-21
-21
-22
-23
-23
-23
-24
-25
-25
-24
-23
-25
-27
-25
-23
-23
-23
-23
-23
-22
-21
-22
-23
-23
-23
-23
-23
-24
-25
-24
-23
-23
-23
-23
-23
-22
-21
-22
-23
-23
-23
-23
-23
-24
-25
-26
-27
-26
-25
-25
-25
-25
-25
-25
-25
-25
-25
-25
-26
-27
-27
-27
-26
-25
-26
-27
-26
-25
-25
-25
-25
-25
-25
-25
-26
-27
-26
-25
-25
-25
-25
-25
-24
-23
-23
-23
-23
-23
-23
-23
-24
-25
-25
-24
-23
-23
-23
-22
-21
-22
-23
-22
-21
-21
-21
-23
-25
-24
-23
-22
-21
-21
-21
-20
-19
-19
-19
-20
-21
-20
-19
-20
-21
-21
-21
-20
-19
-19
-19
-18
-17
-18
-19
-19
-18
-17
-19
-21
-19
-17
-17
-17
-17
-17
-16
-15
-16
-17
-17
-17
-16
-15
-16
-17
-17
-17
-16
-15
-15
-15
-14
-13
-14
-15
-15
-15
-15
-15
-16
-17
-16
-15
-15
-15
-15
-12
-11
-10
-9
-6
-3
-3
-3
-3
-3
-1
1
2
3
5
7
9
11
9
7
4
3
2
-1
-5
-9
-13
-15
-15
-15
-16
-17
-17
-17
-18
-19
-19
-19
-18
-18
-20
-20
-19
-18
-17
-16
-15
-13
-11
-9
-6
1
14
40
76
132
182
220
241
233
206
154
96
34
-8
-33
-36
-24
-17
-13
-13
-17
-20
-22
-23
-23
-23
-23
-23
-22
-21
-22
-23
-23
-23
-23
-23
-23
-23
-23
-22
-21
-20
-19
-19
-19
-19
-19
-18
-17
-16
-15
-15
-15
-14
-12
-10
-9
-8
-6
-3
-1
0
2
4
6
8
11
14
17
20
24
28
32
29
41
45
48
51
54
57
59
61
63
65
67
69
69
69
69
68
65
61
56
51
44
38
32
25
18
12
6
1
-3
-7
-11
-14
-16
-18
-20
-22
-24
-25
-26
-27
-27
-28
-29
-29
-29
-29
-29
-29
-29
-28
-27
-27
-27
-28
-29
-28
-27
-28
-29
-28
-27
-27
-27
-28
-29
-28
-27
-27
-27
-27
-27
-27
-27
-28
-29
-28
-27
-27
-27
-27
-27
-27
-27
-29
-29
-29
-29
-29
-29
-29
-29
-29
-29
-29
-29
-29
-28
-27
-28
-29
-30
-31
-30
-29
-29
-29
-29
-29
-29
-29
-28
-27
-28
-29
-28
-27
-27
-27
-28
-29
-28
-27
-27
-27
-27
-25
-23
-25
-27
-26
-25
-24
-23
-25
-27
-25
-23
-23
-23
-23
-23
-22
-21
-22
-23
-23
-23
-22
-22
-24
-25
-24
-23
-22
-21
-21
-21
-20
-19
-20
-21
-21
-21
-20
-19
-20
-21
-21
-20
-19
-18
-17
-17
-17
-18
-19
-19
-19
-18
-17
-18
-19
-18
-17
-16
-15
-16
-17
-16
-15
-16
-17
-17
-17
-16
-15
-16
-17
-16
-15
-14
-13
-12
-11
-11
-10
-8
-7
-5
-3
-1
0
1
2
3
4
5
8
11
12
13
10
7
5
3
2
-1
-7
-11
-14
-15
-15
-15
-16
-17
-16
-15
-15
-15
-16
-17
-16
-16
-18
-18
-16
-15
-14
-13
-13
-8
-5
-4
-3
5
16
43
75
130
179
209
227
212
185
135
85
35
-4
-28
-35
-22
-13
-9
-8
-11
-14
-16
-17
-16
-15
-15
-15
-16
-17
-17
-17
-17
-17
-16
-15
-15
-16
-17
-16
-15
-14
-13
-12
-11
-11
-11
-11
-11
-9
-7
-6
-5
-5
-5
-4
-3
-1
2
4
6
9
11
12
14
18
21
24
27
30
34
38
41
44
48
52
56
60
63
67
69
71
73
75
76
77
77
77
75
73
70
66
60
53
46
39
33
26
19
13
8
3
-2
-6
-9
-12
-14
-16
-18
-19
-20
-21
-22
-23
-24
-25
-24
-23
-23
-23
-23
-22
-21
-22
-23
-23
-23
-23
-23
-23
-23
-23
-23
-22
-21
-21
-21
-21
-21
-22
-23
-23
-23
-22
-21
-22
-23
-23
-23
-22
-21
-22
-23
-22
-21
-22
-23
-23
-23
-23
-24
-26
-26
-25
-24
-23
-23
-23
-23
-23
-24
-25
-25
-25
-24
-23
-25
-27
-26
-25
-25
-25
-24
-23
-23
-23
-23
-23
-24
-25
-24
-23
-24
-25
-25
-25
-24
-23
-22
-21
-21
-21
-21
-21
-21
-21
-21
-22
-23
-22
-21
-21
-21
-21
-21
-20
-19
-20
-21
-20
-19
-19
-19
-20
-21
-21
-20
-18
-17
-17
-17
-17
-17
-18
-19
-18
-17
-17
-17
-18
-19
-19
-19
-18
-17
-17
-16
-15
-16
-17
-17
-17
-16
-15
-17
-19
-18
-17
-16
-15
-15
-14
-11
-9
-8
-7
-7
-6
-4
-3
-3
-3
-2
1
4
5
6
7
7
6
4
3
2
-1
-4
-9
-14
-17
-19
-19
-19
-19
-19
-19
-19
-19
-19
-19
-19
-19
-19
-19
-19
-19
-19
-18
-17
-16
-14
-11
-8
-6
4
21
55
99
151
206
221
222
189
145
90
33
-6
-42
-37
-28
-22
-15
-16
-17
-20
-23
-24
-25
-25
-25
-25
-25
-25
-25
-25
-25
-25
-25
-25
-25
-26
-27
-24
-23
-23
-23
-22
-20
-18
-17
-18
-18
-16
-15
-14
-13
-14
-13
-10
-9
-8
-6
-7
-1
1
3
5
8
11
14
17
19
21
26
30
35
40
43
46
50
53
54
56
59
61
62
63
64
65
65
64
62
58
53
48
44
37
29
21
14
9
4
-3
-10
-14
-17
-20
-23
-24
-25
-27
-29
-31
-33
-33
-33
-33
-33
-34
-35
-35
-35
-35
-35
-34
-33
-32
-31
-32
-33
-33
-33
-32
-32
-34
-35
-34
-33
-32
-31
-31
-31
-31
-31
-32
-33
-31
-31
-31
-33
-35
-34
-33
-33
-33
-33
-33
-32
-31
-32
-33
-34
-35
-35
-35
-36
-37
-36
-35
-35
-35
-35
-35
-34
-33
-34
-35
-35
-35
-35
-35
-36
-37
-36
-35
-35
-35
-35
-32
-31
-32
-33
-33
-33
-33
-33
-33
-33
-33
-33
-33
-33
-33
-33
-32
-31
-31
-31
-31
-31
-31
-31
-31
-31
-31
-31
-30
-29
-29
-29
-29
-29
-29
-29
-29
-29
-29
-29
-29
-29
-29
-28
-27
-28
-29
-27
-25
-26
-27
-27
-27
-27
-27
-28
-29
-28
-27
-26
-25
-25
-25
-25
-25
-25
-25
-25
-25
-25
-25
-25
-25
-25
-25
-24
-23
-23
-23
-23
-23
-23
-23
-23
-21
-19
-20
-21
-18
-15
-13
-11
-11
-11
-9
-7
-6
-5
-5
-4
-1
1
0
-1
-1
-2
-4
-5
-6
-9
-13
-17
-21
-23
-23
-23
-23
-23
-24
-25
-25
-25
-25
-25
-25
-23
-23
-23
-23
-23
-23
-21
-19
-18
-17
-14
-9
2
19
52
96
157
202
226
233
218
182
126
67
5
-27
-42
-39
-27
-22
-20
-20
-22
-25
-28
-29
-28
-27
-28
-29
-30
-30
-29
-28
-27
-28
-29
-28
-27
-27
-27
-26
-25
-25
-25
-25
-25
-24
-23
-23
-23
-21
-19
-18
-17
-16
-15
-14
-13
-12
-10
-8
-7
-6
-3
0
3
6
8
10
14
18
21
25
28
31
35
39
41
43
47
51
54
57
59
61
64
67
67
67
66
64
61
57
52
47
42
36
30
23
16
11
7
1
-5
-10
-14
-17
-20
-23
-26
-27
-28
-29
-29
-30
-29
-30
-31
-31
-31
-31
-31
-31
-31
-31
-31
-30
-29
-29
-29
-29
-29
-29
-29
-29
-29
-29
-29
-29
-29
-29
-29
-29
-29
-29
-29
-29
-29
-29
-29
-30
-31
-31
-31
-30
-30
-31
-31
-31
-31
-31
-31
-31
-31
-31
-31
-31
-32
-33
-33
-33
-33
-33
-32
-31
-32
-32
-30
-29
-30
-31
-31
-31
-31
-31
-32
-33
-32
-31
-31
-31
-30
-29
-29
-29
-29
-29
-29
-28
-27
-28
-29
-29
-29
-28
-27
-27
-27
-26
-25
-26
-27
-27
-27
-26
-25
-26
-27
-26
-25
-25
-25
-25
-25
-24
-23
-24
-25
-25
-25
-24
-23
-24
-25
-24
-23
-23
-23
-23
-22
-21
-22
-23
-23
-23
-22
-21
-22
-23
-23
-23
-22
-21
-21
-21
-20
-19
-20
-21
-21
-21
-21
-21
-21
-21
-21
-21
-21
-21
-20
-19
-19
-19
-19
-19
-19
-19
-18
-17
-18
-16
-13
-10
-7
-7
-7
-6
-5
-4
-3
-3
-3
0
3
3
3
3
3
1
-1
-2
-4
-6
-10
-16
-19
-20
-21
-22
-23
-23
-23
-23
-23
-23
-23
-23
-23
-22
-21
-21
-21
-21
-20
-19
-18
-17
-14
-11
-6
2
22
50
106
157
199
226
221
198
148
92
28
-15
-38
-42
-29
-21
-17
-16
-18
-20
-22
-23
-24
-25
-26
-27
-27
-27
-27
-27
-26
-25
-25
-24
-23
-24
-25
-24
-23
-22
-21
-22
-23
-21
-19
-18
-17
-16
-15
-14
-13
-12
-11
-10
-8
-5
-3
-2
0
2
5
8
11
14
17
20
23
26
29
32
36
40
43
46
51
55
58
61
64
67
70
73
72
71
70
69
68
66
59
53
47
41
36
30
22
15
10
4
-2
-6
-9
-12
-16
-19
-23
-25
-26
-27
-27
-27
-27
-27
-27
-27
-28
-29
-29
-28
-27
-29
-31
-30
-29
-28
-27
-27
-27
-27
-27
-27
-27
-27
-27
-27
-27
-28
-29
-28
-27
-27
-27
-27
-27
-27
-27
-27
-27
-27
-27
-27
-28
-30
-31
-30
-29
-28
-27
-27
-29
-29
-29
-29
-29
-29
-29
-29
-30
-31
-30
-29
-29
-29
-29
-29
-28
-27
-28
-29
-29
-29
-28
-27
-28
-29
-28
-27
-27
-27
-26
-25
-24
-23
-24
-25
-25
-25
-24
-23
-24
-25
-25
-24
-23
-23
-23
-22
-21
-21
-21
-21
-21
-22
-23
-23
-23
-22
-21
-21
-21
-21
-21
-20
-19
-19
-19
-19
-19
-19
-19
-20
-21
-20
-19
-19
-19
-18
-17
-17
-17
-17
-17
-17
-17
-17
-18
-19
-19
-19
-18
-17
-16
-15
-15
-15
-16
-17
-17
-17
-16
-15
-16
-17
-16
-15
-14
-12
-9
-7
-6
-5
-6
-6
-4
-2
0
1
0
1
4
5
6
7
7
5
3
1
-1
-6
-11
-13
-15
-18
-21
-20
-19
-19
-19
-19
-19
-18
-17
-18
-19
-18
-17
-17
-17
-18
-18
-16
-14
-12
-9
-6
1
9
34
64
116
172
195
213
191
164
111
58
13
-29
-32
-34
-23
-13
-13
-13
-14
-15
-16
-17
-19
-21
-21
-21
-21
-21
-20
-19
-19
-19
-20
-21
-20
-19
-18
-17
-18
-19
-18
-16
-14
-13
-13
-12
-10
-9
-10
-10
-7
-6
-5
-4
-3
-2
-1
2
5
7
9
12
15
17
20
23
26
29
31
33
36
41
45
49
52
54
57
61
63
64
66
68
69
70
71
70
67
64
60
56
50
55
37
31
24
17
12
7
2
-3
-7
-11
-14
-17
-18
-19
-21
-23
-23
-23
-24
-25
-25
-25
-24
-24
-26
-27
-26
-25
-25
-25
-24
-23
-23
-23
-23
-23
-24
-25
-24
-23
-24
-24
-23
-23
-23
-23
-23
-22
-21
-21
-21
-22
-23
-23
-23
-24
-25
-25
-25
-24
-23
-24
-25
-24
-23
-24
-25
-25
-25
-24
-24
-26
-27
-27
-27
-26
-25
-25
-25
-24
-23
-24
-25
-23
-23
-23
-24
-25
-24
-23
-23
-23
-23
-23
-23
-23
-23
-23
-23
-23
-22
-21
-22
-23
-22
-21
-21
-21
-20
-19
-19
-19
-20
-21
-21
-21
-20
-19
-20
-21
-20
-19
-19
-19
-19
-17
-17
-18
-19
-18
-17
-17
-17
-17
-17
-17
-17
-16
-15
-15
-15
-15
-15
-15
-15
-15
-15
-15
-15
-16
-17
-16
-15
-14
-13
-13
-13
-13
-13
-13
-13
-13
-13
-13
-13
-14
-13
-11
-12
-13
-12
-11
-11
-11
-11
-11
-10
-9
-7
-5
-4
-3
-2
-1
0
1
3
5
5
6
8
9
10
11
10
8
6
5
4
1
-2
-6
-10
-11
-12
-13
-13
-13
-15
-15
-15
-15
-15
-15
-15
-15
-15
-14
-13
-12
-11
-11
-10
-7
-4
-1
7
23
53
100
151
206
232
238
217
177
119
54
9
-28
-30
-19
-14
-10
-10
-12
-14
-16
-17
-17
-17
-17
-19
-21
-20
-19
-19
-19
-20
-21
-21
-21
-20
-19
-19
-19
-18
-17
-17
-17
-16
-15
-14
-13
-14
-14
-12
-11
-10
-9
-8
-5
-2
-1
-1
0
2
5
8
9
10
15
19
22
25
29
33
36
39
42
45
49
53
56
59
60
62
66
69
71
73
73
73
73
71
66
61
57
52
47
41
33
27
21
15
9
2
-4
-6
-8
-12
-16
-18
-21
-22
-23
-25
-27
-27
-27
-26
-25
-26
-27
-26
-25
-26
-27
-26
-25
-25
-25
-26
-27
-27
-27
-26
-25
-25
-25
-24
-23
-24
-25
-25
-25
-25
-25
-26
-27
-26
-25
-25
-25
-25
-24
-25
-26
-27
-27
-27
-27
-27
-28
-29
-28
-27
-27
-27
-27
-27
-26
-25
-26
-27
-27
-27
-27
-27
-28
-29
-28
-27
-26
-25
-26
-27
-26
-25
-26
-27
-27
-27
-27
-27
-26
-25
-25
-24
-23
-23
-23
-24
-25
-24
-23
-23
-23
-24
-25
-24
-23
-22
-21
-21
-21
-21
-21
-21
-21
-21
-21
-21
-21
-20
-19
-20
-21
-21
-21
-20
-19
-19
-19
-18
-17
-18
-19
-17
-17
-17
-18
-19
-19
-19
-18
-17
-17
-17
-16
-15
-16
-17
-17
-17
-16
-15
-16
-17
-17
-17
-17
-17
-16
-15
-14
-13
-14
-15
-14
-13
-14
-15
-15
-15
-15
-15
-14
-13
-13
-13
-13
-12
-11
-12
-13
-13
-13
-13
-13
-13
-13
-13
-13
-12
-11
-9
-6
-3
-1
-1
-1
-1
0
2
3
4
5
6
8
10
11
12
11
8
7
6
3
0
-4
-8
-11
-13
-14
-15
-15
-15
-14
-13
-14
-15
-15
-15
-15
-15
-15
-15
-15
-15
-13
-11
-10
-8
-5
-1
3
15
32
69
117
168
219
236
241
214
176
116
52
9
-31
-28
-20
-15
-9
-10
-11
-14
-17
-18
-19
-19
-19
-19
-19
-18
-17
-18
-19
-20
-21
-20
-19
-20
-21
-18
-17
-16
-15
-15
-15
-14
-13
-13
-13
-12
-11
-10
-9
-10
-10
-8
-5
-2
0
-1
5
7
9
11
14
17
21
25
27
29
34
38
43
48
51
54
58
61
63
65
68
70
72
73
73
73
73
71
68
65
61
55
49
42
35
27
20
14
8
4
0
-5
-9
-11
-13
-15
-17
-19
-21
-23
-25
-25
-25
-25
-25
-26
-27
-27
-27
-26
-25
-25
-25
-24
-23
-24
-25
-25
-25
-24
-23
-24
-25
-25
-25
-24
-23
-23
-23
-23
-23
-24
-25
-25
-24
-23
-25
-27
-26
-25
-25
-25
-25
-25
-25
-25
-25
-25
-26
-27
-27
-27
-28
-29
-28
-27
-27
-27
-27
-27
-26
-25
-26
-27
-27
-27
-26
-26
-28
-29
-28
-27
-27
-27
-27
-24
-23
-25
-27
-27
-27
-25
-23
-24
-25
-25
-25
-24
-23
-23
-23
-22
-21
-22
-23
-23
-23
-23
-23
-23
-23
-22
-21
-21
-21
-21
-21
-20
-19
-20
-21
-20
-19
-19
-19
-20
-21
-21
-20
-19
-19
-19
-18
-17
-18
-19
-18
-17
-17
-17
-19
-21
-20
-19
-18
-17
-17
-17
-16
-15
-16
-17
-17
-17
-17
-17
-18
-19
-18
-17
-16
-15
-15
-15
-15
-15
-15
-15
-15
-14
-13
-14
-15
-15
-15
-14
-13
-12
-11
-10
-9
-7
-5
-4
-3
-2
-1
0
1
2
3
4
6
9
11
11
11
10
7
4
3
2
-3
-8
-11
-14
-15
-15
-15
-15
-16
-15
-15
-15
-16
-17
-17
-17
-17
-17
-17
-17
-15
-13
-13
-12
-9
-7
-5
0
9
26
53
100
164
199
217
205
176
129
73
23
-27
-35
-32
-23
-13
-11
-11
-13
-16
-17
-17
-18
-19
-18
-17
-17
-17
-18
-19
-20
-21
-19
-17
-18
-19
-18
-17
-16
-15
-15
-14
-12
-11
-12
-12
-10
-9
-8
-7
-7
-6
-4
-3
-2
0
2
5
8
9
10
13
17
20
23
24
25
30
35
39
43
47
51
54
57
59
62
65
68
71
73
73
73
74
75
74
71
67
62
57
50
42
34
27
20
13
7
0
-4
-8
-11
-14
-17
-15
-22
-23
-25
-27
-27
-27
-27
-27
-28
-29
-29
-29
-29
-29
-29
-29
-28
-27
-28
-29
-28
-27
-27
-27
-28
-29
-29
-29
-28
-27
-27
-27
-27
-27
-27
-27
-28
-29
-29
-29
-29
-29
-29
-29
-29
-29
-29
-29
-29
-29
-29
-29
-29
-29
-29
-30
-31
-31
-31
-31
-31
-31
-31
-30
-29
-30
-31
-31
-31
-30
-29
-30
-31
-31
-31
-31
-31
-30
-29
-28
-27
-28
-29
-29
-29
-29
-29
-29
-29
-29
-28
-27
-27
-27
-26
-25
-26
-27
-27
-27
-27
-27
-27
-27
-27
-27
-26
-25
-25
-25
-24
-23
-24
-25
-25
-25
-25
-25
-25
-25
-25
-25
-25
-25
-25
-22
-21
-22
-23
-23
-23
-23
-23
-23
-23
-23
-23
-22
-21
-21
-21
-20
-19
-20
-21
-21
-21
-21
-21
-22
-23
-22
-21
-21
-21
-20
-19
-18
-17
-18
-19
-19
-19
-18
-17
-17
-16
-15
-13
-11
-9
-7
-6
-5
-4
-3
-2
-1
-1
-1
1
3
3
3
3
3
1
-1
-2
-5
-10
-14
-17
-19
-20
-21
-22
-23
-22
-21
-21
-21
-21
-21
-20
-19
-20
-21
-19
-18
-17
-17
-17
-13
-8
0
12
39
73
129
179
212
233
226
200
146
89
27
-15
-36
-40
-26
-18
-16
-16
-19
-22
-24
-25
-25
-25
-25
-25
-26
-27
-27
-27
-26
-25
-25
-25
-25
-25
-25
-24
-23
-23
-23
-23
-23
-22
-21
-20
-19
-18
-17
-15
-13
-14
-14
-11
-9
-8
-7
-7
-6
-3
1
5
8
10
14
18
20
22
26
30
33
36
39
42
47
51
54
57
60
63
66
69
69
69
70
71
70
68
63
58
54
49
43
36
29
22
16
10
2
-3
-7
-10
-14
-17
-21
-24
-26
-27
-27
-28
-30
-31
-30
-29
-30
-31
-31
-30
-29
-31
-33
-32
-31
-31
-31
-30
-29
-29
-29
-29
-29
-29
-29
-29
-29
-30
-31
-31
-30
-28
-27
-27
-27
-27
-27
-28
-29
-29
-29
-29
-30
-32
-33
-32
-31
-30
-29
-29
-29
-29
-30
-31
-31
-31
-30
-29
-31
-33
-32
-31
-31
-31
-31
-31
-30
-29
-30
-31
-30
-29
-29
-29
-30
-31
-30
-29
-29
-29
-28
-27
-27
-27
-28
-29
-28
-27
-27
-27
-27
-27
-27
-26
-25
-25
-25
-24
-23
-24
-25
-25
-25
-24
-23
-24
-25
-24
-23
-23
-23
-23
-23
-23
-23
-23
-23
-22
-21
-21
-21
-22
-23
-22
-21
-21
-21
-21
-21
-20
-19
-20
-21
-21
-20
-19
-20
-21
-21
-21
-20
-19
-19
-19
-19
-19
-19
-19
-19
-19
-18
-17
-18
-19
-19
-19
-18
-17
-18
-19
-18
-17
-17
-17
-17
-17
-16
-15
-16
-17
-17
-17
-16
-15
-15
-14
-13
-13
-13
-11
-9
-6
-3
-4
-5
-4
-3
-1
1
2
3
5
7
8
9
8
6
4
2
0
-2
-5
-9
-13
-15
-16
-17
-18
-19
-19
-19
-18
-17
-17
-17
-18
-19
-19
-18
-17
-17
-17
-16
-15
-14
-13
-9
-4
2
13
33
66
120
170
213
237
236
217
179
126
60
10
-29
-38
-28
-21
-15
-14
-16
-18
-20
-21
-22
-23
-23
-23
-23
-23
-23
-23
-23
-24
-25
-24
-23
-23
-23
-22
-21
-20
-19
-20
-21
-20
-19
-18
-17
-17
-17
-14
-13
-13
-12
-10
-8
-6
-5
-4
-3
-2
1
4
6
8
11
14
17
20
24
21
34
39
42
45
47
49
53
57
58
59
64
67
68
69
70
71
72
72
69
65
60
54
48
41
33
25
18
12
7
2
-3
-8
-12
-16
-20
-22
-24
-25
-26
-27
-28
-29
-29
-29
-29
-29
-29
-29
-29
-30
-31
-30
-29
-29
-29
-30
-31
-30
-29
-29
-29
-28
-27
-27
-27
-28
-29
-28
-27
-27
-27
-28
-29
-29
-29
-29
-29
-29
-29
-29
-29
-29
-29
-29
-29
-29
-30
-31
-31
-31
-31
-31
-31
-31
-31
-31
-31
-31
-30
-29
-30
-31
-32
-33
-32
-31
-31
-31
-30
-29
-29
-29
-30
-31
-31
-31
-30
-29
-30
-31
-30
-29
-29
-29
-29
-27
-27
-27
-27
-28
-29
-28
-27
-27
-27
-27
-27
-27
-27
-27
-27
-26
-25
-25
-25
-25
-25
-25
-25
-26
-27
-26
-25
-25
-25
-25
-25
-24
-23
-23
-23
-23
-23
-23
-23
-24
-24
-23
-22
-21
-22
-23
-22
-21
-21
-21
-21
-21
-21
-21
-22
-23
-22
-21
-21
-21
-21
-21
-20
-19
-20
-21
-20
-19
-19
-19
-20
-21
-20
-19
-19
-19
-18
-17
-16
-15
-15
-13
-9
-8
-7
-8
-9
-6
-3
-2
-1
0
1
4
7
7
7
5
3
2
0
-3
-6
-11
-14
-17
-19
-20
-21
-20
-19
-20
-21
-20
-19
-20
-21
-22
-23
-22
-21
-20
-19
-19
-17
-15
-14
-13
-11
-8
3
18
49
87
148
197
213
215
183
141
80
26
-20
-43
-36
-28
-18
-14
-16
-18
-20
-21
-21
-21
-22
-23
-23
-23
-24
-25
-24
-23
-23
-23
-23
-23
-23
-22
-21
-20
-19
-19
-19
-19
-19
-18
-17
-16
-15
-15
-15
-13
-11
-10
-9
-7
-4
-2
-1
0
2
4
6
10
12
14
18
22
25
28
32
36
40
44
46
48
51
55
59
63
64
65
68
71
72
73
73
73
71
68
64
59
53
47
40
32
24
17
10
5
1
-3
-9
-12
-15
-19
-22
-24
-26
-27
-28
-29
-30
-31
-31
-31
-30
-29
-29
-29
-29
-30
-31
-31
-31
-30
-29
-29
-29
-29
-29
-29
-29
-29
-29
-28
-27
-27
-27
-27
-27
-27
-27
-28
-29
-29
-29
-29
-29
-29
-28
-26
-26
-28
-29
-29
-29
-28
-28
-30
-30
-29
-29
-29
-29
-29
-28
-27
-28
-29
-29
-29
-28
-27
-29
-31
-30
-29
-28
-27
-27
-27
-27
-27
-27
-27
-27
-27
-26
-25
-26
-27
-27
-27
-26
-25
-25
-25
-24
-23
-24
-25
-23
-23
-23
-24
-25
-24
-23
-23
-23
-23
-23
-22
-21
-22
-23
-22
-21
-21
-21
-22
-23
-22
-21
-21
-21
-21
-21
-20
-19
-19
-19
-20
-20
-18
-18
-20
-21
-20
-19
-18
-17
-17
-17
-17
-17
-17
-16
-15
-15
-15
-16
-17
-17
-17
-16
-15
-15
-15
-14
-13
-14
-15
-14
-13
-12
-11
-12
-12
-9
-6
-4
-3
-2
0
2
3
3
3
4
6
8
9
10
10
9
7
5
4
3
0
-3
-9
-13
-14
-15
-15
-15
-16
-17
-16
-15
-15
-15
-15
-15
-14
-13
-14
-15
-14
-13
-12
-11
-11
-8
-4
0
4
22
44
90
141
186
231
233
233
188
141
76
14
-17
-42
-29
-18
-13
-9
-9
-9
-12
-15
-16
-17
-18
-19
-20
-21
-20
-19
-19
-19
-19
-19
-18
-17
-17
-17
-17
-17
-16
-15
-16
-17
-16
-15
-14
-13
-13
-10
-9
-8
-7
-6
-5
-3
-1
0
1
3
5
8
12
15
18
22
25
27
30
35
38
41
44
46
50
55
59
62
64
66
69
72
73
73
73
73
72
70
65
60
54
49
43
37
31
25
19
12
6
1
-3
-7
-10
-14
-18
-21
-22
-23
-24
-25
-25
-25
-25
-25
-26
-27
-28
-29
-28
-27
-28
-29
-29
-29
-28
-27
-27
-27
-26
-25
-26
-27
-27
-26
-25
-26
-27
-27
-27
-26
-25
-26
-27
-26
-25
-26
-27
-27
-27
-27
-27
-28
-29
-29
-29
-28
-27
-27
-27
-27
-27
-28
-29
-29
-29
-28
-28
-30
-31
-30
-29
-29
-29
-29
-29
-29
-29
-29
-29
-29
-29
-29
-29
-29
-29
-29
-28
-27
-27
-27
-27
-27
-27
-27
-28
-29
-28
-27
-28
-29
-28
-27
-27
-27
-26
-25
-24
-23
-24
-25
-25
-25
-25
-25
-25
-24
-23
-23
-23
-23
-23
-22
-21
-22
-23
-23
-23
-22
-21
-22
-23
-23
-23
-22
-21
-21
-21
-21
-21
-21
-21
-21
-21
-21
-21
-21
-21
-21
-21
-20
-19
-20
-21
-20
-19
-19
-19
-19
-19
-19
-19
-19
-19
-19
-18
-17
-17
-17
-16
-15
-16
-17
-16
-15
-15
-15
-13
-11
-8
-7
-6
-4
-2
0
2
3
2
2
4
6
8
8
6
4
2
1
1
-2
1
-11
-15
-16
-17
-18
-19
-18
-17
-19
-21
-20
-19
-18
-17
-17
-17
-16
-15
-16
-17
-14
-12
-10
-8
-6
0
9
36
72
127
191
222
242
229
205
149
86
31
-23
-30
-34
-24
-13
-13
-13
-15
-17
-18
-19
-21
-23
-23
-23
-23
-23
-23
-23
-23
-23
-22
-21
-21
-21
-20
-19
-19
-19
-19
-19
-18
-17
-18
-18
-16
-15
-14
-13
-12
-10
-8
-7
-7
-6
-3
-2
-1
0
1
5
9
12
15
18
22
26
29
31
34
37
41
46
49
51
54
59
62
64
66
69
72
74
75
74
73
72
68
64
59
52
47
42
36
30
23
29
10
5
0
-5
-8
-11
-13
-15
-19
-23
-23
-23
-23
-23
-24
-25
-25
-25
-26
-27
-27
-27
-27
-27
-28
-28
-26
-25
-26
-27
-26
-25
-24
-23
-24
-25
-25
-25
-25
-25
-26
-26
-25
-25
-25
-25
-25
-24
-23
-24
-25
-26
-27
-27
-27
-27
-27
-27
-27
-27
-27
-27
-27
-26
-25
-26
-27
-27
-27
-27
-27
-28
-29
-28
-27
-26
-25
-26
-27
-26
-25
-26
-27
-27
-26
-25
-26
-27
-27
-27
-26
-25
-25
-25
-24
-23
-24
-25
-25
-25
-24
-23
-24
-25
-25
-25
-25
-25
-24
-23
-22
-21
-22
-23
-23
-23
-22
-21
-22
-23
-22
-21
-21
-21
-21
-20
-19
-20
-21
-20
-19
-19
-19
-20
-21
-20
-19
-18
-17
-18
-19
-18
-17
-18
-19
-18
-17
-17
-18
-20
-21
-20
-19
-18
-17
-17
-17
-16
-15
-15
-15
-16
-17
-16
-15
-16
-16
-15
-11
-7
-6
-5
-4
-3
-2
-1
0
1
1
1
3
5
6
7
7
7
5
3
2
0
-3
-8
-13
-15
-16
-17
-18
-19
-19
-19
-19
-19
-19
-19
-18
-17
-18
-19
-17
-17
-17
-17
-17
-15
-13
-9
-4
1
10
34
69
130
181
213
227
211
176
116
59
5
-26
-36
-34
-20
-14
-12
-13
-16
-17
-18
-19
-20
-21
-22
-23
-23
-23
-22
-21
-21
-21
-21
-21
-21
-21
-21
-20
-19
-20
-21
-19
-17
-16
-15
-15
-15
-13
-11
-11
-11
-8
-6
-4
-3
-3
-2
0
3
6
9
12
16
20
21
22
26
30
35
40
42
44
49
53
56
59
63
67
70
73
73
73
74
75
75
74
70
65
59
53
47
40
32
24
17
10
4
-2
-7
-11
-15
-19
-22
-24
-26
-27
-27
-27
-28
-29
-29
-29
-29
-29
-31
-31
-31
-32
-33
-32
-31
-30
-29
-29
-29
-29
-29
-30
-31
-30
-29
-28
-27
-28
-29
-29
-29
-29
-29
-29
-29
-28
-27
-28
-29
-29
-29
-29
-29
-30
-31
-31
-31
-30
-29
-29
-30
-29
-29
-29
-30
-31
-31
-31
-32
-33
-33
-33
-32
-31
-31
-31
-30
-29
-30
-31
-31
-31
-31
-31
-31
-31
-31
-31
-31
-31
-31
-31
-31
-31
-31
-31
-30
-29
-29
-29
-30
-31
-31
-30
-29
-29
-29
-28
-27
-28
-29
-28
-27
-27
-27
-29
-31
-29
-27
-27
-27
-27
-27
-26
-25
-25
-25
-26
-27
-26
-26
-28
-28
-26
-25
-25
-25
-25
-25
-24
-23
-24
-25
-25
-24
-23
-24
-25
-25
-25
-24
-23
-23
-23
-23
-23
-23
-23
-23
-23
-22
-21
-20
-19
-16
-15
-14
-12
-10
-8
-6
-5
-5
-5
-4
-2
0
1
0
-1
-2
-3
-4
-7
-5
-15
-19
-21
-23
-24
-25
-24
-23
-24
-25
-25
-25
-25
-25
-25
-25
-24
-23
-24
-25
-22
-21
-20
-18
-16
-13
-9
5
25
67
118
162
204
211
208
173
132
78
23
-16
-54
-45
-35
-27
-19
-19
-19
-21
-23
-24
-25
-26
-27
-27
-27
-28
-29
-28
-27
-27
-27
-27
-27
-26
-25
-25
-25
-24
-23
-23
-23
-22
-21
-21
-20
-18
-17
-17
-17
-16
-14
-12
-11
-9
-8
-7
-4
-1
0
1
3
5
8
12
16
19
22
26
29
32
35
39
44
47
50
53
57
60
62
64
67
69
69
68
66
64
62
58
54
47
40
34
28
22
27
9
3
-2
-7
-12
-17
-20
-23
-24
-25
-27
-29
-30
-31
-31
-31
-31
-31
-31
-31
-31
-31
-31
-31
-32
-33
-32
-31
-31
-31
-31
-30
-28
-27
-28
-29
-29
-29
-28
-27
-28
-28
-27
-27
-27
-28
-29
-29
-29
-29
-29
-30
-31
-30
-29
-30
-31
-31
-31
-31
-31
-30
-29
-29
-29
-30
-31
-31
-31
-30
-30
-32
-32
-30
-29
-30
-31
-30
-29
-28
-27
-28
-29
-29
-28
-27
-29
-31
-30
-29
-28
-27
-28
-29
-28
-27
-27
-27
-27
-27
-27
-27
-27
-27
-28
-29
-28
-27
-26
-25
-25
-25
-25
-25
-25
-25
-24
-23
-24
-25
-25
-25
-24
-23
-23
-23
-23
-23
-23
-23
-23
-23
-23
-23
-23
-22
-21
-21
-21
-21
-21
-20
-19
-20
-21
-21
-21
-20
-19
-20
-21
-21
-21
-20
-19
-19
-19
-18
-17
-17
-17
-18
-19
-19
-19
-19
-18
-17
-17
-17
-16
-15
-15
-15
-15
-15
-15
-15
-14
-13
-13
-12
-9
-7
-6
-5
-4
-2
1
3
3
3
3
4
8
8
6
5
4
3
2
0
-2
-6
-10
-13
-16
-17
-19
-18
-17
-18
-19
-19
-19
-18
-17
-17
-17
-17
-17
-17
-17
-16
-15
-14
-12
-9
-5
2
18
44
88
147
194
235
241
227
181
121
61
1
-23
-38
-30
-17
-15
-14
-14
-13
-19
-21
-22
-23
-24
-25
-25
-25
-26
-27
-26
-25
-24
-23
-23
-23
-22
-21
-22
-23
-22
-21
-21
-21
-21
-21
-20
-19
-18
-17
-16
-14
-12
-11
-10
-9
-8
-6
-4
-3
-2
3
7
10
13
16
19
23
27
30
33
36
40
44
47
49
52
57
62
65
67
68
70
73
74
72
70
68
65
61
54
46
39
33
27
21
15
10
5
0
-5
-10
-13
-17
-19
-21
-24
-27
-28
-29
-29
-29
-30
-31
-30
-29
-31
-33
-32
-31
-31
-31
-32
-33
-32
-31
-31
-31
-30
-29
-29
-29
-30
-31
-31
-31
-31
-31
-31
-31
-31
-31
-31
-31
-31
-28
-27
-29
-31
-31
-31
-30
-29
-31
-33
-32
-31
-31
-31
-31
-31
-31
-31
-31
-31
-32
-33
-32
-31
-32
-33
-32
-31
-31
-31
-31
-31
-30
-29
-30
-31
-31
-31
-31
-31
-31
-30
-29
-29
-29
-29
-29
-28
-27
-28
-29
-29
-29
-28
-27
-29
-31
-29
-27
-27
-27
-26
-25
-25
-25
-26
-27
-27
-26
-24
-24
-26
-27
-26
-25
-25
-25
-24
-23
-23
-23
-24
-25
-23
-22
-21
-23
-25
-24
-23
-22
-21
-21
-21
-21
-21
-21
-21
-21
-21
-21
-21
-22
-23
-22
-21
-21
-21
-21
-21
-20
-19
-20
-21
-20
-19
-18
-18
-20
-21
-20
-19
-19
-19
-19
-18
-17
-17
-17
-17
-17
-17
-17
-18
-19
-19
-19
-18
-17
-17
-17
-17
-17
-18
-19
-18
-17
-17
-17
-18
-19
-19
-19
-18
-17
-17
-17
-17
-17
-17
-17
-17
-17
-16
-15
-16
-14
-11
-10
-9
-8
-7
-6
-5
-4
-3
-2
-1
-1
-1
-3
-5
-4
-3
-5
-7
-7
-8
-11
-15
-19
-21
-20
-19
-19
-19
-20
-21
-20
-19
-19
-19
-18
-17
-17
-17
-17
-17
-15
-14
-13
-12
-11
-8
-5
2
12
41
77
135
186
216
232
217
185
128
69
9
-26
-35
-32
-19
-13
-13
-14
-16
-18
-20
-21
-21
-21
-21
-21
-22
-23
-23
-23
-23
-23
-23
-20
-19
-20
-21
-20
-19
-18
-17
-18
-19
-18
-17
-16
-15
-13
-11
-11
-11
-10
-9
-6
-4
-2
-1
-1
0
3
7
10
13
16
20
24
26
28
32
36
41
46
48
50
55
59
63
67
69
71
73
75
75
75
75
75
72
68
61
55
49
43
37
30
23
16
10
4
-2
-7
-11
-14
-16
-19
-23
-25
-26
-27
-27
-27
-28
-29
-29
-29
-29
-29
-31
-30
-29
-31
-33
-32
-31
-31
-31
-30
-29
-29
-29
-29
-29
-29
-29
-29
-29
-28
-27
-28
-29
-29
-29
-29
-29
-28
-27
-27
-27
-27
-27
-28
-29
-29
-29
-29
-29
-29
-29
-29
-29
-29
-29
-29
-30
-31
-30
-29
-29
-29
-30
-31
-30
-29
-29
-29
-29
-29
-29
-29
-29
-29
-29
-29
-29
-29
-29
-29
-29
-29
-28
-27
-27
-27
-27
-27
-27
-27
-27
-27
-27
-27
-27
-26
-25
-25
-25
-24
-23
-23
-23
-24
-25
-24
-23
-24
-25
-24
-23
-22
-21
-21
-21
-21
-21
-21
-21
-20
-19
-19
-19
-20
-21
-20
-19
-19
-19
-18
-17
-17
-17
-18
-19
-19
-19
-19
-18
-17
-17
-17
-17
-17
-16
-15
-14
-13
-13
-12
-9
-7
-7
-7
-7
-6
-3
-1
0
1
2
4
7
9
8
5
2
1
0
-4
-8
-11
-14
-15
-15
-15
-15
-17
-17
-17
-17
-17
-17
-16
-15
-17
-19
-18
-17
-16
-15
-15
-15
-13
-11
-9
-7
-4
3
15
40
73
123
184
212
223
206
175
127
73
24
-23
-31
-31
-21
-10
-9
-10
-13
-15
-15
-15
-15
-15
-15
-15
-16
-17
-17
-17
-16
-15
-16
-17
-16
-15
-15
-15
-14
-13
-12
-11
-10
-9
-9
-9
-8
-7
-7
-7
-6
-4
-2
-1
0
3
6
7
8
9
11
15
19
20
21
25
29
33
37
40
44
48
51
54
58
61
64
67
69
71
73
74
76
78
79
78
76
74
71
67
60
51
45
39
33
26
20
14
9
4
0
3
-8
-11
-13
-15
-17
-19
-20
-21
-21
-21
-22
-23
-22
-21
-21
-21
-21
-21
-21
-21
-21
-21
-21
-21
-21
-21
-21
-21
-21
-21
-21
-21
-20
-19
-19
-19
-20
-21
-21
-21
-22
-23
-23
-22
-21
-21
-21
-21
-21
-22
-23
-23
-23
-22
-21
-23
-25
-24
-23
-23
-23
-23
-23
-22
-22
-24
-25
-24
-23
-23
-23
-24
-25
-24
-23
-23
-23
-23
-23
-22
-22
-24
-24
-21
-21
-21
-22
-23
-23
-23
-22
-21
-21
-21
-20
-19
-20
-21
-21
-21
-20
-19
-20
-21
-21
-21
-20
-19
-19
-19
-19
-19
-19
-19
-19
-19
-18
-17
-18
-19
-19
-19
-19
-18
-19
-16
-17
-17
-17
-17
-17
-17
-17
-17
-17
-17
-17
-16
-15
-15
-15
-15
-15
-15
-15
-15
-15
-15
-15
-15
-15
-16
-17
-16
-15
-15
-15
-15
-15
-15
-15
-14
-13
-13
-13
-14
-15
-15
-14
-13
-13
-13
-12
-11
-11
-11
-11
-11
-9
-7
-5
-3
-3
-3
-1
1
3
5
5
6
8
9
9
8
6
2
-3
-5
-5
-5
-6
-9
-12
-13
-14
-15
-16
-17
-17
-16
-15
-15
-15
-16
-17
-16
-15
-15
-15
-14
-13
-12
-10
-7
-5
-3
4
16
41
80
132
196
230
244
228
195
139
74
21
-27
-33
-25
-19
-14
-13
-14
-16
-18
-19
-19
-19
-19
-20
-21
-21
-21
-21
-21
-22
-23
-22
-21
-21
-21
-20
-19
-18
-17
-18
-19
-18
-17
-16
-15
-16
-16
-14
-12
-10
-9
-8
-6
-4
-3
-2
0
2
4
6
7
8
12
15
19
23
26
29
34
39
42
45
48
52
56
59
61
64
67
70
73
75
76
77
76
74
71
67
63
58
53
46
38
30
23
17
11
5
0
-3
-6
-10
-14
-16
-19
-21
-23
-24
-25
-26
-27
-27
-27
-27
-27
-27
-27
-27
-27
-27
-27
-26
-25
-26
-27
-27
-27
-26
-25
-25
-25
-25
-25
-25
-25
-25
-25
-25
-25
-24
-23
-24
-25
-25
-25
-25
-25
-25
-25
-25
-25
-25
-26
-27
-27
-27
-27
-27
-27
-27
-27
-27
-27
-27
-27
-27
-28
-29
-28
-27
-28
-29
-29
-29
-28
-27
-27
-27
-27
-27
-26
-25
-26
-27
-27
-27
-26
-26
-27
-26
-25
-25
-25
-25
-25
-25
-25
-24
-23
-23
-23
-23
-23
-24
-25
-24
-23
-23
-23
-23
-23
-23
-23
-24
-25
-24
-23
-22
-21
-22
-23
-22
-21
-20
-19
-20
-21
-21
-21
-19
-19
-19
-19
-19
-20
-21
-20
-19
-19
-19
-19
-19
-19
-19
-19
-19
-19
-19
-19
-19
-19
-19
-19
-19
-18
-17
-17
-17
-18
-19
-19
-18
-16
-16
-18
-19
-18
-17
-17
-17
-17
-15
-15
-16
-17
-16
-15
-15
-15
-15
-15
-14
-13
-10
-7
-6
-5
-5
-5
-4
-3
0
1
0
-1
-2
-3
-2
-1
-2
-3
-4
-5
-5
-8
-12
-15
-18
-19
-18
-17
-18
-18
-17
-17
-17
-17
-17
-16
-15
-15
-15
-15
-15
-14
-13
-13
-13
-11
-8
-5
0
8
25
51
93
150
190
220
222
206
166
113
59
4
-21
-36
-29
-17
-13
-10
-10
-12
-14
-17
-17
-17
-19
-21
-21
-21
-20
-19
-19
-19
-18
-17
-18
-19
-18
-17
-16
-15
-16
-17
-16
-15
-14
-13
-12
-10
-8
-7
-7
-7
-6
-5
-4
-3
-2
0
2
4
6
8
7
15
19
22
25
28
31
34
37
40
43
46
50
55
60
63
66
70
73
74
75
76
77
76
74
71
68
65
59
53
46
39
32
25
18
11
5
0
-5
-10
-14
-18
-21
-23
-24
-25
-26
-27
-27
-27
-28
-29
-29
-29
-28
-27
-29
-31
-31
-31
-30
-29
-29
-29
-28
-27
-28
-29
-28
-27
-27
-27
-28
-29
-29
-29
-28
-27
-27
-27
-27
-27
-27
-27
-27
-28
-29
-30
-31
-30
-29
-29
-29
-29
-29
-28
-27
-29
-31
-30
-29
-29
-29
-31
-33
-32
-31
-31
-31
-30
-29
-29
-29
-30
-31
-30
-29
-29
-29
-30
-31
-30
-29
-29
-29
-29
-27
-27
-28
-29
-29
-29
-28
-27
-28
-29
-28
-27
-27
-27
-26
-25
-24
-23
-24
-25
-25
-25
-25
-25
-26
-27
-26
-25
-24
-23
-23
-23
-22
-21
-22
-23
-23
-23
-22
-21
-22
-23
-23
-22
-21
-21
-21
-21
-21
-21
-21
-21
-21
-21
-21
-22
-23
-22
-21
-21
-21
-20
-19
-19
-19
-19
-19
-19
-19
-19
-19
-20
-21
-21
-21
-20
-19
-19
-19
-19
-19
-18
-17
-17
-17
-17
-19
-21
-21
-21
-19
-17
-18
-19
-19
-19
-17
-15
-16
-17
-17
-17
-17
-17
-17
-17
-18
-19
-18
-17
-17
-17
-17
-17
-16
-15
-15
-15
-15
-15
-14
-10
-6
-3
-5
18
37
86
135
183
225
225
217
173
125
64
10
-22
-42
-32
-23
-17
-13
-14
-15
-18
-19
-20
-21
-22
-23
-23
-23
-22
-21
-21
-21
-20
-19
-20
-21
-21
-21
-20
-19
-20
-20
-19
-17
-15
-15
-15
-14
-13
-13
-13
-11
-9
-8
-7
-7
-7
-5
-3
-1
1
3
6
9
12
15
18
20
22
26
29
33
36
38
42
46
49
52
55
58
60
62
64
67
67
67
66
65
62
59
54
48
42
35
27
20
14
7
1
-5
-10
-14
-18
-22
-25
-27
-28
-30
-32
-33
-33
-33
-33
-33
-34
-35
-35
-35
-35
-35
-36
-37
-36
-35
-35
-33
-33
-33
-33
-34
-35
-34
-33
-33
-33
-34
-35
-34
-33
-33
-33
-33
-33
-32
-31
-34
-35
-34
-33
-34
-35
-35
-35
-35
-35
-35
-35
-34
-33
-34
-35
-35
-35
-35
-35
-36
-37
-37
-36
-35
-35
-35
-35
-35
-35
-35
-35
-35
-35
-35
-36
-37
-36
-35
-35
-35
-34
-33
-32
-31
-32
-33
-33
-33
-32
-32
-34
-35
-34
-33
-32
-31
-31
-31
-30
-29
-30
-31
-29
-29
-29
-30
-31
-31
-31
-29
-27
-27
-27
-27
-27
-27
-27
-27
-27
-27
-27
-28
-29
-29
-29
-28
-27
-27
-27
-26
-25
-26
-27
-26
-25
-25
-25
-26
-27
-26
-25
-24
-23
-23
-23
-23
-23
-23
-23
-23
-23
-23
-23
-23
-24
-25
-24
-23
-23
-23
-22
-21
-21
-21
-21
-21
-21
-21
-21
-21
-22
-23
-22
-21
-21
-21
-21
-21
-20
-19
-19
-19
-20
-21
-20
-21
-23
-22
-21
-20
-19
-21
-23
-21
-19
-20
-21
-23
-25
-21
-19
-18
-17
-17
-17
-17
-17
-17
-17
-16
-15
-15
-15
-15
-15
-15
-15
-15
-15
-14
-13
-12
-9
-6
-3
0
17
35
82
130
183
231
235
233
190
142
77
19
-16
-38
-27
-18
-14
-11
-13
-15
-17
-19
-20
-21
-21
-21
-21
-21
-20
-19
-20
-21
-20
-19
-19
-19
-19
-19
-19
-19
-18
-17
-17
-15
-15
-15
-15
-14
-13
-12
-11
-11
-11
-10
-9
-6
-3
-2
0
3
5
7
9
12
14
17
20
22
25
29
33
37
41
45
50
54
56
58
61
64
65
66
67
67
67
67
65
63
60
57
52
46
38
30
24
18
12
6
-1
-6
-10
-14
-17
-19
-21
-24
-26
-28
-30
-31
-31
-31
-31
-31
-32
-33
-34
-35
-34
-33
-33
-33
-33
-33
-33
-33
-33
-33
-33
-33
-33
-33
-33
-32
-31
-32
-33
-32
-31
-32
-33
-32
-31
-31
-31
-32
-33
-33
-33
-33
-33
-32
-31
-31
-31
-32
-33
-33
-33
-33
-33
-33
-33
-34
-35
-34
-33
-33
-34
-35
-34
-33
-33
-33
-33
-33
-33
-33
-34
-35
-34
-33
-33
-33
-32
-31
-32
-33
-32
-31
-31
-31
-31
-31
-31
-31
-31
-31
-31
-31
-31
-31
-31
-31
-31
-31
-31
-31
-30
-30
-31
-30
-29
-29
-29
-29
-29
-28
-27
-28
-29
-28
-27
-27
-27
-27
-27
-26
-25
-26
-27
-26
-25
-25
-25
-26
-27
-26
-25
-26
-27
-26
-25
-25
-25
-25
-24
-22
-22
-24
-25
-25
-24
-23
-24
-25
-25
-25
-24
-23
-22
-21
-22
-23
-23
-23
-23
-23
-22
-21
-23
-25
-24
-23
-22
-21
-21
-21
-21
-21
-21
-21
-21
-21
-21
-21
-21
-21
-21
-21
-21
-21
-21
-23
-23
-24
-25
-24
-23
-24
-25
-24
-23
-23
-23
-25
-27
-27
-26
-20
-17
-17
-17
-18
-19
-19
-18
-16
-15
-16
-17
-16
-15
-15
-15
-15
-14
-12
-11
-11
-9
-6
-4
-2
15
32
77
122
173
217
220
217
179
136
75
19
-20
-44
-31
-21
-15
-11
-12
-13
-15
-17
-17
-17
-17
-17
-18
-19
-19
-19
-19
-19
-20
-21
-20
-19
-18
-17
-17
-17
-16
-15
-13
-13
-13
-12
-11
-12
-13
-10
-7
-7
-7
-6
-5
-3
-1
1
3
4
5
7
9
12
15
19
22
25
28
31
35
39
43
46
50
54
56
58
60
62
65
68
70
69
74
75
72
69
65
61
56
50
43
36
29
21
14
7
1
-4
-7
-11
-16
-19
-22
-24
-26
-28
-30
-31
-32
-33
-32
-31
-31
-31
-30
-30
-32
-33
-32
-31
-30
-30
-32
-32
-31
-31
-31
-30
-29
-29
-29
-29
-29
-29
-29
-28
-27
-28
-29
-29
-29
-28
-27
-28
-29
-28
-27
-28
-29
-29
-29
-28
-27
-28
-29
-30
-31
-30
-29
-29
-29
-29
-29
-29
-29
-29
-29
-29
-29
-29
-30
-31
-29
-27
-28
-29
-28
-27
-27
-27
-27
-27
-27
-27
-26
-25
-28
-28
-26
-25
-25
-25
-25
-25
-24
-23
-23
-23
-23
-23
-23
-23
-24
-24
-22
-21
-21
-21
-21
-20
-19
-20
-21
-21
-21
-20
-19
-20
-21
-21
-21
-20
-19
-19
-19
-18
-17
-18
-19
-18
-17
-17
-17
-18
-18
-16
-15
-16
-17
-16
-15
-15
-15
-15
-15
-15
-15
-15
-15
-15
-15
-15
-14
-13
-13
-13
-13
-13
-13
-13
-13
-13
-13
-13
-13
-13
-12
-11
-12
-13
-12
-11
-11
-11
-11
-11
-11
-12
-14
-14
-12
-11
-12
-13
-12
-11
-10
-10
-12
-13
-15
-11
-7
-7
-7
-8
-9
-8
-7
-6
-5
-4
-3
-3
-3
-3
-3
-3
-3
-3
-3
-2
0
3
6
8
15
25
52
87
140
200
227
243
221
188
132
73
25
-22
-21
-25
-7
1
0
-1
-2
-3
-4
-5
-7
-9
-8
-7
-7
-7
-7
-7
-6
-5
-5
-5
-5
-5
-4
-3
-4
-5
-4
-2
0
1
1
1
1
1
2
3
4
5
5
6
8
10
11
12
13
15
17
19
21
24
27
28
30
34
37
41
44
47
50
54
58
62
66
69
72
75
77
78
80
82
83
82
80
78
75
72
66
60
54
48
40
32
25
17
13
9
3
-3
-5
-7
-9
-11
-12
-13
-14
-15
-16
-17
-18
-19
-19
-19
-20
-21
-20
-19
-18
-17
-17
-17
-17
-17
-18
-19
-18
-17
-17
-17
-18
-19
-19
-19
-18
-17
-17
-16
-17
-17
-17
-17
-17
-17
-17
-18
-19
-19
-19
-18
-17
-18
-19
-19
-19
-19
-19
-20
-21
-21
-21
-20
-19
-20
-21
-20
-19
-20
-21
-20
-19
-19
-19
-19
-19
-19
-19
-19
-20
-21
-20
-19
-19
-19
-18
-17
-18
-19
-19
-19
-18
-17
-18
-19
-19
-19
-18
-17
-16
-15
-15
-15
-16
-17
-17
-17
-16
-16
-18
-19
-18
-17
-16
-15
-14
-13
-14
-15
-15
-15
-15
-14
-13
-15
-17
-16
-15
-14
-13
-13
-13
-12
-11
-13
-15
-14
-13
-13
-13
-14
-15
-14
-13
-13
-13
-12
-11
-11
-11
-11
-11
-11
-11
-11
-11
-11
-11
-12
-13
-12
-11
-11
-11
-11
-10
-9
-10
-11
-11
-11
-11
-11
-11
-11
-10
-9
-9
-9
-9
-9
-9
-9
-9
-9
-8
-7
-6
-4
-2
-1
-2
-3
-3
-3
-3
-3
-4
-5
-5
-4
-2
-1
-2
-6
-9
-8
-7
-8
-9
-10
-11
-11
-11
-12
-13
-12
-11
-11
-11
-11
-11
-10
-9
-9
-8
-6
-4
-2
0
3
15
31
66
109
162
218
238
247
222
188
126
61
11
-37
-31
-21
-14
-7
-10
-13
-14
-15
-16
-17
-17
-17
-16
-15
-16
-17
-18
-19
-18
-17
-18
-19
-18
-17
-16
-15
-15
-15
-14
-13
-13
-13
-12
-11
-11
-11
-10
-9
-9
-8
-6
-5
-5
-2
-1
2
5
6
7
9
11
13
15
17
20
24
28
32
36
39
42
46
49
52
54
57
60
63
65
66
68
70
71
71
71
70
67
64
59
54
48
42
35
28
20
13
8
3
-2
-7
-11
-15
-17
-19
-21
-23
-25
-27
-27
-27
-29
-31
-30
-29
-29
-29
-29
-29
-29
-29
-29
-29
-29
-29
-28
-28
-30
-31
-30
-29
-29
-29
-29
-29
-29
-29
-29
-29
-29
-29
-29
-29
-29
-29
-29
-29
-29
-29
-29
-29
-29
-30
-31
-31
-31
-31
-31
-32
-33
-32
-31
-30
-29
-29
-29
-30
-31
-31
-31
-31
-31
-31
-31
-32
-33
-32
-31
-31
-30
-29
-29
-29
-29
-29
-29
-29
-31
-33
-32
-31
-30
-29
-28
-27
-26
-25
-26
-27
-27
-27
-27
-27
-28
-29
-28
-27
-27
-27
-26
-25
-25
-25
-25
-25
-25
-25
-25
-25
-26
-26
-25
-24
-23
-23
-23
-23
-23
-23
-23
-23
-23
-23
-23
-24
-25
-24
-23
-23
-23
-22
-21
-21
-21
-22
-23
-22
-21
-21
-21
-22
-23
-22
-21
-21
-21
-20
-19
-19
-19
-19
-19
-19
-19
-19
-20
-21
-20
-19
-19
-19
-18
-17
-16
-15
-15
-14
-11
-9
-8
-7
-8
-8
-5
-3
-2
-1
-1
0
3
3
-1
-3
-4
-5
-6
-8
-10
-14
-18
-20
-22
-23
-23
-21
-21
-21
-21
-21
-21
-21
-21
-22
-23
-21
-19
-18
-17
-17
-17
-15
-13
-11
-9
-6
3
21
52
93
143
199
219
220
192
150
96
39
-4
-42
-40
-29
-21
-14
-15
-18
-19
-19
-20
-21
-22
-23
-22
-21
-22
-23
-23
-23
-22
-21
-22
-23
-22
-21
-21
-21
-20
-19
-18
-17
-17
-17
-16
-15
-14
-13
-13
-13
-12
-10
-8
-7
-6
-4
-2
0
2
3
5
8
11
14
17
20
23
26
29
33
38
42
45
48
52
55
58
61
63
65
67
70
72
74
74
72
71
70
66
61
55
49
42
35
29
22
15
8
2
-4
-8
-5
-16
-19
-21
-23
-25
-27
-27
-27
-28
-29
-30
-31
-31
-31
-31
-31
-31
-31
-30
-29
-29
-29
-29
-29
-29
-29
-30
-31
-30
-29
-29
-29
-29
-29
-28
-27
-28
-29
-29
-29
-28
-28
-29
-29
-29
-29
-29
-29
-29
-29
-29
-29
-29
-29
-29
-31
-33
-33
-33
-33
-33
-32
-31
-31
-31
-31
-31
-31
-31
-31
-31
-31
-31
-32
-33
-32
-31
-31
-31
-30
-29
-29
-29
-31
-30
-29
-30
-31
-30
-29
-29
-29
-28
-27
-27
-27
-27
-27
-27
-27
-27
-27
-28
-29
-28
-27
-27
-27
-26
-25
-25
-25
-25
-25
-25
-25
-24
-24
-26
-27
-26
-25
-24
-23
-23
-23
-23
-23
-23
-22
-21
-21
-21
-22
-23
-23
-23
-22
-21
-21
-21
-20
-19
-20
-21
-21
-21
-20
-20
-22
-22
-20
-19
-19
-19
-18
-16
-14
-12
-10
-9
-9
-9
-8
-7
-6
-4
-3
-2
-1
2
5
6
7
4
1
-1
-3
-4
-6
-13
-17
-18
-19
-20
-21
-21
-21
-21
-21
-21
-21
-22
-23
-22
-21
-22
-23
-22
-21
-20
-19
-18
-15
-12
-10
-8
4
17
47
78
140
197
216
230
209
179
120
62
8
-32
-36
-36
-24
-17
-17
-17
-19
-21
-24
-25
-25
-25
-25
-25
-25
-25
-25
-25
-26
-27
-27
-27
-26
-25
-25
-25
-25
-25
-25
-22
-21
-20
-19
-19
-19
-18
-17
-17
-17
-16
-15
-13
-11
-9
-7
-5
-3
-1
1
4
6
9
12
14
17
21
25
29
33
36
40
45
48
50
53
56
59
62
63
64
65
65
65
65
62
59
54
48
41
34
28
22
16
9
2
-4
-7
-11
-16
-20
-23
-25
-26
-28
-30
-31
-31
-31
-32
-33
-34
-35
-35
-35
-34
-33
-33
-33
-32
-32
-34
-35
-33
-33
-33
-34
-35
-34
-33
-32
-31
-32
-33
-33
-33
-33
-33
-32
-31
-31
-31
-32
-33
-34
-35
-34
-33
-33
-33
-33
-33
-34
-35
-34
-33
-33
-33
-34
-35
-35
-35
-34
-33
-33
-34
-33
-33
-33
-34
-35
-34
-33
-34
-35
-34
-33
-33
-33
-32
-31
-30
-29
-30
-31
-31
-31
-30
-29
-30
-31
-31
-31
-30
-29
-29
-29
-28
-27
-28
-29
-29
-29
-28
-27
-28
-29
-29
-28
-27
-27
-27
-26
-25
-26
-27
-27
-27
-27
-27
-27
-27
-27
-27
-26
-25
-25
-25
-24
-23
-23
-23
-23
-23
-23
-23
-24
-25
-24
-23
-23
-23
-23
-23
-22
-21
-22
-23
-23
-22
-21
-22
-23
-22
-21
-21
-21
-21
-21
-21
-21
-20
-19
-19
-19
-18
-17
-17
-16
-13
-10
-8
-7
-7
-6
-4
-3
-2
-1
-1
2
6
7
6
4
2
1
0
-2
-1
-10
-15
-16
-17
-19
-21
-21
-21
-21
-21
-21
-21
-21
-21
-21
-21
-20
-19
-18
-17
-17
-16
-14
-12
-10
-6
0
18
42
87
143
189
232
237
232
186
131
67
2
-23
-44
-31
-17
-16
-15
-17
-19
-20
-21
-22
-23
-23
-23
-24
-25
-26
-27
-26
-25
-24
-23
-23
-23
-23
-23
-23
-23
-22
-21
-20
-19
-20
-21
-20
-19
-18
-16
-14
-13
-12
-11
-11
-10
-7
-5
-3
-2
-1
2
5
9
13
16
19
22
25
28
32
35
38
42
45
47
50
55
59
63
65
66
68
70
71
70
68
66
62
58
53
46
40
34
27
20
14
19
2
-3
-8
-13
-16
-19
-21
-23
-26
-29
-29
-29
-30
-31
-31
-31
-31
-31
-32
-33
-33
-33
-33
-33
-34
-35
-35
-35
-34
-33
-33
-33
-32
-31
-32
-33
-33
-33
-33
-33
-34
-35
-35
-34
-33
-33
-33
-33
-33
-34
-35
-35
-35
-34
-33
-35
-37
-37
-37
-37
-37
-36
-35
-35
-35
-36
-37
-37
-37
-37
-37
-38
-39
-38
-37
-37
-37
-37
-37
-36
-35
-36
-37
-37
-37
-37
-38
-39
-38
-37
-36
-35
-35
-35
-35
-35
-35
-35
-35
-35
-35
-35
-36
-37
-36
-35
-35
-35
-35
-34
-32
-31
-32
-33
-33
-33
-33
-33
-34
-35
-35
-35
-34
-33
-33
-32
-31
-32
-33
-32
-31
-31
-31
-33
-35
-34
-33
-33
-33
-32
-31
-30
-29
-30
-31
-31
-31
-31
-31
-32
-33
-32
-31
-30
-29
-29
-29
-28
-27
-28
-29
-30
-31
-30
-29
-30
-30
-29
-27
-25
-22
-19
-18
-17
-18
-19
-16
-13
-12
-11
-12
-12
-9
-7
-5
-3
-4
-6
-8
-10
-12
-16
-21
-24
-28
-30
-32
-33
-33
-33
-32
-31
-31
-31
-31
-31
-31
-31
-31
-31
-31
-31
-31
-30
-29
-27
-25
-22
-18
-11
1
24
57
111
159
197
214
202
171
121
69
14
-23
-49
-51
-38
-31
-27
-26
-28
-29
-30
-31
-32
-34
-36
-37
-36
-35
-35
-35
-35
-35
-35
-34
-33
-33
-33
-32
-31
-32
-33
-31
-29
-30
-31
-29
-27
-26
-25
-25
-24
-22
-21
-20
-18
-16
-14
-12
-9
-6
-5
-4
-1
2
5
8
11
14
18
22
26
29
34
39
42
45
48
51
54
57
59
61
62
63
63
63
61
58
54
49
43
36
30
23
15
8
2
-4
-9
-15
-21
-24
-26
-28
-30
-31
-32
-33
-34
-36
-38
-39
-39
-38
-37
-38
-39
-39
-39
-38
-37
-37
-37
-36
-35
-36
-37
-38
-39
-37
-35
-36
-37
-37
-37
-36
-35
-35
-35
-34
-33
-34
-35
-35
-35
-35
-36
-38
-39
-38
-37
-36
-35
-35
-35
-35
-35
-35
-36
-37
-37
-37
-37
-37
-37
-37
-36
-35
-35
-35
-35
-35
-35
-35
-35
-35
-35
-35
-36
-37
-36
-35
-34
-33
-33
-33
-32
-31
-32
-33
-33
-33
-32
-31
-32
-32
-31
-30
-29
-29
-29
-28
-27
-29
-31
-30
-29
-29
-29
-29
-29
-28
-27
-27
-27
-26
-25
-25
-25
-25
-25
-25
-25
-24
-24
-26
-27
-26
-25
-24
-23
-23
-23
-22
-21
-22
-23
-21
-20
-19
-21
-23
-22
-21
-21
-21
-20
-19
-18
-17
-18
-19
-19
-19
-17
-15
-16
-16
-13
-10
-8
-7
-6
-4
-1
1
0
0
2
5
8
9
8
7
6
4
2
1
1
-5
-9
-13
-17
-18
-19
-18
-17
-18
-19
-18
-17
-17
-17
-17
-17
-16
-15
-16
-17
-14
-13
-12
-11
-10
-8
-5
3
12
37
69
123
186
216
239
230
213
163
109
52
-6
-25
-43
-29
-15
-12
-9
-10
-11
-13
-15
-17
-19
-19
-19
-20
-21
-20
-19
-19
-19
-18
-17
-17
-17
-17
-17
-16
-15
-15
-15
-15
-15
-14
-13
-12
-10
-8
-7
-6
-5
-5
-4
-1
0
1
2
3
5
7
10
13
16
19
22
25
28
32
35
38
41
44
48
52
55
59
63
66
68
70
73
76
78
79
79
79
78
75
72
66
60
54
48
41
47
27
21
15
9
4
-1
-4
-7
-10
-13
-15
-17
-18
-19
-19
-19
-19
-19
-20
-21
-21
-21
-20
-19
-20
-21
-20
-19
-19
-19
-19
-19
-18
-17
-18
-19
-19
-19
-19
-19
-19
-19
-19
-19
-19
-19
-19
-19
-19
-19
-19
-19
-19
-19
-19
-20
-21
-21
-21
-21
-21
-21
-21
-20
-19
-20
-21
-21
-21
-21
-21
-22
-23
-22
-21
-20
-19
-19
-19
-18
-17
-18
-19
-19
-19
-19
-20
-21
-20
-19
-18
-17
-17
-17
-17
-17
-17
-17
-17
-17
-17
-17
-18
-19
-18
-17
-16
-15
-15
-15
-15
-15
-15
-15
-15
-15
-15
-15
-16
-17
-16
-15
-14
-13
-13
-12
-11
-11
-11
-12
-13
-12
-11
-13
-15
-14
-13
-12
-11
-11
-11
-11
-11
-11
-11
-11
-11
-10
-9
-10
-11
-11
-11
-10
-9
-9
-9
-9
-9
-9
-9
-9
-9
-8
-7
-8
-9
-9
-9
-9
-7
-5
-5
-5
-6
-7
-6
-5
-4
-3
-1
1
2
3
4
5
7
10
12
13
13
14
17
19
18
15
12
11
10
8
6
1
-4
-5
-6
-8
-10
-11
-11
-10
-9
-10
-11
-12
-13
-11
-9
-9
-9
-8
-7
-7
-7
-5
-2
1
5
10
25
51
91
144
192
236
253
252
221
174
117
54
10
-27
-29
-21
-13
-6
-5
-6
-9
-7
-14
-15
-15
-15
-16
-17
-16
-15
-16
-17
-17
-17
-16
-15
-15
-15
-14
-13
-13
-13
-13
-13
-12
-11
-11
-11
-10
-9
-8
-6
-4
-2
0
1
1
2
4
6
8
9
10
14
17
20
23
27
31
35
39
41
43
47
51
54
57
59
62
65
68
71
73
74
76
78
79
78
76
73
68
63
57
51
45
39
33
27
20
14
9
4
0
-4
-8
-13
-15
-17
-19
-21
-22
-23
-23
-23
-24
-25
-24
-23
-24
-25
-25
-25
-24
-23
-25
-27
-26
-25
-24
-23
-24
-25
-24
-23
-24
-25
-25
-25
-25
-25
-26
-27
-26
-25
-24
-23
-23
-25
-25
-25
-25
-25
-25
-26
-27
-28
-29
-28
-27
-27
-27
-26
-25
-26
-27
-27
-27
-27
-27
-27
-27
-27
-27
-28
-29
-29
-29
-29
-29
-29
-29
-28
-27
-28
-29
-28
-27
-27
-28
-29
-28
-27
-27
-27
-27
-27
-26
-25
-26
-27
-26
-25
-25
-25
-26
-27
-27
-27
-25
-23
-24
-25
-24
-23
-23
-23
-23
-23
-23
-23
-23
-23
-23
-23
-22
-21
-21
-21
-21
-21
-21
-21
-21
-22
-23
-22
-21
-21
-21
-21
-21
-20
-19
-19
-19
-20
-21
-21
-21
-21
-21
-20
-19
-19
-19
-19
-19
-18
-17
-18
-19
-18
-17
-17
-17
-17
-17
-16
-13
-10
-9
-9
-6
-5
-3
-1
0
1
1
1
3
5
6
7
5
3
2
1
1
-2
-9
-14
-17
-19
-19
-20
-22
-22
-20
-19
-20
-21
-20
-19
-18
-17
-18
-19
-19
-19
-18
-17
-17
-16
-15
-11
-7
-4
1
23
48
95
141
190
226
222
204
156
105
48
0
-33
-45
-31
-21
-16
-13
-14
-16
-18
-19
-20
-21
-22
-23
-23
-23
-22
-21
-21
-21
-21
-21
-21
-21
-21
-20
-19
-18
-17
-17
-17
-17
-17
-15
-13
-12
-11
-10
-9
-8
-7
-6
-5
-5
-5
-2
0
3
6
9
12
15
19
22
24
26
30
34
37
40
44
48
52
56
58
57
65
69
70
71
72
73
74
75
71
67
64
60
55
49
42
35
28
20
13
7
2
-3
-7
-11
-17
-20
-22
-23
-24
-25
-26
-27
-26
-26
-28
-29
-29
-29
-28
-28
-30
-30
-29
-29
-29
-28
-27
-26
-25
-26
-27
-27
-27
-26
-25
-27
-29
-28
-27
-26
-25
-25
-25
-25
-25
-26
-27
-26
-25
-26
-27
-28
-29
-28
-27
-27
-27
-27
-27
-27
-27
-28
-29
-29
-28
-27
-29
-31
-30
-29
-29
-29
-28
-27
-27
-27
-28
-29
-29
-29
-28
-27
-28
-29
-28
-27
-27
-27
-27
-27
-26
-25
-26
-27
-26
-25
-25
-25
-26
-27
-26
-25
-25
-25
-25
-23
-23
-23
-23
-23
-23
-23
-23
-24
-25
-24
-23
-22
-21
-21
-21
-21
-21
-21
-21
-20
-19
-19
-19
-20
-21
-21
-21
-20
-19
-19
-19
-18
-17
-18
-19
-19
-19
-18
-17
-18
-19
-19
-18
-17
-17
-17
-15
-13
-14
-15
-12
-9
-7
-5
-6
-7
-5
-3
-1
1
2
4
7
9
8
7
7
6
4
2
0
-4
-8
-11
-14
-15
-16
-17
-17
-17
-17
-17
-17
-17
-17
-18
-19
-19
-19
-18
-17
-16
-15
-14
-13
-12
-11
-9
-5
2
17
40
80
138
185
224
236
227
190
135
75
11
-20
-40
-35
-20
-16
-14
-14
-16
-17
-18
-19
-19
-21
-21
-21
-21
-22
-23
-23
-23
-23
-23
-22
-21
-21
-21
-20
-19
-18
-17
-17
-17
-17
-17
-16
-15
-15
-15
-14
-12
-10
-8
-6
-4
-2
-1
0
2
4
7
10
11
12
17
21
24
27
31
35
39
43
46
49
53
57
59
61
62
64
67
69
70
71
71
71
70
66
60
54
48
42
35
28
20
13
7
1
-4
-7
-10
-13
-16
-19
-22
-24
-27
-27
-27
-29
-31
-30
-29
-29
-29
-29
-29
-28
-27
-28
-29
-30
-31
-30
-29
-30
-31
-30
-29
-29
-29
-29
-29
-28
-27
-28
-29
-29
-29
-28
-28
-30
-31
-30
-29
-29
-29
-29
-29
-29
-30
-31
-31
-31
-31
-31
-32
-33
-32
-31
-31
-31
-31
-31
-30
-29
-30
-31
-32
-33
-32
-32
-34
-35
-34
-33
-32
-31
-31
-31
-31
-31
-31
-31
-31
-31
-31
-31
-32
-33
-33
-32
-31
-30
-29
-29
-29
-30
-31
-31
-31
-30
-29
-30
-31
-31
-31
-30
-29
-29
-29
-28
-27
-28
-29
-29
-29
-28
-27
-28
-29
-29
-29
-28
-27
-27
-27
-27
-27
-27
-27
-27
-27
-27
-27
-27
-27
-27
-27
-27
-27
-27
-26
-25
-25
-25
-25
-25
-25
-25
-26
-27
-27
-27
-26
-25
-24
-23
-23
-22
-20
-18
-16
-15
-14
-13
-13
-12
-10
-9
-8
-7
-7
-2
1
0
-1
-3
-5
-7
-9
-12
-16
-21
-25
-26
-27
-27
-27
-27
-27
-27
-27
-27
-27
-27
-28
-30
-30
-28
-27
-26
-25
-24
-22
-20
-18
-16
-9
0
24
51
107
166
200
233
225
213
158
102
38
-18
-37
-51
-37
-27
-25
-23
-27
-29
-30
-31
-32
-33
-33
-33
-32
-31
-32
-33
-34
-35
-34
-33
-33
-33
-33
-33
-32
-31
-30
-29
-29
-29
-28
-27
-27
-25
-23
-24
-25
-23
-21
-20
-19
-17
-15
-12
-9
-8
-6
-3
0
3
5
7
10
13
17
22
26
29
33
37
41
44
47
50
53
56
57
57
58
60
61
61
60
61
54
51
44
37
31
25
18
12
5
-2
-7
-12
-16
-20
-23
-25
-27
-29
-31
-33
-34
-35
-36
-37
-38
-39
-38
-37
-37
-37
-37
-37
-37
-37
-37
-37
-37
-37
-37
-37
-38
-38
-37
-37
-37
-36
-35
-34
-33
-35
-37
-36
-35
-35
-35
-37
-39
-38
-37
-37
-37
-36
-35
-35
-35
-36
-37
-37
-37
-37
-37
-38
-39
-38
-37
-37
-37
-37
-37
-37
-37
-38
-39
-39
-38
-37
-37
-37
-37
-37
-37
-37
-37
-37
-36
-35
-35
-35
-35
-35
-35
-35
-36
-37
-36
-35
-34
-33
-34
-34
-32
-31
-32
-33
-33
-33
-33
-33
-34
-34
-32
-31
-31
-31
-31
-30
-29
-29
-29
-30
-31
-30
-29
-31
-33
-32
-31
-30
-29
-29
-29
-28
-27
-28
-29
-28
-27
-27
-27
-28
-29
-28
-27
-26
-25
-25
-25
-25
-25
-26
-27
-26
-25
-25
-25
-26
-26
-25
-24
-23
-21
-19
-17
-15
-14
-13
-12
-11
-9
-7
-8
-9
-7
-4
-1
1
1
0
-2
-3
-4
-7
-11
-16
-21
-24
-26
-27
-27
-27
-26
-25
-25
-25
-25
-25
-25
-25
-27
-26
-25
-26
-27
-25
-23
-22
-21
-18
-14
-10
-3
11
36
82
132
186
217
218
203
168
118
56
5
-37
-47
-37
-29
-22
-19
-20
-22
-24
-26
-28
-29
-29
-29
-29
-29
-29
-27
-27
-27
-27
-27
-27
-26
-25
-26
-27
-26
-25
-24
-23
-22
-21
-19
-17
-17
-17
-17
-16
-14
-13
-13
-12
-9
-6
-4
-2
0
2
4
6
8
11
14
18
22
24
26
31
35
39
43
47
51
54
57
59
61
64
67
69
71
69
67
66
65
63
59
54
48
42
35
27
20
14
8
1
-5
-11
-15
-18
-20
-22
-24
-26
-27
-28
-29
-30
-31
-33
-33
-33
-34
-35
-35
-35
-34
-33
-33
-33
-33
-33
-33
-33
-33
-33
-32
-31
-32
-33
-33
-33
-33
-33
-32
-31
-31
-31
-31
-31
-31
-31
-31
-31
-31
-32
-34
-35
-34
-33
-33
-33
-33
-32
-31
-32
-33
-34
-35
-34
-33
-34
-35
-34
-33
-33
-33
-33
-33
-33
-33
-33
-33
-33
-33
-33
-33
-33
-33
-32
-31
-31
-31
-30
-29
-29
-29
-30
-31
-30
-29
-30
-30
-29
-29
-29
-29
-29
-28
-27
-28
-29
-28
-27
-27
-27
-28
-29
-27
-25
-26
-27
-25
-23
-23
-23
-24
-25
-25
-25
-24
-23
-24
-25
-24
-23
-23
-23
-23
-23
-22
-21
-22
-23
-21
-21
-21
-22
-23
-22
-21
-21
-21
-21
-21
-20
-19
-20
-21
-20
-19
-19
-19
-20
-21
-20
-19
-18
-17
-17
-17
-16
-15
-16
-17
-16
-15
-14
-13
-12
-10
-8
-7
-6
-3
-5
1
1
1
1
4
7
7
7
5
3
2
1
-1
-4
-9
-13
-15
-17
-18
-19
-20
-20
-18
-18
-20
-21
-20
-19
-19
-19
-19
-18
-16
-15
-16
-17
-16
-13
-10
-9
-8
6
20
53
90
155
214
232
243
214
179
120
64
11
-27
-34
-35
-23
-15
-14
-13
-15
-17
-18
-19
-20
-21
-22
-23
-23
-23
-23
-23
-23
-23
-22
-21
-21
-21
-20
-19
-19
-19
-21
-19
-17
-18
-19
-17
-15
-14
-13
-13
-13
-11
-9
-8
-7
-6
-5
-3
0
3
5
6
9
13
16
18
21
25
29
32
35
38
42
46
50
54
55
56
60
64
66
65
70
71
72
73
72
71
67
63
57
52
45
38
32
25
19
14
8
4
0
-4
-9
-13
-17
-19
-20
-22
-24
-25
-25
-25
-26
-27
-27
-27
-27
-27
-28
-29
-28
-27
-27
-28
-29
-28
-27
-27
-27
-27
-27
-27
-27
-26
-25
-25
-25
-25
-25
-26
-27
-26
-25
-25
-25
-26
-27
-27
-27
-27
-27
-27
-27
-28
-29
-29
-29
-28
-27
-27
-27
-27
-27
-28
-29
-27
-27
-27
-28
-29
-29
-29
-28
-27
-28
-29
-27
-25
-26
-27
-27
-27
-27
-27
-27
-27
-27
-27
-26
-25
-25
-25
-24
-23
-24
-25
-25
-25
-24
-23
-24
-25
-25
-25
-24
-23
-23
-22
-21
-22
-23
-23
-23
-22
-21
-22
-23
-22
-21
-21
-21
-21
-21
-20
-19
-20
-21
-21
-21
-20
-20
-22
-22
-20
-19
-19
-19
-18
-17
-17
-17
-18
-19
-18
-17
-17
-17
-18
-19
-19
-18
-17
-17
-17
-16
-15
-15
-15
-16
-17
-16
-15
-16
-17
-16
-15
-14
-13
-12
-11
-10
-9
-9
-8
-5
-3
-3
-3
-3
-1
2
3
4
5
6
9
12
13
12
10
7
6
5
1
-3
-7
-11
-12
-13
-14
-15
-15
-15
-15
-15
-15
-15
-15
-15
-16
-17
-17
-17
-16
-15
-14
-13
-12
-10
-8
-5
-2
9
22
53
88
144
205
229
250
228
251
142
81
26
-25
-28
-30
-20
-11
-13
-15
-16
-17
-18
-19
-19
-19
-19
-19
-20
-21
-21
-21
-20
-19
-20
-21
-20
-19
-18
-17
-17
-17
-16
-15
-15
-15
-15
-14
-12
-11
-12
-11
-9
-7
-5
-4
-3
-1
1
2
3
6
9
11
13
15
18
22
26
29
32
35
39
43
47
51
54
57
60
62
65
68
70
72
73
74
75
75
74
72
68
64
58
51
44
37
31
25
18
11
6
1
-2
-5
-8
-11
-13
-16
-19
-21
-21
-21
-22
-23
-24
-25
-24
-23
-23
-23
-23
-23
-24
-25
-25
-25
-24
-23
-24
-25
-25
-25
-24
-23
-23
-23
-23
-23
-23
-23
-23
-23
-23
-23
-23
-23
-23
-23
-23
-23
-23
-23
-23
-23
-23
-24
-25
-25
-25
-24
-24
-26
-27
-27
-27
-26
-25
-25
-25
-25
-25
-25
-25
-25
-25
-25
-26
-27
-26
-25
-25
-25
-24
-23
-23
-23
-23
-23
-24
-25
-24
-23
-23
-23
-23
-23
-23
-23
-22
-21
-21
-21
-21
-21
-21
-21
-22
-23
-23
-23
-22
-21
-20
-19
-19
-19
-19
-19
-19
-19
-19
-20
-21
-20
-19
-18
-17
-18
-19
-19
-19
-19
-19
-19
-19
-18
-17
-18
-19
-19
-19
-18
-17
-17
-17
-16
-15
-16
-17
-17
-17
-17
-17
-17
-17
-17
-17
-17
-17
-17
-15
-15
-15
-15
-15
-15
-14
-13
-14
-15
-10
-7
-6
-5
-5
-4
-1
1
2
3
3
4
7
9
8
6
4
3
2
0
-2
-6
-11
-14
-16
-17
-18
-19
-19
-19
-19
-19
-19
-19
-19
-19
-19
