14
17
19
23
26
31
34
36
38
39
41
41
43
44
46
46
47
48
48
50
50
51
51
52
52
53
53
53
54
54
55
55
56
56
56
55
55
55
54
55
54
54
54
54
54
53
53
51
51
49
49
48
48
48
47
46
44
43
42
42
40
39
39
37
37
36
35
35
35
36
35
34
34
34
34
34
35
35
36
35
35
34
35
35
36
36
36
36
35
36
35
36
36
36
36
35
35
35
36
36
36
36
36
36
36
36
36
37
37
37
37
37
38
38
39
40
42
42
42
42
41
41
40
40
40
39
39
38
36
35
35
36
36
37
38
38
38
39
38
38
37
37
36
36
36
34
34
34
33
32
32
32
29
22
8
-10
-28
-50
-68
-81
-87
-84
-74
-55
-34
-15
-2
5
11
14
16
18
21
24
28
33
35
37
39
40
42
42
44
45
46
46
47
48
48
49
50
50
51
51
51
51
53
53
54
53
54
54
54
55
54
54
54
54
53
53
53
52
53
52
52
51
49
49
48
48
47
47
45
45
43
42
42
40
39
38
37
35
35
34
33
32
31
31
30
30
29
29
29
29
29
28
29
28
29
29
29
30
30
30
30
30
30
30
30
30
30
30
30
30
31
30
30
30
29
30
29
30
29
30
30
30
29
29
30
29
30
31
31
32
33
35
35
36
35
35
34
34
34
33
32
31
30
28
27
28
29
31
30
31
31
32
31
32
32
31
30
29
29
28
28
27
27
26
26
25
23
18
8
-5
-23
-44
-65
-83
-93
-94
-91
-77
-56
-33
-16
-6
0
6
9
11
13
15
18
22
26
30
32
34
36
36
37
38
39
41
42
43
44
45
45
46
47
46
47
47
48
49
50
51
51
52
52
53
53
54
54
54
55
54
55
53
54
52
52
52
51
51
50
50
48
48
47
47
45
43
43
41
40
38
38
36
34
33
31
30
29
29
28
28
27
26
26
25
26
26
26
25
25
25
25
26
25
25
26
26
26
26
25
26
26
25
26
26
26
26
26
27
26
26
26
26
26
25
26
25
26
25
25
26
26
26
26
27
28
29
30
32
32
33
33
32
32
31
32
31
31
30
28
27
25
25
25
26
27
29
29
29
30
29
30
29
29
28
27
27
26
25
25
24
24
23
22
19
12
0
-18
-38
-61
-82
-97
-102
-101
-94
-76
-52
-30
-15
-5
0
5
8
10
11
13
16
20
24
26
28
30
31
32
33
34
36
37
38
39
39
40
40
42
42
43
44
45
45
45
46
46
47
47
48
48
49
50
50
51
50
51
51
51
51
50
50
49
49
48
48
47
46
44
43
43
41
41
39
38
36
34
34
32
31
29
28
26
25
24
24
23
22
21
21
21
20
20
20
19
19
19
20
19
19
20
19
20
20
20
20
20
20
20
20
20
20
19
20
20
20
19
19
19
19
19
19
19
19
19
19
19
20
20
20
20
21
21
22
23
24
25
26
26
25
23
22
22
22
22
21
20
18
16
15
14
15
17
18
19
19
19
19
18
18
17
16
15
15
15
14
14
13
13
11
11
7
0
-13
-32
-51
-73
-95
-108
-117
-116
-112
-95
-71
-49
-32
-23
-16
-12
-10
-9
-8
-6
-3
0
3
6
7
9
10
11
12
13
15
16
17
17
18
18
19
20
21
21
22
22
23
24
24
24
25
26
26
26
27
28
29
30
31
30
31
31
31
31
32
32
31
31
30
30
29
28
28
28
27
26
25
24
23
22
21
20
19
17
16
15
13
12
11
10
10
10
10
9
10
9
9
9
9
9
9
9
9
9
9
9
9
9
8
9
9
10
10
10
9
9
9
9
8
8
8
8
8
8
8
7
7
7
7
7
7
8
8
9
9
10
10
10
11
13
14
13
13
12
11
10
9
10
9
8
7
6
4
2
0
1
3
5
5
5
6
6
7
6
5
5
4
4
3
3
2
1
0
0
-1
-1
-2
-8
-20
-38
-59
-81
-103
-121
-130
-132
-126
-112
-89
-66
-49
-38
-29
-23
-20
-19
-17
-13
-9
-4
0
2
5
7
9
9
10
11
12
13
14
14
15
14
14
14
14
15
15
15
15
15
16
16
16
16
16
16
16
17
18
18
18
19
19
19
19
19
19
20
19
18
17
17
17
16
16
15
15
13
12
12
10
9
7
6
5
4
3
3
3
3
2
1
0
0
-1
1
3
5
6
6
5
4
5
5
4
3
3
3
2
2
2
3
2
2
2
1
1
1
1
0
0
0
-1
-1
-2
-2
-2
-2
-3
-3
-3
-2
-2
-7
-18
-34
-53
-71
-92
-107
-117
-117
-113
-99
-78
-58
-39
-28
-21
-16
-12
-10
-8
-5
-1
2
7
10
12
13
14
16
16
18
20
21
21
22
23
24
25
25
26
26
26
27
29
30
30
30
30
31
32
32
32
32
33
32
33
33
33
33
32
32
31
30
29
29
28
27
27
26
25
23
22
20
20
19
17
15
13
12
10
10
9
7
5
5
4
3
2
2
1
1
1
1
0
0
0
0
0
-1
-1
-1
-1
-1
-1
-2
-2
-3
-3
-3
-2
-2
-2
-2
-2
-2
-2
-2
-2
-2
-2
-3
-3
-3
-3
-3
-2
-2
-2
-2
-2
-2
-2
-3
-2
-2
-2
-2
-1
-1
-1
-1
-1
0
0
0
1
1
0
1
1
1
2
3
4
5
5
4
3
3
3
3
3
3
3
2
1
0
0
0
1
3
4
5
6
8
9
10
10
10
9
9
9
9
9
9
9
9
9
7
4
-3
-17
-35
-54
-75
-94
-108
-111
-111
-102
-85
-63
-44
-30
-22
-17
-12
-10
-7
-5
-2
1
4
7
9
10
12
13
14
15
15
16
16
17
17
18
18
19
19
20
21
21
21
22
22
22
22
23
23
24
24
24
24
24
25
25
26
26
26
27
27
27
27
28
27
27
27
26
26
26
26
25
25
24
23
22
22
21
21
20
19
18
17
16
16
16
16
15
14
13
14
13
14
15
15
15
15
15
15
15
16
16
16
17
17
17
18
18
18
18
18
18
19
19
20
21
21
21
21
21
22
22
22
22
23
22
23
23
23
22
22
22
22
22
21
21
22
23
24
23
23
23
22
21
20
20
19
18
17
16
14
13
12
12
14
14
15
15
15
15
16
16
16
16
15
15
14
14
13
12
12
12
11
9
5
-3
-17
-35
-56
-78
-98
-110
-113
-113
-102
-83
-57
-35
-22
-13
-7
-2
0
2
4
7
11
16
19
22
23
25
27
28
29
30
31
32
34
35
36
36
36
38
38
38
38
38
38
38
39
39
40
39
40
40
41
41
41
42
41
42
42
43
43
44
44
44
44
43
43
42
43
42
41
40
39
38
37
37
36
35
33
32
31
29
29
28
27
26
26
25
26
27
26
26
25
26
27
29
30
31
31
30
30
30
29
28
27
27
25
25
24
24
24
24
24
23
24
23
23
22
22
22
21
22
21
21
20
20
20
20
19
16
9
-3
-21
-41
-62
-80
-95
-98
-96
-86
-66
-44
-23
-9
0
5
9
12
14
16
19
23
27
31
34
35
37
39
39
41
41
43
44
45
46
46
47
48
48
49
49
50
50
52
52
52
52
53
54
55
56
56
57
57
58
57
58
57
57
57
56
56
54
54
54
53
53
50
50
48
48
46
45
43
42
41
40
38
37
36
35
34
33
32
31
30
30
28
28
28
27
26
25
23
23
23
22
22
21
20
19
19
19
18
18
17
17
17
16
16
15
15
14
14
14
14
13
13
13
13
12
12
12
12
12
12
11
11
11
11
11
11
11
10
10
10
11
10
10
9
9
10
10
9
9
9
9
9
9
9
9
9
9
9
9
9
9
9
9
10
10
11
12
12
11
10
9
9
9
9
9
9
8
6
6
6
7
9
10
10
10
11
12
13
13
12
11
11
10
9
9
8
7
7
6
4
2
-3
-13
-29
-48
-71
-95
-111
-122
-121
-117
-102
-78
-55
-36
-26
-19
-14
-11
-10
-9
-8
-4
-1
2
4
6
8
9
9
10
10
11
12
13
13
14
15
15
15
15
15
16
16
16
17
17
17
18
18
18
19
19
20
21
21
21
22
22
22
23
23
23
24
23
23
23
23
22
22
22
21
20
19
19
18
17
15
14
14
12
11
9
8
6
4
4
3
2
1
0
0
0
0
0
0
0
0
0
0
0
0
1
1
1
2
2
2
3
3
3
3
3
3
3
3
3
2
2
1
1
0
0
0
0
0
0
0
0
0
0
0
0
0
0
0
0
0
0
0
0
0
0
1
0
0
-1
-2
-2
-2
-3
-4
-5
-7
-8
-11
-14
-13
-12
-10
-9
-8
-9
-8
-8
-8
-8
-9
-8
-9
-10
-11
-11
-11
-12
-13
-13
-13
-15
-19
-29
-45
-63
-82
-102
-121
-131
-133
-129
-117
-98
-75
-58
-45
-37
-30
-26
-24
-22
-19
-15
-10
-6
-3
0
2
3
5
6
8
10
11
12
13
13
15
14
14
15
15
16
16
16
15
15
15
16
16
16
15
15
15
16
16
17
17
17
16
16
16
16
16
16
15
14
14
14
14
13
12
11
11
10
9
9
9
7
6
5
5
4
3
3
2
2
2
1
1
0
0
1
2
2
2
2
1
1
3
5
7
8
9
9
9
8
7
7
7
7
5
5
5
4
5
5
5
4
3
3
2
3
4
5
4
5
4
4
4
5
5
3
-1
-13
-29
-46
-64
-81
-97
-101
-102
-95
-80
-61
-42
-28
-18
-11
-8
-5
-4
-1
0
4
8
12
14
16
18
18
19
21
22
24
24
25
26
26
28
29
29
29
29
29
29
31
31
33
32
32
33
34
34
34
35
35
35
35
36
36
36
36
35
36
34
34
33
34
34
33
32
31
30
28
28
26
25
24
23
22
20
19
19
19
18
17
16
16
15
14
14
13
13
12
11
11
10
9
8
7
7
7
7
7
6
6
6
5
4
4
5
5
4
4
3
4
4
4
4
4
4
4
3
3
2
2
2
3
3
3
3
2
2
2
1
2
2
2
3
2
2
1
2
2
2
2
2
2
1
1
2
2
2
2
2
2
3
2
2
2
3
4
4
4
5
5
5
5
4
4
5
5
6
6
5
4
2
1
2
4
5
6
6
6
7
8
8
7
7
6
6
6
5
5
5
5
4
3
3
0
-6
-19
-35
-54
-74
-91
-106
-109
-110
-102
-88
-68
-49
-35
-26
-21
-18
-17
-16
-13
-10
-6
-4
-1
0
2
3
2
3
4
4
5
6
7
7
7
7
7
8
8
9
10
9
9
9
10
10
11
10
10
10
10
10
11
11
11
11
10
11
10
10
10
9
9
9
9
8
7
7
7
7
6
5
5
4
3
2
2
0
0
0
0
-1
-2
-2
-4
-4
-4
-4
-4
-5
-5
-5
-4
-5
-4
-4
-4
-3
-3
-2
-2
-2
-2
-1
-1
-1
0
0
0
0
0
0
0
0
0
-1
-1
-1
-1
-1
-1
-1
-2
-2
-2
-2
-3
-3
-2
-3
-3
-3
-4
-3
-4
-4
-4
-4
-4
-3
-3
-3
-3
-4
-5
-6
-6
-6
-7
-8
-8
-10
-12
-13
-12
-11
-11
-10
-10
-10
-9
-9
-9
-9
-10
-10
-10
-10
-11
-11
-11
-12
-12
-13
-13
-17
-25
-38
-55
-73
-93
-111
-125
-128
-126
-117
-99
-78
-58
-46
-37
-31
-27
-25
-23
-21
-18
-14
-10
-6
-4
-2
0
1
2
3
4
5
7
8
9
8
9
9
10
10
10
10
10
10
10
11
10
11
11
11
12
12
13
14
14
14
15
15
15
15
15
16
15
15
15
15
14
14
14
13
13
12
12
12
11
10
8
7
6
6
5
4
3
2
2
2
2
3
3
2
2
1
1
3
6
7
6
5
5
5
5
4
4
3
2
2
1
0
0
1
0
0
0
0
0
-1
-1
-1
-1
-1
-1
-1
-1
-1
-1
-1
-1
-1
-4
-11
-24
-41
-60
-82
-101
-113
-119
-116
-111
-92
-71
-49
-33
-24
-17
-13
-10
-9
-6
-4
0
3
7
9
11
13
15
16
17
18
20
21
22
23
23
24
25
26
27
27
28
28
29
30
31
31
32
33
33
34
34
35
35
35
37
36
36
36
36
36
36
36
35
35
34
34
33
33
32
31
31
29
28
26
25
23
22
21
20
19
18
17
16
16
16
15
14
14
13
13
12
12
11
11
10
10
9
9
8
8
7
7
6
6
5
5
6
5
4
4
4
4
4
4
3
3
3
3
2
2
2
2
2
3
3
3
3
3
3
3
2
3
3
3
3
3
3
3
4
4
4
4
4
4
4
4
4
5
5
5
5
5
5
5
5
6
6
6
6
7
7
7
7
7
7
7
7
7
6
5
5
4
4
4
6
8
10
10
11
12
13
13
13
12
12
11
10
10
10
9
8
7
7
4
0
-10
-25
-44
-66
-90
-105
-115
-116
-110
-96
-71
-48
-31
-21
-15
-9
-5
-4
-2
0
2
5
10
14
17
19
20
22
23
25
25
27
28
29
29
30
31
31
32
32
33
34
34
34
35
35
36
36
37
37
37
37
38
38
39
40
40
41
41
41
41
42
41
41
40
40
40
40
40
39
38
37
36
35
33
32
30
28
26
25
23
22
20
19
18
17
16
15
14
13
13
13
12
12
12
11
12
12
12
12
13
12
13
13
15
15
16
16
16
16
17
17
17
17
17
17
16
16
15
16
16
16
15
15
14
14
14
14
14
13
14
13
13
12
13
12
12
12
12
12
12
11
11
12
12
12
12
11
10
10
9
9
8
7
5
4
2
1
0
1
2
4
5
5
5
6
7
6
6
6
5
5
4
4
3
2
2
2
1
0
-4
-13
-28
-46
-66
-88
-108
-118
-122
-117
-106
-83
-59
-41
-28
-20
-14
-11
-8
-7
-4
-1
2
6
9
12
14
16
18
19
20
22
23
24
25
26
26
27
29
29
30
30
30
31
31
33
32
33
32
33
33
34
35
35
36
36
36
36
36
36
37
37
36
36
35
35
35
35
34
33
32
31
30
28
27
24
23
21
19
18
16
15
14
13
11
10
9
9
8
8
7
6
6
7
7
6
6
6
6
5
6
6
6
6
7
6
5
5
4
4
4
4
4
4
4
4
4
5
5
5
5
5
6
6
7
8
7
8
7
7
7
7
7
7
7
6
6
6
6
6
6
6
6
6
6
6
6
5
4
4
3
3
2
1
0
-2
-3
-5
-5
-5
-3
-2
-2
-2
-2
-1
0
-1
-2
-3
-4
-4
-4
-5
-6
-7
-8
-9
-10
-10
-13
-22
-36
-54
-73
-96
-116
-127
-134
-130
-122
-102
-80
-59
-45
-37
-31
-27
-24
-23
-20
-17
-12
-9
-5
-3
-1
0
2
4
4
6
7
8
9
9
9
10
11
11
12
12
12
13
14
14
14
14
15
15
16
16
16
17
17
17
18
19
18
18
18
18
17
17
17
17
16
15
14
13
11
10
8
7
6
4
3
2
1
0
-1
-2
-3
-4
-5
-6
-5
-6
-7
-8
-9
-9
-10
-10
-10
-9
-9
-8
-8
-8
-8
-8
-8
-8
-8
-8
-8
-8
-8
-7
-7
-8
-8
-8
-9
-9
-9
-9
-9
-8
-8
-8
-7
-7
-6
-5
-5
-5
-5
-4
-4
-4
-4
-4
-4
-4
-4
-5
-5
-5
-5
-4
-3
-3
-3
-3
-4
-5
-6
-5
-6
-8
-9
-10
-11
-13
-14
-15
-13
-12
-11
-10
-11
-10
-10
-10
-11
-12
-11
-12
-12
-13
-13
-13
-14
-14
-15
-15
-17
-21
-31
-46
-64
-84
-104
-122
-129
-133
-127
-115
-96
-76
-61
-49
-42
-35
-33
-31
-28
-26
-22
-19
-15
-13
-10
-9
-7
-6
-4
-4
-3
-2
0
0
0
0
1
2
2
2
3
3
4
4
5
5
6
6
7
8
8
8
8
9
9
9
9
9
10
9
9
9
8
7
7
6
5
5
4
2
1
0
-1
-2
-3
-4
-6
-7
-8
-9
-9
-10
-11
-12
-13
-14
-14
-14
-14
-15
-16
-16
-16
-14
-14
-14
-14
-13
-13
-12
-12
-12
-12
-12
-11
-12
-11
-11
-10
-10
-10
-10
-10
-10
-10
-10
-10
-10
-9
-8
-8
-8
-7
-7
-6
-6
-5
-5
-5
-4
-3
-3
-3
-3
-3
-3
-3
-3
-2
-1
-1
-1
-2
-3
-3
-4
-4
-4
-4
-5
-7
-8
-10
-11
-11
-10
-8
-8
-7
-7
-7
-6
-7
-8
-8
-9
-9
-9
-10
-10
-11
-11
-11
-11
-11
-13
-18
-30
-47
-65
-85
-104
-118
-125
-125
-120
-107
-88
-67
-53
-42
-36
-31
-29
-27
-25
-24
-21
-18
-14
-12
-9
-8
-6
-5
-5
-4
-2
0
0
0
1
2
3
3
4
4
5
5
6
7
7
8
8
8
9
10
10
11
11
12
12
12
12
13
13
13
13
13
13
14
13
12
12
12
11
11
11
10
10
9
8
7
7
7
6
6
5
4
3
4
3
3
4
3
4
4
5
5
5
5
5
6
7
7
7
8
8
9
9
9
9
10
10
9
9
10
10
10
10
10
10
10
10
10
11
11
11
12
12
13
13
14
14
15
16
16
16
16
17
17
17
18
18
19
19
20
19
18
17
16
15
15
14
13
13
11
10
9
8
9
11
12
12
12
13
12
12
12
12
11
11
11
10
9
9
8
7
7
7
5
0
-8
-23
-40
-60
-79
-97
-106
-109
-105
-90
-71
-49
-33
-23
-16
-11
-8
-6
-5
-2
0
3
7
10
13
15
16
17
19
19
21
22
23
23
23
23
23
24
23
23
24
24
25
25
25
25
26
27
27
28
28
29
29
29
29
29
30
30
31
31
31
30
31
31
31
31
30
30
29
29
29
29
28
26
25
23
23
21
21
20
19
19
20
20
19
18
17
17
18
20
21
21
21
20
20
19
19
18
17
17
16
16
15
16
15
15
14
14
14
13
14
13
13
12
12
11
10
10
9
9
9
8
8
7
7
7
7
6
1
-6
-19
-35
-53
-73
-89
-99
-99
-96
-84
-65
-44
-27
-17
-10
-5
-2
0
2
3
6
10
14
16
18
19
20
21
22
22
24
25
25
27
27
27
28
29
30
30
31
31
32
32
33
33
34
34
35
36
37
38
39
39
40
41
42
42
42
42
43
43
43
43
43
43
43
43
42
42
42
41
41
40
39
38
37
36
35
35
34
33
32
32
31
31
31
30
30
30
30
30
30
30
29
29
29
29
28
29
28
27
27
26
27
26
26
25
26
25
24
24
24
24
23
23
23
23
22
22
22
22
22
21
21
21
21
21
21
20
20
20
20
20
20
20
20
20
21
21
21
21
20
20
19
20
20
20
20
20
20
20
21
20
21
20
21
20
20
21
22
22
20
20
20
19
18
17
17
16
16
16
18
19
22
23
24
25
26
26
26
26
26
25
25
25
25
24
23
23
22
19
12
0
-15
-34
-54
-73
-86
-91
-90
-81
-63
-40
-20
-8
0
5
9
11
12
14
16
20
23
26
28
29
30
32
34
34
35
36
37
37
38
39
39
40
40
41
40
40
41
42
43
42
43
42
44
44
45
46
45
46
46
48
47
48
48
49
49
48
48
47
48
47
48
46
46
45
44
44
43
42
40
39
38
37
35
34
32
31
30
28
26
25
25
24
23
22
22
22
22
22
22
22
22
21
22
22
22
22
22
23
23
23
23
25
25
25
26
26
26
26
27
26
26
27
27
27
27
27
26
26
26
26
27
27
26
26
27
26
25
24
24
22
20
19
18
17
16
17
19
21
23
28
34
43
55
67
80
91
101
112
120
124
121
117
111
107
102
96
89
81
77
74
71
68
64
59
53
47
41
37
32
28
24
20
18
16
15
13
12
11
9
9
6
5
3
2
0
-1
-2
-4
-6
-8
-10
-12
-14
-16
-18
-20
-23
-25
-26
-29
-30
-33
-34
-36
-37
-38
-40
-40
-40
-40
-41
-41
-40
-38
-37
-36
-34
-33
-31
-30
-28
-26
-24
-21
-19
-17
-15
-13
-11
-9
-7
-5
-4
-2
-1
0
0
2
3
3
3
4
4
4
4
5
5
5
5
5
6
6
6
7
8
7
7
7
8
7
8
9
9
9
9
9
9
10
10
10
11
11
11
11
11
11
11
11
12
12
11
11
11
12
12
12
13
13
13
14
14
14
14
14
15
15
16
16
17
18
19
19
19
20
20
20
20
20
20
20
20
21
20
21
21
21
20
20
19
19
19
19
19
19
18
18
18
17
17
17
16
14
12
11
9
9
9
9
10
11
12
12
12
13
13
13
12
10
10
9
9
9
7
6
5
5
2
-7
-22
-40
-59
-78
-97
-108
-111
-108
-96
-78
-57
-40
-28
-19
-12
-8
-6
-4
-1
3
6
10
13
16
18
20
21
23
23
24
26
27
29
28
29
30
30
31
31
31
31
31
31
31
31
32
32
31
31
31
32
32
33
33
33
34
34
35
35
36
36
35
35
35
35
35
35
35
35
34
33
33
32
32
31
31
30
30
28
27
26
25
24
23
22
22
21
19
18
18
16
17
18
20
22
22
22
21
21
21
20
20
19
19
18
19
18
18
18
18
18
18
19
18
18
17
17
17
16
16
16
16
15
15
14
14
13
12
7
-4
-20
-37
-56
-74
-87
-91
-88
-76
-57
-38
-21
-10
-2
3
7
10
12
15
18
23
27
30
32
34
35
37
39
41
42
43
44
45
46
47
49
49
50
50
51
52
53
53
54
55
55
56
57
58
58
58
59
59
59
59
60
59
60
60
59
59
58
58
56
57
57
56
56
54
54
52
52
49
49
48
48
46
45
44
43
44
43
43
42
42
41
40
40
39
39
38
37
37
36
36
35
35
34
34
34
33
33
33
33
33
32
32
32
32
32
32
31
31
31
31
31
31
32
31
32
31
32
33
33
33
33
33
33
33
33
33
33
33
33
34
34
34
34
34
35
35
36
36
35
35
35
37
36
36
36
36
36
35
36
37
38
37
38
38
38
39
39
40
39
39
38
38
38
38
38
38
37
36
35
34
35
39
41
42
42
42
43
43
42
41
42
41
40
39
38
38
37
38
37
36
32
25
15
0
-17
-39
-60
-75
-82
-80
-73
-55
-33
-13
0
8
13
18
20
21
23
26
29
32
34
36
37
37
39
39
40
40
41
43
43
43
44
45
45
45
45
46
47
47
48
48
48
48
49
50
49
49
50
50
51
51
52
52
53
53
54
53
53
54
54
54
53
53
53
53
52
52
52
51
51
49
48
47
47
46
44
44
41
41
40
40
39
38
39
38
39
38
39
38
39
38
39
38
38
38
38
39
39
40
40
41
41
41
42
41
42
42
43
43
42
43
43
42
42
42
42
41
41
41
41
41
41
41
41
40
39
40
39
40
39
39
38
38
38
37
37
36
36
37
38
37
37
36
35
34
33
34
32
32
31
29
28
26
27
28
29
30
30
30
30
31
30
30
28
28
28
28
27
26
26
25
25
23
23
22
16
4
-10
-26
-45
-66
-82
-89
-89
-81
-65
-43
-24
-9
-1
5
9
12
14
16
18
22
25
28
31
33
36
37
38
39
40
41
42
42
42
43
43
43
43
44
44
45
45
44
45
44
46
45
45
46
46
47
46
47
47
48
48
48
49
49
49
48
49
48
48
47
47
47
46
46
45
45
44
44
43
42
41
40
39
38
37
36
36
35
34
35
35
35
34
33
33
33
34
37
39
39
38
37
37
37
36
36
35
34
33
32
32
32
32
30
31
31
31
30
30
29
29
29
29
29
28
29
28
28
29
28
28
28
27
21
12
-1
-18
-35
-55
-71
-78
-80
-73
-61
-39
-19
-5
3
8
13
16
18
19
21
24
28
31
34
36
37
38
39
40
42
43
45
46
46
46
47
47
47
48
50
49
50
51
52
52
51
52
52
54
53
54
54
55
56
55
56
55
56
54
54
54
54
54
52
52
50
50
49
48
47
46
46
44
43
41
41
39
38
37
36
36
35
35
34
33
33
32
31
30
29
28
28
27
27
27
26
25
25
25
24
24
24
23
23
22
23
22
21
21
21
21
21
22
21
22
21
21
20
21
21
21
21
21
21
21
21
21
21
22
21
22
21
21
20
21
22
22
22
22
22
22
22
22
22
22
22
22
22
22
22
23
22
22
22
22
22
22
23
23
23
24
24
24
23
23
21
20
18
18
18
18
18
20
22
24
25
27
27
28
28
28
28
28
27
27
26
26
25
24
24
22
18
9
-5
-22
-42
-62
-78
-89
-91
-89
-77
-59
-38
-22
-11
-3
1
5
7
9
10
13
17
20
23
24
26
27
28
28
29
29
30
30
31
30
31
31
32
32
32
33
33
33
33
34
34
34
35
35
35
35
35
35
35
36
36
36
36
36
36
36
36
35
36
35
35
34
34
33
33
33
32
32
31
31
29
28
27
26
25
24
23
22
22
21
20
20
19
20
19
19
19
19
19
19
19
19
19
19
19
19
20
21
21
21
21
22
22
23
23
23
23
23
23
23
24
24
24
23
23
23
23
24
23
23
23
22
22
22
22
22
22
22
22
22
21
21
21
21
21
21
19
19
19
18
18
18
19
19
19
18
17
16
15
14
13
12
11
10
10
9
10
12
13
13
13
14
14
14
14
13
13
12
11
11
10
9
8
8
7
3
-5
-19
-37
-57
-78
-96
-106
-109
-105
-94
-74
-53
-36
-24
-16
-10
-6
-3
-1
1
4
8
12
16
18
20
21
22
23
24
25
26
27
28
29
29
29
29
30
31
30
31
31
32
32
32
33
33
33
33
33
33
34
34
34
34
35
36
35
36
35
36
35
35
35
34
33
32
32
31
30
30
29
29
27
27
27
25
24
23
22
21
20
19
19
19
19
20
19
18
18
19
19
22
24
25
25
24
24
24
24
23
22
21
20
19
18
18
18
18
17
17
17
17
18
17
17
16
16
16
16
16
16
15
15
14
13
13
12
7
-1
-16
-33
-52
-73
-91
-104
-104
-100
-87
-66
-45
-28
-17
-9
-4
0
1
3
5
8
12
16
19
20
22
23
25
26
27
28
29
30
31
31
32
33
32
33
34
34
35
35
36
36
37
37
38
38
39
40
40
40
40
41
40
41
40
40
41
40
40
39
39
39
39
38
37
36
35
33
31
31
30
29
28
26
25
23
23
21
21
20
19
18
16
16
15
15
14
14
13
12
12
12
12
12
11
10
10
10
9
9
9
9
9
8
8
8
8
7
7
7
6
6
6
6
7
7
7
7
7
7
7
7
7
7
7
8
8
8
8
9
8
9
8
8
9
9
9
9
9
9
9
10
10
11
11
12
11
12
11
11
12
12
13
13
13
13
13
14
13
13
13
13
11
10
9
8
8
9
10
12
14
15
16
17
19
19
19
19
18
18
17
17
16
16
15
15
15
14
10
0
-13
-32
-54
-74
-94
-102
-105
-101
-87
-67
-45
-29
-18
-11
-5
-2
0
1
3
5
8
11
14
16
16
17
18
19
19
20
22
23
23
24
24
24
25
25
26
26
27
27
27
27
28
28
28
29
29
29
29
29
30
30
30
30
31
31
31
31
31
32
31
31
31
30
31
30
30
29
28
27
27
26
24
24
23
22
21
20
19
18
18
16
16
15
15
14
15
15
14
14
14
14
14
14
14
14
15
15
16
16
16
16
17
17
17
18
18
18
18
18
19
19
19
19
19
19
19
19
19
18
18
17
17
17
16
16
15
15
15
15
14
14
14
13
13
13
13
13
13
14
14
14
13
11
10
9
10
10
9
7
6
4
2
1
1
2
3
4
4
4
4
5
5
4
3
3
3
2
1
0
0
-1
-1
-2
-3
-7
-15
-28
-46
-67
-89
-108
-121
-125
-124
-113
-94
-69
-50
-37
-29
-22
-19
-16
-14
-12
-9
-5
0
2
4
6
8
9
10
11
12
14
14
15
15
15
15
15
16
16
16
17
17
17
18
18
17
18
18
18
19
19
19
20
20
21
21
21
21
21
22
21
21
21
21
21
20
20
19
18
16
15
14
14
12
11
10
9
8
6
5
4
2
1
1
1
1
2
2
1
0
0
0
0
2
5
7
7
6
5
5
5
5
4
3
3
2
0
0
0
0
0
0
0
-1
-1
-1
-2
-2
-2
-1
-2
-2
-2
-2
-3
-3
-3
-6
-14
-28
-46
-65
-87
-105
-118
-119
-118
-107
-88
-68
-48
-35
-26
-21
-17
-14
-13
-10
-7
-2
1
5
7
9
10
11
12
14
15
16
16
18
18
19
20
20
22
22
22
23
24
25
25
25
25
26
26
26
27
27
28
28
30
29
29
29
29
29
28
28
28
27
26
25
25
23
23
22
21
20
19
18
17
15
14
13
13
12
10
9
9
7
7
6
5
4
4
3
2
1
1
2
2
1
0
0
0
0
0
0
0
-1
-1
-2
-2
-2
-3
-3
-3
-3
-4
-4
-4
-5
-5
-5
-5
-6
-6
-6
-6
-6
-5
-4
-5
-5
-5
-5
-5
-5
-5
-5
-5
-5
-4
-4
-4
-4
-4
-3
-4
-4
-3
-3
-3
-3
-3
-2
-3
-3
-3
-3
-3
-3
-2
-2
-1
-1
-1
-1
-1
-2
-2
-2
-2
-2
-3
-4
-5
-5
-5
-4
-2
0
0
2
2
3
4
4
4
3
3
3
2
1
1
1
0
0
-1
-3
-8
-20
-35
-55
-76
-98
-115
-124
-126
-118
-104
-79
-57
-41
-31
-25
-20
-17
-16
-15
-13
-10
-7
-3
-1
0
1
2
3
3
3
4
6
6
7
7
8
9
9
9
9
10
10
10
11
11
11
11
11
12
12
12
12
12
13
14
15
16
16
16
16
16
16
16
16
16
16
16
15
16
15
14
13
13
13
12
11
10
8
7
6
5
3
2
2
1
0
0
-1
-1
-1
-2
-2
-2
-2
-1
-2
-1
-1
-1
0
0
0
0
1
1
1
1
2
2
2
3
3
3
3
3
3
2
2
1
1
0
0
0
0
-1
-2
-2
-2
-2
-2
-3
-3
-3
-4
-4
-4
-5
-4
-4
-3
-3
-3
-3
-5
-6
-7
-8
-8
-9
-11
-12
-14
-16
-17
-17
-17
-16
-15
-15
-15
-14
-14
-13
-14
-15
-15
-16
-16
-17
-17
-17
-18
-19
-19
-20
-21
-24
-33
-46
-65
-85
-105
-125
-137
-143
-140
-132
-111
-88
-68
-54
-46
-39
-36
-33
-32
-29
-26
-22
-18
-14
-11
-9
-8
-6
-5
-4
-3
-3
-2
-1
-1
0
0
0
0
0
0
1
1
1
1
1
2
1
2
2
2
2
2
3
3
3
3
3
3
3
3
3
3
3
3
3
2
2
2
1
0
0
0
-1
-2
-3
-4
-5
-6
-7
-8
-10
-11
-11
-12
-12
-12
-11
-10
-10
-11
-12
-12
-11
-9
-6
-4
-3
-4
-4
-5
-5
-5
-6
-6
-7
-8
-8
-9
-9
-10
-10
-10
-10
-11
-11
-11
-11
-12
-12
-12
-12
-12
-12
-12
-12
-12
-13
-15
-22
-33
-50
-70
-88
-109
-121
-129
-128
-119
-105
-82
-63
-47
-38
-32
-27
-24
-22
-21
-18
-15
-10
-6
-4
-2
0
1
2
4
5
6
7
8
9
10
11
11
12
12
13
14
15
15
16
16
17
17
18
18
19
19
19
19
19
20
20
20
20
20
20
19
19
18
17
17
16
16
15
14
13
12
10
9
8
6
5
4
3
2
1
1
0
-1
-1
-2
-3
-3
-4
-5
-6
-6
-7
-7
-8
-8
-9
-8
-8
-8
-9
-10
-11
-11
-11
-11
-11
-12
-12
-12
-13
-13
-13
-13
-14
-14
-14
-13
-14
-14
-13
-14
-14
-14
-14
-14
-14
-14
-14
-14
-14
-14
-13
-12
-13
-13
-12
-12
-12
-12
-11
-11
-11
-11
-11
-10
-10
-10
-10
-9
-9
-9
-9
-9
-9
-8
-8
-9
-9
-9
-9
-9
-9
-8
-8
-8
-8
-9
-9
-8
-9
-11
-11
-10
-10
-10
-10
-8
-6
-5
-5
-5
-4
-4
-3
-4
-4
-5
-5
-6
-8
-8
-9
-10
-11
-14
-21
-33
-49
-69
-91
-115
-128
-135
-133
-127
-109
-85
-64
-49
-40
-33
-28
-25
-25
-23
-22
-19
-15
-12
-10
-9
-7
-5
-5
-4
-3
-2
-1
-1
0
1
1
2
2
3
3
3
4
4
4
5
5
5
6
6
7
7
8
9
10
11
11
12
12
12
13
13
13
13
13
12
12
11
11
11
11
11
10
9
9
8
7
6
5
3
2
1
0
0
-1
-1
-3
-3
-4
-5
-5
-5
-5
-5
-5
-5
-5
-5
-5
-4
-4
-4
-4
-3
-3
-2
-1
-1
0
0
1
1
1
1
1
1
1
1
1
1
0
0
0
0
0
0
0
0
-1
-2
-2
-2
-2
-3
-3
-3
-3
-4
-4
-4
-4
-5
-5
-6
-6
-7
-6
-6
-7
-7
-8
-9
-11
-12
-16
-17
-17
-17
-17
-16
-14
-13
-13
-12
-12
-11
-12
-12
-12
-12
-13
-13
-14
-15
-16
-17
-16
-17
-21
-30
-44
-62
-82
-102
-121
-130
-133
-129
-117
-98
-76
-59
-47
-40
-34
-30
-29
-27
-24
-21
-17
-12
-9
-8
-6
-4
-3
-2
-1
0
1
1
2
2
2
2
2
3
3
3
4
4
5
5
5
5
5
5
6
6
7
6
7
7
7
8
7
7
7
7
7
7
7
6
6
6
5
4
4
3
3
2
1
0
0
-1
-2
-3
-4
-5
-6
-6
-6
-6
-4
-4
-6
-7
-7
-7
-6
-4
-2
-2
-2
-2
-1
-1
-2
-2
-3
-4
-5
-6
-6
-7
-7
-8
-8
-9
-9
-10
-9
-10
-10
-11
-12
-12
-12
-11
-12
-12
-13
-13
-13
-14
-18
-26
-38
-56
-74
-95
-114
-125
-129
-124
-114
-93
-71
-54
-42
-35
-29
-26
-24
-23
-21
-18
-14
-10
-7
-5
-3
-2
-1
0
1
2
3
5
5
6
7
8
9
9
10
10
11
12
12
13
14
14
14
15
15
16
16
17
17
17
17
17
18
18
17
17
17
17
16
15
14
14
13
12
10
9
8
7
5
4
3
1
0
0
-2
-3
-4
-5
-5
-6
-7
-7
-7
-8
-9
-10
-11
-11
-12
-13
-14
-14
-14
-15
-14
-14
-14
-16
-17
-17
-17
-17
-18
-18
-19
-19
-19
-19
-19
-19
-20
-20
-20
-20
-20
-20
-20
-20
-21
-21
-21
-21
-21
-21
-21
-20
-20
-20
-20
-20
-20
-20
-19
-19
-19
-19
-19
-18
-18
-18
-18
-18
-18
-18
-17
-18
-18
-18
-18
-18
-18
-18
-18
-17
-17
-16
-16
-16
-17
-18
-18
-19
-20
-21
-21
-21
-21
-20
-19
-17
-15
-14
-13
-11
-11
-11
-11
-12
-12
-13
-13
-14
-15
-15
-15
-16
-20
-28
-42
-60
-82
-104
-123
-137
-141
-140
-129
-110
-86
-67
-53
-44
-38
-33
-31
-30
-28
-24
-21
-17
-13
-10
-7
-5
-3
-2
-1
0
0
1
2
2
3
4
4
4
5
5
5
5
5
5
6
6
7
8
8
9
9
10
10
11
11
11
12
12
12
11
12
12
12
11
11
10
10
9
8
7
6
5
3
1
0
-1
-2
-4
-5
-7
-8
-9
-10
-11
-12
-14
-14
-15
-15
-16
-15
-16
-16
-16
-16
-16
-16
-16
-16
-15
-15
-14
-14
-14
-13
-13
-12
-11
-11
-10
-10
-10
-9
-9
-9
-9
-9
-9
-10
-10
-9
-10
-9
-9
-9
-9
-9
-10
-10
-10
-11
-11
-10
-10
-11
-11
-11
-11
-11
-12
-12
-12
-12
-12
-12
-12
-12
-11
-12
-12
-13
-13
-14
-16
-18
-19
-20
-20
-20
-20
-18
-17
-16
-16
-16
-16
-16
-16
-17
-18
-18
-19
-19
-20
-21
-21
-21
-23
-26
-34
-48
-64
-86
-106
-128
-139
-144
-142
-129
-110
-84
-65
-53
-45
-38
-34
-33
-31
-30
-26
-23
-19
-16
-14
-12
-11
-10
-10
-9
-8
-7
-5
-5
-4
-3
-3
-3
-3
-2
-2
-1
0
0
0
0
0
1
1
2
2
3
4
4
5
5
6
5
6
6
6
7
7
6
6
5
5
4
4
4
4
3
3
1
0
0
0
-1
-3
-3
-5
-6
-6
-7
-8
-9
-9
-10
-10
-10
-10
-10
-11
-10
-10
-9
-9
-9
-9
-9
-9
-8
-8
-8
-8
-8
-8
-7
-7
-7
-8
-8
-9
-9
-8
-8
-8
-7
-7
-7
-7
-7
-6
-6
-5
-5
-5
-4
-4
-5
-5
-4
-4
-4
-4
-5
-5
-5
-4
-5
-5
-5
-6
-7
-7
-7
-7
-7
-7
-8
-9
-9
-9
-11
-13
-14
-15
-16
-16
-16
-14
-12
-12
-11
-10
-9
-9
-9
-10
-10
-11
-11
-12
-12
-13
-14
-14
-16
-20
-29
-44
-63
-84
-108
-126
-138
-139
-136
-123
-102
-78
-60
-49
-41
-36
-32
-30
-28
-25
-21
-17
-13
-9
-6
-4
-2
0
0
1
2
3
3
4
5
5
6
6
7
7
7
7
7
7
7
8
8
9
9
9
9
9
9
10
10
11
12
12
11
12
11
11
11
11
11
11
11
10
9
9
8
8
8
7
6
5
4
3
1
0
0
-1
-2
-2
-2
-1
-1
-3
-4
-4
-4
-2
0
2
3
3
3
4
4
4
4
3
3
2
1
1
0
0
0
1
0
0
0
0
0
-1
-1
-1
0
0
-1
-1
-1
-1
-1
-1
-1
-2
-6
-15
-31
-49
-68
-89
-106
-115
-117
-113
-102
-82
-62
-44
-34
-26
-20
-17
-15
-13
-11
-8
-4
0
3
6
8
9
10
11
12
14
15
16
17
18
18
19
20
20
21
21
23
23
24
24
24
25
26
28
27
28
28
28
28
29
29
28
29
29
29
28
28
27
27
27
26
26
24
24
23
23
21
20
18
18
17
15
14
13
13
12
11
10
9
8
7
6
6
5
4
4
3
2
2
1
0
0
0
0
-1
-1
-2
-2
-3
-3
-4
-4
-4
-5
-5
-5
-5
-5
-6
-5
-6
-6
-6
-6
-7
-7
-7
-7
-7
-6
-7
-7
-7
-7
-7
-6
-7
-7
-7
-6
-6
-6
-5
-6
-6
-6
-6
-5
-5
-5
-5
-4
-5
-4
-4
-4
-4
-4
-4
-4
-4
-3
-4
-4
-4
-3
-3
-3
-2
-3
-3
-2
-2
-3
-5
-5
-5
-5
-5
-4
-2
-1
0
0
1
3
4
4
3
3
2
2
1
0
0
0
0
-1
-4
-11
-24
-41
-62
-85
-106
-120
-123
-124
-112
-93
-69
-49
-36
-27
-22
-18
-16
-14
-13
-10
-7
-3
0
1
3
4
6
6
7
7
8
8
9
9
10
11
11
11
12
12
12
12
13
13
14
14
15
16
16
16
16
16
17
18
18
19
19
20
19
20
20
20
21
20
20
20
19
19
18
19
17
17
16
15
14
13
12
11
10
8
7
6
5
4
4
4
3
3
3
2
2
1
2
2
1
2
2
2
3
3
4
4
5
5
6
7
7
7
8
8
9
9
9
9
8
8
8
8
8
9
8
8
7
7
6
6
5
5
5
5
5
4
4
4
4
4
4
4
3
3
3
2
2
2
2
2
2
2
1
0
0
0
-2
-3
-5
-6
-7
-8
-8
-8
-6
-5
-5
-4
-3
-2
-2
-2
-3
-4
-4
-5
-5
-6
-6
-7
-7
-9
-13
-23
-38
-57
-77
-97
-114
-121
-122
-116
-103
-83
-62
-47
-35
-28
-23
-20
-18
-16
-13
-10
-6
-2
1
4
5
7
8
9
10
12
13
14
15
15
16
16
17
17
18
18
17
18
18
18
18
18
19
19
20
20
21
21
21
21
22
22
23
24
23
22
21
21
21
22
21
21
20
19
19
18
17
17
16
15
14
13
13
12
11
9
8
8
8
7
8
8
8
9
9
8
8
8
9
12
14
15
15
15
16
15
16
16
15
14
14
14
13
14
13
13
12
12
12
13
13
12
13
12
13
12
13
13
13
13
12
13
12
8
-1
-17
-34
-54
-74
-89
-98
-98
-93
-78
-59
-38
-22
-13
-6
-1
1
3
5
7
11
15
19
21
24
26
28
29
30
31
32
34
35
36
37
37
38
39
40
41
42
43
43
43
43
45
44
45
45
46
46
46
47
47
48
47
47
46
47
46
46
46
45
45
44
44
43
43
42
41
40
39
38
37
36
34
33
32
31
31
30
30
29
28
27
27
26
25
25
24
24
24
24
23
23
22
22
22
22
21
21
21
21
21
21
20
19
19
19
19
19
18
18
18
18
18
18
18
17
17
18
18
18
18
18
18
18
18
18
18
18
18
18
18
19
19
19
18
19
19
20
20
20
21
21
21
21
21
21
21
21
22
22
22
22
22
22
22
22
22
22
23
24
24
24
23
24
23
22
21
21
22
21
21
23
25
27
28
28
30
29
29
29
30
29
28
28
27
26
25
25
24
22
17
8
-4
-22
-42
-63
-83
-92
-97
-94
-83
-64
-38
-20
-7
0
5
8
9
10
12
15
18
21
24
26
27
28
29
31
31
33
34
34
34
34
35
36
37
37
37
38
38
38
38
39
40
40
40
41
42
42
43
43
44
44
45
45
45
46
47
48
47
48
47
47
46
46
47
46
46
44
44
43
43
42
41
40
39
38
36
36
35
34
34
33
32
31
31
30
30
29
29
29
29
29
28
29
29
29
29
30
30
30
31
31
32
32
34
33
34
34
34
35
35
35
35
35
34
34
35
34
34
34
34
34
34
34
33
33
32
33
33
32
32
32
32
31
31
30
30
30
29
29
28
28
28
28
28
28
28
27
26
25
24
21
20
19
19
18
18
19
21
22
22
23
24
24
24
23
23
22
22
21
21
20
20
20
19
16
8
-4
-22
-41
-62
-81
-93
-97
-96
-85
-68
-45
-27
-14
-5
1
5
8
9
12
15
19
24
27
30
31
33
35
36
37
39
41
41
43
43
44
44
44
46
46
46
45
46
46
46
46
46
47
46
47
46
47
46
47
47
47
48
47
47
47
48
49
49
48
47
47
46
46
46
45
44
44
42
42
41
40
39
38
37
36
35
35
34
33
32
31
30
30
30
30
32
32
32
32
31
32
32
35
37
39
38
38
38
38
38
37
36
35
35
34
33
33
32
33
33
33
32
32
31
32
33
32
32
32
32
32
32
32
31
30
24
14
-1
-18
-38
-59
-75
-84
-84
-76
-61
-38
-17
-2
6
13
18
20
21
23
25
29
32
36
39
41
43
44
45
46
48
50
50
51
51
53
53
54
54
55
55
56
58
58
59
59
60
60
60
61
61
63
62
63
63
64
63
64
65
63
63
62
63
62
62
61
60
60
59
59
57
57
55
54
53
51
49
48
47
46
46
45
44
43
43
43
41
42
40
40
39
38
37
37
37
36
36
35
35
34
34
34
33
33
32
32
32
32
32
32
32
32
32
31
31
31
31
31
30
30
29
29
29
29
29
29
30
29
29
29
30
29
30
30
30
31
30
31
30
31
32
31
32
31
32
32
33
32
32
33
33
33
33
34
34
33
33
34
34
34
33
33
34
34
34
35
35
36
35
36
35
36
34
33
33
33
33
33
34
35
37
38
39
39
39
40
40
39
38
38
37
36
36
35
35
33
32
27
17
3
-16
-36
-57
-75
-83
-86
-81
-70
-50
-28
-11
0
7
13
18
20
21
24
27
31
36
39
42
44
46
47
48
49
51
52
53
53
54
55
55
56
56
57
57
57
58
58
58
59
60
60
61
61
62
62
62
63
63
64
64
64
64
64
65
65
66
65
65
64
64
63
62
63
61
60
58
58
56
56
55
53
52
49
48
47
46
45
43
42
41
41
40
40
40
40
40
40
40
39
40
40
41
41
42
42
43
43
44
45
44
45
46
46
46
47
47
47
47
47
46
47
46
46
46
47
46
46
46
46
46
46
46
45
46
45
45
45
44
45
44
45
44
45
44
44
44
43
44
43
44
43
44
43
43
43
41
41
39
38
37
37
36
36
36
38
39
39
40
41
41
41
40
39
39
39
38
38
38
38
37
37
33
26
13
-3
-22
-42
-60
-71
-75
-72
-61
-42
-19
-2
9
17
22
25
27
29
31
33
38
42
45
48
49
52
53
54
55
56
59
59
60
59
60
61
62
63
64
66
65
67
67
68
68
69
70
70
71
71
73
72
74
74
74
74
74
75
75
76
75
75
74
74
74
73
73
72
72
71
70
68
67
66
64
63
61
60
59
57
56
55
55
54
54
53
52
52
51
52
52
53
53
53
52
53
53
53
54
54
54
54
55
54
54
56
55
55
54
55
54
55
55
55
55
55
56
55
56
56
57
57
57
58
58
60
59
60
60
60
60
60
61
60
61
61
61
60
60
60
59
60
59
60
59
60
59
59
58
58
58
57
55
53
52
51
51
51
52
53
54
55
56
56
57
56
57
55
55
54
53
52
52
52
51
51
49
46
39
25
9
-10
-31
-49
-62
-64
-62
-53
-35
-14
3
15
22
28
32
35
37
39
42
45
50
53
57
59
61
62
63
64
65
68
68
70
70
70
71
72
73
73
74
74
74
74
75
76
76
78
78
79
78
79
79
80
81
81
82
81
81
81
81
81
80
81
79
79
77
76
75
74
74
72
71
69
67
66
65
64
62
62
59
59
57
57
56
56
56
54
55
54
55
54
55
54
54
54
54
55
54
55
54
55
55
55
56
56
56
56
56
55
55
55
55
55
55
56
55
55
55
55
56
56
57
57
58
58
59
59
58
60
59
60
59
58
58
58
59
58
59
58
58
57
58
58
57
57
56
55
54
54
52
51
50
49
49
48
50
50
52
52
52
52
52
52
51
51
50
50
49
49
48
46
46
45
44
39
29
14
-3
-22
-42
-58
-66
-68
-63
-51
-30
-10
5
14
21
25
28
29
31
33
35
39
42
45
46
47
49
50
52
53
55
55
57
57
57
58
58
59
59
61
61
61
62
62
63
63
64
63
65
65
65
66
66
67
67
69
67
69
68
69
69
68
69
68
69
68
68
67
67
67
66
66
65
65
63
62
61
60
59
58
58
57
57
56
56
55
55
55
54
54
54
54
53
53
54
53
54
53
54
53
54
55
54
55
54
53
52
53
53
53
54
53
53
51
52
51
51
52
51
51
50
51
50
51
51
51
51
51
52
51
53
52
53
53
53
52
52
52
52
53
52
52
52
52
51
51
51
49
49
48
47
45
44
42
41
41
41
43
44
44
44
44
45
44
44
42
42
41
40
40
39
38
37
36
35
32
27
15
0
-17
-38
-57
-73
-79
-80
-74
-59
-38
-18
-3
5
12
17
19
21
23
25
28
32
36
39
41
42
44
45
47
48
50
50
51
51
51
51
50
51
51
52
53
53
54
54
55
54
54
54
54
55
55
56
56
57
57
57
58
58
58
58
58
57
58
58
57
57
56
57
56
56
54
54
53
53
53
51
50
48
47
45
44
43
43
43
42
42
40
39
38
40
42
44
45
44
44
43
44
43
43
42
41
41
41
40
40
40
40
39
39
38
38
37
37
36
36
34
34
34
34
34
33
33
32
32
32
31
29
22
9
-7
-25
-44
-61
-75
-80
-80
-70
-54
-33
-14
-1
7
14
16
18
20
22
25
30
35
37
39
41
43
43
45
46
47
49
49
50
50
51
51
52
53
53
54
53
54
54
55
55
56
56
56
57
57
58
58
59
58
59
59
59
59
58
58
57
57
56
56
54
53
53
52
51
49
47
46
45
44
42
41
40
39
38
36
36
34
33
32
31
30
29
28
28
28
26
26
25
24
23
23
23
22
21
20
20
20
20
20
19
18
18
18
16
17
16
16
16
16
16
16
15
15
16
15
15
16
16
15
16
16
16
16
16
16
15
16
16
15
15
16
16
15
16
16
16
16
15
15
15
16
16
16
16
16
16
15
16
16
16
16
15
14
15
16
16
16
16
14
13
12
11
10
10
9
11
12
14
15
16
17
18
19
19
18
18
17
17
16
16
16
16
15
14
10
1
-13
-30
-48
-67
-84
-94
-97
-94
-84
-67
-46
-30
-19
-12
-6
-3
-1
0
2
5
8
12
15
17
18
20
21
22
23
24
25
26
27
27
28
28
28
29
29
30
30
30
30
31
31
32
33
32
33
33
34
34
34
34
35
35
35
36
35
36
35
35
35
35
34
33
33
32
32
30
29
28
27
25
24
23
21
20
18
16
15
14
12
11
11
10
9
9
8
8
8
8
8
8
8
8
8
8
9
8
9
9
9
9
10
10
11
11
12
12
12
13
13
14
14
13
14
14
14
14
14
14
13
13
12
13
12
12
12
12
12
12
12
11
11
11
11
12
11
10
10
9
9
10
10
10
10
9
8
8
7
7
6
6
4
3
1
0
0
0
1
2
2
3
3
4
5
5
4
4
3
3
3
2
1
0
0
0
-1
-4
-11
-24
-41
-59
-81
-98
-112
-116
-114
-105
-85
-64
-44
-32
-24
-18
-14
-13
-12
-10
-8
-5
-1
1
3
4
6
7
8
9
10
12
13
14
14
15
15
16
17
18
19
19
19
20
21
21
22
23
23
24
25
25
25
26
27
27
27
27
28
28
28
29
29
30
29
28
29
29
29
28
28
27
27
26
26
25
23
22
21
20
19
18
17
17
16
15
14
14
14
13
13
13
13
13
13
14
14
14
14
14
14
14
14
14
15
14
14
14
14
14
13
13
13
13
13
13
13
13
14
14
15
15
15
15
16
15
16
16
16
16
16
15
15
15
15
15
15
15
15
14
14
14
14
14
13
13
13
13
12
11
12
10
9
7
6
5
4
4
3
5
6
7
7
7
7
8
8
7
6
5
4
3
2
2
1
0
0
-1
-6
-16
-31
-50
-71
-93
-109
-117
-119
-114
-100
-77
-56
-39
-30
-23
-18
-15
-13
-12
-9
-6
-2
2
5
7
8
10
10
11
12
14
15
15
15
15
15
15
16
16
16
16
16
16
17
16
17
18
17
18
18
19
19
19
20
20
20
20
20
20
21
20
21
20
20
20
20
20
19
19
18
18
17
16
15
14
13
11
10
9
7
6
6
6
6
5
3
2
1
1
3
5
6
6
5
5
5
5
5
4
3
2
1
1
1
0
0
0
0
0
0
0
-1
-2
-3
-3
-2
-3
-3
-4
-4
-4
-4
-5
-5
-5
-5
-6
-9
-15
-28
-45
-64
-84
-102
-118
-121
-123
-113
-97
-75
-54
-42
-33
-27
-22
-20
-19
-17
-14
-10
-6
-2
0
1
2
3
4
5
6
7
8
9
10
10
11
12
12
13
13
14
14
15
16
17
16
17
17
17
17
18
19
19
20
20
20
20
20
19
19
19
19
18
18
17
16
15
15
14
13
12
11
9
8
7
6
5
3
2
1
0
0
-1
-2
-3
-3
-4
-6
-7
-7
-7
-8
-9
-9
-9
-9
-10
-10
-11
-12
-12
-13
-12
-13
-13
-14
-14
-14
-14
-14
-14
-14
-14
-14
-14
-14
-14
-14
-14
-14
-14
-14
-14
-14
-15
-15
-14
-15
-15
-14
-14
-14
-14
-14
-14
-15
-14
-14
-13
-13
-13
-12
-12
-12
-13
-12
-12
-11
-11
-10
-10
-11
-11
-11
-11
-11
-10
-11
-10
-10
-10
-11
-11
-11
-12
-12
-14
-14
-14
-14
-14
-13
-11
-9
-7
-6
-4
-3
-3
-3
-3
-4
-4
-5
-5
-5
-6
-7
-7
-9
-13
-22
-36
-54
-77
-97
-116
-124
-127
-122
-110
-89
-67
-51
-40
-33
-28
-24
-22
-21
-19
-16
-12
-8
-6
-4
-3
-2
-1
-1
0
0
0
1
1
2
2
2
3
3
4
4
4
4
4
5
5
6
6
7
7
8
8
8
9
9
9
10
11
11
11
12
12
12
11
11
11
11
11
11
11
10
10
9
8
7
6
6
4
3
2
1
1
0
0
-1
-1
-1
-1
-2
-2
-2
-2
-1
-2
-2
-2
-2
-1
0
0
0
0
0
0
1
1
1
2
3
3
3
4
4
4
5
5
5
6
5
5
5
5
5
5
5
4
4
4
4
4
3
3
3
3
3
2
2
2
2
2
1
1
0
0
0
0
0
0
0
0
-1
-1
-2
-3
-5
-7
-8
-9
-10
-10
-8
-7
-6
-6
-5
-5
-5
-4
-5
-5
-6
-7
-7
-8
-9
-10
-10
-11
-14
-20
-32
-49
-69
-90
-111
-126
-133
-133
-125
-111
-86
-66
-50
-40
-33
-28
-25
-23
-22
-19
-15
-11
-7
-3
-2
0
1
3
4
6
8
9
10
11
12
13
13
14
14
16
16
16
16
16
16
16
17
16
17
17
17
17
17
17
16
17
17
17
17
17
17
17
17
16
16
15
15
14
13
12
11
11
9
8
7
6
5
4
3
1
0
-1
-2
-2
-3
-3
-4
-4
-5
-6
-6
-6
-5
-5
-5
-5
-6
-6
-6
-4
-1
0
0
0
0
0
0
-1
-2
-2
-3
-4
-4
-5
-5
-6
-6
-6
-7
-7
-6
-5
-6
-6
-6
-6
-7
-8
-7
-8
-9
-13
-23
-37
-55
-72
-93
-110
-122
-125
-122
-115
-96
-76
-58
-45
-36
-31
-27
-25
-23
-20
-17
-13
-9
-7
-5
-3
-1
0
0
1
2
3
4
5
5
6
7
8
8
9
9
10
10
10
10
11
12
12
13
13
13
13
14
15
15
15
15
15
15
15
15
14
13
13
13
12
11
10
9
9
8
7
5
4
2
1
0
0
-1
-3
-4
-5
-5
-6
-6
-6
-7
-6
-7
-8
-8
-8
-8
-9
-10
-11
-12
-12
-13
-14
-15
-15
-16
-16
-17
-17
-18
-19
-19
-19
-20
-20
-20
-20
-21
-21
-21
-21
-21
-21
-22
-22
-22
-21
-22
-22
-22
-22
-22
-23
-23
-23
-23
-23
-23
-23
-23
-23
-23
-23
-23
-23
-23
-23
-22
-23
-22
-23
-22
-22
-22
-22
-22
-21
-22
-22
-22
-22
-22
-22
-21
-22
-21
-21
-20
-20
-20
-18
-18
-18
-19
-18
-18
-19
-20
-21
-20
-21
-22
-21
-18
-17
-16
-16
-15
-14
-15
-15
-16
-16
-17
-18
-18
-19
-19
-20
-21
-23
-29
-39
-56
-73
-95
-115
-131
-139
-139
-135
-120
-99
-76
-61
-51
-45
-40
-37
-35
-33
-32
-28
-24
-20
-19
-17
-15
-14
-13
-12
-11
-11
-10
-9
-8
-8
-8
-7
-7
-6
-6
-4
-3
-3
-3
-3
-3
-2
-2
-1
-1
0
1
2
3
3
3
3
4
5
5
4
5
5
5
5
5
5
5
4
4
4
3
3
3
3
2
1
0
0
-1
-2
-3
-4
-5
-6
-6
-7
-7
-7
-8
-8
-8
-8
-8
-9
-8
-8
-7
-7
-6
-5
-5
-4
-3
-3
-3
-2
-2
-1
-1
-1
-1
-1
-1
-1
-2
-2
-2
-2
-2
-2
-3
-3
-3
-4
-4
-4
-4
-5
-5
-6
-6
-7
-7
-7
-7
-8
-8
-8
-9
-9
-9
-9
-10
-11
-11
-11
-11
-11
-11
-10
-11
-12
-14
-15
-16
-17
-19
-20
-20
-21
-21
-21
-19
-19
-18
-18
-17
-17
-17
-17
-18
-18
-19
-19
-20
-21
-21
-21
-21
-23
-28
-38
-54
-72
-93
-113
-133
-141
-144
-140
-128
-109
-86
-68
-55
-47
-40
-36
-34
-32
-29
-25
-22
-17
-13
-11
-8
-6
-5
-4
-2
-1
0
1
2
2
3
4
4
4
5
5
5
5
5
5
5
5
5
5
6
5
6
6
7
7
7
7
6
6
6
6
5
5
5
4
4
4
4
4
3
2
2
1
0
-1
-1
-2
-3
-4
-5
-6
-7
-7
-7
-8
-9
-8
-8
-8
-8
-9
-10
-10
-9
-7
-4
-2
-1
-1
-1
-2
-2
-2
-3
-4
-4
-4
-5
-4
-5
-5
-6
-7
-6
-7
-7
-7
-8
-7
-7
-7
-7
-7
-8
-7
-8
-8
-8
-10
-16
-28
-43
-62
-81
-98
-113
-117
-120
-111
-99
-78
-59
-45
-36
-30
-25
-23
-21
-20
-17
-13
-9
-6
-3
-1
0
2
3
4
6
7
8
9
9
10
11
11
12
12
13
13
14
15
15
16
17
18
19
19
20
21
21
22
23
23
23
23
24
24
24
24
23
23
22
22
21
20
19
19
18
17
17
16
15
13
12
12
11
10
9
8
8
7
7
6
5
5
5
4
3
3
2
1
1
0
0
0
0
-1
-1
-1
-2
-2
-2
-2
-2
-3
-3
-3
-3
-4
-4
-4
-4
-4
-4
-4
-4
-4
-3
-3
-3
-4
-5
-4
-4
-4
-4
-4
-4
-4
-4
-4
-4
-3
-2
-3
-3
-3
-2
-2
-2
-2
-2
-1
-1
0
-1
0
-1
0
0
0
0
0
0
0
0
1
1
1
0
0
0
1
1
2
3
3
2
3
2
2
1
1
1
1
1
1
2
4
5
6
7
8
8
8
8
7
7
6
6
5
5
5
4
3
0
-6
-17
-33
-52
-75
-97
-110
-118
-116
-111
-93
-69
-48
-34
-25
-19
-14
-12
-11
-9
-6
-3
0
3
6
8
9
11
12
13
14
14
15
16
17
18
19
19
19
19
20
21
22
23
23
24
24
24
24
25
26
26
27
27
27
27
28
28
29
30
30
30
30
31
32
31
31
30
30
29
29
29
28
28
27
27
26
25
24
22
22
20
20
18
17
16
16
16
15
15
16
16
16
16
16
16
17
17
17
17
18
18
19
19
20
21
21
21
22
23
23
23
22
22
22
22
22
22
22
21
21
20
20
20
20
19
19
19
18
18
18
17
18
18
17
17
17
17
16
17
16
16
16
15
15
15
15
15
15
15
14
13
12
11
9
8
7
6
5
5
5
7
9
8
9
10
10
10
10
10
9
8
7
7
6
6
6
5
4
0
-10
-26
-45
-66
-87
-102
-111
-111
-106
-94
-73
-52
-34
-23
-15
-10
-7
-4
-3
0
2
7
11
14
16
19
21
23
24
25
27
28
29
30
30
30
31
31
31
31
32
33
32
32
32
32
31
31
32
32
33
32
33
32
33
33
33
33
33
34
34
34
33
33
33
32
32
31
31
30
30
29
28
27
26
25
24
23
21
20
19
18
17
17
17
18
18
17
16
16
16
18
20
22
22
21
22
21
21
21
21
19
19
18
17
17
17
17
15
15
15
15
15
15
14
13
14
13
13
13
13
12
12
12
12
12
12
12
9
2
-8
-26
-44
-65
-84
-96
-103
-100
-93
-75
-53
-35
-22
-14
-8
-4
-2
0
1
3
6
10
13
16
17
19
21
22
24
25
25
27
27
28
29
29
30
31
32
32
33
33
34
35
35
36
36
37
38
39
40
40
40
40
42
42
43
42
42
41
41
41
40
40
38
38
37
38
37
36
35
33
32
31
30
29
28
27
25
25
23
23
22
22
21
20
20
19
19
18
17
16
16
15
15
14
14
14
13
12
12
12
12
11
11
11
10
10
10
10
9
10
10
11
10
10
9
9
9
9
9
9
8
8
8
8
8
9
9
9
9
9
9
9
10
10
10
9
9
10
10
11
11
11
10
10
11
11
11
12
12
12
12
12
12
12
12
12
12
12
12
12
12
13
13
14
14
14
13
12
11
11
10
10
10
11
12
14
16
17
17
19
19
19
19
18
17
17
16
16
15
15
14
14
11
4
-9
-28
-47
-69
-89
-103
-109
-108
-103
-86
-64
-42
-27
-17
-10
-6
-3
-1
1
4
7
12
16
18
20
22
23
24
26
26
27
27
27
28
28
30
30
30
30
30
31
31
31
31
32
32
33
33
33
33
33
34
35
36
36
36
36
37
38
38
38
38
38
39
39
38
37
36
35
35
35
34
33
33
33
32
32
31
30
29
28
28
26
26
26
26
25
25
25
24
24
23
24
24
24
24
25
25
25
26
27
28
28
29
30
30
30
31
32
32
33
33
33
33
33
33
32
32
31
31
31
31
30
30
30
30
30
30
30
29
29
29
28
28
28
28
28
28
28
28
29
28
28
27
26
26
26
25
25
26
26
25
25
24
23
22
21
19
18
18
17
17
18
20
20
20
20
20
21
21
21
21
20
19
18
17
17
17
17
16
14
10
2
-10
-28
-48
-69
-88
-97
-101
-98
-87
-70
-46
-29
-16
-9
-3
1
3
5
7
10
14
18
21
24
26
29
30
31
32
33
35
36
38
38
39
39
39
39
40
40
40
40
40
41
40
40
40
40
41
41
41
41
42
42
43
43
43
43
42
43
43
43
42
42
42
43
43
42
42
41
42
41
41
40
39
38
37
36
34
33
32
31
29
29
29
29
30
30
28
27
27
28
30
32
33
33
32
32
32
32
32
31
29
28
27
27
27
27
27
28
27
27
26
26
26
25
25
24
24
24
24
23
23
24
23
23
21
21
20
19
16
9
-2
-18
-37
-56
-78
-91
-98
-97
-88
-72
-49
-30
-17
-9
-2
1
3
4
6
8
11
15
19
22
24
25
26
27
28
29
30
31
32
32
34
34
34
35
35
36
36
37
38
39
39
40
40
40
42
42
43
42
43
43
44
43
43
44
44
44
43
43
42
42
41
42
42
41
41
39
38
36
35
34
32
30
29
28
26
25
25
24
23
22
21
20
20
20
19
19
18
17
16
15
15
14
13
12
11
10
10
9
9
9
9
8
7
7
7
7
7
6
6
5
5
5
5
4
4
4
4
4
4
4
4
4
4
4
4
4
4
4
4
4
4
4
4
4
4
5
4
4
5
5
5
5
5
5
5
5
5
5
5
5
5
5
5
5
5
5
6
6
6
7
7
7
6
6
6
5
4
3
3
3
3
5
7
9
9
9
11
11
11
11
10
9
8
8
8
8
7
7
5
2
-4
-17
-33
-53
-72
-91
-107
-112
-112
-103
-87
-65
-46
-33
-24
-18
-14
-11
-9
-8
-5
-2
2
4
7
9
10
11
11
12
13
14
14
14
13
13
14
15
17
19
20
20
19
17
16
15
16
17
17
18
20
20
21
22
22
22
21
20
22
23
24
24
24
24
23
23
21
19
18
19
18
18
18
19
20
20
18
17
18
19
19
17
15
12
11
10
9
9
9
9
9
8
9
11
13
15
14
12
10
9
10
12
12
12
12
15
18
18
17
13
12
12
14
16
18
18
16
14
13
13
14
14
15
15
15
13
12
12
13
14
15
15
14
11
10
9
10
12
13
14
12
10
9
8
8
7
8
8
6
6
6
7
7
6
6
4
4
4
3
1
0
-2
-3
-4
-4
-2
0
0
-1
-1
0
0
-1
-2
-3
-3
-3
-3
-4
-5
-6
-6
-7
-10
-17
-30
-49
-72
-94
-113
-125
-127
-126
-116
-98
-73
-54
-41
-32
-25
-20
-19
-18
-17
-15
-11
-6
-1
1
3
3
4
5
7
8
10
10
11
11
12
13
13
14
15
15
14
14
14
14
14
14
15
15
15
14
13
13
13
13
14
15
16
16
16
16
16
16
17
16
15
14
13
13
12
11
10
10
9
8
6
4
4
3
2
0
-1
-3
-4
-4
-4
-5
-6
-5
-5
-5
-5
-6
-6
-6
-4
-2
-1
-2
-3
-4
-4
-4
-5
-5
-5
-7
-8
-9
-8
-8
-8
-9
-9
-9
-10
-11
-12
-11
-11
-11
-13
-14
-14
-14
-13
-14
-15
-18
-22
-32
-46
-64
-86
-106
-127
-137
-141
-139
-129
-114
-92
-75
-60
-51
-43
-39
-38
-36
-34
-31
-28
-24
-21
-18
-15
-13
-13
-13
-13
-11
-9
-7
-7
-7
-6
-5
-4
-3
-3
-4
-3
-2
0
1
2
2
1
1
3
4
5
5
6
7
7
6
5
6
7
8
8
8
6
4
5
4
2
1
2
3
3
2
-2
-5
-8
-9
-9
-8
-8
-10
-13
-16
-17
-16
-15
-14
-14
-15
-17
-17
-17
-18
-22
-26
-26
-25
-22
-22
-24
-26
-27
-26
-26
-24
-26
-28
-28
-26
-24
-23
-22
-24
-26
-29
-31
-29
-28
-27
-27
-27
-28
-28
-29
-29
-30
-28
-25
-24
-23
-25
-26
-26
-24
-22
-22
-22
-24
-26
-29
-29
-27
-25
-24
-22
-21
-23
-25
-26
-25
-23
-23
-22
-20
-20
-23
-24
-24
-22
-20
-20
-20
-20
-20
-20
-20
-18
-19
-21
-23
-23
-21
-19
-20
-23
-26
-27
-25
-21
-19
-19
-20
-19
-16
-11
-12
-17
-19
-17
-15
-18
-21
-22
-21
-19
-21
-28
-40
-58
-80
-104
-128
-143
-157
-159
-159
-149
-130
-106
-80
-64
-50
-40
-33
-34
-36
-38
-35
-26
-19
-15
-11
-3
3
4
2
1
4
8
10
8
6
5
7
9
13
15
15
17
21
20
15
13
19
26
27
23
21
23
24
26
27
28
29
32
35
34
32
28
25
26
31
35
36
37
38
35
26
18
16
19
23
25
24
23
21
19
15
11
7
5
4
3
5
7
9
9
6
3
2
2
3
5
4
4
6
7
7
5
6
9
12
12
13
13
14
13
12
12
12
13
15
17
16
16
16
17
14
12
11
12
13
13
13
14
13
14
16
14
13
14
15
12
10
11
13
13
11
10
10
12
12
14
13
12
11
9
8
7
8
8
7
4
4
3
2
0
0
0
3
6
6
6
8
10
11
9
7
5
4
3
5
6
3
1
0
-5
-16
-34
-54
-75
-96
-114
-124
-125
-118
-101
-79
-52
-34
-24
-16
-9
-3
-1
1
4
8
12
15
19
24
25
25
26
29
32
33
36
37
38
38
39
41
42
44
42
42
42
45
46
48
48
48
49
50
51
51
51
51
53
53
52
53
53
54
55
57
57
56
54
54
54
53
53
52
54
51
49
48
48
47
45
44
41
40
37
34
33
34
35
33
31
28
28
28
29
30
29
28
28
29
30
30
30
29
29
29
29
28
27
29
29
29
28
28
27
26
27
27
28
28
28
28
29
28
27
29
30
32
30
30
30
31
31
33
33
32
33
34
35
34
33
32
33
33
31
31
30
30
30
30
29
29
29
28
28
28
26
23
21
20
20
19
18
19
21
22
23
23
24
25
26
25
24
22
21
21
20
20
19
19
19
19
16
9
-1
-17
-36
-55
-76
-89
-97
-96
-89
-74
-53
-34
-19
-10
-3
0
3
3
6
8
12
15
19
21
23
24
24
25
26
28
29
30
29
30
30
31
32
32
33
33
34
33
34
34
35
35
36
37
36
37
37
38
38
39
39
39
39
40
40
41
40
41
40
40
39
39
39
39
38
37
37
35
35
35
34
34
33
33
31
31
30
30
29
29
29
28
28
28
28
28
28
28
27
28
28
28
28
29
29
29
29
28
29
28
28
28
29
29
29
28
28
28
28
29
29
29
29
30
29
28
29
30
31
31
31
31
32
32
32
32
32
32
32
32
31
31
31
30
30
29
29
29
29
28
28
28
28
28
28
28
27
26
26
25
25
24
23
22
20
19
19
20
23
24
24
24
25
24
25
24
25
24
24
23
22
22
21
21
20
20
18
14
5
-7
-21
-38
-57
-74
-84
-85
-81
-67
-48
-29
-14
-5
0
5
9
12
13
15
17
21
24
26
29
30
31
33
34
36
37
39
39
39
39
39
41
41
41
41
41
41
41
42
41
42
42
43
43
44
44
45
46
46
46
45
46
46
47
47
47
47
47
48
47
47
46
46
46
45
46
44
44
42
41
40
39
39
38
37
37
37
36
35
33
32
32
35
37
38
37
36
35
34
34
33
32
31
31
31
31
31
31
31
31
29
29
29
29
29
29
29
27
28
27
28
28
28
28
27
28
27
26
25
26
24
19
8
-6
-22
-40
-58
-70
-75
-71
-64
-48
-29
-14
-4
3
8
11
12
13
15
18
21
24
27
29
31
32
34
35
36
37
37
38
40
40
40
40
41
42
43
43
43
44
45
46
46
47
46
47
47
48
49
49
50
49
50
50
50
49
48
49
48
48
47
48
46
46
46
44
44
42
42
40
40
39
38
37
36
36
35
34
33
32
32
31
30
30
29
28
27
26
25
24
24
23
23
23
23
23
22
22
21
21
21
20
20
20
20
19
19
18
18
18
17
17
17
16
15
15
17
16
16
15
15
14
14
15
14
14
14
14
14
14
14
14
15
14
14
13
12
12
13
13
12
13
12
12
12
12
13
13
13
13
13
13
12
11
12
13
14
13
13
12
12
12
11
11
10
9
8
8
8
8
9
10
12
13
14
15
15
16
16
16
16
16
15
14
14
14
14
14
12
10
6
-1
-15
-32
-50
-70
-85
-93
-93
-86
-72
-50
-31
-18
-10
-5
-1
0
2
3
4
7
10
12
13
15
16
17
18
18
19
20
22
23
23
23
24
24
24
25
25
26
27
27
26
26
27
27
28
28
29
29
30
31
31
31
31
32
32
32
32
33
33
32
32
32
31
32
31
31
30
30
29
28
28
27
27
25
25
24
23
21
20
21
20
20
18
18
17
17
18
17
17
17
17
16
17
17
18
18
19
19
19
20
20
21
20
20
20
20
21
22
22
22
21
21
21
21
21
21
21
21
20
19
19
19
18
19
19
19
19
19
18
18
17
17
17
16
16
16
16
16
16
16
17
16
16
15
14
13
14
14
12
11
10
8
7
6
6
7
9
10
10
9
10
11
10
10
10
11
10
9
8
7
7
7
7
8
7
3
-4
-17
-33
-51
-69
-86
-97
-102
-99
-92
-74
-55
-37
-24
-15
-8
-4
-1
0
2
4
8
12
15
18
20
22
24
25
26
27
28
29
30
30
30
30
32
31
32
32
32
32
32
32
33
34
33
32
32
33
33
34
36
35
35
34
34
34
35
35
35
35
34
34
33
33
33
33
32
31
30
30
31
29
29
28
28
27
25
24
23
22
22
21
21
21
23
23
23
21
21
20
22
24
27
27
27
27
27
26
26
25
25
24
23
22
22
21
21
21
22
22
20
19
19
19
18
18
19
19
19
18
18
18
18
17
15
10
-1
-15
-30
-48
-65
-80
-85
-86
-79
-64
-46
-28
-15
-7
-2
2
4
5
7
9
12
16
19
21
22
23
24
25
27
28
29
30
30
31
31
32
33
34
35
35
35
36
37
38
38
38
39
39
39
40
40
41
41
42
42
42
41
42
42
42
42
41
41
40
39
39
39
39
37
36
35
34
33
32
31
30
30
29
28
26
26
25
25
25
24
24
24
24
23
22
22
21
21
20
19
19
19
18
17
17
17
17
16
15
16
16
15
14
14
13
14
13
13
13
12
12
12
13
13
13
12
13
13
12
11
11
12
11
12
12
12
11
12
12
11
12
12
12
12
12
12
11
11
10
11
11
11
12
12
12
12
12
13
13
13
13
13
12
12
12
11
10
11
11
12
12
12
11
10
11
10
9
8
8
8
8
8
9
11
13
14
15
15
15
15
15
14
13
13
13
12
11
10
8
8
6
2
-4
-16
-32
-51
-71
-88
-101
-103
-101
-90
-71
-49
-33
-23
-16
-10
-6
-4
-3
-2
0
2
5
8
10
12
12
13
13
14
15
17
17
18
18
18
18
18
19
20
20
20
21
20
21
21
21
21
22
22
23
23
24
24
25
26
26
26
26
27
27
27
27
27
27
26
26
26
26
26
26
24
23
22
21
20
20
19
19
18
18
17
16
15
14
13
13
12
12
12
12
11
11
12
11
11
12
12
12
11
12
13
13
14
15
15
15
15
16
16
16
16
17
16
16
16
16
16
16
15
15
16
16
15
15
14
14
14
14
14
14
13
12
11
11
11
11
11
12
11
11
11
10
9
9
9
9
9
9
8
7
6
7
6
5
3
2
1
1
0
0
1
2
4
4
4
4
5
5
5
4
3
3
2
2
2
2
2
1
0
-2
-8
-19
-34
-49
-67
-84
-97
-102
-101
-95
-78
-60
-41
-28
-21
-15
-11
-8
-5
-2
0
3
7
10
12
14
15
17
18
19
21
22
23
22
24
24
25
25
25
25
25
26
26
27
27
26
27
27
27
27
29
29
30
30
31
31
30
30
31
31
31
30
30
30
30
29
29
28
29
28
29
28
27
27
26
26
25
24
22
22
21
20
19
18
18
18
19
20
19
18
18
19
21
23
23
22
21
21
22
21
21
20
20
19
17
16
15
15
15
15
15
15
15
14
14
13
13
13
13
12
12
13
12
12
12
11
11
9
7
1
-7
-21
-36
-52
-72
-85
-93
-90
-82
-66
-45
-28
-16
-10
-5
-1
0
2
3
6
9
12
14
16
17
20
21
22
23
24
26
27
28
28
28
29
30
31
32
33
32
32
33
34
35
35
35
36
36
36
38
37
39
39
40
40
40
40
39
39
38
39
38
38
37
37
36
35
35
33
33
31
30
29
28
27
26
25
23
23
22
21
20
19
19
19
17
17
16
16
16
15
14
13
12
12
12
12
12
12
11
10
10
10
9
9
8
7
7
7
7
7
7
6
6
6
7
6
6
6
6
7
6
5
5
6
5
5
4
5
5
5
6
5
5
5
5
5
5
5
6
6
4
3
4
5
5
5
5
5
5
5
4
4
4
4
4
5
4
3
3
4
5
4
3
3
2
0
0
-1
0
-1
-1
0
1
2
4
5
6
7
7
6
5
5
6
4
3
2
1
1
1
0
-4
-12
-26
-44
-61
-82
-98
-109
-112
-109
-100
-80
-61
-43
-33
-25
-21
-18
-15
-13
-11
-9
-5
-2
0
2
3
4
5
5
6
6
7
7
7
7
8
9
9
8
8
9
9
10
10
11
11
11
11
11
11
11
12
13
13
13
13
13
13
13
13
14
14
14
14
14
13
14
13
13
12
11
11
11
11
10
9
8
8
7
7
6
5
5
4
3
2
2
2
2
3
2
3
3
3
3
3
3
4
4
5
5
4
4
5
6
7
7
7
7
7
8
8
9
9
9
9
8
8
9
9
9
8
8
8
8
8
8
7
7
7
7
6
6
7
7
7
6
5
6
5
5
5
4
4
3
3
3
3
4
4
3
2
1
1
0
-1
-2
-1
-2
-4
-4
-3
-1
0
0
0
0
0
0
0
0
0
-1
-1
-2
-2
-3
-3
-2
-4
-11
-21
-34
-51
-69
-87
-103
-110
-112
-105
-90
-69
-48
-34
-25
-19
-14
-11
-10
-8
-5
-1
2
6
8
10
10
11
13
15
16
17
18
19
20
21
21
20
22
22
23
23
22
23
23
24
24
25
24
25
25
26
27
27
28
29
29
29
29
30
29
29
29
30
29
29
29
29
29
28
28
28
27
25
24
24
24
23
22
22
20
20
19
18
17
17
16
17
18
19
19
18
17
17
18
21
23
24
24
23
24
23
23
22
21
20
20
19
18
17
17
17
16
15
14
14
14
13
14
13
14
13
13
13
13
13
12
12
10
5
-3
-17
-34
-53
-72
-89
-97
-97
-92
-76
-57
-37
-23
-14
-8
-3
0
1
3
5
8
11
14
17
19
20
22
23
24
25
26
27
28
30
30
31
32
32
33
33
35
35
35
35
36
37
38
38
38
39
40
40
40
40
40
40
41
40
41
41
41
40
40
40
39
38
36
37
36
36
34
32
31
30
29
28
27
26
25
23
22
22
21
21
20
20
19
18
18
17
17
16
16
15
13
11
11
11
12
13
12
11
10
10
10
9
9
8
8
8
8
8
8
7
7
8
8
7
6
6
5
5
6
6
6
6
5
5
5
5
6
6
5
4
5
5
5
6
6
6
5
5
5
5
5
5
5
5
6
6
6
6
6
6
7
7
6
6
6
5
6
6
7
7
7
5
5
5
4
2
2
2
2
1
2
4
6
7
7
8
8
9
9
9
9
8
7
7
7
6
6
5
5
3
-3
-14
-28
-45
-62
-80
-93
-102
-102
-98
-84
-64
-44
-30
-22
-16
-12
-9
-7
-5
-2
0
5
9
10
12
13
14
15
16
17
18
19
19
20
20
21
22
22
23
22
24
24
24
25
25
25
25
26
26
26
26
26
27
27
28
29
29
29
29
29
29
30
30
30
29
29
28
27
26
25
24
24
22
20
19
17
16
15
13
12
10
9
8
7
6
6
5
4
4
4
4
4
3
3
3
3
3
2
2
2
3
3
3
4
4
4
4
5
5
6
7
6
6
6
6
6
5
6
5
5
5
5
4
4
4
4
4
3
3
4
3
3
3
2
2
2
3
2
2
1
0
0
0
0
0
0
0
-1
-1
-2
-3
-3
-4
-6
-7
-7
-8
-9
-10
-10
-8
-7
-6
-6
-5
-5
-5
-6
-6
-7
-7
-8
-7
-7
-8
-8
-9
-9
-11
-18
-30
-45
-62
-82
-99
-112
-117
-114
-104
-84
-63
-46
-35
-29
-23
-19
-16
-14
-12
-9
-6
-2
0
3
4
6
7
8
9
11
13
14
15
16
17
17
18
19
20
19
20
20
21
22
22
24
24
25
25
26
26
27
27
27
28
28
29
29
30
29
30
31
30
30
29
28
26
26
26
25
23
22
21
20
18
16
16
15
13
12
10
9
9
8
7
6
6
6
6
5
5
4
4
4
3
3
4
4
4
5
4
4
4
4
4
4
3
3
3
3
3
3
3
4
3
3
3
4
4
5
6
5
6
6
6
6
7
8
8
8
7
7
7
7
7
7
8
6
5
5
6
6
5
5
4
4
4
3
2
1
0
0
-2
-3
-4
-4
-4
-4
-3
-2
-1
0
0
0
1
0
0
0
0
-1
-2
-3
-3
-3
-4
-4
-6
-11
-22
-37
-54
-73
-91
-107
-112
-114
-108
-94
-75
-55
-41
-31
-24
-19
-16
-12
-11
-8
-5
-1
2
4
6
8
9
10
12
13
14
15
16
17
18
18
19
20
20
22
22
23
22
23
24
25
25
25
25
25
26
26
27
27
27
28
28
28
28
28
28
27
27
26
26
25
24
23
22
22
20
19
17
15
14
14
13
12
11
10
9
8
7
6
6
6
5
5
5
3
3
2
3
4
4
3
3
3
3
3
3
4
4
4
4
4
4
5
4
3
3
3
4
3
3
3
3
3
4
3
4
4
4
4
4
5
5
5
5
6
6
6
6
5
4
5
5
5
5
5
5
5
5
5
5
3
3
2
1
1
1
0
-1
-2
-3
-3
-2
-1
0
0
0
0
1
1
1
0
0
0
-1
-1
-1
-2
-3
-3
-4
-5
-7
-14
-24
-39
-57
-76
-96
-108
-115
-114
-106
-90
-67
-50
-38
-31
-26
-22
-19
-18
-17
-14
-11
-8
-6
-4
-2
-1
0
0
1
2
3
4
5
6
8
8
9
9
9
10
10
11
11
12
12
13
13
14
15
15
16
16
17
18
19
19
19
20
20
21
21
21
21
22
22
21
20
19
20
19
19
19
18
17
16
15
14
13
12
12
12
11
9
9
8
8
7
7
7
6
6
6
5
6
6
6
7
6
7
7
7
6
6
6
6
6
6
6
6
6
6
5
6
6
5
4
4
4
4
5
4
4
4
5
4
5
5
6
6
6
6
6
5
5
5
5
6
6
6
6
6
5
4
3
3
3
3
2
2
0
-3
-6
-6
-4
-2
-1
-1
-1
-1
-1
-1
-1
-2
-3
-3
-3
-3
-3
-4
-5
-6
-6
-6
-8
-14
-26
-43
-62
-81
-101
-115
-122
-123
-116
-103
-82
-62
-46
-38
-31
-25
-22
-19
-18
-14
-11
-6
-2
0
1
2
4
5
5
6
8
9
9
10
10
10
11
11
11
12
11
12
13
13
14
14
14
15
15
16
16
16
16
17
18
18
19
19
19
18
18
18
18
18
17
17
16
16
16
16
16
15
14
13
12
12
11
10
10
10
9
9
9
8
7
5
5
5
7
10
11
12
11
11
11
10
9
9
8
8
8
7
6
5
5
6
5
5
5
4
4
3
3
2
2
1
1
0
0
-1
-1
-1
-1
-1
-1
-3
-9
-20
-34
-49
-66
-83
-95
-100
-100
-94
-81
-62
-44
-31
-23
-18
-14
-11
-9
-7
-4
-1
3
6
8
9
11
12
13
14
16
17
18
19
20
20
21
22
23
23
24
24
24
24
24
25
25
26
26
27
27
29
29
30
31
30
30
30
31
30
30
29
29
28
27
27
27
26
24
24
23
21
20
19
18
16
15
14
12
12
11
10
9
7
6
5
6
6
5
4
3
2
2
3
3
3
2
2
2
1
0
1
2
1
1
1
1
0
0
0
0
0
0
0
0
0
-1
-1
-1
0
0
0
-1
-2
-1
0
0
0
0
0
0
0
-1
0
0
0
0
0
0
0
0
0
0
0
0
0
0
0
1
1
2
3
3
3
3
2
1
1
2
1
0
0
-1
-2
-4
-5
-6
-4
-2
-1
-1
-1
0
0
1
1
0
1
1
2
2
3
2
2
1
1
0
-1
-7
-20
-37
-55
-76
-94
-111
-115
-117
-112
-98
-77
-54
-38
-28
-22
-19
-17
-16
-14
-11
-7
-4
-1
0
2
3
5
7
8
8
9
10
11
12
11
10
11
12
13
13
14
14
15
15
15
15
16
16
18
18
18
18
18
19
19
19
20
20
20
20
20
20
21
21
22
21
20
20
19
19
19
18
17
17
18
16
15
13
13
13
13
12
11
10
8
7
7
8
8
7
7
7
7
8
8
8
8
9
9
10
10
11
11
11
11
11
11
11
12
12
13
12
13
13
14
14
14
14
15
15
15
14
14
14
14
15
15
14
13
13
13
14
13
13
12
13
13
13
13
13
12
11
10
9
9
9
8
7
6
3
0
1
2
4
4
5
5
5
5
5
4
5
4
5
5
4
3
2
1
1
2
2
1
-3
-14
-30
-48
-66
-87
-103
-112
-112
-107
-94
-73
-52
-36
-26
-18
-13
-9
-7
-5
-3
-1
2
6
8
10
12
14
16
16
17
18
19
20
20
21
22
23
22
23
24
25
25
25
25
25
25
26
27
27
27
28
28
29
28
29
29
30
30
29
28
28
28
28
28
27
27
27
27
26
25
24
24
24
23
22
21
19
19
19
18
17
16
16
16
17
18
17
15
15
16
19
20
21
20
20
20
19
19
19
18
17
15
15
14
14
14
14
14
13
12
11
11
10
10
10
10
10
9
9
8
8
7
6
5
4
1
-6
-19
-36
-55
-74
-94
-104
-109
-106
-95
-76
-51
-33
-19
-12
-7
-3
-1
0
1
3
7
10
14
16
18
20
21
22
22
23
25
26
26
27
28
29
30
30
30
30
30
32
33
34
34
35
35
36
36
37
39
38
38
38
39
39
39
40
40
40
39
39
38
39
38
36
35
34
33
32
31
30
29
27
25
24
22
21
20
18
17
16
15
13
12
12
12
11
11
11
11
10
9
9
8
7
7
7
6
6
5
5
5
4
4
5
5
5
4
3
3
3
3
3
2
1
1
2
2
2
2
1
0
0
0
1
0
0
0
0
0
0
0
0
0
0
0
0
0
0
0
0
0
0
0
0
0
1
1
1
1
2
2
3
3
3
2
1
0
0
1
1
0
-1
-3
-4
-5
-5
-4
-3
-1
0
0
0
1
3
4
4
3
3
3
2
3
2
2
1
2
2
0
-3
-11
-23
-40
-60
-79
-100
-110
-116
-114
-106
-91
-67
-48
-35
-27
-21
-16
-13
-11
-9
-5
-1
2
6
9
11
13
14
15
16
17
18
19
20
21
22
23
24
24
25
25
25
25
25
25
26
27
27
28
27
28
27
28
29
30
30
31
31
31
31
31
30
30
29
29
28
27
26
25
24
23
22
22
21
20
19
19
17
16
15
14
12
11
11
9
9
8
8
7
7
7
7
7
7
8
8
8
8
8
9
9
10
10
10
10
11
11
11
11
12
12
13
14
14
15
15
15
15
15
15
16
16
15
15
14
14
14
15
15
15
15
15
14
14
14
15
14
14
15
15
15
15
15
14
14
13
14
13
11
10
9
8
6
5
6
7
8
9
10
9
10
10
10
9
9
9
8
8
8
7
7
6
5
5
5
3
-2
-13
-27
-44
-64
-83
-98
-104
-104
-100
-84
-64
-42
-28
-19
-13
-8
-5
-2
0
1
5
9
13
15
17
19
21
22
23
24
25
26
27
28
29
30
31
32
33
33
33
34
35
35
36
36
36
37
38
40
40
41
41
41
41
42
42
41
42
41
41
40
41
40
40
39
38
38
37
37
36
35
34
33
32
30
28
27
26
25
25
24
23
23
22
22
22
21
20
20
20
19
20
21
21
21
21
21
20
20
20
21
21
21
21
21
21
21
22
22
22
21
20
21
21
22
20
21
21
22
22
22
23
23
23
24
24
24
25
25
25
26
26
27
27
28
29
30
30
29
28
26
25
26
26
24
23
22
20
18
17
17
18
19
20
20
20
20
20
20
20
19
18
17
16
16
15
15
14
13
13
12
8
0
-12
-29
-50
-72
-93
-105
-110
-110
-102
-86
-61
-40
-25
-17
-10
-6
-3
-1
1
3
7
10
14
17
19
21
22
24
24
26
27
28
29
30
31
31
31
31
33
33
34
35
35
36
36
37
37
38
37
38
39
40
40
40
40
40
40
39
39
38
38
38
36
36
35
35
35
34
33
31
30
28
27
26
25
24
23
22
20
18
17
17
16
15
15
15
14
13
13
13
13
13
12
13
12
13
13
13
13
13
14
14
14
13
13
13
13
13
13
14
14
14
13
14
13
14
13
13
13
14
14
14
14
14
13
13
14
14
15
15
15
15
16
18
19
19
19
18
17
16
16
15
14
14
12
11
9
7
6
7
9
9
10
10
10
11
11
11
10
10
9
8
8
7
6
5
5
4
4
4
1
-5
-18
-34
-54
-74
-91
-105
-109
-109
-98
-81
-60
-42
-31
-23
-18
-15
-13
-12
-10
-7
-3
0
3
4
5
7
8
9
10
11
13
13
14
14
15
16
18
19
19
19
20
21
21
22
22
23
24
25
26
26
26
27
27
28
27
28
28
29
28
28
29
29
29
28
27
26
27
27
26
26
25
25
24
24
23
22
21
19
19
18
17
16
15
15
14
14
14
14
13
13
12
13
13
14
14
13
13
14
14
14
14
14
15
15
15
15
15
14
13
13
14
14
14
14
14
14
14
13
13
13
13
13
13
12
12
13
14
14
15
14
15
15
17
18
19
20
19
18
17
16
16
15
14
13
13
11
9
8
8
9
11
12
12
13
13
13
13
12
12
11
12
12
11
9
8
8
7
7
5
2
-4
-17
-34
-55
-77
-96
-107
-111
-109
-99
-80
-56
-38
-24
-16
-10
-7
-4
-3
0
1
5
10
13
16
18
20
21
22
22
23
24
25
26
26
27
27
27
28
28
29
29
30
31
32
32
33
33
33
34
34
35
35
37
37
38
38
39
39
38
39
38
39
38
38
37
37
36
36
36
35
35
34
33
31
30
29
28
27
27
26
24
23
24
24
24
23
22
20
19
21
24
27
27
26
25
24
24
23
23
22
22
21
20
20
19
18
18
18
17
17
17
17
16
16
16
14
14
14
14
14
13
12
10
10
10
7
0
-12
-28
-47
-66
-86
-98
-102
-102
-91
-76
-53
-35
-21
-12
-6
-2
0
1
3
6
10
13
17
19
22
23
25
25
26
27
29
30
31
32
32
33
34
34
35
36
36
38
38
38
38
38
39
38
40
40
41
41
42
42
42
43
42
43
42
42
42
41
41
39
39
38
38
36
36
35
33
33
32
31
29
28
26
26
24
23
22
20
19
19
18
17
16
16
16
15
15
16
16
16
15
15
14
14
14
13
13
13
13
13
12
12
12
12
12
11
11
10
10
10
10
9
10
10
10
10
10
10
9
9
9
9
10
10
10
9
9
9
9
8
8
8
9
9
9
9
9
9
9
9
9
9
10
10
10
10
10
11
11
11
11
10
10
10
9
9
9
8
8
7
5
3
3
3
3
5
6
7
8
9
10
11
12
12
11
11
11
10
9
9
9
8
8
7
4
0
-10
-24
-41
-62
-80
-96
-106
-107
-105
-90
-69
-48
-33
-23
-18
-14
-10
-9
-8
-6
-4
0
2
5
7
8
9
10
11
12
13
14
15
16
16
17
17
17
18
19
19
19
20
20
20
20
20
20
22
22
23
23
23
23
23
25
26
26
26
26
27
27
27
27
28
28
28
27
26
25
25
25
25
24
24
22
21
20
20
19
19
18
16
15
14
14
14
14
14
13
13
12
12
11
11
11
11
11
11
12
13
13
13
13
13
13
13
14
14
15
15
15
15
15
16
16
17
17
16
16
16
16
16
16
16
15
15
15
14
14
14
14
14
13
12
11
12
12
13
12
13
12
12
11
10
9
9
8
7
7
6
4
2
0
0
0
3
4
5
5
5
5
5
5
4
4
3
2
1
1
1
0
0
0
0
-2
-8
-18
-34
-51
-72
-91
-105
-113
-114
-112
-99
-81
-59
-42
-31
-22
-16
-13
-11
-9
-7
-3
0
5
8
10
12
14
15
16
17
19
20
20
20
20
21
21
22
23
23
23
23
23
23
23
24
24
26
25
26
26
26
27
28
29
28
29
29
29
29
30
30
30
30
29
30
29
29
29
29
28
27
26
25
24
23
22
21
21
20
19
18
17
18
18
18
18
17
16
15
16
18
21
23
24
24
23
23
23
22
22
21
20
19
19
18
17
17
17
17
17
16
16
16
15
15
14
14
14
13
13
12
12
12
12
12
9
3
-8
-23
-39
-58
-74
-88
-91
-91
-82
-67
-48
-30
-19
-11
-6
-2
0
1
3
6
10
14
16
18
20
21
21
22
24
25
26
26
27
28
28
29
29
30
30
31
32
32
32
33
34
34
35
35
36
36
36
37
37
38
38
38
38
38
37
36
36
35
36
35
35
34
34
34
33
32
31
30
28
27
26
23
22
20
20
18
17
16
15
13
12
11
11
10
9
9
9
8
8
8
7
7
7
6
7
6
6
5
5
5
5
5
4
4
4
4
5
4
4
4
3
3
3
3
3
3
3
4
4
3
3
2
3
3
4
3
3
2
2
3
3
4
4
3
3
3
3
3
3
3
3
2
2
2
3
3
3
4
5
5
6
6
5
4
3
2
2
2
1
1
1
0
-1
-2
-1
0
2
3
3
4
5
6
6
7
7
6
6
6
6
5
4
3
2
2
0
-4
-14
-28
-44
-62
-82
-99
-110
-111
-108
-96
-74
-52
-37
-28
-22
-18
-14
-14
-12
-11
-9
-5
-3
0
1
2
4
5
5
7
8
8
8
9
9
10
10
11
11
11
11
12
12
12
13
14
14
14
14
15
15
16
17
17
17
17
17
17
18
18
19
19
19
19
18
18
19
18
18
17
17
17
16
15
14
13
12
10
9
8
7
7
6
5
4
4
4
3
2
2
2
2
2
2
0
0
0
0
0
0
0
1
1
1
1
2
2
2
2
3
3
3
3
4
4
4
4
5
4
3
3
3
3
3
3
2
1
1
1
0
0
-1
0
0
0
0
0
0
0
0
-1
-2
-3
-3
-3
-4
-6
-7
-8
-9
-10
-11
-10
-9
-8
-8
-8
-8
-7
-7
-8
-8
-10
-11
-11
-11
-12
-12
-12
-13
-15
-15
-17
-21
-31
-46
-65
-83
-103
-119
-125
-129
-123
-112
-91
-70
-54
-43
-37
-30
-28
-26
-25
-22
-18
-14
-9
-6
-4
-2
-1
0
0
1
3
4
4
5
5
5
5
5
6
6
6
6
7
7
7
8
9
9
9
9
10
11
11
11
11
11
12
12
12
12
12
12
12
11
11
11
10
10
9
9
9
8
8
7
6
5
5
4
3
2
2
2
1
0
0
0
0
0
0
0
1
2
2
2
2
2
4
6
7
8
7
7
7
8
7
7
5
4
3
3
2
2
1
0
0
0
0
0
-1
-1
-1
-2
-3
-3
-2
-2
-2
-3
-4
-11
-23
-37
-54
-70
-89
-101
-107
-107
-98
-81
-58
-40
-29
-22
-16
-12
-10
-8
-7
-4
-1
2
5
7
9
10
11
12
13
13
14
16
17
18
19
19
19
20
20
21
21
22
22
23
24
24
24
25
25
26
27
27
28
27
28
28
28
28
28
28
27
27
27
26
26
26
26
25
24
23
22
21
20
19
17
16
14
13
11
10
9
8
7
5
5
4
4
3
2
3
2
2
0
0
1
0
1
0
0
0
-1
-1
-1
-2
-1
-1
-2
-2
-2
-2
-2
-3
-2
-2
-3
-3
-3
-3
-3
-3
-4
-4
-4
-4
-4
-3
-3
-4
-3
-3
-3
-3
-3
-3
-3
-3
-3
-3
-3
-2
-1
-1
-1
-1
-2
-1
-2
-2
-1
-1
-1
-1
-1
-1
-1
0
0
0
0
-1
-1
-2
-2
-3
-3
-4
-5
-6
-6
-6
-5
-2
0
0
0
1
3
4
3
3
3
3
2
2
1
1
0
0
0
-1
-6
-16
-29
-49
-69
-91
-108
-118
-122
-118
-107
-86
-64
-47
-37
-31
-26
-22
-20
-19
-17
-14
-10
-7
-4
-2
0
1
2
3
4
5
7
7
8
9
10
10
9
9
10
11
12
12
13
13
13
14
14
15
15
16
16
17
17
18
19
19
19
19
19
20
20
20
20
20
19
19
19
19
18
18
17
17
16
15
14
13
13
12
10
8
8
7
7
6
5
5
5
5
5
5
5
5
5
6
6
6
6
6
6
7
7
8
8
9
10
10
11
10
11
11
12
13
14
14
14
14
14
15
15
15
15
15
14
14
14
13
13
13
14
13
13
13
13
12
12
12
11
10
10
10
10
10
9
9
8
8
8
6
4
3
2
2
2
3
5
6
7
6
6
6
6
6
6
6
5
5
4
4
3
2
2
1
0
-6
-17
-33
-51
-69
-88
-101
-109
-110
-103
-88
-65
-46
-31
-24
-17
-12
-9
-6
-4
-2
1
6
9
12
14
16
17
17
19
20
21
22
23
23
24
24
25
25
25
26
27
26
26
27
27
28
28
29
30
30
31
31
31
32
32
33
33
34
35
35
34
34
34
34
33
33
33
32
32
32
31
31
30
30
29
28
27
26
25
25
24
24
24
23
24
25
25
25
24
24
25
27
30
31
30
30
30
30
30
29
28
27
27
26
25
24
25
25
24
24
23
23
23
23
24
23
22
22
23
22
21
20
20
20
19
20
17
11
0
-15
-32
-50
-69
-83
-89
-87
-80
-62
-39
-19
-6
1
7
11
13
15
16
19
23
26
30
31
34
34
37
37
37
38
40
42
43
44
45
47
47
48
48
47
47
48
51
51
52
52
52
53
52
54
54
55
55
56
56
56
56
56
57
57
57
56
55
55
54
54
53
53
51
51
49
48
48
46
45
43
41
39
37
37
35
34
33
33
31
31
30
30
29
29
29
28
27
26
27
27
27
26
25
25
24
24
24
24
24
24
23
23
23
22
22
22
21
19
19
19
20
21
20
20
19
20
20
21
22
22
21
21
20
20
20
21
21
21
21
22
22
22
22
22
22
22
22
22
23
23
23
23
22
22
23
23
24
24
25
24
25
23
23
22
22
21
19
18
17
16
16
17
19
21
22
23
24
25
26
26
27
25
25
24
24
24
23
23
22
22
21
18
10
-2
-19
-37
-57
-75
-89
-94
-93
-85
-66
-45
-25
-14
-5
0
4
7
9
11
14
17
21
25
27
29
30
32
32
34
35
36
37
38
39
39
41
41
42
42
42
43
42
43
43
44
43
44
45
45
47
47
46
46
48
48
48
49
49
49
48
48
47
48
46
45
44
43
42
41
41
40
39
38
38
37
36
35
34
33
31
30
28
28
27
27
27
26
25
25
25
25
25
26
25
25
25
26
26
27
28
27
28
28
28
28
28
29
29
30
29
30
30
31
31
31
32
32
32
32
33
33
33
33
33
33
32
33
32
31
31
32
32
32
32
31
31
31
32
32
32
31
30
30
30
30
30
30
29
28
26
24
24
23
24
25
26
27
26
26
27
28
28
28
27
27
27
26
26
25
25
25
24
24
22
19
12
0
-15
-34
-53
-70
-81
-85
-84
-73
-55
-32
-14
-4
3
8
12
15
17
20
22
26
29
32
34
36
38
38
40
41
43
44
44
46
46
48
48
50
51
51
51
51
51
52
54
55
56
56
56
57
57
59
60
61
60
61
60
60
61
60
61
60
60
59
58
57
57
57
56
55
54
53
52
51
51
49
48
47
46
44
43
43
41
41
40
40
39
38
37
36
38
38
38
38
38
38
39
40
40
40
40
40
40
40
39
39
39
39
39
39
40
40
40
40
39
39
39
39
40
40
40
40
40
41
41
42
43
44
44
43
43
44
45
46
46
47
47
48
48
47
46
45
45
44
44
43
42
41
39
39
36
37
37
38
39
40
41
40
41
40
40
39
38
38
37
36
35
35
35
34
33
33
30
25
14
-1
-18
-38
-58
-72
-81
-82
-77
-64
-42
-22
-7
1
8
14
16
18
20
23
27
31
35
38
40
41
42
44
45
47
48
49
50
51
52
52
54
54
55
55
56
57
57
58
58
59
58
59
59
59
61
60
61
60
61
61
62
62
60
60
58
58
57
57
56
56
55
54
54
51
52
50
50
49
48
47
45
45
43
43
41
40
40
39
39
38
38
37
38
38
38
38
38
38
38
39
39
39
38
38
39
38
39
38
39
39
39
39
39
39
38
39
38
38
38
38
38
38
39
38
39
38
38
39
39
39
39
40
40
40
40
41
42
42
44
44
45
44
45
44
42
41
41
41
39
39
37
36
35
33
34
35
36
37
38
38
38
38
38
37
36
36
35
35
34
34
34
33
32
30
29
26
19
8
-7
-25
-45
-63
-74
-79
-77
-68
-50
-29
-12
-2
4
10
14
16
17
20
22
26
29
33
35
36
38
39
40
41
43
43
45
45
46
47
48
48
48
49
49
51
52
52
53
53
54
54
55
55
56
56
56
57
57
57
57
57
56
56
56
55
54
54
54
52
51
50
50
49
49
48
47
46
45
44
43
42
40
39
38
37
36
35
35
35
34
34
33
34
33
34
34
34
36
35
36
36
36
36
36
36
35
36
36
37
36
37
36
36
36
35
36
35
35
34
35
35
34
35
34
34
33
34
34
35
35
36
36
36
37
37
38
40
41
41
42
41
40
39
39
40
39
38
36
36
35
33
31
31
33
34
35
36
35
35
35
35
35
34
33
32
33
32
32
31
30
29
28
27
23
16
4
-13
-32
-53
-71
-85
-92
-90
-84
-65
-43
-22
-10
-2
3
7
9
11
13
16
20
24
27
29
32
33
36
36
37
38
41
42
43
44
44
45
46
47
48
48
49
49
50
51
52
52
52
53
54
54
54
54
53
54
54
55
55
54
55
54
52
51
51
50
50
50
48
48
47
46
45
44
44
42
41
39
39
38
37
37
36
36
35
36
35
34
33
33
33
33
33
32
33
33
34
33
34
34
34
34
33
34
34
34
34
35
35
35
35
34
35
34
34
34
34
34
34
34
34
35
34
35
34
34
35
35
35
35
36
36
36
37
37
39
40
41
41
41
41
38
38
37
37
37
37
37
36
34
31
31
31
33
33
34
33
33
33
32
33
32
32
31
31
30
29
29
27
27
26
26
25
21
12
-1
-18
-37
-57
-74
-85
-88
-87
-76
-56
-36
-18
-8
0
4
8
10
12
14
16
19
23
26
28
30
31
33
34
35
36
36
38
38
40
41
42
43
43
43
44
45
44
45
45
47
47
47
48
48
49
49
49
49
49
48
48
49
48
49
48
48
47
46
45
44
44
43
43
41
41
40
40
39
38
36
35
35
33
32
31
30
29
29
28
27
27
27
27
26
26
26
26
26
26
26
26
27
27
27
27
27
27
27
27
27
26
25
26
28
27
26
26
26
26
26
27
26
26
25
25
25
26
26
25
26
26
26
26
26
26
27
29
30
31
32
32
31
29
29
29
29
27
26
24
24
22
20
20
20
22
23
24
23
23
23
23
23
22
22
22
21
19
18
17
17
16
15
15
12
7
-3
-20
-39
-60
-82
-97
-105
-105
-100
-83
-61
-39
-24
-15
-9
-4
-1
0
2
5
9
12
16
19
21
22
24
26
28
29
30
31
31
32
33
34
35
35
36
37
38
38
39
39
40
41
40
41
42
43
43
43
44
44
44
44
44
43
43
43
42
42
41
40
39
38
37
37
36
35
34
34
34
33
31
30
30
28
27
26
25
24
24
23
21
22
21
21
20
19
19
20
20
20
19
20
20
21
21
21
20
20
20
20
20
20
21
20
20
20
20
21
20
20
19
19
19
20
20
20
19
18
18
18
18
19
19
19
20
19
19
20
21
22
23
24
24
24
24
23
22
22
21
20
19
19
18
16
14
13
14
15
16
17
18
18
18
18
18
17
16
17
16
15
14
13
12
12
11
11
10
7
0
-14
-31
-48
-68
-87
-100
-107
-104
-96
-76
-56
-39
-28
-22
-17
-13
-11
-10
-9
-6
-2
1
3
6
8
9
10
11
12
14
15
16
17
18
19
19
20
21
22
22
23
23
24
24
24
25
25
26
27
28
28
28
30
30
30
31
31
31
32
32
32
32
32
32
31
31
30
31
30
30
30
29
29
27
27
26
26
24
24
23
22
21
20
20
20
20
20
19
20
19
19
19
20
20
20
20
20
21
21
21
20
21
21
20
20
20
20
20
21
20
20
20
20
19
19
20
19
19
20
20
20
19
20
18
19
19
19
19
19
20
21
23
23
24
24
24
23
21
21
21
21
19
19
18
17
15
14
14
15
16
17
18
18
19
19
17
16
15
15
14
13
13
13
13
12
11
10
8
6
0
-11
-27
-45
-65
-86
-101
-109
-108
-101
-83
-60
-40
-25
-17
-11
-7
-5
-4
-2
0
4
7
10
12
13
14
15
16
17
17
18
19
19
20
20
20
21
21
22
22
22
23
24
25
25
25
25
26
26
26
27
27
27
27
27
28
29
29
30
30
29
30
29
29
28
28
27
28
27
26
25
24
23
22
20
19
18
17
16
16
16
16
17
15
14
12
12
13
15
17
18
16
15
15
15
15
13
11
10
10
10
9
9
8
7
7
7
6
6
6
5
5
4
3
2
1
0
0
0
-1
-1
-2
-3
-4
-9
-16
-31
-47
-65
-85
-101
-114
-114
-113
-102
-83
-62
-43
-32
-23
-18
-15
-13
-11
-9
-6
-2
2
4
6
7
9
10
11
13
14
15
16
16
17
17
19
20
20
20
20
20
21
21
22
23
23
24
25
25
25
25
26
26
26
26
26
26
26
26
26
26
25
24
24
24
22
21
21
20
19
18
17
15
13
12
10
9
6
5
4
4
3
3
2
1
0
0
0
0
0
0
0
0
0
-1
-1
-1
-1
-2
-2
-1
-1
-1
-2
-2
-3
-3
-3
-3
-2
-2
-3
-3
-4
-3
-3
-2
-2
-2
-2
-2
-2
-2
-2
-1
-1
-2
-1
-1
-1
-1
-2
-2
-1
-1
-1
-2
-2
-2
-2
-2
-2
-1
-1
0
0
0
0
0
0
0
0
0
0
0
-1
-1
-1
-1
-2
-3
-3
-5
-6
-7
-6
-4
-3
-2
-2
-1
0
0
1
1
1
1
2
3
2
1
1
1
1
0
-1
-5
-13
-25
-41
-60
-80
-98
-108
-114
-111
-101
-81
-60
-43
-33
-27
-23
-20
-18
-17
-15
-13
-10
-7
-4
-3
-1
-1
0
1
1
3
4
5
6
7
7
7
7
9
9
8
8
9
10
10
11
12
12
13
13
13
13
14
14
14
15
15
16
17
18
17
17
17
17
17
17
18
17
16
16
15
15
14
13
13
12
11
9
8
8
8
7
6
5
4
4
4
4
4
4
4
4
4
4
4
4
5
5
5
5
5
6
6
7
6
7
6
6
6
6
6
7
7
7
7
7
7
7
7
8
8
8
8
8
8
8
7
7
7
6
7
6
6
6
6
6
7
7
7
6
5
3
3
2
2
1
0
0
-2
-4
-5
-5
-4
-3
-2
-1
-1
-1
-1
-1
-1
-2
-3
-3
-4
-5
-6
-7
-8
-8
-9
-9
-12
-18
-30
-47
-65
-87
-105
-121
-128
-126
-119
-99
-78
-58
-46
-38
-31
-26
-24
-22
-20
-18
-14
-10
-6
-4
-2
0
1
2
3
4
5
6
6
6
6
6
7
7
7
7
6
7
8
8
7
8
8
8
8
9
9
10
10
10
10
10
10
10
10
10
10
11
11
10
9
9
9
9
8
7
6
6
5
4
3
1
0
-1
-2
-2
-3
-4
-5
-6
-5
-4
-3
-4
-4
-5
-5
-4
-1
0
2
1
1
0
0
0
0
-1
-2
-3
-4
-4
-5
-5
-5
-6
-6
-7
-7
-8
-9
-9
-10
-11
-10
-11
-11
-12
-13
-12
-12
-13
-18
-27
-42
-57
-74
-92
-107
-118
-118
-116
-103
-84
-65
-50
-41
-34
-30
-26
-25
-23
-21
-18
-14
-11
-8
-7
-5
-4
-3
-2
-1
0
0
0
1
2
3
4
4
4
4
4
5
6
7
7
8
8
9
9
9
9
9
9
10
10
10
11
10
10
10
9
9
8
8
8
7
6
4
4
3
2
1
0
-1
-1
-3
-4
-5
-6
-8
-9
-10
-10
-12
-13
-14
-14
-14
-15
-15
-16
-16
-17
-17
-17
-17
-17
-18
-18
-18
-18
-19
-19
-19
-19
-19
-19
-19
-19
-19
-20
-20
-20
-20
-20
-20
-20
-20
-21
-21
-20
-20
-20
-20
-19
-19
-20
-20
-19
-18
-18
-18
-18
-18
-17
-17
-17
-18
-18
-17
-17
-16
-16
-16
-16
-16
-16
-16
-16
-16
-16
-16
-16
-16
-15
-14
-14
-14
-15
-15
-16
-15
-15
-16
-17
-18
-18
-20
-20
-21
-20
-18
-16
-16
-16
-14
-13
-12
-12
-13
-13
-13
-13
-14
-14
-15
-16
-16
-17
-17
-19
-24
-35
-50
-68
-88
-107
-123
-131
-133
-126
-111
-87
-66
-53
-45
-40
-36
-34
-32
-31
-30
-27
-23
-21
-18
-16
-16
-15
-14
-13
-12
-12
-11
-10
-9
-8
-7
-7
-7
-7
-6
-6
-5
-4
-3
-3
-4
-4
-3
-3
-1
0
0
0
0
0
1
1
2
3
4
4
4
4
4
4
4
4
4
3
2
2
1
1
0
0
-1
-1
-2
-3
-4
-5
-6
-7
-8
-9
-9
-10
-9
-9
-10
-10
-10
-9
-9
-9
-10
-9
-9
-9
-9
-10
-10
-9
-8
-8
-8
-7
-6
-6
-5
-4
-4
-4
-5
-4
-4
-3
-3
-3
-4
-5
-5
-5
-5
-5
-5
-5
-6
-7
-8
-8
-8
-8
-8
-8
-8
-7
-7
-8
-9
-10
-10
-11
-11
-11
-11
-13
-14
-16
-18
-20
-20
-20
-19
-18
-17
-17
-18
-17
-17
-17
-18
-19
-20
-21
-21
-22
-22
-22
-23
-23
-23
-23
-26
-31
-43
-58
-75
-93
-112
-129
-136
-141
-134
-123
-102
-82
-67
-56
-49
-43
-42
-39
-38
-36
-33
-28
-24
-21
-19
-17
-15
-15
-14
-13
-12
-11
-11
-10
-10
-10
-10
-10
-9
-9
-9
-9
-8
-8
-8
-8
-7
-7
-6
-6
-5
-5
-4
-4
-4
-4
-4
-4
-4
-4
-4
-4
-4
-5
-5
-5
-5
-5
-6
-7
-8
-8
-8
-9
-10
-11
-12
-13
-14
-14
-16
-17
-18
-18
-17
-16
-17
-17
-17
-18
-17
-15
-12
-11
-11
-12
-12
-12
-12
-13
-14
-15
-16
-18
-18
-18
-19
-19
-20
-20
-21
-21
-21
-22
-22
-22
-23
-24
-24
-24
-24
-25
-25
-27
-26
-27
-30
-40
-54
-70
-88
-106
-126
-135
-139
-135
-124
-105
-83
-66
-54
-47
-42
-39
-36
-35
-34
-31
-27
-23
-20
-17
-16
-15
-14
-13
-12
-11
-9
-9
-7
-7
-6
-6
-5
-4
-3
-3
-3
-3
-2
-1
0
0
0
0
1
2
2
3
3
2
2
3
3
2
2
2
2
2
1
1
0
0
-1
-2
-2
-3
-5
-7
-9
-9
-11
-12
-14
-16
-18
-19
-20
-22
-23
-24
-24
-25
-26
-26
-27
-27
-28
-27
-28
-28
-28
-28
-28
-28
-28
-28
-29
-29
-29
-29
-29
-29
-31
-30
-30
-30
-30
-31
-31
-32
-31
-31
-31
-30
-31
-31
-31
-31
-31
-32
-32
-32
-31
-31
-30
-31
-31
-32
-31
-31
-31
-31
-31
-31
-32
-31
-31
-31
-30
-29
-29
-30
-29
-30
-29
-29
-28
-28
-29
-29
-30
-29
-29
-27
-28
-29
-29
-30
-29
-31
-32
-33
-33
-33
-34
-32
-30
-28
-27
-25
-23
-22
-22
-22
-21
-22
-22
-23
-23
-23
-23
-24
-25
-26
-31
-41
-58
-76
-97
-117
-134
-145
-147
-144
-130
-108
-84
-67
-56
-49
-45
-42
-40
-38
-34
-31
-27
-22
-18
-16
-14
-14
-12
-10
-8
-7
-7
-5
-5
-3
-3
-2
-2
-2
-2
-2
-1
0
0
0
0
0
1
2
2
3
3
4
4
4
4
4
4
5
5
5
4
4
4
4
2
0
0
0
-1
-3
-3
-4
-5
-7
-8
-9
-10
-12
-13
-15
-16
-17
-18
-19
-19
-20
-21
-21
-20
-21
-21
-21
-21
-20
-20
-19
-19
-19
-19
-19
-18
-18
-17
-17
-17
-17
-16
-16
-15
-15
-14
-14
-14
-13
-13
-13
-13
-13
-12
-12
-12
-11
-11
-11
-11
-11
-10
-11
-11
-11
-11
-10
-10
-10
-11
-11
-12
-12
-12
-12
-12
-12
-12
-13
-14
-14
-14
-15
-17
-18
-19
-20
-21
-21
-18
-17
-16
-16
-15
-15
-15
-15
-15
-16
-17
-17
-18
-19
-19
-19
-19
-20
-23
-30
-41
-58
-76
-97
-117
-131
-140
-137
-131
-112
-89
-68
-54
-46
-39
-35
-32
-30
-27
-24
-20
-16
-12
-9
-7
-5
-3
-2
-1
0
2
3
4
4
4
5
6
7
8
9
10
10
11
11
11
12
12
12
13
14
14
15
16
16
17
17
17
16
17
17
17
16
15
14
13
12
11
11
11
10
9
7
6
6
4
3
2
1
0
-1
-1
-2
-3
-4
-4
-5
-5
-6
-6
-6
-6
-5
-6
-5
-6
-5
-5
-5
-5
-5
-4
-4
-4
-4
-5
-4
-4
-4
-4
-3
-3
-3
-3
-4
-4
-4
-3
-3
-2
-3
-3
-2
0
0
0
0
0
1
1
2
2
3
4
3
3
3
3
4
5
5
4
3
3
3
2
2
0
0
-1
-1
-3
-5
-4
-2
-1
0
0
0
0
1
1
1
0
-1
-1
-2
-3
-3
-3
-4
-5
-6
-8
-14
-25
-40
-60
-81
-102
-117
-124
-125
-117
-103
-79
-59
-44
-35
-28
-23
-20
-18
-16
-13
-9
-4
-1
2
3
5
7
8
9
11
13
15
16
17
17
18
17
18
19
21
20
21
22
22
23
23
25
24
26
26
27
27
28
29
29
29
29
31
31
30
29
30
30
29
28
27
27
25
24
23
22
21
20
19
18
16
15
14
13
13
12
10
9
8
8
7
7
6
6
5
5
5
6
6
7
6
6
7
7
7
7
7
8
8
9
9
8
8
8
8
8
8
8
8
9
9
9
9
9
9
9
10
9
10
10
10
11
12
12
12
12
13
13
13
14
14
15
15
16
16
16
15
14
14
14
14
13
13
12
10
9
8
8
9
10
11
12
12
11
12
13
13
12
11
11
10
10
10
10
10
9
9
8
7
3
-5
-18
-35
-53
-73
-91
-102
-108
-106
-97
-79
-57
-39
-27
-20
-15
-11
-8
-8
-6
-3
1
4
7
9
10
11
12
14
15
16
18
19
19
20
20
21
22
22
23
24
24
24
25
26
27
28
28
28
28
29
29
30
30
30
31
32
33
33
33
33
33
33
33
33
34
34
34
34
33
32
32
32
32
31
30
29
28
28
27
27
25
25
24
24
23
23
23
22
22
22
23
23
23
23
23
24
24
25
24
24
23
24
24
25
25
24
24
24
24
24
24
25
25
25
25
25
25
25
25
26
25
25
26
26
27
26
26
27
28
28
28
29
29
29
30
31
32
32
32
32
31
29
28
28
27
27
26
25
22
21
20
21
22
23
24
24
24
24
23
22
22
22
21
21
20
20
18
18
17
17
17
15
10
0
-14
-32
-52
-70
-86
-93
-94
-90
-75
-55
-34
-21
-12
-6
-2
1
2
4
6
9
13
17
19
20
21
22
24
25
25
26
26
27
28
28
27
28
28
29
29
30
30
31
31
32
32
32
32
33
34
34
35
35
36
36
37
39
39
40
38
38
37
38
39
38
38
37
37
36
36
36
35
34
32
31
30
30
29
28
27
27
28
28
27
26
25
24
25
27
29
30
29
29
28
28
28
27
26
25
24
24
25
24
23
24
23
23
22
23
22
22
21
20
20
20
20
19
18
17
17
16
16
16
14
12
10
4
-7
-23
-40
-60
-79
-89
-94
-90
-82
-64
-42
-24
-12
-5
0
3
5
7
9
11
14
18
21
23
25
27
28
29
30
31
32
33
34
35
35
36
36
37
38
39
40
39
40
41
42
43
42
43
44
44
45
45
45
45
46
46
46
46
46
46
46
45
44
44
43
43
43
42
41
39
39
36
35
33
32
31
30
28
26
26
24
24
22
22
22
22
21
20
19
18
18
17
17
18
17
17
17
17
17
17
16
16
15
14
14
15
15
15
15
15
15
15
15
15
15
15
15
15
15
15
15
15
15
16
16
16
15
15
15
15
15
15
15
15
15
15
15
15
16
16
17
16
16
16
17
18
18
18
17
18
17
17
17
17
18
18
18
17
18
17
16
15
14
13
13
13
14
16
18
19
20
20
22
23
24
24
24
24
23
23
24
24
23
23
23
21
15
6
-7
-23
-40
-58
-74
-81
-83
-77
-63
-43
-24
-11
-3
2
7
8
10
11
13
16
18
21
23
25
26
28
28
30
30
31
31
32
33
32
33
33
33
33
33
34
34
35
34
34
33
34
34
35
35
36
36
36
37
37
38
38
38
38
38
38
38
40
39
39
38
38
37
37
37
36
36
36
36
35
34
32
31
31
31
30
30
29
29
28
28
27
28
29
29
29
29
30
30
29
29
30
31
31
31
31
32
31
31
31
32
32
33
33
33
33
33
34
34
35
35
35
35
35
35
36
36
36
36
36
37
36
36
36
35
36
36
35
35
36
36
36
36
35
35
34
34
34
34
35
33
32
31
31
29
28
28
27
27
27
27
29
30
30
31
32
33
32
31
30
30
29
29
29
29
28
27
25
24
22
15
4
-9
-26
-46
-66
-78
-84
-82
-70
-53
-31
-14
-3
4
10
14
17
18
20
22
26
30
33
35
37
39
39
40
41
43
44
45
46
45
46
46
46
46
47
46
46
46
46
47
47
47
47
48
49
49
49
50
51
50
51
51
51
51
51
51
51
51
51
51
51
50
51
50
50
49
49
48
47
47
46
45
43
43
42
40
39
39
40
39
39
38
40
40
40
39
38
38
39
42
44
46
45
44
43
43
43
42
42
41
40
38
37
36
36
36
36
36
35
35
34
34
33
33
33
32
32
31
31
31
31
31
30
28
21
8
-6
-23
-40
-57
-70
-74
-75
-66
-50
-30
-13
0
8
14
18
19
20
22
25
27
31
33
36
37
39
39
40
41
42
44
44
45
44
45
44
46
47
47
48
48
49
48
49
49
50
50
51
52
52
53
52
52
52
52
52
52
52
52
52
51
50
49
49
50
48
47
45
44
44
43
44
41
40
38
37
36
35
34
33
32
31
31
29
28
28
27
27
26
26
25
24
23
22
23
23
23
23
22
21
21
20
20
20
21
21
20
19
19
19
19
19
19
19
19
19
19
18
17
17
17
18
19
19
18
18
18
18
18
18
18
18
18
18
18
19
18
18
17
18
18
18
18
18
19
19
19
19
19
19
19
20
20
20
19
19
18
18
18
19
19
18
18
18
17
15
15
14
14
15
15
16
18
20
20
22
23
24
24
23
22
23
23
23
21
21
20
19
18
17
14
8
-3
-18
-35
-54
-71
-81
-86
-82
-72
-52
-31
-17
-9
-3
0
4
5
6
8
10
13
16
19
20
21
21
22
23
24
26
26
26
27
28
29
28
29
29
30
29
29
29
29
29
30
31
31
32
31
32
31
31
32
32
32
31
32
32
32
33
33
33
32
32
31
31
31
30
30
29
29
29
29
27
26
25
24
23
23
22
21
21
21
20
20
19
18
18
19
19
20
19
19
19
19
20
20
21
21
21
22
22
22
21
22
23
23
23
24
25
25
25
24
25
25
25
25
25
26
26
26
25
25
25
25
24
24
25
24
24
24
24
23
23
23
23
23
23
22
22
22
22
22
22
21
21
21
20
19
18
17
16
14
14
14
13
12
13
13
14
16
17
17
18
18
17
16
15
14
14
14
13
13
12
11
11
8
3
-7
-22
-39
-59
-76
-90
-96
-96
-91
-76
-58
-39
-25
-16
-9
-4
-2
0
1
3
6
10
13
16
18
20
22
23
24
25
27
27
28
28
29
29
29
29
29
30
30
29
30
29
30
29
30
29
30
30
30
30
31
31
31
32
32
32
32
31
31
31
31
31
30
30
29
29
28
28
27
27
26
25
25
24
23
22
22
21
20
19
18
18
17
19
19
19
18
18
18
18
21
23
25
24
24
24
23
23
22
22
21
21
19
19
19
19
19
19
18
18
18
18
17
17
17
16
16
17
17
17
17
17
16
16
16
16
15
9
-2
-16
-30
-47
-63
-75
-79
-78
-68
-52
-33
-17
-6
0
3
5
6
9
11
14
17
20
22
24
25
27
29
30
31
32
33
33
33
34
36
37
37
38
37
38
38
39
40
40
41
40
40
40
42
42
43
43
44
43
42
42
42
43
42
42
42
41
41
39
39
39
39
37
36
35
33
33
32
31
31
29
28
26
25
24
24
24
23
23
22
21
20
19
18
19
18
18
17
17
17
16
15
15
15
14
14
14
14
13
13
13
13
12
12
13
13
12
12
12
12
12
13
13
12
12
12
12
12
13
12
12
12
13
13
13
13
13
14
14
14
13
13
13
14
15
15
15
15
15
16
16
17
17
17
16
16
16
16
16
16
16
17
17
17
17
18
18
18
16
16
17
16
15
15
15
15
15
16
18
20
22
22
23
24
25
25
23
23
22
23
23
23
23
22
21
20
19
14
5
-6
-21
-38
-57
-75
-84
-88
-83
-70
-49
-28
-14
-5
0
3
6
7
9
11
13
17
19
21
22
24
25
25
25
26
27
27
28
28
29
30
30
31
31
31
31
32
32
32
33
33
34
34
35
36
36
37
36
37
36
36
36
37
38
38
38
37
37
36
37
36
35
35
35
35
34
33
32
32
32
31
30
28
27
26
26
26
25
25
25
25
24
23
23
23
23
23
24
24
24
24
25
25
25
25
25
26
26
27
27
28
28
29
29
29
30
30
31
31
31
31
30
29
28
29
29
30
29
29
28
28
29
28
29
28
28
28
29
29
28
28
27
28
27
28
28
28
27
27
27
27
27
26
27
26
25
25
24
23
21
20
19
19
17
17
19
20
21
22
23
23
23
23
23
22
21
21
21
20
19
19
19
18
17
14
7
-4
-20
-37
-54
-72
-84
-91
-88
-80
-62
-40
-23
-12
-5
0
4
6
8
11
14
18
21
25
27
28
29
31
32
33
35
36
37
37
38
39
39
39
39
39
38
39
38
39
39
39
38
38
38
38
38
38
39
38
37
36
36
37
37
37
37
37
36
35
35
34
34
34
33
32
31
31
31
30
30
29
28
27
27
26
26
24
24
24
24
25
25
26
25
24
23
24
25
28
30
30
30
29
29
28
28
27
26
26
25
25
23
23
23
23
22
21
21
21
21
20
20
20
21
20
20
20
20
20
20
21
20
19
18
15
8
-2
-15
-31
-48
-65
-74
-77
-74
-63
-46
-28
-13
-4
1
4
7
8
10
12
16
19
21
24
25
27
27
28
28
30
31
32
32
32
33
33
34
34
35
36
36
37
37
38
38
39
38
39
39
39
40
41
41
40
41
41
41
41
40
41
40
40
40
39
38
38
38
37
36
35
35
33
33
31
29
28
28
27
26
25
24
23
22
22
22
21
21
20
20
19
19
19
18
17
16
16
15
15
14
14
14
12
12
12
11
11
11
11
10
9
9
9
9
9
9
8
8
8
9
8
8
9
9
8
8
8
7
8
8
9
8
8
7
8
8
8
9
9
9
8
8
9
9
9
9
10
10
10
9
10
11
11
11
11
11
10
10
11
11
11
11
11
12
13
14
14
14
13
13
13
12
11
10
11
11
11
12
14
15
16
16
17
18
18
18
17
17
17
17
17
16
15
14
14
13
10
4
-8
-24
-42
-62
-80
-94
-98
-99
-89
-72
-50
-30
-18
-11
-7
-3
0
1
3
5
8
12
15
17
18
19
20
20
21
21
22
23
24
24
24
24
25
25
24
25
25
26
26
27
28
27
28
28
29
29
29
30
29
30
30
31
30
31
31
31
32
31
31
30
30
29
29
29
27
27
26
26
25
25
24
23
22
21
20
19
18
17
17
16
16
16
15
16
16
16
16
16
16
16
16
17
18
18
18
19
19
18
18
20
20
21
22
22
22
22
22
23
23
23
23
23
23
23
23
23
22
22
22
22
22
20
20
19
19
19
19
19
19
19
19
19
18
18
18
18
17
17
17
16
16
15
15
15
16
16
15
14
13
13
11
10
10
10
9
8
8
10
11
12
12
13
13
14
14
13
12
12
11
11
11
11
10
10
9
7
2
-6
-20
-35
-53
-74
-90
-99
-98
-92
-76
-56
-37
-23
-14
-8
-3
0
2
4
7
11
14
17
19
21
22
23
24
25
26
27
28
29
30
31
32
33
33
33
32
33
32
33
33
33
33
32
32
33
33
33
33
33
33
33
33
33
33
33
33
32
31
31
31
31
30
29
29
29
29
28
27
27
26
25
24
24
23
22
21
19
18
18
17
17
17
18
19
20
19
18
18
19
22
24
25
24
24
24
24
22
21
21
20
19
19
18
17
17
16
16
16
15
14
14
15
14
14
14
14
14
13
14
14
15
15
14
13
12
10
6
-1
-14
-30
-46
-65
-81
-90
-92
-86
-74
-54
-36
-22
-14
-9
-4
0
1
2
4
8
11
14
17
18
19
20
20
21
21
23
23
24
24
26
26
27
27
27
27
27
28
28
29
29
30
31
31
32
31
32
32
33
33
33
33
34
34
34
35
34
34
33
33
33
32
31
30
30
28
28
27
26
25
25
23
21
20
19
19
18
17
16
15
15
14
14
14
13
13
12
12
11
11
10
10
10
9
9
8
7
6
6
5
4
4
3
3
2
2
2
2
2
1
1
1
1
1
1
1
0
0
0
0
0
0
0
0
0
0
0
0
0
0
0
1
1
1
1
1
1
0
0
0
1
1
1
1
1
1
2
2
1
1
1
1
1
2
2
2
2
2
2
2
2
3
4
5
5
5
5
4
3
2
2
2
2
2
4
6
8
7
8
8
8
8
8
8
7
7
6
6
5
5
4
3
2
-3
-13
-29
-47
-65
-85
-99
-107
-107
-100
-86
-64
-47
-33
-24
-17
-13
-11
-9
-7
-3
0
3
6
8
10
12
14
15
16
17
18
19
20
21
22
22
22
22
22
23
24
25
25
25
25
26
26
26
26
26
27
27
28
28
28
28
29
30
29
30
29
29
28
28
27
27
27
26
27
26
26
25
24
23
22
22
20
20
18
18
16
15
14
13
12
11
11
11
10
9
8
8
7
8
8
8
9
9
9
9
9
9
11
12
13
12
12
12
12
13
13
13
13
13
13
12
12
11
11
10
10
10
10
10
10
10
9
9
9
9
9
9
9
8
8
8
8
7
8
8
7
7
7
7
7
7
7
7
7
6
6
6
7
6
5
4
3
2
1
0
0
0
0
0
0
2
3
3
4
5
6
5
5
5
5
4
4
3
3
2
2
1
0
-5
-15
-27
-44
-62
-82
-97
-104
-105
-97
-83
-62
-43
-29
-22
-16
-11
-8
-6
-4
-2
0
4
7
9
10
10
11
11
11
13
14
15
15
16
17
16
17
17
18
18
18
19
19
20
20
21
21
21
22
23
24
24
24
24
24
25
25
26
26
27
27
27
26
27
27
27
26
26
26
25
24
24
24
24
23
22
20
19
19
19
18
17
17
16
16
15
15
16
16
16
15
16
16
16
16
17
17
17
18
17
17
17
18
18
18
18
18
18
19
19
18
18
17
18
19
20
21
21
22
22
23
22
23
22
22
22
21
22
22
21
21
21
21
20
20
20
20
19
19
20
20
19
18
18
18
17
17
16
16
16
17
16
16
15
14
13
12
10
8
8
6
6
6
8
11
11
11
11
12
12
12
11
10
9
8
8
7
7
6
6
6
4
-1
-12
-27
-44
-63
-81
-99
-105
-105
-98
-82
-62
-41
-28
-20
-14
-9
-6
-4
-2
1
5
9
13
15
16
18
20
22
22
22
24
25
26
27
27
28
28
28
28
28
27
27
28
28
29
28
28
28
28
29
28
29
30
30
31
31
32
31
31
31
32
31
32
32
32
32
31
31
30
30
29
30
28
27
26
25
24
24
24
23
23
23
23
23
22
22
22
23
25
27
28
28
27
27
27
27
27
25
25
25
24
24
24
24
24
24
24
24
24
24
23
23
22
22
21
22
21
22
22
22
22
22
22
22
22
21
20
15
4
-8
-24
-41
-59
-73
-77
-77
-68
-55
-36
-19
-7
0
3
7
10
12
14
16
20
24
26
27
28
29
30
31
32
33
34
34
36
37
38
39
39
39
40
41
42
43
43
43
44
45
45
45
47
47
48
48
48
49
49
50
50
50
49
48
49
48
49
47
48
46
47
46
45
44
42
43
41
41
39
39
38
38
38
37
37
35
34
33
33
33
33
33
33
33
32
31
30
30
30
29
29
28
28
27
27
26
26
25
25
25
25
25
25
24
23
23
24
24
25
25
25
25
25
25
24
24
25
25
25
25
25
25
25
26
26
25
25
25
25
26
26
28
27
28
28
28
29
29
29
29
30
29
30
30
32
31
31
31
31
31
31
31
30
31
32
32
32
32
33
33
33
33
33
32
31
31
31
32
31
32
33
36
37
38
39
39
40
40
40
40
40
40
39
39
38
38
37
37
34
29
20
7
-7
-26
-46
-62
-69
-70
-64
-49
-28
-9
4
12
18
23
26
27
29
31
34
37
40
42
42
43
43
45
44
45
45
46
47
46
47
47
48
48
49
49
49
49
49
49
49
49
49
50
50
51
51
51
52
52
52
53
53
53
53
53
53
55
55
55
54
53
53
53
53
52
52
51
50
50
50
50
49
48
46
46
46
45
44
42
41
41
41
41
41
40
40
41
40
40
40
41
41
42
43
42
42
42
43
42
43
42
43
44
44
45
45
45
45
46
45
44
44
44
44
44
44
44
44
44
43
42
42
43
42
42
42
42
41
40
40
39
39
38
38
38
38
37
36
37
36
35
34
34
34
33
34
33
33
31
30
29
28
27
25
24
23
23
23
25
25
26
26
26
27
26
26
25
24
24
23
22
22
22
21
20
18
14
6
-7
-22
-39
-59
-75
-87
-88
-85
-72
-52
-33
-18
-9
-2
2
4
6
8
10
13
17
20
22
23
24
26
27
28
29
30
31
31
32
32
33
33
33
35
35
36
35
34
34
33
35
35
35
35
34
35
33
33
32
33
33
34
33
32
32
31
30
29
29
28
28
28
27
26
25
25
25
24
22
21
20
19
17
16
15
14
13
12
11
11
10
8
7
7
8
7
7
7
6
6
6
8
11
13
13
11
9
8
6
4
3
3
2
2
2
1
0
-1
-2
-3
-3
-3
-3
-3
-5
-7
-7
-7
-7
-8
-8
-10
-11
-12
-15
-22
-35
-51
-72
-92
-112
-128
-132
-133
-125
-111
-90
-70
-57
-47
-42
-37
-35
-33
-32
-30
-26
-23
-20
-20
-18
-16
-16
-15
-14
-13
-13
-13
-13
-12
-12
-11
-12
-12
-11
-11
-11
-10
-9
-9
-9
-9
-8
-8
-9
-9
-9
-9
-8
-8
-9
-10
-10
-9
-8
-11
-12
-13
-13
-13
-14
-16
-16
-16
-18
-20
-22
-25
-27
-29
-29
-31
-31
-33
-35
-37
-39
-38
-40
-40
-42
-42
-44
-45
-45
-46
-46
-47
-47
-48
-49
-49
-51
-51
-53
-53
-54
-53
-54
-56
-58
-59
-59
-59
-59
-61
-63
-64
-64
-64
-64
-64
-65
-65
-66
-66
-65
-66
-67
-70
-70
-70
-68
-67
-67
-68
-70
-70
-70
-69
-69
-69
-70
-71
-70
-70
-69
-71
-71
-71
-69
-67
-68
-69
-70
-70
-70
-69
-69
-70
-69
-69
-67
-69
-70
-72
-71
-71
-70
-70
-71
-69
-69
-66
-65
-65
-66
-67
-65
-67
-68
-70
-71
-71
-73
-73
-71
-68
-67
-64
-63
-64
-64
-65
-65
-66
-65
-65
-64
-66
-68
-69
-69
-69
-71
-74
-83
-96
-115
-137
-156
-173
-177
-179
-173
-161
-142
-122
-108
-96
-88
-79
-76
-75
-77
-77
-73
-68
-62
-59
-55
-54
-52
-52
-50
-46
-44
-45
-47
-46
-44
-42
-41
-40
-39
-39
-39
-40
-41
-39
-34
-32
-32
-34
-36
-33
-30
-28
-28
-29
-29
-28
-27
-28
-27
-25
-24
-24
-25
-26
-26
-25
-25
-26
-27
-27
-25
-23
-24
-27
-29
-30
-32
-34
-37
-39
-39
-36
-35
-34
-37
-41
-44
-45
-43
-42
-40
-41
-42
-43
-42
-41
-41
-40
-39
-36
-33
-32
-34
-35
-34
-32
-30
-31
-32
-33
-31
-29
-28
-27
-28
-29
-31
-30
-27
-26
-25
-26
-27
-27
-25
-24
-22
-21
-24
-27
-29
-28
-27
-25
-21
-21
-22
-24
-24
-26
-26
-25
-23
-22
-23
-24
-24
-23
-23
-20
-18
-17
-21
-26
-30
-30
-26
-23
-23
-24
-25
-27
-27
-25
-24
-23
-22
-19
-18
-19
-20
-19
-17
-16
-17
-19
-19
-19
-17
-18
-21
-26
-36
-51
-70
-91
-112
-123
-126
-126
-118
-105
-85
-67
-52
-42
-32
-25
-23
-21
-19
-14
-9
-4
-1
1
2
5
8
12
16
18
18
17
18
18
21
23
25
26
27
30
32
32
31
34
35
35
36
37
39
39
40
39
40
41
39
39
41
46
47
46
44
43
44
44
44
45
48
46
44
39
37
38
40
41
40
37
34
33
31
30
28
27
28
26
25
25
24
25
25
24
24
24
24
24
22
22
23
25
28
30
29
26
26
28
29
29
28
28
28
29
29
29
29
29
30
30
29
31
33
35
35
34
33
35
34
34
33
35
36
37
37
36
35
34
36
38
38
36
35
36
37
39
40
39
37
36
36
37
36
36
38
37
37
35
34
34
32
31
29
30
30
30
31
33
35
36
37
37
36
36
37
37
37
37
34
33
33
32
31
31
31
22
7
-9
-30
-51
-71
-82
-85
-84
-72
-53
-29
-11
-1
4
10
15
18
20
24
25
28
32
36
39
41
44
45
47
49
51
52
52
53
53
55
55
55
54
55
56
56
57
57
59
59
60
59
60
60
60
61
62
64
65
66
66
66
65
64
64
64
64
64
64
63
62
64
63
62
59
57
57
57
57
55
55
52
53
52
50
49
48
49
49
49
47
48
49
48
48
47
47
47
47
46
47
47
46
46
46
48
48
48
46
46
46
46
47
46
45
43
44
44
45
45
45
45
45
45
45
45
45
45
46
46
47
47
47
46
45
45
45
46
45
45
44
43
42
42
43
42
43
43
43
42
40
39
38
39
38
37
36
35
33
32
31
31
32
33
34
35
35
35
35
35
34
33
33
33
32
31
30
29
29
28
29
28
26
20
9
-6
-24
-44
-64
-80
-86
-89
-82
-67
-44
-22
-7
3
11
14
14
14
16
20
25
29
32
35
38
41
44
47
48
47
48
47
47
48
49
51
51
52
51
52
52
53
53
53
55
54
55
54
55
55
57
59
59
60
58
58
57
59
60
60
60
59
59
59
60
59
59
58
58
57
56
56
55
55
53
53
52
51
50
49
50
49
50
49
48
46
45
46
46
49
50
51
51
51
52
52
52
51
49
48
47
47
46
47
46
45
44
44
44
44
45
43
44
44
44
44
43
43
43
44
42
41
39
40
39
37
31
18
4
-11
-29
-45
-57
-60
-58
-49
-33
-16
-1
9
17
22
25
27
28
31
34
38
42
44
47
49
49
50
51
52
53
55
55
55
55
55
58
58
59
59
60
61
62
63
63
63
62
64
65
66
66
67
69
67
67
66
66
66
67
67
66
65
63
64
64
64
64
63
63
62
63
61
60
57
56
56
55
53
52
52
52
54
53
52
51
48
46
44
44
43
44
43
43
43
42
42
41
41
41
40
40
39
39
40
40
40
39
38
37
37
37
38
38
38
38
38
37
37
38
38
38
38
38
37
36
35
34
36
36
37
37
37
37
37
37
37
38
38
38
38
38
38
38
38
36
35
34
35
35
36
36
36
36
36
36
37
39
41
42
42
41
39
36
35
33
33
32
32
31
30
32
33
33
33
34
37
39
41
43
44
43
41
38
37
38
39
38
36
35
35
35
34
31
26
17
5
-10
-29
-49
-68
-78
-83
-82
-70
-50
-28
-11
-1
6
12
16
19
22
25
26
27
29
32
37
42
44
42
40
38
38
40
44
47
50
51
51
51
51
52
51
50
49
48
48
49
52
55
58
57
54
52
52
53
54
54
55
56
57
54
53
53
54
55
56
57
58
59
56
54
51
50
50
49
49
46
44
42
41
40
39
38
34
32
30
30
28
27
26
25
25
25
25
24
23
22
23
24
25
25
25
26
25
22
20
21
22
24
25
26
27
27
25
24
25
26
27
28
27
24
22
20
21
22
22
23
24
24
21
19
18
17
16
17
16
14
14
15
16
17
17
16
15
16
19
18
14
10
7
8
9
9
9
9
8
4
1
0
0
0
1
3
4
5
7
8
5
2
2
3
1
0
-1
-1
-1
-2
-2
-2
-2
-3
-7
-14
-26
-41
-57
-76
-93
-105
-108
-105
-92
-73
-54
-40
-33
-27
-23
-20
-18
-17
-15
-13
-9
-7
-4
-2
-1
0
0
0
2
3
4
5
5
6
6
7
8
8
7
7
7
8
8
9
9
9
10
10
11
11
11
11
11
12
12
12
12
12
12
13
12
11
11
11
11
11
10
10
9
9
8
8
7
6
5
4
3
2
2
1
0
0
-1
-2
-2
-1
-2
-2
-2
-3
-3
-3
-3
-3
-3
-4
-3
-3
-3
-3
-3
-3
-3
-3
-3
-4
-4
-4
-4
-5
-5
-5
-5
-5
-6
-6
-6
-6
-5
-4
-4
-4
-5
-5
-4
-5
-4
-4
-4
-5
-6
-6
-6
-6
-6
-7
-8
-8
-8
-9
-10
-10
-9
-9
-9
-10
-11
-12
-12
-12
-12
-13
-14
-16
-17
-19
-19
-19
-19
-18
-17
-17
-17
-16
-16
-16
-17
-18
-19
-19
-19
-19
-19
-20
-21
-22
-22
-20
-23
-30
-44
-59
-79
-102
-124
-141
-142
-140
-126
-105
-83
-69
-60
-51
-45
-39
-36
-32
-30
-28
-25
-22
-18
-15
-13
-12
-10
-9
-7
-5
-4
-3
-2
-1
0
0
0
-1
-2
-3
-2
-1
0
1
1
1
1
2
2
2
2
3
4
5
4
4
3
3
4
6
7
6
7
8
8
7
6
4
4
4
5
5
3
1
0
0
0
-1
-2
-4
-4
-4
-4
-4
-6
-8
-9
-7
-5
-2
-1
0
-1
-2
-2
-3
-4
-5
-5
-5
-6
-8
-8
-8
-8
-8
-8
-8
-9
-10
-10
-10
-10
-10
-11
-11
-12
-11
-10
-12
-14
-14
-12
-13
-18
-28
-42
-57
-75
-92
-107
-113
-116
-109
-95
-74
-55
-40
-33
-28
-24
-21
-19
-18
-14
-10
-6
-4
-3
0
1
1
2
4
5
7
9
9
10
10
11
12
14
16
15
15
16
18
19
19
19
20
20
21
21
22
23
25
26
25
25
25
26
26
26
25
25
24
24
24
24
23
23
22
21
21
21
20
18
16
15
15
14
14
13
13
12
12
12
10
10
10
10
8
7
7
7
6
6
6
5
5
5
4
4
3
4
4
4
4
4
3
3
4
4
4
4
4
4
3
4
4
4
4
3
3
4
4
5
6
6
6
6
6
7
7
6
5
4
4
5
6
7
7
7
7
8
9
10
9
9
9
9
9
10
9
9
9
9
10
10
10
9
9
10
10
10
10
10
11
10
9
9
9
9
7
7
7
8
7
8
11
13
15
16
18
18
18
18
19
18
18
18
17
17
16
16
15
12
7
-2
-18
-36
-55
-75
-91
-98
-97
-89
-72
-50
-31
-18
-10
-5
-1
1
3
4
5
7
9
12
15
16
18
20
20
20
21
22
24
24
25
25
26
27
28
27
27
28
28
29
27
28
28
30
30
30
31
33
34
34
35
34
35
35
35
35
35
36
36
37
36
36
36
37
37
36
35
33
34
34
33
32
31
30
29
28
27
26
26
25
22
20
20
21
21
22
21
21
20
19
19
19
19
19
20
19
19
18
19
20
20
20
20
21
21
22
22
22
22
22
22
22
22
21
21
20
19
18
18
19
20
21
20
17
15
14
14
15
16
16
16
16
16
15
14
13
12
12
12
12
12
11
10
10
10
9
9
9
8
7
5
3
2
1
0
0
1
3
3
4
4
4
4
3
3
2
2
2
2
1
0
0
0
0
-4
-13
-25
-41
-59
-78
-96
-105
-110
-105
-94
-74
-54
-37
-27
-21
-16
-12
-10
-9
-7
-2
2
5
8
10
12
13
14
15
16
18
19
20
20
21
22
23
23
23
22
23
23
23
23
23
23
24
24
24
24
23
23
24
26
26
25
24
25
25
25
23
23
22
23
23
23
23
22
22
22
22
22
21
21
20
19
16
15
13
13
14
13
12
11
11
10
10
11
12
13
13
12
11
10
11
14
17
19
19
17
16
15
16
16
15
13
12
11
10
10
9
10
9
8
7
7
7
7
7
7
6
5
5
4
4
5
4
0
-9
-23
-40
-57
-77
-93
-103
-103
-97
-81
-60
-40
-27
-18
-12
-7
-4
-2
0
2
4
6
9
12
14
16
17
18
19
20
21
22
23
23
24
23
24
25
26
26
28
28
28
29
29
31
32
34
33
32
32
32
32
33
34
34
35
35
35
35
35
35
34
33
32
32
32
31
30
29
29
28
27
26
25
23
22
21
20
20
20
20
19
18
17
16
18
18
18
17
16
16
14
14
13
13
13
13
12
12
11
10
9
8
9
8
8
7
7
8
7
8
8
8
7
5
4
4
4
5
6
6
6
6
6
6
6
7
7
6
7
7
7
5
5
5
4
4
5
5
5
5
6
7
7
7
6
6
7
8
7
6
5
5
6
7
7
7
7
6
6
6
7
7
6
7
9
10
10
8
7
7
5
3
3
3
4
5
6
7
9
10
10
12
13
13
12
11
11
11
9
8
7
7
7
7
5
0
-11
-27
-45
-66
-87
-103
-111
-110
-104
-88
-68
-47
-32
-23
-16
-12
-11
-9
-7
-5
-1
3
6
8
10
11
12
13
14
14
15
17
17
17
17
17
18
19
19
20
20
20
19
19
19
20
19
20
20
21
20
21
21
22
22
22
23
23
24
23
24
25
23
22
21
21
21
21
20
19
18
18
19
19
18
15
14
13
13
13
13
12
10
10
9
8
8
8
8
8
9
9
8
7
7
8
8
10
10
10
10
9
8
9
11
11
12
12
13
13
12
12
11
12
11
11
11
10
10
10
11
11
10
9
8
8
7
7
6
6
5
5
5
5
5
4
4
3
3
3
3
3
4
4
3
1
0
0
-1
-1
0
0
-1
-2
-2
-2
-4
-5
-7
-7
-7
-7
-6
-6
-5
-4
-4
-4
-4
-4
-4
-4
-4
-5
-6
-7
-7
-9
-10
-10
-13
-20
-30
-45
-60
-80
-98
-110
-116
-112
-103
-82
-62
-46
-37
-31
-26
-22
-19
-17
-15
-12
-8
-4
-1
0
2
3
5
6
7
7
9
11
12
13
13
14
14
15
15
15
16
17
16
15
16
16
17
16
16
17
17
17
17
17
18
19
18
18
19
19
18
17
18
18
18
18
17
17
17
17
17
16
15
12
11
12
11
9
7
6
6
6
5
5
4
4
3
3
5
6
7
6
5
5
5
5
7
10
10
10
9
9
9
9
8
7
6
6
5
4
4
4
4
3
2
1
1
2
2
2
3
3
3
3
3
2
0
-3
-12
-26
-43
-62
-80
-97
-105
-107
-101
-88
-68
-46
-31
-23
-18
-14
-11
-9
-8
-5
-3
0
3
6
8
10
13
13
14
14
15
17
18
19
20
21
21
21
21
22
23
24
25
25
26
27
27
26
27
28
28
29
29
29
28
29
31
32
31
30
30
30
30
31
31
31
30
30
29
27
25
25
24
24
23
22
20
19
19
18
17
16
15
15
15
15
15
14
14
15
14
13
12
12
12
11
11
10
9
9
8
8
6
5
5
7
7
6
5
5
6
5
5
5
5
4
4
4
5
5
5
4
4
5
5
5
6
6
5
5
5
5
4
4
5
6
6
5
4
4
4
5
6
6
7
6
6
6
7
7
8
7
6
6
6
7
7
7
7
6
7
7
7
7
8
8
8
9
10
10
9
9
8
8
7
7
7
7
7
8
10
11
12
13
13
14
13
12
12
13
12
11
10
10
10
9
8
7
4
-1
-13
-27
-44
-63
-80
-90
-91
-89
-77
-59
-40
-26
-18
-12
-8
-3
-1
0
0
1
4
8
12
14
15
15
17
18
20
21
22
23
23
24
24
25
25
26
26
26
26
27
27
26
26
27
28
29
30
29
29
30
30
31
31
33
33
34
34
34
34
32
32
31
32
31
31
31
31
30
29
28
26
26
24
23
23
22
21
20
19
17
15
13
12
11
11
11
11
11
11
11
11
12
12
13
13
11
11
11
12
13
14
14
15
15
15
16
16
15
15
15
15
16
16
15
15
14
15
15
13
13
13
15
15
15
13
12
13
13
14
12
12
12
12
12
12
12
11
11
10
10
10
10
10
10
10
10
10
10
10
9
8
7
7
6
5
3
3
2
3
4
5
5
6
7
7
7
6
6
6
6
5
5
5
5
4
3
0
-3
-10
-22
-38
-57
-76
-94
-104
-108
-101
-89
-67
-46
-29
-21
-16
-13
-10
-9
-7
-5
-2
0
4
7
8
9
11
13
14
15
15
16
17
17
18
19
20
21
22
23
24
25
25
24
23
24
25
25
25
26
28
29
29
28
29
30
31
31
30
30
29
29
29
30
31
31
30
28
27
27
27
27
26
26
26
25
24
22
21
20
20
17
17
17
16
16
15
15
15
15
15
15
14
13
14
15
16
15
15
16
16
17
17
16
15
15
15
16
16
15
15
15
15
16
16
15
14
14
15
15
15
14
14
15
16
17
16
17
17
17
16
16
16
16
17
17
17
17
16
16
14
14
14
14
15
15
15
14
13
12
13
13
13
12
9
7
5
5
4
5
5
6
7
8
8
9
9
9
9
8
8
9
8
7
6
5
5
6
4
-1
-11
-24
-39
-55
-72
-84
-91
-90
-82
-68
-49
-33
-21
-15
-9
-5
-4
-4
-2
0
4
8
11
13
14
16
18
20
20
21
22
24
25
24
24
23
24
24
24
24
24
24
25
25
25
24
25
25
25
25
25
24
25
25
26
27
28
28
27
27
27
27
27
27
27
26
25
25
25
24
24
24
23
22
21
20
19
20
19
19
19
19
20
20
18
16
15
15
17
20
22
21
20
19
18
19
19
19
19
18
17
17
18
17
15
13
13
13
13
14
13
13
12
12
11
11
11
10
11
11
10
10
10
9
4
-4
-15
-29
-42
-60
-73
-82
-83
-76
-63
-44
-27
-16
-8
-2
0
2
3
4
6
8
11
12
14
16
18
20
21
21
22
23
25
26
25
25
25
26
27
28
28
29
30
31
31
30
31
32
33
33
33
34
34
35
35
34
35
35
36
36
37
36
36
36
35
34
33
34
32
32
31
30
30
28
27
25
24
23
23
22
22
21
21
21
20
19
18
18
18
18
17
17
16
15
15
15
16
15
14
13
13
13
12
11
10
9
9
8
8
7
7
7
7
7
6
5
6
6
5
4
4
5
5
5
4
4
5
4
4
4
3
3
3
3
3
3
3
2
3
3
3
3
4
4
4
4
3
2
1
2
2
2
3
2
2
1
1
1
2
2
3
3
2
1
0
1
1
1
3
3
3
3
3
2
0
0
-1
-2
-2
-1
0
1
3
4
5
5
6
5
5
4
3
3
3
3
3
2
2
2
0
-5
-15
-29
-44
-62
-81
-96
-105
-106
-102
-91
-73
-54
-40
-29
-22
-17
-15
-15
-14
-12
-8
-4
-1
1
4
5
7
8
9
9
10
11
12
12
11
11
11
13
13
12
11
11
13
13
13
13
14
14
15
15
15
14
14
15
16
17
16
15
16
17
18
18
18
17
17
18
18
19
19
18
16
16
15
14
15
16
16
13
11
11
11
12
11
10
9
9
8
7
7
9
10
9
7
6
6
5
5
6
8
10
10
10
10
12
14
14
13
13
14
15
17
16
18
20
21
15
9
9
13
17
16
12
10
9
10
11
13
14
13
11
10
10
11
11
10
9
9
10
11
11
11
11
12
11
9
7
6
6
6
6
6
6
6
6
7
8
8
7
4
1
1
3
5
3
-1
-4
-3
-1
0
2
3
4
4
5
4
4
6
9
9
3
-2
-2
-1
0
-1
-4
-13
-26
-40
-57
-73
-86
-90
-88
-82
-67
-49
-30
-14
-5
-4
-9
-12
-8
-3
0
2
5
8
10
13
15
17
18
19
20
23
25
27
28
27
26
24
24
26
27
29
29
29
28
28
28
29
31
31
31
29
27
28
29
30
30
30
30
31
30
29
28
28
29
29
29
29
29
28
28
28
28
28
26
23
21
21
21
21
20
20
20
19
18
17
17
16
16
17
18
19
18
18
18
18
19
21
22
23
23
23
25
25
23
22
20
19
17
16
16
16
15
15
15
15
16
15
15
15
15
15
16
16
14
13
12
11
10
6
-1
-15
-29
-46
-66
-82
-93
-92
-85
-70
-49
-32
-20
-13
-8
-4
-1
0
0
1
3
7
10
12
14
16
17
18
19
20
20
22
22
23
23
24
25
25
26
27
27
27
27
28
28
29
29
30
30
31
31
31
33
33
34
33
33
32
32
33
33
33
33
32
31
31
30
31
31
30
29
27
25
25
24
24
22
21
18
17
16
16
16
16
15
16
15
15
14
14
15
15
14
14
14
13
12
12
12
12
11
10
10
9
8
7
7
6
6
5
6
6
6
5
5
5
4
4
4
4
4
3
3
2
1
1
1
2
2
3
2
1
1
2
3
2
1
0
1
1
1
1
1
1
0
0
1
1
2
2
2
1
2
2
2
3
3
3
2
2
1
2
3
4
3
3
2
3
3
5
5
6
6
6
7
6
5
4
3
3
3
3
4
5
6
7
8
8
8
7
7
6
6
5
5
4
3
3
2
1
0
-4
-14
-27
-43
-59
-76
-89
-97
-97
-92
-80
-60
-42
-28
-20
-15
-13
-11
-9
-7
-5
-3
0
3
5
6
7
8
9
10
12
12
13
13
13
13
14
15
16
17
17
16
17
17
17
18
19
19
19
19
19
20
20
21
21
22
22
22
21
21
22
22
23
23
23
22
22
22
22
21
21
20
20
19
19
18
18
17
16
15
15
14
14
14
12
12
12
12
11
11
11
11
11
11
12
12
12
13
13
14
14
15
15
16
16
16
17
17
17
17
17
17
17
17
16
16
15
15
15
15
15
14
14
14
14
14
13
12
12
12
13
13
13
13
12
12
11
12
13
12
12
11
11
11
11
10
10
9
9
9
9
9
8
8
8
8
7
7
7
5
3
2
2
1
0
1
2
3
3
4
5
6
6
6
6
5
5
5
5
4
4
3
3
2
-1
-8
-20
-35
-51
-71
-87
-98
-101
-96
-85
-64
-44
-28
-19
-13
-9
-6
-3
-1
0
3
6
10
12
14
16
17
19
21
22
23
24
26
26
28
28
29
29
30
31
31
32
31
32
32
33
33
34
35
33
34
33
34
35
36
36
35
35
35
35
35
35
36
36
35
34
34
33
32
30
30
29
28
27
26
26
25
24
23
23
22
21
20
19
19
17
17
16
16
17
18
18
17
16
16
17
19
21
23
23
23
20
19
19
19
19
18
17
15
14
14
14
15
14
14
13
13
13
13
13
13
13
13
13
12
11
10
9
6
0
-11
-27
-44
-62
-82
-93
-100
-97
-89
-73
-53
-36
-24
-17
-12
-9
-7
-6
-3
0
3
6
10
12
14
16
19
20
20
20
21
22
23
23
24
25
25
25
26
26
28
28
28
29
30
31
32
32
32
32
32
32
33
34
35
35
34
34
34
35
34
33
32
33
32
32
32
31
31
30
29
28
28
26
25
24
24
24
23
23
22
21
21
21
21
20
20
20
21
20
21
20
20
19
19
19
19
20
19
19
18
18
19
19
19
19
19
18
18
17
17
17
17
17
17
16
16
15
15
15
15
14
14
13
13
14
14
14
14
14
14
14
14
13
13
13
13
13
14
14
13
13
12
12
12
12
12
12
12
13
13
12
12
11
12
11
11
11
12
12
12
12
13
13
12
12
11
12
12
13
14
14
15
14
15
15
15
14
12
11
11
10
10
10
12
13
15
15
16
16
15
14
15
16
15
15
13
12
12
11
10
9
5
-4
-17
-31
-49
-66
-83
-92
-92
-88
-72
-51
-32
-19
-11
-6
-3
-1
0
0
2
4
7
9
12
14
15
17
17
18
19
20
21
22
22
23
24
24
25
25
25
26
26
26
26
27
27
27
27
28
28
28
29
30
31
31
31
32
32
33
33
33
33
33
33
33
33
32
32
32
31
31
30
29
29
29
28
27
25
24
23
22
22
21
20
19
19
19
19
19
19
18
18
18
18
18
18
19
20
20
21
22
23
23
23
23
23
23
22
22
22
22
22
21
21
21
21
22
21
20
19
18
17
17
17
17
18
17
16
17
18
21
24
26
25
19
11
3
-2
-8
-14
-20
-25
-27
-23
-15
-3
10
24
33
38
37
33
26
20
15
12
13
14
15
15
15
15
16
16
16
16
16
16
15
16
16
15
15
15
15
15
14
14
13
13
13
13
13
12
12
11
10
10
9
9
10
10
10
10
10
9
9
9
9
9
9
9
9
10
9
9
10
11
11
9
9
10
11
12
12
12
12
13
13
14
14
13
12
11
11
11
11
10
10
10
9
9
8
9
8
8
7
7
7
7
7
7
6
7
7
7
6
6
6
6
7
7
7
6
6
6
6
6
6
6
6
6
6
6
7
6
6
7
8
8
9
8
7
7
9
10
12
13
13
13
12
12
12
11
10
9
8
7
6
6
7
7
6
6
6
6
6
7
6
6
5
4
1
-6
-17
-32
-48
-67
-83
-91
-95
-89
-77
-57
-38
-24
-16
-10
-5
-3
-1
-1
1
4
8
11
14
16
18
20
21
22
24
25
26
27
28
29
29
30
30
30
31
32
33
34
35
35
35
35
35
36
36
37
37
37
37
37
38
38
38
38
38
38
38
38
37
36
36
36
35
34
34
33
32
31
31
29
29
27
26
25
25
24
23
23
21
20
20
19
19
18
18
18
18
17
17
17
16
16
15
15
13
12
13
13
12
11
10
9
9
8
8
8
7
6
5
6
6
5
5
5
5
5
5
5
5
4
4
4
3
3
2
3
3
2
2
2
2
2
2
2
3
2
2
1
0
0
0
0
0
0
0
0
0
0
0
0
0
0
0
0
0
0
0
0
0
-1
0
0
1
1
1
1
1
0
0
0
0
0
0
-1
-2
-3
-4
-5
-5
-3
-1
-1
-1
-1
0
1
0
1
1
1
0
0
0
-1
-1
-1
-1
-2
-3
-8
-16
-28
-44
-60
-80
-94
-104
-106
-101
-90
-69
-50
-35
-27
-21
-16
-13
-11
-10
-9
-6
-3
0
2
4
5
7
9
10
10
11
12
13
13
14
15
16
15
16
16
17
18
18
19
20
20
20
19
19
20
21
21
21
22
23
23
23
24
24
25
25
26
25
26
25
24
25
25
25
24
23
23
23
23
21
20
18
18
18
18
18
16
15
15
15
14
14
14
14
14
13
13
14
15
15
15
15
15
15
15
16
17
18
17
18
18
18
18
17
17
18
17
17
17
17
16
15
15
15
15
15
14
13
14
14
15
13
13
12
12
12
12
13
12
12
12
11
11
11
12
12
13
12
13
12
12
12
11
11
9
8
7
7
6
6
5
4
4
4
4
5
5
6
7
9
10
8
5
5
5
6
5
5
5
4
4
3
3
1
-4
-16
-29
-45
-61
-79
-91
-97
-94
-85
-68
-49
-33
-23
-15
-9
-5
-3
-3
-2
0
3
7
10
13
16
17
17
18
19
21
23
24
25
25
24
21
21
22
24
25
27
27
26
25
26
28
29
30
28
28
27
27
28
30
32
32
32
31
30
31
32
34
33
31
29
30
30
29
28
28
27
26
26
25
24
22
22
22
21
20
19
19
19
17
18
18
18
17
16
15
16
17
20
22
22
20
19
20
20
19
18
17
17
15
15
15
15
14
12
10
9
10
11
11
11
11
11
11
11
9
8
8
7
5
1
-6
-20
-37
-57
-78
-93
-101
-97
-91
-78
-61
-42
-27
-17
-10
-6
-4
-3
-2
0
4
8
12
15
16
18
21
22
23
25
26
27
27
27
28
30
32
33
35
34
33
33
32
32
33
36
37
38
38
40
41
42
42
40
40
40
41
41
42
41
40
39
38
38
39
40
39
37
35
33
32
31
31
29
29
27
24
22
20
19
18
17
17
17
16
15
14
12
11
10
11
12
12
11
11
11
12
12
11
9
8
8
9
9
8
7
7
6
6
7
7
8
7
6
6
6
6
5
6
5
5
5
5
5
5
5
5
6
5
5
5
6
6
5
5
5
5
6
6
5
5
6
7
7
7
7
7
8
7
7
7
8
9
11
11
11
10
8
7
8
8
8
7
7
6
3
2
2
4
5
6
7
8
8
8
9
9
9
9
10
10
9
9
8
8
8
8
6
4
-1
-12
-25
-41
-58
-76
-91
-97
-99
-92
-79
-58
-40
-27
-20
-14
-10
-9
-7
-6
-3
-1
1
4
7
8
9
10
11
12
13
14
15
16
16
17
17
18
18
19
19
19
19
20
21
21
22
22
22
24
24
24
25
25
26
26
26
26
27
27
27
28
28
28
28
28
28
28
28
27
27
27
27
25
26
24
24
23
22
22
21
20
20
19
18
17
17
16
16
15
15
14
14
15
15
15
15
15
15
15
16
16
17
17
17
17
18
17
18
18
19
19
19
19
20
20
20
20
20
20
19
19
19
18
18
18
18
17
18
18
18
18
18
18
18
18
18
18
19
19
20
19
18
16
15
15
15
14
13
12
10
9
7
8
9
10
10
11
12
12
11
11
11
11
10
9
9
9
8
7
6
6
5
4
0
-8
-22
-39
-60
-81
-97
-106
-107
-103
-88
-68
-45
-30
-20
-13
-8
-5
-3
-2
0
2
7
12
15
17
19
21
22
23
25
26
27
27
28
28
29
30
30
31
30
31
31
32
32
31
32
32
33
34
35
35
35
35
36
37
37
37
36
37
37
38
38
38
38
37
37
36
36
35
35
35
34
33
33
32
31
30
28
27
25
24
24
24
25
25
25
24
23
22
21
22
23
26
28
28
28
27
26
25
24
23
23
22
21
20
20
20
20
20
19
18
18
17
18
16
16
15
14
14
14
14
12
12
11
11
9
2
-9
-25
-41
-60
-76
-86
-90
-86
-78
-60
-41
-25
-15
-8
-3
0
2
3
5
8
11
15
18
20
22
23
24
25
26
27
28
30
31
31
32
32
33
34
34
34
35
36
36
36
36
37
38
39
38
39
38
39
39
39
39
39
40
39
39
38
38
39
38
38
37
36
35
35
35
33
33
31
30
28
27
26
25
24
22
21
19
18
17
16
16
16
15
14
13
12
12
12
11
10
10
11
11
11
10
10
10
9
9
8
8
8
8
7
7
7
7
7
6
6
7
6
6
6
6
7
6
5
5
5
5
5
4
4
4
5
5
5
5
4
4
5
5
4
4
4
4
4
4
5
5
4
4
5
5
5
5
5
5
5
5
6
7
8
8
7
6
5
5
5
5
5
4
3
1
1
1
3
4
5
5
5
6
8
9
9
8
7
6
6
6
6
6
5
5
3
2
0
-7
-19
-34
-53
-72
-93
-104
-111
-110
-102
-85
-62
-43
-30
-23
-17
-15
-13
-11
-9
-7
-4
0
3
5
7
8
9
11
12
14
15
17
18
18
18
19
20
21
22
23
24
23
22
21
22
23
25
26
26
25
25
26
26
27
28
29
28
28
28
27
27
27
27
26
26
25
24
23
22
21
21
19
19
18
17
16
15
14
13
12
11
10
9
8
7
6
6
6
6
5
2
2
2
3
3
2
2
3
3
4
4
4
4
4
6
6
6
6
7
7
8
9
9
9
9
8
8
7
7
7
7
7
8
8
8
7
7
7
6
6
6
7
6
5
5
6
7
8
8
7
6
3
2
2
2
2
1
0
-1
-3
-4
-4
-3
-2
-1
-1
-1
-1
-1
0
0
-1
-2
-3
-4
-4
-4
-3
-3
-4
-6
-7
-9
-15
-25
-40
-58
-76
-93
-106
-110
-111
-100
-85
-64
-47
-35
-27
-22
-18
-16
-14
-12
-9
-6
-2
0
2
4
5
6
8
10
11
12
13
15
16
16
17
18
19
20
21
21
20
20
21
22
22
23
22
23
24
25
24
25
26
26
26
26
26
25
25
24
23
23
23
23
21
21
21
20
19
18
18
18
17
15
15
15
14
12
10
9
8
8
8
8
7
7
6
6
6
6
5
5
6
6
7
6
7
7
8
7
7
6
6
6
6
6
6
6
5
5
5
6
6
6
5
5
5
5
6
5
6
6
6
5
5
5
6
6
6
7
8
8
9
10
11
11
11
12
12
11
10
10
10
10
9
8
7
7
5
3
2
3
4
5
5
5
5
5
6
6
5
5
4
4
4
3
2
1
1
1
1
0
-3
-10
-23
-38
-55
-75
-92
-104
-108
-107
-96
-77
-56
-38
-28
-22
-17
-13
-11
-10
-8
-5
-4
-1
1
4
6
8
10
12
13
13
15
16
16
16
18
20
20
20
20
22
23
24
24
25
25
25
25
25
26
27
27
28
28
29
28
28
27
27
27
27
27
27
26
24
23
23
22
22
22
21
20
19
17
17
16
15
14
13
12
11
10
8
6
6
5
5
5
5
4
4
4
3
3
4
5
4
5
4
4
4
5
5
5
5
5
5
5
5
5
5
5
4
4
5
5
5
4
4
3
3
3
3
4
4
5
5
5
5
6
6
6
7
8
9
9
9
9
7
6
5
5
5
4
3
2
0
-1
-1
-1
0
1
1
1
2
2
2
2
1
0
0
0
0
-1
-3
-3
-3
-3
-3
-5
-8
-17
-29
-45
-63
-81
-100
-110
-116
-115
-104
-86
-63
-47
-36
-30
-24
-20
-18
-16
-14
-11
-8
-5
-2
0
2
3
5
6
7
8
9
10
12
12
14
14
14
15
15
15
16
17
17
18
18
19
19
20
20
19
20
20
20
21
20
20
19
20
19
18
18
18
17
17
16
15
14
13
13
13
12
11
10
9
8
7
7
6
5
4
4
3
2
1
1
0
0
0
0
0
0
0
0
0
0
0
1
0
0
0
0
0
0
0
0
0
0
0
0
1
1
0
0
0
0
0
0
0
0
0
0
0
0
0
0
1
1
1
2
2
3
4
6
7
7
8
7
6
5
5
4
4
3
2
1
0
-1
-2
-2
-1
0
0
0
0
1
2
1
0
0
0
-1
-1
-1
-2
-3
-4
-4
-5
-6
-10
-19
-32
-47
-64
-83
-99
-107
-111
-107
-97
-76
-55
-40
-30
-24
-19
-15
-13
-12
-10
-7
-3
0
2
4
6
7
8
10
11
12
13
15
15
16
17
18
20
20
20
20
21
22
23
23
23
24
24
25
25
26
27
27
28
27
27
27
28
27
27
27
27
26
25
25
25
25
24
24
23
21
20
19
19
18
17
16
15
14
13
11
10
9
8
8
7
7
6
6
6
6
5
5
6
6
6
7
6
6
5
5
6
6
6
6
6
6
6
6
6
5
5
6
5
5
5
5
5
5
6
5
5
5
5
5
5
6
6
7
6
7
8
8
9
11
12
12
12
12
11
10
10
10
10
8
7
6
5
3
2
2
3
4
5
5
5
6
6
6
5
4
4
2
1
1
0
0
0
0
0
-1
-2
-8
-18
-32
-50
-69
-87
-103
-110
-113
-107
-95
-75
-54
-40
-30
-24
-19
-16
-14
-11
-9
-6
-2
0
3
5
7
8
9
10
12
13
14
16
16
17
17
18
18
19
19
20
21
21
21
21
22
22
22
22
23
24
24
24
24
24
24
24
24
24
23
22
22
21
20
18
17
18
17
17
16
15
14
13
13
11
9
9
7
7
6
5
4
3
2
1
1
1
1
1
1
0
1
0
1
1
1
2
1
1
1
2
2
2
3
2
3
3
3
2
3
3
3
2
2
1
1
1
2
2
2
2
2
2
1
1
2
2
3
4
4
4
5
6
7
8
9
10
10
8
7
7
7
6
5
4
3
1
0
-1
-1
0
1
2
2
2
3
2
2
1
1
1
0
0
0
0
-1
-1
-1
-2
-2
-5
-10
-19
-32
-46
-64
-81
-97
-103
-106
-100
-85
-65
-46
-33
-25
-20
-15
-13
-11
-9
-7
-3
-1
2
5
7
8
9
10
12
14
15
16
17
18
19
20
20
21
22
22
22
23
24
24
26
26
27
27
27
27
27
28
28
29
29
29
29
29
29
29
29
28
28
27
26
27
26
26
25
25
24
23
21
20
20
19
18
17
16
15
14
13
12
12
12
11
10
10
10
10
10
10
10
10
11
11
10
10
11
11
12
12
11
12
12
12
12
11
11
11
11
11
11
11
10
9
10
11
10
10
9
9
9
10
11
10
11
11
11
11
12
12
13
15
16
17
18
18
17
15
15
15
15
14
13
12
11
8
5
5
7
8
9
10
9
10
10
10
10
9
8
8
8
6
6
6
6
5
5
4
2
-2
-11
-24
-41
-59
-78
-93
-104
-105
-103
-91
-72
-51
-34
-24
-18
-13
-9
-7
-5
-2
1
5
8
11
14
16
17
19
20
22
23
25
25
26
27
28
29
29
30
31
31
31
32
33
33
34
34
35
34
35
35
36
36
35
35
35
36
35
34
34
33
33
32
32
31
31
29
29
28
27
26
26
26
25
24
23
22
21
20
19
18
17
16
16
15
15
15
14
14
13
13
13
13
13
13
13
13
13
14
14
14
14
15
14
15
14
14
14
14
14
14
15
14
15
14
14
14
14
14
14
14
13
14
13
13
14
15
15
15
15
16
17
18
19
20
20
20
20
19
18
19
19
19
17
16
15
14
12
12
13
13
13
13
14
14
14
14
13
12
12
12
12
12
12
11
10
10
9
9
8
4
-2
-16
-30
-47
-65
-83
-95
-98
-96
-83
-65
-44
-28
-18
-12
-8
-4
-2
-1
1
3
6
9
12
14
16
17
18
20
21
21
22
24
24
25
26
27
27
28
29
29
29
30
30
31
31
31
31
32
32
32
33
32
32
31
31
31
31
31
31
30
29
29
28
28
28
27
27
26
25
25
24
23
22
21
20
18
18
17
16
15
15
13
12
11
11
10
10
11
10
10
10
10
10
10
11
11
11
11
10
10
10
10
11
11
10
10
10
10
11
11
11
12
12
11
10
10
11
11
11
11
11
10
10
10
11
11
11
11
12
13
13
15
16
17
17
17
17
15
15
16
15
14
13
12
11
9
8
8
9
10
11
12
12
12
12
12
11
11
10
10
10
9
8
7
6
6
5
4
2
-3
-15
-30
-49
-69
-87
-101
-105
-106
-98
-81
-59
-39
-27
-20
-14
-10
-8
-6
-4
-2
0
4
7
10
12
14
16
17
19
21
23
24
24
25
25
26
27
27
27
28
28
28
29
29
30
30
30
31
31
31
32
32
31
31
31
32
31
31
31
31
31
30
30
29
29
28
28
28
26
26
25
24
23
22
22
21
20
18
17
16
15
14
14
13
12
12
11
10
10
11
11
11
11
11
10
10
11
11
11
11
11
11
11
11
11
11
10
10
11
11
11
10
10
10
10
10
11
11
11
11
10
10
10
10
10
11
12
11
12
13
15
15
16
17
16
16
16
16
16
15
14
13
12
10
9
9
10
11
13
14
13
14
14
15
14
14
14
14
13
13
12
12
11
11
11
10
8
2
-8
-23
-40
-57
-75
-89
-96
-97
-91
-76
-55
-35
-22
-12
-7
-2
0
2
4
7
10
14
17
20
21
23
25
25
27
27
29
30
31
33
32
33
34
35
35
35
36
36
37
37
38
38
39
38
39
39
39
39
39
39
39
39
39
39
38
37
37
36
35
35
35
33
33
32
32
31
30
30
29
28
27
25
24
23
22
21
21
20
20
20
19
20
18
19
19
19
18
18
19
19
19
19
19
19
19
20
19
19
19
19
19
19
19
18
19
18
18
18
18
18
18
19
19
19
19
20
19
19
20
20
20
20
20
20
22
22
24
25
25
24
24
24
24
25
25
24
23
22
21
19
18
18
20
22
22
22
22
23
23
23
23
22
21
21
20
20
20
19
18
18
18
17
14
8
-2
-17
-33
-53
-70
-84
-89
-89
-82
-66
-45
-26
-14
-5
0
4
6
9
10
12
15
19
23
25
27
28
30
30
32
34
35
36
37
38
38
39
39
40
41
41
42
42
43
43
44
44
45
45
45
46
46
47
46
46
45
46
46
46
46
46
46
45
46
44
43
42
42
41
40
40
39
38
36
35
35
32
31
30
29
28
27
27
25
25
24
24
24
24
24
23
23
22
22
22
23
22
23
23
23
23
23
24
23
24
23
23
22
22
22
22
23
23
23
22
22
22
22
22
21
21
21
21
21
21
21
21
22
21
22
22
23
24
25
26
26
26
26
25
25
25
25
24
23
22
21
19
18
19
21
23
23
23
22
23
23
23
23
22
21
21
21
19
19
18
17
17
16
16
12
4
-10
-28
-48
-69
-86
-95
-99
-95
-86
-66
-45
-28
-16
-8
-2
1
3
4
7
10
14
18
21
24
27
28
30
29
30
31
34
36
36
37
37
38
39
39
40
41
42
42
43
43
43
44
44
46
46
46
45
45
45
45
45
44
45
44
43
42
42
42
40
39
37
37
36
35
35
33
32
31
30
29
28
27
26
25
24
24
22
22
21
21
21
20
20
20
20
20
20
20
20
20
21
21
21
22
21
22
22
22
22
22
22
22
23
23
23
22
22
21
21
22
22
22
22
22
22
21
22
21
22
22
22
22
22
22
23
24
24
26
27
28
28
28
28
27
27
26
26
25
24
24
22
21
20
21
22
23
23
24
24
24
24
24
24
23
23
23
22
21
21
21
20
20
19
18
15
8
-4
-20
-37
-56
-74
-86
-91
-88
-79
-61
-40
-23
-12
-5
0
4
7
9
11
14
17
20
23
24
26
28
28
30
31
32
34
35
36
36
38
37
38
39
40
41
42
42
41
42
42
43
43
43
44
44
44
44
44
43
43
43
43
42
42
42
41
41
41
41
40
39
37
36
35
35
34
33
33
31
29
28
27
27
26
25
24
23
22
21
21
20
20
19
19
18
18
19
19
19
19
18
18
18
18
19
19
19
19
19
19
19
19
20
20
20
19
19
19
19
19
19
19
18
18
17
17
17
17
18
18
18
19
19
19
20
21
22
24
24
25
25
25
24
23
23
23
21
20
19
17
16
15
15
16
17
17
17
17
16
17
17
16
16
15
15
14
14
13
13
12
12
11
9
6
-1
-13
-29
-49
-71
-90
-103
-106
-105
-94
-74
-52
-34
-22
-16
-11
-7
-4
-2
-1
2
7
11
13
16
18
20
21
22
23
24
25
26
27
27
29
30
30
30
30
31
32
33
33
33
33
34
34
34
34
34
35
35
35
34
33
33
33
32
32
32
31
29
29
28
28
26
26
24
24
23
22
22
20
19
18
17
16
15
14
13
12
11
10
9
8
8
8
8
7
7
6
6
6
6
6
6
6
6
6
6
6
6
6
7
7
7
7
7
6
6
6
6
6
5
5
5
5
5
5
5
5
4
5
5
6
6
5
6
7
8
9
10
11
11
11
11
10
9
9
9
8
6
5
3
1
1
3
4
5
5
4
5
5
5
5
5
4
4
3
2
1
0
0
0
0
0
-2
-6
-15
-27
-45
-62
-80
-97
-104
-109
-104
-93
-73
-52
-36
-26
-20
-16
-13
-10
-9
-7
-4
-1
2
4
6
8
9
10
11
12
13
14
14
15
16
16
17
17
18
19
19
20
20
20
21
21
21
21
22
22
22
21
21
22
20
20
20
20
20
19
19
18
19
18
18
17
16
15
15
15
14
14
12
11
9
8
8
6
5
4
3
3
2
2
2
2
1
1
1
0
0
0
0
0
0
1
0
0
1
1
1
1
1
1
1
2
2
1
2
2
2
2
1
1
1
1
1
1
1
1
1
1
1
1
1
2
1
1
3
3
4
5
7
9
10
10
8
7
6
6
6
5
5
4
2
1
0
1
3
4
4
4
5
6
5
5
4
4
3
3
3
2
1
1
1
1
0
-2
-7
-16
-31
-48
-66
-86
-102
-111
-110
-103
-87
-64
-45
-32
-24
-17
-13
-10
-8
-6
-3
0
3
6
8
10
12
13
15
16
17
19
20
21
21
23
23
24
24
24
25
26
27
27
28
28
29
29
30
30
30
31
31
31
30
30
30
30
30
30
29
29
28
27
27
26
26
25
25
24
24
24
23
21
20
19
18
16
15
14
14
13
13
11
10
10
10
10
9
9
8
8
9
9
9
9
9
8
8
8
7
8
9
9
8
8
8
9
9
8
8
8
9
9
8
8
8
8
8
8
8
8
8
9
9
8
8
9
8
9
9
11
12
13
14
14
13
12
13
13
12
11
10
9
8
7
6
7
8
9
10
10
10
10
11
10
10
9
8
8
8
7
7
6
6
6
6
4
0
-8
-22
-40
-58
-79
-95
-104
-106
-102
-90
-70
-49
-33
-23
-16
-11
-8
-6
-4
-2
1
5
8
11
13
15
15
16
17
19
20
21
21
22
23
23
24
24
24
24
25
26
26
27
27
28
27
28
27
27
27
27
28
28
28
27
27
27
26
27
26
26
25
25
24
23
23
23
22
21
20
19
18
17
16
16
15
13
12
12
11
10
10
9
8
8
8
8
8
7
7
7
8
8
8
8
8
8
8
8
8
8
8
8
9
9
9
9
8
8
8
8
8
8
8
8
8
8
8
8
8
8
8
8
8
8
8
9
9
10
11
12
13
14
14
14
13
13
12
13
12
11
11
9
7
6
6
7
9
9
10
11
11
10
10
9
9
9
8
8
7
7
6
5
5
4
4
2
-3
-12
-26
-42
-62
-80
-95
-104
-103
-100
-83
-64
-44
-31
-22
-15
-11
-7
-6
-4
-2
0
3
6
9
11
12
13
14
15
17
19
20
20
21
21
22
23
24
25
25
27
27
28
27
28
29
30
31
32
32
32
32
32
32
32
32
32
31
31
31
30
30
29
30
29
28
27
27
26
25
24
23
23
21
21
19
19
17
16
15
15
14
13
13
12
11
10
10
11
11
10
10
10
10
10
10
10
10
10
10
10
10
10
10
10
11
10
10
10
10
10
11
11
11
11
11
11
11
10
10
10
10
11
10
11
10
10
11
11
12
13
15
16
16
16
15
14
13
14
14
13
11
10
8
6
6
6
8
9
10
9
10
11
11
11
10
10
8
8
9
9
8
7
6
6
6
5
1
-7
-21
-38
-56
-76
-94
-107
-111
-111
-101
-83
-60
-42
-29
-21
-15
-11
-9
-7
-4
-1
2
7
10
12
14
16
18
19
21
21
23
23
24
24
25
27
27
29
29
29
30
30
31
32
33
33
34
33
34
34
35
35
35
35
34
33
32
33
32
32
32
31
31
30
29
28
27
27
26
25
24
22
21
20
19
17
16
14
13
12
12
11
10
9
9
8
8
9
7
6
6
5
6
6
6
6
7
6
7
7
7
7
7
7
7
7
6
6
7
7
7
7
7
7
7
6
6
6
6
6
6
6
6
6
6
7
7
7
7
8
8
10
11
12
12
11
10
9
9
9
9
7
7
5
3
2
2
3
4
5
6
6
6
6
6
6
5
4
4
4
3
2
2
1
1
1
0
0
-4
-12
-25
-42
-59
-80
-95
-106
-109
-107
-98
-78
-57
-41
-30
-23
-19
-15
-13
-11
-9
-6
-2
1
4
4
6
8
9
10
11
12
13
14
15
15
16
17
17
18
19
20
20
20
21
21
21
21
22
22
22
23
23
23
22
22
22
21
21
20
20
19
19
19
18
17
16
16
15
15
15
14
13
12
11
10
9
7
7
6
5
3
2
2
1
1
0
0
-1
-1
-1
0
0
-1
-1
-1
-1
-1
0
0
0
0
0
0
0
0
0
0
0
0
0
0
0
0
0
0
0
0
0
0
0
0
-1
-1
-1
0
0
0
0
0
0
1
3
4
5
5
6
5
4
3
3
2
2
1
1
-1
-2
-3
-2
-1
0
0
0
1
1
1
2
1
0
0
0
0
0
-1
-1
-2
-2
-3
-4
-8
-17
-30
-46
-65
-86
-106
-118
-123
-122
-112
-95
-71
-55
-43
-36
-30
-26
-24
-22
-21
-18
-16
-11
-8
-5
-4
-2
-1
-1
0
1
3
4
6
7
7
8
8
8
10
10
12
13
14
15
15
15
16
16
17
18
19
19
20
20
20
22
22
23
22
22
22
22
23
23
23
23
23
22
21
21
20
19
17
16
15
14
13
12
12
10
10
9
8
6
5
5
5
5
5
5
5
5
5
5
6
5
5
6
6
7
7
7
7
7
7
6
6
6
6
5
5
4
5
5
5
4
5
4
4
4
4
4
4
5
4
5
5
5
6
8
10
11
12
11
11
10
10
10
9
9
8
6
5
4
3
3
4
5
6
6
7
7
8
9
9
9
9
9
8
8
7
6
5
5
5
5
4
0
-7
-21
-38
-56
-75
-92
-102
-105
-101
-90
-70
-50
-35
-25
-17
-11
-7
-5
-4
-3
0
3
6
9
10
12
13
13
14
15
16
17
18
18
19
18
18
19
18
19
20
20
20
22
23
23
24
24
24
24
25
26
27
27
28
28
28
28
28
28
28
28
28
28
28
28
28
27
26
25
25
25
24
24
23
21
20
20
20
19
18
17
19
19
18
18
17
17
17
20
22
23
22
20
20
21
21
19
19
18
17
16
15
15
15
15
15
14
13
13
13
14
13
11
11
10
10
9
9
9
8
8
8
6
1
-7
-20
-36
-53
-72
-88
-96
-98
-91
-79
-58
-39
-23
-13
-6
-1
1
3
4
6
9
13
16
19
21
23
24
25
26
28
29
30
30
30
30
32
34
35
35
37
36
37
37
39
39
39
40
39
41
41
42
42
43
43
42
43
42
42
42
43
43
43
42
41
41
40
39
38
38
37
36
34
32
30
28
27
26
24
22
21
20
18
18
17
16
16
16
15
15
14
13
13
14
14
13
13
13
13
12
11
12
12
12
11
10
11
10
10
10
10
9
9
8
8
9
8
8
8
7
7
8
8
8
8
8
8
8
7
8
7
8
8
8
8
8
8
8
8
8
8
8
9
8
8
8
8
8
8
9
10
12
13
13
12
12
11
9
9
9
9
8
7
5
3
2
2
4
6
7
7
8
9
10
11
11
11
10
10
10
10
11
11
11
11
10
9
6
-1
-14
-31
-49
-70
-87
-100
-104
-103
-95
-77
-57
-38
-26
-18
-13
-9
-8
-6
-4
-1
2
6
10
11
13
14
16
17
18
19
21
22
24
24
25
25
26
26
27
28
28
28
28
28
29
29
30
30
30
30
32
32
33
34
34
33
33
32
33
33
34
34
34
33
33
33
34
34
32
32
32
32
32
31
31
30
29
28
27
26
25
25
25
24
23
22
21
22
21
21
22
21
21
21
21
21
22
22
22
22
22
22
23
23
24
24
24
24
23
24
24
24
24
25
25
25
25
25
25
24
24
25
25
24
24
23
24
23
23
23
23
22
22
23
23
24
24
25
25
24
22
21
22
21
20
19
18
17
14
13
13
15
15
16
16
17
17
17
17
16
16
15
15
14
14
14
13
13
13
12
11
9
3
-8
-24
-41
-60
-79
-93
-99
-100
-92
-76
-53
-32
-19
-10
-4
0
2
4
6
9
13
17
20
22
24
25
27
28
28
29
30
30
31
31
31
32
32
34
33
34
34
35
35
36
37
36
36
37
38
39
40
40
39
41
40
41
40
41
43
43
42
40
40
40
40
39
40
40
39
38
38
37
36
36
35
34
32
32
32
31
30
29
28
27
27
28
29
29
28
28
28
29
32
33
34
33
33
32
32
32
31
30
29
28
27
26
25
25
24
24
25
23
23
22
21
20
19
18
18
18
18
18
17
16
13
8
0
-14
-32
-52
-74
-89
-98
-95
-87
-71
-48
-29
-14
-5
0
4
7
8
9
12
16
20
23
25
27
28
30
31
32
34
34
36
37
37
38
38
39
39
39
39
40
40
41
42
42
43
44
44
44
44
45
45
47
47
47
47
47
46
46
46
45
45
45
45
44
43
42
41
41
39
38
37
36
33
32
31
30
30
28
28
26
25
24
23
22
22
21
20
19
19
19
19
18
18
18
17
17
17
16
15
15
15
15
15
15
15
15
14
13
12
13
14
13
13
13
12
12
12
12
12
11
11
10
10
10
10
10
10
10
10
10
10
10
11
11
10
9
9
10
9
9
9
9
10
9
9
10
10
10
10
10
10
11
11
11
11
10
10
9
9
8
8
6
5
4
3
2
2
4
6
7
8
8
9
10
10
10
11
11
11
11
11
11
11
11
10
9
8
5
-1
-12
-27
-43
-61
-80
-95
-100
-100
-91
-73
-52
-35
-24
-16
-11
-7
-5
-3
-1
1
4
7
10
12
14
16
18
19
20
21
23
23
24
25
26
27
26
27
28
29
28
29
29
30
31
31
31
31
32
33
34
34
33
33
33
34
33
34
34
34
33
33
32
32
32
31
31
30
28
27
26
25
23
22
21
20
19
19
18
17
16
15
14
13
12
12
11
11
11
11
11
11
11
11
11
11
11
11
11
11
12
13
13
14
14
14
13
14
15
15
16
15
16
16
17
17
17
17
17
16
16
16
17
17
17
16
17
17
16
16
16
15
15
16
15
15
15
16
16
16
16
15
14
13
12
12
11
10
9
9
7
6
4
5
5
6
6
6
7
7
8
7
7
6
5
5
4
3
2
2
1
1
1
-1
-6
-14
-27
-45
-66
-86
-106
-116
-121
-115
-104
-82
-59
-42
-30
-23
-17
-14
-12
-11
-8
-5
-1
3
6
8
11
13
14
15
17
20
21
22
23
24
24
25
27
28
28
29
30
30
30
30
31
32
33
33
33
33
33
33
35
35
35
34
34
34
33
34
33
32
31
31
30
30
30
29
28
27
26
24
24
23
22
21
19
18
17
16
15
15
15
15
14
13
13
12
12
12
12
12
12
12
13
14
14
13
13
13
13
12
12
13
13
13
12
12
12
11
11
11
11
11
11
11
10
10
11
11
11
11
11
12
13
13
13
13
13
14
14
14
15
16
17
17
17
17
16
15
14
14
14
14
12
12
9
7
5
4
6
8
9
8
8
9
9
10
10
9
8
8
8
7
7
6
5
4
3
3
2
-1
-11
-25
-43
-61
-80
-97
-107
-111
-107
-95
-74
-53
-37
-27
-20
-15
-11
-9
-7
-4
-1
2
6
8
9
10
12
14
15
16
18
20
21
22
24
24
24
25
25
26
27
28
28
29
29
29
29
28
29
30
30
30
31
31
31
31
31
30
29
28
27
27
27
26
25
25
25
24
22
21
20
20
19
19
18
16
14
14
14
14
13
11
11
10
10
10
9
8
7
7
7
8
8
8
7
7
7
6
7
7
8
8
7
7
7
8
8
8
7
7
7
8
8
8
7
7
6
6
7
7
7
7
7
6
6
6
7
7
7
8
8
9
11
12
13
13
14
13
11
10
10
11
10
9
8
7
4
3
3
4
5
6
6
6
6
8
8
7
6
4
4
4
2
2
1
1
1
0
0
-3
-10
-22
-37
-56
-75
-96
-108
-113
-110
-98
-80
-58
-41
-31
-24
-19
-15
-12
-10
-9
-6
-3
0
4
7
9
11
13
14
15
16
17
19
20
21
22
23
25
25
25
25
26
27
28
28
29
30
30
31
31
31
32
32
33
33
33
33
33
32
31
32
31
30
29
29
28
28
28
27
27
25
24
24
23
22
21
20
18
17
15
14
14
13
13
11
11
10
10
10
10
10
10
10
10
9
9
9
9
9
10
9
10
10
10
10
10
10
10
10
10
10
10
10
10
10
10
10
10
9
9
8
9
8
8
8
8
8
8
9
9
10
11
12
14
15
15
15
15
14
14
14
13
13
11
11
9
6
6
6
8
10
11
11
10
10
10
10
9
10
9
9
7
6
6
5
4
3
3
1
-3
-13
-28
-45
-66
-85
-102
-111
-111
-107
-91
-72
-51
-36
-26
-19
-14
-10
-9
-7
-5
0
3
7
10
12
14
15
16
17
19
21
22
23
25
26
26
26
27
28
28
29
29
30
30
30
30
30
32
31
32
32
33
33
33
33
32
32
32
31
30
30
29
28
28
28
28
27
26
25
25
24
23
22
21
20
19
18
17
16
15
15
14
14
13
13
13
12
11
11
11
11
12
12
12
12
12
12
12
12
12
13
13
13
12
13
12
12
13
13
13
12
12
12
12
12
13
12
12
11
11
11
11
12
12
12
12
12
12
12
13
13
15
16
17
18
18
18
17
17
16
17
16
15
14
14
13
11
10
11
12
12
13
14
14
14
14
14
13
12
11
11
10
9
8
8
7
7
6
4
0
-8
-20
-36
-53
-72
-89
-100
-102
-98
-83
-62
-42
-28
-21
-14
-10
-7
-5
-4
-2
0
4
7
9
11
13
14
16
17
19
20
22
23
24
25
25
26
26
27
28
29
30
30
31
31
32
32
33
33
33
33
33
33
33
33
32
33
33
33
32
32
31
30
30
29
29
28
27
26
25
24
23
23
23
22
21
20
19
18
18
17
16
15
15
14
14
14
13
12
12
11
12
12
12
13
13
13
12
12
12
12
12
13
13
13
12
12
12
12
12
12
11
11
11
11
12
12
11
11
11
11
11
11
11
11
11
11
10
10
11
13
14
16
16
16
16
16
15
15
15
14
13
12
11
10
8
7
7
9
10
11
12
12
12
12
11
10
11
11
11
10
9
8
8
7
6
5
4
2
-3
-15
-29
-47
-65
-85
-99
-104
-104
-94
-78
-57
-40
-29
-22
-16
-12
-9
-7
-5
-3
0
4
7
10
12
14
15
17
18
19
20
22
24
25
25
25
26
27
27
28
29
29
29
31
31
32
32
33
34
35
35
35
35
34
34
33
33
33
33
33
32
31
30
29
29
29
29
28
27
26
24
24
23
23
22
21
20
18
17
16
16
15
15
14
14
13
13
13
13
13
12
12
13
13
12
12
13
12
13
13
14
13
14
14
14
13
12
12
13
13
13
13
13
12
12
12
12
12
13
13
12
12
12
12
13
13
13
13
13
14
16
17
19
19
19
18
17
16
17
17
18
17
15
15
13
12
11
12
14
14
15
15
15
15
15
16
14
13
12
12
12
12
11
9
9
9
9
8
5
-2
-15
-29
-46
-64
-79
-90
-90
-87
-74
-56
-37
-23
-15
-9
-5
-2
0
1
3
5
8
12
15
18
20
21
21
22
23
24
26
27
27
28
29
30
31
32
32
33
33
33
34
34
34
35
36
35
35
35
35
35
36
37
36
36
35
34
34
33
34
32
32
31
31
31
30
30
29
29
28
28
26
26
25
24
23
22
21
19
19
18
18
18
17
17
16
16
16
16
16
17
16
16
15
15
16
16
16
17
17
16
16
16
16
17
16
16
16
16
16
16
16
16
15
16
15
14
13
14
14
15
15
15
15
15
15
15
16
16
17
19
20
20
21
20
18
18
19
19
18
17
16
14
12
11
12
13
15
15
16
16
16
16
16
15
14
14
14
13
12
12
11
11
10
10
8
5
-1
-12
-28
-46
-66
-85
-96
-101
-99
-89
-71
-50
-34
-23
-17
-11
-8
-6
-4
-2
-1
2
6
9
12
14
16
17
18
19
20
21
23
24
25
26
25
27
28
28
28
29
31
30
31
31
31
31
32
32
32
32
31
31
31
32
31
31
32
31
31
30
30
29
29
29
28
26
25
24
24
25
24
23
22
20
19
18
17
16
15
15
14
13
12
11
11
11
11
11
11
10
11
11
11
11
10
11
11
11
11
12
12
12
11
11
11
11
11
11
11
11
11
11
11
11
10
10
9
9
9
9
9
10
10
9
9
8
9
9
10
11
13
14
14
15
14
14
14
14
14
14
13
12
11
9
8
8
9
10
11
11
11
12
12
12
13
12
11
11
9
9
8
8
8
8
7
6
5
1
-7
-19
-34
-50
-68
-84
-93
-95
-91
-78
-60
-41
-27
-19
-13
-8
-5
-3
-1
1
3
6
9
10
12
13
14
15
17
19
20
20
21
22
23
25
25
26
27
27
27
28
29
29
30
30
30
29
29
30
30
31
30
31
31
31
30
30
30
30
30
29
29
29
28
27
27
27
26
26
26
25
24
23
22
21
20
20
19
18
17
17
16
15
15
15
15
15
15
15
15
14
14
14
13
14
14
15
15
15
14
15
15
15
16
16
16
15
14
14
15
15
15
15
15
15
14
15
15
15
14
14
15
14
15
14
15
15
16
17
18
19
20
22
22
22
21
20
20
20
20
19
18
16
13
12
12
13
15
17
16
16
17
18
18
16
16
15
15
14
14
13
12
13
12
11
10
8
2
-8
-21
-38
-57
-76
-91
-95
-96
-87
-72
-51
-34
-24
-17
-12
-8
-6
-4
-3
-2
0
3
6
9
11
13
14
16
17
18
20
21
22
22
23
24
24
24
25
26
27
28
28
28
29
30
32
32
31
31
32
33
34
34
35
36
35
36
36
36
36
37
38
37
37
36
35
34
34
35
33
33
32
32
31
29
28
27
26
25
24
23
23
22
22
22
21
21
20
20
20
20
20
20
20
20
20
20
21
20
20
20
21
21
20
20
20
20
20
20
20
19
18
18
18
17
17
17
18
17
16
16
16
16
16
16
16
16
17
18
19
20
20
20
20
19
19
20
19
19
18
17
16
14
14
14
15
16
17
16
17
18
18
18
17
17
17
16
15
15
14
14
13
13
12
12
10
4
-5
-20
-36
-54
-70
-84
-90
-92
-84
-70
-50
-32
-20
-13
-7
-3
-1
0
2
4
8
12
14
15
17
18
18
19
21
21
21
21
22
22
22
24
24
24
23
23
23
24
24
25
26
25
25
27
28
28
27
26
26
28
29
31
32
33
32
28
27
26
27
27
28
28
28
28
28
27
27
26
25
26
26
23
21
20
20
20
20
18
17
16
17
19
20
21
18
16
17
20
23
25
24
23
22
21
22
25
25
24
19
14
12
12
14
14
14
13
12
12
11
11
11
11
11
13
13
12
8
7
7
7
1
-11
-27
-43
-61
-77
-91
-94
-94
-86
-69
-48
-29
-16
-7
-2
-1
-1
0
1
5
9
12
15
17
18
20
23
24
25
25
25
25
26
29
30
30
29
29
29
30
32
33
33
33
35
38
40
40
37
34
33
35
38
40
39
38
37
39
40
41
40
38
37
38
41
41
37
33
31
32
32
31
27
24
22
20
20
19
18
17
16
15
14
14
13
13
12
11
11
12
12
11
10
10
9
8
8
9
9
8
8
7
7
8
8
8
8
7
7
8
8
7
7
7
6
6
5
5
6
6
6
6
6
6
7
7
6
6
6
6
6
6
6
6
6
6
6
6
6
6
7
7
8
7
7
7
7
7
7
7
6
6
7
8
9
10
10
8
8
7
7
7
6
4
3
2
0
-1
0
2
4
4
5
6
7
8
8
8
9
9
9
8
9
9
9
8
8
8
6
1
-8
-23
-43
-64
-85
-100
-109
-110
-108
-98
-80
-59
-42
-30
-23
-18
-14
-13
-11
-9
-5
-1
2
5
7
9
11
13
14
16
16
18
19
20
21
21
22
22
23
24
24
24
25
25
26
27
27
28
28
29
29
30
30
30
31
31
31
32
32
33
33
33
33
34
34
34
34
34
33
33
32
31
31
29
29
29
28
27
26
25
24
23
23
22
21
21
21
20
20
20
20
20
20
20
20
20
20
21
21
22
22
21
22
22
23
22
22
22
23
24
24
24
25
25
25
25
25
25
24
24
24
24
24
24
24
23
23
23
22
22
22
22
21
21
21
22
22
22
23
23
22
20
19
18
18
18
16
15
13
11
10
10
10
11
12
13
13
13
13
13
13
14
12
13
12
11
10
10
9
8
8
8
6
2
-7
-22
-41
-60
-80
-98
-106
-110
-105
-94
-73
-52
-35
-23
-16
-11
-8
-6
-4
-2
1
5
9
12
14
17
19
21
21
22
23
25
26
26
26
26
26
27
28
28
28
28
28
28
29
30
31
31
31
31
32
32
33
33
34
35
35
35
35
36
36
36
36
35
35
34
35
34
34
34
32
31
30
30
29
28
27
25
25
23
22
21
20
19
19
20
21
21
20
19
18
19
22
24
25
25
24
24
24
23
23
22
21
20
19
18
16
16
16
15
15
15
14
14
13
13
11
11
11
10
9
9
9
9
7
2
-7
-22
-40
-60
-82
-97
-108
-111
-108
-98
-78
-56
-37
-25
-17
-11
-8
-6
-4
-2
1
5
9
12
15
17
19
21
21
24
25
26
27
28
28
29
30
31
31
31
32
33
34
34
35
36
36
37
38
39
39
39
39
39
40
40
40
39
39
39
39
38
38
38
37
37
35
35
35
34
33
30
29
28
27
26
24
23
21
20
18
17
15
14
14
13
13
12
11
11
10
9
9
9
8
8
7
7
6
7
7
6
5
5
5
5
5
5
4
4
4
4
3
3
3
2
2
2
2
2
2
2
2
2
2
2
2
2
2
2
2
2
3
3
3
3
3
4
4
4
4
4
4
4
4
5
4
4
4
4
4
5
5
5
6
6
7
7
7
7
7
6
6
6
6
5
4
2
1
0
0
1
3
5
6
8
9
10
10
11
11
11
11
10
10
9
9
9
9
8
8
5
-1
-13
-30
-49
-70
-89
-102
-108
-108
-101
-85
-63
-44
-31
-24
-18
-15
-13
-11
-9
-6
-4
-1
2
4
6
8
10
12
12
13
14
15
16
16
18
18
19
19
20
19
20
21
21
22
22
23
22
23
23
24
25
25
26
25
26
26
27
27
27
28
27
28
27
28
28
28
27
27
27
26
26
26
26
25
25
24
23
22
21
20
19
18
17
16
16
15
15
14
14
14
14
14
15
15
15
15
15
15
15
15
16
16
17
17
17
17
17
18
18
19
18
19
20
20
20
21
21
20
20
20
20
19
19
19
19
18
18
18
17
17
16
16
16
15
15
16
16
16
16
16
16
15
14
14
13
13
12
11
10
9
7
6
5
5
6
7
8
8
8
8
8
8
8
7
7
6
5
4
4
3
3
3
2
1
-3
-11
-26
-43
-62
-85
-100
-110
-112
-108
-96
-74
-53
-37
-27
-21
-16
-13
-12
-10
-7
-3
0
4
7
10
12
14
15
16
18
19
20
20
20
20
20
21
22
22
23
23
23
24
24
25
26
26
26
27
28
28
29
29
29
30
31
31
31
31
32
32
31
30
30
30
30
29
29
30
28
27
27
27
26
25
24
21
20
19
19
18
17
17
17
16
15
14
13
13
13
16
18
19
19
19
18
17
18
18
17
16
15
14
14
13
13
13
12
11
11
10
10
9
9
9
8
8
7
6
5
5
5
5
2
-4
-16
-32
-51
-70
-90
-103
-109
-108
-101
-87
-67
-48
-33
-24
-17
-13
-10
-9
-6
-3
0
4
8
11
13
16
17
18
19
21
22
24
25
25
26
27
27
28
29
29
30
30
30
31
32
33
33
34
35
36
35
35
35
35
36
36
37
37
37
36
36
36
35
34
33
33
32
31
30
29
28
25
25
24
23
22
20
19
17
17
16
14
13
12
12
11
10
9
9
8
7
7
7
7
6
6
5
5
5
6
6
5
3
3
3
3
3
4
3
2
2
2
2
2
2
3
2
2
2
2
2
2
3
3
2
1
1
1
2
2
2
1
2
2
2
2
2
1
1
2
2
2
2
3
2
3
3
3
3
3
3
3
3
3
4
4
4
4
4
4
4
4
3
2
1
0
0
0
-2
-3
-3
-1
0
1
3
4
5
6
6
6
6
6
6
6
6
6
5
4
4
4
1
-2
-11
-24
-42
-64
-84
-104
-113
-118
-115
-104
-86
-62
-44
-33
-27
-21
-18
-17
-16
-15
-12
-8
-4
-2
0
3
6
7
8
9
10
11
12
13
13
13
13
13
14
14
14
15
16
16
17
17
18
18
18
19
19
20
20
21
21
21
21
21
22
22
23
23
23
23
23
24
23
23
23
23
22
22
22
21
20
18
17
16
16
14
14
13
12
11
10
10
10
10
10
10
10
9
9
9
10
10
10
9
9
9
9
10
10
10
10
11
12
12
12
12
12
12
13
14
15
15
14
15
14
14
15
15
14
14
15
14
14
13
13
13
12
12
12
12
11
11
11
11
12
12
12
11
10
9
9
9
9
7
5
3
2
1
0
-1
0
1
3
3
3
3
3
3
3
2
1
1
0
0
-1
-1
-1
-1
-1
-1
-3
-8
-19
-35
-57
-78
-100
-117
-126
-129
-125
-113
-92
-70
-52
-40
-32
-26
-22
-21
-19
-15
-11
-6
-1
3
6
8
10
11
12
14
15
16
17
17
17
18
19
18
19
19
19
19
18
19
19
20
19
19
21
22
22
22
23
22
23
23
24
24
25
24
25
25
25
24
24
24
24
24
23
23
22
22
21
20
19
19
17
15
13
12
12
11
11
11
12
12
12
11
10
10
11
14
16
18
17
16
15
15
16
15
15
14
14
13
12
11
11
10
10
10
9
9
9
8
7
6
5
5
5
4
4
3
2
2
0
-5
-17
-33
-51
-71
-90
-105
-111
-111
-104
-87
-66
-45
-31
-22
-16
-12
-9
-7
-5
-3
1
5
9
12
15
16
18
19
19
20
21
23
23
24
25
26
26
27
26
27
28
28
29
29
31
31
31
32
33
34
34
34
34
35
36
36
36
35
35
34
35
34
35
33
33
32
32
32
31
30
28
27
26
25
24
22
21
19
17
16
15
14
13
12
11
10
10
10
9
8
8
8
8
7
7
6
5
5
5
6
5
4
3
3
3
3
4
4
3
3
3
3
3
3
3
3
2
2
2
1
2
2
3
3
3
3
3
3
3
3
2
3
3
3
3
3
3
3
3
3
3
3
3
4
4
4
4
4
5
5
5
5
5
5
6
5
5
5
6
6
6
6
6
6
5
5
4
3
2
1
1
1
1
2
4
5
6
7
8
10
11
12
11
11
10
10
10
10
10
9
9
8
4
-3
-16
-33
-55
-77
-97
-111
-114
-114
-104
-88
-64
-44
-31
-23
-17
-13
-11
-9
-8
-5
-1
3
8
11
15
17
20
21
23
24
26
28
30
30
31
31
31
31
31
33
34
35
35
35
35
36
38
37
38
38
39
40
40
40
40
41
41
43
43
43
42
42
43
43
42
41
41
40
39
39
38
36
34
34
32
31
28
27
26
25
24
23
22
21
20
19
18
18
17
17
17
17
16
16
17
17
17
17
17
17
18
18
19
19
20
20
21
21
22
22
22
23
23
23
24
23
23
23
22
22
22
22
22
21
21
21
21
22
21
21
21
20
20
20
20
20
19
20
19
20
19
19
18
18
19
18
17
16
16
14
13
11
10
9
8
7
8
10
10
11
11
11
10
10
10
9
9
8
8
7
6
6
6
6
4
0
-8
-22
-40
-59
-81
-98
-110
-113
-112
-100
-81
-60
-42
-30
-23
-18
-14
-11
-9
-6
-3
0
4
8
11
14
16
18
19
20
21
24
25
27
27
28
29
29
30
31
32
32
33
33
33
33
34
35
36
38
38
38
38
38
39
40
40
40
41
41
41
41
40
40
40
40
38
37
37
38
38
37
36
34
33
32
31
30
28
28
27
27
25
24
24
23
23
22
22
21
22
21
21
21
21
21
21
21
21
22
22
22
22
21
22
21
22
21
21
20
21
21
20
21
20
19
19
18
19
19
20
19
20
20
20
20
21
21
22
22
22
22
22
22
22
22
22
21
21
21
22
21
21
