-1154
-1154
-1155
-1156
-1157
-1158
-1159
-1159
-1160
-1161
-1160
-1161
-1162
-1164
-1164
-1164
-1163
-1162
-1161
-1158
-1156
-1154
-1151
-1149
-1146
-1143
-1139
-1137
-1133
-1129
-1126
-1122
-1119
-1117
-1115
-1112
-1111
-1110
-1110
-1109
-1110
-1110
-1111
-1111
-1112
-1112
-1114
-1116
-1117
-1118
-1118
-1119
-1120
-1121
-1121
-1122
-1122
-1123
-1123
-1122
-1120
-1118
-1118
-1117
-1116
-1113
-1112
-1111
-1108
-1106
-1103
-1100
-1098
-1096
-1095
-1093
-1092
-1090
-1087
-1083
-1080
-1080
-1082
-1082
-1083
-1085
-1087
-1089
-1093
-1096
-1098
-1100
-1103
-1106
-1110
-1113
-1116
-1118
-1119
-1120
-1120
-1121
-1123
-1123
-1123
-1124
-1125
-1128
-1126
-1116
-1110
-1108
-1107
-1098
-1081
-1060
-1044
-1048
-1064
-1083
-1095
-1113
-1139
-1163
-1180
-1188
-1189
-1189
-1187
-1181
-1171
-1161
-1154
-1151
-1149
-1147
-1147
-1147
-1148
-1147
-1147
-1147
-1150
-1150
-1151
-1151
-1152
-1154
-1156
-1156
-1158
-1157
-1157
-1156
-1156
-1154
-1154
-1153
-1150
-1148
-1144
-1142
-1140
-1137
-1133
-1131
-1128
-1124
-1121
-1118
-1115
-1112
-1111
-1109
-1108
-1106
-1106
-1106
-1105
-1105
-1106
-1108
-1108
-1108
-1109
-1111
-1112
-1112
-1114
-1114
-1116
-1116
-1117
-1118
-1117
-1116
-1116
-1116
-1116
-1116
-1114
-1112
-1112
-1110
-1108
-1107
-1105
-1101
-1098
-1096
-1095
-1094
-1093
-1091
-1090
-1086
-1081
-1079
-1080
-1080
-1081
-1083
-1084
-1087
-1088
-1091
-1095
-1096
-1099
-1101
-1103
-1108
-1112
-1114
-1115
-1116
-1118
-1119
-1119
-1119
-1120
-1120
-1122
-1123
-1125
-1128
-1123
-1113
-1109
-1107
-1101
-1086
-1068
-1046
-1042
-1054
-1079
-1099
-1116
-1142
-1171
-1188
-1197
-1198
-1197
-1193
-1186
-1173
-1162
-1156
-1154
-1154
-1154
-1152
-1150
-1150
-1151
-1152
-1152
-1153
-1154
-1154
-1156
-1157
-1158
-1159
-1161
-1162
-1162
-1163
-1162
-1162
-1161
-1159
-1158
-1155
-1154
-1151
-1148
-1146
-1143
-1140
-1137
-1133
-1130
-1126
-1124
-1120
-1117
-1114
-1112
-1112
-1112
-1111
-1111
-1111
-1112
-1112
-1113
-1113
-1115
-1116
-1118
-1118
-1118
-1119
-1120
-1122
-1122
-1123
-1124
-1125
-1125
-1124
-1123
-1123
-1123
-1123
-1120
-1119
-1118
-1117
-1116
-1113
-1111
-1108
-1105
-1103
-1101
-1100
-1100
-1099
-1098
-1093
-1089
-1086
-1088
-1089
-1088
-1090
-1093
-1095
-1098
-1101
-1104
-1106
-1109
-1111
-1112
-1117
-1120
-1123
-1125
-1126
-1127
-1126
-1127
-1128
-1128
-1129
-1130
-1131
-1133
-1133
-1125
-1118
-1116
-1113
-1102
-1086
-1065
-1050
-1057
-1076
-1097
-1113
-1135
-1166
-1194
-1209
-1215
-1215
-1214
-1208
-1198
-1184
-1172
-1167
-1165
-1163
-1163
-1163
-1162
-1162
-1162
-1162
-1163
-1163
-1163
-1164
-1166
-1168
-1168
-1169
-1169
-1171
-1172
-1171
-1171
-1169
-1169
-1169
-1167
-1164
-1163
-1160
-1157
-1154
-1150
-1147
-1145
-1141
-1137
-1133
-1131
-1129
-1126
-1124
-1121
-1119
-1120
-1120
-1120
-1120
-1121
-1124
-1125
-1126
-1127
-1127
-1128
-1129
-1130
-1131
-1132
-1132
-1133
-1133
-1135
-1136
-1137
-1137
-1136
-1136
-1135
-1135
-1133
-1132
-1132
-1130
-1129
-1127
-1123
-1120
-1118
-1117
-1116
-1114
-1112
-1110
-1107
-1101
-1098
-1097
-1098
-1098
-1100
-1101
-1103
-1105
-1109
-1112
-1116
-1118
-1120
-1122
-1126
-1129
-1132
-1135
-1137
-1137
-1138
-1138
-1140
-1141
-1142
-1142
-1144
-1144
-1146
-1146
-1137
-1129
-1127
-1125
-1117
-1100
-1077
-1057
-1059
-1072
-1095
-1109
-1130
-1158
-1188
-1208
-1219
-1222
-1221
-1219
-1212
-1201
-1189
-1181
-1178
-1176
-1174
-1173
-1173
-1173
-1173
-1173
-1174
-1176
-1177
-1179
-1180
-1180
-1181
-1183
-1183
-1183
-1184
-1184
-1185
-1184
-1183
-1182
-1180
-1179
-1176
-1174
-1171
-1169
-1166
-1162
-1157
-1154
-1151
-1148
-1144
-1141
-1138
-1136
-1135
-1132
-1132
-1131
-1130
-1130
-1130
-1129
-1130
-1131
-1132
-1131
-1131
-1132
-1133
-1136
-1137
-1139
-1141
-1142
-1142
-1141
-1142
-1141
-1140
-1141
-1140
-1138
-1137
-1137
-1133
-1132
-1129
-1127
-1124
-1122
-1120
-1118
-1117
-1116
-1114
-1112
-1107
-1102
-1103
-1103
-1103
-1102
-1104
-1106
-1110
-1112
-1115
-1117
-1120
-1123
-1126
-1128
-1132
-1135
-1137
-1140
-1141
-1142
-1143
-1143
-1144
-1144
-1146
-1149
-1150
-1153
-1150
-1141
-1137
-1136
-1132
-1119
-1103
-1083
-1075
-1078
-1096
-1111
-1123
-1146
-1170
-1194
-1209
-1217
-1218
-1215
-1214
-1206
-1197
-1188
-1180
-1176
-1176
-1175
-1174
-1174
-1174
-1175
-1175
-1176
-1176
-1176
-1176
-1179
-1180
-1180
-1180
-1181
-1182
-1183
-1183
-1182
-1182
-1182
-1181
-1179
-1176
-1173
-1171
-1169
-1166
-1162
-1159
-1157
-1154
-1150
-1147
-1144
-1142
-1140
-1137
-1133
-1134
-1133
-1132
-1131
-1132
-1132
-1132
-1132
-1133
-1132
-1135
-1136
-1136
-1137
-1137
-1139
-1139
-1139
-1139
-1139
-1140
-1141
-1140
-1140
-1138
-1137
-1135
-1133
-1132
-1131
-1128
-1124
-1121
-1120
-1119
-1117
-1115
-1114
-1108
-1104
-1100
-1099
-1099
-1099
-1100
-1102
-1103
-1105
-1107
-1110
-1114
-1116
-1118
-1119
-1124
-1128
-1131
-1132
-1133
-1136
-1137
-1137
-1137
-1137
-1137
-1138
-1139
-1140
-1144
-1141
-1132
-1126
-1123
-1119
-1109
-1092
-1071
-1055
-1058
-1075
-1096
-1111
-1131
-1159
-1184
-1199
-1205
-1205
-1205
-1201
-1196
-1185
-1176
-1169
-1169
-1168
-1166
-1166
-1166
-1165
-1165
-1165
-1166
-1165
-1166
-1167
-1169
-1169
-1169
-1171
-1172
-1172
-1172
-1171
-1172
-1171
-1170
-1170
-1167
-1165
-1163
-1161
-1157
-1154
-1152
-1149
-1146
-1142
-1138
-1136
-1133
-1131
-1129
-1126
-1126
-1125
-1124
-1123
-1122
-1122
-1123
-1124
-1124
-1125
-1126
-1126
-1128
-1129
-1129
-1130
-1131
-1132
-1132
-1132
-1133
-1133
-1132
-1132
-1131
-1131
-1131
-1129
-1128
-1126
-1124
-1123
-1119
-1115
-1112
-1110
-1108
-1107
-1105
-1101
-1097
-1093
-1091
-1090
-1091
-1093
-1093
-1094
-1097
-1099
-1103
-1104
-1107
-1109
-1112
-1117
-1121
-1125
-1127
-1129
-1131
-1132
-1132
-1132
-1134
-1136
-1136
-1136
-1137
-1140
-1141
-1133
-1122
-1118
-1114
-1105
-1089
-1069
-1048
-1049
-1065
-1091
-1109
-1128
-1156
-1182
-1196
-1200
-1201
-1198
-1194
-1187
-1178
-1169
-1166
-1165
-1166
-1164
-1163
-1163
-1162
-1162
-1164
-1164
-1166
-1168
-1169
-1169
-1169
-1169
-1171
-1171
-1172
-1172
-1172
-1172
-1172
-1171
-1169
-1167
-1166
-1162
-1160
-1158
-1155
-1154
-1150
-1148
-1146
-1142
-1139
-1136
-1132
-1130
-1129
-1127
-1126
-1124
-1123
-1123
-1124
-1125
-1124
-1124
-1125
-1127
-1129
-1129
-1131
-1132
-1132
-1133
-1134
-1133
-1136
-1137
-1137
-1137
-1137
-1136
-1135
-1135
-1132
-1131
-1132
-1130
-1128
-1123
-1119
-1116
-1115
-1113
-1112
-1110
-1107
-1103
-1098
-1094
-1093
-1094
-1094
-1094
-1096
-1099
-1101
-1104
-1107
-1110
-1112
-1115
-1120
-1123
-1127
-1129
-1132
-1133
-1133
-1135
-1135
-1135
-1135
-1135
-1136
-1137
-1140
-1144
-1142
-1130
-1120
-1116
-1111
-1094
-1073
-1049
-1033
-1041
-1061
-1091
-1111
-1135
-1165
-1188
-1197
-1199
-1199
-1196
-1190
-1181
-1172
-1166
-1166
-1164
-1162
-1162
-1162
-1163
-1162
-1162
-1162
-1162
-1163
-1165
-1166
-1166
-1167
-1170
-1171
-1171
-1171
-1172
-1173
-1173
-1171
-1169
-1169
-1169
-1168
-1166
-1163
-1161
-1158
-1156
-1154
-1151
-1148
-1146
-1143
-1138
-1135
-1132
-1129
-1126
-1125
-1123
-1122
-1122
-1121
-1120
-1121
-1121
-1123
-1125
-1125
-1126
-1127
-1127
-1129
-1129
-1131
-1131
-1132
-1132
-1132
-1130
-1129
-1129
-1130
-1129
-1126
-1125
-1124
-1120
-1117
-1113
-1111
-1110
-1108
-1107
-1106
-1101
-1098
-1094
-1092
-1091
-1091
-1091
-1094
-1096
-1098
-1101
-1103
-1105
-1108
-1111
-1115
-1119
-1122
-1126
-1128
-1129
-1130
-1132
-1132
-1132
-1132
-1132
-1134
-1135
-1137
-1140
-1137
-1126
-1119
-1114
-1106
-1092
-1070
-1046
-1034
-1039
-1062
-1089
-1110
-1137
-1165
-1187
-1200
-1203
-1203
-1201
-1197
-1187
-1177
-1169
-1167
-1167
-1166
-1166
-1165
-1165
-1166
-1167
-1167
-1167
-1168
-1169
-1168
-1169
-1169
-1169
-1172
-1173
-1173
-1173
-1175
-1174
-1174
-1173
-1173
-1171
-1171
-1168
-1165
-1162
-1159
-1157
-1154
-1150
-1147
-1143
-1139
-1136
-1132
-1129
-1127
-1124
-1121
-1119
-1119
-1119
-1120
-1120
-1120
-1120
-1122
-1123
-1124
-1125
-1125
-1126
-1128
-1129
-1129
-1129
-1129
-1129
-1129
-1128
-1126
-1126
-1126
-1125
-1123
-1120
-1117
-1114
-1112
-1110
-1108
-1106
-1105
-1103
-1097
-1092
-1090
-1091
-1092
-1092
-1092
-1094
-1097
-1099
-1103
-1104
-1107
-1110
-1112
-1114
-1119
-1123
-1126
-1128
-1128
-1128
-1130
-1130
-1132
-1132
-1132
-1135
-1137
-1141
-1142
-1132
-1122
-1119
-1114
-1103
-1086
-1063
-1046
-1046
-1059
-1085
-1104
-1129
-1159
-1186
-1201
-1209
-1210
-1208
-1204
-1193
-1181
-1171
-1166
-1163
-1162
-1162
-1162
-1162
-1161
-1160
-1162
-1162
-1162
-1163
-1166
-1168
-1169
-1169
-1169
-1169
-1171
-1172
-1172
-1171
-1171
-1171
-1169
-1167
-1164
-1162
-1161
-1159
-1155
-1151
-1148
-1144
-1141
-1137
-1132
-1129
-1126
-1123
-1119
-1117
-1115
-1114
-1112
-1112
-1111
-1111
-1112
-1113
-1114
-1114
-1114
-1117
-1117
-1119
-1119
-1120
-1121
-1122
-1122
-1121
-1122
-1122
-1122
-1120
-1119
-1117
-1115
-1112
-1110
-1106
-1105
-1104
-1103
-1103
-1101
-1097
-1093
-1089
-1087
-1088
-1089
-1091
-1092
-1094
-1095
-1099
-1103
-1103
-1105
-1108
-1111
-1114
-1119
-1122
-1124
-1125
-1126
-1127
-1129
-1129
-1129
-1130
-1130
-1131
-1132
-1136
-1135
-1125
-1119
-1115
-1112
-1101
-1085
-1061
-1047
-1052
-1071
-1093
-1109
-1135
-1167
-1196
-1214
-1221
-1221
-1218
-1215
-1203
-1188
-1176
-1169
-1167
-1166
-1164
-1163
-1163
-1163
-1163
-1163
-1163
-1164
-1165
-1166
-1167
-1167
-1168
-1169
-1171
-1170
-1171
-1171
-1171
-1171
-1168
-1167
-1166
-1164
-1162
-1159
-1155
-1154
-1151
-1148
-1144
-1140
-1137
-1133
-1131
-1127
-1124
-1122
-1120
-1119
-1117
-1116
-1115
-1116
-1116
-1116
-1116
-1118
-1120
-1120
-1121
-1122
-1123
-1125
-1125
-1126
-1126
-1126
-1127
-1126
-1126
-1125
-1124
-1123
-1122
-1120
-1117
-1113
-1112
-1111
-1109
-1106
-1105
-1104
-1102
-1097
-1092
-1091
-1091
-1093
-1092
-1093
-1095
-1098
-1101
-1104
-1105
-1108
-1112
-1113
-1116
-1120
-1124
-1126
-1129
-1129
-1130
-1132
-1132
-1132
-1132
-1134
-1136
-1137
-1139
-1141
-1133
-1125
-1120
-1119
-1112
-1096
-1076
-1053
-1050
-1058
-1082
-1101
-1123
-1154
-1186
-1208
-1219
-1222
-1221
-1217
-1209
-1197
-1184
-1175
-1169
-1168
-1167
-1166
-1166
-1166
-1166
-1167
-1167
-1168
-1168
-1169
-1169
-1171
-1172
-1173
-1174
-1174
-1175
-1175
-1175
-1174
-1173
-1173
-1171
-1169
-1167
-1165
-1163
-1161
-1157
-1154
-1150
-1147
-1143
-1140
-1136
-1133
-1130
-1128
-1124
-1122
-1121
-1121
-1120
-1119
-1119
-1120
-1121
-1122
-1124
-1126
-1128
-1129
-1129
-1129
-1131
-1132
-1134
-1135
-1134
-1134
-1134
-1134
-1133
-1132
-1131
-1130
-1129
-1128
-1125
-1124
-1120
-1118
-1116
-1115
-1112
-1111
-1110
-1108
-1104
-1099
-1096
-1097
-1099
-1099
-1099
-1102
-1104
-1107
-1110
-1112
-1114
-1118
-1120
-1123
-1126
-1130
-1132
-1134
-1135
-1136
-1137
-1139
-1139
-1139
-1140
-1140
-1142
-1144
-1147
-1144
-1133
-1129
-1126
-1122
-1108
-1090
-1068
-1058
-1065
-1086
-1107
-1123
-1150
-1183
-1210
-1226
-1231
-1230
-1228
-1222
-1209
-1194
-1183
-1178
-1174
-1173
-1171
-1172
-1171
-1169
-1169
-1171
-1171
-1172
-1172
-1173
-1176
-1176
-1176
-1176
-1178
-1180
-1180
-1180
-1179
-1179
-1179
-1178
-1176
-1173
-1171
-1169
-1166
-1162
-1159
-1155
-1153
-1150
-1146
-1141
-1137
-1133
-1132
-1129
-1128
-1126
-1125
-1124
-1124
-1123
-1124
-1125
-1126
-1128
-1128
-1130
-1131
-1132
-1133
-1135
-1137
-1137
-1137
-1137
-1137
-1137
-1137
-1137
-1136
-1135
-1133
-1132
-1131
-1130
-1129
-1125
-1122
-1121
-1119
-1117
-1117
-1117
-1115
-1111
-1105
-1101
-1101
-1103
-1103
-1103
-1105
-1108
-1112
-1115
-1117
-1119
-1121
-1124
-1126
-1130
-1133
-1136
-1137
-1139
-1139
-1141
-1142
-1143
-1143
-1144
-1144
-1148
-1149
-1153
-1149
-1139
-1133
-1133
-1129
-1115
-1096
-1073
-1061
-1065
-1086
-1108
-1126
-1155
-1187
-1214
-1231
-1239
-1238
-1236
-1231
-1220
-1206
-1195
-1187
-1185
-1183
-1182
-1181
-1180
-1180
-1180
-1181
-1182
-1183
-1183
-1184
-1185
-1186
-1186
-1187
-1189
-1189
-1190
-1190
-1189
-1189
-1188
-1187
-1185
-1182
-1180
-1178
-1175
-1172
-1169
-1166
-1162
-1159
-1155
-1151
-1149
-1146
-1145
-1142
-1139
-1137
-1137
-1137
-1137
-1136
-1137
-1137
-1138
-1138
-1139
-1141
-1143
-1144
-1145
-1146
-1148
-1149
-1150
-1150
-1150
-1150
-1150
-1149
-1148
-1147
-1146
-1146
-1144
-1141
-1137
-1133
-1132
-1130
-1129
-1128
-1127
-1126
-1122
-1117
-1112
-1111
-1112
-1112
-1112
-1112
-1115
-1118
-1122
-1124
-1126
-1129
-1132
-1136
-1139
-1143
-1146
-1148
-1150
-1151
-1151
-1153
-1153
-1153
-1154
-1154
-1154
-1156
-1159
-1162
-1154
-1146
-1143
-1143
-1137
-1121
-1103
-1082
-1078
-1083
-1104
-1119
-1136
-1163
-1193
-1215
-1230
-1234
-1232
-1230
-1227
-1217
-1205
-1195
-1188
-1186
-1185
-1185
-1185
-1185
-1185
-1185
-1186
-1187
-1188
-1188
-1189
-1190
-1192
-1192
-1193
-1193
-1193
-1194
-1193
-1193
-1193
-1191
-1189
-1187
-1185
-1183
-1180
-1177
-1174
-1172
-1169
-1164
-1162
-1157
-1154
-1151
-1150
-1146
-1144
-1142
-1140
-1139
-1139
-1138
-1140
-1139
-1140
-1140
-1140
-1140
-1141
-1142
-1143
-1144
-1146
-1147
-1148
-1148
-1148
-1147
-1147
-1147
-1147
-1146
-1144
-1143
-1143
-1141
-1139
-1136
-1132
-1129
-1126
-1125
-1124
-1123
-1122
-1117
-1112
-1108
-1108
-1108
-1108
-1107
-1107
-1111
-1113
-1118
-1120
-1122
-1126
-1130
-1132
-1135
-1138
-1142
-1144
-1146
-1144
-1144
-1146
-1147
-1147
-1149
-1150
-1153
-1155
-1158
-1154
-1145
-1141
-1139
-1135
-1120
-1103
-1084
-1074
-1078
-1098
-1114
-1128
-1151
-1179
-1200
-1214
-1221
-1221
-1219
-1217
-1210
-1201
-1192
-1185
-1181
-1181
-1180
-1180
-1179
-1180
-1180
-1181
-1182
-1182
-1183
-1184
-1185
-1185
-1186
-1187
-1187
-1188
-1188
-1188
-1188
-1187
-1188
-1187
-1185
-1183
-1180
-1179
-1177
-1174
-1171
-1168
-1165
-1163
-1159
-1155
-1153
-1150
-1147
-1146
-1144
-1142
-1141
-1141
-1141
-1140
-1139
-1139
-1140
-1142
-1142
-1143
-1144
-1145
-1145
-1144
-1146
-1148
-1149
-1149
-1148
-1147
-1146
-1148
-1149
-1148
-1146
-1144
-1143
-1140
-1137
-1134
-1132
-1130
-1129
-1126
-1124
-1120
-1116
-1111
-1108
-1107
-1106
-1105
-1104
-1106
-1108
-1110
-1112
-1114
-1116
-1119
-1122
-1126
-1129
-1132
-1136
-1138
-1139
-1141
-1140
-1141
-1140
-1141
-1142
-1142
-1144
-1146
-1148
-1144
-1133
-1129
-1128
-1125
-1114
-1098
-1078
-1065
-1068
-1086
-1102
-1112
-1135
-1161
-1184
-1198
-1205
-1205
-1205
-1203
-1196
-1187
-1178
-1171
-1168
-1168
-1167
-1165
-1164
-1166
-1165
-1165
-1165
-1166
-1167
-1167
-1167
-1168
-1170
-1169
-1169
-1171
-1171
-1171
-1171
-1169
-1169
-1168
-1167
-1164
-1162
-1159
-1156
-1155
-1153
-1150
-1146
-1143
-1140
-1137
-1133
-1130
-1128
-1126
-1125
-1123
-1121
-1121
-1121
-1121
-1122
-1122
-1123
-1125
-1126
-1126
-1125
-1126
-1127
-1129
-1129
-1130
-1131
-1132
-1132
-1130
-1130
-1130
-1130
-1130
-1130
-1129
-1127
-1126
-1124
-1120
-1116
-1112
-1112
-1110
-1108
-1107
-1103
-1099
-1095
-1090
-1089
-1090
-1089
-1089
-1091
-1093
-1094
-1097
-1100
-1102
-1104
-1107
-1110
-1114
-1119
-1122
-1124
-1125
-1127
-1128
-1128
-1128
-1129
-1130
-1130
-1131
-1132
-1137
-1131
-1120
-1115
-1112
-1106
-1093
-1074
-1053
-1048
-1059
-1083
-1103
-1117
-1139
-1166
-1187
-1197
-1199
-1197
-1195
-1191
-1183
-1171
-1162
-1159
-1158
-1157
-1157
-1155
-1155
-1155
-1156
-1155
-1155
-1156
-1158
-1159
-1160
-1162
-1163
-1165
-1167
-1167
-1168
-1167
-1168
-1167
-1165
-1164
-1162
-1160
-1158
-1154
-1152
-1148
-1147
-1143
-1139
-1136
-1133
-1130
-1126
-1123
-1120
-1118
-1117
-1115
-1115
-1113
-1114
-1115
-1115
-1115
-1115
-1116
-1118
-1119
-1119
-1119
-1120
-1122
-1122
-1123
-1124
-1125
-1126
-1126
-1125
-1125
-1125
-1124
-1124
-1123
-1122
-1120
-1119
-1116
-1112
-1108
-1107
-1105
-1104
-1101
-1099
-1095
-1091
-1087
-1087
-1087
-1087
-1088
-1089
-1091
-1093
-1096
-1101
-1102
-1103
-1106
-1108
-1112
-1117
-1120
-1122
-1124
-1125
-1126
-1126
-1128
-1129
-1129
-1129
-1129
-1131
-1135
-1133
-1121
-1116
-1113
-1108
-1095
-1076
-1053
-1046
-1058
-1081
-1103
-1120
-1144
-1176
-1198
-1208
-1212
-1211
-1208
-1201
-1189
-1176
-1168
-1165
-1162
-1162
-1160
-1160
-1160
-1160
-1160
-1160
-1160
-1161
-1162
-1163
-1163
-1164
-1165
-1167
-1167
-1168
-1167
-1168
-1167
-1166
-1163
-1163
-1161
-1158
-1154
-1152
-1148
-1146
-1144
-1140
-1137
-1133
-1130
-1128
-1124
-1122
-1119
-1118
-1116
-1114
-1114
-1113
-1113
-1114
-1115
-1115
-1116
-1115
-1118
-1119
-1119
-1120
-1122
-1124
-1125
-1125
-1126
-1128
-1128
-1127
-1127
-1126
-1126
-1126
-1124
-1123
-1123
-1122
-1120
-1116
-1113
-1111
-1108
-1108
-1105
-1103
-1101
-1098
-1093
-1089
-1089
-1091
-1090
-1091
-1092
-1095
-1097
-1101
-1105
-1108
-1109
-1112
-1114
-1119
-1123
-1125
-1128
-1130
-1130
-1132
-1132
-1132
-1135
-1135
-1136
-1137
-1138
-1142
-1139
-1129
-1123
-1122
-1118
-1103
-1085
-1061
-1052
-1058
-1079
-1100
-1116
-1142
-1173
-1199
-1215
-1220
-1221
-1219
-1214
-1203
-1189
-1179
-1173
-1171
-1169
-1170
-1169
-1171
-1171
-1170
-1169
-1172
-1172
-1175
-1175
-1176
-1176
-1178
-1179
-1179
-1179
-1180
-1179
-1179
-1179
-1178
-1176
-1174
-1172
-1169
-1167
-1164
-1162
-1159
-1154
-1151
-1148
-1145
-1141
-1137
-1135
-1133
-1131
-1129
-1128
-1126
-1126
-1126
-1127
-1126
-1127
-1128
-1129
-1130
-1132
-1132
-1133
-1136
-1137
-1137
-1137
-1138
-1139
-1140
-1139
-1139
-1138
-1138
-1138
-1137
-1136
-1134
-1133
-1129
-1126
-1124
-1123
-1121
-1119
-1117
-1115
-1111
-1106
-1102
-1099
-1100
-1101
-1101
-1101
-1103
-1106
-1109
-1113
-1116
-1118
-1120
-1121
-1127
-1129
-1132
-1134
-1137
-1138
-1140
-1139
-1139
-1141
-1141
-1143
-1144
-1147
-1152
-1149
-1138
-1133
-1132
-1128
-1115
-1097
-1074
-1063
-1066
-1084
-1103
-1116
-1140
-1168
-1194
-1212
-1220
-1222
-1220
-1218
-1212
-1200
-1190
-1182
-1178
-1176
-1176
-1174
-1176
-1175
-1176
-1176
-1177
-1179
-1180
-1180
-1180
-1181
-1183
-1183
-1183
-1183
-1184
-1183
-1183
-1183
-1183
-1181
-1182
-1181
-1179
-1176
-1173
-1171
-1170
-1167
-1163
-1160
-1157
-1154
-1149
-1146
-1143
-1141
-1140
-1137
-1136
-1135
-1135
-1136
-1136
-1135
-1136
-1137
-1137
-1137
-1137
-1139
-1140
-1141
-1143
-1144
-1144
-1143
-1144
-1144
-1144
-1142
-1141
-1142
-1141
-1139
-1137
-1137
-1135
-1132
-1128
-1125
-1124
-1123
-1123
-1121
-1119
-1114
-1110
-1106
-1105
-1106
-1105
-1106
-1108
-1109
-1111
-1114
-1116
-1118
-1120
-1123
-1127
-1132
-1137
-1138
-1139
-1141
-1144
-1144
-1144
-1143
-1144
-1145
-1146
-1147
-1149
-1153
-1149
-1139
-1134
-1132
-1128
-1115
-1097
-1075
-1065
-1069
-1089
-1106
-1120
-1145
-1172
-1194
-1208
-1212
-1212
-1211
-1208
-1200
-1190
-1181
-1176
-1174
-1172
-1171
-1172
-1172
-1172
-1173
-1173
-1173
-1174
-1176
-1176
-1175
-1175
-1176
-1178
-1178
-1178
-1178
-1178
-1176
-1176
-1174
-1173
-1171
-1169
-1166
-1163
-1160
-1157
-1155
-1151
-1147
-1144
-1143
-1139
-1136
-1132
-1130
-1129
-1126
-1126
-1125
-1125
-1126
-1126
-1126
-1127
-1128
-1129
-1130
-1129
-1131
-1132
-1133
-1134
-1133
-1134
-1135
-1136
-1135
-1133
-1133
-1133
-1132
-1132
-1130
-1129
-1126
-1124
-1120
-1118
-1115
-1113
-1112
-1111
-1107
-1101
-1096
-1093
-1092
-1092
-1091
-1091
-1093
-1095
-1096
-1099
-1101
-1103
-1106
-1108
-1111
-1115
-1119
-1123
-1126
-1128
-1129
-1129
-1131
-1131
-1132
-1132
-1133
-1136
-1137
-1140
-1137
-1128
-1122
-1120
-1115
-1102
-1086
-1067
-1056
-1063
-1085
-1104
-1119
-1141
-1169
-1191
-1201
-1205
-1204
-1201
-1197
-1188
-1176
-1169
-1164
-1163
-1163
-1163
-1162
-1162
-1162
-1163
-1164
-1164
-1165
-1167
-1168
-1168
-1169
-1171
-1172
-1173
-1174
-1174
-1173
-1175
-1173
-1171
-1169
-1167
-1165
-1163
-1160
-1157
-1154
-1151
-1148
-1144
-1141
-1138
-1135
-1132
-1129
-1127
-1125
-1123
-1122
-1121
-1120
-1120
-1121
-1123
-1123
-1123
-1124
-1126
-1126
-1126
-1126
-1128
-1130
-1131
-1131
-1132
-1132
-1132
-1133
-1132
-1132
-1132
-1131
-1130
-1129
-1126
-1125
-1123
-1120
-1116
-1114
-1112
-1112
-1111
-1110
-1107
-1103
-1099
-1096
-1096
-1096
-1096
-1096
-1097
-1101
-1102
-1106
-1110
-1112
-1113
-1115
-1118
-1123
-1126
-1129
-1130
-1132
-1133
-1133
-1133
-1133
-1135
-1136
-1137
-1137
-1138
-1142
-1139
-1129
-1122
-1119
-1113
-1099
-1080
-1057
-1052
-1062
-1086
-1106
-1125
-1151
-1184
-1205
-1214
-1215
-1214
-1211
-1204
-1190
-1177
-1169
-1167
-1166
-1165
-1165
-1165
-1164
-1165
-1165
-1166
-1166
-1167
-1168
-1168
-1169
-1170
-1171
-1171
-1171
-1172
-1172
-1174
-1173
-1171
-1169
-1168
-1166
-1163
-1161
-1159
-1154
-1151
-1149
-1146
-1142
-1139
-1137
-1134
-1130
-1126
-1124
-1123
-1121
-1120
-1118
-1118
-1119
-1120
-1120
-1120
-1122
-1123
-1125
-1125
-1126
-1126
-1128
-1130
-1129
-1130
-1130
-1132
-1132
-1130
-1130
-1130
-1130
-1129
-1128
-1126
-1126
-1125
-1123
-1119
-1116
-1113
-1112
-1111
-1108
-1107
-1104
-1102
-1097
-1093
-1091
-1093
-1094
-1095
-1096
-1098
-1101
-1104
-1108
-1111
-1112
-1116
-1119
-1123
-1126
-1129
-1131
-1132
-1132
-1133
-1135
-1137
-1137
-1137
-1137
-1139
-1140
-1144
-1142
-1131
-1125
-1123
-1120
-1108
-1089
-1067
-1056
-1067
-1088
-1107
-1123
-1150
-1184
-1209
-1222
-1227
-1225
-1222
-1216
-1203
-1189
-1180
-1176
-1175
-1174
-1173
-1173
-1173
-1173
-1172
-1172
-1174
-1175
-1176
-1176
-1177
-1178
-1179
-1180
-1180
-1180
-1181
-1181
-1182
-1180
-1180
-1180
-1176
-1174
-1171
-1169
-1166
-1163
-1160
-1157
-1153
-1150
-1147
-1144
-1140
-1137
-1136
-1133
-1132
-1130
-1129
-1130
-1130
-1129
-1129
-1130
-1132
-1133
-1136
-1137
-1138
-1140
-1141
-1141
-1143
-1144
-1144
-1146
-1146
-1146
-1146
-1146
-1145
-1144
-1143
-1143
-1141
-1140
-1137
-1135
-1132
-1130
-1128
-1126
-1123
-1122
-1122
-1120
-1116
-1112
-1107
-1107
-1108
-1108
-1108
-1111
-1114
-1116
-1118
-1121
-1123
-1126
-1129
-1129
-1132
-1136
-1139
-1142
-1144
-1144
-1146
-1146
-1147
-1148
-1149
-1149
-1150
-1151
-1154
-1157
-1151
-1142
-1138
-1137
-1130
-1112
-1092
-1069
-1067
-1076
-1101
-1119
-1140
-1169
-1199
-1221
-1231
-1234
-1231
-1230
-1224
-1212
-1198
-1188
-1183
-1182
-1180
-1180
-1179
-1178
-1178
-1179
-1180
-1180
-1180
-1181
-1183
-1184
-1184
-1185
-1186
-1188
-1189
-1189
-1188
-1189
-1188
-1187
-1185
-1183
-1180
-1178
-1176
-1173
-1169
-1166
-1163
-1160
-1156
-1151
-1148
-1144
-1142
-1139
-1137
-1135
-1133
-1133
-1131
-1130
-1131
-1132
-1132
-1132
-1133
-1135
-1137
-1137
-1138
-1138
-1140
-1141
-1141
-1142
-1142
-1143
-1144
-1143
-1142
-1141
-1141
-1139
-1137
-1137
-1136
-1135
-1132
-1129
-1126
-1124
-1124
-1121
-1120
-1118
-1116
-1112
-1106
-1104
-1103
-1105
-1105
-1107
-1109
-1111
-1112
-1117
-1120
-1121
-1124
-1126
-1129
-1132
-1136
-1137
-1139
-1140
-1141
-1142
-1143
-1143
-1144
-1145
-1146
-1146
-1147
-1151
-1148
-1137
-1133
-1132
-1128
-1114
-1094
-1071
-1063
-1069
-1091
-1107
-1123
-1150
-1180
-1206
-1221
-1225
-1225
-1222
-1219
-1210
-1197
-1186
-1180
-1178
-1176
-1176
-1175
-1175
-1175
-1176
-1176
-1176
-1177
-1178
-1178
-1178
-1179
-1180
-1180
-1181
-1181
-1181
-1183
-1182
-1181
-1180
-1178
-1177
-1176
-1172
-1170
-1166
-1164
-1162
-1159
-1155
-1151
-1148
-1146
-1144
-1140
-1137
-1134
-1133
-1132
-1130
-1129
-1129
-1129
-1129
-1129
-1129
-1132
-1131
-1132
-1132
-1134
-1135
-1136
-1137
-1137
-1137
-1138
-1138
-1139
-1137
-1137
-1136
-1135
-1132
-1132
-1130
-1129
-1129
-1126
-1122
-1120
-1117
-1116
-1113
-1112
-1111
-1108
-1105
-1101
-1097
-1096
-1097
-1098
-1099
-1100
-1103
-1105
-1109
-1112
-1113
-1115
-1118
-1121
-1125
-1129
-1131
-1132
-1132
-1133
-1133
-1135
-1136
-1137
-1137
-1137
-1138
-1141
-1144
-1141
-1129
-1123
-1123
-1118
-1103
-1083
-1061
-1052
-1061
-1082
-1100
-1117
-1143
-1171
-1193
-1205
-1210
-1210
-1207
-1203
-1193
-1181
-1172
-1167
-1166
-1164
-1163
-1163
-1163
-1162
-1162
-1163
-1163
-1164
-1164
-1165
-1166
-1167
-1168
-1169
-1169
-1169
-1171
-1171
-1171
-1169
-1169
-1168
-1166
-1163
-1161
-1158
-1154
-1151
-1148
-1146
-1143
-1140
-1137
-1133
-1130
-1127
-1125
-1123
-1119
-1118
-1117
-1117
-1117
-1116
-1116
-1117
-1119
-1119
-1119
-1122
-1123
-1124
-1125
-1125
-1126
-1128
-1129
-1129
-1129
-1129
-1129
-1129
-1128
-1127
-1126
-1126
-1125
-1123
-1120
-1119
-1117
-1115
-1111
-1108
-1106
-1105
-1103
-1103
-1100
-1096
-1093
-1090
-1089
-1091
-1091
-1093
-1095
-1097
-1098
-1101
-1105
-1107
-1109
-1112
-1114
-1118
-1122
-1125
-1126
-1127
-1129
-1131
-1131
-1132
-1132
-1133
-1133
-1135
-1136
-1137
-1139
-1130
-1122
-1119
-1117
-1109
-1093
-1072
-1053
-1058
-1076
-1098
-1113
-1132
-1162
-1191
-1207
-1214
-1213
-1210
-1205
-1194
-1180
-1170
-1164
-1163
-1162
-1162
-1161
-1161
-1162
-1161
-1161
-1161
-1162
-1163
-1164
-1165
-1165
-1167
-1168
-1169
-1169
-1169
-1169
-1169
-1169
-1168
-1166
-1164
-1162
-1160
-1157
-1154
-1152
-1149
-1146
-1142
-1137
-1135
-1132
-1129
-1125
-1122
-1120
-1120
-1118
-1116
-1115
-1116
-1116
-1116
-1116
-1117
-1119
-1121
-1122
-1123
-1123
-1125
-1126
-1127
-1128
-1129
-1130
-1131
-1130
-1131
-1129
-1129
-1129
-1129
-1128
-1126
-1126
-1125
-1124
-1121
-1120
-1117
-1114
-1111
-1108
-1108
-1106
-1106
-1104
-1103
-1098
-1095
-1092
-1093
-1094
-1094
-1095
-1098
-1099
-1101
-1106
-1109
-1111
-1112
-1114
-1117
-1121
-1126
-1128
-1129
-1130
-1130
-1131
-1132
-1132
-1133
-1133
-1134
-1136
-1137
-1140
-1137
-1126
-1120
-1119
-1116
-1103
-1086
-1062
-1050
-1058
-1078
-1098
-1113
-1137
-1168
-1197
-1214
-1221
-1219
-1218
-1215
-1205
-1190
-1178
-1171
-1167
-1167
-1165
-1164
-1164
-1165
-1165
-1166
-1166
-1166
-1166
-1168
-1169
-1169
-1171
-1172
-1173
-1174
-1175
-1175
-1175
-1175
-1174
-1173
-1171
-1168
-1166
-1163
-1161
-1157
-1155
-1153
-1150
-1147
-1144
-1140
-1138
-1135
-1132
-1130
-1128
-1127
-1126
-1124
-1123
-1122
-1122
-1123
-1124
-1125
-1126
-1127
-1128
-1129
-1130
-1131
-1132
-1132
-1132
-1134
-1133
-1135
-1136
-1136
-1135
-1135
-1135
-1134
-1132
-1132
-1129
-1129
-1126
-1126
-1125
-1122
-1120
-1118
-1115
-1114
-1112
-1111
-1111
-1111
-1107
-1103
-1099
-1097
-1097
-1098
-1099
-1102
-1105
-1106
-1108
-1112
-1117
-1119
-1121
-1124
-1126
-1130
-1132
-1134
-1136
-1137
-1138
-1139
-1139
-1138
-1139
-1141
-1142
-1142
-1144
-1146
-1139
-1132
-1129
-1128
-1120
-1103
-1082
-1062
-1061
-1073
-1094
-1106
-1125
-1151
-1182
-1205
-1217
-1219
-1219
-1218
-1212
-1201
-1188
-1179
-1172
-1172
-1171
-1171
-1169
-1169
-1169
-1170
-1169
-1169
-1171
-1171
-1172
-1173
-1174
-1175
-1176
-1176
-1177
-1177
-1178
-1177
-1176
-1175
-1173
-1171
-1169
-1166
-1163
-1161
-1158
-1155
-1153
-1149
-1146
-1144
-1140
-1137
-1132
-1132
-1129
-1128
-1126
-1125
-1124
-1124
-1125
-1126
-1126
-1127
-1128
-1128
-1129
-1129
-1130
-1132
-1132
-1134
-1134
-1135
-1137
-1137
-1137
-1136
-1135
-1133
-1132
-1133
-1132
-1130
-1129
-1129
-1126
-1124
-1122
-1120
-1119
-1117
-1113
-1111
-1111
-1111
-1110
-1108
-1107
-1104
-1099
-1096
-1095
-1097
-1098
-1098
-1101
-1103
-1105
-1109
-1114
-1117
-1119
-1122
-1125
-1129
-1131
-1132
-1134
-1135
-1137
-1137
-1137
-1137
-1138
-1140
-1139
-1140
-1142
-1146
-1143
-1133
-1128
-1126
-1123
-1110
-1091
-1069
-1058
-1064
-1083
-1098
-1114
-1138
-1167
-1191
-1205
-1209
-1209
-1208
-1205
-1197
-1185
-1175
-1169
-1168
-1167
-1166
-1166
-1166
-1167
-1168
-1168
-1169
-1171
-1172
-1171
-1171
-1172
-1173
-1174
-1174
-1175
-1176
-1175
-1176
-1173
-1171
-1171
-1170
-1168
-1166
-1162
-1160
-1158
-1154
-1151
-1147
-1144
-1142
-1140
-1137
-1133
-1131
-1129
-1127
-1125
-1125
-1123
-1123
-1123
-1124
-1124
-1124
-1125
-1125
-1126
-1126
-1128
-1130
-1129
-1130
-1132
-1132
-1133
-1135
-1135
-1133
-1134
-1132
-1132
-1131
-1130
-1129
-1129
-1126
-1125
-1123
-1122
-1120
-1119
-1117
-1113
-1110
-1108
-1107
-1107
-1106
-1105
-1103
-1100
-1096
-1094
-1095
-1096
-1098
-1099
-1100
-1103
-1105
-1109
-1112
-1112
-1116
-1118
-1121
-1125
-1128
-1131
-1132
-1133
-1132
-1135
-1137
-1137
-1137
-1137
-1137
-1139
-1141
-1144
-1139
-1129
-1125
-1124
-1119
-1105
-1087
-1066
-1061
-1073
-1094
-1111
-1125
-1147
-1176
-1198
-1210
-1214
-1213
-1211
-1205
-1194
-1183
-1173
-1168
-1165
-1165
-1165
-1164
-1164
-1165
-1164
-1164
-1166
-1167
-1167
-1167
-1169
-1169
-1170
-1171
-1172
-1173
-1174
-1173
-1172
-1172
-1171
-1171
-1169
-1166
-1164
-1162
-1160
-1158
-1154
-1150
-1148
-1146
-1142
-1139
-1135
-1132
-1130
-1129
-1126
-1125
-1125
-1124
-1124
-1124
-1124
-1125
-1126
-1127
-1126
-1127
-1129
-1129
-1131
-1132
-1132
-1133
-1135
-1135
-1135
-1136
-1137
-1137
-1136
-1136
-1136
-1137
-1136
-1135
-1133
-1132
-1131
-1130
-1128
-1126
-1124
-1121
-1119
-1116
-1114
-1114
-1113
-1113
-1112
-1108
-1104
-1102
-1101
-1103
-1103
-1104
-1106
-1110
-1112
-1114
-1118
-1121
-1123
-1125
-1126
-1129
-1133
-1137
-1139
-1141
-1141
-1142
-1144
-1144
-1144
-1144
-1144
-1146
-1146
-1148
-1150
-1144
-1136
-1132
-1132
-1124
-1108
-1088
-1068
-1065
-1079
-1103
-1120
-1137
-1165
-1197
-1217
-1226
-1229
-1227
-1223
-1215
-1201
-1188
-1180
-1176
-1176
-1175
-1174
-1173
-1172
-1172
-1173
-1173
-1174
-1174
-1176
-1177
-1178
-1178
-1179
-1180
-1180
-1183
-1181
-1180
-1180
-1180
-1180
-1178
-1174
-1173
-1171
-1169
-1166
-1163
-1160
-1157
-1155
-1152
-1147
-1145
-1142
-1139
-1136
-1134
-1132
-1130
-1129
-1128
-1128
-1128
-1129
-1130
-1130
-1130
-1132
-1132
-1135
-1136
-1136
-1136
-1137
-1138
-1139
-1139
-1140
-1141
-1142
-1141
-1141
-1140
-1139
-1139
-1138
-1137
-1136
-1135
-1133
-1131
-1129
-1128
-1127
-1125
-1123
-1119
-1116
-1116
-1116
-1116
-1115
-1114
-1112
-1108
-1104
-1101
-1103
-1103
-1105
-1106
-1108
-1111
-1114
-1118
-1120
-1123
-1125
-1126
-1129
-1132
-1135
-1137
-1139
-1140
-1140
-1141
-1142
-1143
-1144
-1145
-1144
-1146
-1146
-1149
-1146
-1135
-1130
-1130
-1126
-1112
-1091
-1068
-1061
-1070
-1092
-1108
-1125
-1151
-1185
-1210
-1223
-1227
-1227
-1225
-1219
-1207
-1192
-1181
-1176
-1175
-1174
-1172
-1172
-1173
-1172
-1172
-1172
-1175
-1176
-1176
-1175
-1176
-1178
-1180
-1180
-1180
-1180
-1180
-1180
-1180
-1179
-1178
-1176
-1175
-1172
-1170
-1167
-1164
-1162
-1159
-1156
-1153
-1150
-1147
-1144
-1140
-1137
-1135
-1132
-1132
-1129
-1129
-1129
-1129
-1129
-1129
-1129
-1130
-1130
-1131
-1132
-1132
-1133
-1135
-1136
-1137
-1137
-1138
-1139
-1139
-1140
-1141
-1140
-1140
-1138
-1137
-1137
-1137
-1135
-1132
-1132
-1129
-1129
-1128
-1125
-1123
-1120
-1118
-1116
-1116
-1114
-1113
-1112
-1110
-1105
-1101
-1099
-1101
-1102
-1102
-1103
-1105
-1109
-1112
-1116
-1118
-1120
-1123
-1126
-1130
-1132
-1135
-1137
-1137
-1139
-1139
-1140
-1142
-1142
-1142
-1143
-1143
-1144
-1146
-1148
-1141
-1132
-1129
-1129
-1122
-1106
-1085
-1062
-1060
-1068
-1089
-1103
-1119
-1146
-1176
-1197
-1212
-1217
-1216
-1215
-1213
-1203
-1191
-1181
-1175
-1173
-1171
-1171
-1171
-1171
-1171
-1171
-1171
-1171
-1173
-1174
-1175
-1176
-1176
-1178
-1176
-1178
-1179
-1180
-1180
-1180
-1180
-1178
-1177
-1174
-1172
-1169
-1167
-1165
-1162
-1159
-1156
-1152
-1149
-1145
-1142
-1139
-1137
-1133
-1131
-1129
-1127
-1126
-1127
-1127
-1127
-1126
-1126
-1126
-1128
-1128
-1129
-1129
-1131
-1132
-1132
-1133
-1136
-1137
-1137
-1137
-1137
-1137
-1137
-1136
-1135
-1135
-1134
-1132
-1132
-1129
-1129
-1126
-1126
-1123
-1120
-1118
-1116
-1115
-1113
-1112
-1112
-1110
-1108
-1103
-1099
-1096
-1096
-1098
-1098
-1100
-1103
-1104
-1107
-1112
-1113
-1116
-1119
-1122
-1126
-1129
-1131
-1132
-1133
-1136
-1136
-1137
-1137
-1139
-1140
-1141
-1140
-1141
-1144
-1146
-1140
-1130
-1128
-1127
-1121
-1106
-1087
-1067
-1065
-1072
-1092
-1104
-1116
-1139
-1166
-1188
-1202
-1209
-1209
-1206
-1203
-1196
-1185
-1176
-1171
-1168
-1167
-1167
-1167
-1166
-1166
-1166
-1167
-1168
-1168
-1168
-1169
-1170
-1171
-1171
-1171
-1173
-1173
-1174
-1175
-1174
-1173
-1173
-1172
-1170
-1169
-1166
-1164
-1162
-1160
-1156
-1154
-1150
-1147
-1144
-1141
-1137
-1136
-1132
-1132
-1129
-1129
-1129
-1130
-1128
-1127
-1126
-1128
-1129
-1130
-1131
-1131
-1131
-1132
-1133
-1134
-1133
-1135
-1137
-1137
-1137
-1137
-1137
-1137
-1137
-1137
-1136
-1135
-1135
-1133
-1132
-1132
-1130
-1129
-1126
-1124
-1120
-1118
-1116
-1114
-1114
-1112
-1109
-1105
-1100
-1098
-1099
-1100
-1100
-1101
-1103
-1104
-1106
-1108
-1112
-1115
-1117
-1120
-1126
-1129
-1132
-1132
-1135
-1137
-1138
-1138
-1138
-1140
-1140
-1140
-1140
-1141
-1142
-1144
-1140
-1130
-1125
-1124
-1119
-1107
-1090
-1069
-1057
-1063
-1082
-1098
-1112
-1134
-1162
-1186
-1197
-1201
-1201
-1200
-1197
-1189
-1180
-1172
-1168
-1165
-1163
-1163
-1163
-1164
-1164
-1164
-1165
-1166
-1166
-1167
-1168
-1168
-1169
-1170
-1171
-1172
-1171
-1171
-1172
-1172
-1172
-1171
-1169
-1168
-1166
-1164
-1162
-1160
-1158
-1156
-1155
-1151
-1148
-1146
-1144
-1140
-1137
-1133
-1133
-1132
-1130
-1129
-1128
-1128
-1126
-1126
-1126
-1126
-1127
-1129
-1128
-1129
-1129
-1132
-1132
-1132
-1132
-1133
-1133
-1135
-1135
-1135
-1135
-1135
-1135
-1133
-1132
-1132
-1131
-1129
-1128
-1126
-1125
-1123
-1122
-1120
-1116
-1112
-1110
-1110
-1108
-1107
-1106
-1105
-1103
-1098
-1094
-1093
-1095
-1096
-1096
-1098
-1100
-1102
-1104
-1108
-1111
-1113
-1115
-1119
-1121
-1125
-1128
-1130
-1131
-1132
-1132
-1132
-1132
-1134
-1136
-1136
-1137
-1137
-1140
-1141
-1136
-1126
-1121
-1121
-1117
-1103
-1087
-1067
-1058
-1069
-1089
-1107
-1121
-1144
-1171
-1191
-1201
-1205
-1205
-1204
-1199
-1190
-1179
-1170
-1165
-1164
-1163
-1162
-1162
-1162
-1161
-1161
-1161
-1162
-1162
-1163
-1163
-1163
-1164
-1165
-1166
-1167
-1167
-1169
-1169
-1169
-1167
-1166
-1166
-1165
-1163
-1161
-1159
-1157
-1154
-1151
-1147
-1145
-1141
-1139
-1137
-1133
-1130
-1128
-1126
-1124
-1121
-1121
-1120
-1120
-1120
-1120
-1120
-1120
-1121
-1121
-1122
-1122
-1124
-1125
-1126
-1127
-1128
-1130
-1130
-1130
-1130
-1131
-1131
-1130
-1130
-1129
-1128
-1128
-1128
-1125
-1124
-1122
-1121
-1120
-1118
-1116
-1114
-1112
-1110
-1107
-1105
-1104
-1104
-1103
-1103
-1101
-1096
-1094
-1094
-1095
-1095
-1096
-1098
-1101
-1103
-1106
-1110
-1112
-1114
-1116
-1118
-1122
-1126
-1129
-1130
-1130
-1131
-1133
-1134
-1133
-1133
-1135
-1135
-1136
-1137
-1138
-1140
-1133
-1125
-1119
-1116
-1108
-1093
-1073
-1052
-1052
-1068
-1092
-1110
-1129
-1156
-1184
-1201
-1210
-1211
-1207
-1205
-1197
-1185
-1174
-1167
-1164
-1163
-1163
-1163
-1162
-1162
-1162
-1162
-1163
-1163
-1164
-1165
-1166
-1167
-1167
-1168
-1169
-1171
-1169
-1169
-1170
-1170
-1169
-1167
-1166
-1164
-1163
-1161
-1158
-1155
-1153
-1151
-1147
-1144
-1139
-1136
-1133
-1130
-1128
-1124
-1122
-1122
-1120
-1120
-1120
-1119
-1120
-1121
-1121
-1122
-1123
-1124
-1126
-1126
-1128
-1130
-1132
-1132
-1132
-1133
-1133
-1133
-1134
-1133
-1133
-1133
-1133
-1132
-1130
-1129
-1129
-1127
-1126
-1123
-1122
-1120
-1119
-1117
-1113
-1111
-1110
-1108
-1107
-1106
-1105
-1103
-1101
-1096
-1095
-1095
-1097
-1098
-1100
-1103
-1104
-1108
-1112
-1114
-1115
-1118
-1120
-1124
-1128
-1131
-1132
-1135
-1136
-1137
-1137
-1138
-1139
-1140
-1140
-1140
-1141
-1143
-1146
-1141
-1130
-1125
-1124
-1119
-1105
-1087
-1064
-1057
-1069
-1090
-1108
-1124
-1150
-1183
-1206
-1218
-1221
-1221
-1218
-1210
-1197
-1184
-1176
-1173
-1172
-1171
-1169
-1169
-1169
-1168
-1168
-1168
-1169
-1169
-1169
-1169
-1171
-1171
-1173
-1173
-1174
-1174
-1175
-1175
-1175
-1175
-1173
-1171
-1170
-1168
-1165
-1162
-1159
-1157
-1154
-1150
-1147
-1144
-1141
-1137
-1133
-1131
-1130
-1127
-1125
-1123
-1123
-1122
-1123
-1123
-1123
-1124
-1125
-1126
-1128
-1129
-1129
-1131
-1132
-1133
-1133
-1134
-1136
-1137
-1137
-1137
-1137
-1137
-1137
-1136
-1135
-1135
-1133
-1132
-1131
-1129
-1127
-1126
-1125
-1122
-1119
-1116
-1114
-1113
-1112
-1111
-1111
-1109
-1105
-1101
-1098
-1098
-1100
-1100
-1101
-1103
-1105
-1108
-1113
-1115
-1117
-1119
-1123
-1127
-1130
-1133
-1136
-1137
-1138
-1139
-1140
-1141
-1142
-1142
-1143
-1144
-1144
-1146
-1150
-1148
-1137
-1132
-1132
-1126
-1112
-1094
-1070
-1060
-1068
-1086
-1106
-1123
-1150
-1183
-1208
-1221
-1225
-1225
-1222
-1215
-1202
-1188
-1179
-1175
-1173
-1172
-1171
-1172
-1171
-1171
-1173
-1172
-1172
-1173
-1175
-1175
-1177
-1178
-1179
-1179
-1180
-1180
-1182
-1182
-1180
-1180
-1180
-1180
-1178
-1175
-1173
-1171
-1169
-1165
-1162
-1159
-1156
-1153
-1149
-1146
-1141
-1138
-1136
-1132
-1130
-1129
-1129
-1129
-1129
-1129
-1129
-1130
-1131
-1132
-1133
-1135
-1137
-1137
-1137
-1139
-1139
-1140
-1142
-1143
-1144
-1145
-1146
-1145
-1144
-1144
-1142
-1142
-1141
-1140
-1139
-1137
-1135
-1135
-1132
-1129
-1125
-1123
-1121
-1120
-1118
-1117
-1116
-1114
-1111
-1107
-1105
-1105
-1106
-1107
-1108
-1110
-1112
-1116
-1120
-1122
-1125
-1128
-1130
-1132
-1135
-1138
-1140
-1142
-1144
-1144
-1144
-1144
-1146
-1146
-1147
-1148
-1149
-1151
-1155
-1151
-1141
-1135
-1133
-1132
-1116
-1096
-1072
-1060
-1069
-1088
-1108
-1124
-1150
-1184
-1212
-1226
-1231
-1230
-1229
-1223
-1213
-1197
-1185
-1180
-1177
-1176
-1175
-1174
-1174
-1174
-1174
-1174
-1175
-1176
-1176
-1176
-1176
-1178
-1179
-1180
-1180
-1180
-1180
-1181
-1182
-1180
-1180
-1180
-1178
-1176
-1173
-1171
-1169
-1165
-1162
-1159
-1156
-1153
-1149
-1144
-1141
-1138
-1136
-1133
-1130
-1129
-1128
-1127
-1126
-1126
-1126
-1126
-1128
-1130
-1130
-1130
-1132
-1132
-1133
-1136
-1137
-1137
-1137
-1138
-1138
-1137
-1137
-1137
-1137
-1137
-1135
-1135
-1133
-1132
-1130
-1128
-1125
-1123
-1121
-1119
-1117
-1116
-1113
-1108
-1103
-1100
-1100
-1101
-1101
-1102
-1104
-1105
-1108
-1112
-1113
-1115
-1118
-1120
-1123
-1126
-1129
-1131
-1132
-1135
-1137
-1137
-1137
-1139
-1140
-1139
-1140
-1141
-1143
-1146
-1148
-1137
-1129
-1126
-1123
-1112
-1093
-1069
-1051
-1054
-1070
-1094
-1113
-1140
-1176
-1205
-1223
-1230
-1231
-1229
-1225
-1212
-1197
-1184
-1177
-1174
-1172
-1171
-1171
-1171
-1169
-1169
-1171
-1171
-1171
-1171
-1172
-1173
-1174
-1175
-1176
-1177
-1176
-1178
-1178
-1178
-1176
-1176
-1175
-1173
-1171
-1168
-1165
-1162
-1159
-1156
-1151
-1149
-1146
-1143
-1139
-1136
-1133
-1131
-1129
-1126
-1124
-1123
-1124
-1122
-1122
-1122
-1124
-1125
-1126
-1128
-1129
-1130
-1131
-1132
-1132
-1134
-1135
-1136
-1137
-1136
-1136
-1136
-1136
-1133
-1132
-1131
-1130
-1129
-1126
-1122
-1119
-1118
-1117
-1115
-1113
-1112
-1109
-1104
-1100
-1097
-1098
-1098
-1099
-1099
-1103
-1106
-1108
-1112
-1114
-1116
-1118
-1120
-1124
-1127
-1130
-1131
-1134
-1136
-1137
-1137
-1137
-1138
-1140
-1139
-1141
-1142
-1144
-1147
-1141
-1131
-1129
-1126
-1119
-1102
-1080
-1060
-1060
-1072
-1094
-1108
-1132
-1162
-1193
-1214
-1226
-1228
-1227
-1224
-1219
-1205
-1190
-1181
-1175
-1173
-1172
-1171
-1171
-1171
-1170
-1169
-1169
-1171
-1172
-1172
-1172
-1173
-1176
-1176
-1176
-1176
-1177
-1176
-1176
-1176
-1174
-1173
-1172
-1171
-1168
-1164
-1162
-1159
-1155
-1151
-1149
-1146
-1143
-1140
-1136
-1133
-1130
-1127
-1125
-1122
-1120
-1120
-1120
-1119
-1119
-1118
-1119
-1121
-1123
-1124
-1125
-1126
-1127
-1128
-1129
-1129
-1130
-1130
-1130
-1129
-1129
-1130
-1129
-1128
-1126
-1126
-1123
-1122
-1120
-1118
-1115
-1113
-1112
-1110
-1107
-1105
-1103
-1098
-1094
-1092
-1091
-1092
-1092
-1093
-1095
-1097
-1101
-1105
-1107
-1108
-1110
-1112
-1116
-1121
-1123
-1125
-1126
-1129
-1130
-1130
-1131
-1131
-1132
-1132
-1132
-1134
-1137
-1141
-1136
-1125
-1120
-1119
-1114
-1096
-1076
-1054
-1049
-1054
-1078
-1094
-1113
-1142
-1171
-1196
-1209
-1214
-1212
-1210
-1207
-1197
-1184
-1173
-1167
-1165
-1162
-1161
-1161
-1161
-1161
-1160
-1161
-1162
-1163
-1163
-1163
-1164
-1166
-1168
-1169
-1169
-1170
-1171
-1171
-1170
-1168
-1167
-1165
-1163
-1161
-1158
-1155
-1153
-1150
-1146
-1142
-1139
-1136
-1133
-1129
-1126
-1123
-1122
-1119
-1117
-1115
-1114
-1113
-1112
-1112
-1112
-1113
-1115
-1115
-1116
-1116
-1118
-1119
-1120
-1120
-1120
-1120
-1121
-1122
-1122
-1121
-1122
-1121
-1120
-1119
-1119
-1117
-1116
-1114
-1112
-1108
-1105
-1104
-1103
-1101
-1100
-1099
-1096
-1092
-1087
-1086
-1087
-1088
-1088
-1089
-1092
-1094
-1097
-1101
-1103
-1105
-1107
-1110
-1113
-1117
-1119
-1122
-1124
-1125
-1125
-1124
-1125
-1126
-1127
-1128
-1129
-1130
-1132
-1136
-1133
-1122
-1117
-1115
-1112
-1101
-1083
-1062
-1051
-1059
-1078
-1098
-1112
-1136
-1165
-1191
-1207
-1214
-1214
-1210
-1205
-1196
-1182
-1171
-1164
-1163
-1162
-1160
-1160
-1160
-1159
-1157
-1158
-1159
-1159
-1160
-1160
-1162
-1162
-1163
-1164
-1165
-1164
-1166
-1166
-1166
-1166
-1166
-1164
-1163
-1160
-1158
-1155
-1154
-1151
-1149
-1146
-1142
-1139
-1136
-1132
-1130
-1127
-1125
-1122
-1120
-1119
-1117
-1117
-1116
-1116
-1116
-1116
-1118
-1119
-1120
-1121
-1122
-1124
-1125
-1125
-1125
-1126
-1128
-1129
-1130
-1130
-1130
-1130
-1130
-1129
-1129
-1127
-1127
-1126
-1124
-1122
-1120
-1119
-1117
-1114
-1112
-1109
-1108
-1107
-1108
-1106
-1103
-1099
-1095
-1094
-1093
-1094
-1095
-1097
-1099
-1101
-1104
-1108
-1111
-1112
-1115
-1117
-1120
-1124
-1128
-1129
-1129
-1132
-1134
-1133
-1133
-1135
-1137
-1137
-1137
-1138
-1140
-1144
-1140
-1129
-1125
-1124
-1118
-1103
-1083
-1060
-1055
-1067
-1089
-1108
-1125
-1154
-1188
-1213
-1225
-1226
-1225
-1222
-1212
-1197
-1183
-1173
-1170
-1169
-1167
-1166
-1167
-1166
-1165
-1165
-1165
-1166
-1168
-1168
-1169
-1169
-1170
-1171
-1171
-1171
-1171
-1171
-1171
-1171
-1169
-1167
-1166
-1164
-1163
-1159
-1156
-1154
-1151
-1148
-1145
-1141
-1139
-1137
-1133
-1129
-1126
-1124
-1122
-1120
-1119
-1119
-1120
-1120
-1120
-1121
-1121
-1123
-1125
-1125
-1126
-1128
-1129
-1130
-1132
-1133
-1135
-1135
-1137
-1137
-1137
-1137
-1137
-1137
-1137
-1137
-1136
-1133
-1133
-1132
-1130
-1129
-1127
-1126
-1124
-1119
-1117
-1115
-1114
-1112
-1112
-1108
-1107
-1103
-1099
-1096
-1097
-1098
-1100
-1103
-1104
-1106
-1110
-1115
-1118
-1120
-1123
-1124
-1128
-1132
-1134
-1135
-1137
-1138
-1140
-1140
-1140
-1142
-1143
-1144
-1144
-1144
-1146
-1149
-1144
-1135
-1132
-1132
-1126
-1111
-1091
-1069
-1068
-1080
-1102
-1116
-1134
-1163
-1197
-1220
-1232
-1235
-1233
-1231
-1222
-1207
-1192
-1183
-1179
-1176
-1176
-1174
-1174
-1175
-1175
-1173
-1175
-1175
-1175
-1176
-1176
-1176
-1179
-1180
-1180
-1180
-1180
-1180
-1180
-1180
-1179
-1177
-1175
-1174
-1172
-1169
-1166
-1163
-1161
-1158
-1154
-1151
-1148
-1144
-1142
-1138
-1136
-1133
-1131
-1129
-1128
-1128
-1128
-1127
-1127
-1128
-1129
-1129
-1130
-1132
-1133
-1137
-1138
-1139
-1140
-1141
-1143
-1144
-1146
-1146
-1144
-1144
-1144
-1144
-1142
-1141
-1141
-1140
-1139
-1137
-1136
-1133
-1132
-1131
-1131
-1128
-1127
-1125
-1123
-1120
-1120
-1119
-1119
-1119
-1117
-1115
-1112
-1108
-1108
-1108
-1109
-1108
-1111
-1114
-1116
-1119
-1124
-1126
-1129
-1131
-1133
-1137
-1141
-1144
-1144
-1146
-1146
-1148
-1148
-1149
-1150
-1150
-1150
-1151
-1151
-1154
-1156
-1150
-1142
-1139
-1137
-1132
-1116
-1096
-1075
-1071
-1078
-1099
-1116
-1132
-1160
-1189
-1213
-1227
-1231
-1229
-1227
-1222
-1211
-1198
-1187
-1181
-1180
-1178
-1176
-1176
-1176
-1176
-1176
-1176
-1176
-1178
-1180
-1181
-1182
-1182
-1183
-1184
-1184
-1185
-1184
-1185
-1185
-1184
-1183
-1180
-1179
-1176
-1174
-1172
-1168
-1166
-1163
-1160
-1155
-1151
-1147
-1144
-1142
-1139
-1137
-1135
-1133
-1133
-1131
-1130
-1129
-1130
-1130
-1131
-1131
-1132
-1133
-1133
-1135
-1135
-1137
-1137
-1139
-1140
-1141
-1142
-1143
-1142
-1141
-1141
-1140
-1142
-1139
-1137
-1137
-1136
-1135
-1133
-1132
-1130
-1130
-1129
-1127
-1125
-1121
-1119
-1118
-1118
-1116
-1116
-1117
-1116
-1114
-1108
-1106
-1107
-1109
-1108
-1109
-1111
-1114
-1115
-1118
-1121
-1123
-1126
-1129
-1130
-1132
-1137
-1141
-1144
-1146
-1146
-1147
-1147
-1150
-1149
-1149
-1150
-1152
-1153
-1154
-1157
-1151
-1142
-1141
-1141
-1133
-1119
-1101
-1083
-1080
-1086
-1105
-1119
-1131
-1155
-1181
-1204
-1217
-1223
-1222
-1221
-1217
-1209
-1198
-1189
-1181
-1178
-1176
-1176
-1176
-1176
-1175
-1176
-1176
-1176
-1176
-1176
-1178
-1180
-1182
-1184
-1184
-1185
-1185
-1185
-1185
-1184
-1184
-1184
-1183
-1180
-1178
-1176
-1173
-1171
-1168
-1164
-1162
-1161
-1158
-1154
-1150
-1147
-1145
-1142
-1138
-1137
-1136
-1135
-1133
-1133
-1132
-1132
-1133
-1133
-1133
-1132
-1135
-1136
-1137
-1137
-1137
-1138
-1140
-1140
-1140
-1141
-1142
-1143
-1144
-1144
-1143
-1142
-1141
-1141
-1139
-1136
-1135
-1133
-1132
-1130
-1129
-1127
-1125
-1123
-1120
-1117
-1115
-1114
-1114
-1114
-1112
-1110
-1106
-1103
-1102
-1102
-1103
-1104
-1105
-1108
-1109
-1112
-1115
-1117
-1119
-1121
-1124
-1128
-1132
-1133
-1133
-1135
-1137
-1139
-1139
-1139
-1139
-1141
-1141
-1142
-1143
-1144
-1148
-1144
-1133
-1129
-1128
-1124
-1111
-1094
-1073
-1065
-1073
-1093
-1109
-1123
-1148
-1176
-1199
-1210
-1214
-1212
-1211
-1207
-1198
-1186
-1176
-1169
-1167
-1166
-1165
-1164
-1165
-1164
-1164
-1164
-1166
-1165
-1166
-1166
-1167
-1168
-1169
-1169
-1171
-1171
-1170
-1171
-1171
-1169
-1169
-1168
-1166
-1164
-1162
-1159
-1157
-1154
-1152
-1148
-1145
-1142
-1140
-1137
-1134
-1131
-1129
-1126
-1125
-1123
-1122
-1121
-1121
-1121
-1120
-1120
-1122
-1123
-1123
-1123
-1125
-1126
-1127
-1128
-1129
-1129
-1130
-1131
-1132
-1132
-1132
-1132
-1132
-1131
-1130
-1129
-1128
-1127
-1126
-1126
-1125
-1123
-1122
-1121
-1121
-1120
-1118
-1117
-1116
-1114
-1112
-1108
-1108
-1108
-1107
-1107
-1108
-1106
-1103
-1099
-1097
-1098
-1100
-1101
-1101
-1103
-1105
-1108
-1113
-1115
-1117
-1119
-1122
-1125
-1128
-1130
-1131
-1133
-1135
-1136
-1136
-1137
-1137
-1138
-1137
-1137
-1138
-1141
-1145
-1141
-1130
-1125
-1125
-1119
-1105
-1087
-1069
-1065
-1077
-1096
-1112
-1126
-1151
-1181
-1205
-1217
-1221
-1221
-1218
-1211
-1198
-1184
-1175
-1171
-1168
-1166
-1165
-1163
-1163
-1162
-1163
-1163
-1164
-1164
-1165
-1165
-1166
-1167
-1168
-1168
-1168
-1169
-1171
-1169
-1169
-1168
-1168
-1167
-1165
-1162
-1160
-1158
-1155
-1153
-1149
-1147
-1144
-1140
-1137
-1133
-1130
-1129
-1126
-1124
-1121
-1120
-1120
-1120
-1119
-1119
-1120
-1121
-1122
-1122
-1123
-1124
-1125
-1126
-1128
-1129
-1129
-1131
-1132
-1133
-1132
-1132
-1132
-1132
-1133
-1132
-1130
-1130
-1129
-1129
-1127
-1125
-1124
-1124
-1124
-1122
-1120
-1120
-1119
-1117
-1116
-1114
-1114
-1113
-1111
-1108
-1108
-1108
-1107
-1107
-1106
-1104
-1101
-1099
-1098
-1099
-1100
-1103
-1104
-1106
-1108
-1111
-1115
-1118
-1119
-1120
-1121
-1124
-1128
-1130
-1132
-1133
-1135
-1137
-1137
-1137
-1137
-1137
-1140
-1140
-1141
-1142
-1146
-1141
-1130
-1126
-1125
-1119
-1103
-1084
-1061
-1055
-1067
-1089
-1107
-1124
-1154
-1189
-1214
-1225
-1227
-1225
-1223
-1214
-1199
-1184
-1175
-1171
-1168
-1166
-1165
-1163
-1163
-1163
-1163
-1162
-1163
-1165
-1166
-1166
-1166
-1167
-1168
-1170
-1169
-1170
-1170
-1171
-1171
-1169
-1169
-1166
-1166
-1164
-1162
-1159
-1155
-1153
-1150
-1147
-1143
-1140
-1137
-1133
-1132
-1128
-1126
-1125
-1124
-1122
-1121
-1120
-1120
-1120
-1120
-1120
-1121
-1122
-1124
-1125
-1125
-1126
-1129
-1131
-1132
-1132
-1133
-1135
-1136
-1136
-1135
-1135
-1136
-1136
-1135
-1133
-1132
-1132
-1130
-1129
-1126
-1126
-1126
-1126
-1124
-1123
-1122
-1122
-1121
-1119
-1116
-1113
-1112
-1112
-1112
-1111
-1112
-1112
-1109
-1105
-1103
-1103
-1104
-1105
-1107
-1108
-1112
-1114
-1118
-1120
-1122
-1123
-1125
-1129
-1132
-1134
-1137
-1139
-1141
-1140
-1141
-1141
-1142
-1143
-1144
-1143
-1144
-1146
-1150
-1151
-1143
-1136
-1135
-1133
-1126
-1109
-1087
-1068
-1068
-1080
-1101
-1115
-1137
-1167
-1197
-1217
-1229
-1230
-1229
-1226
-1219
-1207
-1195
-1185
-1179
-1176
-1175
-1175
-1175
-1172
-1172
-1172
-1173
-1173
-1174
-1175
-1175
-1176
-1176
-1178
-1178
-1179
-1180
-1180
-1180
-1180
-1179
-1180
-1179
-1176
-1174
-1172
-1171
-1168
-1164
-1161
-1159
-1155
-1153
-1150
-1146
-1144
-1141
-1139
-1137
-1135
-1132
-1132
-1132
-1132
-1130
-1130
-1130
-1131
-1132
-1132
-1131
-1132
-1133
-1135
-1136
-1136
-1137
-1138
-1140
-1140
-1140
-1140
-1142
-1141
-1139
-1138
-1137
-1137
-1136
-1132
-1133
-1132
-1130
-1129
-1127
-1125
-1124
-1124
-1123
-1122
-1119
-1118
-1117
-1116
-1116
-1116
-1115
-1114
-1112
-1108
-1105
-1105
-1107
-1107
-1108
-1109
-1111
-1113
-1117
-1120
-1121
-1124
-1126
-1128
-1130
-1133
-1135
-1137
-1138
-1139
-1140
-1140
-1140
-1141
-1143
-1144
-1145
-1146
-1150
-1151
-1145
-1133
-1132
-1132
-1124
-1108
-1089
-1069
-1059
-1065
-1081
-1098
-1112
-1138
-1168
-1194
-1211
-1218
-1219
-1218
-1214
-1207
-1197
-1187
-1178
-1174
-1172
-1171
-1171
-1171
-1171
-1171
-1169
-1171
-1171
-1172
-1172
-1174
-1174
-1175
-1176
-1176
-1176
-1176
-1176
-1176
-1176
-1176
-1176
-1174
-1171
-1168
-1166
-1163
-1160
-1159
-1155
-1153
-1149
-1146
-1143
-1140
-1137
-1136
-1132
-1130
-1129
-1129
-1128
-1127
-1126
-1127
-1128
-1129
-1129
-1129
-1129
-1129
-1132
-1133
-1133
-1133
-1132
-1133
-1133
-1135
-1135
-1135
-1133
-1133
-1132
-1132
-1132
-1132
-1131
-1130
-1128
-1127
-1126
-1124
-1121
-1120
-1120
-1118
-1115
-1112
-1112
-1111
-1111
-1111
-1109
-1106
-1103
-1100
-1098
-1098
-1099
-1099
-1101
-1103
-1103
-1106
-1109
-1112
-1114
-1117
-1119
-1122
-1126
-1129
-1131
-1132
-1134
-1135
-1136
-1136
-1137
-1136
-1137
-1137
-1138
-1139
-1143
-1144
-1133
-1126
-1123
-1123
-1114
-1099
-1079
-1061
-1063
-1078
-1096
-1108
-1129
-1157
-1186
-1203
-1210
-1211
-1209
-1206
-1198
-1187
-1176
-1169
-1166
-1163
-1162
-1161
-1162
-1161
-1161
-1161
-1161
-1162
-1162
-1162
-1163
-1163
-1165
-1164
-1165
-1165
-1165
-1166
-1166
-1165
-1163
-1162
-1161
-1159
-1157
-1154
-1151
-1149
-1147
-1144
-1140
-1137
-1135
-1133
-1129
-1127
-1126
-1123
-1121
-1120
-1119
-1117
-1118
-1119
-1119
-1119
-1119
-1120
-1121
-1123
-1123
-1124
-1126
-1128
-1128
-1128
-1128
-1129
-1129
-1129
-1129
-1128
-1128
-1129
-1126
-1125
-1125
-1124
-1123
-1122
-1121
-1119
-1118
-1117
-1116
-1114
-1112
-1112
-1108
-1106
-1103
-1102
-1102
-1103
-1102
-1101
-1098
-1096
-1093
-1092
-1094
-1095
-1097
-1098
-1100
-1102
-1106
-1108
-1112
-1113
-1114
-1117
-1121
-1124
-1126
-1127
-1129
-1130
-1132
-1132
-1132
-1132
-1132
-1133
-1132
-1133
-1137
-1139
-1132
-1122
-1118
-1116
-1108
-1093
-1073
-1055
-1057
-1073
-1094
-1111
-1129
-1158
-1187
-1205
-1214
-1214
-1213
-1209
-1200
-1187
-1175
-1166
-1163
-1162
-1160
-1159
-1158
-1158
-1159
-1158
-1158
-1158
-1159
-1160
-1161
-1162
-1162
-1165
-1165
-1164
-1165
-1165
-1166
-1165
-1164
-1162
-1161
-1160
-1157
-1154
-1152
-1148
-1146
-1142
-1139
-1135
-1133
-1131
-1128
-1124
-1121
-1119
-1117
-1116
-1116
-1115
-1115
-1115
-1115
-1116
-1116
-1117
-1117
-1119
-1119
-1120
-1122
-1123
-1124
-1125
-1126
-1126
-1128
-1129
-1129
-1129
-1129
-1129
-1129
-1128
-1126
-1126
-1125
-1124
-1122
-1120
-1120
-1119
-1118
-1116
-1115
-1112
-1111
-1108
-1104
-1103
-1103
-1103
-1102
-1101
-1099
-1095
-1094
-1094
-1095
-1096
-1098
-1101
-1103
-1105
-1108
-1112
-1115
-1118
-1119
-1121
-1125
-1129
-1130
-1131
-1132
-1133
-1135
-1135
-1135
-1136
-1136
-1137
-1137
-1138
-1141
-1144
-1138
-1129
-1125
-1124
-1118
-1104
-1086
-1065
-1058
-1069
-1090
-1108
-1122
-1146
-1179
-1205
-1222
-1227
-1227
-1226
-1222
-1208
-1192
-1180
-1174
-1171
-1170
-1168
-1167
-1167
-1168
-1168
-1168
-1169
-1171
-1171
-1171
-1171
-1172
-1173
-1174
-1175
-1174
-1174
-1175
-1175
-1175
-1172
-1171
-1169
-1167
-1164
-1162
-1160
-1158
-1155
-1153
-1149
-1146
-1143
-1140
-1137
-1133
-1131
-1129
-1129
-1126
-1125
-1125
-1125
-1126
-1127
-1128
-1128
-1130
-1132
-1133
-1134
-1136
-1137
-1138
-1140
-1141
-1141
-1141
-1143
-1142
-1142
-1142
-1142
-1142
-1142
-1141
-1140
-1139
-1139
-1139
-1137
-1136
-1135
-1133
-1132
-1130
-1129
-1129
-1127
-1125
-1121
-1119
-1119
-1118
-1117
-1117
-1115
-1114
-1109
-1105
-1103
-1104
-1105
-1105
-1108
-1111
-1112
-1116
-1121
-1124
-1126
-1129
-1130
-1134
-1137
-1140
-1142
-1143
-1144
-1146
-1146
-1146
-1146
-1146
-1146
-1147
-1147
-1150
-1153
-1151
-1140
-1133
-1132
-1129
-1116
-1098
-1075
-1061
-1065
-1083
-1102
-1116
-1141
-1172
-1201
-1218
-1226
-1227
-1224
-1222
-1212
-1199
-1187
-1180
-1176
-1174
-1172
-1173
-1173
-1173
-1172
-1173
-1172
-1172
-1173
-1174
-1174
-1176
-1177
-1179
-1179
-1179
-1180
-1180
-1180
-1179
-1176
-1176
-1175
-1173
-1170
-1166
-1164
-1162
-1159
-1154
-1152
-1149
-1146
-1144
-1141
-1137
-1135
-1134
-1132
-1129
-1129
-1128
-1128
-1127
-1126
-1127
-1126
-1127
-1128
-1129
-1130
-1131
-1132
-1135
-1135
-1136
-1137
-1138
-1139
-1139
-1139
-1139
-1139
-1138
-1137
-1137
-1137
-1135
-1134
-1132
-1131
-1129
-1129
-1126
-1125
-1123
-1122
-1122
-1119
-1117
-1113
-1113
-1113
-1113
-1113
-1112
-1109
-1105
-1103
-1101
-1101
-1103
-1103
-1104
-1108
-1109
-1112
-1116
-1119
-1120
-1123
-1126
-1129
-1132
-1137
-1139
-1139
-1141
-1142
-1143
-1143
-1144
-1144
-1146
-1146
-1146
-1149
-1151
-1144
-1135
-1132
-1132
-1125
-1110
-1090
-1070
-1069
-1080
-1099
-1110
-1126
-1151
-1179
-1201
-1212
-1216
-1215
-1214
-1209
-1199
-1187
-1179
-1173
-1171
-1171
-1169
-1169
-1170
-1169
-1169
-1169
-1171
-1172
-1172
-1173
-1174
-1176
-1177
-1176
-1177
-1178
-1178
-1178
-1176
-1176
-1174
-1173
-1169
-1169
-1166
-1164
-1162
-1159
-1158
-1154
-1150
-1147
-1144
-1141
-1138
-1137
-1133
-1132
-1130
-1128
-1127
-1127
-1126
-1128
-1128
-1129
-1129
-1131
-1132
-1132
-1132
-1133
-1135
-1137
-1137
-1137
-1137
-1137
-1137
-1137
-1138
-1140
-1139
-1138
-1137
-1137
-1136
-1133
-1132
-1130
-1130
-1129
-1128
-1125
-1124
-1123
-1122
-1119
-1115
-1113
-1112
-1112
-1112
-1110
-1108
-1105
-1102
-1100
-1099
-1100
-1101
-1103
-1103
-1106
-1108
-1112
-1116
-1118
-1120
-1122
-1126
-1129
-1132
-1133
-1135
-1137
-1137
-1137
-1137
-1137
-1139
-1140
-1141
-1142
-1143
-1146
-1144
-1133
-1128
-1126
-1123
-1112
-1095
-1074
-1062
-1069
-1086
-1103
-1118
-1141
-1169
-1193
-1206
-1213
-1212
-1210
-1206
-1197
-1186
-1176
-1169
-1168
-1166
-1165
-1166
-1165
-1164
-1164
-1166
-1165
-1166
-1167
-1168
-1169
-1168
-1169
-1171
-1171
-1171
-1171
-1171
-1171
-1171
-1171
-1169
-1169
-1167
-1164
-1162
-1160
-1157
-1154
-1151
-1148
-1144
-1142
-1139
-1136
-1132
-1131
-1129
-1128
-1127
-1125
-1125
-1124
-1125
-1125
-1125
-1126
-1126
-1129
-1129
-1129
-1130
-1131
-1132
-1132
-1133
-1133
-1133
-1135
-1135
-1135
-1135
-1135
-1135
-1132
-1133
-1132
-1131
-1130
-1130
-1129
-1128
-1128
-1126
-1125
-1125
-1123
-1122
-1120
-1118
-1114
-1112
-1112
-1112
-1112
-1111
-1108
-1106
-1103
-1101
-1102
-1104
-1105
-1106
-1108
-1111
-1113
-1118
-1119
-1121
-1123
-1126
-1130
-1134
-1136
-1137
-1139
-1141
-1142
-1142
-1143
-1144
-1144
-1144
-1144
-1146
-1147
-1149
-1146
-1134
-1129
-1128
-1124
-1112
-1094
-1073
-1068
-1080
-1101
-1117
-1132
-1158
-1188
-1210
-1221
-1224
-1223
-1221
-1214
-1203
-1189
-1180
-1176
-1173
-1171
-1169
-1169
-1170
-1169
-1169
-1168
-1168
-1169
-1170
-1171
-1171
-1172
-1173
-1174
-1174
-1174
-1175
-1175
-1175
-1173
-1172
-1171
-1169
-1167
-1163
-1162
-1159
-1156
-1154
-1151
-1149
-1147
-1144
-1142
-1139
-1137
-1133
-1132
-1130
-1129
-1127
-1127
-1128
-1128
-1127
-1128
-1129
-1130
-1131
-1131
-1132
-1133
-1134
-1135
-1136
-1137
-1139
-1138
-1138
-1139
-1140
-1141
-1141
-1141
-1139
-1139
-1138
-1138
-1137
-1136
-1133
-1132
-1132
-1129
-1128
-1126
-1125
-1124
-1121
-1118
-1117
-1116
-1116
-1116
-1115
-1112
-1110
-1106
-1104
-1104
-1105
-1107
-1108
-1111
-1112
-1115
-1119
-1122
-1124
-1125
-1127
-1129
-1132
-1136
-1137
-1139
-1141
-1143
-1143
-1144
-1144
-1144
-1144
-1146
-1146
-1146
-1148
-1151
-1146
-1135
-1130
-1129
-1124
-1108
-1089
-1067
-1060
-1071
-1093
-1110
-1126
-1154
-1190
-1215
-1227
-1230
-1229
-1226
-1219
-1205
-1189
-1180
-1176
-1173
-1172
-1171
-1171
-1171
-1170
-1169
-1170
-1170
-1171
-1171
-1171
-1171
-1174
-1174
-1175
-1175
-1175
-1175
-1176
-1175
-1173
-1172
-1171
-1171
-1169
-1166
-1163
-1161
-1159
-1157
-1153
-1150
-1146
-1144
-1141
-1137
-1133
-1132
-1129
-1128
-1127
-1126
-1126
-1126
-1126
-1127
-1127
-1128
-1130
-1130
-1130
-1132
-1133
-1135
-1136
-1137
-1137
-1140
-1140
-1141
-1141
-1141
-1141
-1142
-1141
-1139
-1138
-1137
-1137
-1135
-1133
-1132
-1132
-1130
-1130
-1128
-1126
-1125
-1123
-1120
-1118
-1117
-1116
-1116
-1116
-1114
-1111
-1107
-1105
-1103
-1104
-1107
-1108
-1110
-1112
-1114
-1118
-1122
-1124
-1126
-1129
-1131
-1135
-1138
-1141
-1141
-1143
-1144
-1144
-1144
-1146
-1146
-1146
-1147
-1146
-1146
-1147
-1150
-1145
-1133
-1131
-1129
-1124
-1108
-1089
-1068
-1065
-1078
-1099
-1114
-1130
-1157
-1190
-1214
-1226
-1229
-1228
-1226
-1219
-1206
-1192
-1182
-1177
-1175
-1172
-1171
-1171
-1170
-1170
-1169
-1169
-1170
-1171
-1171
-1171
-1171
-1172
-1173
-1173
-1173
-1173
-1174
-1175
-1175
-1173
-1173
-1171
-1169
-1167
-1164
-1161
-1158
-1155
-1153
-1149
-1146
-1144
-1140
-1137
-1135
-1131
-1129
-1128
-1127
-1125
-1125
-1125
-1125
-1126
-1126
-1126
-1127
-1129
-1130
-1131
-1132
-1133
-1135
-1136
-1136
-1137
-1137
-1138
-1139
-1139
-1139
-1139
-1138
-1139
-1137
-1136
-1136
-1135
-1133
-1132
-1130
-1129
-1129
-1127
-1124
-1122
-1121
-1119
-1116
-1115
-1114
-1114
-1113
-1112
-1108
-1103
-1102
-1101
-1103
-1103
-1103
-1104
-1108
-1109
-1112
-1116
-1119
-1121
-1124
-1126
-1129
-1133
-1137
-1137
-1138
-1139
-1139
-1140
-1141
-1141
-1143
-1143
-1143
-1144
-1144
-1148
-1146
-1136
-1130
-1129
-1125
-1112
-1091
-1068
-1057
-1061
-1079
-1098
-1112
-1137
-1168
-1194
-1214
-1222
-1222
-1220
-1217
-1208
-1196
-1184
-1176
-1173
-1171
-1169
-1169
-1168
-1168
-1168
-1169
-1169
-1169
-1172
-1172
-1172
-1173
-1174
-1175
-1176
-1176
-1176
-1176
-1177
-1176
-1175
-1173
-1172
-1170
-1168
-1165
-1162
-1160
-1157
-1153
-1150
-1146
-1145
-1141
-1137
-1135
-1132
-1131
-1129
-1128
-1126
-1126
-1126
-1126
-1127
-1126
-1127
-1128
-1129
-1128
-1129
-1130
-1130
-1132
-1132
-1134
-1135
-1137
-1137
-1138
-1137
-1137
-1137
-1136
-1135
-1133
-1133
-1132
-1132
-1129
-1128
-1126
-1125
-1124
-1121
-1119
-1118
-1116
-1114
-1112
-1112
-1112
-1112
-1110
-1108
-1103
-1099
-1098
-1099
-1100
-1100
-1101
-1103
-1106
-1108
-1112
-1115
-1118
-1120
-1121
-1125
-1128
-1131
-1132
-1133
-1135
-1136
-1137
-1137
-1137
-1137
-1138
-1140
-1141
-1143
-1146
-1140
-1131
-1128
-1126
-1123
-1108
-1092
-1070
-1060
-1065
-1083
-1100
-1112
-1132
-1162
-1186
-1202
-1209
-1208
-1206
-1204
-1197
-1186
-1176
-1168
-1166
-1165
-1163
-1162
-1162
-1162
-1162
-1162
-1162
-1162
-1163
-1165
-1165
-1165
-1166
-1166
-1169
-1169
-1169
-1170
-1169
-1170
-1168
-1165
-1164
-1162
-1161
-1158
-1155
-1151
-1149
-1147
-1144
-1141
-1138
-1136
-1134
-1130
-1129
-1127
-1125
-1125
-1123
-1122
-1121
-1121
-1122
-1122
-1122
-1122
-1124
-1125
-1125
-1126
-1126
-1128
-1130
-1130
-1131
-1132
-1132
-1133
-1132
-1132
-1133
-1133
-1132
-1132
-1130
-1129
-1129
-1129
-1127
-1125
-1124
-1122
-1121
-1119
-1116
-1112
-1111
-1111
-1108
-1108
-1108
-1107
-1104
-1100
-1096
-1095
-1096
-1099
-1099
-1099
-1102
-1104
-1107
-1110
-1112
-1115
-1117
-1120
-1124
-1128
-1130
-1132
-1133
-1135
-1135
-1136
-1137
-1137
-1137
-1137
-1137
-1139
-1140
-1142
-1142
-1134
-1126
-1124
-1122
-1115
-1100
-1082
-1062
-1058
-1065
-1086
-1103
-1117
-1141
-1169
-1193
-1206
-1212
-1212
-1210
-1207
-1197
-1186
-1176
-1169
-1166
-1165
-1164
-1164
-1163
-1163
-1163
-1163
-1163
-1163
-1163
-1165
-1166
-1166
-1167
-1167
-1168
-1169
-1169
-1168
-1166
-1166
-1166
-1165
-1162
-1161
-1159
-1158
-1155
-1153
-1150
-1148
-1146
-1143
-1138
-1136
-1132
-1129
-1128
-1125
-1123
-1122
-1121
-1121
-1120
-1120
-1120
-1123
-1123
-1123
-1125
-1125
-1127
-1128
-1128
-1129
-1129
-1130
-1130
-1132
-1130
-1131
-1132
-1131
-1131
-1130
-1130
-1129
-1129
-1128
-1126
-1125
-1124
-1122
-1120
-1119
-1118
-1116
-1114
-1112
-1110
-1108
-1108
-1107
-1106
-1105
-1104
-1102
-1098
-1095
-1095
-1098
-1098
-1099
-1099
-1102
-1104
-1108
-1110
-1112
-1113
-1116
-1118
-1122
-1125
-1129
-1130
-1132
-1133
-1133
-1133
-1135
-1135
-1136
-1135
-1136
-1137
-1139
-1141
-1137
-1128
-1123
-1121
-1116
-1101
-1083
-1062
-1058
-1069
-1090
-1107
-1123
-1147
-1179
-1201
-1214
-1219
-1218
-1214
-1209
-1197
-1183
-1172
-1168
-1165
-1163
-1162
-1162
-1162
-1161
-1161
-1162
-1162
-1163
-1163
-1163
-1164
-1165
-1165
-1166
-1166
-1167
-1167
-1166
-1166
-1166
-1166
-1164
-1162
-1159
-1157
-1154
-1153
-1149
-1146
-1143
-1140
-1137
-1134
-1131
-1126
-1125
-1122
-1121
-1119
-1119
-1120
-1120
-1119
-1120
-1120
-1122
-1122
-1123
-1123
-1125
-1127
-1128
-1129
-1129
-1129
-1130
-1132
-1132
-1132
-1132
-1133
-1133
-1132
-1132
-1131
-1131
-1130
-1129
-1127
-1126
-1126
-1124
-1123
-1122
-1121
-1119
-1118
-1116
-1113
-1111
-1110
-1108
-1107
-1107
-1106
-1105
-1101
-1095
-1094
-1095
-1097
-1098
-1100
-1103
-1104
-1107
-1111
-1113
-1116
-1118
-1120
-1124
-1126
-1130
-1133
-1134
-1135
-1136
-1137
-1137
-1138
-1138
-1138
-1139
-1140
-1141
-1143
-1143
-1133
-1125
-1122
-1120
-1112
-1097
-1078
-1060
-1060
-1074
-1095
-1112
-1129
-1159
-1190
-1211
-1219
-1222
-1219
-1215
-1205
-1191
-1177
-1169
-1167
-1165
-1164
-1164
-1163
-1162
-1162
-1162
-1163
-1163
-1163
-1165
-1165
-1165
-1166
-1166
-1166
-1167
-1167
-1167
-1167
-1167
-1166
-1165
-1163
-1161
-1159
-1157
-1155
-1153
-1149
-1146
-1144
-1142
-1138
-1135
-1133
-1130
-1128
-1126
-1123
-1121
-1120
-1120
-1120
-1120
-1120
-1120
-1121
-1122
-1123
-1125
-1126
-1129
-1129
-1131
-1132
-1133
-1135
-1135
-1135
-1136
-1137
-1137
-1137
-1137
-1137
-1136
-1135
-1133
-1132
-1132
-1132
-1130
-1129
-1126
-1125
-1124
-1122
-1120
-1119
-1117
-1115
-1113
-1112
-1111
-1110
-1112
-1111
-1108
-1103
-1101
-1101
-1102
-1103
-1103
-1105
-1108
-1110
-1113
-1116
-1119
-1121
-1123
-1125
-1129
-1131
-1134
-1136
-1137
-1137
-1139
-1141
-1142
-1142
-1142
-1142
-1145
-1144
-1146
-1148
-1144
-1135
-1130
-1130
-1126
-1113
-1096
-1073
-1065
-1074
-1095
-1111
-1125
-1150
-1182
-1207
-1222
-1228
-1227
-1224
-1219
-1208
-1193
-1181
-1174
-1172
-1172
-1169
-1168
-1167
-1167
-1167
-1168
-1168
-1169
-1169
-1171
-1171
-1173
-1172
-1173
-1175
-1175
-1174
-1175
-1175
-1175
-1172
-1171
-1169
-1168
-1166
-1163
-1161
-1158
-1155
-1154
-1151
-1148
-1144
-1141
-1138
-1136
-1133
-1130
-1129
-1129
-1127
-1126
-1126
-1127
-1128
-1129
-1129
-1130
-1132
-1133
-1133
-1133
-1133
-1135
-1137
-1137
-1138
-1140
-1141
-1142
-1143
-1144
-1143
-1143
-1143
-1142
-1140
-1139
-1139
-1138
-1136
-1134
-1133
-1132
-1130
-1130
-1128
-1127
-1125
-1123
-1119
-1117
-1117
-1116
-1117
-1117
-1115
-1112
-1108
-1106
-1106
-1109
-1109
-1111
-1112
-1116
-1117
-1120
-1123
-1126
-1128
-1129
-1131
-1135
-1138
-1141
-1141
-1142
-1144
-1144
-1146
-1147
-1147
-1148
-1148
-1150
-1150
-1151
-1154
-1154
-1144
-1136
-1133
-1133
-1124
-1108
-1086
-1065
-1065
-1078
-1098
-1112
-1129
-1155
-1187
-1211
-1224
-1228
-1227
-1224
-1221
-1209
-1197
-1185
-1179
-1176
-1175
-1173
-1172
-1173
-1172
-1172
-1172
-1172
-1173
-1174
-1174
-1175
-1176
-1176
-1177
-1179
-1178
-1179
-1180
-1180
-1180
-1178
-1177
-1175
-1173
-1171
-1168
-1166
-1164
-1162
-1159
-1157
-1154
-1150
-1148
-1144
-1141
-1139
-1137
-1136
-1132
-1132
-1132
-1132
-1131
-1130
-1130
-1129
-1132
-1133
-1135
-1136
-1137
-1139
-1140
-1140
-1140
-1141
-1143
-1144
-1144
-1143
-1143
-1143
-1142
-1141
-1140
-1140
-1139
-1138
-1137
-1136
-1136
-1134
-1132
-1131
-1130
-1130
-1129
-1129
-1126
-1125
-1122
-1122
-1120
-1120
-1119
-1119
-1119
-1118
-1112
-1108
-1108
-1110
-1112
-1112
-1113
-1116
-1118
-1122
-1125
-1126
-1129
-1131
-1132
-1136
-1138
-1141
-1142
-1144
-1144
-1145
-1146
-1146
-1146
-1146
-1146
-1147
-1149
-1151
-1154
-1152
-1143
-1139
-1137
-1135
-1123
-1105
-1083
-1071
-1075
-1091
-1108
-1121
-1143
-1171
-1197
-1212
-1221
-1221
-1219
-1218
-1210
-1199
-1187
-1180
-1174
-1173
-1172
-1173
-1171
-1171
-1169
-1172
-1173
-1173
-1173
-1173
-1174
-1174
-1175
-1175
-1176
-1176
-1176
-1176
-1175
-1175
-1175
-1175
-1172
-1170
-1169
-1168
-1165
-1163
-1160
-1158
-1154
-1151
-1148
-1146
-1142
-1140
-1138
-1136
-1133
-1131
-1130
-1130
-1129
-1129
-1129
-1130
-1130
-1129
-1129
-1131
-1132
-1133
-1133
-1133
-1133
-1136
-1137
-1137
-1137
-1137
-1137
-1138
-1137
-1137
-1136
-1135
-1133
-1132
-1130
-1129
-1129
-1127
-1126
-1125
-1123
-1124
-1122
-1120
-1119
-1119
-1117
-1115
-1112
-1112
-1112
-1112
-1112
-1111
-1107
-1104
-1101
-1102
-1103
-1103
-1104
-1106
-1108
-1111
-1114
-1117
-1119
-1121
-1122
-1124
-1128
-1132
-1132
-1133
-1136
-1137
-1137
-1137
-1137
-1137
-1138
-1140
-1140
-1139
-1142
-1146
-1141
-1132
-1126
-1125
-1120
-1107
-1088
-1067
-1058
-1067
-1087
-1104
-1118
-1143
-1171
-1196
-1210
-1215
-1214
-1212
-1208
-1200
-1188
-1176
-1169
-1167
-1165
-1163
-1162
-1162
-1162
-1162
-1162
-1161
-1162
-1163
-1164
-1165
-1164
-1166
-1166
-1166
-1167
-1167
-1167
-1167
-1167
-1166
-1165
-1163
-1162
-1161
-1158
-1155
-1154
-1151
-1149
-1146
-1143
-1140
-1137
-1135
-1132
-1130
-1128
-1126
-1125
-1123
-1123
-1123
-1124
-1123
-1124
-1125
-1126
-1126
-1127
-1128
-1129
-1130
-1131
-1132
-1131
-1131
-1133
-1134
-1133
-1135
-1135
-1135
-1135
-1133
-1132
-1132
-1132
-1131
-1130
-1128
-1127
-1126
-1126
-1125
-1122
-1120
-1120
-1119
-1116
-1114
-1112
-1112
-1112
-1111
-1110
-1109
-1107
-1103
-1101
-1099
-1100
-1103
-1103
-1105
-1107
-1109
-1112
-1117
-1119
-1120
-1122
-1125
-1128
-1132
-1133
-1136
-1136
-1137
-1137
-1137
-1138
-1139
-1140
-1141
-1141
-1141
-1142
-1144
-1146
-1137
-1128
-1125
-1124
-1114
-1098
-1078
-1060
-1064
-1079
-1098
-1112
-1132
-1162
-1191
-1210
-1217
-1219
-1218
-1214
-1205
-1190
-1179
-1171
-1168
-1166
-1165
-1164
-1163
-1163
-1162
-1162
-1162
-1163
-1162
-1163
-1163
-1164
-1164
-1165
-1166
-1165
-1166
-1166
-1166
-1165
-1165
-1163
-1162
-1160
-1156
-1154
-1153
-1150
-1146
-1144
-1142
-1139
-1137
-1133
-1130
-1128
-1126
-1125
-1123
-1121
-1121
-1120
-1120
-1120
-1121
-1122
-1123
-1125
-1125
-1126
-1126
-1128
-1129
-1130
-1130
-1131
-1131
-1133
-1132
-1133
-1134
-1133
-1133
-1132
-1132
-1132
-1132
-1132
-1132
-1132
-1130
-1129
-1128
-1126
-1126
-1124
-1123
-1121
-1120
-1119
-1117
-1114
-1112
-1112
-1111
-1108
-1111
-1111
-1109
-1104
-1101
-1101
-1103
-1104
-1104
-1106
-1109
-1112
-1114
-1118
-1119
-1122
-1124
-1126
-1129
-1132
-1135
-1137
-1139
-1139
-1140
-1140
-1141
-1141
-1141
-1141
-1141
-1143
-1143
-1145
-1148
-1144
-1134
-1129
-1129
-1123
-1110
-1092
-1069
-1059
-1069
-1088
-1107
-1121
-1144
-1176
-1206
-1222
-1230
-1230
-1227
-1222
-1210
-1194
-1183
-1176
-1173
-1172
-1171
-1169
-1169
-1168
-1168
-1169
-1169
-1169
-1169
-1169
-1171
-1171
-1171
-1171
-1173
-1173
-1173
-1173
-1172
-1172
-1172
-1171
-1169
-1166
-1164
-1163
-1161
-1158
-1154
-1153
-1150
-1147
-1144
-1141
-1138
-1137
-1134
-1131
-1129
-1128
-1127
-1126
-1125
-1126
-1127
-1128
-1129
-1129
-1129
-1130
-1132
-1133
-1134
-1135
-1137
-1137
-1137
-1138
-1139
-1139
-1140
-1140
-1140
-1140
-1140
-1140
-1139
-1138
-1137
-1136
-1135
-1132
-1132
-1130
-1129
-1128
-1126
-1125
-1121
-1119
-1118
-1116
-1115
-1114
-1112
-1113
-1112
-1109
-1105
-1103
-1103
-1104
-1105
-1105
-1107
-1110
-1114
-1117
-1119
-1121
-1125
-1126
-1128
-1131
-1133
-1137
-1137
-1140
-1139
-1141
-1142
-1142
-1143
-1143
-1143
-1144
-1144
-1144
-1147
-1144
-1135
-1130
-1129
-1125
-1112
-1093
-1069
-1060
-1070
-1090
-1107
-1122
-1147
-1180
-1207
-1222
-1227
-1226
-1223
-1218
-1205
-1189
-1178
-1172
-1169
-1169
-1168
-1167
-1166
-1166
-1166
-1165
-1165
-1165
-1166
-1167
-1167
-1168
-1168
-1169
-1169
-1171
-1171
-1169
-1169
-1169
-1169
-1167
-1165
-1163
-1162
-1159
-1158
-1154
-1151
-1147
-1145
-1141
-1138
-1136
-1134
-1131
-1129
-1126
-1125
-1124
-1123
-1122
-1120
-1121
-1122
-1123
-1123
-1124
-1125
-1126
-1128
-1129
-1131
-1132
-1133
-1135
-1135
-1137
-1137
-1138
-1138
-1137
-1137
-1137
-1137
-1136
-1135
-1133
-1133
-1132
-1130
-1129
-1126
-1125
-1125
-1123
-1121
-1120
-1117
-1114
-1113
-1112
-1112
-1112
-1112
-1109
-1105
-1100
-1100
-1101
-1101
-1101
-1104
-1106
-1108
-1112
-1114
-1116
-1119
-1121
-1122
-1126
-1130
-1132
-1135
-1136
-1137
-1137
-1139
-1140
-1141
-1140
-1140
-1141
-1143
-1143
-1146
-1146
-1137
-1130
-1126
-1125
-1116
-1099
-1076
-1055
-1055
-1066
-1088
-1103
-1124
-1151
-1182
-1204
-1216
-1218
-1215
-1214
-1209
-1197
-1184
-1173
-1168
-1166
-1165
-1164
-1164
-1163
-1163
-1163
-1164
-1164
-1165
-1166
-1168
-1168
-1170
-1170
-1171
-1171
-1171
-1171
-1172
-1171
-1171
-1169
-1167
-1165
-1164
-1163
-1159
-1156
-1154
-1151
-1149
-1146
-1143
-1140
-1137
-1135
-1132
-1129
-1127
-1126
-1124
-1122
-1122
-1123
-1122
-1123
-1125
-1124
-1124
-1126
-1126
-1126
-1127
-1129
-1130
-1131
-1130
-1130
-1132
-1132
-1132
-1132
-1132
-1132
-1133
-1133
-1131
-1129
-1129
-1129
-1127
-1126
-1125
-1123
-1122
-1121
-1119
-1117
-1115
-1112
-1112
-1110
-1110
-1109
-1108
-1105
-1102
-1098
-1098
-1099
-1099
-1100
-1101
-1104
-1107
-1110
-1112
-1114
-1117
-1120
-1121
-1124
-1127
-1129
-1132
-1133
-1132
-1133
-1134
-1135
-1136
-1136
-1137
-1138
-1141
-1142
-1144
-1141
-1132
-1126
-1126
-1122
-1111
-1094
-1073
-1060
-1063
-1078
-1095
-1107
-1129
-1155
-1182
-1200
-1210
-1210
-1207
-1205
-1199
-1188
-1177
-1169
-1164
-1163
-1163
-1162
-1161
-1160
-1160
-1160
-1160
-1159
-1160
-1161
-1163
-1162
-1163
-1162
-1163
-1164
-1165
-1163
-1163
-1164
-1165
-1163
-1162
-1159
-1157
-1155
-1152
-1150
-1146
-1144
-1143
-1140
-1137
-1133
-1132
-1129
-1128
-1125
-1124
-1122
-1121
-1122
-1120
-1120
-1120
-1120
-1122
-1121
-1122
-1123
-1124
-1125
-1126
-1126
-1129
-1130
-1130
-1131
-1131
-1132
-1132
-1132
-1132
-1132
-1132
-1132
-1130
-1129
-1128
-1126
-1126
-1125
-1123
-1122
-1122
-1120
-1119
-1116
-1112
-1112
-1111
-1109
-1108
-1108
-1109
-1108
-1105
-1101
-1098
-1099
-1101
-1101
-1102
-1103
-1106
-1110
-1113
-1115
-1117
-1119
-1121
-1124
-1127
-1130
-1132
-1132
-1135
-1136
-1137
-1137
-1138
-1138
-1138
-1139
-1140
-1141
-1142
-1144
-1141
-1131
-1126
-1124
-1119
-1107
-1090
-1069
-1057
-1064
-1083
-1103
-1118
-1141
-1169
-1194
-1209
-1214
-1215
-1212
-1209
-1199
-1187
-1176
-1170
-1167
-1165
-1164
-1163
-1162
-1162
-1162
-1162
-1162
-1162
-1162
-1163
-1164
-1164
-1165
-1166
-1166
-1167
-1167
-1167
-1167
-1166
-1166
-1165
-1164
-1162
-1160
-1159
-1156
-1154
-1151
-1148
-1147
-1144
-1140
-1137
-1136
-1133
-1131
-1129
-1126
-1126
-1125
-1124
-1123
-1124
-1124
-1125
-1125
-1125
-1126
-1128
-1129
-1129
-1130
-1132
-1132
-1133
-1133
-1135
-1135
-1136
-1137
-1137
-1137
-1136
-1136
-1136
-1135
-1133
-1132
-1132
-1131
-1129
-1128
-1126
-1126
-1125
-1123
-1121
-1119
-1116
-1114
-1113
-1113
-1112
-1112
-1112
-1108
-1104
-1101
-1102
-1103
-1104
-1104
-1106
-1110
-1112
-1115
-1117
-1120
-1122
-1125
-1128
-1130
-1133
-1137
-1139
-1140
-1140
-1140
-1141
-1141
-1142
-1142
-1142
-1144
-1145
-1146
-1147
-1143
-1133
-1129
-1127
-1120
-1106
-1090
-1069
-1063
-1075
-1096
-1114
-1128
-1151
-1182
-1208
-1222
-1227
-1226
-1223
-1218
-1205
-1190
-1180
-1173
-1171
-1171
-1169
-1168
-1167
-1167
-1167
-1168
-1168
-1167
-1168
-1169
-1169
-1169
-1169
-1170
-1171
-1171
-1171
-1169
-1169
-1169
-1168
-1167
-1164
-1162
-1161
-1158
-1155
-1152
-1148
-1148
-1146
-1142
-1139
-1137
-1133
-1132
-1129
-1126
-1126
-1125
-1125
-1125
-1126
-1126
-1127
-1128
-1129
-1129
-1130
-1131
-1132
-1133
-1133
-1135
-1137
-1137
-1137
-1137
-1139
-1139
-1140
-1140
-1141
-1140
-1140
-1140
-1138
-1137
-1137
-1136
-1135
-1132
-1131
-1130
-1129
-1127
-1125
-1122
-1119
-1117
-1117
-1116
-1114
-1114
-1114
-1112
-1107
-1103
-1102
-1103
-1104
-1104
-1108
-1110
-1112
-1115
-1119
-1121
-1123
-1126
-1126
-1129
-1133
-1136
-1137
-1139
-1141
-1140
-1141
-1143
-1143
-1143
-1143
-1145
-1146
-1146
-1149
-1149
-1140
-1133
-1132
-1129
-1119
-1103
-1081
-1061
-1064
-1079
-1101
-1116
-1135
-1166
-1198
-1217
-1226
-1226
-1223
-1219
-1208
-1193
-1180
-1173
-1172
-1171
-1169
-1169
-1167
-1167
-1167
-1168
-1168
-1167
-1168
-1169
-1170
-1169
-1170
-1169
-1171
-1171
-1172
-1171
-1171
-1170
-1169
-1168
-1166
-1164
-1163
-1160
-1156
-1154
-1151
-1150
-1147
-1144
-1140
-1137
-1136
-1132
-1131
-1128
-1126
-1126
-1125
-1123
-1124
-1125
-1126
-1126
-1127
-1128
-1130
-1131
-1133
-1132
-1134
-1135
-1137
-1137
-1137
-1138
-1139
-1140
-1141
-1141
-1141
-1141
-1142
-1141
-1139
-1138
-1137
-1137
-1137
-1135
-1133
-1132
-1131
-1129
-1127
-1124
-1122
-1119
-1118
-1116
-1116
-1115
-1115
-1113
-1109
-1105
-1103
-1103
-1106
-1106
-1108
-1111
-1113
-1116
-1119
-1121
-1123
-1126
-1129
-1133
-1136
-1138
-1140
-1141
-1142
-1143
-1144
-1146
-1146
-1144
-1146
-1147
-1148
-1149
-1151
-1153
-1145
-1137
-1135
-1133
-1126
-1112
-1089
-1069
-1067
-1078
-1099
-1113
-1132
-1160
-1190
-1212
-1224
-1226
-1225
-1222
-1216
-1205
-1191
-1179
-1173
-1172
-1171
-1169
-1169
-1169
-1169
-1169
-1169
-1171
-1172
-1173
-1174
-1174
-1175
-1176
-1176
-1176
-1176
-1176
-1176
-1176
-1176
-1175
-1172
-1169
-1169
-1166
-1163
-1160
-1157
-1154
-1151
-1148
-1146
-1144
-1141
-1139
-1137
-1133
-1132
-1131
-1129
-1130
-1129
-1129
-1130
-1129
-1129
-1130
-1132
-1132
-1133
-1132
-1132
-1133
-1136
-1137
-1137
-1138
-1139
-1141
-1142
-1141
-1141
-1141
-1141
-1140
-1139
-1138
-1137
-1136
-1135
-1133
-1133
-1131
-1129
-1129
-1127
-1126
-1123
-1120
-1119
-1117
-1117
-1117
-1117
-1116
-1113
-1108
-1104
-1104
-1105
-1106
-1108
-1108
-1112
-1115
-1117
-1119
-1121
-1125
-1128
-1129
-1132
-1136
-1140
-1140
-1141
-1141
-1142
-1143
-1144
-1143
-1145
-1146
-1147
-1148
-1149
-1152
-1151
-1143
-1136
-1133
-1132
-1122
-1107
-1086
-1065
-1065
-1075
-1097
-1109
-1126
-1153
-1182
-1205
-1218
-1221
-1219
-1218
-1214
-1205
-1191
-1180
-1176
-1175
-1172
-1171
-1171
-1171
-1172
-1171
-1171
-1171
-1172
-1173
-1174
-1175
-1175
-1175
-1176
-1178
-1178
-1177
-1177
-1179
-1179
-1177
-1175
-1175
-1173
-1171
-1168
-1165
-1162
-1160
-1157
-1154
-1151
-1147
-1146
-1143
-1141
-1138
-1137
-1135
-1133
-1133
-1132
-1132
-1133
-1133
-1132
-1132
-1134
-1133
-1135
-1135
-1136
-1137
-1138
-1139
-1139
-1140
-1141
-1142
-1142
-1142
-1142
-1141
-1141
-1141
-1139
-1137
-1137
-1136
-1133
-1132
-1132
-1132
-1130
-1129
-1127
-1125
-1121
-1120
-1119
-1118
-1116
-1116
-1115
-1114
-1111
-1105
-1103
-1103
-1104
-1105
-1105
-1106
-1108
-1111
-1114
-1118
-1119
-1121
-1123
-1125
-1129
-1132
-1135
-1137
-1137
-1139
-1139
-1140
-1141
-1140
-1141
-1141
-1142
-1143
-1144
-1145
-1137
-1129
-1126
-1124
-1118
-1105
-1086
-1066
-1065
-1076
-1098
-1112
-1129
-1154
-1183
-1203
-1212
-1214
-1212
-1210
-1204
-1192
-1180
-1171
-1166
-1164
-1163
-1162
-1160
-1160
-1161
-1161
-1160
-1160
-1161
-1162
-1163
-1162
-1163
-1163
-1163
-1166
-1166
-1166
-1164
-1165
-1164
-1163
-1161
-1159
-1157
-1155
-1153
-1150
-1148
-1146
-1144
-1141
-1137
-1136
-1133
-1132
-1129
-1126
-1124
-1124
-1122
-1121
-1120
-1120
-1121
-1122
-1122
-1122
-1123
-1124
-1126
-1126
-1126
-1128
-1128
-1129
-1129
-1129
-1130
-1132
-1132
-1133
-1132
-1133
-1133
-1132
-1132
-1131
-1129
-1129
-1128
-1126
-1124
-1123
-1122
-1120
-1119
-1116
-1113
-1112
-1110
-1109
-1109
-1108
-1108
-1107
-1104
-1100
-1098
-1098
-1099
-1099
-1100
-1103
-1105
-1108
-1112
-1114
-1116
-1119
-1120
-1122
-1126
-1130
-1132
-1133
-1132
-1133
-1136
-1137
-1137
-1137
-1137
-1138
-1138
-1140
-1140
-1143
-1140
-1130
-1124
-1122
-1117
-1103
-1086
-1063
-1058
-1072
-1094
-1112
-1128
-1156
-1187
-1209
-1218
-1219
-1217
-1214
-1205
-1192
-1178
-1169
-1166
-1165
-1164
-1163
-1162
-1162
-1161
-1161
-1161
-1161
-1162
-1162
-1162
-1163
-1164
-1163
-1164
-1165
-1164
-1165
-1163
-1164
-1162
-1162
-1160
-1158
-1156
-1154
-1153
-1149
-1147
-1144
-1143
-1139
-1137
-1133
-1131
-1129
-1126
-1123
-1121
-1121
-1120
-1120
-1119
-1118
-1119
-1120
-1120
-1122
-1123
-1124
-1125
-1126
-1126
-1127
-1129
-1130
-1131
-1132
-1133
-1134
-1133
-1133
-1132
-1133
-1133
-1132
-1132
-1132
-1131
-1131
-1130
-1129
-1127
-1126
-1125
-1123
-1120
-1117
-1114
-1112
-1112
-1110
-1109
-1108
-1105
-1101
-1097
-1096
-1097
-1098
-1100
-1103
-1104
-1107
-1111
-1114
-1116
-1118
-1120
-1123
-1126
-1129
-1131
-1132
-1135
-1137
-1137
-1137
-1137
-1138
-1138
-1140
-1140
-1141
-1142
-1144
-1146
-1137
-1129
-1128
-1126
-1117
-1101
-1079
-1061
-1061
-1075
-1096
-1111
-1129
-1158
-1190
-1211
-1222
-1223
-1221
-1219
-1211
-1197
-1186
-1176
-1170
-1167
-1167
-1166
-1165
-1165
-1165
-1165
-1166
-1166
-1166
-1167
-1169
-1169
-1171
-1169
-1169
-1171
-1171
-1171
-1170
-1169
-1169
-1167
-1166
-1162
-1161
-1159
-1156
-1154
-1151
-1148
-1146
-1145
-1140
-1137
-1135
-1133
-1132
-1129
-1126
-1125
-1125
-1124
-1123
-1124
-1125
-1126
-1127
-1129
-1130
-1131
-1132
-1132
-1133
-1134
-1135
-1135
-1137
-1137
-1137
-1139
-1140
-1140
-1139
-1138
-1139
-1138
-1138
-1137
-1135
-1133
-1132
-1132
-1130
-1129
-1126
-1125
-1123
-1120
-1119
-1117
-1117
-1117
-1116
-1114
-1108
-1105
-1103
-1103
-1104
-1104
-1105
-1108
-1110
-1112
-1116
-1119
-1121
-1125
-1128
-1130
-1134
-1137
-1138
-1140
-1141
-1142
-1143
-1143
-1144
-1144
-1144
-1146
-1146
-1146
-1148
-1153
-1149
-1137
-1133
-1132
-1129
-1116
-1096
-1074
-1061
-1063
-1081
-1099
-1113
-1137
-1166
-1194
-1212
-1221
-1221
-1219
-1218
-1210
-1198
-1187
-1179
-1175
-1173
-1173
-1172
-1171
-1171
-1169
-1170
-1171
-1172
-1173
-1174
-1175
-1176
-1176
-1176
-1178
-1177
-1178
-1179
-1179
-1178
-1176
-1175
-1174
-1173
-1171
-1169
-1167
-1164
-1162
-1160
-1158
-1156
-1153
-1150
-1147
-1144
-1142
-1140
-1138
-1136
-1133
-1132
-1132
-1133
-1132
-1132
-1133
-1133
-1135
-1135
-1136
-1137
-1137
-1139
-1138
-1138
-1139
-1140
-1142
-1143
-1143
-1143
-1143
-1145
-1144
-1142
-1142
-1141
-1140
-1139
-1137
-1136
-1135
-1135
-1132
-1129
-1126
-1125
-1123
-1121
-1119
-1119
-1117
-1115
-1111
-1106
-1104
-1105
-1106
-1108
-1107
-1108
-1111
-1114
-1116
-1119
-1120
-1123
-1126
-1129
-1131
-1133
-1137
-1138
-1139
-1139
-1140
-1140
-1141
-1142
-1141
-1142
-1144
-1144
-1146
-1148
-1144
-1135
-1132
-1130
-1126
-1112
-1094
-1073
-1065
-1072
-1091
-1105
-1120
-1146
-1171
-1193
-1205
-1210
-1209
-1207
-1203
-1194
-1184
-1175
-1169
-1166
-1166
-1165
-1163
-1163
-1163
-1163
-1163
-1162
-1162
-1163
-1164
-1165
-1164
-1165
-1166
-1167
-1167
-1167
-1167
-1167
-1167
-1166
-1164
-1162
-1161
-1160
-1158
-1155
-1152
-1150
-1147
-1145
-1141
-1137
-1136
-1133
-1132
-1129
-1126
-1125
-1125
-1125
-1125
-1125
-1126
-1126
-1126
-1127
-1127
-1128
-1129
-1130
-1129
-1129
-1130
-1130
-1132
-1132
-1132
-1133
-1135
-1135
-1135
-1135
-1135
-1135
-1135
-1134
-1132
-1131
-1129
-1129
-1127
-1124
-1121
-1118
-1116
-1113
-1113
-1112
-1112
-1110
-1106
-1102
-1099
-1098
-1099
-1099
-1099
-1100
-1103
-1105
-1108
-1111
-1112
-1116
-1119
-1120
-1123
-1126
-1130
-1133
-1133
-1134
-1135
-1136
-1137
-1137
-1137
-1137
-1138
-1140
-1140
-1143
-1144
-1137
-1128
-1125
-1123
-1115
-1101
-1080
-1061
-1061
-1075
-1097
-1116
-1132
-1162
-1191
-1208
-1214
-1215
-1212
-1208
-1198
-1184
-1173
-1168
-1166
-1165
-1164
-1162
-1163
-1162
-1162
-1162
-1163
-1163
-1164
-1165
-1166
-1166
-1166
-1167
-1167
-1167
-1167
-1166
-1166
-1166
-1166
-1163
-1163
-1160
-1158
-1156
-1154
-1150
-1147
-1144
-1141
-1138
-1136
-1134
-1133
-1129
-1126
-1124
-1124
-1122
-1122
-1121
-1121
-1122
-1123
-1123
-1124
-1125
-1127
-1128
-1129
-1129
-1129
-1131
-1132
-1132
-1133
-1132
-1135
-1135
-1136
-1133
-1135
-1135
-1136
-1134
-1132
-1132
-1133
-1132
-1131
-1130
-1129
-1126
-1124
-1120
-1118
-1116
-1114
-1114
-1112
-1108
-1105
-1101
-1097
-1096
-1098
-1098
-1099
-1101
-1105
-1107
-1111
-1114
-1116
-1118
-1120
-1122
-1126
-1130
-1132
-1132
-1135
-1137
-1137
-1137
-1138
-1139
-1139
-1140
-1141
-1141
-1142
-1144
-1146
-1135
-1128
-1126
-1123
-1114
-1097
-1075
-1060
-1068
-1086
-1106
-1122
-1144
-1176
-1204
-1218
-1222
-1222
-1219
-1212
-1200
-1185
-1174
-1169
-1168
-1167
-1165
-1165
-1166
-1165
-1164
-1165
-1164
-1165
-1166
-1165
-1166
-1167
-1167
-1168
-1169
-1168
-1168
-1169
-1169
-1168
-1166
-1165
-1164
-1163
-1160
-1158
-1154
-1153
-1149
-1146
-1143
-1140
-1137
-1135
-1132
-1129
-1129
-1128
-1126
-1125
-1123
-1123
-1124
-1125
-1124
-1125
-1126
-1128
-1129
-1131
-1132
-1134
-1136
-1137
-1137
-1137
-1138
-1140
-1140
-1141
-1140
-1140
-1141
-1140
-1140
-1140
-1140
-1139
-1137
-1136
-1135
-1135
-1134
-1132
-1129
-1125
-1123
-1122
-1120
-1119
-1118
-1117
-1116
-1112
-1107
-1104
-1105
-1106
-1106
-1106
-1108
-1110
-1112
-1116
-1119
-1120
-1123
-1124
-1128
-1130
-1132
-1137
-1139
-1141
-1142
-1142
-1143
-1144
-1144
-1144
-1146
-1146
-1148
-1149
-1151
-1146
-1137
-1133
-1132
-1126
-1110
-1091
-1069
-1061
-1069
-1091
-1108
-1126
-1153
-1184
-1208
-1222
-1226
-1226
-1222
-1217
-1206
-1193
-1181
-1174
-1171
-1169
-1169
-1168
-1167
-1167
-1168
-1168
-1169
-1169
-1169
-1169
-1171
-1171
-1173
-1174
-1175
-1176
-1175
-1175
-1174
-1174
-1174
-1172
-1169
-1169
-1166
-1164
-1162
-1159
-1156
-1154
-1153
-1150
-1147
-1144
-1141
-1139
-1137
-1133
-1132
-1130
-1130
-1129
-1129
-1127
-1128
-1129
-1129
-1130
-1130
-1132
-1133
-1136
-1136
-1137
-1138
-1140
-1140
-1141
-1142
-1142
-1143
-1144
-1143
-1142
-1142
-1143
-1142
-1142
-1139
-1138
-1137
-1137
-1135
-1133
-1132
-1130
-1129
-1125
-1124
-1123
-1121
-1120
-1120
-1119
-1116
-1112
-1109
-1107
-1108
-1108
-1110
-1112
-1113
-1115
-1117
-1121
-1124
-1126
-1129
-1130
-1135
-1139
-1142
-1143
-1144
-1145
-1146
-1146
-1147
-1148
-1148
-1148
-1150
-1150
-1151
-1154
-1156
-1150
-1141
-1139
-1137
-1129
-1114
-1094
-1072
-1069
-1079
-1100
-1112
-1128
-1153
-1181
-1205
-1219
-1224
-1225
-1222
-1219
-1209
-1198
-1187
-1181
-1179
-1176
-1174
-1175
-1176
-1174
-1173
-1174
-1174
-1175
-1176
-1176
-1176
-1176
-1178
-1179
-1179
-1179
-1180
-1180
-1179
-1178
-1176
-1176
-1175
-1173
-1171
-1168
-1167
-1164
-1160
-1157
-1154
-1151
-1149
-1146
-1142
-1140
-1139
-1137
-1136
-1134
-1133
-1134
-1133
-1132
-1133
-1133
-1133
-1135
-1136
-1135
-1136
-1136
-1137
-1137
-1137
-1139
-1139
-1140
-1140
-1139
-1140
-1141
-1142
-1141
-1140
-1139
-1138
-1137
-1137
-1135
-1132
-1132
-1131
-1129
-1127
-1125
-1123
-1120
-1119
-1116
-1116
-1115
-1116
-1113
-1107
-1103
-1101
-1103
-1103
-1103
-1103
-1104
-1107
-1109
-1112
-1115
-1119
-1121
-1124
-1126
-1129
-1132
-1134
-1136
-1137
-1137
-1138
-1139
-1139
-1138
-1139
-1141
-1142
-1142
-1144
-1146
-1137
-1130
-1127
-1126
-1119
-1104
-1085
-1065
-1060
-1067
-1087
-1102
-1118
-1143
-1170
-1190
-1203
-1206
-1205
-1204
-1200
-1190
-1180
-1169
-1165
-1162
-1162
-1161
-1160
-1159
-1160
-1160
-1160
-1161
-1161
-1162
-1163
-1163
-1163
-1165
-1164
-1165
-1165
-1165
-1165
-1164
-1164
-1163
-1162
-1159
-1157
-1155
-1153
-1149
-1147
-1146
-1144
-1140
-1137
-1133
-1131
-1130
-1128
-1126
-1124
-1123
-1122
-1122
-1120
-1120
-1120
-1122
-1121
-1120
-1122
-1122
-1125
-1125
-1125
-1125
-1126
-1128
-1129
-1129
-1129
-1130
-1131
-1131
-1132
-1131
-1130
-1129
-1129
-1128
-1126
-1125
-1124
-1122
-1120
-1119
-1117
-1116
-1112
-1108
-1108
-1107
-1106
-1105
-1103
-1100
-1097
-1094
-1091
-1091
-1094
-1095
-1095
-1097
-1099
-1101
-1104
-1107
-1108
-1111
-1114
-1117
-1121
-1125
-1127
-1129
-1130
-1130
-1131
-1131
-1132
-1133
-1133
-1133
-1132
-1133
-1137
-1138
-1132
-1122
-1118
-1118
-1112
-1096
-1078
-1058
-1055
-1069
-1090
-1105
-1120
-1146
-1173
-1192
-1201
-1204
-1201
-1200
-1194
-1185
-1173
-1164
-1160
-1159
-1156
-1154
-1154
-1155
-1154
-1154
-1154
-1155
-1156
-1155
-1156
-1158
-1159
-1159
-1160
-1159
-1159
-1160
-1161
-1160
-1159
-1157
-1156
-1154
-1151
-1149
-1148
-1146
-1143
-1141
-1137
-1137
-1134
-1132
-1129
-1125
-1123
-1121
-1119
-1118
-1116
-1115
-1115
-1116
-1115
-1115
-1116
-1118
-1120
-1119
-1120
-1122
-1123
-1124
-1124
-1124
-1125
-1126
-1127
-1128
-1127
-1128
-1128
-1129
-1127
-1126
-1126
-1126
-1125
-1124
-1123
-1122
-1121
-1120
-1118
-1116
-1113
-1111
-1108
-1107
-1105
-1104
-1105
-1102
-1097
-1093
-1090
-1091
-1092
-1091
-1092
-1095
-1097
-1100
-1103
-1105
-1108
-1111
-1115
-1116
-1119
-1124
-1127
-1129
-1129
-1129
-1130
-1131
-1132
-1131
-1131
-1132
-1134
-1134
-1135
-1137
-1135
-1124
-1119
-1117
-1112
-1098
-1082
-1060
-1050
-1060
-1080
-1100
-1114
-1136
-1166
-1193
-1207
-1213
-1212
-1208
-1204
-1193
-1180
-1167
-1161
-1158
-1158
-1157
-1155
-1154
-1154
-1154
-1155
-1155
-1155
-1159
-1159
-1160
-1160
-1160
-1161
-1162
-1162
-1163
-1162
-1162
-1162
-1162
-1160
-1158
-1156
-1155
-1154
-1150
-1146
-1146
-1143
-1140
-1137
-1135
-1133
-1130
-1128
-1125
-1122
-1120
-1119
-1119
-1117
-1117
-1117
-1119
-1119
-1120
-1120
-1121
-1122
-1124
-1125
-1126
-1126
-1129
-1130
-1131
-1131
-1132
-1132
-1133
-1133
-1134
-1133
-1135
-1133
-1133
-1132
-1132
-1131
-1130
-1129
-1126
-1126
-1124
-1123
-1121
-1117
-1115
-1115
-1113
-1112
-1112
-1110
-1107
-1103
-1099
-1097
-1098
-1099
-1100
-1102
-1104
-1105
-1108
-1112
-1115
-1116
-1118
-1120
-1125
-1129
-1132
-1132
-1133
-1136
-1137
-1137
-1137
-1137
-1140
-1140
-1141
-1142
-1143
-1146
-1146
-1138
-1129
-1126
-1127
-1119
-1102
-1082
-1062
-1062
-1076
-1097
-1112
-1129
-1157
-1188
-1210
-1223
-1227
-1225
-1223
-1216
-1201
-1187
-1177
-1171
-1169
-1168
-1167
-1166
-1166
-1165
-1165
-1165
-1166
-1166
-1166
-1167
-1168
-1169
-1171
-1170
-1170
-1171
-1171
-1171
-1171
-1171
-1171
-1171
-1169
-1167
-1163
-1161
-1159
-1157
-1154
-1150
-1147
-1146
-1142
-1138
-1136
-1133
-1131
-1129
-1128
-1126
-1127
-1126
-1126
-1126
-1126
-1128
-1129
-1130
-1132
-1132
-1133
-1135
-1136
-1137
-1137
-1138
-1139
-1141
-1140
-1141
-1142
-1142
-1142
-1141
-1141
-1140
-1140
-1140
-1137
-1136
-1136
-1136
-1135
-1133
-1131
-1126
-1125
-1124
-1122
-1120
-1120
-1119
-1117
-1112
-1108
-1106
-1106
-1107
-1107
-1108
-1110
-1112
-1116
-1118
-1120
-1123
-1126
-1128
-1130
-1133
-1137
-1139
-1141
-1141
-1142
-1143
-1144
-1145
-1146
-1144
-1146
-1147
-1148
-1151
-1153
-1145
-1136
-1133
-1133
-1125
-1108
-1086
-1065
-1061
-1069
-1093
-1109
-1127
-1154
-1185
-1210
-1223
-1228
-1225
-1223
-1219
-1207
-1194
-1184
-1178
-1176
-1176
-1174
-1173
-1173
-1173
-1173
-1174
-1175
-1174
-1175
-1176
-1176
-1176
-1178
-1179
-1180
-1180
-1179
-1179
-1178
-1178
-1177
-1176
-1174
-1173
-1171
-1168
-1165
-1162
-1159
-1157
-1154
-1151
-1148
-1147
-1144
-1143
-1140
-1137
-1137
-1136
-1135
-1133
-1133
-1133
-1134
-1135
-1133
-1135
-1136
-1137
-1138
-1138
-1138
-1139
-1140
-1142
-1143
-1143
-1144
-1143
-1143
-1142
-1143
-1142
-1141
-1140
-1139
-1137
-1137
-1137
-1135
-1132
-1130
-1128
-1125
-1123
-1121
-1120
-1119
-1117
-1113
-1109
-1105
-1105
-1107
-1108
-1108
-1110
-1112
-1114
-1116
-1119
-1121
-1124
-1126
-1128
-1130
-1132
-1137
-1140
-1141
-1142
-1142
-1144
-1144
-1144
-1144
-1146
-1147
-1147
-1148
-1151
-1148
-1139
-1133
-1132
-1129
-1118
-1100
-1078
-1064
-1067
-1083
-1100
-1112
-1137
-1165
-1192
-1210
-1218
-1218
-1216
-1215
-1209
-1198
-1187
-1179
-1174
-1172
-1172
-1171
-1171
-1171
-1171
-1172
-1172
-1173
-1174
-1174
-1174
-1174
-1175
-1177
-1176
-1176
-1176
-1178
-1178
-1177
-1176
-1174
-1172
-1171
-1169
-1166
-1163
-1161
-1159
-1156
-1154
-1151
-1149
-1146
-1143
-1141
-1138
-1136
-1133
-1132
-1132
-1131
-1131
-1131
-1131
-1131
-1131
-1132
-1132
-1134
-1136
-1137
-1137
-1138
-1138
-1139
-1138
-1139
-1140
-1141
-1141
-1141
-1141
-1141
-1141
-1140
-1139
-1137
-1137
-1136
-1133
-1132
-1129
-1126
-1124
-1122
-1119
-1118
-1116
-1114
-1110
-1105
-1101
-1103
-1103
-1101
-1101
-1103
-1105
-1107
-1110
-1113
-1115
-1118
-1121
-1124
-1126
-1130
-1134
-1137
-1137
-1138
-1139
-1140
-1141
-1140
-1140
-1141
-1143
-1144
-1146
-1148
-1140
-1131
-1128
-1126
-1117
-1101
-1082
-1061
-1059
-1068
-1088
-1103
-1122
-1149
-1176
-1194
-1205
-1208
-1206
-1205
-1199
-1189
-1178
-1169
-1166
-1164
-1163
-1162
-1162
-1162
-1162
-1162
-1162
-1162
-1163
-1165
-1165
-1166
-1168
-1168
-1169
-1170
-1170
-1169
-1169
-1169
-1168
-1167
-1165
-1162
-1161
-1159
-1157
-1154
-1151
-1149
-1147
-1144
-1141
-1137
-1136
-1133
-1131
-1129
-1126
-1125
-1123
-1122
-1121
-1120
-1121
-1122
-1123
-1123
-1124
-1125
-1125
-1126
-1127
-1128
-1129
-1130
-1130
-1131
-1132
-1131
-1132
-1132
-1132
-1131
-1132
-1132
-1132
-1130
-1129
-1128
-1127
-1124
-1120
-1117
-1116
-1114
-1112
-1111
-1110
-1108
-1104
-1099
-1095
-1094
-1096
-1097
-1096
-1098
-1099
-1102
-1104
-1108
-1109
-1111
-1113
-1116
-1120
-1125
-1127
-1129
-1132
-1133
-1133
-1133
-1135
-1136
-1137
-1137
-1137
-1139
-1141
-1143
-1138
-1128
-1122
-1120
-1116
-1103
-1086
-1064
-1054
-1065
-1086
-1108
-1123
-1146
-1176
-1199
-1211
-1215
-1214
-1211
-1205
-1196
-1183
-1173
-1168
-1166
-1165
-1164
-1163
-1164
-1162
-1163
-1164
-1165
-1165
-1165
-1165
-1167
-1168
-1169
-1169
-1170
-1171
-1171
-1171
-1171
-1169
-1169
-1168
-1166
-1165
-1162
-1161
-1159
-1156
-1154
-1150
-1148
-1144
-1143
-1140
-1137
-1135
-1133
-1130
-1129
-1126
-1126
-1126
-1127
-1126
-1127
-1129
-1130
-1130
-1130
-1131
-1132
-1133
-1135
-1135
-1136
-1137
-1138
-1138
-1140
-1139
-1139
-1139
-1139
-1139
-1140
-1139
-1140
-1139
-1137
-1136
-1135
-1133
-1130
-1126
-1124
-1122
-1120
-1119
-1117
-1115
-1111
-1105
-1103
-1103
-1103
-1103
-1105
-1106
-1108
-1110
-1113
-1116
-1118
-1120
-1123
-1125
-1130
-1133
-1135
-1137
-1138
-1139
-1139
-1140
-1140
-1140
-1141
-1142
-1143
-1144
-1147
-1146
-1136
-1128
-1125
-1122
-1112
-1095
-1074
-1055
-1060
-1078
-1099
-1116
-1137
-1169
-1198
-1214
-1220
-1219
-1217
-1212
-1199
-1185
-1174
-1169
-1168
-1166
-1166
-1165
-1165
-1164
-1165
-1165
-1165
-1166
-1166
-1166
-1167
-1168
-1168
-1169
-1169
-1169
-1170
-1169
-1169
-1169
-1167
-1166
-1164
-1162
-1160
-1157
-1155
-1151
-1149
-1147
-1144
-1141
-1138
-1136
-1132
-1130
-1126
-1125
-1124
-1123
-1121
-1120
-1120
-1120
-1120
-1121
-1122
-1124
-1127
-1129
-1130
-1130
-1132
-1133
-1133
-1133
-1135
-1136
-1137
-1137
-1136
-1137
-1137
-1137
-1136
-1135
-1135
-1134
-1132
-1132
-1130
-1127
-1125
-1123
-1120
-1117
-1116
-1115
-1112
-1108
-1104
-1101
-1100
-1100
-1100
-1100
-1101
-1103
-1104
-1107
-1110
-1112
-1115
-1116
-1119
-1122
-1126
-1129
-1132
-1134
-1135
-1136
-1137
-1137
-1138
-1139
-1139
-1139
-1141
-1142
-1145
-1137
-1129
-1125
-1123
-1114
-1099
-1078
-1058
-1060
-1074
-1096
-1110
-1132
-1161
-1190
-1209
-1217
-1218
-1215
-1212
-1204
-1191
-1178
-1169
-1167
-1166
-1164
-1163
-1162
-1163
-1164
-1164
-1164
-1165
-1165
-1165
-1166
-1167
-1168
-1169
-1171
-1171
-1171
-1171
-1171
-1171
-1171
-1169
-1167
-1165
-1165
-1162
-1159
-1156
-1154
-1153
-1149
-1146
-1143
-1140
-1137
-1134
-1132
-1129
-1128
-1126
-1125
-1123
-1121
-1122
-1123
-1123
-1125
-1125
-1127
-1127
-1129
-1129
-1129
-1131
-1132
-1132
-1133
-1133
-1133
-1135
-1135
-1136
-1135
-1134
-1133
-1133
-1132
-1132
-1131
-1130
-1129
-1126
-1123
-1121
-1119
-1118
-1116
-1115
-1113
-1111
-1106
-1100
-1097
-1099
-1099
-1098
-1099
-1100
-1103
-1106
-1110
-1112
-1113
-1116
-1119
-1122
-1126
-1129
-1130
-1132
-1132
-1133
-1136
-1136
-1137
-1137
-1137
-1138
-1139
-1141
-1144
-1138
-1129
-1124
-1123
-1116
-1100
-1081
-1058
-1054
-1060
-1082
-1098
-1116
-1144
-1174
-1197
-1210
-1215
-1214
-1211
-1208
-1197
-1185
-1174
-1168
-1166
-1164
-1164
-1165
-1164
-1165
-1165
-1165
-1165
-1165
-1165
-1166
-1168
-1168
-1168
-1169
-1170
-1171
-1171
-1171
-1169
-1169
-1169
-1168
-1165
-1163
-1162
-1160
-1157
-1155
-1153
-1151
-1148
-1146
-1141
-1138
-1135
-1133
-1132
-1129
-1128
-1127
-1126
-1125
-1126
-1127
-1127
-1127
-1128
-1128
-1128
-1130
-1130
-1131
-1132
-1132
-1133
-1132
-1132
-1134
-1135
-1136
-1137
-1136
-1135
-1134
-1134
-1132
-1132
-1130
-1128
-1126
-1125
-1121
-1119
-1118
-1116
-1114
-1112
-1109
-1105
-1101
-1098
-1098
-1098
-1098
-1099
-1101
-1101
-1104
-1106
-1110
-1112
-1114
-1117
-1119
-1123
-1128
-1131
-1132
-1132
-1135
-1137
-1137
-1137
-1137
-1137
-1137
-1139
-1140
-1142
-1146
-1141
-1130
-1125
-1125
-1123
-1109
-1090
-1069
-1061
-1068
-1090
-1103
-1116
-1141
-1167
-1189
-1203
-1210
-1211
-1211
-1209
-1201
-1191
-1182
-1176
-1173
-1171
-1171
-1171
-1170
-1171
-1171
-1171
-1171
-1172
-1173
-1174
-1174
-1174
-1176
-1176
-1176
-1176
-1176
-1176
-1177
-1176
-1175
-1174
-1173
-1171
-1171
-1169
-1167
-1164
-1162
-1160
-1157
-1154
-1151
-1148
-1145
-1142
-1139
-1137
-1137
-1133
-1132
-1132
-1132
-1132
-1131
-1132
-1133
-1136
-1136
-1137
-1137
-1137
-1139
-1139
-1140
-1141
-1141
-1142
-1143
-1144
-1144
-1146
-1146
-1146
-1146
-1145
-1143
-1143
-1141
-1139
-1137
-1132
-1131
-1129
-1127
-1125
-1124
-1121
-1119
-1115
-1110
-1107
-1106
-1107
-1107
-1107
-1108
-1110
-1112
-1114
-1116
-1116
-1119
-1124
-1127
-1131
-1133
-1138
-1140
-1143
-1144
-1144
-1146
-1147
-1149
-1148
-1148
-1153
-1153
-1156
-1156
-1144
-1140
-1139
-1135
-1123
-1106
-1083
-1075
-1078
-1098
-1116
-1132
-1154
-1179
-1201
-1214
-1218
-1221
-1222
-1219
-1212
-1205
-1192
-1188
-1183
-1182
-1183
-1187
-1186
-1187
-1183
-1186
-1190
-1189
-1189
-1188
-1187
-1188
-1192
-1194
-1194
-1196
-1197
-1193
-1194
-1197
-1198
-1194
-1191
-1188
-1187
-1185
-1183
-1184
-1181
-1178
-1173
-1171
-1169
-1167
-1165
-1162
-1161
-1162
-1160
-1157
-1157
-1155
-1154
-1151
-1155
-1155
-1154
-1154
-1154
-1157
-1157
-1160
-1158
-1157
-1158
-1159
-1160
-1162
-1164
-1167
-1167
-1164
-1164
-1162
-1161
-1161
-1161
-1157
-1153
-1152
-1151
-1147
-1144
-1143
-1144
-1141
-1140
-1139
-1136
-1129
-1128
-1130
-1131
-1133
-1126
-1125
-1129
-1130
-1133
-1137
-1139
-1142
-1144
-1146
-1149
-1153
-1160
-1162
-1161
-1159
-1159
-1160
-1162
-1160
-1163
-1166
-1164
-1163
-1166
-1168
-1156
-1149
-1148
-1146
-1137
-1119
-1098
-1089
-1103
-1125
-1144
-1159
-1186
-1212
-1228
-1234
-1237
-1233
-1229
-1222
-1212
-1198
-1189
-1188
-1188
-1186
-1187
-1188
-1188
-1188
-1189
-1179
-1178
-1180
-1181
-1183
-1183
-1184
-1186
-1187
-1187
-1187
-1187
-1188
-1188
-1188
-1183
-1179
-1180
-1176
-1175
-1176
-1173
-1171
-1169
-1163
-1158
-1154
-1154
-1151
-1149
-1144
-1141
-1143
-1144
-1140
-1140
-1142
-1141
-1137
-1140
-1138
-1138
-1141
-1144
-1146
-1146
-1146
-1148
-1146
-1146
-1144
-1146
-1146
-1144
-1145
-1144
-1145
-1144
-1146
-1146
-1144
-1143
-1143
-1141
-1140
-1137
-1133
-1126
-1127
-1124
-1121
-1117
-1112
-1108
-1108
-1108
-1106
-1105
-1108
-1108
-1110
-1113
-1117
-1119
-1123
-1123
-1124
-1127
-1132
-1132
-1134
-1135
-1135
-1136
-1137
-1135
-1133
-1136
-1136
-1137
-1138
-1140
-1145
-1137
-1128
-1123
-1122
-1114
-1097
-1078
-1061
-1064
-1080
-1104
-1120
-1138
-1166
-1194
-1211
-1214
-1212
-1209
-1203
-1193
-1179
-1168
-1164
-1164
-1162
-1159
-1158
-1158
-1158
-1157
-1154
-1154
-1155
-1154
-1154
-1154
-1154
-1154
-1154
-1157
-1156
-1156
-1158
-1159
-1157
-1155
-1155
-1153
-1151
-1149
-1146
-1145
-1141
-1138
-1135
-1132
-1129
-1126
-1123
-1118
-1115
-1112
-1109
-1108
-1105
-1105
-1105
-1103
-1101
-1099
-1100
-1102
-1103
-1103
-1105
-1105
-1106
-1107
-1108
-1110
-1111
-1111
-1111
-1111
-1112
-1112
-1113
-1112
-1112
-1111
-1108
-1107
-1106
-1104
-1100
-1096
-1095
-1095
-1095
-1094
-1091
-1088
-1086
-1083
-1078
-1072
-1072
-1072
-1074
-1076
-1078
-1080
-1082
-1084
-1086
-1088
-1090
-1092
-1096
-1101
-1104
-1106
-1108
-1108
-1111
-1110
-1112
-1116
-1116
-1114
-1115
-1116
-1119
-1119
-1106
-1101
-1098
-1093
-1082
-1067
-1046
-1033
-1042
-1062
-1083
-1099
-1122
-1154
-1181
-1196
-1197
-1194
-1191
-1183
-1171
-1157
-1148
-1146
-1146
-1143
-1141
-1142
-1140
-1138
-1139
-1138
-1140
-1139
-1140
-1140
-1139
-1140
-1140
-1144
-1145
-1144
-1144
-1144
-1144
-1144
-1144
-1141
-1139
-1136
-1135
-1133
-1130
-1129
-1126
-1121
-1118
-1116
-1114
-1111
-1107
-1103
-1100
-1098
-1098
-1095
-1092
-1093
-1093
-1092
-1094
-1094
-1094
-1096
-1097
-1096
-1097
-1098
-1101
-1103
-1105
-1107
-1106
-1105
-1105
-1107
-1107
-1105
-1105
-1105
-1106
-1106
-1104
-1102
-1098
-1096
-1096
-1093
-1091
-1091
-1087
-1086
-1082
-1078
-1074
-1072
-1072
-1073
-1074
-1075
-1078
-1077
-1080
-1086
-1089
-1091
-1093
-1094
-1098
-1103
-1108
-1109
-1108
-1110
-1112
-1112
-1113
-1113
-1115
-1115
-1116
-1118
-1120
-1123
-1116
-1106
-1100
-1098
-1090
-1075
-1056
-1035
-1030
-1042
-1065
-1086
-1105
-1137
-1173
-1196
-1206
-1207
-1205
-1202
-1193
-1180
-1165
-1155
-1153
-1150
-1150
-1149
-1148
-1148
-1150
-1150
-1150
-1151
-1151
-1153
-1154
-1154
-1154
-1155
-1156
-1158
-1158
-1159
-1158
-1158
-1159
-1157
-1154
-1153
-1152
-1149
-1146
-1143
-1140
-1139
-1136
-1133
-1130
-1126
-1125
-1122
-1118
-1114
-1113
-1112
-1112
-1111
-1110
-1110
-1112
-1112
-1113
-1114
-1116
-1119
-1119
-1120
-1121
-1122
-1123
-1124
-1125
-1126
-1128
-1128
-1128
-1126
-1129
-1128
-1126
-1125
-1121
-1119
-1117
-1116
-1115
-1113
-1112
-1108
-1106
-1101
-1095
-1094
-1094
-1094
-1093
-1094
-1095
-1097
-1100
-1104
-1106
-1107
-1110
-1113
-1116
-1120
-1124
-1125
-1128
-1129
-1130
-1131
-1132
-1132
-1132
-1133
-1132
-1133
-1137
-1139
-1130
-1121
-1119
-1117
-1109
-1094
-1074
-1054
-1052
-1064
-1088
-1103
-1124
-1155
-1188
-1212
-1225
-1228
-1226
-1223
-1214
-1200
-1185
-1174
-1170
-1167
-1165
-1164
-1164
-1162
-1163
-1163
-1163
-1164
-1166
-1169
-1170
-1171
-1173
-1172
-1172
-1172
-1173
-1174
-1174
-1173
-1173
-1171
-1170
-1168
-1166
-1163
-1161
-1159
-1156
-1153
-1150
-1147
-1144
-1142
-1139
-1136
-1134
-1132
-1129
-1125
-1125
-1124
-1125
-1124
-1124
-1125
-1126
-1126
-1128
-1128
-1129
-1132
-1132
-1134
-1134
-1133
-1136
-1137
-1137
-1137
-1137
-1137
-1137
-1136
-1133
-1132
-1129
-1127
-1126
-1124
-1122
-1122
-1120
-1117
-1112
-1107
-1104
-1103
-1103
-1103
-1103
-1104
-1107
-1108
-1112
-1114
-1117
-1119
-1120
-1123
-1129
-1133
-1134
-1137
-1137
-1138
-1139
-1140
-1141
-1141
-1142
-1144
-1144
-1147
-1151
-1147
-1137
-1132
-1129
-1123
-1110
-1091
-1068
-1054
-1057
-1076
-1097
-1111
-1138
-1168
-1194
-1214
-1222
-1222
-1221
-1219
-1211
-1200
-1189
-1182
-1179
-1178
-1177
-1176
-1176
-1176
-1175
-1176
-1175
-1175
-1176
-1178
-1178
-1179
-1180
-1181
-1184
-1182
-1183
-1182
-1182
-1182
-1181
-1180
-1179
-1176
-1174
-1172
-1171
-1167
-1165
-1162
-1161
-1157
-1154
-1151
-1148
-1144
-1142
-1140
-1138
-1136
-1135
-1133
-1132
-1132
-1134
-1133
-1133
-1132
-1132
-1133
-1135
-1135
-1137
-1138
-1139
-1139
-1137
-1137
-1138
-1139
-1138
-1137
-1136
-1135
-1132
-1129
-1127
-1125
-1122
-1121
-1120
-1118
-1116
-1111
-1106
-1103
-1102
-1101
-1100
-1101
-1102
-1104
-1107
-1108
-1112
-1113
-1115
-1117
-1121
-1125
-1129
-1132
-1134
-1135
-1137
-1137
-1137
-1137
-1139
-1140
-1140
-1141
-1143
-1147
-1144
-1133
-1125
-1121
-1117
-1103
-1086
-1065
-1053
-1058
-1078
-1097
-1112
-1137
-1166
-1188
-1203
-1209
-1208
-1206
-1205
-1197
-1187
-1176
-1169
-1167
-1167
-1167
-1167
-1167
-1168
-1169
-1168
-1169
-1169
-1171
-1171
-1171
-1172
-1173
-1174
-1174
-1174
-1175
-1176
-1176
-1175
-1174
-1173
-1171
-1170
-1167
-1165
-1162
-1159
-1156
-1154
-1151
-1148
-1146
-1143
-1139
-1136
-1132
-1130
-1129
-1128
-1126
-1124
-1124
-1124
-1124
-1125
-1125
-1126
-1126
-1128
-1129
-1130
-1132
-1133
-1133
-1134
-1135
-1135
-1136
-1135
-1135
-1135
-1132
-1132
-1130
-1128
-1124
-1121
-1119
-1117
-1116
-1115
-1114
-1111
-1107
-1103
-1099
-1098
-1099
-1098
-1097
-1099
-1101
-1103
-1106
-1108
-1111
-1112
-1116
-1119
-1122
-1126
-1129
-1131
-1132
-1133
-1133
-1133
-1135
-1136
-1137
-1137
-1138
-1141
-1144
-1142
-1130
-1122
-1119
-1114
-1102
-1084
-1061
-1045
-1051
-1068
-1094
-1112
-1137
-1169
-1195
-1209
-1214
-1214
-1212
-1208
-1197
-1184
-1174
-1170
-1169
-1168
-1167
-1167
-1166
-1166
-1166
-1166
-1167
-1168
-1169
-1169
-1169
-1171
-1172
-1173
-1173
-1174
-1176
-1176
-1177
-1177
-1176
-1175
-1175
-1172
-1171
-1169
-1166
-1163
-1160
-1156
-1154
-1151
-1149
-1146
-1141
-1138
-1135
-1133
-1130
-1128
-1127
-1126
-1126
-1126
-1125
-1125
-1126
-1127
-1127
-1128
-1129
-1130
-1132
-1132
-1132
-1132
-1132
-1133
-1135
-1136
-1136
-1136
-1136
-1136
-1135
-1134
-1132
-1130
-1126
-1125
-1123
-1122
-1121
-1120
-1119
-1115
-1111
-1107
-1103
-1103
-1103
-1102
-1103
-1104
-1105
-1106
-1110
-1113
-1115
-1118
-1120
-1123
-1128
-1131
-1132
-1135
-1136
-1137
-1138
-1138
-1138
-1141
-1141
-1142
-1142
-1144
-1146
-1137
-1128
-1125
-1121
-1112
-1095
-1073
-1055
-1060
-1079
-1103
-1119
-1144
-1178
-1209
-1225
-1231
-1230
-1229
-1222
-1210
-1194
-1183
-1178
-1176
-1175
-1174
-1173
-1173
-1174
-1174
-1175
-1174
-1175
-1175
-1176
-1176
-1178
-1180
-1180
-1180
-1180
-1180
-1180
-1180
-1180
-1180
-1178
-1177
-1176
-1174
-1172
-1169
-1166
-1163
-1161
-1159
-1155
-1151
-1149
-1146
-1142
-1139
-1137
-1135
-1133
-1133
-1133
-1131
-1132
-1132
-1132
-1132
-1132
-1133
-1136
-1137
-1138
-1139
-1140
-1142
-1142
-1143
-1144
-1144
-1146
-1146
-1146
-1144
-1144
-1144
-1142
-1140
-1137
-1135
-1132
-1129
-1128
-1126
-1125
-1124
-1121
-1117
-1111
-1108
-1108
-1109
-1108
-1109
-1111
-1112
-1115
-1117
-1119
-1120
-1124
-1128
-1129
-1132
-1137
-1141
-1141
-1143
-1144
-1144
-1146
-1146
-1147
-1147
-1148
-1150
-1153
-1155
-1147
-1137
-1133
-1132
-1123
-1107
-1085
-1064
-1062
-1073
-1095
-1112
-1136
-1165
-1194
-1216
-1226
-1228
-1227
-1224
-1215
-1204
-1191
-1183
-1180
-1178
-1178
-1176
-1176
-1177
-1176
-1176
-1178
-1180
-1180
-1182
-1183
-1184
-1184
-1185
-1185
-1187
-1187
-1187
-1186
-1187
-1186
-1185
-1183
-1182
-1181
-1179
-1176
-1174
-1171
-1168
-1166
-1162
-1158
-1155
-1153
-1150
-1146
-1143
-1139
-1137
-1136
-1133
-1133
-1132
-1131
-1132
-1132
-1133
-1133
-1135
-1136
-1137
-1137
-1138
-1140
-1141
-1142
-1142
-1142
-1142
-1142
-1140
-1140
-1140
-1140
-1138
-1137
-1135
-1131
-1129
-1128
-1127
-1125
-1122
-1122
-1122
-1120
-1114
-1108
-1105
-1105
-1106
-1106
-1107
-1109
-1110
-1112
-1116
-1118
-1121
-1125
-1126
-1129
-1132
-1136
-1140
-1140
-1140
-1142
-1143
-1144
-1144
-1144
-1144
-1146
-1148
-1151
-1153
-1144
-1135
-1132
-1132
-1123
-1107
-1087
-1068
-1067
-1076
-1099
-1112
-1130
-1157
-1184
-1203
-1215
-1219
-1218
-1216
-1211
-1202
-1190
-1181
-1176
-1176
-1175
-1175
-1174
-1173
-1172
-1173
-1174
-1175
-1176
-1176
-1178
-1179
-1179
-1180
-1180
-1181
-1181
-1182
-1182
-1181
-1183
-1182
-1180
-1179
-1176
-1174
-1173
-1171
-1167
-1165
-1162
-1159
-1156
-1152
-1149
-1146
-1144
-1141
-1138
-1136
-1133
-1133
-1132
-1131
-1130
-1131
-1132
-1132
-1132
-1132
-1133
-1136
-1137
-1137
-1137
-1137
-1139
-1139
-1140
-1140
-1140
-1141
-1140
-1138
-1137
-1137
-1137
-1135
-1131
-1129
-1125
-1123
-1121
-1119
-1118
-1116
-1113
-1108
-1103
-1100
-1101
-1102
-1102
-1102
-1103
-1105
-1107
-1111
-1112
-1114
-1117
-1120
-1123
-1126
-1129
-1132
-1133
-1135
-1136
-1137
-1137
-1137
-1139
-1139
-1140
-1142
-1144
-1147
-1142
-1131
-1125
-1123
-1118
-1103
-1085
-1062
-1052
-1058
-1080
-1100
-1117
-1142
-1171
-1194
-1206
-1210
-1210
-1209
-1204
-1193
-1181
-1173
-1169
-1168
-1167
-1167
-1166
-1167
-1167
-1167
-1168
-1168
-1169
-1170
-1169
-1171
-1171
-1172
-1172
-1174
-1174
-1175
-1176
-1175
-1175
-1173
-1173
-1172
-1169
-1168
-1165
-1163
-1161
-1158
-1155
-1153
-1150
-1147
-1144
-1140
-1137
-1135
-1133
-1131
-1128
-1126
-1125
-1125
-1124
-1123
-1124
-1125
-1126
-1127
-1126
-1128
-1129
-1130
-1130
-1132
-1132
-1133
-1135
-1135
-1135
-1135
-1135
-1135
-1133
-1132
-1132
-1132
-1129
-1128
-1126
-1123
-1121
-1117
-1114
-1112
-1111
-1111
-1110
-1108
-1101
-1098
-1096
-1097
-1097
-1097
-1098
-1100
-1103
-1104
-1108
-1112
-1113
-1115
-1118
-1120
-1124
-1128
-1132
-1133
-1135
-1136
-1137
-1138
-1138
-1138
-1139
-1140
-1141
-1144
-1146
-1139
-1129
-1125
-1124
-1118
-1103
-1086
-1064
-1061
-1073
-1096
-1112
-1129
-1154
-1185
-1206
-1218
-1219
-1218
-1214
-1206
-1194
-1181
-1173
-1169
-1169
-1168
-1167
-1166
-1165
-1165
-1165
-1166
-1166
-1166
-1167
-1169
-1171
-1172
-1172
-1174
-1175
-1176
-1176
-1176
-1176
-1175
-1174
-1173
-1171
-1169
-1166
-1165
-1162
-1159
-1156
-1155
-1151
-1148
-1146
-1142
-1139
-1136
-1132
-1130
-1128
-1127
-1125
-1125
-1124
-1124
-1125
-1126
-1126
-1126
-1127
-1129
-1130
-1132
-1131
-1132
-1133
-1135
-1136
-1136
-1137
-1137
-1137
-1137
-1137
-1138
-1137
-1137
-1135
-1133
-1132
-1130
-1128
-1124
-1121
-1119
-1119
-1117
-1116
-1112
-1108
-1103
-1101
-1101
-1101
-1101
-1103
-1105
-1106
-1108
-1112
-1115
-1116
-1119
-1121
-1125
-1128
-1131
-1133
-1135
-1136
-1137
-1138
-1138
-1139
-1139
-1140
-1141
-1142
-1144
-1143
-1132
-1126
-1124
-1121
-1109
-1092
-1069
-1054
-1062
-1082
-1103
-1119
-1146
-1179
-1206
-1222
-1229
-1228
-1226
-1221
-1208
-1193
-1180
-1173
-1171
-1169
-1168
-1168
-1167
-1167
-1167
-1167
-1166
-1166
-1168
-1169
-1171
-1171
-1172
-1173
-1175
-1174
-1174
-1174
-1175
-1175
-1174
-1173
-1171
-1169
-1168
-1166
-1163
-1160
-1159
-1156
-1154
-1150
-1146
-1144
-1140
-1137
-1133
-1131
-1129
-1128
-1126
-1125
-1125
-1125
-1125
-1125
-1125
-1126
-1128
-1129
-1129
-1130
-1132
-1133
-1133
-1135
-1135
-1135
-1135
-1136
-1136
-1136
-1136
-1136
-1135
-1132
-1132
-1131
-1129
-1126
-1122
-1120
-1118
-1117
-1115
-1114
-1111
-1107
-1103
-1099
-1099
-1100
-1100
-1100
-1102
-1103
-1105
-1108
-1112
-1113
-1116
-1117
-1119
-1124
-1128
-1131
-1132
-1133
-1135
-1137
-1137
-1137
-1137
-1138
-1140
-1141
-1143
-1144
-1138
-1129
-1126
-1124
-1116
-1101
-1082
-1061
-1058
-1068
-1090
-1103
-1121
-1150
-1179
-1201
-1215
-1218
-1217
-1215
-1212
-1201
-1189
-1178
-1173
-1171
-1171
-1169
-1169
-1170
-1169
-1169
-1170
-1170
-1171
-1171
-1173
-1172
-1173
-1174
-1175
-1176
-1176
-1176
-1177
-1178
-1178
-1176
-1175
-1174
-1173
-1169
-1167
-1165
-1162
-1160
-1156
-1153
-1149
-1146
-1144
-1141
-1138
-1135
-1132
-1130
-1129
-1128
-1127
-1126
-1127
-1126
-1126
-1128
-1130
-1130
-1130
-1130
-1131
-1133
-1133
-1135
-1136
-1136
-1137
-1135
-1136
-1135
-1135
-1134
-1133
-1132
-1130
-1129
-1128
-1126
-1122
-1119
-1117
-1116
-1115
-1114
-1112
-1110
-1105
-1101
-1098
-1098
-1098
-1097
-1098
-1100
-1102
-1103
-1108
-1110
-1112
-1114
-1117
-1120
-1124
-1128
-1131
-1133
-1135
-1136
-1136
-1137
-1137
-1138
-1139
-1138
-1141
-1144
-1142
-1132
-1127
-1124
-1119
-1105
-1086
-1064
-1056
-1060
-1079
-1097
-1110
-1132
-1162
-1186
-1201
-1207
-1207
-1205
-1203
-1194
-1183
-1174
-1168
-1166
-1164
-1163
-1163
-1164
-1164
-1164
-1166
-1165
-1167
-1168
-1168
-1169
-1169
-1171
-1172
-1173
-1174
-1173
-1174
-1176
-1176
-1173
-1172
-1171
-1170
-1167
-1164
-1162
-1160
-1158
-1155
-1153
-1150
-1147
-1144
-1140
-1137
-1133
-1132
-1129
-1125
-1122
-1120
-1120
-1120
-1120
-1121
-1120
-1121
-1123
-1125
-1125
-1127
-1128
-1129
-1129
-1130
-1130
-1132
-1133
-1131
-1130
-1130
-1129
-1130
-1131
-1131
-1130
-1128
-1127
-1125
-1121
-1118
-1114
-1112
-1112
-1112
-1108
-1105
-1101
-1095
-1093
-1093
-1094
-1095
-1095
-1097
-1098
-1100
-1105
-1107
-1109
-1112
-1115
-1117
-1122
-1124
-1125
-1126
-1129
-1131
-1132
-1132
-1134
-1135
-1137
-1140
-1140
-1143
-1141
-1130
-1123
-1120
-1116
-1105
-1087
-1065
-1049
-1054
-1068
-1091
-1103
-1125
-1151
-1176
-1194
-1201
-1203
-1201
-1201
-1198
-1190
-1179
-1171
-1167
-1165
-1164
-1167
-1168
-1168
-1166
-1165
-1167
-1168
-1168
-1168
-1168
-1169
-1172
-1174
-1174
-1173
-1172
-1175
-1176
-1176
-1176
-1174
-1173
-1171
-1171
-1167
-1166
-1163
-1161
-1159
-1155
-1151
-1150
-1146
-1145
-1142
-1137
-1136
-1135
-1132
-1130
-1129
-1130
-1131
-1133
-1131
-1129
-1130
-1130
-1132
-1132
-1130
-1133
-1135
-1137
-1137
-1136
-1135
-1137
-1138
-1138
-1138
-1137
-1137
-1138
-1136
-1136
-1135
-1132
-1131
-1128
-1125
-1125
-1123
-1123
-1121
-1116
-1111
-1106
-1101
-1100
-1099
-1099
-1098
-1098
-1099
-1100
-1103
-1105
-1108
-1110
-1112
-1116
-1120
-1125
-1127
-1128
-1130
-1132
-1132
-1131
-1132
-1133
-1133
-1133
-1135
-1139
-1139
-1131
-1123
-1120
-1116
-1105
-1089
-1070
-1051
-1048
-1056
-1078
-1090
-1107
-1132
-1160
-1179
-1188
-1191
-1192
-1190
-1186
-1178
-1169
-1162
-1159
-1158
-1159
-1160
-1158
-1159
-1160
-1161
-1160
-1160
-1161
-1162
-1163
-1163
-1163
-1165
-1167
-1169
-1168
-1167
-1168
-1167
-1167
-1166
-1165
-1162
-1161
-1159
-1155
-1151
-1149
-1146
-1143
-1139
-1137
-1135
-1133
-1130
-1126
-1125
-1123
-1122
-1121
-1120
-1119
-1120
-1120
-1119
-1120
-1122
-1123
-1122
-1123
-1124
-1126
-1128
-1129
-1131
-1132
-1132
-1133
-1134
-1133
-1132
-1133
-1132
-1132
-1132
-1130
-1129
-1128
-1126
-1123
-1119
-1116
-1113
-1111
-1108
-1106
-1105
-1103
-1100
-1095
-1091
-1090
-1090
-1090
-1091
-1093
-1095
-1098
-1100
-1102
-1104
-1108
-1111
-1115
-1120
-1124
-1126
-1129
-1129
-1130
-1130
-1131
-1132
-1135
-1135
-1137
-1138
-1141
-1137
-1125
-1118
-1116
-1111
-1097
-1080
-1058
-1045
-1052
-1073
-1094
-1108
-1132
-1162
-1185
-1196
-1199
-1198
-1197
-1192
-1184
-1174
-1166
-1162
-1162
-1161
-1162
-1162
-1162
-1162
-1162
-1163
-1164
-1166
-1165
-1165
-1165
-1165
-1168
-1169
-1171
-1171
-1172
-1171
-1171
-1171
-1171
-1171
-1170
-1168
-1165
-1163
-1162
-1159
-1156
-1154
-1150
-1147
-1144
-1141
-1137
-1133
-1132
-1129
-1126
-1123
-1121
-1121
-1120
-1120
-1120
-1121
-1121
-1122
-1123
-1122
-1122
-1124
-1125
-1127
-1127
-1128
-1129
-1130
-1129
-1130
-1130
-1130
-1130
-1129
-1129
-1128
-1127
-1126
-1125
-1123
-1123
-1123
-1121
-1119
-1115
-1112
-1112
-1110
-1108
-1108
-1108
-1104
-1100
-1095
-1094
-1096
-1096
-1097
-1099
-1101
-1104
-1108
-1112
-1113
-1116
-1118
-1121
-1125
-1129
-1130
-1131
-1133
-1134
-1135
-1136
-1137
-1137
-1137
-1139
-1140
-1143
-1144
-1135
-1125
-1121
-1119
-1108
-1089
-1065
-1045
-1049
-1065
-1090
-1108
-1130
-1162
-1189
-1205
-1211
-1212
-1210
-1205
-1194
-1182
-1173
-1169
-1169
-1168
-1167
-1167
-1167
-1167
-1167
-1167
-1168
-1169
-1169
-1169
-1170
-1171
-1171
-1172
-1174
-1175
-1176
-1177
-1178
-1176
-1176
-1175
-1174
-1173
-1171
-1169
-1166
-1164
-1161
-1158
-1155
-1151
-1149
-1146
-1142
-1138
-1136
-1132
-1131
-1128
-1126
-1126
-1126
-1125
-1123
-1124
-1126
-1127
-1128
-1129
-1129
-1129
-1130
-1132
-1133
-1133
-1135
-1136
-1137
-1137
-1136
-1135
-1136
-1135
-1133
-1133
-1132
-1132
-1130
-1129
-1128
-1126
-1124
-1121
-1117
-1116
-1114
-1112
-1112
-1111
-1108
-1104
-1101
-1099
-1100
-1102
-1103
-1105
-1108
-1110
-1112
-1117
-1120
-1121
-1125
-1126
-1129
-1132
-1137
-1138
-1139
-1139
-1140
-1141
-1141
-1142
-1143
-1144
-1146
-1146
-1148
-1144
-1133
-1130
-1129
-1125
-1112
-1092
-1069
-1061
-1069
-1090
-1108
-1122
-1150
-1183
-1210
-1225
-1230
-1229
-1227
-1222
-1211
-1197
-1186
-1180
-1178
-1176
-1176
-1175
-1174
-1175
-1175
-1176
-1176
-1176
-1177
-1178
-1180
-1180
-1180
-1181
-1182
-1183
-1183
-1184
-1184
-1184
-1184
-1182
-1181
-1180
-1180
-1176
-1173
-1171
-1168
-1165
-1162
-1160
-1157
-1153
-1150
-1147
-1144
-1140
-1137
-1136
-1133
-1132
-1129
-1129
-1129
-1129
-1130
-1131
-1132
-1133
-1135
-1137
-1137
-1138
-1139
-1141
-1141
-1141
-1142
-1142
-1143
-1144
-1143
-1142
-1142
-1140
-1138
-1137
-1137
-1135
-1134
-1131
-1127
-1125
-1123
-1121
-1120
-1119
-1118
-1115
-1112
-1108
-1105
-1106
-1107
-1108
-1108
-1109
-1112
-1115
-1120
-1122
-1123
-1126
-1128
-1130
-1134
-1137
-1141
-1143
-1144
-1146
-1145
-1146
-1148
-1149
-1149
-1150
-1151
-1157
-1151
-1142
-1137
-1136
-1132
-1115
-1095
-1071
-1065
-1070
-1092
-1107
-1125
-1156
-1188
-1212
-1226
-1228
-1227
-1226
-1222
-1210
-1197
-1187
-1182
-1181
-1180
-1180
-1179
-1179
-1179
-1179
-1179
-1180
-1183
-1183
-1184
-1184
-1186
-1188
-1189
-1190
-1191
-1192
-1193
-1192
-1192
-1192
-1192
-1191
-1191
-1188
-1185
-1182
-1179
-1176
-1174
-1171
-1168
-1164
-1161
-1157
-1153
-1150
-1146
-1146
-1143
-1139
-1138
-1137
-1137
-1136
-1136
-1136
-1137
-1137
-1138
-1137
-1139
-1140
-1141
-1142
-1142
-1142
-1143
-1143
-1143
-1142
-1142
-1140
-1139
-1137
-1136
-1136
-1134
-1133
-1130
-1127
-1126
-1125
-1123
-1121
-1119
-1117
-1113
-1110
-1105
-1103
-1104
-1103
-1104
-1105
-1108
-1111
-1114
-1117
-1120
-1121
-1124
-1126
-1129
-1134
-1137
-1139
-1140
-1142
-1142
-1142
-1143
-1144
-1145
-1146
-1146
-1147
-1150
-1144
-1133
-1129
-1128
-1121
-1105
-1084
-1064
-1062
-1072
-1093
-1105
-1120
-1146
-1175
-1197
-1210
-1215
-1214
-1213
-1209
-1199
-1188
-1178
-1173
-1171
-1169
-1169
-1169
-1169
-1169
-1169
-1168
-1169
-1170
-1171
-1171
-1171
-1173
-1173
-1174
-1174
-1174
-1175
-1176
-1176
-1175
-1174
-1174
-1172
-1169
-1167
-1164
-1162
-1161
-1159
-1155
-1152
-1148
-1146
-1143
-1138
-1133
-1131
-1128
-1125
-1123
-1123
-1120
-1119
-1120
-1119
-1119
-1120
-1121
-1122
-1122
-1122
-1123
-1125
-1125
-1126
-1126
-1126
-1127
-1126
-1125
-1125
-1125
-1123
-1121
-1120
-1119
-1117
-1115
-1112
-1108
-1105
-1103
-1101
-1099
-1098
-1096
-1093
-1088
-1085
-1085
-1087
-1088
-1089
-1091
-1092
-1093
-1097
-1100
-1103
-1106
-1108
-1112
-1115
-1117
-1120
-1122
-1124
-1125
-1126
-1126
-1129
-1130
-1129
-1129
-1131
-1132
-1133
-1124
-1116
-1111
-1107
-1094
-1076
-1053
-1035
-1036
-1052
-1076
-1094
-1116
-1148
-1176
-1191
-1198
-1199
-1197
-1196
-1187
-1176
-1166
-1160
-1159
-1159
-1157
-1157
-1157
-1158
-1158
-1159
-1159
-1160
-1162
-1162
-1162
-1163
-1163
-1165
-1166
-1166
-1167
-1169
-1168
-1167
-1166
-1166
-1165
-1164
-1163
-1162
-1160
-1158
-1155
-1152
-1148
-1146
-1143
-1138
-1133
-1131
-1126
-1125
-1121
-1119
-1116
-1114
-1112
-1112
-1112
-1112
-1112
-1114
-1114
-1115
-1117
-1117
-1119
-1119
-1119
-1120
-1121
-1123
-1124
-1125
-1124
-1123
-1122
-1123
-1122
-1120
-1119
-1117
-1115
-1112
-1108
-1107
-1105
-1105
-1104
-1103
-1098
-1094
-1090
-1088
-1088
-1090
-1089
-1090
-1093
-1093
-1096
-1099
-1101
-1103
-1105
-1108
-1111
-1115
-1119
-1121
-1122
-1125
-1126
-1126
-1128
-1129
-1129
-1130
-1130
-1132
-1133
-1127
-1117
-1113
-1110
-1101
-1086
-1065
-1044
-1044
-1057
-1079
-1097
-1116
-1144
-1177
-1200
-1211
-1214
-1212
-1209
-1201
-1187
-1173
-1164
-1161
-1159
-1159
-1158
-1156
-1156
-1157
-1157
-1158
-1158
-1159
-1160
-1162
-1162
-1162
-1163
-1165
-1165
-1166
-1166
-1166
-1166
-1166
-1165
-1165
-1162
-1161
-1160
-1159
-1155
-1154
-1150
-1147
-1144
-1139
-1137
-1132
-1129
-1125
-1122
-1119
-1117
-1116
-1114
-1112
-1112
-1112
-1112
-1112
-1113
-1113
-1115
-1117
-1118
-1118
-1119
-1121
-1123
-1123
-1125
-1125
-1125
-1126
-1126
-1125
-1125
-1124
-1124
-1122
-1121
-1119
-1118
-1115
-1112
-1110
-1108
-1107
-1105
-1103
-1101
-1096
-1092
-1091
-1090
-1091
-1090
-1092
-1094
-1096
-1098
-1101
-1103
-1106
-1108
-1111
-1112
-1117
-1120
-1124
-1125
-1126
-1128
-1129
-1129
-1130
-1130
-1131
-1132
-1134
-1137
-1137
-1126
-1120
-1118
-1113
-1102
-1085
-1061
-1043
-1045
-1059
-1082
-1100
-1125
-1160
-1192
-1214
-1223
-1226
-1222
-1219
-1209
-1196
-1183
-1173
-1169
-1168
-1166
-1166
-1165
-1166
-1165
-1165
-1166
-1166
-1166
-1168
-1169
-1170
-1169
-1171
-1171
-1173
-1173
-1173
-1173
-1173
-1174
-1173
-1171
-1171
-1168
-1166
-1165
-1162
-1160
-1156
-1154
-1151
-1148
-1144
-1141
-1137
-1133
-1130
-1126
-1124
-1122
-1120
-1119
-1118
-1117
-1118
-1119
-1119
-1120
-1122
-1125
-1127
-1128
-1129
-1130
-1130
-1132
-1132
-1132
-1132
-1132
-1132
-1132
-1130
-1129
-1128
-1126
-1125
-1121
-1118
-1116
-1115
-1112
-1111
-1111
-1110
-1108
-1103
-1099
-1096
-1096
-1097
-1098
-1097
-1099
-1101
-1103
-1105
-1108
-1110
-1112
-1114
-1117
-1119
-1123
-1126
-1129
-1132
-1132
-1134
-1137
-1137
-1137
-1139
-1139
-1140
-1142
-1144
-1137
-1129
-1125
-1124
-1116
-1100
-1080
-1057
-1056
-1067
-1087
-1103
-1123
-1154
-1188
-1215
-1229
-1232
-1232
-1230
-1222
-1207
-1192
-1180
-1176
-1172
-1171
-1171
-1169
-1169
-1169
-1169
-1170
-1169
-1171
-1171
-1172
-1172
-1174
-1174
-1176
-1176
-1179
-1180
-1180
-1180
-1180
-1179
-1179
-1176
-1176
-1173
-1171
-1169
-1165
-1162
-1160
-1156
-1154
-1150
-1146
-1143
-1140
-1137
-1134
-1130
-1128
-1127
-1126
-1125
-1125
-1125
-1125
-1125
-1126
-1126
-1128
-1129
-1131
-1132
-1133
-1135
-1137
-1137
-1137
-1137
-1137
-1137
-1136
-1135
-1132
-1132
-1131
-1130
-1129
-1126
-1122
-1120
-1118
-1117
-1116
-1115
-1113
-1111
-1106
-1101
-1099
-1101
-1101
-1102
-1103
-1107
-1109
-1112
-1116
-1117
-1119
-1123
-1124
-1128
-1130
-1133
-1135
-1137
-1138
-1138
-1139
-1140
-1141
-1141
-1142
-1144
-1147
-1151
-1144
-1133
-1129
-1128
-1122
-1107
-1088
-1064
-1057
-1064
-1084
-1103
-1121
-1154
-1188
-1217
-1233
-1238
-1236
-1234
-1229
-1215
-1199
-1187
-1180
-1177
-1176
-1174
-1174
-1173
-1174
-1174
-1174
-1176
-1177
-1178
-1179
-1179
-1180
-1180
-1180
-1180
-1182
-1183
-1183
-1183
-1182
-1181
-1180
-1180
-1178
-1176
-1173
-1172
-1169
-1166
-1162
-1160
-1157
-1155
-1151
-1147
-1144
-1142
-1139
-1137
-1133
-1133
-1132
-1131
-1129
-1129
-1129
-1130
-1131
-1132
-1132
-1133
-1133
-1136
-1137
-1137
-1139
-1141
-1142
-1141
-1141
-1141
-1140
-1137
-1137
-1134
-1132
-1131
-1130
-1129
-1126
-1124
-1122
-1120
-1119
-1119
-1117
-1116
-1114
-1108
-1103
-1101
-1103
-1104
-1104
-1105
-1106
-1108
-1111
-1115
-1117
-1120
-1123
-1126
-1129
-1133
-1136
-1137
-1141
-1143
-1143
-1143
-1144
-1144
-1144
-1144
-1146
-1150
-1152
-1146
-1136
-1133
-1132
-1127
-1112
-1092
-1070
-1065
-1070
-1090
-1105
-1121
-1151
-1181
-1206
-1223
-1229
-1228
-1225
-1222
-1211
-1198
-1189
-1180
-1178
-1176
-1176
-1174
-1175
-1176
-1176
-1176
-1179
-1180
-1181
-1180
-1181
-1184
-1184
-1184
-1186
-1187
-1188
-1187
-1187
-1186
-1187
-1186
-1184
-1182
-1180
-1179
-1176
-1175
-1171
-1168
-1165
-1162
-1159
-1155
-1153
-1150
-1146
-1143
-1139
-1137
-1135
-1135
-1133
-1131
-1131
-1131
-1131
-1132
-1132
-1133
-1132
-1135
-1135
-1137
-1137
-1139
-1140
-1141
-1141
-1139
-1140
-1139
-1139
-1137
-1136
-1134
-1133
-1131
-1128
-1125
-1122
-1122
-1119
-1118
-1117
-1116
-1113
-1108
-1105
-1103
-1103
-1102
-1101
-1101
-1103
-1105
-1108
-1112
-1114
-1116
-1119
-1122
-1126
-1130
-1132
-1136
-1137
-1137
-1139
-1140
-1142
-1143
-1143
-1142
-1143
-1146
-1150
-1150
-1139
-1132
-1126
-1126
-1117
-1101
-1080
-1062
-1062
-1071
-1093
-1104
-1126
-1153
-1180
-1200
-1212
-1214
-1214
-1212
-1208
-1199
-1189
-1181
-1176
-1172
-1171
-1171
-1171
-1172
-1172
-1172
-1172
-1174
-1174
-1176
-1176
-1176
-1178
-1180
-1180
-1181
-1182
-1183
-1183
-1182
-1181
-1181
-1180
-1180
-1179
-1176
-1173
-1172
-1171
-1169
-1166
-1162
-1159
-1158
-1154
-1150
-1146
-1142
-1140
-1137
-1135
-1132
-1130
-1129
-1129
-1127
-1126
-1128
-1129
-1129
-1129
-1129
-1129
-1132
-1134
-1133
-1135
-1135
-1136
-1136
-1136
-1135
-1136
-1136
-1134
-1132
-1130
-1128
-1126
-1123
-1119
-1117
-1115
-1114
-1114
-1112
-1108
-1104
-1099
-1096
-1095
-1096
-1095
-1096
-1097
-1099
-1101
-1103
-1107
-1107
-1111
-1112
-1116
-1120
-1125
-1128
-1129
-1130
-1132
-1133
-1132
-1135
-1135
-1137
-1138
-1139
-1143
-1143
-1133
-1124
-1120
-1117
-1108
-1091
-1072
-1052
-1054
-1069
-1093
-1107
-1129
-1157
-1183
-1200
-1205
-1206
-1205
-1205
-1198
-1188
-1179
-1172
-1169
-1169
-1169
-1169
-1167
-1167
-1168
-1169
-1169
-1169
-1169
-1169
-1171
-1171
-1172
-1173
-1174
-1174
-1176
-1176
-1178
-1178
-1179
-1178
-1176
-1176
-1175
-1172
-1169
-1166
-1164
-1162
-1160
-1158
-1154
-1150
-1146
-1144
-1142
-1139
-1136
-1133
-1133
-1132
-1130
-1130
-1131
-1131
-1132
-1132
-1132
-1132
-1132
-1133
-1133
-1135
-1136
-1137
-1137
-1137
-1138
-1139
-1139
-1138
-1137
-1137
-1137
-1136
-1135
-1133
-1130
-1128
-1124
-1121
-1119
-1117
-1117
-1115
-1113
-1108
-1104
-1102
-1103
-1103
-1102
-1102
-1104
-1108
-1108
-1112
-1115
-1116
-1119
-1122
-1124
-1129
-1132
-1136
-1138
-1139
-1141
-1142
-1143
-1143
-1144
-1145
-1144
-1146
-1149
-1149
-1139
-1131
-1129
-1125
-1114
-1097
-1076
-1060
-1067
-1086
-1110
-1128
-1148
-1180
-1207
-1219
-1222
-1222
-1218
-1211
-1198
-1185
-1176
-1172
-1171
-1169
-1169
-1169
-1169
-1168
-1168
-1169
-1169
-1170
-1170
-1172
-1172
-1174
-1175
-1176
-1176
-1179
-1179
-1179
-1178
-1178
-1178
-1178
-1176
-1174
-1173
-1171
-1168
-1165
-1162
-1159
-1156
-1153
-1148
-1146
-1143
-1140
-1137
-1133
-1130
-1129
-1125
-1125
-1124
-1124
-1124
-1125
-1126
-1126
-1128
-1129
-1129
-1131
-1133
-1135
-1135
-1136
-1138
-1138
-1138
-1138
-1138
-1137
-1137
-1137
-1137
-1136
-1133
-1130
-1127
-1124
-1123
-1120
-1119
-1117
-1115
-1112
-1106
-1101
-1099
-1099
-1098
-1099
-1099
-1101
-1103
-1105
-1108
-1110
-1112
-1116
-1119
-1121
-1125
-1127
-1129
-1131
-1132
-1132
-1135
-1137
-1137
-1138
-1137
-1139
-1143
-1146
-1138
-1129
-1125
-1123
-1117
-1101
-1080
-1058
-1055
-1064
-1086
-1101
-1118
-1146
-1178
-1201
-1216
-1222
-1221
-1219
-1214
-1203
-1191
-1182
-1176
-1175
-1172
-1171
-1173
-1173
-1172
-1171
-1171
-1171
-1173
-1176
-1176
-1175
-1175
-1177
-1176
-1178
-1179
-1179
-1180
-1180
-1180
-1182
-1180
-1180
-1178
-1175
-1174
-1172
-1169
-1165
-1162
-1159
-1155
-1153
-1150
-1144
-1141
-1139
-1137
-1133
-1132
-1130
-1129
-1128
-1127
-1127
-1126
-1127
-1129
-1130
-1129
-1131
-1132
-1132
-1133
-1134
-1132
-1133
-1133
-1133
-1132
-1132
-1132
-1130
-1129
-1126
-1125
-1122
-1119
-1116
-1113
-1112
-1112
-1111
-1108
-1104
-1103
-1099
-1094
-1092
-1092
-1093
-1093
-1094
-1098
-1098
-1101
-1104
-1107
-1112
-1114
-1118
-1121
-1125
-1126
-1127
-1129
-1131
-1132
-1133
-1132
-1135
-1136
-1137
-1137
-1140
-1143
-1137
-1125
-1119
-1116
-1110
-1094
-1074
-1052
-1048
-1054
-1078
-1095
-1112
-1140
-1168
-1188
-1199
-1204
-1203
-1201
-1200
-1189
-1180
-1171
-1167
-1166
-1167
-1166
-1166
-1165
-1165
-1165
-1165
-1165
-1168
-1169
-1169
-1171
-1171
-1171
-1172
-1174
-1175
-1175
-1176
-1176
-1176
-1173
-1171
-1172
-1172
-1169
-1167
-1163
-1161
-1157
-1156
-1154
-1151
-1147
-1143
-1141
-1137
-1134
-1131
-1129
-1126
-1123
-1120
-1120
-1120
-1120
-1120
-1120
-1120
-1122
-1121
-1123
-1125
-1125
-1126
-1128
-1127
-1129
-1129
-1129
-1129
-1126
-1126
-1127
-1126
-1125
-1120
-1117
-1115
-1112
-1111
-1108
-1106
-1104
-1102
-1098
-1093
-1089
-1086
-1087
-1087
-1086
-1086
-1087
-1090
-1091
-1095
-1095
-1098
-1100
-1103
-1105
-1111
-1114
-1118
-1120
-1119
-1120
-1120
-1122
-1123
-1123
-1123
-1125
-1129
-1132
-1131
-1120
-1112
-1108
-1106
-1094
-1078
-1058
-1043
-1045
-1060
-1081
-1092
-1114
-1145
-1169
-1185
-1193
-1194
-1192
-1189
-1184
-1175
-1167
-1161
-1158
-1157
-1157
-1157
-1156
-1156
-1156
-1157
-1158
-1158
-1158
-1159
-1160
-1162
-1163
-1164
-1165
-1163
-1164
-1166
-1167
-1168
-1169
-1167
-1167
-1164
-1162
-1160
-1158
-1157
-1154
-1150
-1148
-1146
-1143
-1139
-1136
-1132
-1130
-1128
-1125
-1123
-1120
-1120
-1119
-1118
-1117
-1117
-1118
-1119
-1119
-1118
-1119
-1120
-1121
-1123
-1125
-1125
-1126
-1126
-1126
-1127
-1126
-1125
-1125
-1123
-1121
-1120
-1119
-1116
-1112
-1108
-1106
-1105
-1103
-1101
-1100
-1098
-1094
-1090
-1087
-1086
-1087
-1088
-1088
-1091
-1093
-1096
-1099
-1103
-1105
-1107
-1112
-1116
-1120
-1122
-1125
-1128
-1129
-1128
-1128
-1129
-1129
-1130
-1130
-1132
-1132
-1137
-1137
-1126
-1116
-1112
-1108
-1097
-1078
-1055
-1037
-1040
-1056
-1081
-1100
-1125
-1156
-1183
-1197
-1203
-1204
-1201
-1199
-1191
-1179
-1168
-1163
-1163
-1162
-1161
-1160
-1160
-1160
-1160
-1161
-1163
-1166
-1166
-1166
-1167
-1168
-1171
-1171
-1172
-1173
-1173
-1174
-1174
-1174
-1173
-1171
-1171
-1169
-1169
-1166
-1164
-1162
-1160
-1157
-1154
-1151
-1147
-1143
-1139
-1136
-1132
-1129
-1127
-1124
-1122
-1121
-1122
-1121
-1119
-1118
-1119
-1120
-1121
-1122
-1123
-1125
-1126
-1127
-1128
-1129
-1129
-1129
-1130
-1130
-1129
-1129
-1128
-1128
-1126
-1126
-1124
-1121
-1118
-1114
-1112
-1112
-1111
-1110
-1108
-1104
-1100
-1096
-1095
-1094
-1094
-1094
-1096
-1097
-1098
-1099
-1103
-1106
-1108
-1111
-1113
-1117
-1122
-1125
-1127
-1129
-1129
-1131
-1132
-1132
-1134
-1135
-1135
-1136
-1137
-1139
-1137
-1128
-1120
-1117
-1113
-1102
-1084
-1061
-1049
-1057
-1075
-1094
-1108
-1137
-1170
-1197
-1213
-1218
-1217
-1216
-1210
-1198
-1185
-1175
-1171
-1169
-1169
-1169
-1169
-1168
-1168
-1168
-1168
-1168
-1169
-1171
-1172
-1171
-1172
-1172
-1174
-1176
-1176
-1176
-1176
-1178
-1178
-1176
-1175
-1174
-1173
-1172
-1169
-1168
-1166
-1164
-1162
-1158
-1154
-1151
-1147
-1144
-1140
-1137
-1135
-1132
-1129
-1128
-1126
-1126
-1126
-1126
-1126
-1126
-1126
-1128
-1130
-1131
-1132
-1132
-1133
-1136
-1136
-1136
-1136
-1137
-1137
-1137
-1136
-1135
-1133
-1132
-1131
-1130
-1129
-1126
-1122
-1119
-1117
-1117
-1116
-1114
-1113
-1110
-1106
-1103
-1102
-1103
-1103
-1104
-1107
-1107
-1108
-1112
-1116
-1119
-1121
-1122
-1125
-1129
-1132
-1136
-1137
-1139
-1140
-1141
-1141
-1141
-1143
-1144
-1146
-1146
-1146
-1149
-1145
-1133
-1129
-1127
-1122
-1108
-1091
-1068
-1059
-1065
-1087
-1104
-1121
-1151
-1184
-1209
-1225
-1230
-1229
-1227
-1223
-1212
-1200
-1187
-1180
-1178
-1176
-1176
-1176
-1176
-1176
-1176
-1177
-1176
-1179
-1180
-1181
-1181
-1183
-1183
-1185
-1186
-1186
-1185
-1186
-1187
-1186
-1185
