-6
-6
-6
-7
-8
-8
-7
-7
-7
-7
-8
-8
-8
-8
-8
-8
-7
-7
-8
-8
-9
-9
-8
-8
-7
-6
-5
-5
-4
-3
-2
-1
0
0
-1
-3
-4
-4
-5
-5
-7
-9
-11
-12
-12
-12
-12
-11
-11
-11
-11
-12
-12
-11
-11
-12
-14
-15
-16
-17
-17
-16
-16
-15
-15
-16
-16
-17
-17
-17
-17
-16
-16
-17
-17
-18
-18
-19
-19
-14
-10
-14
-20
-39
-58
-86
-114
-133
-151
-154
-157
-155
-152
-147
-141
-133
-123
-112
-103
-100
-96
-92
-87
-81
-76
-70
-65
-60
-54
-46
-39
-33
-27
-22
-18
-14
-12
-9
-6
-2
2
7
11
15
18
16
21
21
21
22
22
22
22
23
23
23
23
24
24
25
26
27
27
27
27
27
28
29
29
30
30
31
31
30
31
32
32
32
32
32
32
31
31
31
31
30
29
26
24
23
22
21
19
17
15
12
10
9
7
5
3
0
-2
-4
-6
-7
-8
-8
-9
-11
-12
-13
-14
-14
-15
-14
-14
-15
-16
-16
-17
-17
-17
-17
-16
-16
-16
-17
-18
-17
-17
-16
-16
-17
-17
-18
-18
-17
-17
-16
-16
-17
-17
-18
-18
-17
-17
-17
-17
-17
-18
-19
-19
-18
-18
-18
-18
-19
-19
-20
-20
-19
-18
-17
-17
-16
-16
-15
-14
-12
-13
-10
-11
-13
-15
-16
-18
-18
-18
-19
-21
-23
-25
-25
-25
-25
-24
-24
-23
-23
-24
-24
-24
-24
-25
-27
-28
-28
-29
-29
-29
-29
-28
-28
-28
-29
-30
-30
-29
-29
-28
-28
-30
-31
-31
-31
-30
-29
-24
-21
-29
-39
-62
-86
-115
-140
-155
-165
-166
-167
-165
-161
-155
-146
-134
-124
-116
-110
-107
-102
-97
-92
-86
-81
-77
-71
-65
-58
-50
-45
-39
-34
-29
-26
-22
-19
-15
-11
-6
-1
3
7
10
11
12
12
12
12
12
12
13
13
14
14
15
15
15
15
16
17
18
18
19
19
19
20
21
21
22
22
22
22
22
22
23
23
24
24
23
22
22
22
22
21
20
18
17
16
14
12
10
9
7
4
2
0
-2
-3
-5
-7
-9
-10
-12
-13
-14
-15
-16
-17
-18
-19
-20
-21
-21
-20
-20
-21
-21
-22
-23
-22
-21
-21
-22
-22
-22
-23
-24
-24
-23
-23
-22
-22
-22
-22
-23
-23
-22
-22
-22
-22
-22
-22
-23
-23
-22
-22
-23
-23
-24
-24
-24
-24
-23
-23
-23
-23
-24
-24
-25
-24
-23
-22
-22
-21
-21
-21
-20
-18
-17
-15
-15
-15
-16
-18
-19
-20
-20
-21
-23
-25
-26
-27
-27
-28
-28
-27
-26
-25
-26
-27
-27
-26
-26
-28
-29
-30
-30
-31
-31
-31
-31
-30
-30
-30
-31
-31
-31
-31
-30
-30
-31
-31
-31
-31
-32
-32
-30
-23
-18
-18
-27
-45
-65
-88
-110
-131
-145
-154
-157
-157
-157
-156
-151
-144
-131
-117
-109
-102
-98
-94
-88
-83
-78
-73
-69
-65
-58
-52
-47
-42
-37
-33
-29
-26
-23
-21
-18
-15
-12
-8
-4
-1
1
3
4
5
5
4
4
5
5
6
7
8
7
7
8
9
10
11
11
12
12
12
14
14
15
15
16
16
17
19
21
21
20
20
21
20
19
19
20
20
19
18
17
14
13
13
12
10
8
5
3
1
-1
-2
-4
-6
-8
-9
-11
-13
-14
-15
-16
-16
-18
-19
-20
-21
-21
-22
-22
-22
-22
-23
-23
-24
-24
-24
-24
-24
-24
-24
-24
-25
-25
-25
-25
-24
-24
-25
-25
-26
-26
-25
-25
-24
-24
-25
-25
-26
-26
-25
-25
-25
-25
-26
-26
-26
-26
-26
-25
-25
-26
-26
-27
-27
-26
-26
-26
-26
-25
-25
-25
-23
-22
-21
-20
-19
-18
-18
-19
-21
-22
-23
-24
-25
-27
-28
-29
-30
-31
-31
-30
-30
-31
-30
-29
-30
-30
-29
-30
-31
-32
-34
-34
-34
-34
-33
-33
-33
-33
-34
-34
-34
-34
-33
-33
-33
-33
-34
-34
-34
-34
-34
-32
-29
-26
-30
-39
-59
-83
-110
-138
-153
-166
-167
-166
-164
-165
-157
-151
-141
-131
-121
-112
-109
-106
-100
-95
-89
-83
-79
-73
-67
-61
-55
-49
-43
-38
-33
-29
-26
-23
-20
-16
-12
-7
-2
2
5
6
7
8
8
9
9
10
10
11
11
11
11
12
14
14
15
15
16
16
16
17
19
19
20
20
20
20
21
21
22
22
23
23
24
23
22
22
22
22
21
20
18
17
15
14
12
11
9
7
5
3
1
-2
-3
-5
-7
-9
-10
-12
-13
-15
-15
-16
-17
-19
-20
-22
-22
-22
-22
-23
-23
-23
-24
-25
-25
-25
-25
-25
-25
-26
-26
-27
-27
-26
-26
-25
-25
-26
-26
-27
-27
-26
-26
-25
-26
-26
-27
-27
-27
-26
-25
-25
-26
-26
-27
-27
-27
-26
-25
-26
-27
-27
-27
-27
-26
-26
-25
-25
-25
-25
-23
-22
-21
-20
-19
-18
-17
-18
-20
-21
-22
-23
-24
-24
-27
-29
-30
-31
-30
-29
-29
-30
-30
-29
-29
-29
-29
-29
-29
-30
-32
-33
-33
-34
-33
-32
-32
-33
-33
-34
-34
-34
-34
-33
-33
-34
-34
-35
-35
-34
-34
-32
-28
-27
-27
-43
-60
-86
-111
-136
-159
-165
-171
-169
-166
-164
-160
-152
-143
-132
-122
-116
-111
-106
-101
-97
-92
-85
-80
-75
-68
-60
-54
-48
-43
-38
-33
-29
-26
-23
-20
-17
-13
-8
-2
3
5
4
8
9
9
9
9
10
10
11
11
12
12
12
13
14
14
15
15
16
16
16
17
18
18
19
19
19
19
20
21
22
22
22
22
22
22
21
21
21
21
20
19
17
15
14
12
11
9
8
6
3
1
-1
-3
-4
-6
-8
-10
-12
-14
-15
-16
-16
-17
-19
-20
-22
-23
-23
-22
-22
-22
-22
-23
-23
-24
-24
-24
-24
-23
-23
-24
-24
-24
-23
-23
-23
-23
-23
-23
-24
-24
-23
-23
-23
-23
-23
-23
-24
-24
-24
-24
-23
-23
-24
-24
-24
-24
-23
-23
-23
-23
-23
-24
-25
-25
-24
-24
-23
-22
-21
-21
-20
-19
-17
-18
-15
-14
-16
-18
-19
-21
-21
-21
-23
-25
-27
-29
-29
-28
-28
-27
-27
-26
-26
-27
-27
-27
-27
-26
-28
-29
-31
-32
-31
-30
-30
-30
-30
-30
-30
-31
-31
-31
-31
-30
-30
-31
-32
-32
-32
-32
-31
-25
-21
-30
-43
-69
-96
-122
-144
-157
-165
-166
-167
-166
-162
-156
-147
-136
-126
-116
-110
-107
-102
-96
-90
-83
-78
-73
-67
-61
-54
-47
-42
-36
-31
-27
-24
-20
-18
-15
-12
-9
-4
0
3
6
7
8
9
11
11
10
10
11
13
14
14
14
14
13
14
15
16
17
18
19
19
18
19
20
21
22
22
22
22
23
24
25
25
26
25
25
25
25
25
24
23
22
21
20
18
17
16
15
14
11
8
6
4
3
2
0
-2
-5
-6
-8
-9
-9
-10
-11
-12
-13
-14
-14
-15
-15
-16
-16
-16
-16
-17
-17
-17
-17
-17
-17
-17
-16
-16
-16
-16
-17
-17
-16
-16
-16
-16
-17
-17
-16
-16
-16
-16
-16
-16
-17
-16
-15
-15
-15
-15
-15
-15
-16
-16
-16
-16
-15
-15
-16
-16
-17
-15
-14
-13
-13
-13
-13
-12
-12
-11
-10
-8
-8
-7
-8
-9
-10
-11
-11
-12
-14
-15
-17
-18
-18
-18
-18
-17
-16
-16
-17
-18
-18
-17
-17
-16
-17
-18
-19
-20
-20
-19
-19
-19
-19
-19
-20
-20
-19
-19
-19
-19
-19
-19
-20
-20
-20
-20
-17
-11
-7
-6
-14
-33
-54
-77
-98
-118
-131
-140
-143
-142
-140
-139
-133
-126
-114
-101
-94
-88
-83
-79
-74
-69
-63
-57
-54
-50
-42
-34
-29
-25
-20
-16
-13
-10
-9
-6
-3
1
4
7
11
14
16
18
19
20
19
18
20
21
21
22
22
22
22
23
24
25
26
27
27
28
28
29
31
32
33
33
34
35
36
36
37
37
38
38
38
38
37
37
37
37
37
36
35
32
31
30
29
27
25
23
21
18
16
14
12
11
9
8
6
5
4
3
2
2
0
-1
-1
-2
-2
-3
-3
-3
-3
-3
-3
-4
-4
-4
-4
-4
-4
-4
-4
-5
-5
-4
-4
-3
-3
-4
-4
-5
-4
-3
-3
-2
-2
-3
-4
-5
-4
-3
-3
-2
-2
-2
-3
-3
-3
-3
-2
-2
-3
-3
-3
-3
-2
-2
-2
-1
0
0
1
2
3
5
6
6
6
6
5
3
2
2
1
0
-2
-3
-4
-4
-5
-5
-4
-4
-4
-4
-4
-3
-3
-4
-7
-11
-14
-17
-22
-26
-27
-29
-30
-32
-32
-30
-24
-18
-13
-10
-10
-12
-15
-18
-20
-26
-35
-45
-56
-59
-58
-50
-40
-30
-21
-16
-11
-7
-4
0
3
4
4
4
3
3
3
3
4
4
5
5
5
5
4
4
5
5
6
6
6
6
6
6
7
8
9
9
9
8
7
8
9
9
9
9
9
9
8
8
8
8
9
9
7
6
6
7
7
6
6
6
5
4
4
4
4
5
5
5
5
5
6
7
7
7
7
8
8
8
9
10
10
10
10
11
11
11
11
11
11
12
12
12
11
10
10
11
12
12
12
11
10
10
10
10
10
10
10
10
10
10
9
9
10
10
10
9
8
8
8
8
9
9
8
8
8
8
8
8
9
9
9
9
8
8
8
8
9
8
8
9
9
9
9
10
10
10
9
8
9
10
10
9
9
10
10
9
9
10
10
11
11
12
12
14
15
16
17
18
19
19
17
16
15
14
14
13
12
9
7
7
7
7
8
8
9
8
7
7
8
8
9
7
6
4
3
3
4
5
6
5
4
3
2
3
4
4
4
4
3
3
2
2
2
3
8
12
6
-1
-24
-47
-76
-105
-121
-137
-137
-138
-137
-134
-127
-120
-108
-97
-89
-82
-78
-73
-68
-63
-57
-51
-47
-41
-35
-28
-20
-14
-8
-3
3
7
11
14
17
21
25
29
34
38
41
42
42
44
45
44
43
44
45
46
47
47
47
47
48
48
48
48
49
50
51
51
51
52
53
53
54
54
55
55
55
55
56
56
57
57
57
56
55
55
55
55
54
53
51
49
48
47
46
44
42
39
37
35
34
32
30
28
26
24
22
20
20
19
17
16
15
14
12
11
11
11
11
11
10
9
8
7
7
8
8
8
8
7
7
6
6
7
8
8
7
7
7
7
6
7
8
8
8
7
6
6
7
7
7
7
7
7
6
6
6
6
7
7
6
6
5
5
6
7
8
8
9
9
10
11
12
12
14
13
11
8
8
7
6
5
3
1
0
-1
-1
-1
0
1
1
0
0
-1
-1
-1
-1
-2
-3
-4
-4
-5
-5
-4
-4
-4
-4
-5
-5
-6
-6
-6
-6
-5
-5
-6
-7
-7
-8
-1
5
5
3
-15
-35
-61
-86
-108
-126
-135
-141
-141
-140
-140
-135
-126
-114
-99
-90
-85
-79
-74
-68
-62
-57
-51
-47
-44
-37
-30
-24
-18
-13
-9
-6
-4
-1
2
5
8
12
17
20
24
25
26
27
29
29
28
28
27
28
29
29
30
30
30
30
31
31
32
32
33
33
34
34
35
36
37
38
39
39
38
38
39
40
41
41
42
41
41
40
40
39
39
38
37
35
34
32
31
29
27
26
24
21
18
16
14
13
12
11
9
7
5
4
3
2
2
1
0
-1
-1
-2
-2
-2
-2
-3
-4
-5
-5
-5
-5
-5
-5
-5
-6
-6
-7
-6
-5
-5
-6
-6
-6
-6
-7
-7
-6
-6
-6
-6
-7
-7
-8
-8
-7
-7
-7
-7
-8
-8
-9
-9
-9
-9
-8
-8
-9
-9
-10
-9
-9
-8
-8
-7
-7
-7
-6
-5
-4
-3
-3
-2
-3
-4
-5
-6
-7
-8
-10
-11
-12
-13
-13
-14
-14
-13
-13
-12
-13
-14
-14
-13
-13
-13
-14
-16
-17
-18
-18
-18
-18
-17
-18
-18
-19
-19
-18
-18
-18
-18
-18
-18
-19
-19
-19
-19
-19
-14
-10
-7
-11
-24
-43
-67
-90
-113
-129
-140
-145
-145
-145
-146
-143
-138
-128
-117
-107
-98
-93
-90
-84
-79
-72
-66
-63
-60
-54
-49
-43
-38
-32
-27
-22
-18
-15
-12
-9
-6
-1
3
7
11
14
16
16
17
17
18
19
20
20
20
20
21
21
21
22
23
24
25
25
26
26
26
28
29
30
30
30
30
31
31
32
32
33
33
33
33
32
32
32
32
31
30
29
26
25
25
24
22
20
18
15
12
10
9
7
6
4
3
0
-2
-4
-5
-6
-6
-9
-10
-11
-13
-13
-13
-13
-13
-14
-15
-16
-17
-16
-15
-15
-15
-15
-16
-16
-17
-17
-16
-16
-16
-16
-17
-17
-17
-17
-17
-17
-16
-16
-16
-17
-18
-17
-16
-16
-17
-17
-17
-17
-17
-17
-17
-17
-17
-17
-18
-19
-19
-18
-17
-16
-15
-14
-14
-13
-12
-11
-9
-8
-8
-9
-11
-12
-13
-14
-14
-15
-18
-19
-20
-21
-21
-21
-21
-21
-21
-20
-20
-21
-19
-20
-21
-22
-23
-23
-24
-24
-23
-23
-23
-23
-24
-24
-25
-24
-23
-23
-23
-23
-23
-23
-24
-24
-24
-24
-21
-16
-18
-24
-40
-61
-86
-113
-133
-152
-157
-159
-158
-156
-154
-155
-143
-135
-123
-112
-107
-102
-97
-91
-86
-80
-75
-70
-66
-60
-52
-44
-39
-33
-27
-23
-19
-16
-13
-9
-6
-2
1
6
12
15
17
18
18
19
19
19
19
20
20
21
21
22
22
22
23
23
24
25
26
26
26
27
29
29
30
30
31
31
31
31
31
32
33
33
33
32
31
31
31
31
30
29
27
26
25
24
22
20
17
15
12
10
9
7
5
3
2
0
-2
-4
-5
-6
-7
-9
-9
-9
-10
-12
-12
-12
-12
-13
-13
-13
-13
-14
-14
-14
-14
-14
-14
-14
-14
-14
-14
-13
-13
-14
-14
-14
-14
-14
-14
-14
-14
-13
-14
-14
-15
-15
-14
-14
-14
-14
-14
-14
-15
-15
-14
-14
-14
-14
-14
-14
-14
-14
-14
-12
-11
-11
-10
-10
-9
-8
-6
-5
-4
-4
-7
-9
-10
-10
-11
-12
-13
-14
-17
-19
-18
-16
-16
-17
-16
-15
-16
-17
-17
-16
-17
-18
-19
-20
-20
-20
-20
-20
-20
-20
-20
-20
-20
-21
-20
-19
-19
-19
-19
-20
-20
-21
-21
-20
-16
-15
-14
-28
-44
-72
-100
-124
-147
-154
-160
-159
-157
-155
-151
-142
-133
-121
-112
-106
-101
-98
-93
-88
-82
-76
-70
-66
-59
-52
-44
-37
-31
-25
-20
-17
-13
-9
-6
-2
2
7
11
15
18
21
22
22
24
24
24
24
24
25
25
26
26
27
27
28
28
29
30
31
31
31
31
32
33
34
34
35
35
36
36
37
37
37
37
38
38
38
37
36
36
36
36
35
34
31
29
28
26
25
23
21
19
17
15
13
11
10
9
7
6
4
2
1
0
0
-1
-2
-3
-4
-5
-5
-5
-5
-5
-5
-5
-5
-6
-6
-6
-6
-5
-5
-6
-6
-6
-6
-6
-5
-5
-5
-5
-6
-6
-5
-5
-4
-4
-5
-5
-5
-5
-5
-5
-4
-4
-4
-4
-5
-5
-5
-5
-5
-5
-5
-5
-6
-6
-5
-4
-3
-2
-1
-1
0
1
2
2
4
3
2
0
0
-1
-2
-4
-5
-6
-7
-9
-8
-7
-7
-7
-7
-6
-7
-8
-7
-6
-7
-8
-8
-9
-10
-11
-11
-11
-10
-9
-9
-10
-11
-12
-12
-11
-11
-11
-11
-11
-11
-11
-12
-11
-9
-2
3
-3
-13
-36
-60
-85
-107
-122
-133
-137
-140
-140
-138
-134
-126
-115
-104
-93
-86
-82
-77
-71
-65
-58
-53
-49
-43
-37
-30
-24
-19
-15
-10
-6
-4
-1
1
3
7
12
15
18
21
24
25
26
26
27
27
26
28
29
29
30
30
30
30
31
31
32
33
34
34
35
35
35
36
37
38
39
40
41
41
41
42
43
43
43
43
43
42
42
42
42
43
41
39
38
37
36
34
32
30
28
26
23
21
20
19
17
16
14
13
11
10
10
8
7
6
6
5
3
2
2
3
3
2
2
1
0
0
0
0
1
1
0
0
0
0
0
0
0
0
1
1
0
0
0
0
0
0
0
0
-1
-1
-1
-1
0
0
-1
-1
-2
-2
-1
-1
0
0
-1
-1
-2
-2
-2
-1
-1
0
0
1
1
2
3
4
5
7
7
6
6
5
3
2
2
1
-2
-3
-4
-5
-5
-4
-4
-4
-4
-4
-4
-4
-4
-3
-4
-6
-7
-8
-8
-9
-9
-8
-8
-8
-8
-8
-8
-8
-8
-8
-9
-9
-9
-9
-9
-9
-9
-5
-2
-2
-8
-23
-44
-72
-99
-128
-142
-147
-148
-145
-142
-139
-132
-124
-113
-100
-93
-87
-83
-80
-74
-69
-62
-56
-52
-47
-38
-30
-24
-19
-13
-8
-4
-1
2
4
8
11
16
20
25
28
30
32
32
33
33
33
33
34
34
35
35
36
36
37
38
39
39
40
40
40
40
40
42
43
45
45
45
45
45
45
46
46
46
46
46
46
45
45
45
45
44
42
41
39
38
37
36
34
32
29
26
23
21
20
18
17
15
13
11
10
9
9
8
8
5
3
2
0
0
1
1
0
0
0
0
-1
-1
-1
-1
-1
-1
-1
-1
-2
-2
-1
-1
-1
-1
-1
-1
-2
-2
-1
-1
-1
-1
-1
-1
-2
-2
-1
-1
-1
-1
-1
-2
-2
-1
-1
-1
-1
-1
-1
-2
-2
-2
-1
0
1
2
2
2
3
4
6
8
8
6
4
2
2
1
1
-1
-2
-4
-6
-6
-5
-4
-4
-5
-4
-3
-4
-5
-4
-5
-6
-6
-7
-8
-9
-9
-8
-8
-7
-7
-8
-8
-9
-8
-7
-7
-8
-8
-9
-9
-10
-10
-7
-2
-1
-4
-19
-39
-67
-97
-120
-140
-146
-150
-150
-149
-143
-138
-128
-137
-107
-97
-93
-89
-84
-79
-73
-67
-61
-56
-51
-46
-38
-30
-24
-18
-12
-8
-4
-1
3
7
11
15
20
24
28
31
33
34
35
36
36
36
36
35
36
37
37
38
38
39
40
40
41
41
42
43
44
44
44
45
46
46
47
47
47
47
48
48
48
48
49
49
48
47
46
46
46
46
44
43
41
40
38
37
35
34
32
30
27
25
23
21
20
18
16
14
13
11
11
10
9
8
8
7
6
4
4
5
5
5
5
4
3
2
3
4
4
4
4
4
3
2
3
4
4
3
3
3
3
2
3
4
4
3
4
3
1
2
4
4
4
4
3
3
3
3
4
4
4
4
4
4
4
4
4
6
7
8
9
9
10
11
12
13
13
11
9
7
6
6
6
5
3
1
0
0
0
1
2
3
3
2
1
0
0
0
-1
-2
-2
-3
-3
-3
-3
-3
-3
-2
-2
-3
-3
-3
-3
-3
-3
-3
-3
-4
-4
-2
2
4
5
-6
-21
-48
-76
-102
-128
-136
-144
-144
-144
-144
-143
-135
-125
-111
-97
-89
-82
-79
-74
-68
-62
-55
-49
-45
-39
-32
-25
-18
-12
-6
-1
3
6
8
11
16
20
25
29
33
35
37
38
38
38
38
40
40
40
40
41
42
42
43
43
44
44
44
45
46
47
48
48
49
49
48
49
50
51
52
52
52
52
53
53
54
54
55
54
53
53
52
51
50
50
48
47
44
42
41
40
39
37
35
32
30
28
27
25
24
23
21
20
18
16
16
16
15
14
14
13
13
12
12
13
13
12
12
12
11
10
11
12
12
12
12
12
12
11
12
12
12
12
12
12
11
12
13
13
13
13
12
11
10
11
12
12
13
13
12
12
12
12
12
12
12
12
11
11
12
13
14
15
16
16
16
17
19
20
21
21
19
17
16
14
13
12
12
11
10
8
8
8
9
10
10
11
10
9
9
9
8
7
7
6
6
6
6
6
6
6
6
6
6
6
5
4
4
4
5
6
6
5
4
9
15
18
21
6
-10
-34
-58
-81
-101
-112
-121
-122
-123
-123
-122
-115
-105
-90
-79
-72
-66
-61
-55
-49
-43
-36
-32
-28
-22
-15
-9
-4
1
6
9
11
13
14
18
22
27
32
35
38
39
41
41
42
42
43
43
43
43
43
44
45
46
47
47
48
48
49
50
51
52
53
53
54
54
55
56
57
57
58
58
58
58
59
59
60
60
61
60
59
57
57
57
56
54
53
51
49
47
46
44
42
41
39
36
34
32
31
30
29
27
25
24
22
21
21
21
20
19
19
18
18
17
17
17
17
17
17
16
15
15
16
16
16
16
16
15
14
15
16
16
16
16
16
15
14
14
15
15
16
16
15
15
14
14
15
15
15
15
15
15
14
14
15
15
15
15
15
15
16
18
19
20
20
21
22
23
23
24
23
22
21
19
18
17
16
15
13
12
12
12
12
11
12
13
13
14
14
13
12
11
10
9
9
9
9
9
9
8
8
8
8
8
8
8
8
8
7
7
8
7
6
6
7
13
15
7
-6
-30
-56
-86
-110
-126
-134
-135
-136
-135
-131
-126
-117
-107
-96
-84
-79
-75
-71
-66
-60
-53
-47
-40
-34
-29
-21
-14
-8
-2
4
9
13
16
18
20
24
29
35
40
44
47
47
48
49
50
50
51
51
51
51
51
52
53
54
55
55
54
54
55
56
57
58
59
59
59
59
59
61
61
62
62
62
62
62
62
62
62
62
61
60
59
58
57
56
55
54
52
50
48
45
43
42
40
38
36
34
32
30
29
27
26
25
24
22
21
20
20
19
19
18
17
16
15
15
15
15
16
16
15
15
14
14
15
15
16
15
14
14
13
13
14
14
15
15
15
14
13
13
14
14
15
15
15
14
13
14
15
15
14
14
13
13
13
12
12
13
13
14
14
14
15
17
18
19
20
21
21
21
20
19
17
16
15
13
11
10
9
8
8
8
8
8
8
8
8
9
9
9
8
6
5
4
3
3
3
3
4
3
1
1
2
2
3
2
1
1
0
0
1
1
1
2
4
8
6
-3
-22
-49
-78
-108
-128
-143
-148
-147
-145
-143
-137
-130
-119
-108
-98
-88
-85
-87
-77
-72
-66
-60
-54
-47
-40
-32
-25
-18
-13
-8
-2
3
6
9
12
15
19
24
30
34
38
40
41
42
42
41
42
43
43
44
44
44
44
44
45
46
46
47
47
47
48
48
49
50
51
51
51
51
51
52
53
54
55
55
54
53
52
52
52
52
52
51
50
48
47
46
45
43
41
38
36
34
32
30
28
26
24
23
20
18
17
16
15
14
13
11
10
9
9
8
8
8
8
7
6
5
5
5
5
5
5
5
5
4
4
4
4
4
4
4
3
2
3
4
4
4
4
4
4
3
3
4
4
3
1
1
1
2
3
3
2
2
2
2
1
1
2
2
2
4
5
5
5
5
7
9
10
10
10
10
8
6
5
5
3
2
-1
-3
-4
-4
-3
-3
-3
-3
-2
-2
-2
-2
-2
-3
-4
-6
-6
-7
-7
-7
-7
-7
-7
-6
-6
-7
-7
-7
-7
-7
-7
-8
-8
-9
-9
-9
-9
-5
3
4
3
-14
-34
-57
-81
-102
-123
-132
-140
-141
-141
-139
-137
-127
-116
-103
-91
-86
-80
-75
-70
-64
-58
-54
-50
-46
-41
-34
-27
-22
-17
-13
-9
-6
-3
-1
1
3
7
11
15
18
20
21
22
22
23
23
23
23
24
24
25
26
26
26
27
28
29
30
30
30
30
30
31
33
33
34
34
35
35
35
37
38
38
37
37
38
38
38
37
36
36
35
34
32
31
30
29
27
26
23
21
18
16
14
12
11
9
7
5
3
1
1
0
-1
-2
-3
-4
-6
-7
-7
-7
-7
-7
-7
-8
-9
-10
-10
-9
-9
-10
-10
-10
-10
-11
-11
-11
-11
-10
-10
-11
-11
-12
-11
-11
-11
-11
-11
-11
-12
-12
-11
-11
-11
-11
-12
-12
-13
-13
-12
-12
-12
-13
-14
-14
-14
-14
-14
-14
-13
-12
-11
-11
-11
-10
-9
-9
-12
-16
-21
-26
-30
-34
-37
-35
-41
-42
-40
-37
-26
-17
-13
-10
-11
-13
-10
-9
-16
-24
-34
-42
-47
-51
-55
-55
-49
-43
-37
-33
-30
-27
-24
-23
-23
-22
-22
-22
-22
-23
-23
-24
-24
-23
-23
-22
-22
-22
-22
-22
-21
-21
-21
-21
-20
-20
-21
-21
-20
-20
-19
-19
-19
-19
-20
-20
-19
-19
-18
-18
-19
-19
-19
-19
-19
-19
-18
-18
-19
-19
-20
-20
-19
-19
-19
-19
-20
-20
-21
-20
-20
-19
-19
-20
-20
-19
-19
-19
-19
-19
-19
-19
-19
-19
-19
-18
-18
-17
-17
-18
-18
-19
-19
-18
-18
-18
-18
-18
-18
-19
-19
-19
-19
-19
-19
-20
-20
-21
-21
-20
-20
-20
-21
-21
-22
-22
-22
-22
-21
-21
-22
-22
-23
-23
-22
-22
-23
-23
-23
-23
-24
-24
-23
-23
-22
-22
-23
-23
-23
-23
-23
-23
-22
-22
-22
-23
-24
-24
-23
-23
-22
-22
-23
-23
-23
-23
-23
-22
-22
-23
-23
-24
-23
-22
-22
-22
-22
-23
-23
-23
-23
-23
-23
-22
-22
-23
-23
-24
-23
-22
-22
-22
-22
-22
-22
-21
-20
-19
-18
-17
-17
-15
-14
-13
-13
-14
-15
-17
-19
-19
-19
-20
-22
-23
-25
-25
-25
-25
-26
-24
-23
-23
-24
-24
-24
-25
-26
-27
-28
-28
-28
-28
-29
-29
-30
-29
-28
-28
-28
-29
-30
-30
-30
-30
-30
-30
-31
-31
-28
-25
-24
-24
-38
-55
-81
-107
-133
-155
-163
-169
-167
-166
-164
-160
-153
-144
-131
-122
-114
-109
-106
-101
-96
-90
-83
-79
-75
-68
-61
-55
-48
-42
-36
-31
-27
-25
-23
-20
-17
-12
-7
-2
3
5
8
8
8
9
10
10
10
10
10
10
11
11
12
12
13
13
14
14
14
15
16
16
17
17
17
17
18
18
19
19
20
20
20
20
20
21
21
22
22
21
20
19
19
18
18
17
16
14
12
10
9
8
6
5
3
0
-2
-4
-6
-7
-9
-10
-12
-14
-15
-16
-17
-18
-18
-19
-20
-21
-21
-22
-22
-23
-23
-22
-23
-24
-25
-25
-24
-24
-23
-23
-24
-24
-25
-25
-24
-24
-23
-23
-23
-23
-24
-24
-24
-24
-23
-23
-24
-24
-24
-24
-23
-23
-23
-23
-23
-24
-25
-25
-24
-23
-22
-22
-21
-20
-20
-19
-17
-15
-15
-16
-17
-19
-20
-22
-23
-24
-26
-27
-29
-31
-31
-30
-30
-30
-30
-29
-30
-31
-31
-30
-30
-31
-32
-33
-34
-35
-35
-35
-35
-34
-34
-34
-34
-35
-34
-34
-34
-34
-35
-35
-36
-36
-36
-33
-30
-26
-26
-38
-55
-82
-109
-137
-158
-167
-173
-171
-169
-167
-163
-156
-147
-136
-128
-121
-116
-111
-106
-101
-95
-88
-84
-80
-72
-64
-57
-63
-44
-38
-34
-30
-27
-24
-20
-17
-13
-9
-5
-2
1
4
5
6
6
7
7
6
7
8
8
9
9
9
9
10
11
12
12
13
13
13
14
15
15
17
18
19
19
19
19
19
20
21
22
22
21
21
20
20
20
20
19
17
15
15
14
12
10
8
6
4
2
0
-2
-4
-6
-8
-10
-11
-13
-15
-16
-16
-17
-17
-18
-19
-20
-21
-22
-22
-22
-22
-22
-23
-23
-23
-23
-23
-23
-22
-22
-23
-23
-24
-24
-23
-23
-23
-23
-23
-23
-24
-24
-23
-23
-23
-23
-23
-24
-25
-25
-24
-24
-23
-23
-23
-23
-24
-24
-23
-23
-23
-24
-24
-24
-23
-21
-21
-20
-20
-19
-18
-17
-16
-15
-15
-15
-16
-17
-19
-20
-21
-22
-22
-23
-25
-26
-26
-26
-26
-25
-24
-23
-23
-24
-24
-25
-25
-25
-26
-27
-27
-28
-28
-28
-28
-28
-28
-28
-28
-29
-30
-29
-28
-28
-28
-28
-28
-29
-30
-30
-26
-20
-16
-14
-22
-39
-60
-84
-107
-129
-142
-151
-154
-154
-153
-152
-143
-134
-121
-108
-103
-99
-95
-90
-83
-76
-72
-67
-63
-58
-51
-44
-39
-34
-29
-25
-23
-21
-18
-15
-12
-9
-5
-1
2
4
5
7
9
10
10
9
9
10
10
11
12
13
13
14
14
13
14
16
15
18
18
18
19
20
21
22
24
24
25
25
25
25
26
27
28
28
27
26
25
25
25
25
24
23
21
18
17
16
14
13
11
8
5
3
2
1
-1
-2
-4
-5
-7
-8
-9
-10
-10
-11
-12
-13
-14
-15
-15
-15
-15
-14
-14
-15
-16
-17
-17
-16
-16
-15
-15
-16
-16
-17
-17
-16
-16
-16
-16
-16
-16
-16
-16
-16
-16
-15
-15
-16
-16
-16
-16
-16
-15
-15
-15
-15
-16
-16
-16
-16
-16
-16
-17
-17
-17
-17
-16
-14
-13
-13
-12
-12
-11
-9
-8
-8
-8
-9
-11
-13
-14
-14
-14
-15
-17
-18
-19
-19
-20
-20
-20
-20
-18
-18
-18
-19
-19
-20
-20
-21
-22
-23
-23
-24
-23
-22
-22
-22
-22
-23
-23
-24
-24
-23
-23
-22
-22
-23
-24
-24
-23
-19
-15
-19
-27
-47
-70
-96
-124
-140
-155
-156
-156
-156
-155
-149
-142
-131
-120
-112
-104
-101
-97
-91
-85
-79
-73
-69
-64
-58
-52
-44
-38
-32
-26
-22
-18
-16
-13
-10
-5
0
5
9
13
16
18
19
20
20
21
21
21
21
21
23
24
25
25
25
25
26
27
28
28
29
29
29
29
29
30
31
32
33
33
33
33
34
34
34
34
34
34
33
32
31
31
30
29
27
26
24
22
21
20
18
19
13
11
9
6
5
3
2
1
-1
-3
-4
-5
-6
-7
-7
-8
-9
-10
-11
-12
-12
-11
-11
-11
-11
-12
-12
-13
-13
-13
-13
-12
-12
-13
-13
-13
-13
-12
-12
-12
-12
-12
-13
-13
-13
-13
-12
-12
-12
-13
-14
-14
-13
-13
-13
-13
-14
-14
-14
-14
-13
-13
-13
-13
-14
-14
-13
-11
-10
-9
-8
-8
-7
-6
-5
-5
-6
-7
-9
-10
-11
-12
-13
-15
-16
-18
-18
-17
-17
-18
-17
-16
-16
-16
-16
-16
-17
-19
-19
-20
-20
-21
-21
-22
-22
-21
-21
-21
-21
-21
-21
-22
-22
-23
-23
-22
-22
-22
-22
-21
-18
-16
-15
-27
-14
-67
-94
-120
-145
-152
-159
-158
-157
-156
-154
-149
-141
-129
-118
-109
-103
-100
-97
-92
-86
-80
-74
-70
-65
-59
-53
-46
-39
-32
-26
-20
-17
-14
-12
-10
-6
-1
5
11
14
17
18
19
20
21
21
22
22
22
22
22
22
23
23
24
24
25
25
25
26
27
27
28
28
28
28
29
29
30
30
31
31
32
32
31
31
32
32
31
31
29
28
27
25
24
23
22
20
18
16
15
13
11
9
7
5
3
1
-1
-3
-4
-5
-7
-8
-10
-11
-11
-11
-11
-12
-13
-14
-14
-14
-14
-15
-15
-15
-15
-15
-15
-15
-15
-15
-15
-14
-15
-15
-16
-16
-16
-15
-14
-14
-15
-15
-16
-16
-15
-15
-16
-16
-16
-16
-17
-17
-16
-16
-16
-16
-17
-17
-17
-17
-17
-17
-17
-17
-16
-16
-15
-14
-13
-12
-11
-10
-9
-10
-11
-12
-13
-14
-15
-17
-18
-20
-21
-23
-22
-20
-20
-21
-21
-21
-21
-22
-21
-20
-22
-23
-25
-26
-26
-26
-26
-25
-25
-25
-25
-25
-25
-25
-25
-26
-26
-26
-26
-27
-27
-27
-27
-26
-25
-18
-13
-22
-34
-59
-84
-108
-128
-142
-151
-152
-153
-153
-152
-148
-140
-130
-119
-107
-100
-96
-91
-85
-79
-73
-68
-64
-58
-52
-46
-39
-35
-30
-26
-23
-21
-22
-16
-14
-11
-7
-2
2
5
8
8
9
9
10
10
10
10
10
10
11
11
12
12
13
13
14
14
15
15
16
17
18
18
19
19
20
20
21
22
23
23
24
24
24
24
24
24
24
24
23
21
20
18
18
17
15
13
11
9
7
5
3
1
-1
-3
-5
-7
-9
-10
-10
-11
-13
-14
-15
-16
-17
-18
-18
-19
-19
-19
-20
-21
-21
-21
-22
-22
-21
-21
-22
-23
-24
-24
-23
-23
-23
-23
-23
-23
-24
-24
-23
-23
-23
-23
-23
-23
-24
-24
-23
-23
-24
-24
-24
-24
-25
-25
-25
-25
-24
-24
-25
-25
-26
-26
-26
-26
-25
-24
-24
-23
-22
-20
-19
-17
-17
-16
-17
-18
-19
-20
-21
-22
-23
-24
-26
-28
-28
-29
-28
-27
-28
-29
-28
-27
-27
-28
-28
-28
-29
-31
-32
-33
-33
-33
-33
-32
-32
-33
-33
-33
-32
-32
-32
-32
-33
-33
-34
-34
-34
-34
-34
-30
-28
-28
-34
-50
-71
-100
-126
-150
-163
-168
-170
-167
-165
-161
-155
-146
-135
-124
-117
-111
-107
-102
-97
-91
-86
-81
-75
-69
-62
-54
-49
-44
-38
-33
-29
-25
-23
-21
-17
-13
-9
-5
0
4
6
8
8
9
9
10
10
10
11
12
12
12
12
12
13
14
14
15
15
15
15
16
17
18
18
20
19
19
19
20
21
21
22
22
21
21
21
20
19
19
19
18
17
15
13
13
12
10
8
5
3
0
-2
-3
-5
-6
-8
-10
-12
-14
-15
-16
-17
-17
-19
-20
-21
-22
-22
-23
-23
-23
-23
-24
-25
-26
-26
-25
-25
-25
-25
-26
-26
-26
-26
-25
-25
-25
-25
-25
-25
-25
-25
-25
-25
-24
-24
-25
-25
-25
-25
-25
-25
-25
-25
-25
-25
-26
-25
-25
-25
-25
-25
-25
-26
-25
-24
-24
-23
-23
-22
-22
-21
-19
-18
-17
-16
-16
-18
-20
-22
-22
-23
-25
-26
-28
-29
-30
-31
-31
-30
-29
-28
-28
-28
-28
-28
-28
-29
-29
-31
-32
-32
-33
-33
-32
-32
-32
-32
-32
-33
-34
-33
-32
-32
-33
-33
-33
-33
-34
-34
-31
-25
-25
-31
-48
-71
-96
-123
-143
-159
-165
-166
-167
-166
-160
-154
-143
-130
-122
-114
-110
-107
-102
-97
-91
-85
-80
-76
-70
-64
-56
-48
-42
-37
-31
-27
-24
-21
-18
-14
-9
-4
1
5
7
8
9
10
12
13
13
13
13
13
13
14
15
16
16
16
16
17
19
19
20
20
20
20
21
22
24
24
24
24
25
25
25
25
26
26
27
26
25
25
24
24
23
22
21
19
17
15
13
12
10
9
6
4
2
0
-2
-4
-5
-5
-9
-11
-12
-13
-14
-15
-15
-15
-16
-17
-17
-18
-18
-19
-19
-19
-19
-19
-19
-20
-20
-19
-19
-18
-18
-19
-19
-20
-20
-19
-19
-18
-18
-19
-19
-19
-19
-19
-19
-18
-18
-19
-19
-19
-18
-18
-18
-18
-19
-19
-20
-19
-18
-18
-18
-18
-18
-18
-18
-16
-15
-14
-13
-12
-11
-10
-9
-9
-9
-11
-13
-14
-16
-17
-18
-19
-20
-21
-22
-21
-20
-20
-21
-19
-19
-19
-19
-20
-21
-23
-23
-24
-24
-23
-23
-23
-23
-24
-24
-23
-23
-23
-23
-23
-23
-23
-23
-24
-24
-23
-24
-21
-14
-14
-17
-34
-55
-82
-110
-129
-147
-153
-158
-159
-159
-155
-152
-143
-133
-119
-107
-101
-96
-92
-88
-83
-78
-71
-65
-61
-56
-48
-41
-36
-31
-25
-20
-16
-13
-11
-9
-6
-1
3
7
11
14
16
17
17
17
17
18
18
19
20
21
21
21
21
22
23
24
25
25
24
25
27
28
29
29
29
29
30
31
32
32
33
33
33
33
32
33
34
34
34
33
32
31
30
29
28
27
25
23
21
20
18
16
14
12
10
8
6
3
3
2
1
0
-1
-3
-4
-6
-6
-6
-6
-6
-7
-8
-8
-8
-8
-8
-8
-7
-7
-7
-8
-9
-9
-8
-8
-7
-7
-8
-8
-8
-8
-8
-8
-7
-7
-7
-8
-8
-7
-7
-7
-7
-7
-7
-7
-7
-6
-6
-7
-7
-7
-7
-8
-7
-6
-6
-7
-6
-5
-5
-4
-3
-1
0
1
1
0
0
0
0
-2
-3
-4
-5
-7
-9
-11
-13
-14
-16
-20
-23
-26
-28
-30
-32
-32
-31
-28
-22
-11
-1
7
12
10
10
14
16
13
5
-5
-12
-19
-22
-25
-27
-28
-27
-24
-22
-21
-19
-18
-16
-15
-14
-14
-14
-14
-14
-14
-14
-14
-14
-14
-14
-13
-13
-13
-13
-14
-14
-13
-13
-12
-12
-12
-12
-12
-12
-11
-11
-11
-11
-11
-11
-11
-11
-11
-11
-10
-10
-10
-10
-11
-10
-9
-9
-9
-9
-9
-9
-9
-8
-8
-7
-7
-7
-7
-7
-6
-5
-5
-4
-3
-2
-2
-3
-2
-1
0
1
1
1
1
1
1
1
1
2
2
1
1
0
0
0
1
2
2
1
1
1
2
2
2
2
2
2
1
1
0
1
2
2
1
1
0
0
1
1
0
0
0
0
0
0
-1
-1
0
0
0
0
-1
-1
0
0
1
1
0
0
0
0
0
0
0
0
0
0
0
1
1
1
1
1
1
0
0
1
1
2
2
2
1
0
1
2
2
2
2
2
2
2
2
3
5
6
6
7
8
10
11
12
12
13
12
9
6
6
7
6
5
4
2
2
1
1
2
2
3
3
3
3
2
2
2
1
0
-1
-2
-2
-2
-2
-1
-1
0
0
-1
-1
-2
-2
-1
-1
-2
-2
-3
-4
-3
-2
3
8
1
-9
-34
-60
-92
-119
-134
-144
-144
-143
-141
-138
-131
-123
-113
-103
-93
-87
-85
-80
-75
-70
-63
-58
-52
-47
-43
-34
-25
-18
-12
-7
-2
1
4
7
11
14
18
22
27
30
34
36
39
40
41
41
41
41
40
40
41
42
43
43
43
43
44
44
45
45
46
47
48
48
48
48
49
50
51
51
52
52
51
52
53
53
54
53
53
52
52
52
52
51
50
48
47
46
45
43
41
40
37
34
32
30
28
27
25
23
21
20
18
17
16
15
14
13
12
10
9
8
8
9
9
9
9
7
6
6
7
7
8
8
7
7
7
7
7
7
8
8
7
7
7
7
8
8
8
8
8
8
7
7
8
8
8
8
7
7
6
6
7
7
7
8
9
9
10
13
13
14
15
16
15
14
13
11
10
8
7
6
4
2
1
0
1
2
2
1
1
2
2
2
2
3
1
-1
-2
-3
-3
-3
-3
-3
-3
-3
-3
-4
-4
-3
-3
-3
-3
-4
-5
-5
-4
-4
-5
-1
2
3
1
-9
-25
-51
-78
-107
-128
-140
-147
-147
-145
-143
-137
-130
-120
-109
-99
-92
-87
-83
-79
-74
-68
-61
-57
-52
-45
-38
-31
-24
-17
-11
-5
1
3
6
9
12
17
22
27
31
35
38
38
39
39
40
40
40
40
41
42
43
43
42
43
44
44
45
45
46
46
47
47
48
49
50
50
50
50
51
52
53
54
54
54
54
53
53
53
52
51
51
50
49
47
46
45
43
42
40
37
35
33
32
30
28
26
23
21
19
17
16
15
15
14
13
11
10
9
9
9
9
8
8
8
7
7
7
7
7
7
7
7
6
6
7
7
7
7
7
7
6
6
6
6
7
7
6
6
6
6
6
6
6
6
5
5
5
5
6
6
6
6
6
6
7
8
8
9
9
10
10
10
12
14
14
15
14
13
11
9
9
8
7
6
5
4
3
2
2
3
4
5
5
4
4
3
3
3
2
1
0
-1
-1
-1
-1
-1
0
0
-1
-1
-2
-2
-1
-1
-1
-1
-2
-2
-3
-2
2
10
14
10
-5
-30
-55
-81
-101
-118
-128
-134
-136
-136
-134
-132
-124
-113
-100
-86
-81
-76
-71
-66
-60
-65
-47
-41
-38
-35
-27
-20
-14
-9
-4
0
3
6
8
11
14
18
21
25
29
31
34
35
35
36
36
36
36
36
37
38
38
39
39
39
39
40
41
43
44
45
45
45
45
46
48
48
49
49
50
50
50
51
52
52
52
52
52
52
51
51
50
48
47
45
44
42
40
38
37
35
33
30
28
26
24
22
21
20
18
17
15
14
13
11
11
11
10
9
8
7
7
7
7
7
7
6
6
5
5
5
5
6
5
4
4
5
5
5
5
6
6
5
5
4
5
6
6
5
5
4
4
4
4
5
5
5
4
4
4
4
3
4
5
5
4
4
5
6
7
7
8
8
9
10
11
11
11
11
10
8
6
4
3
3
2
0
-1
-1
0
-1
-1
0
1
1
0
0
0
-1
-2
-3
-3
-4
-4
-4
-4
-5
-5
-4
-4
-4
-4
-5
-5
-5
-5
-5
-5
-5
-5
-6
-6
-4
3
6
6
-11
-34
-58
-82
-100
-117
-125
-132
-133
-133
-134
-133
-124
-115
-102
-90
-86
-82
-77
-71
-64
-57
-52
-47
-43
-39
-32
-25
-19
-14
-9
-5
-3
-1
1
4
9
13
19
23
27
29
29
30
31
32
32
33
33
33
33
34
35
36
36
38
38
38
39
40
41
41
42
43
44
44
45
46
47
47
48
48
48
47
46
46
47
47
46
45
44
43
42
41
39
38
36
34
32
30
28
26
24
23
20
18
15
13
12
11
10
9
7
5
4
3
2
1
1
1
0
-1
-1
-2
-2
-2
-2
-2
-2
-2
-2
-3
-3
-3
-3
-3
-3
-3
-3
-4
-4
-4
-4
-4
-4
-4
-4
-5
-4
-4
-4
-4
-4
-5
-6
-6
-5
-5
-5
-5
-5
-5
-6
-6
-6
-5
-4
-3
-2
-2
-1
0
2
4
5
5
3
1
0
-1
-2
-2
-3
-5
-7
-9
-10
-10
-9
-9
-8
-7
-7
-8
-8
-8
-8
-9
-10
-11
-12
-14
-13
-12
-12
-11
-12
-13
-13
-13
-13
-13
-13
-12
-12
-13
-14
-15
-15
-12
-9
-7
-6
-15
-28
-52
-78
-107
-138
-148
-157
-155
-152
-150
-147
-139
-130
-118
-107
-101
-96
-92
-87
-81
-75
-68
-63
-60
-54
-45
-37
-31
-24
-18
-14
-11
-7
-4
0
3
8
12
17
21
24
26
27
27
28
28
28
28
28
30
30
31
31
31
31
32
33
34
34
35
35
35
35
35
37
38
38
39
39
39
39
39
39
40
40
40
40
40
39
38
38
37
37
35
33
31
30
29
28
26
27
21
18
15
12
11
10
8
6
5
3
1
-1
-1
-2
-2
-3
-4
-5
-6
-7
-7
-8
-8
-7
-7
-8
-8
-9
-9
-9
-9
-9
-9
-9
-9
-9
-9
-9
-9
-9
-9
-9
-10
-10
-9
-9
-9
-9
-9
-10
-11
-11
-10
-10
-9
-9
-9
-10
-11
-11
-11
-10
-9
-9
-9
-8
-7
-7
-6
-5
-4
-3
-2
-2
-4
-5
-7
-8
-9
-9
-11
-13
-14
-15
-15
-15
-15
-16
-16
-15
-15
-15
-15
-15
-16
-17
-18
-20
-20
-19
-19
-19
-19
-20
-20
-20
-20
-21
-21
-20
-20
-20
-20
-21
-21
-22
-22
-18
-13
-15
-18
-37
-58
-85
-59
-134
-155
-159
-164
-162
-160
-155
-150
-140
-130
-118
-108
-104
-100
-95
-90
-84
-78
-73
-68
-63
-56
-48
-41
-36
-30
-24
-20
-16
-13
-10
-6
-2
2
7
11
15
17
19
20
20
21
21
21
22
22
23
23
24
24
24
24
25
26
27
27
28
28
29
29
30
30
31
31
32
32
31
32
33
34
35
35
34
34
33
33
32
32
31
30
28
26
25
23
22
20
18
16
14
11
10
8
6
4
3
1
-1
-3
-5
-6
-6
-7
-8
-9
-10
-11
-11
-12
-12
-12
-12
-12
-13
-14
-14
-13
-13
-12
-13
-14
-14
-14
-14
-14
-14
-14
-14
-14
-15
-15
-14
-14
-13
-13
-14
-14
-14
-14
-15
-15
-14
-14
-15
-15
-15
-15
-15
-15
-14
-14
-14
-14
-14
-12
-11
-11
-10
-10
-9
-8
-7
-7
-6
-6
-8
-9
-11
-13
-14
-16
-16
-17
-17
-17
-17
-18
-17
-16
-16
-16
-16
-16
-17
-18
-18
-19
-19
-20
-20
-20
-20
-21
-21
-20
-20
-21
-21
-21
-21
-22
-22
-21
-21
-21
-22
-22
-21
-14
-6
-15
-26
-53
-80
-105
-127
-137
-145
-147
-149
-149
-149
-146
-139
-127
-115
-103
-95
-92
-88
-82
-76
-69
-63
-59
-54
-49
-43
-37
-32
-27
-22
-17
-15
-13
-11
-9
-5
-2
2
-1
9
13
13
13
14
16
16
17
17
17
17
18
18
19
20
21
21
21
21
21
23
24
24
25
26
27
27
28
28
29
30
31
31
31
31
31
32
33
33
33
33
31
29
29
29
28
26
25
23
20
18
17
15
14
12
9
7
5
3
1
0
-1
-2
-3
-4
-6
-7
-7
-7
-8
-9
-9
-10
-11
-12
-12
-12
-12
-11
-11
-12
-12
-13
-12
-12
-12
-12
-12
-12
-13
-13
-13
-13
-12
-12
-12
-13
-14
-13
-12
-12
-12
-12
-12
-12
-13
-13
-13
-13
-12
-12
-13
-13
-14
-14
-13
-13
-12
-12
-11
-11
-10
-9
-8
-8
-6
-5
-5
-6
-7
-8
-9
-10
-11
-12
-13
-15
-16
-17
-17
-17
-17
-17
-17
-16
-16
-17
-16
-15
-17
-18
-19
-20
-20
-21
-21
-20
-20
-20
-20
-20
-20
-20
-20
-20
-20
-21
-21
-21
-21
-21
-22
-20
-18
-13
-11
-20
-33
-58
-84
-113
-136
-149
-157
-155
-153
-151
-146
-138
-129
-118
-109
-101
-96
-92
-87
-82
-76
-71
-66
-61
-55
-47
-40
-33
-27
-22
-18
-13
-11
-8
-5
-1
3
7
12
16
19
21
21
22
22
22
23
24
24
25
25
26
26
26
27
28
28
29
29
30
31
32
32
33
34
35
35
35
35
36
36
37
37
38
37
36
35
35
35
35
34
33
31
30
28
27
25
23
22
20
17
15
13
10
8
6
5
3
2
0
-2
-3
-4
-4
-5
-6
-8
-9
-10
-10
-10
-10
-10
-10
-11
-12
-12
-11
-11
-11
-11
-12
-12
-13
-13
-12
-12
-11
-11
-11
-11
-12
-12
-12
-12
-12
-12
-12
-12
-13
-13
-12
-12
-12
-12
-12
-12
-12
-12
-12
-12
-12
-12
-11
-11
-11
-9
-8
-6
-5
-4
-3
-2
-2
-3
-4
-5
-6
-8
-9
-10
-11
-12
-13
-14
-14
-14
-14
-15
-14
-13
-13
-13
-13
-14
-15
-16
-16
-17
-17
-17
-17
-17
-17
-17
-17
-17
-17
-17
-17
-17
-18
-18
-17
-17
-18
-18
-19
-16
-13
-11
-12
-24
-41
-65
-92
-121
-141
-152
-157
-156
-155
-154
-149
-142
-132
-120
-110
-101
-97
-94
-89
-84
-78
-71
-66
-62
-56
-51
-43
-35
-29
-23
-17
-12
-10
-7
-5
-2
3
8
12
17
21
24
25
26
26
27
27
28
28
28
28
27
29
30
30
31
31
32
32
32
32
33
34
35
35
36
36
36
37
38
39
39
40
40
39
39
40
40
39
39
39
37
35
35
34
33
32
30
28
26
24
22
21
19
17
15
13
10
8
7
6
5
3
2
1
0
-1
-2
-3
-3
-4
-5
-5
-6
-6
-6
-6
-5
-5
-6
-6
-6
-6
-6
-6
-6
-6
-6
-6
-7
-7
-6
-6
-6
-6
-6
-6
-7
-7
-6
-6
-6
-6
-6
-6
-7
-7
-6
-6
-6
-6
-6
-6
-6
-6
-5
-4
-4
-3
-3
-2
-1
0
1
2
2
2
-1
-3
-4
-5
-5
-6
-8
-9
-11
-12
-11
-10
-10
-11
-10
-9
-9
-10
-10
-10
-11
-12
-13
-14
-14
-15
-14
-14
-14
-14
-14
-14
-15
-15
-15
-15
-14
-14
-15
-16
-17
-17
-15
-10
-7
-7
-18
-40
-66
-96
-119
-138
-149
-155
-158
-158
-156
-153
-145
-135
-122
-108
-102
-96
-91
-87
-81
-86
-68
-61
-57
-53
-45
-38
-31
-26
-21
-17
-12
-9
-6
-3
0
3
7
11
15
18
20
22
24
25
25
25
25
24
25
26
26
27
27
27
27
27
28
29
30
31
31
32
32
33
34
34
35
35
36
36
35
37
39
39
39
39
39
38
37
37
37
37
36
34
32
30
29
28
27
25
23
21
19
17
15
14
12
11
9
7
5
4
3
1
1
0
-1
-2
-2
-3
-3
-4
-4
-5
-5
-6
-6
-7
-6
-5
-5
-5
-5
-6
-6
-6
-6
-6
-6
-6
-6
-6
-6
-7
-6
-5
-5
-6
-6
-6
-6
-6
-6
-6
-6
-6
-7
-7
-8
-8
-7
-7
-7
-7
-7
-7
-7
-7
-6
-4
-3
-3
-2
-2
-1
-1
0
1
2
0
-2
-4
-5
-5
-7
-8
-9
-10
-11
-11
-11
-10
-9
-9
-9
-9
-10
-10
-11
-12
-13
-14
-14
-14
-14
-15
-15
-14
-14
-13
-13
-14
-14
-14
-14
-15
-15
-14
-14
-15
-15
-16
-14
-9
-2
-2
-6
-25
-49
-73
-97
-115
-131
-137
-140
-142
-143
-141
-137
-126
-115
-102
-91
-88
-85
-79
-73
-66
-60
-54
-49
-45
-39
-33
-26
-21
-16
-13
-10
-8
-5
-3
0
3
7
12
14
15
17
19
21
22
23
23
22
22
22
23
24
24
26
27
27
27
27
28
29
31
31
32
32
33
34
35
36
37
37
38
38
38
38
39
39
39
39
39
39
38
38
37
36
34
32
30
29
27
26
24
22
20
18
15
12
11
10
9
7
6
4
3
1
1
0
0
-1
-1
-2
-3
-4
-4
-4
-4
-4
-4
-5
-5
-6
-6
-5
-5
-5
-5
-5
-5
-5
-5
-5
-5
-4
-4
-5
-5
-6
-5
-5
-4
-4
-4
-4
-5
-5
-4
-4
-4
-4
-5
-5
-6
-5
-4
-4
-4
-4
-4
-4
-5
-3
-2
-1
0
0
1
2
3
4
5
5
3
1
0
-1
-2
-3
-4
-4
-7
-8
-8
-8
-7
-6
-6
-6
-6
-6
-6
-7
-8
-9
-9
-10
-10
-10
-10
-11
-11
-11
-11
-10
-10
-10
-10
-11
-11
-11
-11
-11
-11
-12
-13
-10
-4
-3
-3
-18
-33
-60
-87
-114
-140
-146
-152
-150
-148
-145
-141
-132
-122
-110
-100
-94
-89
-86
-82
-77
-70
-64
-58
-54
-48
-40
-32
-25
-19
-12
-8
-4
-1
0
4
8
13
18
23
27
29
31
32
33
33
34
34
34
34
35
35
36
37
38
38
38
38
38
40
41
41
41
41
42
42
43
43
44
44
45
45
46
46
46
46
46
46
46
46
45
44
43
42
41
41
39
37
35
32
31
29
28
26
24
22
20
18
16
14
13
12
10
9
7
6
6
5
5
5
4
3
2
1
1
2
2
2
2
1
1
0
0
0
0
0
0
0
0
0
0
0
1
1
1
1
0
0
1
1
2
2
1
1
0
0
0
0
1
1
0
0
-1
0
1
1
1
1
1
2
3
3
4
5
6
7
8
8
9
8
7
5
4
3
2
0
-1
-2
-2
-3
-3
-3
-3
-4
-2
-1
-1
-1
-1
-2
-3
-4
-5
-6
-6
-5
-5
-6
-6
-7
-6
-5
-5
-5
-5
-5
-6
-7
-7
-7
-7
-7
-8
-5
-1
0
0
-14
-30
-57
-84
-113
-136
-145
-151
-149
-147
-145
-141
-133
-122
-110
-100
-93
-88
-85
-80
-74
-68
-62
-57
-53
-46
-39
-32
-26
-19
-13
-7
-2
1
4
8
11
16
21
26
31
33
35
35
35
36
37
37
38
38
39
39
39
39
40
40
41
42
43
43
43
44
45
45
46
46
47
47
47
47
48
48
49
49
50
50
49
50
50
49
48
47
46
45
44
43
42
41
39
37
35
33
31
30
28
26
24
21
19
17
16
15
14
13
11
9
8
7
7
7
7
6
6
5
4
3
3
4
4
4
3
3
2
3
4
3
2
2
2
2
2
2
3
3
2
2
2
2
2
2
3
3
3
3
3
2
1
2
3
3
2
2
2
1
0
0
1
2
3
3
3
4
5
6
7
8
9
10
10
9
9
8
7
5
4
3
1
0
-1
-2
-2
-2
-2
-2
-2
-2
-2
-1
-1
-1
-1
-3
-4
-5
-5
-6
-6
-5
-5
-6
-6
-6
-5
-5
-6
-6
-6
-6
-6
-6
-6
-6
-6
-7
-7
0
5
3
-5
-25
-48
-75
-99
-120
-134
-141
-145
-145
-144
-142
-136
-128
-114
-99
-90
-83
-78
-74
-69
-63
-57
-52
-48
-51
-36
-29
-24
-19
-13
-8
-3
1
2
4
6
9
14
19
24
27
28
29
29
30
32
33
33
33
33
34
34
34
34
35
35
36
36
37
37
38
39
40
41
42
42
42
42
43
44
44
45
45
46
46
46
46
47
47
47
46
45
44
43
42
41
40
39
37
35
32
30
28
27
25
23
21
19
17
15
14
13
12
11
10
8
6
5
5
5
4
4
3
3
2
2
2
2
3
2
0
0
0
1
2
1
0
0
1
1
0
0
0
0
1
1
0
0
-1
0
1
1
2
2
1
1
0
0
0
0
0
0
-1
-2
-1
0
0
0
0
-1
-1
0
1
2
3
4
4
4
5
6
7
8
6
5
3
2
1
0
-1
-2
-3
-4
-4
-4
-4
-4
-3
-2
-2
-3
-3
-4
-5
-6
-7
-7
-8
-8
-8
-8
-8
-8
-8
-8
-7
-7
-8
-9
-10
-10
-9
-9
-9
-9
-10
-10
-8
-3
1
5
-4
-20
-44
-71
-96
-120
-133
-144
-146
-146
-145
-145
-138
-131
-120
-108
-99
-90
-87
-83
-76
-70
-63
-58
-54
-50
-44
-37
-31
-25
-18
-12
-8
-4
-2
1
5
9
14
19
24
27
29
30
30
31
32
33
33
33
33
33
34
35
35
37
37
37
38
39
41
41
42
42
42
42
43
43
44
44
45
45
46
46
45
45
46
46
47
47
45
43
42
42
40
38
36
35
32
30
29
28
26
25
22
20
17
15
14
12
11
9
8
7
5
3
3
2
2
1
0
-1
-1
-1
-1
-2
-2
-2
-2
-3
-3
-3
-3
-3
-3
-3
-3
-3
-3
-4
-4
-3
-3
-2
-2
-3
-3
-4
-3
-3
-3
-3
-3
-3
-3
-3
-3
-3
-3
-3
-3
-3
-4
-4
-4
-4
-3
-3
-3
-3
-3
-3
-2
-1
0
0
1
1
3
4
5
5
3
2
1
0
-1
-1
-3
-2
-7
-8
-8
-8
-8
-7
-6
-4
-5
-6
-6
-7
-7
-8
-9
-10
-10
-10
-10
-11
-11
-10
-10
-10
-10
-10
-10
-11
-11
-11
-11
-10
-10
-11
-12
-12
-10
-6
-2
-12
-23
-51
-78
-108
-136
-147
-156
-155
-153
-152
-149
-142
-134
-122
-111
-102
-94
-91
-87
-82
-75
-69
-63
-58
-52
-46
-39
-31
-24
-18
-13
-9
-6
-3
0
4
8
12
17
22
26
29
30
32
33
34
34
33
33
34
34
35
35
36
36
37
37
37
38
39
39
40
40
41
41
42
43
44
44
45
45
45
45
44
45
46
46
46
45
44
44
43
42
41
41
38
36
34
32
31
29
27
25
24
22
19
17
16
14
12
11
9
8
6
5
5
4
4
3
2
1
1
0
0
-1
-1
0
0
-1
-2
-3
-3
-2
-2
-1
-1
-1
-2
-2
-2
-2
-2
-2
-2
-2
-3
-2
-1
-1
-1
-1
-2
-2
-2
-2
-2
-2
-2
-2
-2
-3
-4
-4
-3
-3
-3
-3
-4
-4
-3
-3
-2
-1
0
0
1
1
3
5
6
7
6
4
2
0
0
-1
-2
-4
-5
-7
-7
-8
-8
-7
-6
-5
-5
-6
-6
-7
-7
-7
-8
-9
-10
-11
-11
-11
-11
-10
-10
-10
-10
-10
-10
-11
-11
-11
-11
-10
-11
-12
-14
-14
-13
-7
-2
-8
-17
-39
-63
-95
-122
-141
-153
-156
-158
-156
-153
-149
-141
-130
-119
-107
-100
-97
-92
-86
-80
-73
-67
-61
-55
-50
-43
-35
-29
-22
-16
-11
-7
-4
-1
2
6
10
15
19
23
26
27
29
30
31
31
30
30
31
31
31
32
33
33
33
33
33
34
35
36
37
37
38
38
38
38
39
40
41
41
41
41
41
43
43
43
43
42
42
41
41
41
40
39
37
35
33
31
30
29
27
25
23
21
18
16
14
13
13
11
9
7
6
5
5
4
3
2
2
1
0
-1
-1
-1
-1
-1
-2
-2
-3
-3
-2
-2
-1
-1
-2
-2
-2
-2
-2
-2
-2
-2
-1
-1
-2
-2
-1
-1
-1
-1
-1
-2
-3
-3
-2
-2
-1
-2
-3
-3
-3
-3
-2
-2
-3
-3
-3
-4
-4
-3
-3
-2
-2
-1
-1
0
0
0
3
5
5
4
3
2
1
0
-1
-2
-4
-5
-7
-8
-8
-7
-7
-7
-6
-5
-6
-7
-7
-7
-7
-7
-8
-9
-10
-11
-11
-11
-10
-10
-10
-10
-11
-11
-11
-11
-11
-11
-11
-11
-12
-12
-12
-12
-9
-3
0
2
-5
-22
-43
-69
-92
-113
-127
-137
-141
-141
-141
-141
-137
-132
-121
-109
-98
-88
-83
-87
-72
-66
-60
-53
-49
-44
-37
-30
-24
-20
-15
-12
-9
-6
-3
-1
2
5
9
13
18
20
22
23
24
25
25
24
25
26
26
26
26
27
27
27
28
29
30
31
31
32
33
34
35
36
37
37
38
38
38
39
40
40
41
41
42
41
40
40
41
41
40
39
37
35
34
33
31
29
27
25
23
21
19
17
15
14
12
10
8
7
6
5
4
3
2
1
1
0
0
-1
-1
-2
-2
-3
-3
-4
-4
-3
-3
-3
-3
-4
-4
-5
-5
-5
-5
-4
-4
-4
-5
-6
-6
-5
-5
-4
-4
-5
-5
-6
-6
-5
-5
-5
-5
-5
-6
-6
-6
-6
-5
-5
-6
-6
-6
-6
-6
-6
-5
-5
-6
-6
-5
-4
-3
-2
-1
0
1
2
3
3
2
1
-1
-2
-3
-4
-6
-7
-8
-8
-9
-9
-8
-8
-8
-7
-7
-7
-7
-8
-9
-10
-11
-12
-12
-12
-12
-11
-11
-12
-12
-11
-11
-12
-12
-12
-13
-14
-14
-13
-13
-13
-13
-10
-5
-9
-16
-38
-62
-92
-122
-139
-155
-156
-154
-152
-150
-143
-136
-126
-115
-105
-97
-94
-90
-85
-80
-74
-68
-62
-56
-49
-41
-34
-28
-21
-16
-11
-7
-4
-2
1
4
8
13
18
22
25
27
28
29
29
30
30
31
31
32
32
32
32
33
34
34
35
35
36
36
36
37
38
38
39
39
39
39
39
40
41
41
42
42
42
42
42
42
41
41
40
40
38
36
35
35
33
32
30
28
25
22
20
18
17
15
13
11
9
7
6
5
4
3
1
0
-1
-2
-2
-3
-3
-3
-3
-4
-4
-5
-5
-5
-5
-5
-5
-5
-5
-6
-6
-5
-5
-5
-5
-6
-6
-6
-6
-6
-5
-5
-5
-5
-6
-6
-6
-6
-5
-5
-5
-6
-7
-7
-7
-7
-6
-6
-6
-6
-7
-7
-6
-6
-5
-5
-6
-6
-4
-3
-2
-1
0
0
0
0
1
1
-1
0
-4
-5
-7
-9
-10
-12
-11
-10
-10
-11
-11
-11
-11
-11
-10
-9
-11
-12
-13
-14
-15
-16
-15
-14
-14
-15
-15
-15
-15
-15
-15
-15
-15
-16
-16
-17
-17
-16
-16
-16
-14
-11
-8
-22
-37
-66
-95
-124
-149
-157
-163
-160
-158
-155
-150
-141
-130
-118
-108
-102
-97
-93
-89
-84
-78
-73
-67
-62
-55
-47
-40
-33
-27
-22
-17
-12
-9
-6
-3
0
4
7
12
18
21
24
25
27
27
26
27
28
28
29
29
29
29
28
30
31
31
32
32
33
33
34
34
35
36
37
37
38
38
38
38
39
40
41
41
41
41
40
40
40
40
37
36
35
33
32
31
30
29
26
24
22
20
18
16
14
13
11
9
7
5
4
3
2
1
0
-1
-2
-3
-3
-4
-4
-4
-4
-5
-6
-7
-7
-7
-7
-6
-6
-6
-7
-7
-7
-7
-6
-6
-7
-7
-7
-7
-7
-7
-7
-7
-7
-7
-7
-7
-7
-7
-7
-7
-7
-7
-8
-8
-7
-7
-7
-7
-7
-7
-8
-8
-8
-8
-7
-6
-5
-5
-4
-2
-1
0
0
0
0
0
-1
-3
-4
-5
-6
-7
-8
-10
-11
-12
-11
-10
-10
-10
-10
-10
-10
-11
-11
-11
-13
-14
-14
-15
-15
-15
-14
-13
-14
-15
-15
-14
-14
-14
-14
-14
-14
-14
-15
-15
-15
-15
-14
-8
-2
-3
-9
-28
-49
-77
-102
-126
-143
-150
-155
-152
-150
-148
-140
-129
-116
-102
-94
-90
-85
-80
-74
-67
-62
-57
-52
-47
-40
-33
-28
-23
-17
-12
-9
-6
-4
-2
2
5
8
11
15
19
21
23
23
23
23
24
24
25
25
26
26
27
27
27
29
30
30
30
30
31
32
33
33
34
35
36
36
37
37
37
39
39
40
40
40
40
40
40
40
39
38
38
37
35
33
33
33
31
29
27
24
22
20
18
17
15
13
11
9
8
7
6
5
4
3
2
1
0
-1
-1
0
0
-1
-2
-3
-4
-3
-2
-2
-3
-3
-3
-3
-4
-4
-3
-3
-3
-3
-3
-4
-5
-4
-3
-3
-3
-3
-3
-3
-4
-4
-4
-3
-2
-2
-3
-4
-5
-5
-5
-4
-3
-4
-5
-5
-5
-4
-4
-3
-3
-2
-2
-2
-1
1
1
2
4
5
3
2
1
0
0
-1
-3
-5
-7
-8
-8
-9
-8
-7
-7
-7
-7
-7
-7
-8
-7
-7
-8
-10
-11
-12
-11
-11
-10
-10
-11
-11
-12
-12
-12
-12
-11
-11
-12
-12
-13
-13
-12
-12
-12
-8
-4
1
-1
-13
-31
-54
-77
-101
-118
-132
-137
-139
-140
-141
-138
-133
-122
-111
-101
-92
-88
-91
-78
-72
-67
-61
-56
-52
-47
-41
-35
-28
-23
-18
-13
-8
-5
-3
0
3
7
11
15
19
22
24
25
26
26
26
27
28
28
29
29
30
30
30
31
32
33
34
34
35
36
36
37
38
39
39
40
40
41
41
42
42
43
43
44
43
42
42
42
42
41
40
39
37
36
34
33
32
30
27
25
23
21
20
18
16
14
12
10
8
7
5
5
4
3
1
0
-1
-1
-2
-2
-2
-2
-3
-4
-5
-5
-4
-4
-4
-4
-5
-5
-5
-5
-5
-5
-5
-5
-5
-5
-6
-6
-5
-5
-5
-5
-5
-5
-6
-6
-6
-6
-6
-6
-6
-7
-7
-6
-6
-6
-6
-6
-6
-7
-7
-6
-6
-5
-4
-3
-3
-2
0
1
3
4
3
2
0
-1
-2
-3
-3
-5
-6
-8
-10
-11
-10
-9
-9
-9
-8
-7
-8
-8
-8
-8
-9
-10
-11
-12
-14
-13
-12
-12
-12
-12
-12
-12
-12
-12
-13
-13
-12
-12
-13
-13
-14
-14
-13
-11
-8
-5
-10
-18
-35
-55
-81
-107
-128
-147
-152
-155
-155
-152
-148
-143
-133
-122
-111
-101
-96
-91
-86
-81
-75
-69
-64
-59
-53
-46
-38
-31
-26
-21
-16
-12
-8
-5
-2
1
4
9
14
19
24
27
28
29
29
30
30
29
29
30
30
32
32
32
32
32
33
34
36
36
36
36
36
37
38
39
40
40
41
41
41
41
42
42
42
42
43
43
42
42
41
41
40
39
36
34
33
32
30
29
27
25
22
20
18
16
15
13
11
9
7
5
5
4
3
1
0
-1
-2
-3
-3
-3
-3
-3
-3
-4
-4
-5
-5
-5
-5
-5
-5
-5
-5
-6
-6
-5
-5
-4
-4
-5
-5
-6
-5
-5
-4
-4
-5
-5
-6
-6
-5
-5
-4
-5
-6
-6
-7
-6
-5
-5
-5
-5
-6
-6
-7
-7
-6
-4
-3
-3
-2
-2
-1
1
2
2
2
1
-1
-3
-4
-5
-6
-6
-9
-11
-11
-12
-12
-11
-10
-9
-9
-9
-9
-10
-10
-10
-12
-13
-13
-14
-14
-15
-15
-14
-14
-13
-13
-14
-14
-15
-15
-15
-15
-15
-15
-16
-17
-17
-15
-10
-6
-16
-28
-55
-81
-110
-137
-147
-156
-156
-156
-156
-154
-147
-139
-127
-116
-108
-101
-98
-94
-89
-83
-76
-70
-64
-58
-52
-45
-36
-30
-25
-20
-15
-12
-9
-6
-4
0
5
10
15
18
21
23
25
25
26
26
26
26
26
27
28
28
29
29
29
29
29
30
31
32
33
33
33
33
33
34
35
35
36
36
36
36
36
36
37
37
38
38
37
36
35
35
34
34
31
29
27
25
24
23
22
20
17
14
13
11
9
7
6
5
3
2
0
-2
-2
-2
-2
-3
-4
-5
-5
-6
-6
-6
-6
-6
-6
-7
-7
-8
-7
-6
-6
-7
-7
-7
-8
-8
-7
-7
-8
-8
-7
-7
-8
-8
-7
-7
-7
-7
-8
-8
-8
-8
-8
-8
-7
-7
-8
-8
-9
-9
-9
-9
-8
-8
-8
-8
-9
-9
-7
-6
-5
-5
-4
-4
-4
-1
-1
0
0
-1
-3
-5
-6
-7
-7
-8
-10
-12
-12
-13
-12
-11
-11
-10
-10
-11
-11
-12
-12
-11
-11
-12
-13
-14
-15
-16
-16
-15
-15
-14
-14
-14
-14
-14
-14
-14
-14
-14
-15
-15
-16
-16
-16
-10
-5
-1
-2
-20
-41
-66
-90
-111
-128
-137
-143
-143
-143
-143
-141
-133
-121
-107
-98
-92
-86
-80
-73
-66
-60
-55
-51
-48
-42
-35
-29
-24
-19
-15
-12
-9
-7
-5
-2
2
5
8
11
14
17
19
19
20
20
21
21
20
21
22
22
23
23
23
23
23
25
26
26
27
28
29
29
30
31
32
32
33
33
33
33
34
36
36
36
36
36
36
35
35
34
34
33
31
29
28
26
24
23
21
19
17
15
12
11
9
8
7
6
4
2
1
0
-1
-2
-2
-2
-3
-4
-4
-5
-5
-6
-6
-6
-7
-7
-7
-7
-8
-8
-7
-7
-7
-7
-8
-8
-8
-8
-7
-7
-7
-7
-8
-8
-7
-7
-7
-7
-8
-8
-8
-8
-7
-7
-8
-8
-9
-9
-9
-9
-9
-9
-9
-9
-9
-9
-9
-9
-8
-7
-7
-7
-7
-7
-6
-5
-3
-1
-1
-1
-2
-3
-5
-7
-9
-12
-16
-21
-26
-30
-33
-34
-36
-37
-37
-36
-34
-25
-13
-7
-2
-3
-6
-5
-2
-2
-5
-15
-25
-32
-38
-44
-49
-45
-40
-33
-28
-25
-23
-21
-19
-17
-15
-15
-15
-15
-15
-16
-17
-16
-15
-15
-14
-14
-14
-14
-14
-14
-13
-13
-12
-12
-12
-12
-13
-12
-11
-11
-10
-10
-10
-10
-10
-9
-9
-9
-9
-8
-8
-9
-9
-8
-8
-7
-7
-8
-9
-10
-9
-8
-8
-8
-8
-9
-9
-9
-9
-8
-8
-8
-8
-8
-8
-9
-8
-7
-7
-7
-7
-7
-8
-8
-8
-8
-8
-8
-8
-8
-9
-9
-8
-8
-7
-7
-8
-8
-9
-9
-9
-9
-8
-8
-9
-9
-10
-10
-10
-10
-9
-9
-10
-10
-10
-10
-10
-10
-10
-10
-11
-12
-13
-12
-12
-11
-11
-12
-12
-12
-12
-12
-12
-11
-11
-11
-12
-13
-12
-11
-11
-11
-11
-11
-11
-11
-11
-11
-11
-10
-10
-11
-11
-12
-12
-11
-11
-10
-10
-10
-10
-11
-11
-11
-11
-10
-10
-10
-11
-11
-11
-11
-10
-10
-10
-10
-10
-9
-8
-7
-6
-5
-4
-4
-3
0
1
1
0
-1
-3
-5
-6
-6
-6
-7
-9
-10
-11
-11
-12
-12
-11
-10
-9
-9
-10
-10
-10
-11
-12
-13
-13
-14
-14
-15
-15
-14
-14
-13
-13
-14
-14
-15
-15
-14
-14
-14
-14
-15
-16
-16
-13
-10
-6
-13
-26
-48
-72
-100
-129
-143
-154
-155
-154
-152
-151
-143
-134
-121
-109
-102
-95
-93
-90
-84
-78
-72
-66
-62
-58
-51
-44
-35
-28
-22
-17
-13
-9
-7
-4
0
4
9
13
18
21
23
24
24
25
26
27
27
27
27
26
27
28
28
29
30
30
30
31
32
32
33
33
34
34
34
34
35
36
37
37
37
37
37
38
39
39
39
39
38
38
37
37
36
36
34
33
31
30
29
28
26
25
23
21
18
15
14
12
11
10
8
6
4
2
2
1
0
-1
-2
-3
-3
-4
-4
-5
-5
-5
-5
-6
-6
-7
-7
-6
-6
-7
-7
-6
-6
-7
-7
-6
-6
-6
-6
-6
-6
-6
-6
-6
-6
-6
-6
-6
-6
-6
-6
-6
-6
-6
-6
-7
-8
-8
-7
-7
-6
-6
-6
-6
-5
-4
-3
-2
-1
1
2
1
0
-1
-3
-4
-5
-6
-8
-9
-10
-11
-12
-12
-12
-12
-12
-12
-12
-12
-12
-11
-12
-13
-14
-15
-15
-16
-16
-16
-16
-16
-16
-17
-17
-17
-17
-17
-17
-18
-18
-18
-18
-18
-18
-18
-17
-14
-10
-15
-22
-43
-67
-95
-124
-139
-154
-155
-156
-155
-153
-148
-141
-130
-118
-108
-100
-96
-92
-86
-80
-74
-69
-64
-59
-53
-46
-39
-33
-28
-23
-17
-13
-10
-7
-4
-1
3
7
11
15
19
20
20
21
21
22
22
22
23
23
23
23
24
24
25
25
26
26
27
27
28
28
29
29
30
30
31
31
31
32
33
33
33
34
35
35
35
35
34
34
34
33
32
31
30
29
28
28
25
23
21
18
17
15
14
12
10
8
6
4
3
1
1
0
-2
-3
-4
-5
-5
-6
-6
-6
-6
-7
-7
-8
-8
-8
-8
-8
-8
-9
-9
-9
-9
-9
-9
-8
-8
-9
-10
-9
-8
-8
-9
-9
-9
-9
-9
-9
-10
-10
-9
-9
-10
-10
-10
-10
-10
-10
-10
-10
-11
-11
-11
-11
-10
-10
-10
-10
-10
-10
-9
-8
-7
-6
-4
-3
-2
-2
-3
-3
-4
-5
-7
-9
-10
-12
-12
-13
-13
-13
-13
-14
-14
-14
-14
-13
-13
-12
-12
-13
-16
-17
-17
-17
-17
-16
-16
-17
-17
-18
-18
-18
-18
-17
-17
-18
-18
-18
-18
-19
-19
-18
-19
-13
-6
-5
-6
-23
-41
-64
-87
-107
-124
-135
-142
-142
-141
-141
-139
-132
-122
-107
-96
-89
-84
-80
-75
-70
-65
-60
-56
-52
-46
-39
-34
-29
-24
-19
-16
-13
-11
-10
-7
-4
0
4
8
12
13
14
14
14
15
16
16
17
17
18
18
18
18
18
20
21
21
22
22
22
23
24
25
26
26
27
27
28
29
30
30
31
31
32
32
31
33
33
33
32
31
30
29
28
27
26
25
23
21
18
16
14
13
11
10
8
6
4
3
2
1
0
-1
-2
-4
-6
-7
-7
-8
-8
-8
-8
-9
-10
-11
-11
-11
-11
-10
-10
-11
-12
-12
-11
-11
-11
-11
-11
-11
-12
-12
-11
-11
-11
-11
-11
-11
-12
-12
-12
-11
-10
-10
-11
-11
-12
-12
-11
-11
-11
-11
-12
-12
-12
-12
-12
-12
-11
-11
-12
-11
-10
-9
-8
-7
-7
-6
-5
-4
-4
-4
-5
-7
-8
-9
-10
-11
-11
-12
-14
-15
-15
-14
-14
-15
-13
-12
-12
-13
-13
-14
-15
-16
-16
-17
-17
-17
-17
-18
-18
-19
-17
-17
-17
-17
-17
-18
-19
-19
-18
-18
-18
-19
-19
-15
-12
-12
-18
-36
-58
-86
-112
-136
-150
-155
-156
-154
-152
-149
-143
-135
-123
-110
-103
-98
-94
-90
-85
-79
-73
-67
-62
-66
-50
-42
-37
-31
-25
-19
-15
-11
-9
-7
-3
1
6
11
15
18
21
23
23
23
24
25
25
25
25
25
25
25
26
27
28
29
29
29
29
29
30
31
32
33
33
34
34
35
36
36
37
37
37
37
36
36
37
37
36
35
34
33
32
31
30
28
27
25
23
21
19
18
17
15
13
11
9
7
6
5
3
2
1
0
-2
-3
-4
-4
-4
-5
-5
-6
-7
-8
-8
-7
-7
-7
-7
-8
-8
-9
-9
-8
-8
-7
-7
-8
-8
-9
-9
-8
-8
-8
-8
-8
-8
-8
-8
-8
-8
-8
-8
-8
-8
-9
-9
-8
-8
-8
-8
-8
-9
-9
-9
-9
-8
-8
-7
-7
-6
-5
-3
-2
-1
-1
0
0
1
-1
-2
-4
-5
-5
-7
-9
-11
-12
-13
-12
-11
-11
-12
-12
-11
-11
-11
-11
-10
-11
-13
-15
-15
-16
-16
-15
-15
-15
-15
-16
-16
-15
-15
-15
-15
-15
-16
-17
-17
-17
-17
-15
-11
-9
-9
-20
-37
-63
-92
-118
-141
-151
-156
-156
-154
-151
-149
-140
-131
-119
-107
-101
-95
-90
-85
-80
-75
-70
-65
-58
-52
-44
-36
-30
-24
-20
-15
-11
-7
-5
-2
2
5
10
14
18
21
23
24
24
24
24
25
25
26
27
28
28
28
28
28
28
29
29
31
32
32
32
33
34
35
36
36
36
36
37
37
38
38
39
39
38
38
37
37
37
36
35
35
34
32
30
29
27
26
24
22
19
16
14
13
12
11
9
7
4
2
1
0
0
-1
-2
-3
-4
-5
-5
-5
-5
-6
-6
-7
-7
-8
-8
-7
-7
-7
-7
-7
-8
-9
-9
-8
-8
-7
-7
-7
-7
-8
-8
-8
-8
-7
-7
-8
-8
-9
-8
-8
-8
-8
-8
-8
-9
-9
-10
-10
-9
-9
-9
-9
-10
-8
-7
-7
-6
-5
-4
-4
-3
-2
-1
-1
-2
-4
-5
-6
-7
-8
-9
-10
-12
-13
-14
-14
-13
-13
-13
-13
-12
-13
-13
-13
-13
-14
-15
-16
-16
-17
-17
-17
-17
-18
-17
-16
-16
-17
-17
-18
-18
-17
-17
-18
-18
-18
-19
-18
-14
-10
-6
-13
-27
-53
-83
-108
-133
-143
-152
-153
-153
-152
-151
-141
-131
-118
-105
-98
-92
-89
-86
-81
-75
-68
-62
-57
-53
-48
-42
-35
-29
-23
-19
-15
-12
-10
-8
-6
-3
2
6
9
11
14
16
17
18
18
19
19
19
18
18
20
20
21
21
21
21
22
23
24
24
25
25
26
26
26
27
28
29
30
30
30
30
31
31
32
32
33
33
32
31
30
30
31
30
28
27
25
23
22
21
19
20
15
13
11
8
7
6
4
2
2
1
-2
-5
-5
-4
-6
-7
-7
-8
-8
-9
-10
-11
-11
-10
-10
-11
-11
-12
-12
-12
-12
-11
-11
-12
-12
-12
-12
-12
-12
-11
-11
-12
-12
-12
-12
-12
-12
-12
-11
-12
-13
-13
-12
-12
-12
-12
-13
-13
-14
-14
-13
-13
-13
-13
-13
-13
-13
-13
-13
-11
-10
-10
-9
-9
-7
-6
-5
-5
-6
-8
-9
-10
-11
-12
-13
-15
-15
-16
-16
-17
-17
-16
-16
-15
-15
-16
-16
-17
-17
-17
-18
-19
-19
-20
-20
-20
-20
-20
-20
-20
-20
-20
-20
-21
-21
-20
-20
-20
-21
-22
-22
-18
-13
-9
-12
-15
-27
-49
-71
-91
-110
-124
-135
-139
-142
-144
-145
-140
-132
-119
-108
-100
-93
-90
-86
-79
-73
-67
-63
-60
-56
-50
-44
-38
-33
-29
-24
-20
-18
-17
-13
-10
-6
-3
1
5
8
10
11
13
14
15
15
15
15
15
16
17
18
19
19
20
20
19
20
21
22
23
23
24
24
25
25
26
28
29
29
29
29
29
29
29
29
30
30
28
27
26
26
25
24
23
21
19
17
16
15
13
11
10
8
6
4
2
1
-1
-2
-4
-5
-7
-8
-9
-10
-10
-11
-11
-12
-13
-14
-14
-15
-15
-15
-15
-15
-15
-16
-16
-15
-15
-15
-15
-15
-16
-16
-15
-15
-15
-15
-15
-15
-16
-16
-15
-15
-15
-15
-15
-15
-16
-16
-16
-16
-15
-15
-15
-16
-17
-17
-16
-16
-15
-15
-15
-15
-15
-14
-13
-12
-11
-10
-8
-7
-7
-7
-8
-9
-10
-12
-13
-14
-15
-16
-17
-19
-19
-19
-19
-19
-17
-16
-16
-16
-17
-18
-19
-20
-20
-20
-20
-21
-21
-21
-21
-21
-21
-21
-21
-21
-21
-21
-22
-23
-21
-21
-21
-21
-22
-20
-18
-15
-14
-24
-39
-63
-88
-117
-140
-150
-157
-156
-155
-153
-150
-145
-136
-124
-114
-104
-99
-96
-92
-88
-81
-74
-69
-64
-58
-51
-45
-38
-32
-27
-22
-26
-14
-11
-9
-6
-1
4
9
14
17
20
20
21
21
22
22
23
23
23
23
24
24
25
26
27
27
28
28
29
29
30
30
31
31
31
31
32
33
34
34
35
35
35
35
35
35
35
34
34
33
32
30
30
29
28
26
24
23
21
19
17
16
14
11
9
7
5
4
3
2
0
-2
-3
-4
-5
-6
-6
-6
-6
-7
-7
-8
-9
-10
-9
-9
-9
-9
-10
-10
-10
-10
-10
-10
-9
-10
-11
-11
-11
-11
-10
-10
-9
-9
-10
-10
-10
-10
-10
-10
-9
-9
-10
-10
-11
-11
-10
-10
-10
-10
-11
-11
-10
-10
-10
-10
-10
-9
-9
-8
-7
-6
-5
-4
-3
-1
-1
-1
-2
-3
-5
-7
-7
-8
-10
-11
-12
-13
-13
-13
-13
-13
-13
-12
-12
-12
-12
-11
-12
-14
-15
-16
-16
-17
-17
-16
-16
-16
-17
-17
-16
-16
-16
-16
-17
-17
-18
-18
-18
-18
-17
-17
-15
-12
-12
-21
-36
-60
-87
-116
-136
-149
-154
-154
-153
-151
-146
-140
-131
-121
-111
-101
-97
-93
-88
-82
-77
-72
-67
-61
-54
-47
-40
-33
-28
-23
-18
-14
-10
-7
-4
-1
3
7
12
17
21
24
24
25
25
25
25
26
26
27
27
27
27
27
28
29
29
30
30
31
31
31
32
33
33
35
35
35
35
36
37
37
38
38
38
37
36
36
37
37
36
35
34
33
32
30
29
28
27
25
23
20
18
17
15
14
12
10
8
6
5
5
4
3
1
0
-2
-3
-3
-4
-4
-4
-5
-6
-6
-5
-5
-5
-5
-6
-6
-5
-5
-5
-5
-6
-6
-5
-5
-5
-5
-6
-6
-5
-5
-5
-5
-4
-4
-5
-5
-5
-5
-5
-5
-4
-5
-6
-5
-5
-4
-5
-6
-6
-6
-6
-6
-6
-5
-5
-4
-4
-3
-2
-1
0
1
1
2
2
3
1
0
-1
-2
-3
-5
-7
-8
-9
-9
-8
-7
-7
-8
-8
-7
-7
-8
-8
-7
-8
-9
-11
-11
-11
-11
-11
-11
-11
-11
-11
-11
-11
-11
-11
-11
-12
-12
-12
-12
-12
-12
-11
-8
-4
2
-3
-13
-35
-61
-86
-111
-124
-135
-137
-137
-138
-138
-133
-129
-116
-104
-94
-84
-81
-77
-72
-66
-60
-54
-50
-45
-39
-33
-26
-21
-18
-13
-8
-5
-3
-1
1
3
6
10
14
17
21
22
23
24
24
25
25
26
26
27
27
27
27
28
29
30
32
32
33
33
33
34
35
36
37
37
37
37
38
38
39
40
41
41
42
42
41
41
41
41
41
40
38
37
36
35
33
32
30
28
26
24
22
20
18
19
14
13
11
9
9
8
7
6
6
5
4
3
3
3
3
2
1
0
0
0
0
0
0
0
0
0
0
0
0
0
0
0
0
0
0
-1
-1
0
0
0
0
0
0
0
0
0
0
0
0
0
-1
-1
0
0
0
0
-1
-1
-1
-1
-1
-1
-1
-1
0
0
1
1
1
3
4
5
6
6
6
6
6
5
4
3
1
0
-1
-3
-3
-3
-3
-3
-3
-3
-3
-3
-3
-2
-2
-3
-4
-6
-6
-6
-6
-6
-6
-6
-6
-7
-7
-6
-6
-6
-6
-6
-7
-8
-8
-7
-7
-7
-7
-4
0
1
1
-15
2
-61
-89
-110
-130
-135
-139
-137
-135
-133
-130
-121
-112
-100
-91
-85
-80
-76
-71
-65
-60
-53
-48
-44
-38
-30
-24
-18
-13
-8
-4
0
3
5
8
11
15
20
25
29
31
32
33
34
34
35
36
37
37
37
37
37
38
39
40
41
41
42
42
43
43
44
45
46
46
47
47
46
47
48
48
49
49
49
49
48
48
48
48
47
46
44
42
41
40
39
37
35
33
31
28
27
25
23
21
20
18
16
14
14
13
12
11
9
8
7
6
6
5
5
4
4
3
3
2
2
1
2
3
3
2
2
2
2
2
2
2
2
2
2
2
3
3
2
2
3
3
2
2
3
3
3
3
2
2
1
1
2
2
3
3
2
2
1
1
2
2
3
3
4
4
5
7
8
8
9
10
10
9
8
7
6
5
4
3
1
-1
-1
-2
-2
-1
-1
-1
0
1
0
-1
-1
0
-1
-2
-3
-4
-4
-5
-4
-3
-3
-4
-4
-5
-5
-4
-4
-4
-4
-4
-5
-6
-5
-5
-5
-2
1
1
0
-13
-28
-53
-78
-105
-128
-138
-146
-143
-141
-139
-134
-126
-116
-106
-96
-88
-83
-80
-75
-70
-64
-58
-53
-48
-40
-32
-25
-18
-13
-8
-4
0
3
1
9
12
16
20
25
29
32
35
35
36
36
36
36
37
38
39
39
39
39
39
40
41
42
43
43
44
44
44
45
46
46
47
47
48
48
48
49
50
50
51
51
50
49
49
49
49
48
47
46
45
43
42
41
40
38
36
34
32
30
28
26
24
22
20
18
16
15
14
13
13
12
11
10
9
8
8
7
7
7
7
6
6
5
5
5
5
5
5
5
4
4
4
4
5
5
4
4
4
4
4
4
5
5
5
5
4
4
5
5
5
5
4
4
3
3
4
4
4
4
4
4
3
3
4
4
5
7
7
7
8
10
11
12
12
13
12
11
9
7
7
7
5
4
2
1
0
-1
0
1
1
1
1
1
1
1
1
1
0
-2
-3
-4
-4
-3
-3
-2
-2
-2
-3
-3
-3
-3
-3
-3
-4
-4
-5
-5
-5
-5
-4
1
4
5
-1
-18
-41
-70
-95
-117
-131
-138
-142
-141
-139
-137
-129
-119
-107
-94
-87
-81
-76
-71
-66
-60
-55
-50
-45
-40
-33
-25
-20
-14
-9
-5
-1
3
6
8
11
15
19
23
26
28
30
32
33
34
34
33
33
33
34
35
35
36
35
35
37
38
38
39
39
39
39
39
40
41
41
43
44
44
44
45
46
46
47
47
46
46
47
47
46
46
46
45
44
42
41
40
39
38
37
35
33
30
27
26
24
23
21
19
17
15
14
13
12
12
11
10
8
7
7
7
7
6
6
6
5
3
4
5
5
5
5
4
4
3
3
3
4
5
4
3
3
3
3
3
3
4
4
3
3
2
2
1
2
3
3
3
2
1
3
3
2
2
2
2
2
2
2
2
1
1
2
2
2
4
5
6
7
7
8
8
9
9
8
6
5
4
2
0
-1
-1
-2
-2
-3
-3
-2
-2
-3
-3
-2
-2
-2
-3
-4
-6
-6
-6
-6
-6
-6
-6
-6
-7
-7
-7
-7
-6
-6
-7
-8
-9
-9
-8
-8
-7
-7
-4
2
5
5
-9
-29
-51
-75
-95
-114
-122
-129
-130
-130
-131
-131
-122
-114
-101
-88
-84
-79
-74
-69
-63
-58
-53
-48
-44
-40
-33
-28
-23
-17
-12
-8
-5
-2
0
2
4
8
13
17
20
23
24
25
25
26
26
27
28
29
29
29
29
29
31
32
33
33
34
34
35
35
36
37
38
38
39
39
39
40
41
41
42
42
43
42
41
41
42
42
41
40
38
37
36
35
33
32
30
29
27
25
23
22
20
21
16
14
12
10
9
7
6
5
4
2
1
0
0
-1
-1
-2
-2
-3
-4
-5
-5
-4
-4
-4
-4
-5
-5
-6
-6
-6
-6
-5
-5
-6
-6
-6
-6
-6
-6
-6
-6
-7
-8
-7
-6
-6
-7
-7
-7
-7
-8
-8
-7
-7
-7
-7
-7
-7
-8
-8
-8
-8
-8
-8
-8
-8
-7
-5
-4
-4
-3
-2
-1
0
1
0
-2
-3
-4
-5
-7
-8
-9
-10
-11
-13
-12
-11
-12
-13
-12
-10
-10
-11
-11
-11
-13
-15
-15
-15
-15
-16
-16
-16
-16
-16
-16
-15
-15
-15
-15
-16
-16
-17
-17
-17
-17
-17
-17
-14
-9
-12
-16
-33
-17
-77
-103
-126
-147
-152
-156
-154
-151
-147
-142
-133
-123
-110
-100
-97
-93
-89
-84
-79
-74
-67
-62
-58
-52
-45
-39
-33
-27
-21
-17
-13
-11
-8
-5
-3
2
8
13
17
19
21
22
23
23
24
24
24
24
25
25
24
25
26
27
28
28
28
28
29
30
31
31
32
32
32
32
33
33
34
34
35
35
35
35
35
35
35
35
34
33
32
31
30
28
27
26
24
22
20
17
16
14
13
11
8
6
4
2
1
0
-2
-3
-5
-6
-7
-8
-8
-9
-9
-10
-10
-11
-11
-12
-12
-12
-12
-11
-11
-12
-12
-13
-13
-13
-13
-12
-13
-13
-14
-13
-12
-12
-12
-12
-12
-12
-13
-13
-13
-13
-12
-12
-13
-13
-14
-14
-14
-14
-14
-14
-14
-14
-15
-15
-15
-15
-15
-15
-14
-14
-13
-12
-11
-10
-9
-9
-8
-7
-7
-6
-8
-10
-11
-13
-14
-15
-16
-18
-19
-20
-20
-19
-19
-20
-19
-18
-18
-18
-18
-19
-21
-22
-22
-23
-23
-23
-23
-23
-23
-23
-23
-23
-23
-23
-23
-24
-24
-25
-25
-25
-25
-25
-26
-22
-18
-19
-23
-43
-64
-92
-118
-139
-155
-160
-163
-161
-159
-157
-153
-146
-136
-123
-114
-107
-102
-98
-94
-90
-84
-77
-72
-67
-60
-53
-47
-41
-35
-30
-26
-29
-19
-16
-14
-11
-6
-1
5
10
12
14
14
14
14
15
15
16
16
17
17
16
17
18
19
20
20
20
20
21
22
23
23
24
24
24
24
24
25
26
26
27
27
27
27
27
26
26
26
25
24
23
21
21
20
19
18
16
14
11
9
8
7
5
2
0
-2
-4
-6
-6
-7
-9
-10
-11
-13
-15
-16
-16
-16
-16
-16
-17
-18
-19
-20
-19
-19
-19
-19
-19
-19
-20
-20
-19
-19
-19
-19
-20
-21
-22
-21
-20
-20
-19
-19
-20
-20
-20
-20
-20
-20
-19
-19
-20
-20
-21
-21
-21
-21
-20
-20
-21
-21
-22
-22
-22
-22
-21
-21
-21
-22
-21
-19
-18
-17
-17
-17
-17
-16
-15
-13
-13
-12
-14
-16
-18
-19
-20
-21
-21
-22
-24
-25
-25
-24
-24
-24
-23
-22
-22
-23
-23
-24
-24
-25
-26
-27
-27
-27
-28
-28
-27
-27
-27
-27
-28
-28
-29
-29
-28
-28
-28
-28
-29
-29
-27
-20
-16
-14
-19
-35
-56
-81
-103
-123
-137
-146
-150
-151
-152
-152
-147
-141
-128
-115
-106
-98
-95
-92
-86
-79
-74
-68
-65
-61
-55
-49
-43
-38
-33
-29
-26
-24
-23
-21
-18
-15
-11
-7
-3
-1
2
3
5
6
6
7
7
8
8
8
8
9
10
11
11
11
11
12
13
14
14
15
16
16
16
17
19
20
21
21
21
21
21
21
22
23
24
23
22
22
21
21
20
20
19
17
16
14
12
10
8
7
5
2
0
-2
-3
-4
-6
-7
-8
-9
-11
-13
-14
-15
-16
-17
-17
-17
-18
-19
-19
-19
-19
-19
-19
-19
-20
-21
-21
-21
-21
-20
-20
-21
-21
-21
-21
-22
-22
-21
-21
-21
-21
-21
-21
-21
-21
-21
-21
-21
-21
-22
-21
-21
-21
-21
-21
-21
-21
-21
-21
-21
-22
-23
-26
-29
-32
-35
-38
-40
-42
-42
-43
-43
-39
-33
-23
-10
-3
0
0
-3
-2
2
-1
-6
-15
-25
-29
-31
-36
-41
-42
-42
-39
-35
-34
-32
-29
-26
-27
-28
-29
-31
-31
-32
-32
-31
-31
-30
-30
-30
-30
-31
-31
-30
-30
-29
-29
-30
-30
-30
-30
-29
-29
-28
-28
-27
-27
-28
-28
-27
-27
-26
-26
-26
-27
-27
-26
-26
-26
-26
-26
-26
-27
-27
-26
-26
-26
-26
-26
-26
-26
-26
-25
-25
-24
-24
-23
-23
-23
-23
-22
-21
-20
-20
-20
-20
-19
-19
-18
-18
-17
-17
-17
-17
-18
-17
-17
-17
-17
-17
-17
-18
-18
-17
-17
-17
-17
-18
-18
-19
-19
-18
-18
-18
-18
-18
-18
-19
-19
-18
-18
-19
-19
-19
-19
-20
-20
-19
-19
-18
-18
-19
-19
-19
-19
-18
-18
-18
-18
-18
-19
-18
-17
-17
-17
-17
-18
-18
-18
-18
-17
-17
-17
-17
-17
-17
-17
-17
-17
-17
-16
-16
-16
-16
-17
-17
-16
-16
-16
-16
-16
-16
-17
-17
-16
-16
-15
-15
-16
-16
-16
-16
-16
-16
-16
-16
-16
-17
-17
-16
-16
-15
-15
-16
-16
-16
-16
-16
-15
-14
-14
-15
-15
-16
-16
-15
-15
-14
-13
-12
-12
-10
-9
-8
-7
-6
-5
-4
-5
-7
-9
-9
-10
-11
-12
-13
-15
-16
-17
-16
-14
-14
-14
-14
-14
-14
-15
-15
-14
-15
-16
-18
-19
-19
-18
-18
-18
-18
-18
-18
-19
-19
-18
-18
-18
-18
-19
-19
-20
-20
-18
-20
-12
-9
-24
-40
-66
-91
-117
-139
-148
-155
-154
-153
-152
-148
-142
-133
-121
-110
-103
-98
-94
-90
-84
-78
-72
-67
-62
-56
-49
-41
-34
-29
-24
-20
-16
-13
-10
-6
-3
2
6
11
15
18
21
22
23
23
23
23
23
23
24
24
25
25
25
25
25
26
27
27
28
28
28
28
28
29
30
30
31
31
32
32
33
33
34
34
34
34
34
34
33
35
35
34
33
32
31
30
30
29
28
26
25
24
21
19
18
17
15
14
12
10
7
6
6
5
4
2
0
-1
-2
-3
-3
-4
-4
-4
-4
-5
-5
-5
-5
-6
-6
-5
-6
-6
-7
-7
-6
-6
-6
-6
-6
-6
-5
-5
-5
-5
-5
-5
-5
-5
-6
-6
-5
-5
-5
-5
-5
-6
-7
-7
-6
-6
-5
-5
-6
-7
-8
-8
-7
-6
-5
-5
-4
-4
-3
-2
-1
1
1
0
-3
-5
-6
-7
-7
-8
-10
-12
-13
-14
-14
-13
-13
-13
-13
-12
-12
-13
-13
-12
-13
-14
-15
-16
-17
-18
-18
-17
-17
-16
-16
-16
-16
-17
-17
-17
-17
-17
-17
-18
-19
-19
-19
-15
-10
-6
-6
-22
-43
-72
-99
-122
-139
-146
-150
-150
-150
-149
-143
-134
-122
-110
-101
-95
-90
-86
-80
-74
-68
-61
-57
-52
-45
-37
-31
-36
-20
-15
-13
-10
-8
-6
-2
2
6
10
13
16
17
18
20
22
22
21
21
21
21
22
22
23
23
24
24
25
25
25
26
27
27
28
28
29
30
31
31
32
32
33
34
34
34
35
36
35
34
34
33
33
34
33
32
31
30
28
26
24
23
21
20
18
16
13
11
10
9
8
6
3
2
2
1
0
-1
-2
-3
-3
-4
-5
-6
-5
-5
-6
-6
-7
-7
-7
-7
-7
-7
-7
-7
-7
-8
-9
-8
-7
-7
-8
-8
-8
-8
-9
-9
-8
-8
-8
-8
-9
-9
-8
-8
-9
-9
-8
-8
-9
-9
-10
-10
-9
-9
-10
-10
-10
-10
-9
-8
-8
-7
-7
-6
-6
-7
-4
-2
-2
-1
-1
-2
-4
-5
-6
-7
-7
-9
-11
-12
-12
-13
-12
-11
-11
-11
-11
-12
-12
-13
-12
-12
-13
-14
-15
-16
-17
-16
-15
-15
-15
-15
-16
-16
-17
-17
-17
-17
-16
-16
-16
-16
-16
-16
-14
-8
-4
-4
-12
-30
-51
-73
-93
-112
-124
-133
-136
-136
-137
-137
-132
-124
-111
-98
-91
-86
-81
-76
-71
-65
-60
-55
-52
-47
-40
-33
-28
-23
-19
-15
-14
-12
-10
-7
-4
-1
3
6
10
12
14
15
16
17
17
17
17
16
17
18
18
19
19
20
20
21
22
23
23
24
25
25
26
27
28
29
30
30
31
31
32
32
33
33
34
34
34
33
32
32
32
32
31
29
27
25
23
22
21
20
18
15
13
11
9
7
6
5
3
2
0
-1
-2
-3
-3
-4
-5
-6
-7
-8
-8
-8
-8
-8
-8
-9
-9
-9
-9
-9
-9
-9
-9
-9
-9
-10
-10
-9
-9
-8
-8
-9
-9
-10
-10
-9
-9
-9
-9
-9
-9
-10
-9
-9
-9
-9
-9
-9
-10
-10
-10
-10
-9
-9
-10
-10
-10
-10
-9
-8
-7
-6
-5
-5
-4
-2
-1
-1
0
-1
-3
-6
-7
-7
-7
-8
-10
-11
-12
-12
-13
-13
-12
-12
-11
-11
-11
-12
-12
-11
-12
-14
-14
-15
-15
-15
-15
-14
-14
-14
-14
-14
-14
-15
-15
-14
-14
-14
-14
-15
-15
-15
-12
-9
-6
-15
-29
-51
-77
-102
-127
-139
-149
-150
-149
-147
-146
-139
-131
-119
-108
-100
-93
-91
-88
-83
-77
-71
-65
-61
-56
-51
-44
-36
-29
-23
-17
-12
-8
-6
-3
0
4
8
13
18
22
25
26
27
28
28
29
29
29
29
29
31
31
32
32
33
33
33
33
34
35
36
36
37
37
37
38
39
40
41
41
41
41
41
41
42
42
43
43
41
40
39
39
39
38
37
36
34
32
30
29
27
28
23
20
18
16
15
14
12
10
9
7
6
5
4
3
3
2
1
0
-1
-2
-2
-1
-1
-1
-1
-1
-2
-3
-3
-2
-2
-2
-2
-2
-2
-2
-2
-2
-2
-1
-1
-1
-2
-2
-2
-2
-1
-1
-2
-2
-3
-3
-2
-2
-1
-1
-1
-1
-2
-2
-2
-2
-1
-1
-1
-1
1
3
4
4
5
6
7
7
7
6
4
3
2
1
-1
-2
-3
-5
-5
-4
-4
-5
-5
-4
-6
-8
-11
-15
-20
-25
-30
-34
-35
-35
-32
-27
-18
-10
-3
1
1
-1
-4
-7
-9
-15
-23
-33
-44
-47
-48
-43
-35
-27
-20
-16
-12
-9
-11
-4
-1
-2
-3
-3
-2
-2
-2
-2
-2
-2
-2
-2
-1
-1
0
0
0
0
-1
-1
0
0
1
1
1
1
1
1
2
2
2
2
1
1
1
1
1
1
1
1
0
-1
-1
-1
-1
-1
-1
-2
-2
-3
-3
-3
-3
-3
-3
-3
-3
-3
-3
-2
-2
-2
-2
-1
-1
-1
1
2
3
4
4
4
4
5
5
6
6
6
6
6
6
6
7
7
7
7
6
6
7
7
6
6
6
6
6
6
6
6
6
6
6
6
6
5
4
5
6
6
6
6
6
6
5
5
5
5
6
6
6
5
4
5
6
6
6
6
6
5
5
5
6
7
6
5
5
6
6
6
6
6
6
7
5
4
6
7
7
8
8
7
7
6
7
8
9
10
11
12
12
12
13
14
15
16
16
15
12
12
11
11
10
9
7
6
4
5
7
7
7
7
7
7
6
6
7
7
6
5
4
3
2
2
2
3
4
3
2
2
2
2
3
3
3
3
2
2
1
2
7
13
15
16
-4
-24
-50
-73
-92
-108
-116
-123
-123
-124
-124
-121
-114
-103
-89
-79
-72
-67
-62
-57
-51
-45
-39
-36
-33
-27
-18
-12
-7
-2
3
5
6
9
11
14
12
22
26
29
32
34
36
36
37
37
37
37
37
37
38
39
40
40
40
40
40
42
43
43
44
45
46
46
47
48
49
49
50
51
52
52
52
53
54
54
55
55
54
53
53
53
53
52
51
50
48
46
45
43
42
40
37
35
33
32
30
29
27
25
23
22
20
19
19
18
18
16
15
14
13
12
12
12
12
12
12
11
11
10
10
10
10
10
10
10
9
9
10
10
10
10
10
9
8
8
9
9
10
10
9
9
8
8
9
9
9
9
9
9
8
8
9
9
10
10
9
9
9
10
11
11
13
14
14
15
16
17
17
17
14
12
11
9
9
8
6
5
5
4
4
4
4
5
5
6
6
6
5
4
4
3
3
2
2
1
1
0
0
0
0
1
1
0
0
0
1
1
0
0
0
0
1
6
9
1
-11
-33
-58
-88
-112
-128
-137
-136
-135
-134
-131
-126
-117
-106
-95
-86
-80
-76
-72
-68
-61
-54
-49
-44
-38
-32
-25
-19
-12
-5
0
6
8
10
12
14
19
24
29
33
37
40
40
41
42
43
43
43
44
45
45
44
45
46
47
48
48
48
48
48
48
50
51
52
52
52
52
52
53
54
54
55
56
56
55
55
55
55
55
55
54
52
50
50
49
48
47
45
43
41
39
36
35
33
31
29
27
25
23
22
21
21
19
17
16
15
14
14
13
13
13
12
11
10
10
10
10
11
11
10
9
8
9
10
10
10
9
8
8
9
9
9
9
10
10
9
9
8
8
9
9
9
9
8
8
8
8
8
8
9
9
8
8
8
10
11
13
13
14
15
16
17
18
18
18
15
13
12
10
10
10
9
8
6
5
5
5
5
5
6
7
7
6
5
4
4
4
3
2
2
1
1
1
1
1
1
1
0
0
0
0
0
0
0
0
-1
-1
0
6
9
5
-5
-25
-48
-77
-101
-122
-134
-139
-142
-140
-138
-135
-128
-119
-107
-94
-87
-82
-78
-74
-68
-62
-56
-50
-46
-42
-34
-26
-20
-13
-7
-1
3
7
8
10
14
19
25
31
35
38
40
42
42
43
43
44
44
44
44
44
45
46
46
47
47
47
47
48
48
49
50
51
51
52
52
52
54
54
54
54
55
55
55
55
55
55
55
55
54
53
52
51
50
48
47
45
44
41
40
38
37
35
33
31
29
26
25
24
22
21
19
18
16
14
13
13
12
12
10
9
9
8
8
9
9
8
8
8
7
6
7
8
8
8
8
8
8
7
7
8
8
8
8
8
8
7
7
8
8
8
8
8
7
6
7
8
8
8
8
7
7
7
6
7
9
10
11
11
11
11
12
13
15
15
15
13
12
10
9
9
8
7
5
3
2
2
1
1
2
3
4
4
3
3
3
3
1
0
-1
-2
-3
-2
-2
-2
-2
-2
-3
-4
-3
-2
-2
-2
-2
-3
-3
-4
-5
-5
-3
1
6
4
-7
-28
-56
-84
-112
-130
-141
-145
-145
-145
-144
-138
-131
-119
-105
-96
-87
-83
-80
-74
-79
-62
-56
-52
-47
-40
-33
-25
-17
-11
-6
-2
1
4
7
10
14
17
21
25
28
30
32
32
33
33
33
33
33
34
35
35
36
36
35
35
35
36
37
38
39
39
40
40
40
41
42
43
43
43
43
44
44
45
45
46
46
46
46
45
45
44
43
42
41
40
38
37
36
35
33
30
27
25
23
21
20
18
17
15
14
12
10
9
8
7
6
6
5
4
3
3
2
2
2
1
0
0
0
0
0
0
0
0
0
0
-1
-1
0
0
0
0
0
-1
-2
-2
-2
-2
-1
-1
-1
-1
-2
-2
-2
-2
-2
-3
-3
-4
-4
-3
-3
-2
-2
-3
-3
-4
-3
-1
0
1
1
1
1
2
3
4
4
3
1
0
-2
-3
-3
-5
-6
-7
-7
-8
-8
-9
-8
-7
-7
-8
-8
-8
-9
-10
-11
-11
-12
-12
-12
-12
-13
-13
-12
-12
-13
-13
-13
-13
-14
-14
-13
-13
-13
-14
-15
-15
-10
-2
0
-3
-19
-42
-66
-91
-111
-128
-135
-139
-140
-140
-138
-135
-121
-107
-97
-87
-84
-80
-75
-71
-64
-59
-55
-50
-45
-40
-34
-29
-23
-18
-14
-11
-9
-7
-5
-2
2
6
9
12
15
17
17
18
19
20
20
20
20
21
21
21
21
22
22
24
25
25
25
26
27
28
29
29
30
30
30
31
32
33
34
34
34
34
34
34
35
35
35
34
33
32
31
30
29
28
26
24
22
20
18
16
15
14
11
9
6
3
2
1
0
-1
-2
-4
-5
-7
-7
-8
-8
-9
-10
-11
-11
-12
-12
-12
-12
-12
-12
-13
-13
-14
-14
-13
-13
-13
-13
-14
-14
-14
-14
-14
-14
-13
-13
-13
-13
-14
-14
-14
-14
-14
-14
-14
-15
-15
-15
-15
-15
-15
-15
-15
-16
-16
-15
-15
-14
-14
-13
-13
-13
-12
-11
-9
-8
-8
-7
-7
-9
-10
-11
-12
-13
-13
-16
-18
-19
-20
-21
-21
-20
-20
-20
-20
-20
-19
-19
-19
-20
-21
-23
-25
-25
-24
-24
-24
-24
-24
-24
-25
-25
-25
-25
-24
-24
-25
-25
-26
-26
-26
-26
-23
-18
-21
-26
-43
-63
-91
-120
-139
-158
-161
-164
-162
-160
-157
-152
-143
-133
-122
-112
-108
-103
-99
-94
-89
-84
-79
-74
-69
-63
-55
-47
-41
-36
-31
-26
-23
-20
-16
-13
-9
-4
0
5
10
12
13
14
14
15
15
15
16
16
17
17
17
17
17
18
20
20
21
21
21
21
21
22
23
23
24
24
25
25
24
25
26
26
27
27
26
26
25
25
25
25
24
23
21
19
18
17
16
16
12
9
7
4
3
2
1
-1
-4
-6
-8
-10
-11
-12
-13
-14
-15
-16
-17
-18
-18
-18
-18
-18
-19
-20
-20
-21
-21
-20
-20
-20
-20
-20
-20
-21
-21
-21
-21
-21
-21
-21
-22
-22
-21
-21
-21
-21
-22
-22
-22
-22
-22
-22
-22
-22
-22
-22
-23
-23
-22
-22
-22
-22
-23
-23
-24
-22
-21
-20
-19
-19
-18
-18
-17
-16
-15
-15
-17
-19
-20
-21
-22
-24
-25
-26
-27
-28
-28
-28
-28
-28
-27
-26
-26
-26
-26
-27
-28
-29
-29
-30
-30
-31
-31
-31
-31
-31
-31
-31
-31
-31
-32
-33
-33
-32
-32
-32
-32
-33
-33
-29
-24
-28
-23
-57
-80
-111
-141
-155
-168
-169
-170
-169
-167
-163
-156
-146
-135
-124
-116
-113
-110
-106
-100
-93
-87
-81
-75
-70
-63
-56
-49
-43
-38
-32
-28
-25
-23
-22
-17
-12
-7
-2
2
6
8
9
9
10
10
11
11
11
11
11
12
13
14
15
15
15
15
16
16
17
18
19
19
19
19
19
21
22
22
22
22
23
23
22
22
22
22
22
21
20
19
18
16
15
14
12
10
8
6
4
2
0
-2
-4
-6
-8
-10
-12
-13
-14
-15
-17
-19
-20
-21
-21
-21
-22
-23
-23
-24
-25
-26
-26
-25
-25
-24
-24
-25
-25
-26
-26
-25
-25
-25
-26
-26
-26
-26
-26
-26
-25
-25
-26
-26
-26
-26
-25
-25
-25
-25
-25
-26
-27
-27
-26
-26
-26
-26
-25
-25
-26
-26
-25
-25
-24
-23
-22
-22
-21
-20
-19
-18
-17
-17
-18
-19
-20
-21
-22
-23
-25
-27
-28
-29
-29
-30
-29
-28
-28
-27
-28
-29
-29
-28
-28
-28
-30
-31
-32
-33
-33
-32
-32
-31
-32
-33
-33
-33
-33
-32
-32
-33
-33
-33
-33
-34
-34
-34
-33
-25
-18
-21
-28
-52
-76
-103
-127
-143
-156
-161
-165
-163
-161
-158
-150
-139
-127
-117
-109
-105
-100
-95
-89
-84
-79
-75
-71
-66
-60
-52
-46
-39
-35
-32
-28
-25
-23
-24
-17
-14
-10
-6
-3
0
2
4
4
5
5
4
4
5
6
7
7
7
7
7
8
9
10
11
11
11
11
12
13
14
15
16
16
17
17
17
18
19
19
20
20
20
19
19
19
19
18
17
16
15
13
12
11
10
8
6
4
1
-1
-3
-4
-6
-8
-10
-12
-14
-15
-15
-16
-16
-17
-18
-20
-21
-22
-22
-21
-21
-21
-22
-23
-23
-24
-23
-23
-23
-23
-23
-23
-24
-24
-24
-24
-24
-24
-24
-24
-25
-25
-24
-23
-22
-23
-24
-24
-25
-25
-24
-24
-24
-24
-24
-25
-26
-26
-25
-25
-24
-24
-25
-25
-25
-25
-24
-25
-22
-22
-22
-21
-20
-18
-17
-15
-16
-17
-19
-21
-21
-22
-22
-23
-25
-26
-28
-30
-29
-28
-27
-26
-26
-27
-27
-28
-28
-27
-28
-29
-30
-31
-32
-33
-32
-31
-31
-31
-31
-31
-32
-32
-32
-32
-32
-32
-32
-32
-33
-33
-32
-26
-21
-19
-24
-42
-62
-85
-107
-129
-145
-156
-161
-160
-159
-157
-152
-144
-133
-122
-114
-109
-104
-99
-94
-88
-82
-76
-74
-72
-64
-56
-50
-43
-38
-33
-30
-26
-24
-21
-17
-13
-9
-4
-1
2
5
7
8
9
9
10
10
10
11
12
13
14
14
14
14
15
15
17
18
19
19
20
20
20
21
22
22
24
24
24
24
24
25
25
26
26
25
24
23
23
22
21
20
18
17
15
13
11
10
8
6
4
2
-1
-3
-4
-6
-8
-9
-10
-12
-14
-15
-16
-17
-17
-18
-19
-20
-21
-21
-22
-22
-22
-22
-22
-22
-23
-23
-23
-23
-23
-23
-22
-22
-23
-23
-23
-23
-22
-22
-22
-23
-24
-24
-23
-23
-22
-22
-22
-22
-23
-23
-23
-23
-22
-22
-23
-23
-23
-23
-23
-22
-22
-22
-22
-23
-21
-19
-18
-17
-17
-16
-15
-14
-14
-13
-15
-16
-18
-19
-20
-21
-22
-23
-24
-25
-25
-26
-26
-26
-25
-24
-24
-23
-23
-24
-24
-25
-26
-27
-27
-28
-27
-28
-29
-28
-27
-27
-28
-28
-28
-28
-29
-29
-28
-28
-28
-29
-30
-28
-25
-21
-24
-35
-52
-76
-102
-131
-148
-158
-162
-161
-160
-159
-154
-148
-138
-128
-118
-108
-105
-102
-97
-92
-86
-79
-75
-70
-62
-55
-49
-43
-37
-31
-26
-22
-19
-16
-13
-9
-4
2
7
11
13
15
15
16
17
18
18
18
18
18
18
19
19
20
20
21
21
22
22
23
25
25
26
26
26
26
27
28
29
29
29
29
29
29
29
29
30
30
29
29
28
27
26
24
23
22
20
18
16
14
12
10
8
7
4
2
0
-1
-3
-4
-5
-5
-8
-9
-10
-12
-12
-13
-13
-13
-13
-14
-14
-14
-14
-15
-15
-15
-15
-15
-15
-15
-15
-14
-14
-14
-14
-15
-15
-15
-15
-14
-14
-14
-14
-15
-15
-15
-15
-14
-14
-13
-13
-14
-14
-14
-14
-14
-14
-14
-14
-14
-15
-15
-14
-14
-13
-13
-12
-12
-11
-10
-9
-8
-7
-6
-5
-5
-6
-7
-8
-10
-11
-12
-13
-14
-16
-17
-18
-17
-16
-16
-17
-17
-16
-16
-16
-16
-16
-17
-18
-20
-20
-21
-21
-20
-20
-20
-20
-21
-21
-21
-21
-20
-20
-21
-21
-21
-21
-21
-21
-20
-18
-16
-14
-21
-33
-56
-83
-110
-138
-149
-158
-158
-156
-154
-155
-144
-136
-125
-115
-107
-100
-97
-94
-89
-84
-77
-71
-67
-61
-53
-46
-39
-33
-28
-23
-18
-14
-11
-8
-5
-2
3
8
12
16
20
22
22
23
23
23
24
25
25
25
25
26
26
27
28
28
29
29
30
30
31
31
32
33
34
34
35
35
36
36
36
37
38
38
37
37
36
36
35
35
35
34
33
32
30
29
27
25
23
22
20
18
16
13
12
10
8
6
5
3
2
0
-1
-2
-3
-4
-5
-6
-6
-7
-7
-6
-6
-7
-7
-7
-7
-8
-8
-8
-8
-7
-8
-9
-8
-7
-7
-7
-7
-7
-7
-7
-7
-8
-8
-6
-7
-7
-8
-8
-8
-8
-7
-7
-7
-7
-8
-8
-7
-7
-6
-6
-7
-7
-8
-8
-7
-7
-6
-6
-5
-5
-4
-4
-3
-2
-1
0
1
1
0
0
-2
-3
-4
-5
-7
-9
-10
-11
-10
-9
-9
-9
-9
-9
-9
-9
-9
-8
-9
-10
-11
-12
-12
-13
-13
-12
-12
-12
-13
-14
-13
-12
-12
-13
-13
-13
-13
-13
-13
-13
-13
-13
-13
-7
-1
0
-2
-24
-47
-73
-98
-115
-129
-134
-139
-139
-138
-136
-132
-123
-112
-100
-90
-85
-80
-76
-71
-64
-59
-53
-48
-44
-38
-31
-25
-20
-15
-11
-8
-6
-4
-2
2
5
9
13
16
14
22
24
24
23
24
25
25
26
27
28
27
26
27
29
29
30
31
32
32
32
33
34
35
36
36
36
36
37
38
39
39
40
40
40
40
40
40
40
40
40
39
37
35
35
34
33
31
29
27
24
22
21
20
18
16
14
13
11
9
8
7
6
5
5
4
2
1
1
1
1
0
0
-1
-1
-2
-2
-2
-2
-2
-2
-2
-2
-3
-3
-3
-2
-2
-3
-3
-3
-3
-3
-3
-2
-2
-2
-2
-3
-3
-2
-2
-2
-2
-3
-3
-4
-4
-3
-3
-2
-2
-3
-3
-4
-4
-3
-3
-2
-2
-3
-3
-3
-2
-1
-1
1
2
3
4
4
4
4
4
3
1
0
-2
-2
-3
-4
-5
-6
-7
-7
-7
-6
-5
-5
-5
-5
-4
-6
-7
-7
-8
-8
-9
-9
-9
-9
-10
-10
-9
-9
-8
-8
-9
-10
-10
-9
-9
-10
-10
-11
-11
-11
-6
-2
-6
-17
-40
-67
-99
-123
-138
-146
-146
-145
-143
-139
-134
-125
-114
-104
-95
-89
-86
-82
-78
-72
-66
-60
-54
-49
-43
-36
-30
-24
-17
-12
-7
-4
-1
1
3
7
12
17
21
25
28
29
30
31
32
32
33
33
33
33
33
34
35
35
36
36
37
37
38
38
39
40
41
41
41
41
42
42
43
43
45
45
45
44
44
44
44
45
44
43
42
41
40
39
38
37
35
32
30
28
26
24
22
20
17
16
14
12
11
10
9
7
6
4
3
2
2
1
1
0
0
-1
-2
-2
-2
-2
-2
-2
-3
-3
-4
-4
-3
-3
-3
-3
-4
-4
-4
-4
-3
-3
-2
-2
-3
-4
-5
-4
-3
-3
-3
-3
-4
-4
-4
-4
-4
-4
-3
-3
-4
-5
-6
-4
-4
-4
-4
-4
-4
-4
-3
-1
-1
0
0
0
1
3
3
4
3
1
-1
-3
-3
-4
-5
-6
-8
-9
-9
-10
-10
-10
-8
-7
-7
-8
-8
-9
-10
-11
-11
-12
-12
-12
-13
-13
-14
-14
-13
-13
-12
-12
-13
-13
-14
-14
-14
-14
-14
-14
-15
-15
-12
-8
-9
-18
-36
-60
-88
-118
-137
-149
-153
-152
-150
-148
-142
-136
-125
-114
-105
-97
-94
-91
-86
-82
-75
-68
-64
-59
-53
-46
-40
-33
-26
-20
-14
-10
-7
-5
-3
1
6
11
15
19
22
24
25
26
26
27
28
29
29
30
30
29
29
30
30
31
31
32
32
32
34
35
36
36
36
36
36
36
37
38
39
39
39
39
38
38
39
39
39
39
38
36
35
35
34
32
31
29
27
25
23
22
20
18
16
14
12
10
8
7
6
6
3
2
0
-2
-2
-2
-2
-3
-4
-5
-6
-7
-7
-6
-6
-6
-6
-6
-7
-8
-7
-6
-6
-6
-6
-7
-7
-7
-7
-7
-7
-7
-7
-7
-7
-8
-8
-7
-7
-7
-7
-7
-8
-8
-7
-7
-8
-8
-8
-8
-9
-9
-9
-8
-7
-8
-9
-9
-10
-8
-6
-5
-4
-4
-4
-4
-3
-1
0
0
-1
-3
-5
-6
-7
-7
-8
-9
-11
-12
-13
-13
-12
-11
-11
-10
-11
-12
-12
-12
-12
-13
-14
-15
-15
-15
-15
-16
-16
-15
-15
-14
-14
-15
-15
-16
-16
-16
-16
-15
-15
-16
-17
-14
-8
-5
-2
-14
-30
-55
-82
-104
-126
-137
-128
-147
-147
-147
-146
-136
-125
-111
-98
-92
-87
-83
-79
-73
-67
-61
-55
-52
-47
-41
-35
-28
-23
-18
-14
-11
-8
-6
-3
0
4
8
11
14
16
17
19
20
21
21
22
22
22
22
22
23
24
25
25
25
25
26
27
28
29
30
30
30
31
32
33
34
34
34
34
35
35
35
36
37
37
37
37
36
35
34
34
33
32
31
30
27
25
24
23
21
18
16
13
12
10
8
6
5
4
2
0
-1
-2
-2
-1
-2
-3
-3
-4
-5
-6
-6
-6
-6
-6
-6
-7
-8
-9
-8
-7
-6
-5
-6
-7
-7
-7
-7
-7
-7
-6
-7
-7
-8
-8
-7
-7
-6
-6
-7
-7
-8
-7
-6
-6
-7
-7
-7
-8
-9
-8
-7
-7
-8
-8
-7
-7
-7
-7
-8
-7
-6
-6
-5
-5
-5
-4
-2
-1
0
0
0
-1
-2
-4
-5
-6
-7
-8
-10
-12
-12
-11
-11
-10
-10
-10
-10
-11
-11
-10
-10
-10
-12
-13
-14
-15
-15
-14
-14
-14
-14
-14
-14
-15
-15
-15
-15
-14
-14
-15
-15
-16
-15
-15
-14
-9
-3
-5
-10
-31
-53
-78
-101
-121
-137
-142
-146
-144
-142
-138
-132
-123
-113
-103
-95
-91
-87
-81
-76
-70
-65
-61
-56
-52
-45
-37
-31
-24
-19
-14
-10
-7
-4
-6
2
6
10
14
17
21
23
26
26
27
27
28
28
28
28
29
29
30
30
30
32
33
34
35
35
36
36
36
37
38
39
40
40
41
41
41
41
42
42
42
42
42
41
41
41
40
39
38
37
35
33
32
31
30
28
26
24
21
19
17
16
14
12
10
9
7
6
6
5
4
3
2
0
-1
-2
-2
-1
-1
-2
-2
-3
-3
-4
-3
-3
-3
-3
-3
-3
-4
-4
-3
-3
-3
-3
-3
-3
-4
-4
-4
-4
-3
-3
-3
-3
-3
-3
-4
-4
-3
-3
-3
-4
-5
-5
-4
-4
-3
-3
-3
-3
-4
-4
-3
-3
-2
-3
-2
-1
0
1
2
4
4
5
6
7
7
6
4
2
1
0
-1
-2
-4
-5
-5
-5
-5
-5
-5
-4
-4
-3
-3
-3
-3
-4
-5
-6
-6
-7
-7
-7
-7
-7
-7
-7
-6
-6
-6
-6
-7
-7
-8
-8
-7
-7
-8
-8
-7
-2
1
-3
-13
-31
-53
-79
-105
-130
-142
-146
-147
-144
-141
-137
-129
-120
-110
-98
-92
-87
-83
-79
-73
-68
-62
-55
-51
-46
-39
-32
-25
-19
-12
-6
-1
3
5
7
10
14
20
25
30
33
35
37
37
37
38
39
39
40
40
40
40
41
41
42
43
44
44
45
45
45
46
47
47
49
50
50
50
51
52
52
53
53
53
53
53
53
53
53
52
51
50
48
47
47
46
44
43
41
39
36
34
33
31
29
27
25
23
21
20
19
17
16
15
14
12
10
10
10
10
10
9
8
8
7
7
8
8
8
8
8
8
8
8
8
8
8
8
8
7
6
7
8
8
8
8
8
8
8
8
8
8
9
9
8
8
7
8
8
8
8
8
8
8
8
8
8
9
9
8
8
7
9
11
12
13
14
15
16
17
17
18
18
17
14
12
11
10
10
9
8
7
6
5
5
5
6
7
7
7
8
7
5
5
5
5
4
3
2
2
2
2
2
3
4
4
4
4
3
3
4
4
3
3
2
2
5
9
11
11
0
-15
-38
-64
-90
-118
-129
-138
-139
-138
-135
-133
-123
-112
-100
-88
-83
-78
-74
-70
-64
-58
-51
-45
-41
-36
-29
-22
-15
-8
-2
4
8
11
13
16
20
25
30
35
39
42
43
44
45
46
46
47
47
47
47
47
49
50
51
51
51
51
51
52
53
54
55
55
55
55
55
55
56
57
58
58
57
57
58
58
59
59
59
58
57
57
56
56
55
54
52
50
48
47
45
44
42
43
38
35
33
30
30
29
27
25
24
23
22
20
20
19
18
17
17
16
16
15
15
15
15
16
16
15
15
14
14
15
15
15
15
14
14
14
14
15
15
15
15
15
14
14
14
14
14
14
14
13
12
13
14
14
15
15
14
14
14
14
14
14
14
14
14
14
13
13
14
14
14
15
16
16
17
18
19
19
20
21
22
21
20
19
18
17
16
15
14
12
11
10
10
11
11
11
11
12
12
11
11
9
6
3
-2
-6
-10
-12
-13
-14
-15
-16
-16
-8
4
14
25
27
27
27
28
28
27
17
26
-3
-12
-12
-13
-12
-11
-7
-3
-3
-2
-1
2
5
8
8
8
7
6
6
6
6
7
7
8
8
7
7
6
6
6
7
8
8
7
7
6
6
7
7
7
7
7
6
6
7
7
7
7
7
6
5
5
6
6
5
5
5
5
5
5
5
5
6
6
6
6
5
6
8
10
11
11
10
10
11
12
14
15
16
16
16
16
17
19
20
21
21
20
20
21
21
20
20
21
21
21
21
20
20
20
20
21
21
20
20
19
19
19
19
20
20
19
19
18
18
17
17
18
18
17
17
17
17
16
16
17
16
16
15
15
16
16
16
16
16
16
15
15
15
15
16
16
16
16
15
15
16
16
17
17
16
16
15
15
16
16
16
16
16
16
15
15
15
15
16
16
16
16
16
17
17
18
19
20
20
20
21
23
24
26
26
26
24
22
21
20
20
19
17
15
13
12
13
14
14
15
15
16
16
15
15
15
14
13
13
12
11
10
11
11
12
12
11
11
10
10
11
11
11
10
9
9
8
8
9
13
16
17
12
-3
-23
-47
-74
-104
-120
-129
-132
-131
-128
-125
-117
-108
-97
-84
-77
-71
-67
-64
-58
-63
-47
-42
-39
-35
-27
-18
-11
-4
1
6
10
13
16
19
23
27
32
36
40
44
46
48
48
49
49
50
50
50
50
51
52
53
53
52
52
53
53
54
55
56
56
56
57
58
59
59
60
60
60
60
60
61
62
62
63
63
62
62
61
61
60
60
58
56
55
54
53
51
49
47
45
43
41
38
36
35
33
32
30
28
26
24
23
21
21
20
19
17
17
16
16
15
15
15
14
13
13
12
12
13
13
13
13
12
12
12
12
13
13
13
13
13
13
12
12
12
12
13
13
13
13
12
12
12
12
13
12
12
11
11
11
11
12
12
12
11
10
10
11
11
11
11
12
12
13
15
16
16
17
17
18
18
17
16
14
13
12
11
9
8
7
6
5
5
5
5
5
6
6
6
6
6
5
4
3
1
1
1
1
1
1
1
1
0
0
0
0
0
0
0
0
-1
-1
0
0
-1
0
4
8
3
-6
-27
-51
-81
-112
-128
-143
-144
-143
-142
-140
-134
-127
-116
-105
-96
-88
-85
-81
-76
-71
-65
-60
-54
-48
-41
-34
-26
-20
-13
-8
-2
2
5
7
10
14
18
23
28
33
37
38
38
39
39
39
39
40
40
41
41
41
41
42
43
43
44
44
45
45
46
46
47
47
48
48
49
49
49
49
50
50
51
51
51
51
51
51
50
50
50
49
47
46
45
44
42
41
39
37
34
31
30
28
26
24
22
20
17
15
15
14
13
12
10
9
9
8
8
7
7
6
6
5
4
3
3
4
4
4
4
4
3
2
2
3
3
2
2
3
3
2
2
2
2
2
1
1
1
1
2
2
2
2
1
1
0
0
0
0
0
0
0
0
-1
-1
0
0
0
0
-1
-1
-1
0
1
1
2
2
3
3
5
6
7
7
8
7
5
2
2
1
0
-1
-3
-5
-6
-7
-6
-5
-5
-4
-4
-4
-5
-6
-6
-6
-6
-7
-8
-9
-9
-10
-10
-9
-9
-9
-9
-10
-10
-10
-10
-10
-10
-11
-11
-11
-12
-12
-13
-7
-2
1
2
-13
-30
-58
-85
-111
-132
-141
-147
-147
-147
-146
-142
-134
-123
-109
-99
-91
-86
-83
-77
-70
-64
-59
-55
-51
-44
-37
-30
-24
-19
-15
-12
-10
-7
-4
-1
3
6
10
13
16
18
21
22
23
23
23
23
23
24
25
25
26
26
26
26
27
27
28
28
29
29
30
30
31
31
32
33
34
34
34
34
35
36
37
37
37
37
36
35
35
34
34
33
32
30
28
26
25
24
22
20
17
15
13
11
9
8
6
4
2
1
0
-1
-2
-3
-4
-5
-5
-7
-8
-9
-9
-9
-9
-10
-10
-11
-10
-10
-11
-11
-10
-11
-12
-12
-12
-11
-10
-10
-11
-11
-11
-11
-12
-12
-11
-11
-12
-12
-12
-12
-12
-12
-12
-12
-12
-12
-12
-13
-14
-13
-12
-13
-14
-14
-14
-14
-15
-14
-14
-15
-15
-14
-14
-14
-14
-13
-12
-10
-10
-10
-10
-9
-9
-8
-8
-8
-10
-12
-13
-14
-15
-16
-18
-19
-19
-19
-20
-20
-18
-17
-17
-18
-18
-18
-19
-20
-21
-22
-22
-21
-22
-22
-23
-23
-22
-22
-22
-22
-23
-23
-24
-24
-23
-23
-23
-23
-24
-24
-22
-15
-11
-13
-27
-50
-74
-98
-117
-134
-142
-146
-148
-148
-149
-148
-140
-131
-119
-107
-103
-99
-94
-89
-82
-75
-71
-66
-62
-57
-51
-45
-39
-33
-28
-24
-22
-20
-17
-14
-10
-6
-2
2
5
7
9
10
11
12
12
13
13
14
14
14
15
16
16
17
17
18
18
19
21
21
22
23
24
24
25
25
26
26
27
27
28
28
27
27
28
28
27
26
25
24
23
22
21
20
18
16
14
12
10
9
7
6
4
2
-1
-3
-5
-6
-7
-7
-10
-12
-13
-15
-15
-16
-16
-17
-17
-18
-19
-20
-20
-19
-19
-20
-20
-20
-21
-22
-22
-21
-21
-21
-21
-21
-21
-22
-22
-22
-22
-21
-21
-22
-22
-23
-23
-22
-22
-21
-21
-22
-23
-23
-22
-22
-22
-22
-23
-23
-24
-24
-23
-23
-22
-22
-23
-23
-24
-24
-23
-23
-23
-22
-21
-21
-20
-19
-18
-17
-15
-14
-13
-14
-16
-18
-19
-19
-20
-21
-23
-25
-26
-28
-27
-26
-26
-26
-26
-25
-25
-25
-25
-25
-26
-28
-29
-30
-30
-30
-30
-30
-30
-30
-30
-31
-31
-30
-30
-30
-30
-30
-31
-32
-32
-32
-32
-30
-26
-25
-25
-42
-60
-87
-61
-139
-162
-165
-169
-167
-164
-162
-158
-150
-141
-129
-119
-114
-109
-104
-99
-93
-87
-82
-77
-72
-65
-57
-50
-45
-39
-34
-30
-27
-23
-20
-17
-14
-10
-5
0
5
7
9
10
10
11
12
12
13
13
13
13
14
14
13
14
15
15
16
16
16
17
18
18
19
20
21
21
22
22
21
22
23
23
24
24
23
23
23
23
22
22
21
20
18
16
15
13
12
10
8
6
4
1
0
-2
-4
-6
-8
-10
-12
-14
-15
-16
-16
-17
-18
-19
-21
-22
-22
-22
-22
-23
-23
-23
-24
-25
-25
-24
-24
-24
-24
-25
-25
-25
-25
-24
-24
-24
-24
-25
-26
-25
-24
-24
-24
-24
-25
-25
-25
-25
-25
-25
-25
-25
-25
-25
-26
-26
-26
-26
-25
-25
-25
-26
-27
-27
-26
-26
-26
-26
-26
-26
-26
-25
-24
-23
-22
-21
-20
-20
-19
-18
-18
-18
-21
-24
-24
-25
-26
-27
-28
-29
-30
-31
-31
-31
-31
-30
-29
-28
-28
-29
-30
-31
-31
-32
-33
-34
-34
-34
-34
-34
-34
-33
-33
-34
-34
-35
-35
-36
-35
-35
-35
-36
-37
-37
-38
-33
-28
-31
-38
-58
-80
-109
-134
-153
-166
-170
-173
-172
-170
-168
-161
-152
-141
-130
-123
-118
-114
-110
-104
-99
-92
-86
-81
-77
-70
-63
-56
-50
-44
-49
-35
-31
-29
-26
-22
-18
-13
-9
-3
1
2
4
5
6
6
6
6
7
7
6
7
8
8
9
9
9
9
10
10
12
13
14
14
14
14
14
15
16
16
17
17
17
17
17
18
18
18
18
17
16
15
15
14
13
12
10
8
6
5
3
1
-1
-3
-5
-8
-10
-12
-13
-14
-15
-17
-19
-21
-22
-23
-23
-24
-24
-25
-25
-26
-26
-27
-27
-27
-27
-27
-28
-28
-29
-29
-29
-29
-28
-28
-28
-29
-30
-30
-30
-29
-28
-28
-29
-29
-30
-30
-29
-29
-28
-28
-29
-29
-30
-30
-29
-29
-29
-29
-29
-29
-30
-30
-30
-30
-30
-30
-30
-31
-31
-30
-30
-29
-29
-30
-29
-27
-27
-27
-26
-25
-24
-23
-23
-23
-23
-23
-25
-26
-27
-28
-30
-32
-33
-34
-34
-34
-34
-33
-33
-33
-33
-33
-32
-31
-32
-34
-35
-36
-37
-37
-36
-36
-36
-36
-37
-37
-36
-36
-35
-35
-36
-37
-38
-38
-37
-37
-37
-37
-34
-27
-24
-24
-34
-51
-74
-99
-120
-139
-150
-158
-160
-160
-160
-160
-154
-148
-134
-119
-113
-107
-103
-98
-92
-87
-82
-77
-73
-69
-62
-56
-52
-47
-41
-36
-33
-31
-29
-26
-24
-20
-15
-11
-7
-5
-4
-3
-3
-2
-2
-2
-1
0
1
2
2
2
2
2
2
4
4
4
5
6
7
8
9
10
11
11
12
12
13
13
14
14
15
15
14
15
16
16
16
14
13
13
13
11
10
9
7
5
3
1
-1
-2
-4
-6
-8
-10
-12
-14
-15
-17
-18
-19
-20
-21
-22
-23
-23
-24
-24
-25
-25
-26
-26
-27
-27
-26
-26
-26
-26
-27
-27
-28
-28
-27
-27
-27
-27
-28
-28
-28
-28
-28
-28
-27
-27
-27
-28
-29
-27
-27
-27
-27
-28
-28
-29
-28
-27
-27
-28
-28
-28
-28
-29
-29
-28
-28
-28
-28
-29
-29
-29
-29
-29
-29
-28
-28
-27
-27
-26
-25
-23
-22
-21
-21
-20
-20
-22
-24
-25
-25
-27
-29
-30
-32
-32
-31
-31
-30
-30
-29
-29
-30
-30
-30
-30
-30
-32
-33
-34
-35
-35
-34
-34
-33
-33
-33
-33
-34
-34
-33
-33
-33
-33
-34
-34
-35
-35
-35
-35
-31
-26
-27
-29
-45
-62
-88
-112
-136
-156
-162
-167
-164
-162
-159
-155
-147
-138
-126
-117
-112
-107
-103
-98
-93
-88
-83
-78
-73
-67
-60
-53
-47
-41
-36
-31
-26
-23
-21
-18
-15
-10
-6
-1
5
7
10
10
10
10
11
11
12
12
13
13
14
14
14
15
16
16
17
18
19
19
19
20
21
22
23
23
24
24
25
25
25
25
26
26
26
25
24
24
24
24
22
20
19
17
16
14
13
11
9
7
5
3
2
0
-2
-4
-6
-8
-10
-12
-12
-12
-14
-15
-15
-16
-17
-18
-18
-18
-18
-18
-19
-20
-20
-21
-21
-20
-20
-20
-20
-20
-21
-21
-21
-21
-20
-20
-20
-20
-21
-20
-19
-19
-19
-19
-20
-20
-19
-19
-20
-20
-19
-19
-19
-19
-20
-20
-20
-20
-19
-19
-20
-20
-20
-20
-19
-19
-19
-19
-19
-19
-17
-14
-13
-12
-12
-11
-10
-9
-9
-10
-11
-13
-14
-16
-17
-19
-19
-20
-21
-22
-21
-20
-20
-21
-20
-19
-19
-19
-19
-21
-22
-23
-23
-23
-23
-23
-23
-23
-23
-24
-24
-23
-23
-22
-23
-23
-24
-24
-23
-23
-23
-23
-22
-18
-14
-17
-24
-42
-63
-91
-116
-139
-153
-157
-159
-157
-154
-152
-146
-137
-126
-114
-107
-101
-97
-93
-89
-84
-78
-72
-67
-63
-55
-48
-42
-36
-30
-24
-20
-15
-13
-10
-6
-2
3
9
14
18
20
22
22
22
22
23
23
24
24
24
24
25
26
27
27
28
28
29
30
31
31
32
32
33
33
34
34
34
36
36
37
37
37
37
37
37
36
36
37
36
35
34
32
32
31
29
28
26
24
21
20
18
16
14
12
10
8
5
4
3
2
1
0
-1
-2
-3
-4
-4
-4
-4
-6
-7
-7
-8
-8
-7
-7
-7
-7
-7
-7
-7
-7
-7
-7
-6
-6
-6
-6
-7
-7
-6
-6
-6
-6
-6
-6
-6
-6
-5
-5
-5
-5
-5
-5
-6
-6
-6
-6
-5
-5
-6
-6
-6
-6
-6
-6
-6
-6
-6
-7
-6
-4
-3
-2
-1
0
0
0
2
4
4
2
0
-1
-2
-3
-3
-4
-6
-8
-9
-10
-9
-8
-8
-8
-7
-6
-7
-8
-8
-8
-8
-9
-10
-10
-11
-11
-10
-10
-11
-10
-9
-9
-10
-10
-11
-11
-11
-11
-10
-10
-11
-12
-12
-9
-4
1
-2
-12
-33
-58
-84
-110
-125
-137
-141
-142
-143
-143
-138
-132
-118
-131
-95
-85
-82
-79
-73
-67
-60
-54
-50
-45
-39
-33
-27
-21
-16
-11
-6
-3
-1
1
4
8
12
17
20
23
26
27
28
29
29
30
30
30
30
30
31
32
32
33
34
35
34
35
37
38
39
39
39
39
40
41
42
43
44
44
45
45
45
46
47
47
47
47
46
46
45
45
44
44
42
41
39
37
35
34
32
31
29
27
24
22
20
18
17
16
14
12
11
10
10
9
9
8
7
6
5
4
4
5
5
4
4
4
3
2
2
3
3
4
3
2
2
2
2
3
3
4
4
3
3
2
3
4
4
4
4
3
2
2
3
3
4
3
2
2
2
2
2
2
3
3
2
2
2
2
2
2
3
3
2
3
5
6
7
7
8
9
10
10
10
10
9
7
6
6
4
3
2
0
0
1
1
0
1
2
1
0
1
2
2
1
-1
-2
-2
-3
-3
-2
-2
-2
-2
-3
-3
-3
-3
-2
-2
-3
-3
-3
-3
-3
-3
-3
-3
4
10
10
8
-14
-36
-59
-81
-99
-115
-121
-127
-127
-128
-128
-125
-117
-107
-94
-83
-78
-72
-67
-61
-55
-49
-44
-40
-35
-29
-23
-17
-13
-8
-3
0
3
6
9
12
15
21
26
29
27
34
36
36
35
36
37
37
38
38
39
39
40
41
42
43
44
44
45
45
45
46
47
48
49
49
49
49
50
50
51
51
52
52
52
52
51
51
51
51
50
49
47
45
44
42
41
39
37
35
32
30
29
28
27
25
23
21
18
16
16
15
14
13
11
10
9
8
8
7
7
7
7
6
5
4
4
4
4
5
5
5
5
4
4
4
5
5
4
4
4
4
4
4
5
5
4
4
3
3
4
4
5
5
4
3
2
2
3
3
4
4
4
3
2
2
2
2
3
3
3
3
3
5
6
6
8
9
10
12
12
12
11
9
7
5
4
1
-2
-6
-9
-13
-17
-21
-24
-26
-26
-27
-27
-23
-17
-12
-7
-5
-5
-6
-7
-9
-10
-19
-29
-38
-47
-49
-49
-44
-37
-28
-20
-16
-11
-8
-4
-2
0
0
0
0
0
0
0
0
-1
-1
-1
-1
0
0
1
1
0
0
0
1
2
2
2
2
2
2
2
2
3
3
4
4
3
3
2
4
4
4
4
3
3
2
2
2
2
2
1
0
0
-1
-1
-1
-1
0
0
-1
-1
-2
-2
-1
-1
-1
-1
-1
-1
-1
-1
0
0
1
1
1
1
2
2
2
2
2
2
1
0
1
2
2
2
2
1
1
1
1
1
1
1
1
0
-1
-2
-1
0
0
0
0
-1
-1
-2
-2
-2
-2
-2
-2
-2
-2
-3
-3
-3
-3
-3
-3
-3
-4
-4
-3
-3
-3
-3
-3
-4
-5
-4
-3
-3
-3
-3
-4
-4
-4
-4
-3
-3
-3
-3
-4
-4
-5
-5
-4
-4
-3
-3
-3
-3
-3
-3
-1
1
4
6
8
10
14
19
24
29
33
38
48
59
72
83
88
93
95
97
97
97
97
98
98
97
91
86
81
75
69
61
53
37
17
0
-15
-29
-42
-47
-48
-44
-37
-36
-37
-44
-52
-54
-53
-56
-55
-55
-56
-56
-56
-56
-56
-56
-57
-58
-59
-59
-58
-58
-59
-59
-60
-61
-62
-62
-61
-61
-61
-61
-62
-62
-63
-63
-63
-63
-62
-62
-61
-61
-61
-60
-59
-58
-57
-56
-55
-54
-52
-50
-48
-46
-45
-44
-43
-42
-39
-37
-35
-33
-31
-30
-28
-27
-25
-23
-21
-19
-18
-17
-16
-15
-13
-12
-12
-11
-11
-10
-9
-8
-8
-7
-7
-6
-6
-6
-7
-8
-7
-7
-6
-6
-6
-7
-8
-8
-7
-7
-7
-7
-8
-8
-9
-9
-8
-8
-8
-8
-8
-8
-8
-8
-8
-8
-8
-8
-8
-8
-8
-8
-8
-8
-7
-7
-7
-7
-8
-8
-8
-8
-7
-7
-7
-8
-8
-7
-7
-8
-8
-8
-8
-9
-9
-8
-8
-7
-7
-8
-8
-9
-9
-8
-8
-8
-8
-7
-8
-9
-9
-9
-9
-9
-9
-8
-9
-10
-10
-9
-9
-8
-8
-9
-10
-10
-10
-10
-9
-9
-10
-10
-11
-11
-10
-10
-9
-10
-11
-11
-10
-10
-9
-8
-7
-7
-6
-6
-5
-3
-2
-1
0
0
-2
-3
-5
-6
-7
-7
-9
-11
-13
-14
-14
-12
-12
-11
-12
-13
-13
-13
-13
-13
-13
-14
-15
-17
-17
-18
-18
-18
-18
-17
-17
-17
-17
-18
-18
-18
-18
-18
-18
-19
-19
-20
-20
-14
-8
-5
-4
-20
-40
-62
-84
-103
-86
-131
-141
-142
-143
-143
-143
-138
-131
-116
-104
-96
-89
-85
-80
-73
-67
-64
-60
-56
-51
-42
-36
-31
-26
-23
-20
-17
-15
-13
-10
-7
-3
1
4
6
8
10
11
11
12
12
12
12
13
14
14
14
14
15
15
15
16
17
18
20
20
19
19
20
21
22
23
24
24
24
24
25
26
27
28
29
29
29
28
27
27
28
28
27
27
25
24
23
21
20
18
17
15
13
10
9
7
6
4
3
1
-1
-3
-4
-5
-6
-7
-8
-9
-11
-12
-12
-12
-12
-12
-13
-14
-15
-16
-16
-16
-16
-16
-16
-16
-16
-17
-17
-17
-17
-16
-17
-17
-18
-18
-17
-17
-16
-16
-16
-17
-18
-18
-17
-17
-16
-16
-17
-17
-18
-18
-17
-17
-17
-17
-17
-18
-19
-19
-18
-18
-18
-18
-17
-17
-16
-15
-14
-13
-12
-11
-10
-10
-11
-12
-13
-15
-16
-18
-19
-21
-21
-22
-22
-21
-21
-22
-22
-21
-21
-21
-21
-20
-22
-23
-25
-26
-26
-25
-25
-25
-25
-25
-25
-26
-26
-25
-25
-25
-25
-25
-26
-27
-26
-26
-27
-25
-23
-20
-17
-27
-41
-66
-92
-120
-144
-155
-163
-161
-160
-158
-154
-149
-142
-133
-123
-113
-106
-103
-99
-94
-88
-82
-77
-72
-66
-60
-53
-46
-40
-34
-29
-24
-20
-23
-14
-11
-7
-3
3
8
12
16
17
18
18
18
18
19
19
20
20
21
21
21
21
22
24
25
25
25
25
26
27
28
28
29
29
29
29
29
30
31
31
32
32
33
32
32
33
32
31
31
30
29
27
26
25
24
23
21
19
16
14
13
12
10
7
5
3
1
0
-2
-3
-4
-5
-6
-7
-8
-9
-9
-10
-10
-11
-11
-12
-12
-13
-12
-12
-12
-12
-12
-12
-13
-13
-13
-13
-12
-12
-12
-12
-13
-13
-12
-12
-12
-12
-12
-12
-13
-13
-12
-12
-12
-12
-12
-12
-13
-13
-12
-12
-12
-12
-12
-12
-12
-12
-12
-12
-10
-9
-9
-8
-7
-6
-5
-3
-2
-1
-2
-3
-5
-7
-7
-8
-10
-11
-13
-14
-14
-14
-14
-13
-13
-12
-12
-12
-12
-12
-12
-13
-14
-16
-17
-18
-18
-17
-17
-16
-16
-16
-16
-16
-16
-16
-16
-16
-17
-17
-18
-18
-18
-18
-16
-11
-9
-16
-28
-50
-76
-106
-129
-147
-155
-156
-157
-155
-151
-146
-138
-128
-118
-107
-101
-96
-91
-86
-81
-75
-70
-65
-58
-51
-44
-36
-31
-25
-20
-15
-11
-8
-5
-2
1
5
10
15
19
23
26
28
28
28
28
29
29
30
30
31
31
32
32
31
32
33
34
35
35
36
36
36
37
38
38
40
41
41
40
41
42
42
43
43
43
42
41
41
42
42
41
40
39
37
35
34
33
31
29
27
25
23
21
20
18
16
14
12
10
9
8
7
6
5
4
3
1
0
0
-1
-1
-1
-1
-2
-2
-3
-3
-2
-2
-1
-1
-2
-2
-2
-2
-1
-1
-1
-1
-1
-1
-2
-2
-1
-1
0
0
0
0
0
0
1
1
0
0
0
0
-1
-1
-1
0
0
0
0
-1
-1
0
1
3
3
2
3
4
6
7
8
9
9
8
5
4
3
2
1
0
-2
-3
-4
-5
-4
-3
-3
-2
-2
-1
-2
-3
-3
-3
-3
-5
-6
-7
-8
-7
-6
-6
-6
-6
-6
-6
-7
-7
-7
-7
-7
-7
-7
-7
-8
-8
-6
1
4
6
-3
-21
-44
-71
-97
-122
-135
-143
-145
-145
-144
-142
-133
-124
-110
-96
-89
-83
-79
-74
-67
-61
-55
-50
-46
-42
-34
-26
-20
-14
-8
-3
0
2
4
7
10
14
18
21
24
27
29
30
31
32
32
33
33
32
33
34
35
36
36
36
36
37
39
39
40
40
40
41
42
43
44
44
45
45
45
45
46
48
49
49
49
49
48
48
47
47
46
46
47
45
43
41
40
39
37
35
33
31
28
26
24
22
21
21
17
15
14
13
12
11
11
10
9
8
7
6
6
7
7
6
6
6
5
4
4
5
5
6
6
5
5
4
4
4
4
4
4
4
4
4
4
4
5
6
5
4
5
5
4
4
5
5
4
4
3
3
4
4
5
5
4
4
4
4
5
6
7
7
8
8
9
11
12
12
13
12
11
10
8
7
6
5
4
3
2
1
0
1
2
3
3
2
2
1
1
1
0
-1
-1
-1
-2
-3
-3
-2
-2
-2
-2
-1
-2
-3
-3
-3
-3
-3
-3
-3
-4
-5
-4
2
9
11
11
-6
-26
-46
-67
-88
-68
-117
-126
-127
-129
-129
-128
-119
-109
-96
-84
-80
-75
-70
-65
-59
-53
-47
-42
-39
-34
-27
-21
-15
-10
-5
-2
1
4
7
9
11
15
20
23
26
28
30
31
32
33
33
33
33
33
34
35
36
36
37
37
36
37
39
40
41
41
42
42
42
44
45
45
46
47
48
48
47
47
48
49
50
50
49
48
47
47
46
46
44
43
41
39
37
35
34
32
30
28
26
24
22
20
19
18
16
14
13
11
11
10
10
9
8
7
7
6
6
5
5
5
5
4
4
3
3
4
4
4
4
4
3
2
3
4
4
3
4
4
3
3
4
4
4
4
3
3
3
3
3
3
4
4
3
3
2
2
2
2
3
3
3
3
5
6
7
8
9
9
10
11
12
12
11
9
8
7
5
4
3
2
1
-1
-1
0
-1
-2
0
2
2
1
1
1
-1
-2
-2
-3
-3
-3
-3
-4
-4
-5
-4
-3
-3
-3
-3
-4
-4
-5
-5
-4
-4
-5
-5
-1
3
0
-5
-24
-43
-70
-97
-118
-136
-141
-145
-142
-140
-139
-135
-128
-119
-106
-96
-89
-83
-79
-74
-68
-62
-56
-51
-47
-41
-34
-28
-22
-16
-10
-5
1
3
5
8
10
15
19
25
20
34
37
37
38
38
39
39
40
40
40
40
40
41
42
43
44
44
44
44
45
45
46
47
48
48
49
49
49
49
50
51
52
52
51
51
51
51
52
52
51
51
48
46
46
45
44
42
41
39
37
35
33
31
30
28
26
24
22
20
18
17
16
15
13
12
10
9
9
10
10
9
9
8
8
7
7
7
7
7
7
6
5
4
6
6
6
6
6
6
6
6
6
6
7
7
6
6
6
6
6
6
7
7
6
6
6
6
6
6
6
6
6
6
6
6
8
9
10
10
10
10
12
13
15
14
17
16
13
10
10
10
9
8
7
5
4
2
2
3
3
4
4
5
4
3
4
5
4
3
2
1
0
-1
0
1
1
1
1
0
0
-1
-1
0
0
0
0
-1
-2
-2
-2
3
8
6
1
-17
-37
-65
-91
-114
-132
-138
-143
-142
-140
-136
-131
-122
-111
-99
-91
-86
-81
-76
-71
-64
-58
-52
-47
-42
-34
-26
-19
-13
-7
-1
3
6
9
13
17
21
25
30
35
39
41
43
43
44
44
44
44
43
44
45
46
47
47
46
46
47
48
49
50
51
51
52
52
52
53
54
55
56
56
56
56
56
56
57
57
57
56
56
55
55
55
54
53
52
50
48
46
45
44
42
41
38
36
34
32
30
29
27
26
24
23
21
20
19
18
18
17
16
15
15
14
14
14
14
14
14
13
12
12
12
12
13
13
12
12
12
12
13
13
14
14
14
13
12
12
13
13
14
14
14
13
12
13
14
14
14
14
14
14
13
13
13
13
14
14
14
14
16
18
18
19
20
21
21
22
22
23
22
20
18
16
15
14
14
13
12
11
11
11
11
10
12
13
12
11
11
11
10
9
9
8
8
7
7
7
7
7
7
7
7
8
8
7
6
6
7
7
7
7
6
11
15
20
20
7
-10
-37
-63
-89
-108
-118
-124
-124
-124
-124
-120
-113
-101
-86
-76
-68
-64
-60
-55
-48
-43
-37
-32
-28
-21
-14
-8
-2
3
9
12
16
17
19
22
25
30
34
37
40
41
42
42
43
44
45
45
46
46
46
46
45
47
48
49
50
50
50
50
51
52
53
54
55
55
55
55
55
57
57
58
59
60
60
60
60
60
60
60
59
58
57
56
55
54
53
52
50
48
45
43
41
40
39
37
34
31
29
28
28
27
26
25
24
22
21
20
20
20
20
18
19
18
16
16
17
17
17
17
16
16
15
16
17
17
16
16
16
16
15
15
16
16
16
16
16
16
15
15
15
15
15
15
16
15
14
14
15
15
15
15
15
14
14
14
14
15
15
15
15
16
17
18
19
20
21
22
22
22
22
21
19
18
17
16
14
13
12
11
11
11
11
10
11
12
12
11
11
12
11
9
8
7
7
7
7
7
8
7
6
6
6
6
7
7
6
6
6
6
6
6
7
9
11
16
14
6
-12
-37
-63
-90
-108
-123
-128
-128
-127
-126
-121
-115
-106
-95
-86
-77
-73
-76
-63
-57
-51
-45
-40
-36
-29
-23
-17
-10
-4
2
7
12
15
18
21
25
29
33
37
41
44
46
46
46
46
47
47
48
48
49
49
49
49
50
50
51
52
53
53
54
54
55
56
57
58
58
58
58
58
59
60
60
60
60
59
59
58
58
57
57
56
55
53
51
49
48
47
45
43
41
39
37
35
33
31
30
27
25
23
21
20
18
18
17
16
14
14
13
13
12
12
12
11
10
10
9
9
10
10
10
10
9
9
9
9
9
9
9
9
8
8
7
7
8
8
9
9
8
8
7
7
7
7
8
7
7
7
7
7
7
7
7
6
6
7
7
8
9
10
10
11
11
12
14
15
15
13
10
9
8
7
7
6
5
3
2
1
1
1
1
1
2
2
1
-2
-4
-7
-10
-16
-21
-25
-28
-29
-31
-30
-27
-23
-17
-11
-6
-6
-7
-9
-11
-11
-16
-26
-37
-50
-55
-55
-50
-40
-32
-24
-18
-14
-11
-7
-3
1
2
2
2
2
1
1
1
2
2
1
1
1
1
2
2
2
2
2
2
2
2
3
3
4
4
3
3
2
2
2
2
3
3
2
2
2
2
2
2
2
2
1
1
0
0
0
0
-1
-2
-3
-4
-4
-3
-3
-3
-3
-4
-4
-4
-3
-2
-2
-2
-2
-2
-2
-2
-2
-1
0
1
1
0
0
0
0
1
1
1
1
0
0
-1
-1
0
0
0
0
-1
-1
-1
-1
-1
-1
-1
-2
-2
-3
-3
-2
-2
-2
-2
-3
-3
-4
-4
-4
-4
-4
-4
-5
-5
-6
-6
-5
-5
-6
-6
-6
-6
-7
-7
-7
-7
-6
-6
-7
-7
-8
-8
-8
-8
-8
-8
-8
-9
-9
-8
-8
-8
-8
-8
-9
-10
-10
-9
-9
-8
-8
-7
-7
-6
-4
-3
-2
-1
-1
0
0
-1
-2
-4
-5
-6
-6
-8
-10
-12
-13
-13
-14
-12
-13
-13
-12
-12
-12
-12
-11
-12
-14
-15
-17
-17
-18
-18
-17
-17
-17
-18
-19
-19
-18
-18
-18
-18
-19
-19
-19
-19
-20
-20
-18
-14
-13
-13
-29
-47
-74
-104
-128
-152
-158
-164
-163
-161
-157
-152
-143
-133
-122
-112
-107
-102
-98
-93
-87
-81
-74
-68
-63
-57
-49
-42
-36
-31
-26
-21
-17
-14
-12
-9
-6
-2
2
6
11
13
15
16
16
17
17
16
18
18
19
19
19
19
19
19
20
21
22
22
21
21
21
22
23
24
25
25
25
25
25
25
26
27
28
28
27
27
27
27
27
27
26
25
24
23
22
21
20
20
16
13
11
8
7
5
4
2
0
-2
-4
-6
-7
-9
-10
-11
-12
-13
-15
-16
-16
-16
-16
-17
-18
-19
-19
-20
-20
-19
-19
-19
-19
-20
-20
-20
-20
-19
-19
-19
-19
-20
-19
-19
-18
-18
-19
-19
-19
-19
-20
-20
-19
-19
-18
-19
-20
-20
-21
-21
-20
-20
-21
-21
-21
-21
-22
-22
-21
-19
-18
-18
-17
-17
-17
-16
-15
-15
-15
-15
-17
-19
-20
-22
-22
-23
-25
-28
-28
-28
-28
-27
-27
-27
-27
-27
-27
-27
-27
-28
-28
-29
-31
-32
-32
-32
-32
-31
-31
-31
-31
-31
-32
-33
-32
-31
-31
-32
-32
-32
-32
-32
-30
-23
-29
-20
-26
-49
-72
-94
-115
-132
-146
-150
-154
-155
-157
-154
-148
-137
-126
-114
-105
-101
-97
-92
-87
-81
-76
-71
-67
-62
-56
-49
-43
-38
-34
-30
-28
-27
-24
-22
-18
-14
-11
-8
-5
-3
-2
0
1
2
2
2
2
1
1
2
3
4
4
5
5
5
6
7
8
9
9
8
9
10
11
12
13
14
14
14
14
14
15
16
16
17
16
15
15
15
14
14
13
12
10
9
7
6
4
3
1
-1
-3
-6
-9
-10
-11
-13
-14
-16
-17
-19
-20
-20
-21
-21
-22
-22
-23
-24
-25
-25
-25
-25
-25
-25
-26
-26
-27
-27
-26
-26
-27
-27
-28
-29
-29
-28
-28
-27
-27
-28
-28
-29
-29
-28
-28
-28
-28
-28
-28
-29
-29
-29
-29
-28
-28
-28
-28
-29
-29
-28
-28
-28
-28
-29
-29
-29
-29
-27
-26
-25
-25
-24
-23
-21
-19
-19
-19
-20
-22
-24
-26
-26
-26
-26
-27
-29
-31
-31
-32
-32
-31
-30
-29
-29
-30
-30
-31
-31
-31
-32
-33
-34
-35
-35
-35
-35
-35
-35
-34
-34
-34
-34
-35
-34
-34
-34
-35
-36
-36
-35
-31
-27
-27
-32
-48
-68
-95
-121
-144
-160
-165
-167
-165
-163
-161
-156
-147
-137
-125
-117
-111
-108
-105
-100
-95
-89
-83
-79
-75
-68
-60
-54
-48
-42
-47
-32
-27
-25
-23
-18
-14
-9
-5
0
4
6
8
9
10
10
11
11
11
11
11
12
13
14
15
15
15
15
16
16
17
18
19
19
19
19
19
20
21
21
22
22
22
22
22
23
23
23
23
22
21
19
19
19
18
17
15
13
11
10
8
7
5
3
1
-2
-4
-5
-7
-8
-9
-11
-13
-14
-15
-16
-17
-18
-18
-19
-19
-20
-20
-21
-21
-21
-21
-21
-22
-22
-23
-23
-22
-22
-21
-21
-22
-22
-23
-23
-22
-22
-21
-21
-22
-22
-23
-23
-22
-22
-21
-21
-22
-22
-23
-23
-22
-22
-22
-22
-22
-22
-22
-22
-22
-22
-21
-20
-20
-19
-18
-17
-16
-14
-14
-13
-13
-14
-16
-18
-18
-19
-21
-22
-24
-25
-25
-26
-26
-25
-25
-26
-25
-24
-24
-24
-24
-25
-26
-27
-28
-29
-29
-29
-29
-28
-28
-29
-29
-29
-28
-28
-29
-29
-29
-29
-30
-30
-30
-29
-26
-22
-22
-30
-45
-69
-94
-121
-142
-156
-163
-163
-163
-161
-158
-153
-145
-135
-125
-115
-110
-106
-101
-95
-89
-83
-79
-75
-68
-60
-54
-47
-42
-37
-32
-28
-24
-21
-18
-15
-11
-7
-3
1
6
10
12
14
14
15
15
15
15
16
16
16
16
17
17
18
19
20
20
21
21
22
22
23
24
25
25
26
27
27
27
27
28
28
29
29
29
28
27
27
28
28
27
26
25
23
21
20
19
17
15
13
11
8
7
6
4
2
0
-2
-4
-6
-7
-7
-8
-9
-10
-11
-13
-14
-14
-15
-15
-14
-14
-15
-16
-17
-17
-16
-16
-16
-16
-16
-16
-17
-17
-16
-16
-15
-15
-16
-16
-17
-17
-17
-17
-16
-16
-16
-16
-17
-17
-16
-16
-16
-16
-16
-16
-16
-16
-16
-15
-15
-15
-16
-17
-16
-15
-14
-12
-12
-11
-10
-9
-7
-6
-6
-7
-9
-10
-13
-14
-14
-15
-15
-17
-19
-20
-20
-20
-20
-19
-18
-17
-18
-19
-19
-20
-20
-20
-20
-22
-23
-23
-24
-24
-23
-23
-23
-23
-23
-23
-24
-24
-23
-23
-23
-23
-24
-25
-24
-20
-17
-17
-27
-45
-71
-103
-128
-151
-160
-164
-164
-163
-160
-156
-147
-137
-125
-112
-107
-103
-99
-95
-89
-82
-75
-69
-65
-60
-53
-46
-39
-33
-27
-21
-18
-15
-13
-11
-7
-3
1
6
10
12
13
14
16
17
18
19
19
19
19
18
18
20
21
22
22
22
22
22
24
24
25
25
26
26
27
27
28
29
31
31
30
30
31
31
31
31
32
32
31
29
28
28
28
27
26
25
23
20
18
15
14
13
11
10
7
5
3
2
0
1
-2
-3
-5
-8
-8
-8
-8
-9
-9
-10
-11
-12
-12
-12
-12
-11
-11
-12
-12
-13
-13
-14
-13
-12
-12
-13
-13
-13
-13
-12
-12
-12
-12
-12
-12
-13
-13
-12
-12
-12
-12
-13
-14
-14
-13
-13
-12
-13
-14
-14
-14
-14
-14
-14
-13
-13
-14
-13
-12
-12
-11
-11
-10
-8
-7
-7
-8
-8
-7
-8
-10
-11
-13
-14
-16
-17
-18
-18
-18
-18
-19
-19
-18
-18
-18
-18
-18
-17
-19
-21
-21
-21
-21
-22
-22
-21
-22
-23
-23
-22
-22
-22
-22
-23
-23
-23
-23
-23
-23
-23
-23
-19
-12
-10
-10
-22
-40
-62
-84
-105
-125
-135
-144
-145
-145
-146
-147
-139
-131
-117
-104
-97
-92
-88
-84
-79
-74
-68
-62
-59
-55
-48
-42
-38
-33
-27
-23
-19
-17
-15
-13
-10
-6
-2
2
5
7
8
9
10
11
11
12
12
13
13
13
13
13
14
15
17
17
17
17
18
18
19
20
22
22
22
22
23
24
25
26
27
27
27
27
27
27
28
28
28
28
26
25
24
23
22
22
19
17
15
14
12
9
7
5
3
1
-1
-4
-5
-6
-7
-8
-9
-10
-11
-13
-13
-14
-14
-13
-14
-15
-16
-17
-17
-16
-16
-17
-17
-17
-18
-19
-19
-18
-18
-17
-17
-18
-18
-19
-19
-19
-19
-19
-19
-19
-20
-20
-19
-19
-19
-19
-19
-19
-20
-20
-19
-19
-19
-20
-21
-21
-20
-20
-20
-20
-19
-19
-20
-20
-18
-17
-16
-15
-14
-13
-12
-12
-12
-12
-13
-14
-15
-16
-18
-20
-20
-21
-22
-24
-24
-23
-23
-23
-23
-22
-22
-22
-22
-23
-25
-26
-26
-26
-26
-26
-26
-27
-27
-28
-28
-27
-27
-27
-27
-27
-27
-28
-28
-28
-28
-28
-28
-25
-22
-27
-34
-56
-79
-107
-133
-149
-162
-162
-163
-160
-157
-153
-147
-138
-129
-117
-109
-106
-103
-99
-94
-89
-84
-78
-73
-67
-61
-54
-48
-43
-37
-32
-27
-22
-20
-18
-14
-10
-4
1
5
2
11
13
13
13
13
14
15
16
16
16
16
15
16
17
18
19
19
20
20
20
20
21
22
23
23
24
24
24
24
25
25
26
26
26
26
25
25
26
26
25
24
22
20
20
19
18
16
15
13
10
8
6
4
3
1
-2
-4
-6
-8
-9
-10
-12
-13
-14
-15
-16
-17
-17
-18
-18
-18
-19
-20
-20
-21
-21
-20
-20
-20
-20
-21
-21
-22
-21
-21
-20
-20
-21
-21
-21
-21
-22
-22
-21
-21
-21
-21
-22
-22
-22
-22
-22
-22
-22
-22
-23
-23
-22
-22
-23
-23
-23
-23
-23
-23
-23
-23
-22
-21
-20
-20
-20
-19
-17
-18
-14
-14
-16
-18
-19
-21
-21
-22
-23
-25
-27
-29
-28
-27
-27
-27
-27
-26
-27
-28
-28
-27
-27
-28
-30
-31
-31
-32
-32
-31
-31
-31
-31
-31
-31
-32
-32
-32
-32
-32
-32
-32
-33
-33
-34
-32
-29
-25
-24
-37
-53
-79
-105
-132
-154
-163
-170
-168
-167
-165
-161
-154
-145
-134
-124
-117
-112
-109
-104
-97
-91
-85
-81
-77
-70
-63
-56
-48
-43
-39
-34
-30
-27
-23
-20
-17
-12
-7
-2
2
6
9
10
12
12
11
11
11
11
12
13
14
14
14
14
14
16
17
17
18
18
19
19
19
20
21
22
23
23
24
24
23
24
25
25
25
24
23
22
22
21
21
20
19
17
16
14
12
10
8
7
5
2
0
-2
-4
-5
-7
-9
-11
-12
-14
-15
-16
-17
-17
-18
-19
-20
-21
-22
-22
-21
-21
-22
-22
-23
-24
-24
-23
-23
-22
-22
-23
-23
-24
-24
-23
-23
-23
-23
-23
-23
-24
-24
-23
-23
-23
-23
-24
-24
-25
-25
-24
-24
-23
-23
-24
-24
-25
-25
-24
-24
-24
-24
-23
-23
-23
-21
-20
-19
-19
-18
-17
-16
-16
-15
-15
-15
-18
-20
-21
-22
-23
-24
-26
-27
-27
-28
-28
-28
-28
-27
-27
-26
-26
-27
-27
-28
-29
-30
-30
-30
-30
-31
-31
-31
-31
-31
-31
-30
-31
-31
-31
-31
-31
-31
-31
-31
-32
-33
-32
-25
-21
-24
-35
-58
-84
-114
-138
-155
-164
-166
-168
-168
-166
-163
-154
-143
-130
-118
-112
-108
-104
-99
-93
-86
-80
-74
-69
-64
-56
-49
-43
-37
-32
-27
-25
-22
-20
-17
-13
-8
-4
-1
3
5
6
7
8
9
9
10
10
10
10
10
11
12
12
13
13
13
13
14
14
15
16
17
17
18
18
19
20
20
21
22
23
23
22
22
23
23
24
23
22
21
20
20
19
18
17
15
13
11
10
8
6
3
1
-1
-3
-5
-7
-8
-9
-10
-11
-12
-14
-15
-16
-16
-17
-17
-18
-19
-19
-20
-20
-20
-20
-19
-19
-20
-20
-21
-21
-20
-20
-20
-20
-20
-20
-21
-21
-20
-20
-19
-19
-19
-19
-20
-20
-20
-20
-20
-20
-21
-21
-21
-21
-20
-20
-20
-20
-21
-22
-22
-21
-21
-21
-21
-21
-21
-20
-19
-18
-18
-17
-17
-17
-16
-15
-15
-14
-14
-14
-15
-17
-19
-21
-21
-22
-22
-24
-25
-26
-26
-25
-24
-23
-23
-24
-24
-24
-24
-25
-26
-27
-28
-28
-29
-29
-28
-28
-28
-28
-27
-27
-27
-27
-28
-28
-28
-28
-28
-28
-28
-28
-24
-16
-13
-16
-32
-55
-79
-103
-121
-137
-144
-148
-149
-149
-149
-147
-136
-124
-112
-123
-97
-93
-89
-84
-79
-74
-68
-63
-59
-54
-47
-41
-35
-30
-25
-22
-20
-19
-17
-14
-9
-5
-1
2
4
5
5
6
7
8
9
10
9
8
8
9
10
11
12
13
13
14
15
15
16
17
18
18
19
19
20
21
22
23
24
24
25
25
25
26
27
27
27
26
25
24
23
23
22
20
18
17
15
13
11
10
8
6
4
2
-1
-3
-4
-6
-6
-7
-8
-10
-11
-12
-13
-14
-14
-14
-14
-15
-16
-17
-17
-17
-17
-16
-16
-17
-17
-18
-18
-18
-18
-17
-17
-18
-18
-19
-19
-18
-18
-18
-18
-18
-18
-18
-18
-18
-18
-17
-17
-17
-18
-18
-18
-18
-17
-17
-18
-18
-18
-18
-17
-17
-16
-16
-17
-17
-17
-16
-15
-13
-12
-12
-11
-11
-9
-8
-7
-7
-9
-11
-12
-13
-14
-14
-15
-16
-17
-18
-19
-19
-19
-18
-17
-15
-15
-16
-17
-18
-18
-19
-19
-20
-20
-21
-21
-20
-20
-20
-20
-20
-20
-20
-20
-20
-20
-20
-20
-20
-20
-21
-21
-17
-11
-13
-17
-35
-55
-83
-112
-132
-153
-154
-155
-153
-151
-147
-142
-132
-122
-110
-101
-98
-94
-90
-84
-78
-72
-67
-61
-57
-51
-43
-36
-30
-24
-19
-14
-11
-8
-6
-2
3
8
13
17
21
23
24
25
25
26
26
26
27
27
28
29
30
30
31
31
31
32
33
33
34
34
35
35
36
36
36
37
38
39
40
40
40
40
40
40
40
40
39
39
38
37
36
36
35
34
32
31
28
26
24
22
21
19
17
14
12
10
9
8
7
5
4
3
2
1
0
-1
-1
-2
-2
-3
-3
-4
-4
-4
-4
-3
-4
-5
-5
-4
-4
-4
-4
-3
-3
-4
-4
-5
-3
-3
-3
-3
-3
-3
-4
-3
-2
-2
-2
-2
-3
-3
-4
-3
-2
-2
-2
-2
-2
-4
-5
-6
-7
-9
-11
-14
-18
-21
-22
-22
-23
-22
-18
-14
-5
6
7
7
4
7
2
4
-4
-12
-22
-31
-30
-29
-30
-32
-28
-24
-18
-13
-10
-8
-6
-5
-7
-9
-9
-10
-9
-8
-8
-9
-9
-9
-9
-8
-8
-8
-8
-8
-8
-8
-8
-7
-7
-6
-6
-7
-6
-6
-5
-5
-5
-5
-5
-5
-6
-6
-5
-5
-4
-4
-5
-5
-6
-6
-5
-5
-5
-5
-6
-6
-7
-7
-6
-6
-5
-5
-5
-5
-5
-4
-3
-3
-2
-2
-1
-1
-1
1
2
3
3
4
4
4
4
5
5
6
6
5
5
6
5
4
5
6
6
5
5
4
4
5
5
5
5
5
4
3
3
4
4
4
4
4
3
2
3
4
4
4
4
4
3
3
4
4
5
5
5
5
4
4
5
5
5
5
5
5
4
5
6
6
6
6
6
5
4
5
6
6
6
6
6
6
5
5
6
6
7
7
7
6
6
6
6
7
7
7
7
6
6
7
7
8
8
7
7
6
7
8
8
8
8
8
7
6
6
7
7
8
8
8
8
8
8
8
9
10
10
11
12
13
15
17
19
19
18
17
15
14
13
13
12
11
9
7
5
5
6
6
7
8
9
9
8
8
7
7
6
4
3
3
2
3
4
4
4
3
2
2
2
2
2
2
2
2
2
1
1
0
7
12
9
1
-20
-44
-74
-100
-119
-132
-137
-140
-140
-138
-134
-126
-115
-103
-90
-83
-79
-74
-68
-62
-55
-49
-43
-38
-33
-26
-17
-11
-6
-1
4
7
10
13
16
19
23
28
32
35
38
39
41
41
42
42
42
42
41
42
43
43
44
44
44
44
43
44
45
45
46
47
48
48
48
48
49
49
50
50
51
51
51
53
53
54
54
53
53
53
54
55
54
53
52
51
50
49
48
47
46
45
43
42
39
38
36
35
34
32
29
27
25
24
23
21
20
19
19
17
16
15
15
14
14
14
13
12
11
11
12
12
11
11
11
11
12
12
12
12
11
11
12
12
11
11
12
12
12
12
12
12
12
12
11
11
12
12
12
12
11
11
11
11
11
11
11
10
10
10
11
13
13
13
13
12
14
16
16
17
17
16
13
11
10
9
9
8
6
5
4
3
3
3
4
5
5
5
5
4
4
4
3
2
1
0
0
-1
0
0
0
0
-1
-1
-1
0
1
0
-1
-1
-2
-2
-3
-3
0
6
11
14
9
-7
-27
-51
-74
-96
-111
-122
-126
-127
-128
-128
-125
-119
-106
-92
-84
-76
-71
-67
-62
-66
-51
-44
-42
-39
-31
-24
-17
-12
-7
-3
0
2
4
7
10
13
17
21
24
26
29
30
30
31
31
32
32
33
33
33
34
35
35
35
35
35
36
37
38
39
39
40
41
41
42
43
44
44
44
44
45
46
47
47
48
48
47
47
47
47
47
46
45
44
43
41
39
37
36
34
32
30
28
26
24
23
21
20
18
17
15
13
12
10
10
10
9
7
7
6
5
4
4
4
4
3
3
2
2
2
2
3
3
2
1
0
0
1
1
1
1
1
1
0
0
0
0
1
1
0
0
-1
-1
0
0
0
-1
-1
-2
-1
0
0
0
0
-1
-1
-1
-1
-1
-1
0
1
2
2
3
4
5
6
7
7
8
8
6
4
3
3
1
0
-2
-3
-4
-4
-4
-4
-3
-3
-3
-3
-3
-3
-3
-3
-4
-6
-7
-8
-8
-7
-7
-7
-7
-7
-7
-8
-8
-8
-8
-7
-7
-8
-9
-10
-10
-9
-9
-5
-1
-3
-9
-29
-52
-79
-107
-126
-143
-146
-148
-148
-145
-140
-135
-125
-114
-104
-94
-90
-87
-82
-77
-72
-67
-61
-56
-50
-43
-35
-28
-22
-16
-11
-7
-3
0
3
5
8
13
17
22
26
29
32
33
33
34
34
34
34
35
35
36
37
37
36
37
38
38
39
39
39
39
40
40
41
41
42
42
43
43
44
44
45
45
45
45
44
44
44
44
43
43
42
41
39
38
37
37
35
34
31
29
26
24
22
20
19
17
15
13
12
10
9
7
6
5
5
4
2
1
1
0
0
-1
-1
-1
-2
-3
-3
-2
-2
-2
-2
-3
-3
-3
-3
-2
-2
-2
-2
-2
-2
-3
-2
-2
-2
-2
-2
-2
-3
-3
-3
-3
-3
-3
-2
-3
-4
-4
-3
-3
-3
-3
-3
-3
-4
-4
-3
-2
-1
-1
0
0
1
2
4
5
6
5
2
0
-1
-1
-3
-2
-6
-7
-9
-11
-10
-9
-9
-8
-7
-6
-7
-8
-8
-8
-9
-10
-10
-11
-13
-14
-14
-13
-12
-11
-12
-13
-13
-12
-12
-13
-13
-12
-13
-14
-14
-15
-15
-10
-4
-6
-10
-31
-52
-82
-111
-132
-151
-153
-156
-155
-153
-149
-143
-132
-121
-110
-101
-98
-93
-87
-81
-75
-70
-65
-60
-55
-48
-40
-33
-26
-21
-16
-12
-9
-6
-3
1
5
10
14
18
22
24
27
27
28
28
29
29
29
29
30
30
31
31
32
32
32
33
34
34
35
35
36
36
37
37
38
38
39
40
41
41
40
41
42
42
41
41
41
40
39
39
38
39
35
33
32
30
29
27
26
24
22
20
17
14
13
11
9
8
6
4
2
1
1
0
-1
-2
-2
-3
-5
-6
-6
-6
-6
-6
-6
-7
-7
-8
-8
-7
-7
-7
-7
-7
-8
-8
-8
-8
-7
-8
-9
-9
-9
-9
-8
-8
-8
-8
-9
-9
-9
-9
-9
-9
-8
-8
-9
-9
-10
-10
-10
-10
-9
-9
-9
-9
-9
-9
-8
-7
-6
-6
-5
-4
-2
0
0
-1
-3
-5
-6
-7
-8
-9
-10
-11
-13
-15
-15
-15
-15
-14
-13
-12
-12
-13
-13
-14
-14
-15
-15
-16
-16
-17
-18
-19
-19
-18
-18
-17
-17
-18
-18
-18
-18
-18
-18
-18
-18
-19
-21
-17
-13
-10
-9
-24
-43
-73
-101
-126
-145
-154
-160
-160
-160
-158
-153
-142
-130
-116
-106
-100
-95
-90
-85
-80
-74
-68
-63
-59
-53
-47
-39
-32
-26
-21
-16
-12
-9
-6
-3
1
5
9
11
14
16
18
20
22
22
22
22
22
22
22
23
24
24
25
25
26
26
25
26
27
28
29
29
30
30
30
31
32
32
33
33
34
34
34
36
36
35
35
35
35
34
34
33
32
31
30
28
26
24
22
21
19
18
16
14
11
10
8
7
5
4
2
0
-1
-2
-2
-3
-4
-5
-5
-6
-7
-8
-8
-8
-8
-8
-9
-9
-10
-9
-8
-8
-8
-8
-9
-9
-9
-9
-9
-9
-9
-9
-10
-10
-10
-9
-8
-8
-9
-9
-10
-10
-10
-9
-8
-9
-10
-10
-10
-11
-12
-11
-10
-10
-10
-10
-11
-11
-11
-10
-10
-9
-8
-6
-6
-6
-5
-4
-4
-3
-3
-3
-5
-7
-8
-9
-10
-11
-13
-14
-15
-16
-15
-14
-14
-13
-13
-14
-15
-16
-15
-14
-14
-16
-17
-18
-18
-19
-18
-18
-17
-17
-18
-18
-19
-19
-18
-18
-19
-19
-18
-19
-21
-20
-16
-9
-4
-5
-15
-36
-57
-80
-100
-119
-131
-140
-143
-143
-144
-144
-139
-131
-118
-104
-96
-90
-86
-82
-75
-81
-64
-59
-56
-52
-44
-37
-32
-27
-22
-18
-16
-14
-12
-9
-5
-1
2
6
9
11
13
14
14
15
15
16
16
15
15
16
17
18
18
19
19
19
20
21
22
23
23
23
24
25
27
28
29
29
30
30
30
30
31
32
33
33
32
32
31
31
30
29
28
26
24
22
21
19
18
16
14
12
10
8
6
4
3
2
0
-1
-3
-5
-6
-6
-7
-8
-9
-10
-10
-11
-11
-12
-12
-12
-12
-13
-13
-14
-14
-13
-13
-13
-13
-14
-14
-14
-14
-14
-14
-14
-14
-14
-14
-15
-15
-14
-14
-13
-13
-14
-14
-15
-15
-15
-15
-14
-15
-15
-15
-15
-15
-15
-15
-15
-15
-15
-15
-15
-15
-14
-13
-13
-12
-12
-11
-9
-8
-6
-5
-5
-6
-8
-10
-11
-12
-12
-13
-14
-16
-18
-19
-19
-18
-18
-18
-18
-17
-18
-18
-17
-17
-18
-19
-21
-22
-23
-22
-21
-21
-21
-21
-21
-21
-22
-22
-21
-21
-21
-21
-22
-22
-23
-23
-23
-22
-19
-15
-18
-25
-43
-64
-90
-118
-137
-155
-158
-160
-159
-156
-152
-148
-138
-127
-117
-107
-103
-100
-96
-91
-85
-80
-75
-70
-65
-58
-49
-42
-36
-31
-26
-21
-16
-13
-10
-7
-3
1
5
10
14
17
20
21
21
21
21
21
21
22
22
23
24
24
23
24
25
26
27
27
27
27
27
28
29
29
30
30
31
31
31
31
32
33
34
34
33
32
31
31
31
31
30
30
28
26
25
24
22
20
18
16
13
11
10
8
7
5
3
0
-2
-4
-4
-5
-6
-8
-8
-9
-10
-11
-11
-12
-12
-11
-12
-13
-13
-14
-14
-13
-13
-13
-13
-13
-13
-14
-14
-13
-13
-13
-13
-12
-12
-13
-12
-12
-12
-12
-12
-12
-13
-13
-12
-12
-12
-12
-13
-13
-14
-14
-13
-13
-13
-13
-13
-13
-14
-14
-13
-13
-13
-12
-11
-11
-9
-8
-6
-4
-3
-3
-5
-6
-8
-10
-11
-11
-12
-14
-16
-18
-18
-18
-17
-16
-16
-16
-16
-16
-16
-16
-16
-17
-19
-20
-21
-22
-21
-20
-20
-20
-20
-20
-20
-21
-21
-21
-21
-20
-20
-21
-22
-23
-23
-22
-22
-17
-12
-18
-25
-48
-72
-102
-129
-145
-159
-162
-164
-161
-158
-153
-146
-135
-125
-115
-107
-103
-98
-94
-88
-82
-76
-71
-66
-61
-54
-46
-39
-33
-28
-23
-18
-14
-11
-8
-3
1
6
11
15
20
21
23
23
24
24
24
24
25
25
26
26
27
27
27
27
28
29
30
30
31
31
31
32
33
34
35
35
36
36
35
35
36
37
38
38
38
38
37
37
37
37
34
33
32
30
29
27
26
25
23
21
18
16
15
13
11
9
7
5
3
2
0
-1
-1
-2
-3
-4
-6
-7
-7
-7
-7
-7
-7
-8
-8
-9
-9
-8
-8
-9
-9
-9
-10
-10
-9
-9
-8
-8
-8
-8
-9
-9
-8
-8
-8
-8
-8
-8
-9
-9
-8
-8
-8
-8
-9
-9
-9
-9
-9
-9
-8
-8
-9
-9
-9
-9
-8
-8
-9
-8
-7
-7
-6
-4
-3
-2
-1
0
0
0
-1
-3
-4
-5
-6
-8
-10
-12
-12
-12
-12
-11
-11
-11
-11
-10
-10
-11
-11
-10
-11
-13
-14
-15
-15
-15
-14
-13
-13
-14
-14
-15
-15
-14
-14
-14
-14
-15
-16
-16
-15
-15
-15
-9
-4
-3
-7
-24
-45
-70
-94
-117
-135
-144
-150
-150
-150
-150
-145
-138
-127
-114
-103
-94
-89
-85
-79
-74
-67
-61
-56
-51
-45
-38
-32
-27
-21
-16
-13
-9
-7
-4
-1
2
6
10
14
18
20
22
22
23
24
25
25
25
25
26
26
26
27
28
28
29
30
31
31
32
32
32
33
34
35
36
36
36
37
38
39
40
41
41
41
41
40
40
39
39
40
39
37
36
35
34
33
31
30
28
25
23
21
20
18
15
14
12
10
9
7
5
4
4
3
2
1
1
0
0
-1
-1
-2
-3
-3
-3
-3
-3
-3
-3
-3
-4
-4
-4
-4
-3
-3
-2
-2
-3
-3
-4
-4
-3
-3
-3
-3
-3
-3
-4
-3
-2
-2
-3
-3
-3
-3
-4
-4
-3
-3
-3
-3
-4
-5
-5
-4
-4
-3
-3
-4
-4
-4
-3
-1
0
1
1
0
1
2
3
4
4
3
1
0
-2
-3
-3
-4
-6
-7
-7
-8
-8
-8
-7
-6
-6
-6
-6
-6
-7
-8
-9
-9
-10
-10
-10
-10
-11
-11
-10
-10
-10
-10
-11
-11
-11
-11
-11
-11
-11
-11
-12
-12
-10
-3
1
1
-13
-34
-57
-82
-102
-120
-131
-140
-142
-142
-141
-140
-132
-124
-112
-123
-93
-87
-83
-79
-72
-65
-59
-54
-50
-46
-39
-32
-26
-20
-15
-10
-7
-4
-2
1
6
10
15
20
24
26
27
28
29
30
30
31
31
31
31
32
32
33
34
35
35
36
37
38
39
39
40
41
42
42
42
43
44
44
45
45
45
45
45
45
45
45
45
44
43
41
40
40
38
36
34
33
31
29
27
26
24
22
19
17
15
13
12
10
10
9
8
6
4
2
2
1
1
0
0
-1
-2
-3
-3
-2
-2
-2
-2
-3
-3
-4
-4
-3
-3
-3
-3
-3
-3
-4
-4
-3
-3
-3
-3
-4
-4
-4
-4
-3
-3
-3
-3
-4
-5
-5
-5
-5
-4
-4
-5
-5
-5
-5
-5
-5
-4
-4
-5
-5
-5
-4
-3
-1
0
0
1
1
3
4
5
5
5
4
1
-1
-2
-2
-2
-3
-5
-7
-8
-7
-7
-7
-6
-5
-5
-5
-5
-6
-6
-7
-8
-9
-9
-10
-10
-11
-11
-10
-10
-10
-10
-10
-10
-11
-11
-10
-10
-10
-10
-11
-11
-11
-10
-6
-2
-11
-23
-48
-75
-104
-133
-143
-153
-152
-151
-150
-148
-141
-132
-121
-110
-102
-95
-92
-88
-82
-75
-68
-61
-57
-51
-45
-38
-31
-24
-18
-13
-9
-6
-3
0
4
9
14
20
25
28
30
31
31
32
32
33
33
33
33
34
35
35
36
36
37
37
37
38
39
39
40
40
41
41
41
42
43
43
44
44
44
44
45
45
46
46
45
45
44
43
42
42
41
40
38
37
34
32
30
28
27
25
23
21
18
16
15
13
12
11
9
7
5
4
4
3
3
2
1
0
-1
-2
-2
-1
-1
-1
-1
-1
-1
-2
-2
-1
-1
-1
-1
-2
-2
-2
-2
-2
-1
-1
-1
-2
-3
-3
-2
-2
-2
-2
-2
-2
-3
-3
-2
-2
-1
-1
-2
-2
-3
-3
-3
-3
-3
-3
-4
-4
-4
-4
-3
-2
-1
-1
0
1
2
2
4
3
6
5
4
2
1
-1
-1
-2
-3
-5
-6
-8
-8
-7
-7
-6
-6
-5
-5
-6
-6
-6
-6
-7
-9
-10
-10
-11
-11
-10
-10
-9
-9
-10
-10
-11
-11
-11
-11
-10
-10
-12
-13
-13
-12
-7
-2
-4
-9
-31
-54
-83
-110
-131
-147
-152
-155
-154
-152
-147
-140
-130
-119
-108
-101
-97
-92
-87
-80
-74
-67
-61
-55
-50
-42
-34
-27
-21
-16
-11
-8
-5
-1
3
7
11
16
21
25
29
30
32
32
33
33
33
33
33
33
34
35
36
36
36
36
36
37
38
38
39
39
40
40
41
41
42
43
44
44
44
44
44
44
45
45
45
45
44
43
43
43
42
41
40
39
37
35
33
31
30
29
27
24
22
20
17
16
15
14
12
10
8
7
7
6
6
5
4
3
3
2
2
1
1
2
1
0
-1
-1
0
0
0
0
0
0
-1
-1
0
0
0
0
0
0
-1
-1
0
0
1
1
0
0
-1
-1
-1
-1
0
0
0
0
-1
-1
0
0
-1
-1
-1
-1
-1
-2
-1
0
0
0
1
2
2
2
3
5
6
7
7
6
6
6
4
3
1
0
-2
-3
-4
-5
-4
-3
-3
-4
-4
-4
-4
-4
-4
-4
-4
-5
-6
-7
-7
-7
-7
-7
-7
-7
-8
-8
-8
-8
-8
-8
-7
-8
-9
-9
-8
-8
-8
-3
1
5
1
-14
-34
-60
-84
-109
-124
-133
-137
-137
-136
-137
-134
-127
-116
-104
-94
-85
-80
-76
-70
-64
-57
-51
-47
-43
-36
-30
-25
-20
-15
-11
-7
-3
-1
1
4
6
8
12
17
21
23
25
26
27
27
28
28
28
29
30
30
29
29
30
31
32
33
34
34
33
34
35
36
37
38
39
40
40
41
42
43
43
43
43
44
44
44
44
43
43
44
42
41
40
39
38
37
35
33
31
29
26
24
22
21
20
18
17
14
12
11
11
10
11
7
6
5
3
3
3
3
3
2
1
1
1
1
1
1
1
1
0
0
-1
0
1
1
0
0
0
0
0
0
0
0
0
0
0
0
-1
-1
0
0
1
1
0
-1
-1
-1
-1
0
0
-1
-1
-2
-2
-2
-2
-1
-1
-2
-2
-1
0
1
2
3
3
3
3
4
6
7
7
5
3
2
1
0
-1
-3
-4
-5
-5
-6
-6
-6
-4
-4
-4
-4
-5
-5
-5
-6
-7
-8
-9
-9
-9
-9
-10
-9
-8
-8
-8
-8
-9
-9
-9
-9
-9
-9
-9
-9
-10
-10
-6
-1
-4
-10
-31
-56
-85
-114
-130
-145
-146
-146
-144
-143
-139
-135
-125
-116
-104
-94
-90
-86
-82
-76
-69
-63
-57
-52
-47
-42
-35
-28
-22
-16
-10
-6
-3
0
2
5
9
14
19
24
28
30
31
32
33
34
34
34
34
35
35
36
37
37
38
38
39
39
39
40
42
43
44
44
44
44
45
46
47
48
49
49
49
49
48
48
48
48
48
47
46
45
44
43
42
41
39
37
34
32
31
29
27
25
23
21
19
16
15
13
12
11
10
8
7
5
5
5
4
3
3
2
2
1
1
1
1
0
0
0
0
-1
-1
-1
-1
0
0
0
0
-1
-1
-1
-1
-1
-1
-1
-2
-2
-1
-1
-1
-1
-2
-2
-1
-1
-1
-1
-1
-1
-1
-1
-2
-2
-2
-2
-2
-2
-1
-1
-1
-1
1
2
3
3
4
4
6
7
8
8
6
4
2
0
0
-1
-2
-4
-4
-5
-5
-5
-4
-3
-3
-2
-3
-4
-4
-5
-5
-6
-6
-7
-7
-8
-8
-9
-8
-7
-7
-7
-7
-8
-8
-9
-9
-8
-8
-9
-9
-10
-10
-6
0
-4
-10
-31
-53
-85
-115
-134
-150
-151
-152
-151
-148
-144
-138
-128
-117
-104
-96
-93
-90
-85
-80
-73
-66
-60
-55
-50
-43
-36
-29
-23
-16
-10
-6
-3
-1
1
5
9
14
10
24
29
30
32
32
33
34
35
35
35
35
35
35
36
37
38
38
38
38
38
39
40
41
42
42
42
42
43
43
44
45
46
46
46
46
46
46
46
46
45
45
44
43
42
41
40
39
37
35
33
31
30
28
26
24
22
20
17
15
13
12
11
10
8
7
5
4
4
4
3
2
2
1
1
0
0
-1
-1
-1
-1
-1
-1
-2
-2
-2
-1
-1
-1
-1
-2
-2
-1
-1
-1
-1
-1
-1
-2
-1
0
0
-1
-1
-1
-1
-1
-1
-1
-1
-1
-1
-1
-2
-3
-3
-2
-2
-2
-2
-2
-2
-2
-1
0
0
2
4
4
5
6
7
6
5
3
1
0
-1
-2
-4
-5
-6
-6
-7
-7
-7
-6
-5
-5
-5
-5
-5
-6
-7
-8
-9
-9
-10
-10
-10
-10
-11
-11
-10
-10
-10
-10
-11
-12
-12
-12
-12
-12
-12
-13
-12
-9
-5
-3
-12
-26
-53
-81
-112
-135
-148
-156
-156
-157
-156
-152
-144
-134
-120
-109
-99
-93
-90
-86
-81
-74
-67
-61
-55
-49
-43
-36
-30
-24
-17
-12
-6
-4
-1
1
4
8
12
16
20
22
24
24
25
27
28
28
28
28
29
29
29
29
30
31
32
32
32
32
32
32
33
34
35
35
36
36
36
36
38
37
40
40
40
39
39
40
40
39
39
38
38
37
36
34
34
33
31
29
27
25
23
21
19
17
15
13
11
9
8
7
7
5
4
2
0
-1
-1
-1
-1
-1
-1
-3
-4
-4
-4
-4
-4
-4
-4
-4
-5
-5
-5
-5
-4
-4
-4
-4
-5
-5
-5
-5
-5
-5
-4
-4
-5
-5
-6
-6
-5
-5
-4
-5
-6
-6
-5
-5
-4
-5
-6
-6
-6
-6
-6
-5
-5
-6
-6
-6
-6
-5
-4
-2
-2
-1
-1
-1
1
2
2
2
1
0
-3
-4
-4
-5
-6
-7
-9
-10
-10
-10
-10
-9
-9
-8
-9
-10
-9
-9
-10
-11
-11
-12
-14
-14
-14
-14
-13
-12
-11
-12
-13
-13
-14
-14
-13
-13
-13
-13
-13
-13
-13
-10
-5
2
-1
-14
-33
-56
-79
-101
-117
-130
-136
-139
-141
-142
-139
-133
-119
-104
-96
-88
-84
-80
-74
-67
-61
-56
-52
-48
-42
-36
-29
-23
-18
-13
-10
-7
-5
-3
0
3
7
11
15
17
18
19
20
21
21
22
22
22
22
23
23
24
25
26
26
26
26
27
29
30
32
32
32
32
33
34
35
35
36
36
37
37
37
37
38
38
39
39
38
37
36
36
35
34
33
31
29
26
25
24
22
21
18
16
14
13
11
10
8
9
5
4
2
0
0
0
0
-1
-2
-3
-4
-5
-5
-5
-5
-5
-5
-5
-5
-5
-5
-5
-5
-5
-5
-6
-6
-6
-6
-5
-5
-5
-5
-5
-5
-6
-6
-5
-5
-4
-4
-5
-5
-5
-5
-5
-5
-5
-5
-6
-7
-6
-5
-5
-5
-5
-6
-6
-7
-6
-5
-4
-3
-3
-2
-2
-1
1
2
3
4
3
1
-1
-2
-2
-3
-4
-6
-7
-9
-10
-11
-9
-9
-8
-8
-7
-7
-8
-8
-8
-9
-10
-11
-12
-12
-12
-12
-12
-12
-11
-11
-11
-11
-12
-12
-13
-13
-13
-13
-13
-14
-14
-12
-8
-3
-10
-20
-42
-66
-95
-125
-140
-127
-154
-153
-152
-150
-142
-134
-122
-111
-102
-95
-92
-89
-84
-78
-72
-66
-61
-56
-49
-42
-34
-27
-20
-15
-9
-6
-3
0
3
7
11
15
20
23
25
27
28
29
29
30
30
30
31
31
32
33
34
34
34
34
35
35
36
37
38
38
38
38
39
39
40
40
41
41
42
42
42
42
43
43
44
44
43
42
41
41
40
39
37
36
34
33
31
29
27
25
23
21
19
16
15
13
12
10
9
7
5
3
3
2
2
2
1
0
-1
-2
-2
-2
-2
-2
-2
-3
-3
-4
-4
-3
-3
-3
-3
-2
-3
-4
-4
-3
-3
-3
-3
-3
-4
-4
-3
-3
-3
-3
-3
-3
-4
-3
-2
-2
-3
-3
-4
-4
-5
-5
-4
-4
-4
-4
-4
-4
-4
-3
-2
-2
0
1
2
2
3
4
5
5
4
2
0
-2
-2
-3
-4
-6
-7
-8
-8
-8
-8
-9
-8
-6
-6
-7
-7
-8
-8
-9
-11
-12
-12
-12
-12
-13
-13
-12
-12
-12
-12
-12
-12
-12
-12
-12
-12
-12
-12
-13
-14
-10
-3
-7
-13
-34
-57
-86
-115
-134
-150
-153
-155
-154
-151
-147
-139
-127
-116
-106
-99
-95
-91
-86
-81
-75
-69
-64
-59
-54
-47
-38
-31
-24
-18
-13
-9
-6
-3
-1
3
7
13
8
24
28
28
29
29
30
30
31
31
32
32
32
32
33
33
34
34
34
34
34
36
37
37
38
38
39
39
40
40
41
41
42
42
42
42
42
42
43
43
43
43
41
40
39
38
37
36
35
33
31
29
28
26
25
23
20
18
16
14
12
11
10
8
6
5
3
2
2
1
1
0
0
-1
-2
-3
-3
-3
-3
-2
-2
-3
-4
-5
-3
-3
-3
-3
-3
-3
-4
-4
-3
-3
-3
-3
-4
-4
-4
-4
-3
-3
-3
-3
-3
-4
-5
-5
-4
-4
-4
-4
-4
-4
-5
-5
-5
-5
-4
-4
-5
-5
-3
-2
-1
-1
0
0
1
3
3
4
2
0
-1
-2
-3
-4
-5
-7
-8
-9
-9
-8
-8
-9
-7
-6
-6
-7
-7
-7
-9
-10
-11
-12
-12
-12
-12
-12
-12
-12
-12
-11
-11
-11
-11
-12
-12
-12
-13
-13
-12
-13
-13
-7
-2
-2
-6
-25
-47
-74
-99
-120
-135
-143
-147
-147
-146
-146
-141
-132
-119
-104
-95
-88
-84
-80
-74
-68
-62
-56
-51
-47
-40
-33
-28
-23
-18
-12
-9
-6
-5
-3
-1
2
6
10
15
19
20
22
22
22
22
23
24
25
25
25
25
25
26
27
27
27
27
28
28
29
30
31
32
33
33
34
34
34
35
36
36
37
37
37
37
37
38
38
39
38
37
36
35
34
32
32
31
29
27
24
22
21
19
17
15
13
11
9
8
7
6
5
3
2
1
0
-1
-2
-3
-3
-4
-4
-4
-6
-6
-5
-5
-5
-5
-5
-6
-7
-7
-7
-7
-6
-6
-7
-7
-7
-7
-7
-7
-6
-6
-7
-7
-8
-8
-8
-7
-6
-6
-7
-7
-7
-7
-8
-8
-7
-7
-8
-8
-8
-8
-8
-7
-7
-8
-8
-8
-6
-4
-4
-4
-4
-5
-5
-5
-6
-9
-14
-18
-22
-25
-25
-22
-17
-14
-15
-14
-10
-8
-8
-7
-3
-2
-2
0
4
0
-6
-7
-6
-7
-5
-12
-14
-20
-26
-25
-24
-22
-20
-20
-19
-19
-20
-20
-20
-20
-19
-19
-20
-21
-22
-21
-20
-20
-21
-21
-20
-20
-21
-21
-21
-21
-20
-20
-20
-20
-21
-20
-19
-19
-19
-19
-19
-19
-19
-19
-19
-18
-18
-19
-19
-19
-19
-18
-18
-18
-18
-18
-18
-18
-17
-16
-16
-15
-15
-15
-15
-15
-14
-13
-12
-11
-11
-11
-11
-11
-10
-9
-9
-9
-9
-9
-9
-9
-8
-8
-8
-8
-8
-8
-8
-8
-8
-8
-8
-8
-9
-9
-10
-9
-8
-8
-8
-8
-9
-9
-10
-10
-10
-10
-10
-10
-10
-10
-11
-11
-11
-11
-10
-10
-10
-10
-11
-11
-10
-10
-9
-10
-10
-11
-11
-10
-10
-9
-9
-9
-9
-10
-10
-9
-9
-9
-9
-9
-9
-10
-10
-9
-9
-8
-8
-8
-8
-9
-9
-8
-8
-8
-8
-8
-8
-9
-9
-8
-8
-7
-7
-8
-8
-8
-8
-8
-7
-7
-7
-7
-8
-8
-7
-6
-5
-5
-5
-4
-2
0
3
7
11
14
17
19
23
27
30
33
38
45
54
65
72
77
79
80
80
79
78
77
76
74
74
73
69
65
57
49
40
30
11
-8
-26
-42
-52
-60
-63
-63
-57
-49
-40
-37
-41
-46
-51
-53
-53
-52
-52
-52
-52
-52
-52
-52
-52
-52
-52
-53
-53
-53
-53
-53
-53
-53
-53
-54
-55
-55
-55
-55
-54
-54
-55
-55
-56
-56
-56
-56
-55
-55
-55
-55
-54
-53
-52
-51
-50
-49
-48
-48
-46
-45
-43
-41
-40
-39
-37
-36
-33
-31
-29
-27
-25
-24
-22
-21
-19
-16
-15
-13
-12
-11
-11
-10
-9
-7
-6
-5
-5
-5
-5
-5
-5
-4
-4
-3
-3
-3
-4
-5
-5
-4
-4
-3
-4
-5
-5
-6
-6
-5
-5
-5
-5
-6
-6
-7
-6
-6
-6
-6
-6
-6
-7
-7
-6
-6
-5
-5
-6
-6
-6
-6
-6
-6
-5
-5
-5
-5
-6
-6
-5
-5
-4
-4
-5
-5
-6
-6
-5
-5
-4
-4
-5
-5
-6
-6
-5
-5
-5
-6
-6
-6
-6
-5
-5
-5
-5
-5
-5
-6
-6
-5
-5
-5
-5
-6
-6
-6
-6
-5
-5
-4
-3
-2
-2
0
1
2
3
4
4
4
3
2
1
0
0
-2
-3
-5
-6
-6
-7
-7
-7
-7
-7
-7
-7
-7
-6
-6
-6
-8
-9
-10
-11
-11
-12
-12
-11
-11
-11
-11
-12
-12
-11
-11
-12
-12
-12
-12
-13
-13
-13
-13
-10
-4
-6
-10
-29
-49
-76
-103
-124
-144
-150
-156
-155
-154
-149
-143
-132
-121
-109
-100
-96
-92
-87
-82
-76
-71
-65
-60
-54
-46
-38
-31
-25
-20
-15
-11
-7
-4
-1
2
5
9
14
18
21
23
22
26
26
26
26
27
28
28
29
29
30
30
29
29
30
32
33
33
33
33
33
34
35
35
36
36
37
37
37
38
39
39
39
39
40
40
39
39
39
39
39
38
36
34
33
32
31
30
29
27
25
23
21
19
18
16
14
12
9
7
6
5
5
4
2
1
-1
-2
-2
-3
-3
-3
-3
-4
-5
-6
-6
-5
-5
-5
-5
-6
-6
-7
-5
-5
-5
-5
-5
-5
-6
-6
-6
-6
-5
-5
-5
-5
-6
-6
-6
-6
-5
-5
-5
-6
-7
-7
-6
-6
-5
-6
-7
-7
-7
-7
-7
-6
-5
-4
-3
-3
-3
-2
-1
-1
1
0
-1
-2
-2
-3
-4
-6
-7
-8
-9
-11
-11
-11
-11
-11
-11
-10
-10
-11
-11
-11
-11
-11
-12
-13
-14
-15
-15
-15
-15
-14
-14
-15
-15
-16
-15
-14
-14
-15
-15
-15
-16
-16
-16
-15
-13
-5
1
-4
-12
-35
-58
-81
-103
-119
-132
-138
-142
-142
-142
-140
-132
-120
-108
-96
-89
-84
-79
-74
-69
-63
-59
-55
-50
-45
-39
-31
-26
-21
-17
-13
-11
-8
-5
-1
2
5
8
12
14
16
17
19
18
17
17
18
19
20
20
20
21
22
22
21
23
24
24
25
25
25
25
26
27
28
29
30
30
30
30
31
31
32
32
34
34
33
32
32
33
32
31
30
29
28
26
25
23
21
20
18
16
14
12
10
9
7
5
3
2
0
-1
-1
-2
-3
-4
-5
-6
-7
-8
-8
-7
-7
-8
-8
-9
-9
-9
-9
-9
-10
-10
-10
-11
-12
-11
-10
-10
-10
-10
-11
-11
-11
-11
-11
-11
-10
-10
-11
-11
-12
-11
-10
-10
-11
-11
-11
-11
-11
-11
-11
-11
-11
-11
-12
-12
-13
-11
-11
-10
-9
-8
-8
-7
-6
-5
-4
-2
-2
-3
-4
-6
-7
-8
-8
-8
-10
-12
-14
-15
-15
-14
-14
-14
-14
-13
-13
-14
-14
-13
-13
-15
-16
-17
-17
-18
-18
-17
-17
-17
-17
-18
-19
-18
-17
-17
-17
-17
-18
-19
-20
-20
-19
-15
-12
-10
-14
-27
-45
-70
-97
-124
-143
-153
-158
-157
-155
-154
-148
-140
-130
-118
-109
-100
-96
-93
-87
-81
-75
-70
-66
-63
-55
-47
-40
-34
-28
-23
-19
-15
-12
-9
-5
-1
4
8
13
16
18
20
22
23
23
22
22
22
22
23
24
25
25
25
25
25
26
27
27
28
28
29
29
29
30
31
32
32
31
31
32
32
33
33
34
34
33
33
32
32
31
31
30
28
27
26
25
23
22
20
18
16
14
11
9
8
6
5
3
2
0
-2
-3
-4
-5
-5
-8
-9
-10
-11
-11
-10
-10
-10
-10
-11
-11
-12
-12
-11
-11
-12
-12
-12
-12
-13
-12
-11
-11
-10
-10
-10
-10
-9
-8
-6
-5
-3
0
1
2
6
9
11
12
12
11
9
8
8
8
7
5
7
9
8
8
14
19
18
17
15
12
9
5
0
-7
-15
-16
-10
-8
-11
-19
-29
-34
-38
-39
-39
-38
-38
-37
-36
-35
-35
-36
-36
-37
-37
-39
-41
-41
-41
-41
-42
-42
-42
-42
-42
-42
-42
-42
-42
-42
-43
-43
-42
-42
-43
-43
-43
-43
-43
-43
-43
-43
-42
-42
-42
-42
-43
-42
-41
-40
-39
-39
-39
-39
-38
-37
-35
-36
-33
-32
-32
-31
-30
-28
-27
-25
-25
-24
-23
-22
-21
-19
-18
-17
-16
-15
-15
-15
-14
-13
-13
-12
-12
-12
-12
-12
-11
-10
-10
-9
-9
-9
-9
-10
-9
-8
-8
-8
-8
-9
-9
-9
-8
-8
-8
-8
-9
-9
-9
-9
-8
-8
-8
-8
-8
-8
-8
-8
-8
-8
-8
-8
-8
-8
-9
-8
-7
-7
-7
-7
-7
-7
-8
-8
-8
-8
-7
-7
-8
-8
-8
-7
-7
-7
-7
-7
-7
-7
-7
-8
-8
-7
-7
-7
-7
-8
-8
-7
-7
-6
-6
-7
-7
-7
-7
-7
-7
-6
-6
-7
-7
-8
-8
-7
-7
-7
-7
-8
-8
-7
-7
-7
-7
-8
-9
-9
-9
-9
-8
-8
-8
-8
-8
-8
-7
-7
-8
-8
-7
-6
-5
-5
-4
-2
-1
0
1
2
3
2
0
-1
-2
-3
-5
-6
-8
-9
-10
-10
-10
-10
-9
-9
-9
-8
-8
-9
-9
-9
-10
-11
-12
-14
-14
-14
-13
-12
-12
-13
-13
-13
-13
-14
-14
-13
-13
-14
-14
-15
-15
-13
-10
-5
0
-5
-15
-39
-66
-94
-122
-137
-150
-151
-152
-152
-150
-141
-132
-119
-107
-98
-90
-86
-82
-77
-71
-65
-60
-57
-52
-45
-38
-31
-24
-20
-16
-13
-10
-8
-5
-2
1
4
8
12
15
18
19
19
20
20
21
21
20
21
22
22
23
24
24
23
23
24
25
26
26
26
26
26
27
28
29
30
30
31
31
31
32
33
34
35
35
34
34
35
35
35
35
35
35
34
33
32
32
32
31
29
28
25
23
22
20
19
18
16
14
11
9
9
8
7
5
4
3
1
0
0
-1
-1
-1
-3
-4
-4
-5
-5
-5
-5
-4
-4
-5
-5
-6
-6
-5
-5
-5
-5
-5
-5
-5
-5
-4
-3
-4
-5
-5
-5
-5
-4
-4
-5
-5
-5
-5
-6
-6
-5
-5
-5
-5
-6
-6
-7
-7
-6
-5
-4
-3
-2
-2
-3
-2
-1
0
1
0
-2
-3
-5
-6
-7
-7
-9
-11
-12
-14
-13
-12
-12
-11
-11
-11
-12
-14
-13
-12
-13
-14
-15
-16
-16
-16
-16
-16
-16
-15
-15
-16
-16
-16
-16
-17
-16
-15
-16
-17
-17
-18
-18
-11
-4
-2
-1
-17
-34
-57
-80
-100
-119
-129
-138
-139
-140
-140
-138
-129
-119
-106
-96
-91
-85
-80
-75
-70
-65
-59
-55
-52
-46
-38
-32
-25
-21
-17
-14
-13
-10
-8
-5
-2
2
5
7
9
11
14
15
17
17
17
17
17
17
18
19
20
20
20
20
20
22
23
23
24
24
25
25
25
26
27
28
29
29
30
30
30
31
32
32
33
33
32
32
31
31
31
31
29
27
25
23
22
21
20
19
16
14
12
10
9
7
6
5
3
1
-1
-2
-2
-3
-4
-5
-6
-7
-7
-8
-8
-8
-8
-8
-8
-9
-9
-10
-10
-9
-9
-9
-9
-10
-11
-11
-10
-10
-10
-10
-10
-11
-12
-11
-10
-10
-11
-11
-10
-10
-11
-11
-11
-11
-11
-11
-11
-11
-12
-12
-11
-11
-11
-11
-11
-11
-12
-11
-10
-9
-8
-7
-6
-6
-4
-2
-2
-2
-4
-7
-7
-8
-9
-10
-11
-12
-13
-15
-15
-15
-15
-14
-13
-12
-12
-13
-13
-13
-14
-15
-16
-17
-17
-18
-18
-18
-18
-17
-17
-17
-17
-18
-18
-18
-18
-17
-17
-18
-19
-19
-20
-15
-10
-11
-16
-32
-50
-75
-100
-124
-143
-150
-155
-153
-152
-150
-146
-138
-127
-114
-104
-99
-95
-92
-87
-81
-76
-70
-65
-60
-54
-48
-40
-33
-27
-22
-18
-14
-11
-8
-5
-2
4
9
13
16
18
20
21
23
23
24
24
23
23
24
24
25
25
26
26
27
27
27
28
29
29
30
30
30
30
31
31
32
32
33
33
34
34
33
35
35
35
35
34
33
32
31
30
30
29
28
26
24
22
21
20
18
17
15
12
10
8
6
5
3
2
0
-1
-2
-3
-4
-5
-5
-6
-6
-7
-7
-8
-8
-8
-8
-9
-9
-9
-10
-10
-9
-9
-8
-8
-9
-9
-9
-9
-9
-9
-9
-9
-10
-10
-10
-10
-9
-9
-10
-10
-10
-10
-10
-10
-10
-10
-10
-10
-11
-11
-11
-11
-11
-11
-10
-10
-9
-7
-7
-6
-5
-4
-3
-2
-2
-3
-5
-7
-7
-8
-9
-10
-12
-14
-15
-16
-15
-14
-14
-15
-15
-14
-14
-14
-14
-14
-15
-17
-18
-19
-19
-19
-19
-18
-18
-19
-19
-20
-19
-19
-19
-19
-20
-20
-20
-20
-21
-21
-21
-19
-17
-14
-15
-27
-44
-71
-98
-126
-144
-155
-160
-158
-157
-155
-150
-144
-134
-123
-114
-105
-101
-98
-93
-87
-81
-74
-69
-65
-58
-64
-44
-38
-33
-28
-22
-17
-15
-12
-9
-6
-2
3
7
11
16
19
20
21
21
20
20
21
21
22
22
23
23
23
24
25
25
26
26
27
27
27
28
29
29
30
30
31
31
31
32
33
34
34
33
33
33
33
33
33
32
31
30
28
27
26
25
23
20
18
16
14
13
11
10
8
6
5
3
0
-1
-2
-3
-4
-5
-6
-7
-8
-9
-9
-9
-10
-10
-11
-11
-12
-12
-12
-12
-12
-12
-12
-12
-13
-13
-13
-13
-13
-13
-13
-13
-13
-13
-13
-13
-12
-12
-12
-13
-14
-14
-13
-13
-13
-13
-13
-13
-14
-14
-14
-14
-13
-13
-14
-15
-14
-12
-11
-10
-10
-9
-9
-8
-7
-5
-5
-4
-5
-6
-8
-10
-10
-10
-12
-13
-15
-16
-16
-17
-17
-16
-16
-15
-15
-16
-16
-16
-16
-16
-16
-18
-19
-20
-20
-20
-19
-19
-19
-19
-19
-19
-20
-20
-20
-20
-19
-20
-21
-21
-21
-22
-20
-14
-10
-10
-21
-41
-65
-92
-115
-136
-147
-153
-155
-154
-151
-149
-139
-128
-115
-102
-98
-95
-90
-84
-78
-72
-67
-62
-59
-54
-45
-37
-32
-26
-22
-18
-16
-14
-11
-8
-5
-2
2
5
9
11
13
14
15
16
16
16
16
16
16
17
17
18
18
19
19
19
20
21
21
22
23
23
23
24
25
26
27
27
28
28
28
28
29
29
30
30
30
29
28
28
29
28
26
24
23
22
20
18
17
16
14
11
8
5
4
4
2
0
-1
-2
-4
-6
-7
-8
-8
-9
-10
-12
-12
-13
-13
-13
-13
-12
-13
-14
-14
-13
-13
-14
-14
-13
-13
-14
-14
-15
-14
-13
-13
-13
-13
-14
-14
-14
-14
-14
-14
-14
-14
-13
-14
-15
-14
-14
-14
-14
-14
-14
-14
-14
-14
-14
-15
-15
-15
-15
-15
-13
-12
-12
-11
-11
-11
-10
-9
-7
-6
-6
-7
-8
-10
-12
-13
-13
-15
-16
-17
-17
-18
-18
-18
-18
-19
-19
-17
-18
-18
-19
-19
-18
-19
-21
-21
-22
-22
-22
-22
-21
-21
-21
-21
-21
-22
-23
-23
-22
-22
-22
-22
-23
-23
-22
-18
-13
-7
-13
-23
-45
-69
-92
-114
-127
