-361
-360
-359
-363
-363
-361
-368
-376
-381
-382
-390
-398
-402
-404
-408
-412
-409
-410
-411
-411
-421
-422
-415
-411
-409
-412
-415
-420
-415
-404
-405
-409
-411
-413
-414
-410
-411
-414
-411
-406
-409
-412
-411
-417
-423
-427
-427
-427
-429
-431
-428
-431
-440
-446
-445
-438
-434
-431
-431
-428
-431
-439
-444
-450
-451
-450
-448
-446
-448
-450
-457
-465
-466
-466
-465
-455
-446
-435
-427
-419
-420
-418
-419
-414
-411
-412
-409
-409
-408
-411
-419
-426
-431
-433
-429
-424
-412
-400
-407
-452
-522
-573
-601
-615
-618
-612
-600
-577
-544
-485
-427
-371
-327
-310
-321
-334
-335
-339
-344
-350
-356
-358
-365
-368
-377
-384
-390
-394
-400
-402
-404
-412
-417
-422
-427
-431
-435
-436
-440
-439
-439
-439
-439
-445
-447
-453
-454
-454
-455
-458
-463
-465
-473
-477
-482
-492
-498
-503
-508
-513
-514
-519
-520
-519
-522
-523
-523
-519
-508
-499
-488
-469
-454
-441
-429
-417
-406
-398
-390
-384
-380
-376
-377
-377
-375
-376
-379
-381
-382
-387
-392
-396
-396
-403
-406
-407
-410
-411
-414
-415
-419
-419
-422
-424
-427
-427
-427
-426
-423
-425
-425
-425
-425
-428
-431
-432
-430
-431
-431
-430
-429
-427
-428
-428
-427
-427
-427
-427
-427
-429
-430
-430
-430
-430
-427
-428
-431
-430
-427
-425
-433
-442
-450
-450
-455
-459
-459
-453
-447
-447
-451
-458
-465
-465
-458
-451
-450
-442
-435
-428
-423
-417
-415
-411
-411
-414
-419
-422
-423
-423
-419
-417
-423
-428
-436
-441
-437
-427
-419
-442
-500
-560
-596
-615
-623
-622
-612
-588
-549
-485
-411
-352
-314
-296
-304
-321
-331
-338
-346
-352
-360
-359
-373
-381
-388
-395
-400
-407
-415
-420
-425
-430
-433
-433
-435
-439
-441
-442
-448
-446
-450
-454
-454
-454
-455
-456
-459
-459
-465
-468
-473
-475
-480
-488
-493
-500
-510
-517
-524
-532
-538
-538
-538
-538
-538
-535
-531
-522
-511
-498
-485
-471
-459
-445
-433
-420
-404
-392
-384
-376
-369
-368
-370
-370
-365
-369
-373
-376
-379
-380
-385
-388
-395
-399
-403
-406
-405
-406
-411
-417
-420
-420
-417
-419
-420
-419
-422
-421
-422
-420
-421
-421
-421
-419
-419
-419
-423
-423
-423
-422
-420
-417
-419
-419
-419
-419
-419
-422
-422
-422
-425
-427
-425
-424
-422
-423
-426
-430
-433
-437
-442
-441
-442
-446
-447
-447
-445
-447
-450
-452
-453
-454
-452
-450
-446
-442
-436
-428
-424
-418
-412
-411
-411
-411
-414
-415
-417
-420
-423
-423
-424
-427
-429
-428
-427
-419
-417
-431
-483
-545
-586
-608
-618
-619
-611
-592
-542
-454
-367
-309
-279
-268
-278
-301
-327
-339
-346
-353
-360
-368
-373
-381
-388
-395
-404
-413
-418
-423
-425
-431
-435
-436
-438
-442
-445
-446
-446
-450
-452
-454
-458
-456
-456
-457
-458
-462
-465
-468
-473
-477
-481
-485
-492
-498
-511
-517
-522
-528
-536
-538
-539
-538
-538
-535
-531
-522
-511
-500
-486
-468
-453
-437
-423
-410
-394
-381
-373
-366
-361
-358
-355
-354
-357
-358
-364
-366
-367
-372
-377
-384
-389
-395
-399
-404
-410
-414
-414
-415
-417
-419
-419
-420
-419
-417
-417
-419
-415
-418
-413
-417
-419
-420
-419
-417
-419
-421
-422
-420
-419
-420
-424
-427
-425
-425
-425
-425
-424
-425
-423
-423
-423
-424
-429
-431
-435
-435
-439
-442
-443
-441
-443
-446
-445
-444
-447
-450
-454
-460
-460
-455
-450
-444
-439
-435
-428
-422
-417
-415
-411
-408
-408
-407
-407
-411
-415
-417
-418
-422
-425
-425
-425
-420
-408
-409
-440
-506
-566
-600
-619
-623
-622
-614
-588
-536
-447
-366
-311
-285
-275
-283
-308
-328
-341
-349
-355
-363
-371
-377
-384
-390
-396
-403
-408
-411
-414
-419
-425
-431
-435
-439
-442
-444
-444
-447
-450
-452
-453
-453
-456
-459
-461
-465
-466
-465
-471
-474
-477
-477
-482
-488
-498
-506
-515
-522
-529
-531
-533
-536
-536
-538
-539
-533
-527
-516
-507
-493
-478
-461
-450
-434
-417
-400
-386
-376
-368
-364
-363
-360
-359
-363
-361
-363
-363
-366
-372
-377
-383
-386
-392
-397
-400
-404
-409
-414
-416
-420
-422
-423
-423
-423
-419
-419
-418
-417
-415
-417
-417
-415
-415
-414
-410
-406
-408
-407
-411
-410
-409
-412
-415
-417
-418
-417
-419
-420
-420
-420
-422
-423
-427
-427
-427
-428
-428
-431
-434
-434
-435
-442
-446
-446
-450
-453
-454
-450
-448
-447
-450
-455
-459
-457
-455
-450
-443
-436
-435
-428
-421
-417
-415
-411
-406
-407
-409
-411
-412
-413
-418
-419
-423
-427
-427
-425
-419
-408
-403
-435
-503
-565
-601
-620
-627
-623
-619
-599
-564
-501
-428
-368
-320
-301
-301
-314
-323
-331
-336
-338
-349
-357
-364
-373
-381
-385
-385
-390
-397
-405
-411
-415
-422
-428
-431
-435
-440
-441
-445
-447
-450
-455
-457
-458
-459
-459
-463
-465
-466
-469
-470
-473
-479
-482
-488
-490
-498
-506
-514
-520
-524
-528
-532
-535
-538
-539
-538
-535
-524
-514
-501
-490
-474
-460
-444
-433
-422
-408
-394
-386
-382
-373
-373
-374
-374
-373
-372
-373
-377
-379
-384
-389
-392
-395
-397
-396
-404
-407
-412
-415
-419
-420
-420
-423
-425
-425
-423
-419
-419
-420
-421
-419
-417
-416
-417
-417
-418
-417
-415
-415
-415
-416
-415
-415
-415
-413
-416
-417
-420
-420
-419
-420
-421
-422
-423
-427
-427
-427
-427
-427
-431
-435
-433
-434
-434
-435
-435
-436
-438
-440
-440
-444
-450
-458
-461
-459
-465
-463
-462
-458
-457
-458
-460
-466
-466
-466
-462
-456
-450
-442
-439
-433
-428
-423
-419
-411
-408
-407
-410
-411
-413
-417
-419
-419
-419
-419
-419
-420
-413
-399
-400
-439
-504
-564
-596
-611
-617
-612
-600
-573
-527
-455
-390
-339
-307
-293
-303
-319
-327
-330
-334
-338
-345
-354
-361
-369
-373
-380
-388
-393
-399
-402
-407
-414
-419
-419
-423
-428
-431
-433
-436
-441
-442
-446
-447
-450
-453
-457
-459
-459
-459
-459
-461
-468
-473
-479
-482
-485
-493
-501
-510
-515
-522
-524
-527
-528
-528
-527
-524
-517
-503
-492
-479
-465
-454
-441
-427
-417
-406
-395
-386
-381
-378
-376
-373
-370
-372
-373
-377
-377
-381
-383
-387
-390
-396
-398
-399
-399
-402
-408
-411
-412
-415
-417
-418
-418
-420
-421
-422
-422
-421
-420
-419
-415
-412
-415
-419
-422
-415
-411
-412
-411
-414
-414
-415
-417
-419
-422
-423
-423
-421
-420
-422
-424
-425
-425
-428
-433
-434
-431
-433
-431
-433
-438
-440
-441
-444
-447
-447
-447
-453
-455
-457
-453
-452
-452
-450
-453
-450
-452
-456
-460
-463
-460
-459
-460
-461
-465
-468
-468
-466
-465
-465
-467
-466
-461
-454
-453
-457
-454
-441
-424
-420
-414
-415
-414
-415
-421
-423
-415
-409
-411
-419
-420
-420
-417
-415
-415
-404
-393
-407
-457
-528
-577
-601
-614
-617
-611
-590
-554
-496
-420
-365
-329
-300
-291
-311
-321
-327
-333
-331
-335
-348
-358
-358
-366
-377
-382
-390
-395
-404
-419
-425
-427
-425
-425
-424
-417
-411
-417
-431
-436
-436
-446
-460
-459
-459
-457
-461
-460
-465
-469
-467
-471
-485
-492
-484
-478
-488
-509
-525
-535
-535
-536
-535
-535
-536
-534
-535
-525
-503
-491
-482
-466
-457
-446
-426
-395
-385
-390
-398
-411
-409
-392
-369
-354
-357
-365
-368
-373
-389
-410
-412
-396
-388
-381
-381
-408
-429
-428
-411
-395
-411
-422
-411
-408
-413
-440
-448
-425
-400
-404
-423
-435
-442
-442
-425
-418
-415
-423
-442
-439
-414
-408
-392
-395
-448
-468
-461
-447
-435
-431
-423
-444
-454
-454
-460
-458
-454
-452
-452
-456
-456
-452
-456
-455
-462
-459
-454
-465
-466
-455
-450
-457
-450
-450
-468
-481
-490
-468
-435
-449
-473
-477
-450
-455
-481
-483
-479
-465
-458
-455
-454
-446
-433
-422
-431
-427
-417
-419
-408
-414
-400
-394
-396
-414
-418
-425
-445
-422
-419
-420
-422
-442
-441
-465
-530
-577
-603
-615
-622
-619
-605
-573
-495
-396
-326
-281
-265
-268
-269
-288
-311
-324
-322
-317
-318
-349
-369
-385
-381
-373
-370
-374
-382
-397
-404
-406
-418
-416
-421
-447
-454
-443
-441
-446
-458
-457
-444
-441
-442
-453
-482
-477
-465
-472
-471
-477
-487
-483
-481
-501
-517
-515
-531
-541
-539
-547
-542
-541
-545
-548
-546
-546
-543
-527
-501
-489
-492
-468
-448
-437
-407
-400
-409
-392
-387
-381
-370
-368
-381
-393
-395
-377
-375
-392
-406
-404
-400
-396
-412
-419
-408
-409
-414
-414
-418
-427
-434
-438
-423
-421
-418
-411
-415
-412
-408
-407
-414
-415
-418
-404
-396
-414
-417
-412
-433
-425
-414
-400
-400
-418
-418
-409
-404
-417
-429
-430
-427
-420
-420
-423
-422
-420
-415
-412
-425
-432
-441
-442
-444
-442
-431
-435
-448
-446
-443
-452
-449
-450
-451
-452
-461
-458
-450
-450
-448
-449
-439
-430
-427
-418
-411
-412
-410
-411
-405
-406
-409
-427
-426
-428
-428
-427
-425
-420
-419
-416
-411
-417
-458
-525
-574
-601
-615
-620
-617
-603
-574
-519
-441
-369
-311
-277
-269
-273
-294
-312
-321
-327
-334
-339
-346
-354
-361
-368
-374
-381
-385
-391
-396
-402
-408
-411
-415
-419
-419
-424
-429
-431
-431
-434
-435
-436
-440
-441
-443
-446
-450
-452
-454
-458
-462
-468
-474
-481
-488
-497
-508
-513
-518
-522
-526
-530
-527
-526
-523
-517
-508
-494
-481
-466
-451
-435
-423
-409
-394
-383
-376
-368
-361
-358
-358
-357
-357
-355
-360
-363
-368
-371
-376
-381
-386
-394
-399
-406
-409
-413
-416
-417
-422
-423
-427
-431
-431
-433
-431
-435
-435
-433
-431
-430
-428
-423
-424
-422
-423
-422
-422
-420
-417
-419
-419
-419
-420
-420
-420
-417
-422
-422
-423
-422
-424
-427
-423
-428
-430
-431
-435
-439
-444
-441
-447
-450
-454
-455
-454
-452
-452
-460
-465
-466
-462
-457
-453
-443
-440
-434
-430
-425
-422
-418
-418
-419
-417
-417
-422
-423
-425
-427
-431
-431
-436
-437
-437
-433
-420
-420
-446
-504
-565
-600
-618
-627
-625
-614
-588
-538
-463
-387
-331
-300
-285
-290
-315
-339
-354
-361
-368
-374
-384
-389
-396
-401
-407
-414
-419
-425
-428
-433
-438
-441
-442
-446
-448
-450
-454
-453
-454
-457
-458
-460
-459
-462
-464
-465
-466
-469
-471
-473
-478
-481
-485
-492
-499
-508
-515
-523
-527
-533
-538
-538
-538
-534
-530
-525
-519
-507
-494
-481
-465
-450
-435
-417
-405
-395
-383
-376
-368
-363
-361
-358
-357
-355
-358
-360
-364
-368
-371
-376
-382
-387
-393
-396
-403
-408
-412
-416
-419
-422
-425
-427
-428
-431
-431
-431
-431
-432
-431
-431
-432
-429
-430
-427
-428
-427
-425
-425
-422
-425
-423
-422
-423
-422
-422
-420
-424
-425
-425
-425
-426
-427
-427
-427
-430
-432
-437
-442
-444
-447
-449
-450
-452
-450
-448
-450
-457
-462
-460
-456
-450
-446
-441
-435
-431
-423
-423
-417
-416
-415
-415
-415
-415
-417
-419
-423
-427
-430
-433
-435
-435
-435
-430
-419
-417
-440
-499
-557
-592
-611
-619
-619
-608
-582
-539
-469
-395
-338
-304
-290
-300
-322
-342
-354
-361
-366
-373
-379
-385
-389
-394
-400
-404
-409
-415
-419
-424
-430
-435
-438
-441
-444
-446
-446
-450
-450
-450
-452
-454
-455
-457
-457
-460
-464
-463
-467
-471
-473
-477
-482
-490
-496
-504
-511
-519
-523
-527
-529
-529
-529
-527
-522
-519
-512
-503
-493
-481
-468
-455
-442
-431
-419
-406
-395
-384
-376
-372
-367
-365
-362
-365
-365
-366
-369
-374
-377
-381
-385
-388
-395
-399
-403
-407
-414
-415
-419
-421
-423
-427
-427
-431
-431
-432
-431
-431
-431
-431
-428
-427
-427
-427
-425
-423
-423
-422
-420
-419
-422
-422
-422
-423
-425
-424
-422
-419
-421
-423
-422
-422
-423
-425
-427
-431
-436
-441
-441
-442
-443
-446
-446
-441
-441
-446
-454
-457
-455
-450
-444
-440
-435
-428
-423
-419
-414
-411
-409
-410
-410
-411
-415
-415
-417
-421
-424
-427
-427
-430
-430
-430
-420
-412
-427
-469
-530
-573
-600
-610
-615
-608
-588
-550
-484
-401
-338
-297
-281
-280
-298
-327
-345
-355
-363
-371
-378
-385
-389
-396
-402
-408
-413
-419
-423
-427
-431
-435
-438
-440
-441
-446
-447
-450
-451
-452
-454
-454
-456
-457
-462
-465
-465
-468
-469
-473
-476
-479
-484
-491
-496
-501
-511
-516
-522
-527
-531
-535
-536
-536
-533
-531
-523
-514
-504
-492
-479
-463
-450
-435
-420
-407
-395
-388
-379
-371
-364
-361
-357
-356
-355
-357
-361
-366
-366
-371
-376
-381
-385
-389
-395
-400
-406
-412
-417
-423
-424
-428
-431
-435
-433
-433
-431
-430
-430
-430
-429
-428
-427
-426
-425
-423
-423
-420
-419
-418
-417
-417
-417
-417
-417
-415
-415
-417
-418
-418
-419
-420
-420
-421
-423
-431
-433
-435
-435
-436
-440
-442
-439
-440
-442
-446
-450
-448
-444
-441
-437
-430
-423
-417
-412
-408
-406
-404
-403
-404
-404
-408
-408
-412
-417
-419
-423
-425
-427
-428
-423
-413
-412
-430
-482
-544
-584
-605
-614
-614
-605
-585
-545
-480
-401
-338
-300
-280
-279
-298
-323
-339
-349
-358
-363
-371
-376
-382
-388
-393
-400
-405
-412
-419
-422
-425
-431
-435
-437
-440
-444
-446
-447
-449
-450
-454
-455
-458
-458
-461
-462
-465
-466
-468
-471
-473
-477
-483
-488
-495
-504
-512
-519
-527
-531
-536
-539
-539
-538
-536
-535
-528
-519
-508
-497
-482
-468
-454
-441
-428
-415
-404
-393
-385
-377
-373
-369
-366
-363
-362
-365
-367
-369
-372
-376
-381
-385
-389
-395
-401
-404
-409
-414
-419
-422
-424
-427
-431
-433
-435
-436
-436
-435
-434
-433
-431
-429
-429
-427
-423
-425
-424
-423
-422
-419
-419
-417
-419
-419
-418
-419
-419
-419
-419
-420
-420
-421
-423
-424
-427
-431
-434
-433
-438
-441
-442
-442
-441
-441
-443
-446
-451
-452
-445
-439
-436
-431
-427
-420
-415
-411
-407
-406
-406
-406
-404
-406
-408
-411
-407
-417
-421
-424
-427
-427
-427
-417
-408
-415
-456
-520
-570
-598
-612
-615
-612
-599
-573
-528
-461
-395
-341
-306
-292
-300
-319
-332
-341
-339
-351
-357
-365
-371
-377
-382
-390
-397
-402
-408
-412
-419
-423
-426
-432
-435
-438
-441
-442
-444
-448
-449
-451
-454
-456
-457
-459
-460
-462
-465
-464
-468
-471
-476
-479
-485
-493
-500
-508
-514
-519
-524
-528
-531
-531
-531
-528
-523
-516
-508
-496
-485
-472
-459
-445
-431
-419
-407
-400
-388
-382
-378
-374
-371
-371
-371
-373
-373
-374
-377
-379
-382
-386
-389
-393
-397
-400
-404
-407
-411
-415
-419
-419
-423
-424
-425
-428
-428
-429
-431
-431
-431
-431
-430
-431
-431
-428
-428
-429
-428
-427
-425
-426
-427
-426
-423
-424
-423
-423
-422
-423
-425
-424
-425
-425
-427
-428
-430
-433
-439
-442
-443
-447
-446
-448
-447
-447
-448
-453
-457
-461
-457
-453
-447
-442
-437
-431
-425
-421
-417
-414
-411
-413
-414
-414
-411
-417
-419
-422
-425
-427
-430
-429
-431
-430
-420
-414
-424
-466
-523
-573
-600
-612
-617
-611
-595
-565
-519
-450
-387
-337
-306
-295
-306
-326
-339
-346
-353
-358
-365
-370
-377
-381
-387
-392
-401
-406
-411
-416
-422
-427
-431
-434
-438
-439
-444
-446
-447
-450
-453
-454
-455
-458
-460
-462
-463
-466
-468
-470
-473
-476
-481
-485
-492
-500
-508
-513
-519
-524
-531
-532
-535
-532
-531
-528
-523
-514
-507
-495
-482
-469
-457
-442
-428
-418
-405
-396
-388
-381
-379
-377
-373
-373
-374
-376
-376
-378
-381
-383
-387
-391
-396
-402
-404
-407
-414
-415
-419
-419
-423
-425
-425
-427
-428
-430
-431
-431
-433
-434
-431
-431
-431
-431
-431
-428
-428
-427
-427
-425
-423
-423
-422
-422
-420
-420
-420
-419
-420
-420
-423
-423
-424
-425
-423
-423
-423
-427
-431
-435
-439
-439
-441
-441
-445
-446
-446
-446
-447
-454
-458
-456
-448
-441
-438
-431
-427
-421
-416
-411
-408
-405
-405
-406
-408
-409
-409
-415
-420
-423
-423
-427
-428
-427
-427
-419
-411
-420
-461
-523
-565
-590
-603
-606
-586
-584
-546
-488
-417
-354
-311
-288
-284
-300
-324
-341
-349
-356
-363
-369
-377
-384
-388
-393
-400
-404
-409
-413
-419
-423
-427
-430
-434
-435
-438
-441
-442
-446
-444
-444
-446
-450
-452
-454
-457
-458
-457
-461
-462
-467
-473
-478
-485
-492
-498
-506
-513
-519
-523
-527
-531
-532
-530
-526
-522
-514
-506
-494
-481
-469
-453
-439
-425
-415
-404
-392
-385
-379
-373
-369
-369
-367
-368
-367
-368
-372
-377
-381
-384
-389
-392
-397
-404
-408
-412
-417
-420
-421
-425
-427
-427
-428
-431
-431
-431
-431
-431
-430
-428
-428
-428
-429
-428
-427
-427
-427
-428
-428
-427
-425
-425
-423
-424
-425
-425
-423
-425
-427
-427
-425
-425
-427
-430
-429
-428
-431
-431
-435
-438
-442
-443
-446
-447
-450
-450
-448
-446
-450
-454
-461
-460
-454
-452
-448
-439
-433
-428
-423
-415
-413
-412
-411
-413
-412
-415
-418
-419
-419
-424
-425
-427
-428
-428
-424
-414
-413
-431
-485
-544
-582
-602
-609
-611
-601
-581
-541
-472
-393
-330
-297
-284
-286
-306
-331
-347
-355
-361
-369
-377
-381
-387
-392
-400
-404
-411
-417
-423
-427
-431
-435
-438
-442
-442
-445
-447
-447
-447
-450
-450
-450
-452
-455
-457
-457
-458
-462
-466
-468
-472
-476
-482
-488
-493
-504
-509
-520
-523
-528
-531
-533
-532
-531
-528
-521
-515
-504
-493
-481
-465
-452
-436
-423
-411
-397
-388
-379
-371
-365
-361
-362
-361
-361
-363
-368
-370
-373
-377
-383
-387
-392
-396
-403
-407
-411
-414
-417
-419
-419
-419
-423
-423
-425
-425
-425
-425
-423
-423
-422
-420
-421
-419
-419
-419
-418
-415
-416
-417
-419
-418
-417
-419
-418
-418
-418
-419
-421
-419
-419
-419
-422
-423
-419
-423
-424
-425
-427
-431
-433
-439
-442
-443
-446
-448
-448
-449
-446
-450
-453
-458
-460
-457
-451
-446
-439
-434
-427
-421
-417
-412
-412
-411
-411
-411
-411
-412
-415
-417
-419
-422
-424
-427
-427
-425
-415
-406
-410
-447
-511
-564
-591
-608
-611
-606
-593
-564
-522
-454
-388
-335
-304
-292
-305
-327
-338
-346
-352
-357
-363
-369
-375
-381
-388
-393
-400
-405
-408
-415
-421
-424
-430
-433
-438
-438
-443
-446
-447
-450
-450
-450
-451
-454
-456
-456
-460
-463
-465
-466
-471
-474
-479
-485
-492
-500
-504
-514
-521
-517
-530
-531
-534
-530
-532
-528
-523
-514
-504
-493
-480
-466
-452
-438
-426
-417
-406
-396
-388
-381
-377
-376
-373
-372
-374
-374
-375
-377
-382
-385
-390
-395
-396
-401
-404
-408
-411
-415
-418
-420
-423
-425
-425
-427
-429
-428
-428
-428
-430
-430
-427
-428
-428
-430
-428
-427
-423
-427
-427
-425
-426
-425
-424
-424
-426
-423
-425
-424
-425
-426
-425
-425
-425
-427
-427
-427
-428
-430
-433
-433
-440
-443
-445
-447
-450
-452
-452
-450
-450
-455
-461
-465
-463
-457
-452
-446
-440
-434
-431
-425
-420
-417
-412
-415
-414
-414
-415
-419
-419
-422
-426
-430
-431
-432
-431
-427
-415
-409
-428
-485
-546
-585
-607
-615
-615
-608
-589
-550
-487
-415
-355
-317
-293
-291
-312
-335
-346
-353
-358
-361
-370
-374
-381
-387
-392
-396
-402
-408
-412
-421
-423
-428
-433
-437
-438
-439
-442
-444
-445
-447
-451
-452
-452
-455
-458
-460
-460
-462
-465
-465
-469
-472
-477
-481
-487
-494
-503
-511
-516
-522
-524
-528
-529
-527
-524
-522
-515
-508
-497
-487
-476
-462
-447
-434
-419
-408
-396
-387
-380
-374
-369
-366
-365
-365
-366
-369
-371
-373
-377
-381
-381
-386
-389
-395
-399
-402
-406
-409
-412
-415
-416
-419
-422
-423
-422
-422
-422
-423
-423
-419
-419
-420
-420
-421
-419
-420
-420
-420
-419
-419
-418
-417
-419
-418
-417
-419
-418
-419
-420
-420
-422
-423
-423
-423
-425
-427
-427
-428
-427
-431
-437
-439
-439
-442
-446
-448
-445
-444
-447
-452
-457
-465
-461
-457
-450
-442
-438
-431
-426
-423
-420
-417
-415
-411
-414
-415
-417
-418
-422
-423
-425
-429
-434
-435
-434
-428
-419
-417
-438
-493
-552
-587
-608
-615
-616
-608
-584
-541
-469
-392
-333
-299
-284
-285
-308
-331
-348
-356
-365
-368
-374
-382
-388
-395
-402
-406
-411
-415
-421
-425
-431
-435
-438
-439
-441
-442
-446
-448
-450
-452
-454
-454
-457
-456
-458
-459
-460
-462
-465
-470
-476
-481
-485
-492
-499
-506
-513
-519
-524
-531
-536
-538
-537
-535
-529
-524
-517
-508
-495
-481
-468
-452
-438
-422
-409
-393
-384
-377
-371
-366
-363
-361
-361
-360
-364
-366
-370
-373
-381
-385
-387
-392
-397
-402
-406
-409
-412
-415
-417
-419
-421
-422
-423
-423
-423
-425
-425
-427
-425
-424
-423
-424
-422
-419
-419
-419
-420
-419
-419
-418
-419
-420
-420
-420
-421
-422
-422
-421
-423
-423
-424
-427
-429
-428
-428
-431
-433
-438
-441
-444
-442
-446
-450
-449
-446
-447
-449
-453
-457
-461
-456
-452
-446
-439
-431
-425
-422
-417
-411
-411
-410
-409
-409
-411
-411
-415
-419
-420
-422
-423
-427
-427
-425
-419
-411
-417
-454
-515
-566
-593
-608
-611
-608
-593
-562
-506
-427
-356
-308
-283
-276
-287
-310
-331
-344
-354
-363
-368
-374
-381
-387
-392
-396
-403
-410
-412
-419
-423
-430
-431
-434
-438
-440
-442
-442
-444
-446
-447
-448
-450
-454
-455
-456
-458
-461
-461
-465
-469
-471
-473
-479
-485
-493
-500
-508
-515
-521
-524
-527
-528
-527
-527
-523
-517
-509
-500
-487
-473
-460
-446
-431
-418
-407
-394
-385
-376
-371
-366
-365
-363
-361
-363
-365
-366
-370
-374
-381
-386
-392
-398
-403
-407
-411
-415
-418
-419
-424
-427
-429
-428
-428
-430
-428
-428
-427
-427
-427
-425
-424
-420
-423
-422
-421
-422
-419
-422
-419
-419
-420
-421
-419
-419
-420
-418
-423
-423
-424
-425
-424
-426
-427
-427
-428
-431
-435
-438
-440
-441
-444
-446
-447
-446
-445
-447
-452
-455
-458
-454
-449
-444
-439
-434
-429
-423
-419
-415
-411
-412
-412
-414
-415
-417
-419
-422
-425
-429
-431
-433
-435
-431
-422
-412
-419
-459
-524
-573
-598
-614
-615
-611
-596
-565
-512
-439
-376
-327
-298
-290
-307
-325
-335
-341
-346
-354
-361
-369
-376
-381
-388
-390
-397
-404
-410
-415
-419
-423
-428
-433
-435
-437
-441
-444
-446
-449
-450
-450
-453
-456
-458
-459
-460
-463
-465
-468
-471
-474
-479
-485
-492
-500
-506
-515
-519
-524
-528
-532
-533
-532
-531
-528
-522
-514
-506
-493
-480
-465
-450
-438
-425
-412
-402
-393
-384
-379
-374
-373
-370
-369
-372
-372
-373
-376
-380
-385
-388
-392
-393
-401
-405
-406
-411
-409
-415
-420
-422
-425
-426
-425
-428
-429
-428
-427
-426
-425
-425
-425
-425
-424
-423
-419
-422
-420
-420
-420
-418
-419
-415
-417
-417
-419
-418
-419
-417
-415
-419
-419
-420
-420
-419
-422
-423
-431
-434
-435
-437
-439
-442
-439
-440
-442
-447
-452
-457
-453
-444
-439
-434
-427
-423
-417
-411
-408
-406
-406
-404
-406
-408
-411
-414
-417
-420
-422
-425
-428
-428
-428
-419
-411
-418
-460
-521
-569
-596
-609
-610
-607
-588
-555
-498
-425
-364
-322
-299
-293
-312
-331
-344
-350
-355
-362
-368
-374
-380
-385
-390
-395
-400
-406
-413
-418
-423
-430
-433
-437
-440
-444
-445
-446
-446
-447
-448
-450
-452
-453
-457
-460
-461
-465
-467
-469
-472
-474
-481
-488
-494
-501
-509
-515
-520
-524
-527
-531
-532
-531
-530
-525
-518
-508
-496
-484
-469
-455
-442
-429
-418
-406
-398
-388
-381
-377
-373
-368
-369
-370
-371
-374
-379
-382
-385
-388
-392
-395
-400
-404
-409
-412
-415
-419
-423
-423
-426
-428
-431
-433
-431
-433
-434
-433
-432
-431
-429
-427
-427
-427
-427
-427
-424
-423
-427
-424
-424
-423
-425
-425
-423
-425
-427
-427
-426
-425
-425
-425
-427
-429
-431
-438
-439
-439
-443
-444
-446
-442
-444
-446
-450
-454
-459
-457
-452
-446
-442
-438
-429
-423
-419
-414
-411
-409
-411
-411
-413
-415
-419
-421
-422
-428
-431
-433
-435
-436
-431
-425
-428
-458
-516
-568
-596
-611
-615
-612
-597
-568
-508
-422
-351
-306
-285
-277
-292
-319
-342
-357
-365
-372
-378
-384
-390
-398
-402
-407
-411
-417
-420
-423
-431
-435
-437
-441
-446
-447
-450
-452
-456
-458
-458
-458
-459
-459
-460
-461
-465
-466
-468
-469
-471
-476
-481
-485
-492
-500
-509
-513
-521
-528
-531
-535
-536
-535
-535
-529
-523
-515
-507
-495
-481
-465
-450
-433
-419
-408
-395
-384
-374
-371
-365
-361
-360
-358
-359
-363
-365
-367
-371
-376
-381
-388
-395
-400
-403
-408
-414
-418
-421
-423
-427
-430
-428
-428
-428
-430
-428
-427
-427
-427
-427
-426
-426
-423
-421
-418
-418
-419
-417
-417
-416
-417
-415
-415
-415
-419
-419
-418
-419
-420
-423
-423
-425
-427
-431
-436
-438
-438
-439
-439
-443
-442
-442
-442
-446
-450
-453
-447
-444
-442
-437
-431
-424
-419
-415
-409
-408
-408
-409
-411
-411
-414
-415
-417
-420
-423
-427
-429
-428
-430
-427
-415
-419
-447
-510
-565
-595
-612
-616
-615
-604
-580
-538
-465
-385
-325
-295
-281
-285
-304
-330
-346
-354
-361
-368
-377
-384
-390
-394
-399
-406
-412
-417
-423
-427
-431
-435
-440
-444
-446
-448
-450
-450
-454
-454
-453
-457
-458
-460
-461
-465
-465
-465
-466
-469
-474
-478
-483
-489
-492
-501
-508
-516
-522
-527
-533
-536
-538
-537
-533
-529
-524
-515
-504
-492
-481
-465
-450
-438
-425
-413
-402
-392
-385
-379
-373
-369
-367
-367
-365
-367
-370
-373
-374
-380
-385
-389
-392
-397
-402
-408
-411
-415
-417
-420
-423
-425
-427
-428
-430
-428
-428
-428
-427
-424
-423
-423
-421
-420
-419
-419
-417
-415
-412
-414
-414
-413
-412
-412
-412
-415
-414
-414
-414
-416
-417
-419
-420
-423
-426
-431
-433
-435
-436
-440
-440
-441
-439
-441
-446
-450
-452
-448
-445
-441
-435
-430
-426
-421
-415
-412
-408
-408
-410
-409
-409
-414
-415
-416
-418
-423
-425
-427
-430
-429
-427
-415
-408
-427
-477
-540
-581
-603
-612
-614
-606
-589
-561
-511
-439
-374
-328
-300
-291
-306
-323
-336
-341
-346
-354
-361
-367
-370
-379
-384
-392
-396
-403
-408
-411
-418
-422
-427
-431
-435
-436
-440
-443
-443
-446
-447
-450
-451
-450
-453
-455
-456
-459
-461
-465
-465
-469
-473
-480
-485
-494
-501
-496
-516
-522
-527
-530
-531
-531
-526
-524
-520
-509
-500
-488
-476
-459
-448
-435
-423
-411
-400
-392
-385
-379
-377
-374
-373
-373
-371
-371
-373
-376
-379
-382
-385
-388
-392
-396
-398
-404
-407
-411
-417
-419
-419
-423
-425
-428
-429
-430
-431
-435
-435
-435
-434
-431
-431
-428
-429
-428
-427
-424
-423
-423
-423
-422
-422
-423
-422
-419
-421
-422
-422
-422
-423
-425
-426
-427
-429
-433
-438
-440
-441
-442
-445
-446
-446
-443
-446
-449
-450
-458
-456
-450
-446
-441
-435
-431
-425
-422
-417
-414
-412
-412
-413
-414
-415
-417
-419
-422
-424
-428
-431
-431
-431
-428
-419
-412
-422
-466
-530
-574
-599
-609
-612
-605
-592
-561
-508
-438
-377
-330
-303
-293
-309
-330
-343
-350
-354
-363
-368
-376
-382
-388
-393
-399
-404
-408
-412
-419
-424
-428
-431
-433
-438
-442
-443
-446
-448
-450
-450
-450
-454
-455
-456
-456
-458
-458
-462
-462
-466
-469
-477
-481
-488
-497
-506
-511
-519
-524
-530
-530
-533
-531
-527
-523
-517
-511
-500
-488
-473
-460
-447
-433
-422
-411
-403
-395
-387
-383
-377
-374
-374
-374
-375
-378
-377
-377
-381
-384
-387
-392
-396
-400
-400
-406
-410
-414
-418
-419
-423
-425
-427
-430
-430
-431
-434
-435
-435
-435
-435
-433
-433
-431
-431
-430
-428
-427
-427
-425
-423
-424
-423
-425
-423
-423
-423
-424
-423
-422
-424
-422
-425
-425
-427
-427
-428
-432
-437
-438
-438
-439
-443
-442
-438
-439
-442
-447
-454
-457
-454
-450
-446
-438
-430
-423
-419
-415
-409
-409
-404
-404
-406
-409
-412
-414
-417
-419
-422
-426
-430
-431
-431
-425
-417
-423
-450
-512
-561
-588
-603
-605
-600
-587
-558
-504
-421
-351
-304
-281
-277
-292
-322
-342
-352
-361
-370
-377
-381
-388
-394
-400
-406
-411
-415
-420
-424
-427
-431
-435
-438
-442
-446
-446
-447
-452
-454
-454
-455
-455
-457
-457
-460
-461
-463
-465
-469
-471
-475
-481
-486
-492
-499
-508
-515
-522
-527
-531
-535
-535
-535
-535
-531
-524
-515
-504
-494
-480
-468
-452
-437
-423
-409
-399
-388
-381
-373
-366
-363
-360
-358
-356
-359
-361
-367
-373
-377
-384
-390
-393
-397
-404
-408
-410
-415
-420
-423
-423
-428
-430
-431
-431
-431
-433
-434
-435
-431
-430
-429
-428
-431
-431
-430
-428
-428
-425
-422
-422
-420
-419
-423
-422
-421
-420
-422
-420
-421
-422
-425
-427
-425
-427
-427
-427
-429
-435
-439
-440
-441
-441
-443
-444
-444
-444
-444
-449
-453
-456
-454
-451
-445
-439
-433
-425
-422
-417
-414
-411
-411
-411
-411
-414
-415
-415
-418
-419
-422
-425
-427
-427
-428
-420
-413
-428
-477
-538
-577
-601
-611
-611
-604
-586
-550
-481
-396
-330
-294
-279
-278
-294
-321
-342
-354
-361
-371
-376
-381
-386
-395
-398
-406
-411
-415
-419
-424
-427
-433
-436
-438
-441
-443
-446
-447
-448
-451
-453
-454
-454
-454
-455
-457
-458
-460
-463
-465
-466
-471
-474
-480
-486
-494
-500
-508
-517
-522
-523
-527
-528
-530
-528
-524
-520
-515
-504
-496
-485
-471
-458
-444
-431
-416
-404
-394
-386
-380
-374
-370
-369
-366
-366
-368
-370
-373
-377
-382
-387
-392
-398
-400
-408
-412
-414
-419
-422
-425
-427
-431
-430
-432
-431
-428
-431
-430
-428
-425
-424
-425
-422
-421
-419
-418
-417
-415
-415
-414
-415
-413
-415
-415
-414
-415
-412
-415
-415
-419
-418
-418
-417
-415
-418
-420
-422
-423
-425
-431
-433
-438
-438
-442
-444
-445
-442
-439
-446
-447
-454
-457
-454
-448
-439
-438
-431
-425
-421
-415
-411
-408
-406
-408
-409
-411
-412
-414
-417
-419
-422
-424
-427
-427
-423
-414
-406
-419
-473
-539
-581
-604
-614
-612
-606
-590
-561
-509
-438
-374
-324
-296
-296
-311
-327
-335
-344
-348
-354
-360
-368
-374
-380
-387
-394
-400
-406
-411
-415
-420
-424
-427
-431
-435
-438
-441
-443
-443
-447
-447
-450
-453
-454
-454
-455
-457
-459
-462
-463
-469
-472
-476
-482
-490
-498
-506
-514
-523
-531
-535
-541
-542
-542
-542
-538
-532
-523
-514
-501
-486
-473
-460
-446
-431
-422
-409
-400
-394
-387
-383
-381
-379
-381
-377
-379
-381
-383
-386
-389
-392
-396
-399
-403
-406
-410
-415
-417
-419
-422
-423
-427
-427
-430
-430
-423
-432
-431
-433
-433
-431
-431
-431
-430
-431
-427
-425
-427
-425
-425
-426
-427
-425
-424
-425
-425
-425
-425
-427
-429
-428
-427
-427
-427
-429
-429
-429
-430
-431
-431
-436
-441
-446
-446
-447
-449
-451
-453
-450
-449
-451
-455
-460
-462
-458
-452
-450
-442
-435
-428
-420
-419
-413
-411
-411
-411
-411
-411
-411
-413
-417
-419
-419
-422
-423
-425
-424
-415
-407
-408
-441
-504
-560
-592
-608
-615
-611
-600
-576
-533
-463
-392
-333
-300
-284
-288
-311
-328
-341
-350
-357
-361
-368
-376
-382
-390
-396
-401
-406
-412
-417
-421
-425
-431
-431
-435
-438
-442
-443
-446
-447
-450
-452
-452
-454
-456
-457
-458
-460
-464
-463
-465
-471
-474
-478
-482
-490
-499
-508
-514
-522
-528
-533
-535
-538
-539
-536
-531
-524
-515
-504
-492
-478
-465
-450
-434
-421
-407
-397
-389
-383
-379
-374
-371
-369
-371
-373
-376
-377
-381
-384
-385
-392
-395
-400
-404
-408
-411
-417
-420
-420
-423
-425
-428
-428
-430
-429
-428
-429
-427
-427
-427
-423
-423
-423
-422
-421
-419
-419
-418
-420
-417
-420
-422
-421
-419
-421
-423
-424
-425
-426
-427
-427
-427
-427
-427
-428
-430
-429
-431
-431
-431
-433
-436
-439
-444
-446
-446
-447
-454
-454
-454
-452
-452
-456
-461
-467
-465
-458
-452
-447
-440
-435
-431
-427
-418
-419
-415
-415
-414
-415
-417
-418
-417
-422
-421
-427
-428
-430
-430
-429
-422
-412
-422
-461
-524
-572
-598
-611
-613
-609
-596
-566
-514
-438
-370
-321
-292
-285
-300
-321
-336
-346
-352
-358
-365
-371
-379
-385
-390
-396
-402
-407
-413
-416
-421
-425
-428
-431
-435
-438
-439
-443
-443
-446
-446
-447
-448
-450
-450
-454
-456
-458
-459
-461
-464
-469
-473
-478
-486
-493
-501
-506
-515
-522
-527
-531
-533
-535
-531
-530
-524
-519
-508
-494
-481
-467
-452
-439
-425
-414
-403
-393
-385
-379
-373
-370
-369
-370
-370
-371
-373
-377
-381
-385
-387
-392
-395
-400
-403
-408
-411
-412
-415
-415
-418
-419
-418
-420
-419
-420
-419
-420
-419
-419
-417
-416
-415
-414
-414
-414
-415
-412
-414
-415
-415
-417
-417
-417
-417
-419
-419
-419
-420
-423
-423
-423
-422
-425
-425
-426
-427
-427
-428
-427
-428
-431
-435
-439
-442
-445
-446
-447
-449
-450
-447
-448
-449
-454
-459
-461
-455
-448
-442
-437
-429
-425
-422
-415
-411
-409
-408
-409
-409
-411
-411
-412
-417
-419
-420
-423
-423
-425
-424
-417
-411
-422
-468
-531
-574
-596
-608
-607
-600
-579
-544
-487
-418
-358
-316
-295
-293
-315
-333
-345
-351
-358
-363
-369
-376
-381
-387
-392
-397
-404
-406
-411
-417
-421
-424
-427
-430
-431
-435
-438
-441
-441
-442
-444
-442
-447
-449
-450
-452
-454
-454
-455
-458
-463
-465
-471
-477
-485
-488
-498
-507
-513
-517
-522
-524
-524
-524
-524
-521
-517
-510
-501
-485
-476
-463
-447
-433
-421
-408
-396
-387
-381
-376
-373
-371
-370
-369
-371
-371
-373
-376
-380
-385
-389
-393
-396
-399
-403
-406
-411
-414
-415
-417
-420
-420
-422
-423
-423
-423
-422
-422
-422
-420
-419
-419
-418
-419
-420
-420
-422
-422
-422
-423
-424
-424
-424
-424
-423
-423
-425
-424
-425
-425
-425
-425
-428
-428
-430
-431
-429
-430
-431
-432
-434
-435
-438
-444
-449
-450
-451
-452
-455
-455
-454
-454
-458
-463
-466
-465
-458
-454
-447
-441
-435
-430
-425
-421
-417
-417
-415
-417
-418
-419
-419
-419
-423
-427
-428
-431
-434
-431
-428
-420
-425
-457
-517
-568
-596
-611
-615
-612
-598
-569
-517
-431
-359
-311
-285
-278
-288
-312
-336
-352
-361
-368
-376
-384
-390
-395
-400
-404
-409
-415
-419
-423
-427
-431
-433
-436
-441
-444
-447
-446
-450
-450
-454
-454
-455
-457
-460
-461
-461
-463
-465
-469
-473
-476
-479
-485
-490
-496
-504
-511
-517
-520
-525
-530
-532
-533
-534
-532
-528
-519
-508
-498
-484
-466
-452
-439
-427
-414
-400
-388
-380
-373
-367
-366
-365
-364
-366
-369
-373
-377
-381
-385
-377
-393
-396
-400
-404
-406
-411
-411
-414
-415
-415
-417
-419
-418
-418
-416
-416
-415
-413
-413
-412
-411
-411
-411
-412
-411
-412
-411
-412
-413
-413
-414
-415
-417
-419
-419
-419
-419
-421
-422
-424
-426
-425
-426
-427
-430
-428
-429
-431
-433
-436
-442
-446
-446
-448
-450
-453
-452
-452
-453
-457
-460
-463
-462
-455
-450
-444
-438
-432
-427
-422
-415
-411
-411
-409
-409
-411
-414
-415
-417
-420
-423
-428
-429
-428
-427
-419
-411
-420
-461
-527
-574
-600
-614
-619
-613
-599
-570
-514
-430
-358
-309
-285
-276
-285
-309
-331
-346
-353
-361
-370
-377
-384
-392
-398
-404
-408
-414
-419
-425
-431
-435
-438
-442
-446
-449
-450
-455
-457
-458
-458
-461
-462
-461
-463
-465
-467
-469
-470
-474
-476
-479
-481
-488
-494
-500
-507
-515
-523
-527
-534
-537
-541
-542
-539
-538
-534
-529
-522
-511
-498
-484
-469
-453
-440
-425
-414
-401
-392
-385
-380
-373
-373
-374
-374
-376
-379
-384
-387
-390
-396
-400
-403
-408
-411
-414
-412
-415
-417
-418
-419
-419
-419
-420
-419
-417
-416
-415
-414
-412
-412
-412
-411
-411
-411
-411
-412
-414
-413
-412
-415
-415
-415
-415
-417
-415
-418
-419
-419
-419
-419
-420
-423
-423
-423
-423
-425
-425
-428
-431
-435
-438
-439
-444
-442
-447
-450
-450
-450
-450
-454
-458
-462
-460
-454
-447
-444
-437
-433
-427
-422
-418
-414
-412
-412
-411
-411
-411
-415
-417
-420
-422
-425
-427
-428
-428
-425
-412
-408
-423
-480
-542
-584
-604
-612
-615
-604
-591
-561
-509
-438
-373
-323
-296
-293
-309
-328
-338
-345
-348
-354
-361
-368
-376
-381
-388
-395
-401
-406
-411
-417
-419
-424
-428
-433
-436
-438
-441
-443
-444
-445
-446
-447
-450
-451
-452
-455
-457
-460
-460
-463
-465
-469
-474
-481
-488
-493
-501
-510
-515
-520
-523
-527
-528
-527
-524
-523
-517
-508
-496
-484
-469
-456
-442
-429
-419
-407
-396
-388
-381
-378
-376
-376
-374
-377
-376
-381
-386
-387
-391
-395
-396
-401
-405
-409
-406
-413
-415
-417
-419
-420
-420
-420
-422
-421
-419
-420
-421
-420
-419
-418
-418
-419
-417
-417
-419
-419
-420
-422
-422
-421
-423
-422
-422
-423
-425
-425
-423
-424
-425
-426
-427
-427
-428
-428
-430
-431
-434
-433
-433
-437
-437
-446
-447
-450
-453
-454
-455
-450
-453
-454
-456
-463
-465
-465
-457
-450
-446
-439
-433
-428
-423
-418
-415
-411
-414
-415
-414
-415
-418
-421
-423
-424
-428
-430
-430
-431
-425
-415
-411
-436
-497
-550
-588
-608
-614
-613
-602
-581
-541
-477
-405
-347
-309
-293
-298
-320
-337
-346
-352
-356
-364
-373
-377
-384
-390
-396
-403
-405
-412
-417
-423
-427
-431
-437
-440
-442
-443
-447
-449
-449
-450
-454
-455
-456
-459
-460
-461
-464
-465
-468
-466
-473
-476
-481
-487
-493
-500
-508
-515
-522
-524
-529
-531
-531
-531
-529
-527
-520
-511
-498
-488
-473
-460
-443
-434
-419
-407
-396
-390
-381
-376
-373
-371
-374
-374
-377
-379
-384
-387
-388
-392
-396
-399
-402
-406
-411
-412
-414
-414
-417
-418
-418
-420
-418
-420
-420
-419
-419
-417
-417
-415
-416
-417
-419
-419
-418
-419
-417
-420
-419
-419
-421
-418
-421
-422
-423
-424
-425
-424
-424
-423
-425
-426
-412
-426
-425
-427
-428
-428
-430
-429
-431
-436
-442
-443
-445
-447
-446
-450
-450
-449
-450
-455
-460
-462
-459
-452
-447
-442
-435
-427
-423
-420
-415
-411
-409
-409
-409
-407
-413
-415
-418
-420
-421
-427
-425
-428
-428
-423
-418
-421
-450
-504
-559
-588
-604
-609
-605
-592
-560
-504
-422
-348
-300
-277
-272
-282
-313
-338
-350
-358
-365
-372
-377
-385
-390
-396
-403
-408
-413
-418
-421
-425
-429
-433
-438
-442
-446
-443
-447
-447
-448
-450
-453
-455
-455
-455
-457
-461
-463
-465
-469
-471
-473
-477
-484
-488
-495
-503
-509
-519
-523
-526
-530
-532
-535
-532
-530
-527
-522
-511
-500
-490
-473
-458
-444
-430
-417
-404
-393
-384
-377
-373
-369
-369
-370
-369
-373
-374
-378
-381
-385
-390
-396
-399
-404
-405
-409
-413
-417
-417
-420
-419
-419
-419
-418
-418
-419
-419
-417
-417
-417
-417
-416
-415
-415
-415
-417
-419
-422
-421
-421
-422
-420
-420
-420
-421
-422
-422
-422
-423
-423
-423
-425
-427
-427
-428
-429
-427
-428
-430
-431
-433
-439
-442
-440
-442
-446
-447
-447
-447
-448
-452
-457
-461
-458
-453
-447
-442
-438
-431
-425
-417
-415
-411
-409
-406
-408
-409
-411
-413
-415
-419
-421
-423
-426
-427
-428
-422
-415
-424
-460
-517
-565
-592
-604
-612
-609
-595
-565
-508
-420
-345
-295
-272
-266
-277
-298
-323
-342
-354
-363
-370
-375
-381
-387
-393
-397
-403
-411
-415
-420
-423
-429
-433
-432
-439
-442
-446
-446
-447
-449
-452
-452
-454
-454
-455
-457
-458
-459
-460
-463
-465
-469
-473
-478
-482
-488
-495
-504
-510
-515
-522
-524
-528
-529
-530
-529
-526
-523
-515
-507
-494
-481
-466
-450
-435
-420
-408
-393
-384
-377
-369
-364
-363
-363
-363
-365
-368
-371
-374
-380
-384
-388
-393
-396
-402
-405
-406
-409
-414
-415
-415
-417
-417
-417
-415
-413
-414
-415
-412
-412
-411
-411
-411
-409
-411
-411
-411
-411
-411
-411
-411
-412
-414
-415
-415
-416
-417
-418
-419
-419
-419
-421
-422
-423
-423
-424
-425
-424
-426
-427
-431
-435
-438
-440
-442
-446
-447
-447
-446
-445
-449
-453
-458
-458
-454
-447
-443
-438
-431
-427
-423
-419
-414
-411
-412
-411
-412
-412
-414
-417
-419
-421
-423
-427
-428
-429
-426
-415
-407
-415
-461
-527
-574
-600
-612
-619
-615
-604
-579
-538
-469
-396
-339
-300
-282
-292
-312
-324
-334
-339
-344
-351
-358
-365
-373
-379
-387
-393
-398
-405
-411
-416
-422
-427
-431
-436
-439
-442
-446
-447
-450
-450
-454
-456
-459
-460
-461
-463
-465
-466
-468
-471
-473
-477
-481
-486
-493
-500
-508
-516
-523
-528
-531
-535
-536
-538
-538
-535
-529
-521
-511
-500
-487
-473
-458
-444
-431
-419
-408
-399
-392
-385
-379
-377
-375
-378
-377
-381
-384
-387
-388
-392
-395
-400
-404
-407
-410
-412
-415
-417
-419
-421
-421
-422
-422
-422
-422
-422
-420
-422
-421
-420
-419
-419
-418
-415
-418
-419
-418
-419
-417
-419
-420
-420
-422
-422
-423
-423
-423
-425
-425
-425
-425
-427
-428
-429
-428
-429
-428
-431
-431
-431
-435
-441
-444
-447
-446
-450
-453
-454
-452
-450
-455
-459
-465
-465
-461
-453
-447
-442
-435
-429
-425
-422
-415
-413
-413
-411
-411
-413
-414
-415
-419
-419
-423
-427
-430
-428
-429
-423
-411
-411
-434
-491
-549
-584
-602
-611
-611
-602
-581
-542
-479
-406
-346
-308
-288
-290
-311
-330
-339
-346
-353
-358
-364
-371
-378
-384
-389
-394
-401
-408
-411
-419
-422
-427
-430
-434
-435
-438
-441
-443
-445
-446
-449
-450
-452
-454
-454
-456
-458
-459
-460
-465
-467
-471
-476
-482
-488
-495
-501
-510
-515
-519
-523
-527
-528
-527
-527
-521
-516
-509
-498
-488
-475
-462
-447
-433
-422
-411
-401
-392
-385
-380
-377
-374
-374
-377
-376
-378
-381
-385
-388
-390
-395
-396
-401
-404
-408
-408
-412
-414
-416
-418
-421
-422
-422
-423
-425
-423
-422
-423
-419
-420
-418
-420
-419
-419
-417
-416
-417
-417
-419
-418
-422
-422
-422
-423
-423
-424
-423
-425
-425
-427
-427
-427
-428
-427
-428
-428
-431
-431
-432
-431
-431
-436
-437
-441
-446
-449
-449
-448
-454
-457
-456
-454
-455
-460
-465
-468
-465
-459
-452
-446
-439
-435
-431
-427
-420
-419
-417
-415
-415
-417
-419
-419
-420
-422
-425
-429
-431
-433
-433
-431
-422
-418
-434
-481
-538
-577
-600
-609
-611
-603
-583
-545
-474
-393
-334
-298
-280
-282
-303
-331
-344
-355
-361
-369
-377
-382
-388
-392
-398
-402
-406
-412
-419
-422
-425
-431
-435
-437
-439
-442
-446
-445
-449
-450
-452
-453
-454
-456
-458
-460
-461
-463
-463
-468
-471
-475
-478
-487
-493
-498
-507
-512
-519
-523
-527
-530
-528
-531
-530
-527
-523
-515
-506
-492
-477
-462
-450
-436
-423
-411
-399
-390
-383
-376
-373
-371
-372
-371
-372
-373
-376
-377
-380
-385
-390
-393
-396
-400
-404
-408
-409
-412
-415
-415
-418
-420
-421
-420
-420
-419
-416
-419
-415
-415
-414
-414
-411
-412
-411
-412
-411
-412
-414
-415
-415
-415
-414
-415
-417
-419
-419
-420
-420
-418
-419
-420
-422
-423
-423
-427
-425
-427
-428
-430
-430
-431
-431
-431
-434
-437
-441
-441
-444
-447
-447
-452
-452
-452
-453
-456
-460
-459
-453
-448
-442
-437
-430
-424
-419
-415
-413
-409
-407
-407
-408
-407
-411
-413
-415
-419
-420
-423
-423
-427
-425
-418
-419
-434
-481
-536
-573
-592
-600
-602
-593
-573
-531
-462
-381
-320
-288
-277
-280
-298
-324
-345
-356
-364
-371
-377
-382
-387
-392
-396
-402
-408
-411
-417
-422
-425
-427
-431
-436
-438
-442
-444
-447
-447
-449
-450
-452
-454
-455
-456
-459
-463
-463
-466
-469
-471
-474
-478
-485
-492
-498
-508
-513
-519
-523
-526
-529
-529
-529
-528
-527
-523
-514
-504
-490
-478
-463
-449
-435
-422
-411
-399
-389
-382
-376
-371
-366
-367
-368
-369
-373
-373
-380
-384
-387
-392
-398
-402
-404
-408
-413
-417
-419
-420
-420
-422
-423
-423
-423
-423
-422
-422
-420
-419
-418
-416
-415
-413
-414
-412
-411
-411
-411
-411
-412
-413
-415
-415
-414
-419
-418
-417
-420
-420
-422
-423
-423
-425
-427
-427
-428
-429
-431
-431
-431
-431
-433
-435
-438
-442
-446
-446
-448
-450
-453
-454
-450
-452
-457
-460
-463
-459
-453
-448
-442
-436
-431
-425
-417
-414
-411
-411
-409
-411
-410
-411
-413
-415
-419
-423
-423
-427
-428
-427
-419
-407
-409
-442
-506
-560
-592
-605
-611
-608
-595
-573
-533
-466
-396
-339
-305
-288
-292
-313
-331
-347
-354
-361
-368
-374
-381
-385
-392
-398
-402
-407
-412
-417
-421
-426
-430
-434
-435
-438
-442
-443
-446
-446
-450
-451
-452
-454
-455
-458
-458
-460
-463
-467
-468
-471
-476
-474
-485
-491
-496
-506
-513
-519
-524
-527
-529
-529
-528
-527
-522
-515
-507
-496
-487
-475
-461
-447
-435
-423
-411
-400
-390
-381
-376
-372
-367
-367
-366
-367
-369
-372
-375
-379
-383
-386
-389
-393
-396
-401
-404
-407
-411
-415
-415
-417
-419
-420
-419
-420
-419
-418
-415
-413
-415
-415
-412
-412
-411
-411
-407
-406
-408
-408
-407
-408
-409
-411
-411
-412
-414
-415
-414
-415
-417
-415
-419
-419
-420
-419
-422
-422
-423
-427
-428
-428
-431
-432
-435
-438
-442
-444
-446
-448
-452
-454
-454
-450
-453
-458
-462
-463
-458
-452
-446
-441
-436
-431
-427
-421
-418
-415
-415
-416
-414
-415
-417
-420
-420
-423
-426
-428
-428
-431
-431
-423
-413
-412
-446
-509
-561
-592
-608
-614
-612
-600
-579
-541
-479
-411
-355
-318
-300
-303
-324
-342
-352
-357
-361
-369
-376
-380
-387
-395
-393
-406
-411
-416
-422
-427
-430
-435
-437
-440
-445
-447
-450
-451
-452
-454
-458
-460
-460
-461
-465
-466
-465
-469
-471
-473
-475
-479
-484
-490
-496
-504
-511
-519
-523
-529
-532
-533
-533
-531
-528
-526
-519
-511
-501
-488
-475
-461
-447
-437
-425
-413
-405
-396
-391
-385
-382
-381
-379
-378
-379
-381
-383
-385
-388
-392
-396
-400
-402
-407
-411
-413
-417
-420
-422
-425
-427
-427
-430
-429
-429
-428
-427
-427
-427
-427
-425
-425
-422
-422
-421
-419
-419
-418
-419
-417
-419
-419
-417
-420
-420
-420
-422
-422
-422
-423
-423
-425
-427
-427
-428
-430
-431
-430
-431
-431
-433
-435
-436
-439
-443
-447
-449
-452
-455
-458
-458
-457
-456
-458
-460
-465
-465
-461
-456
-447
-442
-436
-430
-427
-422
-415
-412
-411
-412
-414
-412
-414
-415
-418
-420
-419
-423
-427
-425
-425
-420
-408
-410
-439
-498
-552
-585
-602
-608
-607
-595
-568
-524
-460
-392
-335
-300
-285
-293
-311
-331
-342
-349
-355
-361
-368
-375
-381
-386
-392
-392
-404
-411
-416
-422
-425
-429
-433
-436
-438
-440
-442
-446
-447
-447
-448
-452
-454
-453
-456
-458
-460
-460
-463
-466
-469
-474
-479
-486
-493
-500
-508
-514
-521
-524
-526
-528
-529
-527
-524
-519
-512
-504
-492
-481
-468
-455
-441
-428
-418
-406
-396
-387
-382
-377
-373
-371
-370
-370
-372
-374
-377
-381
-383
-385
-391
-395
-399
-403
-408
-411
-415
-419
-421
-423
-424
-425
-425
-427
-427
-425
-427
-427
-427
-425
-425
-423
-424
-422
-422
-422
-421
-420
-419
-420
-421
-420
-421
-418
-423
-423
-422
-423
-424
-428
-427
-427
-428
-430
-430
-430
-431
-431
-432
-431
-433
-435
-436
-439
-442
-446
-448
-450
-453
-454
-456
-453
-453
-455
-458
-462
-465
-461
-455
-446
-441
-436
-431
-424
-419
-413
-411
-411
-409
-409
-409
-412
-415
-418
-420
-422
-423
-427
-428
-427
-423
-413
-415
-446
-505
-554
-585
-601
-608
-605
-591
-561
-511
-438
-374
-326
-297
-285
-298
-321
-339
-348
-354
-361
-365
-372
-379
-383
-389
-395
-400
-406
-411
-415
-421
-425
-428
-431
-435
-439
-442
-443
-444
-446
-448
-450
-453
-454
-457
-458
-458
-461
-460
-465
-468
-469
-473
-478
-484
-492
-498
-506
-513
-519
-523
-524
-526
-526
-524
-522
-515
-509
-500
-489
-476
-465
-452
-439
-427
-415
-405
-396
-387
-379
-376
-373
-369
-368
-369
-373
-374
-376
-379
-380
-387
-388
-393
-396
-400
-404
-406
-409
-412
-415
-417
-420
-423
-422
-422
-422
-422
-423
-422
-423
-422
-420
-418
-419
-419
-419
-418
-418
-417
-415
-417
-417
-418
-417
-416
-417
-417
-420
-418
-419
-419
-420
-421
-420
-422
-422
-421
-422
-423
-423
-423
-427
-431
-435
-440
-440
-444
-446
-450
-450
-450
-450
-450
-453
-457
-462
-459
-453
-447
-441
-436
-427
-425
-419
-416
-412
-412
-411
-411
-414
-413
-416
-414
-420
-423
-422
-427
-428
-429
-422
-412
-415
-439
-500
-554
-583
-597
-606
-604
-592
-565
-517
-446
-377
-323
-293
-281
-291
-315
-333
-344
-350
-356
-365
-373
-381
-387
-390
-397
-404
-411
-414
-420
-424
-428
-432
-435
-439
-442
-445
-446
-450
-452
-453
-454
-455
-457
-458
-460
-462
-464
-465
-467
-469
-472
-477
-481
-488
-496
-502
-510
-516
-521
-526
-530
-532
-534
-532
-531
-528
-523
-514
-503
-491
-477
-462
-448
-435
-422
-410
-399
-389
-381
-377
-374
-371
-369
-369
-370
-373
-376
-381
-384
-386
-391
-396
-399
-403
-406
-411
-415
-419
-422
-423
-423
-427
-427
-428
-429
-427
-427
-427
-424
-424
-423
-423
-422
-422
-420
-419
-420
-420
-419
-419
-420
-421
-419
-420
-421
-422
-421
-421
-423
-423
-423
-423
-424
-425
-425
-427
-428
-428
-429
-430
-433
-438
-444
-446
-447
-449
-452
-454
-452
-452
-455
-460
-463
-466
-460
-453
-448
-442
-435
-428
-424
-423
-417
-414
-415
-415
-415
-415
-417
-419
-419
-422
-424
-427
-419
-430
-427
-424
-417
-423
-461
-522
-565
-589
-604
-606
-602
-587
-554
-496
-422
-358
-314
-292
-285
-300
-326
-341
-352
-358
-364
-369
-377
-385
-389
-395
-401
-408
-411
-417
-422
-427
-431
-431
-436
-439
-442
-443
-445
-446
-450
-447
-450
-453
-454
-455
-457
-458
-462
-463
-463
-468
-471
-473
-478
-486
-495
-500
-508
-514
-520
-523
-526
-524
-523
-522
-517
-512
-507
-496
-485
-472
-459
-444
-429
-415
-404
-392
-382
-373
-369
-366
-361
-361
-361
-361
-365
-368
-373
-377
-381
-385
-389
-395
-399
-401
-406
-409
-411
-412
-415
-417
-418
-418
-420
-422
-421
-420
-420
-419
-418
-417
-417
-415
-416
-415
-414
-415
-415
-414
-416
-417
-418
-419
-419
-420
-421
-422
-423
-425
-425
-427
-427
-427
-427
-427
-427
-428
-427
-430
-430
-431
-435
-439
-444
-446
-447
-449
-452
-452
-450
-450
-455
-458
-464
-465
-460
-452
-447
-441
-434
-427
-423
-417
-415
-414
-415
-414
-411
-414
-417
-419
-422
-423
-427
-429
-432
-431
-431
-419
-421
-438
-486
-542
-579
-600
-608
-608
-599
-578
-535
-458
-379
-320
-288
-276
-282
-304
-334
-354
-365
-373
-379
-385
-391
-393
-400
-408
-414
-419
-422
-427
-427
-433
-435
-439
-443
-446
-447
-450
-453
-453
-455
-457
-457
-460
-460
-463
-466
-468
-468
-471
-472
-474
-480
-485
-494
-501
-508
-515
-523
-528
-530
-533
-535
-535
-532
-528
-523
-514
-504
-490
-476
-460
-444
-431
-416
-404
-390
-381
-372
-365
-361
-358
-358
-360
-362
-365
-369
-373
-378
-382
-387
-393
-400
-403
-408
-411
-415
-418
-420
-422
-423
-423
-423
-424
-425
-425
-419
-423
-422
-420
-419
-419
-416
-411
-414
-414
-413
-414
-415
-419
-419
-420
-422
-422
-423
-425
-425
-427
-430
-430
-429
-430
-429
-430
-430
-430
-433
-434
-435
-435
-438
-440
-442
-447
-447
-447
-451
-454
-455
-455
-452
-454
-458
-461
-463
-458
-453
-444
-442
-435
-430
-425
-422
-419
-415
-414
-414
-412
-412
-414
-415
-417
-421
-423
-427
-428
-428
-428
-421
-415
-425
-469
-529
-571
-593
-605
-607
-600
-584
-552
-490
-402
-335
-292
-274
-272
-286
-312
-336
-350
-361
-369
-369
-384
-389
-395
-400
-404
-410
-414
-420
-423
-428
-431
-436
-438
-441
-442
-446
-447
-448
-449
-450
-452
-454
-455
-458
-461
-464
-465
-469
-471
-472
-476
-485
-491
-496
-504
-512
-520
-525
-530
-533
-533
-536
-535
-530
-524
-519
-508
-496
-482
-470
-454
-438
-423
-411
-396
-387
-379
-371
-365
-361
-363
-361
-363
-367
-369
-373
-378
-383
-388
-395
-399
-404
-409
-413
-417
-419
-422
-425
-427
-427
-427
-427
-427
-427
-425
-425
-422
-420
-419
-417
-417
-415
-414
-413
-414
-412
-411
-413
-415
-415
-415
-417
-418
-419
-420
-419
-423
-423
-425
-427
-428
-430
-431
-431
-433
-435
-434
-434
-435
-435
-436
-439
-444
-447
-450
-450
-454
-458
-458
-457
-455
-457
-459
-463
-468
-463
-457
-450
-447
-441
-435
-431
-423
-422
-417
-415
-415
-415
-415
-413
-415
-417
-420
-422
-423
-423
-425
-425
-417
-404
-407
-443
-507
-561
-589
-604
-609
-607
-597
-572
-531
-465
-392
-336
-298
-283
-288
-312
-327
-337
-342
-349
-357
-363
-370
-377
-382
-389
-395
-400
-406
-411
-418
-422
-424
-430
-435
-437
-439
-441
-444
-446
-447
-450
-450
-454
-454
-455
-457
-460
-462
-464
-466
-470
-475
-481
-485
-493
-500
-509
-514
-520
-525
-531
-531
-531
-530
-527
-521
-515
-508
-496
-482
-470
-457
-443
-430
-418
-406
-393
-388
-381
-377
-374
-371
-369
-370
-372
-373
-377
-379
-384
-385
-390
-395
-399
-403
-406
-411
-414
-415
-419
-419
-423
-422
-422
-423
-423
-423
-419
-423
-420
-419
-417
-415
-415
-412
-413
-411
-412
-412
-411
-411
-409
-411
-411
-411
-411
-412
-414
-412
-415
-417
-417
-418
-419
-422
-422
-424
-426
-427
-428
-430
-430
-430
-431
-431
-435
-436
-439
-442
-444
-450
-450
-452
-454
-457
-457
-451
-454
-458
-461
-465
-462
-457
-447
-444
-439
-435
-429
-423
-418
-412
-414
-411
-411
-412
-412
-415
-415
-419
-420
-423
-424
-426
-426
-425
-415
-405
-413
-455
-520
-567
-596
-592
-612
-606
-592
-564
-514
-443
-377
-327
-296
-284
-295
-318
-335
-344
-350
-357
-364
-370
-375
-384
-388
-395
-402
-405
-411
-417
-421
-425
-429
-434
-436
-439
-442
-444
-446
-449
-453
-454
-456
-455
-458
-460
-462
-465
-467
-469
-473
-474
-477
-482
-488
-494
-500
-508
-515
-522
-526
-530
-533
-532
-532
-531
-527
-522
-514
-506
-496
-485
-472
-457
-444
-431
-420
-409
-400
-392
-386
-380
-377
-376
-377
-377
-380
-383
-385
-386
-390
-393
-396
-401
-404
-406
-411
-414
-417
-420
-423
-422
-422
-422
-423
-422
-422
-423
-423
-423
-419
-419
-418
-414
-416
-415
-416
-414
-414
-414
-411
-411
-411
-412
-414
-413
-415
-415
-416
-416
-417
-419
-422
-423
-423
-425
-427
-430
-432
-433
-435
-438
-437
-437
-438
-440
-440
-442
-444
-444
-443
-444
-446
-454
-458
-458
-457
-458
-461
-459
-460
-458
-460
-465
-468
-471
-462
-457
-452
-446
-441
-435
-431
-425
-419
-417
-415
-414
-413
-414
-412
-414
-417
-420
-422
-423
-428
-428
-428
-424
-414
-411
-425
-473
-533
-574
-596
-606
-608
-600
-585
-550
-487
-401
-341
-296
-276
-273
-288
-312
-334
-346
-355
-361
-366
-375
-380
-385
-393
-398
-405
-411
-416
-419
-423
-427
-431
-435
-438
-442
-443
-446
-438
-450
-451
-453
-457
-457
-459
-460
-462
-466
-467
-469
-472
-476
-481
-485
-491
-496
-502
-509
-515
-520
-523
-524
-526
-527
-525
-522
-517
-509
-500
-488
-475
-460
-447
-431
-420
-406
-396
-388
-381
-376
-369
-366
-365
-368
-368
-368
-371
-376
-381
-384
-388
-393
-397
-401
-404
-407
-411
-411
-414
-417
-419
-421
-423
-422
-422
-421
-419
-418
-418
-417
-417
-415
-413
-413
-412
-412
-412
-411
-411
-412
-414
-414
-415
-414
-416
-417
-418
-419
-419
-422
-424
-427
-431
-432
-433
-433
-433
-435
-439
-440
-439
-441
-441
-442
-444
-446
-448
-448
-449
-450
-450
-449
-454
-458
-459
-458
-458
-460
-462
-462
-461
-461
-465
-468
-470
-468
-465
-459
-452
-446
-438
-431
-425
-422
-419
-417
-412
-412
-415
-415
-415
-415
-420
-423
-425
-425
-426
-424
-420
-414
-420
-450
-509
-560
-589
-605
-610
-608
-596
-571
-521
-431
-355
-300
-272
-265
-269
-288
-312
-331
-346
-354
-362
-368
-374
-382
-387
-393
-401
-407
-411
-417
-422
-427
-431
-434
-438
-439
-443
-446
-447
-450
-453
-454
-454
-455
-458
-459
-462
-465
-468
-471
-474
-475
-480
-485
-491
-498
-505
-512
-518
-522
-527
-529
-530
-528
-527
-523
-519
-510
-503
-492
-480
-466
-454
-441
-428
-415
-403
-392
-381
-374
-368
-365
-365
-365
-362
-364
-367
-372
-375
-381
-385
-389
-395
-399
-404
-408
-413
-415
-417
-419
-422
-422
-423
-425
-423
-422
-421
-421
-419
-414
-417
-415
-413
-412
-410
-411
-409
-408
-408
-409
-407
-408
-408
-407
-407
-409
-410
-412
-414
-416
-418
-421
-419
-423
-424
-427
-429
-431
-431
-433
-436
-438
-439
-439
-441
-442
-443
-443
-446
-447
-447
-452
-458
-458
-458
-460
-462
-463
-463
-460
-461
-463
-465
-465
-462
-458
-450
-444
-441
-435
-431
-423
-419
-416
-413
-414
-414
-415
-415
-415
-419
-422
-424
-425
-428
-427
-423
-411
-403
-414
-461
-527
-572
-598
-609
-611
-605
-593
-566
-519
-445
-374
-321
-285
-276
-288
-310
-323
-333
-340
-346
-354
-361
-368
-374
-381
-387
-395
-402
-405
-413
-419
-424
-427
-431
-435
-438
-442
-443
-446
-447
-450
-450
-452
-454
-456
-459
-458
-462
-465
-469
-471
-477
-481
-484
-492
-500
-508
-514
-520
-527
-529
-533
-535
-535
-535
-531
-526
-519
-509
-497
-482
-469
-456
-442
-427
-417
-406
-396
-388
-381
-377
-373
-370
-369
-371
-373
-373
-376
-377
-381
-385
-388
-393
-396
-401
-405
-409
-413
-415
-418
-421
-423
-424
-425
-425
-427
-425
-424
-425
-423
-424
-422
-419
-418
-417
-417
-416
-415
-414
-414
-411
-415
-415
-415
-415
-415
-417
-417
-419
-420
-420
-421
-422
-423
-425
-427
-428
-431
-433
-435
-436
-438
-441
-438
-441
-442
-443
-444
-446
-446
-450
-456
-458
-458
-459
-463
-463
-463
-463
-461
-465
-466
-469
-469
-463
-457
-450
-446
-441
-435
-430
-423
-419
-415
-415
-417
-415
-417
-420
-419
-419
-423
-423
-427
-430
-428
-427
-417
-406
-415
-461
-526
-574
-596
-609
-612
-609
-593
-566
-519
-449
-381
-327
-292
-281
-290
-313
-328
-338
-343
-349
-358
-364
-371
-378
-384
-390
-396
-401
-408
-411
-418
-421
-425
-431
-433
-435
-439
-442
-443
-446
-448
-450
-452
-454
-457
-458
-461
-461
-465
-465
-468
-471
-473
-479
-486
-492
-500
-508
-514
-521
-524
-524
-530
-530
-529
-527
-523
-515
-507
-497
-484
-472
-458
-446
-433
-420
-408
-395
-388
-381
-376
-371
-367
-366
-365
-366
-369
-373
-377
-377
-382
-385
-391
-395
-397
-404
-408
-411
-411
-415
-419
-421
-419
-422
-423
-420
-423
-424
-425
-425
-424
-423
-420
-420
-420
-419
-419
-415
-415
-414
-416
-415
-413
-414
-414
-415
-413
-417
-417
-419
-422
-423
-424
-425
-427
-427
-431
-433
-436
-438
-437
-439
-441
-441
-444
-444
-446
-444
-446
-448
-448
-450
-452
-455
-461
-464
-461
-465
-466
-468
-466
-465
-464
-468
-472
-475
-471
-465
-460
-452
-444
-441
-436
-433
-427
-423
-420
-420
-420
-422
-421
-422
-425
-427
-428
-431
-433
-434
-433
-431
-423
-415
-423
-466
-530
-576
-600
-610
-615
-612
-599
-569
-515
-428
-357
-304
-277
-269
-283
-309
-329
-342
-351
-360
-366
-373
-380
-386
-393
-399
-403
-406
-415
-420
-426
-430
-433
-438
-441
-444
-446
-448
-450
-452
-454
-455
-458
-460
-460
-462
-466
-468
-469
-473
-474
-478
-482
-486
-492
-498
-505
-511
-518
-522
-526
-529
-534
-535
-533
-530
-524
-519
-508
-494
-482
-468
-454
-438
-428
-415
-404
-393
-383
-376
-372
-367
-365
-365
-365
-363
-367
-369
-374
-377
-381
-387
-392
-395
-401
-406
-411
-414
-417
-421
-423
-425
-427
-424
-427
-427
-426
-425
-423
-423
-419
-420
-420
-419
-420
-417
-415
-414
-415
-415
-416
-415
-415
-414
-413
-414
-414
-412
-413
-417
-417
-418
-419
-423
-424
-427
-428
-431
-431
-433
-431
-438
-439
-441
-439
-439
-440
-441
-440
-441
-443
-447
-449
-454
-458
-456
-455
-457
-460
-461
-458
-458
-461
-462
-466
-465
-459
-454
-451
-443
-438
-431
-427
-422
-417
-415
-413
-414
-411
-411
-414
-417
-418
-420
-422
-423
-425
-423
-423
-415
-409
-417
-454
-515
-562
-588
-600
-604
-600
-587
-561
-506
-420
-342
-292
-269
-265
-273
-297
-323
-338
-349
-359
-368
-373
-379
-386
-392
-396
-400
-405
-411
-415
-419
-423
-427
-431
-433
-438
-442
-444
-446
-447
-447
-450
-450
-450
-453
-457
-458
-460
-462
-465
-469
-471
-475
-480
-485
-491
-498
-508
-512
-520
-524
-530
-531
-531
-530
-528
-523
-517
-510
-498
-488
-475
-458
-442
-430
-417
-403
-392
-381
-374
-368
-361
-358
-357
-356
-357
-360
-361
-364
-369
-374
-381
-385
-391
-396
-401
-404
-411
-414
-418
-420
-422
-421
-423
-424
-423
-423
-423
-420
-419
-419
-415
-412
-411
-410
-409
-408
-407
-406
-404
-405
-407
-406
-406
-404
-406
-406
-407
-411
-411
-412
-412
-415
-417
-419
-422
-424
-427
-428
-431
-431
-434
-435
-437
-438
-439
-442
-442
-444
-443
-446
-449
-454
-459
-460
-460
-460
-463
-462
-462
-459
-463
-465
-469
-468
-464
-458
-454
-446
-441
-435
-431
-422
-420
-418
-417
-415
-415
-417
-417
-418
-421
-423
-425
-427
-427
-428
-427
-418
-408
-408
-439
-501
-557
-588
-601
-608
-606
-595
-577
-544
-483
-409
-344
-303
-281
-282
-304
-325
-338
-346
-353
-358
-364
-371
-377
-384
-388
-393
-400
-405
-410
-414
-419
-423
-427
-429
-435
-438
-439
-441
-443
-444
-446
-447
-451
-453
-453
-456
-457
-460
-463
-465
-467
-471
-475
-480
-486
-495
-504
-512
-519
-524
-530
-531
-531
-531
-529
-525
-519
-511
-502
-488
-477
-465
-452
-439
-427
-415
-404
-396
-387
-380
-377
-373
-372
-369
-370
-371
-372
-375
-377
-379
-382
-387
-391
-396
-398
-403
-406
-409
-411
-414
-416
-419
-420
-420
-422
-422
-423
-423
-423
-423
-422
-419
-418
-418
-417
-415
-415
-414
-412
-411
-412
-412
-412
-412
-413
-412
-415
-415
-416
-416
-417
-419
-419
-420
-421
-423
-426
-427
-428
-429
-432
-435
-436
-436
-438
-441
-441
-446
-446
-447
-450
-452
-454
-455
-462
-465
-465
-465
-468
-469
-465
-465
-466
-469
-472
-477
-476
-468
-465
-458
-452
-447
-443
-438
-430
-430
-426
-423
-423
-423
-424
-420
-427
-429
-429
-431
-433
-434
-431
-431
-423
-412
-417
-453
-517
-568
-596
-609
-612
-608
-596
-573
-534
-469
-396
-341
-304
-288
-295
-317
-331
-341
-346
-354
-359
-366
-373
-379
-386
-392
-399
-405
-411
-415
-422
-425
-430
-435
-438
-442
-443
-446
-450
-452
-453
-455
-458
-460
-461
-463
-465
-466
-469
-471
-474
-477
-481
-485
-491
-497
-504
-512
-519
-523
-530
-531
-533
-535
-533
-529
-523
-519
-509
-498
-485
-474
-460
-446
-433
-423
-411
-403
-393
-387
-381
-381
-377
-377
-377
-377
-378
-381
-381
-387
-388
-392
-394
-396
-401
-404
-407
-411
-414
-417
-417
-421
-421
-423
-425
-425
-427
-425
-427
-425
-425
-423
-422
-422
-421
-419
-418
-418
-415
-415
-415
-415
-415
-412
-416
-415
-415
-417
-419
-419
-419
-422
-422
-422
-423
-425
-425
-427
-430
-431
-435
-435
-437
-436
-438
-439
-440
-439
-441
-442
-443
-442
-444
-446
-446
-446
-447
-449
-452
-453
-453
-460
-460
-462
-463
-465
-465
-465
-462
-465
-468
-471
-469
-462
-457
-450
-442
-437
-434
-428
-422
-418
-417
-415
-415
-414
-415
-415
-417
-419
-420
-422
-423
-423
-423
-422
-409
-403
-417
-468
-531
-571
-593
-603
-604
-596
-577
-539
-471
-388
-325
-288
-269
-270
-291
-315
-333
-341
-349
-357
-362
-371
-377
-381
-390
-396
-402
-409
-413
-419
-423
-428
-433
-435
-440
-442
-446
-446
-448
-452
-453
-454
-455
-456
-459
-460
-461
-463
-466
-469
-472
-476
-482
-487
-492
-500
-509
-515
-521
-526
-529
-531
-532
-531
-530
-527
-522
-512
-500
-487
-473
-458
-447
-434
-418
-407
-398
-388
-381
-376
-371
-369
-367
-366
-366
-368
-370
-374
-378
-381
-386
-388
-393
-399
-402
-406
-411
-412
-415
-417
-419
-422
-423
-423
-423
-426
-426
-425
-423
-423
-423
-419
-419
-415
-415
-414
-411
-411
-411
-412
-412
-414
-416
-415
-417
-420
-421
-422
-421
-423
-416
-423
-422
-425
-427
-428
-430
-431
-434
-435
-435
-436
-438
-438
-439
-440
-441
-440
-441
-441
-444
-446
-446
-446
-446
-446
-446
-447
-452
-455
-457
-461
-461
-463
-464
-466
-467
-465
-465
-465
-468
-470
-466
-461
-456
-450
-445
-439
-433
-428
-423
-421
-418
-417
-418
-414
-417
-419
-417
-418
-421
-423
-425
-425
-425
-418
-408
-409
-435
-494
-549
-580
-598
-604
-603
-592
-567
-522
-440
-361
-306
-276
-265
-269
-287
-312
-331
-341
-350
-358
-367
-373
-380
-387
-392
-396
-404
-409
-413
-419
-423
-427
-431
-433
-438
-439
-444
-446
-448
-449
-450
-452
-453
-454
-456
-458
-460
-461
-462
-465
-468
-471
-476
-484
-490
-498
-504
-512
-517
-522
-524
-527
-526
-524
-523
-519
-515
-506
-498
-486
-473
-458
-445
-431
-421
-406
-396
-386
-377
-371
-366
-363
-361
-361
-361
-363
-365
-368
-373
-377
-382
-385
-390
-395
-399
-404
-407
-412
-416
-418
-419
-420
-420
-420
-420
-420
-419
-417
-415
-414
-413
-411
-409
-408
-406
-405
-404
-403
-403
-403
-403
-403
-404
-406
-408
-409
-411
-414
-413
-415
-419
-420
-421
-422
-423
-422
-427
-428
-428
-431
-431
-433
-434
-434
-436
-435
-437
-438
-440
-440
-441
-442
-441
-442
-443
-446
-446
-447
-453
-455
-462
-463
-464
-466
-468
-465
-461
-465
-468
-471
-473
-471
-467
-457
-454
-447
-442
-437
-433
-427
-421
-421
-419
-419
-419
-419
-419
-415
-422
-422
-424
-425
-428
-427
-417
-411
-404
-418
-469
-533
-577
-603
-611
-612
-606
-591
-560
-508
-431
-361
-309
-282
-273
-289
-309
-322
-330
-336
-344
-350
-356
-365
-373
-379
-385
-394
-400
-406
-411
-417
-423
-425
-431
-433
-436
-438
-442
-444
-448
-449
-452
-455
-457
-457
-458
-460
-463
-463
-468
-469
-473
-477
-483
-488
-495
-504
-511
-517
-522
-528
-529
-531
-531
-530
-524
-522
-516
-508
-496
-484
-472
-459
-444
-431
-420
-411
-401
-388
-385
-380
-375
-373
-373
-373
-372
-373
-376
-379
-381
-385
-388
-390
-393
-396
-400
-404
-408
-409
-411
-415
-419
-419
-420
-422
-423
-422
-422
-421
-422
-420
-419
-419
-418
-417
-415
-415
-413
-414
-412
-414
-412
-411
-413
-411
-414
-415
-415
-417
-419
-419
-419
-422
-423
-425
-426
-427
-428
-427
-431
-431
-435
-429
-435
-436
-436
-439
-438
-438
-438
-440
-442
-439
-441
-442
-442
-441
-442
-444
-445
-447
-446
-455
-459
-458
-460
-465
-465
-465
-463
-461
-466
-468
-471
-471
-465
-458
-452
-446
-442
-438
-431
-427
-421
-419
-417
-416
-415
-417
-417
-417
-419
-420
-423
-423
-425
-425
-423
-419
-404
-398
-420
-476
-540
-579
-600
-606
-607
-596
-576
-542
-484
-412
-349
-304
-280
-277
-297
-315
-325
-334
-341
-347
-354
-361
-368
-374
-381
-388
-396
-401
-408
-412
-419
-423
-427
-433
-436
-439
-442
-444
-447
-450
-451
-452
-455
-457
-458
-459
-461
-465
-466
-465
-469
-473
-475
-481
-487
-495
-502
-509
-516
-522
-527
-529
-533
-533
-531
-530
-525
-519
-511
-500
-487
-475
-461
-448
-435
-425
-414
-403
-394
-388
-384
-379
-377
-376
-377
-377
-377
-379
-381
-385
-388
-390
-393
-398
-402
-406
-409
-411
-414
-415
-419
-422
-422
-422
-426
-427
-425
-425
-425
-426
-426
-424
-423
-420
-420
-418
-419
-417
-417
-416
-415
-415
-413
-414
-416
-417
-419
-420
-418
-420
-421
-422
-424
-427
-428
-431
-431
-428
-435
-435
-436
-438
-438
-438
-439
-439
-442
-443
-443
-443
-445
-446
-446
-446
-446
-447
-447
-447
-447
-448
-447
-448
-448
-450
-454
-457
-461
-466
-465
-465
-468
-469
-468
-466
-466
-471
-473
-476
-474
-469
-461
-457
-448
-442
-438
-431
-425
-422
-419
-417
-417
-417
-419
-418
-419
-419
-423
-423
-423
-425
-425
-423
-414
-406
-411
-453
-515
-562
-589
-602
-604
-600
-586
-557
-514
-437
-363
-309
-279
-266
-274
-297
-320
-335
-346
-354
-361
-369
-376
-381
-388
-395
-399
-406
-411
-418
-422
-427
-431
-435
-438
-441
-443
-444
-447
-447
-452
-454
-455
-455
-458
-460
-461
-461
-465
-468
-467
-468
-473
-477
-484
-489
-496
-504
-512
-519
-524
-529
-531
-531
-531
-530
-527
-522
-515
-507
-496
-484
-469
-458
-446
-433
-419
-409
-396
-385
-375
-371
-367
-362
-359
-358
-361
-362
-365
-367
-370
-374
-379
-384
-389
-395
-399
-401
-404
-408
-409
-411
-411
-412
-413
-414
-415
-415
-412
-411
-411
-412
-411
-411
-409
-407
-407
-408
-406
-408
-407
-408
-406
-406
-407
-409
-411
-414
-415
-417
-417
-419
-419
-419
-421
-422
-423
-423
-426
-428
-428
-429
-430
-432
-431
-433
-435
-437
-438
-439
-439
-441
-442
-444
-444
-446
-446
-447
-446
-449
-452
-454
-457
-461
-460
-461
-465
-468
-469
-468
-466
-466
-469
-475
-475
-469
-465
-459
-454
-444
-440
-435
-429
-424
-421
-417
-415
-419
-418
-419
-421
-421
-423
-423
-428
-429
-429
-428
-422
-411
-414
-442
-502
-557
-587
-603
-609
-604
-593
-569
-529
-461
-384
-323
-288
-273
-273
-288
-312
-331
-343
-351
-361
-368
-375
-381
-388
-395
-399
-403
-409
-415
-419
-423
-430
-434
-435
-437
-440
-442
-445
-446
-450
-452
-453
-454
-454
-457
-459
-460
-462
-463
-466
-468
-471
-477
-480
-485
-492
-497
-508
-512
-519
-525
-527
-528
-528
-527
-525
-517
-512
-503
-494
-481
-469
-455
-443
-430
-418
-407
-396
-387
-377
-373
-369
-365
-363
-363
-362
-365
-368
-371
-374
-380
-385
-388
-393
-397
-403
-405
-407
-411
-414
-415
-417
-418
-419
-419
-419
-419
-418
-416
-413
-412
-408
-411
-409
-408
-408
-404
-404
-404
-404
-404
-404
-405
-408
-407
-408
-408
-412
-411
-413
-415
-419
-419
-417
-422
-423
-426
-427
-427
-430
-431
-431
-434
-436
-436
-436
-439
-438
-440
-439
-442
-444
-445
-445
-444
-446
-446
-450
-453
-458
-460
-460
-461
-461
-465
-464
-461
-461
-463
-468
-468
-469
-462
-457
-450
-444
-439
-431
-431
-423
-419
-417
-415
-414
-411
-413
-415
-417
-417
-419
-422
-418
-423
-423
-420
-410
-396
-402
-441
-508
-558
-587
-594
-602
-598
-585
-564
-524
-457
-388
-332
-296
-281
-291
-312
-327
-335
-341
-348
-356
-361
-367
-373
-381
-387
-393
-400
-405
-409
-415
-418
-423
-427
-431
-435
-438
-441
-442
-443
-446
-449
-450
-452
-456
-457
-459
-461
-463
-465
-466
-469
-473
-479
-484
-488
-496
-504
-511
-517
-523
-527
-530
-529
-528
-524
-521
-516
-508
-500
-488
-477
-463
-454
-440
-428
-417
-408
-399
-391
-385
-379
-375
-373
-373
-373
-374
-376
-377
-381
-381
-385
-388
-393
-396
-399
-404
-406
-409
-412
-414
-415
-418
-419
-419
-420
-422
-422
-422
-419
-421
-419
-420
-420
-419
-419
-418
-416
-415
-414
-415
-414
-413
-415
-415
-415
-415
-417
-419
-417
-420
-422
-423
-423
-427
-427
-415
-428
-431
-431
-434
-433
-435
-438
-440
-440
-441
-442
-444
-443
-446
-446
-446
-447
-448
-450
-451
-453
-457
-457
-460
-460
-462
-463
-465
-461
-460
-465
-469
-473
-473
-466
-462
-456
-450
-444
-442
-435
-428
-423
-420
-419
-419
-417
-418
-418
-419
-420
-424
-425
-428
-430
-430
-430
-423
-411
-410
-437
-500
-554
-585
-600
-604
-600
-589
-566
-531
-469
-402
-348
-311
-293
-298
-318
-336
-345
-351
-358
-363
-369
-374
-381
-387
-392
-398
-403
-407
-412
-418
-422
-427
-431
-435
-436
-439
-442
-443
-446
-448
-452
-454
-454
-457
-459
-460
-462
-463
-465
-465
-468
-473
-476
-481
-485
-492
-500
-507
-514
-519
-523
-526
-527
-526
-524
-522
-515
-509
-500
-492
-479
-466
-454
-440
-428
-417
-405
-396
-388
-381
-374
-373
-369
-367
-367
-365
-369
-373
-374
-377
-380
-384
-385
-390
-393
-397
-401
-404
-408
-409
-411
-414
-415
-415
-417
-417
-417
-415
-414
-415
-414
-412
-411
-411
-412
-410
-409
-411
-411
-407
-407
-408
-407
-408
-408
-410
-411
-412
-414
-415
-415
-417
-417
-419
-422
-424
-424
-426
-428
-430
-431
-433
-435
-435
-436
-438
-439
-441
-441
-441
-442
-444
-446
-446
-447
-450
-452
-453
-457
-459
-460
-461
-463
-465
-462
-461
-460
-467
-469
-473
-470
-463
-459
-454
-447
-441
-436
-433
-426
-425
-421
-421
-422
-419
-420
-420
-422
-424
-426
-431
-431
-431
-427
-428
-421
-412
-418
-452
-511
-559
-589
-603
-606
-603
-590
-566
-520
-443
-369
-319
-291
-281
-288
-312
-335
-350
-361
-368
-376
-381
-386
-392
-396
-400
-406
-411
-417
-422
-427
-433
-437
-439
-442
-446
-448
-450
-452
-453
-455
-456
-457
-458
-460
-462
-464
-465
-468
-469
-472
-476
-482
-485
-488
-496
-503
-509
-514
-520
-524
-527
-529
-528
-528
-526
-522
-516
-509
-498
-485
-476
-462
-447
-435
-422
-411
-399
-388
-379
-373
-366
-362
-361
-361
-362
-365
-367
-370
-375
-377
-382
-386
-392
-396
-401
-406
-411
-414
-414
-416
-419
-419
-419
-419
-422
-419
-420
-417
-418
-419
-418
-415
-414
-411
-411
-409
-411
-411
-411
-409
-409
-409
-409
-411
-411
-414
-414
-414
-413
-414
-417
-419
-419
-422
-422
-422
-419
-425
-427
-428
-431
-431
-435
-435
-438
-438
-440
-441
-442
-444
-445
-446
-445
-446
-448
-450
-454
-456
-457
-458
-460
-461
-462
-461
-461
-463
-465
-471
-469
-465
-460
-456
-450
-441
-437
-429
-425
-422
-419
-417
-415
-415
-415
-417
-419
-420
-420
-422
-424
-425
-424
-425
-419
-407
-408
-435
-493
-549
-582
-600
-607
-601
-592
-571
-527
-458
-384
-325
-288
-277
-279
-298
-320
-338
-350
-354
-364
-370
-376
-382
-388
-395
-397
-405
-411
-415
-418
-423
-427
-431
-435
-438
-443
-444
-446
-447
-450
-446
-453
-454
-457
-460
-461
-463
-465
-468
-471
-473
-474
-481
-486
-492
-499
-508
-513
-519
-524
-528
-530
-530
-528
-527
-523
-519
-510
-502
-491
-479
-465
-452
-439
-425
-415
-403
-393
-385
-375
-371
-367
-365
-365
-364
-366
-369
-371
-373
-379
-384
-388
-392
-396
-401
-406
-411
-415
-417
-419
-422
-423
-425
-425
-422
-423
-423
-423
-422
-421
-419
-419
-415
-414
-412
-412
-412
-410
-410
-409
-409
-408
-409
-409
-409
-411
-412
-415
-416
-418
-419
-420
-422
-424
-424
-427
-428
-430
-432
-433
-433
-434
-437
-438
-439
-440
-442
-443
-444
-444
-446
-445
-447
-448
-448
-450
-453
-455
-460
-461
-462
-463
-466
-468
-465
-465
-465
-468
-471
-473
-469
-463
-458
-453
-446
-440
-435
-429
-425
-420
-418
-418
-417
-417
-418
-420
-419
-419
-425
-427
-429
-427
-427
-425
-414
-404
-412
-458
-522
-568
-594
-608
-611
-604
-590
-563
-520
-454
-386
-333
-298
-283
-291
-312
-328
-336
-342
-350
-358
-363
-368
-374
-381
-387
-393
-399
-406
-411
-415
-420
-425
-431
-435
-438
-442
-443
-446
-446
-449
-452
-454
-455
-457
-458
-460
-460
-463
-466
-468
-471
-473
-477
-482
-488
-495
-502
-509
-516
-523
-527
-529
-530
-527
-524
-522
-519
-511
-503
-492
-482
-471
-458
-446
-435
-423
-411
-400
-394
-385
-380
-376
-373
-371
-369
-369
-371
-372
-374
-376
-380
-382
-385
-388
-393
-396
-399
-402
-406
-411
-411
-411
-415
-417
-417
-418
-419
-420
-420
-418
-420
-419
-417
-415
-415
-414
-414
-412
-411
-412
-411
-408
-408
-409
-411
-411
-411
-412
-412
-412
-414
-417
-418
-418
-419
-422
-423
-423
-425
-427
-419
-430
-430
-431
-431
-434
-435
-435
-437
-438
-439
-439
-441
-441
-442
-442
-444
-447
-447
-452
-458
-459
-459
-461
-465
-465
-465
-462
-464
-468
-469
-473
-469
-465
-459
-454
-445
-442
-438
-431
-426
-423
-421
-419
-419
-420
-420
-419
-419
-422
-423
-426
-428
-429
-428
-427
-419
-408
-408
-435
-495
-550
-585
-601
-608
-604
-593
-571
-535
-475
-408
-348
-310
-287
-289
-310
-330
-339
-346
-354
-357
-364
-370
-377
-381
-388
-396
-402
-407
-412
-418
-423
-428
-432
-435
-439
-442
-446
-446
-450
-450
-453
-454
-456
-458
-458
-460
-463
-465
-465
-466
-469
-472
-476
-482
-488
-495
-500
-508
-515
-519
-523
-524
-527
-527
-524
-519
-515
-508
-501
-491
-479
-466
-453
-439
-428
-419
-410
-400
-392
-382
-377
-375
-371
-369
-369
-371
-371
-373
-374
-377
-381
-381
-387
-392
-395
-398
-403
-406
-407
-411
-414
-416
-415
-418
-417
-419
-419
-418
-419
-420
-419
-417
-417
-417
-415
-413
-414
-414
-413
-412
-414
-415
-414
-414
-414
-415
-415
-415
-415
-417
-419
-421
-420
-423
-425
-427
-427
-430
-431
-430
-431
-434
-435
-435
-436
-438
-438
-440
-440
-440
-441
-442
-442
-443
-445
-444
-443
-444
-446
-447
-450
-454
-457
-461
-460
-462
-463
-465
-464
-461
-465
-469
-472
-473
-469
-464
-455
-450
-444
-437
-433
-426
-420
-419
-419
-417
-417
-417
-417
-419
-417
-421
-423
-423
-427
-427
-427
-421
-411
-409
-430
-485
-544
-579
-596
-604
-601
-593
-573
-535
-466
-385
-328
-293
-276
-276
-295
-319
-336
-347
-357
-363
-368
-374
-381
-383
-392
-397
-404
-410
-415
-419
-422
-428
-432
-435
-438
-441
-442
-441
-446
-448
-449
-450
-452
-454
-453
-455
-458
-460
-461
-463
-468
-472
-477
-482
-488
-497
-504
-512
-520
-524
-528
-530
-531
-531
-529
-525
-519
-513
-503
-491
-475
-462
-449
-435
-424
-414
-402
-392
-381
-380
-373
-371
-369
-368
-366
-367
-368
-370
-373
-377
-381
-385
-390
-394
-396
-401
-406
-409
-411
-415
-419
-420
-419
-421
-422
-419
-420
-418
-419
-420
-418
-417
-417
-415
-415
-415
-414
-413
-411
-411
-411
-412
-412
-411
-414
-415
-417
-418
-419
-419
-421
-423
-423
-425
-425
-427
-427
-431
-431
-431
-435
-435
-436
-436
-438
-439
-443
-443
-442
-444
-446
-446
-444
-445
-447
-447
-447
-450
-453
-458
-460
-461
-463
-465
-465
-463
-462
-463
-465
-469
-472
-467
-460
-457
-452
-446
-436
-432
-427
-422
-419
-416
-417
-415
-415
-415
-418
-420
-422
-423
-425
-428
-427
-425
-415
-406
-410
-444
-509
-561
-590
-604
-608
-603
-588
-564
-518
-444
-370
-315
-285
-274
-279
-299
-321
-334
-347
-354
-361
-369
-376
-381
-386
-393
-399
-404
-409
-415
-419
-422
-427
-431
-435
-436
-439
-442
-442
-445
-446
-450
-449
-451
-452
-455
-458
-460
-461
-462
-465
-469
-472
-477
-479
-491
-498
-506
-512
-519
-523
-526
-530
-529
-525
-524
-519
-513
-503
-492
-482
-469
-455
-440
-428
-416
-406
-393
-385
-377
-369
-365
-361
-361
-360
-359
-360
-363
-364
-370
-374
-378
-382
-386
-392
-394
-400
-404
-408
-411
-415
-416
-419
-419
-420
-419
-419
-419
-417
-417
-415
-415
-412
-411
-410
-407
-406
-405
-406
-406
-407
-406
-406
-406
-408
-408
-408
-409
-411
-411
-412
-415
-417
-419
-419
-423
-423
-424
-425
-428
-430
-431
-431
-434
-435
-436
-435
-438
-439
-441
-443
-443
-444
-446
-447
-448
-453
-457
-460
-460
-461
-464
-465
-466
-465
-465
-468
-471
-474
-471
-465
-460
-455
-448
-443
-439
-435
-429
-423
-422
-419
-419
-419
-419
-420
-419
-423
-425
-429
-428
-431
-430
-428
-419
-406
-414
-454
-523
-571
-596
-609
-612
-606
-592
-566
-524
-455
-386
-333
-300
-286
-295
-315
-332
-341
-346
-351
-358
-365
-369
-377
-385
-392
-398
-403
-411
-415
-422
-425
-430
-434
-435
-439
-442
-446
-447
-449
-451
-453
-454
-457
-457
-459
-461
-465
-465
-468
-471
-473
-476
-482
-488
-496
-503
-511
-517
-519
-525
-529
-530
-529
-528
-524
-521
-512
-505
-495
-484
-472
-459
-446
-432
-420
-410
-401
-393
-385
-381
-377
-372
-371
-372
-373
-371
-376
-379
-381
-385
-387
-392
-396
-399
-401
-406
-409
-411
-414
-415
-419
-419
-421
-422
-418
-423
-423
-423
-422
-422
-421
-422
-420
-419
-418
-418
-417
-417
-419
-418
-417
-418
-418
-418
-419
-419
-420
-420
-420
-422
-423
-426
-425
-427
-428
-431
-431
-432
-433
-434
-435
-434
-437
-438
-438
-438
-440
-442
-439
-442
-444
-444
-444
-445
-446
-448
-449
-452
-457
-461
-461
-463
-465
-466
-465
-463
-463
-469
-473
-474
-469
-463
-458
-453
-446
-441
-436
-431
-423
-421
-419
-418
-417
-417
-417
-416
-419
-421
-423
-425
-427
-428
-427
-427
-419
-408
-409
-443
-507
-558
-590
-604
-608
-604
-592
-565
-522
-458
-389
-336
-300
-282
-287
-305
-327
-336
-342
-349
-354
-361
-366
-375
-384
-389
-395
-401
-407
-408
-415
-419
-425
-429
-431
-435
-435
-439
-442
-445
-450
-450
-450
-450
-455
-457
-458
-461
-455
-465
-466
-469
-473
-477
-481
-487
-495
-504
-511
-517
-523
-529
-529
-530
-531
-529
-527
-520
-515
-501
-494
-482
-469
-456
-442
-429
-417
-406
-398
-388
-380
-377
-373
-371
-371
-372
-371
-371
-373
-377
-379
-381
-386
-390
-392
-396
-400
-404
-406
-409
-412
-416
-419
-420
-419
-421
-422
-422
-420
-421
-422
-423
-422
-422
-420
-419
-419
-418
-419
-418
-418
-418
-417
-418
-417
-417
-419
-419
-418
-419
-418
-419
-422
-424
-425
-429
-428
-430
-430
-431
-433
-434
-435
-436
-437
-433
-437
-439
-439
-440
-439
-442
-442
-444
-446
-446
-448
-450
-450
-453
-455
-460
-461
-462
-463
-465
-465
-465
-463
-457
-465
-469
-473
-465
-468
-458
-454
-446
-442
-437
-433
-427
-422
-418
-415
-417
-417
-415
-415
-419
-419
-419
-423
-426
-426
-426
-427
-424
-415
-412
-430
-482
-541
-577
-598
-607
-606
-597
-579
-544
-479
-396
-331
-292
-273
-273
-287
-313
-333
-346
-353
-355
-368
-375
-382
-387
-393
-397
-404
-408
-414
-419
-423
-425
-430
-435
-438
-440
-442
-446
-447
-450
-450
-452
-454
-454
-454
-457
-460
-460
-463
-466
-469
-471
-476
-481
-486
-495
-496
-508
-513
-519
-522
-524
-526
-525
-525
-522
-519
-515
-509
-498
-487
-473
-460
-446
-433
-421
-408
-396
-387
-379
-372
-366
-363
-361
-358
-356
-360
-361
-365
-366
-371
-376
-379
-384
-388
-392
-396
-402
-404
-408
-411
-415
-417
-420
-421
-419
-419
-419
-419
-417
-415
-415
-415
-416
-414
-411
-411
-411
-408
-406
-406
-408
-408
-408
-411
-411
-411
-412
-414
-413
-415
-415
-417
-419
-419
-420
-422
-414
-426
-428
-429
-429
-431
-433
-435
-436
-438
-438
-440
-441
-442
-443
-444
-446
-446
-448
-450
-456
-459
-457
-457
-461
-465
-465
-462
-462
-464
-468
-473
-470
-466
-461
-457
-448
-442
-438
-433
-427
-423
-420
-417
-417
-417
-419
-417
-421
-422
-424
-425
-428
-431
-431
-429
-422
-410
-408
-431
-488
-547
-585
-604
-611
-609
-603
-585
-550
-488
-412
-349
-304
-281
-277
-290
-312
-328
-341
-349
-356
-361
-369
-376
-381
-388
-395
-400
-408
-412
-416
-422
-427
-431
-435
-438
-441
-442
-446
-446
-448
-450
-450
-455
-457
-457
-458
-460
-454
-465
-466
-469
-474
-479
-485
-492
-498
-506
-514
-520
-527
-528
-532
-535
-534
-533
-530
-523
-516
-508
-497
-484
-470
-457
-442
-429
-417
-405
-396
-387
-380
-373
-367
-365
-361
-364
-364
-365
-367
-369
-373
-377
-381
-385
-389
-392
-398
-401
-406
-410
-412
-416
-420
-422
-423
-424
-425
-423
-425
-424
-423
-422
-419
-420
-418
-415
-413
-412
-399
-411
-409
-409
-409
-409
-409
-411
-412
-412
-413
-414
-417
-417
-419
-419
-421
-423
-422
-424
-427
-429
-430
-431
-433
-433
-434
-435
-437
-438
-439
-439
-441
-438
-441
-442
-444
-442
-444
-446
-450
-454
-458
-460
-461
-465
-466
-465
-463
-462
-467
-469
-473
-472
-466
-458
-453
-446
-442
-438
-431
-428
-422
-419
-417
-419
-411
-419
-419
-420
-421
-423
-423
-427
-428
-428
-426
-421
-411
-407
-435
-494
-549
-584
-599
-604
-603
-592
-570
-533
-470
-396
-339
-301
-282
-287
-306
-320
-328
-335
-342
-347
-355
-363
-370
-375
-384
-389
-395
-401
-407
-414
-417
-423
-427
-431
-435
-438
-440
-439
-445
-446
-448
-451
-454
-455
-455
-458
-460
-461
-462
-465
-469
-468
-476
-481
-488
-496
-501
-510
-515
-523
-528
-532
-535
-533
-531
-525
-523
-515
-504
-493
-481
-468
-450
-441
-430
-419
-407
-399
-392
-381
-381
-378
-377
-376
-377
-377
-375
-381
-382
-385
-388
-392
-394
-393
-402
-404
-409
-412
-416
-418
-422
-422
-424
-425
-427
-425
-427
-427
-427
-423
-424
-423
-423
-423
-422
-421
-419
-419
-417
-418
-417
-417
-417
-419
-419
-419
-419
-421
-421
-422
-423
-423
-427
-425
-427
-427
-429
-431
-433
-433
-435
-435
-436
-438
-440
-440
-441
-441
-442
-442
-442
-442
-442
-441
-442
-442
-446
-446
-446
-447
-448
-452
-457
-460
-461
-465
-465
-466
-466
-465
-465
-469
-471
-474
-469
-463
-455
-452
-447
-441
-437
-431
-426
-422
-420
-419
-418
-419
-419
-420
-422
-423
-423
-426
-427
-427
-426
-425
-417
-403
-411
-450
-516
-565
-592
-604
-608
-601
-588
-563
-514
-431
-361
-312
-283
-271
-285
-308
-323
-333
-339
-346
-354
-361
-368
-375
-381
-388
-393
-398
-408
-412
-417
-422
-427
-433
-432
-438
-442
-444
-446
-449
-454
-453
-454
-455
-455
-457
-460
-459
-461
-462
-464
-466
-472
-476
-482
-490
-498
-506
-514
-522
-528
-532
-533
-533
-528
-533
-527
-522
-512
-501
-489
-474
-460
-446
-432
-418
-408
-400
-391
-382
-377
-373
-369
-368
-366
-369
-369
-372
-373
-377
-380
-383
-388
-390
-387
-399
-400
-404
-406
-409
-411
-412
-417
-417
-419
-419
-419
-419
-419
-417
-418
-418
-415
-417
-415
-415
-414
-411
-412
-412
-411
-411
-411
-409
-408
-409
-410
-412
-416
-420
-422
-423
-423
-423
-423
-427
-427
-427
-428
-430
-431
-431
-435
-435
-435
-435
-437
-438
-439
-441
-442
-442
-443
-441
-440
-441
-440
-441
-440
-444
-446
-446
-447
-452
-457
-461
-463
-463
-466
-466
-466
-465
-465
-468
-471
-476
-475
-469
-464
-458
-454
-446
-441
-435
-431
-425
-423
-420
-420
-420
-419
-420
-422
-422
-423
-423
-425
-427
-427
-427
-425
-415
-412
-431
-485
-542
-579
-600
-608
-608
-599
-577
-539
-469
-386
-321
-287
-271
-271
-285
-307
-327
-342
-349
-357
-363
-371
-377
-385
-388
-396
-401
-408
-414
-419
-423
-424
-430
-433
-437
-439
-444
-445
-450
-450
-452
-455
-457
-457
-458
-461
-461
-461
-463
-467
-469
-472
-476
-482
-488
-495
-501
-508
-516
-525
-528
-531
-535
-535
-535
-531
-527
-519
-511
-500
-485
-473
-457
-443
-430
-417
-404
-392
-385
-379
-373
-368
-365
-364
-362
-365
-366
-370
-371
-374
-380
-383
-387
-393
-396
-402
-406
-408
-411
-415
-415
-418
-419
-417
-422
-421
-421
-419
-419
-417
-415
-414
-412
-409
-406
-408
-408
-406
-406
-408
-406
-406
-405
-406
-400
-411
-411
-412
-415
-415
-417
-420
-422
-423
-423
-425
-427
-428
-428
-429
-431
-433
-433
-433
-435
-436
-438
-437
-439
-438
-439
-435
-439
-441
-441
-441
-441
-441
-441
-442
-443
-446
-449
-454
-457
-461
-462
-463
-465
-468
-466
-465
-465
-469
-473
-473
-468
-463
-457
-450
-444
-438
-435
-428
-422
-415
-415
-414
-412
-411
-412
-414
-411
-413
-417
-419
-420
-422
-422
-420
-407
-398
-404
-447
-514
-563
-590
-603
-606
-600
-588
-561
-517
-444
-374
-319
-284
-268
-275
-295
-311
-318
-326
-332
-341
-346
-357
-363
-371
-377
-383
-389
-396
-403
-408
-414
-419
-423
-427
-431
-431
-438
-439
-442
-444
-446
-447
-450
-454
-454
-455
-458
-460
-462
-465
-465
-469
-474
-478
-485
-491
-499
-506
-515
-522
-527
-531
-532
-531
-531
-530
-524
-517
-511
-500
-488
-473
-460
-447
-433
-422
-411
-401
-393
-385
-381
-376
-373
-371
-367
-369
-370
-371
-373
-377
-381
-382
-385
-389
-392
-397
-400
-404
-406
-409
-412
-415
-418
-419
-419
-422
-423
-425
-424
-423
-425
-423
-422
-420
-421
-421
-419
-418
-419
-419
-418
-418
-418
-419
-419
-420
-421
-420
-422
-422
-423
-423
-427
-428
-429
-431
-431
-430
-433
-435
-435
-436
-437
-439
-440
-439
-441
-441
-442
-443
-443
-443
-445
-444
-446
-444
-444
-444
-444
-446
-446
-446
-448
-450
-455
-461
-462
-462
-465
-465
-469
-465
-466
-468
-471
-476
-477
-473
-465
-459
-454
-447
-444
-438
-433
-428
-425
-422
-420
-421
-420
-422
-422
-422
-423
-425
-425
-427
-429
-428
-427
-420
-405
-404
-435
-497
-556
-590
-608
-615
-612
-604
-582
-547
-485
-411
-347
-304
-280
-274
-292
-310
-321
-328
-335
-342
-349
-356
-365
-372
-378
-385
-393
-398
-404
-411
-415
-420
-423
-429
-435
-436
-439
-442
-445
-446
-450
-452
-453
-454
-452
-457
-458
-460
-461
-463
-466
-469
-471
-473
-479
-485
-493
-503
-508
-516
-523
-528
-532
-535
-535
-533
-531
-527
-522
-511
-502
-490
-478
-464
-450
-439
-424
-412
-403
-393
-386
-379
-374
-373
-371
-371
-369
-371
-372
-373
-374
-379
-379
-387
-390
-393
-399
-401
-404
-408
-410
-412
-413
-415
-415
-417
-417
-418
-420
-419
-419
-417
-418
-417
-417
-415
-415
-414
-413
-412
-414
-415
-415
-415
-415
-414
-418
-417
-418
-420
-422
-422
-422
-425
-428
-427
-429
-430
-431
-428
-431
-435
-435
-435
-435
-436
-435
-439
-440
-439
-441
-442
-443
-441
-447
-447
-447
-447
-448
-450
-446
-447
-450
-452
-453
-454
-457
-457
-467
-468
-468
-471
-471
-473
-466
-469
-471
-473
-477
-479
-476
-468
-463
-457
-451
-442
-438
-433
-428
-425
-422
-422
-410
-420
-419
-419
-422
-423
-425
-427
-429
-430
-430
-427
-415
-406
-412
-456
-523
-570
-597
-611
-615
-611
-596
-567
-510
-425
-352
-301
-276
-268
-274
-292
-315
-331
-342
-351
-363
-371
-379
-385
-391
-396
-400
-408
-411
-416
-422
-427
-433
-437
-439
-442
-444
-449
-450
-450
-451
-452
-454
-456
-457
-459
-461
-462
-464
-463
-468
-471
-473
-479
-487
-492
-500
-509
-517
-523
-528
-533
-534
-535
-535
-531
-528
-522
-513
-503
-490
-476
-461
-449
-436
-422
-409
-396
-389
-380
-374
-368
-366
-363
-363
-363
-365
-366
-369
-373
-375
-381
-385
-389
-393
-396
-401
-403
-406
-411
-411
-414
-412
-416
-417
-417
-417
-417
-417
-412
-413
-412
-411
-410
-407
-406
-404
-406
-406
-406
-408
-407
-406
-406
-408
-408
-407
-411
-414
-414
-415
-415
-417
-419
-419
-421
-422
-425
-425
-423
-429
-430
-431
-431
-434
-437
-436
-438
-438
-438
-441
-442
-443
-444
-446
-446
-446
-447
-448
-452
-454
-456
-457
-460
-461
-462
-462
-458
-461
-463
-468
-465
-462
-457
-453
-446
-440
-435
-428
-423
-417
-417
-415
-414
-414
-414
-415
-415
-419
-417
-421
-422
-424
-423
-421
-408
-397
-406
-457
-527
-574
-599
-610
-613
-606
-592
-565
-511
-428
-355
-308
-281
-273
-284
-308
-323
-331
-338
-347
-357
-363
-369
-377
-381
-389
-396
-403
-409
-412
-417
-421
-424
-429
-431
-435
-438
-441
-443
-446
-447
-450
-454
-454
-457
-458
-460
-463
-465
-471
-473
-477
-481
-485
-491
-496
-504
-515
-519
-524
-530
-532
-534
-537
-538
-538
-534
-531
-520
-511
-497
-482
-467
-453
-438
-423
-409
-399
-392
-384
-376
-373
-369
-366
-364
-364
-366
-368
-369
-373
-377
-383
-385
-391
-395
-397
-401
-405
-411
-412
-417
-418
-422
-422
-423
-424
-425
-427
-425
-423
-422
-422
-419
-419
-421
-419
-417
-416
-415
-413
-416
-417
-417
-417
-415
-416
-415
-417
-420
-421
-422
-423
-425
-427
-428
-428
-428
-431
-433
-434
-435
-435
-435
-437
-438
-438
-439
-441
-446
-446
-444
-446
-447
-450
-450
-457
-457
-458
-458
-463
-465
-464
-462
-464
-468
-469
-473
-468
-463
-458
-450
-444
-441
-435
-431
-427
-423
-423
-422
-419
-419
-420
-419
-422
-423
-427
-430
-432
-431
-431
-425
-415
-409
-427
-484
-542
-583
-603
-609
-609
-601
-584
-549
-478
-390
-328
-292
-275
-275
-293
-316
-335
-345
-351
-361
-369
-377
-383
-388
-394
-401
-408
-414
-417
-422
-427
-433
-438
-440
-443
-446
-448
-447
-450
-452
-451
-452
-454
-458
-459
-460
-460
-464
-465
-466
-471
-474
-477
-484
-488
-496
-504
-511
-519
-527
-531
-533
-534
-533
-531
-527
-523
-515
-506
-494
-482
-469
-457
-442
-430
-419
-406
-395
-387
-382
-375
-372
-368
-366
-367
-366
-367
-371
-375
-379
-382
-385
-390
-394
-396
-404
-408
-409
-411
-417
-419
-421
-421
-422
-423
-423
-421
-420
-419
-417
-414
-415
-413
-411
-408
-408
-407
-408
-404
-404
-404
-404
-405
-406
-408
-408
-408
-409
-411
-412
-412
-413
-417
-417
-418
-421
-422
-423
-427
-428
-429
-431
-431
-432
-435
-435
-435
-436
-439
-441
-441
-441
-442
-446
-446
-446
-450
-454
-458
-458
-460
-462
-462
-463
-464
-463
-463
-468
-470
-472
-466
-460
-456
-449
-442
-439
-437
-431
-426
-422
-419
-419
-419
-417
-417
-417
-418
-422
-423
-426
-427
-425
-423
-415
-401
-404
-448
-520
-571
-599
-610
-612
-608
-598
-580
-551
-498
-430
-365
-317
-297
-301
-311
-319
-325
-330
-336
-342
-351
-357
-364
-373
-381
-386
-392
-396
-404
-409
-414
-419
-425
-430
-435
-435
-440
-443
-444
-446
-449
-450
-450
-453
-456
-457
-458
-460
-463
-465
-468
-471
-476
-485
-489
-495
-504
-513
-520
-526
-532
-535
-538
-537
-535
-533
-528
-520
-509
-497
-484
-469
-456
-444
-431
-418
-410
-400
-395
-388
-386
-383
-382
-381
-379
-381
-382
-382
-383
-387
-390
-392
-396
-399
-400
-406
-408
-411
-412
-415
-417
-419
-419
-419
-419
-420
-420
-420
-420
-421
-419
-419
-418
-415
-415
-414
-414
-414
-411
-411
-411
-411
-412
-412
-412
-412
-413
-414
-415
-416
-419
-418
-419
-419
-422
-422
-423
-425
-422
-427
-429
-431
-432
-433
-435
-435
-437
-438
-439
-440
-442
-443
-443
-444
-444
-448
-450
-453
-454
-456
-457
-460
-460
-459
-459
-458
-464
-468
-470
-465
-459
-453
-439
-444
-438
-431
-425
-420
-417
-414
-414
-414
-412
-412
-415
-417
-419
-422
-423
-424
-426
-425
-419
-404
-400
-427
-492
-551
-585
-602
-608
-604
-594
-569
-532
-469
-397
-341
-304
-285
-288
-308
-325
-334
-339
-346
-351
-358
-366
-373
-380
-385
-392
-396
-402
-409
-414
-417
-422
-427
-431
-433
-438
-442
-442
-445
-446
-449
-450
-452
-454
-455
-458
-458
-461
-459
-466
-468
-471
-476
-482
-488
-493
-504
-511
-517
-523
-527
-528
-528
-531
-529
-527
-522
-514
-507
-493
-482
-469
-455
-442
-431
-420
-405
-401
-392
-386
-381
-377
-376
-370
-373
-374
-377
-379
-380
-384
-387
-389
-393
-396
-399
-404
-409
-411
-414
-414
-415
-419
-422
-424
-427
-425
-427
-427
-424
-424
-423
-423
-422
-419
-420
-419
-417
-415
-415
-416
-416
-415
-417
-418
-417
-418
-417
-420
-420
-419
-423
-425
-424
-427
-427
-429
-431
-433
-434
-436
-438
-438
-438
-442
-443
-445
-444
-446
-447
-447
-447
-447
-447
-449
-450
-454
-458
-460
-458
-458
-461
-462
-461
-461
-460
-463
-466
-472
-469
-463
-457
-450
-446
-438
-433
-428
-422
-419
-415
-415
-414
-415
-415
-417
-419
-422
-423
-424
-425
-427
-428
-428
-423
-415
-416
-440
-496
-554
-588
-604
-610
-609
-598
-573
-527
-457
-381
-325
-291
-277
-279
-300
-323
-344
-354
-361
-366
-371
-379
-385
-392
-396
-403
-409
-412
-415
-418
-427
-430
-434
-438
-442
-443
-442
-446
-448
-449
-450
-452
-455
-455
-457
-460
-464
-465
-466
-466
-469
-473
-474
-481
-487
-493
-500
-508
-514
-516
-526
-530
-531
-531
-531
-528
-522
-519
-512
-504
-492
-481
-466
-450
-437
-425
-411
-401
-391
-383
-374
-371
-366
-365
-362
-363
-365
-365
-368
-371
-374
-379
-384
-388
-392
-396
-401
-404
-408
-411
-412
-415
-415
-417
-415
-415
-415
-414
-417
-415
-415
-414
-414
-412
-414
-413
-412
-411
-409
-406
-405
-404
-406
-407
-409
-411
-411
-411
-412
-415
-416
-418
-419
-422
-423
-425
-427
-431
-431
-433
-435
-435
-437
-438
-438
-440
-441
-443
-443
-446
-447
-446
-446
-446
-450
-455
-460
-458
-461
-461
-462
-462
-461
-461
-463
-467
-471
-471
-465
-459
-454
-450
-442
-435
-431
-425
-423
-419
-417
-417
-417
-417
-418
-419
-419
-422
-425
-428
-431
-431
-430
-428
-419
-419
-438
-490
-548
-585
-603
-610
-609
-600
-581
-544
-473
-390
-328
-293
-278
-279
-293
-314
-338
-352
-361
-368
-375
-382
-388
-393
-400
-406
-410
-411
-415
-420
-424
-428
-431
-437
-440
-442
-445
-447
-450
-450
-451
-455
-458
-458
-459
-461
-464
-465
-468
-472
-475
-476
-479
-483
-489
-494
-501
-509
-516
-522
-526
-529
-531
-531
-529
-524
-523
-517
-509
-500
-488
-473
-459
-446
-431
-419
-406
-393
-385
-376
-368
-363
-361
-361
-361
-361
-365
-368
-369
-373
-377
-383
-387
-392
-396
-401
-407
-409
-412
-415
-417
-418
-421
-422
-422
-422
-422
-423
-422
-419
-419
-415
-415
-414
-412
-411
-412
-411
-411
-411
-409
-409
-408
-408
-409
-409
-411
-412
-415
-415
-419
-419
-422
-422
-424
-425
-428
-431
-433
-433
-435
-437
-438
-438
-439
-441
-442
-444
-446
-447
-452
-456
-458
-458
-460
-465
-463
-464
-461
-460
-463
-467
-471
-469
-462
-457
-452
-444
-439
-435
-430
-422
-419
-415
-398
-412
-412
-412
-414
-415
-419
-419
-423
-423
-425
-425
-424
-418
-404
-400
-427
-491
-549
-584
-603
-609
-608
-598
-579
-546
-488
-419
-358
-317
-293
-292
-309
-328
-340
-347
-354
-358
-365
-369
-377
-382
-390
-395
-400
-406
-413
-417
-420
-424
-431
-433
-435
-438
-440
-442
-444
-447
-447
-451
-453
-455
-458
-460
-460
-461
-465
-468
-469
-473
-478
-482
-488
-495
-504
-511
-519
-523
-527
-531
-531
-531
-531
-527
-522
-514
-505
-495
-483
-469
-457
-444
-431
-420
-407
-398
-389
-381
-375
-373
-370
-369
-368
-369
-370
-373
-376
-377
-381
-381
-387
-392
-396
-400
-403
-408
-411
-414
-418
-420
-424
-425
-426
-425
-427
-427
-427
-427
-427
-425
-423
-422
-421
-421
-419
-419
-415
-417
-413
-412
-415
-414
-415
-414
-414
-415
-415
-417
-418
-418
-419
-420
-423
-422
-426
-428
-429
-431
-434
-435
-436
-438
-439
-439
-442
-442
-444
-445
-447
-450
-457
-457
-459
-460
-462
-462
-461
-460
-462
-466
-469
-468
-462
-454
-447
-443
-438
-434
-427
-422
-417
-415
-412
-411
-414
-414
-414
-416
-419
-420
-423
-426
-429
-430
-428
-423
-409
-405
-424
-485
-549
-587
-608
-615
-614
-606
-588
-555
-503
-431
-367
-320
-295
-292
-311
-328
-339
-346
-354
-356
-365
-371
-377
-384
-390
-395
-402
-405
-409
-415
-420
-424
-428
-431
-436
-438
-439
-442
-446
-449
-450
-452
-454
-455
-458
-458
-460
-460
-464
-465
-468
-472
-474
-479
-485
-492
-499
-504
-515
-520
-525
-528
-531
-531
-531
-529
-524
-519
-512
-501
-490
-479
-466
-454
-439
-428
-416
-404
-396
-388
-382
-377
-374
-372
-371
-371
-371
-373
-374
-377
-380
-381
-386
-389
-393
-396
-400
-404
-405
-408
-412
-414
-415
-417
-419
-421
-423
-420
-423
-422
-421
-422
-419
-419
-418
-417
-417
-396
-412
-412
-412
-411
-411
-411
-411
-411
-411
-411
-411
-414
-415
-415
-417
-418
-420
-420
-423
-425
-427
-428
-430
-431
-431
-434
-435
-437
-438
-439
-439
-440
-444
-446
-452
-455
-454
-455
-455
-459
-458
-456
-456
-460
-465
-466
-463
-457
-452
-446
-438
-434
-427
-423
-419
-415
-414
-413
-413
-411
-415
-415
-418
-419
-423
-425
-425
-430
-429
-428
-419
-411
-421
-458
-523
-571
-599
-612
-612
-608
-589
-561
-509
-428
-361
-312
-287
-275
-290
-315
-337
-351
-358
-367
-373
-379
-384
-388
-394
-400
-405
-411
-415
-419
-424
-429
-433
-436
-440
-442
-448
-450
-450
-453
-456
-457
-458
-459
-460
-462
-463
-465
-466
-468
-471
-476
-481
-484
-490
-496
-504
-510
-519
-527
-532
-536
-538
-537
-536
-532
-527
-519
-511
-500
-488
-474
-460
-444
-431
-418
-404
-394
-385
-377
-373
-368
-365
-361
-363
-365
-369
-371
-372
-374
-380
-381
-387
-393
-396
-400
-404
-409
-411
-415
-417
-420
-420
-422
-423
-423
-423
-423
-424
-423
-423
-422
-419
-419
-418
-415
-414
-414
-414
-411
-413
-414
-414
-412
-412
-415
-415
-415
-413
-417
-420
-419
-421
-420
-423
-423
-427
-428
-432
-434
-435
-436
-439
-441
-440
-441
-442
-442
-442
-443
-448
-452
-456
-457
-457
-459
-458
-460
-458
-456
-458
-463
-466
-465
-465
-457
-454
-448
-441
-433
-430
-423
-419
-415
-413
-415
-414
-414
-415
-416
-419
-419
-421
-423
-427
-427
-426
-427
-417
-412
-423
-466
-529
-572
-598
-611
-614
-605
-588
-557
-496
-416
-345
-300
-279
-275
-288
-308
-333
-349
-358
-365
-373
-380
-382
-390
-394
-401
-405
-409
-414
-415
-423
-426
-431
-435
-437
-439
-441
-444
-446
-447
-447
-451
-454
-454
-456
-458
-460
-461
-465
-467
-469
-473
-476
-481
-490
-494
-501
-511
-516
-522
-527
-531
-532
-531
-530
-526
-520
-514
-506
-496
-484
-473
-460
-443
-431
-417
-405
-395
-385
-379
-373
-369
-364
-364
-362
-363
-367
-369
-373
-376
-381
-385
-390
-395
-400
-401
-409
-411
-415
-420
-422
-423
-424
-427
-428
-425
-425
-426
-424
-423
-422
-422
-419
-417
-416
-415
-414
-414
-412
-411
-411
-411
-410
-410
-409
-410
-411
-411
-414
-415
-417
-418
-419
-420
-421
-423
-423
-428
-429
-431
-435
-435
-438
-439
-441
-442
-442
-444
-445
-447
-450
-452
-457
-460
-461
-461
-463
-465
-463
-460
-461
-463
-467
-471
-469
-465
-460
-454
-447
-442
-437
-431
-425
-420
-419
-419
-417
-417
-417
-419
-419
-422
-424
-427
-429
-431
-431
-428
-422
-409
-405
-427
-487
-548
-587
-606
-612
-611
-604
-585
-551
-493
-421
-357
-312
-288
-287
-307
-324
-336
-343
-350
-355
-361
-368
-374
-381
-388
-395
-399
-406
-411
-415
-420
-425
-430
-434
-436
-439
-441
-444
-446
-449
-449
-450
-452
-455
-460
-460
-461
-463
-465
-465
-468
-473
-477
-481
-486
-493
-496
-507
-515
-522
-528
-533
-533
-534
-533
-532
-528
-521
-514
-505
-492
-479
-466
-454
-440
-427
-417
-406
-396
-387
-381
-376
-373
-369
-368
-369
-370
-371
-373
-376
-379
-381
-383
-384
-392
-395
-399
-403
-405
-409
-411
-414
-415
-418
-420
-421
-422
-422
-421
-422
-422
-422
-421
-421
-419
-420
-419
-417
-417
-416
-415
-414
-412
-413
-411
-411
-412
-411
-412
-412
-414
-416
-415
-417
-418
-419
-421
-422
-423
-427
-428
-429
-430
-431
-435
-435
-436
-438
-439
-440
-441
-442
-443
-444
-449
-455
-456
-456
-456
-458
-459
-457
-455
-457
-460
-465
-468
-461
-456
-450
-443
-437
-431
-427
-422
-417
-414
-412
-412
-412
-411
-414
-415
-415
-419
-416
-423
-425
-427
-427
-425
-415
-403
-407
-442
-508
-562
-593
-609
-612
-609
-598
-574
-535
-473
-406
-350
-311
-290
-290
-312
-332
-341
-348
-354
-360
-365
-371
-379
-385
-390
-396
-402
-407
-414
-417
-422
-425
-430
-435
-438
-442
-443
-446
-446
-447
-450
-450
-454
-455
-456
-457
-458
-461
-465
-466
-468
-471
-475
-478
-482
-488
-496
-504
-509
-515
-522
-527
-528
-531
-531
-531
-528
-523
-519
-508
-500
-488
-476
-462
-450
-436
-424
-412
-401
-390
-381
-377
-374
-370
-369
-370
-371
-371
-373
-376
-381
-381
-385
-391
-395
-396
-399
-401
-404
-406
-407
-411
-414
-415
-415
-418
-419
-420
-419
-420
-420
-419
-420
-418
-417
-417
-415
-415
-413
-412
-411
-411
-411
-412
-411
-412
-414
-412
-412
-411
-415
-417
-418
-420
-421
-423
-424
-425
-425
-428
-431
-433
-435
-435
-437
-436
-438
-439
-439
-440
-442
-444
-446
-445
-444
-447
-450
-454
-455
-458
-460
-461
-459
-458
-458
-461
-465
-468
-465
-461
-455
-448
-442
-438
-431
-425
-420
-417
-414
-413
-414
-414
-412
-411
-412
-415
-417
-420
-420
-423
-424
-425
-424
-418
-411
-419
-461
-523
-569
-595
-606
-608
-603
-587
-558
-501
-420
-350
-304
-282
-273
-285
-308
-330
-347
-357
-363
-370
-377
-384
-388
-393
-400
-404
-408
-412
-416
-423
-425
-430
-433
-435
-436
-439
-443
-444
-447
-446
-450
-451
-453
-454
-457
-460
-461
-463
-466
-469
-472
-473
-477
-483
-488
-497
-503
-511
-517
-520
-523
-527
-527
-526
-527
-523
-519
-511
-501
-488
-475
-461
-447
-434
-421
-409
-396
-387
-381
-373
-366
-361
-361
-359
-358
-361
-365
-367
-371
-376
-382
-384
-390
-393
-398
-402
-406
-410
-411
-415
-417
-419
-420
-421
-419
-418
-420
-420
-419
-418
-417
-418
-414
-414
-412
-411
-411
-411
-411
-409
-403
-411
-411
-411
-404
-412
-409
-414
-415
-417
-417
-419
-422
-419
-423
-424
-427
-429
-427
-431
-430
-435
-437
-438
-439
-442
-442
-442
-444
-445
-446
-447
-447
-452
-455
-458
-457
-459
-462
-463
-463
-461
-461
-465
-466
-470
-469
-462
-457
-453
-447
-439
-435
-432
-426
-421
-417
-418
-417
-415
-415
-416
-419
-420
-422
-425
-427
-428
-428
-427
-418
-405
-405
-437
-501
-558
-589
-605
-608
-604
-590
-568
-524
-452
-381
-324
-294
-281
-288
-311
-331
-342
-350
-357
-363
-370
-376
-381
-387
-393
-398
-404
-410
-416
-419
-423
-428
-431
-435
-437
-440
-442
-444
-446
-447
-451
-452
-453
-456
-457
-460
-462
-465
-469
-471
-473
-476
-482
-487
-493
-500
-509
-515
-521
-526
-531
-533
-535
-533
-532
-527
-520
-512
-503
-492
-478
-465
-453
-439
-427
-415
-404
-396
-387
-379
-373
-368
-366
-363
-361
-365
-367
-369
-370
-377
-381
-384
-388
-392
-396
-399
-404
-407
-411
-414
-416
-419
-420
-421
-421
-423
-423
-422
-422
-423
-420
-418
-418
-417
-415
-412
-411
-411
-409
-411
-409
-409
-409
-411
-408
-408
-412
-411
-411
-413
-415
-417
-417
-419
-419
-422
-423
-425
-427
-427
-428
-430
-433
-433
-435
-436
-435
-439
-440
-441
-441
-442
-444
-444
-452
-454
-454
-455
-457
-459
-455
-456
-457
-462
-465
-466
-463
-455
-452
-446
-439
-435
-428
-423
-415
-414
-414
-412
-414
-414
-415
-415
-419
-422
-423
-422
-425
-425
-425
-420
-409
-401
-414
-465
-530
-576
-598
-606
-605
-599
-582
-552
-501
-427
-365
-317
-290
-285
-303
-325
-336
-344
-350
-357
-362
-370
-378
-383
-388
-395
-400
-405
-411
-417
-422
-427
-431
-435
-438
-441
-443
-446
-447
-450
-452
-452
-457
-458
-460
-462
-464
-466
-467
-469
-473
-476
-481
-485
-490
-496
-504
-510
-519
-523
-531
-534
-536
-536
-536
-535
-529
-523
-515
-506
-495
-482
-469
-455
-442
-431
-420
-407
-399
-392
-386
-381
-377
-374
-375
-376
-377
-376
-381
-382
-385
-389
-392
-396
-399
-403
-408
-411
-415
-419
-422
-422
-423
-424
-425
-425
-425
-427
-425
-425
-423
-423
-422
-420
-420
-418
-417
-417
-415
-414
-413
-414
-412
-414
-411
-415
-411
-417
-417
-419
-421
-419
-423
-422
-423
-427
-429
-428
-428
-430
-431
-434
-435
-436
-438
-439
-441
-442
-444
-446
-446
-447
-448
-450
-450
-452
-454
-458
-461
-461
-461
-463
-465
-465
-462
-462
-465
-468
-473
-471
-465
-460
-452
-447
-442
-438
-434
-428
-422
-415
-417
-417
-419
-417
-418
-419
-420
-422
-423
-427
-428
-427
-427
-427
-417
-407
-415
-460
-524
-571
-596
-610
-615
-609
-591
-561
-508
-429
-361
-312
-287
-279
-292
-315
-333
-342
-345
-354
-362
-370
-376
-381
-386
-393
-397
-403
-410
-415
-422
-424
-429
-434
-435
-439
-442
-444
-447
-447
-450
-452
-454
-456
-458
-460
-463
-462
-465
-468
-469
-469
-476
-481
-487
-494
-502
-510
-517
-522
-527
-531
-533
-532
-532
-530
-526
-519
-509
-496
-485
-471
-457
-444
-430
-417
-405
-395
-387
-381
-376
-373
-369
-368
-367
-368
-369
-371
-373
-377
-381
-384
-386
-392
-396
-400
-404
-406
-411
-414
-414
-415
-418
-420
-419
-419
-422
-421
-421
-419
-419
-418
-415
-414
-414
-414
-414
-411
-412
-412
-412
-411
-412
-414
-415
-417
-415
-417
-419
-419
-419
-420
-423
-423
-424
-427
-428
-429
-431
-431
-434
-436
-439
-442
-445
-445
-446
-446
-447
-447
-447
-446
-446
-448
-450
-452
-456
-458
-457
-458
-460
-465
-463
-461
-462
-465
-468
-473
-472
-461
-460
-453
-447
-442
-435
-431
-424
-421
-418
-419
-417
-418
-417
-419
-419
-422
-423
-425
-427
-430
-428
-430
-423
-415
-419
-444
-502
-558
-591
-608
-615
-612
-602
-580
-536
-461
-381
-318
-284
-269
-273
-288
-312
-335
-349
-358
-364
-371
-377
-384
-388
-393
-400
-405
-410
-415
-420
-425
-428
-432
-436
-440
-441
-442
-446
-449
-450
-452
-454
-454
-457
-458
-460
-465
-465
-465
-466
-469
-473
-475
-479
-485
-492
-500
-506
-514
-519
-523
-527
-528
-529
-529
-524
-522
-516
-508
-496
-485
-472
-458
-444
-429
-416
-403
-392
-382
-373
-368
-361
-360
-360
-360
-361
-363
-364
-368
-369
-373
-379
-377
-389
-393
-397
-403
-406
-411
-413
-415
-418
-418
-420
-422
-423
-422
-422
-420
-419
-415
-412
-411
-411
-408
-407
-406
-403
-403
-403
-403
-404
-404
-403
-403
-406
-406
-408
-411
-412
-414
-415
-417
-419
-421
-423
-423
-427
-428
-432
-431
-434
-435
-435
-437
-438
-439
-440
-439
-442
-444
-446
-449
-453
-458
-456
-458
-458
-460
-458
-455
-456
-458
-463
-466
-463
-458
-447
-442
-436
-433
-428
-426
-419
-415
-411
-411
-411
-411
-415
-415
-416
-415
-418
-422
-421
-423
-424
-423
-412
-404
-415
-461
-530
-574
-600
-612
-615
-611
-592
-563
-510
-431
-358
-309
-285
-274
-291
-315
-331
-341
-349
-357
-361
-367
-372
-377
-385
-390
-399
-400
-408
-412
-418
-423
-425
-432
-432
-437
-440
-443
-448
-449
-453
-450
-455
-455
-458
-460
-462
-465
-463
-471
-473
-476
-479
-482
-485
-488
-498
-504
-511
-519
-526
-533
-538
-540
-539
-539
-536
-531
-527
-520
-511
-498
-484
-469
-458
-444
-430
-418
-406
-395
-385
-377
-373
-370
-369
-369
-369
-369
-369
-371
-373
-377
-381
-386
-392
-395
-398
-403
-408
-411
-413
-415
-418
-419
-421
-423
-423
-423
-423
-423
-423
-422
-423
-420
-421
-419
-419
-419
-418
-417
-417
-415
-415
-412
-414
-412
-411
-413
-415
-414
-415
-417
-419
-422
-423
-423
-425
-428
-429
-433
-435
-436
-438
-439
-439
-440
-439
-440
-444
-450
-454
-454
-457
-458
-458
-461
-463
-462
-461
-460
-463
-465
-466
-461
-458
-450
-441
-437
-435
-428
-422
-419
-418
-415
-415
-415
-417
-419
-419
-422
-423
-427
-428
-428
-427
-427
-415
-404
-415
-466
-533
-576
-604
-617
-619
-612
-599
-569
-520
-447
-377
-323
-292
-279
-286
-308
-326
-336
-344
-350
-357
-365
-369
-376
-383
-390
-395
-400
-404
-411
-415
-421
-423
-425
-429
-434
-438
-442
-444
-444
-447
-447
-450
-451
-450
-454
-456
-458
-460
-461
-465
-466
-471
-474
-483
-488
-493
-501
-509
-517
-522
-526
-530
-529
-530
-528
-524
-519
-515
-506
-495
-485
-473
-458
-443
-428
-415
-403
-393
-386
-379
-371
-369
-368
-365
-363
-362
-365
-368
-372
-373
-378
-383
-388
-393
-399
-401
-403
-408
-412
-415
-417
-417
-419
-421
-422
-419
-417
-419
-419
-419
-418
-416
-414
-412
-411
-411
-411
-408
-408
-408
-408
-407
-403
-405
-409
-409
-411
-411
-411
-411
-412
-414
-415
-419
-421
-423
-425
-425
-425
-431
-431
-433
-434
-433
-438
-437
-438
-442
-442
-446
-450
-454
-453
-455
-458
-461
-458
-456
-454
-458
-460
-468
-466
-461
-455
-450
-447
-442
-437
-430
-424
-419
-415
-415
-412
-415
-417
-415
-417
-418
-422
-425
-428
-431
-430
-428
-422
-408
-404
-438
-500
-558
-593
-610
-618
-615
-608
-588
-554
-497
-427
-368
-319
-295
-295
-311
-323
-329
-333
-339
-347
-355
-363
-369
-377
-382
-387
-395
-400
-405
-411
-413
-421
-424
-428
-434
-435
-436
-441
-444
-446
-447
-446
-450
-454
-457
-457
-458
-461
-462
-465
-469
-473
-477
-485
-493
-501
-509
-515
-521
-528
-531
-534
-536
-536
-535
-530
-524
-519
-509
-496
-482
-469
-457
-442
-430
-419
-408
-396
-388
-384
-379
-377
-374
-375
-377
-377
-378
-380
-385
-387
-390
-393
-398
-401
-406
-409
-411
-412
-415
-419
-421
-422
-422
-424
-425
-425
-425
-423
-422
-422
-422
-420
-419
-419
-417
-415
-416
-414
-412
-413
-412
-414
-412
-411
-414
-414
-415
-414
-416
-418
-419
-419
-422
-423
-426
-425
-427
-430
-431
-431
-433
-433
-434
-435
-437
-438
-438
-439
-442
-448
-450
-450
-452
-455
-457
-455
-452
-453
-455
-459
-462
-463
-457
-452
-447
-440
-436
-431
-425
-419
-415
-413
-411
-411
-412
-411
-414
-417
-419
-420
-423
-424
-423
-423
-423
-414
-404
-411
-455
-522
-569
-595
-607
-611
-605
-592
-560
-511
-439
-376
-327
-297
-288
-303
-322
-333
-341
-348
-354
-360
-366
-374
-380
-385
-392
-396
-402
-406
-414
-418
-423
-427
-431
-428
-434
-438
-442
-444
-446
-447
-449
-449
-454
-455
-457
-459
-462
-463
-465
-469
-473
-477
-482
-490
-497
-501
-513
-519
-526
-530
-532
-533
-531
-531
-530
-525
-519
-509
-496
-479
-470
-455
-442
-428
-417
-404
-392
-388
-380
-376
-374
-371
-370
-368
-372
-374
-378
-380
-384
-388
-392
-395
-398
-403
-407
-411
-412
-415
-420
-423
-423
-425
-426
-428
-429
-428
-429
-430
-428
-427
-427
-426
-426
-423
-423
-423
-421
-420
-418
-418
-419
-419
-418
-420
-419
-421
-422
-422
-422
-423
-426
-426
-427
-427
-431
-431
-431
-434
-431
-435
-434
-436
-437
-436
-439
-442
-447
-450
-450
-452
-453
-455
-455
-452
-452
-456
-461
-465
-464
-455
-448
-443
-438
-431
-427
-423
-415
-411
-411
-411
-409
-409
-411
-411
-414
-416
-419
-422
-424
-427
-427
-425
-419
-412
-419
-458
-519
-568
-596
-607
-612
-606
-590
-558
-503
-427
-362
-317
-292
-284
-296
-321
-342
-351
-359
-366
-373
-377
-385
-390
-395
-399
-403
-409
-415
-418
-422
-427
-431
-431
-436
-439
-443
-444
-446
-447
-449
-452
-454
-454
-458
-458
-461
-462
-465
-466
-467
-469
-473
-480
-485
-491
-498
-507
-513
-520
-527
-530
-532
-534
-533
-531
-530
-524
-516
-507
-495
-484
-469
-456
-444
-431
-417
-406
-394
-385
-379
-371
-368
-364
-364
-365
-365
-367
-369
-372
-375
-379
-384
-386
-392
-395
-396
-400
-404
-408
-410
-411
-415
-415
-415
-415
-417
-415
-416
-414
-413
-414
-411
-414
-413
-412
-411
-411
-411
-411
-411
-411
-412
-414
-415
-412
-413
-415
-416
-417
-419
-420
-420
-422
-422
-424
-424
-425
-426
-428
-431
-432
-434
-435
-436
-441
-444
-446
-447
-450
-452
-453
-454
-452
-454
-459
-465
-468
-462
-457
-451
-444
-438
-431
-427
-422
-415
-415
-414
-414
-415
-415
-415
-417
-419
-422
-425
-430
-431
-434
-434
-433
-427
-421
-429
-465
-524
-573
-602
-615
-620
-617
-603
-574
-518
-435
-361
-310
-285
-277
-285
-309
-338
-358
-367
-376
-384
-389
-396
-401
-406
-409
-414
-419
-423
-427
-431
-435
-438
-442
-446
-447
-450
-453
-454
-453
-455
-457
-458
-459
-461
-462
-462
-462
-465
-468
-471
-473
-476
-481
-488
-493
-498
-507
-516
-522
-527
-532
-535
-538
-538
-536
-533
-528
-519
-511
-498
-485
-473
-457
-444
-430
-418
-404
-392
-381
-375
-369
-363
-360
-360
-361
-361
-366
-371
-376
-381
-387
-390
-394
-400
-404
-406
-411
-414
-417
-420
-422
-422
-425
-425
-427
-426
-427
-427
-425
-425
-423
-419
-419
-417
-415
-415
-415
-415
-417
-419
-418
-418
-418
-419
-419
-421
-423
-424
-423
-423
-422
-421
-425
-427
-428
-431
-431
-428
-429
-431
-430
-431
-434
-436
-439
-444
-446
-446
-447
-450
-452
-452
-452
-453
-456
-462
-465
-462
-455
-449
-446
-440
-434
-430
-425
-421
-417
-415
-413
-412
-412
-414
-414
-417
-419
-417
-422
-425
-428
-427
-430
-424
-415
-415
-440
-501
-557
-592
-609
-616
-615
-604
-581
-538
-463
-381
-320
-285
-269
-269
-286
-313
-338
-350
-358
-364
-373
-381
-386
-392
-399
-404
-410
-415
-419
-423
-427
-431
-435
-437
-440
-441
-445
-446
-447
-448
-450
-454
-453
-455
-458
-460
-461
-463
-465
-469
-471
-475
-479
-485
-490
-497
-506
-514
-522
-528
-532
-535
-539
-539
-538
-535
-531
-524
-514
-505
-491
-477
-461
-445
-432
-419
-406
-393
-384
-376
-368
-361
-358
-357
-357
-357
-357
-360
-365
-369
-373
-378
-384
-388
-392
-399
-400
-406
-411
-414
-417
-419
-420
-422
-425
-424
-423
-423
-419
-420
-415
-419
-417
-415
-415
-412
-411
-409
-411
-410
-411
-411
-411
-411
-409
-412
-415
-416
-417
-419
-419
-417
-422
-422
-423
-423
-424
-427
-427
-429
-430
-431
-433
-437
-438
-444
-450
-450
-452
-455
-458
-458
-455
-456
-458
-460
-466
-469
-464
-457
-450
-444
-439
-434
-430
-425
-422
-419
-415
-417
-418
-418
-419
-419
-422
-424
-427
-429
-431
-431
-430
-427
-418
-409
-419
-471
-537
-583
-608
-619
-622
-616
-601
-572
-524
-450
-381
-328
-295
-285
-298
-320
-334
-342
-347
-354
-359
-366
-375
-381
-385
-393
-400
-404
-409
-414
-420
-423
-427
-429
-435
-438
-439
-441
-442
-444
-447
-447
-452
-453
-454
-455
-457
-450
-461
-465
-468
-469
-473
-479
-485
-495
-503
-511
-519
-527
-535
-538
-541
-543
-543
-541
-536
-531
-522
-509
-495
-482
-467
-452
-435
-424
-403
-400
-392
-384
-380
-373
-373
-371
-370
-370
-373
-375
-376
-379
-381
-384
-388
-392
-396
-401
-404
-409
-411
-414
-417
-417
-422
-423
-425
-427
-428
-427
-427
-427
-427
-423
-425
-424
-423
-422
-420
-420
-420
-419
-419
-419
-417
-417
-418
-419
-419
-420
-421
-421
-423
-421
-423
-421
-422
-423
-425
-425
-425
-427
-427
-427
-428
-431
-431
-436
-442
-446
-447
-449
-450
-454
-454
-452
-450
-455
-458
-463
-461
-456
-449
-443
-435
-431
-427
-422
-416
-411
-410
-408
-406
-407
-409
-411
-415
-417
-420
-423
-423
-425
-427
-427
-420
-410
-414
-454
-516
-568
-596
-610
-614
-612
-600
-573
-524
-453
-381
-328
-295
-285
-297
-322
-338
-346
-352
-360
-364
-371
-377
-384
-388
-393
-400
-406
-411
-415
-420
-425
-430
-431
-435
-438
-439
-442
-443
-446
-447
-450
-452
-454
-457
-458
-460
-463
-466
-468
-471
-472
-475
-481
-485
-492
-501
-509
-516
-524
-531
-539
-542
-544
-544
-544
-539
-533
-526
-515
-501
-488
-475
-460
-446
-432
-419
-409
-398
-392
-385
-381
-377
-374
-373
-374
-374
-377
-379
-381
-384
-386
-390
-395
-399
-401
-404
-409
-414
-416
-419
-423
-425
-427
-427
-429
-430
-431
-431
-431
-431
-430
-427
-427
-425
-424
-423
-423
-422
-421
-419
-419
-418
-419
-419
-419
-420
-418
-419
-419
-422
-422
-421
-422
-422
-423
-422
-423
-424
-426
-427
-427
-428
-431
-435
-438
-443
-446
-446
-448
-449
-452
-450
-450
-453
-458
-461
-461
-457
-450
-443
-437
-431
-427
-424
-419
-414
-411
-411
-409
-408
-411
-413
-411
-415
-419
-419
-423
-425
-427
-427
-422
-411
-409
-433
-493
-550
-587
-605
-614
-613
-604
-580
-541
-473
-398
-338
-299
-281
-282
-304
-327
-338
-346
-355
-362
-367
-373
-381
-388
-392
-396
-400
-408
-411
-415
-420
-423
-428
-434
-436
-439
-441
-443
-446
-448
-449
-452
-454
-454
-456
-458
-458
-460
-462
-465
-466
-472
-477
-481
-487
-495
-503
-511
-517
-524
-530
-533
-535
-536
-535
-531
-524
-519
-508
-497
-484
-469
-456
-441
-427
-414
-404
-393
-384
-376
-370
-366
-365
-365
-365
-366
-368
-371
-373
-377
-381
-385
-388
-395
-397
-400
-404
-408
-411
-412
-415
-419
-418
-419
-422
-421
-422
-422
-420
-411
-420
-419
-418
-419
-417
-415
-414
-414
-415
-413
-414
-415
-415
-415
-414
-415
-417
-417
-418
-418
-420
-420
-420
-422
-423
-423
-425
-427
-427
-428
-428
-431
-433
-438
-443
-444
-447
-450
-452
-453
-452
-452
-452
-458
-463
-467
-461
-454
-449
-441
-436
-431
-427
-424
-418
-415
-412
-413
-412
-414
-414
-417
-419
-420
-424
-428
-430
-431
-431
-431
-421
-414
-428
-482
-544
-585
-608
-618
-618
-608
-589
-550
-485
-405
-343
-303
-282
-279
-300
-327
-342
-349
-357
-364
-370
-377
-384
-389
-386
-402
-407
-411
-415
-420
-424
-429
-433
-437
-439
-442
-444
-446
-447
-449
-452
-454
-453
-455
-457
-459
-459
-460
-465
-465
-468
-471
-477
-484
-490
-498
-509
-515
-523
-527
-532
-537
-538
-537
-535
-530
-523
-515
-504
-492
-477
-463
-447
-435
-422
-407
-396
-388
-380
-373
-368
-364
-365
-366
-367
-368
-371
-373
-377
-381
-384
-391
-393
-399
-403
-404
-409
-412
-414
-416
-419
-421
-423
-423
-423
-423
-423
-423
-423
-423
-423
-421
-418
-419
-417
-415
-414
-415
-412
-414
-414
-414
-412
-413
-415
-415
-418
-419
-419
-420
-422
-422
-423
-424
-427
-427
-425
-427
-430
-427
-431
-431
-434
-436
-436
-441
-446
-447
-449
-452
-454
-454
-452
-452
-458
-463
-469
-465
-459
-452
-444
-437
-430
-428
-424
-418
-414
-412
-411
-406
-408
-409
-412
-415
-418
-423
-422
-426
-430
-430
-431
-420
-415
-423
-469
-531
-577
-602
-614
-615
-604
-587
-548
-477
-391
-327
-290
-272
-276
-296
-323
-344
-355
-364
-368
-376
-381
-388
-395
-399
-403
-407
-414
-419
-424
-427
-431
-434
-438
-440
-441
-443
-444
-447
-450
-454
-454
-455
-457
-460
-461
-463
-468
-471
-472
-475
-479
-484
-489
-496
-505
-512
-520
-527
-533
-537
-538
-538
-537
-533
-527
-521
-513
-503
-488
-473
-458
-441
-425
-412
-401
-392
-382
-374
-367
-363
-361
-359
-361
-364
-366
-371
-373
-377
-383
-388
-395
-399
-405
-409
-413
-417
-420
-419
-424
-425
-425
-423
-425
-427
-427
-427
-423
-423
-423
-422
-419
-419
-420
-419
-417
-417
-417
-415
-414
-415
-415
-416
-415
-415
-417
-418
-419
-420
-422
-423
-424
-425
-427
-428
-427
-429
-431
-435
-434
-435
-439
-439
-439
-441
-442
-446
-450
-454
-454
-458
-460
-461
-460
-458
-460
-462
-466
-468
-462
-457
-453
-447
-441
-434
-431
-423
-418
-415
-414
-412
-414
-413
-414
-415
-417
-420
-422
-423
-425
-425
-423
-419
-411
-415
-450
-517
-571
-599
-614
-619
-614
-601
-569
-511
-423
-351
-300
-277
-269
-279
-301
-326
-342
-351
-361
-369
-377
-385
-390
-396
-402
-408
-411
-419
-422
-427
-429
-435
-439
-442
-446
-447
-449
-453
-450
-454
-455
-458
-458
-460
-461
-464
-466
-467
-469
-472
-474
-478
-482
-488
-493
-503
-511
-519
-524
-531
-535
-538
-541
-541
-541
-538
-532
-523
-513
-501
-488
-470
-457
-443
-431
-415
-403
-395
-385
-377
-372
-368
-365
-363
-361
-363
-365
-368
-371
-377
-381
-387
-390
-395
-398
-404
-408
-411
-415
-419
-422
-421
-423
-423
-423
-422
-423
-423
-420
-419
-417
-417
-415
-412
-411
-409
-408
-406
-405
-407
-404
-404
-404
-406
-405
-405
-406
-407
-408
-408
-409
-411
-414
-414
-416
-419
-420
-421
-423
-425
-427
-428
-431
-433
-435
-438
-438
-437
-442
-444
-447
-454
-454
-456
-458
-461
-461
-459
-457
-459
-461
-468
-468
-462
-457
-450
-443
-438
-433
-429
-422
-416
-415
-412
-412
-411
-412
-412
-415
-418
-419
-419
-423
-427
-427
-425
-421
-408
-401
-420
-479
-543
-583
-606
-613
-612
-604
-589
-558
-505
-428
-361
-314
-285
-281
-298
-318
-332
-338
-347
-354
-361
-367
-373
-379
-387
-396
-400
-406
-412
-416
-422
-427
-429
-431
-437
-439
-442
-444
-446
-449
-450
-454
-455
-458
-460
-462
-464
-465
-468
-465
-472
-473
-477
-482
-486
-492
-502
-509
-515
-521
-528
-533
-535
-537
-538
-538
-536
-531
-523
-506
-504
-492
-478
-464
-447
-436
-424
-414
-404
-395
-388
-385
-380
-377
-376
-376
-374
-376
-378
-381
-385
-388
-390
-393
-397
-400
-404
-409
-411
-414
-415
-418
-421
-419
-420
-422
-422
-423
-421
-419
-422
-420
-419
-417
-417
-415
-414
-414
-414
-412
-412
-411
-412
-412
-412
-412
-414
-414
-415
-415
-415
-417
-415
-419
-421
-422
-423
-425
-427
-428
-430
-431
-435
-436
-438
-439
-441
-441
-442
-442
-444
-446
-446
-447
-450
-454
-458
-458
-459
-460
-463
-461
-459
-460
-462
-466
-471
-469
-464
-457
-452
-446
-439
-435
-431
-427
-420
-418
-415
-415
-415
-415
-415
-417
-420
-422
-424
-426
-428
-428
-427
-424
-412
-404
-417
-469
-534
-575
-600
-609
-611
-605
-587
-554
-499
-422
-353
-308
-284
-281
-300
-318
-333
-338
-346
-354
-361
-368
-376
-381
-384
-393
-400
-401
-407
-411
-409
-419
-425
-431
-431
-438
-441
-442
-443
-446
-447
-449
-452
-455
-456
-457
-461
-463
-465
-466
-467
-469
-469
-475
-483
-488
-496
-504
-513
-516
-525
-528
-531
-533
-533
-531
-529
-523
-517
-508
-498
-485
-471
-458
-444
-431
-420
-409
-399
-392
-386
-379
-374
-373
-372
-370
-373
-374
-379
-382
-383
-387
-390
-393
-396
-400
-404
-405
-409
-411
-413
-417
-419
-420
-423
-423
-422
-420
-423
-422
-420
-418
-419
-417
-414
-411
-412
-411
-412
-411
-412
-412
-413
-414
-414
-415
-415
-415
-415
-417
-420
-421
-422
-425
-427
-428
-428
-433
-435
-435
-435
-437
-440
-441
-442
-442
-442
-442
-444
-447
-450
-450
-448
-449
-450
-452
-455
-458
-458
-458
-459
-459
-460
-457
-462
-465
-469
-473
-469
-465
-457
-454
-448
-440
-434
-427
-422
-419
-415
-415
-415
-416
-418
-419
-422
-422
-424
-425
-430
-431
-431
-429
-421
-415
-427
-478
-536
-581
-603
-614
-615
-608
-589
-550
-479
-389
-326
-288
-272
-270
-283
-305
-330
-345
-354
-361
-368
-376
-382
-388
-395
-399
-402
-408
-412
-417
-419
-421
-427
-431
-435
-439
-442
-443
-446
-447
-450
-452
-454
-455
-457
-461
-465
-464
-462
-467
-469
-471
-476
-483
-489
-490
-500
-506
-514
-519
-524
-529
-534
-535
-533
-533
-530
-525
-519
-509
-498
-484
-469
-452
-436
-422
-411
-400
-390
-381
-373
-366
-364
-361
-361
-361
-364
-368
-372
-377
-382
-387
-390
-393
-396
-401
-404
-405
-408
-411
-412
-414
-415
-415
-417
-414
-414
-412
-411
-411
-410
-408
-407
-406
-404
-404
-404
-403
-402
-400
-401
-401
-401
-402
-404
-407
-406
-411
-412
-414
-415
-417
-419
-421
-421
-423
-424
-427
-427
-428
-430
-431
-433
-435
-435
-437
-437
-438
-442
-446
-450
-450
-454
-457
-458
-457
-456
-455
-457
-461
-465
-461
-457
-450
-444
-439
-434
-428
-424
-419
-415
-411
-409
-411
-411
-411
-411
-414
-415
-417
-419
-419
-424
-423
-419
-408
-403
-417
-473
-538
-580
-602
-613
-614
-609
-593
-562
-503
-423
-352
-304
-281
-274
-288
-311
-328
-338
-346
-354
-361
-369
-377
-382
-386
-392
-396
-403
-408
-414
-419
-422
-426
-431
-435
-437
-438
-442
-443
-445
-446
-450
-452
-455
-457
-459
-462
-464
-465
-468
-469
-473
-473
-480
-485
-492
-499
-507
-515
-522
-528
-531
-535
-538
-538
-537
-533
-530
-519
-511
-500
-487
-473
-458
-444
-432
-419
-407
-396
-388
-381
-376
-369
-369
-366
-367
-366
-369
-374
-377
-379
-384
-388
-392
-397
-402
-404
-408
-411
-413
-415
-418
-420
-419
-421
-420
-419
-419
-420
-418
-415
-413
-414
-411
-410
-407
-407
-408
-408
-407
-407
-408
-408
-407
-409
-411
-411
-412
-414
-418
-419
-419
-420
-423
-423
-425
-427
-428
-430
-431
-431
-431
-431
-435
-436
-439
-444
-452
-450
-453
-455
-455
-457
-456
-455
-458
-465
-467
-468
-459
-452
-447
-441
-435
-431
-427
-415
-415
-412
-411
-411
-411
-411
-414
-415
-419
-420
-423
-427
-428
-428
-427
-422
-409
-406
-437
-501
-562
-595
-613
-620
-619
-608
-587
-551
-486
-414
-352
-314
-292
-295
-314
-330
-341
-348
-354
-360
-366
-373
-378
-385
-390
-396
-401
-408
-412
-417
-421
-424
-431
-435
-436
-438
-442
-446
-445
-446
-450
-453
-453
-455
-457
-458
-460
-463
-465
-468
-471
-473
-476
-483
-487
-495
-502
-510
-517
-523
-529
-532
-535
-535
-535
-533
-528
-522
-512
-503
-491
-476
-462
-446
-435
-421
-410
-400
-395
-387
-380
-377
-376
-376
-375
-376
-377
-377
-382
-384
-388
-392
-396
-398
-400
-406
-408
-411
-414
-417
-419
-415
-419
-420
-421
-420
-422
-422
-420
-420
-420
-419
-419
-417
-417
-417
-416
-414
-415
-415
-414
-415
-417
-419
-417
-418
-419
-422
-422
-423
-423
-423
-425
-426
-427
-428
-431
-428
-431
-433
-433
-435
-437
-439
-441
-442
-447
-454
-457
-456
-460
-461
-463
-461
-460
-461
-455
-471
-473
-468
-462
-456
-450
-446
-442
-436
-431
-425
-423
-421
-419
-417
-419
-417
-420
-423
-427
-428
-431
-431
-434
-431
-431
-423
-415
-423
-465
-530
-579
-604
-617
-620
-615
-601
-573
-519
-435
-361
-314
-286
-283
-296
-321
-341
-353
-361
-368
-373
-380
-385
-389
-397
-401
-405
-411
-417
-419
-427
-432
-435
-438
-442
-445
-447
-450
-452
-454
-455
-455
-457
-459
-459
-460
-460
-463
-468
-470
-473
-476
-477
-481
-485
-493
-503
-509
-515
-524
-528
-531
-533
-535
-536
-534
-529
-523
-515
-504
-492
-481
-466
-453
-439
-427
-414
-404
-393
-385
-379
-375
-373
-372
-373
-374
-376
-376
-380
-382
-385
-390
-393
-397
-400
-404
-408
-411
-414
-414
-419
-419
-421
-422
-422
-422
-419
-420
-419
-419
-418
-418
-417
-418
-415
-414
-414
-412
-412
-411
-411
-412
-412
-414
-414
-415
-417
-418
-415
-417
-418
-421
-423
-423
-425
-427
-423
-427
-428
-428
-430
-431
-433
-435
-435
-436
-438
-442
-447
-446
-446
-449
-453
-452
-450
-448
-452
-457
-461
-465
-461
-454
-447
-444
-438
-429
-423
-418
-414
-411
-410
-408
-408
-406
-405
-405
-411
-414
-415
-418
-422
-423
-421
-419
-412
-409
-422
-472
-535
-577
-598
-608
-608
-600
-583
-549
-485
-401
-333
-293
-275
-274
-288
-310
-333
-347
-354
-363
-369
-377
-384
-390
-396
-400
-406
-409
-414
-418
-422
-426
-427
-431
-435
-438
-439
-441
-443
-446
-447
-450
-454
-454
-457
-458
-460
-463
-465
-466
-470
-472
-476
-480
-486
-492
-500
-508
-515
-523
-526
-530
-535
-536
-536
-533
-531
-524
-517
-506
-496
-484
-469
-454
-442
-427
-415
-403
-395
-385
-377
-371
-367
-365
-366
-366
-369
-371
-374
-378
-381
-388
-392
-397
-400
-404
-409
-412
-415
-417
-419
-422
-421
-422
-423
-423
-422
-422
-421
-419
-419
-416
-415
-414
-412
-411
-411
-410
-409
-408
-406
-407
-407
-408
-408
-409
-411
-409
-412
-415
-417
-417
-418
-420
-421
-423
-423
-427
-427
-427
-430
-431
-433
-434
-435
-435
-437
-439
-442
-447
-449
-453
-455
-456
-457
-456
-454
-454
-457
-460
-465
-460
-455
-447
-444
-438
-434
-428
-423
-415
-411
-410
-410
-409
-409
-411
-412
-414
-415
-418
-423
-423
-423
-424
-423
-412
-401
-409
-455
-521
-569
-598
-609
-610
-604
-592
-566
-522
-452
-382
-329
-298
-285
-291
-317
-333
-341
-346
-354
-361
-366
-371
-377
-385
-389
-396
-402
-407
-413
-416
-419
-425
-430
-431
-435
-438
-440
-442
-443
-447
-447
-450
-450
-452
-454
-454
-457
-458
-461
-463
-463
-468
-472
-477
-482
-489
-497
-506
-513
-519
-524
-529
-533
-533
-533
-533
-530
-523
-514
-504
-492
-481
-465
-453
-441
-429
-417
-408
-399
-390
-382
-378
-374
-373
-371
-371
-371
-371
-373
-376
-376
-381
-385
-388
-392
-396
-400
-403
-404
-407
-411
-414
-415
-416
-415
-417
-419
-420
-418
-419
-419
-418
-417
-415
-415
-414
-412
-410
-411
-411
-409
-409
-409
-409
-409
-409
-409
-409
-411
-411
-411
-414
-414
-415
-417
-419
-420
-421
-423
-425
-427
-428
-430
-431
-431
-434
-433
-435
-438
-441
-446
-450
-450
-453
-453
-455
-456
-454
-452
-455
-459
-463
-463
-457
-450
-446
-439
-435
-430
-427
-420
-413
-414
-412
-412
-411
-411
-414
-415
-417
-420
-423
-425
-427
-427
-426
-422
-407
-404
-433
-495
-554
-589
-608
-615
-614
-604
-582
-546
-481
-411
-352
-317
-296
-299
-320
-338
-349
-355
-361
-368
-374
-379
-384
-392
-394
-400
-405
-411
-417
-420
-425
-430
-435
-437
-439
-442
-446
-446
-450
-451
-454
-454
-457
-458
-460
-460
-462
-463
-464
-468
-469
-473
-477
-484
-488
-493
-503
-510
-516
-522
-527
-531
-535
-535
-536
-535
-531
-523
-514
-506
-493
-481
-466
-452
-439
-427
-419
-407
-399
-390
-384
-379
-376
-373
-373
-376
-376
-376
-378
-381
-385
-387
-392
-395
-399
-402
-404
-409
-414
-415
-415
-417
-419
-420
-419
-423
-422
-423
-422
-420
-420
-419
-419
-417
-416
-416
-413
-414
-414
-413
-411
-411
-411
-412
-411
-411
-412
-414
-413
-415
-416
-419
-419
-419
-421
-422
-425
-425
-428
-431
-430
-434
-434
-436
-438
-438
-439
-441
-442
-443
-446
-450
-453
-452
-454
-456
-457
-458
-453
-457
-460
-463
-465
-462
-457
-452
-444
-438
-432
-427
-421
-415
-412
-411
-411
-411
-411
-411
-411
-413
-415
-418
-421
-422
-424
-425
-422
-414
-407
-420
-466
-526
-570
-592
-604
-602
-596
-580
-548
-495
-415
-350
-304
-284
-278
-292
-316
-338
-352
-361
-368
-374
-380
-386
-391
-395
-400
-405
-410
-414
-419
-423
-428
-430
-433
-437
-439
-441
-442
-446
-446
-450
-451
-455
-456
-457
-457
-458
-461
-464
-464
-468
-471
-475
-477
-486
-494
-501
-509
-519
-524
-527
-532
-533
-535
-533
-529
-523
-515
-510
-499
-488
-476
-463
-449
-431
-423
-411
-400
-389
-381
-376
-369
-369
-369
-368
-368
-369
-370
-372
-377
-379
-385
-390
-394
-399
-402
-409
-411
-412
-417
-419
-422
-422
-423
-423
-424
-423
-423
-422
-423
-420
-419
-419
-419
-418
-417
-417
-415
-414
-411
-412
-412
-412
-412
-411
-415
-415
-415
-417
-419
-419
-421
-422
-423
-427
-427
-429
-430
-431
-435
-435
-436
-439
-442
-442
-442
-446
-446
-447
-448
-452
-455
-455
-457
-457
-458
-460
-463
-463
-461
-460
-465
-467
-473
-468
-461
-455
-450
-444
-436
-433
-428
-423
-419
-418
-417
-417
-416
-417
-418
-420
-423
-425
-427
-427
-428
-425
-419
-414
-419
-458
-525
-566
-595
-608
-611
-603
-586
-560
-508
-431
-360
-315
-292
-285
-295
-318
-342
-355
-365
-369
-375
-381
-387
-392
-399
-403
-407
-412
-418
-411
-427
-428
-433
-436
-438
-440
-443
-446
-447
-449
-450
-452
-454
-455
-455
-459
-461
-459
-462
-466
-469
-472
-477
-482
-486
-494
-501
-510
-517
-523
-529
-532
-534
-535
-533
-528
-525
-517
-511
-500
-488
-475
-461
-447
-434
-422
-409
-398
-388
-382
-376
-369
-366
-364
-363
-365
-365
-368
-371
-374
-381
-382
-388
-393
-397
-402
-408
-411
-415
-418
-419
-419
-422
-423
-421
-422
-419
-419
-419
-417
-417
-415
-412
-411
-411
-408
-407
-405
-404
-404
-404
-403
-404
-404
-406
-404
-406
-408
-408
-411
-411
-414
-416
-417
-419
-421
-422
-422
-425
-428
-429
-431
-433
-436
-437
-438
-440
-441
-442
-446
-450
-454
-457
-456
-457
-460
-461
-459
-456
-457
-461
-463
-464
-462
-456
-450
-443
-437
-431
-425
-419
-415
-414
-411
-411
-411
-414
-413
-415
-415
-418
-421
-422
-423
-424
-423
-413
-401
-404
-437
-503
-560
-593
-611
-615
-612
-601
-580
-539
-473
-398
-338
-299
-282
-288
-309
-328
-341
-346
-354
-361
-366
-374
-380
-386
-392
-400
-404
-411
-415
-421
-427
-431
-435
-438
-441
-445
-446
-447
-450
-454
-454
-454
-454
-459
-459
-463
-465
-465
-468
-471
-476
-478
-481
-488
-493
-500
-508
-514
-520
-527
-531
-534
-535
-537
-535
-531
-528
-521
-513
-503
-490
-478
-463
