-300
-296
-290
-290
-287
-284
-279
-276
-282
-287
-287
-287
-288
-290
-298
-305
-312
-317
-318
-318
-318
-318
-322
-323
-321
-319
-321
-327
-330
-334
-335
-335
-330
-317
-293
-263
-230
-197
-172
-154
-135
-112
-96
-85
-86
-105
-136
-169
-199
-224
-247
-269
-288
-301
-316
-327
-335
-338
-344
-346
-347
-350
-353
-356
-355
-353
-351
-350
-351
-350
-348
-349
-351
-352
-354
-354
-352
-353
-351
-351
-354
-354
-354
-354
-352
-351
-351
-352
-355
-356
-354
-350
-351
-350
-350
-351
-351
-348
-343
-343
-344
-345
-342
-340
-335
-332
-332
-329
-324
-318
-312
-310
-309
-311
-311
-315
-317
-318
-320
-318
-317
-313
-310
-309
-307
-307
-307
-311
-317
-320
-319
-318
-318
-319
-323
-322
-320
-318
-321
-319
-318
-316
-318
-320
-318
-317
-318
-319
-321
-321
-320
-318
-320
-318
-318
-318
-318
-315
-312
-311
-311
-308
-310
-311
-309
-310
-309
-306
-304
-305
-305
-307
-307
-307
-306
-305
-305
-305
-304
-300
-299
-300
-303
-301
-303
-298
-293
-293
-296
-297
-297
-294
-292
-290
-288
-286
-284
-283
-282
-276
-273
-267
-262
-255
-251
-249
-249
-250
-249
-251
-251
-258
-263
-266
-271
-276
-282
-283
-283
-282
-283
-284
-284
-283
-285
-286
-287
-290
-299
-305
-306
-300
-286
-266
-241
-207
-173
-144
-123
-106
-89
-71
-57
-52
-63
-93
-129
-163
-197
-226
-246
-261
-273
-288
-303
-314
-320
-324
-326
-324
-328
-329
-330
-332
-337
-337
-338
-338
-340
-340
-341
-341
-340
-339
-342
-342
-340
-336
-336
-336
-338
-341
-342
-340
-338
-337
-340
-339
-340
-342
-342
-342
-340
-336
-332
-330
-330
-330
-327
-324
-324
-320
-318
-318
-316
-313
-311
-308
-305
-300
-299
-297
-294
-293
-293
-290
-295
-297
-300
-300
-300
-299
-299
-303
-306
-307
-306
-306
-306
-306
-306
-306
-306
-305
-306
-310
-313
-313
-311
-310
-307
-309
-312
-312
-313
-313
-310
-311
-315
-317
-318
-317
-316
-314
-312
-314
-317
-317
-312
-310
-312
-314
-313
-310
-306
-308
-309
-305
-304
-306
-310
-311
-310
-310
-307
-306
-307
-307
-308
-311
-312
-313
-313
-313
-312
-311
-312
-310
-310
-309
-308
-310
-305
-300
-300
-294
-290
-287
-280
-273
-271
-270
-273
-277
-276
-276
-276
-283
-290
-299
-303
-306
-310
-311
-311
-311
-311
-311
-314
-315
-316
-319
-327
-335
-337
-340
-337
-324
-300
-266
-232
-194
-166
-146
-132
-114
-91
-71
-64
-74
-108
-149
-181
-209
-232
-254
-273
-289
-303
-314
-324
-327
-331
-330
-332
-334
-334
-333
-335
-341
-341
-339
-340
-338
-337
-335
-337
-338
-337
-335
-334
-335
-337
-336
-336
-337
-337
-339
-342
-342
-341
-342
-344
-346
-344
-342
-342
-339
-337
-339
-340
-339
-338
-335
-330
-329
-327
-324
-327
-325
-324
-320
-317
-312
-307
-306
-306
-301
-303
-307
-310
-308
-310
-308
-307
-307
-310
-311
-313
-316
-317
-316
-318
-320
-318
-318
-318
-321
-324
-328
-329
-324
-318
-320
-323
-324
-326
-324
-325
-324
-326
-324
-324
-324
-323
-321
-322
-324
-324
-324
-323
-324
-324
-324
-323
-323
-320
-319
-319
-322
-326
-326
-326
-324
-321
-319
-320
-323
-324
-324
-324
-324
-326
-328
-327
-324
-325
-327
-330
-330
-330
-326
-322
-320
-317
-314
-313
-311
-309
-306
-298
-293
-289
-287
-290
-294
-300
-300
-298
-302
-310
-317
-323
-327
-330
-327
-324
-325
-330
-336
-337
-338
-340
-340
-339
-343
-346
-346
-346
-347
-334
-307
-269
-231
-192
-163
-148
-140
-124
-106
-93
-91
-111
-148
-186
-215
-238
-257
-278
-300
-321
-337
-348
-352
-355
-360
-364
-368
-373
-373
-370
-369
-372
-372
-369
-369
-372
-371
-369
-368
-368
-366
-368
-365
-365
-364
-365
-365
-365
-360
-360
-363
-361
-360
-360
-362
-366
-366
-362
-358
-358
-360
-358
-354
-352
-350
-346
-342
-341
-342
-339
-334
-331
-330
-330
-328
-327
-324
-319
-318
-314
-318
-318
-318
-317
-314
-316
-320
-323
-321
-318
-318
-319
-321
-324
-324
-325
-327
-327
-324
-321
-321
-325
-329
-330
-330
-327
-325
-324
-324
-328
-331
-335
-335
-334
-333
-328
-330
-333
-334
-331
-330
-329
-327
-326
-330
-334
-332
-331
-329
-330
-330
-331
-330
-330
-330
-330
-324
-324
-322
-326
-330
-331
-330
-331
-330
-327
-330
-330
-326
-325
-325
-324
-322
-318
-315
-314
-312
-311
-310
-307
-305
-297
-290
-293
-297
-294
-290
-287
-286
-286
-290
-300
-307
-310
-314
-318
-318
-321
-326
-326
-325
-327
-328
-330
-328
-326
-324
-324
-328
-339
-347
-343
-330
-309
-276
-241
-211
-190
-166
-149
-130
-109
-88
-77
-79
-100
-135
-172
-202
-231
-256
-278
-290
-307
-320
-328
-336
-342
-343
-346
-346
-344
-348
-351
-349
-352
-353
-351
-349
-350
-349
-351
-351
-352
-353
-351
-348
-347
-345
-348
-348
-348
-352
-351
-346
-346
-351
-351
-352
-352
-352
-351
-348
-348
-348
-345
-341
-338
-336
-334
-335
-336
-333
-330
-324
-318
-321
-324
-318
-314
-313
-313
-310
-307
-310
-311
-308
-309
-311
-312
-312
-312
-312
-312
-314
-318
-320
-318
-314
-317
-322
-324
-325
-322
-320
-318
-320
-323
-324
-324
-327
-328
-328
-328
-327
-329
-328
-327
-328
-328
-327
-326
-327
-325
-327
-328
-331
-332
-330
-327
-324
-322
-325
-330
-329
-328
-327
-326
-327
-330
-328
-327
-324
-324
-324
-323
-325
-327
-325
-330
-331
-330
-330
-327
-328
-329
-328
-326
-323
-318
-315
-311
-311
-311
-309
-304
-298
-293
-290
-290
-290
-293
-297
-297
-300
-306
-312
-318
-322
-325
-326
-328
-330
-332
-336
-337
-336
-334
-331
-332
-338
-348
-356
-360
-358
-354
-341
-321
-292
-259
-222
-189
-165
-148
-130
-111
-92
-85
-90
-120
-163
-199
-224
-249
-271
-290
-308
-324
-333
-341
-348
-348
-348
-354
-360
-361
-360
-358
-358
-355
-358
-360
-358
-357
-358
-360
-360
-355
-354
-354
-353
-355
-355
-352
-352
-354
-353
-349
-348
-352
-352
-354
-354
-352
-352
-350
-348
-345
-344
-343
-343
-344
-339
-332
-329
-328
-327
-323
-317
-317
-314
-313
-313
-313
-308
-306
-303
-300
-300
-305
-305
-301
-300
-303
-306
-307
-309
-311
-307
-306
-307
-312
-314
-312
-313
-313
-312
-313
-313
-313
-313
-314
-312
-310
-311
-318
-320
-320
-318
-317
-314
-316
-313
-314
-322
-328
-327
-324
-320
-318
-319
-317
-317
-314
-313
-318
-317
-313
-310
-306
-306
-307
-307
-307
-306
-304
-306
-311
-312
-309
-306
-304
-300
-301
-301
-300
-297
-299
-303
-304
-303
-300
-298
-293
-290
-291
-290
-290
-288
-283
-281
-276
-276
-272
-268
-265
-266
-266
-264
-266
-275
-276
-280
-282
-287
-289
-293
-302
-306
-309
-312
-314
-316
-314
-312
-311
-307
-309
-313
-321
-330
-335
-333
-327
-310
-286
-254
-213
-179
-161
-148
-133
-111
-89
-73
-66
-82
-120
-157
-190
-218
-245
-267
-287
-300
-313
-322
-328
-334
-339
-341
-344
-345
-346
-347
-345
-346
-348
-346
-345
-346
-342
-343
-346
-348
-348
-348
-348
-348
-348
-346
-342
-340
-343
-346
-348
-351
-348
-346
-344
-340
-334
-333
-338
-341
-341
-339
-337
-331
-329
-324
-321
-324
-326
-324
-320
-316
-314
-313
-307
-306
-307
-308
-306
-304
-306
-308
-307
-305
-309
-311
-307
-305
-305
-310
-313
-312
-315
-317
-314
-310
-310
-312
-312
-311
-312
-314
-317
-318
-320
-321
-320
-319
-320
-321
-321
-321
-321
-322
-324
-323
-322
-323
-324
-323
-324
-323
-321
-321
-320
-320
-323
-325
-324
-324
-319
-318
-321
-322
-319
-316
-312
-311
-311
-309
-306
-306
-306
-304
-300
-296
-296
-297
-300
-306
-306
-305
-304
-301
-300
-300
-300
-297
-295
-293
-290
-287
-284
-280
-279
-275
-272
-270
-270
-268
-268
-272
-276
-276
-279
-282
-287
-290
-297
-303
-310
-314
-316
-314
-312
-311
-308
-308
-313
-315
-317
-320
-327
-334
-335
-330
-321
-303
-273
-238
-202
-166
-148
-136
-121
-102
-86
-76
-87
-118
-152
-184
-218
-249
-276
-290
-302
-314
-328
-336
-342
-346
-348
-351
-352
-352
-354
-356
-356
-354
-351
-348
-350
-358
-359
-355
-354
-352
-351
-349
-351
-351
-351
-349
-350
-348
-346
-345
-344
-346
-348
-346
-345
-348
-346
-341
-340
-343
-342
-336
-332
-334
-334
-331
-328
-324
-320
-314
-316
-318
-314
-312
-311
-306
-306
-305
-306
-303
-302
-300
-300
-300
-300
-300
-300
-303
-305
-302
-300
-300
-306
-307
-306
-306
-306
-306
-309
-308
-308
-310
-310
-309
-309
-307
-312
-314
-313
-312
-312
-310
-307
-309
-309
-308
-306
-307
-312
-311
-310
-308
-308
-308
-310
-308
-306
-301
-303
-304
-306
-307
-304
-300
-300
-303
-302
-300
-297
-300
-302
-302
-300
-298
-297
-296
-293
-297
-303
-307
-306
-305
-303
-302
-298
-296
-299
-298
-297
-294
-290
-287
-285
-281
-275
-271
-271
-270
-269
-266
-266
-269
-271
-271
-273
-279
-285
-293
-300
-307
-308
-306
-306
-306
-307
-306
-304
-306
-310
-311
-307
-312
-324
-330
-326
-316
-296
-263
-227
-192
-160
-138
-122
-100
-77
-57
-51
-69
-107
-150
-182
-207
-232
-252
-269
-281
-290
-305
-311
-317
-322
-324
-326
-329
-330
-325
-325
-329
-335
-335
-331
-330
-334
-332
-330
-328
-327
-335
-338
-337
-333
-330
-330
-333
-334
-334
-337
-341
-341
-340
-338
-338
-341
-339
-334
-330
-330
-331
-331
-332
-335
-331
-324
-321
-319
-318
-320
-318
-315
-313
-311
-309
-306
-305
-306
-306
-307
-307
-306
-307
-311
-314
-312
-311
-311
-312
-318
-322
-324
-321
-318
-320
-324
-327
-328
-330
-330
-330
-330
-327
-326
-324
-324
-327
-328
-330
-334
-334
-334
-330
-328
-330
-330
-328
-330
-331
-332
-330
-328
-325
-324
-321
-323
-327
-324
-322
-324
-324
-321
-321
-322
-320
-320
-319
-320
-322
-322
-321
-319
-317
-318
-316
-315
-318
-321
-320
-320
-322
-323
-321
-323
-322
-321
-321
-320
-317
-316
-312
-309
-307
-306
-305
-304
-300
-296
-290
-290
-288
-287
-288
-288
-286
-286
-288
-291
-290
-296
-302
-307
-316
-320
-320
-319
-320
-317
-318
-324
-324
-324
-326
-325
-324
-328
-331
-336
-334
-328
-312
-287
-249
-208
-173
-148
-130
-118
-103
-86
-79
-90
-118
-155
-191
-223
-249
-268
-282
-296
-308
-321
-334
-345
-348
-346
-348
-348
-347
-350
-351
-352
-352
-350
-346
-344
-346
-347
-348
-351
-351
-353
-354
-354
-354
-352
-354
-357
-355
-354
-355
-358
-355
-354
-354
-351
-348
-348
-350
-352
-350
-350
-350
-348
-344
-341
-339
-337
-336
-335
-330
-326
-321
-321
-321
-320
-317
-316
-313
-313
-317
-318
-317
-314
-311
-308
-310
-311
-312
-310
-317
-319
-318
-321
-320
-318
-319
-322
-323
-324
-324
-323
-321
-321
-321
-324
-322
-320
-323
-327
-328
-331
-330
-327
-324
-324
-323
-324
-324
-324
-321
-321
-318
-318
-316
-317
-320
-324
-320
-318
-319
-317
-319
-321
-320
-319
-319
-318
-317
-316
-313
-314
-317
-318
-320
-320
-318
-314
-316
-321
-321
-319
-318
-315
-315
-317
-316
-317
-315
-316
-312
-310
-311
-313
-308
-305
-305
-305
-299
-290
-283
-279
-277
-275
-276
-281
-281
-281
-286
-287
-289
-297
-306
-312
-312
-314
-316
-315
-314
-313
-312
-313
-317
-319
-320
-324
-330
-332
-332
-330
-323
-306
-277
-239
-203
-170
-148
-131
-112
-95
-80
-80
-108
-151
-191
-223
-248
-271
-289
-306
-320
-334
-341
-344
-347
-348
-348
-351
-354
-357
-355
-355
-357
-354
-358
-360
-359
-353
-353
-354
-352
-352
-352
-354
-351
-351
-350
-348
-351
-349
-351
-351
-352
-354
-354
-352
-352
-348
-348
-348
-351
-348
-346
-346
-345
-344
-341
-336
-333
-330
-328
-326
-327
-327
-322
-318
-317
-315
-317
-317
-313
-312
-311
-310
-306
-306
-310
-313
-314
-313
-311
-314
-318
-320
-317
-317
-318
-319
-320
-321
-322
-320
-317
-317
-316
-318
-320
-320
-318
-318
-314
-313
-318
-325
-322
-321
-324
-324
-324
-323
-319
-316
-316
-319
-318
-317
-317
-318
-318
-318
-318
-318
-317
-317
-317
-318
-317
-316
-311
-309
-308
-313
-314
-312
-311
-309
-306
-310
-312
-310
-311
-311
-312
-311
-310
-312
-313
-313
-313
-311
-307
-306
-302
-300
-300
-298
-296
-295
-290
-287
-286
-282
-280
-275
-272
-269
-270
-273
-276
-281
-283
-287
-294
-300
-306
-310
-313
-316
-318
-311
-310
-317
-319
-320
-322
-324
-324
-328
-327
-320
-307
-282
-245
-207
-174
-153
-138
-118
-98
-81
-85
-112
-148
-182
-209
-235
-260
-284
-300
-313
-324
-330
-333
-338
-344
-348
-348
-348
-345
-345
-348
-350
-348
-346
-346
-348
-346
-347
-346
-348
-351
-354
-352
-352
-353
-348
-346
-348
-349
-348
-348
-348
-348
-350
-348
-348
-354
-355
-353
-348
-347
-348
-350
-347
-344
-343
-341
-337
-333
-334
-332
-330
-324
-323
-322
-324
-320
-319
-317
-316
-313
-310
-308
-306
-305
-310
-314
-317
-315
-316
-313
-314
-317
-315
-316
-317
-318
-319
-318
-314
-315
-318
-318
-318
-318
-320
-321
-320
-318
-318
-317
-316
-312
-311
-313
-316
-316
-314
-312
-311
-311
-309
-310
-307
-306
-308
-311
-311
-307
-306
-308
-311
-307
-303
-300
-300
-301
-306
-305
-304
-298
-296
-297
-300
-306
-307
-307
-306
-303
-300
-300
-303
-303
-304
-305
-305
-303
-300
-303
-303
-303
-300
-300
-302
-300
-302
-303
-300
-297
-290
-287
-282
-279
-275
-275
-276
-273
-273
-275
-280
-283
-289
-296
-303
-306
-310
-313
-318
-319
-318
-315
-314
-316
-317
-318
-324
-330
-333
-334
-326
-311
-286
-255
-220
-185
-157
-139
-124
-108
-90
-77
-77
-101
-142
-179
-210
-236
-255
-273
-290
-312
-324
-330
-331
-336
-342
-348
-355
-355
-355
-356
-358
-354
-349
-351
-352
-351
-348
-349
-352
-353
-351
-351
-355
-359
-358
-355
-354
-353
-351
-348
-346
-348
-348
-348
-348
-345
-342
-344
-350
-359
-358
-353
-348
-347
-348
-346
-342
-338
-336
-333
-327
-322
-324
-326
-324
-318
-319
-320
-320
-314
-312
-310
-307
-305
-308
-311
-310
-310
-307
-310
-317
-321
-324
-324
-325
-328
-327
-325
-323
-321
-324
-327
-330
-326
-324
-324
-329
-332
-331
-332
-337
-336
-334
-332
-331
-328
-327
-327
-331
-335
-334
-332
-328
-327
-327
-327
-331
-330
-329
-324
-323
-321
-319
-318
-323
-324
-324
-324
-323
-318
-315
-312
-312
-312
-313
-314
-312
-308
-308
-310
-310
-311
-314
-314
-311
-307
-306
-307
-308
-306
-306
-304
-302
-298
-296
-300
-304
-302
-296
-290
-289
-290
-289
-284
-276
-273
-269
-265
-263
-260
-258
-262
-269
-273
-279
-286
-288
-287
-293
-302
-306
-305
-302
-297
-300
-307
-311
-312
-314
-316
-318
-320
-320
-311
-296
-273
-239
-203
-170
-143
-124
-104
-87
-73
-63
-69
-93
-126
-159
-190
-220
-246
-267
-281
-296
-310
-320
-326
-332
-337
-338
-336
-337
-341
-345
-346
-343
-341
-341
-343
-342
-341
-340
-343
-343
-341
-344
-348
-348
-347
-342
-338
-339
-338
-339
-342
-341
-341
-342
-342
-341
-338
-341
-344
-344
-342
-340
-337
-335
-334
-337
-337
-336
-329
-325
-324
-324
-321
-318
-318
-317
-313
-313
-312
-308
-304
-307
-314
-318
-314
-312
-307
-305
-308
-314
-318
-318
-315
-317
-318
-318
-317
-318
-315
-317
-319
-323
-325
-324
-321
-319
-319
-321
-325
-326
-324
-321
-321
-321
-318
-318
-320
-319
-318
-318
-318
-318
-314
-314
-317
-318
-318
-320
-320
-321
-318
-316
-314
-313
-312
-311
-314
-317
-316
-314
-311
-307
-304
-306
-313
-316
-314
-313
-311
-308
-304
-303
-308
-310
-306
-307
-311
-313
-310
-306
-308
-309
-306
-307
-310
-310
-308
-307
-303
-297
-296
-290
-286
-280
-277
-279
-279
-279
-283
-284
-283
-284
-288
-297
-310
-318
-318
-320
-318
-315
-316
-319
-319
-317
-316
-321
-330
-333
-332
-333
-330
-321
-300
-270
-234
-196
-165
-141
-128
-111
-87
-70
-63
-75
-105
-141
-172
-203
-228
-254
-273
-286
-299
-312
-324
-335
-338
-338
-338
-342
-345
-346
-344
-342
-345
-350
-351
-348
-346
-346
-346
-345
-342
-342
-339
-342
-342
-343
-346
-348
-348
-348
-346
-342
-343
-346
-347
-348
-350
-350
-348
-346
-341
-338
-338
-335
-332
-334
-334
-330
-321
-318
-317
-317
-314
-311
-309
-306
-304
-300
-293
-290
-293
-294
-293
-293
-294
-296
-294
-292
-293
-290
-296
-297
-299
-298
-290
-290
-297
-300
-300
-297
-294
-297
-303
-303
-302
-300
-298
-300
-307
-309
-306
-297
-290
-293
-299
-303
-305
-301
-296
-293
-299
-300
-301
-300
-300
-300
-303
-304
-300
-299
-297
-293
-296
-302
-305
-305
-300
-296
-297
-304
-307
-306
-303
-299
-300
-306
-307
-307
-306
-303
-298
-299
-305
-307
-306
-306
-305
-306
-303
-303
-303
-303
-300
-299
-297
-294
-293
-289
-290
-290
-287
-283
-276
-272
-267
-266
-266
-266
-265
-266
-268
-271
-274
-282
-288
-295
-306
-311
-310
-310
-310
-311
-312
-316
-317
-317
-318
-321
-323
-324
-328
-330
-322
-306
-283
-251
-211
-180
-161
-144
-124
-103
-85
-72
-73
-97
-136
-172
-203
-230
-253
-272
-287
-300
-313
-322
-325
-334
-342
-346
-346
-348
-348
-348
-348
-345
-346
-348
-348
-348
-346
-348
-349
-351
-348
-348
-347
-345
-346
-349
-352
-348
-347
-344
-342
-342
-346
-346
-348
-347
-342
-339
-337
-337
-336
-334
-332
-332
-330
-327
-321
-318
-316
-318
-320
-318
-314
-311
-306
-303
-300
-296
-297
-300
-305
-308
-310
-309
-311
-313
-312
-309
-307
-308
-311
-318
-321
-318
-316
-314
-314
-313
-315
-318
-320
-321
-318
-318
-323
-327
-327
-324
-324
-321
-318
-318
-320
-325
-327
-326
-325
-326
-327
-328
-326
-327
-330
-328
-324
-324
-324
-324
-324
-324
-324
-323
-323
-320
-318
-318
-318
-317
-319
-317
-313
-310
-311
-311
-311
-312
-311
-310
-311
-311
-311
-310
-307
-306
-302
-297
-302
-306
-305
-301
-300
-300
-297
-297
-300
-299
-296
-289
-285
-283
-282
-283
-281
-275
-271
-265
-258
-256
-258
-258
-255
-252
-258
-266
-272
-277
-284
-287
-289
-292
-297
-305
-306
-307
-311
-312
-312
-311
-310
-307
-307
-313
-324
-330
-329
-324
-309
-282
-245
-208
-174
-157
-146
-128
-105
-87
-74
-81
-115
-154
-187
-216
-239
-264
-283
-297
-311
-324
-335
-342
-342
-344
-348
-349
-351
-351
-348
-352
-356
-355
-352
-353
-351
-348
-346
-352
-357
-361
-360
-357
-352
-354
-354
-354
-357
-355
-354
-349
-352
-354
-352
-354
-354
-355
-358
-359
-359
-355
-352
-350
-346
-345
-342
-341
-342
-343
-341
-337
-332
-328
-324
-322
-324
-324
-325
-322
-319
-317
-317
-318
-315
-313
-314
-318
-323
-327
-327
-330
-330
-328
-326
-324
-324
-327
-325
-322
-320
-317
-321
-324
-328
-330
-328
-326
-327
-330
-328
-326
-327
-330
-331
-330
-327
-327
-326
-326
-329
-332
-330
-330
-328
-328
-327
-330
-332
-332
-329
-328
-327
-328
-326
-327
-330
-330
-327
-326
-322
-318
-323
-327
-325
-324
-323
-324
-324
-324
-325
-325
-324
-324
-326
-327
-327
-324
-322
-320
-318
-316
-319
-324
-324
-318
-313
-310
-308
-309
-307
-303
-297
-289
-287
-290
-290
-290
-288
-290
-290
-298
-307
-316
-320
-323
-325
-330
-327
-326
-328
-334
-336
-336
-340
-340
-338
-337
-342
-348
-352
-355
-348
-331
-300
-269
-234
-207
-190
-173
-151
-132
-121
-120
-139
-175
-210
-240
-264
-285
-301
-314
-328
-341
-348
-354
-361
-361
-361
-360
-358
-358
-358
-360
-359
-360
-362
-359
-360
-361
-357
-355
-358
-360
-363
-361
-360
-360
-359
-357
-360
-358
-355
-354
-352
-354
-356
-360
-361
-360
-360
-358
-354
-356
-361
-360
-355
-352
-348
-345
-344
-342
-341
-338
-337
-336
-330
-327
-324
-326
-329
-330
-323
-317
-321
-324
-324
-322
-320
-318
-318
-317
-318
-320
-324
-324
-323
-324
-324
-324
-324
-325
-329
-336
-336
-333
-335
-338
-337
-336
-336
-336
-336
-337
-339
-341
-341
-339
-341
-342
-342
-341
-341
-341
-338
-342
-345
-345
-342
-342
-342
-338
-338
-338
-338
-337
-336
-340
-341
-337
-333
-330
-329
-330
-329
-327
-326
-329
-332
-330
-328
-327
-324
-324
-320
-318
-321
-324
-324
-323
-318
-318
-319
-319
-318
-318
-317
-313
-313
-314
-312
-313
-312
-306
-301
-296
-290
-290
-295
-300
-300
-303
-306
-310
-316
-321
-324
-327
-334
-337
-339
-344
-344
-343
-344
-343
-342
-342
-344
-351
-359
-358
-354
-342
-315
-280
-238
-201
-178
-160
-142
-124
-114
-114
-141
-182
-215
-244
-269
-288
-305
-324
-342
-357
-362
-362
-366
-374
-379
-382
-383
-382
-381
-381
-382
-381
-378
-376
-374
-371
-373
-376
-375
-374
-375
-379
-376
-371
-369
-368
-366
-369
-375
-374
-371
-368
-369
-375
-378
-375
-372
-368
-364
-367
-371
-366
-364
-360
-357
-354
-351
-348
-344
-344
-341
-337
-332
-330
-328
-325
-325
-323
-317
-312
-310
-310
-312
-313
-313
-313
-312
-311
-312
-314
-315
-315
-317
-318
-314
-309
-311
-313
-314
-318
-317
-318
-318
-318
-318
-319
-319
-321
-324
-323
-324
-321
-318
-320
-318
-315
-316
-318
-321
-317
-312
-314
-315
-313
-310
-308
-306
-303
-303
-302
-304
-303
-300
-297
-295
-297
-301
-304
-306
-307
-304
-303
-304
-306
-311
-311
-309
-305
-303
-304
-306
-307
-306
-306
-306
-306
-305
-306
-306
-306
-301
-297
-293
-290
-289
-290
-289
-285
-276
-272
-271
-269
-263
-259
-261
-262
-264
-269
-271
-272
-276
-284
-290
-294
-297
-300
-297
-298
-300
-306
-306
-305
-305
-307
-311
-313
-311
-305
-283
-251
-211
-175
-145
-124
-108
-87
-68
-56
-63
-93
-133
-167
-199
-227
-245
-259
-272
-287
-301
-311
-317
-324
-330
-333
-330
-330
-329
-330
-330
-327
-327
-326
-324
-327
-325
-323
-321
-319
-320
-320
-316
-312
-310
-312
-311
-309
-311
-310
-310
-308
-304
-302
-306
-307
-306
-303
-300
-300
-299
-300
-300
-297
-294
-290
-289
-290
-289
-288
-288
-282
-276
-275
-276
-276
-275
-275
-270
-269
-264
-265
-265
-268
-268
-269
-270
-273
-273
-272
-272
-275
-276
-280
-282
-282
-281
-284
-286
-285
-287
-287
-286
-286
-288
-287
-288
-289
-287
-289
-289
-287
-290
-293
-290
-293
-297
-298
-298
-300
-298
-295
-294
-297
-297
-295
-294
-297
-297
-298
-294
-293
-293
-297
-301
-303
-302
-300
-300
-303
-302
-306
-305
-302
-301
-303
-300
-300
-299
-299
-299
-297
-297
-300
-306
-310
-311
-312
-311
-307
-306
-306
-306
-306
-301
-297
-295
-294
-290
-290
-287
-286
-281
-275
-269
-265
-264
-266
-269
-275
-281
-281
-286
-290
-297
-301
-305
-307
-309
-311
-310
-306
-309
-312
-312
-317
-318
-323
-324
-319
-312
-293
-262
-223
-184
-159
-142
-126
-105
-87
-71
-69
-85
-121
-162
-196
-221
-248
-269
-280
-289
-305
-317
-324
-331
-333
-334
-331
-331
-331
-330
-328
-331
-335
-335
-334
-334
-334
-332
-330
-331
-330
-327
-330
-332
-332
-330
-327
-324
-324
-325
-327
-325
-325
-321
-320
-322
-327
-329
-328
-333
-331
-324
-321
-323
-323
-320
-318
-314
-314
-313
-307
-307
-308
-305
-300
-297
-298
-297
-300
-300
-296
-296
-296
-290
-294
-298
-297
-299
-300
-300
-300
-300
-300
-302
-302
-305
-306
-307
-306
-306
-306
-306
-309
-311
-312
-311
-312
-312
-312
-313
-313
-313
-314
-313
-313
-314
-315
-313
-310
-307
-309
-308
-310
-312
-313
-313
-311
-310
-307
-309
-312
-315
-317
-313
-310
-307
-306
-306
-310
-310
-313
-311
-307
-305
-306
-310
-312
-314
-314
-311
-305
-300
-306
-313
-317
-318
-314
-310
-310
-312
-315
-316
-313
-310
-306
-302
-296
-296
-296
-295
-292
-289
-286
-276
-272
-269
-269
-272
-272
-276
-285
-290
-297
-299
-302
-306
-312
-318
-321
-321
-320
-318
-317
-318
-324
-330
-332
-337
-338
-334
-322
-309
-286
-250
-205
-170
-148
-135
-120
-100
-86
-79
-88
-122
-160
-190
-218
-245
-266
-287
-300
-310
-320
-328
-333
-336
-337
-339
-342
-343
-345
-351
-351
-348
-348
-344
-339
-339
-342
-347
-353
-351
-346
-342
-340
-341
-342
-345
-343
-340
-340
-340
-342
-341
-338
-336
-336
-337
-338
-338
-338
-338
-341
-338
-337
-337
-337
-335
-333
-329
-327
-324
-322
-318
-318
-313
-306
-305
-307
-308
-306
-303
-300
-300
-305
-307
-307
-304
-305
-305
-306
-307
-310
-310
-311
-312
-313
-312
-312
-312
-311
-314
-317
-315
-315
-314
-313
-314
-312
-310
-313
-315
-317
-315
-317
-318
-318
-317
-316
-316
-316
-317
-316
-316
-318
-320
-321
-318
-314
-313
-313
-312
-311
-312
-312
-312
-313
-318
-321
-321
-319
-316
-314
-312
-308
-310
-311
-314
-317
-316
-314
-312
-312
-308
-307
-310
-311
-312
-310
-311
-314
-314
-315
-313
-310
-306
-303
-300
-300
-298
-297
-293
-287
-282
-280
-276
-275
-275
-276
-275
-276
-282
-287
-290
-297
-300
-300
-306
-314
-318
-317
-313
-312
-313
-312
-314
-319
-322
-327
-330
-330
-325
-318
-302
-273
-236
-203
-177
-158
-140
-118
-97
-81
-74
-83
-112
-148
-179
-210
-239
-260
-276
-289
-300
-310
-323
-328
-331
-336
-342
-344
-343
-342
-341
-340
-342
-346
-348
-345
-345
-344
-342
-344
-343
-344
-346
-348
-348
-349
-353
-352
-351
-351
-349
-351
-353
-352
-353
-352
-350
-348
-349
-350
-350
-348
-348
-348
-346
-347
-346
-344
-342
-337
-334
-332
-329
-327
-324
-324
-321
-318
-315
-314
-316
-314
-311
-311
-314
-312
-314
-317
-321
-324
-321
-319
-318
-318
-320
-326
-330
-330
-326
-324
-324
-324
-323
-324
-325
-326
-327
-330
-329
-328
-328
-331
-332
-333
-333
-330
-328
-331
-335
-337
-335
-335
-332
-331
-329
-330
-332
-334
-332
-332
-331
-330
-332
-330
-329
-328
-329
-333
-336
-336
-335
-332
-330
-328
-325
-329
-335
-335
-332
-328
-324
-324
-327
-329
-328
-324
-325
-326
-327
-328
-325
-327
-328
-325
-321
-319
-318
-317
-314
-312
-306
-295
-293
-290
-290
-290
-287
-287
-289
-290
-293
-300
-308
-310
-314
-317
-318
-320
-321
-324
-324
-326
-327
-326
-324
-326
-330
-335
-339
-342
-342
-334
-318
-289
-251
-211
-176
-151
-136
-124
-107
-91
-84
-87
-105
-138
-175
-209
-236
-255
-274
-290
-306
-323
-339
-348
-351
-354
-355
-355
-357
-360
-363
-362
-362
-362
-361
-358
-354
-355
-360
-361
-358
-357
-362
-367
-365
-361
-360
-362
-365
-368
-368
-367
-365
-362
-361
-361
-356
-354
-358
-360
-361
-360
-355
-357
-354
-348
-345
-346
-347
-344
-342
-339
-336
-328
-324
-324
-322
-320
-321
-322
-320
-317
-315
-318
-321
-324
-321
-319
-320
-320
-318
-319
-318
-320
-318
-318
-318
-318
-318
-319
-321
-321
-323
-324
-321
-318
-322
-333
-337
-334
-328
-324
-324
-327
-329
-328
-324
-321
-320
-320
-320
-323
-326
-328
-328
-326
-325
-327
-329
-327
-324
-320
-318
-318
-318
-319
-318
-317
-318
-318
-314
-315
-320
-318
-318
-317
-321
-322
-323
-321
-319
-317
-315
-318
-316
-314
-317
-318
-312
-309
-311
-318
-318
-314
-312
-311
-310
-308
-304
-296
-290
-287
-286
-285
-279
-274
-275
-281
-287
-291
-293
-301
-309
-312
-314
-317
-320
-322
-324
-324
-325
-323
-320
-320
-323
-324
-328
-337
-341
-340
-331
-316
-291
-261
-227
-192
-165
-148
-135
-118
-100
-82
-77
-99
-137
-175
-203
-228
-256
-278
-295
-309
-324
-339
-345
-347
-348
-349
-353
-355
-354
-357
-361
-366
-362
-359
-360
-366
-371
-368
-362
-361
-360
-357
-354
-354
-354
-359
-361
-360
-360
-355
-352
-351
-355
-362
-363
-361
-356
-354
-351
-348
-346
-342
-339
-341
-338
-341
-344
-344
-337
-333
-328
-321
-318
-316
-316
-314
-311
-311
-311
-307
-306
-307
-308
-309
-309
-304
-303
-310
-313
-313
-314
-314
-313
-313
-311
-309
-307
-307
-307
-310
-314
-317
-316
-317
-316
-313
-313
-314
-318
-320
-317
-312
-311
-315
-318
-319
-318
-318
-318
-317
-314
-314
-311
-311
-314
-319
-317
-311
-306
-306
-310
-316
-317
-313
-309
-307
-308
-307
-307
-313
-314
-311
-307
-309
-311
-307
-307
-312
-312
-311
-310
-310
-310
-305
-303
-306
-308
-309
-303
-296
-290
-290
-286
-281
-281
-283
-281
-275
-268
-263
-263
-264
-263
-262
-265
-265
-269
-279
-289
-295
-300
-303
-305
-307
-304
-304
-307
-310
-313
-314
-312
-311
-307
-307
-317
-324
-327
-320
-306
-289
-264
-235
-203
-175
-152
-135
-116
-98
-84
-80
-97
-130
-166
-196
-221
-240
-259
-276
-290
-305
-314
-323
-327
-330
-332
-333
-331
-332
-333
-334
-330
-330
-329
-333
-338
-341
-335
-330
-332
-334
-336
-339
-337
-335
-333
-335
-336
-341
-343
-340
-337
-337
-338
-341
-338
-337
-343
-344
-342
-341
-340
-337
-335
-335
-335
-333
-334
-336
-336
-332
-328
-324
-318
-315
-313
-310
-311
-310
-309
-312
-313
-312
-309
-307
-307
-305
-303
-307
-310
-312
-313
-314
-314
-315
-313
-313
-312
-312
-315
-322
-323
-320
-320
-324
-321
-324
-326
-326
-324
-320
-319
-324
-324
-322
-322
-324
-324
-324
-324
-324
-319
-318
-318
-322
-324
-324
-324
-324
-321
-318
-319
-320
-318
-316
-316
-313
-314
-316
-312
-308
-311
-317
-317
-317
-313
-310
-309
-306
-306
-306
-305
-307
-307
-306
-306
-305
-300
-300
-296
-290
-288
-286
-283
-278
-276
-272
-267
-269
-273
-272
-270
-273
-276
-290
-300
-300
-300
-305
-306
-306
-306
-306
-306
-307
-311
-308
-305
-306
-312
-317
-318
-318
-312
-300
-275
-242
-209
-174
-145
-129
-117
-103
-88
-81
-87
-114
-153
-185
-216
-239
-257
-270
-286
-306
-318
-324
-324
-324
-330
-335
-337
-337
-337
-335
-335
-334
-332
-332
-335
-334
-335
-337
-336
-333
-334
-334
-336
-336
-334
-332
-329
-327
-324
-324
-328
-334
-335
-336
-335
-332
-328
-328
-326
-324
-324
-324
-320
-314
-313
-314
-319
-319
-318
-313
-307
-304
-300
-300
-300
-300
-296
-293
-299
-299
-297
-297
-295
-299
-302
-302
-304
-300
-297
-300
-304
-306
-303
-300
-302
-304
-306
-311
-312
-311
-311
-311
-312
-310
-308
-310
-314
-318
-316
-312
-306
-306
-310
-320
-325
-321
-318
-314
-311
-313
-318
-318
-318
-317
-317
-318
-322
-322
-318
-317
-313
-312
-313
-320
-321
-318
-313
-313
-312
-311
-312
-314
-314
-313
-311
-309
-309
-311
-313
-313
-311
-306
-305
-304
-300
-297
-290
-290
-286
-284
-282
-280
-276
-275
-275
-272
-270
-273
-276
-282
-282
-281
-282
-287
-296
-304
-310
-311
-310
-313
-314
-312
-317
-317
-313
-311
-311
-312
-317
-324
-333
-333
-320
-307
-288
-257
-221
-190
-164
-149
-136
-120
-103
-88
-92
-118
-160
-196
-227
-251
-270
-280
-290
-306
-318
-324
-329
-336
-338
-341
-342
-342
-343
-346
-347
-350
-346
-342
-344
-348
-351
-348
-346
-345
-345
-348
-350
-348
-347
-347
-346
-344
-346
-346
-346
-349
-348
-348
-348
-348
-345
-344
-346
-344
-339
-340
-342
-344
-343
-341
-337
-333
-333
-330
-329
-331
-330
-325
-324
-324
-323
-323
-321
-316
-314
-314
-317
-320
-322
-322
-322
-324
-324
-319
-321
-324
-326
-327
-331
-336
-336
-334
-330
-331
-333
-332
-330
-332
-334
-333
-331
-330
-330
-329
-330
-333
-328
-327
-325
-324
-328
-332
-328
-321
-319
-324
-327
-329
-324
-321
-320
-318
-318
-317
-318
-317
-316
-315
-315
-318
-323
-320
-314
-312
-313
-315
-315
-313
-314
-313
-310
-307
-305
-306
-306
-306
-300
-300
-303
-300
-300
-296
-290
-286
-279
-275
-279
-280
-283
-287
-290
-295
-297
-298
-303
-310
-318
-326
-327
-324
-323
-326
-328
-326
-324
-323
-324
-329
-334
-336
-335
-327
-311
-285
-255
-227
-197
-171
-154
-136
-119
-103
-97
-111
-140
-177
-210
-236
-257
-275
-287
-300
-314
-326
-334
-342
-345
-345
-345
-347
-346
-348
-348
-348
-348
-348
-346
-344
-348
-348
-349
-352
-350
-348
-343
-341
-343
-346
-348
-349
-347
-348
-348
-348
-342
-338
-342
-347
-348
-348
-346
-342
-339
-338
-337
-335
-334
-332
-330
-328
-324
-321
-317
-318
-321
-319
-315
-314
-306
-300
-306
-312
-310
-307
-306
-307
-308
-311
-311
-310
-309
-311
-311
-314
-314
-316
-315
-315
-316
-314
-314
-318
-321
-322
-321
-321
-318
-320
-320
-318
-318
-321
-323
-324
-320
-318
-314
-314
-319
-318
-321
-323
-321
-318
-314
-311
-315
-320
-320
-318
-316
-313
-312
-317
-314
-313
-317
-318
-318
-316
-314
-312
-309
-306
-306
-310
-311
-309
-304
-307
-311
-309
-304
-296
-293
-290
-289
-287
-287
-286
-281
-275
-270
-269
-269
-273
-276
-276
-276
-279
-283
-287
-293
-300
-300
-300
-301
-307
-311
-314
-318
-320
-318
-315
-313
-314
-321
-321
-320
-323
-319
-306
-280
-245
-210
-181
-158
-146
-135
-120
-103
-93
-101
-130
-166
-199
-227
-251
-267
-281
-294
-309
-320
-330
-335
-337
-338
-338
-341
-343
-342
-338
-340
-343
-348
-351
-352
-351
-348
-346
-345
-343
-341
-341
-345
-345
-346
-347
-344
-339
-334
-335
-342
-351
-355
-353
-348
-347
-343
-338
-337
-337
-337
-339
-342
-339
-335
-333
-330
-331
-328
-324
-320
-318
-318
-320
-317
-314
-310
-311
-317
-318
-316
-313
-311
-308
-309
-311
-316
-315
-314
-317
-318
-316
-313
-310
-307
-314
-324
-327
-324
-321
-320
-321
-324
-326
-324
-324
-323
-324
-324
-321
-322
-321
-323
-324
-325
-323
-319
-321
-324
-321
-320
-324
-325
-324
-322
-320
-320
-318
-320
-319
-321
-321
-320
-316
-315
-316
-313
-317
-318
-314
-316
-318
-317
-314
-311
-313
-316
-317
-316
-314
-311
-307
-303
-300
-296
-290
-293
-292
-290
-285
-281
-276
-275
-280
-280
-280
-282
-285
-286
-289
-294
-300
-305
-310
-310
-314
-316
-317
-315
-318
-317
-314
-311
-312
-318
-324
-327
-330
-329
-324
-320
-307
-281
-245
-211
-182
-164
-153
-135
-117
-101
-99
-115
-148
-184
-217
-240
-259
-276
-290
-306
-319
-328
-335
-339
-341
-344
-348
-348
-348
-346
-345
-341
-338
-346
-352
-351
-348
-349
-351
-345
-340
-337
-338
-344
-351
-351
-351
-348
-348
-344
-342
-346
-348
-349
-348
-345
-344
-347
-347
-346
-345
-338
-336
-336
-337
-341
-341
-336
-337
-336
-330
-324
-320
-321
-324
-322
-316
-313
-314
-314
-313
-313
-313
-312
-312
-314
-312
-312
-315
-318
-320
-323
-322
-320
-318
-318
-321
-324
-324
-325
-325
-325
-326
-328
-328
-329
-328
-324
-324
-324
-321
-320
-327
-333
-332
-330
-332
-329
-324
-326
-328
-330
-334
-334
-330
-327
-327
-324
-321
-320
-323
-324
-324
-324
-323
-318
-318
-320
-319
-319
-317
-321
-323
-318
-313
-312
-317
-321
-320
-317
-313
-309
-306
-305
-306
-307
-304
-298
-293
-289
-288
-287
-287
-280
-274
-272
-276
-280
-286
-287
-287
-289
-292
-295
-304
-310
-314
-315
-321
-322
-321
-321
-318
-316
-316
-318
-323
-327
-330
-334
-335
-326
-306
-281
-248
-214
-183
-162
-148
-130
-117
-104
-100
-116
-152
-185
-215
-240
-262
-276
-290
-300
-315
-327
-334
-334
-336
-337
-338
-336
-340
-346
-347
-346
-345
-342
-340
-342
-346
-349
-349
-346
-342
-339
-340
-342
-346
-346
-344
-341
-337
-337
-336
-336
-341
-346
-346
-345
-340
-341
-343
-342
-342
-339
-338
-336
-334
-332
-332
-330
-328
-324
-321
-318
-314
-313
-312
-312
-313
-311
-307
-307
-305
-305
-307
-311
-310
-310
-313
-314
-310
-308
-312
-311
-312
-310
-312
-316
-317
-316
-315
-318
-319
-318
-318
-318
-319
-320
-321
-320
-319
-318
-317
-318
-318
-320
-320
-319
-318
-318
-318
-318
-320
-321
-318
-312
-310
-309
-310
-308
-307
-309
-306
-306
-306
-305
-307
-311
-313
-314
-314
-313
-312
-311
-310
-308
-309
-310
-310
-312
-311
-310
-311
-307
-306
-304
-307
-311
-312
-309
-306
-300
-296
-294
-292
-290
-287
-282
-275
-275
-277
-279
-279
-280
-285
-286
-287
-283
-289
-301
-311
-314
-319
-324
-321
-321
-322
-318
-314
-318
-324
-326
-330
-334
-337
-338
-337
-328
-310
-282
-250
-217
-183
-161
-151
-136
-118
-105
-103
-121
-154
-188
-221
-250
-273
-290
-305
-317
-328
-336
-343
-346
-349
-352
-354
-353
-355
-357
-354
-354
-354
-354
-359
-362
-360
-358
-360
-358
-355
-357
-359
-355
-354
-356
-355
-354
-354
-352
-352
-352
-354
-355
-355
-354
-352
-349
-348
-346
-348
-350
-350
-348
-347
-339
-334
-332
-330
-326
-324
-324
-323
-320
-320
-317
-312
-308
-310
-314
-313
-306
-305
-307
-312
-315
-316
-316
-314
-316
-317
-314
-314
-314
-318
-318
-316
-317
-314
-313
-316
-318
-319
-321
-318
-321
-322
-322
-324
-324
-323
-320
-320
-323
-324
-324
-325
-324
-324
-324
-321
-323
-324
-326
-331
-327
-324
-321
-319
-320
-320
-318
-318
-319
-319
-318
-318
-318
-320
-320
-319
-318
-316
-316
-320
-324
-321
-317
-317
-318
-315
-313
-313
-315
-318
-318
-316
-313
-310
-307
-305
-302
-300
-299
-296
-291
-287
-284
-284
-287
-288
-287
-286
-284
-287
-290
-299
-310
-313
-314
-318
-323
-321
-319
-320
-324
-324
-324
-327
-327
-324
-330
-336
-341
-339
-327
-306
-272
-234
-197
-172
-155
-139
-124
-106
-97
-100
-122
-158
-197
-234
-258
-275
-287
-299
-316
-327
-334
-337
-340
-344
-348
-354
-355
-351
-350
-351
-352
-351
-349
-351
-354
-352
-348
-345
-342
-338
-341
-348
-352
-352
-348
-348
-347
-346
-345
-346
-348
-349
-348
-345
-342
-343
-341
-335
-331
-330
-331
-335
-334
-333
-336
-334
-328
-324
-320
-318
-321
-320
-316
-314
-313
-309
-303
-303
-300
-300
-302
-303
-302
-301
-303
-306
-310
-312
-314
-311
-306
-306
-313
-315
-312
-307
-305
-305
-310
-316
-317
-317
-314
-311
-310
-311
-313
-314
-313
-312
-311
-312
-313
-312
-310
-309
-310
-313
-312
-307
-309
-311
-314
-313
-312
-309
-308
-314
-317
-312
-307
-301
-300
-300
-299
-300
-306
-307
-303
-305
-308
-307
-304
-304
-305
-307
-305
-306
-303
-303
-304
-309
-313
-312
-309
-307
-305
-305
-304
-301
-301
-300
-299
-296
-297
-300
-290
-286
-284
-286
-282
-280
-279
-279
-282
-288
-289
-290
-292
-297
-305
-312
-318
-320
-322
-324
-325
-324
-325
-326
-327
-330
-334
-341
-347
-352
-352
-345
-328
-302
-267
-231
-198
-178
-162
-142
-122
-106
-105
-131
-171
-205
-236
-262
-282
-300
-315
-328
-338
-344
-344
-346
-351
-361
-366
-366
-365
-364
-360
-354
-355
-359
-362
-365
-365
-366
-363
-361
-362
-362
-361
-360
-358
-361
-363
-365
-363
-364
-366
-368
-367
-366
-363
-362
-362
-365
-365
-367
-362
-357
-355
-358
-355
-354
-351
-348
-349
-347
-340
-335
-333
-336
-336
-334
-328
-324
-324
-321
-318
-313
-315
-318
-320
-319
-320
-321
-321
-321
-317
-313
-312
-314
-317
-318
-320
-320
-318
-318
-317
-316
-317
-321
-321
-318
-318
-319
-321
-320
-317
-314
-315
-318
-320
-323
-323
-320
-317
-313
-311
-313
-311
-307
-312
-314
-313
-311
-311
-309
-306
-303
-303
-306
-306
-302
-300
-306
-307
-307
-307
-307
-305
-300
-302
-303
-301
-299
-294
-290
-296
-296
-296
-296
-296
-290
-291
-290
-290
-289
-286
-281
-279
-280
-280
-277
-273
-269
-265
-262
-258
-258
-262
-262
-262
-263
-266
-271
-275
-281
-287
-292
-294
-297
-300
-300
-300
-300
-300
-302
-300
-300
-306
-311
-314
-316
-310
-299
-276
-248
-215
-183
-160
-144
-128
-107
-92
-87
-105
-141
-176
-209
-233
-254
-266
-276
-289
-306
-318
-324
-325
-327
-330
-333
-331
-334
-335
-334
-331
-330
-328
-331
-335
-335
-331
-332
-330
-328
-332
-337
-335
-332
-330
-333
-330
-330
-332
-334
-333
-333
-333
-331
-330
-330
-325
-327
-329
-330
-330
-330
-332
-330
-325
-325
-324
-321
-323
-324
-321
-317
-312
-310
-310
-310
-309
-306
-301
-299
-296
-300
-304
-307
-308
-307
-307
-307
-308
-312
-312
-310
-310
-311
-314
-314
-316
-314
-314
-313
-313
-316
-318
-321
-321
-318
-317
-317
-318
-321
-321
-320
-320
-321
-321
-322
-322
-318
-319
-320
-320
-321
-320
-320
-321
-321
-319
-319
-318
-318
-320
-318
-317
-317
-314
-311
-309
-306
-309
-311
-311
-310
-310
-306
-306
-306
-301
-300
-300
-302
-303
-302
-302
-300
-297
-294
-293
-293
-290
-290
-289
-287
-282
-280
-277
-272
-267
-259
-252
-248
-249
-252
-255
-258
-259
-259
-260
-262
-268
-275
-282
-286
-289
-293
-293
-293
-293
-290
-296
-296
-296
-299
-303
-306
-308
-306
-297
-279
-251
-218
-184
-155
-136
-121
-100
-83
-74
-85
-115
-151
-182
-209
-236
-257
-271
-286
-296
-306
-314
-322
-328
-330
-334
-337
-338
-338
-336
-339
-340
-340
-338
-336
-334
-335
-338
-339
-339
-341
-342
-340
-339
-337
-335
-332
-335
-338
-338
-341
-339
-341
-341
-341
-339
-340
-338
-336
-337
-341
-342
-343
-344
-343
-339
-337
-336
-334
-332
-332
-330
-326
-324
-324
-321
-318
-318
-316
-314
-311
-309
-307
-309
-311
-313
-314
-311
-312
-314
-315
-317
-320
-321
-319
-318
-320
-318
-319
-322
-324
-322
-323
-322
-324
-321
-318
-317
-317
-321
-324
-325
-324
-324
-324
-324
-324
-323
-324
-327
-330
-328
-328
-325
-324
-323
-320
-320
-320
-319
-320
-320
-318
-318
-320
-319
-318
-317
-313
-312
-312
-314
-314
-315
-319
-321
-318
-317
-316
-314
-312
-310
-310
-311
-312
-311
-312
-311
-312
-313
-312
-312
-312
-310
-310
-307
-306
-303
-303
-300
-290
-287
-285
-281
-280
-276
-279
-279
-279
-280
-284
-288
-296
-306
-312
-319
-321
-321
-320
-318
-318
-321
-321
-320
-320
-323
-328
-333
-332
-327
-313
-287
-254
-217
-187
-169
-156
-142
-120
-101
-96
-105
-138
-173
-203
-229
-252
-273
-287
-296
-307
-321
-333
-338
-342
-342
-342
-342
-344
-348
-348
-348
-348
-349
-348
-346
-345
-342
-342
-342
-341
-339
-338
-341
-344
-343
-345
-343
-341
-340
-343
-343
-344
-344
-342
-342
-342
-345
-345
-344
-345
-344
-342
-338
-337
-338
-339
-336
-332
-328
-324
-323
-320
-319
-313
-311
-310
-309
-310
-308
-306
-306
-306
-305
-305
-305
-306
-310
-312
-312
-311
-312
-312
-312
-312
-313
-313
-311
-309
-311
-311
-312
-313
-314
-317
-315
-315
-314
-312
-314
-319
-320
-318
-318
-318
-318
-320
-320
-317
-314
-315
-317
-319
-317
-317
-316
-314
-313
-316
-318
-314
-313
-318
-319
-316
-312
-310
-312
-314
-312
-311
-310
-312
-311
-312
-307
-309
-309
-307
-309
-309
-308
-306
-304
-305
-310
-311
-309
-306
-305
-306
-303
-300
-300
-300
-294
-290
-290
-289
-288
-286
-284
-279
-275
-273
-270
-271
-271
-274
-279
-283
-287
-293
-297
-303
-308
-312
-313
-314
-314
-315
-315
-312
-313
-317
-318
-324
-329
-327
-324
-324
-315
-290
-258
-223
-189
-160
-146
-133
-115
-98
-87
-89
-106
-142
-177
-207
-230
-251
-266
-282
-298
-314
-324
-332
-337
-338
-342
-345
-345
-345
-344
-344
-344
-346
-348
-348
-344
-345
-346
-344
-344
-344
-342
-341
-341
-344
-344
-345
-343
-340
-339
-341
-339
-338
-338
-337
-338
-338
-338
-337
-335
-334
-332
-330
-330
-330
-330
-330
-330
-327
-324
-321
-318
-316
-312
-310
-307
-305
-303
-302
-299
-293
-293
-296
-295
-295
-294
-293
-293
-296
-300
-304
-305
-306
-306
-306
-304
-302
-302
-303
-304
-306
-306
-303
-302
-302
-302
-303
-303
-305
-303
-300
-297
-297
-300
-306
-309
-310
-310
-312
-310
-309
-308
-307
-305
-305
-306
-308
-308
-306
-304
-304
-303
-302
-303
-302
-302
-300
-297
-293
-290
-296
-299
-300
-302
-303
-300
-300
-300
-300
-300
-300
-299
-300
-300
-300
-300
-299
-296
-298
-297
-296
-296
-297
-295
-293
-290
-288
-286
-280
-275
-274
-271
-270
-268
-266
-265
-265
-269
-272
-274
-277
-283
-286
-290
-293
-296
-302
-305
-306
-306
-304
-300
-300
-304
-306
-312
-321
-324
-324
-318
-307
-287
-256
-220
-187
-165
-151
-138
-120
-100
-83
-73
-79
-105
-145
-180
-212
-238
-259
-276
-287
-300
-311
-323
-328
-332
-335
-336
-338
-342
-342
-342
-340
-337
-337
-338
-338
-341
-340
-337
-337
-336
-335
-336
-340
-342
-341
-341
-338
-336
-337
-338
-338
-338
-338
-338
-340
-339
-338
-337
-336
-335
-333
-330
-332
-335
-333
-330
-326
-324
-323
-323
-320
-315
-311
-311
-308
-306
-304
-305
-302
-300
-299
-300
-299
-293
-290
-298
-304
-305
-307
-307
-306
-305
-306
-308
-312
-313
-313
-311
-311
-311
-310
-313
-316
-315
-317
-314
-317
-318
-317
-318
-318
-321
-321
-321
-324
-324
-324
-324
-324
-324
-321
-318
-320
-324
-325
-323
-319
-322
-324
-324
-320
-317
-316
-314
-314
-313
-314
-318
-318
-319
-316
-314
-314
-316
-314
-314
-314
-318
-320
-319
-318
-318
-318
-315
-313
-316
-316
-318
-318
-320
-318
-315
-312
-311
-311
-308
-307
-304
-296
-290
-286
-282
-284
-283
-285
-287
-289
-290
-293
-300
-307
-314
-318
-318
-320
-321
-318
-320
-324
-327
-330
-330
-330
-330
-330
-334
-341
-344
-342
-330
-310
-280
-246
-214
-186
-170
-160
-142
-124
-105
-97
-108
-141
-177
-208
-236
-258
-273
-287
-298
-313
-327
-337
-343
-346
-348
-348
-348
-350
-351
-351
-353
-356
-357
-355
-352
-352
-354
-354
-354
-354
-355
-354
-352
-354
-357
-357
-354
-354
-353
-352
-352
-354
-355
-355
-355
-355
-355
-355
-353
-352
-350
-351
-353
-351
-345
-343
-343
-340
-336
-337
-336
-333
-328
-323
-319
-320
-321
-322
-319
-319
-318
-318
-318
-318
-317
-316
-319
-320
-321
-320
-320
-323
-324
-322
-322
-324
-325
-327
-327
-326
-326
-327
-329
-330
-330
-328
-328
-328
-328
-328
-330
-332
-330
-331
-330
-331
-331
-333
-334
-334
-333
-331
-330
-330
-331
-330
-329
-330
-330
-329
-330
-328
-328
-328
-330
-328
-327
-327
-324
-325
-327
-324
-322
-325
-327
-327
-325
-326
-325
-328
-328
-328
-330
-329
-330
-328
-324
-322
-318
-318
-318
-318
-316
-313
-308
-306
-300
-296
-294
-298
-300
-305
-306
-308
-316
-320
-322
-324
-327
-335
-337
-338
-338
-336
-333
-330
-335
-340
-342
-345
-349
-354
-354
-348
-334
-314
-288
-252
-217
-186
-168
-155
-141
-121
-106
-103
-118
-155
-194
-222
-248
-272
-290
-310
-325
-341
-350
-353
-355
-360
-362
-364
-365
-366
-367
-366
-366
-364
-363
-364
-361
-359
-363
-366
-366
-364
-361
-358
-358
-358
-359
-360
-361
-360
-358
-359
-360
-361
-360
-360
-358
-354
-354
-354
-354
-354
-355
-353
-350
-347
-344
-341
-338
-336
-335
-337
-337
-336
-335
-331
-328
-326
-322
-324
-324
-324
-325
-326
-325
-324
-325
-327
-328
-328
-328
-330
-329
-328
-328
-333
-336
-337
-338
-336
-335
-331
-335
-337
-338
-334
-335
-335
-336
-333
-334
-334
-334
-330
-329
-335
-337
-336
-335
-334
-330
-330
-333
-332
-332
-330
-325
-325
-324
-323
-323
-322
-324
-324
-322
-320
-318
-321
-323
-322
-324
-324
-321
-321
-320
-321
-321
-320
-317
-316
-314
-316
-315
-316
-316
-313
-308
-311
-314
-312
-310
-307
-304
-300
-297
-295
-290
-285
-281
-279
-279
-282
-286
-289
-290
-294
-304
-309
-311
-312
-315
-318
-318
-318
-319
-320
-319
-319
-319
-320
-320
-324
-330
-336
-338
-337
-327
-311
-281
-245
-210
-181
-160
-142
-128
-111
-95
-87
-90
-115
-155
-189
-214
-235
-257
-276
-290
-312
-323
-330
-334
-342
-345
-346
-350
-351
-349
-350
-350
-354
-354
-354
-353
-352
-353
-354
-352
-352
-353
-352
-351
-354
-355
-355
-354
-359
-360
-360
-358
-355
-355
-354
-354
-354
-356
-354
-352
-354
-354
-354
-352
-348
-348
-348
-348
-346
-344
-342
-338
-334
-330
-328
-324
-324
-324
-322
-320
-318
-318
-318
-319
-320
-322
-324
-324
-323
-323
-323
-320
-321
-324
-328
-329
-328
-328
-328
-324
-324
-325
-325
-327
-330
-330
-329
-330
-332
-335
-333
-331
-330
-331
-332
-337
-337
-335
-333
-330
-330
-328
-326
-324
-325
-328
-330
-331
-330
-328
-326
-327
-330
-330
-330
-327
-325
-325
-325
-324
-323
-321
-320
-317
-317
-318
-322
-322
-324
-323
-321
-320
-320
-321
-318
-316
-313
-312
-310
-310
-307
-305
-300
-296
-294
-289
-285
-282
-281
-282
-283
-281
-283
-290
-299
-306
-311
-313
-311
-310
-313
-318
-319
-317
-317
-313
-313
-313
-315
-320
-325
-330
-328
-324
-318
-306
-282
-247
-208
-173
-146
-125
-111
-99
-87
-81
-87
-118
-152
-183
-213
-236
-254
-269
-286
-300
-313
-322
-328
-330
-330
-331
-338
-342
-337
-332
-333
-335
-335
-334
-333
-331
-334
-336
-340
-337
-334
-333
-332
-330
-334
-335
-334
-332
-330
-324
-327
-334
-334
-332
-332
-331
-330
-328
-324
-322
-324
-327
-325
-324
-324
-318
-315
-311
-309
-310
-307
-300
-298
-297
-296
-294
-294
-290
-293
-293
-293
-290
-293
-290
-289
-289
-290
-290
-290
-290
-292
-297
-300
-298
-297
-294
-293
-294
-296
-298
-303
-303
-303
-303
-303
-304
-306
-303
-300
-299
-297
-301
-306
-306
-305
-305
-304
-300
-300
-303
-307
-307
-305
-304
-300
-299
-300
-300
-303
-304
-302
-298
-299
-300
-300
-300
-297
-293
-295
-295
-290
-290
-295
-296
-296
-295
-296
-293
-289
-287
-287
-287
-286
-284
-288
-295
-297
-293
-284
-276
-271
-272
-279
-281
-278
-269
-262
-257
-251
-247
-254
-259
-261
-259
-261
-262
-265
-269
-275
-281
-283
-285
-287
-290
-296
-294
-296
-296
-297
-294
-294
-297
-299
-304
-306
-307
-300
-285
-257
-221
-184
-151
-126
-111
-91
-73
-53
-45
-56
-87
-133
-172
-202
-231
-254
-270
-286
-299
-310
-317
-323
-328
-335
-337
-337
-336
-335
-333
-332
-334
-340
-342
-341
-336
-335
-333
-330
-334
-342
-342
-337
-332
-334
-335
-337
-336
-337
-336
-335
-332
-332
-331
-334
-336
-336
-332
-331
-328
-327
-329
-328
-324
-324
-321
-318
-312
-309
-303
-297
-294
-290
-290
-290
-293
-290
-289
-286
-286
-287
-287
-289
-290
-292
-290
-290
-290
-297
-298
-300
-300
-295
-295
-299
-300
-301
-303
-303
-303
-303
-301
-303
-304
-304
-303
-305
-307
-309
-310
-307
-306
-306
-306
-307
-309
-311
-309
-306
-304
-306
-310
-307
-304
-303
-300
-301
-303
-305
-303
-301
-300
-300
-300
-300
-300
-302
-301
-300
-297
-295
-290
-290
-290
-292
-290
-290
-290
-289
-286
-289
-290
-290
-290
-290
-290
-293
-290
-290
-290
-295
-290
-287
-287
-281
-277
-276
-281
-279
-275
-272
-270
-263
-258
-256
-257
-260
-259
-259
-267
-272
-276
-282
-284
-288
-293
-300
-303
-305
-305
-306
-305
-303
-304
-306
-305
-310
-320
-325
-323
-312
-290
-265
-233
-199
-164
-141
-124
-106
-85
-69
-61
-73
-107
-153
-190
-223
-249
-269
-283
-298
-312
-321
-328
-333
-336
-337
-338
-341
-343
-345
-347
-347
-346
-341
-340
-341
-344
-348
-346
-346
-346
-344
-343
-342
-342
-342
-342
-343
-341
-342
-341
-344
-350
-348
-347
-343
-342
-341
-338
-337
-340
-340
-338
-337
-335
-332
-329
-328
-324
-321
-321
-319
-318
-316
-314
-312
-307
-304
-303
-304
-306
-309
-307
-307
-309
-310
-311
-313
-312
-313
-314
-318
-318
-320
-319
-317
-317
-320
-322
-324
-322
-320
-318
-318
-318
-318
-319
-318
-318
-324
-321
-320
-324
-324
-321
-324
-324
-324
-324
-323
-320
-320
-321
-319
-322
-324
-324
-323
-320
-318
-318
-319
-318
-318
-321
-321
-318
-320
-319
-316
-314
-314
-313
-312
-311
-313
-316
-318
-314
-313
-314
-313
-312
-314
-314
-317
-318
-318
-318
-315
-316
-315
-310
-306
-305
-304
-303
-306
-303
-300
-297
-296
-290
-282
-282
-286
-283
-280
-276
-279
-276
-279
-276
-279
-287
-296
-301
-305
-310
-312
-314
-317
-317
-313
-313
-318
-321
-324
-325
-327
-329
-330
-323
-306
-282
-250
-211
-178
-154
-135
-115
-93
-76
-79
-110
-150
-187
-217
-244
-266
-286
-299
-312
-324
-330
-336
-340
-342
-346
-348
-348
-348
-351
-354
-352
-351
-351
-348
-346
-346
-346
-348
-349
-354
-354
-354
-353
-350
-346
-343
-346
-351
-354
-356
-353
-351
-353
-354
-352
-348
-349
-351
-350
-352
-352
-352
-350
-348
-342
-340
-337
-335
-334
-330
-323
-321
-318
-318
-316
-314
-313
-310
-311
-313
-313
-317
-317
-315
-313
-311
-311
-313
-317
-313
-312
-316
-318
-318
-318
-320
-322
-324
-324
-322
-322
-322
-321
-321
-320
-320
-320
-321
-320
-321
-320
-318
-318
-319
-318
-320
-321
-323
-324
-323
-320
-318
-314
-316
-317
-317
-314
-315
-317
-312
-312
-316
-316
-311
-309
-310
-311
-313
-318
-318
-314
-312
-311
-313
-316
-318
-318
-321
-318
-313
-312
-312
-313
-314
-312
-314
-316
-315
-314
-311
-311
-310
-311
-316
-318
-318
-313
-310
-306
-303
-300
-300
-296
-293
-288
-280
-275
-273
-270
-271
-276
-279
-281
-286
-287
-288
-293
-303
-307
-309
-311
-312
-313
-313
-311
-307
-307
-312
-317
-321
-324
-327
-326
-321
-307
-288
-257
-222
-190
-165
-148
-130
-112
-95
-81
-79
-97
-137
-177
-209
-234
-252
-270
-288
-306
-320
-332
-336
-340
-344
-343
-341
-337
-341
-347
-350
-349
-348
-344
-341
-339
-344
-346
-346
-348
-351
-348
-348
-345
-344
-345
-344
-346
-343
-343
-342
-344
-346
-348
-346
-346
-348
-347
-347
-348
-348
-344
-341
-341
-341
-340
-341
-338
-337
-331
-325
-324
-324
-324
-324
-318
-314
-312
-316
-315
-313
-314
-313
-310
-310
-310
-312
-317
-316
-312
-316
-320
-324
-321
-322
-324
-324
-324
-323
-322
-327
-325
-328
-329
-330
-327
-325
-327
-324
-324
-326
-328
-328
-326
-324
-324
-327
-325
-322
-322
-324
-327
-328
-329
-328
-326
-324
-321
-324
-322
-323
-323
-319
-318
-320
-322
-324
-322
-318
-313
-312
-318
-321
-321
-320
-321
-322
-318
-318
-313
-312
-314
-313
-312
-314
-319
-320
-318
-318
-315
-314
-316
-319
-320
-318
-313
-312
-313
-311
-307
-304
-298
-293
-294
-290
-289
-282
-276
-276
-279
-280
-280
-278
-281
-289
-294
-302
-307
-307
-307
-310
-312
-313
-316
-317
-318
-320
-319
-319
-322
-325
-325
-323
-318
-310
-287
-251
-213
-176
-148
-131
-119
-107
-93
-83
-89
-112
-148
-179
-210
-237
-257
-270
-285
-300
-314
-327
-334
-337
-340
-342
-344
-348
-352
-353
-350
-348
-350
-351
-351
-350
-350
-349
-349
-348
-347
-344
-341
-342
-351
-354
-349
-350
-349
-353
-358
-355
-354
-354
-354
-354
-355
-354
-354
-353
-346
-346
-351
-351
-351
-350
-346
-346
-344
-344
-341
-340
-340
-336
-334
-330
-324
-321
-318
-318
-320
-319
-318
-325
-329
-330
-324
-321
-321
-324
-327
-328
-328
-330
-333
-333
-333
-331
-330
-325
-321
-326
-328
-328
-330
-335
-337
-335
-328
-327
-330
-333
-335
-335
-332
-331
-325
-323
-323
-327
-330
-335
-337
-337
-339
-337
-336
-331
-331
-328
-322
-326
-336
-337
-336
-335
-332
-334
-331
-330
-330
-324
-318
-321
-333
-337
-330
-332
-327
-323
-320
-315
-319
-326
-318
-324
-329
-327
-328
-323
-324
-334
-332
-321
-313
-319
-335
-327
-320
-321
-323
-321
-313
-300
-288
-277
-280
-307
-313
-301
-290
-284
-289
-288
-276
-283
-296
-300
-307
-323
-329
-326
-325
-328
-322
-318
-316
-309
-296
-293
-310
-336
-356
-361
-348
-336
-334
-328
-312
-284
-256
-227
-188
-156
-131
-112
-99
-92
-96
-87
-94
-129
-171
-203
-232
-257
-281
-297
-307
-317
-338
-348
-347
-343
-337
-337
-342
-350
-361
-366
-362
-359
-354
-350
-343
-346
-361
-364
-359
-350
-345
-350
-348
-350
-354
-359
-354
-350
-349
-350
-348
-355
-360
-361
-359
-357
-351
-357
-372
-374
-367
-358
-348
-341
-346
-351
-348
-342
-336
-330
-316
-312
-324
-335
-338
-328
-313
-314
-330
-333
-329
-326
-320
-314
-317
-320
-319
-328
-328
-321
-321
-328
-335
-333
-333
-335
-336
-331
-324
-323
-330
-334
-335
-334
-330
-327
-318
-313
-313
-327
-346
-347
-342
-342
-342
-337
-333
-328
-326
-326
-326
-321
-325
-334
-338
-337
-336
-333
-328
-324
-324
-325
-328
-332
-336
-332
-324
-321
-323
-327
-330
-336
-331
-325
-324
-324
-324
-319
-312
-303
-304
-323
-327
-323
-318
-316
-312
-306
-306
-310
-314
-313
-307
-300
-296
-299
-301
-299
-289
-283
-283
-287
-279
-272
-276
-282
-282
-280
-280
-279
-284
-290
-290
-293
-293
-290
-305
-325
-327
-320
-322
-321
-320
-323
-327
-330
-327
-324
-321
-328
-338
-340
-329
-320
-300
-268
-225
-190
-166
-154
-136
-115
-99
-89
-94
-122
-162
-194
-219
-247
-275
-290
-304
-314
-324
-332
-335
-335
-338
-344
-342
-338
-341
-344
-344
-348
-347
-345
-343
-347
-353
-355
-353
-348
-343
-342
-343
-345
-345
-344
-340
-338
-341
-348
-353
-353
-348
-346
-343
-339
-348
-358
-354
-346
-339
-335
-337
-337
-331
-328
-328
-325
-324
-320
-318
-314
-312
-317
-318
-318
-312
-306
-304
-306
-309
-308
-307
-307
-306
-306
-300
-300
-301
-302
-305
-311
-312
-311
-307
-310
-311
-306
-307
-314
-321
-324
-318
-316
-312
-312
-312
-312
-318
-323
-323
-318
-314
-313
-317
-324
-327
-324
-324
-324
-318
-314
-318
-323
-327
-327
-321
-318
-318
-318
-317
-314
-317
-321
-320
-316
-313
-318
-318
-313
-310
-314
-316
-319
-318
-314
-312
-307
-306
-307
-314
-315
-312
-310
-308
-305
-306
-312
-312
-313
-311
-306
-302
-297
-300
-308
-312
-309
-301
-297
-297
-296
-294
-290
-283
-276
-275
-279
-276
-271
-263
-260
-269
-272
-267
-269
-279
-286
-288
-290
-297
-300
-306
-311
-314
-316
-312
-307
-311
-316
-315
-312
-313
-318
-318
-324
-332
-338
-334
-317
-282
-243
-204
-176
-156
-140
-118
-98
-87
-83
-94
-132
-175
-207
-232
-254
-276
-297
-315
-328
-335
-337
-336
-339
-342
-344
-342
-347
-353
-355
-354
-354
-353
-352
-350
-348
-349
-351
-349
-348
-348
-346
-345
-342
-342
-343
-348
-350
-349
-348
-343
-339
-349
-358
-356
-348
-342
-344
-348
-352
-354
-347
-338
-337
-336
-341
-351
-357
-348
-336
-331
-337
-341
-332
-321
-311
-307
-314
-324
-324
-323
-321
-321
-324
-321
-316
-313
-317
-321
-324
-321
-314
-312
-324
-329
-327
-321
-324
-332
-328
-326
-332
-334
-334
-334
-326
-321
-324
-329
-327
-321
-326
-336
-338
-335
-332
-327
-323
-322
-314
-312
-322
-330
-334
-335
-335
-332
-328
-328
-330
-320
-313
-316
-326
-330
-327
-323
-326
-332
-328
-324
-324
-320
-311
-315
-324
-320
-314
-316
-317
-315
-320
-320
-314
-308
-307
-310
-310
-306
-303
-306
-312
-317
-316
-313
-306
-297
-297
-296
-297
-300
-299
-290
-287
-280
-276
-279
-279
-275
-270
-260
-257
-268
-289
-294
-290
-294
-292
-293
-300
-300
-300
-306
-312
-316
-314
-313
-313
-317
-318
-323
-329
-334
-330
-314
-293
-266
-228
-187
-152
-132
-122
-105
-91
-85
-94
-134
-168
-193
-227
-255
-279
-302
-313
-324
-334
-343
-349
-350
-348
-347
-345
-347
-342
-343
-358
-358
-352
-352
-344
-342
-347
-346
-342
-344
-342
-342
-348
-351
-348
-355
-358
-349
-347
-348
-351
-351
-346
-342
-344
-341
-339
-340
-340
-338
-345
-344
-345
-343
-334
-321
-312
-313
-323
-327
-321
-314
-311
-320
-320
-312
-306
-300
-300
-300
-300
-301
-306
-304
-300
-302
-306
-304
-299
-300
-313
-318
-306
-295
-306
-321
-321
-317
-324
-326
-323
-316
-313
-312
-311
-303
-307
-324
-328
-324
-319
-317
-310
-313
-324
-328
-324
-317
-312
-306
-305
-312
-324
-324
-320
-316
-313
-312
-311
-312
-313
-311
-309
-308
-305
-297
-297
-305
-309
-307
-305
-306
-310
-310
-313
-315
-312
-308
-303
-302
-307
-310
-309
-306
-301
-300
-300
-306
-307
-305
-303
-300
-295
-287
-279
-281
-290
-295
-295
-295
-289
-281
-280
-281
-276
-273
-269
-263
-261
-258
-258
-262
-265
-266
-269
-276
-288
-290
-298
-297
-298
-297
-296
-290
-290
-297
-311
-314
-312
-313
-312
-310
-306
-290
-263
-232
-195
-158
-136
-123
-105
-83
-64
-53
-65
-100
-138
-172
-201
-225
-247
-263
-279
-296
-308
-315
-318
-318
-318
-320
-328
-335
-338
-337
-334
-330
-327
-324
-329
-334
-342
-342
-340
-337
-334
-330
-320
-318
-330
-338
-341
-343
-342
-337
-332
-326
-321
-321
-324
-333
-338
-338
-336
-334
-330
-327
-324
-318
-314
-319
-324
-326
-324
-321
-318
-313
-308
-305
-297
-290
-289
-293
-297
-298
-298
-297
-293
-290
-290
-294
-300
-300
-300
-300
-299
-297
-298
-296
-294
-300
-304
-306
-307
-307
-306
-303
-303
-301
-299
-297
-303
-306
-306
-307
-306
-300
-296
-293
-300
-307
-312
-312
-310
-306
-303
-298
-297
-297
-298
-301
-303
-306
-309
-311
-307
-303
-302
-296
-290
-290
-293
-300
-306
-307
-300
-293
-285
-278
-275
-277
-276
-283
-290
-294
-300
-306
-310
-313
-317
-323
-330
-342
-355
-366
-375
-387
-394
-397
-401
-406
-409
-409
-413
-413
-412
-402
-387
-373
-365
-360
-350
-333
-311
-292
-278
-273
-273
-277
-279
-276
-276
-272
-269
-268
-266
-264
-257
-253
-262
-265
-260
-256
-252
-249
-248
-242
-241
-239
-234
-228
-221
-216
-213
-209
-204
-200
-195
-192
-192
-190
-190
-187
-184
-185
-185
-185
-184
-186
-191
-199
-200
-199
-199
-204
-211
-218
-221
-227
-232
-233
-234
-241
-262
-275
-279
-281
-281
-281
-285
-287
-290
-290
-291
-290
-300
-310
-318
-319
-318
-319
-321
-324
-321
-318
-319
-323
-320
-318
-323
-324
-328
-327
-327
-327
-327
-326
-324
-327
-327
-323
-318
-319
-327
-331
-331
-327
-324
-322
-324
-325
-325
-321
-318
-320
-324
-321
-321
-320
-320
-318
-317
-316
-314
-318
-318
-318
-316
-312
-310
-311
-312
-313
-312
-313
-311
-308
-312
-313
-314
-314
-316
-318
-321
-323
-320
-318
-318
-314
-314
-313
-311
-315
-320
-324
-324
-321
-318
-316
-314
-318
-319
-318
-319
-322
-324
-322
-319
-315
-314
-313
-314
-314
-314
-317
-318
-321
-320
-323
-318
-316
-314
-312
-311
-314
-318
-321
-318
-314
-310
-309
-317
-321
-319
-313
-310
-305
-300
-300
-297
-295
-295
-290
-286
-283
-279
-275
-276
-279
-282
-286
-287
-290
-298
-305
-311
-313
-313
-311
-313
-317
-323
-324
-324
-321
-324
-327
-330
-333
-335
-331
-320
-296
-265
-228
-196
-170
-156
-142
-122
-102
-91
-83
-90
-120
-159
-190
-215
-236
-258
-282
-307
-322
-332
-342
-351
-351
-350
-351
-352
-353
-357
-357
-357
-354
-351
-354
-357
-360
-365
-366
-362
-361
-361
-362
-360
-359
-357
-353
-348
-348
-355
-357
-355
-357
-357
-358
-360
-359
-358
-356
-354
-352
-350
-348
-348
-348
-348
-349
-348
-343
-342
-342
-338
-336
-332
-330
-324
-321
-319
-314
-307
-307
-312
-313
-313
-309
-306
-310
-314
-318
-319
-318
-318
-318
-317
-317
-318
-316
-313
-314
-320
-321
-320
-320
-320
-321
-321
-322
-324
-327
-328
-325
-323
-319
-319
-318
-324
-331
-331
-325
-324
-324
-327
-335
-341
-339
-333
-327
-324
-324
-327
-328
-324
-317
-317
-322
-324
-320
-320
-318
-320
-320
-318
-317
-318
-320
-318
-311
-307
-308
-314
-323
-324
-323
-323
-321
-319
-318
-318
-320
-318
-313
-307
-302
-299
-296
-293
-290
-287
-282
-279
-273
-271
-276
-282
-286
-289
-290
-294
-304
-306
-307
-307
-311
-318
-321
-321
-324
-324
-318
-318
-320
-327
-334
-341
-341
-336
-330
-317
-294
-269
-232
-198
-172
-154
-141
-122
-104
-87
-85
-102
-135
-172
-202
-227
-255
-278
-293
-306
-320
-327
-334
-341
-342
-344
-344
-344
-343
-345
-348
-348
-348
-352
-351
-350
-347
-346
-346
-344
-344
-348
-351
-354
-354
-353
-348
-347
-348
-348
-348
-350
-348
-348
-348
-347
-348
-351
-347
-341
-342
-350
-348
-347
-344
-341
-337
-335
-333
-328
-328
-326
-320
-318
-316
-312
-310
-310
-313
-313
-311
-311
-311
-314
-315
-317
-316
-313
-313
-310
-308
-312
-315
-317
-314
-317
-320
-321
-319
-316
-316
-320
-321
-321
-324
-327
-326
-323
-319
-317
-316
-318
-325
-327
-322
-319
-318
-316
-317
-321
-322
-324
-327
-326
-324
-323
-318
-313
-317
-324
-324
-323
-318
-316
-311
-306
-313
-323
-323
-324
-319
-314
-317
-319
-320
-318
-314
-314
-314
-313
-312
-311
-308
-307
-306
-310
-316
-313
-310
-307
-305
-303
-300
-298
-295
-287
-281
-275
-274
-271
-269
-272
-275
-275
-275
-276
-286
-295
-300
-304
-305
-305
-308
-316
-318
-318
-317
-319
-321
-323
-324
-326
-325
-328
-329
-330
-327
-324
-306
-279
-241
-201
-166
-142
-126
-117
-106
-97
-90
-105
-138
-174
-205
-235
-259
-279
-290
-306
-319
-327
-334
-337
-340
-348
-352
-352
-350
-352
-351
-350
-349
-352
-354
-355
-357
-357
-354
-354
-350
-351
-355
-355
-352
-348
-342
-344
-348
-352
-352
-351
-354
-354
-349
-346
-345
-343
-344
-344
-342
-341
-336
-331
-336
-335
-332
-328
-327
-328
-328
-323
-317
-314
-314
-310
-307
-303
-300
-305
-313
-318
-316
-311
-307
-310
-312
-311
-310
-312
-311
-311
-312
-315
-318
-318
-319
-320
-318
-317
-315
-320
-324
-328
-326
-324
-323
-317
-317
-322
-328
-330
-330
-328
-327
-324
-322
-328
-330
-330
-330
-329
-330
-330
-330
-330
-325
-321
-318
-318
-320
-324
-326
-326
-324
-319
-319
-315
-311
-318
-324
-326
-321
-319
-317
-313
-310
-306
-307
-311
-312
-312
-312
-312
-313
-314
-312
-310
-310
-311
-312
-308
-305
-300
-290
-280
-279
-282
-281
-281
-280
-282
-284
-287
-290
-296
-300
-307
-315
-320
-318
-320
-324
-324
-325
-325
-330
-338
-338
-336
-337
-341
-343
-344
-344
-342
-334
-318
-293
-260
-220
-184
-160
-146
-130
-112
-98
-100
-122
-156
-191
-221
-242
-262
-276
-299
-324
-343
-354
-358
-358
-358
-358
-360
-364
-369
-371
-369
-367
-364
-364
-366
-369
-369
-370
-372
-370
-366
-361
-361
-366
-368
-366
-366
-369
-365
-361
-361
-358
-360
-362
-366
-369
-366
-361
-360
-359
-357
-355
-355
-352
-351
-351
-348
-342
-337
-332
-328
-326
-329
-334
-331
-326
-321
-321
-324
-323
-320
-320
-319
-318
-320
-320
-318
-318
-321
-324
-324
-328
-331
-330
-328
-324
-323
-328
-334
-332
-330
-327
-327
-328
-330
-326
-321
-321
-324
-330
-330
-330
-328
-326
-324
-326
-330
-329
-328
-326
-326
-324
-323
-323
-320
-320
-324
-327
-327
-324
-323
-321
-319
-317
-313
-312
-317
-318
-317
-314
-310
-310
-316
-321
-318
-312
-310
-309
-312
-313
-311
-307
-309
-309
-309
-306
-307
-307
-307
-307
-306
-308
-313
-312
-303
-300
-296
-291
-286
-287
-290
-287
-280
-275
-275
-273
-272
-274
-276
-283
-293
-300
-306
-309
-309
-311
-312
-313
-315
-317
-318
-321
-321
-320
-320
-322
-324
-327
-335
-340
-333
-312
-284
-248
-211
-179
-158
-146
-129
-107
-90
-73
-75
-109
-155
-194
-228
-251
-269
-281
-295
-313
-324
-329
-342
-351
-352
-352
-347
-342
-344
-346
-348
-352
-354
-353
-354
-353
-352
-351
-348
-351
-351
-346
-347
-352
-354
-350
-348
-351
-350
-348
-347
-349
-351
-349
-352
-353
-352
-346
-343
-337
-337
-342
-344
-348
-342
-335
-328
-327
-330
-331
-327
-320
-317
-313
-312
-310
-310
-309
-309
-310
-307
-308
-310
-310
-310
-310
-312
-312
-316
-320
-320
-318
-314
-311
-311
-311
-314
-316
-318
-318
-321
-320
-321
-320
-320
-320
-318
-318
-323
-327
-326
-324
-321
-321
-321
-320
-320
-321
-319
-315
-317
-320
-322
-323
-324
-324
-321
-319
-316
-317
-316
-316
-317
-314
-310
-308
-310
-310
-309
-311
-314
-314
-311
-311
-306
-301
-303
-305
-306
-307
-309
-306
-306
-308
-306
-305
-303
-300
-300
-303
-306
-304
-300
-300
-300
-297
-300
-300
-297
-293
-289
-286
-282
-276
-276
-279
-279
-276
-269
-262
-255
-252
-256
-266
-273
-277
-281
-285
-289
-290
-296
-299
-300
-304
-306
-305
-305
-310
-313
-313
-311
-314
-316
-317
-320
-324
-327
-320
-301
-272
-234
-194
-163
-143
-127
-103
-85
-74
-80
-112
-156
-193
-225
-252
-271
-287
-303
-317
-330
-335
-339
-342
-346
-346
-346
-348
-351
-352
-351
-346
-345
-351
-355
-354
-354
-350
-349
-350
-351
-352
-351
-348
-345
-348
-355
-359
-358
-354
-354
-352
-348
-350
-354
-354
-354
-349
-348
-347
-345
-348
-350
-348
-348
-345
-344
-341
-338
-340
-339
-334
-331
-325
-323
-320
-320
-317
-316
-318
-318
-316
-311
-312
-314
-318
-321
-320
-318
-318
-317
-312
-314
-317
-315
-311
-311
-311
-313
-318
-320
-320
-320
-320
-324
-325
-328
-324
-321
-318
-319
-322
-321
-320
-319
-318
-314
-313
-317
-317
-314
-318
-317
-316
-316
-317
-316
-312
-310
-307
-308
-311
-312
-310
-306
-304
-304
-303
-305
-306
-307
-307
-307
-307
-305
-306
-307
-306
-306
-303
-303
-304
-302
-298
-299
-297
-296
-294
-300
-305
-306
-307
-309
-308
-303
-300
-300
-301
-299
-297
-294
-290
-289
-285
-280
-276
-272
-269
-269
-269
-272
-276
-281
-282
-285
-290
-296
-303
-307
-307
-308
-311
-311
-311
-315
-318
-318
-318
-320
-321
-324
-332
-334
-330
-318
-293
-257
-220
-186
-159
-141
-124
-108
-92
-87
-107
-145
-179
-208
-234
-257
-273
-290
-309
-320
-328
-334
-337
-337
-338
-345
-351
-351
-348
-348
-348
-345
-343
-346
-350
-351
-349
-346
-346
-344
-341
-341
-341
-340
-341
-341
-342
-343
-339
-341
-341
-338
-341
-344
-347
-344
-341
-338
-336
-330
-325
-330
-336
-337
-334
-330
-324
-321
-318
-318
-318
-315
-311
-307
-306
-304
-304
-306
-305
-303
-302
-300
-295
-296
-300
-306
-310
-309
-309
-308
-307
-307
-312
-312
-310
-310
-312
-313
-313
-311
-311
-311
-308
-310
-313
-318
-318
-320
-318
-318
-315
-314
-317
-319
-320
-318
-316
-318
-320
-321
-321
-321
-321
-318
-316
-311
-309
-312
-312
-312
-312
-313
-315
-319
-318
-316
-311
-309
-311
-313
-311
-311
-314
-316
-316
-317
-312
-309
-307
-306
-306
-303
-304
-310
-312
-308
-307
-307
-307
-307
-307
-306
-304
-307
-310
-309
-306
-304
-304
-306
-306
-306
-299
-290
-289
-290
-290
-286
-282
-279
-273
-269
-265
-263
-269
-281
-288
-290
-290
-293
-297
-304
-308
-311
-313
-318
-316
-316
-316
-317
-318
-321
-325
-334
-333
-327
-317
-300
-271
-230
-188
-163
-149
-135
-112
-91
-75
-68
-85
-120
-160
-190
-218
-243
-263
-278
-287
-298
-307
-318
-325
-333
-335
-340
-340
-337
-333
-335
-337
-342
-345
-344
-342
-338
-336
-336
-337
-338
-340
-340
-338
-337
-337
-340
-337
-337
-338
-339
-339
-337
-337
-341
-339
-338
-341
-341
-338
-335
-336
-337
-336
-334
-332
-330
-325
-321
-316
-313
-312
-314
-313
-311
-310
-306
-304
-302
-300
-300
-300
-301
-302
-300
-299
-298
-300
-303
-304
-303
-302
-303
-306
-306
-308
-312
-314
-314
-313
-311
-312
-312
-313
-312
-312
-311
-309
-310
-312
-313
-315
-311
-308
-312
-316
-318
-315
-316
-317
-317
-315
-313
-311
-311
-312
-309
-306
-307
-310
-310
-311
-314
-314
-313
-310
-307
-307
-313
-317
-318
-314
-310
-310
-312
-311
-314
-314
-313
-312
-311
-312
-312
-309
-306
-309
-316
-318
-318
-314
-311
-308
-312
-311
-306
-306
-306
-304
-304
-301
-300
-300
-303
-302
-300
-297
-293
-289
-284
-279
-275
-273
-269
-269
-269
-268
-272
-275
-275
-280
-290
-299
-303
-303
-307
-313
-312
-312
-316
-315
-314
-317
-317
-318
-318
-321
-324
-324
-322
-316
-300
-277
-247
-213
-180
-155
-142
-128
-109
-92
-74
-69
-82
-118
-156
-188
-217
-245
-263
-276
-289
-306
-318
-325
-333
-336
-339
-344
-347
-346
-346
-346
-346
-348
-344
-342
-341
-342
-345
-347
-345
-342
-343
-342
-341
-346
-351
-348
-348
-348
-344
-340
-337
-338
-342
-342
-343
-344
-343
-340
-337
-336
-337
-337
-336
-334
-334
-331
-329
-324
-318
-317
-314
-312
-310
-308
-307
-306
-303
-302
-305
-306
-310
-312
-310
-305
-303
-306
-306
-306
-306
-308
-313
-312
-311
-315
-318
-311
-307
-312
-317
-321
-324
-319
-313
-316
-318
-322
-319
-315
-314
-315
-321
-325
-325
-320
-318
-318
-318
-317
-313
-311
-313
-319
-321
-317
-313
-313
-312
-310
-312
-313
-312
-310
-311
-310
-307
-312
-318
-317
-312
-309
-312
-314
-313
-311
-313
-314
-312
-306
-306
-307
-310
-312
-313
-316
-318
-315
-312
-314
-315
-318
-318
-316
-316
-316
-316
-314
-313
-312
-312
-314
-314
-314
-313
-311
-309
-306
-311
-313
-311
-306
-300
-302
-302
-296
-293
-290
-285
-276
-275
-275
-277
-279
-283
-287
-285
-284
-290
-300
-305
-309
-313
-317
-320
-324
-325
-321
-318
-320
-324
-326
-324
-320
-320
-324
-335
-341
-338
-331
-308
-274
-234
-197
-174
-162
-145
-122
-101
-81
-73
-84
-121
-159
-193
-225
-254
-273
-290
-303
-318
-330
-340
-342
-343
-346
-347
-346
-350
-351
-351
-349
-348
-349
-351
-355
-360
-358
-355
-351
-349
-352
-351
-349
-351
-351
-350
-350
-351
-352
-353
-355
-354
-352
-352
-354
-353
-348
-348
-345
-342
-341
-342
-342
-340
-338
-342
-344
-343
-337
-330
-325
-320
-320
-324
-321
-317
-314
-314
-311
-307
-306
-306
-312
-316
-318
-314
-312
-312
-313
-316
-314
-318
-320
-320
-322
-319
-317
-317
-317
-321
-321
-318
-320
-324
-327
-327
-326
-324
-318
-318
-318
-319
-324
-328
-335
-337
-336
-331
-327
-327
-330
-330
-330
-327
-324
-323
-321
-322
-324
-328
-328
-327
-325
-323
-318
-318
-321
-324
-328
-327
-321
-318
-318
-321
-322
-324
-320
-320
-320
-324
-324
-321
-318
-324
-330
-330
-324
-320
-317
-316
-317
-320
-318
-313
-313
-318
-315
-312
-310
-313
-315
-313
-311
-310
-310
-310
-307
-300
-295
-295
-294
-296
-290
-288
-281
-273
-270
-271
-270
-269
-269
-274
-279
-283
-286
-288
-290
-303
-306
-306
-310
-312
-311
-313
-317
-318
-318
-320
-320
-315
-318
-332
-334
-330
-318
-295
-263
-224
-187
-161
-144
-126
-106
-85
-73
-87
-128
-169
-203
-232
-253
-270
-284
-300
-314
-323
-327
-331
-336
-340
-341
-341
-345
-346
-342
-342
-343
-342
-338
-337
-339
-338
-334
-337
-342
-343
-339
-337
-337
-341
-339
-337
-335
-337
-342
-345
-341
-337
-334
-331
-335
-340
-338
-336
-336
-333
-332
-336
-340
-338
-330
-324
-322
-324
-323
-320
-317
-313
-310
-310
-307
-303
-303
-300
-297
-302
-305
-303
-297
-294
-293
-290
-290
-297
-302
-303
-300
-300
-303
-306
-305
-304
-303
-306
-309
-309
-310
-310
-310
-309
-310
-310
-308
-314
-318
-321
-321
-321
-317
-313
-312
-311
-313
-318
-320
-320
-321
-321
-318
-317
-315
-317
-317
-318
-318
-318
-318
-318
-317
-318
-318
-319
-318
-319
-320
-318
-313
-312
-313
-315
-320
-324
-322
-326
-324
-318
-314
-312
-311
-310
-312
-314
-313
-314
-311
-308
-310
-311
-311
-309
-307
-307
-310
-314
-316
-313
-314
-313
-306
-307
-310
-309
-305
-303
-302
-303
-303
-296
-289
-287
-286
-284
-281
-279
-281
-283
-280
-280
-287
-296
-303
-307
-313
-318
-323
-324
-325
-327
-328
-331
-335
-337
-336
-333
-336
-344
-349
-346
-330
-300
-266
-233
-206
-183
-161
-142
-124
-107
-94
-93
-112
-149
-185
-216
-245
-266
-281
-297
-313
-328
-342
-348
-350
-358
-365
-365
-365
-365
-361
-364
-368
-367
-364
-361
-360
-360
-366
-365
-361
-360
-362
-367
-368
-369
-366
-367
-368
-368
-362
-359
-357
-360
-364
-366
-363
-360
-360
-361
-361
-362
-360
-357
-356
-355
-352
-349
-352
-352
-346
-340
-337
-337
-336
-331
-324
-323
-319
-322
-325
-324
-324
-323
-321
-318
-314
-316
-315
-316
-318
-317
-313
-313
-318
-320
-320
-319
-318
-320
-323
-326
-324
-320
-319
-321
-318
-319
-324
-324
-320
-319
-320
-321
-321
-320
-321
-321
-319
-318
-315
-314
-317
-320
-324
-326
-323
-320
-319
-320
-319
-318
-315
-313
-316
-319
-320
-321
-318
-314
-312
-314
-318
-318
-321
-320
-319
-318
-316
-320
-322
-320
-318
-315
-316
-319
-318
-319
-318
-316
-313
-312
-318
-320
-319
-317
-314
-311
-309
-311
-317
-318
-313
-306
-303
-303
-303
-302
-298
-290
-286
-287
-285
-280
-282
-287
-292
-290
-293
-300
-309
-314
-317
-318
-320
-323
-320
-323
-326
-331
-330
-324
-326
-334
-337
-341
-342
-342
-334
-317
-291
-258
-225
-192
-169
-148
-128
-111
-93
-78
-76
-100
-137
-170
-200
-231
-261
-284
-296
-306
-321
-336
-344
-344
-346
-351
-348
-351
-358
-360
-358
-354
-353
-354
-355
-357
-354
-354
-354
-355
-355
-354
-349
-348
-350
-350
-348
-348
-351
-351
-352
-355
-355
-354
-348
-347
-346
-344
-348
-348
-348
-348
-348
-348
-345
-343
-339
-335
-333
-335
-336
-334
-328
-324
-324
-321
-314
-311
-311
-310
-307
-306
-305
-305
-307
-312
-311
-313
-311
-306
-306
-312
-316
-318
-317
-313
-311
-314
-317
-317
-314
-316
-317
-313
-311
-313
-317
-320
-321
-318
-313
-310
-316
-320
-319
-320
-321
-320
-319
-317
-318
-319
-320
-318
-316
-317
-318
-320
-321
-321
-318
-314
-309
-312
-318
-320
-318
-313
-307
-306
-307
-313
-314
-310
-307
-307
-312
-314
-312
-308
-307
-306
-309
-310
-309
-306
-304
-307
-309
-306
-301
-302
-304
-306
-311
-309
-303
-302
-301
-301
-305
-303
-296
-290
-290
-290
-285
-279
-273
-272
-273
-272
-273
-273
-270
-270
-274
-278
-280
-288
-293
-298
-300
-306
-309
-307
-305
-309
-306
-307
-313
-314
-313
-313
-318
-323
-324
-327
-327
-318
-300
-271
-235
-197
-163
-142
-129
-115
-94
-76
-66
-72
-99
-139
-172
-201
-229
-258
-274
-284
-297
-307
-318
-330
-338
-341
-340
-339
-341
-341
-340
-342
-341
-341
-341
-339
-338
-341
-342
-346
-344
-341
-340
-343
-342
-345
-346
-345
-341
-339
-337
-340
-340
-339
-337
-335
-336
-336
-342
-350
-352
-350
-350
-345
-342
-342
-340
-335
-331
-330
-328
-326
-322
-318
-318
-314
-311
-310
-304
-302
-303
-304
-307
-312
-311
-307
-306
-310
-315
-318
-312
-311
-313
-317
-318
-316
-313
-312
-314
-317
-315
-314
-311
-310
-314
-319
-323
-319
-317
-318
-318
-318
-317
-318
-318
-316
-317
-321
-320
-318
-319
-319
-318
-317
-316
-317
-315
-318
-318
-318
-317
-314
-313
-313
-315
-317
-316
-315
-317
-314
-311
-312
-312
-310
-308
-309
-309
-312
-310
-307
-306
-306
-307
-310
-307
-309
-308
-308
-311
-311
-310
-306
-300
-300
-300
-300
-298
-297
-296
-290
-289
-288
-289
-285
-275
-267
-263
-265
-271
-272
-271
-272
-271
-275
-286
-298
-304
-305
-305
-307
-307
-306
-307
-310
-309
-306
-310
-313
-311
-313
-319
-319
-318
-316
-306
-288
-258
-222
-184
-159
-138
-121
-101
-87
-75
-75
-93
-129
-166
-197
-225
-248
-269
-286
-300
-317
-324
-328
-330
-330
-336
-343
-346
-344
-342
-341
-341
-342
-342
-341
-341
-341
-342
-341
-337
-337
-338
-336
-337
-341
-339
-342
-341
-338
-336
-337
-336
-335
-337
-338
-334
-331
-332
-337
-342
-338
-335
-330
-328
-328
-327
-324
-318
-317
-318
-324
-318
-312
-307
-306
-305
-310
-310
-312
-306
-305
-304
-302
-297
-296
-302
-308
-309
-305
-305
-312
-317
-320
-314
-312
-313
-317
-314
-314
-316
-314
-312
-313
-315
-318
-321
-323
-324
-321
-320
-320
-321
-321
-319
-320
-319
-321
-323
-324
-324
-324
-324
-323
-322
-322
-321
-321
-322
-323
-321
-318
-318
-319
-320
-319
-315
-313
-310
-314
-318
-319
-319
-314
-311
-310
-310
-316
-318
-319
-315
-310
-311
-310
-305
-305
-311
-318
-318
-314
-313
-311
-309
-309
-307
-311
-311
-306
-304
-300
-294
-290
-290
-287
-280
-277
-280
-279
-276
-276
-281
-287
-289
-289
-293
-303
-311
-313
-315
-316
-314
-314
-320
-321
-319
-318
-319
-320
-321
-329
-336
-338
-331
-319
-303
-277
-241
-203
-171
-146
-133
-114
-93
-76
-71
-91
-128
-166
-203
-235
-259
-276
-290
-310
-322
-327
-330
-336
-342
-345
-346
-342
-341
-342
-344
-345
-348
-348
-348
-344
-338
-341
-344
-348
-349
-348
-344
-344
-342
-344
-343
-342
-346
-348
-348
-349
-351
-348
-347
-344
-342
-342
-342
-342
-346
-344
-342
-340
-337
-334
-333
-333
-330
-324
-318
-321
-324
-321
-319
-317
-312
-306
-305
-309
-309
-311
-312
-310
-308
-306
-307
-313
-312
-313
-317
-319
-318
-317
-316
-317
-318
-320
-320
-321
-324
-327
-323
-323
-324
-323
-320
-323
-324
-321
-324
-327
-326
-324
-323
-327
-330
-328
-326
-326
-325
-328
-328
-326
-324
-325
-327
-328
-327
-324
-324
-321
-318
-320
-325
-325
-327
-329
-328
-328
-329
-328
-327
-325
-321
-317
-318
-321
-322
-323
-320
-319
-318
-320
-322
-326
-326
-320
-321
-326
-325
-324
-323
-320
-317
-312
-311
-311
-308
-306
-309
-311
-309
-303
-297
-287
-281
-283
-287
-290
-289
-288
-290
-297
-300
-302
-306
-317
-324
-324
-321
-320
-323
-325
-328
-328
-324
-323
-324
-327
-330
-338
-341
-333
-309
-275
-233
-190
-161
-144
-125
-105
-87
-81
-99
-135
-176
-212
-236
-258
-280
-299
-313
-323
-329
-337
-342
-345
-344
-347
-348
-342
-341
-342
-345
-346
-348
-348
-342
-341
-341
-344
-347
-346
-346
-345
-342
-344
-346
-342
-336
-336
-337
-338
-342
-341
-337
-335
-335
-335
-340
-338
-336
-333
-330
-332
-331
-324
-320
-320
-319
-317
-312
-306
-298
-299
-306
-306
-303
-300
-297
-293
-290
-296
-297
-294
-290
-292
-290
-293
-293
-290
-294
-302
-307
-306
-305
-310
-307
-305
-306
-310
-309
-310
-309
-310
-307
-310
-310
-313
-314
-313
-312
-311
-312
-313
-313
-311
-309
-312
-312
-310
-307
-306
-309
-313
-314
-313
-311
-309
-311
-312
-311
-309
-307
-306
-307
-306
-305
-303
-306
-308
-309
-307
-307
-306
-302
-306
-314
-318
-317
-313
-311
-311
-310
-311
-310
-306
-305
-302
-306
-310
-311
-310
-307
-306
-311
-313
-312
-311
-312
-312
-311
-306
-300
-296
-291
-285
-281
-286
-286
-281
-276
-273
-272
-270
-275
-285
-289
-293
-299
-305
-307
-307
-309
-312
-318
-319
-321
-319
-314
-310
-312
-325
-334
-338
-337
-328
-311
-281
-243
-204
-176
-154
-142
-124
-101
-84
-70
-68
-93
-134
-171
-203
-229
-251
-275
-293
-306
-320
-324
-324
-330
-335
-336
-339
-341
-338
-338
-342
-343
-341
-338
-340
-342
-344
-345
-344
-347
-344
-340
-343
-346
-344
-342
-341
-341
-338
-341
-347
-348
-348
-345
-343
-342
-342
-346
-349
-348
-345
-343
-340
-336
-334
-336
-332
-331
-325
-324
-327
-325
-324
-320
-318
-311
-306
-306
-311
-312
-311
-308
-312
-311
-310
-308
-306
-303
-306
-313
-317
-318
-317
-317
-315
-312
-309
-307
-313
-320
-319
-319
-321
-324
-324
-322
-318
-316
-317
-323
-326
-324
-321
-319
-315
-312
-314
-319
-328
-330
-328
-324
-324
-321
-318
-313
-311
-310
-312
-320
-326
-323
-317
-311
-311
-316
-323
-324
-318
-317
-317
-312
-306
-306
-311
-314
-314
-317
-315
-313
-312
-311
-310
-312
-313
-311
-312
-312
-310
-307
-306
-305
-306
-306
-304
-302
-304
-307
-310
-308
-303
-296
-300
-302
-298
-293
-288
-287
-282
-275
-269
-266
-268
-272
-275
-277
-279
-286
-296
-302
-306
-311
-312
-312
-313
-318
-318
-313
-316
-318
-318
-318
-321
-324
-330
-327
-318
-300
-275
-241
-204
-176
-158
-139
-119
-99
-77
-63
-64
-91
-135
-170
-202
-231
-255
-270
-281
-294
-309
-319
-324
-328
-330
-335
-342
-342
-344
-346
-348
-348
-348
-345
-345
-346
-348
-344
-343
-346
-348
-344
-341
-337
-336
-339
-342
-348
-348
-347
-344
-346
-347
-345
-342
-346
-348
-347
-343
-341
-343
-347
-344
-339
-336
-338
-337
-334
-334
-333
-330
-327
-321
-317
-317
-314
-313
-310
-307
-305
-306
-307
-311
-311
-307
-307
-311
-313
-313
-314
-313
-314
-313
-315
-320
-322
-320
-318
-319
-323
-324
-322
-324
-325
-327
-327
-326
-324
-324
-324
-324
-322
-321
-324
-329
-330
-331
-334
-330
-324
-326
-327
-328
-324
-324
-322
-325
-327
-324
-323
-318
-314
-317
-320
-321
-318
-317
-319
-324
-322
-318
-317
-313
-312
-314
-317
-316
-313
-314
-315
-316
-313
-313
-316
-318
-318
-313
-311
-312
-311
-310
-314
-313
-311
-307
-304
-304
-306
-306
-302
-302
-296
-290
-288
-282
-275
-273
-275
-279
-279
-279
-281
-286
-290
-300
-305
-305
-306
-314
-318
-317
-317
-318
-318
-313
-311
-309
-316
-324
-332
-330
-326
-324
-313
-293
-265
-228
-190
-159
-136
-121
-105
-86
-70
-64
-66
-87
-122
-160
-196
-223
-241
-258
-283
-304
-314
-320
-324
-330
-330
-332
-335
-339
-339
-336
-336
-340
-343
-344
-342
-342
-339
-338
-338
-338
-337
-341
-340
-341
-342
-343
-343
-341
-340
-340
-341
-344
-344
-341
-335
-334
-341
-344
-344
-343
-340
-333
-328
-332
-338
-334
-328
-324
-318
-314
-315
-318
-318
-312
-307
-306
-301
-300
-305
-303
-300
-300
-302
-306
-307
-307
-310
-312
-310
-308
-308
-310
-310
-308
-306
-312
-321
-321
-319
-317
-318
-320
-321
-320
-315
-313
-316
-318
-318
-316
-317
-318
-319
-317
-313
-311
-314
-318
-323
-321
-321
-318
-313
-310
-306
-314
-320
-317
-312
-311
-312
-317
-316
-314
-312
-312
-310
-310
-310
-310
-308
-306
-306
-309
-310
-310
-310
-309
-306
-306
-302
-300
-300
-300
-301
-302
-302
-300
-301
-300
-297
-293
-290
-292
-300
-304
-300
-290
-289
-291
-290
-293
-290
-289
-283
-277
-269
-266
-266
-265
-262
-259
-261
-265
-272
-275
-275
-280
-283
-288
-290
-303
-307
-307
-307
-306
-314
-321
-318
-312
-312
-311
-317
-321
-324
-327
-331
-330
-323
-306
-283
-245
-208
-175
-148
-131
-118
-98
-80
-73
-91
-128
-166
-200
-234
-262
-279
-287
-298
-312
-324
-334
-340
-342
-342
-345
-347
-347
-345
-348
-351
-350
-348
-346
-345
-348
-354
-358
-354
-349
-348
-348
-352
-354
-354
-352
-348
-348
-355
-358
-355
-352
-348
-345
-350
-357
-354
-351
-348
-348
-342
-343
-349
-350
-341
-337
-336
-333
-324
-324
-328
-326
-320
-317
-314
-312
-308
-311
-315
-316
-312
-311
-311
-312
-312
-313
-318
-320
-318
-316
-309
-313
-321
-321
-318
-318
-318
-320
-319
-317
-313
-310
-314
-320
-321
-320
-319
-320
-318
-317
-314
-316
-318
-320
-321
-321
-324
-322
-318
-314
-312
-320
-324
-323
-317
-313
-319
-324
-321
-316
-313
-318
-320
-317
-311
-310
-308
-310
-316
-319
-318
-312
-307
-306
-308
-313
-312
-313
-311
-306
-309
-318
-318
-314
-310
-309
-310
-309
-309
-307
-306
-305
-304
-305
-306
-312
-316
-315
-318
-317
-317
-318
-314
-306
-301
-300
-298
-294
-290
-289
-290
-293
-287
-278
-272
-275
-276
-278
-278
-280
-289
-293
-296
-297
-298
-303
-317
-324
-328
-327
-324
-324
-321
-324
-328
-327
-326
-334
-344
-345
-338
-324
-301
-269
-232
-202
-181
-159
-136
-114
-93
-83
-93
-127
-166
-206
-236
-261
-279
-297
-314
-326
-334
-345
-351
-351
-348
-346
-345
-352
-355
-354
-352
-347
-345
-352
-356
-355
-354
-354
-354
-354
-354
-355
-355
-354
-352
-351
-352
-354
-351
-352
-351
-350
-348
-348
-354
-353
-352
-351
-351
-352
-351
-348
-345
-346
-345
-344
-342
-338
-337
-335
-333
-330
-328
-332
-331
-327
-320
-314
-314
-320
-322
-320
-318
-313
-310
-314
-322
-327
-327
-326
-324
-321
-321
-324
-325
-324
-327
-328
-330
-330
-325
-327
-330
-334
-332
-330
-328
-328
-329
-331
-330
-330
-327
-327
-328
-330
-330
-330
-331
-337
-341
-337
-333
-328
-330
-334
-335
-332
-330
-330
-325
-321
-324
-331
-331
-327
-327
-327
-330
-335
-330
-327
-325
-326
-330
-333
-331
-329
-325
-324
-323
-320
-318
-324
-331
-331
-325
-323
-323
-321
-320
-321
-323
-323
-318
-319
-324
-324
-319
-314
-314
-320
-324
-321
-316
-311
-309
-306
-301
-295
-290
-289
-286
-282
-281
-283
-287
-290
-294
-296
-298
-306
-311
-317
-316
-317
-320
-323
-324
-324
-323
-319
-321
-329
-334
-338
-336
-330
-324
-306
-273
-234
-194
-159
-136
-128
-112
-93
-74
-67
-78
-115
-157
-190
-219
-245
-266
-284
-295
-306
-315
-330
-341
-344
-343
-344
-346
-352
-353
-353
-352
-348
-346
-342
-340
-342
-350
-355
-354
-352
-348
-347
-348
-347
-346
-346
-345
-344
-342
-343
-346
-344
-342
-347
-348
-347
-344
-342
-344
-343
-342
-342
-342
-341
-335
-333
-330
-330
-328
-324
-320
-321
-324
-323
-316
-312
-311
-313
-310
-307
-306
-303
-305
-306
-307
-308
-309
-306
-310
-318
-318
-314
-310
-309
-308
-307
-310
-312
-313
-317
-314
-314
-320
-324
-322
-323
-320
-317
-309
-305
-313
-327
-329
-324
-316
-314
-321
-328
-327
-325
-321
-321
-320
-318
-315
-318
-317
-312
-313
-313
-312
-314
-314
-314
-323
-325
-320
-319
-317
-316
-318
-317
-317
-317
-314
-312
-311
-313
-312
-313
-318
-324
-326
-324
-318
-313
-311
-312
-316
-318
-314
-312
-314
-314
-314
-315
-317
-318
-318
-316
-312
-309
-303
-304
-306
-306
-301
-300
-301
-296
-287
-281
-276
-277
-276
-273
-272
-275
-281
-282
-283
-293
-306
-310
-311
-310
-310
-311
-311
-317
-321
-321
-318
-318
-320
-324
-329
-333
-332
-332
-327
-309
-280
-244
-205
-173
-150
-141
-129
-107
-86
-69
-63
-79
-117
-160
-195
-221
-239
-261
-282
-300
-310
-320
-327
-330
-335
-343
-346
-344
-342
-343
-342
-345
-352
-352
-351
-346
-346
-347
-346
-346
-349
-348
-348
-348
-346
-344
-344
-344
-339
-339
-342
-344
-343
-342
-341
-338
-339
-341
-338
-337
-334
-330
-337
-345
-342
-334
-324
-323
-324
-323
-320
-315
-312
-309
-310
-306
-303
-302
-306
-305
-302
-299
-297
-300
-300
-298
-300
-306
-308
-310
-309
-307
-307
-312
-318
-318
-316
-312
-314
-317
-318
-314
-310
-311
-318
-318
-319
-322
-321
-320
-320
-323
-321
-319
-318
-321
-321
-318
-315
-317
-314
-316
-315
-318
-324
-325
-324
-320
-318
-318
-318
-317
-316
-317
-313
-310
-308
-310
-310
-313
-318
-318
-318
-321
-318
-314
-311
-313
-317
-318
-315
-311
-310
-310
-314
-320
-321
-320
-318
-317
-315
-314
-313
-310
-307
-310
-311
-313
-311
-308
-313
-314
-311
-308
-305
-300
-299
-299
-298
-293
-284
-278
-278
-282
-282
-275
-272
-273
-274
-276
-280
-283
-290
-298
-302
-306
-311
-311
-309
-317
-321
-319
-315
-318
-321
-320
-318
-320
-325
-328
-332
-330
-324
-312
-284
-248
-209
-177
-155
-145
-132
-107
-83
-69
-70
-87
-119
-160
-199
-234
-259
-277
-289
-301
-320
-337
-345
-348
-350
-351
-354
-355
-357
-353
-348
-355
-362
-362
-358
-355
-357
-357
-357
-359
-359
-359
-359
-358
-354
-354
-356
-358
-360
-361
-356
-351
-349
-348
-354
-358
-354
-351
-353
-357
-352
-344
-338
-343
-350
-348
-340
-333
-330
-330
-324
-321
-320
-323
-324
-320
-312
-308
-307
-306
-308
-311
-311
-312
-307
-303
-297
-300
-313
-321
-318
-313
-310
-311
-316
-317
-312
-311
-311
-306
-314
-324
-324
-318
-313
-314
-313
-313
-312
-311
-314
-314
-314
-313
-313
-318
-318
-317
-314
-311
-306
-308
-318
-318
-315
-311
-305
-304
-307
-311
-310
-310
-310
-310
-310
-306
-303
-302
-302
-303
-304
-300
-303
-305
-300
-300
-310
-313
-310
-306
-299
-294
-300
-303
-305
-306
-301
-299
-297
-296
-300
-303
-303
-300
-300
-300
-303
-303
-300
-297
-298
-300
-300
-300
-296
-290
-290
-289
-285
-282
-281
-278
-273
-269
-266
-266
-267
-271
-275
-276
-279
-282
-287
-290
-298
-306
-311
-313
-314
-311
-306
-305
-310
-318
-324
-319
-318
-319
-324
-328
-330
-330
-318
-299
-266
-226
-190
-163
-142
-124
-105
-87
-69
-66
-92
-137
-182
-216
-240
-259
-275
-293
-312
-324
-330
-335
-338
-341
-342
-342
-342
-342
-343
-344
-341
-341
-348
-360
-361
-354
-348
-347
-344
-342
-345
-349
-349
-345
-342
-337
-335
-340
-346
-355
-356
-352
-348
-345
-346
-345
-344
-343
-344
-348
-345
-337
-335
-336
-335
-332
-327
-324
-321
-321
-321
-324
-318
-313
-308
-311
-311
-313
-310
-310
-311
-309
-305
-304
-303
-306
-308
-311
-316
-318
-314
-309
-310
-319
-324
-321
-323
-322
-320
-318
-320
-324
-324
-323
-321
-318
-320
-324
-322
-326
-324
-326
-326
-325
-320
-320
-320
-319
-321
-324
-328
-330
-330
-327
-320
-318
-324
-327
-328
-325
-322
-320
-317
-314
-320
-324
-324
-326
-327
-324
-323
-320
-318
-320
-320
-320
-316
-314
-320
-324
-323
-323
-319
-318
-318
-323
-321
-317
-311
-310
-313
-316
-314
-311
-312
-318
-321
-318
-317
-319
-317
-312
-314
-313
-309
-306
-301
-300
-293
-290
-287
-290
-292
-287
-281
-279
-276
-281
-287
-287
-289
-293
-300
-309
-312
-317
-321
-321
-321
-323
-325
-328
-328
-328
-325
-325
-331
-337
-339
-335
-324
-300
-275
-249
-212
-181
-159
-139
-114
-94
-84
-94
-126
-163
-193
-221
-249
-269
-282
-297
-315
-330
-340
-346
-348
-347
-346
-348
-348
-351
-352
-348
-346
-344
-348
-349
-351
-348
-342
-336
-342
-348
-354
-353
-347
-341
-343
-346
-346
-345
-341
-337
-332
-337
-348
-354
-351
-346
-341
-340
-344
-347
-348
-346
-343
-336
-331
-333
-336
-337
-337
-336
-332
-327
-321
-320
-323
-324
-323
-318
-312
-309
-312
-314
-310
-310
-316
-320
-321
-320
-321
-323
-320
-318
-317
-318
-321
-324
-324
-324
-321
-324
-322
-320
-330
-337
-337
-336
-333
-328
-326
-326
-327
-324
-322
-322
-327
-330
-333
-331
-327
-327
-332
-337
-335
-331
-328
-326
-322
-321
-324
-327
-324
-323
-319
-321
-326
-330
-328
-328
-327
-321
-315
-313
-317
-325
-325
-320
-314
-313
-315
-319
-318
-318
-318
-318
-318
-318
-317
-315
-317
-317
-312
-310
-311
-312
-310
-310
-308
-306
-300
-298
-302
-300
-300
-298
-295
-290
-285
-280
-274
-275
-277
-276
-277
-276
-286
-293
-300
-304
-305
-307
-312
-313
-316
-313
-313
-313
-313
-316
-323
-331
-333
-330
-324
-317
-303
-275
-239
-197
-161
-136
-123
-106
-85
-67
-63
-73
-103
-145
-179
-210
-238
-263
-284
-300
-311
-320
-328
-332
-333
-341
-348
-354
-354
-353
-352
-354
-355
-354
-352
-348
-345
-342
-338
-340
-343
-345
-346
-345
-345
-346
-346
-342
-343
-344
-346
-345
-342
-342
-342
-343
-346
-343
-337
-336
-342
-347
-343
-341
-342
-341
-337
-331
-327
-321
-319
-317
-318
-319
-324
-324
-317
-307
-305
-303
-302
-303
-301
-303
-303
-303
-304
-304
-307
-306
-306
-306
-307
-309
-309
-307
-307
-311
-312
-310
-304
-301
-309
-314
-315
-314
-313
-310
-307
-305
-303
-303
-306
-314
-319
-316
-313
-312
-311
-310
-307
-311
-315
-311
-305
-301
-300
-303
-304
-310
-314
-312
-307
-300
-300
-307
-312
-311
-308
-303
-302
-303
-305
-306
-301
-299
-296
-300
-307
-311
-309
-305
-303
-303
-303
-303
-304
-305
-306
-305
-301
-297
-296
-296
-298
-304
-306
-307
-300
-293
-290
-290
-290
-287
-283
-276
-269
-268
-265
-263
-262
-265
-269
-275
-285
-290
-291
-296
-305
-310
-308
-303
-301
-306
-313
-313
-311
-310
-314
-320
-325
-324
-324
-321
-315
-297
-266
-227
-189
-162
-146
-130
-103
-79
-66
-57
-65
-96
-140
-173
-201
-227
-251
-273
-290
-307
-320
-330
-335
-336
-334
-335
-341
-348
-352
-358
-358
-357
-354
-353
-348
-345
-352
-359
-355
-354
-351
-353
-355
-355
-357
-354
-350
-352
-354
-354
-355
-355
-353
-354
-354
-353
-352
-351
-350
-354
-356
-358
-352
-348
-346
-344
-345
-343
-337
-331
-324
-323
-321
-321
-322
-323
-319
-316
-312
-311
-315
-318
-314
-309
-309
-312
-315
-314
-312
-310
-311
-318
-318
-316
-314
-316
-320
-321
-324
-328
-325
-324
-319
-321
-323
-324
-320
-313
-312
-324
-325
-324
-320
-320
-324
-327
-324
-319
-318
-324
-324
-324
-324
-324
-323
-324
-322
-319
-318
-320
-324
-324
-320
-320
-319
-319
-318
-318
-319
-314
-313
-318
-317
-316
-318
-317
-311
-312
-318
-318
-313
-312
-310
-311
-314
-312
-307
-307
-310
-311
-315
-319
-313
-309
-306
-306
-306
-305
-303
-297
-293
-289
-282
-278
-274
-275
-276
-279
-281
-281
-279
-283
-287
-295
-301
-306
-307
-309
-313
-318
-319
-319
-320
-320
-320
-323
-327
-328
-328
-330
-337
-344
-340
-328
-310
-280
-245
-205
-169
-147
-134
-122
-104
-85
-70
-70
-93
-130
-169
-203
-231
-255
-272
-290
-309
-324
-335
-338
-343
-345
-350
-352
-351
-348
-351
-357
-358
-354
-350
-355
-358
-358
-357
-359
-358
-355
-354
-354
-353
-358
-359
-354
-351
-352
-358
-361
-360
-360
-359
-355
-354
-356
-355
-352
-348
-348
-353
-357
-352
-344
-338
-342
-342
-338
-332
-330
-330
-334
-325
-314
-307
-318
-324
-318
-310
-310
-309
-311
-312
-309
-311
-309
-305
-306
-307
-312
-316
-317
-313
-312
-313
-313
-312
-312
-313
-313
-311
-308
-314
-317
-316
-316
-316
-312
-310
-310
-316
-319
-315
-314
-311
-310
-308
-308
-312
-314
-313
-312
-311
-306
-300
-302
-307
-311
-312
-308
-305
-305
-307
-308
-309
-307
-306
-305
-303
-303
-304
-305
-306
-306
-311
-310
-306
-306
-306
-303
-300
-295
-293
-300
-303
-300
-304
-310
-311
-306
-305
-302
-300
-300
-299
-290
-288
-286
-283
-280
-280
-285
-283
-275
-265
-263
-266
-268
-268
-265
-269
-272
-272
-275
-282
-290
-300
-306
-305
-303
-301
-304
-306
-306
-305
-306
-307
-303
-301
-306
-312
-321
-324
-317
-298
-272
-239
-203
-169
-145
-129
-112
-93
-73
-53
-48
-67
-111
-156
-187
-215
-239
-262
-281
-294
-306
-313
-320
-324
-331
-336
-338
-336
-336
-338
-341
-340
-336
-340
-344
-341
-337
-333
-332
-338
-343
-342
-340
-335
-334
-338
-341
-340
-338
-337
-334
-330
-329
-332
-335
-337
-337
-336
-337
-335
-331
-329
-330
-333
-332
-328
-322
-318
-313
-309
-309
-310
-307
-301
-297
-296
-300
-302
-300
-298
-294
-295
-296
-296
-297
-299
-296
-297
-304
-305
-305
-304
-306
-305
-307
-306
-306
-306
-307
-309
-310
-310
-310
-307
-306
-308
-310
-309
-307
-305
-306
-306
-307
-306
-305
-307
-311
-313
-314
-314
-314
-311
-308
-306
-306
-305
-306
-304
-302
-305
-304
-304
-307
-310
-306
-305
-306
-305
-304
-300
-300
-299
-300
-298
-299
-298
-297
-298
-300
-306
-305
-306
-304
-302
-302
-301
-301
-303
-304
-304
-300
-297
-290
-290
-296
-302
-300
-295
-290
-287
-282
-277
-272
-269
-265
-265
-268
-269
-273
-276
-275
-279
-288
-296
-306
-310
-317
-318
-317
-315
-312
-306
-307
-313
-317
-318
-319
-317
-318
-328
-333
-328
-305
-271
-232
-197
-169
-148
-130
-107
-87
-73
-71
-97
-137
-178
-216
-245
-265
-276
-290
-310
-327
-335
-339
-338
-340
-346
-351
-352
-351
-348
-351
-353
-353
-352
-351
-350
-348
-346
-347
-348
-348
-348
-348
-351
-355
-359
-354
-352
-351
-346
-347
-348
-348
-350
-349
-348
-351
-348
-346
-341
-338
-345
-348
-348
-344
-335
-330
-332
-335
-330
-323
-317
-317
-318
-321
-319
-318
-316
-312
-310
-310
-310
-306
-298
-296
-304
-312
-312
-310
-311
-317
-318
-318
-314
-313
-316
-318
-318
-318
-317
-317
-317
-314
-312
-317
-320
-323
-328
-328
-327
-324
-321
-323
-321
-318
-318
-324
-327
-327
-327
-328
-326
-327
-325
-324
-324
-325
-324
-326
-326
-325
-328
-330
-326
-325
-327
-328
-330
-328
-325
-324
-324
-326
-327
-330
-329
-328
-326
-328
-325
-326
-327
-328
-326
-327
-330
-330
-330
-333
-330
-332
-334
-331
-327
-324
-320
-315
-315
-320
-324
-321
-312
-303
-298
-295
-293
-293
-295
-293
-294
-302
-309
-313
-315
-318
-319
-322
-329
-331
-332
-330
-328
-331
-342
-343
-336
-335
-336
-342
-346
-341
-328
-312
-283
-248
-208
-173
-149
-130
-112
-97
-87
-87
-109
-149
-185
-215
-239
-260
-282
-306
-324
-339
-344
-351
-354
-354
-354
-358
-360
-362
-360
-359
-356
-355
-354
-358
-357
-357
-358
-359
-365
-366
-365
-361
-358
-355
-354
-358
-359
-361
-361
-362
-361
-357
-354
-354
-354
-352
-354
-354
-352
-348
-348
-347
-346
-344
-342
-342
-336
-332
-330
-327
-325
-327
-322
-317
-309
-303
-300
-307
-312
-312
-311
-310
-309
-307
-310
-313
-313
-310
-310
-309
-307
-311
-315
-314
-312
-313
-313
-311
-314
-314
-317
-324
-326
-325
-323
-320
-319
-320
-324
-330
-328
-325
-324
-320
-318
-323
-328
-330
-324
-323
-326
-327
-325
-323
-320
-324
-330
-333
-332
-328
-325
-324
-318
-320
-324
-324
-321
-320
-321
-321
-320
-318
-318
-318
-320
-319
-320
-318
-317
-318
-321
-320
-318
-316
-314
-312
-311
-312
-316
-314
-308
-306
-307
-310
-309
-307
-306
-300
-293
-289
-287
-287
-282
-276
-273
-273
-273
-277
-283
-290
-290
-297
-305
-313
-314
-313
-314
-314
-321
-324
-324
-321
-318
-317
-318
-327
-339
-345
-339
-324
-300
-269
-232
-191
-162
-139
-122
-100
-81
-70
-81
-115
-155
-190
-217
-247
-267
-280
-299
-318
-330
-334
-336
-339
-342
-348
-348
-351
-353
-351
-348
-350
-348
-348
-350
-350
-354
-359
-356
-352
-348
-348
-345
-343
-342
-348
-351
-353
-351
-348
-345
-340
-338
-342
-349
-354
-349
-348
-350
-348
-344
-343
-341
-337
-335
-342
-343
-337
-330
-330
-328
-328
-327
-324
-322
-318
-313
-306
-304
-307
-311
-310
-309
-307
-306
-303
-303
-305
-311
-313
-310
-310
-314
-320
-320
-318
-315
-317
-321
-327
-325
-324
-321
-318
-320
-324
-324
-326
-325
-325
-325
-327
-325
-327
-330
-327
-322
-320
-322
-326
-327
-325
-323
-322
-321
-319
-318
-318
-320
-321
-319
-319
-317
-312
-310
-307
-310
-313
-316
-318
-314
-313
-316
-318
-318
-318
-317
-316
-314
-311
-310
-310
-308
-307
-306
-309
-311
-310
-306
-305
-303
-298
-294
-294
-290
-289
-283
-281
-276
-269
-263
-258
-261
-263
-263
-266
-269
-272
-276
-288
-290
-293
-300
-305
-305
-306
-307
-306
-310
-311
-312
-313
-316
-324
-328
-326
-316
-297
-273
-239
-203
-173
-153
-138
-118
-97
-77
-63
-68
-100
-142
-182
-214
-240
-263
-280
-294
-313
-328
-332
-337
-345
-352
-354
-356
-358
-358
-355
-355
-359
-359
-358
-360
-362
-359
-360
-358
-358
-360
-360
-359
-357
-356
-355
-358
-360
-361
-360
-363
-366
-366
-364
-364
-366
-369
-367
-365
-365
-362
-358
-355
-352
-355
-361
-362
-359
-354
-350
-348
-348
-346
-346
-341
-337
-330
-327
-325
-331
-334
-329
-324
-324
-324
-330
-330
-331
-330
-330
-329
-328
-328
-328
-329
-330
-332
-332
-334
-330
-330
-332
-336
-341
-341
-337
-334
-335
-337
-336
-334
-334
-337
-338
-341
-341
-340
-340
-341
-341
-338
-338
-337
-337
-335
-334
-336
-337
-338
-332
-328
-328
-329
-333
-332
-330
-328
-324
-322
-324
-325
-327
-326
-321
-321
-323
-322
-320
-319
-319
-322
-328
-328
-326
-325
-324
-318
-316
-311
-310
-310
-311
-312
-311
-306
-300
-296
-290
-280
-275
-279
-282
-284
-283
-282
-283
-283
-286
-293
-303
-305
-307
-307
-312
-317
-321
-322
-320
-321
-324
-326
-324
-328
-334
-334
-330
-313
-283
-243
-202
-164
-142
-131
-119
-100
-83
-75
-84
-117
-155
-190
-219
-244
-266
-283
-300
-312
-325
-332
-335
-339
-341
-342
-345
-348
-356
-362
-362
-360
-357
-353
-355
-359
-360
-359
-357
-353
-351
-349
-348
-345
-348
-348
-348
-354
-359
-357
-353
-350
-348
-349
-352
-350
-348
-348
-348
-348
-348
-344
-340
-335
-339
-348
-346
-338
-332
-330
-328
-330
-328
-323
-317
-312
-311
-311
-309
-306
-303
-302
-300
-302
-311
-314
-313
-310
-306
-305
-306
-310
-312
-311
-311
-305
-302
-303
-305
-311
-317
-318
-313
-314
-316
-316
-318
-318
-314
-313
-313
-312
-311
-309
-307
-302
-297
-298
-306
-317
-321
-318
-315
-313
-313
-311
-310
-310
-310
-310
-307
-305
-304
-300
-290
-287
-293
-306
-310
-312
-310
-305
-302
-301
-301
-306
-308
-306
-300
-297
-297
-297
-299
-296
-297
-300
-300
-301
-304
-300
-295
-293
-290
-290
-291
-289
-287
-282
-278
-269
-263
-257
-259
-263
-265
-266
-269
-269
-275
-283
-290
-295
-300
-305
-303
-303
-304
-303
-306
-306
-307
-309
-308
-313
-317
-319
-322
-317
-297
-265
-225
-184
-152
-132
-117
-99
-80
-60
-56
-70
-106
-142
-176
-204
-229
-245
-259
-270
-289
-307
-320
-323
-323
-322
-321
-322
-324
-326
-326
-320
-317
-323
-327
-327
-328
-327
-325
-320
-317
-318
-324
-324
-324
-324
-322
-320
-320
-320
-321
-324
-321
-318
-319
-321
-321
-318
-316
-318
-321
-325
-323
-320
-320
-318
-317
-316
-312
-306
-300
-298
-300
-301
-295
-289
-287
-289
-287
-287
-284
-283
-286
-287
-289
-290
-289
-282
-285
-290
-293
-293
-293
-295
-298
-300
-300
-297
-295
-298
-300
-302
-306
-306
-307
-307
-306
-302
-304
-307
-307
-307
-305
-304
-307
-310
-310
-306
-303
-306
-308
-309
-306
-303
-306
-307
-303
-299
-296
-295
-298
-300
-300
-300
-296
-290
-290
-290
-295
-293
-290
-287
-286
-288
-288
-290
-290
-288
-284
-284
-286
-289
-290
-290
-291
-293
-296
-290
-290
-290
-290
-290
-286
-282
-285
-284
-280
-275
-273
-270
-262
-257
-258
-262
-266
-268
-269
-275
-280
-284
-287
-290
-302
-306
-306
-307
-306
-307
-311
-312
-314
-316
-316
-320
-327
-332
-330
-321
-304
-275
-241
-204
-172
-149
-132
-112
-88
-69
-58
-65
-93
-135
-172
-203
-223
-243
-265
-287
-303
-317
-327
-331
-334
-336
-338
-342
-341
-341
-342
-346
-348
-351
-354
-357
-354
-348
-348
-348
-351
-355
-358
-355
-352
-350
-351
-351
-349
-346
-347
-352
-357
-359
-355
-354
-355
-354
-354
-354
-351
-351
-352
-353
-351
-347
-346
-342
-337
-339
-344
-344
-337
-332
-330
-330
-327
-320
-319
-324
-326
-322
-320
-320
-315
-312
-313
-318
-323
-328
-330
-328
-330
-332
-334
-335
-334
-332
-330
-328
-331
-332
-335
-336
-335
-336
-338
-336
-336
-335
-335
-337
-337
-339
-342
-338
-336
-336
-335
-333
-333
-337
-337
-337
-336
-338
-338
-337
-335
-334
-335
-331
-329
-328
-332
-335
-335
-330
-328
-328
-327
-327
-330
-328
-327
-327
-324
-324
-324
-321
-318
-318
-322
-322
-320
-316
-313
-317
-318
-324
-327
-324
-319
-314
-311
-310
-307
-302
-295
-293
-296
-290
-283
-283
-287
-288
-290
-290
-296
-300
-306
-309
-311
-314
-320
-325
-325
-328
-327
-324
-325
-326
-324
-324
-330
-333
-334
-334
-330
-312
-285
-251
-211
-173
-144
-132
-125
-110
-89
-76
-74
-89
-124
-160
-191
-222
-246
-268
-287
-300
-309
-320
-332
-338
-341
-343
-346
-347
-348
-351
-348
-347
-345
-346
-350
-349
-351
-353
-352
-350
-351
-351
-351
-349
-348
-348
-352
-352
-350
-348
-346
-345
-347
-351
-354
-354
-352
-348
-348
-348
-351
-348
-343
-342
-342
-338
-335
-332
-335
-335
-332
-327
-321
-324
-327
-328
-321
-311
-306
-306
-312
-317
-313
-309
-309
-307
-307
-307
-312
-311
-310
-307
-306
-308
-307
-305
-310
-314
-319
-320
-318
-318
-317
-315
-316
-317
-317
-314
-312
-313
-317
-321
-321
-318
-317
-314
-316
-318
-321
-325
-327
-328
-328
-326
-320
-321
-318
-318
-322
-324
-321
-318
-318
-316
-313
-311
-312
-317
-320
-318
-313
-318
-320
-318
-319
-318
-319
-319
-319
-317
-314
-312
-311
-309
-308
-312
-317
-315
-318
-318
-313
-310
-307
-307
-300
-296
-290
-287
-281
-275
-276
-279
-275
-272
-279
-289
-293
-290
-293
-295
-299
-306
-311
-311
-313
-314
-316
-318
-314
-317
-318
-318
-320
-325
-334
-336
-334
-324
-311
-284
-246
-210
-180
-159
-146
-125
-103
-87
-75
-65
-77
-116
-158
-190
-220
-244
-263
-276
-290
-305
-319
-329
-340
-344
-345
-345
-349
-350
-350
-348
-352
-353
-353
-356
-357
-359
-358
-358
-360
-356
-354
-354
-360
-360
-360
-356
-354
-355
-360
-366
-367
-366
-361
-360
-358
-362
-367
-365
-360
-356
-354
-354
-354
-348
-354
-357
-354
-348
-344
-344
-342
-338
-333
-324
-320
-324
-330
-333
-332
-329
-325
-322
-327
-324
-322
-324
-330
-330
-330
-330
-328
-327
-321
-318
-324
-332
-334
-334
-334
-330
-326
-324
-327
-327
-327
-330
-330
-330
-329
-330
-331
-335
-330
-326
-324
-328
-329
-330
-330
-329
-324
-320
-317
-318
-321
-325
-324
-318
-319
-324
-323
-323
-324
-324
-324
-323
-323
-324
-321
-319
-318
-317
-315
-315
-319
-322
-320
-314
-312
-313
-317
-322
-320
-313
-306
-303
-306
-303
-300
-296
-287
-279
-273
-275
-277
-282
-287
-287
-285
-282
-283
-287
-300
-313
-318
-318
-320
-320
-319
-319
-321
-321
-324
-323
-319
-317
-318
-330
-344
-351
-345
-325
-302
-274
-245
-209
-175
-148
-132
-114
-96
-80
-73
-75
-98
-138
-179
-207
-231
-253
-275
-290
-306
-320
-330
-339
-347
-351
-351
-350
-348
-348
-354
-362
-361
-358
-358
-355
-357
-360
-360
-360
-360
-358
-351
-349
-355
-359
-362
-359
-357
-359
-358
-358
-355
-358
-359
-357
-353
-349
-352
-355
-358
-358
-355
-354
-352
-348
-344
-340
-337
-336
-334
-332
-330
-324
-324
-328
-329
-325
-320
-317
-314
-310
-313
-318
-316
-311
-314
-317
-319
-318
-318
-323
-324
-323
-321
-323
-325
-324
-321
-323
-325
-324
-321
-324
-330
-328
-324
-321
-320
-323
-324
-328
-327
-323
-319
-320
-327
-329
-326
-322
-321
-318
-317
-320
-321
-318
-314
-313
-317
-317
-317
-318
-315
-310
-312
-318
-319
-315
-314
-314
-312
-312
-314
-314
-314
-313
-311
-309
-308
-310
-307
-311
-314
-311
-312
-310
-307
-305
-302
-297
-290
-284
-281
-275
-275
-272
-272
-276
-280
-282
-283
-287
-297
-304
-306
-307
-309
-312
-312
-310
-312
-312
-309
-305
-306
-312
-317
-320
-326
-331
-333
-327
-312
-287
-254
-216
-180
-152
-134
-118
-103
-85
-65
-55
-69
-107
-152
-184
-214
-239
-256
-268
-280
-296
-314
-323
-324
-324
-327
-333
-335
-341
-344
-342
-340
-337
-336
-339
-343
-342
-340
-338
-333
-324
-323
-337
-344
-342
-337
-333
-330
-328
-330
-330
-330
-332
-331
-328
-327
-327
-324
-323
-324
-324
-324
-324
-321
-316
-308
-306
-306
-306
-306
-300
-290
-289
-286
-289
-293
-290
-286
-285
-285
-284
-286
-286
-286
-285
-283
-283
-287
-289
-287
-285
-288
-293
-300
-299
-294
-293
-296
-300
-300
-298
-300
-299
-296
-298
-303
-302
-300
-297
-300
-301
-303
-303
-307
-314
-312
-308
-308
-307
-307
-308
-310
-312
-313
-311
-310
-311
-310
-307
-306
-304
-305
-305
-306
-303
-305
-308
-309
-307
-307
-307
-308
-307
-306
-305
-304
-303
-302
-301
-297
-296
-300
-302
-306
-308
-306
-300
-300
-298
-296
-290
-289
-283
-278
-275
-272
-269
-267
-266
-266
-269
-273
-275
-281
-282
-287
-293
-297
-297
-302
-306
-307
-310
-311
-311
-317
-317
-316
-316
-313
-313
-325
-332
-334
-331
-323
-303
-273
-239
-210
-186
-163
-142
-122
-100
-82
-68
-59
-68
-105
-148
-183
-214
-238
-257
-275
-289
-303
-314
-320
-330
-336
-338
-343
-345
-348
-345
-344
-343
-348
-351
-351
-348
-344
-344
-348
-348
-345
-345
-343
-341
-348
-352
-348
-346
-346
-346
-342
-339
-340
-342
-345
-344
-344
-344
-341
-336
-333
-335
-336
-337
-335
-333
-327
-321
-321
-324
-323
-319
-314
-308
-306
-304
-303
-300
-302
-300
-305
-310
-307
-303
-305
-307
-310
-310
-310
-306
-305
-303
-302
-305
-312
-318
-317
-311
-306
-306
-311
-316
-318
-317
-317
-317
-314
-310
-312
-316
-318
-320
-324
-324
-320
-318
-321
-324
-325
-326
-326
-325
-323
-321
-318
-314
-318
-320
-320
-318
-318
-318
-316
-314
-315
-315
-317
-317
-316
-313
-312
-312
-312
-310
-307
-306
-306
-303
-306
-308
-312
-314
-311
-308
-311
-310
-306
-300
-299
-297
-297
-298
-294
-289
-282
-275
-275
-273
-270
-272
-276
-275
-278
-276
-279
-283
-289
-290
-298
-305
-311
-313
-314
-319
-318
-314
-312
-314
-319
-325
-327
-330
-332
-336
-341
-338
-331
-318
-292
-255
-216
-179
-153
-138
-128
-112
-95
-83
-82
-100
-134
-171
-203
-229
-251
-272
-290
-303
-317
-327
-334
-343
-351
-354
-354
-354
-355
-354
-352
-353
-352
-351
-351
-352
-354
-352
-355
-360
-358
-356
-358
-355
-355
-354
-355
-355
-354
-348
-346
-348
-351
-355
-358
-356
-357
-358
-355
-355
-352
-351
-348
-346
-345
-341
-337
-335
-334
-334
-331
-328
-323
-318
-320
-325
-326
-322
-318
-314
-312
-312
-312
-310
-314
-318
-319
-321
-324
-324
-321
-324
-330
-330
-330
-328
-330
-330
-328
-324
-325
-327
-327
-329
-331
-332
-330
-331
-336
-337
-335
-333
-333
-330
-333
-333
-335
-335
-331
-328
-332
-334
-335
-333
-328
-324
-327
-330
-329
-330
-330
-327
-323
-322
-321
-321
-318
-317
-321
-324
-323
-318
-314
-313
-318
-321
-320
-321
-322
-323
-321
-318
-318
-315
-317
-316
-314
-315
-314
-313
-318
-315
-306
-300
-300
-300
-295
-293
-289
-281
-276
-280
-282
-282
-285
-284
-285
-287
-290
-297
-304
-310
-318
-323
-320
-314
-315
-324
-332
-334
-332
-328
-323
-324
-331
-339
-344
-342
-330
-314
-287
-252
-218
-184
-159
-142
-127
-111
-89
-76
-79
-113
-157
-200
-229
-253
-271
-282
-295
-314
-334
-341
-342
-344
-348
-351
-351
-355
-360
-360
-355
-355
-355
-354
-354
-355
-353
-351
-351
-354
-357
-360
-360
-357
-353
-348
-351
-360
-362
-361
-358
-354
-350
-348
-352
-355
-355
-354
-352
-348
-348
-351
-352
-351
-350
-346
-344
-340
-334
-331
-331
-326
-321
-319
-318
-314
-313
-314
-318
-318
-318
-314
-310
-311
-312
-314
-317
-314
-311
-312
-316
-316
-315
-315
-317
-322
-326
-322
-321
-321
-322
-324
-324
-324
-324
-322
-320
-321
-319
-320
-320
-322
-321
-323
-324
-324
-324
-324
-324
-321
-321
-323
-321
-325
-324
-321
-318
-316
-318
-321
-319
-318
-320
-320
-318
-318
-317
-317
-317
-314
-312
-311
-313
-311
-308
-309
-308
-311
-312
-314
-316
-314
-313
-314
-316
-313
-311
-312
-311
-309
-307
-306
-307
-309
-306
-300
-297
-290
-286
-283
-287
-287
-282
-275
-273
-271
-270
-273
-275
-276
-282
-287
-290
-290
-297
-301
-306
-309
-312
-311
-313
-312
-313
-315
-317
-319
-323
-330
-335
-336
-331
-323
-306
-276
-244
-203
-172
-151
-135
-113
-93
-77
-75
-104
-146
-181
-215
-247
-271
-288
-306
-320
-330
-340
-344
-346
-351
-357
-355
-355
-359
-358
-360
-361
-362
-360
-358
-354
-357
-362
-360
-353
-352
-356
-356
-355
-358
-361
-362
-362
-361
-362
-361
-361
-361
-360
-355
-354
-361
-362
-358
-360
-362
-360
-354
-354
-353
-350
-350
-347
-341
-336
-332
-330
-324
-324
-328
-329
-327
-323
-322
-324
-321
-318
-314
-313
-318
-319
-319
-317
-314
-313
-313
-312
-313
-318
-324
-325
-327
-326
-324
-322
-320
-320
-320
-318
-318
-321
-321
-320
-319
-318
-318
-320
-324
-326
-326
-324
-324
-322
-323
-325
-327
-323
-318
-314
-316
-318
-318
-317
-318
-315
-317
-318
-318
-318
-318
-317
-317
-317
-315
-316
-313
-314
-314
-312
-311
-307
-306
-308
-306
-306
-312
-318
-318
-316
-312
-306
-306
-310
-311
-310
-307
-305
-301
-301
-306
-307
-303
-296
-290
-290
-289
-287
-287
-288
-284
-276
-272
-270
-269
-269
-275
-281
-284
-283
-289
-296
-300
-303
-312
-318
-318
-317
-314
-316
-314
-313
-312
-317
-324
-330
-334
-327
-313
-292
-256
-216
-179
-154
-135
-112
-90
-71
-67
-87
-122
-160
-193
-221
-247
-272
-290
-303
-317
-333
-341
-345
-350
-351
-352
-353
-354
-357
-355
-352
-351
-352
-353
-352
-353
-354
-352
-352
-360
-361
-357
-354
-353
-354
-355
-354
-349
-348
-348
-349
-348
-351
-354
-356
-354
-348
-347
-350
-354
-354
-352
-348
-344
-342
-342
-339
-338
-338
-337
-335
-332
-328
-324
-320
-321
-319
-313
-308
-307
-306
-307
-308
-306
-305
-307
-305
-300
-303
-307
-310
-312
-313
-314
-313
-312
-308
-306
-309
-307
-312
-319
-318
-319
-320
-322
-321
-319
-324
-326
-324
-321
-317
-313
-316
-318
-322
-324
-328
-327
-324
-321
-318
-327
-330
-327
-324
-322
-320
-318
-318
-318
-318
-321
-323
-319
-315
-314
-316
-322
-322
-318
-317
-318
-319
-318
-319
-318
-314
-311
-306
-303
-301
-307
-315
-319
-318
-313
-312
-312
-309
-312
-318
-318
-315
-311
-309
-311
-310
-306
-300
-297
-298
-300
-299
-297
-294
-290
-293
-289
-284
-280
-275
-271
-274
-275
-273
-273
-275
-279
-282
-288
-294
-299
-301
-309
-311
-311
-313
-313
-313
-314
-311
-312
-315
-321
-328
-330
-329
-318
-304
-280
-250
-209
-174
-152
-136
-117
-93
-72
-57
-59
-87
-128
-166
-196
-221
-244
-262
-276
-290
-307
-318
-324
-328
-331
-332
-331
-334
-335
-337
-340
-338
-332
-332
-334
-329
-328
-331
-335
-336
-333
-332
-337
-338
-336
-334
-334
-335
-337
-337
-334
-331
-330
-333
-335
-332
-330
-327
-328
-330
-330
-333
-331
-331
-331
-330
-330
-330
-326
-323
-318
-313
-309
-305
-305
-302
-301
-304
-303
-300
-298
-298
-300
-302
-306
-305
-305
-308
-312
-307
-303
-298
-305
-317
-321
-318
-317
-313
-312
-307
-306
-311
-312
-312
-316
-320
-322
-321
-323
-320
-324
-324
-325
-326
-328
-324
-325
-324
-324
-324
-326
-328
-328
-324
-323
-323
-322
-321
-318
-321
-327
-327
-324
-322
-324
-323
-324
-327
-329
-328
-323
-321
-326
-325
-324
-318
-317
-316
-318
-318
-318
-319
-318
-314
-313
-314
-313
-315
-313
-314
-317
-315
-312
-311
-312
-315
-321
-321
-315
-310
-306
-307
-309
-305
-300
-300
-300
-294
-287
-280
-278
-281
-283
-283
-285
-288
-290
-298
-305
-310
-316
-316
-316
-317
-317
-318
-318
-317
-314
-317
-324
-329
-331
-334
-332
-330
-320
-306
-279
-245
-206
-172
-148
-132
-118
-94
-76
-67
-63
-81
-118
-160
-193
-221
-245
-266
-286
-300
-312
-321
-327
-333
-339
-341
-342
-342
-344
-348
-348
-350
-352
-352
-351
-349
-349
-347
-342
-342
-344
-346
-344
-344
-342
-341
-340
-341
-343
-344
-344
-342
-346
-350
-349
-348
-344
-342
-341
-339
-342
-339
-335
-331
-328
-326
-324
-321
-323
-325
-327
-318
-315
-316
-314
-312
-310
-305
-302
-300
-300
-297
-295
-293
-290
-290
-297
-302
-303
-302
-300
-296
-300
-311
-316
-317
-314
-308
-309
-312
-312
-310
-308
-308
-312
-312
-310
-309
-307
-306
-307
-310
-310
-309
-311
-316
-317
-316
-312
-310
-306
-303
-306
-306
-305
-305
-303
-300
-300
-303
-303
-304
-305
-304
-300
-294
-290
-296
-300
-300
-300
-297
-296
-290
-293
-290
-291
-290
-291
-290
-289
-290
-292
-290
-293
-290
-290
-289
-287
-289
-293
-290
-290
-290
-290
-286
-283
-285
-286
-287
-288
-285
-279
-275
-275
-271
-265
-262
-262
-261
-260
-259
-257
-261
-263
-264
-266
-271
-276
-281
-284
-287
-292
-300
-305
-304
-300
-300
-305
-312
-312
-313
-317
-321
-325
-327
-327
-322
-305
-276
-243
-205
-173
-150
-133
-111
-87
-68
-57
-63
-94
-135
-172
-208
-236
-257
-274
-286
-303
-316
-325
-329
-333
-336
-338
-344
-346
-343
-344
-342
-342
-342
-345
-350
-354
-350
-346
-346
-347
-346
-345
-342
-342
-341
-341
-346
-348
-346
-344
-342
-346
-348
-348
-346
-346
-346
-348
-348
-346
-342
-337
-335
-335
-335
-330
-324
-324
-322
-320
-314
-312
-311
-308
-308
-307
-305
-303
-306
-306
-305
-303
-305
-306
-305
-306
-306
-304
-303
-303
-304
-301
-305
-311
-316
-319
-318
-316
-312
-313
-316
-318
-318
-318
-318
-319
-318
-318
-312
-310
-312
-318
-322
-320
-316
-311
-311
-314
-318
-321
-320
-318
-315
-317
-317
-314
-313
-311
-307
-310
-307
-310
-311
-311
-310
-311
-310
-307
-309
-311
-309
-306
-306
-310
-313
-312
-313
-311
-308
-306
-306
-303
-305
-307
-309
-309
-308
-311
-315
-314
-312
-309
-306
-301
-297
-300
-301
-300
-297
-290
-285
-279
-268
-263
-269
-278
-279
-276
-276
-276
-277
-283
-287
-293
-298
-300
-303
-310
-313
-318
-321
-318
-316
-314
-313
-313
-320
-330
-334
-335
-337
-333
-320
-299
-266
-231
-199
-172
-151
-131
-111
-93
-77
-72
-91
-128
-163
-200
-234
-259
-276
-290
-310
-321
-330
-341
-348
-348
-348
-348
-346
-348
-355
-359
-359
-355
-349
-346
-348
-358
-361
-361
-359
-354
-349
-344
-342
-341
-342
-345
-344
-345
-348
-348
-348
-347
-346
-348
-344
-342
-346
-345
-344
-344
-344
-341
-336
-332
-327
-330
-334
-333
-330
-328
-323
-320
-318
-314
-314
-314
-310
-306
-305
-307
-309
-312
-313
-312
-311
-311
-311
-309
-310
-318
-321
-319
-317
-318
-319
-320
-322
-326
-328
-325
-322
-321
-324
-324
-327
-330
-331
-330
-330
-329
-327
-327
-332
-334
-332
-328
-324
-324
-331
-331
-328
-330
-330
-331
-330
-331
-335
-334
-331
-330
-327
-325
-324
-325
-324
-324
-328
-326
-324
-319
-318
-318
-317
-314
-316
-323
-328
-328
-327
-324
-321
-320
-318
-315
-314
-319
-330
-334
-331
-327
-321
-313
-304
-306
-317
-317
-310
-306
-306
-301
-293
-287
-276
-276
-287
-295
-297
-302
-305
-307
-310
-312
-318
-324
-327
-331
-332
-335
-336
-335
-335
-332
-330
-327
-328
-342
-354
-360
-360
-352
-336
-306
-266
-229
-200
-181
-165
-144
-120
-101
-99
-124
-164
-203
-234
-261
-284
-302
-318
-333
-342
-352
-357
-365
-370
-369
-365
-364
-365
-366
-369
-370
-370
-371
-371
-368
-366
-366
-365
-369
-369
-367
-362
-360
-361
-362
-362
-361
-362
-366
-369
-370
-366
-363
-359
-360
-364
-366
-367
-361
-358
-354
-352
-351
-352
-352
-348
-344
-346
-342
-342
-341
-338
-339
-338
-334
-330
-324
-321
-321
-318
-318
-321
-321
-320
-321
-320
-319
-317
-320
-321
-321
-318
-318
-323
-328
-330
-330
-330
-327
-327
-327
-332
-332
-331
-336
-339
-336
-335
-334
-333
-334
-336
-338
-339
-338
-335
-331
-332
-335
-335
-334
-336
-337
-334
-332
-330
-330
-328
-327
-328
-326
-326
-327
-328
-329
-326
-321
-320
-324
-321
-319
-321
-326
-328
-327
-323
-320
-320
-321
-323
-326
-327
-324
-324
-324
-324
-323
-323
-324
-325
-324
-319
-313
-309
-306
-304
-303
-297
-293
-290
-286
-281
-286
-290
-300
-303
-303
-305
-311
-317
-321
-324
-328
-330
-328
-325
-324
-327
-327
-324
-324
-330
-338
-346
-347
-342
-336
-321
-293
-256
-215
-180
-156
-142
-125
-105
-93
-95
-119
-156
-189
-217
-245
-272
-296
-317
-331
-345
-351
-352
-355
-360
-364
-366
-365
-361
-360
-361
-362
-361
-364
-370
-369
-367
-368
-370
-366
-361
-362
-366
-370
-372
-371
-368
-366
-363
-361
-360
-368
-372
-368
-365
-363
-364
-365
-367
-366
-362
-359
-358
-360
-361
-361
-359
-354
-346
-336
-334
-341
-346
-343
-336
-331
-326
-324
-318
-313
-312
-312
-318
-325
-326
-323
-320
-324
-321
-318
-315
-318
-321
-320
-320
-318
-319
-321
-320
-322
-324
-324
-324
-327
-326
-322
-323
-325
-326
-324
-323
-324
-324
-324
-323
-321
-322
-324
-322
-320
-318
-314
-318
-320
-319
-319
-317
-317
-315
-317
-313
-313
-311
-310
-308
-307
-306
-306
-307
-307
-312
-313
-314
-312
-312
-310
-306
-306
-306
-307
-308
-307
-305
-306
-305
-305
-298
-290
-293
-300
-302
-301
-297
-290
-281
-272
-269
-266
-270
-275
-275
-271
-269
-270
-276
-286
-290
-293
-300
-306
-307
-306
-307
-306
-307
-306
-307
-307
-306
-306
-311
-320
-323
-318
-306
-282
-252
-215
-182
-153
-132
-111
-88
-69
-58
-70
-108
-148
-184
-213
-236
-257
-275
-289
-303
-313
-319
-321
-328
-332
-335
-334
-335
-334
-333
-331
-332
-334
-335
-334
-334
-331
-325
-326
-330
-337
-341
-337
-332
-327
-328
-333
-334
-335
-333
-330
-324
-324
-330
-337
-335
-330
-327
-323
-315
-315
-321
-326
-326
-324
-319
-313
-310
-310
-307
-307
-307
-302
-300
-297
-293
-290
-290
-293
-293
-290
-287
-283
-279
-282
-286
-290
-290
-290
-290
-293
-293
-295
-293
-290
-290
-288
-290
-298
-300
-297
-294
-290
-290
-293
-294
-295
-297
-299
-298
-296
-294
-290
-290
-291
-289
-289
-289
-289
-290
-290
-289
-289
-290
-290
-287
-287
-287
-287
-288
-289
-288
-285
-280
-278
-282
-287
-288
-287
-287
-287
-287
-287
-287
-289
-287
-286
-286
-285
-285
-285
-286
-289
-289
-287
-283
-282
-281
-280
-275
-272
-269
-269
-265
-258
-256
-254
-251
-253
-261
-265
-269
-271
-278
-287
-295
-300
-306
-309
-316
-316
-312
-309
-311
-314
-316
-314
-316
-321
-324
-328
-333
-327
-302
-268
-227
-190
-163
-144
-123
-100
-85
-73
-77
-108
-148
-184
-215
-245
-266
-280
-290
-303
-315
-324
-329
-332
-328
-324
-324
-324
-330
-338
-343
-341
-336
-331
-330
-330
-333
-333
-330
-328
-330
-330
-330
-327
-326
-326
-324
-330
-331
-328
-324
-324
-329
-328
-324
-325
-328
-330
-327
-324
-326
-330
-330
-327
-325
-321
-318
-315
-311
-310
-306
-306
-304
-300
-300
-299
-295
-293
-290
-288
-287
-286
-290
-296
-297
-298
-296
-293
-290
-290
-294
-296
-293
-300
-302
-300
-300
-300
-305
-303
-300
-298
-300
-306
-306
-306
-306
-306
-304
-301
-302
-309
-311
-310
-307
-303
-297
-294
-297
-301
-300
-301
-303
-306
-307
-306
-303
-300
-297
-299
-303
-304
-304
-302
-300
-297
-298
-300
-304
-306
-306
-301
-297
-297
-300
-306
-307
-310
-309
-305
-303
-300
-298
-300
-298
-298
-296
-290
-290
-290
-288
-281
-275
-269
-270
-268
-266
-272
-278
-279
-279
-282
-290
-302
-306
-306
-309
-314
-318
-318
-318
-317
-313
-316
-320
-321
-324
-330
-335
-336
-330
-317
-293
-262
-221
-184
-157
-139
-121
-101
-85
-81
-96
-130
-166
-199
-228
-256
-275
-290
-307
-324
-336
-341
-343
-347
-354
-355
-357
-355
-352
-355
-360
-360
-360
-359
-359
-361
-365
-364
-364
-362
-360
-355
-352
-354
-361
-364
-360
-355
-353
-354
-358
-361
-362
-361
-358
-360
-360
-358
-356
-357
-357
-358
-357
-354
-350
-342
-337
-336
-342
-350
-348
-342
-335
-330
-330
-328
-325
-321
-320
-317
-314
-310
-310
-312
-314
-314
-317
-320
-318
-316
-313
-313
-316
-318
-320
-321
-318
-316
-313
-316
-319
-323
-321
-318
-318
-319
-324
-330
-328
-324
-324
-324
-322
-323
-319
-317
-316
-320
-327
-327
-324
-320
-317
-314
-313
-312
-317
-321
-318
-318
-315
-311
-311
-314
-316
-317
-318
-314
-311
-310
-308
-308
-311
-310
-310
-313
-316
-318
-314
-310
-307
-306
-306
-310
-310
-306
-304
-300
-296
-287
-276
-275
-279
-276
-275
-269
-266
-270
-273
-275
-280
-285
-289
-295
-297
-300
-303
-303
-305
-306
-304
-301
-305
-307
-310
-310
-312
-318
-327
-330
-322
-308
-281
-245
-214
-183
-156
-139
-116
-94
-78
-72
-87
-128
-174
-213
-241
-262
-276
-290
-305
-318
-330
-336
-340
-342
-344
-344
-346
-348
-348
-344
-341
-344
-350
-351
-348
-341
-337
-344
-356
-360
-354
-348
-344
-345
-346
-345
-345
-345
-342
-339
-343
-348
-345
-344
-342
-343
-342
-342
-346
-347
-342
-339
-332
-330
-329
-329
-330
-328
-325
-324
-320
-316
-314
-313
-311
-306
-300
-303
-303
-303
-301
-302
-305
-306
-307
-309
-308
-305
-303
-306
-313
-316
-316
-316
-313
-317
-318
-318
-317
-314
-316
-320
-324
-326
-324
-323
-318
-320
-324
-327
-324
-324
-323
-324
-320
-316
-315
-318
-324
-330
-330
-322
-318
-314
-316
-318
-318
-319
-318
-314
-310
-307
-310
-314
-313
-310
-307
-309
-306
-307
-314
-318
-318
-313
-307
-304
-306
-307
-310
-309
-305
-300
-300
-304
-306
-303
-300
-297
-295
-288
-286
-289
-287
-281
-275
-270
-266
-265
-268
-275
-276
-276
-280
-283
-284
-289
-300
-311
-317
-322
-321
-318
-318
-319
-318
-314
-313
-318
-324
-332
-336
-335
-326
-312
-291
-262
-227
-197
-171
-148
-126
-104
-85
-75
-87
-128
-172
-207
-234
-255
-272
-290
-309
-321
-327
-332
-335
-343
-348
-348
-342
-338
-341
-345
-346
-350
-354
-352
-348
-346
-348
-348
-350
-351
-353
-352
-348
-348
-348
-347
-346
-342
-343
-348
-348
-349
-349
-348
-346
-342
-339
-339
-341
-344
-348
-351
-348
-342
-338
-338
-337
-336
-334
-332
-328
-323
-320
-324
-322
-318
-316
-310
-311
-313
-310
-310
-310
-311
-311
-310
-307
-309
-308
-310
-310
-310
-311
-314
-316
-319
-318
-314
-311
-317
-321
-321
-320
-318
-315
-314
-316
-318
-323
-325
-324
-318
-317
-317
-321
-328
-327
-324
-321
-318
-316
-318
-320
-324
-323
-321
-318
-319
-317
-314
-306
-307
-316
-318
-318
-318
-314
-312
-308
-311
-311
-311
-311
-308
-309
-311
-312
-310
-308
-310
-309
-308
-310
-310
-307
-306
-303
-300
-297
-299
-303
-304
-297
-288
-282
-281
-281
-278
-276
-273
-273
-275
-279
-287
-290
-293
-298
-306
-311
-314
-315
-313
-312
-313
-318
-325
-328
-325
-324
-324
-327
-333
-335
-325
-306
-277
-239
-202
-169
-144
-126
-111
-97
-85
-87
-111
-148
-182
-211
-239
-263
-282
-298
-311
-323
-339
-347
-348
-355
-360
-360
-355
-354
-354
-360
-365
-362
-360
-358
-358
-360
-361
-362
-362
-358
-354
-355
-362
-366
-366
-364
-362
-360
-360
-359
-355
-359
-362
-362
-359
-362
-364
-360
-361
-366
-368
-366
-362
-358
-355
-353
-352
-346
-348
-348
-340
-338
-342
-343
-338
-331
-330
-329
-324
-324
-324
-320
-320
-322
-324
-324
-318
-317
-320
-324
-328
-325
-325
-328
-327
-324
-324
-327
-328
-324
-328
-329
-327
-327
-328
-330
-328
-325
-327
-329
-328
-327
-324
-322
-324
-322
-323
-322
-320
-318
-321
-324
-322
-320
-316
-312
-314
-316
-315
-314
-316
-319
-319
-314
-310
-306
-302
-301
-311
-318
-313
-307
-307
-306
-301
-301
-306
-311
-310
-305
-303
-305
-306
-305
-305
-301
-303
-303
-303
-301
-296
-290
-286
-286
-286
-282
-277
-273
-269
-263
-259
-259
-259
-260
-268
-272
-273
-276
-286
-290
-293
-300
-303
-307
-306
-304
-300
-300
-304
-306
-306
-311
-316
-315
-317
-314
-299
-270
-233
-194
-159
-135
-116
-92
-69
-50
-44
-57
-95
-138
-172
-196
-215
-240
-262
-276
-293
-306
-309
-310
-311
-313
-317
-324
-327
-327
-327
-325
-326
-325
-324
-325
-328
-327
-326
-324
-324
-323
-324
-324
-330
-332
-333
-334
-333
-331
-330
-330
-332
-332
-335
-336
-336
-332
-326
-320
-323
-333
-339
-335
-331
-328
-328
-325
-323
-321
-321
-321
-316
-311
-311
-310
-309
-307
-307
-307
-306
-305
-303
-301
-301
-302
-302
-300
-300
-305
-311
-312
-313
-312
-311
-311
-313
-316
-318
-320
-321
-322
-321
-320
-318
-316
-317
-318
-321
-317
-317
-321
-324
-323
-319
-318
-324
-327
-327
-326
-324
-323
-324
-324
-321
-318
-314
-318
-319
-318
-318
-317
-318
-324
-324
-320
-318
-312
-311
-314
-318
-320
-319
-317
-316
-315
-316
-317
-316
-313
-318
-321
-320
-318
-316
-313
-314
-313
-311
-312
-319
-320
-317
-311
-307
-308
-311
-310
-306
-302
-296
-290
-286
-285
-285
-283
-280
-281
-285
-290
-295
-301
-306
-311
-318
-323
-324
-323
-320
-318
-324
-326
-327
-324
-321
-324
-334
-342
-343
-336
-320
-289
-259
-230
-197
-172
-148
-128
-106
-87
-75
-84
-114
-154
-186
-210
-233
-257
-284
-302
-313
-322
-327
-331
-340
-344
-344
-347
-351
-352
-352
-350
-346
-344
-344
-337
-334
-334
-338
-344
-347
-348
-347
-348
-348
-343
-341
-340
-341
-340
-338
-336
-338
-337
-337
-335
-333
-328
-326
-328
-334
-341
-343
-338
-335
-336
-337
-333
-329
-328
-324
-318
-313
-310
-306
-306
-306
-306
-307
-306
-300
-297
-300
-306
-306
-303
-302
-302
-303
-301
-300
-299
-306
-310
-311
-318
-320
-317
-313
-312
-318
-320
-320
-318
-318
-320
-320
-318
-314
-312
-317
-320
-319
-318
-318
-320
-324
-324
-324
-318
-314
-317
-321
-323
-320
-317
-312
-314
-318
-318
-318
-318
-313
-309
-306
-305
-306
-305
-307
-311
-313
-314
-312
-311
-310
-306
-305
-304
-306
-311
-312
-308
-306
-307
-310
-309
-310
-310
-314
-315
-313
-310
-305
-301
-305
-305
-300
-296
-290
-285
-278
-276
-281
-286
-286
-288
-290
-294
-300
-304
-312
-317
-319
-320
-318
-321
-324
-324
-324
-321
-324
-327
-336
-342
-342
-338
-326
-301
-271
-234
-201
-172
-149
-133
-118
-98
-83
-78
-92
-118
-154
-190
-221
-247
-265
-276
-288
-300
-320
-341
-349
-349
-348
-348
-353
-354
-354
-354
-354
-354
-355
-355
-355
-354
-355
-354
-354
-355
-358
-360
-357
-355
-357
-357
-358
-360
-358
-354
-348
-349
-354
-355
-354
-349
-352
-359
-355
-354
-351
-348
-353
-358
-355
-351
-346
-342
-337
-332
-334
-337
-336
-335
-332
-330
-324
-318
-317
-313
-314
-319
-321
-319
-317
-313
-311
-311
-317
-322
-324
-324
-324
-323
-320
-318
-317
-317
-316
-313
-314
-313
-312
-315
-321
-324
-323
-318
-317
-318
-318
-321
-319
-317
-317
-313
-311
-307
-305
-306
-312
-316
-318
-318
-317
-317
-314
-310
-306
-306
-306
-305
-303
-300
-300
-301
-302
-302
-303
-305
-306
-306
-303
-304
-306
-307
-307
-310
-307
-300
-300
-302
-305
-311
-313
-310
-306
-302
-300
-302
-300
-297
-294
-293
-290
-287
-285
-286
-284
-276
-272
-272
-273
-273
-275
-275
-277
-282
-290
-294
-297
-306
-318
-321
-319
-319
-315
-312
-311
-312
-312
-313
-317
-325
-330
-320
-300
-281
-256
-221
-190
-166
-147
-129
-104
-85
-70
-64
-80
-118
-155
-187
-224
-252
-272
-287
-300
-313
-323
-330
-334
-338
-340
-341
-338
-335
-335
-342
-345
-343
-346
-348
-348
-348
-348
-342
-342
-346
-346
-342
-340
-335
-335
-339
-343
-344
-343
-341
-338
-336
-337
-338
-344
-345
-342
-338
-336
-335
-333
-334
-334
-332
-333
-330
-327
-321
-318
-320
-318
-316
-313
-309
-303
-302
-302
-302
-300
-296
-298
-297
-290
-290
-292
-290
-298
-304
-306
-302
-297
-297
-302
-307
-309
-306
-304
-303
-306
-302
-298
-301
-307
-311
-312
-310
-311
-312
-313
-310
-306
-306
-310
-312
-314
-311
-308
-309
-306
-306
-301
-300
-304
-306
-309
-308
-310
-306
-308
-308
-307
-307
-306
-304
-305
-303
-304
-303
-300
-295
-293
-298
-300
-304
-303
-300
-300
-295
-298
-302
-305
-306
-306
-305
-306
-303
-300
-296
-297
-295
-290
-296
-298
-289
-282
-279
-277
-273
-270
-272
-271
-269
-271
-272
-275
-281
-288
-290
-294
-297
-305
-312
-316
-316
-317
-318
-320
-320
-318
-324
-327
-332
-336
-334
-331
-320
-297
-266
-230
-194
-168
-158
-152
-132
-107
-87
-74
-82
-112
-152
-187
-217
-242
-263
-280
-295
-312
-324
-336
-342
-347
-348
-348
-348
-352
-358
-365
-366
-366
-366
-361
-360
-360
-360
-358
-361
-364
-362
-359
-358
-356
-360
-365
-363
-361
-360
-361
-362
-364
-364
-362
-363
-365
-365
-367
-369
-365
-361
-361
-362
-360
-360
-361
-359
-354
-352
-349
-346
-341
-337
-335
-336
-335
-332
-327
-328
-335
-336
-330
-329
-329
-330
-332
-335
-337
-337
-334
-333
-333
-332
-334
-333
-333
-329
-327
-330
-336
-341
-342
-340
-335
-332
-330
-330
-333
-337
-338
-338
-339
-338
-336
-335
-336
-334
-334
-334
-333
-332
-334
-333
-332
-330
-334
-339
-340
-336
-336
-336
-335
-330
-327
-327
-330
-332
-332
-330
-330
-328
-324
-324
-327
-330
-328
-330
-330
-327
-325
-324
-326
-324
-322
-321
-318
-318
-319
-318
-313
-307
-305
-304
-300
-294
-289
-283
-280
-283
-290
-290
-293
-293
-296
-300
-307
-314
-318
-314
-317
-321
-324
-327
-328
-324
-324
-327
-331
-333
-336
-342
-341
-335
-318
-294
-266
-231
-192
-163
-148
-136
-118
-96
-78
-71
-82
-108
-144
-178
-206
-230
-251
-272
-290
-309
-319
-327
-334
-342
-350
-354
-355
-352
-354
-357
-357
-355
-357
-358
-355
-351
-348
-351
-358
-361
-359
-354
-352
-357
-360
-356
-355
-356
-358
-359
-362
-360
-354
-348
-348
-357
-360
-359
-357
-351
-343
-342
-348
-346
-344
-342
-340
-341
-338
-334
-328
-323
-320
-320
-318
-318
-319
-318
-318
-317
-318
-317
-314
-313
