-53
-64
-67
-67
-67
-68
-69
-66
-63
-62
-61
-60
-59
-59
-59
-57
-55
-54
-53
-52
-51
-51
-50
-48
-46
-44
-43
-42
-41
-40
-38
-36
-34
-32
-31
-30
-27
-24
-22
-20
-17
-14
-10
-7
-4
-1
2
5
8
11
13
15
17
19
19
19
21
22
19
16
12
8
4
-1
-6
-11
-16
-21
-25
-28
-32
-34
-36
-37
-37
-37
-38
-39
-40
-41
-40
-39
-39
-39
-41
-40
-39
-39
-39
-40
-41
-41
-41
-40
-39
-39
-39
-39
-39
-40
-41
-40
-39
-40
-41
-41
-41
-40
-39
-40
-41
-40
-39
-40
-41
-42
-42
-40
-39
-39
-39
-39
-39
-39
-39
-39
-38
-37
-38
-39
-39
-39
-39
-39
-38
-37
-38
-39
-39
-39
-39
-39
-39
-39
-38
-37
-38
-39
-38
-37
-37
-37
-36
-35
-36
-37
-36
-35
-34
-33
-33
-33
-34
-34
-32
-31
-30
-32
-35
-36
-37
-33
-29
-23
-17
-18
-19
-17
-15
-12
-10
-15
-20
-24
-27
-27
-27
-25
-24
-26
-28
-31
-33
-34
-35
-35
-35
-34
-33
-34
-35
-34
-31
-28
-28
-30
-79
-131
-177
-223
-171
-110
98
301
451
582
601
613
592
529
345
176
42
-48
-53
-55
-48
-45
-51
-57
-62
-66
-68
-69
-69
-69
-68
-67
-66
-65
-65
-65
-64
-62
-60
-59
-58
-56
-54
-53
-53
-50
-49
-48
-47
-46
-45
-44
-43
-40
-37
-36
-35
-33
-31
-29
-27
-25
-23
-21
-19
-16
-14
-11
-7
-1
2
4
7
10
13
16
19
22
23
23
24
26
26
24
20
16
10
5
0
-5
-9
-13
-17
-21
-23
-25
-28
-31
-32
-33
-33
-33
-34
-35
-34
-33
-33
-33
-34
-35
-35
-35
-36
-37
-37
-37
-36
-35
-35
-35
-35
-35
-35
-35
-34
-34
-36
-37
-39
-39
-39
-38
-37
-38
-39
-39
-39
-37
-35
-34
-33
-35
-37
-37
-37
-37
-37
-35
-33
-36
-37
-37
-37
-36
-34
-32
-31
-32
-33
-34
-35
-34
-33
-32
-31
-31
-31
-32
-32
-33
-30
-31
-31
-31
-31
-31
-32
-33
-30
-27
-27
-27
-28
-29
-28
-27
-27
-27
-27
-27
-26
-25
-26
-27
-27
-27
-27
-27
-26
-25
-25
-25
-24
-23
-24
-25
-26
-26
-24
-23
-22
-23
-25
-24
-23
-23
-23
-20
-16
-10
-5
-7
-9
-7
-4
3
5
-2
-9
-14
-17
-15
-12
-10
-11
-16
-20
-22
-23
-22
-21
-22
-23
-22
-21
-22
-23
-22
-17
-12
-13
-16
-73
-131
-179
-222
-158
-81
110
294
447
573
593
605
585
527
379
228
72
-30
-50
-55
-41
-36
-43
-49
-53
-55
-55
-55
-54
-53
-54
-54
-52
-51
-50
-49
-49
-49
-49
-48
-46
-45
-45
-43
-41
-38
-35
-34
-33
-31
-29
-27
-25
-25
-25
-24
-22
-18
-15
-14
-12
-9
-5
0
3
4
6
8
10
13
16
18
21
24
25
26
28
30
31
32
34
36
35
32
28
25
22
19
15
11
5
-1
-3
-5
-8
-12
-16
-19
-20
-21
-23
-25
-25
-25
-24
-23
-23
-24
-26
-27
-26
-25
-26
-27
-26
-26
-28
-29
-28
-27
-27
-27
-27
-27
-28
-29
-31
-29
-27
-27
-27
-30
-33
-32
-31
-32
-33
-32
-31
-31
-31
-32
-33
-34
-35
-33
-31
-30
-29
-30
-31
-30
-29
-29
-30
-32
-33
-32
-31
-31
-31
-31
-31
-32
-33
-32
-31
-31
-29
-29
-29
-29
-28
-27
-27
-27
-27
-27
-27
-27
-27
-27
-26
-25
-25
-25
-26
-27
-26
-25
-25
-25
-24
-23
-24
-25
-25
-25
-25
-25
-26
-26
-24
-18
-12
-11
-11
-9
-6
-3
-1
-7
-13
-15
-17
-17
-17
-17
-17
-19
-21
-23
-25
-25
-25
-26
-27
-27
-27
-27
-26
-24
-22
-19
-18
-20
-45
-84
-144
-214
-194
-139
17
201
377
551
601
634
614
588
437
281
120
-32
-51
-68
-56
-45
-48
-52
-57
-61
-62
-63
-63
-63
-63
-63
-62
-60
-57
-55
-56
-57
-56
-54
-52
-51
-50
-49
-49
-47
-44
-43
-42
-41
-40
-38
-36
-35
-34
-32
-33
-27
-25
-25
-25
-22
-19
-17
-15
-12
-9
-4
-1
2
6
9
11
13
15
17
19
20
22
24
25
26
26
23
19
15
10
5
0
-4
-9
-16
-21
-26
-28
-30
-32
-34
-36
-37
-37
-37
-37
-37
-38
-39
-39
-39
-40
-41
-40
-39
-39
-39
-39
-39
-38
-37
-38
-39
-38
-37
-38
-39
-39
-39
-39
-39
-39
-39
-39
-40
-42
-42
-40
-39
-40
-41
-41
-41
-41
-41
-41
-40
-39
-40
-41
-41
-41
-41
-41
-40
-39
-40
-41
-41
-41
-39
-37
-38
-39
-39
-39
-39
-39
-39
-39
-38
-37
-37
-37
-37
-37
-36
-35
-35
-35
-35
-35
-36
-37
-37
-34
-33
-34
-35
-35
-35
-35
-35
-34
-33
-33
-33
-33
-33
-33
-33
-31
-29
-30
-31
-32
-33
-33
-33
-32
-29
-25
-21
-17
-16
-18
-14
-7
-7
-10
-16
-22
-23
-24
-24
-22
-22
-23
-26
-29
-30
-31
-31
-31
-31
-31
-32
-33
-32
-31
-29
-27
-26
-29
-42
-80
-150
-188
-194
-135
-22
150
361
494
583
610
608
550
471
293
89
2
-61
-58
-45
-45
-48
-55
-63
-64
-65
-65
-65
-65
-65
-65
-65
-65
-65
-62
-59
-59
-59
-58
-57
-55
-53
-51
-49
-48
-47
-46
-45
-44
-43
-42
-41
-40
-39
-38
-35
-32
-31
-30
-27
-24
-22
-20
-17
-19
-9
-5
-3
-1
3
7
11
15
18
21
24
27
29
31
31
31
30
28
24
19
14
9
5
1
-3
-7
-11
-15
-19
-23
-26
-27
-27
-28
-30
-31
-32
-33
-32
-31
-31
-31
-31
-32
-33
-32
-31
-30
-29
-30
-31
-31
-31
-31
-31
-31
-31
-32
-33
-33
-33
-34
-34
-32
-32
-34
-35
-35
-35
-35
-34
-32
-31
-30
-29
-30
-32
-34
-34
-32
-31
-31
-32
-35
-35
-35
-32
-29
-28
-27
-27
-27
-27
-27
-28
-29
-29
-29
-28
-27
-28
-29
-27
-25
-26
-27
-26
-25
-24
-23
-23
-23
-24
-25
-25
-25
-25
-24
-22
-21
-22
-23
-23
-23
-23
-20
-19
-20
-21
-22
-23
-21
-19
-18
-17
-18
-19
-19
-19
-19
-19
-20
-19
-13
-9
-6
-5
-5
-3
3
5
6
1
-8
-11
-12
-13
-12
-11
-10
-11
-14
-16
-18
-19
-18
-17
-17
-17
-17
-18
-19
-17
-15
-12
-11
-21
-47
-118
-174
-196
-176
-76
69
282
450
565
616
602
567
516
378
179
50
-39
-60
-48
-40
-33
-35
-41
-46
-50
-51
-51
-51
-51
-51
-49
-48
-47
-48
-49
-48
-47
-43
-39
-39
-39
-39
-39
-37
-35
-34
-33
-31
-29
-28
-27
-27
-26
-23
-20
-17
-14
-12
-10
-8
-7
-6
-3
0
3
6
9
12
16
20
23
21
28
29
31
33
34
35
39
43
42
41
38
34
30
26
21
16
13
9
3
-3
-8
-12
-14
-16
-18
-20
-22
-23
-24
-25
-25
-25
-26
-27
-27
-26
-24
-23
-24
-25
-26
-28
-29
-29
-29
-27
-25
-27
-29
-30
-31
-31
-31
-30
-29
-28
-27
-28
-29
-30
-31
-31
-31
-31
-31
-31
-31
-32
-32
-30
-29
-29
-29
-28
-27
-28
-29
-28
-27
-27
-27
-28
-29
-27
-27
-27
-26
-25
-25
-25
-27
-29
-27
-25
-24
-23
-24
-25
-25
-25
-25
-25
-24
-23
-24
-25
-25
-25
-24
-23
-23
-23
-24
-25
-25
-22
-16
-12
-8
-8
-10
-5
2
-1
3
-10
-13
-16
-19
-18
-17
-15
-13
-15
-17
-19
-21
-22
-23
-23
-23
-23
-23
-22
-21
-21
-20
-17
-15
-15
-43
-90
-147
-210
-193
-142
-4
163
343
526
592
636
620
595
476
351
182
16
-29
-70
-55
-41
-41
-42
-49
-55
-57
-59
-58
-57
-57
-57
-56
-55
-55
-55
-54
-53
-52
-51
-50
-49
-48
-47
-46
-44
-42
-41
-40
-39
-39
-37
-34
-33
-32
-30
-28
-27
-25
-23
-21
-19
-17
-14
-11
-9
-7
-5
-2
2
5
7
10
14
17
19
21
23
25
28
29
29
28
26
24
22
18
13
7
1
-4
-10
-14
-18
-21
-24
-26
-28
-30
-29
-33
-33
-33
-33
-34
-35
-34
-33
-33
-33
-33
-33
-34
-35
-34
-33
-32
-31
-33
-35
-35
-35
-34
-33
-34
-35
-34
-33
-34
-35
-35
-35
-35
-35
-35
-35
-36
-37
-37
-37
-36
-35
-35
-35
-35
-35
-35
-34
-33
-33
-33
-33
-33
-33
-33
-32
-31
-32
-33
-33
-33
-33
-33
-33
-33
-32
-31
-31
-31
-31
-31
-30
-29
-29
-29
-29
-29
-29
-29
-29
-29
-29
-29
-31
-30
-29
-26
-23
-20
-17
-14
-11
-8
-5
-8
-12
-16
-19
-20
-21
-23
-25
-24
-23
-22
-22
-24
-25
-26
-27
-28
-29
-29
-29
-29
-29
-28
-26
-24
-22
-20
-27
-36
-96
-37
-180
-198
-128
-44
159
353
483
591
603
605
571
490
292
124
14
-54
-48
-44
-41
-41
-48
-53
-57
-59
-59
-59
-59
-59
-60
-61
-60
-58
-56
-55
-55
-55
-54
-52
-50
-49
-48
-46
-45
-44
-43
-41
-39
-37
-35
-35
-35
-34
-33
-31
-29
-27
-25
-23
-21
-20
-18
-15
-11
-7
-4
-1
2
4
6
10
13
16
19
22
23
24
26
28
30
32
33
32
27
21
17
13
9
5
0
-5
-9
-13
-17
-21
-22
-23
-25
-27
-27
-27
-27
-27
-27
-27
-27
-28
-30
-30
-28
-27
-28
-29
-29
-29
-29
-29
-28
-27
-28
-29
-29
-30
-32
-33
-33
-31
-31
-31
-31
-31
-31
-30
-29
-29
-29
-31
-33
-33
-33
-32
-31
-31
-31
-30
-29
-29
-29
-29
-29
-28
-27
-28
-29
-28
-27
-27
-27
-26
-25
-26
-27
-26
-25
-25
-25
-25
-25
-25
-23
-21
-22
-23
-22
-21
-22
-23
-23
-23
-22
-21
-20
-19
-19
-19
-21
-23
-21
-18
-16
-14
-11
-8
-6
-3
1
3
4
0
-7
-9
-9
-10
-12
-13
-13
-13
-12
-11
-13
-14
-15
-16
-17
-19
-21
-20
-19
-18
-17
-15
-13
-11
-9
-10
-27
-70
-121
-181
-189
-137
-14
172
345
509
585
607
602
583
468
315
166
17
-28
-49
-43
-31
-30
-32
-38
-33
-48
-51
-50
-49
-50
-51
-48
-45
-44
-43
-43
-43
-44
-44
-41
-38
-35
-33
-33
-33
-33
-32
-30
-28
-25
-23
-23
-23
-23
-21
-17
-12
-7
-5
-4
-3
-3
-1
2
5
8
10
11
13
15
19
23
28
33
34
35
38
41
40
39
41
43
42
40
36
32
29
25
21
17
12
6
0
-3
-4
-7
-11
-15
-18
-19
-19
-20
-22
-23
-22
-21
-21
-21
-21
-20
-19
-19
-19
-21
-23
-24
-25
-25
-25
-24
-23
-24
-25
-25
-25
-25
-25
-25
-25
-28
-29
-29
-29
-28
-27
-26
-27
-30
-31
-32
-31
-28
-27
-27
-27
-28
-29
-28
-27
-27
-30
-31
-29
-27
-27
-27
-26
-25
-26
-27
-28
-29
-28
-27
-27
-27
-27
-27
-25
-23
-24
-25
-25
-24
-22
-20
-18
-16
-14
-12
-10
-6
-1
-1
-4
-8
-12
-14
-16
-17
-17
-18
-19
-20
-21
-23
-25
-25
-25
-26
-27
-28
-29
-30
-31
-27
-25
-23
-21
-19
-22
-33
-77
-155
-195
-203
-129
3
190
407
528
606
609
583
514
433
263
73
-7
-71
-67
-56
-49
-41
-47
-53
-55
-57
-59
-61
-60
-59
-57
-55
-55
-55
-54
-53
-52
-51
-50
-49
-48
-47
-46
-45
-44
-42
-40
-39
-38
-37
-36
-34
-32
-31
-30
-28
-26
-25
-24
-21
-18
-16
-17
-10
-7
-5
-3
-1
1
4
7
10
13
14
15
17
19
21
23
22
21
19
16
13
10
7
3
-1
-5
-9
-14
-19
-22
-24
-28
-32
-34
-36
-37
-37
-37
-38
-39
-38
-38
-39
-39
-39
-37
-35
-35
-35
-36
-37
-38
-39
-38
-37
-37
-37
-37
-37
-38
-39
-39
-39
-39
-40
-42
-43
-43
-43
-43
-42
-40
-39
-40
-41
-41
-41
-41
-41
-40
-39
-40
-41
-41
-41
-41
-40
-39
-39
-39
-40
-41
-41
-41
-40
-39
-40
-41
-40
-39
-39
-39
-38
-37
-38
-38
-35
-33
-33
-30
-25
-22
-20
-19
-18
-17
-18
-22
-26
-27
-28
-30
-32
-33
-33
-32
-33
-33
-33
-35
-37
-39
-41
-39
-37
-37
-37
-37
-37
-35
-32
-29
-35
-56
-99
-169
-199
-191
-116
11
191
405
526
597
612
600
527
433
258
62
-16
-72
-67
-52
-51
-52
-59
-65
-68
-71
-72
-73
-71
-69
-69
-69
-68
-67
-66
-65
-63
-61
-61
-61
-60
-59
-58
-56
-54
-53
-52
-51
-51
-50
-48
-47
-46
-44
-42
-41
-40
-37
-34
-31
-28
-26
-24
-22
-19
-15
-11
-8
-5
-3
-1
2
5
8
11
14
17
18
19
20
21
21
21
19
15
10
4
-2
-7
-13
-16
-19
-23
-27
-31
-34
-35
-36
-37
-37
-37
-38
-39
-39
-39
-39
-38
-37
-38
-39
-39
-39
-38
-37
-37
-37
-38
-39
-40
-41
-40
-39
-39
-39
-39
-39
-40
-41
-41
-41
-40
-39
-39
-39
-40
-41
-40
-39
-39
-39
-39
-39
-39
-39
-39
-39
-38
-37
-37
-38
-39
-39
-39
-38
-37
-37
-37
-37
-37
-37
-37
-36
-35
-36
-37
-36
-35
-35
-35
-35
-35
-34
-33
-34
-35
-34
-33
-32
-31
-31
-31
-32
-33
-32
-31
-30
-30
-32
-33
-33
-30
-27
-23
-19
-17
-15
-12
-9
-10
-12
-16
-19
-21
-24
-27
-29
-27
-25
-24
-24
-27
-30
-32
-33
-33
-33
-32
-31
-31
-31
-31
-31
-30
-26
-22
-26
-32
-87
-148
-178
-151
-140
-66
138
335
468
584
593
597
574
510
318
146
27
-53
-52
-50
-46
-46
-53
-58
-61
-63
-64
-65
-65
-65
-64
-63
-63
-62
-60
-59
-59
-58
-56
-55
-54
-53
-53
-52
-50
-49
-49
-48
-47
-45
-43
-41
-39
-38
-37
-35
-33
-32
-31
-27
-25
-23
-21
-19
-16
-13
-10
-7
-4
-2
0
3
6
10
12
14
17
20
21
22
24
26
27
26
22
18
15
11
6
1
-3
-7
-11
-15
-17
-19
-21
-23
-24
-25
-26
-27
-28
-29
-29
-29
-29
-29
-30
-31
-30
-29
-30
-30
-28
-27
-28
-29
-30
-31
-31
-31
-31
-32
-34
-35
-36
-37
-37
-34
-33
-34
-35
-35
-35
-35
-35
-33
-31
-32
-33
-34
-35
-34
-33
-32
-31
-32
-33
-33
-33
-33
-32
-30
-29
-30
-31
-31
-31
-31
-31
-31
-31
-31
-31
-30
-29
-28
-27
-27
-27
-27
-27
-27
-27
-27
-26
-25
-26
-27
-27
-27
-26
-25
-25
-25
-24
-23
-24
-25
-24
-23
-23
-23
-23
-23
-24
-25
-24
-23
-22
-21
-21
-21
-22
-23
-23
-23
-23
-22
-20
-15
-9
-10
-11
-5
1
3
5
-2
-7
-11
-15
-16
-17
-17
-17
-15
-13
-14
-15
-17
-19
-19
-19
-19
-19
-19
-19
-20
-21
-20
-18
-16
-15
-14
-42
-79
-143
-212
-189
-155
-2
-153
349
535
578
616
597
562
424
281
121
-10
-43
-63
-47
-35
-36
-38
-44
-48
-51
-53
-56
-56
-54
-52
-50
-49
-49
-49
-48
-47
-46
-45
-45
-45
-44
-42
-40
-38
-36
-34
-32
-33
-35
-32
-29
-28
-27
-25
-23
-22
-21
-18
-15
-12
-9
-7
-5
-3
-1
0
1
2
5
9
11
11
12
15
18
20
21
21
22
24
25
25
25
24
19
14
12
10
6
1
-2
-5
-9
-13
-15
-17
-19
-21
-21
-21
-24
-27
-26
-25
-24
-23
-24
-25
-25
-25
-25
-25
-25
-26
-28
-28
-26
-25
-25
-26
-28
-30
-32
-32
-30
-30
-32
-33
-32
-31
-31
-31
-31
-32
-33
-33
-33
-33
-33
-32
-31
-31
-31
-32
-33
-33
-33
-33
-33
-33
-33
-32
-31
-30
-29
-29
-29
-28
-28
-30
-31
-31
-31
-30
-29
-29
-29
-30
-30
-28
-27
-26
-25
-25
-27
-29
-28
-27
-26
-25
-26
-27
-28
-29
-29
-28
-24
-20
-16
-13
-13
-10
-3
1
0
-5
-13
-18
-20
-22
-24
-23
-19
-17
-17
-19
-22
-23
-24
-25
-25
-25
-24
-23
-25
-24
-23
-23
-23
-20
-17
-18
-29
-79
-132
-192
-219
-162
-65
110
285
461
578
616
624
596
524
411
263
90
-6
-56
-62
-46
-41
-41
-45
-51
-53
-54
-55
-56
-57
-57
-57
-57
-54
-53
-52
-51
-52
-53
-51
-49
-47
-45
-44
-43
-42
-41
-39
-37
-35
-33
-32
-31
-31
-30
-28
-26
-23
-21
-21
-20
-18
-16
-14
-10
-6
-5
-4
-1
2
4
6
8
10
12
13
14
15
17
19
21
23
22
21
18
14
10
7
3
0
-4
-9
-14
-18
-21
-23
-23
-24
-26
-27
-28
-29
-29
-29
-29
-29
-30
-31
-31
-31
-30
-29
-29
-29
-29
-29
-29
-28
-27
-27
-27
-29
-31
-31
-31
-31
-31
-31
-31
-32
-33
-33
-33
-32
-31
-30
-29
-30
-31
-31
-31
-31
-30
-28
-28
-30
-31
-31
-31
-30
-29
-28
-27
-27
-27
-28
-29
-29
-27
-27
-27
-27
-27
-27
-27
-27
-26
-25
-25
-25
-25
-25
-24
-23
-23
-23
-23
-23
-23
-23
-23
-23
-23
-23
-23
-21
-18
-15
-12
-9
-6
-3
0
1
0
-5
-10
-11
-12
-16
-19
-17
-15
-16
-17
-17
-17
-20
-23
-23
-23
-23
-23
-21
-19
-19
-19
-19
-18
-15
-13
-13
-30
-62
-112
-174
-186
-167
-59
91
273
466
555
614
616
605
529
444
260
68
3
-57
-45
-33
-34
-35
-42
-49
-52
-55
-56
-57
-55
-53
-53
-53
-53
-53
-52
-51
-49
-47
-47
-46
-44
-43
-42
-40
-38
-37
-36
-35
-34
-33
-32
-30
-28
-27
-26
-24
-22
-21
-21
-15
-11
-10
-9
-7
-5
-3
-1
3
7
10
13
16
19
21
24
27
29
30
31
31
31
31
30
28
25
21
15
9
5
2
-1
-4
-8
-12
-16
-20
-21
-22
-23
-22
-22
-23
-24
-25
-25
-25
-25
-25
-25
-25
-26
-27
-26
-25
-25
-25
-26
-27
-28
-29
-28
-27
-27
-27
-27
-28
-30
-31
-30
-29
-28
-28
-30
-31
-31
-31
-31
-30
-28
-27
-28
-29
-31
-30
-29
-28
-27
-28
-29
-29
-29
-29
-29
-28
-27
-27
-27
-28
-29
-28
-27
-26
-25
-25
-25
-25
-25
-25
-25
-25
-25
-26
-27
-27
-27
-27
-26
-24
-23
-24
-25
-24
-23
-23
-23
-23
-24
-25
-24
-23
-24
-25
-25
-25
-24
-22
-17
-13
-11
-8
-5
-3
-2
-2
-7
-10
-13
-16
-18
-19
-18
-17
-17
-17
-18
-21
-24
-25
-26
-27
-27
-27
-26
-25
-24
-23
-23
-20
-17
-19
-26
-70
-115
-167
-197
-149
-61
137
318
465
568
596
609
596
518
359
206
58
-22
-47
-51
-41
-40
-45
-50
-55
-58
-60
-61
-60
-59
-58
-57
-57
-57
-56
-55
-57
-55
-53
-52
-51
-49
-47
-47
-47
-46
-45
-43
-41
-40
-39
-39
-39
-38
-37
-35
-33
-30
-28
-26
-24
-22
-21
-20
-17
-13
-9
-6
-4
-2
1
4
6
8
11
14
17
15
23
25
26
27
28
29
28
27
25
22
17
12
7
3
2
0
-6
-11
-16
-20
-23
-25
-24
-23
-24
-26
-28
-29
-29
-29
-29
-29
-28
-27
-27
-28
-30
-31
-30
-29
-30
-32
-33
-33
-33
-31
-29
-30
-31
-33
-35
-34
-33
-33
-33
-33
-33
-34
-35
-35
-34
-31
-29
-29
-31
-35
-36
-34
-33
-33
-33
-32
-31
-31
-31
-31
-31
-32
-33
-32
-31
-31
-31
-29
-29
-29
-31
-33
-33
-33
-30
-27
-29
-31
-30
-29
-30
-31
-29
-27
-27
-27
-26
-26
-31
-32
-30
-28
-25
-21
-17
-15
-14
-8
-1
0
-2
-7
-12
-15
-18
-21
-24
-22
-25
-18
-19
-21
-23
-25
-27
-28
-29
-28
-27
-27
-27
-27
-27
-26
-24
-21
-19
-21
-48
-102
-158
-214
-204
-142
-7
174
347
515
585
615
600
570
449
306
151
-5
-46
-73
-60
-44
-45
-47
-51
-55
-58
-61
-59
-57
-58
-59
-58
-57
-56
-55
-53
-51
-51
-51
-50
-49
-47
-44
-42
-40
-38
-38
-40
-40
-36
-34
-32
-31
-30
-29
-28
-25
-22
-20
-18
-16
-14
-12
-9
-7
-5
-1
3
5
7
8
9
12
15
16
17
17
17
18
19
19
19
17
13
8
4
1
-3
-7
-10
-13
-17
-21
-25
-28
-29
-30
-31
-30
-31
-34
-35
-35
-35
-35
-32
-31
-32
-33
-34
-35
-34
-33
-31
-29
-31
-33
-34
-35
-34
-33
-34
-35
-35
-35
-36
-37
-36
-35
-36
-37
-37
-37
-37
-37
-37
-37
-36
-35
-36
-37
-37
-37
-36
-35
-34
-34
-35
-36
-37
-36
-35
-34
-33
-34
-35
-35
-35
-34
-33
-33
-33
-33
-33
-33
-33
-34
-34
-32
-31
-32
-33
-34
-34
-32
-29
-26
-23
-20
-19
-18
-13
-8
-9
-12
-17
-22
-23
-25
-26
-27
-25
-23
-24
-25
-27
-29
-30
-31
-31
-31
-32
-33
-33
-33
-32
-31
-30
-28
-25
-26
-32
-70
-131
-174
-204
-167
-94
74
279
432
569
604
617
597
572
404
222
86
213
-55
-61
-52
-43
-49
-55
-59
-63
-64
-65
-66
-67
-66
-65
-64
-63
-62
-61
-60
-59
-59
-59
-58
-55
-51
-49
-48
-47
-47
-47
-46
-44
-42
-41
-40
-39
-38
-36
-34
-31
-28
-26
-25
-23
-21
-18
-15
-11
-7
-5
-3
1
5
8
11
13
15
17
19
20
21
23
25
25
23
19
15
11
6
1
-4
-9
-14
-18
-21
-24
-26
-28
-29
-30
-31
-32
-33
-33
-33
-33
-33
-33
-33
-33
-33
-33
-34
-35
-34
-33
-34
-35
-35
-35
-34
-33
-33
-33
-33
-33
-33
-33
-34
-35
-35
-35
-35
-35
-35
-35
-35
-35
-34
-33
-34
-35
-35
-35
-35
-34
-33
-33
-33
-34
-35
-35
-35
-33
-31
-32
-33
-34
-35
-34
-33
-33
-33
-32
-31
-31
-31
-30
-29
-29
-29
-29
-29
-29
-29
-30
-30
-28
-27
-28
-29
-29
-29
-28
-27
-27
-27
-27
-29
-31
-30
-29
-26
-23
-20
-17
-15
-12
-8
-5
-4
-5
-11
-15
-17
-19
-21
-23
-22
-21
-21
-22
-24
-25
-25
-25
-25
-25
-26
-27
-27
-27
-27
-27
-26
-23
-20
-20
-23
-65
-108
-162
-207
-162
-94
93
276
443
575
602
617
600
533
369
211
62
-30
-48
-52
-41
-38
-45
-51
-57
-60
-62
-63
-63
-63
-63
-63
-62
-60
-58
-57
-57
-57
-56
-54
-55
-50
-49
-48
-47
-47
-47
-45
-43
-41
-39
-39
-39
-38
-36
-33
-31
-30
-29
-27
-25
-24
-22
-19
-16
-13
-10
-7
-4
-2
1
5
8
10
12
14
16
18
20
22
23
24
23
21
16
11
7
3
0
-3
-9
-13
-17
-21
-23
-25
-25
-26
-29
-31
-32
-33
-33
-33
-32
-31
-32
-33
-32
-31
-31
-31
-30
-30
-32
-33
-33
-33
-34
-35
-35
-35
-35
-35
-35
-35
-35
-34
-33
-34
-35
-35
-35
-36
-37
-36
-35
-37
-39
-39
-39
-38
-37
-36
-35
-35
-35
-35
-35
-34
-33
-33
-33
-34
-35
-34
-33
-33
-33
-32
-31
-32
-33
-33
-33
-33
-32
-31
-31
-31
-31
-31
-32
-33
-31
-29
-30
-31
-31
-31
-30
-28
-24
-20
-16
-13
-16
-13
-4
0
-2
-6
-11
-15
-19
-21
-21
-21
-20
-20
-22
-24
-26
-28
-30
-30
-28
-29
-31
-30
-29
-29
-29
-25
-21
-23
-33
-73
-120
-185
-215
-160
-56
139
321
485
580
592
591
573
467
287
133
-2
-55
-62
-57
-45
-44
-49
-54
-58
-59
-59
-59
-58
-57
-57
-57
-57
-57
-57
-55
-53
-50
-47
-49
-51
-50
-49
-46
-43
-42
-41
-40
-38
-34
-31
-30
-29
-28
-26
-24
-22
-20
-18
-16
-15
-15
-13
-8
-5
-2
1
4
6
8
11
14
15
15
20
23
23
23
23
23
24
25
23
20
15
10
6
3
2
-1
-7
-12
-15
-17
-20
-21
-22
-24
-27
-29
-30
-31
-32
-32
-30
-29
-28
-27
-27
-27
-28
-29
-29
-29
-30
-32
-33
-31
-29
-29
-29
-28
-27
-30
-33
-33
-33
-34
-35
-35
-35
-34
-33
-33
-33
-32
-31
-30
-30
-32
-33
-34
-34
-32
-31
-30
-29
-29
-29
-29
-29
-28
-27
-27
-28
-30
-31
-31
-30
-29
-28
-27
-27
-27
-26
-25
-27
-29
-28
-27
-28
-29
-27
-24
-20
-16
-12
-8
-3
-1
0
-1
-5
-8
-10
-13
-16
-17
-18
-17
-14
-16
-20
-22
-24
-25
-26
-27
-27
-26
-23
-23
-23
-23
-23
-19
-15
-18
-36
-100
-159
-202
-201
-109
27
237
413
542
609
604
583
547
417
213
70
-35
-67
-60
-50
-38
-38
-43
-48
-52
-54
-56
-57
-56
-53
-50
-50
-51
-50
-49
-47
-45
-44
-43
-42
-41
-40
-39
-37
-35
-33
-31
-32
-32
-29
-27
-25
-23
-22
-21
-20
-18
-15
-12
-8
-6
-4
-2
0
2
4
6
8
12
16
17
18
21
25
26
27
28
29
29
29
27
25
23
20
15
10
6
2
-3
-8
-11
-13
-15
-18
-21
-24
-26
-27
-27
-27
-27
-27
-27
-27
-27
-27
-27
-26
-24
-23
-24
-25
-25
-25
-25
-27
-27
-27
-27
-27
-27
-26
-25
-25
-25
-26
-27
-27
-27
-26
-25
-25
-25
-25
-25
-26
-27
-27
-27
-26
-25
-26
-27
-27
-27
-27
-27
-26
-25
-25
-25
-26
-27
-27
-27
-26
-25
-25
-25
-25
-25
-25
-25
-25
-25
-25
-25
-25
-23
-21
-17
-14
-11
-9
-7
-5
-3
-1
-2
-5
-9
-13
-17
-19
-18
-17
-16
-15
-16
-19
-22
-23
-24
-25
-24
-23
-23
-23
-25
-24
-23
-21
-19
-18
-20
-45
-78
-147
-194
-173
-113
36
204
407
552
606
630
614
545
422
267
84
-13
-49
-55
-42
-41
-47
-52
-57
-59
-59
-59
-59
-59
-59
-59
-59
-58
-59
-54
-53
-52
-51
-50
-49
-48
-47
-45
-43
-43
-43
-41
-39
-37
-35
-34
-33
-32
-31
-28
-26
-24
-22
-19
-16
-14
-12
-10
-7
-4
-1
2
6
10
13
16
19
22
25
28
30
31
33
35
35
35
31
27
21
16
10
4
-1
-5
-9
-12
-16
-19
-21
-23
-24
-25
-26
-27
-28
-29
-29
-29
-28
-27
-27
-27
-28
-29
-29
-29
-29
-29
-28
-27
-28
-29
-29
-29
-29
-29
-29
-29
-29
-31
-33
-32
-31
-31
-31
-32
-33
-32
-31
-31
-31
-31
-31
-31
-31
-31
-31
-31
-31
-30
-29
-30
-31
-31
-31
-31
-31
-30
-29
-30
-31
-30
-29
-29
-29
-29
-28
-27
-28
-29
-29
-29
-29
-29
-28
-27
-27
-27
-27
-27
-26
-25
-25
-25
-26
-26
-24
-23
-23
-23
-24
-25
-25
-25
-25
-25
-25
-21
-14
-12
-10
-9
-9
-2
6
1
-5
-11
-17
-18
-19
-18
-17
-17
-17
-20
-23
-25
-27
-27
-27
-27
-27
-27
-27
-27
-26
-24
-22
-20
-21
-25
-59
-109
-153
-194
-160
-99
69
267
419
563
593
607
593
574
402
225
89
-39
-44
-49
-43
-37
-44
-50
-55
-59
-60
-61
-61
-61
-62
-63
-61
-59
-58
-57
-56
-55
-54
-53
-52
-50
-48
-47
-46
-45
-45
-44
-42
-41
-40
-39
-38
-35
-32
-31
-31
-26
-23
-22
-21
-19
-17
-14
-11
-9
-7
-4
0
4
8
11
13
15
18
21
23
24
26
28
29
29
28
25
22
20
17
13
8
3
-3
-8
-13
-18
-19
-20
-21
-22
-24
-25
-25
-25
-26
-27
-26
-25
-27
-29
-29
-29
-28
-27
-27
-27
-28
-29
-29
-29
-29
-29
-29
-29
-30
-31
-32
-33
-33
-33
-32
-31
-30
-31
-34
-35
-35
-35
-35
-34
-32
-31
-31
-31
-31
-31
-31
-31
-31
-31
-31
-31
-31
-31
-31
-32
-33
-32
-31
-31
-31
-29
-27
-27
-27
-28
-29
-28
-26
-23
-21
-22
-24
-26
-27
-26
-25
-25
-25
-26
-27
-27
-27
-27
-24
-23
-24
-25
-24
-23
-23
-23
-22
-21
-20
-19
-21
-23
-25
-26
-23
-18
-11
-7
-8
-7
-3
0
3
2
-4
-9
-13
-15
-15
-14
-12
-11
-12
-14
-16
-18
-20
-21
-21
-21
-21
-21
-21
-20
-19
-16
-13
-12
-17
-45
-87
-164
-207
-173
-97
55
221
409
537
590
603
573
517
441
301
119
14
-47
-58
-45
-40
-38
-41
-47
-50
-52
-53
-52
-51
-51
-51
-51
-50
-49
-49
-49
-47
-45
-44
-43
-43
-43
-41
-39
-36
-33
-33
-32
-29
-27
-26
-25
-24
-23
-22
-20
-18
-16
-13
-10
-8
-6
-4
-1
2
4
6
8
10
14
18
19
19
21
21
25
29
29
29
31
33
30
27
26
24
20
16
13
10
6
2
-2
-7
-14
-17
-17
-18
-21
-24
-26
-26
-24
-23
-23
-23
-24
-25
-26
-27
-27
-27
-26
-25
-24
-25
-27
-26
-25
-25
-25
-26
-27
-28
-29
-28
-27
-28
-29
-29
-29
-29
-29
-29
-29
-29
-29
-29
-29
-29
-29
-30
-31
-30
-29
-29
-29
-28
-27
-28
-29
-28
-27
-26
-26
-28
-29
-29
-28
-27
-26
-25
-26
-27
-27
-27
-26
-25
-24
-23
-24
-25
-25
-25
-24
-23
-22
-21
-24
-25
-25
-25
-24
-24
-26
-26
-24
-21
-18
-14
-10
-9
-8
-4
0
-4
-10
-12
-11
-17
-19
-19
-19
-18
-17
-18
-19
-20
-21
-23
-25
-24
-23
-23
-23
-22
-21
-20
-19
-16
-15
-15
-35
-71
-127
-197
-200
-167
-54
94
283
485
574
633
623
598
493
379
198
12
-32
-73
-58
-43
-44
-45
-49
-53
-55
-57
-57
-57
-57
-57
-56
-55
-54
-53
-53
-53
-52
-50
-48
-47
-47
-47
-46
-44
-42
-40
-38
-37
-36
-35
-35
-33
-30
-28
-26
-25
-24
-22
-19
-16
-13
-11
-9
-7
-5
-2
1
5
9
11
13
15
17
18
20
23
25
26
27
27
27
26
23
19
14
9
4
-1
-6
-11
-16
-20
-22
-24
-27
-30
-31
-32
-33
-33
-33
-33
-34
-35
-34
-33
-32
-31
-32
-33
-32
-31
-31
-31
-31
-31
-31
-31
-31
-31
-32
-33
-33
-33
-32
-31
-32
-33
-34
-35
-34
-33
-33
-33
-33
-33
-34
-35
-35
-35
-34
-34
-35
-35
-35
-34
-33
-32
-31
-32
-33
-33
-33
-33
-33
-33
-33
-33
-33
-32
-31
-31
-31
-30
-29
-29
-29
-30
-31
-31
-31
-30
-29
-29
-29
-29
-29
-28
-27
-27
-27
-27
-27
-27
-27
-27
-28
-29
-30
-31
-28
-25
-21
-17
-17
-16
-11
-7
-6
-7
-12
-15
-17
-20
-23
-25
-24
-23
-22
-21
-22
-25
-28
-29
-30
-31
-31
-30
-28
-27
-28
-29
-28
-26
-27
-23
-25
-71
-117
-170
-208
-157
-78
120
309
463
581
603
614
598
529
373
218
64
-28
-47
-52
-42
-39
-45
-50
-55
-58
-60
-61
-61
-61
-61
-61
-60
-59
-58
-57
-56
-54
-52
-51
-51
-50
-49
-47
-45
-44
-43
-43
-43
-41
-39
-37
-35
-33
-31
-30
-29
-28
-27
-25
-22
-19
-17
-16
-14
-12
-10
-6
-3
1
6
10
12
14
17
20
23
26
27
28
29
31
31
31
29
27
22
17
10
5
1
-4
-9
-14
-18
-21
-23
-25
-26
-27
-27
-27
-30
-31
-30
-29
-29
-29
-29
-29
-29
-29
-30
-31
-31
-31
-30
-29
-29
-31
-34
-35
-35
-32
-31
-31
-31
-34
-37
-36
-35
-34
-33
-34
-35
-35
-35
-35
-35
-34
-33
-34
-35
-34
-33
-33
-33
-32
-31
-32
-33
-33
-33
-32
-31
-30
-29
-30
-31
-31
-31
-32
-32
-30
-28
-27
-29
-31
-30
-29
-29
-29
-30
-31
-30
-29
-28
-27
-26
-25
-27
-29
-28
-27
-26
-25
-26
-27
-26
-25
-25
-25
-25
-25
-25
-25
-26
-27
-26
-25
-25
-24
-22
-21
-21
-22
-25
-25
-25
-25
-25
-21
-17
-13
-9
-8
-6
-2
0
-5
-10
-13
-15
-17
-19
-18
-17
-16
-16
-18
-20
-22
-23
-23
-23
-24
-25
-24
-23
-22
-21
-20
-19
-19
-16
-12
-23
-11
-109
-179
-189
-189
-79
47
263
456
549
617
600
577
540
449
246
85
-7
-58
-50
-44
-39
-39
-43
-47
-51
-54
-56
-57
-56
-55
-54
-52
-50
-49
-50
-51
-50
-48
-46
-44
-42
-41
-41
-40
-39
-37
-35
-34
-33
-32
-31
-30
-29
-27
-24
-20
-17
-16
-15
-13
-11
-9
-5
-1
2
4
5
6
10
15
19
22
24
26
27
28
30
32
35
38
39
38
36
33
31
29
24
19
14
9
4
-1
-5
-9
-11
-13
-15
-18
-21
-23
-23
-23
-21
-19
-22
-24
-26
-26
-24
-23
-23
-24
-26
-27
-28
-29
-28
-27
-26
-26
-28
-29
-29
-29
-29
-28
-25
-27
-29
-30
-31
-29
-27
-28
-29
-30
-31
-31
-31
-30
-29
-28
-27
-28
-29
-29
-29
-29
-29
-29
-29
-29
-29
-29
-27
-24
-23
-24
-25
-26
-27
-28
-29
-28
-27
-28
-27
-25
-25
-25
-25
-25
-26
-27
-26
-25
-26
-27
-24
-21
-22
-23
-24
-25
-25
-25
-23
-21
-21
-21
-22
-23
-23
-23
-24
-25
-24
-20
-15
-13
-12
-11
-10
-5
0
-3
-8
-11
-15
-18
-21
-18
-15
-15
-15
-16
-17
-18
-19
-21
-23
-22
-21
-21
-21
-20
-19
-18
-17
-16
-15
-14
-29
-58
-116
-192
-204
-185
-82
53
242
448
550
628
617
592
546
498
305
495
17
-67
-58
-49
-44
-39
-43
-47
-49
-51
-52
-53
-53
-53
-52
-51
-50
-49
-49
-49
-49
-48
-46
-44
-42
-41
-41
-41
-40
-38
-36
-33
-30
-29
-29
-29
-28
-26
-24
-22
-20
-18
-17
-15
-13
-11
-9
-6
-3
-1
1
4
7
9
12
16
19
20
21
22
23
24
26
28
29
28
26
23
19
15
10
5
0
-5
-10
-14
-17
-20
-21
-22
-25
-28
-30
-33
-32
-31
-31
-31
-32
-33
-33
-33
-33
-33
-32
-31
-32
-33
-33
-33
-33
-33
-32
-31
-32
-33
-33
-33
-34
-35
-34
-33
-33
-34
-36
-37
-37
-37
-36
-35
-36
-37
-37
-37
-37
-35
-35
-36
-37
-38
-39
-37
-35
-35
-35
-36
-37
-36
-35
-35
-35
-35
-35
-35
-35
-36
-37
-36
-35
-34
-33
-34
-35
-35
-35
-34
-33
-33
-33
-32
-31
-32
-33
-33
-32
-30
-31
-33
-35
-37
-36
-35
-30
-25
-22
-19
-22
-23
-15
-9
-9
-11
-17
-22
-25
-27
-29
-30
-28
-27
-27
-28
-31
-33
-34
-35
-35
-35
-35
-35
-35
-35
-34
-32
-30
-28
-26
-29
-35
-93
-149
-186
-211
-133
-32
194
399
519
609
610
602
569
479
279
113
1
-61
-56
-51
-44
-45
-53
-59
-63
-65
-66
-67
-68
-69
-69
-67
-64
-63
-62
-61
-61
-61
-60
-58
-59
-55
-55
-53
-51
-51
-51
-49
-47
-45
-43
-42
-41
-40
-39
-37
-35
-33
-31
-29
-27
-24
-22
-19
-16
-13
-10
-7
-3
0
3
7
11
14
17
20
22
24
25
26
27
28
25
21
17
13
8
3
-1
-6
-12
-18
-23
-27
-29
-31
-33
-35
-36
-37
-38
-39
-38
-37
-37
-37
-37
-37
-37
-37
-37
-37
-36
-36
-38
-39
-39
-39
-39
-39
-38
-37
-38
-39
-41
-40
-39
-39
-39
-39
-39
-40
-41
-41
-41
-40
-39
-40
-41
-41
-41
-40
-39
-38
-37
-38
-39
-40
-41
-40
-39
-39
-39
-38
-37
-38
-39
-38
-37
-36
-35
-36
-37
-37
-37
-37
-34
-33
-34
-35
-36
-37
-35
-33
-33
-33
-33
-33
-33
-33
-33
-33
-34
-35
-33
-31
-31
-31
-30
-29
-30
-32
-34
-35
-35
-32
-27
-22
-17
-16
-18
-14
-8
-7
-8
-13
-18
-22
-25
-27
-29
-27
-25
-25
-25
-27
-29
-30
-31
-32
-33
-32
-31
-31
-31
-30
-29
-28
-26
-23
-27
-38
-83
-152
-185
-198
-145
-60
118
330
467
583
601
598
562
521
325
116
19
-73
-61
-49
-47
-45
-51
-57
-60
-63
-64
-65
-65
-65
-64
-63
-62
-61
-60
-59
-60
-61
-58
-56
-53
-51
-51
-51
-50
-49
-48
-46
-44
-42
-40
-37
-34
-33
-33
-33
-32
-30
-31
-24
-21
-18
-15
-14
-13
-9
-4
2
7
9
11
14
18
21
23
24
26
29
31
31
31
32
33
32
28
23
18
13
8
3
-2
-6
-11
-16
-19
-22
-25
-28
-29
-30
-31
-31
-31
-31
-32
-33
-33
-33
-32
-31
-32
-33
-35
-37
-37
-37
-38
-38
-34
-31
-33
-35
-36
-37
-37
-37
-38
-39
-39
-38
-36
-35
-36
-37
-37
-37
-37
-36
-34
-34
-36
-37
-39
-37
-35
-35
-35
-36
-37
-36
-35
-35
-35
-34
-33
-34
-35
-34
-33
-34
-35
-35
-35
-35
-35
-36
-37
-36
-34
-32
-31
-32
-33
-33
-33
-32
-31
-31
-31
-32
-33
-32
-31
-31
-32
-33
-34
-35
-33
-31
-26
-21
-19
-17
-14
-11
-9
-8
-11
-14
-18
-21
-23
-25
-26
-26
-24
-23
-24
-26
-28
-29
-29
-29
-29
-29
-30
-30
-28
-27
-26
-22
-18
-23
-30
-96
-162
-202
-233
-150
-55
126
303
455
578
596
603
580
520
379
233
77
-29
-61
-72
-54
-45
-45
-48
-54
-59
-63
-65
-64
-62
-60
-59
-59
-59
-59
-58
-56
-54
-52
-51
-51
-51
-53
-50
-47
-45
-43
-41
-39
-38
-37
-36
-35
-32
-29
-27
-25
-25
-24
-21
-18
-15
-13
-10
-8
-6
-4
-1
3
7
9
9
10
12
16
20
21
22
23
23
23
23
22
23
16
13
9
5
0
-5
-9
-13
-17
-21
-26
-29
-32
-35
-35
-35
-36
-37
-37
-37
-37
-37
-36
-35
-36
-37
-36
-35
-36
-37
-36
-35
-35
-35
-36
-37
-37
-37
-36
-35
-36
-38
-39
-40
-41
-41
-41
-40
-39
-39
-39
-40
-41
-41
-41
-41
-41
-41
-41
-42
-43
-43
-42
-40
-39
-40
-41
-41
-41
-40
-39
-38
-37
-38
-39
-39
-39
-39
-39
-39
-39
-39
-39
-39
-38
-37
-37
-37
-37
-37
-37
-37
-37
-37
-36
-35
-35
-35
-37
-39
-40
-41
-39
-36
-31
-28
-26
-23
-19
-16
-14
-17
-24
-28
-30
-33
-36
-35
-32
-31
-31
-31
-32
-35
-33
-38
-37
-37
-37
-37
-37
-36
-35
-33
-31
-30
-29
-30
-43
-79
-125
-186
-206
-169
-68
106
282
461
562
604
610
592
499
368
207
33
-35
-68
-66
-53
-54
-58
-63
-68
-70
-72
-73
-73
-73
-73
-72
-71
-69
-67
-66
-65
-65
-65
-64
-63
-61
-59
-58
-57
-56
-55
-54
-52
-50
-48
-46
-45
-44
-42
-40
-38
-36
-34
-32
-30
-28
-24
-20
-17
-14
-11
-8
-6
-3
2
7
10
13
14
15
17
19
21
23
23
23
21
17
11
5
-1
-7
-12
-17
-22
-26
-29
-32
-35
-37
-38
-40
-42
-43
-43
-43
-43
-43
-42
-41
-42
-43
-43
-43
-43
-42
-41
-42
-43
-42
-41
-42
-43
-43
-43
-43
-43
-43
-43
-43
-43
-43
-43
-43
-43
-43
-43
-43
-43
-43
-43
-43
-43
-43
-43
-43
-43
-42
-41
-42
-43
-43
-43
-42
-41
-41
-41
-41
-41
-41
-41
-41
-39
-37
-38
-39
-40
-41
-40
-39
-38
-37
-37
-37
-37
-37
-36
-35
-35
-35
-35
-35
-36
-37
-37
-37
-36
-35
-36
-37
-38
-39
-39
-37
-34
-29
-24
-23
-21
-17
-13
-12
-11
-15
-19
-22
-25
-28
-31
-30
-29
-28
-27
-29
-31
-33
-35
-34
-33
-33
-33
-33
-33
-32
-31
-31
-30
-28
-27
-27
-59
-102
-152
-203
-176
-135
50
251
409
261
588
611
591
556
372
195
63
-46
-52
-56
-49
-44
-50
-56
-61
-65
-66
-67
-68
-69
-68
-67
-67
-67
-66
-64
-62
-61
-60
-59
-58
-57
-56
-55
-54
-52
-50
-48
-46
-44
-42
-41
-41
-40
-39
-37
-35
-32
-29
-28
-27
-25
-23
-20
-17
-13
-11
-9
-6
-3
0
4
9
14
19
23
25
25
26
28
30
32
32
30
29
28
24
20
14
8
3
-2
-6
-11
-14
-17
-19
-21
-24
-27
-29
-31
-32
-33
-30
-27
-27
-27
-27
-27
-28
-29
-29
-29
-29
-30
-32
-33
-32
-30
-28
-28
-30
-31
-32
-33
-34
-35
-34
-33
-33
-33
-33
-33
-33
-32
-31
-31
-31
-31
-31
-30
-29
-28
-27
-30
-33
-33
-33
-33
-33
-31
-29
-27
-25
-28
-29
-29
-29
-29
-28
-26
-27
-30
-30
-28
-27
-26
-25
-25
-25
-25
-25
-25
-25
-24
-24
-25
-26
-27
-25
-23
-21
-19
-19
-19
-22
-25
-25
-24
-20
-17
-15
-13
-12
-9
-3
1
2
0
-6
-10
-12
-14
-18
-17
-14
-13
-13
-14
-16
-17
-18
-19
-19
-19
-20
-21
-23
-21
-19
-18
-17
-15
-13
-16
-28
-73
-122
-183
-212
-160
-68
99
270
447
565
607
615
585
516
412
266
90
-6
-53
-58
-42
-37
-36
-38
-44
-47
-50
-51
-51
-52
-54
-55
-55
-51
-49
-48
-47
-47
-47
-46
-45
-44
-43
-42
-41
-39
-37
-35
-33
-31
-29
-28
-27
-26
-24
-22
-20
-17
-14
-12
-10
-8
-5
-2
1
4
5
6
8
10
15
20
22
24
26
27
28
29
31
33
34
35
32
29
26
23
20
16
11
6
1
-5
-10
-14
-17
-19
-20
-21
-22
-24
-27
-29
-28
-27
-27
-27
-27
-27
-27
-27
-26
-25
-26
-27
-28
-29
-29
-28
-27
-27
-27
-29
-31
-31
-31
-30
-29
-28
-27
-29
-31
-32
-33
-31
-29
-29
-29
-30
-31
-32
-33
-32
-31
-30
-29
-29
-29
-29
-30
-32
-32
-30
-30
-32
-33
-32
-31
-31
-28
-27
-28
-29
-29
-29
-28
-27
-27
-27
-26
-25
-26
-27
-26
-25
-26
-27
-28
-29
-26
-23
-19
-16
-13
-9
-5
-3
-4
-7
-10
-13
-16
-19
-22
-23
-22
-21
-20
-19
-20
-23
-25
-26
-27
-27
-27
-26
-25
-26
-27
-26
-25
-23
-21
-20
-30
-62
-108
-176
-199
-167
-68
100
278
463
564
607
611
592
492
356
196
28
-32
-61
-56
-43
-42
-44
-50
-56
-59
-63
-62
-61
-61
-61
-60
-59
-59
-59
-58
-57
-55
-53
-52
-51
-50
-49
-47
-45
-44
-43
-42
-41
-40
-38
-36
-34
-32
-31
-31
-30
-28
-26
-24
-21
-18
-16
-14
-12
-10
-7
-9
1
5
8
11
14
17
19
21
24
27
27
27
27
27
27
26
23
18
11
5
0
-5
-9
-13
-19
-22
-25
-28
-30
-31
-32
-33
-33
-33
-34
-35
-35
-35
-35
-35
-35
-35
-35
-35
-35
-35
-35
-35
-35
-35
-35
-35
-35
-35
-35
-34
-33
-34
-35
-36
-37
-37
-37
-36
-35
-36
-37
-37
-37
-36
-35
-36
-37
-37
-37
-37
-37
-36
-35
-34
-34
-36
-37
-35
-35
-35
-34
-33
-33
-33
-33
-33
-33
-33
-33
-33
-32
-31
-31
-31
-31
-31
-31
-31
-30
-29
-29
-29
-30
-31
-32
-32
-30
-27
-24
-21
-18
-15
-12
-10
-8
-8
-10
-14
-11
-20
-21
-23
-25
-24
-23
-24
-25
-27
-29
-30
-31
-32
-33
-33
-33
-32
-31
-31
-31
-30
-28
-26
-29
-37
-78
-139
-176
-200
-148
-64
114
324
459
574
597
602
577
547
361
165
51
-59
-57
-55
-49
-43
-49
-55
-61
-65
-66
-67
-66
-65
-65
-65
-64
-63
-62
-61
-61
-60
-58
-57
-57
-57
-56
-54
-52
-49
-46
-45
-45
-45
-45
-44
-42
-40
-38
-36
-34
-33
-31
-29
-27
-24
-21
-19
-17
-13
-9
-6
-3
0
3
6
10
14
18
21
23
25
27
30
31
30
29
28
26
23
17
11
7
2
-2
-6
-10
-14
-18
-22
-23
-24
-26
-25
-29
-29
-32
-35
-34
-33
-32
-31
-30
-29
-30
-31
-32
-33
-33
-33
-33
-33
-34
-35
-35
-35
-35
-35
-35
-35
-36
-37
-37
-36
-34
-33
-33
-33
-34
-35
-35
-35
-35
-35
-35
-36
-37
-35
-33
-33
-33
-32
-31
-32
-33
-33
-33
-32
-31
-31
-31
-31
-31
-31
-31
-30
-29
-29
-29
-29
-29
-29
-29
-28
-27
-26
-25
-25
-27
-30
-30
-28
-27
-27
-27
-27
-27
-25
-25
-25
-24
-23
-23
-23
-23
-23
-22
-21
-23
-25
-27
-29
-29
-27
-21
-15
-10
-8
-11
-10
-3
0
-2
-5
-9
-13
-17
-19
-20
-21
-20
-16
-12
-14
-18
-21
-24
-25
-25
-24
-23
-25
-27
-25
-23
-20
-17
-14
-11
-14
-33
-94
-151
-200
-203
-127
5
215
392
531
599
598
580
549
421
231
90
-24
-58
-56
-48
-38
-39
-46
-50
-54
-55
-56
-57
-57
-56
-55
-54
-53
-52
-51
-50
-49
-48
-47
-46
-45
-44
-43
-42
-41
-40
-39
-37
-35
-34
-32
-29
-27
-26
-24
-22
-21
-20
-18
-16
-13
-10
-8
-6
-3
0
2
4
7
10
12
15
16
17
19
21
22
23
23
23
24
25
24
23
20
16
11
6
3
0
-4
-8
-13
-16
-18
-20
-23
-25
-26
-27
-28
-29
-29
-29
-29
-29
-29
-29
-29
-29
-30
-31
-31
-28
-27
-27
-27
-29
-31
-31
-31
-30
-29
-30
-31
-32
-33
-34
-35
-34
-33
-33
-33
-33
-33
-33
-33
-33
-33
-34
-35
-35
-35
-34
-33
-33
-33
-34
-35
-35
-35
-35
-34
-32
-32
-33
-34
-35
-35
-35
-33
-31
-32
-33
-32
-31
-31
-31
-32
-33
-32
-31
-31
-31
-31
-31
-31
-31
-31
-31
-30
-29
-29
-29
-29
-29
-28
-27
-28
-29
-29
-29
-30
-31
-32
-29
-23
-20
-17
-16
-15
-11
-7
-10
-13
-16
-19
-22
-25
-25
-25
-25
-25
-24
-24
-27
-29
-30
-31
-31
-31
-31
-31
-31
-31
-30
-29
-29
-27
-24
-29
-37
-91
-153
-184
-211
-128
-213
171
376
493
599
601
598
563
497
301
126
18
-60
-56
-51
-45
-43
-49
-55
-61
-65
-68
-68
-66
-65
-65
-65
-64
-63
-63
-63
-62
-60
-58
-57
-57
-57
-56
-54
-52
-51
-50
-48
-47
-46
-45
-43
-41
-40
-39
-38
-37
-36
-35
-33
-30
-26
-23
-21
-18
-15
-12
-9
-6
-4
-2
1
4
7
10
12
15
18
19
20
21
20
18
16
13
10
4
-2
-7
-13
-18
-23
-25
-27
-30
-33
-35
-37
-38
-39
-38
-37
-38
-39
-39
-39
-39
-39
-39
-39
-40
-41
-41
-41
-41
-41
-40
-39
-39
-39
-40
-41
-41
-41
-40
-39
-40
-41
-41
-41
-41
-42
-41
-41
-41
-41
-41
-42
-43
-43
-43
-43
-43
-43
-43
-43
-43
-42
-41
-41
-41
-41
-41
-41
-41
-41
-41
-41
-41
-41
-41
-41
-41
-40
-39
-39
-39
-40
-41
-40
-39
-38
-37
-37
-37
-37
-37
-37
-36
-35
-35
-35
-34
-33
-34
-35
-34
-33
-34
-35
-35
-35
-34
-33
-32
-31
-31
-32
-35
-37
-36
-34
-32
-28
-24
-23
-23
-19
-14
-12
-10
-13
-18
-22
-27
-29
-31
-29
-27
-26
-25
-28
-31
-33
-35
-35
-35
-36
-37
-37
-37
-36
-35
-33
-30
-27
-28
-34
-73
-135
-175
-200
-154
-73
101
310
446
561
589
597
564
523
329
119
25
109
-56
-47
-49
-51
-56
-61
-63
-65
-66
-67
-67
-67
-66
-65
-64
-63
-63
-63
-62
-61
-60
-58
-56
-54
-52
-51
-51
-50
-48
-46
-44
-43
-43
-43
-43
-42
-40
-39
-38
-37
-36
-32
-29
-27
-25
-22
-19
-17
-15
-13
-11
-7
-3
0
3
5
7
9
12
15
17
19
22
24
25
24
22
19
16
12
9
6
1
-5
-10
-14
-17
-20
-22
-24
-27
-30
-31
-31
-30
-29
-30
-31
-31
-31
-31
-31
-32
-33
-32
-31
-32
-33
-34
-35
-34
-33
-33
-33
-36
-37
-36
-36
-38
-38
-36
-35
-36
-37
-38
-39
-38
-37
-37
-37
-36
-35
-36
-37
-37
-35
-35
-35
-35
-35
-35
-34
-33
-33
-33
-33
-33
-34
-35
-34
-33
-33
-33
-34
-35
-34
-32
-30
-29
-28
-27
-28
-29
-30
-31
-31
-31
-30
-29
-29
-29
-30
-31
-30
-27
-24
-24
-25
-27
-29
-29
-29
-27
-25
-25
-25
-25
-25
-24
-23
-23
-23
-24
-25
-26
-27
-26
-25
-24
-24
-27
-29
-28
-25
-21
-16
-11
-10
-12
-8
-1
1
1
-3
-8
-12
-16
-18
-21
-20
-19
-17
-15
-17
-19
-22
-25
-23
-21
-21
-21
-23
-25
-24
-22
-19
-16
-12
-15
-28
-76
-154
-191
-199
-133
-20
161
376
503
595
599
576
549
521
352
160
47
-58
-59
-63
-43
-33
-38
-43
-48
-53
-55
-57
-57
-57
-55
-53
-53
-53
-52
-51
-50
-49
-49
-49
-46
-45
-44
-43
-42
-40
-38
-37
-36
-34
-32
-31
-30
-28
-26
-25
-24
-23
-22
-19
-16
-11
-7
-6
-5
-4
-3
1
5
7
9
10
11
14
17
19
21
21
21
22
23
25
26
24
22
20
18
16
13
9
5
1
-4
-8
-12
-16
-18
-20
-22
-24
-25
-26
-27
-29
-29
-29
-28
-27
-28
-29
-29
-29
-29
-29
-29
-29
-30
-31
-31
-31
-31
-31
-30
-29
-30
-31
-32
-33
-32
-31
-31
-32
-34
-35
-35
-35
-35
-35
-35
-35
-35
-35
-34
-33
-33
-32
-31
-32
-33
-33
-33
-33
-33
-32
-31
-32
-33
-33
-33
-32
-31
-31
-31
-31
-31
-32
-33
-32
-31
-31
-31
-31
-31
-32
-33
-32
-31
-30
-29
-29
-29
-30
-31
-30
-29
-28
-27
-27
-27
-27
-27
-27
-29
-31
-30
-29
-26
-22
-17
-13
-14
-14
-9
-6
-10
-14
-17
-19
-20
-22
-25
-26
-23
-21
-21
-23
-26
-27
-28
-29
-29
-29
-29
-29
-28
-27
-28
-29
-27
-23
-19
-27
-42
-112
-175
-200
-206
-128
-19
185
368
502
593
600
599
583
490
300
139
8
-55
-60
-58
-49
-48
-53
-58
-63
-65
-66
-67
-67
-67
-67
-67
-66
-65
-64
-63
-63
-59
-57
-57
-57
-56
-55
-54
-53
-51
-49
-48
-47
-46
-45
-44
-43
-41
-39
-38
-37
-34
-32
-30
-28
-25
-23
-22
-21
-20
-17
-13
-9
-6
-4
-2
0
2
5
8
11
14
15
15
16
17
17
17
14
11
7
3
-1
-6
-11
-15
-19
-22
-27
-31
-33
-35
-36
-37
-37
-37
-38
-39
-40
-41
-41
-41
-40
-39
-40
-41
-41
-41
-41
-41
-41
-41
-41
-41
-43
-42
-41
-41
-41
-42
-43
-44
-45
-45
-45
-44
-43
-44
-45
-45
-45
-45
-45
-44
-43
-43
-43
-44
-45
-45
-45
-44
-43
-43
-43
-44
-44
-42
-41
-41
-41
-41
-41
-42
-43
-43
-42
-41
-41
-41
-42
-43
-42
-41
-40
-39
-39
-39
-39
-39
-39
-39
-38
-37
-37
-37
-37
-37
-37
-37
-37
-37
-37
-37
-38
-39
-38
-34
-30
-29
-28
-25
-22
-18
-14
-13
-14
-21
-27
-29
-31
-32
-33
-31
-29
-30
-31
-34
-37
-37
-37
-37
-37
-37
-37
-37
-37
-35
-32
-30
-29
-30
-55
-96
-147
-205
-198
-161
-15
172
349
524
581
613
607
594
477
351
175
-1
-38
-73
-59
-47
-49
-51
-56
-61
-64
-67
-68
-69
-70
-71
-70
-69
-68
-67
-66
-65
-64
-63
-62
-60
-58
-57
-56
-55
-54
-53
-53
-53
-52
-50
-48
-46
-44
-42
-40
-39
-39
-34
-31
-29
-27
-26
-25
-23
-21
-18
-15
-10
-7
-5
-2
2
6
9
11
13
15
16
18
21
23
24
25
24
22
20
16
11
7
4
0
-4
-9
-14
-16
-18
-20
-22
-26
-29
-31
-33
-33
-33
-32
-31
-31
-31
-31
-31
-31
-31
-30
-29
-30
-31
-33
-35
-35
-35
-35
-35
-34
-33
-33
-33
-32
-31
-31
-31
-32
-33
-34
-35
-35
-35
-35
-35
-34
-33
-35
-34
-33
-33
-33
-31
-29
-30
-31
-31
-31
-31
-31
-30
-29
-31
-33
-31
-29
-28
-27
-27
-27
-27
-27
-27
-27
-26
-26
-28
-29
-28
-27
-27
-27
-26
-25
-25
-24
-22
-22
-21
-24
-23
-23
-23
-23
-23
-22
-21
-21
-21
-20
-19
-19
-19
-19
-19
-18
-16
-13
-10
-5
-1
4
7
6
3
-1
-5
-8
-10
-12
-13
-12
-11
-11
-11
-12
-13
-14
-15
-14
-15
-17
-19
-21
-20
-19
-16
-13
-14
-15
-12
-11
-21
-48
-112
-165
-200
-193
-124
0
188
361
518
596
609
605
588
477
313
159
9
-40
-52
-47
-37
-37
-40
-43
-46
-47
-48
-49
-51
-49
-47
-45
-43
-43
-43
-44
-45
-43
-41
-39
-37
-36
-35
-35
-34
-31
-28
-25
-23
-23
-23
-24
-24
-22
-20
-17
-13
-9
-6
-4
-3
-2
0
2
5
8
11
14
16
15
22
25
27
29
30
31
34
37
37
37
35
33
32
30
27
24
20
16
12
8
5
0
-6
-10
-12
-14
-16
-17
-17
-17
-18
-19
-19
-19
-19
-20
-22
-23
-22
-20
-18
-18
-19
-21
-23
-21
-19
-20
-21
-24
-27
-26
-25
-23
-21
-22
-23
-24
-25
-25
-25
-25
-25
-24
-23
-24
-25
-25
-25
-25
-25
-24
-23
-23
-23
-24
-25
-24
-23
-22
-21
-22
-23
-23
-23
-23
-23
-23
-24
-25
-26
-27
-24
-21
-20
-19
-18
-17
-19
-21
-20
-19
-20
-20
-17
-14
-12
-10
-8
-6
-3
1
4
4
2
-1
-4
-5
-6
-8
-10
-11
-10
-9
-9
-12
-13
-15
-17
-19
-21
-21
-21
-20
-19
-19
-19
-19
-18
-14
-14
-25
-60
-131
-183
-214
-181
-87
73
283
443
571
615
614
594
566
417
228
91
-33
-55
-58
-49
-36
-38
-42
-47
-51
-52
-53
-54
-55
-54
-53
-53
-53
-52
-51
-49
-47
-46
-45
-44
-43
-42
-41
-39
-37
-36
-34
-32
-31
-30
-28
-26
-24
-22
-21
-20
-19
-19
-16
-12
-9
-6
-5
-4
-3
-1
2
5
9
13
15
17
19
21
21
21
24
27
28
29
27
25
24
22
19
15
10
4
-2
-6
-9
-12
-15
-19
-22
-24
-26
-27
-28
-29
-29
-29
-29
-29
-30
-31
-31
-30
-29
-29
-29
-30
-31
-29
-27
-28
-29
-30
-31
-31
-31
-31
-31
-30
-29
-30
-31
-31
-31
-31
-31
-31
-31
-31
-31
-30
-29
-30
-31
-31
-31
-31
-31
-31
-31
-31
-31
-31
-31
-31
-31
-31
-31
-31
-30
-29
-29
-29
-29
-29
-29
-29
-28
-27
-29
-31
-30
-28
-25
-22
-20
-17
-12
-9
-10
-10
-6
-7
-11
-14
-16
-18
-20
-21
-22
-23
-22
-22
-24
-26
-29
-30
-31
-32
-33
-32
-31
-31
-31
-30
-29
-26
-23
-25
-44
-97
-146
-191
-193
-137
-13
181
354
508
587
611
612
597
486
328
170
12
-41
-62
-57
-43
-45
-50
-57
-64
-65
-65
-65
-65
-65
-65
-65
-65
-64
-63
-61
-59
-59
-59
-58
-57
-55
-53
-51
-49
-49
-49
-48
-46
-44
-42
-40
-39
-38
-36
-34
-32
-30
-28
-26
-24
-22
-20
-18
-15
-12
-9
-6
-2
1
4
7
10
13
17
21
23
25
25
25
28
31
30
28
24
19
14
10
6
1
-4
-9
-13
-18
-23
-26
-28
-29
-29
-30
-32
-33
-33
-33
-32
-31
-30
-30
-32
-33
-35
-34
-33
-32
-31
-32
-33
-33
-33
-33
-33
-33
-33
-34
-35
-35
-35
-35
-35
-34
-33
-33
-33
-34
-35
-34
-33
-33
-33
-34
-35
-35
-35
-34
-33
-32
-31
-32
-33
-33
-33
-33
-32
-31
-31
-31
-32
-33
-32
-31
-30
-29
-30
-31
-31
-31
-30
-29
-28
-27
-28
-29
-29
-29
-29
-29
-29
-29
-29
-28
-26
-23
-20
-17
-14
-10
-6
-4
-2
-3
-6
-10
-14
-19
-23
-22
-21
-21
-21
-22
-23
-25
-27
-28
-29
-29
-29
-28
-27
-28
-29
-29
-28
-25
-23
-23
-40
-73
-124
-186
-194
-169
-54
103
287
482
565
618
616
601
508
404
225
39
-17
-69
-54
-39
-41
-43
-52
-59
-63
-67
-67
-67
-65
-63
-62
-61
-61
-61
-61
-61
-59
-57
-57
-57
-56
-54
-52
-50
-48
-47
-47
-47
-46
-44
-42
-39
-36
-35
-35
-33
-30
-27
-29
-22
-21
-18
-15
-13
-11
-8
-5
-2
1
4
7
9
12
15
18
22
25
26
27
30
30
28
26
24
21
17
12
7
3
0
-4
-8
-11
-14
-16
-18
-20
-22
-23
-23
-25
-27
-27
-27
-26
-25
-25
-25
-26
-27
-27
-27
-27
-27
-27
-27
-28
-29
-29
-29
-31
-33
-32
-31
-31
-32
-34
-34
-32
-31
-31
-31
-32
-33
-33
-32
-30
-29
-30
-31
-31
-31
-29
-29
-29
-28
-27
-29
-31
-31
-31
-30
-29
-27
-25
-27
-29
-29
-29
-29
-29
-28
-27
-28
-29
-28
-27
-26
-25
-25
-25
-26
-27
-27
-25
-22
-21
-21
-21
-22
-23
-23
-23
-23
-23
-23
-24
-25
-20
-15
-11
-7
-7
-6
1
7
4
0
-4
-8
-12
-15
-15
-15
-15
-16
-18
-20
-22
-23
-24
-25
-24
-23
-23
-23
-23
-23
-24
-23
-20
-19
-19
-48
-80
-158
-234
-200
-155
1
164
365
541
591
625
593
540
430
299
125
-3
-49
-71
-56
-46
-43
-44
-50
-54
-57
-59
-58
-57
-56
-55
-56
-57
-58
-57
-54
-53
-52
-50
-48
-47
-46
-45
-45
-42
-39
-38
-37
-36
-35
-35
-35
-31
-27
-26
-24
-20
-17
-15
-13
-13
-12
-8
-5
-2
-1
0
2
4
7
11
13
14
16
18
19
18
19
22
23
23
23
22
19
21
13
11
6
1
-4
-9
-13
-17
-19
-21
-23
-25
-27
-29
-31
-33
-32
-31
-32
-33
-33
-33
-32
-31
-32
-33
-33
-33
-32
-31
-32
-33
-33
-34
-36
-37
-37
-37
-37
-37
-37
-37
-37
-37
-37
-37
-37
-38
-39
-39
-39
-39
-39
-40
-41
-40
-39
-38
-37
-38
-39
-39
-39
-38
-37
-37
-37
-37
-37
-37
-37
-37
-37
-37
-37
-36
-35
-36
-36
-34
-33
-34
-35
-37
-35
-33
-32
-31
-33
-35
-35
-35
-33
-30
-25
-21
-22
-21
-15
-11
-10
-10
-14
-18
-23
-26
-28
-28
-26
-24
-22
-24
-29
-32
-34
-35
-35
-35
-34
-33
-33
-33
-34
-35
-35
-30
-25
-35
-51
-124
-189
-208
-203
-95
38
249
431
541
611
599
574
528
416
212
59
-36
-78
-66
-59
-53
-54
-60
-65
-69
-71
-71
-71
-70
-69
-68
-67
-67
-67
-66
-64
-62
-60
-59
-59
-59
-58
-57
-55
-53
-52
-51
-50
-49
-47
-45
-44
-43
-41
-39
-37
-35
-34
-32
-29
-26
-24
-22
-20
-18
-14
-11
-8
-5
-2
0
2
5
8
9
9
10
12
13
13
12
11
10
9
4
-1
-6
-11
-15
-19
-22
-26
-30
-34
-37
-39
-40
-41
-41
-41
-41
-41
-41
-41
-41
-41
-41
-41
-41
-41
-41
-41
-41
-41
-40
-39
-40
-41
-42
-43
-43
-42
-41
-42
-43
-43
-43
-44
-45
-44
-43
-44
-45
-45
-45
-44
-43
-43
-43
-43
-43
-43
-43
-43
-43
-42
-41
-41
-41
-41
-41
-42
-43
-43
-43
-42
-41
-41
-41
-41
-41
-40
-39
-39
-40
-41
-40
-39
-39
-39
-39
-39
-39
-39
-39
-39
-38
-37
-37
-37
-37
-37
-37
-37
-37
-37
-38
-36
-31
-27
-23
-21
-22
-18
-11
-10
-12
-17
-22
-24
-26
-27
-28
-29
-27
-28
-29
-31
-33
-35
-37
-38
-39
-38
-37
-37
-37
-36
-35
-34
-32
-29
-35
-54
-99
-171
-200
-190
-99
50
234
438
544
604
610
595
527
443
273
82
-2
-68
-63
-50
-49
-49
-56
-61
-66
-71
-72
-73
-72
-71
-70
-69
-68
-67
-66
-65
-64
-63
-61
-59
-59
-59
-58
-56
-54
-53
-52
-51
-50
-48
-46
-44
-42
-40
-38
-37
-36
-34
-32
-30
-28
-25
-22
-19
-17
-15
-13
-10
-7
-2
3
5
7
9
11
14
17
21
23
24
25
25
25
23
20
17
13
8
3
-1
-5
-9
-13
-17
-21
-24
-26
-28
-29
-29
-29
-29
-29
-30
-31
-31
-31
-31
-31
-31
-31
-31
-32
-33
-33
-33
-33
-33
-34
-35
-35
-35
-35
-35
-35
-35
-35
-35
-36
-37
-36
-35
-35
-35
-35
-35
-36
-37
-37
-37
-36
-35
-36
-37
-38
-39
-39
-36
-35
-35
-35
-35
-35
-35
-35
-34
-33
-34
-35
-35
-35
-35
-35
-34
-33
-33
-33
-34
-34
-32
-31
-31
-31
-31
-31
-30
-29
-29
-29
-29
-29
-28
-27
-28
-29
-28
-27
-27
-27
-27
-27
-27
-26
-25
-24
-23
-23
-23
-24
-25
-26
-27
-27
-26
-23
-19
-11
-7
-8
-7
-2
0
-2
-5
-9
-12
-16
-17
-16
-14
-12
-13
-16
-18
-20
-21
-22
-23
-23
-23
-25
-23
-21
-20
-19
-18
-17
-16
-19
-39
-73
-149
-198
-181
-119
29
195
389
526
590
613
592
536
451
310
128
20
-44
-56
-42
-37
-37
-41
-47
-50
-52
-53
-54
-55
-55
-55
-55
-52
-49
-48
-47
-47
-47
-47
-47
-45
-43
-43
-43
-40
-36
-33
-31
-30
-29
-29
-29
-29
-28
-25
-22
-19
-16
-14
-12
-10
-7
-4
-1
2
3
3
5
8
12
16
19
22
24
25
26
27
30
33
33
33
32
31
28
25
24
22
17
11
4
-2
-5
-7
-8
-10
-12
-15
-19
-21
-22
-23
-23
-23
-23
-24
-26
-27
-28
-29
-29
-28
-26
-25
-26
-27
-27
-29
-31
-31
-31
-31
-31
-31
-31
-31
-31
-32
-33
-34
-34
-31
-29
-30
-32
-35
-37
-34
-33
-33
-33
-32
-31
-31
-31
-30
-30
-32
-33
-33
-32
-30
-30
-32
-33
-33
-32
-33
-30
-31
-31
-31
-31
-31
-31
-31
-30
-29
-29
-29
-30
-30
-27
-25
-26
-27
-28
-29
-29
-29
-29
-29
-28
-27
-26
-25
-25
-25
-26
-27
-28
-29
-28
-23
-18
-17
-16
-11
-6
-2
1
-6
-13
-15
-17
-19
-21
-20
-19
-19
-19
-22
-25
-24
-24
-27
-29
-30
-31
-30
-28
-26
-25
-25
-23
-19
-25
-38
-93
-167
-202
-222
-137
-21
176
390
507
610
605
590
551
509
319
135
29
-65
-63
-60
-50
-42
-48
-53
-55
-57
-59
-61
-61
-61
-61
-61
-59
-57
-57
-57
-56
-54
-52
-51
-50
-49
-48
-47
-46
-44
-42
-40
-38
-37
-37
-36
-34
-32
-33
-27
-25
-25
-25
-21
-17
-16
-15
-12
-9
-7
-5
-3
-1
1
4
7
9
10
11
11
12
14
16
19
21
21
19
16
13
10
7
4
-1
-6
-11
-16
-20
-24
-25
-25
-28
-31
-33
-35
-36
-37
-35
-33
-34
-35
-36
-37
-37
-37
-35
-33
-34
-35
-35
-35
-35
-35
-35
-35
-36
-37
-37
-37
-37
-37
-37
-37
-37
-37
-38
-39
-39
-39
-39
-39
-40
-41
-41
-40
-39
-39
-39
-39
-39
-40
-41
-40
-39
-38
-37
-38
-39
-40
-41
-39
-37
-37
-37
-38
-39
-39
-39
-38
-37
-37
-37
-36
-35
-35
-35
-35
-35
-34
-33
-33
-34
-36
-37
-37
-31
-27
-25
-23
-21
-19
-15
-11
-11
-12
-17
-21
-23
-25
-27
-29
-27
-25
-25
-26
-29
-31
-31
-32
-34
-35
-35
-35
-35
-35
-34
-32
-30
-28
-26
-32
-41
-97
-159
-189
-218
-134
-43
169
374
495
601
601
595
556
480
275
97
-4
-71
-61
-54
-50
-49
-57
-62
-66
-69
-69
-69
-70
-71
-70
-69
-68
-67
-66
-64
-62
-61
-60
-59
-58
-57
-56
-55
-54
-53
-51
-49
-47
-45
-43
-42
-41
-40
-39
-37
-35
-33
-31
-28
-25
-24
-22
-18
-14
-11
-8
-3
0
3
6
9
12
14
15
16
18
20
22
24
25
24
22
20
13
6
2
5
-7
-11
-17
-23
-26
-29
-32
-35
-35
-35
-36
-37
-37
-37
-37
-37
-36
-35
-37
-39
-38
-37
-37
-37
-37
-37
-37
-37
-37
-37
-37
-37
-37
-37
-37
-37
-38
-39
-39
-39
-39
-39
-39
-39
-39
-39
-39
-39
-39
-39
-39
-39
-39
-39
-39
-38
-37
-37
-37
-38
-39
-38
-37
-36
-35
-36
-37
-36
-35
-36
-37
-36
-35
-35
-35
-35
-35
-35
-35
-35
-35
-34
-33
-33
-33
-33
-34
-35
-32
-29
-27
-25
-22
-18
-14
-11
-10
-10
-13
-15
-17
-20
-23
-25
-25
-25
-26
-27
-28
-30
-32
-33
-34
-35
-36
-37
-36
-34
-32
-32
-34
-34
-32
-30
-31
-44
-64
-132
-195
-191
-169
-39
105
311
485
556
605
597
572
514
402
202
53
-25
-63
-54
-49
-49
-52
-58
-63
-67
-69
-70
-71
-70
-69
-68
-67
-67
-67
-66
-64
-62
-60
-58
-56
-55
-55
-55
-54
-53
-51
-49
-48
-47
-47
-47
-45
-43
-39
-37
-36
-34
-31
-29
-27
-24
-21
-19
-18
-16
-13
-8
-3
1
5
8
10
13
16
18
20
23
26
27
28
29
29
26
23
19
15
11
7
0
-6
-11
-15
-17
-19
-22
-25
-26
-27
-29
-31
-31
-31
-31
-31
-31
-31
-32
-33
-32
-31
-32
-33
-33
-33
-34
-35
-34
-33
-34
-35
-35
-35
-35
-35
-35
-36
-37
-38
-39
-36
-33
-34
-35
-36
-37
-36
-35
-35
-35
-35
-35
-35
-35
-36
-37
-36
-34
-32
-31
-31
-31
-31
-31
-31
-31
-31
-32
-34
-35
-34
-33
-32
-31
-30
-29
-29
-29
-29
-29
-29
-30
-31
-29
-27
-28
-29
-30
-31
-29
-27
-26
-25
-27
-29
-28
-25
-21
-19
-18
-16
-13
-7
0
3
3
0
-5
-11
-16
-17
-18
-18
-16
-14
-12
-14
-19
-22
-25
-25
-25
-26
-27
-27
-27
-26
-25
-25
-25
-22
-20
-23
-47
-104
-159
-210
-205
-139
-7
181
351
508
581
605
597
572
464
323
170
15
-38
-66
-59
-45
-44
-46
-52
-47
-59
-59
-58
-57
-56
-55
-55
-55
-54
-53
-52
-51
-49
-47
-47
-47
-45
-43
-42
-41
-38
-36
-34
-33
-32
-31
-30
-28
-26
-23
-19
-17
-17
-17
-16
-12
-8
-6
-4
-2
0
5
9
11
13
16
19
21
23
24
25
26
27
28
29
30
31
29
26
23
21
20
17
13
8
2
-4
-9
-11
-12
-15
-18
-21
-24
-26
-28
-28
-26
-25
-26
-27
-26
-25
-25
-25
-25
-25
-25
-25
-25
-26
-27
-28
-29
-28
-27
-27
-27
-27
-27
-27
-27
-27
-27
-28
-29
-29
-29
-30
-31
-30
-29
-29
-29
-30
-31
-30
-29
-28
-27
-27
-27
-28
-29
-29
-29
-27
-27
-27
-27
-27
-28
-29
-28
-27
-27
-27
-26
-25
-26
-27
-27
-27
-25
-23
-20
-18
-15
-12
-10
-8
-5
-3
-4
-7
-10
-12
-14
-15
-16
-17
-17
-17
-18
-19
-20
-24
-27
-28
-29
-29
-29
-28
-27
-28
-29
-27
-25
-22
-19
-21
-44
-103
-158
-205
-197
-120
23
232
403
544
604
609
595
569
430
238
97
-27
-57
-60
-52
-41
-43
-48
-53
-58
-60
-63
-63
-63
-61
-59
-60
-61
-59
-57
-56
-55
-54
-53
-52
-51
-50
-49
-47
-45
-43
-41
-40
-39
-39
-38
-35
-32
-30
-29
-28
-25
-22
-21
-20
-18
-16
-14
-12
-8
-4
-1
-3
6
9
12
15
16
17
19
21
23
25
26
27
27
26
23
20
14
9
4
-1
-6
-11
-15
-18
-20
-23
-27
-29
-30
-31
-31
-31
-32
-33
-34
-35
-34
-33
-33
-33
-34
-34
-33
-34
-35
-35
-35
-34
-33
-34
-35
-35
-35
-35
-35
-34
-33
-34
-35
-36
-37
-37
-37
-36
-35
-36
-37
-36
-35
-36
-37
-36
-35
-35
-35
-35
-35
-35
-35
-35
-35
-35
-35
-35
-35
-35
-34
-33
-33
-33
-33
-33
-33
-33
-34
-35
-34
-33
-33
-33
-32
-31
-31
-31
-31
-31
-32
-33
-33
-32
-29
-26
-24
-21
-18
-14
-10
-8
-6
-7
-10
-14
-18
-21
-19
-25
-25
-25
-25
-25
-25
-28
-31
-32
-33
-35
-37
-36
-35
-35
-35
-34
-33
-31
-28
-25
-30
-44
-92
-166
-195
-195
-118
0
183
394
511
597
611
604
557
502
313
108
17
-67
-59
-49
-48
-47
-53
-59
-62
-65
-67
-69
-68
-67
-67
-67
-65
-63
-63
-63
-63
-63
-61
-58
-55
-53
-54
-55
-54
-52
-50
-47
-44
-43
-43
-42
-40
-39
-38
-36
-34
-32
-30
-29
-27
-23
-19
-16
-13
-11
-9
-6
-3
1
5
8
11
13
15
17
19
21
23
25
27
26
24
22
19
15
10
5
1
-3
-7
-12
-16
-20
-22
-24
-27
-30
-31
-32
-33
-33
-33
-33
-33
-33
-33
-33
-33
-33
-34
-35
-35
-35
-35
-35
-35
-35
-35
-35
-35
-35
-36
-37
-37
-37
-37
-37
-37
-37
-38
-39
-39
-39
-39
-39
-39
-39
-39
-39
-39
-39
-39
-40
-41
-40
-39
-38
-37
-37
-37
-38
-39
-39
-39
-37
-35
-35
-35
-36
-37
-37
-37
-36
-34
-32
-32
-34
-36
-38
-39
-38
-36
-34
-33
-32
-32
-34
-35
-34
-32
-30
-29
-30
-31
-31
-32
-33
-31
-29
-29
-29
-30
-31
-31
-31
-32
-33
-32
-30
-25
-20
-16
-13
-14
-12
-3
-1
-5
-9
-13
-16
-19
-21
-21
-21
-20
-19
-20
-23
-26
-28
-30
-31
-30
-29
-29
-29
-29
-28
-27
-25
-23
-22
-29
-72
-120
-187
-221
-167
-70
119
300
469
574
593
595
578
475
292
137
3
-55
-65
-61
-49
-47
-50
-54
-58
-60
-62
-65
-68
-69
-68
-65
-62
-59
-57
-58
-59
-58
-57
-55
-53
-52
-51
-50
-49
-48
-47
-45
-43
-42
-41
-40
-39
-37
-35
-35
-34
-31
-28
-25
-21
-17
-14
-12
-11
-10
-8
-6
-4
-2
2
6
9
12
13
15
19
23
22
21
20
19
20
21
18
14
10
6
2
-2
-5
-8
-11
-14
-18
-21
-24
-26
-29
-31
-32
-33
-33
-33
-33
-33
-33
-33
-33
-33
-33
-33
-33
-33
-34
-35
-35
-37
-37
-37
-37
-36
-35
-35
-35
-36
-37
-37
-37
-38
-39
-38
-37
-37
-37
-38
-39
-39
-39
-38
-37
-38
-38
-36
-35
-36
-37
-37
-37
-37
-37
-37
-37
-37
-37
-36
-35
-34
-34
-35
-35
-35
-35
-35
-34
-33
-32
-31
-33
-35
-33
-31
-29
-27
-28
-29
-30
-31
-31
-31
-31
-30
-28
-25
-21
-18
-16
-9
0
1
-2
-7
-13
-17
-20
-21
-20
-19
-19
-19
-21
-24
-27
-27
-27
-28
-29
-30
-31
-30
-29
-28
-27
-27
-26
-23
-29
-49
-95
-174
-212
-203
-130
1
178
388
518
600
612
588
541
485
325
133
27
-60
-66
-56
-51
-46
-49
-45
-57
-59
-60
-61
-61
-61
-60
-59
-58
-57
-57
-57
-57
-57
-56
-54
-51
-49
-49
-48
-45
-43
-42
-40
-38
-37
-36
-34
-32
-31
-30
-27
-24
-22
-20
-18
-16
-14
-12
-9
-6
-3
-1
2
5
8
11
12
13
14
15
17
19
21
23
23
23
22
21
19
15
10
5
0
-5
-10
-15
-19
-22
-26
-28
-30
-31
-32
-33
-34
-35
-35
-35
-34
-33
-33
-34
-37
-36
-35
-35
-35
-35
-35
-36
-37
-36
-35
-35
-35
-35
-35
-36
-37
-37
-37
-37
-37
-37
-37
-37
-37
-38
-39
-38
-37
-36
-35
-36
-37
-38
-39
-38
-37
-37
-37
-38
-39
-39
-37
-37
-37
-37
-37
-37
-37
-37
-35
-33
-34
-35
-35
-35
-35
-35
-34
-33
-35
-36
-33
-30
-27
-24
-21
-17
-13
-11
-10
-11
-15
-19
-22
-24
-26
-27
-28
-29
-29
-29
-29
-32
-35
-37
-39
-40
-41
-40
-39
-39
-39
-38
-37
-34
-31
-31
-45
-86
-135
-195
-213
-177
-67
117
296
471
564
600
603
587
488
352
194
30
-35
-70
-66
-51
-51
-54
-60
-66
-70
-75
-74
-73
-72
-71
-71
-71
-71
-71
-69
-67
-65
-63
-63
-63
-62
-61
-60
-59
-57
-55
-55
-54
-52
-51
-50
-48
-45
-43
-42
-41
-40
-37
-34
-31
-28
-27
-26
-23
-20
-17
-19
-8
-3
0
3
5
7
10
13
16
19
20
21
21
20
17
14
8
3
-2
-7
-12
-17
-21
-25
-29
-32
-35
-37
-38
-39
-39
-39
-39
-39
-39
-40
-42
-43
-42
-41
-41
-42
-43
-42
-41
-41
-41
-41
-41
-42
-43
-43
-43
-44
-45
-44
-43
-43
-43
-43
-43
-44
-45
-44
-43
-44
-45
-45
-45
-44
-43
-43
-43
-43
-43
-43
-43
-43
-43
-42
-41
-41
-41
-43
-42
-41
-41
-41
-41
-41
-41
-41
-39
-37
-37
-37
-39
-41
-43
-43
-38
-32
-25
-21
-24
-22
-15
-12
-14
-18
-23
-27
-30
-31
-32
-33
-33
-33
-34
-37
-40
-41
-42
-43
-43
-42
-41
-41
-41
-40
-39
-37
-35
-34
-41
-79
-123
-184
-214
-181
-98
66
240
427
546
588
602
586
516
402
248
67
-22
-64
-70
-60
-58
-60
-64
-68
-71
-74
-75
-75
-74
-72
-71
-71
-72
-73
-72
-71
-68
-65
-64
-63
-62
-61
-59
-57
-56
-55
-54
-53
-53
-53
-51
-48
-45
-43
-42
-41
-40
-38
-34
-31
-27
-25
-25
-22
-18
-15
-12
-7
-2
0
2
5
9
11
13
15
17
19
21
21
21
19
16
12
8
4
0
-5
-11
-16
-20
-24
-28
-33
-35
-36
-37
-38
-39
-39
-39
-40
-41
-40
-39
-39
-39
-38
-37
-38
-40
-42
-43
-43
-41
-41
-42
-43
-44
-45
-44
-43
-42
-41
-42
-43
-44
-45
-44
-43
-42
-41
-42
-43
-44
-45
-44
-43
-43
-43
-42
-41
-40
-39
-40
-41
-41
-41
-40
-39
-40
-41
-41
-41
-40
-40
-41
-40
-39
-40
-41
-39
-37
-39
-41
-40
-39
-38
-37
-36
-35
-36
-38
-41
-42
-39
-34
-28
-25
-25
-24
-22
-18
-11
-11
-14
-19
-25
-27
-28
-29
-28
-27
-27
-30
-34
-35
-37
-37
-37
-36
-35
-36
-37
-37
-37
-38
-38
-33
-30
-34
-56
-111
-166
-220
-223
-157
-31
161
334
490
571
595
591
567
460
311
158
2
-53
-76
-70
-56
-54
-56
-62
-68
-69
-69
-69
-67
-67
-67
-67
-67
-66
-65
-63
-61
-60
-59
-59
-59
-57
-54
-51
-49
-48
-47
-46
-45
-44
-42
-39
-36
-34
-33
-32
-29
-26
-25
-24
-21
-18
-16
-14
-11
-8
-6
-4
0
3
5
7
8
9
11
13
14
15
15
15
16
17
16
14
10
5
0
-4
-8
-12
-15
-18
-21
-25
-29
-31
-32
-33
-33
-33
-34
-35
-36
-37
-36
-35
-35
-35
-35
-35
-33
-33
-33
-33
-33
-34
-35
-36
-37
-37
-37
-36
-35
-35
-36
-39
-41
-40
-39
-38
-37
-37
-37
-38
-39
-38
-37
-37
-37
-38
-39
-39
-39
-39
-39
-38
-37
-37
-37
-37
-37
-37
-36
-35
-35
-35
-36
-37
-36
-35
-34
-33
-34
-35
-35
-35
-34
-33
-33
-33
-34
-35
-35
-35
-35
-34
-32
-28
-22
-19
-20
-21
-20
-14
-7
-9
-16
-21
-26
-27
-27
-25
-22
-23
-25
-28
-31
-32
-33
-33
-33
-33
-33
-33
-33
-32
-31
-29
-27
-25
-28
-41
-81
-151
-190
-197
-138
-21
155
371
505
593
613
601
550
486
314
112
15
-61
-61
-48
-47
-48
-55
-63
-65
-67
-67
-67
-68
-69
-68
-67
-64
-61
-60
-59
-58
-57
-57
-57
-56
-54
-51
-49
-48
-47
-46
-44
-42
-40
-38
-37
-36
-34
-32
-30
-28
-26
-24
-22
-20
-17
-14
-12
-13
-6
-3
0
3
7
11
14
17
19
21
22
23
25
27
26
25
23
19
14
9
4
-1
-5
-9
-13
-16
-19
-22
-24
-26
-28
-29
-30
-31
-32
-33
-32
-31
-30
-29
-30
-31
-31
-32
-33
-32
-31
-30
-29
-31
-33
-33
-33
-32
-31
-32
-33
-33
-33
-33
-33
-34
-35
-34
-33
-34
-35
-34
-33
-34
-35
-35
-35
-34
-33
-33
-33
-32
-31
-31
-31
-32
-33
-33
-32
-31
-31
-31
-31
-31
-32
-33
-31
-29
-29
-29
-29
-29
-30
-31
-30
-29
-28
-27
-28
-29
-29
-29
-29
-29
-28
-27
-27
-27
-27
-26
-24
-24
-26
-27
-27
-23
-18
-15
-17
-10
-9
-4
1
-1
-4
-11
-17
-18
-19
-19
-19
-19
-20
-23
-25
-25
-25
-25
-25
-26
-27
-27
-26
-23
-21
-22
-22
-20
-25
-34
-87
-155
-181
-196
-120
-26
173
385
499
607
606
602
553
492
288
98
9
-64
-53
-45
-44
-44
-49
-53
-57
-59
-61
-63
-63
-63
-61
-58
-56
-55
-55
-55
-56
-56
-54
-52
-50
-47
-44
-43
-44
-45
-44
-42
-40
-39
-38
-37
-35
-32
-29
-27
-25
-23
-21
-18
-15
-12
-9
-7
-5
-3
-1
1
4
8
12
15
17
20
22
24
26
28
29
29
29
29
28
26
22
18
14
10
5
0
-4
-8
-12
-9
-19
-21
-22
-23
-23
-23
-25
-27
-26
-25
-27
-29
-29
-29
-28
-27
-29
-31
-29
-27
-28
-29
-30
-31
-31
-31
-30
-29
-29
-29
-30
-31
-31
-32
-34
-34
-32
-31
-32
-33
-33
-33
-33
-32
-31
-31
-31
-31
-31
-30
-29
-30
-31
-32
-33
-29
-27
-28
-29
-27
-25
-26
-28
-30
-31
-31
-31
-31
-31
-30
-28
-26
-25
-26
-27
-27
-26
-24
-23
-24
-25
-26
-27
-25
-25
-25
-24
-23
-23
-23
-22
-21
-21
-21
-20
-19
-21
-23
-25
-27
-25
-23
-22
-17
-8
-3
-4
-5
-4
-2
1
1
-3
-7
-12
-13
-14
-14
-12
-11
-12
-13
-14
-17
-15
-22
-23
-23
-23
-22
-21
-21
-21
-18
-15
-14
-22
-54
-101
-174
-208
-174
-92
55
223
417
542
602
613
583
527
453
306
121
17
-51
-57
-41
-35
-32
-37
-46
-49
-52
-53
-52
-52
-53
-53
-53
-51
-49
-47
-45
-43
-41
-41
-41
-42
-42
-38
-35
-33
-31
-31
-31
-29
-26
-24
-23
-22
-21
-20
-18
-16
-13
-10
-9
-8
-5
-2
0
2
6
10
11
12
15
19
22
25
28
31
31
31
32
33
34
35
34
32
28
23
17
13
11
8
4
0
-5
-9
-13
-15
-16
-17
-18
-19
-20
-21
-22
-23
-23
-23
-23
-23
-23
-23
-23
-23
-23
-21
-21
-23
-25
-25
-25
-25
-25
-24
-23
-23
-23
-24
-25
-25
-25
-24
-23
-25
-27
-27
-27
-26
-25
-26
-27
-26
-26
-28
-29
-29
-29
-30
-30
-28
-27
-27
-26
-24
-23
-24
-24
-23
-25
-27
-26
-25
-23
-21
-22
-23
-25
-27
-26
-25
-23
-21
-22
-23
-23
-23
-24
-23
-19
-14
-8
-6
-9
-10
-6
-2
3
2
-3
-9
-14
-15
-16
-17
-16
-16
-18
-20
-23
-23
-23
-23
-23
-24
-25
-25
-25
-24
-23
-20
-17
-16
-27
-63
-111
-177
-198
-158
-52
124
301
479
578
619
621
597
512
396
237
61
-13
-56
-56
-43
-44
-48
-52
-56
-57
-57
-57
-57
-58
-59
-57
-55
-54
-53
-51
-49
-48
-47
-46
-45
-43
-41
-40
-39
-38
-37
-36
-34
-32
-31
-30
-29
-28
-26
-24
-22
-20
-18
-16
-14
-12
-9
-6
-4
-2
2
6
11
15
18
21
22
23
27
31
32
33
33
33
31
29
28
25
19
14
10
5
0
-5
-9
-13
-18
-21
-22
-24
-26
-27
-28
-29
-29
-29
-30
-31
-30
-29
-29
-29
-29
-29
-29
-29
-29
-28
-27
-27
-27
-27
-27
-27
-27
-28
-29
-29
-29
-28
-27
-28
-29
-29
-29
-29
-29
-29
-29
-29
-29
-29
-29
-30
-31
-31
-30
-28
-27
-27
-27
-28
-30
-32
-32
-33
-28
-27
-27
-27
-28
-29
-29
-29
-29
-29
-29
-29
-30
-31
-29
-27
-27
-27
-27
-27
-28
-26
-19
-14
-11
-10
-12
-8
0
1
-2
-7
-13
-17
-20
-21
-21
-21
-20
-20
-22
-25
-27
-29
-31
-30
-29
-29
-29
-29
-29
-28
-27
-26
-29
-43
-78
-149
-191
-189
-133
-13
150
358
497
579
608
599
559
501
348
150
36
-48
-60
-51
-47
-44
-48
-54
-58
-62
-64
-67
-66
-65
-64
-63
-62
-61
-60
-59
-59
-59
-57
-55
-55
-55
-53
-51
-49
-47
-45
-43
-43
-42
-40
-39
-38
-36
-34
-32
-30
-29
-28
-26
-24
-20
-16
-14
-12
-9
-6
-2
-5
7
11
13
15
18
21
24
27
29
31
30
29
28
26
23
20
16
11
5
-1
-6
-11
-16
-20
-22
-24
-26
-27
-28
-30
-32
-33
-32
-31
-32
-33
-34
-35
-34
-33
-33
-33
-33
-33
-33
-34
-35
-36
-37
-37
-37
-37
-37
-36
-35
-35
-35
-36
-37
-38
-39
-38
-37
-36
-35
-34
-33
-34
-35
-35
-35
-36
-37
-37
-37
-37
-37
-37
-37
-36
-35
-35
-35
-35
-34
-33
-33
-33
-33
-33
-34
-35
-34
-33
-31
-29
-30
-31
-32
-33
-31
-27
-21
-17
-20
-19
-15
-11
-5
-6
-12
-17
-21
-24
-26
-27
-26
-25
-24
-25
-28
-30
-32
-33
-33
-34
-33
-34
-35
-35
-35
-30
-25
-22
-26
-56
-99
-172
-213
-187
-117
30
198
396
527
585
602
581
512
405
254
75
-16
-61
-66
-53
-49
-50
-55
-60
-63
-66
-67
-67
-67
-67
-64
-61
-60
-59
-61
-63
-60
-57
-57
-57
-55
-53
-52
-51
-50
-49
-47
-45
-43
-41
-40
-38
-35
-33
-32
-30
-27
-24
-22
-20
-18
-16
-14
-11
-8
-4
0
5
10
13
16
17
19
21
23
26
29
28
27
27
27
25
22
17
12
7
2
-3
-8
-12
-16
-20
-24
-27
-30
-32
-33
-34
-35
-35
-35
-35
-36
-38
-38
-36
-35
-35
-36
-38
-39
-38
-37
-37
-36
-35
-37
-39
-38
-37
-37
-37
-38
-39
-40
-41
-41
-41
-39
-37
-37
-37
-37
-37
-38
-39
-39
-39
-38
-37
-37
-37
-37
-37
-37
-36
-34
-33
-34
-35
-36
-37
-36
-35
-34
-33
-33
-35
-37
-35
-33
-25
-19
-22
-25
-21
-16
-8
-4
-9
-15
-24
-29
-30
-31
-31
-31
-30
-30
-32
-34
-36
-37
-37
-37
-37
-37
-37
-37
-38
-37
-34
-31
-28
-37
-48
-118
-189
-204
-212
-89
44
256
449
542
614
595
569
520
425
223
58
-33
-85
-72
-62
-54
-51
-58
-63
-67
-70
-73
-74
-71
-69
-68
-67
-66
-65
-64
-63
-62
-61
-60
-58
-56
-55
-55
-51
-49
-49
-49
-49
-49
-46
-43
-41
-39
-37
-35
-34
-33
-31
-28
-25
-22
-19
-16
-11
-8
-5
-1
3
6
9
11
12
15
18
20
22
23
24
24
22
19
16
10
4
-1
-5
-10
-15
-19
-23
-27
-31
-34
-37
-39
-41
-42
-43
-42
-41
-41
-41
-42
-43
-42
-41
-42
-43
-43
-43
-42
-41
-40
-39
-40
-41
-42
-43
-42
-41
-41
-41
-41
-41
-42
-43
-45
-43
-41
-42
-43
-43
-43
-42
-41
-40
-39
-40
-41
-41
-41
-42
-43
-43
-43
-42
-39
-34
-31
-31
-29
-25
-20
-15
-16
-21
-25
-30
-34
-38
-39
-38
-37
-36
-37
-40
-42
-41
-47
-49
-48
-47
-47
-47
-46
-45
-43
-41
-39
-37
-40
-54
-90
-134
-190
-209
-175
-86
67
236
420
532
587
600
583
524
442
282
90
-5
-68
-73
-61
-59
-60
-66
-72
-74
-76
-78
-79
-79
-79
-78
-77
-76
-75
-75
-75
-73
-71
-70
-69
-67
-65
-64
-63
-62
-61
-59
-56
-54
-53
-52
-51
-51
-50
-48
-46
-44
-41
-38
-37
-36
-32
-28
-23
-18
-16
-14
-11
-7
-3
1
4
7
9
11
12
13
14
15
14
12
7
1
-5
-10
-14
-19
-24
-28
-33
-37
-41
-43
-44
-45
-44
-43
-44
-45
-45
-45
-44
-43
-44
-45
-44
-44
-46
-47
-47
-45
-45
-46
-47
-48
-49
-48
-47
-47
-47
-47
-47
-47
-47
-47
-47
-47
-47
-47
-47
-47
-47
-46
-45
-45
-45
-45
-45
-44
-43
-43
-43
-44
-45
-44
-39
-34
-33
-32
-29
-26
-19
-13
-18
-23
-28
-33
-35
-37
-37
-37
-36
-35
-38
-41
-43
-45
-45
-45
-45
-45
-45
-45
-45
-45
-45
-43
-39
-39
-43
-80
-133
-175
-214
-168
-98
83
287
424
551
577
596
577
553
405
256
108
-27
-54
-76
-66
-57
-61
-66
-71
-75
-77
-79
-80
-81
-80
-79
-78
-77
-76
-75
-75
-74
-72
-71
-70
-69
-68
-66
-64
-62
-60
-59
-59
-58
-56
-54
-52
-50
-51
-46
-45
-43
-41
-40
-39
-35
-30
-24
-19
-19
-19
-16
-12
-8
-4
0
4
8
11
14
16
18
19
20
20
18
15
11
6
1
-5
-11
-16
-20
-24
-28
-31
-34
-35
-35
-37
-39
-41
-43
-42
-41
-40
-39
-39
-39
-39
-39
-38
-37
-36
-36
-40
-43
-44
-45
-45
-44
-42
-42
-44
-45
-45
-45
-46
-46
-44
-43
-43
-43
-44
-45
-44
-42
-40
-39
-40
-41
-41
-40
-39
-40
-41
-41
-41
-39
-37
-38
-39
-39
-38
-34
-31
-30
-29
-27
-21
-9
-5
-12
-17
-22
-27
-31
-33
-32
-31
-32
-33
-34
-36
-38
-39
-39
-40
-42
-43
-43
-43
-43
-39
-37
-36
-35
-34
-37
-65
-102
-174
-219
-174
-91
88
266
440
560
589
597
571
489
342
190
32
-50
-75
-77
-62
-57
-58
-61
-64
-66
-68
-69
-70
-70
-68
-67
-67
-65
-62
-63
-65
-64
-63
-62
-61
-58
-55
-53
-51
-49
-47
-45
-43
-44
-45
-44
-42
-39
-36
-33
-29
-25
-23
-22
-20
-18
-16
-14
-13
-12
-8
-3
1
4
7
10
14
18
19
19
19
21
22
23
21
19
15
11
6
1
-2
-5
-8
-12
-17
-22
-25
-27
-28
-29
-30
-31
-31
-31
-32
-33
-32
-31
-32
-33
-34
-35
-35
-35
-35
-35
-34
-33
-34
-35
-36
-37
-37
-36
-35
-34
-33
-35
-37
-37
-37
-37
-37
-38
-39
-39
-39
-38
-37
-36
-35
-34
-33
-36
-37
-36
-35
-34
-33
-33
-33
-34
-35
-34
-33
-33
-33
-32
-27
-22
-21
-21
-20
-18
-10
-3
-8
-13
-17
-21
-23
-25
-27
-29
-27
-25
-26
-27
-29
-31
-33
-35
-35
-35
-35
-35
-34
-33
-32
-30
-28
-29
-33
-76
-136
-179
-215
-145
-45
151
366
491
604
606
598
546
490
283
84
-4
-82
-68
-55
-52
-50
-56
-61
-64
-67
-68
-69
-68
-67
-65
-63
-63
-63
-62
-61
-60
-59
-58
-56
-54
-53
-53
-52
-50
-49
-48
-46
-44
-43
-42
-40
-38
-37
-37
-31
-27
-26
-25
-22
-19
-18
-17
-14
-11
-8
-5
-3
-1
1
4
7
9
11
13
14
16
18
19
19
18
16
13
9
4
-1
-5
-8
-11
-14
-18
-22
-24
-26
-27
-27
-29
-31
-32
-33
-33
-33
-33
-33
-33
-33
-33
-33
-34
-35
-34
-33
-34
-35
-36
-37
-36
-35
-35
-35
-35
-36
-38
-39
-39
-38
-36
-35
-36
-37
-37
-37
-37
-37
-37
-37
-37
-37
-37
-37
-37
-35
-33
-33
-33
-33
-33
-33
-33
-33
-33
-34
-35
-35
-33
-28
-25
-23
-21
-22
-19
-11
-7
-6
-8
-14
-19
-22
-24
-26
-27
-27
-27
-27
-28
-30
-33
-36
-37
-37
-35
-35
-34
-33
-32
-31
-30
-29
-27
-28
-41
-70
-137
-185
-191
-154
-42
111
322
476
564
608
610
584
535
396
199
66
-33
-58
-50
-47
-47
-52
-59
-63
-66
-67
-68
-69
-68
-68
-69
-69
-69
-67
-65
-63
-61
-60
-59
-58
-57
-55
-53
-51
-49
-48
-47
-46
-45
-44
-42
-39
-37
-36
-35
-35
-34
-30
-28
-26
-25
-24
-22
-20
-17
-14
-11
-8
-5
-2
-1
1
4
7
9
11
13
15
15
15
15
15
13
10
5
0
-4
-8
-11
-14
-17
-20
-23
-25
-25
-27
-31
-33
-33
-33
-33
-33
-33
-33
-33
-33
-32
-31
-31
-32
-34
-35
-35
-35
-35
-36
-37
-38
-39
-39
-39
-38
-37
-36
-35
-36
-37
-37
-37
-37
-37
-37
-37
-38
-39
-38
-37
-37
-37
-37
-37
-36
-35
-34
-33
-33
-33
-33
-33
-34
-35
-34
-33
-32
-32
-33
-33
-33
-32
-31
-31
-31
-33
-35
-32
-29
-29
-29
-27
-25
-25
-25
-26
-27
-29
-31
-30
-26
-20
-17
-16
-14
-12
-5
4
3
-3
-9
-14
-17
-20
-21
-21
-21
-21
-22
-25
-27
-29
-27
-25
-26
-27
-26
-25
-26
-27
-25
-23
-21
-20
-24
-48
-102
-151
-193
-184
-118
21
226
392
531
588
596
583
558
418
233
96
-26
-51
-54
-49
-42
-45
-50
-54
-51
-59
-59
-59
-59
-58
-57
-56
-55
-53
-51
-50
-49
-49
-49
-49
-48
-45
-43
-42
-41
-40
-38
-36
-34
-32
-30
-28
-27
-28
-27
-23
-20
-18
-15
-12
-10
-8
-5
-2
-1
-1
0
1
6
11
13
15
17
19
20
21
21
21
23
25
26
27
25
23
21
19
17
14
11
7
3
-2
-7
-9
-10
-12
-14
-16
-18
-19
-19
-19
-20
-21
-21
-23
-26
-27
-25
-26
-27
-27
-27
-27
-27
-26
-25
-26
-27
-27
-27
-27
-27
-28
-29
-29
-29
-29
-29
-29
-29
-30
-31
-31
-31
-30
-29
-30
-31
-30
-29
-29
-29
-29
-29
-29
-29
-30
-30
-31
-28
-29
-28
-27
-28
-29
-27
-25
-25
-25
-26
-27
-27
-27
-27
-27
-26
-25
-25
-25
-26
-27
-27
-26
-24
-23
-24
-25
-26
-27
-26
-24
-22
-21
-21
-21
-22
-23
-24
-24
-22
-15
-9
-9
-9
-7
-5
3
8
1
-6
-11
-15
-16
-17
-13
-11
-13
-16
-20
-23
-24
-25
-24
-23
-24
-25
-24
-23
-22
-20
-18
-17
-17
-47
-86
-148
-216
-184
-137
36
221
397
571
601
628
607
571
423
272
106
-30
-49
-60
-47
-38
-43
-48
-51
-53
-55
-57
-57
-57
-56
-55
-54
-53
-52
-51
-51
-51
-50
-49
-48
-46
-44
-41
-38
-37
-37
-37
-37
-37
-37
-32
-29
-29
-29
-27
-25
-23
-21
-20
-19
-17
-15
-14
-13
-11
-9
-7
-5
-3
0
3
6
8
10
12
13
13
13
14
15
15
15
16
17
16
12
8
6
4
0
-4
-9
-13
-15
-17
-19
-21
-21
-21
-22
-23
-25
-27
-27
-27
-26
-25
-26
-27
-27
-27
-27
-27
-27
-27
-28
-29
-30
-31
-30
-29
-28
-28
-30
-31
-31
-30
-28
-28
-30
-31
-31
-32
-35
-34
-33
-32
-31
-32
-33
-33
-33
-33
-33
-33
-33
-32
-31
-32
-33
-32
-31
-31
-31
-31
-31
-31
-31
-31
-31
-30
-29
-29
-29
-30
-31
-31
-31
-30
-29
-29
-29
-28
-27
-27
-26
-25
-26
-27
-27
-27
-27
-27
-27
-27
-26
-25
-25
-25
-25
-25
-24
-23
-23
-23
-24
-25
-24
-23
-23
-23
-24
-25
-26
-22
-15
-12
-10
-9
-10
-5
2
1
-2
-8
-14
-17
-19
-18
-17
-17
-17
-20
-23
-24
-25
-26
-27
-27
-27
-27
-27
-27
-27
-25
-23
-21
-26
-40
-86
-157
-189
-193
-121
-6
174
383
503
591
607
601
560
513
329
125
28
-60
-55
-45
-43
-41
-47
-53
-57
-61
-62
-63
-62
-61
-60
-59
-59
-59
-59
-59
-57
-55
-53
-51
-51
-51
-50
-48
-46
-44
-42
-41
-41
-41
-40
-38
-36
-35
-34
-33
-32
-31
-30
-28
-29
-22
-19
-19
-19
-16
-13
-10
-7
-4
-1
0
1
3
5
7
10
14
17
17
17
18
19
19
18
16
13
9
5
1
-3
-6
-8
-10
-15
-20
-21
-22
-23
-24
-25
-24
-25
-27
-28
-29
-29
-29
-28
-27
-27
-27
-28
-29
-30
-31
-29
-27
-28
-29
-31
-33
-32
-31
-30
-30
-32
-33
-34
-35
-34
-32
-30
-30
-32
-33
-33
-33
-33
-33
-33
-33
-32
-31
-31
-31
-31
-31
-31
-31
-31
-33
-35
-33
-31
-30
-29
-29
-29
-29
-29
-30
-31
-29
-27
-27
-27
-27
-27
-27
-27
-26
-25
-26
-27
-26
-25
-24
-23
-24
-25
-26
-27
-26
-25
-25
-24
-23
-23
-23
-24
-25
-24
-23
-23
-23
-24
-25
-25
-24
-21
-19
-20
-21
-22
-23
-26
-26
-24
-19
-11
-7
-7
-7
-6
-2
3
2
-3
-9
-14
-15
-16
-17
-16
-15
-15
-19
-23
-24
-25
-26
-27
-26
-25
-25
-25
-23
-21
-20
-19
-15
-24
-57
-106
-180
-209
-183
-101
36
207
406
527
594
604
579
514
430
271
84
-4
-64
-63
-47
-43
-40
-45
-52
-55
-59
-59
-59
-57
-55
-57
-59
-57
-55
-54
-53
-51
-49
-48
-47
-47
-47
-45
-43
-42
-41
-41
-41
-40
-38
-36
-34
-31
-29
-30
-30
-28
-25
-22
-20
-18
-16
-14
-13
-12
-10
-11
-4
-1
1
3
4
5
5
5
7
9
10
11
11
11
12
13
12
10
6
2
-1
-5
-9
-12
-15
-18
-20
-23
-26
-28
-30
-31
-31
-31
-32
-33
-32
-31
-30
-29
-30
-32
-33
-33
-33
-33
-33
-33
-33
-34
-35
-35
-35
-35
-35
-35
-35
-35
-35
-36
-37
-37
-37
-36
-35
-36
-37
-36
-35
-35
-35
-35
-35
-36
-37
-37
-37
-36
-35
-35
-35
-35
-35
-37
-37
-37
-37
-37
-36
-35
-36
-37
-36
-35
-34
-33
-34
-35
-35
-35
-35
-35
-34
-33
-33
-33
-33
-33
-33
-33
-33
-33
-33
-33
-32
-31
-30
-29
-29
-29
-30
-31
-31
-31
-31
-31
-31
-32
-33
-32
-31
-26
-21
-15
-11
-12
-12
-8
-5
-6
-9
-15
-19
-21
-23
-24
-24
-22
-21
-22
-24
-27
-30
-32
-32
-30
-29
-29
-29
-29
-29
-28
-25
-22
-26
-32
-101
-169
-191
-204
-111
-2
214
411
519
603
599
588
558
474
271
104
-2
-63
-58
-53
-48
-48
-54
-59
-63
-65
-66
-67
-67
-66
-64
-63
-62
-61
-60
-59
-59
-57
-54
-53
-53
-53
-51
-50
-49
-47
-45
-45
-45
-44
-43
-42
-41
-38
-35
-33
-31
-31
-30
-27
-25
-23
-21
-20
-18
-15
-12
-10
-8
-5
-2
0
2
4
6
8
10
12
13
14
15
15
15
15
11
9
4
-1
-5
-9
-12
-15
-18
-21
-24
-27
-29
-31
-31
-31
-31
-31
-33
-35
-35
-35
-35
-35
-34
-33
-33
-33
-34
-35
-34
-33
-33
-33
-34
-35
-34
-33
-34
-35
-35
-35
-35
-35
-35
-36
-37
-36
-35
-35
-35
-36
-37
-36
-35
-35
-35
-35
-35
-35
-35
-35
-35
-35
-35
-35
-35
-35
-35
-34
-33
-33
-33
-33
-33
-33
-33
-32
-31
-31
-31
-32
-33
-33
-32
-31
-31
-31
-31
-31
-32
-33
-32
-31
-29
-27
-29
-31
-32
-33
-32
-31
-29
-27
-28
-29
-30
-31
-30
-29
-29
-29
-29
-25
-19
-16
-14
-13
-13
-8
-2
-4
-8
-13
-9
-20
-21
-21
-21
-21
-21
-24
-27
-27
-27
-28
-29
-30
-31
-30
-29
-28
-27
-25
-23
-22
-40
-76
-127
-189
-192
-156
-33
136
311
488
562
601
600
587
458
308
153
-3
-36
-60
-52
-43
-48
-53
-58
-63
-64
-65
-66
-67
-67
-67
-64
-61
-61
-61
-60
-59
-58
-57
-57
-56
-54
-53
-52
-50
-48
-47
-46
-45
-44
-43
-42
-40
-38
-35
-32
-31
-30
-29
-28
-27
-25
-22
-19
-16
-13
-11
-9
-7
-5
-1
3
6
9
11
13
14
15
16
17
19
21
20
18
16
14
11
7
3
-2
-7
-11
-14
-16
-18
-20
-22
-25
-28
-29
-30
-31
-31
-32
-31
-32
-33
-33
-33
-33
-33
-32
-31
-31
-31
-33
-35
-34
-33
-33
-33
-33
-33
-34
-35
-35
-35
-36
-37
-36
-35
-36
-37
-37
-37
-37
-37
-37
-36
-34
-33
-34
-35
-34
-34
-35
-34
-33
-34
-35
-34
-33
-33
-33
-33
-33
-32
-31
-30
-29
-30
-31
-32
-33
-32
-31
-31
-31
-30
-29
-29
-29
-29
-29
-30
-31
-32
-32
-30
-29
-29
-29
-29
-29
-29
-29
-27
-26
-25
-27
-29
-26
-23
-19
-15
-14
-12
-8
-5
-3
-3
-9
-14
-18
-21
-19
-17
-17
-18
-20
-22
-25
-27
-27
-27
-27
-27
-28
-29
-28
-25
-22
-20
-18
-22
-28
-84
-29
-191
-234
-162
-78
131
331
476
594
588
578
556
484
286
116
3
-68
-62
-55
-45
-41
-48
-52
-55
-57
-58
-59
-59
-59
-59
-58
-56
-55
-55
-55
-54
-52
-50
-48
-46
-45
-44
-43
-43
-41
-39
-38
-37
-36
-35
-32
-29
-27
-25
-23
-21
-19
-17
-16
-15
-14
-13
-11
-8
-5
-3
-2
0
2
4
6
9
12
13
12
12
14
15
16
17
17
17
16
12
7
4
1
-2
-5
-8
-11
-15
-19
-21
-23
-25
-27
-29
-31
-31
-31
-32
-33
-32
-31
-31
-31
-31
-31
-32
-33
-32
-31
-32
-33
-34
-35
-35
-34
-32
-32
-34
-35
-35
-35
-35
-35
-35
-36
-37
-38
-39
-38
-37
-37
-37
-39
-41
-40
-39
-38
-37
-37
-37
-37
-37
-38
-39
-38
-37
-37
-37
-38
-39
-38
-37
-36
-35
-35
-35
-35
-35
-35
-35
-35
-35
-34
-34
-35
-34
-33
-33
-33
-33
-33
-34
-35
-36
-37
-35
-31
-23
-17
-18
-19
-18
-15
-10
-9
-14
-19
-24
-27
-28
-29
-28
-27
-26
-27
-30
-32
-34
-35
-34
-33
-33
-33
-34
-35
-35
-33
-31
-29
-29
-51
-82
-157
-215
-205
-160
-11
157
368
526
584
610
587
525
413
270
93
-15
-61
-73
-57
-51
-51
-55
-61
-65
-70
-71
-70
-69
-68
-67
-66
-65
-66
-65
-67
-59
-57
-58
-59
-58
-57
-56
-55
-53
-51
-49
-47
-46
-45
-43
-41
-39
-37
-36
-35
-34
-32
-29
-26
-24
-22
-19
-16
-14
-12
-10
-7
-4
-1
2
4
6
8
10
11
12
13
13
13
13
10
7
4
1
-5
-9
-13
-18
-22
-25
-29
-31
-32
-33
-34
-35
-36
-37
-37
-37
-37
-37
-36
-35
-36
-37
-36
-35
-36
-37
-37
-37
-37
-37
-36
-35
-35
-35
-37
-37
-37
-37
-37
-37
-37
-37
-37
-37
-37
-36
-35
-36
-37
-37
-37
-37
-37
-36
-35
-35
-35
-36
-37
-36
-35
-35
-35
-35
-35
-35
-35
-35
-35
-34
-33
-34
-35
-34
-33
-33
-32
-31
-32
-33
-33
-33
-32
-31
-31
-31
-31
-31
-32
-33
-33
-31
-25
-20
-17
-15
-18
-15
-6
-2
-5
-10
-16
-20
-22
-23
-23
-22
-20
-21
-24
-27
-30
-31
-32
-33
-32
-31
-31
-30
-29
-28
-27
-24
-22
-28
-46
-109
-162
-189
-184
-103
24
232
404
522
588
591
577
544
421
224
82
-21
-57
-53
-48
-43
-46
-53
-59
-64
-65
-65
-65
-65
-65
-65
-65
-63
-61
-59
-57
-55
-54
-53
-53
-53
-51
-49
-48
-47
-46
-45
-44
-43
-42
-40
-37
-35
-35
-34
-32
-30
-28
-26
-24
-22
-20
-19
-18
-15
-12
-8
-4
-2
0
3
6
8
7
14
17
18
19
20
21
23
25
24
23
18
14
9
4
1
-2
-5
-8
-12
-16
-19
-21
-21
-22
-24
-25
-26
-27
-28
-29
-29
-29
-28
-27
-27
-27
-28
-29
-29
-29
-28
-28
-29
-29
-29
-29
-29
-29
-29
-30
-31
-31
-31
-31
-31
-31
-31
-31
-31
-31
-31
-31
-31
-31
-31
-31
-31
-32
-33
-32
-31
-30
-29
-30
-31
-32
-32
-30
-29
-30
-30
-28
-27
-29
-28
-27
-28
-29
-29
-29
-29
-29
-29
-29
-28
-27
-26
-25
-26
-27
-26
-25
-23
-21
-22
-23
-24
-25
-25
-25
-25
-25
-25
-23
-18
-13
-7
-5
-6
-3
2
3
4
-1
5
-12
-15
-15
-15
-15
-15
-16
-17
-18
-19
-21
-23
-23
-23
-23
-23
-22
-21
-21
-21
-18
-19
-23
-54
-108
-156
-201
-181
-124
22
206
372
532
581
601
593
577
437
281
128
-24
-43
-59
-46
-33
-37
-41
-46
-51
-54
-57
-55
-53
-52
-51
-51
-51
-50
-49
-48
-46
-43
-41
-40
-39
-38
-37
-37
-36
-34
-32
-30
-29
-28
-26
-24
-22
-20
-18
-16
-14
-12
-9
-5
-3
-1
1
3
5
7
9
11
15
19
21
23
24
25
26
27
28
29
29
29
30
31
32
31
25
21
17
13
9
4
-1
-5
-8
-9
-9
-11
-14
-15
-16
-17
-17
-19
-21
-21
-21
-20
-19
-18
-17
-18
-19
-19
-19
-20
-21
-21
-21
-21
-21
-21
-21
-21
-21
-21
-21
-21
-21
-22
-23
-23
-23
-22
-21
-21
-21
-21
-21
-22
-23
-23
-23
-24
-24
-23
-22
-21
-21
-21
-21
-21
-21
-21
-21
-21
-22
-23
-22
-21
-21
-21
-20
-19
-19
-19
-18
-18
-20
-21
-20
-19
-20
-21
-20
-19
-19
-19
-20
-21
-22
-22
-20
-12
-4
-3
-5
-3
-1
5
11
7
2
-5
-11
-12
-13
-12
-11
-12
-13
-15
-17
-17
-17
-18
-19
-19
-19
-19
-19
-19
-19
-18
-14
-9
-29
-61
-130
-210
-199
-166
-35
113
299
490
559
499
594
563
504
434
243
69
-6
-65
-53
-43
-40
-38
-43
-48
-51
-53
-53
-53
-53
-53
-53
-52
-49
-47
-46
-45
-45
-44
-42
-41
-41
-41
-40
-38
-36
-35
-34
-32
-30
-28
-26
-25
-25
-24
-23
-20
-17
-14
-11
-9
-7
-7
-7
-5
-3
1
3
5
7
8
9
11
14
16
17
18
19
19
19
18
17
17
16
14
11
8
3
-2
-5
-8
-11
-14
-18
-23
-24
-25
-27
-29
-29
-29
-30
-31
-30
-29
-29
-29
-29
-29
-30
-31
-30
-29
-28
-27
-28
-29
-29
-29
-29
-29
-29
-29
-30
-31
-31
-31
-31
-31
-32
-33
-33
-33
-32
-31
-31
-32
-31
-31
-31
-32
-33
-33
-33
-32
-31
-32
-33
-33
-33
-33
-33
-33
-33
-33
-33
-33
-33
-32
-31
-32
-33
-32
-31
-31
-31
-31
-31
-30
-29
-29
-29
-29
-29
-28
-27
-28
-28
-27
-28
-29
-30
-31
-28
-24
-17
-11
-14
-16
-12
-8
-4
-3
-9
-14
-17
-19
-21
-22
-20
-19
-20
-22
-25
-27
-28
-29
-28
-27
-27
-27
-28
-29
-28
-26
-24
-23
-22
-43
-68
-137
-203
-192
-169
-51
81
291
475
556
615
605
581
526
418
209
51
-28
-67
-53
-45
-45
-48
-54
-58
-61
-63
-63
-63
-64
-65
-65
-65
-64
-62
-60
-59
-58
-57
-56
-54
-55
-49
-47
-47
-47
-46
-45
-43
-41
-40
-39
-38
-37
-36
-35
-33
-30
-27
-25
-24
-23
-20
-18
-15
-11
-7
-4
-2
0
2
5
8
11
14
15
16
17
18
19
20
21
21
18
15
11
7
2
-3
-7
-11
-15
-19
-22
-25
-27
-29
-29
-29
-30
-31
-31
-31
-31
-31
-31
-31
-31
-31
-31
-31
-31
-31
-31
-31
-32
-33
-33
-33
-33
-33
-33
-33
-34
-35
-33
-34
-35
-34
-33
-34
-35
-35
-35
-35
-35
-34
-33
-34
-35
-34
-33
-33
-33
-33
-33
-33
-33
-33
-33
-32
-31
-31
-31
-32
-33
-33
-33
-33
-33
-32
-31
-31
-31
-31
-31
-31
-30
-29
-29
-29
-30
-31
-30
-29
-29
-29
-29
-29
-29
-29
-29
-29
-28
-27
-28
-28
-25
-20
-14
-12
-14
-11
-4
-1
-2
-8
-15
-18
-20
-21
-22
-23
-22
-22
-24
-26
-28
-30
-31
-31
-31
-31
-31
-30
-29
-29
-29
-26
-24
-29
-51
-112
-162
-192
-184
-115
15
220
388
518
584
597
590
568
437
247
104
-18
-52
-54
-51
-46
-49
-54
-59
-64
-65
-65
-65
-67
-66
-65
-64
-63
-62
-61
-61
-61
-59
-57
-55
-53
-53
-53
-51
-49
-48
-47
-46
-45
-44
-43
-43
-43
-42
-40
-37
-34
-32
-31
-30
-28
-26
-23
-20
-18
-16
-15
-14
-10
-13
0
5
5
5
6
7
10
13
16
19
18
17
17
17
15
12
6
2
-1
-5
-12
-17
-21
-23
-23
-24
-27
-30
-32
-33
-33
-33
-32
-32
-34
-35
-35
-35
-34
-33
-33
-34
-35
-34
-33
-34
-35
-35
-35
-36
-37
-38
-39
-39
-39
-38
-37
-38
-39
-38
-37
-37
-37
-37
-37
-38
-39
-40
-41
-41
-40
-38
-37
-37
-37
-38
-39
-38
-37
-37
-37
-36
-35
-37
-38
-39
-37
-35
-35
-35
-35
-35
-35
-35
-35
-35
-34
-33
-34
-35
-34
-33
-33
-33
-32
-31
-32
-33
-33
-33
-33
-34
-36
-36
-34
-32
-30
-29
-28
-27
-28
-29
-30
-31
-31
-30
-27
-21
-15
-17
-19
-14
-9
-5
-2
-9
-16
-21
-25
-24
-23
-21
-19
-21
-24
-27
-29
-30
-31
-30
-30
-32
-32
-30
-29
-29
-27
-24
-23
-22
-54
-94
-161
-230
-203
-168
-11
149
341
523
574
616
586
545
450
336
156
9
-44
-76
-59
-47
-47
-49
-55
-59
-59
-59
-60
-61
-60
-59
-60
-60
-58
-57
-57
-57
-56
-55
-54
-53
-52
-48
-44
-43
-43
-43
-43
-41
-39
-36
-33
-33
-33
-31
-29
-26
-23
-21
-19
-17
-15
-14
-13
-11
-8
-5
-3
-2
1
5
8
10
11
12
13
13
13
14
15
16
18
20
18
14
11
8
4
7
-3
-5
-11
-17
-21
-25
-26
-27
-27
-27
-28
-29
-30
-31
-30
-29
-29
-29
-30
-32
-35
-37
-36
-34
-32
-31
-31
-32
-34
-35
-36
-37
-36
-35
-35
-35
-36
-37
-37
-37
-36
-35
-35
-37
-39
-38
-37
-37
-37
-37
-37
-36
-35
-35
-35
-35
-35
-35
-35
-35
-35
-35
-35
-34
-33
-34
-35
-35
-35
-34
-33
-32
-31
-32
-33
-33
-33
-32
-31
-31
-31
-32
-33
-33
-32
-31
-30
-29
-29
-29
-30
-31
-31
-30
-26
-22
-18
-16
-19
-18
-9
-3
-5
-9
-14
-19
-23
-25
-24
-22
-20
-20
-22
-25
-28
-29
-30
-31
-32
-32
-30
-30
-32
-33
-33
-27
-23
-25
-31
-78
-127
-191
-234
-181
-103
63
235
420
558
599
617
595
520
373
221
61
-33
-65
-70
-52
-46
-49
-54
-59
-63
-66
-67
-67
-67
-66
-65
-65
-65
-64
-62
-60
-59
-59
-58
-57
-55
-53
-52
-51
-49
-47
-47
-47
-46
-45
-41
-39
-38
-37
-36
-34
-31
-28
-26
-25
-24
-22
-20
-18
-14
-12
-10
-8
-6
-3
0
2
4
6
8
9
9
9
11
12
13
11
9
6
3
-2
-7
-10
-14
-18
-21
-24
-28
-31
-33
-35
-37
-37
-37
-38
-39
-38
-37
-38
-38
-36
-35
-36
-37
-37
-37
-38
-39
-38
-37
-37
-37
-38
-39
-39
-37
-37
-38
-39
-40
-41
-40
-39
-39
-39
-39
-39
-39
-39
-39
-39
-38
-37
-38
-39
-39
-39
-39
-39
-38
-37
-38
-39
-39
-39
-38
-37
-37
-37
-37
-37
-37
-37
-37
-37
-36
-35
-35
-35
-35
-35
-35
-34
-33
-34
-35
-36
-37
-36
-35
-35
-35
-36
-37
-37
-35
-29
-23
-18
-17
-21
-18
-9
-5
-6
-10
-15
-20
-24
-25
-26
-27
-26
-25
-25
-27
-30
-32
-35
-35
-35
-34
-33
-33
-33
-34
-35
-31
-27
-25
-32
-62
-106
-173
-207
-184
-96
77
260
454
565
604
613
599
494
334
173
13
-45
-62
-60
-49
-51
-58
-62
-66
-68
-70
-71
-71
-68
-67
-66
-65
-65
-65
-64
-63
-60
-57
-56
-55
-54
-53
-52
-51
-49
-47
-47
-47
-46
-44
-42
-40
-38
-37
-36
-34
-32
-29
-26
-24
-22
-21
-20
-17
-14
-11
-8
-5
-2
1
3
6
9
11
13
15
17
18
19
20
21
18
15
11
8
3
-3
-8
-12
-15
-19
-23
-26
-28
-30
-32
-33
-33
-33
-33
-33
-33
-33
-33
-33
-34
-35
-35
-35
-35
-35
-35
-36
-37
-36
-35
-35
-35
-36
-37
-37
-37
-37
-37
-37
-37
-38
-39
-39
-39
-38
-37
-38
-39
-39
-39
-38
-37
-37
-37
-37
-37
-37
-37
-38
-39
-38
-37
-37
-37
-38
-39
-39
-37
-35
-35
-35
-36
-37
-37
-37
-36
-35
-34
-33
-35
-37
-36
-35
-34
-33
-33
-33
-34
-35
-34
-32
-30
-30
-32
-33
-33
-33
-32
-27
-21
-19
-19
-19
-19
-9
2
-1
-6
-15
-23
-27
-31
-29
-27
-24
-21
-23
-25
-28
-31
-32
-33
-33
-33
-33
-33
-33
-33
-32
-29
-25
-24
-26
-57
-108
-157
-204
-180
-123
41
242
400
546
581
593
583
569
406
231
92
-45
-54
-63
-52
-41
-48
-55
-62
-67
-67
-67
-66
-65
-65
-65
-64
-63
-62
-61
-59
-57
-57
-57
-56
-55
-54
-52
-49
-47
-47
-47
-47
-45
-42
-40
-38
-35
-32
-30
-28
-27
-27
-22
-19
-17
-15
-13
-11
-8
-5
-1
3
5
7
8
10
13
16
19
21
23
25
24
23
23
22
20
18
15
10
5
1
-2
-5
-8
-13
-18
-21
-24
-25
-26
-27
-27
-27
-27
-27
-27
-28
-29
-28
-27
-27
-27
-29
-31
-32
-33
-31
-29
-30
-31
-30
-29
-30
-31
-32
-33
-33
-33
-32
-31
-32
-33
-34
-35
-34
-32
-30
-30
-32
-33
-32
-31
-31
-31
-31
-30
-29
-31
-33
-32
-31
-30
-29
-28
-27
-26
-25
-26
-27
-28
-29
-29
-29
-28
-27
-26
-25
-25
-25
-25
-25
-26
-27
-26
-25
-24
-24
-26
-27
-26
-25
-26
-26
-24
-20
-23
-11
-7
-8
-9
-3
3
5
6
-2
-10
-17
-23
-21
-18
-13
-10
-16
-19
-21
-23
-24
-25
-26
-27
-26
-25
-25
-25
-24
-23
-22
-21
-20
-44
-76
-144
-220
-199
-166
-20
132
321
506
567
621
588
549
463
360
178
23
-36
-75
-59
-47
-43
-42
-47
-52
-55
-57
-56
-55
-55
-55
-55
-55
-54
-52
-50
-49
-48
-47
-47
-46
-44
-42
-40
-38
-36
-35
-34
-33
-33
-30
-27
-25
-23
-22
-21
-19
-17
-14
-11
-9
-7
-5
-3
-2
0
4
7
9
11
12
13
14
16
18
19
20
21
21
21
21
21
20
17
14
11
8
2
-4
-7
-5
-13
-15
-18
-21
-23
-25
-25
-25
-25
-25
-26
-27
-28
-29
-28
-27
-26
-25
-26
-27
-27
-27
-26
-25
-26
-27
-27
-27
-27
-27
-28
-29
-29
-30
-32
-33
-33
-33
-32
-31
-31
-31
-31
-32
-33
-32
-31
-30
-29
-30
-31
-31
-31
-31
-31
-31
-31
-31
-31
-31
-31
-31
-31
-30
-29
-30
-31
-30
-29
-29
-29
-28
-27
-28
-29
-28
-27
-28
-29
-29
-29
-28
-23
-17
-17
-17
-14
-11
-4
3
-4
-9
-13
-17
-19
-21
-21
-21
-21
-22
-25
-27
-28
-29
-30
-31
-31
-31
-32
-32
-30
-29
-29
-27
-24
-30
-39
-100
-172
-189
-196
-94
21
231
27
536
621
606
589
543
474
268
83
-5
-71
-61
-52
-48
-47
-53
-58
-61
-63
-65
-67
-68
-68
-66
-65
-64
-63
-62
-61
-61
-60
-58
-56
-54
-53
-52
-51
-50
-48
-46
-45
-45
-44
-43
-41
-39
-38
-37
-34
-31
-30
-29
-27
-25
-24
-23
-19
-17
-15
-12
-9
-6
-3
0
3
6
8
10
12
14
16
17
18
19
18
14
10
6
2
-3
-8
-12
-16
-21
-27
-29
-31
-32
-33
-34
-35
-37
-39
-39
-39
-38
-37
-38
-39
-39
-39
-39
-39
-39
-39
-39
-39
-40
-41
-40
-39
-38
-38
-40
-41
-42
-43
-43
-43
-42
-41
-42
-43
-43
-43
-43
-40
-39
-40
-41
-41
-41
-40
-39
-38
-37
-39
-41
-41
-41
-40
-39
-39
-39
-39
-39
-39
-39
-38
-37
-37
-37
-37
-37
-37
-37
-37
-37
-36
-35
-36
-37
-36
-30
-24
-22
-20
-19
-19
-12
-5
-9
-13
-18
-23
-26
-29
-29
-29
-28
-27
-29
-31
-33
-35
-37
-39
-38
-37
-37
-37
-37
-37
-36
-34
-30
-37
-49
-104
-173
-192
-196
-95
29
234
450
536
612
609
600
482
360
169
-5
-43
-74
-61
-52
-57
-62
-67
-71
-73
-75
-74
-73
-73
-73
-72
-71
-70
-68
-66
-65
-64
-62
-60
-59
-59
-59
-58
-56
-54
-53
-52
-50
-48
-47
-47
-45
-47
-39
-37
-36
-35
-33
-31
-29
-27
-23
-19
-17
-15
-13
-10
-6
-2
2
6
9
11
12
14
17
20
22
23
22
21
21
19
16
12
7
0
-7
-11
-14
-18
-22
-25
-28
-29
-29
-31
-33
-33
-33
-33
-33
-34
-35
-36
-37
-36
-35
-35
-35
-35
-35
-36
-37
-37
-37
-36
-36
-38
-39
-40
-40
-38
-37
-37
-37
-38
-40
-42
-41
-38
-37
-37
-37
-37
-37
-35
-36
-37
-37
-37
-36
-35
-34
-33
-34
-35
-34
-33
-34
-35
-35
-35
-33
-31
-31
-31
-30
-29
-30
-31
-32
-33
-32
-30
-28
-26
-24
-21
-18
-15
-12
-6
0
-4
-10
-14
-11
-20
-21
-23
-25
-25
-25
-25
-25
-27
-29
-30
-31
-33
-35
-34
-33
-33
-33
-34
-34
-31
-29
-28
-50
-92
-148
-212
-203
-154
-16
160
338
516
575
602
582
553
443
323
162
-2
-43
-81
-65
-49
-51
-53
-54
-55
-59
-63
-63
-63
-62
-61
-61
-61
-59
-57
-57
-57
-56
-54
-51
-49
-48
-47
-46
-45
-44
-42
-40
-38
-36
-35
-34
-33
-32
-29
-26
-23
-20
-18
-15
-14
-13
-11
-9
-6
-3
0
3
6
9
11
13
13
13
14
15
17
19
20
21
20
18
16
13
7
4
2
-2
-7
-11
-16
-19
-22
-24
-26
-28
-30
-31
-31
-31
-31
-31
-31
-31
-31
-32
-33
-33
-33
-32
-31
-31
-31
-31
-31
-32
-33
-33
-33
-33
-33
-33
-33
-33
-33
-33
-33
-34
-35
-35
-35
-35
-35
-34
-33
-33
-33
-34
-35
-35
-35
-34
-33
-33
-33
-33
-33
-33
-34
-35
-35
-35
-35
-35
-34
-33
-32
-31
-30
-29
-31
-33
-31
-27
-23
-20
-18
-17
-18
-14
-4
-2
-4
-8
-13
-18
-22
-23
-23
-23
-22
-21
-22
-25
-29
-29
-29
-30
-31
-32
-33
-33
-33
-32
-31
-29
-27
-25
-29
-47
-87
-158
-198
-195
-137
-20
147
358
497
584
607
591
544
483
320
117
11
-64
-68
-54
-50
-48
-52
-58
-61
-59
-65
-65
-64
-63
-63
-63
-61
-59
-58
-57
-56
-55
-55
-55
-53
-51
-49
-47
-47
-47
-46
-44
-42
-40
-38
-36
-34
-33
-32
-30
-28
-27
-26
-23
-20
-18
-16
-14
-12
-9
-6
-3
-1
2
5
7
9
11
13
14
15
16
17
17
17
15
12
8
3
-2
-6
-9
-12
-15
-19
-23
-25
-26
-28
-30
-31
-31
-31
-31
-31
-31
-31
-32
-33
-32
-31
-32
-33
-33
-33
-33
-32
-31
-31
-31
-32
-33
-32
-31
-31
-31
-32
-33
-33
-33
-33
-33
-32
-31
-32
-33
-33
-33
-32
-31
-31
-31
-32
-33
-32
-31
-30
-29
-30
-31
-31
-31
-31
-31
-31
-31
-31
-31
-31
-31
-31
-30
-29
-28
-27
-27
-27
-28
-29
-29
-29
-28
-27
-27
-26
-23
-20
-17
-15
-14
-11
-7
-3
0
-2
-7
-11
-14
-17
-20
-21
-22
-22
-20
-19
-20
-24
-27
-28
-29
-29
-29
-28
-27
-27
-27
-27
-27
-25
-23
-22
-36
-79
-126
-178
-190
-151
-38
148
322
486
571
603
606
592
484
333
178
20
-32
-55
-52
-43
-45
-50
-55
-60
-62
-65
-65
-65
-64
-63
-61
-59
-60
-61
-59
-57
-56
-55
-53
-51
-51
-51
-49
-47
-45
-43
-43
-43
-42
-40
-38
-36
-33
-31
-31
-31
-31
-30
-28
-25
-22
-20
-18
-15
-12
-9
-11
-2
1
3
5
7
9
12
15
18
21
21
21
20
19
18
17
15
11
6
1
-4
-9
-13
-16
-18
-20
-23
-25
-26
-27
-27
-27
-27
-27
-28
-29
-30
-31
-30
-29
-29
-30
-31
-32
-33
-32
-31
-30
-29
-32
-35
-35
-35
-36
-37
-37
-37
-36
-35
-36
-37
-38
-38
-36
-35
-35
-35
-35
-35
-36
-37
-36
-35
-35
-35
-34
-33
-34
-35
-35
-35
-34
-33
-35
-34
-33
-33
-33
-32
-31
-32
-33
-33
-33
-34
-35
-34
-33
-32
-31
-30
-29
-30
-31
-28
-28
-30
-31
-30
-29
-29
-29
-30
-31
-31
-30
-28
-28
-30
-31
-30
-26
-22
-21
-21
-17
-15
-7
1
-3
-7
-12
-17
-19
-21
-22
-23
-21
-19
-21
-24
-27
-29
-30
-31
-31
-31
-31
-31
-31
-30
-27
-25
-24
-26
-31
-76
-133
-182
-229
-179
-109
72
266
419
568
576
581
557
521
331
151
31
-69
-67
-63
-54
-47
-50
-54
-58
-61
-63
-65
-66
-66
-63
-61
-60
-59
-58
-57
-56
-55
-54
-53
-52
-51
-50
-48
-46
-44
-42
-41
-40
-39
-38
-36
-33
-32
-31
-28
-25
-24
-23
-21
-19
-15
-11
-11
-11
-9
-7
-5
-3
-1
1
3
5
8
9
9
9
10
12
15
17
17
15
10
9
9
7
4
-1
-6
-11
-16
-17
-17
-20
-21
-24
-27
-29
-31
-31
-31
-31
-31
-31
-31
-31
-31
-31
-31
-31
-31
-32
-33
-34
-35
-36
-37
-36
-35
-35
-36
-38
-38
-36
-35
-35
-35
-35
-36
-38
-39
-38
-37
-37
-37
-37
-38
-39
-38
-37
-37
-37
-37
-37
-37
-37
-35
-33
-34
-35
-36
-37
-37
-37
-36
-35
-34
-33
-34
-35
-34
-33
-33
-33
-33
-33
-33
-33
-33
-33
-33
-32
-30
-29
-30
-31
-33
-33
-33
-29
-25
-22
-19
-20
-20
-15
-10
-5
-2
-8
-15
-22
-27
-26
-25
-23
-21
-22
-24
-27
-30
-32
-33
-33
-33
-33
-33
-33
-33
-32
-30
-28
-26
-24
-39
-58
-132
-59
-202
-189
-44
106
317
507
570
618
598
553
425
284
108
-22
-57
-74
-60
-51
-51
-53
-60
-64
-66
-67
-66
-65
-65
-65
-64
-63
-62
-61
-61
-61
-60
-59
-58
-57
-56
-54
-52
-50
-49
-48
-47
-46
-45
-44
-43
-42
-41
-39
-37
-36
-35
-31
-29
-28
-27
-25
-23
-21
-18
-15
-12
-9
-6
-4
-2
0
1
2
3
4
5
6
7
8
9
9
6
2
-1
-5
-9
-13
-17
-21
-24
-27
-30
-33
-35
-37
-37
-37
-38
-39
-39
-39
-38
-37
-37
-37
-37
-37
-37
-37
-36
-35
-36
-37
-37
-37
-38
-39
-39
-39
-38
-37
-37
-37
-38
-39
-39
-39
-39
-40
-41
-40
-39
-39
-39
-39
-39
-38
-37
-38
-39
-38
-37
-37
-37
-38
-39
-39
-39
-38
-37
-36
-35
-36
-37
-37
-37
-37
-36
-34
-33
-34
-35
-35
-35
-35
-35
-34
-34
-35
-34
-33
-33
-33
-33
-33
-32
-31
-31
-31
-31
-31
-31
-31
-30
-29
-30
-31
-30
-27
-22
-19
-18
-17
-16
-11
-4
-5
-11
-16
-20
-22
-24
-25
-24
-23
-23
-24
-26
-28
-31
-32
-33
-32
-31
-32
-33
-32
-31
-29
-27
-25
-31
-58
-100
-167
-201
-180
-94
75
256
448
561
603
614
600
501
351
191
28
-35
-59
-57
-46
-47
-52
-57
-62
-65
-68
-69
-69
-66
-65
-65
-65
-64
-63
-61
-59
-57
-55
-55
-55
-54
-53
-52
-51
-49
-47
-46
-45
-44
-42
-40
-39
-38
-36
-34
-32
-30
-28
-26
-24
-22
-20
-18
-14
-10
-8
-6
-3
0
4
7
9
11
14
17
17
17
18
19
20
21
19
17
13
10
6
2
-1
-4
-8
-12
-15
-18
-21
-24
-26
-27
-28
-29
-29
-30
-32
-33
-32
-31
-31
-31
-30
-29
-30
-31
-33
-32
-31
-31
-31
-32
-33
-33
-33
-33
-33
-33
-33
-33
-33
-34
-35
-36
-37
-36
-35
-35
-35
-34
-34
-36
-37
-37
-37
-36
-35
-35
-35
-35
-35
-34
-33
-32
-31
-32
-33
-33
-33
-31
-31
-31
-32
-33
-33
-33
-31
-29
-28
-27
-29
-31
-31
-31
-29
-27
-28
-29
-28
-27
-27
-27
-27
-27
-28
-29
-29
-29
-29
-29
-28
-27
-27
-27
-27
-27
-26
-25
-25
-26
-27
-22
-17
-14
-11
-13
-14
-2
6
0
-6
-12
-17
-18
-19
-19
-19
-18
-17
-19
-22
-25
-27
-27
-27
-26
-25
-24
-23
-23
-23
-23
-20
-16
-26
-41
-111
-188
-195
-196
-73
56
268
471
546
611
592
568
521
443
241
68
-17
-74
-60
-49
-43
-41
-47
-53
-58
-61
-62
-63
-62
-60
-58
-57
-56
-55
-56
-56
-54
-53
-52
-50
-48
-47
-48
-49
-48
-46
-47
-40
-37
-36
-35
-33
-31
-30
-29
-27
-25
-22
-19
-17
-15
-15
-14
-11
-8
-5
-2
1
3
4
6
9
12
15
17
17
17
17
17
18
20
22
19
14
13
12
9
6
-1
-7
-10
-13
-15
-17
-18
-19
-20
-21
-25
-29
-30
-31
-30
-29
-30
-31
-32
-33
-32
-31
-30
-29
-29
-30
-32
-33
-33
-33
-32
-31
-32
-34
-36
-37
-36
-34
-32
-32
-34
-36
-39
-39
-39
-37
-35
-34
-33
-35
-37
-37
-37
-36
-35
-36
-37
-36
-35
-36
-37
-36
-35
-35
-35
-35
-35
-36
-36
-34
-33
-34
-35
-36
-37
-36
-35
-34
-33
-33
-33
-33
-33
-33
-33
-33
-32
-31
-32
-33
-32
-31
-30
-29
-31
-33
-34
-33
-27
-22
-18
-15
-17
-16
-7
-4
-7
-11
-15
-18
-21
-23
-23
-23
-22
-22
-24
-26
-28
-29
-29
-29
-29
-29
-29
-28
-27
-27
-27
-22
-18
-34
-60
-139
-202
-209
-187
-79
60
270
442
548
606
593
573
544
432
238
87
-26
-70
-65
-57
-47
-46
-51
-56
-60
-61
-61
-61
-60
-59
-59
-59
-58
-57
-57
-55
-53
-51
-49
-49
-49
-47
-45
-45
-45
-42
-39
-38
-37
-36
-35
-33
-31
-30
-29
-26
-24
-22
-20
-18
-17
-16
-13
-10
-8
-6
-4
-2
1
4
5
6
7
8
10
9
14
15
15
15
14
13
12
11
9
6
1
-4
-8
-12
-16
-19
-21
-23
-25
-28
-31
-33
-33
-33
-33
-33
-33
-33
-34
-35
-35
-35
-34
-33
-33
-33
-33
-33
-33
-33
-32
-31
-31
-31
-31
-32
-33
-32
-31
-32
-33
-34
-35
-34
-33
-32
-31
-32
-33
-33
-33
-34
-35
-34
-33
-33
-33
-34
-35
-35
-35
-34
-33
-34
-35
-36
-36
-34
-33
-32
-31
-32
-33
-33
-32
-31
-31
-31
-31
-31
-31
-31
-31
-31
-30
-29
-30
-31
-31
-31
-31
-31
-29
-27
-27
-27
-28
-29
-30
-28
-22
-17
-13
-13
-18
-13
-5
-3
-3
-8
-14
-18
-22
-23
-23
-21
-19
-21
-23
-25
-27
-28
-29
-30
-31
-30
-29
-30
-31
-29
-27
-25
-23
-24
-37
-62
-109
-177
-195
-174
-76
72
254
455
556
614
618
603
507
392
221
41
-20
-66
-54
-38
-41
-45
-52
-59
-62
-65
-65
-65
-64
-63
-63
-63
-61
-59
-58
-57
-56
-55
-53
-51
-51
-50
-48
-47
-46
-45
-45
-44
-40
-39
-38
-36
-34
-33
-33
-31
-28
-26
-24
-23
-22
-20
-17
-13
-9
-6
-3
-1
1
4
7
10
13
16
19
20
21
22
23
24
25
25
23
18
13
8
3
-1
-5
-9
-13
-17
-21
-26
-27
-28
-29
-29
-29
-30
-31
-31
-31
-31
-30
-29
-29
-29
-31
-33
-32
-31
-32
-33
-32
-31
-32
-33
-32
-31
-32
-33
-32
-31
-32
-33
-33
-33
-32
-31
-32
-33
-33
-33
-33
-33
-33
-33
-33
-33
-33
-33
-33
-33
-32
-31
-31
-30
-29
-30
-31
-31
-31
-31
-31
-30
-29
-29
-29
-29
-29
-29
-29
-29
-29
-29
-29
-28
-27
-27
-27
-27
-27
-27
-27
-27
-27
-27
-27
-26
-25
-25
-25
-25
-25
-24
-23
-25
-25
-25
-24
-23
-24
-25
-26
-27
-24
-19
-11
-5
-8
-10
-7
-3
2
3
-3
-9
-14
-17
-17
-17
-16
-15
-16
-17
-18
-21
-24
-25
-26
-27
-26
-25
-26
-26
-24
-22
-23
-18
-17
-36
-59
-125
-183
-183
-163
-55
77
283
456
546
606
602
585
545
436
232
80
-12
-53
-44
-39
-38
-41
-50
-55
-58
-59
-59
-58
-56
-55
-56
-57
-56
-54
-52
-50
-48
-47
-47
-46
-45
-46
-47
-43
-39
-37
-35
-34
-33
-33
-33
-31
-29
-27
-25
-23
-21
-20
-18
-15
-11
-7
-3
1
4
6
9
12
15
18
21
24
26
28
31
34
36
38
39
39
38
37
36
35
31
26
19
13
9
5
3
0
-5
-9
-11
-13
-15
-17
-18
-19
-20
-21
-20
-19
-20
-21
-21
-22
-24
-25
-25
-25
-25
-25
-24
-23
-24
-25
-25
-25
-25
-26
-25
-24
-23
-26
-29
-28
-27
-26
-25
-24
-23
-25
-27
-26
-25
-24
-23
-25
-27
-24
-23
-22
-21
-22
-23
-23
-23
-22
-21
-22
-23
-22
-21
-21
-21
-22
-23
-23
-21
-18
-17
-17
-20
-23
-23
-23
-21
-19
-20
-21
-19
-17
-18
-19
-18
-17
-18
-19
-19
-19
-19
-18
-16
-15
-15
-15
-15
-15
-15
-15
-16
-17
-18
-18
-16
-8
1
2
0
3
8
9
11
6
1
-3
-7
-7
-7
-8
-9
-8
-7
-7
-7
-10
-14
-17
-19
-18
-17
-16
-15
-12
-11
-11
-9
-5
-16
-37
-99
-180
-198
-191
-101
15
203
408
520
617
609
588
568
587
361
178
58
-51
-52
-52
-38
-27
-33
-37
-42
-45
-46
-47
-45
-43
-43
-43
-43
-43
-42
-41
-40
-39
-38
-36
-34
-33
-33
-32
-30
-28
-26
-25
-26
-24
-20
-18
-16
-14
-12
-10
-9
-8
-7
-5
-3
0
3
5
7
9
11
14
18
22
25
25
25
26
28
31
34
36
37
37
36
34
32
30
27
24
20
15
9
4
1
-2
-6
-10
-12
-14
-16
-19
-19
-19
-18
-17
-18
-19
-20
-21
-21
-21
-20
-19
-19
-19
-21
-23
-21
-19
-19
-19
-19
-19
-20
-21
-22
-23
-23
-23
-24
-25
-24
-23
-23
-23
-23
-23
-24
-25
-26
-27
-27
-26
-25
-25
-25
-25
-25
-25
-25
-24
-23
-23
-23
-23
-23
-24
-25
-24
-23
-23
-23
-23
-23
-22
-21
-22
-23
-23
-23
-23
-23
-23
-23
-22
-21
-22
-23
-22
-21
-22
-23
-23
-22
-21
-17
-13
-11
-9
-6
-3
0
2
-4
-9
-11
-13
-17
-19
-18
-17
-17
-17
-17
-18
-20
-21
-22
-23
-24
-24
-22
-21
-21
-21
-20
-18
-16
-15
-15
-38
-64
-134
-206
-187
-161
-18
129
326
510
579
635
619
589
508
397
194
33
-30
-66
-51
-41
-41
-43
-48
-52
-57
-59
-60
-61
-60
-58
-56
-55
-54
-53
-54
-54
-52
-51
-50
-49
-48
-47
-47
-46
-47
-41
-39
-38
-37
-37
-37
-34
-31
-29
-27
-26
-25
-23
-21
-19
-16
-13
-11
-9
-7
-4
-1
3
7
11
14
16
18
20
23
26
28
30
31
31
31
30
26
22
17
12
5
-1
-5
-9
-14
-19
-21
-23
-27
-31
-32
-33
-33
-33
-33
-33
-33
-33
-33
-33
-33
-33
-33
-33
-34
-35
-35
-35
-35
-35
-34
-33
-33
-33
-33
-33
-33
-33
-33
-33
-34
-35
-37
-36
-35
-34
-33
-34
-35
-35
-35
-35
-35
-34
-33
-33
-33
-34
-35
-35
-35
-34
-33
-33
-33
-33
-33
-33
-33
-32
-31
-32
-33
-33
-33
-32
-31
-31
-31
-32
-33
-33
-33
-33
-30
-29
-29
-29
-30
-31
-30
-29
-30
-31
-33
-35
-32
-28
-23
-19
-17
-14
-11
-9
-9
-10
-13
-16
-19
-22
-24
-25
-26
-27
-26
-25
-25
-27
-30
-32
-34
-35
-34
-33
-32
-31
-31
-30
-29
-27
-25
-24
-28
-60
-98
-159
-201
-185
-124
36
210
410
548
595
616
604
518
358
199
40
-36
-56
-57
-47
-45
-49
-54
-59
-63
-66
-67
-67
-67
-67
-67
-66
-65
-65
-64
-63
-61
-59
-58
-57
-56
-55
-54
-53
-51
-49
-48
-47
-46
-45
-43
-41
-40
-39
-38
-36
-33
-30
-28
-26
-24
-22
-20
-17
-14
-11
-8
-5
-2
1
4
6
8
11
9
18
21
23
25
25
25
24
23
21
19
14
10
4
-2
-6
-10
-14
-18
-21
-24
-27
-30
-32
-33
-33
-33
-34
-35
-35
-35
-35
-35
-34
-33
-34
-35
-36
-37
-36
-35
-34
-35
-37
-37
-37
-37
-37
-36
-35
-36
-37
-37
-37
-37
-37
-36
-35
-35
-35
-36
-37
-38
-39
-38
-37
-37
-37
-38
-39
-38
-37
-36
-35
-34
-34
-36
-37
-36
-35
-34
-33
-33
-33
-35
-34
-33
-32
-31
-32
-33
-33
-33
-33
-33
-32
-31
-31
-31
-31
-31
-31
-31
-30
-29
-29
-29
-30
-31
-30
-28
-26
-26
-28
-29
-29
-29
-28
-27
-27
-27
-27
-27
-28
-29
-29
-23
-17
-15
-13
-11
-9
-5
-1
-5
-9
-12
-16
-21
-24
-21
-19
-17
-15
-16
-17
-20
-21
-22
-24
-26
-27
-26
-25
-25
-24
-22
-21
-20
-18
-16
-38
-65
-135
-210
-197
-178
-27
127
325
513
570
619
596
560
461
344
165
20
-33
-65
-49
-39
-39
-41
-47
-52
-56
-58
-55
-53
-54
-55
-55
-54
-52
-51
-52
-53
-52
-50
-48
-47
-46
-45
-44
-41
-38
-37
-37
-35
-33
-32
-31
-29
-27
-25
-23
-21
-19
-18
-17
-15
-12
-8
-4
-1
1
3
5
8
9
10
12
15
18
20
21
20
21
24
25
26
27
27
25
22
19
16
14
15
6
1
-4
-9
-13
-17
-19
-21
-23
-25
-27
-29
-28
-27
-27
-27
-27
-27
-28
-29
-29
-29
-30
-30
-28
-28
-30
-31
-31
-31
-31
-31
-30
-31
-34
-35
-35
-34
-32
-31
-31
-32
-33
-33
-33
-34
-35
-32
-29
-30
-31
-34
-37
-35
-33
-32
-31
-33
-35
-35
-35
-34
-32
-30
-30
-32
-33
-34
-34
-32
-30
-28
-27
-28
-30
-32
-33
-32
-30
-28
-27
-27
-27
-29
-29
-29
-29
-29
-31
-33
-32
-30
-25
-20
-16
-13
-14
-13
-7
-5
-10
-13
-15
-18
-23
-25
-25
-24
-22
-21
-22
-25
-28
-29
-29
-29
-29
-29
-28
-27
-27
-27
-27
-25
-27
-18
-16
-48
-84
-164
-229
-200
-146
11
178
378
538
595
623
593
544
464
340
157
27
-43
-70
-56
-47
-43
-44
-50
-55
-58
-59
-59
-59
-58
-57
-58
-59
-58
-56
-54
-53
-52
-50
-49
-49
-49
-47
-45
-43
-41
-40
-39
-38
-37
-36
-35
-31
-29
-28
-27
-25
-22
-19
-16
-14
-12
-10
-9
-8
-6
-2
1
4
6
8
9
10
12
14
15
16
17
18
19
19
19
19
17
15
9
3
-1
-5
-8
-12
-17
-21
-23
-26
-29
-31
-32
-33
-33
-33
-34
-35
-35
-35
-35
-35
-34
-33
-33
-33
-34
-35
-34
-33
-32
-32
-34
-35
-34
-33
-33
-32
-31
-33
-35
-34
-33
-34
-35
-34
-33
-34
-35
-36
-37
-37
-37
-36
-35
-36
-37
-38
-39
-38
-37
-37
-37
-37
-37
-36
-35
-35
-35
-35
-35
-36
-37
-37
-37
-37
-37
-36
-35
-35
-36
-37
-37
-37
-36
-35
-36
-37
-36
-35
-34
-33
-32
-31
-33
-35
-37
-39
-38
-35
-31
-27
-22
-20
-22
-20
-13
-12
-14
-18
-23
-27
-30
-31
-31
-31
-30
-29
-29
-31
-35
-35
-35
-34
-33
-34
-35
-35
-35
-35
-35
-33
-31
-28
-28
-38
-71
-140
-184
-198
-156
-53
106
316
461
558
593
589
563
528
377
181
57
-45
-61
-56
-53
-50
-55
-62
-66
-63
-70
-69
-70
-71
-71
-71
-70
-69
-67
-65
-64
-63
-62
-61
-60
-59
-58
-57
-56
-55
-54
-52
-50
-48
-46
-45
-46
-46
-44
-42
-40
-38
-36
-34
-32
-31
-30
-27
-24
-20
-16
-13
-11
-8
-5
-1
3
6
9
10
11
14
17
18
19
19
19
17
13
8
3
-2
-7
-11
-15
-20
-25
-29
-32
-36
-37
-37
-38
-40
-41
-41
-41
-42
-43
-42
-41
-41
-41
-43
-42
-41
-40
-39
-40
-41
-42
-43
-43
-43
-43
-43
-42
-41
-42
-43
-44
-45
-45
-45
-45
-45
-44
-43
-44
-45
-45
-45
-45
-45
-45
-45
-45
-45
-44
-43
-43
-43
-44
-45
-45
-43
-43
-43
-43
-44
-45
-44
-43
-42
-41
-41
-41
-42
-43
-42
-41
-40
-39
-40
-41
-41
-41
-41
-41
-41
-41
-41
-41
-41
-41
-40
-39
-38
-37
-37
-37
-38
-39
-39
-39
-39
-35
-31
-26
-21
-24
-26
-18
-11
-15
-19
-23
-27
-29
-31
-33
-35
-34
-33
-33
-33
-35
-37
-38
-39
-40
-41
-41
-41
-40
-39
-39
-39
-38
-35
-32
-33
-36
-80
-131
-175
-219
-177
-129
62
251
417
567
588
605
586
537
367
204
60
-44
-56
-62
-53
-49
-55
-60
-64
-67
-70
-71
-72
-73
-72
-71
-70
-69
-69
-69
-68
-67
-66
-64
-62
-61
-61
-61
-60
-59
-59
-54
-51
-50
-49
-48
-47
-45
-43
-41
-39
-38
-37
-35
-33
-32
-30
-27
-25
-24
-22
-19
-15
-11
-8
-5
-2
1
3
4
7
10
13
16
17
17
17
16
14
12
8
4
-1
-5
-9
-13
-17
-21
-23
-25
-28
-31
-33
-35
-36
-37
-36
-35
-36
-37
-37
-37
-36
-35
-35
-36
-38
-39
-40
-40
-38
-37
-37
-37
-38
-39
-39
-39
-40
-41
-40
-39
-39
-39
-41
-40
-39
-39
-39
-40
-41
-41
-41
-42
-43
-41
-39
-39
-39
-40
-41
-40
-39
-38
-37
-38
-39
-39
-39
-38
-36
-34
-33
-33
-33
-34
-35
-34
-33
-34
-35
-34
-33
-33
-33
-33
-31
-31
-31
-31
-32
-33
-31
-29
-30
-31
-31
-31
-30
-29
-29
-29
-27
-25
-24
-23
-26
-27
-28
-29
-28
-26
-24
-20
-15
-13
-14
-10
-3
-1
-1
-6
-12
-15
-18
-19
-20
-21
-21
-20
-19
-20
-21
-22
-23
-24
-25
-26
-27
-26
-25
-25
-25
-23
-20
-16
-16
-23
-56
-114
-166
-212
-188
-114
32
218
381
534
585
599
589
571
434
274
128
-15
-43
-62
-50
-35
-39
-43
-46
-49
-52
-55
-55
-55
-53
-51
-50
-49
-49
-49
-49
-49
-48
-46
-43
-41
-42
-42
-39
-36
-34
-32
-30
-29
-28
-27
-26
-25
-24
-23
-22
-20
-18
-13
-8
-7
-7
-2
1
3
5
8
11
12
13
15
17
20
23
24
25
26
28
31
33
32
31
28
26
23
20
18
14
8
3
-1
-5
-8
-11
-14
-17
-20
-21
-22
-23
-23
-23
-22
-22
-23
-23
-23
-23
-23
-23
-23
-24
-25
-25
-25
-25
-25
-25
-25
-26
-27
-26
-25
-26
-27
-26
-25
-26
-27
-27
-27
-28
-29
-29
-28
-26
-25
-26
-27
-27
-27
-28
-28
-26
-26
-29
-28
-27
-26
-25
-24
-23
-24
-25
-24
-23
-24
-25
-23
-21
-23
-25
-24
-23
-23
-23
-23
-23
-22
-21
-21
-21
-21
-21
-20
-21
-24
-25
-26
-26
-24
-20
-16
-11
-6
-6
-5
-2
5
0
-5
-7
-9
-12
-15
-13
-11
-11
-11
-14
-17
-18
-19
-20
-21
-22
-23
-23
-22
-20
-19
-18
-17
-16
-13
-10
-21
-40
-108
-193
-206
-199
-82
55
259
471
560
641
616
587
521
444
249
68
-8
-69
-56
-45
-41
-38
-42
-45
-47
-49
-50
-51
-51
-51
-49
-47
-47
-47
-47
-47
-47
-46
-44
-42
-40
-39
-38
-36
-34
-32
-30
-29
-28
-27
-26
-25
-23
-21
-19
-17
-15
-14
-13
-11
-9
-7
-5
-3
-1
1
4
7
10
13
15
17
19
20
21
21
22
24
25
26
26
24
21
18
14
10
7
4
0
-4
-8
-12
-15
-13
-21
-23
-25
-27
-27
-27
-28
-29
-28
-27
-27
-27
-27
-27
-27
-27
-26
-25
-25
-25
-26
-27
-27
-27
-26
-25
-26
-27
-27
-27
-28
-29
-28
-27
-27
-27
-28
-29
-30
-30
-28
-28
-29
-29
-29
-28
-27
-27
-27
-28
-29
-29
-29
-28
-27
-26
-25
-26
-27
-28
-29
-28
-27
-27
-27
-27
-27
-27
-27
-26
-25
-25
-25
-25
-25
-26
-24
-20
-18
-16
-12
-8
-7
-7
-3
1
-3
-7
-10
-13
-15
-17
-18
-19
-18
-17
-19
-21
-22
-23
-25
-27
-26
-25
-28
-29
-29
-28
-26
-24
-21
-19
-19
-44
-78
-135
-199
-185
-152
7
186
369
552
595
561
616
594
427
261
104
-32
-46
-55
-44
-36
-42
-48
-53
-57
-58
-59
-59
-59
-59
-59
-59
-59
-58
-56
-54
-53
-53
-52
-50
-48
-46
-45
-44
-43
-42
-41
-41
-40
-38
-36
-34
-31
-29
-28
-27
-26
-25
-22
-19
-17
-15
-13
-10
-6
-3
1
3
5
9
14
17
19
22
25
28
31
33
34
35
35
34
32
28
24
18
11
6
2
-4
-10
-13
-16
-19
-23
-25
-27
-27
-27
-27
-27
-28
-29
-28
-27
-27
-27
-27
-27
-27
-27
-27
-27
-28
-29
-29
-29
-30
-31
-30
-29
-29
-29
-29
-29
-29
-29
-29
-29
-29
-29
-30
-31
-30
-29
-29
-29
-29
-29
-29
-28
-27
-27
-27
-27
-27
-27
-27
-27
-27
-26
-25
-26
-27
-27
-27
-27
-27
-26
-25
-24
-24
-26
-27
-27
-25
-22
-21
-21
-22
-24
-25
-24
-20
-16
-12
-8
-4
-1
-1
-1
2
5
1
-3
-7
-11
-12
-13
-13
-13
-13
-14
-17
-19
-21
-23
-22
-21
-22
-23
-23
-23
-22
-21
-20
-17
-14
-16
-20
-57
-104
-158
-214
-175
-122
56
245
410
573
599
622
604
571
422
271
112
-20
-45
-61
-45
-33
-36
-41
-48
-53
-54
-55
-54
-53
-53
-53
-54
-55
-54
-52
-49
-47
-46
-45
-44
-43
-42
-40
-38
-36
-34
-33
-32
-31
-31
-27
-25
-24
-23
-22
-21
-16
-11
-8
-5
-4
-3
0
4
8
11
13
15
17
20
25
28
31
33
34
36
39
41
41
41
40
37
34
30
26
22
18
12
6
1
-4
-9
-13
-13
-13
-14
-15
-16
-17
-19
-21
-23
-25
-25
-25
-24
-23
-21
-19
-20
-21
-21
-21
-20
-20
-22
-24
-26
-27
-26
-24
-22
-21
-21
-21
-21
-21
-21
-21
-22
-23
-23
-23
-25
-25
-25
-22
-19
-20
-21
-21
-21
-21
-21
-22
-23
-22
-21
-21
-21
-20
-19
-19
-19
-20
-21
-20
-19
-19
-19
-20
-21
-21
-19
-16
-15
-14
-9
-4
-2
0
3
6
6
7
0
-3
-5
-7
-9
-11
-12
-13
-13
-13
-14
-15
-17
-19
-20
-21
-20
-19
-20
-21
-20
-19
-19
-17
-11
-14
-23
-75
-149
-187
-211
-135
-24
167
379
504
613
615
604
579
554
365
176
55
-57
-58
-58
-45
-33
-39
-44
-49
-53
-53
-53
-52
-51
-51
-51
-51
-51
-50
-48
-45
-43
-43
-43
-42
-41
-40
-38
-36
-35
-34
-33
-32
-30
-28
-26
-24
-23
-22
-21
-19
-17
-15
-12
-9
-8
-7
-5
-3
0
4
8
11
13
15
16
17
19
22
26
29
28
27
28
29
28
26
24
20
15
9
3
-2
-6
-9
-12
-16
-20
-23
-26
-27
-27
-27
-27
-28
-29
-29
-29
-29
-29
-28
-27
-27
-27
-28
-29
-29
-29
-29
-29
-29
-29
-30
-31
-30
-29
-29
-29
-30
-31
-31
-31
-31
-31
-31
-31
-31
-31
-31
-31
-30
-29
-30
-31
-31
-31
-31
-31
-31
-31
-31
-31
-31
-31
-31
-31
-31
-31
-31
-31
-31
-31
-31
-30
-29
-28
-27
-28
-29
-29
-29
-29
-29
-29
-29
-29
-27
-24
-23
-23
-20
-16
-14
-12
-10
-7
-8
-9
-13
-17
-19
-21
-21
-21
-22
-23
-23
-23
-25
-27
-28
-29
-29
-29
-30
-31
-31
-31
-31
-30
-28
-26
-23
-26
-34
-82
-146
-182
-211
-148
-63
140
364
486
597
605
603
573
528
325
132
27
-63
-58
-53
-49
-46
-53
-60
-65
-69
-68
-67
-67
-67
-67
-67
-67
-66
-64
-62
-60
-59
-58
-57
-57
-56
-54
-53
-52
-50
-48
-47
-47
-46
-44
-42
-40
-38
-37
-36
-35
-33
-31
-28
-25
-23
-21
-18
-15
-13
-10
-5
-1
1
4
7
10
13
16
19
22
24
25
25
25
25
23
20
16
11
5
-1
-6
-10
-14
-18
-21
-24
-27
-31
-32
-33
-34
-35
-35
-35
-35
-35
-35
-35
-34
-33
-34
-35
-36
-37
-37
-37
-37
-37
-36
-35
-36
-37
-37
-37
-37
-37
-38
-39
-39
-39
-40
-41
-41
-41
-41
-41
-41
-41
-41
-39
-39
-39
-39
-39
-39
-39
-39
-40
-41
-40
-39
-39
-39
-38
-37
-36
-35
-35
-35
-35
-35
-36
-37
-36
-35
-35
-35
-35
-35
-34
-33
-33
-33
-33
-33
-33
-33
-33
-33
-33
-33
-33
-33
-33
-31
-29
-29
-29
-29
-29
-28
-27
-24
-20
-16
-12
-8
-6
-9
-12
-16
-20
-22
-23
-24
-25
-25
-25
-25
-25
-26
-28
-30
-31
-31
-31
-30
-29
-28
-28
-30
-30
-27
-24
-21
-32
-51
-124
-188
-201
-188
-75
65
282
462
554
611
598
569
518
404
210
65
-26
-66
-59
-53
-47
-47
-51
-55
-59
-61
-62
-63
-64
-64
-62
-61
-62
-63
-62
-60
-61
-55
-53
-52
-51
-51
-51
-49
-47
-45
-43
-44
-45
-43
-40
-37
-34
-31
-29
-27
-25
-22
-20
-18
-16
-13
-10
-8
-5
-2
1
4
7
10
12
14
15
16
19
22
26
30
28
25
26
27
25
23
19
15
9
4
-1
-6
-11
-15
-16
-18
-21
-24
-28
-31
-32
-33
-32
-31
-31
-32
-34
-35
-35
-34
-32
-31
-31
-32
-34
-35
-35
-35
-34
-33
-34
-35
-37
-36
-35
-34
-33
-36
-39
-36
-33
-34
-35
-34
-33
-35
-37
-36
-35
-36
-37
-38
-38
-35
-34
-36
-37
-36
-34
-32
-32
-34
-35
-36
-37
-36
-35
-34
-33
-33
-33
-32
-31
-31
-32
-31
-34
-37
-36
-35
-33
-31
-30
-29
-31
-33
-32
-31
-29
-27
-28
-29
-30
-31
-34
-34
-31
-28
-25
-22
-20
-19
-18
-13
-7
-7
-10
-13
-16
-19
-22
-24
-26
-25
-22
-23
-25
-26
-27
-30
-33
-30
-27
-29
-31
-30
-29
-29
-29
-27
-25
-23
-22
-26
-54
-112
-168
-222
-212
-146
-11
171
347
519
592
619
607
580
465
325
170
11
-40
-76
-63
-46
-45
-47
-52
-57
-58
-59
-61
-63
-63
-63
-62
-61
-59
-57
-57
-57
-56
-54
-51
-49
-47
-45
-46
-47
-46
-45
-44
-41
-37
-35
-35
-35
-34
-31
-28
-25
-22
-21
-20
-18
-16
-14
-15
-8
-5
-3
-1
0
1
4
7
10
13
13
13
14
15
17
19
20
20
17
14
9
5
1
-3
-7
-12
-17
-21
-24
-27
-30
-31
-31
-31
-32
-34
-36
-37
-36
-35
-35
-35
-35
-35
-35
-35
-35
-35
-35
-36
-37
-37
-37
-36
-35
-35
-35
-35
-35
-35
-35
-36
-37
-37
-37
-38
-39
-39
-39
-39
-39
-39
-39
-39
-39
-40
-41
-40
-39
-39
-39
-39
-39
-39
-39
-39
-38
-37
-38
-39
-40
-41
-40
-39
-39
-39
-39
-39
-39
-39
-39
-39
-38
-37
-37
-37
-37
-37
-37
-37
-37
-37
-38
-39
-40
-39
-36
-33
-30
-27
-24
-21
-18
-17
-17
-19
-23
-26
-29
-31
-33
-33
-33
-31
-29
-31
-33
-36
-39
-40
-41
-39
-37
-37
-37
-37
-37
-36
-34
-32
-30
-28
-35
-47
-100
-171
-198
-212
-130
-22
184
408
517
613
612
604
548
487
276
75
-6
-76
-63
-51
-51
-52
-58
-64
-68
-71
-71
-71
-71
-71
-71
-71
-70
-69
-68
-67
-67
-67
-67
-66
-62
-59
-56
-55
-55
-55
-54
-53
-52
-50
-48
-46
-44
-43
-43
-40
-37
-34
-31
-30
-29
-27
-25
-21
-17
-14
-11
-9
-6
-2
2
6
9
11
13
16
18
20
21
22
23
23
20
15
9
3
-2
-8
-12
-16
-21
-26
-29
-32
-34
-33
-37
-37
-38
-39
-40
-41
-40
-39
-39
-39
-39
-39
-39
-39
-39
-39
-40
-41
-40
-39
-40
-41
-40
-39
-39
-39
-39
-39
-39
-39
-40
-41
-41
-41
-41
-41
-41
-41
-41
-41
-41
-41
-41
-41
-41
-41
-41
-40
-39
-39
-39
-40
-41
-41
-41
-39
-37
-38
-39
-40
-41
-40
-39
-38
-37
-37
-37
-37
-37
-37
-37
-36
-35
-35
-35
-35
-35
-35
-35
-35
-35
-34
-33
-35
-34
-33
-32
-31
-32
-33
-33
-33
-33
-33
-33
-33
-33
-32
-29
-25
-20
-17
-18
-17
-10
-8
-11
-15
-19
-22
-25
-28
-30
-30
-28
-27
-26
-26
-28
-30
-32
-34
-36
-36
-37
-32
-31
-31
-31
-29
-27
-25
-23
-27
-44
-104
-157
-194
-199
-137
-19
191
371
511
591
604
601
580
460
263
111
-12
-54
-52
-47
-41
-43
-49
-55
-62
-64
-66
-67
-66
-65
-65
-64
-63
-63
-63
-61
-59
-57
-55
-54
-53
-53
-53
-50
-47
-46
-45
-44
-43
-41
-39
-37
-35
-35
-34
-31
-29
-29
-28
-24
-21
-17
-13
-10
-8
-6
-2
2
7
12
14
16
19
23
25
27
29
31
33
35
35
35
32
29
27
24
20
15
9
4
0
-4
-8
-12
-15
-18
-21
-24
-26
-27
-27
-26
-24
-23
-24
-25
-25
-25
-25
-26
-28
-29
-29
-29
-29
-28
-27
-28
-29
-29
-29
-30
-31
-30
-29
-29
-29
-29
-29
-30
-31
-31
-31
-31
-31
-31
-31
-30
-29
-30
-31
-30
-29
-28
-27
-27
-27
-27
-27
-27
-27
-28
-29
-28
-27
-26
-25
-25
-24
-23
-23
-23
-23
-23
-23
-23
-23
-23
-23
-23
-22
-21
-22
-23
-22
-21
-22
-23
-22
-21
-20
-20
-22
-23
-22
-21
-21
-21
-21
-19
-16
-10
-4
-4
-6
1
10
6
-1
-5
-9
-11
-13
-12
-11
-11
-11
-11
-11
-13
-15
-17
-19
-19
-19
-18
-17
-18
-19
-18
-17
-17
-15
-11
-10
-12
-57
-124
-176
-223
-177
-100
78
278
431
575
601
616
595
617
412
253
106
-28
-44
-57
-43
-31
-34
-37
-42
-46
-50
-52
-48
-45
-45
-45
-45
-45
-45
-45
-45
-44
-42
-40
-37
-35
-34
-33
-32
-29
-26
-25
-24
-23
-22
-21
-20
-17
-14
-13
-13
-9
-5
-3
-1
1
3
5
7
9
12
16
20
24
27
29
31
32
33
33
33
34
35
36
37
38
38
34
31
28
22
15
10
6
1
-4
-7
-10
-13
-16
-17
-19
-19
-19
-20
-21
-21
-21
-22
-23
-22
-21
-23
-25
-25
-25
-23
-21
-22
-23
-23
-23
-24
-25
-24
-23
-23
-23
-24
-25
-26
-27
-27
-27
-27
-27
-26
-25
-26
-27
-27
-27
-27
-25
-25
-25
-25
-25
-25
-24
-23
-24
-25
-25
-25
-24
-23
-25
-27
-25
-23
-23
-23
-24
-25
-24
-23
-22
-21
-22
-23
-23
-23
-22
-21
-20
-20
-22
-24
-26
-25
-22
-19
-16
-11
-7
-8
-9
-3
3
1
-2
-8
-13
-14
-15
-17
-19
-15
-13
-12
-12
-16
-19
-20
-21
-21
-21
-20
-19
-20
-21
-20
-18
-16
-13
-10
-15
-23
-85
-157
-185
-207
-116
-15
195
406
520
627
621
611
572
507
302
116
13
-63
-55
-47
-38
-33
-39
-45
-51
-55
-56
-57
-57
-57
-57
-57
-56
-54
-52
-51
-51
-51
-50
-48
-46
-44
-42
-41
-41
-40
-38
-37
-37
-34
-33
-32
-31
-29
-27
-25
-23
-21
-19
-17
-15
-13
-10
-7
-4
0
4
7
9
12
14
17
21
25
27
28
29
29
29
30
31
31
28
24
18
12
8
4
0
-4
-10
-15
-19
-23
-25
-27
-27
-27
-28
-29
-30
-31
-30
-29
-28
-27
-29
-31
-30
-29
-29
-29
-28
-27
-28
-29
-29
-29
-30
-31
-30
-29
-29
-29
-30
-31
-31
-31
-32
-33
-32
-31
-31
-31
-31
-31
-31
-31
-31
-31
-31
-31
-31
-30
-29
-30
-31
-30
-29
-29
-29
-28
-27
-27
-27
-27
-27
-27
-27
-27
-27
-27
-27
-27
-27
-27
-27
-26
-25
-26
-27
-27
-27
-27
-26
-25
-25
-25
-27
-29
-27
-25
-21
-17
-14
-11
-9
-6
-2
0
-4
-8
-11
-13
-16
-17
-18
-19
-18
-17
-18
-19
-20
-22
-24
-25
-25
-25
-25
-25
-25
-25
-24
-23
-22
-18
-15
-23
-36
-101
-162
-186
-193
-110
0
210
397
519
606
616
613
585
486
287
124
6
-51
-47
-44
-41
-43
-50
-54
-58
-59
-60
-61
-61
-61
-61
-60
-58
-56
-54
-53
-52
-51
-51
-49
-47
-44
-41
-41
-41
-41
-41
-39
-37
-36
-35
-34
-33
-32
-31
-29
-26
-23
-21
-21
-20
-17
-14
-12
-9
-5
-1
2
4
6
9
12
16
20
21
22
24
26
28
27
32
33
31
29
25
21
14
9
5
0
-5
-10
-14
-17
-18
-19
-21
-23
-24
-25
-26
-27
-27
-27
-27
-27
-28
-29
-29
-29
-28
-27
-27
-27
-27
-27
-28
-29
-30
-31
-31
-31
-31
-32
-33
-33
-33
-33
-33
-34
-35
-35
-35
-35
-35
-34
-33
-33
-33
-34
-35
-34
-33
-32
-31
-32
-33
-33
-33
-33
-33
-32
-31
-32
-32
-30
-29
-29
-29
-29
-29
-29
-29
-27
-28
-29
-29
-29
-29
-29
-28
-27
-27
-27
-27
-27
-26
-25
-26
-27
-26
-25
-24
-23
-24
-25
-25
-25
-25
-25
-24
-23
-23
-23
-23
-23
-22
-21
-20
-19
-20
-21
-22
-23
-23
-23
-23
-22
-21
-18
-15
-11
-7
-3
1
4
6
0
-5
-7
-10
-13
-15
-15
-15
-14
-14
-16
-17
-17
-17
-18
-19
-19
-19
-19
-19
-19
-19
-19
-18
-16
-14
-12
-37
-66
-142
-217
-192
-158
-17
132
337
518
586
634
608
567
483
365
170
25
-34
-63
-46
-37
-36
-37
-42
-47
-51
-53
-54
-55
-54
-52
-50
-49
-48
-47
-48
-49
-48
-46
-44
-43
-43
-43
-41
-37
-33
-32
-31
-31
-31
-29
-27
-25
-23
-21
-19
-18
-16
-13
-10
-6
-3
-2
-1
2
4
7
9
10
12
15
19
22
23
24
25
26
28
30
31
32
33
32
30
31
24
21
18
15
12
9
4
-1
-5
-9
-10
-11
-13
-15
-16
-17
-18
-19
-21
-23
-23
-22
-20
-19
-20
-21
-21
-21
-21
-21
-22
-23
-23
-23
-22
-21
-22
-23
-24
-25
-24
-25
-27
-28
-29
-28
-27
-25
-23
-24
-25
-24
-23
-24
-25
-25
-25
-26
-27
-26
-25
-25
-25
-24
-23
-23
-23
-24
-25
-24
-23
-22
-22
-24
-25
-25
-24
-22
-21
-21
-21
-22
-22
-19
-19
-19
-18
-17
-18
-19
-21
-23
-19
-15
-13
-10
-6
-3
-2
0
3
5
5
2
-5
-9
-10
-11
-12
-13
-12
-12
-14
-16
-18
-19
-20
-21
-20
-19
-20
-21
-22
-23
-23
-17
-13
-11
-11
-37
-70
-148
-210
-192
-147
-14
139
347
511
586
624
598
557
493
370
178
46
-31
-59
-48
-41
-37
-39
-45
-48
-50
-51
-50
-49
-49
-49
-49
-49
-49
-48
-46
-44
-43
-42
-41
-40
-39
-37
-35
-35
-35
-33
-31
-30
-29
-28
-27
-25
-23
-21
-19
-18
-16
-13
-10
-8
-6
-4
-2
2
5
8
10
12
14
16
19
22
23
24
25
26
27
29
28
27
25
23
19
15
8
3
0
-4
-8
-12
-16
-19
-21
-23
-24
-25
-26
-27
-30
-31
-32
-33
-32
-31
-30
-29
-29
-29
-28
-27
-28
-29
-29
-29
-29
-29
-28
-27
-27
-29
-29
-29
-29
-30
-31
-31
-31
-30
-29
-30
-31
-31
-31
-31
-31
-30
-29
-29
-29
-30
-31
-30
-29
-29
-29
-29
-29
-30
-30
-28
-27
-27
-27
-27
-27
-27
-27
-27
-27
-27
-25
-23
-21
-19
-17
-15
-11
-7
-5
-3
-6
-9
-11
-13
-15
-17
-17
-17
-18
-19
-20
-22
-24
-25
-26
-28
-30
-31
-30
-29
-29
-29
-28
-27
-27
-25
-22
-32
-45
-111
-180
-190
-198
-102
1
207
402
510
601
602
599
578
515
327
159
35
-49
-58
-59
-46
-41
-46
-52
-59
-63
-64
-65
-65
-65
-64
-63
-63
-63
-63
-62
-60
-58
-56
-55
-54
-53
-52
-51
-51
-49
-47
-45
-43
-42
-41
-38
-35
-34
-33
-32
-31
-30
-29
-27
-24
-21
-18
-15
-13
-10
-7
-3
0
3
6
9
13
16
19
22
25
28
29
30
31
30
28
26
22
18
10
3
-1
-5
-10
-15
-18
-21
-25
-29
-31
-33
-33
-33
-33
-33
-33
-33
-34
-35
-34
-33
-32
-31
-31
-31
-31
-31
-32
-33
-33
-33
-33
-33
-34
-35
-34
-33
-33
-33
-34
-35
-35
-34
-33
-33
-33
-33
-33
-33
-33
-32
-31
-31
-31
-32
-33
-33
-33
-32
-31
-31
-31
-31
-31
-32
-33
-32
-31
-30
-29
-30
-31
-30
-29
-29
-29
-28
-27
-28
-29
-29
-29
-29
-26
-23
-22
-21
-18
-15
-11
-7
-8
-9
-7
-6
-11
-15
-17
-19
-20
-21
-21
-22
-25
-27
-27
-27
-27
-27
-28
-30
-32
-33
-33
-33
-32
-31
-30
-29
-29
-27
-24
-28
-34
-96
-157
-184
-204
-134
-47
162
356
483
584
591
593
577
509
330
168
35
-47
-52
-52
-45
-44
-50
-55
-60
-64
-66
-67
-66
-65
-64
-63
-62
-61
-61
-60
-58
-56
-54
-53
-52
-51
-51
-49
-47
-46
-45
-44
-43
-43
-43
-41
-39
-36
-33
-31
-29
-28
-26
-23
-20
-16
-13
-12
-9
-5
-1
3
6
9
12
14
16
18
20
22
24
26
27
27
26
24
20
23
10
5
0
-5
-10
-15
-18
-21
-22
-23
-26
-29
-30
-31
-31
-31
-30
-29
-30
-31
-32
-33
-33
-33
-32
-31
-32
-33
-33
-33
-32
-31
-32
-33
-33
-34
-36
-37
-36
-35
-36
-36
-35
-35
-35
-35
-35
-36
-37
-37
-37
-37
-37
-35
-33
-33
-33
-34
-35
-36
-37
-36
-35
-34
-33
-33
-34
-36
-36
-34
-33
-33
-33
-34
-35
-34
-33
-32
-31
-31
-31
-30
-30
-33
-32
-31
-31
-31
-31
-31
-31
-31
-31
-31
-29
-27
-26
-25
-26
-27
-28
-29
-29
-29
-28
-26
-24
-22
-20
-16
-10
-7
-6
-5
-4
-8
-15
-17
-16
-18
-22
-23
-23
-23
-23
-22
-23
-26
-29
-29
-29
-28
-27
-27
-27
-28
-29
-28
-27
-25
-23
-23
-40
-81
-133
-199
-207
-160
-38
144
319
490
567
594
591
572
438
265
119
-19
-51
-63
-54
-40
-43
-48
-54
-59
-61
-63
-63
-63
-62
-61
-60
-59
-59
-59
-57
-55
-55
-55
-55
-55
-53
-51
-49
-46
-44
-43
-43
-42
-39
-37
-36
-33
-30
-29
-28
-27
-26
-24
-22
-19
-16
-14
-12
-11
-9
-6
-3
0
3
6
9
10
11
11
11
13
15
17
19
19
19
18
17
15
13
10
7
2
-3
-7
-12
-17
-21
-25
-27
-26
-28
-32
-33
-32
-31
-31
-32
-34
-35
-35
-36
-37
-37
-37
-37
-37
-36
-35
-35
-35
-36
-37
-38
-39
-39
-39
-40
-41
-40
-39
-42
-43
-42
-41
-41
-41
-42
-43
-43
-43
-42
-41
-40
-41
-44
-45
-44
-42
-40
-39
-39
-40
-41
-41
-41
-40
-39
-38
-37
-38
-39
-38
-37
-37
-37
-38
-39
-39
-39
-38
-37
-37
-37
-36
-35
-36
-37
-37
-37
-37
-37
-37
-37
-36
-36
-38
-39
-39
-37
-34
-31
-28
-26
-23
-19
-15
-12
-9
-15
-21
-24
-27
-29
-31
-31
-31
-31
-31
-31
-31
-33
-35
-35
-35
-36
-37
-38
-39
-38
-36
-34
-32
-30
-27
-24
-37
-57
-125
-205
-207
-195
-69
68
274
75
557
628
602
571
499
411
219
50
-24
-78
-64
-52
-48
-47
-53
-58
-64
-67
-68
-69
-70
-70
-68
-66
-64
-63
-63
-63
-62
-61
-60
-57
-54
-53
-52
-51
-50
-49
-49
-47
-44
-42
-41
-41
-41
-38
-35
-33
-31
-30
-29
-27
-25
-22
-19
-15
-12
-9
-7
-6
-4
-1
2
5
7
8
9
10
11
12
13
14
15
15
12
8
6
4
-1
-6
-11
-16
-21
-27
-28
-29
-32
-35
-36
-37
-38
-39
-39
-39
-38
-37
-37
-37
-38
-39
-38
-37
-36
-35
-36
-37
-37
-37
-37
-37
-36
-35
-35
-35
-36
-37
-37
-37
-37
-37
-37
-37
-38
-39
-39
-37
-37
-38
-39
-39
-39
-38
-37
-36
-35
-37
-39
-38
-37
-37
-37
-37
-37
-38
-39
-39
-39
-38
-37
-36
-35
-36
-37
-36
-35
-35
-35
-34
-33
-34
-35
-35
-35
-34
-33
-33
-33
-33
-33
-33
-33
-33
-31
-29
-30
-31
-32
-33
-33
-32
-28
-25
-23
-21
-19
-16
-12
-9
-8
-10
-18
-22
-24
-25
-26
-26
-24
-23
-24
-25
-26
-28
-30
-31
-31
-31
-31
-31
-33
-31
-29
-27
-25
-22
-21
-36
-63
-132
-186
-192
-162
-42
111
328
492
572
614
607
574
512
372
162
32
-40
-59
-46
-42
-44
-49
-55
-59
-62
-63
-63
-63
-63
-63
-62
-61
-61
-59
-57
-57
-57
-55
-53
-52
-51
-49
-47
-46
-45
-44
-43
-41
-39
-39
-39
-39
-39
-36
-34
-31
-28
-26
-24
-22
-21
-20
-18
-16
-12
-8
-5
-2
1
4
8
12
15
18
20
21
23
25
25
25
26
27
23
19
18
16
10
4
-1
-6
-10
-15
-20
-24
-27
-29
-29
-29
-30
-31
-30
-29
-30
-31
-31
-31
-31
-31
-31
-31
-32
-33
-34
-35
-35
-35
-33
-34
-35
-35
-35
-36
-37
-38
-39
-38
-37
-37
-37
-38
-39
-39
-39
-39
-39
-38
-37
-34
-34
-36
-37
-37
-37
-36
-35
-35
-35
-36
-37
-36
-35
-34
-33
-33
-33
-33
-33
-33
-34
-33
-35
-37
-36
-35
-33
-31
-31
-31
-31
-31
-31
-31
-29
-27
-29
-31
-32
-33
-30
-29
-28
-27
-28
-29
-30
-31
-31
-30
-28
-27
-27
-27
-28
-30
-32
-31
-28
-22
-16
-15
-15
-11
-7
-3
0
-8
-15
-18
-21
-23
-25
-22
-19
-18
-17
-19
-22
-25
-27
-27
-27
-26
-26
-28
-28
-26
-25
-24
-21
-18
-17
-17
-61
-119
-174
-230
-185
-124
45
223
393
561
593
622
595
558
432
299
131
-10
-46
-69
-50
-37
-40
-45
-51
-55
-57
-59
-58
-57
-56
-55
-55
-55
-54
-53
-52
-51
-50
-49
-50
-50
-48
-43
-38
-37
-38
-38
-36
-35
-35
-32
-31
-31
-31
-28
-25
-23
-21
-19
-17
-15
-13
-10
-7
-5
-2
1
3
5
7
10
13
17
19
20
22
24
25
25
25
26
27
26
23
20
16
12
8
4
0
-4
-9
-13
-15
-17
-22
-27
-29
-31
-31
-31
-31
-31
-30
-29
-29
-29
-30
-31
-30
-29
-28
-27
-28
-30
-32
-33
-32
-31
-31
-31
-31
-31
-32
-33
-33
-33
-34
-35
-35
-35
-35
-35
-35
-34
-33
-32
-31
-31
-31
-33
-35
-35
-35
-35
-35
-34
-33
-33
-33
-32
-31
-31
-31
-30
-29
-30
-31
-31
-31
-31
-31
-31
-31
-30
-29
-29
-29
-28
-27
-28
-29
-29
-29
-29
-27
-27
-27
-27
-28
-29
-30
-31
-30
-29
-26
-22
-17
-13
-15
-15
-8
-4
-7
-10
-15
-17
-18
-20
-23
-24
-22
-21
-21
-22
-24
-25
-26
-27
-28
-29
-29
-29
-28
-27
-26
-25
-25
-22
-19
-22
-30
-74
-120
-175
-209
-160
-74
112
292
458
574
602
612
592
515
367
214
55
-31
-56
-60
-46
-42
-44
-49
-55
-58
-60
-61
-62
-63
-62
-60
-58
-57
-56
-55
-55
-53
-51
-49
-47
-47
-47
-47
-47
-46
-45
-43
-41
-40
-39
-38
-37
-35
-32
-29
-27
-26
-25
-24
-22
-20
-18
-15
-12
-10
-7
-4
0
4
7
10
12
14
16
18
20
19
25
27
28
29
27
25
22
19
13
8
3
-2
-8
-14
-17
-19
-21
-23
-25
-27
-30
-31
-31
-31
-30
-29
-30
-31
-31
-31
-30
-29
-29
-29
-29
-29
-30
-31
-31
-31
-30
-30
-31
-30
-29
-30
-31
-30
-29
-30
-31
-32
-33
-32
-31
-31
-31
-31
-31
-31
-31
-31
-31
-30
-29
-30
-31
-31
-31
-30
-29
-29
-29
-30
-31
-30
-29
-29
-29
-28
-27
-28
-29
-27
-27
-27
-27
-27
-27
-27
-27
-27
-27
-27
-26
-25
-26
-27
-26
-25
-25
-25
-24
-23
-23
-23
-23
-23
-23
-23
-22
-21
-21
-21
-21
-21
-21
-21
-22
-23
-23
-20
-16
-12
-15
-7
-7
-2
3
-1
-5
-8
-11
-14
-17
-17
-17
-16
-15
-15
-15
-17
-19
-20
-21
-22
-22
-20
-19
-19
-19
-19
-18
-16
-14
-12
-30
-55
-116
-186
-185
-171
-40
105
305
507
569
627
616
599
513
413
221
51
-9
-55
-41
-31
-34
-38
-45
-50
-53
-55
-55
-55
-54
-53
-53
-53
-52
-51
-50
-49
-48
-47
-46
-44
-42
-41
-40
-39
-38
-36
-34
-33
-32
-31
-31
-29
-27
-25
-23
-22
-21
-19
-17
-14
-11
-9
-7
-4
0
3
6
10
14
17
20
23
26
28
30
33
36
39
41
41
41
41
40
38
34
30
27
24
18
12
8
11
0
-3
-5
-7
-9
-11
-13
-15
-15
-15
-15
-15
-17
-19
-17
-15
-14
-13
-15
-17
-18
-19
-18
-17
-17
-17
-18
-20
-22
-23
-22
-21
-20
-19
-19
-20
-22
-21
-18
-17
-17
-19
-21
-22
-23
-22
-21
-20
-19
-19
-19
-20
-21
-20
-19
-19
-19
-18
-17
-17
-17
-17
-17
-16
-15
-16
-17
-18
-18
-16
-15
-15
-15
-15
-15
-16
-17
-17
-17
-17
-17
-16
-15
-17
-15
-13
-13
-13
-13
-13
-12
-11
-11
-11
-9
-7
-9
-11
-12
-13
-14
-14
-11
-9
-6
-3
2
4
2
6
14
13
7
4
2
-1
-4
-5
-6
-7
-6
-5
-4
-5
-3
-8
-7
-9
-11
-12
-13
-12
-11
-10
-9
-8
-7
-4
-13
-51
-102
-174
-202
-167
-71
93
272
464
576
624
624
592
516
415
257
73
-6
-50
-47
-32
-29
-29
-33
-38
-40
-42
-44
-45
-44
-43
-42
-41
-41
-41
-40
-39
-37
-35
-34
-33
-32
-31
-30
-29
-28
-26
-23
-21
-20
-18
-16
-15
-15
-14
-10
-9
-8
-6
-4
-1
2
3
4
6
8
11
14
16
19
22
25
26
27
29
31
32
33
33
33
35
37
36
34
31
28
24
21
20
17
12
7
2
-2
-5
-8
-10
-11
-12
-14
-16
-18
-20
-21
-20
-19
-19
-19
-19
-19
-19
-17
-17
-18
-19
-20
-21
-21
-21
-20
-19
-19
-19
-21
-23
-22
-21
-21
-21
-23
-25
-25
-25
-25
-25
-24
-23
-24
-25
-25
-25
-25
-25
-24
-23
-24
-25
-25
-25
-25
-25
-24
-23
-23
-24
-25
-25
-25
-25
-25
-25
-25
-26
-27
-26
-25
-24
-23
-23
-23
-24
-25
-24
-23
-22
-21
-21
-21
-22
-23
-22
-21
-21
-21
-22
-23
-24
-22
-18
-14
-10
-9
-10
-7
-1
-1
-1
-5
-9
-13
-17
-20
-23
-21
-19
-18
-17
-19
-21
-23
-25
-25
-25
-24
-23
-23
-23
-23
-23
-22
-20
-17
-19
-26
-74
-138
-178
-210
-151
-69
119
325
462
592
604
599
588
556
362
174
54
-49
-51
-52
-41
-34
-41
-48
-53
-57
-59
-61
-61
-61
-60
-59
-59
-59
-58
-56
-54
-53
-52
-51
-50
-49
-48
-46
-44
-43
-42
-41
-41
-39
-36
-34
-32
-31
-31
-29
-27
-25
-23
-20
-17
-16
-15
-12
-9
-7
-5
-1
1
3
6
10
13
15
18
20
22
24
25
26
27
27
27
26
22
18
13
7
2
-2
-6
-10
-14
-18
-21
-25
-27
-29
-29
-29
-30
-31
-32
-33
-32
-31
-31
-31
-31
-31
-32
-33
-33
-33
-32
-31
-32
-33
-34
-35
-34
-33
-33
-33
-34
-35
-35
-35
-35
-35
-34
-34
-36
-37
-37
-37
-37
-35
-35
-35
-35
-36
-37
-36
-35
-34
-33
-34
-35
-35
-35
-35
-35
-35
-35
-36
-37
-36
-35
-35
-35
-34
-33
-34
-35
-35
-35
-34
-33
-32
-31
-32
-33
-33
-33
-33
-33
-32
-32
-33
-33
-33
-33
-33
-32
-31
-31
-31
-32
-33
-34
-35
-34
-32
-28
-24
-21
-19
-18
-15
-10
-8
-11
-15
-19
-22
-26
-28
-30
-30
-28
-27
-27
-28
-30
-31
-32
-33
-34
-35
-35
-34
-33
-32
-31
-30
-29
-27
-27
-38
-63
-131
-183
-197
-173
-74
75
301
469
562
609
602
561
490
342
138
19
-48
-63
-51
-48
-50
-55
-61
-64
-66
-67
-68
-69
-69
-69
-69
-67
-65
-64
-63
-63
-63
-61
-59
-58
-57
-55
-53
-53
-53
-51
-49
-49
-49
-47
-45
-45
-44
-42
-40
-38
-37
-36
-34
-32
-30
-28
-25
-22
-20
-18
-15
-12
-8
-4
-2
0
3
5
8
11
12
13
15
17
18
19
17
15
12
9
5
2
-3
-8
-12
-15
-17
-21
-25
-27
-28
-30
-33
-35
-35
-35
-34
-33
-33
-34
-36
-37
-37
-37
-37
-37
-37
-37
-39
-38
-37
-37
-37
-37
-37
-38
-39
-40
-41
-40
-39
-41
-43
-44
-45
-44
-43
-43
-43
-43
-43
-43
-43
-43
-42
-40
-39
-39
-39
-39
-40
-42
-42
-40
-39
-40
-41
-42
-42
-43
-38
-37
-37
-37
-37
-37
-37
-37
-37
-37
-37
-37
-37
-37
-37
-37
-37
-37
-36
-35
-35
-35
-35
-35
-35
-35
-35
-35
-34
-33
-33
-33
-32
-31
-32
-33
-34
-35
-35
-35
-35
-32
-29
-25
-21
-21
-21
-13
-7
-9
-12
-17
-21
-24
-27
-28
-29
-27
-25
-25
-26
-29
-31
-31
-31
-32
-33
-34
-35
-34
-32
-30
-29
-28
-25
-22
-32
-47
-117
-194
-205
-210
-106
4
219
426
522
605
586
563
525
454
257
86
-7
-71
-64
-57
-50
-47
-53
-57
-59
-61
-62
-63
-64
-64
-62
-60
-57
-55
-56
-57
-57
-57
-57
-55
-52
-51
-50
-48
-46
-43
-45
-38
-37
-36
-35
-36
-37
-33
-29
-28
-27
-25
-23
-21
-18
-15
-13
-12
-11
-10
-8
-5
-2
0
2
5
8
11
13
12
13
16
17
18
19
18
17
17
14
10
8
6
0
-5
-10
-15
-16
-17
-20
-23
-25
-27
-30
-33
-35
-37
-36
-35
-34
-33
-33
-33
-34
-35
-36
-37
-36
-36
-38
-38
-36
-35
-35
-35
-35
-36
-38
-39
-39
-39
-40
-41
-41
-42
-45
-45
-45
-44
-43
-43
-43
-42
-41
-41
-41
-40
-39
-41
-43
-43
-43
-43
-43
-42
-41
-41
-41
-41
-40
-38
-37
-37
-37
-38
-39
-39
-39
-40
-41
-40
-39
-38
-37
-38
-38
-39
-35
-35
-36
-37
-38
-39
-38
-37
-36
-35
-37
-39
-40
-40
-37
-34
-28
-25
-24
-22
-17
-15
-14
-15
-21
-24
-26
-29
-33
-34
-32
-31
-30
-30
-32
-34
-36
-37
-38
-39
-38
-36
-35
-36
-37
-36
-35
-33
-31
-30
-36
-72
-118
-191
-231
-196
-123
17
183
387
528
594
615
589
536
460
316
124
10
-60
-74
-61
-56
-54
-57
-63
-66
-68
-69
-69
-69
-69
-69
-71
-68
-65
-64
-63
-63
-63
-62
-61
-60
-59
-57
-55
-55
-55
-54
-53
-51
-49
-48
-47
-44
-43
-42
-40
-37
-34
-32
-30
-28
-27
-26
-24
-22
-18
-14
-13
-12
-10
-8
-5
-7
1
3
4
5
5
5
7
9
8
7
5
2
-2
-6
-10
-14
-20
-24
-27
-30
-35
-37
-37
-37
-38
-40
-42
-43
-43
-43
-44
-45
-44
-43
-43
-43
-44
-45
-45
-44
-42
-42
-43
-43
-43
-43
-43
-42
-41
-41
-41
-43
-45
-44
-43
-44
-45
-46
-47
-47
-47
-46
-45
-45
-45
-45
-45
-45
-45
-44
-43
-44
-45
-45
-45
-44
-43
-43
-43
-43
-43
-43
-43
-43
-42
-41
-40
-39
-40
-41
-41
-41
-41
-41
-41
-41
-41
-41
-41
-41
-40
-39
-39
-39
-38
-37
-37
-37
-37
-37
-36
-35
-36
-37
-38
-39
-38
-36
-34
-31
-28
-26
-24
-21
-23
-14
-11
-16
-21
-24
-27
-30
-33
-32
-31
-31
-31
-32
-33
-35
-37
-37
-37
-37
-37
-38
-39
-38
-36
-34
-32
-30
-29
-29
-54
-90
-145
-206
-197
-168
-21
148
333
521
575
620
607
590
464
334
155
-5
-39
-66
-55
-47
-51
-56
-62
-67
-68
-69
-70
-71
-70
-69
-68
-67
-66
-65
-64
-63
-63
-62
-60
-59
-58
-57
-56
-55
-54
-52
-50
-49
-48
-46
-44
-43
-41
-40
-39
-37
-35
-33
-31
-29
-27
-25
-23
-20
-17
-15
-12
-9
-6
-3
-1
1
4
7
10
12
14
16
18
20
21
20
17
14
11
8
4
0
-5
-10
-14
-18
-21
-19
-27
-29
-31
-33
-34
-35
-34
-33
-33
-33
-34
-35
-35
-35
-35
-35
-35
-35
-35
-35
-35
-35
-35
-35
-35
-35
-35
-35
-36
-37
-37
-37
-37
-37
-37
-37
-37
-37
-38
-39
-38
-38
-39
-39
-39
-39
-39
-38
-37
-37
-37
-37
-37
-37
-37
-36
-35
-35
-35
-36
-37
-37
-37
-36
-35
-35
-35
-35
-35
-34
-33
-33
-33
-33
-33
-33
-33
-32
-31
-32
-33
-33
-33
-33
-33
-33
-32
-31
-32
-33
-32
-31
-30
-29
-29
-29
-30
-31
-33
-34
-30
-25
-20
-17
-16
-13
-9
-6
-4
-5
-9
-13
-17
-21
-26
-27
-26
-24
-22
-21
-22
-24
-26
-27
-27
-29
-29
-29
-29
-30
-31
-30
-29
-27
-25
-23
-23
-31
-59
-126
-176
-197
-170
-77
71
282
442
552
601
600
583
557
412
207
72
-32
-56
-51
-45
-40
-45
-52
-55
-58
-59
-59
-61
-63
-61
-59
-58
-57
-56
-55
-54
-53
-52
-51
-49
-47
-47
-47
-46
-45
-44
-43
-41
-38
-36
-34
-32
-31
-30
-28
-24
-22
-20
-19
-18
-16
-14
-12
-10
-6
-2
1
4
6
9
12
15
19
23
25
27
28
29
31
33
32
31
29
26
21
16
12
8
5
2
-3
-6
-9
-12
-15
-17
-18
-19
-20
-21
-21
-21
-22
-23
-22
-23
-26
-27
-27
-26
-27
-23
-23
-24
-25
-28
-31
-30
-29
-28
-27
-28
-29
-29
-29
-28
-27
-27
-27
-29
-31
-31
-31
-30
-29
-29
-29
-28
-27
-28
-29
-29
-28
-26
-25
-26
-27
-27
-27
-26
-25
-26
-27
-27
-27
-27
-28
-29
-26
-23
-23
-23
-24
-25
-24
-23
-22
-21
-21
-21
-22
-23
-23
-23
-23
-22
-20
-19
-20
-21
-20
-19
-18
-17
-18
-20
-22
-22
-20
-16
-12
-10
-8
-7
-5
2
9
5
1
-4
-9
-11
-13
-13
-13
-11
-9
-11
-14
-17
-19
-19
-19
-18
-17
-18
-19
-19
-19
-20
-20
-18
-15
-12
-14
-19
-68
-129
-181
-231
-181
-112
63
250
421
259
606
620
597
560
399
239
94
-28
-46
-58
-45
-35
-37
-40
-45
-49
-50
-51
-51
-51
-51
-51
-51
-50
-48
-47
-47
-47
-46
-43
-40
-38
-36
-35
-34
-33
-33
-32
-30
-28
-26
-25
-25
-23
-21
-18
-15
-13
-11
-10
-9
-6
-3
-1
1
2
3
5
7
9
11
13
16
19
21
22
23
23
23
24
25
25
24
22
19
16
13
10
6
2
-3
-8
-10
-13
-16
-19
-20
-21
-23
-25
-25
-25
-24
-23
-23
-23
-24
-25
-24
-23
-24
-25
-23
-21
-22
-23
-23
-23
-24
-25
-25
-25
-25
-25
-26
-27
-28
-29
-28
-27
-27
-27
-28
-29
-29
-27
-27
-28
-29
-29
-29
-30
-31
-29
-27
-27
-27
-27
-27
-26
-25
-25
-25
-25
-25
-26
-26
-24
-23
-23
-23
-24
-25
-25
-24
-22
-21
-20
-20
-22
-23
-22
-21
-21
-21
-21
-22
-23
-21
-19
-17
-15
-11
-7
-6
-5
-1
2
-2
-5
-9
-12
-15
-17
-17
-17
-16
-15
-16
-17
-18
-19
-20
-22
-24
-24
-22
-21
-20
-19
-19
-18
-16
-15
-14
-33
-56
-128
-201
-190
-171
-38
103
309
494
570
629
617
592
531
426
218
55
-20
-62
-49
-41
-39
-40
-47
-52
-55
-57
-58
-59
-58
-57
-56
-55
-55
-54
-52
-51
-50
-49
-48
-47
-46
-45
-45
-41
-39
-38
-37
-36
-35
-34
-33
-30
-27
-25
-23
-22
-20
