-831
-831
-832
-831
-832
-830
-827
-823
-821
-822
-825
-823
-823
-824
-821
-823
-826
-829
-828
-827
-828
-831
-831
-833
-831
-825
-825
-832
-835
-833
-833
-833
-831
-827
-825
-826
-827
-822
-820
-818
-816
-814
-811
-807
-804
-806
-807
-806
-805
-804
-801
-799
-802
-806
-807
-805
-802
-808
-811
-814
-817
-818
-822
-825
-826
-827
-829
-831
-833
-833
-834
-835
-835
-837
-835
-835
-837
-839
-841
-840
-841
-840
-835
-820
-802
-780
-757
-727
-703
-694
-709
-735
-759
-779
-792
-802
-815
-825
-829
-833
-836
-841
-843
-844
-845
-847
-849
-847
-847
-847
-849
-849
-849
-850
-847
-848
-847
-848
-850
-849
-850
-847
-844
-845
-851
-853
-852
-851
-847
-845
-846
-845
-841
-841
-844
-841
-837
-834
-837
-840
-840
-840
-839
-838
-834
-832
-829
-826
-823
-818
-814
-811
-807
-808
-809
-809
-810
-807
-805
-802
-803
-808
-810
-812
-812
-812
-814
-814
-811
-811
-814
-818
-822
-825
-828
-828
-829
-831
-831
-833
-831
-829
-831
-834
-836
-837
-836
-836
-837
-838
-838
-837
-837
-836
-836
-836
-838
-838
-837
-835
-836
-837
-834
-834
-833
-834
-837
-838
-837
-838
-837
-836
-838
-839
-838
-838
-837
-837
-837
-836
-836
-838
-837
-836
-835
-833
-833
-834
-835
-834
-835
-833
-833
-832
-832
-833
-832
-832
-832
-831
-831
-832
-831
-831
-833
-833
-831
-831
-832
-833
-832
-831
-831
-831
-832
-834
-835
-834
-835
-833
-831
-829
-828
-826
-825
-825
-823
-818
-815
-814
-814
-814
-811
-808
-808
-807
-804
-804
-805
-805
-804
-803
-806
-810
-814
-814
-814
-818
-821
-823
-822
-823
-828
-832
-834
-832
-833
-832
-832
-835
-837
-838
-836
-834
-833
-834
-837
-840
-834
-824
-808
-790
-767
-737
-709
-692
-699
-721
-746
-766
-786
-799
-808
-818
-826
-830
-829
-829
-832
-838
-842
-841
-840
-838
-836
-840
-845
-847
-849
-846
-843
-842
-840
-838
-840
-839
-840
-841
-841
-837
-837
-835
-831
-828
-832
-844
-853
-852
-851
-852
-853
-850
-845
-843
-840
-838
-835
-833
-832
-831
-827
-823
-820
-820
-823
-820
-814
-811
-814
-812
-810
-808
-804
-800
-797
-799
-798
-798
-802
-807
-808
-810
-809
-808
-809
-812
-817
-820
-820
-820
-822
-828
-832
-831
-832
-835
-832
-829
-829
-832
-832
-832
-831
-828
-827
-825
-831
-837
-839
-838
-836
-837
-837
-834
-832
-831
-832
-834
-838
-838
-834
-835
-839
-840
-837
-833
-833
-834
-834
-835
-838
-838
-837
-837
-837
-838
-837
-835
-835
-835
-835
-835
-835
-834
-834
-831
-831
-836
-834
-833
-835
-837
-835
-834
-834
-835
-835
-834
-837
-835
-837
-838
-838
-837
-837
-837
-834
-831
-830
-829
-831
-833
-835
-835
-835
-838
-840
-837
-834
-833
-832
-829
-828
-826
-825
-820
-818
-817
-814
-814
-813
-811
-810
-809
-809
-812
-812
-811
-810
-814
-817
-816
-814
-814
-814
-821
-826
-829
-830
-829
-835
-841
-844
-844
-841
-838
-838
-840
-840
-839
-839
-839
-838
-840
-841
-838
-832
-821
-803
-780
-752
-722
-702
-703
-720
-747
-770
-792
-807
-815
-825
-831
-832
-835
-838
-840
-841
-844
-847
-849
-850
-850
-852
-852
-850
-850
-847
-846
-846
-846
-847
-849
-849
-847
-843
-843
-847
-851
-851
-850
-849
-847
-847
-845
-844
-845
-844
-841
-840
-839
-840
-840
-837
-833
-836
-835
-834
-832
-830
-828
-824
-821
-820
-817
-814
-814
-808
-804
-802
-802
-800
-799
-798
-797
-796
-797
-797
-796
-794
-800
-802
-806
-809
-811
-812
-814
-814
-817
-818
-820
-822
-825
-826
-826
-828
-829
-831
-831
-832
-832
-833
-833
-833
-834
-831
-833
-832
-831
-829
-830
-832
-836
-835
-834
-834
-831
-831
-831
-832
-831
-831
-832
-828
-827
-828
-831
-829
-826
-825
-825
-826
-831
-833
-831
-830
-831
-833
-832
-834
-837
-835
-833
-831
-831
-831
-829
-829
-831
-835
-835
-834
-832
-830
-828
-826
-828
-829
-828
-826
-828
-833
-835
-835
-833
-834
-831
-828
-831
-832
-832
-832
-831
-833
-833
-831
-831
-831
-830
-828
-826
-826
-824
-820
-820
-821
-823
-823
-820
-818
-816
-814
-814
-811
-807
-803
-804
-806
-802
-799
-797
-800
-802
-800
-802
-804
-806
-804
-806
-810
-814
-822
-829
-832
-832
-832
-829
-832
-831
-830
-829
-827
-829
-830
-828
-829
-831
-834
-835
-836
-829
-815
-799
-781
-757
-730
-705
-699
-716
-741
-762
-785
-803
-813
-817
-825
-829
-830
-833
-838
-840
-842
-841
-840
-841
-844
-844
-844
-846
-849
-850
-849
-847
-849
-847
-847
-847
-844
-844
-843
-843
-842
-840
-838
-840
-841
-840
-841
-841
-841
-841
-839
-839
-839
-837
-835
-835
-832
-831
-829
-826
-824
-823
-823
-821
-818
-816
-814
-812
-810
-806
-803
-800
-800
-800
-799
-797
-796
-796
-796
-797
-799
-802
-802
-804
-805
-809
-811
-812
-813
-817
-817
-818
-818
-818
-821
-822
-825
-828
-828
-829
-829
-828
-829
-828
-828
-831
-833
-833
-830
-831
-829
-829
-831
-831
-829
-829
-828
-827
-823
-825
-825
-825
-826
-827
-827
-825
-826
-825
-825
-827
-828
-828
-825
-825
-826
-827
-828
-828
-826
-826
-826
-826
-826
-826
-827
-826
-826
-827
-828
-829
-828
-825
-825
-825
-825
-826
-826
-825
-825
-825
-825
-824
-823
-824
-821
-822
-824
-823
-825
-821
-823
-826
-828
-828
-828
-827
-827
-827
-826
-826
-826
-825
-824
-824
-824
-823
-822
-820
-817
-814
-810
-808
-805
-804
-802
-802
-800
-801
-804
-804
-799
-798
-799
-798
-799
-802
-804
-805
-807
-811
-814
-817
-823
-828
-829
-831
-832
-831
-829
-830
-832
-833
-833
-834
-835
-834
-833
-833
-834
-836
-837
-833
-822
-806
-787
-761
-734
-711
-702
-718
-743
-763
-782
-800
-813
-821
-826
-831
-835
-838
-840
-841
-841
-843
-844
-845
-844
-846
-846
-845
-845
-845
-845
-846
-846
-846
-846
-845
-845
-844
-844
-844
-844
-844
-844
-844
-841
-841
-843
-844
-844
-841
-840
-840
-839
-837
-835
-837
-837
-835
-834
-832
-831
-826
-825
-823
-820
-820
-818
-815
-812
-810
-810
-810
-809
-809
-808
-808
-806
-805
-805
-804
-804
-805
-804
-806
-811
-815
-814
-816
-819
-821
-825
-828
-830
-829
-831
-833
-831
-831
-834
-835
-835
-836
-837
-835
-837
-835
-833
-834
-834
-833
-833
-834
-832
-832
-831
-831
-831
-831
-831
-833
-833
-834
-833
-831
-830
-831
-832
-832
-832
-834
-837
-838
-835
-835
-837
-836
-836
-835
-838
-837
-837
-836
-837
-838
-837
-837
-835
-835
-837
-835
-835
-835
-835
-837
-833
-835
-837
-838
-837
-838
-837
-838
-839
-838
-840
-839
-838
-838
-835
-833
-833
-833
-834
-834
-833
-832
-832
-833
-833
-832
-831
-828
-827
-823
-822
-821
-818
-817
-815
-814
-811
-813
-811
-806
-806
-806
-806
-807
-810
-812
-814
-814
-820
-821
-827
-832
-833
-835
-835
-838
-841
-844
-843
-840
-836
-837
-839
-839
-839
-840
-841
-843
-846
-847
-842
-829
-814
-796
-772
-743
-719
-710
-721
-744
-765
-790
-810
-822
-829
-833
-833
-835
-839
-843
-845
-846
-849
-849
-851
-850
-847
-849
-850
-852
-850
-850
-850
-851
-852
-852
-853
-853
-852
-850
-850
-851
-851
-848
-846
-846
-849
-850
-850
-849
-849
-847
-845
-845
-845
-843
-840
-837
-835
-834
-834
-831
-829
-826
-825
-823
-821
-818
-817
-815
-814
-815
-815
-814
-812
-811
-810
-810
-808
-809
-807
-806
-807
-810
-812
-811
-814
-816
-819
-820
-821
-822
-825
-825
-826
-829
-831
-832
-833
-834
-833
-833
-834
-835
-837
-834
-835
-834
-835
-836
-835
-833
-834
-836
-836
-836
-834
-832
-833
-832
-832
-831
-831
-835
-835
-835
-835
-832
-830
-832
-835
-835
-832
-831
-829
-826
-826
-833
-838
-839
-840
-840
-841
-840
-841
-840
-839
-838
-837
-839
-838
-836
-835
-834
-836
-835
-836
-837
-835
-837
-837
-838
-837
-834
-834
-833
-832
-834
-833
-831
-831
-832
-829
-826
-823
-821
-820
-820
-818
-817
-814
-810
-808
-808
-808
-812
-815
-815
-812
-811
-809
-806
-806
-809
-814
-817
-817
-820
-825
-829
-833
-837
-837
-835
-838
-841
-843
-842
-841
-841
-841
-839
-839
-837
-839
-844
-845
-847
-844
-835
-817
-799
-776
-747
-720
-704
-714
-735
-758
-778
-799
-814
-824
-831
-835
-835
-834
-833
-834
-835
-837
-839
-843
-844
-846
-849
-846
-844
-842
-845
-847
-847
-848
-847
-847
-844
-844
-846
-846
-845
-840
-841
-844
-844
-843
-841
-842
-840
-839
-839
-837
-836
-834
-831
-831
-831
-828
-827
-825
-823
-823
-820
-816
-814
-813
-810
-806
-805
-804
-799
-799
-800
-799
-797
-796
-797
-799
-799
-797
-797
-796
-800
-804
-806
-805
-807
-808
-807
-808
-811
-816
-820
-822
-820
-821
-822
-825
-826
-826
-825
-825
-823
-821
-825
-825
-825
-826
-827
-828
-828
-826
-825
-825
-823
-821
-820
-823
-825
-825
-823
-825
-826
-825
-826
-825
-826
-826
-828
-827
-826
-828
-827
-823
-823
-826
-827
-827
-828
-829
-829
-827
-828
-831
-831
-829
-828
-828
-828
-826
-830
-831
-831
-829
-828
-826
-826
-826
-827
-829
-829
-829
-831
-828
-826
-825
-826
-826
-825
-823
-821
-823
-826
-822
-820
-818
-814
-813
-812
-809
-808
-809
-809
-809
-808
-806
-806
-806
-805
-806
-805
-803
-800
-802
-806
-810
-814
-815
-820
-824
-828
-832
-833
-835
-835
-837
-837
-838
-837
-837
-837
-835
-838
-838
-837
-838
-839
-843
-843
-834
-819
-801
-778
-753
-727
-709
-717
-741
-763
-784
-803
-815
-820
-830
-838
-840
-840
-841
-843
-845
-847
-847
-846
-846
-847
-846
-847
-846
-846
-847
-849
-849
-849
-847
-846
-846
-847
-847
-847
-847
-847
-846
-846
-844
-842
-842
-843
-843
-843
-841
-840
-839
-838
-840
-839
-837
-835
-834
-833
-834
-829
-825
-823
-822
-825
-824
-818
-815
-814
-812
-808
-808
-807
-803
-802
-800
-800
-800
-800
-802
-803
-803
-806
-806
-805
-810
-812
-816
-816
-814
-817
-820
-825
-826
-827
-826
-826
-827
-829
-829
-828
-828
-826
-826
-828
-828
-829
-829
-825
-821
-825
-829
-829
-827
-825
-829
-831
-829
-823
-825
-826
-827
-828
-826
-828
-829
-829
-829
-830
-830
-830
-831
-830
-832
-834
-836
-838
-835
-834
-831
-832
-832
-829
-829
-830
-831
-833
-832
-831
-834
-833
-832
-833
-835
-832
-831
-832
-832
-831
-833
-832
-829
-826
-828
-829
-829
-826
-827
-829
-828
-831
-833
-832
-830
-828
-826
-822
-819
-816
-812
-810
-806
-806
-806
-809
-811
-813
-812
-807
-805
-808
-809
-809
-810
-810
-812
-814
-818
-821
-828
-832
-835
-836
-839
-840
-839
-838
-839
-839
-840
-838
-836
-838
-840
-843
-844
-844
-846
-847
-840
-827
-814
-793
-769
-741
-718
-718
-737
-758
-778
-802
-816
-825
-832
-838
-840
-840
-841
-843
-843
-844
-844
-844
-846
-846
-845
-846
-846
-844
-844
-846
-846
-846
-849
-847
-848
-848
-847
-847
-847
-847
-846
-846
-845
-845
-844
-844
-842
-843
-844
-843
-840
-840
-838
-836
-833
-832
-832
-832
-831
-828
-827
-826
-823
-820
-816
-815
-812
-809
-809
-808
-808
-809
-808
-805
-803
-803
-803
-802
-802
-804
-807
-808
-810
-814
-813
-814
-816
-818
-820
-823
-826
-827
-827
-827
-829
-829
-829
-829
-831
-832
-830
-830
-830
-832
-832
-829
-828
-831
-832
-832
-831
-829
-831
-831
-830
-828
-830
-829
-828
-828
-828
-827
-828
-829
-829
-830
-826
-829
-832
-829
-829
-829
-830
-831
-829
-829
-832
-831
-829
-831
-834
-835
-834
-835
-834
-833
-835
-837
-835
-835
-835
-835
-834
-835
-834
-834
-832
-831
-831
-831
-829
-829
-831
-832
-831
-833
-833
-832
-830
-828
-823
-821
-821
-821
-817
-811
-809
-807
-805
-804
-802
-804
-809
-808
-806
-804
-804
-805
-808
-809
-811
-814
-815
-817
-823
-828
-832
-835
-839
-839
-839
-839
-839
-839
-840
-841
-841
-840
-840
-840
-840
-841
-844
-846
-847
-844
-835
-821
-803
-780
-755
-732
-720
-729
-747
-764
-786
-806
-820
-828
-835
-836
-838
-841
-845
-847
-847
-849
-848
-847
-847
-849
-847
-846
-847
-849
-849
-847
-847
-846
-844
-845
-845
-845
-844
-843
-841
-840
-840
-838
-838
-838
-839
-840
-840
-839
-836
-837
-835
-833
-833
-832
-832
-831
-831
-829
-824
-822
-821
-821
-820
-818
-817
-815
-814
-812
-810
-809
-808
-805
-806
-808
-807
-808
-804
-803
-803
-803
-804
-806
-810
-810
-811
-813
-815
-818
-821
-821
-823
-823
-826
-828
-828
-825
-826
-827
-826
-826
-826
-826
-825
-822
-821
-823
-825
-823
-821
-822
-821
-821
-823
-824
-823
-825
-826
-825
-823
-823
-821
-822
-823
-823
-823
-823
-821
-823
-826
-825
-823
-823
-823
-825
-828
-828
-828
-828
-828
-828
-828
-829
-832
-834
-834
-832
-832
-831
-831
-832
-831
-833
-833
-831
-829
-829
-831
-830
-828
-828
-831
-832
-831
-834
-835
-835
-834
-834
-834
-833
-830
-829
-826
-822
-819
-817
-815
-814
-812
-811
-810
-812
-814
-811
-806
-804
-805
-804
-803
-805
-808
-808
-812
-816
-820
-826
-832
-835
-838
-841
-844
-843
-844
-843
-843
-841
-840
-840
-839
-837
-836
-838
-841
-844
-846
-845
-833
-817
-801
-778
-752
-724
-706
-712
-727
-749
-774
-797
-812
-822
-830
-831
-831
-833
-835
-838
-839
-841
-843
-841
-841
-842
-841
-840
-840
-842
-842
-842
-843
-843
-842
-841
-841
-840
-839
-839
-839
-838
-837
-837
-835
-835
-834
-834
-835
-832
-830
-829
-828
-826
-825
-825
-823
-821
-820
-818
-816
-815
-812
-811
-810
-809
-806
-803
-800
-800
-797
-796
-794
-794
-793
-790
-789
-788
-788
-791
-793
-795
-797
-799
-802
-803
-804
-806
-810
-812
-810
-812
-816
-818
-820
-820
-820
-820
-823
-824
-824
-825
-825
-825
-825
-823
-823
-825
-822
-823
-823
-822
-821
-820
-820
-821
-821
-822
-821
-821
-821
-821
-822
-823
-825
-825
-823
-821
-821
-821
-821
-825
-826
-826
-825
-823
-823
-825
-824
-826
-825
-823
-823
-825
-827
-827
-827
-826
-826
-827
-827
-827
-826
-826
-825
-825
-825
-823
-822
-821
-821
-821
-820
-820
-817
-815
-814
-811
-807
-804
-802
-802
-803
-800
-800
-802
-799
-794
-793
-794
-794
-794
-796
-797
-799
-800
-802
-807
-815
-818
-821
-825
-828
-829
-830
-829
-830
-828
-829
-829
-829
-831
-829
-827
-827
-831
-837
-839
-837
-828
-811
-792
-767
-739
-712
-696
-704
-726
-752
-778
-797
-811
-820
-825
-829
-829
-832
-835
-840
-845
-844
-843
-845
-846
-842
-843
-844
-843
-844
-844
-845
-845
-845
-844
-844
-843
-843
-844
-844
-843
-843
-841
-840
-840
-839
-839
-837
-837
-835
-835
-835
-836
-834
-831
-829
-831
-832
-829
-828
-831
-830
-825
-823
-820
-820
-820
-816
-813
-811
-809
-808
-806
-805
-803
-802
-802
-803
-807
-810
-809
-810
-811
-812
-812
-812
-814
-816
-818
-820
-821
-823
-825
-825
-826
-825
-823
-825
-826
-827
-828
-828
-829
-833
-833
-830
-829
-829
-829
-829
-829
-828
-827
-829
-829
-826
-828
-828
-828
-826
-825
-828
-830
-831
-829
-828
-828
-826
-828
-828
-826
-828
-829
-828
-825
-821
-826
-825
-824
-826
-823
-825
-824
-821
-822
-823
-826
-825
-824
-825
-827
-828
-826
-825
-823
-823
-823
-821
-823
-824
-821
-820
-817
-817
-817
-815
-817
-818
-818
-814
-811
-811
-812
-809
-806
-805
-803
-797
-797
-797
-794
-793
-791
-794
-794
-790
-787
-787
-790
-790
-791
-794
-796
-797
-798
-802
-804
-813
-817
-820
-821
-821
-821
-825
-823
-823
-826
-826
-826
-826
-825
-823
-824
-827
-829
-831
-827
-817
-802
-782
-759
-731
-704
-690
-697
-719
-743
-765
-785
-796
-802
-815
-821
-825
-828
-831
-830
-834
-839
-839
-840
-841
-840
-845
-847
-846
-846
-844
-843
-841
-840
-839
-839
-838
-837
-838
-840
-837
-835
-834
-834
-834
-833
-832
-829
-832
-833
-829
-829
-831
-829
-826
-827
-827
-828
-829
-822
-818
-816
-814
-810
-808
-805
-804
-805
-803
-798
-797
-797
-796
-797
-799
-799
-797
-796
-794
-790
-788
-788
-793
-800
-800
-800
-802
-803
-804
-804
-806
-809
-812
-812
-815
-815
-815
-815
-814
-814
-817
-820
-820
-818
-817
-816
-814
-820
-818
-816
-820
-820
-822
-824
-823
-821
-818
-820
-822
-821
-820
-820
-820
-819
-818
-817
-817
-820
-820
-817
-817
-817
-815
-815
-812
-811
-811
-810
-809
-809
-810
-811
-809
-808
-808
-810
-811
-809
-809
-810
-810
-811
-813
-814
-812
-812
-814
-814
-814
-814
-817
-818
-820
-820
-821
-821
-820
-821
-824
-825
-825
-823
-822
-821
-821
-818
-818
-818
-817
-814
-810
-806
-805
-806
-804
-802
-800
-804
-806
-802
-800
-804
-803
-803
-806
-806
-808
-810
-815
-818
-823
-829
-831
-835
-839
-839
-840
-839
-838
-839
-838
-837
-834
-835
-836
-839
-840
-840
-840
-840
-839
-831
-814
-797
-775
-749
-727
-706
-704
-720
-744
-767
-787
-802
-812
-821
-830
-829
-831
-835
-840
-842
-844
-843
-844
-844
-846
-850
-846
-846
-846
-846
-844
-846
-849
-848
-850
-849
-847
-844
-847
-847
-840
-841
-844
-844
-846
-847
-847
-847
-844
-841
-842
-843
-840
-840
-838
-838
-837
-838
-835
-829
-827
-825
-823
-823
-825
-823
-820
-817
-816
-811
-809
-809
-812
-809
-806
-802
-800
-805
-807
-809
-810
-809
-811
-812
-812
-816
-816
-820
-820
-820
-820
-828
-832
-831
-829
-831
-832
-833
-832
-834
-835
-833
-833
-833
-834
-835
-835
-834
-832
-837
-837
-838
-838
-834
-834
-832
-833
-834
-835
-835
-833
-837
-839
-840
-840
-840
-841
-842
-840
-837
-839
-841
-842
-843
-844
-839
-837
-843
-846
-846
-845
-842
-840
-839
-838
-842
-839
-838
-840
-844
-841
-839
-844
-842
-842
-843
-843
-846
-843
-839
-837
-841
-842
-844
-845
-845
-843
-840
-841
-839
-837
-839
-840
-837
-832
-835
-831
-827
-825
-822
-821
-821
-818
-818
-814
-814
-817
-816
-814
-814
-814
-811
-814
-815
-820
-823
-828
-831
-834
-833
-838
-844
-849
-850
-851
-848
-846
-849
-849
-842
-841
-843
-844
-845
-844
-840
-841
-847
-844
-831
-815
-799
-779
-753
-728
-711
-715
-733
-758
-782
-802
-815
-824
-832
-834
-835
-843
-846
-847
-849
-851
-852
-851
-849
-850
-852
-852
-850
-850
-850
-851
-852
-855
-857
-859
-860
-858
-856
-856
-855
-855
-854
-856
-858
-861
-861
-859
-857
-856
-852
-850
-850
-850
-848
-846
-843
-841
-841
-841
-839
-837
-834
-832
-831
-829
-828
-826
-825
-821
-822
-821
-820
-816
-815
-818
-820
-821
-820
-818
-820
-820
-823
-825
-827
-826
-827
-829
-830
-834
-837
-841
-842
-840
-839
-840
-842
-845
-847
-849
-849
-847
-847
-849
-849
-848
-847
-846
-846
-845
-843
-842
-844
-844
-843
-844
-844
-846
-847
-848
-847
-848
-847
-847
-847
-847
-849
-849
-847
-846
-849
-849
-851
-850
-849
-849
-849
-847
-847
-848
-847
-849
-849
-850
-850
-850
-850
-849
-849
-847
-846
-844
-845
-846
-849
-849
-845
-844
-844
-846
-845
-844
-845
-846
-846
-845
-841
-841
-841
-839
-835
-832
-827
-823
-823
-822
-820
-820
-823
-828
-826
-823
-821
-820
-818
-818
-822
-825
-829
-833
-837
-840
-844
-847
-851
-852
-853
-853
-854
-853
-852
-850
-851
-850
-849
-850
-850
-851
-852
-855
-856
-853
-846
-831
-811
-789
-765
-743
-725
-729
-744
-764
-787
-808
-823
-835
-844
-846
-846
-847
-850
-854
-853
-855
-858
-858
-858
-859
-861
-861
-861
-862
-861
-860
-860
-860
-859
-857
-853
-855
-855
-855
-856
-855
-854
-851
-849
-849
-850
-849
-849
-850
-849
-848
-846
-845
-844
-843
-839
-838
-835
-832
-826
-822
-820
-817
-817
-816
-818
-820
-820
-820
-818
-816
-812
-811
-808
-804
-802
-803
-803
-803
-810
-815
-819
-817
-817
-816
-816
-817
-820
-821
-826
-831
-833
-831
-832
-832
-834
-837
-839
-841
-844
-844
-840
-840
-841
-841
-838
-837
-842
-844
-846
-846
-847
-845
-842
-844
-846
-843
-841
-844
-845
-844
-841
-840
-839
-842
-843
-844
-840
-836
-834
-834
-839
-840
-837
-837
-845
-847
-844
-837
-835
-833
-833
-831
-831
-831
-829
-829
-826
-831
-833
-833
-834
-835
-835
-832
-829
-826
-826
-827
-827
-822
-822
-822
-817
-812
-812
-812
-811
-810
-809
-805
-807
-810
-811
-809
-806
-803
-806
-812
-816
-819
-815
-822
-828
-829
-834
-842
-846
-847
-845
-846
-846
-846
-843
-840
-842
-843
-841
-841
-841
-846
-850
-853
-856
-853
-844
-831
-815
-792
-765
-735
-711
-710
-729
-752
-778
-799
-814
-821
-826
-832
-838
-839
-841
-845
-848
-849
-847
-847
-848
-850
-850
-852
-855
-856
-856
-855
-853
-852
-851
-852
-851
-850
-855
-860
-861
-856
-853
-852
-852
-848
-845
-844
-847
-847
-847
-844
-841
-840
-843
-843
-835
-831
-829
-829
-831
-831
-828
-829
-829
-829
-827
-825
-821
-820
-820
-818
-814
-812
-812
-810
-806
-805
-805
-806
-808
-808
-812
-815
-811
-812
-814
-815
-814
-817
-825
-828
-826
-822
-820
-820
-824
-826
-828
-829
-831
-830
-831
-828
-824
-821
-821
-823
-825
-825
-820
-816
-821
-825
-826
-823
-820
-817
-817
-818
-818
-820
-823
-821
-820
-823
-824
-825
-826
-825
-821
-817
-817
-818
-820
-821
-822
-821
-821
-823
-827
-828
-826
-825
-823
-825
-825
-827
-828
-830
-831
-828
-827
-828
-828
-825
-823
-822
-823
-828
-828
-826
-826
-829
-832
-831
-832
-831
-829
-829
-828
-826
-825
-821
-818
-816
-815
-814
-814
-815
-813
-811
-810
-805
-800
-800
-803
-802
-802
-807
-812
-815
-812
-814
-820
-823
-827
-830
-835
-838
-837
-837
-838
-838
-835
-837
-840
-839
-837
-834
-833
-834
-838
-844
-844
-835
-823
-807
-788
-761
-732
-711
-708
-725
-752
-776
-798
-812
-820
-826
-831
-831
-834
-836
-838
-841
-842
-844
-844
-845
-845
-847
-846
-845
-846
-847
-846
-845
-850
-850
-850
-847
-846
-844
-845
-845
-844
-843
-843
-843
-841
-841
-844
-844
-843
-841
-839
-837
-835
-832
-831
-832
-832
-830
-827
-823
-823
-823
-825
-823
-820
-817
-815
-812
-809
-809
-810
-809
-806
-805
-803
-802
-802
-800
-798
-797
-796
-797
-800
-805
-808
-808
-810
-812
-814
-815
-818
-820
-819
-820
-820
-822
-821
-820
-822
-825
-827
-827
-826
-826
-828
-823
-821
-826
-832
-832
-831
-832
-829
-829
-830
-826
-827
-827
-825
-826
-825
-825
-823
-825
-826
-823
-826
-826
-825
-825
-823
-821
-820
-820
-821
-826
-825
-821
-820
-821
-820
-825
-828
-826
-822
-822
-823
-825
-825
-822
-821
-821
-821
-820
-818
-818
-820
-821
-820
-817
-817
-819
-814
-815
-814
-820
-826
-825
-821
-820
-821
-820
-820
-817
-815
-816
-818
-818
-818
-816
-814
-811
-812
-812
-809
-804
-802
-800
-799
-800
-799
-799
-798
-796
-793
-794
-795
-794
-793
-797
-800
-801
-800
-805
-810
-814
-818
-823
-825
-825
-826
-831
-831
-830
-831
-831
-830
-831
-834
-833
-831
-831
-833
-837
-840
-837
-827
-812
-793
-769
-743
-716
-701
-711
-733
-756
-778
-796
-808
-816
-823
-827
-828
-832
-835
-839
-841
-844
-846
-846
-849
-849
-848
-849
-849
-847
-847
-849
-848
-846
-845
-846
-845
-843
-846
-848
-847
-845
-845
-846
-844
-843
-840
-842
-845
-846
-845
-844
-844
-844
-843
-839
-838
-835
-835
-832
-830
-831
-828
-825
-821
-820
-818
-818
-817
-814
-810
-812
-812
-810
-809
-810
-810
-809
-806
-808
-809
-808
-809
-811
-814
-814
-814
-815
-817
-818
-821
-825
-826
-826
-828
-828
-830
-829
-828
-826
-829
-835
-837
-838
-837
-836
-834
-835
-835
-836
-837
-838
-836
-836
-835
-834
-833
-832
-832
-831
-829
-832
-832
-833
-835
-835
-835
-835
-834
-835
-837
-835
-835
-836
-836
-835
-835
-835
-833
-834
-836
-835
-833
-833
-833
-831
-834
-835
-835
-837
-840
-841
-838
-836
-835
-837
-838
-838
-837
-837
-838
-837
-837
-837
-837
-838
-837
-834
-833
-834
-834
-834
-835
-835
-835
-834
-833
-833
-833
-834
-836
-834
-832
-832
-833
-832
-832
-829
-826
-822
-822
-821
-820
-820
-818
-815
-815
-814
-814
-814
-812
-809
-809
-810
-810
-810
-811
-811
-811
-812
-815
-820
-825
-829
-831
-831
-831
-832
-834
-837
-836
-838
-840
-839
-839
-834
-832
-832
-835
-838
-840
-840
-838
-831
-815
-793
-768
-741
-716
-703
-713
-734
-755
-775
-792
-806
-818
-826
-829
-831
-833
-835
-838
-840
-842
-841
-845
-849
-848
-846
-846
-847
-847
-844
-841
-842
-843
-843
-843
-842
-840
-840
-841
-843
-843
-841
-838
-838
-837
-838
-840
-839
-838
-835
-834
-830
-828
-827
-829
-833
-832
-825
-822
-821
-823
-825
-821
-817
-818
-820
-815
-811
-810
-806
-800
-799
-800
-797
-798
-797
-798
-799
-799
-797
-799
-800
-802
-804
-806
-807
-809
-810
-812
-814
-815
-817
-817
-818
-818
-820
-822
-822
-823
-825
-825
-825
-825
-826
-825
-825
-825
-826
-826
-825
-825
-825
-826
-824
-826
-827
-827
-825
-825
-826
-827
-827
-827
-825
-825
-825
-822
-823
-824
-823
-822
-821
-824
-825
-827
-825
-825
-825
-826
-826
-828
-832
-831
-831
-829
-829
-828
-828
-828
-829
-830
-831
-829
-829
-831
-829
-830
-830
-831
-832
-830
-829
-829
-831
-832
-830
-831
-831
-828
-827
-828
-828
-827
-827
-828
-829
-829
-827
-829
-832
-832
-831
-832
-832
-831
-830
-829
-829
-829
-827
-826
-823
-821
-820
-817
-815
-812
-811
-810
-808
-808
-810
-810
-809
-805
-805
-805
-805
-806
-806
-806
-808
-811
-817
-820
-825
-827
-830
-833
-833
-834
-835
-837
-840
-838
-837
-836
-836
-835
-835
-835
-835
-835
-837
-842
-841
-832
-820
-803
-781
-754
-728
-708
-709
-728
-750
-771
-791
-806
-820
-829
-835
-837
-837
-838
-841
-843
-844
-844
-846
-846
-847
-846
-846
-846
-849
-849
-847
-848
-847
-847
-846
-845
-845
-845
-847
-847
-845
-844
-845
-843
-842
-843
-843
-843
-841
-838
-838
-838
-838
-837
-837
-834
-830
-829
-830
-830
-829
-826
-823
-821
-818
-816
-812
-814
-815
-814
-811
-807
-806
-806
-805
-805
-805
-808
-806
-808
-810
-811
-812
-812
-812
-814
-815
-814
-815
-815
-815
-814
-817
-820
-820
-820
-820
-820
-823
-828
-831
-833
-837
-841
-841
-837
-839
-838
-837
-839
-837
-834
-835
-836
-837
-837
-837
-839
-838
-838
-834
-832
-835
-837
-837
-838
-837
-837
-837
-835
-833
-832
-834
-838
-839
-840
-840
-841
-841
-841
-840
-838
-839
-840
-840
-837
-836
-835
-837
-840
-841
-841
-842
-844
-843
-841
-841
-841
-844
-848
-849
-850
-847
-845
-844
-847
-846
-846
-843
-840
-840
-843
-842
-843
-844
-842
-841
-838
-840
-840
-838
-838
-840
-840
-841
-840
-839
-837
-837
-841
-841
-843
-844
-841
-839
-837
-834
-831
-829
-825
-820
-822
-821
-820
-818
-818
-820
-817
-817
-818
-817
-815
-814
-814
-816
-818
-822
-826
-831
-832
-834
-838
-841
-845
-846
-845
-843
-845
-846
-844
-848
-851
-853
-850
-845
-847
-849
-850
-849
-848
-836
-818
-798
-774
-747
-723
-716
-731
-752
-770
-791
-809
-820
-829
-835
-837
-837
-840
-843
-841
-841
-843
-847
-847
-850
-850
-851
-852
-856
-858
-855
-852
-855
-857
-857
-857
-854
-852
-852
-851
-849
-850
-850
-849
-848
-846
-846
-847
-847
-849
-849
-846
-841
-839
-840
-840
-840
-838
-835
-835
-832
-831
-829
-826
-825
-821
-819
-818
-817
-815
-813
-812
-810
-808
-805
-804
-803
-805
-804
-803
-800
-799
-800
-804
-809
-809
-811
-811
-811
-812
-818
-821
-823
-822
-820
-822
-823
-823
-826
-828
-830
-833
-835
-832
-827
-827
-829
-832
-832
-831
-828
-827
-827
-827
-827
-826
-826
-826
-829
-829
-827
-828
-829
-829
-826
-825
-823
-825
-826
-825
-825
-823
-822
-828
-831
-831
-829
-828
-826
-828
-829
-830
-829
-828
-828
-829
-829
-833
-831
-829
-826
-831
-828
-825
-829
-833
-834
-833
-832
-831
-830
-829
-829
-829
-828
-828
-829
-830
-829
-826
-826
-825
-824
-823
-822
-821
-825
-831
-833
-833
-832
-829
-828
-827
-825
-821
-823
-826
-827
-828
-830
-828
-825
-824
-823
-820
-817
-814
-811
-808
-806
-805
-802
-802
-800
-801
-802
-800
-800
-800
-800
-800
-802
-800
-800
-800
-803
-811
-815
-819
-821
-824
-826
-828
-825
-825
-826
-822
-820
-821
-823
-827
-826
-826
-826
-828
-831
-834
-832
-823
-807
-792
-771
-746
-719
-700
-704
-721
-743
-763
-783
-797
-806
-817
-823
-822
-821
-825
-829
-833
-834
-834
-836
-837
-837
-834
-834
-835
-835
-834
-837
-837
-837
-835
-833
-834
-835
-834
-833
-833
-833
-834
-835
-832
-828
-829
-828
-825
-822
-822
-823
-828
-828
-826
-825
-821
-820
-820
-816
-812
-811
-809
-808
-806
-803
-802
-798
-797
-796
-793
-792
-791
-790
-788
-784
-782
-782
-785
-787
-787
-787
-788
-788
-790
-792
-793
-798
-800
-802
-802
-802
-804
-805
-807
-811
-814
-814
-814
-815
-814
-817
-819
-820
-822
-822
-821
-818
-817
-817
-818
-817
-817
-815
-817
-818
-817
-814
-814
-815
-814
-815
-815
-814
-812
-811
-810
-810
-812
-814
-812
-812
-815
-815
-818
-820
-821
-818
-818
-820
-819
-820
-820
-821
-820
-819
-818
-820
-820
-820
-821
-821
-823
-825
-823
-822
-823
-823
-823
-820
-821
-820
-820
-821
-823
-823
-820
-821
-823
-825
-823
-823
-827
-827
-825
-826
-829
-829
-826
-823
-825
-825
-825
-825
-821
-820
-821
-823
-823
-821
-821
-821
-823
-823
-821
-821
-821
-814
-811
-807
-806
-802
-802
-802
-800
-799
-799
-800
-798
-795
-796
-796
-796
-792
-793
-797
-803
-806
-810
-812
-814
-817
-821
-826
-828
-827
-826
-824
-825
-829
-831
-831
-828
-827
-827
-829
-827
-827
-831
-835
-833
-825
-809
-791
-769
-743
-717
-704
-713
-733
-753
-773
-792
-806
-814
-818
-823
-825
-826
-828
-829
-833
-838
-839
-837
-838
-839
-837
-837
-838
-839
-840
-840
-841
-840
-839
-839
-839
-838
-839
-838
-837
-835
-835
-835
-835
-837
-837
-836
-834
-833
-832
-833
-831
-831
-829
-827
-825
-823
-823
-825
-822
-818
-815
-814
-813
-815
-812
-811
-807
-805
-804
-802
-801
-797
-797
-796
-797
-800
-797
-797
-796
-797
-799
-800
-802
-805
-807
-809
-812
-812
-815
-817
-820
-821
-820
-823
-825
-825
-825
-826
-826
-826
-831
-832
-830
-829
-829
-828
-828
-829
-828
-828
-830
-829
-829
-828
-827
-825
-826
-828
-828
-828
-826
-826
-825
-828
-829
-828
-826
-827
-826
-826
-828
-832
-834
-834
-832
-831
-831
-832
-832
-832
-833
-834
-831
-828
-829
-833
-837
-835
-832
-832
-832
-837
-839
-840
-840
-840
-838
-837
-837
-835
-835
-837
-838
-840
-838
-837
-837
-836
-838
-838
-838
-838
-838
-837
-835
-835
-835
-835
-835
-835
-834
-834
-835
-834
-835
-835
-834
-834
-835
-833
-832
-833
-835
-833
-831
-828
-824
-819
-815
-815
-814
-814
-810
-809
-809
-811
-810
-805
-805
-808
-810
-810
-811
-814
-813
-812
-818
-823
-828
-830
-834
-837
-838
-839
-839
-840
-839
-838
-838
-839
-837
-837
-836
-840
-842
-841
-843
-847
-847
-840
-825
-808
-787
-763
-737
-722
-732
-751
-770
-792
-811
-822
-831
-837
-837
-841
-844
-847
-847
-847
-846
-844
-845
-847
-846
-844
-840
-844
-849
-851
-849
-847
-849
-852
-851
-849
-849
-851
-850
-851
-849
-850
-846
-845
-846
-844
-842
-844
-843
-841
-841
-840
-839
-837
-837
-835
-832
-832
-832
-831
-829
-828
-822
-821
-821
-817
-815
-815
-812
-809
-805
-805
-805
-806
-806
-809
-810
-811
-811
-812
-814
-814
-814
-815
-817
-818
-821
-822
-822
-822
-825
-826
-829
-832
-831
-831
-833
-834
-835
-834
-834
-832
-832
-831
-833
-837
-835
-833
-833
-832
-832
-829
-830
-833
-837
-836
-835
-834
-834
-835
-835
-837
-836
-835
-835
-833
-833
-834
-836
-835
-835
-838
-837
-837
-837
-836
-836
-838
-840
-839
-837
-836
-835
-838
-841
-844
-843
-841
-840
-840
-843
-843
-841
-840
-840
-836
-837
-840
-844
-845
-846
-845
-843
-842
-841
-840
-840
-841
-840
-842
-841
-841
-840
-838
-837
-839
-841
-841
-841
-840
-838
-838
-839
-839
-839
-838
-839
-840
-840
-841
-839
-837
-835
-831
-829
-827
-823
-822
-820
-817
-815
-814
-814
-814
-812
-808
-806
-808
-809
-809
-810
-815
-817
-818
-821
-826
-829
-833
-840
-846
-843
-843
-841
-840
-843
-847
-844
-844
-844
-841
-841
-839
-839
-839
-840
-841
-839
-832
-820
-803
-781
-756
-730
-720
-730
-749
-768
-788
-803
-814
-823
-831
-834
-834
-834
-835
-837
-839
-844
-846
-844
-841
-840
-841
-841
-840
-841
-843
-844
-846
-845
-844
-844
-844
-842
-841
-842
-844
-844
-844
-843
-841
-840
-839
-837
-837
-840
-840
-839
-836
-833
-831
-831
-830
-829
-831
-828
-826
-825
-822
-821
-819
-815
-814
-811
-809
-806
-803
-803
-802
-800
-801
-802
-802
-800
-799
-798
-799
-800
-802
-803
-804
-806
-808
-808
-809
-809
-809
-811
-814
-817
-821
-825
-825
-825
-825
-825
-824
-825
-825
-825
-824
-822
-822
-820
-820
-820
-820
-818
-818
-820
-821
-820
-820
-821
-823
-825
-821
-820
-822
-823
-823
-825
-825
-823
-823
-823
-825
-826
-827
-828
-828
-829
-829
-829
-828
-826
-827
-829
-832
-833
-835
-837
-838
-838
-837
-837
-839
-839
-837
-841
-843
-841
-843
-844
-843
-840
-838
-838
-839
-841
-846
-847
-844
-843
-841
-843
-846
-848
-857
-861
-854
-844
-844
-849
-849
-844
-845
-849
-846
-833
-825
-820
-820
-816
-817
-814
-807
-799
-800
-806
-810
-804
-803
-803
-806
-806
-808
-807
-810
-816
-815
-818
-827
-832
-835
-837
-832
-829
-831
-832
-831
-831
-832
-831
-831
-828
-828
-832
-835
-837
-841
-846
-841
-830
-812
-787
-761
-731
-703
-699
-720
-741
-764
-787
-803
-814
-823
-828
-831
-831
-829
-828
-831
-832
-833
-837
-837
-834
-832
-830
-833
-839
-841
-844
-844
-841
-837
-838
-844
-853
-856
-854
-853
-853
-855
-846
-845
-844
-840
-841
-837
-832
-831
-835
-837
-834
-835
-830
-828
-829
-827
-827
-823
-820
-818
-819
-818
-814
-811
-811
-809
-802
-800
-798
-795
-798
-802
-801
-802
-802
-800
-803
-802
-796
-792
-797
-807
-810
-807
-804
-805
-808
-812
-814
-812
-812
-812
-812
-816
-820
-823
-820
-820
-820
-821
-825
-825
-822
-818
-820
-822
-825
-826
-826
-823
-821
-825
-825
-821
-818
-821
-821
-822
-821
-818
-814
-815
-816
-815
-818
-820
-821
-826
-829
-829
-828
-828
-828
-823
-821
-820
-820
-823
-824
-823
-823
-825
-826
-825
-823
-825
-829
-831
-827
-821
-821
-824
-827
-828
-824
-825
-827
-827
-827
-829
-829
-825
-823
-822
-822
-821
-821
-820
-818
-819
-821
-820
-820
-826
-825
-820
-820
-823
-823
-820
-817
-817
-822
-826
-828
-826
-826
-820
-819
-817
-811
-809
-808
-808
-806
-800
-798
-797
-800
-799
-800
-799
-796
-794
-793
-793
-794
-799
-805
-812
-817
-820
-820
-821
-825
-828
-828
-829
-828
-829
-829
-828
-825
-827
-825
-821
-820
-819
-820
-821
-825
-822
-808
-790
-764
-734
-706
-686
-688
-708
-734
-754
-775
-790
-801
-815
-814
-821
-823
-826
-826
-827
-828
-832
-834
-833
-833
-836
-836
-840
-839
-837
-839
-840
-841
-840
-841
-842
-841
-840
-838
-838
-835
-832
-829
-828
-831
-831
-831
-832
-831
-831
-832
-828
-825
-826
-826
-826
-825
-823
-821
-818
-816
-813
-811
-810
-808
-803
-802
-802
-804
-801
-798
-796
-793
-795
-797
-796
-793
-792
-792
-792
-792
-796
-799
-799
-796
-797
-802
-802
-800
-803
-807
-809
-809
-807
-811
-813
-814
-817
-817
-817
-817
-815
-815
-818
-817
-818
-818
-819
-820
-818
-816
-814
-815
-816
-818
-816
-815
-815
-814
-814
-813
-812
-812
-814
-813
-812
-812
-814
-814
-815
-814
-814
-817
-817
-818
-816
-817
-817
-821
-820
-818
-820
-823
-825
-825
-821
-821
-823
-823
-821
-820
-820
-822
-826
-826
-821
-821
-823
-825
-823
-825
-828
-831
-829
-830
-827
-828
-828
-826
-825
-830
-830
-834
-839
-833
-830
-835
-836
-838
-837
-834
-836
-840
-844
-853
-854
-849
-840
-835
-835
-834
-832
-832
-833
-828
-822
-825
-826
-821
-816
-814
-814
-812
-809
-807
-811
-812
-809
-812
-814
-815
-812
-814
-819
-821
-818
-819
-821
-822
-823
-825
-825
-825
-826
-829
-834
-836
-831
-828
-827
-827
-828
-828
-827
-826
-831
-837
-837
-832
-820
-803
-785
-764
-735
-707
-694
-701
-723
-747
-768
-788
-799
-809
-818
-827
-831
-832
-835
-837
-840
-841
-840
-839
-839
-838
-840
-844
-848
-847
-847
-847
-847
-846
-844
-844
-843
-841
-841
-842
-843
-843
-841
-840
-837
-837
-838
-838
-838
-837
-836
-835
-834
-832
-831
-831
-829
-829
-828
-827
-827
-827
-825
-823
-818
-815
-813
-812
-814
-814
-811
-809
-809
-806
-808
-805
-802
-802
-802
-803
-803
-804
-802
-804
-808
-809
-815
-814
-814
-818
-820
-821
-823
-825
-826
-826
-827
-827
-829
-832
-833
-833
-835
-837
-837
-834
-832
-831
-833
-834
-837
-836
-835
-832
-832
-831
-832
-833
-835
-836
-835
-834
-832
-832
-832
-834
-834
-837
-837
-837
-839
-840
-840
-838
-838
-838
-838
-835
-837
-838
-838
-838
-839
-840
-837
-835
-837
-837
-838
-840
-843
-844
-844
-847
-847
-846
-846
-847
-850
-847
-844
-844
-843
-844
-845
-843
-845
-846
-848
-844
-843
-844
-846
-847
-846
-849
-852
-853
-850
-847
-846
-846
-844
-840
-844
-847
-849
-849
-849
-847
-849
-849
-846
-854
-855
-849
-848
-850
-850
-846
-837
-825
-828
-828
-827
-827
-826
-820
-820
-817
-812
-812
-818
-818
-815
-814
-817
-813
-812
-815
-820
-825
-826
-830
-832
-835
-840
-841
-837
-837
-839
-837
-835
-837
-838
-840
-842
-843
-847
-852
-852
-847
-835
-814
-790
-765
-740
-717
-711
-725
-749
-770
-796
-812
-822
-831
-837
-837
-839
-841
-844
-846
-849
-850
-850
-849
-852
-853
-852
-854
-855
-853
-853
-854
-855
-854
-854
-853
-852
-851
-852
-856
-855
-853
-854
-852
-850
-850
-849
-848
-847
-846
-847
-847
-845
-844
-844
-844
-840
-838
-837
-834
-834
-831
-832
-830
-829
-826
-822
-820
-822
-820
-815
-814
-810
-813
-817
-817
-815
-812
-815
-817
-820
-823
-823
-822
-821
-823
-825
-827
-830
-834
-835
-837
-838
-838
-837
-835
-838
-841
-840
-843
-844
-844
-843
-844
-845
-845
-846
-846
-843
-844
-844
-844
-844
-842
-839
-840
-837
-838
-841
-844
-841
-842
-841
-841
-839
-840
-840
-838
-836
-838
-839
-840
-839
-840
-840
-838
-836
-839
-840
-842
-842
-839
-840
-841
-841
-844
-849
-849
-847
-847
-844
-842
-840
-840
-844
-847
-850
-847
-845
-844
-846
-847
-847
-847
-846
-844
-844
-844
-846
-847
-850
-852
-851
-846
-842
-847
-849
-847
-849
-848
-845
-845
-845
-846
-847
-849
-846
-846
-849
-849
-846
-846
-846
-846
-843
-840
-839
-837
-835
-833
-832
-833
-830
-825
-824
-821
-825
-823
-818
-817
-819
-821
-818
-820
-821
-822
-823
-828
-834
-839
-843
-847
-848
-849
-852
-852
-851
-851
-851
-849
-847
-849
-850
-847
-847
-847
-849
-850
-852
-851
-846
-833
-814
-794
-773
-747
-727
-729
-747
-767
-786
-806
-822
-829
-835
-843
-849
-850
-850
-852
-853
-855
-856
-855
-857
-858
-856
-852
-856
-859
-861
-859
-859
-859
-859
-859
-860
-859
-857
-854
-855
-855
-855
-853
-852
-850
-852
-851
-851
-851
-849
-847
-849
-849
-848
-847
-845
-844
-842
-840
-836
-834
-832
-830
-829
-826
-822
-823
-823
-821
-815
-813
-813
-816
-816
-812
-810
-810
-812
-812
-812
-812
-814
-812
-811
-812
-814
-819
-821
-821
-820
-825
-826
-828
-829
-829
-832
-833
-834
-832
-834
-835
-837
-837
-837
-837
-837
-837
-838
-836
-838
-837
-835
-834
-835
-835
-837
-835
-831
-830
-831
-831
-832
-835
-838
-836
-837
-837
-837
-836
-838
-839
-839
-840
-840
-838
-836
-836
-835
-835
-836
-838
-838
-837
-835
-836
-837
-835
-833
-835
-838
-840
-840
-839
-839
-841
-844
-843
-840
-837
-838
-840
-837
-837
-840
-840
-838
-840
-841
-840
-839
-839
-839
-840
-840
-841
-840
-835
-834
-839
-841
-841
-838
-837
-840
-839
-839
-839
-839
-840
-840
-838
-838
-835
-834
-833
-833
-831
-831
-831
-828
-825
-820
-820
-824
-818
-815
-817
-816
-814
-809
-809
-810
-810
-810
-815
-817
-817
-820
-820
-827
-831
-833
-837
-839
-840
-837
-837
-835
-836
-835
-835
-831
-829
-832
-836
-837
-835
-837
-840
-840
-837
-829
-814
-797
-771
-744
-717
-703
-712
-729
-750
-776
-798
-811
-821
-832
-835
-837
-836
-837
-840
-841
-841
-844
-844
-844
-844
-843
-841
-843
-844
-842
-841
-844
-844
-843
-842
-842
-841
-843
-845
-844
-843
-840
-840
-843
-841
-841
-844
-841
-839
-836
-835
-835
-832
-831
-829
-826
-825
-825
-825
-823
-825
-825
-821
-817
-815
-812
-810
-809
-808
-805
-804
-802
-802
-800
-799
-799
-802
-800
-796
-794
-796
-797
-799
-800
-802
-805
-808
-811
-815
-816
-814
-814
-816
-815
-817
-821
-823
-825
-826
-829
-827
-824
-822
-824
-825
-821
-821
-822
-819
-820
-818
-816
-817
-821
-822
-825
-829
-827
-822
-822
-826
-823
-823
-825
-823
-821
-823
-822
-820
-821
-820
-820
-821
-823
-825
-823
-825
-825
-825
-825
-823
-823
-826
-826
-825
-825
-827
-825
-825
-826
-826
-825
-822
-823
-821
-821
-820
-822
-821
-821
-818
-815
-819
-818
-814
-812
-812
-817
-820
-820
-821
-821
-821
-820
-823
-821
-820
-820
-818
-817
-814
-815
-815
-816
-818
-816
-814
-814
-814
-812
-810
-809
-807
-804
-799
-798
-798
-797
-795
-793
-791
-793
-793
-788
-786
-787
-788
-790
-788
-791
-794
-796
-798
-800
-805
-809
-811
-810
-810
-809
-815
-823
-831
-829
-825
-825
-825
-825
-821
-820
-820
-824
-828
-831
-831
-823
-808
-793
-772
-745
-719
-700
-697
-714
-735
-754
-776
-793
-803
-810
-815
-818
-820
-823
-823
-822
-827
-829
-831
-832
-834
-837
-833
-832
-834
-836
-835
-835
-833
-832
-833
-834
-837
-838
-838
-839
-841
-839
-837
-834
-832
-831
-831
-828
-828
-831
-829
-826
-828
-825
-821
-818
-818
-814
-812
-817
-815
-811
-811
-814
-813
-810
-806
-802
-803
-802
-801
-797
-797
-794
-791
-791
-790
-790
-790
-790
-790
-794
-794
-794
-794
-796
-799
-802
-802
-804
-807
-806
-808
-809
-811
-812
-817
-817
-816
-814
-813
-812
-815
-818
-817
-817
-821
-821
-818
-815
-814
-817
-821
-818
-817
-817
-814
-814
-815
-814
-814
-815
-814
-812
-812
-812
-812
-814
-814
-814
-815
-815
-815
-815
-815
-814
-814
-809
-807
-812
-820
-822
-820
-818
-820
-823
-823
-822
-820
-820
-818
-820
-820
-820
-818
-817
-820
-819
-816
-817
-814
-814
-816
-817
-814
-816
-814
-818
-818
-817
-816
-817
-818
-818
-818
-818
-817
-816
-816
-817
-814
-814
-816
-817
-817
-816
-814
-814
-811
-807
-805
-802
-800
-797
-796
-796
-799
-800
-800
-799
-796
-793
-793
-791
-791
-793
-796
-798
-799
-802
-807
-811
-814
-818
-820
-821
-825
-824
-821
-820
-823
-825
-826
-825
-825
-824
-825
-826
-829
-831
-835
-831
-817
-804
-787
-764
-737
-712
-703
-715
-735
-754
-778
-793
-806
-817
-825
-829
-831
-831
-832
-831
-832
-835
-835
-835
-835
-836
-834
-833
-835
-833
-834
-836
-840
-842
-841
-838
-839
-839
-839
-840
-840
-838
-835
-835
-834
-834
-832
-829
-830
-829
-829
-829
-828
-827
-828
-828
-825
-822
-821
-821
-820
-816
-816
-816
-814
-814
-811
-808
-808
-805
-803
-802
-797
-797
-797
-797
-797
-796
-796
-798
-800
-800
-802
-804
-806
-806
-807
-809
-812
-815
-817
-817
-818
-821
-821
-821
-825
-826
-826
-827
-825
-827
-829
-831
-831
-830
-829
-829
-828
-828
-828
-828
-827
-827
-826
-825
-825
-825
-825
-825
-823
-821
-821
-823
-827
-828
-828
-828
-829
-828
-827
-826
-826
-828
-828
-829
-830
-828
-826
-827
-827
-828
-831
-831
-832
-831
-831
-832
-832
-834
-834
-833
-832
-833
-832
-833
-832
-832
-831
-833
-834
-835
-834
-833
-833
-834
-834
-832
-832
-832
-831
-831
-829
-831
-831
-833
-835
-836
-835
-834
-834
-834
-833
-829
-826
-824
-820
-819
-818
-816
-815
-814
-811
-811
-811
-812
-811
-807
-804
-804
-809
-812
-811
-811
-812
-814
-818
-824
-828
-831
-833
-837
-837
-836
-837
-838
-838
-839
-839
-840
-840
-840
-839
-840
-842
-844
-846
-849
-847
-839
-823
-806
-785
-759
-734
-717
-722
-739
-758
-776
-796
-810
-822
-832
-837
-838
-841
-846
-848
-849
-849
-850
-849
-850
-850
-850
-849
-849
-847
-846
-845
-843
-845
-847
-847
-848
-850
-851
-851
-851
-850
-847
-846
-846
-847
-847
-844
-844
-845
-844
-842
-843
-843
-841
-840
-839
-837
-835
-832
-830
-828
-825
-825
-821
-818
-817
-817
-815
-814
-811
-812
-812
-812
-809
-808
-808
-808
-809
-809
-809
-809
-808
-808
-811
-814
-814
-818
-825
-828
-832
-834
-834
-835
-838
-835
-835
-835
-838
-840
-846
-847
-846
-844
-841
-840
-841
-842
-843
-840
-839
-837
-837
-834
-833
-832
-831
-833
-833
-834
-838
-838
-838
-838
-839
-843
-844
-840
-840
-840
-840
-841
-843
-842
-840
-839
-838
-843
-843
-842
-841
-840
-843
-844
-845
-844
-843
-844
-844
-845
-845
-845
-846
-849
-848
-849
-846
-847
-845
-844
-845
-845
-844
-844
-844
-843
-844
-844
-845
-845
-846
-851
-849
-850
-850
-848
-849
-847
-846
-844
-839
-835
-832
-827
-823
-823
-828
-827
-823
-821
-823
-822
-818
-817
-815
-813
-814
-820
-828
-830
-832
-832
-832
-837
-846
-855
-855
-852
-852
-855
-856
-853
-850
-850
-853
-850
-846
-845
-846
-848
-851
-850
-854
-859
-865
-858
-846
-827
-802
-773
-740
-715
-715
-730
-750
-772
-799
-814
-825
-835
-840
-840
-841
-841
-845
-849
-849
-846
-840
-840
-844
-847
-845
-846
-852
-858
-858
-855
-853
-851
-853
-855
-851
-849
-846
-847
-847
-846
-844
-840
-844
-845
-840
-839
-835
-834
-834
-833
-831
-832
-831
-829
-831
-832
-826
-825
-824
-817
-812
-822
-827
-820
-816
-815
-813
-808
-802
-799
-802
-803
-805
-808
-805
-802
-804
-804
-803
-807
-812
-817
-818
-812
-811
-818
-825
-826
-825
-823
-825
-825
-823
-825
-827
-822
-821
-820
-818
-820
-822
-823
-827
-825
-823
-826
-828
-825
-826
-826
-825
-822
-821
-817
-821
-825
-825
-823
-831
-837
-835
-835
-834
-837
-836
-837
-834
-828
-825
-822
-823
-828
-828
-826
-822
-818
-817
-818
-818
-819
-821
-820
-820
-820
-820
-817
-817
-817
-820
-824
-825
-823
-823
-822
-822
-820
-820
-820
-818
-820
-822
-818
-814
-814
-814
-809
-811
-814
-814
-811
-807
-804
-805
-808
-808
-804
-804
-805
-805
-801
-797
-798
-798
-800
-799
-799
-800
-802
-803
-805
-812
-816
-822
-826
-828
-829
-829
-828
-829
-830
-831
-831
-832
-838
-835
-834
-837
-837
-843
-844
-844
-837
-822
-808
-797
-779
-746
-712
-694
-709
-733
-761
-789
-808
-814
-821
-829
-836
-841
-839
-843
-842
-843
-850
-850
-844
-845
-850
-855
-856
-855
-853
-855
-851
-849
-849
-851
-850
-847
-846
-846
-844
-846
-844
-844
-844
-840
-841
-843
-842
-840
-838
-841
-838
-833
-833
-835
-834
-837
-837
-837
-834
-834
-831
-828
-827
-827
-829
-828
-825
-821
-815
-811
-812
-815
-810
-803
-797
-797
-804
-804
-803
-804
-805
-808
-811
-810
-811
-814
-817
-820
-820
-818
-815
-815
-817
-820
-820
-819
-821
-821
-825
-825
-821
-820
-823
-826
-828
-828
-826
-821
-823
-828
-829
-829
-828
-821
-818
-818
-821
-823
-820
-817
-818
-822
-828
-829
-828
-825
-820
-819
-820
-821
-821
-818
-817
-818
-819
-820
-818
-817
-815
-813
-814
-814
-820
-820
-814
-812
-812
-818
-821
-820
-816
-815
-814
-818
-823
-822
-817
-818
-826
-825
-821
-827
-829
-826
-823
-823
-821
-820
-818
-822
-822
-822
-820
-814
-812
-811
-810
-811
-811
-808
-808
-809
-806
-806
-802
-802
-801
-798
-794
-793
-794
-796
-800
-799
-796
-800
-806
-808
-811
-814
-820
-823
-825
-826
-826
-825
-825
-828
-831
-827
-827
-829
-827
-831
-835
-833
-835
-839
-840
-837
-823
-804
-784
-759
-733
-710
-691
-702
-728
-754
-778
-796
-805
-809
-825
-831
-834
-841
-842
-843
-848
-847
-846
-850
-854
-852
-849
-847
-850
-856
-859
-859
-857
-854
-852
-850
-848
-850
-850
-851
-852
-856
-863
-865
-857
-850
-849
-849
-849
-847
-846
-841
-834
-832
-835
-837
-835
-832
-831
-834
-835
-829
-826
-825
-825
-818
-813
-814
-821
-815
-809
-806
-802
-800
-800
-800
-798
-802
-800
-796
-794
-793
-793
-796
-797
-799
-804
-807
-806
-804
-804
-806
-810
-812
-814
-814
-811
-811
-811
-811
-812
-814
-814
-814
-818
-820
-817
-818
-820
-816
-818
-823
-823
-821
-823
-826
-823
-823
-820
-821
-829
-828
-823
-826
-825
-818
-820
-825
-825
-827
-825
-825
-821
-818
-825
-828
-821
-820
-826
-831
-831
-830
-836
-838
-837
-832
-831
-831
-831
-834
-834
-837
-835
-833
-831
-831
-834
-830
-831
-831
-831
-832
-833
-831
-829
-829
-831
-829
-825
-823
-825
-828
-827
-828
-826
-828
-831
-828
-825
-823
-823
-825
-825
-824
-821
-820
-820
-817
-811
-806
-803
-804
-806
-805
-797
-792
-796
-800
-799
-797
-799
-799
-799
-802
-805
-802
-800
-806
-812
-814
-820
-823
-823
-822
-823
-825
-826
-827
-828
-831
-826
-825
-823
-823
-825
-826
-823
-825
-830
-828
-821
-806
-788
-767
-740
-712
-693
-689
-709
-739
-762
-782
-794
-804
-812
-820
-824
-824
-826
-831
-832
-840
-845
-844
-839
-838
-839
-840
-847
-847
-847
-847
-846
-846
-843
-842
-844
-847
-847
-843
-839
-835
-832
-838
-844
-846
-844
-843
-841
-840
-838
-834
-832
-834
-833
-831
-829
-827
-828
-829
-828
-826
-823
-823
-827
-825
-824
-820
-818
-815
-814
-811
-809
-805
-797
-799
-803
-804
-802
-799
-796
-797
-802
-804
-808
-815
-820
-818
-812
-812
-817
-823
-828
-832
-834
-831
-831
-831
-834
-835
-836
-835
-832
-831
-835
-839
-840
-837
-831
-829
-831
-834
-835
-841
-844
-844
-841
-841
-840
-841
-844
-846
-843
-844
-844
-841
-839
-840
-839
-839
-837
-835
-835
-835
-840
-840
-836
-835
-835
-840
-843
-844
-843
-843
-843
-846
-844
-841
-843
-841
-841
-842
-843
-844
-844
-846
-844
-846
-845
-844
-844
-841
-844
-846
-849
-846
-845
-843
-841
-843
-843
-845
-842
-840
-839
-841
-844
-844
-841
-840
-839
-835
-833
-837
-840
-841
-841
-843
-841
-840
-839
-839
-835
-831
-829
-828
-827
-823
-821
-820
-817
-818
-818
-818
-814
-810
-810
-812
-810
-809
-809
-810
-812
-818
-828
-835
-841
-843
-846
-846
-844
-842
-844
-844
-841
-839
-839
-838
-838
-839
-839
-839
-837
-837
-843
-849
-846
-834
-818
-802
-779
-751
-723
-703
-709
-731
-756
-779
-797
-812
-823
-828
-831
-833
-834
-840
-847
-849
-851
-850
-847
-847
-849
-847
-849
-849
-848
-850
-849
-851
-851
-850
-849
-848
-846
-846
-844
-843
-839
-835
-835
-840
-844
-847
-849
-849
-847
-846
-847
-850
-850
-847
-846
-846
-844
-838
-837
-837
-835
-831
-827
-827
-827
-825
-823
-823
-821
-818
-815
-811
-810
-806
-802
-804
-806
-810
-809
-806
-805
-807
-805
-809
-816
-822
-821
-816
-820
-828
-832
-830
-830
-832
-833
-835
-832
-831
-832
-836
-839
-840
-837
-837
-837
-837
-835
-835
-837
-838
-835
-837
-839
-840
-840
-835
-833
-834
-837
-838
-837
-837
-838
-839
-838
-837
-837
-834
-834
-833
-834
-835
-835
-833
-834
-835
-833
-832
-833
-834
-836
-837
-841
-844
-844
-841
-844
-845
-844
-841
-840
-841
-840
-841
-842
-845
-846
-843
-842
-847
-846
-844
-846
-847
-847
-847
-844
-840
-841
-845
-846
-845
-841
-838
-840
-843
-844
-844
-841
-840
-837
-837
-837
-835
-835
-837
-837
-835
-839
-841
-840
-840
-841
-839
-839
-838
-833
-829
-825
-818
-819
-822
-821
-817
-816
-816
-813
-812
-814
-811
-810
-811
-812
-817
-821
-828
-831
-831
-830
-834
-839
-840
-841
-844
-849
-852
-849
-844
-844
-846
-846
-845
-844
-843
-847
-849
-849
-849
-844
-831
-811
-787
-762
-737
-716
-712
-728
-752
-771
-794
-813
-822
-828
-833
-834
-838
-845
-847
-849
-856
-861
-856
-857
-856
-852
-852
-853
-855
-854
-855
-857
-860
-858
-852
-858
-857
-859
-858
-857
-858
-852
-853
-855
-856
-855
-851
-853
-853
-852
-853
-852
-845
-849
-853
-855
-852
-849
-849
-849
-849
-844
-837
-831
-831
-833
-833
-832
-834
-832
-828
-826
-823
-818
-816
-815
-817
-814
-812
-814
-815
-821
-823
-821
-821
-828
-824
-825
-831
-831
-832
-837
-843
-847
-845
-849
-850
-849
-850
-851
-844
-843
-851
-851
-847
-844
-845
-846
-849
-852
-849
-844
-847
-850
-850
-842
-842
-845
-845
-840
-837
-843
-848
-848
-843
-840
-841
-847
-849
-843
-844
-840
-843
-847
-843
-842
-841
-839
-839
-844
-847
-849
-843
-844
-847
-846
-847
-849
-852
-850
-845
-847
-844
-846
-846
-844
-841
-841
-843
-847
-849
-851
-847
-844
-841
-838
-844
-852
-850
-847
-847
-847
-843
-841
-844
-840
-835
-838
-842
-840
-836
-840
-841
-843
-841
-841
-840
-839
-837
-835
-837
-837
-834
-828
-823
-821
-820
-817
-821
-817
-806
-808
-816
-828
-831
-826
-825
-818
-813
-815
-818
-817
-814
-817
-823
-827
-833
-840
-842
-843
-847
-850
-852
-843
-840
-851
-849
-846
-847
-843
-837
-835
-849
-854
-856
-852
-845
-830
-814
-797
-769
-744
-720
-719
-743
-768
-778
-800
-823
-833
-835
-834
-838
-839
-841
-846
-847
-850
-851
-859
-864
-863
-864
-862
-859
-864
-871
-864
-861
-862
-860
-860
-863
-856
-847
-844
-841
-843
-852
-854
-852
-850
-855
-863
-870
-865
-862
-861
-862
-855
-850
-847
-846
-844
-836
-820
-822
-826
-841
-850
-845
-847
-853
-846
-840
-839
-838
-833
-831
-828
-819
-813
-810
-810
-810
-814
-815
-814
-814
-813
-817
-820
-823
-827
-828
-830
-833
-833
-831
-831
-834
-837
-835
-831
-836
-839
-838
-839
-846
-846
-845
-850
-848
-846
-844
-843
-843
-845
-843
-845
-844
-838
-838
-843
-841
-839
-837
-835
-835
-835
-831
-829
-828
-827
-828
-829
-829
-829
-829
-831
-829
-831
-831
-831
-832
-829
-830
-831
-831
-830
-833
-832
-829
-829
-828
-831
-829
-827
-827
-826
-825
-829
-829
-828
-827
-826
-825
-828
-829
-828
-827
-823
-823
-825
-825
-825
-825
-825
-821
-823
-821
-820
-823
-825
-824
-823
-823
-822
-820
-816
-814
-815
-815
-814
-814
-815
-811
-803
-799
-799
-799
-799
-796
-794
-794
-793
-792
-788
-787
-787
-783
-784
-784
-787
-790
-788
-790
-798
-800
-805
-808
-811
-810
-809
-814
-814
-814
-811
-810
-812
-812
-812
-811
-812
-812
-814
-814
-816
-812
-802
-785
-765
-743
-715
-691
-676
-685
-706
-728
-749
-767
-781
-794
-802
-805
-808
-809
-814
-816
-816
-820
-820
-822
-821
-818
-819
-821
-820
-817
-819
-818
-817
-816
-818
-822
-821
-823
-823
-820
-820
-818
-817
-815
-812
-814
-817
-816
-818
-817
-814
-814
-814
-811
-811
-810
-808
-806
-806
-806
-805
-802
-799
-797
-793
-790
-788
-788
-788
-788
-787
-783
-784
-785
-783
-781
-778
-778
-777
-778
-781
-781
-782
-783
-783
-784
-788
-791
-793
-794
-796
-797
-800
-804
-802
-802
-800
-802
-802
-804
-806
-806
-803
-801
-800
-800
-802
-804
-806
-809
-806
-806
-804
-800
-802
-802
-802
-804
-803
-802
-799
-799
-799
-800
-800
-802
-800
-800
-802
-803
-802
-797
-800
-802
-804
-807
-809
-808
-805
-804
-806
-806
-805
-802
-802
-802
-802
-802
-803
-806
-806
-806
-806
-805
-802
-804
-804
-803
-805
-805
-803
-804
-804
-804
-803
-804
-803
-805
-806
-802
-804
-803
-803
-802
-800
-800
-800
-799
-800
-804
-805
-802
-799
-801
-802
-800
-798
-797
-796
-795
-792
-788
-788
-788
-787
-784
-778
-779
-782
-783
-779
-778
-775
-773
-771
-774
-776
-778
-782
-787
-792
-794
-797
-804
-807
-811
-811
-810
-809
-805
-806
-808
-807
-806
-808
-808
-807
-808
-810
-811
-813
-809
-806
-799
-781
-757
-733
-705
-682
-676
-691
-715
-740
-762
-778
-788
-797
-803
-804
-805
-811
-815
-814
-820
-820
-822
-823
-823
-822
-822
-821
-823
-826
-827
-825
-825
-821
-823
-821
-823
-825
-826
-821
-822
-820
-818
-818
-820
-817
-817
-821
-821
-820
-815
-812
-814
-814
-814
-814
-810
-805
-805
-804
-802
-802
-800
-799
-800
-797
-794
-791
-787
-787
-786
-786
-785
-784
-783
-782
-784
-784
-785
-786
-786
-786
-786
-787
-791
-796
-797
-798
-798
-800
-802
-806
-807
-807
-807
-808
-812
-814
-814
-815
-815
-818
-818
-816
-814
-815
-815
-816
-816
-812
-814
-816
-820
-820
-820
-817
-817
-817
-816
-818
-818
-816
-815
-817
-817
-817
-820
-814
-812
-814
-815
-816
-816
-816
-818
-818
-817
-818
-820
-823
-821
-820
-821
-822
-821
-822
-821
-820
-818
-818
-821
-821
-823
-825
-826
-826
-826
-826
-826
-826
-825
-826
-825
-825
-825
-825
-825
-826
-823
-825
-825
-826
-828
-825
-823
-823
-823
-820
-817
-815
-812
-809
-811
-810
-808
-806
-806
-808
-809
-806
-806
-804
-800
-800
-803
-804
-804
-806
-812
-817
-822
-825
-826
-829
-833
-835
-834
-835
-837
-837
-839
-843
-842
-838
-840
-843
-846
-846
-846
-847
-847
-831
-812
-793
-768
-736
-709
-699
-712
-740
-770
-791
-803
-815
-830
-837
-838
-837
-839
-847
-852
-853
-851
-852
-852
-856
-861
-855
-855
-852
-847
-849
-851
-857
-863
-863
-857
-854
-850
-850
-853
-859
-862
-855
-850
-852
-854
-855
-855
-849
-846
-847
-847
-844
-849
-850
-845
-837
-837
-835
-837
-838
-831
-822
-825
-831
-826
-822
-823
-822
-815
-811
-815
-809
-811
-815
-809
-806
-807
-815
-819
-814
-809
-820
-824
-827
-829
-828
-828
-825
-825
-829
-827
-829
-828
-826
-837
-844
-846
-849
-847
-841
-845
-840
-837
-843
-846
-845
-840
-833
-836
-845
-849
-852
-849
-840
-840
-841
-846
-850
-848
-841
-840
-840
-838
-839
-844
-849
-853
-849
-851
-849
-844
-844
-840
-844
-846
-844
-841
-841
-851
-859
-859
-849
-847
-852
-852
-850
-844
-847
-849
-852
-855
-864
-864
-856
-847
-847
-846
-839
-848
-852
-850
-857
-858
-861
-865
-854
-853
-853
-857
-850
-847
-851
-856
-858
-852
-851
-855
-853
-852
-861
-862
-853
-853
-852
-851
-847
-847
-841
-837
-835
-841
-837
-837
-844
-841
-831
-829
-829
-829
-833
-841
-841
-840
-843
-841
-831
-844
-861
-863
-859
-867
-866
-866
-873
-868
-861
-855
-849
-858
-869
-863
-867
-875
-870
-863
-865
-865
-863
-850
-834
-814
-782
-753
-734
-732
-747
-773
-798
-814
-825
-844
-856
-865
-870
-871
-874
-871
-873
-870
-871
-877
-882
-885
-888
-886
-882
-884
-882
-879
-879
-884
-885
-885
-888
-884
-874
-888
-895
-889
-890
-890
-882
-884
-884
-878
-871
-878
-880
-884
-880
-875
-879
-874
-871
-870
-871
-868
-867
-873
-865
-865
-864
-862
-869
-868
-859
-856
-848
-841
-844
-845
-840
-843
-844
-841
-835
-834
-835
-844
-853
-850
-846
-844
-839
-850
-859
-855
-853
-859
-863
-861
-857
-864
-868
-868
-871
-880
-881
-886
-884
-877
-874
-875
-878
-876
-884
-891
-888
-887
-885
-879
-876
-874
-875
-875
-875
-875
-870
-864
-865
-865
-867
-873
-875
-882
-887
-885
-881
-879
-881
-879
-879
-875
-873
-868
-867
-868
-870
-868
-868
-873
-876
-876
-874
-873
-871
-870
-868
-867
-867
-864
-864
-865
-866
-865
-864
-866
-866
-867
-868
-865
-864
-863
-861
-859
-858
-855
-853
-854
-858
-859
-860
-863
-864
-861
-858
-853
-851
-851
-850
-846
-842
-839
-837
-835
-831
-831
-833
-835
-831
-825
-823
-826
-823
-816
-812
-810
-808
-805
-806
-809
-812
-812
-812
-815
-821
-825
-826
-827
-834
-836
-838
-841
-849
-850
-850
-846
-844
-841
-837
-835
-832
-831
-832
-834
-838
-834
-822
-809
-791
-764
-734
-703
-681
-686
-706
-734
-759
-783
-800
-811
-820
-823
-826
-828
-829
-831
-833
-833
-831
-832
-829
-836
-839
-836
-838
-837
-832
-834
-834
-831
-831
-830
-828
-829
-832
-835
-832
-831
-831
-829
-826
-828
-827
-826
-826
-827
-826
-821
-818
-815
-814
-812
-812
-814
-817
-820
-819
-818
-815
-814
-808
-804
-803
-796
-793
-793
-791
-788
-791
-790
-788
-788
-788
-787
-787
-787
-788
-787
-787
-786
-787
-794
-798
-803
-808
-814
-816
-814
-812
-814
-814
-817
-817
-814
-819
-825
-831
-835
-839
-839
-838
-835
-833
-830
-829
-829
-832
-829
-828
-825
-825
-826
-827
-826
-825
-825
-825
-822
-821
-822
-821
-821
-821
-821
-822
-822
-823
-826
-823
-821
-820
-820
-821
-826
-827
-826
-825
-823
-823
-821
-821
-820
-820
-821
-817
-815
-812
-810
-809
-808
-808
-807
-807
-809
-814
-818
-818
-814
-811
-811
-812
-814
-811
-810
-810
-810
-810
-809
-809
-806
-804
-800
-797
-797
-796
-792
-788
-786
-786
-787
-789
-788
-784
-778
-779
-782
-781
-779
-776
-779
-789
-794
-796
-800
-805
-809
-810
-811
-815
-817
-818
-820
-818
-817
-817
-817
-814
-814
-814
-814
-814
-815
-818
-821
-818
-811
-797
-778
-755
-729
-697
-670
-669
-689
-718
-747
-772
-786
-793
-800
-806
-811
-815
-815
-814
-817
-817
-817
-820
-821
-821
-818
-820
-823
-825
-823
-823
-825
-828
-832
-829
-828
-825
-825
-827
-829
-828
-825
-823
-825
-826
-825
-823
-823
-822
-818
-817
-818
-816
-815
-814
-810
-810
-809
-807
-805
-804
-803
-802
-800
-797
-791
-790
-790
-790
-787
-782
-778
-778
-776
-775
-775
-774
-774
-775
-778
-782
-787
-788
-790
-790
-792
-794
-796
-797
-799
-800
-801
-800
-803
-807
-807
-808
-809
-811
-811
-809
-808
-809
-811
-811
-811
-810
-810
-811
-811
-811
-814
-815
-814
-812
-810
-807
-805
-805
-805
-809
-811
-810
-809
-811
-811
-811
-809
-809
-809
-811
-813
-815
-814
-814
-812
-812
-812
-812
-812
-811
-812
-812
-813
-811
-810
-812
-814
-815
-814
-813
-814
-814
-812
-811
-811
-811
-814
-815
-817
-820
-819
-816
-818
-825
-828
-827
-821
-820
-818
-818
-818
-818
-817
-815
-816
-817
-817
-817
-816
-814
-814
-814
-811
-809
-806
-803
-802
-800
-799
-796
-794
-793
-794
-794
-793
-789
-788
-788
-790
-790
-791
-793
-794
-797
-799
-802
-809
-815
-819
-820
-823
-826
-827
-825
-826
-826
-827
-825
-825
-825
-826
-825
-826
-827
-829
-832
-827
-816
-797
-775
-747
-718
-690
-672
-677
-701
-731
-756
-776
-791
-802
-812
-820
-826
-829
-832
-834
-838
-840
-840
-839
-840
-844
-844
-843
-844
-843
-842
-841
-841
-840
-841
-840
-841
-845
-846
-843
-840
-841
-843
-844
-841
-840
-837
-838
-838
-838
-835
-835
-835
-834
-831
-831
-829
-828
-826
-825
-822
-821
-820
-817
-816
-817
-814
-811
-809
-807
-803
-802
-802
-802
-802
-799
-797
-797
-796
-797
-797
-799
-800
-801
-802
-803
-805
-808
-809
-810
-811
-810
-811
-814
-817
-817
-817
-817
-815
-818
-820
-823
-823
-823
-823
-821
-822
-821
-821
-822
-824
-825
-825
-823
-822
-822
-823
-825
-825
-824
-825
-825
-823
-823
-823
-825
-825
-825
-826
-826
-825
-823
-825
-825
-825
-824
-823
-824
-823
-821
-822
-824
-823
-823
-823
-823
-825
-825
-823
-821
-822
-823
-826
-826
-823
-823
-821
-822
-823
-823
-823
-823
-822
-822
-821
-823
-825
-827
-826
-825
-825
-825
-825
-823
-820
-821
-823
-824
-826
-828
-826
-825
-826
-826
-826
-825
-825
-825
-825
-824
-823
-823
-823
-825
-825
-823
-821
-820
-819
-817
-815
-809
-806
-806
-805
-804
-802
-803
-802
-801
-797
-797
-797
-797
-796
-797
-801
-802
-802
-804
-807
-813
-818
-823
-826
-829
-831
-829
-831
-832
-832
-831
-829
-829
-831
-830
-829
-830
-831
-832
-831
-834
-829
-816
-797
-774
-747
-718
-693
-681
-694
-720
-747
-770
-789
-802
-812
-821
-828
-832
-837
-838
-840
-840
-843
-844
-846
-846
-846
-847
-849
-849
-849
-848
-849
-849
-849
-850
-849
-849
-848
-848
-849
-849
-851
-851
-849
-849
-848
-850
-849
-847
-846
-845
-844
-843
-844
-842
-840
-840
-839
-837
-836
-835
-833
-831
-829
-828
-825
-821
-820
-818
-817
-815
-812
-810
-809
-808
-807
-807
-806
-806
-805
-805
-805
-806
-808
-811
-812
-813
-814
-817
-817
-818
-822
-823
-826
-827
-828
-829
-829
-830
-832
-832
-834
-837
-837
-837
-835
-835
-834
-834
-834
-834
-835
-837
-839
-840
-840
-839
-838
-838
-840
-839
-837
-837
-837
-838
-836
-837
-837
-837
-838
-840
-839
-839
-840
-838
-837
-839
-838
-838
-839
-839
-836
-838
-839
-838
-838
-839
-838
-838
-838
-837
-837
-838
-839
-838
-837
-836
-838
-839
-841
-840
-840
-840
-840
-841
-841
-840
-840
-840
-841
-841
-840
-839
-841
-842
-840
-840
-840
-841
-841
-841
-840
-839
-839
-840
-841
-844
-842
-840
-839
-838
-838
-838
-838
-838
-837
-837
-836
-836
-835
-836
-837
-838
-836
-835
-833
-832
-830
-828
-828
-826
-821
-821
-820
-818
-815
-815
-814
-814
-812
-810
-809
-811
-813
-811
-812
-814
-814
-814
-817
-825
-831
-835
-836
-837
-838
-841
-845
-844
-844
-843
-843
-843
-844
-843
-841
-842
-842
-843
-845
-850
-849
-844
-832
-814
-791
-762
-731
-703
-694
-708
-736
-762
-785
-802
-812
-822
-832
-839
-844
-846
-849
-851
-853
-855
-854
-855
-856
-856
-856
-855
-855
-856
-859
-859
-859
-858
-858
-859
-858
-859
-858
-859
-857
-855
-855
-855
-856
-857
-856
-853
-853
-852
-852
-851
-850
-847
-847
-846
-845
-843
-841
-840
-840
-838
-836
-834
-831
-828
-826
-825
-824
-821
-820
-820
-818
-815
-812
-810
-810
-809
-809
-809
-811
-811
-811
-811
-812
-814
-816
-818
-821
-825
-827
-828
-827
-827
-829
-831
-832
-832
-832
-831
-834
-838
-840
-839
-840
-841
-842
-843
-841
-840
-840
-841
-843
-842
-841
-843
-843
-842
-842
-843
-843
-843
-841
-841
-840
-841
-842
-842
-843
-843
-843
-843
-841
-843
-841
-842
-843
-843
-841
-841
-843
-843
-844
-844
-843
-841
-843
-843
-841
-843
-844
-845
-845
-845
-844
-844
-844
-843
-844
-846
-845
-845
-845
-845
-845
-844
-844
-845
-845
-845
-847
-845
-844
-844
-844
-846
-844
-844
-846
-846
-844
-843
-844
-844
-844
-845
-845
-845
-845
-844
-844
-845
-844
-843
-841
-840
-841
-843
-840
-840
-841
-840
-841
-839
-838
-838
-838
-838
-835
-833
-830
-828
-825
-823
-825
-822
-820
-817
-817
-818
-817
-814
-812
-811
-811
-811
-814
-816
-818
-817
-817
-821
-828
-832
-835
-838
-839
-840
-841
-843
-843
-841
-841
-841
-839
-837
-837
-839
-839
-839
-842
-846
-846
-839
-825
-806
-782
-753
-723
-698
-693
-711
-737
-762
-785
-800
-812
-822
-830
-835
-837
-842
-845
-846
-847
-851
-852
-852
-851
-851
-850
-852
-853
-855
-853
-854
-854
-854
-853
-853
-855
-855
-855
-856
-856
-855
-852
-850
-849
-850
-850
-850
-850
-849
-847
-847
-846
-845
-844
-843
-841
-839
-837
-837
-837
-836
-834
-832
-829
-826
-823
-821
-819
-817
-816
-816
-815
-816
-814
-812
-811
-810
-810
-809
-810
-813
-815
-816
-817
-819
-820
-821
-825
-827
-829
-831
-832
-834
-834
-835
-834
-834
-834
-838
-839
-840
-840
-839
-839
-839
-840
-841
-841
-840
-840
-840
-840
-840
-839
-840
-840
-840
-839
-839
-838
-838
-837
-838
-840
-841
-841
-840
-839
-839
-839
-838
-839
-841
-841
-842
-841
-841
-842
-843
-842
-841
-841
-841
-841
-843
-843
-844
-844
-844
-843
-842
-843
-843
-844
-844
-845
-845
-845
-847
-847
-846
-845
-846
-846
-846
-846
-845
-845
-846
-846
-846
-844
-843
-843
-844
-844
-845
-846
-844
-841
-842
-843
-843
-843
-842
-841
-841
-842
-841
-841
-841
-841
-840
-840
-840
-841
-841
-841
-841
-840
-840
-840
-838
-839
-836
-834
-832
-830
-829
-826
-823
-822
-820
-816
-814
-813
-815
-816
-814
-809
-808
-807
-806
-806
-809
-811
-815
-817
-817
-821
-825
-830
-834
-837
-838
-837
-838
-839
-837
-837
-838
-837
-837
-835
-834
-833
-834
-837
-839
-843
-842
-833
-817
-799
-774
-744
-715
-694
-698
-718
-744
-768
-788
-801
-812
-821
-831
-833
-836
-838
-839
-841
-843
-844
-847
-849
-849
-849
-848
-848
-847
-849
-851
-851
-850
-852
-852
-851
-849
-849
-848
-847
-846
-846
-846
-847
-846
-847
-846
-845
-844
-844
-844
-843
-843
-841
-842
-839
-837
-835
-833
-832
-832
-831
-828
-827
-825
-825
-821
-817
-816
-814
-812
-812
-812
-811
-809
-803
-802
-804
-806
-807
-808
-807
-807
-806
-807
-810
-812
-814
-816
-818
-820
-822
-821
-821
-823
-825
-828
-829
-827
-827
-828
-828
-829
-830
-829
-831
-832
-832
-829
-828
-829
-832
-831
-829
-828
-827
-827
-827
-828
-827
-826
-826
-828
-825
-826
-825
-826
-826
-826
-825
-826
-826
-826
-826
-826
-827
-826
-827
-827
-825
-826
-829
-831
-828
-828
-828
-828
-829
-831
-832
-830
-829
-831
-831
-831
-830
-829
-828
-829
-830
-829
-831
-830
-829
-828
-829
-831
-830
-830
-829
-828
-828
-827
-826
-826
-828
-829
-831
-829
-828
-826
-826
-826
-829
-828
-829
-832
-832
-829
-826
-826
-826
-826
-829
-827
-826
-826
-825
-824
-824
-823
-821
-823
-823
-821
-819
-817
-813
-811
-808
-805
-805
-805
-803
-803
-803
-802
-800
-797
-795
-794
-794
-794
-797
-797
-801
-802
-805
-809
-815
-820
-820
-823
-826
-827
-826
-826
-826
-826
-827
-826
-826
-826
-825
-823
-823
-828
-832
-836
-834
-823
-806
-787
-763
-734
-706
-687
-691
-711
-734
-758
-781
-796
-807
-815
-821
-823
-825
-829
-833
-834
-835
-837
-838
-838
-837
-837
-839
-840
-841
-840
-839
-840
-840
-840
-838
-837
-838
-839
-840
-840
-840
-838
-838
-838
-837
-835
-835
-834
-834
-831
-830
-828
-829
-829
-831
-827
-825
-823
-823
-820
-820
-817
-814
-811
-809
-811
-808
-807
-804
-802
-801
-800
-800
-799
-798
-797
-797
-796
-794
-795
-796
-796
-797
-800
-803
-803
-804
-805
-806
-807
-807
-810
-812
-815
-814
-814
-814
-814
-817
-818
-818
-818
-820
-820
-818
-817
-818
-821
-823
-823
-821
-820
-820
-818
-818
-818
-818
-817
-817
-816
-815
-814
-817
-817
-817
-817
-816
-816
-816
-819
-818
-818
-817
-821
-821
-821
-818
-818
-817
-818
-821
-821
-822
-821
-820
-820
-820
-820
-820
-820
-823
-823
-822
-821
-821
-822
-822
-823
-821
-823
-823
-822
-821
-820
-820
-821
-821
-821
-821
-821
-820
-820
-820
-823
-825
-823
-821
-822
-822
-823
-823
-823
-824
-823
-823
-823
-821
-823
-822
-821
-821
-821
-820
-821
-821
-821
-820
-820
-818
-816
-815
-814
-812
-811
-810
-807
-804
-802
-802
-798
-797
-797
-799
-797
-792
-791
-792
-792
-791
-792
-794
-797
-799
-800
-802
-807
-815
-818
-818
-820
-821
-822
-823
-822
-825
-826
-826
-825
-823
-822
-822
-823
-823
-828
-832
-833
-826
-812
-794
-771
-743
-712
-688
-685
-704
-729
-752
-773
-790
-800
-810
-814
-821
-825
-828
-831
-833
-835
-835
-837
-837
-838
-837
-838
-836
-835
-837
-837
-836
-837
-837
-839
-840
-840
-838
-838
-839
-839
-837
-837
-834
-834
-834
-834
-833
-834
-832
-831
-829
-827
-827
-829
-828
-826
-825
-823
-823
-822
-820
-817
-815
-814
-811
-807
-805
-804
-802
-802
-802
-802
-802
-799
-797
-796
-796
-795
-794
-796
-796
-797
-800
-800
-801
-802
-804
-807
-809
-812
-815
-817
-817
-816
-816
-819
-820
-820
-821
-822
-821
-822
-821
-822
-823
-823
-821
-822
-820
-821
-823
-821
-820
-820
-818
-818
-819
-817
-817
-818
-819
-820
-821
-818
-818
-820
-820
-820
-819
-818
-820
-822
-823
-821
-822
-820
-820
-820
-820
-822
-822
-821
-821
-822
-822
-822
-821
-821
-822
-821
-821
-823
-823
-823
-821
-820
-820
-821
-821
-821
-821
-821
-821
-822
-822
-823
-823
-823
-821
-821
-821
-823
-823
-823
-821
-820
-819
-818
-820
-818
-818
-820
-820
-820
-822
-822
-822
-820
-820
-817
-816
-818
-818
-817
-816
-814
-811
-806
-805
-804
-803
-802
-798
-796
-797
-797
-796
-793
-790
-790
-787
-790
-790
-791
-794
-797
-802
-807
-812
-814
-817
-820
-822
-824
-825
-826
-826
-826
-826
-826
-826
-825
-825
-826
-827
-830
-835
-836
-832
-821
-806
-786
-758
-727
-696
-685
-700
-724
-751
-776
-797
-809
-817
-823
-825
-825
-828
-831
-835
-836
-837
-838
-838
-840
-840
-839
-839
-840
-842
-843
-842
-841
-841
-840
-840
-840
-840
-840
-842
-841
-839
-837
-837
-837
-837
-835
-833
-835
-837
-834
-833
-832
-831
-829
-828
-828
-828
-827
-825
-823
-821
-817
-814
-814
-812
-810
-808
-808
-805
-804
-803
-802
-801
-800
-799
-799
-797
-797
-797
-797
-797
-800
-802
-805
-809
-811
-815
-814
-812
-814
-817
-818
-821
-823
-825
-825
-825
-827
-829
-828
-828
-828
-828
-827
-828
-828
-829
-830
-828
-828
-828
-828
-827
-827
-826
-825
-826
-826
-827
-828
-827
-827
-823
-823
-825
-827
-827
-826
-827
-826
-824
-825
-824
-827
-830
-829
-829
-829
-829
-828
-829
-831
-831
-829
-829
-831
-833
-833
-832
-831
-831
-832
-832
-833
-834
-833
-833
-832
-831
-832
-832
-830
-831
-833
-834
-835
-833
-833
-832
-831
-832
-832
-830
-830
-831
-833
-830
-831
-831
-831
-832
-831
-828
-830
-832
-831
-829
-829
-829
-829
-829
-827
-825
-825
-823
-821
-818
-815
-814
-812
-811
-808
-808
-810
-812
-808
-804
-804
-804
-803
-802
-805
-807
-807
-809
-814
-818
-825
-829
-832
-834
-835
-836
-837
-837
-838
-839
-836
-837
-835
-835
-835
-837
-838
-839
-844
-845
-839
-830
-815
-796
-770
-738
-710
-694
-702
-723
-751
-776
-794
-807
-817
-825
-832
-834
-835
-840
-843
-845
-847
-849
-851
-852
-853
-853
-853
-853
-855
-855
-855
-855
-855
-854
-854
-853
-855
-855
-857
-855
-853
-856
-856
-855
-853
-851
-850
-851
-851
-852
-850
-847
-847
-846
-846
-844
-844
-844
-843
-841
-839
-837
-835
-833
-832
-829
-828
-826
-826
-825
-822
-821
-821
-820
-819
-816
-815
-814
-815
-815
-816
-818
-820
-821
-822
-825
-826
-828
-831
-834
-834
-833
-836
-837
-839
-840
-840
-844
-844
-846
-844
-844
-844
-844
-845
-846
-846
-846
-845
-844
-844
-846
-846
-844
-844
-844
-844
-846
-846
-844
-842
-841
-842
-843
-844
-844
-844
-842
-841
-844
-844
-845
-846
-846
-846
-844
-843
-843
-843
-844
-845
-847
-847
-844
-844
-844
-843
-843
-844
-847
-847
-847
-847
-846
-844
-846
-846
-846
-845
-844
-845
-845
-844
-843
-844
-844
-846
-845
-844
-844
-842
-843
-843
-843
-843
-843
-843
-843
-844
-843
-842
-841
-840
-840
-840
-837
-837
-837
-837
-838
-837
-835
-833
-828
-825
-823
-821
-822
-821
-818
-814
-815
-817
-815
-814
-811
-812
-812
-809
-810
-811
-812
-814
-818
-821
-826
-831
-833
-836
-839
-838
-840
-841
-842
-842
-841
-841
-840
-839
-840
-840
-840
-841
-845
-850
-850
-844
-830
-810
-787
-758
-730
-706
-699
-715
-738
-761
-782
-799
-812
-822
-831
-837
-838
-840
-843
-844
-847
-849
-852
-852
-851
-850
-850
-854
-855
-854
-853
-854
-854
-855
-856
-855
-854
-852
-852
-852
-853
-853
-853
-851
-849
-848
-847
-846
-845
-847
-849
-849
-847
-845
-844
-843
-842
-840
-838
-837
-835
-837
-834
-829
-826
-823
-823
-821
-820
-820
-818
-817
-814
-812
-811
-809
-808
-808
-807
-810
-810
-809
-809
-810
-813
-815
-816
-817
-820
-821
-821
-823
-825
-826
-828
-829
-832
-831
-834
-836
-836
-835
-835
-835
-835
-834
-835
-837
-837
-835
-836
-838
-836
-834
-834
-834
-834
-834
-834
-834
-834
-834
-833
-832
-832
-832
-831
-831
-832
-831
-831
-831
-830
-829
-829
-831
-832
-830
-830
-831
-831
-831
-832
-832
-833
-832
-832
-832
-832
-833
-833
-834
-833
-833
-833
-832
-832
-833
-834
-834
-834
-834
-835
-835
-835
-834
-833
-833
-834
-835
-835
-834
-834
-834
-833
-833
-832
-831
-834
-835
-835
-835
-835
-834
-831
-831
-831
-831
-831
-829
-829
-828
-827
-824
-821
-818
-817
-815
-814
-814
-811
-810
-811
-811
-808
-804
-803
-802
-801
-802
-804
-806
-808
-809
-815
-820
-825
-828
-831
-832
-834
-835
-837
-838
-840
-839
-839
-837
-837
-838
-838
-838
-836
-839
-843
-844
-838
-826
-810
-788
-759
-729
-702
-688
-698
-725
-752
-775
-793
-805
-815
-821
-828
-831
-832
-837
-839
-842
-843
-842
-842
-843
-844
-845
-845
-845
-846
-845
-844
-846
-845
-845
-844
-846
-846
-846
-844
-843
-844
-845
-846
-845
-844
-843
-844
-841
-841
-841
-840
-839
-836
-835
-835
-835
-834
-833
-832
-831
-831
-829
-828
-825
-823
-821
-820
-818
-814
-814
-811
-810
-810
-810
-810
-810
-808
-805
-805
-806
-807
-809
-811
-812
-814
-816
-818
-819
-821
-823
-825
-828
-828
-830
-832
-833
-834
-835
-837
-837
-836
-838
-839
-839
-841
-843
-841
-841
-841
-843
-844
-843
-841
-841
-841
-840
-842
-841
-843
-844
-844
-844
-844
-844
-844
-845
-844
-844
-844
-844
-844
-845
-844
-845
-845
-845
-844
-844
-847
-847
-847
-846
-846
-849
-847
-847
-849
-849
-850
-851
-850
-850
-849
-849
-849
-850
-850
-851
-850
-852
-850
-851
-851
-852
-852
-851
-850
-850
-849
-848
-849
-849
-847
-847
-846
-846
-844
-842
-838
-837
-835
-833
-830
-827
-825
-827
-828
-828
-825
-823
-823
-823
-820
-818
-820
-823
-826
-827
-829
-837
-844
-847
-849
-850
-850
-852
-856
-855
-855
-856
-857
-856
-855
-855
-853
-852
-853
-858
-860
-865
-862
-852
-837
-820
-797
-767
-734
-711
-715
-736
-762
-787
-810
-827
-839
-846
-849
-851
-851
-850
-852
-854
-855
-857
-858
-859
-861
-861
-863
-863
-862
-860
-859
-859
-861
-860
-860
-862
-861
-859
-857
-857
-859
-858
-856
-855
-854
-857
-858
-855
-853
-851
-851
-850
-849
-849
-847
-846
-846
-844
-841
-840
-838
-835
-833
-831
-828
-826
-823
-822
-822
-818
-815
-812
-811
-811
-810
-807
-805
-804
-808
-809
-808
-810
-811
-809
-812
-814
-816
-816
-818
-820
-823
-825
-827
-828
-829
-832
-834
-835
-834
-835
-834
-834
-835
-835
-835
-836
-836
-837
-837
-837
-835
-835
-832
-833
-834
-834
-832
-833
-831
-829
-830
-829
-829
-828
-829
-829
-831
-828
-829
-829
-829
-829
-829
-828
-828
-828
-828
-828
-830
-831
-832
-835
-835
-833
-832
-831
-832
-832
-831
-831
-831
-829
-829
-831
-831
-832
-831
-831
-833
-832
-832
-833
-834
-834
-832
-832
-833
-835
-835
-835
-834
-833
-832
-831
-831
-833
-833
-829
-826
-823
-822
-821
-820
-816
-812
-813
-812
-811
-809
-807
-807
-806
-801
-799
-800
-800
-799
-801
-802
-805
-806
-807
-812
-820
-826
-829
-832
-834
-835
-835
-837
-835
-837
-836
-835
-835
-835
-837
-836
-834
-837
-840
-843
-842
-835
-820
-800
-773
-744
-712
-690
-691
-715
-746
-773
-794
-809
-815
-822
-828
-834
-843
-847
-852
-851
-852
-850
-851
-850
-849
-847
-848
-851
-852
-853
-852
-851
-847
-847
-849
-849
-849
-850
-852
-853
-855
-853
-850
-847
-849
-850
-846
-846
-846
-845
-843
-844
-844
-844
-846
-841
-834
-831
-829
-829
-826
-824
-823
-817
-816
-817
-817
-812
-807
-808
-812
-809
-812
-817
-803
-800
-806
-804
-806
-812
-814
-809
-806
-812
-810
-804
-814
-829
-825
-821
-818
-818
-820
-820
-818
-820
-823
-822
-821
-817
-817
-817
-817
-814
-814
-811
-809
-807
-805
-804
-805
-806
-805
-807
-805
-803
-805
-804
-798
-795
-797
-800
-802
-802
-804
-805
-806
-806
-802
-799
-803
-809
-806
-803
-804
-800
-801
-802
-804
-803
-797
-793
-790
-791
-791
-792
-793
-793
-794
-794
-793
-791
-791
-794
-794
-793
-791
-792
-797
-796
-791
-788
-793
-797
-792
-788
-788
-790
-792
-792
-790
-790
-788
-789
-790
-789
-786
-782
-783
-785
-782
-784
-785
-784
-781
-778
-781
-775
-772
-771
-767
-765
-768
-770
-765
-761
-761
-759
-754
-758
-763
-763
-765
-766
-767
-764
-767
-769
-774
-784
-792
-790
-797
-798
-796
-799
-800
-797
-797
-796
-799
-800
-798
-796
-794
-798
-802
-797
-802
-803
-792
-776
-761
-737
-706
-685
-667
-670
-694
-720
-744
-763
-774
-781
-787
-795
-800
-803
-807
-811
-814
-820
-818
-811
-814
-817
-816
-820
-825
-821
-820
-821
-822
-826
-827
-825
-822
-822
-823
-815
-815
-820
-820
-820
-821
-822
-820
-818
-817
-813
-817
-821
-821
-820
-818
-818
-815
-810
-809
-806
-804
-801
-803
-802
-794
-797
-802
-797
-791
-787
-782
-782
-796
-797
-790
-785
-785
-786
-786
-788
-792
-791
-788
-790
-798
-800
-797
-799
-800
-800
-802
-809
-817
-817
-817
-820
-818
-817
-815
-818
-817
-820
-818
-815
-818
-820
-826
-826
-820
-814
-816
-821
-820
-817
-815
-817
-821
-825
-820
-816
-818
-826
-825
-820
-822
-827
-829
-827
-827
-826
-826
-829
-826
-823
-831
-829
-825
-827
-829
-825
-822
-825
-826
-828
-828
-827
-827
-833
-841
-834
-831
-833
-831
-829
-830
-830
-827
-825
-831
-834
-835
-832
-827
-828
-824
-826
-830
-829
-827
-834
-839
-833
-829
-831
-828
-828
-833
-834
-829
-826
-826
-831
-834
-836
-833
-828
-826
-825
-825
-822
-818
-812
-809
-808
-805
-804
-808
-809
-812
-811
-808
-810
-810
-803
-797
-800
-804
-803
-805
-809
-809
-809
-811
-809
-814
-821
-826
-825
-825
-829
-834
-837
-836
-833
-833
-834
-830
-826
-823
-825
-826
-828
-829
-832
-831
-820
-802
-779
-752
-728
-706
-694
-706
-731
-752
-775
-790
-799
-809
-821
-826
-826
-832
-840
-847
-842
-842
-844
-841
-840
-838
-840
-841
-841
-843
-845
-847
-846
-843
-838
-839
-839
-839
-840
-841
-844
-847
-842
-844
-850
-845
-841
-840
-842
-845
-838
-835
-832
-832
-835
-835
-833
-831
-831
-829
-827
-831
-830
-831
-829
-823
-816
-815
-814
-815
-814
-810
-808
-808
-806
-806
-804
-805
-809
-809
-806
-805
-804
-806
-812
-814
-814
-817
-819
-820
-823
-822
-821
-823
-821
-821
-826
-830
-832
-835
-834
-835
-835
-836
-831
-831
-831
-833
-833
-832
-830
-831
-831
-829
-831
-834
-834
-836
-838
-838
-831
-831
-835
-835
-832
-833
-837
-838
-838
-837
-833
-839
-844
-841
-839
-837
-839
-835
-832
-834
-837
-839
-841
-839
-839
-841
-839
-837
-840
-844
-844
-843
-839
-837
-837
-838
-840
-840
-841
-838
-839
-843
-849
-849
-846
-844
-844
-844
-841
-840
-842
-844
-846
-844
-842
-841
-845
-844
-841
-840
-841
-841
-842
-845
-846
-843
-841
-844
-846
-844
-843
-840
-839
-843
-841
-838
-832
-830
-825
-827
-828
-823
-820
-817
-821
-824
-820
-818
-820
-818
-815
-821
-826
-823
-820
-823
-825
-829
-833
-836
-846
-846
-845
-845
-846
-847
-849
-849
-850
-851
-851
-846
-845
-847
-846
-847
-850
-852
-843
-828
-808
-787
-765
-741
-721
-708
-720
-749
-773
-794
-811
-821
-827
-833
-840
-846
-848
-850
-851
-855
-858
-858
-855
-854
-856
-858
-859
-859
-860
-863
-862
-862
-863
-862
-861
-862
-861
-858
-859
-860
-860
-858
-858
-858
-857
-858
-857
-856
-856
-855
-853
-852
-854
-855
-855
-851
-849
-849
-850
-849
-845
-842
-839
-839
-840
-840
-837
-835
-832
-831
-828
-829
-829
-828
-823
-822
-825
-825
-823
-823
-826
-825
-825
-826
-828
-828
-830
-831
-833
-835
-835
-835
-838
-837
-838
-843
-844
-843
-841
-841
-840
-840
-841
-842
-843
-842
-841
-840
-839
-838
-843
-840
-836
-837
-838
-841
-841
-838
-841
-842
-838
-837
-835
-840
-841
-838
-837
-838
-837
-837
-839
-838
-835
-835
-840
-840
-839
-839
-840
-841
-840
-840
-840
-843
-847
-845
-844
-845
-845
-844
-844
-841
-841
-843
-841
-841
-841
-841
-840
-839
-839
-840
-840
-840
-841
-842
-842
-840
-838
-839
-840
-839
-841
-841
-842
-840
-839
-843
-842
-841
-841
-843
-841
-841
-842
-840
-837
-839
-836
-838
-835
-835
-837
-835
-834
-831
-826
-826
-828
-828
-826
-821
-822
-823
-825
-814
-808
-808
-808
-809
-809
-811
-815
-816
-820
-825
-829
-829
-832
-841
-844
-842
-841
-843
-844
-839
-843
-845
-849
-847
-843
-841
-841
-839
-840
-843
-846
-843
-835
-825
-811
-788
-760
-729
-706
-704
-723
-753
-781
-800
-812
-820
-823
-828
-834
-834
-838
-840
-842
-844
-843
-843
-845
-846
-846
-843
-843
-843
-846
-846
-844
-844
-846
-846
-844
-841
-843
-847
-850
-849
-847
-845
-844
-845
-844
-847
-847
-844
-843
-844
-841
-838
-839
-838
-834
-836
-833
-833
-832
-826
-821
-826
-827
-828
-825
-819
-815
-820
-821
-816
-811
-809
-811
-809
-806
-804
-803
-806
-806
-811
-814
-814
-815
-820
-822
-821
-822
-821
-820
-820
-820
-823
-826
-823
-818
-820
-822
-821
-820
-821
-821
-817
-818
-817
-822
-826
-826
-821
-820
-820
-820
-817
-820
-826
-825
-825
-823
-825
-818
-817
-815
-817
-816
-818
-818
-817
-817
-818
-821
-821
-817
-818
-817
-818
-821
-821
-820
-814
-814
-817
-817
-813
-818
-823
-825
-824
-826
-826
-826
-829
-829
-829
-829
-825
-820
-816
-814
-818
-817
-818
-820
-819
-820
-817
-816
-818
-820
-821
-821
-820
-817
-817
-821
-818
-817
-821
-821
-820
-818
-815
-814
-816
-812
-807
-806
-803
-799
-795
-797
-798
-797
-796
-799
-799
-796
-790
-788
-793
-793
-794
-800
-804
-806
-808
-815
-814
-815
-820
-823
-823
-821
-825
-824
-821
-823
-823
-822
-821
-821
-820
-822
-826
-828
-829
-826
-826
-814
-798
-776
-751
-726
-701
-687
-697
-723
-751
-774
-788
-796
-805
-812
-815
-817
-820
-824
-824
-829
-835
-838
-841
-841
-840
-839
-840
-840
-840
-844
-841
-842
-847
-846
-842
-840
-838
-843
-842
-837
-833
-832
-833
-832
-834
-837
-836
-840
-846
-849
-847
-842
-837
-836
-835
-837
-834
-829
-827
-827
-827
-821
-820
-817
-814
-813
-812
-814
-811
-809
-809
-806
-805
-806
-808
-806
-805
-803
-802
-804
-809
-811
-810
-811
-811
-809
-808
-809
-814
-817
-817
-815
-813
-815
-814
-814
-816
-820
-820
-822
-818
-820
-823
-825
-823
-821
-823
-823
-825
-826
-825
-823
-820
-820
-818
-817
-817
-818
-817
-817
-817
-816
-818
-822
-825
-820
-818
-817
-820
-824
-825
-827
-827
-825
-822
-823
-823
-826
-825
-826
-826
-823
-825
-825
-827
-829
-827
-825
-823
-823
-821
-825
-830
-829
-832
-834
-833
-832
-833
-830
-824
-821
-826
-825
-827
-825
-825
-827
-828
-830
-829
-828
-826
-825
-827
-827
-826
-826
-827
-828
-828
-826
-826
-825
-821
-820
-816
-814
-813
-810
-809
-809
-806
-802
-799
-801
-806
-808
-804
-800
-797
-797
-797
-800
-803
-805
-805
-805
-810
-816
-822
-823
-826
-826
-825
-826
-832
-840
-841
-839
-839
-838
-835
-832
-834
-835
-835
-837
-834
-825
-805
-784
-758
-734
-715
-697
-689
-703
-729
-756
-782
-802
-814
-825
-829
-834
-834
-834
-839
-844
-847
-847
-846
-850
-851
-856
-858
-859
-857
-853
-847
-850
-858
-856
-852
-856
-858
-856
-853
-856
-852
-852
-855
-850
-846
-846
-844
-841
-840
-840
-843
-847
-844
-844
-841
-839
-835
-832
-834
-839
-837
-834
-835
-831
-828
-828
-831
-829
-828
-826
-822
-821
-820
-820
-825
-826
-825
-822
-818
-816
-819
-823
-827
-826
-825
-823
-821
-823
-826
-827
-834
-837
-837
-837
-840
-845
-843
-844
-844
-843
-843
-841
-841
-841
-837
-835
-835
-834
-834
-840
-844
-842
-835
-832
-830
-831
-835
-837
-836
-838
-840
-837
-837
-838
-837
-835
-837
-839
-841
-840
-839
-840
-841
-842
-843
-841
-841
-841
-841
-842
-841
-841
-841
-841
-840
-840
-840
-843
-844
-842
-843
-845
-846
-846
-844
-845
-846
-847
-849
-847
-845
-844
-845
-847
-847
-847
-847
-847
-848
-849
-847
-847
-845
-843
-844
-845
-847
-848
-847
-846
-845
-844
-844
-841
-840
-839
-834
-832
-832
-832
-832
-831
-832
-832
-830
-828
-827
-823
-822
-821
-818
-818
-821
-825
-827
-827
-831
-833
-838
-844
-846
-849
-850
-852
-851
-850
-851
-850
-849
-849
-849
-847
-846
-849
-850
-851
-854
-858
-855
-845
-831
-810
-785
-758
-732
-715
-723
-745
-770
-796
-816
-823
-832
-840
-845
-847
-850
-854
-857
-859
-861
-862
-862
-861
-862
-864
-865
-865
-862
-861
-861
-861
-860
-860
-864
-861
-860
-861
-861
-861
-859
-861
-862
-861
-859
-858
-858
-858
-858
-856
-855
-856
-856
-855
-855
-852
-851
-851
-848
-846
-845
-844
-840
-837
-835
-835
-835
-835
-833
-831
-830
-828
-828
-828
-826
-825
-825
-825
-826
-826
-826
-826
-826
-827
-828
-831
-831
-832
-834
-834
-835
-837
-838
-838
-840
-841
-843
-843
-841
-841
-841
-842
-841
-841
-841
-840
-838
-837
-835
-835
-834
-835
-835
-835
-837
-836
-833
-834
-834
-835
-836
-836
-838
-840
-841
-843
-841
-840
-839
-839
-839
-837
-836
-839
-840
-839
-838
-840
-843
-841
-841
-840
-838
-839
-841
-841
-840
-840
-839
-839
-841
-841
-840
-839
-840
-840
-840
-840
-839
-840
-841
-841
-841
-844
-844
-843
-843
-843
-844
-842
-840
-838
-836
-838
-838
-839
-838
-836
-837
-834
-834
-831
-828
-823
-821
-823
-825
-823
-821
-818
-817
-814
-814
-814
-814
-814
-814
-816
-814
-815
-818
-823
-828
-833
-836
-840
-840
-841
-846
-848
-850
-849
-847
-846
-846
-846
-847
-847
-846
-844
-846
-852
-852
-848
-838
-820
-802
-776
-744
-716
-699
-705
-732
-759
-786
-803
-815
-825
-832
-837
-840
-843
-844
-847
-850
-850
-854
-855
-855
-853
-853
-853
-854
-854
-856
-856
-856
-855
-853
-853
-853
-854
-855
-855
-855
-853
-851
-851
-850
-851
-852
-852
-852
-852
-851
-849
-847
-846
-845
-844
-843
-841
-839
-839
-836
-836
-835
-832
-832
-829
-828
-827
-826
-825
-823
-823
-821
-820
-818
-818
-818
-819
-817
-817
-817
-818
-818
-817
-818
-819
-820
-820
-823
-826
-830
-831
-831
-831
-833
-832
-834
-835
-833
-833
-834
-835
-835
-834
-833
-833
-832
-832
-833
-833
-832
-831
-831
-831
-829
-831
-832
-832
-830
-829
-829
-829
-828
-829
-831
-829
-829
-829
-831
-831
-833
-833
-833
-832
-831
-832
-833
-832
-833
-832
-832
-832
-831
-832
-832
-834
-834
-834
-833
-833
-833
-832
-832
-831
-832
-831
-831
-829
-829
-830
-831
-832
-831
-830
-831
-831
-832
-832
-831
-826
-826
-829
-828
-828
-826
-825
-823
-821
-821
-820
-817
-814
-814
-811
-810
-810
-809
-811
-810
-805
-804
-805
-805
-804
-806
-806
-809
-809
-809
-815
-821
-823
-827
-828
-829
-832
-833
-834
-833
-831
-831
-831
-831
-832
-831
-831
-833
-835
-838
-840
-837
-826
-808
-786
-758
-728
-700
-694
-712
-741
-765
-787
-802
-814
-823
-827
-827
-827
-829
-834
-836
-840
-841
-841
-842
-844
-844
-844
-846
-847
-849
-849
-849
-846
-846
-847
-847
-847
-847
-846
-844
-844
-843
-842
-842
-841
-839
-838
-838
-839
-840
-837
-834
-833
-832
-833
-832
-832
-829
-827
-826
-826
-825
-822
-820
-818
-818
-817
-814
-811
-812
-811
-810
-810
-810
-807
-805
-805
-806
-806
-804
-804
-803
-805
-808
-809
-812
-814
-815
-816
-817
-820
-820
-819
-823
-825
-825
-828
-827
-828
-828
-828
-827
-825
-827
-828
-827
-825
-825
-826
-828
-827
-825
-825
-825
-825
-827
-827
-827
-827
-822
-820
-831
-832
-829
-823
-821
-823
-825
-828
-823
-825
-826
-817
-820
-816
-817
-822
-824
-821
-820
-819
-817
-818
-820
-818
-818
-815
-820
-824
-823
-826
-823
-822
-822
-815
-814
-817
-817
-814
-818
-818
-818
-819
-816
-815
-815
-814
-816
-815
-814
-815
-814
-812
-812
-814
-814
-810
-810
-808
-808
-804
-801
-799
-797
-800
-804
-802
-796
-794
-798
-804
-807
-809
-807
-806
-804
-804
-806
-810
-814
-817
-821
-821
-821
-821
-825
-828
-829
-826
-823
-828
-833
-831
-832
-830
-830
-826
-828
-837
-840
-833
-821
-803
-781
-750
-720
-697
-699
-720
-740
-762
-783
-798
-809
-817
-821
-825
-828
-829
-833
-834
-835
-837
-839
-839
-840
-839
-840
-841
-840
-841
-840
-839
-838
-840
-840
-840
-841
-842
-843
-841
-841
-844
-843
-841
-841
-840
-839
-840
-841
-841
-840
-840
-839
-837
-837
-837
-837
-836
-834
-832
-830
-829
-828
-826
-825
-825
-823
-821
-820
-817
-818
-818
-818
-819
-818
-817
-816
-814
-816
-815
-815
-814
-815
-817
-820
-820
-822
-825
-825
-825
-827
-829
-829
-830
-832
-837
-837
-835
-834
-835
-834
-835
-835
-835
-835
-833
-832
-831
-831
-830
-831
-831
-829
-829
-832
-831
-830
-829
-831
-833
-831
-828
-828
-827
-826
-828
-828
-829
-830
-831
-831
-832
-831
-831
-831
-831
-829
-828
-828
-828
-827
-828
-828
-825
-824
-827
-833
-835
-835
-837
-838
-840
-839
-837
-838
-836
-837
-834
-834
-833
-833
-832
-831
-831
-830
-830
-831
-831
-832
-833
-831
-829
-828
-825
-821
-822
-818
-814
-810
-810
-814
-814
-814
-815
-814
-814
-812
-811
-810
-809
-807
-808
-809
-810
-811
-814
-817
-820
-824
-829
-832
-835
-836
-838
-837
-836
-835
-835
-835
-834
-837
-835
-835
-837
-840
-840
-844
-846
-843
-833
-816
-796
-767
-737
-710
-706
-722
-743
-764
-788
-807
-817
-826
-829
-832
-835
-839
-842
-843
-841
-841
-844
-846
-845
-845
-846
-849
-852
-848
-846
-846
-847
-844
-841
-842
-846
-848
-847
-849
-852
-852
-853
-851
-849
-846
-844
-844
-841
-843
-840
-838
-837
-838
-837
-837
-837
-834
-832
-829
-829
-828
-826
-823
-823
-822
-817
-817
-817
-817
-816
-815
-812
-811
-810
-809
-806
-804
-804
-805
-809
-814
-817
-820
-820
-821
-820
-818
-820
-823
-826
-827
-826
-829
-834
-835
-835
-835
-835
-835
-837
-838
-836
-835
-834
-832
-830
-832
-833
-833
-834
-832
-831
-831
-830
-828
-829
-831
-832
-832
-829
-828
-827
-829
-829
-831
-830
-829
-831
-829
-830
-831
-831
-832
-830
-828
-828
-829
-829
-826
-826
-831
-832
-835
-834
-832
-835
-835
-835
-835
-839
-839
-840
-840
-837
-837
-838
-838
-837
-836
-834
-833
-834
-831
-831
-829
-827
-825
-822
-817
-814
-814
-820
-821
-819
-814
-816
-820
-820
-820
-814
-814
-814
-817
-815
-814
-811
-811
-814
-817
-821
-826
-829
-832
-835
-838
-838
-838
-839
-839
-839
-838
-837
-837
-840
-844
-844
-845
-844
-846
-850
-850
-846
-834
-818
-797
-773
-744
-718
-708
-720
-744
-767
-788
-805
-818
-828
-832
-836
-840
-844
-846
-846
-844
-844
-847
-850
-852
-853
-853
-853
-852
-852
-853
-854
-854
-856
-853
-852
-852
-853
-851
-850
-849
-851
-852
-850
-847
-846
-846
-845
-848
-850
-850
-847
-846
-846
-844
-842
-840
-839
-838
-837
-833
-831
-832
-831
-828
-826
-825
-822
-820
-820
-818
-814
-814
-813
-812
-812
-814
-813
-812
-812
-814
-814
-814
-814
-817
-818
-821
-821
-821
-823
-823
-825
-828
-829
-828
-829
-831
-831
-834
-835
-835
-834
-833
-832
-834
-837
-835
-833
-834
-832
-833
-832
-832
-830
-831
-831
-832
-832
-832
-832
-831
-831
-829
-831
-829
-828
-826
-828
-831
-831
-831
-829
-828
-826
-826
-828
-828
-829
-829
-828
-827
-828
-829
-829
-828
-830
-830
-831
-829
-828
-827
-825
-828
-829
-831
-829
-828
-828
-829
-829
-829
-827
-826
-827
-831
-829
-827
-826
-823
-821
-821
-821
-818
-814
-812
-809
-809
-812
-812
-809
-808
-808
-806
-802
-799
-797
-800
-799
-799
-800
-804
-806
-806
-808
-814
-820
-824
-826
-826
-826
-828
-830
-830
-828
-828
-829
-831
-831
-828
-829
-831
-831
-833
-837
-835
-826
-811
-792
-768
-740
-708
-684
-690
-709
-733
-762
-786
-803
-812
-820
-825
-826
-825
-826
-828
-829
-833
-835
-835
-834
-834
-834
-836
-835
-837
-835
-833
-833
-835
-839
-838
-835
-835
-835
-834
-833
-833
-832
-833
-832
-832
-832
-829
-826
-826
-825
-828
-831
-831
-827
-826
-824
-820
-818
-816
-814
-814
-812
-811
-810
-805
-802
-801
-798
-796
-794
-794
-791
-787
-787
-790
-793
-793
-791
-790
-791
-792
-793
-795
-796
-798
-802
-805
-805
-806
-808
-812
-815
-816
-817
-817
-817
-816
-814
-814
-817
-819
-821
-820
-820
-820
-819
-818
-817
-818
-817
-817
-817
-816
-817
-817
-817
-814
-814
-814
-815
-817
-817
-817
-816
-818
-817
-815
-812
-814
-816
-818
-819
-817
-815
-812
-812
-814
-814
-814
-815
-817
-818
-820
-820
-817
-814
-820
-821
-821
-821
-821
-818
-818
-817
-814
-815
-815
-815
-814
-811
-810
-810
-809
-806
-805
-806
-805
-802
-801
-800
-797
-797
-799
-797
-792
-790
-792
-790
-786
-788
-790
-791
-789
-792
-797
-802
-807
-812
-816
-817
-816
-816
-817
-818
-820
-821
-820
-820
-821
-821
-818
-818
-820
-823
-824
-823
-816
-803
-784
-760
-731
-702
-675
-670
-688
-717
-749
-773
-788
-799
-806
-810
-815
-817
-818
-823
-826
-826
-828
-828
-826
-829
-831
-832
-831
-831
-829
-830
-832
-833
-832
-830
-827
-827
-826
-825
-825
-825
-824
-823
-823
-825
-826
-827
-825
-823
-823
-823
-823
-823
-824
-825
-823
-820
-817
-817
-816
-814
-811
-810
-809
-807
-804
-800
-799
-797
-795
-790
-787
-787
-788
-788
-787
-785
-785
-785
-786
-787
-788
-790
-793
-792
-793
-796
-797
-799
-802
-805
-809
-810
-811
-812
-814
-814
-815
-815
-816
-817
-818
-820
-818
-818
-819
-820
-820
-820
-818
-819
-820
-818
-818
-817
-818
-820
-819
-818
-817
-816
-814
-814
-814
-813
-813
-814
-817
-818
-818
-816
-814
-815
-815
-815
-817
-817
-818
-819
-818
-816
-816
-817
-818
-817
-816
-818
-821
-820
-820
-821
-821
-821
-822
-822
-821
-823
-822
-820
-818
-819
-820
-820
-820
-819
-818
-818
-817
-820
-818
-818
-820
-817
-814
-814
-814
-812
-809
-806
-804
-800
-800
-801
-800
-797
-796
-799
-801
-799
-794
-793
-795
-797
-797
-796
-794
-796
-798
-799
-802
-807
-812
-817
-821
-823
-825
-824
-823
-824
-825
-824
-823
-821
-823
-825
-826
-826
-829
-832
-834
-831
-820
-806
-787
-763
-734
-704
-678
-671
-690
-718
-743
-763
-781
-796
-805
-815
-823
-828
-828
-831
-834
-835
-837
-839
-839
-841
-841
-842
-844
-843
-842
-844
-844
-843
-843
-844
-844
-843
-843
-841
-841
-842
-843
-841
-843
-841
-841
-841
-841
-840
-839
-838
-837
-837
-837
-835
-834
-833
-831
-830
-829
-826
-823
-821
-821
-819
-815
-815
-812
-808
-806
-806
-805
-803
-802
-800
-798
-799
-798
-797
-797
-797
-799
-800
-802
-805
-808
-812
-814
-815
-816
-818
-819
-821
-821
-823
-823
-825
-825
-824
-825
-828
-831
-832
-833
-834
-832
-830
-831
-832
-831
-832
-834
-834
-831
-831
-831
-830
-831
-833
-833
-833
-834
-837
-837
-835
-833
-831
-832
-833
-834
-834
-833
-832
-831
-831
-833
-834
-833
-833
-832
-831
-831
-833
-835
-834
-832
-831
-833
-837
-838
-837
-835
-835
-834
-833
-834
-834
-835
-835
-834
-835
-838
-838
-837
-837
-838
-837
-838
-838
-839
-838
-837
-837
-837
-836
-835
-835
-835
-833
-834
-833
-831
-831
-829
-827
-825
-823
-820
-820
-817
-817
-817
-817
-815
-812
-812
-812
-810
-810
-811
-809
-809
-809
-810
-812
-812
-814
-816
-820
-826
-830
-834
-834
-834
-834
-835
-837
-836
-835
-834
-835
-836
-837
-835
-833
-834
-835
-838
-837
-829
-814
-794
-771
-741
-711
-688
-682
-702
-729
-756
-778
-792
-803
-813
-823
-831
-833
-837
-839
-841
-842
-845
-844
-844
-844
-845
-845
-846
-844
-844
-846
-846
-845
-846
-848
-849
-849
-850
-849
-849
-849
-850
-849
-849
-845
-843
-841
-841
-841
-842
-840
-838
-837
-840
-840
-838
-837
-835
-833
-831
-829
-826
-820
-818
-817
-815
-814
-811
-808
-808
-811
-811
-807
-805
-802
-802
-803
-802
-802
-801
-802
-804
-803
-805
-804
-805
-808
-812
-815
-816
-817
-820
-821
-823
-825
-825
-825
-826
-827
-826
-826
-828
-828
-830
-832
-833
-830
-828
-828
-829
-829
-830
-832
-833
-834
-834
-834
-831
-832
-833
-833
-833
-832
-834
-832
-831
-833
-836
-838
-837
-837
-833
-832
-834
-836
-837
-835
-835
-834
-833
-833
-835
-837
-837
-837
-835
-835
-835
-836
-835
-837
-833
-829
-828
-830
-831
-833
-835
-832
-832
-837
-838
-838
-836
-835
-835
-835
-835
-834
-834
-835
-836
-835
-833
-835
-835
-834
-833
-832
-834
-836
-835
-833
-834
-835
-835
-835
-837
-834
-833
-831
-831
-830
-828
-827
-825
-818
-816
-814
-812
-810
-810
-810
-809
-808
-809
-810
-808
-806
-806
-809
-809
-808
-809
-809
-811
-815
-820
-825
-826
-826
-832
-833
-834
-836
-835
-834
-835
-834
-834
-833
-833
-831
-829
-830
-831
-832
-835
-835
-829
-815
-797
-775
-747
-719
-694
-686
-700
-727
-752
-773
-791
-802
-812
-821
-827
-830
-832
-834
-838
-839
-841
-844
-845
-841
-841
-841
-843
-844
-846
-847
-847
-845
-842
-843
-845
-846
-845
-844
-842
-841
-841
-841
-843
-843
-840
-840
-841
-841
-841
-840
-837
-835
-834
-831
-829
-830
-829
-829
-829
-828
-827
-826
-823
-819
-815
-814
-814
-811
-810
-808
-806
-803
-802
-801
-802
-800
-797
-796
-796
-799
-799
-801
-804
-806
-808
-808
-811
-812
-814
-814
-817
-820
-820
-822
-823
-823
-826
-827
-828
-829
-829
-828
-827
-828
-831
-830
-830
-831
-831
-830
-831
-833
-833
-835
-836
-835
-835
-835
-836
-835
-834
-832
-832
-834
-835
-834
-834
-834
-834
-834
-834
-833
-833
-835
-835
-834
-838
-842
-843
-841
-841
-842
-841
-841
-841
-839
-836
-835
-838
-842
-844
-845
-845
-842
-843
-844
-844
-843
-844
-845
-842
-837
-838
-840
-841
-841
-841
-840
-844
-846
-843
-843
-845
-846
-847
-845
-844
-846
-846
-846
-845
-846
-844
-844
-843
-842
-844
-844
-844
-841
-841
-844
-846
-846
-845
-844
-845
-844
-841
-839
-836
-834
-831
-831
-830
-827
-825
-824
-823
-824
-826
-823
-818
-817
-818
-814
-814
-814
-817
-820
-821
-825
-828
-829
-833
-837
-838
-839
-839
-839
-840
-841
-843
-841
-839
-840
-843
-844
-843
-841
-844
-844
-845
-846
-844
-837
-821
-802
-778
-750
-723
-706
-708
-729
-754
-778
-797
-811
-820
-826
-833
-836
-839
-842
-844
-847
-849
-846
-846
-849
-849
-847
-850
-851
-854
-852
-852
-852
-853
-853
-854
-856
-857
-856
-854
-851
-850
-849
-850
-851
-849
-847
-846
-845
-843
-841
-841
-842
-840
-839
-840
-837
-834
-833
-835
-837
-832
-830
-828
-825
-823
-820
-818
-817
-818
-817
-816
-812
-809
-805
-804
-803
-804
-802
-802
-804
-806
-805
-805
-806
-809
-811
-810
-811
-814
-816
-818
-820
-820
-821
-823
-823
-824
-826
-825
-825
-825
-825
-827
-826
-826
-826
-825
-827
-825
-823
-822
-822
-825
-825
-825
-823
-823
-826
-826
-825
-826
-826
-825
-825
-826
-826
-827
-827
-826
-826
-824
-824
-823
-820
-821
-821
-821
-821
-821
-823
-825
-826
-828
-829
-828
-828
-830
-832
-831
-830
-828
-827
-825
-826
-825
-825
-825
-828
-833
-832
-829
-828
-829
-828
-828
-826
-828
-829
-825
-826
-830
-832
-829
-829
-828
-827
-827
-828
-827
-828
-827
-826
-827
-829
-828
-828
-827
-825
-825
-825
-826
-827
-825
-823
-824
-825
-823
-822
-821
-820
-822
-821
-818
-814
-814
-812
-810
-808
-807
-805
-803
-801
-804
-806
-807
-804
-802
-802
-802
-802
-802
-805
-805
-807
-808
-811
-817
-822
-825
-827
-829
-830
-831
-830
-830
-829
-828
-827
-826
-826
-826
-826
-826
-828
-832
-835
-831
-821
-806
-790
-769
-744
-720
-698
-698
-718
-744
-764
-783
-796
-807
-815
-821
-825
-825
-829
-832
-832
-832
-833
-835
-839
-841
-844
-845
-844
-842
-844
-844
-845
-847
-845
-843
-844
-844
-844
-844
-844
-841
-839
-837
-835
-835
-834
-834
-835
-834
-833
-832
-830
-833
-835
-832
-829
-829
-831
-830
-825
-823
-821
-818
-817
-820
-818
-814
-811
-809
-806
-804
-803
-798
-794
-790
-791
-794
-796
-799
-800
-802
-802
-800
-803
-805
-807
-808
-808
-809
-811
-811
-811
-812
-815
-815
-814
-814
-815
-817
-820
-821
-820
-818
-818
-823
-826
-829
-827
-823
-823
-825
-825
-823
-824
-821
-820
-818
-817
-818
-820
-820
-819
-818
-820
-820
-820
-818
-818
-820
-818
-820
-818
-817
-820
-822
-823
-825
-825
-823
-821
-821
-821
-822
-825
-826
-826
-823
-821
-822
-825
-822
-820
-824
-832
-831
-829
-829
-829
-827
-828
-828
-827
-825
-822
-821
-820
-822
-822
-821
-821
-818
-820
-822
-824
-823
-822
-822
-821
-825
-825
-825
-826
-825
-821
-820
-820
-822
-823
-820
-821
-822
-819
-818
-820
-820
-820
-821
-821
-823
-821
-821
-820
-818
-815
-811
-809
-806
-804
-804
-803
-802
-800
-800
-802
-803
-801
-799
-800
-804
-803
-802
-803
-804
-804
-805
-810
-812
-814
-818
-823
-825
-825
-826
-826
-825
-828
-828
-827
-828
-825
-826
-826
-826
-827
-828
-834
-833
-829
-815
-800
-781
-756
-731
-706
-699
-714
-737
-758
-779
-794
-806
-815
-822
-827
-829
-831
-835
-837
-838
-839
-840
-839
-841
-841
-842
-844
-845
-844
-844
-843
-844
-844
-845
-844
-844
-843
-842
-843
-843
-843
-844
-844
-841
-840
-840
-841
-843
-841
-840
-839
-839
-838
-835
-832
-832
-833
-832
-831
-829
-826
-826
-825
-825
-823
-820
-817
-815
-812
-812
-812
-812
-810
-809
-807
-807
-808
-808
-807
-807
-811
-810
-812
-812
-814
-816
-818
-821
-822
-823
-826
-827
-830
-832
-831
-831
-831
-833
-834
-835
-835
-838
-838
-835
-836
-837
-837
-835
-835
-836
-836
-835
-834
-834
-833
-832
-833
-834
-833
-833
-835
-835
-832
-834
-835
-834
-835
-836
-835
-836
-837
-839
-839
-838
-838
-838
-835
-835
-835
-837
-839
-840
-840
-841
-842
-843
-842
-843
-844
-843
-841
-840
-842
-843
-841
-843
-844
-844
-841
-841
-841
-843
-844
-845
-844
-845
-844
-841
-844
-845
-844
-844
-844
-845
-846
-847
-846
-844
-844
-844
-844
-843
-841
-840
-841
-844
-844
-844
-844
-845
-843
-843
-841
-841
-841
-841
-840
-838
-837
-836
-836
-833
-831
-826
-821
-818
-818
-822
-823
-825
-826
-828
-828
-827
-824
-825
-826
-823
-821
-822
-823
-821
-822
-828
-832
-835
-837
-838
-840
-840
-841
-841
-840
-842
-844
-841
-839
-841
-841
-841
-841
-842
-846
-849
-849
-841
-828
-811
-791
-767
-741
-720
-720
-737
-759
-781
-803
-819
-829
-835
-843
-844
-847
-850
-855
-855
-854
-855
-857
-856
-854
-854
-855
-856
-857
-858
-859
-859
-859
-859
-859
-858
-859
-859
-859
-858
-858
-857
-857
-858
-858
-860
-858
-858
-857
-855
-853
-853
-853
-852
-850
-850
-849
-845
-843
-841
-840
-841
-838
-835
-831
-829
-831
-832
-830
-828
-827
-826
-825
-825
-826
-824
-822
-821
-819
-819
-818
-820
-821
-821
-822
-824
-825
-828
-832
-834
-835
-838
-837
-836
-838
-840
-843
-844
-845
-845
-844
-846
-845
-844
-847
-849
-846
-845
-846
-847
-846
-846
-846
-846
-844
-843
-841
-841
-840
-840
-841
-840
-840
-840
-842
-840
-840
-840
-840
-839
-839
-839
-841
-841
-840
-840
-840
-841
-841
-843
-844
-844
-841
-842
-844
-844
-845
-844
-844
-843
-843
-841
-841
-840
-841
-841
-841
-843
-843
-842
-841
-841
-843
-843
-841
-843
-841
-841
-841
-841
-840
-842
-844
-843
-843
-841
-843
-843
-843
-843
-843
-842
-840
-839
-837
-837
-836
-835
-837
-840
-841
-841
-841
-839
-838
-838
-838
-836
-833
-832
-830
-825
-822
-821
-820
-821
-821
-820
-818
-820
-820
-816
-812
-810
-812
-814
-817
-820
-821
-818
-819
-821
-825
-830
-834
-836
-839
-840
-839
-836
-836
-835
-836
-839
-840
-839
-837
-839
-841
-842
-843
-846
-847
-840
-827
-810
-791
-767
-741
-719
-710
-722
-743
-764
-786
-803
-814
-825
-832
-837
-838
-840
-844
-844
-844
-846
-850
-847
-844
-845
-845
-847
-849
-847
-849
-847
-849
-849
-848
-846
-846
-847
-849
-847
-846
-845
-846
-847
-844
-843
-843
-843
-841
-840
-841
-843
-841
-840
-840
-840
-837
-836
-837
-837
-834
-830
-826
-827
-828
-825
-822
-820
-822
-821
-820
-819
-818
-816
-814
-814
-814
-811
-810
-811
-811
-811
-813
-815
-815
-816
-818
-820
-821
-823
-826
-828
-829
-828
-828
-828
-829
-829
-831
-833
-834
-835
-838
-838
-837
-838
-839
-839
-839
-840
-840
-840
-839
-840
-839
-838
-838
-839
-838
-837
-835
-837
-835
-835
-837
-836
-834
-835
-837
-840
-839
-837
-836
-837
-838
-838
-838
-840
-841
-843
-841
-840
-841
-840
-841
-843
-843
-842
-841
-841
-841
-840
-840
-840
-841
-843
-843
-842
-844
-846
-847
-847
-846
-844
-844
-846
-847
-846
-845
-845
-845
-845
-844
-845
-846
-846
-846
-843
-841
-840
-840
-842
-846
-848
-844
-843
-841
-841
-840
-840
-840
-840
-840
-840
-838
-835
-833
-831
-829
-825
-824
-822
-820
-818
-820
-821
-824
-826
-820
-816
-815
-816
-814
-815
-817
-817
-820
-821
-821
-826
-832
-836
-840
-841
-841
-841
-843
-842
-840
-841
-840
-843
-846
-844
-842
-841
-841
-842
-845
-843
-832
-816
-797
-776
-750
-725
-711
-723
-744
-765
-785
-802
-814
-823
-829
-832
-831
-833
-839
-842
-842
-841
-843
-843
-844
-845
-844
-843
-844
-844
-845
-844
-844
-843
-843
-845
-844
-842
-843
-844
-844
-843
-842
-840
-839
-839
-840
-840
-836
-835
-835
-834
-832
-831
-831
-829
-828
-828
-830
-829
-828
-826
-823
-818
-817
-816
-814
-813
-812
-810
-807
-807
-805
-804
-805
-806
-805
-803
-802
-804
-805
-804
-806
-808
-810
-812
-812
-814
-815
-817
-818
-821
-821
-821
-821
-823
-825
-826
-826
-825
-826
-826
-825
-825
-827
-828
-826
-828
-825
-825
-825
-825
-825
-823
-825
-823
-823
-823
-821
-822
-825
-823
-821
-821
-822
-822
-824
-824
-823
-824
-823
-823
-825
-827
-828
-828
-828
-828
-829
-828
-829
-829
-829
-829
-827
-827
-826
-827
-830
-833
-837
-837
-844
-846
-845
-842
-838
-840
-841
-839
-837
-834
-833
-833
-832
-836
-839
-833
-833
-835
-837
-835
-834
-834
-838
-839
-835
-829
-828
-829
-833
-835
-826
-824
-829
-831
-823
-818
-816
-812
-814
-812
-810
-809
-806
-800
-794
-794
-787
-786
-786
-785
-784
-787
-787
-787
-786
-788
-793
-804
-811
-818
-830
-827
-817
-820
-823
-826
-826
-827
-829
-828
-826
-825
-824
-820
-824
-826
-826
-825
-818
-805
-786
-762
-735
-708
-692
-694
-712
-734
-756
-775
-791
-804
-811
-814
-815
-816
-818
-822
-824
-823
-823
-825
-823
-821
-823
-825
-825
-826
-826
-826
-826
-825
-828
-826
-823
-825
-825
-828
-829
-832
-830
-829
-834
-834
-834
-831
-827
-826
-830
-832
-831
-834
-835
-829
-824
-821
-823
-823
-820
-817
-815
-815
-810
-809
-810
-809
-806
-807
-801
-805
-810
-809
-804
-803
-803
-803
-802
-802
-804
-803
-799
-802
-809
-810
-809
-809
-815
-814
-814
-818
-818
-821
-826
-826
-825
-830
-835
-836
-828
-825
-832
-830
-829
-834
-835
-834
-828
-825
-826
-823
-823
-826
-827
-829
-834
-829
-827
-826
-827
-825
-825
-828
-828
-826
-821
-818
-822
-821
-823
-825
-823
-823
-824
-821
-821
-821
-822
-823
-823
-821
-821
-822
-823
-823
-822
-825
-826
-823
-822
-821
-817
-816
-822
-822
-816
-817
-820
-823
-826
-832
-830
-828
-826
-827
-827
-829
-832
-830
-826
-820
-820
-824
-826
-823
-821
-822
-825
-826
-826
-822
-817
-819
-818
-818
-818
-815
-810
-809
-806
-802
-801
-800
-800
-802
-800
-800
-803
-802
-798
-796
-799
-803
-806
-806
-811
-814
-817
-825
-832
-835
-833
-832
-835
-839
-841
-842
-842
-840
-836
-835
-837
-837
-843
-847
-844
-838
-831
-818
-801
-782
-758
-736
-717
-721
-735
-756
-775
-794
-806
-818
-829
-831
-835
-845
-845
-846
-849
-855
-858
-855
-854
-852
-850
-850
-850
-849
-847
-846
-846
-846
-845
-845
-844
-842
-841
-843
-845
-843
-841
-839
-841
-841
-842
-839
-838
-836
-837
-835
-833
-834
-834
-831
-832
-832
-832
-829
-828
-825
-821
-817
-813
-812
-814
-812
-811
-811
-811
-809
-808
-809
-809
-809
-810
-809
-805
-802
-802
-802
-799
-799
-801
-802
-802
-804
-808
-811
-814
-818
-823
-823
-822
-827
-827
-825
-823
-825
-825
-828
-828
-827
-827
-829
-829
-826
-825
-825
-829
-832
-833
-831
-828
-829
-829
-828
-829
-827
-825
-828
-822
-820
-822
-822
-821
-825
-828
-829
-828
-827
-826
-822
-820
-822
-824
-824
-821
-821
-818
-818
-817
-826
-831
-835
-832
-831
-831
-826
-828
-831
-839
-849
-849
-843
-835
-833
-834
-835
-835
-831
-829
-827
-826
-825
-827
-829
-831
-831
-828
-826
-826
-825
-822
-821
-825
-823
-820
-815
-814
-811
-810
-808
-804
-801
-802
-809
-810
-806
-806
-805
-805
-804
-805
-809
-812
-814
-816
-823
-832
-837
-840
-839
-839
-838
-837
-838
-840
-843
-837
-836
-839
-837
-837
-840
-840
-840
-839
-843
-840
-828
-813
-796
-770
-744
-721
-709
-721
-744
-765
-790
-806
-817
-822
-828
-832
-837
-838
-837
-839
-842
-842
-842
-844
-842
-841
-844
-844
-847
-852
-854
-850
-848
-847
-849
-849
-847
-846
-849
-847
-842
-842
-844
-844
-845
-844
-842
-840
-839
-839
-837
-837
-837
-834
-831
-826
-826
-832
-835
-832
-823
-815
-811
-811
-812
-817
-818
-815
-810
-805
-802
-800
-800
-797
-798
-795
-793
-791
-791
-793
-794
-796
-797
-797
-799
-802
-805
-803
-804
-808
-812
-815
-815
-814
-816
-820
-822
-822
-823
-823
-821
-821
-823
-823
-824
-825
-827
-826
-825
-825
-825
-825
-825
-827
-827
-827
-826
-826
-825
-822
-823
-825
-823
-823
-823
-825
-825
-826
-824
-820
-821
-825
-828
-828
-831
-831
-834
-835
-836
-835
-831
-830
-831
-831
-829
-828
-828
-828
-829
-831
-833
-833
-832
-831
-833
-832
-829
-827
-825
-826
-825
-825
-826
-828
-828
-826
-824
-825
-825
-822
-820
-817
-814
-814
-811
-810
-808
-806
-806
-807
-804
-801
-802
-806
-809
-807
-808
-813
-815
-814
-820
-821
-827
-834
-835
-838
-840
-841
-839
-838
-840
-840
-840
-839
-838
-837
-836
-837
-839
-844
-845
-840
-831
-818
-803
-781
-753
-728
-712
-721
-744
-770
-792
-808
-818
-825
-832
-838
-840
-843
-846
-845
-848
-850
-849
-846
-847
-849
-847
-846
-846
-844
-843
-844
-847
-850
-849
-847
-849
-850
-849
-849
-846
-846
-846
-844
-845
-846
-844
-844
-842
-840
-841
-841
-840
-838
-835
-832
-832
-830
-831
-829
-826
-825
-820
-817
-817
-817
-814
-812
-811
-810
-807
-807
-805
-803
-802
-802
-800
-800
-800
-800
-800
-801
-802
-804
-806
-810
-810
-810
-814
-815
-818
-820
-823
-825
-827
-826
-826
-827
-828
-829
-829
-828
-828
-829
-830
-831
-832
-833
-833
-832
-832
-829
-830
-828
-827
-828
-828
-829
-829
-829
-828
-826
-827
-828
-828
-828
-828
-827
-828
-827
-828
-828
-829
-828
-828
-828
-831
-832
-830
-829
-830
-829
-830
-831
-829
-829
-831
-835
-833
-834
-834
-835
-835
-832
-831
-831
-830
-830
-829
-829
-828
-825
-821
-818
-817
-817
-818
-817
-817
-814
-811
-812
-813
-812
-809
-812
-811
-809
-806
-805
-809
-814
-815
-817
-821
-824
-826
-833
-838
-838
-839
-843
-844
-846
-846
-844
-841
-840
-844
-848
-847
-844
-844
-849
-851
-849
-840
-828
-814
-791
-762
-730
-711
-717
-734
-754
-775
-798
-815
-828
-838
-839
-841
-841
-843
-844
-845
-847
-850
-852
-852
-855
-856
-856
-856
-856
-854
-852
-851
-852
-853
-852
-850
-851
-851
-851
-850
-850
-847
-847
-846
-846
-846
-846
-846
-846
-845
-843
-841
-841
-840
-837
-836
-835
-832
-829
-827
-829
-828
-827
-828
-829
-827
-825
-821
-821
-819
-815
-814
-812
-810
-809
-808
-810
-809
-807
-808
-812
-814
-816
-817
-820
-820
-820
-823
-825
-826
-827
-828
-829
-833
-834
-835
-835
-835
-832
-832
-831
-833
-832
-832
-835
-837
-835
-835
-836
-837
-835
-829
-826
-828
-833
-837
-835
-834
-834
-834
-831
-833
-837
-837
-838
-839
-837
-838
-839
-837
-836
-835
-834
-833
-833
-834
-835
-835
-834
-834
-835
-835
-835
-835
-835
-835
-836
-835
-834
-835
-835
-834
-833
-833
-830
-829
-833
-835
-834
-835
-833
-832
-831
-828
-826
-825
-822
-820
-818
-818
-815
-812
-810
-812
-813
-809
-808
-809
-809
-809
-811
-814
-814
-814
-817
-821
-825
-828
-833
-835
-836
-837
-840
-841
-841
-841
-841
-841
-842
-842
-843
-843
-844
-845
-847
-848
-844
-835
-817
-797
-772
-744
-720
-710
-720
-741
-762
-784
-802
-813
-821
-831
-836
-838
-840
-840
-843
-846
-847
-847
-846
-846
-846
-849
-851
-851
-850
-850
-849
-849
-849
-849
-849
-849
-847
-847
-846
-845
-844
-846
-845
-843
-843
-842
-840
-840
-840
-838
-837
-841
-840
-838
-837
-837
-836
-835
-834
-831
-829
-828
-827
-826
-823
-823
-820
-816
-814
-811
-811
-811
-810
-808
-805
-802
-800
-802
-803
-802
-802
-803
-805
-807
-811
-814
-814
-814
-816
-817
-819
-820
-822
-825
-826
-826
-825
-826
-826
-826
-826
-826
-826
-828
-831
-832
-831
-832
-832
-831
-830
-831
-832
-832
-830
-831
-829
-831
-829
-829
-828
-828
-827
-828
-829
-830
-830
-831
-829
-829
-829
-829
-829
-828
-828
-827
-827
-826
-827
-826
-828
-828
-828
-827
-828
-828
-828
-825
-826
-826
-826
-825
-825
-826
-827
-826
-825
-825
-825
-823
-821
-821
-820
-818
-817
-816
-814
-810
-806
-806
-805
-803
-802
-804
-805
-802
-799
-799
-797
-797
-796
-799
-800
-802
-804
-806
-809
-813
-816
-821
-825
-826
-826
-827
-826
-826
-829
-831
-829
-829
-828
-828
-825
-827
-829
-832
-834
-831
-822
-810
-791
-768
-741
-712
-693
-696
-714
-735
-757
-778
-793
-805
-814
-817
-821
-822
-825
-828
-832
-832
-832
-835
-836
-837
-835
-833
-833
-834
-832
-832
-835
-837
-839
-840
-840
-838
-838
-837
-836
-835
-835
-835
-835
-835
-835
-834
-831
-831
-831
-829
-828
-827
-827
-826
-826
-823
-820
-818
-817
-818
-815
-812
-809
-806
-805
-805
-807
-806
-804
-803
-800
-797
-797
-797
-795
-793
-793
-792
-793
-793
-795
-799
-802
-804
-804
-802
-805
-807
-808
-810
-814
-814
-814
-814
-815
-819
-820
-818
-817
-819
-821
-820
-823
-829
-830
-828
-828
-829
-828
-827
-826
-826
-825
-825
-825
-825
-827
-826
-826
-828
-825
-824
-823
-823
-825
-824
-825
-824
-825
-826
-827
-826
-825
-827
-826
-826
-825
-825
-826
-825
-825
-825
-825
-826
-826
-825
-826
-825
-824
-824
-825
-827
-827
-826
-827
-828
-825
-821
-821
-823
-823
-822
-821
-818
-814
-814
-815
-813
-812
-810
-810
-811
-812
-810
-805
-805
-805
-802
-802
-806
-808
-810
-810
-811
-815
-821
-826
-831
-834
-834
-835
-834
-835
-838
-841
-842
-842
-842
-844
-845
-846
-846
-849
-851
-847
-840
-826
-809
-787
-761
-733
-709
-703
-720
-744
-767
-787
-802
-812
-819
-826
-831
-837
-840
-841
-845
-845
-847
-847
-846
-846
-848
-847
-847
-846
-845
-846
-846
-846
-848
-847
-844
-844
-844
-844
-847
-849
-850
-849
-847
-846
-847
-847
-845
-845
-845
-844
-841
-840
-838
-837
-837
-837
-835
-835
-834
-833
-831
-829
-827
-827
-826
-823
-820
-816
-815
-814
-811
-809
-808
-807
-806
-804
-803
-802
-805
-806
-806
-806
-806
-808
-812
-816
-820
-821
-824
-825
-824
-824
-826
-830
-834
-834
-833
-832
-832
-832
-832
-832
-833
-833
-834
-835
-836
-838
-838
-839
-837
-835
-837
-837
-836
-837
-838
-837
-836
-838
-838
-838
-838
-837
-838
-837
-838
-837
-837
-837
-836
-835
-835
-834
-831
-833
-835
-835
-836
-838
-838
-837
-835
-832
-835
-839
-840
-838
-837
-835
-835
-835
-835
-834
-834
-834
-835
-834
-836
-835
-835
-835
-835
-833
-832
-830
-829
-829
-829
-827
-823
-820
-817
-815
-814
-814
-814
-814
-815
-812
-809
-809
-810
-809
-809
-810
-810
-811
-813
-814
-820
-826
-829
-832
-836
-838
-838
-839
-839
-840
-840
-841
-842
-841
-841
-840
-841
-841
-843
-846
-847
-844
-833
-815
-796
-772
-746
-721
-706
-714
-738
-762
-782
-800
-814
-824
-833
-839
-843
-843
-844
-846
-848
-849
-851
-851
-850
-852
-853
-854
-853
-851
-852
-853
-854
-853
-852
-850
-851
-852
-852
-852
-851
-852
-853
-853
-852
-851
-850
-851
-850
-849
-847
-847
-846
-844
-844
-844
-842
-840
-839
-837
-832
-832
-829
-828
-825
-822
-820
-820
-818
-817
-815
-815
-814
-811
-810
-810
-811
-808
-805
-804
-804
-806
-810
-815
-817
-815
-817
-820
-821
-821
-825
-828
-828
-830
-831
-833
-834
-834
-834
-835
-837
-838
-838
-837
-837
-837
-838
-839
-840
-839
-841
-841
-840
-840
-841
-841
-840
-839
-839
-839
-837
-837
-838
-837
-837
-835
-833
-834
-834
-834
-837
-836
-837
-837
-835
-835
-835
-834
-834
-835
-837
-838
-838
-835
-836
-835
-833
-833
-835
-835
-834
-832
-831
-832
-831
-832
-831
-832
-831
-831
-831
-831
-833
-833
-833
-832
-834
-833
-833
-833
-832
-831
-830
-830
-829
-825
-821
-821
-820
-817
-814
-814
-814
-812
-811
-812
-811
-809
-805
-802
-802
-803
-804
-805
-808
-807
-808
-809
-812
-817
-821
-825
-827
-828
-829
-830
-831
-833
-833
-834
-835
-833
-834
-834
-834
-831
-831
-834
-840
-843
-841
-837
-825
-809
-790
-763
-734
-708
-694
-706
-731
-755
-779
-799
-812
-821
-828
-828
-828
-831
-835
-836
-839
-840
-841
-841
-841
-841
-843
-844
-844
-845
-843
-841
-843
-841
-841
-841
-841
-842
-840
-839
-843
-844
-841
-840
-842
-840
-840
-841
-841
-843
-840
-837
-836
-833
-829
-829
-831
-831
-830
-829
-828
-825
-822
-818
-816
-814
-812
-810
-808
-808
-806
-802
-802
-799
-798
-797
-798
-799
-802
-799
-796
-796
-800
-803
-808
-814
-816
-818
-820
-826
-829
-828
-825
-823
-823
-826
-828
-826
-826
-827
-829
-831
-831
-832
-831
-831
-830
-831
-831
-829
-831
-829
-828
-828
-829
-829
-830
-831
-829
-827
-828
-827
-826
-826
-826
-826
-828
-825
-826
-826
-828
-825
-824
-825
-828
-832
-833
-835
-834
-832
-828
-831
-832
-829
-829
-829
-830
-829
-830
-830
-829
-828
-828
-829
-832
-829
-831
-831
-829
-828
-829
-831
-831
-829
-828
-827
-828
-828
-827
-823
-823
-825
-825
-822
-821
-817
-817
-815
-812
-810
-811
-808
-805
-804
-804
-803
-802
-799
-797
-797
-800
-802
-802
-803
-805
-806
-806
-812
-817
-823
-828
-831
-833
-835
-834
-834
-834
-833
-833
-835
-834
-832
-831
-832
-831
-832
-836
-839
-835
-826
-812
-793
-771
-744
-715
-693
-687
-703
-731
-758
-781
-796
-805
-812
-823
-828
-831
-835
-837
-839
-840
-841
-841
-843
-845
-844
-841
-839
-840
-844
-846
-844
-840
-841
-843
-844
-845
-847
-845
-844
-844
-844
-844
-842
-839
-839
-838
-837
-835
-835
-835
-837
-835
-833
-834
-832
-828
-826
-828
-829
-827
-823
-822
-822
-823
-821
-819
-817
-813
-809
-805
-805
-803
-799
-798
-798
-798
-799
-802
-800
-799
-798
-802
-802
-803
-806
-809
-809
-809
-811
-814
-813
-815
-815
-817
-817
-821
-826
-828
-830
-832
-833
-833
-832
-831
-831
-831
-832
-833
-833
-829
-825
-827
-832
-834
-834
-836
-833
-833
-833
-828
-831
-831
-829
-828
-826
-826
-825
-823
-824
-825
-825
-823
-821
-822
-825
-826
-826
-826
-825
-826
-826
-825
-827
-826
-826
-826
-825
-825
-825
-825
-825
-826
-826
-824
-825
-825
-824
-825
-826
-825
-825
-826
-827
-827
-826
-823
-827
-824
-823
-823
-823
-823
-821
-820
-820
-822
-823
-822
-822
-821
-821
-820
-817
-817
-816
-814
-814
-811
-807
-805
-804
-806
-805
-803
-802
-801
-800
-796
-793
-794
-796
-796
-797
-800
-800
-802
-802
-806
-812
-818
-821
-825
-828
-828
-827
-828
-829
-830
-829
-828
-826
-828
-830
-829
-828
-828
-830
-831
-826
-818
-802
-783
-758
-729
-705
-690
-692
-715
-743
-763
-781
-794
-803
-812
-821
-828
-832
-835
-835
-837
-837
-840
-839
-838
-838
-839
-839
-838
-839
-840
-844
-847
-846
-846
-844
-843
-843
-841
-841
-842
-840
-838
-837
-837
-837
-837
-835
-835
-837
-835
-835
-835
-835
-831
-829
-828
-829
-828
-828
-827
-825
-821
-820
-818
-816
-813
-813
-812
-811
-807
-805
-805
-805
-803
-801
-798
-797
-797
-797
-798
-799
-801
-802
-803
-806
-808
-810
-814
-814
-811
-814
-819
-820
-820
-822
-824
-824
-825
-825
-826
-828
-827
-829
-830
-832
-831
-831
-829
-829
-828
-829
-829
-828
-828
-828
-829
-830
-830
-827
-828
-829
-832
-831
-831
-830
-828
-828
-831
-831
-831
-829
-830
-830
-829
-830
-829
-829
-829
-829
-828
-826
-826
-829
-829
-830
-831
-829
-827
-827
-828
-829
-830
-831
-831
-829
-827
-828
-828
-829
-831
-834
-835
-833
-831
-832
-831
-829
-829
-831
-832
-831
-833
-831
-831
-829
-829
-832
-833
-832
-830
-829
-831
-831
-832
-832
-830
-829
-830
-832
-834
-832
-831
-831
-834
-832
-829
-827
-823
-822
-819
-820
-817
-815
-814
-814
-812
-810
-806
-807
-806
-806
-805
-808
-811
-813
-812
-814
-820
-828
-833
-840
-841
-837
-838
-841
-843
-840
-840
-839
-838
-838
-838
-839
-838
-839
-840
-845
-846
-840
-828
-810
-788
-765
-738
-713
-703
-715
-739
-763
-785
-802
-814
-823
-831
-837
-838
-840
-843
-846
-846
-847
-848
-849
-847
-849
-849
-849
-847
-846
-847
-847
-849
-852
-853
-854
-855
-854
-855
-855
-853
-851
-849
-849
-847
-849
-849
-849
-850
-849
-849
-845
-845
-847
-845
-845
-844
-840
-839
-838
-837
-834
-832
-831
-829
-828
-828
-823
-821
-820
-817
-815
-814
-812
-811
-811
-811
-809
-807
-806
-809
-809
-809
-812
-814
-814
-816
-814
-818
-820
-823
-823
-822
-825
-829
-829
-831
-830
-831
-833
-833
-834
-835
-838
-837
-836
-835
-835
-837
-837
-836
-835
-835
-833
-835
-838
-837
-835
-836
-836
-834
-835
-836
-835
-834
-834
-834
-835
-835
-835
-835
-835
-835
-834
-835
-836
-837
-835
-835
-835
-835
-834
-834
-835
-834
-834
-834
-833
-834
-834
-835
-833
-832
-832
-833
-835
-837
-837
-836
-835
-835
-834
-835
-835
-835
-837
-836
-833
-833
-837
-837
-837
-835
-835
-835
-836
-836
-835
-833
-833
-832
-832
-833
-835
-836
-837
-835
-834
-834
-835
-833
-832
-833
-832
-832
-832
-832
-829
-827
-825
-824
-823
-820
-817
-816
-814
-813
-810
-808
-811
-812
-809
-808
-806
-806
-808
-808
-810
-811
-810
-812
-817
-820
-821
-825
-828
-831
-831
-832
-834
-835
-835
-834
-832
-831
-831
-831
-834
-834
-833
-836
-840
-843
-841
-826
-808
-788
-764
-737
-714
-704
-715
-738
-764
-787
-802
-811
-816
-824
-829
-829
-831
-836
-840
-844
-846
-845
-845
-847
-851
-852
-850
-850
-853
-852
-850
-852
-852
-850
-849
-847
-847
-849
-849
-849
-849
-847
-846
-844
-844
-844
-844
-844
-844
-844
-844
-843
-844
-843
-842
-840
-837
-836
-834
-833
-831
-831
-828
-825
-825
-821
-819
-817
-817
-815
-814
-811
-810
-811
-809
-811
-812
-810
-808
-804
-803
-807
-812
-815
-814
-816
-818
-818
-820
-821
-825
-826
-827
-827
-828
-830
-828
-829
-832
-832
-832
-831
-833
-833
-831
-829
-828
-829
-834
-836
-837
-835
-833
-832
-831
-831
-830
-831
-832
-831
-830
-830
-831
-832
-832
-835
-837
-835
-834
-834
-833
-832
-832
-833
-834
-834
-832
-833
-834
-833
-834
-833
-834
-833
-833
-834
-835
-834
-835
-833
-835
-838
-837
-837
-837
-838
-837
-835
-835
-833
-834
-835
-836
-836
-837
-835
-835
-839
-837
-837
-838
-838
-837
-835
-833
-833
-832
-831
-831
-831
-832
-835
-835
-835
-833
-834
-837
-840
-838
-836
-835
-835
-834
-834
-832
-829
-829
-831
-831
-827
-825
-820
-814
-814
-814
-814
-815
-814
-814
-815
-814
-810
-807
-808
-808
-806
-807
-809
-810
-810
-813
-817
-822
-826
-828
-832
-834
-833
-832
-834
-835
-837
-837
-835
-834
-834
-832
-833
-833
-835
-838
-841
-842
-837
-825
-808
-787
-761
-734
-711
-705
-723
-747
-767
-787
-803
-814
-823
-831
-833
-834
-833
-835
-840
-845
-847
-846
-847
-846
-845
-846
-845
-844
-843
-844
-845
-844
-844
-845
-846
-846
-845
-846
-847
-846
-844
-842
-841
-841
-841
-841
-840
-839
-840
-842
-840
-839
-837
-836
-835
-834
-834
-833
-833
-829
-828
-827
-826
-823
-820
-818
-814
-814
-814
-812
-811
-812
-811
-806
-806
-808
-807
-805
-804
-805
-807
-810
-811
-812
-812
-815
-816
-819
-822
-825
-824
-825
-830
-834
-834
-834
-831
-831
-833
-834
-835
-835
-835
-835
-836
-836
-835
-838
-839
-839
-838
-836
-837
-838
-839
-836
-838
-840
-840
-839
-838
-837
-838
-837
-836
-839
-839
-839
-840
-839
-838
-837
-836
-836
-837
-837
-839
-843
-841
-840
-839
-840
-841
-840
-839
-841
-844
-843
-843
-844
-844
-844
-843
-843
-843
-844
-844
-843
-844
-843
-843
-840
-840
-842
-841
-844
-845
-844
-845
-846
-845
-844
-843
-844
-846
-847
-846
-845
-844
-844
-844
-844
-844
-844
-840
-842
-841
-841
-839
-839
-840
-841
-840
-839
-838
-835
-832
-829
-827
-824
-821
-818
-820
-822
-823
-821
-816
-814
-814
-812
-812
-815
-817
-821
-822
-825
-829
-833
-838
-840
-841
-844
-844
-844
-845
-844
-844
-844
-843
-843
-844
-844
-845
-845
-847
-849
-847
-840
-826
-808
-786
-761
-737
-719
-723
-744
-768
-791
-807
-817
-825
-830
-834
-839
-844
-846
-847
-850
-851
-852
-853
-852
-852
-854
-855
-855
-852
-850
-850
-852
-853
-853
-851
-850
-850
-852
-852
-852
-852
-851
-850
-850
-850
-848
-848
-846
-845
-844
-844
-842
-842
-842
-841
-840
-840
-840
-838
-834
-832
-832
-831
-829
-825
-823
-821
-820
-819
-817
-817
-814
-812
-811
-811
-810
-811
-811
-810
-810
-809
-811
-811
-812
-814
-816
-819
-821
-823
-823
-824
-826
-828
-829
-829
-830
-829
-832
-832
-832
-832
-832
-833
-834
-834
-834
-833
-832
-833
-835
-835
-833
-833
-832
-831
-833
-832
-832
-829
-829
-830
-830
-829
-831
-831
-832
-831
-832
-832
-832
-832
-834
-835
-835
-835
-835
-835
-835
-835
-835
-835
-834
-835
-835
-837
-837
-835
-834
-835
-835
-835
-835
-834
-831
-831
-833
-835
-837
-836
-837
-837
-835
-835
-833
-833
-832
-833
-832
-832
-831
-831
-830
-832
-833
-833
-831
-832
-831
-831
-832
-833
-832
-832
-832
-830
-830
-831
-829
-827
-825
-821
-821
-820
-816
-815
-815
-811
-808
-806
-806
-809
-808
-806
-803
-800
-798
-799
-800
-804
-805
-806
-809
-812
-818
-821
-821
-828
-834
-838
-841
-838
-834
-834
-836
-838
-835
-833
-831
-831
-831
-833
-839
-843
-844
-839
-826
-814
-794
-770
-743
-720
-711
-724
-744
-767
-788
-802
-812
-820
-825
-828
-830
-832
-833
-833
-832
-832
-834
-834
-834
-837
-837
-838
-839
-838
-837
-836
-836
-837
-837
-834
-836
-837
-835
-835
-835
-835
-834
-835
-834
-832
-832
-831
-830
-828
-828
-827
-828
-829
-829
-827
-826
-824
-823
-821
-820
-818
-815
-815
-812
-809
-809
-810
-808
-806
-804
-800
-800
-800
-798
-798
-797
-799
-799
-799
-796
-796
-799
-800
-802
-803
-802
-803
-804
-808
-811
-812
-815
-814
-814
-816
-815
-815
-817
-817
-816
-816
-818
-818
-816
-815
-817
-820
-818
-817
-814
-815
-818
-818
-817
-815
-817
-818
-816
-817
-818
-818
-818
-815
-817
-818
-817
-817
-818
-819
-820
-820
-819
-818
-815
-817
-820
-822
-821
-821
-825
-825
-822
-821
-821
-820
-820
-817
-818
-819
-822
-821
-823
-822
-822
-821
-821
-821
-822
-821
-821
-821
-821
-821
-821
-822
-820
-820
-818
-818
-819
-820
-820
-817
-819
-818
-817
-816
-815
-815
-812
-812
-809
-805
-804
-802
-799
-800
-799
-797
-798
-799
-799
-797
-798
-797
-794
-794
-797
-799
-802
-802
-805
-809
-814
-818
-823
-823
-825
-826
-828
-828
-829
-829
-828
-828
-826
-827
-826
-826
-825
-827
-832
-834
-829
-818
-803
-786
-764
-738
-712
-705
-717
-737
-757
-776
-793
-808
-814
-820
-823
-828
-832
-834
-834
-835
-837
-835
-838
-844
-844
-841
-839
-837
-834
-835
-839
-839
-838
-838
-840
-844
-842
-840
-839
-838
-838
-837
-837
-835
-835
-831
-828
-828
-828
-829
-830
-829
-825
-821
-821
-817
-814
-814
-812
-811
-809
-808
-807
-806
-805
-799
-797
-796
-796
-794
-794
-792
-789
-788
-786
-787
-785
-785
-786
-787
-787
-787
-790
-792
-791
-792
-791
-793
-793
-797
-799
-799
-798
-800
-803
-803
-804
-806
-809
-811
-812
-811
-810
-809
-810
-810
-810
-809
-808
-805
-804
-805
-805
-803
-806
-805
-803
-802
-803
-804
-804
-802
-804
-806
-809
-809
-810
-809
-808
-807
-809
-811
-812
-811
-812
-814
-814
-815
-814
-816
-817
-816
-815
-817
-814
-815
-814
-816
-817
-816
-815
-817
-814
-814
-818
-818
-816
-814
-812
-812
-812
-812
-813
-814
-814
-815
-817
-816
-814
-814
-812
-811
-809
-805
-802
-800
-798
-797
-796
-796
-796
-797
-797
-793
-791
-791
-790
-792
-794
-796
-800
-798
-800
-806
-812
-818
-824
-826
-826
-827
-827
-831
-833
-833
-832
-831
-830
-829
-830
-831
-834
-835
-838
-837
-829
-818
-801
-781
-758
-732
-709
-709
-724
-744
-762
-785
-804
-815
-822
-828
-831
-832
-835
-840
-840
-840
-843
-845
-842
-841
-841
-841
-841
-843
-844
-845
-845
-844
-843
-842
-840
-837
-839
-845
-846
-846
-845
-843
-841
-838
-837
-835
-833
-831
-829
-829
-831
-833
-834
-831
-831
-829
-827
-826
-826
-825
-822
-821
-817
-814
-812
-811
-810
-807
-805
-803
-800
-800
-799
-797
-797
-796
-796
-798
-798
-799
-800
-802
-804
-808
-809
-809
-811
-814
-815
-817
-818
-821
-823
-825
-825
-827
-829
-831
-832
-832
-832
-832
-832
-833
-833
-832
-831
-832
-831
-831
-831
-828
-827
-827
-827
-826
-828
-829
-828
-831
-829
-831
-833
-832
-833
-834
-831
-831
-835
-836
-838
-838
-839
-836
-836
-839
-838
-838
-837
-837
-837
-836
-834
-835
-835
-836
-834
-833
-832
-831
-832
-833
-831
-831
-832
-832
-834
-834
-834
-835
-835
-835
-832
-829
-829
-827
-827
-823
-820
-816
-814
-814
-812
-810
-808
-809
-811
-811
-807
-804
-804
-804
-804
-806
-807
-810
-813
-817
-822
-826
-831
-832
-833
-835
-838
-840
-844
-846
-845
-844
-844
-844
-846
-845
-844
-845
-849
-854
-855
-847
-835
-820
-802
-774
-746
-723
-720
-735
-755
-777
-800
-818
-829
-835
-838
-841
-844
-846
-849
-851
-852
-852
-851
-852
-853
-856
-856
-854
-853
-851
-849
-851
-852
-852
-853
-854
-854
-856
-855
-852
-851
-850
-849
-849
-851
-852
-852
-852
-852
-850
-849
-847
-845
-843
-843
-843
-843
-841
-840
-837
-837
-837
-835
-832
-831
-828
-825
-825
-824
-823
-822
-818
-818
-816
-814
-812
-812
-812
-811
-815
-818
-817
-817
-820
-823
-825
-826
-826
-828
-829
-831
-832
-833
-833
-832
-835
-835
-835
-836
-836
-836
-837
-839
-840
-838
-835
-834
-835
-835
-837
-837
-836
-835
-835
-835
-835
-833
-832
-833
-835
-835
-835
-835
-835
-835
-835
-834
-834
-834
-837
-835
-836
-836
-837
-837
-836
-836
-835
-836
-836
-836
-837
-837
-836
-837
-837
-840
-840
-839
-837
-838
-838
-838
-838
-837
-837
-837
-834
-835
-839
-841
-841
-843
-840
-834
-833
-833
-830
-831
-834
-830
-823
-817
-817
-817
-817
-816
-814
-815
-818
-817
-814
-814
-812
-811
-814
-816
-821
-826
-829
-833
-835
-839
-841
-844
-847
-848
-847
-846
-846
-846
-849
-849
-847
-847
-847
-846
-847
-847
-849
-852
-845
-831
-812
-793
-775
-753
-732
-721
-733
-758
-780
-802
-814
-828
-838
-849
-852
-853
-854
-855
-859
-860
-860
-861
-863
-864
-864
-865
-865
-864
-864
-868
-865
-863
-864
-863
-865
-865
-864
-861
-860
-859
-860
-858
-858
-857
-856
-856
-856
-857
-853
-853
-856
-855
-852
-849
-847
-849
-850
-849
-847
-844
-844
-843
-841
-837
-835
-832
-831
