-17
-16
-17
-16
-15
-15
-15
-16
-17
-16
-15
-16
-17
-16
-15
-15
-15
-15
-15
-15
-15
-14
-13
-14
-15
-14
-14
-16
-17
-16
-15
-15
-15
-14
-13
-12
-11
-10
-7
-4
-2
0
2
3
9
15
19
23
21
19
18
17
13
8
2
-3
-5
-8
-13
-17
-17
-17
-16
-15
-16
-15
-11
-7
-3
2
7
48
105
172
243
233
199
87
-42
-93
-133
-117
-94
-69
-43
-29
-15
-16
-17
-19
-21
-20
-19
-18
-17
-18
-19
-18
-17
-17
-17
-17
-17
-16
-15
-15
-14
-12
-11
-11
-11
-10
-8
-6
-5
-5
-4
-2
-1
0
1
1
2
4
6
5
10
11
13
15
17
19
21
23
25
27
30
33
36
39
41
43
45
48
51
53
53
53
54
55
56
56
54
52
50
46
41
36
31
25
20
14
8
3
-2
-5
-8
-14
-19
-19
-19
-20
-21
-23
-25
-24
-23
-23
-23
-23
-23
-22
-22
-25
-26
-23
-21
-20
-19
-20
-21
-20
-19
-19
-19
-20
-21
-21
-22
-24
-24
-22
-21
-22
-23
-23
-23
-23
-23
-23
-24
-25
-25
-25
-27
-29
-28
-27
-27
-27
-28
-29
-28
-27
-27
-27
-27
-27
-27
-27
-30
-30
-28
-27
-28
-29
-29
-28
-26
-25
-26
-27
-28
-29
-29
-29
-29
-28
-26
-25
-25
-28
-29
-27
-25
-26
-27
-27
-27
-27
-27
-28
-29
-27
-25
-25
-25
-26
-27
-25
-23
-23
-23
-24
-25
-25
-26
-28
-28
-26
-25
-25
-25
-26
-25
-22
-21
-21
-21
-22
-23
-23
-25
-27
-25
-23
-23
-23
-23
-23
-22
-21
-21
-21
-21
-21
-17
-15
-13
-10
-7
-4
-1
3
8
12
15
16
13
10
6
3
-1
-7
-13
-16
-18
-20
-22
-23
-24
-25
-24
-23
-21
-18
-15
-11
-4
28
65
131
195
245
250
116
-1
-78
-128
-124
-111
-86
-63
-42
-31
-28
-27
-26
-25
-26
-27
-28
-28
-26
-25
-26
-26
-24
-23
-23
-23
-24
-24
-22
-21
-21
-19
-17
-17
-17
-17
-17
-15
-13
-13
-13
-11
-9
-8
-7
-6
-5
-4
-3
-1
1
4
5
6
8
11
13
13
15
19
23
26
27
28
31
34
36
38
40
42
44
46
47
47
47
47
45
43
39
35
32
28
22
16
10
4
0
-5
-11
-15
-16
-18
-21
-24
-27
-29
-29
-29
-29
-29
-30
-31
-30
-29
-30
-31
-30
-29
-28
-28
-30
-30
-28
-27
-27
-28
-29
-28
-27
-29
-31
-29
-27
-28
-29
-30
-31
-30
-29
-30
-31
-31
-31
-31
-31
-34
-35
-34
-33
-33
-33
-34
-35
-35
-35
-35
-35
-35
-35
-35
-35
-35
-35
-35
-35
-35
-34
-35
-34
-33
-33
-33
-34
-35
-35
-35
-35
-35
-34
-33
-32
-31
-33
-35
-34
-33
-33
-33
-33
-33
-33
-33
-34
-35
-34
-33
-32
-31
-32
-33
-32
-31
-31
-31
-32
-33
-32
-33
-35
-34
-33
-31
-29
-30
-31
-30
-29
-29
-29
-29
-29
-30
-31
-30
-29
-29
-29
-29
-29
-29
-29
-28
-27
-27
-27
-27
-26
-24
-22
-20
-18
-16
-11
-6
-2
2
6
10
9
5
4
3
-2
-7
-16
-23
-24
-25
-27
-29
-29
-29
-27
-25
-26
-26
-23
-20
-16
0
29
76
140
203
267
221
108
14
-71
-108
-128
-116
-94
-72
-51
-40
-30
-29
-29
-29
-29
-31
-31
-30
-29
-28
-27
-27
-27
-27
-27
-27
-27
-26
-25
-23
-21
-21
-21
-20
-19
-19
-19
-19
-18
-15
-13
-14
-14
-12
-10
-8
-7
-7
-5
-2
-1
-1
0
2
5
8
10
11
14
17
19
21
24
27
30
33
34
35
36
37
41
43
42
41
43
45
43
39
34
30
28
25
21
16
9
4
-1
-6
-11
-13
-14
-17
-20
-23
-26
-26
-24
-23
-25
-26
-27
-26
-25
-26
-27
-25
-23
-23
-23
-23
-23
-22
-21
-22
-23
-23
-23
-23
-23
-24
-25
-24
-23
-24
-25
-24
-23
-23
-24
-26
-27
-26
-25
-25
-25
-26
-27
-27
-27
-27
-28
-27
-28
-29
-28
-27
-28
-29
-28
-27
-29
-31
-30
-29
-29
-29
-29
-29
-28
-27
-27
-27
-28
-29
-28
-27
-28
-29
-28
-27
-28
-29
-29
-28
-26
-25
-25
-25
-25
-25
-25
-27
-29
-27
-25
-25
-25
-25
-25
-24
-23
-22
-21
-23
-25
-24
-23
-24
-25
-23
-21
-21
-22
-24
-24
-21
-19
-19
-19
-19
-19
-19
-20
-22
-21
-18
-17
-18
-19
-19
-18
-16
-15
-15
-14
-13
-10
-7
-8
-9
-4
2
9
15
17
19
17
15
14
11
5
-1
-6
-11
-16
-19
-19
-19
-19
-19
-19
-17
-14
-11
-8
-5
-2
23
52
110
173
231
290
174
293
-33
-113
-115
-115
-91
-66
-45
-27
-23
-19
-22
-25
-23
-21
-20
-19
-19
-19
-18
-17
-17
-17
-17
-17
-16
-15
-16
-16
-14
-13
-12
-11
-11
-10
-8
-6
-4
-3
-3
-2
0
1
1
3
5
7
9
10
11
14
17
19
21
22
23
27
29
30
32
36
40
43
46
48
50
53
55
56
57
57
57
57
56
54
53
52
48
44
39
34
29
24
19
13
8
3
1
-1
-6
-11
-11
-11
-12
-13
-14
-15
-15
-15
-14
-13
-14
-15
-13
-11
-14
-14
-12
-11
-11
-11
-12
-12
-10
-9
-9
-9
-10
-11
-11
-11
-12
-13
-12
-11
-11
-14
-15
-14
-13
-13
-13
-14
-15
-15
-15
-16
-17
-17
-17
-18
-19
-18
-17
-17
-17
-17
-17
-17
-17
-17
-18
-20
-20
-18
-17
-17
-17
-18
-19
-18
-17
-17
-17
-17
-17
-16
-17
-19
-18
-17
-16
-15
-16
-17
-15
-13
-14
-15
-15
-15
-15
-15
-16
-17
-16
-15
-15
-15
-15
-15
-14
-13
-13
-13
-13
-13
-14
-15
-16
-16
-14
-13
-13
-13
-13
-13
-12
-11
-11
-11
-11
-11
-11
-13
-15
-13
-11
-11
-11
-11
-11
-10
-9
-10
-11
-10
-9
-8
-7
-4
-1
3
5
6
9
13
19
25
27
27
24
20
18
16
9
2
-1
-4
-7
-5
-13
-15
-12
-9
-10
-11
-9
-7
-3
1
3
18
66
119
181
230
257
217
84
-19
-89
-118
-108
-89
-62
-41
-23
-16
-14
-13
-13
-13
-14
-15
-14
-13
-13
-13
-13
-13
-12
-12
-13
-12
-11
-10
-9
-9
-9
-8
-7
-6
-5
-4
-3
-1
1
0
0
3
5
6
7
8
10
12
14
16
17
18
20
22
23
24
27
30
32
34
37
40
43
46
48
51
52
53
55
57
57
57
60
63
62
61
58
55
54
51
45
39
34
29
23
16
9
4
2
0
-3
-7
-11
-13
-13
-13
-14
-15
-16
-17
-17
-17
-18
-18
-16
-15
-15
-14
-13
-12
-11
-11
-11
-11
-11
-12
-13
-14
-15
-13
-11
-12
-13
-14
-15
-13
-11
-12
-14
-16
-17
-18
-19
-20
-20
-18
-17
-17
-18
-20
-21
-20
-19
-20
-21
-21
-21
-20
-21
-23
-22
-21
-21
-21
-21
-21
-21
-21
-21
-21
-21
-21
-20
-19
-21
-23
-21
-19
-20
-21
-21
-21
-20
-19
-19
-19
-19
-19
-19
-19
-20
-21
-20
-19
-19
-19
-19
-19
-19
-19
-19
-19
-19
-18
-17
-19
-21
-19
-17
-17
-17
-17
-17
-17
-17
-17
-17
-17
-17
-16
-15
-18
-18
-16
-15
-16
-17
-18
-19
-18
-17
-17
-17
-17
-17
-16
-16
-18
-18
-16
-15
-15
-15
-15
-13
-11
-7
-3
-3
-3
0
3
8
12
17
21
20
18
15
12
9
5
-2
-7
-11
-14
-17
-20
-22
-22
-20
-19
-20
-20
-18
-13
-6
-3
0
44
93
158
223
236
243
107
-23
-81
-132
-119
-103
-75
-50
-34
-21
-22
-23
-23
-23
-25
-27
-25
-23
-23
-23
-24
-24
-22
-21
-21
-21
-21
-21
-20
-19
-20
-20
-18
-17
-16
-15
-14
-13
-12
-11
-9
-8
-7
-6
-5
-5
-5
-2
1
2
3
5
7
10
13
15
17
18
19
21
23
24
28
34
37
38
40
42
45
48
49
49
49
48
47
48
45
40
38
36
30
35
17
11
8
5
-1
-7
-12
-17
-19
-21
-26
-29
-29
-29
-29
-29
-30
-31
-29
-27
-27
-27
-27
-27
-27
-27
-28
-29
-28
-27
-27
-27
-28
-29
-28
-27
-27
-28
-30
-30
-28
-29
-31
-30
-29
-29
-29
-31
-33
-32
-31
-31
-31
-33
-35
-34
-33
-35
-37
-36
-35
-35
-35
-36
-36
-34
-33
-34
-35
-35
-35
-35
-36
-38
-38
-36
-35
-35
-35
-36
-36
-34
-33
-33
-34
-35
-35
-35
-38
-41
-38
-35
-35
-35
-36
-37
-36
-35
-35
-35
-35
-35
-36
-37
-38
-38
-35
-33
-34
-35
-35
-34
-32
-31
-32
-34
-36
-37
-36
-35
-36
-35
-32
-31
-31
-34
-35
-33
-31
-32
-33
-33
-33
-33
-33
-34
-35
-33
-31
-31
-31
-32
-33
-31
-29
-29
-29
-29
-28
-25
-23
-23
-20
-15
-9
-3
1
4
5
5
5
4
-2
-8
-14
-20
-26
-31
-31
-31
-32
-33
-33
-33
-30
-27
-25
-22
-18
-10
7
42
108
176
247
247
157
62
-36
-98
-130
-129
-104
-82
-62
-48
-36
-34
-36
-37
-36
-35
-35
-35
-36
-35
-32
-31
-29
-30
-31
-31
-31
-31
-31
-28
-25
-25
-25
-26
-26
-22
-19
-19
-19
-19
-19
-17
-15
-16
-16
-13
-10
-8
-7
-6
-4
-2
0
2
3
4
7
10
11
12
16
20
22
21
27
29
33
37
37
37
39
41
41
41
39
37
36
34
30
26
22
18
15
11
4
-1
-6
-10
-13
-17
-21
-23
-24
-26
-28
-29
-30
-30
-28
-27
-27
-27
-28
-29
-28
-28
-29
-28
-27
-27
-27
-27
-27
-26
-25
-26
-27
-27
-27
-27
-28
-31
-32
-29
-27
-27
-27
-28
-29
-28
-27
-27
-27
-28
-29
-30
-32
-34
-35
-34
-33
-33
-33
-33
-32
-30
-29
-31
-31
-31
-32
-33
-34
-35
-33
-31
-31
-31
-32
-33
-31
-29
-29
-29
-30
-31
-31
-31
-32
-32
-30
-29
-30
-31
-31
-29
-26
-25
-26
-27
-27
-27
-27
-27
-27
-27
-27
-27
-27
-26
-27
-26
-25
-25
-25
-24
-23
-24
-25
-25
-25
-24
-23
-22
-21
-22
-23
-22
-21
-21
-21
-21
-21
-21
-21
-22
-22
-20
-19
-19
-19
-19
-18
-16
-15
-14
-11
-8
-7
-6
-3
-1
7
15
18
21
18
15
15
14
9
4
-2
-8
-12
-16
-19
-21
-19
-17
-17
-17
-16
-13
-8
-3
1
18
43
98
166
229
289
208
86
-9
-99
-117
-124
-101
-74
-50
-25
-20
-15
-16
-17
-19
-21
-19
-17
-17
-17
-17
-17
-15
-13
-13
-13
-13
-13
-13
-13
-13
-12
-10
-9
-8
-7
-6
-4
-2
-1
-1
-1
0
1
2
3
3
5
8
10
9
14
15
19
23
25
27
27
27
30
33
34
36
40
44
47
49
50
52
56
59
59
60
62
62
60
58
55
53
52
49
45
38
31
25
20
15
10
4
-2
-4
-6
-11
-15
-15
-15
-16
-17
-18
-19
-18
-17
-17
-17
-17
-17
-16
-15
-16
-17
-16
-15
-15
-15
-15
-15
-14
-13
-13
-13
-14
-15
-15
-16
-18
-19
-18
-17
-17
-17
-18
-19
-18
-17
-19
-20
-21
-21
-21
-22
-23
-23
-23
-23
-23
-23
-23
-22
-21
-21
-21
-22
-23
-22
-21
-24
-25
-24
-23
-22
-21
-22
-23
-22
-21
-21
-21
-22
-23
-22
-22
-24
-24
-22
-21
-21
-22
-23
-22
-21
-21
-21
-21
-21
-21
-21
-22
-23
-22
-21
-20
-19
-21
-23
-22
-21
-21
-21
-21
-21
-20
-19
-20
-21
-21
-21
-20
-19
-20
-20
-18
-17
-17
-17
-18
-19
-18
-18
-19
-19
-19
-18
-17
-17
-17
-16
-15
-14
-13
-10
-7
-3
-1
-1
1
9
14
17
18
16
15
14
11
7
2
-5
-9
-12
-16
-20
-21
-21
-21
-21
-21
-20
-17
-14
-11
-7
-5
0
54
110
179
237
233
202
69
-44
-97
-131
-114
-95
-69
-47
-31
-21
-21
-22
-25
-26
-24
-23
-22
-21
-22
-23
-22
-21
-20
-19
-20
-21
-21
-21
-21
-20
-18
-17
-17
-15
-15
-12
-9
-9
-9
-8
-7
-7
-7
-7
-7
-4
-1
1
3
3
4
8
11
12
13
14
16
18
19
20
24
29
32
34
36
38
42
46
47
48
49
50
51
51
49
47
46
45
42
39
34
29
25
20
14
8
3
-2
-7
-12
-16
-19
-20
-21
-21
-22
-25
-26
-23
-22
-24
-25
-25
-25
-25
-25
-26
-26
-24
-23
-23
-23
-23
-23
-22
-21
-23
-24
-25
-25
-25
-27
-29
-27
-25
-26
-27
-27
-27
-27
-27
-27
-27
-29
-31
-31
-31
-32
-33
-33
-33
-32
-31
-32
-33
-32
-31
-32
-33
-34
-35
-34
-33
-34
-35
-34
-33
-33
-35
-35
-34
-33
-33
-33
-33
-33
-32
-31
-33
-35
-35
-35
-34
-33
-33
-33
-33
-33
-33
-33
-33
-33
-33
-33
-34
-34
-32
-31
-31
-32
-34
-35
-34
-33
-33
-33
-33
-33
-32
-32
-33
-32
-31
-32
-33
-33
-33
-32
-31
-31
-31
-31
-31
-30
-29
-31
-33
-32
-31
-31
-31
-31
-31
-30
-29
-29
-29
-29
-28
-26
-23
-20
-19
-18
-15
-12
-6
0
3
6
6
3
1
-1
-5
-9
-18
-25
-27
-29
-32
-35
-34
-33
-32
-31
-30
-29
-28
-24
-17
-2
21
69
139
204
265
217
101
3
-87
-121
-134
-119
-96
-74
-53
-43
-36
-35
-35
-35
-35
-37
-37
-36
-35
-34
-33
-34
-35
-34
-33
-33
-33
-32
-31
-29
-27
-28
-29
-27
-25
-24
-23
-23
-22
-20
-19
-20
-19
-15
-13
-13
-12
-10
-9
-8
-7
-6
-4
-2
1
4
5
5
10
15
16
17
19
21
25
29
31
33
33
33
34
35
35
35
37
39
38
36
33
30
27
22
17
12
7
2
-3
-10
-17
-19
-20
-23
-26
-29
-32
-32
-30
-29
-31
-32
-33
-33
-33
-34
-35
-34
-33
-32
-31
-31
-31
-29
-27
-28
-29
-30
-31
-32
-33
-34
-34
-32
-31
-31
-31
-32
-32
-30
-29
-29
-30
-32
-33
-34
-35
-36
-37
-36
-35
-35
-37
-37
-36
-35
-35
-35
-36
-37
-37
-37
-39
-41
-38
-35
-35
-35
-36
-37
-35
-33
-34
-35
-35
-35
-36
-37
-37
-36
-34
-33
-33
-33
-34
-35
-34
-33
-33
-33
-34
-35
-34
-35
-37
-35
-33
-34
-35
-34
-33
-32
-31
-32
-33
-33
-33
-32
-31
-32
-33
-31
-29
-30
-31
-31
-31
-31
-31
-31
-31
-30
-29
-29
-29
-29
-29
-28
-27
-27
-27
-27
-26
-24
-21
-17
-16
-15
-12
-9
-4
1
5
9
8
7
6
5
2
-3
-9
-14
-18
-22
-25
-27
-27
-27
-26
-25
-24
-22
-19
-15
-11
0
13
70
139
207
275
207
116
25
-66
-103
-71
-115
-92
-69
-46
-35
-25
-26
-27
-28
-29
-28
-27
-26
-25
-24
-23
-23
-23
-23
-23
-22
-21
-21
-21
-20
-19
-20
-19
-16
-15
-15
-15
-14
-12
-10
-9
-8
-7
-6
-5
-4
-2
-1
2
5
6
7
7
7
11
15
18
21
22
23
27
29
30
32
35
38
41
43
44
46
48
49
50
51
50
49
49
46
42
39
36
33
30
24
18
15
12
7
1
-3
-7
-9
-11
-14
-17
-16
-15
-15
-15
-17
-19
-16
-13
-14
-15
-15
-15
-15
-15
-15
-14
-12
-12
-14
-15
-15
-15
-14
-13
-13
-13
-14
-15
-15
-15
-16
-17
-16
-15
-15
-18
-19
-18
-17
-18
-19
-19
-19
-19
-19
-20
-21
-20
-19
-20
-21
-21
-21
-20
-19
-19
-19
-20
-21
-21
-21
-22
-22
-20
-19
-20
-21
-21
-21
-20
-19
-19
-19
-20
-21
-20
-20
-21
-20
-19
-18
-17
-19
-21
-19
-17
-17
-17
-18
-19
-17
-15
-17
-19
-18
-17
-17
-17
-18
-19
-18
-17
-17
-17
-16
-15
-15
-15
-16
-17
-16
-15
-15
-15
-15
-15
-15
-15
-15
-15
-15
-16
-17
-16
-15
-14
-13
-12
-11
-10
-8
-4
-1
-1
0
3
7
12
16
19
21
21
20
18
15
11
5
-1
-5
-10
-12
-14
-16
-18
-18
-16
-15
-14
-11
-13
-3
1
9
22
79
139
215
268
218
151
30
-67
-105
-125
-106
-84
-58
-37
-23
-15
-15
-15
-16
-17
-17
-17
-18
-18
-16
-15
-16
-17
-16
-15
-14
-13
-13
-13
-12
-11
-11
-10
-9
-8
-7
-6
-5
-4
-3
-1
1
2
3
4
5
6
7
8
10
13
15
16
18
20
22
25
27
28
30
34
37
40
41
42
46
50
52
54
55
55
57
60
61
61
60
59
58
57
51
45
43
40
34
28
21
14
10
6
2
-2
-6
-9
-10
-12
-15
-17
-16
-15
-16
-17
-18
-18
-16
-15
-15
-15
-15
-15
-15
-15
-16
-16
-14
-13
-13
-16
-17
-14
-11
-12
-13
-14
-15
-15
-15
-17
-19
-18
-17
-17
-17
-18
-19
-17
-15
-16
-18
-20
-21
-20
-20
-23
-24
-22
-21
-21
-21
-21
-21
-21
-21
-20
-19
-20
-21
-21
-22
-23
-21
-19
-19
-19
-20
-21
-20
-19
-19
-19
-19
-19
-20
-21
-22
-23
-21
-19
-19
-20
-22
-22
-19
-17
-17
-17
-18
-19
-19
-19
-20
-21
-20
-19
-19
-19
-19
-19
-18
-17
-17
-18
-19
-18
-17
-19
-21
-19
-17
-17
-17
-17
-17
-16
-15
-16
-17
-17
-17
-15
-14
-17
-18
-16
-15
-15
-15
-16
-15
-12
-9
-4
-3
-2
0
2
6
10
15
20
21
21
18
15
11
7
1
-5
-8
-11
-14
-17
-18
-19
-18
-17
-16
-15
-13
-9
-3
2
7
39
99
165
238
241
198
107
-10
-75
-118
-116
-97
-75
-51
-35
-21
-19
-19
-20
-22
-22
-21
-20
-19
-19
-19
-19
-19
-18
-17
-17
-17
-17
-17
-17
-17
-15
-13
-12
-11
-10
-8
-6
-5
-5
-5
-4
-3
-2
-1
-1
0
2
3
4
6
8
10
12
15
18
19
21
23
25
27
29
32
35
38
41
43
45
47
49
51
53
54
55
55
54
51
49
48
46
43
39
33
28
22
16
11
6
1
-3
-6
-9
-12
-15
-18
-19
-20
-21
-21
-22
-23
-22
-21
-21
-21
-21
-21
-21
-21
-22
-23
-22
-21
-20
-19
-20
-21
-21
-21
-21
-21
-22
-23
-22
-21
-22
-23
-23
-23
-24
-25
-25
-25
-25
-25
-25
-25
-26
-27
-28
-29
-29
-28
-27
-27
-27
-29
-31
-30
-29
-29
-29
-30
-31
-30
-29
-31
-33
-31
-29
-29
-29
-30
-31
-30
-29
-29
-29
-29
-29
-29
-29
-30
-31
-30
-29
-29
-29
-29
-29
-29
-29
-29
-29
-29
-30
-31
-30
-29
-29
-29
-28
-27
-26
-25
-26
-27
-28
-29
-28
-27
-29
-31
-28
-27
-27
-27
-27
-27
-27
-27
-26
-25
-26
-27
-27
-27
-27
-27
-28
-28
-26
-25
-25
-26
-27
-25
-23
-23
-23
-21
-19
-15
-11
-12
-11
-4
2
7
11
10
9
7
4
1
-4
-10
-15
-19
-22
-25
-27
-27
-27
-27
-27
-28
-26
-22
-19
-16
-11
-6
49
108
173
237
221
196
81
-28
-84
-130
-119
-107
-84
-63
-47
-35
-31
-30
-33
-35
-34
-33
-33
-33
-32
-31
-30
-29
-29
-29
-29
-29
-28
-27
-28
-28
-26
-25
-25
-25
-24
-22
-20
-19
-17
-16
-15
-14
-13
-14
-15
-13
-11
-9
-7
-6
-5
-3
0
4
7
8
9
11
13
14
16
19
22
25
27
28
31
35
37
37
37
37
37
38
39
38
35
32
29
31
20
15
11
7
1
-5
-9
-13
-17
-21
-26
-29
-30
-31
-31
-31
-33
-35
-33
-31
-30
-29
-30
-31
-30
-30
-32
-31
-28
-28
-30
-31
-30
-29
-30
-31
-31
-31
-31
-31
-31
-32
-33
-33
-33
-32
-31
-31
-31
-31
-31
-33
-35
-35
-35
-36
-37
-37
-37
-36
-35
-36
-37
-38
-38
-36
-35
-36
-37
-37
-37
-38
-39
-39
-39
-38
-37
-37
-37
-38
-39
-38
-37
-35
-36
-37
-38
-39
-38
-37
-37
-37
-37
-37
-36
-35
-35
-35
-35
-35
-35
-35
-35
-35
-36
-36
-34
-33
-34
-35
-36
-37
-36
-35
-34
-33
-34
-35
-34
-34
-36
-36
-34
-33
-33
-34
-35
-32
-29
-30
-31
-31
-31
-31
-31
-31
-31
-29
-27
-28
-29
-30
-30
-27
-24
-19
-17
-17
-15
-11
-7
-3
3
9
9
5
3
2
-2
-6
-11
-16
-20
-24
-26
-28
-30
-31
-29
-27
-26
-25
-23
-20
-14
-5
17
50
117
183
247
250
141
38
-53
-109
-125
-121
-97
-72
-47
-34
-29
-27
-28
-29
-29
-29
-29
-29
-28
-27
-27
-27
-26
-25
-24
-23
-23
-23
-23
-22
-21
-20
-19
-18
-17
-16
-15
-13
-11
-10
-9
-8
-7
-6
-5
-5
-5
-2
0
2
4
6
8
11
14
16
18
20
22
24
25
26
29
32
35
38
39
39
43
45
45
45
46
47
46
45
42
39
37
35
32
28
23
18
14
9
4
0
-5
-8
-10
-12
-15
-17
-18
-19
-19
-19
-18
-17
-18
-19
-18
-17
-16
-15
-16
-17
-16
-16
-17
-16
-15
-15
-15
-16
-17
-16
-15
-15
-15
-16
-17
-16
-15
-17
-19
-17
-15
-16
-17
-17
-17
-17
-17
-17
-17
-18
-19
-20
-21
-22
-23
-22
-21
-21
-21
-21
-21
-20
-19
-19
-20
-21
-21
-21
-23
-25
-22
-19
-19
-19
-20
-21
-20
-19
-19
-19
-20
-21
-20
-19
-20
-20
-18
-17
-18
-19
-20
-20
-18
-17
-17
-17
-18
-19
-19
-19
-19
-18
-16
-15
-15
-18
-19
-17
-15
-15
-15
-15
-15
-16
-17
-17
-17
-16
-15
-15
-15
-15
-15
-14
-13
-13
-13
-13
-13
-14
-15
-14
-13
-13
-13
-13
-13
-12
-9
-6
-3
0
1
2
5
8
15
21
22
23
20
17
15
13
7
3
-1
-5
-8
-11
-15
-17
-17
-17
-15
-13
-12
-9
-4
0
2
26
66
121
183
230
270
181
45
-40
-110
-118
-110
-86
-60
-39
-18
-17
-15
-16
-17
-19
-21
-19
-17
-17
-17
-16
-15
-14
-13
-13
-13
-13
-13
-13
-14
-17
-17
-12
-9
-8
-7
-7
-6
-4
-2
0
1
1
1
1
1
2
3
2
5
10
11
11
17
21
22
23
24
25
29
33
34
36
41
45
47
49
50
51
53
56
59
61
61
61
61
60
57
54
51
47
44
39
33
26
19
14
10
6
2
-1
-4
-8
-12
-15
-17
-15
-13
-14
-15
-17
-19
-17
-15
-16
-17
-16
-15
-15
-15
-15
-15
-14
-13
-14
-15
-16
-17
-16
-15
-15
-15
-16
-17
-17
-17
-18
-19
-18
-17
-18
-20
-22
-23
-22
-21
-21
-22
-23
-24
-25
-26
-27
-27
-27
-27
-27
-28
-29
-28
-27
-26
-25
-27
-29
-29
-29
-30
-30
-28
-27
-28
-29
-29
-29
-28
-27
-27
-27
-28
-29
-28
-28
-30
-30
-28
-27
-27
-28
-29
-28
-27
-26
-25
-25
-25
-26
-27
-27
-27
-26
-25
-25
-25
-25
-25
-24
-23
-24
-25
-25
-25
-24
-24
-26
-26
-24
-23
-23
-23
-23
-23
-22
-21
-21
-21
-22
-23
-23
-24
-25
-23
-21
-21
-21
-21
-21
-18
-15
-11
-7
-7
-6
-2
2
6
10
14
16
13
10
8
5
1
-4
-9
-13
-17
-20
-22
-23
-24
-24
-22
-21
-21
-20
-18
-12
-6
17
41
105
169
236
284
159
40
-47
-118
-123
-122
-98
-74
-50
-32
-27
-23
-25
-27
-27
-27
-27
-26
-24
-23
-24
-25
-25
-25
-24
-23
-22
-21
-21
-21
-22
-22
-20
-19
-18
-16
-17
-12
-11
-11
-11
-9
-7
-6
-5
-6
-7
-4
-1
1
3
5
7
9
11
13
15
18
20
23
25
25
27
31
35
38
40
42
44
46
48
50
51
51
51
50
47
44
40
37
33
29
24
19
13
6
0
-5
-9
-13
-15
-17
-21
-23
-25
-27
-26
-25
-26
-27
-27
-27
-27
-27
-27
-27
-26
-25
-26
-27
-27
-27
-26
-25
-25
-25
-24
-23
-24
-25
-27
-27
-27
-28
-29
-28
-27
-27
-27
-28
-29
-29
-29
-29
-29
-30
-31
-31
-31
-33
-35
-32
-31
-32
-33
-32
-31
-31
-31
-31
-31
-31
-31
-31
-33
-36
-36
-34
-33
-32
-31
-31
-31
-31
-31
-31
-31
-31
-31
-31
-32
-33
-33
-33
-32
-31
-31
-31
-30
-29
-29
-29
-30
-31
-31
-31
-32
-33
-33
-33
-32
-31
-30
-29
-30
-30
-28
-27
-28
-29
-29
-29
-30
-30
-29
-29
-29
-28
-27
-29
-31
-29
-27
-27
-27
-27
-27
-25
-23
-21
-19
-17
-14
-10
-5
-1
3
7
8
6
4
2
-1
-5
-12
-19
-21
-22
-26
-30
-31
-32
-32
-30
-29
-29
-27
-25
-20
-15
-11
2
65
128
197
241
207
150
37
-54
-104
-131
-118
-102
-79
-60
-45
-36
-34
-33
-34
-35
-35
-34
-32
-31
-32
-33
-33
-33
-32
-31
-32
-31
-28
-27
-27
-29
-29
-26
-23
-23
-23
-23
-23
-21
-19
-20
-20
-16
-13
-13
-13
-12
-10
-7
-5
-2
-1
-1
0
2
3
4
7
11
14
16
19
22
26
30
31
32
34
36
37
37
37
37
40
43
42
41
38
35
33
30
24
18
12
6
1
-5
-12
-17
-19
-22
-25
-28
-30
-31
-30
-29
-30
-31
-32
-33
-33
-33
-33
-33
-32
-31
-31
-31
-32
-32
-30
-29
-29
-31
-33
-32
-31
-32
-33
-31
-29
-30
-31
-32
-33
-32
-31
-31
-31
-32
-33
-33
-33
-36
-37
-36
-35
-36
-37
-38
-37
-34
-33
-34
-35
-36
-37
-36
-37
-40
-40
-38
-37
-37
-36
-37
-36
-35
-35
-35
-35
-35
-36
-37
-38
-39
-37
-35
-35
-35
-35
-35
-34
-33
-34
-35
-36
-37
-36
-35
-36
-36
-34
-33
-33
-33
-34
-35
-34
-33
-32
-31
-32
-33
-33
-34
-35
-33
-31
-31
-31
-32
-33
-32
-31
-31
-31
-30
-29
-25
-23
-22
-21
-19
-15
-9
-4
-1
3
7
8
5
2
-2
-6
-11
-17
-23
-25
-26
-28
-30
-31
-31
-31
-30
-28
-25
-21
-17
-15
-7
49
107
171
222
214
178
58
-43
-98
-132
-122
-106
-83
-63
-47
-38
-33
-32
-34
-35
-34
-33
-32
-31
-31
-31
-32
-33
-32
-31
-31
-30
-28
-27
-27
-27
-27
-24
-23
-22
-21
-21
-21
-20
-19
-19
-19
-16
-13
-12
-11
-9
-7
-6
-5
-4
-2
1
3
4
5
6
8
11
15
18
20
22
25
28
31
34
35
36
37
38
41
44
43
41
41
41
40
39
34
29
25
20
15
10
4
-2
-9
-14
-17
-19
-20
-21
-22
-24
-26
-27
-27
-27
-27
-27
-27
-27
-27
-27
-27
-27
-26
-25
-25
-25
-26
-27
-26
-25
-25
-24
-23
-23
-23
-25
-27
-26
-25
-24
-23
-25
-27
-26
-25
-25
-25
-26
-27
-27
-27
-28
-29
-28
-27
-28
-29
-29
-29
-28
-27
-28
-29
-30
-31
-30
-29
-30
-30
-28
-27
-27
-28
-29
-28
-27
-27
-27
-28
-29
-28
-27
-28
-29
-28
-27
-27
-27
-27
-27
-26
-25
-25
-25
-25
-25
-24
-24
-26
-26
-24
-23
-23
-23
-24
-24
-22
-21
-20
-19
-20
-21
-21
-22
-23
-21
-19
-20
-21
-21
-21
-19
-17
-16
-15
-16
-16
-12
-9
-8
-6
-2
3
8
12
15
17
18
18
15
11
7
3
-1
-6
-11
-13
-14
-15
-16
-17
-17
-17
-16
-14
-11
-5
1
5
14
66
121
191
246
238
199
69
-39
-94
-126
-111
-92
-67
-46
-28
-19
-19
-19
-18
-17
-17
-17
-17
-16
-14
-13
-14
-15
-14
-13
-13
-13
-13
-12
-10
-9
-9
-9
-9
-7
-5
-4
-3
-2
-1
1
3
2
1
4
7
9
11
11
12
16
19
22
23
24
26
28
29
30
34
39
42
44
47
50
52
54
56
58
60
62
63
64
63
61
61
61
58
55
50
45
41
36
30
24
18
12
7
2
-1
-3
-4
-6
-9
-11
-12
-13
-13
-13
-13
-13
-13
-13
-14
-15
-14
-13
-12
-11
-11
-11
-11
-11
-10
-9
-9
-10
-11
-11
-11
-12
-13
-12
-11
-11
-11
-12
-13
-13
-13
-13
-13
-13
-13
-15
-17
-17
-17
-16
-15
-15
-15
-16
-17
-16
-15
-16
-17
-17
-17
-18
-19
-18
-17
-16
-15
-15
-17
-17
-16
-15
-15
-15
-16
-17
-16
-15
-17
-19
-16
-13
-13
-13
-14
-15
-14
-13
-14
-15
-15
-15
-14
-14
-16
-16
-14
-13
-13
-13
-14
-15
-14
-13
-13
-13
-13
-13
-13
-15
-17
-14
-11
-12
-13
-13
-13
-11
-9
-10
-11
-12
-13
-13
-13
-14
-14
-11
-9
-8
-5
-1
2
4
7
11
14
18
20
22
21
18
17
17
14
10
4
-2
-4
-6
-8
-11
-14
-17
-16
-15
-16
-17
-10
-4
1
6
12
35
96
162
237
261
204
119
-1
-81
-119
-124
-100
-74
-46
-29
-19
-15
-14
-14
-16
-17
-17
-17
-17
-17
-18
-18
-16
-15
-15
-15
-15
-13
-11
-11
-11
-11
-11
-9
-7
-8
-9
-6
-3
-3
-3
-2
-1
1
3
6
7
8
9
10
11
12
15
18
20
22
24
26
29
32
34
36
39
42
45
48
50
51
54
57
58
59
59
59
60
61
58
55
52
48
43
37
30
23
18
14
10
5
0
-4
-6
-8
-11
-14
-16
-17
-17
-18
-20
-20
-18
-17
-18
-19
-19
-18
-16
-15
-15
-15
-15
-14
-13
-15
-17
-16
-15
-15
-15
-16
-17
-16
-15
-16
-17
-17
-17
-17
-17
-20
-20
-18
-18
-20
-21
-21
-21
-21
-21
-22
-23
-24
-25
-25
-25
-26
-26
-24
-23
-23
-25
-25
-24
-23
-24
-25
-25
-25
-25
-25
-26
-27
-26
-25
-25
-25
-26
-27
-26
-25
-25
-25
-25
-25
-24
-24
-26
-26
-24
-23
-24
-25
-25
-25
-25
-25
-24
-23
-24
-25
-25
-25
-25
-24
-23
-23
-23
-23
-23
-24
-25
-24
-23
-24
-25
-24
-23
-25
-26
-23
-21
-22
-23
-24
-24
-22
-21
-22
-23
-23
-23
-23
-23
-24
-24
-22
-21
-21
-21
-20
-16
-12
-11
-11
-6
-1
4
9
10
11
9
7
6
4
-3
-9
-12
-16
-20
-23
-25
-27
-26
-25
-26
-26
-24
-22
-19
-15
-11
4
25
77
141
208
276
220
135
35
-69
-105
-135
-116
-137
-73
-53
-41
-29
-28
-27
-29
-31
-31
-31
-32
-33
-31
-29
-29
-29
-29
-28
-25
-23
-26
-26
-24
-23
-22
-21
-22
-22
-20
-19
-19
-19
-18
-16
-14
-13
-12
-11
-10
-9
-8
-8
-9
-5
-1
0
1
2
3
7
11
14
17
18
19
23
25
25
27
32
35
35
36
38
40
43
45
44
42
40
37
34
30
25
22
20
14
6
0
-6
-9
-12
-15
-19
-22
-25
-27
-29
-31
-33
-32
-31
-31
-31
-31
-31
-29
-27
-28
-29
-29
-29
-29
-29
-30
-30
-28
-27
-28
-29
-30
-30
-28
-27
-27
-28
-30
-31
-30
-30
-32
-33
-32
-31
-31
-34
-35
-34
-33
-34
-35
-35
-35
-34
-33
-35
-37
-36
-35
-36
-37
-37
-37
-36
-35
-35
-35
-35
-35
-36
-37
-37
-37
-36
-35
-35
-36
-38
-38
-36
-35
-34
-33
-34
-35
-36
-36
-35
-35
-35
-35
-35
-34
-33
-33
-33
-33
-33
-33
-33
-34
-35
-35
-35
-34
-33
-33
-33
-33
-33
-32
-31
-31
-31
-31
-31
-31
-31
-32
-33
-32
-31
-31
-31
-31
-31
-30
-29
-29
-29
-29
-30
-31
-30
-29
-28
-27
-25
-23
-20
-17
-15
-12
-9
-5
0
4
7
8
5
3
3
1
-3
-8
-14
-19
-22
-24
-26
-27
-27
-27
-27
-27
-27
-23
-18
-13
-17
8
26
92
159
229
277
186
92
-9
-93
-119
-133
-109
-86
-64
-45
-34
-27
-26
-25
-26
-27
-27
-27
-26
-25
-25
-25
-25
-25
-24
-23
-23
-23
-22
-21
-20
-19
-18
-17
-16
-16
-17
-15
-13
-12
-11
-10
-9
-6
-3
-2
-1
0
1
2
3
4
6
9
12
15
17
17
19
23
26
28
30
32
35
39
41
40
42
46
47
48
49
49
49
50
50
47
45
43
40
37
30
23
20
16
11
6
0
-5
-6
-8
-11
-13
-14
-15
-16
-17
-18
-19
-18
-17
-17
-17
-18
-18
-16
-15
-14
-13
-14
-15
-14
-13
-14
-15
-14
-13
-13
-14
-15
-14
-13
-13
-13
-14
-15
-14
-13
-15
-17
-16
-15
-16
-17
-18
-19
-18
-17
-18
-19
-19
-19
-19
-19
-20
-21
-20
-19
-19
-20
-22
-23
-22
-21
-20
-19
-20
-21
-21
-21
-21
-21
-21
-21
-21
-21
-21
-20
-19
-18
-17
-18
-19
-19
-19
-20
-21
-20
-19
-18
-17
-18
-19
-18
-17
-17
-17
-17
-17
-17
-18
-20
-19
-16
-15
-16
-17
-18
-19
-18
-17
-17
-17
-17
-17
-17
-17
-17
-16
-15
-15
-15
-16
-17
-16
-15
-15
-15
-15
-15
-16
-17
-16
-15
-15
-15
-14
-12
-10
-8
-6
-4
-2
0
2
5
8
13
18
19
19
17
19
11
9
3
-3
-7
-11
-13
-15
-18
-21
-20
-19
-18
-17
-15
-12
-6
-3
-1
24
73
131
199
228
225
142
9
-71
-125
-128
-108
-84
-57
-38
-22
-19
-19
-19
-20
-22
-24
-24
-23
-22
-21
-21
-21
-20
-19
-19
-19
-19
-19
-17
-15
-16
-17
-16
-15
-14
-13
-11
-9
-8
-7
-6
-4
-2
-1
-1
-1
-1
1
4
6
8
9
10
13
16
17
18
21
25
27
29
31
33
36
39
42
45
47
49
51
53
54
55
55
55
55
54
51
48
43
39
35
30
24
18
12
6
1
-3
-8
-12
-16
-18
-20
-22
-24
-25
-24
-23
-23
-24
-23
-24
-25
-25
-25
-24
-23
-24
-25
-24
-23
-22
-21
-21
-21
-21
-21
-21
-21
-22
-23
-23
-24
-26
-27
-26
-25
-24
-23
-24
-25
-25
-25
-25
-25
-26
-27
-27
-28
-30
-30
-29
-29
-29
-29
-29
-29
-29
-29
-29
-29
-29
-29
-29
-30
-31
-31
-31
-30
-29
-28
-27
-28
-29
-28
-27
-28
-29
-29
-29
-30
-31
-30
-29
-29
-29
-28
-27
-28
-29
-28
-27
-27
-27
-27
-28
-29
-29
-29
-28
-27
-27
-27
-28
-29
-27
-25
-25
-25
-26
-27
-27
-27
-27
-27
-26
-25
-26
-27
-27
-27
-26
-25
-25
-25
-25
-25
-26
-27
-26
-25
-24
-23
-23
-25
-25
-24
-23
-23
-23
-24
-25
-26
-27
-25
-23
-22
-20
-16
-13
-11
-9
-7
-4
1
5
9
10
8
7
6
3
-1
-7
-13
-17
-20
-22
-24
-26
-28
-29
-28
-27
-27
-26
-25
-19
-13
-12
-6
40
90
158
212
219
191
60
-48
-106
-138
-121
-102
-77
-56
-40
-31
-30
-29
-30
-31
-30
-30
-32
-33
-32
-31
-31
-30
-28
-27
-28
-29
-29
-29
-28
-26
-23
-23
-23
-22
-21
-22
-23
-19
-15
-15
-15
-14
-13
-11
-9
-8
-7
-6
-5
-4
-3
0
2
5
8
10
12
14
17
20
22
24
27
30
31
31
34
38
39
40
41
41
44
45
44
43
40
37
33
29
23
18
13
8
3
-2
-7
-12
-16
-20
-23
-26
-29
-31
-31
-32
-35
-37
-36
-35
-34
-33
-33
-33
-33
-33
-32
-31
-32
-33
-32
-31
-32
-33
-33
-32
-31
-31
-31
-31
-31
-32
-33
-32
-31
-32
-33
-34
-35
-35
-35
-35
-35
-36
-37
-37
-37
-36
-35
-35
-35
-36
-37
-38
-39
-38
-37
-37
-37
-37
-37
-38
-39
-38
-37
-35
-36
-37
-37
-37
-38
-39
-38
-37
-36
-35
-36
-37
-37
-37
-36
-35
-36
-37
-37
-37
-37
-37
-36
-35
-35
-35
-36
-36
-34
-33
-34
-35
-35
-35
-34
-33
-34
-35
-34
-33
-33
-34
-35
-33
-31
-31
-31
-32
-33
-32
-31
-33
-35
-33
-31
-31
-31
-32
-33
-31
-29
-29
-29
-29
-29
-29
-29
-30
-30
-28
-27
-28
-29
-30
-30
-28
-26
-24
-21
-18
-17
-16
-15
-15
-6
3
6
9
7
5
5
4
-1
-6
-11
-16
-20
-24
-27
-29
-29
-29
-28
-27
-26
-24
-22
-19
-15
2
25
78
143
203
262
191
82
-5
-88
-110
-123
-105
-82
-63
-43
-35
-27
-30
-33
-32
-31
-31
-31
-29
-27
-27
-27
-27
-27
-27
-27
-26
-25
-25
-25
-22
-21
-21
-21
-20
-18
-16
-15
-15
-15
-14
-13
-12
-11
-12
-11
-8
-6
-4
-3
-3
2
5
7
9
10
11
13
15
16
17
20
23
26
30
33
35
37
39
41
43
44
45
46
46
44
43
42
40
38
35
31
26
22
17
12
7
2
-2
-6
-11
-16
-18
-19
-20
-21
-22
-23
-24
-25
-24
-23
-23
-23
-22
-21
-20
-19
-20
-21
-20
-19
-20
-21
-21
-21
-20
-19
-20
-21
-21
-21
-21
-21
-22
-22
-20
-19
-20
-21
-22
-23
-22
-21
-21
-22
-23
-23
-23
-25
-27
-25
-23
-24
-25
-26
-27
-25
-23
-23
-23
-24
-25
-25
-25
-26
-27
-26
-25
-25
-25
-25
-24
-22
-21
-22
-23
-23
-23
-23
-24
-26
-25
-22
-21
-21
-23
-23
-22
-21
-21
-21
-22
-23
-22
-21
-22
-23
-21
-19
-19
-19
-20
-21
-19
-17
-17
-17
-17
-17
-17
-17
-18
-19
-19
-18
-16
-15
-16
-17
-16
-15
-15
-15
-15
-15
-15
-15
-15
-14
-13
-13
-13
-14
-15
-14
-13
-13
-13
-13
-13
-12
-10
-7
-4
0
3
3
5
10
16
22
25
25
24
20
18
16
10
3
-1
-4
-6
-8
-11
-14
-15
-14
-13
-13
-12
-11
-7
-3
0
8
46
89
153
211
253
246
119
9
-69
-117
-115
-102
-77
-53
-32
-19
-15
-13
-14
-15
-16
-17
-16
-15
-14
-13
-14
-14
-12
-12
-14
-14
-12
-11
-11
-10
-9
-8
-7
-6
-5
-4
-3
-1
1
-1
-3
0
3
4
5
6
7
9
11
12
14
17
19
20
21
21
24
29
32
34
36
38
41
44
47
50
52
54
55
56
58
59
62
65
63
61
59
57
55
53
50
46
38
32
25
19
12
6
3
0
-3
-6
-9
-11
-12
-13
-14
-15
-16
-17
-16
-15
-16
-17
-16
-15
-15
-15
-16
-16
-14
-13
-13
-13
-13
-13
-13
-14
-15
-14
-13
-14
-15
-16
-17
-15
-13
-14
-15
-15
-15
-16
-17
-20
-20
-17
-16
-18
-19
-19
-19
-19
-19
-18
-17
-18
-19
-19
-20
-22
-22
-20
-19
-19
-20
-21
-19
-17
-18
-19
-19
-19
-20
-21
-21
-21
-19
-17
-18
-19
-20
-21
-19
-17
-17
-17
-18
-19
-19
-19
-20
-21
-20
-19
-19
-19
-19
-18
-16
-15
-15
-15
-16
-17
-17
-18
-19
-17
-15
-15
-15
-16
-17
-16
-15
-14
-13
-14
-15
-15
-15
-16
-17
-15
-13
-13
-13
-14
-14
-12
-11
-11
-11
-12
-13
-12
-11
-12
-13
-12
-11
-11
-11
-11
-7
-2
0
3
5
7
13
19
21
23
23
23
21
18
14
10
4
-2
-5
-8
-11
-13
-12
-11
-14
-15
-14
-12
-9
-6
-3
2
7
50
109
178
251
244
217
102
-28
-81
-126
-112
-129
-68
-43
-27
-13
-13
-13
-14
-15
-15
-15
-16
-17
-15
-13
-13
-13
-13
-13
-12
-11
-11
-11
-10
-9
-9
-9
-9
-8
-6
-5
-4
-3
-2
0
2
3
3
3
4
6
8
9
9
12
15
17
19
20
21
24
27
29
31
33
35
39
41
42
44
48
51
53
55
56
58
60
61
61
61
60
58
56
52
47
43
40
34
28
22
16
12
8
3
-3
-6
-9
-10
-11
-15
-19
-18
-17
-17
-17
-18
-19
-17
-15
-15
-15
-15
-15
-15
-15
-18
-18
-16
-15
-15
-15
-16
-17
-16
-15
-15
-15
-16
-17
-17
-18
-20
-21
-20
-19
-19
-20
-21
-20
-19
-20
-21
-21
-21
-22
-23
-24
-25
-25
-25
-25
-25
-25
-25
-23
-21
-22
-23
-24
-25
-25
-26
-28
-28
-26
-25
-25
-25
-25
-25
-24
-23
-24
-25
-26
-27
-27
-27
-27
-26
-25
-25
-25
-25
-25
-24
-23
-23
-23
-24
-25
-25
-25
-26
-27
-26
-25
-25
-25
-25
-25
-24
-23
-23
-23
-23
-23
-24
-25
-26
-26
-24
-23
-23
-23
-24
-23
-20
-20
-23
-23
-23
-23
-23
-24
-25
-23
-21
-21
-21
-22
-23
-21
-19
-20
-21
-21
-21
-21
-21
-21
-19
-14
-11
-10
-8
-5
3
12
15
15
14
12
10
8
2
-4
-8
-12
-16
-13
-23
-25
-23
-21
-22
-23
-21
-19
-17
-15
-13
0
41
90
156
212
254
225
97
-5
-77
-115
-119
-107
-81
-59
-39
-29
-25
-25
-28
-29
-29
-29
-28
-27
-27
-27
-26
-25
-24
-24
-25
-24
-23
-22
-21
-20
-19
-19
-19
-18
-17
-17
-17
-15
-13
-13
-13
-11
-9
-7
-5
-5
-4
-2
-1
0
2
6
7
8
9
9
12
16
18
20
22
24
28
32
33
35
37
39
42
45
45
45
47
49
48
47
45
43
40
36
31
26
22
17
12
6
-1
-6
-9
-12
-15
-18
-21
-23
-24
-25
-25
-25
-25
-25
-26
-27
-28
-28
-26
-25
-25
-25
-25
-24
-23
-23
-23
-23
-23
-24
-25
-27
-29
-27
-25
-26
-27
-27
-27
-26
-25
-26
-27
-28
-29
-30
-31
-31
-31
-30
-29
-30
-31
-31
-31
-30
-30
-32
-33
-34
-35
-34
-34
-35
-33
-31
-32
-33
-34
-35
-34
-33
-33
-33
-34
-35
-35
-35
-36
-37
-35
-33
-33
-33
-34
-35
-34
-33
-34
-35
-34
-33
-33
-34
-36
-36
-34
-33
-33
-33
-34
-34
-32
-31
-31
-31
-31
-32
-33
-34
-35
-33
-31
-30
-29
-30
-31
-31
-31
-29
-27
-29
-31
-30
-29
-32
-32
-30
-29
-28
-27
-28
-29
-28
-27
-26
-25
-25
-23
-20
-19
-18
-15
-12
-6
-11
5
9
9
9
7
5
1
-3
-9
-14
-19
-23
-24
-25
-26
-27
-27
-26
-23
-21
-18
-15
-10
3
21
68
134
202
272
234
150
49
-59
-103
-132
-118
-94
-71
-49
-37
-26
-26
-27
-26
-25
-26
-27
-27
-27
-25
-23
-23
-23
-23
-23
-22
-21
-22
-23
-21
-19
-18
-17
-18
-18
-16
-14
-12
-11
-10
-8
-6
-5
-6
-5
-2
-1
0
1
2
5
8
9
11
13
15
17
19
21
23
27
31
33
35
38
41
43
45
46
47
48
49
51
53
50
49
48
46
44
40
35
31
27
22
17
12
6
3
0
-5
-10
-11
-12
-13
-13
-17
-19
-18
-17
-17
-17
-17
-17
-16
-15
-16
-17
-16
-15
-15
-15
-15
-15
-14
-13
-13
-13
-14
-15
-14
-14
-16
-17
-16
-15
-15
-15
-16
-17
-16
-15
-16
-17
-18
-19
-18
-19
-21
-20
-19
-20
-21
-21
-21
-20
-19
-19
-19
-20
-21
-20
-19
-21
-23
-21
-19
-20
-21
-22
-22
-20
-19
-19
-19
-19
-19
-19
-19
-20
-21
-20
-19
-19
-19
-19
-19
-19
-19
-19
-19
-19
-17
-15
-17
-19
-18
-17
-17
-17
-18
-19
-18
-17
-17
-17
-16
-15
-15
-15
-18
-18
-16
-15
-15
-15
-15
-15
-14
-13
-13
-13
-14
-15
-15
-15
-16
-15
-12
-11
-11
-13
-13
-10
-7
-4
-1
0
1
4
7
10
14
19
23
23
22
18
15
14
11
4
-1
-6
-10
-13
-16
-18
-18
-16
-15
-15
-13
-10
-5
2
5
8
58
113
183
253
233
207
76
-48
-95
-135
-116
-94
-65
-38
-24
-13
-14
-15
-17
-19
-20
-21
-19
-17
-17
-17
-17
-16
-14
-13
-12
-11
-11
-11
-11
-11
-12
-11
-8
-7
-6
-5
-5
-4
-2
0
3
3
3
4
5
5
5
9
13
15
17
18
19
22
25
27
29
30
32
35
37
38
41
46
50
52
54
56
59
63
65
65
65
64
63
62
58
54
51
48
43
47
29
21
17
13
8
3
-1
-5
-8
-11
-14
-17
-16
-15
-16
-17
-19
-21
-19
-17
-17
-17
-18
-19
-18
-17
-18
-18
-16
-15
-15
-15
-16
-17
-16
-15
-15
-15
-16
-17
-17
-18
-19
-19
-19
-19
-19
-20
-21
-20
-19
-19
-19
-20
-21
-22
-23
-24
-25
-24
-23
-23
-23
-24
-24
-22
-21
-22
-23
-23
-23
-22
-23
-26
-26
-24
-23
-23
-24
-26
-25
-22
-21
-23
-23
-23
-23
-23
-24
-25
-24
-23
-23
-23
-23
-23
-22
-21
-22
-23
-23
-23
-22
-21
-24
-24
-22
-21
-21
-21
-21
-21
-21
-21
-21
-21
-21
-21
-21
-21
-21
-21
-21
-21
-21
-20
-21
-20
-19
-19
-19
-20
-21
-19
-17
-19
-21
-20
-19
-19
-19
-19
-19
-17
-14
-9
-7
-6
-3
1
5
9
13
16
16
14
12
10
6
2
-3
-8
-11
-14
-17
-20
-22
-23
-22
-21
-20
-19
-16
-13
-7
0
14
42
109
177
250
264
171
73
-33
-101
-125
-125
-101
-75
-50
-34
-25
-21
-22
-23
-24
-25
-25
-25
-24
-23
-23
-23
-24
-24
-22
-21
-21
-20
-19
-19
-19
-19
-19
-17
-15
-14
-13
-13
-13
-11
-9
-9
-9
-8
-7
-5
-3
-2
0
2
3
4
6
8
11
14
16
18
21
24
26
28
30
32
35
38
41
39
45
45
49
53
53
53
53
53
52
51
46
43
40
35
29
23
17
11
6
1
-4
-9
-13
-16
-18
-20
-23
-25
-25
-25
-25
-25
-26
-27
-27
-27
-26
-25
-25
-25
-25
-26
-27
-26
-25
-24
-23
-25
-27
-26
-25
-25
-25
-25
-25
-26
-27
-28
-29
-27
-25
-27
-29
-29
-29
-29
-30
-32
-33
-33
-33
-33
-33
-33
-33
-33
-33
-33
-34
-36
-36
-34
-33
-33
-34
-35
-34
-33
-35
-37
-35
-33
-33
-33
-35
-37
-35
-33
-33
-33
-34
-35
-35
-35
-35
-35
-34
-33
-33
-34
-36
-35
-32
-31
-32
-33
-33
-33
-33
-33
-34
-35
-34
-33
-33
-33
-33
-33
-33
-32
-31
-31
-31
-33
-35
-35
-35
-33
-31
-30
-29
-29
-29
-29
-29
-30
-31
-30
-30
-33
-34
-32
-31
-31
-31
-30
-29
-29
-28
-26
-24
-22
-20
-18
-17
-17
-11
-5
0
5
5
5
4
3
-1
-6
-12
-18
-22
-26
-30
-33
-32
-31
-31
-31
-30
-28
-25
-21
-17
-8
4
50
116
180
244
212
144
53
-46
-94
-132
-120
-99
-79
-58
-46
-33
-32
-31
-34
-37
-36
-35
-34
-33
-33
-33
-31
-29
-30
-31
-30
-29
-29
-29
-30
-31
-28
-26
-24
-23
-22
-21
-20
-19
-18
-17
-17
-16
-14
-13
-14
-13
-10
-8
-6
-5
-5
-1
1
3
5
7
9
11
13
13
14
19
23
25
28
31
33
35
37
37
37
40
41
42
42
39
36
33
30
28
25
21
15
9
3
-2
-6
-10
-14
-18
-21
-24
-27
-29
-29
-29
-29
-29
-29
-29
-29
-29
-29
-29
-29
-29
-30
-31
-29
-27
-28
-29
-27
-25
-25
-26
-28
-29
-29
-29
-28
-27
-28
-29
-29
-29
-29
-29
-29
-29
-29
-29
-29
-29
-31
-32
-33
-35
-37
-36
-35
-34
-33
-33
-33
-33
-33
-33
-33
-33
-33
-33
-33
-35
-37
-34
-33
-33
-33
-33
-32
-30
-29
-30
-31
-32
-33
-32
-32
-34
-34
-32
-31
-31
-31
-31
-31
-31
-31
-31
-31
-31
-30
-29
-32
-35
-32
-29
-30
-31
-30
-29
-28
-27
-28
-29
-29
-29
-29
-30
-32
-32
-30
-29
-28
-27
-27
-27
-26
-25
-24
-23
-24
-25
-25
-25
-26
-26
-25
-24
-23
-22
-21
-19
-17
-14
-11
-10
-9
-6
-2
2
6
11
15
13
11
10
7
3
-2
-8
-12
-15
-18
-20
-22
-24
-24
-22
-21
-20
-16
-12
-6
0
13
26
88
152
218
277
203
126
20
-73
-105
-128
-108
-88
-64
-43
-29
-19
-20
-21
-22
-23
-23
-23
-23
-22
-20
-19
-19
-19
-19
-19
-18
-17
-16
-15
-15
-15
-15
-15
-14
-12
-10
-9
-9
-7
-7
-4
-1
0
1
1
1
3
5
5
6
10
13
15
17
17
18
22
25
28
30
32
34
36
38
40
43
47
50
52
53
53
54
56
57
56
55
54
49
44
41
39
35
31
25
19
15
11
5
1
-2
-5
-7
-10
-14
-17
-16
-15
-16
-17
-16
-15
-16
-17
-16
-15
-16
-16
-14
-13
-14
-15
-14
-13
-13
-13
-13
-13
-12
-11
-12
-13
-13
-13
-13
-16
-19
-17
-15
-15
-15
-16
-17
-16
-15
-16
-17
-17
-17
-18
-19
-21
-23
-22
-21
-21
-21
-21
-20
-18
-17
-18
-19
-20
-21
-20
-21
-24
-24
-22
-21
-21
-21
-21
-20
-19
-19
-19
-19
-19
-19
-19
-22
-25
-22
-19
-19
-19
-18
-17
-17
-17
-18
-19
-19
-19
-19
-20
-22
-22
-20
-19
-18
-17
-17
-17
-17
-17
-17
-17
-17
-17
-16
-17
-20
-19
-17
-17
-17
-16
-15
-14
-13
-13
-13
-14
-15
-15
-15
-16
-17
-15
-13
-13
-13
-13
-13
-13
-13
-13
-12
-10
-8
-4
-3
-3
0
5
10
14
17
20
21
21
20
18
13
7
3
-1
-6
-11
-13
-15
-15
-15
-15
-15
-14
-13
-12
-10
-5
0
3
23
66
121
187
227
244
176
45
-44
-108
-120
-106
-82
-56
-37
-21
-17
-18
-19
-18
-17
-17
-17
-17
-16
-15
-15
-15
-15
-15
-15
-15
-16
-17
-15
-13
-12
-11
-10
-9
-8
-7
-7
-7
-4
-3
-2
-1
-2
-2
0
3
6
7
8
10
12
14
16
17
18
20
22
23
24
29
33
36
39
42
45
47
49
52
55
56
57
58
59
58
57
58
58
55
52
48
43
39
34
26
20
14
9
5
-1
-7
-9
-10
-12
-14
-15
-16
-17
-17
-17
-17
-17
-19
-18
-17
-19
-21
-19
-17
-16
-15
-14
-13
-13
-13
-13
-13
-14
-15
-15
-15
-17
-19
-18
-17
-16
-15
-16
-17
-16
-15
-16
-17
-17
-17
-17
-18
-20
-21
-21
-21
-21
-21
-21
-21
-23
-21
-19
-20
-21
-21
-21
-20
-19
-20
-21
-20
-19
-19
-19
-20
-21
-20
-19
-19
-19
-20
-21
-21
-21
-22
-22
-20
-19
-20
-21
-21
-21
-20
-19
-19
-19
-20
-21
-20
-20
-21
-19
-17
-18
-19
-20
-21
-19
-17
-17
-17
-17
-17
-18
-19
-19
-19
-18
-17
-17
-17
-18
-19
-18
-17
-16
-15
-15
-17
-20
-20
-18
-17
-16
-15
-15
-15
-14
-13
-14
-15
-15
-15
-15
-16
-17
-16
-15
-14
-13
-10
-6
-2
1
1
2
6
11
16
19
18
17
17
16
14
11
5
1
-3
-7
-10
-12
-14
-15
-16
-18
-20
-19
-16
-12
-8
-4
-7
16
33
97
161
233
282
189
94
-8
-92
-113
-123
-99
-75
-49
-30
-21
-15
-16
-17
-18
-19
-19
-19
-20
-21
-20
-19
-18
-17
-16
-15
-14
-13
-14
-15
-14
-13
-13
-13
-14
-12
-9
-7
-5
-5
-5
-3
-1
0
1
2
3
4
5
5
6
9
12
15
17
18
20
22
24
27
30
32
34
36
38
40
42
44
48
52
54
56
57
57
57
58
57
53
51
49
42
35
32
29
24
18
12
6
2
-2
-6
-10
-13
-15
-17
-19
-21
-23
-23
-23
-22
-21
-21
-21
-21
-21
-21
-21
-20
-19
-20
-21
-21
-21
-21
-21
-21
-21
-21
-21
-21
-20
-19
-21
-23
-22
-21
-21
-21
-23
-25
-24
-23
-24
-25
-26
-27
-25
-23
-24
-25
-26
-27
-27
-27
-28
-29
-28
-27
-28
-29
-29
-29
-28
-27
-27
-27
-28
-29
-28
-27
-27
-26
-25
-26
-27
-27
-27
-27
-27
-27
-27
-27
-27
-26
-25
-26
-27
-27
-27
-26
-25
-26
-27
-26
-25
-25
-25
-25
-25
-25
-25
-26
-26
-24
-23
-23
-24
-26
-26
-24
-23
-23
-24
-25
-25
-25
-25
-25
-24
-23
-24
-25
-24
-23
-23
-23
-23
-23
-23
-23
-23
-23
-24
-24
-22
-21
-21
-21
-22
-22
-20
-19
-20
-21
-20
-18
-16
-14
-12
-10
-8
-3
-7
7
11
12
13
12
11
7
3
-3
-8
-14
-19
-21
-23
-24
-25
-24
-23
-23
-23
-22
-18
-12
-7
-3
37
99
168
241
228
178
86
-21
-78
-123
-117
-99
-78
-57
-44
-32
-29
-27
-28
-29
-29
-29
-28
-27
-26
-25
-25
-25
-25
-25
-26
-27
-26
-25
-24
-23
-22
-21
-20
-19
-18
-17
-17
-16
-14
-13
-13
-13
-13
-11
-8
-7
-6
-5
-5
-2
2
3
5
7
9
10
11
13
15
18
21
23
25
26
28
32
35
37
39
40
41
43
45
44
43
43
42
39
36
33
30
28
23
17
11
5
0
-4
-10
-16
-18
-20
-21
-21
-25
-27
-27
-27
-27
-27
-28
-29
-28
-27
-27
-27
-26
-25
-25
-25
-26
-27
-25
-23
-24
-25
-25
-25
-26
-27
-28
-28
-26
-25
-25
-26
-28
-29
-28
-27
-27
-27
-28
-29
-28
-29
-31
-31
-31
-32
-33
-33
-33
-32
-31
-31
-31
-32
-33
-33
-33
-34
-35
-33
-31
-32
-33
-33
-32
-30
-29
-30
-31
-32
-33
-34
-35
-34
-33
-32
-31
-31
-31
-30
-29
-29
-29
-31
-31
-31
-32
-33
-32
-31
-31
-31
-31
-31
-28
-25
-26
-27
-27
-27
-28
-29
-30
-31
-28
-27
-27
-27
-28
-28
-26
-25
-25
-25
-26
-26
-24
-23
-24
-25
-24
-23
-24
-25
-25
-23
-23
-23
-23
-22
-21
-21
-21
-20
-19
-16
-13
-11
-8
-4
1
7
11
13
15
14
12
10
6
0
-6
-11
-14
-16
-18
-20
-21
-20
-19
-19
-19
-18
-15
-12
-9
-6
19
44
108
172
237
283
179
78
-15
-91
-113
-123
-100
-76
-53
-35
-26
-21
-21
-21
-22
-23
-22
-21
-21
-21
-20
-19
-20
-21
-20
-19
-19
-19
-18
-17
-16
-15
-14
-13
-12
-10
-7
-7
-7
-6
-5
-4
-3
0
3
4
5
7
9
10
11
12
13
15
17
19
21
24
26
29
32
35
38
40
43
46
48
50
52
54
55
56
57
57
57
58
58
59
52
49
45
41
37
33
26
21
15
10
5
1
-1
-3
-5
-8
-11
-13
-12
-11
-12
-13
-13
-13
-12
-12
-14
-14
-12
-11
-11
-11
-11
-11
-10
-9
-9
-9
-10
-11
-11
-12
-13
-11
-9
-10
-11
-12
-13
-12
-11
-11
-11
-12
-13
-13
-13
-14
-15
-14
-13
-15
-17
-17
-17
-16
-15
-15
-15
-16
-17
-17
-17
-18
-18
-16
-15
-16
-17
-18
-18
-16
-15
-17
-16
-15
-15
-15
-17
-19
-16
-13
-14
-15
-15
-15
-15
-15
-15
-15
-15
-15
-15
-15
-15
-15
-15
-15
-14
-13
-13
-13
-13
-13
-13
-13
-13
-13
-14
-15
-15
-15
-14
-13
-13
-12
-13
-13
-13
-12
-11
-11
-11
-12
-13
-13
-13
-12
-11
-11
-11
-11
-11
-11
-11
-11
-11
-11
-11
-12
-13
-13
-12
-10
-9
-9
-9
-9
-8
-6
-3
0
2
4
5
6
14
21
24
27
25
23
21
19
15
10
4
-1
-4
-8
-12
-15
-14
-13
-13
-13
-12
-9
-5
-1
3
11
21
64
125
195
269
236
163
59
-55
-96
-121
-107
-85
-59
-32
-23
-13
-14
-15
-17
-19
-18
-17
-16
-15
-15
-15
-15
-15
-14
-13
-13
-13
-13
-13
-14
-15
-12
-11
-10
-9
-8
-6
-4
-3
-2
-1
-1
0
2
3
2
2
4
6
8
11
9
16
17
19
21
23
25
28
31
32
33
36
39
42
45
47
49
50
52
55
57
58
59
58
57
58
57
53
49
46
41
35
29
23
18
14
9
4
0
-4
-8
-12
-16
-19
-19
-19
-20
-21
-22
-23
-22
-21
-21
-21
-21
-21
-20
-19
-20
-21
-19
-17
-18
-19
-19
-19
-18
-17
-18
-19
-20
-21
-21
-21
-22
-23
-22
-21
-22
-23
-23
-23
-22
-22
-25
-26
-27
-27
-27
-29
-31
-28
-25
-26
-27
-28
-29
-27
-25
-26
-27
-28
-29
-29
-29
-32
-32
-30
-29
-28
-28
-30
-30
-28
-27
-28
-29
-29
-29
-28
-28
-30
-31
-30
-29
-29
-30
-31
-29
-27
-27
-27
-28
-29
-28
-27
-28
-29
-28
-27
-27
-27
-28
-29
-28
-27
-27
-27
-28
-29
-28
-28
-30
-30
-28
-27
-28
-29
-29
-29
-28
-27
-27
-27
-27
-27
-27
-28
-29
-28
-27
-27
-27
-28
-29
-28
-27
-27
-27
-27
-27
-27
-27
-29
-31
-29
-27
-27
-27
-27
-26
-24
-22
-19
-17
-16
-13
-10
-6
-2
3
8
8
6
3
0
-3
-6
-12
-19
-23
-27
-27
-27
-30
-33
-31
-29
-28
-27
-26
-24
-18
-6
17
56
120
185
249
230
121
24
-62
-109
-128
-121
-97
-75
-54
-41
-32
-31
-34
-35
-35
-35
-35
-35
-34
-33
-33
-33
-33
-31
-29
-29
-29
-29
-29
-30
-31
-29
-27
-26
-25
-24
-23
-23
-23
-21
-19
-18
-17
-16
-15
-14
-13
-13
-11
-8
-6
-4
-3
-2
1
4
6
8
9
10
14
18
19
19
23
27
29
31
32
33
36
39
40
41
41
41
40
38
33
28
25
22
18
12
5
0
-3
-8
-13
-17
-21
-24
-26
-30
-34
-35
-35
-35
-35
-35
-36
-36
-34
-33
-33
-34
-35
-34
-33
-34
-35
-33
-31
-31
-31
-33
-35
-34
-33
-33
-33
-34
-35
-33
-31
-34
-35
-34
-33
-34
-35
-36
-37
-36
-35
-35
-35
-36
-37
-37
-37
-37
-37
-37
-37
-37
-37
-37
-37
-37
-38
-39
-38
-37
-37
-37
-37
-37
-37
-37
-38
-39
-39
-39
-38
-37
-37
-37
-36
-35
-35
-36
-38
-39
-38
-37
-36
-35
-35
-35
-35
-35
-35
-35
-35
-35
-35
-35
-35
-34
-33
-34
-35
-34
-33
-33
-33
-32
-31
-32
-33
-32
-31
-33
-35
-33
-31
-31
-31
-31
-31
-30
-29
-30
-31
-30
-29
-30
-31
-31
-31
-30
-29
-29
-29
-29
-29
-28
-27
-27
-26
-25
-24
-23
-21
-19
-16
-13
-12
-10
-4
2
7
11
10
9
7
4
1
-4
-11
-16
-19
-22
-24
-25
-26
-26
-24
-23
-23
-21
-18
-14
-10
9
30
88
150
216
153
203
121
20
-74
-106
-132
-111
-89
-66
-45
-35
-27
-26
-25
-26
-27
-27
-27
-26
-25
-24
-23
-23
-23
-22
-21
-21
-21
-20
-19
-18
-17
-18
-18
-16
-15
-14
-13
-13
-12
-10
-8
-7
-6
-5
-4
-3
-2
-1
2
5
6
7
8
9
13
15
16
18
22
26
29
31
31
33
37
40
42
44
46
47
48
49
49
49
50
51
50
47
44
40
36
31
25
20
15
11
7
2
-3
-6
-9
-10
-12
-16
-19
-18
-17
-17
-17
-18
-19
-18
-17
-18
-19
-18
-17
-16
-15
-16
-15
-12
-11
-12
-13
-14
-15
-16
-17
-17
-17
-16
-15
-15
-17
-19
-17
-15
-16
-17
-17
-17
-17
-17
-19
-21
-19
-17
-18
-19
-20
-21
-19
-17
-18
-19
-20
-21
-21
-22
-24
-23
-20
-19
-20
-21
-21
-21
-20
-19
-19
-19
-19
-19
-19
-20
-21
-19
-17
-18
-19
-20
-21
-19
-17
-16
-15
-17
-19
-19
-19
-20
-21
-19
-17
-16
-16
-18
-18
-16
-15
-15
-15
-16
-17
-17
-17
-18
-18
-16
-15
-15
-15
-16
-16
-14
-13
-15
-15
-15
-15
-15
-16
-17
-16
-15
-15
-15
-16
-17
-15
-13
-13
-13
-14
-15
-14
-13
-14
-15
-14
-13
-12
-11
-11
-9
-6
-3
0
1
1
4
8
14
20
21
22
21
23
14
11
7
3
-1
-5
-9
-13
-15
-17
-17
-17
-16
-15
-14
-12
-8
-4
0
15
42
87
149
215
282
231
102
-1
-90
-117
-117
-99
-74
-50
-25
-19
-16
-16
-18
-19
-19
-19
-19
-18
-17
-17
-17
-16
-15
-15
-15
-15
-15
-14
-13
-13
-13
-12
-11
-10
-9
-8
-7
-7
-6
-4
-3
-2
-1
0
2
4
5
6
8
10
12
14
15
16
19
22
23
25
28
31
34
37
38
39
43
47
49
51
52
53
56
59
59
59
58
57
56
54
49
46
43
38
32
26
20
15
11
6
1
-4
-8
-10
-12
-16
-20
-21
-20
-19
-19
-22
-23
-21
-19
-19
-19
-20
-21
-20
-19
-21
-23
-20
-17
-17
-17
-19
-21
-19
-17
-17
-17
-18
-19
-19
-19
-20
-21
-20
-19
-20
-21
-22
-23
-22
-21
-21
-21
-22
-23
-23
-24
-25
-24
-23
-23
-23
-24
-25
-24
-23
-23
-23
-23
-23
-24
-25
-26
-27
-25
-23
-24
-25
-25
-25
-24
-23
-23
-23
-23
-23
-23
-23
-24
-24
-22
-21
-22
-23
-23
-23
-22
-21
-21
-21
-21
-21
-21
-23
-25
-22
-19
-20
-21
-21
-21
-20
-19
-19
-19
-20
-21
-20
-19
-20
-21
-20
-19
-19
-19
-20
-21
-20
-19
-19
-19
-18
-17
-17
-18
-20
-20
-18
-17
-17
-18
-19
-17
-15
-15
-15
-16
-17
-16
-15
-15
-15
-12
-8
-5
-3
-3
-1
5
11
16
19
20
20
17
13
9
5
2
-3
-9
-14
-18
-19
-19
-19
-18
-17
-18
-19
-18
-15
-13
-7
1
27
59
124
189
247
267
147
37
-48
-109
-117
-115
-93
-69
-43
-27
-22
-20
-22
-23
-22
-21
-21
-21
-21
-21
-21
-21
-22
-22
-20
-19
-19
-19
-19
-17
-14
-13
-13
-13
-13
-11
-9
-10
-11
-8
-5
-4
-3
-3
-3
-1
1
3
5
7
9
11
13
13
14
17
20
22
24
26
29
33
36
38
41
44
46
48
49
50
51
52
53
53
54
53
52
51
47
43
39
34
28
22
15
8
4
0
-4
-8
-12
-15
-17
-19
-22
-23
-23
-23
-23
-23
-24
-25
-25
-25
-24
-23
-23
-23
-22
-21
-21
-21
-22
-23
-22
-22
-23
-22
-21
-21
-21
-23
-25
-23
-21
-22
-23
-24
-25
-24
-24
-27
-29
-28
-27
-27
-27
-28
-29
-28
-27
-28
-29
-30
-31
-30
-29
-30
-31
-31
-31
-31
-31
-31
-30
-28
-27
-29
-30
-31
-30
-29
-30
-31
-29
-27
-28
-29
-30
-31
-30
-29
-29
-29
-29
-29
-29
-29
-30
-31
-30
-29
-29
-29
-30
-30
-28
-27
-28
-29
-29
-29
-29
-29
-30
-30
-28
-27
-27
-29
-29
-27
-25
-26
-27
-28
-29
-28
-27
-28
-29
-27
-25
-26
-27
-27
-27
-26
-25
-26
-27
-27
-27
-27
-27
-28
-29
-28
-27
-27
-26
-24
-21
-18
-16
-14
-13
-12
-8
-4
1
5
9
13
10
7
4
1
-5
-10
-15
-20
-24
-27
-27
-27
-27
-27
-26
-25
-25
-23
-19
-15
-10
20
68
128
195
224
234
148
26
-50
-114
-121
-116
-97
-75
-54
-32
-30
-27
-29
-31
-30
-29
-31
-33
-31
-29
-28
-27
-28
-29
-28
-27
-26
-25
-24
-23
-22
-21
-21
-20
-18
-17
-16
-15
-15
-15
-14
-13
-12
-11
-10
-8
-6
-5
-5
-3
0
1
1
4
5
8
11
14
17
18
19
22
25
26
28
32
35
36
37
38
40
44
47
46
45
45
44
41
37
33
30
28
24
19
12
5
1
-2
-7
-12
-16
-20
-21
-22
-26
-29
-28
-27
-28
-29
-30
-31
-28
-25
-25
-25
-26
-27
-27
-27
-27
-27
-27
-27
-27
-27
-26
-25
-25
-25
-25
-25
-26
-27
-27
-27
-26
-27
-30
-31
-30
-29
-29
-29
-30
-31
-29
-30
-31
-32
-33
-31
-29
-32
-35
-34
-33
-33
-33
-34
-35
-34
-33
-33
-33
-34
-35
-34
-33
-34
-35
-34
-33
-34
-35
-34
-33
-32
-32
-34
-35
-35
-35
-36
-36
-34
-33
-33
-34
-35
-33
-31
-31
-31
-31
-31
-32
-33
-33
-33
-32
-31
-31
-31
-32
-33
-32
-31
-31
-31
-30
-29
-29
-29
-30
-31
-30
-29
-28
-27
-27
-27
-27
-27
-27
-27
-27
-27
-28
-28
-27
-27
-27
-25
-23
-18
-13
-12
-11
-11
-10
-2
3
7
9
7
5
5
5
3
-2
-9
-15
-19
-22
-24
-25
-26
-27
-27
-27
-27
-24
-20
-15
-10
0
12
76
144
211
276
209
139
31
-69
-107
-136
-116
-95
-71
-50
-36
-25
-24
-23
-25
-27
-27
-27
-25
-23
-24
-25
-24
-23
-23
-23
-22
-21
-20
-19
-18
-17
-18
-18
-16
-15
-15
-15
-14
-12
-13
-9
-9
-7
-5
-4
-3
-2
-1
1
3
3
4
8
11
13
15
15
16
20
23
26
28
30
32
35
37
38
40
42
44
46
47
47
47
48
49
48
46
44
40
36
31
27
23
19
13
7
2
-3
-5
-7
-10
-13
-14
-15
-16
-17
-19
-21
-20
-19
-19
-19
-19
-18
-16
-15
-16
-17
-16
-15
-15
-15
-15
-15
-15
-15
-16
-17
-18
-18
-16
-15
-15
-16
-17
-16
-15
-17
-19
-19
-19
-18
-17
-19
-21
-20
-19
-19
-19
-20
-21
-20
-19
-22
-22
-20
-19
-20
-21
-21
-21
-20
-19
-19
-19
-20
-21
-21
-21
-22
-22
-20
-19
-19
-21
-21
-20
-19
-19
-19
-19
-19
-18
-17
-19
-21
-20
-19
-19
-19
-19
-19
-18
-17
-17
-17
-17
-17
-17
-17
-18
-19
-18
-17
-16
-16
-18
-18
-16
-15
-15
-15
-15
-15
-14
-15
-17
-16
-15
-14
-13
-14
-15
-14
-13
-13
-13
-13
-13
-14
-15
-15
-15
-13
-11
-11
-11
-10
-7
-2
1
1
3
7
11
15
19
22
22
20
19
18
13
8
4
0
-5
-11
-13
-15
-16
-17
-16
-15
-14
-13
-9
-4
1
12
36
74
136
200
264
253
143
38
-60
-111
-119
-109
-85
-59
-34
-21
-15
-13
-14
-15
-16
-17
-18
-19
-18
-17
-16
-15
-15
-14
-15
-14
-13
-13
-13
-11
-9
-9
-9
-10
-11
-8
-5
-5
-5
-4
-3
-1
1
4
5
5
6
8
9
9
11
14
15
16
18
20
23
26
28
30
33
36
38
40
43
45
48
51
53
55
56
57
59
61
61
61
58
55
53
50
45
39
34
29
23
17
12
7
3
-1
-5
-8
-12
-15
-18
-19
-19
-19
-18
-17
-18
-19
-19
-19
-18
-17
-19
-18
-17
-19
-21
-19
-17
-17
-17
-16
-15
-15
-15
-16
-17
-17
-17
-18
-19
-19
-19
-20
-21
-20
-19
-20
-21
-21
-21
-21
-21
-22
-23
-23
-23
-24
-25
-25
-25
-25
-25
-25
-25
-25
-25
-25
-24
-23
-24
-25
-24
-23
-25
-27
-25
-23
-24
-25
-26
-27
-25
-23
-24
-25
-25
-25
-24
-24
-26
-26
-24
-23
-24
-25
-26
-27
-26
-25
-25
-25
-24
-23
-24
-26
-27
-25
-23
-23
-23
-24
-25
-24
-23
-22
-21
-22
-23
-23
-23
-24
-25
-23
-21
-21
-21
-22
-23
-22
-21
-21
-21
-22
-23
-22
-21
-22
-22
-20
-19
-20
-21
-22
-21
-18
-17
-15
-12
-9
-8
-7
-5
-2
5
11
13
15
12
9
9
8
3
-3
-8
-12
-15
-18
-23
-25
-24
-23
-23
-23
-23
-21
-17
-12
-7
4
16
72
137
209
282
200
102
3
97
-114
-130
-107
-83
-60
-38
-30
-23
-24
-25
-27
-29
-28
-27
-26
-25
-26
-27
-25
-23
-23
-23
-23
-23
-23
-23
-22
-21
-21
-20
-18
-17
-16
-15
-14
-13
-12
-11
-10
-9
-10
-8
-5
-3
-1
1
3
5
7
8
9
10
11
14
17
18
20
24
27
29
32
35
38
41
43
44
46
48
49
49
49
48
47
46
44
42
37
32
28
24
17
10
5
-1
-5
-9
-15
-21
-22
-23
-24
-25
-26
-27
-26
-25
-26
-27
-26
-25
-25
-26
-29
-30
-27
-25
-24
-23
-24
-24
-22
-21
-22
-23
-24
-25
-25
-25
-26
-27
-27
-27
-27
-27
-27
-27
-27
-27
-27
-28
-29
-30
-31
-32
-33
-33
-33
-32
-31
-32
-33
-33
-33
-33
-33
-33
-33
-33
-33
-34
-35
-36
-36
-34
-33
-34
-35
-35
-35
-34
-33
-33
-33
-33
-33
-33
-35
-37
-35
-33
-33
-33
-34
-35
-34
-33
-33
-33
-33
-33
-33
-33
-33
-33
-32
-31
-32
-33
-33
-33
-32
-31
-32
-33
-33
-33
-33
-33
-33
-33
-32
-31
-31
-31
-31
-31
-31
-31
-31
-31
-31
-31
-31
-31
-31
-30
-29
-29
-29
-30
-31
-30
-29
-29
-29
-28
-27
-25
-23
-20
-18
-16
-13
-9
-5
-1
3
7
7
4
1
-2
-7
-12
-17
-22
-24
-26
-29
-27
-32
-31
-31
-31
-29
-27
-26
-25
-21
-9
25
68
131
188
235
221
102
2
-74
-118
-125
-117
-94
-72
-51
-40
-35
-33
-34
-35
-35
-35
-35
-35
-35
-35
-34
-33
-32
-32
-34
-33
-31
-30
-29
-29
-29
-27
-25
-25
-25
-24
-23
-22
-21
-20
-19
-19
-19
-17
-15
-14
-12
-10
-8
-6
-5
-4
-2
0
1
2
5
8
11
14
17
20
22
24
26
28
30
33
35
37
36
35
38
41
40
39
37
35
33
30
25
20
15
9
4
-2
-9
-14
-17
-20
-22
-24
-26
-27
-28
-30
-32
-33
-34
-35
-34
-33
-34
-35
-34
-33
-32
-31
-31
-29
-29
-29
-29
-30
-31
-31
-31
-33
-35
-34
-33
-33
-33
-31
-29
-30
-31
-31
-31
-32
-33
-34
-36
-38
-39
-38
-37
-36
-35
-36
-37
-36
-35
-35
-35
-36
-37
-37
-38
-40
-39
-37
-37
-37
-36
-35
-36
-37
-36
-35
-35
-35
-36
-37
-38
-39
-38
-37
-37
-37
-36
-35
-35
-35
-35
-35
-36
-37
-36
-35
-36
-37
-37
-37
-36
-35
-35
-34
-32
-31
-31
-32
-35
-35
-35
-35
-35
-34
-33
-33
-33
-33
-33
-32
-31
-31
-31
-32
-33
-33
-33
-34
-35
-34
-33
-32
-31
-30
-29
-29
-29
-28
-25
-22
-20
-18
-17
-17
-14
-10
-3
4
5
5
4
3
0
-3
-9
-15
-18
-21
-25
-29
-31
-33
-31
-29
-29
-29
-27
-24
-20
-16
-13
15
68
126
190
220
229
156
38
-43
-110
-125
-122
-102
-77
-57
-38
-33
-30
-31
-34
-34
-33
-32
-31
-30
-29
-29
-29
-28
-27
-27
-27
-27
-27
-26
-25
-24
-23
-22
-21
-20
-19
-18
-17
-16
-15
-14
-12
-10
-9
-8
-7
-8
-7
-4
-3
-3
-2
0
3
6
8
11
13
15
17
19
21
23
27
31
33
35
36
37
40
43
44
45
45
45
45
44
41
39
38
35
31
25
18
13
10
6
1
-4
-8
-10
-12
-17
-22
-23
-22
-21
-21
-24
-25
-23
-21
-21
-21
-21
-21
-21
-21
-22
-23
-21
-19
-20
-21
-21
-21
-19
-17
-17
-17
-18
-19
-19
-20
-22
-22
-20
-19
-20
-21
-22
-23
-22
-21
-22
-23
-24
-25
-24
-25
-27
-27
-27
-26
-25
-26
-27
-26
-25
-25
-25
-26
-27
-26
-25
-26
-27
-26
-25
-25
-25
-26
-27
-26
-25
-25
-25
-24
-23
-23
-23
-24
-25
-24
-23
-23
-23
-24
-25
-24
-23
-21
-21
-21
-21
-21
-23
-25
-23
-21
-21
-21
-22
-23
-22
-21
-21
-21
-21
-21
-20
-19
-20
-21
-20
-19
-19
-19
-19
-19
-18
-17
-17
-17
-17
-17
-18
-19
-20
-19
-16
-15
-15
-14
-13
-8
-3
-2
-1
1
4
11
17
18
19
19
18
15
12
6
2
-1
-4
-9
-12
-15
-17
-17
-17
-17
-17
-16
-13
-9
-4
0
10
23
78
142
216
292
212
121
14
-91
-111
-128
-103
-79
-55
-34
-22
-13
-14
-15
-17
-19
-18
-17
-18
-19
-17
-15
-15
-15
-15
-15
-14
-13
-12
-11
-11
-11
-10
-9
-9
-8
-6
-5
-5
-5
-4
-1
2
3
5
5
5
7
9
9
9
12
15
17
19
19
20
24
28
31
33
35
37
39
41
42
45
50
53
54
56
58
61
64
65
64
62
60
58
56
51
46
42
38
31
37
18
13
9
5
0
-5
-8
-11
-11
-11
-16
-19
-18
-17
-18
-19
-19
-19
-17
-15
-15
-15
-15
-15
-15
-16
-18
-17
-14
-13
-14
-15
-15
-15
-14
-13
-13
-13
-14
-15
-15
-16
-17
-16
-15
-16
-17
-18
-19
-18
-17
-18
-19
-20
-21
-21
-21
-22
-23
-22
-21
-21
-21
-22
-23
-22
-21
-21
-21
-21
-21
-20
-20
-22
-23
-22
-21
-20
-19
-20
-21
-20
-19
-21
-20
-19
-19
-19
-21
-23
-21
-19
-19
-19
-20
-21
-20
-19
-19
-19
-19
-19
-18
-17
-18
-19
-18
-17
-17
-17
-18
-19
-18
-17
-17
-17
-17
-17
-17
-18
-20
-20
-18
-17
-17
-17
-17
-16
-15
-15
-15
-15
-15
-15
-15
-17
-19
-17
-15
-15
-15
-15
-15
-13
-10
-7
-4
-2
-1
0
3
7
13
19
21
21
19
16
14
12
7
2
-3
-8
-12
-16
-19
-21
-19
-17
-17
-17
-15
-13
-7
-3
0
17
71
131
204
243
219
154
27
-63
-109
-124
-106
-83
-56
-37
-23
-17
-18
-19
-19
-20
-22
-22
-20
-19
-18
-17
-18
-19
-18
-17
-15
-15
-15
-14
-13
-13
-13
-12
-11
-10
-9
-8
-7
-5
-3
-2
-1
-1
-1
1
3
3
4
6
8
10
11
12
15
18
20
22
25
28
30
32
33
34
37
40
43
41
49
51
53
55
56
57
58
59
58
57
52
49
46
42
37
31
24
18
14
9
4
-1
-5
-8
-11
-14
-17
-19
-19
-19
-20
-22
-24
-24
-22
-21
-21
-21
-21
-21
-20
-20
-21
-20
-19
-19
-19
-19
-19
-19
-19
-19
-19
-20
-21
-21
-21
-22
-23
-22
-21
-22
-23
-23
-23
-23
-23
-24
-25
-25
-25
-25
-26
-28
-29
-28
-27
-26
-26
-28
-29
-28
-27
-27
-28
-29
-28
-27
-29
-31
-29
-27
-27
-27
-28
-29
-28
-27
-27
-27
-28
-29
-28
-27
-28
-29
-29
-29
-29
-29
-29
-28
-26
-25
-26
-27
-27
-27
-28
-29
-30
-30
-28
-27
-27
-26
-27
-26
-25
-25
-25
-25
-25
-26
-27
-29
-31
-29
-27
-26
-25
-26
-27
-25
-23
-24
-25
-25
-25
-24
-24
-26
-27
-26
-25
-24
-23
-24
-25
-24
-23
-23
-23
-22
-21
-21
-19
-17
-15
-13
-10
-7
-1
5
9
13
11
9
7
4
0
-5
-12
-17
-19
-21
-22
-24
-27
-28
-25
-23
-23
-23
-22
-17
-11
2
17
73
139
207
276
213
130
34
-63
-101
-137
-117
-96
-74
-52
-41
-31
-31
-31
-31
-31
-32
-33
-31
-29
-30
-31
-30
-29
-29
-29
-29
-29
-28
-27
-26
-25
-25
-24
-22
-21
-20
-19
-19
-19
-18
-17
-18
-17
-14
-13
-13
-11
-11
-7
-3
-3
-3
-2
-1
1
3
5
8
12
15
17
19
21
24
28
31
32
34
36
37
37
37
38
39
40
41
40
36
32
31
30
24
18
12
6
1
-4
-10
-15
-18
-21
-24
-27
-28
-29
-29
-29
-29
-29
-30
-31
-32
-33
-34
-35
-33
-31
-30
-29
-29
-29
-29
-29
-30
-31
-31
-31
-31
-31
-32
-32
-30
-30
-32
-33
-33
-32
-30
-30
-33
-34
-35
-35
-35
-36
-37
-35
-33
-34
-35
-37
-39
-37
-35
-36
-37
-37
-37
-37
-37
-40
-40
-37
-35
-35
-36
-38
-37
-34
-33
-34
-36
-38
-39
-38
-37
-38
-38
-36
-35
-35
-36
-37
-36
-35
-35
-35
-35
-35
-35
-35
-36
-37
-35
-33
-34
-35
-35
-35
-33
-31
-31
-31
-32
-33
-32
-32
-34
-34
-32
-31
-31
-31
-31
-31
-31
-31
-30
-29
-29
-29
-29
-30
-31
-30
-29
-28
-27
-27
-27
-27
-27
-26
-25
-25
-25
-21
-19
-17
-15
-14
-11
-6
-1
4
9
13
14
11
8
4
1
-3
-10
-17
-19
-20
-22
-24
-25
-25
-24
-22
-21
-19
-16
-13
-10
-4
27
63
132
197
251
261
138
27
-53
-110
-122
-120
-95
-72
-49
-35
-28
-25
-24
-23
-24
-25
-25
-24
-22
-21
-21
-21
-20
-19
-19
-20
-22
-21
-18
-17
-17
-15
-15
-13
-11
-10
-9
-9
-9
-7
-5
-5
-5
-2
1
1
1
3
6
9
11
12
13
14
17
21
23
23
25
29
32
34
36
38
41
44
45
46
48
50
52
54
54
53
53
53
50
47
45
43
37
32
27
22
16
10
6
2
-3
-7
-8
-9
-11
-13
-14
-15
-15
-15
-15
-15
-15
-14
-12
-12
-14
-14
-12
-11
-11
-11
-12
-12
-10
-9
-11
-12
-13
-12
-11
-13
-15
-13
-11
-11
-11
-12
-13
-12
-11
-12
-13
-14
-15
-15
-15
-18
-19
-18
-17
-17
-17
-18
-19
-18
-17
-17
-17
-18
-19
-19
-20
-22
-22
-20
-19
-19
-18
-19
-18
-17
-17
-17
-18
-19
-19
-19
-20
-21
-19
-17
-17
-17
-17
-17
-16
-15
-15
-15
-16
-17
-16
-16
-18
-18
-16
-15
-15
-15
-15
-15
-14
-13
-13
-13
-14
-15
-16
-17
-17
-15
-13
-13
-13
-14
-15
-13
-11
-11
-11
-12
-13
-13
-13
-14
-15
-13
-11
-11
-11
-12
-12
-10
-9
-9
-9
-9
-7
-3
-1
0
3
6
11
16
20
24
25
26
25
21
17
13
8
3
-3
-9
-10
-11
-12
-13
-14
-15
-13
-11
-9
-6
-2
3
8
38
96
156
220
243
235
145
7
-71
-119
-120
-100
-76
-50
-32
-16
-14
-16
-17
-16
-15
-15
-17
-19
-17
-15
-15
-15
-14
-13
-13
-13
-13
-13
-12
-11
-11
-11
-10
-9
-8
-7
-6
-5
-4
-2
0
1
0
1
4
5
5
5
6
9
12
14
16
17
18
21
24
26
27
31
35
38
41
42
43
47
51
52
53
55
57
58
59
59
59
59
58
55
51
47
43
39
33
26
20
15
9
3
-2
-6
-8
-10
-12
-14
-17
-20
-21
-21
-21
-21
-21
-21
-21
-21
-23
-25
-23
-21
-20
-19
-20
-21
-20
-19
-18
-17
-18
-19
-19
-19
-22
-23
-22
-21
-21
-21
-21
-21
-20
-19
-20
-21
-22
-23
-24
-25
-26
-26
-24
-24
-23
-27
-27
-26
-25
-25
-25
-27
-29
-29
-29
-30
-31
-29
-27
-27
-27
-27
-27
-27
-27
-26
-25
-26
-27
-27
-27
-28
-29
-28
-27
-27
-27
-27
-27
-26
-25
-26
-27
-27
-27
-27
-28
-29
-28
-27
-27
-27
-26
-25
-24
-23
-23
-23
-24
-25
-25
-25
-26
-27
-26
-25
-25
-25
-25
-25
-24
-23
-23
-23
-24
-25
-25
-26
-28
-27
-24
-23
-24
-25
-26
-26
-24
-23
-23
-24
-25
-24
-23
-25
-27
-23
-19
-17
-15
-12
-9
-7
-4
0
5
10
13
12
10
7
4
1
-4
-10
-15
-19
-21
-22
-24
-26
-27
-27
-27
-26
-24
-22
-17
-12
0
-11
77
142
215
274
200
120
9
-86
-115
-133
-112
-90
-65
-44
-33
-25
-27
-29
-28
-27
-28
-29
-29
-29
-28
-27
-28
-29
-28
-27
-27
-27
-27
-26
-24
-23
-23
-23
-22
-21
-20
-20
-21
-19
-17
-15
-13
-13
-13
-11
-9
-7
-5
-5
-5
-3
-1
0
2
5
7
9
12
14
16
19
22
25
27
28
31
34
35
36
39
42
43
44
45
44
43
44
43
39
35
31
25
19
12
5
2
-2
-7
-12
-17
-21
-23
-25
-27
-29
-30
-31
-33
-35
-36
-36
-34
-33
-34
-35
-35
-35
-34
-33
-33
-33
-33
-33
-32
-32
-34
-35
-34
-33
-33
-34
-35
-34
-33
-34
-35
-35
-35
-36
-37
-38
-39
-38
-37
-38
-39
-40
-41
-40
-39
-40
-41
-41
-41
-41
-42
-44
-43
-40
-40
-42
-43
-43
-43
-42
-41
-41
-41
-41
-41
-41
-43
-45
-44
-43
-43
-43
-43
-43
-42
-41
-41
-41
-42
-43
-42
-41
-43
-45
-43
-41
-41
-41
-41
-41
-41
-41
-41
-41
-41
-41
-40
-40
-42
-42
-40
-39
-40
-41
-40
-39
-38
-37
-39
-39
-39
-38
-37
-38
-39
-39
-39
-38
-37
-36
-35
-36
-37
-37
-37
-37
-37
-36
-35
-36
-37
-36
-35
-35
-35
-36
-34
-29
-26
-24
-23
-22
-17
-10
-6
-2
-1
-1
-1
-1
-8
-13
-17
-21
-25
-29
-32
-35
-35
-35
-36
-37
-36
-34
-31
-28
-24
-18
-10
24
86
147
207
218
190
112
2
-71
-123
-132
-120
-100
-76
-58
-42
-39
-38
-37
-38
-39
-39
-39
-39
-37
-35
-36
-37
-37
-37
-35
-33
-33
-33
-32
-31
-31
-31
-31
-31
-29
-27
-25
-23
-23
-23
-22
-20
-18
-17
-17
-16
-14
-13
-12
-10
-8
-6
-4
-2
0
2
4
6
9
12
15
16
17
20
23
25
27
29
31
34
37
37
37
36
35
33
30
27
24
21
17
13
9
3
-2
-7
-11
-15
-18
-20
-23
-26
-30
-34
-35
-34
-33
-33
-33
-33
-31
-31
-31
-31
-30
-29
-29
-29
-32
-35
-33
-31
-31
-31
-32
-33
-31
-29
-31
-33
-33
-32
-30
-30
-33
-35
-34
-33
-32
-31
-31
-31
-32
-33
-33
-33
-34
-35
-35
-35
-36
-37
-37
-36
-35
-36
-37
-36
-35
-35
-35
-36
-37
-35
-33
-35
-37
-36
-35
-35
-35
-34
-33
-34
-34
-32
-31
-32
-33
-33
-33
-33
-33
-32
-31
-30
-29
-30
-31
-32
-32
-30
-29
-29
-30
-31
-30
-29
-29
-29
-28
-27
-28
-29
-30
-31
-29
-27
-27
-27
-27
-27
-27
-27
-27
-27
-26
-25
-25
-25
-26
-26
-24
-23
-23
-23
-24
-25
-24
-23
-23
-23
-23
-23
-23
-22
-21
-18
-15
-11
-7
-8
-9
-3
2
7
11
13
15
13
11
9
6
3
-1
-6
-11
-16
-19
-20
-22
-24
-24
-22
-21
-20
-17
-14
-9
-2
18
40
98
161
227
293
184
71
-20
-105
-117
-124
-100
-75
-49
-28
-23
-19
-20
-21
-23
-25
-24
-23
-22
-21
-21
-21
-20
-19
-19
-19
-18
-17
-17
-17
-17
-17
-16
-14
-12
-11
-11
-10
-8
-7
-6
-5
-3
-1
1
0
-1
3
7
8
9
10
11
14
17
19
21
23
26
29
31
31
33
38
42
45
48
50
52
54
55
55
55
55
55
56
53
48
47
46
42
38
32
37
20
15
9
3
-1
-5
-8
-11
-15
-19
-19
-19
-19
-19
-20
-21
-20
-19
-20
-21
-21
-21
-20
-20
-22
-22
-20
-19
-18
-17
-17
-17
-18
-19
-18
-17
-17
-17
-18
-19
-20
-21
-21
-20
-19
-20
-21
-20
-19
-20
-21
-21
-21
-22
-23
-24
-25
-25
-25
-25
-25
-25
-25
-25
-25
-24
-23
-24
-25
-25
-25
-25
-25
-25
-25
-25
-25
-25
-25
-25
-25
-25
-25
-23
-23
-23
-23
-23
-24
-25
-23
-21
-22
-23
-23
-23
-22
-21
-21
-21
-21
-21
-22
-23
-23
-23
-22
-21
-21
-21
-21
-21
-20
-19
-19
-19
-19
-20
-22
-23
-22
-21
-20
-19
-19
-19
-19
-19
-19
-18
-17
-17
-17
-19
-21
-20
-19
-18
-17
-18
-19
-18
-17
-17
-17
-17
-17
-17
-16
-14
-11
-7
-5
-4
-1
3
9
15
17
18
17
14
13
12
5
-2
-7
-11
-13
-15
-16
-17
-18
-19
-19
-19
-18
-16
-12
-9
-7
4
29
72
138
200
256
224
101
1
-80
-115
-119
-106
-81
-59
-39
-28
-21
-19
-19
-19
-20
-21
-20
-19
-19
-19
-19
-19
-19
-20
-21
-20
-19
-17
-15
-14
-13
-13
-13
-11
-9
-9
-9
-9
-9
-8
-7
-6
-4
-1
1
2
3
4
6
8
10
12
13
14
16
18
20
22
25
28
30
29
35
37
40
43
46
49
50
51
53
55
55
55
57
59
58
57
55
52
48
43
38
32
26
21
15
9
2
-2
-4
-7
-10
-12
-14
-15
-16
-17
-18
-19
-20
-21
-20
-21
-23
-20
-17
-18
-19
-19
-19
-17
-15
-15
-15
-16
-17
-17
-17
-19
-21
-19
-17
-18
-19
-20
-21
-20
-19
-19
-19
-20
-21
-22
-23
-23
-23
-22
-21
-22
-23
-24
-25
-24
-23
-23
-24
-25
-24
-23
-24
-25
-24
-23
-23
-23
-24
-25
-23
-21
-21
-21
-22
-23
-23
-23
-24
-25
-24
-23
-23
-23
-24
-25
-24
-23
-23
-23
-23
-23
-24
-25
-25
-25
-24
-23
-23
-23
-23
-23
-23
-22
-21
-21
-21
-23
-25
-24
-23
-23
-23
-23
-23
-23
-23
-22
-21
-22
-23
-23
-23
-24
-25
-24
-23
-23
-23
-22
-21
-21
-21
-21
-21
-22
-23
-22
-22
-24
-23
-21
-21
-21
-21
-21
-21
-21
-21
-21
-20
-19
-17
-15
-13
-11
-9
-5
0
5
10
13
14
14
11
8
6
1
-6
-11
-15
-18
-20
-22
-24
-25
-25
-24
-22
-21
-21
-20
-17
-11
-4
28
63
127
189
240
258
145
39
-44
-106
-116
-116
-93
-71
-48
-34
-31
-29
-29
-29
-29
-29
-29
-29
-29
-29
-28
-27
-27
-27
-26
-25
-26
-27
-26
-24
-22
-21
-21
-20
-19
-19
-19
-17
-15
-14
-13
-15
-17
-12
-9
-8
-7
-6
-5
-3
-1
1
3
6
8
10
11
11
13
17
20
22
25
28
31
34
36
38
40
42
43
44
45
44
43
43
41
39
37
35
31
26
19
12
7
2
-3
-8
-13
-17
-19
-21
-23
-25
-26
-27
-28
-29
-29
-29
-30
-31
-30
-30
-32
-33
-32
-31
-30
-29
-29
-29
-28
-27
-28
-29
-29
-29
-29
-30
-31
-30
-29
-28
-27
-28
-29
-29
-29
-30
-31
-31
-31
-32
-33
-35
-37
-36
-35
-34
-33
-34
-35
-35
-35
-35
-35
-35
-35
-35
-35
-36
-37
-37
-37
-36
-35
-35
-34
-35
-34
-33
-34
-35
-35
-35
-34
-33
-35
-37
-36
-35
-35
-35
-36
-37
-35
-33
-33
-33
-34
-35
-34
-33
-34
-35
-34
-33
-33
-33
-33
-32
-30
-29
-30
-31
-31
-31
-31
-33
-35
-34
-33
-32
-31
-31
-31
-30
-29
-30
-31
-31
-31
-30
-29
-31
-33
-31
-29
-29
-29
-29
-29
-29
-29
-28
-27
-28
-28
-26
-25
-24
-19
-14
-14
-16
-13
-8
-1
6
7
9
6
3
1
-1
-8
-15
-18
-21
-24
-27
-29
-31
-29
-27
-26
-25
-24
-22
-19
-15
-10
24
82
146
213
222
195
111
1
-68
-120
-123
-108
-87
-65
-48
-33
-31
-30
-29
-29
-29
-29
-29
-29
-29
-29
-29
-29
-29
-29
-27
-25
-24
-23
-23
-23
-21
-19
-18
-17
-17
-17
-16
-15
-15
-14
-11
-9
-8
-7
-6
-4
-2
0
2
3
3
4
6
7
7
11
15
17
19
23
27
29
31
34
37
38
39
41
43
43
43
44
45
46
47
46
44
41
38
35
31
27
22
15
9
3
-2
-6
-8
-10
-12
-14
-16
-18
-19
-20
-21
-21
-21
-21
-21
-21
-22
-23
-21
-19
-18
-17
-18
-19
-18
-17
-17
-17
-18
-19
-18
-17
-18
-18
-16
-15
-16
-17
-18
-19
-18
-17
-17
-17
-18
-19
-19
-19
-20
-21
-21
-21
-21
-22
-23
-21
-19
-20
-21
-21
-21
-21
-21
-22
-23
-21
-19
-20
-21
-21
-21
-20
-19
-19
-19
-19
-19
-19
-20
-22
-22
-20
-19
-19
-19
-20
-19
-16
-15
-16
-17
-18
-19
-19
-20
-21
-18
-15
-16
-17
-17
-17
-15
-13
-14
-15
-15
-15
-15
-15
-16
-17
-15
-13
-13
-14
-16
-16
-13
-11
-11
-11
-12
-13
-13
-13
-14
-14
-12
-11
-11
-11
-12
-13
-12
-11
-9
-10
-11
-11
-11
-11
-11
-9
-7
-7
-7
-5
-2
3
7
7
9
14
18
22
25
24
23
23
22
19
13
6
2
0
-3
-6
-8
-10
-11
-11
-12
-14
-11
-6
-2
-5
6
11
61
113
180
239
238
213
79
-35
-91
-126
-108
-87
-61
-39
-23
-13
-12
-11
-12
-13
-13
-13
-13
-13
-14
-14
-12
-11
-11
-11
-11
-10
-8
-7
-7
-7
-7
-7
-6
-5
-5
-2
1
1
1
1
1
4
7
8
9
10
11
13
15
16
17
19
21
23
26
28
30
33
36
39
42
44
46
48
50
52
55
58
59
60
62
64
65
65
65
63
60
57
53
49
43
37
32
26
20
14
8
3
1
-2
-6
-9
-10
-11
-12
-13
-16
-17
-16
-15
-15
-16
-18
-18
-16
-15
-15
-15
-15
-15
-14
-13
-14
-15
-14
-13
-13
-14
-15
-14
-13
-13
-13
-14
-15
-16
-17
-18
-19
-17
-15
-17
-19
-20
-21
-20
-19
-19
-19
-20
-21
-21
-21
-22
-23
-22
-21
-21
-21
-22
-23
-22
-21
-21
-21
-21
-21
-22
-23
-23
-22
-21
-22
-23
-23
-23
-22
-21
-21
-21
-21
-21
-21
-21
-22
-23
-22
-21
-21
-21
-22
-23
-22
-21
-21
-21
-21
-21
-21
-22
-24
-24
-22
-21
-21
-21
-21
-21
-21
-21
-19
-20
-21
-21
-21
-21
-21
-21
-21
-20
-19
-20
-21
-20
-19
-19
-19
-20
-21
-19
-17
-20
-21
-20
-19
-19
-19
-20
-20
-18
-17
-18
-17
-14
-11
-8
-7
-7
-2
4
8
5
14
15
14
13
11
9
2
-3
-7
-12
-17
-21
-21
-21
-21
-21
-22
-23
-21
-18
-15
-11
-6
16
49
101
165
217
263
188
61
-29
-107
-123
-122
-101
-76
-54
-33
-27
-22
-24
-27
-26
-25
-25
-25
-26
-27
-25
-23
-23
-23
-23
-23
-22
-21
-22
-23
-21
-19
-19
-19
-19
-18
-16
-15
-14
-12
-10
-9
-8
-7
-8
-7
-4
-3
-2
0
2
3
4
6
9
10
11
13
15
18
21
24
27
30
33
36
39
40
41
43
45
46
47
48
49
48
47
46
43
39
34
29
24
19
13
7
1
-5
-9
-12
-17
-22
-23
-24
-26
-25
-31
-33
-32
-31
-31
-31
-31
-31
-31
-31
-31
-31
-31
-31
-30
-29
-29
-29
-29
-29
-30
-31
-31
-31
-31
-32
-34
-35
-34
-33
-32
-32
-34
-35
-34
-33
-34
-35
-35
-35
-35
-37
-39
-38
-37
-37
-37
-37
-37
-37
-37
-37
-37
-38
-39
-38
-37
-39
-41
-39
-37
-38
-39
-39
-39
-38
-37
-37
-37
-38
-39
-39
-39
-40
-40
-38
-37
-38
-39
-39
-38
-36
-35
-37
-37
-37
-37
-37
-39
-41
-38
-35
-35
-35
-37
-39
-37
-35
-35
-35
-36
-37
-37
-37
-40
-39
-35
-33
-34
-35
-35
-35
-34
-33
-33
-33
-33
-33
-34
-35
-36
-36
-34
-33
-33
-34
-35
-33
-31
-31
-31
-32
-33
-31
-29
-27
-25
-22
-18
-15
-12
-8
-3
3
6
1
-1
-2
-5
-9
-15
-24
-28
-30
-33
-36
-37
-36
-34
-32
-31
-30
-28
-26
-21
-16
-3
11
80
150
217
266
178
89
-9
-91
-118
-134
-112
-90
-67
-49
-42
-37
-36
-35
-36
-37
-38
-38
-36
-35
-35
-35
-34
-33
-32
-32
-34
-33
-30
-29
-28
-27
-28
-28
-26
-25
-23
-23
-23
-21
-19
-19
-19
-17
-15
-14
-13
-12
-11
-9
-7
-6
-4
-1
1
3
5
5
7
11
14
17
20
22
25
28
30
32
33
34
35
36
37
38
39
39
38
39
32
29
24
19
14
9
4
-1
-7
-11
-16
-19
-21
-24
-27
-29
-31
-33
-32
-31
-32
-33
-33
-32
-30
-30
-32
-33
-32
-31
-31
-31
-30
-29
-29
-29
-29
-29
-30
-31
-30
-31
-33
-32
-31
-30
-29
-30
-31
-30
-29
-29
-29
-30
-31
-32
-33
-34
-35
-34
-33
-33
-33
-34
-35
-34
-33
-33
-33
-34
-35
-35
-36
-38
-38
-36
-35
-34
-33
-33
-33
-33
-33
-33
-33
-33
-34
-35
-35
-35
-34
-33
-33
-33
-33
-33
-32
-31
-31
-31
-31
-31
-30
-29
-32
-33
-32
-31
-31
-31
-31
-30
-28
-27
-28
-29
-29
-29
-29
-29
-30
-30
-28
-27
-27
-27
-27
-25
-23
-23
-23
-25
-27
-26
-25
-26
-27
-25
-23
-23
-23
-24
-25
-23
-21
-20
-18
-15
-12
-10
-9
-9
-4
4
9
13
14
12
11
11
8
4
-2
-8
-11
-14
-19
-23
-22
-21
-21
-21
-20
-19
-15
-10
-5
3
21
54
123
190
256
255
154
55
-42
-102
-124
-121
-94
-70
-46
-32
-22
-19
-20
-22
-24
-24
-22
-20
-18
-17
-18
-19
-19
-19
-17
-17
-17
-15
-13
-15
-17
-15
-13
-12
-11
-11
-11
-8
-5
-4
-3
-2
-1
0
1
1
2
5
7
8
9
10
13
16
18
20
22
24
27
30
31
31
34
38
41
39
46
47
51
55
56
57
57
57
58
59
56
53
52
50
46
41
35
30
26
21
14
9
5
1
-3
-7
-11
-13
-13
-14
-16
-17
-17
-17
-16
-15
-15
-15
-15
-15
-15
-16
-17
-15
-13
-13
-13
-14
-15
-14
-13
-13
-13
-14
-15
-14
-13
-15
-17
-16
-15
-15
-16
-18
-18
-16
-15
-16
-17
-18
-19
-19
-20
-22
-22
-20
-19
-20
-21
-22
-22
-20
-19
-21
-21
-21
-20
-19
-20
-21
-21
-21
-21
-21
-22
-23
-21
-19
-19
-19
-20
-21
-21
-21
-22
-23
-22
-21
-20
-19
-20
-21
-20
-19
-19
-19
-20
-21
-21
-21
-22
-22
-20
-19
-19
-19
-19
-18
-17
-18
-19
-18
-17
-17
-17
-19
-21
-19
-17
-17
-17
-17
-17
-16
-15
-15
-15
-16
-17
-16
-16
-18
-18
-16
-15
-15
-15
-16
-16
-14
-13
-14
-15
-15
-12
-8
-5
-3
-1
1
6
11
15
19
21
23
19
15
12
8
3
-2
-7
-11
-13
-15
-17
-19
-19
-18
-16
-15
-14
-12
-10
-6
-1
13
31
88
157
224
290
201
88
-5
-96
-111
-125
-102
-78
-54
-33
-27
-21
-20
-19
-20
-21
-22
-23
-21
-19
-19
-19
-19
-19
-19
-19
-20
-20
-18
-17
-16
-15
-15
-13
-10
-9
-9
-9
-8
-7
-6
-5
-5
-4
-2
-1
-1
3
5
6
7
9
11
13
15
16
17
19
21
24
28
31
34
37
40
43
45
48
50
52
54
56
57
56
56
58
58
56
52
48
45
42
36
30
23
16
11
6
-1
-7
-9
-11
-13
-15
-17
-19
-18
-17
-18
-19
-19
-19
-20
-21
-22
-23
-21
-19
-18
-17
-18
-18
-16
-15
-15
-16
-18
-19
-18
-17
-18
-19
-18
-17
-17
-18
-20
-21
-20
-19
-19
-20
-21
-20
-19
-21
-23
-22
-21
-22
-23
-24
-25
-24
-23
-23
-23
-23
-23
-23
-23
-24
-25
-24
-23
-24
-25
-24
-23
-23
-23
-23
-23
-23
-23
-22
-22
-24
-25
-24
-23
-23
-23
-23
-22
-21
-22
-23
-23
-23
-22
-21
-23
-25
-23
-21
-22
-23
-23
-23
-22
-21
-21
-21
-21
-21
-21
-21
-22
-23
-22
-21
-21
-21
-22
-22
-20
-19
-20
-21
-21
-21
-20
-21
-23
-22
-21
-21
-21
-21
-21
-19
-17
-18
-19
-19
-19
-18
-17
-19
-21
-19
-17
-15
-12
-9
-6
-4
-1
3
7
11
15
18
16
12
11
10
4
-2
-7
-12
-13
-14
-18
-23
-22
-21
-21
-21
-23
-25
-20
-14
-8
-2
5
30
95
165
242
259
180
90
-15
-85
-120
-126
-105
-82
-58
-42
-30
-24
-22
-23
-26
-27
-27
-27
-27
-28
-30
-29
-26
-25
-25
-24
-25
-23
-21
-21
-21
-20
-19
-19
-19
-19
-19
-17
-15
-14
-13
-12
-10
-7
-5
-5
-5
-4
-3
-2
-1
-1
1
5
7
8
11
14
17
20
23
26
27
28
32
36
37
37
41
45
47
49
49
49
51
53
50
47
45
42
38
33
26
19
14
9
3
-3
-7
-10
-13
-16
-19
-22
-24
-25
-26
-27
-27
-27
-27
-27
-27
-27
-27
-26
-24
-23
-25
-25
-25
-25
-25
-26
-27
-26
-25
-25
-25
-26
-27
-26
-25
-25
-25
-26
-27
-26
-25
-28
-29
-28
-27
-28
-29
-30
-31
-30
-29
-30
-31
-31
-31
-31
-31
-32
-33
-32
-31
-31
-33
-35
-32
-29
-30
-31
-31
-31
-31
-31
-33
-35
-33
-31
-31
-31
-31
-31
-30
-29
-30
-31
-31
-31
-30
-30
-33
-34
-32
-31
-30
-29
-30
-31
-31
-31
-30
-29
-28
-27
-28
-30
-31
-30
-29
-29
-29
-30
-31
-30
-29
-29
-29
-29
-29
-29
-29
-29
-29
-28
-27
-26
-25
-25
-25
-25
-25
-26
-27
-27
-27
-26
-26
-28
-28
-26
-24
-22
-20
-18
-16
-14
-12
-9
-3
3
7
11
8
5
7
8
3
-2
-9
-15
-18
-21
-23
-25
-25
-25
-25
-25
-28
-27
-22
-17
-13
-7
0
45
109
175
243
228
187
89
-23
-83
-134
-121
-100
-80
-99
-45
-31
-28
-25
-27
-29
-30
-31
-30
-29
-29
-29
-27
-25
-25
-25
-25
-25
-23
-21
-21
-21
-20
-19
-18
-18
-20
-19
-15
-13
-13
-13
-13
-10
-6
-5
-5
-5
-4
-3
-2
0
1
4
7
9
11
12
13
17
21
23
25
26
27
31
33
34
36
40
43
44
45
45
46
48
48
46
44
40
37
34
30
25
20
16
10
4
0
-4
-7
-10
-13
-17
-19
-21
-22
-23
-24
-25
-24
-23
-22
-21
-22
-23
-21
-19
-19
-19
-19
-19
-20
-21
-22
-22
-20
-19
-19
-19
-20
-21
-20
-19
-20
-21
-21
-21
-20
-20
-22
-23
-22
-21
-21
-22
-23
-22
-21
-22
-23
-25
-27
-26
-25
-27
-29
-26
-23
-24
-25
-25
-25
-24
-23
-23
-23
-24
-25
-24
-24
-26
-26
-24
-23
-24
-25
-25
-25
-24
-23
-23
-23
-23
-23
-22
-22
-23
-22
-21
-21
-21
-22
-23
-21
-19
-19
-19
-20
-21
-20
-19
-21
-23
-21
-19
-18
-17
-18
-19
-19
-19
-18
-17
-17
-17
-16
-16
-18
-18
-16
-15
-15
-15
-16
-17
-16
-15
-13
-14
-15
-14
-13
-14
-15
-13
-11
-8
-5
-3
-1
2
6
11
16
19
21
20
19
16
14
12
8
2
-3
-7
-10
-12
-13
-14
-15
-15
-15
-14
-12
-10
-3
4
7
5
69
128
204
270
231
180
53
-58
-99
-127
-106
-84
-59
-37
-22
-13
-13
-13
-13
-13
-14
-15
-14
-13
-13
-13
-14
-14
-12
-11
-11
-11
-11
-11
-10
-9
-8
-7
-6
-5
-5
-4
-3
-1
1
2
3
3
3
6
9
9
9
11
13
15
17
17
18
22
25
27
29
30
33
37
40
42
44
48
51
54
55
55
58
62
63
63
63
63
63
63
62
59
54
49
43
37
31
25
21
16
11
6
2
-1
-3
-5
-7
-9
-11
-13
-13
-13
-16
-16
-14
-13
-13
-13
-14
-14
-12
-11
-11
-11
-11
-11
-10
-10
-12
-13
-12
-11
-11
-12
-13
-12
-11
-11
-11
-12
-13
-13
-13
-14
-15
-14
-13
-14
-15
-16
-17
-16
-15
-15
-15
-16
-17
-17
-18
-20
-20
-18
-17
-17
-17
-18
-18
-16
-15
-15
-15
-16
-17
-16
-17
-19
-17
-15
-16
-17
-18
-19
-17
-15
-15
-15
-16
-17
-16
-15
-17
-19
-17
-15
-15
-15
-16
-16
-14
-13
-13
-13
-14
-15
-15
-16
-18
-18
-16
-15
-15
-15
-15
-15
-14
-13
-15
-15
-15
-15
-15
-16
-17
-16
-15
-14
-13
-14
-15
-14
-13
-13
-13
-14
-15
-15
-15
-15
-14
-12
-10
-8
-6
-3
0
2
5
10
14
20
21
22
20
16
15
15
11
15
0
-5
-7
-9
-12
-15
-15
-15
-15
-15
-16
-16
-10
-4
0
10
31
71
139
205
269
241
123
19
-76
-115
-119
-103
-76
-52
-29
-21
-18
-17
-16
-15
-16
-17
-18
-18
-16
-17
-19
-18
-17
-16
-15
-16
-17
-14
-11
-11
-11
-11
-11
-10
-9
-9
-9
-7
-5
-4
-3
-2
0
2
3
4
5
6
8
10
11
11
13
16
18
20
21
22
26
30
32
35
38
41
43
45
46
47
50
53
54
55
56
57
57
57
55
52
48
43
38
32
25
19
14
9
3
-2
-7
-10
-12
-15
-18
-19
-19
-19
-20
-21
-22
-23
-22
-21
-21
-22
-23
-22
-21
-20
-19
-20
-21
-20
-19
-20
-21
-20
-19
-19
-19
-20
-21
-21
-21
-21
-21
-22
-23
-23
-23
-24
-25
-24
-23
-24
-25
-24
-23
-24
-25
-26
-27
-27
-27
-27
-28
-29
-28
-27
-28
-29
-29
-29
-28
-27
-28
-29
-29
-29
-29
-29
-29
-29
-28
-27
-28
-29
-29
-29
-28
-27
-28
-29
-29
-29
-29
-29
-30
-31
-30
-29
-29
-29
-29
-29
-29
-29
-27
-28
-29
-28
-27
-28
-29
-28
-27
-28
-29
-30
-31
-28
-25
-26
-27
-27
-27
-27
-27
-28
-29
-28
-27
-26
-26
-28
-28
-26
-25
-25
-25
-25
-25
-26
-27
-28
-28
-26
-25
-25
-25
-25
-24
-23
-20
-17
-15
-13
-12
-11
-6
-2
4
9
9
9
7
4
1
-3
-10
-15
-19
-22
-25
-28
-30
-30
-28
-27
-28
-29
-28
-22
-15
-11
-8
44
103
174
245
218
186
66
-48
-95
-136
-121
-105
-82
-60
-45
-33
-31
-29
-31
-33
-34
-35
-33
-31
-32
-33
-34
-34
-31
-29
-28
-27
-28
-29
-29
-29
-28
-27
-26
-24
-22
-21
-20
-19
-18
-17
-17
-16
-15
-14
-13
-11
-9
-7
-5
-4
-3
-1
1
4
7
7
7
9
11
13
16
21
24
26
28
31
33
34
36
38
40
42
43
43
43
42
38
34
32
30
25
29
13
7
2
-3
-7
-11
-15
-19
-22
-25
-30
-33
-33
-33
-33
-33
-34
-35
-34
-33
-33
-33
-34
-34
-32
-32
-34
-34
-32
-31
-31
-31
-32
-33
-32
-31
-32
-33
-34
-34
-32
-33
-35
-34
-33
-33
-33
-34
-35
-35
-35
-36
-37
-37
-37
-36
-35
-37
-39
-38
-37
-37
-37
-38
-39
-39
-39
-38
-37
-38
-39
-38
-38
-40
-40
-38
-37
-37
-37
-38
-39
-38
-37
-37
-37
-37
-37
-37
-39
-41
-38
-35
-36
-37
-37
-37
-36
-35
-36
-37
-37
-37
-36
-35
-36
-37
-36
-35
-35
-35
-36
-37
-36
-35
-34
-33
-34
-35
-34
-34
-36
-36
-34
-33
-33
-34
-35
-33
-31
-32
-33
-33
-33
-32
-31
-33
-35
-33
-31
-31
-31
-30
-29
-28
-27
-26
-23
-19
-17
-17
-16
-14
-7
2
5
6
4
0
0
2
-1
-6
-13
-20
-24
-28
-31
-33
-31
-29
-29
-29
-28
-27
-21
-17
-14
0
43
92
153
204
236
205
80
-20
-90
-125
-125
-111
-84
-61
-41
-32
-30
-29
-30
-31
-32
-33
-32
-31
-30
-29
-29
-29
-28
-27
-27
-26
-25
-24
-23
-23
-23
-21
-19
-18
-17
-17
-17
-15
-13
-12
-11
-10
-9
-8
-7
-6
-4
-2
-1
0
2
4
6
8
10
12
15
18
19
20
23
26
29
32
35
33
40
41
44
47
47
47
47
47
45
43
41
39
37
33
27
22
18
13
8
4
-1
-5
-10
-13
-14
-16
-19
-21
-21
-21
-22
-23
-24
-24
-22
-21
-20
-19
-20
-21
-21
-22
-23
-21
-19
-19
-19
-20
-21
-19
-17
-17
-17
-18
-19
-18
-17
-19
-21
-19
-17
-18
-19
-20
-20
-18
-18
-20
-21
-21
-21
-21
-22
-24
-24
-22
-21
-22
-23
-24
-25
-24
-23
-23
-23
-23
-24
-25
-26
-27
-25
-23
-23
-23
-23
-23
-22
-21
-21
-21
-22
-23
-22
-21
-24
-24
-22
-21
-21
-21
-22
-22
-20
-19
-19
-19
-20
-21
-20
-19
-20
-20
-18
-17
-17
-19
-19
-18
-17
-17
-17
-18
-19
-18
-17
-17
-17
-17
-17
-16
-15
-15
-15
-14
-13
-14
-15
-14
-14
-16
-17
-16
-15
-14
-13
-13
-13
-13
-13
-13
-13
-13
-13
-12
-9
-6
-3
-1
1
3
8
13
17
21
22
23
20
17
14
10
6
1
-5
-9
-10
-11
-12
-13
-13
-13
-13
-12
-10
-6
-1
4
9
56
117
184
253
231
189
75
-49
-92
-127
-111
-91
-65
-41
-28
-17
-17
-17
-17
-17
-17
-17
-17
-17
-16
-15
-15
-15
-15
-15
-14
-13
-13
-13
-12
-11
-11
-11
-10
-8
-6
-5
-5
-5
-4
-2
0
1
1
3
6
7
7
8
9
11
13
15
17
19
21
23
25
27
29
32
36
39
41
43
46
49
51
54
55
56
58
60
61
60
59
60
59
56
52
48
44
40
35
30
23
16
12
8
1
-5
-6
-7
-10
-13
-16
-19
-18
-17
-18
-19
-20
-21
-20
-19
-20
-21
-19
-17
-17
-17
-18
-19
-18
-17
-16
-15
-15
-15
-15
-16
-18
-19
-18
-17
-17
-18
-20
-20
-18
-17
-17
-18
-19
-19
-19
-21
-23
-22
-21
-21
-21
-22
-23
-22
-21
-22
-23
-22
-21
-21
-21
-24
-25
-24
-23
-22
-21
-22
-23
-22
-21
-21
-21
-21
-21
-21
-21
-22
-23
-22
-21
-21
-21
-21
-20
-19
-19
-19
-20
-21
-21
-21
-22
-23
-22
-21
-21
-21
-21
-21
-19
-17
-17
-17
-18
-19
-20
-21
-22
-21
-18
-17
-17
-17
-18
-19
-18
-17
-17
-17
-18
-19
-18
-18
-19
-17
-15
-15
-15
-16
-17
-15
-13
-14
-15
-15
-15
-15
-15
-17
-18
-15
-13
-13
-13
-13
-11
-6
-2
0
1
1
4
9
13
16
19
22
21
18
15
12
8
4
-1
-7
-11
-15
-16
-17
-18
-19
-17
-15
-12
-8
-4
0
6
32
94
163
239
258
198
110
-9
-82
-115
-116
-94
-69
-44
-28
-17
-13
-14
-16
-18
-19
-19
-19
-18
-17
-16
-15
-15
-16
-17
-15
-13
-12
-11
-12
-13
-12
-11
-10
-9
-7
-5
-5
-5
-4
-3
-1
1
2
3
4
5
6
7
8
11
14
15
16
19
22
24
26
28
30
32
34
37
40
43
45
47
49
52
55
55
55
58
61
61
61
59
57
55
52
47
42
38
33
28
22
16
11
7
3
-1
-5
-9
-11
-12
-14
-16
-17
-18
-19
-19
-19
-20
-20
-18
-17
-17
-17
-17
-16
-15
-17
-19
-17
-15
-16
-17
-18
-19
-17
-15
-16
-17
-17
-17
-16
-15
-18
-19
-19
-19
-19
-19
-20
-21
-20
-19
-19
-19
-20
-21
-21
-22
-24
-24
-22
-21
-21
-22
-23
-22
-21
-21
-21
-22
-23
-22
-21
-23
-25
-23
-21
-21
-21
-22
-23
-22
-21
-21
-21
-22
-23
-23
-23
-24
-24
-22
-21
-22
-23
-23
-23
-22
-21
-22
-23
-23
-23
-22
-23
-25
-22
-19
-20
-21
-21
-21
-19
-17
-18
-19
-19
-19
-20
-21
-22
-23
-21
-19
-19
-19
-20
-21
-20
-19
-19
-19
-19
-19
-18
-18
-20
-20
-18
-17
-17
-18
-20
-20
-18
-17
-19
-20
-21
-19
-17
-16
-15
-10
-5
-4
-2
2
6
12
17
17
16
13
11
10
6
-3
-8
-11
-14
-17
-19
-20
-21
-20
-19
-19
-19
-18
-14
-10
-8
-6
39
88
153
91
238
251
121
-3
-68
-124
-117
-107
-82
-59
-42
-29
-26
-23
-25
-27
-26
-25
-24
-23
-23
-23
-23
-23
-23
-23
-23
-23
-22
-21
-20
-19
-19
-17
-14
-13
-14
-15
-14
-13
-12
-11
-11
-8
-5
-5
-5
-4
-3
-1
1
2
3
5
7
11
13
13
14
18
21
22
24
26
29
34
38
40
41
42
44
46
47
47
48
50
51
51
49
46
43
40
35
29
23
17
12
7
1
-5
-8
-11
-14
-17
-20
-23
-24
-25
-26
-27
-27
-27
-27
-27
-28
-29
-28
-27
-27
-27
-26
-25
-24
-23
-23
-23
-24
-25
-25
-25
-26
-27
-26
-25
-25
-26
-27
-26
-25
-26
-27
-27
-27
-27
-27
-29
-31
-30
-29
-30
-31
-32
-33
-31
-29
-30
-31
-32
-33
-33
-33
-33
-33
-32
-31
-32
-33
-33
-33
-33
-33
-32
-31
-31
-31
-31
-32
-33
-33
-33
-32
-31
-32
-33
-32
-31
-30
-29
-30
-31
-31
-31
-32
-33
-31
-29
-30
-31
-31
-31
-30
-29
-29
-29
-30
-31
-30
-29
-30
-31
-30
-29
-29
-29
-30
-30
-28
-27
-29
-29
-29
-28
-27
-29
-31
-30
-29
-28
-27
-28
-29
-27
-25
-26
-27
-26
-25
-25
-25
-25
-22
-16
-13
-14
-13
-9
-2
6
10
12
10
6
5
4
-4
-12
-14
-16
-19
-17
-25
-27
-26
-25
-24
-23
-23
-23
-20
-17
-15
1
53
109
171
217
234
195
77
-18
-84
-118
-121
-110
-87
-66
-46
-35
-29
-27
-27
-27
-28
-28
-26
-25
-26
-27
-28
-28
-26
-27
-29
-26
-23
-23
-23
-23
-23
-21
-19
-17
-15
-16
-17
-16
-15
-15
-14
-11
-9
-8
-7
-6
-4
-1
1
2
3
4
6
8
9
10
15
20
21
22
24
26
30
34
36
39
41
43
45
47
46
45
48
51
49
47
45
43
41
38
33
28
24
19
13
6
-1
-6
-8
-10
-13
-16
-18
-19
-19
-19
-20
-21
-21
-21
-21
-21
-22
-22
-20
-19
-19
-18
-19
-18
-17
-17
-17
-17
-17
-17
-17
-18
-19
-17
-15
-16
-17
-18
-19
-18
-17
-17
-17
-18
-19
-19
-19
-20
-21
-21
-21
-21
-21
-22
-23
-22
-21
-21
-21
-22
-23
-23
-24
-25
-23
-21
-22
-23
-24
-25
-23
-21
-21
-21
-21
-21
-20
-19
-21
-23
-22
-21
-20
-19
-20
-21
-20
-19
-19
-19
-19
-19
-18
-18
-20
-20
-18
-17
-17
-17
-17
-17
-16
-15
-15
-16
-17
-16
-15
-17
-19
-16
-13
-13
-13
-14
-15
-13
-11
-11
-11
-12
-13
-13
-13
-14
-14
-12
-11
-11
-11
-12
-11
-8
-8
-10
-11
-11
-11
-11
-11
-12
-12
-10
-9
-9
-4
-1
2
5
7
9
13
17
20
23
23
23
22
20
17
13
7
3
1
-2
-5
-8
-10
-11
-11
-11
-12
-10
-5
-1
3
8
12
57
112
181
253
242
221
99
-30
-82
-131
-109
-87
-62
-38
-23
-11
-9
-7
-9
-11
-12
-13
-12
-11
-12
-13
-11
-9
-9
-9
-9
-8
-6
-5
-5
-5
-5
-5
-4
-3
-4
-3
0
1
2
3
4
7
10
11
11
12
13
15
17
16
15
20
25
26
27
28
30
35
39
41
43
45
48
51
53
54
57
61
64
66
67
67
68
70
70
68
65
62
58
54
47
40
35
30
24
29
12
7
4
1
-2
-5
-7
-9
-9
-9
-12
-15
-14
-13
-13
-13
-14
-15
-13
-11
-11
-11
-12
-12
-9
-8
-11
-12
-10
-9
-9
-9
-10
-11
-10
-9
-9
-9
-10
-11
-11
-13
-15
-14
-13
-15
-17
-17
-17
-16
-15
-15
-15
-16
-17
-17
-17
-19
-21
-19
-17
-18
-19
-19
-19
-18
-17
-18
-19
-19
-19
-20
-21
-21
-21
-20
-19
-19
-19
-19
-19
-18
-17
-17
-18
-19
-18
-17
-19
-21
-20
-19
-19
-19
-19
-19
-18
-17
-17
-17
-17
-17
-17
-17
-20
-20
-17
-15
-16
-17
-18
-18
-16
-15
-15
-15
-16
-17
-16
-17
-20
-20
-18
-17
-17
-17
-17
-15
-13
-14
-15
-15
-15
-15
-15
-17
-19
-17
-15
-15
-15
-16
-17
-15
-13
-14
-15
-14
-12
-10
-8
-6
-3
0
4
9
13
16
18
20
20
18
14
10
6
2
-6
-13
-13
-13
-16
-19
-19
-19
-18
-17
-16
-14
-9
-5
-1
14
53
106
177
226
246
191
58
-37
-101
-122
-113
-94
-71
-49
-27
-21
-22
-23
-22
-21
-22
-23
-22
-21
-20
-19
-21
-20
-19
-18
-17
-19
-21
-18
-15
-15
-15
-15
-15
-13
-11
-11
-11
-9
-7
-6
-5
-5
-4
-2
-1
0
1
2
5
8
9
10
12
14
17
20
21
22
24
26
30
27
36
37
41
45
47
49
50
51
53
55
54
53
55
57
55
52
48
45
43
39
32
26
19
13
7
1
-6
-9
-10
-13
-16
-18
-20
-21
-21
-21
-21
-22
-24
-25
-25
-26
-27
-24
-21
-22
-23
-23
-23
-21
-19
-20
-21
-22
-23
-23
-23
-24
-25
-23
-21
-22
-23
-23
-23
-22
-21
-22
-23
-24
-25
-25
-27
-30
-30
-28
-27
-28
-29
-30
-30
-28
-27
-27
-28
-29
-29
-29
-32
-35
-32
-29
-30
-31
-31
-31
-30
-29
-30
-31
-31
-31
-30
-29
-32
-33
-32
-31
-31
-31
-31
-31
-31
-31
-30
-29
-29
-29
-28
-29
-32
-32
-30
-29
-29
-29
-29
-28
-27
-27
-27
-28
-29
-28
-27
-29
-31
-30
-29
-29
-29
-30
-31
-29
-27
-28
-29
-28
-27
-27
-27
-28
-29
-28
-27
-27
-27
-28
-28
-26
-25
-25
-25
-26
-27
-26
-26
-27
-24
-21
-18
-15
-15
-15
-9
-4
2
7
10
13
9
6
2
-2
-6
-11
-16
-21
-25
-27
-27
-27
-27
-27
-28
-27
-24
-23
-23
-19
-14
11
41
105
173
229
283
172
56
-27
-105
-118
-127
-107
-86
-61
-40
-34
-29
-31
-33
-32
-31
-31
-31
-31
-31
-30
-29
-30
-30
-28
-27
-28
-29
-28
-27
-26
-25
-24
-23
-22
-21
-20
-19
-19
-19
-18
-16
-17
-13
-13
-10
-7
-6
-5
-4
-3
-1
1
1
1
4
7
9
12
15
18
21
24
27
30
32
34
36
37
38
41
44
45
46
47
46
45
45
43
40
36
32
28
24
15
7
3
-1
-7
-13
-17
-21
-22
-23
-24
-25
-27
-29
-30
-31
-32
-33
-31
-29
-30
-31
-31
-30
-28
-27
-26
-25
-26
-27
-27
-27
-28
-29
-29
-29
-28
-27
-28
-28
-26
-25
-27
-28
-29
-30
-31
-31
-31
-31
-31
-31
-31
-32
-33
-32
-31
-31
-31
-32
-33
-32
-31
-34
-34
-32
-31
-31
-32
-34
-35
-34
-33
-32
-31
-31
-31
-31
-32
-34
-34
-32
-31
-31
-33
-33
-32
-31
-30
-29
-30
-31
-31
-31
-33
-35
-33
-31
-30
-29
-31
-33
-31
-29
-29
-29
-29
-29
-29
-29
-30
-29
-26
-25
-26
-28
-30
-30
-28
-27
-27
-27
-27
-27
-27
-27
-27
-25
-23
-24
-25
-26
-27
-26
-25
-25
-25
-25
-25
-24
-23
-25
-26
-22
-18
-15
-13
-13
-12
-9
-4
2
7
11
13
13
10
6
4
2
-4
-10
-14
-18
-19
-20
-21
-23
-23
-23
-22
-21
-20
-18
-11
-4
1
20
84
149
219
251
208
136
21
-64
-109
-126
-109
-88
-64
-45
-31
-25
-25
-25
-24
-23
-23
-23
-23
-23
-23
-23
-23
-23
-22
-21
-21
-19
-19
-17
-15
-14
-13
-13
-13
-12
-11
-11
-11
-8
-5
-5
-5
-5
-4
-1
1
2
4
6
8
10
11
11
13
17
20
22
23
24
28
32
34
36
38
40
43
46
47
47
50
53
54
55
54
53
52
51
48
45
42
38
34
29
22
16
12
7
2
-3
-7
-9
-10
-12
-14
-15
-16
-17
-17
-17
-18
-19
-18
-17
-17
-17
-17
-16
-14
-13
-13
-14
-15
-14
-13
-15
-17
-15
-13
-13
-13
-13
-13
-13
-13
-13
-13
-13
-13
-14
-15
-18
-19
-18
-17
-16
-16
-18
-19
-18
-17
-18
-19
-19
-19
-19
-20
-22
-22
-20
-19
-19
-19
-19
-18
-17
-17
-17
-18
-19
-19
-19
-20
-21
-20
-19
-19
-19
-19
-19
-18
-17
-17
-17
-17
-17
-18
-19
-20
-19
-16
-16
-18
-19
-19
-18
-16
-15
-15
-15
-16
-17
-17
-18
-19
-17
-15
-15
-15
-16
-17
-16
-15
-15
-15
-15
-15
-16
-17
-17
-17
-15
-13
-13
-13
-13
-13
-13
-13
-12
-11
-12
-13
-13
-13
-14
-14
-12
-11
-11
-11
-10
-5
0
1
3
5
7
12
17
19
21
20
19
18
16
10
5
2
-2
-6
-10
-13
-15
-16
-17
-17
-16
-14
-12
-9
-6
-3
3
10
57
120
193
268
235
176
63
-59
-99
-131
-111
-133
-62
-37
-26
-15
-15
-15
-16
-17
-16
-15
-17
-19
-17
-15
-15
-15
-16
-17
-15
-13
-13
-13
-12
-11
-11
-11
-10
-8
-6
-5
-4
-3
-2
-1
0
1
2
3
4
5
6
9
11
13
15
17
19
21
23
26
29
31
33
36
39
41
43
45
48
51
53
55
58
60
61
62
63
63
62
60
57
54
50
45
40
36
30
22
16
10
7
4
0
-5
-8
-11
-12
-13
-15
-17
-17
-17
-17
-17
-17
-17
-16
-15
-15
-15
-15
-15
-14
-13
-16
-16
-14
-13
-13
-14
-16
-16
-14
-13
-14
-15
-15
-15
-15
-16
-18
-18
-16
-15
-15
-18
-19
-18
-17
-17
-17
-18
-19
-19
-19
-21
-23
-21
-19
-20
-21
-21
-21
-20
-19
-19
-19
-20
-21
-21
-21
-22
-22
-20
-19
-20
-21
-21
-20
-18
-17
-18
-19
-19
-19
-19
-21
-23
-20
-17
-18
-19
-19
-19
-18
-17
-17
-17
-17
-17
-17
-17
-17
-17
-16
-15
-15
-15
-16
-17
-16
-15
-15
-15
-15
-15
-15
-15
-15
-15
-14
-13
-14
-15
-15
-15
-14
-13
-15
-14
-13
-15
-17
-16
-15
-14
-13
-13
-13
-12
-11
-12
-13
-12
-10
-7
-5
-4
-2
3
7
12
17
21
24
26
25
21
18
16
11
5
-1
-8
-10
-12
-13
-13
-13
-13
-12
-11
-11
-11
-8
-5
0
10
39
76
140
203
263
268
158
55
-39
-99
-114
-112
-89
-65
-40
-25
-17
-13
-14
-15
-15
-15
-15
-15
-16
-16
-14
-13
-13
-13
-13
-13
-12
-12
-13
-11
-9
-9
-9
-8
-7
-6
-5
-3
-1
-1
-1
0
1
1
2
5
7
7
7
8
11
15
17
18
19
20
22
24
25
26
30
34
37
40
41
42
46
50
52
55
56
57
58
59
59
59
59
59
56
53
50
47
44
39
33
27
20
13
8
3
-4
-7
-8
-10
-12
-14
-16
-17
-17
-17
-18
-19
-18
-17
-18
-19
-20
-20
-18
-17
-17
-18
-19
-17
-15
-15
-15
-16
-17
-17
-17
-19
-21
-20
-19
-18
-18
-21
-22
-19
-17
-20
-21
-21
-21
-21
-22
-24
-24
-22
-21
-22
-23
-24
-25
-24
-23
-23
-23
-24
-25
-25
-26
-27
-25
-23
-24
-25
-25
-25
-24
-23
-23
-23
-23
-23
-24
-25
-26
-27
-25
-23
-23
-23
-24
-24
-22
-21
-22
-23
-23
-23
-22
-22
-24
-25
-24
-23
-22
-22
-24
-24
-22
-21
-21
-21
-21
-21
-21
-23
-25
-24
-23
-22
-21
-21
-21
-21
-21
-21
-21
-21
-21
-21
-21
-22
-23
-22
-21
-21
-21
-21
-21
-20
-19
-19
-19
-19
-19
-19
-19
-18
-14
-10
-9
-9
-5
-3
4
11
15
19
17
15
14
12
6
0
-5
-10
-14
-17
-19
-21
-21
-21
-21
-21
-20
-19
-18
-14
-8
9
32
85
152
218
285
220
121
30
-59
-96
-127
-110
-90
-69
-49
-36
-23
-23
-23
-24
-25
-25
-25
-25
-25
-23
-21
-21
-21
-21
-21
-21
-21
-20
-19
-18
-17
-17
-17
-16
-14
-12
-11
-12
-13
-12
-10
-8
-7
-6
-5
-4
-2
0
1
3
4
5
6
7
10
13
16
19
21
23
25
27
29
32
36
39
40
41
43
45
46
48
50
51
51
50
48
45
42
39
36
31
25
19
12
7
2
-2
-6
-8
-7
-15
-19
-19
-19
-21
-23
-24
-25
-24
-23
-24
-25
-25
-25
-24
-23
-23
-23
-22
-21
-22
-23
-23
-23
-24
-25
-24
-23
-23
-23
-23
-23
-23
-23
-23
-23
-23
-23
-24
-25
-26
-27
-27
-27
-27
-27
-27
-28
-29
-28
-27
-28
-29
-30
-31
-30
-29
-30
-31
-29
-27
-27
-27
-28
-29
-28
-27
-27
-27
-27
-27
-27
-27
-28
-29
-28
-27
-27
-27
-27
-27
-27
-27
-25
-26
-27
-26
-25
-26
-27
-26
-25
-25
-25
-25
-25
-25
-25
-24
-23
-23
-23
-24
-25
-26
-26
-24
-23
-22
-22
-24
-24
-22
-21
-21
-21
-21
-21
-21
-21
-22
-22
-20
-19
-19
-21
-23
-20
-17
-17
-17
-18
-19
-15
-11
-10
-9
-7
-4
0
4
8
13
18
20
17
14
12
9
5
-1
-8
-12
-14
-15
-16
-18
-20
-20
-18
-16
-14
-10
-6
-3
0
36
73
137
200
244
268
145
30
-47
-107
-111
-109
-84
-60
-38
-23
-21
-19
-18
-17
-18
-19
-20
-20
-18
-16
-14
-13
-14
-15
-14
-13
-14
-14
-12
-11
-10
-9
-9
-8
-6
-5
-3
-3
-3
-3
-3
-1
1
3
5
6
7
9
11
13
15
16
17
19
21
22
24
29
32
34
36
38
40
43
47
50
51
52
54
56
57
56
56
58
59
59
58
59
52
49
44
39
34
29
24
19
13
9
4
1
-1
-3
-5
-7
-9
-11
-10
-9
-10
-11
-11
-11
-11
-11
-11
-11
-10
-9
-9
-9
-9
-9
-8
-7
-7
-7
-8
-9
-9
-10
-11
-10
-9
-10
-11
-11
-11
-10
-9
-10
-11
-11
-11
-11
-11
-12
-13
-12
-11
-12
-13
-14
-15
-14
-13
-12
-11
-12
-13
-13
-13
-14
-15
-14
-13
-13
-13
-13
-13
-12
-11
-11
-12
-13
-12
-11
-12
-13
-12
-11
-11
-11
-12
-13
-12
-11
-11
-11
-10
-9
-10
-11
-12
-12
-10
-9
-10
-11
-11
-11
-10
-9
-9
-9
-10
-11
-10
-9
-10
-11
-10
-9
-9
-9
-11
-9
-7
-7
-7
-7
-7
-7
-7
-9
-11
-9
-7
-7
-7
-7
-7
-6
-5
-4
-3
-2
1
7
9
8
11
18
23
27
29
29
28
26
24
22
17
12
8
4
-1
-5
-7
-9
-9
-9
-8
-7
-5
-3
0
3
6
20
56
100
161
219
274
247
119
14
-70
-110
-112
-98
-73
-49
-27
-15
-9
-9
-12
-13
-12
-11
-11
-11
-12
-11
-8
-7
-9
-9
-9
-8
-7
-8
-9
-7
-5
-5
-5
-4
-3
-1
1
1
1
1
2
5
7
6
6
9
11
12
13
14
17
20
22
24
25
26
29
32
33
34
38
42
45
43
51
53
55
57
59
61
63
65
66
67
65
63
63
62
59
55
49
44
40
35
28
22
16
11
7
2
-4
-7
-7
-9
-12
-13
-14
-15
-15
-15
-15
-15
-14
-13
-14
-15
-15
-14
-13
-13
-13
-14
-15
-13
-11
-12
-13
-13
-13
-13
-13
-15
-17
-15
-13
-15
-17
-18
-18
-16
-15
-16
-17
-18
-19
-18
-18
-20
-21
-21
-21
-21
-21
-22
-23
-22
-21
-21
-21
-21
-21
-21
-22
-23
-22
-21
-21
-21
-21
-21
-21
-21
-21
-21
-21
-21
-21
-21
-21
-21
-21
-21
-21
-21
-21
-21
-21
-21
-20
-19
-20
-21
-22
-23
-22
-21
-20
-19
-19
-19
-19
-19
-19
-19
-19
-20
-21
-21
-21
-21
-21
-21
-21
-20
-19
-18
-17
-17
-17
-18
-19
-18
-18
-20
-21
-20
-19
-19
-19
-18
-17
-17
-17
-16
-15
-15
-14
-12
-8
-4
-4
-5
1
7
11
15
16
17
16
15
13
10
4
-2
-6
-10
-15
-19
-19
-19
-19
-20
-22
-22
-19
-16
-13
-9
-5
4
14
60
120
194
273
226
151
43
-70
-104
-132
-112
-89
-68
-47
-33
-21
-23
-25
-23
-21
-22
-23
-24
-25
-23
-21
-21
-21
-21
-21
-21
-21
-21
-20
-18
-17
-17
-17
-17
-15
-12
-11
-12
-12
-10
-9
-8
-7
-8
-6
-2
-1
-1
0
1
3
5
7
9
10
11
14
17
18
20
25
29
30
31
33
36
39
42
45
47
48
50
52
52
50
49
49
47
44
40
35
30
26
20
14
7
0
-4
-8
-14
-19
-20
-21
-23
-25
-27
-29
-28
-27
-29
-31
-30
-29
-28
-27
-29
-31
-29
-27
-27
-27
-27
-27
-26
-25
-25
-25
-26
-27
-27
-27
-28
-29
-29
-29
-28
-28
-30
-31
-30
-29
-29
-31
-33
-31
-29
-32
-35
-34
-33
-33
-33
-34
-35
-34
-33
-33
-33
-34
-35
-34
-33
-34
-35
-34
-33
-34
-35
-36
-36
-34
-33
-33
-33
-34
-35
-35
-35
-36
-36
-34
-33
-33
-34
-35
-34
-33
-33
-33
-33
-33
-34
-35
-36
-37
-35
-33
-33
-33
-34
-35
-33
-31
-31
-31
-32
-33
-33
-33
-34
-34
-32
-31
-32
-33
-33
-32
-30
-29
-29
-29
-29
-29
-30
-32
-33
-31
-29
-29
-29
-29
-28
-22
-17
-17
-17
-15
-12
-7
-2
2
5
6
6
3
0
-2
-5
-10
-16
-21
-25
-29
-31
-31
-31
-32
-31
-28
-27
-26
-22
-18
-14
-10
42
95
159
219
223
215
96
-14
-77
-126
-121
-112
-91
-70
-50
-36
-33
-31
-31
-31
-31
-31
-34
-34
-32
-31
-30
-29
-29
-28
-26
-25
-25
-25
-26
-26
-24
-23
-24
-24
-22
-20
-21
-17
-17
-15
-13
-12
-11
-10
-9
-7
-5
-6
-6
-2
1
2
3
4
6
10
13
16
17
18
21
25
27
28
31
34
36
38
40
42
43
44
45
45
45
44
42
40
33
27
26
25
19
13
5
-1
-4
-8
-13
-17
-20
-23
-23
-24
-27
-29
-28
-27
-27
-28
-30
-30
-28
-27
-26
-25
-26
-27
-26
-25
-26
-27
-26
-25
-25
-25
-25
-25
-25
-25
-25
-26
-27
-26
-25
-27
-29
-29
-29
-28
-27
-28
-29
-28
-27
-27
-27
-29
-31
-31
-31
-32
-32
-30
-29
-30
-31
-31
-31
-30
-29
-28
-28
-30
-31
-31
-31
-32
-32
-30
-29
-29
-29
-29
-27
-25
-26
-27
-28
-29
-29
-29
-30
-31
-29
-27
-27
-27
-26
-25
-24
-23
-23
-23
-23
-23
-24
-25
-26
-26
-24
-23
-23
-23
-23
-23
-22
-21
-21
-21
-21
-21
-21
-22
-23
-21
-19
-19
-19
-20
-21
-19
-17
-17
-17
-17
-17
-16
-15
-13
-10
-6
-3
-2
1
6
11
16
19
19
18
16
13
10
4
-3
-7
-10
-13
-16
-17
-18
-18
-16
-15
-15
-12
-9
-3
3
4
15
80
148
225
269
211
134
14
-76
-111
-125
-104
-81
-56
-37
-24
-17
-16
-15
-16
-17
-18
-18
-16
-15
-15
-15
-15
-15
-14
-13
-13
-13
-12
-11
-11
-9
-9
-7
-5
-5
-5
-4
-3
-1
1
0
-1
2
5
6
7
8
9
11
13
14
16
18
20
23
25
25
27
31
34
36
38
40
44
48
50
52
54
56
57
58
60
61
62
63
62
61
58
55
53
50
44
38
32
26
21
15
9
4
1
-2
-5
-8
-10
-12
-14
-15
-15
-15
-16
-17
-17
-18
-20
-19
-16
-15
-15
-15
-16
-16
-14
-13
-13
-14
-15
-15
-15
-16
-17
-15
-13
-14
-15
-16
-17
-16
-15
-16
-17
-17
-17
-18
-19
-20
-21
-21
-21
-21
-21
-22
-23
-22
-21
-21
-21
-22
-23
-22
-22
-24
-24
-22
-21
-21
-22
-23
-22
-21
-21
-21
-21
-21
-21
-21
-23
-25
-23
-21
-21
-21
-22
-23
-22
-21
-21
-21
-21
-21
-21
-22
-25
-25
-22
-21
-22
-23
-23
-22
-20
-19
-19
-19
-20
-21
-21
-22
-23
-20
-17
-18
-19
-19
-19
-18
-17
-17
-17
-18
-19
-19
-19
-20
-21
-19
-17
-17
-17
-17
-17
-16
-15
-16
-17
-16
-15
-15
-14
-12
-8
-4
-1
2
7
12
16
20
20
17
15
13
8
3
-4
-11
-12
-13
-16
-19
-20
-21
-19
-17
-17
-17
-15
-11
-5
2
9
48
114
185
257
245
179
80
-34
-92
-126
-118
-96
-71
-45
-33
-22
-21
-20
-19
-19
-22
-23
-21
-19
-20
-21
-21
-21
-21
-21
-21
-21
-19
-17
-17
-17
-16
-15
-13
-11
-10
-9
-9
-9
-8
-7
-7
-6
-4
-3
-2
0
2
4
6
7
8
10
12
15
18
19
19
23
27
29
31
33
35
39
43
45
47
49
51
53
55
55
55
57
59
57
54
51
48
45
40
35
29
22
15
9
3
-3
-6
-8
-11
-14
-17
-20
-21
-21
-21
-21
-21
-21
-21
-21
-23
-25
-22
-19
-20
-21
-21
-21
-19
-17
-18
-19
-20
-21
-19
-17
-20
-21
-20
-19
-19
-19
-20
-21
-20
-19
-20
-21
-21
-21
-20
-21
-24
-25
-24
-23
-23
-24
-25
-24
-23
-24
-25
-25
-25
-24
-23
-25
-27
-25
-23
-24
-25
-25
-25
-24
-23
-23
-23
-23
-23
-23
-24
-27
-27
-24
-23
-24
-25
-24
-23
-23
-23
-23
-23
-24
-25
-25
-25
-25
-24
-23
-23
-23
-23
-23
-22
-21
-21
-21
-21
-21
-21
-21
-23
-25
-23
-21
-20
-20
-22
-22
-20
-19
-19
-19
-20
-21
-21
-21
-22
-22
-20
-19
-19
-19
-19
-19
-18
-17
-17
-18
-19
-19
-19
-20
-21
-19
-17
-17
-17
-17
-16
-12
-8
-4
-1
-1
0
4
8
13
17
21
21
17
14
12
9
5
0
-5
-10
-16
-17
-18
-19
-20
-20
-18
-17
-17
-13
-11
-5
4
42
83
146
205
251
257
128
13
-66
-119
-118
-108
-82
-58
-35
-23
-20
-20
-22
-23
-23
-23
-24
-24
-22
-21
-21
-21
-21
-21
-20
-19
-18
-17
-18
-18
-16
-17
-19
-16
-13
-12
-11
-11
-11
-9
-7
-6
-5
-4
-3
-1
1
1
1
3
5
7
9
10
13
17
20
22
23
24
27
31
33
34
37
40
42
44
45
46
49
52
53
55
52
49
48
47
42
37
34
30
24
18
11
4
0
-4
-8
-12
-15
-17
-19
-21
-24
-25
-25
-25
-26
-27
-28
-28
-26
-25
-26
-27
-27
-26
-24
-24
-26
-26
-24
-23
-23
-26
-27
-26
-25
-25
-25
-26
-27
-26
-25
-26
-27
-26
-25
-27
-29
-29
-29
-28
-27
-28
-29
-30
-31
-31
-32
-34
-35
-34
-33
-32
-31
-32
-32
-30
-29
-30
-31
-32
-33
-33
-34
-35
-33
-31
-31
-31
-32
-33
-32
-31
-31
-31
-32
-33
-33
-33
-34
-35
-33
-31
-31
-31
-32
-32
-30
-29
-30
-31
-31
-31
-31
-31
-32
-33
-33
-33
-32
-31
-31
-30
-28
-27
-29
-30
-31
-31
-31
-31
-31
-30
-29
-28
-27
-29
-31
-28
-25
-27
-29
-28
-27
-28
-29
-30
-30
-28
-27
-27
-27
-28
-28
-26
-25
-25
-24
-22
-19
-16
-15
-16
-11
-4
1
-3
8
9
9
9
5
1
-6
-11
-17
-22
-27
-31
-30
-29
-29
-29
-29
-28
-25
-22
-19
-15
-10
22
76
132
190
218
229
149
28
-50
-114
-123
-118
-97
-72
-53
-35
-32
-30
-32
-35
-33
-31
-31
-31
-31
-31
-30
-29
-28
-27
-26
-25
-24
-23
-25
-27
-25
-23
-22
-21
-21
-20
-17
-15
-16
-17
-16
-13
-10
-9
-10
-9
-6
-5
-4
-3
-3
0
4
5
7
10
13
15
17
18
19
23
27
29
31
32
33
36
39
41
43
43
43
44
45
42
40
38
36
33
28
23
18
13
9
4
0
-6
-10
-14
-18
-22
-23
-23
-24
-23
-27
-27
-26
-25
-25
-25
-26
-27
-26
-25
-26
-27
-25
-23
-23
-23
-24
-25
-25
-25
-24
-23
-24
-25
-26
-27
-28
-28
-26
-25
-25
-25
-26
-27
-27
-27
-27
-27
-28
-29
-29
-30
-31
-30
-29
-29
-29
-30
-31
-30
-29
-30
-31
-31
-31
-30
-29
-30
-31
-30
-29
-29
-29
-29
-29
-28
-27
-27
-27
-27
-27
-27
-27
-28
-29
-28
-27
-27
-27
-28
-28
-26
-25
-23
-24
-25
-24
-23
-25
-27
-25
-23
-23
-23
-24
-25
-23
-21
-22
-23
-22
-21
-21
-21
-22
-22
-20
-19
-19
-19
-19
-19
-18
-17
-17
-17
-17
-17
-17
-17
-18
-18
-16
-15
-15
-14
-13
-11
-9
-9
-9
-5
-1
-1
-1
2
7
15
21
23
24
21
19
19
17
12
7
2
-3
-7
-10
-13
-14
-12
-11
-11
-11
-11
-7
0
4
8
27
47
113
181
245
304
183
64
-27
-107
-110
-109
-80
-53
-31
-14
-10
-7
-8
-9
-11
-13
-11
-9
-9
-9
-8
-7
-6
-5
-4
-3
-4
-4
-2
-2
-4
-4
-2
0
2
3
3
4
6
7
9
10
11
13
15
15
15
17
19
21
23
24
25
28
31
33
35
37
39
41
43
46
49
53
56
58
60
62
64
66
67
68
69
70
71
71
69
66
64
62
57
61
44
37
33
29
24
19
15
11
7
3
0
-3
-3
-3
-5
-7
-8
-9
-7
-5
-6
-7
-6
-5
-5
-5
-6
-6
-4
-3
-3
-3
-4
-5
-4
-3
-4
-5
-4
-3
-4
-6
-7
-6
-5
-5
-5
-7
-9
-8
-7
-8
-9
-10
-11
-10
-9
-11
-13
-12
-11
-12
-13
-13
-12
-10
-9
-10
-11
-11
-11
-11
-12
-14
-14
-12
-11
-11
-11
-12
-13
-12
-11
-11
-12
-13
-13
-13
-14
-15
-13
-11
-12
-13
-13
-13
-12
-11
-11
-11
-12
-13
-12
-11
-14
-14
-12
-11
-11
-11
-12
-12
-10
-9
-10
-11
-11
-11
-11
-11
-12
-12
-10
-9
-9
-11
-11
-9
-7
-8
-9
-9
-9
-9
-9
-11
-13
-11
-9
-9
-9
-9
-9
-7
-5
-2
0
3
5
6
8
11
17
23
26
28
26
22
21
21
16
10
5
0
-4
-8
-12
-15
-13
-11
-11
-11
-11
-11
-5
0
5
12
24
53
117
185
259
265
170
70
-34
-96
-116
-111
-86
-60
-35
-21
-14
-12
-14
-15
-16
-17
-16
-15
-15
-15
-14
-13
-12
-11
-9
-10
-11
-11
-11
-12
-13
-10
-7
-7
-7
-7
-7
-4
-1
0
1
1
1
2
3
3
4
7
10
12
13
13
15
19
22
24
25
26
29
32
34
36
39
42
45
43
50
51
55
59
60
61
61
61
61
61
58
55
53
50
45
39
33
27
22
17
12
6
0
-3
-4
-8
-13
-15
-16
-17
-18
-19
-20
-21
-20
-19
-19
-19
-18
-17
-17
-19
-21
-19
-17
-17
-17
-17
-17
-16
-15
-16
-17
-18
-19
-18
-17
-19
-21
-20
-19
-19
-19
-20
-21
-20
-19
-20
-21
-21
-21
-22
-23
-24
-25
-24
-23
-23
-23
-24
-25
-24
-23
-23
-23
-23
-23
-23
-25
-27
-26
-25
-25
-25
-26
-27
-26
-25
-24
-23
-23
-23
-23
-23
-24
-25
-24
-23
-23
-23
-24
-24
-22
-21
-22
-23
-24
-25
-24
-23
-24
-24
-22
-21
-21
-24
-25
-23
-21
-22
-23
-23
-23
-22
-21
-22
-23
-23
-23
-22
-21
-21
-21
-20
-19
-20
-21
-21
-21
-21
-21
-22
-22
-20
-19
-20
-21
-22
-23
-22
-20
-18
-17
-16
-11
-6
-6
-7
-2
3
8
13
15
17
14
11
9
6
1
-4
-8
-13
-19
-23
-23
-23
-23
-23
-24
-24
-22
-20
-18
-15
-11
0
15
65
129
201
276
220
136
33
-72
-106
-134
-115
-93
-69
-45
-35
-25
-27
-29
-28
-27
-27
-27
-28
-29
-27
-25
-25
-25
-26
-27
-25
-23
-24
-25
-24
-23
-23
-23
-22
-20
-18
-17
-16
-15
-15
-14
-12
-11
-11
-10
-8
-7
-7
-4
-3
0
3
4
5
7
9
12
15
16
17
20
24
27
29
31
34
38
41
42
43
44
45
46
47
46
45
44
42
40
36
31
25
20
14
8
3
-2
-6
-10
-17
-23
-24
-25
-27
-29
-30
-31
-31
-31
-31
-31
-31
-31
-32
-33
-34
-35
-33
-31
-31
-31
-31
-31
-30
-29
-29
-29
-30
-31
-32
-33
-33
-32
-30
-29
-30
-31
-32
-33
-33
-33
-33
-35
-37
-37
-37
-38
-39
-37
-35
-37
-39
-39
-39
-38
-37
-37
-37
-37
-37
-37
-37
-38
-39
-38
-37
-38
-39
-40
-39
-36
-36
-38
-39
-38
-37
-37
-37
-38
-39
-38
-37
-37
-38
-39
-38
-37
-36
-35
-36
-37
-37
-37
-38
-39
-37
-35
-36
-37
-36
-35
-35
-35
-35
-35
-35
-35
-35
-35
-36
-37
-36
-35
-35
-35
-34
-33
-32
-31
-32
-33
-33
-33
-33
-34
-35
-33
-31
-31
-31
-30
-29
-29
-29
-26
-23
-21
-19
-17
-14
-10
-5
1
5
5
4
1
-2
-4
-8
-14
-19
-23
-27
-30
-32
-34
-34
-32
-31
-31
-31
-30
-25
-20
-15
-9
52
113
185
245
203
151
42
-54
-102
-135
-119
-101
-78
-59
-44
-35
-34
-33
-33
-33
-36
-36
-34
-33
-33
-33
-33
-31
-28
-27
-28
-29
-29
-29
-28
-27
-28
-27
-24
-23
-23
-22
-21
-19
-17
-16
-15
-15
-15
-13
-11
-11
-11
-9
-6
-3
-1
-1
0
3
5
8
10
12
14
17
19
19
22
27
30
32
33
34
37
40
41
42
43
42
41
41
38
35
34
33
27
21
15
9
6
2
-4
-10
-14
-17
-21
-23
-25
-27
-27
-27
-28
-30
-32
-32
-29
-27
-27
-27
-27
-27
-27
-27
-27
-27
-26
-25
-26
-27
-27
-27
-26
-25
-27
-27
-27
-27
-27
-29
-31
-29
-27
-27
-27
-28
-29
-28
-27
-27
-27
-28
-29
-30
-31
-34
-34
-32
-31
-31
-31
-31
-31
-30
-29
-29
-29
-30
-31
-31
-31
-32
-32
-30
-29
-29
-32
-33
-31
-29
-29
-29
-29
-29
-28
-27
-29
-31
-29
-27
-27
-27
-28
-29
-28
-27
-26
-25
-25
-25
-26
-27
-28
-28
-26
-25
-24
-24
-26
-26
-24
-23
-22
-21
-22
-23
-22
-22
-23
-22
-21
-21
-21
-22
-23
-21
-19
-18
-17
-17
-17
-13
-11
-10
-9
-7
-5
-3
2
8
13
18
20
18
16
12
9
6
0
-7
-10
-12
-14
-16
-18
-20
-20
-18
-17
-15
-10
-5
-1
5
26
55
121
188
256
280
172
68
-27
-96
-116
-120
-97
-72
-45
-28
-21
-17
-17
-17
-17
-17
-17
-17
-16
-15
-15
-15
-15
-15
-14
-13
-13
-13
-12
-11
-11
-9
-9
-8
-7
-6
-5
-5
-5
-3
-1
-1
-1
2
5
6
7
8
10
13
15
16
17
18
20
22
23
24
27
31
35
38
40
42
45
48
51
54
56
58
60
62
62
61
63
65
62
59
57
55
49
44
38
32
26
19
12
6
2
-1
-3
-5
-7
-10
-12
-13
-14
-15
-15
-15
-16
-17
-16
-15
-16
-17
-16
-15
-15
-15
-14
-13
-13
-13
-13
-13
-13
-14
-15
-15
-15
-14
-13
-14
-15
-15
-15
-15
-15
-16
-17
-17
-17
-19
-21
-21
-21
-20
-19
-19
-19
-20
-21
-21
-21
-21
-21
-21
-21
-20
-20
-22
-23
-22
-21
-21
-21
-21
-21
-21
-20
-19
-20
-21
-20
-19
-20
-21
-21
-21
-20
-19
-20
-21
-20
-19
-19
-19
-19
-19
-19
-19
-20
-20
-18
-17
-17
-17
-18
-18
-16
-15
-16
-17
-18
-19
-18
-18
-19
-18
-17
-17
-17
-17
-17
-16
-15
-14
-13
-14
-15
-15
-15
-16
-17
-15
-13
-13
-13
-13
-11
-6
-2
1
3
4
8
13
17
20
21
22
21
18
13
8
4
0
-3
-7
-11
-15
-16
-17
-17
-17
-16
-15
-12
-8
-4
-1
2
21
69
122
183
227
250
196
57
-41
-103
-122
-108
-88
-64
-42
-21
-15
-15
-15
-16
-17
-18
-19
-20
-19
-16
-15
-15
-15
-15
-14
-13
-13
-13
-12
-11
-10
-9
-10
-11
-9
-7
-6
-5
-5
-4
-1
1
1
2
4
5
6
7
8
10
12
14
16
19
22
24
26
28
30
32
34
35
36
43
49
50
51
53
55
58
61
62
63
62
61
60
58
54
50
46
42
39
34
27
20
14
9
5
2
-1
-5
-9
-11
-12
-15
-18
-19
-19
-19
-18
-17
-18
-19
-18
-17
-17
-16
-15
-15
-15
-16
-17
-16
-15
-15
-15
-15
-15
-15
-15
-15
-15
-16
-17
-16
-15
-18
-19
-18
-17
-18
-19
-19
-19
-19
-19
-19
-19
-20
-21
-20
-20
-22
-23
-22
-21
-21
-22
-23
-21
-19
-19
-19
-20
-21
-21
-21
-22
-23
-22
-21
-21
-21
-21
-21
-20
-19
-19
-19
-20
-21
-21
-21
-22
-22
-20
-19
-19
-19
-19
-19
-18
-17
-17
-17
-18
-19
-19
-20
-21
-20
-19
-18
-17
-18
-19
-17
-15
-15
-15
-17
-19
-19
-19
-19
-19
-18
-17
-17
-17
-17
-16
-14
-13
-14
-15
-15
-15
-16
-17
-18
-18
-16
-15
-15
-15
-15
-12
-8
-5
-1
-1
-1
2
5
9
13
18
23
21
19
17
14
10
6
1
-4
-8
-12
-15
-17
-20
-20
-17
-15
-14
-12
-10
-5
2
16
33
87
152
223
294
214
107
10
-86
-107
-91
-103
-80
-55
-31
-23
-15
-17
-19
-19
-19
-20
-21
-20
-19
-18
-17
-18
-19
-18
-17
-17
-16
-14
-13
-12
-12
-14
-14
-12
-11
-10
-9
-9
-7
-4
-3
-3
-3
-2
0
2
2
1
5
9
10
11
12
13
17
21
23
25
27
29
31
33
34
36
40
43
45
48
50
52
55
57
57
57
57
57
56
52
48
46
44
38
32
25
18
15
12
7
1
-4
-9
-13
-17
-19
-21
-20
-19
-21
-23
-23
-23
-21
-19
-20
-21
-22
-23
-23
-23
-24
-24
-21
-19
-20
-21
-21
-20
-18
-18
-20
-21
-21
-21
-22
-24
-26
-26
-24
-23
-23
-25
-27
-25
-23
-24
-25
-26
-27
-28
-29
-30
-31
-29
-27
-27
-27
-28
-29
-29
-29
-29
-29
-28
-27
-28
-29
-30
-31
-30
-29
-28
-27
-28
-29
-28
-27
-27
-27
-28
-29
-29
-31
-33
-30
-27
-29
-31
-30
-29
-29
-29
-28
-27
-28
-29
-28
-27
-29
-31
-29
-27
-28
-29
-29
-28
-26
-25
-26
-27
-28
-28
-26
-26
-28
-28
-26
-25
-26
-27
-28
-28
-26
-25
-25
-25
-25
-25
-25
-27
-29
-26
-23
-21
-19
-16
-13
-12
-10
-5
0
4
8
11
12
7
5
4
1
-5
-10
-16
-20
-22
-23
-24
-25
-26
-27
-27
-27
-27
-24
-20
-14
-19
12
34
102
171
237
281
179
78
-18
-96
-121
-132
-107
-82
-60
-42
-34
-29
-28
-27
-28
-29
-30
-30
-28
-28
-30
-30
-28
-27
-26
-25
-26
-25
-22
-21
-20
-19
-19
-19
-19
-20
-21
-17
-13
-12
-11
-12
-13
-9
-5
-5
-5
-4
-3
-3
-3
-2
0
4
8
11
13
13
15
19
22
25
27
28
30
32
33
34
39
44
45
45
45
46
47
47
46
43
40
37
32
27
21
15
11
6
1
-4
-8
-11
-14
-17
-19
-21
-22
-23
-23
-24
-27
-28
-26
-25
-24
-23
-24
-24
-22
-21
-22
-23
-23
-23
-22
-22
-24
-25
-24
-23
-23
-23
-23
-23
-23
-23
-23
-23
-23
-22
-21
-24
-27
-25
-23
-24
-25
-26
-27
-25
-23
-24
-25
-25
-25
-25
-26
-28
-28
-26
-25
-26
-27
-27
-27
-26
-25
-25
-25
-25
-25
-24
-24
-25
-24
-23
-23
-23
-24
-25
-23
-21
-21
-21
-21
-21
-21
-21
-23
-25
-23
-21
-21
-21
-21
-21
-20
-19
-19
-19
-19
-19
-19
-19
-20
-20
-18
-17
-17
-17
-18
-18
-16
-15
-15
-15
-15
-16
-17
-17
-17
-16
-15
-15
-15
-15
-15
-14
-13
-13
-13
-13
-13
-13
-12
-9
-7
-8
-6
0
3
2
3
7
13
19
22
24
24
22
21
20
13
6
2
5
-6
-9
-10
-11
-11
-11
-10
-9
-10
-10
-5
0
4
15
41
80
144
208
272
253
136
31
-63
-108
-114
-102
-76
-51
-25
-15
-11
-10
-12
-12
-10
-9
-9
-9
-10
-11
-11
-12
-13
-11
-9
-8
-7
-7
-7
-5
-3
-2
-1
-1
-1
0
1
1
2
5
7
8
9
10
12
14
16
18
19
20
21
22
23
24
28
32
35
38
39
40
44
48
50
53
56
59
61
63
63
63
65
67
67
67
65
63
61
58
54
49
42
35
30
24
17
12
9
6
3
-1
-5
-7
-8
-9
-9
-10
-12
-13
-12
-11
-12
-13
-12
-11
-11
-12
-13
-11
-9
-9
-9
-9
-9
-8
-7
-8
-9
-9
-9
-9
-9
-10
-11
-10
-9
-10
-11
-12
-13
-13
-13
-14
-15
-14
-13
-14
-15
-16
-17
-16
-15
-15
-15
-16
-17
-16
-18
-21
-19
-17
-17
-17
-18
-19
-17
-15
-15
-15
-16
-17
-17
-17
-18
-19
-18
-17
-18
-19
-19
-18
-16
-15
-16
-17
-17
-17
-17
-17
-18
-19
-18
-17
-17
-17
-18
-17
-14
-13
-15
-15
-15
-15
-15
-16
-17
-17
-17
-16
-15
-15
-15
-15
-15
-15
-15
-15
-15
-15
-15
-16
-16
-14
-13
-14
-15
-15
-15
-14
-13
-14
-15
-15
-15
-14
-13
-14
-14
-12
-8
-11
-2
-1
2
5
9
13
18
23
22
21
16
13
11
7
1
-4
-8
-11
-12
-13
-16
-17
-17
-17
-16
-15
-16
-13
-7
-3
1
34
76
136
200
234
261
149
18
-55
-123
-119
-113
-86
-60
-41
-23
-20
-17
-17
-17
-19
-21
-20
-19
-19
-19
-21
-23
-21
-19
-18
-17
-17
-16
-14
-13
-13
-13
-13
-13
-12
-11
-11
-9
-6
-5
-5
-5
-4
-2
0
1
3
5
7
7
7
8
9
13
17
19
21
23
26
30
33
34
36
39
42
46
49
48
49
53
55
56
57
57
57
58
57
54
50
46
41
36
29
22
17
12
7
11
-4
-9
-11
-13
-16
-19
-20
-21
-22
-23
-24
-25
-24
-23
-22
-21
-22
-23
-21
-19
-20
-21
-21
-21
-21
-21
-22
-22
-20
-19
-20
-21
-21
-21
-20
-19
-20
-21
-22
-23
-23
-25
-27
-26
-25
-25
-25
-26
-27
-27
-27
-27
-27
-28
-29
-29
-29
-30
-31
-29
-27
-28
-29
-29
-29
-29
-29
-28
-27
-28
-29
-29
-30
-32
-32
-30
-29
-29
-29
-29
-29
-28
-27
-29
-30
-31
-29
-27
-30
-33
-31
-29
-29
-29
-29
-29
-28
-27
-28
-29
-29
-29
-28
-28
-31
-32
-30
-29
-28
-27
-28
-29
-28
-27
-28
-29
-29
-29
-28
-27
-28
-29
-29
-29
-29
-28
-29
-28
-27
-26
-25
-26
-27
-27
-27
-28
-29
-27
-25
-26
-27
-27
-27
-26
-25
-25
-25
-24
-23
-22
-20
-18
-15
-12
-9
-5
0
5
8
10
9
6
3
0
-5
-10
-17
-23
-25
-27
-28
-29
-30
-31
-29
-27
-26
-25
-24
-22
-17
-4
23
67
136
202
262
234
115
14
-72
-114
-128
-119
-97
-74
-51
-42
-37
-35
-34
-33
-33
-33
-33
-33
-33
-33
-31
-31
-31
-30
-29
-30
-31
-30
-29
-28
-27
-27
-27
-25
-23
-22
-21
-21
-21
-20
-19
-18
-16
-14
-13
-12
-11
-10
-7
-4
-3
-2
-1
0
3
6
7
7
10
14
17
15
23
25
28
31
34
37
37
37
39
41
41
41
42
43
42
40
36
33
31
27
20
14
8
1
-6
-12
-17
-19
-20
-23
-26
-28
-30
-31
-31
-31
-31
-32
-34
-35
-34
-33
-33
-31
-29
-30
-31
-31
-31
-29
-27
-28
-29
-30
-31
-31
-31
-32
-33
-31
-29
-29
-30
-32
-32
-30
-29
-30
-31
-31
-31
-32
-34
-36
-37
-36
-35
-35
-35
-35
-35
-34
-33
-35
-35
-35
-35
-35
-36
-37
-37
-37
-37
-37
-37
-37
-36
-35
-35
-35
-35
-35
-34
-34
-37
-38
-36
-35
-34
-34
-36
-36
-34
-33
-33
-33
-34
-35
-34
-34
-36
-37
-36
-35
-35
-34
-33
-32
-31
-32
-33
-33
-33
-33
-33
-34
-35
-34
-33
-32
-31
-32
-33
-31
-29
-29
-29
-29
-29
-30
-31
-32
-32
-30
-29
-29
-29
-29
-29
-28
-27
-27
-27
-26
-25
-24
-22
-21
-19
-17
-13
-9
-5
0
6
11
7
3
3
2
-2
-7
-16
-21
-23
-25
-27
-29
-30
-30
-28
-27
-27
-26
-22
-19
-15
-7
2
57
123
197
273
215
138
35
-69
-106
-141
-119
-96
-74
-52
-41
-31
-30
-29
-30
-31
-31
-31
-29
-27
-28
-29
-28
-27
-26
-25
-26
-26
-23
-21
-21
-21
-21
-19
-16
-15
-15
-15
-15
-15
-15
-15
-14
-10
-6
-5
-5
-4
-3
-1
1
3
5
6
7
8
9
10
12
17
21
23
25
27
30
33
36
39
41
42
43
43
43
43
44
46
47
46
43
40
38
36
31
26
20
14
9
4
-3
-9
-11
-13
-16
-19
-21
-23
-22
-21
-22
-23
-23
-23
-23
-23
-24
-25
-23
-21
-20
-19
-20
-20
-18
-17
-18
-19
-19
-19
-19
-20
-22
-22
-20
-19
-19
-19
-20
-21
-20
-19
-21
-21
-21
-21
-21
-23
-25
-24
-23
-23
-23
-24
-25
-24
-23
-24
-25
-24
-23
-23
-23
-26
-26
-24
-23
-24
-25
-25
-25
-24
-23
-23
-23
-23
-23
-22
-22
-24
-25
-24
-23
-23
-23
-23
-22
-21
-22
-23
-23
-23
-23
-23
-24
-25
-23
-21
-21
-21
-21
-21
-20
-19
-20
-21
-21
-21
-20
-19
-20
-21
-20
-19
-19
-19
-20
-21
-20
-19
-18
-17
-18
-19
-18
-19
-21
-19
-17
-18
-19
-19
-19
-17
-15
-16
-17
-18
-19
-18
-17
-18
-18
-15
-12
-9
-6
-4
-2
0
4
9
13
17
19
18
14
10
9
8
3
-2
-7
-12
-13
-14
-16
-19
-19
-19
-19
-19
-19
-19
-12
-7
-5
7
49
97
160
214
253
224
88
-20
-93
-129
-124
-106
-78
-53
-32
-23
-22
-21
-20
-19
-20
-21
-21
-21
-21
-21
-22
-22
-20
-19
-19
-19
-19
-16
-13
-13
-13
-13
-13
-13
-13
-12
-11
-8
-5
-5
-5
-4
-3
-1
1
2
3
4
5
6
7
8
11
15
18
20
21
22
26
30
33
36
38
40
42
44
46
47
51
55
56
57
57
57
58
59
57
54
49
44
39
33
26
19
14
9
4
-1
-6
-10
-12
-14
-16
-18
-20
-21
-21
-22
-24
-24
-22
-21
-21
-21
-21
-21
-20
-19
-19
-19
-19
-18
-17
-19
-21
-20
-19
-19
-19
-19
-19
-18
-17
-18
-19
-19
-19
-19
-19
-22
-23
-22
-21
-22
-23
-24
-25
-24
-23
-23
-23
-24
-25
-24
-24
-26
-27
-26
-25
-25
-25
-25
-24
-23
-24
-25
-26
-27
-26
-25
-26
-27
-26
-25
-24
-23
-25
-27
-26
-25
-24
-23
-24
-25
-24
-24
-26
-26
-24
-23
-23
-23
-24
-24
-22
-21
-21
-21
-22
-23
-22
-22
-23
-22
-21
-21
-21
-22
-23
-21
-19
-20
-21
-21
-21
-20
-19
-21
-23
-22
-21
-21
-21
-21
-21
-20
-19
-19
-19
-19
-19
-19
-19
-20
-21
-20
-19
-19
-19
-19
-19
-18
-17
-17
-16
-15
-11
-7
-6
-5
-2
1
5
9
12
15
17
18
15
12
8
4
0
-5
-10
-14
-16
-17
-18
-19
-20
-21
-20
-18
-16
-12
-8
-4
0
39
84
150
217
235
221
115
-17
-77
-130
-117
-102
-79
-56
-36
-21
-21
-21
-21
-21
-22
-23
-23
-23
-21
-19
-20
-21
-20
-19
-19
-19
-19
-18
-16
-15
-15
-15
-15
-14
-12
-11
-11
-10
-8
-7
-6
-5
-5
-2
1
2
3
2
1
4
7
9
11
13
15
17
19
20
22
26
29
31
34
37
40
43
46
49
51
51
53
56
57
56
55
55
54
52
48
44
40
36
30
23
18
13
6
-1
-6
-11
-13
-15
-17
-19
-22
-25
-24
-23
-24
-25
-25
-25
-25
-25
-25
-25
-24
-23
-23
-23
-24
-24
-22
-21
-21
-21
-22
-23
-23
-23
-24
-25
-25
-25
-25
-24
-25
-25
-25
-25
-25
-26
-27
-26
-25
-27
-29
-29
-29
-29
-29
-30
-31
-30
-29
-30
-31
-31
-31
-30
-29
-30
-31
-31
-31
-31
-31
-32
-33
-32
-31
-31
-31
-31
-31
-31
-32
-33
-32
-31
-31
-31
-32
-33
-32
-31
-30
-29
-30
-31
-29
-28
-31
-33
-32
-31
-30
-29
-30
-31
-30
-29
-29
-29
-29
-29
-29
-29
-30
-30
-28
-27
-28
-29
-30
-31
-30
-29
-27
-27
-27
-26
-25
-27
-29
-28
-27
-26
-25
-26
-27
-26
-25
-25
-25
-25
-25
-25
-25
-26
-27
-26
-24
-22
-21
-20
-17
-13
-11
-10
-6
-2
3
8
9
9
9
8
6
7
-3
-9
-13
-17
-20
-23
-25
-27
-27
-27
-27
-27
-25
-23
-21
-18
-15
5
48
100
164
212
246
194
73
-18
-90
-117
-120
-106
-83
-62
-42
-33
-28
-27
-28
-29
-30
-31
-31
-32
-33
-31
-29
-28
-27
-28
-29
-27
-25
-25
-25
-24
-23
-22
-21
-22
-22
-19
-17
-17
-17
-16
-14
-12
-11
-10
-9
-8
-7
-6
-5
-5
-3
0
2
4
5
6
10
14
16
19
20
21
24
27
28
29
34
39
39
39
40
41
44
47
46
44
41
38
34
30
25
22
19
13
6
0
-6
-10
-12
-15
-20
-23
-26
-27
-28
-29
-30
-31
-30
-29
-29
-27
-27
-28
-29
-28
-27
-27
-27
-28
-29
-29
-29
-28
-27
-28
-29
-29
-29
-27
-25
-26
-27
-28
-29
-28
-28
-30
-31
-30
-29
-29
-29
-30
-31
-30
-30
-32
-33
-34
-35
-35
-35
-35
-33
-31
-32
-33
-33
-33
-32
-31
-32
-33
-33
-33
-33
-33
-33
-33
-32
-31
-32
-33
-33
-33
-32
-31
-31
-31
-31
-31
-31
-31
-32
-33
-32
-31
-31
-31
-31
-30
-28
-27
-29
-29
-29
-27
-25
-27
-29
-28
-27
-27
-27
-28
-29
-27
-25
-24
-23
-24
-25
-24
-23
-26
-27
-26
-25
-25
-25
-24
-23
-22
-21
-22
-23
-22
-21
-21
-21
-22
-22
-20
-19
-19
-21
-23
-20
-17
-14
-11
-9
-7
-5
-3
2
6
12
17
17
16
13
11
9
5
-2
-7
-11
-14
-16
-17
-18
-19
-18
-17
-17
-16
-14
-9
-2
2
6
58
117
183
249
226
198
73
-46
-91
-129
-110
-89
-62
-39
-27
-17
-18
-19
-19
-19
-20
-21
-19
-17
-17
-17
-17
-17
-16
-15
-14
-13
-13
-13
-13
-13
-13
-11
-8
-7
-6
-5
-6
-5
-2
-1
-1
1
3
5
7
6
5
8
11
13
15
16
17
20
23
25
27
29
32
35
37
38
41
45
48
50
51
52
55
58
59
60
61
61
61
61
58
54
52
50
46
49
34
27
23
19
14
9
5
1
-3
-7
-10
-13
-12
-11
-13
-15
-15
-15
-14
-13
-13
-13
-13
-13
-12
-11
-11
-11
-10
-9
-10
-11
-12
-13
-12
-11
-11
-11
-11
-11
-12
-14
-15
-13
-11
-12
-13
-13
-13
-13
-13
-14
-15
-15
-15
-15
-15
-16
-17
-16
-15
-16
-17
-17
-17
-17
-17
-16
-15
-16
-17
-16
-16
-18
-19
-18
-17
-17
-17
-17
-17
-16
-15
-17
-16
-15
-15
-15
-17
-19
-18
-17
-16
-15
-16
-17
-15
-13
-14
-15
-15
-15
-15
-15
-15
-15
-15
-15
-15
-15
-15
-15
-14
-13
-13
-13
-13
-13
-13
-13
-14
-15
-14
-13
-13
-13
-13
-13
-13
-13
-13
-13
-13
-12
-11
-13
-15
-13
-11
-11
-11
-12
-13
-11
-9
-10
-11
-11
-11
-10
-10
-12
-12
-10
-8
-6
-3
0
2
4
7
10
15
20
23
26
23
19
18
17
11
5
1
-3
-6
-9
-11
-13
-13
-13
-12
-11
-12
-12
-8
-4
0
10
26
68
134
204
278
238
132
31
-70
-106
-118
-103
-80
-55
-31
-22
-16
-15
-15
-15
-17
-17
-17
-16
-15
-16
-17
-17
-17
-15
-13
-14
-15
-13
-11
-11
-11
-11
-11
-9
-7
-8
-8
-6
-5
-4
-3
-2
0
2
3
4
5
5
6
8
9
10
13
16
18
17
22
23
27
31
33
35
36
37
39
41
43
45
48
52
55
57
58
59
60
61
60
58
55
52
49
44
38
32
27
22
17
12
7
2
-2
-5
-8
-12
-16
-17
-18
-21
-23
-22
-21
-21
-21
-21
-21
-19
-17
-18
-19
-19
-19
-19
-19
-20
-21
-19
-17
-18
-19
-19
-19
-18
-17
-18
-19
-20
-21
-21
-22
-24
-24
-22
-21
-22
-23
-23
-23
-22
-21
-23
-24
-25
-25
-25
-27
-29
-28
-27
-26
-25
-26
-27
-26
-25
-26
-27
-27
-27
-26
-25
-26
-27
-26
-25
-26
-27
-27
-27
-26
-25
-25
-25
-25
-25
-24
-24
-26
-27
-26
-25
-25
-25
-25
-24
-23
-23
-23
-24
-25
-25
-25
-26
-27
-26
-25
-25
-25
-26
-27
-25
-23
-23
-23
-23
-23
-23
-24
-26
-26
-24
-23
-23
-23
-24
-25
-24
-23
-22
-21
-22
-23
-23
-24
-25
-23
-21
-21
-21
-21
-21
-21
-21
-21
-21
-21
-21
-20
-19
-19
-17
-12
-9
-8
-6
-3
2
8
12
14
14
10
8
6
1
-5
-10
-14
-17
-20
-22
-24
-25
-24
-23
-23
-22
-21
-17
-13
-10
-3
29
68
135
197
249
247
119
7
-75
-125
-123
-110
-85
-62
-43
-31
-26
-24
-26
-27
-28
-29
-28
-27
-27
-27
-27
-27
-26
-25
-26
-27
-26
-25
-25
-24
-25
-23
-21
-20
-19
-19
-19
-16
-13
-15
-17
-14
-11
-11
-11
-9
-7
-6
-5
-2
-1
0
2
5
7
7
9
12
13
14
17
20
24
28
30
32
34
36
38
40
41
41
44
47
47
47
45
43
42
40
34
28
23
18
11
5
-2
-8
-11
-15
-20
-24
-27
-29
-30
-31
-32
-33
-33
-33
-34
-35
-36
-36
-34
-33
-33
-33
-34
-34
-32
-31
-31
-32
-33
-33
-33
-34
-35
-34
-33
-34
-35
-35
-35
-34
-33
-33
-33
-34
-35
-36
-37
-40
-41
-40
-39
-39
-39
-40
-41
-40
-39
-40
-41
-40
-39
-40
-41
-42
-43
-42
-41
-41
-41
-41
-40
-39
-39
-39
-40
-41
-41
-41
-42
-43
-42
-41
-41
-41
-42
-43
-41
-39
-40
-41
-40
-39
-38
-38
-41
-42
-40
-39
-39
-39
-40
-41
-40
-39
-38
-37
-38
-38
-36
-38
-41
-39
-37
-37
-37
-38
-39
-38
-37
-37
-37
-37
-37
-36
-35
-36
-37
-36
-35
-36
-37
-37
-37
-37
-37
-36
-35
-35
-35
-35
-35
-36
-36
-34
-33
-34
-35
-34
-29
-24
-23
-23
-20
-17
-13
-9
-6
-3
-2
-1
-3
-6
-11
-16
-21
-26
-29
-32
-35
-37
-36
-35
-36
-37
-36
-34
-31
-27
-23
-15
-4
49
120
190
259
212
136
38
-63
-106
-143
-127
-145
-87
-67
-50
-35
-36
-37
-39
-41
-41
-41
-42
-43
-41
-39
-39
-39
-38
-37
-35
-33
-33
-33
-33
-33
-32
-31
-32
-32
-30
-29
-28
-27
-26
-23
-20
-19
-19
-19
-19
-18
-16
-15
-15
-12
-9
-8
-7
-5
-3
1
5
7
9
10
11
15
17
19
21
23
26
29
31
32
34
36
37
36
35
34
32
30
25
19
14
10
4
-2
-8
-14
-17
-20
-24
-29
-31
-33
-34
-35
-37
-39
-39
-39
-38
-37
-37
-37
-36
-35
-35
-35
-36
-37
-36
-35
-38
-38
-36
-35
-36
-37
-37
-37
-36
-35
-36
-37
-36
-35
-36
-37
-38
-39
-38
-37
-37
-39
-39
-38
-37
-38
-39
-40
-41
-41
-41
-42
-43
-42
-41
-41
-41
-42
-43
-41
-39
-39
-39
-40
-41
-42
-43
-43
-42
-40
-39
-40
-41
-41
-41
-40
-39
-39
-39
-40
-41
-41
-42
-43
-41
-39
-39
-39
-39
-39
-38
-37
-37
-37
-38
-39
-38
-37
-38
-39
-38
-37
-37
-37
-37
-37
-36
-35
-36
-37
-36
-35
-35
-35
-36
-36
-34
-33
-34
-35
-35
-34
-32
-31
-33
-33
-33
-32
-31
-32
-33
-32
-31
-31
-31
-30
-28
-24
-20
-17
-15
-15
-13
-7
-2
1
4
6
6
4
2
-1
-6
-11
-15
-20
-24
-28
-29
-29
-29
-30
-31
-30
-27
-29
-20
-17
-13
-5
48
101
161
213
225
206
83
-24
-87
-128
-123
-110
-86
-63
-42
-31
-30
-29
-30
-31
-31
-31
-32
-32
-30
-29
-28
-27
-27
-27
-26
-25
-24
-23
-23
-23
-23
-23
-23
-21
-19
-18
-17
-16
-15
-13
-11
-10
-9
-8
-7
-6
-5
-4
-2
1
3
5
7
8
11
15
18
20
22
24
25
26
28
30
34
38
39
40
42
44
46
48
49
51
50
49
47
45
40
35
33
30
24
18
12
7
4
-1
-7
-11
-13
-16
-19
-22
-25
-27
-26
-25
-25
-25
-26
-26
-24
-23
-24
-25
-24
-23
-23
-24
-26
-26
-24
-23
-23
-23
-23
-22
-21
-21
-21
-22
-23
-23
-23
-24
-25
-25
-25
-25
-25
-26
-27
-26
-25
-25
-25
-26
-27
-26
-26
-29
-30
-28
-27
-27
-27
-27
-27
-26
-25
-26
-27
-27
-27
-26
-27
-29
-28
-27
-27
-27
-27
-27
-26
-25
-25
-25
-25
-25
-26
-27
-27
-27
-26
-25
-25
-25
-24
-23
-23
-23
-23
-23
-24
-25
-25
-25
-24
-23
-23
-23
-23
-23
-23
-23
-22
-21
-21
-22
-23
-22
-21
-23
-25
-23
-21
-21
-21
-21
-21
-20
-19
-19
-19
-19
-19
-20
-21
-22
-22
-20
-19
-19
-19
-19
-18
-16
-15
-14
-10
-6
-5
-6
-4
0
6
12
14
13
14
11
11
11
6
1
-6
-11
-14
-17
-20
-23
-22
-21
-20
-19
-18
-16
-13
-9
-4
9
28
70
131
196
263
224
126
29
-68
-106
-125
-111
-87
-62
-36
-28
-22
-21
-22
-25
-27
-24
-21
-22
-23
-22
-21
-20
-19
-19
-19
-19
-19
-18
-17
-18
-19
-17
-15
-14
-13
-13
-12
-9
-7
-7
-7
-6
-5
-4
-3
-3
-1
2
3
4
6
8
11
14
16
19
20
21
23
25
27
29
34
39
40
41
44
47
50
53
54
55
54
53
54
54
49
46
43
39
33
28
22
16
11
5
-1
-6
-10
-12
-14
-18
-22
-23
-23
-23
-23
-25
-25
-25
-25
-24
-23
-23
-23
-23
-23
-24
-25
-23
-21
-21
-21
-22
-23
-22
-21
-21
-21
-22
-23
-22
-22
-25
-26
-24
-23
-23
-23
-24
-25
-24
-24
-26
-27
-27
-27
-27
-28
-29
-28
-27
-28
-29
-29
-29
-28
-27
-28
-29
-29
-29
-28
-27
-29
-31
-30
-29
-28
-27
-28
-29
-28
-27
-28
-29
-29
-29
-28
-27
-28
-29
-28
-27
-27
-27
-27
-27
-26
-25
-25
-26
-27
-26
-25
-27
-29
-27
-25
-25
-25
-26
-27
-26
-25
-25
-25
-25
-25
-24
-23
-24
-25
-24
-23
-23
-23
-23
-23
-22
-21
-21
-21
-22
-23
-23
-23
-24
-24
-22
-21
-21
-21
-21
-19
-17
-13
-9
-7
-5
-3
-1
4
8
12
15
13
11
9
6
3
-1
-8
-12
-15
-18
-21
-23
-24
-25
-24
-23
-22
-20
-18
-13
-6
1
8
65
129
203
277
219
156
41
-67
-104
-135
-114
-93
-69
-46
-32
-21
-22
-23
-25
-27
-29
-30
-27
-25
-24
-23
-24
-24
-22
-21
-21
-21
-21
-21
-21
-21
-21
-19
-16
-15
-15
-15
-15
-14
-12
-11
-9
-8
-7
-5
-3
-4
-5
-2
1
3
5
6
7
10
13
15
17
19
22
25
27
28
31
35
38
41
43
44
47
50
51
51
51
51
51
51
47
42
40
38
33
37
21
15
10
5
-1
-7
-11
-15
-18
-21
-24
-27
-27
-27
-28
-29
-28
-27
-27
-27
-27
-27
-27
-27
-27
-27
-28
-28
-26
-25
-25
-25
-26
-27
-26
-25
-25
-25
-26
-27
-27
-29
-31
-29
-27
-28
-29
-29
-29
-28
-27
-29
-31
-31
-31
-31
-31
-33
-35
-34
-33
-34
-35
-35
-35
-34
-33
-32
-31
-32
-33
-34
-36
-38
-38
-36
-35
-35
-35
-35
-34
-32
-31
-33
-33
-33
-34
-35
-36
-37
-36
-35
-34
-33
-33
-33
-32
-31
-32
-33
-33
-33
-34
-35
-36
-36
-34
-33
-33
-33
-33
-33
-32
-31
-30
-29
-30
-31
-32
-33
-34
-34
-32
-31
-31
-31
-33
-30
-27
-28
-29
-30
-31
-30
-29
-31
-33
-30
-27
-26
-24
-20
-17
-15
-12
-9
-4
2
5
6
5
1
-1
-1
-6
-13
-18
-22
-24
-26
-28
-30
-31
-31
-30
-28
-27
-27
-22
-17
-12
0
56
114
178
227
218
180
64
-34
-92
-127
-121
-107
-81
-60
-42
-33
-32
-31
-32
-33
-32
-31
-31
-31
-30
-29
-30
-31
-30
-29
-28
-27
-27
-27
-26
-25
-25
-24
-23
-22
-21
-21
-21
-19
-17
-16
-15
-14
-13
-11
-9
-9
-9
-7
-5
-4
-3
-2
0
3
6
8
9
10
14
19
22
24
25
26
29
32
33
34
37
40
41
41
44
45
45
45
42
39
35
31
28
24
17
10
6
2
-3
-8
-11
-13
-15
-18
-21
-24
-26
-27
-27
-27
-28
-29
-28
-27
-27
-27
-26
-25
-24
-23
-22
-22
-24
-25
-24
-26
-29
-26
-23
-24
-25
-25
-25
-23
-21
-22
-23
-24
-25
-26
-27
-28
-29
-27
-25
-27
-29
-29
-29
-28
-27
-27
-27
-28
-29
-30
-31
-32
-32
-30
-29
-29
-29
-30
-30
-28
-27
-29
-30
-31
-30
-29
-30
-31
-30
-29
-28
-27
-29
-31
-28
-25
-26
-27
-27
-27
-26
-25
-28
-28
-26
-25
-25
-25
-26
-26
-24
-23
-23
-23
-24
-25
-25
-25
-26
-26
-24
-23
-23
-23
-23
-22
-21
-20
-19
-20
-21
-20
-19
-20
-21
-20
-19
-19
-19
-20
-20
-17
-15
-14
-11
-7
-4
-2
0
2
7
13
16
18
17
14
13
13
11
8
1
-6
-9
-12
-16
-19
-18
-17
-17
-17
-16
-15
-9
-4
1
8
20
50
117
185
254
262
179
85
-21
-88
-116
-117
-93
-69
-44
-29
-19
-15
-15
-17
-20
-19
-16
-15
-15
-15
-15
-15
-14
-13
-11
-11
-11
-11
-11
-11
-11
-9
-7
-7
-7
-6
-5
-2
1
1
1
1
1
3
5
5
6
9
11
12
14
16
19
22
24
26
27
28
30
32
34
36
41
46
47
47
51
53
57
61
62
63
63
63
64
65
60
57
57
56
52
47
41
36
32
27
20
15
11
7
3
0
-3
-5
-6
-7
-8
-9
-10
-11
-10
-9
-9
-9
-9
-9
-8
-9
-11
-8
-5
-6
-7
-7
-7
-6
-5
-6
-7
-7
-7
-7
-7
-8
-9
-9
-9
-9
-9
-10
-11
-10
-9
-10
-11
-12
-13
-12
-12
-14
-15
-14
-13
-13
-13
-14
-15
-14
-13
-13
-13
-13
-14
-15
-16
-17
-15
-13
-13
-13
-14
-15
-14
-13
-13
-13
-13
-13
-12
-11
-14
-14
-12
-11
-12
-13
-13
-13
-12
-11
-11
-11
-11
-11
-10
-10
-12
-12
-10
-9
-9
-11
-11
-10
-9
-9
-9
-9
-9
-9
-9
-10
-11
-10
-9
-9
-9
-9
-9
-8
-7
-8
-9
-9
-9
-8
-7
-8
-8
-6
-5
-4
-1
2
5
8
11
14
20
26
27
28
25
21
20
19
13
7
2
-3
-5
-7
-9
-11
-11
-11
-10
-9
-10
-9
-4
0
4
13
26
68
134
204
276
250
166
66
-40
-91
-122
-110
-86
-61
-37
-24
-12
-10
-8
-8
-11
-12
-13
-13
-13
-14
-15
-13
-11
-11
-11
-11
-11
-8
-5
-6
-7
-7
-7
-7
-7
-7
-6
-3
-1
0
1
2
4
6
7
8
9
10
12
14
15
14
16
20
22
21
26
27
31
35
38
41
42
43
47
51
52
53
56
59
60
61
62
63
64
65
64
61
57
53
49
43
36
29
23
17
11
6
2
0
-2
-6
-10
-11
-12
-13
-14
-17
-19
-18
-17
-17
-17
-17
-17
-16
-15
-15
-15
-15
-15
-14
-13
-15
-17
-16
-15
-15
-15
-15
-15
-14
-13
-14
-15
-16
-17
-17
-18
-20
-20
-18
-17
-18
-19
-20
-20
-18
-17
-19
-20
-21
-22
-23
-24
-25
-24
-23
-22
-21
-22
-23
-22
-21
-21
-21
-22
-23
-24
-25
-25
-24
-22
-21
-22
-23
-23
-23
-22
-21
-21
-21
-22
-23
-23
-23
-24
-24
-22
-21
-21
-21
-21
-20
-19
-20
-21
-21
-21
-22
-23
-24
-25
-23
-21
-21
-21
-21
-21
-20
-19
-20
-21
-20
-19
-19
-20
-22
-22
-20
-19
-19
-19
-20
-20
-18
-17
-18
-19
-19
-19
-19
-20
-21
-17
-13
-9
-5
-6
-6
0
6
11
15
16
17
15
12
9
6
2
-3
-8
-13
-18
-21
-20
-19
-20
-21
-21
-21
-20
-18
-16
-11
-5
17
41
100
164
227
291
169
40
-43
-121
-121
-119
-93
-68
-48
-31
-27
-23
-25
-27
-26
-25
-26
-27
-26
-25
-24
-23
-24
-25
-24
-23
-23
-23
-23
-22
-20
-19
-19
-19
-18
-16
-14
-14
-16
-15
-12
-11
-11
-9
-9
-6
-3
-2
-1
-1
-1
2
5
5
5
8
11
13
15
17
20
24
28
31
33
34
36
39
41
41
43
47
49
50
51
50
49
50
48
44
39
34
29
24
16
9
5
1
-3
-7
-12
-17
-19
-21
-23
-25
-27
-29
-29
-29
-31
-33
-31
-29
-29
-29
-29
-28
-26
-26
-28
-29
-29
-29
-29
-30
-32
-32
-30
-29
-28
-28
-30
-30
-28
-27
-29
-30
-31
-31
-31
-31
-31
-31
-31
-31
-31
-32
-33
-32
-31
-32
-33
-34
-35
-35
-35
-38
-38
-35
-33
-34
-35
-35
-34
-32
-31
-32
-33
-34
-35
-35
-35
-36
-36
-34
-33
-33
-35
-35
-34
-33
-33
-33
-33
-33
-34
-35
-35
-35
-34
-33
-33
-33
-34
-35
-33
-31
-31
-31
-32
-33
-32
-32
-34
-35
-34
-33
-33
-33
-32
-31
-31
-31
-31
-31
-30
-29
-30
-32
-33
-31
-29
-30
-31
-31
-31
-29
-27
-27
-27
-28
-29
-28
-27
-29
-29
-24
-21
-19
-17
-17
-13
-5
1
5
6
4
3
3
0
-5
-10
-14
-18
-22
-26
-30
-31
-30
-29
-29
-29
-29
-27
-25
-23
-21
-17
-4
43
94
154
203
227
201
78
-21
-85
-121
-121
-111
-90
-69
-48
-38
-35
-33
-33
-33
-32
-31
-32
-33
-33
-32
-30
-29
-29
-29
-29
-29
-29
-29
-29
-26
-23
-23
-23
-23
-23
-21
-19
-20
-21
-18
-15
-14
-13
-12
-11
-10
-9
-8
-7
-6
-4
-1
1
1
3
7
10
12
13
14
18
22
24
26
28
30
33
36
36
35
38
41
41
41
39
37
36
35
31
26
21
16
12
7
0
-6
-10
-14
-18
-22
-24
-25
-26
-28
-30
-31
-32
-33
-32
-31
-31
-31
-30
-29
-30
-31
-30
-29
-29
-29
-27
-28
-29
-29
-29
-30
-31
-31
-31
-30
-29
-29
-29
-29
-29
-30
-31
-31
-31
-30
-29
-32
-33
-32
-31
-32
-33
-33
-33
-33
-33
-33
-33
-34
-35
-35
-35
-34
-33
-32
-31
-31
-34
-35
-33
-31
-32
-33
-33
-33
-33
-33
-34
-35
-33
-31
-31
-31
-32
-33
-32
-31
-31
-31
-31
-31
-31
-31
-32
-32
-30
-29
-29
-29
-29
-29
-29
-29
-29
-29
-29
-29
-29
-29
-29
-28
-27
-27
-27
-27
-27
-25
-23
-24
-25
-25
-25
-25
-25
-26
-27
-26
-25
-24
-23
-24
-25
-24
-23
-23
-22
-18
-15
-11
-9
-9
-5
0
4
8
9
10
11
10
8
5
0
-5
-9
-13
-18
-23
-24
-25
-25
-25
-25
-25
-23
-20
-16
-12
-8
3
21
60
122
190
263
237
137
36
-65
-110
-128
-117
-93
-69
-44
-33
-25
-24
-26
-27
-26
-25
-25
-25
-25
-23
-21
-21
-21
-21
-21
-21
-21
-22
-23
-21
-19
-18
-17
-16
-15
-15
-15
-12
-11
-10
-9
-8
-7
-6
-5
-5
-3
0
1
2
3
4
7
10
12
14
16
18
22
25
26
27
30
33
35
37
40
43
46
49
50
51
53
55
56
57
55
53
52
50
47
43
38
32
27
22
17
11
5
0
-4
-9
-14
-15
-16
-18
-20
-21
-22
-23
-21
-22
-23
-22
-21
-22
-23
-22
-21
-20
-19
-19
-19
-19
-19
-19
-19
-19
-19
-20
-21
-24
-24
-22
-21
-21
-21
-21
-21
-20
-20
-22
-23
-23
-23
-24
-25
-26
-27
-26
-25
-25
-26
-27
-26
-25
-26
-27
-27
-27
-25
-23
-26
-29
-27
-25
-25
-25
-26
-27
-26
-25
-26
-27
-27
-27
-27
-27
-27
-27
-26
-25
-25
-25
-25
-25
-25
-25
-25
-25
-25
-25
-26
-26
-25
-24
-23
-22
-21
-22
-23
-23
-23
-24
-25
-24
-23
-24
-25
-25
-25
-24
-23
-23
-22
-20
-19
-20
-21
-22
-23
-22
-21
-22
-23
-23
-23
-22
-21
-21
-21
-21
-21
-20
-19
-17
-15
-13
-10
-7
-7
-7
0
5
9
13
13
13
11
8
5
1
-4
-8
-12
-16
-21
-23
-23
-23
-23
-23
-23
-22
-20
-17
-12
-9
-6
19
50
109
173
230
288
169
291
-41
-121
-122
-121
-97
-72
-49
-29
-25
-21
-24
-27
-26
-25
-25
-25
-25
-25
-24
-23
-23
-23
-23
-23
-22
-21
-21
-20
-18
-17
-17
-17
-18
-17
-14
-13
-12
-11
-11
-10
-8
-7
-7
-5
-3
-1
1
1
1
4
7
9
11
12
13
17
19
20
22
26
30
33
35
36
39
43
46
48
49
49
49
50
51
50
49
50
48
44
39
34
29
24
18
11
5
-1
-5
-9
-14
-19
-19
-19
-21
-23
-26
-29
-27
-25
-26
-27
-28
-29
-29
-29
-29
-29
-28
-27
-26
-25
-26
-27
-26
-25
-25
-25
-26
-27
-27
-28
-30
-30
-28
-27
-27
-28
-29
-28
-27
-28
-29
-29
-29
-30
-31
-33
-35
-32
-29
-30
-31
-32
-33
-32
-31
-32
-33
-34
-35
-34
-33
-34
-35
-34
-33
-33
-33
-34
-34
-32
-31
-32
-33
-34
-35
-35
-36
-37
-35
-33
-32
-31
-33
-35
-33
-31
-32
-33
-33
-33
-33
-33
-34
-35
-33
-31
-32
-33
-33
-32
-30
-29
-30
-31
-31
-31
-32
-33
-34
-34
-32
-31
-31
-31
-32
-32
-30
-29
-31
-31
-31
-31
-31
-32
-33
-31
-29
-29
-29
-29
-29
-28
-27
-27
-27
-26
-24
-21
-19
-19
-17
-13
-8
-2
2
4
5
4
3
3
0
-6
-11
-16
-22
-28
-29
-29
-29
-29
-31
-31
-30
-29
-27
-25
-21
-15
-2
24
88
154
221
247
185
106
2
-75
-115
-130
-115
-97
-76
-58
-42
-35
-35
-35
-35
-35
-34
-33
-34
-35
-34
-33
-33
-33
-33
-33
-32
-32
-33
-31
-29
-28
-27
-27
-27
-25
-23
-23
-23
-23
-23
-21
-19
-20
-20
-17
-15
-13
-11
-10
-8
-6
-4
-2
-1
0
2
4
5
4
7
13
15
16
18
20
24
28
30
33
34
35
35
35
35
35
37
39
37
34
30
27
25
21
14
7
2
-3
-9
-15
-22
-25
-25
-26
-29
-31
-32
-33
-33
-33
-34
-35
-35
-35
-36
-37
-37
-36
-34
-33
-33
-34
-35
-33
-31
-32
-33
-33
-33
-34
-35
-36
-37
-36
-35
-34
-33
-34
-35
-34
-33
-36
-37
-37
-37
-38
-39
-40
-41
-40
-39
-38
-37
-38
-39
-38
-37
-37
-38
-40
-41
-41
-42
-43
-41
-39
-39
-39
-40
-41
-39
-37
-38
-39
-39
-39
-39
-39
-40
-41
-39
-37
-38
-39
-38
-37
-36
-35
-36
-37
-37
-37
-37
-37
-38
-38
-36
-35
-36
-37
-37
-36
-34
-33
-33
-34
-35
-35
-35
-36
-37
-35
-33
-33
-33
-35
-37
-34
-31
-33
-35
-34
-33
-32
-31
-32
-33
-32
-31
-31
-31
-30
-26
-21
-19
-18
-17
-16
-10
-3
0
2
3
4
5
5
-1
-5
-11
-17
-20
-23
-26
-29
-29
-29
-29
-29
-28
-27
-25
-22
-16
-10
-3
28
88
152
220
232
197
111
-8
-79
-127
-129
-112
-90
-66
-48
-32
-29
-28
-27
-28
-29
-29
-29
-29
-28
-27
-27
-27
-27
-27
-26
-25
-23
-21
-22
-23
-22
-21
-22
-22
-19
-17
-16
-15
-14
-12
-10
-9
-9
-8
-6
-5
-4
-3
-2
0
2
4
6
8
10
13
16
19
23
24
25
27
29
31
33
36
39
41
43
45
47
48
49
49
49
48
47
46
43
38
34
31
27
23
17
10
6
4
0
-5
-10
-14
-15
-15
-17
-20
-21
-20
-19
-19
-21
-21
-20
-19
-18
-17
-17
-17
-16
-15
-17
-19
-17
-15
-15
-15
-16
-17
-16
-15
-15
-15
-15
-15
-15
-16
-18
-19
-18
-17
-17
-17
-18
-19
-18
-17
-17
-18
-20
-21
-21
-22
-23
-22
-21
-21
-21
-22
-23
-21
-19
-20
-21
-21
-21
-21
-21
-23
-25
-23
-21
-22
-23
-23
-22
-20
-19
-19
-19
-20
-21
-21
-21
-22
-22
-20
-19
-19
-19
-19
-19
-18
-17
-17
-17
-17
-18
-19
-20
-21
-19
-17
-17
-17
-17
-17
-15
-13
-14
-15
-16
-17
-16
-15
-18
-18
-15
-13
-14
-15
-15
-15
-14
-13
-13
-13
-13
-13
-14
-15
-16
-14
-10
-9
-9
-4
-1
0
1
5
9
14
19
21
23
20
17
16
14
9
4
-2
-5
-7
-9
-12
-13
-14
-15
-15
-15
-16
-13
-7
-3
1
15
31
86
150
224
298
216
114
11
-93
-114
-133
-105
-77
-52
-29
-21
-15
-14
-13
-15
-17
-17
-17
-17
-17
-17
-17
-16
-15
-14
-13
-13
-13
-12
-11
-10
-9
-10
-10
-8
-7
-8
-8
-6
-5
-4
-3
-2
1
4
5
5
6
7
9
11
11
11
14
17
20
23
24
26
30
34
37
39
40
42
46
49
49
50
53
56
58
59
60
61
62
62
60
57
54
49
44
37
30
25
20
15
19
4
-1
-4
-7
-9
-11
-15
-19
-19
-19
-21
-23
-21
-19
-19
-19
-19
-19
-18
-17
-17
-17
-18
-19
-18
-18
-20
-20
-18
-17
-17
-17
-18
-18
-16
-15
-16
-17
-18
-19
-20
-21
-21
-21
-21
-21
-21
-22
-23
-22
-21
-22
-23
-24
-25
-25
-25
-27
-29
-27
-25
-25
-25
-26
-26
-24
-23
-23
-23
-24
-25
-25
-26
-28
-28
-26
-25
-25
-25
-25
-25
-24
-23
-23
-24
-25
-25
-25
-26
-27
-26
-25
-25
-25
-26
-27
-25
-23
-23
-23
-24
-25
-24
-23
-26
-26
-24
-23
-23
-23
-24
-24
-22
-21
