-1208
-1208
-1207
-1207
-1208
-1207
-1204
-1203
-1200
-1197
-1192
-1188
-1183
-1179
-1174
-1168
-1161
-1153
-1145
-1137
-1132
-1124
-1120
-1117
-1114
-1113
-1114
-1112
-1111
-1111
-1113
-1118
-1121
-1126
-1128
-1130
-1132
-1134
-1138
-1144
-1148
-1152
-1155
-1155
-1157
-1160
-1164
-1167
-1168
-1168
-1168
-1168
-1168
-1171
-1172
-1173
-1176
-1176
-1176
-1175
-1173
-1171
-1171
-1172
-1172
-1170
-1169
-1168
-1165
-1162
-1160
-1159
-1155
-1153
-1151
-1147
-1142
-1137
-1136
-1138
-1138
-1139
-1142
-1143
-1144
-1147
-1151
-1154
-1157
-1161
-1167
-1172
-1174
-1174
-1174
-1175
-1176
-1176
-1176
-1176
-1177
-1176
-1175
-1176
-1182
-1181
-1169
-1144
-1118
-1079
-1016
-937
-868
-828
-814
-823
-864
-926
-1010
-1100
-1185
-1243
-1263
-1261
-1261
-1260
-1255
-1247
-1238
-1229
-1224
-1222
-1220
-1220
-1217
-1217
-1215
-1213
-1214
-1215
-1214
-1214
-1211
-1211
-1210
-1207
-1202
-1200
-1196
-1192
-1187
-1180
-1174
-1167
-1160
-1152
-1144
-1138
-1132
-1127
-1124
-1120
-1117
-1114
-1112
-1112
-1114
-1117
-1120
-1123
-1125
-1127
-1128
-1132
-1134
-1138
-1141
-1144
-1147
-1151
-1154
-1157
-1160
-1163
-1165
-1167
-1168
-1170
-1172
-1173
-1174
-1175
-1175
-1175
-1174
-1172
-1170
-1168
-1168
-1168
-1167
-1165
-1163
-1161
-1158
-1155
-1152
-1150
-1150
-1152
-1151
-1150
-1147
-1143
-1140
-1139
-1140
-1138
-1139
-1138
-1139
-1140
-1142
-1146
-1148
-1151
-1155
-1160
-1166
-1170
-1172
-1171
-1171
-1172
-1172
-1170
-1169
-1170
-1170
-1170
-1172
-1175
-1179
-1175
-1156
-1126
-1093
-1043
-966
-888
-834
-812
-809
-835
-888
-968
-1061
-1154
-1221
-1250
-1249
-1249
-1248
-1243
-1234
-1222
-1214
-1212
-1212
-1212
-1210
-1208
-1206
-1205
-1204
-1202
-1202
-1201
-1201
-1201
-1200
-1199
-1197
-1196
-1193
-1191
-1186
-1180
-1175
-1168
-1161
-1153
-1148
-1140
-1134
-1126
-1118
-1112
-1107
-1104
-1102
-1098
-1097
-1096
-1096
-1096
-1098
-1100
-1103
-1107
-1110
-1113
-1117
-1122
-1127
-1130
-1133
-1136
-1140
-1144
-1147
-1150
-1151
-1152
-1154
-1155
-1156
-1158
-1159
-1160
-1160
-1160
-1160
-1160
-1160
-1160
-1159
-1159
-1159
-1159
-1157
-1154
-1151
-1146
-1144
-1141
-1138
-1139
-1138
-1134
-1130
-1125
-1122
-1121
-1122
-1121
-1122
-1123
-1124
-1125
-1129
-1133
-1136
-1140
-1145
-1150
-1156
-1160
-1162
-1163
-1164
-1164
-1165
-1164
-1163
-1162
-1162
-1162
-1162
-1166
-1168
-1158
-1132
-1105
-1070
-1009
-929
-859
-818
-807
-818
-861
-928
-1016
-1111
-1192
-1240
-1253
-1250
-1248
-1247
-1240
-1228
-1214
-1207
-1205
-1204
-1202
-1203
-1200
-1199
-1198
-1198
-1198
-1197
-1196
-1195
-1194
-1194
-1192
-1192
-1191
-1189
-1187
-1182
-1177
-1172
-1165
-1157
-1148
-1140
-1133
-1128
-1122
-1116
-1110
-1106
-1103
-1100
-1098
-1096
-1096
-1098
-1099
-1102
-1104
-1107
-1111
-1113
-1117
-1120
-1122
-1127
-1131
-1136
-1138
-1142
-1145
-1147
-1150
-1152
-1154
-1157
-1160
-1161
-1162
-1161
-1161
-1161
-1161
-1162
-1164
-1166
-1167
-1168
-1168
-1168
-1168
-1166
-1163
-1160
-1159
-1155
-1153
-1152
-1150
-1146
-1143
-1138
-1134
-1132
-1134
-1134
-1135
-1134
-1134
-1135
-1136
-1139
-1142
-1144
-1148
-1153
-1159
-1163
-1164
-1166
-1167
-1168
-1169
-1168
-1167
-1167
-1166
-1165
-1167
-1168
-1173
-1174
-1163
-1137
-1110
-1074
-1012
-933
-864
-824
-811
-818
-856
-916
-999
-1091
-1177
-1237
-1261
-1259
-1258
-1257
-1253
-1244
-1232
-1222
-1216
-1214
-1212
-1213
-1213
-1213
-1210
-1206
-1205
-1205
-1205
-1204
-1202
-1202
-1200
-1200
-1198
-1195
-1191
-1188
-1184
-1177
-1172
-1166
-1159
-1150
-1142
-1136
-1128
-1124
-1121
-1117
-1112
-1109
-1108
-1107
-1108
-1110
-1112
-1111
-1114
-1116
-1119
-1124
-1128
-1131
-1134
-1138
-1143
-1148
-1152
-1156
-1160
-1162
-1162
-1164
-1165
-1166
-1165
-1167
-1168
-1168
-1170
-1170
-1170
-1170
-1172
-1172
-1173
-1172
-1172
-1169
-1167
-1163
-1160
-1160
-1159
-1157
-1158
-1156
-1152
-1148
-1144
-1140
-1140
-1141
-1141
-1141
-1142
-1143
-1145
-1147
-1147
-1152
-1160
-1165
-1168
-1171
-1174
-1173
-1173
-1174
-1176
-1180
-1178
-1179
-1178
-1178
-1179
-1179
-1181
-1185
-1183
-1167
-1138
-1110
-1064
-992
-914
-856
-828
-821
-841
-885
-954
-1043
-1133
-1208
-1257
-1265
-1264
-1263
-1263
-1256
-1246
-1235
-1226
-1221
-1218
-1216
-1214
-1214
-1214
-1214
-1214
-1214
-1213
-1209
-1209
-1208
-1208
-1208
-1207
-1204
-1201
-1199
-1196
-1190
-1184
-1176
-1168
-1161
-1152
-1144
-1136
-1132
-1127
-1125
-1122
-1120
-1118
-1116
-1115
-1116
-1119
-1123
-1125
-1128
-1130
-1132
-1136
-1141
-1145
-1149
-1155
-1159
-1160
-1163
-1166
-1168
-1168
-1171
-1170
-1172
-1174
-1173
-1174
-1172
-1171
-1171
-1172
-1172
-1174
-1174
-1175
-1173
-1172
-1172
-1168
-1165
-1162
-1158
-1155
-1153
-1152
-1149
-1146
-1141
-1136
-1132
-1128
-1129
-1129
-1131
-1133
-1134
-1136
-1138
-1141
-1144
-1150
-1154
-1161
-1167
-1171
-1171
-1170
-1172
-1171
-1172
-1170
-1170
-1172
-1172
-1171
-1172
-1177
-1175
-1162
-1137
-1110
-1066
-1000
-922
-856
-821
-809
-822
-864
-929
-1017
-1113
-1195
-1246
-1256
-1251
-1248
-1248
-1243
-1233
-1222
-1213
-1210
-1212
-1212
-1210
-1209
-1209
-1209
-1207
-1205
-1203
-1202
-1203
-1202
-1203
-1202
-1201
-1200
-1198
-1194
-1188
-1183
-1177
-1171
-1163
-1155
-1149
-1141
-1136
-1129
-1123
-1120
-1116
-1113
-1111
-1109
-1109
-1110
-1111
-1111
-1112
-1113
-1115
-1119
-1122
-1125
-1128
-1132
-1136
-1140
-1143
-1146
-1150
-1152
-1153
-1154
-1157
-1159
-1161
-1163
-1163
-1166
-1168
-1169
-1170
-1169
-1170
-1170
-1169
-1168
-1168
-1166
-1164
-1160
-1156
-1154
-1152
-1150
-1150
-1148
-1146
-1142
-1136
-1133
-1132
-1132
-1132
-1133
-1135
-1136
-1138
-1140
-1142
-1140
-1143
-1148
-1154
-1159
-1160
-1164
-1164
-1167
-1168
-1168
-1168
-1168
-1167
-1168
-1168
-1168
-1174
-1176
-1168
-1143
-1117
-1084
-1030
-951
-875
-828
-808
-812
-848
-908
-992
-1088
-1175
-1232
-1247
-1243
-1240
-1239
-1233
-1223
-1216
-1212
-1212
-1213
-1211
-1209
-1207
-1207
-1205
-1204
-1202
-1202
-1200
-1200
-1197
-1195
-1194
-1194
-1191
-1189
-1184
-1180
-1175
-1171
-1163
-1155
-1147
-1140
-1133
-1126
-1122
-1118
-1114
-1111
-1108
-1105
-1103
-1102
-1102
-1100
-1103
-1105
-1108
-1109
-1111
-1113
-1118
-1120
-1124
-1127
-1132
-1136
-1140
-1144
-1145
-1148
-1150
-1152
-1154
-1155
-1156
-1156
-1155
-1153
-1154
-1156
-1156
-1157
-1156
-1156
-1156
-1158
-1157
-1154
-1151
-1148
-1146
-1146
-1145
-1144
-1144
-1142
-1138
-1133
-1131
-1131
-1130
-1131
-1128
-1128
-1130
-1131
-1134
-1134
-1136
-1140
-1145
-1151
-1156
-1160
-1162
-1163
-1165
-1165
-1167
-1165
-1164
-1166
-1167
-1166
-1166
-1168
-1172
-1168
-1151
-1125
-1098
-1056
-987
-906
-843
-812
-802
-820
-871
-939
-1028
-1120
-1195
-1240
-1244
-1239
-1237
-1233
-1225
-1216
-1212
-1212
-1212
-1211
-1210
-1210
-1210
-1209
-1209
-1208
-1207
-1206
-1206
-1205
-1206
-1204
-1206
-1205
-1202
-1199
-1196
-1192
-1187
-1181
-1174
-1168
-1162
-1154
-1145
-1138
-1132
-1128
-1124
-1120
-1115
-1111
-1110
-1109
-1108
-1106
-1107
-1107
-1108
-1112
-1115
-1119
-1124
-1127
-1129
-1132
-1137
-1142
-1147
-1151
-1154
-1155
-1157
-1160
-1160
-1161
-1163
-1165
-1166
-1167
-1167
-1166
-1168
-1168
-1167
-1168
-1166
-1165
-1164
-1160
-1157
-1157
-1155
-1155
-1152
-1149
-1144
-1141
-1137
-1135
-1135
-1134
-1136
-1134
-1134
-1137
-1138
-1138
-1141
-1146
-1149
-1154
-1161
-1164
-1167
-1168
-1170
-1172
-1172
-1172
-1171
-1170
-1169
-1168
-1168
-1170
-1175
-1173
-1154
-1127
-1096
-1046
-972
-893
-841
-816
-813
-840
-895
-975
-1068
-1159
-1224
-1253
-1251
-1248
-1246
-1240
-1230
-1218
-1209
-1208
-1208
-1208
-1208
-1208
-1210
-1209
-1209
-1207
-1206
-1205
-1205
-1204
-1201
-1200
-1200
-1199
-1198
-1195
-1193
-1189
-1184
-1177
-1170
-1163
-1156
-1150
-1144
-1138
-1132
-1127
-1122
-1119
-1115
-1112
-1110
-1109
-1108
-1108
-1109
-1110
-1112
-1114
-1116
-1118
-1120
-1124
-1128
-1129
-1134
-1137
-1140
-1144
-1146
-1149
-1151
-1153
-1156
-1158
-1160
-1161
-1163
-1163
-1164
-1165
-1166
-1168
-1168
-1169
-1166
-1162
-1158
-1155
-1153
-1152
-1152
-1151
-1148
-1143
-1138
-1136
-1135
-1134
-1134
-1133
-1132
-1135
-1136
-1139
-1141
-1146
-1150
-1154
-1160
-1163
-1165
-1165
-1166
-1166
-1167
-1168
-1168
-1168
-1167
-1166
-1166
-1168
-1174
-1175
-1161
-1134
-1107
-1065
-997
-918
-856
-824
-817
-835
-887
-957
-1047
-1139
-1212
-1254
-1258
-1256
-1254
-1251
-1243
-1232
-1221
-1216
-1213
-1212
-1211
-1211
-1210
-1209
-1209
-1210
-1211
-1211
-1211
-1210
-1209
-1205
-1203
-1200
-1197
-1194
-1191
-1186
-1181
-1175
-1168
-1161
-1155
-1148
-1141
-1136
-1130
-1125
-1121
-1118
-1116
-1113
-1112
-1112
-1112
-1112
-1114
-1114
-1115
-1116
-1120
-1123
-1127
-1130
-1133
-1137
-1143
-1146
-1148
-1152
-1155
-1157
-1160
-1162
-1164
-1167
-1169
-1171
-1172
-1172
-1172
-1171
-1170
-1169
-1168
-1167
-1164
-1159
-1156
-1156
-1156
-1156
-1155
-1152
-1148
-1143
-1138
-1135
-1136
-1137
-1136
-1136
-1137
-1140
-1144
-1146
-1149
-1152
-1155
-1160
-1166
-1170
-1172
-1172
-1172
-1174
-1174
-1175
-1174
-1175
-1175
-1176
-1175
-1178
-1182
-1180
-1162
-1134
-1104
-1058
-987
-908
-850
-823
-818
-844
-897
-973
-1065
-1156
-1225
-1263
-1264
-1261
-1260
-1257
-1248
-1235
-1223
-1216
-1214
-1214
-1213
-1212
-1212
-1212
-1211
-1210
-1209
-1209
-1207
-1206
-1204
-1201
-1200
-1199
-1197
-1194
-1191
-1186
-1181
-1175
-1168
-1161
-1155
-1148
-1142
-1134
-1128
-1122
-1116
-1112
-1109
-1107
-1106
-1104
-1105
-1106
-1108
-1110
-1112
-1115
-1117
-1119
-1121
-1125
-1129
-1132
-1136
-1140
-1144
-1148
-1152
-1155
-1159
-1160
-1161
-1163
-1163
-1164
-1166
-1166
-1165
-1165
-1165
-1165
-1164
-1162
-1160
-1157
-1157
-1154
-1153
-1152
-1151
-1149
-1147
-1141
-1136
-1130
-1129
-1129
-1127
-1127
-1128
-1130
-1132
-1135
-1138
-1141
-1147
-1152
-1157
-1162
-1164
-1167
-1168
-1168
-1168
-1169
-1168
-1168
-1168
-1169
-1169
-1171
-1176
-1177
-1168
-1144
-1117
-1084
-1025
-944
-871
-826
-810
-816
-860
-925
-1014
-1107
-1190
-1244
-1263
-1259
-1258
-1257
-1250
-1239
-1225
-1213
-1208
-1207
-1206
-1205
-1205
-1204
-1204
-1203
-1202
-1203
-1202
-1201
-1201
-1200
-1200
-1196
-1193
-1191
-1187
-1184
-1179
-1174
-1170
-1163
-1157
-1151
-1144
-1138
-1133
-1128
-1123
-1118
-1114
-1111
-1107
-1105
-1104
-1103
-1104
-1104
-1106
-1108
-1112
-1115
-1120
-1122
-1126
-1130
-1134
-1138
-1140
-1142
-1144
-1147
-1149
-1151
-1153
-1156
-1158
-1159
-1160
-1161
-1162
-1164
-1164
-1164
-1163
-1164
-1164
-1163
-1160
-1158
-1155
-1153
-1152
-1151
-1150
-1150
-1147
-1144
-1139
-1134
-1130
-1130
-1131
-1130
-1128
-1129
-1132
-1135
-1138
-1140
-1143
-1148
-1153
-1158
-1163
-1167
-1168
-1170
-1169
-1168
-1168
-1167
-1166
-1166
-1164
-1164
-1166
-1169
-1174
-1169
-1150
-1123
-1095
-1045
-968
-890
-836
-812
-811
-843
-899
-978
-1070
-1163
-1229
-1264
-1266
-1264
-1262
-1256
-1247
-1235
-1223
-1216
-1212
-1211
-1209
-1208
-1207
-1206
-1205
-1205
-1206
-1205
-1206
-1205
-1204
-1204
-1200
-1199
-1196
-1193
-1188
-1183
-1177
-1171
-1164
-1158
-1151
-1144
-1139
-1133
-1127
-1123
-1119
-1114
-1111
-1110
-1108
-1106
-1105
-1105
-1108
-1111
-1113
-1117
-1120
-1123
-1125
-1128
-1131
-1136
-1139
-1144
-1147
-1151
-1153
-1157
-1160
-1163
-1165
-1167
-1167
-1168
-1169
-1170
-1171
-1171
-1171
-1169
-1169
-1169
-1169
-1168
-1163
-1160
-1158
-1157
-1154
-1152
-1154
-1154
-1152
-1145
-1141
-1138
-1139
-1138
-1136
-1134
-1134
-1137
-1140
-1143
-1146
-1150
-1156
-1161
-1166
-1171
-1173
-1174
-1174
-1172
-1174
-1176
-1176
-1176
-1176
-1175
-1174
-1174
-1180
-1184
-1179
-1158
-1132
-1102
-1051
-975
-894
-839
-814
-810
-841
-898
-978
-1072
-1162
-1228
-1262
-1266
-1265
-1264
-1261
-1252
-1239
-1227
-1218
-1216
-1215
-1215
-1213
-1213
-1212
-1212
-1212
-1214
-1216
-1215
-1214
-1213
-1212
-1209
-1206
-1204
-1200
-1196
-1190
-1184
-1179
-1173
-1167
-1160
-1152
-1147
-1142
-1135
-1129
-1124
-1122
-1119
-1117
-1115
-1114
-1112
-1111
-1113
-1114
-1117
-1119
-1123
-1127
-1129
-1133
-1139
-1142
-1145
-1149
-1154
-1156
-1159
-1161
-1164
-1168
-1170
-1172
-1175
-1176
-1176
-1177
-1176
-1175
-1176
-1176
-1175
-1175
-1175
-1174
-1173
-1169
-1167
-1164
-1164
-1164
-1163
-1161
-1158
-1151
-1146
-1143
-1143
-1143
-1144
-1144
-1145
-1147
-1147
-1149
-1148
-1154
-1160
-1166
-1170
-1172
-1174
-1176
-1176
-1175
-1177
-1179
-1178
-1178
-1178
-1178
-1179
-1181
-1188
-1192
-1184
-1160
-1128
-1093
-1033
-953
-879
-833
-816
-818
-856
-917
-1004
-1098
-1187
-1250
-1273
-1271
-1269
-1268
-1265
-1257
-1250
-1239
-1230
-1228
-1226
-1224
-1224
-1221
-1223
-1220
-1219
-1218
-1218
-1218
-1217
-1217
-1216
-1216
-1214
-1210
-1205
-1200
-1193
-1189
-1181
-1175
-1171
-1163
-1158
-1152
-1147
-1144
-1142
-1139
-1136
-1133
-1131
-1129
-1130
-1129
-1130
-1133
-1138
-1139
-1140
-1144
-1146
-1149
-1152
-1156
-1160
-1164
-1166
-1169
-1174
-1175
-1175
-1175
-1176
-1177
-1181
-1184
-1183
-1181
-1181
-1184
-1184
-1184
-1184
-1186
-1187
-1184
-1182
-1179
-1179
-1175
-1172
-1170
-1171
-1169
-1168
-1166
-1160
-1154
-1152
-1152
-1154
-1152
-1151
-1152
-1155
-1157
-1159
-1160
-1163
-1167
-1174
-1182
-1182
-1186
-1185
-1186
-1187
-1192
-1195
-1190
-1188
-1186
-1189
-1188
-1190
-1190
-1184
-1164
-1138
-1108
-1056
-979
-894
-837
-811
-808
-840
-894
-975
-1066
-1155
-1224
-1263
-1264
-1260
-1262
-1261
-1256
-1248
-1237
-1230
-1227
-1226
-1224
-1225
-1225
-1225
-1221
-1218
-1216
-1216
-1216
-1220
-1216
-1215
-1213
-1212
-1208
-1205
-1200
-1200
-1195
-1187
-1180
-1173
-1160
-1149
-1143
-1141
-1136
-1129
-1127
-1124
-1123
-1121
-1123
-1124
-1118
-1121
-1121
-1124
-1128
-1132
-1136
-1138
-1140
-1144
-1151
-1153
-1157
-1162
-1164
-1168
-1168
-1171
-1175
-1175
-1171
-1173
-1170
-1174
-1175
-1179
-1180
-1177
-1178
-1180
-1180
-1177
-1176
-1174
-1171
-1169
-1167
-1164
-1159
-1159
-1157
-1156
-1149
-1145
-1140
-1140
-1139
-1140
-1139
-1140
-1140
-1140
-1143
-1144
-1149
-1152
-1155
-1161
-1164
-1165
-1168
-1170
-1171
-1174
-1175
-1176
-1176
-1176
-1175
-1173
-1172
-1175
-1176
-1174
-1156
-1127
-1098
-1055
-982
-900
-835
-800
-789
-812
-864
-937
-1033
-1126
-1202
-1246
-1249
-1244
-1242
-1241
-1236
-1225
-1214
-1205
-1203
-1204
-1205
-1202
-1202
-1201
-1201
-1201
-1201
-1200
-1198
-1197
-1196
-1197
-1196
-1194
-1190
-1186
-1183
-1179
-1172
-1168
-1165
-1158
-1152
-1145
-1138
-1132
-1125
-1118
-1115
-1113
-1110
-1109
-1108
-1107
-1107
-1105
-1106
-1108
-1110
-1112
-1116
-1120
-1123
-1122
-1123
-1125
-1130
-1136
-1137
-1139
-1140
-1143
-1145
-1147
-1149
-1153
-1154
-1155
-1154
-1153
-1153
-1154
-1154
-1154
-1154
-1155
-1155
-1155
-1154
-1153
-1148
-1144
-1142
-1140
-1140
-1140
-1137
-1132
-1127
-1122
-1121
-1122
-1121
-1118
-1119
-1120
-1121
-1124
-1126
-1128
-1131
-1136
-1142
-1147
-1150
-1152
-1152
-1152
-1151
-1150
-1149
-1148
-1147
-1147
-1147
-1147
-1151
-1154
-1147
-1124
-1098
-1065
-1011
-935
-856
-805
-782
-781
-810
-862
-939
-1031
-1124
-1195
-1233
-1234
-1231
-1229
-1225
-1218
-1208
-1198
-1193
-1193
-1191
-1189
-1188
-1189
-1188
-1188
-1188
-1187
-1187
-1186
-1186
-1185
-1184
-1182
-1180
-1176
-1173
-1169
-1165
-1160
-1155
-1147
-1139
-1132
-1127
-1120
-1113
-1106
-1101
-1097
-1093
-1089
-1088
-1086
-1085
-1084
-1086
-1087
-1091
-1094
-1096
-1099
-1101
-1104
-1108
-1111
-1114
-1118
-1122
-1124
-1127
-1130
-1132
-1135
-1137
-1136
-1138
-1139
-1141
-1143
-1144
-1146
-1146
-1146
-1146
-1145
-1145
-1143
-1140
-1138
-1136
-1131
-1129
-1128
-1127
-1127
-1126
-1125
-1120
-1115
-1111
-1110
-1111
-1111
-1112
-1112
-1113
-1115
-1119
-1121
-1124
-1127
-1131
-1135
-1141
-1145
-1147
-1148
-1150
-1151
-1152
-1152
-1152
-1152
-1150
-1150
-1151
-1153
-1158
-1156
-1138
-1111
-1081
-1036
-960
-876
-815
-789
-785
-810
-863
-941
-1033
-1128
-1200
-1238
-1240
-1238
-1237
-1233
-1224
-1211
-1200
-1196
-1196
-1195
-1194
-1193
-1193
-1194
-1193
-1192
-1193
-1194
-1194
-1193
-1191
-1191
-1189
-1186
-1183
-1180
-1177
-1173
-1168
-1163
-1156
-1148
-1141
-1133
-1127
-1121
-1114
-1110
-1105
-1102
-1100
-1096
-1095
-1094
-1093
-1093
-1095
-1097
-1098
-1100
-1104
-1106
-1110
-1114
-1119
-1126
-1128
-1132
-1136
-1138
-1142
-1145
-1148
-1151
-1152
-1155
-1156
-1158
-1158
-1160
-1160
-1162
-1163
-1162
-1161
-1160
-1161
-1161
-1160
-1158
-1154
-1152
-1149
-1149
-1149
-1149
-1147
-1144
-1138
-1134
-1131
-1132
-1133
-1134
-1132
-1131
-1132
-1134
-1137
-1138
-1143
-1148
-1152
-1157
-1160
-1164
-1164
-1166
-1167
-1168
-1168
-1166
-1166
-1166
-1167
-1166
-1168
-1174
-1173
-1157
-1131
-1102
-1054
-976
-892
-832
-805
-799
-821
-873
-949
-1041
-1136
-1212
-1258
-1263
-1260
-1261
-1260
-1251
-1239
-1227
-1218
-1216
-1216
-1215
-1213
-1211
-1211
-1211
-1210
-1207
-1206
-1204
-1203
-1204
-1203
-1202
-1200
-1197
-1193
-1191
-1185
-1180
-1175
-1169
-1162
-1155
-1150
-1145
-1138
-1130
-1124
-1122
-1117
-1113
-1110
-1108
-1107
-1106
-1109
-1111
-1112
-1115
-1117
-1122
-1125
-1129
-1135
-1139
-1144
-1146
-1151
-1155
-1156
-1159
-1161
-1163
-1165
-1166
-1168
-1169
-1168
-1169
-1170
-1173
-1172
-1171
-1171
-1171
-1174
-1175
-1173
-1169
-1165
-1161
-1160
-1160
-1161
-1161
-1159
-1156
-1151
-1146
-1144
-1143
-1143
-1140
-1138
-1139
-1145
-1148
-1150
-1150
-1153
-1161
-1168
-1174
-1176
-1179
-1178
-1178
-1180
-1179
-1179
-1178
-1177
-1179
-1181
-1180
-1180
-1182
-1181
-1163
-1137
-1108
-1057
-983
-901
-840
-812
-805
-823
-870
-940
-1032
-1124
-1209
-1260
-1271
-1267
-1265
-1264
-1262
-1253
-1241
-1231
-1226
-1226
-1227
-1226
-1224
-1222
-1221
-1221
-1220
-1219
-1220
-1220
-1219
-1219
-1217
-1214
-1212
-1207
-1204
-1202
-1200
-1195
-1184
-1175
-1166
-1160
-1153
-1147
-1141
-1136
-1133
-1128
-1123
-1121
-1120
-1120
-1122
-1121
-1123
-1127
-1129
-1131
-1134
-1138
-1143
-1146
-1149
-1153
-1159
-1162
-1166
-1166
-1169
-1174
-1175
-1176
-1177
-1181
-1181
-1182
-1184
-1182
-1183
-1185
-1185
-1187
-1187
-1187
-1185
-1184
-1182
-1182
-1178
-1173
-1172
-1172
-1171
-1166
-1162
-1158
-1152
-1150
-1149
-1149
-1150
-1148
-1147
-1148
-1151
-1154
-1158
-1160
-1164
-1168
-1171
-1174
-1178
-1181
-1180
-1182
-1186
-1187
-1185
-1184
-1185
-1187
-1187
-1184
-1186
-1189
-1187
-1168
-1138
-1109
-1061
-987
-901
-841
-812
-806
-836
-888
-966
-1061
-1154
-1227
-1267
-1271
-1268
-1264
-1261
-1250
-1240
-1231
-1224
-1221
-1219
-1220
-1219
-1219
-1218
-1217
-1216
-1216
-1215
-1215
-1215
-1213
-1212
-1210
-1208
-1205
-1201
-1199
-1195
-1189
-1181
-1172
-1166
-1158
-1152
-1144
-1137
-1132
-1129
-1127
-1124
-1121
-1118
-1114
-1118
-1118
-1121
-1123
-1125
-1127
-1128
-1131
-1136
-1139
-1141
-1142
-1145
-1151
-1153
-1154
-1154
-1157
-1159
-1163
-1164
-1165
-1165
-1166
-1167
-1168
-1169
-1170
-1169
-1169
-1169
-1168
-1169
-1168
-1165
-1161
-1159
-1157
-1155
-1156
-1153
-1151
-1145
-1140
-1134
-1131
-1131
-1131
-1132
-1134
-1135
-1136
-1137
-1138
-1141
-1146
-1151
-1155
-1159
-1163
-1164
-1164
-1164
-1165
-1164
-1164
-1164
-1163
-1164
-1162
-1162
-1164
-1168
-1168
-1151
-1123
-1095
-1047
-976
-895
-832
-802
-796
-819
-871
-950
-1044
-1139
-1212
-1251
-1253
-1249
-1247
-1244
-1237
-1226
-1216
-1211
-1209
-1208
-1207
-1207
-1205
-1205
-1203
-1203
-1204
-1203
-1203
-1202
-1200
-1200
-1196
-1194
-1190
-1186
-1182
-1177
-1171
-1166
-1159
-1150
-1143
-1136
-1129
-1122
-1116
-1112
-1108
-1104
-1102
-1100
-1100
-1100
-1101
-1103
-1104
-1108
-1112
-1115
-1117
-1120
-1124
-1128
-1129
-1132
-1136
-1138
-1142
-1143
-1144
-1145
-1149
-1150
-1152
-1154
-1154
-1155
-1156
-1157
-1158
-1157
-1159
-1159
-1157
-1155
-1155
-1154
-1151
-1148
-1145
-1143
-1142
-1141
-1141
-1141
-1138
-1132
-1127
-1124
-1123
-1124
-1124
-1124
-1125
-1128
-1128
-1132
-1135
-1138
-1141
-1146
-1152
-1158
-1161
-1162
-1162
-1162
-1162
-1162
-1162
-1161
-1161
-1161
-1162
-1162
-1165
-1169
-1166
-1148
-1120
-1088
-1037
-957
-875
-819
-794
-791
-819
-876
-960
-1054
-1148
-1216
-1247
-1246
-1245
-1244
-1239
-1228
-1216
-1207
-1206
-1206
-1204
-1204
-1203
-1203
-1204
-1204
-1203
-1202
-1201
-1200
-1199
-1199
-1198
-1196
-1193
-1190
-1185
-1180
-1175
-1171
-1165
-1159
-1152
-1144
-1137
-1130
-1124
-1119
-1114
-1109
-1104
-1100
-1097
-1095
-1093
-1093
-1094
-1095
-1097
-1100
-1104
-1108
-1112
-1117
-1122
-1127
-1131
-1135
-1137
-1140
-1143
-1145
-1148
-1151
-1154
-1157
-1159
-1160
-1161
-1162
-1162
-1162
-1164
-1164
-1163
-1162
-1161
-1161
-1160
-1157
-1156
-1153
-1151
-1149
-1148
-1148
-1148
-1146
-1143
-1137
-1132
-1128
-1127
-1126
-1126
-1126
-1127
-1128
-1131
-1134
-1137
-1141
-1147
-1152
-1158
-1162
-1164
-1166
-1168
-1168
-1168
-1168
-1168
-1168
-1166
-1168
-1169
-1172
-1175
-1173
-1155
-1127
-1097
-1054
-979
-897
-835
-807
-803
-830
-883
-963
-1056
-1150
-1220
-1257
-1258
-1256
-1257
-1253
-1241
-1229
-1218
-1211
-1209
-1209
-1209
-1207
-1205
-1204
-1202
-1202
-1200
-1200
-1200
-1199
-1197
-1196
-1195
-1192
-1190
-1187
-1183
-1180
-1176
-1171
-1165
-1160
-1153
-1144
-1138
-1131
-1123
-1117
-1112
-1109
-1106
-1104
-1103
-1102
-1103
-1104
-1105
-1107
-1109
-1111
-1114
-1117
-1121
-1125
-1129
-1133
-1137
-1140
-1141
-1144
-1146
-1149
-1152
-1155
-1157
-1157
-1160
-1160
-1161
-1163
-1165
-1165
-1164
-1163
-1164
-1165
-1164
-1166
-1165
-1164
-1163
-1160
-1160
-1158
-1154
-1154
-1153
-1151
-1147
-1140
-1136
-1134
-1134
-1136
-1136
-1135
-1136
-1139
-1141
-1144
-1146
-1152
-1156
-1160
-1165
-1168
-1170
-1170
-1171
-1169
-1170
-1170
-1170
-1171
-1172
-1172
-1172
-1173
-1176
-1177
-1171
-1146
-1118
-1082
-1024
-944
-869
-821
-803
-807
-847
-911
-1000
-1098
-1187
-1247
-1270
-1267
-1264
-1264
-1260
-1249
-1236
-1224
-1220
-1219
-1217
-1216
-1215
-1214
-1214
-1215
-1214
-1213
-1214
-1213
-1214
-1214
-1212
-1210
-1208
-1204
-1202
-1195
-1188
-1181
-1174
-1168
-1161
-1155
-1148
-1144
-1138
-1131
-1125
-1120
-1115
-1111
-1110
-1108
-1108
-1109
-1109
-1110
-1113
-1118
-1121
-1124
-1128
-1131
-1134
-1138
-1141
-1145
-1149
-1152
-1154
-1158
-1161
-1164
-1168
-1169
-1170
-1172
-1173
-1174
-1175
-1176
-1175
-1175
-1175
-1174
-1174
-1173
-1173
-1170
-1168
-1165
-1160
-1157
-1156
-1154
-1153
-1152
-1150
-1146
-1139
-1136
-1134
-1136
-1134
-1137
-1139
-1143
-1145
-1149
-1150
-1152
-1157
-1161
-1165
-1170
-1173
-1175
-1176
-1176
-1179
-1179
-1180
-1179
-1177
-1178
-1177
-1176
-1179
-1183
-1180
-1160
-1131
-1099
-1045
-963
-882
-830
-808
-808
-842
-899
-983
-1077
-1168
-1236
-1266
-1264
-1262
-1260
-1259
-1252
-1241
-1229
-1222
-1221
-1219
-1216
-1215
-1215
-1214
-1213
-1214
-1216
-1218
-1216
-1215
-1213
-1212
-1210
-1207
-1206
-1200
-1196
-1192
-1186
-1180
-1172
-1164
-1156
-1149
-1143
-1138
-1132
-1129
-1124
-1121
-1117
-1115
-1113
-1113
-1113
-1116
-1116
-1116
-1117
-1120
-1124
-1128
-1134
-1138
-1142
-1146
-1151
-1154
-1156
-1158
-1160
-1162
-1165
-1167
-1168
-1170
-1173
-1174
-1175
-1176
-1177
-1177
-1178
-1176
-1176
-1175
-1176
-1176
-1176
-1173
-1171
-1167
-1162
-1161
-1160
-1159
-1158
-1156
-1152
-1146
-1142
-1140
-1140
-1139
-1136
-1136
-1138
-1140
-1144
-1145
-1148
-1152
-1157
-1161
-1167
-1171
-1172
-1172
-1174
-1175
-1174
-1174
-1173
-1172
-1172
-1172
-1174
-1176
-1181
-1178
-1159
-1129
-1096
-1041
-962
-883
-833
-811
-809
-839
-894
-975
-1064
-1157
-1226
-1260
-1260
-1260
-1259
-1256
-1248
-1238
-1228
-1222
-1221
-1220
-1216
-1215
-1213
-1212
-1211
-1210
-1210
-1210
-1208
-1207
-1206
-1205
-1203
-1201
-1199
-1194
-1191
-1186
-1182
-1176
-1171
-1164
-1158
-1150
-1143
-1136
-1129
-1124
-1118
-1113
-1111
-1109
-1109
-1108
-1107
-1108
-1109
-1112
-1115
-1117
-1121
-1124
-1128
-1131
-1135
-1138
-1143
-1146
-1149
-1151
-1152
-1153
-1155
-1157
-1159
-1161
-1162
-1163
-1165
-1165
-1165
-1166
-1166
-1166
-1166
-1167
-1166
-1165
-1164
-1163
-1162
-1159
-1155
-1153
-1151
-1150
-1149
-1148
-1146
-1141
-1136
-1132
-1129
-1129
-1129
-1130
-1130
-1133
-1136
-1138
-1142
-1144
-1148
-1152
-1157
-1162
-1165
-1167
-1167
-1167
-1166
-1165
-1164
-1163
-1163
-1163
-1163
-1163
-1166
-1170
-1171
-1157
-1132
-1104
-1066
-1003
-924
-855
-816
-805
-817
-862
-931
-1020
-1114
-1195
-1243
-1252
-1250
-1250
-1248
-1239
-1227
-1216
-1210
-1211
-1210
-1209
-1208
-1207
-1207
-1205
-1206
-1205
-1203
-1201
-1200
-1200
-1199
-1198
-1195
-1192
-1188
-1182
-1176
-1171
-1164
-1159
-1152
-1144
-1137
-1129
-1123
-1117
-1111
-1106
-1103
-1100
-1098
-1096
-1096
-1096
-1096
-1097
-1100
-1104
-1108
-1112
-1116
-1120
-1124
-1127
-1130
-1134
-1137
-1140
-1144
-1146
-1149
-1150
-1152
-1155
-1156
-1158
-1160
-1162
-1161
-1163
-1164
-1164
-1166
-1166
-1166
-1164
-1162
-1160
-1160
-1159
-1158
-1155
-1151
-1148
-1145
-1144
-1144
-1145
-1144
-1142
-1138
-1134
-1130
-1129
-1129
-1129
-1128
-1129
-1132
-1134
-1139
-1142
-1146
-1150
-1154
-1159
-1163
-1167
-1168
-1169
-1170
-1169
-1168
-1168
-1169
-1169
-1169
-1169
-1170
-1172
-1175
-1170
-1150
-1124
-1096
-1047
-974
-897
-840
-813
-807
-828
-875
-944
-1034
-1127
-1203
-1248
-1256
-1254
-1254
-1252
-1245
-1234
-1223
-1214
-1213
-1214
-1214
-1213
-1212
-1210
-1208
-1207
-1206
-1204
-1203
-1202
-1202
-1200
-1201
-1200
-1197
-1194
-1191
-1187
-1182
-1175
-1170
-1163
-1154
-1147
-1139
-1132
-1125
-1118
-1111
-1106
-1102
-1099
-1097
-1096
-1096
-1097
-1097
-1098
-1102
-1104
-1108
-1112
-1116
-1120
-1124
-1127
-1129
-1133
-1136
-1142
-1144
-1148
-1152
-1155
-1159
-1160
-1161
-1162
-1163
-1165
-1167
-1169
-1170
-1168
-1168
-1167
-1168
-1168
-1167
-1168
-1167
-1165
-1164
-1163
-1160
-1157
-1153
-1152
-1150
-1148
-1145
-1146
-1141
-1136
-1130
-1127
-1128
-1129
-1129
-1130
-1131
-1134
-1137
-1140
-1143
-1146
-1150
-1155
-1162
-1167
-1169
-1170
-1170
-1171
-1174
-1175
-1175
-1174
-1174
-1173
-1172
-1171
-1176
-1177
-1167
-1141
-1116
-1079
-1015
-935
-863
-822
-808
-812
-848
-912
-999
-1093
-1182
-1243
-1265
-1262
-1261
-1258
-1254
-1244
-1234
-1224
-1217
-1216
-1216
-1214
-1212
-1212
-1213
-1215
-1215
-1212
-1211
-1208
-1206
-1205
-1206
-1206
-1203
-1200
-1196
-1194
-1191
-1186
-1179
-1172
-1165
-1156
-1148
-1140
-1131
-1124
-1118
-1113
-1112
-1111
-1111
-1111
-1112
-1112
-1112
-1113
-1115
-1117
-1121
-1125
-1125
-1127
-1128
-1132
-1137
-1141
-1146
-1151
-1155
-1158
-1160
-1160
-1161
-1165
-1168
-1170
-1170
-1172
-1172
-1173
-1174
-1176
-1174
-1174
-1174
-1173
-1172
-1172
-1173
-1174
-1172
-1171
-1170
-1165
-1162
-1158
-1155
-1155
-1156
-1153
-1151
-1148
-1144
-1140
-1137
-1136
-1136
-1136
-1136
-1139
-1142
-1145
-1150
-1152
-1156
-1160
-1163
-1168
-1170
-1172
-1172
-1171
-1170
-1172
-1174
-1174
-1174
-1174
-1173
-1176
-1177
-1182
-1179
-1162
-1134
-1103
-1051
-975
-896
-839
-812
-806
-830
-878
-956
-1048
-1142
-1216
-1256
-1256
-1254
-1254
-1253
-1245
-1236
-1225
-1218
-1217
-1217
-1216
-1217
-1219
-1215
-1212
-1209
-1209
-1209
-1209
-1208
-1207
-1205
-1204
-1201
-1197
-1193
-1189
-1182
-1176
-1170
-1163
-1155
-1148
-1143
-1136
-1130
-1124
-1122
-1119
-1113
-1109
-1106
-1104
-1103
-1103
-1105
-1106
-1107
-1110
-1112
-1116
-1120
-1124
-1128
-1132
-1136
-1139
-1142
-1145
-1148
-1152
-1153
-1156
-1158
-1160
-1160
-1159
-1160
-1161
-1161
-1162
-1164
-1164
-1164
-1164
-1164
-1162
-1163
-1161
-1160
-1159
-1158
-1156
-1155
-1152
-1150
-1146
-1143
-1143
-1143
-1144
-1143
-1141
-1137
-1132
-1128
-1127
-1128
-1128
-1128
-1129
-1131
-1134
-1138
-1141
-1144
-1148
-1153
-1159
-1162
-1164
-1166
-1166
-1167
-1167
-1167
-1166
-1164
-1164
-1163
-1163
-1164
-1167
-1170
-1167
-1147
-1119
-1088
-1040
-967
-887
-831
-806
-803
-826
-873
-949
-1038
-1132
-1208
-1251
-1256
-1252
-1252
-1250
-1243
-1231
-1219
-1212
-1212
-1210
-1209
-1209
-1210
-1211
-1211
-1211
-1210
-1209
-1209
-1208
-1206
-1206
-1203
-1200
-1196
-1192
-1187
-1182
-1176
-1169
-1162
-1155
-1148
-1141
-1134
-1127
-1121
-1116
-1112
-1109
-1106
-1102
-1100
-1100
-1101
-1102
-1104
-1106
-1109
-1112
-1116
-1120
-1123
-1127
-1131
-1135
-1138
-1141
-1144
-1147
-1149
-1152
-1154
-1156
-1158
-1159
-1160
-1163
-1163
-1163
-1164
-1164
-1164
-1166
-1166
-1165
-1164
-1162
-1162
-1163
-1163
-1162
-1161
-1160
-1158
-1155
-1152
-1149
-1148
-1146
-1145
-1144
-1141
-1139
-1134
-1130
-1128
-1129
-1131
-1132
-1132
-1134
-1135
-1138
-1141
-1144
-1146
-1150
-1154
-1160
-1163
-1166
-1166
-1167
-1167
-1168
-1168
-1169
-1168
-1168
-1168
-1168
-1168
-1172
-1174
-1165
-1141
-1113
-1083
-1032
-957
-881
-830
-810
-811
-842
-898
-977
-1068
-1158
-1220
-1249
-1248
-1246
-1247
-1241
-1233
-1221
-1212
-1210
-1210
-1210
-1208
-1207
-1206
-1204
-1203
-1201
-1201
-1201
-1200
-1200
-1200
-1198
-1197
-1195
-1193
-1189
-1185
-1180
-1174
-1167
-1161
-1154
-1147
-1140
-1132
-1125
-1117
-1111
-1104
-1100
-1097
-1095
-1092
-1090
-1091
-1092
-1093
-1095
-1097
-1100
-1104
-1106
-1109
-1113
-1118
-1123
-1128
-1133
-1137
-1142
-1146
-1150
-1153
-1155
-1157
-1159
-1161
-1162
-1163
-1164
-1164
-1166
-1166
-1165
-1166
-1165
-1165
-1166
-1167
-1167
-1167
-1165
-1164
-1163
-1161
-1160
-1158
-1154
-1150
-1147
-1145
-1144
-1145
-1145
-1143
-1139
-1134
-1131
-1130
-1131
-1132
-1132
-1132
-1134
-1138
-1143
-1146
-1149
-1153
-1158
-1162
-1167
-1170
-1171
-1173
-1175
-1175
-1175
-1176
-1175
-1176
-1175
-1175
-1175
-1176
-1181
-1176
-1158
-1130
-1100
-1052
-977
-898
-841
-815
-812
-839
-892
-971
-1063
-1158
-1229
-1263
-1262
-1262
-1262
-1258
-1246
-1234
-1223
-1217
-1216
-1216
-1216
-1216
-1214
-1215
-1214
-1214
-1214
-1213
-1213
-1213
-1212
-1213
-1212
-1210
-1204
-1199
-1195
-1191
-1184
-1177
-1170
-1163
-1156
-1149
-1143
-1136
-1130
-1124
-1120
-1116
-1112
-1109
-1109
-1109
-1111
-1112
-1115
-1114
-1115
-1117
-1120
-1123
-1127
-1131
-1136
-1139
-1144
-1149
-1152
-1155
-1158
-1160
-1163
-1165
-1166
-1168
-1171
-1174
-1174
-1175
-1176
-1177
-1179
-1181
-1183
-1182
-1181
-1180
-1180
-1180
-1178
-1177
-1176
-1172
-1168
-1165
-1164
-1161
-1160
-1162
-1161
-1158
-1154
-1150
-1149
-1146
-1145
-1146
-1144
-1144
-1144
-1148
-1149
-1152
-1153
-1156
-1160
-1164
-1171
-1176
-1180
-1178
-1177
-1178
-1179
-1181
-1182
-1182
-1183
-1182
-1180
-1182
-1187
-1190
-1181
-1157
-1130
-1095
-1034
-955
-878
-832
-814
-814
-848
-904
-985
-1078
-1168
-1238
-1270
-1270
-1268
-1267
-1265
-1256
-1246
-1235
-1228
-1228
-1228
-1228
-1228
-1228
-1228
-1225
-1222
-1219
-1219
-1219
-1218
-1216
-1216
-1214
-1212
-1209
-1205
-1201
-1198
-1192
-1182
-1173
-1168
-1160
-1152
-1146
-1141
-1138
-1132
-1128
-1125
-1124
-1120
-1120
-1120
-1120
-1122
-1124
-1128
-1129
-1132
-1134
-1139
-1140
-1144
-1148
-1154
-1159
-1162
-1164
-1167
-1169
-1172
-1173
-1174
-1178
-1182
-1181
-1181
-1180
-1177
-1177
-1180
-1184
-1183
-1183
-1181
-1182
-1183
-1181
-1179
-1180
-1180
-1179
-1174
-1171
-1169
-1169
-1167
-1166
-1166
-1164
-1158
-1152
-1147
-1146
-1150
-1153
-1153
-1153
-1154
-1156
-1155
-1159
-1162
-1167
-1170
-1173
-1178
-1184
-1186
-1184
-1184
-1187
-1190
-1189
-1188
-1188
-1189
-1185
-1186
-1188
-1190
-1193
-1183
-1159
-1129
-1090
-1027
-949
-878
-835
-819
-820
-855
-908
-987
-1079
-1166
-1236
-1269
-1271
-1272
-1271
-1270
-1261
-1252
-1239
-1232
-1230
-1231
-1230
-1227
-1225
-1225
-1225
-1225
-1225
-1224
-1225
-1225
-1224
-1220
-1218
-1215
-1211
-1209
-1205
-1199
-1192
-1184
-1176
-1169
-1161
-1155
-1149
-1142
-1136
-1129
-1124
-1120
-1118
-1117
-1117
-1119
-1121
-1122
-1121
-1122
-1127
-1134
-1139
-1142
-1144
-1150
-1153
-1153
-1152
-1159
-1164
-1168
-1172
-1175
-1175
-1176
-1181
-1178
-1178
-1178
-1182
-1184
-1182
-1181
-1181
-1183
-1183
-1180
-1179
-1180
-1182
-1181
-1179
-1176
-1174
-1172
-1169
-1168
-1164
-1164
-1164
-1160
-1156
-1149
-1144
-1142
-1143
-1140
-1140
-1141
-1144
-1148
-1154
-1156
-1156
-1158
-1165
-1172
-1174
-1175
-1177
-1177
-1180
-1178
-1181
-1181
-1180
-1177
-1176
-1178
-1180
-1181
-1183
-1183
-1176
-1155
-1127
-1094
-1038
-960
-882
-830
-805
-803
-832
-883
-967
-1060
-1154
-1222
-1252
-1250
-1249
-1248
-1245
-1236
-1227
-1218
-1215
-1212
-1213
-1212
-1212
-1214
-1212
-1212
-1212
-1210
-1209
-1213
-1212
-1209
-1207
-1205
-1201
-1198
-1194
-1189
-1186
-1183
-1177
-1168
-1161
-1152
-1145
-1137
-1130
-1124
-1119
-1115
-1111
-1107
-1104
-1104
-1105
-1108
-1106
-1105
-1104
-1105
-1108
-1112
-1116
-1118
-1123
-1128
-1132
-1135
-1138
-1141
-1144
-1148
-1152
-1153
-1154
-1156
-1159
-1160
-1160
-1160
-1161
-1161
-1163
-1164
-1164
-1162
-1161
-1160
-1160
-1159
-1157
-1155
-1156
-1155
-1154
-1152
-1149
-1146
-1142
-1140
-1136
-1134
-1134
-1131
-1127
-1121
-1117
-1118
-1118
-1118
-1118
-1117
-1120
-1122
-1125
-1128
-1129
-1132
-1137
-1143
-1151
-1155
-1158
-1158
-1157
-1159
-1158
-1158
-1157
-1160
-1157
-1156
-1155
-1154
-1157
-1160
-1155
-1134
-1108
-1076
-1023
-944
-867
-814
-792
-790
-819
-872
-952
-1044
-1136
-1204
-1236
-1234
-1233
-1232
-1228
-1220
-1210
-1202
-1198
-1198
-1197
-1196
-1196
-1196
-1196
-1195
-1195
-1195
-1194
-1194
-1192
-1191
-1190
-1188
-1186
-1184
-1181
-1179
-1174
-1168
-1161
-1155
-1148
-1142
-1136
-1129
-1121
-1113
-1108
-1103
-1098
-1095
-1092
-1089
-1086
-1084
-1084
-1085
-1087
-1089
-1093
-1096
-1099
-1104
-1108
-1112
-1115
-1120
-1122
-1127
-1129
-1132
-1134
-1136
-1138
-1140
-1142
-1144
-1147
-1147
-1148
-1149
-1150
-1150
-1150
-1150
-1149
-1150
-1149
-1149
-1149
-1148
-1149
-1148
-1147
-1146
-1144
-1142
-1139
-1136
-1135
-1133
-1132
-1129
-1125
-1121
-1116
-1112
-1112
-1112
-1113
-1113
-1114
-1117
-1119
-1123
-1126
-1129
-1133
-1138
-1142
-1147
-1151
-1153
-1154
-1155
-1157
-1158
-1158
-1157
-1157
-1156
-1156
-1156
-1156
-1160
-1160
-1149
-1125
-1096
-1058
-996
-918
-849
-808
-795
-802
-840
-905
-992
-1088
-1175
-1229
-1246
-1244
-1240
-1237
-1230
-1218
-1206
-1198
-1196
-1196
-1197
-1196
-1196
-1196
-1196
-1195
-1196
-1196
-1196
-1196
-1196
-1194
-1193
-1192
-1191
-1188
-1184
-1180
-1175
-1168
-1164
-1157
-1150
-1142
-1134
-1128
-1120
-1115
-1110
-1105
-1101
-1097
-1095
-1093
-1092
-1093
-1094
-1095
-1097
-1098
-1100
-1103
-1106
-1110
-1114
-1118
-1122
-1126
-1131
-1134
-1137
-1140
-1142
-1144
-1147
-1149
-1151
-1152
-1152
-1155
-1156
-1156
-1157
-1160
-1160
-1160
-1159
-1159
-1157
-1156
-1156
-1155
-1154
-1153
-1152
-1149
-1145
-1142
-1140
-1140
-1140
-1140
-1139
-1135
-1129
-1124
-1123
-1122
-1122
-1121
-1121
-1122
-1124
-1127
-1130
-1134
-1137
-1141
-1146
-1152
-1156
-1156
-1158
-1159
-1159
-1160
-1159
-1160
-1161
-1160
-1161
-1163
-1165
-1169
-1173
-1167
-1146
-1118
-1086
-1035
-959
-882
-828
-808
-809
-840
-894
-972
-1064
-1157
-1221
-1252
-1252
-1250
-1249
-1244
-1234
-1222
-1212
-1208
-1207
-1204
-1202
-1201
-1200
-1199
-1199
-1199
-1198
-1198
-1196
-1195
-1195
-1193
-1192
-1190
-1188
-1184
-1181
-1176
-1172
-1167
-1161
-1155
-1148
-1140
-1132
-1125
-1118
-1112
-1107
-1104
-1100
-1098
-1097
-1096
-1097
-1098
-1099
-1102
-1104
-1108
-1111
-1116
-1120
-1124
-1128
-1132
-1134
-1137
-1138
-1142
-1144
-1147
-1150
-1152
-1154
-1156
-1158
-1159
-1162
-1162
-1163
-1164
-1165
-1164
-1165
-1166
-1166
-1168
-1167
-1168
-1168
-1167
-1166
-1163
-1159
-1156
-1152
-1152
-1151
-1151
-1150
-1148
-1143
-1138
-1135
-1133
-1134
-1134
-1133
-1135
-1138
-1140
-1146
-1149
-1152
-1156
-1160
-1164
-1168
-1170
-1170
-1170
-1171
-1171
-1170
-1170
-1169
-1169
-1169
-1169
-1171
-1174
-1178
-1175
-1155
-1129
-1100
-1052
-979
-908
-860
-840
-840
-864
-912
-987
-1076
-1164
-1228
-1259
-1259
-1257
-1257
-1253
-1242
-1229
-1219
-1215
-1215
-1214
-1213
-1213
-1212
-1211
-1211
-1209
-1208
-1208
-1206
-1203
-1200
-1198
-1196
-1194
-1191
-1189
-1186
-1181
-1176
-1171
-1164
-1157
-1150
-1142
-1134
-1128
-1122
-1116
-1111
-1107
-1104
-1102
-1101
-1100
-1099
-1100
-1101
-1101
-1104
-1106
-1110
-1114
-1118
-1122
-1126
-1130
-1135
-1138
-1143
-1146
-1150
-1152
-1155
-1156
-1159
-1160
-1162
-1164
-1162
-1162
-1162
-1163
-1164
-1164
-1164
-1164
-1164
-1164
-1162
-1160
-1160
-1159
-1157
-1154
-1151
-1149
-1148
-1145
-1146
-1146
-1146
-1143
-1139
-1136
-1133
-1132
-1132
-1131
-1130
-1132
-1134
-1137
-1140
-1144
-1148
-1153
-1158
-1163
-1168
-1168
-1169
-1170
-1171
-1172
-1172
-1173
-1172
-1172
-1171
-1168
-1168
-1171
-1174
-1168
-1148
-1122
-1093
-1046
-970
-892
-837
-814
-812
-842
-897
-975
-1064
-1156
-1224
-1259
-1260
-1258
-1258
-1254
-1244
-1231
-1219
-1215
-1214
-1213
-1211
-1210
-1209
-1208
-1207
-1207
-1207
-1207
-1206
-1207
-1207
-1205
-1204
-1203
-1198
-1196
-1191
-1187
-1180
-1172
-1166
-1158
-1150
-1143
-1136
-1130
-1124
-1118
-1113
-1110
-1106
-1104
-1103
-1101
-1102
-1103
-1104
-1105
-1107
-1109
-1112
-1117
-1120
-1124
-1128
-1132
-1137
-1141
-1145
-1149
-1153
-1156
-1159
-1161
-1162
-1164
-1166
-1167
-1168
-1168
-1169
-1171
-1172
-1172
-1173
-1173
-1173
-1170
-1166
-1161
-1159
-1156
-1154
-1153
-1153
-1152
-1148
-1143
-1138
-1136
-1136
-1135
-1135
-1135
-1136
-1138
-1140
-1144
-1146
-1150
-1156
-1160
-1164
-1168
-1170
-1171
-1172
-1173
-1174
-1174
-1175
-1175
-1175
-1175
-1174
-1175
-1176
-1181
-1179
-1160
-1133
-1105
-1060
-987
-907
-848
-821
-818
-845
-900
-975
-1065
-1159
-1227
-1261
-1262
-1259
-1259
-1256
-1245
-1232
-1220
-1214
-1212
-1211
-1210
-1210
-1209
-1209
-1211
-1212
-1212
-1210
-1208
-1208
-1206
-1205
-1203
-1200
-1196
-1195
-1191
-1187
-1182
-1177
-1172
-1164
-1157
-1149
-1142
-1135
-1127
-1121
-1116
-1112
-1109
-1106
-1103
-1103
-1103
-1103
-1104
-1104
-1107
-1110
-1113
-1117
-1120
-1125
-1131
-1134
-1139
-1143
-1146
-1149
-1152
-1157
-1160
-1162
-1165
-1168
-1171
-1171
-1170
-1172
-1172
-1173
-1174
-1173
-1174
-1175
-1172
-1168
-1164
-1160
-1160
-1160
-1159
-1157
-1156
-1153
-1147
-1142
-1141
-1142
-1142
-1140
-1138
-1138
-1140
-1143
-1144
-1146
-1148
-1154
-1160
-1167
-1170
-1173
-1174
-1175
-1176
-1176
-1176
-1177
-1177
-1176
-1176
-1176
-1180
-1186
-1188
-1175
-1149
-1119
-1075
-1004
-925
-863
-832
-825
-848
-900
-973
-1063
-1152
-1224
-1268
-1276
-1273
-1271
-1270
-1264
-1253
-1241
-1230
-1224
-1221
-1218
-1216
-1216
-1215
-1213
-1213
-1214
-1215
-1215
-1214
-1212
-1210
-1208
-1207
-1203
-1200
-1196
-1193
-1188
-1184
-1180
-1173
-1165
-1156
-1150
-1144
-1136
-1129
-1125
-1123
-1122
-1120
-1118
-1116
-1118
-1119
-1120
-1121
-1124
-1125
-1128
-1131
-1136
-1139
-1143
-1145
-1150
-1153
-1156
-1160
-1163
-1166
-1170
-1171
-1174
-1174
-1175
-1175
-1176
-1177
-1178
-1181
-1182
-1184
-1181
-1178
-1177
-1176
-1175
-1173
-1171
-1170
-1170
-1170
-1170
-1167
-1161
-1154
-1150
-1147
-1148
-1148
-1147
-1148
-1149
-1151
-1155
-1157
-1160
-1164
-1168
-1173
-1178
-1182
-1184
-1184
-1185
-1185
-1184
-1183
-1183
-1181
-1182
-1180
-1181
-1182
-1185
-1188
-1177
-1151
-1121
-1078
-1011
-929
-862
-826
-814
-827
-872
-940
-1031
-1125
-1208
-1262
-1275
-1271
-1268
-1268
-1264
-1253
-1241
-1231
-1224
-1223
-1221
-1220
-1219
-1218
-1217
-1216
-1217
-1217
-1216
-1214
-1212
-1211
-1210
-1208
-1204
-1199
-1193
-1188
-1181
-1175
-1169
-1164
-1157
-1149
-1142
-1136
-1129
-1124
-1120
-1115
-1112
-1110
-1109
-1107
-1108
-1109
-1111
-1115
-1118
-1120
-1124
-1127
-1130
-1135
-1136
-1139
-1143
-1145
-1148
-1150
-1152
-1155
-1158
-1160
-1161
-1164
-1165
-1167
-1167
-1168
-1168
-1168
-1168
-1167
-1165
-1162
-1160
-1158
-1156
-1152
-1150
-1146
-1146
-1143
-1143
-1143
-1141
-1136
-1131
-1128
-1125
-1126
-1125
-1125
-1125
-1128
-1132
-1135
-1138
-1140
-1144
-1148
-1153
-1160
-1163
-1164
-1166
-1166
-1167
-1167
-1166
-1167
-1167
-1167
-1167
-1166
-1168
-1172
-1176
-1169
-1146
-1118
-1084
-1029
-950
-872
-824
-807
-808
-840
-896
-978
-1070
-1161
-1226
-1256
-1254
-1252
-1250
-1245
-1235
-1223
-1212
-1208
-1208
-1208
-1208
-1207
-1205
-1204
-1203
-1201
-1200
-1200
-1199
-1197
-1196
-1195
-1193
-1191
-1190
-1186
-1183
-1178
-1174
-1168
-1161
-1156
-1148
-1141
-1134
-1127
-1119
-1114
-1109
-1105
-1102
-1099
-1098
-1096
-1096
-1098
-1100
-1102
-1104
-1107
-1110
-1113
-1117
-1120
-1124
-1128
-1132
-1136
-1139
-1143
-1146
-1149
-1151
-1152
-1154
-1156
-1158
-1160
-1161
-1162
-1163
-1164
-1163
-1163
-1163
-1162
-1161
-1161
-1161
-1161
-1160
-1158
-1156
-1152
-1150
-1147
-1144
-1142
-1141
-1139
-1135
-1130
-1125
-1122
-1123
-1123
-1123
-1123
-1125
-1128
-1130
-1133
-1137
-1140
-1145
-1150
-1155
-1160
-1161
-1161
-1163
-1164
-1164
-1164
-1165
-1164
-1164
-1164
-1164
-1165
-1170
-1172
-1160
-1136
-1108
-1071
-1008
-925
-855
-817
-807
-821
-867
-935
-1023
-1116
-1196
-1245
-1253
-1249
-1248
-1245
-1236
-1223
-1208
-1203
-1202
-1201
-1200
-1200
-1200
-1200
-1199
-1198
-1198
-1197
-1196
-1196
-1194
-1194
-1194
-1192
-1190
-1185
-1183
-1178
-1172
-1164
-1158
-1151
-1143
-1136
-1129
-1122
-1117
-1112
-1106
-1103
-1099
-1097
-1095
-1094
-1094
-1095
-1095
-1096
-1096
-1098
-1100
-1104
-1109
-1112
-1117
-1122
-1127
-1131
-1135
-1139
-1141
-1145
-1148
-1150
-1152
-1153
-1156
-1157
-1158
-1159
-1160
-1162
-1164
-1164
-1165
-1166
-1165
-1166
-1166
-1164
-1163
-1162
-1161
-1160
-1156
-1153
-1150
-1149
-1146
-1145
-1145
-1144
-1140
-1135
-1129
-1128
-1130
-1129
-1129
-1128
-1129
-1132
-1135
-1137
-1140
-1144
-1149
-1153
-1160
-1163
-1165
-1166
-1166
-1168
-1168
-1168
-1168
-1167
-1168
-1168
-1168
-1170
-1175
-1177
-1164
-1138
-1109
-1065
-996
-915
-853
-824
-818
-841
-888
-960
-1051
-1142
-1217
-1260
-1265
-1262
-1260
-1259
-1251
-1238
-1225
-1219
-1217
-1216
-1214
-1211
-1209
-1207
-1206
-1206
-1205
-1204
-1205
-1203
-1203
-1202
-1202
-1200
-1196
-1192
-1187
-1181
-1176
-1170
-1163
-1157
-1150
-1145
-1139
-1132
-1124
-1118
-1115
-1111
-1108
-1105
-1103
-1103
-1104
-1107
-1108
-1109
-1111
-1114
-1117
-1121
-1125
-1130
-1134
-1138
-1141
-1145
-1148
-1149
-1152
-1155
-1157
-1159
-1161
-1163
-1164
-1167
-1169
-1172
-1172
-1173
-1175
-1175
-1173
-1172
-1173
-1173
-1172
-1171
-1171
-1171
-1171
-1170
-1168
-1167
-1165
-1162
-1160
-1157
-1154
-1153
-1154
-1152
-1149
-1145
-1140
-1137
-1138
-1139
-1140
-1140
-1140
-1143
-1148
-1151
-1154
-1157
-1158
-1161
-1166
-1170
-1172
-1173
-1174
-1176
-1177
-1177
-1177
-1177
-1176
-1176
-1177
-1178
-1181
-1186
-1183
-1164
-1136
-1107
-1060
-989
-910
-851
-823
-816
-837
-887
-964
-1056
-1149
-1225
-1266
-1268
-1262
-1261
-1260
-1255
-1244
-1233
-1225
-1223
-1222
-1221
-1220
-1221
-1221
-1221
-1221
-1217
-1215
-1215
-1214
-1212
-1211
-1208
-1204
-1201
-1198
-1194
-1189
-1184
-1178
-1172
-1164
-1156
-1151
-1144
-1136
-1130
-1126
-1124
-1121
-1117
-1116
-1114
-1113
-1113
-1115
-1116
-1119
-1120
-1123
-1125
-1129
-1134
-1137
-1142
-1148
-1151
-1153
-1156
-1160
-1162
-1166
-1170
-1171
-1173
-1174
-1174
-1174
-1175
-1175
-1176
-1179
-1180
-1180
-1181
-1177
-1177
-1177
-1176
-1175
-1174
-1174
-1175
-1174
-1173
-1172
-1170
-1168
-1168
-1163
-1160
-1160
-1162
-1161
-1158
-1153
-1150
-1146
-1145
-1143
-1143
-1141
-1144
-1148
-1152
-1153
-1155
-1161
-1167
-1170
-1174
-1178
-1181
-1184
-1183
-1182
-1184
-1183
-1180
-1181
-1180
-1177
-1177
-1182
-1184
-1188
-1184
-1164
-1138
-1111
-1061
-989
-914
-859
-830
-820
-836
-878
-946
-1037
-1129
-1210
-1260
-1267
-1263
-1263
-1261
-1255
-1246
-1235
-1224
-1220
-1220
-1219
-1217
-1217
-1217
-1217
-1217
-1217
-1217
-1217
-1215
-1215
-1214
-1211
-1207
-1204
-1199
-1195
-1191
-1185
-1180
-1174
-1169
-1159
-1149
-1144
-1136
-1129
-1122
-1119
-1117
-1115
-1111
-1109
-1108
-1110
-1112
-1114
-1118
-1120
-1121
-1125
-1128
-1132
-1132
-1132
-1137
-1141
-1145
-1148
-1151
-1154
-1157
-1158
-1160
-1161
-1164
-1165
-1167
-1169
-1169
-1170
-1173
-1173
-1172
-1170
-1170
-1170
-1168
-1166
-1165
-1164
-1164
-1165
-1164
-1162
-1160
-1158
-1154
-1151
-1150
-1148
-1146
-1146
-1145
-1143
-1140
-1136
-1135
-1134
-1134
-1135
-1134
-1134
-1135
-1137
-1139
-1141
-1145
-1149
-1153
-1157
-1163
-1164
-1166
-1165
-1167
-1167
-1168
-1168
-1167
-1168
-1166
-1165
-1164
-1164
-1168
-1168
-1156
-1130
-1104
-1063
-996
-915
-848
-814
-802
-816
-859
-928
-1018
-1112
-1191
-1240
-1247
-1244
-1243
-1242
-1236
-1225
-1214
-1207
-1204
-1204
-1203
-1202
-1201
-1200
-1200
-1200
-1200
-1200
-1200
-1200
-1198
-1196
-1194
-1192
-1191
-1188
-1184
-1179
-1174
-1168
-1160
-1152
-1145
-1138
-1130
-1120
-1113
-1106
-1102
-1098
-1095
-1095
-1094
-1092
-1092
-1093
-1094
-1096
-1096
-1100
-1104
-1108
-1111
-1116
-1121
-1124
-1127
-1129
-1133
-1137
-1139
-1142
-1144
-1146
-1148
-1149
-1150
-1152
-1152
-1154
-1155
-1156
-1156
-1157
-1157
-1156
-1156
-1156
-1155
-1153
-1150
-1150
-1150
-1150
-1149
-1148
-1148
-1147
-1146
-1144
-1140
-1136
-1134
-1132
-1132
-1132
-1132
-1132
-1128
-1124
-1120
-1121
-1124
-1125
-1126
-1125
-1128
-1131
-1134
-1136
-1139
-1142
-1146
-1150
-1154
-1157
-1158
-1158
-1159
-1160
-1160
-1160
-1161
-1161
-1161
-1161
-1161
-1164
-1168
-1164
-1148
-1123
-1096
-1055
-986
-907
-844
-813
-805
-824
-868
-936
-1021
-1113
-1191
-1236
-1244
-1241
-1241
-1240
-1232
-1221
-1211
-1205
-1203
-1202
-1200
-1201
-1199
-1198
-1197
-1196
-1196
-1196
-1196
-1195
-1195
-1194
-1192
-1192
-1189
-1186
-1183
-1177
-1172
-1166
-1160
-1150
-1141
-1134
-1127
-1120
-1113
-1108
-1104
-1099
-1096
-1094
-1092
-1092
-1090
-1091
-1093
-1094
-1096
-1099
-1102
-1106
-1110
-1113
-1120
-1125
-1129
-1132
-1137
-1140
-1143
-1145
-1148
-1150
-1152
-1154
-1156
-1157
-1159
-1159
-1160
-1161
-1160
-1161
-1161
-1161
-1162
-1163
-1162
-1162
-1161
-1160
-1159
-1158
-1156
-1156
-1155
-1154
-1154
-1152
-1151
-1149
-1146
-1143
-1142
-1140
-1140
-1140
-1140
-1138
-1136
-1131
-1128
-1131
-1133
-1135
-1135
-1136
-1138
-1139
-1143
-1145
-1148
-1152
-1157
-1162
-1166
-1168
-1168
-1168
-1169
-1170
-1169
-1170
-1170
-1171
-1171
-1170
-1171
-1174
-1178
-1174
-1155
-1129
-1102
-1061
-991
-913
-853
-824
-818
-840
-888
-963
-1054
-1147
-1218
-1254
-1253
-1252
-1252
-1249
-1240
-1229
-1219
-1216
-1213
-1211
-1210
-1209
-1210
-1209
-1208
-1207
-1207
-1208
-1207
-1207
-1206
-1205
-1204
-1203
-1200
-1196
-1192
-1188
-1184
-1177
-1170
-1160
-1151
-1143
-1136
-1127
-1120
-1115
-1110
-1106
-1103
-1101
-1100
-1098
-1099
-1099
-1101
-1104
-1107
-1110
-1114
-1117
-1120
-1124
-1128
-1134
-1140
-1143
-1146
-1150
-1153
-1156
-1158
-1160
-1160
-1162
-1163
-1166
-1168
-1169
-1170
-1170
-1172
-1172
-1172
-1172
-1174
-1175
-1174
-1172
-1172
-1171
-1168
-1168
-1167
-1166
-1167
-1165
-1162
-1160
-1158
-1154
-1152
-1152
-1150
-1150
-1150
-1150
-1146
-1139
-1135
-1134
-1137
-1140
-1141
-1141
-1145
-1148
-1152
-1154
-1157
-1160
-1163
-1167
-1172
-1174
-1175
-1176
-1177
-1177
-1178
-1177
-1176
-1175
-1176
-1177
-1178
-1180
-1185
-1188
-1180
-1157
-1129
-1095
-1038
-958
-884
-839
-821
-824
-860
-920
-1004
-1094
-1181
-1240
-1265
-1264
-1260
-1259
-1256
-1248
-1236
-1225
-1218
-1216
-1216
-1218
-1216
-1215
-1213
-1213
-1212
-1212
-1210
-1212
-1210
-1211
-1209
-1207
-1205
-1200
-1196
-1193
-1189
-1183
-1178
-1174
-1165
-1157
-1150
-1140
-1134
-1128
-1123
-1116
-1112
-1108
-1106
-1104
-1105
-1105
-1107
-1108
-1110
-1112
-1117
-1121
-1123
-1125
-1129
-1133
-1138
-1142
-1147
-1151
-1153
-1155
-1158
-1162
-1166
-1168
-1170
-1171
-1172
-1172
-1173
-1175
-1178
-1180
-1180
-1180
-1181
-1180
-1179
-1177
-1176
-1176
-1175
-1174
-1174
-1173
-1169
-1167
-1165
-1163
-1161
-1156
-1152
-1153
-1153
-1155
-1156
-1152
-1148
-1141
-1137
-1136
-1138
-1140
-1140
-1140
-1143
-1145
-1150
-1157
-1159
-1159
-1161
-1164
-1171
-1172
-1175
-1177
-1177
-1176
-1179
-1180
-1178
-1176
-1177
-1176
-1177
-1177
-1180
-1185
-1183
-1164
-1137
-1108
-1059
-984
-904
-845
-816
-806
-821
-862
-929
-1020
-1111
-1193
-1246
-1257
-1253
-1252
-1252
-1247
-1239
-1229
-1220
-1216
-1216
-1217
-1218
-1218
-1215
-1213
-1211
-1211
-1211
-1211
-1210
-1208
-1205
-1204
-1203
-1200
-1196
-1192
-1188
-1183
-1176
-1172
-1166
-1157
-1149
-1141
-1135
-1128
-1120
-1112
-1108
-1104
-1104
-1105
-1104
-1104
-1106
-1108
-1110
-1110
-1112
-1117
-1122
-1125
-1129
-1135
-1138
-1141
-1144
-1148
-1150
-1153
-1157
-1160
-1161
-1163
-1164
-1168
-1169
-1170
-1172
-1172
-1172
-1174
-1173
-1172
-1173
-1173
-1174
-1174
-1172
-1173
-1172
-1171
-1170
-1168
-1167
-1166
-1164
-1159
-1154
-1150
-1147
-1147
-1145
-1144
-1139
-1136
-1133
-1132
-1134
-1134
-1136
-1136
-1138
-1139
-1142
-1144
-1148
-1151
-1155
-1160
-1164
-1168
-1169
-1168
-1168
-1169
-1170
-1169
-1168
-1168
-1168
-1168
-1168
-1170
-1176
-1179
-1170
-1147
-1121
-1087
-1028
-950
-874
-827
-808
-811
-845
-903
-986
-1080
-1168
-1229
-1248
-1245
-1244
-1243
-1239
-1229
-1218
-1208
-1204
-1204
-1203
-1202
-1201
-1201
-1200
-1200
-1200
-1200
-1201
-1202
-1202
-1201
-1199
-1194
-1191
-1187
-1183
-1179
-1174
-1168
-1163
-1156
-1150
-1143
-1136
-1128
-1121
-1116
-1111
-1107
-1103
-1100
-1097
-1096
-1093
-1093
-1095
-1096
-1099
-1102
-1105
-1109
-1113
-1116
-1119
-1123
-1127
-1131
-1136
-1138
-1141
-1143
-1147
-1149
-1151
-1152
-1154
-1157
-1159
-1160
-1160
-1161
-1160
-1161
-1161
-1160
-1161
-1161
-1161
-1160
-1160
-1161
-1160
-1159
-1157
-1156
-1154
-1153
-1151
-1147
-1144
-1143
-1141
-1140
-1139
-1136
-1132
-1126
-1121
-1120
-1120
-1123
-1125
-1124
-1126
-1128
-1132
-1134
-1138
-1141
-1146
-1150
-1155
-1158
-1157
-1159
-1160
-1160
-1162
-1162
-1162
-1162
-1163
-1162
-1160
-1160
-1165
-1169
-1166
-1146
-1120
-1091
-1040
-960
-880
-827
-806
-805
-834
-888
-967
-1056
-1147
-1214
-1245
-1243
-1239
-1237
-1233
-1224
-1212
-1203
-1200
-1199
-1197
-1197
-1195
-1196
-1195
-1196
-1194
-1193
-1192
-1192
-1192
-1192
-1192
-1192
-1191
-1188
-1184
-1181
-1176
-1171
-1164
-1158
-1150
-1143
-1136
-1128
-1121
-1115
-1110
-1104
-1100
-1096
-1095
-1093
-1092
-1092
-1093
-1094
-1095
-1096
-1098
-1100
-1104
-1108
-1112
-1116
-1120
-1125
-1128
-1131
-1136
-1139
-1142
-1145
-1147
-1150
-1152
-1153
-1155
-1156
-1156
-1159
-1161
-1163
-1162
-1162
-1161
-1162
-1161
-1161
-1160
-1160
-1160
-1160
-1159
-1160
-1160
-1157
-1153
-1151
-1149
-1147
-1146
-1147
-1147
-1145
-1143
-1137
-1131
-1127
-1127
-1128
-1128
-1128
-1130
-1133
-1136
-1139
-1143
-1148
-1153
-1158
-1164
-1168
-1167
-1168
-1168
-1169
-1170
-1171
-1172
-1173
-1171
-1170
-1169
-1169
-1174
-1179
-1176
-1160
-1133
-1106
-1067
-1002
-925
-860
-824
-814
-826
-867
-932
-1016
-1110
-1192
-1244
-1260
-1257
-1256
-1256
-1248
-1235
-1221
-1214
-1211
-1209
-1208
-1207
-1206
-1205
-1205
-1206
-1205
-1206
-1206
-1207
-1206
-1205
-1204
-1201
-1198
-1195
-1192
-1188
-1184
-1179
-1170
-1163
-1156
-1149
-1142
-1135
-1127
-1120
-1115
-1111
-1108
-1105
-1103
-1102
-1102
-1102
-1104
-1108
-1111
-1114
-1116
-1118
-1120
-1120
-1123
-1126
-1132
-1137
-1143
-1148
-1150
-1152
-1155
-1158
-1160
-1162
-1164
-1164
-1167
-1169
-1169
-1171
-1171
-1172
-1173
-1172
-1172
-1174
-1176
-1178
-1178
-1178
-1176
-1174
-1174
-1175
-1172
-1171
-1168
-1164
-1161
-1157
-1156
-1156
-1155
-1157
-1157
-1154
-1148
-1145
-1142
-1140
-1142
-1143
-1144
-1143
-1143
-1146
-1148
-1148
-1150
-1155
-1160
-1166
-1169
-1172
-1173
-1174
-1173
-1173
-1174
-1174
-1174
-1174
-1174
-1174
-1174
-1176
-1181
-1184
-1176
-1152
-1125
-1091
-1029
-947
-870
-823
-806
-812
-851
-916
-1001
-1096
-1183
-1242
-1262
-1259
-1256
-1256
-1253
-1245
-1233
-1224
-1219
-1217
-1216
-1216
-1215
-1215
-1215
-1216
-1216
-1213
-1212
-1211
-1208
-1207
-1205
-1202
-1200
-1198
-1196
-1192
-1185
-1179
-1173
-1166
-1159
-1152
-1145
-1138
-1133
-1128
-1124
-1120
-1118
-1114
-1109
-1107
-1105
-1105
-1108
-1110
-1115
-1120
-1121
-1123
-1125
-1131
-1136
-1141
-1144
-1146
-1149
-1152
-1156
-1160
-1163
-1165
-1168
-1169
-1172
-1174
-1174
-1171
-1169
-1169
-1173
-1176
-1176
-1176
-1176
-1176
-1174
-1174
-1175
-1174
-1172
-1173
-1171
-1168
-1169
-1168
-1166
-1165
-1163
-1160
-1154
-1153
-1154
-1153
-1151
-1146
-1144
-1143
-1142
-1142
-1144
-1144
-1145
-1146
-1148
-1150
-1152
-1156
-1161
-1166
-1173
-1179
-1179
-1176
-1175
-1174
-1176
-1178
-1177
-1174
-1174
-1175
-1175
-1175
-1179
-1182
-1180
-1165
-1140
-1111
-1065
-991
-909
-846
-815
-807
-829
-876
-952
-1043
-1136
-1212
-1256
-1259
-1256
-1254
-1253
-1250
-1241
-1231
-1224
-1218
-1216
-1216
-1214
-1213
-1212
-1214
-1215
-1215
-1214
-1214
-1212
-1213
-1212
-1208
-1205
-1200
-1196
-1191
-1185
-1181
-1175
-1169
-1162
-1155
-1147
-1141
-1135
-1126
-1119
-1115
-1113
-1112
-1111
-1109
-1109
-1111
-1112
-1115
-1117
-1121
-1125
-1127
-1131
-1136
-1141
-1144
-1148
-1152
-1155
-1157
-1159
-1160
-1164
-1168
-1172
-1173
-1173
-1173
-1174
-1177
-1178
-1177
-1178
-1177
-1176
-1175
-1174
-1175
-1175
-1174
-1172
-1171
-1171
-1172
-1170
-1169
-1168
-1164
-1161
-1157
-1156
-1156
-1153
-1154
-1155
-1153
-1150
-1145
-1142
-1140
-1139
-1140
-1140
-1140
-1141
-1144
-1146
-1149
-1153
-1158
-1161
-1165
-1171
-1173
-1175
-1174
-1176
-1176
-1177
-1176
-1177
-1177
-1178
-1176
-1174
-1172
-1177
-1179
-1171
-1148
-1119
-1083
-1026
-945
-869
-822
-802
-804
-836
-894
-978
-1072
-1163
-1227
-1253
-1251
-1248
-1248
-1246
-1236
-1226
-1217
-1213
-1213
-1211
-1211
-1209
-1209
-1208
-1208
-1207
-1207
-1206
-1207
-1208
-1204
-1200
-1200
-1196
-1194
-1191
-1188
-1183
-1178
-1172
-1165
-1157
-1148
-1140
-1132
-1123
-1116
-1111
-1107
-1104
-1102
-1100
-1100
-1099
-1098
-1101
-1104
-1108
-1111
-1115
-1116
-1117
-1121
-1126
-1131
-1135
-1139
-1143
-1145
-1149
-1152
-1153
-1156
-1158
-1160
-1161
-1162
-1164
-1164
-1165
-1166
-1167
-1167
-1167
-1167
-1167
-1168
-1168
-1167
-1166
-1165
-1163
-1160
-1159
-1157
-1156
-1155
-1154
-1152
-1148
-1144
-1144
-1142
-1142
-1144
-1143
-1139
-1135
-1130
-1129
-1129
-1131
-1132
-1132
-1136
-1138
-1140
-1143
-1144
-1147
-1150
-1155
-1160
-1165
-1167
-1167
-1166
-1166
-1167
-1168
-1168
-1168
-1167
-1168
-1169
-1170
-1174
-1175
-1164
-1140
-1112
-1076
-1016
-935
-859
-816
-800
-808
-847
-911
-996
-1089
-1174
-1228
-1246
-1243
-1241
-1240
-1236
-1225
-1213
-1205
-1204
-1204
-1203
-1203
-1203
-1203
-1201
-1201
-1200
-1199
-1199
-1198
-1196
-1196
-1195
-1194
-1190
-1187
-1184
-1179
-1173
-1167
-1161
-1155
-1148
-1141
-1134
-1127
-1120
-1114
-1109
-1102
-1096
-1093
-1090
-1088
-1088
-1088
-1089
-1091
-1093
-1096
-1098
-1102
-1106
-1110
-1114
-1120
-1124
-1128
-1134
-1136
-1140
-1143
-1145
-1147
-1150
-1152
-1155
-1156
-1157
-1158
-1160
-1160
-1162
-1161
-1161
-1162
-1161
-1161
-1161
-1160
-1160
-1160
-1160
-1159
-1158
-1157
-1156
-1155
-1153
-1150
-1147
-1144
-1141
-1140
-1139
-1137
-1134
-1130
-1125
-1124
-1124
-1125
-1124
-1124
-1126
-1129
-1132
-1136
-1139
-1142
-1146
-1150
-1154
-1159
-1161
-1162
-1163
-1165
-1166
-1167
-1167
-1166
-1166
-1166
-1165
-1166
-1167
-1171
-1171
-1157
-1131
-1104
-1069
-1008
-926
-856
-814
-801
-808
-848
-912
-997
-1093
-1181
-1234
-1250
-1245
-1244
-1243
-1235
-1223
-1209
-1203
-1201
-1199
-1199
-1199
-1198
-1199
-1199
-1200
-1199
-1199
-1198
-1197
-1197
-1196
-1196
-1193
-1191
-1188
-1184
-1179
-1174
-1167
-1161
-1155
-1147
-1140
-1132
-1125
-1119
-1113
-1109
-1104
-1100
-1096
-1095
-1094
-1093
-1093
-1094
-1096
-1097
-1097
-1099
-1104
-1107
-1111
-1114
-1119
-1123
-1128
-1132
-1136
-1140
-1143
-1147
-1149
-1151
-1152
-1154
-1154
-1157
-1158
-1158
-1160
-1162
-1164
-1164
-1165
-1166
-1164
-1163
-1162
-1162
-1161
-1160
-1161
-1161
-1160
-1158
-1156
-1154
-1151
-1150
-1148
-1148
-1148
-1147
-1144
-1139
-1134
-1130
-1128
-1128
-1128
-1129
-1130
-1134
-1136
-1141
-1143
-1147
-1151
-1154
-1160
-1165
-1168
-1168
-1169
-1170
-1171
-1172
-1172
-1172
-1171
-1171
-1171
-1170
-1172
-1175
-1176
-1163
-1136
-1109
-1072
-1006
-926
-855
-818
-808
-822
-866
-932
-1020
-1115
-1196
-1247
-1260
-1256
-1256
-1256
-1249
-1237
-1224
-1214
-1211
-1209
-1208
-1207
-1207
-1205
-1204
-1203
-1202
-1203
-1202
-1202
-1201
-1201
-1199
-1196
-1192
-1188
-1184
-1180
-1177
-1171
-1166
-1160
-1152
-1144
-1138
-1132
-1125
-1119
-1113
-1108
-1104
-1103
-1100
-1099
-1100
-1100
-1101
-1102
-1106
-1109
-1112
-1116
-1120
-1125
-1131
-1136
-1140
-1143
-1145
-1148
-1148
-1152
-1155
-1157
-1160
-1161
-1164
-1166
-1168
-1168
-1169
-1171
-1173
-1174
-1174
-1173
-1172
-1169
-1169
-1168
-1169
-1169
-1171
-1171
-1170
-1168
-1166
-1163
-1160
-1158
-1157
-1156
-1156
-1154
-1151
-1145
-1140
-1138
-1138
-1140
-1139
-1140
-1141
-1144
-1146
-1149
-1152
-1155
-1157
-1160
-1164
-1170
-1173
-1172
-1173
-1172
-1172
-1172
-1172
-1173
-1174
-1173
-1174
-1174
-1174
-1178
-1180
-1172
-1147
-1120
-1085
-1024
-940
-866
-824
-809
-812
-848
-905
-991
-1084
-1175
-1238
-1264
-1262
-1261
-1258
-1257
-1247
-1234
-1223
-1217
-1217
-1215
-1215
-1214
-1215
-1216
-1214
-1211
-1209
-1206
-1206
-1205
-1204
-1202
-1200
-1198
-1195
-1190
-1186
-1180
-1175
-1171
-1164
-1157
-1152
-1143
-1134
-1124
-1119
-1114
-1111
-1108
-1105
-1104
-1105
-1105
-1105
-1107
-1108
-1112
-1113
-1117
-1122
-1126
-1129
-1133
-1138
-1143
-1147
-1152
-1155
-1160
-1161
-1162
-1164
-1168
-1168
-1170
-1170
-1170
-1170
-1172
-1172
-1173
-1173
-1174
-1174
-1174
-1176
-1175
-1174
-1173
-1171
-1171
-1173
-1171
-1169
-1166
-1166
-1164
-1160
-1156
-1154
-1155
-1156
-1155
-1149
-1144
-1139
-1139
-1139
-1140
-1141
-1143
-1146
-1149
-1152
-1155
-1158
-1162
-1166
-1170
-1176
-1180
-1180
-1179
-1179
-1179
-1179
-1180
-1180
-1181
-1178
-1177
-1177
-1179
-1184
-1185
-1173
-1148
-1121
-1080
-1016
-937
-869
-828
-812
-817
-853
-912
-997
-1092
-1184
-1246
-1265
-1260
-1259
-1258
-1256
-1250
-1239
-1228
-1224
-1222
-1220
-1218
-1218
-1218
-1217
-1217
-1217
-1216
-1216
-1214
-1214
-1213
-1210
-1207
-1205
-1201
-1196
-1190
-1184
-1179
-1172
-1165
-1157
-1151
-1144
-1136
-1129
-1124
-1120
-1116
-1110
-1108
-1108
-1107
-1105
-1107
-1109
-1111
-1114
-1119
-1123
-1127
-1132
-1133
-1139
-1143
-1147
-1149
-1153
-1158
-1160
-1163
-1164
-1165
-1167
-1169
-1171
-1172
-1174
-1174
-1175
-1175
-1175
-1176
-1176
-1176
-1174
-1171
-1170
-1170
-1169
-1168
-1168
-1166
-1166
-1165
-1163
-1160
-1158
-1157
-1155
-1152
-1152
-1150
-1147
-1140
-1135
-1132
-1132
-1134
-1136
-1138
-1139
-1142
-1143
-1147
-1149
-1151
-1153
-1157
-1162
-1167
-1171
-1171
-1171
-1172
-1174
-1174
-1174
-1172
-1171
-1170
-1168
-1168
-1168
-1171
-1175
-1174
-1157
-1130
-1101
-1056
-984
-905
-842
-808
-798
-807
-844
-904
-986
-1076
-1163
-1224
-1248
-1244
-1243
-1243
-1239
-1230
-1219
-1211
-1208
-1208
-1208
-1207
-1206
-1205
-1204
-1203
-1203
-1203
-1202
-1201
-1200
-1199
-1196
-1194
-1191
-1188
-1184
-1180
-1176
-1169
-1163
-1156
-1149
-1142
-1135
-1128
-1120
-1112
-1107
-1102
-1097
-1094
-1093
-1093
-1093
-1095
-1096
-1096
-1100
-1102
-1105
-1109
-1112
-1116
-1120
-1123
-1128
-1132
-1136
-1141
-1144
-1149
-1152
-1155
-1156
-1160
-1160
-1161
-1161
-1161
-1162
-1163
-1164
-1164
-1163
-1162
-1162
-1161
-1163
-1163
-1161
-1161
-1160
-1160
-1160
-1159
-1157
-1154
-1149
-1145
-1142
-1140
-1138
-1138
-1137
-1134
-1128
-1125
-1123
-1125
-1126
-1127
-1127
-1130
-1136
-1136
-1138
-1139
-1140
-1143
-1148
-1153
-1159
-1163
-1164
-1165
-1165
-1167
-1168
-1167
-1168
-1167
-1167
-1166
-1166
-1166
-1170
-1173
-1163
-1139
-1112
-1074
-1012
-931
-857
-816
-803
-811
-848
-908
-993
-1088
-1176
-1233
-1252
-1247
-1245
-1244
-1237
-1227
-1215
-1206
-1204
-1203
-1203
-1200
-1200
-1200
-1200
-1200
-1200
-1200
-1200
-1200
-1199
-1199
-1198
-1195
-1193
-1190
-1184
-1180
-1174
-1169
-1163
-1156
-1149
-1141
-1134
-1128
-1120
-1115
-1108
-1104
-1100
-1097
-1095
-1094
-1093
-1094
-1095
-1097
-1099
-1100
-1103
-1106
-1110
-1113
-1117
-1121
-1126
-1130
-1133
-1137
-1142
-1145
-1148
-1151
-1152
-1156
-1157
-1157
-1159
-1160
-1161
-1162
-1163
-1164
-1164
-1165
-1166
-1166
-1165
-1165
-1164
-1162
-1162
-1161
-1160
-1160
-1159
-1158
-1156
-1152
-1150
-1148
-1147
-1146
-1146
-1143
-1141
-1136
-1131
-1128
-1129
-1128
-1128
-1128
-1130
-1131
-1134
-1138
-1140
-1143
-1146
-1151
-1156
-1160
-1162
-1163
-1164
-1164
-1165
-1166
-1166
-1167
-1166
-1167
-1168
-1170
-1171
-1175
-1172
-1155
-1128
-1102
-1060
-993
-918
-854
-821
-812
-830
-874
-940
-1026
-1121
-1199
-1244
-1253
-1251
-1253
-1250
-1240
-1228
-1216
-1211
-1209
-1207
-1207
-1204
-1203
-1202
-1201
-1201
-1200
-1200
-1200
-1199
-1199
-1198
-1197
-1195
-1193
-1190
-1186
-1181
-1176
-1170
-1165
-1159
-1152
-1143
-1136
-1129
-1122
-1117
-1111
-1107
-1104
-1103
-1100
-1099
-1098
-1098
-1099
-1100
-1103
-1106
-1110
-1114
-1119
-1122
-1126
-1131
-1136
-1141
-1144
-1148
-1149
-1152
-1154
-1156
-1158
-1160
-1162
-1163
-1164
-1166
-1167
-1168
-1168
-1169
-1171
-1170
-1171
-1171
-1172
-1174
-1174
-1174
-1173
-1172
-1171
-1170
-1170
-1169
-1167
-1164
-1160
-1158
-1157
-1156
-1156
-1155
-1152
-1147
-1144
-1140
-1141
-1143
-1144
-1143
-1144
-1146
-1147
-1151
-1152
-1155
-1158
-1161
-1166
-1169
-1172
-1174
-1175
-1177
-1178
-1179
-1179
-1178
-1178
-1178
-1177
-1178
-1179
-1183
-1185
-1176
-1154
-1128
-1096
-1041
-963
-889
-842
-825
-830
-868
-926
-1008
-1100
-1189
-1248
-1270
-1267
-1265
-1264
-1259
-1248
-1236
-1224
-1220
-1220
-1219
-1218
-1217
-1215
-1215
-1214
-1214
-1213
-1213
-1210
-1209
-1208
-1205
-1202
-1200
-1197
-1193
-1189
-1184
-1180
-1172
-1165
-1157
-1149
-1143
-1136
-1131
-1124
-1119
-1113
-1109
-1107
-1106
-1105
-1105
-1105
-1105
-1106
-1109
-1112
-1115
-1118
-1124
-1126
-1131
-1136
-1141
-1146
-1148
-1153
-1157
-1159
-1161
-1164
-1167
-1169
-1172
-1174
-1175
-1174
-1172
-1172
-1172
-1172
-1173
-1174
-1175
-1174
-1174
-1175
-1175
-1175
-1174
-1173
-1172
-1171
-1170
-1170
-1168
-1167
-1164
-1161
-1159
-1157
-1156
-1156
-1155
-1154
-1150
-1144
-1141
-1141
-1143
-1143
-1143
-1145
-1149
-1151
-1155
-1157
-1161
-1163
-1168
-1171
-1175
-1176
-1176
-1176
-1176
-1177
-1177
-1179
-1179
-1178
-1178
-1176
-1175
-1175
-1180
-1184
-1182
-1165
-1136
-1108
-1062
-992
-914
-854
-822
-813
-826
-867
-932
-1017
-1108
-1193
-1249
-1267
-1262
-1261
-1260
-1257
-1248
-1236
-1227
-1221
-1220
-1218
-1216
-1215
-1216
-1216
-1215
-1213
-1212
-1210
-1209
-1208
-1208
-1208
-1207
-1207
-1203
-1200
-1196
-1189
-1180
-1173
-1165
-1160
-1152
-1144
-1136
-1129
-1121
-1116
-1111
-1108
-1105
-1104
-1103
-1103
-1104
-1104
-1107
-1108
-1112
-1116
-1120
-1125
-1129
-1133
-1136
-1139
-1143
-1147
-1150
-1153
-1158
-1161
-1163
-1166
-1168
-1169
-1172
-1174
-1173
-1174
-1175
-1176
-1179
-1178
-1180
-1179
-1177
-1177
-1177
-1175
-1173
-1170
-1170
-1169
-1168
-1167
-1166
-1163
-1161
-1160
-1157
-1156
-1153
-1151
-1151
-1152
-1152
-1152
-1147
-1143
-1140
-1141
-1143
-1143
-1144
-1145
-1146
-1148
-1152
-1154
-1156
-1160
-1164
-1169
-1174
-1176
-1179
-1179
-1180
-1178
-1177
-1178
-1177
-1177
-1176
-1176
-1177
-1178
-1182
-1185
-1179
-1156
-1126
-1096
-1047
-972
-896
-841
-816
-812
-838
-887
-963
-1056
-1151
-1221
-1258
-1257
-1256
-1254
-1252
-1245
-1237
-1228
-1220
-1217
-1216
-1215
-1214
-1213
-1214
-1214
-1214
-1212
-1212
-1211
-1208
-1207
-1207
-1205
-1202
-1200
-1197
-1192
-1188
-1184
-1177
-1171
-1163
-1156
-1148
-1139
-1132
-1125
-1120
-1113
-1109
-1105
-1105
-1102
-1099
-1100
-1102
-1105
-1107
-1110
-1113
-1118
-1121
-1125
-1128
-1133
-1138
-1144
-1149
-1152
-1155
-1157
-1160
-1162
-1164
-1164
-1167
-1168
-1170
-1170
-1172
-1172
-1172
-1173
-1174
-1174
-1175
-1176
-1175
-1174
-1173
-1173
-1172
-1172
-1170
-1170
-1167
-1165
-1163
-1161
-1159
-1156
-1152
-1148
-1147
-1147
-1148
-1149
-1147
-1142
-1138
-1135
-1134
-1136
-1136
-1135
-1136
-1139
-1143
-1149
-1151
-1154
-1156
-1160
-1164
-1169
-1170
-1169
-1169
-1169
-1169
-1169
-1170
-1171
-1172
-1172
-1172
-1172
-1173
-1177
-1177
-1168
-1145
-1117
-1081
-1024
-945
-872
-825
-805
-805
-834
-888
-968
-1057
-1149
-1216
-1249
-1248
-1247
-1246
-1246
-1236
-1224
-1214
-1208
-1208
-1208
-1207
-1206
-1206
-1205
-1205
-1204
-1204
-1202
-1203
-1201
-1200
-1200
-1197
-1194
-1192
-1188
-1184
-1178
-1173
-1167
-1160
-1154
-1148
-1142
-1134
-1126
-1119
-1111
-1104
-1100
-1096
-1093
-1091
-1091
-1091
-1093
-1094
-1096
-1099
-1103
-1106
-1110
-1112
-1117
-1120
-1124
-1128
-1132
-1134
-1138
-1142
-1146
-1151
-1153
-1154
-1154
-1157
-1159
-1158
-1157
-1158
-1158
-1160
-1160
-1160
-1160
-1160
-1161
-1161
-1160
-1160
-1159
-1158
-1158
-1157
-1156
-1155
-1153
-1152
-1147
-1143
-1140
-1138
-1136
-1136
-1136
-1136
-1132
-1128
-1124
-1122
-1123
-1124
-1125
-1124
-1126
-1130
-1133
-1138
-1141
-1144
-1148
-1153
-1160
-1164
-1165
-1164
-1164
-1164
-1164
-1164
-1164
-1163
-1163
-1163
-1163
-1163
-1164
-1169
-1168
-1153
-1127
-1100
-1061
-996
-917
-849
-816
-807
-817
-856
-920
-1007
-1102
-1184
-1233
-1244
-1241
-1242
-1241
-1232
-1221
-1209
-1203
-1200
-1200
-1199
-1199
-1198
-1199
-1198
-1198
-1198
-1197
-1198
-1197
-1197
-1195
-1193
-1191
-1188
-1185
-1182
-1177
-1173
-1166
-1160
-1153
-1145
-1136
-1128
-1121
-1116
-1110
-1105
-1102
-1099
-1096
-1095
-1092
-1091
-1090
-1091
-1092
-1096
-1099
-1102
-1105
-1110
-1113
-1117
-1121
-1125
-1130
-1133
-1137
-1140
-1144
-1148
-1150
-1152
-1154
-1156
-1157
-1159
-1161
-1162
-1163
-1163
-1164
-1164
-1163
-1164
-1165
-1164
-1164
-1164
-1163
-1163
-1161
-1162
-1161
-1160
-1158
-1157
-1156
-1154
-1151
-1149
-1148
-1146
-1144
-1143
-1140
-1136
-1130
-1126
-1124
-1125
-1127
-1126
-1127
-1128
-1130
-1134
-1136
-1139
-1144
-1148
-1152
-1158
-1161
-1165
-1167
-1167
-1168
-1169
-1169
-1168
-1168
-1167
-1167
-1165
-1165
-1165
-1168
-1172
-1164
-1142
-1117
-1087
-1038
-963
-889
-836
-815
-811
-835
-882
-955
-1044
-1136
-1207
-1247
-1251
-1248
-1247
-1242
-1232
-1219
-1207
-1201
-1200
-1200
-1200
-1199
-1198
-1196
-1196
-1196
-1195
-1195
-1194
-1195
-1195
-1193
-1191
-1190
-1187
-1185
-1182
-1177
-1172
-1164
-1158
-1151
-1143
-1136
-1128
-1121
-1115
-1108
-1104
-1099
-1096
-1094
-1090
-1088
-1088
-1089
-1089
-1090
-1093
-1095
-1098
-1102
-1104
-1108
-1112
-1117
-1121
-1127
-1131
-1136
-1138
-1142
-1145
-1147
-1148
-1150
-1153
-1154
-1155
-1156
-1157
-1158
-1159
-1159
-1160
-1160
-1162
-1163
-1163
-1164
-1164
-1163
-1161
-1161
-1160
-1158
-1157
-1156
-1154
-1151
-1148
-1147
-1146
-1145
-1144
-1144
-1143
-1139
-1135
-1130
-1129
-1130
-1129
-1129
-1130
-1132
-1134
-1137
-1140
-1145
-1150
-1153
-1160
-1164
-1167
-1168
-1170
-1172
-1172
-1173
-1172
-1171
-1170
-1170
-1170
-1169
-1170
-1175
-1179
-1174
-1152
-1126
-1096
-1046
-971
-895
-844
-823
-824
-856
-911
-989
-1080
-1168
-1232
-1261
-1259
-1257
-1257
-1252
-1242
-1230
-1219
-1213
-1213
-1210
-1208
-1205
-1204
-1204
-1204
-1204
-1203
-1204
-1204
-1204
-1202
-1201
-1200
-1196
-1193
-1189
-1184
-1179
-1174
-1168
-1162
-1156
-1148
-1143
-1136
-1128
-1123
-1116
-1111
-1107
-1104
-1101
-1100
-1099
-1100
-1101
-1103
-1106
-1108
-1110
-1113
-1117
-1121
-1127
-1132
-1137
-1140
-1144
-1147
-1151
-1152
-1155
-1157
-1161
-1163
-1166
-1167
-1167
-1168
-1168
-1170
-1172
-1173
-1174
-1175
-1172
-1171
-1172
-1175
-1176
-1174
-1174
-1173
-1173
-1172
-1171
-1167
-1166
-1162
-1160
-1158
-1155
-1156
-1158
-1156
-1151
-1145
-1141
-1140
-1142
-1142
-1142
-1143
-1145
-1149
-1154
-1158
-1161
-1164
-1167
-1169
-1172
-1174
-1176
-1177
-1178
-1179
-1181
-1183
-1181
-1180
-1180
-1179
-1179
-1178
-1180
-1184
-1182
-1163
-1136
-1106
-1060
-985
-907
-847
-819
-812
-832
-880
-952
-1046
-1140
-1217
-1263
-1269
-1264
-1262
-1261
-1256
-1248
-1236
-1225
-1222
-1220
-1220
-1216
-1217
-1217
-1218
-1216
-1216
-1216
-1216
-1213
-1211
-1208
-1206
-1204
-1201
-1198
-1194
-1190
-1184
-1176
-1170
-1163
-1157
-1150
-1143
-1135
-1128
-1122
-1116
-1113
-1111
-1108
-1106
-1105
-1106
-1107
-1108
-1112
-1116
-1120
-1124
-1126
-1132
-1138
-1140
-1144
-1148
-1150
-1154
-1159
-1162
-1165
-1168
-1171
-1172
-1175
-1175
-1176
-1177
-1177
-1179
-1179
-1179
-1179
-1180
-1181
-1181
-1180
-1179
-1176
-1176
-1177
-1177
-1176
-1174
-1173
-1172
-1169
-1167
-1163
-1161
-1159
-1160
-1161
-1160
-1155
-1150
-1148
-1148
-1149
-1146
-1147
-1148
-1151
-1153
-1157
-1160
-1164
-1168
-1174
-1180
-1182
-1186
-1188
-1188
-1188
-1189
-1188
-1187
-1184
-1184
-1184
-1184
-1184
-1184
-1190
-1192
-1185
-1163
-1136
-1103
-1046
-968
-893
-842
-821
-817
-845
-896
-972
-1064
-1157
-1228
-1264
-1266
-1265
-1266
-1266
-1259
-1248
-1238
-1229
-1229
-1227
-1225
-1224
-1223
-1223
-1224
-1224
-1224
-1223
-1220
-1218
-1217
-1216
-1213
-1211
-1207
-1202
-1198
-1193
-1188
-1180
-1172
-1164
-1157
-1150
-1141
-1134
-1129
-1124
-1119
-1115
-1111
-1109
-1106
-1105
-1105
-1108
-1112
-1116
-1118
-1120
-1125
-1130
-1135
-1140
-1144
-1148
-1150
-1153
-1157
-1160
-1161
-1164
-1166
-1168
-1169
-1171
-1172
-1174
-1175
-1175
-1176
-1176
-1177
-1177
-1179
-1179
-1179
-1178
-1179
-1178
-1177
-1175
-1171
-1170
-1168
-1167
-1164
-1161
-1157
-1154
-1152
-1150
-1150
-1150
-1148
-1144
-1140
-1134
-1132
-1134
-1136
-1136
-1136
-1138
-1143
-1145
-1149
-1152
-1155
-1160
-1164
-1168
-1171
-1171
-1172
-1173
-1172
-1172
-1173
-1173
-1173
-1173
-1173
-1173
-1172
-1173
-1176
-1178
-1170
-1147
-1120
-1085
-1031
-953
-876
-826
-805
-803
-831
-885
-965
-1057
-1151
-1219
-1250
-1248
-1247
-1245
-1242
-1232
-1221
-1211
-1206
-1206
-1204
-1204
-1204
-1204
-1205
-1205
-1204
-1202
-1201
-1200
-1200
-1198
-1196
-1194
-1192
-1188
-1184
-1181
-1178
-1172
-1167
-1161
-1155
-1147
-1140
-1132
-1125
-1118
-1111
-1105
-1100
-1096
-1092
-1092
-1090
-1090
-1092
-1093
-1095
-1097
-1100
-1104
-1108
-1112
-1117
-1121
-1126
-1130
-1134
-1137
-1140
-1144
-1146
-1149
-1152
-1155
-1157
-1158
-1160
-1160
-1161
-1161
-1161
-1162
-1161
-1161
-1161
-1161
-1162
-1161
-1161
-1161
-1161
-1160
-1159
-1158
-1157
-1156
-1154
-1152
-1148
-1146
-1142
-1139
-1139
-1137
-1135
-1131
-1126
-1124
-1123
-1124
-1125
-1125
-1127
-1130
-1132
-1135
-1138
-1141
-1145
-1149
-1154
-1159
-1161
-1163
-1164
-1165
-1166
-1166
-1167
-1166
-1166
-1166
-1166
-1165
-1166
-1170
-1171
-1160
-1134
-1107
-1072
-1011
-934
-864
-820
-805
-810
-844
-900
-979
-1069
-1158
-1220
-1248
-1247
-1243
-1242
-1238
-1226
-1213
-1204
-1201
-1200
-1200
-1198
-1197
-1196
-1196
-1196
-1196
-1195
-1195
-1195
-1193
-1192
-1192
-1190
-1189
-1186
-1181
-1176
-1171
-1166
-1159
-1152
-1144
-1138
-1131
-1124
-1117
-1110
-1105
-1100
-1097
-1094
-1092
-1091
-1090
-1089
-1089
-1091
-1093
-1096
-1099
-1101
-1104
-1110
-1115
-1120
-1125
-1129
-1134
-1136
-1140
-1143
-1145
-1148
-1151
-1153
-1155
-1157
-1157
-1159
-1159
-1159
-1160
-1162
-1163
-1164
-1165
-1166
-1166
-1166
-1165
-1164
-1163
-1162
-1160
-1160
-1160
-1158
-1156
-1153
-1151
-1148
-1147
-1147
-1147
-1146
-1143
-1138
-1134
-1132
-1132
-1131
-1129
-1129
-1131
-1132
-1135
-1138
-1142
-1147
-1151
-1156
-1161
-1166
-1167
-1168
-1169
-1169
-1169
-1170
-1169
-1168
-1169
-1169
-1170
-1173
-1176
-1180
-1175
-1156
-1129
-1100
-1056
-986
-908
-848
-818
-814
-835
-883
-954
-1043
-1136
-1209
-1251
-1255
-1254
-1254
-1251
-1242
-1230
-1219
-1214
-1212
-1210
-1208
-1208
-1205
-1204
-1204
-1204
-1203
-1203
-1202
-1202
-1201
-1200
-1198
-1195
-1192
-1189
-1186
-1181
-1175
-1168
-1162
-1155
-1148
-1140
-1133
-1125
-1119
-1114
-1110
-1107
-1105
-1101
-1100
-1098
-1098
-1099
-1100
-1104
-1106
-1110
-1113
-1116
-1120
-1125
-1130
-1134
-1139
-1144
-1147
-1150
-1152
-1153
-1157
-1159
-1162
-1163
-1164
-1166
-1168
-1168
-1168
-1170
-1170
-1170
-1170
-1171
-1172
-1172
-1172
-1172
-1171
-1170
-1170
-1171
-1171
-1170
-1168
-1166
-1162
-1160
-1156
-1154
-1153
-1153
-1151
-1148
-1144
-1140
-1138
-1139
-1141
-1140
-1140
-1143
-1144
-1148
-1152
-1154
-1157
-1160
-1162
-1168
-1171
-1172
-1173
-1175
-1175
-1176
-1177
-1177
-1176
-1175
-1176
-1173
-1175
-1178
-1181
-1181
-1164
-1138
-1110
-1068
-999
-920
-855
-822
-813
-833
-882
-956
-1048
-1142
-1216
-1258
-1264
-1262
-1260
-1259
-1254
-1242
-1232
-1223
-1218
-1216
-1216
-1216
-1216
-1214
-1212
-1212
-1212
-1211
-1209
-1205
-1204
-1202
-1201
-1200
-1197
-1193
-1190
-1184
-1179
-1172
-1167
-1159
-1152
-1146
-1140
-1133
-1126
-1120
-1117
-1113
-1109
-1106
-1106
-1107
-1108
-1108
-1110
-1114
-1118
-1121
-1125
-1129
-1133
-1138
-1141
-1146
-1149
-1152
-1155
-1156
-1159
-1162
-1165
-1168
-1169
-1171
-1174
-1176
-1177
-1177
-1175
-1176
-1176
-1177
-1177
-1180
-1180
-1178
-1177
-1178
-1179
-1180
-1177
-1173
-1171
-1171
-1170
-1168
-1167
-1164
-1162
-1160
-1161
-1161
-1160
-1158
-1152
-1148
-1146
-1144
-1147
-1147
-1147
-1147
-1150
-1153
-1158
-1162
-1164
-1167
-1171
-1176
-1180
-1181
-1182
-1183
-1184
-1184
-1186
-1185
-1185
-1185
-1185
-1182
-1182
-1181
-1183
-1185
-1181
-1163
-1136
-1105
-1053
-977
-901
-846
-819
-811
-828
-873
-944
-1032
-1124
-1205
-1255
-1265
-1263
-1263
-1264
-1260
-1250
-1238
-1229
-1224
-1221
-1220
-1220
-1217
-1217
-1217
-1217
-1216
-1215
-1215
-1212
-1213
-1212
-1211
-1208
-1206
-1202
-1197
-1192
-1187
-1181
-1173
-1165
-1157
-1148
-1143
-1136
-1130
-1124
-1120
-1117
-1111
-1107
-1104
-1103
-1102
-1104
-1104
-1106
-1110
-1113
-1118
-1122
-1125
-1131
-1136
-1141
-1145
-1149
-1152
-1154
-1156
-1157
-1159
-1160
-1163
-1165
-1166
-1168
-1170
-1170
-1172
-1173
-1173
-1174
-1174
-1173
-1172
-1172
-1172
-1172
-1170
-1167
-1165
-1163
-1162
-1160
-1157
-1154
-1152
-1148
-1145
-1144
-1144
-1143
-1142
-1138
-1133
-1128
-1127
-1128
-1128
-1128
-1128
-1130
-1133
-1136
-1140
-1143
-1147
-1150
-1154
-1160
-1163
-1166
-1166
-1167
-1168
-1169
-1169
-1169
-1169
-1168
-1168
-1168
-1166
-1167
-1170
-1168
-1154
-1128
-1099
-1054
-986
-907
-842
-810
-800
-816
-859
-930
-1020
-1112
-1189
-1235
-1241
-1239
-1239
-1239
-1233
-1223
-1212
-1205
-1203
-1201
-1200
-1199
-1199
-1198
-1197
-1197
-1196
-1195
-1194
-1194
-1193
-1192
-1189
-1187
-1184
-1181
-1177
-1173
-1168
-1161
-1156
-1150
-1142
-1135
-1127
-1121
-1115
-1108
-1103
-1096
-1093
-1091
-1089
-1088
-1088
-1088
-1090
-1092
-1095
-1096
-1100
-1104
-1108
-1111
-1115
-1120
-1124
-1130
-1134
-1137
-1140
-1142
-1145
-1147
-1149
-1151
-1153
-1154
-1156
-1156
-1157
-1157
-1159
-1160
-1160
-1160
-1158
-1158
-1158
-1157
-1156
-1156
-1155
-1155
-1154
-1152
-1152
-1148
-1147
-1142
-1138
-1136
-1135
-1135
-1133
-1129
-1124
-1120
-1117
-1118
-1120
-1120
-1120
-1121
-1125
-1128
-1132
-1135
-1139
-1143
-1147
-1153
-1157
-1160
-1160
-1161
-1162
-1163
-1164
-1164
-1163
-1164
-1164
-1163
-1163
-1164
-1168
-1168
-1157
-1132
-1104
-1068
-1008
-928
-860
-820
-806
-815
-854
-919
-1005
-1098
-1178
-1227
-1240
-1237
-1238
-1238
-1230
-1218
-1207
-1201
-1199
-1198
-1196
-1196
-1195
-1194
-1194
-1193
-1193
-1194
-1194
-1193
-1192
-1192
-1190
-1187
-1185
-1182
-1178
-1173
-1167
-1162
-1155
-1148
-1142
-1135
-1128
-1122
-1115
-1109
-1104
-1100
-1096
-1093
-1090
-1089
-1089
-1088
-1088
-1090
-1093
-1096
-1099
-1103
-1107
-1111
-1115
-1121
-1125
-1130
-1135
-1139
-1142
-1144
-1146
-1148
-1150
-1152
-1152
-1155
-1156
-1158
-1160
-1160
-1162
-1164
-1164
-1163
-1162
-1162
-1162
-1163
-1164
-1162
-1162
-1161
-1160
-1157
-1154
-1152
-1150
-1150
-1150
-1150
-1149
-1145
-1142
-1138
-1132
-1131
-1132
-1131
-1130
-1131
-1134
-1136
-1139
-1141
-1144
-1148
-1152
-1158
-1165
-1169
-1171
-1171
-1172
-1173
-1174
-1175
-1175
-1174
-1174
-1173
-1174
-1175
-1176
-1179
-1177
-1160
-1135
-1104
-1056
-982
-904
-847
-820
-815
-836
-882
-954
-1044
-1140
-1216
-1260
-1264
-1264
-1264
-1264
-1255
-1242
-1229
-1219
-1214
-1213
-1211
-1211
-1211
-1211
-1208
-1207
-1208
-1207
-1208
-1208
-1205
-1204
-1203
-1202
-1201
-1198
-1193
-1187
-1183
-1178
-1172
-1164
-1156
-1148
-1141
-1134
-1128
-1123
-1119
-1113
-1110
-1107
-1106
-1105
-1106
-1109
-1112
-1114
-1119
-1124
-1128
-1132
-1134
-1137
-1141
-1145
-1147
-1150
-1154
-1158
-1160
-1164
-1165
-1168
-1171
-1174
-1175
-1176
-1177
-1179
-1181
-1183
-1183
-1184
-1185
-1185
-1185
-1184
-1182
-1182
-1182
-1182
-1180
-1180
-1177
-1174
-1171
-1169
-1168
-1166
-1167
-1167
-1166
-1160
-1153
-1152
-1151
-1151
-1150
-1150
-1150
-1153
-1153
-1156
-1160
-1163
-1166
-1167
-1169
-1172
-1176
-1176
-1177
-1178
-1179
-1181
-1183
-1183
-1184
-1185
-1185
-1184
-1184
-1185
-1187
-1189
-1180
-1156
-1131
-1097
-1035
-953
-880
-833
-814
-815
-848
-903
-985
-1077
-1168
-1237
-1267
-1267
-1264
-1264
-1262
-1254
-1243
-1231
-1224
-1222
-1223
-1224
-1224
-1222
-1220
-1220
-1221
-1220
-1217
-1215
-1213
-1209
-1209
-1208
-1204
-1199
-1196
-1193
-1188
-1182
-1179
-1173
-1164
-1156
-1147
-1140
-1133
-1127
-1123
-1119
-1116
-1115
-1112
-1111
-1112
-1112
-1114
-1115
-1116
-1116
-1120
-1127
-1128
-1131
-1136
-1142
-1148
-1150
-1155
-1156
-1157
-1160
-1164
-1168
-1170
-1171
-1172
-1174
-1175
-1177
-1177
-1178
-1182
-1183
-1180
-1176
-1175
-1176
-1177
-1175
-1175
-1174
-1174
-1172
-1172
-1171
-1168
-1166
-1164
-1162
-1160
-1158
-1156
-1152
-1148
-1143
-1141
-1142
-1144
-1144
-1144
-1142
-1143
-1145
-1148
-1152
-1153
-1157
-1163
-1167
-1173
-1176
-1179
-1180
-1179
-1180
-1181
-1181
-1182
-1182
-1180
-1179
-1178
-1178
-1178
-1181
-1180
-1170
-1146
-1119
-1079
-1017
-938
-866
-825
-810
-818
-859
-923
-1010
-1100
-1183
-1238
-1255
-1252
-1250
-1250
-1245
-1238
-1228
-1219
-1216
-1215
-1214
-1212
-1211
-1209
-1208
-1206
-1204
-1203
-1202
-1200
-1200
-1198
-1196
-1194
-1192
-1190
-1187
-1181
-1177
-1173
-1167
-1160
-1152
-1146
-1137
-1127
-1121
-1116
-1112
-1107
-1104
-1100
-1097
-1098
-1097
-1097
-1099
-1101
-1105
-1107
-1110
-1113
-1116
-1120
-1125
-1130
-1134
-1139
-1143
-1146
-1151
-1153
-1154
-1155
-1156
-1157
-1159
-1160
-1160
-1161
-1162
-1162
-1163
-1163
-1164
-1165
-1164
-1164
-1165
-1164
-1162
-1162
-1160
-1159
-1155
-1152
-1149
-1145
-1144
-1143
-1142
-1138
-1134
-1128
-1124
-1125
-1126
-1125
-1126
-1127
-1128
-1129
-1132
-1136
-1137
-1142
-1148
-1152
-1157
-1162
-1164
-1165
-1165
-1166
-1167
-1167
-1166
-1165
-1165
-1164
-1164
-1164
-1167
-1171
-1168
-1152
-1126
-1098
-1056
-985
-904
-839
-805
-796
-812
-856
-928
-1020
-1116
-1196
-1238
-1241
-1239
-1239
-1236
-1227
-1214
-1205
-1202
-1202
-1201
-1200
-1199
-1199
-1198
-1198
-1197
-1196
-1195
-1195
-1194
-1194
-1193
-1192
-1189
-1187
-1184
-1180
-1175
-1169
-1164
-1158
-1152
-1145
-1137
-1130
-1124
-1117
-1112
-1108
-1104
-1101
-1097
-1096
-1095
-1095
-1096
-1097
-1099
-1101
-1103
-1106
-1109
-1112
-1117
-1120
-1124
-1129
-1132
-1136
-1139
-1142
-1144
-1147
-1149
-1152
-1153
-1155
-1156
-1157
-1157
-1159
-1159
-1160
-1161
-1162
-1162
-1161
-1161
-1161
-1161
-1160
-1160
-1159
-1156
-1153
-1150
-1148
-1147
-1146
-1146
-1144
-1140
-1137
-1132
-1129
-1129
-1130
-1131
-1131
-1131
-1131
-1132
-1135
-1136
-1139
-1144
-1147
-1152
-1158
-1161
-1164
-1164
-1165
-1165
-1166
-1165
-1166
-1167
-1166
-1165
-1166
-1166
-1169
-1174
-1168
-1149
-1123
-1093
-1047
-973
-894
-834
-808
-805
-835
-889
-968
-1061
-1152
-1217
-1247
-1248
-1248
-1248
-1243
-1233
-1220
-1211
-1208
-1207
-1205
-1202
-1200
-1199
-1198
-1196
-1196
-1196
-1195
-1194
-1193
-1192
-1191
-1188
-1186
-1184
-1179
-1176
-1170
-1164
-1157
-1151
-1145
-1140
-1133
-1127
-1122
-1117
-1111
-1106
-1101
-1098
-1096
-1093
-1092
-1093
-1095
-1098
-1100
-1102
-1104
-1108
-1111
-1115
-1120
-1126
-1130
-1136
-1141
-1146
-1149
-1152
-1152
-1152
-1153
-1154
-1155
-1156
-1157
-1157
-1159
-1160
-1162
-1164
-1164
-1164
-1166
-1167
-1166
-1166
-1166
-1166
-1166
-1164
-1163
-1161
-1160
-1158
-1157
-1156
-1155
-1155
-1152
-1148
-1143
-1138
-1136
-1138
-1139
-1138
-1138
-1141
-1143
-1147
-1149
-1151
-1154
-1157
-1163
-1169
-1173
-1176
-1176
-1176
-1174
-1174
-1174
-1174
-1173
-1172
-1172
-1171
-1172
-1174
-1177
-1178
-1168
-1143
-1117
-1079
-1019
-940
-868
-825
-811
-818
-857
-922
-1011
-1105
-1188
-1244
-1262
-1260
-1258
-1257
-1253
-1244
-1232
-1222
-1217
-1216
-1216
-1215
-1215
-1214
-1214
-1213
-1212
-1212
-1213
-1212
-1212
-1211
-1210
-1208
-1202
-1195
-1190
-1184
-1180
-1174
-1169
-1163
-1157
-1150
-1143
-1136
-1132
-1125
-1121
-1116
-1112
-1108
-1104
-1104
-1102
-1102
-1104
-1108
-1112
-1116
-1120
-1122
-1124
-1128
-1131
-1136
-1139
-1144
-1147
-1150
-1153
-1156
-1157
-1160
-1164
-1168
-1169
-1170
-1173
-1173
-1174
-1175
-1175
-1176
-1175
-1175
-1176
-1174
-1175
-1176
-1175
-1173
-1171
-1170
-1169
-1168
-1167
-1165
-1160
-1157
-1156
-1154
-1154
-1152
-1149
-1144
-1140
-1138
-1139
-1140
-1141
-1140
-1141
-1144
-1145
-1149
-1152
-1155
-1158
-1163
-1167
-1173
-1176
-1180
-1180
-1181
-1181
-1181
-1180
-1179
-1179
-1180
-1180
-1180
-1179
-1179
-1183
-1182
-1166
-1138
-1110
-1066
-996
-919
-853
-818
-807
-817
-856
-919
-1005
-1096
-1181
-1240
-1259
-1257
-1257
-1256
-1252
-1244
-1234
-1226
-1223
-1221
-1219
-1218
-1217
-1216
-1215
-1215
-1214
-1213
-1212
-1211
-1209
-1208
-1208
-1207
-1203
-1199
-1193
-1188
-1184
-1179
-1173
-1167
-1159
-1152
-1144
-1136
-1131
-1125
-1119
-1112
-1107
-1105
-1104
-1108
-1108
-1108
-1111
-1111
-1113
-1118
-1120
-1125
-1130
-1133
-1136
-1138
-1143
-1147
-1151
-1156
-1161
-1164
-1164
-1166
-1168
-1168
-1171
-1174
-1176
-1177
-1180
-1179
-1177
-1178
-1179
-1179
-1178
-1176
-1175
-1175
-1175
-1174
-1175
-1176
-1173
-1170
-1167
-1162
-1161
-1160
-1156
-1154
-1153
-1151
-1151
-1148
-1143
-1140
-1140
-1139
-1138
-1139
-1142
-1143
-1146
-1152
-1152
-1158
-1162
-1168
-1174
-1177
-1179
-1178
-1177
-1177
-1180
-1180
-1183
-1180
-1180
-1177
-1176
-1177
-1178
-1182
-1183
-1168
-1141
-1114
-1071
-1000
-921
-853
-813
-800
-809
-848
-912
-998
-1094
-1180
-1239
-1256
-1254
-1251
-1251
-1246
-1237
-1227
-1218
-1214
-1212
-1213
-1213
-1213
-1211
-1211
-1211
-1210
-1211
-1211
-1210
-1209
-1208
-1206
-1203
-1201
-1197
-1192
-1187
-1180
-1174
-1168
-1163
-1155
-1148
-1144
-1136
-1129
-1123
-1118
-1113
-1111
-1110
-1107
-1108
-1107
-1106
-1105
-1106
-1108
-1110
-1112
-1115
-1119
-1124
-1128
-1132
-1136
-1139
-1143
-1147
-1152
-1152
-1154
-1155
-1157
-1159
-1160
-1162
-1164
-1167
-1168
-1168
-1169
-1169
-1169
-1168
-1169
-1167
-1166
-1165
-1164
-1164
-1163
-1162
-1160
-1157
-1154
-1150
-1148
-1148
-1148
-1148
-1147
-1143
-1136
-1132
-1128
-1126
-1127
-1127
-1128
-1128
-1131
-1134
-1136
-1138
-1142
-1146
-1152
-1156
-1160
-1163
-1164
-1164
-1165
-1166
-1165
-1165
-1165
-1167
-1169
-1169
-1169
-1168
-1173
-1173
-1160
-1135
-1107
-1069
-1006
-926
-856
-816
-802
-808
-845
-908
-994
-1088
-1172
-1228
-1246
-1245
-1245
-1245
-1240
-1228
-1217
-1207
-1204
-1203
-1201
-1200
-1200
-1199
-1199
-1198
-1196
-1197
-1197
-1196
-1195
-1192
-1192
-1190
-1187
-1184
-1183
-1179
-1176
-1171
-1166
-1159
-1152
-1144
-1136
-1130
-1124
-1117
-1112
-1107
-1104
-1102
-1100
-1097
-1096
-1096
-1096
-1098
-1100
-1103
-1106
-1110
-1113
-1117
-1122
-1127
-1130
-1132
-1136
-1138
-1140
-1143
-1145
-1147
-1149
-1151
-1153
-1153
-1155
-1156
-1156
-1157
-1158
-1160
-1160
-1160
-1161
-1161
-1162
-1162
-1164
-1164
-1164
-1164
-1162
-1159
-1156
-1154
-1151
-1149
-1149
-1149
-1146
-1143
-1138
-1133
-1130
-1131
-1132
-1131
-1132
-1133
-1136
-1138
-1141
-1144
-1147
-1148
-1152
-1157
-1161
-1164
-1165
-1165
-1164
-1166
-1167
-1167
-1167
-1168
-1168
-1168
-1169
-1170
-1174
-1175
-1167
-1145
-1118
-1085
-1032
-956
-880
-832
-813
-816
-844
-893
-966
-1055
-1144
-1213
-1249
-1253
-1251
-1250
-1248
-1239
-1227
-1215
-1210
-1208
-1208
-1207
-1206
-1206
-1205
-1203
-1203
-1202
-1202
-1200
-1198
-1196
-1193
-1192
-1189
-1185
-1182
-1178
-1174
-1169
-1164
-1158
-1152
-1144
-1137
-1130
-1125
-1119
-1112
-1108
-1103
-1099
-1097
-1096
-1096
-1096
-1096
-1096
-1098
-1100
-1104
-1106
-1110
-1113
-1118
-1121
-1127
-1132
-1136
-1140
-1144
-1147
-1150
-1152
-1154
-1156
-1157
-1159
-1160
-1160
-1160
-1160
-1159
-1158
-1157
-1158
-1158
-1157
-1157
-1158
-1159
-1159
-1160
-1158
-1157
-1156
-1155
-1152
-1150
-1148
-1146
-1146
-1145
-1146
-1145
-1141
-1136
-1132
-1130
-1131
-1132
-1132
-1131
-1132
-1134
-1138
-1141
-1145
-1148
-1153
-1159
-1164
-1168
-1171
-1171
-1172
-1171
-1171
-1171
-1170
-1170
-1171
-1170
-1168
-1168
-1169
-1173
-1171
-1157
-1132
-1106
-1067
-1003
-925
-856
-817
-805
-816
-856
-920
-1003
-1094
-1177
-1232
-1256
-1255
-1256
-1256
-1250
-1239
-1226
-1217
-1213
-1212
-1212
-1209
-1209
-1208
-1208
-1206
-1206
-1205
-1206
-1205
-1203
-1202
-1200
-1199
-1195
-1191
-1190
-1187
-1183
-1177
-1171
-1163
-1156
-1148
-1141
-1132
-1125
-1120
-1115
-1110
-1105
-1101
-1100
-1098
-1097
-1097
-1097
-1098
-1102
-1106
-1111
-1115
-1119
-1123
-1128
-1132
-1136
-1141
-1146
-1151
-1153
-1155
-1158
-1161
-1162
-1164
-1164
-1167
-1167
-1168
-1169
-1171
-1172
-1172
-1172
-1173
-1175
-1176
-1176
-1175
-1174
-1172
-1170
-1168
-1166
-1163
-1160
-1158
-1156
-1153
-1153
-1153
-1152
-1149
-1144
-1139
-1138
-1141
-1143
-1142
-1142
-1141
-1142
-1144
-1147
-1152
-1157
-1162
-1166
-1170
-1174
-1178
-1181
-1181
-1179
-1178
-1177
-1177
-1176
-1177
-1176
-1176
-1176
-1178
-1182
-1182
-1168
-1143
-1114
-1073
-1006
-925
-857
-819
-808
-818
-856
-919
-1004
-1095
-1180
-1238
-1257
-1256
-1256
-1255
-1251
-1243
-1232
-1223
-1218
-1217
-1216
-1216
-1214
-1213
-1213
-1212
-1212
-1211
-1210
-1210
-1207
-1205
-1203
-1201
-1198
-1196
-1193
-1189
-1183
-1177
-1173
-1168
-1161
-1155
-1148
-1141
-1136
-1128
-1122
-1120
-1117
-1112
-1107
-1105
-1104
-1104
-1104
-1108
-1112
-1116
-1118
-1122
-1124
-1128
-1133
-1139
-1142
-1146
-1151
-1154
-1159
-1164
-1165
-1166
-1167
-1170
-1174
-1176
-1177
-1177
-1179
-1178
-1178
-1180
-1180
-1180
-1180
-1179
-1178
-1176
-1175
-1175
-1175
-1174
-1171
-1168
-1166
-1163
-1163
-1163
-1161
-1158
-1150
-1143
-1140
-1141
-1142
-1144
-1146
-1146
-1147
-1148
-1152
-1155
-1160
-1164
-1170
-1178
-1180
-1180
-1180
-1182
-1184
-1185
-1184
-1185
-1186
-1188
-1186
-1184
-1182
-1185
-1188
-1184
-1164
-1136
-1105
-1051
-976
-900
-844
-818
-814
-840
-890
-970
-1062
-1153
-1227
-1264
-1268
-1268
-1267
-1267
-1259
-1247
-1233
-1224
-1222
-1224
-1224
-1221
-1221
-1220
-1219
-1219
-1217
-1215
-1214
-1212
-1211
-1209
-1207
-1205
-1203
-1200
-1196
-1193
-1190
-1187
-1182
-1174
-1164
-1154
-1147
-1143
-1136
-1132
-1127
-1122
-1120
-1118
-1116
-1115
-1116
-1117
-1119
-1122
-1128
-1133
-1136
-1138
-1139
-1141
-1145
-1152
-1158
-1160
-1159
-1161
-1162
-1165
-1168
-1169
-1172
-1175
-1176
-1175
-1175
-1177
-1179
-1178
-1178
-1178
-1179
-1178
-1178
-1179
-1182
-1184
-1182
-1180
-1177
-1174
-1170
-1168
-1164
-1164
-1161
-1158
-1153
-1149
-1146
-1145
-1145
-1146
-1144
-1143
-1144
-1145
-1151
-1154
-1156
-1160
-1164
-1169
-1175
-1178
-1179
-1177
-1176
-1177
-1177
-1176
-1175
-1173
-1172
-1173
-1174
-1176
-1180
-1181
-1170
-1144
-1114
-1072
-1006
-925
-853
-812
-797
-805
-848
-913
-1004
-1098
-1183
-1240
-1254
-1253
-1253
-1252
-1247
-1237
-1226
-1218
-1215
-1216
-1214
-1213
-1213
-1212
-1212
-1211
-1209
-1209
-1208
-1208
-1206
-1205
-1202
-1198
-1195
-1192
-1189
-1184
-1179
-1174
-1168
-1163
-1156
-1148
-1141
-1134
-1128
-1122
-1118
-1115
-1112
-1110
-1106
-1104
-1104
-1104
-1107
-1110
-1112
-1118
-1120
-1120
-1123
-1127
-1131
-1135
-1138
-1142
-1144
-1147
-1150
-1154
-1156
-1159
-1161
-1162
-1163
-1164
-1164
-1166
-1167
-1168
-1168
-1169
-1169
-1168
-1166
-1165
-1163
-1162
-1161
-1160
-1158
-1153
-1151
-1148
-1147
-1148
-1146
-1144
-1140
-1135
-1131
-1130
-1131
-1132
-1131
-1131
-1133
-1136
-1139
-1141
-1143
-1145
-1150
-1155
-1161
-1165
-1167
-1168
-1167
-1168
-1169
-1168
-1168
-1168
-1168
-1168
-1168
-1168
-1171
-1174
-1167
-1146
-1118
-1086
-1034
-960
-880
-822
-796
-791
-816
-866
-944
-1035
-1128
-1200
-1240
-1244
-1242
-1243
-1239
-1232
-1221
-1210
-1206
-1205
-1204
-1203
-1201
-1201
-1201
-1202
-1202
-1200
-1201
-1199
-1197
-1197
-1196
-1194
-1192
-1189
-1187
-1183
-1179
-1176
-1170
-1164
-1157
-1149
-1142
-1134
-1128
-1122
-1117
-1112
-1108
-1104
-1099
-1095
-1092
-1090
-1090
-1090
-1092
-1094
-1097
-1101
-1104
-1107
-1111
-1115
-1121
-1125
-1129
-1133
-1136
-1138
-1140
-1141
-1145
-1147
-1150
-1152
-1153
-1154
-1154
-1154
-1153
-1154
-1154
-1154
-1154
-1154
-1154
-1156
-1155
-1155
-1152
-1148
-1146
-1144
-1143
-1142
-1142
-1141
-1138
-1134
-1129
-1125
-1123
-1123
-1121
-1120
-1120
-1123
-1124
-1128
-1128
-1132
-1136
-1142
-1147
-1153
-1156
-1158
-1158
-1158
-1159
-1159
-1159
-1158
-1159
-1159
-1160
-1160
-1162
-1166
-1163
-1148
-1123
-1095
-1053
-987
-908
-842
-808
-798
-810
-853
-923
-1012
-1109
-1187
-1232
-1241
-1239
-1239
-1236
-1227
-1215
-1204
-1198
-1196
-1195
-1195
-1193
-1193
-1191
-1191
-1190
-1189
-1188
-1190
-1188
-1187
-1185
-1184
-1184
-1182
-1180
-1177
-1172
-1168
-1162
-1156
-1149
-1143
-1134
-1128
-1120
-1115
-1109
-1104
-1100
-1096
-1093
-1091
-1089
-1088
-1088
-1089
-1091
-1093
-1097
-1100
-1104
-1110
-1116
-1120
-1123
-1127
-1130
-1132
-1136
-1140
-1141
-1144
-1147
-1148
-1149
-1150
-1148
-1149
-1149
-1150
-1153
-1156
-1156
-1157
-1156
-1157
-1157
-1157
-1156
-1156
-1154
-1151
-1148
-1144
-1144
-1144
-1144
-1143
-1139
-1133
-1129
-1128
-1129
-1129
-1129
-1129
-1130
-1132
-1134
-1137
-1141
-1145
-1149
-1153
-1158
-1162
-1163
-1162
-1162
-1162
-1161
-1162
-1162
-1161
-1161
-1161
-1163
-1166
-1169
-1170
-1160
-1133
-1104
-1064
-998
-918
-850
-814
-802
-814
-857
-928
-1020
-1117
-1197
-1244
-1253
-1252
-1251
-1249
-1243
-1232
-1221
-1212
-1210
-1208
-1208
-1206
-1204
-1203
-1202
-1201
-1201
-1200
-1199
-1199
-1198
-1197
-1194
-1192
-1189
-1184
-1181
-1178
-1172
-1167
-1161
-1153
-1146
-1138
-1132
-1127
-1121
-1118
-1114
-1110
-1106
-1102
-1100
-1100
-1101
-1101
-1102
-1104
-1107
-1109
-1112
-1115
-1120
-1124
-1128
-1132
-1136
-1139
-1143
-1148
-1151
-1154
-1157
-1160
-1162
-1163
-1164
-1164
-1165
-1165
-1166
-1168
-1169
-1170
-1170
-1169
-1168
-1168
-1168
-1168
-1165
-1160
-1160
-1158
-1158
-1156
-1154
-1152
-1151
-1146
-1142
-1137
-1134
-1136
-1136
-1136
-1134
-1135
-1139
-1142
-1147
-1150
-1152
-1155
-1160
-1166
-1170
-1174
-1173
-1174
-1175
-1177
-1176
-1176
-1175
-1174
-1176
-1177
-1177
-1181
-1184
-1176
-1152
-1121
-1084
-1026
-948
-875
-831
-813
-816
-848
-906
-990
-1084
-1174
-1235
-1257
-1256
-1255
-1255
-1252
-1244
-1234
-1224
-1219
-1220
-1220
-1218
-1216
-1215
-1215
-1216
-1216
-1215
-1215
-1212
-1212
-1209
-1207
-1203
-1200
-1198
-1196
-1194
-1188
-1183
-1179
-1174
-1165
-1159
-1152
-1144
-1140
-1135
-1127
-1121
-1116
-1114
-1112
-1111
-1111
-1112
-1112
-1112
-1115
-1119
-1121
-1124
-1129
-1133
-1138
-1144
-1150
-1154
-1158
-1159
-1162
-1166
-1168
-1171
-1172
-1175
-1176
-1179
-1178
-1179
-1180
-1179
-1179
-1179
-1181
-1184
-1182
-1181
-1180
-1180
-1180
-1178
-1173
-1169
-1168
-1167
-1167
-1164
-1160
-1157
-1151
-1147
-1146
-1146
-1145
-1144
-1143
-1142
-1145
-1150
-1154
-1157
-1160
-1164
-1171
-1176
-1180
-1179
-1181
-1179
-1179
-1182
-1184
-1185
-1185
-1187
-1186
-1182
-1181
-1184
-1188
-1181
-1161
-1132
-1097
-1042
-965
-887
-833
-812
-811
-844
-897
-976
-1067
-1156
-1225
-1264
-1264
-1264
-1264
-1265
-1256
-1248
-1237
-1227
-1224
-1220
-1223
-1221
-1218
-1217
-1216
-1216
-1216
-1214
-1216
-1216
-1215
-1213
-1211
-1210
-1209
-1208
-1202
-1197
-1192
-1189
-1183
-1175
-1168
-1163
-1154
-1144
-1138
-1136
-1130
-1126
-1124
-1124
-1124
-1122
-1120
-1119
-1119
-1122
-1126
-1130
-1135
-1136
-1141
-1145
-1148
-1150
-1149
-1152
-1154
-1157
-1160
-1162
-1165
-1167
-1168
-1169
-1171
-1174
-1174
-1174
-1175
-1176
-1177
-1180
-1180
-1177
-1178
-1179
-1178
-1182
-1180
-1175
-1169
-1167
-1165
-1163
-1162
-1160
-1157
-1152
-1147
-1145
-1146
-1146
-1145
-1144
-1143
-1144
-1143
-1145
-1147
-1149
-1153
-1160
-1165
-1169
-1173
-1175
-1173
-1172
-1172
-1172
-1172
-1173
-1175
-1172
-1172
-1172
-1172
-1176
-1176
-1160
-1131
-1100
-1053
-979
-899
-840
-812
-806
-830
-879
-954
-1047
-1138
-1211
-1249
-1251
-1250
-1252
-1251
-1247
-1237
-1229
-1225
-1219
-1216
-1216
-1218
-1217
-1219
-1219
-1219
-1220
-1218
-1217
-1219
-1216
-1212
-1210
-1207
-1202
-1202
-1200
-1196
-1191
-1191
-1185
-1180
-1172
-1166
-1160
-1152
-1143
-1139
-1136
-1132
-1129
-1126
-1124
-1120
-1124
-1120
-1124
-1132
-1136
-1134
-1136
-1136
-1140
-1143
-1151
-1152
-1151
-1156
-1161
-1167
-1167
-1171
-1170
-1170
-1172
-1171
-1173
-1175
-1177
-1181
-1179
-1181
-1180
-1176
-1176
-1175
-1172
-1168
-1169
-1168
-1167
-1164
-1162
-1166
-1164
-1161
-1161
-1161
-1152
-1148
-1143
-1146
-1149
-1148
-1141
-1138
-1142
-1147
-1148
-1150
-1154
-1159
-1163
-1166
-1170
-1173
-1177
-1179
-1178
-1176
-1178
-1178
-1178
-1177
-1177
-1180
-1181
-1179
-1185
-1183
-1163
-1137
-1108
-1065
-993
-911
-849
-820
-817
-842
-896
-978
-1073
-1164
-1225
-1254
-1257
-1256
-1259
-1252
-1240
-1226
-1218
-1216
-1216
-1214
-1219
-1221
-1218
-1218
-1213
-1212
-1208
-1208
-1207
-1208
-1209
-1208
-1208
-1205
-1204
-1200
-1196
-1193
-1191
-1188
-1177
-1168
-1164
-1156
-1149
-1146
-1142
-1134
-1129
-1119
-1116
-1112
-1111
-1112
-1111
-1111
-1111
-1112
-1115
-1117
-1122
-1126
-1131
-1134
-1134
-1141
-1144
-1149
-1152
-1158
-1160
-1163
-1165
-1167
-1167
-1167
-1171
-1169
-1167
-1170
-1171
-1171
-1171
-1172
-1171
-1172
-1172
-1173
-1171
-1168
-1168
-1164
-1162
-1162
-1159
-1156
-1154
-1148
-1144
-1143
-1142
-1141
-1138
-1139
-1138
-1141
-1142
-1144
-1148
-1151
-1153
-1157
-1162
-1168
-1170
-1169
-1171
-1168
-1170
-1173
-1171
-1170
-1171
-1171
-1171
-1172
-1176
-1176
-1165
-1138
-1111
-1073
-1015
-935
-862
-816
-800
-807
-848
-912
-1000
-1098
-1185
-1241
-1259
-1261
-1262
-1260
-1251
-1239
-1226
-1217
-1213
-1211
-1208
-1208
-1208
-1203
-1203
-1200
-1200
-1200
-1198
-1198
-1198
-1200
-1198
-1199
-1197
-1193
-1189
-1186
-1182
-1177
-1172
-1165
-1161
-1155
-1146
-1140
-1135
-1128
-1121
-1118
-1113
-1109
-1107
-1106
-1105
-1104
-1104
-1104
-1105
-1108
-1112
-1115
-1117
-1119
-1123
-1129
-1129
-1134
-1138
-1140
-1140
-1141
-1143
-1146
-1147
-1148
-1148
-1148
-1150
-1151
-1151
-1151
-1154
-1156
-1157
-1154
-1154
-1154
-1152
-1149
-1148
-1145
-1145
-1145
-1145
-1143
-1140
-1137
-1131
-1127
-1124
-1125
-1125
-1124
-1127
-1127
-1129
-1131
-1134
-1134
-1138
-1142
-1148
-1154
-1159
-1158
-1160
-1160
-1162
-1163
-1160
-1156
-1158
-1157
-1156
-1158
-1160
-1164
-1160
-1143
-1118
-1092
-1052
-984
-904
-837
-802
-792
-810
-857
-931
-1024
-1120
-1200
-1244
-1252
-1253
-1255
-1249
-1240
-1226
-1212
-1207
-1206
-1204
-1203
-1201
-1201
-1200
-1198
-1197
-1199
-1200
-1200
-1200
-1200
-1199
-1197
-1195
-1196
-1192
-1188
-1185
-1177
-1170
-1163
-1157
-1151
-1144
-1139
-1132
-1128
-1122
-1117
-1112
-1107
-1102
-1101
-1101
-1100
-1100
-1101
-1102
-1101
-1104
-1106
-1112
-1115
-1119
-1123
-1125
-1129
-1133
-1137
-1139
-1143
-1146
-1148
-1150
-1154
-1156
-1156
-1158
-1157
-1159
-1160
-1161
-1163
-1164
-1164
-1164
-1163
-1163
-1159
-1154
-1150
-1146
-1144
-1145
-1144
-1142
-1140
-1134
-1131
-1130
-1130
-1131
-1129
-1128
-1130
-1129
-1132
-1135
-1137
-1140
-1143
-1148
-1153
-1158
-1161
-1164
-1164
-1164
-1165
-1166
-1166
-1165
-1165
-1165
-1165
-1166
-1168
-1170
-1163
-1140
-1112
-1083
-1032
-954
-875
-822
-800
-798
-825
-877
-953
-1049
-1144
-1212
-1246
-1247
-1248
-1248
-1243
-1234
-1220
-1209
-1205
-1203
-1204
-1201
-1200
-1199
-1200
-1199
-1198
-1198
-1199
-1199
-1200
-1200
-1198
-1196
-1195
-1192
-1189
-1185
-1182
-1178
-1173
-1168
-1161
-1154
-1145
-1140
-1132
-1124
-1120
-1115
-1111
-1106
-1102
-1100
-1098
-1096
-1095
-1093
-1093
-1095
-1096
-1099
-1102
-1105
-1111
-1116
-1120
-1124
-1127
-1131
-1136
-1138
-1140
-1142
-1146
-1148
-1148
-1149
-1151
-1151
-1152
-1152
-1155
-1156
-1156
-1155
-1154
-1150
-1149
-1148
-1146
-1145
-1146
-1141
-1138
-1132
-1128
-1125
-1127
-1127
-1127
-1127
-1125
-1127
-1127
-1131
-1134
-1136
-1140
-1144
-1147
-1151
-1153
-1154
-1155
-1156
-1158
-1159
-1160
-1160
-1160
-1159
-1159
-1160
-1164
-1168
-1160
-1138
-1110
-1076
-1023
-949
-878
-831
-812
-814
-845
-898
-978
-1071
-1159
-1220
-1250
-1252
-1252
-1254
-1249
-1238
-1225
-1214
-1208
-1207
-1204
-1205
-1204
-1204
-1205
-1207
-1205
-1204
-1202
-1201
-1198
-1196
-1195
-1194
-1193
-1190
-1185
-1181
-1178
-1173
-1168
-1160
-1154
-1147
-1141
-1136
-1128
-1124
-1120
-1116
-1112
-1111
-1108
-1105
-1104
-1103
-1104
-1104
-1104
-1105
-1109
-1110
-1115
-1119
-1124
-1128
-1131
-1134
-1137
-1142
-1147
-1151
-1152
-1155
-1156
-1157
-1159
-1161
-1160
-1162
-1163
-1163
-1162
-1162
-1161
-1161
-1158
-1154
-1152
-1152
-1152
-1150
-1147
-1144
-1138
-1134
-1130
-1130
-1132
-1133
-1131
-1131
-1131
-1134
-1136
-1140
-1144
-1149
-1153
-1160
-1164
-1166
-1168
-1168
-1168
-1169
-1169
-1171
-1169
-1169
-1170
-1172
-1173
-1175
-1178
-1175
-1159
-1133
-1103
-1055
-982
-904
-846
-815
-804
-816
-860
-926
-1016
-1107
-1191
-1244
-1257
-1257
-1257
-1255
-1249
-1237
-1224
-1216
-1211
-1210
-1210
-1211
-1212
-1215
-1218
-1216
-1213
-1212
-1211
-1212
-1209
-1209
-1208
-1204
-1203
-1200
-1199
-1195
-1192
-1187
-1180
-1172
-1165
-1160
-1156
-1145
-1138
-1132
-1127
-1124
-1120
-1116
-1114
-1112
-1117
-1118
-1117
-1116
-1115
-1117
-1124
-1126
-1127
-1128
-1134
-1139
-1146
-1151
-1152
-1153
-1154
-1155
-1155
-1162
-1168
-1168
-1169
-1170
-1171
-1171
-1169
-1169
-1170
-1169
-1168
-1168
-1164
-1163
-1160
-1160
-1160
-1156
-1153
-1150
-1145
-1140
-1137
-1140
-1139
-1138
-1137
-1135
-1136
-1137
-1140
-1141
-1144
-1149
-1155
-1160
-1163
-1165
-1166
-1167
-1169
-1170
-1171
-1171
-1172
-1170
-1170
-1173
-1175
-1178
-1178
-1164
-1136
-1107
-1062
-993
-916
-852
-819
-810
-828
-872
-941
-1031
-1123
-1198
-1246
-1256
-1254
-1254
-1253
-1248
-1238
-1227
-1218
-1216
-1216
-1216
-1213
-1210
-1210
-1209
-1209
-1208
-1207
-1206
-1205
-1205
-1204
-1204
-1203
-1201
-1197
-1195
-1191
-1187
-1182
-1178
-1171
-1164
-1157
-1153
-1147
-1141
-1134
-1129
-1127
-1121
-1117
-1115
-1113
-1113
-1113
-1112
-1114
-1116
-1117
-1120
-1121
-1123
-1126
-1129
-1132
-1136
-1139
-1143
-1146
-1148
-1148
-1151
-1152
-1153
-1155
-1158
-1159
-1160
-1161
-1162
-1162
-1162
-1163
-1163
-1160
-1156
-1153
-1151
-1150
-1150
-1151
-1149
-1148
-1144
-1139
-1136
-1135
-1135
-1134
-1132
-1132
-1132
-1134
-1136
-1138
-1140
-1144
-1150
-1155
-1160
-1164
-1167
-1167
-1168
-1168
-1168
-1169
-1169
-1169
-1168
-1165
-1164
-1166
-1169
-1170
-1156
-1131
-1104
-1064
-1000
-922
-853
-815
-803
-811
-852
-915
-1001
-1096
-1181
-1237
-1252
-1253
-1254
-1252
-1243
-1232
-1218
-1210
-1209
-1209
-1208
-1206
-1206
-1205
-1205
-1204
-1205
-1205
-1204
-1204
-1204
-1204
-1203
-1202
-1200
-1196
-1194
-1189
-1185
-1180
-1174
-1168
-1160
-1154
-1147
-1141
-1134
-1128
-1124
-1120
-1115
-1111
-1109
-1105
-1104
-1103
-1102
-1103
-1103
-1104
-1104
-1108
-1111
-1116
-1120
-1123
-1126
-1130
-1135
-1137
-1140
-1143
-1146
-1147
-1149
-1151
-1152
-1152
-1154
-1156
-1156
-1157
-1159
-1159
-1160
-1160
-1160
-1157
-1154
-1152
-1149
-1146
-1145
-1146
-1145
-1141
-1138
-1133
-1128
-1127
-1128
-1128
-1126
-1126
-1127
-1128
-1132
-1134
-1135
-1139
-1145
-1151
-1157
-1161
-1164
-1165
-1166
-1166
-1168
-1167
-1165
-1166
-1165
-1165
-1165
-1169
-1171
-1163
-1139
-1112
-1078
-1024
-947
-871
-826
-810
-816
-856
-919
-1007
-1104
-1190
-1243
-1259
-1257
-1256
-1255
-1246
-1231
-1218
-1210
-1209
-1208
-1208
-1206
-1205
-1206
-1205
-1205
-1205
-1205
-1205
-1205
-1207
-1206
-1206
-1206
-1203
-1201
-1196
-1192
-1188
-1181
-1176
-1169
-1164
-1158
-1151
-1144
-1138
-1132
-1126
-1121
-1117
-1113
-1110
-1108
-1107
-1105
-1105
-1107
-1106
-1104
-1106
-1109
-1111
-1114
-1119
-1124
-1128
-1131
-1136
-1137
-1140
-1145
-1150
-1152
-1155
-1157
-1159
-1160
-1161
-1163
-1164
-1165
-1168
-1171
-1171
-1171
-1169
-1164
-1161
-1159
-1156
-1155
-1154
-1154
-1153
-1152
-1148
-1141
-1139
-1139
-1141
-1140
-1139
-1139
-1140
-1144
-1146
-1147
-1147
-1149
-1152
-1156
-1160
-1163
-1165
-1164
-1165
-1165
-1168
-1170
-1171
-1172
-1172
-1174
-1173
-1177
-1179
-1172
-1154
-1124
-1090
-1036
-958
-881
-834
-814
-813
-842
-900
-986
-1085
-1174
-1237
-1261
-1264
-1262
-1264
-1259
-1250
-1238
-1226
-1221
-1220
-1220
-1220
-1218
-1218
-1217
-1216
-1215
-1213
-1216
-1216
-1214
-1209
-1208
-1207
-1204
-1202
-1199
-1196
-1191
-1185
-1180
-1176
-1168
-1164
-1155
-1150
-1144
-1138
-1132
-1128
-1125
-1122
-1121
-1121
-1119
-1119
-1117
-1117
-1117
-1117
-1119
-1124
-1128
-1131
-1133
-1137
-1140
-1143
-1146
-1150
-1154
-1157
-1161
-1167
-1166
-1165
-1166
-1170
-1172
-1170
-1169
-1169
-1168
-1168
-1167
-1168
-1168
-1168
-1168
-1164
-1160
-1156
-1156
-1155
-1155
-1156
-1153
-1147
-1142
-1138
-1136
-1139
-1140
-1139
-1140
-1141
-1144
-1147
-1150
-1153
-1156
-1160
-1163
-1169
-1174
-1177
-1177
-1177
-1178
-1181
-1182
-1181
-1180
-1179
-1179
-1176
-1177
-1182
-1179
-1157
-1125
-1093
-1039
-966
-890
-838
-816
-812
-839
-890
-968
-1056
-1148
-1223
-1260
-1264
-1263
-1262
-1260
-1254
-1243
-1232
-1227
-1227
-1224
-1225
-1223
-1223
-1223
-1223
-1220
-1217
-1217
-1216
-1217
-1217
-1215
-1212
-1210
-1209
-1206
-1203
-1200
-1196
-1190
-1184
-1177
-1170
-1165
-1158
-1152
-1144
-1138
-1133
-1127
-1122
-1121
-1120
-1119
-1119
-1120
-1118
-1121
-1120
-1122
-1125
-1129
-1132
-1135
-1138
-1139
-1143
-1147
-1149
-1152
-1156
-1160
-1162
-1164
-1165
-1168
-1168
-1168
-1169
-1171
-1171
-1172
-1171
-1171
-1170
-1171
-1169
-1168
-1165
-1162
-1161
-1157
-1156
-1155
-1154
-1154
-1149
-1142
-1136
-1132
-1130
-1129
-1129
-1129
-1130
-1133
-1137
-1139
-1142
-1147
-1149
-1155
-1160
-1163
-1162
-1163
-1165
-1166
-1167
-1166
-1168
-1167
-1168
-1168
-1169
-1171
-1175
-1175
-1159
-1132
-1104
-1060
-994
-912
-846
-809
-799
-809
-854
-924
-1013
-1111
-1193
-1245
-1253
-1253
-1253
-1252
-1244
-1233
-1222
-1213
-1214
-1213
-1212
-1210
-1209
-1208
-1208
-1206
-1206
-1207
-1207
-1206
-1205
-1206
-1205
-1204
-1203
-1201
-1199
-1196
-1192
-1189
-1184
-1177
-1171
-1164
-1157
-1150
-1144
-1138
-1131
-1128
-1126
-1122
-1120
-1116
-1113
-1112
-1112
-1114
-1114
-1115
-1118
-1120
-1123
-1126
-1129
-1132
-1133
-1136
-1139
-1140
-1144
-1147
-1150
-1152
-1153
-1154
-1156
-1158
-1159
-1160
-1161
-1162
-1163
-1163
-1161
-1163
-1162
-1163
-1163
-1162
-1162
-1159
-1156
-1153
-1150
-1149
-1148
-1148
-1145
-1140
-1136
-1132
-1131
-1132
-1130
-1128
-1128
-1131
-1134
-1136
-1140
-1143
-1146
-1151
-1155
-1160
-1164
-1167
-1165
-1165
-1165
-1164
-1163
-1164
-1164
-1164
-1164
-1163
-1165
-1169
-1168
-1150
-1125
-1100
-1058
-992
-912
-846
-812
-803
-821
-867
-939
-1028
-1124
-1201
-1246
-1253
-1252
-1252
-1250
-1240
-1228
-1217
-1210
-1209
-1208
-1206
-1206
-1205
-1203
-1203
-1203
-1203
-1201
-1203
-1203
-1202
-1201
-1199
-1195
-1193
-1191
-1188
-1184
-1180
-1174
-1167
-1162
-1155
-1148
-1140
-1134
-1127
-1121
-1116
-1111
-1106
-1104
-1101
-1098
-1097
-1097
-1099
-1099
-1099
-1101
-1105
-1107
-1109
-1114
-1118
-1120
-1125
-1128
-1132
-1134
-1137
-1140
-1144
-1147
-1149
-1151
-1152
-1152
-1152
-1155
-1153
-1154
-1155
-1154
-1153
-1154
-1154
-1153
-1154
-1152
-1151
-1146
-1144
-1144
-1142
-1143
-1142
-1139
-1134
-1130
-1125
-1123
-1125
-1125
-1124
-1124
-1127
-1132
-1134
-1136
-1139
-1143
-1148
-1151
-1156
-1160
-1162
-1162
-1162
-1164
-1165
-1166
-1164
-1166
-1167
-1166
-1167
-1172
-1173
-1160
-1135
-1108
-1074
-1016
-935
-862
-819
-803
-809
-850
-914
-1002
-1098
-1185
-1240
-1259
-1259
-1259
-1259
-1253
-1240
-1226
-1215
-1211
-1211
-1208
-1207
-1208
-1209
-1208
-1207
-1208
-1207
-1207
-1206
-1207
-1208
-1208
-1206
-1203
-1201
-1200
-1196
-1192
-1186
-1181
-1176
-1168
-1160
-1152
-1146
-1139
-1134
-1129
-1122
-1116
-1113
-1110
-1109
-1108
-1106
-1106
-1107
-1109
-1111
-1114
-1117
-1122
-1125
-1128
-1130
-1133
-1136
-1141
-1144
-1147
-1151
-1156
-1158
-1160
-1163
-1165
-1167
-1167
-1168
-1168
-1167
-1168
-1168
-1170
-1171
-1173
-1172
-1170
-1169
-1166
-1163
-1160
-1158
-1157
-1156
-1153
-1151
-1145
-1139
-1134
-1135
-1134
-1133
-1134
-1136
-1137
-1139
-1144
-1146
-1150
-1155
-1157
-1164
-1168
-1169
-1171
-1170
-1172
-1174
-1174
-1175
-1176
-1177
-1179
-1178
-1180
-1182
-1178
-1157
-1131
-1100
-1050
-973
-894
-840
-815
-811
-837
-890
-969
-1063
-1156
-1228
-1267
-1272
-1271
-1271
-1271
-1260
-1247
-1236
-1226
-1224
-1221
-1218
-1219
-1219
-1218
-1219
-1219
-1220
-1219
-1216
-1215
-1214
-1213
-1212
-1212
-1210
-1207
-1204
-1201
-1199
-1195
-1192
-1184
-1177
-1171
-1164
-1157
-1151
-1147
-1144
-1141
-1138
-1134
-1132
-1127
-1124
-1122
-1122
-1124
-1128
-1130
-1130
-1134
-1138
-1140
-1142
-1144
-1148
-1150
-1155
-1160
-1161
-1164
-1165
-1167
-1171
-1172
-1174
-1177
-1176
-1176
-1177
-1179
-1181
-1182
-1184
-1182
-1179
-1178
-1178
-1176
-1174
-1173
-1173
-1171
-1172
-1168
-1164
-1160
-1155
-1150
-1148
-1148
-1148
-1149
-1149
-1149
-1149
-1152
-1155
-1156
-1161
-1168
-1175
-1181
-1184
-1186
-1185
-1184
-1182
-1183
-1182
-1180
-1181
-1182
-1182
-1184
-1188
-1185
-1171
-1144
-1115
-1072
-1003
-923
-855
-817
-805
-816
-862
-930
-1022
-1117
-1201
-1257
-1273
-1272
-1271
-1272
-1267
-1257
-1250
-1240
-1235
-1233
-1233
-1232
-1232
-1231
-1230
-1229
-1228
-1228
-1228
-1228
-1229
-1230
-1228
-1228
-1226
-1224
-1219
-1216
-1214
-1207
-1201
-1195
-1188
-1184
-1174
-1164
-1162
-1157
-1154
-1148
-1141
-1136
-1134
-1131
-1131
-1131
-1134
-1136
-1138
-1141
-1147
-1146
-1145
-1143
-1148
-1154
-1158
-1160
-1164
-1166
-1167
-1172
-1177
-1182
-1182
-1183
-1182
-1182
-1183
-1184
-1188
-1187
-1188
-1184
-1185
-1185
-1187
-1187
-1184
-1183
-1178
-1176
-1172
-1169
-1169
-1171
-1170
-1168
-1161
-1154
-1150
-1148
-1147
-1146
-1145
-1147
-1150
-1154
-1157
-1157
-1161
-1164
-1172
-1176
-1181
-1188
-1190
-1187
-1184
-1181
-1181
-1183
-1183
-1182
-1180
-1183
-1186
-1192
-1192
-1183
-1155
-1127
-1084
-1025
-947
-870
-821
-803
-805
-847
-904
-990
-1083
-1168
-1233
-1264
-1264
-1262
-1259
-1255
-1253
-1245
-1236
-1231
-1229
-1224
-1223
-1218
-1223
-1224
-1220
-1224
-1224
-1220
-1217
-1220
-1217
-1220
-1221
-1215
-1210
-1207
-1205
-1206
-1201
-1195
-1188
-1183
-1174
-1165
-1163
-1161
-1153
-1146
-1137
-1132
-1126
-1128
-1122
-1119
-1123
-1122
-1125
-1124
-1124
-1129
-1132
-1133
-1135
-1138
-1144
-1148
-1154
-1156
-1157
-1159
-1159
-1162
-1165
-1172
-1173
-1175
-1176
-1179
-1180
-1179
-1178
-1179
-1177
-1176
-1175
-1174
-1176
-1176
-1176
-1176
-1173
-1174
-1166
-1170
-1168
-1168
-1164
-1157
-1156
-1156
-1152
-1147
-1152
-1154
-1150
-1149
-1145
-1148
-1152
-1156
-1161
-1166
-1168
-1171
-1174
-1177
-1176
-1173
-1174
-1174
-1174
-1172
-1168
-1169
-1171
-1176
-1178
-1174
-1151
-1125
-1093
-1040
-959
-880
-823
-796
-794
-828
-880
-961
-1056
-1144
-1215
-1249
-1248
-1248
-1245
-1244
-1239
-1228
-1220
-1215
-1214
-1214
-1213
-1212
-1211
-1209
-1208
-1204
-1203
-1204
-1203
-1202
-1202
-1201
-1203
-1200
-1195
-1191
-1188
-1184
-1179
-1175
-1169
-1163
-1155
-1149
-1144
-1137
-1134
-1126
-1120
-1115
-1110
-1107
-1106
-1106
-1108
-1108
-1108
-1109
-1108
-1110
-1115
-1118
-1122
-1126
-1129
-1131
-1134
-1136
-1138
-1141
-1142
-1145
-1146
-1147
-1148
-1149
-1152
-1152
-1153
-1154
-1154
-1154
-1154
-1154
-1153
-1152
-1151
-1152
-1150
-1149
-1146
-1141
-1138
-1138
-1138
-1136
-1137
-1137
-1134
-1127
-1121
-1120
-1120
-1119
-1120
-1120
-1121
-1123
-1124
-1126
-1129
-1132
-1136
-1141
-1147
-1149
-1152
-1151
-1152
-1152
-1152
-1150
-1152
-1152
-1152
-1149
-1149
-1153
-1154
-1143
-1117
-1087
-1048
-985
-905
-833
-794
-779
-790
-835
-899
-985
-1078
-1163
-1218
-1232
-1229
-1228
-1226
-1220
-1212
-1203
-1198
-1196
-1196
-1196
-1196
-1196
-1196
-1196
-1196
-1194
-1194
-1194
-1193
-1194
-1192
-1192
-1192
-1191
-1187
-1185
-1180
-1176
-1172
-1168
-1161
-1155
-1150
-1143
-1136
-1132
-1124
-1118
-1112
-1106
-1103
-1100
-1096
-1096
-1093
-1092
-1092
-1093
-1095
-1096
-1099
-1100
-1106
-1110
-1114
-1118
-1123
-1127
-1129
-1131
-1133
-1135
-1136
-1138
-1139
-1141
-1143
-1143
-1144
-1145
-1147
-1148
-1150
-1152
-1152
-1152
-1152
-1152
-1152
-1151
-1150
-1147
-1143
-1139
-1136
-1133
-1133
-1132
-1132
-1130
-1128
-1121
-1116
-1114
-1114
-1115
-1115
-1115
-1117
-1120
-1123
-1126
-1128
-1134
-1139
-1144
-1148
-1153
-1155
-1155
-1155
-1155
-1156
-1155
-1153
-1153
-1152
-1152
-1153
-1157
-1160
-1153
-1132
-1104
-1072
-1016
-935
-855
-805
-786
-786
-818
-876
-962
-1058
-1149
-1212
-1234
-1234
-1234
-1234
-1227
-1216
-1205
-1198
-1198
-1199
-1198
-1196
-1196
-1196
-1196
-1197
-1196
-1197
-1197
-1196
-1194
-1194
-1192
-1191
-1190
-1188
-1187
-1184
-1179
-1176
-1170
-1165
-1158
-1152
-1144
-1138
-1130
-1124
-1119
-1114
-1110
-1105
-1100
-1095
-1092
-1091
-1090
-1090
-1091
-1093
-1094
-1098
-1100
-1103
-1105
-1108
-1111
-1116
-1121
-1124
-1128
-1131
-1134
-1138
-1142
-1144
-1147
-1148
-1149
-1150
-1151
-1151
-1152
-1152
-1150
-1150
-1149
-1149
-1149
-1149
-1150
-1150
-1148
-1145
-1142
-1139
-1136
-1136
-1135
-1134
-1132
-1131
-1126
-1120
-1117
-1118
-1119
-1117
-1116
-1120
-1121
-1126
-1129
-1132
-1137
-1143
-1147
-1152
-1154
-1156
-1156
-1158
-1160
-1160
-1160
-1160
-1161
-1161
-1161
-1163
-1166
-1165
-1150
-1124
-1096
-1053
-985
-906
-841
-808
-800
-819
-866
-939
-1030
-1124
-1201
-1246
-1256
-1254
-1255
-1254
-1246
-1234
-1222
-1212
-1207
-1207
-1205
-1204
-1204
-1204
-1204
-1203
-1203
-1204
-1202
-1201
-1201
-1202
-1201
-1200
-1199
-1196
-1195
-1193
-1191
-1186
-1183
-1176
-1170
-1164
-1159
-1152
-1146
-1140
-1134
-1129
-1124
-1118
-1114
-1110
-1108
-1109
-1108
-1110
-1111
-1112
-1114
-1115
-1117
-1119
-1120
-1124
-1129
-1131
-1134
-1138
-1141
-1143
-1146
-1148
-1152
-1153
-1155
-1158
-1162
-1163
-1163
-1163
-1164
-1167
-1167
-1168
-1168
-1168
-1165
-1164
-1164
-1165
-1162
-1160
-1158
-1156
-1155
-1154
-1154
-1152
-1145
-1137
-1132
-1132
-1132
-1135
-1136
-1135
-1134
-1134
-1141
-1140
-1144
-1149
-1154
-1160
-1167
-1169
-1172
-1173
-1176
-1172
-1170
-1168
-1166
-1164
-1165
-1164
-1167
-1174
-1175
-1156
-1127
-1096
-1051
-980
-901
-841
-812
-807
-827
-880
-958
-1054
-1150
-1224
-1259
-1262
-1260
-1256
-1255
-1248
-1236
-1224
-1215
-1216
-1213
-1212
-1210
-1212
-1211
-1212
-1210
-1209
-1210
-1211
-1214
-1214
-1213
-1211
-1208
-1207
-1204
-1198
-1193
-1189
-1182
-1176
-1174
-1168
-1161
-1154
-1147
-1141
-1136
-1132
-1125
-1120
-1116
-1116
-1117
-1114
-1112
-1110
-1108
-1112
-1117
-1120
-1123
-1124
-1124
-1131
-1136
-1137
-1138
-1141
-1143
-1144
-1148
-1152
-1154
-1158
-1160
-1163
-1164
-1165
-1167
-1168
-1169
-1170
-1168
-1168
-1167
-1164
-1161
-1164
-1160
-1154
-1153
-1151
-1146
-1145
-1147
-1145
-1143
-1136
-1128
-1122
-1126
-1130
-1129
-1127
-1128
-1128
-1132
-1136
-1140
-1146
-1150
-1155
-1163
-1167
-1168
-1167
-1168
-1168
-1170
-1172
-1171
-1170
-1169
-1170
-1170
-1175
-1180
-1176
-1157
-1128
-1097
-1048
-978
-898
-841
-813
-806
-828
-876
-952
-1042
-1132
-1208
-1253
-1258
-1256
-1255
-1255
-1247
-1236
-1225
-1217
-1215
-1216
-1216
-1215
-1213
-1214
-1214
-1214
-1214
-1214
-1213
-1212
-1212
-1210
-1210
-1209
-1209
-1207
-1204
-1200
-1193
-1188
-1183
-1177
-1172
-1167
-1161
-1156
-1148
-1142
-1138
-1132
-1127
-1124
-1122
-1118
-1115
-1112
-1113
-1115
-1115
-1114
-1116
-1120
-1121
-1124
-1128
-1131
-1134
-1137
-1139
-1143
-1145
-1146
-1150
-1151
-1154
-1158
-1160
-1161
-1164
-1165
-1166
-1166
-1165
-1164
-1165
-1164
-1162
-1159
-1157
-1153
-1151
-1148
-1146
-1146
-1145
-1144
-1140
-1133
-1132
-1131
-1131
-1129
-1131
-1130
-1131
-1133
-1133
-1134
-1136
-1138
-1140
-1145
-1150
-1155
-1159
-1160
-1161
-1162
-1163
-1163
-1162
-1163
-1164
-1165
-1165
-1168
-1170
-1163
-1144
-1117
-1085
-1031
-952
-874
-824
-803
-802
-833
-888
-969
-1062
-1153
-1221
-1251
-1250
-1249
-1249
-1244
-1236
-1225
-1216
-1213
-1212
-1212
-1211
-1211
-1211
-1210
-1210
-1209
-1206
-1207
-1207
-1206
-1205
-1206
-1205
-1204
-1203
-1202
-1200
-1196
-1192
-1186
-1181
-1175
-1169
-1161
-1157
-1151
-1145
-1140
-1137
-1132
-1128
-1123
-1120
-1116
-1113
-1112
-1112
-1111
-1111
-1112
-1114
-1117
-1120
-1122
-1125
-1129
-1133
-1136
-1140
-1144
-1144
-1148
-1151
-1152
-1153
-1155
-1154
-1155
-1156
-1157
-1158
-1157
-1159
-1158
-1160
-1158
-1158
-1156
-1153
-1151
-1148
-1146
-1145
-1144
-1145
-1143
-1138
-1134
-1132
-1132
-1134
-1133
-1131
-1131
-1133
-1133
-1138
-1138
-1141
-1144
-1149
-1154
-1160
-1163
-1165
-1168
-1168
-1169
-1169
-1170
-1169
-1169
-1169
-1169
-1172
-1175
-1172
-1150
-1123
-1095
-1048
-975
-897
-838
-810
-806
-830
-880
-951
-1040
-1132
-1207
-1249
-1257
-1257
-1257
-1254
-1245
-1232
-1222
-1216
-1216
-1217
-1216
-1214
-1214
-1213
-1214
-1213
-1213
-1212
-1214
-1212
-1212
-1211
-1211
-1209
-1207
-1206
-1204
-1200
-1197
-1194
-1189
-1184
-1177
-1170
-1163
-1154
-1146
-1140
-1135
-1128
-1122
-1118
-1116
-1114
-1112
-1109
-1110
-1108
-1108
-1109
-1112
-1115
-1117
-1123
-1127
-1130
-1134
-1137
-1142
-1145
-1150
-1152
-1156
-1158
-1160
-1162
-1164
-1165
-1166
-1168
-1168
-1171
-1170
-1170
-1170
-1170
-1169
-1168
-1166
-1163
-1161
-1159
-1158
-1156
-1156
-1155
-1153
-1147
-1140
-1135
-1133
-1134
-1133
-1132
-1132
-1133
-1134
-1138
-1140
-1144
-1146
-1150
-1154
-1160
-1164
-1165
-1165
-1167
-1168
-1169
-1170
-1171
-1171
-1172
-1172
-1172
-1176
-1178
-1168
-1146
-1120
-1088
-1032
-956
-880
-833
-813
-815
-851
-911
-995
-1088
-1177
-1238
-1265
-1265
-1264
-1264
-1259
-1247
-1232
-1220
-1214
-1213
-1213
-1212
-1210
-1208
-1208
-1208
-1208
-1208
-1208
-1209
-1208
-1207
-1207
-1207
-1205
-1202
-1200
-1198
-1194
-1190
-1188
-1184
-1178
-1170
-1165
-1157
-1151
-1146
-1140
-1136
-1129
-1125
-1121
-1118
-1114
-1112
-1111
-1109
-1109
-1109
-1110
-1112
-1113
-1116
-1120
-1122
-1127
-1129
-1130
-1134
-1138
-1141
-1144
-1145
-1148
-1150
-1152
-1153
-1155
-1157
-1157
-1158
-1160
-1160
-1161
-1160
-1160
-1160
-1157
-1154
-1152
-1150
-1148
-1147
-1147
-1146
-1144
-1141
-1137
-1132
-1129
-1128
-1129
-1127
-1126
-1127
-1129
-1132
-1133
-1137
-1139
-1144
-1149
-1155
-1160
-1162
-1164
-1164
-1163
-1163
-1164
-1163
-1163
-1163
-1163
-1163
-1165
-1169
-1164
-1144
-1118
-1088
-1038
-963
-889
-837
-815
-814
-844
-896
-975
-1064
-1156
-1227
-1263
-1265
-1264
-1264
-1261
-1251
-1237
-1224
-1216
-1214
-1214
-1212
-1210
-1210
-1209
-1208
-1208
-1209
-1209
-1209
-1208
-1208
-1208
-1207
-1206
-1204
-1202
-1198
-1193
-1189
-1184
-1178
-1173
-1168
-1161
-1155
-1150
-1143
-1137
-1132
-1129
-1125
-1121
-1117
-1114
-1111
-1109
-1108
-1109
-1111
-1112
-1114
-1116
-1119
-1120
-1124
-1126
-1129
-1134
-1136
-1140
-1144
-1147
-1150
-1154
-1155
-1156
-1159
-1161
-1162
-1164
-1166
-1167
-1166
-1165
-1164
-1164
-1162
-1159
-1155
-1152
-1148
-1146
-1144
-1144
-1144
-1141
-1137
-1132
-1127
-1125
-1126
-1126
-1125
-1125
-1127
-1128
-1131
-1136
-1138
-1142
-1149
-1154
-1159
-1162
-1165
-1166
-1166
-1168
-1168
-1167
-1169
-1168
-1168
-1168
-1168
-1171
-1175
-1168
-1147
-1120
-1092
-1045
-972
-894
-840
-816
-814
-840
-892
-968
-1059
-1151
-1223
-1258
-1263
-1261
-1260
-1257
-1248
-1235
-1222
-1214
-1212
-1212
-1211
-1209
-1208
-1210
-1209
-1210
-1211
-1212
-1211
-1211
-1211
-1210
-1208
-1207
-1204
-1201
-1198
-1196
-1192
-1188
-1182
-1177
-1170
-1163
-1156
-1150
-1145
-1141
-1135
-1128
-1125
-1121
-1118
-1114
-1109
-1108
-1106
-1106
-1106
-1107
-1109
-1112
-1115
-1118
-1121
-1124
-1129
-1133
-1136
-1138
-1143
-1148
-1150
-1152
-1153
-1156
-1157
-1160
-1162
-1166
-1168
-1170
-1168
-1169
-1168
-1167
-1167
-1165
-1163
-1160
-1156
-1154
-1153
-1152
-1151
-1149
-1146
-1144
-1138
-1132
-1130
-1130
-1131
-1131
-1133
-1132
-1131
-1132
-1136
-1138
-1143
-1150
-1155
-1161
-1164
-1165
-1165
-1166
-1167
-1168
-1168
-1168
-1168
-1170
-1168
-1169
-1173
-1176
-1169
-1148
-1121
-1088
-1034
-962
-885
-835
-815
-815
-846
-901
-983
-1077
-1167
-1233
-1264
-1267
-1266
-1264
-1264
-1255
-1242
-1227
-1220
-1218
-1218
-1218
-1216
-1217
-1215
-1212
-1212
-1211
-1213
-1213
-1212
-1210
-1209
-1207
-1205
-1203
-1201
-1198
-1198
-1195
-1189
-1184
-1177
-1170
-1162
-1156
-1152
-1144
-1139
-1136
-1133
-1130
-1128
-1125
-1120
-1118
-1119
-1117
-1119
-1120
-1120
-1124
-1123
-1124
-1127
-1130
-1134
-1140
-1144
-1145
-1147
-1148
-1152
-1155
-1158
-1160
-1159
-1161
-1163
-1166
-1168
-1167
-1168
-1170
-1170
-1168
-1164
-1166
-1162
-1159
-1156
-1154
-1152
-1151
-1150
-1150
-1150
-1145
-1140
-1138
-1136
-1135
-1134
-1134
-1133
-1136
-1136
-1139
-1144
-1149
-1153
-1155
-1157
-1161
-1164
-1167
-1168
-1171
-1172
-1174
-1171
-1173
-1171
-1171
-1171
-1172
-1174
-1179
-1176
-1164
-1141
-1116
-1077
-1018
-941
-868
-825
-810
-816
-850
-908
-992
-1083
-1172
-1237
-1260
-1261
-1260
-1260
-1256
-1248
-1238
-1228
-1224
-1228
-1227
-1224
-1220
-1220
-1219
-1220
-1221
-1221
-1221
-1221
-1218
-1217
-1216
-1215
-1213
-1209
-1208
-1208
-1205
-1201
-1196
-1192
-1187
-1179
-1174
-1164
-1156
-1151
-1145
-1139
-1133
-1128
-1124
-1126
-1124
-1122
-1120
-1120
-1121
-1124
-1125
-1127
-1128
-1130
-1134
-1136
-1139
-1142
-1149
-1153
-1156
-1159
-1160
-1160
-1162
-1164
-1168
-1168
-1169
-1170
-1171
-1172
-1173
-1174
-1174
-1173
-1172
-1172
-1170
-1168
-1163
-1160
-1159
-1158
-1157
-1154
-1150
-1142
-1136
-1132
-1129
-1129
-1131
-1129
-1128
-1129
-1132
-1134
-1136
-1137
-1140
-1144
-1148
-1152
-1157
-1160
-1161
-1162
-1163
-1163
-1165
-1166
-1165
-1165
-1166
-1166
-1171
-1171
-1160
-1134
-1105
-1067
-1001
-922
-854
-816
-803
-813
-856
-920
-1011
-1108
-1191
-1243
-1251
-1248
-1247
-1247
-1240
-1227
-1215
-1205
-1202
-1203
-1203
-1203
-1202
-1203
-1202
-1202
-1203
-1202
-1203
-1201
-1203
-1203
-1203
-1201
-1200
-1197
-1196
-1195
-1194
-1189
-1185
-1180
-1175
-1169
-1163
-1156
-1148
-1142
-1135
-1130
-1127
-1124
-1119
-1116
-1112
-1112
-1110
-1108
-1110
-1111
-1112
-1114
-1118
-1121
-1123
-1124
-1126
-1128
-1129
-1131
-1133
-1137
-1140
-1142
-1144
-1147
-1150
-1152
-1152
-1155
-1157
-1157
-1158
-1157
-1158
-1159
-1160
-1160
-1158
-1155
-1152
-1149
-1147
-1146
-1146
-1146
-1142
-1136
-1131
-1127
-1126
-1127
-1126
-1125
-1126
-1127
-1130
-1134
-1136
-1138
-1142
-1147
-1152
-1157
-1162
-1164
-1162
-1161
-1161
-1162
-1160
-1161
-1161
-1160
-1161
-1162
-1166
-1168
-1157
-1136
-1110
-1076
-1015
-935
-862
-819
-805
-814
-855
-921
-1009
-1108
-1192
-1240
-1253
-1252
-1251
-1247
-1236
-1222
-1211
-1207
-1206
-1207
-1207
-1207
-1206
-1205
-1206
-1207
-1207
-1206
-1206
-1205
-1204
-1203
-1201
-1200
-1197
-1196
-1194
-1190
-1185
-1183
-1177
-1172
-1165
-1159
-1152
-1144
-1138
-1131
-1125
-1119
-1115
-1112
-1111
-1109
-1105
-1104
-1103
-1102
-1105
-1106
-1106
-1110
-1112
-1117
-1120
-1124
-1128
-1132
-1137
-1139
-1142
-1144
-1146
-1151
-1153
-1159
-1163
-1165
-1165
-1165
-1165
-1166
-1166
-1167
-1166
-1163
-1160
-1157
-1155
-1152
-1152
-1150
-1153
-1152
-1148
-1146
-1140
-1136
-1132
-1131
-1130
-1129
-1130
-1132
-1132
-1135
-1139
-1140
-1144
-1147
-1153
-1160
-1164
-1166
-1168
-1169
-1168
-1168
-1168
-1170
-1171
-1169
-1168
-1168
-1175
-1177
-1169
-1148
-1118
-1084
-1027
-953
-878
-832
-814
-812
-838
-892
-975
-1069
-1157
-1222
-1255
-1258
-1260
-1260
-1257
-1248
-1232
-1220
-1214
-1216
-1214
-1211
-1212
-1214
-1212
-1211
-1213
-1212
-1215
-1214
-1214
-1214
-1214
-1212
-1210
-1211
-1210
-1205
-1200
-1196
-1192
-1186
-1180
-1175
-1169
-1160
-1153
-1148
-1142
-1138
-1133
-1131
-1126
-1125
-1124
-1123
-1118
-1119
-1118
-1117
-1118
-1119
-1120
-1121
-1127
-1133
-1136
-1139
-1144
-1146
-1149
-1152
-1157
-1160
-1163
-1167
-1168
-1172
-1170
-1169
-1170
-1171
-1174
-1173
-1175
-1174
-1174
-1174
-1172
-1168
-1168
-1164
-1160
-1160
-1157
-1157
-1155
-1148
-1143
-1139
-1139
-1137
-1135
-1134
-1137
-1138
-1143
-1147
-1149
-1151
-1154
-1160
-1170
-1175
-1174
-1175
-1174
-1169
-1168
-1174
-1172
-1174
-1174
-1171
-1171
-1177
-1181
-1176
-1157
-1129
-1092
-1036
-958
-884
-840
-820
-819
-852
-908
-992
-1081
-1168
-1234
-1262
-1262
-1256
-1259
-1260
-1252
-1241
-1232
-1227
-1227
-1224
-1223
-1224
-1223
-1222
-1226
-1226
-1225
-1225
-1224
-1220
-1223
-1220
-1216
-1215
-1211
-1207
-1204
-1202
-1198
-1194
-1188
-1184
-1178
-1170
-1161
-1157
-1150
-1149
-1143
-1136
-1132
-1128
-1131
-1133
-1134
-1130
-1130
-1129
-1129
-1133
-1137
-1137
-1140
-1143
-1147
-1149
-1152
-1156
-1160
-1160
-1161
-1167
-1169
-1173
-1176
-1180
-1180
-1178
-1178
-1181
-1179
-1176
-1174
-1174
-1173
-1173
-1169
-1166
-1165
-1167
-1163
-1163
-1160
-1157
-1152
-1150
-1146
-1139
-1138
-1138
-1138
-1139
-1140
-1141
-1142
-1146
-1149
-1153
-1156
-1161
-1166
-1169
-1169
-1170
-1169
-1169
-1172
-1172
-1172
-1172
-1171
-1173
-1171
-1174
-1177
-1176
-1163
-1136
-1108
-1067
-1000
-921
-859
-825
-814
-828
-871
-934
-1020
-1112
-1191
-1240
-1251
-1248
-1248
-1247
-1242
-1232
-1221
-1215
-1211
-1210
-1209
-1209
-1208
-1207
-1206
-1211
-1211
-1211
-1211
-1210
-1210
-1209
-1208
-1208
-1206
-1204
-1200
-1199
-1197
-1191
-1185
-1180
-1175
-1167
-1160
-1153
-1147
-1142
-1136
-1131
-1128
-1124
-1121
-1116
-1112
-1109
-1107
-1108
-1107
-1108
-1110
-1113
-1116
-1118
-1120
-1123
-1125
-1129
-1132
-1135
-1138
-1140
-1144
-1145
-1148
-1150
-1151
-1154
-1156
-1158
-1160
-1160
-1160
-1159
-1159
-1158
-1157
-1154
-1150
-1147
-1145
-1143
-1142
-1141
-1140
-1138
-1133
-1128
-1124
-1122
-1124
-1124
-1124
-1123
-1124
-1126
-1127
-1127
-1128
-1132
-1138
-1144
-1151
-1156
-1157
-1157
-1157
-1158
-1157
-1156
-1156
-1156
-1158
-1158
-1158
-1161
-1161
-1149
-1124
-1096
-1057
-994
-916
-850
-816
-806
-816
-857
-923
-1011
-1107
-1187
-1236
-1244
-1245
-1245
-1244
-1234
-1223
-1212
-1205
-1205
-1205
-1203
-1204
-1204
-1203
-1202
-1203
-1202
-1203
-1201
-1201
-1200
-1200
-1199
-1200
-1199
-1196
-1194
-1191
-1188
-1184
-1178
-1173
-1166
-1160
-1152
-1146
-1139
-1133
-1127
-1122
-1118
-1115
-1110
-1106
-1105
-1101
-1101
-1101
-1101
-1103
-1103
-1105
-1109
-1112
-1115
-1118
-1122
-1125
-1129
-1133
-1137
-1139
-1143
-1144
-1146
-1149
-1151
-1152
-1151
-1152
-1151
-1151
-1152
-1152
-1152
-1152
-1151
-1149
-1144
-1142
-1139
-1139
-1136
-1138
-1136
-1133
-1129
-1123
-1120
-1121
-1122
-1122
-1122
-1121
-1124
-1125
-1128
-1131
-1134
-1138
-1142
-1148
-1152
-1156
-1158
-1158
-1160
-1161
-1162
-1162
-1163
-1163
-1162
-1161
-1164
-1167
-1164
-1145
-1117
-1086
-1043
-972
-896
-838
-811
-806
-830
-880
-953
-1045
-1138
-1209
-1246
-1250
-1250
-1250
-1246
-1236
-1223
-1212
-1207
-1206
-1207
-1206
-1206
-1204
-1205
-1205
-1205
-1206
-1206
-1205
-1206
-1205
-1204
-1202
-1202
-1200
-1198
-1196
-1194
-1189
-1184
-1177
-1172
-1165
-1159
-1152
-1146
-1139
-1131
-1126
-1120
-1116
-1112
-1109
-1107
-1104
-1103
-1102
-1103
-1104
-1104
-1105
-1107
-1110
-1114
-1120
-1122
-1125
-1127
-1132
-1137
-1139
-1144
-1147
-1151
-1152
-1154
-1156
-1159
-1160
-1160
-1160
-1160
-1161
-1162
-1161
-1162
-1162
-1162
-1160
-1155
-1151
-1150
-1149
-1147
-1146
-1144
-1142
-1134
-1127
-1122
-1123
-1123
-1122
-1123
-1124
-1126
-1128
-1132
-1135
-1139
-1143
-1149
-1156
-1161
-1163
-1164
-1167
-1168
-1169
-1167
-1165
-1167
-1168
-1167
-1166
-1168
-1171
-1164
-1143
-1117
-1087
-1037
-964
-890
-840
-818
-815
-844
-900
-982
-1077
-1166
-1230
-1260
-1260
-1258
-1259
-1255
-1247
-1234
-1221
-1213
-1210
-1208
-1209
-1209
-1208
-1208
-1209
-1210
-1208
-1207
-1206
-1206
-1207
-1207
-1208
-1205
-1204
-1202
-1199
-1194
-1191
-1184
-1180
-1174
-1168
-1164
-1157
-1152
-1144
-1140
-1134
-1128
-1123
-1120
-1117
-1115
-1115
-1111
-1110
-1108
-1109
-1111
-1112
-1113
-1117
-1120
-1123
-1127
-1128
-1132
-1134
-1139
-1144
-1148
-1152
-1152
-1155
-1157
-1159
-1159
-1163
-1164
-1165
-1164
-1164
-1166
-1166
-1163
-1161
-1160
-1159
-1157
-1153
-1150
-1151
-1153
-1154
-1150
-1148
-1141
-1135
-1130
-1133
-1134
-1131
-1129
-1128
-1130
-1136
-1140
-1143
-1144
-1148
-1154
-1160
-1166
-1168
-1171
-1174
-1174
-1171
-1170
-1171
-1172
-1172
-1172
-1172
-1170
-1175
-1176
-1165
-1137
-1109
-1079
-1021
-946
-877
-834
-818
-821
-857
-920
-1008
-1097
-1182
-1244
-1268
-1266
-1265
-1265
-1262
-1256
-1241
-1228
-1223
-1223
-1223
-1221
-1221
-1220
-1221
-1221
-1222
-1224
-1223
-1221
-1222
-1221
-1220
-1218
-1217
-1217
-1215
-1208
-1201
-1197
-1195
-1190
-1186
-1178
-1172
-1164
-1160
-1152
-1147
-1141
-1136
-1129
-1128
-1128
-1128
-1125
-1124
-1128
-1135
-1134
-1133
-1131
-1133
-1138
-1138
-1138
-1143
-1146
-1152
-1157
-1158
-1161
-1162
-1163
-1165
-1166
-1171
-1176
-1180
-1182
-1179
-1175
-1178
-1180
-1180
-1182
-1179
-1179
-1175
-1170
-1167
-1165
-1157
-1157
-1158
-1156
-1152
-1146
