6
7
6
5
4
5
6
6
6
5
4
3
2
2
2
3
4
2
0
1
2
1
0
1
1
-1
-1
1
2
1
0
0
0
-1
-2
-1
0
1
2
2
2
2
2
2
2
2
1
0
1
2
1
0
1
2
0
-2
-1
0
-1
-2
-2
-2
-4
-6
-5
-4
-4
-4
-4
-4
-4
-4
-5
-6
-6
-6
-6
-6
-6
-6
-5
-4
-5
-6
-6
-3
0
2
4
7
10
12
15
21
26
28
29
25
21
18
15
12
10
10
9
6
3
0
-3
-5
-6
-6
-6
-5
-5
-7
-9
-11
-13
-15
-16
-15
-14
-13
-12
-12
-13
-14
-13
-12
-8
-3
6
13
5
-5
-22
-31
-20
-28
-77
-135
-207
-255
-268
-276
-277
-255
-209
-188
-187
-162
-122
-94
-71
-52
-33
-21
-11
-7
-5
-3
-1
0
1
3
5
5
4
5
6
7
8
8
8
9
10
11
12
13
14
15
16
17
18
19
21
24
26
26
26
27
29
31
33
35
36
36
37
39
43
47
49
51
52
52
52
53
54
56
55
54
54
54
52
50
48
46
44
42
40
38
36
34
34
33
30
28
28
28
25
24
25
25
22
20
20
19
17
16
15
14
13
12
11
10
11
13
15
16
16
14
14
15
16
16
16
18
20
19
18
21
24
23
22
23
24
25
26
25
24
23
22
23
24
25
25
23
22
22
21
19
18
18
17
15
14
13
12
12
12
12
8
4
5
6
5
4
4
4
3
2
2
2
2
2
2
2
1
0
0
0
-1
-2
-3
-4
-4
-4
-4
-4
-3
-4
-7
-8
-7
-6
-6
-7
-9
-10
-10
-10
-9
-8
-10
-10
-10
-9
-8
-10
-12
-11
-10
-11
-12
-11
-10
-11
-12
-12
-12
-13
-14
-13
-12
-11
-10
-11
-12
-12
-13
-15
-16
-15
-14
-15
-15
-13
-12
-12
-13
-15
-15
-13
-12
-12
-14
-14
-13
-12
-13
-14
-14
-14
-14
-14
-13
-12
-13
-14
-12
-10
-12
-14
-13
-12
-12
-11
-9
-9
-12
-14
-13
-10
-7
-6
-7
-9
-11
-12
-11
-10
-9
-8
-8
-8
-9
-12
-14
-14
-14
-13
-12
-13
-14
-12
-10
-12
-14
-15
-16
-15
-14
-14
-14
-13
-12
-14
-15
-13
-12
-13
-14
-13
-12
-12
-12
-13
-14
-14
-14
-13
-13
-15
-13
-9
-6
-3
-2
-2
3
8
12
16
17
18
15
12
8
4
1
-2
-3
-6
-13
-18
-20
-22
-24
-26
-25
-24
-24
-25
-27
-28
-29
-32
-36
-38
-37
-36
-35
-34
-34
-34
-33
-32
-33
-28
-34
-12
-4
-10
-17
-37
-52
-31
-21
-62
-114
-203
-270
-278
-282
-275
-254
-211
-189
-199
-186
-147
-119
-101
-80
-57
-44
-35
-30
-26
-24
-23
-22
-21
-20
-21
-21
-19
-18
-18
-18
-19
-19
-18
-17
-16
-15
-14
-14
-14
-12
-10
-9
-8
-8
-8
-6
-4
-2
0
1
2
4
7
9
10
11
13
15
17
21
22
23
25
27
28
28
27
25
24
25
26
25
23
20
17
14
13
12
7
2
0
-2
-3
-4
-5
-6
-7
-8
-8
-8
-10
-12
-12
-12
-13
-14
-14
-14
-14
-14
-15
-16
-17
-18
-17
-16
-16
-16
-17
-17
-15
-15
-17
-18
-18
-17
-18
-17
-16
-15
-14
-14
-14
-15
-16
-15
-14
-13
-12
-11
-10
-10
-10
-9
-8
-8
-8
-8
-8
-8
-8
-7
-6
-6
-6
-5
-4
-4
-4
-5
-6
-5
-4
-4
-4
-3
-2
-2
-3
-4
-4
-4
-2
0
0
0
-1
-2
-1
0
-1
-2
0
2
1
0
0
0
0
0
1
1
-1
-2
-2
-2
-2
-2
-1
0
-1
-2
-2
-2
-1
-1
-3
-4
-2
-2
-2
-3
-4
-5
-6
-6
-6
-8
-10
-9
-8
-9
-10
-10
-10
-11
-12
-12
-12
-12
-12
-11
-10
-9
-8
-9
-10
-10
-10
-9
-8
-8
-8
-8
-7
-5
-5
-7
-8
-8
-7
-8
-8
-8
-9
-10
-8
-6
-7
-8
-7
-6
-6
-6
-6
-6
-5
-4
-4
-4
-4
-4
-3
-2
-1
0
-1
-2
-2
-2
-1
0
0
0
0
0
0
0
1
2
2
2
2
4
6
8
10
12
14
17
20
24
29
35
40
36
34
32
29
25
22
20
18
18
14
6
1
-1
-2
-2
-2
-2
-2
-1
-4
-9
-10
-10
-11
-13
-13
-11
-10
-10
-11
-12
-10
-8
-9
-9
-1
6
4
1
-4
-10
-19
-25
-22
-50
-126
-185
-220
-251
-280
-281
-257
-233
-211
-189
-168
-139
-107
-79
-53
-37
-25
-18
-11
-8
-5
-4
-4
-2
-4
3
4
4
4
4
4
5
6
9
12
10
8
9
10
11
12
14
16
16
16
19
20
21
23
25
26
26
28
32
34
35
37
39
41
43
45
47
50
53
54
53
52
52
53
54
52
50
48
46
44
42
38
34
31
28
24
22
22
22
20
18
19
19
16
14
15
16
15
13
11
10
11
12
11
10
10
10
9
8
9
10
10
10
10
9
8
9
10
12
14
15
16
17
18
19
20
21
22
22
23
26
28
28
28
31
31
29
29
31
32
32
32
32
32
32
32
33
33
31
30
29
28
28
28
28
25
24
21
18
19
20
18
16
15
14
13
12
13
13
10
8
10
12
10
8
8
8
9
9
7
7
9
10
9
8
9
9
7
7
9
9
7
7
9
9
7
8
10
9
8
8
8
8
8
8
8
8
8
7
6
8
10
9
8
8
8
8
8
8
8
8
8
8
8
8
8
8
8
9
9
7
7
9
10
9
8
9
10
8
9
10
9
8
8
8
7
6
8
10
8
6
6
6
6
6
4
2
2
2
2
2
1
0
0
-1
-3
-4
-4
-4
-3
-2
-3
-6
-9
-10
-9
-8
-8
-8
-8
-10
-10
-9
-8
-5
-2
-1
0
3
6
11
15
20
24
24
23
20
18
16
12
7
5
8
6
-2
-6
-6
-7
-9
-8
-5
-4
-3
-5
-9
-10
-11
-11
-9
-8
-7
-7
-8
-7
-6
-4
-2
-2
-1
5
10
12
12
4
-4
-12
-17
-12
-36
-107
-166
-212
-249
-275
-275
-250
-225
-200
-182
-169
-143
-111
-81
-53
-36
-23
-13
-4
-2
-2
0
3
4
6
7
8
8
8
9
10
10
10
12
14
13
13
17
20
20
20
21
22
22
22
25
26
27
29
31
32
33
36
39
40
41
42
43
46
49
51
53
54
55
56
56
55
56
56
56
54
52
50
48
44
40
37
34
31
28
27
26
24
22
22
22
21
20
20
20
19
18
18
18
18
18
18
17
15
14
13
12
13
14
15
16
15
15
16
15
14
15
16
16
16
17
18
19
20
21
22
22
22
23
24
25
26
25
24
25
26
27
28
28
28
27
26
27
28
28
28
28
28
28
27
25
25
27
27
24
25
26
25
24
23
22
20
18
18
18
18
18
18
18
16
14
15
16
14
12
11
10
11
12
12
12
12
12
12
12
13
14
13
12
13
13
11
10
11
11
12
9
10
8
6
8
10
9
8
9
10
8
6
7
8
7
6
5
4
5
6
6
6
7
6
2
1
4
6
5
4
5
5
3
3
5
5
3
2
3
4
3
3
4
3
2
3
4
3
2
3
4
5
6
4
2
3
4
4
4
4
4
3
3
5
6
5
4
4
4
3
2
2
2
3
4
3
2
2
2
2
2
2
2
4
4
4
2
0
2
4
5
6
9
12
14
16
19
24
30
34
34
31
24
19
16
13
11
11
13
9
0
-6
-9
-10
-9
-8
-8
-8
-8
-11
-15
-16
-16
-16
-16
-14
-14
-13
-12
-12
-12
-13
-14
-12
-8
1
8
5
-1
-11
-18
-16
-14
-12
-53
-145
-204
-231
-259
-287
-270
-224
-204
-198
-182
-162
-133
-103
-73
-43
-32
-25
-18
-11
-9
-7
-5
-4
-3
-2
-1
0
1
2
2
2
1
0
2
4
5
6
4
2
4
6
7
8
9
10
10
10
11
13
15
16
16
17
19
22
25
27
29
31
33
34
34
34
34
37
40
40
40
39
38
38
38
36
33
29
26
24
21
18
16
14
12
10
7
4
4
8
9
6
4
5
6
6
6
7
8
7
6
5
6
9
10
9
8
8
6
6
8
10
8
6
8
10
11
12
14
16
16
16
17
18
18
18
20
22
21
20
21
22
23
24
25
26
25
24
24
24
24
24
24
24
24
24
23
22
22
19
16
17
18
19
20
19
18
15
12
12
12
11
10
11
12
10
8
7
6
8
8
4
2
3
4
4
4
5
5
3
2
1
0
1
2
2
2
2
2
2
2
0
-1
-2
-2
-2
-2
-2
0
2
0
-2
-2
-2
-2
-2
-2
-2
-4
-6
-6
-6
-5
-4
-5
-6
-6
-6
-6
-6
-7
-8
-7
-7
-9
-10
-10
-10
-9
-9
-11
-12
-12
-9
-8
-8
-8
-10
-12
-12
-12
-13
-14
-11
-8
-10
-12
-11
-10
-9
-8
-8
-8
-11
-12
-12
-11
-9
-9
-11
-12
-13
-14
-14
-14
-15
-16
-15
-14
-15
-16
-15
-15
-17
-17
-16
-16
-16
-16
-16
-17
-18
-18
-18
-18
-18
-18
-18
-19
-20
-19
-18
-18
-18
-18
-18
-19
-19
-17
-16
-16
-15
-13
-11
-9
-7
-5
-2
1
4
7
13
19
19
17
14
10
6
2
-1
-4
-3
-3
-11
-18
-20
-22
-19
-16
-16
-16
-16
-17
-20
-22
-23
-24
-23
-22
-21
-20
-19
-18
-18
-18
-17
-16
-15
-7
4
2
-3
-16
-30
-27
-21
-26
-20
-126
-214
-230
-246
-269
-284
-237
-198
-197
-192
-171
-148
-118
-89
-60
-39
-30
-23
-19
-15
-12
-10
-9
-8
-7
-6
-6
-5
-3
-2
-3
-3
-1
0
0
0
0
0
1
2
2
4
6
6
6
7
8
8
8
10
12
12
12
14
16
17
19
22
24
25
26
27
28
29
31
33
34
33
32
31
30
30
28
25
20
15
13
11
8
5
2
-1
-2
-4
-4
-4
-5
-6
-8
-10
-11
-12
-12
-12
-12
-12
-13
-14
-15
-16
-15
-14
-16
-18
-17
-16
-15
-14
-14
-14
-14
-14
-13
-12
-12
-10
-7
-7
-9
-10
-9
-8
-7
-6
-6
-4
-4
-2
0
2
4
2
0
1
2
2
2
3
4
4
4
4
4
4
4
3
1
-1
-2
-3
-4
-4
-4
-5
-6
-7
-8
-9
-10
-11
-12
-13
-14
-15
-16
-17
-17
-16
-17
-18
-18
-18
-19
-20
-20
-20
-23
-26
-24
-22
-22
-22
-23
-24
-26
-28
-28
-28
-27
-27
-29
-30
-30
-30
-31
-32
-31
-30
-30
-30
-30
-30
-30
-30
-30
-30
-30
-30
-32
-30
-28
-29
-30
-30
-30
-29
-28
-27
-26
-27
-28
-27
-26
-25
-24
-24
-24
-25
-26
-25
-24
-24
-24
-25
-26
-25
-24
-24
-24
-23
-23
-25
-25
-23
-22
-22
-22
-21
-21
-20
-24
-24
-25
-26
-25
-24
-26
-28
-27
-26
-27
-28
-28
-28
-28
-28
-29
-30
-29
-28
-28
-28
-28
-27
-25
-23
-21
-18
-15
-12
-8
-4
-1
2
5
4
1
-5
-11
-12
-12
-13
-14
-15
-16
-22
-28
-28
-28
-28
-28
-28
-28
-30
-32
-34
-37
-40
-42
-40
-38
-37
-36
-36
-36
-35
-34
-34
-33
-31
-25
-17
-18
-24
-38
-55
-49
-38
-61
-89
-169
-253
-265
-276
-296
-313
-258
-208
-213
-212
-174
-138
-118
-97
-74
-55
-45
-36
-30
-26
-25
-24
-23
-22
-22
-21
-19
-18
-18
-18
-17
-15
-13
-12
-11
-10
-9
-8
-8
-7
-5
-4
-3
-2
-2
1
2
5
8
8
8
10
12
14
16
17
18
20
22
24
26
27
28
29
30
33
34
34
34
34
33
31
29
27
25
23
22
21
16
11
10
9
7
5
4
4
3
2
2
2
3
4
4
4
3
2
3
4
3
2
1
0
1
2
1
0
0
0
0
1
3
4
4
4
5
6
5
6
9
10
11
12
12
13
15
16
17
18
18
21
24
24
24
23
22
24
26
25
24
26
28
27
26
26
26
25
24
23
22
22
21
19
18
19
19
17
16
16
16
15
14
14
14
13
12
12
11
9
8
8
10
10
9
8
8
8
7
6
6
6
6
6
5
4
4
4
5
6
4
2
3
4
3
3
5
5
2
1
3
3
1
0
0
0
1
2
2
2
3
4
4
4
4
4
4
4
4
3
2
4
6
5
4
6
8
4
3
6
8
8
8
7
6
5
5
7
8
7
6
6
6
7
8
7
6
7
6
3
4
7
8
7
6
8
7
6
6
6
5
4
5
6
5
4
4
4
5
6
5
4
5
6
5
4
7
7
4
3
6
8
8
10
13
15
17
20
23
28
33
34
35
34
31
26
30
19
18
17
16
13
10
3
-2
-3
-4
-3
-2
-1
-1
-4
-6
-8
-10
-12
-13
-10
-8
-8
-8
-7
-6
-6
-6
-6
-4
0
7
14
12
7
-9
-27
-20
-9
-45
-85
-162
-238
-253
-268
-276
-278
-222
-176
-182
-178
-137
-100
-77
-54
-32
-15
-6
1
5
8
9
12
16
18
18
18
19
20
19
20
24
26
25
24
24
24
25
27
29
30
31
32
32
34
36
37
38
39
40
40
40
44
48
49
50
52
54
55
56
58
60
61
62
65
66
66
65
63
62
61
58
55
53
51
48
45
43
41
36
31
29
27
26
26
23
22
21
20
21
22
22
22
21
20
19
18
19
20
19
18
18
18
17
16
17
19
21
21
18
17
20
22
21
21
23
24
24
24
25
26
27
28
28
28
29
30
30
31
32
31
30
31
32
33
34
34
34
33
32
31
30
30
30
30
30
28
26
26
26
25
23
21
20
20
20
19
18
17
16
15
14
15
15
13
12
12
12
10
10
10
9
8
7
6
6
6
6
6
7
8
8
8
9
10
9
8
8
8
8
8
9
10
9
9
11
12
11
10
10
10
10
10
10
10
9
8
9
10
10
9
8
10
12
11
10
11
12
9
6
8
10
8
6
6
6
5
4
4
4
4
4
3
2
2
2
3
4
3
2
2
2
1
0
0
0
1
0
-3
-3
-1
-1
-2
-2
-2
-3
-4
-4
-4
-3
-2
-3
-4
-3
-2
-3
-4
-2
-1
-4
-5
-2
-1
-3
-4
-3
-3
-5
-5
-3
-2
-2
-2
-3
-2
1
3
5
7
9
12
15
18
22
28
34
36
38
33
28
25
22
19
16
16
15
10
5
1
-2
-1
0
-2
-3
0
0
-4
-6
-7
-9
-12
-12
-9
-8
-8
-8
-7
-6
-7
-8
-7
-4
-1
11
0
16
8
-10
-25
-11
-1
-23
-60
-157
-234
-243
-254
-269
-263
-211
-180
-187
-176
-137
-107
-86
-64
-39
-23
-14
-9
-7
-6
-5
-3
-1
1
3
4
5
5
3
3
5
6
7
9
10
9
8
12
16
15
14
17
20
21
22
20
19
24
28
29
30
31
33
37
40
41
42
43
45
48
50
50
50
51
52
51
50
51
50
47
46
47
43
37
36
34
31
28
23
18
17
16
13
10
11
12
12
12
12
12
11
10
11
12
12
12
9
8
7
7
9
10
9
8
8
8
8
8
7
6
7
8
8
9
11
12
12
13
14
13
12
15
18
18
18
19
20
19
18
21
24
24
24
22
20
22
24
24
24
25
26
25
24
24
24
23
22
23
24
23
22
21
20
19
17
15
14
15
14
12
11
10
9
8
9
10
8
6
5
4
2
0
0
0
0
0
1
1
-2
-4
-3
-2
-2
-2
-1
0
-1
-2
-3
-4
-4
-4
-4
-4
-5
-6
-7
-7
-5
-5
-8
-7
-6
-8
-10
-8
-6
-7
-8
-8
-8
-9
-10
-9
-8
-7
-6
-7
-8
-8
-8
-7
-6
-6
-6
-6
-6
-5
-4
-5
-6
-5
-4
-5
-6
-5
-4
-5
-6
-5
-4
-4
-5
-4
-3
-2
-4
-6
-5
-4
-5
-6
-5
-4
-5
-6
-6
-6
-6
-6
-6
-6
-6
-5
-3
-2
-3
-3
-1
0
-1
-1
1
2
1
0
1
2
3
4
5
6
5
5
6
7
8
7
6
8
10
9
8
10
12
12
12
14
16
18
21
24
27
30
32
33
36
40
41
38
33
28
24
21
20
20
19
17
11
5
2
-1
0
3
3
0
1
2
-1
-4
-6
-8
-6
-4
-4
-4
-3
-2
-1
0
-1
-2
0
6
16
19
10
-3
-20
-23
-12
-26
-56
-122
-206
-237
-247
-263
-280
-238
-181
-178
-185
-152
-114
-89
-112
-41
-18
-9
0
4
8
9
10
10
10
11
12
15
18
18
18
17
16
17
18
19
20
21
22
21
21
23
24
25
26
26
27
29
30
29
31
35
36
36
37
39
42
44
45
46
48
50
50
50
53
56
55
54
55
56
55
54
54
53
50
47
44
41
38
36
35
33
30
27
25
24
24
24
23
22
22
22
21
20
20
20
19
18
20
19
18
19
20
19
18
17
16
17
18
18
18
18
18
19
20
21
22
22
22
23
24
24
25
27
28
28
29
31
32
32
33
35
36
35
35
37
38
38
38
38
37
36
35
34
35
36
34
32
32
32
31
30
29
28
28
28
28
28
27
26
26
26
25
24
23
22
23
24
23
22
22
21
19
19
21
21
19
18
18
18
18
17
16
15
14
15
16
15
14
14
14
14
14
14
14
14
14
12
10
10
10
10
10
10
10
11
12
11
10
9
8
8
8
8
8
8
8
7
6
7
8
7
6
8
8
8
7
6
7
8
6
4
6
8
6
4
5
6
5
4
5
6
5
4
5
5
3
2
3
4
4
4
3
2
3
4
3
2
2
2
1
0
1
2
2
0
0
-1
-2
-1
0
1
2
0
-2
0
2
2
2
2
2
1
2
7
10
10
12
16
18
19
24
33
36
37
37
35
30
24
22
21
20
20
18
15
10
5
3
2
2
2
3
4
1
-2
-5
-8
-8
-8
-7
-6
-4
-2
-3
-4
-4
-4
-3
-1
2
8
16
16
9
-5
-24
-25
-17
-40
-76
-147
-228
-253
-266
-275
-283
-236
-184
-186
-192
-150
-109
-87
-64
-43
-23
-14
-6
-2
2
3
4
6
8
9
10
12
14
15
16
16
17
19
20
19
18
19
20
21
22
22
23
25
27
29
30
31
32
33
35
34
37
36
39
42
43
44
47
50
51
52
54
56
56
56
56
56
57
58
57
56
53
51
48
45
42
39
37
34
30
28
28
27
25
24
25
25
23
22
22
22
22
20
18
19
20
20
20
20
20
19
18
18
18
17
16
18
20
19
19
22
24
24
24
24
24
24
25
27
28
29
30
30
30
31
32
32
32
33
34
33
34
37
38
36
36
36
35
34
35
36
35
34
34
34
32
30
30
30
29
28
26
24
25
26
26
26
25
23
21
20
21
22
21
20
20
20
20
20
20
20
19
18
18
18
18
17
18
18
18
16
14
14
14
15
16
15
14
15
16
15
14
13
12
12
12
11
10
10
10
9
8
8
8
8
8
8
7
5
4
5
6
7
7
5
4
5
6
6
6
6
5
4
6
8
6
4
6
8
6
4
5
6
6
6
7
8
7
6
7
8
8
8
9
10
9
8
8
8
9
10
9
8
8
8
9
10
10
10
8
11
14
12
10
11
12
10
8
9
10
11
12
11
10
8
6
7
8
9
10
7
6
7
8
8
10
14
16
16
18
23
25
27
32
39
39
37
34
31
29
30
22
18
20
22
12
4
3
2
2
2
3
4
5
5
1
-3
-6
-8
-7
-6
-5
-4
-4
-4
-3
-2
-2
-2
-1
6
15
17
15
7
-2
-4
-5
-6
-5
-85
-172
-206
-238
-267
-292
-254
-219
-206
-190
-167
-142
-114
-85
-56
-34
-24
-16
-7
-2
-1
1
4
7
9
10
10
10
9
9
11
12
12
13
15
16
15
14
15
16
16
16
16
18
22
23
24
24
24
24
24
26
28
28
28
31
34
34
35
38
40
40
40
41
42
43
45
47
47
45
43
41
39
37
34
29
27
25
22
19
17
15
13
11
10
10
9
8
9
10
8
6
6
6
7
8
7
6
5
4
3
2
3
4
2
0
1
1
-1
-1
1
2
3
4
3
4
7
8
9
10
11
12
11
13
17
18
17
17
18
19
20
22
24
22
20
21
22
22
22
21
20
19
18
18
18
16
14
14
14
14
13
11
10
9
8
7
6
5
2
-1
-1
1
2
1
-1
-3
-6
-9
-8
-4
-6
-8
-9
-10
-9
-8
-10
-12
-12
-12
-12
-12
-13
-14
-13
-12
-14
-16
-15
-14
-15
-16
-17
-18
-18
-18
-18
-18
-19
-21
-23
-23
-21
-20
-21
-21
-19
-18
-18
-19
-18
-20
-18
-18
-18
-18
-18
-19
-20
-18
-16
-16
-16
-18
-20
-19
-18
-18
-18
-19
-20
-21
-22
-23
-23
-21
-21
-23
-24
-23
-23
-25
-25
-23
-22
-23
-24
-24
-24
-25
-26
-25
-24
-24
-23
-22
-21
-20
-23
-26
-25
-24
-23
-22
-23
-24
-24
-24
-22
-20
-21
-22
-22
-22
-22
-22
-22
-22
-22
-22
-22
-22
-23
-25
-27
-26
-23
-24
-27
-28
-28
-28
-27
-26
-28
-29
-30
-29
-28
-28
-28
-28
-28
-28
-28
-26
-24
-22
-20
-19
-16
-11
-7
-4
0
5
7
4
0
-6
-9
-12
-13
-11
-12
-15
-20
-26
-28
-29
-30
-29
-28
-28
-28
-28
-32
-34
-36
-38
-37
-36
-36
-36
-36
-36
-37
-38
-36
-34
-35
-32
-21
-16
-21
-32
-49
-52
-38
-41
-59
-126
-225
-266
-276
-287
-297
-264
-214
-209
-216
-192
-160
-139
-120
-95
-71
-61
-52
-49
-46
-44
-42
-43
-44
-41
-38
-38
-38
-38
-38
-37
-36
-36
-36
-35
-34
-35
-35
-33
-32
-32
-32
-31
-30
-30
-29
-27
-26
-26
-26
-26
-25
-23
-20
-17
-14
-11
-10
-10
-5
0
2
4
5
6
9
12
12
12
11
10
11
12
11
10
9
7
3
-1
-4
-6
-7
-8
-7
-7
-9
-9
-7
-6
-7
-8
-8
-8
-9
-8
-5
-5
-7
-8
-8
-7
-6
-6
-6
-7
-8
-9
-10
-11
-12
-11
-10
-9
-8
-10
-12
-10
-8
-7
-6
-6
-6
-7
-7
-5
-3
-1
0
0
0
0
0
0
0
1
2
2
2
2
2
2
3
4
3
2
2
2
0
-2
-2
-2
-2
-2
-2
-2
-3
-4
-3
-2
-4
-6
-6
-6
-6
-6
-6
-7
-9
-10
-10
-10
-10
-10
-10
-10
-10
-10
-9
-9
-11
-12
-11
-10
-8
-8
-8
-10
-12
-11
-10
-9
-8
-8
-8
-7
-6
-5
-4
-5
-6
-5
-4
-5
-6
-3
-2
-2
-2
-2
-2
-3
-4
-3
-2
-2
-2
-3
-4
-3
-2
-1
0
-1
-2
-2
-3
-2
-1
0
0
0
-1
-2
-1
0
0
0
-1
-2
-3
-4
-3
-2
-3
-4
-3
-2
-2
-2
-2
-2
-2
-2
-2
-2
-1
0
0
0
1
1
-1
-2
-2
-2
-1
0
0
-1
-2
-1
0
0
0
0
0
0
0
0
0
2
5
8
11
15
18
20
25
31
34
33
30
26
22
18
15
13
13
15
11
4
2
1
-1
-3
-2
1
2
4
0
-4
-7
-10
-8
-6
-6
-6
-6
-6
-6
-6
-5
-4
-4
-2
4
8
10
10
3
-5
-17
-22
-21
-62
-131
-180
-220
-252
-281
-274
-254
-226
-197
-179
-164
-133
-100
-70
-98
-27
-14
-8
-2
1
4
6
8
8
8
8
8
9
10
11
12
13
14
15
16
16
17
20
22
21
21
23
24
25
28
31
32
33
34
35
38
41
43
45
46
47
50
52
55
58
58
58
59
60
62
64
63
62
62
62
60
58
56
53
49
46
44
40
35
32
31
28
24
21
19
18
17
16
17
17
15
14
14
14
14
14
14
14
12
12
12
14
16
16
16
15
14
14
14
16
18
18
18
19
20
20
20
22
24
24
24
25
27
29
30
30
30
31
32
32
33
35
36
35
34
35
36
35
34
34
34
32
33
34
32
30
30
30
30
30
29
28
28
28
28
28
27
26
26
26
25
24
24
24
23
22
23
24
24
23
21
20
20
20
21
21
19
18
19
19
17
17
18
17
16
16
16
15
14
15
16
14
12
13
14
13
12
13
14
12
10
10
10
10
10
11
11
9
8
8
8
7
6
5
4
3
2
2
2
2
2
1
0
0
-2
-4
-2
0
-1
-2
-2
-2
-3
-4
-4
-4
-5
-6
-4
-2
-4
-6
-4
-2
-2
-2
-1
0
0
0
-1
-2
-1
0
1
2
2
0
-3
-3
-1
0
0
0
0
0
-2
0
2
1
0
-1
-2
0
2
2
2
2
2
2
2
2
2
3
4
7
7
5
4
5
6
7
9
11
13
15
18
21
25
29
34
39
40
40
37
33
29
26
22
18
22
25
17
10
8
6
2
-2
1
4
5
5
1
-3
-6
-8
-7
-6
-7
-8
-8
-8
-7
-6
-6
-6
-6
-5
-3
1
5
0
-8
-20
-33
-32
-29
-88
-150
-203
-253
-281
-305
-289
-271
-236
-207
-197
-182
-150
-118
-89
-66
-54
-42
-32
-26
-25
-24
-21
-20
-19
-17
-15
-14
-15
-14
-10
-8
-7
-6
-5
-4
-4
-2
1
2
3
5
4
9
10
13
16
17
18
20
22
25
28
29
31
35
38
39
41
44
46
48
50
51
53
55
56
57
58
58
56
53
52
53
51
47
45
43
39
35
33
31
29
27
25
24
22
20
20
20
20
20
17
14
13
12
12
12
11
10
8
6
8
10
9
8
8
8
7
6
7
8
8
8
7
6
7
8
9
10
11
12
12
12
13
15
18
18
18
18
18
19
20
20
20
20
20
20
20
21
22
21
20
20
20
19
18
21
22
21
19
17
16
16
16
16
15
13
12
12
13
15
14
11
10
10
10
10
8
8
6
4
3
2
3
4
3
2
2
2
1
0
1
2
0
-2
-2
-2
-3
-4
-3
-3
-5
-6
-5
-4
-5
-6
-5
-5
-7
-8
-9
-10
-9
-8
-9
-10
-10
-10
-10
-10
-10
-10
-10
-10
-10
-12
-14
-12
-10
-11
-12
-13
-14
-13
-12
-11
-10
-11
-12
-13
-12
-7
-5
-8
-10
-9
-8
-8
-8
-7
-6
-7
-8
-9
-10
-10
-9
-7
-7
-10
-9
-8
-8
-8
-7
-6
-8
-10
-9
-8
-7
-6
-7
-8
-8
-8
-7
-6
-6
-6
-6
-6
-6
-6
-6
-6
-5
-5
-7
-8
-9
-10
-9
-8
-8
-8
-9
-10
-10
-9
-10
-5
-4
1
6
5
4
11
16
16
16
14
11
5
0
-2
-4
-2
-2
-8
-13
-16
-18
-19
-20
-19
-18
-17
-18
-21
-24
-27
-27
-25
-24
-24
-24
-23
-22
-22
-21
-19
-18
-18
-14
-10
-2
6
0
-8
-25
-36
-22
-23
-65
-120
-206
-264
-271
-278
-283
-264
-215
-194
-203
-186
-145
-119
-102
-83
-61
-47
-37
-30
-24
-21
-19
-19
-21
-19
-15
-14
-13
-12
-10
-9
-8
-6
-4
-3
-2
-3
-4
-3
-2
0
2
4
6
5
4
6
8
9
10
11
12
12
13
16
19
21
23
25
26
26
26
26
26
27
29
31
31
29
28
28
23
20
18
16
14
12
9
6
3
0
-3
-6
-8
-10
-10
-10
-10
-10
-12
-13
-10
-9
-11
-12
-11
-10
-11
-12
-12
-12
-13
-14
-13
-12
-12
-13
-15
-15
-13
-12
-13
-12
-10
-10
-10
-9
-8
-9
-10
-8
-6
-6
-6
-5
-4
-2
0
0
0
0
0
-1
-2
-1
0
1
2
1
0
1
2
1
0
-1
-1
1
1
-1
-2
-2
-2
-2
-3
-6
-6
-6
-6
-6
-6
-6
-8
-10
-10
-10
-10
-10
-11
-12
-13
-14
-13
-12
-14
-16
-17
-18
-18
-18
-19
-20
-20
-20
-20
-20
-20
-21
-23
-24
-23
-22
-23
-24
-24
-24
-24
-25
-24
-25
-26
-26
-26
-27
-28
-27
-26
-25
-24
-24
-24
-23
-22
-23
-24
-23
-22
-22
-22
-22
-22
-22
-22
-21
-20
-20
-20
-20
-20
-20
-20
-19
-18
-19
-20
-20
-20
-20
-19
-18
-17
-16
-16
-16
-15
-14
-15
-16
-15
-14
-16
-18
-16
-14
-14
-14
-15
-16
-16
-15
-13
-12
-13
-14
-13
-12
-11
-10
-10
-10
-10
-10
-11
-11
-9
-8
-9
-10
-9
-9
-12
-10
-8
-9
-10
-10
-10
-9
-8
-8
-8
-8
-8
-8
-7
-4
-2
0
2
4
6
9
12
17
20
19
17
14
8
2
-1
-3
-3
-1
-7
-16
-19
-21
-22
-21
-20
-20
-18
-18
-20
-22
-25
-28
-29
-30
-29
-28
-25
-22
-23
-24
-22
-20
-21
-19
-12
-8
-5
-7
-13
-22
-35
-37
-31
-67
-128
-183
-236
-264
-284
-284
-279
-243
-201
-194
-191
-152
-111
-85
-60
-45
-30
-21
-12
-9
-6
-4
-2
-2
-2
0
2
3
4
5
6
8
10
12
13
11
10
11
12
12
13
17
18
18
18
19
20
21
23
25
26
26
27
29
31
34
36
38
38
38
39
40
43
46
46
46
46
46
46
46
45
44
42
40
38
36
33
30
26
23
21
19
16
14
14
14
13
12
13
12
9
9
11
12
12
11
12
8
8
9
10
7
4
5
6
5
4
4
4
6
8
6
5
8
10
9
9
12
14
14
14
15
16
17
18
19
20
21
23
25
26
26
26
26
26
27
28
28
27
26
26
26
27
28
27
26
26
26
25
24
24
24
22
20
19
18
17
16
15
14
14
13
11
10
10
10
9
8
8
7
5
6
9
8
5
4
5
6
6
6
6
6
6
5
4
4
4
4
4
4
4
3
2
3
4
3
2
1
0
0
0
1
2
1
0
1
2
1
0
-1
-1
1
2
2
2
2
2
2
2
2
2
2
1
2
3
4
4
4
3
2
2
2
2
2
2
2
2
2
2
2
2
2
1
0
1
2
1
0
1
0
-3
-3
-1
0
-1
-2
-2
-2
-3
-4
-3
-2
-2
-3
-4
-3
-2
-2
-2
0
2
-1
-4
-1
2
1
0
1
2
0
-2
-2
-2
0
2
3
5
7
10
14
17
21
26
32
34
35
33
29
25
21
19
17
17
19
15
8
6
4
3
2
3
4
5
5
0
-4
-5
-6
-6
-6
-5
-4
-4
-4
-4
-4
-1
0
-1
0
4
11
19
16
5
-9
-24
-22
-14
-55
-108
-168
-230
-255
-276
-273
-278
-227
-188
-183
-175
-139
-105
-77
-52
-36
-23
-14
-8
-6
-3
0
2
2
2
4
6
5
4
5
6
6
6
7
8
8
9
11
12
12
13
15
17
19
20
20
20
21
26
30
30
30
32
34
36
38
40
42
45
48
49
50
52
54
54
54
56
58
56
53
51
50
49
47
44
40
36
32
28
26
26
23
19
18
18
18
18
18
18
18
16
15
14
15
16
15
14
14
14
12
10
11
12
11
10
10
10
11
12
13
14
11
11
14
16
16
17
19
20
21
23
25
26
26
26
26
26
27
28
29
30
30
30
28
30
32
32
32
33
34
33
32
32
32
29
26
27
28
27
26
25
24
23
22
21
19
17
15
13
12
13
13
11
10
9
7
5
4
4
3
1
1
3
2
0
0
0
-1
-2
-1
0
-1
-2
-2
-2
-2
-2
-2
-2
-3
-4
-4
-4
-4
-5
-7
-8
-7
-7
-9
-9
-7
-6
-7
-8
-8
-8
-9
-10
-9
-8
-7
-6
-7
-8
-6
-7
-8
-7
-6
-7
-8
-7
-6
-6
-6
-5
-4
-5
-6
-4
-2
-1
0
-1
-2
-2
-2
-1
0
1
2
3
4
3
2
3
4
3
2
2
2
2
2
1
0
0
0
-2
-3
-4
-3
-2
-3
-4
-5
-6
-5
-4
-3
-2
-4
-6
-5
-4
-4
-4
-4
-4
-4
-4
-4
-4
-4
-2
1
2
2
7
14
16
17
20
23
27
31
32
31
22
14
11
8
9
10
7
4
-2
-6
-8
-10
-8
-6
-7
-8
-8
-9
-13
-16
-16
-16
-15
-14
-13
-12
-12
-12
-11
-9
-7
-6
-7
0
12
9
1
-13
-28
-20
-9
-28
-51
-145
-234
-244
-256
-275
-284
-229
-185
-192
-190
-156
-126
-105
-81
-55
-35
-26
-19
-16
-13
-10
-8
-7
-6
-5
-4
-5
-5
-3
-2
-3
-3
-1
0
1
2
3
4
4
4
4
5
8
9
10
11
12
12
12
14
16
15
15
19
22
22
23
26
28
28
28
31
32
33
34
34
34
34
32
29
27
25
24
23
18
13
10
7
4
1
-1
-3
-5
-6
-8
-10
-10
-10
-10
-10
-10
-10
-11
-12
-13
-14
-15
-16
-16
-16
-15
-14
-14
-14
-15
-16
-17
-17
-15
-14
-14
-14
-13
-12
-11
-10
-10
-9
-7
-5
-3
-2
-2
-2
0
4
8
8
8
8
8
9
10
13
16
14
12
14
16
15
14
12
10
11
12
11
10
9
7
5
5
7
8
8
6
3
2
2
2
2
2
2
1
-1
-1
-2
1
0
-2
-4
-4
-4
-4
-4
-3
-2
-4
-6
-8
-9
-6
-4
-4
-4
-4
-4
-4
-4
-4
-4
-5
-6
-5
-4
-4
-4
-3
-3
-5
-6
-6
-6
-7
-7
-5
-4
-5
-5
-4
-6
-8
-8
-8
-7
-6
-7
-8
-8
-8
-7
-6
-7
-8
-8
-8
-8
-8
-8
-7
-5
-4
-5
-6
-7
-8
-7
-6
-6
-6
-6
-6
-6
-8
-11
-11
-9
-8
-8
-8
-8
-8
-8
-9
-10
-11
-12
-12
-12
-11
-10
-10
-10
-11
-12
-13
-14
-13
-12
-12
-12
-12
-12
-13
-13
-10
-9
-11
-12
-12
-12
-12
-12
-11
-10
-9
-8
-9
-9
-7
-6
-6
-9
-10
-10
-10
-6
-2
1
4
6
8
10
13
18
22
22
21
18
15
12
9
4
4
8
5
-6
-10
-11
-12
-11
-11
-13
-13
-11
-12
-15
-17
-19
-20
-21
-22
-21
-18
-16
-16
-16
-16
-16
-15
-13
-5
2
3
2
-6
-13
-20
-23
-18
-44
-120
-179
-218
-248
-268
-261
-228
-207
-195
-181
-165
-137
-102
-73
-46
-32
-20
-13
-5
-3
-1
0
1
4
8
9
10
11
12
14
16
16
16
18
20
21
22
22
22
24
26
28
30
29
28
31
32
33
34
35
36
37
38
39
41
43
45
47
49
51
52
52
55
59
60
60
60
60
58
56
56
56
52
48
45
42
39
35
31
27
24
22
21
20
18
16
16
16
15
14
14
14
14
14
14
14
13
12
13
14
14
14
14
14
13
13
15
16
16
16
16
18
20
21
22
21
20
21
22
23
24
26
28
29
30
30
30
31
33
35
36
35
34
35
36
36
36
36
36
36
36
36
36
36
36
35
34
33
32
30
31
32
29
26
27
28
26
24
25
26
24
22
23
23
20
18
19
20
19
18
17
16
15
14
13
12
13
13
11
10
10
10
9
8
8
8
8
8
8
8
8
6
6
8
10
8
6
7
8
7
6
7
8
7
6
7
8
7
6
7
8
5
5
7
8
7
6
6
6
5
4
4
4
5
6
6
6
7
8
7
6
7
7
6
7
8
9
10
9
8
7
6
7
8
8
8
7
6
6
6
6
6
7
7
5
4
5
6
5
5
7
7
5
5
7
7
5
4
4
4
4
5
7
8
6
8
10
12
14
17
20
25
30
34
38
38
38
36
33
30
27
23
21
24
24
19
15
12
9
7
7
9
10
10
8
5
4
4
2
-1
-1
1
2
1
0
0
2
2
3
4
5
7
16
23
14
2
-15
-26
-15
-24
-76
-132
-196
-242
-263
-274
-271
-248
-205
-184
-180
-155
-118
-88
-64
-44
-25
-15
-8
-6
-5
-3
-1
1
3
4
4
4
4
6
8
7
6
7
8
9
10
9
8
10
12
12
12
14
16
18
20
22
24
25
26
27
29
32
35
39
40
41
44
47
48
49
50
51
53
55
56
56
56
56
55
54
51
48
45
42
41
39
34
30
30
30
27
24
22
20
20
20
19
18
19
19
17
17
20
21
19
18
18
18
17
16
17
18
17
16
16
15
13
12
12
15
16
16
16
17
18
19
20
22
24
24
24
26
28
29
30
32
34
33
32
33
34
35
36
37
38
37
36
36
36
36
36
35
34
34
33
31
30
30
29
27
26
26
25
24
22
20
19
18
18
18
17
16
15
14
12
10
10
10
8
6
6
5
3
1
-1
-2
-3
-5
-7
-8
-7
-6
-7
-8
-8
-8
-9
-10
-10
-10
-11
-11
-8
-10
-12
-10
-8
-11
-14
-13
-12
-12
-12
-11
-10
-10
-10
-10
-10
-9
-8
-8
-8
-7
-6
-7
-7
-5
-4
-5
-6
-5
-4
-5
-6
-5
-4
-4
-4
-4
-4
-4
-4
-4
-2
-2
-2
-2
0
2
2
2
1
0
-1
-2
0
2
1
0
0
0
1
2
1
0
1
2
2
2
2
2
3
4
4
4
4
4
5
6
5
4
4
4
3
4
6
4
2
2
2
2
2
5
8
9
11
15
19
23
27
30
32
34
36
34
30
25
21
19
18
17
13
8
5
3
2
1
1
3
4
3
0
-3
-6
-9
-10
-12
-10
-8
-8
-8
-7
-6
-6
-6
-5
-4
-2
2
11
16
7
-4
-20
-27
-19
-37
-86
-145
-213
-251
-267
-274
-275
-245
-198
-184
-183
-150
-108
-81
-58
-40
-24
-13
-3
-2
-2
1
2
4
6
5
4
5
6
8
10
10
10
9
8
8
8
8
8
8
8
8
8
8
8
9
10
10
10
10
12
15
16
17
19
21
22
23
26
29
30
31
34
36
37
38
39
40
38
36
35
34
32
30
28
26
22
20
18
15
11
8
7
5
3
2
2
2
2
2
1
-1
-3
-4
-4
-4
-4
-4
-5
-6
-7
-8
-8
-8
-8
-9
-10
-9
-8
-7
-6
-5
-4
-4
-4
-4
-4
-2
0
1
2
2
2
3
4
7
7
5
4
5
6
7
9
11
12
11
10
10
10
10
10
10
10
10
7
10
3
4
3
2
1
0
1
2
2
2
1
0
-1
-2
0
1
-2
-4
-3
-2
-5
-6
-5
-4
-5
-6
-6
-6
-6
-6
-7
-8
-7
-6
-6
-7
-9
-10
-9
-8
-9
-10
-10
-9
-8
-7
-6
-6
-6
-6
-6
-6
-6
-5
-4
-3
-2
-3
-4
-3
-2
-4
-5
-3
-2
-3
-3
-1
0
0
-2
-5
-6
-6
-6
-5
-4
-5
-7
-9
-10
-9
-8
-8
-7
-6
-8
-10
-9
-8
-9
-10
-10
-10
-11
-12
-11
-10
-12
-14
-13
-12
-11
-10
-13
-13
-11
-11
-13
-13
-11
-10
-10
-10
-10
-11
-13
-14
-13
-12
-11
-10
-11
-12
-12
-13
-12
-13
-14
-16
-18
-16
-14
-16
-18
-17
-16
-19
-21
-17
-14
-15
-15
-12
-10
-10
-8
-4
0
4
7
10
15
20
22
22
19
14
9
5
4
5
6
5
-1
-7
-12
-16
-14
-12
-14
-16
-13
-11
-19
-26
-26
-26
-26
-26
-24
-22
-23
-24
-24
-23
-20
-19
-22
-18
-5
0
0
-5
-13
-16
-17
-13
-6
-80
-177
-216
-242
-267
-292
-252
-206
-199
-192
-173
-153
-124
-95
-67
-41
-33
-25
-17
-10
-8
-6
-4
-2
-2
-2
-2
-2
0
2
3
4
3
2
3
4
4
5
7
8
9
10
11
12
12
12
13
14
15
17
16
21
22
24
26
27
28
32
36
35
34
37
40
41
42
44
46
45
44
42
40
39
37
35
32
28
26
25
22
18
14
11
8
5
4
3
3
5
6
5
3
1
1
2
2
2
0
-2
-1
0
0
0
0
0
0
0
0
0
2
4
4
4
5
6
6
7
10
12
11
10
11
13
15
18
21
22
21
20
20
22
25
26
25
24
24
24
24
24
24
24
24
22
20
18
16
18
20
19
18
16
14
14
14
14
14
13
11
9
8
9
9
7
7
9
8
5
5
7
8
7
6
5
4
3
2
2
2
0
0
0
1
2
0
-2
-2
-2
-2
-2
-2
-2
-3
-4
-5
-6
-6
-6
-5
-5
-7
-8
-8
-8
-7
-5
-3
-2
-3
-4
-5
-6
-6
-6
-5
-4
-5
-6
-6
-5
-4
-5
-6
-5
-4
-5
-6
-4
-2
-3
-4
-4
-4
-4
-4
-4
-4
-5
-6
-5
-4
-4
-4
-3
-2
-3
-4
-4
-4
-4
-4
-4
-4
-4
-4
-4
-3
-1
-1
-3
-4
-4
-3
-2
-1
0
0
0
0
0
1
2
1
0
0
0
0
0
2
4
2
0
0
0
0
1
3
4
3
2
3
4
3
3
5
6
5
7
11
14
17
19
18
24
26
30
34
34
34
32
29
23
18
18
18
17
16
14
10
3
-2
-2
-2
-1
0
-1
-3
-5
-6
-7
-10
-13
-14
-13
-12
-12
-11
-9
-8
-9
-10
-9
-6
-3
6
14
6
-3
-20
-36
-28
-28
-64
-108
-181
-238
-250
-262
-278
-269
-216
-187
-195
-181
-139
-107
-83
-62
-44
-32
-25
-20
-16
-13
-11
-10
-9
-8
-7
-6
-6
-4
-1
0
0
0
2
4
6
6
6
8
10
12
14
15
16
17
18
20
22
24
27
31
34
34
35
40
43
45
47
49
51
54
56
57
59
61
62
63
64
64
64
64
64
64
62
64
55
52
49
46
44
42
39
36
34
32
32
32
29
26
26
26
26
26
26
26
25
24
25
26
26
26
26
25
23
22
22
23
25
26
25
24
25
26
25
25
27
28
28
29
30
31
32
34
36
35
34
36
38
39
40
41
42
42
42
41
40
42
44
43
42
42
42
43
44
44
44
43
42
41
39
37
36
37
36
33
32
33
34
32
32
32
29
26
26
26
27
28
27
26
26
26
25
24
25
26
25
24
25
26
23
22
23
24
24
24
23
22
22
22
22
22
22
22
21
20
19
18
17
16
16
16
14
15
16
14
12
12
12
11
10
11
12
11
10
10
10
10
10
9
8
9
10
10
10
11
12
11
10
11
12
12
14
17
18
19
21
23
26
29
31
33
42
50
53
56
54
52
51
51
59
64
50
40
41
40
32
25
22
19
15
12
12
11
8
6
5
4
3
3
5
5
3
3
5
6
6
6
6
6
7
15
23
24
22
13
4
2
0
-7
-27
-114
-188
-208
-232
-266
-278
-237
-207
-195
-179
-154
-129
-104
-76
-45
-25
-15
-6
1
4
4
6
9
11
13
14
15
16
15
15
17
18
18
18
18
21
22
24
26
27
28
29
30
31
32
32
32
35
38
40
42
44
46
47
49
52
54
54
55
58
60
61
62
63
64
65
65
63
62
62
60
57
56
56
53
49
45
42
38
34
32
30
29
28
28
28
26
24
25
26
25
24
25
26
26
26
26
26
26
26
25
25
27
27
25
24
25
26
25
24
25
26
26
26
27
28
29
30
32
33
34
34
34
36
38
38
38
38
38
38
38
39
40
38
36
38
40
40
40
41
41
39
38
37
36
36
36
35
34
34
33
31
31
33
34
34
33
31
29
30
26
26
26
26
26
26
23
20
22
24
22
20
22
24
24
24
23
22
23
24
21
20
20
20
19
18
18
18
17
17
19
19
17
16
16
16
16
16
15
14
15
17
18
16
14
15
16
16
16
15
14
14
14
15
16
14
12
12
12
13
14
13
12
13
14
13
12
11
10
9
8
9
10
9
9
11
12
11
10
9
8
8
8
6
8
10
8
6
7
8
7
6
7
8
6
4
5
6
5
4
4
4
3
2
3
4
4
3
1
0
1
2
2
2
3
2
-1
0
3
4
3
2
2
2
2
2
2
1
0
0
0
1
2
1
0
1
2
0
-2
-2
-2
-2
-2
-1
0
-3
-3
-1
-1
-3
-4
-3
-2
-3
-2
1
-1
-5
-6
-5
-4
-4
-4
-4
-4
-3
-2
-2
-1
0
3
6
10
14
14
15
21
26
25
24
22
19
14
10
9
8
7
4
-1
-6
-10
-13
-15
-15
-13
-13
-15
-19
-23
-24
-25
-26
-27
-28
-29
-28
-25
-25
-28
-27
-26
-27
-28
-24
-20
-15
-11
-19
-29
-43
-53
-48
-60
-110
-165
-231
-277
-298
-307
-300
-276
-237
-219
-216
-190
-151
-122
-97
-80
-66
-57
-50
-45
-41
-40
-39
-37
-35
-34
-34
-35
-34
-33
-32
-32
-32
-31
-30
-30
-30
-28
-26
-27
-28
-27
-26
-25
-24
-23
-22
-22
-22
-21
-19
-16
-14
-13
-11
-9
-8
-7
-4
-1
0
1
4
7
8
9
10
10
11
12
11
10
9
8
5
2
0
-2
-4
-6
-7
-9
-16
-20
-19
-19
-22
-24
-22
-20
-21
-22
-23
-24
-24
-24
-25
-27
-29
-30
-30
-30
-30
-30
-31
-32
-31
-30
-31
-32
-32
-33
-34
-31
-28
-28
-28
-26
-24
-23
-22
-22
-22
-20
-18
-17
-16
-15
-14
-15
-15
-12
-10
-11
-12
-13
-14
-13
-11
-9
-8
-9
-10
-11
-13
-15
-17
-19
-20
-21
-22
-22
-22
-24
-27
-30
-29
-28
-30
-32
-32
-32
-33
-34
-35
-36
-37
-38
-39
-40
-42
-44
-44
-44
-44
-44
-44
-45
-47
-48
-49
-50
-50
-50
-50
-50
-50
-50
-51
-52
-51
-50
-51
-52
-52
-51
-50
-49
-48
-49
-50
-50
-50
-49
-48
-49
-50
-49
-48
-48
-48
-46
-44
-44
-44
-45
-46
-46
-46
-45
-44
-44
-44
-43
-42
-43
-44
-44
-44
-45
-46
-45
-44
-43
-42
-40
-41
-42
-42
-42
-40
-38
-39
-40
-39
-38
-37
-36
-35
-34
-35
-36
-37
-38
-38
-38
-35
-34
-35
-36
-37
-37
-35
-34
-35
-36
-35
-34
-35
-36
-35
-34
-34
-34
-34
-34
-34
-34
-34
-34
-34
-35
-36
-33
-30
-32
-34
-34
-34
-34
-34
-33
-32
-32
-32
-33
-34
-34
-34
-34
-34
-34
-34
-34
-34
-33
-33
-35
-35
-33
-30
-27
-26
-25
-22
-19
-18
-17
-11
-6
-10
-14
-18
-22
-26
-30
-29
-29
-36
-42
-45
-48
-50
-52
-50
-48
-48
-49
-53
-57
-59
-60
-60
-60
-60
-59
-55
-55
-57
-58
-57
-55
-53
-51
-49
-41
-33
-34
-37
-52
-68
-50
-35
-91
-149
-219
-280
-294
-303
-284
-262
-227
-202
-203
-191
-154
-122
-101
-82
-68
-55
-42
-36
-35
-33
-30
-28
-27
-27
-29
-28
-25
-24
-23
-22
-21
-20
-20
-20
-19
-18
-18
-14
-12
-13
-14
-11
-8
-6
-4
-4
-4
-3
-2
1
4
4
4
6
8
10
12
15
16
16
17
20
23
26
28
27
26
25
24
24
22
19
18
18
17
15
11
7
6
6
2
-2
-1
0
-1
-2
-1
0
1
2
0
-2
-3
-4
-4
-4
-4
-4
-4
-4
-4
-4
-3
-2
-2
-3
-5
-4
0
2
2
2
2
3
5
6
6
7
9
10
10
14
18
16
14
16
18
16
14
16
18
17
16
17
18
17
16
17
18
17
16
16
16
16
16
17
17
15
14
13
12
12
12
12
12
11
10
10
10
9
8
8
7
6
5
4
5
6
6
6
5
4
4
4
4
4
4
4
2
1
5
7
4
2
3
4
3
3
5
6
5
4
5
6
5
4
4
4
4
4
3
2
2
3
4
4
4
2
0
1
2
2
2
2
2
3
4
2
0
2
4
2
0
-1
-2
-1
0
1
1
-1
-2
-2
-2
-1
0
1
2
1
1
3
3
1
1
3
4
2
2
2
2
2
3
4
4
4
4
4
5
6
5
4
5
6
6
6
6
6
5
4
5
6
6
6
6
6
6
6
5
5
7
7
5
4
5
6
5
4
4
4
2
2
2
3
4
7
10
12
14
17
20
22
25
30
34
32
30
28
25
22
18
14
13
15
12
5
2
1
0
-1
-2
-2
-1
1
-1
-5
-6
-7
-8
-8
-7
-6
-5
-4
-5
-6
-5
-4
-3
-1
7
14
12
8
-2
-8
-8
-11
-19
-60
-141
-193
-217
-243
-272
-266
-234
-212
-196
-172
-146
-117
-89
-62
-35
-19
-6
0
5
6
7
9
12
14
16
16
16
16
16
17
18
18
18
19
20
19
18
20
22
23
24
25
26
27
28
28
29
32
34
34
35
37
38
39
42
45
46
47
50
53
54
55
58
56
61
60
60
60
61
62
60
58
56
54
53
51
47
43
40
38
37
35
32
30
29
28
28
28
28
28
27
26
26
24
21
21
23
24
23
21
19
18
17
16
17
19
20
19
18
19
20
21
22
23
24
23
22
23
24
25
26
28
30
29
28
30
32
31
30
31
32
33
34
35
36
36
36
35
34
34
34
34
34
34
34
33
32
32
32
32
32
32
29
26
26
26
27
28
26
24
24
24
23
22
22
22
21
20
21
22
21
20
20
19
17
18
21
21
19
19
21
21
19
19
21
20
17
17
16
20
20
21
22
21
20
19
18
19
20
21
22
22
22
22
22
22
22
22
22
23
23
21
21
23
24
23
22
23
24
23
22
23
24
23
22
21
20
20
20
21
21
20
19
18
19
20
20
20
20
20
20
20
21
22
21
20
20
20
20
20
21
21
19
18
19
20
19
18
19
20
20
20
19
18
18
18
18
18
18
18
17
16
18
19
20
20
20
23
26
29
32
34
37
42
46
44
40
34
30
29
28
26
24
27
24
16
11
9
8
8
9
11
12
12
10
7
5
3
2
3
4
3
2
2
6
8
8
8
9
11
20
27
21
12
-6
-18
-9
-13
-49
-101
-181
-233
-246
-261
-276
-256
-201
-177
-180
-158
-118
-90
-69
-47
-24
-12
-2
2
5
7
9
10
11
12
13
15
16
17
18
18
18
18
18
19
20
22
24
25
26
25
24
25
26
27
28
30
32
33
34
35
36
37
39
43
44
45
46
47
50
53
55
57
58
59
60
59
58
58
57
56
54
52
52
52
48
44
40
36
35
34
32
30
28
26
26
26
25
24
25
25
23
22
21
20
21
22
23
22
19
19
21
22
21
20
20
20
19
19
18
21
20
21
22
23
24
25
26
27
28
28
28
27
26
27
28
30
32
31
30
31
32
32
32
32
32
32
32
33
34
33
31
29
28
28
28
28
28
27
26
25
24
24
22
20
20
20
18
16
16
16
16
16
16
16
14
12
13
14
14
14
12
11
13
13
11
11
13
14
13
12
11
10
11
12
11
10
9
8
8
7
5
4
4
4
4
4
4
5
6
4
2
2
2
2
2
2
2
1
0
0
0
-2
-4
-1
0
-1
-2
-2
-2
-2
-2
-2
-2
-3
-4
-4
-5
-7
-7
-5
-4
-5
-6
-6
-6
-6
-5
-4
-5
-6
-6
-6
-5
-4
-5
-6
-7
-8
-7
-6
-7
-8
-7
-6
-7
-8
-8
-9
-11
-12
-11
-10
-10
-9
-7
-6
-7
-8
-8
-8
-7
-6
-6
-6
-6
-7
-8
-5
-2
0
2
5
8
10
12
16
20
23
26
25
22
16
12
11
10
8
6
7
3
-6
-10
-11
-12
-11
-11
-13
-13
-11
-12
-15
-16
-17
-18
-18
-17
-15
-15
-18
-17
-16
-14
-12
-10
-7
1
8
5
-1
-14
-22
-13
-10
-25
-71
-166
-225
-237
-255
-280
-265
-214
-194
-200
-181
-148
-123
-102
-77
-49
-36
-28
-22
-15
-14
-14
-12
-9
-8
-8
-8
-8
-5
-2
-4
-6
-4
-2
-1
0
1
2
3
4
5
6
4
2
3
5
8
10
11
12
12
13
16
18
18
18
19
21
23
24
25
27
29
30
30
30
29
28
28
27
26
24
22
19
16
12
8
5
1
-3
-6
-8
-10
-11
-12
-14
-16
-15
-14
-15
-16
-16
-16
-16
-16
-16
-16
-17
-18
-19
-20
-20
-20
-21
-22
-21
-20
-20
-21
-24
-22
-20
-19
-18
-18
-18
-18
-18
-17
-16
-14
-12
-10
-8
-8
-8
-6
-3
0
2
-1
-2
-1
0
1
2
3
4
3
4
7
6
3
2
3
4
4
4
3
1
2
-1
0
-2
-4
-4
-4
-4
-4
-7
-10
-9
-8
-7
-6
-6
-7
-10
-11
-8
-7
-10
-12
-11
-10
-11
-11
-9
-8
-9
-10
-11
-12
-11
-10
-11
-12
-11
-12
-15
-14
-11
-12
-14
-13
-12
-14
-16
-15
-14
-14
-14
-14
-14
-17
-19
-14
-10
-12
-14
-13
-12
-11
-10
-11
-12
-11
-11
-13
-14
-14
-14
-14
-14
-15
-18
-21
-22
-21
-20
-20
-20
-21
-22
-20
-20
-20
-20
-20
-21
-22
-22
-22
-23
-24
-22
-20
-23
-26
-24
-22
-24
-26
-25
-24
-24
-24
-23
-22
-22
-22
-23
-24
-23
-21
-19
-18
-19
-20
-20
-20
-19
-18
-18
-18
-18
-18
-18
-16
-14
-14
-14
-13
-12
-13
-14
-12
-10
-10
-10
-9
-8
-9
-9
-6
-4
-3
-1
1
3
6
10
14
18
21
24
27
27
25
19
12
10
10
10
9
8
8
1
-6
-8
-10
-9
-8
-6
-4
-5
-6
-10
-14
-15
-16
-15
-13
-10
-8
-9
-10
-8
-6
-5
-4
-4
1
10
13
9
-1
-16
-16
-10
-20
-35
-111
-200
-220
-229
-255
-283
-238
-190
-189
-187
-155
-124
-102
-78
-52
-29
-19
-11
-7
-4
-4
-4
-2
0
2
4
3
2
3
5
7
8
7
6
7
8
9
10
10
10
11
13
15
16
16
16
17
18
18
21
22
24
26
30
34
35
36
38
40
42
44
45
46
47
48
50
52
51
50
50
49
46
44
43
41
38
35
33
30
27
23
19
18
17
16
15
14
14
13
11
12
14
12
10
10
10
10
10
9
8
8
8
8
8
10
12
11
10
10
10
11
12
13
14
14
14
14
15
17
18
19
20
20
20
21
23
25
26
26
26
27
28
28
29
30
31
32
33
34
33
32
33
34
33
32
32
32
32
32
32
32
30
28
27
26
25
24
24
24
23
21
19
18
18
18
17
17
19
19
17
16
17
18
18
16
16
16
16
17
18
17
16
17
18
19
20
19
18
18
18
18
18
18
18
17
16
17
18
18
18
19
20
19
18
18
18
19
20
19
18
18
18
18
18
18
18
18
17
16
16
16
16
16
15
14
13
12
13
14
14
14
14
14
13
12
12
12
13
14
13
12
12
12
12
12
11
10
10
10
10
10
11
11
9
8
9
10
10
10
10
10
10
10
10
10
10
10
10
12
14
13
12
13
14
13
12
12
12
13
15
17
19
21
23
26
30
33
36
41
42
43
43
41
36
31
29
27
26
26
24
20
15
10
9
8
9
10
10
10
9
8
5
2
0
-2
-1
0
1
2
-1
-2
-1
0
-1
-1
2
9
17
15
7
-8
-24
-20
-10
-34
-66
-143
-226
-242
-253
-270
-285
-231
-180
-183
-182
-143
-106
-83
-60
-38
-19
-7
2
6
9
13
16
16
17
20
22
21
21
23
24
25
26
27
28
28
28
28
29
31
32
31
30
31
32
33
34
36
35
34
37
40
40
40
43
46
47
48
49
50
51
52
54
56
58
60
60
60
61
61
59
58
57
55
52
49
47
44
39
35
31
28
25
24
24
23
21
20
20
19
18
19
20
19
18
16
14
15
16
16
16
16
16
16
16
17
18
17
16
16
16
17
18
18
19
21
21
19
19
21
22
23
24
25
26
25
24
25
26
26
26
26
27
28
28
28
27
26
27
28
29
30
30
30
29
28
27
26
26
26
27
27
24
22
22
22
22
22
22
22
21
20
19
18
18
17
15
14
15
16
15
14
16
16
16
14
12
13
14
14
14
13
12
11
10
11
11
8
6
6
6
6
6
7
8
7
6
6
6
5
4
5
6
5
4
5
7
9
10
9
8
7
6
6
8
8
8
8
7
6
6
6
7
8
7
6
5
4
4
4
5
6
5
4
4
4
4
4
4
4
5
4
1
0
1
2
2
2
1
0
1
2
2
2
1
-1
-2
-2
-2
-2
-2
-1
0
-2
-4
-4
-4
-4
-4
-5
-6
-5
-4
-3
-2
-2
-2
-3
-4
-3
-2
-2
-2
-2
-1
1
3
5
8
11
13
15
18
21
27
33
34
32
30
28
22
16
16
16
16
15
8
2
0
-2
-2
-2
-2
-2
-1
-1
-5
-8
-9
-10
-10
-10
-9
-8
-8
-8
-9
-10
-9
-8
-9
-4
4
7
9
4
-3
-14
-4
-20
-17
-83
-148
-198
-245
-268
-286
-274
-255
-216
-187
-183
-167
-127
-93
-69
-48
-31
-19
-10
-5
-2
0
1
3
5
7
9
10
10
10
10
10
10
12
15
16
15
14
15
16
16
16
16
17
18
18
18
20
22
24
26
26
26
26
26
28
30
32
34
36
38
37
38
42
44
44
44
44
44
43
42
42
40
37
35
33
30
27
26
25
20
14
12
10
10
10
9
8
9
10
7
4
5
6
7
8
7
6
4
2
4
6
5
4
3
2
2
2
2
2
2
2
2
2
3
4
4
4
5
6
5
5
4
8
8
10
12
11
10
12
14
14
14
15
16
16
16
16
16
16
16
16
16
16
16
16
16
16
15
13
12
12
12
12
12
11
10
9
8
9
10
9
8
7
4
2
2
2
2
2
0
-2
-2
-2
-3
-4
-3
-2
-6
-8
-7
-6
-6
-6
-8
-10
-11
-11
-9
-9
-11
-12
-13
-14
-13
-12
-13
-14
-13
-12
-13
-13
-11
-11
-13
-14
-14
-17
-20
-17
-14
-14
-14
-15
-16
-16
-16
-17
-18
-18
-18
-18
-18
-17
-16
-16
-16
-17
-18
-19
-20
-19
-18
-19
-20
-19
-18
-18
-18
-19
-20
-19
-18
-18
-18
-19
-20
-20
-19
-18
-19
-20
-19
-18
-19
-20
-19
-18
-19
-20
-20
-20
-21
-22
-21
-20
-21
-22
-22
-21
-19
-18
-19
-20
-21
-22
-22
-22
-21
-20
-21
-21
-19
-18
-19
-20
-20
-20
-21
-21
-20
-19
-18
-18
-18
-17
-16
-12
-8
-5
-2
-1
2
9
14
13
11
8
3
-4
-8
-9
-10
-11
-15
-20
-23
-27
-28
-29
-29
-27
-26
-25
-27
-31
-32
-33
-34
-34
-33
-30
-31
-32
-31
-30
-28
-26
-27
-27
-20
-13
-8
-5
-10
-19
-36
-40
-22
-37
-94
-158
-230
-271
-284
-283
-271
-243
-205
-192
-193
-167
-128
-101
-79
-63
-49
-39
-29
-27
-25
-23
-24
-18
-16
-17
-18
-16
-14
-14
-14
-14
-14
-13
-12
-11
-10
-9
-8
-7
-6
-6
-6
-5
-3
0
2
2
3
5
8
11
13
15
16
17
19
21
23
25
27
29
30
31
34
36
37
38
37
36
35
34
32
30
28
25
21
18
14
12
10
7
4
2
0
-2
-2
-2
-2
-3
-5
-6
-6
-6
-5
-4
-4
-5
-7
-8
-8
-8
-9
-10
-9
-8
-8
-7
-6
-6
-6
-5
-4
-4
-4
-3
-2
-1
0
0
0
2
4
5
6
7
8
9
10
11
12
12
12
13
14
15
17
19
20
20
20
19
18
18
18
17
16
16
16
14
14
14
14
14
14
14
11
8
9
10
10
10
8
6
5
4
5
6
3
2
2
1
-1
-2
-2
-2
-2
-3
-5
-6
-5
-4
-4
-4
-4
-4
-4
-4
-4
-5
-6
-6
-6
-7
-8
-7
-6
-5
-4
-5
-6
-6
-6
-6
-6
-5
-4
-4
-4
-4
-4
-3
-2
-3
-4
-5
-5
-3
-2
-3
-4
-3
-2
-3
-4
-4
-4
-4
-4
-5
-6
-8
-7
-6
-5
-4
-6
-8
-7
-6
-6
-6
-6
-6
-7
-8
-6
-4
-6
-8
-7
-6
-7
-8
-7
-6
-6
-7
-9
-10
-10
-10
-9
-8
-9
-10
-11
-11
-9
-8
-9
-10
-10
-8
-6
-2
2
4
6
10
14
15
17
23
28
26
23
18
14
12
9
6
5
10
7
-5
-10
-9
-8
-8
-8
-8
-8
-7
-8
-11
-14
-17
-17
-15
-14
-13
-12
-12
-11
-10
-11
-12
-10
-7
2
10
8
4
-6
-14
-13
-13
-20
-54
-140
-200
-220
-246
-279
-273
-227
-203
-197
-176
-146
-117
-91
-64
-38
-23
-13
-6
0
2
3
5
7
8
8
8
10
11
12
12
12
11
10
11
12
13
14
15
16
17
18
19
20
21
22
22
22
25
27
29
30
31
33
35
36
37
39
41
43
45
46
47
50
53
54
53
52
52
50
50
49
48
46
44
41
38
36
34
29
26
25
23
20
18
18
18
19
20
19
17
15
14
13
13
15
16
15
14
15
16
16
16
15
14
13
12
13
14
14
14
14
14
14
15
16
17
18
19
20
21
22
22
22
24
26
26
26
27
28
28
28
29
30
30
30
30
30
29
28
29
29
27
26
25
24
25
26
26
23
19
18
18
19
20
19
18
17
16
15
14
14
14
13
12
12
12
11
10
11
12
11
10
10
10
9
8
9
10
9
8
9
10
10
9
7
6
7
8
8
8
8
8
8
8
8
8
8
7
6
6
6
6
6
7
8
8
8
8
8
7
6
7
8
8
8
8
8
8
8
8
7
5
5
7
8
7
6
5
4
4
4
5
5
3
3
4
3
2
3
4
3
2
1
0
0
0
-1
-2
-2
-2
-3
-4
-4
-4
-5
-6
-6
-6
-7
-8
-7
-6
-7
-9
-11
-12
-11
-10
-9
-7
-5
-3
-1
1
3
7
12
15
18
15
12
8
4
2
0
0
0
-1
-3
-9
-14
-14
-14
-13
-12
-10
-9
-12
-14
-15
-17
-19
-19
-17
-16
-15
-14
-14
-14
-14
-13
-11
-9
-7
1
9
5
10
-18
-34
-25
-19
-56
-99
-177
-244
-260
-273
-282
-274
-223
-188
-190
-178
-139
-107
-84
-63
-44
-28
-16
-10
-10
-9
-6
-4
-3
-2
-1
0
0
0
1
2
2
2
3
4
4
4
4
5
6
9
12
11
10
11
12
14
16
17
18
19
21
24
26
28
30
31
33
35
37
40
42
42
42
41
41
43
44
43
40
37
36
35
32
29
26
23
19
14
13
12
8
4
3
2
1
0
1
2
1
0
-1
-2
-2
-2
-2
-1
2
4
3
2
2
1
-1
-2
-1
0
1
2
2
2
2
3
5
6
5
5
7
9
8
12
12
14
16
16
16
18
20
19
18
20
22
21
20
22
24
23
22
21
20
20
20
19
18
19
19
17
16
15
14
13
12
12
11
9
8
8
7
5
4
4
2
0
0
0
-2
-4
-5
-6
-5
-4
-5
-6
-7
-8
-8
-8
-6
-4
-5
-6
-6
-6
-7
-8
-8
-8
-8
-8
-7
-6
-7
-8
-8
-8
-9
-10
-10
-10
-10
-10
-10
-10
-12
-12
-12
-11
-10
-10
-10
-11
-12
-11
-10
-9
-8
-10
-12
-12
-12
-11
-10
-10
-10
-13
-14
-15
-15
-13
-12
-13
-13
-11
-10
-10
-10
-11
-12
-11
-11
-13
-14
-14
-12
-14
-12
-16
-13
-10
-12
-14
-13
-12
-13
-14
-14
-14
-13
-12
-13
-14
-13
-12
-13
-14
-11
-10
-10
-10
-11
-11
-9
-8
-7
-7
-9
-10
-9
-8
-7
-6
-5
-4
-5
-6
-5
-2
0
2
4
5
6
14
20
21
23
28
31
27
23
18
14
14
14
12
9
5
0
-5
-8
-7
-6
-7
-8
-9
-10
-11
-12
-13
-17
-21
-22
-21
-20
-19
-17
-15
-14
-16
-14
-12
-9
-6
3
10
7
0
-21
-33
-13
-10
-51
-108
-196
-252
-259
-264
-266
-246
-200
-182
-192
-172
-129
-105
-93
-71
-46
-34
-28
-23
-17
-16
-15
-14
-13
-12
-12
-11
-12
-9
-10
-9
-8
-8
-8
-6
-4
-5
-6
-6
-6
-5
-4
-2
0
-1
-1
2
4
5
6
6
7
10
12
12
14
17
19
21
22
23
25
27
29
31
32
31
30
30
30
30
27
24
21
18
18
18
12
8
4
0
0
0
-4
-6
-5
-4
-6
-8
-8
-8
-8
-8
-7
-7
-9
-10
-9
-8
-9
-10
-10
-10
-11
-12
-12
-12
-13
-14
-14
-14
-12
-12
-12
-11
-10
-10
-10
-9
-8
-8
-8
-7
-6
-5
-4
-3
-2
-2
-2
-1
0
0
0
1
2
3
3
1
1
3
4
3
2
3
3
1
0
1
2
1
0
0
-1
-2
-2
-2
-4
-6
-7
-8
-7
-6
-6
-6
-7
-9
-12
-14
-13
-12
-13
-14
-17
-18
-18
-18
-19
-20
-20
-20
-21
-23
-25
-26
-25
-24
-25
-27
-29
-29
-27
-26
-27
-27
-26
-27
-28
-27
-26
-26
-26
-27
-28
-28
-28
-26
-24
-26
-28
-27
-26
-26
-26
-26
-27
-29
-30
-30
-30
-29
-28
-27
-27
-29
-30
-30
-30
-29
-28
-27
-26
-26
-26
-26
-26
-26
-25
-24
-24
-24
-24
-24
-23
-22
-22
-22
-23
-24
-23
-22
-21
-20
-21
-22
-23
-24
-23
-22
-22
-22
-22
-22
-23
-23
-21
-20
-21
-22
-22
-22
-23
-24
-24
-24
-25
-26
-26
-25
-26
-25
-24
-25
-26
-26
-26
-24
-22
-20
-18
-17
-15
-11
-7
-3
0
1
4
9
11
9
6
0
-2
-3
-6
-9
-8
-4
-8
-16
-19
-21
-22
-23
-23
-21
-21
-23
-26
-28
-29
-30
-28
-26
-27
-28
-27
-26
-28
-30
-28
-26
-25
-21
-12
-9
-17
-28
-44
-49
-42
-57
-91
-149
-221
-254
-264
-283
-306
-270
-213
-202
-205
-173
-133
-107
-82
-64
-45
-37
-28
-26
-24
-23
-22
-20
-18
-16
-14
-15
-16
-16
-16
-15
-14
-14
-14
-13
-12
-11
-10
-7
-6
-6
-5
-3
-2
-1
0
1
3
5
7
9
10
11
13
15
18
21
22
22
28
32
33
34
35
36
36
36
38
40
37
34
34
34
32
30
28
25
21
18
15
14
13
12
11
10
9
8
7
6
7
7
5
4
5
6
5
4
5
6
5
4
4
5
6
7
8
7
6
6
6
8
10
9
8
10
12
12
12
13
14
16
18
17
16
17
19
21
22
22
22
23
24
25
26
26
26
27
28
27
26
27
28
28
27
26
25
24
24
24
23
22
22
22
20
18
19
20
19
18
18
18
18
18
18
18
18
18
17
16
16
16
15
14
14
14
13
12
13
13
11
10
10
10
10
10
10
10
10
9
8
8
8
9
10
10
10
9
8
9
10
9
8
9
10
9
8
9
10
10
10
11
11
9
9
11
12
12
12
11
11
13
14
13
12
12
11
10
12
14
13
12
13
14
13
12
12
12
12
12
11
10
10
10
11
12
13
13
11
10
10
10
10
10
9
8
8
8
9
10
9
8
8
8
8
8
9
10
8
10
12
11
10
10
10
9
8
7
6
8
10
9
8
9
10
8
6
8
10
10
11
13
15
17
20
24
27
29
32
37
40
43
44
43
37
31
29
27
26
26
25
22
17
12
10
8
12
16
15
14
9
6
4
2
3
4
6
8
8
8
7
6
7
9
11
13
16
23
31
29
22
7
-12
-10
-2
-30
-66
-142
-222
-238
-249
-266
-281
-223
-170
-175
-175
-134
-96
-73
-50
-30
-12
-2
6
7
8
9
10
12
14
15
16
16
17
19
20
19
19
21
22
22
24
27
28
29
30
31
32
31
32
35
37
40
40
40
44
48
49
50
52
54
55
57
61
64
64
64
65
66
67
68
69
70
67
66
66
64
60
57
55
52
48
44
41
38
35
32
29
28
27
25
23
23
22
23
20
21
22
22
22
23
24
21
18
19
20
21
22
21
20
22
24
22
20
23
24
25
26
27
28
28
29
31
32
33
35
37
38
39
41
43
44
43
43
45
47
48
49
50
49
48
48
48
49
50
49
48
48
48
47
46
46
46
45
44
43
42
41
40
40
39
37
35
33
32
32
32
32
32
31
30
29
28
28
27
25
24
26
25
24
25
26
25
24
23
22
22
22
22
22
22
22
22
22
21
20
21
22
22
22
21
20
21
22
22
22
21
19
17
17
19
19
17
16
16
16
15
14
14
14
12
12
12
13
14
13
12
13
14
13
12
14
16
14
12
12
12
12
12
15
16
15
14
13
12
12
12
13
14
13
12
11
10
11
12
13
14
13
12
11
12
14
13
12
13
14
13
12
14
16
15
14
13
12
13
14
15
16
15
14
14
14
15
16
16
16
17
17
15
14
15
16
16
16
16
16
16
16
17
18
18
20
24
27
30
33
36
39
42
45
48
45
41
35
30
28
25
22
20
20
17
9
4
3
2
2
2
2
1
-2
-5
-7
-9
-11
-10
-7
-6
-7
-8
-9
-9
-7
-6
-6
-4
-2
8
18
13
6
-10
-22
-11
-7
-29
-71
-164
-229
-239
-255
-279
-270
-212
-182
-187
-173
-138
-111
-90
-65
-36
-21
-13
-8
-4
-2
-2
1
5
5
3
3
5
6
6
6
6
6
6
6
6
8
10
9
8
9
10
11
12
13
14
15
16
17
18
19
21
23
24
24
26
30
32
32
33
35
37
39
40
39
38
39
40
40
40
39
35
30
30
30
24
18
17
15
8
2
1
0
-3
-6
-7
-8
-8
-8
-8
-8
-9
-10
-10
-10
-10
-10
-9
-8
-7
-8
-11
-12
-12
-12
-12
-12
-12
-12
-11
-9
-7
-6
-6
-6
-4
0
4
4
4
4
4
6
8
10
12
13
14
16
18
17
16
18
20
21
22
21
20
21
22
22
22
22
22
21
20
19
18
18
17
15
14
13
12
11
9
8
7
6
2
-2
-2
-2
-2
-2
-4
-6
-6
-6
-7
-8
-6
-5
-8
-10
-9
-8
-7
-7
-9
-10
-10
-10
-10
-9
-7
-6
-6
-7
-9
-10
-10
-10
-9
-8
-7
-6
-8
-6
-4
-5
-6
-8
-10
-11
-12
-10
-8
-8
-8
-10
-12
-11
-10
-11
-12
-11
-10
-11
-12
-12
-11
-9
-8
-8
-8
-9
-10
-9
-8
-8
-8
-7
-6
-6
-6
-6
-6
-6
-4
-4
-6
-8
-4
0
-2
-4
-4
-4
-4
-4
-3
-2
-4
-6
-4
-2
-2
-2
-1
-1
-4
-5
-3
-2
-1
0
-1
-2
-3
-4
-3
-2
-2
-2
-2
-2
-3
-4
-5
-6
-6
-6
-6
-6
-6
-6
-6
-5
-4
-5
-6
-5
-4
-5
-6
-5
-4
-6
-8
-7
-6
-5
-5
-7
-8
-8
-8
-9
-10
-10
-10
-11
-12
-13
-14
-14
-14
-15
-16
-17
-18
-18
-16
-14
-15
-16
-14
-12
-9
-6
-3
0
2
5
9
12
14
15
12
8
2
-3
-6
-7
-5
-7
-13
-17
-20
-23
-25
-26
-26
-26
-25
-27
-31
-32
-33
-34
-34
-34
-34
-34
-34
-33
-32
-31
-30
-30
-30
-24
-19
-14
-12
-19
-28
-41
-47
-38
-59
-123
-183
-239
-272
-284
-280
-262
-238
-210
-197
-192
-164
-126
-97
-72
-55
-41
-31
-22
-19
-17
-15
-13
-10
-8
-8
-8
-7
-6
-4
-2
-2
-2
-2
-2
1
4
5
6
8
10
11
12
12
13
16
18
18
19
21
23
25
27
29
30
31
34
37
39
41
43
45
46
47
49
52
52
52
52
52
51
50
47
44
43
41
37
34
31
28
26
24
22
19
16
14
13
12
11
10
10
10
10
10
9
8
9
10
10
10
10
10
10
10
11
12
12
12
12
13
14
14
14
14
14
15
16
18
20
20
20
20
20
22
24
24
24
27
28
28
28
29
30
31
31
29
29
31
32
31
31
33
33
31
30
31
31
29
27
26
26
26
24
22
23
24
22
20
19
18
18
18
19
20
18
16
14
12
13
14
13
12
12
12
11
10
10
10
10
10
10
10
9
9
11
10
7
7
9
9
6
7
8
7
6
6
6
6
6
7
8
7
6
6
6
5
4
4
4
4
4
4
4
3
2
2
2
2
2
1
0
1
2
1
0
1
2
2
2
2
2
2
1
0
2
4
4
4
4
4
5
6
7
8
6
4
5
6
7
8
8
8
7
6
7
8
8
8
9
10
9
8
8
8
9
10
10
10
11
11
9
9
11
10
8
9
10
10
10
9
8
7
6
5
4
6
8
7
6
6
6
4
2
4
6
6
7
10
13
15
19
24
27
29
34
40
41
39
35
31
28
25
22
19
20
24
15
6
3
0
-1
-2
0
2
2
2
-1
-5
-9
-12
-10
-8
-8
-8
-7
-6
-5
-4
-4
-4
-3
2
9
13
15
10
1
-5
-11
-12
-13
-72
-141
-187
-231
-259
-234
-264
-241
-214
-187
-174
-158
-123
-89
-60
-35
-20
-6
1
6
8
11
14
16
16
16
19
20
19
19
21
22
23
24
23
22
22
22
23
24
25
26
25
24
25
26
26
27
28
29
30
33
36
35
34
37
40
42
44
45
46
48
50
52
54
55
56
57
58
57
56
55
53
51
49
45
43
41
37
32
30
30
27
23
22
21
20
19
18
20
19
18
18
18
18
18
17
16
16
16
15
14
14
14
14
14
13
12
10
8
11
12
11
10
11
12
11
10
11
12
12
12
12
12
13
14
15
16
16
16
16
16
18
17
16
17
18
18
18
20
22
21
20
20
20
21
22
22
22
20
18
18
18
17
16
16
16
15
13
11
10
11
11
9
9
11
12
11
10
10
10
10
10
10
8
6
6
6
7
8
8
8
9
10
9
8
8
8
8
8
10
12
11
10
11
12
11
10
11
12
12
12
11
10
11
12
13
14
13
12
12
12
13
13
10
10
10
10
10
11
12
12
12
11
10
10
10
11
12
11
10
9
8
9
10
10
10
9
8
9
10
9
9
11
12
11
10
10
10
9
9
11
12
11
10
10
11
12
11
10
10
10
10
10
11
12
12
12
11
10
11
12
11
10
11
12
9
8
9
10
9
8
9
10
9
8
8
8
8
8
8
8
7
7
9
10
10
12
14
18
22
24
26
30
35
41
46
44
41
37
34
30
27
24
22
24
22
12
6
5
4
4
4
5
6
5
1
-4
-6
-6
-6
-6
-4
-1
0
-1
-2
-1
0
0
1
2
10
18
19
19
7
-2
-1
-1
-7
-37
-123
-188
-213
-241
-276
-276
-229
-201
-194
-175
-147
-120
-94
-65
-33
-16
-5
3
10
12
13
16
19
20
20
21
23
24
24
23
24
25
26
25
24
26
28
29
30
31
32
32
32
34
36
36
36
38
40
40
41
44
46
46
47
49
50
50
52
55
56
56
57
59
60
61
61
59
58
58
56
54
52
50
48
46
43
40
34
30
28
26
23
20
20
19
16
14
16
18
17
16
15
14
15
15
13
12
12
12
12
12
12
11
9
9
11
12
11
10
10
10
10
10
10
11
12
14
16
17
18
18
18
19
20
19
19
22
24
22
21
24
26
26
26
25
24
24
25
27
26
23
22
23
24
23
22
21
20
20
19
17
16
16
15
14
13
12
11
10
10
10
9
8
8
8
6
4
6
7
4
2
4
6
3
2
2
2
3
4
3
2
2
2
3
4
3
2
2
2
3
3
1
0
1
1
0
0
0
-1
-2
-1
0
0
0
-1
-2
-1
0
-1
-2
-3
-4
-4
-4
-3
-3
-5
-5
-2
-1
-4
-5
-3
-2
-3
-3
-1
0
-1
-2
-2
-2
-1
0
0
0
-2
-3
-4
-3
-2
0
2
-1
-4
-4
-4
-4
-4
-4
-4
-3
-2
-4
-6
-4
-2
-1
-1
-3
-4
-3
-2
-2
-1
1
1
-1
-2
-1
0
1
1
-1
-2
-2
-1
-2
0
-2
-1
0
1
2
1
0
0
0
0
0
0
0
1
2
2
2
1
2
7
11
14
17
19
21
24
30
36
36
33
27
20
17
15
14
15
16
16
6
-5
-6
-6
-6
-6
-5
-4
-6
-8
-10
-12
-14
-16
-14
-12
-13
-14
-12
-10
-12
-13
-10
-8
-9
-4
7
10
6
-5
-19
-17
-7
-12
-23
-106
-210
-239
-252
-270
-288
-243
-192
-192
-196
-170
-145
-120
-95
-68
-43
-36
-29
-24
-20
-17
-14
-16
-17
-14
-12
-12
-11
-8
-6
-7
-8
-7
-5
-3
-2
-1
0
0
1
3
5
7
8
7
8
11
12
12
15
12
22
24
24
24
27
30
32
34
36
38
39
40
43
46
45
44
46
48
47
46
43
40
36
32
28
26
25
22
18
14
11
8
5
5
7
7
5
4
4
3
1
1
2
-1
-4
-3
-2
-5
-8
-6
-4
-4
-4
-5
-6
-8
-10
-9
-8
-9
-10
-8
-6
-6
-6
-5
-4
-4
-4
-3
-2
-1
1
3
4
4
4
5
6
5
4
5
6
6
7
8
7
6
5
4
5
6
5
4
3
2
3
3
0
-2
-3
-4
-6
-8
-8
-9
-11
-12
-12
-12
-13
-14
-15
-16
-15
-14
-15
-16
-17
-18
-18
-18
-18
-18
-18
-20
-20
-20
-20
-20
-20
-20
-20
-20
-20
-21
-22
-22
-22
-22
-22
-24
-26
-25
-24
-23
-23
-25
-26
-25
-24
-24
-24
-25
-26
-26
-26
-26
-26
-27
-28
-29
-29
-27
-26
-27
-28
-28
-30
-32
-31
-30
-31
-32
-31
-30
-31
-32
-32
-32
-33
-34
-34
-34
-34
-34
-33
-32
-32
-32
-31
-31
-33
-33
-31
-30
-31
-32
-33
-32
-29
-28
-29
-30
-30
-31
-33
-33
-30
-31
-32
-32
-32
-32
-32
-33
-34
-34
-34
-34
-34
-34
-34
-35
-36
-35
-34
-36
-38
-37
-37
-39
-39
-37
-37
-40
-40
-36
-34
-33
-30
-27
-25
-23
-19
-15
-14
-13
-14
-12
-23
-28
-30
-32
-33
-34
-36
-39
-45
-50
-51
-52
-51
-50
-50
-50
-51
-52
-54
-56
-59
-59
-57
-56
-56
-56
-56
-56
-56
-55
-53
-52
-51
-45
-38
-42
-49
-63
-79
-74
-67
-109
-154
-218
-279
-293
-306
-312
-310
-261
-222
-223
-213
-171
-135
-110
-89
-72
-58
-48
-42
-41
-38
-34
-32
-31
-29
-27
-25
-23
-22
-22
-22
-23
-22
-19
-18
-18
-18
-18
-18
-17
-16
-18
-16
-14
-14
-14
-11
-8
-8
-8
-6
-4
-4
-3
2
6
6
7
10
12
14
16
19
20
20
20
20
20
21
22
22
20
17
15
13
11
9
6
3
1
-1
-4
-2
-8
-8
-9
-10
-9
-8
-10
-12
-13
-14
-13
-12
-12
-12
-12
-12
-12
-12
-12
-12
-13
-14
-13
-12
-12
-12
-11
-10
-11
-12
-11
-9
-7
-6
-5
-4
-4
-4
-3
-2
-2
-1
0
1
2
3
4
3
2
1
0
1
2
2
2
1
0
-1
-2
-1
0
-2
-5
-8
-10
-10
-10
-10
-10
-10
-11
-13
-14
-13
-12
-13
-14
-13
-14
-17
-16
-13
-13
-16
-15
-14
-14
-14
-14
-14
-14
-14
-14
-14
-15
-16
-15
-14
-14
-14
-15
-16
-16
-16
-15
-14
-15
-17
-19
-19
-16
-14
-15
-16
-15
-14
-14
-14
-13
-12
-12
-12
-11
-10
-10
-7
-6
-7
-8
-8
-8
-7
-6
-5
-4
-5
-6
-7
-7
-4
-2
-4
-6
-5
-4
-4
-3
-1
0
0
0
-1
-2
-1
0
1
2
1
0
0
0
0
0
0
0
0
-1
-2
-2
-2
-3
-4
-4
-4
-3
-2
-2
-2
-3
-4
-4
-4
-4
-4
-3
-2
-3
-4
-4
-4
-3
-2
-1
0
0
1
3
6
9
13
17
20
23
28
33
34
35
34
30
26
22
19
16
19
21
13
6
4
2
2
2
4
6
6
5
1
-2
-3
-4
-5
-5
-3
-2
-2
-2
-1
0
-1
-2
-1
4
10
14
17
11
1
-6
-13
-14
-14
-90
-167
-203
-238
-267
-287
-249
-216
-204
-189
-168
-144
-112
-81
-52
-30
-19
-9
-2
2
5
7
9
10
11
13
16
18
17
18
21
21
19
19
21
22
23
24
24
24
25
27
28
30
32
33
34
36
38
40
42
43
44
47
50
51
52
54
57
60
62
63
65
67
68
68
68
69
69
67
66
66
65
63
59
55
54
53
48
43
41
39
37
34
35
36
33
30
31
32
29
26
27
28
28
28
28
28
28
28
27
26
27
27
24
23
26
28
27
26
27
28
27
27
29
30
30
30
31
32
32
33
35
36
36
38
40
40
40
39
38
40
42
42
42
44
46
44
42
43
44
43
42
43
43
40
38
38
38
37
36
35
35
37
36
33
32
32
32
32
32
31
29
27
27
29
28
26
26
26
26
26
26
26
24
22
22
22
23
24
20
18
19
20
19
18
19
20
20
20
19
17
15
14
14
14
13
12
11
10
9
8
9
10
9
8
7
6
4
5
6
6
6
5
4
5
6
4
2
4
6
5
4
5
6
5
4
5
6
5
4
4
4
5
6
6
6
5
4
4
4
5
6
5
5
7
8
8
8
8
5
4
6
8
7
6
7
8
8
8
8
8
8
8
9
10
9
8
10
12
12
11
9
9
11
12
11
10
10
10
10
10
11
13
15
17
19
20
21
24
27
34
40
41
42
40
38
32
26
24
22
22
22
19
15
10
6
6
6
6
7
10
10
5
2
2
1
-1
-1
1
2
2
2
2
2
2
2
3
8
13
19
25
21
14
-5
-24
-8
2
-39
-86
-169
-238
-250
-261
-268
-259
-207
-174
-180
-168
-126
-94
-75
-54
-33
-18
-8
-2
2
4
4
6
10
12
12
13
15
14
11
13
17
18
17
17
16
19
18
19
20
21
22
23
24
27
30
30
30
31
32
33
35
38
40
41
43
46
49
51
53
56
57
55
55
57
58
59
60
59
58
57
53
49
48
47
42
37
33
30
28
26
25
24
21
18
17
16
16
16
16
16
16
16
17
18
17
16
15
14
13
12
12
12
13
14
15
16
15
14
14
15
17
18
17
16
17
19
21
22
22
22
22
24
26
25
24
25
26
28
30
29
28
29
30
30
30
31
32
31
30
30
30
31
31
29
28
27
26
25
25
27
27
25
24
25
24
21
20
20
19
20
19
22
21
20
18
16
16
16
17
18
13
10
12
14
13
12
13
13
10
8
8
8
9
9
6
4
4
4
3
2
3
4
3
2
3
1
-3
-2
1
1
-1
-2
-2
-1
0
-1
-2
-2
-2
-3
-4
-1
2
1
0
2
4
3
2
1
0
2
4
3
1
-1
-1
2
4
3
2
3
4
4
4
4
4
3
2
2
2
2
2
2
3
4
1
-2
-1
0
-1
-2
-2
-2
-3
-4
-4
-4
-4
-4
-5
-6
-6
-6
-6
-6
-6
-6
-7
-7
-5
-4
-5
-6
-5
-5
-7
-7
-5
-4
-3
-2
-3
-4
-4
-3
-2
-2
-2
-2
-2
-2
-2
-2
-2
0
2
3
5
9
12
13
16
21
25
28
30
30
28
24
21
18
15
13
12
13
8
0
-4
-7
-7
-5
-4
-5
-5
-3
-7
-12
-14
-16
-14
-12
-11
-10
-11
-12
-11
-10
-10
-10
-10
-8
-1
5
9
8
-1
-11
-21
-23
-15
-59
-139
-190
-226
-253
-276
-260
-229
-208
-190
-177
-166
-135
-101
-73
-45
-34
-22
-16
-10
-9
-8
-6
-4
-4
-4
-4
-4
-3
-2
-1
0
-1
-2
-3
-3
0
2
1
0
1
2
1
0
0
1
3
5
7
8
9
11
13
14
15
16
17
20
18
25
26
29
32
33
34
36
38
37
36
36
36
34
32
32
31
27
23
20
17
14
10
5
2
1
0
-1
-2
-3
-4
-5
-6
-6
-7
-9
-10
-9
-8
-9
-10
-10
-11
-12
-12
-12
-13
-14
-14
-14
-15
-16
-15
-14
-13
-12
-13
-14
-12
-10
-10
-10
-8
-6
-6
-5
-3
-2
-2
-1
1
2
2
2
3
4
4
4
5
6
7
8
9
10
10
9
8
9
10
9
8
7
6
5
4
5
6
5
4
3
2
2
2
0
-2
-1
-1
-4
-5
-3
-3
-5
-6
-5
-6
-9
-10
-9
-8
-9
-10
-9
-9
-11
-12
-12
-12
-14
-14
-14
-14
-14
-14
-14
-14
-14
-17
-20
-18
-16
-18
-20
-20
-20
-22
-24
-24
-24
-23
-23
-25
-26
-26
-26
-27
-28
-29
-30
-30
-30
-31
-32
-33
-34
-33
-33
-35
-36
-36
-38
-40
-40
-40
-42
-44
-43
-42
-43
-44
-43
-42
-43
-44
-45
-46
-46
-46
-47
-48
-47
-46
-45
-44
-44
-45
-47
-46
-43
-43
-45
-45
-43
-42
-43
-44
-43
-42
-42
-42
-40
-40
-40
-39
-38
-35
-32
-30
-28
-24
-20
-18
-15
-10
-5
-1
2
2
0
-5
-8
-9
-11
-14
-14
-10
-13
-22
-26
-27
-28
-27
-26
-25
-24
-23
-27
-33
-34
-34
-33
-34
-30
-30
-31
-32
-31
-30
-30
-30
-29
-27
-18
-12
-13
-16
-23
-29
-33
-36
-38
-78
-161
-214
-237
-267
-300
-292
-255
-232
-215
-196
-176
-147
-117
-86
-55
-42
-32
-24
-17
-16
-15
-10
-6
-6
-6
-4
-2
-2
-2
-1
0
1
2
1
0
2
4
6
8
8
8
9
10
11
13
15
16
17
18
19
21
23
25
27
28
29
32
35
37
39
41
43
44
46
48
50
50
50
50
50
49
48
46
44
43
41
37
34
32
30
28
26
24
22
21
20
19
17
15
15
17
18
17
16
16
16
16
16
17
16
13
12
13
14
14
13
12
12
12
12
12
14
16
16
16
18
20
20
20
22
24
23
22
24
26
27
29
31
32
31
31
33
34
35
36
35
35
37
38
38
38
38
37
35
34
34
33
32
32
32
32
32
30
28
28
28
27
26
25
24
24
24
24
24
22
20
20
20
20
20
19
18
18
18
18
18
18
18
18
18
17
16
16
16
16
16
16
14
10
12
14
14
14
13
12
13
14
14
14
13
12
12
12
11
10
11
12
12
12
11
10
11
12
12
12
11
10
11
12
11
11
13
13
11
10
9
9
11
12
12
12
12
12
12
12
12
12
12
12
12
12
12
13
14
14
14
14
14
14
14
14
14
13
12
12
12
13
14
14
14
13
12
12
12
13
14
13
12
12
12
12
12
12
10
8
8
8
8
8
9
10
10
10
12
14
16
19
22
25
28
32
37
39
37
35
33
29
23
20
20
20
20
15
8
5
3
2
3
4
4
4
4
2
-2
-3
-4
-4
-4
-4
-4
-2
0
0
0
1
2
1
2
9
15
18
17
10
0
-13
-17
-10
-42
-106
-164
-219
-253
-277
-273
-256
-227
-193
-182
-177
-142
-102
-75
-50
-35
-48
-12
-4
0
4
5
6
6
6
6
6
8
10
9
8
8
8
9
10
10
10
10
10
11
12
13
15
17
18
18
19
21
22
22
22
23
25
27
28
28
30
33
36
38
39
40
41
42
43
44
46
48
47
46
44
42
42
41
38
35
32
30
28
25
22
19
16
14
13
11
9
8
8
8
9
9
7
6
7
8
7
6
5
4
6
7
8
7
6
5
4
5
6
5
4
4
4
5
6
6
6
8
10
10
10
10
11
14
16
17
18
17
17
19
20
19
18
17
16
17
19
21
22
22
20
22
17
18
17
16
15
14
14
14
12
10
9
8
7
6
5
4
2
0
0
0
-1
-2
-2
-3
-5
-6
-5
-4
-5
-7
-9
-10
-9
-8
-9
-10
-11
-12
-11
-10
-11
-13
-14
-14
-14
-15
-16
-15
-14
-16
-18
-17
-16
-15
-14
-16
-18
-19
-20
-20
-19
-16
-15
-17
-18
-17
-17
-19
-20
-19
-18
-19
-20
-20
-20
-21
-20
-17
-18
-21
-22
-22
-22
-20
-20
-20
-21
-22
-22
-22
-22
-22
-22
-22
-21
-20
-21
-22
-23
-24
-24
-24
-25
-26
-26
-26
-25
-25
-27
-27
-25
-24
-24
-25
-27
-27
-25
-24
-25
-26
-25
-23
-21
-20
-20
-21
-22
-21
-20
-21
-22
-20
-18
-20
-22
-20
-18
-18
-18
-20
-22
-20
-18
-19
-20
-17
-16
-16
-16
-16
-16
-16
-16
-15
-14
-13
-9
-5
-3
-1
1
3
7
11
14
17
18
18
12
6
5
4
1
-2
-1
-2
-12
-20
-20
-20
-18
-16
-15
-14
-16
-18
-20
-23
-26
-28
-27
-25
-23
-22
-22
-22
-22
-22
-22
-21
-19
-9
2
2
-1
-18
-37
-25
-10
-32
-60
-158
-246
-255
-263
-275
-274
-224
-188
-196
-192
-156
-126
-108
-86
-59
-41
-34
-28
-23
-19
-17
-15
-13
-12
-12
-11
-9
-8
-9
-9
-7
-6
-5
-4
-4
-4
-4
-3
-4
1
2
3
4
5
6
7
8
9
10
12
14
15
16
18
20
21
23
26
28
31
33
35
37
39
40
39
38
39
40
39
38
37
35
33
28
23
22
21
18
15
8
2
3
4
4
4
2
0
0
0
0
0
0
0
-1
-2
-2
-2
-3
-4
-2
-1
-4
-5
-3
-2
-1
0
1
2
3
4
4
4
5
6
7
9
11
12
13
14
14
14
14
16
18
19
20
21
22
23
24
24
24
24
24
23
22
21
20
20
20
23
23
20
18
18
18
17
16
15
13
11
11
13
13
11
10
10
8
5
4
4
5
4
4
4
3
2
1
0
0
0
-2
-4
-3
-2
-3
-4
-4
-4
-6
-8
-7
-6
-6
-6
-5
-4
-5
-6
-6
-6
-7
-8
-8
-8
-7
-6
-6
-6
-6
-6
-7
-8
-8
-8
-8
-6
-4
-5
-6
-6
-6
-6
-6
-6
-6
-6
-6
-6
-6
-5
-4
-4
-4
-3
-2
-2
-2
-2
-2
-2
-2
-1
0
-1
-1
1
2
1
0
1
2
2
2
4
3
2
2
2
2
2
1
0
-1
-2
-2
-2
-2
-2
-4
-6
-6
-6
-6
-6
-7
-8
-8
-8
-8
-8
-9
-10
-10
-10
-10
-10
-10
-10
-10
-10
-11
-12
-13
-14
-14
-13
-10
-7
-4
-2
0
2
4
8
12
15
18
18
17
12
7
3
0
-1
-1
2
-1
-13
-18
-17
-16
-16
-16
-15
-14
-13
-17
-24
-26
-25
-24
-24
-23
-21
-20
-21
-22
-22
-21
-20
-20
-19
-11
-4
-5
-8
-20
-30
-29
-31
-42
-82
-171
-228
-238
-258
-290
-280
-227
-204
-208
-189
-153
-128
-109
-83
-56
-42
-33
-28
-25
-23
-21
-20
-19
-17
-15
-14
-12
-11
-10
-10
-10
-10
-10
-10
-10
-8
-6
-6
-6
-4
-2
-3
-4
-2
0
1
2
2
3
5
7
9
11
13
15
17
18
19
20
21
24
27
28
27
28
31
31
32
28
28
27
26
24
22
19
16
13
10
8
6
5
4
2
0
-2
-4
-3
-2
-3
-4
-4
-5
-8
-10
-9
-8
-9
-10
-9
-8
-9
-10
-10
-10
-11
-12
-11
-10
-9
-8
-8
-7
-6
-7
-8
-6
-4
-4
-4
-2
0
-2
-3
1
4
3
2
4
6
5
5
8
10
9
8
8
8
8
8
8
8
9
10
9
8
9
8
5
4
4
3
0
2
4
2
0
-1
-2
-4
-6
-6
-6
-5
-4
-4
-4
-5
-6
-6
-6
-6
-6
-7
-8
-7
-6
-6
-6
-6
-6
-6
-6
-6
-6
-7
-8
-7
-6
-6
-6
-5
-5
-4
-8
-8
-7
-6
-6
-6
-6
-6
-6
-6
-5
-4
-4
-4
-4
-4
-5
-5
-2
0
-3
-4
-4
-4
-3
-2
-2
-1
1
2
1
0
0
0
-1
-2
-1
0
-1
-1
1
1
0
2
4
1
-2
1
4
3
2
2
2
2
2
3
4
3
2
2
2
1
0
0
0
1
1
-1
-1
1
1
-1
-2
-2
-2
-3
-4
-3
-2
-3
-4
-3
-3
-6
-6
-6
-4
-2
0
2
4
6
10
15
19
22
20
17
14
11
7
4
3
2
-1
-5
-11
-14
-15
-16
-16
-15
-13
-11
-9
-11
-15
-16
-17
-18
-18
-18
-17
-14
-16
-10
-10
-8
-6
-6
-5
2
8
9
10
5
0
-11
-17
-14
-39
-113
-172
-212
-247
-277
-276
-244
-220
-200
-180
-160
-131
-98
-69
-41
-25
-11
-4
3
5
7
9
11
13
15
16
16
17
18
19
20
19
18
19
20
20
20
22
24
24
24
24
24
25
27
30
32
31
31
33
34
35
37
39
40
40
42
45
46
47
49
51
52
51
53
57
58
56
55
54
52
50
49
48
47
46
42
38
36
34
32
30
28
26
25
24
23
22
25
25
23
22
21
20
20
20
20
20
20
20
20
20
19
18
19
20
20
20
20
19
20
22
24
24
24
26
28
28
28
29
30
31
32
34
36
36
36
37
38
38
38
39
40
40
40
41
42
41
40
39
38
39
39
37
36
37
38
37
36
36
33
30
31
32
31
30
30
30
29
28
28
28
27
26
27
28
26
24
26
28
28
28
27
26
26
26
27
28
27
25
23
23
25
26
25
24
24
24
23
22
22
22
22
22
22
19
16
16
16
16
16
13
10
11
12
11
10
10
9
6
4
6
8
7
6
5
4
5
6
5
4
5
6
5
4
4
4
5
6
5
4
4
4
4
3
4
5
6
5
4
4
4
4
4
6
8
7
6
7
8
9
10
9
8
9
10
9
9
11
11
9
9
11
12
12
12
11
10
9
9
11
12
11
10
10
10
10
10
10
11
12
14
16
20
24
25
27
32
36
36
36
34
30
25
22
21
19
17
14
9
4
0
-2
-3
-3
-1
0
-1
-4
-7
-9
-11
-12
-13
-14
-14
-12
-8
-9
-10
-8
-6
-6
-6
-1
5
11
15
10
2
-15
-22
-10
-21
-70
-131
-206
-252
-267
-273
-271
-245
-201
-184
-185
-158
-116
-88
-66
-49
-33
-21
-10
-6
-3
-2
-3
-2
-4
2
2
2
2
4
6
5
4
6
8
7
6
8
10
9
8
10
12
12
12
15
16
17
19
21
22
21
22
25
28
31
32
33
34
35
39
43
45
47
48
49
51
52
51
50
50
50
47
44
43
42
38
34
32
29
25
22
20
18
18
18
16
14
14
14
13
12
12
12
11
10
10
10
9
8
9
9
7
6
6
6
6
6
6
6
6
5
4
5
6
6
6
7
8
10
12
12
12
12
12
13
14
15
16
19
20
19
18
19
20
21
22
21
20
21
22
21
20
21
21
19
18
18
18
18
16
16
13
10
10
10
10
10
8
6
6
6
5
4
5
6
6
6
5
4
4
4
5
6
5
4
4
4
4
4
4
3
1
1
3
4
3
2
1
0
0
-2
-4
0
4
2
0
-2
-4
-4
-4
-2
0
-1
-2
-1
0
0
0
1
2
1
0
0
0
0
0
0
0
1
1
-1
-1
1
2
2
2
3
3
1
0
1
2
2
1
0
0
0
1
2
0
-2
-1
0
0
0
0
0
-1
-2
-2
-2
-1
0
-1
-2
-2
-2
-3
-4
-4
-4
-3
-3
-5
-6
-6
-6
-6
-6
-5
-4
-5
-5
-6
-3
-4
-5
-6
-6
-6
-6
-6
-6
-6
-7
-8
-7
-6
-5
-5
-8
-10
-10
-9
-4
0
4
6
7
10
14
18
21
24
27
28
27
22
17
16
15
14
13
12
11
2
-6
-5
-4
-5
-6
-7
-8
-9
-10
-12
-14
-17
-20
-16
-14
-14
-14
-14
-14
-14
-14
-13
-12
-11
-4
7
10
6
-7
-25
-21
-7
-16
-33
-118
-217
-239
-251
-265
-279
-233
-184
-190
-195
-163
-132
-112
-90
-63
-39
-31
-23
-18
-14
-12
-10
-8
-6
-5
-4
-3
-2
-2
-2
-1
1
3
4
4
4
4
6
11
12
11
10
11
12
12
15
19
20
20
24
26
27
28
31
34
37
40
40
40
45
48
50
52
54
56
55
54
55
56
55
53
51
50
49
47
45
41
36
34
33
30
27
26
25
24
24
23
21
20
20
19
18
17
16
17
18
18
18
17
16
17
18
16
14
18
20
18
16
18
20
20
20
19
19
21
22
21
21
23
24
24
24
25
26
25
25
27
28
28
28
28
28
30
30
30
30
30
29
28
30
32
31
30
31
32
30
28
28
28
26
24
25
26
25
24
23
22
22
21
18
16
17
18
18
18
18
18
17
16
17
17
15
14
14
15
14
14
14
13
12
12
12
10
8
10
12
10
8
10
12
10
8
8
8
8
7
5
4
5
6
7
8
7
6
5
4
4
4
4
4
5
5
3
2
2
3
4
4
4
3
2
3
4
4
4
3
2
0
-2
-1
0
0
0
0
0
0
0
0
0
-1
-2
-2
-2
-2
-2
-1
0
0
0
0
0
-1
-2
-2
-2
-2
-2
-4
-3
-2
-1
0
-1
-2
-2
-2
0
2
3
5
9
12
14
17
21
26
31
34
31
28
24
21
19
15
10
11
16
12
3
0
-1
-2
-3
-4
-4
-4
-3
-4
-2
-10
-12
-10
-8
-7
-6
-7
-8
-9
-10
-9
-8
-6
-2
6
11
5
-3
-15
-22
-19
-24
-36
-93
-186
-228
-240
-264
-296
-273
-225
-210
-207
-180
-146
-120
-95
-68
-40
-28
-17
-11
-6
-4
-2
-1
0
2
4
6
8
9
10
10
10
12
14
15
16
17
18
17
17
20
22
22
23
25
26
26
28
31
32
33
35
37
39
41
42
42
45
49
50
50
55
60
58
56
58
60
58
56
58
60
57
54
53
51
46
42
41
39
36
33
28
26
26
26
25
24
23
22
21
20
20
19
17
16
16
16
15
14
14
14
14
12
12
12
12
12
12
11
10
11
12
13
14
13
12
13
14
15
16
17
18
18
19
21
21
19
19
21
22
23
24
25
26
26
26
27
27
25
24
25
26
26
26
26
26
26
26
26
26
26
25
24
26
28
26
24
25
26
24
22
22
22
21
20
21
22
22
21
18
17
19
19
17
16
15
14
14
15
17
17
15
14
13
12
12
13
14
12
10
10
10
10
10
10
10
9
8
6
4
4
4
6
8
7
6
6
6
6
6
7
8
8
8
8
8
8
8
7
6
7
8
7
6
7
8
8
6
6
5
4
3
2
2
2
3
4
4
4
2
0
0
0
-1
-2
-1
0
-1
-2
-1
0
0
0
-1
-2
-1
0
-1
-2
-1
0
1
2
1
0
-1
-1
1
0
-2
0
2
4
6
9
12
14
17
22
27
32
36
34
31
27
23
19
16
15
15
17
13
3
-2
-2
-2
-2
-2
-3
-4
-4
-6
-9
-11
-13
-14
-14
-13
-11
-10
-12
-11
-10
-10
-10
-9
-7
3
12
9
4
-6
-14
-16
-19
-23
-61
-151
-210
-229
-255
-287
-277
-229
-207
-204
-183
-153
-125
-100
-71
-41
-27
-16
-10
-3
0
3
4
5
6
6
10
12
12
12
12
12
12
12
14
16
17
18
19
20
21
22
23
24
26
28
29
30
31
33
35
36
36
37
39
40
41
44
47
48
48
49
51
52
53
54
55
56
56
55
54
53
52
50
48
45
42
38
34
32
30
26
24
23
22
20
18
19
20
19
18
17
16
15
14
15
16
15
14
13
12
12
12
11
10
10
10
10
10
12
12
12
13
14
14
14
17
20
21
22
22
22
23
24
24
24
25
26
26
26
27
28
28
28
28
28
29
30
30
30
30
30
29
28
28
28
28
26
23
22
22
21
20
20
20
18
16
14
12
12
12
11
10
9
8
8
8
6
4
3
2
2
2
1
0
1
1
-1
-3
-5
-6
-6
-6
-6
-6
-7
-8
-7
-6
-6
-6
-6
-6
-6
-7
-8
-8
-8
-7
-6
-5
-4
-6
-8
-7
-6
-6
-6
-7
-8
-6
-4
-5
-6
-6
-6
-6
-6
-5
-4
-5
-6
-5
-4
-5
-6
-5
-4
-5
-6
-6
-6
-6
-6
-8
-6
-4
-6
-8
-9
-10
-9
-8
-6
-4
-6
-8
-7
-6
-6
-6
-6
-6
-8
-9
-6
-4
-5
-6
-6
-7
-9
-10
-10
-10
-10
-10
-9
-8
-9
-10
-9
-8
-9
-10
-10
-8
-6
-4
-2
0
2
4
6
9
13
19
24
21
18
17
15
11
8
6
4
1
-2
-7
-11
-14
-16
-16
-16
-16
-16
-15
-16
-19
-22
-25
-26
-27
-26
-23
-22
-22
-22
-22
-21
-20
-20
-20
-15
-9
0
7
2
-6
-25
-34
-18
-25
-73
-134
-212
-260
-270
-276
-276
-252
-207
-191
-196
-171
-128
-101
-82
-61
-41
-29
-20
-15
-11
-10
-9
-8
-8
-6
-2
-2
-2
1
4
1
-2
0
2
2
2
3
4
4
5
8
10
9
8
10
12
12
13
15
16
17
18
19
20
21
23
25
26
26
29
33
34
34
34
33
34
32
34
30
32
34
30
26
26
26
22
18
15
12
10
8
6
4
3
2
1
0
3
3
0
-1
1
2
1
0
0
1
3
4
3
2
1
0
0
0
1
2
2
3
4
3
2
3
4
5
6
8
10
9
8
11
14
13
12
13
14
15
16
17
18
18
18
18
18
19
20
20
20
19
17
15
15
17
18
17
16
15
13
11
10
12
10
8
7
6
7
8
6
4
2
0
-1
-2
-2
-2
-2
-2
-2
-3
-6
-8
-7
-6
-6
-6
-6
-6
-7
-8
-7
-7
-9
-10
-10
-10
-10
-10
-11
-12
-12
-13
-12
-13
-10
-11
-12
-13
-14
-13
-12
-12
-12
-13
-14
-13
-12
-13
-14
-13
-12
-12
-12
-12
-12
-12
-12
-11
-10
-11
-12
-13
-14
-13
-12
-12
-12
-12
-12
-13
-14
-14
-14
-14
-14
-14
-15
-16
-15
-14
-15
-16
-15
-14
-14
-14
-13
-12
-13
-14
-14
-14
-14
-14
-14
-14
-13
-12
-12
-12
-11
-10
-10
-10
-10
-11
-13
-14
-13
-12
-12
-12
-12
-12
-13
-14
-12
-15
-18
-17
-16
-15
-14
-14
-14
-15
-16
-17
-18
-18
-18
-18
-18
-17
-16
-17
-18
-15
-15
-17
-18
-17
-16
-15
-14
-13
-13
-15
-16
-17
-17
-15
-14
-14
-14
-14
-14
-14
-14
-14
-13
-12
-9
-6
-3
0
2
4
9
13
18
22
20
17
13
9
5
1
-2
-2
2
-2
-13
-18
-18
-18
-19
-20
-19
-18
-18
-20
-23
-26
-29
-30
-29
-28
-27
-26
-26
-25
-24
-23
-22
-22
-22
-16
-12
-11
-11
-17
-24
-31
-36
-35
-64
-139
-195
-229
-259
-287
-286
-259
-236
-214
-197
-181
-154
-121
-92
-65
-49
-37
-29
-21
-20
-19
-14
-9
-8
-6
-7
-8
-7
-6
-3
0
0
0
1
2
2
2
4
6
7
8
9
10
10
11
16
18
18
18
18
19
21
23
25
27
29
30
31
34
37
38
37
38
41
42
42
42
42
43
44
41
38
36
34
31
28
26
23
18
14
12
9
6
4
2
-1
-4
-6
-5
-5
-7
-8
-8
-9
-11
-12
-13
-14
-15
-16
-16
-16
-17
-18
-19
-19
-17
-19
-22
-21
-20
-23
-26
-24
-22
-23
-24
-22
-20
-21
-22
-21
-20
-20
-20
-19
-18
-17
-16
-16
-16
-16
-16
-17
-17
-15
-14
-13
-12
-13
-15
-17
-18
-17
-17
-19
-20
-19
-18
-16
-17
-18
-19
-20
-19
-18
-20
-22
-21
-20
-20
-20
-21
-22
-21
-20
-21
-22
-22
-22
-21
-20
-19
-18
-19
-20
-19
-18
-18
-18
-18
-18
-18
-18
-17
-15
-13
-12
-13
-14
-14
-11
-10
-9
-8
-8
-8
-8
-8
-6
-4
-5
-6
-5
-4
-5
-6
-4
-2
-3
-4
-4
-4
-3
-2
-1
0
0
0
0
0
0
0
1
0
-3
-4
-3
-2
-2
-2
-2
-3
-4
-4
-4
-3
-2
-3
-4
-3
-2
-2
-2
-2
-2
-3
-4
-3
-2
-3
-4
-2
-1
-3
-4
-3
-2
-2
-2
-2
-2
-3
-3
-1
0
0
0
-1
-2
-2
-2
-1
0
2
0
-2
-1
0
0
0
0
0
0
0
1
2
2
2
1
0
-1
-2
-2
-2
1
2
1
0
1
3
5
8
12
15
17
20
23
28
33
34
33
28
23
20
22
13
10
12
14
6
-2
-3
-4
-3
-2
-3
-4
-3
-3
-8
-12
-12
-12
-12
-12
-13
-14
-14
-14
-13
-12
-12
-12
-13
-7
5
7
5
-4
-16
-19
-21
-26
-31
-113
-200
-225
-248
-278
-302
-250
-204
-205
-201
-166
-133
-109
-83
-57
-35
-22
-13
-9
-6
-4
-2
0
2
3
5
7
8
9
10
9
9
11
12
12
12
13
14
14
15
17
18
18
18
20
22
24
24
24
28
32
32
32
33
34
36
38
41
44
45
46
48
50
51
52
53
54
54
54
54
53
50
47
45
43
41
38
35
32
29
27
25
22
19
18
18
18
16
16
16
15
14
14
14
13
12
12
12
12
12
11
10
10
10
9
8
9
10
11
12
11
10
10
10
10
10
11
12
13
14
15
17
19
20
19
18
19
22
24
25
26
26
26
24
22
23
24
24
24
24
24
23
22
23
24
22
20
20
19
16
14
15
16
16
15
11
11
13
14
13
12
12
12
11
10
9
8
9
10
8
7
6
6
6
7
8
7
6
6
6
5
4
5
6
5
4
5
6
6
6
5
3
1
1
3
4
3
2
3
3
1
0
0
0
0
0
0
0
0
0
0
1
0
-1
-2
-2
-2
-2
-2
-1
0
0
0
2
4
4
4
4
4
2
0
3
5
7
7
5
4
4
5
7
8
7
6
6
6
6
6
5
4
5
5
3
4
6
6
6
6
6
4
2
4
6
6
6
5
4
4
4
4
4
5
6
5
4
3
2
2
2
2
2
3
5
7
8
9
12
15
18
21
26
31
30
27
20
12
10
8
5
2
6
9
-4
-14
-15
-16
-15
-14
-14
-14
-15
-16
-18
-20
-21
-22
-22
-22
-23
-23
-21
-20
-19
-18
-19
-20
-19
-11
-2
-1
-3
-11
-21
-22
-22
-22
-22
-111
-195
-221
-248
-280
-302
-252
-212
-210
-202
-173
-145
-118
-91
-61
-39
-28
-20
-14
-10
-7
-5
-3
-2
-1
1
3
4
4
4
4
4
4
5
7
8
8
8
8
8
9
11
12
15
18
16
14
18
22
23
24
26
28
29
30
32
34
36
38
40
42
44
47
49
49
47
47
49
49
47
46
46
44
41
38
35
32
29
24
19
18
18
16
12
13
14
11
8
9
10
7
4
7
10
7
4
5
6
5
4
4
4
4
4
4
4
3
2
3
4
4
4
3
2
2
2
3
4
5
6
6
6
7
9
8
10
8
10
12
13
14
14
14
14
14
15
16
15
14
15
16
15
14
14
14
13
12
13
13
11
10
9
8
9
9
7
5
3
2
3
4
4
4
4
3
1
1
2
2
2
2
2
1
0
-1
-2
-1
0
0
0
0
0
0
0
-1
-2
-2
-2
-3
-4
-3
-2
-2
-2
-3
-3
-1
0
0
0
-1
-2
-1
0
0
0
-1
-2
-2
-2
-2
-1
0
-1
-2
-2
-2
-3
-4
-3
-2
-2
-2
-3
-4
-3
-2
-3
-4
-4
-4
-4
-3
-1
-1
-3
-4
-3
-2
-2
-2
-1
-2
-5
-6
-5
-4
-4
-4
-4
-4
-4
-5
-6
-5
-4
-4
-4
-4
-4
-4
-4
-4
-4
-4
-4
-5
-5
-2
0
-3
-4
-5
-6
-5
-4
-4
-4
-3
-2
-2
-2
-2
-3
-5
-5
-3
-2
-3
-4
-4
-4
-4
-5
-6
-5
-4
0
4
5
6
8
10
13
18
25
30
29
26
21
17
14
9
3
2
7
3
-11
-16
-15
-14
-14
-14
-13
-12
-12
-15
-19
-22
-25
-25
-23
-22
-22
-21
-20
-19
-18
-18
-18
-17
-14
-3
6
4
-1
-11
-16
-10
-6
-4
-44
-141
-206
-236
-260
-281
-264
-219
-199
-193
-179
-161
-134
-104
-76
-49
-39
-32
-23
-13
-12
-11
-10
-10
-9
-8
-7
-6
-4
-2
-2
-2
-3
-4
-4
-4
-2
0
1
2
1
0
2
4
5
6
5
6
10
13
15
17
19
20
19
21
26
28
27
28
31
33
35
38
41
41
40
40
40
40
40
38
36
34
32
29
26
26
25
18
14
13
11
8
6
7
7
5
4
5
5
3
3
5
6
5
3
1
0
1
2
2
2
2
1
-1
0
4
2
0
2
4
4
4
6
8
8
8
9
10
11
12
14
16
17
18
17
16
19
20
21
22
23
24
24
25
27
28
27
26
27
28
28
28
27
26
26
26
26
25
24
24
24
23
22
21
20
21
22
22
22
20
17
14
12
13
14
12
10
10
10
9
8
8
8
8
7
5
4
3
2
2
2
3
3
1
0
1
1
-1
0
2
0
-2
1
4
3
2
2
2
2
2
2
2
2
2
2
2
3
4
5
6
5
4
3
3
5
6
5
4
4
4
3
2
3
4
4
4
4
4
4
4
6
5
4
4
4
4
4
4
4
6
8
6
4
5
6
5
4
5
6
5
4
5
6
5
4
5
6
5
4
5
6
6
6
5
4
3
2
1
0
1
1
2
0
2
0
-2
-2
-2
-4
-6
-5
-4
-3
-2
0
3
6
9
12
15
19
23
28
30
31
30
26
23
20
16
12
12
16
12
2
0
0
-1
-3
-2
1
2
3
0
-4
-6
-8
-5
-2
-4
-6
-4
-2
0
2
1
0
1
4
10
14
15
13
6
-1
-8
-12
-11
-53
-127
-176
-212
-243
-270
-267
-252
-222
-188
-169
-153
-121
-87
-58
-29
-17
-4
3
10
10
10
13
16
17
18
19
20
19
18
19
20
21
22
20
18
20
22
23
24
24
24
23
23
26
28
28
30
33
34
33
34
37
39
41
43
45
46
46
50
52
55
58
57
56
58
60
60
60
60
60
57
54
53
51
47
44
42
39
36
33
30
27
24
22
22
21
19
18
19
20
19
18
17
16
16
16
17
17
15
13
12
13
14
12
10
11
12
12
12
12
12
12
12
11
10
12
14
14
14
16
18
19
20
20
20
21
23
27
27
25
25
27
28
29
30
30
29
27
26
27
28
26
26
26
25
24
23
22
20
18
17
16
16
16
16
16
16
15
11
8
10
12
11
10
11
12
11
10
9
8
8
8
8
8
7
6
7
8
8
8
7
6
6
6
6
6
6
5
4
4
4
4
4
4
4
4
4
3
2
2
2
2
2
1
0
-1
-2
-1
0
-1
-3
-5
-6
-5
-4
-4
-5
-7
-8
-8
-8
-8
-8
-7
-7
-8
-9
-10
-11
-12
-12
-12
-12
-12
-12
-12
-11
-10
-11
-12
-13
-14
-13
-12
-11
-11
-13
-14
-14
-14
-14
-14
-13
-12
-13
-14
-13
-12
-13
-14
-14
-14
-14
-14
-14
-14
-12
-11
-10
-11
-12
-10
-8
-7
-6
-6
-6
-3
1
5
9
13
16
18
22
27
30
30
29
27
24
20
17
15
16
19
13
3
0
-1
-2
-2
-1
1
2
2
-2
2
-9
-10
-10
-10
-10
-10
-9
-8
-7
-6
-6
-6
-7
-6
2
8
8
6
0
-8
-17
-21
-19
-57
-128
-182
-225
-258
-285
-276
-251
-225
-200
-181
-165
-134
-100
-72
-44
-31
-19
-10
-2
-1
0
3
6
5
4
5
6
6
6
9
12
10
8
9
10
9
8
10
12
13
14
15
16
15
15
17
18
19
21
23
25
27
28
28
29
31
32
33
36
40
40
40
43
46
47
48
48
48
47
46
45
44
42
40
39
37
34
31
27
23
20
18
17
16
16
15
13
13
15
15
13
12
12
12
12
12
11
10
10
10
10
10
10
10
10
11
12
10
8
11
14
14
14
15
16
16
16
17
18
20
22
23
24
25
26
26
26
27
28
28
28
29
30
30
30
30
30
29
28
28
27
25
24
24
23
22
23
24
21
18
17
16
15
14
13
12
11
10
9
8
8
8
6
4
5
5
2
0
0
0
0
0
0
-1
-3
-4
-3
-2
-2
-2
-2
-2
-3
-4
-4
-4
-4
-6
-8
-7
-6
-6
-6
-6
-6
-7
-8
-7
-6
-8
-10
-9
-8
-10
-12
-11
-10
-11
-12
-11
-10
-11
-12
-12
-12
-11
-10
-11
-12
-11
-11
-13
-13
-11
-11
-10
-14
-14
-13
-12
-11
-10
-12
-14
-12
-10
-10
-10
-11
-12
-11
-10
-10
-10
-8
-6
-7
-8
-8
-8
-8
-8
-7
-6
-6
-6
-5
-4
-3
-2
-1
0
-1
-2
-2
-2
-3
-4
-4
-3
-2
-4
-6
-4
-2
-3
-4
-3
-2
-2
-2
2
4
6
9
12
14
16
20
24
26
27
26
22
17
12
9
7
6
6
2
-4
-9
-13
-14
-14
-14
-15
-14
-10
-14
-18
-21
-24
-24
-24
-23
-22
-21
-20
-20
-20
-20
-20
-19
-17
-14
-8
1
4
-3
-15
-32
-31
-15
-38
-87
-156
-235
-265
-275
-278
-277
-240
-195
-189
-191
-156
-116
-93
-114
-55
-40
-27
-14
-14
-14
-12
-10
-11
-12
-7
-4
-5
-6
-5
-4
-3
-2
-2
-2
-2
-2
-1
0
1
3
5
6
7
7
5
6
9
10
9
9
11
12
13
17
21
21
20
22
24
26
28
31
34
35
36
36
36
35
34
32
30
30
28
23
20
20
19
16
12
7
2
-2
-3
-1
0
0
-1
-3
-4
-4
-4
-5
-6
-5
-4
-5
-6
-6
-6
-6
-6
-6
-8
-10
-9
-8
-8
-8
-8
-8
-8
-8
-6
-4
-4
-4
-5
-6
-3
-2
-3
-2
2
3
1
2
6
8
8
10
13
14
13
12
12
12
13
14
14
12
12
13
14
15
16
15
14
11
8
9
10
9
8
7
6
6
6
5
4
4
4
3
2
1
0
0
-1
-3
-4
-5
-6
-5
-5
-7
-8
-8
-8
-9
-10
-9
-9
-10
-11
-12
-12
-12
-13
-14
-13
-12
-13
-14
-13
-12
-12
-12
-13
-14
-14
-14
-13
-13
-15
-16
-17
-18
-17
-16
-16
-16
-16
-16
-17
-18
-17
-16
-16
-16
-16
-17
-19
-19
-16
-16
-16
-17
-18
-18
-18
-17
-16
-17
-18
-18
-18
-17
-16
-16
-16
-17
-18
-18
-18
-18
-19
-21
-22
-21
-21
-23
-22
-19
-18
-19
-20
-19
-18
-18
-18
-18
-18
-17
-16
-16
-16
-14
-15
-16
-14
-12
-13
-14
-12
-10
-11
-12
-10
-8
-9
-10
-9
-8
-8
-8
-7
-6
-7
-8
-7
-6
-5
-4
-4
-4
-4
-4
-5
-5
-3
-2
-3
-4
-4
-4
-5
-5
-4
-4
-4
-4
-4
-2
0
2
4
5
7
12
16
20
23
26
28
27
26
24
20
16
13
10
8
9
7
0
-3
-5
-6
-7
-8
-7
-5
-3
-4
-7
-9
-11
-12
-12
-11
-10
-11
-12
-10
-8
-8
-8
-8
-8
-5
-1
4
6
-1
-12
-27
-34
-28
-53
-115
-170
-220
-253
-272
-278
-274
-244
-202
-187
-182
-152
-115
-88
-62
-45
-30
-20
-11
-10
-10
-6
-4
-2
0
0
0
2
4
4
4
5
6
6
6
6
6
8
10
11
12
13
14
15
16
17
18
19
20
21
23
25
27
29
31
33
34
35
37
39
40
41
44
46
48
50
50
50
51
52
49
46
45
44
43
41
37
33
30
27
24
22
21
19
16
14
15
16
16
16
15
14
14
14
13
12
11
10
11
12
11
10
9
8
6
7
8
8
8
9
10
10
10
11
12
13
14
14
15
18
20
19
19
22
24
25
26
27
28
29
30
30
30
31
32
32
32
33
34
33
32
33
34
33
32
32
30
28
29
30
29
28
27
26
25
24
24
24
24
24
22
20
20
20
20
20
19
18
18
19
21
21
19
18
19
19
17
16
16
16
17
18
18
18
17
16
16
18
20
18
16
17
18
17
16
16
16
15
14
15
16
15
14
14
14
13
12
13
14
14
14
13
12
11
10
10
10
10
10
10
10
9
8
9
10
10
10
9
8
10
9
8
9
10
8
6
7
8
9
10
9
8
8
8
7
6
7
8
7
6
6
6
7
8
7
6
5
4
3
2
3
4
4
4
3
2
3
4
5
6
6
3
2
3
4
3
2
2
2
2
2
2
2
4
6
5
4
3
2
3
4
7
8
9
11
14
19
24
27
29
31
33
33
31
26
19
18
17
16
15
13
11
5
0
-2
-4
-2
0
2
4
1
-2
-5
-8
-8
-8
-7
-6
-6
-6
-5
-4
-4
-4
-4
-2
2
7
13
13
8
-6
-25
-24
-16
-55
-108
-170
-234
-258
-276
-277
-275
-229
-182
-180
-176
-138
-102
-77
-54
-35
-19
-9
-2
0
2
3
4
4
5
8
10
9
9
12
14
14
14
14
14
14
14
15
17
19
20
20
21
23
24
24
25
27
28
28
30
30
33
36
39
42
42
42
45
48
50
52
52
52
52
52
54
56
54
52
49
47
45
43
40
38
38
34
28
25
23
21
19
17
15
13
11
11
13
14
13
12
12
11
10
9
8
9
10
8
6
7
8
8
8
8
8
7
6
8
10
9
8
9
10
11
12
12
12
12
13
15
16
16
17
19
20
21
20
17
18
21
22
20
22
24
22
20
22
24
24
24
23
22
21
20
22
24
22
20
21
22
20
18
17
16
16
16
15
14
14
13
11
10
11
12
11
10
9
8
8
8
7
6
6
5
6
4
2
2
2
1
0
0
0
1
2
0
-2
-1
0
0
0
1
2
2
2
2
2
1
0
0
0
1
2
2
2
1
0
0
0
0
0
0
0
1
1
0
-1
-2
-2
-2
-3
-4
-3
-2
-4
-6
-5
-4
-5
-6
-7
-8
-9
-10
-8
-6
-7
-8
-8
-8
-9
-10
-9
-9
-11
-11
-9
-8
-8
-8
-9
-11
-13
-14
-13
-12
-12
-12
-12
-12
-12
-11
-10
-11
-12
-14
-16
-16
-16
-16
-16
-15
-14
-16
-18
-16
-14
-14
-13
-11
-9
-7
-4
0
4
8
12
17
18
17
13
9
7
5
1
-3
-1
-4
-7
-18
-17
-16
-17
-18
-18
-18
-15
-12
-17
-20
-21
-22
-24
-25
-22
-20
-19
-18
-18
-18
-18
-18
-17
-13
-8
-3
2
0
-6
-14
-22
-18
-10
-61
-125
-188
-252
-270
-285
-274
-261
-227
-194
-192
-186
-147
-110
-87
-65
-51
-38
-28
-20
-18
-16
-15
-14
-15
-15
-12
-10
-11
-12
-11
-9
-7
-6
-7
-8
-7
-6
-5
-3
-1
0
0
2
5
6
7
9
12
11
10
13
16
18
20
23
26
27
28
29
30
33
36
37
38
39
40
41
42
42
41
38
36
36
33
27
24
25
23
18
14
11
8
5
4
5
5
3
2
2
0
0
1
2
-1
-4
-5
-6
-6
-6
-5
-4
-5
-6
-8
-10
-9
-8
-7
-6
-7
-8
-7
-6
-6
-6
-6
-6
-6
-6
-6
-6
-5
-4
-4
-4
-4
-4
-3
-2
-1
-1
-2
-2
-2
-2
-2
-3
-4
-3
-2
-4
-6
-5
-4
-6
-8
-10
-12
-13
-14
-13
-13
-16
-19
-21
-21
-19
-19
-21
-22
-21
-21
-23
-24
-23
-22
-22
-22
-22
-22
-21
-20
-20
-19
-18
-19
-20
-20
-20
-19
-18
-20
-22
-20
-18
-16
-14
-16
-18
-16
-14
-16
-18
-15
-14
-14
-14
-14
-14
-14
-14
-14
-14
-14
-14
-15
-16
-15
-14
-14
-15
-17
-18
-18
-15
-14
-15
-16
-16
-16
-17
-18
-17
-16
-17
-18
-17
-16
-16
-16
-16
-16
-16
-16
-17
-18
-17
-16
-15
-14
-14
-14
-15
-16
-15
-14
-13
-12
-12
-12
-12
-12
-11
-10
-11
-11
-10
-10
-10
-8
-6
-8
-10
-9
-8
-9
-10
-9
-8
-10
-12
-12
-12
-12
-12
-13
-14
-15
-16
-15
-14
-15
-16
-16
-15
-13
-13
-15
-16
-15
-15
-17
-18
-19
-20
-19
-18
-18
-20
-22
-22
-22
-23
-24
-25
-26
-26
-26
-27
-28
-28
-28
-30
-32
-32
-32
-33
-34
-33
-32
-33
-33
-30
-27
-25
-23
-21
-18
-15
-10
-4
-4
-7
-10
-13
-19
-25
-27
-26
-27
-24
-34
-44
-45
-46
-46
-46
-44
-42
-42
-42
-45
-48
-49
-50
-49
-48
-47
-46
-45
-44
-43
-42
-41
-40
-39
-33
-25
-22
-22
-30
-41
-43
-41
-44
-49
-122
-204
-229
-249
-280
-309
-266
-226
-220
-211
-183
-156
-127
-99
-72
-50
-38
-30
-26
-23
-20
-18
-16
-14
-12
-10
-10
-10
-9
-8
-7
-6
-6
-5
-3
-2
-1
0
1
2
2
2
3
5
7
8
8
12
16
17
18
18
18
20
22
25
28
31
34
36
38
39
41
44
46
45
45
48
49
46
44
45
44
40
37
35
32
27
26
25
21
17
16
15
14
13
11
12
9
10
7
4
5
6
6
6
5
4
2
0
2
4
3
2
2
2
3
4
3
2
3
4
4
5
7
8
8
8
9
10
10
12
15
16
15
15
17
18
18
19
20
20
20
20
20
20
20
20
20
21
22
23
24
22
20
20
20
19
17
14
13
15
15
13
12
11
9
5
5
7
7
5
4
4
4
3
3
5
6
6
4
0
1
2
1
0
1
2
0
-2
-1
0
-1
-2
-2
-2
-3
-4
-3
-2
-3
-4
-3
-3
-5
-5
-3
-2
-3
-4
-5
-6
-5
-4
-4
-4
-3
-2
-3
-4
-3
-3
-2
-5
-4
-5
-6
-6
-6
-5
-4
-4
-4
-6
-8
-6
-4
-4
-4
-5
-6
-4
-2
-5
-6
-5
-4
-5
-6
-5
-4
-4
-4
-3
-3
-5
-5
-3
-2
-2
-2
-2
-2
-2
-1
0
0
0
-1
-2
-1
0
-1
-2
0
2
2
2
2
2
2
2
3
4
3
3
5
6
6
6
6
6
5
4
5
6
7
7
5
5
7
8
8
9
11
12
14
17
20
22
24
28
32
36
40
39
37
32
28
26
23
19
17
20
19
11
6
3
3
5
6
6
6
7
6
2
0
-1
-2
-1
0
0
0
1
2
2
2
2
4
4
12
20
18
15
7
0
-1
-2
-5
-32
-119
-186
-212
-240
-273
-273
-227
-199
-192
-175
-150
-123
-95
-67
-38
-21
-10
-3
2
5
7
10
13
14
15
16
15
14
15
15
14
16
18
19
20
20
20
20
20
21
22
23
24
25
26
27
28
28
28
30
32
32
34
38
40
39
40
44
46
47
49
51
52
53
55
57
58
58
58
58
58
56
52
48
46
44
43
42
38
34
31
27
23
20
18
16
17
18
17
16
16
16
13
12
13
13
11
10
11
11
9
8
7
7
9
10
9
8
8
8
7
8
6
10
8
9
10
11
12
13
14
14
14
17
20
20
20
21
22
22
22
23
24
25
26
26
26
26
26
26
26
26
25
23
22
23
24
24
24
23
22
22
21
19
17
16
18
20
19
18
17
16
15
14
14
14
13
12
12
12
13
14
13
12
10
8
9
10
9
8
8
8
9
9
7
6
7
7
5
4
4
5
7
8
7
6
6
6
6
6
6
4
2
3
4
4
4
4
4
3
2
1
0
0
0
0
0
-1
-2
-2
-2
-2
-2
-3
-4
-3
-2
-2
-2
-2
-2
-3
-4
-5
-5
-3
-2
-2
-4
-4
-4
-4
-5
-6
-4
-2
-4
-6
-4
-2
-3
-4
-4
-4
-3
-2
-2
-2
-2
-2
-3
-4
-3
-2
-2
-2
-1
-1
-3
-4
-3
-2
-2
-2
-2
-2
-3
-2
1
4
6
9
12
13
14
19
25
32
38
34
29
24
20
16
14
13
12
13
11
4
-1
-3
-4
-4
-4
-4
-4
-3
-5
-10
-12
-13
-14
-13
-11
-9
-8
-7
-7
-9
-7
-2
-2
-2
6
14
9
2
-11
-21
-15
-14
-30
-71
-169
-237
-247
-263
-286
-276
-220
-193
-200
-183
-143
-114
-93
-70
-46
-32
-21
-16
-11
-9
-7
-6
-5
-3
-1
0
0
0
0
2
2
5
8
6
4
7
10
10
10
10
10
13
16
15
14
16
19
22
24
23
22
22
23
26
29
31
32
33
34
35
38
41
42
41
41
43
44
43
42
42
40
38
34
30
29
28
25
22
19
16
12
8
9
10
8
6
6
6
5
4
5
6
6
5
3
2
1
0
1
1
-1
-2
-1
0
-1
-2
-1
0
0
0
-1
-2
0
1
2
1
0
1
2
5
8
8
8
7
6
9
12
13
14
14
14
14
14
15
15
13
13
16
18
17
16
16
16
16
16
15
14
13
12
11
10
10
8
10
4
4
3
2
2
2
0
-2
-2
-2
-3
-4
-4
-4
-5
-6
-5
-4
-4
-4
-7
-7
-5
-5
-7
-8
-7
-7
-9
-9
-7
-6
-7
-8
-7
-7
-9
-10
-9
-8
-9
-9
-8
-9
-10
-9
-8
-9
-10
-9
-8
-9
-10
-9
-8
-8
-9
-12
-14
-12
-10
-12
-14
-13
-13
-15
-15
-13
-13
-15
-16
-16
-17
-19
-20
-21
-20
-17
-17
-19
-20
-19
-19
-22
-21
-20
-20
-20
-20
-20
-20
-20
-16
-12
-15
-18
-17
-16
-15
-14
-12
-10
-10
-10
-10
-9
-7
-6
-7
-8
-9
-10
-9
-7
-5
-5
-7
-7
-5
-4
-4
-4
-3
-2
-2
-4
-4
-2
0
-2
-4
-2
0
-2
-4
-1
2
1
0
0
-1
-4
-5
-2
0
-1
-2
-3
-4
-5
-5
-2
-1
-3
-4
-3
-2
-3
0
5
7
9
10
11
15
19
25
30
30
30
24
18
18
18
12
8
10
10
1
-6
-6
-6
-7
-8
-9
-10
-8
-8
-13
-16
-16
-16
-17
-17
-13
-12
-12
-12
-13
-14
-13
-10
-7
-2
3
6
9
3
-6
-10
-14
-4
-3
-91
-172
-214
-251
-268
-274
-239
-210
-193
-179
-170
-151
-116
-85
-58
-40
-31
-21
-11
-6
-6
-6
-5
-2
1
2
2
2
2
2
3
4
4
4
4
4
4
6
6
8
10
11
12
12
12
13
14
16
18
20
22
23
24
25
27
30
32
35
37
40
42
43
44
45
47
49
50
50
50
50
50
49
46
43
41
39
36
33
29
26
23
20
20
20
18
16
16
16
16
16
16
16
14
13
16
18
16
14
15
15
13
12
13
14
13
13
17
18
18
18
17
16
17
18
19
20
20
21
23
24
26
26
26
27
28
28
28
32
36
35
34
35
36
36
36
37
38
37
36
37
38
39
40
40
40
39
37
35
34
35
36
36
36
36
35
33
32
32
32
31
30
30
30
30
31
32
31
30
29
28
28
28
28
28
28
28
27
26
26
26
26
26
25
24
24
24
24
24
25
25
23
22
22
22
22
22
22
21
19
20
23
23
21
21
22
20
18
20
22
20
18
20
22
20
18
19
20
19
18
18
18
18
18
18
18
19
19
17
17
20
22
21
20
20
20
20
20
21
21
19
18
19
20
19
18
18
19
20
20
20
20
20
20
20
19
18
18
18
18
18
17
16
17
18
16
14
14
14
13
12
12
12
11
10
11
12
11
10
11
12
12
12
11
11
13
14
14
17
22
25
28
31
34
38
42
48
52
50
48
47
45
41
38
36
35
38
36
27
22
21
19
17
17
19
20
21
20
16
14
13
12
11
10
11
13
15
16
15
16
18
17
16
23
30
31
31
24
16
7
0
1
-19
-89
-149
-193
-230
-257
-266
-250
-225
-190
-169
-159
-133
-96
-65
-39
-21
-8
0
6
10
13
16
19
20
19
18
19
20
20
21
22
22
22
22
22
24
26
27
28
27
26
28
30
31
32
31
30
31
32
35
37
39
41
43
45
47
48
49
52
55
56
57
59
61
63
65
66
66
66
66
65
64
63
62
60
58
56
54
50
46
45
44
42
40
39
38
37
36
36
36
33
32
32
31
29
28
29
30
30
29
27
26
26
26
26
26
25
24
25
26
27
27
26
27
28
28
28
30
32
33
34
35
36
38
40
42
44
44
44
44
44
46
48
47
47
49
50
50
50
50
50
49
48
48
48
48
48
47
45
43
42
42
42
40
39
38
38
38
36
34
34
34
31
28
28
28
28
28
28
28
26
24
23
22
23
24
23
22
23
24
23
22
23
24
23
22
21
20
19
19
21
22
21
20
20
20
20
20
20
19
18
18
18
19
20
19
18
18
18
17
16
16
16
16
16
17
17
14
13
16
17
15
14
13
12
12
12
13
14
13
12
11
10
11
12
11
10
10
10
10
12
14
14
14
13
12
13
14
15
16
16
16
17
18
17
16
18
20
19
17
15
14
14
14
15
16
16
16
16
16
15
14
15
18
21
22
23
26
30
33
36
42
48
48
48
47
45
38
32
31
30
29
27
23
19
15
12
12
12
12
12
13
12
8
4
0
-2
-1
0
1
2
3
4
3
2
3
4
4
8
4
19
24
19
13
-5
-19
-12
-15
-63
-115
-182
-235
-253
-266
-268
-252
-202
-172
-173
-155
-113
-80
-57
-36
-18
-6
3
7
9
12
16
18
19
20
20
20
20
20
21
22
22
24
26
25
24
27
30
28
26
27
28
29
30
32
34
34
34
36
38
38
38
39
41
43
44
44
46
50
52
53
55
57
58
57
56
57
58
57
55
53
51
49
47
44
40
36
33
30
27
24
22
20
18
16
16
16
15
14
13
12
13
14
12
10
11
11
9
8
8
7
4
3
5
6
5
4
4
4
4
4
3
3
5
6
6
10
14
12
10
13
16
15
14
16
18
19
20
20
20
22
24
26
28
27
26
26
27
29
30
29
28
28
26
23
22
23
23
21
20
20
18
15
14
15
14
11
9
8
8
8
7
6
6
6
4
2
3
4
1
-2
-2
-2
-2
-2
-1
0
0
-1
-3
-4
-3
-2
-2
-2
-3
-4
-3
-2
-2
-2
-2
-2
-2
-3
-5
-6
-5
-4
-6
-6
-6
-6
-6
-5
-4
-6
-8
-8
-8
-7
-6
-6
-6
-7
-8
-7
-6
-7
-8
-9
-9
-7
-7
-10
-12
-12
-12
-11
-10
-11
-12
-12
-12
-11
-10
-10
-10
-11
-12
-12
-12
-12
-12
-12
-11
-10
-11
-12
-11
-10
-10
-10
-12
-13
-10
-8
-9
-10
-10
-10
-10
-9
-7
-6
-7
-8
-7
-6
-7
-7
-5
-5
-7
-8
-8
-8
-7
-6
-5
-4
-4
-3
-2
-2
-2
-1
0
3
6
8
10
14
18
20
23
27
30
29
26
20
15
11
8
7
7
9
4
-7
-12
-12
-12
-13
-14
-14
-14
-13
-15
-19
-23
-27
-28
-27
-26
-24
-23
-22
-24
-26
-24
-22
-23
-23
-13
-6
-5
-7
-18
-25
-22
-20
-22
-60
-143
-201
-234
-263
-289
-279
-241
-220
-210
-192
-171
-145
-119
-91
-62
-49
-40
-31
-23
-22
-21
-20
-20
-18
-18
-15
-12
-14
-16
-15
-14
-13
-12
-12
-12
-14
-16
-14
-12
-10
-8
-10
-11
-6
-5
-8
-8
-4
-2
-2
-2
-1
0
1
4
7
8
9
11
13
15
17
18
18
19
20
19
18
18
18
16
14
12
10
8
6
4
1
-3
-7
-10
-12
-14
-16
-16
-16
-16
-18
-22
-23
-21
-20
-21
-22
-23
-24
-25
-25
-23
-23
-25
-26
-25
-25
-27
-27
-24
-25
-26
-25
-24
-25
-26
-24
-22
-22
-22
-22
-22
-20
-18
-16
-14
-14
-14
-15
-15
-12
-11
-13
-13
-11
-10
-11
-12
-12
-12
-12
-12
-12
-13
-15
-16
-17
-18
-18
-19
-18
-22
-22
-23
-24
-26
-28
-30
-32
-31
-30
-32
-34
-37
-40
-41
-42
-42
-42
-43
-44
-44
-44
-45
-46
-47
-48
-49
-51
-53
-54
-53
-52
-53
-54
-54
-55
-57
-58
-57
-57
-59
-58
-56
-57
-58
-58
-58
-60
-62
-61
-60
-59
-58
-57
-56
-57
-58
-58
-58
-57
-56
-55
-54
-55
-56
-56
-55
-53
-52
-52
-52
-52
-52
-51
-50
-49
-48
-48
-48
-48
-48
-47
-46
-48
-47
-46
-45
-44
-44
-44
-43
-42
-42
-42
-43
-44
-43
-42
-43
-44
-43
-42
-43
-44
-43
-42
-43
-44
-45
-46
-47
-48
-48
-48
-49
-51
-53
-54
-53
-52
-53
-54
-54
-54
-54
-57
-58
-57
-56
-58
-60
-61
-62
-60
-58
-59
-60
-62
-64
-63
-62
-62
-62
-62
-62
-63
-63
-61
-60
-60
-59
-57
-55
-53
-49
-44
-41
-39
-33
-26
-25
-27
-29
-31
-33
-35
-37
-38
-36
-34
-40
-46
-47
-48
-48
-48
-46
-44
-43
-42
-46
-48
-49
-50
-48
-46
-44
-42
-43
-43
-41
-40
-39
-38
-38
-34
-26
-24
-25
-32
-40
-43
-45
-48
-51
-126
-207
-227
-246
-278
-306
-266
-229
-219
-207
-184
-161
-134
-108
-81
-59
-47
-37
-33
-30
-28
-26
-25
-24
-21
-20
-19
-18
-18
-18
-17
-16
-15
-14
-13
-12
-12
-10
-7
-6
-6
-6
-6
-6
-6
-4
-2
0
2
3
4
7
10
10
10
13
16
18
20
22
24
26
28
29
30
33
34
35
35
33
32
32
31
29
27
25
21
17
16
17
15
11
10
10
10
9
8
8
7
6
7
8
7
6
4
2
2
2
2
2
1
0
0
0
0
0
-1
-2
-2
-2
-1
0
1
2
3
4
4
5
7
8
8
9
11
12
12
14
17
18
18
19
20
19
18
21
24
23
22
23
24
22
20
21
22
22
22
22
22
21
20
19
18
19
19
17
17
19
18
15
14
14
14
13
12
13
13
11
10
10
10
10
10
10
10
10
9
8
8
8
7
6
6
6
4
2
3
4
4
4
4
4
3
3
6
7
5
4
5
6
6
5
3
2
2
2
2
2
2
2
2
3
5
4
2
5
8
7
6
6
6
6
6
7
8
8
8
8
8
8
8
7
6
7
8
8
8
9
10
9
8
9
10
9
8
9
10
9
8
9
9
7
6
7
8
8
9
10
10
10
11
12
12
12
12
12
13
14
14
14
15
16
14
12
13
14
14
14
14
14
13
13
15
16
16
14
11
12
15
15
13
13
15
16
15
16
14
21
22
27
32
34
36
40
45
51
56
54
51
46
42
41
39
36
34
36
34
25
19
17
16
15
14
13
13
15
13
8
5
3
2
2
2
2
3
5
6
6
6
6
7
8
16
24
22
19
10
2
0
-2
-5
-34
-120
-184
-206
-232
-263
-262
-222
-197
-186
-166
-139
-111
-83
-55
-27
-11
-1
6
12
15
17
18
19
21
23
24
25
26
26
27
28
28
28
29
30
31
32
31
30
32
34
36
38
38
38
37
36
38
40
41
43
45
47
49
51
53
55
57
58
59
62
65
66
66
67
69
70
69
68
68
67
66
63
60
58
56
53
50
47
44
41
38
37
36
34
32
30
28
28
28
27
26
26
26
26
26
25
24
25
26
26
26
26
26
25
24
25
26
27
28
28
29
30
32
34
34
34
34
34
34
34
37
40
41
42
42
42
42
42
42
42
43
44
44
44
45
46
46
46
45
44
43
42
41
40
39
38
38
38
37
35
33
32
30
30
30
29
28
28
28
27
26
25
24
25
26
25
24
24
24
23
22
22
22
22
22
21
20
19
18
18
18
19
18
15
15
17
18
18
18
18
17
15
15
14
17
16
15
14
13
12
13
14
13
12
13
14
13
12
13
14
13
12
12
12
13
14
13
12
13
14
13
12
13
14
14
14
13
12
12
12
13
14
13
12
13
15
16
16
16
17
18
17
16
17
18
18
18
19
20
18
16
18
20
19
18
19
20
20
20
19
18
18
18
17
16
17
18
17
16
15
14
14
14
13
12
12
12
10
8
6
8
10
9
8
7
6
6
6
8
10
11
13
16
19
22
25
29
33
38
39
36
31
25
22
21
20
20
19
17
13
7
5
3
3
5
6
6
6
6
1
-2
-5
-8
-5
-2
-2
-2
-1
0
-2
-4
-1
2
3
7
18
22
16
5
-12
-16
-7
-14
-37
-100
-189
-226
-235
-256
-281
-246
-190
-181
-185
-153
-113
-90
-70
-44
-19
-8
2
7
12
13
14
14
14
18
22
21
20
20
20
19
18
19
20
19
18
19
20
20
20
21
22
22
22
22
23
25
26
25
25
27
28
27
29
33
34
34
35
38
40
42
44
46
47
48
47
46
48
50
47
44
44
44
42
40
38
35
31
28
25
23
20
18
17
16
15
14
13
12
12
12
13
14
13
12
11
10
10
10
10
8
8
8
8
8
8
8
8
8
8
7
6
8
10
11
12
11
10
10
11
14
16
15
14
14
15
17
18
17
16
16
16
15
14
15
16
17
18
17
16
15
13
12
11
10
9
8
7
6
6
6
4
2
0
-2
-2
-2
-2
-2
-3
-4
-5
-6
-6
-6
-7
-7
-4
-3
-7
-8
-7
-6
-6
-6
-5
-4
-5
-6
-5
-4
-4
-4
-6
-5
-4
-5
-6
-4
-2
-4
-6
-4
-2
-3
-4
-1
2
0
-2
-2
-2
-3
-4
-1
0
1
2
1
0
-1
-2
-2
-2
-2
-2
-2
-1
1
2
1
0
1
0
2
-4
-4
-3
-2
-2
-2
-2
-2
-3
-4
-4
-4
-3
-2
-4
-6
-6
-6
-6
-6
-3
-3
-5
-6
-7
-8
-7
-6
-6
-6
-6
-8
-11
-12
-11
-10
-11
-12
-11
-10
-11
-12
-12
-12
-12
-14
-16
-14
-12
-13
-14
-13
-12
-14
-16
-14
-12
-12
-12
-13
-14
-13
-12
-11
-10
-10
-10
-11
-12
-12
-12
-12
-11
-9
-9
-11
-12
-12
-11
-9
-8
-7
-3
2
6
10
13
16
19
22
21
19
11
4
5
6
5
3
0
-4
-10
-14
-14
-14
-17
-18
-17
-16
-16
-17
-20
-23
-25
-26
-25
-23
-21
-19
-17
-16
-17
-18
-17
-14
-16
1
12
7
1
-17
-30
-13
-4
-39
-87
-178
-245
-250
-255
-260
-247
-200
-175
-182
-167
-126
-98
-80
-62
-42
-28
-16
-12
-12
-10
-6
-4
-4
-4
-4
-4
-4
-4
-4
-4
-3
-3
-4
-2
0
0
0
2
4
3
2
5
8
8
8
10
12
13
14
16
18
19
21
23
25
28
30
30
31
35
37
39
40
41
41
39
39
41
42
42
38
33
30
26
23
20
17
14
11
8
4
0
-1
-2
-3
-4
-4
-4
-4
-4
-6
-8
-7
-6
-9
-10
-10
-10
-11
-12
-12
-12
-13
-14
-15
-16
-16
-16
-15
-14
-14
-14
-13
-12
-12
-10
-10
-9
-8
-7
-6
-5
-4
-5
-6
-3
0
0
0
0
0
0
0
1
2
2
2
1
0
1
2
1
0
-1
-2
-3
-4
-3
-3
-5
-6
-6
-7
-9
-10
-9
-11
-14
-14
-14
-15
-16
-15
-14
-16
-18
-18
-18
-17
-16
-18
-20
-18
-16
-18
-20
-19
-18
-19
-20
-19
-18
-19
-19
-15
-15
-17
-18
-17
-16
-16
-15
-13
-12
-11
-10
-11
-12
-10
-10
-10
-9
-8
-9
-10
-9
-8
-9
-10
-8
-6
-8
-10
-8
-6
-7
-8
-7
-6
-9
-9
-7
-6
-7
-8
-8
-8
-7
-6
-7
-7
-5
-5
-7
-7
-5
-5
-7
-7
-8
-4
-4
-5
-6
-5
-4
-5
-6
-6
-6
-4
-2
-2
-2
-3
-4
-5
-6
-6
-6
-5
-4
-5
-6
-6
-6
-7
-8
-8
-8
-9
-10
-10
-9
-7
-7
-9
-10
-10
-10
-9
-8
-8
-9
-10
-8
-6
-7
-8
-7
-6
-5
-4
-1
2
4
8
14
18
19
21
25
28
27
23
15
12
11
9
5
6
9
3
-7
-10
-11
-12
-12
-12
-11
-10
-9
-10
-14
-17
-20
-19
-18
-17
-16
-16
-16
-15
-14
-13
-12
-13
-11
-2
4
4
0
-10
-16
-19
-23
-29
-79
-161
-205
-226
-256
-290
-272
-232
-212
-199
-175
-148
-122
-95
-67
-38
-26
-36
-10
-6
-4
-2
1
4
4
4
5
6
6
6
7
8
10
12
11
10
11
12
15
16
17
18
18
19
21
22
23
24
25
26
27
30
33
34
35
36
37
39
41
44
46
45
44
45
46
47
48
49
50
50
49
44
40
41
41
38
36
34
31
28
25
23
21
19
17
14
12
13
14
14
14
14
13
11
10
10
10
10
10
11
11
8
9
10
10
10
10
10
9
8
10
12
12
12
14
16
17
18
19
20
22
24
27
29
31
32
32
33
36
38
37
37
39
40
40
41
43
44
43
42
42
42
42
41
40
41
42
41
40
39
38
37
36
36
36
34
32
33
33
30
28
29
30
27
26
25
24
23
22
22
22
21
20
19
18
18
18
17
16
16
15
13
13
15
14
12
13
14
13
12
12
12
13
14
15
16
14
12
13
14
14
14
13
12
13
14
14
14
14
14
14
14
15
16
15
15
17
18
18
18
18
18
18
18
17
16
16
17
18
17
16
15
14
15
16
16
16
16
16
15
14
16
18
16
14
14
14
14
14
14
14
15
15
13
11
9
9
11
12
11
10
9
9
11
12
11
10
10
9
8
10
12
12
12
13
14
12
10
11
12
13
14
13
12
12
12
14
16
16
15
13
12
12
12
12
14
17
18
19
24
30
32
33
39
45
45
43
42
41
37
34
30
26
28
29
21
14
12
10
8
6
8
10
10
9
5
1
-3
-6
-5
-4
-5
-6
-5
-4
-5
-6
-5
-4
-5
0
9
12
13
9
3
-6
-15
-14
-11
-75
-142
-188
-233
-260
-282
-260
-236
-207
-182
-170
-152
-117
-84
-57
-34
-21
-10
-4
1
4
6
7
9
11
12
13
15
17
18
19
20
20
21
23
24
24
26
29
30
29
31
28
37
38
39
40
41
42
43
44
46
48
49
50
53
56
55
55
58
60
62
64
65
66
66
67
70
71
68
66
66
64
61
59
57
55
53
49
45
43
41
38
35
33
32
30
28
28
28
28
28
29
30
27
24
25
26
26
26
27
28
27
26
27
28
27
26
26
26
26
26
26
26
27
27
25
24
25
27
29
30
30
30
30
30
32
33
34
33
32
33
34
36
38
38
38
38
38
38
38
37
36
37
38
36
34
33
32
31
30
30
29
26
24
24
24
23
21
19
18
18
17
15
14
14
13
14
11
12
11
10
11
12
10
8
7
6
8
10
9
8
7
6
6
6
8
9
4
3
5
5
3
3
5
5
3
2
2
2
1
1
3
4
4
2
-1
0
3
3
2
3
4
4
4
5
6
7
8
7
6
6
6
10
12
10
8
9
10
9
8
8
8
9
10
9
8
9
10
10
10
11
11
9
8
9
10
9
8
9
10
10
10
10
9
8
8
8
8
8
8
8
9
10
8
6
7
8
8
8
9
10
7
6
6
6
7
8
7
6
5
4
5
6
7
8
8
8
8
10
13
17
14
23
24
29
34
39
44
43
41
35
30
29
27
23
21
24
22
11
4
4
4
3
2
2
2
2
1
-2
-6
-9
-11
-13
-12
-9
-9
-11
-11
-9
-10
-13
-14
-13
-4
4
5
6
0
-7
-16
-23
-15
-23
-96
-163
-214
-256
-275
-280
-256
-233
-209
-192
-182
-160
-127
-98
-71
-54
-43
-31
-20
-16
-15
-14
-13
-10
-7
-6
-7
-7
-5
-4
-4
-4
-2
-3
-4
-3
-2
-2
-2
-1
0
-1
-2
0
2
3
4
5
6
7
8
10
12
15
17
19
20
21
23
25
27
29
30
29
28
29
30
30
30
29
27
25
22
24
14
10
8
6
5
4
0
-4
-6
-8
-9
-10
-10
-10
-11
-12
-13
-14
-15
-16
-16
-17
-20
-22
-22
-22
-22
-22
-22
-22
-23
-24
-25
-25
-23
-22
-23
-24
-25
-26
-25
-23
-22
-23
-24
-23
-22
-22
-22
-21
-20
-20
-20
-18
-16
-18
-20
-19
-18
-18
-18
-18
-18
-17
-16
-15
-14
-15
-16
-16
-15
-13
-12
-13
-15
-17
-18
-17
-18
-21
-22
-21
-21
-24
-24
-24
-26
-28
-29
-30
-29
-28
-30
-32
-32
-32
-33
-34
-35
-36
-36
-36
-37
-38
-38
-38
-38
-38
-38
-39
-42
-42
-39
-40
-43
-44
-44
-44
-43
-42
-43
-44
-44
-44
-44
-45
-46
-43
-40
-41
-42
-43
-44
-42
-40
-42
-44
-44
-44
-44
-44
-44
-44
-44
-44
-44
-44
-45
-46
-45
-44
-44
-44
-45
-46
-45
-44
-45
-46
-45
-45
-47
-48
-47
-47
-49
-48
-46
-48
-50
-49
-48
-51
-54
-53
-52
-52
-52
-52
-52
-52
-52
-50
-48
-50
-52
-51
-50
-49
-48
-49
-49
-47
-46
-47
-48
-47
-46
-47
-48
-47
-46
-46
-46
-46
-46
-46
-46
-46
-45
-44
-44
-44
-43
-42
-42
-42
-41
-40
-41
-42
-40
-38
-40
-41
-38
-36
-38
-40
-39
-38
-39
-40
-39
-38
-39
-39
-37
-36
-35
-33
-31
-29
-27
-25
-23
-17
-11
-9
-10
-9
-12
-17
-22
-24
-26
-27
-28
-26
-26
-35
-42
-45
-48
-47
-46
-46
-46
-45
-45
-50
-53
-55
-56
-55
-53
-51
-50
-50
-49
-47
-46
-45
-44
-43
-36
-27
-29
-33
-48
-63
-58
-52
-69
-92
-175
-248
-256
-266
-290
-300
-254
-220
-221
-213
-181
-152
-130
-106
-80
-62
-52
-44
-40
-38
-37
-35
-33
-32
-31
-30
-29
-28
-28
-28
-28
-27
-25
-24
-25
-26
-25
-24
-24
-24
-24
-23
-22
-21
-20
-19
-18
-16
-14
-14
-14
-13
-11
-8
-6
-5
-4
-2
0
3
5
7
9
11
12
13
14
15
16
16
15
13
12
11
9
7
4
1
0
0
-5
-10
-10
-10
-14
-18
-17
-16
-17
-18
-17
-16
-16
-16
-17
-18
-19
-20
-18
-16
-17
-18
-18
-18
-17
-16
-17
-18
-19
-20
-20
-20
-19
-18
-18
-18
-17
-16
-16
-16
-15
-14
-14
-14
-14
-14
-14
-13
-12
-12
-12
-13
-14
-13
-12
-12
-12
-14
-16
-18
-20
-18
-17
-19
-20
-20
-21
-23
-24
-23
-23
-25
-26
-26
-27
-29
-30
-31
-32
-32
-32
-33
-34
-36
-36
-36
-35
-34
-35
-36
-35
-34
-33
-32
-31
-30
-31
-32
-31
-30
-29
-28
-27
-26
-26
-26
-26
-25
-23
-23
-25
-25
-23
-22
-22
-22
-21
-20
-20
-20
-19
-18
-17
-16
-16
-18
-18
-16
-14
-13
-12
-13
-14
-14
-14
-13
-12
-11
-10
-10
-10
-10
-10
-11
-12
-12
-12
-12
-12
-13
-14
-13
-13
-15
-16
-16
-16
-16
-16
-16
-16
-16
-16
-17
-19
-21
-20
-18
-19
-20
-21
-22
-20
-18
-17
-16
-17
-18
-17
-16
-15
-14
-13
-12
-12
-12
-11
-10
-10
-10
-10
-9
-7
-6
-6
-5
-3
-2
-2
-2
-3
-3
-1
0
0
2
5
7
10
14
18
19
20
26
32
28
24
23
21
16
12
10
8
10
9
1
-4
-6
-8
-7
-5
-3
-2
-2
-4
-8
-11
-13
-13
-11
-10
-10
-10
-9
-8
-8
-7
-5
-4
-4
3
12
11
10
-1
-10
-10
-10
-11
-32
-119
-188
-209
-233
-263
-268
-230
-203
-191
-173
-150
-124
-95
-66
-38
-20
-10
-2
4
7
9
10
10
12
15
16
17
18
18
18
19
20
20
21
22
22
22
24
26
28
30
30
30
32
34
35
36
37
38
39
40
42
45
47
48
48
49
51
53
57
58
59
61
63
64
64
64
65
65
63
62
61
60
58
55
52
49
46
44
42
38
34
33
32
31
30
30
30
30
30
30
30
29
28
27
27
29
30
29
28
27
26
26
26
26
26
26
26
26
26
27
28
29
30
30
33
34
36
38
39
40
41
42
44
46
48
50
50
50
51
52
53
54
55
56
56
56
56
56
55
55
57
56
53
52
52
52
51
50
51
50
47
46
46
46
47
47
46
45
44
43
42
42
42
41
40
41
42
40
38
37
36
36
36
34
32
31
31
33
33
31
30
29
28
28
28
28
28
28
27
25
24
25
25
23
22
22
22
22
22
22
21
20
19
18
18
18
19
20
19
18
17
16
17
18
17
16
15
14
15
16
17
18
17
17
19
19
17
17
19
20
20
20
20
20
21
22
22
22
22
21
20
22
24
24
24
24
24
24
24
25
26
26
26
27
28
27
26
27
28
27
27
29
30
29
28
29
30
29
28
27
26
27
28
27
26
25
24
25
28
31
33
34
37
40
41
42
46
50
56
60
57
53
48
44
42
40
38
36
37
35
27
22
21
20
21
22
22
22
22
20
16
13
11
10
11
14
17
18
17
16
17
18
18
20
22
31
40
36
30
17
7
12
14
5
-29
-122
-187
-199
-218
-250
-246
-193
-166
-169
-153
-119
-90
-64
-37
-10
6
17
23
28
31
33
34
34
35
37
38
38
39
38
40
38
39
40
39
38
39
40
39
38
40
42
43
44
44
44
44
44
46
48
51
52
53
55
57
58
59
60
61
62
63
66
69
70
71
72
72
71
69
68
68
66
64
63
62
59
56
54
52
49
46
43
40
40
40
38
36
36
36
35
34
36
37
34
32
33
34
33
32
32
31
29
28
29
30
29
28
28
28
28
28
28
28
30
29
28
30
32
31
30
32
34
34
34
35
36
36
36
37
38
37
36
37
38
38
38
38
38
38
38
38
38
39
39
37
36
37
37
35
34
35
35
33
32
32
31
30
30
30
29
28
28
28
29
30
27
24
25
26
26
26
26
26
25
24
25
25
23
23
25
25
23
22
22
22
21
20
21
21
19
18
18
18
18
18
17
14
12
10
8
9
10
8
6
8
10
7
4
4
4
3
2
2
2
1
0
-1
-2
-2
-2
-2
-2
-3
-4
-4
-4
-3
-4
-7
-7
-5
-5
-7
-8
-7
-6
-7
-7
-4
-3
-2
-3
-4
-4
-4
-3
-2
-3
-4
-3
-2
-3
-4
-5
-6
-4
-3
-6
-8
-5
-4
-4
-4
-4
-4
-5
-6
-5
-4
-4
-4
-5
-5
-3
-2
-3
-4
-4
-3
-4
2
4
7
10
14
18
20
22
26
30
28
24
17
12
12
12
12
10
5
1
-4
-6
-7
-7
-5
-4
-4
-6
-9
-11
-13
-14
-15
-16
-15
-14
-14
-14
-13
-12
-12
-12
-12
-6
0
5
10
2
-5
-12
-17
-10
-22
-90
-155
-213
-256
-276
-278
-251
-225
-201
-185
-179
-157
-123
-92
-64
-47
-34
-24
-15
-11
-9
-6
-3
-2
-1
0
1
2
2
4
8
6
4
7
10
9
8
9
10
12
14
15
16
16
16
18
20
22
24
24
25
28
31
34
37
39
40
40
41
43
44
44
46
49
50
50
50
51
51
49
47
48
45
46
43
40
35
30
28
26
23
20
17
14
13
12
11
10
10
10
9
8
7
6
5
4
3
2
2
2
1
-1
-3
-3
-1
0
0
-1
-3
-2
1
2
1
1
2
3
4
6
8
8
8
9
10
11
12
14
16
15
14
15
16
15
14
16
18
17
16
17
18
18
18
18
18
17
16
15
15
17
16
13
13
15
13
9
10
14
12
10
9
8
8
8
8
8
7
6
5
4
5
6
6
5
2
0
0
0
0
-1
-3
-4
-3
-3
-5
-6
-6
-6
-7
-8
-9
-10
-10
-10
-9
-8
-9
-10
-10
-10
-8
-8
-8
-10
-12
-10
-8
-7
-6
-8
-10
-10
-10
-9
-8
-10
-12
-13
-14
-11
-11
-13
-14
-14
-15
-17
-18
-17
-16
-15
-15
-17
-18
-19
-20
-21
-22
-22
-22
-23
-24
-24
-25
-26
-26
-26
-29
-32
-32
-32
-33
-34
-35
-36
-36
-36
-36
-36
-37
-38
-38
-38
-38
-38
-39
-39
-37
-36
-37
-38
-37
-36
-35
-34
-33
-32
-31
-30
-30
-29
-27
-26
-24
-24
-24
-23
-22
-20
-18
-18
-18
-18
-17
-12
-7
-3
0
1
3
7
12
17
20
23
23
21
18
14
11
8
6
7
5
0
-5
-11
-12
-11
-10
-10
-10
-9
-10
-8
-13
-12
-15
-18
-17
-16
-15
-14
-13
-12
-12
-12
-13
-13
-9
-4
2
4
-1
-13
-32
-37
-27
-45
-86
-146
-220
-254
-266
-275
-282
-249
-202
-196
-201
-168
-127
-102
-80
-62
-45
-35
-26
-24
-22
-20
-18
-17
-16
-16
-16
-15
-14
-14
-14
-13
-12
-12
-12
-11
-10
-10
-10
-9
-8
-7
-6
-5
-4
-3
-2
-2
1
5
6
7
10
13
15
17
19
21
22
24
28
32
33
34
36
38
39
40
40
40
40
40
40
39
36
33
30
28
27
25
20
18
17
14
10
8
8
8
9
10
9
8
7
6
7
8
7
6
6
6
6
5
6
7
8
7
6
8
10
10
10
12
14
15
16
17
18
19
20
21
22
25
26
26
27
29
30
31
32
32
32
33
34
35
36
36
36
36
36
35
34
35
35
34
33
32
32
32
32
32
29
26
26
26
25
24
23
22
21
20
21
22
21
19
17
16
16
16
15
14
13
11
9
8
8
7
5
4
3
1
-1
-2
-2
-2
-2
-3
-4
-6
-8
-9
-10
-9
-8
-10
-12
-11
-10
-11
-12
-13
-14
-15
-16
-15
-14
-15
-16
-16
-16
-17
-18
-18
-18
-17
-16
-15
-14
-15
-16
-15
-14
-13
-12
-13
-13
-14
-10
-10
-10
-10
-11
-12
-11
-10
-12
-14
-11
-8
-9
-10
-9
-8
-8
-8
-9
-10
-10
-10
-9
-9
-11
-12
-11
-10
-10
-10
-10
-10
-9
-8
-8
-8
-7
-6
-6
-6
-5
-5
-6
-4
-2
1
4
5
6
9
12
16
20
22
24
26
28
29
27
19
14
14
13
10
8
9
6
-3
-6
-6
-6
-6
-4
-1
-2
-5
-7
-9
-11
-13
-13
-11
-10
-8
-8
-8
-8
-8
-6
-4
-1
3
10
15
11
3
-17
-27
-17
-23
-58
-113
-195
-242
-251
-264
-279
-255
-201
-182
-186
-160
-118
-90
-68
-46
-25
-13
-4
1
5
6
7
8
8
11
12
14
16
15
14
16
18
17
16
18
20
19
18
19
20
22
24
24
24
25
26
27
29
31
32
31
32
36
38
39
41
43
44
44
45
47
49
51
52
53
54
54
54
54
53
52
50
48
46
44
41
38
36
33
28
24
23
22
20
18
18
18
17
16
17
17
15
14
14
14
14
14
15
16
16
16
16
16
15
14
15
16
16
17
18
20
22
21
20
22
24
23
22
24
26
27
28
28
28
28
28
28
28
29
30
30
30
31
32
32
32
32
32
32
32
32
32
31
30
31
32
31
29
30
27
28
27
26
24
22
23
24
24
24
22
20
20
20
20
20
18
16
17
18
17
16
15
14
14
14
13
12
12
12
12
12
11
10
10
9
7
7
9
10
9
8
8
8
8
7
6
6
6
6
6
5
4
4
4
4
4
4
4
5
6
5
4
4
4
4
4
5
5
3
2
3
4
4
6
9
10
9
8
9
10
10
10
10
10
10
9
8
11
14
11
8
8
8
8
8
8
8
8
8
7
6
7
8
7
6
6
6
5
4
4
4
3
2
2
2
1
0
1
1
-1
-1
1
3
2
9
12
14
16
18
20
27
32
30
28
23
20
17
14
12
10
11
9
1
-4
-7
-8
-7
-6
-7
-8
-7
-9
-14
-16
-17
-18
-18
-18
-17
-16
-15
-14
-13
-13
-15
-14
-12
-4
4
3
2
-6
-13
-22
-29
-23
-37
-111
-175
-219
-257
-282
-290
-270
-245
-214
-195
-189
-165
-126
-95
-70
-51
-35
-26
-18
-13
-8
-6
-7
-6
-3
-2
-2
-1
1
2
2
3
4
4
4
6
8
8
8
8
8
9
10
12
14
16
18
17
17
21
24
25
26
27
28
29
31
33
35
37
39
41
42
42
42
43
44
43
42
41
39
40
36
36
34
32
28
24
23
22
18
14
12
10
10
9
6
4
4
4
5
6
3
2
2
2
2
2
1
0
0
0
-1
-2
-1
0
0
0
0
0
0
0
1
3
4
4
4
6
8
10
12
13
14
14
14
16
18
17
16
18
20
21
22
23
23
21
20
21
21
18
17
21
20
17
16
16
16
16
15
13
11
9
7
5
4
6
5
4
1
-2
-1
0
-2
-4
-4
-4
-5
-6
-5
-4
-6
-8
-8
-8
-7
-6
-7
-8
-8
-9
-11
-12
-11
-10
-10
-11
-13
-14
-13
-12
-13
-14
-14
-15
-17
-17
-18
-14
-14
-13
-12
-15
-18
-16
-14
-14
-14
-14
-14
-14
-14
-14
-14
-13
-12
-13
-14
-13
-12
-13
-14
-15
-16
-15
-14
-14
-14
-15
-15
-13
-12
-13
-14
-14
-14
-13
-12
-11
-12
-14
-13
-12
-12
-12
-13
-14
-13
-12
-14
-16
-14
-12
-16
-18
-16
-14
-14
-14
-14
-15
-17
-18
-19
-20
-19
-18
-17
-17
-19
-20
-20
-20
-20
-20
-21
-22
-23
-24
-24
-24
-24
-26
-28
-28
-28
-28
-28
-25
-22
-21
-19
-15
-12
-9
-5
0
4
6
7
4
0
-5
-8
-9
-10
-11
-14
-18
-22
-26
-28
-29
-30
-29
-28
-27
-26
-27
-30
-33
-34
-34
-34
-34
-33
-32
-31
-30
-29
-28
-26
-24
-19
-14
-6
-1
-6
-16
-32
-36
-21
-30
-69
-133
-221
-266
-277
-278
-269
-241
-202
-192
-195
-167
-128
-104
-84
-66
-48
-37
-27
-24
-21
-17
-14
-15
-16
-13
-10
-11
-12
-12
-12
-9
-6
-5
-4
-3
-2
-2
-2
-2
-1
2
4
4
4
5
7
9
11
13
14
14
14
15
19
23
24
24
24
25
28
31
32
30
31
32
32
32
31
30
29
28
25
21
17
14
11
7
2
-3
-7
-11
-14
-16
-17
-19
-21
-22
-23
-24
-25
-26
-27
-28
-29
-30
-31
-32
-31
-30
-31
-32
-31
-31
-30
-33
-32
-32
-32
-31
-30
-30
-30
-27
-24
-24
-24
-23
-22
-20
-18
-16
-14
-13
-12
-12
-11
-8
-6
-6
-4
0
2
1
1
3
4
5
6
6
6
5
6
9
10
9
8
8
8
8
9
10
9
8
8
8
8
8
9
10
10
10
8
6
7
8
8
8
8
7
5
4
5
5
1
0
0
0
0
0
-1
-2
-3
-4
-5
-6
-6
-7
-10
-9
-8
-9
-10
-10
-10
-11
-12
-12
-12
-14
-16
-16
-16
-16
-16
-17
-18
-17
-16
-17
-18
-17
-16
-15
-14
-14
-14
-13
-12
-12
-12
-12
-12
-11
-10
-9
-8
-7
-6
-6
-7
-6
-5
-4
-5
-6
-5
-4
-4
-4
-3
-2
-4
-6
-6
-6
-7
-8
-7
-6
-7
-8
-8
-8
-7
-6
-6
-6
-7
-7
-5
-4
-4
-5
-7
-8
-7
-6
-6
-6
-6
-6
-6
-7
-8
-7
-6
-5
-4
-3
-2
1
4
7
11
15
19
24
28
28
28
30
29
22
18
18
18
17
16
16
12
4
2
3
4
4
4
5
3
-1
-3
-5
-6
-8
-6
-4
-3
-2
-2
-2
1
4
2
0
3
8
16
20
14
4
-12
-19
-12
-23
-56
-114
-194
-235
-247
-266
-288
-257
-199
-184
-189
-158
-116
-90
-68
-46
-25
-16
-9
-5
-8
1
2
4
6
7
8
10
12
12
12
14
16
16
16
16
16
17
18
19
20
23
24
24
25
28
30
30
32
35
36
37
40
43
44
45
46
47
50
53
54
55
60
64
64
64
66
68
67
66
66
66
63
60
60
60
56
53
50
47
43
40
38
35
32
30
30
30
29
28
28
28
27
26
25
24
25
26
26
26
25
23
21
21
24
23
22
22
22
22
22
24
26
27
28
28
28
30
32
32
32
33
34
34
34
35
36
36
37
39
39
37
37
39
40
39
38
38
38
37
36
37
37
35
34
34
34
34
33
32
31
30
30
30
29
28
27
26
27
27
24
22
22
22
22
22
19
18
17
16
17
18
17
16
15
14
14
14
13
12
12
12
11
10
10
10
9
9
10
7
4
6
8
7
6
6
6
4
2
3
4
3
2
2
2
2
2
3
4
3
2
1
0
1
2
3
4
4
4
3
2
3
4
4
5
7
8
7
6
8
7
6
7
8
7
6
5
4
4
4
5
6
6
6
5
4
4
4
3
2
3
4
4
4
3
2
3
4
5
5
3
2
3
4
3
2
3
4
4
4
4
3
2
2
2
2
2
4
6
8
10
12
14
17
20
22
27
35
39
35
31
28
24
20
17
14
13
15
9
-2
-6
-6
-7
-9
-10
-9
-8
-8
-9
-11
-14
-17
-17
-16
-18
-20
-16
-12
-14
-16
-14
-12
-12
-11
-5
0
1
0
-6
-13
-21
-26
-24
-59
-135
-190
-227
-259
-287
-281
-253
-229
-206
-191
-177
-146
-109
-80
-52
-39
-27
-19
-11
-7
-2
0
2
3
4
4
4
6
8
9
10
10
10
11
12
13
14
16
18
18
18
21
22
22
23
25
26
27
29
31
32
33
35
37
38
39
42
45
48
51
52
52
52
54
55
56
57
58
56
54
52
50
49
48
45
41
37
33
30
27
24
22
19
17
15
14
13
13
15
14
11
10
10
10
10
10
11
11
9
8
9
10
9
7
6
6
6
7
8
8
8
9
10
10
10
12
14
13
12
12
12
14
16
17
18
19
20
21
23
26
28
27
26
26
26
26
26
26
26
26
26
25
24
25
25
22
21
20
19
18
17
16
14
12
13
13
9
6
7
8
7
6
5
3
-1
-4
-4
-4
-3
-3
-5
-6
-5
-4
-4
-4
-4
-4
-5
-6
-5
-5
-7
-8
-7
-6
-6
-9
-10
-9
-8
-10
-12
-11
-10
-11
-12
-10
-8
-11
-14
-13
-12
-13
-14
-12
-10
-13
-14
-14
-13
-10
-8
-8
-8
-8
-8
-8
-8
-7
-6
-6
-6
-6
-6
-6
-6
-7
-8
-8
-8
-8
-9
-10
-10
-10
-10
-10
-11
-12
-12
-12
-12
-12
-12
-12
-13
-14
-12
-10
-11
-12
-11
-10
-11
-11
-7
-6
-7
-8
-8
-8
-7
-6
-6
-6
-6
-6
-6
-6
-4
-4
-4
-5
-6
-7
-8
-6
-4
-6
-8
-7
-6
-6
-5
-1
2
4
6
8
12
17
22
26
27
25
21
15
12
12
10
7
6
7
1
-8
-10
-11
-12
-11
-10
-10
-13
-16
-16
-16
-20
-24
-23
-22
-21
-20
-19
-18
-19
-20
-19
-18
-17
-12
-2
3
0
-9
-23
-25
-16
-21
-36
-106
-204
-241
-253
-272
-293
-258
-206
-201
-205
-176
-143
-120
-99
-72
-46
-38
-30
-24
-18
-15
-12
-12
-12
-12
-12
-9
-6
-7
-8
-8
-8
-6
-4
-4
-4
-3
-1
1
2
3
5
7
8
9
11
13
14
14
15
17
19
21
22
23
26
30
31
32
33
34
37
40
41
42
43
44
42
40
39
37
34
32
31
29
25
21
18
16
15
12
6
4
3
2
3
4
4
4
3
2
1
0
1
2
1
-2
0
-5
-4
-5
-6
-7
-8
-8
-8
-9
-10
-10
-10
-11
-12
-10
-8
-7
-6
-6
-6
-5
-3
-1
0
0
0
1
2
3
4
4
6
9
10
10
10
10
10
11
12
11
10
10
10
10
10
10
11
12
10
8
8
8
9
10
6
4
5
6
7
8
9
9
6
5
7
7
5
5
7
6
3
2
3
3
1
0
1
0
-3
-3
-1
0
-2
-5
-8
-7
-6
-7
-8
-7
-6
-7
-8
-7
-6
-7
-8
-7
-7
-10
-12
-11
-10
-9
-8
-8
-8
-9
-10
-10
-10
-11
-12
-12
-12
-13
-14
-13
-12
-12
-12
-13
-14
-14
-13
-12
-11
-10
-12
-14
-13
-12
-13
-14
-14
-14
-14
-14
-14
-14
-13
-12
-13
-14
-15
-16
-15
-13
-11
-10
-10
-10
-10
-10
-9
-8
-8
-8
-8
-8
-8
-8
-8
-8
-8
-8
-8
-8
-8
-8
-8
-7
-6
-6
-6
-5
-4
-5
-6
-6
-6
-6
-6
-6
-6
-6
-6
-6
-6
-7
-8
-8
-8
-8
-8
-8
-7
-5
-1
3
4
4
7
11
14
17
21
26
24
22
14
6
5
4
4
4
1
-3
-8
-12
-12
-12
-11
-10
-11
-13
-16
-18
-18
-19
-22
-23
-20
-18
-17
-16
-16
-16
-17
-18
-17
-13
-9
-1
7
2
-5
-23
-6
-32
-23
-59
-99
-176
-243
-251
-260
-271
-268
-217
-182
-190
-183
-142
-108
-84
-62
-41
-26
-17
-11
-9
-7
-4
-2
-1
0
0
1
3
4
5
6
6
6
5
5
7
8
8
9
10
11
12
14
16
16
16
17
18
20
22
24
26
27
29
32
34
36
38
40
43
45
46
47
49
51
52
52
52
52
52
51
50
49
46
43
42
41
38
35
33
30
28
26
24
22
21
20
20
20
19
18
17
16
18
20
18
16
17
18
16
14
14
13
11
11
13
13
11
12
15
15
13
12
12
12
12
12
13
16
19
19
20
19
22
23
24
25
26
26
26
26
26
27
28
28
28
27
26
26
26
26
26
26
26
26
26
25
24
23
22
21
20
20
20
19
18
18
16
13
12
12
12
12
11
10
11
12
11
10
9
8
7
6
8
10
9
8
8
8
7
6
5
4
4
4
4
3
1
1
4
6
5
4
4
4
5
6
6
6
6
6
6
6
6
6
6
6
6
5
4
6
8
6
4
5
6
5
4
4
4
5
6
7
8
6
4
5
6
6
6
6
6
6
6
7
8
7
6
7
8
8
8
8
8
8
8
8
8
10
9
8
8
8
8
8
8
8
9
10
9
8
7
6
6
6
7
8
7
7
9
10
9
9
11
12
13
16
20
23
25
30
37
38
39
39
37
32
27
24
22
23
24
20
16
11
6
3
0
2
4
4
3
-1
-5
-9
-12
-10
-8
-9
-10
-9
-8
-8
-7
-5
-4
-4
-1
4
9
14
11
4
-9
-22
-18
-11
-66
-128
-182
-236
-259
-282
-269
-254
-215
-182
-177
-164
-123
-86
-62
-40
-23
-10
-1
5
8
10
11
12
15
16
16
16
16
17
19
20
20
20
20
20
20
20
21
22
21
21
23
23
24
23
26
25
24
26
28
28
28
30
32
33
34
35
37
40
42
43
44
45
46
46
47
49
50
49
47
45
44
43
41
39
36
33
29
25
24
23
21
19
18
18
17
16
17
18
17
16
16
16
14
12
13
14
14
14
13
12
12
12
13
14
14
14
14
14
14
14
15
16
16
16
16
16
17
18
19
20
20
20
21
24
27
28
30
29
28
28
28
30
32
32
32
32
32
31
30
31
32
30
28
26
24
25
26
26
26
25
23
21
20
21
20
17
16
17
18
17
16
16
16
15
14
14
14
14
14
14
15
16
15
14
14
14
15
16
16
16
14
13
16
18
16
14
14
14
13
12
13
14
14
14
14
14
13
12
13
14
14
14
13
12
13
14
14
14
14
13
12
11
10
10
10
10
10
11
12
12
12
12
12
10
8
10
12
10
8
10
11
9
8
8
8
9
10
11
12
11
11
13
14
13
13
15
16
15
14
14
14
14
13
12
12
12
12
12
12
12
12
12
12
12
12
12
13
14
14
15
18
21
26
29
31
34
40
42
42
42
41
35
26
24
24
23
21
19
17
11
5
4
4
3
4
6
8
3
-2
-3
-4
-4
-4
-3
-2
-3
-4
-3
-1
2
4
3
3
8
13
20
21
15
1
-17
-18
-9
-30
-65
-134
-215
-244
-259
-272
-284
-236
-180
-180
-185
-146
-106
-84
-63
-41
-21
-11
-2
4
8
8
8
10
12
13
14
14
14
14
14
16
18
18
18
19
20
20
20
20
22
25
26
25
27
31
32
31
31
33
34
35
36
38
41
44
44
44
46
48
49
50
51
52
52
52
53
54
53
52
52
51
48
45
42
38
34
31
29
27
24
20
17
16
15
14
13
12
12
12
11
11
13
14
14
12
12
11
10
11
12
12
12
13
14
13
12
12
12
12
12
14
16
16
16
17
18
18
18
19
21
23
24
25
26
27
28
29
30
30
30
30
30
31
32
31
32
34
33
32
32
32
31
30
29
28
27
26
26
26
25
23
20
18
18
18
16
14
14
13
11
9
7
6
6
6
5
4
3
2
1
0
1
1
-1
-1
1
0
-4
-2
0
-1
-2
-2
-2
-1
0
0
0
-1
-2
-2
-2
-1
0
1
2
1
0
-1
-2
-1
0
0
-1
-3
-4
-4
-4
-4
-4
-5
-6
-7
-8
-8
-8
-7
-6
-6
-7
-6
-6
-6
-6
-6
-6
-6
-5
-4
-5
-6
-4
-2
-3
-4
-5
-6
-4
-2
-3
-4
-3
-2
-3
-3
-1
-1
-3
-4
-4
-4
-3
-2
-2
-2
-1
-1
-3
-2
1
0
-2
-1
0
0
0
1
2
0
-2
0
2
1
0
4
5
2
0
1
2
2
2
1
0
0
0
0
1
3
6
9
13
17
18
18
23
31
32
32
31
29
23
16
15
14
11
8
2
-4
-6
-8
-8
-8
-9
-10
-8
-7
-10
-12
-13
-14
-15
-16
-16
-14
-10
-8
-9
-10
-11
-11
-9
-6
-1
4
10
8
1
-11
-24
-14
1
-53
2
-184
-254
-266
-277
-262
-244
-211
-184
-186
-179
-137
-100
-78
-57
-42
-29
-21
-16
-14
-12
-11
-10
-10
-9
-7
-6
-6
-6
-7
-8
-7
-4
-1
0
0
0
0
0
0
1
3
5
6
7
8
9
10
13
16
15
14
16
18
21
24
25
26
28
30
32
34
36
38
38
39
42
42
38
37
39
38
35
33
31
28
25
24
23
19
15
14
13
11
8
9
10
10
10
9
8
10
12
9
6
7
8
6
4
5
6
5
4
3
2
2
2
2
2
1
0
0
0
0
0
1
4
7
8
7
8
11
12
13
14
14
14
14
16
18
18
18
19
20
19
18
20
22
22
22
22
22
21
20
21
22
21
20
20
20
20
20
19
18
17
16
16
16
16
16
16
16
15
14
13
12
12
10
8
9
10
9
8
7
6
7
8
7
6
5
4
4
4
4
4
3
2
3
4
3
2
2
2
1
0
0
0
1
2
1
0
1
2
1
0
0
0
0
0
-2
-1
0
-1
-2
-1
0
-2
-4
-3
-2
-3
-4
-4
-4
-4
-4
-4
-4
-6
-8
-8
-8
-7
-6
-6
-6
-7
-8
-9
-10
-10
-10
-9
-8
-8
-9
-11
-12
-12
-12
-12
-15
-16
-17
-18
-17
-16
-18
-20
-20
-20
-21
-22
-21
-20
-22
-24
-24
-24
-24
-24
-24
-24
-25
-26
-26
-26
-25
-24
-24
-24
-23
-22
-23
-24
-23
-21
-19
-16
-13
-11
-9
-4
0
3
6
11
16
15
14
11
8
6
4
1
-2
2
1
-8
-14
-15
-16
-18
-19
-16
-13
-11
-12
-16
-19
-21
-22
-22
-21
-19
-18
-17
-16
-16
-15
-13
-12
-12
-7
0
3
6
0
-7
-17
-26
-24
-35
-104
-166
-208
-245
-271
-282
-264
-241
-213
-189
-171
-147
-115
-86
-58
-39
-25
-17
-11
-7
-5
-4
-3
-2
-1
1
3
4
4
5
7
8
8
8
8
8
8
9
10
10
10
9
8
11
14
14
14
16
18
17
17
21
24
24
25
28
30
31
33
35
36
37
39
41
42
43
44
43
42
43
43
41
39
37
33
30
29
28
25
22
18
14
12
10
11
12
10
8
8
8
9
9
6
4
5
5
3
2
3
4
4
4
4
4
3
2
3
4
3
2
2
2
3
4
5
5
2
5
8
9
10
10
10
11
12
12
12
12
12
13
14
15
16
17
18
17
16
17
18
19
20
19
18
18
18
17
16
15
14
15
14
11
11
13
13
11
10
10
10
8
8
8
7
6
7
8
7
6
5
4
5
6
5
4
3
2
2
2
5
6
5
4
3
1
-1
-2
-1
0
0
0
0
-1
-3
-4
-4
-4
-4
-4
-5
-5
-4
-4
-4
-5
-6
-7
-8
-7
-6
-7
-8
-8
-8
-10
-12
-10
-8
-9
-10
-9
-8
-9
-10
-9
-8
-8
-8
-9
-10
-10
-10
-10
-10
-10
-10
-10
-10
-9
-8
-9
-10
-10
-9
-8
-7
-6
-7
-8
-7
-6
-7
-8
-8
-8
-7
-6
-8
-10
-9
-8
-8
-8
-9
-10
-10
-10
-9
-9
-11
-12
-12
-12
-13
-14
-13
-12
-13
-14
-13
-13
-15
-16
-16
-12
-10
-9
-8
-5
-2
1
4
8
12
17
20
18
15
10
6
5
3
-1
-3
0
-2
-10
-15
-17
-18
-18
-18
-17
-16
-17
-19
-21
-23
-25
-26
-25
-24
-23
-22
-23
-23
-22
-22
-22
-21
-19
-10
-2
-5
-11
-25
-35
-31
-31
-42
-80
-166
-224
-239
-260
-289
-279
-229
-206
-207
-190
-158
-131
-108
-81
-54
-40
-31
-23
-16
-13
-11
-10
-9
-8
-7
-5
-2
-3
-4
-3
-2
-1
0
-1
-2
0
2
2
2
5
8
6
4
6
8
8
8
9
10
11
12
12
13
15
16
17
20
23
24
24
25
27
28
28
28
28
28
28
28
28
25
22
19
16
14
12
8
4
2
-1
-5
-8
-10
-12
-13
-14
-14
-14
-15
-16
-16
-16
-16
-16
-17
-18
-18
-18
-18
-18
-19
-20
-21
-22
-21
-20
-19
-18
-19
-21
-22
-21
-20
-20
-20
-19
-18
-17
-16
-16
-16
-15
-14
-12
-10
-10
-10
-9
-8
-9
-10
-9
-8
-7
-6
-6
-6
-7
-9
-11
-11
-9
-10
-13
-14
-13
-14
-17
-18
-17
-16
-18
-19
-20
-23
-26
-26
-26
-27
-28
-29
-30
-31
-32
-32
-32
-33
-34
-35
-36
-34
-32
-33
-34
-33
-32
-33
-34
-34
-33
-31
-30
-31
-32
-31
-30
-30
-29
-27
-28
-31
-31
-32
-28
-28
-27
-26
-26
-26
-25
-24
-26
-28
-27
-26
-26
-26
-25
-24
-22
-20
-21
-22
-22
-22
-23
-24
-23
-22
-23
-24
-24
-24
-23
-22
-21
-20
-21
-23
-25
-24
-21
-20
-21
-21
-20
-22
-24
-24
-24
-23
-22
-23
-24
-24
-24
-22
-20
-24
-26
-25
-24
-25
-26
-24
-23
-25
-26
-25
-24
-24
-24
-25
-26
-26
-26
-27
-28
-28
-28
-28
-28
-29
-30
-29
-28
-28
-30
-32
-32
-32
-31
-30
-30
-30
-30
-30
-29
-28
-28
-28
-26
-24
-23
-21
-18
-16
-13
-11
-8
-5
-2
2
6
11
16
16
13
9
3
1
-1
-2
-1
-7
-15
-16
-16
-20
-22
-21
-20
-18
-16
-20
-24
-26
-28
-30
-32
-30
-28
-27
-26
-24
-22
-24
-26
-25
-22
-17
-9
0
1
-4
-17
-34
-29
-13
-34
-68
-146
-234
-254
-263
-270
-277
-232
-183
-189
-195
-157
-121
-102
-82
-61
-43
-32
-24
-21
-18
-15
-12
-12
-12
-12
-12
-10
-8
-8
-8
-7
-6
-6
-5
-3
-2
-2
-2
-1
0
1
4
7
8
7
8
11
12
11
11
14
17
20
22
24
26
28
28
28
30
32
33
34
35
36
38
40
39
37
34
32
32
30
26
23
20
17
15
13
11
8
3
2
2
2
2
2
2
2
2
2
2
1
2
2
2
1
0
0
0
1
2
1
0
0
0
-1
-2
-1
0
0
0
0
1
3
4
5
6
7
8
9
10
11
12
13
15
17
18
17
17
19
20
20
20
20
21
22
23
24
24
24
24
24
24
24
22
20
21
22
20
18
19
20
18
16
16
15
13
12
13
14
14
14
13
12
12
12
12
12
11
9
7
6
7
8
6
6
6
5
4
4
4
2
0
2
4
2
0
2
4
2
0
0
0
0
0
0
0
0
0
-1
-2
-1
0
-1
-2
-1
0
-1
0
3
2
-1
-1
1
2
2
3
4
3
2
2
2
2
2
3
4
5
6
5
4
6
8
8
8
9
10
9
9
11
12
11
11
13
13
11
10
11
12
12
12
12
12
12
12
13
14
13
11
10
11
12
12
12
11
10
10
10
10
10
9
8
8
8
6
4
6
8
7
5
3
2
2
3
5
6
6
6
5
4
5
6
5
4
5
7
9
12
15
18
22
25
28
31
34
37
40
38
36
32
27
23
20
22
23
19
14
8
4
4
4
5
6
5
3
0
-2
-3
-5
-7
-7
-5
-5
-7
-8
-7
-6
-5
-4
-4
-1
-4
10
16
10
3
-12
-25
-17
-20
-75
-130
-186
-232
-257
-273
-268
-249
-208
-181
-171
-150
-115
-84
-57
-36
-22
-11
-2
2
3
6
10
13
15
16
16
18
21
22
23
24
25
26
26
28
30
31
32
34
36
35
34
37
40
40
40
42
44
45
46
48
50
51
53
55
57
60
62
63
65
67
68
68
70
73
73
71
70
71
70
67
65
63
62
60
59
58
53
48
45
42
40
38
37
36
35
34
34
34
35
36
34
32
33
34
34
34
33
32
32
32
31
30
31
32
33
34
33
32
33
34
34
33
31
30
30
31
30
31
32
31
30
31
32
31
30
30
30
29
28
29
30
29
28
27
26
25
24
24
23
21
20
19
18
18
17
15
14
14
12
9
8
8
7
5
4
4
3
2
1
0
2
4
2
0
-1
-2
-1
0
1
2
1
0
1
2
1
0
1
2
1
0
1
2
1
1
3
4
3
2
3
4
4
5
7
7
5
4
5
6
8
8
8
7
6
6
6
7
8
7
6
6
6
7
8
8
8
7
6
6
6
9
10
11
12
11
10
10
11
13
14
13
12
13
14
14
14
15
15
13
12
12
15
16
15
14
15
16
14
12
13
14
14
14
13
12
13
14
14
14
12
10
11
12
12
12
12
12
11
10
10
10
11
12
11
10
11
12
12
12
12
12
12
12
12
12
12
15
18
20
22
25
28
32
36
39
42
44
46
44
40
35
32
30
27
24
22
23
20
13
10
9
8
8
8
8
8
7
4
1
-2
-5
-4
-1
0
2
0
-2
0
2
2
2
4
7
17
23
16
6
-11
-20
-13
-20
-52
-104
-184
-232
-245
-260
-275
-252
-200
-181
-184
-160
-120
-93
-72
-49
-27
-15
-6
-1
3
4
4
6
4
11
12
12
12
13
14
15
16
18
20
19
18
19
20
21
22
23
24
23
23
26
29
31
32
32
32
33
36
39
42
45
46
47
49
51
52
53
55
57
58
59
61
62
61
60
60
60
57
54
52
50
47
44
41
38
34
31
28
26
24
22
22
21
19
19
21
21
19
18
18
18
17
16
16
16
17
17
15
14
14
14
14
14
14
13
12
14
16
16
16
15
14
14
14
15
16
18
20
19
18
19
20
21
22
25
26
26
26
25
25
27
28
27
26
26
26
26
26
25
24
24
24
23
22
22
20
20
19
18
16
14
15
16
16
16
15
14
13
12
13
14
12
10
11
12
12
12
11
10
10
10
10
9
7
6
7
7
5
4
4
4
3
2
3
3
1
1
2
2
2
2
2
0
-2
-1
0
1
2
1
0
1
2
2
2
2
2
2
2
2
2
3
4
5
6
5
4
4
4
5
5
3
3
5
6
7
8
8
8
8
7
6
6
6
6
6
6
6
6
6
4
2
4
6
6
6
4
2
3
4
3
2
2
2
1
0
1
1
-1
-1
1
0
-3
-3
-1
0
-1
-2
-2
-2
-2
-3
-2
-3
-4
-6
-8
-6
-4
-4
-4
-1
2
4
7
10
13
16
20
26
29
24
22
21
18
14
12
11
10
11
6
-3
-6
-7
-8
-8
-7
-5
-4
-4
-8
-13
-15
-16
-16
-16
-16
-16
-16
-16
-16
-16
-15
-14
-14
-12
-4
2
3
2
-6
-11
-14
-15
-12
-54
-136
-193
-232
-259
-281
-267
-237
-216
-198
-184
-171
-144
-114
-85
-57
-44
-33
-27
-20
-19
-18
-15
-12
-12
-12
-11
-10
-10
-10
-9
-8
-9
-10
-9
-8
-9
-10
-8
-6
-7
-7
-4
-2
-3
-4
-3
-1
1
4
7
8
8
10
13
16
19
19
17
19
16
25
26
28
30
30
30
32
34
30
26
26
26
24
21
18
15
12
9
6
3
0
-3
-5
-6
-7
-8
-8
-8
-8
-9
-11
-12
-12
-13
-15
-15
-13
-12
-13
-14
-15
-16
-16
-15
-14
-15
-16
-16
-16
-14
-12
-13
-14
-12
-10
-10
-10
-9
-8
-7
-5
-1
1
-1
0
5
7
5
4
5
6
7
10
13
12
9
8
9
10
10
10
9
8
10
10
10
8
6
5
4
3
2
-2
-6
-4
-2
-3
-5
-8
-10
-10
-10
-11
-12
-12
-12
-13
-14
-14
-14
-14
-14
-14
-15
-17
-18
-17
-16
-17
-18
-18
-20
-23
-23
-24
-23
-26
-24
-22
-24
-26
-23
-20
-23
-26
-24
-22
-23
-24
-24
-24
-23
-22
-24
-26
-23
-22
-21
-20
-21
-22
-23
-22
-18
-17
-19
-20
-19
-18
-19
-20
-19
-17
-15
-14
-15
-15
-14
-15
-16
-15
-14
-15
-16
-15
-14
-16
-18
-16
-14
-18
-20
-18
-16
-18
-20
-20
-20
-20
-20
-19
-18
-19
-20
-21
-22
-22
-22
-21
-20
-19
-19
-21
-22
-22
-22
-22
-22
-24
-24
-24
-22
-20
-20
-20
-21
-22
-23
-24
-23
-22
-22
-22
-23
-24
-24
-24
-23
-22
-22
-22
-23
-24
-23
-22
-22
-22
-22
-23
-25
-24
-21
-20
-20
-20
-20
-20
-21
-22
-22
-21
-22
-23
-24
-24
-24
-24
-24
-23
-22
-23
-24
-21
-18
-16
-13
-9
-6
-5
-2
5
8
9
9
7
4
0
-2
-3
-4
-3
-5
-10
-14
-17
-18
-19
-19
-17
-16
-15
-17
-20
-22
-24
-23
-22
-22
-22
-20
-18
-19
-20
-17
-14
-14
-13
-8
-3
0
-1
-8
-19
-33
-36
-28
-58
-115
-170
-225
-250
-262
-261
-254
-225
-190
-184
-183
-148
-108
-82
-57
-43
-28
-20
-12
-7
-2
-2
-2
-2
-2
1
4
3
2
5
8
6
4
5
6
7
8
9
9
7
7
10
12
13
14
13
13
15
17
19
20
21
23
25
26
27
29
28
35
38
37
36
39
42
42
42
43
44
43
42
41
40
38
35
32
29
26
24
21
19
16
12
6
4
4
3
1
0
0
0
-1
-2
-2
-2
-2
-2
-2
-3
-5
-4
-2
-3
-4
-3
-2
-3
-4
-3
-2
-1
0
1
2
2
2
3
4
6
8
8
8
9
10
11
12
12
13
15
16
16
16
17
18
18
18
18
18
19
20
20
20
18
18
18
17
16
16
16
14
12
13
14
12
10
10
9
6
4
5
6
5
4
3
1
-1
-2
-2
-2
-2
-2
-3
-4
-4
-4
-5
-7
-9
-10
-10
-10
-11
-12
-12
-14
-14
-14
-14
-15
-16
-17
-18
-19
-20
-20
-20
-21
-22
-21
-20
-22
-24
-23
-22
-22
-22
-22
-22
-22
-22
-22
-22
-22
-22
-21
-20
-20
-20
-21
-22
-21
-20
-20
-20
-20
-19
-18
-17
-16
-15
-14
-14
-14
-14
-14
-14
-14
-13
-12
-12
-12
-11
-10
-11
-12
-11
-11
-13
-14
-13
-12
-12
-12
-11
-10
-11
-12
-11
-11
-13
-14
-13
-12
-13
-13
-11
-10
-12
-13
-14
-13
-12
-12
-12
-10
-8
-10
-12
-10
-8
-8
-8
-7
-6
-7
-7
-4
-2
-3
-4
-3
-2
-2
-1
2
5
7
10
13
17
21
23
25
27
29
24
17
16
16
12
10
12
13
2
-8
-7
-6
-6
-6
-6
-6
-6
-7
-10
-12
-14
-16
-16
-16
-15
-14
-15
-15
-13
-12
-13
-13
-11
-5
2
4
5
-2
-12
-17
-21
-22
-21
-97
-180
-208
-234
-263
-287
-244
-206
-200
-190
-163
-136
-109
-81
-52
-29
-19
-10
-3
3
6
8
9
10
10
11
14
16
16
16
17
18
19
20
21
22
23
24
24
24
25
26
26
26
28
28
28
31
34
34
34
36
38
39
40
43
46
47
48
49
51
54
56
58
60
63
64
63
62
61
60
59
57
55
52
47
46
46
44
41
39
37
32
27
26
26
26
24
23
22
23
24
24
24
23
22
21
20
20
20
20
20
20
20
19
18
21
22
21
20
19
18
19
21
23
23
21
20
21
22
22
23
25
26
27
28
28
29
30
30
30
31
32
30
28
31
34
33
32
32
32
31
30
31
31
28
26
27
28
28
28
28
27
25
24
23
22
22
22
21
20
20
19
17
17
19
19
17
16
18
16
14
16
18
16
14
14
14
14
14
14
14
13
12
13
14
15
16
14
12
13
13
11
11
14
15
13
12
12
11
9
8
9
10
9
7
5
4
5
6
6
5
4
3
2
4
6
6
6
5
4
4
4
4
4
3
2
3
4
3
2
3
4
4
4
3
2
2
2
3
4
4
4
4
4
4
4
4
4
4
4
4
6
8
7
6
7
8
5
2
4
6
6
6
5
4
5
6
6
6
5
4
3
3
5
5
3
2
2
2
1
2
5
6
7
10
13
17
21
24
27
32
37
36
32
26
20
20
20
19
18
18
17
10
4
3
2
3
4
3
2
4
4
-1
-4
-5
-6
-5
-3
-1
0
1
2
3
4
4
4
5
13
22
22
19
9
-1
-2
-2
-7
-14
-101
-182
-206
-232
-261
-279
-238
-205
-196
-183
-158
-131
-102
-74
-46
-26
-16
-8
-1
3
6
8
8
9
11
12
12
12
13
14
14
14
15
16
15
15
17
18
18
20
22
23
24
25
26
27
28
28
28
30
32
34
36
38
40
42
44
46
48
50
52
53
55
58
60
61
62
62
61
59
58
58
56
53
49
45
43
41
38
35
31
26
22
18
18
18
16
14
14
14
12
10
11
12
10
8
9
10
9
8
9
9
6
4
4
4
3
2
2
3
5
6
6
6
7
8
8
8
9
10
11
13
12
17
18
19
20
20
20
21
22
23
24
26
28
29
30
30
30
30
30
29
28
28
28
28
28
28
28
27
26
26
25
23
22
21
20
20
20
21
21
19
18
17
14
12
14
16
14
12
10
8
9
10
8
6
6
6
4
2
4
6
5
4
6
7
5
5
7
8
7
6
6
6
7
8
9
9
7
6
6
6
7
8
8
8
8
7
6
7
8
7
6
5
4
5
6
6
6
5
4
3
2
1
0
1
2
3
3
1
0
0
1
3
3
1
0
0
0
1
2
2
2
1
0
-1
-1
-2
2
2
2
2
1
0
-1
-2
-2
-2
-2
-2
-1
0
0
0
0
0
-2
-4
-4
-4
-3
-2
-1
0
0
0
0
0
1
1
-1
-2
-1
0
1
2
3
3
1
-1
-2
-2
-2
0
2
0
-2
-1
0
1
2
5
8
10
13
16
19
23
27
30
32
31
26
18
14
15
16
15
12
8
3
-2
-4
-5
-6
-5
-4
-4
-5
-7
-8
-10
-12
-14
-13
-12
-11
-10
-10
-10
-9
-8
-8
-7
-3
3
12
16
10
-1
-19
-21
-6
-22
-68
-135
-218
-256
-266
-266
-260
-229
-188
-181
-185
-152
-110
-88
-68
-52
-35
-25
-34
-10
-6
-6
-6
-4
-2
-2
-2
-1
0
0
0
-1
-2
0
2
0
-2
0
2
1
0
0
1
3
5
7
9
11
12
13
14
15
19
23
24
24
27
31
32
32
35
38
40
42
43
44
44
44
46
48
48
48
45
41
37
34
32
29
26
23
20
17
14
12
11
9
7
6
5
4
4
4
4
4
4
4
3
2
1
0
-1
-2
-4
-3
-2
-3
-4
-4
-4
-6
-8
-7
-6
-6
-6
-5
-4
-5
-6
-6
-6
-6
-6
-7
-8
-8
-8
-7
-6
-6
-6
-5
-4
-5
-6
-5
-2
1
2
1
0
0
0
0
1
2
1
0
-1
-2
-1
0
0
0
0
0
-1
-2
-2
-2
-1
0
-1
-2
-3
-4
-3
-2
-2
-2
-2
-2
-2
-2
-1
0
0
0
0
0
-1
-1
1
2
2
2
2
2
2
2
2
1
0
0
0
1
2
2
2
1
0
0
0
1
2
0
-2
-1
0
-1
-2
-2
-2
-2
-2
-2
-2
-2
-1
1
2
1
0
-1
-1
1
1
-2
1
4
2
0
3
6
4
2
4
6
5
4
5
6
5
4
3
2
3
4
3
2
1
0
-1
-2
-1
0
0
-1
-3
-4
-4
-4
-3
-2
-2
-2
-3
-3
-4
0
0
0
0
1
2
2
2
2
2
3
4
3
2
2
2
3
4
5
6
9
13
19
22
23
26
30
33
35
34
31
27
22
18
15
14
14
11
7
3
-1
-5
-8
-5
-2
-2
-2
-5
-8
-10
-12
-13
-14
-13
-12
-12
-12
-11
-10
-11
-12
-10
-7
-5
0
8
8
1
-12
-28
-30
-22
-51
-94
-157
-226
-249
-264
-274
-283
-236
-184
-183
-186
-145
-105
-83
-60
-40
-21
-12
-4
-2
0
2
4
5
6
8
10
9
8
10
12
13
14
14
14
14
15
18
20
20
20
21
22
23
24
25
27
29
30
31
34
32
39
40
42
44
45
46
49
52
54
56
58
60
61
62
63
64
62
60
59
58
57
55
52
49
46
42
38
34
30
28
27
26
25
22
19
18
19
19
17
16
15
13
12
13
14
13
12
12
12
12
12
13
14
13
12
12
13
16
18
17
16
16
16
17
18
19
21
23
24
25
26
25
25
27
29
31
32
32
32
32
32
33
34
32
32
32
32
32
31
30
31
32
31
30
29
28
27
26
26
26
25
24
25
26
26
25
22
20
21
22
22
22
22
22
21
20
21
21
19
18
19
20
19
18
18
18
18
18
18
16
14
16
18
17
16
15
14
15
16
17
18
17
16
16
16
13
12
13
14
14
14
14
14
15
16
17
18
17
16
17
18
17
16
17
18
17
17
18
17
16
16
16
15
14
14
14
12
10
11
12
10
8
7
6
5
4
4
3
1
0
1
1
-1
-2
-3
-4
-5
-6
-7
-9
-11
-12
-12
-12
-13
-14
-14
-14
-14
-18
-22
-21
-20
-21
-22
-23
-24
-26
-28
-28
-28
-28
-28
-28
-28
-28
-28
-27
-25
-20
-18
-17
-15
-12
-8
-4
-3
-5
-11
-18
-21
-23
-24
-25
-26
-26
-35
-45
-46
-46
-46
-46
-45
-44
-45
-46
-47
-48
-51
-54
-53
-52
-51
-50
-49
-48
-46
-44
-45
-45
-42
-36
-27
-24
-30
-41
-58
-58
-48
-66
-98
-165
-245
-271
-284
-298
-312
-268
-216
-214
-217
-180
-142
-119
-97
-72
-49
-40
-32
-26
-22
-18
-14
-13
-12
-11
-9
-5
-2
-3
-3
0
2
1
1
3
4
3
3
5
6
7
8
9
11
13
14
14
15
17
18
19
22
26
27
28
31
34
34
34
36
38
40
42
44
46
46
46
46
46
45
44
43
42
39
37
34
32
31
28
24
22
21
18
15
15
17
18
18
18
18
17
15
14
14
14
12
12
12
12
12
11
10
10
10
9
8
8
8
8
8
10
12
10
8
9
10
10
10
11
12
12
14
17
18
18
18
19
21
23
24
24
25
27
28
27
26
26
27
28
27
26
25
24
25
26
25
24
23
22
21
20
19
18
17
16
15
15
17
17
14
12
11
9
7
6
6
6
6
6
5
2
-1
-2
-1
0
-1
-2
0
-1
-2
-1
0
0
0
-2
-4
-4
-4
-4
-4
-5
-6
-6
-6
-5
-4
-6
-8
-5
-5
-8
-10
-9
-8
-7
-6
-6
-7
-9
-9
-7
-6
-5
-4
-4
-4
-4
-3
-4
-1
-2
-4
-6
-4
-2
-2
-2
-1
0
-1
-2
-2
-2
-3
-4
-4
-4
-4
-4
-3
-2
-3
-4
-4
-4
-5
-6
-6
-6
-6
-6
-7
-8
-8
-9
-11
-12
-11
-11
-13
-13
-12
-12
-12
-11
-10
-15
-20
-17
-14
-16
-18
-18
-18
-19
-20
-20
-20
-18
-16
-15
-12
-8
-5
-3
1
6
8
8
7
5
1
-4
-6
-7
-8
-9
-13
-17
-21
-25
-27
-30
-30
-30
-27
-24
-27
-30
-32
-34
-34
-34
-34
-34
-32
-30
-32
-34
-32
-30
-30
-28
-21
-17
-14
-13
-16
-25
-36
-34
-23
-68
-136
-195
-251
-275
-291
-284
-272
-240
-206
-201
-204
-158
-119
-97
-75
-60
-45
-34
-24
-20
-16
-16
-16
-15
-13
-10
-8
-8
-8
-7
-6
-3
-2
-2
-2
-1
0
1
2
2
2
3
5
7
8
7
9
13
14
14
14
15
17
18
22
26
27
28
31
34
36
38
38
38
39
40
42
44
44
44
44
43
39
36
35
33
31
29
26
23
19
16
12
10
10
10
9
8
9
10
9
8
9
10
10
10
10
8
6
6
6
6
6
4
2
2
2
2
2
2
2
2
3
6
7
4
2
3
5
7
8
9
10
11
12
11
12
15
16
17
17
15
14
15
16
16
18
18
17
16
16
16
16
16
14
12
12
12
11
10
10
10
8
6
7
8
5
4
4
4
3
2
1
0
-1
-1
1
-1
-5
-3
1
0
-3
-4
-3
-3
-5
-6
-6
-5
-4
-5
-6
-6
-6
-5
-4
-6
-8
-9
-10
-10
-10
-12
-14
-13
-12
-13
-14
-14
-14
-14
-14
-15
-17
-19
-20
-19
-18
-19
-20
-20
-20
-20
-20
-21
-22
-21
-20
-22
-21
-20
-21
-22
-20
-18
-20
-22
-20
-18
-19
-20
-20
-20
-20
-20
-19
-18
-17
-16
-16
-16
-16
-15
-13
-12
-12
-12
-13
-14
-14
-13
-11
-10
-10
-10
-11
-12
-12
-12
-12
-12
-12
-13
-14
-12
-10
-12
-14
-13
-12
-14
-16
-14
-12
-11
-10
-12
-14
-15
-16
-16
-16
-15
-14
-15
-15
-13
-12
-13
-14
-13
-13
-15
-16
-16
-16
-16
-15
-13
-13
-15
-14
-12
-9
-6
-4
-2
2
6
10
15
20
24
23
21
14
10
8
6
5
4
4
1
-6
-11
-14
-15
-13
-13
-15
-15
-13
-15
-19
-20
-21
-22
-21
-20
-19
-18
-17
-16
-16
-15
-14
-13
-12
-3
4
-1
-8
-22
-31
-27
-27
-38
-77
-168
-226
-233
-248
-273
-263
-215
-193
-196
-180
-147
-118
-93
-68
-43
-31
-22
-17
-13
-10
-7
-6
-6
-4
-1
0
0
1
2
2
2
5
8
8
8
9
10
9
8
11
14
16
18
18
18
19
20
21
22
23
24
25
28
32
34
35
37
39
41
43
45
47
48
49
50
50
50
51
52
52
50
48
43
38
37
36
32
28
26
23
18
14
14
14
12
10
10
10
8
6
6
6
5
4
5
6
6
6
5
5
7
7
5
4
4
4
4
4
5
6
6
8
10
10
10
10
10
11
12
14
16
17
18
19
20
20
20
21
22
23
24
23
22
23
25
27
28
27
26
25
24
23
22
22
22
22
22
22
21
19
18
18
13
10
8
6
4
2
2
2
-1
-4
-6
-8
-10
-12
-13
-14
-15
-16
-17
-18
-18
-19
-22
-24
-24
-24
-24
-24
-24
-24
-25
-26
-26
-26
-26
-26
-25
-24
-24
-24
-23
-21
-20
-19
-18
-17
-16
-16
-16
-14
-12
-11
-10
-7
-4
-5
-6
-4
-2
-1
0
-1
-2
-1
1
3
4
3
2
3
4
5
6
6
6
5
4
4
5
7
8
7
6
4
4
4
6
8
8
8
8
8
7
6
8
10
9
8
8
8
8
8
8
8
8
8
7
6
6
6
5
4
4
4
4
4
4
4
3
2
3
4
4
6
4
12
14
17
20
26
32
33
34
33
31
24
18
19
19
16
14
15
13
5
0
0
0
0
0
1
1
-2
-4
-5
-6
-7
-8
-8
-7
-5
-4
-3
-2
-2
-2
-2
3
8
15
22
16
8
-9
-23
-14
-13
-48
-95
-176
-236
-249
-262
-276
-263
-211
-183
-186
-168
-126
-92
-65
-44
-25
-13
-5
2
8
10
10
12
15
16
16
18
21
22
21
21
24
24
24
26
28
28
28
29
30
30
30
32
34
36
38
37
36
38
40
41
42
45
46
47
49
51
52
53
56
60
62
62
63
65
66
65
64
63
61
59
58
58
54
50
48
46
42
38
35
32
30
28
26
24
25
26
24
22
22
22
22
22
22
22
22
22
23
23
21
20
21
22
22
22
22
22
22
23
25
26
25
24
25
28
30
29
28
31
34
33
32
33
34
34
34
36
38
36
34
36
38
37
36
36
36
36
36
36
36
36
36
35
34
34
34
33
32
32
30
27
26
27
28
29
29
26
25
24
24
24
23
22
21
20
21
22
21
20
21
22
21
20
21
22
21
20
21
22
21
20
21
22
21
20
20
19
17
18
21
20
17
16
16
16
16
16
16
12
10
10
10
10
10
8
6
7
8
5
2
5
8
6
4
4
4
2
0
3
4
3
2
2
2
2
2
2
2
2
2
1
0
-1
-2
-1
0
1
2
1
0
0
0
0
1
2
0
-2
0
2
3
4
2
0
2
4
4
4
4
4
6
8
7
6
6
7
9
9
7
6
7
8
9
10
9
8
7
6
6
6
6
6
6
8
10
13
16
19
22
25
29
34
38
40
42
42
40
31
26
26
26
24
22
22
17
7
2
2
2
2
2
2
1
-1
-4
-7
-9
-11
-12
-11
-10
-9
-8
-8
-7
-6
-6
-6
-5
-3
7
16
10
3
-10
-19
-15
-16
-28
-70
-161
-220
-234
-255
-285
-274
-221
-198
-198
-177
-141
-113
-89
-62
-34
-18
-7
-1
3
5
7
10
13
14
15
15
14
16
18
18
18
19
20
19
18
20
22
22
22
22
22
23
24
25
26
27
28
28
29
32
34
35
37
41
42
41
41
43
45
47
48
49
50
51
52
53
54
52
51
50
50
50
47
44
41
38
35
31
27
24
22
19
16
14
13
12
11
10
11
12
11
10
10
10
10
10
9
7
5
4
3
2
3
4
4
3
1
0
0
0
0
1
2
2
2
4
6
6
6
8
10
10
10
11
12
13
14
15
16
15
14
13
12
13
14
13
12
11
10
11
12
12
10
7
6
6
6
5
4
5
3
0
0
0
-1
-2
-3
-4
-5
-6
-9
-12
-10
-8
-10
-12
-13
-14
-14
-14
-12
-11
-13
-13
-11
-10
-10
-10
-9
-8
-8
-8
-9
-10
-9
-7
-5
-4
-4
-7
-11
-9
-4
-4
-4
-3
-2
-4
-6
-5
-4
-4
-4
-6
-8
-7
-6
-5
-4
-5
-6
-8
-10
-10
-10
-11
-11
-9
-9
-11
-12
-11
-10
-10
-10
-9
-8
-9
-10
-9
-8
-8
-8
-8
-8
-8
-8
-8
-7
-6
-7
-8
-6
-4
-6
-8
-7
-6
-7
-8
-8
-8
-8
-8
-7
-6
-7
-8
-7
-6
-6
-6
-7
-8
-9
-10
-9
-8
-8
-8
-9
-10
-9
-9
-11
-10
-8
-10
-12
-12
-12
-11
-10
-10
-10
-11
-12
-11
-10
-11
-12
-11
-10
