-1220
-1220
-1221
-1220
-1218
-1219
-1223
-1224
-1229
-1234
-1240
-1236
-1239
-1244
-1245
-1246
-1246
-1245
-1248
-1247
-1250
-1245
-1246
-1253
-1263
-1270
-1274
-1270
-1254
-1222
-1181
-1130
-1096
-1075
-1071
-1056
-1035
-1015
-996
-985
-1012
-1077
-1140
-1181
-1210
-1224
-1239
-1247
-1254
-1263
-1268
-1273
-1276
-1276
-1278
-1278
-1279
-1277
-1278
-1280
-1279
-1278
-1280
-1280
-1279
-1278
-1280
-1277
-1278
-1277
-1277
-1278
-1278
-1279
-1279
-1280
-1281
-1282
-1281
-1285
-1283
-1282
-1281
-1284
-1284
-1284
-1284
-1284
-1285
-1285
-1284
-1282
-1279
-1280
-1277
-1275
-1268
-1264
-1260
-1256
-1251
-1245
-1239
-1237
-1232
-1234
-1229
-1232
-1232
-1232
-1232
-1234
-1237
-1239
-1241
-1247
-1241
-1248
-1251
-1253
-1253
-1254
-1253
-1252
-1253
-1253
-1256
-1256
-1255
-1258
-1256
-1259
-1258
-1258
-1260
-1259
-1259
-1258
-1258
-1259
-1260
-1261
-1260
-1260
-1264
-1260
-1260
-1259
-1259
-1259
-1258
-1257
-1255
-1256
-1256
-1254
-1254
-1254
-1254
-1253
-1252
-1252
-1252
-1253
-1256
-1248
-1248
-1249
-1251
-1250
-1250
-1246
-1247
-1250
-1248
-1248
-1247
-1246
-1248
-1244
-1247
-1243
-1244
-1244
-1242
-1242
-1244
-1243
-1244
-1242
-1243
-1233
-1239
-1242
-1239
-1236
-1232
-1229
-1224
-1220
-1222
-1213
-1215
-1216
-1218
-1216
-1217
-1222
-1228
-1232
-1232
-1234
-1237
-1238
-1241
-1240
-1243
-1241
-1240
-1242
-1240
-1243
-1249
-1258
-1266
-1267
-1262
-1246
-1217
-1179
-1134
-1096
-1069
-1056
-1049
-1032
-1015
-992
-979
-991
-1042
-1112
-1164
-1199
-1218
-1230
-1238
-1245
-1253
-1261
-1261
-1266
-1267
-1271
-1269
-1272
-1274
-1274
-1273
-1272
-1274
-1275
-1272
-1275
-1273
-1275
-1272
-1272
-1273
-1273
-1272
-1273
-1274
-1274
-1273
-1277
-1272
-1275
-1276
-1274
-1276
-1277
-1276
-1276
-1276
-1281
-1272
-1272
-1271
-1272
-1267
-1267
-1264
-1260
-1256
-1249
-1245
-1242
-1235
-1232
-1227
-1225
-1222
-1219
-1219
-1218
-1217
-1220
-1222
-1227
-1229
-1232
-1230
-1234
-1239
-1236
-1241
-1243
-1242
-1244
-1246
-1250
-1248
-1251
-1254
-1252
-1252
-1253
-1253
-1251
-1251
-1251
-1252
-1253
-1255
-1252
-1252
-1252
-1255
-1253
-1254
-1254
-1252
-1253
-1253
-1254
-1254
-1252
-1255
-1252
-1253
-1248
-1251
-1252
-1250
-1250
-1248
-1249
-1250
-1250
-1252
-1246
-1248
-1251
-1247
-1246
-1247
-1249
-1248
-1247
-1251
-1243
-1247
-1244
-1245
-1245
-1246
-1247
-1246
-1244
-1245
-1243
-1244
-1245
-1248
-1245
-1245
-1241
-1240
-1242
-1238
-1234
-1230
-1225
-1221
-1221
-1222
-1220
-1219
-1222
-1220
-1222
-1225
-1229
-1235
-1238
-1241
-1241
-1246
-1248
-1245
-1246
-1247
-1245
-1245
-1246
-1248
-1254
-1264
-1272
-1271
-1269
-1254
-1229
-1184
-1142
-1106
-1080
-1068
-1059
-1040
-1020
-1000
-986
-994
-1056
-1122
-1173
-1205
-1222
-1237
-1247
-1255
-1265
-1269
-1276
-1274
-1278
-1280
-1280
-1280
-1280
-1280
-1281
-1280
-1286
-1279
-1282
-1282
-1284
-1281
-1281
-1282
-1281
-1283
-1281
-1282
-1283
-1282
-1285
-1283
-1284
-1284
-1284
-1285
-1284
-1286
-1286
-1285
-1286
-1285
-1288
-1282
-1282
-1282
-1275
-1272
-1271
-1267
-1263
-1259
-1256
-1250
-1244
-1242
-1235
-1233
-1231
-1230
-1229
-1229
-1230
-1232
-1232
-1234
-1232
-1237
-1240
-1245
-1245
-1247
-1250
-1250
-1253
-1252
-1252
-1253
-1254
-1257
-1255
-1258
-1253
-1253
-1256
-1255
-1255
-1256
-1257
-1260
-1259
-1262
-1255
-1258
-1261
-1259
-1259
-1260
-1258
-1258
-1259
-1262
-1256
-1260
-1258
-1262
-1259
-1258
-1256
-1256
-1256
-1256
-1256
-1256
-1255
-1256
-1253
-1256
-1256
-1256
-1255
-1254
-1254
-1255
-1253
-1254
-1253
-1254
-1251
-1249
-1250
-1248
-1247
-1248
-1247
-1249
-1249
-1250
-1247
-1245
-1246
-1240
-1242
-1240
-1236
-1231
-1226
-1225
-1224
-1224
-1225
-1222
-1222
-1224
-1228
-1230
-1234
-1238
-1241
-1243
-1244
-1247
-1247
-1246
-1248
-1246
-1250
-1247
-1247
-1250
-1256
-1266
-1272
-1273
-1274
-1263
-1242
-1201
-1158
-1118
-1080
-1059
-1054
-1043
-1024
-1006
-996
-983
-1020
-1090
-1154
-1189
-1214
-1230
-1241
-1252
-1259
-1267
-1274
-1275
-1279
-1278
-1281
-1282
-1283
-1285
-1282
-1283
-1283
-1283
-1284
-1282
-1283
-1283
-1283
-1286
-1282
-1283
-1284
-1281
-1282
-1284
-1284
-1282
-1282
-1284
-1279
-1280
-1281
-1282
-1280
-1281
-1282
-1283
-1281
-1283
-1276
-1276
-1273
-1272
-1268
-1267
-1264
-1258
-1254
-1248
-1245
-1239
-1234
-1234
-1228
-1227
-1222
-1222
-1226
-1225
-1227
-1228
-1228
-1231
-1232
-1238
-1234
-1238
-1242
-1243
-1245
-1246
-1247
-1247
-1250
-1253
-1246
-1248
-1250
-1252
-1250
-1251
-1251
-1251
-1252
-1253
-1253
-1252
-1250
-1253
-1253
-1252
-1251
-1252
-1254
-1252
-1250
-1250
-1248
-1250
-1250
-1253
-1251
-1250
-1252
-1247
-1246
-1248
-1246
-1246
-1246
-1247
-1246
-1246
-1246
-1242
-1244
-1245
-1245
-1243
-1242
-1243
-1243
-1242
-1245
-1239
-1238
-1236
-1240
-1239
-1238
-1238
-1238
-1237
-1237
-1236
-1233
-1232
-1237
-1233
-1232
-1225
-1222
-1218
-1211
-1212
-1214
-1213
-1215
-1214
-1218
-1213
-1215
-1222
-1228
-1231
-1234
-1236
-1236
-1236
-1240
-1236
-1237
-1236
-1240
-1238
-1241
-1244
-1249
-1256
-1263
-1264
-1261
-1245
-1222
-1180
-1138
-1103
-1074
-1059
-1052
-1036
-1016
-997
-980
-974
-1013
-1080
-1140
-1182
-1205
-1222
-1235
-1242
-1250
-1258
-1263
-1264
-1268
-1270
-1268
-1269
-1271
-1271
-1271
-1272
-1271
-1272
-1272
-1276
-1272
-1273
-1272
-1276
-1273
-1274
-1274
-1274
-1274
-1272
-1274
-1274
-1272
-1275
-1273
-1276
-1274
-1275
-1277
-1274
-1275
-1276
-1274
-1276
-1272
-1274
-1266
-1266
-1264
-1257
-1254
-1251
-1244
-1239
-1235
-1238
-1225
-1222
-1221
-1218
-1217
-1217
-1218
-1220
-1221
-1220
-1224
-1227
-1228
-1230
-1230
-1232
-1234
-1235
-1239
-1238
-1238
-1240
-1240
-1242
-1242
-1244
-1243
-1246
-1250
-1246
-1248
-1250
-1250
-1248
-1248
-1248
-1250
-1250
-1254
-1248
-1250
-1251
-1250
-1250
-1251
-1252
-1252
-1252
-1255
-1250
-1252
-1250
-1254
-1252
-1252
-1250
-1249
-1249
-1248
-1249
-1248
-1247
-1251
-1248
-1249
-1247
-1249
-1248
-1246
-1246
-1247
-1244
-1246
-1244
-1246
-1239
-1241
-1242
-1241
-1240
-1240
-1241
-1240
-1240
-1242
-1234
-1237
-1238
-1236
-1230
-1228
-1222
-1219
-1216
-1216
-1216
-1215
-1215
-1218
-1218
-1220
-1222
-1229
-1234
-1234
-1238
-1242
-1240
-1240
-1238
-1239
-1240
-1241
-1243
-1239
-1238
-1245
-1255
-1264
-1266
-1263
-1248
-1220
-1183
-1136
-1100
-1069
-1051
-1047
-1031
-1012
-992
-980
-986
-1034
-1104
-1158
-1196
-1216
-1229
-1241
-1251
-1258
-1264
-1267
-1268
-1270
-1274
-1273
-1275
-1274
-1274
-1276
-1274
-1275
-1272
-1274
-1276
-1276
-1276
-1270
-1272
-1273
-1272
-1272
-1272
-1273
-1272
-1272
-1276
-1270
-1273
-1273
-1274
-1273
-1274
-1274
-1273
-1273
-1270
-1269
-1268
-1267
-1268
-1265
-1261
-1258
-1256
-1255
-1249
-1244
-1239
-1236
-1232
-1228
-1224
-1222
-1220
-1220
-1215
-1216
-1218
-1219
-1222
-1224
-1228
-1230
-1230
-1235
-1232
-1235
-1237
-1239
-1242
-1243
-1242
-1242
-1243
-1248
-1242
-1245
-1246
-1250
-1249
-1250
-1248
-1248
-1250
-1248
-1249
-1251
-1249
-1252
-1250
-1253
-1248
-1248
-1248
-1247
-1246
-1246
-1248
-1254
-1250
-1251
-1243
-1246
-1246
-1246
-1245
-1245
-1246
-1246
-1245
-1248
-1242
-1243
-1243
-1244
-1246
-1246
-1243
-1241
-1240
-1240
-1242
-1242
-1244
-1244
-1242
-1242
-1243
-1240
-1240
-1237
-1237
-1240
-1240
-1241
-1239
-1238
-1237
-1236
-1238
-1235
-1233
-1228
-1221
-1217
-1216
-1216
-1211
-1214
-1216
-1209
-1212
-1216
-1220
-1222
-1228
-1234
-1234
-1236
-1240
-1239
-1238
-1236
-1240
-1241
-1242
-1241
-1242
-1243
-1246
-1256
-1264
-1267
-1271
-1260
-1242
-1206
-1163
-1126
-1092
-1069
-1062
-1049
-1029
-1008
-990
-974
-1004
-1075
-1140
-1180
-1206
-1224
-1236
-1244
-1257
-1256
-1264
-1268
-1270
-1269
-1271
-1272
-1272
-1272
-1272
-1273
-1272
-1270
-1271
-1270
-1269
-1272
-1271
-1271
-1270
-1271
-1272
-1272
-1272
-1272
-1272
-1273
-1272
-1274
-1272
-1272
-1274
-1272
-1273
-1272
-1273
-1272
-1270
-1273
-1265
-1265
-1264
-1262
-1260
-1254
-1251
-1246
-1240
-1240
-1228
-1228
-1223
-1222
-1217
-1215
-1214
-1214
-1214
-1214
-1217
-1218
-1218
-1224
-1226
-1229
-1228
-1232
-1236
-1234
-1236
-1238
-1238
-1240
-1239
-1243
-1240
-1242
-1244
-1243
-1246
-1247
-1248
-1246
-1248
-1251
-1243
-1248
-1248
-1249
-1248
-1248
-1250
-1250
-1249
-1250
-1252
-1251
-1250
-1250
-1249
-1248
-1247
-1248
-1248
-1248
-1245
-1245
-1242
-1242
-1243
-1243
-1243
-1240
-1242
-1240
-1242
-1245
-1243
-1243
-1242
-1243
-1242
-1241
-1246
-1240
-1240
-1242
-1242
-1241
-1241
-1240
-1238
-1236
-1241
-1234
-1238
-1237
-1238
-1235
-1237
-1237
-1236
-1233
-1228
-1224
-1221
-1216
-1217
-1213
-1215
-1213
-1213
-1213
-1214
-1215
-1219
-1225
-1232
-1232
-1236
-1232
-1235
-1237
-1236
-1237
-1239
-1241
-1240
-1239
-1245
-1241
-1251
-1258
-1264
-1265
-1261
-1251
-1226
-1184
-1141
-1099
-1070
-1054
-1052
-1035
-1014
-997
-983
-999
-1062
-1129
-1174
-1201
-1220
-1233
-1246
-1253
-1260
-1267
-1268
-1272
-1275
-1275
-1276
-1278
-1278
-1279
-1277
-1281
-1276
-1280
-1280
-1278
-1277
-1280
-1283
-1283
-1282
-1286
-1280
-1281
-1280
-1284
-1282
-1282
-1282
-1282
-1283
-1282
-1282
-1281
-1280
-1283
-1281
-1281
-1276
-1275
-1274
-1273
-1272
-1268
-1262
-1262
-1256
-1254
-1245
-1244
-1243
-1235
-1232
-1229
-1227
-1225
-1222
-1227
-1220
-1225
-1227
-1230
-1230
-1231
-1234
-1236
-1238
-1240
-1240
-1240
-1243
-1245
-1244
-1244
-1246
-1246
-1248
-1247
-1248
-1247
-1248
-1248
-1250
-1250
-1251
-1251
-1254
-1248
-1250
-1253
-1251
-1252
-1252
-1254
-1253
-1249
-1253
-1249
-1250
-1248
-1248
-1248
-1246
-1244
-1245
-1244
-1247
-1240
-1243
-1242
-1245
-1243
-1242
-1243
-1243
-1243
-1242
-1242
-1243
-1241
-1244
-1242
-1242
-1242
-1243
-1244
-1244
-1243
-1242
-1240
-1242
-1241
-1243
-1238
-1240
-1244
-1242
-1240
-1240
-1238
-1239
-1238
-1239
-1226
-1226
-1222
-1217
-1214
-1216
-1216
-1216
-1215
-1214
-1215
-1218
-1222
-1224
-1229
-1232
-1234
-1235
-1239
-1240
-1239
-1239
-1240
-1242
-1242
-1240
-1240
-1242
-1250
-1254
-1262
-1268
-1265
-1254
-1228
-1189
-1146
-1107
-1081
-1060
-1053
-1032
-1011
-991
-982
-1020
-1086
-1146
-1188
-1207
-1223
-1232
-1245
-1251
-1257
-1261
-1264
-1266
-1267
-1266
-1267
-1266
-1270
-1269
-1271
-1267
-1268
-1272
-1272
-1272
-1272
-1274
-1276
-1274
-1277
-1271
-1272
-1275
-1274
-1276
-1278
-1277
-1278
-1277
-1279
-1275
-1278
-1279
-1282
-1280
-1278
-1279
-1277
-1277
-1276
-1274
-1272
-1268
-1262
-1261
-1257
-1255
-1250
-1246
-1240
-1236
-1232
-1229
-1227
-1226
-1224
-1225
-1226
-1229
-1228
-1230
-1234
-1237
-1239
-1240
-1245
-1246
-1247
-1251
-1246
-1249
-1251
-1252
-1253
-1253
-1252
-1254
-1253
-1256
-1251
-1254
-1255
-1257
-1256
-1257
-1256
-1256
-1257
-1255
-1254
-1254
-1254
-1260
-1256
-1255
-1254
-1256
-1254
-1252
-1252
-1253
-1251
-1252
-1252
-1254
-1248
-1250
-1252
-1248
-1248
-1248
-1248
-1246
-1246
-1248
-1243
-1245
-1245
-1243
-1242
-1243
-1245
-1243
-1244
-1244
-1243
-1243
-1243
-1244
-1243
-1242
-1244
-1243
-1243
-1242
-1242
-1242
-1240
-1239
-1239
-1240
-1240
-1237
-1241
-1237
-1236
-1232
-1228
-1224
-1220
-1216
-1214
-1214
-1218
-1211
-1214
-1215
-1215
-1217
-1223
-1229
-1233
-1235
-1242
-1239
-1242
-1240
-1243
-1241
-1241
-1242
-1241
-1242
-1245
-1250
-1257
-1266
-1273
-1268
-1261
-1234
-1198
-1153
-1111
-1076
-1061
-1053
-1037
-1016
-1003
-988
-1012
-1081
-1144
-1186
-1213
-1230
-1242
-1251
-1261
-1261
-1268
-1269
-1272
-1273
-1277
-1276
-1278
-1279
-1280
-1277
-1276
-1278
-1278
-1278
-1278
-1280
-1278
-1278
-1275
-1276
-1277
-1276
-1277
-1280
-1281
-1280
-1278
-1282
-1280
-1278
-1280
-1280
-1280
-1280
-1279
-1279
-1276
-1276
-1268
-1269
-1266
-1262
-1261
-1257
-1254
-1250
-1245
-1246
-1235
-1234
-1230
-1230
-1225
-1224
-1221
-1220
-1220
-1220
-1220
-1223
-1225
-1231
-1230
-1233
-1232
-1234
-1237
-1239
-1242
-1242
-1243
-1245
-1245
-1248
-1246
-1246
-1246
-1243
-1246
-1248
-1249
-1251
-1249
-1253
-1247
-1251
-1252
-1250
-1248
-1248
-1250
-1250
-1251
-1250
-1248
-1246
-1248
-1246
-1249
-1248
-1248
-1247
-1248
-1247
-1246
-1246
-1244
-1246
-1245
-1245
-1246
-1245
-1245
-1240
-1243
-1244
-1245
-1244
-1245
-1244
-1243
-1243
-1246
-1240
-1244
-1244
-1244
-1243
-1243
-1242
-1242
-1241
-1246
-1236
-1240
-1239
-1240
-1236
-1237
-1238
-1238
-1237
-1236
-1236
-1236
-1233
-1234
-1228
-1226
-1220
-1216
-1214
-1213
-1212
-1213
-1212
-1215
-1212
-1216
-1217
-1224
-1230
-1230
-1233
-1236
-1238
-1237
-1237
-1240
-1235
-1236
-1237
-1237
-1237
-1243
-1250
-1259
-1262
-1260
-1244
-1216
-1173
-1131
-1094
-1071
-1063
-1044
-1024
-1004
-988
-992
-1046
-1115
-1166
-1198
-1221
-1232
-1245
-1247
-1255
-1260
-1262
-1266
-1268
-1269
-1270
-1271
-1273
-1267
-1270
-1271
-1269
-1270
-1268
-1269
-1271
-1271
-1274
-1266
-1270
-1269
-1272
-1270
-1272
-1270
-1271
-1272
-1272
-1273
-1273
-1271
-1275
-1272
-1274
-1274
-1274
-1274
-1273
-1271
-1269
-1269
-1268
-1264
-1262
-1256
-1254
-1255
-1250
-1246
-1242
-1237
-1232
-1228
-1228
-1220
-1219
-1219
-1217
-1217
-1219
-1220
-1221
-1222
-1228
-1230
-1231
-1233
-1235
-1239
-1240
-1243
-1242
-1246
-1246
-1246
-1246
-1247
-1247
-1248
-1248
-1249
-1251
-1253
-1248
-1249
-1251
-1250
-1253
-1252
-1254
-1253
-1252
-1256
-1250
-1252
-1252
-1251
-1250
-1250
-1252
-1252
-1249
-1253
-1248
-1249
-1246
-1250
-1250
-1250
-1248
-1248
-1247
-1245
-1246
-1245
-1245
-1248
-1246
-1247
-1245
-1246
-1248
-1247
-1246
-1248
-1248
-1248
-1247
-1248
-1242
-1244
-1245
-1243
-1244
-1243
-1242
-1242
-1240
-1244
-1239
-1242
-1244
-1240
-1240
-1240
-1240
-1239
-1236
-1230
-1227
-1220
-1217
-1216
-1215
-1215
-1217
-1216
-1217
-1218
-1220
-1227
-1231
-1233
-1236
-1238
-1238
-1238
-1241
-1239
-1241
-1240
-1239
-1240
-1243
-1250
-1260
-1266
-1269
-1248
-1224
-1186
-1143
-1105
-1080
-1069
-1055
-1031
-1016
-992
-999
-1051
-1122
-1169
-1200
-1220
-1234
-1243
-1252
-1259
-1265
-1266
-1272
-1269
-1271
-1270
-1274
-1275
-1277
-1276
-1276
-1277
-1279
-1277
-1278
-1272
-1274
-1277
-1275
-1275
-1276
-1276
-1278
-1276
-1276
-1277
-1279
-1280
-1279
-1279
-1279
-1280
-1280
-1282
-1282
-1281
-1280
-1280
-1280
-1277
-1278
-1278
-1274
-1273
-1271
-1266
-1264
-1259
-1254
-1249
-1244
-1242
-1235
-1234
-1228
-1227
-1227
-1225
-1226
-1226
-1227
-1228
-1230
-1237
-1232
-1235
-1239
-1238
-1240
-1241
-1244
-1246
-1245
-1252
-1245
-1249
-1248
-1253
-1251
-1252
-1252
-1253
-1253
-1254
-1253
-1251
-1250
-1256
-1255
-1257
-1255
-1257
-1259
-1257
-1255
-1254
-1254
-1256
-1254
-1257
-1253
-1252
-1254
-1252
-1252
-1251
-1251
-1250
-1250
-1250
-1247
-1247
-1250
-1250
-1247
-1246
-1246
-1245
-1244
-1244
-1246
-1246
-1248
-1245
-1246
-1244
-1246
-1244
-1246
-1246
-1245
-1246
-1246
-1245
-1243
-1244
-1246
-1245
-1245
-1240
-1243
-1245
-1242
-1242
-1241
-1238
-1240
-1238
-1242
-1231
-1231
-1226
-1220
-1216
-1216
-1217
-1220
-1218
-1221
-1214
-1220
-1224
-1232
-1234
-1236
-1239
-1240
-1241
-1240
-1241
-1241
-1241
-1244
-1242
-1245
-1248
-1259
-1264
-1264
-1256
-1235
-1196
-1155
-1117
-1087
-1067
-1064
-1051
-1028
-1010
-993
-996
-1047
-1114
-1165
-1196
-1218
-1233
-1242
-1248
-1255
-1261
-1268
-1269
-1271
-1271
-1272
-1274
-1273
-1273
-1273
-1275
-1276
-1276
-1272
-1272
-1274
-1275
-1274
-1274
-1272
-1276
-1274
-1275
-1273
-1274
-1276
-1274
-1274
-1275
-1275
-1277
-1274
-1278
-1270
-1275
-1278
-1277
-1276
-1276
-1276
-1275
-1274
-1278
-1266
-1266
-1263
-1262
-1256
-1252
-1248
-1244
-1242
-1237
-1232
-1228
-1228
-1222
-1218
-1218
-1220
-1219
-1220
-1222
-1224
-1225
-1226
-1229
-1232
-1237
-1234
-1237
-1242
-1240
-1242
-1243
-1243
-1245
-1246
-1251
-1245
-1248
-1248
-1246
-1248
-1250
-1249
-1248
-1248
-1250
-1249
-1248
-1251
-1246
-1248
-1249
-1252
-1251
-1251
-1249
-1250
-1249
-1248
-1248
-1248
-1248
-1249
-1246
-1248
-1245
-1247
-1248
-1245
-1246
-1246
-1246
-1247
-1243
-1246
-1240
-1245
-1246
-1244
-1243
-1242
-1242
-1242
-1245
-1250
-1242
-1243
-1243
-1245
-1243
-1242
-1243
-1243
-1244
-1243
-1242
-1240
-1241
-1244
-1242
-1241
-1241
-1240
-1240
-1238
-1238
-1238
-1237
-1237
-1235
-1234
-1228
-1222
-1219
-1212
-1214
-1215
-1214
-1214
-1216
-1219
-1221
-1228
-1235
-1234
-1237
-1239
-1242
-1241
-1242
-1243
-1242
-1240
-1242
-1240
-1246
-1254
-1264
-1266
-1265
-1250
-1224
-1186
-1146
-1107
-1082
-1067
-1062
-1038
-1020
-998
-987
-997
-1048
-1114
-1163
-1194
-1217
-1229
-1243
-1242
-1252
-1259
-1265
-1268
-1268
-1271
-1272
-1274
-1277
-1267
-1270
-1271
-1275
-1274
-1272
-1272
-1272
-1271
-1272
-1269
-1272
-1270
-1273
-1270
-1273
-1272
-1274
-1276
-1274
-1275
-1275
-1276
-1278
-1278
-1279
-1276
-1278
-1282
-1277
-1276
-1280
-1278
-1277
-1274
-1277
-1269
-1265
-1262
-1257
-1255
-1252
-1246
-1240
-1235
-1232
-1229
-1227
-1227
-1224
-1227
-1228
-1231
-1230
-1232
-1234
-1236
-1240
-1242
-1242
-1245
-1246
-1249
-1246
-1249
-1246
-1248
-1252
-1250
-1252
-1252
-1252
-1252
-1252
-1255
-1249
-1253
-1256
-1252
-1252
-1253
-1255
-1256
-1254
-1259
-1251
-1255
-1254
-1256
-1254
-1254
-1255
-1253
-1254
-1255
-1254
-1252
-1252
-1254
-1250
-1250
-1250
-1250
-1252
-1250
-1251
-1251
-1248
-1248
-1249
-1250
-1247
-1248
-1250
-1248
-1248
-1248
-1246
-1246
-1246
-1249
-1249
-1250
-1250
-1247
-1246
-1247
-1247
-1246
-1248
-1249
-1248
-1246
-1250
-1244
-1246
-1243
-1245
-1242
-1242
-1243
-1242
-1236
-1232
-1225
-1222
-1220
-1220
-1220
-1221
-1218
-1220
-1224
-1229
-1236
-1238
-1239
-1241
-1241
-1246
-1240
-1245
-1243
-1243
-1244
-1245
-1244
-1245
-1251
-1263
-1261
-1264
-1258
-1243
-1212
-1171
-1132
-1095
-1066
-1054
-1048
-1033
-1013
-1000
-990
-1004
-1056
-1122
-1169
-1200
-1222
-1235
-1244
-1254
-1262
-1269
-1269
-1273
-1276
-1275
-1276
-1278
-1278
-1278
-1279
-1282
-1277
-1277
-1280
-1275
-1277
-1276
-1278
-1279
-1282
-1283
-1280
-1280
-1281
-1278
-1278
-1279
-1280
-1282
-1283
-1284
-1282
-1283
-1282
-1280
-1280
-1280
-1281
-1280
-1281
-1275
-1275
-1274
-1269
-1266
-1262
-1259
-1256
-1250
-1247
-1236
-1237
-1234
-1228
-1226
-1226
-1227
-1227
-1228
-1235
-1228
-1233
-1235
-1238
-1238
-1242
-1244
-1246
-1246
-1247
-1249
-1250
-1252
-1254
-1253
-1254
-1254
-1255
-1256
-1256
-1255
-1256
-1255
-1256
-1256
-1256
-1252
-1254
-1256
-1254
-1256
-1256
-1254
-1252
-1252
-1253
-1250
-1252
-1253
-1248
-1248
-1250
-1250
-1248
-1246
-1248
-1247
-1247
-1249
-1243
-1247
-1246
-1247
-1244
-1246
-1246
-1245
-1243
-1242
-1242
-1242
-1242
-1245
-1242
-1243
-1240
-1240
-1242
-1242
-1242
-1241
-1240
-1243
-1241
-1244
-1237
-1241
-1243
-1241
-1239
-1239
-1240
-1237
-1238
-1240
-1232
-1235
-1233
-1233
-1227
-1222
-1219
-1212
-1210
-1210
-1210
-1210
-1210
-1215
-1214
-1216
-1222
-1227
-1232
-1233
-1234
-1235
-1236
-1239
-1238
-1238
-1235
-1236
-1239
-1237
-1240
-1245
-1253
-1261
-1266
-1262
-1252
-1228
-1195
-1151
-1115
-1086
-1071
-1062
-1043
-1023
-1004
-986
-992
-1038
-1111
-1162
-1196
-1215
-1228
-1236
-1245
-1252
-1256
-1259
-1262
-1261
-1266
-1265
-1269
-1266
-1268
-1268
-1269
-1268
-1267
-1266
-1269
-1269
-1272
-1264
-1266
-1269
-1269
-1269
-1271
-1271
-1270
-1269
-1272
-1267
-1270
-1268
-1271
-1270
-1269
-1269
-1268
-1269
-1270
-1270
-1268
-1263
-1264
-1259
-1256
-1251
-1248
-1245
-1239
-1234
-1230
-1226
-1222
-1219
-1216
-1212
-1212
-1212
-1208
-1212
-1213
-1213
-1215
-1216
-1220
-1222
-1221
-1225
-1222
-1224
-1228
-1229
-1229
-1232
-1232
-1232
-1233
-1237
-1233
-1235
-1234
-1236
-1234
-1237
-1238
-1238
-1237
-1238
-1237
-1240
-1239
-1243
-1242
-1243
-1240
-1242
-1242
-1241
-1242
-1240
-1240
-1242
-1242
-1244
-1236
-1240
-1240
-1238
-1238
-1238
-1238
-1237
-1236
-1240
-1233
-1235
-1234
-1237
-1235
-1235
-1237
-1236
-1235
-1235
-1233
-1235
-1235
-1238
-1236
-1234
-1234
-1234
-1235
-1233
-1232
-1233
-1234
-1236
-1233
-1235
-1234
-1233
-1235
-1231
-1232
-1234
-1232
-1232
-1232
-1233
-1228
-1227
-1230
-1225
-1222
-1218
-1216
-1210
-1208
-1207
-1208
-1208
-1211
-1207
-1208
-1209
-1213
-1216
-1220
-1225
-1228
-1230
-1232
-1233
-1234
-1234
-1236
-1235
-1236
-1232
-1236
-1240
-1241
-1248
-1255
-1260
-1261
-1249
-1229
-1184
-1146
-1113
-1085
-1074
-1065
-1043
-1021
-1000
-990
-1009
-1077
-1141
-1183
-1204
-1222
-1233
-1242
-1251
-1257
-1260
-1262
-1262
-1268
-1267
-1268
-1268
-1268
-1268
-1268
-1267
-1268
-1266
-1266
-1266
-1267
-1267
-1268
-1269
-1265
-1266
-1267
-1269
-1269
-1268
-1270
-1269
-1271
-1273
-1269
-1272
-1272
-1272
-1274
-1272
-1272
-1272
-1271
-1271
-1268
-1268
-1265
-1267
-1262
-1258
-1254
-1251
-1246
-1242
-1235
-1232
-1227
-1226
-1221
-1220
-1215
-1215
-1216
-1215
-1216
-1217
-1217
-1220
-1220
-1222
-1224
-1224
-1227
-1225
-1226
-1228
-1227
-1229
-1229
-1234
-1227
-1232
-1232
-1234
-1235
-1236
-1236
-1236
-1236
-1238
-1238
-1238
-1238
-1240
-1238
-1240
-1240
-1241
-1240
-1240
-1240
-1242
-1241
-1241
-1240
-1239
-1239
-1240
-1242
-1239
-1239
-1239
-1237
-1236
-1237
-1240
-1238
-1238
-1239
-1237
-1236
-1236
-1236
-1236
-1236
-1237
-1236
-1236
-1239
-1232
-1235
-1234
-1236
-1233
-1235
-1237
-1237
-1236
-1235
-1234
-1233
-1232
-1236
-1235
-1236
-1233
-1234
-1234
-1232
-1231
-1233
-1232
-1231
-1227
-1227
-1216
-1215
-1212
-1208
-1208
-1208
-1210
-1211
-1212
-1216
-1212
-1219
-1222
-1229
-1230
-1233
-1237
-1235
-1237
-1237
-1238
-1237
-1237
-1238
-1238
-1240
-1244
-1252
-1260
-1264
-1263
-1250
-1224
-1186
-1146
-1114
-1088
-1080
-1069
-1043
-1027
-1012
-1016
-1072
-1137
-1178
-1202
-1220
-1234
-1243
-1252
-1259
-1264
-1264
-1266
-1269
-1270
-1268
-1273
-1269
-1269
-1268
-1272
-1272
-1272
-1271
-1271
-1273
-1274
-1274
-1274
-1273
-1276
-1275
-1278
-1275
-1276
-1276
-1277
-1277
-1280
-1282
-1286
-1283
-1286
-1280
-1283
-1285
-1285
-1286
-1287
-1286
-1284
-1284
-1286
-1278
-1278
-1277
-1274
-1270
-1268
-1265
-1258
-1255
-1253
-1248
-1244
-1241
-1242
-1239
-1239
-1239
-1237
-1238
-1239
-1240
-1242
-1243
-1244
-1246
-1247
-1248
-1249
-1252
-1250
-1253
-1255
-1255
-1256
-1257
-1261
-1258
-1259
-1259
-1258
-1260
-1260
-1259
-1259
-1260
-1262
-1261
-1262
-1265
-1261
-1263
-1262
-1266
-1265
-1264
-1263
-1263
-1262
-1264
-1262
-1262
-1261
-1264
-1261
-1263
-1260
-1262
-1263
-1260
-1260
-1259
-1258
-1259
-1258
-1262
-1255
-1258
-1260
-1258
-1259
-1259
-1259
-1258
-1259
-1263
-1256
-1259
-1258
-1260
-1257
-1256
-1256
-1256
-1256
-1257
-1255
-1255
-1255
-1256
-1254
-1254
-1255
-1253
-1255
-1253
-1248
-1244
-1239
-1234
-1231
-1232
-1230
-1229
-1230
-1229
-1232
-1235
-1238
-1244
-1250
-1250
-1252
-1255
-1259
-1253
-1256
-1257
-1258
-1257
-1256
-1257
-1258
-1264
-1274
-1272
-1277
-1269
-1254
-1217
-1170
-1124
-1086
-1069
-1060
-1043
-1027
-1010
-1018
-1070
-1139
-1185
-1219
-1240
-1251
-1257
-1264
-1271
-1276
-1278
-1285
-1280
-1281
-1283
-1281
-1284
-1284
-1284
-1284
-1284
-1285
-1279
-1281
-1282
-1285
-1283
-1282
-1285
-1282
-1282
-1281
-1283
-1283
-1283
-1283
-1283
-1283
-1283
-1283
-1284
-1283
-1280
-1282
-1280
-1280
-1281
-1279
-1280
-1276
-1278
-1271
-1269
-1267
-1264
-1261
-1259
-1256
-1252
-1248
-1246
-1238
-1236
-1233
-1230
-1230
-1230
-1230
-1230
-1230
-1234
-1230
-1237
-1238
-1243
-1243
-1246
-1248
-1250
-1251
-1253
-1254
-1255
-1255
-1260
-1258
-1259
-1256
-1257
-1259
-1257
-1258
-1259
-1259
-1260
-1261
-1262
-1256
-1259
-1259
-1256
-1257
-1256
-1257
-1256
-1254
-1256
-1250
-1253
-1251
-1253
-1250
-1250
-1250
-1249
-1248
-1248
-1246
-1246
-1246
-1246
-1244
-1243
-1245
-1244
-1244
-1242
-1243
-1245
-1243
-1243
-1241
-1242
-1244
-1243
-1245
-1241
-1243
-1245
-1243
-1244
-1243
-1242
-1242
-1241
-1243
-1238
-1241
-1244
-1242
-1242
-1241
-1240
-1238
-1240
-1242
-1233
-1230
-1227
-1225
-1218
-1218
-1218
-1216
-1217
-1217
-1217
-1218
-1219
-1228
-1232
-1235
-1234
-1236
-1241
-1240
-1239
-1240
-1240
-1240
-1232
-1245
-1241
-1250
-1261
-1263
-1259
-1246
-1217
-1173
-1128
-1092
-1064
-1057
-1039
-1019
-1000
-988
-1002
-1060
-1124
-1168
-1202
-1222
-1232
-1244
-1250
-1254
-1259
-1262
-1265
-1265
-1266
-1268
-1268
-1268
-1268
-1268
-1269
-1268
-1270
-1264
-1267
-1267
-1266
-1266
-1266
-1266
-1266
-1266
-1270
-1265
-1265
-1267
-1266
-1264
-1265
-1266
-1266
-1265
-1271
-1265
-1267
-1264
-1267
-1267
-1267
-1266
-1262
-1262
-1260
-1258
-1256
-1252
-1252
-1246
-1245
-1238
-1236
-1232
-1228
-1224
-1221
-1218
-1217
-1215
-1218
-1213
-1214
-1217
-1219
-1222
-1224
-1226
-1229
-1231
-1236
-1233
-1236
-1237
-1238
-1239
-1242
-1243
-1243
-1242
-1243
-1243
-1243
-1244
-1248
-1246
-1247
-1248
-1246
-1247
-1246
-1246
-1247
-1247
-1248
-1249
-1248
-1246
-1244
-1247
-1244
-1245
-1246
-1243
-1243
-1243
-1243
-1245
-1242
-1243
-1238
-1240
-1243
-1241
-1240
-1240
-1240
-1238
-1239
-1243
-1235
-1238
-1235
-1240
-1237
-1238
-1238
-1237
-1237
-1236
-1236
-1237
-1234
-1240
-1237
-1236
-1233
-1233
-1234
-1232
-1232
-1232
-1232
-1234
-1232
-1234
-1228
-1230
-1230
-1227
-1228
-1225
-1218
-1214
-1210
-1210
-1203
-1206
-1207
-1205
-1206
-1208
-1211
-1214
-1218
-1222
-1225
-1229
-1230
-1233
-1233
-1235
-1236
-1236
-1237
-1238
-1237
-1242
-1250
-1258
-1262
-1259
-1240
-1206
-1166
-1124
-1093
-1076
-1066
-1051
-1029
-1010
-992
-987
-1030
-1090
-1148
-1189
-1211
-1224
-1234
-1245
-1252
-1258
-1262
-1259
-1264
-1264
-1267
-1266
-1268
-1268
-1269
-1270
-1268
-1268
-1270
-1267
-1269
-1267
-1269
-1267
-1267
-1271
-1270
-1268
-1269
-1269
-1271
-1269
-1272
-1268
-1270
-1272
-1270
-1274
-1275
-1276
-1274
-1274
-1277
-1272
-1274
-1274
-1274
-1271
-1269
-1269
-1264
-1263
-1261
-1256
-1253
-1251
-1245
-1241
-1236
-1234
-1230
-1228
-1227
-1224
-1226
-1224
-1227
-1229
-1231
-1234
-1235
-1239
-1237
-1240
-1243
-1245
-1248
-1249
-1249
-1252
-1252
-1254
-1249
-1251
-1253
-1253
-1253
-1253
-1254
-1256
-1256
-1259
-1253
-1258
-1256
-1259
-1256
-1258
-1258
-1258
-1257
-1258
-1257
-1259
-1257
-1261
-1259
-1259
-1254
-1255
-1256
-1254
-1256
-1255
-1253
-1254
-1253
-1255
-1248
-1252
-1254
-1251
-1249
-1252
-1250
-1251
-1252
-1256
-1250
-1249
-1251
-1252
-1248
-1249
-1251
-1253
-1252
-1251
-1250
-1250
-1248
-1249
-1248
-1247
-1248
-1247
-1246
-1245
-1244
-1245
-1244
-1242
-1242
-1243
-1241
-1235
-1233
-1225
-1224
-1224
-1221
-1221
-1222
-1221
-1220
-1223
-1228
-1230
-1237
-1241
-1244
-1244
-1245
-1246
-1246
-1246
-1250
-1241
-1245
-1246
-1253
-1256
-1264
-1268
-1268
-1259
-1233
-1193
-1146
-1102
-1073
-1057
-1052
-1033
-1014
-1001
-988
-1008
-1070
-1133
-1176
-1206
-1226
-1232
-1240
-1252
-1257
-1262
-1266
-1269
-1271
-1271
-1273
-1269
-1272
-1274
-1272
-1272
-1271
-1272
-1273
-1275
-1274
-1273
-1271
-1272
-1272
-1272
-1274
-1274
-1272
-1271
-1270
-1270
-1271
-1271
-1270
-1270
-1272
-1274
-1272
-1273
-1269
-1269
-1271
-1271
-1269
-1268
-1266
-1264
-1261
-1262
-1255
-1254
-1251
-1248
-1243
-1238
-1235
-1230
-1226
-1227
-1217
-1218
-1217
-1220
-1219
-1219
-1220
-1222
-1226
-1229
-1231
-1233
-1233
-1239
-1237
-1240
-1238
-1238
-1240
-1240
-1242
-1244
-1244
-1246
-1245
-1245
-1243
-1244
-1248
-1246
-1246
-1248
-1248
-1246
-1246
-1250
-1243
-1246
-1246
-1246
-1245
-1246
-1245
-1244
-1243
-1246
-1246
-1245
-1246
-1243
-1244
-1244
-1246
-1244
-1243
-1244
-1246
-1248
-1245
-1243
-1243
-1244
-1246
-1243
-1246
-1242
-1243
-1246
-1243
-1244
-1244
-1243
-1244
-1242
-1243
-1240
-1244
-1246
-1244
-1241
-1241
-1243
-1240
-1240
-1243
-1235
-1238
-1238
-1240
-1237
-1235
-1236
-1234
-1234
-1229
-1224
-1219
-1212
-1213
-1211
-1210
-1209
-1212
-1214
-1213
-1218
-1224
-1228
-1232
-1236
-1240
-1234
-1236
-1238
-1235
-1237
-1239
-1237
-1238
-1240
-1245
-1249
-1259
-1264
-1262
-1250
-1225
-1186
-1142
-1105
-1080
-1069
-1057
-1039
-1016
-999
-986
-1005
-1064
-1131
-1176
-1204
-1222
-1232
-1243
-1251
-1256
-1262
-1264
-1268
-1266
-1268
-1269
-1267
-1268
-1269
-1269
-1272
-1270
-1274
-1268
-1270
-1271
-1270
-1270
-1272
-1272
-1272
-1271
-1276
-1270
-1272
-1271
-1274
-1272
-1274
-1275
-1273
-1273
-1274
-1273
-1275
-1276
-1278
-1274
-1276
-1272
-1273
-1271
-1268
-1266
-1264
-1259
-1256
-1252
-1250
-1239
-1237
-1234
-1229
-1227
-1226
-1222
-1222
-1223
-1226
-1222
-1227
-1229
-1231
-1232
-1235
-1237
-1236
-1240
-1242
-1242
-1243
-1248
-1247
-1249
-1248
-1252
-1250
-1251
-1250
-1251
-1250
-1251
-1251
-1252
-1253
-1256
-1252
-1256
-1252
-1253
-1254
-1254
-1254
-1254
-1256
-1256
-1254
-1256
-1252
-1253
-1254
-1251
-1250
-1250
-1250
-1249
-1249
-1253
-1244
-1247
-1244
-1248
-1246
-1246
-1246
-1248
-1248
-1246
-1245
-1247
-1245
-1249
-1248
-1250
-1246
-1246
-1249
-1246
-1248
-1248
-1249
-1248
-1246
-1250
-1244
-1246
-1248
-1244
-1245
-1248
-1245
-1244
-1243
-1246
-1239
-1242
-1245
-1243
-1240
-1236
-1230
-1224
-1220
-1220
-1219
-1218
-1220
-1218
-1221
-1222
-1226
-1231
-1236
-1237
-1237
-1240
-1241
-1242
-1242
-1241
-1244
-1243
-1243
-1240
-1242
-1248
-1254
-1262
-1267
-1263
-1250
-1226
-1190
-1141
-1103
-1069
-1051
-1047
-1036
-1018
-1000
-988
-991
-1020
-1088
-1142
-1184
-1213
-1232
-1242
-1251
-1258
-1261
-1265
-1266
-1267
-1274
-1273
-1276
-1276
-1274
-1274
-1272
-1273
-1274
-1273
-1276
-1276
-1277
-1272
-1273
-1277
-1274
-1274
-1276
-1277
-1276
-1275
-1275
-1272
-1273
-1276
-1275
-1275
-1276
-1276
-1275
-1275
-1275
-1272
-1270
-1269
-1264
-1265
-1261
-1261
-1256
-1252
-1247
-1243
-1241
-1235
-1232
-1226
-1222
-1221
-1218
-1220
-1215
-1218
-1220
-1220
-1220
-1222
-1224
-1228
-1229
-1234
-1230
-1235
-1236
-1238
-1239
-1241
-1243
-1243
-1244
-1249
-1242
-1248
-1248
-1252
-1248
-1249
-1250
-1252
-1253
-1250
-1249
-1251
-1250
-1252
-1250
-1248
-1247
-1247
-1248
-1247
-1248
-1247
-1245
-1246
-1244
-1245
-1242
-1242
-1244
-1242
-1242
-1243
-1242
-1241
-1241
-1243
-1239
-1240
-1241
-1240
-1239
-1240
-1240
-1240
-1240
-1240
-1242
-1240
-1241
-1240
-1240
-1238
-1242
-1239
-1240
-1238
-1239
-1239
-1236
-1236
-1236
-1237
-1238
-1235
-1237
-1233
-1232
-1232
-1230
-1229
-1228
-1224
-1222
-1218
-1215
-1208
-1211
-1212
-1210
-1210
-1211
-1212
-1214
-1219
-1229
-1226
-1230
-1233
-1236
-1235
-1237
-1236
-1236
-1236
-1236
-1238
-1238
-1237
-1246
-1249
-1256
-1259
-1258
-1248
-1222
-1190
-1153
-1116
-1085
-1065
-1060
-1047
-1030
-1013
-994
-988
-1017
-1076
-1132
-1170
-1203
-1218
-1228
-1238
-1247
-1253
-1256
-1260
-1262
-1262
-1262
-1264
-1265
-1267
-1266
-1264
-1263
-1265
-1263
-1264
-1264
-1264
-1266
-1262
-1263
-1263
-1263
-1264
-1263
-1266
-1262
-1264
-1265
-1262
-1260
-1262
-1261
-1263
-1262
-1264
-1258
-1259
-1261
-1257
-1257
-1255
-1254
-1252
-1248
-1250
-1238
-1237
-1232
-1230
-1226
-1223
-1218
-1214
-1213
-1211
-1211
-1211
-1210
-1215
-1214
-1218
-1219
-1223
-1225
-1226
-1228
-1230
-1232
-1234
-1234
-1237
-1235
-1237
-1240
-1239
-1240
-1240
-1238
-1238
-1240
-1244
-1242
-1243
-1245
-1242
-1242
-1244
-1244
-1245
-1244
-1246
-1247
-1246
-1245
-1241
-1242
-1242
-1244
-1242
-1243
-1242
-1242
-1243
-1243
-1242
-1242
-1240
-1245
-1242
-1243
-1238
-1240
-1240
-1240
-1240
-1240
-1240
-1243
-1240
-1243
-1237
-1240
-1242
-1239
-1239
-1239
-1239
-1237
-1238
-1242
-1232
-1236
-1235
-1238
-1234
-1235
-1235
-1235
-1234
-1233
-1231
-1231
-1229
-1233
-1224
-1222
-1216
-1212
-1211
-1210
-1210
-1210
-1210
-1214
-1212
-1214
-1214
-1221
-1226
-1226
-1229
-1233
-1233
-1234
-1234
-1239
-1235
-1236
-1237
-1233
-1235
-1236
-1240
-1247
-1252
-1257
-1259
-1254
-1243
-1210
-1176
-1138
-1104
-1075
-1064
-1056
-1038
-1022
-1007
-1001
-1030
-1091
-1148
-1187
-1211
-1221
-1232
-1242
-1247
-1254
-1258
-1261
-1264
-1265
-1268
-1264
-1267
-1269
-1268
-1269
-1268
-1269
-1269
-1268
-1271
-1265
-1270
-1269
-1272
-1270
-1270
-1270
-1270
-1271
-1270
-1271
-1272
-1270
-1274
-1272
-1273
-1272
-1272
-1272
-1272
-1272
-1271
-1267
-1268
-1265
-1265
-1259
-1258
-1256
-1248
-1246
-1242
-1239
-1234
-1230
-1229
-1222
-1222
-1222
-1220
-1219
-1220
-1219
-1219
-1220
-1222
-1224
-1226
-1229
-1229
-1234
-1234
-1237
-1236
-1240
-1242
-1243
-1245
-1245
-1247
-1247
-1247
-1253
-1251
-1254
-1252
-1256
-1256
-1256
-1259
-1258
-1257
-1259
-1258
-1264
-1258
-1260
-1263
-1262
-1260
-1260
-1260
-1259
-1259
-1265
-1258
-1261
-1262
-1262
-1261
-1262
-1260
-1260
-1262
-1262
-1259
-1260
-1258
-1261
-1260
-1262
-1260
-1260
-1262
-1260
-1259
-1259
-1257
-1258
-1257
-1259
-1255
-1256
-1258
-1255
-1255
-1255
-1254
-1254
-1252
-1254
-1251
-1251
-1255
-1250
-1246
-1242
-1237
-1232
-1229
-1232
-1232
-1230
-1233
-1230
-1232
-1234
-1240
-1242
-1248
-1250
-1252
-1254
-1253
-1255
-1254
-1252
-1257
-1255
-1257
-1253
-1256
-1260
-1265
-1272
-1275
-1275
-1270
-1252
-1222
-1178
-1138
-1099
-1072
-1062
-1053
-1038
-1026
-1012
-1026
-1066
-1128
-1171
-1209
-1230
-1242
-1249
-1256
-1261
-1266
-1268
-1270
-1271
-1272
-1271
-1272
-1273
-1274
-1274
-1272
-1273
-1275
-1274
-1276
-1275
-1275
-1273
-1274
-1275
-1271
-1272
-1272
-1271
-1273
-1274
-1274
-1274
-1275
-1278
-1274
-1272
-1272
-1272
-1272
-1272
-1273
-1272
-1272
-1274
-1266
-1266
-1264
-1264
-1259
-1255
-1250
-1248
-1244
-1239
-1235
-1233
-1229
-1230
-1228
-1231
-1226
-1230
-1232
-1232
-1234
-1236
-1237
-1243
-1243
-1248
-1245
-1250
-1252
-1252
-1252
-1254
-1256
-1257
-1258
-1261
-1253
-1256
-1258
-1261
-1258
-1258
-1260
-1258
-1259
-1259
-1258
-1258
-1257
-1262
-1262
-1263
-1262
-1260
-1261
-1258
-1259
-1261
-1261
-1260
-1258
-1258
-1254
-1256
-1260
-1254
-1254
-1255
-1254
-1253
-1254
-1256
-1254
-1252
-1252
-1250
-1251
-1250
-1248
-1248
-1248
-1247
-1246
-1246
-1249
-1243
-1245
-1245
-1246
-1244
-1246
-1245
-1246
-1246
-1245
-1244
-1246
-1243
-1245
-1238
-1235
-1227
-1226
-1224
-1222
-1225
-1226
-1222
-1224
-1222
-1227
-1226
-1233
-1239
-1242
-1242
-1244
-1246
-1247
-1247
-1251
-1244
-1247
-1246
-1250
-1248
-1252
-1257
-1265
-1268
-1269
-1269
-1263
-1243
-1212
-1171
-1134
-1098
-1078
-1070
-1058
-1041
-1026
-1013
-1019
-1067
-1128
-1176
-1212
-1231
-1240
-1251
-1260
-1264
-1270
-1273
-1276
-1274
-1276
-1278
-1276
-1278
-1278
-1279
-1279
-1278
-1280
-1280
-1278
-1282
-1278
-1281
-1281
-1284
-1282
-1282
-1283
-1283
-1284
-1283
-1284
-1283
-1283
-1286
-1285
-1288
-1284
-1286
-1287
-1286
-1286
-1284
-1281
-1282
-1280
-1278
-1270
-1268
-1266
-1261
-1258
-1254
-1250
-1246
-1242
-1242
-1232
-1234
-1232
-1231
-1230
-1232
-1234
-1234
-1236
-1238
-1240
-1242
-1244
-1251
-1252
-1253
-1253
-1256
-1256
-1257
-1258
-1260
-1256
-1258
-1258
-1262
-1259
-1259
-1261
-1259
-1260
-1262
-1261
-1262
-1260
-1260
-1259
-1260
-1261
-1255
-1258
-1259
-1258
-1258
-1256
-1256
-1255
-1254
-1256
-1250
-1252
-1252
-1254
-1251
-1251
-1249
-1249
-1250
-1249
-1248
-1248
-1246
-1248
-1246
-1246
-1243
-1244
-1246
-1243
-1242
-1243
-1240
-1242
-1240
-1245
-1241
-1244
-1244
-1240
-1240
-1240
-1240
-1235
-1230
-1229
-1218
-1219
-1218
-1220
-1218
-1218
-1218
-1220
-1220
-1220
-1222
-1229
-1234
-1238
-1236
-1238
-1238
-1239
-1242
-1240
-1240
-1240
-1240
-1240
-1242
-1245
-1248
-1258
-1264
-1260
-1252
-1234
-1200
-1160
-1122
-1086
-1066
-1056
-1046
-1024
-1009
-998
-1011
-1064
-1123
-1170
-1204
-1223
-1237
-1240
-1250
-1256
-1262
-1262
-1265
-1265
-1268
-1269
-1269
-1269
-1267
-1267
-1271
-1268
-1271
-1269
-1269
-1269
-1267
-1267
-1266
-1267
-1270
-1269
-1272
-1265
-1267
-1268
-1266
-1269
-1268
-1269
-1268
-1268
-1270
-1262
-1266
-1267
-1266
-1262
-1262
-1260
-1256
-1253
-1252
-1248
-1241
-1237
-1238
-1232
-1228
-1225
-1222
-1220
-1216
-1215
-1214
-1215
-1216
-1216
-1220
-1221
-1222
-1226
-1225
-1228
-1229
-1231
-1234
-1238
-1241
-1241
-1242
-1244
-1240
-1244
-1245
-1246
-1247
-1246
-1246
-1246
-1246
-1248
-1244
-1247
-1245
-1250
-1248
-1248
-1248
-1248
-1248
-1246
-1246
-1246
-1246
-1248
-1247
-1250
-1245
-1246
-1246
-1245
-1245
-1246
-1242
-1244
-1243
-1245
-1238
-1240
-1240
-1239
-1238
-1238
-1239
-1238
-1238
-1240
-1233
-1236
-1237
-1238
-1236
-1235
-1236
-1237
-1237
-1235
-1234
-1234
-1232
-1234
-1234
-1235
-1230
-1222
-1221
-1214
-1213
-1213
-1214
-1212
-1211
-1212
-1214
-1214
-1217
-1216
-1222
-1229
-1230
-1232
-1237
-1238
-1237
-1237
-1238
-1234
-1236
-1237
-1238
-1240
-1244
-1250
-1258
-1261
-1266
-1248
-1228
-1191
-1154
-1113
-1085
-1070
-1062
-1048
-1029
-1011
-999
-1008
-1064
-1122
-1171
-1197
-1219
-1231
-1238
-1246
-1253
-1258
-1261
-1262
-1266
-1262
-1264
-1266
-1264
-1264
-1265
-1264
-1266
-1265
-1268
-1259
-1265
-1265
-1266
-1265
-1266
-1267
-1265
-1264
-1265
-1265
-1265
-1265
-1268
-1267
-1268
-1268
-1268
-1268
-1270
-1270
-1270
-1271
-1270
-1268
-1267
-1264
-1262
-1259
-1254
-1253
-1251
-1246
-1240
-1235
-1234
-1229
-1224
-1225
-1218
-1216
-1216
-1216
-1215
-1216
-1218
-1219
-1220
-1228
-1222
-1229
-1230
-1234
-1234
-1238
-1238
-1239
-1241
-1241
-1243
-1245
-1244
-1246
-1246
-1248
-1245
-1247
-1248
-1247
-1248
-1247
-1247
-1251
-1250
-1253
-1248
-1249
-1251
-1249
-1250
-1249
-1251
-1250
-1250
-1253
-1248
-1251
-1250
-1250
-1250
-1250
-1250
-1250
-1252
-1252
-1252
-1250
-1251
-1250
-1250
-1249
-1250
-1249
-1247
-1245
-1246
-1246
-1243
-1243
-1245
-1245
-1242
-1241
-1242
-1239
-1240
-1243
-1242
-1242
-1241
-1239
-1239
-1238
-1238
-1227
-1225
-1221
-1220
-1221
-1221
-1222
-1222
-1219
-1221
-1221
-1224
-1227
-1234
-1236
-1240
-1241
-1242
-1244
-1244
-1243
-1242
-1241
-1247
-1247
-1249
-1246
-1252
-1261
-1267
-1269
-1266
-1252
-1228
-1188
-1150
-1107
-1082
-1075
-1063
-1047
-1029
-1013
-1002
-1025
-1093
-1144
-1186
-1214
-1230
-1238
-1245
-1254
-1261
-1264
-1267
-1268
-1270
-1271
-1271
-1270
-1271
-1272
-1270
-1272
-1272
-1270
-1271
-1272
-1272
-1272
-1275
-1275
-1275
-1276
-1271
-1272
-1272
-1271
-1272
-1272
-1274
-1272
-1272
-1276
-1271
-1272
-1274
-1272
-1273
-1272
-1272
-1269
-1266
-1269
-1258
-1260
-1256
-1256
-1250
-1246
-1240
-1236
-1232
-1229
-1225
-1221
-1218
-1219
-1217
-1218
-1216
-1218
-1220
-1220
-1223
-1226
-1227
-1230
-1232
-1237
-1233
-1238
-1240
-1238
-1239
-1243
-1245
-1246
-1243
-1246
-1242
-1247
-1248
-1246
-1245
-1248
-1246
-1246
-1248
-1250
-1249
-1248
-1248
-1249
-1248
-1248
-1251
-1249
-1248
-1248
-1248
-1248
-1249
-1248
-1246
-1248
-1246
-1247
-1249
-1244
-1247
-1248
-1244
-1245
-1246
-1245
-1246
-1247
-1250
-1243
-1247
-1248
-1248
-1246
-1245
-1247
-1248
-1245
-1246
-1238
-1242
-1243
-1246
-1245
-1246
-1242
-1240
-1239
-1240
-1239
-1236
-1230
-1227
-1220
-1220
-1218
-1220
-1220
-1218
-1218
-1219
-1220
-1222
-1226
-1232
-1233
-1237
-1240
-1238
-1242
-1242
-1241
-1242
-1242
-1245
-1241
-1243
-1244
-1248
-1256
-1265
-1269
-1268
-1258
-1234
-1194
-1152
-1114
-1085
-1075
-1065
-1046
-1026
-1010
-1000
-1030
-1096
-1152
-1190
-1217
-1231
-1242
-1248
-1258
-1258
-1262
-1267
-1269
-1269
-1269
-1272
-1273
-1272
-1274
-1268
-1271
-1272
-1272
-1272
-1272
-1270
-1270
-1271
-1277
-1272
-1274
-1272
-1272
-1274
-1275
-1274
-1273
-1275
-1276
-1275
-1276
-1274
-1276
-1273
-1275
-1270
-1272
-1272
-1268
-1267
-1265
-1263
-1261
-1257
-1257
-1248
-1245
-1242
-1236
-1233
-1229
-1226
-1221
-1219
-1221
-1214
-1218
-1218
-1218
-1220
-1223
-1225
-1226
-1228
-1230
-1231
-1233
-1237
-1240
-1238
-1238
-1240
-1240
-1243
-1242
-1242
-1243
-1243
-1245
-1244
-1246
-1248
-1246
-1247
-1244
-1246
-1248
-1248
-1248
-1250
-1249
-1250
-1250
-1254
-1248
-1250
-1251
-1252
-1252
-1249
-1250
-1251
-1251
-1254
-1249
-1250
-1250
-1254
-1250
-1250
-1251
-1250
-1252
-1250
-1248
-1248
-1246
-1250
-1248
-1250
-1248
-1251
-1251
-1248
-1249
-1250
-1248
-1251
-1249
-1249
-1242
-1244
-1247
-1246
-1245
-1243
-1241
-1239
-1240
-1244
-1237
-1237
-1232
-1229
-1225
-1223
-1222
-1222
-1219
-1220
-1219
-1219
-1220
-1223
-1227
-1232
-1237
-1240
-1242
-1240
-1242
-1246
-1245
-1245
-1244
-1245
-1244
-1244
-1248
-1247
-1258
-1268
-1271
-1272
-1261
-1236
-1199
-1157
-1120
-1082
-1070
-1067
-1052
-1032
-1015
-1003
-1022
-1084
-1150
-1184
-1216
-1231
-1244
-1252
-1261
-1269
-1274
-1276
-1278
-1278
-1278
-1277
-1282
-1279
-1280
-1279
-1280
-1281
-1281
-1280
-1280
-1281
-1281
-1280
-1284
-1282
-1282
-1283
-1280
-1282
-1281
-1284
-1285
-1286
-1290
-1284
-1286
-1286
-1284
-1284
-1287
-1288
-1286
-1284
-1283
-1280
-1277
-1277
-1272
-1269
-1268
-1265
-1257
-1253
-1250
-1246
-1244
-1240
-1235
-1233
-1230
-1232
-1230
-1233
-1231
-1234
-1239
-1240
-1243
-1244
-1246
-1248
-1248
-1252
-1249
-1252
-1254
-1254
-1254
-1255
-1258
-1260
-1258
-1262
-1255
-1259
-1259
-1263
-1260
-1261
-1259
-1258
-1258
-1258
-1258
-1260
-1259
-1260
-1258
-1261
-1257
-1257
-1260
-1259
-1259
-1260
-1256
-1254
-1253
-1254
-1250
-1252
-1255
-1252
-1251
-1254
-1254
-1252
-1251
-1254
-1248
-1251
-1252
-1252
-1251
-1251
-1252
-1252
-1253
-1253
-1252
-1252
-1254
-1250
-1249
-1248
-1252
-1250
-1248
-1248
-1248
-1248
-1245
-1245
-1246
-1245
-1245
-1244
-1242
-1234
-1234
-1231
-1228
-1227
-1226
-1226
-1228
-1227
-1230
-1225
-1228
-1233
-1236
-1240
-1243
-1244
-1244
-1244
-1251
-1243
-1244
-1245
-1249
-1246
-1248
-1252
-1257
-1265
-1267
-1266
-1253
-1222
-1184
-1142
-1106
-1075
-1062
-1054
-1036
-1018
-1000
-994
-1030
-1096
-1153
-1188
-1220
-1237
-1243
-1253
-1260
-1267
-1269
-1272
-1274
-1270
-1273
-1274
-1274
-1272
-1272
-1273
-1270
-1271
-1272
-1270
-1269
-1270
-1271
-1272
-1272
-1274
-1269
-1269
-1268
-1271
-1272
-1270
-1271
-1272
-1272
-1271
-1270
-1273
-1269
-1272
-1272
-1270
-1269
-1270
-1268
-1268
-1262
-1262
-1253
-1253
-1249
-1246
-1242
-1238
-1234
-1229
-1226
-1227
-1214
-1217
-1214
-1215
-1213
-1214
-1215
-1216
-1218
-1222
-1222
-1227
-1229
-1232
-1230
-1235
-1234
-1237
-1240
-1240
-1241
-1244
-1246
-1247
-1247
-1250
-1245
-1247
-1249
-1248
-1248
-1250
-1250
-1249
-1250
-1254
-1246
-1251
-1253
-1250
-1251
-1254
-1253
-1252
-1251
-1250
-1251
-1250
-1253
-1248
-1248
-1248
-1249
-1249
-1250
-1247
-1245
-1243
-1243
-1246
-1250
-1252
-1252
-1250
-1250
-1246
-1248
-1246
-1244
-1244
-1250
-1255
-1253
-1250
-1255
-1245
-1248
-1249
-1248
-1246
-1242
-1243
-1244
-1247
-1252
-1246
-1251
-1248
-1248
-1243
-1244
-1246
-1244
-1243
-1240
-1236
-1228
-1222
-1227
-1227
-1229
-1226
-1230
-1234
-1232
-1231
-1233
-1238
-1242
-1241
-1246
-1246
-1253
-1256
-1256
-1256
-1255
-1257
-1257
-1256
-1259
-1261
-1272
-1280
-1280
-1275
-1257
-1226
-1179
-1138
-1105
-1086
-1075
-1055
-1029
-1007
-998
-1038
-1107
-1163
-1200
-1227
-1241
-1251
-1260
-1267
-1271
-1276
-1278
-1280
-1278
-1278
-1280
-1280
-1281
-1281
-1281
-1281
-1280
-1282
-1276
-1280
-1283
-1282
-1282
-1282
-1283
-1282
-1282
-1285
-1279
-1281
-1280
-1284
-1282
-1283
-1284
-1282
-1284
-1282
-1282
-1283
-1279
-1281
-1278
-1278
-1276
-1276
-1273
-1268
-1265
-1262
-1258
-1256
-1250
-1246
-1238
-1234
-1232
-1224
-1222
-1219
-1216
-1214
-1214
-1217
-1212
-1216
-1220
-1220
-1222
-1225
-1228
-1229
-1230
-1232
-1232
-1236
-1240
-1236
-1237
-1237
-1237
-1237
-1240
-1241
-1241
-1242
-1241
-1240
-1242
-1243
-1243
-1241
-1243
-1239
-1241
-1243
-1240
-1240
-1240
-1240
-1240
-1238
-1242
-1236
-1238
-1238
-1238
-1238
-1237
-1237
-1235
-1232
-1237
-1228
-1232
-1233
-1235
-1232
-1232
-1234
-1233
-1231
-1229
-1230
-1230
-1229
-1232
-1232
-1231
-1229
-1228
-1229
-1230
-1230
-1229
-1228
-1227
-1225
-1227
-1224
-1225
-1226
-1221
-1221
-1221
-1221
-1220
-1220
-1221
-1212
-1210
-1209
-1205
-1200
-1200
-1198
-1199
-1200
-1200
-1199
-1198
-1201
-1204
-1210
-1215
-1217
-1216
-1220
-1225
-1227
-1225
-1226
-1224
-1229
-1230
-1233
-1235
-1243
-1248
-1254
-1254
-1243
-1219
-1174
-1132
-1098
-1072
-1067
-1047
-1029
-1010
-992
-1017
-1083
-1144
-1184
-1212
-1230
-1232
-1243
-1251
-1260
-1262
-1265
-1268
-1269
-1271
-1270
-1271
-1272
-1270
-1272
-1272
-1274
-1269
-1269
-1270
-1268
-1271
-1272
-1271
-1270
-1268
-1268
-1266
-1269
-1271
-1267
-1268
-1268
-1268
-1267
-1267
-1269
-1264
-1267
-1267
-1267
-1265
-1264
-1263
-1261
-1260
-1259
-1256
-1254
-1253
-1243
-1241
-1238
-1236
-1228
-1225
-1220
-1218
-1214
-1212
-1210
-1208
-1206
-1209
-1208
-1211
-1210
-1215
-1218
-1220
-1222
-1225
-1228
-1230
-1230
-1235
-1232
-1238
-1239
-1238
-1239
-1239
-1240
-1241
-1242
-1246
-1238
-1242
-1242
-1245
-1244
-1244
-1244
-1243
-1243
-1243
-1244
-1244
-1243
-1244
-1243
-1244
-1245
-1244
-1244
-1242
-1242
-1242
-1240
-1240
-1240
-1240
-1236
-1237
-1238
-1235
-1236
-1236
-1235
-1236
-1236
-1238
-1232
-1236
-1236
-1235
-1234
-1234
-1235
-1232
-1233
-1234
-1234
-1234
-1235
-1230
-1231
-1230
-1233
-1231
-1231
-1230
-1230
-1230
-1229
-1226
-1226
-1226
-1228
-1227
-1228
-1218
-1216
-1214
-1209
-1208
-1208
-1208
-1208
-1208
-1212
-1207
-1214
-1221
-1226
-1226
-1228
-1230
-1232
-1232
-1236
-1230
-1232
-1231
-1234
-1233
-1235
-1242
-1248
-1256
-1258
-1249
-1226
-1187
-1145
-1103
-1074
-1061
-1051
-1029
-1008
-990
-992
-1037
-1103
-1154
-1192
-1209
-1224
-1235
-1240
-1248
-1255
-1258
-1258
-1260
-1264
-1262
-1262
-1264
-1262
-1264
-1264
-1263
-1263
-1263
-1266
-1265
-1265
-1267
-1264
-1262
-1261
-1264
-1262
-1262
-1262
-1264
-1264
-1264
-1263
-1264
-1261
-1264
-1262
-1266
-1262
-1265
-1265
-1264
-1266
-1264
-1261
-1262
-1261
-1262
-1253
-1253
-1252
-1249
-1246
-1242
-1239
-1235
-1231
-1230
-1220
-1220
-1215
-1216
-1214
-1214
-1215
-1216
-1218
-1218
-1220
-1223
-1224
-1229
-1229
-1232
-1233
-1235
-1236
-1236
-1238
-1239
-1239
-1242
-1244
-1244
-1242
-1244
-1247
-1243
-1245
-1246
-1247
-1248
-1248
-1247
-1243
-1245
-1247
-1243
-1244
-1246
-1248
-1247
-1246
-1246
-1245
-1244
-1246
-1242
-1243
-1240
-1245
-1242
-1245
-1243
-1242
-1242
-1243
-1242
-1242
-1240
-1243
-1241
-1243
-1238
-1239
-1241
-1239
-1241
-1240
-1239
-1241
-1238
-1242
-1235
-1237
-1238
-1239
-1238
-1238
-1239
-1238
-1240
-1242
-1232
-1234
-1235
-1237
-1234
-1235
-1234
-1232
-1233
-1230
-1227
-1222
-1218
-1215
-1210
-1210
-1209
-1210
-1210
-1212
-1214
-1216
-1220
-1227
-1230
-1232
-1232
-1233
-1237
-1234
-1235
-1238
-1237
-1236
-1235
-1239
-1240
-1252
-1261
-1259
-1256
-1238
-1206
-1163
-1124
-1092
-1072
-1068
-1055
-1029
-1013
-997
-997
-1042
-1107
-1158
-1192
-1216
-1229
-1238
-1246
-1252
-1258
-1262
-1265
-1264
-1268
-1272
-1272
-1272
-1269
-1270
-1272
-1271
-1274
-1268
-1272
-1272
-1272
-1272
-1272
-1274
-1272
-1272
-1274
-1266
-1270
-1270
-1274
-1274
-1272
-1274
-1272
-1273
-1274
-1274
-1276
-1276
-1277
-1275
-1278
-1275
-1272
-1274
-1272
-1267
-1268
-1264
-1262
-1258
-1255
-1250
-1245
-1244
-1236
-1235
-1232
-1229
-1225
-1224
-1226
-1223
-1224
-1228
-1228
-1229
-1232
-1232
-1235
-1237
-1238
-1241
-1242
-1246
-1243
-1244
-1244
-1248
-1248
-1250
-1248
-1250
-1252
-1251
-1251
-1250
-1248
-1252
-1252
-1254
-1250
-1251
-1252
-1252
-1252
-1253
-1253
-1255
-1254
-1256
-1253
-1254
-1253
-1252
-1253
-1252
-1252
-1252
-1253
-1256
-1247
-1251
-1250
-1252
-1248
-1250
-1250
-1248
-1248
-1250
-1251
-1252
-1251
-1252
-1249
-1251
-1251
-1251
-1252
-1249
-1249
-1250
-1250
-1250
-1250
-1249
-1246
-1247
-1248
-1242
-1243
-1243
-1243
-1244
-1244
-1244
-1241
-1241
-1245
-1242
-1240
-1236
-1230
-1226
-1223
-1222
-1222
-1221
-1222
-1221
-1223
-1224
-1227
-1230
-1238
-1240
-1240
-1244
-1246
-1246
-1247
-1244
-1248
-1248
-1248
-1246
-1248
-1252
-1258
-1266
-1270
-1268
-1256
-1229
-1192
-1143
-1107
-1080
-1069
-1063
-1045
-1027
-1010
-999
-1021
-1075
-1142
-1184
-1214
-1231
-1243
-1251
-1258
-1264
-1270
-1274
-1276
-1277
-1279
-1277
-1280
-1280
-1283
-1284
-1283
-1282
-1281
-1281
-1284
-1283
-1282
-1279
-1280
-1282
-1281
-1283
-1282
-1283
-1281
-1280
-1282
-1281
-1282
-1281
-1279
-1282
-1283
-1283
-1282
-1282
-1282
-1280
-1281
-1283
-1278
-1277
-1274
-1276
-1270
-1266
-1262
-1258
-1254
-1249
-1245
-1242
-1237
-1237
-1230
-1229
-1224
-1226
-1226
-1227
-1228
-1230
-1230
-1235
-1236
-1242
-1239
-1242
-1246
-1245
-1247
-1246
-1248
-1249
-1251
-1256
-1249
-1253
-1253
-1256
-1255
-1256
-1257
-1256
-1257
-1256
-1256
-1257
-1256
-1258
-1259
-1258
-1258
-1257
-1258
-1257
-1255
-1255
-1255
-1256
-1255
-1254
-1251
-1253
-1253
-1250
-1251
-1252
-1252
-1251
-1252
-1253
-1251
-1250
-1252
-1249
-1249
-1252
-1251
-1250
-1249
-1249
-1248
-1249
-1251
-1247
-1249
-1246
-1251
-1249
-1250
-1249
-1248
-1248
-1248
-1248
-1250
-1246
-1248
-1246
-1248
-1245
-1246
-1245
-1243
-1242
-1243
-1240
-1238
-1232
-1229
-1219
-1220
-1222
-1222
-1222
-1222
-1222
-1223
-1226
-1236
-1235
-1242
-1241
-1246
-1245
-1246
-1248
-1246
-1247
-1248
-1248
-1246
-1247
-1253
-1258
-1268
-1274
-1273
-1261
-1233
-1195
-1155
-1118
-1090
-1078
-1074
-1052
-1034
-1017
-996
-990
-1024
-1090
-1149
-1188
-1216
-1228
-1242
-1251
-1255
-1261
-1267
-1269
-1272
-1275
-1277
-1275
-1275
-1280
-1277
-1279
-1279
-1279
-1276
-1277
-1277
-1278
-1280
-1279
-1278
-1277
-1278
-1278
-1276
-1277
-1276
-1278
-1280
-1278
-1279
-1279
-1278
-1280
-1280
-1282
-1276
-1280
-1282
-1280
-1279
-1278
-1277
-1272
-1270
-1272
-1263
-1261
-1258
-1254
-1247
-1240
-1236
-1232
-1229
-1224
-1222
-1220
-1219
-1222
-1220
-1222
-1224
-1224
-1229
-1232
-1233
-1234
-1235
-1236
-1238
-1243
-1244
-1243
-1247
-1243
-1246
-1248
-1248
-1249
-1248
-1249
-1246
-1250
-1252
-1248
-1250
-1251
-1251
-1253
-1253
-1253
-1252
-1252
-1253
-1250
-1252
-1250
-1253
-1252
-1250
-1251
-1252
-1252
-1249
-1248
-1250
-1248
-1250
-1246
-1247
-1243
-1245
-1246
-1246
-1245
-1244
-1243
-1244
-1242
-1245
-1240
-1244
-1243
-1242
-1242
-1244
-1242
-1240
-1240
-1242
-1235
-1240
-1238
-1243
-1240
-1240
-1239
-1238
-1238
-1238
-1238
-1238
-1238
-1237
-1235
-1236
-1233
-1229
-1225
-1219
-1214
-1214
-1210
-1210
-1210
-1210
-1209
-1210
-1214
-1214
-1220
-1228
-1228
-1229
-1232
-1234
-1235
-1234
-1236
-1235
-1235
-1235
-1236
-1237
-1242
-1251
-1259
-1265
-1267
-1251
-1232
-1196
-1158
-1120
-1090
-1074
-1068
-1054
-1032
-1012
-994
-990
-1038
-1103
-1160
-1190
-1213
-1227
-1235
-1242
-1250
-1254
-1260
-1262
-1266
-1262
-1267
-1270
-1269
-1269
-1270
-1270
-1269
-1269
-1275
-1268
-1272
-1272
-1273
-1271
-1272
-1272
-1272
-1274
-1273
-1273
-1273
-1272
-1276
-1276
-1275
-1274
-1274
-1275
-1275
-1275
-1277
-1277
-1278
-1276
-1276
-1275
-1272
-1270
-1264
-1262
-1258
-1252
-1247
-1243
-1241
-1235
-1232
-1231
-1225
-1223
-1224
-1222
-1220
-1220
-1222
-1223
-1225
-1230
-1226
-1227
-1230
-1235
-1234
-1235
-1238
-1239
-1240
-1240
-1242
-1243
-1241
-1246
-1243
-1246
-1243
-1246
-1246
-1245
-1245
-1248
-1248
-1250
-1249
-1254
-1248
-1248
-1248
-1247
-1246
-1247
-1248
-1248
-1250
-1252
-1244
-1248
-1247
-1248
-1246
-1246
-1247
-1245
-1244
-1244
-1243
-1243
-1243
-1244
-1243
-1244
-1246
-1244
-1243
-1242
-1242
-1242
-1242
-1243
-1243
-1243
-1240
-1240
-1242
-1237
-1240
-1240
-1238
-1239
-1242
-1241
-1240
-1240
-1240
-1238
-1240
-1241
-1239
-1234
-1230
-1226
-1221
-1218
-1221
-1216
-1217
-1216
-1220
-1219
-1221
-1224
-1230
-1235
-1237
-1238
-1241
-1240
-1244
-1242
-1242
-1240
-1242
-1244
-1242
-1243
-1249
-1255
-1263
-1268
-1270
-1253
-1230
-1195
-1153
-1114
-1082
-1062
-1058
-1044
-1027
-1002
-992
-997
-1052
-1120
-1170
-1201
-1221
-1234
-1242
-1249
-1255
-1261
-1267
-1267
-1268
-1270
-1270
-1272
-1271
-1272
-1274
-1271
-1272
-1272
-1274
-1272
-1273
-1274
-1270
-1271
-1272
-1272
-1272
-1271
-1274
-1272
-1270
-1274
-1268
-1271
-1272
-1270
-1270
-1270
-1272
-1268
-1270
-1274
-1267
-1267
-1263
-1264
-1259
-1256
-1252
-1248
-1246
-1242
-1238
-1234
-1229
-1229
-1224
-1224
-1219
-1219
-1221
-1220
-1222
-1222
-1222
-1227
-1228
-1232
-1229
-1232
-1236
-1236
-1237
-1239
-1240
-1240
-1241
-1245
-1241
-1244
-1244
-1245
-1243
-1244
-1246
-1245
-1244
-1244
-1244
-1244
-1243
-1247
-1245
-1245
-1245
-1244
-1246
-1246
-1246
-1245
-1244
-1244
-1244
-1244
-1244
-1244
-1246
-1242
-1242
-1244
-1242
-1242
-1241
-1243
-1240
-1241
-1243
-1240
-1240
-1240
-1241
-1240
-1242
-1241
-1242
-1240
-1246
-1237
-1240
-1238
-1241
-1237
-1239
-1238
-1237
-1238
-1237
-1236
-1238
-1237
-1240
-1236
-1236
-1232
-1233
-1234
-1230
-1226
-1222
-1217
-1215
-1213
-1217
-1212
-1214
-1216
-1216
-1218
-1220
-1226
-1230
-1234
-1240
-1233
-1240
-1241
-1242
-1241
-1242
-1242
-1241
-1241
-1242
-1242
-1245
-1251
-1260
-1266
-1268
-1265
-1246
-1217
-1175
-1133
-1098
-1072
-1065
-1057
-1038
-1020
-1005
-996
-1017
-1084
-1148
-1189
-1216
-1234
-1246
-1251
-1258
-1269
-1270
-1276
-1278
-1280
-1280
-1282
-1283
-1282
-1283
-1288
-1278
-1282
-1282
-1286
-1286
-1287
-1284
-1284
-1288
-1286
-1284
-1284
-1284
-1288
-1286
-1288
-1285
-1285
-1289
-1285
-1287
-1288
-1288
-1291
-1291
-1292
-1285
-1286
-1284
-1278
-1275
-1274
-1272
-1268
-1262
-1261
-1253
-1251
-1248
-1242
-1237
-1235
-1232
-1230
-1230
-1232
-1232
-1232
-1233
-1234
-1236
-1240
-1243
-1245
-1248
-1248
-1249
-1252
-1252
-1256
-1256
-1258
-1257
-1258
-1262
-1257
-1258
-1261
-1261
-1259
-1259
-1261
-1258
-1260
-1261
-1258
-1260
-1262
-1263
-1262
-1261
-1265
-1264
-1262
-1264
-1253
-1255
-1256
-1258
-1256
-1256
-1256
-1254
-1254
-1253
-1253
-1253
-1252
-1257
-1255
-1256
-1253
-1254
-1256
-1255
-1253
-1254
-1253
-1257
-1255
-1258
-1255
-1258
-1259
-1256
-1254
-1252
-1251
-1250
-1252
-1254
-1246
-1250
-1250
-1252
-1248
-1247
-1246
-1246
-1246
-1245
-1240
-1236
-1233
-1230
-1227
-1227
-1227
-1225
-1227
-1228
-1230
-1232
-1236
-1240
-1241
-1243
-1243
-1246
-1247
-1243
-1245
-1245
-1246
-1247
-1248
-1248
-1248
-1254
-1264
-1266
-1271
-1269
-1257
-1227
-1185
-1143
-1102
-1070
-1059
-1044
-1033
-1014
-1002
-995
-1026
-1087
-1143
-1184
-1216
-1232
-1244
-1250
-1263
-1265
-1270
-1270
-1273
-1275
-1274
-1275
-1276
-1275
-1279
-1278
-1279
-1272
-1275
-1276
-1276
-1276
-1276
-1274
-1274
-1274
-1278
-1270
-1273
-1271
-1272
-1270
-1272
-1271
-1271
-1270
-1268
-1268
-1268
-1268
-1266
-1264
-1261
-1262
-1259
-1257
-1253
-1250
-1248
-1242
-1240
-1236
-1232
-1229
-1224
-1221
-1216
-1216
-1216
-1213
-1212
-1212
-1214
-1216
-1219
-1224
-1222
-1228
-1232
-1235
-1238
-1240
-1242
-1243
-1247
-1254
-1249
-1252
-1253
-1257
-1256
-1258
-1258
-1258
-1260
-1257
-1258
-1259
-1259
-1262
-1259
-1260
-1257
-1260
-1262
-1261
-1260
-1260
-1259
-1261
-1259
-1263
-1258
-1259
-1260
-1256
-1256
-1257
-1257
-1255
-1256
-1258
-1252
-1254
-1256
-1255
-1255
-1254
-1254
-1254
-1253
-1254
-1254
-1253
-1252
-1254
-1253
-1252
-1252
-1248
-1252
-1252
-1249
-1251
-1251
-1252
-1252
-1250
-1250
-1249
-1249
-1244
-1248
-1248
-1246
-1243
-1240
-1241
-1240
-1239
-1237
-1231
-1227
-1225
-1223
-1221
-1220
-1220
-1222
-1220
-1226
-1224
-1230
-1233
-1240
-1240
-1244
-1246
-1248
-1247
-1248
-1248
-1248
-1246
-1252
-1249
-1252
-1256
-1265
-1272
-1272
-1266
-1246
-1212
-1169
-1128
-1096
-1067
-1057
-1041
-1017
-1000
-987
-982
-1020
-1083
-1147
-1183
-1217
-1236
-1245
-1253
-1262
-1270
-1272
-1275
-1276
-1277
-1277
-1279
-1281
-1281
-1280
-1280
-1280
-1281
-1277
-1278
-1280
-1278
-1279
-1277
-1276
-1275
-1275
-1278
-1273
-1277
-1276
-1274
-1275
-1275
-1274
-1275
-1273
-1275
-1270
-1270
-1268
-1266
-1264
-1262
-1261
-1259
-1254
-1253
-1242
-1242
-1237
-1236
-1229
-1225
-1221
-1217
-1214
-1211
-1208
-1207
-1206
-1212
-1211
-1215
-1214
-1219
-1225
-1226
-1230
-1233
-1236
-1241
-1243
-1245
-1243
-1248
-1248
-1248
-1250
-1251
-1252
-1254
-1254
-1256
-1252
-1254
-1256
-1256
-1256
-1259
-1260
-1260
-1261
-1262
-1260
-1261
-1260
-1262
-1260
-1260
-1259
-1259
-1259
-1258
-1257
-1258
-1257
-1255
-1256
-1256
-1256
-1255
-1258
-1250
-1251
-1253
-1253
-1254
-1254
-1254
-1251
-1250
-1254
-1248
-1250
-1253
-1252
-1252
-1252
-1253
-1253
-1252
-1256
-1250
-1250
-1250
-1253
-1252
-1252
-1252
-1249
-1248
-1248
-1248
-1248
-1244
-1248
-1246
-1248
-1242
-1240
-1242
-1240
-1240
-1238
-1236
-1233
-1227
-1227
-1222
-1223
-1224
-1222
-1222
-1222
-1222
-1226
-1232
-1240
-1236
-1242
-1244
-1248
-1246
-1248
-1248
-1246
-1246
-1248
-1248
-1248
-1252
-1261
-1266
-1270
-1268
-1253
-1226
-1183
-1141
-1103
-1073
-1056
-1045
-1021
-1003
-984
-979
-1008
-1077
-1140
-1183
-1214
-1230
-1240
-1248
-1256
-1264
-1266
-1268
-1270
-1271
-1269
-1271
-1272
-1272
-1270
-1276
-1270
-1272
-1269
-1273
-1272
-1270
-1271
-1270
-1272
-1273
-1272
-1272
-1272
-1275
-1269
-1270
-1268
-1269
-1270
-1266
-1266
-1266
-1266
-1268
-1264
-1265
-1259
-1259
-1258
-1254
-1251
-1248
-1244
-1241
-1237
-1238
-1227
-1227
-1222
-1218
-1213
-1210
-1208
-1206
-1205
-1205
-1206
-1208
-1211
-1213
-1215
-1218
-1222
-1226
-1230
-1232
-1234
-1239
-1240
-1242
-1243
-1244
-1246
-1246
-1250
-1247
-1250
-1250
-1248
-1251
-1252
-1253
-1254
-1254
-1257
-1251
-1252
-1253
-1253
-1252
-1251
-1252
-1253
-1254
-1258
-1248
-1251
-1249
-1252
-1248
-1248
-1248
-1246
-1246
-1245
-1246
-1246
-1245
-1248
-1244
-1246
-1242
-1242
-1244
-1243
-1242
-1242
-1242
-1244
-1244
-1246
-1242
-1244
-1246
-1243
-1242
-1243
-1243
-1241
-1242
-1246
-1240
-1243
-1244
-1242
-1241
-1242
-1241
-1242
-1242
-1240
-1240
-1242
-1243
-1240
-1238
-1236
-1237
-1235
-1236
-1232
-1228
-1226
-1220
-1216
-1216
-1218
-1216
-1216
-1219
-1215
-1218
-1222
-1227
-1230
-1234
-1237
-1239
-1240
-1244
-1237
-1240
-1241
-1240
-1238
-1239
-1241
-1249
-1257
-1268
-1260
-1255
-1230
-1194
-1143
-1104
-1074
-1059
-1044
-1020
-1000
-981
-986
-1050
-1114
-1163
-1197
-1219
-1232
-1240
-1248
-1254
-1258
-1264
-1264
-1269
-1265
-1265
-1269
-1266
-1267
-1267
-1266
-1268
-1268
-1268
-1266
-1268
-1267
-1265
-1268
-1266
-1265
-1265
-1266
-1268
-1268
-1266
-1269
-1269
-1268
-1265
-1268
-1267
-1268
-1267
-1267
-1267
-1265
-1264
-1264
-1263
-1262
-1260
-1260
-1254
-1252
-1251
-1245
-1243
-1238
-1232
-1231
-1226
-1225
-1214
-1215
-1212
-1212
-1210
-1210
-1211
-1212
-1214
-1220
-1216
-1222
-1227
-1233
-1233
-1234
-1235
-1238
-1240
-1239
-1240
-1244
-1243
-1246
-1243
-1246
-1244
-1245
-1248
-1248
-1249
-1249
-1248
-1250
-1248
-1251
-1245
-1246
-1249
-1246
-1246
-1248
-1248
-1246
-1245
-1248
-1242
-1245
-1248
-1246
-1246
-1244
-1244
-1243
-1243
-1243
-1241
-1242
-1242
-1240
-1241
-1243
-1242
-1240
-1242
-1242
-1242
-1244
-1243
-1242
-1240
-1240
-1240
-1239
-1240
-1236
-1240
-1242
-1240
-1240
-1239
-1240
-1240
-1239
-1242
-1235
-1239
-1241
-1237
-1237
-1237
-1236
-1235
-1237
-1243
-1233
-1236
-1235
-1237
-1235
-1234
-1228
-1224
-1220
-1216
-1212
-1211
-1209
-1212
-1211
-1212
-1211
-1216
-1224
-1225
-1230
-1234
-1236
-1236
-1236
-1237
-1234
-1239
-1240
-1237
-1237
-1237
-1244
-1255
-1262
-1264
-1253
-1234
-1201
-1157
-1118
-1086
-1068
-1061
-1050
-1030
-1012
-992
-990
-1034
-1102
-1156
-1193
-1212
-1226
-1235
-1244
-1252
-1256
-1258
-1262
-1262
-1266
-1266
-1270
-1265
-1266
-1265
-1265
-1266
-1267
-1268
-1268
-1267
-1269
-1264
-1266
-1265
-1264
-1265
-1267
-1268
-1271
-1269
-1273
-1265
-1269
-1268
-1271
-1270
-1269
-1270
-1271
-1271
-1270
-1269
-1269
-1265
-1269
-1266
-1266
-1262
-1261
-1259
-1252
-1248
-1246
-1242
-1242
-1236
-1232
-1222
-1222
-1221
-1217
-1216
-1218
-1217
-1220
-1220
-1224
-1224
-1228
-1232
-1231
-1234
-1237
-1237
-1237
-1239
-1242
-1244
-1244
-1244
-1244
-1246
-1246
-1249
-1248
-1250
-1247
-1247
-1248
-1248
-1249
-1251
-1251
-1251
-1250
-1253
-1248
-1251
-1252
-1248
-1248
-1248
-1249
-1250
-1248
-1250
-1245
-1245
-1248
-1251
-1250
-1248
-1248
-1246
-1246
-1252
-1244
-1246
-1243
-1245
-1242
-1244
-1246
-1245
-1246
-1243
-1244
-1246
-1244
-1247
-1244
-1246
-1245
-1246
-1247
-1244
-1245
-1246
-1244
-1244
-1244
-1246
-1244
-1246
-1248
-1244
-1246
-1245
-1245
-1246
-1246
-1248
-1242
-1242
-1246
-1243
-1240
-1238
-1235
-1232
-1228
-1224
-1221
-1221
-1222
-1222
-1222
-1224
-1230
-1234
-1238
-1239
-1244
-1246
-1244
-1244
-1244
-1243
-1246
-1243
-1246
-1243
-1247
-1256
-1263
-1267
-1265
-1257
-1237
-1199
-1162
-1115
-1080
-1060
-1052
-1042
-1026
-1009
-995
-1000
-1049
-1105
-1162
-1197
-1224
-1235
-1245
-1254
-1259
-1264
-1269
-1272
-1274
-1276
-1281
-1278
-1277
-1275
-1276
-1278
-1274
-1274
-1274
-1274
-1276
-1274
-1277
-1274
-1276
-1276
-1273
-1272
-1272
-1272
-1274
-1274
-1277
-1271
-1269
-1270
-1268
-1268
-1266
-1268
-1268
-1268
-1267
-1265
-1261
-1265
-1257
-1256
-1254
-1253
-1248
-1245
-1241
-1237
-1232
-1227
-1222
-1218
-1214
-1216
-1212
-1212
-1207
-1208
-1212
-1211
-1213
-1216
-1218
-1221
-1222
-1228
-1224
-1227
-1229
-1230
-1231
-1232
-1234
-1233
-1234
-1240
-1233
-1238
-1239
-1244
-1240
-1241
-1243
-1242
-1241
-1241
-1242
-1243
-1240
-1242
-1240
-1243
-1242
-1241
-1243
-1246
-1244
-1242
-1240
-1239
-1237
-1238
-1233
-1236
-1238
-1236
-1238
-1238
-1236
-1237
-1236
-1236
-1230
-1232
-1234
-1229
-1231
-1235
-1237
-1238
-1240
-1240
-1237
-1237
-1239
-1236
-1237
-1236
-1234
-1231
-1233
-1232
-1232
-1233
-1234
-1234
-1230
-1229
-1231
-1233
-1238
-1233
-1233
-1234
-1230
-1230
-1233
-1230
-1229
-1225
-1232
-1228
-1226
-1222
-1216
-1212
-1208
-1206
-1204
-1204
-1208
-1202
-1206
-1204
-1206
-1210
-1217
-1222
-1226
-1228
-1229
-1226
-1226
-1227
-1235
-1232
-1232
-1232
-1234
-1234
-1231
-1239
-1244
-1253
-1260
-1259
-1244
-1215
-1174
-1137
-1099
-1072
-1057
-1050
-1030
-1010
-996
-979
-977
-1016
-1082
-1143
-1180
-1201
-1212
-1223
-1233
-1244
-1250
-1255
-1256
-1259
-1258
-1264
-1262
-1266
-1265
-1264
-1265
-1265
-1265
-1266
-1267
-1268
-1264
-1267
-1264
-1268
-1268
-1264
-1267
-1267
-1267
-1268
-1266
-1270
-1268
-1273
-1274
-1271
-1269
-1269
-1270
-1273
-1272
-1276
-1267
-1269
-1264
-1267
-1265
-1262
-1254
-1250
-1248
-1244
-1242
-1238
-1231
-1230
-1222
-1218
-1214
-1215
-1214
-1214
-1212
-1213
-1214
-1216
-1216
-1221
-1219
-1222
-1228
-1227
-1227
-1227
-1227
-1229
-1234
-1238
-1235
-1235
-1237
-1235
-1237
-1237
-1236
-1234
-1237
-1240
-1239
-1240
-1245
-1240
-1238
-1238
-1243
-1245
-1244
-1243
-1243
-1244
-1243
-1245
-1247
-1243
-1244
-1245
-1250
-1244
-1246
-1245
-1243
-1244
-1245
-1244
-1246
-1244
-1248
-1240
-1244
-1244
-1243
-1240
-1240
-1241
-1241
-1242
-1247
-1241
-1242
-1241
-1244
-1243
-1242
-1241
-1241
-1242
-1242
-1241
-1240
-1238
-1240
-1239
-1242
-1240
-1237
-1239
-1238
-1237
-1236
-1235
-1235
-1234
-1236
-1232
-1228
-1224
-1216
-1214
-1212
-1211
-1210
-1211
-1214
-1210
-1214
-1217
-1218
-1225
-1232
-1234
-1237
-1238
-1238
-1239
-1238
-1241
-1239
-1238
-1238
-1241
-1240
-1245
-1252
-1259
-1264
-1270
-1266
-1253
-1227
-1191
-1146
-1113
-1083
-1076
-1068
-1045
-1026
-1011
-998
-1016
-1080
-1144
-1177
-1203
-1219
-1229
-1239
-1248
-1256
-1262
-1264
-1271
-1264
-1267
-1268
-1273
-1272
-1274
-1274
-1274
-1274
-1273
-1272
-1272
-1273
-1276
-1275
-1275
-1276
-1275
-1277
-1275
-1277
-1278
-1277
-1279
-1281
-1284
-1279
-1279
-1282
-1280
-1283
-1286
-1286
-1284
-1283
-1285
-1280
-1281
-1282
-1275
-1272
-1269
-1264
-1258
-1254
-1251
-1245
-1240
-1239
-1231
-1232
-1230
-1229
-1227
-1227
-1227
-1228
-1229
-1232
-1232
-1234
-1234
-1240
-1240
-1242
-1240
-1243
-1245
-1246
-1249
-1250
-1250
-1252
-1251
-1256
-1252
-1253
-1255
-1254
-1256
-1256
-1256
-1256
-1256
-1261
-1254
-1258
-1256
-1259
-1259
-1261
-1261
-1260
-1259
-1260
-1260
-1260
-1260
-1264
-1259
-1259
-1258
-1259
-1260
-1258
-1256
-1256
-1255
-1256
-1256
-1256
-1256
-1256
-1256
-1253
-1256
-1258
-1256
-1256
-1256
-1256
-1253
-1253
-1256
-1253
-1253
-1256
-1256
-1256
-1254
-1256
-1257
-1257
-1258
-1253
-1256
-1256
-1258
-1256
-1257
-1256
-1256
-1258
-1257
-1258
-1257
-1253
-1254
-1253
-1255
-1253
-1252
-1248
-1242
-1238
-1232
-1229
-1231
-1229
-1232
-1228
-1232
-1232
-1230
-1234
-1240
-1246
-1248
-1251
-1256
-1251
-1255
-1256
-1257
-1256
-1256
-1254
-1256
-1256
-1257
-1261
-1268
-1276
-1285
-1284
-1269
-1240
-1201
-1160
-1117
-1090
-1080
-1070
-1050
-1032
-1017
-1010
-1043
-1113
-1169
-1210
-1235
-1250
-1259
-1267
-1276
-1280
-1285
-1292
-1292
-1294
-1294
-1294
-1294
-1295
-1295
-1295
-1295
-1301
-1296
-1298
-1297
-1299
-1296
-1298
-1297
-1299
-1300
-1301
-1302
-1301
-1301
-1302
-1298
-1299
-1298
-1300
-1300
-1298
-1298
-1299
-1299
-1301
-1298
-1299
-1292
-1293
-1292
-1288
-1285
-1284
-1280
-1276
-1272
-1272
-1260
-1259
-1253
-1250
-1244
-1242
-1237
-1235
-1238
-1238
-1238
-1239
-1238
-1242
-1242
-1245
-1249
-1252
-1253
-1253
-1256
-1257
-1260
-1263
-1261
-1262
-1261
-1265
-1266
-1262
-1266
-1269
-1267
-1266
-1266
-1269
-1271
-1270
-1274
-1268
-1269
-1270
-1269
-1268
-1269
-1267
-1265
-1265
-1270
-1266
-1266
-1265
-1266
-1261
-1259
-1261
-1264
-1261
-1259
-1260
-1262
-1262
-1262
-1260
-1258
-1253
-1256
-1259
-1259
-1256
-1256
-1258
-1257
-1254
-1257
-1254
-1258
-1260
-1258
-1258
-1256
-1258
-1257
-1255
-1259
-1252
-1256
-1253
-1254
-1256
-1259
-1258
-1254
-1253
-1252
-1252
-1252
-1256
-1256
-1254
-1251
-1251
-1251
-1250
-1243
-1237
-1236
-1231
-1229
-1230
-1230
-1230
-1231
-1230
-1226
-1227
-1232
-1237
-1240
-1245
-1246
-1247
-1249
-1252
-1245
-1248
-1255
-1257
-1255
-1252
-1255
-1258
-1264
-1275
-1270
-1259
-1237
-1212
-1171
-1133
-1095
-1071
-1062
-1048
-1026
-1009
-996
-1017
-1079
-1144
-1182
-1220
-1236
-1241
-1250
-1260
-1274
-1280
-1278
-1286
-1280
-1280
-1283
-1280
-1282
-1281
-1281
-1278
-1278
-1287
-1281
-1284
-1280
-1278
-1280
-1285
-1284
-1281
-1279
-1283
-1286
-1284
-1279
-1279
-1278
-1282
-1287
-1284
-1283
-1280
-1278
-1280
-1283
-1278
-1272
-1270
-1271
-1272
-1273
-1264
-1266
-1264
-1260
-1253
-1246
-1246
-1242
-1230
-1229
-1226
-1225
-1220
-1214
-1213
-1220
-1222
-1222
-1227
-1229
-1219
-1222
-1226
-1235
-1241
-1241
-1243
-1245
-1250
-1254
-1252
-1252
-1252
-1258
-1256
-1257
-1252
-1255
-1258
-1256
-1253
-1255
-1257
-1261
-1258
-1263
-1257
-1262
-1261
-1258
-1259
-1262
-1265
-1261
-1262
-1265
-1258
-1261
-1258
-1259
-1261
-1262
-1260
-1259
-1261
-1260
-1258
-1261
-1261
-1261
-1257
-1257
-1259
-1257
-1256
-1255
-1256
-1259
-1256
-1255
-1253
-1254
-1252
-1252
-1255
-1254
-1257
-1256
-1252
-1252
-1249
-1250
-1250
-1250
-1253
-1247
-1250
-1253
-1249
-1246
-1247
-1250
-1249
-1246
-1248
-1240
-1242
-1240
-1240
-1236
-1232
-1228
-1221
-1218
-1219
-1217
-1217
-1216
-1220
-1220
-1223
-1221
-1227
-1232
-1232
-1234
-1236
-1238
-1238
-1237
-1240
-1233
-1234
-1235
-1232
-1237
-1245
-1254
-1258
-1256
-1250
-1216
-1177
-1132
-1092
-1062
-1051
-1036
-1012
-992
-974
-963
-989
-1053
-1119
-1162
-1191
-1208
-1220
-1229
-1235
-1240
-1248
-1251
-1252
-1254
-1256
-1255
-1254
-1256
-1255
-1258
-1260
-1258
-1259
-1258
-1259
-1258
-1256
-1261
-1258
-1259
-1260
-1260
-1256
-1259
-1258
-1258
-1258
-1261
-1257
-1260
-1259
-1263
-1260
-1260
-1260
-1258
-1260
-1262
-1262
-1262
-1260
-1261
-1259
-1258
-1252
-1249
-1246
-1241
-1238
-1235
-1230
-1226
-1220
-1220
-1212
-1210
-1209
-1204
-1203
-1204
-1206
-1206
-1206
-1214
-1208
-1214
-1216
-1219
-1220
-1224
-1228
-1229
-1230
-1232
-1232
-1230
-1231
-1234
-1232
-1236
-1237
-1236
-1236
-1235
-1234
-1236
-1235
-1236
-1235
-1238
-1237
-1239
-1240
-1236
-1237
-1236
-1236
-1237
-1238
-1242
-1240
-1238
-1240
-1237
-1239
-1237
-1237
-1237
-1237
-1239
-1239
-1240
-1242
-1237
-1240
-1239
-1242
-1240
-1240
-1239
-1240
-1240
-1239
-1238
-1239
-1226
-1208
-1193
-1200
-1234
-1280
-1316
-1345
-1371
-1388
-1396
-1403
-1412
-1427
-1434
-1445
-1450
-1446
-1449
-1453
-1456
-1455
-1450
-1447
-1427
-1412
-1384
-1350
-1326
-1318
-1307
-1286
-1259
-1234
-1210
-1189
-1177
-1176
-1176
-1174
-1171
-1167
-1164
-1160
-1157
-1155
-1153
-1150
-1148
-1144
-1138
-1136
-1133
-1125
-1122
-1117
-1110
-1106
-1100
-1097
-1089
-1083
-1080
-1070
-1070
-1068
-1066
-1063
-1061
-1061
-1062
-1063
-1065
-1063
-1068
-1070
-1077
-1080
-1085
-1089
-1093
-1100
-1106
-1112
-1119
-1125
-1133
-1138
-1146
-1150
-1158
-1165
-1168
-1174
-1180
-1185
-1191
-1195
-1204
-1201
-1208
-1213
-1218
-1222
-1226
-1227
-1229
-1232
-1240
-1235
-1238
-1241
-1245
-1244
-1246
-1249
-1248
-1249
-1250
-1250
-1250
-1249
-1250
-1249
-1250
-1250
-1252
-1252
-1250
-1252
-1253
-1252
-1251
-1250
-1250
-1249
-1251
-1253
-1250
-1250
-1251
-1249
-1250
-1250
-1250
-1248
-1250
-1252
-1249
-1249
-1250
-1250
-1249
-1248
-1248
-1247
-1246
-1251
-1245
-1248
-1246
-1248
-1248
-1248
-1248
-1248
-1250
-1248
-1247
-1248
-1245
-1249
-1246
-1247
-1244
-1246
-1247
-1248
-1247
-1247
-1246
-1249
-1246
-1250
-1244
-1246
-1248
-1246
-1248
-1248
-1247
-1246
-1247
-1250
-1242
-1245
-1246
-1247
-1246
-1246
-1248
-1247
-1246
-1246
-1245
-1246
-1247
-1246
-1244
-1245
-1247
-1246
-1246
-1244
-1242
-1242
-1243
-1245
-1244
-1243
-1243
-1242
-1242
-1240
-1242
-1242
-1238
-1238
-1237
-1235
-1231
-1227
-1225
-1215
-1214
-1216
-1214
-1214
-1214
-1214
-1214
-1220
-1227
-1227
-1232
-1232
-1237
-1238
-1240
-1241
-1239
-1237
-1237
-1239
-1240
-1241
-1252
-1259
-1266
-1264
-1259
-1244
-1211
-1170
-1128
-1091
-1070
-1060
-1055
-1032
-1017
-1000
-986
-999
-1050
-1116
-1162
-1196
-1220
-1227
-1239
-1246
-1256
-1261
-1265
-1269
-1272
-1274
-1275
-1277
-1273
-1277
-1278
-1278
-1278
-1279
-1278
-1280
-1278
-1278
-1280
-1280
-1279
-1279
-1280
-1280
-1279
-1281
-1277
-1279
-1278
-1276
-1278
-1279
-1280
-1278
-1280
-1284
-1278
-1280
-1278
-1278
-1276
-1275
-1274
-1272
-1269
-1268
-1260
-1258
-1252
-1251
-1243
-1238
-1232
-1228
-1224
-1221
-1218
-1216
-1214
-1218
-1215
-1217
-1216
-1219
-1222
-1224
-1225
-1227
-1228
-1232
-1233
-1235
-1234
-1237
-1240
-1239
-1239
-1240
-1240
-1240
-1242
-1246
-1242
-1245
-1244
-1244
-1244
-1245
-1246
-1245
-1246
-1249
-1250
-1249
-1248
-1248
-1249
-1250
-1253
-1253
-1253
-1252
-1249
-1250
-1249
-1251
-1250
-1250
-1250
-1248
-1250
-1248
-1248
-1248
-1246
-1246
-1246
-1247
-1247
-1245
-1249
-1244
-1247
-1248
-1246
-1246
-1246
-1248
-1248
-1246
-1248
-1242
-1245
-1243
-1246
-1244
-1244
-1245
-1244
-1244
-1245
-1243
-1243
-1242
-1242
-1234
-1232
-1226
-1222
-1223
-1220
-1219
-1219
-1218
-1220
-1219
-1226
-1226
-1232
-1240
-1242
-1244
-1245
-1247
-1245
-1246
-1249
-1245
-1248
-1249
-1248
-1249
-1255
-1264
-1271
-1272
-1270
-1255
-1226
-1183
-1144
-1107
-1081
-1072
-1063
-1043
-1022
-1006
-994
-1017
-1081
-1142
-1182
-1212
-1227
-1240
-1246
-1256
-1264
-1269
-1271
-1273
-1276
-1277
-1278
-1281
-1276
-1278
-1278
-1278
-1278
-1277
-1279
-1278
-1280
-1284
-1277
-1280
-1280
-1284
-1280
-1280
-1282
-1280
-1282
-1283
-1282
-1284
-1284
-1288
-1286
-1286
-1284
-1285
-1286
-1285
-1286
-1286
-1284
-1282
-1280
-1280
-1272
-1268
-1266
-1260
-1258
-1255
-1248
-1245
-1241
-1241
-1232
-1232
-1231
-1230
-1232
-1233
-1234
-1235
-1238
-1240
-1241
-1243
-1246
-1248
-1251
-1252
-1254
-1253
-1255
-1255
-1256
-1256
-1256
-1257
-1259
-1261
-1262
-1260
-1261
-1258
-1260
-1261
-1262
-1263
-1264
-1265
-1264
-1262
-1265
-1260
-1264
-1264
-1264
-1263
-1262
-1263
-1262
-1260
-1262
-1256
-1258
-1257
-1260
-1257
-1256
-1256
-1254
-1255
-1253
-1253
-1255
-1253
-1254
-1254
-1253
-1248
-1252
-1253
-1252
-1249
-1250
-1250
-1251
-1247
-1250
-1245
-1245
-1246
-1246
-1244
-1244
-1243
-1241
-1242
-1246
-1240
-1237
-1238
-1240
-1236
-1234
-1231
-1226
-1218
-1214
-1214
-1213
-1211
-1211
-1212
-1214
-1214
-1217
-1222
-1228
-1230
-1233
-1236
-1237
-1236
-1237
-1238
-1238
-1238
-1236
-1237
-1239
-1242
-1252
-1259
-1265
-1266
-1261
-1248
-1212
-1172
-1133
-1096
-1069
-1059
-1049
-1029
-1011
-999
-986
-1013
-1075
-1140
-1181
-1208
-1226
-1235
-1244
-1251
-1257
-1263
-1266
-1272
-1271
-1272
-1270
-1273
-1275
-1274
-1274
-1273
-1274
-1275
-1272
-1276
-1270
-1272
-1274
-1273
-1275
-1274
-1272
-1272
-1274
-1279
-1274
-1276
-1274
-1272
-1276
-1275
-1276
-1277
-1278
-1279
-1278
-1276
-1276
-1275
-1274
-1271
-1268
-1264
-1260
-1256
-1253
-1250
-1243
-1237
-1234
-1230
-1230
-1226
-1224
-1219
-1220
-1222
-1222
-1224
-1224
-1226
-1229
-1230
-1237
-1232
-1236
-1240
-1241
-1239
-1241
-1244
-1243
-1242
-1245
-1241
-1244
-1242
-1247
-1248
-1248
-1248
-1246
-1248
-1248
-1246
-1248
-1247
-1252
-1248
-1248
-1245
-1246
-1248
-1246
-1247
-1247
-1244
-1246
-1248
-1250
-1243
-1244
-1245
-1242
-1242
-1243
-1244
-1244
-1245
-1246
-1240
-1242
-1243
-1243
-1244
-1243
-1244
-1243
-1242
-1242
-1242
-1242
-1244
-1245
-1245
-1244
-1246
-1246
-1245
-1243
-1242
-1244
-1243
-1243
-1244
-1243
-1243
-1241
-1242
-1238
-1241
-1241
-1237
-1234
-1230
-1224
-1221
-1221
-1222
-1216
-1219
-1221
-1220
-1220
-1224
-1234
-1236
-1238
-1242
-1240
-1244
-1243
-1248
-1244
-1245
-1245
-1244
-1244
-1245
-1246
-1251
-1259
-1270
-1271
-1271
-1258
-1234
-1195
-1150
-1110
-1080
-1064
-1058
-1038
-1020
-1001
-991
-1019
-1080
-1141
-1183
-1210
-1226
-1237
-1246
-1248
-1258
-1265
-1272
-1272
-1273
-1275
-1274
-1274
-1275
-1274
-1274
-1278
-1276
-1277
-1275
-1276
-1275
-1274
-1275
-1275
-1277
-1276
-1276
-1275
-1275
-1277
-1278
-1278
-1277
-1280
-1280
-1279
-1280
-1281
-1280
-1280
-1279
-1281
-1273
-1275
-1275
-1268
-1265
-1262
-1259
-1254
-1250
-1250
-1240
-1240
-1234
-1234
-1228
-1226
-1224
-1222
-1222
-1222
-1223
-1222
-1222
-1227
-1228
-1232
-1232
-1234
-1238
-1237
-1238
-1240
-1242
-1243
-1242
-1244
-1242
-1245
-1248
-1244
-1246
-1246
-1245
-1248
-1248
-1250
-1244
-1249
-1252
-1251
-1250
-1249
-1249
-1249
-1249
-1252
-1252
-1250
-1249
-1248
-1248
-1249
-1250
-1249
-1248
-1247
-1249
-1248
-1245
-1245
-1244
-1242
-1242
-1243
-1245
-1242
-1244
-1245
-1242
-1241
-1243
-1244
-1246
-1244
-1246
-1240
-1243
-1244
-1243
-1243
-1242
-1241
-1243
-1242
-1245
-1237
-1242
-1240
-1242
-1240
-1242
-1242
-1241
-1241
-1240
-1239
-1238
-1237
-1238
-1234
-1229
-1222
-1218
-1214
-1212
-1211
-1212
-1212
-1214
-1213
-1216
-1213
-1218
-1225
-1227
-1231
-1234
-1234
-1236
-1237
-1240
-1236
-1236
-1236
-1236
-1236
-1236
-1241
-1250
-1258
-1263
-1262
-1255
-1233
-1196
-1153
-1114
-1083
-1064
-1060
-1043
-1021
-1002
-986
-989
-1040
-1106
-1159
-1192
-1216
-1227
-1238
-1246
-1251
-1258
-1260
-1261
-1264
-1264
-1267
-1264
-1266
-1268
-1269
-1267
-1267
-1266
-1267
-1268
-1272
-1265
-1269
-1268
-1269
-1267
-1268
-1269
-1267
-1268
-1270
-1269
-1268
-1268
-1272
-1271
-1270
-1269
-1270
-1270
-1268
-1269
-1270
-1268
-1268
-1265
-1264
-1259
-1258
-1255
-1250
-1248
-1245
-1240
-1236
-1230
-1229
-1222
-1221
-1220
-1217
-1216
-1217
-1218
-1218
-1219
-1222
-1222
-1224
-1229
-1229
-1230
-1229
-1235
-1235
-1237
-1238
-1241
-1242
-1242
-1243
-1244
-1243
-1246
-1245
-1248
-1246
-1248
-1251
-1250
-1248
-1250
-1250
-1250
-1250
-1253
-1247
-1250
-1250
-1248
-1250
-1250
-1251
-1251
-1252
-1253
-1246
-1247
-1246
-1248
-1246
-1245
-1246
-1247
-1245
-1244
-1242
-1244
-1243
-1247
-1243
-1242
-1241
-1244
-1243
-1240
-1240
-1241
-1240
-1243
-1244
-1243
-1240
-1242
-1244
-1242
-1242
-1244
-1244
-1244
-1245
-1248
-1245
-1243
-1246
-1243
-1243
-1244
-1245
-1242
-1242
-1241
-1240
-1240
-1240
-1238
-1236
-1237
-1239
-1236
-1232
-1226
-1222
-1217
-1216
-1216
-1218
-1217
-1217
-1216
-1220
-1216
-1221
-1228
-1232
-1236
-1236
-1238
-1238
-1240
-1244
-1240
-1241
-1243
-1243
-1242
-1243
-1247
-1254
-1263
-1273
-1266
-1258
-1230
-1194
-1146
-1106
-1080
-1070
-1056
-1033
-1012
-996
-1000
-1062
-1133
-1182
-1208
-1226
-1240
-1248
-1254
-1261
-1265
-1270
-1270
-1272
-1272
-1274
-1278
-1274
-1274
-1275
-1276
-1278
-1276
-1277
-1272
-1273
-1278
-1278
-1278
-1278
-1278
-1276
-1276
-1278
-1279
-1276
-1278
-1272
-1277
-1278
-1279
-1278
-1280
-1278
-1276
-1277
-1278
-1280
-1278
-1276
-1278
-1272
-1269
-1265
-1264
-1262
-1256
-1253
-1250
-1245
-1242
-1236
-1235
-1225
-1226
-1225
-1221
-1218
-1218
-1218
-1219
-1220
-1226
-1219
-1225
-1226
-1231
-1231
-1234
-1235
-1237
-1240
-1240
-1240
-1242
-1242
-1246
-1245
-1244
-1243
-1244
-1245
-1244
-1246
-1247
-1247
-1248
-1246
-1249
-1248
-1249
-1251
-1248
-1250
-1250
-1250
-1251
-1251
-1250
-1246
-1248
-1250
-1246
-1246
-1246
-1245
-1244
-1244
-1245
-1244
-1242
-1243
-1240
-1243
-1243
-1245
-1243
-1243
-1243
-1243
-1244
-1243
-1242
-1242
-1240
-1241
-1240
-1243
-1240
-1242
-1243
-1242
-1242
-1242
-1242
-1245
-1243
-1246
-1239
-1242
-1242
-1240
-1238
-1239
-1240
-1239
-1240
-1243
-1234
-1235
-1235
-1238
-1236
-1234
-1227
-1221
-1219
-1216
-1214
-1213
-1210
-1214
-1211
-1214
-1214
-1218
-1225
-1229
-1230
-1234
-1235
-1237
-1239
-1240
-1237
-1240
-1240
-1239
-1240
-1246
-1253
-1261
-1268
-1267
-1244
-1210
-1165
-1122
-1089
-1073
-1064
-1041
-1019
-1001
-989
-1024
-1092
-1149
-1185
-1208
-1226
-1236
-1245
-1252
-1257
-1265
-1265
-1266
-1269
-1275
-1272
-1269
-1272
-1270
-1271
-1270
-1269
-1269
-1268
-1268
-1272
-1270
-1274
-1268
-1269
-1274
-1272
-1272
-1272
-1271
-1272
-1272
-1276
-1270
-1272
-1272
-1276
-1272
-1273
-1276
-1276
-1275
-1274
-1275
-1274
-1271
-1271
-1267
-1264
-1260
-1257
-1256
-1250
-1244
-1240
-1235
-1232
-1228
-1225
-1221
-1217
-1217
-1214
-1215
-1217
-1218
-1220
-1222
-1227
-1224
-1228
-1232
-1230
-1233
-1236
-1240
-1239
-1240
-1242
-1243
-1242
-1245
-1240
-1246
-1246
-1248
-1248
-1249
-1250
-1248
-1246
-1246
-1246
-1248
-1248
-1252
-1251
-1250
-1247
-1250
-1252
-1252
-1251
-1250
-1248
-1250
-1249
-1252
-1246
-1248
-1251
-1250
-1249
-1248
-1250
-1248
-1248
-1250
-1244
-1246
-1246
-1250
-1249
-1248
-1246
-1246
-1246
-1246
-1246
-1246
-1245
-1249
-1248
-1249
-1247
-1247
-1248
-1248
-1246
-1245
-1245
-1246
-1246
-1247
-1244
-1245
-1248
-1244
-1244
-1244
-1245
-1245
-1244
-1245
-1242
-1241
-1242
-1240
-1240
-1240
-1239
-1233
-1229
-1224
-1219
-1217
-1220
-1216
-1218
-1218
-1219
-1218
-1222
-1228
-1233
-1237
-1237
-1238
-1240
-1238
-1242
-1240
-1242
-1238
-1241
-1243
-1246
-1256
-1262
-1269
-1268
-1254
-1230
-1184
-1144
-1106
-1077
-1067
-1058
-1036
-1016
-999
-990
-1011
-1079
-1139
-1184
-1207
-1223
-1237
-1245
-1254
-1262
-1267
-1268
-1268
-1274
-1275
-1276
-1276
-1280
-1281
-1278
-1278
-1278
-1278
-1278
-1279
-1279
-1280
-1283
-1285
-1279
-1279
-1280
-1280
-1281
-1278
-1280
-1278
-1281
-1282
-1280
-1280
-1282
-1282
-1280
-1280
-1283
-1281
-1280
-1284
-1278
-1278
-1274
-1277
-1272
-1270
-1266
-1262
-1260
-1256
-1250
-1245
-1239
-1239
-1234
-1231
-1226
-1222
-1225
-1222
-1224
-1225
-1226
-1229
-1231
-1236
-1234
-1239
-1242
-1242
-1244
-1247
-1248
-1249
-1250
-1253
-1247
-1251
-1250
-1253
-1253
-1253
-1253
-1252
-1255
-1255
-1256
-1258
-1256
-1257
-1256
-1256
-1258
-1257
-1256
-1255
-1256
-1257
-1255
-1256
-1255
-1256
-1255
-1256
-1256
-1253
-1255
-1257
-1255
-1252
-1252
-1254
-1251
-1250
-1253
-1249
-1252
-1250
-1250
-1248
-1248
-1250
-1251
-1248
-1248
-1245
-1246
-1244
-1246
-1246
-1245
-1245
-1244
-1244
-1245
-1246
-1246
-1244
-1246
-1246
-1248
-1243
-1243
-1246
-1244
-1243
-1244
-1243
-1245
-1244
-1248
-1242
-1244
-1243
-1242
-1242
-1243
-1239
-1233
-1228
-1227
-1216
-1219
-1216
-1221
-1219
-1218
-1219
-1220
-1222
-1227
-1230
-1235
-1236
-1239
-1238
-1240
-1240
-1239
-1240
-1239
-1237
-1239
-1240
-1246
-1252
-1260
-1264
-1264
-1259
-1232
-1201
-1161
-1123
-1089
-1067
-1059
-1046
-1030
-1014
-994
-982
-990
-1039
-1104
-1156
-1190
-1211
-1226
-1238
-1242
-1249
-1256
-1262
-1263
-1266
-1268
-1267
-1269
-1270
-1269
-1270
-1268
-1271
-1270
-1271
-1270
-1270
-1271
-1269
-1272
-1272
-1270
-1273
-1272
-1273
-1268
-1271
-1272
-1272
-1273
-1274
-1275
-1276
-1276
-1280
-1272
-1274
-1275
-1278
-1275
-1274
-1272
-1268
-1265
-1261
-1256
-1253
-1249
-1247
-1239
-1235
-1232
-1227
-1226
-1223
-1221
-1220
-1218
-1220
-1221
-1222
-1224
-1225
-1230
-1229
-1233
-1234
-1236
-1238
-1240
-1242
-1240
-1244
-1248
-1242
-1244
-1248
-1249
-1248
-1246
-1248
-1248
-1250
-1253
-1246
-1249
-1247
-1252
-1252
-1253
-1251
-1250
-1251
-1250
-1250
-1251
-1250
-1251
-1250
-1251
-1248
-1250
-1249
-1247
-1248
-1251
-1250
-1251
-1249
-1250
-1243
-1246
-1247
-1244
-1244
-1246
-1246
-1246
-1246
-1250
-1243
-1244
-1243
-1244
-1245
-1243
-1244
-1245
-1246
-1245
-1244
-1244
-1243
-1244
-1243
-1243
-1244
-1244
-1244
-1242
-1242
-1242
-1242
-1242
-1242
-1243
-1242
-1242
-1243
-1239
-1240
-1242
-1240
-1241
-1240
-1242
-1240
-1240
-1242
-1239
-1239
-1239
-1239
-1237
-1235
-1230
-1226
-1222
-1221
-1211
-1215
-1213
-1213
-1212
-1213
-1216
-1217
-1218
-1221
-1227
-1231
-1231
-1236
-1237
-1238
-1235
-1239
-1240
-1238
-1238
-1239
-1238
-1242
-1248
-1259
-1259
-1265
-1266
-1250
-1224
-1185
-1142
-1102
-1077
-1070
-1056
-1041
-1022
-1006
-987
-998
-1056
-1124
-1171
-1203
-1222
-1236
-1244
-1255
-1260
-1264
-1266
-1270
-1274
-1274
-1274
-1276
-1274
-1275
-1276
-1278
-1278
-1277
-1279
-1275
-1274
-1277
-1276
-1277
-1278
-1280
-1279
-1280
-1283
-1280
-1280
-1282
-1281
-1280
-1280
-1280
-1281
-1282
-1284
-1280
-1284
-1283
-1285
-1280
-1280
-1278
-1276
-1274
-1271
-1267
-1262
-1258
-1258
-1251
-1250
-1244
-1242
-1238
-1232
-1229
-1227
-1224
-1226
-1224
-1227
-1222
-1227
-1230
-1230
-1231
-1236
-1238
-1238
-1240
-1246
-1242
-1245
-1245
-1248
-1247
-1249
-1252
-1253
-1254
-1252
-1252
-1254
-1253
-1253
-1253
-1254
-1254
-1256
-1258
-1258
-1258
-1259
-1256
-1254
-1254
-1254
-1254
-1254
-1257
-1253
-1252
-1254
-1254
-1253
-1253
-1253
-1253
-1250
-1253
-1248
-1250
-1248
-1247
-1246
-1250
-1249
-1248
-1248
-1250
-1242
-1246
-1246
-1246
-1243
-1244
-1244
-1245
-1245
-1246
-1244
-1244
-1242
-1248
-1243
-1246
-1241
-1244
-1246
-1245
-1245
-1243
-1242
-1244
-1244
-1246
-1239
-1243
-1245
-1242
-1242
-1242
-1241
-1243
-1244
-1245
-1237
-1241
-1242
-1242
-1238
-1239
-1237
-1232
-1228
-1227
-1220
-1215
-1210
-1212
-1211
-1213
-1211
-1211
-1212
-1215
-1220
-1226
-1227
-1230
-1232
-1234
-1233
-1234
-1236
-1231
-1232
-1233
-1234
-1235
-1239
-1249
-1252
-1259
-1262
-1246
-1218
-1175
-1131
-1093
-1069
-1060
-1043
-1020
-1002
-981
-998
-1058
-1128
-1171
-1200
-1218
-1230
-1240
-1248
-1254
-1261
-1263
-1268
-1268
-1271
-1270
-1271
-1270
-1269
-1272
-1273
-1271
-1273
-1273
-1276
-1268
-1270
-1274
-1272
-1271
-1271
-1272
-1272
-1271
-1274
-1270
-1274
-1274
-1275
-1273
-1275
-1277
-1276
-1275
-1276
-1274
-1273
-1275
-1276
-1274
-1274
-1273
-1267
-1266
-1262
-1262
-1261
-1256
-1252
-1248
-1243
-1240
-1236
-1235
-1228
-1224
-1222
-1221
-1219
-1219
-1220
-1221
-1222
-1226
-1224
-1228
-1232
-1234
-1233
-1236
-1240
-1243
-1243
-1246
-1243
-1245
-1246
-1250
-1250
-1250
-1250
-1249
-1251
-1252
-1254
-1253
-1253
-1257
-1253
-1254
-1252
-1253
-1254
-1254
-1254
-1255
-1255
-1256
-1253
-1252
-1247
-1250
-1250
-1251
-1252
-1252
-1250
-1250
-1248
-1252
-1245
-1248
-1246
-1249
-1246
-1246
-1249
-1248
-1246
-1245
-1246
-1248
-1248
-1249
-1246
-1244
-1244
-1244
-1244
-1244
-1246
-1247
-1246
-1246
-1244
-1241
-1241
-1243
-1244
-1240
-1242
-1242
-1242
-1242
-1242
-1243
-1244
-1246
-1246
-1241
-1242
-1243
-1243
-1244
-1244
-1241
-1240
-1242
-1244
-1234
-1236
-1235
-1238
-1232
-1227
-1222
-1217
-1216
-1215
-1213
-1214
-1214
-1220
-1217
-1221
-1224
-1232
-1236
-1237
-1240
-1242
-1240
-1243
-1243
-1245
-1237
-1240
-1243
-1246
-1255
-1262
-1266
-1262
-1245
-1219
-1169
-1132
-1098
-1073
-1064
-1056
-1035
-1016
-998
-986
-1012
-1078
-1142
-1182
-1208
-1224
-1236
-1243
-1253
-1255
-1261
-1267
-1268
-1270
-1270
-1273
-1273
-1273
-1276
-1272
-1272
-1274
-1274
-1274
-1274
-1274
-1272
-1274
-1278
-1274
-1274
-1275
-1274
-1272
-1274
-1275
-1274
-1274
-1279
-1272
-1277
-1276
-1278
-1274
-1275
-1275
-1276
-1277
-1274
-1273
-1274
-1271
-1272
-1269
-1267
-1261
-1255
-1252
-1246
-1244
-1236
-1232
-1230
-1225
-1225
-1215
-1216
-1216
-1214
-1214
-1216
-1216
-1217
-1218
-1222
-1220
-1222
-1226
-1228
-1230
-1230
-1232
-1232
-1232
-1234
-1234
-1234
-1232
-1233
-1233
-1236
-1240
-1236
-1238
-1238
-1240
-1240
-1239
-1238
-1238
-1239
-1240
-1240
-1241
-1237
-1239
-1240
-1240
-1242
-1240
-1240
-1240
-1237
-1240
-1235
-1237
-1238
-1236
-1236
-1236
-1236
-1238
-1237
-1240
-1233
-1236
-1235
-1239
-1237
-1237
-1237
-1237
-1237
-1238
-1236
-1236
-1235
-1240
-1237
-1238
-1235
-1238
-1237
-1235
-1236
-1235
-1235
-1236
-1234
-1236
-1234
-1234
-1234
-1232
-1232
-1233
-1233
-1233
-1232
-1233
-1226
-1229
-1228
-1232
-1226
-1220
-1216
-1211
-1207
-1204
-1203
-1203
-1200
-1202
-1204
-1206
-1208
-1214
-1219
-1221
-1222
-1226
-1228
-1229
-1230
-1229
-1230
-1232
-1236
-1232
-1234
-1238
-1245
-1252
-1260
-1262
-1256
-1233
-1203
-1157
-1122
-1092
-1073
-1066
-1051
-1030
-1014
-996
-989
-1004
-1074
-1136
-1181
-1202
-1220
-1230
-1240
-1250
-1256
-1262
-1265
-1267
-1270
-1270
-1275
-1272
-1272
-1272
-1270
-1272
-1271
-1270
-1270
-1269
-1272
-1266
-1268
-1271
-1268
-1269
-1270
-1269
-1268
-1269
-1274
-1269
-1270
-1271
-1271
-1270
-1271
-1272
-1274
-1274
-1275
-1275
-1273
-1276
-1275
-1268
-1266
-1267
-1262
-1259
-1255
-1253
-1250
-1245
-1240
-1235
-1232
-1228
-1225
-1226
-1220
-1218
-1219
-1218
-1220
-1220
-1222
-1224
-1224
-1230
-1227
-1232
-1235
-1238
-1237
-1238
-1240
-1241
-1242
-1249
-1243
-1244
-1243
-1248
-1246
-1246
-1248
-1248
-1250
-1249
-1250
-1250
-1250
-1254
-1254
-1256
-1253
-1254
-1256
-1253
-1253
-1253
-1252
-1253
-1253
-1255
-1251
-1253
-1255
-1253
-1251
-1252
-1252
-1252
-1252
-1254
-1248
-1250
-1250
-1248
-1248
-1247
-1249
-1248
-1246
-1246
-1246
-1248
-1248
-1246
-1244
-1245
-1246
-1244
-1244
-1244
-1245
-1244
-1243
-1245
-1244
-1244
-1246
-1244
-1247
-1243
-1246
-1246
-1243
-1243
-1244
-1242
-1243
-1242
-1243
-1238
-1239
-1240
-1239
-1240
-1240
-1236
-1233
-1228
-1225
-1216
-1217
-1217
-1220
-1219
-1220
-1221
-1225
-1232
-1236
-1240
-1244
-1243
-1248
-1246
-1249
-1247
-1249
-1250
-1248
-1248
-1250
-1252
-1257
-1264
-1276
-1276
-1276
-1266
-1242
-1208
-1165
-1126
-1092
-1075
-1073
-1053
-1035
-1019
-1003
-1002
-1048
-1117
-1172
-1205
-1227
-1240
-1252
-1260
-1268
-1272
-1277
-1280
-1280
-1284
-1285
-1287
-1286
-1286
-1288
-1286
-1287
-1288
-1285
-1288
-1284
-1286
-1288
-1284
-1286
-1286
-1285
-1284
-1285
-1288
-1284
-1284
-1287
-1286
-1287
-1286
-1287
-1288
-1288
-1292
-1283
-1285
-1284
-1284
-1282
-1282
-1281
-1280
-1278
-1272
-1268
-1264
-1258
-1258
-1251
-1248
-1243
-1238
-1236
-1230
-1229
-1228
-1227
-1229
-1228
-1232
-1229
-1233
-1238
-1237
-1238
-1242
-1244
-1245
-1246
-1251
-1248
-1252
-1253
-1254
-1255
-1254
-1257
-1256
-1257
-1258
-1260
-1260
-1262
-1258
-1258
-1260
-1262
-1259
-1262
-1261
-1262
-1261
-1259
-1260
-1260
-1258
-1260
-1260
-1262
-1256
-1256
-1258
-1256
-1256
-1256
-1256
-1255
-1254
-1257
-1250
-1252
-1253
-1250
-1250
-1250
-1251
-1251
-1250
-1254
-1243
-1248
-1248
-1251
-1249
-1250
-1249
-1249
-1248
-1248
-1248
-1248
-1246
-1251
-1248
-1248
-1244
-1246
-1245
-1243
-1244
-1246
-1244
-1245
-1242
-1244
-1239
-1241
-1243
-1239
-1235
-1228
-1225
-1222
-1220
-1222
-1215
-1217
-1218
-1218
-1219
-1222
-1224
-1227
-1232
-1235
-1236
-1237
-1239
-1241
-1243
-1242
-1242
-1243
-1244
-1243
-1242
-1244
-1247
-1255
-1264
-1268
-1266
-1253
-1226
-1182
-1143
-1105
-1074
-1062
-1056
-1035
-1015
-996
-989
-1007
-1075
-1138
-1179
-1208
-1226
-1239
-1246
-1253
-1260
-1259
-1268
-1269
-1273
-1270
-1272
-1271
-1272
-1273
-1274
-1273
-1273
-1273
-1275
-1272
-1274
-1272
-1272
-1275
-1271
-1274
-1274
-1272
-1273
-1273
-1273
-1269
-1272
-1274
-1272
-1272
-1273
-1272
-1270
-1272
-1275
-1270
-1270
-1268
-1269
-1266
-1264
-1262
-1255
-1250
-1246
-1244
-1241
-1237
-1230
-1226
-1224
-1222
-1218
-1217
-1216
-1216
-1218
-1217
-1219
-1222
-1222
-1227
-1229
-1234
-1231
-1235
-1239
-1240
-1240
-1240
-1242
-1245
-1245
-1246
-1242
-1245
-1244
-1246
-1247
-1246
-1248
-1248
-1246
-1253
-1243
-1248
-1248
-1254
-1250
-1250
-1251
-1249
-1250
-1250
-1250
-1250
-1248
-1251
-1248
-1249
-1248
-1248
-1249
-1248
-1246
-1246
-1246
-1247
-1246
-1246
-1242
-1242
-1246
-1245
-1246
-1246
-1243
-1243
-1243
-1247
-1245
-1246
-1248
-1244
-1243
-1244
-1243
-1243
-1244
-1243
-1244
-1246
-1246
-1242
-1242
-1242
-1244
-1242
-1244
-1242
-1240
-1240
-1239
-1238
-1237
-1238
-1240
-1236
-1235
-1225
-1222
-1220
-1215
-1214
-1216
-1216
-1216
-1214
-1220
-1216
-1220
-1227
-1232
-1234
-1235
-1238
-1240
-1243
-1248
-1238
-1241
-1241
-1243
-1243
-1246
-1250
-1256
-1265
-1270
-1269
-1259
-1233
-1198
-1153
-1117
-1085
-1072
-1065
-1042
-1019
-999
-985
-1009
-1075
-1143
-1182
-1210
-1230
-1239
-1248
-1256
-1262
-1268
-1270
-1274
-1272
-1274
-1275
-1276
-1277
-1278
-1277
-1275
-1275
-1275
-1275
-1276
-1279
-1276
-1275
-1274
-1277
-1278
-1280
-1278
-1276
-1277
-1275
-1276
-1277
-1278
-1279
-1278
-1282
-1278
-1280
-1281
-1278
-1279
-1278
-1277
-1275
-1272
-1274
-1264
-1264
-1263
-1256
-1252
-1248
-1246
-1243
-1237
-1235
-1224
-1224
-1221
-1222
-1222
-1221
-1223
-1223
-1226
-1226
-1229
-1231
-1236
-1240
-1240
-1242
-1242
-1242
-1244
-1244
-1246
-1247
-1246
-1248
-1248
-1251
-1247
-1248
-1252
-1251
-1251
-1252
-1254
-1255
-1254
-1256
-1251
-1253
-1255
-1254
-1254
-1255
-1254
-1255
-1258
-1255
-1253
-1253
-1253
-1251
-1253
-1254
-1254
-1250
-1251
-1252
-1252
-1252
-1252
-1252
-1251
-1251
-1252
-1249
-1250
-1245
-1246
-1246
-1246
-1245
-1246
-1246
-1249
-1246
-1248
-1241
-1244
-1244
-1245
-1246
-1244
-1244
-1242
-1242
-1248
-1240
-1240
-1240
-1242
-1240
-1240
-1240
-1241
-1238
-1237
-1237
-1238
-1234
-1236
-1229
-1226
-1221
-1218
-1216
-1212
-1212
-1211
-1210
-1215
-1212
-1217
-1217
-1225
-1232
-1231
-1233
-1236
-1240
-1239
-1236
-1238
-1234
-1237
-1239
-1238
-1242
-1250
-1258
-1262
-1261
-1253
-1228
-1188
-1140
-1094
-1067
-1056
-1045
-1020
-1001
-987
-1009
-1080
-1144
-1186
-1212
-1227
-1239
-1246
-1256
-1259
-1266
-1268
-1268
-1271
-1272
-1270
-1272
-1274
-1278
-1271
-1272
-1273
-1272
-1272
-1273
-1275
-1274
-1272
-1274
-1267
-1271
-1270
-1274
-1272
-1271
-1272
-1272
-1273
-1273
-1272
-1272
-1269
-1274
-1272
-1275
-1273
-1272
-1274
-1270
-1270
-1271
-1267
-1266
-1264
-1265
-1256
-1253
-1250
-1243
-1241
-1239
-1232
-1229
-1224
-1223
-1217
-1216
-1217
-1214
-1215
-1216
-1219
-1221
-1221
-1224
-1227
-1229
-1232
-1230
-1234
-1236
-1242
-1239
-1242
-1242
-1243
-1243
-1244
-1246
-1246
-1245
-1246
-1246
-1248
-1246
-1246
-1246
-1244
-1246
-1247
-1246
-1247
-1246
-1252
-1246
-1246
-1248
-1248
-1248
-1248
-1248
-1246
-1246
-1250
-1242
-1245
-1242
-1244
-1242
-1244
-1244
-1242
-1242
-1244
-1245
-1243
-1240
-1243
-1240
-1243
-1242
-1241
-1242
-1240
-1240
-1241
-1240
-1239
-1239
-1240
-1236
-1237
-1242
-1240
-1242
-1242
-1240
-1238
-1238
-1240
-1238
-1239
-1239
-1236
-1236
-1236
-1236
-1234
-1234
-1233
-1233
-1232
-1234
-1228
-1222
-1215
-1213
-1207
-1209
-1209
-1207
-1208
-1207
-1208
-1209
-1214
-1221
-1224
-1229
-1229
-1234
-1234
-1232
-1233
-1234
-1233
-1237
-1236
-1240
-1240
-1251
-1259
-1260
-1252
-1227
-1192
-1149
-1112
-1086
-1061
-1059
-1043
-1024
-1004
-984
-978
-1018
-1085
-1143
-1182
-1205
-1218
-1233
-1239
-1247
-1251
-1256
-1260
-1259
-1262
-1264
-1264
-1265
-1266
-1268
-1264
-1266
-1269
-1267
-1268
-1268
-1266
-1266
-1266
-1268
-1264
-1267
-1267
-1264
-1265
-1268
-1269
-1269
-1269
-1270
-1268
-1270
-1270
-1272
-1272
-1272
-1274
-1271
-1270
-1271
-1270
-1268
-1266
-1264
-1263
-1257
-1254
-1249
-1248
-1239
-1235
-1232
-1225
-1222
-1217
-1214
-1214
-1212
-1216
-1210
-1212
-1215
-1217
-1220
-1222
-1222
-1226
-1229
-1235
-1227
-1233
-1233
-1237
-1236
-1236
-1240
-1241
-1241
-1238
-1238
-1239
-1240
-1241
-1240
-1242
-1242
-1244
-1247
-1246
-1244
-1243
-1243
-1246
-1246
-1248
-1243
-1245
-1244
-1239
-1240
-1240
-1240
-1239
-1240
-1244
-1240
-1241
-1245
-1242
-1240
-1239
-1240
-1241
-1241
-1241
-1239
-1237
-1239
-1238
-1239
-1238
-1240
-1239
-1240
-1238
-1237
-1237
-1237
-1236
-1238
-1237
-1241
-1238
-1240
-1235
-1239
-1240
-1238
-1237
-1238
-1237
-1238
-1238
-1242
-1237
-1238
-1238
-1238
-1237
-1237
-1238
-1236
-1235
-1239
-1230
-1232
-1227
-1222
-1216
-1214
-1216
-1216
-1213
-1214
-1213
-1216
-1218
-1226
-1228
-1232
-1232
-1235
-1237
-1239
-1240
-1239
-1238
-1240
-1240
-1240
-1235
-1241
-1250
-1257
-1265
-1269
-1262
-1243
-1207
-1164
-1120
-1088
-1073
-1062
-1045
-1024
-1005
-988
-982
-1025
-1094
-1152
-1187
-1208
-1225
-1236
-1246
-1252
-1259
-1263
-1266
-1266
-1268
-1268
-1268
-1269
-1273
-1272
-1273
-1270
-1272
-1276
-1275
-1274
-1273
-1275
-1276
-1274
-1276
-1272
-1274
-1275
-1274
-1274
-1274
-1272
-1272
-1274
-1279
-1271
-1274
-1275
-1276
-1273
-1273
-1275
-1274
-1272
-1272
-1270
-1267
-1265
-1266
-1259
-1256
-1250
-1244
-1240
-1234
-1230
-1227
-1221
-1220
-1218
-1219
-1216
-1218
-1220
-1219
-1222
-1225
-1226
-1230
-1232
-1234
-1233
-1238
-1243
-1241
-1243
-1245
-1247
-1246
-1248
-1250
-1252
-1251
-1254
-1251
-1254
-1254
-1257
-1256
-1255
-1256
-1256
-1258
-1258
-1258
-1259
-1259
-1259
-1258
-1261
-1258
-1259
-1259
-1259
-1259
-1257
-1255
-1258
-1258
-1261
-1252
-1255
-1255
-1254
-1254
-1254
-1253
-1252
-1251
-1257
-1248
-1250
-1250
-1253
-1249
-1249
-1251
-1252
-1251
-1251
-1252
-1252
-1250
-1252
-1250
-1253
-1253
-1252
-1251
-1250
-1252
-1253
-1250
-1252
-1252
-1253
-1250
-1252
-1256
-1253
-1253
-1250
-1250
-1249
-1249
-1247
-1240
-1233
-1232
-1226
-1228
-1228
-1227
-1228
-1230
-1230
-1231
-1236
-1244
-1246
-1248
-1250
-1254
-1252
-1254
-1253
-1253
-1253
-1254
-1254
-1256
-1254
-1262
-1269
-1278
-1278
-1277
-1264
-1240
-1203
-1160
-1120
-1088
-1069
-1068
-1054
-1036
-1020
-1004
-994
-1018
-1085
-1148
-1188
-1218
-1227
-1243
-1249
-1259
-1267
-1274
-1276
-1278
-1280
-1282
-1282
-1282
-1280
-1284
-1281
-1280
-1281
-1279
-1280
-1280
-1283
-1282
-1281
-1281
-1282
-1284
-1280
-1282
-1282
-1278
-1281
-1282
-1281
-1280
-1278
-1281
-1276
-1279
-1281
-1277
-1277
-1277
-1277
-1274
-1272
-1272
-1268
-1264
-1261
-1254
-1250
-1244
-1243
-1241
-1236
-1232
-1228
-1226
-1221
-1219
-1219
-1218
-1220
-1221
-1224
-1222
-1226
-1229
-1230
-1232
-1234
-1236
-1241
-1243
-1247
-1240
-1246
-1249
-1247
-1248
-1248
-1247
-1248
-1250
-1255
-1246
-1250
-1250
-1254
-1252
-1250
-1252
-1251
-1252
-1252
-1251
-1251
-1251
-1252
-1252
-1251
-1248
-1247
-1250
-1248
-1248
-1250
-1249
-1248
-1248
-1250
-1248
-1248
-1248
-1245
-1245
-1245
-1243
-1243
-1243
-1247
-1242
-1242
-1248
-1244
-1245
-1245
-1244
-1244
-1243
-1243
-1242
-1244
-1246
-1241
-1243
-1243
-1246
-1245
-1243
-1242
-1242
-1242
-1242
-1243
-1244
-1240
-1245
-1242
-1243
-1239
-1243
-1243
-1242
-1241
-1238
-1237
-1240
-1239
-1240
-1227
-1225
-1220
-1216
-1216
-1217
-1217
-1213
-1213
-1219
-1213
-1219
-1224
-1232
-1233
-1234
-1236
-1240
-1240
-1242
-1240
-1239
-1239
-1243
-1243
-1245
-1242
-1243
-1254
-1261
-1268
-1271
-1266
-1247
-1214
-1171
-1128
-1093
-1075
-1064
-1044
-1024
-1002
-986
-995
-1057
-1122
-1171
-1202
-1217
-1230
-1240
-1249
-1255
-1259
-1262
-1262
-1265
-1269
-1263
-1268
-1269
-1272
-1268
-1268
-1270
-1270
-1271
-1272
-1270
-1269
-1268
-1272
-1272
-1274
-1268
-1271
-1273
-1272
-1274
-1273
-1272
-1272
-1273
-1276
-1271
-1273
-1275
-1272
-1271
-1272
-1272
-1270
-1265
-1267
-1258
-1259
-1254
-1253
-1249
-1244
-1240
-1235
-1230
-1227
-1224
-1220
-1216
-1218
-1216
-1217
-1216
-1217
-1219
-1220
-1222
-1225
-1226
-1229
-1230
-1234
-1229
-1234
-1238
-1237
-1237
-1238
-1240
-1241
-1241
-1242
-1241
-1242
-1243
-1243
-1245
-1245
-1244
-1244
-1245
-1246
-1246
-1248
-1252
-1248
-1250
-1248
-1250
-1248
-1248
-1248
-1249
-1250
-1249
-1250
-1248
-1246
-1248
-1248
-1251
-1248
-1248
-1248
-1247
-1248
-1246
-1243
-1246
-1246
-1250
-1243
-1246
-1245
-1242
-1242
-1244
-1246
-1246
-1244
-1248
-1241
-1243
-1243
-1246
-1242
-1242
-1242
-1241
-1242
-1244
-1242
-1242
-1242
-1244
-1244
-1245
-1244
-1243
-1244
-1243
-1242
-1242
-1240
-1242
-1241
-1242
-1240
-1242
-1243
-1238
-1237
-1238
-1236
-1229
-1224
-1219
-1214
-1212
-1214
-1208
-1210
-1210
-1212
-1212
-1213
-1217
-1221
-1228
-1235
-1232
-1235
-1234
-1240
-1238
-1239
-1239
-1239
-1238
-1238
-1238
-1244
-1250
-1260
-1263
-1268
-1256
-1233
-1195
-1148
-1109
-1082
-1069
-1059
-1034
-1017
-992
-992
-1042
-1114
-1167
-1198
-1220
-1234
-1244
-1255
-1253
-1263
-1265
-1268
-1268
-1272
-1274
-1272
-1270
-1272
-1272
-1273
-1274
-1276
-1272
-1274
-1275
-1276
-1276
-1276
-1274
-1274
-1272
-1275
-1274
-1276
-1276
-1275
-1278
-1275
-1276
-1278
-1276
-1277
-1274
-1276
-1276
-1275
-1278
-1274
-1274
-1272
-1272
-1271
-1268
-1266
-1261
-1258
-1259
-1248
-1246
-1242
-1240
-1236
-1231
-1227
-1224
-1221
-1220
-1219
-1221
-1220
-1222
-1222
-1228
-1229
-1230
-1232
-1232
-1234
-1235
-1238
-1242
-1244
-1246
-1240
-1244
-1246
-1246
-1247
-1248
-1251
-1250
-1251
-1255
-1247
-1252
-1252
-1253
-1253
-1253
-1253
-1252
-1254
-1255
-1253
-1253
-1254
-1253
-1253
-1252
-1252
-1250
-1252
-1252
-1252
-1250
-1248
-1248
-1248
-1247
-1248
-1248
-1250
-1245
-1246
-1248
-1244
-1243
-1244
-1245
-1243
-1245
-1249
-1243
-1244
-1243
-1244
-1242
-1242
-1244
-1244
-1244
-1246
-1242
-1241
-1239
-1243
-1242
-1241
-1240
-1241
-1242
-1241
-1240
-1242
-1241
-1244
-1242
-1244
-1242
-1245
-1244
-1242
-1241
-1242
-1240
-1241
-1240
-1242
-1232
-1229
-1224
-1219
-1220
-1220
-1218
-1216
-1217
-1220
-1215
-1222
-1229
-1233
-1233
-1238
-1242
-1240
-1240
-1241
-1240
-1240
-1242
-1245
-1243
-1248
-1258
-1265
-1266
-1256
-1237
-1204
-1158
-1115
-1078
-1059
-1049
-1038
-1020
-1001
-989
-987
-1020
-1088
-1146
-1184
-1210
-1228
-1240
-1245
-1255
-1263
-1266
-1267
-1270
-1275
-1276
-1275
-1276
-1272
-1273
-1272
-1276
-1274
-1276
-1278
-1278
-1275
-1274
-1274
-1276
-1274
-1279
-1275
-1276
-1274
-1276
-1276
-1276
-1278
-1276
-1275
-1277
-1277
-1279
-1272
-1276
-1278
-1275
-1273
-1274
-1274
-1272
-1267
-1269
-1262
-1262
-1259
-1258
-1252
-1248
-1246
-1242
-1236
-1232
-1226
-1222
-1222
-1221
-1218
-1218
-1218
-1219
-1220
-1222
-1225
-1229
-1230
-1234
-1237
-1237
-1240
-1240
-1244
-1243
-1244
-1246
-1245
-1246
-1246
-1246
-1247
-1248
-1250
-1245
-1246
-1248
-1248
-1250
-1252
-1251
-1250
-1248
-1252
-1247
-1251
-1250
-1253
-1248
-1249
-1248
-1248
-1249
-1247
-1248
-1248
-1243
-1245
-1246
-1246
-1242
-1245
-1244
-1242
-1243
-1243
-1240
-1242
-1240
-1242
-1236
-1240
-1242
-1239
-1238
-1238
-1240
-1241
-1239
-1240
-1234
-1238
-1238
-1239
-1237
-1237
-1240
-1239
-1237
-1237
-1235
-1236
-1235
-1234
-1235
-1236
-1236
-1234
-1234
-1234
-1233
-1234
-1234
-1235
-1235
-1232
-1232
-1231
-1233
-1227
-1225
-1224
-1219
-1212
-1208
-1207
-1208
-1206
-1207
-1203
-1207
-1211
-1217
-1220
-1224
-1227
-1229
-1230
-1234
-1229
-1232
-1230
-1234
-1233
-1234
-1233
-1234
-1240
-1252
-1258
-1262
-1253
-1240
-1208
-1171
-1130
-1098
-1074
-1063
-1054
-1034
-1013
-995
-979
-990
-1038
-1106
-1158
-1190
-1210
-1226
-1235
-1242
-1250
-1258
-1258
-1266
-1266
-1267
-1268
-1270
-1272
-1272
-1272
-1274
-1273
-1272
-1273
-1274
-1274
-1272
-1274
-1276
-1274
-1272
-1273
-1274
-1273
-1274
-1274
-1271
-1272
-1272
-1274
-1272
-1274
-1274
-1275
-1277
-1274
-1276
-1278
-1277
-1278
-1272
-1271
-1269
-1266
-1262
-1261
-1258
-1253
-1246
-1245
-1235
-1233
-1228
-1228
-1222
-1219
-1217
-1216
-1218
-1218
-1218
-1219
-1220
-1224
-1226
-1230
-1229
-1232
-1234
-1234
-1236
-1240
-1239
-1242
-1242
-1243
-1240
-1243
-1244
-1243
-1243
-1245
-1247
-1244
-1245
-1248
-1241
-1244
-1246
-1246
-1246
-1246
-1247
-1248
-1247
-1246
-1246
-1249
-1251
-1248
-1249
-1249
-1248
-1245
-1246
-1246
-1245
-1246
-1244
-1244
-1244
-1244
-1243
-1244
-1248
-1246
-1246
-1248
-1245
-1245
-1246
-1245
-1245
-1246
-1250
-1246
-1247
-1246
-1248
-1248
-1249
-1251
-1249
-1250
-1252
-1247
-1248
-1247
-1250
-1247
-1248
-1248
-1248
-1248
-1248
-1248
-1248
-1247
-1251
-1248
-1249
-1246
-1248
-1249
-1248
-1248
-1246
-1244
-1243
-1240
-1239
-1228
-1225
-1225
-1224
-1225
-1224
-1222
-1222
-1222
-1230
-1228
-1235
-1238
-1240
-1242
-1245
-1248
-1246
-1246
-1248
-1248
-1248
-1248
-1248
-1249
-1250
-1257
-1264
-1271
-1273
-1270
-1255
-1229
-1187
-1147
-1110
-1081
-1066
-1064
-1045
-1024
-1009
-994
-996
-1042
-1112
-1167
-1203
-1229
-1236
-1250
-1259
-1266
-1271
-1275
-1280
-1280
-1281
-1287
-1280
-1282
-1283
-1288
-1284
-1284
-1285
-1286
-1287
-1286
-1287
-1288
-1286
-1289
-1286
-1287
-1284
-1288
-1288
-1286
-1288
-1287
-1283
-1286
-1287
-1289
-1283
-1286
-1285
-1284
-1285
-1284
-1282
-1278
-1277
-1278
-1270
-1269
-1264
-1263
-1260
-1256
-1251
-1246
-1242
-1238
-1235
-1232
-1230
-1229
-1229
-1227
-1229
-1228
-1230
-1232
-1234
-1237
-1240
-1240
-1242
-1245
-1248
-1248
-1250
-1249
-1250
-1250
-1251
-1254
-1253
-1253
-1254
-1254
-1256
-1250
-1254
-1256
-1254
-1255
-1256
-1256
-1257
-1256
-1259
-1253
-1255
-1254
-1255
-1253
-1253
-1255
-1254
-1254
-1253
-1253
-1252
-1249
-1253
-1253
-1255
-1249
-1250
-1252
-1248
-1249
-1248
-1246
-1246
-1248
-1252
-1246
-1247
-1248
-1247
-1248
-1246
-1247
-1249
-1248
-1248
-1242
-1245
-1247
-1245
-1245
-1245
-1246
-1243
-1244
-1246
-1243
-1244
-1245
-1243
-1242
-1243
-1242
-1240
-1242
-1240
-1240
-1241
-1239
-1239
-1238
-1237
-1237
-1237
-1242
-1237
-1238
-1232
-1225
-1221
-1216
-1216
-1214
-1212
-1215
-1210
-1212
-1213
-1213
-1214
-1220
-1230
-1232
-1232
-1236
-1230
-1237
-1235
-1240
-1240
-1240
-1238
-1237
-1238
-1240
-1240
-1248
-1255
-1266
-1263
-1254
-1227
-1192
-1150
-1110
-1080
-1066
-1056
-1036
-1014
-996
-976
-996
-1060
-1120
-1167
-1197
-1217
-1230
-1238
-1250
-1248
-1256
-1261
-1265
-1264
-1267
-1268
-1268
-1270
-1270
-1268
-1270
-1272
-1272
-1270
-1270
-1274
-1274
-1274
-1274
-1276
-1276
-1274
-1273
-1274
-1275
-1273
-1274
-1276
-1274
-1272
-1274
-1273
-1277
-1276
-1275
-1276
-1275
-1277
-1270
-1270
-1269
-1268
-1266
-1262
-1258
-1253
-1249
-1252
-1241
-1240
-1234
-1235
-1228
-1222
-1220
-1218
-1218
-1216
-1218
-1217
-1215
-1220
-1220
-1222
-1222
-1226
-1228
-1230
-1232
-1235
-1236
-1240
-1242
-1242
-1237
-1240
-1243
-1241
-1242
-1242
-1242
-1242
-1243
-1248
-1243
-1246
-1248
-1247
-1249
-1248
-1247
-1246
-1247
-1246
-1247
-1248
-1248
-1249
-1246
-1245
-1247
-1246
-1246
-1247
-1248
-1250
-1246
-1245
-1246
-1243
-1243
-1244
-1246
-1243
-1244
-1246
-1244
-1243
-1244
-1242
-1245
-1243
-1248
-1239
-1242
-1243
-1245
-1245
-1243
-1242
-1241
-1242
-1245
-1239
-1242
-1240
-1242
-1240
-1243
-1243
-1240
-1240
-1239
-1240
-1242
-1238
-1240
-1237
-1240
-1237
-1238
-1238
-1237
-1236
-1234
-1230
-1233
-1232
-1234
-1229
-1226
-1222
-1213
-1211
-1211
-1211
-1210
-1210
-1213
-1210
-1216
-1218
-1227
-1229
-1232
-1234
-1237
-1240
-1242
-1242
-1240
-1242
-1240
-1242
-1242
-1245
-1248
-1259
-1267
-1272
-1268
-1248
-1212
-1168
-1128
-1099
-1078
-1068
-1042
-1021
-1002
-994
-1032
-1103
-1160
-1195
-1218
-1236
-1242
-1252
-1260
-1267
-1270
-1272
-1275
-1278
-1280
-1284
-1278
-1281
-1278
-1284
-1283
-1284
-1283
-1280
-1281
-1281
-1282
-1283
-1282
-1282
-1280
-1282
-1281
-1282
-1284
-1284
-1285
-1284
-1284
-1286
-1286
-1288
-1282
-1284
-1287
-1286
-1287
-1288
-1286
-1286
-1284
-1287
-1280
-1280
-1276
-1273
-1268
-1262
-1260
-1255
-1250
-1246
-1243
-1240
-1239
-1232
-1232
-1231
-1232
-1230
-1231
-1231
-1232
-1236
-1236
-1237
-1238
-1240
-1246
-1246
-1249
-1246
-1250
-1252
-1250
-1251
-1252
-1253
-1255
-1255
-1259
-1253
-1254
-1254
-1255
-1254
-1255
-1258
-1259
-1259
-1261
-1255
-1259
-1257
-1259
-1256
-1255
-1258
-1258
-1259
-1258
-1254
-1252
-1251
-1255
-1252
-1252
-1252
-1251
-1251
-1248
-1250
-1253
-1249
-1250
-1248
-1252
-1247
-1248
-1251
-1250
-1250
-1252
-1250
-1250
-1250
-1250
-1248
-1248
-1249
-1246
-1248
-1247
-1248
-1247
-1248
-1248
-1246
-1244
-1247
-1246
-1249
-1247
-1247
-1244
-1246
-1244
-1243
-1244
-1243
-1239
-1240
-1240
-1242
-1236
-1233
-1225
-1221
-1220
-1219
-1217
-1216
-1217
-1218
-1219
-1222
-1222
-1229
-1234
-1236
-1234
-1236
-1238
-1238
-1239
-1242
-1235
-1238
-1236
-1243
-1250
-1261
-1264
-1259
-1245
-1215
-1172
-1130
-1090
-1064
-1048
-1043
-1024
-1004
-989
-978
-996
-1059
-1122
-1167
-1200
-1222
-1230
-1239
-1249
-1255
-1261
-1265
-1266
-1268
-1267
-1268
-1263
-1268
-1270
-1267
-1267
-1268
-1268
-1267
-1271
-1272
-1271
-1271
-1270
-1266
-1268
-1268
-1268
-1266
-1267
-1267
-1267
-1267
-1267
-1268
-1269
-1268
-1269
-1268
-1271
-1267
-1268
-1267
-1264
-1264
-1264
-1262
-1260
-1256
-1257
-1250
-1250
-1249
-1245
-1240
-1235
-1233
-1227
-1223
-1222
-1213
-1213
-1211
-1215
-1213
-1213
-1216
-1219
-1222
-1224
-1226
-1228
-1230
-1236
-1238
-1241
-1240
-1241
-1244
-1244
-1244
-1245
-1246
-1249
-1247
-1248
-1244
-1245
-1248
-1245
-1246
-1248
-1249
-1250
-1252
-1252
-1246
-1246
-1248
-1248
-1248
-1247
-1248
-1248
-1246
-1246
-1246
-1248
-1250
-1248
-1246
-1244
-1244
-1242
-1243
-1242
-1242
-1242
-1242
-1242
-1241
-1239
-1243
-1242
-1244
-1240
-1240
-1242
-1242
-1242
-1244
-1240
-1241
-1239
-1243
-1239
-1240
-1241
-1242
-1242
-1241
-1240
-1240
-1241
-1245
-1238
-1240
-1240
-1242
-1239
-1240
-1239
-1238
-1238
-1237
-1236
-1235
-1227
-1226
-1220
-1215
-1212
-1214
-1216
-1213
-1214
-1216
-1217
-1221
-1227
-1234
-1232
-1236
-1240
-1239
-1241
-1240
-1239
-1238
-1240
-1242
-1236
-1241
-1251
-1259
-1266
-1270
-1261
-1239
-1206
-1165
-1126
-1093
-1074
-1063
-1047
-1025
-1006
-987
-978
-999
-1061
-1128
-1171
-1197
-1218
-1230
-1239
-1244
-1252
-1255
-1260
-1262
-1264
-1266
-1268
-1268
-1268
-1267
-1271
-1267
-1269
-1270
-1270
-1271
-1270
-1270
-1270
-1273
-1277
-1268
-1272
-1270
-1273
-1270
-1273
-1272
-1271
-1273
-1273
-1272
-1274
-1273
-1275
-1272
-1273
-1276
-1275
-1274
-1272
-1269
-1269
-1268
-1267
-1264
-1262
-1252
-1248
-1246
-1240
-1236
-1232
-1226
-1221
-1218
-1219
-1215
-1214
-1216
-1214
-1216
-1218
-1222
-1222
-1222
-1226
-1227
-1229
-1232
-1233
-1232
-1232
-1236
-1237
-1239
-1237
-1238
-1238
-1238
-1239
-1239
-1238
-1243
-1240
-1242
-1239
-1242
-1243
-1242
-1242
-1243
-1244
-1246
-1243
-1247
-1240
-1243
-1245
-1243
-1242
-1243
-1243
-1242
-1243
-1246
-1240
-1242
-1243
-1244
-1242
-1241
-1243
-1242
-1242
-1241
-1241
-1241
-1239
-1243
-1243
-1243
-1242
-1243
-1243
-1242
-1243
-1245
-1243
-1243
-1243
-1245
-1244
-1244
-1243
-1240
-1243
-1244
-1243
-1244
-1243
-1243
-1238
-1242
-1243
-1240
-1240
-1240
-1238
-1239
-1240
-1236
-1230
-1226
-1222
-1214
-1214
-1214
-1214
-1214
-1217
-1218
-1217
-1220
-1225
-1230
-1236
-1236
-1242
-1240
-1243
-1240
-1241
-1241
-1243
-1242
-1242
-1241
-1245
-1253
-1266
-1266
-1270
-1269
-1252
-1222
-1184
-1141
-1102
-1070
-1063
-1051
-1036
-1016
-1003
-987
-995
-1051
-1122
-1171
-1200
-1218
-1233
-1241
-1252
-1259
-1264
-1269
-1272
-1275
-1276
-1276
-1276
-1280
-1280
-1278
-1280
-1276
-1278
-1281
-1277
-1278
-1281
-1280
-1278
-1279
-1283
-1278
-1280
-1283
-1281
-1281
-1284
-1282
-1280
-1282
-1284
-1284
-1284
-1288
-1283
-1286
-1283
-1284
-1282
-1281
-1278
-1274
-1273
-1270
-1266
-1261
-1256
-1254
-1249
-1247
-1240
-1238
-1236
-1232
-1232
-1229
-1228
-1229
-1227
-1232
-1228
-1232
-1234
-1235
-1237
-1240
-1242
-1245
-1244
-1249
-1242
-1246
-1246
-1251
-1248
-1247
-1249
-1248
-1247
-1248
-1249
-1250
-1246
-1248
-1248
-1251
-1250
-1248
-1251
-1252
-1252
-1250
-1250
-1250
-1248
-1250
-1248
-1248
-1252
-1247
-1246
-1247
-1245
-1245
-1248
-1247
-1244
-1242
-1245
-1244
-1244
-1244
-1244
-1242
-1243
-1244
-1244
-1244
-1248
-1243
-1246
-1244
-1246
-1243
-1243
-1242
-1243
-1245
-1243
-1243
-1243
-1243
-1246
-1244
-1246
-1243
-1244
-1244
-1242
-1240
-1240
-1240
-1243
-1240
-1243
-1237
-1239
-1240
-1239
-1238
-1236
-1231
-1226
-1222
-1222
-1214
-1214
-1212
-1213
-1214
-1216
-1215
-1217
-1222
-1227
-1232
-1233
-1232
-1238
-1238
-1242
-1240
-1239
-1239
-1237
-1237
-1238
-1239
-1241
-1246
-1255
-1261
-1264
-1267
-1253
-1228
-1190
-1146
-1109
-1080
-1064
-1057
-1040
-1022
-999
-984
-984
-1032
-1101
-1155
-1190
-1213
-1229
-1241
-1246
-1255
-1263
-1268
-1269
-1272
-1272
-1271
-1275
-1276
-1276
-1275
-1274
-1280
-1278
-1279
-1275
-1277
-1280
-1276
-1275
-1275
-1275
-1278
-1277
-1282
-1273
-1274
-1277
-1280
-1278
-1281
-1282
-1280
-1282
-1287
-1278
-1280
-1279
-1281
-1280
-1280
-1278
-1272
-1270
-1264
-1259
-1256
-1252
-1248
-1243
-1240
-1234
-1230
-1227
-1225
-1222
-1222
-1222
-1222
-1224
-1227
-1226
-1228
-1232
-1230
-1233
-1238
-1240
-1241
-1242
-1245
-1244
-1247
-1248
-1247
-1248
-1251
-1253
-1253
-1253
-1252
-1251
-1252
-1254
-1251
-1253
-1253
-1255
-1254
-1256
-1256
-1255
-1256
-1254
-1257
-1257
-1254
-1258
-1256
-1256
-1253
-1254
-1256
-1255
-1255
-1255
-1252
-1254
-1251
-1255
-1249
-1251
-1249
-1248
-1248
-1250
-1249
-1249
-1248
-1252
-1245
-1248
-1248
-1248
-1246
-1246
-1248
-1250
-1248
-1246
-1246
-1245
-1244
-1247
-1245
-1243
-1242
-1242
-1244
-1241
-1243
-1243
-1243
-1242
-1239
-1239
-1237
-1237
-1236
-1228
-1226
-1222
-1217
-1216
-1217
-1218
-1212
-1214
-1218
-1214
-1216
-1222
-1228
-1232
-1233
-1236
-1237
-1238
-1241
-1236
-1240
-1242
-1244
-1241
-1241
-1240
-1242
-1248
-1257
-1264
-1268
-1261
-1249
-1215
-1171
-1128
-1096
-1075
-1066
-1051
-1029
-1007
-991
-995
-1056
-1120
-1170
-1202
-1221
-1234
-1244
-1254
-1260
-1264
-1270
-1267
-1272
-1271
-1273
-1272
-1274
-1275
-1275
-1274
-1272
-1274
-1273
-1276
-1277
-1277
-1278
-1277
-1275
-1278
-1277
-1278
-1278
-1275
-1276
-1276
-1278
-1278
-1280
-1282
-1279
-1280
-1281
-1282
-1283
-1280
-1282
-1279
-1277
-1278
-1273
-1272
-1272
-1270
-1264
-1259
-1256
-1250
-1246
-1247
-1238
-1236
-1232
-1232
-1228
-1227
-1224
-1225
-1226
-1226
-1228
-1230
-1234
-1236
-1234
-1238
-1237
-1240
-1241
-1241
-1243
-1244
-1246
-1248
-1247
-1251
-1245
-1250
-1251
-1251
-1251
-1253
-1253
-1252
-1252
-1256
-1249
-1251
-1253
-1256
-1254
-1252
-1253
-1252
-1252
-1252
-1252
-1251
-1250
-1253
-1251
-1251
-1251
-1251
-1251
-1248
-1250
-1250
-1249
-1251
-1248
-1251
-1248
-1248
-1249
-1246
-1247
-1250
-1251
-1251
-1250
-1249
-1247
-1248
-1252
-1249
-1249
-1249
-1250
-1250
-1250
-1250
-1249
-1248
-1251
-1248
-1246
-1244
-1246
-1244
-1244
-1246
-1245
-1245
-1243
-1242
-1240
-1237
-1240
-1234
-1235
-1229
-1222
-1222
-1221
-1221
-1221
-1221
-1221
-1220
-1228
-1227
-1235
-1238
-1238
-1240
-1241
-1243
-1243
-1244
-1247
-1239
-1240
-1242
-1245
-1246
-1252
-1259
-1264
-1264
-1252
-1221
-1180
-1133
-1093
-1060
-1050
-1042
-1021
-1004
-987
-989
-1035
-1104
-1156
-1191
-1214
-1229
-1239
-1251
-1254
-1262
-1267
-1267
-1270
-1272
-1275
-1272
-1273
-1274
-1271
-1274
-1274
-1276
-1273
-1272
-1275
-1275
-1273
-1274
-1268
-1269
-1270
-1274
-1275
-1277
-1274
-1272
-1272
-1271
-1272
-1272
-1272
-1276
-1272
-1274
-1272
-1271
-1271
-1269
-1270
-1270
-1267
-1266
-1260
-1259
-1250
-1249
-1248
-1243
-1240
-1236
-1232
-1229
-1226
-1226
-1218
-1220
-1219
-1220
-1218
-1222
-1222
-1222
-1224
-1226
-1228
-1230
-1232
-1235
-1236
-1240
-1241
-1240
-1242
-1243
-1243
-1243
-1243
-1246
-1246
-1247
-1244
-1245
-1247
-1246
-1246
-1250
-1249
-1248
-1247
-1247
-1244
-1245
-1248
-1245
-1246
-1246
-1247
-1248
-1248
-1246
-1245
-1244
-1248
-1244
-1244
-1243
-1244
-1242
-1242
-1242
-1240
-1242
-1242
-1242
-1240
-1240
-1243
-1242
-1243
-1240
-1241
-1242
-1239
-1241
-1239
-1240
-1243
-1240
-1243
-1237
-1237
-1240
-1240
-1240
-1238
-1237
-1237
-1236
-1239
-1233
-1237
-1237
-1236
-1233
-1234
-1234
-1233
-1232
-1229
-1225
-1218
-1214
-1214
-1212
-1212
-1213
-1212
-1214
-1212
-1214
-1222
-1226
-1228
-1231
-1236
-1236
-1238
-1239
-1234
-1237
-1236
-1237
-1238
-1239
-1243
-1249
-1257
-1266
-1260
-1244
-1212
-1166
-1125
-1088
-1068
-1057
-1038
-1018
-993
-979
-1000
-1068
-1130
-1173
-1200
-1217
-1230
-1239
-1246
-1253
-1258
-1266
-1265
-1268
-1264
-1266
-1269
-1268
-1268
-1269
-1268
-1270
-1269
-1272
-1266
-1269
-1269
-1266
-1268
-1271
-1271
-1271
-1270
-1274
-1266
-1268
-1267
-1270
-1268
-1269
-1270
-1271
-1272
-1270
-1268
-1270
-1272
-1272
-1269
-1269
-1271
-1269
-1269
-1265
-1262
-1259
-1256
-1255
-1250
-1248
-1240
-1237
-1234
-1227
-1225
-1222
-1218
-1217
-1214
-1215
-1215
-1217
-1220
-1218
-1221
-1225
-1226
-1227
-1230
-1232
-1234
-1237
-1242
-1237
-1240
-1240
-1244
-1242
-1242
-1243
-1244
-1245
-1245
-1245
-1243
-1243
-1246
-1243
-1246
-1243
-1243
-1246
-1244
-1244
-1243
-1243
-1246
-1243
-1246
-1240
-1243
-1243
-1240
-1240
-1242
-1242
-1241
-1241
-1243
-1237
-1240
-1242
-1244
-1242
-1243
-1244
-1243
-1244
-1243
-1242
-1241
-1240
-1242
-1242
-1241
-1241
-1240
-1240
-1240
-1241
-1241
-1240
-1240
-1240
-1242
-1241
-1240
-1243
-1239
-1240
-1240
-1239
-1236
-1237
-1238
-1235
-1229
-1228
-1220
-1216
-1216
-1216
-1215
-1215
-1216
-1218
-1218
-1220
-1222
-1229
-1236
-1237
-1238
-1240
-1240
-1240
-1242
-1244
-1242
-1242
-1240
-1248
-1253
-1264
-1267
-1270
-1260
-1233
-1195
-1149
-1109
-1082
-1067
-1061
-1035
-1016
-1000
-984
-997
-1057
-1125
-1172
-1201
-1222
-1229
-1240
-1250
-1257
-1262
-1266
-1268
-1268
-1269
-1269
-1269
-1270
-1270
-1272
-1273
-1274
-1275
-1275
-1274
-1274
-1275
-1275
-1275
-1276
-1275
-1277
-1277
-1276
-1278
-1275
-1276
-1276
-1277
-1280
-1278
-1278
-1282
-1281
-1283
-1278
-1280
-1282
-1282
-1280
-1282
-1281
-1279
-1276
-1276
-1266
-1266
-1261
-1262
-1256
-1252
-1245
-1243
-1240
-1237
-1233
-1230
-1227
-1228
-1227
-1230
-1229
-1231
-1234
-1233
-1235
-1237
-1239
-1241
-1242
-1246
-1243
-1246
-1248
-1247
-1248
-1250
-1249
-1251
-1252
-1256
-1248
-1250
-1250
-1252
-1253
-1254
-1252
-1251
-1252
-1252
-1251
-1252
-1252
-1253
-1251
-1251
-1252
-1252
-1252
-1250
-1249
-1250
-1248
-1248
-1248
-1248
-1246
-1246
-1250
-1247
-1247
-1248
-1246
-1246
-1248
-1248
-1246
-1247
-1248
-1244
-1246
-1248
-1250
-1248
-1245
-1246
-1248
-1247
-1250
-1244
-1246
-1245
-1246
-1244
-1245
-1244
-1246
-1245
-1242
-1242
-1241
-1239
-1242
-1240
-1240
-1230
-1228
-1224
-1218
-1218
-1216
-1214
-1216
-1215
-1220
-1216
-1222
-1229
-1231
-1235
-1237
-1239
-1238
-1238
-1243
-1237
-1239
-1240
-1238
-1241
-1250
-1257
-1261
-1259
-1250
-1224
-1184
-1142
-1104
-1068
-1048
-1044
-1030
-1011
-995
-983
-995
-1051
-1115
-1164
-1195
-1213
-1224
-1237
-1243
-1250
-1256
-1259
-1264
-1275
-1271
-1269
-1269
-1271
-1266
-1267
-1269
-1269
-1272
-1273
-1273
-1271
-1270
-1276
-1268
-1272
-1272
-1275
-1274
-1274
-1274
-1274
-1274
-1272
-1272
-1274
-1274
-1278
-1276
-1277
-1275
-1277
-1277
-1276
-1274
-1272
-1272
-1275
-1273
-1272
-1263
-1261
-1260
-1255
-1251
-1248
-1244
-1240
-1236
-1235
-1227
-1226
-1222
-1221
-1223
-1222
-1222
-1224
-1227
-1229
-1230
-1233
-1237
-1238
-1239
-1240
-1243
-1243
-1245
-1245
-1246
-1248
-1249
-1250
-1248
-1248
-1251
-1251
-1253
-1246
-1248
-1252
-1250
-1250
-1249
-1251
-1250
-1250
-1252
-1246
-1250
-1252
-1251
-1251
-1250
-1249
-1248
-1246
-1250
-1241
-1244
-1243
-1245
-1242
-1242
-1243
-1243
-1243
-1242
-1243
-1243
-1242
-1245
-1243
-1245
-1242
-1241
-1242
-1242
-1240
-1240
-1240
-1243
-1240
-1246
-1241
-1242
-1242
-1240
-1242
-1241
-1240
-1241
-1240
-1242
-1237
-1240
-1242
-1239
-1236
-1236
-1237
-1235
-1230
-1227
-1222
-1220
-1217
-1216
-1214
-1215
-1214
-1216
-1220
-1221
-1227
-1232
-1234
-1237
-1239
-1243
-1241
-1242
-1243
-1240
-1240
-1242
-1243
-1249
-1258
-1265
-1268
-1262
-1252
-1219
-1179
-1137
-1099
-1075
-1067
-1055
-1033
-1015
-1000
-983
-1015
-1080
-1142
-1179
-1206
-1222
-1234
-1242
-1248
-1254
-1259
-1262
-1269
-1267
-1272
-1272
-1271
-1270
-1269
-1272
-1273
-1271
-1272
-1271
-1274
-1270
-1272
-1276
-1274
-1275
-1273
-1273
-1274
-1274
-1278
-1273
-1274
-1276
-1277
-1276
-1275
-1279
-1279
-1278
-1278
-1280
-1280
-1280
-1280
-1280
-1281
-1281
-1278
-1276
-1272
-1268
-1265
-1260
-1258
-1255
-1248
-1244
-1240
-1239
-1232
-1230
-1229
-1227
-1228
-1229
-1230
-1231
-1231
-1235
-1234
-1238
-1243
-1242
-1243
-1245
-1246
-1246
-1247
-1252
-1243
-1248
-1249
-1253
-1250
-1252
-1249
-1251
-1250
-1250
-1249
-1251
-1252
-1254
-1252
-1254
-1253
-1254
-1256
-1254
-1254
-1256
-1256
-1258
-1254
-1257
-1253
-1256
-1257
-1254
-1253
-1255
-1256
-1255
-1256
-1256
-1252
-1253
-1253
-1255
-1256
-1257
-1254
-1252
-1252
-1252
-1253
-1254
-1254
-1253
-1252
-1252
-1254
-1253
-1254
-1252
-1250
-1252
-1252
-1251
-1249
-1250
-1247
-1248
-1248
-1244
-1245
-1246
-1243
-1243
-1242
-1240
-1234
-1228
-1226
-1220
-1221
-1220
-1218
-1218
-1218
-1220
-1224
-1229
-1239
-1236
-1240
-1241
-1246
-1244
-1244
-1245
-1244
-1244
-1244
-1244
-1245
-1248
-1260
-1265
-1272
-1270
-1261
-1240
-1200
-1155
-1117
-1088
-1074
-1067
-1051
-1024
-1009
-994
-995
-1044
-1112
-1164
-1195
-1215
-1234
-1240
-1250
-1258
-1264
-1269
-1273
-1277
-1276
-1276
-1280
-1280
-1280
-1283
-1280
-1279
-1280
-1280
-1278
-1281
-1281
-1280
-1282
-1283
-1281
-1280
-1282
-1284
-1284
-1286
-1283
-1285
-1285
-1286
-1285
-1284
-1286
-1290
-1288
-1291
-1285
-1289
-1290
-1288
-1289
-1288
-1287
-1284
-1281
-1283
-1272
-1270
-1264
-1261
-1255
-1252
-1246
-1243
-1239
-1236
-1235
-1234
-1232
-1234
-1232
-1232
-1234
-1238
-1242
-1242
-1243
-1243
-1243
-1246
-1247
-1251
-1248
-1248
-1250
-1249
-1253
-1254
-1252
-1252
-1253
-1257
-1252
-1256
-1253
-1253
-1254
-1253
-1255
-1255
-1255
-1255
-1253
-1255
-1256
-1252
-1252
-1253
-1255
-1254
-1255
-1255
-1254
-1254
-1252
-1251
-1252
-1251
-1252
-1250
-1252
-1248
-1251
-1251
-1248
-1248
-1248
-1248
-1250
-1250
-1252
-1246
-1248
-1248
-1248
-1250
-1248
-1247
-1247
-1248
-1251
-1242
-1244
-1244
-1248
-1246
-1244
-1244
-1242
-1243
-1240
-1240
-1240
-1240
-1242
-1240
-1238
-1232
-1227
-1221
-1220
-1218
-1216
-1216
-1219
-1218
-1222
-1222
-1227
-1232
-1234
-1237
-1239
-1238
-1240
-1240
-1242
-1237
-1240
-1240
-1238
-1241
-1243
-1250
-1259
-1265
-1266
-1256
-1235
-1201
-1153
-1112
-1077
-1056
-1051
-1040
-1020
-1003
-991
-985
-1010
-1073
-1133
-1174
-1201
-1222
-1230
-1242
-1252
-1257
-1262
-1266
-1269
-1271
-1272
-1275
-1271
-1270
-1272
-1272
-1273
-1273
-1274
-1273
-1274
-1276
-1269
-1271
-1271
-1272
-1271
-1271
-1272
-1272
-1271
-1270
-1270
-1271
-1271
-1276
-1272
-1273
-1269
-1270
-1271
-1269
-1270
-1271
-1268
-1268
-1265
-1266
-1259
-1258
-1256
-1249
-1246
-1241
-1237
-1235
-1230
-1229
-1220
-1218
-1218
-1214
-1213
-1214
-1215
-1217
-1218
-1220
-1221
-1222
-1226
-1228
-1232
-1232
-1236
-1237
-1239
-1240
-1242
-1243
-1243
-1243
-1242
-1241
-1246
-1246
-1248
-1244
-1247
-1248
-1246
-1248
-1249
-1250
-1250
-1247
-1249
-1243
-1246
-1248
-1248
-1248
-1247
-1246
-1244
-1245
-1250
-1242
-1246
-1246
-1246
-1245
-1244
-1242
-1242
-1243
-1244
-1242
-1244
-1242
-1245
-1242
-1242
-1239
-1240
-1242
-1238
-1238
-1240
-1237
-1237
-1236
-1237
-1233
-1236
-1238
-1236
-1236
-1237
-1235
-1234
-1232
-1237
-1230
-1232
-1236
-1235
-1230
-1232
-1233
-1228
-1222
-1217
-1214
-1210
-1205
-1204
-1207
-1206
-1208
-1206
-1208
-1210
-1217
-1225
-1224
-1226
-1228
-1231
-1232
-1232
-1232
-1230
-1234
-1232
-1231
-1234
-1237
-1246
-1254
-1259
-1264
-1248
-1227
-1192
-1150
-1113
-1083
-1067
-1062
-1048
-1029
-1003
-989
-978
-1004
-1068
-1131
-1172
-1195
-1212
-1225
-1233
-1242
-1246
-1256
-1256
-1259
-1258
-1262
-1262
-1260
-1263
-1265
-1264
-1263
-1263
-1265
-1260
-1261
-1264
-1262
-1264
-1264
-1265
-1266
-1265
-1268
-1264
-1263
-1268
-1267
-1268
-1268
-1269
-1268
-1271
-1274
-1274
-1275
-1274
-1273
-1277
-1276
-1275
-1273
-1268
-1266
-1263
-1260
-1257
-1253
-1248
-1244
-1242
-1236
-1235
-1228
-1228
-1226
-1222
-1222
-1222
-1222
-1225
-1227
-1228
-1228
-1232
-1236
-1235
-1236
-1237
-1239
-1238
-1238
-1244
-1238
-1243
-1240
-1243
-1241
-1243
-1245
-1246
-1249
-1250
-1249
-1250
-1249
-1251
-1249
-1250
-1251
-1250
-1251
-1251
-1252
-1252
-1253
-1253
-1252
-1253
-1250
-1252
-1255
-1255
-1255
-1258
-1254
-1252
-1250
-1256
-1252
-1252
-1253
-1251
-1250
-1250
-1252
-1251
-1248
-1248
-1248
-1248
-1248
-1247
-1249
-1248
-1246
-1244
-1247
-1248
-1248
-1246
-1244
-1244
-1244
-1243
-1245
-1242
-1243
-1240
-1240
-1236
-1229
-1224
-1220
-1219
-1220
-1216
-1218
-1214
-1220
-1223
-1226
-1229
-1232
-1235
-1238
-1240
-1246
-1241
-1245
-1242
-1244
-1242
-1242
-1244
-1246
-1248
-1253
-1260
-1265
-1266
-1269
-1258
-1234
-1194
-1152
-1114
-1079
-1060
-1056
-1045
-1028
-1012
-1002
-992
-1025
-1091
-1148
-1189
-1216
-1233
-1244
-1253
-1261
-1266
-1275
-1280
-1278
-1279
-1282
-1283
-1282
-1283
-1284
-1280
-1280
-1284
-1282
-1283
-1280
-1281
-1280
-1280
-1280
-1280
-1280
-1279
-1278
-1278
-1279
-1284
-1280
-1283
-1279
-1282
-1283
-1282
-1284
-1283
-1281
-1282
-1280
-1284
-1276
-1277
-1276
-1270
-1266
-1264
-1262
-1256
-1251
-1252
-1240
-1238
-1234
-1232
-1229
-1227
-1226
-1224
-1224
-1225
-1226
-1228
-1228
-1233
-1235
-1239
-1237
-1239
-1242
-1243
-1245
-1246
-1246
-1248
-1249
-1251
-1249
-1251
-1253
-1248
-1249
-1250
-1252
-1251
-1250
-1253
-1251
-1252
-1254
-1251
-1249
-1248
-1250
-1251
-1251
-1250
-1250
-1250
-1253
-1251
-1249
-1250
-1250
-1247
-1249
-1248
-1248
-1248
-1246
-1246
-1246
-1242
-1246
-1245
-1247
-1241
-1242
-1246
-1245
-1245
-1245
-1244
-1245
-1243
-1246
-1240
-1242
-1242
-1239
-1240
-1240
-1241
-1240
-1240
-1243
-1233
-1237
-1237
-1240
-1235
-1230
-1228
-1224
-1219
-1217
-1216
-1214
-1212
-1217
-1216
-1220
-1219
-1224
-1230
-1234
-1236
-1240
-1241
-1243
-1242
-1244
-1239
-1242
-1242
-1240
-1242
-1245
-1252
-1261
-1267
-1270
-1259
-1243
-1214
-1173
-1134
-1099
-1073
-1064
-1053
-1032
-1013
-997
-984
-992
-1052
-1115
-1165
-1195
-1217
-1229
-1236
-1246
-1251
-1256
-1260
-1262
-1267
-1266
-1268
-1266
-1267
-1270
-1269
-1270
-1270
-1269
-1269
-1269
-1272
-1267
-1268
-1269
-1268
-1266
-1265
-1268
-1269
-1270
-1270
-1264
-1270
-1269
-1272
-1270
-1269
-1270
-1270
-1271
-1270
-1270
-1269
-1268
-1269
-1263
-1260
-1257
-1256
-1254
-1248
-1244
-1242
-1236
-1233
-1229
-1226
-1221
-1218
-1217
-1214
-1214
-1214
-1214
-1216
-1219
-1224
-1220
-1226
-1232
-1230
-1233
-1235
-1238
-1240
-1240
-1240
-1242
-1244
-1248
-1243
-1245
-1244
-1250
-1248
-1249
-1249
-1249
-1250
-1248
-1248
-1250
-1250
-1253
-1251
-1253
-1250
-1249
-1250
-1251
-1250
-1250
-1251
-1252
-1251
-1253
-1245
-1248
-1251
-1249
-1247
-1248
-1250
-1251
-1250
-1254
-1243
-1246
-1247
-1250
-1246
-1249
-1248
-1246
-1246
-1247
-1246
-1248
-1246
-1248
-1246
-1246
-1246
-1246
-1246
-1243
-1244
-1242
-1242
-1243
-1243
-1242
-1238
-1241
-1242
-1239
-1236
-1232
-1228
-1220
-1214
-1216
-1213
-1212
-1213
-1210
-1212
-1214
-1216
-1220
-1224
-1230
-1231
-1232
-1237
-1233
-1232
-1232
-1234
-1231
-1230
-1231
-1232
-1234
-1236
-1244
-1253
-1259
-1262
-1252
-1233
-1196
-1157
-1122
-1086
-1066
-1058
-1046
-1029
-1010
-997
-979
-995
-1049
-1112
-1160
-1192
-1212
-1226
-1236
-1250
-1248
-1258
-1262
-1267
-1269
-1270
-1272
-1273
-1274
-1275
-1277
-1277
-1274
-1277
-1277
-1278
-1279
-1279
-1278
-1278
-1281
-1282
-1280
-1279
-1280
-1282
-1281
-1283
-1285
-1284
-1284
-1285
-1285
-1285
-1286
-1289
-1284
-1284
-1286
-1281
-1283
-1281
-1278
-1276
-1272
-1268
-1264
-1260
-1258
-1248
-1246
-1241
-1240
-1236
-1233
-1232
-1230
-1230
-1230
-1232
-1233
-1235
-1240
-1241
-1244
-1240
-1244
-1248
-1250
-1253
-1256
-1256
-1258
-1258
-1259
-1253
-1258
-1262
-1259
-1260
-1260
-1260
-1260
-1260
-1265
-1256
-1261
-1260
-1264
-1262
-1265
-1265
-1264
-1264
-1264
-1265
-1265
-1262
-1264
-1262
-1262
-1262
-1262
-1264
-1263
-1262
-1261
-1260
-1261
-1261
-1264
-1259
-1261
-1262
-1258
-1260
-1259
-1257
-1258
-1258
-1259
-1256
-1256
-1260
-1258
-1256
-1256
-1256
-1256
-1256
-1254
-1253
-1252
-1256
-1250
-1251
-1252
-1255
-1251
-1250
-1250
-1252
-1251
-1248
-1242
-1238
-1231
-1228
-1227
-1228
-1222
-1226
-1228
-1229
-1229
-1229
-1235
-1242
-1243
-1246
-1243
-1246
-1248
-1247
-1247
-1249
-1248
-1248
-1247
-1250
-1242
-1252
-1260
-1270
-1273
-1274
-1268
-1251
-1217
-1173
-1128
-1089
-1066
-1065
-1054
-1036
-1018
-1004
-994
-1016
-1083
-1147
-1186
-1213
-1228
-1243
-1248
-1259
-1268
-1270
-1274
-1275
-1277
-1280
-1282
-1283
-1282
-1283
-1285
-1280
-1284
-1285
-1284
-1280
-1280
-1282
-1280
-1282
-1285
-1279
-1284
-1283
-1286
-1282
-1283
-1284
-1285
-1284
-1283
-1282
-1282
-1282
-1285
-1282
-1282
-1279
-1280
-1278
-1276
-1274
-1272
-1267
-1264
-1259
-1258
-1245
-1242
-1238
-1233
-1229
-1227
-1224
-1221
-1221
-1224
-1218
-1221
-1222
-1229
-1229
-1231
-1235
-1234
-1235
-1241
-1242
-1242
-1242
-1246
-1246
-1246
-1248
-1250
-1251
-1249
-1250
-1252
-1252
-1252
-1253
-1254
-1252
-1252
-1254
-1251
-1251
-1252
-1253
-1254
-1255
-1257
-1255
-1253
-1255
-1252
-1252
-1254
-1253
-1250
-1248
-1250
-1250
-1251
-1255
-1248
-1248
-1247
-1251
-1246
-1248
-1246
-1244
-1246
-1246
-1246
-1245
-1243
-1245
-1243
-1246
-1242
-1244
-1243
-1242
-1242
-1241
-1241
-1241
-1240
-1241
-1236
-1239
-1239
-1236
-1236
-1234
-1236
-1235
-1232
-1234
-1227
-1229
-1228
-1229
-1222
-1217
-1213
-1209
-1207
-1205
-1206
-1205
-1206
-1210
-1207
-1211
-1214
-1218
-1225
-1228
-1228
-1230
-1232
-1235
-1235
-1235
-1232
-1234
-1236
-1234
-1237
-1243
-1250
-1259
-1265
-1264
-1252
-1229
-1195
-1148
-1112
-1082
-1069
-1060
-1042
-1021
-1003
-985
-995
-1044
-1114
-1162
-1200
-1219
-1233
