-792
-795
-794
-794
-792
-789
-786
-782
-777
-771
-768
-768
-765
-761
-755
-753
-749
-747
-745
-744
-743
-739
-737
-735
-738
-737
-737
-735
-736
-737
-736
-734
-731
-728
-725
-723
-721
-720
-717
-715
-716
-714
-713
-712
-712
-712
-711
-711
-712
-713
-713
-714
-714
-715
-714
-714
-717
-717
-719
-717
-717
-718
-719
-719
-720
-721
-721
-720
-721
-723
-725
-721
-712
-704
-701
-702
-706
-715
-719
-726
-730
-733
-737
-736
-739
-739
-739
-740
-739
-738
-738
-738
-735
-734
-734
-735
-736
-739
-744
-743
-718
-649
-589
-558
-542
-539
-538
-548
-571
-631
-732
-827
-880
-905
-919
-921
-916
-910
-904
-898
-887
-880
-871
-862
-854
-843
-833
-823
-816
-807
-800
-794
-787
-782
-775
-773
-769
-765
-758
-755
-751
-746
-743
-737
-735
-732
-728
-726
-723
-724
-721
-718
-716
-714
-709
-705
-699
-693
-687
-682
-676
-674
-670
-667
-664
-662
-661
-660
-665
-673
-681
-691
-703
-715
-723
-730
-738
-744
-750
-753
-757
-761
-761
-761
-759
-759
-759
-757
-756
-753
-752
-750
-748
-746
-745
-743
-741
-741
-739
-738
-736
-734
-733
-734
-733
-733
-734
-734
-734
-735
-734
-734
-734
-733
-735
-735
-733
-732
-732
-733
-733
-733
-734
-735
-736
-738
-740
-739
-741
-740
-741
-744
-747
-747
-745
-750
-748
-748
-748
-748
-749
-746
-745
-746
-747
-746
-744
-744
-743
-745
-745
-744
-742
-733
-726
-724
-726
-729
-734
-739
-744
-748
-749
-752
-752
-753
-752
-752
-751
-750
-750
-748
-748
-746
-744
-742
-740
-743
-745
-751
-741
-697
-624
-579
-558
-548
-550
-555
-572
-625
-714
-810
-877
-911
-928
-934
-931
-926
-920
-913
-903
-895
-886
-876
-867
-859
-851
-842
-831
-825
-816
-808
-800
-792
-786
-779
-774
-771
-766
-761
-756
-752
-749
-744
-740
-739
-733
-731
-728
-726
-723
-721
-718
-715
-712
-709
-702
-698
-692
-689
-682
-680
-677
-675
-672
-670
-671
-671
-676
-685
-698
-708
-718
-726
-735
-744
-751
-757
-762
-765
-766
-765
-768
-765
-767
-765
-762
-761
-759
-756
-752
-751
-748
-744
-742
-739
-737
-733
-732
-729
-726
-724
-723
-724
-722
-721
-720
-720
-718
-716
-714
-714
-714
-712
-712
-712
-713
-713
-712
-713
-712
-712
-712
-711
-711
-712
-711
-711
-713
-714
-714
-716
-719
-721
-721
-725
-726
-728
-728
-726
-728
-727
-729
-729
-730
-732
-732
-732
-733
-735
-734
-731
-725
-724
-723
-724
-728
-732
-735
-737
-739
-739
-741
-744
-743
-743
-743
-742
-741
-741
-741
-739
-739
-739
-739
-738
-739
-739
-735
-710
-645
-593
-564
-551
-548
-555
-580
-683
-778
-840
-881
-901
-908
-909
-903
-894
-885
-880
-873
-866
-860
-851
-844
-837
-829
-822
-815
-809
-800
-793
-786
-779
-774
-770
-766
-762
-758
-755
-752
-751
-746
-743
-742
-741
-739
-735
-735
-734
-730
-727
-725
-723
-716
-712
-708
-703
-696
-690
-686
-681
-679
-676
-675
-674
-676
-680
-684
-695
-705
-718
-730
-743
-753
-762
-772
-780
-787
-789
-793
-796
-795
-795
-791
-791
-788
-783
-778
-773
-773
-769
-765
-762
-759
-755
-750
-748
-744
-742
-739
-738
-738
-738
-736
-734
-737
-737
-735
-735
-735
-734
-732
-734
-735
-734
-732
-732
-730
-729
-730
-729
-728
-728
-730
-728
-728
-730
-728
-728
-730
-731
-732
-730
-730
-728
-730
-729
-728
-728
-728
-728
-728
-730
-728
-729
-728
-728
-728
-725
-720
-716
-716
-716
-718
-725
-730
-733
-733
-737
-738
-737
-736
-737
-736
-733
-733
-732
-731
-730
-729
-728
-726
-730
-730
-733
-733
-725
-679
-613
-573
-553
-546
-548
-559
-605
-728
-809
-860
-894
-906
-910
-907
-899
-889
-880
-876
-869
-862
-853
-846
-838
-829
-820
-813
-806
-799
-792
-786
-781
-775
-768
-764
-760
-757
-753
-750
-745
-741
-737
-734
-731
-728
-723
-721
-717
-716
-713
-710
-708
-707
-703
-696
-694
-688
-681
-673
-669
-663
-658
-657
-654
-655
-656
-660
-666
-676
-686
-696
-710
-724
-736
-744
-752
-762
-768
-775
-779
-782
-784
-784
-783
-780
-780
-777
-774
-772
-768
-764
-759
-756
-752
-749
-743
-741
-739
-735
-733
-730
-729
-729
-728
-726
-726
-729
-728
-730
-731
-732
-733
-733
-735
-734
-735
-733
-733
-732
-730
-731
-732
-733
-732
-730
-730
-729
-730
-728
-726
-725
-723
-723
-720
-722
-721
-722
-720
-721
-722
-723
-725
-726
-728
-728
-730
-728
-726
-726
-728
-729
-729
-724
-715
-711
-714
-717
-721
-726
-732
-738
-739
-745
-748
-750
-750
-750
-750
-748
-750
-750
-751
-751
-750
-748
-746
-748
-748
-753
-755
-743
-690
-618
-580
-562
-557
-557
-565
-584
-656
-755
-841
-894
-919
-930
-932
-923
-918
-910
-903
-896
-887
-878
-866
-862
-853
-844
-836
-829
-822
-814
-806
-800
-795
-789
-784
-780
-775
-770
-764
-761
-758
-755
-750
-746
-743
-739
-738
-733
-732
-730
-726
-723
-720
-716
-710
-703
-696
-689
-681
-673
-667
-662
-661
-657
-655
-656
-658
-663
-669
-683
-695
-708
-722
-736
-750
-757
-766
-774
-780
-784
-787
-788
-789
-788
-786
-784
-782
-780
-777
-774
-771
-768
-764
-759
-756
-753
-748
-746
-743
-741
-736
-735
-733
-733
-732
-730
-732
-731
-732
-731
-733
-734
-735
-735
-735
-736
-736
-737
-738
-739
-739
-739
-739
-740
-740
-739
-738
-738
-736
-735
-734
-736
-735
-732
-733
-734
-733
-730
-730
-728
-728
-726
-725
-723
-721
-723
-721
-721
-720
-719
-717
-713
-715
-714
-714
-713
-713
-713
-710
-714
-715
-715
-710
-698
-690
-685
-688
-690
-698
-706
-712
-717
-723
-727
-729
-732
-734
-736
-735
-734
-736
-735
-737
-737
-737
-737
-738
-739
-743
-753
-755
-732
-661
-598
-564
-545
-543
-546
-557
-580
-649
-740
-825
-877
-903
-916
-918
-912
-904
-898
-894
-883
-874
-865
-858
-850
-841
-831
-822
-815
-807
-799
-794
-788
-782
-777
-772
-768
-764
-758
-755
-750
-744
-740
-738
-734
-730
-727
-725
-721
-720
-717
-714
-711
-707
-701
-694
-689
-681
-673
-666
-662
-660
-654
-652
-653
-655
-656
-660
-667
-676
-688
-701
-713
-726
-737
-748
-758
-765
-772
-777
-779
-783
-786
-786
-786
-786
-784
-782
-779
-777
-773
-769
-766
-764
-761
-757
-753
-751
-751
-748
-746
-746
-744
-743
-741
-742
-744
-743
-743
-746
-747
-748
-750
-751
-754
-755
-755
-759
-761
-761
-758
-759
-759
-759
-759
-755
-757
-757
-757
-756
-756
-757
-754
-752
-752
-751
-750
-748
-746
-744
-743
-743
-740
-738
-737
-735
-731
-732
-730
-728
-726
-726
-726
-725
-723
-723
-725
-725
-725
-727
-729
-729
-727
-728
-729
-728
-723
-724
-724
-725
-726
-723
-715
-699
-696
-697
-698
-706
-711
-721
-730
-735
-739
-744
-748
-748
-746
-746
-748
-748
-745
-745
-744
-746
-745
-748
-750
-760
-771
-768
-732
-648
-590
-561
-548
-546
-548
-561
-589
-640
-715
-800
-855
-892
-915
-917
-914
-912
-908
-901
-893
-883
-874
-865
-856
-846
-836
-827
-816
-809
-802
-791
-784
-778
-774
-768
-762
-758
-752
-746
-741
-736
-732
-726
-722
-720
-719
-717
-716
-713
-712
-707
-699
-694
-685
-679
-675
-669
-662
-652
-649
-645
-644
-638
-635
-638
-641
-645
-647
-658
-671
-682
-692
-703
-716
-728
-742
-751
-757
-760
-764
-766
-766
-772
-777
-779
-775
-771
-769
-764
-764
-761
-761
-757
-753
-750
-746
-744
-743
-745
-748
-746
-743
-741
-743
-744
-747
-750
-752
-753
-753
-752
-750
-750
-746
-748
-750
-750
-750
-746
-741
-741
-747
-748
-750
-753
-749
-750
-751
-752
-748
-743
-739
-732
-731
-728
-724
-721
-723
-724
-722
-723
-723
-724
-724
-723
-723
-723
-725
-725
-723
-725
-726
-727
-727
-728
-726
-732
-734
-736
-738
-739
-737
-733
-732
-726
-716
-698
-685
-685
-690
-694
-699
-707
-712
-717
-720
-720
-722
-728
-735
-735
-734
-734
-733
-738
-739
-733
-734
-741
-743
-746
-762
-759
-716
-647
-598
-575
-564
-564
-570
-588
-640
-723
-782
-831
-887
-920
-930
-928
-914
-909
-907
-901
-891
-886
-878
-872
-867
-853
-838
-834
-830
-820
-809
-803
-794
-788
-776
-770
-771
-770
-766
-760
-759
-754
-742
-733
-730
-735
-734
-733
-728
-721
-717
-713
-707
-696
-690
-682
-680
-674
-660
-655
-656
-654
-645
-644
-642
-644
-649
-651
-656
-668
-677
-688
-701
-716
-728
-747
-760
-766
-782
-796
-798
-800
-802
-804
-807
-804
-804
-799
-794
-789
-791
-788
-779
-773
-772
-765
-760
-756
-757
-760
-758
-754
-750
-753
-753
-750
-752
-761
-768
-769
-770
-772
-770
-768
-769
-768
-769
-772
-770
-768
-769
-773
-771
-771
-767
-766
-764
-766
-768
-760
-764
-769
-768
-768
-767
-766
-763
-762
-758
-756
-757
-752
-753
-759
-758
-750
-746
-746
-754
-753
-746
-744
-741
-743
-739
-737
-737
-730
-710
-701
-706
-711
-716
-720
-724
-730
-733
-738
-739
-743
-743
-744
-743
-741
-741
-736
-733
-730
-728
-726
-727
-732
-748
-768
-766
-711
-627
-577
-553
-544
-546
-553
-574
-638
-718
-780
-833
-872
-882
-887
-871
-848
-829
-819
-816
-809
-804
-797
-788
-782
-774
-769
-761
-756
-753
-748
-743
-738
-736
-731
-728
-725
-723
-720
-717
-716
-716
-713
-711
-708
-707
-703
-701
-698
-697
-696
-692
-688
-680
-676
-669
-661
-653
-648
-644
-641
-643
-644
-648
-652
-659
-666
-675
-685
-698
-712
-727
-740
-755
-769
-782
-793
-804
-813
-819
-824
-825
-827
-827
-827
-825
-822
-818
-810
-807
-800
-794
-788
-781
-774
-767
-762
-757
-753
-747
-745
-743
-739
-738
-736
-734
-733
-734
-735
-734
-736
-737
-742
-744
-745
-748
-748
-750
-751
-752
-754
-753
-755
-753
-757
-756
-756
-757
-757
-759
-756
-757
-757
-758
-756
-755
-757
-755
-756
-753
-753
-753
-753
-750
-743
-744
-743
-744
-743
-738
-729
-712
-710
-710
-715
-721
-730
-739
-746
-748
-750
-753
-755
-753
-753
-753
-752
-748
-748
-746
-744
-741
-739
-739
-741
-744
-757
-763
-744
-680
-621
-589
-575
-571
-575
-591
-640
-740
-801
-847
-883
-895
-895
-882
-853
-825
-810
-802
-798
-792
-786
-779
-773
-766
-759
-755
-750
-745
-740
-734
-728
-725
-725
-718
-716
-714
-710
-707
-706
-703
-701
-698
-697
-696
-694
-690
-688
-685
-684
-681
-677
-673
-669
-662
-653
-649
-643
-641
-640
-641
-644
-649
-655
-661
-669
-675
-683
-694
-706
-718
-731
-744
-758
-770
-780
-791
-800
-806
-813
-816
-822
-824
-823
-823
-823
-820
-816
-812
-807
-803
-797
-791
-784
-777
-774
-767
-761
-758
-753
-750
-744
-744
-742
-740
-739
-739
-737
-737
-739
-739
-741
-743
-743
-746
-746
-750
-750
-752
-752
-752
-751
-750
-753
-753
-752
-753
-753
-754
-753
-753
-753
-753
-753
-753
-755
-754
-752
-750
-751
-750
-748
-744
-741
-742
-739
-741
-730
-720
-706
-701
-701
-707
-716
-724
-731
-737
-744
-748
-748
-750
-750
-750
-748
-746
-745
-743
-741
-738
-739
-738
-736
-736
-743
-761
-771
-757
-689
-625
-589
-571
-567
-572
-585
-615
-675
-732
-792
-848
-874
-888
-883
-862
-841
-831
-827
-820
-813
-807
-800
-792
-786
-782
-775
-771
-764
-759
-753
-748
-742
-739
-735
-732
-729
-726
-725
-721
-719
-716
-714
-712
-710
-708
-706
-703
-700
-697
-696
-690
-686
-681
-675
-669
-660
-653
-649
-645
-644
-644
-647
-650
-654
-661
-669
-678
-687
-699
-713
-727
-741
-754
-766
-779
-791
-801
-810
-818
-822
-825
-827
-830
-830
-829
-828
-825
-822
-815
-812
-808
-804
-799
-792
-788
-782
-780
-772
-768
-766
-761
-758
-753
-753
-753
-751
-750
-753
-754
-751
-755
-757
-759
-761
-762
-764
-765
-766
-765
-765
-766
-767
-767
-766
-766
-766
-765
-766
-768
-768
-767
-766
-766
-768
-767
-765
-764
-764
-762
-759
-756
-753
-752
-751
-751
-748
-736
-723
-710
-710
-712
-716
-723
-732
-740
-743
-748
-751
-753
-752
-750
-750
-748
-746
-743
-743
-740
-737
-736
-733
-736
-738
-748
-764
-760
-716
-641
-595
-573
-564
-566
-575
-595
-648
-715
-774
-835
-873
-889
-890
-876
-853
-833
-827
-821
-814
-809
-800
-791
-786
-779
-770
-764
-758
-753
-748
-743
-740
-734
-730
-726
-725
-721
-718
-717
-712
-711
-708
-706
-703
-701
-698
-690
-690
-687
-686
-683
-678
-671
-665
-656
-646
-640
-633
-626
-623
-624
-624
-624
-626
-631
-639
-645
-656
-668
-680
-698
-716
-733
-748
-762
-773
-784
-794
-802
-809
-815
-820
-823
-822
-823
-822
-820
-815
-809
-805
-799
-794
-786
-780
-774
-767
-761
-755
-751
-746
-743
-739
-735
-733
-730
-729
-730
-732
-732
-733
-735
-739
-741
-743
-746
-748
-750
-752
-753
-755
-755
-756
-756
-758
-759
-759
-759
-760
-761
-761
-761
-762
-762
-761
-759
-761
-761
-761
-760
-757
-754
-750
-750
-751
-748
-739
-726
-715
-711
-714
-717
-726
-736
-744
-750
-753
-759
-759
-760
-759
-759
-756
-752
-751
-749
-748
-744
-743
-743
-743
-746
-764
-777
-765
-702
-633
-593
-575
-570
-573
-583
-614
-691
-756
-814
-867
-896
-907
-905
-887
-863
-846
-838
-833
-827
-819
-811
-804
-798
-790
-784
-779
-772
-766
-759
-755
-750
-746
-741
-737
-735
-732
-730
-726
-725
-723
-717
-716
-713
-714
-712
-708
-707
-705
-701
-696
-692
-689
-681
-672
-663
-655
-646
-642
-636
-636
-636
-639
-642
-649
-656
-661
-673
-685
-701
-716
-732
-749
-761
-777
-789
-801
-810
-818
-823
-826
-829
-833
-833
-834
-833
-832
-827
-824
-818
-811
-805
-800
-793
-786
-779
-771
-767
-760
-755
-750
-746
-744
-740
-738
-737
-736
-735
-736
-738
-738
-741
-743
-745
-746
-748
-748
-750
-751
-752
-753
-755
-756
-755
-755
-756
-755
-755
-755
-755
-755
-755
-753
-752
-753
-753
-753
-753
-752
-750
-744
-744
-744
-745
-741
-733
-720
-707
-705
-706
-713
-722
-729
-737
-741
-746
-750
-750
-750
-750
-750
-747
-744
-741
-742
-738
-737
-735
-734
-733
-735
-748
-771
-779
-733
-646
-589
-562
-549
-547
-555
-568
-609
-684
-759
-832
-873
-894
-901
-891
-865
-845
-838
-830
-823
-815
-807
-799
-791
-783
-774
-770
-762
-755
-750
-743
-738
-730
-728
-723
-721
-717
-714
-711
-708
-705
-701
-701
-699
-697
-695
-692
-692
-688
-685
-683
-678
-673
-666
-660
-652
-645
-636
-630
-627
-624
-622
-620
-624
-628
-633
-640
-651
-663
-676
-692
-710
-727
-743
-758
-771
-784
-795
-804
-811
-815
-818
-820
-820
-820
-819
-818
-816
-814
-811
-806
-802
-798
-793
-788
-782
-779
-772
-767
-762
-759
-756
-751
-750
-746
-745
-743
-742
-741
-740
-740
-738
-739
-740
-741
-743
-745
-744
-746
-748
-750
-752
-752
-753
-755
-755
-757
-757
-757
-759
-759
-759
-757
-759
-759
-759
-761
-761
-761
-759
-760
-759
-756
-753
-753
-755
-752
-748
-738
-724
-714
-714
-719
-724
-735
-743
-750
-755
-760
-764
-762
-765
-764
-765
-763
-761
-759
-756
-755
-752
-752
-750
-750
-751
-764
-789
-791
-739
-656
-602
-575
-563
-563
-570
-588
-639
-719
-789
-858
-896
-908
-916
-903
-878
-859
-851
-846
-838
-829
-822
-814
-806
-798
-791
-784
-778
-769
-762
-758
-752
-746
-741
-737
-733
-728
-725
-724
-721
-719
-716
-713
-712
-708
-706
-704
-701
-699
-695
-692
-689
-684
-676
-669
-660
-652
-643
-635
-633
-630
-629
-631
-634
-638
-643
-650
-660
-672
-686
-702
-720
-736
-750
-765
-778
-789
-799
-806
-809
-816
-819
-819
-820
-820
-819
-816
-813
-810
-806
-802
-797
-792
-787
-780
-775
-771
-767
-762
-758
-755
-752
-748
-745
-744
-743
-740
-739
-740
-740
-739
-738
-739
-741
-741
-741
-743
-743
-743
-744
-746
-748
-748
-750
-750
-748
-750
-750
-750
-752
-752
-750
-746
-748
-748
-749
-749
-748
-748
-744
-747
-748
-746
-743
-739
-739
-737
-738
-731
-723
-708
-699
-698
-701
-709
-716
-725
-732
-737
-743
-746
-747
-745
-748
-746
-744
-743
-741
-740
-735
-737
-733
-735
-734
-737
-750
-766
-766
-717
-639
-589
-564
-553
-554
-562
-584
-646
-728
-793
-853
-887
-904
-907
-892
-867
-851
-843
-836
-827
-820
-813
-804
-796
-791
-782
-774
-766
-761
-753
-750
-744
-741
-735
-732
-730
-726
-723
-719
-718
-717
-716
-714
-709
-707
-705
-703
-701
-698
-697
-694
-687
-681
-675
-666
-656
-650
-643
-640
-636
-635
-635
-636
-639
-643
-651
-660
-672
-687
-701
-718
-734
-750
-764
-779
-791
-801
-810
-818
-823
-827
-829
-831
-828
-827
-824
-822
-818
-812
-806
-801
-797
-790
-785
-779
-774
-769
-763
-761
-758
-755
-753
-750
-749
-745
-746
-746
-750
-751
-750
-751
-752
-755
-755
-756
-758
-757
-757
-755
-758
-760
-759
-760
-762
-762
-762
-764
-764
-764
-762
-762
-762
-763
-763
-761
-761
-763
-763
-760
-758
-761
-761
-760
-755
-753
-751
-750
-751
-746
-739
-725
-712
-710
-710
-715
-721
-733
-741
-745
-750
-754
-755
-754
-753
-752
-751
-750
-748
-745
-745
-743
-739
-738
-739
-743
-758
-768
-755
-689
-619
-580
-563
-558
-560
-571
-608
-708
-779
-831
-876
-898
-901
-895
-874
-848
-833
-825
-819
-812
-804
-796
-788
-784
-776
-770
-763
-756
-751
-743
-740
-736
-732
-728
-723
-723
-718
-715
-712
-711
-708
-705
-703
-701
-699
-694
-694
-693
-689
-686
-681
-677
-671
-665
-656
-648
-640
-634
-630
-627
-627
-629
-631
-634
-641
-650
-658
-671
-686
-705
-721
-737
-755
-769
-782
-791
-803
-812
-816
-822
-824
-827
-825
-824
-821
-817
-813
-807
-802
-795
-789
-783
-778
-771
-764
-759
-752
-751
-748
-744
-743
-743
-743
-741
-741
-741
-744
-743
-745
-746
-748
-748
-748
-750
-751
-753
-754
-755
-755
-753
-755
-755
-755
-757
-755
-756
-753
-755
-753
-755
-756
-755
-752
-752
-753
-753
-752
-753
-753
-751
-748
-750
-750
-748
-741
-741
-741
-741
-740
-732
-721
-706
-701
-702
-707
-715
-724
-732
-738
-742
-745
-746
-749
-749
-748
-747
-748
-746
-743
-743
-741
-741
-739
-739
-743
-755
-781
-789
-748
-665
-607
-575
-561
-561
-565
-581
-628
-704
-779
-848
-887
-904
-910
-894
-869
-853
-842
-839
-831
-823
-815
-809
-800
-791
-788
-782
-775
-768
-763
-759
-751
-748
-743
-741
-737
-733
-730
-726
-725
-722
-722
-720
-717
-714
-710
-710
-706
-704
-701
-698
-696
-687
-685
-677
-671
-662
-655
-651
-645
-645
-645
-647
-650
-654
-660
-669
-679
-689
-703
-718
-734
-748
-763
-777
-787
-798
-806
-813
-819
-824
-825
-825
-827
-825
-824
-822
-820
-816
-811
-806
-803
-798
-791
-787
-782
-778
-771
-766
-764
-759
-757
-755
-754
-753
-750
-751
-751
-751
-750
-752
-751
-750
-752
-751
-752
-755
-754
-753
-753
-754
-752
-753
-753
-753
-753
-753
-752
-752
-754
-753
-752
-752
-752
-751
-750
-750
-750
-750
-748
-746
-748
-747
-744
-741
-738
-735
-735
-735
-731
-721
-703
-693
-692
-698
-705
-714
-722
-728
-733
-737
-743
-742
-743
-743
-744
-743
-740
-739
-738
-735
-733
-730
-728
-730
-735
-752
-770
-765
-698
-624
-578
-557
-548
-549
-557
-585
-656
-730
-798
-856
-882
-892
-892
-871
-845
-831
-823
-817
-810
-803
-796
-786
-782
-774
-767
-760
-755
-750
-741
-735
-731
-726
-721
-718
-716
-714
-711
-707
-706
-703
-701
-699
-696
-694
-689
-689
-685
-685
-681
-677
-673
-669
-665
-657
-649
-643
-636
-633
-630
-630
-631
-633
-635
-639
-642
-652
-660
-672
-687
-703
-717
-734
-750
-764
-776
-787
-797
-804
-810
-813
-816
-817
-816
-815
-814
-811
-809
-805
-798
-795
-789
-786
-780
-775
-770
-766
-761
-757
-755
-751
-750
-748
-744
-745
-744
-743
-744
-744
-745
-746
-748
-747
-748
-750
-751
-750
-751
-753
-753
-755
-755
-757
-756
-755
-757
-756
-757
-756
-755
-755
-754
-753
-753
-755
-753
-755
-755
-755
-755
-756
-757
-757
-757
-753
-749
-750
-750
-750
-742
-734
-718
-708
-707
-712
-719
-728
-734
-743
-746
-751
-753
-756
-757
-756
-755
-753
-753
-751
-751
-748
-748
-745
-743
-746
-750
-764
-775
-765
-701
-630
-593
-572
-567
-570
-580
-607
-686
-765
-823
-874
-903
-914
-912
-894
-871
-854
-847
-843
-834
-827
-819
-810
-800
-795
-788
-782
-774
-769
-763
-756
-751
-746
-743
-740
-736
-731
-726
-726
-723
-721
-719
-716
-712
-709
-708
-706
-705
-701
-698
-694
-687
-681
-672
-667
-660
-651
-644
-641
-636
-634
-634
-637
-640
-645
-650
-660
-672
-685
-701
-719
-736
-751
-766
-780
-792
-802
-810
-816
-820
-824
-827
-827
-824
-822
-817
-813
-806
-801
-793
-786
-783
-775
-770
-765
-760
-757
-753
-748
-746
-745
-743
-741
-743
-743
-741
-740
-741
-743
-743
-744
-744
-745
-744
-747
-750
-751
-751
-750
-751
-751
-752
-750
-751
-751
-752
-752
-751
-750
-749
-748
-748
-747
-746
-746
-746
-745
-745
-743
-745
-746
-743
-739
-734
-735
-737
-735
-728
-717
-701
-694
-694
-697
-707
-717
-723
-728
-732
-741
-741
-742
-743
-743
-741
-738
-737
-735
-735
-734
-732
-731
-730
-732
-738
-756
-757
-723
-647
-593
-566
-553
-553
-559
-577
-635
-740
-800
-850
-889
-900
-904
-892
-868
-846
-833
-829
-820
-814
-806
-798
-791
-781
-777
-769
-764
-757
-751
-744
-739
-734
-731
-728
-724
-719
-717
-716
-714
-710
-708
-707
-706
-703
-699
-699
-698
-694
-690
-687
-683
-678
-672
-666
-660
-651
-644
-640
-635
-635
-636
-640
-643
-647
-654
-660
-669
-682
-698
-713
-730
-745
-760
-774
-787
-799
-807
-815
-824
-828
-831
-832
-833
-833
-831
-827
-822
-818
-811
-804
-798
-791
-786
-777
-775
-770
-766
-762
-760
-757
-755
-754
-753
-755
-755
-756
-757
-756
-760
-760
-762
-762
-764
-765
-764
-768
-769
-770
-768
-770
-769
-768
-770
-770
-771
-771
-769
-769
-770
-769
-768
-767
-768
-769
-766
-767
-765
-764
-765
-764
-762
-757
-755
-754
-755
-753
-745
-732
-717
-711
-712
-717
-725
-733
-743
-748
-752
-757
-759
-757
-755
-756
-755
-752
-750
-750
-747
-743
-741
-739
-741
-741
-752
-777
-786
-744
-657
-598
-568
-557
-555
-562
-580
-636
-719
-793
-859
-889
-901
-903
-885
-858
-842
-835
-828
-820
-811
-801
-795
-787
-780
-772
-768
-760
-751
-746
-741
-737
-732
-728
-724
-721
-717
-712
-710
-707
-705
-703
-701
-699
-695
-694
-691
-690
-687
-682
-680
-677
-672
-663
-658
-650
-644
-635
-633
-631
-629
-628
-629
-633
-638
-643
-651
-662
-678
-692
-708
-725
-742
-755
-766
-779
-791
-799
-805
-811
-815
-814
-818
-816
-815
-814
-810
-807
-801
-798
-792
-786
-782
-776
-770
-762
-761
-756
-751
-748
-744
-741
-738
-736
-734
-733
-733
-733
-734
-734
-735
-734
-739
-740
-741
-743
-743
-744
-744
-748
-747
-749
-749
-748
-748
-748
-750
-748
-750
-752
-752
-750
-748
-750
-752
-751
-750
-751
-751
-749
-747
-745
-743
-741
-742
-741
-733
-723
-705
-701
-701
-707
-714
-722
-732
-737
-743
-746
-750
-750
-748
-747
-746
-744
-742
-741
-739
-738
-735
-734
-735
-737
-746
-766
-774
-734
-652
-597
-568
-559
-557
-564
-585
-651
-735
-801
-861
-889
-901
-902
-882
-856
-843
-836
-831
-824
-816
-808
-800
-793
-786
-779
-775
-768
-763
-758
-752
-746
-742
-736
-734
-728
-727
-723
-723
-723
-723
-718
-717
-717
-714
-710
-707
-706
-705
-699
-696
-693
-687
-681
-673
-667
-658
-654
-651
-649
-649
-650
-652
-654
-660
-665
-673
-682
-698
-713
-727
-744
-760
-775
-788
-799
-810
-818
-825
-829
-834
-836
-836
-834
-832
-831
-825
-822
-816
-814
-807
-802
-797
-791
-786
-780
-774
-771
-767
-762
-757
-756
-753
-750
-745
-746
-746
-744
-745
-748
-750
-750
-752
-753
-752
-755
-756
-757
-759
-758
-758
-761
-760
-757
-759
-759
-759
-759
-759
-757
-755
-756
-756
-758
-756
-755
-755
-755
-755
-750
-746
-746
-748
-747
-741
-733
-718
-707
-703
-706
-711
-719
-727
-734
-741
-745
-746
-748
-750
-749
-744
-743
-741
-740
-736
-734
-733
-731
-727
-728
-733
-748
-752
-726
-658
-601
-570
-557
-555
-561
-575
-624
-720
-783
-841
-880
-894
-897
-887
-867
-841
-830
-822
-816
-807
-799
-791
-782
-774
-768
-764
-757
-751
-746
-741
-732
-727
-724
-719
-716
-712
-710
-707
-704
-703
-702
-701
-698
-696
-694
-692
-690
-685
-681
-679
-675
-669
-661
-658
-651
-643
-634
-627
-624
-624
-624
-622
-624
-629
-633
-640
-649
-660
-674
-693
-710
-728
-745
-761
-774
-786
-799
-808
-814
-818
-821
-823
-823
-823
-818
-815
-812
-806
-800
-793
-788
-780
-772
-766
-761
-755
-748
-742
-740
-737
-733
-732
-732
-730
-730
-732
-735
-738
-739
-739
-739
-743
-744
-748
-750
-753
-755
-755
-757
-758
-758
-758
-759
-760
-759
-761
-759
-759
-759
-759
-758
-759
-759
-756
-755
-758
-757
-755
-750
-750
-748
-748
-750
-743
-736
-721
-712
-712
-715
-722
-729
-738
-743
-751
-755
-759
-759
-759
-756
-753
-755
-753
-750
-750
-749
-748
-744
-746
-747
-754
-772
-779
-756
-681
-621
-586
-572
-570
-575
-586
-620
-721
-795
-850
-894
-914
-919
-912
-895
-870
-853
-843
-837
-830
-820
-813
-805
-798
-792
-784
-778
-769
-766
-760
-755
-748
-746
-741
-737
-733
-730
-730
-727
-724
-723
-720
-717
-712
-712
-710
-708
-705
-702
-699
-696
-691
-684
-677
-669
-660
-653
-645
-640
-634
-632
-633
-634
-636
-640
-647
-654
-665
-678
-694
-711
-728
-743
-759
-773
-784
-797
-805
-813
-819
-823
-827
-828
-829
-827
-825
-822
-817
-811
-806
-801
-796
-788
-780
-775
-768
-761
-756
-751
-746
-743
-740
-738
-735
-735
-735
-736
-737
-738
-740
-742
-744
-746
-748
-750
-752
-753
-753
-755
-756
-759
-758
-758
-759
-760
-760
-757
-760
-759
-759
-757
-759
-755
-756
-755
-753
-755
-753
-750
-748
-744
-744
-743
-743
-737
-729
-710
-702
-701
-706
-712
-719
-728
-734
-737
-743
-745
-747
-746
-746
-744
-743
-741
-738
-736
-735
-734
-730
-728
-731
-734
-755
-775
-771
-703
-623
-579
-559
-552
-552
-559
-578
-627
-703
-784
-850
-879
-895
-898
-881
-856
-840
-833
-824
-818
-810
-802
-793
-788
-781
-771
-766
-761
-755
-750
-743
-737
-730
-728
-722
-719
-716
-713
-711
-707
-707
-705
-702
-701
-699
-697
-693
-692
-690
-687
-685
-680
-676
-670
-665
-655
-650
-643
-636
-633
-631
-633
-634
-635
-640
-643
-654
-663
-678
-692
-709
-725
-740
-757
-768
-780
-789
-799
-805
-809
-813
-815
-818
-816
-815
-816
-815
-813
-808
-805
-802
-798
-793
-789
-784
-780
-776
-769
-764
-761
-757
-754
-750
-748
-744
-743
-743
-741
-740
-741
-742
-742
-744
-746
-748
-751
-751
-755
-756
-758
-758
-761
-761
-762
-763
-761
-764
-765
-766
-766
-766
-766
-766
-768
-768
-768
-766
-767
-768
-766
-762
-759
-758
-760
-760
-755
-744
-728
-717
-716
-718
-726
-735
-743
-751
-755
-761
-764
-765
-765
-765
-764
-761
-760
-758
-756
-752
-750
-749
-745
-747
-749
-762
-784
-790
-741
-658
-606
-579
-568
-566
-573
-593
-639
-714
-784
-851
-885
-899
-905
-891
-866
-849
-843
-835
-826
-817
-810
-803
-795
-786
-779
-774
-768
-762
-757
-751
-745
-739
-735
-731
-728
-724
-718
-718
-715
-713
-710
-708
-707
-701
-702
-700
-698
-694
-692
-689
-686
-681
-675
-669
-661
-653
-645
-640
-636
-633
-634
-634
-639
-643
-649
-658
-667
-680
-692
-707
-721
-735
-748
-759
-771
-778
-784
-789
-796
-800
-802
-802
-802
-804
-803
-801
-798
-796
-792
-787
-785
-779
-774
-768
-764
-761
-757
-751
-745
-743
-741
-738
-735
-734
-733
-730
-730
-730
-728
-728
-730
-732
-732
-735
-734
-736
-739
-743
-742
-743
-746
-745
-744
-746
-748
-750
-748
-750
-751
-751
-750
-750
-751
-751
-752
-751
-752
-753
-753
-752
-748
-745
-743
-744
-744
-745
-737
-726
-710
-703
-703
-705
-712
-723
-733
-738
-743
-748
-750
-750
-750
-750
-748
-748
-745
-743
-742
-739
-736
-735
-733
-734
-739
-753
-760
-734
-662
-604
-575
-564
-562
-568
-586
-633
-713
-779
-836
-881
-897
-901
-891
-865
-842
-831
-825
-818
-810
-801
-793
-784
-779
-773
-768
-761
-755
-750
-746
-742
-738
-734
-730
-728
-723
-718
-715
-713
-712
-712
-708
-707
-707
-703
-698
-699
-698
-696
-691
-688
-684
-679
-671
-663
-654
-645
-642
-636
-636
-635
-634
-636
-639
-647
-651
-661
-676
-690
-706
-723
-743
-756
-773
-786
-798
-807
-813
-820
-827
-833
-837
-838
-838
-836
-833
-827
-823
-817
-812
-805
-796
-793
-788
-782
-776
-771
-764
-755
-753
-750
-748
-746
-746
-743
-744
-743
-741
-743
-746
-750
-750
-750
-752
-753
-756
-758
-759
-759
-759
-762
-762
-763
-764
-764
-765
-765
-765
-765
-765
-764
-765
-765
-764
-765
-766
-764
-761
-762
-762
-761
-758
-755
-753
-751
-753
-751
-745
-735
-718
-710
-707
-714
-720
-728
-738
-744
-748
-755
-757
-756
-756
-756
-754
-753
-752
-750
-746
-744
-743
-741
-742
-743
-751
-765
-761
-708
-634
-589
-571
-564
-566
-575
-598
-679
-775
-833
-877
-903
-907
-899
-886
-860
-840
-827
-820
-813
-804
-797
-789
-782
-773
-766
-761
-756
-752
-743
-741
-735
-732
-727
-723
-720
-716
-714
-710
-710
-707
-706
-703
-699
-699
-696
-694
-691
-689
-687
-681
-680
-674
-669
-660
-653
-645
-636
-630
-624
-623
-622
-622
-624
-625
-633
-638
-648
-660
-674
-691
-706
-724
-738
-753
-766
-778
-787
-797
-802
-805
-812
-815
-816
-815
-815
-813
-807
-803
-799
-795
-786
-779
-773
-766
-761
-755
-750
-746
-743
-739
-736
-736
-735
-734
-735
-737
-738
-737
-741
-744
-746
-745
-748
-751
-751
-753
-755
-757
-758
-759
-759
-759
-761
-761
-762
-762
-762
-761
-760
-762
-762
-761
-761
-761
-761
-758
-760
-760
-760
-759
-759
-758
-752
-750
-748
-748
-750
-749
-743
-728
-715
-710
-711
-716
-725
-734
-738
-746
-751
-756
-757
-758
-759
-757
-757
-755
-755
-755
-753
-751
-750
-750
-748
-752
-770
-795
-794
-731
-647
-600
-579
-571
-573
-580
-599
-648
-721
-806
-870
-899
-912
-912
-892
-867
-854
-848
-842
-833
-825
-817
-810
-802
-795
-789
-783
-777
-771
-764
-760
-755
-750
-745
-743
-739
-735
-732
-730
-726
-725
-721
-720
-717
-716
-714
-714
-710
-707
-705
-701
-698
-691
-684
-678
-669
-660
-653
-646
-640
-636
-634
-633
-634
-638
-643
-652
-663
-675
-689
-705
-723
-740
-753
-767
-780
-791
-800
-806
-813
-813
-816
-817
-818
-818
-816
-813
-812
-809
-804
-800
-797
-792
-787
-782
-777
-771
-766
-761
-758
-755
-752
-750
-746
-746
-745
-743
-744
-744
-744
-742
-744
-745
-745
-746
-746
-748
-748
-748
-748
-751
-750
-749
-752
-752
-753
-751
-752
-751
-752
-750
-751
-751
-750
-751
-750
-750
-750
-750
-750
-748
-748
-748
-748
-746
-744
-741
-737
-737
-737
-737
-728
-717
-703
-697
-697
-699
-707
-716
-723
-729
-734
-739
-741
-741
-741
-744
-743
-743
-743
-742
-741
-737
-736
-735
-735
-737
-745
-768
-779
-750
-669
-607
-575
-560
-555
-559
-570
-605
-676
-743
-809
-859
-879
-891
-887
-869
-848
-837
-831
-825
-816
-808
-802
-795
-786
-779
-774
-769
-761
-755
-750
-745
-739
-735
-732
-728
-725
-721
-719
-716
-713
-712
-707
-707
-704
-701
-699
-697
-694
-690
-687
-685
-681
-676
-671
-663
-655
-647
-637
-633
-629
-627
-625
-627
-629
-633
-639
-648
-659
-672
-686
-703
-719
-735
-750
-764
-776
-786
-795
-802
-809
-811
-813
-813
-814
-813
-810
-808
-806
-803
-798
-792
-789
-784
-779
-773
-770
-764
-759
-755
-752
-750
-748
-746
-745
-744
-744
-744
-745
-748
-750
-751
-752
-755
-757
-759
-761
-762
-764
-762
-764
-765
-764
-764
-764
-766
-765
-766
-764
-766
-765
-766
-766
-765
-766
-765
-763
-764
-764
-764
-761
-762
-763
-762
-760
-760
-761
-757
-755
-751
-751
-751
-752
-748
-739
-726
-714
-712
-716
-723
-730
-735
-743
-748
-755
-757
-760
-763
-763
-761
-759
-761
-759
-757
-756
-755
-753
-750
-752
-753
-765
-784
-787
-744
-665
-615
-586
-575
-575
-580
-593
-642
-723
-793
-858
-891
-907
-910
-895
-869
-851
-843
-837
-830
-822
-813
-805
-796
-791
-784
-777
-770
-763
-759
-753
-748
-743
-740
-736
-732
-727
-724
-721
-717
-715
-714
-711
-707
-706
-703
-699
-698
-695
-694
-692
-687
-681
-678
-671
-665
-656
-650
-644
-640
-636
-636
-636
-639
-640
-643
-651
-658
-667
-680
-697
-712
-725
-741
-753
-766
-775
-783
-792
-800
-804
-806
-806
-805
-805
-802
-801
-800
-795
-791
-786
-782
-775
-771
-766
-763
-758
-753
-750
-747
-746
-742
-743
-743
-742
-742
-741
-742
-743
-744
-744
-747
-749
-750
-751
-750
-753
-753
-752
-751
-750
-752
-750
-752
-751
-752
-751
-747
-750
-750
-748
-748
-750
-749
-748
-748
-744
-746
-746
-746
-745
-746
-744
-742
-741
-743
-743
-739
-734
-733
-733
-735
-732
-728
-713
-699
-694
-695
-703
-710
-718
-726
-733
-738
-742
-746
-746
-747
-747
-746
-748
-746
-743
-743
-743
-741
-738
-739
-741
-754
-770
-771
-719
-644
-597
-571
-567
-566
-574
-597
-663
-737
-798
-855
-882
-894
-894
-874
-853
-838
-833
-825
-820
-813
-806
-798
-789
-785
-777
-771
-765
-762
-755
-746
-743
-741
-737
-734
-728
-727
-722
-720
-717
-717
-714
-714
-712
-709
-708
-705
-703
-701
-699
-697
-691
-688
-683
-676
-671
-663
-659
-653
-650
-649
-649
-652
-652
-656
-660
-670
-676
-687
-701
-716
-731
-743
-759
-769
-782
-791
-800
-807
-811
-815
-816
-819
-819
-817
-815
-815
-811
-806
-803
-799
-796
-791
-786
-782
-779
-774
-770
-769
-764
-764
-761
-757
-759
-759
-760
-761
-762
-764
-764
-765
-766
-768
-766
-766
-767
-766
-766
-764
-766
-765
-764
-763
-764
-763
-761
-761
-762
-762
-760
-760
-761
-757
-758
-756
-756
-756
-755
-753
-751
-753
-752
-751
-750
-747
-750
-748
-746
-741
-737
-738
-738
-735
-726
-714
-702
-698
-701
-705
-712
-724
-730
-734
-741
-744
-744
-743
-743
-743
-744
-743
-741
-741
-739
-735
-732
-732
-732
-735
-747
-751
-728
-663
-609
-580
-562
-563
-566
-580
-631
-727
-786
-832
-871
-887
-890
-882
-863
-843
-832
-827
-819
-810
-801
-793
-788
-782
-773
-765
-761
-754
-748
-743
-737
-735
-728
-726
-723
-720
-714
-712
-712
-710
-707
-703
-703
-701
-697
-696
-693
-689
-686
-684
-680
-676
-671
-665
-658
-652
-647
-640
-636
-636
-635
-633
-631
-633
-636
-640
-647
-660
-674
-684
-704
-720
-737
-751
-763
-775
-787
-797
-802
-807
-811
-811
-809
-805
-803
-798
-793
-787
-784
-778
-771
-768
-762
-758
-752
-750
-746
-746
-742
-742
-743
-744
-744
-745
-746
-748
-750
-752
-753
-757
-759
-759
-761
-761
-761
-761
-761
-759
-761
-761
-759
-758
-757
-757
-757
-757
-757
-755
-755
-756
-757
-753
-753
-753
-752
-752
-751
-753
-753
-750
-750
-750
-750
-750
-746
-743
-741
-740
-738
-735
-728
-714
-705
-704
-708
-712
-720
-728
-735
-741
-746
-750
-750
-752
-753
-751
-751
-752
-751
-750
-750
-748
-747
-747
-750
-761
-777
-775
-737
-661
-609
-585
-574
-575
-581
-599
-663
-757
-811
-856
-894
-908
-910
-900
-878
-858
-847
-838
-833
-825
-818
-810
-802
-795
-788
-782
-775
-770
-764
-759
-753
-750
-746
-741
-738
-735
-732
-728
-726
-724
-720
-718
-717
-716
-714
-712
-708
-705
-706
-701
-698
-694
-689
-683
-673
-666
-660
-654
-647
-645
-645
-644
-647
-649
-654
-661
-668
-676
-687
-704
-719
-734
-750
-764
-776
-788
-798
-808
-815
-820
-824
-825
-825
-822
-818
-815
-810
-804
-798
-791
-784
-776
-771
-766
-761
-757
-755
-753
-752
-751
-751
-751
-753
-753
-755
-757
-760
-759
-761
-764
-765
-766
-766
-766
-765
-766
-764
-765
-764
-762
-761
-761
-761
-760
-759
-760
-757
-757
-757
-755
-752
-753
-751
-752
-751
-750
-749
-746
-748
-745
-744
-743
-743
-742
-736
-733
-732
-733
-733
-728
-721
-707
-696
-692
-697
-703
-710
-717
-725
-730
-734
-738
-742
-743
-743
-741
-741
-739
-739
-737
-735
-735
-733
-732
-731
-738
-759
-779
-773
-703
-625
-580
-562
-555
-558
-564
-584
-636
-707
-781
-844
-875
-891
-891
-871
-849
-838
-830
-824
-818
-810
-802
-794
-787
-779
-772
-765
-760
-753
-748
-742
-736
-733
-728
-723
-719
-719
-716
-711
-709
-707
-707
-703
-701
-699
-696
-694
-691
-691
-687
-683
-680
-675
-672
-665
-657
-651
-645
-641
-638
-639
-639
-640
-642
-644
-649
-654
-665
-677
-692
-708
-724
-738
-753
-767
-777
-787
-796
-802
-805
-807
-810
-809
-807
-806
-804
-800
-795
-792
-789
-786
-779
-774
-771
-767
-764
-761
-759
-757
-755
-754
-753
-756
-755
-756
-758
-760
-760
-759
-763
-763
-765
-765
-766
-765
-763
-764
-764
-766
-765
-764
-764
-763
-765
-764
-763
-763
-765
-764
-761
-763
-762
-763
-761
-761
-761
-759
-761
-761
-762
-761
-759
-759
-757
-759
-753
-751
-752
-752
-751
-742
-734
-717
-710
-708
-713
-723
-730
-737
-744
-752
-755
-758
-760
-761
-759
-756
-759
-757
-756
-753
-753
-751
-750
-748
-750
-755
-771
-786
-771
-702
-635
-595
-579
-574
-577
-587
-616
-690
-755
-821
-870
-892
-901
-894
-871
-851
-842
-835
-827
-822
-813
-806
-796
-790
-782
-776
-769
-762
-758
-752
-745
-741
-735
-732
-728
-724
-722
-718
-714
-712
-710
-708
-705
-703
-701
-698
-696
-693
-693
-689
-685
-682
-680
-674
-665
-660
-654
-649
-645
-643
-642
-641
-643
-644
-651
-654
-662
-671
-681
-696
-710
-723
-738
-750
-762
-772
-782
-790
-798
-801
-805
-806
-805
-802
-798
-797
-793
-787
-782
-779
-774
-769
-766
-761
-758
-755
-752
-750
-748
-746
-743
-744
-745
-746
-746
-745
-748
-750
-751
-751
-753
-753
-750
-753
-752
-753
-753
-753
-753
-751
-752
-752
-751
-752
-750
-750
-750
-750
-749
-750
-748
-750
-750
-748
-748
-748
-749
-746
-745
-747
-748
-746
-743
-746
-746
-743
-738
-735
-734
-732
-735
-728
-720
-706
-698
-697
-698
-707
-714
-725
-731
-735
-740
-742
-748
-748
-748
-747
-746
-743
-741
-741
-741
-740
-738
-738
-739
-743
-759
-761
-737
-669
-614
-585
-570
-570
-576
-593
-642
-731
-786
-834
-874
-892
-896
-887
-865
-846
-833
-828
-823
-816
-809
-800
-792
-786
-780
-772
-767
-762
-759
-754
-748
-741
-738
-734
-732
-730
-728
-725
-721
-720
-717
-716
-713
-712
-712
-708
-706
-703
-702
-701
-698
-696
-691
-687
-681
-675
-669
-663
-660
-657
-656
-656
-658
-661
-663
-667
-675
-683
-694
-707
-723
-737
-750
-764
-778
-789
-800
-810
-815
-819
-822
-822
-823
-819
-818
-815
-811
-805
-799
-794
-789
-786
-781
-778
-773
-766
-763
-760
-760
-758
-757
-759
-761
-762
-761
-764
-764
-768
-768
-769
-770
-772
-771
-770
-769
-767
-766
-766
-766
-768
-768
-767
-766
-766
-766
-764
-764
-765
-766
-764
-761
-760
-758
-759
-757
-758
-756
-756
-755
-755
-755
-753
-753
-752
-748
-746
-744
-744
-743
-737
-728
-715
-708
-705
-705
-708
-719
-728
-734
-739
-746
-748
-750
-751
-751
-750
-748
-746
-745
-743
-741
-737
-737
-737
-738
-743
-755
-753
-718
-651
-604
-580
-571
-568
-573
-591
-652
-757
-813
-858
-890
-901
-899
-891
-869
-845
-827
-820
-813
-805
-797
-789
-782
-774
-768
-762
-756
-751
-742
-741
-735
-731
-725
-721
-720
-716
-712
-708
-707
-705
-702
-699
-699
-697
-694
-692
-690
-687
-687
-682
-681
-676
-672
-665
-658
-653
-648
-640
-635
-634
-632
-631
-633
-634
-636
-640
-648
-656
-667
-680
-696
-711
-729
-743
-756
-770
-782
-791
-800
-807
-812
-813
-812
-811
-809
-806
-801
-796
-791
-786
-779
-772
-768
-764
-759
-753
-751
-748
-748
-746
-746
-748
-748
-748
-750
-754
-756
-757
-759
-761
-764
-764
-765
-766
-766
-767
-766
-768
-768
-767
-766
-766
-766
-763
-763
-764
-764
-763
-762
-761
-757
-759
-758
-758
-756
-756
-755
-754
-756
-755
-753
-751
-752
-752
-746
-743
-741
-743
-743
-741
-733
-721
-708
-705
-707
-713
-719
-727
-734
-740
-745
-750
-752
-754
-755
-753
-753
-753
-753
-751
-750
-749
-747
-746
-746
-752
-766
-789
-793
-744
-665
-615
-588
-578
-577
-582
-593
-632
-704
-771
-842
-886
-904
-910
-901
-876
-856
-846
-841
-833
-825
-820
-813
-804
-797
-791
-784
-775
-771
-766
-761
-753
-748
-743
-737
-734
-729
-726
-724
-721
-719
-716
-714
-711
-710
-710
-707
-705
-703
-701
-698
-696
-691
-687
-683
-676
-668
-660
-656
-650
-646
-644
-645
-645
-647
-651
-654
-658
-668
-678
-691
-707
-721
-734
-748
-761
-771
-782
-791
-798
-804
-807
-809
-810
-809
-807
-805
-802
-800
-795
-792
-789
-784
-777
-772
-770
-766
-761
-758
-755
-752
-751
-749
-748
-748
-748
-750
-750
-750
-751
-750
-753
-753
-755
-755
-755
-757
-757
-755
-755
-755
-755
-753
-753
-754
-753
-751
-750
-750
-751
-750
-748
-750
-746
-747
-746
-744
-746
-744
-743
-741
-743
-741
-741
-740
-739
-735
-731
-728
-729
-730
-728
-721
-710
-696
-690
-690
-697
-705
-714
-721
-727
-730
-734
-739
-741
-742
-742
-743
-741
-739
-739
-736
-735
-734
-733
-733
-733
-741
-760
-776
-761
-689
-620
-583
-566
-560
-564
-576
-603
-669
-736
-801
-854
-875
-885
-881
-857
-832
-821
-814
-809
-800
-794
-788
-779
-774
-766
-762
-757
-750
-745
-739
-734
-728
-725
-719
-717
-713
-711
-708
-705
-703
-701
-701
-698
-697
-696
-694
-692
-689
-688
-687
-684
-680
-675
-671
-665
-657
-650
-647
-643
-639
-638
-639
-640
-642
-647
-653
-660
-670
-681
-697
-711
-726
-738
-751
-765
-775
-783
-791
-797
-802
-803
-805
-806
-806
-804
-803
-801
-797
-793
-791
-788
-782
-777
-774
-770
-768
-764
-762
-761
-759
-757
-753
-756
-756
-759
-759
-760
-761
-762
-765
-767
-769
-770
-771
-771
-771
-775
-775
-772
-772
-773
-771
-769
-771
-770
-769
-767
-768
-764
-764
-766
-766
-766
-766
-765
-764
-761
-764
-761
-761
-761
-763
-762
-759
-760
-761
-761
-759
-755
-752
-750
-750
-750
-746
-737
-721
-712
-711
-714
-717
-727
-735
-743
-747
-753
-759
-761
-760
-759
-760
-759
-758
-755
-756
-755
-751
-748
-748
-750
-751
-762
-778
-773
-721
-647
-604
-583
-575
-577
-584
-610
-676
-748
-804
-856
-886
-892
-895
-878
-854
-837
-829
-824
-815
-809
-800
-795
-789
-782
-776
-771
-766
-760
-756
-750
-746
-739
-734
-730
-726
-723
-718
-716
-714
-711
-708
-706
-706
-703
-701
-699
-697
-696
-693
-689
-685
-681
-675
-669
-662
-656
-652
-645
-644
-641
-641
-640
-642
-647
-653
-657
-665
-676
-688
-701
-716
-730
-742
-751
-765
-775
-786
-791
-796
-800
-801
-802
-800
-799
-798
-797
-792
-788
-786
-779
-774
-770
-766
-763
-756
-755
-751
-751
-746
-744
-743
-741
-744
-743
-744
-746
-749
-750
-748
-752
-753
-754
-755
-758
-760
-759
-759
-757
-759
-757
-756
-757
-756
-753
-752
-753
-751
-752
-750
-750
-750
-748
-748
-746
-746
-746
-744
-744
-741
-745
-743
-743
-744
-743
-743
-739
-743
-741
-738
-734
-732
-733
-731
-731
-726
-714
-702
-697
-698
-701
-708
-715
-723
-730
-735
-740
-741
-746
-748
-748
-746
-745
-744
-741
-741
-740
-738
-737
-737
-738
-745
-755
-744
-697
-634
-597
-577
-572
-575
-584
-613
-696
-776
-825
-866
-892
-898
-895
-874
-852
-834
-824
-818
-811
-804
-797
-789
-784
-780
-775
-768
-762
-757
-753
-748
-744
-741
-735
-733
-730
-726
-723
-723
-720
-717
-717
-716
-712
-712
-710
-707
-703
-703
-701
-699
-696
-692
-687
-680
-673
-666
-660
-656
-651
-650
-650
-653
-655
-658
-663
-669
-676
-687
-699
-714
-730
-744
-759
-774
-786
-797
-806
-815
-822
-825
-829
-829
-829
-825
-822
-818
-814
-808
-801
-796
-790
-783
-777
-772
-769
-764
-760
-757
-759
-756
-756
-756
-757
-759
-759
-761
-764
-766
-769
-770
-772
-772
-774
-777
-778
-779
-779
-777
-773
-774
-773
-771
-771
-770
-768
-768
-766
-763
-764
-761
-760
-761
-759
-758
-755
-756
-755
-753
-752
-752
-753
-750
-750
-750
-751
-748
-746
-743
-738
-738
-737
-738
-733
-725
-710
-703
-704
-706
-712
-720
-729
-733
-738
-744
-747
-750
-750
-750
-750
-750
-748
-747
-748
-744
-743
-741
-741
-743
-748
-769
-782
-759
-680
-617
-585
-571
-568
-570
-584
-620
-694
-753
-815
-863
-878
-887
-880
-856
-833
-818
-811
-804
-799
-792
-786
-779
-773
-766
-761
-756
-750
-745
-738
-734
-730
-726
-721
-719
-716
-712
-710
-707
-705
-703
-701
-699
-698
-696
-692
-689
-689
-684
-683
-679
-676
-672
-665
-660
-652
-645
-638
-635
-634
-635
-635
-638
-641
-645
-652
-660
-670
-681
-694
-707
-721
-738
-751
-762
-775
-784
-792
-798
-804
-809
-811
-813
-813
-813
-813
-809
-806
-802
-799
-793
-788
-784
-779
-773
-768
-765
-761
-759
-755
-753
-753
-752
-752
-753
-753
-753
-755
-757
-759
-761
-761
-764
-764
-768
-769
-769
-771
-771
-770
-769
-770
-770
-768
-766
-766
-766
-763
-763
-763
-762
-761
-760
-760
-759
-758
-757
-757
-756
-755
-753
-754
-755
-755
-753
-753
-753
-753
-750
-746
-743
-746
-745
-745
-738
-726
-712
-707
-709
-713
-720
-728
-736
-743
-748
-754
-758
-759
-759
-757
-759
-759
-759
-757
-755
-755
-752
-751
-751
-753
-761
-782
-797
-770
-694
-631
-598
-584
-581
-583
-593
-624
-689
-753
-823
-876
-896
-903
-900
-876
-854
-841
-834
-827
-822
-814
-805
-799
-792
-786
-779
-773
-768
-761
-756
-750
-746
-743
-737
-734
-728
-726
-723
-721
-717
-716
-712
-708
-707
-705
-703
-700
-698
-696
-693
-690
-685
-682
-676
-668
-661
-654
-646
-640
-637
-636
-636
-639
-642
-646
-652
-660
-671
-684
-698
-712
-726
-739
-751
-764
-775
-783
-791
-796
-800
-805
-805
-806
-806
-806
-806
-804
-800
-795
-793
-789
-784
-779
-776
-771
-764
-761
-758
-755
-750
-748
-748
-746
-745
-743
-744
-743
-746
-746
-746
-748
-748
-750
-750
-753
-753
-754
-755
-752
-755
-754
-753
-753
-753
-751
-750
-750
-750
-748
-747
-747
-747
-746
-745
-744
-743
-743
-741
-740
-740
-739
-738
-739
-739
-738
-736
-735
-735
-731
-727
-725
-726
-728
-726
-719
-707
-694
-689
-691
-696
-705
-714
-718
-728
-733
-740
-741
-743
-743
-744
-743
-741
-743
-741
-739
-737
-736
-735
-732
-736
-743
-761
-773
-751
-681
-617
-582
-566
-562
-563
-577
-613
-687
-755
-820
-869
-889
-897
-890
-865
-843
-832
-825
-817
-810
-802
-794
-788
-781
-775
-770
-764
-757
-752
-747
-741
-736
-733
-731
-726
-721
-720
-717
-715
-712
-710
-708
-705
-703
-702
-701
-698
-696
-693
-690
-687
-681
-677
-672
-665
-658
-651
-646
-643
-640
-640
-641
-644
-646
-651
-656
-665
-676
-690
-705
-719
-736
-750
-765
-777
-787
-796
-803
-810
-816
-817
-820
-822
-820
-816
-816
-813
-809
-805
-802
-799
-793
-789
-784
-781
-777
-771
-768
-764
-764
-761
-759
-759
-756
-759
-755
-759
-760
-762
-761
-763
-765
-765
-768
-769
-770
-771
-770
-770
-769
-772
-770
-769
-769
-769
-768
-768
-768
-766
-766
-764
-765
-765
-763
-762
-759
-761
-761
-760
-758
-759
-759
-756
-757
-756
-755
-755
-755
-752
-748
-744
-744
-745
-744
-739
-728
-712
-707
-705
-710
-716
-725
-733
-738
-743
-748
-753
-752
-753
-753
-753
-752
-750
-750
-748
-746
-743
-743
-741
-741
-748
-766
-778
-753
-680
-620
-589
-573
-568
-572
-585
-631
-717
-783
-845
-883
-898
-902
-893
-867
-845
-835
-829
-824
-815
-806
-800
-793
-786
-779
-774
-767
-760
-754
-750
-743
-738
-733
-728
-726
-723
-720
-717
-716
-713
-708
-706
-704
-701
-698
-696
-694
-690
-686
-682
-680
-676
-670
-663
-656
-650
-642
-636
-632
-632
-629
-629
-632
-634
-640
-645
-655
-667
-680
-694
-708
-725
-739
-751
-764
-774
-786
-791
-799
-804
-807
-808
-809
-809
-805
-804
-801
-798
-793
-791
-786
-782
-776
-771
-768
-763
-760
-755
-751
-748
-743
-744
-741
-741
-742
-743
-743
-741
-743
-743
-745
-745
-746
-748
-746
-748
-750
-748
-750
-750
-750
-748
-751
-750
-750
-750
-750
-749
-746
-750
-748
-748
-747
-750
-748
-746
-748
-746
-747
-746
-746
-745
-743
-743
-743
-745
-743
-738
-735
-734
-737
-735
-731
-721
-703
-697
-692
-701
-707
-717
-726
-734
-738
-742
-748
-748
-748
-748
-747
-746
-746
-746
-743
-743
-742
-740
-739
-738
-746
-764
-775
-756
-683
-622
-587
-571
-566
-570
-583
-627
-718
-784
-842
-887
-904
-912
-904
-879
-856
-845
-838
-833
-825
-819
-811
-804
-797
-790
-784
-777
-771
-766
-761
-756
-750
-747
-743
-737
-733
-730
-727
-725
-722
-720
-718
-717
-714
-712
-709
-708
-706
-703
-701
-698
-693
-688
-682
-676
-668
-660
-656
-653
-649
-649
-649
-653
-655
-658
-663
-671
-680
-690
-706
-721
-736
-751
-765
-780
-791
-801
-811
-819
-822
-826
-827
-827
-828
-825
-823
-818
-813
-807
-802
-799
-793
-789
-782
-779
-774
-767
-763
-759
-756
-755
-750
-750
-747
-749
-746
-747
-750
-751
-750
-752
-753
-754
-755
-755
-756
-756
-756
-755
-756
-757
-755
-755
-755
-755
-753
-751
-752
-753
-752
-751
-751
-751
-750
-750
-748
-748
-748
-746
-748
-747
-746
-744
-744
-744
-741
-737
-734
-734
-732
-733
-723
-712
-697
-691
-692
-699
-707
-715
-725
-731
-735
-741
-741
-743
-741
-743
-741
-741
-739
-738
-735
-732
-732
-730
-730
-730
-739
-758
-757
-725
-648
-598
-571
-558
-558
-562
-580
-641
-734
-796
-849
-882
-892
-896
-883
-856
-834
-825
-820
-813
-806
-798
-790
-782
-775
-769
-762
-755
-746
-743
-738
-732
-728
-723
-721
-715
-712
-710
-706
-704
-701
-700
-697
-696
-692
-692
-692
-689
-687
-684
-683
-679
-674
-669
-663
-656
-649
-642
-636
-634
-632
-632
-636
-639
-644
-649
-656
-667
-677
-691
-707
-723
-736
-751
-766
-779
-788
-797
-806
-811
-814
-816
-817
-817
-815
-811
-808
-805
-799
-796
-789
-786
-780
-774
-771
-766
-763
-759
-755
-753
-752
-748
-746
-748
-747
-746
-748
-750
-752
-751
-753
-755
-757
-759
-757
-760
-760
-761
-761
-760
-760
-760
-759
-759
-760
-760
-759
-759
-757
-759
-760
-759
-759
-760
-759
-758
-758
-757
-757
-757
-760
-761
-757
-759
-759
-757
-752
-748
-750
-750
-748
-746
-737
-726
-711
-708
-710
-718
-725
-734
-743
-747
-752
-753
-758
-760
-760
-759
-757
-757
-755
-753
-751
-750
-748
-746
-746
-746
-755
-764
-756
-708
-641
-601
-582
-576
-577
-586
-614
-703
-784
-833
-876
-905
-913
-908
-889
-863
-846
-836
-829
-824
-816
-809
-801
-792
-786
-779
-771
-764
-758
-754
-748
-743
-741
-737
-732
-730
-725
-721
-719
-716
-713
-710
-707
-704
-703
-701
-699
-697
-694
-690
-686
-681
-676
-670
-661
-651
-645
-639
-634
-633
-634
-633
-635
-639
-643
-650
-658
-669
-684
-701
-718
-735
-753
-766
-779
-791
-801
-811
-817
-824
-825
-825
-825
-820
-816
-813
-806
-800
-795
-788
-780
-771
-764
-759
-753
-748
-744
-744
-742
-739
-738
-738
-739
-738
-738
-743
-744
-748
-748
-750
-750
-752
-753
-753
-755
-755
-756
-755
-753
-752
-750
-750
-750
-750
-748
-747
-746
-745
-744
-743
-743
-741
-741
-741
-740
-739
-738
-737
-737
-738
-736
-735
-737
-738
-736
-731
-728
-726
-726
-726
-725
-720
-712
-699
-692
-694
-697
-702
-710
-719
-725
-727
-731
-734
-737
-738
-737
-739
-738
-738
-736
-735
-733
-732
-730
-730
-734
-741
-753
-750
-708
-639
-594
-573
-566
-567
-575
-597
-680
-779
-829
-868
-898
-905
-901
-884
-862
-840
-825
-817
-811
-802
-794
-787
-781
-774
-766
-760
-757
-753
-746
-741
-738
-733
-730
-726
-723
-720
-716
-714
-712
-710
-708
-707
-705
-703
-701
-697
-695
-692
-690
-685
-681
-675
-669
-661
-654
-646
-640
-637
-634
-636
-638
-640
-644
-649
-656
-664
-676
-690
-707
-722
-736
-755
-770
-784
-795
-806
-817
-822
-830
-834
-835
-837
-834
-833
-827
-825
-819
-812
-806
-800
-792
-784
-780
-774
-770
-764
-761
-759
-753
-756
-757
-758
-759
-761
-763
-764
-768
-769
-772
-775
-779
-779
-779
-783
-784
-786
-785
-786
-786
-784
-783
-780
-780
-779
-775
-777
-774
-771
-768
-769
-768
-766
-764
-764
-763
-761
-760
-759
-759
-758
-757
-757
-756
-755
-753
-753
-750
-748
-744
-743
-746
-745
-740
-730
-715
-708
-707
-711
-716
-726
-731
-737
-743
-748
-750
-750
-752
-753
-753
-752
-752
-751
-748
-746
-746
-744
-744
-746
-755
-780
-793
-763
-680
-616
-586
-571
-568
-572
-582
-616
-685
-757
-829
-874
-894
-901
-891
-863
-843
-835
-829
-822
-814
-805
-797
-790
-782
-775
-771
-764
-758
-751
-745
-739
-735
-730
-726
-723
-717
-714
-711
-710
-707
-706
-703
-701
-698
-694
-692
-692
-687
-686
-684
-681
-675
-671
-665
-661
-653
-645
-639
-633
-634
-634
-634
-636
-639
-644
-649
-659
-669
-680
-692
-708
-723
-735
-750
-765
-777
-786
-793
-800
-803
-805
-806
-809
-809
-807
-805
-804
-801
-796
-792
-788
-784
-779
-773
-769
-763
-760
-755
-753
-750
-748
-746
-742
-743
-744
-743
-744
-746
-748
-746
-751
-753
-755
-757
-758
-760
-761
-761
-761
-763
-762
-762
-763
-760
-762
-761
-761
-760
-761
-759
-756
-756
-756
-753
-752
-748
-748
-745
-744
-743
-743
-742
-741
-741
-738
-740
-739
-737
-736
-736
-736
-734
-732
-732
-732
-731
-730
-728
-719
-703
-694
-692
-698
-704
-712
-719
-729
-736
-741
-748
-750
-751
-751
-752
-752
-752
-751
-750
-751
-749
-748
-748
-750
-751
-763
-785
-796
-757
-675
-620
-591
-579
-577
-581
-595
-639
-720
-785
-849
-890
-905
-909
-900
-876
-853
-842
-836
-831
-823
-815
-809
-800
-796
-788
-781
-775
-769
-763
-757
-753
-747
-741
-739
-733
-732
-728
-725
-721
-721
-717
-714
-712
-711
-710
-705
-703
-701
-696
-695
-692
-691
-687
-682
-675
-669
-663
-655
-651
-648
-647
-648
-649
-652
-655
-660
-665
-674
-683
-696
-708
-721
-735
-750
-761
-771
-783
-792
-797
-802
-806
-809
-811
-811
-809
-806
-806
-802
-799
-797
-793
-789
-784
-779
-775
-771
-766
-762
-759
-755
-752
-750
-750
-750
-749
-750
-751
-750
-750
-751
-753
-755
-755
-757
-761
-761
-762
-762
-764
-765
-766
-765
-766
-766
-763
-764
-764
-764
-762
-761
-759
-756
-755
-752
-751
-748
-746
-743
-741
-739
-737
-734
-734
-733
-732
-729
-728
-726
-728
-726
-728
-729
-728
-726
-725
-729
-727
-724
-722
-722
-721
-719
-716
-706
-692
-687
-685
-689
-696
-707
-715
-723
-730
-735
-738
-740
-741
-741
-743
-741
-741
-741
-741
-738
-737
-734
-735
-735
-739
-753
-768
-763
-716
-643
-599
-573
-564
-564
-569
-590
-654
-738
-797
-846
-881
-894
-896
-884
-863
-845
-834
-829
-822
-814
-805
-796
-789
-782
-777
-769
-761
-755
-752
-748
-743
-738
-734
-730
-725
-721
-718
-717
-713
-711
-710
-707
-703
-701
-699
-697
-694
-692
-687
-685
-681
-678
-672
-666
-660
-653
-646
-641
-637
-634
-634
-636
-636
-639
-643
-650
-660
-670
-684
-701
-717
-733
-748
-762
-775
-784
-793
-802
-806
-811
-815
-816
-817
-813
-813
-810
-807
-802
-797
-792
-786
-782
-776
-772
-768
-763
-760
-759
-755
-753
-751
-749
-752
-755
-755
-758
-761
-762
-762
-764
-768
-769
-771
-773
-775
-775
-779
-780
-780
-781
-779
-778
-778
-777
-777
-777
-776
-774
-771
-769
-766
-763
-762
-760
-757
-757
-758
-755
-753
-750
-750
-748
-746
-745
-742
-741
-737
-739
-742
-745
-746
-744
-744
-743
-744
-743
-740
-738
-734
-733
-735
-732
-723
-712
-707
-705
-707
-712
-721
-728
-737
-743
-749
-752
-753
-755
-755
-757
-755
-755
-755
-753
-753
-747
-749
-748
-752
-755
-767
-769
-740
-671
-616
-589
-576
-571
-577
-591
-636
-748
-824
-869
-902
-917
-917
-909
-889
-868
-847
-835
-825
-818
-811
-802
-795
-787
-780
-774
-770
-764
-755
-750
-745
-741
-735
-730
-728
-725
-723
-718
-718
-716
-712
-708
-708
-708
-705
-701
-699
-696
-693
-688
-684
-681
-676
-667
-661
-653
-647
-640
-636
-636
-634
-635
-636
-642
-645
-649
-656
-663
-679
-692
-708
-725
-739
-753
-764
-776
-787
-798
-805
-811
-815
-817
-817
-816
-815
-813
-807
-800
-795
-789
-779
-774
-770
-762
-756
-751
-749
-744
-743
-740
-740
-740
-739
-740
-740
-743
-746
-748
-751
-755
-757
-759
-761
-763
-765
-767
-768
-769
-770
-769
-767
-769
-770
-768
-768
-766
-765
-761
-761
-759
-757
-755
-751
-750
-748
-746
-743
-741
-741
-739
-737
-734
-734
-733
-732
-732
-732
-732
-732
-731
-731
-731
-731
-731
-730
-728
-725
-725
-726
-726
-720
-710
-696
-694
-694
-701
-709
-717
-727
-730
-737
-743
-746
-748
-750
-750
-748
-750
-750
-751
-748
-746
-744
-744
-746
-748
-766
-789
-791
-737
-653
-605
-582
-573
-572
-580
-597
-642
-713
-786
-852
-887
-901
-904
-889
-865
-849
-840
-833
-828
-819
-811
-805
-800
-792
-787
-780
-775
-766
-763
-758
-753
-748
-745
-741
-736
-734
-732
-730
-728
-723
-722
-718
-719
-716
-713
-712
-708
-707
-701
-701
-696
-691
-685
-677
-672
-660
-656
-649
-646
-645
-643
-645
-646
-654
-660
-665
-675
-685
-697
-711
-726
-740
-755
-768
-780
-788
-799
-806
-811
-819
-820
-824
-825
-825
-824
-820
-819
-816
-813
-807
-803
-797
-792
-786
-781
-776
-772
-767
-762
-761
-759
-755
-753
-755
-753
-753
-753
-754
-755
-756
-755
-758
-761
-760
-761
-762
-765
-764
-764
-765
-764
-764
-763
-762
-762
-761
-760
-760
-758
-757
-753
-752
-750
-748
-746
-743
-741
-739
-734
-732
-732
-731
-727
-726
-726
-726
-724
-723
-726
-726
-725
-723
-726
-726
-723
-721
-719
-721
-722
-718
-710
-696
-685
-684
-687
-694
-701
-710
-717
-725
-730
-735
-737
-740
-739
-739
-739
-738
-739
-737
-737
-735
-735
-732
-732
-738
-750
-772
-780
-735
-654
-600
-573
-562
-561
-566
-580
-620
-692
-762
-831
-872
-890
-896
-886
-862
-843
-834
-827
-818
-813
-804
-794
-788
-780
-775
-768
-761
-756
-751
-744
-735
-734
-728
-726
-721
-717
-715
-711
-710
-707
-706
-703
-699
-698
-696
-694
-690
-688
-685
-683
-680
-674
-671
-665
-658
-650
-644
-639
-631
-631
-631
-631
-635
-638
-643
-647
-656
-665
-677
-692
-707
-723
-735
-752
-762
-775
-783
-793
-800
-802
-807
-811
-813
-813
-811
-813
-807
-806
-802
-800
-796
-792
-788
-782
-779
-775
-771
-766
-762
-760
-755
-755
-753
-753
-753
-750
-751
-750
-751
-752
-756
-757
-757
-759
-761
-762
-762
-764
-765
-766
-766
-764
-768
-768
-767
-768
-767
-766
-765
-765
-764
-763
-761
-759
-759
-755
-754
-750
-748
-748
-748
-746
-744
-744
-743
-743
-743
-743
-743
-741
-743
-743
-744
-743
-744
-745
-744
-742
-739
-739
-739
-739
-733
-725
-710
-703
-702
-708
-716
-726
-734
-741
-745
-752
-753
-755
-757
-757
-759
-757
-759
-758
-758
-756
-755
-753
-753
-755
-757
-768
-785
-784
-744
-671
-620
-594
-582
-580
-585
-600
-647
-726
-794
-854
-896
-914
-919
-910
-885
-866
-854
-846
-838
-829
-822
-814
-804
-798
-789
-784
-777
-771
-766
-762
-756
-750
-746
-743
-737
-733
-731
-726
-723
-721
-717
-715
-711
-708
-706
-703
-701
-697
-693
-690
-688
-683
-675
-669
-661
-653
-645
-640
-636
-633
-631
-633
-634
-637
-642
-648
-658
-669
-681
-699
-714
-729
-741
-753
-764
-777
-786
-795
-804
-808
-810
-812
-812
-813
-811
-811
-807
-804
-800
-793
-789
-783
-780
-774
-770
-764
-759
-755
-748
-746
-743
-743
-742
-741
-741
-739
-740
-741
-742
-743
-745
-748
-748
-750
-752
-757
-759
-757
-757
-759
-761
-761
-761
-760
-757
-757
-756
-756
-755
-755
-755
-753
-752
-750
-746
-742
-743
-741
-737
-735
-732
-730
-728
-730
-729
-730
-730
-730
-728
-730
-729
-726
-726
-729
-730
-730
-728
-725
-723
-723
-723
-722
-716
-705
-696
-693
-696
-699
-706
-714
-723
-730
-735
-739
-743
-746
-746
-746
-748
-749
-746
-744
-744
-745
-743
-743
-743
-746
-753
-768
-768
-733
-660
-609
-584
-573
-572
-578
-595
-652
-753
-818
-863
-899
-910
-908
-898
-878
-855
-838
-828
-822
-816
-807
-798
-791
-784
-778
-771
-768
-762
-758
-753
-750
-745
-741
-736
-734
-731
-728
-726
-725
-722
-721
-717
-717
-716
-714
-710
-707
-706
-704
-699
-696
-693
-687
-682
-675
-667
-659
-653
-646
-644
-644
-645
-645
-649
-657
-662
-670
-680
-692
-706
-717
-733
-748
-762
-775
-787
-800
-808
-818
-825
-831
-834
-836
-836
-834
-834
-830
-825
-821
-815
-808
-800
-795
-789
-784
-777
-771
-767
-762
-759
-756
-757
-755
-756
-755
-755
-757
-758
-760
-761
-765
-767
-768
-771
-773
-777
-778
-777
-779
-780
-779
-778
-782
-780
-780
-779
-778
-777
-775
-771
-770
-769
-766
-764
-761
-761
-757
-752
-750
-749
-747
-743
-743
-741
-738
-736
-734
-735
-734
-734
-733
-733
-733
-732
-733
-730
-728
-726
-726
-728
-723
-717
-706
-696
-691
-695
-701
-707
-717
-725
-730
-736
-743
-744
-745
-746
-746
-747
-746
-746
-746
-745
-743
-741
-742
-742
-743
-752
-773
-786
-759
-680
-617
-583
-571
-570
-573
-583
-611
-676
-748
-817
-869
-890
-899
-894
-871
-846
-832
-824
-818
-810
-802
-794
-788
-780
-774
-768
-762
-758
-752
-747
-741
-738
-734
-730
-726
-721
-718
-716
-715
-712
-710
-707
-704
-702
-699
-696
-694
-692
-690
-687
-686
-681
-677
-672
-665
-656
-650
-643
-637
-634
-633
-632
-634
-639
-643
-646
-654
-663
-675
-685
-699
-714
-726
-739
-752
-764
-775
-782
-791
-797
-804
-806
-807
-809
-809
-807
-804
-805
-803
-799
-797
-792
-789
-784
-780
-775
-771
-768
-762
-758
-755
-753
-750
-749
-748
-748
-748
-746
-750
-750
-750
-752
-755
-757
-757
-760
-762
-762
-765
-766
-767
-765
-769
-769
-769
-769
-768
-768
-766
-768
-766
-764
-763
-762
-762
-759
-759
-756
-755
-753
-751
-750
-746
-746
-744
-743
-743
-741
-738
-737
-737
-735
-735
-734
-735
-734
-732
-734
-730
-729
-728
-730
-731
-726
-720
-707
-698
-697
-699
-706
-713
-725
-730
-736
-743
-749
-751
-750
-755
-756
-755
-755
-756
-756
-751
-753
-752
-753
-753
-755
-766
-789
-804
-768
-688
-627
-598
-584
-581
-586
-597
-633
-701
-773
-846
-894
-911
-920
-910
-883
-863
-854
-846
-837
-829
-822
-813
-805
-797
-790
-784
-776
-769
-763
-758
-752
-746
-743
-737
-734
-730
-728
-725
-723
-719
-716
-714
-710
-708
-706
-705
-701
-699
-696
-693
-690
-683
-679
-672
-665
-658
-650
-645
-638
-635
-634
-635
-637
-642
-645
-652
-662
-671
-682
-696
-708
-723
-733
-748
-760
-770
-779
-786
-793
-797
-799
-800
-802
-802
-801
-800
-800
-797
-794
-791
-790
-786
-782
-777
-773
-769
-764
-759
-757
-754
-750
-748
-744
-744
-741
-741
-742
-742
-743
-743
-744
-744
-746
-747
-750
-752
-752
-753
-753
-755
-756
-757
-755
-756
-757
-755
-755
-755
-753
-751
-748
-748
-746
-746
-744
-744
-743
-740
-737
-736
-734
-732
-730
-731
-730
-728
-728
-726
-723
-725
-723
-723
-723
-721
-721
-718
-721
-721
-719
-717
-719
-719
-716
-715
-713
-712
-712
-712
-710
-704
-690
-681
-680
-683
-689
-697
-708
-717
-723
-728
-734
-737
-737
-741
-743
-742
-743
-743
-743
-742
-742
-741
-740
-742
-746
-762
-781
-780
-724
-647
-602
-581
-573
-574
-583
-609
-674
-745
-812
-868
-898
-909
-907
-889
-867
-851
-842
-837
-830
-822
-811
-804
-796
-788
-780
-774
-768
-761
-757
-752
-748
-743
-736
-734
-730
-728
-723
-723
-718
-716
-714
-712
-712
-710
-706
-703
-701
-699
-694
-692
-689
-683
-678
-669
-662
-653
-646
-643
-641
-642
-643
-643
-646
-653
-658
-665
-676
-689
-701
-714
-728
-744
-757
-768
-780
-791
-800
-809
-813
-819
-822
-823
-825
-824
-825
-820
-818
-815
-813
-807
-802
-800
-793
-789
-783
-780
-777
-771
-768
-765
-763
-761
-759
-759
-759
-758
-757
-760
-762
-764
-765
-767
-768
-771
-774
-776
-778
-779
-778
-779
-776
-777
-775
-775
-774
-771
-770
-766
-766
-766
-766
-765
-764
-762
-758
-757
-757
-756
-754
-752
-751
-748
-745
-744
-744
-743
-741
-740
-740
-738
-735
-734
-733
-735
-735
-733
-734
-730
-728
-726
-727
-728
-726
-721
-719
-718
-719
-720
-716
-710
-698
-690
-689
-692
-699
-707
-716
-725
-731
-736
-737
-741
-743
-744
-743
-746
-747
-746
-745
-743
-743
-742
-743
-744
-751
-766
-771
-751
-682
-625
-593
-579
-575
-578
-593
-634
-731
-800
-848
-887
-901
-907
-899
-881
-859
-841
-830
-823
-817
-807
-799
-791
-783
-778
-771
-764
-758
-753
-746
-741
-737
-734
-728
-723
-721
-719
-716
-712
-709
-708
-705
-702
-701
-699
-697
-694
-691
-688
-686
-681
-678
-672
-666
-659
-651
-644
-636
-631
-628
-629
-629
-630
-631
-634
-642
-649
-659
-671
-685
-698
-712
-728
-741
-753
-765
-777
-786
-792
-800
-805
-811
-813
-813
-812
-810
-810
-805
-801
-796
-789
-782
-777
-772
-767
-761
-755
-752
-748
-744
-743
-743
-743
-743
-745
-746
-749
-751
-753
-756
-759
-761
-764
-766
-770
-771
-774
-774
-775
-775
-774
-777
-775
-777
-774
-771
-771
-768
-768
-766
-766
-765
-762
-760
-759
-759
-755
-753
-752
-752
-748
-746
-746
-744
-744
-743
-744
-743
-739
-741
-741
-740
-738
-738
-738
-737
-739
-738
-736
-737
-736
-735
-731
-730
-728
-728
-730
-732
-727
-717
-705
-701
-701
-706
-712
-722
-728
-736
-741
-749
-753
-757
-757
-757
-761
-759
-760
-761
-760
-759
-756
-758
-757
-761
-765
-782
-804
-801
-741
-661
-617
-595
-586
-588
-597
-616
-662
-732
-811
-875
-906
-921
-923
-908
-882
-867
-859
-853
-843
-834
-827
-818
-810
-802
-793
-786
-779
-772
-766
-761
-757
-750
-746
-743
-739
-734
-730
-728
-723
-721
-717
-716
-714
-710
-708
-707
-704
-700
-697
-696
-689
-686
-680
-673
-665
-656
-649
-644
-640
-637
-636
-636
-640
-641
-645
-653
-660
-671
-683
-697
-710
-725
-738
-749
-763
-772
-781
-789
-797
-802
-805
-807
-807
-809
-809
-809
-807
-804
-800
-796
-795
-791
-786
-782
-778
-773
-768
-764
-760
-758
-755
-752
-750
-750
-748
-747
-747
-748
-750
-748
-750
-753
-753
-754
-755
-757
-759
-757
-757
-757
-760
-759
-758
-757
-758
-756
-753
-754
-751
-750
-748
-748
-746
-744
-743
-741
-741
-738
-737
-735
-733
-733
-730
-730
-730
-730
-728
-727
-728
-726
-727
-726
-726
-726
-725
-723
-723
-723
-723
-722
-720
-718
-717
-713
-716
-712
-710
-707
-709
-710
-707
-699
-687
-678
-676
-679
-685
-694
-703
-711
-717
-723
-729
-731
-733
-735
-737
-737
-738
-738
-738
-738
-737
-737
-738
-739
-741
-747
-769
-789
-779
-709
-636
-595
-577
-572
-577
-587
-612
-669
-738
-810
-868
-894
-906
-905
-886
-864
-851
-843
-836
-828
-819
-813
-804
-795
-788
-782
-774
-768
-760
-755
-750
-743
-738
-734
-730
-726
-722
-721
-717
-716
-711
-711
-709
-706
-703
-701
-699
-696
-694
-692
-689
-687
-683
-678
-673
-667
-660
-651
-647
-644
-642
-640
-643
-645
-648
-653
-660
-670
-679
-691
-705
-718
-733
-746
-761
-770
-784
-793
-801
-807
-813
-817
-818
-823
-822
-822
-822
-819
-818
-813
-810
-809
-805
-800
-796
-791
-787
-784
-779
-777
-773
-770
-767
-763
-764
-763
-764
-762
-762
-762
-762
-762
-764
-767
-767
-769
-771
-773
-773
-772
-774
-774
-774
-774
-772
-772
-770
-769
-768
-768
-766
-764
-763
-761
-761
-758
-755
-754
-754
-751
-750
-750
-746
-746
-743
-742
-741
-740
-739
-737
-736
-734
-734
-733
-734
-733
-730
-730
-728
-727
-725
-723
-724
-721
-723
-721
-721
-719
-721
-718
-715
-714
-712
-715
-714
-710
-703
-691
-682
-680
-684
-689
-699
-708
-717
-721
-726
-735
-737
-738
-740
-742
-743
-743
-743
-743
-743
-741
-739
-738
-739
-741
-751
-771
-774
-735
-660
-609
-580
-570
-573
-579
-595
-634
-710
-773
-832
-876
-893
-901
-894
-874
-852
-840
-832
-824
-816
-807
-800
-793
-786
-779
-771
-765
-758
-753
-746
-743
-738
-732
-728
-726
-723
-718
-717
-713
-708
-707
-704
-703
-701
-699
-695
-691
-693
-690
-688
-685
-680
-676
-669
-662
-653
-647
-638
-631
-627
-624
-622
-620
-626
-631
-636
-642
-650
-660
-672
-688
-702
-716
-731
-744
-756
-766
-781
-791
-799
-805
-809
-814
-816
-818
-817
-814
-813
-810
-805
-800
-797
-792
-786
-781
-777
-774
-771
-767
-762
-760
-757
-757
-755
-755
-755
-757
-758
-759
-760
-760
-762
-764
-766
-769
-771
-773
-775
-772
-771
-771
-774
-774
-774
-774
-771
-771
-768
-766
-765
-762
-761
-759
-760
-757
-757
-755
-753
-752
-751
-751
-748
-748
-748
-746
-744
-744
-744
-743
-742
-742
-741
-738
-735
-738
-737
-736
-735
-734
-736
-734
-733
-734
-735
-733
-730
-727
-724
-728
-729
-727
-723
-714
-702
-696
-701
-705
-713
-721
-731
-739
-741
-750
-753
-756
-756
-757
-757
-752
-755
-753
-755
-755
-755
-753
-755
-756
-761
-779
-783
-761
-689
-628
-597
-582
-582
-586
-599
-638
-741
-810
-856
-898
-918
-923
-918
-901
-879
-860
-850
-841
-835
-825
-816
-807
-801
-794
-786
-780
-775
-769
-761
-756
-752
-746
-743
-739
-737
-733
-730
-726
-721
-721
-717
-713
-712
-708
-705
-701
-701
-698
-695
-691
-687
-683
-677
-671
-661
-654
-647
-639
-634
-631
-632
-630
-632
-636
-642
-646
-654
-665
-675
-690
-705
-719
-734
-748
-759
-769
-780
-789
-798
-804
-809
-814
-815
-816
-815
-815
-810
-806
-804
-798
-793
-786
-781
-775
-770
-764
-760
-756
-751
-748
-746
-746
-744
-744
-746
-748
-748
-750
-753
-755
-759
-760
-762
-764
-765
-765
-766
-768
-770
-768
-768
-766
-767
-765
-764
-764
-762
-760
-755
-755
-752
-751
-748
-748
-747
-743
-743
-739
-738
-737
-734
-733
-732
-732
-727
-726
-726
-725
-723
-721
-721
-717
-720
-718
-720
-719
-721
-718
-717
-719
-719
-716
-714
-712
-712
-710
-714
-709
-702
-688
-680
-681
-683
-691
-699
-708
-715
-721
-726
-730
-733
-737
-738
-740
-741
-741
-738
-739
-741
-741
-739
-739
-741
-743
-756
-780
-792
-751
-665
-605
-575
-564
-562
-568
-582
-621
-694
-771
-847
-890
-907
-912
-901
-878
-858
-849
-841
-833
-825
-816
-808
-800
-793
-786
-780
-774
-768
-761
-755
-751
-747
-742
-737
-734
-730
-726
-723
-721
-720
-716
-714
-712
-710
-707
-703
-703
-701
-699
-696
-693
-690
-685
-680
-674
-667
-660
-653
-649
-646
-645
-644
-645
-649
-654
-658
-663
-675
-687
-698
-713
-728
-743
-756
-768
-779
-791
-800
-807
-813
-816
-823
-825
-827
-827
-827
-824
-820
-820
-817
-814
-810
-806
-801
-795
-791
-788
-786
-781
-777
-775
-771
-769
-766
-766
-764
-765
-764
-764
-765
-765
-766
-767
-769
-770
-771
-772
-772
-775
-774
-774
-774
-774
-774
-772
-773
-772
-771
-769
-768
-766
-762
-762
-760
-759
-757
-755
-753
-751
-750
-746
-744
-743
-743
-740
-738
-737
-735
-732
-731
-730
-730
-728
-728
-728
-729
-729
-727
-727
-729
-727
-724
-722
-718
-721
-721
-719
-712
-698
-687
-684
-689
-692
-701
-710
-717
-725
-728
-735
-741
-742
-743
-744
-744
-744
-743
-743
-743
-742
-740
-740
-741
-744
-750
-772
-787
-764
-683
-615
-582
-564
-561
-566
-579
-614
-688
-758
-825
-873
-892
-900
-895
-873
-851
-840
-833
-825
-819
-809
-801
-793
-786
-779
-772
-766
-762
-756
-750
-745
-740
-733
-730
-726
-721
-719
-714
-712
-709
-707
-705
-703
-701
-698
-694
-689
-690
-689
-685
-682
-681
-676
-671
-664
-656
-649
-643
-636
-633
-632
-631
-631
-635
-636
-642
-649
-658
-667
-678
-692
-710
-725
-739
-753
-763
-774
-784
-791
-798
-804
-808
-809
-811
-813
-811
-808
-804
-803
-800
-796
-794
-792
-788
-782
-777
-775
-771
-767
-764
-761
-759
-758
-755
-753
-755
-755
-755
-756
-757
-758
-759
-761
-764
-763
-764
-765
-766
-766
-767
-768
-770
-770
-769
-767
-766
-766
-765
-763
-763
-762
-761
-758
-759
-758
-756
-753
-752
-751
-748
-748
-746
-745
-744
-743
-742
-739
-739
-738
-737
-736
-737
-735
-733
-735
-737
-735
-736
-737
-739
-735
-735
-732
-731
-730
-732
-732
-727
-720
-706
-698
-698
-701
-707
-713
-725
-733
-740
-745
-750
-753
-753
-755
-757
-759
-758
-757
-759
-753
-753
-752
-753
-754
-755
-764
-784
-787
-753
-680
-624
-594
-581
-578
-584
-598
-646
-734
-798
-854
-896
-912
-915
-910
-887
-865
-850
-843
-834
-827
-819
-813
-805
-797
-791
-785
-777
-771
-764
-759
-753
-747
-743
-740
-735
-730
-726
-723
-721
-719
-716
-714
-711
-709
-704
-703
-699
-697
-693
-689
-687
-682
-676
-669
-663
-653
-645
-640
-634
-632
-631
-627
-630
-634
-638
-641
-651
-660
-673
-685
-701
-716
-730
-744
-756
-770
-781
-789
-800
-808
-812
-813
-816
-816
-817
-814
-811
-809
-804
-800
-795
-791
-786
-779
-774
-768
-761
-759
-756
-753
-751
-748
-745
-743
-744
-746
-748
-748
-750
-750
-750
-750
-755
-757
-759
-759
-761
-760
-758
-760
-761
-762
-761
-761
-761
-759
-759
-758
-758
-756
-753
-752
-748
-750
-748
-746
-745
-744
-743
-737
-738
-735
-734
-731
-730
-728
-728
-723
-721
-721
-720
-720
-720
-721
-720
-718
-721
-721
-723
-721
-718
-715
-712
-714
-714
-712
-707
-696
-685
-680
-683
-687
-696
-705
-714
-721
-725
-731
-735
-738
-739
-739
-741
-739
-741
-741
-742
-742
-740
-739
-739
-743
-748
-766
-772
-752
-681
-615
-583
-568
-566
-569
-583
-624
-720
-788
-836
-880
-900
-904
-898
-878
-858
-840
-832
-825
-818
-810
-802
-795
-787
-780
-774
-768
-761
-757
-751
-746
-743
-739
-733
-730
-728
-725
-721
-717
-716
-713
-712
-709
-708
-706
-704
-701
-699
-697
-694
-690
-687
-683
-677
-671
-663
-654
-651
-645
-643
-642
-644
-646
-651
-654
-660
-667
-674
-688
-701
-716
-730
-745
-761
-772
-784
-795
-804
-813
-818
-825
-831
-834
-836
-836
-836
-832
-829
-825
-823
-817
-811
-804
-798
-793
-786
-781
-777
-773
-769
-764
-765
-763
-763
-762
-764
-765
-766
-767
-768
-772
-773
-776
-778
-779
-782
-782
-783
-784
-786
-786
-786
-786
-784
-783
-782
-780
-780
-777
-776
-773
-771
-769
-768
-765
-764
-761
-756
-755
-755
-752
-750
-748
-747
-745
-743
-739
-741
-738
-736
-734
-734
-733
-730
-730
-731
-731
-728
-727
-728
-726
-724
-720
-718
-720
-719
-718
-712
-701
-688
-683
-685
-692
-699
-707
-715
-721
-728
-732
-737
-741
-743
-743
-742
-745
-744
-743
-742
-743
-742
-741
-739
-741
-746
-764
-788
-789
-734
-649
-595
-571
-562
-561
-568
-585
-629
-701
-777
-847
-889
-904
-909
-898
-869
-851
-841
-832
-825
-816
-808
-799
-792
-784
-777
-769
-763
-757
-751
-745
-738
-734
-731
-726
-721
-718
-716
-712
-708
-706
-705
-702
-699
-698
-695
-694
-691
-689
-686
-684
-681
-675
-674
-669
-662
-653
-647
-640
-634
-629
-627
-628
-630
-631
-635
-640
-645
-652
-662
-674
-688
-701
-717
-731
-743
-755
-768
-779
-788
-795
-800
-805
-809
-809
-811
-812
-812
-809
-807
-807
-804
-801
-797
-793
-788
-784
-780
-776
-773
-768
-766
-762
-759
-757
-755
-753
-753
-753
-753
-751
-753
-755
-756
-757
-759
-760
-761
-763
-764
-765
-766
-768
-768
-766
-768
-766
-765
-765
-764
-762
-760
-760
-758
-757
-755
-755
-753
-752
-751
-750
-750
-748
-745
-744
-744
-743
-741
-741
-741
-739
-737
-737
-737
-735
-734
-735
-733
-735
-733
-732
-732
-733
-732
-730
-728
-723
-725
-726
-727
-721
-710
-696
-689
-692
-696
-703
-714
-722
-730
-734
-743
-748
-751
-752
-753
-755
-754
-755
-756
-756
-755
-753
-753
-751
-753
-755
-763
-787
-801
-781
-702
-635
-597
-579
-574
-580
-589
-620
-691
-761
-836
-887
-909
-918
-916
-894
-868
-856
-850
-843
-833
-825
-818
-809
-801
-794
-788
-781
-774
-768
-762
-755
-750
-744
-740
-736
-732
-728
-723
-721
-719
-716
-712
-710
-709
-706
-703
-701
-699
-696
-694
-691
-688
-680
-677
-669
-663
-654
-647
-643
-639
-636
-635
-637
-640
-643
-648
-655
-663
-674
-685
-699
-714
-728
-741
-753
-763
-774
-781
-791
-798
-804
-806
-809
-811
-813
-813
-810
-809
-807
-804
-801
-797
-794
-789
-786
-781
-778
-774
-768
-766
-764
-760
-757
-755
-753
-754
-752
-750
-750
-750
-751
-752
-753
-755
-755
-756
-759
-761
-761
-761
-762
-761
-761
-761
-760
-759
-759
-759
-755
-756
-755
-753
-750
-750
-747
-743
-743
-743
-741
-738
-737
-736
-734
-733
-731
-731
-728
-729
-728
-728
-727
-725
-723
-723
-724
-723
-722
-721
-721
-723
-721
-720
-718
-720
-719
-716
-716
-715
-714
-714
-713
-707
-696
-684
-678
-681
-686
-694
-703
-711
-720
-725
-732
-735
-738
-740
-739
-743
-743
-743
-742
-743
-742
-738
-740
-739
-743
-747
-762
-777
-764
-699
-627
-589
-571
-564
-568
-580
-609
-685
-758
-822
-875
-900
-909
-909
-893
-869
-852
-845
-837
-827
-819
-811
-803
-796
-788
-780
-770
-768
-761
-755
-750
-746
-741
-735
-734
-730
-726
-725
-724
-721
-716
-715
-712
-712
-708
-705
-703
-701
-699
-697
-696
-693
-686
-679
-672
-665
-655
-648
-644
-639
-636
-636
-639
-640
-645
-649
-657
-666
-676
-692
-707
-724
-739
-753
-766
-780
-794
-804
-813
-820
-824
-827
-829
-832
-832
-831
-827
-827
-822
-817
-813
-807
-804
-797
-792
-788
-782
-779
-773
-770
-767
-765
-764
-762
-760
-761
-761
-760
-762
-763
-764
-766
-768
-770
-768
-770
-772
-774
-775
-776
-777
-775
-777
-775
-773
-772
-771
-770
-769
-766
-764
-762
-761
-761
-761
-755
-755
-753
-752
-750
-748
-745
-743
-743
-739
-739
-736
-734
-733
-734
-732
-730
-728
-729
-726
-727
-726
-728
-726
-725
-725
-725
-721
-717
-716
-715
-717
-716
-710
-703
-690
-685
-683
-689
-694
-703
-712
-720
-727
-734
-736
-738
-741
-741
-741
-742
-743
-741
-735
-738
-736
-736
-736
-741
-750
-768
-771
-737
-660
-600
-570
-559
-558
-565
-578
-633
-738
-797
-845
-886
-901
-904
-896
-874
-853
-838
-830
-822
-812
-805
-797
-791
-784
-776
-768
-762
-757
-750
-744
-738
-734
-730
-725
-722
-717
-716
-714
-710
-707
-704
-702
-697
-697
-694
-690
-688
-685
-685
-681
-678
-671
-668
-662
-654
-645
-639
-634
-626
-624
-624
-624
-626
-629
-635
-641
-651
-660
-675
-690
-705
-721
-735
-750
-762
-775
-784
-794
-802
-807
-812
-816
-820
-820
-820
-818
-815
-812
-807
-804
-800
-793
-788
-782
-777
-771
-768
-762
-760
-757
-753
-753
-751
-750
-750
-752
-752
-754
-756
-760
-762
-763
-765
-768
-770
-771
-771
-773
-773
-774
-774
-773
-774
-774
-773
-772
-771
-770
-768
-766
-764
-762
-760
-758
-756
-753
-753
-750
-750
-748
-746
-746
-744
-743
-742
-740
-740
-738
-737
-734
-737
-736
-735
-735
-736
-735
-732
-734
-735
-734
-728
-726
-726
-728
-730
-725
-717
-703
-696
-696
-699
-707
-716
-725
-732
-738
-743
-748
-751
-753
-755
-755
-756
-757
-756
-757
-755
-756
-755
-753
-753
-757
-770
-794
-804
-761
-675
-615
-582
-573
-573
-579
-595
-636
-714
-794
-865
-903
-921
-925
-915
-888
-868
-859
-851
-843
-836
-827
-817
-809
-803
-792
-787
-779
-774
-768
-760
-755
-751
-747
-742
-737
-734
-731
-725
-723
-722
-717
-716
-712
-712
-706
-704
-701
-697
-696
-692
-689
-685
-679
-672
-663
-655
-649
-642
-637
-635
-634
-634
-636
-640
-646
-652
-660
-671
-685
-699
-712
-728
-741
-753
-764
-774
-786
-793
-800
-804
-809
-813
-813
-812
-812
-811
-809
-806
-804
-803
-798
-793
-789
-786
-781
-776
-773
-768
-764
-761
-757
-756
-754
-751
-752
-751
-750
-750
-750
-751
-751
-751
-753
-753
-755
-755
-753
-756
-757
-756
-757
-759
-758
-755
-756
-757
-755
-753
-752
-752
-750
-750
-746
-746
-746
-743
-742
-739
-740
-738
-735
-735
-735
-734
-730
-730
-729
-728
-726
-725
-725
-724
-722
-720
-721
-721
-721
-720
-718
-718
-716
-716
-712
-710
-710
-712
-712
-706
-698
-681
-675
-675
-680
-689
-696
-708
-716
-723
-728
-735
-737
-736
-740
-741
-741
-741
-740
-740
-737
-738
-736
-737
-738
-740
-749
-771
-783
-755
-671
-611
-577
-562
-559
-566
-580
-621
-698
-766
-836
-880
-899
-908
-902
-880
-856
-845
-836
-832
-822
-814
-805
-797
-788
-779
-776
-769
-761
-756
-751
-746
-739
-735
-732
-730
-726
-722
-717
-716
-714
-710
-708
-707
-706
-701
-698
-698
-696
-693
-691
-689
-687
-682
-676
-672
-666
-659
-653
-647
-643
-641
-640
-642
-646
-649
-654
-660
-668
-678
-688
-701
-717
-732
-744
-759
-771
-782
-792
-800
-808
-815
-818
-820
-823
-824
-824
-822
-820
-820
-815
-813
-809
-806
-802
-796
-792
-789
-786
-780
-775
-773
-771
-767
-765
-766
-764
-764
-764
-764
-763
-764
-763
-763
-766
-768
-766
-770
-771
-771
-771
-771
-773
-772
-771
-771
-771
-771
-770
-769
-770
-769
-768
-764
-761
-761
-759
-759
-757
-755
-755
-751
-750
-750
-748
-746
-744
-744
-743
-739
-737
-737
-735
-733
-732
-733
-732
-730
-728
-728
-728
-726
-726
-728
-726
-725
-722
-720
-721
-722
-718
-710
-703
-691
-687
-689
-694
-702
-710
-717
-724
-730
-735
-740
-743
-744
-744
-743
-743
-744
-746
-743
-743
-742
-740
-741
-741
-744
-758
-771
-760
-701
-628
-586
-568
-564
-568
-578
-604
-680
-760
-816
-862
-894
-904
-902
-889
-865
-849
-836
-830
-822
-815
-806
-795
-789
-784
-777
-769
-763
-757
-751
-746
-741
-737
-734
-731
-727
-725
-722
-716
-715
-712
-710
-707
-703
-702
-701
-698
-694
-690
-688
-684
-681
-676
-672
-665
-657
-649
-642
-636
-630
-628
-627
-629
-630
-631
-633
-637
-645
-651
-664
-677
-692
-708
-723
-738
-752
-766
-777
-788
-797
-804
-808
-813
-818
-818
-819
-818
-816
-814
-810
-806
-800
-794
-789
-786
-782
-775
-770
-766
-762
-760
-755
-752
-749
-748
-746
-746
-748
-750
-751
-752
-755
-756
-756
-758
-761
-762
-766
-768
-769
-771
-772
-771
-771
-770
-769
-768
-767
-767
-766
-764
-761
-761
-761
-761
-759
-758
-757
-753
-751
-751
-751
-746
-745
-745
-743
-741
-739
-739
-737
-735
-735
-734
-734
-735
-735
-734
-734
-735
-734
-735
-733
-730
-728
-728
-730
-726
-721
-710
-702
-699
-701
-706
-713
-725
-732
-738
-744
-751
-753
-753
-755
-757
-758
-758
-756
-757
-755
-754
-753
-753
-753
-755
-762
-782
-796
-779
-705
-634
-595
-575
-568
-574
-584
-613
-701
-780
-838
-887
-914
-922
-925
-910
-886
-867
-856
-849
-837
-831
-824
-815
-807
-800
-792
-784
-779
-772
-766
-760
-755
-749
-746
-741
-737
-733
-730
-728
-723
-721
-718
-713
-712
-710
-705
-705
-701
-698
-694
-692
-689
-681
-676
-669
-662
-651
-645
-639
-635
-631
-631
-633
-636
-639
-642
-650
-660
-671
-685
-699
-714
-728
-743
-757
-769
-780
-789
-799
-804
-811
-815
-818
-820
-820
-820
-820
-819
-816
-812
-806
-802
-798
-791
-786
-780
-777
-770
-763
-761
-756
-752
-748
-747
-745
-745
-744
-745
-746
-747
-748
-748
-752
-753
-755
-757
-760
-761
-761
-762
-764
-765
-764
-764
-764
-762
-762
-761
-761
-759
-757
-753
-752
-753
-750
-747
-748
-744
-743
-739
-739
-738
-736
-735
-733
-734
-730
-729
-726
-728
-726
-725
-724
-721
-723
-721
-722
-721
-721
-719
-719
-717
-712
-710
-708
-710
-711
-707
-698
-683
-673
-674
-679
-687
-696
-704
-711
-719
-726
-732
-733
-736
-739
-738
-739
-740
-741
-741
-739
-739
-737
-738
-738
-741
-750
-774
-791
-766
-686
-615
-579
-562
-557
-561
-572
-609
-686
-766
-843
-891
-910
-918
-912
-889
-868
-859
-852
-843
-833
-825
-815
-807
-797
-791
-782
-773
-768
-761
-755
-748
-743
-741
-734
-730
-726
-724
-721
-719
-715
-712
-712
-708
-705
-703
-701
-698
-694
-694
-691
-689
-683
-680
-675
-667
-662
-654
-649
-643
-639
-635
-634
-636
-638
-642
-650
-658
-667
-676
-694
-710
-725
-739
-755
-768
-775
-788
-798
-805
-810
-815
-819
-817
-820
-819
-820
-820
-818
-815
-811
-812
-808
-804
-800
-797
-793
-787
-784
-780
-777
-773
-770
-768
-766
-765
-762
-763
-763
-764
-763
-764
-764
-762
-766
-766
-768
-770
-770
-770
-771
-772
-772
-772
-773
-774
-771
-771
-770
-768
-768
-765
-765
-763
-762
-760
-757
-757
-755
-753
-752
-751
-748
-746
-746
-744
-743
-742
-741
-741
-736
-738
-738
-738
-738
-737
-736
-735
-733
-732
-731
-730
-729
-726
-726
-725
-721
-717
-715
-715
-716
-714
-708
-699
-685
-679
-678
-685
-692
-702
-712
-720
-725
-731
-735
-738
-741
-742
-741
-741
-743
-742
-741
-743
-740
-741
-739
-742
-745
-756
-777
-784
-744
-662
-604
-573
-562
-559
-564
-580
-629
-714
-791
-858
-898
-913
-917
-907
-886
-867
-858
-850
-842
-833
-824
-813
-804
-798
-788
-779
-773
-766
-760
-750
-746
-741
-735
-730
-726
-722
-717
-713
-710
-707
-705
-704
-701
-699
-697
-694
-691
-688
-686
-681
-677
-674
-668
-663
-654
-646
-638
-630
-626
-619
-620
-619
-621
-624
-627
-633
-639
-652
-665
-680
-696
-712
-726
-741
-753
-764
-772
-784
-791
-797
-802
-804
-805
-806
-809
-808
-805
-804
-801
-798
-795
-791
-788
-784
-778
-774
-771
-768
-762
-759
-758
-755
-751
-748
-746
-746
-746
-747
-748
-750
-750
-751
-752
-753
-756
-757
-760
-760
-761
-761
-761
-764
-764
-764
-764
-764
-762
-760
-757
-756
-755
-754
-752
-753
-753
-750
-750
-751
-748
-748
-747
-746
-744
-743
-741
-741
-741
-739
-737
-739
-741
-739
-739
-741
-741
-741
-740
-739
-736
-733
-734
-732
-733
-733
-732
-733
-733
-730
-726
-726
-726
-726
-723
-718
-711
-699
-696
-697
-703
-712
-721
-732
-738
-743
-748
-750
-752
-754
-755
-755
-755
-756
-755
-757
-755
-756
-753
-753
-756
-761
-776
-784
-770
-703
-634
-597
-579
-575
-578
-589
-621
-724
-814
-865
-904
-927
-934
-929
-917
-898
-880
-865
-856
-848
-837
-830
-820
-814
-806
-800
-791
-782
-777
-770
-764
-758
-753
-750
-743
-738
-734
-731
-728
-725
-722
-720
-716
-712
-710
-708
-707
-703
-703
-699
-694
-689
-684
-678
-671
-660
-652
-643
-636
-629
-625
-622
-622
-622
-625
-630
-636
-645
-654
-669
-684
-701
-716
-731
-746
-759
-770
-782
-791
-798
-802
-809
-813
-815
-815
-815
-812
-811
-806
-800
-798
-793
-788
-782
-779
-772
-766
-763
-759
-755
-751
-750
-748
-746
-746
-746
-746
-748
-749
-752
-751
-757
-757
-759
-761
-761
-763
-764
-766
-766
-767
-766
-766
-768
-766
-765
-764
-762
-761
-757
-756
-755
-753
-750
-748
-747
-744
-744
-743
-741
-739
-738
-736
-735
-734
-734
-732
-730
-732
-731
-730
-730
-730
-730
-729
-728
-727
-728
-726
-725
-725
-725
-723
-720
-721
-721
-720
-716
-713
-712
-712
-714
-712
-707
-696
-682
-681
-682
-690
-696
-706
-714
-722
-726
-731
-737
-739
-741
-743
-743
-744
-744
-745
-744
-744
-745
-743
-743
-746
-750
-762
-787
-793
-746
-660
-603
-577
-566
-566
-573
-589
-636
-714
-787
-854
-894
-909
-916
-908
-886
-869
-859
-853
-847
-837
-829
-818
-810
-801
-795
-786
-779
-772
-765
-761
-753
-750
-744
-739
-737
-732
-729
-725
-723
-720
-717
-715
-712
-711
-708
-707
-704
-703
-701
-697
-696
-693
-689
-682
-676
-670
-661
-655
-648
-645
-643
-642
-640
-642
-643
-649
-656
-663
-673
-687
-698
-715
-730
-744
-757
-770
-781
-789
-798
-805
-811
-817
-820
-822
-822
-824
-822
-822
-820
-819
-815
-810
-809
-806
-803
-799
-793
-790
-787
-781
-775
-775
-770
-767
-766
-764
-764
-761
-763
-762
-763
-762
-763
-765
-765
-768
-768
-769
-771
-771
-771
-771
-772
-771
-770
-769
-769
-768
-766
-765
-764
-763
-761
-760
-759
-758
-755
-751
-751
-750
-748
-747
-745
-743
-741
-741
-739
-739
-738
-736
-735
-735
-735
-733
-733
-733
-734
-732
-731
-728
-728
-726
-725
-726
-723
-722
-721
-718
-717
-713
-710
-710
-712
-712
-703
-693
-681
-677
-678
-683
-692
-703
-708
-716
-723
-728
-733
-734
-738
-740
-738
-740
-741
-741
-742
-741
-740
-739
-739
-737
-741
-750
-773
-787
-765
-688
-619
-582
-565
-562
-566
-574
-602
-669
-745
-816
-870
-895
-908
-908
-889
-869
-855
-849
-841
-832
-824
-814
-806
-796
-789
-780
-774
-766
-759
-754
-748
-742
-736
-731
-726
-718
-718
-716
-714
-710
-707
-707
-705
-701
-697
-697
-695
-693
-691
-687
-686
-681
-680
-676
-672
-667
-658
-650
-641
-636
-630
-627
-626
-625
-625
-627
-633
-639
-646
-657
-669
-682
-698
-713
-728
-743
-755
-765
-777
-784
-792
-797
-802
-806
-809
-809
-807
-809
-809
-808
-806
-804
-802
-795
-792
-788
-786
-781
-777
-774
-769
-767
-764
-761
-760
-758
-757
-754
-756
-756
-755
-755
-757
-759
-759
-761
-763
-765
-765
-765
-766
-764
-766
-764
-766
-765
-765
-764
-762
-763
-763
-762
-761
-760
-759
-755
-755
-755
-753
-752
-751
-751
-750
-748
-748
-750
-748
-746
-744
-743
-746
-743
-743
-742
-741
-740
-735
-738
-736
-736
-735
-735
-735
-731
-733
-732
-732
-733
-732
-731
-729
-728
-724
-724
-725
-725
-726
-718
-714
-701
-696
-694
-698
-706
-716
-723
-732
-739
-745
-746
-750
-753
-755
-753
-755
-758
-759
-757
-756
-758
-757
-755
-753
-759
-770
-786
-784
-744
-667
-615
-589
-578
-575
-582
-602
-662
-765
-828
-874
-910
-925
-929
-919
-900
-882
-868
-856
-847
-838
-829
-820
-811
-802
-792
-786
-777
-771
-766
-761
-753
-748
-744
-740
-736
-733
-730
-726
-723
-719
-717
-714
-711
-710
-707
-705
-701
-699
-696
-693
-687
-681
-678
-670
-662
-653
-644
-636
-629
-625
-624
-623
-622
-626
-629
-635
-642
-651
-665
-679
-694
-710
-723
-737
-751
-764
-775
-787
-795
-802
-807
-812
-815
-813
-815
-813
-813
-807
-804
-800
-793
-788
-783
-778
-774
-768
-762
-756
-755
-751
-750
-746
-746
-745
-741
-745
-747
-748
-748
-751
-752
-753
-757
-759
-761
-763
-763
-763
-764
-765
-763
-764
-764
-764
-763
-761
-761
-759
-757
-755
-753
-753
-753
-751
-746
-747
-744
-744
-743
-742
-739
-734
-735
-734
-732
-731
-729
-728
-726
-726
-724
-724
-725
-724
-723
-723
-726
-725
-725
-726
-726
-725
-720
-718
-717
-718
-719
-716
-711
-699
-689
-687
-691
-698
-705
-712
-721
-728
-733
-738
-743
-744
-744
-746
-746
-746
-746
-746
-744
-744
-743
-743
-746
-750
-764
-786
-789
-739
-654
-600
-574
-563
-563
-570
-589
-653
-736
-807
-868
-901
-914
-917
-904
-880
-864
-856
-848
-841
-833
-824
-814
-807
-800
-793
-786
-780
-774
-766
-760
-755
-752
-746
-743
-741
-737
-735
-732
-728
-726
-725
-721
-719
-717
-714
-712
-708
-706
-705
-701
-697
-694
-689
-681
-674
-665
-655
-647
-640
-639
-636
-637
-638
-638
-643
-647
-654
-666
-679
-694
-710
-728
-743
-757
-770
-784
-795
-802
-811
-816
-820
-825
-828
-830
-829
-832
-827
-825
-822
-819
-814
-810
-805
-799
-793
-789
-786
-780
-774
-770
-766
-763
-761
-759
-759
-759
-758
-758
-761
-762
-764
-764
-765
-767
-766
-769
-771
-772
-771
-773
-771
-770
-772
-771
-771
-772
-771
-769
-766
-765
-763
-761
-760
-758
-757
-753
-752
-749
-748
-746
-743
-742
-741
-739
-737
-737
-735
-733
-730
-728
-729
-728
-728
-729
-730
-730
-730
-728
-725
-723
-720
-721
-721
-716
-705
-693
-689
-687
-692
-700
-709
-717
-722
-726
-732
-735
-737
-738
-741
-742
-743
-741
-741
-740
-738
-736
-736
-735
-738
-743
-760
-779
-768
-701
-625
-584
-568
-562
-568
-578
-604
-673
-750
-813
-863
-887
-895
-893
-879
-856
-838
-831
-825
-815
-807
-800
-792
-785
-778
-772
-765
-758
-752
-747
-741
-736
-732
-728
-725
-721
-718
-716
-714
-711
-707
-707
-705
-702
-701
-696
-696
-692
-689
-684
-683
-677
-673
-666
-660
-653
-643
-638
-632
-627
-626
-625
-627
-629
-633
-638
-645
-655
-665
-678
-693
-708
-723
-736
-750
-758
-771
-779
-789
-793
-801
-805
-809
-811
-810
-809
-809
-805
-802
-800
-796
-791
-786
-780
-775
-770
-765
-760
-756
-752
-750
-748
-746
-744
-745
-744
-746
-748
-751
-752
-755
-758
-761
-764
-766
-770
-771
-771
-774
-776
-777
-777
-778
-778
-779
-777
-775
-777
-775
-772
-770
-770
-770
-766
-765
-764
-763
-760
-759
-758
-755
-753
-751
-750
-750
-748
-747
-744
-745
-744
-743
-743
-742
-741
-739
-741
-741
-739
-739
-739
-740
-736
-735
-733
-735
-737
-734
-727
-712
-703
-701
-703
-712
-718
-727
-731
-740
-746
-751
-753
-757
-760
-758
-761
-761
-762
-760
-759
-758
-759
-757
-757
-762
-774
-802
-815
-771
-681
-619
-593
-581
-582
-588
-598
-624
-679
-767
-846
-889
-912
-919
-907
-883
-870
-860
-851
-842
-831
-823
-814
-806
-798
-789
-784
-778
-771
-766
-761
-755
-751
-747
-741
-737
-733
-730
-725
-723
-720
-717
-715
-712
-710
-707
-706
-702
-699
-698
-696
-691
-687
-683
-676
-669
-660
-653
-644
-636
-630
-625
-626
-623
-624
-627
-634
-640
-648
-662
-676
-691
-707
-722
-736
-750
-761
-772
-782
-789
-795
-800
-802
-805
-805
-806
-806
-803
-800
-798
-796
-791
-789
-784
-782
-777
-773
-769
-766
-762
-756
-754
-753
-750
-748
-748
-747
-747
-746
-746
-748
-750
-751
-753
-753
-757
-756
-758
-759
-760
-761
-759
-762
-761
-761
-760
-760
-759
-758
-756
-755
-754
-752
-750
-749
-746
-747
-744
-744
-743
-742
-739
-737
-737
-734
-733
-731
-730
-730
-728
-726
-725
-725
-725
-724
-726
-725
-726
-723
-725
-725
-722
-718
-717
-719
-717
-719
-712
-703
-689
-685
-687
-690
-699
-708
-716
-723
-730
-735
-738
-742
-743
-743
-743
-744
-744
-742
-743
-743
-743
-740
-739
-743
-750
-772
-788
-767
-687
-618
-582
-566
-563
-568
-580
-618
-699
-770
-839
-885
-902
-910
-902
-877
-856
-843
-838
-831
-824
-815
-806
-798
-789
-785
-776
-770
-765
-761
-755
-748
-746
-741
-737
-734
-730
-727
-723
-721
-718
-718
-717
-713
-712
-706
-707
-705
-703
-699
-698
-694
-688
-687
-681
-675
-668
-662
-656
-648
-647
-647
-645
-645
-646
-651
-654
-662
-671
-683
-694
-708
-721
-732
-751
-762
-774
-784
-794
-802
-805
-814
-817
-820
-822
-822
-822
-820
-820
-815
-815
-813
-807
-805
-803
-799
-792
-790
-786
-782
-779
-775
-772
-770
-768
-765
-765
-764
-764
-764
-765
-766
-765
-765
-766
-769
-771
-771
-770
-772
-774
-775
-773
-774
-774
-773
-771
-771
-770
-768
-766
-764
-764
-761
-761
-759
-757
-755
-753
-750
-746
-746
-743
-741
-739
-737
-735
-733
-733
-732
-730
-728
-729
-730
-729
-728
-728
-730
-730
-731
-730
-727
-725
-721
-725
-725
-723
-713
-701
-690
-689
-691
-698
-708
-717
-725
-730
-737
-743
-743
-746
-747
-748
-747
-746
-746
-744
-744
-744
-743
-743
-743
-742
-746
-762
-767
-749
-682
-618
-584
-569
-565
-570
-586
-618
-701
-769
-815
-856
-878
-889
-887
-870
-847
-833
-825
-817
-811
-806
-795
-789
-780
-775
-766
-762
-756
-753
-747
-743
-739
-732
-731
-725
-721
-717
-717
-714
-711
-709
-707
-706
-701
-699
-697
-694
-690
-687
-687
-685
-683
-678
-673
-668
-660
-653
-646
-642
-636
-631
-628
-626
-631
-631
-635
-643
-649
-656
-665
-679
-691
-708
-721
-735
-748
-758
-771
-782
-791
-797
-804
-809
-811
-813
-811
-809
-808
-807
-802
-797
-793
-789
-784
-781
-777
-771
-767
-764
-761
-761
-759
-755
-755
-753
-753
-753
-755
-753
-753
-755
-756
-759
-760
-762
-763
-766
-768
-768
-770
-771
-772
-771
-770
-770
-771
-770
-768
-768
-767
-765
-762
-761
-761
-757
-753
-753
-752
-748
-747
-744
-744
-742
-739
-738
-738
-737
-734
-732
-735
-734
-735
-738
-739
-739
-738
-739
-739
-741
-737
-733
-733
-733
-735
-733
-727
-717
-705
-701
-701
-708
-714
-723
-730
-739
-745
-750
-752
-756
-756
-756
-753
-755
-753
-755
-753
-753
-753
-750
-747
-747
-752
-764
-770
-753
-692
-632
-595
-582
-580
-585
-596
-625
-720
-802
-846
-881
-906
-909
-904
-889
-868
-847
-833
-828
-820
-811
-804
-797
-789
-782
-776
-770
-766
-764
-760
-753
-748
-745
-742
-738
-734
-732
-728
-722
-722
-720
-717
-715
-712
-711
-709
-706
-701
-698
-696
-692
-689
-685
-681
-672
-665
-657
-651
-643
-637
-633
-631
-633
-634
-636
-641
-648
-654
-665
-676
-690
-706
-721
-737
-751
-763
-775
-785
-797
-804
-813
-817
-822
-823
-822
-821
-818
-815
-811
-805
-801
-796
-789
-784
-779
-772
-766
-761
-759
-755
-750
-749
-748
-745
-746
-745
-746
-744
-750
-749
-752
-753
-756
-757
-756
-762
-762
-765
-766
-768
-768
-766
-766
-768
-769
-768
-766
-766
-764
-761
-758
-757
-755
-751
-749
-746
-743
-741
-738
-737
-737
-736
-734
-731
-730
-728
-728
-727
-729
-729
-728
-726
-730
-730
-728
-725
-724
-724
-725
-725
-720
-712
-699
-690
-689
-694
-701
-708
-716
-725
-730
-735
-739
-743
-745
-745
-746
-747
-748
-745
-744
-743
-743
-741
-740
-741
-743
-750
-771
-789
-770
-690
-618
-580
-565
-562
-567
-579
-608
-681
-748
-816
-868
-891
-898
-894
-874
-851
-836
-828
-824
-815
-807
-800
-792
-786
-779
-773
-767
-760
-756
-751
-747
-741
-738
-734
-728
-726
-724
-720
-716
-716
-714
-711
-708
-707
-705
-701
-700
-698
-697
-693
-690
-687
-681
-678
-670
-664
-656
-649
-643
-639
-638
-636
-638
-640
-647
-651
-657
-667
-679
-692
-706
-721
-738
-751
-765
-778
-790
-800
-807
-815
-818
-825
-827
-828
-829
-830
-829
-825
-825
-823
-818
-815
-810
-807
-800
-796
-791
-788
-784
-779
-773
-769
-768
-765
-761
-761
-758
-760
-757
-759
-760
-761
-761
-764
-766
-767
-768
-768
-771
-772
-772
-772
-774
-775
-771
-774
-774
-772
-772
-771
-770
-769
-768
-765
-764
-762
-761
-757
-753
-753
-750
-748
-747
-746
-743
-741
-739
-739
-739
-738
-738
-737
-738
-738
-735
-734
-732
-730
-731
-732
-730
-719
-707
-694
-693
-692
-699
-708
-717
-725
-730
-737
-743
-745
-746
-747
-749
-748
-748
-748
-748
-746
-744
-743
-741
-741
-741
-746
-769
-788
-778
-706
-627
-584
-564
-559
-562
-572
-594
-653
-726
-797
-856
-883
-894
-892
-874
-847
-833
-826
-820
-813
-806
-799
-789
-782
-775
-770
-765
-758
-753
-750
-744
-739
-735
-731
-727
-723
-720
-716
-712
-710
-707
-705
-701
-699
-697
-692
-692
-690
-687
-683
-683
-679
-673
-671
-665
-659
-651
-643
-638
-632
-627
-626
-625
-627
-630
-634
-639
-646
-655
-667
-679
-693
-709
-723
-736
-748
-761
-770
-781
-789
-796
-800
-802
-806
-807
-807
-807
-806
-806
-802
-798
-796
-792
-789
-784
-781
-776
-772
-769
-765
-762
-759
-756
-753
-753
-750
-748
-749
-750
-750
-748
-748
-750
-752
-751
-753
-755
-757
-759
-760
-762
-764
-764
-763
-764
-765
-763
-763
-764
-762
-761
-757
-759
-757
-756
-753
-753
-751
-748
-745
-744
-743
-741
-740
-738
-735
-737
-734
-737
-738
-738
-737
-735
-738
-740
-739
-735
-733
-733
-730
-732
-728
-717
-701
-696
-698
-701
-708
-718
-728
-735
-740
-746
-750
-754
-753
-755
-755
-758
-758
-755
-757
-756
-755
-752
-751
-752
-752
-761
-777
-782
-746
-671
-618
-590
-580
-579
-584
-603
-651
-735
-797
-853
-893
-907
-914
-905
-883
-858
-851
-844
-838
-829
-822
-814
-806
-801
-793
-788
-781
-777
-772
-766
-763
-756
-751
-746
-743
-738
-735
-732
-730
-726
-722
-720
-718
-718
-715
-710
-708
-705
-701
-698
-694
-689
-684
-678
-671
-666
-656
-649
-644
-642
-639
-636
-639
-642
-645
-651
-658
-668
-677
-693
-707
-723
-738
-751
-765
-777
-787
-795
-804
-810
-815
-818
-818
-818
-816
-813
-810
-809
-807
-802
-797
-792
-789
-782
-779
-774
-769
-765
-761
-759
-756
-753
-750
-750
-748
-748
-747
-746
-748
-748
-750
-753
-756
-757
-757
-761
-764
-764
-763
-763
-765
-766
-764
-764
-764
-764
-762
-761
-759
-758
-755
-755
-755
-751
-750
-747
-746
-743
-740
-738
-735
-733
-732
-731
-729
-730
-730
-730
-730
-730
-727
-724
-726
-726
-726
-725
-723
-725
-722
-724
-716
-709
-696
-690
-689
-691
-699
-707
-717
-725
-730
-736
-739
-741
-743
-745
-744
-743
-744
-746
-744
-741
-743
-742
-741
-741
-744
-755
-768
-764
-716
-640
-593
-570
-564
-564
-573
-594
-665
-759
-812
-856
-886
-897
-896
-885
-866
-846
-833
-822
-818
-811
-804
-794
-787
-782
-774
-770
-762
-760
-756
-750
-744
-739
-736
-732
-728
-726
-723
-721
-717
-717
-714
-712
-709
-707
-704
-702
-699
-697
-696
-693
-689
-685
-680
-671
-663
-656
-649
-643
-638
-636
-636
-637
-639
-641
-646
-653
-660
-669
-683
-698
-712
-728
-743
-756
-768
-779
-789
-798
-806
-812
-816
-820
-824
-824
-824
-824
-820
-816
-813
-809
-805
-799
-794
-789
-784
-779
-772
-770
-766
-762
-760
-759
-757
-757
-757
-757
-760
-761
-762
-763
-763
-767
-770
-771
-775
-778
-778
-779
-781
-782
-783
-784
-784
-784
-782
-782
-782
-781
-780
-778
-777
-774
-773
-770
-768
-766
-764
-761
-759
-757
-753
-751
-750
-748
-748
-745
-743
-743
-743
-743
-742
-742
-743
-743
-740
-738
-736
-735
-735
-736
-732
-723
-710
-698
-696
-699
-706
-714
-723
-731
-734
-741
-746
-748
-750
-750
-751
-750
-751
-750
-750
-750
-746
-744
-743
-743
-745
-750
-769
-788
-779
-705
-630
-590
-570
-564
-566
-575
-598
-656
-730
-806
-865
-888
-900
-899
-877
-851
-837
-831
-825
-816
-808
-800
-792
-786
-779
-771
-766
-761
-756
-751
-746
-740
-735
-730
-727
-724
-720
-716
-714
-712
-708
-705
-703
-701
-696
-692
-691
-689
-688
-685
-682
-680
-673
-671
-666
-659
-652
-644
-636
-632
-629
-625
-624
-627
-630
-631
-637
-645
-653
-665
-678
-694
-708
-723
-735
-746
-759
-769
-777
-786
-793
-798
-801
-804
-806
-807
-807
-805
-805
-801
-800
-797
-795
-792
-789
-784
-780
-777
-772
-770
-765
-762
-759
-755
-752
-750
-750
-748
-748
-747
-746
-747
-746
-749
-748
-750
-751
-753
-755
-755
-757
-758
-759
-761
-760
-760
-761
-761
-761
-760
-760
-760
-757
-757
-757
-755
-753
-751
-750
-748
-744
-742
-742
-741
-738
-737
-735
-733
-732
-730
-728
-730
-732
-732
-730
-732
-733
-733
-730
-728
-728
-727
-728
-729
-721
-709
-692
-691
-692
-699
-707
-718
-726
-734
-738
-741
-746
-749
-750
-751
-751
-751
-750
-750
-750
-750
-748
-746
-746
-747
-750
-757
-782
-796
-773
-697
-630
-595
-578
-573
-577
-589
-620
-691
-764
-834
-883
-904
-913
-912
-889
-864
-850
-843
-837
-831
-823
-812
-807
-800
-792
-786
-781
-776
-769
-765
-761
-757
-751
-746
-741
-736
-734
-731
-728
-726
-725
-721
-717
-717
-716
-713
-709
-708
-706
-703
-701
-697
-694
-690
-685
-680
-675
-668
-660
-654
-650
-647
-645
-645
-647
-649
-651
-658
-665
-676
-687
-701
-714
-730
-742
-755
-768
-778
-788
-797
-805
-809
-815
-818
-821
-822
-820
-818
-815
-813
-810
-806
-804
-800
-796
-791
-789
-786
-781
-775
-772
-769
-764
-762
-759
-757
-755
-753
-751
-753
-753
-753
-753
-755
-756
-757
-759
-760
-761
-763
-764
-766
-766
-765
-764
-763
-763
-764
-764
-763
-763
-762
-761
-759
-755
-755
-751
-750
-750
-747
-744
-739
-738
-737
-734
-731
-730
-730
-726
-727
-727
-728
-728
-728
-729
-730
-728
-726
-726
-725
-723
-719
-718
-718
-719
-716
-708
-698
-685
-683
-684
-689
-699
-708
-719
-725
-730
-735
-735
-737
-738
-741
-740
-741
-742
-741
-742
-738
-737
-735
-734
-735
-736
-748
-762
-763
-722
-648
-596
-570
-559
-557
-566
-582
-635
-734
-797
-845
-882
-900
-904
-894
-872
-851
-838
-828
-822
-814
-806
-798
-789
-782
-774
-768
-762
-756
-752
-746
-743
-738
-737
-735
-732
-728
-725
-722
-717
-716
-713
-712
-708
-707
-704
-701
-698
-696
-693
-690
-687
-683
-678
-674
-667
-658
-650
-643
-639
-633
-631
-631
-631
-633
-636
-641
-648
-658
-667
-683
-697
-714
-730
-743
-759
-770
-780
-791
-799
-806
-810
-817
-821
-822
-822
-822
-818
-814
-810
-806
-800
-797
-791
-786
-779
-777
-770
-766
-764
-762
-758
-755
-757
-758
-756
-756
-759
-760
-758
-762
-764
-766
-768
-771
-772
-773
-777
-779
-781
-782
-783
-782
-779
-782
-779
-779
-779
-779
-777
-771
-774
-771
-771
-770
-768
-766
-762
-763
-760
-760
-758
-756
-753
-753
-750
-748
-746
-744
-743
-743
-741
-741
-741
-743
-741
-741
-743
-742
-738
-734
-734
-733
-734
-730
-725
-711
-701
-699
-701
-708
-715
-723
-731
-737
-743
-748
-752
-754
-755
-755
-755
-755
-753
-753
-752
-753
-750
-749
-748
-750
-761
-781
-791
-762
-679
-614
-579
-568
-566
-572
-586
-632
-724
-787
-842
-885
-900
-904
-894
-873
-853
-839
-831
-825
-818
-811
-802
-794
-786
-779
-775
-768
-762
-757
-752
-747
-743
-738
-733
-730
-727
-723
-718
-717
-716
-712
-710
-707
-707
-703
-700
-697
-692
-692
-687
-683
-679
-675
-668
-662
-654
-645
-640
-634
-631
-630
-629
-631
-633
-638
-641
-650
-658
-672
-685
-696
-712
-726
-739
-752
-763
-775
-782
-792
-799
-804
-809
-811
-813
-812
-813
-810
-807
-805
-801
-797
-789
-788
-783
-778
-773
-768
-764
-760
-755
-751
-749
-746
-745
-743
-745
-745
-743
-746
-746
-750
-750
-751
-753
-755
-757
-759
-761
-762
-762
-762
-762
-764
-763
-763
-762
-763
-762
-758
-759
-756
-756
-755
-752
-751
-748
-748
-745
-743
-741
-739
-738
-735
-737
-734
-732
-730
-729
-726
-723
-726
-728
-727
-726
-726
-728
-725
-725
-723
-721
-720
-722
-723
-716
-707
-691
-688
-687
-694
-702
-710
-721
-726
-733
-740
-744
-746
-744
-748
-748
-748
-748
-750
-748
-746
-747
-746
-746
-747
-750
-766
-789
-789
-732
-649
-599
-576
-568
-571
-578
-600
-660
-741
-813
-873
-900
-913
-913
-898
-871
-856
-850
-842
-833
-824
-818
-812
-804
-797
-792
-784
-777
-772
-768
-763
-756
-752
-748
-744
-741
-737
-735
-730
-730
-725
-723
-721
-718
-717
-713
-712
-709
-705
-703
-703
-699
-694
-687
-683
-676
-671
-662
-656
-651
-647
-645
-645
-648
-649
-654
-660
-667
-676
-687
-701
-714
-730
-743
-756
-768
-779
-789
-797
-804
-810
-814
-815
-818
-818
-816
-817
-817
-813
-811
-807
-804
-798
-797
-791
-788
-783
-777
-773
-768
-765
-761
-759
-757
-757
-753
-753
-753
-753
-752
-753
-755
-756
-757
-758
-759
-761
-761
-762
-762
-763
-763
-762
-763
-763
-762
-762
-761
-761
-759
-757
-756
-755
-753
-751
-750
-748
-747
-744
-744
-742
-741
-737
-735
-735
-731
-730
-728
-726
-725
-724
-723
-724
-723
-724
-725
-725
-725
-725
-725
-726
-721
-717
-717
-719
-720
-717
-710
-697
-687
-683
-683
-690
-698
-707
-714
-723
-728
-733
-737
-741
-743
-742
-743
-743
-743
-743
-739
-739
-739
-739
-737
-738
-741
-753
-773
-779
-737
-655
-600
-571
-562
-561
-567
-585
-634
-717
-786
-847
-885
-899
-904
-888
-867
-847
-839
-833
-825
-816
-809
-800
-792
-788
-780
-773
-768
-762
-757
-751
-746
-741
-736
-731
-726
-724
-720
-716
-713
-712
-710
-707
-703
-701
-699
-695
-692
-692
-690
-689
-685
-683
-677
-671
-663
-656
-651
-643
-640
-638
-636
-636
-636
-639
-641
-649
-655
-666
-679
-692
-706
-718
-735
-748
-759
-770
-780
-788
-793
-801
-805
-810
-814
-813
-815
-813
-810
-807
-806
-804
-800
-795
-791
-788
-782
-779
-773
-770
-766
-762
-761
-759
-759
-758
-757
-757
-756
-757
-759
-761
-762
-764
-766
-767
-770
-771
-772
-774
-777
-774
-775
-777
-777
-776
-775
-774
-773
-770
-771
-770
-769
-768
-765
-765
-763
-762
-760
-759
-757
-755
-752
-747
-746
-743
-743
-743
-743
-743
-739
-741
-741
-741
-742
-743
-743
-743
-744
-744
-743
-739
-737
-734
-734
-735
-732
-725
-712
-703
-701
-702
-708
-716
-727
-735
-741
-746
-752
-753
-754
-756
-753
-755
-755
-755
-753
-751
-752
-751
-750
-748
-748
-753
-768
-772
-751
-684
-620
-586
-570
-568
-573
-586
-620
-718
-796
-843
-882
-905
-909
-905
-889
-866
-846
-834
-825
-817
-811
-804
-795
-789
-781
-775
-768
-763
-756
-752
-747
-741
-737
-735
-732
-726
-723
-722
-721
-717
-713
-712
-707
-706
-701
-701
-699
-696
-692
-691
-686
-683
-680
-675
-670
-663
-656
-649
-643
-639
-634
-633
-632
-634
-634
-636
-644
-650
-660
-671
-685
-701
-715
-729
-744
-756
-769
-779
-789
-797
-802
-806
-810
-811
-811
-811
-808
-806
-802
-799
-793
-789
-783
-777
-771
-766
-762
-757
-753
-753
-750
-746
-743
-743
-743
-744
-746
-746
-748
-748
-752
-755
-757
-761
-762
-764
-765
-768
-767
-769
-770
-772
-772
-771
-771
-770
-769
-766
-764
-763
-761
-758
-755
-753
-752
-749
-747
-745
-744
-740
-738
-736
-735
-733
-732
-732
-732
-732
-731
-731
-732
-732
-732
-731
-734
-735
-732
-728
-726
-726
-725
-726
-723
-714
-698
-691
-691
-696
-703
-712
-721
-728
-732
-738
-739
-743
-744
-746
-746
-746
-746
-744
-745
-744
-744
-743
-743
-744
-745
-762
-784
-786
-727
-644
-594
-568
-563
-563
-571
-591
-647
-730
-797
-860
-895
-907
-908
-896
-870
-847
-840
-832
-827
-818
-811
-804
-797
-791
-784
-779
-774
-770
-764
-757
-755
-753
-749
-743
-741
-735
-730
-730
-726
-725
-722
-719
-717
-714
-713
-710
-707
-705
-702
-699
-694
-694
-690
-685
-680
-673
-663
-656
-648
-642
-640
-639
-639
-642
-645
-649
-651
-661
-671
-685
-698
-713
-730
-742
-757
-769
-782
-791
-804
-813
-820
-825
-827
-829
-829
-830
-829
-827
-825
-823
-818
-812
-807
-803
-797
-791
-786
-780
-776
-771
-768
-765
-761
-759
-759
-758
-757
-757
-757
-758
-757
-761
-759
-761
-762
-763
-764
-765
-766
-767
-769
-768
-770
-770
-769
-769
-768
-768
-765
-764
-762
-761
-759
-755
-755
-752
-748
-746
-745
-743
-743
-741
-739
-738
-737
-738
-737
-736
-737
-735
-737
-737
-735
-730
-728
-730
-728
-729
-722
-713
-699
-691
-690
-696
-703
-712
-720
-725
-730
-735
-737
-741
-741
-741
-739
-741
-741
-738
-737
-735
-737
-735
-734
-735
-738
-751
-771
-774
-723
-641
-588
-563
-553
-553
-561
-580
-643
-735
-797
-853
-887
-898
-896
-885
-857
-832
-817
-809
-803
-796
-789
-780
-774
-769
-763
-757
-751
-748
-744
-738
-733
-730
-726
-720
-717
-714
-713
-710
-706
-704
-703
-699
-698
-696
-694
-693
-690
-688
-685
-681
-679
-676
-670
-664
-656
-649
-640
-633
-625
-620
-619
-618
-618
-621
-625
-634
-642
-653
-666
-681
-692
-708
-723
-738
-751
-763
-775
-786
-795
-803
-808
-813
-815
-817
-818
-819
-818
-813
-810
-807
-802
-797
-792
-788
-784
-778
-772
-768
-764
-760
-758
-756
-754
-751
-750
-750
-751
-751
-752
-753
-757
-759
-760
-763
-766
-768
-769
-772
-774
-772
-774
-776
-777
-777
-776
-777
-776
-775
-773
-773
-771
-771
-768
-765
-764
-763
-760
-759
-759
-757
-753
-753
-752
-752
-750
-748
-748
-748
-748
-747
-746
-747
-748
-746
-741
-741
-740
-739
-741
-739
-731
-714
-705
-704
-708
-713
-721
-730
-737
-743
-749
-755
-758
-759
-759
-760
-761
-760
-759
-759
-758
-756
-755
-753
-753
-757
-765
-792
-809
-784
-696
-624
-589
-572
-568
-573
-584
-616
-683
-765
-845
-889
-907
-914
-905
-878
-856
-844
-837
-829
-820
-811
-804
-797
-788
-782
-775
-770
-764
-759
-753
-748
-743
-738
-736
-733
-728
-725
-721
-720
-716
-714
-712
-709
-706
-702
-701
-698
-696
-691
-689
-685
-681
-675
-667
-660
-651
-642
-634
-629
-625
-621
-620
-622
-624
-625
-631
-640
-649
-662
-676
-693
-708
-724
-737
-753
-766
-776
-788
-795
-801
-806
-810
-812
-813
-813
-810
-808
-806
-803
-800
-793
-792
-788
-781
-776
-773
-768
-763
-759
-755
-753
-748
-746
-746
-744
-742
-741
-743
-744
-744
-744
-748
-750
-750
-752
-753
-756
-757
-758
-759
-759
-760
-760
-760
-760
-760
-758
-755
-755
-753
-750
-748
-748
-745
-742
-742
-741
-740
-739
-738
-737
-735
-734
-732
-733
-732
-732
-731
-730
-731
-728
-732
-731
-728
-726
-726
-727
-726
-726
-716
-703
-692
-689
-691
-698
-707
-716
-723
-727
-735
-741
-739
-743
-745
-746
-745
-744
-744
-742
-741
-739
-740
-738
-739
-741
-754
-780
-784
-730
-642
-591
-565
-553
-557
-564
-585
-649
-737
-813
-871
-896
-905
-905
-882
-853
-836
-827
-822
-813
-804
-797
-789
-782
-773
-771
-765
-761
-755
-751
-746
-738
-736
-733
-730
-726
-722
-721
-716
-716
-712
-711
-709
-707
-703
-701
-701
-698
-696
-694
-690
-688
-681
-678
-671
-663
-654
-647
-640
-635
-636
-636
-639
-642
-646
-653
-660
-672
-681
-694
-710
-725
-739
-752
-769
-782
-793
-802
-813
-820
-822
-829
-831
-833
-832
-832
-831
-827
-825
-822
-819
-816
-812
-806
-802
-797
-792
-788
-784
-782
-777
-773
-772
-769
-770
-768
-766
-766
-766
-766
-766
-768
-767
-768
-770
-770
-771
-771
-773
-772
-773
-773
-772
-772
-770
-770
-767
-767
-766
-765
-764
-761
-761
-759
-759
-757
-757
-757
-754
-753
-751
-753
-750
-748
-750
-749
-748
-746
-746
-745
-745
-741
-739
-738
-738
-738
-734
-725
-710
-699
-697
-701
-707
-714
-725
-732
-738
-743
-748
-750
-751
-750
-750
-751
-750
-748
-746
-743
-741
-738
-738
-738
-739
-746
-760
-764
-725
-653
-598
-573
-562
-560
-566
-586
-657
-755
-809
-854
-885
-892
-894
-882
-853
-832
-820
-814
-807
-799
-791
-782
-777
-771
-764
-759
-755
-750
-741
-740
-735
-732
-727
-724
-720
-714
-712
-710
-708
-707
-703
-701
-699
-697
-692
-691
-689
-686
-682
-681
-679
-675
-672
-666
-660
-654
-647
-640
-634
-633
-629
-630
-630
-633
-636
-638
-645
-654
-665
-679
-694
-710
-726
-740
-751
-765
-776
-786
-795
-802
-808
-811
-814
-815
-816
-814
-811
-809
-807
-804
-798
-796
-791
-788
-782
-777
-773
-770
-766
-762
-761
-760
-758
-756
-755
-755
-753
-754
-755
-755
-757
-758
-760
-760
-761
-761
-761
-764
-764
-764
-763
-765
-764
-761
-761
-762
-762
-760
-759
-759
-757
-757
-755
-755
-757
-753
-753
-752
-751
-750
-749
-750
-750
-750
-748
-748
-748
-747
-743
-741
-741
-739
-740
-739
-733
-723
-707
-701
-701
-706
-711
-720
-730
-737
-742
-748
-753
-753
-755
-755
-755
-755
-753
-753
-753
-751
-751
-750
-748
-747
-747
-752
-766
-766
-737
-669
-613
-586
-575
-572
-578
-594
-649
-755
-817
-859
-894
-910
-912
-905
-883
-858
-841
-833
-827
-818
-810
-801
-798
-791
-785
-779
-774
-770
-764
-759
-755
-752
-746
-742
-740
-735
-731
-728
-728
-725
-722
-718
-716
-715
-710
-710
-707
-706
-704
-699
-696
-691
-689
-680
-675
-668
-662
-653
-644
-640
-638
-636
-636
-637
-642
-645
-651
-660
-672
-684
-699
-715
-730
-744
-757
-771
-785
-796
-805
-813
-820
-823
-825
-825
-824
-823
-819
-815
-809
-804
-796
-791
-786
-780
-773
-769
-765
-760
-758
-753
-752
-751
-748
-746
-743
-747
-746
-744
-745
-746
-747
-748
-751
-753
-757
-757
-758
-759
-758
-759
-756
-758
-757
-758
-756
-753
-754
-751
-751
-750
-750
-746
-747
-746
-746
-744
-743
-743
-744
-743
-743
-743
-743
-741
-739
-738
-737
-738
-737
-732
-729
-728
-728
-726
-722
-715
-700
-691
-690
-693
-700
-707
-715
-723
-726
-733
-736
-738
-741
-741
-740
-738
-741
-740
-737
-734
-734
-733
-732
-730
-730
-735
-748
-753
-733
-667
-607
-573
-560
-557
-562
-573
-617
-730
-804
-844
-874
-894
-896
-889
-872
-847
-825
-813
-806
-800
-791
-786
-779
-772
-766
-761
-756
-751
-747
-742
-738
-733
-731
-728
-723
-723
-719
-717
-715
-713
-712
-711
-707
-703
-702
-701
-698
-695
-693
-690
-685
-683
-678
-674
-668
-660
-651
-643
-638
-633
-629
-630
-631
-632
-634
-642
-648
-656
-667
-680
-696
-710
-727
-743
-759
-772
-785
-798
-806
-816
-821
-827
-832
-833
-834
-832
-833
-831
-825
-822
-818
-813
-803
-800
-795
-789
-784
-778
-772
-767
-765
-762
-760
-759
-757
-757
-755
-759
-759
-761
-763
-765
-768
-768
-772
-775
-777
-778
-779
-780
-779
-780
-779
-780
-780
-779
-778
-773
-775
-774
-772
-771
-772
-771
-769
-768
-768
-767
-766
-764
-764
-762
-762
-760
-761
-758
-759
-757
-755
-753
-748
-747
-746
-748
-746
-739
-726
-711
-708
-709
-715
-722
-730
-738
-743
-748
-753
-756
-757
-757
-758
-757
-757
-755
-756
-755
-752
-748
-748
-748
-746
-750
-764
-785
-784
-730
-649
-598
-572
-561
-561
-568
-584
-634
-720
-797
-860
-894
-906
-909
-892
-862
-841
-831
-825
-816
-809
-801
-794
-786
-777
-773
-766
-761
-755
-750
-745
-741
-736
-733
-730
-725
-722
-718
-718
-716
-711
-710
-707
-705
-703
-701
-697
-694
-691
-688
-685
-681
-676
-671
-665
-658
-648
-639
-631
-623
-620
-618
-618
-619
-624
-627
-634
-642
-652
-665
-678
-697
-712
-727
-741
-755
-769
-777
-788
-796
-802
-805
-807
-810
-807
-809
-806
-806
-806
-802
-799
-796
-792
-789
-784
-779
-775
-771
-766
-760
-757
-755
-750
-748
-746
-746
-743
-740
-743
-743
-743
-742
-743
-744
-743
-746
-748
-750
-750
-750
-750
-753
-753
-751
-751
-751
-751
-751
-750
-751
-750
-750
-750
-751
-750
-752
-750
-748
-749
-748
-749
-748
-748
-747
-746
-745
-744
-744
-743
-741
-737
-735
-734
-734
-735
-731
-721
-707
-696
-695
-698
-707
-717
-724
-732
-736
-743
-746
-750
-750
-751
-752
-751
-751
-750
-748
-746
-743
-742
-742
-741
-743
-750
-771
-782
-745
-665
-610
-579
-568
-566
-572
-589
-638
-725
-794
-854
-889
-901
-905
-890
-862
-840
-831
-824
-817
-809
-802
-795
-789
-784
-779
-774
-769
-763
-760
-758
-753
-750
-746
-744
-739
-737
-733
-733
-730
-727
-725
-723
-721
-718
-716
-714
-711
-708
-703
-702
-699
-696
-691
-685
-678
-669
-662
-653
-648
-644
-642
-639
-640
-643
-645
-651
-658
-668
-680
-692
-710
-723
-741
-755
-770
-784
-795
-803
-809
-818
-822
-824
-827
-827
-827
-825
-824
-822
-820
-816
-813
-809
-805
-802
-796
-792
-787
-782
-778
-772
-770
-766
-764
-760
-759
-756
-755
-753
-753
-755
-753
-755
-757
-757
-758
-757
-761
-761
-761
-761
-762
-763
-761
-761
-760
-760
-759
-759
-759
-758
-759
-757
-756
-755
-755
-755
-755
-755
-753
-753
-752
-751
-752
-750
-747
-745
-748
-744
-742
-739
-738
-737
-738
-735
-727
-713
-700
-697
-699
-704
-712
-721
-728
-733
-739
-745
-748
-748
-748
-748
-748
-748
-746
-746
-744
-740
-739
-736
-735
-736
-741
-757
-770
-755
-687
-619
-580
-562
-557
-559
-570
-604
-692
-766
-827
-871
-890
-896
-890
-868
-840
-824
-815
-807
-802
-792
-787
-779
-773
-766
-761
-757
-750
-745
-740
-737
-732
-727
-723
-720
-717
-714
-712
-710
-708
-706
-703
-703
-699
-698
-696
-694
-692
-690
-687
-683
-681
-676
-672
-663
-658
-650
-640
-635
-631
-628
-626
-625
-627
-630
-635
-642
-653
-664
-676
-690
-707
-724
-738
-753
-766
-777
-788
-796
-804
-811
-814
-815
-817
-817
-815
-813
-810
-809
-806
-802
-797
-794
-789
-784
-780
-777
-773
-768
-764
-762
-760
-755
-753
-753
-751
-748
-750
-751
-753
-753
-753
-755
-756
-758
-759
-761
-762
-762
-762
-761
-763
-764
-763
-762
-762
-762
-761
-762
-761
-760
-760
-759
-760
-757
-757
-757
-757
-755
-756
-756
-756
-757
-755
-753
-753
-753
-750
-744
-744
-746
-746
-744
-738
-727
-710
-707
-708
-713
-721
-730
-739
-743
-750
-756
-759
-761
-763
-762
-760
-762
-760
-759
-758
-757
-755
-750
-751
-751
-752
-764
-779
-775
-721
-649
-605
-587
-581
-583
-593
-618
-699
-777
-833
-875
-898
-903
-901
-881
-854
-835
-825
-821
-813
-807
-798
-791
-786
-779
-774
-768
-764
-761
-755
-750
-746
-743
-737
-733
-731
-728
-725
-721
-721
-717
-714
-712
-710
-707
-703
-701
-699
-696
-693
-689
-687
-681
-675
-667
-661
-653
-647
-639
-636
-634
-633
-634
-637
-640
-645
-653
-662
-674
-690
-706
-721
-737
-751
-765
-776
-788
-795
-802
-807
-813
-815
-815
-815
-813
-813
-808
-805
-801
-798
-793
-788
-784
-780
-775
-771
-768
-763
-760
-756
-753
-752
-750
-748
-748
-747
-746
-743
-744
-745
-747
-748
-748
-751
-751
-753
-753
-756
-757
-755
-756
-756
-757
-756
-755
-755
-753
-750
-747
-748
-748
-747
-746
-746
-746
-743
-745
-743
-743
-741
-740
-741
-740
-741
-739
-739
-738
-739
-737
-734
-732
-730
-731
-728
-726
-717
-701
-692
-688
-693
-698
-708
-718
-726
-730
-734
-741
-743
-743
-744
-746
-746
-743
-742
-740
-739
-738
-735
-734
-732
-735
-743
-755
-752
-708
-635
-591
-571
-564
-568
-577
-602
-681
-764
-819
-860
-888
-892
-889
-872
-845
-827
-815
-812
-805
-797
-789
-784
-779
-772
-768
-763
-757
-750
-744
-741
-738
-735
-732
-730
-728
-723
-720
-717
-716
-712
-710
-708
-707
-703
-701
-701
-697
-692
-689
-687
-683
-676
-671
-663
-656
-649
-642
-638
-634
-633
-629
-632
-633
-636
-643
-652
-665
-679
-695
-713
-730
-748
-763
-777
-791
-802
-811
-818
-825
-829
-833
-833
-834
-833
-827
-824
-819
-814
-809
-804
-800
-793
-787
-779
-777
-771
-768
-764
-763
-761
-759
-758
-759
-759
-758
-758
-760
-761
-765
-766
-769
-771
-772
-774
-773
-779
-779
-778
-777
-778
-777
-777
-777
-776
-775
-774
-773
-773
-772
-771
-766
-765
-763
-761
-759
-759
-757
-753
-753
-751
-750
-749
-748
-748
-746
-746
-744
-744
-746
-743
-738
-735
-736
-735
-735
-728
-721
-709
-704
-703
-706
-712
-717
-726
-732
-738
-743
-746
-748
-748
-748
-748
-750
-750
-747
-747
-744
-743
-742
-742
-743
-752
-768
-767
-732
-654
-600
-575
-564
-565
-570
-589
-654
-761
-815
-858
-890
-897
-898
-884
-862
-841
-826
-818
-811
-803
-795
-787
-780
-773
-768
-761
-755
-751
-748
-741
-737
-734
-730
-726
-719
-719
-716
-713
-711
-708
-707
-704
-701
-698
-697
-695
-691
-688
-686
-683
-678
-676
-671
-666
-656
-649
-643
-636
-631
-627
-626
-626
-625
-627
-629
-634
-640
-648
-658
-671
-685
-699
-716
-731
-744
-756
-769
-779
-786
-796
-800
-806
-809
-811
-810
-810
-809
-804
-801
-797
-793
-788
-782
-778
-771
-767
-762
-757
-753
-749
-746
-743
-743
-743
-743
-743
-745
-746
-746
-749
-752
-754
-756
-758
-762
-763
-764
-766
-769
-770
-769
-769
-770
-770
-770
-769
-768
-769
-768
-766
-765
-764
-762
-761
-759
-757
-755
-753
-751
-750
-746
-744
-742
-741
-739
-737
-736
-735
-736
-735
-732
-735
-735
-735
-731
-729
-729
-728
-730
-729
-723
-709
-696
-693
-696
-703
-710
-720
-728
-733
-739
-743
-748
-750
-750
-751
-753
-753
-750
-751
-751
-752
-750
-748
-750
-750
-757
-776
-798
-791
-721
-645
-602
-584
-577
-580
-589
-610
-672
-747
-818
-874
-901
-910
-908
-890
-863
-847
-838
-832
-825
-817
-810
-800
-796
-789
-784
-779
-773
-768
-760
-759
-755
-750
-746
-743
-738
-735
-734
-728
-727
-725
-721
-720
-717
-715
-710
-708
-707
-705
-702
-699
-698
-693
-687
-683
-676
-669
-662
-654
-649
-644
-641
-640
-641
-642
-645
-648
-654
-663
-672
-683
-698
-713
-727
-741
-752
-766
-777
-785
-791
-800
-805
-806
-808
-809
-809
-810
-808
-806
-804
-801
-797
-794
-789
-786
-780
-776
-772
-768
-763
-761
-758
-755
-753
-752
-751
-751
-750
-750
-751
-753
-752
-754
-757
-758
-759
-761
-763
-764
-764
-765
-766
-767
-766
-765
-766
-766
-766
-764
-764
-764
-761
-761
-759
-758
-755
-753
-751
-750
-747
-743
-741
-738
-737
-734
-732
-730
-729
-726
-725
-724
-721
-724
-724
-724
-723
-724
-725
-722
-722
-717
-716
-717
-719
-717
-707
-694
-683
-681
-682
-689
-698
-707
-716
-721
-728
-730
-735
-737
-736
-739
-739
-739
-739
-739
-739
-737
-736
-735
-736
-737
-740
-755
-774
-774
-717
-642
-595
-571
-563
-566
-573
-591
-653
-735
-806
-860
-887
-899
-898
-880
-853
-837
-829
-822
-815
-804
-800
-792
-784
-776
-770
-765
-758
-753
-751
-747
-741
-735
-731
-727
-725
-721
-720
-717
-714
-711
-710
-710
-707
-705
-701
-699
-696
-692
-692
-690
-689
-685
-681
-676
-668
-662
-654
-649
-645
-640
-637
-639
-639
-639
-640
-645
-653
-661
-670
-683
-697
-712
-726
-741
-753
-765
-772
-782
-789
-797
-802
-806
-809
-811
-813
-812
-811
-809
-805
-802
-802
-798
-793
-789
-788
-786
-780
-778
-773
-771
-766
-762
-762
-762
-764
-764
-765
-766
-766
-766
-767
-768
-769
-770
-773
-774
-777
-777
-779
-780
-782
-782
-783
-784
-784
-782
-779
-779
-777
-777
-775
-773
-772
-769
-768
-766
-764
-762
-760
-756
-753
-753
-749
-746
-746
-747
-747
-745
-744
-742
-741
-743
-746
-748
-748
-748
-747
-750
-747
-743
-740
-738
-739
-737
-732
-725
-712
-702
-698
-702
-708
-716
-724
-733
-737
-745
-750
-752
-755
-753
-752
-751
-749
-748
-747
-746
-744
-743
-739
-741
-743
-751
-763
-755
-703
-633
-590
-570
-562
-564
-571
-600
-694
-796
-849
-885
-907
-912
-908
-892
-871
-849
-834
-825
-819
-811
-804
-796
-787
-782
-775
-769
-763
-757
-753
-746
-741
-739
-736
-731
-726
-723
-720
-718
-717
-715
-712
-708
-704
-701
-699
-696
-694
-691
-690
-689
-682
-681
-676
-671
-662
-654
-649
-640
-635
-628
-626
-624
-622
-623
-625
-629
-634
-642
-653
-667
-681
-696
-714
-728
-743
-755
-769
-779
-789
-796
-802
-809
-811
-809
-810
-810
-806
-799
-796
-791
-788
-781
-774
-771
-763
-761
-757
-755
-751
-748
-746
-746
-744
-745
-748
-748
-750
-752
-753
-756
-759
-763
-764
-766
-768
-768
-769
-769
-772
-773
-774
-772
-771
-769
-766
-765
-763
-762
-760
-758
-755
-753
-752
-750
-748
-746
-746
-743
-741
-743
-741
-739
-738
-738
-738
-736
-737
-737
-737
-737
-737
-737
-733
-732
-731
-732
-734
-728
-719
-704
-698
-696
-699
-707
-716
-724
-730
-736
-740
-746
-748
-750
-751
-751
-752
-751
-751
-750
-748
-746
-744
-746
-744
-748
-765
-784
-777
-715
-639
-594
-573
-565
-567
-577
-598
-689
-779
-834
-881
-906
-914
-910
-894
-869
-851
-840
-833
-825
-816
-813
-804
-797
-789
-786
-780
-772
-766
-763
-759
-753
-748
-744
-739
-737
-733
-730
-727
-725
-723
-718
-719
-716
-715
-712
-710
-708
-703
-703
-701
-698
-692
-687
-683
-676
-669
-660
-654
-648
-643
-640
-639
-640
-639
-644
-648
-656
-663
-674
-689
-703
-720
-734
-750
-762
-774
-783
-793
-802
-808
-813
-818
-822
-823
-822
-820
-818
-816
-811
-809
-804
-798
-792
-786
-782
-777
-772
-767
-765
-761
-757
-755
-755
-753
-753
-753
-755
-756
-758
-759
-762
-762
-766
-766
-768
-770
-771
-771
-771
-772
-771
-770
-770
-769
-768
-766
-764
-764
-762
-759
-755
-757
-755
-753
-752
-751
-750
-748
-746
-746
-746
-743
-744
-743
-743
-740
-738
-738
-738
-733
-730
-731
-734
-731
-728
-720
-706
-694
-692
-694
-701
-708
-715
-723
-730
-734
-740
-743
-747
-746
-746
-746
-746
-745
-744
-742
-739
-739
-738
-739
-741
-746
-768
-782
-763
-683
-614
-577
-560
-555
-558
-570
-602
-685
-760
-827
-873
-889
-896
-889
-864
-842
-829
-822
-815
-809
-801
-795
-787
-780
-775
-769
-762
-755
-752
-746
-741
-737
-733
-728
-723
-721
-718
-717
-713
-710
-708
-704
-703
-701
-700
-697
-693
-691
-687
-686
-681
-678
-674
-671
-665
-657
-653
-645
-640
-634
-632
-630
-629
-631
-633
-637
-644
-652
-664
-676
-691
-706
-723
-738
-751
-764
-775
-787
-793
-798
-804
-808
-810
-809
-811
-810
-809
-806
-804
-802
-797
-794
-789
-787
-784
-778
-775
-770
-770
-765
-763
-760
-758
-755
-753
-755
-755
-755
-755
-758
-759
-760
-761
-763
-763
-766
-766
-767
-769
-769
-768
-769
-768
-768
-766
-767
-767
-765
-763
-762
-764
-763
-761
-761
-760
-760
-759
-759
-758
-757
-755
-755
-755
-753
-753
-753
-753
-751
-750
-750
-748
-745
-744
-744
-744
-744
-738
-728
-712
-706
-705
-709
-715
-725
-734
-741
-745
-752
-755
-757
-761
-762
-764
-762
-761
-758
-758
-756
-753
-751
-750
-751
-753
-763
-782
-784
-744
-665
-611
-583
-571
-569
-575
-593
-652
-748
-808
-863
-896
-904
-908
-894
-870
-848
-838
-829
-822
-815
-807
-801
-795
-787
-781
-775
-770
-762
-756
-752
-747
-742
-737
-733
-729
-725
-720
-716
-716
-712
-710
-706
-707
-704
-703
-701
-699
-696
-690
-689
-685
-681
-677
-671
-663
-655
-647
-640
-635
-631
-629
-627
-629
-630
-631
-638
-645
-655
-665
-679
-696
-710
-725
-738
-751
-764
-774
-786
-796
-802
-805
-809
-809
-809
-807
-804
-802
-799
-798
-792
-787
-783
-778
-772
-768
-766
-761
-757
-753
-752
-750
-743
-744
-743
-744
-744
-746
-746
-748
-748
-750
-750
-750
-753
-756
-756
-759
-759
-759
-758
-759
-760
-759
-758
-757
-757
-753
-753
-753
-753
-750
-748
-750
-748
-748
-746
-745
-743
-741
-741
-740
-743
-741
-740
-739
-739
-739
-737
-740
-741
-739
-733
-730
-730
-731
-731
-726
-717
-702
-695
-692
-694
-703
-711
-720
-728
-735
-741
-744
-746
-748
-750
-750
-751
-750
-747
-745
-743
-743
-741
-739
-739
-743
-757
-768
-759
-705
-632
-591
-569
-563
-565
-573
-599
-688
-787
-840
-877
-902
-908
-904
-889
-864
-845
-833
-825
-819
-812
-804
-795
-784
-779
-774
-769
-763
-758
-755
-752
-747
-743
-741
-738
-734
-732
-729
-726
-721
-719
-719
-717
-714
-712
-711
-709
-706
-703
-701
-697
-693
-690
-687
-682
-676
-669
-661
-654
-651
-646
-644
-644
-644
-645
-648
-654
-662
-670
-680
-694
-710
-724
-741
-756
-770
-780
-793
-802
-809
-817
-823
-828
-829
-830
-828
-825
-825
-820
-815
-810
-805
-799
-792
-788
-784
-779
-774
-770
-768
-766
-764
-761
-761
-761
-762
-762
-764
-765
-766
-768
-770
-774
-776
-778
-779
-779
-782
-782
-782
-783
-781
-782
-779
-781
-780
-779
-778
-777
-776
-774
-771
-767
-766
-764
-761
-758
-756
-757
-753
-752
-750
-750
-748
-744
-744
-743
-744
-741
-741
-741
-741
-737
-734
-733
-733
-733
-732
-728
-719
-701
-694
-694
-699
-704
-712
-721
-728
-734
-739
-746
-748
-748
-748
-748
-748
-746
-747
-745
-744
-743
-742
-741
-742
-745
-754
-777
-784
-739
-655
-599
-572
-560
-560
-564
-582
-633
-720
-789
-849
-885
-895
-898
-885
-856
-837
-825
-819
-812
-806
-796
-789
-783
-777
-770
-762
-758
-753
-747
-743
-737
-734
-728
-724
-721
-717
-714
-710
-708
-704
-703
-699
-697
-695
-694
-691
-687
-688
-685
-682
-680
-678
-673
-665
-662
-656
-649
-642
-634
-627
-624
-621
-618
-619
-622
-625
-629
-636
-646
-660
-672
-690
-706
-721
-735
-749
-761
-773
-782
-789
-798
-802
-805
-807
-809
-809
-809
-807
-805
-804
-799
-797
-792
-789
-786
-779
-774
-769
-767
-762
-758
-756
-753
-750
-748
-748
-748
-747
-746
-748
-750
-750
-752
-753
-755
-759
-759
-761
-763
-765
-764
-764
-765
-766
-765
-764
-766
-765
-764
-762
-761
-759
-756
-755
-753
-752
-751
-748
-748
-746
-746
-743
-741
-742
-741
-739
-737
-740
-739
-738
-737
-738
-739
-738
-735
-734
-735
-735
-737
-734
-723
-710
-698
-697
-701
-708
-716
-723
-735
-742
-746
-752
-757
-759
-757
-759
-761
-761
-759
-759
-759
-757
-755
-753
-754
-755
-762
-780
-795
-781
-707
-634
-595
-578
-572
-571
-584
-620
-706
-777
-841
-887
-903
-909
-903
-878
-853
-838
-831
-825
-818
-808
-802
-795
-789
-783
-777
-772
-766
-762
-757
-751
-747
-743
-738
-735
-732
-730
-726
-724
-721
-719
-716
-713
-712
-710
-706
-703
-702
-700
-696
-694
-690
-687
-681
-675
-669
-661
-651
-645
-639
-636
-634
-634
-634
-636
-641
-645
-651
-663
-676
-689
-703
-719
-733
-746
-758
-770
-780
-788
-795
-800
-805
-809
-810
-811
-810
-810
-806
-804
-802
-799
-794
-791
-787
-782
-778
-774
-771
-766
-763
-761
-757
-755
-750
-751
-751
-750
-748
-749
-750
-748
-750
-750
-753
-753
-755
-757
-759
-761
-760
-761
-764
-762
-763
-763
-763
-762
-761
-761
-759
-758
-755
-753
-751
-751
-748
-746
-745
-743
-741
-737
-738
-737
-735
-733
-732
-731
-730
-731
-730
-730
-732
-733
-734
-730
-728
-726
-726
-726
-726
-721
-711
-696
-690
-690
-692
-701
-711
-721
-727
-730
-738
-743
-744
-743
-744
-744
-743
-746
-743
-743
-741
-738
-738
-737
-739
-742
-753
-766
-762
-713
-638
-593
-570
-562
-564
-575
-598
-665
-747
-802
-850
-881
-889
-889
-874
-851
-830
-819
-814
-807
-802
-794
-788
-782
-775
-768
-764
-761
-753
-751
-746
-743
-736
-732
-730
-728
-725
-721
-721
-717
-714
-712
-708
-707
-703
-701
-701
-698
-696
-692
-690
-687
-681
-678
-671
-665
-655
-649
-641
-636
-633
-631
-632
-633
-639
-642
-649
-660
-669
-681
-693
-710
-725
-738
-750
-764
-776
-786
-797
-805
-811
-815
-819
-824
-824
-825
-821
-820
-818
-813
-810
-803
-799
-792
-788
-782
-778
-775
-771
-770
-766
-765
-762
-761
-761
-761
-762
-761
-763
-765
-766
-767
-770
-772
-772
-776
-777
-779
-780
-780
-781
-781
-782
-782
-781
-781
-780
-778
-775
-776
-774
-771
-769
-767
-764
-761
-757
-757
-756
-753
-750
-750
-748
-746
-742
-743
-741
-739
-738
-739
-739
-738
-738
-739
-741
-738
-734
-733
-733
-733
-731
-726
-716
-701
-695
-694
-702
-708
-716
-728
-733
-739
-743
-746
-748
-750
-749
-748
-750
-750
-748
-745
-746
-745
-743
-743
-746
-755
-770
-770
-730
-651
-598
-574
-565
-566
-573
-591
-655
-753
-807
-852
-885
-894
-892
-881
-859
-837
-823
-815
-809
-801
-797
-789
-782
-775
-769
-761
-755
-751
-744
-741
-737
-734
-732
-728
-723
-718
-717
-713
-712
-710
-707
-704
-698
-698
-695
-693
-690
-689
-686
-680
-680
-675
-670
-662
-654
-646
-637
-633
-626
-622
-619
-618
-620
-622
-630
-636
-645
-655
-669
-683
-696
-711
-726
-742
-753
-766
-777
-786
-792
-797
-804
-809
-811
-812
-812
-811
-805
-806
-800
-797
-791
-786
-780
-775
-769
-762
-759
-755
-751
-748
-745
-745
-743
-745
-745
-747
-748
-750
-752
-756
-759
-761
-763
-766
-769
-770
-770
-773
-775
-773
-773
-774
-775
-773
-772
-772
-771
-770
-768
-768
-765
-764
-761
-761
-757
-756
-753
-751
-750
-748
-745
-744
-743
-741
-737
-739
-738
-739
-737
-737
-737
-739
-739
-737
-734
-733
-733
-734
-733
-726
-716
-702
-698
-700
-706
-714
-723
-732
-738
-743
-748
-753
-753
-753
-755
-756
-755
-755
-756
-755
-755
-753
-753
-753
-757
-765
-786
-802
-777
-694
-625
-593
-578
-573
-580
-593
-629
-708
-782
-849
-892
-909
-914
-908
-886
-861
-847
-840
-834
-827
-820
-813
-804
-798
-789
-786
-780
-777
-770
-764
-759
-753
-750
-746
-744
-740
-736
-734
-731
-730
-726
-725
-723
-719
-717
-714
-712
-709
-707
-703
-701
-697
-692
-686
-677
-671
-663
-656
-647
-643
-640
-639
-640
-642
-644
-648
-654
-663
-674
-687
-701
-719
