10
6
6
6
6
9
12
9
6
4
2
5
8
9
9
6
4
2
2
8
12
11
9
6
3
1
2
6
6
2
0
0
0
1
2
2
0
-3
-4
-4
-1
3
4
4
0
-4
-5
-6
-2
2
-2
-6
-5
-4
-3
-2
2
3
-1
-4
-5
-5
-1
2
2
1
-2
-4
-5
-5
-1
0
-1
-2
-3
-2
1
2
1
-2
-5
-6
-7
-5
0
3
6
2
-2
2
6
8
11
21
29
33
37
41
42
36
31
27
24
25
23
14
10
11
10
6
1
-4
-6
-5
-8
-14
-19
-23
-22
-19
-18
-19
-20
-20
-20
-20
-17
-14
-13
-12
-5
2
7
17
48
78
106
132
157
171
162
128
54
-49
-190
-278
-306
-320
-319
-291
-243
-212
-192
-157
-115
-87
-64
-53
-46
-41
-37
-36
-36
-32
-27
-26
-25
-26
-28
-24
-20
-20
-20
-20
-20
-22
-23
-17
-12
-13
-14
-15
-16
-18
-19
-15
-12
-11
-10
-9
-7
-5
-4
-3
-2
-2
-2
-3
1
8
10
10
9
7
6
6
11
17
18
16
15
14
15
16
17
18
15
12
9
6
7
8
10
11
7
4
3
4
10
14
14
13
11
10
10
12
16
15
10
8
8
6
3
3
5
4
1
0
1
3
2
5
4
4
4
3
2
6
10
10
10
9
8
9
11
15
17
13
11
14
16
16
17
19
20
20
19
16
16
19
20
19
18
17
16
15
17
21
18
13
12
11
7
4
5
6
3
0
-2
-4
-2
0
-3
-6
-4
-3
-10
-13
-8
-6
-11
-14
-14
-15
-17
-18
-17
-16
-17
-18
-17
-16
-15
-14
-13
-12
-13
-16
-19
-18
-15
-14
-15
-16
-18
-21
-24
-19
-14
-14
-14
-15
-16
-16
-16
-14
-13
-17
-20
-21
-21
-17
-14
-16
-18
-19
-21
-23
-23
-20
-18
-17
-18
-21
-22
-21
-20
-20
-20
-20
-20
-21
-21
-19
-18
-18
-18
-18
-19
-20
-16
-12
-12
-12
-14
-16
-19
-21
-16
-12
-13
-14
-16
-18
-20
-20
-15
-13
-16
-18
-18
-18
-18
-18
-19
-20
-20
-23
-27
-24
-19
-15
-11
-14
-19
-22
-25
-21
-16
-19
-22
-25
-28
-27
-26
-24
-22
-23
-24
-27
-29
-25
-22
-21
-20
-22
-24
-25
-25
-23
-23
-25
-26
-26
-26
-25
-22
-19
-19
-21
-19
-15
-13
-11
-10
-10
-10
-10
-8
-4
0
4
13
22
22
22
18
14
18
21
16
12
13
9
-8
-15
-6
-1
-5
-10
-17
-20
-21
-25
-31
-35
-37
-39
-41
-39
-34
-32
-32
-32
-33
-36
-39
-35
-29
-21
-28
-5
3
30
57
78
100
132
155
134
96
2
-100
-222
-310
-328
-340
-338
-323
-291
-260
-228
-190
-146
-116
-96
-79
-62
-55
-53
-52
-51
-50
-49
-44
-39
-38
-38
-38
-38
-35
-31
-30
-30
-31
-32
-35
-38
-30
-24
-24
-24
-25
-26
-26
-24
-17
-12
-13
-14
-13
-12
-10
-7
-5
-4
-4
-4
-4
-1
4
6
5
4
5
5
3
5
9
10
10
8
5
3
0
3
6
1
-4
-5
-6
-2
2
4
6
8
10
10
11
15
18
17
15
12
9
6
5
8
10
9
7
5
4
3
4
7
7
5
4
3
3
5
6
7
8
8
4
2
8
14
14
14
14
14
16
18
23
26
24
22
23
24
26
28
29
30
27
25
23
24
30
32
32
30
27
26
25
26
29
27
23
22
21
20
20
20
21
16
10
9
8
11
14
12
10
8
6
4
2
4
6
4
2
0
-2
-2
-2
0
0
-4
-6
-7
-7
-4
-1
3
1
-4
-5
-3
-1
1
1
-1
-3
-5
-5
-3
-2
-2
-3
-4
-5
-6
-3
0
1
2
-1
-4
-5
-6
-3
0
2
2
-3
-5
-2
0
1
2
1
-1
-3
-2
2
4
4
4
3
1
-1
0
3
4
3
0
-3
-3
-4
-1
-2
-1
0
-3
-6
-2
2
0
-2
-3
-5
-9
-11
-6
-2
-4
-6
-6
-6
-5
-3
-1
0
-1
-2
-3
-1
4
6
6
5
3
0
-3
0
5
6
6
5
3
3
4
9
14
13
12
14
16
19
22
25
30
39
46
44
42
42
42
41
38
32
31
37
34
21
16
17
15
10
6
3
2
1
-6
-14
-17
-19
-18
-15
-13
-11
-10
-12
-13
-14
-9
-4
-3
0
13
23
18
24
65
99
119
144
181
182
125
70
17
-82
-231
-293
-276
-275
-287
-265
-221
-184
-150
-116
-82
-60
-42
-35
-31
-27
-23
-20
-17
-13
-16
-11
-14
-14
-14
-11
-8
-7
-6
-9
-12
-12
-11
-7
-4
-4
-4
-5
-6
-6
-5
-2
0
-1
-3
-5
-4
0
3
5
6
5
4
5
10
15
16
16
15
13
12
13
15
16
16
16
16
16
16
16
16
16
14
12
11
10
14
16
18
20
19
18
20
23
26
27
25
24
23
22
23
24
25
23
19
17
15
15
17
18
18
14
9
8
6
8
10
11
12
10
8
10
12
14
16
15
14
13
13
16
18
20
21
18
17
20
23
26
28
29
30
29
28
28
28
29
30
30
27
23
23
25
26
25
22
24
18
18
21
24
22
20
16
12
12
12
14
16
15
14
13
12
12
12
12
12
11
9
6
6
10
12
11
8
4
2
2
2
3
4
4
2
-1
-2
-1
0
1
1
0
-2
-4
0
4
2
0
-3
-6
-7
-7
-3
0
1
2
0
-2
-2
-2
0
2
2
1
-2
-4
-3
-2
-1
0
-1
-3
-5
-2
3
3
1
0
0
0
-1
-1
2
2
2
0
-2
-3
-4
-2
0
2
4
1
-1
3
6
5
4
3
1
-2
-2
3
5
3
1
-2
-4
-5
-4
-1
0
-1
-2
-3
-4
-3
-2
-2
-3
-5
-7
-6
-8
-6
-3
0
0
0
0
1
8
14
16
20
31
39
42
43
39
35
32
28
23
24
32
28
14
9
11
8
1
-2
-1
-4
-10
-15
-19
-22
-25
-23
-19
-19
-21
-23
-24
-20
-16
-15
-14
-14
-13
-1
8
10
21
57
88
110
136
172
172
117
60
2
-100
-244
-302
-287
-289
-304
-283
-240
-207
-178
-135
-87
-67
-55
-50
-47
-45
-43
-37
-31
-30
-32
-32
-32
-29
-26
-25
-24
-25
-26
-26
-26
-23
-20
-19
-18
-20
-22
-22
-21
-18
-16
-15
-14
-14
-12
-8
-5
-3
-2
-3
-4
-3
2
8
10
11
10
7
6
7
8
8
12
14
12
10
13
16
15
14
11
8
7
6
8
10
12
14
12
11
14
17
20
21
18
15
13
13
16
18
17
16
15
11
7
10
15
15
13
11
9
6
3
7
12
10
8
8
8
9
10
11
12
12
12
11
10
14
16
16
16
14
12
11
12
16
18
18
17
15
14
13
14
18
18
15
13
11
10
10
10
11
8
3
0
-4
-2
0
-1
-2
-5
-8
-11
-14
-12
-10
-12
-14
-15
-16
-17
-18
-16
-15
-19
-22
-25
-23
-17
-14
-13
-13
-16
-18
-19
-18
-13
-12
-12
-12
-13
-14
-13
-11
-9
-10
-8
-15
-16
-12
-8
-7
-6
-8
-10
-8
-6
-4
-2
-3
-4
-6
-8
-10
-12
-10
-8
-8
-9
-11
-11
-9
-8
-9
-11
-13
-14
-15
-14
-11
-10
-10
-13
-17
-18
-18
-16
-13
-13
-14
-16
-18
-16
-14
-14
-14
-15
-16
-18
-19
-14
-10
-12
-14
-16
-18
-19
-20
-18
-16
-16
-16
-16
-15
-13
-13
-15
-17
-19
-20
-20
-19
-17
-16
-15
-16
-19
-20
-21
-21
-18
-17
-16
-17
-18
-13
-8
-6
-4
-4
-4
-5
-4
3
11
23
30
31
28
16
13
20
23
20
16
12
5
-3
-6
-5
-6
-9
-13
-17
-21
-25
-29
-33
-36
-39
-40
-40
-34
-30
-29
-28
-29
-30
-32
-34
-28
-20
1
16
13
21
56
87
113
146
189
162
53
-30
-88
-183
-307
-337
-304
-300
-314
-285
-237
-195
-156
-122
-90
-73
-60
-54
-49
-46
-43
-43
-44
-39
-34
-33
-32
-33
-34
-37
-40
-36
-32
-33
-34
-33
-32
-33
-33
-29
-26
-27
-27
-25
-23
-21
-20
-19
-18
-19
-20
-20
-16
-10
-8
-8
-8
-8
-8
-9
-5
1
1
-2
-3
-4
-4
-4
-2
0
-1
-2
-3
-4
-6
-8
-6
-5
-9
-12
-12
-10
-5
-2
-1
0
0
0
0
2
6
6
2
0
1
1
-1
-2
-1
-3
-7
-8
-9
-8
-10
-6
-8
-9
-10
-9
-8
-4
0
-1
-2
1
4
3
3
6
7
4
2
3
5
8
11
14
15
13
12
12
16
22
24
23
21
19
15
11
16
23
21
17
16
15
11
8
10
12
11
10
11
12
12
11
6
2
4
5
0
-4
-3
-2
-2
-2
-4
-8
-12
-11
-5
-3
-5
-7
-9
-11
-13
-14
-14
-14
-15
-16
-16
-16
-15
-14
-13
-12
-14
-17
-20
-15
-10
-13
-16
-16
-16
-18
-20
-18
-16
-18
-21
-24
-26
-26
-24
-19
-17
-22
-25
-27
-26
-22
-20
-21
-22
-21
-22
-25
-23
-19
-18
-19
-20
-21
-22
-22
-20
-22
-17
-18
-19
-20
-20
-20
-19
-18
-18
-18
-23
-26
-23
-20
-19
-18
-19
-20
-20
-20
-17
-16
-16
-16
-17
-18
-18
-18
-18
-18
-18
-18
-18
-18
-17
-14
-11
-13
-17
-18
-18
-15
-12
-12
-12
-14
-16
-19
-22
-18
-14
-14
-14
-15
-16
-18
-19
-16
-15
-18
-20
-20
-20
-19
-17
-15
-15
-18
-19
-15
-10
-4
-2
-2
-2
-2
1
5
18
32
34
34
28
20
21
22
23
24
21
17
7
-2
2
5
1
-3
-9
-15
-18
-20
-22
-25
-29
-32
-29
-28
-28
-28
-27
-27
-29
-30
-29
-26
-21
-4
17
20
17
43
75
102
128
170
130
111
9
-63
-137
-242
-328
-296
-272
-285
-287
-246
-204
-160
-121
-91
-69
-58
-49
-42
-38
-35
-34
-33
-31
-29
-28
-27
-26
-26
-27
-29
-27
-22
-20
-20
-21
-23
-24
-24
-21
-17
-15
-14
-16
-18
-15
-12
-9
-6
-6
-6
-7
-7
1
6
6
6
6
6
5
6
11
14
15
16
15
14
15
17
21
22
21
19
17
17
19
19
17
15
13
10
7
13
22
22
22
21
20
17
14
18
22
19
16
14
12
12
12
11
10
8
5
1
-1
2
4
4
4
4
3
0
2
8
10
11
12
11
10
9
12
17
18
17
17
16
23
26
27
28
28
28
27
27
33
38
37
36
34
32
31
31
35
37
34
32
31
30
31
32
33
33
30
27
25
25
27
28
27
23
19
16
13
17
23
23
21
19
18
15
12
16
20
18
16
15
14
13
12
14
15
11
8
8
8
10
12
12
12
11
8
4
4
8
10
9
8
7
6
5
7
11
11
9
8
7
8
11
12
12
11
10
8
6
10
14
14
14
10
6
7
9
14
18
16
14
13
12
13
14
14
14
13
11
9
9
12
14
15
14
11
10
9
11
15
16
15
14
13
9
12
7
10
7
4
3
2
5
8
8
8
6
4
2
1
6
10
10
10
8
6
3
4
9
12
13
14
15
16
17
22
28
34
40
45
49
51
53
51
47
41
35
38
42
36
30
30
30
25
20
14
10
13
14
4
-4
-5
-7
-10
-11
-7
-4
-5
-6
-6
-5
-2
1
3
4
5
13
25
41
59
84
109
134
158
193
229
144
48
-68
-183
-264
-339
-313
-288
-263
-239
-216
-189
-139
-96
-72
-51
-39
-30
-28
-26
-25
-21
-14
-10
-10
-10
-10
-10
-9
-7
-5
-6
-10
-13
-15
-15
-13
-10
-7
-6
-7
-8
-9
-6
-10
0
0
0
0
-1
-2
2
6
6
6
6
6
8
11
14
16
15
14
14
15
20
22
23
23
20
17
14
14
17
18
18
17
15
14
13
14
17
18
19
20
21
23
24
26
28
24
20
19
18
20
22
21
20
17
14
12
11
14
16
14
12
10
8
8
10
15
16
12
10
11
13
15
16
17
18
17
16
15
19
25
26
25
22
18
19
20
23
26
24
22
24
26
27
28
29
30
27
23
20
19
22
24
26
27
22
19
17
18
24
25
23
22
21
20
19
18
19
18
15
14
13
12
12
13
12
13
10
9
8
10
12
12
12
9
6
6
6
8
10
9
8
6
4
5
7
10
11
8
6
5
5
8
11
13
10
4
2
1
3
7
8
8
7
5
4
3
6
10
7
4
2
0
2
4
4
4
0
-4
-4
-4
-2
0
2
4
2
0
-2
-3
0
2
3
3
0
-2
-2
-1
1
1
-1
-2
-2
-1
1
2
2
2
1
0
0
1
2
4
6
1
-4
-3
-2
0
2
1
0
-2
-3
1
4
4
3
0
-2
-1
0
1
3
6
7
5
5
7
10
15
17
19
27
36
39
41
43
45
43
46
32
26
34
41
28
16
15
14
10
6
4
2
0
-4
-12
-19
-23
-25
-22
-20
-19
-19
-22
-23
-20
-17
-14
-12
-12
-9
-4
8
23
46
72
93
113
139
166
189
211
125
34
-100
-228
-283
-330
-314
-295
-260
-228
-205
-175
-124
-82
-62
-46
-37
-31
-27
-22
-16
-12
-11
-10
-11
-12
-13
-13
-9
-7
-5
-5
-7
-8
-7
-6
-6
-6
-6
-7
-9
-6
0
-2
-4
-4
-4
-5
-6
-2
2
2
2
2
2
3
4
5
6
8
10
8
6
7
9
11
13
15
15
13
13
15
16
16
15
13
12
11
11
13
14
15
16
16
17
20
22
24
25
26
23
20
22
24
23
22
20
17
14
13
16
18
17
15
12
10
10
12
18
20
20
18
15
14
15
16
17
18
19
19
17
18
21
23
25
25
24
24
24
28
32
32
32
30
28
27
26
27
28
29
30
29
28
27
26
27
27
25
23
20
19
21
22
22
19
14
12
11
13
17
18
17
14
11
10
10
10
12
13
14
11
8
8
8
8
8
8
8
5
2
4
6
7
7
4
2
2
2
3
4
3
1
-1
-2
-2
-1
1
2
2
0
-3
-4
-5
-4
-1
0
-1
-5
-2
-8
-6
-6
-6
-9
-12
-13
-14
-11
-8
-8
-8
-10
-12
-14
-15
-12
-10
-9
-9
-12
-14
-14
-13
-11
-10
-10
-9
-7
-6
-5
-4
-4
-5
-7
-8
-7
-6
-6
-4
-1
-2
-4
-4
-4
-1
2
3
4
0
-4
-3
-2
-1
0
-4
-6
-6
-6
-4
-2
-1
-1
-4
-6
-6
-6
-5
-4
-3
-3
-5
-7
-9
-6
-1
2
5
6
5
8
13
15
18
27
36
38
40
40
40
40
38
28
21
26
28
20
14
15
15
12
7
-1
-5
0
-2
-12
-18
-22
-24
-24
-21
-16
-15
-17
-18
-19
-19
-17
-13
-9
-8
-7
9
-6
42
59
81
104
130
156
184
188
76
-34
-138
-234
-307
-349
-325
-302
-281
-256
-225
-187
-142
-108
-83
-66
-55
-50
-49
-47
-45
-41
-36
-34
-34
-34
-34
-35
-37
-35
-31
-30
-31
-32
-32
-32
-32
-28
-24
-24
-24
-24
-24
-21
-18
-15
-12
-14
-16
-16
-14
-6
-2
-2
-1
1
2
1
2
6
8
9
10
10
10
9
9
11
12
11
10
10
11
13
14
12
7
2
0
-2
4
10
10
10
8
6
7
8
11
14
15
15
11
8
8
8
7
5
3
1
-2
-3
0
2
3
2
-1
-2
-3
-1
3
2
-1
-2
-1
-1
0
4
12
8
4
5
6
6
6
10
14
14
13
9
8
16
22
20
18
17
15
12
13
19
21
18
15
13
12
11
12
15
13
8
6
6
6
7
8
8
4
-1
0
2
2
2
2
2
-1
-4
-5
-6
-6
-6
-6
-6
-6
-6
-6
-6
-5
-5
-8
-11
-14
-14
-9
-6
-6
-7
-11
-12
-12
-11
-9
-8
-9
-11
-13
-13
-11
-9
-7
-9
-14
-15
-16
-14
-12
-10
-8
-11
-14
-15
-15
-11
-8
-8
-9
-13
-16
-14
-12
-11
-10
-11
-13
-15
-15
-12
-10
-10
-11
-13
-14
-13
-9
-3
-2
-2
-4
-7
-8
-8
-6
-8
-3
-4
-5
-6
-4
-2
-1
0
-1
-2
-3
-4
-1
2
2
2
0
-2
-4
-6
-3
-2
-1
0
-1
-1
1
2
1
0
0
-1
-3
-1
3
4
4
3
1
-1
-3
1
6
5
4
3
2
4
6
7
8
9
10
7
5
12
16
17
18
17
16
16
22
34
42
47
49
47
41
33
30
31
33
35
29
20
15
11
11
13
11
7
3
-2
-6
-10
-11
-12
-14
-16
-16
-15
-10
-6
-6
-6
-7
-8
-8
-7
-3
6
22
33
42
63
96
124
150
181
216
165
69
-32
-135
-227
-315
-315
-294
-272
-251
-223
-196
-148
-194
-77
-56
-44
-32
-27
-22
-21
-20
-21
-22
-19
-16
-15
-14
-15
-16
-18
-18
-13
-10
-10
-12
-16
-18
-18
-17
-14
-12
-13
-14
-13
-12
-11
-9
-7
-5
-3
-2
-3
0
5
8
10
9
8
8
8
13
18
18
18
18
18
18
18
20
22
22
21
17
14
15
15
13
11
9
7
4
6
13
16
15
14
13
11
9
10
13
12
9
5
1
0
0
0
0
0
0
-2
-4
-1
2
2
2
2
2
0
0
6
10
11
11
8
6
6
8
13
16
17
18
17
18
21
22
23
25
27
27
25
28
33
34
35
36
36
33
30
36
42
40
38
37
36
35
34
35
36
36
35
31
28
29
30
29
28
28
27
24
23
26
27
25
22
18
16
15
15
17
18
17
14
11
10
10
11
13
12
10
9
8
10
12
12
12
11
10
7
5
10
14
13
12
10
8
7
8
13
16
15
13
11
10
9
8
9
10
9
8
7
6
7
9
11
10
7
6
5
6
10
10
10
7
4
2
0
3
6
7
8
5
2
2
2
3
4
5
5
1
-2
1
2
1
0
-1
-2
-2
-1
1
3
5
4
1
0
-1
0
3
4
4
2
4
-1
0
0
0
2
4
3
2
4
6
8
10
7
4
2
1
7
11
15
17
14
13
16
20
24
32
42
46
45
47
52
51
46
43
41
40
41
35
27
26
27
24
20
13
6
11
15
6
-2
-8
-12
-11
-10
-8
-6
-5
-4
-4
-4
-2
0
1
3
6
14
25
42
64
89
115
138
160
187
217
152
60
-59
-184
-253
-315
-311
-301
-265
-228
-204
-178
-132
-88
-66
-45
-35
-26
-23
-20
-21
-21
-16
-12
-11
-10
-11
-12
-12
-11
-8
-6
-7
-9
-11
-11
-9
-8
-7
-6
-6
-7
-9
-6
-1
0
0
0
-1
-2
-2
4
10
9
8
8
8
9
10
14
18
16
14
13
13
17
20
19
18
17
16
13
13
15
15
13
12
11
10
10
13
18
19
17
17
19
22
25
26
27
26
23
19
16
20
24
22
20
19
18
17
16
17
18
15
12
13
14
16
18
20
21
17
14
15
17
20
23
25
25
23
22
23
26
29
30
30
30
31
32
32
34
37
36
32
31
30
32
34
36
38
34
30
30
30
31
32
29
26
24
23
26
28
27
26
23
21
19
19
21
22
22
20
16
14
14
14
14
14
14
11
7
9
13
13
14
9
8
6
4
9
14
11
8
8
8
7
6
7
8
9
9
6
5
8
10
9
7
5
4
3
5
10
11
9
7
5
4
3
4
7
8
7
5
3
3
5
6
6
3
0
-1
-2
3
8
6
4
3
2
1
1
5
8
6
4
3
3
6
8
7
5
2
0
0
1
3
4
4
3
1
0
-1
0
3
4
3
0
-3
-4
-2
0
2
-1
-4
-5
-6
-2
2
2
2
1
0
0
0
2
4
2
0
0
0
3
4
5
6
5
5
8
12
15
18
23
24
24
31
40
47
53
48
41
38
40
29
24
30
35
20
6
8
10
6
2
-1
-6
-13
-19
-24
-28
-28
-27
-24
-22
-25
-26
-26
-25
-22
-20
-20
-20
-21
-9
11
14
11
36
68
92
113
153
195
131
60
0
-62
-205
-337
-312
-291
-302
-305
-262
-221
-185
-148
-111
-80
-66
-55
-52
-47
-39
-34
-32
-31
-33
-33
-31
-29
-26
-24
-24
-25
-27
-28
-27
-24
-21
-19
-17
-19
-23
-21
-17
-16
-16
-16
-16
-18
-20
-15
-10
-8
-6
-7
-8
-7
-6
-3
1
4
5
1
-1
2
4
7
8
9
8
2
3
8
10
9
7
5
2
-1
1
5
6
7
6
3
6
2
14
16
16
16
15
14
16
18
14
10
10
9
4
1
4
6
4
2
1
-1
-4
-5
-2
0
0
-1
-4
-5
-3
-2
-2
-2
-2
-2
-1
1
3
5
7
8
8
6
4
11
18
18
18
17
16
17
18
19
20
22
23
19
16
18
20
20
20
18
14
10
9
12
13
11
9
5
3
1
2
5
6
5
1
-3
-2
1
-1
-5
-6
-6
-8
-10
-6
-2
-3
-4
-5
-6
-10
-13
-7
-2
-3
-5
-8
-10
-11
-12
-11
-10
-9
-9
-12
-12
-8
-6
-7
-10
-13
-14
-15
-12
-6
-7
-11
-12
-12
-13
-15
-15
-16
-14
-16
-15
-14
-13
-12
-13
-14
-16
-18
-19
-19
-14
-11
-14
-16
-18
-20
-19
-18
-17
-17
-19
-21
-23
-23
-21
-20
-21
-22
-21
-20
-21
-22
-21
-20
-19
-22
-27
-28
-28
-24
-20
-18
-16
-20
-24
-25
-26
-23
-20
-20
-20
-22
-24
-23
-22
-22
-22
-22
-22
-24
-24
-20
-18
-18
-19
-22
-25
-27
-26
-22
-23
-27
-28
-29
-29
-27
-26
-25
-27
-31
-32
-32
-31
-30
-29
-28
-31
-34
-35
-35
-30
-26
-24
-22
-21
-20
-19
-17
-13
-9
-6
1
14
21
24
24
18
15
12
10
11
10
5
2
-1
-4
-7
-11
-15
-16
-16
-22
-16
-33
-36
-36
-36
-34
-32
-32
-32
-33
-34
-29
-26
-25
-24
-24
-17
2
18
28
44
65
87
110
139
172
112
-10
-105
-187
-266
-342
-341
-312
-300
-292
-261
-226
-183
-139
-108
-77
-64
-52
-51
-50
-45
-40
-38
-36
-34
-32
-34
-35
-31
-28
-28
-28
-28
-28
-30
-30
-25
-22
-22
-22
-23
-23
-21
-19
-15
-14
-14
-14
-14
-12
-9
-8
-7
-6
-5
-4
-4
0
6
6
6
5
4
4
4
8
12
11
10
9
8
8
8
7
6
4
2
1
1
6
8
8
8
7
6
6
10
16
18
17
16
15
14
14
14
15
15
13
12
12
13
14
14
14
12
10
7
4
8
12
12
12
12
12
10
9
13
16
14
12
12
13
16
18
19
20
19
16
13
14
18
20
21
20
17
16
17
21
25
25
23
21
20
19
18
20
22
20
18
17
16
17
18
17
16
12
10
9
9
12
14
12
9
7
5
3
3
6
7
5
4
3
2
1
1
3
3
1
0
0
2
5
6
6
1
-4
-5
-6
-2
2
1
0
-2
-4
-3
-2
1
3
-1
-4
-3
-2
-1
0
3
2
-2
-4
-4
-3
0
2
2
0
-3
-4
-5
-2
3
2
-1
-2
-2
-2
-2
-1
2
0
-2
-1
0
0
0
2
4
1
-2
-2
-1
2
4
4
4
2
0
0
1
3
4
4
4
5
7
9
10
11
9
5
4
4
5
7
8
8
6
3
0
-2
2
6
5
4
3
2
2
2
4
6
6
6
8
10
12
16
21
24
25
30
39
46
51
52
48
45
43
38
32
36
45
35
17
15
17
16
13
10
7
2
-4
-9
-14
-16
-18
-16
-14
-16
-18
-18
-17
-13
-10
-9
-8
-9
-6
5
12
14
32
66
92
111
138
170
170
149
101
38
-88
-238
-280
-288
-299
-312
-273
-225
-194
-164
-121
-162
-62
-48
-43
-38
-30
-22
-19
-16
-17
-18
-18
-18
-15
-12
-10
-8
-10
-12
-11
-10
-7
-6
-5
-5
-7
-7
-5
-2
1
2
1
0
0
3
7
8
9
9
7
6
7
12
16
16
16
15
14
16
18
19
20
21
22
22
22
24
26
27
26
21
18
16
15
18
20
21
20
16
16
20
24
28
30
29
27
25
25
27
28
27
24
21
18
14
17
20
20
20
17
14
12
10
13
16
15
14
13
12
14
16
16
16
16
16
15
16
20
22
23
24
25
26
25
26
31
33
35
34
31
32
35
36
37
38
38
34
32
37
42
40
38
35
32
30
28
30
32
31
29
26
24
22
20
21
22
21
19
17
16
16
16
15
12
9
8
7
7
9
10
9
7
5
2
-1
2
7
7
6
4
2
1
0
1
2
1
0
-2
-3
1
4
4
4
3
1
-2
-2
4
7
5
4
5
5
3
3
7
6
3
2
2
2
3
4
5
3
-1
-2
-3
0
6
6
6
3
0
-1
-2
1
4
2
0
0
0
0
1
4
6
4
2
2
3
6
7
5
4
4
3
0
1
6
7
5
4
3
2
2
3
5
5
3
2
2
4
6
6
6
2
-2
-4
-6
0
4
3
2
-1
-4
-4
-4
-2
0
-2
-4
-5
-5
-3
-2
-1
0
-1
-2
-1
3
8
12
15
16
15
23
34
39
43
41
37
32
28
23
18
29
36
19
4
6
8
7
5
1
-3
-10
-16
-22
-26
-25
-24
-23
-23
-25
-26
-26
-23
-18
-16
-16
-14
-11
-4
5
12
18
43
72
97
122
151
181
176
167
92
11
-135
-268
-286
-302
-309
-305
-258
-216
-192
-161
-115
-79
-64
-52
-46
-39
-32
-28
-25
-24
-25
-26
-25
-23
-21
-19
-17
-18
-21
-22
-22
-19
-15
-14
-14
-15
-17
-16
-18
-9
-6
-8
-10
-10
-10
-6
-2
0
2
0
-2
-1
1
4
7
10
12
10
8
8
10
14
16
16
16
15
14
15
16
17
15
11
9
7
8
11
12
11
9
7
8
10
13
16
18
20
17
14
14
14
13
12
9
6
2
1
4
6
6
5
1
-3
-5
-5
-3
-2
-1
-1
-3
-4
-3
0
3
4
4
4
4
6
9
11
13
14
14
13
12
17
22
23
24
21
18
17
16
19
22
22
22
20
18
19
20
19
18
19
18
13
11
13
14
13
10
7
5
3
4
7
8
7
4
1
0
0
0
0
1
0
-3
-6
-3
0
0
0
-2
-4
-7
-9
-4
0
-1
-2
-4
-6
-8
-10
-7
-7
-9
-10
-11
-12
-11
-10
-9
-8
-8
-10
-13
-13
-11
-10
-11
-12
-12
-12
-13
-10
-6
-8
-10
-14
-18
-18
-18
-14
-10
-11
-12
-14
-16
-16
-16
-15
-14
-15
-16
-17
-18
-19
-19
-16
-15
-18
-20
-20
-18
-15
-14
-13
-15
-19
-20
-20
-19
-17
-16
-15
-17
-22
-17
-12
-12
-12
-13
-14
-17
-20
-17
-14
-14
-14
-15
-17
-20
-21
-17
-14
-14
-16
-21
-23
-21
-20
-19
-18
-17
-18
-21
-22
-21
-20
-19
-18
-18
-20
-23
-23
-21
-16
-20
-13
-16
-14
-12
-7
-1
6
12
12
12
13
14
12
9
4
1
4
2
-10
-16
-13
-14
-18
-23
-29
-31
-29
-30
-34
-41
-49
-51
-49
-45
-41
-39
-37
-38
-41
-39
-35
-32
-30
-25
-20
-7
6
27
48
72
97
120
140
150
126
24
-82
-195
-283
-336
-357
-335
-313
-289
-262
-231
-193
-150
-117
-91
-74
-62
-57
-55
-51
-47
-45
-43
-38
-33
-34
-37
-39
-42
-37
-32
-29
-26
-30
-34
-30
-26
-25
-24
-23
-22
-25
-28
-26
-23
-19
-16
-18
-20
-20
-19
-16
-13
-10
-9
-11
-11
-9
-6
-1
0
-1
-2
-2
-2
-1
1
3
4
4
3
0
0
0
0
0
-2
-4
-5
-6
-3
0
2
4
2
0
2
5
8
10
10
8
4
2
2
2
2
1
-1
-4
-7
-7
-5
-4
-4
-7
-11
-12
-13
-12
-9
-7
-6
-9
-12
-11
-10
-8
-6
-5
-4
-5
-5
-1
2
3
4
3
2
2
3
7
11
13
14
13
11
9
9
11
12
12
10
7
6
6
6
7
8
7
4
1
0
0
0
0
-1
-2
-6
-10
-5
0
-2
-4
-7
-10
-10
-10
-9
-8
-7
-6
-8
-10
-9
-8
-8
-8
-9
-10
-11
-10
-6
-4
-4
-5
-7
-9
-11
-9
-5
-4
-3
-4
-2
-8
-8
-6
-4
-4
-4
-8
-12
-6
-2
-2
-2
-4
-6
-8
-9
-5
-2
-3
-4
-7
-9
-11
-11
-8
-6
-6
-8
-12
-14
-13
-12
-11
-10
-10
-12
-15
-16
-16
-16
-15
-15
-16
-18
-20
-15
-10
-9
-8
-12
-16
-17
-17
-13
-10
-9
-9
-12
-13
-10
-8
-7
-6
-7
-8
-8
-7
-4
-2
-1
-2
-5
-6
-7
-5
-1
0
0
-3
-7
-7
-5
-4
-2
-2
-2
-5
-8
-4
0
-2
-4
-4
-5
-9
-10
-3
3
6
8
6
4
6
10
17
25
35
40
39
37
35
34
33
30
27
28
31
23
10
11
15
13
9
2
8
-3
0
-6
-12
-16
-20
-20
-20
-17
-14
-15
-16
-17
-17
-13
-10
-9
-5
5
10
10
28
64
93
116
138
158
168
172
126
58
-62
-200
-264
-310
-315
-311
-269
-221
-199
-179
-134
-90
-69
-50
-41
-32
-29
-26
-23
-20
-17
-14
-12
-10
-12
-14
-14
-13
-10
-8
-7
-8
-12
-13
-11
-9
-6
-3
-1
-1
-3
-3
-1
0
1
2
2
2
1
4
9
10
12
11
10
10
10
15
20
21
22
22
22
23
24
25
26
25
24
22
20
22
24
24
23
20
18
17
17
20
24
27
27
25
25
27
28
29
30
30
26
21
20
20
21
20
19
18
14
10
11
12
13
14
9
6
6
6
8
10
10
10
9
8
9
11
13
14
15
16
15
14
15
18
21
22
22
22
21
23
27
30
33
33
31
29
28
31
34
35
36
33
30
30
30
31
32
31
30
28
26
25
24
26
27
24
21
19
18
18
18
19
19
15
13
11
12
15
16
16
12
7
6
7
8
9
9
6
5
4
5
6
6
6
4
2
0
-2
0
2
4
5
0
-4
-5
-5
-2
0
0
-1
-3
-4
-3
-1
1
2
1
0
-1
-2
-2
0
3
2
-1
-2
-2
0
-2
5
6
2
-2
-2
-2
2
6
5
4
2
0
0
1
4
6
4
2
2
2
3
5
7
6
2
0
0
2
6
8
8
5
0
-2
-1
1
3
4
3
2
1
0
0
0
0
-2
-4
-5
-6
-4
-2
1
3
-1
-4
-4
-3
1
4
4
4
3
3
6
9
11
14
18
20
19
26
38
45
49
47
43
37
31
30
29
31
35
22
6
9
12
13
14
8
2
0
-3
-8
-12
-13
-14
-15
-16
-15
-13
-10
-8
-6
-4
-7
-8
-7
0
11
21
30
50
75
99
124
150
177
191
202
131
46
-85
-221
-265
-228
-306
-306
-260
-216
-193
-166
-116
-74
-58
-45
-36
-29
-25
-21
-18
-16
-18
-19
-15
-12
-13
-14
-14
-16
-20
-19
-14
-12
-12
-12
-13
-14
-15
-13
-9
-8
-8
-10
-13
-11
-7
-5
-4
-4
-4
-6
-8
-2
4
5
6
5
4
3
3
10
14
15
16
15
14
14
15
18
20
20
19
16
15
17
18
17
16
16
16
15
20
28
30
29
27
25
23
20
24
28
26
24
22
20
19
18
18
18
16
14
11
9
13
16
16
15
11
8
8
10
15
18
17
16
15
16
19
21
23
24
24
23
21
23
27
29
31
30
32
24
22
25
28
30
32
29
26
24
22
25
28
25
22
21
20
19
18
20
21
16
14
14
14
15
16
17
16
13
12
11
11
13
13
11
10
9
8
7
7
9
7
4
4
4
7
10
9
8
5
2
2
2
4
6
7
7
4
1
-2
-3
1
4
3
2
2
2
3
4
5
4
1
0
1
3
5
6
6
4
1
0
-1
0
4
3
2
-2
-6
-5
-4
-2
0
-3
-6
-7
-8
-7
-6
-4
-3
-7
-10
-10
-10
-7
-6
-6
-7
-9
-10
-11
-11
-9
-8
-8
-9
-11
-12
-12
-11
-9
-8
-9
-9
-10
-5
-4
-2
0
-3
-6
-8
-10
-7
-4
-4
-4
-4
-4
-6
-7
-3
0
-2
-4
-5
-5
-3
-2
-2
-4
-8
-7
-2
2
5
9
13
12
9
14
21
31
41
42
42
34
26
23
20
24
27
18
10
7
4
4
4
1
-3
-10
-16
-23
-28
-27
-26
-27
-29
-31
-32
-32
-31
-28
-26
-27
-28
-27
-23
-19
-4
14
22
27
51
77
104
131
171
211
93
-23
-119
-212
-292
-356
-326
-301
-293
-279
-248
-213
-168
-129
-100
-78
-65
-56
-50
-45
-40
-38
-38
-38
-37
-35
-32
-28
-24
-24
-29
-29
-27
-26
-25
-24
-24
-25
-27
-26
-28
-20
-18
-19
-20
-21
-22
-15
-10
-8
-6
-9
-12
-11
-9
-4
0
1
2
2
2
1
2
6
9
11
11
9
9
11
12
12
9
4
2
1
1
3
4
4
4
3
3
4
6
8
10
12
9
6
7
8
8
8
5
2
0
-2
-1
0
1
0
-5
-8
-9
-8
-4
-2
-1
-1
-3
-4
-3
0
3
4
3
2
1
3
7
8
9
10
8
9
10
12
14
17
20
18
16
18
20
20
20
20
20
21
22
23
23
19
16
19
18
14
14
18
20
20
14
5
2
2
4
7
8
9
8
5
4
4
3
4
-2
-4
-6
-8
-4
0
-1
-2
-4
-6
-6
-6
-4
-2
-4
-6
-7
-9
-12
-13
-10
-8
-7
-7
-9
-10
-10
-10
-9
-9
-11
-15
-19
-16
-9
-10
-13
-14
-14
-15
-17
-13
-8
-11
-14
-16
-18
-16
-14
-15
-16
-13
-11
-19
-23
-19
-16
-15
-15
-18
-20
-22
-22
-18
-17
-20
-22
-23
-24
-24
-23
-21
-18
-15
-18
-23
-24
-23
-22
-21
-21
-23
-27
-32
-28
-24
-25
-26
-27
-28
-31
-33
-27
-22
-23
-24
-26
-28
-28
-27
-24
-22
-24
-26
-26
-25
-22
-20
-20
-21
-23
-25
-27
-24
-18
-16
-17
-19
-21
-22
-22
-20
-17
-17
-16
-20
-20
-17
-14
-9
-4
-6
-8
-6
-3
4
12
21
28
28
27
24
22
24
24
17
16
21
17
4
0
4
4
0
-6
-12
-14
-13
-15
-19
-26
-33
-32
-29
-28
-27
-25
-24
-24
-24
-21
-18
-15
-10
3
14
11
18
57
92
117
145
175
174
124
71
16
-85
-231
-289
-272
-275
-295
-272
-224
-187
-155
-118
-79
-57
-39
-33
-29
-27
-25
-24
-25
-23
-18
-16
-14
-17
-20
-19
-18
-16
-14
-15
-16
-18
-19
-14
-10
-11
-12
-12
-12
-14
-14
-9
-6
-6
-6
-6
-6
-6
-3
2
4
5
6
5
7
11
12
13
14
15
15
16
17
22
22
22
20
18
15
12
16
20
19
18
15
12
14
17
20
22
23
24
23
24
28
29
27
25
23
21
19
20
24
25
23
20
17
16
15
14
15
16
17
16
14
16
18
20
22
20
18
16
15
20
24
24
24
23
22
20
20
26
30
28
26
25
24
25
27
30
31
29
28
27
28
31
32
31
30
29
28
27
28
31
31
28
25
22
22
22
24
26
23
20
21
22
21
20
20
19
15
12
12
12
14
16
13
11
9
7
4
4
8
9
7
5
3
1
-1
0
3
4
3
2
1
1
0
5
6
4
2
-1
-4
1
6
6
6
5
4
2
0
2
4
4
4
3
3
6
8
9
8
4
2
2
2
3
4
5
6
5
3
1
5
11
12
11
9
7
7
8
11
14
12
10
9
8
9
10
11
12
10
8
7
7
11
14
14
14
12
10
9
9
12
14
14
13
9
9
11
14
17
15
11
10
10
12
15
16
17
17
14
15
16
21
26
29
32
31
31
41
49
55
60
58
55
51
47
43
42
48
45
30
22
23
24
24
21
16
12
8
1
-8
-7
-3
-4
-7
-9
-11
-12
-12
-9
-12
-5
-6
-3
0
5
11
22
36
59
83
108
134
164
187
197
173
88
-22
-164
-255
-288
-304
-305
-282
-238
-207
-186
-145
-94
-68
-52
-42
-34
-28
-23
-19
-15
-15
-17
-18
-17
-12
-8
-7
-6
-7
-8
-10
-11
-5
0
-3
-6
-5
-4
-5
-5
-1
2
1
0
0
0
1
3
6
7
4
3
5
8
12
14
15
15
13
12
13
17
21
22
22
22
20
21
22
24
26
24
22
21
20
21
22
25
28
26
24
26
29
33
36
38
39
36
33
31
31
34
35
32
28
25
24
24
25
27
25
21
19
17
19
23
24
24
22
20
19
18
21
24
25
26
23
20
21
22
25
28
27
26
27
28
29
30
33
33
30
28
28
30
34
36
35
32
29
28
28
29
31
32
31
30
29
27
25
25
26
23
20
19
18
18
18
18
17
12
8
8
8
9
10
9
8
6
4
4
5
7
7
4
2
1
0
0
0
1
0
-3
-4
-5
-5
-3
-2
-2
-5
-9
-10
-8
-8
-8
-8
-8
-10
-12
-12
-12
-10
-8
-10
-12
-13
-13
-10
-8
-6
-5
-8
-10
-10
-8
-4
-2
-2
-3
-6
-6
-3
-2
-2
-2
-2
-2
-3
0
5
6
6
4
6
0
0
4
8
8
8
6
4
4
4
5
6
5
4
2
2
8
12
10
8
7
5
3
4
8
10
9
8
7
6
5
6
9
9
7
6
5
5
7
8
8
7
6
2
-2
4
10
10
10
11
12
12
13
19
24
23
25
35
42
44
47
51
52
47
41
35
36
45
40
27
22
22
20
17
16
16
15
13
6
-1
-5
-9
-9
-6
-5
-4
-4
-4
-3
-2
1
4
3
3
7
14
28
46
72
96
119
143
170
187
194
156
75
-42
-184
-261
-297
-309
-307
-275
-231
-204
-183
-139
-91
-70
-52
-47
-43
-41
-42
-34
-30
-29
-28
-30
-32
-32
-32
-29
-26
-28
-30
-31
-32
-31
-29
-26
-24
-26
-28
-29
-28
-23
-19
-17
-17
-19
-19
-17
-14
-10
-6
-3
-2
-3
-1
3
6
9
9
7
8
10
12
14
16
18
15
12
12
12
15
18
17
16
14
12
12
12
13
14
14
14
15
18
22
24
25
24
20
18
17
16
17
18
18
14
9
8
8
8
9
10
10
7
4
5
6
8
10
8
6
3
0
3
6
8
9
6
4
4
6
11
14
17
17
15
14
14
15
18
21
23
22
19
20
23
24
25
25
23
22
21
20
20
22
24
22
20
18
16
17
18
20
22
17
14
11
8
9
10
8
6
4
2
3
4
5
3
-3
-6
-6
-5
-3
-2
-2
-4
-7
-8
-8
-6
-3
-3
-5
-7
-9
-6
-2
-3
-4
-5
-6
-9
-11
-5
0
1
2
-1
-4
-6
-7
-4
-2
0
1
-3
-6
-7
-7
-4
-2
-2
-4
-8
-10
-9
-5
-1
-1
-3
-7
-11
-10
-7
-6
-5
-7
-12
-11
-10
-9
-8
-6
-4
-7
-10
-10
-10
-8
-6
-7
-9
-13
-15
-12
-10
-10
-10
-11
-12
-12
-12
-11
-10
-9
-9
-11
-12
-13
-14
-13
-12
-11
-10
-11
-12
-12
-11
-12
-9
-10
-10
-10
-8
-6
-6
-6
-10
-14
-14
-13
-7
-3
-6
-8
-9
-10
-9
-7
-2
2
6
7
5
7
12
21
32
36
36
31
24
23
25
26
25
24
23
12
1
3
6
3
0
-7
-14
-22
-28
-28
-28
-29
-30
-32
-34
-33
-31
-26
-22
-24
-26
-26
-24
-20
-8
12
17
12
32
67
97
126
165
208
130
16
-58
-123
-230
-343
-325
-295
-302
-312
-269
-226
-188
-150
-114
-80
-67
-55
-49
-43
-38
-34
-33
-32
-32
-31
-28
-25
-22
-20
-21
-22
-23
-24
-24
-23
-20
-19
-21
-21
-19
-18
-17
-16
-16
-17
-19
-17
-13
-11
-12
-8
-8
-11
-14
-6
2
1
0
-3
-6
-6
-5
0
4
5
6
6
6
5
4
5
4
-1
-4
-4
-4
-3
-2
-3
-4
-5
-8
-11
-9
-5
-1
3
0
-5
-5
-3
-5
-8
-7
-6
-11
-16
-14
-12
-13
-14
-17
-20
-21
-22
-20
-17
-14
-13
-17
-20
-18
-15
-12
-10
-9
-8
-9
-9
-5
-4
-3
-2
-1
0
0
4
9
10
11
11
9
8
10
15
20
19
18
16
14
17
20
21
21
16
12
11
11
16
18
13
10
9
8
5
5
7
8
8
6
2
0
-1
-2
-3
-4
-4
-5
-7
-6
-3
-2
-3
-5
-4
-13
-18
-11
-4
-5
-6
-8
-10
-13
-16
-11
-8
-10
-12
-14
-16
-14
-12
-12
-12
-13
-15
-18
-18
-14
-12
-13
-14
-13
-14
-17
-16
-13
-12
-13
-14
-14
-15
-17
-14
-9
-10
-12
-13
-14
-11
-8
-9
-10
-11
-12
-12
-11
-7
-4
-8
-10
-10
-10
-12
-13
-9
-6
-6
-6
-7
-9
-11
-11
-7
-6
-6
-6
-7
-6
-3
-2
-3
-4
-4
-7
-11
-8
-2
-4
-6
-6
-6
-8
-10
-6
-2
-3
-4
-5
-6
-4
-2
-1
0
-2
-4
-6
-6
-1
2
2
2
1
-2
-6
-6
-2
0
-1
-2
-3
-4
-3
3
9
10
9
10
8
17
20
30
40
39
38
36
34
35
35
30
27
31
29
14
5
11
13
10
7
2
-1
-4
-8
-14
-17
-20
-22
-23
-22
-19
-18
-18
-20
-23
-24
-24
-20
-15
-9
-3
5
12
28
46
78
109
135
162
188
190
107
15
-104
-209
-285
-330
-316
-294
-257
-226
-202
-166
-118
-86
-68
-53
-39
-33
-29
-27
-25
-24
-25
-22
-17
-16
-15
-14
-15
-16
-16
-14
-10
-10
-10
-11
-12
-9
-6
-5
-4
-6
-8
-10
-11
-6
-2
-1
0
0
0
-1
1
8
12
11
10
11
12
13
15
17
18
19
20
19
21
25
26
25
24
23
21
22
21
24
21
18
17
16
16
17
23
28
27
26
27
28
29
30
30
29
26
23
20
19
22
23
21
19
17
13
8
10
16
18
19
18
15
14
13
15
19
20
20
20
20
20
20
23
26
27
28
27
27
32
36
35
34
35
36
34
34
40
44
42
39
37
36
35
36
40
42
42
40
36
34
35
36
36
36
35
31
27
29
33
33
30
26
22
20
18
22
26
24
22
20
18
15
12
15
18
16
13
10
8
10
12
9
8
7
5
3
3
6
8
8
7
5
2
-1
2
7
8
7
5
3
2
2
6
10
10
10
7
4
4
4
6
8
9
10
7
4
6
8
9
10
9
8
5
6
10
12
12
11
8
6
5
6
9
13
17
18
17
21
27
33
39
44
49
56
62
70
78
75
72
72
72
69
65
58
51
46
39
28
19
14
10
10
10
10
7
0
-4
-5
-6
-5
-4
-4
-6
-9
-8
-5
-4
-3
-2
-3
-4
-3
16
37
33
26
59
91
117
144
182
201
111
28
-35
-115
-250
-334
-293
-269
-279
-272
-234
-194
-152
-114
-79
-57
-45
-39
-36
-31
-25
-20
-17
-16
-17
-18
-17
-15
-13
-11
-9
-12
-17
-18
-18
-15
-14
-11
-8
-10
-12
-9
-6
-5
-4
-5
-6
-7
-7
-3
0
1
2
1
0
-3
-1
5
9
11
11
9
9
11
13
15
16
15
14
13
14
17
18
18
16
13
9
6
10
14
16
18
17
16
18
20
23
26
27
27
20
16
18
20
18
16
16
14
10
9
12
14
13
11
7
6
5
6
9
10
11
9
5
4
4
5
7
8
10
10
10
13
16
17
18
18
18
15
13
19
24
25
25
22
20
20
21
24
26
27
27
24
23
25
26
26
25
23
22
21
20
21
22
22
20
17
15
13
14
12
16
14
12
10
10
10
12
14
14
13
8
4
5
6
7
8
8
8
6
4
5
6
7
7
4
2
1
2
5
6
6
4
1
-1
-3
-1
3
4
5
3
-1
-1
0
2
4
3
2
0
-2
0
2
2
2
0
-2
-4
-5
-1
2
4
4
-1
-4
-3
-2
-1
0
0
-2
-6
-6
-3
-2
-2
-2
-3
-5
-7
-7
-5
-4
-4
-5
-8
-9
-10
-6
-2
-2
-2
-5
-8
-10
-11
-7
-4
-2
-1
-5
-8
-6
-4
-3
-2
-3
-5
-7
-7
-4
-2
-2
-2
-3
-5
-7
-5
1
2
3
2
-1
-2
-2
-1
-2
3
4
-1
-6
-3
0
0
0
0
0
-1
-2
-1
0
0
0
-1
-2
-3
-3
0
2
2
1
-2
-4
-4
-3
-1
1
3
1
-3
-4
-4
-4
-3
-2
-3
-4
-4
-3
-2
3
8
8
8
10
12
15
20
31
40
38
36
36
36
36
35
31
29
32
27
11
7
15
15
10
5
-2
-4
-5
-9
-14
-18
-21
-22
-23
-21
-17
-14
-11
-12
-16
-14
-12
-7
-2
7
14
18
28
60
90
116
141
167
180
168
134
65
-41
-196
-281
-292
-305
-318
-294
-240
-204
-177
-140
-98
-77
-64
-51
-39
-34
-31
-30
-29
-28
-29
-26
-30
-21
-22
-23
-24
-23
-22
-21
-20
-22
-24
-23
-22
-22
-21
-18
-17
-20
-22
-22
-20
-13
-10
-10
-10
-11
-12
-11
-8
-4
-2
-1
3
7
7
5
9
15
15
13
12
12
15
18
19
20
17
14
12
10
12
14
13
12
11
10
9
9
14
18
17
16
17
17
15
15
17
16
12
10
10
10
10
10
11
8
3
0
-3
-2
1
2
2
0
-4
-6
-8
-3
2
2
2
1
0
2
4
7
10
7
4
6
8
10
12
12
12
11
10
10
11
14
16
15
14
14
14
13
14
17
15
11
10
9
8
8
9
8
11
10
5
0
3
6
6
6
2
-2
-3
-4
-1
1
-2
-5
-8
-10
-10
-10
-9
-8
-8
-9
-11
-12
-13
-12
-8
-8
-12
-14
-14
-14
-14
-13
-11
-13
-17
-18
-17
-15
-14
-15
-16
-16
-16
-19
-22
-18
-14
-17
-20
-20
-20
-21
-21
-17
-15
-18
-20
-20
-19
-17
-16
-15
-16
-20
-22
-22
-20
-17
-16
-17
-20
-23
-24
-24
-22
-19
-18
-18
-18
-20
-19
-18
-18
-18
-21
-24
-24
-24
-20
-16
-17
-18
-18
-18
-20
-20
-15
-13
-16
-18
-17
-16
-17
-18
-17
-16
-17
-18
-19
-21
-23
-21
-17
-19
-23
-25
-27
-26
-23
-21
-22
-22
-26
-29
-32
-26
-20
-24
-28
-28
-28
-30
-32
-29
-26
-26
-26
-28
-30
-30
-30
-27
-26
-26
-27
-30
-30
-26
-23
-21
-20
-21
-22
-22
-18
-11
-9
-7
-5
-3
6
15
18
20
20
20
15
10
8
6
12
12
-6
-19
-15
-12
-16
-19
-23
-26
-27
-31
-39
-44
-44
-44
-45
-46
-45
-44
-44
-42
-39
-38
-38
-38
-38
-27
-14
-9
-5
20
47
70
94
131
163
113
60
-18
-104
-239
-344
-334
-328
-336
-330
-288
-250
-218
-181
-136
-105
-93
-82
-73
-66
-61
-54
-46
-44
-48
-49
-47
-41
-32
-32
-35
-36
-37
-38
-39
-38
-35
-34
-34
-35
-34
-31
-28
-25
-22
-24
-26
-24
-22
-21
-20
-17
-15
-18
-19
-15
-12
-10
-8
-7
-6
-5
-4
-5
-5
-2
0
-1
-3
-5
-6
-5
-4
-4
-5
-7
-10
-13
-14
-13
-10
-8
-10
-12
-11
-10
-6
-2
-2
-2
-5
-8
-10
-11
-7
-5
-10
-14
-16
-18
-18
-18
-18
-19
-21
-23
-26
-26
-22
-20
-19
-20
-23
-23
-21
-19
-17
-15
-13
-13
-15
-13
-8
-6
-4
-6
-8
-6
-4
-1
2
3
4
2
0
2
4
6
8
10
11
7
4
4
5
8
9
7
5
3
2
3
4
4
2
-1
-2
-3
-3
-1
0
1
-2
2
-9
-10
-7
-4
-4
-4
-6
-8
-9
-10
-8
-6
-7
-8
-9
-10
-11
-11
-8
-7
-10
-12
-13
-13
-11
-9
-7
-8
-11
-14
-17
-15
-11
-10
-10
-11
-13
-15
-17
-14
-9
-10
-12
-12
-12
-13
-14
-11
-8
-10
-12
-13
-14
-11
-8
-7
-7
-10
-12
-13
-13
-9
-6
-5
-5
-8
-11
-13
-11
-6
-6
-9
-10
-10
-10
-10
-9
-7
-7
-9
-10
-10
-10
-8
-5
-2
-6
-10
-12
-14
-10
-6
-6
-6
-9
-12
-13
-13
-9
-6
-8
-10
-10
-10
-11
-11
-9
-9
-11
-12
-13
-13
-11
-10
-9
-10
-13
-14
-14
-11
-7
-6
-6
-6
-6
-10
-12
-9
-6
-2
2
2
2
4
7
12
16
17
21
32
41
44
45
41
37
34
30
25
27
36
31
14
9
11
8
2
0
1
-2
-9
-13
-17
-22
-27
-24
-19
-20
-22
-22
-22
-19
-16
-14
-12
-13
-11
7
20
19
29
67
100
124
152
189
175
97
24
-44
-149
-285
-318
-280
-270
-277
-257
-222
-182
-140
-105
-72
-54
-38
-36
-35
-33
-31
-26
-20
-19
-18
-18
-18
-18
-18
-14
-10
-13
-16
-15
-14
-13
-12
-10
-8
-10
-12
-13
-13
-10
-8
-7
-7
-9
-10
-9
-6
-2
1
3
4
3
2
1
5
11
12
11
10
10
13
14
17
20
17
14
13
12
14
16
18
19
13
8
6
6
12
16
15
14
17
18
19
22
26
26
22
20
19
18
19
20
21
19
15
14
13
13
15
16
16
12
8
10
12
14
16
16
16
15
14
15
16
18
20
16
14
16
18
19
20
22
23
20
18
19
21
23
25
27
26
22
20
20
22
25
26
25
23
21
20
21
22
22
20
18
16
14
17
20
20
19
14
10
10
10
11
12
11
8
3
0
0
1
4
5
3
1
-2
-4
-3
-1
1
0
-3
-4
-5
-5
-3
-2
-1
-3
-7
-8
-8
-7
-4
-5
-6
-9
-12
-10
-8
-8
-8
-10
-12
-13
-13
-9
-6
-7
-9
-12
-14
-14
-12
-8
-5
-3
-3
-6
-8
-7
-4
-1
0
0
-2
-5
-4
-1
0
1
0
-3
-5
-6
-1
4
4
4
2
0
-1
-2
0
2
3
4
0
-2
0
2
2
2
2
1
-1
-1
2
3
1
0
1
0
-4
-3
2
3
1
-1
-3
-4
-3
-2
-1
0
2
3
4
8
12
14
16
16
16
20
27
39
48
49
48
39
33
29
29
36
37
28
22
18
16
16
14
10
6
3
-4
-13
-16
-15
-15
-17
-18
-18
-18
-19
-16
-20
-11
-12
-10
-8
-4
2
16
31
47
66
95
124
154
178
193
170
84
-22
-156
-250
-298
-320
-315
-288
-245
-217
-197
-156
-102
-74
-57
-47
-40
-34
-27
-24
-21
-20
-20
-19
-17
-15
-14
-13
-12
-14
-16
-18
-20
-14
-10
-9
-8
-10
-12
-14
-14
-8
-4
-4
-4
-4
-4
-3
-1
2
4
3
2
3
6
9
11
13
14
13
12
12
15
19
20
20
20
20
19
18
21
24
22
20
18
16
14
13
17
20
20
20
20
21
25
28
30
31
28
25
23
24
28
28
24
21
19
17
15
15
17
17
15
14
14
14
15
16
16
13
10
9
8
12
16
17
18
16
14
13
13
18
22
22
22
22
22
22
23
26
28
28
28
27
27
29
30
31
30
27
26
25
26
29
30
30
28
25
23
21
24
28
25
22
20
18
16
14
15
16
14
12
11
10
9
8
9
9
5
2
0
0
4
5
3
1
-1
-3
-7
-6
-2
-1
-3
-4
-5
-6
-7
-5
-1
-1
-3
-4
-6
-5
-4
-2
0
-2
-4
-6
-8
-5
-2
-3
-4
-6
-8
-9
-9
-5
-2
-2
-3
-6
-9
-11
-10
-6
-4
-4
-4
-4
-4
-4
-4
-3
-2
-2
-2
-3
-3
-1
0
0
-2
-4
-6
-8
-4
0
0
0
-1
-2
-4
-5
-1
2
0
-2
-4
-6
-6
-5
-2
-1
-3
-6
-10
-9
-3
0
0
-1
-3
-5
-7
-5
-1
0
-1
-2
-3
-4
-5
-1
4
6
8
7
6
10
14
15
17
22
27
33
39
44
45
36
30
29
27
24
23
26
23
14
10
9
5
0
-2
-2
-8
-16
-19
-21
-22
-23
-24
-23
-22
-22
-23
-26
-21
-16
-15
-14
-12
-8
8
24
35
50
78
105
132
160
192
168
54
-53
-151
-242
-325
-348
-317
-295
-279
-253
-221
-181
-137
-104
-75
-59
-47
-43
-41
-40
-39
-31
-23
-23
-22
-26
-26
-28
-30
-26
-22
-23
-24
-25
-26
-24
-22
-23
-24
-24
-24
-25
-25
-21
-17
-14
-12
-13
-15
-17
-15
-10
-6
-3
-2
-3
-4
-4
0
7
7
5
4
3
6
11
13
14
11
8
7
6
8
10
7
4
2
-1
-5
-6
1
6
7
8
8
8
8
8
9
9
7
5
2
3
8
9
7
3
-1
-2
-3
0
5
5
3
2
1
-2
-6
-1
4
3
2
1
0
2
4
5
6
5
4
5
7
11
14
14
14
14
14
13
14
19
21
19
18
18
18
17
18
23
21
17
16
15
14
15
17
19
15
20
7
6
9
12
10
8
8
8
2
-1
4
8
5
2
0
-2
0
2
3
2
-3
-7
-9
-8
-4
-1
2
2
-1
-4
-8
-8
-5
-3
-1
0
-1
-3
-5
-6
-5
-6
-8
-7
-6
-6
-6
-5
-4
-8
-12
-13
-12
-4
1
-4
-8
-8
-8
-10
-12
-10
-8
-9
-10
-10
-10
-11
-11
-9
-9
-11
-12
-12
-12
-12
-11
-9
-11
-15
-16
-16
-16
-14
-12
-10
-14
-18
-18
-18
-16
-14
-13
-12
-15
-18
-17
-16
-15
-15
-18
-20
-21
-21
-18
-16
-15
-15
-18
-21
-23
-21
-16
-14
-14
-15
-17
-17
-15
-14
-13
-12
-12
-12
-12
-12
-10
-10
-10
-12
-14
-14
-14
-11
-8
-7
-6
-9
-12
-12
-11
-7
-4
-5
-6
-7
-6
-1
3
6
8
7
10
17
25
32
34
35
29
20
17
15
19
25
19
11
3
-4
-5
-6
-7
-8
-10
-13
-25
-34
-31
-28
-29
-30
-31
-32
-31
-29
-26
-24
-22
-20
-21
-20
-16
-4
15
26
33
55
84
113
143
180
219
145
47
-50
-146
-244
-342
-310
-272
-266
-259
-230
-199
-152
-108
-81
-57
-47
-39
-35
-31
-25
-19
-15
-13
-16
-18
-17
-14
-9
-6
-7
-8
-8
-8
-7
-5
-3
-3
-5
-6
-6
-4
-1
1
3
2
-1
-2
-2
4
8
10
12
10
8
10
12
15
18
18
18
20
22
24
26
27
28
27
26
26
27
29
30
31
29
24
22
22
23
25
26
27
27
25
24
25
30
35
36
35
31
28
28
28
28
28
25
22
21
20
22
24
23
22
18
16
15
15
18
20
20
20
20
19
16
15
18
21
23
23
21
21
23
27
31
31
29
28
29
30
31
32
34
32
30
30
30
35
40
40
40
38
36
36
36
38
40
38
36
35
34
34
34
35
35
32
30
29
29
31
32
33
32
27
26
25
26
29
30
29
27
25
24
24
24
26
24
22
20
18
20
22
24
26
21
18
16
14
16
18
19
20
18
16
13
14
19
21
18
16
16
15
13
14
18
19
17
16
15
14
13
13
15
14
11
9
8
11
14
14
14
12
10
7
5
10
14
13
12
10
8
6
5
8
10
10
10
9
8
9
10
11
12
11
10
9
11
15
16
16
16
15
13
11
12
15
16
16
13
10
8
6
9
12
10
8
8
8
7
6
7
8
9
9
5
3
6
8
9
10
11
11
9
13
21
24
25
34
45
47
45
44
44
42
39
34
29
34
28
29
16
18
20
16
12
12
12
8
3
-3
-9
-14
-17
-12
-8
-9
-10
-10
-10
-10
-7
-1
2
1
2
6
15
26
47
71
94
117
139
162
186
211
136
48
-86
-223
-274
-322
-313
-301
-260
-222
-203
-178
-130
-88
-65
-46
-38
-32
-28
-25
-21
-18
-16
-14
-13
-12
-13
-12
-8
-6
-7
-8
-8
-10
-13
-10
-4
-3
-5
-6
-6
-6
-6
-4
-1
0
0
-2
-4
0
4
7
10
9
8
7
7
13
18
18
18
19
20
18
18
23
26
26
25
23
22
22
22
21
20
19
16
11
12
15
16
16
16
16
16
15
19
14
23
20
18
16
14
12
15
18
14
10
9
8
9
10
10
10
8
6
4
3
8
10
10
9
7
6
5
8
14
16
15
14
13
12
13
17
21
22
22
22
21
22
24
26
28
26
24
21
18
24
28
26
24
23
21
17
15
20
24
22
20
19
17
15
14
14
14
13
12
11
10
10
10
11
10
7
4
1
3
7
8
9
9
6
2
-2
2
6
4
2
0
-2
-3
-4
-2
0
-2
-4
-6
-7
-4
-2
-2
-2
-5
-7
-10
-10
-4
-2
-2
-2
-3
-6
-11
-8
-2
0
0
-1
-3
-4
-4
-4
-4
-3
-4
-5
-6
-3
0
-1
-2
-3
-4
-7
-9
-4
0
-2
-4
-6
-8
-10
-11
-8
-6
-7
-8
-8
-8
-9
-8
-5
-5
-7
-9
-11
-9
-5
-4
-4
-5
-7
-9
-11
-7
-2
-3
-4
-5
-6
-6
-6
-3
0
-1
-2
-3
-4
-5
-6
-4
-2
-3
-4
-6
-6
-2
0
0
-1
-4
-7
-9
-4
5
8
8
8
8
8
7
13
21
30
39
40
40
34
28
30
32
27
22
22
21
15
10
12
12
5
-2
-8
-12
-13
-15
-19
-23
-28
-30
-31
-30
-24
-22
-22
-22
-23
-23
-21
-19
-17
-3
13
9
1
38
81
105
84
159
188
130
74
24
-40
-184
-301
-295
-294
-311
-310
-256
-211
-182
-150
-111
-82
-67
-55
-48
-43
-41
-40
-40
-37
-31
-28
-29
-30
-31
-33
-35
-32
-27
-26
-25
-26
-29
-30
-31
-27
-22
-22
-22
-25
-28
-25
-22
-21
-20
-19
-18
-18
-18
-14
-12
-11
-10
-10
-10
-11
-9
-3
0
1
1
-1
-2
-2
0
4
6
6
3
-1
-1
1
2
1
0
1
0
-4
0
4
5
6
8
10
9
8
10
12
12
11
6
2
3
4
4
4
4
3
-2
-4
-4
-4
-4
-4
-5
-6
-7
-7
-5
-4
-3
-2
-2
-2
-3
-1
3
5
4
5
2
5
8
9
10
11
12
12
12
12
12
13
14
14
14
13
12
14
16
17
17
14
12
11
10
10
10
11
10
6
3
1
1
3
4
4
0
-5
-6
-6
-4
-2
-6
-10
-12
-14
-14
-14
-12
-10
-14
-18
-19
-20
-16
-14
-14
-15
-19
-22
-23
-23
-20
-17
-15
-17
-22
-24
-25
-24
-21
-20
-21
-22
-22
-22
-21
-20
-21
-22
-23
-26
-30
-28
-26
-24
-22
-26
-30
-30
-30
-29
-28
-28
-28
-28
-28
-30
-31
-27
-25
-28
-30
-30
-30
-29
-28
-27
-26
-27
-28
-27
-26
-26
-25
-23
-23
-25
-27
-29
-26
-21
-20
-20
-23
-28
-28
-28
-22
-16
-20
-24
-23
-22
-23
-24
-21
-19
-22
-25
-28
-29
-25
-22
-21
-21
-24
-26
-27
-25
-20
-19
-21
-23
-25
-27
-29
-26
-19
-22
-27
-27
-25
-24
-25
-23
-20
-20
-20
-19
-18
-13
-8
-7
-6
-7
-8
-5
2
15
24
25
24
18
14
13
12
13
14
15
9
-3
-7
-5
-6
-9
-13
-17
-22
-28
-30
-30
-32
-35
-36
-37
-37
-34
-33
-32
-31
-30
-30
-30
-28
-23
-6
8
5
12
45
76
99
128
163
157
93
28
-38
-140
-272
-326
-320
-323
-331
-304
-257
-221
-188
-148
-105
-87
-74
-68
-63
-55
-47
-46
-46
-46
-44
-41
-38
-37
-36
-40
-44
-44
-44
-41
-38
-36
-34
-36
-38
-39
-38
-32
-28
-28
-27
-25
-24
-23
-21
-18
-16
-16
-16
-15
-11
-6
-2
1
1
-1
-1
1
4
7
9
10
8
6
7
8
10
12
10
8
6
4
4
4
5
5
2
0
0
2
7
11
14
14
10
8
7
6
7
7
5
2
-1
-3
-5
-5
-3
-3
-5
-6
-6
-6
-6
-4
-2
-4
-6
-7
-8
-4
0
2
4
2
0
1
3
7
10
11
12
11
10
11
13
16
18
19
20
20
20
21
24
27
28
27
26
25
26
29
30
31
29
32
23
22
25
28
25
22
21
20
20
20
21
22
19
16
15
14
15
16
16
15
12
10
10
10
10
11
13
12
8
6
6
7
9
10
9
7
5
4
5
6
6
5
4
4
4
6
8
9
10
7
4
3
3
7
10
10
10
8
6
6
6
8
10
9
8
8
8
9
11
13
13
11
10
10
11
13
14
15
13
9
8
7
10
16
16
16
12
8
9
10
11
12
10
8
8
8
8
8
10
11
7
4
5
7
12
14
14
12
8
6
5
6
10
11
9
8
8
7
5
6
9
10
9
8
8
15
20
23
26
24
22
23
25
33
41
50
56
56
54
46
41
44
46
46
44
39
33
27
24
25
23
18
14
11
6
0
-2
-1
-4
-11
-12
-11
-8
-5
-4
-3
-4
-6
-4
-2
3
10
27
42
40
45
81
115
145
177
214
204
108
16
-69
-168
-284
-324
-287
-268
-264
-244
-212
-170
-122
-89
-63
-47
-35
-26
-18
-16
-15
-14
-13
-11
-9
-7
-4
-6
-8
-7
-6
-3
0
1
2
-1
-4
-2
0
2
4
5
6
4
2
1
1
6
8
9
10
9
9
11
14
18
20
19
19
21
25
29
30
31
32
31
30
30
32
36
36
36
34
32
30
28
31
34
32
30
29
29
32
35
38
40
39
38
37
36
37
38
38
37
34
30
27
28
31
31
29
27
25
22
19
20
23
24
23
22
22
23
24
26
28
26
24
24
24
28
32
33
34
32
30
32
35
38
40
40
40
39
38
39
41
44
45
41
40
39
39
41
42
43
41
37
36
35
36
39
39
36
33
30
28
26
30
34
29
24
22
20
18
16
18
20
19
18
16
14
15
16
16
15
12
10
9
10
14
15
13
12
11
8
5
7
11
12
11
10
9
8
8
10
10
8
6
5
4
5
6
7
8
5
2
2
3
6
8
8
8
6
4
3
3
5
5
3
2
3
4
3
4
7
5
1
0
0
2
5
6
7
5
1
0
0
4
8
7
6
4
2
1
0
1
2
1
0
0
0
1
2
3
2
-3
-6
-5
-2
2
4
5
3
-2
-3
-1
2
5
6
7
9
11
15
19
21
23
27
32
35
38
43
48
44
39
32
26
30
33
26
20
19
17
12
8
7
5
2
-3
-10
-16
-20
-21
-18
-16
-15
-14
-14
-14
-15
-13
-9
-6
-3
0
3
12
21
49
22
102
126
147
166
176
173
95
3
-145
-265
-298
-322
-319
-301
-253
-215
-196
-165
-118
-82
-61
-46
-38
-34
-34
-33
-31
-27
-22
-20
-21
-23
-25
-23
-19
-18
-18
-18
-19
-22
-25
-22
-18
-19
-20
-21
-22
-21
-20
-17
-14
-13
-12
-14
-15
-11
-8
-7
-6
-4
-2
-3
-2
3
6
5
4
3
2
2
4
8
10
9
8
7
6
5
4
4
3
1
-2
-6
-2
2
2
2
2
2
0
-1
7
14
12
9
5
1
-2
-2
3
4
-1
-4
-5
-7
-9
-10
-9
-8
-9
-10
-10
-8
-3
-3
-5
-6
-6
-10
-15
-9
-1
0
0
-1
-2
-3
-4
0
4
4
4
4
4
6
8
10
12
12
11
7
5
9
12
11
9
7
5
3
4
8
10
9
6
2
-1
-3
-1
3
2
-1
-5
-9
-9
-7
-4
-2
-4
-6
-11
-16
-10
-4
-6
-8
-11
-14
-16
-17
-13
-11
-15
-18
-20
-22
-22
-22
-21
-20
-19
-19
-21
-20
-16
-16
-19
-19
-17
-20
-26
-23
-15
-16
-19
-20
-21
-22
-24
-18
-12
-16
-20
-19
-18
-19
-20
-19
-18
-21
-24
-24
-23
-19
-16
-18
-20
-20
-21
-24
-24
-19
-16
-17
-20
-24
-26
-26
-22
-16
-14
-15
-17
-19
-20
-21
-20
-17
-16
-16
-19
-22
-18
-14
-16
-18
-20
-22
-22
-22
-19
-16
-16
-16
-18
-20
-22
-24
-22
-20
-23
-24
-24
-25
-27
-25
-20
-20
-23
-26
-30
-29
-25
-24
-25
-26
-27
-30
-33
-28
-21
-20
-20
-19
-18
-14
-10
-6
-1
8
16
17
18
18
18
17
15
10
7
11
10
0
-5
-3
-4
-8
-14
-23
-26
-25
-29
-37
-40
-41
-42
-42
-40
-37
-36
-37
-38
-37
-34
-30
-26
-22
-18
-14
-5
7
39
70
90
114
148
163
131
82
0
-102
-235
-317
-335
-344
-341
-318
-275
-241
-214
-176
-130
-99
-75
-64
-58
-54
-51
-49
-47
-40
-33
-34
-37
-37
-38
-36
-38
-33
-28
-32
-36
-36
-36
-33
-30
-27
-24
-26
-28
-29
-29
-23
-20
-18
-16
-17
-18
-19
-16
-8
-5
-7
-8
-7
-6
-5
0
6
8
7
6
5
5
7
11
15
11
6
5
4
7
10
8
6
2
-2
1
4
5
6
10
12
10
8
9
10
10
10
9
6
2
1
3
4
4
2
-2
-4
-5
-5
-3
-2
-1
-2
-5
-6
-7
-6
-2
-4
-6
-6
-6
-3
0
1
2
0
-2
0
2
5
8
10
12
11
10
9
9
12
15
17
18
17
17
19
22
26
26
21
20
19
20
23
24
25
21
15
14
14
16
16
16
16
14
12
12
12
12
12
11
10
7
5
8
10
9
7
3
0
-1
0
5
7
5
3
1
0
-1
0
3
4
3
1
-1
-2
-1
0
-1
-2
-3
-7
-10
-5
0
-1
-2
-2
-2
-4
-6
-2
2
3
3
-1
-3
0
2
2
2
1
-1
-3
-1
5
7
5
4
5
4
1
4
10
12
11
10
9
8
8
9
11
12
10
8
6
9
12
12
12
11
10
7
5
10
14
12
10
8
6
5
5
8
10
9
7
5
4
4
5
7
8
7
5
3
5
9
10
9
8
7
4
1
4
0
9
8
6
4
2
0
4
8
7
6
11
14
15
17
21
24
24
27
34
42
51
56
57
54
47
42
38
40
47
47
42
36
30
28
27
25
23
20
17
8
-1
-3
-4
-4
-4
-3
-2
-3
-4
0
4
5
6
5
5
10
17
27
44
70
95
119
144
168
191
211
176
100
-18
-159
-244
-304
-314
-306
-268
-222
-196
-173
-127
-76
-56
-37
-32
-26
-24
-22
-16
-10
-9
-8
-7
-6
-7
-8
-6
-4
-4
-4
-5
-6
-4
-2
0
2
-1
-2
-3
-2
4
6
7
8
8
8
7
9
13
14
15
15
13
13
15
20
16
26
26
26
26
29
32
34
36
35
34
32
31
36
40
38
36
34
32
30
29
34
36
36
37
39
40
40
42
45
45
43
40
37
37
39
40
40
39
37
32
27
31
36
33
30
27
24
21
18
24
28
27
26
25
24
25
27
30
32
30
28
28
30
34
36
36
36
36
36
35
37
42
44
43
42
42
42
41
44
49
50
49
48
46
44
42
44
46
46
46
42
38
42
46
44
42
40
38
36
34
36
38
38
37
34
31
28
27
30
32
31
28
24
22
23
25
27
26
23
21
19
18
19
20
20
17
16
14
12
16
20
20
20
18
16
13
11
15
18
16
14
12
10
12
14
15
16
17
17
14
13
16
18
18
18
18
15
11
14
19
20
19
17
15
14
13
15
18
19
20
18
16
16
16
18
20
20
19
15
12
14
16
17
18
18
18
16
15
18
20
19
17
14
12
11
12
15
16
16
13
9
8
9
10
11
12
13
12
8
10
12
14
16
15
14
12
10
12
14
15
16
14
12
11
11
15
18
18
18
17
17
19
23
29
32
33
34
33
38
47
53
57
58
58
54
49
46
43
48
42
39
22
22
22
23
24
17
11
5
-1
-7
-12
-12
-12
-11
-11
-14
-15
-11
-8
-7
-6
-5
-4
-5
0
10
19
27
50
78
102
125
154
185
191
193
123
43
-96
-239
-278
-314
-312
-307
-263
-221
-197
-168
-116
-72
-54
-39
-34
-28
-21
-16
-14
-12
-13
-14
-13
-11
-8
-6
-5
-6
-10
-12
-12
-9
-4
-2
-1
-2
-5
-3
1
2
3
4
5
6
4
8
12
15
18
16
14
13
13
18
22
25
28
26
24
26
28
30
32
31
30
27
27
30
32
32
31
28
24
21
23
28
30
29
28
27
27
29
33
37
38
38
34
28
30
32
31
30
28
26
22
18
23
26
24
22
20
18
16
15
18
20
19
18
17
15
12
12
16
18
18
17
15
17
21
22
23
24
24
24
23
26
31
31
30
29
28
26
24
29
34
32
30
29
28
28
28
28
28
28
27
23
20
22
24
23
21
18
15
13
14
18
18
15
14
13
11
9
10
13
12
9
8
8
8
6
7
8
6
4
1
-2
2
6
4
2
1
0
-3
-5
-1
2
2
1
-2
-4
-4
-3
-1
-1
-3
-4
-4
-4
-4
-4
-3
-2
-3
-6
-9
-5
1
0
-3
-4
-4
-8
-10
-5
0
-1
-2
-2
-2
-4
-6
-1
2
0
-2
-3
-4
-3
-2
-1
0
-1
-2
-3
-3
0
1
-1
-2
-2
-4
-8
-8
-5
-4
-3
-5
-9
-10
-11
-11
-9
-7
-6
-9
-12
-8
-4
-5
-6
-7
-8
-12
-15
-10
-6
-6
-6
-6
-7
-10
-11
-8
-6
-7
-8
-7
-7
-9
-9
-5
-5
-7
-8
-9
-10
-10
-9
-7
-6
-6
-5
-3
3
10
11
12
13
14
19
25
33
40
38
35
28
21
17
16
23
24
11
4
3
2
2
0
-4
-7
-10
-18
-28
-31
-29
-28
-28
-28
-28
-29
-31
-28
-23
-22
-22
-22
-22
-19
-16
2
19
37
54
75
97
129
158
179
166
63
-47
-173
-273
-332
-358
-339
-313
-280
-252
-229
-189
-137
-104
-84
-71
-63
-59
-57
-52
-46
-42
-39
-41
-45
-45
-43
-42
-41
-40
-40
-42
-44
-41
-38
-38
-38
-38
-38
-40
-41
-36
-32
-30
-28
-29
-30
-29
-27
-24
-20
-16
-15
-17
-16
-12
-10
-9
-8
-7
-6
-7
-3
4
5
3
2
3
2
-1
0
4
3
2
-3
-8
-9
-10
-7
-4
-3
-2
-3
-4
-2
0
2
4
4
3
0
-2
1
1
-1
-2
-3
-6
-10
-11
-9
-7
-5
-7
-13
-14
-15
-13
-9
-8
-8
-10
-8
-11
-8
-7
-6
-6
-6
-5
-4
-2
0
1
2
1
0
1
2
4
6
8
10
10
10
9
9
12
14
14
12
9
6
3
4
7
8
7
5
3
1
-1
-2
-1
-3
-6
-9
-12
-13
-14
-13
-12
-16
-20
-22
-23
-18
-14
-16
-18
-20
-23
-26
-27
-23
-20
-21
-22
-23
-24
-25
-25
-23
-22
-23
-25
-27
-26
-23
-22
-23
-25
-27
-28
-29
-29
-26
-24
-22
-23
-24
-27
-30
-26
-22
-23
-24
-25
-26
-28
-30
-29
-29
-33
-36
-34
-32
-32
-33
-35
-36
-37
-39
-41
-42
-41
-38
-33
-33
-35
-38
-41
-39
-35
-34
-33
-34
-32
-39
-40
-36
-32
-34
-36
-34
-32
-33
-33
-28
-25
-29
-32
-33
-34
-33
-31
-28
-27
-32
-34
-34
-33
-31
-30
-29
-28
-28
-29
-31
-29
-24
-22
-23
-24
-25
-27
-29
-27
-23
-24
-26
-25
-24
-23
-22
-21
-20
-22
-24
-23
-22
-21
-20
-20
-20
-22
-24
-24
-24
-22
-19
-16
-16
-20
-21
-19
-18
-17
-16
-17
-18
-19
-17
-13
-14
-17
-18
-19
-20
-21
-20
-16
-16
-16
-15
-14
-13
-12
-9
-6
-5
-4
-2
3
15
25
28
26
16
10
11
12
13
15
17
10
-4
-10
-10
-10
-9
-12
-18
-23
-29
-32
-35
-37
-39
-40
-40
-40
-40
-37
-34
-31
-28
-31
-34
-33
-29
-8
8
5
10
42
72
98
128
168
161
86
22
-30
-128
-270
-318
-291
-292
-312
-292
-248
-209
-172
-132
-91
-74
-64
-58
-53
-45
-37
-34
-31
-30
-30
-30
-30
-27
-24
-26
-28
-27
-26
-26
-26
-23
-20
-24
-26
-25
-24
-22
-20
-18
-17
-19
-20
-21
-19
-13
-10
-10
-10
-10
-9
-7
-3
1
2
2
2
2
5
9
11
14
12
10
10
10
13
16
17
18
15
12
9
7
11
14
12
10
12
14
13
13
16
17
15
14
14
14
14
15
17
13
6
3
1
1
3
4
5
4
1
-1
0
-1
2
1
0
-1
-2
-1
0
3
6
4
2
2
3
6
8
10
12
10
8
9
12
17
21
23
23
21
20
19
21
26
28
27
26
26
26
26
27
29
29
27
26
26
25
24
25
26
23
20
19
18
21
24
24
23
19
15
12
10
12
14
14
13
10
8
7
7
10
11
9
8
7
8
11
12
11
10
9
6
3
6
11
11
8
6
4
3
2
6
10
9
8
7
6
4
2
5
8
6
4
3
2
4
6
6
5
3
2
1
1
4
6
5
4
4
3
1
2
5
6
6
4
1
1
0
7
10
7
4
4
4
6
8
9
10
8
6
5
5
9
12
10
7
4
2
1
2
7
9
6
4
3
2
1
2
5
4
1
0
0
0
1
2
3
4
3
-1
-4
0
4
4
4
1
-2
-4
-5
1
6
4
2
2
2
1
1
5
7
4
3
6
10
14
16
17
19
23
26
29
39
53
56
56
51
43
40
37
38
41
42
44
32
20
21
22
19
16
13
9
2
-4
-5
-6
-8
-10
-9
-9
-12
-12
-6
-2
-2
-2
-2
-2
-3
10
34
37
29
53
91
118
141
173
207
155
89
27
-35
-179
-38
-296
-264
-282
-295
-254
-213
-172
-132
-95
-63
-49
-38
-36
-31
-22
-16
-15
-14
-15
-16
-13
-11
-9
-8
-8
-8
-9
-10
-9
-7
-5
-4
-5
-6
-7
-5
-1
0
0
0
-1
-3
-4
1
6
8
10
9
8
9
10
12
14
15
16
15
15
19
22
23
24
25
25
23
23
26
28
27
25
23
21
19
20
23
24
24
24
23
24
27
30
33
34
34
31
28
32
36
34
32
30
28
25
23
27
29
25
22
20
18
16
15
18
20
19
18
17
16
15
15
17
18
18
16
13
15
21
22
22
22
21
20
19
23
18
30
30
29
28
26
24
28
32
32
32
30
28
29
30
30
30
29
28
26
24
25
25
23
21
19
17
14
13
15
16
16
13
9
8
8
9
11
11
9
7
5
5
6
5
4
4
4
1
-2
2
6
6
6
4
2
-2
-3
2
6
6
6
4
1
-1
0
4
6
5
3
-1
0
4
6
6
6
5
2
-1
2
7
8
8
6
2
0
-2
2
6
5
4
2
0
1
2
3
4
4
3
0
-1
2
4
4
4
3
1
-2
-1
5
7
4
2
1
0
1
3
5
5
3
2
2
3
5
6
6
4
2
0
-2
2
6
5
4
4
4
1
-1
4
8
6
4
3
2
1
1
6
8
7
6
5
5
7
8
8
7
5
4
3
5
9
9
7
6
6
6
5
11
18
18
18
18
18
23
30
42
52
54
54
45
38
39
40
41
41
37
30
21
18
23
24
19
14
10
1
-10
-11
-6
-7
-11
-12
-12
-12
-12
-9
-5
-4
-3
-3
-6
-2
3
24
44
41
43
75
108
137
171
215
217
116
22
-61
-157
-272
-323
-288
-270
-271
-257
-227
-186
-137
-99
-69
-52
-43
-35
-28
-24
-21
-19
-17
-16
-16
-14
-11
-10
-10
-10
-12
-13
-14
-9
-4
-5
-6
-8
-10
-11
-12
-10
-8
-8
-8
-9
-10
-9
-8
-5
-4
-3
-2
-3
-2
2
4
3
2
3
4
3
4
7
8
9
10
9
8
7
10
14
13
12
10
8
8
8
8
8
9
10
9
9
14
18
20
22
21
20
18
18
22
24
23
21
18
15
11
10
11
12
13
11
7
7
9
10
10
10
9
8
6
8
10
11
12
11
10
10
10
14
18
18
18
16
14
14
15
19
22
23
24
21
20
21
22
22
21
19
17
15
14
15
16
16
15
13
10
7
9
13
14
14
8
4
2
0
2
4
5
6
3
0
0
0
2
4
2
0
-2
-3
1
4
3
1
-1
-2
-3
-2
2
3
1
0
-1
-4
-7
-4
1
2
2
-1
-5
-6
-5
-4
-4
-4
-4
-4
-4
-1
2
2
2
-1
-4
-6
-7
-2
2
2
1
-3
-6
-8
-9
-6
-4
-5
-8
-12
-13
-9
-8
-8
-8
-9
-11
-13
-11
-7
-6
-7
-9
-11
-14
-18
-14
-10
-12
-14
-15
-16
-18
-20
-17
-14
-15
-16
-17
-18
-17
-16
-18
-20
-20
-20
-23
-22
-18
-17
-19
-20
-21
-23
-25
-23
-18
-16
-17
-19
-21
-22
-23
-23
-21
-20
-20
-21
-24
-23
-22
-21
-20
-20
-20
-22
-24
-22
-20
-18
-16
-17
-18
-19
-18
-13
-9
-4
-3
-6
-7
-4
2
11
16
19
22
25
21
14
12
13
15
17
7
-7
-8
-8
-6
-4
-13
-22
-24
-26
-30
-34
-36
-38
-42
-45
-41
-38
-37
-36
-35
-34
-33
-31
-28
-24
-19
-8
9
23
37
58
84
112
142
163
181
94
-25
-127
-225
-294
-358
-342
-317
-302
-286
-249
-212
-166
-122
-97
-74
-61
-50
-47
-44
-41
-38
-41
-43
-39
-35
-31
-28
-30
-32
-35
-34
-29
-26
-26
-28
-32
-32
-28
-25
-23
-22
-22
-23
-25
-21
-15
-14
-14
-14
-14
-14
-14
-9
-4
-2
0
-3
-6
-4
-1
4
8
6
4
4
4
6
8
9
10
7
5
3
2
3
4
4
2
-2
-4
-5
0
8
10
9
8
8
8
8
7
5
1
-2
-4
-6
-3
0
-1
-2
-8
-12
-13
-14
-13
-12
-13
-14
-15
-16
-17
-17
-13
-10
-11
-10
-5
-3
-6
-7
-3
-1
1
1
-1
3
10
11
9
8
7
6
7
13
20
19
18
17
16
15
14
17
20
17
14
14
14
14
14
14
13
10
8
6
5
10
11
8
5
3
0
-4
-3
2
2
-3
-4
-5
-6
-7
-8
-7
-6
-7
-9
-8
-9
-6
-7
-8
-12
-16
-16
-16
-13
-10
-10
-10
-13
-16
-16
-15
-12
-10
-12
-14
-13
-12
-12
-11
-9
-9
-12
-14
-13
-10
-7
-6
-5
-7
-11
-12
-12
-9
-5
-4
-4
-5
-6
-7
-8
-6
-4
-5
-6
-5
-4
-4
-3
1
3
-1
-5
-8
-8
-2
2
2
1
-2
-4
-4
-3
-1
0
-1
-2
-2
-2
-3
-3
-1
0
-1
-2
-2
-2
-1
0
0
-3
-6
-7
-8
-5
-2
-1
0
-4
-8
-8
-8
-5
-2
-4
-6
-7
-8
-8
-8
-5
-5
-8
-10
-10
-8
-4
0
3
2
-1
1
7
8
9
19
30
32
32
32
32
32
30
24
18
23
27
17
8
10
11
6
1
-3
-6
-4
-4
-11
-17
-20
-22
-21
-19
-16
-14
-14
-15
-17
-16
-13
-10
-7
0
8
10
10
40
76
102
128
149
169
161
151
93
29
-117
-250
-285
-314
-318
-311
-259
-214
-189
-159
-116
-81
-61
-46
-41
-37
-34
-32
-31
-28
-24
-21
-19
-19
-21
-22
-21
-19
-17
-16
-15
-15
-17
-18
-18
-17
-15
-15
-18
-17
-16
-12
-8
-6
-4
-7
-10
-8
-5
-1
2
4
6
5
4
6
8
10
12
15
15
12
12
18
20
20
20
20
18
15
17
21
22
21
18
15
14
13
14
12
21
24
23
22
24
26
26
26
25
24
22
20
22
23
20
17
14
11
8
7
12
14
13
11
8
6
7
8
8
8
8
8
8
9
11
12
13
14
13
12
11
16
22
21
20
20
20
19
18
22
26
27
28
25
22
22
22
24
26
24
21
18
17
19
20
19
17
14
11
7
7
9
10
9
5
1
0
-1
0
3
4
3
1
-2
-3
-4
-1
2
1
0
-1
-2
1
4
2
0
0
0
-2
-2
3
6
5
4
3
1
-1
-1
2
4
3
2
1
0
0
0
0
0
0
0
-1
1
5
5
6
3
4
2
0
5
10
10
10
6
2
3
4
7
10
9
8
6
4
6
8
7
6
6
5
2
2
6
8
7
4
1
-1
-3
-1
3
3
1
0
-1
-3
-5
-3
0
-1
-2
-2
-2
-1
0
0
0
-1
-2
-5
-7
-2
2
2
2
0
-2
-3
-2
2
3
1
0
0
1
3
6
9
10
11
12
13
19
25
35
47
48
47
40
32
38
44
37
30
34
36
20
7
15
21
15
9
4
-1
-5
-8
-8
-10
-15
-18
-19
-18
-13
-10
-10
-10
-10
-10
-10
-7
-2
13
30
30
23
55
94
122
148
188
150
142
57
-7
-78
-212
-324
-291
-266
-279
-281
-239
-196
-153
-114
-84
-59
-45
-33
-25
-20
-17
-16
-16
-15
-13
-11
-8
-8
-11
-12
-11
-8
-5
-4
-3
-5
-9
-10
-10
-8
-5
-3
-2
-4
-6
-6
-6
-3
0
0
0
1
2
4
6
10
12
10
8
8
9
13
16
17
17
15
15
17
18
18
18
17
16
15
14
14
14
15
14
11
10
11
14
18
21
24
21
18
19
20
23
26
25
24
21
18
19
20
20
20
18
16
14
12
15
16
17
16
12
10
11
14
17
18
19
19
17
16
17
19
21
23
25
25
26
26
30
30
30
28
26
25
24
28
32
33
33
29
26
26
26
28
30
31
30
23
20
21
22
22
21
18
16
15
15
17
18
18
16
13
11
9
10
13
14
14
11
8
7
6
8
10
11
12
8
4
6
8
10
12
8
6
4
3
6
8
7
5
3
2
1
1
3
4
4
2
-1
-2
-1
1
3
4
3
0
-3
-3
-1
0
-2
-2
-2
-4
-6
-1
4
1
-2
-4
-6
-6
-6
-3
0
1
1
-3
-6
-6
-5
0
2
1
-1
-3
-2
2
2
-1
-2
-1
-2
-5
-4
-1
0
-1
-3
-5
-7
-6
-6
-2
-3
-4
-6
-8
-6
-4
-3
-2
-3
-4
-7
-9
-5
-2
-3
-4
-5
-6
-7
-6
-2
-1
-3
-4
-5
-7
-9
-8
-4
-2
-1
0
-1
-2
-2
2
7
9
11
20
28
32
36
33
30
26
21
15
12
21
25
10
0
0
-1
-6
-10
-11
-12
-12
-17
-27
-34
-38
-38
-34
-32
-32
-32
-33
-33
-31
-29
-27
-25
-23
-17
-11
-1
9
39
70
90
111
141
168
163
145
59
-38
-180
-293
-324
-344
-336
-315
-271
-236
-215
-180
-127
-92
-75
-63
-56
-51
-48
-42
-35
-31
-29
-30
-35
-35
-33
-31
-29
-27
-25
-25
-27
-28
-28
-27
-26
-27
-28
-29
-30
-27
-24
-22
-20
-21
-22
-22
-21
-16
-11
-8
-7
-10
-12
-13
-13
-10
-7
-4
-2
-3
-4
-4
-4
-3
1
5
5
3
2
3
4
4
3
1
-2
-4
0
4
5
6
4
2
5
8
8
8
9
10
6
4
6
8
8
8
6
3
1
1
4
6
5
3
-1
-3
-5
-5
-3
0
3
-1
-7
-8
-7
-4
-1
1
4
1
-2
1
4
7
10
10
10
10
10
13
16
15
13
10
10
15
18
18
18
21
19
13
12
18
20
19
18
18
15
10
8
9
10
10
10
9
7
5
6
4
8
6
1
-4
-3
-2
-2
-2
-1
0
-5
-8
-8
-8
-8
-8
-9
-10
-12
-14
-13
-12
-12
-13
-15
-16
-16
-16
-17
-16
-13
-16
-22
-24
-23
-20
-17
-16
-15
-17
-21
-20
-18
-17
-16
-14
-12
-16
-20
-18
-16
-17
-18
-20
-22
-20
-18
-18
-18
-18
-19
-23
-26
-25
-24
-24
-24
-23
-23
-25
-26
-27
-27
-25
-23
-21
-24
-29
-29
-27
-24
-21
-23
-28
-27
-26
-23
-20
-21
-22
-26
-30
-29
-28
-26
-24
-25
-26
-28
-30
-29
-28
-27
-26
-26
-27
-29
-29
-26
-24
-24
-25
-27
-30
-33
-31
-25
-24
-24
-28
-33
-33
-31
-30
-30
-28
-28
-30
-32
-32
-32
-30
-28
-29
-30
-28
-25
-20
-15
-11
-8
-8
-7
-4
4
19
26
27
23
14
11
13
14
13
13
15
7
-7
-6
1
0
-3
-7
-11
-18
-25
-24
-22
-26
-30
-31
-32
-30
-28
-25
-22
-21
-20
-21
-21
-16
-6
11
20
14
24
57
89
120
155
195
166
87
25
-27
-137
-273
-294
-271
-283
-306
-274
-230
-192
-155
-116
-76
-65
-54
-46
-38
-35
-32
-28
-24
-25
-26
-22
-18
-17
-16
-19
-22
-24
-24
-18
-15
-18
-20
-21
-22
-22
-21
-18
-16
-17
-18
-18
-16
-13
-12
-11
-10
-10
-10
-9
-5
-1
0
0
0
0
0
0
5
10
11
12
10
8
11
14
14
14
13
12
11
11
14
15
12
10
11
12
12
15
21
24
25
25
23
22
22
22
23
24
25
22
17
18
21
22
22
21
20
17
14
18
22
21
20
20
20
17
15
19
22
24
25
21
18
20
24
28
30
30
29
27
28
32
34
35
36
37
38
37
38
41
42
43
43
41
39
36
40
44
43
42
38
34
33
32
34
36
34
32
29
26
27
28
28
28
27
25
20
20
24
26
25
23
20
17
15
16
19
20
20
18
15
15
17
17
15
14
14
12
8
9
10
10
10
9
8
5
3
8
12
12
11
6
2
3
5
8
10
10
9
6
4
5
7
9
10
10
10
9
9
11
12
12
11
9
8
8
10
13
14
14
11
8
8
8
10
12
14
16
12
8
9
10
11
12
13
13
10
8
8
8
9
9
7
6
5
6
10
12
11
9
7
6
5
6
9
10
9
6
3
2
2
4
6
7
8
10
12
15
18
21
24
22
22
29
37
47
54
56
54
45
40
39
38
39
40
41
35
24
20
20
20
19
15
11
3
-6
-8
-7
-7
-9
-10
-10
-11
-10
-7
-4
-2
0
-1
-2
-1
5
29
45
39
45
80
111
137
171
217
202
115
41
-21
-126
-267
-303
-271
-273
-293
-269
-224
-183
-144
-105
-67
-53
-44
-39
-35
-28
-21
-18
-16
-18
-20
-21
-22
-17
-12
-13
-14
-15
-16
-15
-14
-10
-8
-10
-12
-11
-10
-8
-5
-3
-3
-5
-6
-7
-5
2
4
5
4
1
1
3
8
13
14
13
12
13
14
14
16
18
17
16
17
18
19
20
20
20
18
16
14
13
17
20
21
22
20
18
19
22
26
28
28
28
28
27
25
26
29
27
21
20
20
20
19
18
18
17
18
12
10
14
18
17
16
14
12
11
11
16
20
18
16
16
16
16
18
23
26
25
24
24
25
28
31
33
33
31
30
29
31
35
36
35
34
33
29
25
28
33
32
30
28
26
25
24
25
26
23
20
18
16
17
18
18
17
14
12
11
11
15
18
17
15
12
9
7
7
11
11
9
7
5
4
4
4
5
4
1
0
1
3
6
7
8
4
0
-1
-2
1
4
3
2
-1
-4
-4
-4
-2
0
-2
-4
-4
-4
-3
-2
-1
-1
-4
-6
-6
-4
-1
0
1
1
-1
-2
-3
-1
3
4
3
2
2
2
0
3
6
4
2
1
0
1
2
5
7
3
0
-1
-1
2
4
3
2
-1
-2
-3
-3
0
1
-1
-2
-3
-4
-4
-3
-1
0
-1
-2
-2
-1
1
3
5
2
-2
-1
0
2
4
5
6
5
4
5
7
12
16
17
19
22
25
28
35
46
51
49
46
41
39
42
42
38
37
39
30
16
16
21
19
15
10
5
1
-3
-4
-6
-12
-18
-17
-16
-15
-14
-12
-10
-12
-14
-13
-11
-6
1
13
20
19
32
66
96
123
153
186
180
146
92
28
-95
-245
-288
-289
-301
-317
-280
-230
-198
-169
-129
-88
-71
-86
-44
-34
-29
-24
-23
-22
-23
-23
-17
-12
-12
-12
-13
-14
-15
-15
-12
-10
-12
-14
-14
-14
-14
-13
-10
-9
-12
-14
-14
-11
-6
-4
-4
-4
-4
-4
-4
-2
1
3
5
7
8
7
6
11
16
15
14
15
16
17
18
19
20
19
17
14
13
16
18
16
14
13
11
9
12
19
22
22
22
21
20
20
22
25
24
21
18
15
14
13
13
16
13
10
7
4
6
8
7
6
5
4
1
0
8
13
10
8
8
8
7
7
10
12
11
10
9
9
11
14
17
16
13
12
11
14
21
22
21
20
19
17
18
17
20
18
16
15
14
12
10
13
16
11
8
8
8
8
8
8
7
4
1
-2
-3
-1
0
-1
-2
-3
-6
-10
-10
-7
-7
-9
-11
-13
-15
-17
-14
-9
-11
-15
-16
-16
-17
-18
-17
-16
-17
-18
-22
-26
-23
-20
-18
-17
-22
-26
-27
-28
-26
-23
-20
-19
-22
-24
-24
-22
-18
-16
-17
-19
-21
-22
-21
-20
-19
-18
-19
-21
-23
-20
-15
-14
-16
-17
-18
-20
-22
-16
-10
-11
-12
-14
-16
-17
-18
-18
-18
-17
-16
-16
-16
-15
-14
-11
-10
-11
-14
-18
-17
-11
-8
-8
-11
-16
-18
-19
-17
-13
-12
-12
-13
-15
-16
-16
-14
-14
-11
-8
-12
-16
-16
-16
-15
-14
-15
-16
-19
-20
-14
-10
-12
-14
-15
-17
-22
-22
-17
-14
-14
-17
-22
-22
-19
-14
-8
-6
-7
-8
-8
-6
-3
4
11
17
23
22
20
21
22
17
12
13
13
1
-8
-6
-4
-4
-6
-13
-18
-19
-22
-30
-34
-35
-37
-40
-41
-39
-38
-37
-37
-39
-40
-39
-35
-30
-26
-23
-7
11
21
29
54
81
109
138
156
167
49
-66
-165
-258
-322
-370
-350
-329
-309
-284
-249
-211
-166
-129
-106
-85
-69
-60
-59
-56
-51
-48
-47
-43
-38
-36
-37
-38
-39
-40
-39
-36
-33
-33
-35
-36
-37
-34
-38
-29
-30
-31
-32
-33
-33
-25
-18
-20
-22
-19
-16
-17
-16
-10
-6
-7
-9
-12
-12
-7
-2
2
4
3
2
3
6
9
9
7
4
1
0
0
1
3
3
1
-1
-3
-3
-2
-1
0
3
6
3
0
4
8
9
10
7
3
-1
-4
-3
-2
-4
-6
-7
-9
-11
-10
-6
-6
-10
-12
-13
-14
-13
-11
-9
-9
-11
-13
-15
-12
-7
-5
-3
-2
-4
-5
-6
0
6
6
6
6
6
8
11
15
18
15
12
11
11
15
18
18
17
12
9
7
8
12
13
10
8
7
6
5
4
5
3
-1
-2
-3
-4
-3
-2
-2
-7
-12
-12
-12
-8
-4
-5
-6
-9
-12
-15
-17
-13
-10
-12
-14
-15
-16
-17
-18
-15
-15
-17
-18
-19
-19
-17
-16
-16
-18
-21
-22
-22
-21
-19
-18
-18
-18
-19
-20
-21
-19
-16
-18
-20
-20
-20
-20
-20
-17
-14
-18
-22
-22
-22
-20
-18
-16
-15
-18
-20
-20
-18
-14
-12
-11
-11
-14
-15
-13
-10
-7
-8
-11
-12
-11
-10
-10
-8
-5
-6
-9
-10
-10
-8
-6
-6
-6
-6
-6
-8
-10
-7
-4
-4
-4
-6
-8
-9
-10
-8
-6
-8
-10
-10
-9
-7
-6
-5
-6
-10
-12
-11
-8
-5
-4
-3
-4
-7
-8
-8
-6
-3
-2
-2
1
2
5
8
13
18
16
15
22
30
39
46
49
49
39
32
31
30
32
34
34
29
17
12
11
10
9
5
0
-7
-14
-19
-23
-23
-21
-21
-23
-23
-21
-19
-17
-14
-12
-13
-14
-13
-10
13
32
29
33
67
98
124
156
203
202
113
27
-56
-158
-283
-326
-285
-266
-266
-249
-219
-178
-130
-94
-64
-50
-41
-35
-31
-25
-19
-17
-15
-14
-15
-16
-14
-10
-6
-8
-10
-10
-10
-9
-8
-6
-4
-6
-8
-8
-8
-6
-3
0
2
0
-2
-1
1
4
7
9
9
7
7
9
12
17
18
19
20
20
22
25
27
29
28
30
23
22
26
30
28
26
25
24
20
17
22
26
26
26
25
24
25
28
33
35
32
30
29
28
28
29
31
29
24
22
21
20
21
22
23
19
13
12
13
15
17
18
18
17
16
16
16
19
22
21
20
20
20
23
26
28
30
28
26
28
31
35
37
35
34
33
32
32
33
35
36
36
35
33
32
33
34
35
34
31
30
29
29
32
33
34
29
24
24
24
25
26
26
26
23
20
19
18
20
22
21
20
18
16
17
19
22
23
20
18
17
16
17
19
21
19
15
13
11
12
15
16
16
14
16
8
6
9
12
11
10
8
6
6
6
7
7
3
0
-1
-2
-1
0
2
2
-3
-6
-5
-3
-1
0
0
-1
-3
-3
-1
0
1
2
1
0
0
1
3
5
7
6
4
3
2
5
8
9
10
4
0
1
2
3
4
4
4
2
0
0
1
4
5
3
2
1
1
3
5
7
5
0
-2
-2
2
7
8
9
8
5
4
5
7
10
12
14
14
14
18
22
25
28
29
32
40
47
52
55
52
49
45
41
37
37
46
42
27
20
21
21
18
14
11
7
2
-4
-10
-14
-17
-15
-11
-11
-13
-14
-14
-9
-4
-3
-2
-4
-4
10
22
22
31
71
106
127
154
190
195
143
87
28
-76
-232
-297
-276
-274
-290
-270
-226
-187
-151
-111
-69
-49
-35
-31
-29
-26
-23
-18
-13
-11
-9
-9
-10
-9
-8
-8
-8
-7
-6
-9
-12
-9
-6
-6
-6
-7
-8
-9
-9
-5
-2
-2
-2
-3
-3
0
3
6
8
9
9
7
10
16
18
17
16
17
18
17
20
25
26
26
23
20
19
18
20
22
20
18
16
14
15
16
16
16
17
18
17
18
24
28
27
25
23
20
16
15
17
16
13
11
9
8
8
8
8
8
7
4
1
2
0
6
6
6
6
4
2
7
12
12
12
13
14
14
15
20
24
23
22
23
24
25
27
30
31
28
26
26
27
29
30
31
32
31
27
23
26
31
32
31
29
27
24
22
24
26
24
22
20
18
19
20
20
20
18
16
14
13
17
20
18
16
14
10
6
6
11
13
10
8
7
6
5
5
7
7
5
4
4
4
5
7
9
7
2
1
0
4
8
8
8
7
6
5
4
7
10
9
8
7
6
5
5
8
9
6
4
5
7
10
12
11
10
9
7
5
7
11
12
11
9
7
4
1
2
0
5
4
3
2
2
2
2
2
-1
-4
-4
-4
-3
-2
-2
-2
-4
-6
-8
-10
-7
-7
-9
-10
-11
-12
-13
-12
-8
-7
-9
-10
-11
-12
-12
-11
-9
-8
-9
-10
-11
-9
-6
-4
-2
-2
-2
-2
-1
7
14
16
19
27
32
33
35
39
40
35
30
25
25
31
28
15
10
10
9
5
4
3
2
1
-8
-18
-24
-29
-23
-15
-14
-15
-17
-20
-21
-22
-18
-14
-12
-9
1
11
17
30
62
92
112
134
160
176
175
136
48
-67
-210
-293
-323
-332
-324
-293
-249
-219
-197
-158
-113
-86
-65
-54
-46
-43
-41
-38
-35
-30
-34
-26
-28
-27
-26
-23
-20
-20
-20
-21
-23
-28
-30
-23
-18
-19
-20
-21
-22
-21
-19
-14
-12
-12
-12
-12
-12
-12
-10
-6
-4
-5
-6
-7
-5
-1
0
1
2
2
1
-1
3
8
7
6
5
4
1
-2
4
7
2
-2
-4
-6
-5
-3
0
2
4
6
5
6
11
14
14
13
11
7
2
4
10
12
11
7
3
0
-3
1
7
4
-1
-2
-2
-2
-2
0
2
3
4
3
2
4
6
7
8
7
6
6
7
11
14
14
14
14
14
13
14
20
22
22
21
19
18
19
20
21
22
21
17
13
19
27
25
28
16
12
10
8
11
14
13
12
9
6
3
0
2
4
3
2
0
-2
-4
-5
-2
-1
-3
-5
-8
-9
-6
-5
-7
-9
-11
-13
-15
-12
-7
-8
-11
-12
-13
-16
-19
-12
-4
-8
-12
-14
-16
-16
-16
-16
-16
-14
-12
-14
-16
-15
-14
-14
-14
-15
-17
-20
-20
-15
-12
-11
-13
-19
-21
-19
-16
-12
-13
-17
-18
-19
-19
-17
-14
-11
-12
-15
-17
-20
-14
-8
-10
-12
-13
-14
-21
-25
-19
-14
-15
-16
-16
-16
-17
-18
-17
-16
-15
-14
-15
-16
-17
-18
-18
-18
-19
-20
-21
-21
-19
-18
-19
-21
-23
-26
-29
-25
-19
-19
-18
-23
-24
-26
-28
-24
-20
-23
-26
-25
-23
-18
-15
-21
-26
-24
-22
-24
-24
-18
-13
-8
-6
-5
-4
-5
-3
3
10
16
22
28
33
37
32
24
21
19
19
21
19
15
10
6
2
-2
-8
-14
-11
-9
-17
-24
-27
-31
-35
-37
-30
-26
-26
-26
-26
-26
-26
-24
-20
-18
-19
-7
15
29
39
59
85
109
132
158
183
91
-27
-110
-189
-270
-351
-331
-306
-295
-282
-248
-212
-170
-130
-99
-72
-61
-51
-47
-44
-41
-37
-33
-30
-29
-28
-29
-30
-31
-30
-26
-24
-24
-24
-25
-26
-26
-23
-18
-17
-19
-18
-15
-12
-9
-8
-7
-6
-6
-7
-6
-1
4
5
6
7
8
7
7
12
16
16
16
16
16
17
19
22
23
20
18
18
18
19
20
19
16
13
11
9
12
18
20
21
22
21
20
19
21
25
23
20
20
20
20
20
20
20
18
16
14
12
13
14
16
17
13
10
10
10
11
12
12
12
12
12
11
12
16
18
18
18
19
20
20
21
23
24
23
22
23
27
32
32
32
30
28
28
28
33
38
38
37
33
30
29
28
29
30
29
28
26
24
24
24
25
25
22
19
17
16
17
18
18
17
15
12
9
11
15
15
13
12
12
8
6
11
16
13
10
9
8
7
6
9
12
9
6
7
8
9
10
11
11
8
6
5
6
12
14
13
11
9
7
5
7
11
11
9
8
9
10
9
9
11
12
12
10
8
9
10
11
12
11
10
6
3
11
16
14
12
11
10
8
8
13
15
13
12
11
10
9
9
11
12
11
9
7
8
11
12
12
12
12
9
5
9
16
14
12
10
8
6
4
8
12
15
18
19
20
23
27
30
34
39
44
50
56
61
60
52
48
49
47
42
44
50
44
31
28
29
26
19
18
19
14
7
4
6
-4
-8
-4
0
0
0
0
0
4
8
8
8
9
15
31
42
42
57
94
124
145
178
221
188
95
9
-73
-183
-307
-317
-278
-271
-275
-251
-219
-179
-137
-104
-72
-59
-47
-43
-40
-40
-40
-36
-32
-33
-34
-35
-36
-38
-40
-38
-36
-36
-37
-40
-42
-41
-40
-38
-35
-33
-33
-35
-35
-32
-29
-27
-26
-27
-27
-25
-20
-15
-13
-11
-10
-10
-10
-9
-3
4
7
10
9
8
12
16
18
20
20
20
20
20
22
24
23
22
21
20
18
18
23
26
27
28
28
29
31
33
35
35
33
31
29
28
27
27
29
29
27
23
26
21
24
22
20
19
18
16
14
20
24
23
22
22
21
18
18
24
28
28
28
27
27
30
33
35
36
35
34
33
35
40
42
41
40
39
37
35
38
43
43
41
38
36
34
32
34
36
34
32
29
26
27
28
28
28
27
25
22
20
22
24
23
21
18
15
13
14
18
19
17
14
11
10
10
12
15
16
16
14
11
12
15
16
14
13
12
11
10
13
16
15
14
12
10
8
7
11
14
12
10
10
10
11
12
11
10
9
7
4
4
8
10
9
8
7
4
1
3
7
7
5
4
4
3
4
4
8
6
4
3
2
2
2
4
6
6
6
3
1
5
8
7
6
5
3
0
0
4
6
5
3
1
-1
-3
-2
2
4
3
1
-1
-2
-1
0
1
1
-1
-4
-6
1
8
9
10
10
10
10
12
22
32
40
46
48
46
35
29
33
35
31
28
29
25
16
14
18
18
14
8
2
-1
-3
-7
-11
-12
-13
-14
-15
-13
-9
-8
-8
-9
-10
-9
-8
-3
4
20
34
30
35
74
108
132
162
204
192
95
14
-48
-142
-271
-315
-282
-273
-282
-261
-220
-180
-140
-106
-74
-58
-47
-38
-30
-26
-23
-22
-21
-17
-20
-12
-12
-11
-10
-13
-16
-12
-8
-7
-6
-8
-10
-13
-14
-8
-4
-5
-6
-8
-10
-10
-8
-3
0
-1
-2
-2
-2
-1
1
3
5
7
7
5
6
9
10
11
12
11
9
8
14
20
17
14
13
12
9
6
8
10
10
10
9
9
12
15
18
20
22
23
20
19
21
22
23
23
21
18
15
16
19
20
19
16
13
11
9
11
15
16
14
12
10
10
10
12
14
15
16
14
13
17
20
20
20
19
18
18
20
25
28
28
27
24
22
23
25
27
28
28
26
23
22
22
22
23
24
23
21
19
18
18
19
18
15
12
10
8
10
12
11
10
8
6
4
2
4
6
6
5
1
-2
-2
-1
2
4
3
1
-1
-2
-1
0
0
-1
-3
-4
-4
-3
-1
0
1
-3
-9
-9
-8
-6
-4
-3
-2
-5
-8
-9
-10
-8
-6
-6
-6
-10
-12
-11
-9
-5
-3
-6
-8
-7
-6
-6
-6
-5
-5
-9
-10
-11
-10
-7
-5
-3
-5
-9
-10
-11
-10
-7
-6
-6
-6
-6
-8
-10
-7
-4
-5
-6
-9
-12
-10
-8
-6
-5
-10
-14
-12
-9
-6
-4
-4
-5
-8
-11
-13
-13
-11
-10
-10
-10
-10
-13
-17
-16
-13
-12
-13
-14
-13
-12
-12
-6
0
-3
-6
-5
-4
3
8
9
12
21
28
25
23
26
27
23
19
15
13
18
15
3
-2
-2
-3
-5
-10
-17
-19
-17
-22
-32
-36
-39
-39
-37
-35
-33
-32
-33
-36
-38
-32
-26
-25
-24
-16
-9
0
14
44
71
94
119
148
167
163
122
28
-84
-217
-299
-330
-342
-338
-312
-270
-237
-211
-174
-132
-102
-78
-65
-56
-52
-49
-48
-48
-44
-39
-38
-38
-36
-34
-35
-36
-36
-36
-34
-32
-33
-34
-32
-30
-31
-32
-32
-32
-32
-30
-25
-22
-22
-22
-23
-24
-23
-18
-11
-8
-9
-10
-10
-10
-10
-6
-1
0
0
-2
-5
-1
-6
5
4
3
2
0
-2
1
4
4
4
-1
-4
-7
-8
-1
4
5
6
7
8
9
10
11
11
9
7
4
2
3
3
1
-2
-5
-7
-9
-6
-1
-3
-7
-8
-9
-12
-14
-10
-6
-5
-4
-8
-12
-10
-8
-6
-4
-2
0
-2
-3
1
5
8
10
9
8
8
10
14
15
13
12
13
11
6
7
12
14
13
12
12
10
7
6
7
5
0
0
0
3
6
4
2
-2
-6
-8
-9
-4
0
-3
-6
-6
-6
-8
-10
-9
-8
-7
-8
-13
-16
-15
-14
-13
-12
-13
-16
-19
-18
-15
-15
-17
-18
-19
-20
-20
-19
-20
-18
-20
-20
-20
-21
-22
-19
-16
-15
-14
-16
-18
-20
-21
-17
-15
-18
-20
-20
-20
-17
-16
-16
-16
-17
-19
-21
-20
-16
-15
-17
-20
-23
-24
-24
-21
-17
-16
-16
-17
-19
-20
-20
-20
-20
-21
-22
-25
-28
-24
-20
-21
-22
-22
-22
-23
-23
-20
-18
-17
-16
-18
-21
-24
-24
-20
-18
-17
-16
-17
-18
-19
-19
-17
-16
-17
-19
-21
-19
-15
-15
-17
-18
-18
-22
-26
-22
-18
-19
-20
-20
-20
-22
-24
-21
-18
-18
-19
-23
-25
-22
-20
-19
-18
-18
-19
-21
-21
-19
-18
-17
-16
-17
-19
-21
-19
-13
-12
-13
-15
-17
-18
-19
-17
-20
-12
-12
-13
-14
-9
-4
0
4
7
10
10
14
29
40
40
38
31
26
25
24
27
29
32
25
9
3
6
8
7
4
0
-6
-12
-17
-21
-23
-25
-26
-25
-24
-25
-22
-18
-19
-20
-18
-16
-15
-11
7
21
14
17
54
87
112
140
176
179
131
79
23
-80
-230
-288
-270
-274
-296
-276
-231
-195
-163
-126
-87
-66
-49
-44
-41
-37
-33
-27
-21
-21
-24
-25
-26
-21
-16
-15
-14
-18
-22
-21
-20
-17
-14
-13
-12
-14
-16
-16
-15
-11
-8
-8
-8
-7
-6
-5
-3
-1
0
-1
-2
-1
2
5
8
11
11
9
8
8
14
8
23
24
21
18
18
18
20
22
21
20
18
16
17
18
18
18
18
18
18
19
24
26
26
25
23
21
19
18
19
20
20
17
12
10
10
11
13
14
13
11
9
9
10
10
10
7
4
5
6
9
12
13
14
12
10
10
11
16
20
21
22
21
20
19
20
24
26
26
26
26
26
26
29
33
32
29
28
28
28
28
29
31
29
24
23
22
24
26
26
26
23
20
17
15
20
23
19
15
12
9
6
4
6
8
5
4
4
3
1
1
3
2
-1
-2
-3
-3
-1
-1
-3
-6
-9
-12
-15
-13
-16
-8
-8
-9
-10
-13
-16
-14
-12
-13
-14
-16
-18
-19
-20
-18
-16
-18
-20
-22
-23
-20
-18
-19
-20
-19
-19
-22
-22
-18
-17
-19
-20
-21
-24
-27
-23
-17
-17
-19
-20
-20
-21
-22
-20
-18
-20
-22
-22
-22
-21
-20
-20
-20
-20
-20
-22
-23
-18
-14
-14
-14
-14
-15
-17
-16
-11
-8
-9
-10
-10
-10
-10
-7
-3
-2
-3
-4
-5
-4
-1
0
0
-1
-4
-5
-6
-1
4
2
0
-3
-6
-9
-11
-5
0
-1
-2
-3
-4
-5
-5
-1
2
2
1
-1
0
4
7
9
10
11
14
17
21
27
37
48
50
50
43
35
38
34
40
36
36
35
22
10
17
22
18
13
7
2
-1
-4
-6
-9
-12
-14
-14
-13
-8
-6
-6
-6
-7
-9
-12
-9
-1
14
31
32
26
55
93
120
145
185
227
146
56
-14
-86
-216
-334
-298
-267
-275
-276
-236
-195
-153
-115
-85
-61
-48
-38
-29
-24
-23
-22
-21
-20
-19
-17
-15
-15
-17
-18
-19
-19
-17
-16
-15
-14
-14
-16
-19
-14
-7
-6
-7
-8
-10
-12
-14
-7
0
-1
-2
-2
-2
1
4
6
8
9
10
10
11
15
18
19
20
19
17
15
17
23
25
23
21
19
17
15
17
23
23
21
20
21
23
25
30
26
33
30
29
28
30
32
31
30
27
24
21
19
24
27
22
18
17
16
14
13
16
17
14
12
11
11
13
14
15
15
13
12
12
15
19
20
21
22
22
21
19
24
30
30
30
29
28
26
24
30
34
32
30
30
30
31
32
34
35
31
28
26
25
28
30
29
26
22
19
17
18
22
22
19
16
13
12
12
13
15
13
9
8
8
6
4
6
8
6
4
3
2
5
8
6
4
3
2
0
0
5
8
6
4
3
2
1
1
4
5
2
0
1
2
2
3
5
5
3
2
1
3
7
8
8
7
4
2
0
4
8
6
4
5
6
5
5
10
13
9
6
6
6
6
6
9
9
7
6
5
5
7
9
11
10
7
5
3
6
13
12
9
8
7
4
1
3
6
5
4
3
2
3
4
6
8
5
2
1
1
5
8
8
7
4
2
0
0
4
6
5
3
1
2
6
11
16
18
17
16
16
21
27
36
45
45
43
34
24
27
30
27
24
24
23
11
3
9
13
6
-1
-6
-11
-16
-20
-20
-21
-25
-28
-25
-23
-20
-16
-12
-11
-13
-13
-11
-7
-2
14
32
30
22
50
86
117
148
187
150
143
59
-9
-84
-219
-332
-298
-271
-282
-281
-241
-201
-160
-122
-89
-65
-54
-44
-34
-28
-27
-25
-23
-22
-22
-19
-14
-14
-17
-18
-17
-16
-17
-15
-11
-12
-15
-16
-15
-12
-9
-9
-10
-11
-12
-12
-12
-7
-2
-2
-2
-2
-2
-4
-5
0
4
3
2
3
4
6
9
11
11
8
6
7
9
11
12
13
11
7
5
3
4
7
8
9
10
10
10
10
16
22
21
20
20
20
19
18
20
22
19
16
14
13
16
18
17
15
12
9
6
5
8
10
9
7
5
4
4
6
9
9
7
7
9
10
9
11
15
16
16
12
10
15
20
21
22
21
20
18
17
23
28
28
28
26
24
22
21
25
27
24
21
19
18
18
18
19
18
14
11
9
8
8
8
8
6
3
0
-3
-2
1
0
-2
-4
-6
-7
-8
-6
-4
-6
-8
-6
-4
-4
-4
-5
-6
-6
-6
-8
-8
-2
1
-1
-3
-5
-7
-10
-9
-4
-2
-3
-4
-4
-5
-7
-7
-5
-5
-7
-9
-11
-10
-6
-6
-6
-5
-4
-10
-16
-9
-4
-5
-6
-8
-10
-12
-13
-10
-8
-9
-10
-11
-12
-11
-9
-6
-5
-7
-9
-11
-11
-9
-8
-9
-10
-11
-14
-17
-14
-9
-9
-11
-12
-12
-16
-20
-13
-6
-7
-8
-10
-12
-10
-8
-7
-7
-11
-14
-15
-15
-12
-10
-9
-10
-17
-20
-20
-17
-11
-8
-9
-10
-11
-12
-11
-10
-9
-11
-15
-15
-13
-12
-13
-11
-7
-9
-12
-14
-16
-9
-2
-1
0
1
2
2
3
11
18
25
30
32
31
23
20
25
25
19
17
20
16
6
4
8
4
-5
-10
-13
-14
-15
-18
-21
-27
-33
-35
-37
-32
-24
-26
-28
-27
-26
-24
-22
-19
-13
3
16
14
22
59
93
122
152
182
155
52
-26
-78
-170
-299
-340
-314
-311
-322
-293
-243
-204
-170
-133
-94
-77
-64
-56
-49
-45
-41
-40
-40
-36
-32
-29
-26
-29
-32
-33
-34
-30
-26
-27
-28
-31
-34
-33
-31
-27
-25
-28
-30
-27
-24
-20
-18
-19
-20
-19
-16
-13
-10
-7
-4
-1
0
-1
-2
-2
2
7
8
8
9
10
13
16
15
14
11
8
6
4
5
6
6
6
2
0
-1
-1
2
5
9
11
9
8
9
10
11
11
7
5
3
2
3
4
4
2
-1
-2
-3
-3
-1
0
2
-2
-6
-5
-4
-1
2
3
4
2
0
0
1
5
8
8
8
8
9
12
14
17
17
15
14
15
17
20
23
25
25
23
21
19
21
25
26
25
23
21
20
20
21
22
19
16
13
10
12
14
15
16
11
8
7
6
6
6
7
8
6
4
3
3
6
8
8
7
4
2
3
4
5
5
3
2
1
0
1
2
3
1
-3
-4
-4
-2
0
0
0
-3
-6
-7
-8
-8
-8
-6
-5
-9
-12
-10
-8
-8
-9
-12
-15
-17
-18
-17
-16
-17
-19
-23
-25
-27
-27
-25
-24
-24
-28
-33
-34
-35
-35
-33
-32
-32
-36
-40
-39
-38
-35
-32
-33
-34
-35
-36
-34
-32
-30
-28
-29
-30
-29
-28
-26
-23
-20
-20
-24
-25
-23
-20
-16
-14
-13
-13
-15
-16
-16
-13
-9
-8
-8
-8
-8
-8
-8
-2
2
-1
-4
-5
-6
-2
2
4
6
6
6
9
13
18
23
26
28
27
31
44
52
56
54
46
42
42
40
36
39
47
37
20
17
19
20
20
18
15
7
-1
-7
-12
-12
-12
-9
-6
-8
-10
-8
-6
-4
-2
-3
-4
0
7
21
29
26
40
76
106
130
158
189
185
155
108
52
-71
-225
-272
-280
-290
-302
-263
-213
-184
-158
-112
-64
-49
-34
-28
-22
-20
-18
-12
-6
-8
-10
-10
-10
-7
-4
-4
-5
-8
-10
-11
-10
-5
-2
-1
-1
-3
-5
-8
-7
-2
0
0
0
0
0
0
4
9
10
9
8
9
12
10
17
18
18
18
17
16
20
24
23
22
23
23
19
18
24
28
26
23
20
18
17
17
20
22
21
21
24
28
31
32
33
33
31
30
29
29
31
33
35
34
31
26
22
26
30
27
24
22
20
18
16
19
22
21
20
20
20
21
22
24
26
25
24
24
26
30
32
33
34
33
32
31
34
40
42
42
42
41
40
39
40
43
44
42
41
40
39
38
38
38
37
36
34
32
35
38
37
35
32
29
25
24
29
32
29
27
25
23
20
20
24
25
23
22
21
19
17
18
21
21
19
16
13
13
12
16
16
15
14
10
6
11
16
16
16
13
10
9
9
14
17
14
12
13
13
10
9
12
14
13
11
8
8
11
12
12
12
11
7
3
7
13
12
9
8
8
4
0
4
8
8
8
7
6
5
4
5
6
5
4
3
3
6
8
7
6
4
1
-2
-1
7
9
7
5
1
0
0
3
8
8
5
4
5
6
5
5
7
7
4
4
4
6
8
10
12
9
6
7
9
15
20
22
24
25
26
27
33
47
54
55
54
50
48
47
45
43
44
48
38
21
20
26
26
23
16
9
4
-1
-2
-2
-8
-12
-12
-12
-12
-12
-7
-2
0
2
2
2
2
8
26
37
33
45
80
112
139
167
197
191
156
104
42
-79
-231
-276
-276
-287
-302
-268
-220
-183
-148
-108
-67
-52
-39
-33
-28
-20
-12
-12
-12
-10
-8
-7
-6
-6
-6
-6
-6
-10
-11
-6
-2
-2
-2
-4
-6
-6
-4
1
4
4
3
1
0
0
4
10
12
11
10
10
11
13
15
17
18
18
18
18
22
26
27
28
27
26
23
21
25
28
25
22
21
19
16
15
18
20
21
21
19
19
22
25
27
28
29
28
23
22
23
24
23
21
19
16
13
14
12
17
16
14
12
8
4
7
10
10
10
8
6
6
7
10
12
13
14
13
12
13
15
17
18
19
19
16
16
20
22
23
24
24
24
23
24
27
28
28
27
25
22
20
24
28
28
28
23
18
16
14
17
20
20
19
15
12
13
14
13
12
11
10
9
8
9
10
11
10
6
4
4
5
7
8
9
9
7
6
5
7
11
12
10
7
4
3
2
5
8
4
0
1
2
1
0
2
4
2
0
-1
-2
-2
-2
-2
-3
-5
-7
-9
-9
-6
-4
-5
-6
-6
-8
-11
-8
-3
-2
-3
-4
-4
-5
-4
-3
2
-1
-4
-3
-2
-3
-4
0
4
-1
-4
-4
-3
0
2
1
0
-2
-6
-13
-12
-3
2
1
-1
-3
-6
-9
-7
-2
-2
-5
-7
-9
-10
-10
-8
-5
-6
-9
-11
-12
-9
-6
-6
-6
-6
-6
-9
-11
-6
-2
-1
0
1
2
3
6
14
18
17
21
31
36
35
34
35
36
35
30
24
25
30
23
11
8
9
6
1
0
1
1
-2
-12
-22
-25
-28
-23
-18
-20
-22
-22
-22
-25
-27
-21
-16
-15
-13
-9
-2
10
28
54
77
100
125
153
168
175
110
7
-112
-238
-304
-351
-348
-333
-297
-258
-231
-206
-161
-204
-93
-72
-61
-50
-51
-52
-50
-48
-45
-42
-40
-38
-39
-40
-39
-38
-38
-38
-37
-36
-39
-39
-36
-33
-30
-29
-32
-32
-28
-25
-23
-22
-21
-20
-21
-21
-19
-17
-15
-11
-7
-7
-8
-8
-8
-3
2
5
8
5
2
6
10
12
14
10
8
7
7
10
11
8
4
-1
-4
-4
-3
0
3
5
6
6
9
13
13
11
10
9
7
5
0
-5
-3
2
-3
-8
-11
-14
-12
-10
-8
-7
-12
-16
-18
-20
-17
-14
-14
-14
-14
-14
-16
-17
-12
-10
-9
-9
-11
-11
-9
-5
0
2
1
2
5
8
11
12
11
9
7
6
6
9
10
13
16
15
14
11
8
10
12
10
7
3
1
4
6
7
6
1
-2
-5
-5
-3
-2
-1
-1
-4
-8
-12
-12
-9
-7
-5
-8
-13
-14
-15
-13
-9
-8
-9
-11
-12
-13
-14
-12
-10
-14
-18
-16
-14
-12
-10
-10
-11
-15
-18
-18
-18
-16
-14
-12
-11
-14
-16
-16
-14
-10
-9
-13
-14
-15
-16
-17
-16
-13
-14
-17
-18
-18
-18
-18
-18
-16
-19
-22
-22
-22
-19
-16
-16
-16
-19
-22
-23
-23
-19
-16
-17
-18
-18
-18
-19
-19
-16
-16
-20
-22
-22
-22
-21
-18
-15
-16
-19
-20
-19
-16
-13
-12
-11
-13
-17
-18
-18
-15
-12
-13
-14
-15
-16
-16
-16
-13
-10
-11
-12
-12
-12
-12
-11
-8
-6
-7
-8
-11
-10
-6
-4
-4
-5
-7
-8
-8
-6
-3
-2
-2
-3
-5
-6
-6
-4
-1
0
-1
-1
0
-1
-2
0
2
2
2
4
6
9
13
17
20
20
22
31
38
44
47
43
39
36
31
23
27
39
33
16
10
10
9
7
6
5
4
3
-5
-13
-14
-15
-16
-14
-15
-16
-17
-18
-14
-10
-10
-10
-8
-5
0
7
18
35
63
89
114
140
167
182
181
145
79
-35
-182
-261
-299
-312
-313
-279
-230
-204
-184
-140
-90
-68
-52
-46
-41
-39
-40
-29
-22
-22
-22
-22
-22
-22
-22
-19
-16
-17
-18
-20
-22
-20
-18
-18
-18
-17
-16
-19
-18
-14
-11
-9
-8
-9
-11
-13
-9
-2
0
0
0
-1
-2
-2
1
5
6
7
7
6
10
14
16
18
17
16
14
12
14
16
16
16
14
11
6
3
7
10
11
12
11
11
13
15
17
19
21
20
16
14
14
14
15
16
16
13
9
8
9
10
12
10
8
6
4
7
10
13
16
12
8
8
9
13
16
18
20
19
18
20
22
25
27
29
29
27
27
29
30
31
32
31
30
30
32
35
36
37
35
31
30
30
31
32
33
34
29
24
23
22
23
24
24
24
22
20
19
18
20
22
20
18
15
14
13
13
16
17
14
12
11
10
11
12
12
11
9
8
7
8
11
12
11
6
2
1
0
4
8
7
6
6
6
5
4
6
8
6
4
3
2
2
3
6
7
5
3
1
2
6
8
8
8
7
3
-1
2
7
8
7
5
3
2
1
3
8
6
4
3
2
3
4
5
6
5
4
2
0
3
6
5
4
3
1
-2
-2
3
6
5
3
1
-1
-3
-2
1
2
2
0
-3
-4
-3
-2
-3
-4
-3
-3
-2
-3
0
-1
-2
-2
-2
-6
-9
-2
4
3
2
-1
-4
-5
-5
1
4
3
2
3
5
8
12
16
18
19
24
30
37
44
46
47
43
36
30
25
31
39
31
21
16
12
11
10
10
10
7
3
-8
-16
-17
-18
-17
-16
-15
-14
-15
-15
-11
-8
-8
-7
-5
-3
-1
10
27
47
67
90
115
140
164
181
195
130
47
-85
-225
-282
-332
-326
-316
-275
-235
-214
-189
-139
-94
-75
-59
-52
-46
-43
-39
-33
-28
-27
-26
-26
-26
-27
-27
-22
-20
-20
-20
-21
-21
-19
-18
-17
-16
-17
-18
-19
-18
-15
-14
-13
-13
-15
-16
-16
-12
-6
-7
-8
-8
-8
-9
-10
-4
0
-1
-2
-3
-4
-2
1
4
6
5
4
3
3
6
8
7
5
3
0
-3
-2
2
4
4
6
9
10
11
15
19
19
17
14
12
13
14
12
10
8
6
2
-2
2
6
4
2
1
-1
-5
-7
-3
0
-1
-2
-3
-4
-4
-3
0
1
-3
-4
-4
-1
3
5
7
7
5
5
7
10
13
16
20
18
16
16
16
20
24
22
20
20
20
20
20
21
22
20
18
18
18
19
20
19
17
15
13
11
11
14
15
13
10
7
5
3
5
9
9
7
6
6
4
6
2
4
2
0
-2
-4
-3
-2
-1
0
-2
-4
-7
-9
-4
0
-1
-2
-4
-7
-10
-11
-8
-7
-9
-10
-11
-12
-12
-10
-6
-6
-9
-10
-9
-8
-9
-9
-7
-8
-11
-13
-14
-10
-6
-7
-8
-10
-12
-15
-17
-12
-8
-9
-10
-11
-12
-14
-15
-12
-10
-10
-11
-14
-16
-15
-14
-13
-12
-12
-13
-15
-14
-11
-10
-9
-9
-11
-13
-15
-14
-11
-12
-16
-16
-16
-18
-20
-15
-10
-11
-12
-14
-16
-16
-16
-15
-14
-14
-14
-16
-17
-14
-12
-9
-8
-7
-6
-7
-3
6
10
11
17
26
28
28
28
29
30
30
22
13
18
12
11
-4
0
4
-2
-8
-10
-12
-14
-17
-23
-29
-35
-39
-34
-30
-30
-30
-29
-29
-32
-32
-28
-25
-23
-16
-6
0
3
28
63
91
116
140
164
161
152
71
-18
-155
-295
-321
-344
-340
-333
-289
-247
-222
-193
-146
-106
-84
-66
-56
-48
-47
-45
-42
-39
-36
-33
-30
-28
-29
-29
-26
-24
-25
-26
-26
-27
-29
-28
-25
-24
-25
-25
-23
-24
-27
-25
-21
-18
-14
-17
-20
-19
-18
-15
-12
-9
-6
-8
-10
-7
-4
-1
2
0
-2
-2
0
5
8
8
7
4
2
1
1
3
4
3
0
-5
-6
-7
-5
-1
0
-1
-2
-1
4
0
8
6
3
0
-2
-4
0
4
1
-3
-9
-13
-9
-6
-6
-7
-11
-14
-13
-12
-15
-15
-13
-12
-11
-11
-14
-14
-10
-7
-5
-6
-9
-8
-5
-1
3
4
4
3
1
3
6
10
14
16
17
9
2
5
8
10
12
11
10
6
4
3
2
1
0
-1
-4
-8
-10
-10
-9
-6
-5
-9
-12
-16
-18
-17
-16
-17
-21
-25
-25
-23
-22
-23
-24
-22
-25
-28
-23
-18
-18
-18
-20
-22
-25
-27
-22
-18
-19
-20
-22
-24
-22
-20
-20
-19
-16
-15
-17
-18
-17
-15
-13
-13
-15
-16
-16
-14
-11
-10
-11
-13
-15
-17
-19
-18
-20
-13
-12
-15
-18
-19
-20
-19
-18
-17
-17
-22
-25
-21
-18
-19
-21
-24
-26
-28
-29
-26
-24
-25
-27
-29
-30
-31
-29
-24
-22
-22
-22
-23
-24
-23
-22
-22
-22
-22
-24
-27
-26
-24
-23
-22
-22
-22
-25
-28
-22
-18
-18
-18
-21
-24
-24
-23
-20
-18
-18
-18
-19
-20
-20
-19
-16
-14
-15
-17
-19
-17
-12
-10
-10
-10
-11
-12
-13
-11
-7
-7
-9
-10
-10
-11
-12
-9
-6
-6
-6
-8
-10
-7
-4
-4
-4
-6
-9
-12
-12
-7
-4
-5
-6
-9
-10
-9
-5
1
4
4
6
9
11
13
24
37
40
40
34
27
27
29
28
30
28
32
15
0
10
18
11
6
2
-3
-8
-12
-11
-11
-16
-20
-18
-16
-18
-18
-13
-11
-13
-13
-11
-9
-6
7
24
24
15
41
80
110
139
173
208
156
92
28
-36
-176
-312
-287
-265
-284
-297
-253
-209
-165
-124
-93
-67
-54
-42
-35
-29
-26
-24
-24
-24
-24
-22
-18
-16
-16
-17
-19
-20
-21
-20
-16
-15
-17
-18
-18
-18
-17
-15
-13
-12
-13
-14
-16
-11
-6
-5
-4
-5
-6
-6
-5
0
4
4
4
5
6
7
9
13
16
15
14
15
17
19
20
20
19
17
16
16
16
17
18
17
16
16
16
17
22
27
28
28
26
26
25
24
26
28
23
18
18
18
18
18
19
19
15
12
11
10
12
14
13
11
8
6
7
10
14
16
15
14
13
12
12
15
19
20
19
18
17
19
23
26
28
26
24
25
26
30
34
35
36
34
32
31
30
34
36
34
32
31
30
30
31
33
33
30
27
24
23
25
26
27
26
23
21
19
19
21
22
21
18
15
14
12
15
18
16
14
14
14
14
14
14
14
11
8
9
10
10
10
11
11
7
4
4
5
8
10
10
10
9
8
8
9
11
11
9
8
7
6
5
5
7
7
8
4
4
7
10
11
12
8
4
5
6
7
8
8
7
4
2
1
1
5
8
7
5
2
0
0
1
3
2
-1
-2
-2
-1
1
2
2
-1
-5
-6
-7
-6
-3
-2
-2
-4
-6
-7
-8
-5
-2
-3
-4
-6
-8
-7
-6
-2
0
-2
-4
-4
-3
0
3
5
5
3
2
1
1
3
4
4
3
1
0
-1
1
5
6
5
6
9
10
12
17
22
23
24
26
30
44
56
58
58
49
42
41
40
41
44
49
45
29
20
23
24
23
20
16
9
1
-4
-8
-10
-10
-10
-10
-10
-10
-10
-9
-7
-5
-4
-4
-6
-8
12
30
25
25
62
96
119
147
188
200
136
71
7
-90
-239
-314
-283
-275
-296
-284
-240
-201
-166
-128
-88
-64
-49
-42
-38
-32
-26
-23
-21
-20
-19
-19
-21
-17
-11
-11
-12
-13
-14
-15
-16
-10
-4
-7
-10
-10
-10
-9
-7
-3
-1
-5
-8
-6
-4
-2
1
3
4
3
1
-1
2
9
12
12
12
12
12
11
15
21
21
19
18
18
18
20
21
22
21
20
17
14
18
22
22
22
21
20
20
22
28
32
31
30
28
26
23
23
26
27
25
24
23
22
22
22
22
20
17
14
11
12
15
16
15
14
14
11
8
13
18
17
16
17
18
17
16
21
24
24
24
22
20
20
21
24
25
22
20
20
22
26
28
27
25
23
22
21
22
25
26
25
24
23
20
17
17
19
19
18
16
14
16
18
17
16
15
14
11
8
11
14
13
11
8
5
2
2
7
9
7
5
3
1
-1
0
4
5
3
1
-1
-2
-2
-1
1
0
-3
-4
-4
-2
2
0
-2
-2
-2
-5
-8
-4
0
1
2
1
0
-2
-3
0
1
-2
-4
-4
-4
-1
0
1
0
-4
-6
-6
-4
0
2
2
0
-3
-5
-7
-5
-1
-1
-3
-4
-4
-6
-8
-4
0
-1
-2
-4
-6
-5
-4
-2
0
-3
-6
-7
-7
-4
-2
-2
-2
-5
-6
-6
-5
-2
0
-1
-2
-2
-2
-2
-1
1
-1
-5
-6
-5
-2
1
4
7
7
6
7
8
12
16
21
27
33
38
39
39
34
30
29
28
27
26
26
24
18
14
13
11
8
6
5
0
-7
-14
-20
-24
-27
-25
-21
-20
-20
-20
-21
-22
-23
-18
-10
-10
-9
9
26
22
23
61
96
119
146
189
190
86
-12
-103
-200
-307
-353
-318
-295
-284
-262
-230
-191
-147
-114
-87
-67
-49
-44
-43
-39
-35
-34
-33
-28
-23
-26
-31
-31
-32
-25
-22
-22
-22
-23
-24
-26
-28
-26
-24
-23
-22
-19
-17
-20
-21
-15
-12
-12
-12
-13
-14
-13
-11
-8
-6
-7
-8
-7
-4
0
2
3
3
1
0
0
3
7
9
11
9
6
4
2
4
6
3
0
-1
-2
-2
-1
4
8
8
8
8
9
13
16
14
10
6
4
4
3
1
0
0
-1
-3
-7
-11
-9
-5
-4
-5
-8
-11
-11
-9
-6
-2
-3
-4
-5
-6
-5
-4
-1
2
0
-2
-1
1
6
10
10
10
10
9
6
5
10
12
11
10
9
8
7
10
17
18
13
12
11
11
13
14
13
11
9
3
8
2
8
6
4
1
-2
-5
-8
-4
0
-3
-6
-7
-8
-8
-8
-8
-8
-8
-10
-15
-16
-11
-8
-9
-10
-10
-13
-18
-18
-14
-12
-12
-13
-15
-16
-17
-15
-11
-12
-15
-17
-18
-19
-20
-15
-10
-15
-20
-21
-22
-21
-19
-15
-13
-18
-22
-23
-22
-16
-13
-17
-20
-21
-22
-22
-19
-13
-12
-16
-20
-23
-24
-24
-24
-23
-21
-19
-22
-27
-24
-19
-17
-14
-17
-20
-23
-26
-19
-12
-12
-12
-15
-18
-19
-19
-15
-12
-14
-16
-17
-18
-17
-15
-12
-12
-17
-19
-16
-14
-14
-14
-14
-16
-19
-22
-25
-21
-14
-16
-21
-22
-21
-21
-20
-22
-20
-19
-18
-21
-24
-22
-20
-20
-20
-19
-19
-23
-25
-22
-20
-20
-20
-19
-18
-21
-21
-18
-16
-17
-18
-17
-16
-17
-18
-18
-15
-11
-10
-11
-10
-7
-3
1
3
5
15
24
27
30
24
18
19
19
11
6
16
20
5
-6
-4
-3
-8
-12
-12
-14
-19
-26
-34
-38
-39
-39
-36
-34
-35
-35
-33
-32
-31
-29
-27
-23
-19
-8
5
10
15
46
78
99
122
158
183
113
45
-17
-93
-229
-330
-322
-317
-323
-313
-267
-227
-199
-162
-115
-84
-69
-59
-53
-50
-49
-45
-40
-37
-35
-34
-35
-36
-37
-34
-29
-28
-28
-29
-31
-32
-32
-29
-28
-27
-26
-27
-28
-24
-20
-20
-20
-19
-18
-18
-16
-10
-6
-7
-8
-8
-8
-8
-5
1
4
3
2
3
4
4
6
9
10
11
12
11
10
11
12
11
9
7
4
2
7
12
12
12
13
14
13
13
19
24
24
23
19
16
15
14
16
18
16
12
8
7
10
12
11
10
11
10
6
7
12
14
14
13
11
10
9
12
17
19
22
18
14
16
18
23
28
28
28
28
28
29
30
31
32
32
32
30
29
33
36
39
39
36
34
34
34
35
36
37
36
31
30
30
30
31
32
31
29
27
27
26
28
26
26
26
21
16
19
22
23
24
21
18
16
14
16
18
18
18
16
14
14
14
15
16
17
17
14
13
15
15
13
12
13
12
9
8
9
11
13
11
7
6
6
8
10
10
10
7
4
3
2
4
6
6
5
1
-2
-1
0
1
2
4
5
2
0
0
2
6
7
5
4
3
2
3
6
9
6
1
0
1
4
7
8
8
5
2
2
2
4
6
5
4
2
0
3
6
8
10
9
8
8
8
8
8
11
11
9
8
7
7
10
12
13
12
9
8
8
11
15
16
15
12
9
10
8
18
22
23
24
25
26
29
34
49
60
58
55
51
49
52
53
50
48
50
45
28
23
29
31
28
23
18
13
8
5
3
0
-3
-4
-5
-6
-5
-2
1
2
1
-2
-4
0
4
17
28
25
28
64
98
125
153
179
193
177
142
75
-25
-171
-262
-284
-299
-305
-282
-234
-197
-169
-130
-85
-60
-45
-34
-25
-18
-13
-12
-13
-14
-15
-12
-7
-5
-2
-3
-4
-7
-10
-4
2
2
2
1
0
-2
-3
2
6
4
2
2
3
6
8
8
8
8
8
9
12
16
18
19
20
20
18
15
20
28
30
29
28
28
27
28
27
30
29
28
27
26
27
28
27
26
26
26
25
26
33
38
39
40
39
38
35
35
38
39
37
35
33
31
29
28
29
29
27
26
25
24
25
26
25
24
24
22
20
23
26
27
28
26
24
22
21
26
30
31
32
30
28
29
31
34
36
36
36
35
34
35
37
39
40
39
36
32
31
33
34
34
33
31
28
25
26
29
30
28
24
20
18
16
19
22
21
20
16
12
12
12
14
16
16
15
12
10
11
12
13
13
11
9
7
7
10
12
13
12
9
7
5
6
9
10
11
10
7
6
6
5
6
5
4
1
-2
3
8
8
8
7
6
5
5
8
10
10
10
8
6
5
5
8
10
11
11
8
6
7
8
9
10
9
8
7
6
7
8
7
6
5
3
2
5
8
8
8
7
6
6
6
8
10
10
10
8
6
5
4
6
8
9
8
4
3
5
6
7
8
7
5
3
3
5
6
5
4
4
4
5
10
15
20
26
23
20
30
40
46
52
53
53
46
40
39
39
44
44
31
22
21
20
22
23
18
14
9
1
-8
-11
-9
-8
-7
-7
-9
-10
-10
-7
-3
-2
-3
-4
-4
3
-4
22
33
57
82
106
132
160
186
202
193
103
0
-137
-244
-289
-316
-310
-290
-250
-218
-195
-158
-105
-72
-52
-40
-33
-27
-22
-18
-15
-14
-13
-12
-13
-13
-11
-9
-7
-8
-11
-11
-10
-8
-6
-5
-4
-7
-10
-10
-10
-7
-4
-4
-4
-5
-5
-2
0
0
0
1
2
3
6
11
14
15
15
13
12
13
17
21
22
23
21
17
16
17
19
21
22
20
17
14
16
18
19
20
21
22
21
21
25
28
30
31
26
22
21
20
22
24
25
23
17
14
14
14
15
16
15
12
9
8
9
10
11
12
11
8
5
6
4
12
14
12
10
10
10
12
14
15
16
13
10
13
16
16
16
17
18
17
17
20
22
23
23
21
19
17
18
22
24
24
21
17
16
15
15
17
18
18
16
13
13
14
14
14
13
12
9
6
8
10
10
10
7
4
4
5
8
10
9
8
6
4
4
4
5
6
7
5
0
-1
1
2
3
4
5
4
1
0
0
2
5
3
-2
-2
-2
0
2
1
0
-2
-4
-5
-6
-3
0
2
3
-1
-4
-4
-4
-2
0
0
-1
-3
-4
-4
-3
0
0
-4
-6
-5
-2
1
2
2
0
-3
-4
-5
-5
-6
-1
0
-1
-2
-5
-8
-4
0
-1
-2
-2
-2
-3
-3
1
3
0
-2
-3
-4
-4
-3
0
1
-1
-3
-5
-4
-1
1
3
1
-4
-7
-9
-6
-1
0
0
-2
-5
-5
-4
0
4
5
6
6
6
7
9
14
18
19
22
32
38
40
41
37
34
33
30
25
24
29
25
13
8
7
3
-2
-4
-5
-9
-13
-19
-25
-28
-31
-29
-25
-24
-22
-22
-22
-19
-16
-15
-14
-14
-12
3
14
14
24
60
92
117
146
181
168
88
19
-37
-140
-283
-331
-307
-302
-309
-283
-239
-203
-170
-133
-94
-72
-55
-50
-47
-45
-43
-35
-42
-26
-26
-26
-26
-28
-30
-23
-18
-19
-20
-20
-20
-23
-25
-20
-15
-12
-11
-14
-16
-17
-16
-11
-8
-8
-9
-11
-9
-4
-2
-2
0
3
2
-1
3
9
11
13
12
9
8
8
15
22
21
20
16
12
12
12
13
14
16
17
10
6
8
11
14
16
16
16
16
17
20
22
21
17
12
10
9
9
11
12
12
9
5
4
3
2
3
4
6
2
-2
0
2
2
2
3
4
1
-1
4
8
9
10
11
12
10
10
15
18
19
18
14
13
15
19
24
25
23
22
21
23
27
28
27
26
25
21
17
19
16
23
22
21
20
14
8
11
14
13
12
10
8
6
4
6
8
8
6
1
-1
4
5
3
1
-1
-3
-5
-4
0
2
1
-2
-5
-6
-7
-6
-3
-2
-1
-5
-11
-11
-10
-9
-8
-8
-8
-10
-12
-9
-6
-6
-6
-5
-4
-6
-7
-3
0
-1
-2
-4
-7
-10
-9
-3
0
1
0
-4
-6
-5
-4
-3
-2
-2
-3
-5
-4
-1
-1
-3
-4
-4
-8
-12
-6
0
-1
-2
-4
-6
-7
-7
-3
0
-1
-2
-3
-4
-4
-4
-3
-2
-2
-4
-8
-8
-2
0
-1
-2
-3
-4
-5
-3
1
2
1
-1
-3
-5
-7
-3
-8
3
2
-1
-4
-2
0
1
2
1
0
-1
-2
0
2
2
2
1
0
-2
-2
5
7
5
4
4
5
7
10
14
18
22
23
21
31
45
48
48
44
39
36
33
33
34
39
43
27
12
12
12
13
13
7
1
-3
-7
-14
-18
-18
-18
-18
-18
-20
-21
-18
-15
-13
-11
-9
-8
-8
4
23
24
18
44
79
104
127
166
208
149
81
21
-40
-184
-318
-286
-257
-275
-284
-244
-205
-169
-133
-95
-65
-51
-41
-38
-33
-24
-18
-17
-16
-15
-15
-17
-16
-12
-10
-10
-10
-11
-12
-13
-11
-7
-6
-7
-9
-11
-10
-7
-6
-6
-4
-4
-4
-4
0
4
4
4
3
2
1
1
7
12
14
16
15
14
16
19
22
24
25
26
25
25
27
28
28
27
25
23
21
23
27
28
28
28
28
28
28
34
40
40
40
37
34
32
30
31
32
30
27
23
20
20
20
21
22
20
18
17
17
19
20
19
18
18
17
13
16
22
24
25
26
25
23
21
24
29
30
31
32
30
30
30
31
32
32
32
32
32
35
38
38
38
37
36
34
33
36
38
38
37
32
30
30
30
30
30
30
28
24
22
22
22
23
24
24
21
17
16
17
18
18
17
16
13
10
12
14
14
14
12
10
8
6
8
10
12
13
9
6
6
6
9
10
10
9
6
5
7
8
7
6
6
5
3
4
7
8
8
6
3
2
1
3
6
6
6
2
-2
0
2
4
6
5
4
1
-2
-1
0
1
1
-2
-4
-5
-5
-2
0
1
0
-4
-6
-5
-2
2
4
4
2
-1
-2
-3
-2
1
2
2
0
-4
-2
0
1
2
2
2
1
0
2
4
5
6
3
-1
-4
-5
-2
0
1
1
-2
-4
-5
-5
-2
0
1
1
-1
-2
-3
-2
1
1
-1
-2
-3
-4
-3
2
-2
7
6
7
8
12
16
23
29
35
40
42
43
38
34
34
33
27
24
26
24
15
11
14
13
7
1
-4
-6
-6
-9
-14
-19
-23
-23
-21
-20
-19
-18
-19
-20
-19
-15
-12
-10
-7
8
21
13
13
54
91
114
141
176
176
96
25
-29
-118
-256
-320
-294
-287
-301
-282
-234
-193
-156
-121
-87
-66
-51
-42
-36
-34
-35
-35
-33
-30
-27
-26
-26
-26
-28
-28
-28
-26
-24
-25
-26
-25
-24
-25
-26
-25
-24
-24
-24
-23
-22
-20
-17
-14
-12
-13
-14
-15
-12
-5
-2
-1
0
-1
-2
-2
2
8
10
9
8
9
10
10
11
10
12
10
7
4
7
10
9
8
5
2
1
1
5
9
12
14
12
10
9
8
11
12
11
9
6
3
1
0
1
0
-3
-5
-7
-8
-7
-6
-7
-9
-11
-12
-11
-8
-6
-5
-4
-6
-8
-6
-4
-1
2
1
0
1
2
3
5
9
11
8
6
6
7
10
13
15
14
10
8
8
9
11
12
11
6
1
1
3
4
3
0
-3
-5
-8
-7
-6
-8
-10
-13
-16
-16
-16
-14
-12
-13
-14
-17
-20
-20
-20
-18
-16
-16
-16
-19
-19
-17
-15
-13
-13
-15
-16
-16
-14
-11
-10
-9
-9
-11
-12
-13
-12
-9
-8
-8
-9
-12
-11
-10
-8
-6
-5
-4
-7
-10
-8
-6
-6
-6
-8
-10
-11
-12
-10
-8
-7
-6
-7
-9
-12
-12
-8
-6
-6
-8
-11
-12
-12
-10
-7
-6
-7
-9
-11
-10
-7
-6
-6
-6
-6
-8
-10
-5
0
-1
-2
-4
-6
-7
-7
-3
0
1
1
-3
-6
-4
-2
-2
-2
-1
-1
-4
-4
0
2
1
-1
-3
-5
-7
-6
-3
-2
-1
-3
-7
-8
-10
-7
-4
-3
-2
-6
-10
-7
-4
-3
-2
-1
0
0
1
6
10
11
15
22
26
27
31
38
39
33
27
22
20
21
20
15
13
11
6
-1
-2
-3
-5
-7
-16
-8
-27
-28
-26
-24
-24
-24
-23
-22
-25
-27
-22
-18
-15
-12
-12
-6
11
26
36
57
90
116
137
170
213
166
59
-43
-144
-241
-337
-337
-303
-285
-271
-246
-219
-174
-126
-98
-71
-58
-46
-44
-42
-40
-38
-34
-30
-26
-22
-26
-30
-29
-28
-26
-24
-25
-26
-27
-26
-21
-18
-19
-20
-21
-22
-22
-20
-16
-14
-13
-14
-17
-17
-15
-11
-7
-5
-3
-2
-3
-3
0
2
4
7
10
9
8
10
12
12
12
11
10
9
8
10
12
12
10
4
0
1
3
6
8
9
8
4
4
7
8
9
10
11
9
5
4
4
4
4
3
4
-3
-6
-3
0
0
0
-4
-8
-10
-12
-7
-4
-5
-7
-11
-14
-13
-11
-8
-6
-6
-7
-9
-10
-9
-7
-4
-2
-2
-2
-1
1
3
6
9
9
7
6
6
7
9
11
12
7
2
4
6
6
6
5
4
3
2
2
2
2
2
1
-1
-5
-7
-3
0
-1
-4
-8
-10
-9
-8
-7
-6
-5
-6
-9
-10
-9
-7
-5
-4
-4
-7
-11
-12
-12
-10
-8
-13
-18
-16
-14
-11
-8
-9
-10
-13
-16
-17
-18
-16
-14
-14
-14
-15
-16
-19
-20
-19
-17
-15
-14
-15
-16
-16
-15
-13
-14
-17
-18
-19
-20
-19
-18
-17
-18
-16
-22
-22
-18
-14
-13
-12
-16
-20
-20
-20
-18
-16
-16
-16
-18
-20
-21
-19
-12
-9
-14
-16
-16
-16
-16
-15
-12
-14
-20
-21
-19
-17
-15
-13
-11
-15
-21
-22
-22
-19
-15
-17
-20
-20
-20
-21
-22
-19
-16
-19
-22
-21
-20
-20
-20
-16
-15
-19
-22
-23
-22
-17
-14
-13
-14
-18
-20
-20
-19
-15
-14
-15
-16
-16
-16
-17
-16
-13
-12
-12
-12
-11
-4
4
6
8
15
22
24
26
30
34
30
25
18
13
19
21
12
6
5
4
2
-3
-10
-13
-11
-15
-26
-31
-33
-34
-35
-34
-31
-33
-37
-38
-37
-36
-35
-30
-25
-21
-24
-6
5
31
57
73
92
126
154
154
129
22
-86
-196
-285
-331
-355
-341
-318
-283
-251
-222
-184
-137
-103
-78
-62
-52
-48
-48
-47
-45
-41
-37
-35
-33
-32
-33
-33
-31
-28
-25
-25
-26
-30
-34
-27
-20
-21
-22
-23
-24
-26
-26
-18
-12
-13
-14
-15
-16
-14
-12
-10
-6
-2
-1
-3
-4
-3
-1
3
3
1
1
3
6
9
10
9
8
7
4
1
1
4
3
2
-2
-6
-6
-6
-4
-2
-2
-2
-2
-2
0
2
3
3
0
-2
-3
-4
-3
-1
1
0
-6
-8
-8
-7
-5
-4
-4
-7
-11
-12
-11
-9
-7
-6
-6
-6
-6
-6
-6
-3
0
-2
-4
-4
-4
-1
2
5
8
5
2
3
5
9
13
16
17
14
13
15
16
16
16
17
17
15
14
15
16
17
17
15
14
14
14
15
16
17
14
10
9
8
10
12
11
10
7
4
4
4
7
10
10
10
8
6
6
6
8
9
6
4
3
3
6
8
8
6
2
0
0
0
1
4
7
6
3
2
1
2
6
4
2
1
0
0
0
2
4
3
2
2
2
4
6
8
9
5
2
2
3
8
10
10
9
6
3
1
2
6
8
8
8
7
4
1
3
7
7
5
4
4
1
0
2
4
1
-2
-2
-2
0
2
4
6
3
-1
-4
-5
-1
2
1
0
-3
-5
-7
-6
0
1
-1
-2
-1
0
0
1
3
2
-1
-2
-2
-1
1
2
2
1
0
-2
-4
1
6
7
8
7
6
7
9
15
20
21
22
23
26
31
38
47
52
52
48
40
37
39
40
40
38
35
25
13
14
20
18
13
8
3
-6
-15
-14
-10
-14
-18
-18
-18
-18
-18
-14
-10
-10
-10
-10
-9
-5
4
22
32
25
36
74
108
139
173
210
179
96
18
-57
-170
-301
-311
-272
-269
-278
-252
-217
-170
-121
-91
-62
-48
-60
-29
-24
-20
-16
-14
-12
-13
-14
-10
-6
-7
-8
-8
-8
-10
-11
-5
-2
-3
-4
-5
-6
-7
-7
-4
-1
1
0
-3
-4
-3
0
3
5
7
8
7
9
13
14
15
15
14
13
12
18
24
25
26
24
22
20
18
21
24
24
23
20
18
16
14
15
17
19
18
14
15
20
23
25
26
26
25
23
25
29
30
30
26
21
20
19
19
22
23
24
19
14
15
16
17
18
19
20
18
16
17
18
19
20
20
20
18
17
22
25
27
28
27
26
26
28
31
34
37
35
31
30
30
32
35
36
36
34
36
30
30
32
34
33
32
30
28
29
30
29
27
23
20
20
20
22
24
24
23
20
17
15
15
17
18
19
18
15
14
14
15
17
16
13
10
7
7
9
11
13
11
8
7
6
8
10
9
8
6
4
1
-1
3
6
5
3
0
-2
-2
-1
2
4
4
4
3
2
1
0
0
0
-1
-2
-1
0
1
2
3
2
-1
-2
-3
-2
2
3
4
2
0
-2
-4
0
4
2
0
-2
-4
-2
0
2
3
0
-2
-2
-2
1
2
2
1
-1
-2
-3
-3
-1
0
0
-2
-5
-6
-5
-2
1
1
-1
-2
-2
-2
0
1
2
-1
-4
-5
-6
-3
0
1
2
-1
-4
-4
-3
0
2
2
1
-4
-6
-5
-3
-1
0
1
2
3
5
7
12
18
20
19
26
36
40
43
41
37
34
32
27
22
28
33
20
8
10
12
10
7
3
-1
-6
-11
-15
-18
-19
-20
-18
-16
-17
-18
-18
-17
-15
-13
-11
-10
-11
0
18
20
17
49
89
112
134
169
206
148
86
23
-45
-193
-324
-298
-278
-294
-300
-257
-216
-180
-143
-103
-71
-54
-43
-40
-37
-34
-31
-26
-24
-23
-22
-23
-23
-21
-19
-17
-17
-19
-20
-19
-16
-13
-12
-11
-12
-15
-16
-16
-12
-10
-9
-8
-11
-14
-11
-8
-6
-4
-2
0
1
2
4
6
8
10
10
10
10
11
14
16
17
17
14
12
12
14
17
18
18
15
11
9
7
8
11
12
13
14
14
16
18
21
24
22
20
19
18
18
18
20
21
16
11
8
7
10
12
12
10
6
4
4
5
8
10
10
10
10
10
11
14
17
17
15
15
17
18
19
22
26
24
22
23
24
27
30
32
34
31
28
27
26
29
32
32
32
31
29
25
23
28
29
27
26
25
23
20
18
19
18
15
14
13
12
13
14
13
10
7
6
6
6
8
7
6
4
2
-1
-4
-1
2
2
2
0
-2
-3
-4
-3
-2
-2
-2
-3
-4
-4
-3
-1
-1
-4
-8
-11
-10
-7
-6
-6
-6
-7
-9
-11
-7
-1
0
-1
-5
-8
-8
-8
-5
-2
-3
-4
-5
-6
-5
-4
-5
-6
-2
0
-2
-4
-2
0
-2
-4
-5
-7
-9
-7
-2
-1
-3
-4
-5
-6
-7
-7
-5
-4
-4
-4
-5
-6
-7
-7
-4
-4
-4
-7
-10
-9
-8
-7
-6
-7
-8
-10
-11
-7
-4
-6
-8
-10
-12
-12
-12
-9
-7
-4
-4
-10
-11
-9
-6
-3
-2
-2
-4
-7
-7
-5
-3
-1
0
0
0
0
6
12
19
26
30
34
37
39
32
26
27
28
27
25
21
17
11
8
9
6
-3
-7
-5
-7
-13
-17
-20
-24
-28
-27
-22
-20
-20
-21
-23
-24
-24
-21
-17
-14
-11
4
18
13
11
51
88
112
138
175
185
98
20
-37
-119
-257
-337
-312
-301
-316
-301
-249
-207
-176
-142
-104
-79
-62
-52
-45
-42
-42
-40
-37
-32
-27
-26
-26
-26
-27
-28
-28
-25
-20
-21
-22
-22
-22
-21
-20
-19
-18
-20
-22
-19
-16
-14
-12
-11
-10
-8
-7
-10
-10
-3
0
-1
-2
-2
-2
-1
4
10
12
12
11
9
10
13
15
17
14
9
9
8
12
12
9
6
1
-4
-2
0
4
8
9
10
10
9
6
5
9
11
8
6
3
1
-2
-3
-1
-1
-4
-6
-7
-6
-3
-2
-3
-6
-9
-10
-11
-8
-3
-2
-2
-4
-6
-4
-2
1
4
6
8
7
6
9
12
15
18
14
12
13
14
16
18
19
20
19
18
17
17
19
20
19
17
15
13
11
12
15
15
13
11
9
8
9
10
8
5
2
3
4
4
4
3
2
-1
-4
-5
-6
-3
-1
-5
-8
-6
-4
-6
-8
-5
-5
-8
-11
-13
-11
-6
-5
-7
-10
-13
-14
-15
-15
-13
-12
-11
-12
-15
-17
-16
-16
-12
-14
-16
-17
-18
-18
-18
-16
-14
-13
-13
-17
-20
-18
-16
-15
-15
-18
-20
-20
-19
-17
-15
-13
-14
-18
-20
-19
-17
-15
-14
-14
-16
-19
-20
-20
-19
-17
-18
-21
-22
-22
-20
-18
-17
-16
-19
-22
-22
-22
-19
-16
-16
-17
-21
-24
-25
-25
-22
-20
-20
-20
-21
-22
-22
-21
-18
-16
-16
-16
-16
-16
-15
-13
-11
-12
-15
-16
-15
-12
-9
-8
-6
-8
-10
-11
-12
-7
-2
-3
-4
-6
-8
-8
-8
-6
-4
-5
-6
-6
-6
-5
-4
-3
-3
-5
-6
-6
-5
-2
1
3
4
4
4
5
10
17
18
19
26
33
37
34
46
50
43
36
32
28
33
37
31
25
20
16
13
9
6
4
4
0
-12
-18
-19
-19
-16
-14
-13
-13
-15
-16
-17
-16
-12
-10
-11
-8
-3
9
22
36
51
77
105
131
157
191
218
132
41
-81
-196
-280
-340
-312
-285
-265
-243
-221
-190
-144
-104
-75
-54
-44
-37
-34
-31
-28
-24
-20
-18
-19
-20
-20
-17
-13
-12
-11
-10
-10
-11
-13
-11
-7
-6
-6
-5
-4
-7
-10
-4
2
2
2
2
2
1
1
6
10
11
12
11
11
15
18
17
17
19
19
16
17
23
26
26
26
25
21
17
20
25
26
25
21
17
16
16
17
20
21
22
21
20
23
26
28
30
30
30
28
26
27
28
26
24
24
22
17
16
21
23
21
19
17
15
13
14
17
20
23
20
15
14
14
17
21
23
25
23
20
23
26
29
32
31
30
28
26
29
32
33
34
33
32
32
33
37
40
39
36
32
30
29
29
32
34
33
30
26
24
23
22
23
24
23
20
17
17
19
20
20
18
16
14
12
12
12
14
15
10
6
6
6
8
10
11
11
7
4
3
3
8
10
11
11
8
5
3
4
7
7
5
4
4
3
1
1
3
2
-1
-2
-2
0
2
3
4
0
-4
-4
-4
-1
2
2
2
1
0
0
0
2
4
4
4
3
0
-4
-2
5
7
5
4
3
4
7
8
8
8
7
5
3
6
11
12
11
7
4
2
0
6
12
10
8
8
8
6
4
7
10
8
6
5
4
5
6
6
5
3
2
1
1
4
6
6
6
6
4
1
4
9
10
10
10
10
10
11
17
24
24
24
29
34
43
50
55
59
49
42
39
37
41
42
36
30
23
17
13
10
10
8
4
-2
-10
-15
-18
-20
-19
-18
-18
-18
-19
-19
-17
-16
-15
-14
-14
-14
-14
7
28
29
32
63
93
115
143
194
210
107
7
-84
-180
-287
-340
-301
-278
-277
-262
-231
-192
-144
-105
-74
-55
-43
-36
-33
-29
-24
-20
-17
-16
-16
-17
-19
-16
-11
-10
-11
-12
-12
-14
-16
-12
-8
-9
-10
-11
-12
-12
-12
-10
-8
-12
-14
-15
-15
-12
-10
-9
-7
-5
-4
-5
-3
2
4
5
6
7
8
8
11
15
15
13
12
12
12
12
12
14
13
12
9
6
10
14
15
16
16
16
15
16
23
28
27
26
25
23
20
19
22
24
23
21
18
16
17
18
18
18
17
16
15
16
19
20
20
20
19
16
18
17
22
22
22
22
22
23
24
27
30
29
28
28
28
29
30
32
34
32
30
29
29
32
34
34
33
31
28
25
28
34
34
31
28
25
23
21
22
25
24
21
18
16
17
18
19
20
17
14
12
10
13
16
16
16
14
11
7
6
11
13
10
9
11
10
6
5
8
9
7
6
5
3
1
2
5
4
1
-1
-3
0
5
6
4
2
0
-2
-4
1
6
5
4
2
0
-2
-3
1
4
4
4
4
3
0
-1
4
6
5
3
1
2
6
8
7
5
3
0
-3
0
5
5
3
2
1
-1
0
0
4
1
-2
-3
-4
-2
0
0
0
-1
-2
-4
-5
-2
0
1
2
0
-2
-2
0
5
7
5
3
1
-2
-5
-1
6
8
8
8
7
6
5
7
11
12
13
15
16
21
26
26
27
35
42
43
45
53
58
49
42
38
36
36
35
31
28
27
24
19
13
5
2
3
-1
-9
-14
-17
-18
-18
-18
-17
-15
-13
-13
-15
-10
-3
-3
-6
-2
2
16
29
45
62
89
116
137
164
205
204
100
-3
-105
-204
-296
-336
-309
-285
-264
-241
-215
-176
-127
-92
-67
-50
-38
-33
-31
-30
-30
-25
-18
-16
-16
-16
-16
-16
-16
-14
-12
-13
-14
-17
-20
-19
-18
-16
-14
-14
-14
-14
-14
-12
-10
-12
-14
-14
-14
-14
-12
-7
-4
-4
-5
-7
-8
-8
-6
-2
0
1
1
-1
-2
-1
0
0
0
-1
-4
-6
-5
-4
-6
-8
-11
-14
-15
-16
-13
-10
-8
-6
-7
-8
-8
-8
-6
-4
-4
-5
-8
-10
-10
-9
-7
-7
-9
-12
-15
-15
-13
-12
-13
-14
-15
-17
-19
-17
-13
-12
-12
-12
-12
-12
-12
-6
0
1
2
1
0
2
4
7
10
12
14
12
12
18
22
21
20
19
18
18
20
24
26
25
23
21
19
17
17
19
20
19
15
11
10
10
10
10
10
10
7
4
6
8
8
8
6
4
1
-1
2
4
2
0
-2
-4
-5
-6
-5
-4
-5
-6
-7
-8
-9
-10
-9
-8
-9
-12
-15
-14
-11
-10
-11
-12
-12
-15
-18
-14
-10
-10
-10
-14
-18
-19
-20
-18
-16
-14
-13
-17
-20
-21
-22
-20
-18
-18
-20
-24
-23
-17
-14
-14
-16
-20
-22
-22
-21
-19
-18
-18
-19
-21
-23
-25
-23
-19
-18
-16
-20
-24
-22
-20
-18
-16
-17
-18
-20
-21
-17
-14
-17
-20
-19
-18
-20
-21
-17
-14
-14
-15
-17
-18
-19
-19
-16
-12
-9
-11
-16
-17
-15
-14
-14
-14
-14
-14
-14
-10
-14
-2
0
2
4
3
4
19
32
33
33
28
23
19
16
15
16
23
20
1
-8
-3
-1
-3
-7
-13
-19
-24
-27
-29
-32
-35
-36
-37
-38
-38
-35
-31
-30
-30
-30
-31
-31
-30
-9
10
9
12
44
77
106
138
178
182
84
-3
-67
-153
-279
-343
-316
-305
-316
-302
-260
-219
-180
-141
-101
-78
-65
-58
-54
-47
-40
-38
-37
-36
-37
-35
-31
-30
-30
-30
-32
-36
-40
-33
-26
-28
-30
-30
-30
-33
-35
-31
-28
-27
-26
-26
-26
-27
-26
-21
-18
-18
-19
-21
-20
-16
-13
-10
-8
-9
-10
-11
-7
0
2
1
-2
-5
-6
-6
-2
-6
0
-4
-6
-8
-7
-6
-4
-2
-6
-10
-7
-3
3
8
8
8
7
4
-1
-3
2
2
-2
-5
-7
-8
-8
-7
-5
-6
-9
-10
-10
-11
-13
-16
-19
-19
-17
-16
-17
-15
-12
-11
-10
-11
-12
-13
-13
-7
-2
-5
-8
-6
-4
-2
1
4
6
5
4
6
8
7
8
12
13
11
9
5
4
5
9
13
10
5
3
1
1
3
3
1
-1
-4
-6
-8
-4
0
-2
-4
-7
-10
-9
-8
-6
-5
-9
-12
-13
-14
-14
-13
-9
-8
-15
-18
-19
-18
-12
-10
-10
-10
-11
-12
-11
-10
-10
-13
-17
-17
-15
-14
-14
-11
-14
-12
-18
-19
-20
-16
-12
-9
-6
-9
-12
-14
-15
-11
-9
-12
-14
-14
-14
-15
-15
-12
-11
-13
-14
-15
-16
-15
-14
-13
-13
-15
-16
-17
-18
-17
-16
-16
-18
-21
-22
-23
-20
-16
-16
-16
-18
-20
-21
-22
-19
-16
-19
-22
-22
-22
-22
-21
-18
-18
-23
-26
-26
-25
-22
-20
-19
-18
-18
-19
-23
-21
-16
-15
-17
-18
-19
-20
-19
-16
-13
-12
-13
-14
-12
-12
-12
-10
-8
-10
-12
-13
-13
-8
-4
-2
0
1
2
2
4
10
18
30
36
36
33
27
26
30
29
24
25
30
22
8
7
13
11
7
2
-3
-3
-1
-5
0
-16
-20
-20
-20
-16
-12
-13
-14
-14
-14
-14
-13
-8
-1
8
14
15
30
65
96
123
150
177
182
166
123
62
-57
-205
-265
-286
-301
-313
-274
-221
-193
-171
-127
-81
-65
-51
-38
-26
-23
-20
-19
-18
-17
-16
-13
-10
-11
-12
-12
-12
-8
-6
-6
-6
-7
-8
-9
-7
-1
2
1
0
-1
-3
-5
-2
4
6
6
5
3
3
5
9
13
14
15
16
14
17
20
20
20
21
22
22
22
26
30
30
30
28
25
22
21
25
28
27
25
20
19
21
23
26
28
29
30
29
28
29
30
29
28
27
23
19
18
18
18
18
17
16
13
10
13
16
17
18
15
12
12
12
15
18
19
19
15
12
13
14
17
19
22
24
23
23
26
28
28
28
28
28
27
29
33
34
35
35
33
32
31
33
36
37
38
34
30
29
28
27
26
26
25
21
18
17
16
17
18
18
17
14
12
13
14
14
14
13
11
9
10
13
14
15
13
9
8
7
10
15
16
16
15
12
12
12
14
16
17
18
15
12
11
10
13
16
14
12
11
10
11
12
14
16
13
11
9
9
11
12
13
12
8
6
5
7
13
13
11
9
7
6
6
7
6
8
6
5
4
5
6
8
10
6
2
1
0
3
6
6
5
2
0
0
0
3
4
4
3
1
0
0
1
3
3
1
0
-1
-2
-1
0
1
2
2
2
1
3
6
8
10
10
10
12
15
22
28
29
31
39
44
48
51
54
55
51
46
41
41
48
45
32
26
25
22
18
15
13
12
11
2
-8
-12
-15
-15
-13
-11
-9
-8
-10
-10
-10
-6
-2
-2
-1
7
14
18
30
65
95
113
135
161
178
179
147
72
-39
-186
-274
-309
-323
-321
-293
-249
-219
-195
-155
-109
-85
-68
-60
-53
-49
-45
-42
-39
-37
-38
-35
-36
-35
-34
-31
-28
-26
-24
-27
-30
-30
-29
-25
-22
-22
-22
-23
-22
-17
-14
-14
-14
-14
-14
-14
-11
-5
-2
-1
-1
-3
-4
-3
2
9
11
13
14
13
14
17
20
22
21
20
18
16
19
22
21
20
18
16
13
11
16
20
22
24
23
22
23
25
28
30
30
27
22
21
23
22
19
18
19
18
15
14
15
16
17
16
13
11
8
11
14
13
12
10
8
9
10
11
12
15
18
17
16
17
18
19
20
21
22
21
20
21
23
25
25
23
22
22
24
27
28
29
27
23
22
23
25
27
28
28
23
18
18
18
18
18
19
20
18
16
17
18
17
16
15
13
10
8
10
12
12
11
8
6
6
6
7
8
9
8
5
4
3
3
5
6
6
4
1
0
-1
0
2
0
-2
-3
-4
-3
-2
0
2
-2
-6
-7
-8
-4
-2
-1
-1
-5
-8
-9
-9
-6
-4
-3
-4
-8
-10
-9
-6
-3
-3
-5
-6
-6
-6
-6
-6
-5
-4
-5
-6
-6
-5
-4
-2
0
-3
-6
-8
-9
-4
0
-1
-2
-5
-8
-10
-11
-7
-4
-6
-8
-11
-12
-13
-13
-10
-9
-11
-12
-13
-14
-15
-16
-16
-16
-17
-18
-18
-12
-5
-3
-4
-1
-2
-1
0
11
21
28
34
36
36
26
19
23
26
25
24
22
17
9
5
8
8
3
-2
-8
-12
-16
-20
-23
-27
-32
-34
-33
-28
-23
-22
-21
-20
-21
-23
-25
-19
-12
9
28
22
20
56
90
114
143
187
196
105
25
-31
-117
-254
-326
-300
-294
-314
-301
-254
-213
-179
-141
-102
-80
-67
-56
-47
-41
-37
-36
-37
-37
-35
-32
-29
-27
-25
-27
-32
-33
-34
-32
-30
-30
-30
-30
-30
-28
-26
-26
-26
-26
-26
-26
-25
-22
-20
-18
-17
-20
-22
-22
-21
-18
-15
-12
-10
-11
-12
-11
-8
-5
-4
-5
-8
-11
-12
-12
-9
-12
-6
-8
-11
-14
-14
-14
-13
-12
-13
-14
-13
-11
-6
-2
0
1
-3
-6
-8
-8
-3
0
-1
-4
-8
-10
-10
-9
-7
-7
-9
-13
-17
-18
-17
-15
-13
-13
-15
-17
-19
-17
-14
-13
-12
-12
-12
-14
-16
-10
-6
-4
-2
-5
-8
-9
-9
-4
0
-1
-2
-3
-5
-7
-5
1
3
1
0
0
-2
-5
-6
-5
-6
-9
-11
-13
-14
-13
-12
-11
-12
-16
-15
-14
-12
-10
-10
-10
-14
-18
-19
-19
-14
-10
-13
-17
-20
-22
-21
-20
-18
-17
-22
-24
-25
-25
-23
-22
-23
-26
-29
-31
-33
-31
-27
-25
-23
-26
-31
-32
-33
-31
-34
-28
-30
-30
-30
-30
-30
-27
-24
-27
-30
-31
-32
-29
-26
-27
-28
-29
-31
-34
-34
-29
-26
-25
-26
-30
-33
-35
-34
-30
-28
-29
-30
-30
-30
-31
-30
-27
-27
-29
-30
-30
-28
-26
-25
-24
-26
-28
-29
-30
-27
-24
-24
-24
-26
-28
-32
-32
-26
-22
-23
-25
-28
-30
-29
-27
-24
-23
-26
-27
-25
-24
-24
-23
-21
-22
-25
-26
-25
-23
-21
-20
-19
-18
-20
-24
-28
-22
-16
-16
-16
-17
-18
-17
-14
-6
0
-1
1
13
21
24
25
22
19
16
12
7
9
18
13
-2
-8
-7
-8
-13
-15
-17
-20
-23
-29
-35
-44
-53
-47
-54
-39
-40
-38
-36
-39
-42
-38
-34
-34
-32
-21
-11
-6
8
40
68
90
119
154
157
119
57
-28
-144
-285
-338
-334
-334
-338
-308
-262
-231
-204
-163
-118
-98
-82
-73
-65
-60
-55
-51
-48
-45
-42
-44
-46
-47
-48
-44
-40
-41
-42
-40
-39
-43
-45
-41
-38
-38
-38
-38
-38
-37
-34
-30
-28
-28
-28
-28
-27
-25
-21
-17
-17
-19
-20
-20
-15
-9
-8
-8
-8
-10
-10
-10
-5
0
-1
-2
-4
-6
-8
-10
-8
-6
-6
-7
-11
-14
-12
-10
-8
-6
-5
-4
-4
-3
0
2
1
-1
-3
-5
-7
-6
-3
-3
-5
-6
-7
-10
-13
-12
-14
-11
-14
-14
-14
-14
-14
-13
-12
-11
-10
-11
-11
-7
-4
-3
-2
-1
0
-2
-2
3
6
7
8
7
6
7
10
14
16
17
18
17
16
16
17
19
20
21
19
15
14
14
13
12
10
8
4
0
4
8
6
4
2
0
-4
-6
-4
-2
-2
-3
-6
-9
-12
-12
-8
-6
-5
-6
-10
-12
-13
-12
-9
-8
-7
-8
-11
-12
-11
-10
-9
-10
-14
-14
-14
-11
-8
-7
-6
-9
-12
-12
-12
-11
-10
-8
-7
-10
-12
-13
-14
-12
-10
-10
-10
-11
-12
-12
-11
-8
-6
-6
-7
-9
-9
-7
-5
-3
-4
-7
-8
-8
-5
-8
0
0
-2
-4
-5
-6
-3
0
1
2
-1
-4
-5
-5
-2
-1
-4
-6
-5
-4
-5
-4
0
1
-1
-2
-2
-2
-2
-2
-1
-2
-5
-6
-6
-4
-1
0
-1
-2
-2
-5
-8
-2
4
3
2
1
0
0
1
8
14
15
16
17
22
34
43
46
48
46
41
35
32
33
36
40
32
16
10
10
12
15
12
6
2
-1
-10
-21
-21
-19
-19
-22
-22
-22
-23
-24
-21
-18
-17
-16
-17
-16
-7
2
9
24
53
80
103
129
161
181
190
152
72
-43
-185
-266
-312
-326
-322
-287
-240
-211
-189
-143
-92
-70
-52
-45
-39
-35
-38
-25
-20
-21
-22
-22
-22
-18
-14
-15
-16
-15
-14
-17
-18
-12
-8
-8
-9
-12
-14
-14
-13
-10
-7
-5
-5
-8
-10
-10
-8
-5
-3
-1
-1
-3
1
7
7
5
4
4
3
2
6
10
11
12
10
8
6
4
6
8
9
10
6
4
4
5
8
10
11
12
12
14
18
20
21
22
23
22
19
21
25
26
25
23
21
19
17
18
21
22
22
19
16
15
14
17
20
20
20
19
18
19
20
22
24
25
26
24
24
29
32
32
31
29
28
28
31
36
38
39
40
39
38
38
39
41
42
42
38
33
35
32
37
34
35
36
32
28
31
34
32
30
29
28
26
25
28
30
29
26
21
18
17
17
19
20
19
17
14
13
15
16
16
16
15
13
11
12
15
16
16
15
13
9
6
10
14
14
14
10
6
7
8
11
14
13
12
8
6
8
10
10
10
10
8
4
4
8
9
6
4
3
2
1
3
7
8
7
4
1
-1
-3
0
5
6
4
1
-2
-1
0
1
2
2
2
1
1
6
10
10
10
8
5
2
2
8
12
12
10
6
3
1
2
6
8
7
4
1
2
5
6
7
8
7
4
1
2
0
6
6
6
6
4
3
10
16
18
20
20
20
21
24
32
42
53
59
56
51
44
41
43
44
44
43
41
35
27
25
27
25
21
16
11
5
-1
-2
-2
-7
-13
-13
-12
-9
-6
-6
-6
-9
-12
-9
-6
-2
7
26
38
31
40
80
114
140
173
217
191
92
12
-50
-154
-286
-314
-281
-279
-294
-267
-224
-182
-142
-107
-75
-58
-44
-35
-27
-24
-20
-20
-20
-18
-16
-12
-8
-9
-10
-11
-12
-12
-12
-9
-6
-8
-10
-10
-10
-9
-8
-5
-6
-10
-11
-8
-5
-2
1
3
3
1
0
0
4
9
11
13
14
13
12
12
17
20
20
20
20
20
22
24
25
26
21
18
16
15
18
20
20
19
16
14
17
20
25
28
27
26
26
26
26
26
26
23
19
17
15
13
11
13
17
13
7
5
4
9
14
12
10
6
2
2
2
6
10
10
10
9
8
9
11
15
18
18
18
19
21
23
25
28
28
24
22
22
25
29
30
30
30
29
26
23
25
29
29
26
26
26
24
22
24
26
22
18
17
16
17
18
17
16
14
12
11
10
11
12
12
10
6
4
4
5
8
10
9
6
3
2
1
1
3
2
-1
-1
1
2
2
6
8
5
2
1
0
2
4
2
0
-1
-2
-5
-7
-3
0
-1
-2
-2
-3
-6
-7
-4
-4
-8
-10
-11
-12
-13
-13
-11
-10
-10
-10
-11
-12
-11
-10
-11
-12
-13
-15
-16
-12
-8
-8
-8
-9
-10
-11
-11
-6
-2
-4
-6
-6
-6
-7
-7
-4
-3
-6
-8
-8
-7
-5
-4
-3
-3
-5
-8
-11
-9
-4
-2
-3
-4
-5
-7
-9
-7
-3
-2
-4
-6
-8
-11
-14
-10
-6
-7
-8
-10
-12
-9
-5
0
4
3
2
3
6
11
17
26
31
33
33
31
30
30
29
27
27
29
21
9
7
9
7
3
-3
-9
-10
-10
-15
-20
-23
-26
-32
-37
-30
-24
-25
-26
-25
-24
-27
-29
-24
-19
-13
-4
11
28
47
71
101
129
157
180
200
133
17
-101
-220
-293
-350
-349
-333
-304
-272
-244
-216
-166
-113
-94
-76
-64
-52
-48
-44
-41
-38
-37
-36
-33
-30
-30
-30
-31
-32
-30
-28
-27
-26
-26
-26
-27
-26
-21
-18
-19
-20
-20
-20
-21
-19
-14
-12
-13
-13
-11
-10
-11
-8
-3
-2
-2
-6
-10
-4
2
5
8
8
8
6
5
10
14
12
10
8
5
1
-2
-1
0
-1
-1
1
1
-2
-3
-1
2
5
6
6
8
11
12
12
9
5
1
-3
0
-4
2
-2
-3
-4
-6
-8
-4
0
-1
-2
-4
-6
-5
-3
0
1
-2
-4
-4
-3
0
3
5
6
5
4
4
6
9
12
15
15
13
12
11
13
17
18
18
17
15
13
12
13
14
11
8
7
6
6
6
7
7
2
-2
-3
-4
-2
0
-1
-4
-9
-12
-12
-11
-8
-6
-6
-8
-12
-12
-9
-8
-9
-11
-13
-14
-14
-12
-9
-8
-7
-7
-10
-11
-12
-11
-10
-9
-8
-10
-12
-12
-12
-10
-8
-11
-14
-14
-14
-13
-12
-10
-8
-11
-13
-15
-15
-13
-12
-11
-11
-13
-15
-17
-16
-13
-12
-12
-13
-15
-16
-17
-17
-18
-15
-16
-18
-20
-18
-16
-14
-12
-14
-16
-18
-20
-18
-16
-15
-15
-19
-22
-23
-23
-20
-18
-18
-19
-22
-24
-23
-20
-16
-15
-17
-18
-18
-18
-18
-16
-13
-13
-15
-16
-16
-16
-16
-13
-10
-13
-16
-17
-18
-12
-8
-8
-9
-13
-16
-16
-15
-12
-10
-11
-12
-12
-12
-13
-13
-10
-9
-12
-14
-13
-10
-6
-1
3
4
3
3
5
10
15
26
37
38
36
35
34
37
40
33
26
31
34
19
9
15
19
15
10
4
0
1
-1
-8
-13
-16
-18
-17
-15
-12
-9
-7
-8
-11
-12
-11
-5
2
12
22
24
23
52
86
113
88
168
196
185
169
105
30
-118
-243
-275
-301
-308
-301
-253
-212
-186
-153
-106
-72
-57
-43
-32
-25
-22
-20
-19
-18
-19
-16
-9
-6
-7
-10
-13
-14
-15
-14
-11
-11
-13
-14
-14
-12
-10
-9
-8
-9
-10
-12
-14
-8
-4
-5
-6
-6
-6
-7
-6
0
4
4
4
6
8
9
12
16
18
18
19
21
23
25
27
29
30
30
29
27
27
29
30
29
28
28
27
26
33
40
40
40
39
38
37
36
37
38
36
33
30
28
28
28
29
30
27
25
22
21
24
26
25
23
21
20
19
21
25
26
26
26
25
24
24
28
24
34
34
33
32
32
32
34
36
38
40
37
35
39
42
41
40
41
41
37
36
43
45
42
40
40
38
34
34
38
40
39
35
31
28
25
26
29
30
30
28
25
25
26
26
26
25
24
21
18
21
24
23
22
21
20
20
20
22
24
24
24
22
20
19
19
22
24
24
22
18
17
19
20
20
20
20
19
17
20
25
24
21
20
18
15
12
17
22
22
22
18
14
13
12
15
18
20
21
18
16
17
18
19
20
19
17
14
13
16
18
18
16
13
12
11
13
17
18
18
17
15
13
11
12
10
17
18
14
10
11
12
13
14
16
18
16
14
16
18
17
16
14
12
11
11
16
18
17
16
15
15
17
20
24
28
32
34
33
41
54
58
61
59
55
52
49
48
48
51
53
37
22
23
24
24
23
18
12
4
-3
-10
-14
-13
-12
-10
-9
-12
-13
-10
-8
-7
-5
-3
-3
-5
8
30
32
26
55
95
118
139
183
230
165
89
24
-42
-190
-329
-300
-276
-294
-303
-258
-215
-176
-137
-97
-64
-47
-35
-31
-26
-20
-16
-15
-14
-13
-13
-15
-13
-7
-4
-5
-6
-7
-8
-9
-7
-1
0
1
0
-3
-4
-3
0
-2
5
6
5
4
7
10
11
12
13
14
14
15
20
24
26
28
26
24
24
25
30
32
32
31
29
28
29
30
30
30
31
29
25
27
31
32
32
32
33
33
31
37
44
43
42
40
38
35
32
35
38
37
35
31
28
28
28
29
30
30
29
26
25
27
28
27
26
27
28
27
29
34
36
35
34
33
32
31
34
39
41
43
42
38
40
42
44
46
46
46
43
40
43
46
47
48
48
47
44
42
43
44
45
45
40
37
35
35
37
38
37
34
30
28
29
30
31
32
31
29
27
25
23
23
22
26
26
22
18
20
22
22
22
22
22
19
16
19
22
21
19
16
14
13
12
15
16
17
17
14
12
11
12
15
16
17
15
11
10
10
11
13
14
13
12
11
9
8
11
14
10
6
7
8
9
10
10
10
7
4
4
5
9
12
11
10
8
5
3
4
8
10
10
10
9
7
5
7
12
12
9
8
7
7
9
12
15
13
8
8
8
11
14
14
14
11
8
5
3
8
12
12
12
13
14
13
15
22
26
29
30
31
39
51
57
59
56
49
45
43
42
41
44
51
38
22
20
20
21
20
18
12
8
4
-6
-14
-11
-8
-9
-10
-10
-10
-12
-12
-6
-2
-2
-2
-1
5
16
23
25
46
82
109
130
159
192
190
173
110
32
-105
-258
-295
-312
-320
-327
-281
-231
-208
-185
-134
-85
-68
-52
-48
-44
-38
-33
-28
-24
-22
-20
-24
-25
-22
-20
-20
-20
-18
-17
-20
-20
-15
-12
-12
-12
-13
-15
-17
-14
-8
-4
-1
-2
-5
-5
-3
0
3
6
10
7
4
6
8
12
16
17
18
17
16
18
21
25
27
24
22
21
20
21
22
22
20
15
12
13
15
17
20
23
22
19
20
23
25
27
28
29
27
23
21
22
20
22
17
12
10
8
10
12
14
15
10
6
6
6
7
8
9
10
8
6
3
5
12
16
16
15
13
12
12
14
18
20
21
22
23
24
23
24
27
26
23
22
22
26
30
31
32
26
20
18
16
20
24
22
19
15
12
11
11
14
16
15
13
10
7
5
5
8
7
2
0
1
2
2
2
3
3
1
0
-1
-2
-1
0
2
-1
-4
-6
-8
-3
2
1
0
-3
-6
-8
-10
-7
-4
-5
-6
-7
-8
-9
-10
-7
-7
-10
-12
-12
-11
-9
-7
-5
-6
-9
-12
-15
-15
-13
-11
-9
-8
-9
-11
-10
-12
-10
-11
-12
-11
-10
-11
-12
-9
-6
-11
-14
-16
-17
-14
-12
-12
-12
-12
-12
-13
-13
-10
-8
-7
-7
-10
-13
-15
-13
-8
-6
-6
-8
-11
-12
-13
-12
-9
-8
-9
-11
-12
-9
-6
-5
-4
-8
-12
-12
-12
-11
-10
-10
-10
-10
-10
-11
-12
-10
-8
-10
-11
-9
-10
-14
-13
-7
-3
-1
-2
-5
-5
-3
2
7
16
26
26
23
22
23
23
20
16
12
11
9
-1
-10
-9
-8
-12
-17
-24
-30
-31
-33
-38
-43
-46
-48
-48
-47
-42
-40
-40
-41
-44
-43
-37
-34
-34
-23
-6
-5
-9
23
64
90
113
154
196
110
198
-44
-108
-246
-370
-346
-325
-336
-337
-288
-243
-209
-173
-131
-97
-79
-67
-61
-57
-54
-53
-56
-54
-45
-40
-39
-39
-41
-42
-42
-40
-37
-38
-41
-42
-42
-42
-41
-38
-35
-34
-34
-34
-34
-31
-28
-28
-28
-26
-24
-24
-23
-17
-13
-17
-19
-15
-12
-13
-11
-3
2
1
0
0
0
-1
-1
2
3
-1
-2
-2
-2
-1
-3
-7
-8
-7
-7
-9
-5
1
2
2
2
2
0
-2
1
4
3
2
-2
-6
-9
-12
-9
-6
-6
-7
-11
-14
-15
-16
-13
-12
-12
-13
-15
-14
-10
-8
-9
-10
-9
-8
-9
-8
-5
-4
-3
-2
-3
-4
-4
0
4
7
10
5
0
2
4
7
10
13
16
13
10
11
12
13
14
14
13
10
8
9
10
10
9
7
4
1
0
0
1
3
1
-3
-5
-7
-6
-3
-2
-2
-5
-8
-9
-10
-8
-6
-6
-6
-7
-8
-8
-8
-6
-4
-5
-6
-7
-8
-7
-6
-5
-5
-8
-10
-11
-11
-9
-8
-7
-7
-9
-11
-13
-11
-7
-6
-6
-8
-11
-12
-12
-10
-6
-7
-8
-10
-12
-12
-12
-9
-6
-8
-10
-10
-10
-10
-10
-9
-8
-10
-13
-16
-17
-12
-10
-10
-10
-10
-11
-14
-12
-6
-4
-5
-8
-11
-12
-13
-12
-9
-8
-9
-10
-10
-12
-14
-9
-4
-4
-4
-6
-8
-7
-6
-6
-6
-8
-10
-11
-11
-7
-4
-5
-6
-6
-7
-10
-9
-3
0
0
-1
-3
-6
-9
-9
-7
-6
-6
-4
-1
3
7
9
11
15
18
21
24
35
44
45
45
36
28
26
24
27
30
31
28
16
8
8
8
8
7
4
-2
-10
-15
-18
-21
-23
-23
-21
-20
-21
-20
-17
-15
-13
-12
-11
-10
-11
10
34
28
24
62
98
122
148
190
208
126
47
-23
-114
-259
-341
-302
-280
-286
-276
-242
-203
-159
-122
-90
-68
-54
-47
-44
-40
-36
-32
-29
-28
-28
-28
-28
-28
-27
-26
-25
-25
-24
-28
-28
-25
-22
-21
-20
-22
-24
-24
-24
-19
-16
-16
-16
-16
-16
-15
-12
-7
-4
-7
-7
-5
-4
-3
-1
2
3
1
1
3
6
9
10
11
10
7
6
7
10
13
12
10
8
6
4
2
7
12
13
14
15
16
17
18
22
24
23
22
20
18
19
20
21
21
19
15
10
9
13
13
11
10
9
6
3
6
11
12
11
10
11
9
4
11
18
18
18
18
18
19
20
21
22
23
24
23
23
27
30
31
32
31
30
29
30
34
36
35
33
30
26
22
22
25
23
19
18
18
18
18
18
18
18
18
14
12
13
14
13
12
10
8
6
4
9
12
12
11
8
5
2
1
5
8
8
7
4
2
1
0
1
2
1
0
-1
-1
1
2
2
2
3
2
-1
0
3
4
4
2
0
-1
-2
2
6
5
4
1
-2
-1
0
2
4
5
5
2
0
0
0
1
2
2
1
-2
-3
-1
0
1
2
1
-1
-3
1
7
8
7
5
3
1
-2
1
4
4
4
-1
-6
-6
-6
-3
0
2
3
-2
-6
-4
-2
-1
0
0
0
-1
-2
-1
0
0
-1
-4
-6
-6
-4
1
3
5
2
-5
-5
-3
-2
-1
1
0
3
2
5
8
12
16
14
14
25
35
40
44
47
48
40
33
29
28
33
32
23
16
12
9
7
5
3
2
2
-6
-18
-23
-25
-25
-23
-22
-22
-23
-25
-26
-26
-24
-22
-20
-18
-17
-14
3
20
38
56
79
103
129
159
195
184
86
-23
-149
-251
-325
-352
-332
-306
-275
-248
-223
-184
-137
-103
-76
-62
-53
-48
-45
-42
-39
-33
-27
-26
-27
-28
-26
-24
-22
-21
-20
-21
-22
-22
-22
-19
-16
-16
-16
-18
-20
-22
-22
-15
-10
-10
-10
-9
-9
-11
-9
-3
1
3
4
5
6
6
7
9
10
10
10
10
13
17
18
18
18
16
14
12
16
20
16
12
11
10
5
3
9
14
15
16
17
18
19
20
23
24
24
22
16
15
17
18
17
14
11
8
5
5
7
8
8
8
8
4
-1
4
10
8
6
3
0
0
0
6
10
13
15
10
6
8
11
14
16
17
18
16
16
21
24
23
22
21
20
19
20
24
26
25
22
19
16
13
16
21
22
23
19
12
11
10
12
14
14
14
9
4
5
6
9
12
9
6
5
4
6
8
7
6
3
2
1
1
4
7
9
7
2
0
-1
0
3
5
7
5
1
0
-1
-2
-2
1
2
0
-2
-1
0
1
2
0
-2
-2
-2
-2
-1
3
4
-3
-9
-12
-13
-8
-6
-6
-6
-7
-8
-9
-9
-7
-6
-7
-9
-11
-13
-15
-13
-9
-9
-11
-13
-15
-15
-14
-12
-10
-9
-8
-10
-12
-8
-4
-7
-10
-13
-16
-17
-16
-10
-7
-11
-14
-15
-16
-16
-16
-15
-14
-15
-16
-16
-16
-16
-15
-13
-14
-17
-18
-19
-17
-13
-12
-12
-12
-14
-15
-16
-12
-8
-9
-10
-12
-14
-17
-19
-15
-12
-11
-10
-10
-10
-8
-5
-1
2
2
1
-1
2
10
18
25
29
31
29
24
23
25
25
23
24
27
14
-3
-1
-4
2
0
-6
-12
-16
-20
-21
-22
-28
-32
-34
-36
-33
-30
-30
-30
-30
-30
-31
-30
-23
-14
-2
4
4
25
60
87
111
138
168
140
92
21
-56
-179
-311
-331
-337
-341
-345
-300
-254
-223
-191
-144
-101
-88
-75
-66
-58
-55
-51
-46
-42
-42
-41
-36
-32
-31
-30
-32
-33
-30
-27
-25
-25
-27
-28
-27
-24
-20
-19
-21
-22
-21
-20
-21
-18
-13
-12
-11
-10
-10
-13
-16
-8
0
0
0
0
0
0
0
2
4
5
6
6
7
10
12
12
12
9
6
2
2
6
5
0
-2
-1
-2
-5
-1
6
8
9
10
9
8
7
6
6
5
2
0
-2
-1
0
0
0
-1
-2
-5
-7
-3
0
-1
-2
-3
-4
-5
-4
3
6
5
3
1
0
0
2
6
8
8
8
9
11
13
15
17
18
18
17
15
20
26
26
26
25
24
21
19
25
30
28
26
23
20
19
18
19
20
19
17
14
12
11
10
11
12
11
9
5
6
9
10
10
8
5
2
-1
2
7
7
5
3
0
-3
-6
-2
2
1
0
0
0
-1
-2
0
2
2
1
-2
-3
0
2
2
2
-1
-4
-8
-7
-1
2
2
1
-1
-3
-5
-3
3
4
5
4
1
-1
-3
-1
-4
3
2
-1
-4
-1
2
3
4
2
0
-2
-3
2
6
4
2
0
-2
-4
-5
-2
0
1
1
-1
-2
-2
-1
1
2
2
1
-1
0
3
4
3
2
2
-1
-5
-1
4
3
2
2
2
-2
-5
1
6
5
4
1
-2
-2
-2
0
2
2
1
-2
-2
2
4
3
2
2
1
-1
0
4
6
6
6
5
4
4
8
13
16
19
20
20
23
26
40
52
53
53
46
40
42
43
39
37
41
39
22
15
23
26
20
15
10
5
-1
-4
-4
-5
-7
-9
-11
-12
-12
-9
-5
-4
-4
-5
-7
-6
-3
16
-2
31
27
65
102
128
154
189
206
142
78
17
-69
-218
-310
-284
-274
-291
-284
-241
-198
-154
-115
-80
-57
-44
-36
-32
-26
-20
-16
-13
-13
-15
-13
-9
-8
-7
-6
-7
-8
-9
-7
-4
-4
-4
-6
-8
-7
-6
-4
-2
-2
-2
-4
-6
-7
-7
-4
-1
3
6
4
2
3
5
8
11
13
13
11
13
18
20
21
21
19
18
18
20
23
25
27
25
20
18
16
17
18
19
20
18
16
18
21
25
28
26
24
22
20
21
22
22
21
18
15
13
12
12
12
12
10
6
4
4
6
9
10
11
11
9
8
9
13
10
18
18
18
18
19
20
23
26
24
22
24
26
29
32
34
36
35
34
32
31
36
38
38
37
34
32
31
32
35
35
33
31
29
28
28
28
29
28
25
23
21
20
20
19
18
13
8
7
6
9
12
11
9
5
2
0
-1
4
7
3
0
-1
-3
-5
-6
-5
-4
-5
-7
-9
-10
-9
-6
-3
-3
-5
-6
-7
-6
-3
-2
-2
-4
-8
-8
-8
-3
2
0
-2
-2
-2
-1
0
1
2
2
2
0
-1
2
4
4
3
0
-2
-2
-1
2
4
4
3
1
0
0
2
5
7
9
9
7
6
5
6
4
7
4
3
2
2
2
5
8
5
2
2
2
5
8
7
6
4
2
1
0
1
1
-2
-4
-5
-7
-9
-8
-5
-5
-7
-9
-11
-12
-11
-10
-10
-11
-13
-14
-15
-13
-10
-9
-8
-8
-8
-6
-3
4
10
11
14
24
32
33
35
39
40
34
29
25
25
32
31
21
16
15
12
8
6
7
8
7
-1
-10
-14
-17
-16
-13
-12
-11
-10
-8
-8
-8
-5
-2
-1
1
11
21
26
39
76
108
128
151
179
188
168
128
62
-47
-204
-285
-299
-308
-314
-284
-233
-200
-175
-136
-91
-65
-44
-37
-33
-30
-27
-23
-19
-18
-18
-19
-22
-23
-24
-19
-14
-13
-12
-15
-18
-16
-14
-13
-12
-12
-12
-13
-14
-13
-12
-9
-8
-9
-10
-11
-9
-4
-1
1
2
1
1
3
8
13
14
14
13
11
10
10
14
18
18
18
16
14
14
14
18
22
19
16
14
12
16
18
20
22
20
18
18
19
22
24
24
23
20
18
17
17
19
19
17
15
13
12
11
10
11
9
5
4
4
6
8
10
12
10
8
9
10
11
12
14
16
13
10
11
13
17
20
21
21
16
14
15
18
24
25
23
22
22
22
23
24
25
23
19
18
17
18
21
22
22
17
14
13
12
15
18
17
16
14
12
11
10
12
13
10
7
4
2
3
4
7
7
4
2
2
3
6
8
7
4
0
-2
-1
1
3
3
1
-3
-7
-8
-8
-3
2
-2
-6
-5
-4
-4
-4
-3
-2
-6
-10
-10
-10
-8
-6
-6
-7
-10
-12
-13
-13
-11
-9
-6
-5
-8
-11
-15
-14
-10
-9
-11
-12
-12
-12
-13
-13
-11
-11
-13
-14
-16
-13
-10
-10
-10
-12
-14
-17
-19
-14
-10
-11
-12
-13
-14
-16
-16
-11
-8
-10
-12
-11
-11
-13
-12
-8
-8
-12
-14
-15
-14
-11
-10
-10
-10
-11
-13
-15
-12
-7
-6
-6
-10
-12
-14
-16
-12
-8
-9
-10
-9
-8
-9
-8
-1
4
6
9
13
19
27
33
38
37
30
24
20
21
27
25
17
9
1
-2
-3
-4
-3
-3
-5
-16
-27
-30
-33
-33
-32
-32
-32
-32
-32
-29
-26
-27
-28
-27
-26
-24
-15
10
26
28
43
77
105
125
156
197
152
33
-70
-161
-254
-348
-353
-316
-303
-298
-270
-236
-191
-144
-113
-83
-70
-59
-56
-52
-44
-36
-36
-36
-37
-38
-42
-45
-37
-30
-32
-35
-39
-42
-41
-40
-39
-38
-38
-38
-38
-38
-38
-36
-32
-31
-33
-33
-31
-29
-27
-25
-23
-22
-22
-23
-25
-20
-13
-12
-12
-11
-12
-11
-10
-4
2
3
4
2
0
-1
-2
-1
0
1
0
-6
-10
-9
-8
-7
-5
-2
0
-1
2
9
12
11
8
4
2
2
5
9
7
3
0
-3
-4
-4
-6
-8
-6
-4
-3
-2
-1
0
-1
-2
-4
-6
-7
-8
-4
-2
0
2
1
0
0
1
4
8
13
15
13
12
13
15
17
18
19
17
13
14
17
18
17
16
16
15
12
15
18
19
20
18
16
13
10
11
11
7
4
2
0
-2
-4
-2
0
0
-1
-6
-7
-5
-4
-3
-3
-6
-10
-14
-14
-9
-8
-9
-13
-17
-18
-18
-16
-13
-11
-12
-13
-18
-20
-22
-17
-12
-12
-12
-13
-14
-15
-16
-15
-14
-15
-17
-23
-24
-19
-16
-15
-15
-18
-20
-19
-17
-15
-14
-14
-15
-17
-22
-28
-26
-21
-20
-20
-21
-23
-22
-19
-17
-16
-17
-18
-21
-24
-22
-20
-20
-20
-22
-24
-23
-22
-18
-16
-16
-17
-20
-22
-20
-19
-21
-22
-21
-20
-20
-18
-14
-14
-18
-20
-19
-20
-23
-19
-13
-12
-13
-17
-21
-22
-20
-17
-14
-15
-16
-19
-22
-21
-20
-20
-20
-22
-24
-25
-25
-22
-20
-21
-22
-24
-26
-27
-26
-22
-20
-19
-19
-21
-23
-25
-25
-23
-22
-23
-27
-31
-30
-27
-26
-26
-26
-26
-27
-30
-27
-24
-23
-22
-24
-26
-27
-27
-21
-16
-14
-12
-13
-14
-13
-9
-1
10
23
29
27
24
18
16
17
18
17
16
17
12
2
0
1
-2
-7
-11
-15
-16
-15
-18
-22
-25
-28
-28
-28
-24
-20
-21
-22
-23
-23
-19
-16
-15
-8
9
17
9
23
65
98
122
155
194
161
77
19
-24
-137
-283
-302
-275
-283
-302
-270
-226
-187
-149
-116
-84
-68
-52
-45
-38
-36
-34
-36
-38
-33
-28
-29
-30
-30
-30
-32
-32
-26
-22
-23
-24
-25
-26
-27
-26
-21
-17
-15
-14
-15
-16
-15
-12
-9
-8
-7
-6
-6
-2
3
6
9
10
10
10
10
14
18
17
16
16
16
16
16
21
24
25
25
21
18
17
16
18
20
20
18
14
13
16
18
19
20
20
20
20
22
25
26
27
24
19
18
17
16
16
17
18
14
10
9
8
9
10
12
14
11
8
10
12
14
16
17
18
17
16
18
21
23
24
23
22
21
23
30
32
33
33
31
30
31
35
39
40
40
37
33
33
36
39
42
41
40
37
34
37
40
40
40
37
34
32
30
31
32
31
28
23
20
21
22
23
24
23
21
18
15
13
14
19
20
21
18
11
10
10
13
17
17
18
14
14
13
12
14
16
13
10
10
10
11
12
13
13
8
4
2
2
7
10
10
9
7
5
3
5
10
11
9
8
8
8
7
9
13
12
9
8
8
8
9
12
14
11
8
8
8
12
16
15
14
11
8
6
5
10
14
13
12
12
12
12
13
15
15
13
12
11
11
13
15
17
16
13
11
9
12
17
17
15
14
14
14
12
15
18
17
16
15
14
10
7
14
20
18
16
16
16
16
16
17
18
18
18
17
17
20
23
25
26
26
26
27
32
38
44
50
56
63
64
64
61
57
56
56
52
50
45
40
36
32
32
32
26
22
21
18
11
6
4
1
-3
-3
4
8
7
6
5
3
0
1
6
8
9
22
39
44
45
73
108
136
163
203
245
150
44
-62
-168
-255
-335
-314
-293
-264
-236
-212
-182
-131
-89
-67
-47
-30
-17
-14
-12
-12
-11
-8
-6
-5
-4
-4
-5
-7
-7
-3
-2
-1
0
1
1
-1
2
7
7
5
4
5
4
0
5
10
10
10
10
10
11
12
15
18
21
24
22
21
26
30
30
30
30
30
27
28
33
36
36
35
33
31
29
29
31
32
32
32
31
32
35
38
41
42
42
38
36
41
46
44
42
40
38
35
32
37
40
38
35
32
29
25
23
27
29
26
23
21
21
23
25
28
30
29
28
27
29
34
36
37
37
35
34
34
38
43
44
44
42
40
40
40
43
46
45
44
44
44
45
46
47
47
44
41
37
35
39
41
39
37
35
31
26
27
32
33
31
29
27
25
23
23
25
24
21
20
19
18
20
20
20
18
16
14
12
17
22
21
20
17
14
12
11
15
18
18
17
14
12
9
9
12
13
11
10
10
11
13
14
13
12
12
10
7
7
9
10
11
10
12
4
2
7
12
12
12
10
8
8
8
10
12
11
10
9
8
9
10
9
8
9
9
6
6
12
14
13
11
9
6
2
4
10
11
9
6
3
2
1
3
7
8
8
6
4
3
2
5
8
7
6
4
2
5
8
8
8
7
4
-1
-1
7
11
9
8
8
7
5
7
12
15
17
18
17
20
25
26
27
36
47
48
49
53
58
53
48
44
40
42
43
34
26
27
27
22
16
9
5
8
8
1
-6
-12
-16
-19
-18
-14
-11
-9
-11
-16
-16
-13
-10
-7
-6
-5
8
23
36
48
77
108
132
110
192
224
120
16
-96
-203
-288
-353
-326
-299
-278
-254
-226
-191
-145
-108
-84
-64
-47
-37
-34
-32
-33
-32
-28
-25
-23
-22
-22
-22
-22
-22
-21
-19
-17
-18
-21
-22
-22
-20
-17
-17
-18
-19
-20
-20
-20
-17
-14
-12
-10
-9
-8
-8
-7
-3
0
1
2
1
1
5
9
11
11
8
6
6
9
14
16
16
13
9
7
5
8
13
13
11
9
7
4
0
7
14
14
14
15
16
16
16
18
20
17
14
13
12
10
8
10
12
10
7
2
2
6
7
4
2
3
3
1
3
8
7
3
3
5
4
1
3
7
8
8
5
2
4
6
8
10
9
8
7
7
12
16
16
15
11
7
4
4
9
12
11
10
10
9
6
6
10
11
9
7
5
3
1
1
3
4
4
2
-1
-1
1
3
4
2
0
-3
-6
-1
4
-2
-6
-5
-5
-9
-12
-8
-6
-5
-6
-11
-14
-13
-12
-12
-12
-13
-14
-14
-13
-11
-10
-9
-9
-11
-15
-19
-16
-11
-10
-11
-13
-15
-16
-18
-15
-12
-11
-10
-15
-20
-20
-20
-17
-14
-16
-18
-19
-20
-21
-21
-17
-14
-16
-19
-22
-23
-21
-20
-21
-23
-25
-26
-26
-25
-23
-22
-21
-20
-20
-20
-21
-19
-15
-14
-14
-17
-20
-22
-24
-23
-22
-20
-18
-21
-24
-25
-25
-21
-18
-19
-20
-22
-24
-23
-22
-21
-22
-26
-28
-28
-27
-25
-23
-21
-21
-23
-26
-29
-27
-23
-22
-21
-25
-31
-32
-31
-30
-30
-31
-32
-33
-34
-33
-32
-28
-24
-25
-26
-23
-20
-16
-12
-6
1
9
14
14
13
11
10
11
10
6
4
5
0
-9
-12
-11
-12
-15
-21
-27
-28
-28
-33
-39
-43
-48
-45
-42
-40
-38
-40
-42
-41
-39
-33
-28
-27
-23
-12
-4
-4
10
45
75
96
126
165
140
57
-13
-74
-180
-312
-343
-324
-325
-335
-303
-257
-221
-187
-151
-114
-95
-77
-70
-76
-63
-64
-60
-56
-49
-42
-43
-44
-44
-44
-44
-43
-39
-37
-40
-41
-38
-36
-37
-37
-34
-32
-33
-34
-33
-31
-28
-24
-21
-22
-26
-27
-25
-22
-19
-15
-11
-11
-13
-14
-13
-7
-2
-6
-10
-8
-6
-4
-2
-1
0
-1
-2
-5
-8
-7
-6
-8
-11
-15
-19
-22
-22
-18
-15
-13
-11
-9
-8
-8
-6
-3
-4
-7
-9
-11
-12
-12
-12
-11
-13
-17
-18
-18
-18
-18
-15
-12
-16
-20
-20
-20
-17
-14
-14
-14
-15
-16
-16
-15
-12
-10
-11
-12
-11
-9
-6
-2
4
5
2
0
1
4
9
10
11
10
7
6
6
7
9
10
10
5
2
2
2
3
4
2
0
-1
-2
-4
-6
-5
-5
-10
-14
-14
-14
-13
-12
-9
-10
-14
-16
-17
-16
-12
-10
-11
-12
-13
-15
-17
-15
-11
-11
-13
-14
-13
-13
-15
-13
-10
-11
-12
-12
-12
-10
-8
-7
-6
-10
-14
-14
-14
-10
-8
-7
-7
-10
-12
-14
-14
-10
-8
-9
-10
-11
-12
-12
-10
-7
-8
-11
-12
-12
-12
-12
-12
-11
-12
-15
-16
-18
-14
-10
-10
-10
-13
-16
-19
-21
-15
-10
-12
-14
-16
-18
-18
-17
-13
-10
-11
-12
-11
-10
-9
-7
-4
-2
-3
-4
-5
-5
-3
-2
-2
-2
-3
-4
-5
-2
3
4
4
1
0
-2
-4
0
4
2
0
0
0
-1
-2
0
2
0
-2
-1
2
8
12
15
16
17
18
18
26
41
46
47
43
35
31
29
29
31
35
39
27
11
11
13
14
14
7
0
-3
-6
-9
-12
-16
-20
-20
-20
-21
-21
-14
-10
-11
-12
-12
-12
-12
-4
12
19
17
36
69
98
124
154
187
165
122
72
19
-114
-265
-278
-271
-286
-303
-259
-212
-179
-146
-107
-71
-54
-40
-38
-34
-23
-14
-14
-14
-14
-14
-14
-13
-9
-6
-7
-9
-12
-13
-11
-10
-9
-8
-7
-8
-11
-8
-2
0
-1
-2
-2
-2
-3
0
5
6
6
7
6
6
6
10
14
16
18
18
18
23
26
26
26
27
27
24
23
26
28
28
27
25
23
20
19
22
24
24
23
21
22
25
28
31
33
35
33
29
28
27
27
28
29
30
27
24
23
22
23
24
23
22
20
18
20
22
22
22
20
18
17
17
20
23
25
25
23
22
23
26
29
32
35
34
31
30
31
33
35
36
35
33
30
35
40
40
40
37
34
34
34
35
36
36
35
31
28
26
25
28
30
30
28
23
20
19
19
22
24
24
22
18
16
17
18
18
16
13
12
11
13
17
18
18
13
10
11
12
13
14
16
18
14
10
11
12
14
16
16
15
11
8
9
10
13
13
11
10
10
11
13
14
14
12
8
6
5
6
9
11
13
11
7
6
5
7
10
9
8
6
4
6
8
9
10
8
6
5
4
5
6
8
9
6
4
3
3
6
8
9
8
4
2
3
6
9
10
11
8
3
4
7
8
7
6
5
4
2
4
6
6
6
4
2
1
0
3
6
9
11
5
1
4
7
11
14
15
16
16
19
25
32
40
44
45
46
46
45
43
41
39
40
43
30
14
15
19
20
20
11
4
4
4
-3
-10
-12
-14
-16
-18
-13
-10
-10
-10
-10
-10
-11
-10
-4
3
10
16
20
40
73
102
130
156
182
172
147
95
35
-97
-248
-281
-292
-305
-319
-271
-217
-192
-167
-123
-81
-66
-51
-40
-30
-26
-22
-20
-18
-18
-18
-14
-12
-13
-14
-16
-18
-17
-16
-15
-14
-14
-15
-18
-17
-10
-8
-7
-7
-9
-10
-11
-8
-3
-2
-3
-4
-4
-3
0
3
6
7
8
7
6
9
12
15
18
17
16
14
13
17
20
20
19
15
11
8
7
10
11
9
8
8
8
8
11
16
19
21
20
17
18
21
22
21
18
20
12
10
13
16
13
10
8
6
3
1
6
10
8
6
5
4
2
1
5
8
8
8
7
7
9
11
14
16
15
14
15
19
23
24
24
24
23
22
22
26
31
32
32
30
28
27
26
31
36
35
34
31
28
28
28
27
26
26
24
19
18
23
25
22
19
17
15
13
13
15
16
16
13
9
7
5
6
9
9
7
4
1
0
-2
0
2
2
2
1
0
1
2
1
0
0
0
-3
-5
0
3
0
-2
-4
-6
-7
-6
-2
0
1
1
-1
-2
-1
0
-1
-2
-1
-2
-5
-5
-3
-2
-3
-4
-4
-5
-8
-4
0
-1
-2
-3
-4
-6
-8
-6
-4
-3
-3
-6
-8
-10
-11
-8
-6
-6
-6
-7
-8
-7
-6
-7
-8
-7
-8
-11
-11
-9
-8
-8
-9
-11
-13
-15
-13
-9
-9
-10
-11
-12
-14
-16
-11
-6
-7
-8
-11
-14
-14
-14
-10
-8
-6
-5
-8
-9
-5
1
7
10
11
18
29
34
35
34
31
27
23
20
17
21
29
19
6
4
3
0
-4
-6
-8
-12
-16
-22
-28
-29
-30
-29
-28
-27
-27
-31
-33
-29
-25
-22
-20
-21
-14
3
12
12
33
70
96
115
149
190
130
28
-39
-97
-214
-345
-341
-313
-317
-325
-284
-326
-204
-169
-128
-89
-74
-60
-58
-56
-52
-48
-47
-45
-40
-36
-38
-40
-39
-36
-31
-28
-25
-26
-30
-31
-29
-28
-28
-28
-28
-27
-25
-24
-25
-22
-17
-17
-19
-20
-21
-17
-11
-6
-2
-6
-10
-9
-8
-3
2
3
4
4
4
4
5
9
12
10
8
8
8
6
5
7
7
4
2
1
0
1
2
2
1
-1
0
3
5
7
9
11
10
7
5
2
1
0
0
0
-1
-2
-1
0
-2
-4
-7
-10
-11
-12
-10
-8
-7
-6
-7
-8
-8
-6
-1
2
1
-1
-3
-5
-7
-3
6
8
9
10
9
8
7
11
17
18
18
19
18
19
20
20
20
17
14
14
14
14
14
14
13
9
6
4
3
7
10
9
6
2
0
0
0
1
1
-1
-2
-3
-5
-7
-8
-7
-9
-13
-13
-11
-10
-9
-9
-10
-14
-18
-18
-18
-17
-16
-15
-15
-22
-27
-22
-18
-19
-20
-18
-16
-17
-18
-17
-16
-15
-14
-15
-17
-19
-20
-19
-16
-13
-14
-17
-19
-21
-22
-21
-19
-17
-16
-16
-18
-22
-18
-14
-17
-20
-23
-26
-24
-22
-18
-15
-20
-24
-24
-24
-25
-24
-19
-18
-24
-28
-28
-26
-21
-18
-17
-17
-20
-22
-21
-20
-19
-17
-15
-17
-21
-21
-19
-18
-17
-16
-16
-20
-22
-19
-16
-14
-12
-15
-18
-19
-20
-19
-18
-16
-15
-18
-20
-19
-18
-18
-18
-18
-19
-21
-20
-16
-14
-13
-14
-18
-20
-21
-20
-17
-16
-15
-16
-19
-20
-19
-16
-13
-8
-4
-4
-4
-2
0
3
7
14
20
24
28
31
33
26
21
16
12
13
13
10
8
8
5
-1
-7
-12
-12
-8
-11
-19
-24
-27
-28
-29
-26
-21
-20
-20
-20
-21
-21
-18
-14
-10
-7
-3
9
22
41
61
88
113
134
158
185
174
86
-14
-133
-229
-295
-324
-311
-286
-251
-222
-198
-158
-109
-79
-58
-46
-37
-32
-29
-28
-28
-23
-17
-15
-13
-13
-12
-17
-18
-14
-10
-10
-10
-13
-16
-16
-16
-14
-12
-11
-10
-12
-13
-10
-7
-4
-2
-5
-5
-3
-1
2
5
7
6
3
3
5
9
13
14
15
16
15
14
14
19
25
25
24
21
18
17
16
17
18
15
12
11
11
15
19
23
26
25
24
25
27
31
34
34
32
28
25
23
23
27
28
27
25
23
22
21
21
23
23
21
20
19
18
18
21
24
22
20
20
20
23
26
27
28
25
22
23
25
29
32
32
32
31
30
30
31
34
35
32
30
31
32
31
31
33
34
33
31
29
29
31
32
32
28
32
20
18
21
24
23
22
19
16
17
18
20
22
20
18
17
16
15
14
16
17
14
12
11
10
11
12
13
12
8
6
7
11
15
15
13
11
9
7
5
7
11
10
8
7
6
4
2
7
12
9
6
6
6
6
6
7
8
6
4
2
1
4
6
5
5
7
5
0
1
6
8
7
6
5
2
-1
3
9
8
5
4
3
2
0
3
6
5
4
4
4
5
6
6
6
5
4
2
1
5
8
7
6
5
4
1
2
7
10
10
9
7
6
5
6
11
11
9
7
5
6
9
12
15
17
16
21
22
28
35
46
56
56
56
53
50
52
53
48
45
