-69
-75
-77
-75
-77
-79
-82
-81
-82
-82
-85
-86
-82
-83
-87
-83
-81
-80
-80
-75
-67
-66
-66
-63
-59
-57
-58
-56
-54
-52
-54
-54
-50
-49
-52
-54
-53
-53
-54
-57
-52
-51
-49
-54
-54
-53
-53
-56
-55
-53
-52
-58
-56
-53
-53
-56
-60
-59
-55
-57
-62
-59
-59
-62
-61
-63
-61
-60
-61
-62
-60
-62
-63
-62
-62
-61
-61
-63
-61
-61
-63
-63
-59
-60
-60
-65
-62
-59
-64
-65
-62
-60
-62
-64
-61
-61
-58
-60
-59
-55
-53
-53
-55
-53
-52
-53
-53
-46
-43
-46
-54
-55
-51
-54
-59
-58
-58
-59
-61
-62
-60
-57
-61
-59
-60
-58
-62
-64
-58
-56
-60
-64
-68
-71
-74
-84
-76
-50
-25
-11
14
46
69
40
-43
-94
-92
-79
-73
-67
-65
-69
-72
-67
-67
-68
-70
-67
-65
-67
-70
-68
-65
-67
-69
-67
-64
-67
-69
-68
-64
-67
-69
-69
-68
-67
-67
-66
-63
-63
-65
-66
-65
-66
-65
-66
-66
-62
-65
-68
-67
-64
-65
-67
-67
-67
-70
-74
-73
-70
-69
-75
-77
-75
-75
-81
-81
-85
-82
-87
-90
-87
-85
-86
-87
-84
-82
-79
-77
-73
-68
-65
-65
-62
-57
-54
-57
-59
-56
-54
-56
-57
-55
-53
-56
-57
-55
-53
-54
-56
-54
-52
-54
-57
-57
-52
-53
-55
-58
-54
-52
-55
-57
-55
-54
-58
-61
-59
-57
-57
-57
-55
-54
-57
-60
-59
-55
-57
-58
-59
-57
-55
-59
-61
-59
-59
-60
-61
-58
-57
-59
-60
-58
-55
-57
-58
-58
-54
-57
-57
-58
-56
-55
-58
-55
-53
-53
-53
-51
-47
-46
-50
-49
-45
-44
-44
-46
-40
-40
-44
-48
-50
-48
-50
-51
-49
-48
-49
-55
-55
-52
-50
-55
-56
-54
-53
-54
-53
-52
-53
-54
-53
-50
-53
-62
-69
-72
-75
-63
-37
-11
7
30
52
80
104
102
70
1
-68
-84
-82
-70
-63
-59
-62
-62
-59
-58
-59
-61
-60
-55
-59
-61
-62
-56
-59
-61
-60
-58
-58
-59
-60
-56
-56
-59
-59
-57
-55
-55
-58
-58
-57
-57
-59
-58
-57
-58
-61
-59
-54
-58
-63
-63
-62
-62
-65
-66
-67
-66
-71
-74
-74
-75
-78
-82
-80
-79
-81
-84
-81
-77
-79
-77
-74
-69
-65
-63
-60
-54
-53
-55
-54
-50
-49
-48
-47
-44
-43
-47
-47
-43
-42
-43
-46
-47
-43
-44
-47
-47
-44
-46
-46
-47
-45
-46
-48
-50
-46
-44
-49
-51
-49
-48
-48
-50
-48
-47
-49
-52
-49
-48
-51
-53
-50
-47
-49
-52
-52
-50
-50
-51
-52
-49
-50
-50
-51
-49
-50
-51
-52
-49
-47
-48
-49
-47
-44
-46
-46
-44
-41
-42
-42
-39
-33
-35
-32
-37
-36
-35
-39
-41
-40
-39
-43
-45
-42
-41
-42
-45
-42
-39
-42
-46
-46
-40
-42
-45
-46
-42
-42
-44
-45
-43
-45
-54
-63
-67
-69
-52
-19
13
39
70
97
97
29
-54
-75
-63
-56
-52
-52
-53
-51
-51
-53
-53
-51
-50
-55
-54
-51
-50
-53
-54
-52
-51
-52
-53
-51
-50
-51
-53
-50
-46
-49
-52
-50
-46
-50
-51
-54
-50
-49
-51
-53
-51
-50
-53
-54
-56
-55
-56
-60
-59
-57
-60
-62
-65
-60
-64
-68
-70
-70
-70
-70
-73
-67
-66
-66
-64
-57
-53
-51
-50
-45
-40
-40
-42
-40
-36
-34
-34
-36
-34
-34
-34
-34
-32
-32
-36
-39
-33
-33
-37
-38
-35
-34
-37
-37
-38
-37
-39
-41
-40
-37
-39
-41
-41
-37
-38
-43
-43
-41
-40
-43
-46
-42
-41
-42
-44
-42
-41
-45
-45
-43
-40
-41
-45
-44
-41
-43
-44
-44
-40
-43
-45
-44
-42
-44
-45
-46
-41
-39
-40
-40
-37
-38
-38
-37
-34
-29
-31
-36
-38
-36
-41
-43
-42
-40
-38
-42
-46
-44
-42
-45
-48
-45
-43
-46
-47
-44
-42
-45
-45
-45
-50
-55
-64
-67
-57
-32
-11
4
29
62
87
53
-28
-78
-78
-64
-55
-53
-55
-53
-51
-51
-52
-54
-54
-50
-50
-53
-54
-49
-51
-53
-52
-49
-49
-51
-52
-50
-49
-50
-50
-48
-48
-49
-51
-49
-47
-50
-53
-51
-49
-51
-52
-50
-50
-50
-52
-53
-54
-51
-53
-54
-51
-55
-61
-62
-61
-60
-63
-68
-66
-68
-73
-74
-72
-70
-72
-74
-69
-66
-65
-64
-58
-51
-47
-48
-49
-44
-42
-43
-43
-41
-40
-42
-44
-37
-39
-39
-41
-41
-41
-43
-47
-44
-40
-40
-44
-43
-41
-42
-44
-43
-40
-40
-42
-45
-40
-40
-44
-45
-44
-42
-48
-47
-45
-45
-44
-45
-46
-43
-45
-47
-47
-44
-43
-48
-49
-46
-43
-46
-46
-43
-41
-47
-46
-45
-42
-48
-47
-43
-41
-43
-45
-46
-40
-42
-41
-38
-37
-39
-39
-38
-35
-36
-36
-37
-31
-29
-32
-36
-37
-37
-40
-40
-40
-40
-41
-43
-44
-40
-42
-45
-43
-39
-41
-44
-45
-42
-40
-46
-51
-57
-59
-69
-59
-32
-8
6
23
58
88
76
-12
-77
-75
-57
-53
-49
-47
-48
-46
-45
-45
-44
-46
-46
-44
-42
-44
-45
-44
-41
-43
-46
-41
-42
-41
-45
-42
-39
-40
-46
-43
-37
-39
-43
-44
-40
-42
-42
-42
-41
-40
-43
-44
-43
-44
-47
-48
-47
-47
-49
-53
-53
-54
-56
-59
-59
-59
-63
-68
-68
-68
-68
-74
-74
-70
-68
-67
-66
-61
-56
-53
-49
-44
-41
-41
-40
-37
-31
-33
-37
-35
-30
-30
-32
-35
-34
-32
-33
-35
-32
-30
-33
-34
-32
-29
-33
-34
-35
-32
-33
-35
-36
-32
-35
-36
-36
-32
-33
-36
-36
-34
-36
-39
-40
-38
-36
-38
-40
-39
-38
-40
-41
-38
-37
-38
-40
-39
-37
-37
-41
-40
-39
-40
-41
-41
-38
-38
-40
-42
-40
-39
-38
-39
-35
-34
-33
-34
-32
-28
-30
-30
-27
-23
-27
-34
-37
-33
-34
-36
-38
-37
-37
-41
-41
-40
-39
-41
-43
-40
-40
-40
-44
-43
-40
-42
-47
-53
-56
-64
-72
-61
-30
-3
17
47
79
101
85
1
-64
-75
-62
-61
-55
-50
-54
-55
-55
-52
-53
-54
-54
-54
-52
-53
-53
-50
-50
-52
-52
-49
-50
-52
-56
-50
-49
-51
-53
-51
-51
-50
-53
-50
-50
-53
-56
-53
-50
-52
-54
-56
-53
-54
-56
-59
-57
-58
-60
-61
-60
-62
-66
-69
-66
-67
-70
-74
-72
-72
-75
-77
-77
-72
-74
-78
-78
-74
-75
-76
-74
-70
-68
-67
-65
-58
-57
-56
-53
-51
-47
-47
-46
-44
-42
-43
-46
-44
-41
-43
-45
-46
-40
-40
-42
-44
-41
-42
-43
-42
-42
-40
-44
-45
-44
-42
-42
-47
-46
-44
-44
-47
-47
-46
-46
-48
-48
-44
-46
-49
-50
-47
-48
-48
-51
-47
-48
-51
-54
-52
-49
-52
-53
-50
-50
-49
-51
-50
-47
-48
-53
-53
-49
-48
-53
-52
-51
-49
-49
-48
-43
-41
-45
-47
-41
-38
-37
-39
-36
-35
-41
-45
-45
-43
-46
-49
-50
-51
-51
-50
-53
-50
-50
-52
-53
-51
-49
-52
-54
-54
-52
-49
-52
-50
-51
-55
-66
-69
-72
-73
-58
-30
-9
14
38
67
79
24
-62
-92
-73
-67
-64
-64
-61
-58
-59
-62
-62
-59
-60
-60
-60
-60
-60
-62
-60
-57
-57
-57
-61
-58
-56
-60
-59
-59
-58
-57
-60
-60
-57
-57
-60
-58
-58
-58
-61
-58
-56
-58
-63
-63
-57
-55
-59
-63
-60
-59
-61
-65
-63
-62
-67
-69
-68
-68
-72
-76
-77
-75
-76
-81
-81
-80
-81
-80
-77
-76
-73
-73
-67
-60
-61
-61
-61
-55
-53
-57
-57
-55
-51
-52
-53
-53
-52
-51
-53
-49
-50
-53
-54
-52
-50
-52
-52
-54
-52
-49
-53
-56
-53
-53
-52
-55
-54
-53
-56
-59
-57
-54
-56
-57
-56
-51
-53
-56
-55
-54
-57
-57
-56
-55
-53
-57
-60
-58
-57
-58
-61
-60
-58
-58
-59
-56
-56
-60
-61
-60
-56
-60
-59
-57
-56
-57
-59
-60
-59
-60
-59
-61
-59
-58
-56
-58
-55
-51
-50
-53
-54
-49
-47
-48
-46
-46
-52
-54
-55
-53
-54
-57
-58
-56
-57
-58
-60
-56
-54
-57
-61
-60
-59
-63
-61
-58
-57
-57
-59
-58
-54
-57
-62
-69
-69
-75
-80
-69
-41
-20
-6
19
54
65
21
-65
-97
-84
-74
-72
-65
-65
-65
-67
-64
-64
-62
-65
-64
-60
-61
-64
-66
-62
-61
-61
-64
-61
-59
-60
-63
-61
-58
-60
-61
-58
-59
-58
-61
-62
-58
-58
-59
-60
-59
-58
-59
-60
-58
-57
-61
-64
-60
-58
-62
-62
-64
-64
-65
-69
-68
-67
-69
-70
-73
-74
-74
-77
-78
-78
-80
-82
-82
-76
-75
-74
-72
-65
-64
-56
-55
-53
-48
-46
-47
-47
-45
-45
-43
-45
-41
-43
-44
-43
-40
-38
-44
-44
-42
-40
-40
-45
-41
-40
-41
-43
-42
-42
-42
-44
-43
-42
-43
-45
-45
-42
-41
-46
-44
-41
-43
-45
-46
-40
-42
-45
-47
-42
-40
-43
-45
-43
-41
-41
-44
-41
-41
-43
-45
-45
-41
-43
-47
-46
-43
-41
-42
-45
-41
-42
-38
-36
-35
-32
-34
-39
-37
-34
-35
-34
-32
-29
-28
-28
-31
-31
-33
-37
-36
-36
-37
-39
-38
-37
-38
-39
-41
-40
-40
-39
-42
-42
-40
-39
-43
-42
-42
-44
-52
-55
-61
-69
-68
-44
-11
13
36
63
96
105
46
-44
-72
-70
-58
-53
-49
-48
-48
-51
-51
-51
-50
-51
-49
-46
-48
-49
-50
-45
-48
-49
-50
-47
-47
-47
-48
-46
-45
-46
-48
-46
-45
-47
-50
-48
-47
-47
-50
-52
-48
-49
-49
-53
-52
-53
-53
-56
-55
-53
-57
-60
-59
-59
-61
-65
-64
-64
-66
-69
-70
-69
-71
-72
-73
-70
-68
-69
-67
-62
-57
-56
-56
-50
-46
-44
-43
-39
-38
-38
-38
-37
-36
-37
-38
-35
-30
-33
-36
-37
-34
-33
-36
-36
-33
-34
-35
-37
-34
-32
-33
-37
-36
-37
-34
-35
-34
-32
-33
-38
-35
-33
-34
-37
-38
-36
-36
-37
-37
-35
-35
-38
-38
-36
-35
-36
-38
-35
-34
-35
-36
-38
-36
-36
-39
-36
-34
-34
-37
-34
-30
-29
-30
-29
-26
-25
-26
-29
-26
-21
-22
-23
-18
-15
-17
-25
-26
-24
-25
-26
-27
-27
-27
-30
-31
-28
-28
-32
-31
-27
-26
-30
-33
-30
-27
-29
-32
-33
-32
-43
-47
-50
-55
-62
-63
-54
-32
-6
15
36
64
94
107
61
-20
-57
-54
-46
-40
-35
-39
-41
-38
-37
-37
-40
-37
-35
-36
-40
-37
-34
-35
-36
-37
-35
-35
-34
-36
-33
-33
-36
-37
-34
-32
-34
-39
-36
-35
-35
-37
-37
-36
-39
-41
-40
-38
-39
-42
-41
-41
-41
-46
-48
-46
-45
-47
-52
-52
-52
-54
-59
-57
-56
-58
-62
-60
-57
-55
-57
-56
-51
-45
-46
-42
-37
-35
-35
-33
-27
-26
-28
-31
-26
-24
-25
-28
-25
-24
-23
-25
-25
-21
-23
-26
-26
-25
-24
-26
-25
-22
-21
-23
-26
-26
-26
-28
-29
-25
-24
-27
-27
-27
-26
-27
-30
-29
-27
-28
-33
-34
-31
-29
-32
-32
-28
-29
-26
-28
-27
-26
-29
-28
-27
-26
-29
-30
-30
-28
-30
-31
-31
-28
-26
-28
-25
-22
-22
-23
-24
-20
-20
-19
-19
-13
-16
-21
-23
-23
-23
-24
-27
-27
-26
-25
-28
-30
-27
-26
-30
-31
-28
-27
-29
-29
-28
-30
-31
-33
-33
-38
-43
-54
-53
-32
-7
9
30
38
88
96
46
-32
-71
-64
-50
-44
-40
-41
-44
-41
-39
-41
-41
-37
-38
-41
-42
-38
-38
-40
-41
-40
-38
-36
-40
-40
-37
-38
-41
-37
-36
-34
-39
-39
-39
-38
-39
-40
-35
-36
-38
-40
-38
-36
-36
-41
-39
-38
-38
-42
-41
-40
-41
-44
-45
-43
-45
-50
-50
-50
-52
-56
-59
-56
-55
-59
-61
-59
-59
-57
-54
-51
-49
-46
-42
-40
-37
-34
-38
-33
-31
-30
-33
-34
-30
-28
-31
-33
-29
-29
-29
-32
-29
-30
-31
-36
-34
-31
-31
-35
-34
-35
-34
-37
-34
-30
-30
-33
-35
-31
-33
-34
-36
-35
-33
-34
-36
-34
-33
-34
-36
-31
-30
-35
-37
-36
-34
-33
-37
-36
-34
-32
-37
-40
-37
-36
-37
-37
-34
-35
-36
-40
-37
-34
-37
-38
-32
-31
-28
-30
-31
-32
-33
-33
-30
-28
-26
-29
-28
-26
-29
-34
-36
-34
-34
-37
-38
-36
-37
-38
-41
-39
-38
-39
-41
-38
-38
-38
-40
-39
-38
-39
-47
-52
-57
-56
-41
-16
4
19
42
70
84
33
-48
-77
-60
-53
-43
-46
-47
-43
-43
-45
-45
-41
-42
-45
-44
-42
-41
-42
-44
-40
-39
-38
-40
-38
-37
-39
-41
-38
-36
-36
-40
-40
-35
-37
-37
-38
-35
-36
-38
-40
-37
-37
-39
-40
-35
-35
-38
-41
-40
-39
-42
-47
-46
-48
-49
-51
-52
-51
-54
-56
-61
-60
-60
-64
-65
-65
-64
-66
-65
-60
-56
-56
-54
-47
-41
-41
-42
-37
-34
-32
-34
-34
-31
-29
-32
-33
-30
-31
-33
-31
-28
-30
-35
-34
-29
-29
-31
-34
-32
-30
-31
-34
-31
-30
-32
-36
-33
-30
-32
-35
-33
-30
-29
-34
-35
-33
-30
-32
-34
-32
-30
-31
-31
-30
-28
-31
-33
-30
-28
-28
-32
-31
-28
-29
-32
-30
-28
-28
-30
-29
-27
-24
-26
-27
-23
-20
-19
-20
-18
-15
-15
-16
-13
-12
-18
-21
-20
-19
-21
-24
-25
-21
-21
-24
-26
-25
-25
-26
-27
-22
-23
-24
-28
-24
-24
-27
-33
-37
-37
-46
-39
-10
21
45
66
97
106
57
-22
-47
-39
-33
-32
-34
-30
-29
-33
-35
-33
-31
-32
-33
-32
-33
-31
-33
-31
-28
-30
-32
-33
-29
-29
-31
-31
-30
-28
-30
-32
-31
-30
-32
-32
-32
-29
-32
-34
-33
-30
-31
-35
-35
-33
-31
-35
-37
-36
-39
-42
-43
-42
-43
-47
-49
-48
-47
-49
-51
-51
-49
-51
-54
-51
-51
-50
-50
-49
-43
-40
-40
-39
-32
-30
-30
-28
-23
-26
-25
-27
-21
-20
-21
-27
-24
-21
-22
-25
-25
-23
-22
-23
-24
-22
-21
-25
-21
-21
-20
-23
-25
-24
-22
-25
-25
-24
-23
-24
-28
-25
-22
-25
-27
-26
-25
-22
-25
-26
-23
-23
-25
-24
-24
-23
-23
-25
-21
-21
-25
-26
-23
-23
-22
-24
-22
-20
-19
-19
-18
-15
-17
-18
-15
-10
-11
-12
-9
-9
-12
-16
-18
-15
-14
-18
-21
-19
-19
-18
-21
-19
-18
-19
-22
-20
-21
-18
-20
-21
-19
-20
-21
-22
-23
-28
-36
-42
-41
-25
-5
17
41
69
93
96
53
-15
-43
-38
-32
-30
-27
-30
-31
-29
-30
-31
-30
-29
-27
-31
-32
-28
-29
-29
-30
-28
-27
-29
-29
-28
-26
-28
-32
-29
-27
-29
-29
-29
-27
-26
-30
-33
-29
-29
-31
-33
-31
-28
-33
-34
-33
-33
-35
-37
-37
-34
-38
-41
-41
-39
-42
-44
-46
-44
-47
-49
-52
-49
-49
-50
-50
-44
-42
-42
-42
-37
-32
-31
-34
-32
-29
-28
-28
-28
-27
-24
-26
-24
-24
-24
-27
-27
-25
-24
-26
-27
-25
-25
-29
-30
-27
-25
-26
-29
-27
-23
-25
-31
-29
-28
-27
-31
-30
-28
-29
-33
-33
-28
-26
-30
-31
-32
-30
-31
-35
-32
-32
-32
-35
-32
-31
-31
-34
-33
-32
-29
-31
-32
-28
-31
-34
-32
-28
-30
-32
-32
-32
-30
-29
-30
-25
-25
-25
-27
-27
-24
-25
-28
-23
-21
-21
-24
-28
-27
-27
-28
-30
-29
-30
-33
-32
-31
-30
-37
-37
-32
-32
-33
-36
-34
-33
-34
-37
-37
-36
-40
-44
-45
-49
-55
-58
-51
-32
-14
-4
7
22
44
64
63
25
-29
-56
-55
-46
-40
-40
-42
-40
-40
-35
-41
-39
-39
-38
-41
-39
-38
-37
-38
-40
-39
-37
-38
-39
-39
-37
-36
-40
-38
-35
-38
-41
-39
-38
-37
-36
-37
-36
-37
-39
-39
-34
-34
-38
-38
-36
-35
-39
-39
-39
-37
-41
-44
-44
-43
-44
-49
-49
-48
-49
-51
-54
-52
-53
-58
-59
-56
-57
-56
-55
-52
-49
-46
-48
-43
-42
-44
-43
-37
-34
-35
-37
-34
-34
-33
-35
-35
-30
-32
-32
-33
-31
-32
-34
-36
-35
-34
-35
-34
-34
-32
-32
-36
-36
-34
-37
-41
-37
-36
-37
-39
-39
-37
-38
-39
-39
-38
-37
-39
-43
-41
-38
-42
-42
-42
-41
-41
-44
-41
-38
-40
-44
-42
-40
-41
-41
-43
-40
-40
-42
-42
-41
-40
-43
-46
-42
-40
-41
-45
-43
-40
-42
-42
-39
-35
-37
-39
-39
-37
-36
-36
-38
-35
-34
-37
-36
-30
-28
-33
-33
-35
-35
-36
-40
-38
-36
-41
-43
-40
-36
-39
-43
-42
-41
-39
-41
-40
-41
-39
-41
-41
-38
-41
-49
-54
-55
-56
-48
-27
-9
3
16
35
57
74
56
-3
-56
-67
-60
-57
-54
-49
-49
-50
-50
-48
-49
-50
-51
-50
-48
-48
-49
-48
-46
-48
-46
-48
-44
-48
-48
-46
-45
-45
-45
-45
-42
-42
-44
-47
-42
-44
-46
-46
-43
-41
-44
-46
-47
-42
-45
-47
-45
-42
-46
-50
-51
-50
-50
-53
-57
-54
-53
-58
-62
-62
-62
-65
-68
-65
-64
-67
-69
-65
-62
-62
-62
-57
-51
-50
-53
-47
-46
-42
-43
-43
-35
-36
-37
-39
-37
-35
-37
-39
-37
-33
-36
-37
-39
-35
-37
-38
-37
-33
-37
-38
-38
-38
-36
-37
-40
-38
-37
-38
-39
-39
-38
-40
-43
-38
-38
-39
-42
-41
-39
-40
-42
-40
-36
-40
-42
-43
-41
-39
-40
-41
-40
-39
-42
-44
-41
-40
-42
-42
-38
-38
-39
-39
-36
-35
-34
-37
-33
-29
-31
-33
-29
-27
-26
-31
-35
-32
-32
-35
-37
-36
-35
-39
-40
-37
-36
-39
-42
-39
-37
-39
-40
-41
-38
-40
-40
-40
-38
-41
-49
-53
-54
-59
-57
-37
-10
12
33
60
88
100
69
2
-57
-77
-83
-76
-65
-57
-54
-52
-52
-51
-47
-52
-51
-50
-49
-50
-50
-47
-48
-51
-50
-47
-45
-51
-50
-49
-46
-47
-50
-50
-48
-48
-49
-49
-48
-51
-51
-50
-49
-49
-51
-52
-49
-48
-51
-55
-55
-53
-53
-57
-54
-56
-57
-59
-61
-59
-60
-64
-64
-62
-64
-66
-66
-64
-66
-68
-68
-64
-62
-65
-64
-59
-54
-54
-53
-47
-45
-45
-43
-43
-38
-42
-44
-43
-43
-41
-40
-43
-40
-41
-42
-43
-40
-40
-40
-42
-39
-38
-41
-42
-40
-37
-40
-43
-43
-41
-44
-45
-45
-44
-42
-44
-47
-45
-46
-46
-45
-46
-45
-45
-48
-46
-46
-48
-50
-48
-44
-48
-49
-51
-45
-49
-52
-54
-53
-49
-47
-47
-41
-40
-42
-42
-41
-40
-38
-39
-36
-31
-36
-42
-41
-37
-37
-43
-41
-40
-40
-40
-41
-42
-40
-43
-45
-42
-40
-42
-45
-42
-40
-41
-43
-41
-43
-48
-55
-59
-57
-46
-22
4
22
40
61
72
70
-35
-67
-59
-51
-46
-46
-44
-43
-42
-42
-44
-42
-39
-41
-45
-43
-36
-34
-36
-37
-36
-38
-42
-41
-40
-37
-42
-42
-36
-36
-39
-42
-40
-40
-42
-44
-43
-40
-40
-43
-40
-40
-40
-47
-43
-41
-42
-43
-43
-42
-44
-48
-47
-45
-46
-51
-54
-53
-53
-54
-58
-59
-58
-59
-60
-59
-56
-57
-56
-55
-49
-46
-45
-42
-41
-36
-36
-35
-29
-27
-26
-28
-26
-25
-27
-28
-26
-25
-27
-29
-29
-26
-25
-30
-29
-28
-28
-32
-31
-30
-30
-32
-32
-30
-30
-35
-34
-34
-33
-33
-36
-36
-34
-37
-38
-36
-34
-35
-39
-37
-36
-35
-38
-38
-36
-34
-36
-38
-35
-35
-37
-39
-39
-38
-40
-40
-38
-35
-35
-38
-38
-36
-37
-36
-35
-35
-32
-32
-32
-30
-34
-38
-39
-37
-38
-41
-42
-40
-38
-40
-42
-40
-40
-41
-43
-42
-40
-41
-43
-43
-45
-53
-60
-62
-60
-27
1
22
47
73
84
58
-20
-72
-68
-60
-53
-50
-48
-53
-54
-52
-51
-53
-54
-52
-51
-56
-54
-53
-53
-54
-54
-50
-52
-53
-53
-51
-49
-53
-54
-52
-51
-51
-53
-52
-50
-53
-54
-55
-51
-53
-55
-54
-54
-52
-54
-55
-54
-56
-59
-61
-59
-59
-62
-65
-65
-63
-65
-71
-71
-71
-73
-76
-75
-72
-75
-75
-74
-72
-67
-66
-63
-56
-53
-50
-48
-45
-43
-40
-42
-39
-36
-36
-39
-38
-35
-35
-38
-38
-34
-36
-38
-36
-35
-35
-37
-40
-35
-34
-37
-39
-36
-34
-37
-39
-38
-38
-37
-39
-41
-38
-41
-42
-41
-39
-41
-43
-43
-42
-39
-40
-45
-43
-41
-43
-46
-42
-40
-43
-45
-42
-39
-41
-40
-37
-34
-34
-35
-34
-29
-28
-28
-29
-29
-31
-35
-36
-34
-34
-37
-38
-36
-34
-35
-38
-38
-36
-36
-39
-40
-35
-36
-37
-37
-37
-43
-50
-57
-58
-44
-16
17
45
75
104
110
46
-38
-62
-52
-47
-44
-44
-45
-45
-44
-45
-48
-46
-42
-44
-46
-46
-45
-44
-46
-46
-44
-42
-45
-48
-45
-43
-44
-44
-42
-42
-43
-44
-44
-43
-44
-45
-47
-45
-45
-48
-47
-46
-46
-49
-50
-50
-49
-50
-53
-53
-54
-56
-59
-61
-58
-63
-65
-67
-66
-66
-69
-70
-67
-64
-65
-63
-62
-54
-53
-49
-44
-41
-41
-40
-34
-32
-34
-36
-33
-30
-33
-34
-34
-33
-33
-34
-34
-31
-33
-36
-34
-33
-31
-34
-35
-32
-33
-36
-34
-34
-35
-36
-39
-38
-35
-36
-40
-40
-37
-39
-42
-40
-39
-43
-44
-40
-38
-40
-42
-42
-37
-37
-40
-47
-43
-41
-43
-42
-40
-39
-40
-38
-36
-32
-35
-39
-37
-32
-30
-32
-26
-25
-30
-34
-37
-35
-34
-38
-41
-39
-38
-41
-44
-43
-40
-38
-42
-42
-40
-42
-44
-42
-40
-39
-45
-49
-48
-51
-55
-58
-64
-55
-31
-2
21
42
74
79
25
-53
-81
-70
-59
-54
-53
-54
-56
-52
-51
-54
-53
-52
-53
-55
-56
-53
-51
-50
-52
-50
-49
-51
-54
-54
-52
-52
-52
-49
-49
-49
-53
-53
-53
-51
-54
-54
-54
-53
-54
-56
-57
-56
-54
-58
-56
-54
-58
-61
-58
-59
-61
-65
-66
-67
-72
-77
-76
-75
-76
-80
-82
-80
-74
-75
-80
-72
-69
-66
-63
-57
-54
-52
-51
-48
-45
-46
-47
-45
-40
-40
-42
-42
-41
-40
-39
-41
-42
-36
-38
-42
-38
-43
-43
-46
-44
-42
-42
-44
-44
-42
-45
-46
-44
-43
-42
-45
-43
-43
-47
-50
-50
-49
-44
-46
-48
-49
-47
-47
-49
-48
-47
-47
-50
-51
-47
-46
-48
-46
-46
-46
-47
-46
-45
-45
-46
-44
-43
-39
-43
-43
-39
-36
-36
-36
-32
-31
-36
-39
-39
-38
-40
-43
-43
-41
-40
-42
-42
-40
-41
-44
-41
-39
-39
-44
-44
-42
-40
-40
-45
-47
-51
-52
-56
-44
-21
7
29
48
72
86
64
2
-53
-74
-74
-64
-60
-52
-51
-55
-52
-50
-50
-53
-51
-49
-49
-52
-49
-48
-47
-49
-48
-46
-48
-46
-47
-45
-45
-47
-49
-50
-44
-46
-47
-46
-44
-47
-50
-47
-46
-47
-49
-51
-49
-49
-52
-55
-52
-52
-57
-58
-57
-59
-62
-63
-64
-66
-69
-75
-73
-73
-77
-81
-78
-78
-79
-81
-77
-73
-71
-72
-64
-59
-55
-55
-51
-45
-43
-43
-39
-38
-34
-35
-36
-32
-30
-33
-37
-34
-31
-30
-32
-34
-32
-30
-34
-36
-34
-32
-34
-34
-29
-29
-32
-35
-34
-31
-35
-35
-35
-32
-36
-39
-35
-34
-38
-40
-38
-36
-38
-40
-41
-40
-38
-40
-41
-39
-41
-41
-41
-40
-35
-37
-37
-32
-32
-33
-35
-32
-29
-29
-27
-24
-25
-26
-31
-32
-30
-30
-33
-34
-33
-33
-36
-35
-33
-30
-34
-35
-33
-32
-32
-36
-35
-33
-33
-35
-34
-34
-39
-45
-48
-47
-37
-20
8
28
48
67
88
96
96
43
-15
-34
-39
-38
-40
-38
-37
-39
-42
-41
-40
-39
-45
-44
-41
-41
-43
-44
-42
-41
-43
-44
-43
-42
-42
-44
-41
-39
-41
-43
-41
-38
-42
-44
-45
-43
-42
-45
-45
-42
-43
-46
-46
-44
-46
-51
-51
-50
-50
-50
-54
-52
-50
-53
-55
-55
-57
-58
-61
-64
-61
-66
-70
-69
-67
-69
-72
-71
-69
-66
-66
-64
-62
-55
-52
-50
-44
-40
-38
-37
-34
-31
-32
-33
-31
-29
-28
-32
-31
-31
-30
-32
-33
-31
-32
-33
-35
-34
-30
-34
-35
-35
-32
-35
-39
-37
-37
-37
-39
-39
-36
-37
-39
-39
-40
-40
-40
-42
-39
-41
-42
-44
-43
-39
-45
-46
-44
-42
-43
-47
-43
-42
-41
-43
-40
-39
-36
-40
-38
-35
-34
-35
-33
-29
-28
-37
-38
-38
-36
-37
-40
-38
-36
-39
-40
-41
-40
-40
-42
-41
-38
-40
-42
-41
-40
-39
-39
-40
-40
-38
-40
-46
-47
-51
-56
-50
-23
7
30
53
84
103
82
15
-41
-46
-45
-46
-46
-43
-44
-45
-48
-46
-45
-48
-50
-49
-44
-46
-49
-45
-43
-45
-48
-45
-42
-42
-44
-43
-42
-44
-46
-46
-44
-43
-44
-45
-43
-44
-46
-45
-43
-44
-47
-47
-47
-46
-48
-51
-50
-49
-53
-55
-56
-56
-57
-62
-61
-60
-62
-65
-68
-66
-64
-67
-68
-65
-63
-62
-62
-57
-55
-54
-55
-50
-47
-46
-46
-42
-39
-38
-39
-40
-35
-35
-36
-37
-35
-34
-36
-35
-36
-36
-35
-38
-34
-34
-37
-39
-37
-35
-35
-39
-40
-37
-36
-41
-41
-39
-39
-42
-42
-40
-40
-44
-45
-43
-44
-44
-48
-46
-47
-46
-48
-48
-46
-50
-53
-49
-45
-46
-46
-49
-44
-44
-45
-44
-39
-37
-41
-42
-41
-37
-37
-39
-33
-30
-34
-38
-38
-38
-40
-43
-43
-40
-41
-44
-42
-42
-41
-46
-47
-44
-45
-47
-48
-47
-48
-48
-48
-47
-47
-52
-61
-60
-63
-71
-74
-55
-31
-8
8
29
55
65
24
-47
-76
-70
-62
-61
-59
-57
-58
-60
-55
-54
-55
-58
-56
-57
-55
-57
-59
-57
-60
-61
-63
-60
-60
-63
-60
-58
-57
-58
-60
-61
-57
-57
-59
-59
-61
-63
-69
-63
-62
-61
-64
-65
-63
-63
-66
-63
-62
-65
-69
-70
-67
-65
-72
-76
-78
-78
-80
-87
-82
-81
-84
-88
-85
-83
-81
-84
-84
-80
-77
-77
-70
-66
-64
-63
-62
-59
-57
-59
-58
-55
-54
-53
-58
-53
-53
-52
-55
-52
-50
-53
-55
-52
-49
-54
-54
-54
-53
-50
-56
-59
-56
-56
-59
-59
-58
-52
-51
-57
-55
-56
-60
-61
-61
-60
-59
-61
-61
-58
-60
-63
-61
-60
-60
-65
-64
-59
-60
-59
-64
-67
-62
-64
-66
-67
-65
-63
-61
-60
-57
-59
-61
-59
-58
-54
-57
-57
-54
-53
-53
-53
-47
-50
-57
-57
-56
-52
-57
-60
-57
-57
-58
-58
-60
-61
-61
-58
-56
-57
-57
-60
-62
-57
-55
-60
-65
-68
-70
-76
-76
-74
-33
-11
-3
10
26
40
57
76
64
-3
-74
-93
-79
-71
-70
-66
-64
-61
-63
-65
-60
-61
-61
-61
-61
-57
-60
-61
-58
-61
-61
-65
-60
-58
-57
-60
-60
-58
-56
-60
-57
-59
-58
-61
-61
-59
-58
-60
-65
-65
-59
-60
-64
-60
-61
-63
-67
-67
-66
-68
-72
-73
-73
-78
-83
-83
-83
-83
-86
-88
-86
-83
-84
-83
-81
-71
-68
-65
-59
-55
-55
-57
-50
-46
-46
-48
-47
-45
-45
-46
-46
-45
-44
-45
-47
-44
-41
-44
-46
-45
-44
-46
-45
-48
-47
-48
-52
-49
-48
-50
-53
-52
-48
-49
-53
-53
-52
-52
-53
-54
-53
-52
-52
-54
-52
-53
-54
-58
-57
-54
-52
-58
-56
-54
-54
-55
-55
-52
-50
-51
-50
-48
-48
-49
-49
-47
-43
-41
-41
-40
-43
-46
-48
-46
-47
-49
-54
-50
-49
-48
-52
-53
-52
-50
-53
-54
-52
-50
-54
-52
-51
-53
-62
-70
-71
-78
-80
-72
-44
-18
3
16
41
70
94
102
60
-22
-73
-67
-61
-59
-57
-60
-61
-57
-58
-60
-59
-59
-56
-60
-63
-58
-56
-57
-59
-58
-56
-54
-56
-56
-57
-53
-57
-56
-55
-53
-56
-57
-52
-52
-56
-59
-58
-54
-56
-57
-57
-57
-57
-62
-61
-59
-62
-62
-65
-63
-66
-68
-72
-70
-71
-76
-77
-75
-75
-78
-79
-76
-71
-70
-70
-63
-57
-55
-55
-52
-48
-45
-47
-44
-42
-43
-44
-44
-41
-41
-44
-44
-41
-41
-44
-46
-45
-41
-43
-47
-45
-45
-43
-47
-46
-44
-45
-48
-49
-46
-45
-48
-51
-49
-48
-48
-50
-48
-49
-50
-50
-51
-47
-53
-53
-51
-48
-51
-52
-48
-47
-44
-48
-48
-43
-42
-42
-42
-37
-36
-41
-45
-45
-44
-46
-47
-46
-46
-46
-49
-50
-47
-48
-52
-53
-52
-49
-49
-48
-45
-47
-51
-50
-49
-51
-59
-67
-70
-54
-23
4
13
60
86
78
10
-61
-71
-63
-58
-55
-55
-58
-56
-51
-53
-60
-59
-55
-52
-55
-60
-57
-53
-55
-60
-58
-56
-58
-60
-58
-52
-56
-61
-59
-58
-57
-59
-59
-55
-58
-62
-62
-60
-58
-58
-61
-62
-60
-65
-67
-69
-66
-68
-73
-73
-72
-73
-74
-76
-77
-83
-83
-81
-80
-82
-87
-85
-81
-78
-75
-72
-67
-70
-71
-69
-67
-61
-60
-58
-56
-53
-54
-56
-53
-51
-54
-57
-55
-52
-53
-58
-57
-54
-53
-53
-54
-54
-54
-55
-58
-60
-60
-60
-62
-61
-59
-61
-65
-61
-58
-60
-63
-62
-61
-61
-64
-69
-66
-66
-68
-67
-59
-60
-65
-67
-66
-63
-64
-66
-64
-63
-63
-63
-61
-59
-57
-56
-52
-51
-51
-58
-62
-62
-60
-62
-65
-63
-62
-65
-67
-66
-64
-66
-68
-67
-63
-64
-67
-67
-67
-71
-73
-75
-78
-84
-87
-74
-37
-11
3
23
52
72
50
-32
-62
-102
-89
-84
-80
-74
-77
-75
-73
-72
-73
-75
-75
-73
-73
-75
-77
-76
-73
-75
-74
-73
-68
-72
-76
-78
-73
-73
-76
-70
-68
-71
-73
-74
-70
-71
-73
-72
-71
-71
-74
-74
-72
-71
-77
-77
-73
-75
-80
-83
-84
-78
-84
-87
-88
-86
-88
-94
-95
-93
-96
-97
-93
-89
-86
-88
-85
-79
-76
-76
-73
-69
-64
-64
-62
-63
-55
-54
-56
-52
-48
-49
-51
-52
-49
-47
-51
-50
-50
-50
-52
-50
-48
-48
-52
-52
-50
-49
-50
-52
-53
-53
-53
-54
-54
-52
-54
-56
-55
-54
-55
-58
-59
-55
-56
-59
-61
-60
-59
-60
-61
-59
-59
-60
-60
-59
-55
-56
-59
-55
-51
-52
-55
-54
-50
-50
-53
-51
-45
-45
-49
-53
-52
-50
-53
-57
-55
-54
-56
-57
-58
-55
-57
-58
-57
-54
-56
-60
-57
-55
-58
-63
-70
-72
-77
-63
-31
5
24
43
71
101
117
69
-32
-62
-68
-62
-63
-61
-62
-62
-66
-66
-63
-64
-63
-63
-62
-63
-63
-63
-62
-60
-63
-63
-63
-61
-63
-64
-65
-61
-65
-62
-62
-60
-63
-62
-63
-59
-62
-64
-66
-64
-64
-66
-68
-69
-67
-71
-73
-70
-74
-76
-79
-80
-77
-79
-82
-82
-82
-84
-85
-85
-85
-84
-85
-84
-77
-74
-74
-70
-65
-59
-58
-56
-53
-50
-47
-50
-50
-45
-46
-47
-44
-42
-44
-45
-46
-45
-42
-44
-43
-42
-45
-44
-45
-43
-43
-46
-47
-47
-45
-48
-50
-49
-47
-49
-51
-49
-47
-49
-54
-52
-50
-52
-52
-55
-53
-53
-55
-56
-54
-54
-57
-58
-55
-53
-55
-54
-53
-50
-50
-49
-51
-48
-48
-48
-44
-41
-37
-40
-46
-44
-44
-47
-47
-48
-46
-48
-51
-48
-46
-49
-50
-51
-48
-47
-50
-48
-46
-48
-53
-50
-46
-45
-49
-50
-53
-61
-67
-71
-54
-21
12
42
73
105
119
81
60
-55
-64
-63
-59
-55
-56
-60
-61
-57
-59
-61
-61
-58
-58
-60
-61
-60
-60
-59
-61
-59
-59
-60
-60
-61
-57
-59
-61
-59
-56
-57
-61
-61
-58
-60
-61
-62
-60
-59
-60
-62
-59
-61
-63
-64
-63
-62
-66
-66
-67
-65
-70
-73
-72
-70
-72
-76
-77
-77
-78
-78
-80
-79
-76
-78
-77
-74
-68
-65
-66
-60
-55
-55
-54
-52
-47
-47
-48
-46
-43
-44
-45
-43
-41
-42
-43
-43
-42
-39
-42
-45
-41
-40
-43
-42
-42
-40
-41
-43
-44
-41
-43
-44
-42
-42
-41
-46
-46
-43
-45
-47
-48
-45
-45
-48
-47
-48
-46
-47
-51
-47
-46
-50
-51
-52
-46
-44
-48
-47
-42
-40
-44
-41
-40
-40
-40
-39
-34
-30
-32
-34
-35
-37
-39
-41
-38
-38
-41
-45
-46
-41
-43
-46
-45
-43
-45
-45
-45
-43
-43
-45
-44
-42
-42
-43
-51
-51
-56
-65
-67
-52
-21
4
23
30
79
104
94
29
-45
-68
-63
-61
-55
-52
-51
-52
-50
-50
-52
-53
-50
-52
-52
-54
-50
-50
-50
-54
-53
-47
-49
-51
-51
-47
-48
-49
-49
-47
-48
-50
-52
-48
-46
-49
-51
-50
-47
-49
-50
-50
-50
-51
-54
-55
-54
-53
-55
-58
-54
-55
-59
-59
-56
-58
-61
-65
-61
-61
-65
-71
-68
-66
-69
-71
-71
-71
-71
-74
-73
-67
-67
-65
-62
-55
-54
-53
-53
-49
-46
-43
-48
-47
-43
-45
-44
-43
-42
-46
-49
-48
-47
-48
-48
-48
-47
-47
-48
-47
-45
-46
-50
-50
-49
-51
-50
-49
-49
-51
-55
-53
-51
-50
-55
-57
-54
-53
-54
-56
-55
-55
-60
-58
-59
-57
-61
-63
-60
-59
-58
-57
-56
-53
-56
-54
-54
-51
-54
-55
-55
-51
-44
-44
-49
-51
-49
-51
-57
-59
-60
-58
-59
-61
-58
-59
-58
-60
-60
-60
-61
-63
-60
-57
-56
-57
-52
-58
-63
-62
-60
-64
-71
-77
-74
-47
-12
6
24
56
80
68
-14
-86
-94
-84
-81
-73
-69
-69
-69
-68
-66
-70
-72
-71
-66
-68
-69
-68
-64
-65
-71
-71
-66
-64
-69
-71
-67
-63
-64
-66
-68
-69
-72
-75
-69
-66
-67
-69
-70
-68
-70
-72
-69
-69
-72
-73
-72
-71
-70
-75
-77
-75
-77
-81
-85
-82
-80
-86
-89
-86
-86
-91
-95
-96
-95
-97
-99
-98
-93
-91
-91
-87
-81
-77
-75
-70
-64
-61
-61
-60
-53
-51
-51
-52
-48
-46
-47
-49
-49
-45
-46
-46
-46
-42
-45
-49
-49
-44
-43
-48
-46
-46
-43
-47
-48
-46
-44
-45
-48
-49
-48
-49
-51
-51
-48
-49
-53
-51
-50
-51
-53
-50
-49
-50
-52
-52
-49
-47
-50
-51
-49
-48
-48
-49
-44
-44
-44
-47
-47
-43
-41
-42
-41
-36
-35
-41
-43
-44
-43
-46
-49
-46
-48
-50
-51
-51
-49
-48
-50
-50
-48
-49
-51
-52
-47
-50
-55
-60
-64
-70
-77
-70
-46
-14
10
37
62
89
103
74
-10
-72
-76
-68
-62
-61
-62
-66
-65
-61
-61
-63
-64
-60
-59
-62
-62
-60
-60
-61
-62
-59
-58
-59
-62
-58
-56
-58
-58
-58
-57
-58
-62
-62
-60
-60
-63
-64
-59
-62
-63
-64
-63
-61
-66
-66
-66
-68
-70
-71
-71
-69
-73
-77
-77
-76
-80
-81
-83
-84
-83
-86
-86
-80
-79
-80
-76
-70
-65
-63
-61
-55
-50
-49
-47
-45
-42
-41
-41
-39
-39
-39
-42
-43
-39
-39
-39
-41
-37
-39
-40
-40
-38
-38
-39
-41
-38
-39
-40
-43
-39
-38
-40
-41
-42
-40
-42
-45
-44
-41
-42
-45
-46
-42
-44
-47
-46
-44
-43
-45
-46
-43
-42
-43
-43
-39
-37
-37
-40
-35
-34
-31
-32
-31
-31
-33
-37
-36
-37
-37
-39
-41
-38
-37
-39
-42
-40
-38
-42
-40
-41
-38
-38
-39
-39
-37
-36
-42
-43
-44
-49
-52
-55
-52
-32
-4
25
57
84
104
89
29
-31
-48
-48
-46
-44
-46
-47
-46
-45
-46
-49
-48
-47
-47
-50
-49
-44
-46
-50
-49
-47
-46
-46
-48
-46
-44
-47
-47
-45
-45
-46
-48
-47
-44
-45
-49
-50
-49
-49
-52
-51
-51
-50
-55
-55
-55
-55
-58
-61
-62
-59
-64
-66
-67
-65
-69
-71
-69
-69
-72
-75
-74
-70
-71
-71
-68
-62
-60
-58
-53
-48
-47
-45
-42
-37
-36
-35
-38
-36
-34
-34
-34
-34
-31
-32
-34
-35
-32
-32
-35
-35
-33
-36
-37
-39
-35
-34
-36
-37
-36
-36
-37
-40
-36
-37
-37
-43
-40
-38
-38
-41
-42
-40
-39
-42
-43
-40
-41
-43
-41
-39
-39
-40
-41
-37
-33
-34
-34
-34
-31
-32
-33
-30
-26
-23
-25
-26
-27
-29
-31
-34
-33
-33
-38
-36
-35
-33
-35
-38
-36
-35
-37
-38
-37
-36
-34
-36
-35
-35
-40
-46
-49
-56
-47
-27
0
26
49
74
97
108
73
3
-54
-68
-61
-55
-56
-48
-45
-44
-47
-48
-47
-46
-49
-50
-45
-44
-49
-47
-46
-48
-49
-49
-46
-44
-48
-48
-47
-45
-48
-51
-48
-47
-50
-53
-51
-47
-50
-52
-52
-47
-49
-53
-54
-53
-54
-57
-59
-58
-57
-58
-59
-61
-64
-64
-65
-64
-61
-63
-66
-66
-66
-71
-72
-72
-67
-67
-67
-67
-60
-57
-59
-58
-53
-48
-45
-47
-45
-45
-43
-44
-43
-40
-41
-42
-44
-39
-41
-43
-44
-43
-42
-43
-44
-42
-42
-44
-46
-44
-43
-46
-48
-42
-41
-45
-47
-46
-44
-46
-50
-50
-50
-51
-54
-55
-48
-48
-52
-55
-51
-53
-54
-53
-50
-51
-52
-51
-49
-48
-46
-46
-45
-44
-45
-45
-42
-36
-39
-46
-48
-47
-47
-45
-46
-45
-47
-51
-52
-50
-48
-49
-53
-53
-48
-48
-50
-49
-46
-43
-47
-50
-58
-62
-65
-68
-64
-43
-14
11
33
59
81
57
-17
-73
-78
-66
-57
-55
-56
-58
-57
-55
-53
-56
-54
-51
-52
-57
-56
-54
-52
-55
-57
-55
-53
-54
-55
-56
-54
-55
-55
-53
-53
-56
-60
-57
-53
-53
-54
-57
-56
-55
-58
-60
-54
-53
-55
-58
-56
-59
-62
-63
-63
-65
-67
-70
-69
-70
-74
-79
-78
-76
-78
-81
-79
-72
-72
-72
-71
-62
-56
-57
-52
-46
-42
-43
-39
-37
-32
-35
-36
-34
-34
-32
-33
-31
-30
-30
-33
-31
-27
-29
-32
-32
-31
-29
-31
-33
-29
-30
-31
-34
-34
-32
-34
-36
-33
-35
-38
-40
-40
-37
-37
-41
-40
-37
-37
-42
-43
-41
-41
-42
-40
-37
-38
-42
-42
-40
-35
-37
-39
-36
-32
-33
-35
-33
-32
-29
-29
-23
-25
-31
-35
-35
-32
-33
-37
-38
-34
-34
-38
-40
-39
-37
-40
-40
-39
-35
-37
-38
-37
-44
-53
-58
-64
-67
-68
-58
-52
6
37
63
98
130
121
35
-45
-54
-44
-46
-44
-44
-42
-44
-48
-46
-45
-46
-47
-47
-44
-45
-46
-47
-44
-42
-47
-46
-42
-41
-44
-46
-44
-41
-42
-42
-44
-41
-41
-42
-42
-41
-44
-47
-45
-45
-45
-49
-50
-49
-48
-51
-54
-51
-55
-56
-60
-59
-60
-65
-67
-64
-62
-63
-67
-61
-56
-53
-54
-48
-40
-38
-38
-37
-30
-29
-27
-29
-25
-24
-27
-26
-22
-21
-24
-28
-24
-23
-25
-26
-23
-22
-24
-29
-26
-25
-25
-27
-27
-27
-26
-27
-29
-26
-28
-31
-31
-31
-26
-29
-33
-30
-27
-31
-37
-34
-33
-30
-33
-35
-32
-32
-34
-33
-31
-29
-32
-30
-26
-24
-26
-27
-25
-24
-26
-22
-19
-15
-17
-18
-20
-19
-20
-25
-26
-23
-23
-26
-27
-24
-25
-26
-28
-25
-25
-28
-29
-25
-22
-26
-27
-29
-33
-42
-51
-47
-30
-2
15
29
41
58
75
82
124
120
53
-23
-45
-37
-37
-35
-32
-33
-36
-37
-35
-33
-35
-37
-37
-36
-35
-39
-38
-36
-38
-38
-39
-34
-35
-38
-37
-36
-35
-37
-39
-38
-36
-38
-40
-37
-35
-39
-42
-39
-37
-39
-42
-42
-40
-40
-43
-45
-42
-44
-45
-48
-46
-49
-53
-55
-53
-50
-55
-56
-54
-53
-54
-55
-52
-47
-46
-46
-40
-35
-33
-32
-33
-26
-27
-26
-28
-25
-24
-29
-28
-23
-23
-24
-25
-23
-22
-24
-26
-24
-20
-22
-26
-25
-24
-22
-27
-27
-26
-24
-24
-27
-28
-28
-29
-30
-28
-26
-30
-32
-30
-28
-30
-34
-34
-32
-29
-33
-34
-31
-34
-34
-35
-31
-31
-35
-35
-33
-30
-33
-33
-29
-27
-30
-30
-25
-26
-25
-29
-25
-21
-18
-20
-16
-17
-19
-25
-26
-24
-22
-28
-28
-26
-28
-28
-31
-30
-27
-31
-32
-31
-27
-31
-36
-32
-29
-29
-30
-30
-26
-29
-35
-37
-42
-48
-51
-37
-9
17
37
60
87
97
66
-4
-48
-48
-43
-41
-40
-36
-38
-43
-42
-40
-37
-43
-42
-40
-38
-40
-40
-36
-37
-39
-42
-39
-37
-39
-42
-39
-38
-40
-41
-39
-40
-40
-42
-40
-39
-38
-43
-44
-41
-40
-40
-43
-43
-43
-45
-45
-41
-42
-46
-47
-48
-47
-48
-52
-51
-51
-52
-56
-56
-53
-55
-57
-59
-53
-53
-54
-53
-48
-44
-43
-42
-39
-37
-35
-35
-30
-31
-31
-32
-29
-27
-28
-30
-27
-28
-28
-29
-31
-29
-28
-29
-33
-29
-29
-32
-36
-33
-30
-32
-34
-31
-32
-33
-40
-37
-34
-34
-39
-37
-36
-37
-40
-42
-41
-41
-44
-44
-41
-40
-43
-46
-42
-43
-42
-45
-45
-44
-43
-44
-42
-41
-43
-48
-46
-42
-42
-41
-41
-39
-39
-43
-41
-36
-34
-34
-33
-32
-32
-39
-42
-41
-38
-40
-45
-44
-41
-43
-45
-46
-41
-41
-46
-49
-47
-45
-47
-49
-48
-44
-46
-46
-45
-41
-45
-52
-58
-59
-66
-65
-43
-17
1
16
39
63
73
28
7
-73
-71
-67
-63
-59
-56
-62
-60
-58
-55
-54
-59
-55
-54
-57
-57
-58
-54
-52
-57
-59
-57
-57
-61
-61
-55
-56
-57
-58
-53
-57
-58
-60
-55
-55
-54
-57
-56
-54
-58
-61
-59
-56
-57
-60
-61
-62
-59
-63
-65
-63
-63
-65
-66
-65
-67
-70
-71
-71
-70
-73
-77
-77
-75
-76
-81
-78
-75
-73
-72
-68
-63
-58
-57
-55
-48
-47
-46
-45
-42
-40
-40
-40
-39
-36
-38
-37
-37
-32
-34
-39
-37
-33
-33
-36
-36
-33
-33
-38
-40
-35
-35
-36
-38
-39
-37
-41
-40
-39
-37
-39
-44
-43
-37
-40
-44
-45
-42
-41
-44
-45
-41
-43
-43
-43
-41
-40
-46
-43
-42
-41
-42
-45
-45
-42
-41
-46
-44
-42
-38
-42
-40
-36
-37
-39
-38
-34
-34
-36
-38
-29
-31
-36
-38
-36
-37
-38
-42
-40
-40
-42
-43
-41
-41
-40
-44
-43
-41
-42
-45
-44
-42
-41
-44
-45
-42
-45
-53
-60
-62
-58
-42
-13
18
43
66
91
104
66
-16
-68
-65
-59
-56
-55
-52
-52
-54
-56
-58
-51
-52
-53
-55
-54
-51
-53
-57
-54
-50
-52
-55
-53
-51
-51
-55
-53
-51
-50
-53
-53
-51
-52
-54
-55
-49
-50
-53
-54
-52
-50
-51
-54
-53
-52
-53
-57
-55
-54
-57
-60
-62
-59
-59
-64
-63
-64
-63
-67
-69
-65
-64
-68
-70
-69
-67
-71
-71
-68
-67
-66
-66
-59
-53
-53
-51
-47
-42
-40
-41
-39
-34
-32
-33
-36
-31
-30
-32
-32
-29
-27
-30
-31
-30
-27
-28
-31
-28
-27
-27
-30
-30
-28
-30
-32
-34
-30
-33
-34
-35
-34
-34
-34
-36
-37
-36
-40
-40
-38
-34
-36
-39
-38
-35
-37
-40
-40
-37
-38
-40
-39
-38
-39
-39
-40
-36
-31
-33
-35
-33
-31
-30
-31
-26
-24
-24
-29
-29
-27
-31
-35
-33
-32
-32
-35
-36
-34
-34
-35
-37
-34
-33
-35
-37
-35
-34
-36
-38
-37
-38
-45
-49
-52
-56
-56
-41
-11
19
43
67
93
94
37
-33
-47
-46
-43
-44
-46
-44
-44
-46
-46
-45
-43
-46
-49
-47
-44
-45
-47
-48
-45
-45
-47
-47
-46
-43
-46
-45
-45
-44
-46
-49
-46
-45
-45
-48
-47
-45
-46
-49
-47
-46
-48
-50
-49
-48
-50
-52
-55
-51
-50
-56
-57
-54
-55
-59
-61
-58
-58
-62
-63
-60
-58
-58
-60
-57
-52
-51
-49
-46
-42
-42
-38
-37
-32
-33
-34
-35
-29
-26
-31
-31
-30
-27
-30
-32
-28
-29
-32
-33
-30
-27
-28
-30
-31
-28
-28
-30
-29
-28
-29
-31
-35
-31
-30
-32
-36
-33
-32
-34
-36
-36
-35
-37
-38
-38
-36
-39
-39
-38
-37
-38
-40
-42
-39
-39
-41
-42
-37
-39
-43
-41
-39
-38
-40
-41
-39
-34
-35
-36
-35
-32
-32
-33
-30
-26
-25
-28
-31
-30
-32
-36
-35
-34
-36
-38
-41
-38
-36
-41
-42
-42
-41
-43
-41
-43
-41
-42
-44
-44
-43
-47
-54
-63
-63
-54
-29
-19
22
48
71
69
14
-48
-63
-57
-55
-51
-54
-56
-55
-53
-54
-56
-57
-55
-56
-56
-56
-54
-55
-56
-58
-54
-54
-55
-56
-55
-54
-56
-56
-56
-55
-55
-58
-56
-55
-57
-59
-58
-58
-59
-61
-59
-58
-59
-62
-63
-62
-61
-66
-68
-67
-67
-70
-70
-71
-69
-69
-73
-73
-70
-70
-71
-70
-66
-63
-62
-60
-52
-49
-50
-51
-45
-44
-44
-45
-43
-43
-44
-44
-41
-37
-39
-43
-41
-39
-39
-43
-42
-40
-40
-42
-43
-41
-43
-46
-46
-44
-43
-47
-50
-49
-46
-47
-51
-52
-50
-52
-53
-54
-52
-54
-58
-56
-53
-52
-53
-56
-53
-54
-56
-56
-53
-55
-57
-57
-57
-55
-56
-56
-55
-52
-52
-53
-54
-48
-48
-50
-51
-47
-46
-48
-47
-43
-42
-49
-51
-51
-50
-53
-57
-55
-53
-55
-58
-56
-55
-58
-58
-58
-56
-58
-60
-61
-59
-58
-60
-65
-66
-69
-76
-79
-77
-54
-30
-14
7
35
53
22
-42
-88
-92
-85
-76
-72
-74
-73
-72
-69
-71
-74
-74
-70
-69
-72
-74
-70
-69
-70
-74
-74
-72
-71
-73
-71
-69
-71
-73
-72
-72
-71
-73
-74
-71
-71
-73
-72
-70
-70
-73
-75
-72
-73
-74
-77
-75
-75
-78
-80
-80
-78
-80
-84
-86
-85
-88
-92
-91
-88
-89
-92
-92
-86
-83
-84
-85
-79
-75
-71
-70
-66
-64
-64
-64
-61
-57
-56
-58
-58
-58
-59
-62
-62
-60
-60
-58
-56
-53
-54
-59
-60
-58
-59
-61
-59
-63
-60
-61
-63
-64
-62
-64
-67
-67
-61
-65
-68
-67
-66
-67
-67
-71
-68
-65
-68
-69
-67
-66
-69
-71
-68
-66
-70
-70
-70
-68
-68
-70
-70
-70
-68
-72
-70
-67
-68
-69
-71
-70
-65
-67
-68
-65
-64
-62
-64
-62
-61
-61
-62
-59
-54
-54
-58
-61
-60
-60
-63
-64
-63
-65
-67
-67
-64
-65
-69
-70
-67
-65
-67
-69
-67
-65
-67
-70
-73
-76
-84
-89
-76
-50
-25
-9
13
42
62
53
1
-65
-102
-113
-112
-91
-86
-82
-83
-82
-79
-79
-81
-81
-77
-80
-78
-78
-76
-78
-80
-80
-75
-75
-78
-80
-76
-75
-76
-77
-78
-76
-78
-78
-78
-77
-79
-80
-80
-78
-78
-81
-81
-81
-82
-82
-82
-81
-80
-84
-86
-84
-85
-89
-90
-91
-91
-94
-98
-95
-97
-100
-104
-102
-99
-100
-101
-101
-93
-89
-92
-84
-78
-72
-71
-70
-63
-60
-62
-62
-58
-58
-60
-61
-62
-58
-60
-60
-59
-56
-58
-58
-59
-57
-59
-59
-59
-57
-60
-61
-62
-58
-57
-60
-62
-62
-60
-60
-63
-64
-61
-63
-64
-64
-63
-64
-67
-64
-61
-63
-66
-67
-63
-62
-64
-62
-62
-62
-63
-64
-63
-61
-63
-63
-63
-61
-59
-62
-58
-54
-53
-55
-53
-51
-50
-52
-48
-43
-45
-50
-52
-50
-51
-52
-54
-55
-53
-55
-57
-55
-54
-57
-58
-57
-53
-54
-57
-58
-56
-56
-58
-59
-55
-60
-65
-71
-74
-74
-58
-51
-6
19
47
70
75
27
-43
-70
-67
-64
-63
-65
-65
-62
-63
-66
-66
-64
-63
-67
-65
-64
-64
-66
-67
-65
-63
-64
-67
-66
-63
-63
-66
-65
-62
-63
-62
-65
-62
-64
-66
-65
-64
-63
-64
-66
-64
-66
-65
-66
-64
-65
-66
-69
-69
-66
-68
-75
-73
-70
-72
-77
-77
-76
-78
-79
-80
-80
-79
-79
-77
-73
-70
-69
-70
-65
-60
-58
-55
-51
-48
-49
-49
-46
-44
-46
-48
-44
-40
-41
-46
-47
-44
-40
-41
-45
-41
-43
-44
-46
-44
-42
-43
-46
-43
-43
-44
-44
-44
-42
-44
-46
-47
-44
-46
-47
-49
-46
-47
-50
-52
-49
-47
-50
-51
-52
-48
-49
-51
-49
-47
-49
-51
-49
-45
-48
-49
-48
-45
-47
-51
-49
-47
-49
-49
-50
-43
-43
-42
-43
-43
-41
-40
-41
-38
-32
-33
-38
-40
-39
-44
-45
-45
-43
-43
-49
-49
-46
-47
-50
-51
-47
-46
-49
-51
-47
-45
-47
-50
-49
-47
-52
-60
-63
-64
-58
-37
-15
5
26
47
61
35
-31
-71
-70
-62
-57
-58
-59
-57
-58
-60
-59
-55
-57
-59
-61
-60
-58
-60
-60
-59
-58
-57
-61
-62
-56
-56
-58
-59
-56
-58
-60
-61
-61
-59
-61
-62
-58
-59
-59
-60
-60
-59
-60
-63
-62
-60
-60
-62
-64
-63
-65
-67
-67
-65
-67
-72
-75
-75
-75
-77
-80
-79
-80
-81
-86
-82
-78
-81
-79
-74
-65
-61
-62
-60
-57
-54
-53
-54
-47
-43
-43
-45
-47
-45
-46
-46
-40
-39
-43
-46
-43
-40
-42
-45
-44
-40
-41
-45
-45
-44
-44
-44
-47
-42
-41
-45
-48
-48
-44
-44
-47
-46
-46
-50
-52
-48
-47
-48
-52
-51
-49
-50
-53
-54
-51
-49
-51
-51
-51
-52
-57
-59
-54
-52
-53
-55
-52
-49
-49
-51
-51
-48
-50
-57
-56
-53
-52
-51
-49
-44
-44
-46
-47
-43
-42
-41
-40
-35
-34
-41
-46
-47
-49
-48
-48
-45
-43
-43
-45
-42
-39
-42
-48
-46
-45
-44
-45
-46
-46
-48
-49
-50
-48
-47
-53
-59
-63
-61
-55
-32
-2
14
30
49
69
58
-8
-66
-72
-64
-60
-58
-57
-55
-53
-56
-56
-51
-49
-51
-52
-56
-58
-57
-55
-55
-50
-51
-52
-52
-49
-49
-49
-52
-48
-51
-52
-50
-49
-51
-53
-55
-50
-48
-52
-56
-55
-55
-55
-57
-56
-54
-55
-59
-59
-53
-56
-61
-61
-60
-61
-64
-68
-69
-71
-72
-74
-74
-74
-77
-82
-80
-78
-79
-77
-75
-72
-70
-68
-63
-57
-52
-50
-48
-44
-40
-38
-40
-35
-30
-31
-34
-32
-29
-30
-33
-32
-30
-28
-31
-31
-28
-30
-33
-32
-29
-28
-33
-32
-31
-30
-33
-35
-33
-34
-37
-39
-35
-38
-40
-42
-42
-39
-39
-40
-41
-41
-42
-44
-46
-44
-45
-51
-49
-47
-46
-46
-46
-47
-46
-46
-46
-45
-43
-44
-46
-47
-44
-46
-46
-45
-42
-40
-42
-42
-37
-39
-41
-40
-38
-35
-35
-35
-31
-33
-35
-37
-38
-37
-41
-42
-42
-41
-42
-45
-47
-44
-43
-46
-47
-44
-44
-45
-47
-45
-44
-46
-50
-51
-52
-60
-63
-57
-32
0
23
42
64
84
58
-17
-66
-71
-63
-57
-51
-52
-56
-56
-52
-53
-54
-56
-55
-53
-55
-55
-53
-51
-53
-57
-55
-53
-55
-57
-58
-55
-53
-58
-59
-56
-55
-61
-58
-56
-57
-59
-63
-60
-60
-61
-62
-62
-61
-63
-66
-63
-65
-66
-68
-69
-70
-71
-74
-76
-74
-78
-83
-84
-83
-85
-86
-87
-86
-83
-85
-84
-78
-71
-68
-65
-61
-57
-56
-53
-51
-46
-44
-47
-46
-40
-41
-43
-45
-44
-41
-43
-45
-42
-43
-45
-47
-44
-41
-44
-46
-44
-42
-42
-48
-50
-47
-49
-50
-51
-50
-49
-52
-55
-52
-50
-51
-54
-51
-50
-55
-57
-53
-54
-55
-59
-57
-54
-54
-56
-56
-55
-55
-57
-58
-56
-57
-59
-57
-55
-55
-54
-56
-53
-51
-51
-52
-51
-48
-48
-51
-46
-45
-42
-45
-48
-47
-49
-51
-51
-51
-51
-52
-54
-52
-52
-55
-56
-53
-51
-53
-54
-54
-52
-51
-53
-52
-51
-52
-57
-60
-63
-67
-73
-71
-55
-28
-5
17
47
69
74
32
-33
-67
-66
-65
-63
-60
-61
-64
-62
-61
-60
-63
-62
-61
-61
-64
-63
-61
-60
-64
-64
-61
-61
-63
-64
-61
-59
-60
-62
-62
-61
-60
-63
-61
-59
-62
-65
-64
-62
-64
-65
-66
-65
-65
-68
-69
-67
-69
-72
-72
-72
-73
-76
-79
-78
-79
-79
-82
-81
-79
-78
-78
-78
-72
-71
-71
-67
-60
-58
-57
-55
-53
-50
-48
-49
-46
-46
-45
-47
-44
-42
-45
-46
-47
-43
-42
-47
-48
-44
-45
-47
-48
-45
-45
-48
-50
-49
-49
-49
-50
-51
-50
-51
-54
-50
-51
-53
-56
-54
-53
-52
-56
-56
-54
-52
-54
-55
-56
-54
-57
-56
-54
-54
-54
-59
-54
-51
-54
-54
-55
-52
-53
-56
-54
-50
-49
-50
-49
-48
-47
-47
-46
-41
-41
-44
-47
-47
-47
-49
-52
-52
-50
-52
-54
-52
-50
-50
-55
-54
-52
-50
-54
-55
-51
-53
-52
-55
-52
-53
-61
-66
-69
-68
-56
-30
-5
17
41
48
62
12
-53
-74
-66
-62
-61
-59
-59
-61
-59
-62
-63
-59
-60
-63
-62
-59
-58
-61
-62
-60
-58
-59
-60
-60
-58
-57
-60
-60
-58
-58
-61
-59
-56
-57
-60
-63
-60
-60
-63
-63
-62
-60
-63
-65
-64
-63
-65
-67
-67
-65
-67
-71
-73
-71
-72
-77
-76
-73
-75
-79
-80
-75
-76
-76
-77
-70
-67
-66
-64
-59
-52
-51
-52
-50
-47
-46
-47
-45
-43
-44
-44
-45
-42
-40
-43
-46
-42
-42
-43
-46
-46
-44
-45
-48
-44
-45
-49
-51
-47
-46
-45
-50
-50
-48
-47
-50
-51
-47
-49
-52
-52
-51
-49
-54
-54
-53
-49
-51
-55
-51
-50
-52
-53
-51
-51
-51
-52
-50
-47
-47
-48
-46
-41
-41
-44
-42
-38
-36
-37
-38
-39
-41
-41
-45
-44
-44
-46
-48
-45
-46
-46
-47
-49
-46
-47
-48
-48
-46
-45
-46
-48
-44
-45
-50
-54
-57
-60
-68
-55
-28
-4
17
22
62
78
67
7
-53
-65
-59
-58
-55
-55
-54
-55
-58
-53
-54
-58
-59
-57
-55
-56
-57
-56
-54
-56
-58
-55
-53
-54
-59
-58
-55
-53
-56
-57
-58
-56
-59
-57
-56
-56
-58
-61
-58
-57
-59
-60
-61
-58
-60
-61
-61
-62
-63
-66
-67
-66
-69
-71
-74
-70
-70
-72
-75
-72
-72
-71
-71
-66
-64
-60
-58
-53
-49
-50
-50
-46
-41
-41
-45
-45
-42
-39
-43
-42
-41
-40
-44
-43
-40
-39
-40
-43
-43
-41
-41
-46
-46
-44
-43
-45
-44
-44
-45
-48
-49
-47
-47
-49
-49
-46
-47
-49
-52
-49
-48
-48
-49
-50
-48
-51
-53
-49
-46
-49
-50
-51
-49
-47
-49
-48
-47
-45
-47
-47
-43
-42
-43
-43
-40
-37
-36
-36
-30
-31
-35
-41
-40
-37
-40
-42
-43
-42
-41
-44
-44
-41
-43
-46
-47
-43
-43
-47
-49
-44
-46
-54
-60
-64
-67
-70
-62
-45
-24
-4
2
37
63
70
36
-30
-61
-59
-54
-55
-54
-52
-54
-53
-51
-52
-53
-55
-53
-53
-54
-57
-53
-52
-53
-54
-55
-52
-52
-54
-56
-53
-54
-57
-56
-53
-54
-54
-56
-54
-53
-58
-58
-57
-55
-56
-62
-59
-58
-60
-62
-61
-61
-61
-64
-66
-64
-63
-67
-69
-68
-68
-72
-71
-67
-67
-69
-67
-61
-58
-56
-56
-50
-48
-46
-46
-44
-41
-38
-41
-42
-40
-39
-41
-41
-38
-38
-41
-44
-40
-39
-43
-43
-42
-39
-40
-45
-43
-41
-44
-43
-47
-46
-42
-46
-49
-44
-46
-46
-48
-43
-44
-48
-48
-47
-44
-47
-50
-49
-47
-48
-51
-49
-48
-46
-47
-50
-48
-48
-50
-49
-45
-42
-45
-46
-40
-41
-41
-42
-40
-38
-38
-39
-34
-31
-37
-41
-39
-37
-41
-43
-43
-41
-42
-48
-48
-44
-42
-46
-47
-44
-44
-49
-49
-46
-45
-46
-49
-44
-44
-47
-49
-53
-58
-64
-68
-52
-24
-2
14
41
66
64
5
-60
-72
-61
-58
-56
-53
-53
-54
-56
-53
-53
-54
-59
-55
-55
-55
-56
-54
-51
-52
-57
-58
-55
-55
-56
-57
-53
-52
-53
-57
-53
-54
-57
-59
-55
-51
-55
-59
-57
-57
-57
-57
-61
-60
-59
-63
-63
-59
-60
-65
-68
-64
-67
-70
-73
-72
-73
-76
-80
-79
-78
-79
-82
-78
-74
-74
-76
-71
-65
-62
-63
-61
-56
-56
-56
-55
-51
-48
-49
-50
-49
-46
-48
-49
-46
-44
-45
-47
-44
-41
-46
-48
-48
-44
-43
-48
-49
-47
-46
-50
-51
-47
-47
-50
-51
-49
-48
-51
-55
-54
-52
-52
-59
-55
-54
-56
-57
-59
-54
-53
-58
-58
-55
-54
-55
-56
-53
-54
-55
-58
-54
-56
-57
-57
-57
-52
-53
-55
-54
-51
-50
-51
-50
-47
-49
-51
-51
-46
-43
-45
-44
-41
-39
-44
-48
-46
-46
-50
-50
-51
-48
-49
-55
-50
-50
-52
-54
-54
-51
-47
-51
-52
-50
-48
-49
-51
-50
-52
-60
-66
-68
-64
-48
-25
-2
12
26
40
57
78
82
78
-32
-71
-72
-68
-63
-57
-59
-62
-62
-59
-59
-61
-60
-60
-59
-62
-63
-61
-58
-60
-63
-61
-58
-59
-61
-62
-60
-62
-62
-64
-61
-61
-64
-63
-62
-60
-65
-64
-62
-62
-64
-66
-63
-62
-64
-68
-68
-64
-67
-68
-72
-72
-74
-75
-75
-75
-77
-81
-82
-80
-79
-83
-84
-83
-82
-79
-82
-76
-72
-69
-66
-62
-56
-56
-55
-54
-50
-48
-50
-52
-47
-47
-48
-47
-46
-44
-49
-50
-46
-44
-47
-49
-48
-46
-48
-50
-50
-46
-49
-51
-51
-49
-47
-50
-53
-50
-50
-52
-53
-50
-50
-53
-54
-51
-52
-55
-55
-54
-51
-54
-56
-55
-51
-53
-53
-55
-53
-54
-56
-56
-51
-51
-53
-54
-50
-48
-48
-48
-47
-45
-47
-46
-42
-40
-41
-45
-39
-38
-37
-36
-42
-40
-41
-44
-47
-44
-43
-47
-48
-45
-43
-47
-48
-45
-45
-47
-50
-48
-44
-47
-49
-49
-45
-50
-52
-66
-67
-63
-44
-17
9
32
55
78
90
53
-18
-62
-63
-56
-54
-56
-53
-53
-55
-56
-55
-52
-53
-55
-57
-55
-54
-57
-59
-55
-51
-55
-56
-54
-54
-53
-56
-53
-53
-53
-56
-54
-51
-55
-58
-56
-53
-55
-55
-58
-54
-55
-58
-58
-58
-58
-59
-62
-60
-61
-64
-66
-63
-64
-64
-69
-70
-66
-69
-69
-71
-69
-72
-74
-74
-71
-72
-74
-74
-69
-66
-67
-65
-58
-55
-55
-55
-50
-47
-45
-48
-45
-40
-41
-44
-44
-43
-45
-46
-44
-43
-42
-45
-43
-44
-44
-45
-47
-45
-43
-44
-48
-47
-45
-46
-49
-48
-46
-49
-51
-50
-46
-49
-50
-51
-49
-50
-52
-54
-52
-50
-53
-54
-52
-51
-53
-53
-53
-50
-53
-52
-51
-50
-52
-56
-51
-49
-48
-47
-49
-44
-43
-44
-45
-42
-42
-40
-39
-35
-36
-38
-41
-42
-42
-44
-46
-47
-45
-46
-48
-49
-44
-46
-46
-49
-43
-45
-49
-51
-47
-46
-47
-48
-50
-50
-55
-62
-68
-66
-52
-28
-1
22
46
65
70
26
-42
-60
-65
-58
-57
-57
-59
-55
-55
-59
-60
-57
-55
-58
-58
-57
-55
-57
-61
-58
-56
-56
-58
-59
-56
-55
-55
-59
-57
-58
-58
-56
-56
-55
-58
-60
-57
-56
-59
-62
-59
-58
-58
-62
-63
-61
-63
-65
-65
-63
-66
-67
-71
-69
-65
-71
-73
-73
-75
-74
-76
-79
-78
-79
-82
-79
-76
-77
-79
-75
-69
-67
-66
-63
-56
-57
-56
-54
-51
-51
-53
-55
-51
-50
-52
-53
-50
-50
-50
-53
-54
-49
-51
-54
-53
-51
-50
-53
-53
-50
-54
-55
-52
-51
-52
-56
-55
-53
-53
-54
-54
-55
-54
-56
-57
-56
-53
-56
-56
-55
-54
-56
-58
-57
-53
-53
-53
-57
-56
-56
-56
-57
-55
-55
-57
-58
-54
-52
-53
-53
-53
-48
-47
-49
-50
-47
-46
-48
-45
-39
-40
-39
-48
-45
-45
-49
-51
-47
-49
-50
-53
-51
-51
-52
-55
-53
-50
-53
-55
-54
-55
-53
-55
-54
-51
-55
-57
-64
-67
-73
-71
-51
-23
-3
19
43
59
45
-19
-72
-76
-68
-65
-65
-62
-61
-63
-64
-67
-64
-64
-65
-67
-67
-63
-66
-67
-67
-69
-68
-70
-66
-64
-65
-68
-66
-65
-64
-68
-67
-63
-68
-70
-71
-67
-69
-70
-72
-68
-70
-70
-72
-71
-70
-73
-76
-75
-75
-77
-79
-81
-80
-81
-83
-85
-86
-88
-89
-88
-89
-89
-89
-90
-84
-83
-85
-85
-80
-75
-73
-73
-70
-67
-65
-66
-65
-61
-62
-64
-62
-58
-59
-61
-62
-59
-60
-61
-62
-59
-61
-62
-63
-60
-60
-63
-64
-63
-61
-62
-65
-64
-64
-64
-66
-65
-67
-65
-66
-68
-67
-67
-68
-70
-68
-70
-69
-70
-68
-68
-70
-72
-70
-68
-67
-70
-70
-66
-67
-69
-72
-69
-70
-72
-71
-68
-68
-69
-71
-66
-64
-67
-67
-62
-62
-64
-66
-60
-57
-57
-56
-56
-59
-61
-64
-64
-61
-63
-68
-68
-65
-64
-64
-67
-65
-65
-66
-68
-65
-64
-67
-68
-70
-71
-78
-82
-87
-88
-86
-73
-45
-22
-3
21
49
52
-6
-31
-93
-80
-72
-72
-72
-71
-69
-70
-73
-70
-68
-69
-69
-70
-66
-67
-70
-67
-66
-66
-68
-67
-64
-66
-66
-68
-65
-63
-66
-67
-67
-65
-67
-69
-67
-66
-67
-72
-71
-68
-71
-74
-74
-73
-75
-77
-79
-77
-79
-80
-84
-85
-83
-86
-89
-86
-88
-85
-86
-80
-76
-73
-73
-70
-64
-63
-63
-62
-57
-55
-57
-56
-52
-49
-50
-53
-48
-49
-49
-51
-50
-49
-51
-50
-50
-48
-50
-53
-50
-49
-51
-50
-52
-51
-50
-51
-52
-51
-53
-54
-55
-51
-52
-55
-56
-54
-51
-54
-55
-55
-55
-53
-55
-52
-51
-52
-55
-56
-50
-52
-52
-53
-51
-50
-48
-54
-51
-51
-51
-53
-52
-48
-47
-48
-44
-42
-42
-46
-47
-41
-40
-42
-38
-35
-36
-41
-44
-41
-41
-43
-47
-47
-46
-46
-50
-48
-45
-49
-51
-49
-47
-49
-50
-50
-47
-48
-52
-56
-60
-66
-72
-60
-33
-4
6
47
78
82
30
-47
-67
-60
-61
-60
-55
-54
-57
-60
-60
-58
-58
-61
-59
-58
-58
-61
-59
-54
-57
-58
-60
-59
-56
-61
-61
-60
-58
-58
-60
-59
-57
-59
-62
-59
-59
-59
-64
-62
-61
-61
-65
-64
-64
-63
-65
-68
-67
-68
-71
-73
-68
-70
-72
-76
-75
-76
-76
-80
-80
-79
-79
-80
-77
-73
-70
-70
-67
-60
-58
-58
-58
-55
-51
-52
-51
-50
-49
-48
-49
-47
-47
-49
-50
-47
-46
-46
-50
-51
-48
-47
-47
-48
-47
-49
-49
-51
-48
-49
-48
-50
-49
-46
-49
-51
-51
-49
-50
-52
-52
-48
-50
-55
-54
-49
-50
-54
-53
-52
-51
-51
-53
-52
-50
-54
-52
-48
-48
-49
-50
-49
-49
-49
-50
-50
-47
-47
-48
-46
-44
-42
-43
-43
-41
-40
-39
-39
-36
-31
-34
-39
-40
-43
-41
-43
-42
-41
-43
-48
-47
-46
-47
-50
-46
-45
-47
-49
-48
-45
-46
-46
-51
-47
-45
-50
-53
-55
-62
-68
-70
-52
-25
-3
17
46
71
72
6
-61
-69
-58
-61
-59
-57
-58
-57
-58
-56
-56
-58
-59
-56
-56
-57
-58
-60
-57
-58
-59
-59
-57
-58
-59
-60
-56
-57
-59
-61
-57
-57
-58
-62
-60
-57
-58
-62
-59
-59
-61
-62
-62
-62
-62
-65
-64
-63
-64
-69
-71
-70
-71
-75
-77
-76
-76
-76
-81
-78
-76
-75
-75
-71
-67
-67
-68
-66
-61
-57
-58
-56
-51
-51
-51
-50
-46
-46
-48
-49
-46
-45
-45
-50
-48
-45
-45
-48
-46
-45
-47
-49
-47
-47
-48
-49
-51
-47
-47
-51
-52
-52
-50
-52
-52
-51
-51
-50
-55
-53
-50
-54
-55
-55
-52
-54
-56
-53
-53
-53
-55
-56
-52
-54
-54
-53
-50
-51
-52
-54
-52
-52
-53
-54
-55
-51
-52
-52
-50
-48
-47
-47
-46
-43
-46
-47
-44
-42
-40
-42
-40
-39
-42
-46
-45
-43
-44
-44
-51
-49
-48
-52
-53
-53
-50
-53
-54
-55
-53
-52
-55
-53
-52
-54
-56
-60
-64
-68
-77
-76
-56
-29
-20
9
35
58
53
-6
-66
-81
-73
-71
-65
-64
-62
-66
-65
-63
-65
-66
-66
-64
-64
-66
-66
-62
-64
-65
-69
-66
-63
-64
-67
-64
-63
-65
-68
-67
-64
-65
-68
-68
-65
-63
-67
-69
-68
-69
-69
-70
-67
-69
-70
-72
-71
-70
-74
-78
-76
-76
-79
-81
-82
-83
-83
-87
-88
-86
-87
-90
-89
-86
-85
-88
-86
-80
-79
-78
-75
-71
-69
-69
-69
-63
-60
-60
-62
-61
-58
-57
-58
-60
-59
-59
-60
-60
-59
-60
-60
-61
-55
-57
-58
-63
-60
-59
-61
-64
-62
-60
-60
-63
-65
-63
-62
-65
-65
-63
-63
-65
-67
-65
-62
-64
-65
-63
-63
-65
-67
-64
-63
-64
-67
-64
-61
-62
-64
-64
-61
-61
-64
-61
-61
-61
-65
-63
-61
-60
-63
-64
-61
-58
-59
-62
-58
-53
-54
-58
-55
-51
-52
-51
-50
-48
-52
-57
-57
-56
-54
-57
-59
-58
-57
-60
-61
-59
-59
-60
-64
-62
-58
-61
-63
-64
-62
-62
-63
-64
-65
-70
-78
-85
-84
-75
-50
-22
-1
25
50
62
41
-30
-53
-85
-76
-74
-74
-75
-74
-70
-75
-78
-74
-71
-73
-76
-76
-75
-73
-74
-76
-71
-70
-72
-75
-74
-71
-73
-76
-73
-73
-73
-75
-74
-70
-73
-75
-75
-73
-73
-77
-77
-75
-74
-79
-77
-75
-76
-78
-79
-78
-79
-80
-86
-84
-84
-87
-89
-88
-90
-91
-93
-95
-92
-92
-96
-95
-90
-88
-90
-88
-84
-82
-80
-78
-71
-71
-71
-72
-69
-65
-68
-68
-64
-61
-62
-64
-63
-60
-59
-62
-64
-61
-60
-63
-64
-62
-61
-64
-62
-60
-60
-61
-66
-65
-61
-62
-67
-66
-62
-65
-66
-66
-65
-66
-67
-68
-68
-67
-68
-70
-68
-67
-69
-68
-67
-67
-68
-71
-66
-65
-65
-69
-67
-65
-64
-65
-65
-62
-62
-65
-64
-62
-61
-67
-67
-63
-61
-62
-65
-62
-61
-59
-61
-58
-55
-56
-58
-56
-56
-55
-55
-53
-51
-49
-50
-48
-47
-48
-54
-55
-54
-53
-56
-57
-56
-56
-57
-61
-61
-56
-59
-62
-62
-58
-59
-63
-64
-61
-60
-62
-65
-66
-72
-80
-86
-80
-61
-39
-18
5
31
41
70
60
-3
-66
-86
-78
-72
-69
-70
-67
-68
-67
-71
-70
-67
-67
-71
-70
-69
-67
-69
-70
-66
-68
-67
-72
-69
-65
-66
-72
-68
-67
-67
-69
-69
-66
-67
-70
-68
-66
-66
-69
-70
-68
-67
-70
-71
-69
-68
-70
-73
-69
-69
-70
-73
-72
-71
-74
-76
-75
-75
-76
-82
-82
-80
-82
-83
-85
-84
-83
-84
-86
-85
-82
-83
-85
-79
-76
-73
-73
-67
-61
-61
-61
-61
-59
-56
-58
-56
-55
-56
-57
-57
-55
-53
-54
-56
-52
-53
-54
-57
-54
-51
-54
-56
-55
-52
-55
-56
-56
-55
-56
-59
-58
-56
-58
-60
-60
-59
-56
-58
-61
-59
-57
-58
-60
-58
-58
-60
-61
-60
-56
-57
-59
-60
-57
-55
-57
-56
-55
-56
-57
-58
-55
-53
-57
-57
-57
-53
-51
-55
-54
-53
-54
-59
-55
-55
-55
-56
-57
-55
-53
-54
-50
-47
-46
-48
-50
-45
-44
-45
-42
-39
-38
-40
-46
-46
-46
-49
-51
-51
-49
-50
-53
-51
-49
-50
-54
-52
-51
-50
-51
-53
-51
-52
-52
-58
-60
-68
-71
-78
-58
-32
-14
-3
17
36
54
74
83
56
-16
-69
-73
-64
-60
-60
-61
-60
-59
-60
-63
-61
-57
-58
-61
-59
-57
-61
-63
-62
-56
-60
-62
-63
-58
-60
-60
-59
-57
-59
-63
-62
-59
-58
-61
-62
-58
-56
-57
-61
-59
-58
-60
-63
-62
-60
-62
-66
-66
-64
-67
-68
-71
-70
-72
-72
-74
-74
-74
-81
-83
-79
-76
-76
-80
-75
-72
-72
-69
-67
-60
-60
-60
-57
-52
-53
-52
-52
-49
-48
-47
-50
-48
-48
-50
-49
-49
-45
-47
-50
-50
-48
-48
-49
-49
-47
-48
-50
-51
-47
-49
-53
-53
-49
-53
-54
-53
-53
-51
-53
-54
-53
-53
-54
-58
-56
-51
-54
-57
-57
-53
-53
-53
-56
-52
-53
-55
-56
-53
-53
-53
-56
-52
-49
-52
-54
-50
-50
-51
-53
-51
-50
-52
-53
-53
-51
-52
-53
-53
-49
-50
-50
-50
-47
-45
-46
-46
-45
-43
-45
-44
-40
-36
-36
-43
-45
-42
-44
-47
-47
-45
-49
-49
-49
-46
-46
-49
-49
-48
-48
-50
-51
-48
-48
-50
-52
-52
-49
-50
-63
-66
-70
-70
-53
-24
-3
17
42
68
59
-11
-68
-73
-62
-59
-59
-59
-57
-56
-57
-59
-55
-53
-54
-58
-57
-53
-56
-58
-56
-52
-55
-56
-58
-55
-54
-54
-57
-56
-54
-56
-57
-56
-54
-56
-58
-55
-56
-57
-58
-59
-56
-57
-60
-62
-58
-62
-64
-68
-64
-68
-71
-72
-73
-74
-78
-79
-77
-76
-78
-80
-75
-72
-72
-70
-67
-64
-62
-62
-58
-51
-50
-51
-48
-45
-44
-43
-46
-43
-40
-44
-45
-43
-42
-42
-44
-43
-41
-42
-44
-42
-39
-42
-44
-45
-42
-43
-46
-48
-46
-47
-47
-48
-46
-47
-48
-49
-47
-47
-49
-50
-48
-44
-46
-48
-48
-45
-47
-50
-49
-47
-47
-48
-49
-47
-46
-48
-47
-47
-46
-48
-49
-45
-45
-47
-49
-46
-45
-45
-48
-47
-47
-46
-47
-46
-43
-42
-43
-42
-38
-40
-40
-40
-33
-31
-31
-36
-37
-37
-39
-40
-41
-40
-40
-43
-44
-38
-42
-44
-43
-40
-41
-44
-45
-42
-43
-45
-45
-43
-46
-51
-56
-62
-66
-59
-36
-5
19
27
72
78
28
-44
-64
-56
-50
-49
-52
-54
-50
-50
-52
-54
-51
-51
-53
-54
-53
-50
-52
-54
-52
-50
-51
-52
-53
-49
-52
-56
-53
-50
-52
-54
-56
-53
-50
-54
-56
-52
-51
-52
-54
-54
-55
-55
-58
-55
-58
-58
-63
-65
-61
-64
-69
-70
-64
-68
-69
-70
-69
-70
-72
-73
-71
-70
-70
-70
-67
-63
-60
-58
-53
-49
-51
-48
-46
-42
-41
-45
-42
-40
-39
-42
-43
-40
-41
-40
-42
-41
-39
-42
-43
-41
-40
-42
-43
-41
-41
-43
-44
-44
-40
-43
-46
-45
-45
-45
-47
-48
-45
-44
-47
-48
-48
-45
-47
-49
-47
-46
-46
-47
-45
-43
-43
-47
-47
-42
-44
-45
-47
-41
-44
-44
-45
-43
-40
-42
-42
-42
-41
-43
-44
-41
-40
-41
-44
-43
-39
-40
-42
-40
-35
-35
-38
-37
-31
-33
-34
-31
-27
-27
-32
-35
-36
-34
-36
-41
-41
-39
-41
-41
-40
-40
-41
-44
-43
-39
-40
-43
-44
-41
-42
-48
-56
-60
-68
-71
-63
-38
-16
-3
11
36
61
77
50
-20
-58
-63
-53
-51
-48
-51
-55
-53
-51
-51
-51
-55
-52
-51
-54
-55
-53
-50
-52
-55
-54
-50
-50
-53
-51
-50
-51
-51
-51
-48
-50
-54
-53
-50
-51
-52
-53
-52
-52
-55
-56
-55
-55
-57
-59
-59
-58
-62
-65
-66
-62
-64
-69
-71
-70
-70
-72
-73
-69
-69
-67
-64
-60
-57
-55
-53
-48
-46
-46
-47
-41
-40
-39
-42
-40
-37
-39
-42
-44
-39
-38
-42
-43
-39
-39
-41
-42
-40
-41
-40
-41
-41
-40
-43
-45
-43
-39
-42
-45
-42
-42
-42
-47
-47
-45
-45
-45
-47
-47
-45
-48
-46
-45
-45
-46
-49
-47
-44
-44
-47
-47
-45
-44
-46
-46
-43
-43
-47
-45
-44
-41
-46
-45
-41
-43
-46
-46
-44
-45
-45
-45
-44
-42
-42
-43
-39
-37
-36
-41
-40
-37
-35
-37
-34
-32
-31
-36
-38
-35
-37
-42
-41
-41
-41
-43
-46
-46
-42
-45
-47
-46
-44
-46
-47
-45
-43
-43
-50
-50
-52
-59
-68
-69
-51
-24
-3
13
39
66
87
101
94
55
-8
-65
-83
-73
-65
-60
-55
-55
-54
-58
-58
-52
-54
-56
-57
-53
-55
-57
-57
-56
-55
-57
-58
-54
-54
-57
-58
-56
-55
-56
-57
-57
-55
-55
-58
-56
-54
-54
-58
-57
-54
-56
-58
-58
-57
-56
-57
-63
-61
-58
-61
-64
-66
-65
-68
-72
-72
-73
-73
-78
-79
-78
-77
-78
-78
-72
-73
-71
-68
-62
-60
-59
-56
-52
-48
-50
-50
-49
-45
-43
-48
-46
-45
-45
-45
-45
-42
-43
-47
-48
-45
-44
-47
-48
-45
-46
-46
-47
-46
-45
-47
-49
-48
-47
-47
-50
-50
-49
-48
-51
-52
-51
-49
-51
-50
-47
-50
-51
-52
-48
-49
-51
-51
-49
-47
-48
-48
-48
-46
-48
-52
-49
-46
-45
-49
-48
-46
-47
-48
-47
-45
-46
-48
-51
-48
-45
-48
-51
-49
-47
-45
-47
-45
-43
-42
-43
-42
-38
-39
-42
-41
-35
-33
-35
-40
-39
-40
-40
-43
-42
-43
-45
-46
-45
-42
-44
-46
-46
-44
-45
-47
-47
-45
-45
-48
-48
-46
-44
-48
-48
-49
-56
-64
-70
-72
-61
-39
-16
8
35
58
77
68
6
-55
-69
-60
-60
-59
-57
-58
-57
-55
-59
-59
-55
-55
-58
-60
-58
-55
-58
-58
-56
-55
-57
-58
-57
-53
-55
-57
-56
-55
-54
-59
-57
-55
-55
-61
-59
-55
-55
-59
-61
-60
-59
-59
-60
-60
-62
-60
-62
-63
-61
-66
-71
-69
-69
-68
-75
-77
-75
-74
-76
-77
-75
-77
-79
-80
-79
-75
-74
-75
-71
-67
-64
-62
-60
-54
-53
-53
-50
-45
-45
-49
-48
-46
-44
-48
-48
-44
-42
-46
-45
-45
-45
-45
-47
-45
-45
-45
-49
-49
-45
-44
-48
-47
-47
-48
-50
-51
-46
-47
-51
-52
-48
-49
-50
-51
-53
-51
-51
-54
-51
-52
-50
-53
-51
-49
-49
-54
-53
-49
-49
-51
-50
-50
-48
-49
-50
-47
-49
-51
-51
-47
-47
-50
-51
-50
-50
-49
-52
-48
-47
-48
-47
-45
-44
-42
-42
-42
-41
-41
-39
-39
-35
-32
-32
-37
-37
-39
-40
-42
-43
-41
-43
-46
-46
-44
-45
-48
-46
-44
-45
-50
-48
-47
-45
-49
-49
-49
-52
-61
-67
-73
-73
-65
-48
-28
-13
-5
2
14
33
56
72
70
11
-14
-67
-59
-54
-53
-54
-56
-54
-54
-54
-57
-55
-53
-54
-57
-54
-53
-54
-55
-56
-55
-51
-55
-57
-54
-54
-56
-55
-52
-53
-53
-56
-52
-52
-54
-57
-55
-55
-55
-57
-54
-56
-56
-59
-58
-55
-55
-61
-63
-62
-61
-65
-68
-65
-69
-72
-73
-71
-74
-76
-79
-75
-74
-73
-76
-72
-68
-67
-66
-61
-58
-54
-54
-51
-47
-46
-47
-46
-42
-41
-42
-44
-42
-39
-42
-44
-40
-40
-44
-47
-42
-42
-42
-44
-44
-41
-44
-45
-42
-41
-40
-44
-43
-38
-38
-41
-42
-39
-38
-41
-43
-42
-41
-45
-47
-47
-47
-50
-56
-54
-52
-51
-53
-53
-51
-50
-52
-53
-51
-52
-51
-53
-50
-50
-53
-54
-51
-51
-52
-51
-52
-56
-63
-70
-74
-79
-79
-65
-36
-6
2
35
62
71
36
-33
-66
-59
-53
-54
-57
-52
-51
-52
-55
-53
-50
-51
-53
-53
-51
-51
-53
-53
-51
-50
-55
-55
-52
-50
-51
-55
-55
-52
-54
-55
-54
-51
-55
-56
-53
-54
-54
-58
-58
-55
-55
-59
-58
-57
-58
-60
-62
-62
-62
-67
-69
-68
-69
-72
-78
-77
-77
-79
-81
-82
-79
-77
-78
-75
-71
-69
-69
-64
-58
-57
-58
-57
-53
-51
-53
-53
-48
-48
-51
-51
-51
-48
-50
-51
-49
-47
-50
-51
-49
-45
-45
-51
-52
-50
-51
-52
-54
-52
-51
-53
-55
-52
-52
-55
-56
-53
-52
-53
-55
-53
-51
-54
-55
-54
-54
-56
-57
-57
-53
-52
-58
-58
-54
-55
-55
-57
-55
-54
-55
-56
-55
-53
-54
-58
-56
-53
-54
-54
-54
-54
-54
-58
-58
-52
-53
-53
-55
-51
-52
-55
-56
-51
-51
-52
-55
-52
-52
-55
-57
-53
-51
-53
-57
-55
-53
-53
-56
-58
-55
-54
-56
-57
-53
-54
-55
-58
-56
-53
-54
-57
-54
-52
-55
-58
-57
-55
-56
-58
-57
-56
-56
-57
-53
-52
-53
-52
-53
-49
-47
-51
-51
-48
-45
-46
-49
-48
-46
-49
-52
-52
-52
-55
-57
-58
-56
-55
-60
-62
-58
-56
-59
-61
-60
-60
-60
-61
-57
-59
-62
-64
-60
-58
-62
-68
-70
-75
-79
-73
-48
-23
-3
12
39
64
69
-8
-74
-87
-76
-72
-70
-65
-65
-67
-70
-68
-65
-66
-69
-68
-64
-65
-69
-69
-65
-66
-68
-68
-64
-63
-68
-67
-63
-62
-65
-66
-64
-62
-66
-67
-64
-62
-64
-66
-64
-64
-64
-66
-67
-65
-65
-68
-68
-67
-65
-70
-73
-72
-72
-73
-76
-77
-78
-78
-83
-83
-82
-87
-90
-88
-87
-88
-90
-89
-85
-82
-83
-80
-75
-74
-72
-71
-71
-65
-63
-62
-58
-55
-55
-57
-52
-48
-51
-54
-53
-49
-50
-52
-50
-49
-48
-51
-51
-47
-48
-52
-52
-50
-47
-50
-54
-50
-49
-50
-52
-52
-51
-52
-54
-53
-52
-52
-56
-56
-53
-54
-55
-53
-53
-54
-57
-56
-54
-53
-54
-56
-55
-55
-54
-55
-55
-53
-54
-57
-54
-50
-52
-56
-55
-51
-50
-52
-52
-53
-52
-52
-54
-52
-51
-55
-52
-50
-47
-46
-50
-49
-44
-43
-46
-43
-43
-40
-41
-40
-39
-37
-41
-42
-42
-43
-46
-48
-48
-46
-50
-50
-50
-49
-50
-50
-52
-51
-52
-52
-52
-46
-50
-52
-58
-62
-68
-78
-77
-50
-39
-2
13
33
49
65
86
99
57
-27
-70
-66
-56
-56
-57
-56
-54
-56
-57
-57
-54
-55
-59
-58
-54
-54
-54
-57
-56
-53
-56
-56
-55
-55
-54
-56
-54
-54
-54
-56
-54
-53
-54
-57
-56
-54
-54
-57
-57
-56
-54
-57
-59
-57
-58
-61
-62
-63
-63
-66
-71
-70
-68
-73
-77
-75
-76
-74
-77
-75
-72
-72
-71
-67
-61
-59
-58
-57
-50
-45
-46
-45
-43
-40
-43
-44
-42
-38
-41
-45
-42
-40
-40
-42
-42
-39
-40
-44
-43
-40
-40
-42
-44
-40
-41
-45
-46
-44
-41
-44
-47
-46
-43
-44
-47
-46
-45
-47
-48
-49
-45
-43
-48
-49
-45
-44
-44
-45
-45
-44
-44
-47
-44
-42
-44
-44
-42
-39
-41
-43
-44
-40
-40
-43
-43
-41
-39
-44
-44
-40
-39
-40
-40
-38
-35
-38
-37
-35
-34
-35
-36
-32
-28
-30
-32
-30
-29
-32
-37
-40
-36
-38
-42
-45
-41
-41
-42
-45
-44
-44
-43
-48
-44
-42
-45
-46
-45
-43
-51
-60
-67
-73
-70
-49
-21
-3
2
9
27
48
53
81
62
-15
-67
-61
-53
-52
-49
-52
-52
-53
-48
-51
-54
-51
-48
-50
-51
-50
-48
-49
-49
-49
-47
-46
-46
-48
-48
-47
-48
-50
-49
-47
-49
-50
-46
-44
-48
-54
-51
-47
-49
-49
-52
-51
-52
-55
-58
-55
-56
-62
-63
-65
-64
-69
-70
-67
-68
-71
-73
-70
-67
-68
-65
-64
-60
-57
-57
-53
-47
-45
-47
-45
-42
-40
-41
-43
-39
-39
-38
-41
-39
-39
-41
-42
-39
-37
-40
-45
-44
-39
-42
-45
-44
-41
-44
-44
-46
-45
-44
-48
-48
-47
-45
-49
-51
-50
-48
-48
-54
-50
-50
-49
-52
-51
-51
-52
-52
-52
-50
-51
-55
-57
-50
-49
-51
-53
-49
-50
-52
-51
-49
-49
-50
-54
-50
-48
-50
-52
-49
-43
-43
-46
-47
-43
-42
-43
-46
-40
-41
-45
-45
-41
-41
-45
-49
-45
-47
-51
-53
-54
-49
-51
-53
-52
-53
-55
-53
-55
-52
-53
-57
-55
-52
-51
-54
-61
-64
-69
-78
-78
-56
-29
-11
7
40
65
55
-15
-76
-83
-69
-65
-63
-62
-64
-61
-63
-62
-61
-63
-64
-60
-60
-63
-63
-60
-57
-60
-62
-63
-57
-58
-61
-60
-55
-61
-63
-62
-60
-61
-61
-61
-61
-60
-62
-65
-62
-63
-64
-66
-66
-63
-65
-67
-67
-67
-67
-72
-73
-74
-74
-78
-82
-83
-85
-88
-88
-87
-88
-88
-88
-85
-81
-82
-79
-73
-67
-67
-65
-60
-57
-55
-56
-55
-52
-53
-52
-53
-51
-49
-54
-54
-52
-51
-52
-53
-53
-52
-54
-55
-52
-51
-53
-55
-53
-52
-52
-55
-57
-54
-52
-54
-55
-55
-54
-57
-57
-55
-54
-55
-58
-57
-55
-56
-59
-58
-56
-57
-58
-57
-53
-55
-57
-56
-51
-55
-55
-55
-54
-53
-52
-54
-54
-54
-55
-57
-53
-52
-53
-54
-52
-48
-49
-48
-47
-43
-44
-45
-44
-41
-41
-43
-44
-41
-42
-47
-50
-48
-49
-49
-52
-49
-47
-51
-52
-51
-50
-51
-54
-54
-51
-52
-55
-55
-52
-54
-55
-56
-56
-63
-73
-80
-80
-77
-40
-12
14
42
71
76
33
-44
-80
-71
-67
-63
-63
-65
-65
-60
-63
-64
-66
-61
-61
-62
-63
-62
-60
-63
-65
-62
-59
-61
-64
-62
-59
-58
-64
-62
-60
-58
-62
-63
-63
-61
-63
-65
-62
-61
-65
-65
-62
-61
-66
-66
-67
-67
-70
-72
-74
-71
-73
-78
-79
-79
-84
-86
-86
-82
-84
-87
-88
-85
-83
-83
-82
-78
-76
-71
-69
-63
-59
-57
-58
-53
-50
-51
-53
-52
-50
-50
-51
-50
-48
-50
-50
-50
-49
-51
-52
-54
-51
-50
-52
-55
-53
-51
-53
-55
-54
-54
-56
-58
-56
-52
-55
-59
-57
-55
-56
-57
-58
-57
-57
-59
-59
-58
-56
-59
-61
-59
-56
-58
-60
-58
-57
-56
-59
-59
-57
-58
-59
-57
-53
-56
-57
-58
-53
-53
-56
-55
-53
-52
-52
-53
-52
-49
-50
-50
-48
-46
-46
-47
-45
-40
-42
-46
-43
-42
-44
-50
-50
-48
-48
-50
-54
-52
-51
-52
-54
-53
-52
-54
-56
-54
-53
-54
-56
-55
-52
-52
-58
-61
-64
-72
-80
-81
-65
-36
-12
11
41
52
92
97
66
0
-69
-96
-90
-74
-69
-68
-65
-62
-62
-63
-63
-60
-63
-63
-65
-62
-58
-61
-62
-62
-59
-57
-60
-59
-59
-58
-59
-58
-58
-59
-61
-58
-56
-56
-60
-60
-59
-60
-60
-60
-59
-59
-62
-63
-61
-62
-61
-63
-63
-61
-63
-64
-66
-64
-66
-71
-71
-72
-73
-78
-79
-77
-78
-79
-81
-79
-79
-79
-80
-72
-69
-69
-67
-62
-57
-57
-55
-53
-48
-48
-47
-48
-44
-47
-49
-48
-44
-45
-45
-47
-46
-43
-45
-45
-43
-42
-48
-50
-47
-44
-47
-48
-48
-47
-47
-51
-50
-49
-47
-50
-51
-47
-51
-54
-55
-53
-50
-51
-54
-52
-51
-53
-56
-56
-52
-54
-55
-53
-51
-52
-54
-55
-52
-52
-53
-55
-52
-50
-52
-52
-52
-51
-51
-55
-52
-53
-52
-53
-49
-49
-50
-52
-48
-43
-43
-46
-45
-45
-42
-41
-42
-41
-40
-43
-44
-44
-44
-50
-51
-50
-47
-50
-52
-53
-52
-54
-56
-54
-52
-53
-54
-56
-52
-53
-56
-55
-52
-53
-54
-57
-56
-60
-69
-79
-80
-78
-38
-16
5
31
62
76
51
-24
-82
-85
-71
-64
-62
-62
-61
-60
-58
-58
-60
-59
-60
-61
-65
-61
-58
-58
-61
-58
-57
-58
-62
-60
-56
-55
-58
-59
-59
-57
-57
-59
-58
-58
-58
-59
-54
-55
-58
-60
-56
-54
-57
-58
-59
-58
-60
-63
-61
-58
-60
-64
-64
-62
-65
-67
-70
-71
-71
-72
-74
-71
-72
-77
-82
-80
-80
-79
-81
-82
-80
-79
-82
-75
-71
-68
-67
-62
-57
-54
-56
-54
-50
-48
-48
-48
-47
-45
-46
-49
-45
-43
-47
-50
-47
-43
-44
-48
-49
-46
-45
-47
-49
-49
-48
-52
-49
-47
-46
-49
-51
-48
-48
-49
-52
-49
-47
-53
-56
-52
-49
-51
-54
-55
-51
-52
-53
-54
-52
-51
-54
-53
-52
-52
-53
-54
-52
-50
-52
-57
-53
-51
-52
-54
-54
-52
-53
-55
-51
-49
-50
-51
-47
-44
-45
-44
-47
-43
-39
-41
-44
-42
-40
-46
-45
-46
-45
-47
-51
-49
-51
-50
-54
-54
-52
-52
-53
-52
-49
-51
-53
-55
-50
-52
-53
-54
-53
-53
-54
-61
-66
-67
-77
-71
-40
-13
6
25
59
86
67
-14
-79
-82
-69
-64
-61
-57
-56
-60
-59
-57
-57
-58
-59
-56
-54
-54
-57
-54
-53
-54
-57
-56
-52
-52
-55
-55
-54
-53
-56
-56
-52
-52
-54
-57
-55
-53
-55
-58
-57
-56
-55
-57
-57
-57
-59
-60
-61
-60
-62
-67
-68
-66
-68
-75
-78
-76
-76
-80
-85
-83
-85
-85
-86
-85
-83
-81
-80
-79
-73
-73
-70
-70
-66
-65
-64
-61
-54
-51
-51
-50
-44
-45
-46
-46
-45
-43
-46
-47
-44
-45
-44
-47
-48
-44
-45
-46
-47
-45
-45
-47
-49
-45
-46
-49
-49
-47
-46
-51
-53
-51
-48
-50
-54
-51
-49
-51
-54
-54
-51
-50
-54
-52
-51
-51
-53
-52
-51
-51
-51
-53
-52
-50
-52
-52
-51
-51
-52
-53
-51
-49
-50
-52
-53
-49
-47
-49
-49
-46
-45
-46
-44
-39
-39
-43
-44
-40
-36
-38
-41
-39
-39
-40
-45
-42
-41
-45
-48
-49
-46
-46
-51
-53
-49
-49
-50
-52
-50
-49
-49
-50
-49
-47
-52
-58
-63
-69
-77
-76
-49
-39
5
19
46
69
95
118
113
51
-39
-71
-65
-59
-56
-59
-58
-57
-57
-60
-59
-57
-56
-59
-60
-58
-57
-57
-59
-59
-54
-53
-55
-56
-56
-54
-57
-58
-56
-56
-56
-57
-56
-55
-59
-60
-56
-56
-57
-59
-56
-54
-60
-62
-63
-61
-61
-64
-65
-64
-65
-69
-71
-72
-74
-77
-79
-78
-79
-81
-84
-83
-77
-78
-80
-75
-73
-64
-61
-59
-55
-52
-50
-49
-46
-46
-47
-46
-42
-41
-43
-46
-43
-41
-42
-44
-42
-40
-45
-45
-43
-42
-43
-44
-45
-42
-41
-44
-45
-43
-43
-44
-44
-44
-43
-45
-45
-42
-44
-45
-48
-45
-44
-45
-46
-46
-44
-45
-47
-45
-42
-44
-47
-48
-44
-43
-44
-46
-43
-43
-45
-43
-41
-41
-43
-47
-44
-40
-43
-44
-41
-39
-37
-39
-38
-35
-33
-33
-31
-28
-28
-30
-32
-28
-26
-28
-33
-34
-31
-34
-38
-37
-36
-40
-43
-39
-38
-39
-42
-41
-38
-37
-41
-41
-40
-38
-41
-43
-44
-49
-57
-66
-67
-49
-19
5
29
57
85
107
117
114
6
-62
-91
-85
-64
-57
-52
-48
-46
-48
-49
-48
-46
-45
-46
-43
-44
-47
-49
-45
-44
-47
-49
-46
-46
-44
-47
-46
-45
-45
-47
-44
-45
-46
-49
-50
-47
-47
-48
-49
-45
-46
-47
-49
-47
-47
-49
-53
-52
-51
-53
-58
-59
-55
-57
-62
-64
-62
-63
-65
-68
-65
-66
-68
-69
-66
-64
-61
-61
-54
-49
-47
-49
-46
-45
-44
-45
-41
-36
-35
-37
-38
-36
-35
-36
-38
-38
-35
-36
-37
-38
-35
-36
-39
-36
-35
-39
-41
-39
-38
-38
-41
-42
-39
-41
-42
-42
-42
-43
-46
-47
-42
-42
-45
-47
-44
-42
-45
-46
-48
-44
-46
-47
-47
-45
-43
-47
-46
-42
-43
-47
-49
-45
-43
-46
-47
-45
-44
-48
-47
-45
-42
-45
-47
-44
-39
-38
-40
-39
-38
-39
-38
-37
-31
-32
-36
-37
-36
-37
-42
-45
-44
-44
-48
-49
-45
-46
-48
-49
-47
-46
-50
-52
-48
-49
-48
-50
-50
-47
-48
-53
-57
-61
-70
-72
-52
-21
-1
15
48
84
74
-1
-72
-80
-64
-60
-57
-57
-56
-56
-58
-58
-56
-54
-57
-56
-51
-51
-55
-57
-55
-52
-53
-57
-51
-55
-55
-57
-53
-50
-52
-58
-57
-56
-53
-58
-58
-55
-55
-54
-55
-55
-54
-58
-59
-56
-56
-60
-64
-60
-62
-68
-72
-72
-73
-72
-77
-79
-77
-78
-83
-83
-80
-80
-83
-82
-77
-74
-75
-69
-64
-61
-56
-54
-49
-49
-48
-47
-45
-42
-43
-47
-43
-43
-42
-44
-47
-42
-43
-45
-44
-42
-43
-47
-47
-40
-43
-45
-47
-44
-43
-45
-49
-47
-45
-44
-48
-46
-45
-46
-49
-49
-46
-46
-49
-48
-43
-43
-47
-50
-45
-42
-44
-47
-46
-40
-44
-45
-44
-41
-43
-47
-44
-43
-43
-44
-47
-43
-42
-42
-42
-39
-38
-38
-39
-32
-33
-34
-33
-30
-29
-32
-34
-35
-35
-36
-39
-39
-38
-40
-42
-42
-38
-41
-44
-44
-42
-41
-44
-46
-43
-42
-45
-44
-43
-41
-49
-58
-60
-67
-64
-41
-5
5
41
68
94
88
10
-68
-82
-63
-58
-57
-53
-49
-46
-51
-53
-50
-48
-50
-52
-49
-46
-49
-51
-49
-48
-46
-48
-50
-48
-48
-49
-49
-47
-47
-51
-49
-47
-48
-49
-50
-47
-46
-51
-54
-53
-48
-51
-56
-54
-53
-55
-55
-57
-55
-57
-62
-65
-64
-65
-72
-73
-71
-72
-76
-78
-77
-75
-76
-77
-74
-70
-71
-71
-67
-64
-59
-57
-53
-48
-43
-43
-42
-39
-39
-41
-39
-35
-34
-38
-39
-37
-35
-36
-38
-37
-34
-35
-37
-37
-35
-35
-37
-38
-36
-35
-39
-37
-34
-36
-39
-40
-38
-35
-38
-39
-39
-37
-37
-39
-38
-34
-38
-41
-39
-41
-38
-38
-39
-36
-36
-39
-36
-37
-36
-39
-38
-35
-34
-37
-37
-36
-33
-35
-37
-34
-30
-29
-29
-28
-26
-25
-25
-24
-20
-20
-24
-21
-18
-19
-27
-30
-27
-26
-30
-32
-30
-30
-32
-32
-30
-29
-32
-34
-33
-30
-31
-33
-34
-32
-34
-33
-35
-34
-39
-48
-56
-59
-56
-37
-6
25
49
80
109
125
83
-9
-70
-69
-65
-50
-47
-44
-41
-41
-42
-42
-40
-40
-44
-43
-41
-41
-42
-43
-40
-38
-40
-44
-42
-40
-39
-39
-41
-41
-41
-41
-41
-38
-40
-43
-42
-41
-42
-43
-45
-44
-43
-45
-48
-46
-44
-47
-49
-50
-48
-50
-54
-54
-54
-56
-58
-61
-60
-63
-67
-67
-65
-66
-68
-69
-67
-62
-61
-61
-57
-50
-47
-47
-43
-39
-41
-40
-37
-34
-32
-34
-35
-31
-32
-33
-32
-31
-31
-34
-33
-30
-30
-34
-35
-31
-31
-34
-36
-35
-28
-32
-34
-33
-34
-33
-34
-34
-33
-33
-37
-34
-34
-33
-35
-35
-34
-32
-35
-36
-35
-33
-35
-38
-35
-35
-34
-37
-36
-35
-31
-35
-36
-32
-35
-33
-33
-31
-31
-32
-34
-31
-29
-30
-31
-28
-27
-26
-28
-25
-22
-22
-27
-23
-20
-18
-21
-23
-21
-19
-23
-27
-26
-25
-27
-29
-29
-28
-31
-32
-31
-30
-32
-35
-34
-32
-32
-34
-30
-30
-31
-33
-34
-30
-30
-33
-37
-40
-46
-57
-62
-44
-17
6
24
52
84
104
77
3
-53
-59
-49
-43
-40
-41
-46
-43
-40
-37
-40
-44
-40
-39
-41
-43
-42
-40
-43
-43
-39
-38
-38
-41
-41
-39
-38
-41
-42
-41
-40
-43
-41
-40
-42
-45
-45
-42
-41
-42
-44
-44
-43
-42
-45
-45
-43
-42
-47
-46
-45
-47
-50
-50
-51
-53
-58
-58
-57
-61
-63
-64
-64
-65
-68
-70
-68
-66
-66
-62
-59
-54
-53
-50
-47
-43
-42
-43
-42
-40
-37
-38
-38
-36
-36
-36
-36
-34
-32
-36
-39
-35
-32
-34
-36
-35
-35
-36
-35
-36
-34
-36
-38
-34
-33
-34
-36
-37
-36
-37
-38
-38
-38
-39
-39
-41
-36
-34
-36
-41
-40
-36
-35
-41
-39
-37
-36
-37
-37
-38
-38
-38
-36
-35
-38
-41
-40
-35
-35
-37
-38
-40
-37
-38
-38
-34
-31
-35
-33
-32
-27
-28
-30
-29
-26
-28
-28
-30
-29
-33
-35
-36
-34
-34
-37
-38
-36
-34
-36
-38
-38
-36
-39
-40
-42
-37
-39
-42
-42
-40
-40
-44
-43
-44
-45
-48
-53
-55
-61
-60
-41
-14
6
20
45
80
99
71
-9
-67
-69
-57
-52
-49
-46
-45
-48
-48
-45
-42
-45
-45
-43
-42
-42
-44
-42
-40
-43
-44
-44
-39
-39
-43
-43
-40
-40
-44
-43
-42
-40
-41
-41
-38
-37
-39
-42
-39
-40
-43
-44
-41
-40
-41
-43
-42
-41
-40
-43
-45
-44
-45
-49
-49
-48
-51
-56
-57
-59
-59
-62
-66
-65
-66
-68
-67
-64
-64
-63
-63
-57
-51
-48
-47
-44
-41
-40
-41
-35
-33
-31
-33
-31
-27
-26
-27
-27
-24
-24
-27
-27
-25
-23
-25
-28
-22
-21
-22
-25
-26
-23
-24
-25
-25
-23
-24
-25
-25
-23
-21
-25
-26
-24
-23
-25
-26
-24
-23
-25
-26
-25
-22
-25
-25
-24
-24
-23
-23
-25
-24
-23
-24
-24
-20
-21
-21
-22
-18
-17
-20
-21
-20
-17
-21
-21
-19
-16
-16
-21
-20
-17
-17
-19
-18
-16
-14
-13
-12
-9
-10
-11
-9
-6
-4
-8
-10
-6
-6
-9
-12
-13
-12
-15
-16
-16
-14
-16
-19
-19
-18
-15
-18
-19
-17
-15
-18
-19
-17
-16
-18
-21
-18
-18
-27
-33
-39
-43
-46
-24
10
39
61
86
120
131
88
0
-43
-34
-29
-26
-26
-24
-24
-26
-26
-25
-22
-24
-28
-24
-23
-22
-25
-25
-22
-24
-26
-24
-22
-21
-23
-24
-20
-21
-23
-24
-22
-21
-23
-24
-21
-21
-23
-26
-23
-24
-26
-27
-28
-25
-26
-27
-27
-26
-27
-31
-30
-31
-32
-34
-35
-35
-37
-41
-45
-44
-44
-47
-49
-50
-47
-49
-51
-51
-49
-48
-46
-44
-41
-35
-34
-32
-24
-24
-22
-21
-19
-17
-17
-17
-15
-13
-16
-17
-14
-14
-15
-18
-17
-13
-13
-16
-17
-16
-16
-16
-18
-13
-14
-19
-19
-16
-15
-15
-17
-16
-15
-17
-19
-18
-15
-16
-20
-20
-16
-18
-21
-19
-18
-16
-18
-18
-17
-17
-18
-18
-16
-16
-16
-18
-15
-13
-14
-17
-16
-14
-15
-16
-15
-10
-16
-17
-16
-14
-10
-11
-10
-6
-4
-6
-5
-3
-1
-3
-5
-2
0
-6
-10
-6
-6
-8
-12
-14
-9
-12
-15
-15
-14
-14
-15
-16
-14
-15
-18
-17
-16
-15
-17
-25
-29
-32
-37
-45
-48
-34
-6
20
45
71
101
126
111
97
-29
-39
-30
-25
-22
-22
-25
-23
-22
-24
-24
-23
-22
-23
-25
-24
-22
-24
-27
-28
-22
-24
-27
-25
-24
-22
-25
-24
-22
-23
-26
-26
-24
-23
-25
-29
-29
-27
-28
-30
-29
-30
-31
-33
-34
-32
-33
-39
-39
-38
-39
-42
-46
-47
-48
-52
-55
-53
-53
-54
-56
-54
-50
-48
-49
-44
-40
-38
-36
-34
-31
-27
-26
-25
-25
-24
-26
-24
-21
-19
-24
-24
-23
-22
-24
-24
-24
-23
-23
-26
-24
-23
-24
-28
-26
-28
-26
-27
-29
-28
-26
-30
-31
-29
-28
-29
-31
-30
-29
-31
-33
-30
-28
-31
-35
-32
-29
-28
-33
-34
-30
-30
-33
-31
-29
-30
-33
-35
-29
-28
-31
-32
-28
-30
-30
-31
-28
-28
-28
-28
-24
-21
-19
-24
-25
-19
-21
-18
-17
-16
-16
-19
-24
-21
-24
-26
-29
-28
-27
-30
-33
-30
-28
-30
-34
-37
-34
-33
-34
-32
-31
-32
-34
-35
-35
-45
-55
-61
-47
-19
2
18
50
86
98
47
-35
-66
-55
-49
-44
-41
-42
-44
-42
-38
-38
-38
-40
-38
-39
-41
-43
-41
-40
-40
-42
-38
-36
-38
-41
-39
-38
-38
-38
-37
-35
-40
-40
-41
-37
-39
-42
-40
-40
-42
-42
-45
-40
-40
-43
-44
-44
-44
-45
-47
-46
-48
-50
-52
-55
-55
-58
-62
-65
-64
-65
-68
-67
-67
-62
-64
-63
-58
-54
-51
-51
-46
-42
-40
-40
-36
-37
-35
-34
-32
-30
-31
-34
-33
-32
-35
-34
-34
-31
-29
-34
-36
-34
-34
-32
-34
-32
-30
-32
-34
-32
-32
-33
-35
-35
-34
-34
-36
-33
-32
-36
-39
-38
-35
-31
-32
-33
-34
-35
-38
-39
-34
-33
-36
-38
-33
-32
-33
-37
-37
-35
-34
-37
-39
-37
-35
-36
-35
-36
-30
-31
-33
-29
-28
-28
-30
-29
-28
-28
-30
-32
-32
-33
-32
-32
-34
-34
-36
-38
-35
-34
-39
-42
-42
-37
-39
-40
-39
-39
-39
-42
-38
-40
-42
-47
-49
-55
-60
-53
-20
11
29
54
90
104
47
-46
-85
-89
-61
-54
-51
-45
-42
-44
-47
-44
-44
-43
-45
-40
-39
-40
-43
-40
-38
-40
-42
-41
-37
-36
-37
-39
-40
-37
-38
-39
-37
-35
-36
-39
-34
-35
-36
-38
-36
-37
-37
-39
-37
-34
-37
-40
-42
-40
-40
-45
-47
-47
-47
-52
-57
-57
-57
-60
-64
-63
-64
-68
-71
-67
-66
-67
-67
-64
-58
-55
-52
-49
-43
-39
-35
-33
-32
-28
-30
-30
-26
-24
-26
-28
-26
-23
-24
-26
-24
-23
-24
-26
-25
-22
-24
-27
-28
-26
-25
-27
-27
-26
-25
-24
-29
-26
-27
-27
-30
-26
-24
-27
-30
-26
-25
-26
-26
-27
-25
-25
-27
-26
-24
-26
-27
-26
-24
-22
-24
-26
-24
-23
-23
-25
-22
-21
-21
-25
-24
-22
-24
-26
-24
-22
-22
-23
-20
-18
-18
-16
-16
-14
-9
-11
-14
-9
-9
-12
-17
-17
-15
-16
-19
-19
-17
-19
-22
-22
-18
-18
-22
-23
-18
-20
-20
-21
-22
-19
-22
-24
-19
-20
-26
-35
-39
-42
-45
-31
5
36
60
87
120
144
120
30
-37
-38
-31
-30
-30
-29
-24
-26
-30
-26
-24
-25
-26
-24
-21
-22
-27
-26
-25
-25
-25
-23
-21
-23
-24
-24
-20
-20
-23
-24
-25
-20
-23
-26
-24
-23
-24
-25
-25
-24
-28
-28
-26
-26
-30
-33
-32
-27
-31
-36
-36
-36
-40
-43
-44
-44
-47
-50
-52
-50
-49
-54
-55
-51
-49
-49
-49
-46
-40
-34
-35
-30
-27
-25
-25
-22
-20
-17
-17
-20
-19
-17
-18
-18
-15
-14
-16
-17
-16
-14
-17
-18
-17
-16
-15
-21
-19
-16
-17
-19
-20
-18
-19
-19
-20
-20
-20
-22
-22
-21
-20
-20
-24
-23
-21
-20
-22
-23
-20
-21
-25
-21
-21
-21
-22
-23
-20
-18
-21
-23
-22
-18
-19
-22
-19
-16
-17
-16
-14
-13
-12
-14
-13
-12
-9
-12
-9
-4
-6
-8
-8
-6
-9
-14
-15
-14
-12
-16
-20
-17
-14
-14
-18
-17
-16
-19
-20
-20
-19
-18
-20
-16
-18
-19
-28
-34
-39
-41
-33
-2
9
55
78
111
145
167
158
112
41
-20
-57
-60
-43
-34
-29
-28
-27
-27
-25
-29
-27
-25
-24
-26
-26
-26
-24
-25
-26
-23
-22
-23
-25
-24
-21
-20
-23
-21
-21
-24
-23
-20
-21
-22
-25
-25
-22
-21
-23
-25
-26
-24
-25
-28
-28
-26
-30
-32
-32
-30
-35
-38
-38
-38
-38
-41
-42
-41
-42
-47
-48
-46
-44
-49
-51
-50
-49
-47
-45
-39
-37
-36
-33
-28
-24
-22
-24
-22
-17
-15
-19
-17
-15
-16
-18
-17
-13
-16
-20
-17
-16
-16
-18
-20
-16
-16
-17
-19
-18
-16
-18
-20
-18
-16
-18
-19
-20
-16
-16
-19
-19
-18
-18
-21
-20
-18
-16
-19
-19
-16
-15
-17
-22
-18
-16
-17
-19
-18
-16
-16
-18
-15
-14
-15
-18
-17
-13
-10
-12
-14
-12
-8
-9
-10
-6
-3
-6
-8
-5
-2
-2
-4
-5
-4
-6
-10
-9
-7
-8
-12
-15
-13
-12
-17
-17
-16
-15
-17
-19
-16
-14
-16
-19
-16
-15
-22
-33
-37
-41
-47
-42
-21
11
34
49
74
100
126
127
69
44
-50
-43
-35
-29
-25
-23
-25
-22
-21
-23
-24
-23
-20
-21
-23
-22
-20
-19
-22
-24
-23
-19
-21
-22
-20
-20
-20
-23
-22
-19
-18
-22
-21
-19
-19
-22
-20
-18
-23
-25
-23
-22
-23
-25
-27
-26
-26
-27
-29
-28
-29
-31
-34
-34
-34
-39
-42
-41
-40
-44
-47
-45
-46
-46
-50
-48
-43
-41
-42
-42
-37
-32
-32
-31
-29
-23
-22
-25
-22
-18
-20
-23
-17
-14
-16
-21
-20
-19
-20
-21
-19
-20
-20
-23
-24
-22
-19
-19
-22
-21
-24
-27
-26
-24
-24
-27
-27
-25
-23
-24
-26
-27
-23
-25
-27
-27
-26
-30
-33
-30
-27
-27
-32
-30
-28
-25
-28
-32
-27
-26
-30
-30
-29
-28
-29
-31
-28
-24
-23
-25
-26
-23
-21
-21
-24
-23
-22
-21
-21
-20
-17
-23
-29
-27
-25
-22
-27
-27
-27
-28
-28
-30
-28
-28
-32
-32
-33
-31
-31
-32
-30
-29
-29
-36
-36
-35
-40
-47
-54
-55
-39
-12
18
37
63
91
118
111
41
-44
-75
-63
-52
-49
-41
-38
-37
-40
-44
-42
-36
-39
-40
-38
-36
-38
-39
-35
-34
-36
-40
-40
-37
-34
-33
-35
-37
-36
-38
-38
-37
-35
-37
-42
-40
-34
-36
-37
-36
-34
-36
-42
-41
-38
-39
-41
-42
-40
-43
-47
-49
-46
-49
-52
-55
-56
-57
-60
-62
-64
-64
-68
-72
-68
-64
-66
-65
-61
-55
-53
-54
-48
-42
-40
-38
-36
-32
-31
-30
-28
-26
-22
-23
-21
-20
-19
-21
-20
-18
-15
-18
-22
-18
-18
-18
-20
-20
-17
-21
-22
-19
-18
-19
-20
-22
-18
-20
-24
-25
-25
-23
-22
-24
-23
-21
-23
-27
-27
-26
-24
-26
-25
-24
-24
-27
-26
-23
-25
-28
-28
-24
-24
-24
-26
-25
-24
-27
-29
-25
-23
-24
-26
-22
-20
-18
-21
-20
-17
-15
-16
-15
-13
-13
-15
-16
-18
-19
-23
-24
-25
-21
-26
-30
-29
-28
-27
-28
-29
-27
-29
-31
-29
-28
-29
-32
-30
-28
-33
-43
-49
-52
-45
-17
19
31
78
110
127
85
-12
-59
-50
-39
-35
-34
-38
-39
-34
-36
-37
-34
-35
-35
-38
-40
-35
-33
-33
-37
-35
-33
-35
-33
-33
-32
-34
-34
-31
-31
-31
-34
-33
-29
-30
-34
-33
-33
-31
-34
-33
-31
-33
-35
-38
-39
-35
-41
-42
-41
-41
-44
-48
-49
-49
-51
-55
-57
-56
-60
-60
-60
-61
-59
-62
-59
-55
-51
-48
-48
-47
-40
-39
-41
-35
-30
-30
-30
-30
-27
-24
-26
-23
-20
-21
-25
-24
-22
-23
-24
-26
-22
-20
-25
-24
-22
-22
-24
-28
-25
-22
-24
-29
-24
-23
-25
-29
-29
-28
-27
-28
-28
-28
-28
-30
-30
-26
-26
-28
-30
-30
-26
-26
-29
-27
-25
-29
-32
-29
-27
-26
-29
-29
-28
-26
-29
-27
-24
-22
-22
-21
-18
-18
-21
-20
-19
-13
-10
-16
-14
-14
-11
-13
-12
-13
-16
-21
-21
-18
-18
-22
-23
-21
-23
-26
-26
-23
-23
-26
-27
-27
-23
-25
-29
-25
-25
-33
-42
-47
-53
-49
-29
3
28
45
58
80
107
130
124
51
-28
-48
-42
-37
-36
-30
-31
-34
-31
-28
-31
-33
-31
-27
-27
-33
-30
-27
-26
-30
-27
-28
-26
-30
-29
-28
-25
-28
-30
-29
-24
-27
-30
-30
-28
-29
-31
-30
-30
-30
-32
-30
-29
-29
-34
-36
-31
-33
-37
-39
-37
-39
-45
-45
-44
-46
-48
-52
-49
-50
-52
-52
-51
-50
-50
-47
-44
-40
-36
-31
-30
-28
-23
-26
-25
-21
-18
-20
-20
-20
-18
-18
-21
-17
-18
-18
-20
-17
-15
-17
-20
-21
-18
-18
-20
-22
-19
-20
-22
-21
-20
-19
-21
-23
-22
-20
-21
-23
-23
-22
-22
-26
-26
-23
-25
-27
-26
-25
-23
-26
-26
-25
-23
-25
-26
-24
-24
-28
-29
-28
-22
-22
-25
-21
-16
-17
-21
-18
-16
-15
-17
-15
-10
-9
-13
-18
-13
-16
-20
-20
-18
-16
-22
-24
-24
-23
-23
-29
-26
-26
-27
-28
-27
-25
-25
-27
-27
-24
-27
-38
-46
-50
-49
-30
3
29
49
74
108
119
114
53
-17
-63
-86
-88
-71
-49
-39
-34
-40
-38
-33
-31
-36
-37
-35
-33
-32
-34
-34
-33
-34
-34
-33
-30
-34
-35
-35
-31
-31
-36
-35
-34
-31
-37
-38
-35
-32
-32
-34
-35
-37
-39
-37
-37
-41
-41
-45
-45
-42
-46
-49
-48
-48
-53
-56
-54
-51
-59
-63
-64
-66
-68
-70
-65
-64
-63
-63
-57
-49
-45
-41
-37
-35
-29
-30
-31
-27
-27
-30
-32
-29
-26
-26
-29
-31
-27
-25
-26
-24
-23
-27
-30
-32
-27
-26
-29
-33
-31
-28
-30
-31
-31
-31
-33
-36
-33
-32
-33
-38
-37
-32
-37
-40
-38
-35
-33
-37
-39
-36
-34
-36
-37
-38
-35
-37
-38
-36
-35
-36
-37
-32
-27
-29
-32
-31
-28
-26
-26
-26
-26
-24
-26
-27
-29
-28
-32
-34
-35
-34
-35
-38
-37
-32
-35
-35
-37
-36
-35
-37
-36
-34
-35
-36
-39
-35
-35
-43
-50
-55
-59
-46
-11
3
49
71
104
115
58
-38
-77
-58
-49
-44
-44
-47
-44
-43
-44
-45
-44
-44
-46
-45
-42
-42
-44
-47
-46
-42
-44
-48
-44
-42
-42
-47
-46
-43
-44
-47
-45
-40
-41
-46
-45
-47
-45
-46
-48
-48
-46
-49
-53
-54
-50
-52
-57
-58
-58
-58
-63
-64
-66
-67
-71
-71
-73
-77
-81
-81
-78
-77
-81
-78
-71
-67
-64
-63
-62
-49
-47
-46
-42
-40
-37
-40
-34
-34
-36
-36
-36
-33
-34
-38
-40
-38
-36
-38
-37
-34
-32
-35
-35
-34
-33
-36
-39
-38
-37
-38
-42
-39
-38
-38
-41
-41
-41
-41
-43
-41
-39
-41
-41
-42
-40
-41
-43
-46
-45
-41
-43
-46
-43
-43
-42
-46
-44
-41
-43
-45
-45
-39
-39
-39
-39
-35
-32
-34
-34
-32
-29
-28
-30
-29
-25
-30
-35
-32
-32
-33
-38
-36
-35
-36
-41
-41
-40
-40
-41
-39
-38
-37
-42
-40
-38
-42
-49
-59
-61
-63
-70
-70
-49
-14
18
45
78
114
139
125
42
-38
-54
-49
-45
-45
-43
-47
-51
-46
-47
-49
-49
-48
-46
-48
-51
-48
-47
-47
-50
-48
-44
-45
-48
-48
-49
-47
-49
-50
-49
-47
-50
-51
-48
-47
-51
-53
-54
-50
-51
-54
-54
-53
-54
-58
-60
-58
-59
-64
-65
-66
-65
-72
-73
-72
-75
-77
-79
-78
-76
-79
-79
-79
-70
-69
-66
-59
-51
-50
-49
-45
-43
-40
-39
-38
-35
-35
-36
-35
-34
-33
-35
-36
-36
-34
-36
-35
-36
-34
-37
-38
-37
-34
-35
-37
-37
-35
-36
-39
-40
-38
-39
-40
-41
-40
-39
-40
-43
-41
-40
-42
-44
-43
-39
-40
-45
-43
-39
-41
-44
-43
-40
-40
-43
-42
-42
-39
-43
-43
-43
-42
-43
-40
-37
-33
-38
-34
-33
-30
-29
-28
-29
-23
-26
-29
-29
-30
-32
-34
-36
-33
-37
-40
-38
-37
-36
-39
-40
-37
-38
-38
-38
-37
-37
-39
-41
-38
-34
-38
-42
-49
-55
-61
-65
-48
-13
22
49
79
114
138
118
36
-39
-54
-48
-47
-48
-43
-46
-46
-46
-45
-45
-48
-47
-45
-44
-45
-44
-44
-43
-45
-45
-42
-41
-45
-46
-42
-43
-42
-45
-46
-41
-44
-45
-41
-40
-44
-46
-44
-40
-42
-44
-45
-42
-41
-46
-48
-44
-46
-50
-52
-52
-49
-53
-56
-56
-56
-62
-62
-63
-63
-66
-71
-69
-66
-68
-69
-70
-66
-62
-62
-59
-53
-51
-48
-45
-38
-37
-38
-36
-36
-29
-31
-35
-31
-29
-30
-31
-31
-29
-31
-31
-34
-29
-30
-31
-33
-31
-33
-33
-33
-31
-31
-34
-37
-37
-33
-34
-37
-37
-33
-35
-38
-37
-35
-37
-42
-38
-35
-37
-39
-40
-38
-36
-36
-39
-38
-38
-40
-41
-40
-37
-39
-40
-39
-36
-37
-39
-38
-33
-32
-32
-33
-29
-27
-30
-32
-28
-28
-28
-28
-25
-22
-27
-26
-24
-25
-31
-34
-32
-29
-32
-38
-37
-37
-37
-39
-40
-36
-38
-40
-42
-39
-37
-38
-39
-39
-38
-38
-44
-46
-54
-66
-70
-49
-15
14
35
64
96
115
90
8
-53
-60
-52
-52
-47
-43
-41
-44
-44
-44
-42
-46
-45
-38
-41
-45
-44
-41
-44
-45
-44
-39
-40
-41
-41
-39
-40
-42
-40
-41
-39
-43
-43
-41
-37
-41
-43
-44
-41
-42
-44
-46
-44
-44
-47
-46
-46
-49
-51
-52
-49
-49
-53
-56
-57
-57
-62
-64
-62
-63
-65
-69
-71
-69
-69
-70
-69
-65
-62
-62
-58
-51
-48
-48
-45
-41
-40
-43
-42
-40
-38
-40
-42
-39
-38
-39
-40
-40
-36
-37
-41
-39
-36
-40
-43
-44
-41
-39
-41
-42
-40
-42
-44
-45
-42
-40
-41
-46
-45
-42
-44
-47
-48
-42
-46
-49
-49
-45
-45
-49
-48
-49
-49
-50
-48
-46
-44
-47
-51
-48
-47
-49
-49
-46
-45
-47
-49
-50
-41
-39
-37
-38
-37
-37
-39
-35
-36
-39
-36
-38
-40
-40
-45
-48
-45
-43
-47
-51
-50
-48
-49
-52
-50
-48
-49
-49
-51
-48
-48
-50
-51
-50
-52
-56
-59
-60
-67
-75
-75
-48
-15
7
27
58
91
102
41
12
-88
-79
-67
-57
-53
-58
-62
-60
-56
-55
-58
-60
-56
-53
-56
-59
-57
-55
-58
-58
-55
-53
-58
-57
-56
-51
-53
-56
-53
-48
-51
-54
-54
-52
-51
-55
-57
-54
-51
-53
-59
-54
-53
-55
-57
-54
-55
-56
-60
-61
-57
-61
-67
-69
-64
-69
-74
-79
-78
-80
-83
-83
-83
-83
-84
-85
-82
-79
-80
-82
-78
-74
-71
-69
-66
-54
-52
-52
-48
-42
-40
-39
-40
-37
-37
-39
-41
-36
-37
-37
-36
-34
-34
-38
-40
-39
-35
-39
-40
-41
-38
-39
-42
-40
-41
-41
-45
-43
-44
-43
-46
-47
-43
-46
-48
-47
-46
-45
-48
-49
-47
-44
-48
-49
-51
-48
-47
-49
-52
-47
-48
-49
-49
-48
-48
-51
-49
-48
-47
-47
-49
-44
-40
-45
-47
-42
-40
-40
-42
-41
-38
-41
-46
-45
-45
-47
-50
-51
-49
-50
-51
-53
-51
-51
-52
-51
-50
-50
-55
-55
-51
-47
-49
-52
-53
-50
-56
-64
-70
-73
-77
-63
-25
14
41
69
104
130
103
10
-71
-72
-64
-59
-59
-57
-58
-59
-61
-63
-55
-57
-59
-59
-55
-57
-58
-57
-55
-55
-57
-58
-52
-53
-55
-58
-54
-51
-53
-54
-54
-49
-53
-56
-57
-51
-52
-55
-56
-53
-54
-58
-56
-55
-56
-60
-61
-59
-60
-62
-67
-65
-65
-69
-73
-73
-74
-77
-79
-80
-78
-80
-82
-80
-76
-75
-77
-70
-65
-59
-59
-56
-52
-50
-50
-49
-46
-44
-43
-44
-40
-39
-41
-42
-44
-39
-40
-41
-41
-42
-42
-45
-41
-40
-41
-43
-46
-43
-40
-44
-46
-45
-45
-44
-45
-43
-45
-45
-48
-47
-43
-46
-48
-49
-47
-47
-50
-49
-47
-47
-50
-49
-46
-48
-51
-51
-47
-46
-47
-51
-49
-48
-48
-49
-48
-41
-42
-44
-42
-37
-37
-41
-38
-33
-31
-35
-36
-33
-35
-38
-41
-39
-38
-42
-46
-44
-45
-45
-49
-48
-43
-45
-49
-48
-46
-43
-45
-46
-46
-47
-55
-61
-64
-68
-74
-64
-30
4
30
60
94
117
86
-8
-39
-61
-56
-57
-54
-53
-52
-54
-55
-51
-49
-53
-52
-50
-51
-53
-54
-50
-50
-51
-53
-51
-50
-51
-52
-50
-50
-49
-52
-52
-48
-50
-52
-52
-50
-49
-51
-54
-52
-47
-53
-53
-53
-53
-55
-56
-56
-56
-60
-63
-62
-62
-64
-67
-68
-67
-67
-68
-71
-70
-72
-75
-78
-74
-73
-73
-74
-70
-67
-64
-63
-56
-52
-50
-50
-49
-42
-44
-46
-45
-39
-40
-42
-45
-41
-39
-41
-41
-42
-43
-44
-43
-42
-42
-43
-46
-43
-42
-47
-47
-48
-45
-45
-47
-47
-45
-44
-47
-45
-43
-44
-48
-50
-47
-46
-48
-52
-47
-47
-50
-51
-49
-50
-51
-52
-51
-49
-49
-50
-50
-43
-43
-45
-43
-40
-40
-41
-41
-36
-29
-30
-33
-37
-38
-40
-41
-39
-40
-43
-46
-45
-43
-44
-46
-47
-43
-44
-44
-46
-43
-43
-47
-48
-44
-43
-53
-62
-67
-70
-56
-27
7
32
60
91
101
34
-57
-77
-60
-52
-51
-54
-53
-52
-51
-52
-55
-54
-56
-55
-55
-54
-52
-53
-54
-54
-51
-50
-56
-58
-53
-54
-55
-55
-51
-51
-53
-53
-50
-51
-53
-54
-52
-53
-56
-56
-51
-52
-52
-56
-54
-55
-56
-56
-57
-56
-62
-66
-65
-64
-66
-68
-72
-71
-69
-74
-75
-74
-74
-75
-72
-70
-68
-67
-64
-59
-55
-51
-51
-52
-45
-43
-46
-46
-45
-43
-47
-45
-44
-40
-44
-46
-42
-40
-42
-43
-41
-43
-46
-46
-43
-44
-47
-47
-48
-44
-43
-49
-50
-47
-44
-44
-45
-46
-49
-53
-54
-50
-45
-47
-49
-48
-53
-54
-55
-52
-50
-50
-52
-52
-50
-51
-53
-50
-47
-51
-57
-55
-49
-49
-54
-54
-47
-46
-47
-45
-48
-46
-48
-46
-43
-43
-39
-42
-43
-45
-48
-51
-52
-52
-54
-53
-53
-53
-51
-55
-57
-55
-55
-56
-58
-55
-54
-58
-65
-70
-73
-77
-74
-70
-25
4
17
39
76
99
69
-29
-86
-79
-71
-61
-58
-60
-65
-61
-55
-56
-60
-63
-57
-55
-59
-60
-61
-58
-57
-59
-57
-52
-55
-60
-57
-55
-55
-56
-59
-57
-55
-57
-60
-58
-56
-57
-58
-58
-54
-59
-60
-61
-57
-58
-63
-64
-63
-63
-67
-69
-70
-75
-79
-81
-80
-82
-87
-88
-86
-84
-89
-89
-89
-89
-90
-89
-88
-78
-74
-72
-67
-59
-54
-53
-53
-47
-46
-45
-48
-43
-41
-43
-43
-43
-41
-41
-44
-42
-42
-43
-44
-45
-42
-44
-45
-45
-42
-43
-47
-46
-43
-43
-49
-50
-47
-45
-49
-54
-53
-51
-50
-52
-51
-50
-51
-55
-56
-53
-53
-55
-55
-53
-53
-55
-54
-52
-52
-54
-57
-54
-53
-54
-55
-52
-50
-49
-50
-47
-43
-43
-46
-45
-39
-38
-37
-37
-38
-39
-46
-46
-46
-45
-47
-48
-48
-47
-49
-49
-47
-48
-49
-50
-49
-47
-49
-52
-51
-47
-49
-60
-68
-72
-72
-55
-11
27
59
93
130
138
66
-39
-76
-62
-58
-52
-55
-57
-55
-58
-60
-61
-56
-56
-59
-60
-56
-55
-58
-59
-57
-56
-59
-60
-57
-56
-58
-58
-56
-56
-60
-59
-59
-56
-58
-60
-61
-58
-59
-64
-62
-58
-59
-59
-61
-60
-61
-66
-70
-67
-66
-72
-76
-76
-76
-79
-81
-83
-82
-82
-85
-84
-81
-81
-79
-74
-71
-66
-66
-61
-56
-53
-53
-53
-50
-46
-47
-49
-47
-43
-44
-46
-43
-41
-41
-45
-45
-44
-44
-46
-46
-44
-47
-49
-47
-46
-48
-50
-49
-48
-48
-48
-51
-50
-49
-50
-52
-52
-49
-49
-53
-52
-49
-51
-54
-53
-48
-48
-50
-52
-48
-49
-53
-54
-51
-50
-51
-54
-52
-49
-50
-50
-49
-44
-42
-44
-44
-39
-39
-39
-36
-32
-33
-39
-42
-42
-39
-44
-46
-44
-43
-45
-48
-45
-45
-47
-46
-46
-44
-45
-48
-50
-43
-45
-45
-45
-45
-48
-53
-58
-60
-69
-70
-44
-7
24
53
86
116
107
20
-58
-63
-53
-52
-51
-52
-50
-55
-54
-53
-51
-51
-52
-52
-50
-50
-53
-49
-50
-50
-51
-55
-54
-52
-51
-55
-52
-50
-52
-53
-54
-50
-52
-55
-53
-51
-50
-56
-55
-54
-54
-58
-58
-57
-57
-58
-61
-60
-59
-64
-66
-65
-64
-67
-72
-73
-70
-71
-74
-73
-71
-72
-74
-76
-74
-70
-71
-72
-67
-63
-59
-59
-54
-52
-52
-50
-45
-44
-45
-45
-45
-40
-40
-42
-44
-41
-41
-41
-43
-42
-43
-44
-43
-42
-42
-44
-44
-43
-42
-43
-48
-47
-45
-45
-47
-46
-45
-46
-48
-48
-43
-45
-48
-47
-47
-43
-45
-46
-47
-46
-49
-51
-49
-46
-47
-49
-47
-46
-45
-45
-46
-45
-47
-48
-47
-45
-46
-47
-46
-41
-40
-39
-41
-38
-36
-33
-33
-31
-26
-26
-29
-31
-33
-36
-39
-38
-33
-34
-38
-39
-39
-38
-37
-39
-38
-38
-37
-41
-40
-39
-41
-43
-40
-39
-41
-44
-49
-53
-60
-68
-70
-39
-9
13
38
71
102
107
42
-40
-69
-62
-55
-50
-47
-51
-51
-50
-48
-49
-51
-51
-50
-49
-53
-54
-49
-50
-53
-53
-50
-51
-52
-53
-50
-51
-53
-54
-50
-50
-51
-55
-51
-49
-51
-53
-52
-51
-53
-53
-54
-51
-52
-58
-53
-50
-52
-55
-58
-57
-57
-59
-61
-61
-62
-65
-68
-64
-63
-66
-68
-68
-67
-67
-71
-73
-68
-69
-70
-66
-61
-60
-60
-57
-52
-46
-46
-48
-42
-40
-42
-41
-42
-40
-43
-45
-42
-37
-39
-42
-40
-38
-41
-44
-43
-42
-43
-47
-45
-41
-41
-43
-45
-44
-43
-47
-48
-43
-44
-45
-46
-44
-43
-46
-48
-49
-47
-45
-50
-51
-48
-48
-51
-52
-49
-47
-50
-53
-51
-51
-50
-51
-47
-47
-49
-52
-52
-49
-50
-51
-53
-48
-49
-51
-53
-50
-50
-52
-49
-46
-42
-44
-47
-44
-42
-40
-40
-39
-36
-36
-39
-38
-34
-37
-40
-41
-42
-42
-43
-46
-49
-50
-54
-51
-47
-45
-48
-51
-48
-44
-47
-49
-51
-49
-53
-57
-61
-62
-67
-64
-59
-5
14
29
56
92
104
64
-26
-83
-80
-71
-65
-55
-52
-54
-57
-55
-53
-51
-53
-54
-51
-51
-55
-55
-52
-53
-57
-55
-53
-50
-55
-55
-52
-55
-54
-55
-53
-51
-53
-53
-52
-51
-51
-54
-54
-51
-53
-54
-55
-52
-52
-54
-57
-55
-55
-57
-58
-57
-58
-61
-64
-62
-63
-65
-69
-69
-69
-72
-77
-77
-79
-78
-80
-81
-78
-77
-77
-74
-67
-64
-61
-59
-52
-48
-48
-46
-40
-38
-39
-38
-35
-31
-30
-33
-32
-30
-30
-32
-32
-28
-30
-31
-31
-27
-28
-31
-32
-30
-28
-30
-31
-29
-27
-32
-32
-31
-29
-31
-32
-32
-32
-33
-36
-35
-35
-34
-38
-36
-35
-34
-38
-39
-35
-35
-37
-38
-38
-36
-37
-37
-38
-36
-36
-38
-36
-35
-34
-37
-39
-35
-34
-34
-35
-35
-35
-37
-36
-32
-30
-29
-31
-29
-29
-31
-31
-26
-23
-20
-22
-20
-22
-28
-32
-34
-28
-29
-31
-33
-31
-30
-30
-33
-30
-30
-34
-33
-30
-29
-31
-32
-31
-31
-32
-36
-44
-50
-57
-55
-49
13
48
78
114
151
157
88
-12
-50
-43
-39
-37
-35
-35
-38
-40
-39
-36
-37
-41
-40
-36
-37
-39
-41
-38
-36
-40
-37
-35
-36
-38
-37
-34
-34
-36
-38
-37
-36
-36
-39
-37
-36
-38
-41
-40
-37
-39
-43
-44
-41
-42
-43
-45
-44
-45
-50
-51
-49
-52
-54
-59
-57
-56
-59
-63
-62
-62
-63
-63
-62
-60
-60
-61
-61
-51
-49
-47
-42
-38
-33
-34
-32
-28
-28
-27
-28
-25
-24
-25
-27
-25
-25
-25
-28
-27
-23
-23
-25
-27
-24
-24
-26
-29
-25
-22
-24
-26
-25
-24
-26
-29
-25
-24
-26
-30
-28
-26
-25
-29
-28
-26
-27
-28
-29
-25
-26
-30
-30
-25
-25
-27
-28
-27
-26
-26
-28
-25
-23
-26
-27
-23
-23
-25
-27
-26
-24
-22
-25
-25
-21
-17
-18
-18
-17
-15
-16
-13
-10
-7
-8
-15
-16
-15
-17
-19
-16
-17
-16
-23
-22
-17
-19
-22
-24
-20
-21
-22
-24
-21
-22
-22
-25
-25
-25
-33
-41
-45
-49
-35
-7
30
59
94
125
128
54
-32
-50
-46
-32
-31
-31
-32
-31
-32
-34
-35
-33
-32
-32
-34
-35
-32
-32
-35
-35
-33
-33
-33
-31
-31
-31
-33
-33
-32
-30
-33
-36
-34
-33
-35
-35
-35
-34
-35
-39
-36
-35
-37
-42
-40
-40
-43
-46
-48
-47
-49
-54
-55
-54
-57
-58
-60
-58
-59
-61
-61
-58
-55
-55
-56
-54
-51
-48
-45
-41
-38
-34
-35
-30
-27
-26
-27
-29
-26
-24
-27
-26
-23
-23
-24
-25
-25
-25
-26
-29
-25
-24
-26
-31
-28
-26
-27
-30
-28
-26
-30
-31
-32
-29
-30
-30
-31
-30
-31
-30
-30
-29
-29
-32
-34
-30
-28
-28
-31
-29
-27
-27
-31
-32
-28
-27
-29
-28
-27
-26
-27
-29
-27
-26
-28
-30
-25
-25
-26
-26
-22
-21
-20
-20
-19
-20
-18
-18
-14
-10
-10
-13
-16
-16
-19
-21
-23
-20
-22
-25
-25
-24
-25
-26
-27
-28
-24
-25
-28
-26
-26
-26
-28
-29
-37
-42
-52
-55
-23
12
30
54
80
110
133
144
123
44
-40
-76
-65
-47
-39
-37
-37
-37
-36
-38
-37
-36
-36
-37
-37
-32
-34
-37
-35
-34
-33
-36
-38
-35
-34
-36
-40
-36
-36
-35
-38
-36
-34
-35
-35
-38
-35
-36
-39
-41
-38
-36
-41
-45
-40
-41
-44
-49
-49
-48
-52
-54
-54
-52
-58
-61
-57
-57
-57
-61
-59
-53
-51
-48
-47
-39
-37
-36
-33
-30
-28
-30
-30
-27
-26
-26
-28
-27
-24
-25
-27
-26
-24
-23
-27
-29
-28
-25
-29
-30
-24
-22
-24
-28
-28
-28
-28
-29
-27
-27
-32
-30
-28
-28
-33
-37
-35
-30
-32
-35
-37
-32
-30
-33
-31
-34
-34
-34
-35
-31
-31
-34
-34
-34
-33
-37
-40
-35
-30
-30
-32
-35
-33
-29
-33
-32
-32
-28
-33
-34
-29
-26
-26
-26
-28
-27
-26
-24
-22
-19
-20
-23
-22
-21
-23
-25
-26
-26
-28
-30
-29
-27
-28
-31
-32
-28
-27
-32
-32
-31
-26
-27
-30
-29
-35
-42
-49
-53
-42
-17
13
38
59
90
112
94
9
-64
-79
-78
-54
-47
-45
-39
-37
-37
-38
-39
-33
-32
-34
-39
-34
-31
-29
-34
-32
-31
-30
-33
-33
-31
-33
-32
-32
-29
-30
-35
-34
-33
-28
-32
-33
-32
-31
-32
-35
-32
-32
-35
-36
-36
-35
-41
-42
-41
-40
-43
-50
-52
-51
-53
-57
-60
-60
-60
-61
-64
-62
-59
-56
-53
-49
-47
-45
-44
-40
-35
-30
-27
-26
-21
-18
-19
-21
-13
-15
-18
-20
-17
-14
-17
-19
-17
-15
-17
-20
-19
-16
-18
-20
-21
-19
-19
-21
-21
-19
-20
-24
-26
-25
-22
-25
-28
-24
-24
-26
-25
-24
-25
-25
-28
-23
-23
-28
-28
-27
-24
-24
-27
-28
-23
-22
-24
-25
-22
-23
-26
-28
-21
-21
-22
-27
-26
-23
-24
-26
-21
-17
-17
-19
-15
-14
-13
-14
-14
-8
-5
-8
-10
-11
-13
-16
-16
-16
-15
-17
-22
-21
-17
-20
-25
-22
-19
-20
-22
-23
-21
-21
-25
-23
-21
-28
-39
-43
-45
-39
-16
19
49
79
108
136
165
167
126
42
-27
-47
-39
-39
-37
-33
-30
-34
-37
-33
-32
-36
-36
-33
-33
-35
-37
-33
-34
-36
-37
-36
-33
-35
-37
-36
-32
-35
-36
-37
-33
-33
-37
-37
-35
-35
-37
-38
-37
-36
-38
-40
-39
-38
-41
-45
-44
-44
-46
-51
-50
-51
-50
-55
-52
-51
-56
-58
-59
-58
-58
-60
-62
-59
-58
-57
-55
-51
-45
-46
-39
-35
-32
-30
-32
-29
-24
-25
-30
-26
-26
-23
-26
-27
-24
-24
-25
-25
-23
-25
-27
-27
-26
-25
-27
-30
-26
-26
-27
-31
-31
-27
-30
-32
-31
-29
-30
-33
-34
-31
-33
-34
-35
-32
-34
-36
-38
-33
-33
-35
-38
-36
-33
-34
-37
-36
-32
-33
-34
-35
-33
-34
-37
-36
-32
-30
-34
-36
-32
-32
-34
-36
-33
-32
-32
-32
-28
-26
-26
-27
-27
-23
-23
-25
-21
-18
-18
-24
-26
-27
-27
-31
-32
-28
-29
-33
-36
-34
-33
-37
-35
-35
-32
-34
-38
-36
-34
-33
-38
-36
-34
-33
-38
-41
-46
-52
-60
-63
-47
-18
9
34
66
92
109
71
-10
-55
-57
-52
-48
-44
-47
-51
-49
-47
-47
-51
-51
-47
-47
-48
-50
-48
-47
-52
-51
-49
-47
-49
-50
-49
-46
-47
-51
-48
-49
-50
-51
-50
-48
-49
-51
-52
-50
-52
-52
-53
-53
-52
-55
-57
-55
-53
-55
-60
-59
-57
-60
-62
-61
-61
-65
-70
-70
-70
-72
-76
-76
-72
-74
-77
-78
-74
-72
-69
-68
-62
-59
-56
-53
-51
-47
-48
-49
-45
-41
-42
-45
-43
-41
-41
-42
-44
-43
-43
-45
-46
-42
-43
-44
-45
-44
-42
-45
-45
-44
-43
-45
-50
-46
-45
-45
-51
-49
-47
-47
-50
-50
-49
-50
-50
-51
-50
-51
-54
-53
-50
-48
-52
-52
-50
-48
-47
-52
-51
-48
-47
-50
-50
-49
-49
-52
-50
-45
-45
-49
-50
-46
-47
-47
-48
-44
-46
-48
-50
-47
-46
-48
-49
-45
-41
-43
-43
-43
-42
-41
-39
-37
-33
-32
-36
-37
-39
-40
-42
-43
-42
-42
-45
-49
-47
-44
-46
-50
-51
-48
-48
-50
-50
-49
-50
-50
-51
-49
-50
-54
-55
-58
-64
-72
-78
-67
-38
-12
7
35
61
80
55
-21
-77
-80
-71
-66
-60
-60
-64
-62
-62
-61
-62
-63
-61
-58
-61
-62
-61
-61
-64
-63
-60
-60
-66
-64
-62
-61
-61
-65
-62
-60
-62
-63
-63
-61
-61
-64
-64
-61
-61
-66
-67
-62
-61
-63
-64
-63
-63
-64
-65
-67
-66
-68
-72
-71
-69
-73
-78
-79
-77
-80
-81
-83
-86
-86
-88
-89
-89
-85
-86
-87
-80
-76
-73
-73
-71
-67
-66
-67
-61
-57
-56
-58
-58
-54
-52
-56
-59
-54
-53
-57
-57
-52
-52
-53
-56
-57
-56
-54
-57
-54
-54
-57
-61
-58
-55
-56
-58
-61
-60
-59
-60
-61
-59
-59
-60
-61
-62
-62
-64
-66
-63
-62
-63
-68
-65
-66
-65
-67
-68
-62
-62
-67
-66
-63
-65
-64
-65
-63
-59
-61
-65
-66
-65
-66
-65
-64
-62
-64
-63
-61
-62
-64
-65
-66
-61
-61
-63
-65
-63
-61
-63
-65
-62
-60
-60
-61
-59
-56
-58
-58
-55
-51
-51
-54
-55
-55
-59
-61
-61
-59
-61
-64
-64
-62
-62
-63
-64
-63
-60
-62
-64
-61
-61
-64
-66
-65
-69
-77
-85
-89
-82
-59
-33
-12
3
8
27
56
85
70
-18
-49
-97
-84
-77
-74
-71
-71
-72
-74
-70
-67
-69
-72
-69
-66
-67
-73
-69
-69
-67
-71
-69
-66
-66
-69
-71
-69
-67
-67
-70
-68
-66
-66
-68
-66
-66
-68
-70
-67
-67
-67
-72
-73
-69
-70
-73
-73
-75
-74
-76
-79
-78
-79
-84
-87
-87
-88
-94
-94
-97
-95
-97
-100
-97
-95
-94
-94
-90
-82
-81
-82
-79
-72
-73
-72
-71
-62
-58
-60
-58
-57
-53
-52
-55
-52
-50
-51
-53
-51
-50
-51
-55
-53
-49
-52
-54
-56
-52
-50
-52
-53
-53
-53
-55
-54
-52
-52
-56
-58
-57
-53
-55
-59
-59
-56
-55
-57
-57
-56
-61
-61
-61
-56
-57
-59
-58
-55
-55
-59
-58
-55
-53
-57
-58
-57
-53
-54
-58
-56
-53
-54
-55
-55
-52
-55
-57
-55
-52
-51
-54
-55
-51
-48
-48
-46
-45
-43
-45
-45
-42
-39
-38
-39
-37
-37
-41
-46
-45
-45
-47
-49
-51
-49
-50
-52
-54
-47
-48
-52
-53
-49
-48
-51
-53
-53
-50
-51
-57
-64
-67
-76
-84
-70
-42
-13
5
21
45
67
88
95
131
102
11
-56
-65
-58
-59
-58
-57
-59
-59
-59
-59
-56
-61
-62
-58
-56
-56
-58
-60
-57
-56
-59
-59
-58
-58
-56
-58
-54
-55
-56
-58
-57
-54
-56
-59
-58
-55
-57
-60
-60
-58
-60
-62
-60
-55
-58
-62
-61
-63
-64
-64
-68
-66
-68
-70
-74
-74
-73
-76
-81
-80
-80
-79
-81
-80
-77
-78
-77
-73
-67
-66
-62
-63
-54
-50
-49
-49
-47
-45
-45
-46
-43
-43
-45
-44
-44
-40
-42
-47
-43
-42
-40
-44
-46
-44
-47
-48
-49
-44
-43
-44
-46
-44
-46
-50
-47
-47
-44
-47
-50
-48
-44
-47
-52
-50
-48
-47
-49
-49
-48
-50
-51
-51
-49
-48
-51
-51
-49
-48
-51
-53
-52
-49
-51
-50
-51
-49
-50
-51
-51
-48
-49
-51
-52
-48
-48
-51
-52
-50
-50
-49
-51
-46
-46
-45
-43
-43
-39
-43
-44
-41
-35
-35
-35
-34
-35
-41
-43
-44
-42
-43
-46
-48
-47
-45
-49
-51
-49
-46
-48
-49
-50
-48
-48
-51
-50
-46
-49
-56
-64
-65
-73
-71
-44
-10
17
44
55
105
113
62
-26
-85
-87
-74
-70
-63
-57
-58
-61
-59
-57
-60
-59
-60
-57
-58
-59
-60
-56
-55
-58
-59
-58
-56
-60
-59
-55
-56
-59
-60
-60
-55
-58
-59
-58
-57
-59
-62
-62
-60
-61
-62
-64
-63
-63
-64
-66
-63
-65
-70
-70
-69
-71
-71
-77
-79
-75
-78
-79
-81
-79
-80
-82
-78
-72
-73
-72
-68
-61
-59
-58
-57
-50
-46
-46
-48
-48
-44
-45
-45
-45
-45
-44
-48
-45
-43
-43
-47
-46
-45
-43
-46
-45
-46
-45
-48
-49
-47
-45
-49
-49
-48
-46
-48
-50
-51
-47
-49
-49
-52
-49
-49
-50
-51
-51
-52
-54
-56
-54
-51
-53
-53
-50
-50
-49
-51
-52
-49
-53
-53
-52
-49
-50
-53
-54
-49
-50
-49
-51
-49
-50
-54
-49
-51
-51
-55
-56
-52
-52
-52
-53
-50
-47
-46
-46
-46
-45
-47
-50
-46
-41
-41
-41
-40
-41
-42
-48
-49
-46
-47
-49
-51
-48
-48
-51
-52
-49
-48
-51
-52
-50
-50
-51
-53
-52
-49
-52
-57
-61
-63
-70
-80
-70
-36
-7
12
19
75
87
27
-61
-87
-72
-66
-63
-59
-60
-60
-61
-59
-55
-57
-58
-60
-55
-56
-58
-57
-57
-53
-56
-57
-56
-56
-57
-57
-57
-53
-56
-57
-54
-52
-54
-57
-57
-54
-56
-60
-58
-56
-58
-58
-59
-55
-58
-61
-63
-64
-60
-64
-69
-71
-67
-69
-75
-75
-76
-78
-80
-78
-76
-76
-77
-71
-65
-63
-62
-60
-54
-47
-46
-47
-45
-42
-41
-43
-42
-41
-39
-38
-39
-37
-41
-41
-43
-41
-40
-45
-42
-38
-39
-42
-44
-43
-42
-46
-46
-44
-45
-48
-47
-44
-44
-46
-49
-48
-44
-47
-49
-48
-46
-49
-52
-50
-45
-48
-53
-52
-47
-45
-48
-49
-50
-47
-51
-50
-49
-47
-48
-49
-50
-45
-48
-51
-49
-45
-46
-50
-49
-47
-46
-48
-51
-49
-50
-50
-51
-50
-48
-47
-49
-47
-45
-45
-43
-41
-42
-44
-47
-42
-34
-35
-36
-38
-39
-42
-44
-46
-46
-44
-48
-49
-46
-46
-47
-49
-45
-43
-48
-47
-49
-43
-43
-46
-47
-46
-55
-63
-69
-65
-39
-6
18
45
78
98
101
-31
-77
-67
-59
-53
-51
-52
-53
-51
-50
-49
-50
-48
-46
-48
-51
-48
-43
-46
-49
-46
-46
-44
-44
-45
-46
-45
-44
-44
-45
-43
-44
-46
-46
-44
-45
-49
-48
-43
-44
-50
-50
-48
-49
-53
-55
-55
-57
-61
-62
-62
-64
-67
-70
-69
-68
-71
-72
-70
-69
-71
-73
-69
-65
-63
-63
-59
-51
-47
-46
-42
-36
-32
-32
-33
-29
-27
-28
-28
-26
-25
-25
-28
-27
-25
-25
-29
-28
-25
-28
-29
-31
-27
-27
-28
-30
-28
-30
-31
-32
-29
-28
-32
-33
-32
-30
-31
-36
-37
-33
-35
-39
-36
-31
-33
-38
-37
-33
-34
-34
-35
-34
-34
-35
-36
-34
-34
-37
-36
-35
-33
-33
-37
-36
-31
-33
-36
-37
-34
-35
-35
-33
-33
-31
-35
-30
-26
-26
-27
-28
-25
-21
-23
-23
-18
-17
-18
-20
-23
-23
-24
-27
-29
-28
-27
-33
-33
-30
-30
-32
-31
-30
-29
-32
-33
-30
-29
-31
-34
-32
-31
-35
-36
-40
-47
-57
-55
-26
14
43
70
108
137
114
24
-45
-47
-39
-40
-40
-36
-36
-38
-39
-37
-35
-38
-41
-40
-36
-36
-38
-39
-38
-37
-38
-37
-34
-35
-37
-38
-36
-34
-36
-38
-37
-36
-36
-38
-38
-35
-38
-40
-40
-36
-40
-43
-42
-40
-40
-45
-45
-43
-46
-48
-51
-47
-49
-51
-52
-54
-54
-57
-59
-59
-57
-57
-61
-59
-55
-55
-52
-48
-41
-40
-38
-36
-29
-30
-29
-29
-25
-23
-24
-25
-24
-24
-25
-27
-26
-25
-27
-28
-28
-25
-25
-30
-31
-28
-29
-31
-32
-26
-30
-31
-32
-30
-29
-31
-32
-32
-32
-35
-35
-33
-34
-35
-38
-36
-33
-34
-39
-38
-36
-36
-39
-38
-38
-38
-38
-38
-36
-38
-38
-39
-36
-34
-39
-39
-37
-35
-36
-39
-37
-37
-36
-38
-38
-37
-36
-42
-40
-38
-37
-39
-41
-38
-35
-37
-38
-35
-34
-33
-36
-34
-32
-31
-34
-32
-26
-26
-28
-26
-26
-29
-35
-36
-33
-35
-39
-38
-38
-40
-40
-41
-39
-37
-40
-43
-40
-38
-39
-41
-43
-39
-42
-44
-46
-52
-58
-68
-69
-53
-23
2
25
54
81
102
107
31
-46
-73
-63
-57
-52
-52
-54
-54
-51
-52
-55
-51
-52
-53
-57
-55
-52
-52
-54
-55
-52
-53
-52
-53
-53
-51
-53
-55
-52
-51
-52
-55
-54
-53
-51
-54
-55
-53
-53
-55
-54
-53
-55
-58
-58
-56
-57
-57
-58
-59
-58
-61
-62
-60
-60
-61
-65
-66
-65
-65
-69
-69
-69
-70
-75
-77
-72
-71
-75
-75
-71
-68
-69
-70
-59
-55
-55
-51
-50
-45
-45
-45
-42
-40
-41
-43
-43
-40
-37
-40
-42
-41
-41
-42
-44
-41
-41
-43
-45
-44
-42
-44
-48
-47
-45
-46
-46
-45
-41
-44
-49
-49
-46
-45
-52
-53
-51
-52
-53
-51
-53
-51
-52
-53
-52
-52
-53
-56
-53
-52
-56
-57
-55
-53
-55
-60
-56
-50
-53
-57
-55
-52
-54
-53
-54
-50
-53
-53
-53
-53
-52
-56
-56
-55
-52
-53
-54
-53
-52
-51
-55
-54
-50
-54
-57
-56
-52
-50
-50
-52
-49
-47
-48
-49
-48
-45
-45
-47
-41
-39
-41
-45
-47
-47
-49
-51
-53
-49
-51
-56
-57
-52
-51
-54
-58
-54
-54
-54
-54
-56
-54
-56
-59
-54
-52
-54
-58
-66
-69
-71
-78
-82
-72
-49
-22
-3
22
47
72
67
5
-68
-90
-92
-72
-69
-64
-68
-67
-64
-63
-67
-66
-63
-62
-62
-63
-61
-64
-67
-66
-63
-63
-64
-66
-64
-62
-63
-65
-63
-64
-65
-63
-59
-59
-61
-65
-63
-59
-61
-64
-65
-64
-66
-65
-64
-61
-64
-67
-68
-66
-64
-68
-69
-72
-72
-72
-75
-76
-76
-80
-84
-83
-81
-83
-85
-86
-84
-83
-85
-82
-77
-74
-73
-70
-65
-61
-61
-60
-56
-52
-50
-51
-49
-49
-47
-47
-46
-45
-49
-46
-49
-44
-47
-49
-48
-46
-45
-49
-51
-48
-48
-49
-50
-48
-46
-49
-52
-49
-48
-48
-51
-52
-52
-53
-54
-52
-50
-52
-56
-56
-52
-53
-54
-57
-55
-53
-53
-56
-52
-52
-51
-54
-54
-51
-53
-55
-56
-50
-50
-52
-52
-51
-52
-53
-52
-50
-48
-52
-53
-49
-48
-50
-51
-50
-48
-50
-51
-51
-49
-49
-49
-49
-45
-44
-45
-42
-38
-37
-40
-41
-36
-35
-35
-35
-34
-37
-41
-42
-41
-40
-43
-43
-41
-40
-44
-47
-48
-44
-45
-48
-49
-45
-46
-49
-49
-45
-46
-46
-48
-46
-46
-50
-53
-62
-67
-72
-59
-27
3
27
54
86
110
84
4
-68
-82
-70
-64
-62
-53
-52
-54
-55
-54
-50
-52
-53
-51
-50
-52
-53
-53
-49
-51
-51
-52
-49
-49
-51
-51
-48
-47
-49
-49
-48
-48
-50
-51
-49
-50
-49
-49
-51
-49
-52
-54
-51
-50
-50
-52
-53
-51
-52
-55
-56
-56
-58
-60
-60
-61
-63
-68
-71
-67
-66
-70
-71
-74
-72
-70
-72
-70
-67
-63
-61
-54
-51
-46
-47
-43
-36
-34
-37
-37
-33
-32
-31
-33
-32
-31
-31
-32
-31
-30
-31
-36
-33
-29
-30
-32
-33
-29
-31
-35
-34
-31
-32
-35
-37
-35
-32
-35
-38
-37
-37
-38
-38
-38
-36
-38
-39
-38
-36
-38
-40
-40
-40
-38
-42
-41
-37
-39
-42
-42
-37
-39
-40
-41
-40
-38
-39
-40
-39
-39
-37
-40
-40
-40
-39
-40
-39
-37
-38
-39
-40
-35
-34
-36
-36
-31
-31
-32
-32
-29
-25
-27
-27
-21
-18
-26
-32
-30
-29
-31
-34
-35
-33
-35
-38
-39
-36
-36
-38
-39
-37
-36
-39
-42
-36
-37
-40
-42
-53
-56
-61
-70
-66
-48
-19
10
40
75
105
104
34
-44
-59
-50
-49
-45
-41
-44
-46
-43
-43
-43
-45
-41
-39
-41
-44
-43
-41
-42
-43
-44
-39
-41
-39
-40
-40
-42
-41
-41
-39
-40
-42
-43
-39
-40
-41
-42
-42
-41
-42
-44
-44
-43
-45
-48
-49
-47
-50
-55
-54
-52
-54
-58
-60
-58
-59
-62
-62
-60
-61
-60
-62
-63
-59
-58
-60
-56
-50
-48
-44
-42
-35
-34
-35
-29
-26
-26
-29
-29
-26
-23
-26
-26
-25
-23
-25
-25
-28
-26
-27
-28
-26
-25
-26
-30
-30
-26
-27
-32
-30
-30
-29
-30
-32
-32
-31
-35
-36
-32
-31
-34
-36
-33
-32
-32
-36
-36
-33
-33
-37
-36
-33
-35
-35
-35
-34
-35
-35
-38
-38
-34
-35
-37
-36
-35
-38
-39
-36
-33
-35
-39
-35
-35
-35
-40
-41
-39
-38
-38
-38
-35
-34
-37
-36
-33
-32
-36
-37
-32
-27
-27
-28
-27
-25
-29
-34
-36
-35
-34
-39
-40
-39
-42
-44
-43
-40
-38
-42
-45
-44
-44
-44
-47
-43
-43
-43
-44
-47
-49
-57
-63
-68
-69
-49
-22
2
25
52
77
77
16
-61
-83
-66
-56
-54
-55
-58
-55
-55
-55
-57
-55
-53
-55
-57
-54
-53
-56
-58
-59
-55
-55
-57
-57
-53
-53
-56
-58
-56
-54
-58
-59
-57
-55
-60
-63
-58
-55
-55
-59
-60
-58
-59
-60
-61
-59
-61
-64
-65
-62
-63
-67
-69
-71
-72
-75
-79
-77
-78
-81
-82
-83
-81
-82
-82
-77
-73
-72
-71
-69
-63
-59
-58
-56
-51
-51
-51
-51
-47
-46
-47
-46
-44
-45
-46
-48
-48
-46
-47
-50
-48
-45
-44
-48
-49
-49
-48
-50
-51
-48
-48
-50
-50
-50
-53
-53
-51
-51
-49
-53
-54
-55
-54
-54
-56
-56
-57
-55
-58
-57
-54
-57
-58
-58
-55
-56
-60
-59
-57
-55
-57
-59
-57
-54
-55
-57
-58
-57
-58
-57
-57
-55
-56
-58
-59
-55
-56
-57
-56
-52
-53
-54
-55
-50
-46
-50
-51
-48
-46
-44
-45
-45
-45
-45
-50
-52
-50
-52
-54
-55
-54
-55
-57
-55
-54
-55
-57
-57
-56
-56
-55
-58
-54
-53
-55
-58
-67
-74
-84
-83
-65
-40
-19
-9
5
23
49
80
87
29
-62
-94
-77
-65
-60
-61
-64
-59
-58
-59
-62
-61
-60
-58
-59
-57
-56
-56
-60
-57
-53
-56
-60
-57
-56
-56
-59
-60
-58
-57
-57
-59
-56
-57
-59
-60
-59
-57
-61
-63
-61
-60
-60
-64
-66
-65
-66
-69
-71
-70
-71
-76
-78
-77
-77
-80
-84
-83
-81
-83
-85
-85
-83
-81
-81
-78
-72
-65
-65
-61
-55
-51
-52
-48
-47
-45
-44
-47
-46
-44
-45
-47
-43
-43
-44
-46
-45
-44
-44
-46
-47
-44
-45
-47
-46
-45
-45
-47
-47
-45
-46
-48
-51
-47
-45
-48
-50
-50
-47
-49
-49
-49
-49
-48
-53
-52
-48
-50
-52
-53
-48
-47
-49
-50
-48
-47
-49
-52
-49
-50
-49
-51
-50
-46
-49
-50
-51
-49
-49
-49
-47
-47
-47
-49
-50
-47
-46
-46
-46
-42
-41
-41
-45
-41
-37
-38
-38
-37
-37
-38
-39
-36
-35
-36
-38
-40
-42
-42
-43
-44
-42
-45
-50
-49
-48
-46
-50
-51
-51
-50
-48
-53
-51
-50
-50
-52
-57
-64
-71
-79
-70
-39
-7
15
48
84
107
72
-24
-76
-65
-62
-60
-59
-58
-60
-61
-59
-59
-59
-60
-60
-57
-56
-59
-58
-57
-55
-58
-58
-56
-56
-56
-58
-54
-55
-57
-59
-58
-55
-58
-63
-60
-59
-57
-58
-61
-61
-62
-63
-63
-61
-65
-66
-67
-66
-67
-72
-77
-73
-74
-79
-80
-82
-81
-82
-82
-81
-80
-84
-85
-84
-82
-79
-79
-75
-71
-65
-63
-62
-56
-54
-55
-52
-50
-49
-50
-54
-50
-48
-51
-53
-52
-47
-48
-49
-50
-50
-52
-52
-52
-50
-54
-55
-54
-51
-52
-55
-56
-53
-53
-57
-57
-55
-55
-57
-58
-55
-53
-56
-58
-56
-54
-57
-60
-58
-54
-55
-60
-60
-57
-56
-58
-61
-58
-58
-59
-59
-58
-57
-60
-60
-56
-55
-58
-59
-60
-56
-58
-60
-61
-59
-59
-60
-59
-57
-56
-56
-53
-52
-52
-52
-53
-49
-44
-48
-50
-48
-47
-50
-52
-55
-53
-55
-57
-55
-54
-57
-61
-62
-59
-57
-58
-60
-61
-59
-60
-63
-61
-60
-63
-65
-63
-68
-77
-81
-89
-72
-41
-19
0
21
39
55
77
99
102
62
-28
-89
-88
-78
-74
-68
-69
-72
-73
-69
-67
-68
-69
-69
-69
-70
-71
-70
-67
-69
-70
-70
-66
-66
-69
-72
-68
-68
-72
-72
-70
-66
-69
-73
-71
-70
-70
-71
-72
-71
-72
-73
-74
-72
-74
-78
-79
-76
-80
-82
-83
-81
-84
-89
-90
-90
-92
-92
-92
-93
-91
-93
-95
-97
-95
-94
-92
-88
-84
-83
-83
-82
-75
-71
-73
-70
-68
-64
-66
-67
-65
-61
-64
-63
-61
-58
-61
-63
-61
-62
-62
-63
-64
-62
-59
-61
-62
-60
-60
-63
-65
-64
-61
-63
-63
-63
-63
-66
-68
-64
-62
-66
-68
-69
-66
-66
-66
-66
-65
-65
-68
-69
-64
-66
-71
-69
-67
-66
-69
-70
-67
-66
-67
-68
-66
-65
-68
-69
-66
-64
-66
-68
-69
-67
-67
-69
-70
-67
-65
-67
-64
-61
-60
-62
-62
-61
-56
-56
-57
-54
-57
-57
-56
-56
-53
-53
-57
-55
-56
-57
-61
-60
-58
-61
-65
-65
-63
-61
-66
-64
-63
-63
-65
-65
-63
-64
-65
-67
-64
-63
-64
-71
-75
-78
-85
-84
-61
-31
-12
7
38
70
69
8
-72
-99
-85
-78
-75
-70
-66
-68
-70
-69
-66
-67
-69
-66
-66
-66
-69
-68
-65
-63
-65
-64
-63
-64
-65
-65
-62
-61
-61
-64
-60
-59
-60
-62
-61
-59
-59
-63
-60
-61
-59
-60
-61
-60
-62
-64
-63
-61
-61
-65
-68
-67
-65
-67
-73
-71
-71
-72
-74
-77
-78
-80
-84
-84
-84
-85
-88
-87
-83
-82
-83
-79
-74
-68
-66
-64
-59
-54
-53
-53
-50
-47
-46
-48
-46
-43
-43
-46
-45
-43
-43
-45
-47
-45
-44
-43
-44
-44
-43
-45
-46
-45
-42
-45
-47
-45
-44
-44
-45
-44
-43
-45
-49
-47
-45
-46
-47
-46
-44
-47
-48
-47
-45
-44
-48
-50
-48
-46
-47
-50
-46
-45
-45
-46
-45
-44
-45
-46
-44
-43
-45
-45
-46
-41
-42
-44
-46
-40
-41
-42
-43
-40
-39
-41
-44
-43
-37
-39
-40
-39
-36
-37
-36
-33
-31
-32
-32
-34
-29
-25
-26
-29
-26
-27
-29
-29
-31
-30
-32
-35
-35
-34
-36
-38
-37
-35
-37
-41
-36
-36
-40
-41
-40
-38
-36
-38
-39
-37
-38
-43
-50
-53
-59
-63
-51
-19
12
35
41
90
120
127
90
14
-51
-80
-75
-61
-55
-48
-48
-46
-47
-45
-47
-48
-46
-43
-41
-45
-44
-39
-42
-44
-44
-42
-42
-44
-43
-40
-42
-44
-44
-39
-40
-44
-44
-42
-42
-43
-43
-42
-41
-42
-45
-45
-43
-45
-47
-47
-45
-46
-51
-50
-50
-50
-54
-57
-55
-56
-60
-62
-60
-61
-65
-66
-66
-64
-65
-65
-65
-61
-60
-60
-56
-54
-49
-51
-44
-39
-36
-38
-39
-34
-32
-33
-33
-30
-30
-33
-32
-30
-30
-30
-35
-32
-29
-29
-29
-34
-31
-32
-32
-31
-29
-29
-32
-33
-30
-32
-34
-33
-32
-31
-31
-34
-33
-31
-34
-38
-35
-36
-35
-35
-38
-37
-38
-41
-39
-37
-35
-39
-40
-35
-34
-38
-40
-38
-40
-39
-38
-36
-37
-39
-42
-38
-37
-39
-40
-38
-36
-34
-37
-38
-37
-37
-40
-38
-35
-32
-33
-35
-29
-29
-30
-31
-29
-28
-26
-27
-26
-23
-25
-27
-30
-27
-28
-31
-32
-31
-31
-36
-37
-34
-36
-36
-38
-34
-32
-36
-39
-36
-31
-34
-36
-34
-31
-33
-34
-39
-41
-46
-54
-60
-48
-25
-2
16
44
74
93
77
17
-42
-66
-57
-49
-44
-43
-43
-44
-41
-42
-45
-44
-42
-41
-44
-43
-40
-40
-43
-44
-42
-38
-41
-43
-42
-40
-42
-43
-39
-37
-41
-42
-39
-37
-40
-42
-42
-38
-40
-42
-42
-41
-44
-46
-43
-41
-41
-45
-46
-44
-44
-49
-53
-54
-53
-57
-59
-57
-59
-61
-62
-61
-59
-61
-63
-61
-58
-56
-55
-51
-45
-41
-40
-38
-34
-33
-33
-35
-31
-27
-31
-32
-30
-26
-30
-31
-32
-32
-33
-31
-28
-28
-29
-33
-32
-29
-31
-33
-32
-33
-32
-34
-36
-37
-35
-36
-37
-36
-35
-35
-36
-37
-35
-36
-37
-37
-34
-34
-36
-37
-33
-34
-38
-37
-33
-33
-37
-37
-35
-31
-32
-38
-36
-35
-35
-36
-35
-35
-35
-36
-35
-34
-34
-35
-34
-30
-29
-30
-30
-26
-25
-25
-27
-24
-20
-23
-26
-22
-21
-26
-29
-30
-27
-26
-32
-34
-31
-31
-32
-32
-31
-31
-32
-34
-30
-32
-33
-36
-32
-30
-33
-42
-44
-44
-54
-57
-57
-41
-21
0
17
37
65
92
101
43
-37
-67
-51
-43
-39
-38
-42
-40
-37
-36
-40
-36
-32
-33
-34
-35
-33
-32
-35
-35
-33
-34
-34
-35
-31
-32
-33
-33
-29
-31
-34
-36
-33
-31
-31
-35
-35
-32
-33
-34
-34
-32
-33
-37
-36
-35
-35
-41
-43
-42
-40
-46
-48
-49
-49
-52
-55
-55
-55
-58
-59
-57
-51
-53
-53
-49
-42
-39
-40
-35
-32
-28
-28
-28
-23
-21
-22
-23
-19
-16
-19
-21
-18
-18
-18
-18
-18
-17
-18
-19
-21
-18
-19
-23
-22
-16
-18
-21
-23
-19
-20
-22
-25
-23
-21
-23
-25
-24
-20
-22
-25
-24
-21
-22
-23
-24
-22
-22
-23
-25
-21
-20
-23
-24
-22
-20
-22
-26
-21
-20
-23
-25
-24
-19
-20
-22
-22
-20
-20
-21
-22
-21
-22
-21
-20
-18
-15
-17
-15
-10
-11
-14
-14
-10
-6
-6
-8
-9
-7
-7
-10
-13
-12
-12
-14
-17
-15
-16
-20
-20
-18
-16
-19
-20
-19
-20
-21
-20
-17
-18
-23
-25
-29
-34
-42
-47
-25
10
36
43
91
124
140
103
17
-41
-42
-34
-31
-26
-26
-31
-31
-28
-26
-28
-28
-28
-25
-27
-28
-27
-25
-26
-28
-27
-24
-24
-28
-30
-26
-25
-28
-30
-28
-26
-29
-29
-27
-29
-30
-29
-28
-28
-30
-33
-32
-30
-31
-33
-36
-33
-36
-38
-38
-38
-38
-40
-42
-39
-41
-46
-47
-50
-49
-51
-52
-50
-46
-48
-48
-42
-37
-34
-35
-32
-26
-25
-22
-21
-17
-14
-18
-19
-16
-14
-17
-18
-13
-12
-16
-18
-15
-10
-15
-16
-16
-13
-15
-15
-16
-16
-17
-18
-20
-17
-19
-21
-22
-21
-19
-19
-22
-19
-21
-22
-24
-22
-19
-22
-27
-24
-18
-23
-24
-26
-23
-22
-22
-23
-20
-21
-22
-22
-20
-21
-24
-24
-21
-20
-21
-23
-23
-20
-22
-24
-22
-18
-21
-23
-25
-21
-18
-20
-20
-17
-15
-15
-17
-13
-12
-14
-11
-9
-9
-12
-11
-12
-14
-18
-17
-19
-19
-20
-20
-25
-21
-23
-24
-26
-23
-22
-26
-27
-22
-22
-23
-25
-25
-22
-28
-34
-39
-44
-52
-45
-15
15
33
39
90
112
80
-1
-57
-50
-39
-37
-36
-33
-31
-37
-36
-33
-30
-34
-34
-34
-30
-31
-37
-38
-34
-33
-33
-34
-30
-32
-36
-36
-32
-32
-34
-33
-29
-29
-32
-33
-32
-30
-35
-36
-35
-32
-33
-34
-37
-33
-35
-36
-38
-34
-37
-39
-40
-39
-40
-44
-46
-46
-44
-47
-51
-53
-53
-55
-58
-57
-54
-56
-61
-57
-50
-51
-49
-48
-44
-38
-39
-37
-31
-30
-31
-30
-25
-27
-28
-29
-24
-24
-27
-26
-28
-26
-28
-28
-25
-22
-24
-25
-29
-28
-26
-28
-28
-26
-26
-28
-31
-30
-29
-30
-31
-31
-30
-30
-31
-32
-31
-33
-36
-33
-31
-34
-36
-35
-33
-33
-35
-35
-32
-34
-35
-36
-34
-33
-34
-37
-33
-33
-36
-37
-34
-32
-33
-37
-38
-30
-32
-33
-36
-34
-35
-35
-37
-33
-32
-34
-35
-30
-27
-27
-31
-30
-25
-27
-24
-25
-26
-28
-30
-30
-26
-28
-30
-33
-32
-34
-36
-38
-37
-36
-36
-36
-35
-36
-38
-39
-37
-35
-37
-38
-38
-34
-35
-43
-47
-47
-58
-61
-46
-14
10
24
54
88
96
35
-47
-71
-59
-50
-47
-43
-42
-46
-45
-43
-42
-42
-45
-45
-41
-42
-43
-44
-41
-40
-42
-44
-39
-38
-42
-42
-39
-37
-40
-44
-40
-37
-42
-41
-41
-40
-40
-41
-39
-38
-37
-38
-43
-41
-41
-41
-41
-41
-42
-46
-47
-46
-44
-50
-52
-52
-54
-57
-59
-62
-59
-60
-67
-62
-61
-63
-64
-61
-55
-52
-51
-49
-42
-40
-38
-37
-29
-28
-31
-30
-27
-23
-25
-27
-26
-23
-25
-25
-25
-21
-24
-23
-25
-23
-22
-23
-27
-24
-24
-24
-26
-25
-24
-26
-26
-24
-23
-26
-27
-27
-25
-24
-27
-27
-24
-28
-27
-28
-26
-27
-28
-28
-26
-23
-28
-28
-24
-25
-27
-30
-29
-26
-27
-29
-28
-23
-25
-29
-27
-27
-27
-27
-27
-24
-25
-26
-29
-25
-24
-26
-28
-28
-26
-26
-28
-27
-27
-28
-27
-26
-20
-21
-23
-21
-18
-17
-16
-16
-14
-12
-14
-15
-11
-14
-18
-20
-19
-19
-20
-25
-25
-22
-24
-27
-28
-27
-26
-28
-28
-24
-26
-28
-29
-28
-26
-30
-33
-37
-42
-45
-50
-55
-55
-44
-19
12
36
62
89
118
111
33
-40
-50
-40
-36
-34
-37
-35
-33
-36
-38
-33
-32
-35
-36
-33
-32
-34
-35
-35
-32
-35
-35
-32
-31
-31
-35
-34
-31
-30
-31
-33
-31
-33
-34
-34
-33
-33
-34
-37
-34
-33
-36
-39
-38
-35
-38
-41
-40
-40
-43
-45
-45
-45
-49
-50
-55
-53
-53
-58
-60
-56
-55
-56
-57
-54
-51
-51
-48
-44
-40
-38
-38
-38
-35
-33
-32
-28
-23
-25
-26
-25
-20
-22
-22
-23
-22
-22
-23
-23
-21
-20
-23
-25
-21
-22
-22
-26
-25
-21
-24
-27
-24
-23
-23
-25
-25
-22
-24
-26
-29
-24
-23
-26
-28
-25
-25
-26
-27
-27
-25
-27
-29
-29
-25
-26
-30
-29
-26
-26
-27
-29
-25
-28
-28
-28
-25
-25
-27
-29
-27
-25
-24
-27
-25
-24
-24
-26
-22
-24
-23
-28
-29
-21
-23
-24
-23
-20
-22
-23
-22
-19
-17
-16
-18
-17
-12
-11
-11
-10
-11
-11
-13
-15
-14
-18
-20
-21
-19
-21
-21
-26
-23
-21
-25
-24
-24
-24
-24
-25
-24
-25
-27
-31
-30
-34
-40
-47
-53
-47
-29
-3
26
50
77
87
116
81
-2
-49
-46
-38
-35
-34
-36
-35
-34
-33
-34
-33
-34
-35
-34
-34
-31
-31
-35
-35
-31
-30
-31
-34
-30
-33
-33
-34
-30
-30
-31
-34
-33
-31
-32
-34
-34
-31
-33
-35
-35
-32
-33
-37
-35
-32
-36
-38
-40
-38
-38
-43
-44
-43
-44
-47
-49
-49
-48
-51
-55
-57
-53
-55
-57
-56
-54
-56
-57
-51
-48
-44
-43
-42
-35
-33
-31
-31
-28
-26
-25
-26
-23
-24
-25
-29
-27
-24
-27
-26
-25
-23
-25
-27
-28
-25
-25
-25
-28
-27
-28
-30
-30
-31
-31
-31
-33
-29
-29
-31
-35
-33
-31
-30
-35
-37
-33
-32
-36
-35
-33
-34
-35
-37
-36
-36
-39
-38
-35
-37
-37
-36
-37
-35
-35
-36
-34
-35
-37
-37
-37
-34
-34
-35
-36
-37
-37
-37
-38
-35
-33
-38
-38
-35
-35
-36
-36
-35
-32
-32
-35
-31
-30
-31
-32
-30
-24
-25
-28
-28
-25
-26
-27
-34
-33
-32
-35
-37
-34
-35
-37
-40
-38
-38
-37
-40
-39
-38
-39
-41
-40
-39
-39
-41
-43
-39
-44
-47
-59
-63
-65
-52
-25
1
20
45
76
81
24
-55
-77
-64
-54
-51
-52
-53
-50
-49
-51
-48
-47
-48
-49
-51
-47
-49
-49
-49
-46
-47
-47
-49
-49
-47
-47
-49
-47
-48
-47
-50
-48
-47
-49
-52
-50
-47
-46
-46
-49
-49
-47
-50
-55
-49
-48
-51
-53
-50
-49
-51
-54
-52
-53
-56
-61
-61
-61
-63
-68
-71
-67
-68
-69
-71
-72
-72
-73
-72
-67
-64
-61
-60
-52
-49
-48
-48
-46
-43
-43
-44
-41
-38
-38
-41
-40
-35
-38
-39
-39
-37
-37
-39
-42
-39
-39
-40
-42
-40
-40
-42
-42
-39
-41
-43
-47
-45
-42
-43
-45
-46
-44
-42
-43
-46
-45
-45
-48
-48
-44
-44
-49
-49
-47
-45
-47
-51
-50
-45
-49
-50
-48
-46
-44
-49
-50
-48
-47
-49
-49
-45
-46
-49
-52
-48
-47
-49
-51
-51
-49
-47
-49
-48
-44
-45
-44
-43
-41
-42
-44
-42
-37
-36
-38
-42
-41
-40
-40
-43
-42
-44
-48
-49
-48
-49
-50
-53
-50
-48
-49
-53
-52
-50
-51
-52
-53
-49
-49
-50
-54
-57
-64
-72
-77
-63
-42
-17
-1
25
57
83
62
-12
-72
-81
-68
-61
-55
-54
-58
-56
-53
-51
-51
-56
-51
-51
-54
-53
-51
-47
-51
-52
-51
-50
-50
-51
-50
-48
-48
-53
-51
-49
-49
-50
-50
-47
-49
-49
-50
-47
-45
-48
-51
-49
-48
-49
-51
-51
-51
-53
-56
-56
-55
-59
-62
-65
-63
-65
-69
-73
-74
-72
-72
-76
-77
-75
-77
-77
-70
-67
-63
-62
-54
-50
-49
-50
-46
-41
-40
-41
-41
-41
-40
-43
-40
-37
-38
-38
-43
-42
-38
-40
-43
-40
-41
-42
-43
-44
-42
-44
-46
-43
-42
-45
-45
-47
-43
-43
-46
-47
-45
-46
-48
-48
-46
-45
-48
-50
-46
-45
-47
-49
-48
-45
-44
-48
-49
-47
-45
-47
-46
-45
-46
-50
-45
-43
-44
-43
-49
-44
-45
-46
-47
-43
-44
-45
-47
-43
-42
-42
-45
-46
-43
-43
-42
-43
-37
-37
-38
-35
-32
-34
-34
-35
-31
-30
-32
-35
-33
-32
-36
-38
-40
-38
-40
-44
-43
-40
-43
-46
-47
-44
-45
-49
-48
-45
-45
-44
-47
-45
-45
-50
-57
-63
-66
-75
-62
-26
3
28
57
90
99
43
-44
-69
-59
-56
-55
-54
-53
-53
-54
-54
-54
-51
-52
-54
-53
-51
-50
-53
-50
-51
-52
-55
-52
-50
-51
-52
-52
-50
-50
-51
-51
-50
-50
-49
-52
-49
-51
-50
-55
-52
-52
-53
-55
-54
-52
-54
-59
-59
-56
-59
-61
-63
-64
-68
-69
-70
-68
-70
-71
-73
-71
-69
-71
-71
-66
-61
-60
-61
-55
-52
-48
-48
-45
-42
-41
-42
-42
-38
-36
-40
-41
-37
-38
-37
-39
-39
-40
-41
-42
-38
-38
-41
-43
-40
-39
-41
-44
-43
-42
-40
-43
-45
-43
-42
-43
-45
-44
-44
-45
-47
-43
-42
-46
-48
-45
-44
-45
-47
-48
-46
-45
-48
-46
-45
-45
-50
-48
-43
-43
-47
-46
-42
-43
-44
-48
-47
-45
-46
-46
-43
-42
-45
-47
-45
-41
-43
-44
-44
-41
-38
-40
-38
-32
-32
-34
-32
-29
-30
-31
-34
-30
-31
-36
-38
-39
-38
-42
-44
-43
-41
-43
-45
-44
-42
-42
-46
-46
-43
-43
-46
-46
-44
-47
-49
-60
-66
-70
-62
-37
-7
10
28
49
73
96
98
41
-41
-79
-74
-63
-57
-52
-52
-54
-53
-52
-51
-52
-55
-52
-49
-51
-52
-49
-50
-51
-51
-51
-49
-53
-52
-48
-48
-48
-51
-52
-48
-50
-52
-51
-48
-49
-50
-49
-47
-47
-51
-54
-51
-49
-53
-55
-52
-52
-54
-55
-55
-54
-58
-62
-63
-63
-64
-66
-68
-69
-68
-67
-73
-69
-65
-65
-64
-60
-58
-51
-50
-47
-45
-45
-43
-42
-38
-41
-41
-41
-39
-41
-42
-42
-38
-39
-38
-41
-39
-41
-43
-44
-41
-40
-42
-43
-44
-42
-43
-46
-46
-42
-42
-46
-43
-41
-44
-47
-48
-43
-45
-46
-50
-44
-44
-46
-48
-46
-47
-47
-48
-47
-46
-45
-48
-49
-46
-43
-48
-51
-46
-46
-46
-46
-45
-46
-46
-50
-47
-47
-48
-51
-48
-46
-47
-45
-43
-42
-41
-44
-44
-38
-36
-38
-39
-38
-40
-43
-46
-46
-45
-47
-50
-49
-50
-48
-50
-50
-51
-52
-52
-52
-50
-51
-53
-54
-52
-52
-58
-64
-63
-70
-82
-77
-67
-49
-42
-12
3
31
63
72
26
-51
-83
-74
-62
-57
-59
-58
-58
-55
-54
-58
-58
-55
-54
-57
-58
-52
-51
-53
-55
-51
-53
-54
-53
-52
-50
-52
-54
-50
-50
-51
-53
-52
-49
-50
-50
-49
-47
-48
-50
-53
-49
-48
-48
-53
-52
-51
-53
-54
-51
-53
-56
-59
-56
-58
-61
-66
-64
-65
-68
-69
-71
-71
-73
-75
-74
-71
-69
-69
-68
-63
-57
-55
-53
-47
-42
-41
-44
-40
-35
-36
-38
-35
-32
-32
-35
-34
-31
-31
-34
-35
-32
-33
-33
-36
-33
-32
-35
-38
-34
-32
-33
-35
-35
-34
-33
-35
-35
-34
-34
-37
-38
-34
-32
-37
-40
-36
-35
-37
-39
-37
-36
-37
-38
-35
-34
-36
-37
-34
-32
-35
-35
-37
-33
-32
-36
-34
-33
-32
-35
-35
-32
-31
-32
-35
-33
-33
-32
-34
-31
-30
-32
-36
-33
-30
-29
-30
-31
-27
-25
-26
-25
-22
-21
-23
-21
-16
-19
-18
-21
-19
-20
-23
-25
-26
-24
-26
-28
-28
-27
-30
-33
-31
-29
-29
-32
-31
-29
-28
-30
-30
-29
-29
-28
-33
-29
-31
-38
-47
-50
-53
-53
-39
-7
19
41
68
98
119
92
16
-47
-52
-44
-44
-39
-35
-37
-38
-40
-36
-35
-36
-38
-36
-35
-34
-35
-35
-33
-32
-37
-35
-32
-30
-36
-35
-33
-31
-32
-34
-32
-32
-32
-34
-30
-30
-34
-36
-34
-32
-32
-34
-34
-32
-33
-36
-35
-34
-33
-37
-38
-37
-38
-40
-42
-42
-43
-44
-51
-50
-47
-51
-54
-54
-54
-55
-56
-57
-56
-54
-56
-51
-49
-44
-46
-44
-37
-33
-30
-31
-26
-25
-23
-24
-19
-19
-22
-24
-19
-16
-20
-23
-22
-18
-20
-23
-21
-19
-19
-21
-22
-22
-20
-21
-24
-24
-21
-22
-25
-23
-22
-25
-27
-24
-23
-24
-25
-28
-26
-26
-27
-27
-26
-25
-28
-28
-27
-26
-29
-29
-27
-27
-29
-32
-27
-26
-28
-29
-28
-24
-25
-29
-29
-25
-24
-28
-26
-25
-24
-26
-26
-24
-24
-27
-27
-22
-20
-22
-22
-19
-16
-17
-15
-15
-11
-13
-13
-13
-13
-15
-16
-17
-16
-17
-19
-20
-15
-17
-24
-25
-22
-20
-21
-26
-26
-25
-25
-28
-24
-24
-24
-25
-24
-24
-25
-28
-29
-31
-36
-42
-49
-53
-47
-25
7
31
52
61
102
114
54
-28
-58
-45
-39
-36
-38
-36
-34
-36
-35
-34
-31
-32
-34
-36
-34
-32
-32
-34
-31
-30
-31
-35
-30
-29
-31
-36
-32
-30
-32
-36
-34
-33
-35
-35
-35
-31
-32
-34
-35
-31
-31
-33
-35
-32
-33
-34
-39
-37
-36
-39
-39
-37
-37
-38
-41
-42
-41
-45
-47
-49
-48
-49
-52
-55
-54
-53
-55
-56
-54
-52
-51
-52
-48
-44
-45
-45
-39
-35
-32
-33
-31
-29
-28
-28
-29
-27
-29
-30
-31
-25
-26
-29
-31
-29
-27
-28
-30
-29
-28
-31
-34
-32
-31
-29
-33
-32
-30
-30
-34
-35
-31
-32
-34
-34
-32
-32
-35
-34
-32
-32
-31
-39
-38
-36
-39
-40
-36
-36
-38
-40
-38
-38
-36
-39
-39
-37
-37
-38
-36
-36
-37
-38
-40
-37
-35
-36
-40
-38
-37
-40
-42
-36
-34
-33
-33
-29
-28
-30
-34
-30
-28
-24
-26
-27
-28
-27
-30
-32
-31
-31
-33
-38
-36
-33
-39
-43
-42
-38
-40
-41
-39
-38
-41
-42
-38
-38
-38
-41
-42
-39
-44
-52
-58
-61
-60
-57
-21
3
21
47
78
79
19
-54
-76
-62
-51
-49
-50
-54
-49
-45
-45
-48
-46
-47
-49
-49
-50
-46
-45
-50
-47
-45
-47
-47
-46
-46
-47
-49
-47
-46
-44
-46
-47
-44
-45
-48
-51
-46
-44
-48
-48
-47
-46
-45
-48
-47
-48
-49
-49
-50
-50
-53
-58
-56
-56
-59
-63
-64
-65
-61
-65
-66
-64
-66
-70
-73
-70
-68
-69
-69
-66
-63
-63
-62
-54
-49
-47
-48
-44
-37
-38
-42
-40
-38
-36
-39
-41
-37
-37
-39
-38
-35
-36
-37
-42
-38
-36
-38
-40
-40
-38
-39
-39
-40
-38
-38
-42
-43
-38
-39
-41
-42
-40
-40
-40
-42
-40
-40
-39
-45
-43
-41
-41
-43
-42
-39
-40
-41
-42
-38
-39
-44
-44
-40
-37
-40
-41
-41
-39
-40
-43
-41
-40
-41
-42
-39
-39
-40
-43
-39
-34
-33
-35
-34
-29
-29
-32
-31
-29
-27
-26
-28
-25
-27
-28
-32
-29
-30
-30
-37
-34
-34
-35
-38
-37
-35
-38
-38
-36
-34
-35
-39
-40
-36
-35
-39
-41
-39
-42
-49
-58
-60
-53
-47
-3
18
45
75
87
41
-38
-72
-61
-52
-45
-41
-44
-44
-41
-40
-41
-42
-41
-40
-43
-43
-39
-37
-36
-43
-41
-40
-40
-43
-41
-37
-39
-42
-41
-39
-37
-41
-41
-39
-40
-40
-42
-37
-40
-43
-43
-39
-40
-41
-45
-42
-41
-42
-49
-46
-46
-48
-52
-53
-54
-55
-59
-59
-62
-63
-67
-69
-65
-65
-68
-68
-64
-59
-57
-56
-54
-49
-48
-47
-41
-36
-39
-40
-36
-34
-34
-35
-32
-30
-31
-33
-32
-30
-30
-31
-34
-33
-32
-33
-35
-33
-31
-34
-36
-33
-34
-34
-35
-35
-33
-33
-37
-35
-34
-31
-37
-38
-35
-37
-36
-38
-37
-35
-36
-38
-34
-32
-37
-41
-39
-35
-37
-37
-36
-34
-35
-39
-38
-35
-33
-36
-36
-34
-34
-34
-38
-35
-34
-34
-36
-35
-34
-35
-36
-31
-28
-28
-30
-29
-25
-24
-26
-24
-21
-21
-26
-25
-23
-24
-29
-30
-27
-26
-26
-31
-32
-31
-31
-35
-32
-31
-34
-36
-34
-32
-32
-36
-33
-33
-33
-41
-48
-52
-60
-60
-35
4
27
35
84
114
93
9
-58
-56
-46
-45
-46
-45
-42
-41
-44
-45
-43
-41
-44
-45
-43
-43
-43
-45
-40
-40
-39
-44
-38
-41
-41
-46
-42
-39
-41
-43
-43
-42
-43
-45
-43
-41
-42
-46
-46
-43
-44
-47
-50
-47
-47
-46
-52
-52
-52
-54
-55
-54
-53
-58
-60
-61
-59
-62
-66
-66
-67
-65
-67
-69
-66
-63
-61
-60
-55
-50
-51
-48
-42
-40
-40
-43
-40
-38
-38
-39
-39
-38
-37
-39
-40
-40
-39
-40
-42
-40
-40
-42
-44
-43
-42
-41
-45
-41
-38
-40
-44
-43
-41
-41
-44
-43
-41
-45
-48
-48
-45
-45
-49
-51
-48
-45
-46
-47
-48
-48
-47
-52
-48
-48
-50
-50
-49
-50
-49
-50
-48
-48
-48
-50
-52
-46
-47
-50
-51
-49
-45
-46
-47
-45
-44
-43
-43
-40
-40
-39
-43
-41
-37
-39
-40
-43
-41
-45
-47
-48
-48
-47
-52
-51
-50
-49
-55
-56
-54
-51
-50
-55
-56
-55
-57
-57
-56
-57
-60
-67
-69
-71
-77
-78
-60
-30
-11
3
34
66
58
-19
-83
-88
-75
-72
-67
-65
-63
-64
-70
-66
-64
-64
-66
-66
-63
-65
-66
-66
-65
-66
-67
-66
-64
-64
-65
-67
-64
-62
-64
-67
-64
-64
-66
-67
-66
-66
-66
-66
-66
-65
-67
-71
-70
-66
-64
-66
-69
-67
-68
-71
-73
-70
-69
-70
-77
-77
-79
-80
-86
-87
-84
-88
-90
-89
-89
-88
-90
-89
-82
-77
-79
-74
-67
-65
-63
-66
-62
-63
-62
-61
-58
-56
-60
-62
-60
-55
-56
-58
-61
-56
-56
-60
-60
-59
-59
-60
-61
-57
-57
-59
-62
-60
-58
-59
-61
-61
-63
-63
-65
-62
-61
-62
-62
-65
-64
-60
-65
-66
-61
-59
-62
-65
-68
-65
-65
-62
-61
-62
-64
-65
-65
-64
-65
-66
-65
-60
-61
-63
-64
-62
-60
-60
-60
-57
-58
-59
-58
-56
-54
-57
-57
-54
-51
-51
-51
-50
-53
-55
-61
-59
-56
-59
-61
-62
-60
-61
-63
-65
-62
-62
-63
-64
-63
-62
-66
-68
-63
-62
-63
-67
-66
-65
-74
-78
-84
-83
-67
-41
-19
2
31
58
68
12
-68
-97
-88
-75
-69
-69
-70
-69
-65
-64
-68
-63
-60
-63
-64
-63
-63
-64
-65
-63
-60
-60
-64
-63
-58
-56
-60
-60
-58
-56
-57
-58
-54
-54
-53
-57
-53
-52
-54
-54
-52
-51
-53
-56
-56
-53
-52
-56
-57
-56
-56
-59
-63
-64
-66
-69
-72
-72
-71
-72
-80
-79
-78
-81
-82
-82
-78
-77
-75
-71
-67
-64
-64
-61
-55
-52
-55
-54
-48
-47
-48
-48
-46
-47
-47
-48
-47
-44
-46
-49
-47
-43
-47
-48
-49
-46
-43
-44
-49
-46
-44
-46
-47
-46
-45
-48
-48
-46
-45
-46
-52
-48
-48
-48
-52
-51
-46
-48
-48
-49
-46
-50
-50
-50
-48
-48
-48
-50
-47
-48
-50
-48
-47
-45
-46
-51
-47
-43
-45
-49
-47
-43
-44
-45
-47
-44
-46
-46
-45
-41
-40
-40
-41
-36
-34
-36
-37
-34
-33
-33
-32
-31
-27
-32
-35
-35
-34
-35
-38
-39
-39
-40
-40
-43
-39
-40
-43
-43
-40
-39
-41
-43
-42
-40
-42
-45
-40
-40
-43
-50
-53
-56
-63
-65
-44
-15
12
34
63
92
104
66
-7
-48
-54
-54
-53
-47
-46
-48
-50
-50
-49
-50
-52
-50
-46
-47
-51
-51
-48
-46
-47
-47
-46
-45
-46
-46
-45
-44
-47
-48
-46
-43
-45
-49
-46
-44
-46
-47
-47
-47
-48
-48
-49
-47
-48
-50
-50
-48
-48
-52
-54
-53
-53
-56
-58
-57
-59
-61
-63
-61
-61
-64
-67
-70
-66
-68
-69
-69
-66
-65
-65
-62
-56
-53
-53
-51
-48
-44
-40
-43
-40
-36
-35
-38
-38
-36
-38
-38
-36
-34
-35
-36
-37
-35
-34
-36
-37
-35
-36
-36
-36
-35
-35
-34
-37
-33
-34
-36
-37
-38
-33
-35
-35
-38
-34
-37
-38
-37
-36
-35
-38
-36
-37
-38
-41
-40
-37
-35
-38
-40
-38
-34
-35
-39
-35
-35
-35
-37
-37
-33
-35
-36
-36
-34
-33
-34
-34
-29
-31
-30
-31
-26
-25
-24
-25
-23
-20
-21
-25
-24
-20
-24
-26
-27
-27
-27
-30
-33
-30
-33
-34
-36
-32
-33
-35
-35
-33
-32
-35
-36
-36
-31
-32
-35
-35
-32
-38
-45
-49
-52
-58
-50
-21
9
32
59
88
110
81
-2
-56
-55
-47
-46
-44
-41
-42
-42
-45
-42
-42
-41
-44
-43
-41
-40
-43
-44
-40
-40
-44
-45
-42
-40
-41
-43
-40
-39
-42
-41
-42
-40
-39
-44
-44
-39
-41
-43
-44
-41
-43
-43
-44
-41
-43
-46
-45
-43
-47
-50
-53
-48
-49
-51
-53
-51
-54
-56
-59
-59
-58
-61
-65
-65
-61
-62
-63
-64
-62
-59
-59
-59
-53
-51
-52
-50
-44
-41
-42
-41
-38
-37
-35
-39
-38
-34
-37
-37
-38
-32
-36
-38
-39
-39
-37
-40
-40
-36
-36
-37
-39
-34
-33
-39
-42
-41
-39
-41
-39
-40
-37
-41
-46
-44
-40
-40
-42
-43
-43
-39
-43
-44
-42
-42
-45
-44
-41
-42
-44
-47
-44
-41
-42
-47
-47
-42
-42
-45
-44
-41
-42
-42
-44
-42
-42
-45
-47
-45
-41
-44
-42
-39
-37
-38
-40
-38
-33
-34
-36
-33
-32
-35
-37
-38
-38
-40
-41
-41
-38
-41
-45
-47
-44
-43
-44
-46
-42
-43
-45
-47
-46
-44
-43
-48
-47
-45
-45
-49
-48
-47
-53
-58
-63
-64
-65
-50
-22
1
20
45
73
87
52
-24
-82
-91
-80
-76
-65
-59
-55
-59
-59
-58
-52
-54
-57
-56
-52
-52
-56
-59
-55
-52
-56
-56
-53
-50
-53
-56
-51
-51
-53
-55
-52
-49
-53
-57
-54
-50
-47
-51
-51
-49
-53
-55
-57
-52
-51
-53
-57
-53
-51
-55
-53
-51
-50
-51
-57
-59
-58
-59
-63
-65
-60
-63
-67
-66
-68
-70
-71
-71
-70
-71
-73
-74
-74
-73
-71
-70
-64
-59
-57
-57
-50
-45
-46
-45
-42
-39
-41
-40
-37
-34
-36
-37
-38
-38
-38
-39
-38
-33
-32
-35
-39
-34
-34
-35
-38
-38
-36
-37
-38
-35
-32
-38
-39
-38
-33
-36
-37
-36
-35
-35
-36
-39
-39
-35
-35
-38
-37
-34
-34
-37
-36
-38
-36
-39
-41
-37
-35
-36
-35
-32
-32
-33
