-33
-30
-29
-28
-27
-24
-21
-19
-17
-17
-17
-16
-15
-16
-18
-22
-26
-29
-30
-27
-25
-28
-30
-32
-33
-34
-35
-35
-35
-36
-37
-37
-37
-36
-35
-35
-35
-35
-35
-34
-33
-33
-33
-33
-33
-33
-32
-31
-30
-29
-28
-26
-18
-7
11
24
29
36
46
51
45
6
-73
-162
-260
-310
-320
-299
-254
-197
-135
-87
-45
-24
-12
-6
-2
0
2
4
6
8
10
11
13
15
17
19
21
21
21
22
23
24
25
27
29
29
29
31
33
35
38
42
46
49
52
55
59
63
68
73
77
80
83
86
90
94
97
100
101
101
101
100
99
99
92
87
79
71
60
50
41
32
23
14
5
-2
-8
-14
-18
-22
-25
-27
-27
-27
-30
-31
-31
-31
-31
-31
-32
-33
-34
-34
-32
-31
-31
-31
-31
-31
-31
-31
-31
-31
-30
-29
-29
-30
-31
-31
-31
-30
-29
-29
-29
-30
-31
-30
-29
-29
-29
-30
-31
-32
-33
-33
-33
-33
-33
-34
-35
-35
-35
-36
-37
-36
-35
-36
-37
-37
-37
-36
-35
-35
-35
-35
-34
-31
-27
-23
-22
-21
-22
-23
-22
-21
-21
-22
-26
-29
-32
-35
-33
-31
-32
-33
-34
-35
-38
-39
-40
-41
-41
-41
-40
-39
-40
-41
-41
-41
-40
-39
-38
-37
-37
-37
-38
-38
-39
-34
-33
-34
-35
-35
-35
-28
-21
-5
9
18
25
27
31
37
19
-40
-116
-213
-281
-317
-318
-283
-239
-187
-135
-82
-49
-28
-16
-9
-6
-4
-3
-2
-1
0
2
4
7
10
10
9
11
13
14
15
17
19
20
21
22
23
24
26
30
33
35
37
39
42
46
50
53
56
59
63
67
71
75
79
83
85
85
86
88
89
89
88
86
82
78
70
61
53
45
37
28
19
10
3
-4
-9
-13
-16
-19
-22
-26
-29
-31
-31
-31
-31
-31
-32
-33
-34
-35
-34
-33
-32
-31
-32
-33
-33
-33
-32
-31
-30
-29
-29
-29
-30
-31
-31
-29
-29
-29
-29
-30
-31
-31
-31
-30
-29
-30
-31
-32
-33
-32
-31
-31
-31
-33
-35
-36
-37
-36
-35
-35
-35
-35
-35
-36
-37
-37
-37
-37
-37
-37
-37
-38
-37
-34
-30
-26
-24
-23
-23
-23
-22
-21
-21
-21
-25
-29
-33
-37
-37
-37
-35
-33
-33
-35
-41
-45
-43
-41
-42
-43
-42
-41
-42
-43
-42
-41
-41
-41
-41
-41
-41
-41
-40
-39
-38
-37
-37
-37
-39
-37
-35
-30
-24
-14
-3
11
23
22
21
22
13
-24
-78
-164
-236
-286
-307
-288
-257
-215
-168
-116
-74
-40
-22
-13
-9
-8
-7
-6
-4
-2
1
4
5
5
5
6
7
7
11
13
13
13
14
15
18
21
23
25
26
27
28
30
33
36
40
44
48
52
55
59
63
66
68
70
73
75
76
77
77
77
77
76
74
69
64
59
54
47
40
32
25
17
9
3
-3
-8
-13
-17
-21
-24
-27
-28
-29
-30
-31
-32
-33
-34
-35
-35
-35
-34
-33
-33
-33
-33
-33
-32
-31
-31
-31
-30
-29
-30
-31
-31
-31
-30
-29
-29
-29
-31
-30
-29
-29
-29
-29
-29
-31
-33
-32
-31
-31
-31
-32
-33
-34
-35
-35
-35
-34
-33
-34
-35
-36
-37
-36
-35
-35
-35
-36
-37
-37
-37
-36
-32
-28
-26
-24
-23
-24
-24
-25
-20
-19
-23
-27
-33
-39
-36
-33
-31
-29
-31
-34
-40
-45
-43
-41
-41
-41
-41
-41
-42
-43
-42
-41
-40
-39
-39
-39
-40
-41
-40
-39
-38
-37
-37
-37
-37
-37
-36
-34
-32
-23
-15
2
19
23
28
37
43
30
3
-74
-153
-239
-301
-308
-300
-261
-216
-164
-115
-70
-40
-24
-15
-10
-7
-7
-6
-2
0
2
3
4
5
5
7
10
12
14
15
15
15
13
16
19
20
21
24
27
29
31
34
37
39
42
46
49
51
55
60
64
67
70
75
78
81
84
86
87
88
89
88
85
82
77
71
64
57
47
36
25
14
8
13
-4
-9
-14
-19
-23
-27
-28
-29
-30
-31
-32
-33
-34
-35
-34
-33
-32
-31
-32
-33
-33
-33
-32
-31
-31
-31
-31
-31
-31
-31
-30
-29
-29
-29
-30
-31
-31
-31
-30
-29
-28
-28
-29
-30
-31
-30
-29
-29
-29
-31
-33
-33
-33
-33
-33
-33
-33
-34
-35
-36
-37
-36
-35
-35
-35
-35
-36
-38
-39
-38
-37
-36
-35
-34
-32
-30
-27
-24
-23
-22
-21
-21
-21
-21
-23
-25
-29
-33
-33
-33
-32
-31
-32
-33
-35
-37
-38
-39
-40
-41
-41
-41
-40
-39
-40
-41
-41
-41
-40
-39
-38
-37
-37
-37
-38
-38
-36
-35
-34
-33
-33
-33
-34
-29
-35
-5
11
20
29
36
43
45
36
-27
-97
-193
-274
-316
-332
-292
-248
-194
-141
-89
-52
-31
-18
-11
-6
-3
-1
0
1
1
3
6
8
10
11
12
13
14
15
16
18
20
22
23
24
25
27
29
32
35
37
39
41
44
49
53
57
60
64
68
72
77
82
86
89
92
95
97
97
97
98
98
96
92
87
79
71
62
53
43
34
25
16
8
-1
-6
-11
-15
-19
-22
-25
-27
-29
-30
-31
-31
-31
-32
-33
-33
-33
-33
-33
-32
-31
-31
-31
-32
-32
-30
-29
-30
-31
-31
-31
-32
-32
-30
-29
-29
-29
-29
-29
-30
-31
-31
-29
-29
-30
-31
-31
-31
-31
-31
-31
-31
-32
-33
-34
-35
-34
-33
-34
-35
-35
-35
-36
-37
-36
-35
-35
-35
-36
-37
-37
-36
-34
-32
-30
-27
-24
-23
-23
-23
-22
-21
-20
-20
-21
-25
-29
-31
-33
-31
-29
-30
-31
-34
-37
-39
-41
-40
-39
-40
-41
-42
-43
-41
-39
-39
-39
-39
-39
-40
-41
-40
-39
-38
-37
-36
-35
-36
-37
-36
-35
-34
-31
-28
-17
-5
11
27
31
35
44
48
23
-15
-109
-200
-286
-341
-318
-285
-232
-175
-113
-65
-38
-20
-13
-8
-6
-5
-4
-1
3
5
5
6
8
9
10
13
16
17
17
17
17
19
17
25
27
28
29
30
31
34
37
40
43
46
49
51
54
58
62
68
73
78
81
84
87
91
94
97
99
99
99
98
95
92
88
83
74
65
54
43
33
24
16
8
-1
-9
-14
-19
-22
-25
-26
-27
-29
-31
-32
-33
-33
-33
-32
-31
-31
-31
-32
-33
-32
-31
-31
-31
-31
-31
-32
-33
-32
-31
-30
-29
-29
-29
-30
-31
-30
-29
-29
-29
-30
-31
-31
-31
-31
-31
-31
-32
-33
-34
-35
-35
-35
-34
-33
-34
-35
-36
-37
-37
-37
-37
-37
-38
-39
-39
-39
-39
-39
-38
-37
-38
-39
-40
-41
-40
-39
-38
-37
-37
-37
-38
-37
-39
-30
-27
-25
-23
-23
-23
-21
-19
-18
-17
-20
-25
-32
-36
-33
-31
-30
-30
-33
-36
-41
-42
-40
-39
-40
-41
-41
-41
-42
-43
-42
-41
-40
-39
-39
-39
-40
-41
-40
-39
-38
-37
-37
-37
-37
-36
-35
-30
-23
-7
7
16
24
29
33
37
19
-40
-114
-211
-280
-315
-317
-283
-237
-180
-127
-76
-44
-24
-14
-9
-7
-6
-5
-4
-2
0
2
4
6
8
9
9
11
13
15
17
17
17
18
19
20
21
24
27
29
31
32
34
38
42
45
48
51
54
57
60
63
68
74
78
80
82
84
86
88
89
89
88
86
80
74
68
73
54
47
38
29
18
9
2
-3
-9
-13
-18
-21
-24
-27
-28
-29
-30
-31
-31
-31
-34
-35
-34
-33
-33
-33
-33
-33
-33
-33
-33
-33
-32
-31
-32
-33
-34
-34
-32
-31
-31
-31
-31
-32
-33
-32
-31
-31
-31
-32
-33
-34
-35
-34
-33
-33
-33
-34
-35
-37
-39
-38
-37
-36
-36
-38
-39
-39
-39
-39
-39
-38
-37
-38
-39
-39
-39
-38
-36
-34
-32
-30
-28
-25
-25
-25
-24
-23
-22
-21
-25
-29
-33
-37
-35
-33
-33
-33
-34
-36
-40
-43
-42
-41
-41
-41
-42
-43
-43
-43
-42
-41
-41
-41
-42
-43
-42
-41
-40
-39
-39
-39
-40
-40
-41
-36
-35
-35
-35
-28
-19
-3
12
18
23
25
25
18
-7
-68
-136
-216
-272
-296
-296
-266
-226
-175
-125
-75
-45
-27
-18
-13
-10
-8
-6
-4
-3
-2
-1
0
2
4
6
8
10
11
11
11
12
13
16
19
19
19
20
21
23
26
30
33
35
38
41
44
47
51
56
60
63
66
68
70
74
76
78
79
79
79
78
76
74
69
64
57
50
42
33
23
13
8
3
-3
-9
-14
-19
-21
-23
-25
-27
-28
-29
-31
-33
-33
-33
-32
-31
-32
-33
-34
-35
-34
-33
-32
-31
-30
-30
-32
-33
-32
-31
-30
-29
-28
-27
-28
-29
-29
-28
-27
-27
-27
-29
-31
-30
-29
-29
-29
-30
-31
-32
-33
-33
-33
-33
-33
-34
-35
-36
-37
-36
-35
-35
-35
-36
-37
-37
-37
-36
-35
-35
-35
-35
-35
-36
-36
-34
-32
-30
-26
-23
-22
-21
-21
-21
-19
-17
-18
-20
-25
-29
-31
-33
-29
-27
-28
-30
-33
-36
-39
-41
-40
-39
-40
-41
-41
-41
-41
-40
-38
-37
-37
-37
-38
-39
-38
-37
-36
-35
-35
-35
-35
-34
-33
-32
-31
-26
-19
-6
7
19
30
34
38
42
35
3
-49
-133
-213
-288
-319
-302
-267
-218
-163
-104
-64
-35
-20
-12
-9
-8
-6
-4
-2
0
1
2
3
3
5
3
11
13
14
15
14
13
16
19
20
21
23
25
25
26
30
34
38
42
46
49
52
55
59
64
70
74
77
80
82
85
89
91
92
93
93
92
90
86
82
74
66
57
49
39
29
21
13
5
-1
-7
-12
-17
-21
-23
-25
-27
-29
-30
-31
-32
-33
-33
-33
-33
-33
-32
-31
-32
-33
-33
-33
-32
-31
-31
-31
-32
-32
-30
-29
-29
-29
-29
-29
-31
-30
-29
-29
-29
-29
-29
-30
-31
-30
-29
-29
-29
-30
-31
-32
-33
-32
-31
-31
-31
-34
-35
-36
-37
-36
-35
-35
-35
-35
-35
-35
-35
-35
-35
-35
-35
-35
-35
-34
-33
-33
-26
-21
-21
-21
-22
-23
-21
-19
-18
-17
-22
-26
-31
-34
-31
-29
-28
-27
-28
-31
-36
-39
-38
-37
-37
-37
-37
-37
-38
-38
-36
-35
-35
-35
-36
-37
-37
-36
-34
-33
-32
-32
-33
-33
-33
-31
-29
-25
-19
-5
9
21
32
40
46
51
41
1
-61
-155
-237
-303
-323
-294
-251
-196
-140
-84
-49
-27
-14
-6
-2
0
1
1
2
4
8
12
13
13
13
15
17
19
20
21
23
25
25
25
27
29
31
33
35
37
39
42
45
48
52
56
59
63
67
71
77
81
85
88
90
93
96
98
100
101
101
100
98
93
88
82
87
66
57
47
37
26
16
8
1
-5
-9
-14
-17
-20
-23
-24
-25
-25
-25
-26
-27
-28
-29
-28
-27
-27
-27
-28
-29
-30
-31
-30
-29
-28
-27
-27
-27
-27
-27
-27
-27
-26
-25
-25
-26
-27
-27
-27
-26
-25
-26
-27
-28
-29
-29
-29
-28
-27
-28
-29
-30
-31
-31
-31
-31
-31
-31
-32
-34
-35
-34
-33
-33
-33
-33
-33
-34
-35
-34
-33
-32
-31
-32
-33
-33
-29
-25
-22
-19
-19
-19
-20
-21
-18
-15
-17
-20
-24
-28
-31
-32
-28
-25
-26
-28
-33
-35
-36
-37
-37
-37
-37
-37
-37
-37
-37
-37
-36
-35
-35
-35
-34
-33
-34
-35
-35
-32
-31
-31
-31
-31
-31
-30
-28
-20
-10
7
20
26
35
47
48
29
-20
-109
-198
-286
-325
-316
-287
-243
-186
-122
-75
-38
-20
-10
-4
0
1
1
2
4
6
8
11
14
15
15
16
17
19
21
22
23
24
25
25
26
30
33
35
37
39
41
43
46
50
55
59
62
64
67
71
76
81
85
89
91
92
94
96
98
100
101
101
98
94
88
81
73
65
57
48
38
28
18
8
2
-4
-9
-13
-16
-20
-23
-25
-26
-27
-27
-27
-27
-27
-28
-29
-29
-29
-29
-29
-29
-29
-29
-29
-29
-29
-28
-27
-27
-28
-30
-31
-31
-28
-27
-28
-29
-29
-29
-29
-29
-28
-27
-28
-29
-30
-31
-30
-29
-29
-29
-30
-31
-32
-33
-33
-33
-33
-33
-33
-34
-36
-37
-36
-35
-34
-33
-34
-35
-36
-37
-36
-35
-35
-33
-31
-28
-25
-22
-19
-20
-21
-20
-19
-19
-19
-22
-25
-29
-31
-31
-31
-31
-31
-31
-32
-35
-37
-37
-38
-40
-41
-41
-41
-41
-41
-40
-39
-40
-40
-38
-37
-36
-35
-36
-37
-37
-36
-35
-34
-33
-33
-33
-32
-30
-20
-9
8
21
23
27
33
33
22
-21
-105
-187
-266
-305
-309
-287
-244
-192
-134
-89
-49
-29
-16
-10
-6
-4
-2
-1
0
1
2
3
3
8
11
12
13
13
13
15
17
18
19
20
21
22
24
27
29
31
33
35
38
41
45
49
53
57
61
65
68
70
73
77
79
80
82
84
85
84
83
82
79
76
69
63
56
49
41
32
23
14
6
-2
-8
-13
-16
-19
-23
-25
-27
-29
-30
-31
-31
-31
-31
-31
-31
-32
-34
-35
-34
-33
-33
-33
-33
-33
-33
-33
-32
-31
-30
-29
-30
-31
-31
-31
-31
-30
-29
-30
-31
-31
-31
-31
-31
-31
-31
-31
-31
-32
-33
-32
-31
-32
-33
-34
-35
-36
-37
-37
-37
-36
-35
-36
-37
-37
-37
-37
-37
-37
-37
-37
-37
-38
-39
-39
-36
-35
-32
-29
-27
-25
-24
-23
-22
-21
-20
-19
-22
-26
-30
-33
-33
-33
-31
-29
-32
-35
-39
-41
-40
-39
-39
-40
-42
-43
-42
-41
-40
-39
-39
-39
-39
-39
-38
-37
-36
-35
-35
-36
-37
-35
-33
-33
-33
-31
-27
-18
-7
12
25
25
26
30
22
-5
-60
-147
-220
-278
-299
-288
-259
-217
-168
-116
-76
-41
-23
-12
-8
-6
-4
-2
0
2
3
3
3
5
7
9
11
13
14
15
15
15
17
19
20
21
23
25
26
28
31
33
35
38
41
44
46
49
55
59
63
67
70
73
76
79
82
83
84
85
85
84
82
80
81
73
69
62
55
47
38
30
22
15
8
2
-4
-9
-13
-15
-17
-19
-21
-23
-25
-25
-25
-25
-25
-25
-25
-25
-25
-26
-27
-26
-25
-25
-25
-24
-23
-24
-24
-22
-21
-21
-21
-21
-22
-23
-23
-23
-22
-21
-22
-23
-23
-23
-23
-23
-23
-23
-24
-25
-26
-27
-26
-25
-25
-25
-25
-26
-28
-29
-29
-29
-29
-29
-29
-29
-30
-31
-30
-29
-28
-27
-28
-29
-29
-24
-19
-17
-15
-16
-17
-17
-17
-15
-13
-14
-16
-21
-25
-27
-28
-25
-23
-24
-26
-31
-34
-36
-36
-34
-33
-33
-33
-34
-35
-35
-35
-34
-33
-33
-33
-32
-31
-32
-32
-33
-29
-29
-28
-27
-27
-27
-25
-22
-14
-4
13
26
30
36
46
50
42
7
-66
-149
-243
-295
-307
-288
-243
-188
-127
-79
-39
-19
-7
-1
2
3
4
5
5
7
10
12
14
16
17
17
17
19
21
22
23
24
25
26
27
29
31
35
37
39
41
43
46
50
54
57
61
65
68
71
75
79
83
87
91
94
95
96
98
100
101
100
96
92
85
77
69
61
53
44
35
26
17
8
2
-4
-8
-11
-14
-18
-22
-25
-25
-25
-25
-25
-26
-27
-28
-29
-28
-27
-27
-27
-27
-27
-28
-29
-28
-27
-27
-27
-26
-25
-26
-27
-27
-25
-25
-25
-25
-26
-27
-27
-27
-26
-25
-26
-27
-28
-29
-27
-25
-26
-27
-27
-27
-30
-31
-30
-29
-29
-29
-29
-30
-32
-33
-32
-31
-30
-30
-32
-33
-33
-33
-32
-31
-30
-26
-23
-22
-21
-19
-17
-17
-17
-16
-15
-18
-21
-24
-27
-28
-29
-27
-25
-27
-30
-33
-35
-35
-35
-36
-37
-37
-37
-37
-37
-36
-35
-35
-35
-36
-36
-34
-33
-33
-33
-33
-33
-33
-32
-31
-30
-29
-27
-24
-17
-8
9
24
29
36
46
50
40
3
-75
-160
-255
-309
-318
-299
-253
-197
-133
-84
-43
-22
-11
-7
-6
-3
0
2
4
6
8
9
9
11
9
16
17
18
19
18
17
20
23
24
25
27
29
29
30
34
37
39
42
46
50
53
57
62
67
71
75
79
82
84
88
93
95
96
97
98
97
94
93
92
87
82
72
63
53
43
32
22
14
6
-1
-8
-13
-17
-19
-21
-23
-25
-26
-27
-29
-31
-31
-31
-31
-31
-32
-33
-33
-33
-33
-33
-32
-31
-31
-31
-32
-33
-32
-31
-30
-29
-29
-29
-29
-28
-27
-28
-29
-29
-29
-29
-29
-29
-29
-28
-27
-28
-29
-31
-33
-32
-31
-32
-33
-33
-33
-34
-35
-35
-35
-34
-33
-34
-35
-36
-37
-36
-35
-35
-35
-35
-35
-36
-37
-37
-34
-33
-31
-29
-26
-23
-22
-21
-21
-21
-20
-19
-19
-20
-24
-28
-31
-33
-31
-29
-29
-29
-30
-33
-37
-39
-38
-38
-40
-41
-41
-41
-40
-39
-38
-37
-38
-39
-38
-37
-36
-35
-35
-35
-35
-34
-33
-33
-33
-33
-33
-29
-22
-7
6
19
29
35
40
43
23
-27
-101
-198
-271
-322
-322
-286
-238
-183
-129
-76
-46
-26
-17
-12
-9
-6
-4
-2
0
2
3
5
8
11
12
13
14
15
15
15
16
17
20
23
24
25
25
26
30
33
35
38
41
44
47
50
53
58
63
67
70
72
74
78
82
86
90
91
92
93
92
91
91
85
81
73
65
55
46
37
28
20
12
3
-5
-12
-18
-21
-23
-25
-28
-31
-33
-34
-35
-34
-33
-33
-33
-33
-34
-36
-37
-36
-35
-34
-33
-34
-35
-35
-35
-35
-35
-34
-33
-33
-34
-35
-33
-31
-31
-31
-32
-33
-34
-35
-34
-33
-33
-33
-33
-33
-35
-37
-36
-35
-36
-37
-37
-37
-37
-37
-38
-39
-38
-38
-40
-41
-41
-41
-40
-39
-40
-41
-40
-39
-41
-39
-37
-37
-37
-34
-31
-30
-29
-28
-27
-26
-25
-24
-24
-28
-32
-35
-37
-36
-35
-35
-35
-36
-39
-43
-45
-44
-43
-44
-45
-46
-47
-46
-45
-45
-45
-44
-43
-44
-45
-45
-42
-41
-41
-41
-41
-41
-41
-41
-39
-37
-36
-33
-25
-14
2
14
17
21
26
23
10
-36
-111
-188
-265
-301
-311
-295
-263
-220
-172
-121
-70
-44
-25
-18
-14
-11
-8
-7
-6
-3
-1
0
1
2
3
5
7
8
9
9
9
9
9
13
15
17
19
20
21
23
26
28
30
33
36
39
43
47
51
55
59
62
65
68
71
74
75
76
77
78
78
75
72
69
64
59
50
42
33
24
14
6
-1
-8
-14
-20
-24
-27
-28
-29
-30
-31
-34
-35
-35
-35
-35
-35
-35
-35
-35
-35
-36
-37
-36
-35
-34
-33
-33
-33
-34
-34
-35
-30
-29
-31
-33
-33
-33
-32
-31
-31
-31
-32
-33
-34
-35
-34
-33
-33
-33
-33
-33
-34
-35
-35
-35
-35
-35
-35
-35
-36
-37
-37
-37
-37
-37
-37
-37
-38
-39
-39
-39
-38
-37
-37
-37
-37
-36
-35
-31
-27
-25
-23
-24
-25
-23
-21
-20
-20
-24
-29
-34
-37
-36
-34
-31
-29
-30
-34
-39
-41
-40
-39
-40
-41
-41
-41
-42
-42
-40
-39
-39
-39
-39
-39
-39
-38
-37
-36
-35
-35
-35
-36
-37
-35
-33
-31
-26
-16
-4
11
21
23
28
35
35
26
-18
-93
-171
-251
-288
-300
-278
-237
-189
-137
-93
-50
-30
-16
-10
-6
-5
-4
-3
-3
2
5
6
7
8
9
11
13
13
13
15
17
17
18
21
23
24
25
27
29
32
34
37
40
43
46
49
53
56
59
63
68
72
75
78
80
82
84
86
87
88
88
87
83
79
75
71
63
56
45
35
25
16
10
4
-3
-8
-12
-16
-20
-23
-24
-25
-26
-27
-28
-29
-29
-29
-29
-29
-29
-29
-30
-31
-31
-31
-31
-30
-28
-27
-27
-27
-29
-28
-27
-26
-25
-25
-25
-26
-27
-26
-25
-24
-23
-24
-25
-26
-27
-27
-27
-27
-27
-27
-28
-30
-31
-31
-31
-30
-29
-30
-31
-31
-31
-32
-33
-32
-31
-32
-33
-34
-35
-35
-33
-33
-32
-31
-32
-33
-32
-31
-29
-27
-22
-19
-19
-19
-18
-17
-16
-15
-15
-17
-22
-26
-29
-30
-27
-25
-25
-26
-28
-31
-35
-36
-34
-33
-34
-35
-36
-37
-36
-35
-34
-33
-33
-33
-33
-33
-33
-31
-29
-30
-31
-30
-29
-28
-27
-27
-26
-23
-17
-6
8
24
35
40
46
52
32
-8
-80
-170
-246
-314
-315
-289
-245
-196
-137
-77
-45
-18
-8
0
1
3
4
5
7
9
11
13
14
15
16
17
19
21
21
22
25
27
27
27
29
32
35
37
38
40
42
45
49
52
54
57
62
66
72
76
80
82
84
88
92
96
93
102
103
103
103
101
99
95
91
85
79
70
60
49
39
31
22
14
6
-1
-7
-14
-17
-18
-20
-22
-23
-24
-25
-26
-27
-26
-25
-25
-25
-25
-26
-28
-28
-26
-25
-25
-25
-25
-26
-27
-26
-25
-24
-23
-23
-23
-24
-25
-24
-23
-22
-21
-22
-23
-23
-23
-23
-23
-23
-23
-23
-24
-26
-27
-26
-25
-25
-25
-26
-28
-30
-31
-30
-29
-29
-29
-29
-29
-31
-30
-29
-29
-29
-29
-29
-30
-31
-29
-27
-26
-25
-24
-22
-18
-15
-15
-15
-14
-13
-12
-12
-15
-19
-23
-25
-25
-24
-22
-21
-22
-26
-30
-31
-30
-29
-30
-31
-32
-33
-33
-32
-31
-31
-31
-31
-31
-30
-29
-29
-29
-28
-27
-27
-27
-26
-25
-25
-25
-23
-18
-11
1
19
29
35
43
55
51
37
-26
-110
-201
-295
-315
-315
-276
-229
-167
-103
-65
-28
-17
-7
-4
-1
2
5
8
11
12
13
13
13
16
19
20
21
23
25
25
26
29
31
31
32
34
36
38
40
44
47
50
52
54
56
58
62
66
71
76
80
84
86
89
93
97
99
101
102
103
102
101
99
96
92
87
80
72
60
50
41
31
22
14
7
0
-6
-11
-15
-17
-18
-20
-22
-24
-26
-27
-27
-27
-26
-25
-26
-27
-28
-29
-29
-27
-27
-26
-25
-26
-27
-27
-27
-26
-25
-25
-25
-26
-27
-26
-25
-25
-25
-25
-25
-26
-27
-27
-27
-26
-25
-26
-28
-30
-31
-30
-29
-29
-29
-29
-30
-32
-33
-32
-31
-31
-31
-31
-33
-35
-34
-33
-33
-33
-34
-35
-35
-35
-35
-35
-34
-33
-33
-33
-32
-30
-27
-24
-21
-19
-20
-21
-20
-19
-18
-19
-22
-26
-31
-33
-32
-30
-28
-28
-30
-34
-38
-39
-37
-38
-39
-38
-37
-37
-37
-38
-39
-38
-37
-36
-35
-35
-35
-35
-35
-34
-33
-32
-31
-31
-31
-31
-28
-22
-12
0
13
25
32
37
42
48
12
-34
-121
-216
-277
-336
-313
-339
-233
-181
-125
-71
-45
-22
-14
-7
-4
-1
0
1
2
4
7
9
11
13
13
13
14
16
19
21
21
21
22
23
24
26
28
31
34
35
36
39
42
45
48
53
58
62
65
68
71
76
81
83
85
88
91
92
93
94
95
93
90
85
79
73
66
58
49
40
30
21
13
4
-2
-9
-13
-16
-19
-22
-25
-28
-29
-29
-29
-29
-29
-30
-31
-33
-32
-31
-31
-31
-31
-31
-31
-31
-31
-31
-30
-29
-29
-29
-30
-31
-31
-31
-30
-29
-29
-29
-30
-31
-31
-31
-30
-29
-29
-30
-32
-33
-33
-32
-30
-29
-30
-31
-32
-33
-33
-33
-33
-34
-35
-36
-37
-36
-35
-35
-35
-34
-33
-34
-35
-35
-35
-33
-31
-30
-29
-26
-24
-22
-21
-20
-19
-19
-19
-19
-21
-25
-30
-34
-33
-30
-30
-32
-33
-33
-35
-38
-38
-37
-39
-41
-40
-39
-39
-39
-38
-37
-38
-39
-38
-37
-37
-37
-36
-35
-35
-35
-34
-33
-32
-31
-31
-28
-23
-10
7
17
23
28
32
27
19
-41
-112
-191
-272
-293
-308
-273
-235
-180
-127
-85
-46
-29
-15
-11
-7
-4
-1
0
1
3
5
6
7
9
11
12
13
13
13
14
16
18
20
22
23
24
25
26
29
32
34
36
39
42
45
48
52
49
60
63
66
69
71
73
78
83
84
85
85
85
84
83
81
78
75
70
63
55
46
37
28
20
14
7
0
-6
-11
-15
-18
-20
-22
-24
-26
-27
-28
-29
-29
-29
-29
-29
-29
-30
-31
-30
-29
-28
-27
-27
-27
-27
-27
-27
-27
-26
-25
-25
-25
-26
-27
-26
-25
-25
-25
-25
-25
-26
-27
-26
-25
-25
-25
-26
-27
-28
-29
-29
-29
-28
-28
-30
-31
-31
-31
-31
-31
-31
-31
-31
-32
-33
-33
-33
-33
-33
-32
-31
-31
-30
-27
-24
-20
-17
-16
-16
-18
-18
-15
-13
-14
-18
-23
-27
-32
-31
-28
-27
-27
-29
-32
-35
-38
-39
-39
-37
-37
-37
-37
-37
-37
-36
-35
-34
-33
-33
-33
-34
-35
-34
-33
-32
-31
-31
-31
-31
-30
-28
-23
-16
-3
15
25
31
40
50
46
36
-24
-97
-182
-269
-295
-313
-281
-244
-192
-140
-94
-50
-31
-13
-7
-1
0
1
2
3
6
9
11
13
14
15
15
15
16
18
21
23
24
25
25
26
28
30
32
35
38
39
40
44
48
51
54
57
60
64
69
74
79
83
87
90
93
94
95
96
97
97
96
92
87
81
75
69
61
52
43
34
25
15
8
2
-4
-9
-13
-17
-20
-22
-23
-24
-25
-26
-27
-27
-27
-28
-29
-29
-28
-27
-27
-27
-28
-29
-28
-27
-27
-27
-27
-27
-27
-27
-26
-25
-25
-25
-25
-25
-26
-27
-26
-25
-25
-25
-25
-25
-26
-27
-27
-27
-27
-27
-27
-27
-28
-29
-29
-29
-29
-30
-31
-31
-31
-31
-31
-31
-31
-31
-31
-32
-33
-31
-29
-27
-24
-21
-19
-19
-19
-19
-18
-15
-14
-16
-20
-25
-28
-30
-29
-26
-25
-26
-29
-32
-34
-36
-37
-36
-35
-35
-35
-37
-36
-35
-34
-33
-33
-33
-34
-35
-34
-33
-32
-31
-31
-31
-32
-33
-31
-29
-28
-25
-20
-10
4
16
27
37
47
51
50
5
-56
-145
-242
-291
-329
-300
-259
-204
-148
-98
-145
-28
-9
-5
-1
0
1
3
5
7
9
11
13
13
13
15
17
19
21
21
21
22
24
26
28
31
33
34
36
38
41
44
48
52
54
56
60
64
68
72
77
82
86
89
92
95
98
101
102
103
102
100
94
89
86
81
73
64
54
43
32
22
15
8
1
-5
-9
-13
-17
-20
-22
-23
-24
-25
-26
-28
-30
-30
-28
-27
-27
-27
-28
-29
-29
-28
-27
-27
-27
-27
-27
-27
-27
-27
-27
-26
-25
-25
-25
-26
-27
-26
-25
-25
-25
-25
-25
-26
-27
-26
-25
-25
-25
-26
-27
-28
-29
-28
-27
-28
-29
-29
-29
-30
-31
-31
-30
-29
-30
-31
-32
-33
-31
-29
-28
-27
-24
-21
-20
-19
-19
-19
-18
-17
-17
-18
-21
-24
-26
-27
-28
-29
-28
-27
-28
-31
-35
-37
-36
-35
-35
-35
-36
-37
-37
-37
-36
-36
-37
-37
-37
-36
-35
-34
-33
-33
-33
-33
-33
-32
-31
-30
-29
-28
-25
-17
-6
12
23
28
37
48
40
16
-49
-137
-222
-304
-319
-308
-267
-218
-159
-97
-61
-28
-17
-8
-5
-1
0
1
3
5
6
7
8
9
11
13
15
17
17
17
18
19
21
23
25
27
28
29
30
32
35
38
41
45
48
50
52
56
60
65
70
74
78
81
84
87
85
92
93
93
93
91
89
86
82
76
69
60
51
40
30
20
12
6
0
-7
-13
-18
-22
-24
-25
-25
-26
-28
-30
-32
-33
-32
-31
-31
-31
-32
-33
-33
-33
-32
-31
-31
-31
-31
-31
-31
-30
-29
-29
-29
-29
-29
-29
-29
-29
-29
-28
-27
-28
-29
-30
-31
-31
-31
-30
-29
-29
-30
-32
-33
-32
-31
-31
-31
-31
-32
-34
-35
-35
-35
-34
-33
-33
-33
-35
-35
-35
-34
-33
-32
-31
-29
-27
-24
-21
-21
-21
-20
-19
-19
-20
-23
-26
-29
-31
-32
-33
-32
-31
-32
-35
-39
-41
-40
-40
-42
-43
-42
-41
-40
-39
-39
-39
-39
-39
-39
-37
-37
-37
-37
-38
-39
-37
-35
-35
-35
-35
-35
-33
-28
-19
-7
10
21
23
26
31
26
12
-40
-121
-199
-274
-302
-304
-277
-236
-184
-129
-85
-44
-29
-19
-14
-10
-8
-6
-4
-3
-1
1
3
5
7
9
9
9
10
11
12
13
15
17
18
19
20
21
23
26
28
30
33
36
38
41
45
49
53
57
60
62
64
69
74
77
80
81
81
81
81
79
77
73
69
64
58
49
40
32
23
15
8
2
-5
-12
-18
-21
-23
-25
-27
-30
-31
-32
-33
-33
-33
-33
-33
-33
-33
-33
-33
-33
-33
-32
-31
-31
-31
-32
-33
-33
-31
-31
-31
-31
-31
-31
-31
-31
-30
-29
-29
-29
-30
-31
-30
-29
-29
-29
-30
-31
-32
-33
-33
-33
-33
-33
-34
-35
-35
-35
-35
-35
-35
-35
-36
-37
-37
-37
-37
-37
-36
-35
-35
-36
-37
-35
-33
-29
-25
-24
-23
-25
-27
-24
-21
-22
-24
-28
-32
-36
-38
-35
-33
-33
-34
-36
-39
-43
-44
-42
-41
-42
-43
-43
-43
-43
-43
-42
-41
-41
-41
-40
-39
-39
-39
-39
-38
-37
-36
-35
-36
-37
-36
-34
-30
-24
-10
3
16
27
32
37
43
26
-19
-88
-177
-249
-308
-313
-283
-238
-186
-130
-73
-44
-23
-15
-8
-7
-6
-4
-2
0
-1
5
7
8
9
9
9
11
13
15
17
18
19
19
20
23
25
26
27
29
31
34
37
41
44
47
51
55
59
62
65
69
74
78
82
86
87
88
90
92
93
94
92
89
84
79
73
66
58
50
41
31
21
12
6
0
-7
-12
-16
-20
-23
-25
-26
-27
-28
-29
-30
-31
-32
-33
-32
-31
-30
-29
-30
-31
-32
-33
-32
-31
-30
-29
-29
-29
-31
-30
-29
-28
-27
-28
-29
-29
-29
-29
-29
-28
-27
-27
-27
-28
-29
-29
-29
-29
-29
-30
-31
-32
-33
-32
-31
-31
-31
-32
-33
-34
-35
-34
-33
-33
-33
-34
-35
-35
-35
-35
-31
-29
-27
-25
-23
-21
-20
-19
-20
-21
-19
-17
-20
-23
-25
-27
-29
-31
-29
-27
-28
-30
-33
-35
-36
-37
-37
-37
-38
-39
-38
-37
-37
-37
-36
-35
-36
-37
-36
-35
-35
-34
-33
-33
-33
-32
-31
-31
-31
-29
-26
-21
-13
6
21
28
36
45
50
47
16
-50
-131
-227
-288
-320
-307
-262
-204
-138
-88
-45
-24
-12
-8
-6
-3
0
2
4
6
8
9
9
12
15
16
17
18
19
20
21
23
25
27
29
29
29
31
33
35
38
41
43
46
48
51
55
59
63
67
71
75
79
82
86
92
94
96
98
100
101
101
100
101
94
91
84
77
69
60
47
36
25
16
7
0
-6
-12
-15
-17
-19
-22
-25
-27
-28
-29
-30
-31
-30
-29
-29
-30
-32
-32
-30
-29
-29
-29
-30
-31
-30
-29
-29
-29
-28
-27
-27
-28
-29
-28
-27
-26
-25
-26
-27
-28
-29
-28
-27
-27
-27
-27
-27
-28
-29
-28
-27
-27
-27
-28
-29
-30
-31
-30
-29
-29
-29
-30
-31
-31
-31
-31
-31
-30
-29
-30
-31
-31
-30
-29
-28
-27
-26
-25
-22
-19
-17
-15
-15
-15
-14
-13
-14
-15
-17
-21
-26
-29
-26
-25
-25
-25
-25
-27
-31
-33
-32
-31
-32
-33
-33
-33
-33
-33
-33
-33
-34
-35
-35
-31
-29
-29
-29
-29
-29
-28
-27
-27
-27
-27
-27
-24
-17
-4
10
26
37
42
47
54
34
-11
-81
-171
-249
-319
-325
-298
-248
-190
-132
-73
-41
-15
-7
-2
0
2
3
4
7
9
9
9
13
17
18
19
20
21
21
21
23
25
27
29
31
33
34
35
37
40
42
44
47
50
52
55
59
63
67
72
76
80
84
87
90
94
98
100
102
103
103
103
103
100
97
93
88
80
72
62
53
43
33
24
15
6
-1
-7
-11
-13
-16
-19
-22
-24
-25
-26
-27
-27
-27
-27
-27
-28
-29
-28
-27
-27
-27
-26
-25
-26
-27
-27
-25
-23
-24
-25
-25
-25
-25
-25
-25
-25
-25
-25
-25
-25
-26
-27
-26
-25
-25
-25
-26
-27
-26
-25
-25
-25
-26
-27
-28
-29
-29
-29
-29
-29
-30
-31
-31
-31
-31
-31
-30
-30
-31
-32
-33
-32
-31
-30
-29
-30
-31
-31
-31
-30
-29
-29
-29
-29
-29
-28
-26
-22
-18
-16
-15
-15
-15
-14
-13
-12
-14
-19
-24
-28
-28
-26
-25
-25
-28
-32
-33
-34
-35
-37
-37
-37
-36
-35
-35
-35
-35
-35
-34
-33
-33
-33
-32
-31
-32
-33
-32
-31
-30
-29
-29
-29
-28
-23
-15
-1
17
24
26
32
39
33
22
-40
-114
-194
-275
-299
-318
-283
-319
-189
-133
-86
-42
-27
-13
-6
-1
1
3
4
5
6
8
11
13
13
13
14
15
16
18
20
22
24
25
25
25
25
27
31
34
36
38
40
42
44
48
52
56
60
64
67
70
73
77
81
83
85
88
91
90
89
90
90
86
82
78
72
64
57
51
43
34
24
15
7
0
-5
-9
-13
-16
-18
-20
-23
-26
-27
-27
-27
-27
-27
-28
-29
-29
-30
-31
-30
-29
-28
-27
-28
-29
-28
-27
-27
-27
-27
-27
-28
-29
-27
-25
-25
-25
-26
-27
-27
-27
-27
-27
-27
-27
-28
-29
-29
-29
-29
-29
-29
-29
-30
-31
-32
-33
-33
-31
-31
-32
-33
-34
-35
-34
-33
-33
-33
-33
-33
-34
-35
-34
-33
-32
-31
-31
-31
-30
-27
-23
-20
-18
-17
-18
-19
-18
-19
-22
-25
-28
-29
-30
-30
-28
-27
-27
-31
-36
-37
-37
-38
-39
-39
-39
-38
-37
-38
-39
-38
-37
-37
-37
-36
-35
-35
-35
-35
-35
-34
-33
-33
-33
-33
-33
-32
-28
-21
-9
6
18
28
31
30
29
29
-12
-59
-142
-228
-272
-315
-291
-265
-219
-172
-118
-69
-43
-20
-12
-5
-3
-1
-1
-1
1
3
5
8
11
13
13
13
13
14
16
18
20
21
21
21
22
25
28
30
32
34
36
38
40
44
41
53
57
60
63
66
69
73
77
81
85
85
85
87
89
88
87
85
81
76
70
63
55
47
39
32
24
15
6
-2
-7
-11
-15
-18
-21
-24
-26
-28
-29
-28
-27
-28
-29
-29
-30
-31
-30
-29
-29
-29
-29
-29
-29
-29
-28
-27
-26
-25
-26
-27
-27
-27
-26
-25
-25
-25
-25
-25
-26
-27
-27
-27
-26
-25
-25
-25
-26
-27
-27
-27
-26
-25
-26
-27
-29
-30
-31
-30
-29
-29
-29
-30
-31
-32
-33
-32
-31
-31
-31
-32
-33
-33
-33
-32
-31
-31
-31
-31
-31
-31
-30
-28
-26
-24
-22
-20
-19
-18
-17
-18
-17
-14
-14
-16
-20
-17
-27
-29
-27
-25
-25
-25
-27
-29
-32
-35
-34
-33
-35
-37
-37
-37
-36
-35
-35
-35
-35
-35
-35
-34
-32
-31
-31
-31
-32
-33
-32
-31
-30
-29
-28
-23
-18
-4
12
24
36
44
51
48
40
-25
-95
-192
-278
-307
-323
-284
-240
-183
-128
-78
-39
-20
-8
-5
-3
-1
2
4
5
6
8
10
12
14
16
18
19
19
19
20
22
24
26
28
29
29
30
33
37
41
43
45
48
51
54
57
61
66
72
78
82
85
87
90
94
98
101
103
102
101
100
98
95
90
85
77
68
58
48
38
27
20
13
5
-2
-8
-14
-17
-15
-22
-23
-25
-27
-28
-29
-29
-29
-29
-29
-29
-29
-31
-33
-31
-29
-28
-27
-28
-29
-30
-30
-28
-27
-27
-27
-27
-28
-30
-30
-28
-27
-27
-27
-27
-27
-28
-29
-28
-27
-27
-28
-29
-29
-29
-29
-29
-29
-29
-30
-31
-32
-33
-32
-31
-31
-31
-32
-33
-34
-35
-34
-33
-33
-33
-33
-33
-34
-35
-34
-33
-33
-33
-32
-31
-32
-32
-30
-27
-24
-22
-20
-19
-19
-19
-19
-16
-13
-15
-17
-24
-29
-30
-31
-28
-25
-26
-28
-33
-37
-38
-39
-37
-35
-35
-35
-36
-37
-37
-37
-37
-37
-36
-35
-36
-37
-36
-35
-34
-33
-33
-33
-33
-33
-33
-30
-29
-24
-18
-2
14
24
34
45
53
50
29
-36
-113
-212
-287
-320
-322
-280
-228
-166
-110
-61
-31
-15
-8
-5
-3
-2
1
4
6
8
9
10
11
12
14
16
17
18
20
21
22
23
25
27
29
31
33
35
36
38
42
45
49
52
55
58
61
65
71
76
79
83
87
90
92
95
99
101
102
103
102
98
94
89
84
77
70
60
50
40
29
20
11
4
-3
-8
-13
-17
-21
-23
-25
-26
-27
-27
-27
-29
-31
-31
-31
-30
-29
-30
-31
-31
-31
-30
-29
-29
-29
-29
-29
-29
-29
-28
-27
-27
-27
-27
-27
-28
-29
-29
-27
-27
-27
-27
-28
-29
-29
-29
-28
-27
-28
-29
-30
-31
-30
-29
-29
-29
-30
-31
-31
-31
-32
-33
-32
-31
-32
-33
-33
-33
-33
-33
-32
-31
-32
-33
-33
-33
-33
-33
-32
-31
-31
-32
-33
-31
-29
-28
-27
-24
-21
-20
-19
-18
-17
-15
-13
-14
-16
-20
-24
-27
-28
-26
-25
-25
-26
-28
-31
-35
-37
-36
-35
-35
-36
-38
-39
-38
-37
-36
-35
-34
-33
-33
-33
-33
-32
-31
-31
-31
-31
-31
-30
-29
-28
-26
-22
-15
0
13
24
33
39
43
46
15
-47
-128
-223
-283
-323
-314
-279
-229
-173
-114
-55
-29
-10
-4
0
1
1
2
1
8
11
13
15
16
17
18
19
21
23
23
23
24
25
27
29
31
33
34
35
36
38
40
43
47
50
52
55
59
63
67
72
76
80
84
86
88
91
94
97
100
101
101
98
95
92
89
83
76
68
59
48
37
29
21
13
5
-2
-9
-14
-17
-19
-22
-24
-25
-26
-27
-28
-29
-29
-29
-29
-29
-29
-29
-30
-31
-30
-29
-29
-29
-29
-29
-29
-28
-27
-26
-25
-26
-27
-28
-29
-28
-27
-27
-27
-27
-27
-28
-29
-29
-29
-28
-27
-28
-30
-32
-33
-32
-31
-31
-31
-31
-32
-34
-35
-34
-33
-33
-33
-33
-33
-34
-35
-35
-34
-33
-33
-33
-34
-35
-34
-33
-32
-31
-28
-25
-23
-21
-21
-21
-20
-19
-18
-17
-20
-23
-28
-31
-31
-30
-28
-28
-30
-33
-36
-37
-37
-37
-37
-38
-40
-41
-40
-39
-38
-38
-39
-40
-41
-39
-37
-37
-37
-36
-35
-36
-37
-36
-35
-33
-31
-31
-30
-26
-15
3
16
23
28
30
28
23
-23
-93
-171
-253
-289
-308
-288
-255
-208
-158
-108
-59
-38
-18
-13
-7
-5
-3
-2
-1
1
3
4
5
8
11
12
13
13
13
14
15
16
17
19
21
22
24
26
27
28
30
33
37
40
42
44
48
52
56
60
64
68
71
74
76
75
81
83
84
85
83
81
79
77
73
68
59
51
44
37
30
22
14
6
-1
-7
-14
-18
-21
-24
-26
-27
-28
-30
-32
-33
-32
-31
-31
-31
-32
-33
-33
-33
-32
-31
-30
-31
-33
-33
-33
-31
-29
-29
-29
-29
-29
-30
-31
-30
-29
-29
-29
-29
-29
-30
-31
-31
-31
-30
-29
-30
-31
-32
-33
-33
-33
-33
-33
-34
-35
-36
-37
-36
-35
-35
-35
-36
-37
-37
-37
-37
-36
-35
-35
-35
-36
-37
-35
-33
-32
-31
-29
-27
-25
-23
-22
-21
-20
-19
-18
-19
-23
-26
-29
-31
-31
-31
-30
-29
-30
-34
-38
-39
-38
-37
-38
-39
-40
-41
-41
-39
-39
-38
-37
-38
-39
-38
-37
-36
-35
-35
-35
-35
-35
-34
-33
-32
-31
-30
-27
-20
-9
9
20
26
34
43
39
25
-33
-109
-191
-275
-300
-309
-280
-244
-190
-135
-87
-40
-25
-11
-7
-3
-2
-1
2
5
6
7
8
9
11
13
15
17
18
19
19
19
20
22
25
27
28
29
29
31
35
39
42
45
48
51
54
59
64
67
70
74
78
80
83
86
89
92
95
94
93
91
89
87
84
79
73
65
56
47
38
29
20
12
5
-2
-8
-14
-18
-20
-21
-22
-25
-28
-29
-29
-29
-29
-29
-29
-29
-30
-31
-31
-31
-31
-29
-29
-29
-29
-29
-29
-28
-27
-26
-25
-26
-27
-27
-27
-26
-25
-25
-25
-25
-25
-26
-27
-26
-25
-25
-25
-26
-27
-28
-29
-29
-29
-28
-27
-28
-29
-30
-31
-31
-31
-31
-31
-31
-32
-33
-33
-33
-32
-31
-31
-31
-31
-31
-30
-29
-27
-24
-21
-19
-18
-17
-17
-17
-16
-15
-15
-17
-21
-25
-29
-30
-28
-27
-26
-26
-28
-32
-36
-36
-34
-33
-34
-35
-37
-36
-35
-35
-35
-34
-33
-33
-33
-32
-31
-31
-31
-30
-29
-30
-31
-30
-29
-28
-26
-23
-16
-6
7
23
31
35
42
50
45
32
-32
-113
-205
-299
-312
-310
-265
-216
-155
-213
-60
-27
-17
-7
-4
-1
1
3
6
9
11
13
13
14
17
19
20
21
22
23
24
25
25
27
31
33
34
35
36
38
40
44
48
51
54
57
60
64
68
73
78
83
87
89
91
94
97
100
103
102
101
99
97
94
90
85
79
70
61
50
39
30
21
13
6
-2
-7
-11
-14
-18
-19
-20
-21
-22
-23
-24
-25
-26
-27
-26
-25
-26
-27
-27
-26
-25
-25
-25
-25
-25
-25
-25
-24
-23
-22
-21
-22
-23
-23
-23
-23
-23
-22
-21
-22
-23
-23
-23
-23
-23
-23
-23
-23
-23
-24
-25
-25
-25
-25
-25
-26
-27
-28
-29
-29
-27
-27
-27
-27
-28
-29
-27
-25
-26
-27
-26
-25
-24
-22
-19
-17
-15
-13
-13
-13
-13
-13
-13
-14
-17
-21
-25
-26
-24
-23
-22
-22
-24
-27
-30
-31
-31
-31
-31
-31
-31
-31
-31
-31
-31
-31
-31
-30
-29
-29
-29
-29
-29
-29
-29
-28
-27
-27
-27
-27
-26
-23
-15
-3
11
26
36
42
48
55
27
-17
-95
-185
-256
-321
-313
-289
-242
-191
-135
-77
-47
-17
-9
-1
2
5
7
9
9
9
13
17
17
17
19
21
21
21
23
25
25
26
29
31
32
33
34
36
39
42
44
46
48
52
56
60
64
68
72
75
78
83
79
93
97
98
99
100
101
101
101
99
97
94
89
82
74
65
55
44
34
26
18
9
3
-1
-5
-11
-14
-17
-20
-22
-23
-24
-25
-25
-25
-25
-25
-26
-27
-26
-25
-25
-25
-25
-25
-25
-25
-25
-23
-21
-22
-23
-23
-23
-23
-23
-23
-23
-23
-23
-23
-23
-23
-23
-22
-21
-22
-23
-24
-25
-25
-25
-25
-25
-25
-25
-26
-27
-27
-27
-27
-27
-27
-27
-29
-29
-29
-28
-27
-26
-25
-26
-27
-24
-21
-18
-15
-15
-15
-16
-17
-15
-13
-15
-19
-24
-27
-28
-28
-25
-23
-24
-28
-33
-35
-35
-35
-35
-35
-35
-35
-35
-35
-35
-35
-35
-33
-33
-33
-33
-33
-33
-32
-31
-30
-29
-29
-29
-30
-30
-27
-22
-11
1
15
23
26
30
37
32
16
-40
-121
-198
-272
-295
-295
-266
-226
-174
-120
-78
-38
-22
-8
-4
0
2
3
2
1
3
5
8
11
12
13
13
13
15
17
17
17
19
21
22
23
24
26
28
30
32
34
36
38
42
45
48
52
56
59
62
65
68
72
76
78
80
81
83
84
85
85
85
82
79
75
70
64
57
49
41
32
23
14
7
1
-4
-8
-12
-17
-20
-22
-23
-24
-25
-25
-25
-26
-28
-30
-30
-28
-27
-27
-27
-27
-27
-27
-27
-27
-25
-25
-25
-25
-25
-25
-24
-23
-23
-23
-23
-23
-24
-25
-24
-23
-23
-23
-24
-25
-25
-25
-25
-25
-26
-27
-27
-27
-28
-29
-29
-29
-29
-29
-29
-29
-30
-31
-30
-29
-29
-29
-29
-28
-27
-22
-17
-16
-15
-16
-17
-17
-17
-17
-18
-22
-26
-29
-31
-29
-27
-27
-28
-31
-34
-36
-37
-37
-37
-37
-37
-37
-37
-36
-35
-36
-37
-36
-35
-35
-35
-35
-35
-35
-34
-33
-32
-31
-31
-31
-32
-33
-29
-23
-11
1
16
27
26
26
30
22
-5
-59
-143
-212
-269
-290
-284
-257
-218
-172
-122
-81
-44
-25
-12
-6
-2
-1
-1
-1
-1
1
-1
7
9
10
11
11
11
12
13
16
19
19
19
19
20
23
25
27
29
31
33
34
36
39
42
45
49
53
57
60
63
67
71
74
77
80
81
81
81
82
83
82
77
73
68
63
57
50
42
34
25
16
8
0
-6
-11
-15
-18
-21
-23
-25
-27
-28
-29
-29
-29
-30
-31
-31
-31
-31
-31
-30
-29
-29
-29
-29
-29
-28
-27
-27
-27
-27
-27
-27
-27
-27
-26
-25
-25
-25
-26
-27
-27
-27
-26
-25
-25
-25
-26
-27
-27
-27
-27
-27
-28
-29
-30
-31
-30
-29
-29
-29
-30
-31
-32
-33
-32
-31
-30
-29
-29
-28
-26
-23
-25
-19
-19
-19
-19
-19
-19
-21
-23
-27
-31
-32
-33
-31
-29
-29
-30
-33
-35
-35
-35
-38
-39
-38
-37
-37
-37
-37
-37
-37
-37
-36
-35
-35
-35
-35
-35
-35
-35
-34
-32
-30
-30
-31
-29
-27
-16
-5
12
27
30
35
44
47
29
-8
-89
-172
-260
-312
-308
-283
-234
-177
-111
-64
-31
-13
-6
-2
0
1
1
2
4
5
6
8
10
11
12
14
16
17
17
18
19
22
25
26
27
28
29
31
33
36
39
40
42
46
50
54
59
64
68
73
76
79
83
87
90
93
95
96
97
97
97
97
95
92
85
78
69
60
51
59
32
23
15
7
-1
-9
-13
-17
-19
-21
-23
-25
-26
-27
-28
-29
-29
-29
-29
-29
-30
-31
-30
-29
-28
-27
-27
-27
-28
-29
-29
-29
-28
-27
-27
-27
-27
-27
-26
-25
-25
-26
-27
-27
-27
-27
-27
-26
-25
-25
-25
-26
-27
-27
-27
-27
-27
-27
-27
-29
-31
-30
-29
-29
-29
-30
-31
-32
-33
-32
-31
-30
-28
-26
-23
-20
-19
-19
-19
-19
-18
-16
-16
-19
-22
-25
-27
-29
-27
-25
-27
-29
-31
-33
-34
-35
-35
-35
-36
-37
-36
-35
-35
-35
-35
-35
-35
-35
-34
-33
-32
-31
-31
-31
-31
-31
-30
-29
-28
-27
-26
-19
-12
6
-11
30
35
44
53
42
22
-58
-140
-236
-309
-312
-302
-253
-198
-134
-81
-47
-23
-11
-5
-2
0
3
5
6
8
10
11
12
14
16
17
18
19
20
21
21
23
26
28
30
32
33
34
35
38
41
44
47
50
53
56
60
64
68
73
78
81
84
88
92
95
98
101
103
103
102
100
98
94
90
85
77
68
57
47
37
27
19
12
6
0
-6
-13
-15
-17
-19
-21
-23
-25
-26
-27
-27
-27
-26
-25
-26
-27
-27
-27
-27
-27
-26
-25
-25
-25
-26
-27
-26
-25
-24
-23
-24
-25
-26
-27
-26
-25
-25
-25
-25
-25
-25
-25
-25
-23
-23
-24
-25
-26
-27
-26
-25
-26
-27
-27
-27
-28
-29
-29
-29
-29
-29
-29
-29
-30
-31
-31
-31
-30
-29
-29
-29
-28
-24
-19
-17
-16
-15
-16
-17
-16
-15
-15
-17
-20
-24
-27
-27
-27
-25
-23
-24
-25
-31
-35
-35
-35
-35
-35
-34
-33
-33
-33
-33
-33
-33
-33
-32
-31
-31
-31
-31
-31
-30
-29
-28
-27
-27
-27
-28
-25
-20
-6
9
20
30
37
45
50
53
8
-43
-136
-224
-283
-326
-297
-262
-206
-151
-96
-52
-29
-13
-6
0
3
5
6
7
8
10
12
14
16
17
18
19
20
22
24
25
26
27
28
29
29
31
29
38
41
43
45
47
49
53
57
63
67
70
73
76
80
84
88
92
95
97
99
99
99
98
96
94
90
85
78
70
62
55
47
37
28
19
11
2
-2
-6
-9
-12
-16
-19
-21
-23
-24
-25
-24
-23
-24
-25
-26
-27
-26
-25
-25
-25
-25
-25
-25
-25
-25
-25
-24
-23
-23
-23
-24
-25
-24
-23
-22
-21
-21
-21
-22
-23
-23
-23
-22
-21
-22
-23
-25
-25
-25
-24
-23
-24
-25
-26
-27
-28
-29
-28
-27
-28
-29
-31
-33
-31
-29
-29
-29
-30
-31
-31
-31
-30
-28
-26
-23
-20
-19
-19
-19
-18
-16
-14
-13
-13
-17
-22
-25
-23
-27
-25
-25
-25
-27
-29
-32
-35
-34
-33
-34
-35
-36
-37
-36
-35
-34
-33
-33
-33
-33
-33
-32
-31
-31
-31
-31
-31
-31
-31
-30
-29
-28
-23
-18
-5
9
20
30
33
36
33
28
-30
-89
-171
-246
-277
-299
-270
-237
-189
-140
-90
-49
-27
-12
-7
-3
-2
-1
1
3
4
6
8
9
9
10
14
15
16
17
17
17
17
19
22
24
26
27
27
29
33
35
37
40
43
45
47
51
55
58
62
66
69
72
75
76
78
81
83
83
83
82
80
77
73
69
64
58
49
40
30
20
14
10
5
0
-5
-10
-14
-18
-20
-19
-24
-25
-26
-27
-29
-31
-30
-29
-28
-27
-27
-27
-29
-31
-29
-27
-27
-27
-27
-27
-27
-27
-26
-25
-25
-25
-25
-25
-26
-27
-26
-25
-25
-25
-25
-25
-26
-27
-27
-27
-26
-27
-29
-30
-31
-30
-29
-29
-29
-30
-31
-32
-33
-32
-31
-31
-31
-31
-31
-32
-33
-33
-33
-32
-31
-31
-31
-30
-28
-24
-22
-20
-19
-19
-19
-18
-17
-17
-20
-24
-28
-32
-33
-31
-29
-27
-28
-29
-34
-39
-39
-39
-38
-37
-37
-37
-37
-37
-38
-39
-38
-37
-36
-35
-36
-37
-38
-39
-38
-37
-36
-35
-35
-35
-35
-33
-30
-18
-4
11
25
27
26
30
25
7
-27
-115
-200
-262
-313
-293
-270
-229
-185
-133
-87
-55
-30
-20
-12
-8
-5
-4
-3
-3
-2
0
2
4
6
8
9
9
11
14
15
15
16
18
19
19
20
22
24
26
29
31
33
35
39
43
47
51
55
59
61
64
68
72
76
79
81
83
84
85
85
85
85
83
79
74
68
60
52
44
36
27
18
9
1
-6
-12
-15
-18
-21
-24
-26
-29
-29
-29
-29
-29
-30
-31
-32
-33
-32
-31
-31
-31
-31
-31
-30
-29
-29
-29
-29
-29
-28
-27
-28
-29
-28
-27
-26
-25
-26
-27
-27
-27
-26
-25
-25
-25
-25
-25
-26
-27
-27
-28
-29
-29
-29
-30
-31
-31
-31
-30
-29
-30
-31
-32
-33
-33
-33
-32
-31
-32
-33
-34
-35
-34
-33
-32
-31
-32
-33
-33
-33
-33
-33
-32
-31
-31
-31
-30
-26
-22
-19
-16
-16
-17
-16
-15
-13
-11
-15
-20
-26
-31
-30
-29
-27
-25
-26
-28
-32
-35
-35
-35
-35
-35
-35
-35
-35
-35
-35
-35
-35
-35
-34
-33
-33
-33
-34
-34
-32
-31
-30
-29
-29
-29
-29
-23
-16
1
17
26
34
41
47
48
35
-21
-88
-180
-257
-307
-323
-286
-241
-186
-132
-78
-43
-24
-12
-6
-2
1
3
3
3
4
6
8
11
14
15
16
17
17
17
17
21
25
26
27
27
27
30
33
36
39
40
41
44
48
52
56
62
66
70
74
77
81
85
89
93
96
98
100
102
103
102
100
98
93
88
80
71
61
52
42
32
22
13
5
-3
-7
-11
-15
-19
-21
-23
-25
-27
-27
-27
-27
-27
-27
-27
-28
-29
-28
-27
-27
-27
-27
-27
-28
-29
-28
-27
-27
-27
-27
-27
-28
-29
-28
-27
-27
-27
-27
-27
-29
-28
-27
-27
-27
-27
-27
-28
-29
-29
-29
-29
-29
-29
-29
-30
-31
-31
-31
-31
-31
-32
-33
-34
-35
-34
-33
-32
-31
-32
-33
-33
-33
-33
-33
-32
-31
-32
-33
-33
-33
-33
-30
-27
-24
-21
-19
-17
-17
-17
-16
-15
-13
-11
-14
-19
-25
-29
-27
-25
-24
-23
-24
-27
-32
-35
-34
-33
-34
-35
-35
-35
-34
-33
-33
-33
-33
-33
-34
-35
-34
-33
-32
-31
-31
-31
-31
-30
-29
-29
-29
-26
-21
-12
-1
17
30
35
42
51
51
36
-8
-86
-172
-266
-312
-318
-295
-250
-193
-129
-80
-37
-18
-8
-3
0
2
4
6
8
9
10
11
13
15
17
19
21
22
23
24
25
27
29
31
33
34
35
36
37
39
42
46
50
53
56
59
63
67
72
78
83
86
89
92
96
100
102
104
105
106
106
104
102
103
92
85
76
66
55
44
35
26
19
12
5
-2
-7
-12
-15
-17
-18
-19
-21
-23
-24
-25
-25
-25
-24
-24
-26
-27
-27
-27
-26
-25
-24
-23
-23
-23
-24
-25
-24
-23
-22
-22
-23
-23
-23
-22
-21
-21
-21
-21
-21
-22
-23
-22
-21
-21
-21
-22
-23
-24
-25
-24
-23
-23
-23
-24
-25
-26
-27
-26
-25
-26
-27
-27
-27
-28
-29
-29
-29
-28
-27
-28
-29
-31
-30
-29
-29
-29
-29
-29
-30
-31
-29
-27
-26
-25
-24
-23
-21
-18
-15
-13
-13
-13
-12
-11
-10
-10
-13
-18
-23
-24
-22
-21
-21
-21
-22
-26
-30
-31
-31
-31
-32
-33
-33
-32
-31
-31
-31
-31
-31
-31
-31
-30
-29
-28
-27
-28
-29
-28
-27
-26
-25
-25
-25
-24
-18
-8
6
22
31
35
42
50
40
20
-54
-146
-228
-308
-311
-299
-252
-201
-135
-69
-41
-15
-9
-3
0
3
5
7
9
11
12
13
15
17
19
21
22
23
23
23
25
28
30
31
32
33
34
36
40
43
46
48
50
52
54
58
62
67
72
75
78
81
85
90
95
96
97
99
101
101
101
99
96
92
88
82
74
64
54
46
38
30
21
12
4
-3
-8
-11
-14
-16
-18
-20
-21
-22
-23
-23
-23
-23
-23
-24
-25
-25
-25
-25
-24
-23
-24
-25
-25
-25
-24
-23
-22
-21
-22
-23
-24
-25
-24
-23
-22
-21
-22
-23
-24
-25
-24
-23
-23
-23
-23
-23
-24
-25
-25
-25
-25
-25
-26
-27
-28
-29
-28
-27
-27
-28
-29
-30
-31
-31
-31
-30
-29
-30
-31
-30
-29
-28
-27
-23
-21
-19
-17
-17
-17
-16
-14
-12
-12
-15
-20
-25
-27
-27
-26
-24
-23
-24
-29
-34
-35
-34
-33
-33
-33
-34
-35
-35
-34
-33
-33
-33
-33
-33
-33
-33
-32
-31
-30
-29
-30
-31
-31
-31
-30
-29
-28
-27
-26
-22
-15
-1
18
26
28
32
37
31
20
-35
-104
-180
-258
-282
-297
-269
-235
-185
-233
-87
-43
-26
-11
-7
-3
-1
1
4
7
8
9
10
11
12
13
15
17
18
19
19
19
20
22
25
27
28
29
30
31
32
36
40
42
44
46
48
52
56
60
64
68
71
73
75
78
81
83
85
85
85
83
81
80
78
74
69
62
54
45
35
26
18
11
5
0
-6
-11
-14
-18
-19
-20
-21
-22
-24
-26
-27
-27
-27
-26
-25
-26
-27
-29
-28
-27
-26
-25
-25
-25
-26
-27
-26
-25
-24
-23
-23
-23
-24
-25
-24
-23
-22
-21
-22
-23
-24
-25
-24
-23
-24
-25
-25
-25
-26
-27
-27
-27
-27
-27
-28
-29
-30
-31
-31
-29
-29
-29
-29
-31
-33
-32
-31
-30
-29
-30
-31
-31
-31
-30
-29
-28
-27
-27
-26
-23
-20
-17
-15
-15
-15
-15
-15
-15
-17
-20
-23
-26
-27
-27
-27
-26
-25
-25
-28
-32
-33
-33
-35
-37
-36
-35
-35
-35
-34
-33
-34
-35
-34
-33
-33
-33
-33
-33
-33
-33
-32
-31
-30
-29
-29
-29
-28
-22
-14
0
16
27
35
41
47
44
38
-18
-82
-171
-262
-292
-321
-282
-242
-187
-132
-84
-41
-26
-12
-7
-3
-1
1
3
5
6
7
9
11
13
15
16
17
17
18
20
22
24
25
26
27
27
27
28
32
36
38
40
42
44
48
45
57
61
65
69
72
75
79
83
87
91
93
95
96
97
97
97
96
94
90
84
77
69
61
53
45
35
25
16
8
1
-5
-10
-14
-17
-20
-22
-24
-26
-28
-29
-28
-28
-29
-30
-31
-30
-29
-29
-29
-29
-29
-29
-29
-28
-27
-27
-27
-27
-27
-28
-29
-28
-27
-26
-25
-25
-26
-28
-28
-26
-25
-24
-24
-26
-27
-28
-29
-28
-27
-27
-27
-28
-29
-29
-29
-29
-29
-29
-30
-31
-32
-33
-32
-31
-31
-31
-31
-31
-31
-31
-31
-31
-30
-29
-29
-29
-30
-30
-28
-25
-21
-19
-18
-17
-18
-19
-18
-17
-16
-18
-22
-26
-30
-30
-31
-26
-25
-27
-29
-33
-37
-36
-35
-35
-35
-35
-35
-36
-37
-36
-35
-34
-33
-34
-35
-35
-35
-34
-32
-30
-29
-29
-29
-30
-31
-30
-26
-22
-13
-1
13
29
36
42
47
52
8
-40
-137
-231
-289
-338
-307
-272
-219
-165
-106
-57
-32
-14
-7
-3
-1
1
1
2
5
8
10
12
14
15
15
16
18
20
22
23
23
23
24
26
28
30
32
33
34
36
39
42
45
49
53
56
59
62
66
71
76
80
84
88
91
93
96
99
101
103
104
101
97
93
89
83
77
70
61
50
39
28
19
11
5
-2
-7
-12
-16
-20
-22
-21
-26
-27
-28
-29
-31
-33
-32
-31
-31
-31
-31
-31
-32
-33
-31
-29
-29
-29
-30
-31
-31
-31
-30
-29
-29
-29
-28
-27
-28
-29
-29
-29
-28
-27
-28
-29
-30
-31
-31
-31
-30
-30
-31
-32
-33
-32
-31
-32
-33
-33
-33
-33
-33
-33
-33
-33
-33
-33
-33
-34
-35
-34
-33
-33
-33
-33
-33
-33
-33
-33
-33
-32
-29
-26
-24
-22
-21
-21
-21
-20
-18
-16
-18
-23
-26
-29
-29
-29
-27
-25
-27
-29
-32
-35
-36
-37
-37
-37
-38
-39
-38
-37
-36
-35
-36
-37
-37
-36
-34
-33
-33
-33
-33
-33
-33
-33
-32
-31
-30
-29
-28
-22
-16
0
-15
24
31
41
51
41
23
-53
-132
-228
-303
-314
-311
-264
-214
-153
-101
-62
-33
-19
-10
-7
-4
-1
2
4
5
6
7
8
10
12
14
16
17
18
19
19
21
24
25
26
28
29
31
33
35
37
40
43
46
49
52
56
60
64
69
74
77
80
83
86
90
94
96
98
100
101
100
98
96
92
87
80
73
63
51
42
33
24
16
8
0
-6
-13
-16
-19
-22
-25
-26
-27
-29
-31
-30
-29
-29
-29
-30
-31
-31
-31
-30
-29
-29
-29
-29
-29
-30
-31
-30
-29
-29
-29
-29
-29
-29
-29
-28
-27
-28
-29
-29
-29
-30
-31
-31
-28
-27
-28
-29
-30
-31
-31
-31
-31
-31
-31
-31
-33
-35
-34
-33
-33
-33
-34
-35
-36
-37
-36
-35
-34
-33
-34
-35
-36
-37
-36
-35
-34
-33
-34
-35
-35
-34
-32
-28
-24
-21
-19
-21
-23
-21
-19
-19
-19
-22
-26
-31
-35
-33
-31
-30
-29
-31
-34
-38
-41
-39
-37
-38
-39
-38
-37
-38
-39
-38
-37
-36
-35
-36
-37
-37
-37
-36
-35
-35
-35
-34
-33
-33
-33
-33
-28
-22
-13
-3
12
25
28
33
41
39
10
-41
-134
-219
-292
-324
-303
-265
-211
-156
-99
-60
-33
-18
-10
-6
-4
-3
-3
-2
0
2
4
6
8
9
9
10
9
15
17
17
17
18
19
21
23
25
27
28
29
31
34
37
40
43
46
50
53
56
59
64
68
71
75
79
81
82
85
88
89
90
90
88
83
78
73
68
61
54
43
33
24
15
9
3
-3
-9
-15
-19
-23
-27
-28
-29
-30
-31
-32
-33
-35
-37
-36
-35
-35
-35
-35
-35
-36
-37
-36
-35
-34
-33
-33
-33
-34
-35
-34
-33
-33
-33
-33
-33
-33
-32
-31
-31
-31
-32
-33
-34
-35
-34
-33
-33
-33
-34
-35
-36
-37
-37
-37
-37
-37
-37
-37
-38
-39
-39
-39
-39
-39
-39
-39
-39
-39
-39
-39
-39
-39
-39
-39
-39
-39
-39
-32
-27
-27
-27
-26
-25
-24
-23
-22
-22
-27
-32
-36
-39
-37
-35
-35
-35
-36
-39
-44
-46
-44
-43
-44
-45
-45
-45
-46
-46
-44
-43
-43
-43
-43
-43
-43
-43
-42
-41
-41
-40
-39
-40
-41
-39
-37
-37
-36
-28
-18
-3
10
15
20
25
25
11
-30
-112
-189
-259
-297
-302
-287
-253
-208
-155
-107
-62
-37
-22
-15
-12
-11
-11
-10
-8
-5
-2
-1
0
1
3
4
5
7
9
9
9
11
13
14
15
17
19
20
21
23
25
27
30
34
37
40
42
45
49
53
57
61
65
68
70
72
74
76
78
80
81
80
76
72
67
71
57
53
45
37
27
18
11
4
-3
-10
-15
-20
-24
-27
-28
-29
-30
-31
-32
-33
-36
-37
-36
-35
-34
-33
-34
-35
-35
-35
-34
-33
-33
-33
-33
-33
-34
-35
-34
-33
-33
-32
-31
-32
-33
-32
-31
-31
-31
-31
-31
-32
-33
-33
-33
-32
-31
-32
-33
-34
-35
-35
-35
-36
-37
-37
-37
-38
-39
-38
-37
-37
-37
-37
-37
-38
-39
-38
-37
-37
-37
-36
-34
-31
-28
-25
-24
-23
-23
-23
-23
-23
-24
-26
-30
-33
-33
-33
-32
-31
-31
-32
-36
-39
-39
-40
-42
-43
-42
-41
-41
-41
-40
-39
-40
-40
-38
-37
-37
-37
-36
-36
-38
-38
-39
-34
-33
-33
-33
-31
-28
-18
-6
11
25
25
27
35
35
14
-29
-110
-188
-261
-300
-297
-273
-229
-176
-117
-74
-41
-23
-13
-8
-6
-5
-4
-2
0
2
4
6
8
9
10
11
11
12
13
15
17
19
21
22
23
24
25
27
29
31
33
35
38
41
44
47
51
55
59
63
67
71
74
78
81
84
86
88
88
86
85
86
83
78
73
68
59
49
43
37
27
17
8
1
-6
-11
-15
-19
-20
-21
-24
-27
-29
-31
-31
-31
-31
-31
-32
-33
-33
-33
-32
-31
-30
-29
-29
-29
-30
-31
-30
-29
-28
-27
-28
-29
-29
-29
-29
-27
-27
-27
-27
-27
-27
-27
-27
-26
-25
-26
-27
-28
-29
-29
-29
-29
-29
-29
-29
-30
-31
-31
-31
-32
-33
-32
-32
-34
-35
-34
-33
-33
-33
-32
-31
-32
-32
-30
-27
-24
-21
-19
-19
-19
-19
-19
-16
-13
-17
-21
-25
-29
-30
-31
-27
-25
-26
-28
-32
-35
-35
-35
-35
-35
-35
-35
-36
-37
-36
-35
-34
-33
-34
-35
-35
-35
-34
-33
-32
-31
-31
-31
-31
-30
-29
-25
-20
-9
3
17
30
36
42
48
41
-1
-60
-151
-233
-300
-326
-295
-254
-200
-145
-88
-49
-25
-11
-4
-1
0
1
2
3
4
8
12
13
14
15
16
18
17
22
23
24
25
25
25
27
29
32
35
36
37
39
42
46
50
53
56
60
64
67
71
75
79
85
88
91
94
96
98
100
102
104
103
100
96
92
85
78
70
62
49
37
29
21
12
3
-1
-5
-11
-15
-18
-21
-22
-23
-23
-23
-25
-27
-28
-29
-28
-27
-27
-27
-27
-27
-27
-27
-26
-25
-25
-25
-25
-25
-26
-27
-26
-25
-24
-23
-24
-25
-25
-24
-23
-22
-21
-23
-25
-25
-25
-24
-23
-24
-25
-26
-27
-27
-27
-27
-27
-27
-27
-28
-29
-29
-29
-29
-29
-29
-29
-29
-29
-29
-29
-28
-24
-20
-18
-16
-15
-16
-17
-17
-14
-11
-14
-17
-22
-27
-28
-29
-25
-21
-23
-26
-30
-33
-33
-33
-33
-33
-34
-35
-35
-35
-34
-33
-33
-33
-33
-33
-33
-33
-32
-31
-31
-31
-30
-29
-29
-29
-29
-27
-24
-16
-9
7
23
29
36
46
54
46
22
-60
-146
-240
-307
-317
-307
-262
-210
-148
-94
-51
-23
-11
-4
-1
1
1
2
6
9
12
13
14
15
16
17
18
20
22
23
24
25
25
27
29
31
33
35
37
38
39
42
46
51
55
58
62
65
69
74
78
82
86
89
92
94
96
99
102
104
103
100
97
92
88
82
76
69
58
47
36
26
18
25
2
-5
-10
-15
-18
-21
-23
-25
-26
-27
-27
-27
-29
-31
-30
-29
-28
-27
-28
-29
-29
-29
-29
-29
-28
-27
-27
-27
-28
-29
-28
-27
-27
-27
-27
-27
-27
-27
-27
-27
-26
-26
-27
-28
-29
-28
-27
-27
-27
-28
-29
-30
-31
-31
-31
-31
-31
-31
-31
-32
-33
-33
-33
-33
-33
-33
-33
-34
-35
-34
-33
-33
-33
-32
-30
-28
-26
-24
-23
-22
-21
-22
-23
-21
-22
-23
-27
-31
-32
-33
-32
-31
-31
-31
-34
-37
-39
-41
-41
-41
-42
-43
-42
-41
-40
-39
-40
-41
-40
-39
-38
-37
-37
-37
-37
-37
-36
-35
-35
-35
-35
-34
-32
-23
-31
3
19
22
25
33
40
29
4
-77
-159
-245
-309
-316
-307
-262
-211
-150
-98
-57
-30
-19
-11
-7
-4
-2
-1
0
1
1
3
6
7
8
10
12
13
13
14
16
18
20
22
23
22
21
25
29
31
33
35
37
39
41
44
48
53
58
61
64
67
70
74
78
80
82
85
87
87
87
86
84
82
76
69
60
51
44
36
27
18
11
4
-3
-11
-15
-19
-21
-23
-26
-29
-31
-33
-33
-33
-33
-33
-34
-35
-35
-35
-34
-33
-33
-33
-33
-33
-33
-33
-32
-31
-31
-31
-31
-31
-32
-33
-32
-31
-31
-31
-31
-31
-32
-33
-33
-32
-31
-31
-31
-33
-35
-35
-35
-34
-33
-34
-35
-36
-37
-37
-37
-36
-35
-36
-37
-38
-39
-38
-37
-37
-37
-37
-37
-37
-35
-32
-29
-26
-25
-24
-24
-26
-25
-22
-21
-22
-28
-33
-36
-39
-36
-33
-33
-33
-36
-39
-41
-43
-43
-43
-42
-41
-42
-43
-43
-43
-42
-41
-40
-39
-40
-41
-41
-40
-38
-37
-37
-37
-37
-37
-36
-34
-32
-25
-18
-2
14
19
25
28
31
28
19
-36
-96
-184
-261
-294
-312
-282
-247
-199
-150
-97
-56
-33
-17
-11
-7
-6
-5
-4
-2
0
2
5
7
7
7
7
7
8
10
12
13
13
14
16
17
17
20
23
24
25
27
29
31
33
37
41
46
49
51
54
58
62
68
71
73
75
76
78
81
83
82
80
78
75
71
65
59
51
43
33
23
15
6
0
-6
-10
-14
-19
-23
-26
-29
-30
-31
-31
-31
-33
-35
-35
-35
-35
-35
-34
-33
-33
-33
-33
-33
-33
-33
-32
-31
-32
-33
-32
-31
-30
-29
-29
-29
-29
-29
-29
-29
-29
-29
-29
-29
-29
-29
-31
-31
-31
-31
-31
-31
-31
-32
-33
-33
-33
-33
-33
-33
-33
-34
-35
-35
-35
-35
-35
-35
-35
-35
-35
-34
-32
-30
-27
-23
-21
-22
-23
-22
-19
-16
-16
-18
-24
-30
-32
-31
-32
-29
-29
-29
-33
-37
-39
-41
-39
-37
-37
-37
-38
-39
-38
-37
-38
-39
-38
-37
-38
-39
-38
-37
-36
-35
-35
-35
-35
-35
-34
-32
-30
-25
-18
-4
13
23
32
41
50
44
35
-41
-118
-213
-298
-313
-318
-276
-231
-174
-119
-71
-33
-19
-8
-5
-3
-2
-1
1
4
7
9
10
11
11
12
14
16
18
19
19
19
20
21
22
25
28
29
30
31
33
37
41
45
49
51
53
57
62
67
72
77
81
84
87
89
92
95
97
99
101
98
95
91
87
81
75
68
59
48
37
26
17
9
3
-4
-10
-16
-19
-22
-23
-23
-27
-29
-29
-29
-31
-33
-32
-31
-31
-31
-31
-31
-32
-33
-32
-31
-30
-29
-29
-29
-29
-29
-29
-29
-29
-29
-28
-27
-28
-29
-28
-27
-27
-27
-27
-27
-28
-29
-29
-29
-28
-28
-29
-30
-31
-30
-29
-29
-29
-30
-31
-32
-33
-33
-33
-33
-33
-33
-33
-34
-35
-34
-33
-32
-31
-31
-31
-30
-27
-23
-20
-18
-18
-20
-20
-18
-17
-17
-20
-24
-27
-30
-31
-29
-27
-25
-27
-29
-34
-39
-38
-37
-37
-37
-37
-37
-37
-37
-37
-37
-36
-35
-34
-33
-34
-35
-35
-35
-34
-33
-32
-31
-31
-31
-31
-29
-26
-19
-11
5
21
27
32
42
33
49
42
-31
-106
-209
-299
-318
-324
-275
-222
-155
-96
-55
-24
-13
-5
-3
-1
0
1
1
3
7
10
12
13
14
15
16
17
18
19
20
22
24
25
26
28
30
33
36
38
39
41
43
46
49
54
59
63
67
70
74
78
82
87
92
95
97
98
99
101
103
103
101
97
92
87
80
72
62
52
43
34
23
13
6
-2
-7
-12
-16
-20
-22
-25
-26
-27
-27
-27
-27
-27
-28
-29
-29
-29
-29
-29
-29
-29
-29
-29
-29
-29
-28
-27
-27
-27
-28
-29
-28
-27
-26
-25
-25
-25
-26
-27
-27
-27
-26
-25
-26
-27
-27
-27
-27
-28
-27
-28
-29
-30
-31
-30
-29
-29
-29
-29
-29
-31
-33
-33
-33
-32
-31
-32
-33
-33
-33
-32
-31
-30
-29
-29
-28
-26
-23
-20
-19
-18
-17
-18
-19
-18
-17
-17
-20
-24
-28
-31
-29
-27
-27
-27
-31
-35
-36
-37
-37
-37
-37
-37
-37
-37
-37
-37
-38
-39
-37
-35
-35
-35
-35
-35
-35
-35
-34
-33
-32
-31
-31
-31
-31
-26
-20
-5
11
21
30
36
43
47
48
-12
-75
-175
-265
-306
-332
-293
-249
-192
-136
-85
-45
-25
-11
-5
-1
1
3
4
5
6
8
11
14
16
17
18
19
19
20
22
24
26
27
27
28
30
32
31
38
41
42
43
46
49
53
57
63
67
70
73
76
80
85
90
93
95
97
99
99
99
98
96
94
89
82
73
64
56
48
38
28
19
11
3
-4
-8
-12
-14
-16
-20
-23
-25
-27
-28
-29
-29
-29
-29
-29
-30
-31
-30
-29
-29
-29
-29
-29
-30
-31
-30
-29
-29
-29
-29
-29
-30
-31
-30
-29
-28
-27
-27
-27
-28
-29
-29
-29
-29
-29
-29
-29
-31
-31
-31
-31
-31
-32
-33
-33
-33
-34
-35
-35
-35
-35
-35
-36
-37
-36
-35
-35
-35
-36
-37
-37
-37
-36
-34
-32
-29
-25
-23
-24
-25
-25
-24
-22
-21
-22
-27
-32
-34
-33
-34
-31
-33
-35
-38
-41
-42
-43
-42
-41
-42
-43
-43
-43
-42
-41
-41
-41
-40
-39
-40
-41
-40
-39
-38
-37
-37
-37
-37
-37
-36
-35
-34
-29
-22
-9
7
17
26
30
34
33
30
-30
-91
-176
-255
-293
-321
-292
-259
-210
-159
-102
-56
-34
-17
-11
-7
-7
-7
-5
-2
1
3
4
5
5
6
8
10
12
13
13
13
13
15
18
20
22
23
23
23
25
29
33
36
39
42
45
47
50
55
59
62
66
70
73
74
76
80
83
84
85
84
82
79
75
69
64
58
49
38
29
20
12
5
-1
-8
-13
-18
-22
-26
-27
-27
-30
-31
-32
-33
-34
-35
-35
-35
-34
-33
-34
-35
-35
-35
-34
-33
-33
-33
-34
-35
-35
-35
-34
-33
-32
-31
-31
-31
-31
-31
-31
-31
-30
-29
-30
-32
-34
-34
-32
-31
-31
-31
-31
-32
-33
-33
-33
-33
-33
-34
-35
-36
-37
-36
-35
-35
-35
-36
-37
-38
-39
-38
-37
-36
-35
-34
-33
-34
-33
-29
-25
-22
-21
-22
-23
-23
-22
-20
-21
-24
-29
-34
-35
-37
-34
-31
-32
-33
-38
-43
-43
-43
-43
-43
-42
-41
-41
-41
-42
-43
-41
-39
-38
-37
-38
-39
-39
-39
-38
-37
-36
-35
-35
-35
-36
-35
-32
-22
-9
7
25
27
28
33
29
4
-35
-123
-208
-269
-319
-302
-279
-236
-191
-138
-90
-55
-28
-18
-10
-6
-3
-3
-3
-2
0
3
6
8
9
9
9
10
11
12
14
16
18
20
21
21
23
26
28
30
33
35
37
39
43
47
51
55
58
61
65
69
72
76
80
83
85
87
87
87
89
90
87
83
78
71
62
55
48
39
30
20
10
2
-5
-10
-14
-17
-20
-22
-24
-26
-29
-29
-29
-30
-31
-31
-31
-32
-33
-32
-31
-31
-31
-31
-31
-31
-31
-30
-29
-28
-27
-28
-29
-29
-29
-28
-27
-26
-25
-26
-27
-28
-28
-26
-25
-26
-27
-27
-27
-27
-27
-27
-27
-27
-28
-29
-30
-31
-30
-29
-30
-31
-31
-31
-32
-33
-33
-33
-32
-31
-32
-33
-33
-33
-32
-31
-30
-28
-25
-22
-20
-19
-18
-17
-17
-17
-16
-17
-20
-23
-26
-28
-30
-28
-25
-26
-27
-29
-31
-34
-37
-35
-33
-35
-37
-36
-35
-34
-33
-33
-33
-34
-35
-34
-33
-33
-33
-33
-33
-33
-33
-32
-31
-30
-29
-28
-23
-17
-2
14
25
34
42
50
47
40
-29
-101
-204
-298
-311
-316
-270
-220
-155
-96
-56
-24
-14
-6
-3
-1
0
1
3
6
9
11
12
14
16
17
17
18
20
21
21
23
26
27
28
30
32
33
34
37
35
43
45
49
53
55
57
61
65
71
75
80
83
85
88
92
96
99
101
102
103
102
100
98
94
88
81
74
65
56
46
36
26
16
8
1
-6
-12
-14
-16
-18
-20
-22
-23
-25
-27
-27
-27
-26
-25
-26
-27
-28
-29
-28
-27
-26
-25
-25
-25
-26
-27
-26
-25
-24
-23
-24
-25
-25
-25
-25
-25
-24
-23
-23
-23
-24
-25
-25
-25
-25
-25
-25
-25
-27
-27
-27
-27
-27
-27
-27
-29
-31
-30
-29
-29
-29
-29
-29
-30
-31
-31
-31
-31
-31
-31
-31
-31
-31
-31
-31
-30
-29
-29
-30
-32
-32
-30
-29
-29
-29
-28
-26
-24
-20
-23
-14
-13
-13
-13
-14
-15
-13
-12
-18
-23
-26
-29
-26
-23
-23
-24
-27
-29
-31
-33
-34
-35
-34
-33
-33
-33
-33
-33
-34
-35
-34
-33
-32
-31
-31
-31
-31
-31
-30
-29
-28
-27
-27
-23
-18
-4
10
22
34
42
49
50
39
-8
-69
-159
-240
-304
-330
-297
-254
-196
-139
-83
-45
-23
-10
-5
-2
0
3
6
7
6
7
10
13
16
17
18
19
19
19
21
23
25
27
29
30
31
32
33
35
38
42
45
48
52
55
58
62
66
70
74
79
82
85
88
91
94
97
100
102
103
102
100
98
94
90
83
76
66
56
45
55
25
17
10
3
-4
-11
-14
-17
-19
-21
-23
-25
-26
-27
-27
-27
-27
-27
-28
-29
-30
-30
-28
-27
-27
-27
-27
-27
-28
-29
-28
-27
-27
-27
-27
-27
-27
-27
-27
-27
-26
-26
-27
-27
-27
-27
-27
-27
-27
-27
-27
-28
-29
-29
-29
-29
-29
-29
-29
-30
-31
-32
-33
-32
-31
-32
-33
-33
-33
-33
-33
-32
-31
-32
-33
-34
-35
-34
-32
-30
-29
-29
-27
-23
-22
-21
-21
-21
-19
-17
-18
-19
-21
-24
-28
-31
-30
-29
-29
-29
-29
-30
-34
-37
-36
-36
-38
-39
-38
-37
-37
-37
-37
-37
-37
-37
-36
-35
-35
-35
-35
-35
-35
-35
-35
-32
-31
-31
-31
-30
-28
-19
-8
8
21
26
29
32
32
21
-13
-84
-157
-235
-283
-298
-287
-251
-204
-149
-101
-57
-32
-18
-11
-7
-4
-2
-1
-1
0
2
4
6
8
10
11
11
12
13
15
17
18
19
21
23
23
23
26
29
31
33
35
37
39
42
46
51
55
59
63
66
68
71
75
78
80
81
82
83
82
81
80
76
72
66
60
53
45
35
25
19
13
4
-3
-8
-13
-15
-18
-22
-25
-26
-27
-28
-29
-29
-29
-29
-29
-30
-31
-31
-31
-31
-31
-30
-29
-29
-29
-30
-31
-30
-29
-29
-29
-29
-29
-29
-29
-29
-27
-27
-28
-29
-29
-29
-29
-29
-29
-29
-29
-29
-30
-31
-31
-31
-31
-31
-32
-33
-33
-33
-33
-33
-33
-33
-34
-35
-36
-37
-36
-35
-35
-35
-35
-35
-36
-37
-37
-37
-36
-36
-37
-37
-37
-35
-33
-33
-33
-32
-31
-28
-25
-24
-23
-22
-21
-21
-21
-20
-19
-21
-25
-29
-31
-32
-32
-30
-29
-29
-31
-35
-37
-38
-39
-39
-39
-39
-39
-38
-37
-37
-37
-37
-37
-37
-36
-35
-35
-35
-36
-37
-36
-35
-35
-35
-34
-33
-33
-33
-31
-25
-13
0
17
26
28
32
38
30
12
-44
-118
-196
-276
-298
-302
-269
-226
-175
-122
-80
-39
-26
-37
-9
-5
-4
-3
-3
-3
0
3
4
5
7
9
9
9
11
13
15
17
18
19
18
18
20
23
27
29
30
31
32
36
41
45
48
52
56
59
62
66
70
73
76
81
85
85
85
87
89
87
85
83
80
72
64
56
49
39
30
20
10
2
-5
-10
-15
-19
-22
-25
-28
-30
-31
-32
-33
-33
-33
-33
-33
-34
-35
-34
-33
-33
-33
-33
-33
-33
-33
-33
-33
-33
-33
-33
-33
-33
-31
-29
-29
-29
-30
-31
-31
-31
-30
-29
-29
-29
-29
-30
-32
-33
-32
-31
-31
-31
-32
-33
-34
-35
-34
-33
-33
-33
-34
-35
-36
-37
-37
-34
-33
-34
-35
-36
-37
-36
-35
-35
-35
-35
-35
-36
-37
-36
-35
-34
-33
-34
-35
-35
-35
-35
-35
-34
-33
-33
-33
-32
-29
-25
-22
-20
-19
-19
-19
-19
-18
-16
-18
-22
-28
-33
-31
-29
-28
-27
-28
-29
-35
-39
-38
-37
-37
-37
-38
-39
-38
-37
-37
-37
-37
-37
-37
-37
-37
-37
-37
-37
-36
-35
-34
-33
-33
-33
-33
-29
-24
-14
-2
13
28
33
39
42
43
3
-42
-125
-206
-280
-335
-311
-282
-237
-187
-123
-71
-42
-20
-12
-6
-3
-1
0
1
2
3
4
6
8
10
12
13
13
14
16
18
20
21
21
22
24
26
25
32
35
36
37
39
41
45
49
55
59
62
66
70
74
78
82
88
91
93
95
96
97
98
99
98
94
89
83
76
68
60
50
40
30
21
12
3
-4
-10
-14
-18
-22
-25
-28
-31
-31
-31
-31
-31
-32
-33
-34
-35
-34
-33
-33
-33
-34
-35
-35
-35
-34
-33
-33
-33
-33
-33
-34
-35
-34
-33
-33
-33
-33
-33
-33
-33
-32
-31
-31
-31
-32
-33
-35
-34
-33
-33
-33
-33
-33
-33
-33
-33
-33
-33
-33
-33
-33
-34
-35
-35
-35
-35
-35
-35
-35
-36
-37
-37
-37
-36
-35
-35
-35
-36
-37
-37
-37
-36
-35
-35
-35
-36
-37
-37
-35
-35
-35
-35
-34
-33
-30
-27
-24
-21
-21
-21
-21
-20
-17
-15
-15
-18
-26
-31
-32
-31
-27
-26
-28
-32
-37
-39
-39
-39
-39
-39
-38
-37
-37
-37
-37
-37
-37
-37
-36
-36
-37
-37
-37
-36
-35
-35
-35
-34
-33
-33
-33
-31
-27
-19
-8
9
21
26
33
42
43
35
-10
-86
-175
-273
-315
-325
-298
-252
-194
-133
-87
-47
-29
-17
-11
-6
-4
-2
-1
-1
2
5
8
11
12
13
13
13
15
17
18
19
21
23
23
24
27
29
31
33
36
38
40
42
45
49
53
57
61
65
68
72
78
83
88
91
94
96
98
99
99
101
101
97
93
86
78
70
62
54
45
32
21
12
3
-3
-8
-12
-16
-20
-24
-27
-29
-29
-29
-30
-31
-31
-31
-32
-33
-33
-33
-32
-31
-32
-33
-33
-33
-32
-31
-31
-31
-31
-31
-31
-31
-31
-30
-29
-29
-29
-30
-31
-31
-31
-30
-29
-29
-29
-30
-31
-31
-31
-30
-29
-30
-31
-32
-33
-32
-31
-32
-33
-33
-33
-34
-35
-35
-35
-35
-35
-35
-35
-37
-36
-35
-34
-33
-34
-35
-36
-37
-36
-35
-34
-33
-34
-35
-36
-37
-36
-35
-34
-33
-33
-33
-33
-32
-30
-27
-23
-21
-20
-19
-19
-19
-18
-15
-12
-15
-20
-26
-32
-31
-33
-26
-25
-27
-29
-33
-37
-36
-35
-35
-35
-36
-37
-37
-37
-36
-35
-35
-35
-35
-35
-35
-35
-35
-35
-34
-33
-33
-33
-34
-34
-32
-31
-30
-23
-15
0
17
21
24
33
42
28
11
-71
-153
-229
-297
-303
-303
-265
-224
-169
-118
-72
-37
-21
-10
-7
-5
-4
-3
-1
2
5
7
8
9
9
10
14
15
16
17
17
17
17
18
20
23
26
28
30
31
31
34
37
40
43
47
51
53
56
61
66
71
75
77
80
83
86
89
91
91
91
88
86
83
79
75
68
60
52
44
33
22
15
9
3
-4
-10
-16
-20
-24
-25
-25
-27
-27
-29
-31
-32
-33
-33
-33
-33
-33
-33
-33
-33
-33
-33
-33
-32
-31
-31
-31
-32
-33
-32
-31
-31
-31
-31
-31
-32
-33
-33
-33
-32
-31
-31
-32
-34
-35
-34
-33
-33
-34
-35
-36
-37
-36
-35
-35
-35
-36
-37
-38
-39
-38
-37
-37
-37
-37
-37
-38
-39
-38
-37
-38
-39
-38
-37
-38
-39
-38
-37
-36
-35
-35
-34
-32
-29
-26
-25
-24
-23
-23
-23
-21
-23
-25
-29
-33
-34
-35
-34
-33
-33
-33
-36
-39
-40
-41
-41
-41
-41
-41
-41
-41
-41
-41
-42
-42
-40
-39
-40
-41
-41
-41
-41
-41
-40
-39
-38
-37
-38
-39
-39
-38
-39
-24
-13
3
17
19
21
26
28
12
-18
-93
-166
-237
-288
-298
-292
-256
-215
-166
-118
-72
-42
-26
-17
-11
-9
-8
-7
-6
-4
-2
1
4
5
5
5
5
6
8
9
10
12
13
14
15
17
19
22
25
26
27
29
32
36
40
44
48
51
54
57
61
66
70
73
76
78
80
82
83
84
85
84
80
76
71
66
59
51
43
36
26
16
7
-3
-8
-13
-17
-21
-25
-29
-31
-33
-33
-33
-34
-35
-35
-35
-36
-37
-36
-35
-35
-35
-35
-35
-36
-37
-36
-35
-34
-33
-33
-33
-34
-35
-34
-33
-32
-31
-31
-32
-34
-35
-35
-33
-33
-33
-33
-34
-35
-35
-35
-35
-35
-35
-35
-36
-37
-37
-37
-37
-37
-37
-37
-40
-41
-40
-39
-39
-39
-39
-39
-40
-41
-40
-39
-39
-39
-39
-39
-39
-39
-39
-39
-38
-36
-35
-33
-31
-28
-25
-24
-23
-23
-23
-22
-21
-24
-27
-31
-33
-34
-35
-34
-33
-33
-34
-37
-40
-42
-43
-44
-45
-44
-43
-42
-41
-41
-41
-41
-41
-41
-41
-40
-39
-39
-39
-39
-38
-37
-36
-35
-35
-35
-35
-34
-27
-17
0
15
24
33
40
45
43
15
-47
-121
-209
-276
-323
-322
-285
-236
-178
-122
-67
-38
-20
-12
-6
-4
-2
-1
0
1
2
4
3
9
11
12
13
13
13
14
15
18
21
21
21
23
25
27
29
31
33
35
38
41
44
47
51
57
60
63
67
71
75
79
84
88
90
92
93
94
95
95
94
92
86
81
74
67
59
50
40
30
21
11
2
-6
-11
-15
-19
-22
-25
-27
-29
-31
-31
-31
-31
-31
-32
-33
-34
-35
-35
-35
-34
-33
-33
-33
-34
-35
-35
-35
-34
-33
-33
-33
-33
-33
-33
-32
-31
-31
-31
-33
-35
-34
-33
-32
-31
-31
-31
-33
-35
-34
-33
-33
-33
-34
-35
-36
-37
-36
-35
-34
-33
-34
-35
-36
-37
-37
-37
-36
-35
-36
-37
-37
-37
-37
-36
-35
-36
-37
-36
-35
-34
-33
-29
-25
-23
-21
-23
-25
-23
-21
-20
-21
-26
-30
-35
-36
-33
-31
-31
-32
-34
-38
-43
-44
-42
-41
-42
-43
-43
-43
-43
-43
-42
-41
-40
-39
-39
-40
-41
-40
-39
-38
-37
-37
-37
-37
-37
-36
-34
-30
-24
-14
-1
14
25
31
39
47
31
-7
-76
-166
-244
-314
-324
-305
-266
-220
-163
-104
-65
-30
-18
-10
-7
-4
-3
-1
1
3
5
7
8
9
10
11
12
13
16
19
18
17
19
21
23
25
27
29
32
34
36
39
43
47
51
54
56
59
62
66
72
76
80
84
88
89
90
93
91
99
101
99
97
92
87
83
78
70
61
52
43
32
23
15
7
0
-7
-12
-16
-21
-23
-24
-25
-26
-27
-28
-29
-30
-31
-31
-31
-32
-33
-33
-33
-33
-33
-32
-31
-30
-29
-29
-30
-31
-30
-29
-28
-27
-28
-29
-30
-31
-30
-29
-28
-27
-28
-29
-30
-31
-30
-29
-29
-29
-30
-31
-32
-33
-33
-33
-33
-33
-33
-33
-34
-35
-34
-33
-33
-33
-33
-33
-35
-35
-35
-34
-33
-33
-33
-32
-31
-27
-23
-20
-17
-18
-19
-19
-19
-18
-17
-19
-23
-28
-31
-31
-30
-28
-27
-27
-31
-37
-39
-39
-39
-38
-37
-37
-37
-37
-37
-38
-39
-39
-36
-35
-36
-37
-37
-37
-35
-33
-33
-33
-32
-31
-32
-32
-29
-25
-18
-7
10
20
23
30
42
45
39
-11
-91
-182
-280
-316
-326
-295
-249
-191
-129
-84
-42
-25
-10
-6
-2
0
1
1
1
4
7
10
13
13
13
13
13
16
19
20
21
22
23
23
24
27
30
32
34
36
38
40
43
47
51
55
59
62
66
70
74
78
81
84
88
92
93
93
96
99
99
99
96
93
88
82
75
67
58
48
38
28
16
7
2
-3
-8
-12
-17
-21
-26
-29
-29
-29
-30
-31
-32
-33
-34
-35
-35
-35
-34
-33
-33
-33
-34
-35
-35
-32
-31
-31
-31
-32
-33
-32
-31
-30
-29
-30
-31
-31
-31
-31
-31
-31
-31
-31
-31
-32
-33
-33
-33
-33
-33
-33
-33
-34
-35
-35
-35
-35
-35
-35
-36
-38
-39
-38
-37
-36
-36
-37
-37
-37
-37
-37
-36
-35
-34
-33
-31
-29
-26
-23
-23
-23
-22
-21
-21
-22
-25
-29
-33
-35
-34
-33
-33
-34
-36
-39
-42
-43
-42
-41
-42
-43
-43
-43
-43
-43
-42
-41
-43
-42
-41
-40
-39
-39
-39
-39
-39
-38
-37
-36
-35
-36
-36
-31
-21
-5
8
16
23
28
32
34
4
-52
-128
-216
-276
-323
-321
-297
-254
-205
-147
-88
-56
-28
-19
-12
-10
-11
-5
-3
-1
1
2
3
5
7
8
9
10
11
12
13
15
17
19
21
21
21
24
26
28
30
32
34
36
39
42
45
49
53
56
61
66
69
72
75
78
81
84
85
85
85
85
85
85
81
77
71
65
56
47
39
31
23
14
5
-3
-8
-12
-16
-20
-23
-26
-28
-30
-32
-33
-34
-35
-35
-35
-35
-35
-36
-37
-36
-35
-34
-33
-34
-35
-35
-35
-35
-34
-33
-33
-33
-34
-35
-34
-33
-33
-33
-33
-33
-33
-33
-33
-33
-33
-33
-34
-35
-35
-35
-35
-35
-35
-35
-36
-37
-37
-37
-37
-37
-37
-37
-37
-37
-38
-39
-39
-38
-37
-36
-35
-32
-29
-27
-25
-25
-25
-24
-23
-23
-24
-27
-30
-34
-37
-36
-35
-35
-35
-36
-39
-43
-45
-44
-43
-44
-45
-45
-45
-44
-43
-43
-43
-42
-41
-41
-41
-41
-41
-41
-41
-41
-40
-39
-38
-37
-37
-36
-31
-23
-8
6
17
25
23
21
19
-7
-60
-128
-212
-269
-303
-302
-275
-234
-185
-136
-87
-55
-31
-20
-13
-10
-8
-6
-4
-3
-2
-1
1
3
5
7
9
9
9
10
11
13
15
16
17
17
17
19
21
23
26
29
31
32
34
37
40
43
48
53
57
60
63
66
69
72
74
76
77
77
77
78
78
79
72
69
63
57
47
38
31
24
17
10
4
-2
-8
-14
-17
-19
-21
-23
-25
-27
-30
-31
-31
-31
-31
-31
-32
-33
-33
-33
-33
-33
-32
-31
-31
-31
-31
-31
-30
-29
-28
-28
-29
-30
-31
-30
-29
-28
-27
-27
-27
-28
-29
-29
-29
-29
-29
-29
-29
-31
-33
-33
-33
-33
-33
-33
-33
-33
-33
-34
-35
-34
-33
-33
-33
-34
-35
-34
-32
-30
-27
-24
-23
-21
-21
-21
-20
-19
-19
-19
-24
-29
-32
-35
-32
-29
-29
-29
-31
-34
-38
-41
-39
-37
-38
-39
-40
-41
-40
-39
-38
-37
-37
-37
-37
-37
-36
-35
-35
-35
-35
-35
-35
-35
-35
-31
-29
-23
-16
-1
14
22
30
36
41
38
16
-51
-124
-208
-271
-300
-304
-271
-229
-177
-126
-77
-43
-22
-10
-5
-3
-3
-2
0
2
4
6
8
9
10
11
12
14
16
17
17
18
19
21
23
25
27
28
29
31
33
36
40
44
47
49
52
55
58
62
67
72
75
76
79
83
86
90
91
92
93
92
90
88
84
80
74
68
59
50
40
29
21
13
6
-1
-5
-9
-14
-19
-21
-23
-25
-27
-28
-29
-30
-31
-30
-29
-30
-31
-31
-31
-31
-31
-31
-31
-30
-29
-29
-29
-30
-31
-30
-29
-28
-27
-27
-27
-28
-29
-29
-27
-27
-27
-27
-28
-29
-28
-27
-28
-29
-29
-29
-30
-31
-31
-31
-31
-31
-31
-31
-32
-33
-32
-31
-30
-29
-28
-25
-22
-21
-20
-19
-19
-19
-18
-18
-20
-24
-28
-30
-32
-30
-27
-28
-29
-31
-33
-36
-39
-38
-37
-38
-39
-38
-37
-36
-35
-35
-35
-36
-37
-36
-35
-35
-35
-35
-35
-35
-34
-32
-31
-31
-31
-30
-26
-22
-9
7
17
28
35
42
44
47
-5
-58
-152
-240
-291
-331
-299
-263
-211
-157
-100
-53
-30
-14
-10
-6
-3
-1
1
3
6
7
7
8
10
12
14
16
18
19
18
18
20
22
24
25
26
27
28
30
29
37
41
43
45
47
49
54
59
65
69
74
77
80
84
87
90
94
97
97
97
96
95
94
91
85
79
70
61
52
43
34
24
14
6
-1
-7
-12
-15
-18
-20
-22
-25
-27
-28
-29
-29
-29
-29
-29
-30
-31
-32
-33
-32
-31
-30
-29
-29
-29
-29
-29
-29
-29
-29
-29
-28
-27
-28
-29
-29
-29
-28
-27
-27
-27
-28
-29
-28
-27
-27
-27
-27
-27
-29
-29
-29
-29
-29
-29
-29
-29
-29
-30
-31
-30
-29
-30
-31
-30
-28
-25
-22
-18
-15
-16
-17
-18
-18
-16
-16
-19
-24
-29
-31
-31
-30
-28
-27
-28
-32
-36
-37
-37
-37
-37
-37
-37
-37
-37
-37
-37
-36
-35
-35
-35
-34
-33
-34
-35
-33
-31
-31
-31
-31
-31
-30
-27
-23
-13
1
13
23
29
33
40
47
22
-15
-98
-194
-265
-331
-313
-283
-228
-170
-113
-57
-35
-15
-9
-3
-2
-1
1
3
4
5
8
11
12
13
13
13
15
17
17
18
21
23
24
25
25
26
28
31
35
38
40
42
44
48
52
56
60
62
64
68
73
77
81
85
89
91
93
94
95
95
95
93
90
86
81
74
66
58
50
42
32
21
11
3
-3
-9
-12
-15
-18
-20
-23
-26
-27
-27
-27
-27
-27
-28
-29
-30
-31
-31
-29
-29
-29
-29
-29
-29
-28
-27
-27
-27
-28
-29
-29
-29
-29
-29
-28
-27
-27
-27
-27
-27
-27
-27
-27
-27
-28
-29
-29
-29
-29
-29
-30
-31
-31
-31
-31
-31
-31
-31
-31
-32
-33
-34
-35
-33
-31
-31
-31
-29
-27
-25
-23
-21
-19
-19
-19
-18
-17
-19
-22
-26
-30
-32
-32
-29
-28
-30
-32
-34
-37
-40
-41
-41
-41
-42
-43
-42
-41
-40
-39
-39
-39
-39
-38
-37
-37
-37
-36
-35
-36
-37
-36
-35
-34
-33
-32
-29
-23
-13
3
15
21
26
31
26
13
-38
-117
-193
-268
-296
-301
-276
-237
-187
-133
-88
-44
-26
-13
-10
-8
-6
-7
-1
1
3
5
5
5
7
9
10
11
12
13
14
15
16
17
19
21
22
23
24
26
29
32
34
36
39
41
42
46
51
55
58
61
64
68
72
74
76
78
80
81
81
79
77
75
73
69
64
56
48
41
33
24
16
9
3
-4
-10
-14
-18
-21
-24
-26
-27
-28
-29
-30
-31
-31
-31
-31
-31
-32
-33
-33
-33
-33
-33
-32
-31
-31
-31
-31
-30
-29
-28
-27
-28
-29
-29
-29
-29
-29
-28
-27
-28
-29
-29
-29
-29
-29
-29
-29
-30
-31
-32
-33
-32
-31
-32
-33
-33
-33
-34
-35
-35
-35
-35
-35
-35
-35
-35
-35
-35
-29
-25
-23
-21
-22
-23
-21
-19
-19
-19
-24
-28
-32
-35
-34
-33
-32
-31
-32
-35
-40
-42
-40
-39
-40
-41
-41
-41
-41
-41
-40
-39
-38
-37
-38
-39
-39
-39
-38
-37
-36
-34
-33
-34
-35
-34
-33
-32
-31
-27
-21
-7
5
17
26
30
34
38
24
-20
-85
-174
-244
-295
-305
-278
-240
-192
-144
-95
-59
-29
-16
-9
-6
-4
-3
-2
0
2
4
6
7
9
9
9
12
15
16
17
17
17
19
21
23
25
27
29
30
32
35
38
41
44
47
50
53
57
61
65
69
73
77
80
82
84
86
88
90
91
90
87
84
79
83
67
61
51
41
30
20
13
7
1
-4
-9
-14
-18
-21
-23
-25
-25
-25
-26
-27
-30
-31
-30
-29
-29
-29
-28
-27
-28
-29
-28
-27
-27
-27
-26
-25
-26
-27
-27
-27
-26
-25
-25
-26
-27
-26
-25
-25
-25
-25
-25
-26
-27
-27
-27
-27
-27
-27
-27
-28
-29
-28
-27
-28
-29
-30
-31
-31
-31
-31
-31
-31
-31
-31
-31
-31
-31
-31
-29
-26
-24
-22
-21
-19
-19
-19
-17
-15
-17
-19
-24
-29
-29
-29
-27
-25
-26
-28
-31
-33
-34
-35
-35
-35
-35
-35
-36
-37
-36
-35
-35
-35
-34
-34
-36
-36
-34
-33
-33
-33
-32
-31
-31
-31
-31
-28
-27
-22
-16
-2
12
23
34
42
49
49
33
-24
-94
-192
-267
-307
-316
-278
-232
-176
-123
-72
-38
-17
-6
-1
1
1
2
4
7
10
11
12
13
13
14
16
18
20
22
23
22
21
24
27
30
33
33
33
35
37
40
43
47
50
54
57
59
63
68
73
77
80
83
86
89
92
96
98
100
101
101
100
98
94
90
84
78
69
60
50
39
30
21
15
9
3
-3
-8
-13
-16
-19
-20
-21
-22
-23
-24
-25
-26
-27
-27
-27
-26
-25
-26
-27
-27
-27
-26
-25
-25
-25
-25
-25
-25
-25
-24
-23
-23
-23
-23
-23
-23
-23
-23
-23
-23
-23
-23
-23
-23
-23
-23
-23
-23
-25
-27
-26
-25
-25
-25
-26
-27
-28
-29
-28
-27
-27
-27
-28
-29
-29
-29
-28
-27
-27
-27
-26
-25
-24
-20
-16
-15
-14
-14
-15
-14
-13
-13
-13
-16
-19
-23
-27
-25
-23
-22
-21
-23
-26
-30
-33
-32
-31
-31
-31
-31
-31
-32
-33
-32
-31
-30
-29
-28
-27
-28
-29
-30
-30
-28
-27
-26
-25
-25
-25
-25
-22
-19
-6
6
20
33
35
39
50
52
22
-28
-126
-216
-291
-327
-299
-261
-208
-154
-96
-55
-29
-12
-3
2
4
6
8
9
9
12
16
17
17
18
20
21
22
23
23
27
29
30
31
32
33
35
37
39
41
43
45
47
50
54
58
62
66
70
74
77
81
85
88
91
95
99
101
101
103
106
106
104
101
98
91
82
76
70
59
48
38
29
21
13
7
1
-3
-7
-11
-15
-17
-19
-21
-23
-22
-21
-22
-23
-24
-25
-25
-25
-24
-23
-24
-25
-25
-25
-24
-23
-23
-23
-23
-23
-23
-23
-23
-23
-22
-21
-21
-21
-23
-22
-21
-21
-21
-22
-23
-24
-25
-24
-23
-23
-23
-24
-25
-26
-27
-26
-25
-26
-27
-27
-27
-28
-29
-29
-29
-28
-27
-28
-29
-29
-29
-28
-27
-27
-27
-28
-29
-29
-29
-29
-24
-21
-18
-15
-15
-15
-15
-15
-13
-11
-11
-12
-16
-20
-24
-27
-25
-23
-22
-22
-25
-29
-33
-34
-31
-30
-32
-33
-33
-33
-33
-33
-32
-31
-31
-31
-32
-33
-32
-31
-30
-29
-29
-29
-29
-28
-27
-27
-27
-23
-17
-7
5
20
32
37
42
47
33
-13
-81
-175
-251
-309
-319
-290
-246
-193
-137
-81
-47
-22
-10
-3
-1
0
2
4
7
10
11
12
13
15
17
19
21
23
22
21
23
25
27
29
31
33
34
35
36
38
41
44
48
52
55
58
61
64
67
72
77
81
85
88
90
92
94
96
98
99
98
94
90
86
89
75
69
60
50
39
28
20
13
7
2
-4
-10
-14
-17
-19
-21
-22
-23
-24
-25
-28
-29
-28
-27
-27
-27
-27
-27
-28
-29
-28
-27
-26
-25
-26
-27
-27
-27
-27
-27
-26
-25
-25
-25
-25
-25
-25
-24
-23
-24
-25
-27
-29
-28
-27
-27
-27
-28
-29
-30
-31
-31
-31
-30
-29
-30
-32
-34
-35
-34
-33
-33
-33
-33
-33
-34
-35
-35
-35
-34
-33
-34
-35
-35
-34
-33
-32
-31
-29
-27
-24
-21
-21
-21
-20
-19
-18
-17
-19
-22
-26
-29
-30
-31
-28
-27
-28
-30
-33
-35
-36
-37
-38
-39
-40
-41
-40
-39
-38
-37
-37
-37
-37
-37
-37
-36
-35
-35
-35
-36
-37
-35
-33
-32
-31
-31
-29
-21
-10
8
20
24
28
31
29
20
-20
-90
-164
-242
-286
-307
-294
-261
-214
-161
-111
-61
-38
-20
-14
-10
-8
-6
-4
-2
1
3
3
3
6
9
10
11
12
13
13
13
15
17
19
21
22
23
24
25
27
30
33
36
39
42
44
47
51
56
61
65
68
71
74
76
78
81
84
85
85
84
81
79
77
73
69
62
54
47
40
32
23
15
7
0
-7
-13
-17
-19
-21
-23
-25
-28
-30
-32
-33
-32
-31
-31
-31
-31
-31
-32
-33
-32
-31
-30
-29
-29
-29
-30
-31
-31
-28
-27
-28
-29
-29
-29
-29
-29
-28
-27
-28
-29
-29
-29
-29
-29
-29
-29
-29
-29
-32
-33
-32
-31
-31
-31
-32
-33
-34
-35
-35
-35
-34
-33
-34
-35
-36
-37
-36
-35
-34
-34
-35
-36
-37
-36
-35
-35
-35
-35
-35
-35
-35
-33
-30
-25
-21
-20
-19
-20
-21
-20
-19
-18
-19
-24
-29
-33
-34
-30
-29
-28
-29
-32
-36
-40
-40
-38
-37
-38
-39
-39
-39
-39
-38
-37
-37
-37
-37
-37
-37
-37
-36
-35
-34
-33
-33
-33
-33
-33
-32
-29
-24
-15
-2
12
25
34
40
45
49
19
-29
-110
-204
-270
-326
-311
-278
-228
-174
-118
-62
-37
-59
-8
-3
-2
-1
-1
-1
3
7
9
11
11
11
12
13
15
17
18
19
21
23
23
24
26
28
30
31
32
34
36
39
42
45
48
53
58
60
62
68
74
77
80
85
89
91
93
94
95
96
97
96
95
91
86
80
73
63
54
44
33
23
14
7
1
-4
-9
-14
-18
-21
-23
-24
-25
-26
-27
-28
-29
-29
-29
-29
-29
-29
-29
-29
-29
-31
-29
-27
-27
-27
-28
-29
-28
-27
-27
-27
-27
-27
-27
-27
-27
-27
-26
-25
-26
-27
-26
-26
-28
-29
-28
-27
-27
-27
-27
-27
-28
-29
-30
-31
-30
-29
-30
-31
-32
-33
-33
-32
-33
-33
-33
-34
-35
-34
-33
-32
-31
-31
-31
-32
-33
-33
-33
-31
-29
-28
-26
-21
-19
-19
-19
-19
-18
-16
-16
-18
-21
-24
-26
-28
-28
-26
-25
-26
-28
-30
-32
-34
-35
-35
-37
-39
-38
-37
-36
-35
-35
-35
-36
-37
-36
-35
-34
-33
-33
-33
-33
-33
-32
-31
-30
-29
-28
-25
-21
-10
6
19
31
40
47
49
50
1
-61
-155
-255
-297
-335
-300
-261
-202
-144
-92
-44
-26
-11
-6
-1
1
3
5
7
9
11
12
13
14
15
17
19
20
21
21
22
24
26
29
31
32
33
34
37
40
43
46
49
52
55
58
61
59
71
77
81
85
87
89
94
99
101
103
103
103
102
100
97
93
87
80
70
60
49
39
30
21
14
7
-2
-7
-11
-15
-18
-19
-20
-22
-24
-25
-26
-27
-27
-27
-27
-28
-29
-29
-29
-28
-27
-27
-27
-27
-27
-28
-29
-28
-27
-26
-25
-26
-27
-27
-27
-27
-27
-26
-25
-25
-25
-26
-27
-26
-25
-25
-26
-28
-29
-29
-29
-28
-27
-27
-27
-28
-29
-31
-30
-29
-30
-31
-31
-31
-32
-33
-32
-31
-31
-31
-31
-31
-32
-33
-33
-33
-31
-29
-29
-29
-30
-30
-28
-25
-21
-19
-18
-17
-18
-18
-16
-15
-14
-16
-20
-24
-28
-29
-29
-25
-23
-26
-29
-34
-39
-36
-33
-34
-35
-35
-35
-35
-35
-36
-37
-36
-35
-36
-37
-36
-35
-35
-34
-32
-31
-31
-31
-32
-32
-30
-27
-24
-17
-9
6
23
26
28
39
50
29
4
-93
-189
-266
-333
-310
-283
-231
-179
-120
-70
-40
-17
-9
-3
-1
1
2
3
5
8
11
13
14
15
15
15
16
19
22
23
24
25
25
27
30
32
34
35
36
38
41
45
49
53
57
60
63
66
70
75
80
84
87
90
93
94
95
96
97
97
97
94
90
84
79
73
67
60
51
40
30
20
12
5
-1
-6
-11
-16
-19
-22
-23
-23
-26
-27
-28
-29
-30
-31
-30
-29
-29
-29
-29
-29
-30
-31
-30
-29
-28
-27
-27
-27
-28
-29
-28
-27
-27
-27
-27
-27
-28
-29
-28
-27
-27
-27
-27
-28
-30
-30
-28
-27
-28
-29
-29
-30
-31
-31
-31
-31
-31
-31
-31
-33
-35
-34
-33
-33
-33
-34
-35
-35
-35
-34
-33
-33
-33
-34
-35
-34
-32
-30
-27
-23
-21
-20
-19
-20
-20
-18
-17
-16
-18
-22
-27
-33
-30
-27
-27
-27
-29
-31
-36
-41
-39
-37
-37
-37
-38
-39
-39
-39
-38
-37
-36
-35
-36
-37
-37
-37
-36
-35
-34
-33
-33
-33
-33
-33
-32
-29
-26
-18
-8
7
24
25
25
33
38
13
-19
-111
-199
-259
-308
-300
-284
-242
-196
-141
-91
-53
-25
-13
-5
-3
-1
0
2
4
6
8
9
9
9
10
12
14
15
16
17
18
19
20
22
24
26
28
31
33
35
37
41
45
47
49
52
55
58
62
67
71
73
76
79
81
81
81
83
85
86
86
83
80
77
72
67
61
55
47
39
29
19
11
3
-3
-8
-12
-16
-19
-23
-25
-27
-27
-27
-28
-29
-30
-31
-31
-31
-30
-29
-30
-31
-32
-33
-32
-31
-30
-29
-29
-29
-30
-30
-28
-27
-27
-27
-27
-27
-28
-29
-28
-27
-27
-27
-28
-29
-30
-31
-31
-30
-29
-30
-31
-32
-33
-33
-33
-33
-33
-33
-33
-35
-37
-36
-35
-35
-35
-36
-37
-38
-39
-38
-37
-36
-35
-34
-33
-33
-31
-27
-24
-22
-21
-21
-21
-22
-22
-20
-21
-24
-29
-33
-33
-33
-31
-29
-30
-31
-37
-41
-41
-41
-41
-41
-40
-39
-40
-41
-41
-41
-40
-39
-39
-39
-38
-37
-38
-39
-38
-37
-36
-35
-34
-33
-34
-33
-30
-21
-10
7
24
25
27
36
44
25
-2
-89
-175
-252
-314
-304
-286
-240
-191
-134
-86
-52
-27
-16
-8
-5
-3
-2
-1
-1
0
3
6
9
11
11
11
12
14
16
17
18
19
20
21
21
22
21
28
31
32
33
37
41
45
49
52
55
58
61
64
68
71
74
80
84
87
89
90
91
90
89
90
89
85
79
73
66
59
51
43
33
23
15
6
0
-6
-10
-14
-18
-21
-24
-27
-28
-29
-29
-29
-29
-29
-31
-33
-32
-31
-30
-29
-29
-29
-29
-29
-29
-29
-28
-27
-27
-27
-28
-29
-28
-27
-27
-27
-27
-27
-27
-27
-27
-27
-26
-25
-26
-27
-29
-29
-29
-28
-27
-28
-29
-30
-31
-30
-29
-29
-29
-30
-31
-33
-35
-34
-33
-33
-33
-33
-33
-34
-35
-34
-33
-32
-31
-31
-29
-26
-23
-20
-19
-18
-17
-17
-17
-16
-16
-15
-22
-25
-27
-29
-28
-27
-26
-25
-28
-31
-34
-37
-37
-37
-37
-37
-37
-37
-37
-37
-38
-39
-38
-37
-36
-35
-35
-35
-35
-35
-34
-33
-32
-31
-31
-31
-31
-26
-20
-3
14
22
29
37
45
44
34
-41
-119
-215
-295
-314
-318
-275
-226
-162
-106
-62
-31
-20
-11
-6
-2
1
3
4
5
5
6
10
12
14
15
16
17
17
18
20
22
24
26
28
29
29
32
35
38
41
44
47
48
50
55
60
64
68
72
76
80
84
88
92
95
97
100
101
101
101
100
98
96
91
85
77
68
58
49
41
33
24
14
6
-2
-7
-3
-15
-17
-20
-23
-24
-25
-25
-25
-26
-27
-28
-29
-29
-29
-29
-29
-28
-27
-27
-27
-28
-29
-28
-27
-27
-27
-27
-27
-28
-28
-26
-25
-25
-25
-25
-25
-26
-27
-26
-25
-25
-26
-27
-28
-29
-28
-27
-27
-27
-28
-29
-29
-29
-28
-27
-28
-29
-30
-31
-32
-33
-32
-31
-31
-31
-30
-30
-32
-32
-30
-29
-28
-27
-26
-23
-20
-19
-18
-17
-16
-15
-14
-14
-17
-20
-23
-25
-27
-26
-25
-25
-25
-27
-29
-31
-33
-33
-33
-35
-37
-35
-33
-33
-33
-33
-33
-34
-34
-32
-31
-31
-31
-31
-31
-31
-31
-30
-29
-28
-27
-26
-20
-14
2
-13
26
33
42
51
50
40
-25
-95
-186
-264
-304
-323
-286
-242
-183
-128
-81
-45
-26
-13
-8
-4
-1
2
5
7
8
9
10
13
16
18
20
21
22
23
24
25
25
26
28
31
33
34
35
36
37
40
43
46
49
52
55
58
62
66
70
75
80
83
86
89
92
95
99
103
105
105
104
102
100
98
93
87
80
73
64
55
45
34
26
18
10
1
-4
-9
-11
-13
-16
-19
-21
-23
-24
-25
-25
-25
-25
-25
-26
-27
-26
-25
-25
-25
-25
-25
-26
-27
-26
-25
-24
-23
-24
-25
-25
-25
-24
-23
-23
-23
-23
-23
-24
-25
-25
-24
-23
-24
-25
-26
-27
-27
-27
-27
-27
-28
-29
-29
-29
-29
-29
-29
-29
-30
-31
-32
-33
-32
-31
-30
-30
-32
-33
-32
-31
-31
-31
-30
-29
-28
-27
-26
-23
-20
-19
-18
-17
-17
-16
-15
-14
-13
-18
-23
-26
-29
-27
-25
-25
-25
-27
-30
-33
-35
-35
-35
-35
-35
-35
-35
-35
-35
-35
-35
-35
-35
-34
-33
-32
-31
-32
-32
-30
-29
-29
-29
-29
-29
-27
-21
-15
0
13
22
29
33
37
41
33
-15
-75
-164
-241
-294
-319
-298
-266
-221
-172
-118
-76
-42
-21
-10
-3
1
3
3
4
6
8
10
12
14
16
18
19
18
18
17
21
21
24
27
27
27
29
31
33
35
37
39
41
44
47
50
54
58
61
64
67
71
76
80
83
86
89
91
91
91
92
92
90
88
86
79
70
65
60
51
42
32
23
16
9
3
-3
-8
-13
-16
-19
-22
-25
-26
-27
-27
-27
-28
-29
-30
-31
-30
-29
-28
-27
-28
-29
-30
-31
-30
-29
-28
-27
-28
-29
-29
-29
-29
-29
-28
-27
-27
-27
-29
-29
-29
-29
-29
-30
-31
-31
-31
-31
-31
-31
-31
-32
-33
-34
-35
-35
-35
-35
-35
-36
-37
-38
-39
-38
-37
-36
-35
-36
-37
-37
-37
-36
-35
-35
-35
-35
-33
-30
-27
-29
-22
-21
-21
-21
-20
-19
-21
-23
-27
-31
-34
-37
-34
-31
-31
-32
-36
-39
-40
-41
-41
-41
-41
-41
-40
-39
-40
-41
-41
-41
-40
-39
-38
-37
-37
-37
-37
-37
-36
-35
-35
-34
-33
-33
-33
-30
-26
-14
-1
13
25
24
24
29
25
0
-47
-131
-207
-271
-304
-296
-269
-225
-176
-123
-81
-48
-28
-17
-11
-7
-5
-4
-3
-2
1
4
6
8
9
9
9
9
11
13
15
17
17
17
17
17
20
23
25
27
28
29
31
34
38
42
46
50
53
56
59
63
67
70
72
75
78
79
80
81
82
81
78
76
74
68
62
56
61
41
33
26
19
11
3
-2
-7
-11
-15
-20
-23
-26
-29
-30
-31
-30
-29
-30
-31
-32
-33
-32
-31
-31
-31
-31
-31
-31
-31
-31
-31
-30
-29
-29
-29
-29
-29
-29
-29
-28
-28
-29
-29
-29
-28
-27
-27
-27
-28
-29
-29
-29
-29
-29
-30
-31
-32
-33
-34
-35
-34
-33
-33
-33
-34
-35
-35
-35
-35
-35
-34
-33
-33
-33
-34
-33
-30
-28
-26
-24
-22
-21
-21
-20
-19
-18
-17
-20
-23
-28
-33
-33
-33
-31
-29
-30
-32
-36
-39
-39
-39
-37
-35
-36
-37
-38
-39
-38
-37
-37
-37
-36
-36
-38
-38
-36
-35
-34
-33
-33
-33
-33
-33
-33
-30
-29
-26
-23
-13
-3
14
29
33
38
44
44
23
-17
-97
-178
-262
-309
-304
-281
-238
-188
-131
-82
-41
-19
-7
-3
-2
0
2
4
6
7
8
9
10
11
12
15
18
19
19
20
21
23
25
26
27
29
31
31
31
34
38
42
45
47
50
53
57
62
67
71
75
79
82
85
88
92
94
96
97
97
96
94
92
90
84
78
70
62
51
39
30
21
13
5
-1
-7
-12
-17
-19
-21
-22
-23
-24
-25
-27
-29
-28
-27
-27
-27
-28
-29
-29
-29
-28
-27
-27
-27
-26
-25
-25
-25
-25
-25
-25
-25
-25
-25
-26
-27
-27
-24
-23
-23
-23
-24
-25
-24
-23
-23
-23
-24
-25
-26
-27
-27
-27
-27
-27
-27
-27
-28
-29
-28
-27
-28
-29
-28
-27
-28
-29
-29
-29
-28
-26
-24
-21
-18
-16
-14
-13
-14
-14
-13
-15
-17
-20
-23
-26
-29
-27
-25
-25
-25
-27
-29
-33
-35
-34
-33
-34
-35
-35
-35
-34
-33
-33
-33
-33
-33
-32
-31
-30
-29
-29
-29
-29
-29
-29
-29
-28
-27
-27
-24
-19
-5
9
23
35
40
45
50
48
11
-40
-134
-221
-289
-326
-300
-263
-212
-158
-98
-55
-28
-12
-5
0
2
4
6
7
8
10
12
14
16
17
18
19
20
21
21
22
21
27
29
30
31
32
33
35
37
41
45
47
49
52
56
61
66
70
74
78
81
84
87
92
96
99
101
100
99
99
98
96
92
88
80
71
63
54
43
32
25
18
10
3
-3
-9
-12
-15
-17
-19
-21
-23
-25
-27
-27
-27
-27
-27
-27
-27
-28
-29
-28
-27
-27
-27
-26
-25
-25
-25
-25
-25
-25
-25
-25
-25
-25
-25
-25
-25
-25
-25
-25
-25
-25
-24
-23
-23
-23
-24
-25
-26
-27
-26
-25
-26
-27
-27
-27
-29
-31
-30
-29
-29
-29
-30
-31
-31
-31
-31
-31
-30
-29
-28
-26
-24
-20
-16
-15
-15
-15
-16
-17
-16
-15
-15
-22
-27
-28
-29
-27
-25
-26
-27
-30
-33
-34
-35
-35
-35
-35
-35
-34
-33
-34
-35
-35
-35
-34
-33
-32
-31
-31
-31
-31
-31
-30
-29
-28
-27
-28
-28
-26
-19
-12
6
24
30
35
45
55
43
23
-61
-147
-240
-313
-314
-304
-260
-211
-153
-100
-57
-27
-14
-5
0
4
6
7
8
9
10
12
16
17
18
19
20
21
21
22
24
26
28
29
30
31
33
35
37
40
43
45
47
49
51
54
58
64
69
72
76
79
82
86
91
96
99
100
101
102
103
102
100
98
93
87
80
71
62
51
42
33
24
16
8
0
-5
-1
-13
-15
-18
-21
-22
-23
-24
-25
-25
-25
-26
-27
-28
-29
-27
-25
-25
-25
-26
-27
-27
-27
-26
-25
-25
-25
-25
-25
-26
-27
-26
-25
-25
-25
-25
-25
-26
-27
-26
-25
-24
-24
-25
-26
-27
-27
-27
-27
-27
-28
-29
-30
-31
-30
-29
-30
-31
-31
-31
-31
-31
-31
-31
-30
-29
-28
-26
-24
-22
-20
-19
-19
-18
-16
-15
-16
-19
-22
-25
-28
-29
-29
-29
-27
-28
-29
-33
-37
-36
-35
-36
-37
-38
-39
-38
-37
-37
-37
-37
-37
-37
-37
-35
-33
-33
-33
-34
-35
-34
-33
-32
-31
-30
-29
-28
-20
-9
7
24
27
28
34
40
11
41
-120
-217
-276
-327
-304
-277
-229
-178
-119
-67
-39
-17
-10
-5
-3
-1
1
3
5
7
8
10
12
13
14
16
18
19
18
18
20
22
24
25
26
27
28
30
32
36
40
43
45
47
49
53
57
61
65
69
73
75
78
82
85
87
89
89
89
87
85
83
79
75
69
61
53
44
35
25
17
9
1
-7
-12
-16
-19
-22
-24
-26
-27
-28
-30
-33
-32
-31
-31
-31
-32
-33
-33
-33
-32
-31
-31
-31
-31
-31
-31
-31
-30
-29
-29
-29
-29
-29
-30
-31
-30
-29
-28
-27
-28
-29
-30
-31
-30
-29
-29
-29
-30
-31
-32
-33
-33
-31
-31
-32
-33
-35
-37
-36
-35
-35
-35
-36
-37
-37
-37
-36
-35
-35
-34
-30
-27
-26
-25
-24
-23
-23
-22
-20
-20
-22
-26
-31
-33
-34
-34
-32
-32
-34
-37
-40
-41
-41
-42
-43
-43
-43
-43
-43
-41
-39
-40
-41
-42
-43
-41
-39
-38
-37
-38
-39
-39
-39
-38
-37
-36
-35
-35
-31
-24
-10
7
16
21
25
28
25
19
-39
-108
-187
-268
-292
-312
-282
-249
-197
-146
-97
-52
-34
-19
-15
-11
-9
-7
-5
-3
-2
-1
0
1
3
5
7
9
9
9
9
9
10
12
15
17
17
17
18
21
24
27
30
33
36
38
40
44
41
53
57
60
63
65
67
70
73
76
79
78
77
75
73
71
68
62
56
46
38
29
21
13
6
0
-6
-12
-18
-23
-26
-28
-29
-30
-32
-34
-35
-36
-37
-37
-37
-37
-37
-37
-37
-37
-36
-35
-35
-35
-35
-35
-36
-37
-36
-35
-33
-31
-32
-33
-33
-33
-32
-31
-31
-32
-34
-35
-35
-35
-34
-33
-33
-33
-34
-35
-35
-35
-35
-35
-35
-35
-36
-37
-39
-38
-37
-37
-37
-37
-37
-38
-39
-37
-35
-33
-31
-28
-25
-25
-25
-24
-23
-22
-21
-24
-27
-32
-35
-35
-34
-32
-31
-32
-35
-38
-39
-40
-41
-40
-40
-42
-43
-43
-43
-43
-41
-41
-41
-41
-42
-43
-42
-41
-40
-39
-39
-39
-39
-39
-38
-37
-36
-33
-27
-16
-1
11
20
29
37
41
40
2
-55
-139
-233
-285
-323
-301
-263
-210
-154
-104
-55
-35
-18
-11
-5
-5
-5
-3
-1
2
5
5
5
6
7
9
11
13
15
15
15
16
17
18
20
23
26
28
29
30
32
36
39
43
47
50
53
56
60
64
69
74
77
80
82
85
88
91
93
95
93
91
86
80
74
68
62
54
43
32
20
11
5
-1
-7
-12
-17
-21
-25
-27
-27
-27
-28
-29
-30
-31
-31
-31
-32
-33
-32
-31
-32
-33
-33
-33
-33
-31
-31
-31
-31
-31
-31
-30
-29
-29
-29
-29
-29
-29
-29
-28
-27
-27
-27
-28
-29
-30
-31
-30
-29
-29
-29
-30
-31
-31
-31
-31
-31
-30
-30
-32
-33
-34
-35
-34
-33
-33
-34
-35
-34
-33
-31
-29
-25
-21
-20
-19
-20
-21
-19
-17
-17
-18
-22
-26
-30
-33
-31
-28
-26
-26
-29
-33
-37
-39
-38
-37
-37
-37
-37
-37
-38
-39
-38
-37
-37
-37
-37
-37
-37
-36
-35
-34
-33
-33
-33
-33
-33
-32
-31
-30
-28
-22
-13
0
13
23
33
42
47
50
15
-54
-143
-249
-301
-322
-299
-254
-198
-138
-90
-46
-25
-10
-5
-2
-1
-1
0
-1
6
9
10
11
12
13
14
15
17
19
20
21
22
23
24
26
29
31
32
33
36
38
41
44
47
51
55
59
63
67
71
76
81
85
88
90
92
95
98
99
100
100
99
94
89
83
77
69
61
49
37
26
16
8
2
-3
-9
-15
-19
-21
-23
-24
-25
-26
-27
-28
-29
-30
-31
-30
-29
-29
-29
-29
-29
-30
-31
-30
-29
-28
-27
-27
-27
-29
-28
-27
-26
-25
-26
-27
-27
-27
-26
-25
-25
-25
-26
-27
-27
-27
-27
-27
-26
-25
-26
-27
-28
-29
-29
-29
-30
-31
-30
-30
-32
-33
-32
-31
-31
-31
-31
-31
-32
-33
-33
-32
-31
-30
-29
-28
-27
-23
-19
-18
-17
-17
-17
-17
-17
-17
-18
-22
-25
-27
-29
-28
-27
-26
-25
-26
-29
-33
-35
-35
-35
-35
-35
-35
-35
-35
-35
-35
-35
-34
-33
-33
-33
-33
-33
-33
-32
-31
-30
-29
-29
-29
-29
-28
-24
-18
-7
6
23
34
38
45
54
37
-8
-79
-173
-251
-320
-326
-295
-247
-190
-133
-74
-44
-21
-12
-4
-2
0
1
2
3
5
8
11
12
13
14
15
16
17
19
21
23
25
26
27
28
29
31
34
37
40
43
46
49
52
55
59
63
67
70
73
76
80
86
89
92
95
98
99
99
99
99
99
97
91
85
77
68
59
50
39
30
21
13
5
-2
-6
-10
-14
-17
-19
-21
-24
-25
-26
-27
-27
-27
-27
-27
-28
-29
-28
-27
-27
-27
-27
-27
-28
-29
-28
-27
-26
-26
-27
-27
-27
-27
-27
-26
-25
-26
-27
-27
-27
-27
-27
-27
-27
-27
-27
-27
-27
-28
-29
-28
-27
-28
-30
-32
-33
-32
-31
-31
-31
-32
-33
-33
-33
-33
-33
-32
-32
-34
-35
-35
-34
-33
-32
-31
-32
-33
-34
-35
-34
-33
-33
-33
-32
-31
-29
-26
-22
-19
-18
-17
-17
-17
-16
-14
-12
-15
-22
-26
-28
-29
-28
-27
-27
-30
-34
-35
-35
-35
-36
-37
-37
-36
-35
-36
-37
-37
-37
-36
-35
-34
-33
-34
-35
-34
-33
-32
-31
-30
-29
-30
-31
-28
-23
-14
0
18
25
26
31
38
26
5
-62
-144
-218
-289
-302
-304
-270
-230
-174
-116
-76
-37
-25
-13
-8
-3
-1
1
2
3
4
5
8
11
13
15
16
17
17
17
19
21
22
23
24
25
26
28
32
34
36
38
40
42
44
49
54
57
60
64
68
72
77
79
81
83
85
87
89
87
85
85
85
83
79
72
65
56
49
42
33
23
14
7
0
-6
-10
-13
-16
-18
-21
-24
-26
-28
-29
-28
-27
-27
-27
-28
-29
-29
-29
-29
-27
-27
-27
-27
-27
-27
-26
-25
-25
-25
-25
-25
-26
-27
-27
-27
-27
-27
-27
-27
-27
-27
-27
-27
-26
-25
-26
-27
-28
-29
-29
-29
-29
-29
-30
-31
-32
-33
-32
-31
-32
-32
-31
-32
-33
-33
-33
-33
-33
-33
-33
-34
-35
-34
-33
-32
-31
-31
-30
-26
-23
-22
-21
-20
-19
-18
-17
-17
-18
-22
-25
-29
-30
-28
-27
-28
-29
-29
-33
-38
-38
-36
-36
-39
-38
-37
-36
-35
-35
-35
-36
-37
-36
-35
-35
-35
-34
-33
-33
-33
-32
-31
-31
-31
-31
-31
-31
-27
-19
-3
16
25
28
30
32
19
1
-71
-155
-225
-292
-292
-284
-245
-283
-154
-104
-66
-30
-19
-9
-6
-3
-2
-1
0
1
3
5
7
9
11
13
13
13
14
16
18
19
20
21
22
23
24
27
30
31
32
36
40
42
44
48
52
56
60
64
67
70
73
76
79
82
85
86
87
86
85
85
85
83
79
73
66
58
50
42
33
25
16
7
0
-5
-8
-12
-15
-18
-20
-22
-24
-26
-27
-27
-27
-27
-27
-28
-29
-29
-28
-27
-27
-27
-27
-27
-28
-29
-28
-27
-26
-25
-25
-25
-25
-25
-25
-25
-24
-23
-23
-23
-24
-25
-24
-23
-23
-23
-24
-25
-26
-27
-27
-27
-27
-27
-27
-27
-27
-27
-27
-27
-27
-28
-29
-30
-31
-31
-31
-31
-31
-31
-31
-31
-31
-30
-29
-30
-31
-30
-29
-30
-31
-30
-29
-29
-29
-29
-29
-30
-29
-26
-22
-18
-17
-16
-15
-15
-14
-12
-10
-8
-11
-15
-22
-29
-26
-23
-22
-21
-23
-25
-29
-33
-32
-31
-31
-31
-32
-33
-33
-33
-32
-31
-31
-31
-31
-31
-31
-31
-31
-30
-28
-27
-27
-27
-27
-27
-26
-19
-12
3
18
27
37
46
55
50
39
-25
-94
-190
-273
-306
-322
-283
-238
-181
-126
-75
-37
-19
-7
-2
1
2
3
4
6
9
12
14
15
16
17
17
19
22
23
24
25
26
27
27
29
27
35
37
38
39
42
45
48
51
55
59
62
65
68
72
77
82
88
91
93
96
99
102
104
105
105
104
101
96
91
86
81
73
65
55
45
35
25
18
12
6
0
-6
-11
-15
-19
-20
-21
-22
-23
-24
-25
-26
-27
-27
-27
-27
-27
-27
-27
-27
-27
-27
-27
-26
-25
-25
-25
-26
-27
-26
-25
-24
-23
-24
-25
-25
-25
-25
-25
-25
-25
-25
-25
-27
-26
-25
-25
-25
-26
-27
-27
-27
-27
-27
-27
-27
-27
-27
-28
-29
-29
-29
-28
-27
-28
-29
-30
-31
-30
-29
-29
-29
-29
-29
-29
-29
-29
-29
-29
-29
-29
-29
-29
-27
-29
-20
-17
-15
-13
-14
-15
-13
-11
-9
-8
-13
-18
-24
-28
-25
-23
-21
-20
-23
-26
-31
-33
-32
-31
-31
-31
-31
-31
-32
-33
-32
-31
-30
-29
-30
-31
-32
-32
-30
-29
-29
-28
-27
-27
-27
-27
-27
-23
-17
-3
11
25
36
44
49
53
39
-6
-70
-162
-242
-308
-325
-291
-244
-187
-128
-69
-34
-14
-4
1
3
4
5
6
8
10
12
14
16
18
19
21
22
23
24
25
26
27
27
27
29
31
34
37
37
37
39
42
46
50
54
58
61
64
67
71
77
82
87
90
92
95
98
100
102
103
104
105
104
101
98
93
97
79
71
61
51
40
30
22
14
6
-2
-7
-11
-14
-18
-21
-23
-23
-23
-24
-25
-26
-27
-26
-25
-26
-27
-26
-25
-26
-27
-26
-25
-25
-25
-25
-25
-26
-27
-26
-25
-24
-24
-25
-25
-25
-24
-23
-23
-23
-24
-25
-25
-25
-25
-25
-24
-23
-24
-25
-26
-27
-26
-25
-26
-27
-27
-27
-28
-29
-29
-29
-29
-29
-29
-29
-29
-29
-29
-29
-29
-29
-29
-29
-29
-29
-29
-28
-27
-27
-27
-28
-29
-29
-29
-28
-27
-26
-25
-24
-22
-18
-15
-14
-13
-13
-12
-10
-9
-9
-13
-20
-23
-24
-25
-24
-23
-23
-25
-28
-30
-32
-33
-34
-35
-35
-33
-33
-33
-33
-34
-35
-33
-31
-31
-31
-30
-29
-30
-31
-30
-29
-28
-27
-27
-27
-26
-21
-12
1
17
26
31
37
44
43
37
-20
-94
-179
-267
-298
-318
-282
-238
-180
-120
-76
-33
-20
-7
-2
3
5
7
8
9
10
11
14
17
18
19
20
21
21
21
23
26
28
29
29
30
32
34
36
38
40
42
44
46
48
52
56
60
64
68
72
74
77
81
85
89
93
94
95
96
97
97
97
96
94
89
83
77
71
64
55
46
38
29
21
11
4
-2
-7
-11
-15
-18
-20
-22
-23
-24
-25
-25
-25
-26
-27
-27
-27
-27
-28
-27
-26
-25
-26
-27
-27
-27
-27
-27
-27
-27
-27
-27
-27
-27
-26
-25
-26
-27
-27
-27
-26
-25
-25
-25
-26
-27
-28
-29
-28
-27
-27
-27
-28
-29
-30
-31
-30
-29
-29
-30
-31
-32
-33
-32
-31
-31
-31
-31
-31
-32
-33
-32
-31
-30
-29
-29
-28
-24
-21
-20
-19
-19
-19
-18
-17
-17
-18
-22
-25
-29
-30
-28
-27
-27
-27
-28
-32
-36
-36
-34
-34
-37
-37
-37
-36
-35
-36
-37
-37
-37
-36
-35
-35
-35
-35
-35
-35
-35
-34
-33
-32
-31
-31
-31
-31
-27
-19
-5
11
20
25
27
28
28
26
-21
-78
-156
-237
-273
-305
-279
-307
-199
-149
-98
-50
-31
-15
-10
-5
-4
-3
-1
1
1
2
5
7
9
11
11
11
12
14
16
17
18
19
20
21
21
23
26
28
30
32
34
35
36
40
44
48
52
55
57
61
65
69
73
76
79
80
81
80
79
80
81
77
74
70
65
57
50
43
36
30
22
13
5
-2
-7
-11
-15
-19
-22
-24
-26
-28
-29
-30
-31
-31
-31
-32
-33
-35
-34
-33
-31
-29
-30
-31
-31
-31
-31
-31
-30
-29
-29
-29
-29
-29
-29
-29
-28
-27
-27
-27
-28
-29
-29
-29
-29
-29
-29
-29
-30
-31
-31
-31
-31
-31
-31
-31
-32
-33
-33
-33
-33
-33
-33
-34
-35
-35
-35
-34
-33
-33
-33
-34
-35
-34
-33
-33
-33
-33
-33
-33
-32
-29
-25
-21
-19
-19
-19
-20
-20
-18
-17
-18
-23
-28
-30
-32
-31
-28
-27
-27
-31
-35
-36
-37
-37
-37
-37
-37
-37
-37
-37
-37
-36
-35
-34
-33
-34
-35
-35
-35
-34
-32
-30
-29
-30
-31
-30
-29
-29
-27
-23
-12
2
16
30
35
38
43
48
18
-15
-101
-188
-256
-320
-296
-270
-224
-176
-118
-66
-37
-14
-7
-1
0
1
1
2
5
7
9
11
11
11
12
14
16
18
20
21
21
21
22
24
26
29
32
33
34
36
38
41
39
49
53
57
61
64
67
71
75
81
85
87
89
91
93
95
97
97
96
93
89
84
78
71
63
55
45
35
24
13
6
1
-4
-9
-13
-16
-20
-24
-25
-26
-27
-27
-28
-29
-30
-31
-30
-29
-29
-29
-29
-29
-30
-31
-30
-29
-28
-27
-28
-29
-29
-29
-28
-27
-26
-25
-26
-27
-28
-29
-28
-27
-27
-27
-27
-27
-28
-29
-29
-29
-28
-27
-27
-27
-29
-29
-29
-29
-29
-30
-31
-32
-33
-32
-31
-31
-31
-31
-31
-33
-35
-34
-33
-32
-31
-31
-31
-32
-32
-30
-29
-29
-27
-23
-21
-20
-19
-19
-18
-16
-15
-15
-17
-20
-24
-21
-28
-27
-25
-23
-26
-29
-32
-35
-34
-33
-34
-35
-36
-37
-36
-35
-34
-33
-33
-33
-33
-33
-33
-33
-32
-31
-31
-31
-31
-31
-30
-29
-28
-27
-26
-21
-16
-1
15
25
34
44
53
45
32
-34
-105
-201
-284
-307
-317
-276
-229
-168
-111
-64
-29
-15
-6
-3
-1
1
3
4
6
9
11
12
14
16
17
17
19
22
23
22
22
24
26
28
29
30
31
33
37
41
43
45
49
53
56
59
63
68
73
77
79
82
87
91
93
96
99
101
102
102
99
97
96
92
86
77
68
58
48
38
29
21
13
5
-2
-8
-14
-16
-15
-21
-23
-24
-25
-26
-27
-28
-29
-28
-27
-28
-29
-29
-29
-28
-27
-27
-27
-27
-27
-28
-29
-28
-27
-27
-27
-27
-27
-27
-27
-27
-27
-26
-25
-26
-27
-27
-27
-27
-27
-27
-27
-27
-28
-29
-28
-27
-27
-27
-28
-29
-31
-33
-31
-29
-30
-31
-31
-31
-31
-31
-31
-31
-30
-29
-30
-31
-32
-32
-30
-29
-28
-24
-20
-19
-19
-19
-18
-17
-16
-15
-15
-19
-25
-28
-31
-28
-25
-26
-27
-28
-29
-33
-37
-35
-33
-35
-37
-37
-37
-36
-35
-34
-33
-34
-35
-35
-35
-34
-33
-33
-33
-32
-31
-31
-31
-30
-29
-29
-29
-28
-21
-14
4
-13
29
35
44
52
40
19
-57
-136
-232
-307
-318
-315
-271
-221
-160
-104
-58
-26
-13
-5
-2
0
2
4
6
7
8
9
10
12
14
16
18
19
20
21
21
23
26
27
28
30
31
33
35
38
41
44
47
50
53
56
60
65
70
75
80
83
86
89
92
95
98
100
101
101
100
98
96
92
87
79
71
63
52
40
31
23
15
8
1
-6
-12
-19
-20
-21
-23
-25
-26
-27
-29
-31
-30
-29
-29
-29
-29
-29
-30
-31
-30
-29
-28
-27
-28
-29
-29
-29
-29
-29
-28
-27
-27
-27
-28
-29
-28
-27
-26
-25
-26
-27
-28
-29
-29
-27
-27
-28
-29
-30
-31
-30
-29
-30
-31
-31
-31
-32
-33
-32
-31
-32
-33
-33
-33
-34
-35
-34
-33
-33
-33
-33
-33
-33
-33
-32
-28
-23
-21
-20
-19
-20
-21
-20
-18
-16
-18
-21
-26
-31
-32
-33
-29
-25
-27
-30
-35
-39
-38
-37
-37
-37
-37
-37
-38
-39
-38
-37
-36
-35
-35
-35
-36
-37
-36
-35
-34
-33
-33
-33
-33
-33
-33
-33
-32
-24
-16
0
17
21
25
31
36
24
1
-79
-158
-234
-293
-302
-299
-263
-221
-168
-117
-69
-34
-18
-8
-5
-3
-2
0
2
4
6
7
8
9
10
11
12
14
16
17
17
17
17
18
17
24
27
28
29
31
33
35
37
41
45
47
50
54
58
62
66
70
74
77
79
82
83
84
85
86
85
81
77
73
66
59
53
47
38
29
20
11
4
-2
-7
-12
-16
-19
-23
-27
-28
-29
-29
-29
-30
-31
-32
-33
-32
-31
-31
-31
-31
-31
-32
-33
-32
-31
-30
-29
-30
-31
-31
-31
-30
-29
-29
-29
-29
-29
-30
-31
-30
-29
-28
-27
-28
-29
-31
-31
-31
-31
-31
-31
-31
-32
-33
-33
-33
-34
-35
-35
-35
-36
-37
-37
-37
-37
-37
-37
-37
-38
-38
-36
-35
-35
-35
-34
-31
-28
-26
-24
-23
-23
-23
-22
-21
-22
-25
-23
-32
-35
-34
-33
-33
-33
-34
-35
-39
-43
-41
-39
-41
-43
-43
-43
-42
-41
-41
-41
-41
-41
-40
-39
-39
-39
-39
-39
-39
-39
-38
-37
-36
-35
-36
-36
-34
-26
-18
1
20
23
25
28
30
7
-23
-107
-187
-251
-300
-295
-280
-236
-189
-136
-88
-51
-26
-17
-10
-7
-4
-2
-1
0
1
1
2
4
6
8
9
10
11
11
11
12
14
16
18
20
21
23
25
27
30
33
34
35
38
41
45
50
54
58
62
65
67
71
76
79
80
81
82
83
82
81
81
80
78
73
67
60
51
43
35
27
19
10
2
-5
-12
-15
-13
-22
-25
-26
-27
-29
-31
-31
-31
-31
-31
-32
-33
-34
-35
-34
-33
-33
-33
-32
-31
-32
-33
-32
-31
-31
-31
-31
-31
-31
-31
-30
-29
-29
-29
-29
-29
-30
-31
-30
-29
-29
-29
-29
-30
-31
-31
-31
-31
-31
-32
-33
-34
-35
-34
-33
-33
-33
-34
-35
-35
-35
-35
-35
-35
-35
-34
-33
-34
-35
-34
-30
-25
-22
-20
-20
-22
-22
-20
-19
-19
-21
-24
-29
-35
-33
-31
-30
-29
-30
-31
-36
-41
-40
-39
-38
-37
-38
-39
-40
-41
-40
-39
-38
-37
-37
-37
-37
-37
-36
-35
-35
-35
-34
-33
-34
-34
-32
-28
-24
-12
1
15
28
33
29
46
52
14
-29
-120
-208
-279
-333
-306
-273
-217
-161
-100
-52
-28
-11
-5
-1
0
1
1
2
4
6
9
11
12
13
13
14
16
18
20
21
21
21
22
25
28
30
32
34
35
37
39
42
45
49
53
57
61
64
68
73
77
81
84
87
89
91
94
97
99
99
98
96
92
87
82
75
68
60
49
38
27
17
9
1
-5
-10
-15
-20
-22
-25
-27
-29
-29
-29
-30
-31
-33
-35
-34
-33
-33
-33
-33
-33
-33
-33
-32
-31
-31
-31
-31
-31
-31
-31
-31
-31
-30
-29
-29
-29
-30
-31
-30
-29
-29
-29
-29
-29
-30
-31
-31
-29
-29
-30
-31
-32
-33
-33
-33
-32
-31
-32
-33
-34
-35
-35
-35
-34
-33
-34
-35
-35
-35
-35
-35
-34
-31
-27
-25
-24
-23
-23
-22
-20
-19
-19
-21
-24
-27
-30
-31
-31
-30
-29
-31
-33
-36
-39
-39
-39
-39
-39
-40
-41
-40
-39
-39
-39
-39
-39
-39
-39
-38
-37
-37
-37
-36
-35
-36
-37
-36
-34
-32
-31
-30
-25
-19
-3
14
24
32
41
50
38
22
-63
-148
-242
-325
-324
-316
-270
-221
-157
-100
-62
-32
-20
-10
-7
-5
-3
-1
1
3
6
7
8
10
13
15
16
17
18
19
19
20
22
24
26
27
28
29
30
33
31
40
43
46
49
53
57
62
67
71
75
78
81
84
88
92
95
97
99
99
99
99
97
93
89
83
77
68
59
49
39
30
21
13
6
-1
-9
-16
-18
-20
-22
-24
-27
-29
-30
-31
-31
-31
-31
-31
-31
-31
-32
-33
-33
-33
-32
-31
-30
-29
-30
-31
-31
-31
-31
-31
-30
-29
-30
-31
-30
-29
-28
-27
-28
-29
-30
-31
-30
-29
-29
-29
-29
-29
-31
-30
-29
-30
-31
-32
-33
-34
-35
-34
-33
-32
-31
-33
-35
-35
-35
-35
-35
-35
-35
-35
-35
-35
-34
-32
-30
-28
-25
-22
-21
-22
-23
-23
-22
-20
-20
-22
-27
-32
-33
-33
-32
-29
-31
-33
-38
-43
-41
-39
-40
-41
-40
-39
-40
-41
-41
-41
-40
-39
-39
-39
-39
-39
-38
-37
-36
-35
-35
-35
-35
-35
-34
-33
-32
-24
-15
0
17
24
30
40
50
37
21
-69
-159
-246
-323
-326
-322
-278
-231
-172
-118
-75
-40
-24
-12
-8
-5
-4
-3
-1
2
4
6
8
9
10
12
14
15
16
17
18
19
20
21
22
25
28
30
32
33
35
39
43
47
51
54
57
60
63
67
72
77
81
83
85
87
90
93
95
96
97
96
93
89
85
79
73
66
57
46
36
26
18
11
5
-2
-8
-14
-19
-24
-26
-25
-30
-31
-32
-33
-34
-35
-35
-35
-34
-33
-34
-35
-35
-35
-34
-33
-33
-33
-33
-33
-33
-33
-32
-31
-31
-31
-31
-31
-32
-33
-32
-31
-31
-31
-31
-31
-31
-31
-31
-31
-30
-31
-33
-34
-35
-35
-35
-35
-35
-35
-35
-36
-37
-37
-37
-37
-37
-36
-35
-37
-39
-38
-37
-37
-37
-37
-37
-37
-36
-32
-29
-25
-23
-23
-23
-24
-24
-22
-21
-21
-25
-30
-33
-37
-34
-31
-31
-31
-36
-41
-42
-43
-43
-43
-43
-43
-43
-43
-43
-43
-42
-41
-40
-39
-40
-41
-41
-41
-40
-39
-38
-37
-36
-35
-36
-36
-34
-27
-19
-3
13
17
20
26
21
25
14
-65
-144
-225
-296
-307
-311
-275
-236
-187
-138
-89
-49
-31
-17
-11
-7
-7
-7
-6
-4
-1
1
2
3
4
5
5
7
10
12
14
15
15
15
16
19
22
24
26
27
27
29
31
34
37
42
47
50
53
55
58
64
69
73
75
77
79
80
81
82
82
80
77
72
66
60
54
47
41
33
25
17
9
1
-4
-8
-12
-16
-20
-24
-27
-31
-32
-33
-33
-33
-34
-35
-36
-37
-37
-37
-36
-35
-35
-35
-35
-35
-35
-35
-35
-35
-34
-33
-34
-35
-35
-35
-34
-33
-32
-31
-32
-33
-33
-33
-33
-33
-33
-33
-33
-33
-33
-34
-33
-34
-35
-36
-37
-37
-37
-37
-37
-37
-37
-39
-41
-41
-41
-40
-39
-39
-39
-40
-41
-41
-41
-40
-39
-38
-37
-38
-37
-33
-29
-26
-25
-25
-25
-25
-25
-24
-25
-28
-34
-39
-38
-37
-36
-35
-35
-35
-41
-45
-45
-45
-45
-45
-45
-45
-45
-45
-44
-43
-42
-41
-40
-39
-40
-41
-41
-41
-40
-39
-38
-37
-37
-37
-38
-34
-28
-13
3
14
24
26
29
27
22
-34
-94
-178
-254
-290
-313
-283
-248
-201
-152
-101
-60
-39
-23
-16
-11
-9
-7
-6
-4
-2
0
3
5
6
7
8
9
10
11
12
14
16
17
17
17
18
20
19
26
29
30
31
33
35
40
45
49
53
55
57
60
64
69
74
78
81
82
83
83
83
84
85
84
81
77
71
64
56
49
41
33
25
17
8
-1
-7
-12
-15
-18
-22
-25
-28
-31
-32
-33
-32
-31
-32
-33
-34
-35
-34
-33
-32
-31
-32
-33
-34
-35
-34
-32
-30
-29
-29
-30
-32
-32
-30
-29
-29
-29
-29
-29
-30
-31
-30
-29
-28
-27
-28
-30
-33
-32
-31
-31
-31
-31
-31
-33
-35
-35
-35
-34
-33
-34
-35
-35
-35
-35
-35
-34
-33
-34
-35
-36
-37
-36
-35
-35
-35
-34
-33
-33
-30
-24
-23
-22
-21
-21
-21
-21
-21
-21
-23
-27
-30
-33
-33
-33
-31
-29
-30
-31
-36
-39
-39
-39
-39
-39
-38
-37
-38
-39
-39
-39
-39
-39
-38
-37
-37
-37
-37
-37
-36
-35
-35
-35
-34
-33
-34
-31
-26
-12
2
16
29
35
41
45
44
-1
-55
-148
-235
-300
-341
-309
-271
-220
-166
-105
-59
-33
-16
-9
-4
-2
-1
0
1
2
4
8
10
12
13
13
13
14
15
16
19
22
23
23
23
25
28
31
34
37
39
41
43
45
49
54
58
62
67
72
75
78
82
86
90
93
96
97
97
97
98
99
98
93
87
81
75
67
59
49
39
30
20
11
2
-3
1
-13
-17
-20
-23
-25
-27
-28
-29
-29
-29
-30
-31
-32
-33
-32
-31
-31
-31
-31
-31
-32
-33
-32
-31
-30
-29
-28
-28
-30
-31
-30
-29
-28
-27
-28
-29
-29
-29
-29
-29
-28
-27
-27
-28
-29
-30
-31
-30
-29
-30
-31
-32
-33
-32
-31
-32
-33
-32
-31
-33
-35
-34
-33
-33
-33
-34
-35
-35
-35
-34
-33
-33
-33
-33
-33
-34
-35
-34
-33
-32
-31
-32
-33
-33
-31
-29
-27
-25
-21
-17
-18
-19
-18
-17
-15
-13
-13
-15
-24
-29
-29
-29
-27
-25
-26
-29
-34
-37
-37
-37
-37
-37
-38
-39
-40
-40
-38
-37
-37
-37
-37
-37
-38
-39
-39
-35
-33
-33
-33
-34
-35
-34
-33
-27
-20
-6
8
20
31
39
46
49
26
-36
-115
-213
-283
-327
-327
-291
-241
-180
-123
-66
-37
-18
-10
-5
-3
-2
-1
-1
1
4
7
10
12
13
13
13
15
17
19
21
22
23
23
23
24
25
29
31
33
35
37
40
43
47
51
54
56
59
63
67
71
75
79
84
88
91
94
96
98
99
100
101
101
97
91
87
83
76
68
58
48
38
28
18
10
4
-2
-8
-14
-18
-21
-23
-25
-25
-25
-28
-29
-30
-31
-31
-31
-30
-29
-30
-31
-31
-31
-30
-29
-29
-29
-29
-29
-30
-31
-31
-29
-29
-29
-29
-29
-29
-28
-27
-27
-27
-28
-29
-30
-31
-30
-29
-29
-29
-30
-31
-32
-33
-33
-33
-33
-33
-33
-33
-34
-35
-35
-35
-35
-35
-35
-35
-36
-37
-37
-37
-36
-35
-35
-36
-37
-36
-35
-33
-31
-28
-25
-24
-23
-22
-21
-21
-21
-19
-18
-21
-24
-28
-31
-32
-32
-30
-29
-30
-33
-37
-39
-38
-37
-38
-40
-42
-43
-42
-41
-40
-39
-39
-39
-39
-38
-37
-36
-35
-35
-35
-35
-35
-34
-33
-32
-31
-30
-27
-20
-9
7
18
22
29
38
41
37
-7
-81
-164
-252
-298
-325
-308
-274
-220
-161
-107
-55
-33
-15
-11
-8
-6
-7
-1
1
3
5
6
7
8
9
12
15
15
15
15
16
19
21
22
23
24
25
26
28
31
34
37
40
42
45
48
51
55
60
65
70
74
76
78
82
86
88
90
92
93
92
91
88
85
80
74
66
57
48
39
31
23
15
7
0
-7
-15
-19
-21
-24
-26
-27
-28
-30
-32
-33
-33
-33
-33
-33
-34
-35
-35
-35
-35
-35
-34
-33
-33
-33
-35
-34
-33
-32
-31
-32
-33
-33
-33
-32
-31
-31
-31
-32
-33
-33
-33
-33
-33
-32
-31
-34
-35
-35
-35
-36
-37
-36
-35
-36
-37
-38
-39
-38
-37
-37
-37
-37
-37
-38
-39
-39
-38
-37
-38
-39
-39
-39
-38
-37
-37
-37
-35
-33
-30
-27
-26
-25
-25
-25
-24
-23
-24
-26
-28
-31
-35
-36
-34
-33
-34
-35
-36
-39
-42
-43
-42
-42
-44
-45
-44
-43
-42
-41
-41
-42
-43
-42
-41
-41
-41
-40
-39
-39
-39
-39
-39
-37
-35
-35
-35
-34
-29
-19
-5
11
20
22
25
29
22
6
-56
-140
-215
-287
-303
-303
-266
-221
-169
-116
-77
-39
-27
-15
-12
-9
-7
-5
-4
-3
-2
-1
2
5
6
7
8
9
9
9
11
13
14
15
16
17
17
18
21
24
27
30
32
35
38
41
44
48
52
56
60
63
66
69
67
75
77
78
79
78
77
77
77
75
72
66
59
52
45
37
28
19
10
2
-5
-10
-15
-19
-22
-24
-26
-28
-30
-32
-33
-33
-33
-33
-33
-34
-35
-35
-35
-34
-33
-33
-33
-33
-33
-33
-33
-33
-32
-31
-31
-31
-32
-33
-31
-29
-30
-31
-31
-31
-31
-31
-30
-29
-30
-31
-31
-31
-32
-33
-33
-33
-33
-33
-34
-35
-36
-37
-37
-37
-36
-35
-36
-37
-37
-37
-37
-36
-35
-36
-37
-38
-39
-38
-37
-36
-35
-36
-37
-35
-32
-28
-25
-24
-23
-26
-26
-24
-23
-23
-25
-29
-33
-36
-36
-34
-33
-33
-33
-34
-38
-42
-43
-42
-41
-41
-41
-41
-41
-41
-42
-43
-42
-41
-40
-39
-39
-39
-39
-39
-39
-39
-37
-35
-35
-35
-35
-35
-34
-29
-22
-10
7
17
23
29
35
34
30
-15
-70
-151
-237
-279
-316
-290
-258
-208
-158
-109
-62
-41
-23
-15
-9
-7
-5
-4
-3
-1
1
3
5
7
9
9
9
10
11
12
14
16
18
20
21
21
23
26
27
28
31
34
37
40
44
48
51
54
57
61
64
67
72
77
80
83
85
87
88
89
88
87
85
81
75
69
62
54
46
37
26
17
9
3
-3
-8
-13
-17
-21
-24
-26
-27
-28
-29
-30
-31
-32
-33
-33
-33
-33
-31
-31
-31
-31
-32
-33
-31
-29
-29
-29
-29
-29
-30
-31
-29
-27
-27
-27
-27
-27
-28
-29
-28
-27
-27
-27
-27
-27
-28
-29
-28
-27
-28
-29
-29
-30
-32
-33
-32
-31
-31
-32
-33
-34
-35
-34
-33
-33
-33
-34
-35
-35
-35
-35
-35
-34
-33
-33
-33
-32
-30
-26
-22
-20
-19
-20
-21
-20
-19
-19
-20
-22
-26
-30
-31
-31
-29
-26
-25
-26
-31
-36
-37
-37
-37
-37
-37
-37
-37
-37
-38
-39
-38
-37
-36
-35
-35
-35
-35
-35
-35
-35
-33
-31
-31
-31
-31
-30
-28
-22
-14
0
16
24
29
38
49
46
39
-23
-94
-188
-284
-307
-289
-283
-239
-179
-121
-77
-37
-23
-11
-7
-3
-1
1
2
3
5
8
11
13
14
15
15
16
18
19
20
22
24
25
26
28
30
32
34
36
38
40
42
46
50
54
58
63
67
70
73
78
83
86
89
92
95
97
99
99
99
98
96
92
87
79
72
65
57
48
38
28
19
10
4
-3
-8
-13
-18
-22
-25
-28
-29
-28
-27
-28
-29
-30
-31
-31
-31
-31
-31
-31
-31
-31
-31
-31
-30
-29
-29
-29
-29
-29
-29
-29
-29
-29
-28
-27
-27
-28
-30
-30
-28
-27
-27
-27
-27
-27
-28
-29
-29
-29
-29
-29
-30
-31
-31
-31
-31
-31
-31
-31
-31
-32
-33
-33
-33
-33
-33
-33
-33
-34
-35
-35
-35
-34
-33
-33
-33
-33
-33
-32
-30
-27
-24
-22
-21
-21
-20
-18
-17
-16
-16
-18
-23
-28
-29
-30
-30
-28
-27
-27
-31
-35
-36
-37
-36
-35
-36
-37
-38
-39
-38
-37
-37
-37
-36
-35
-36
-37
-35
-33
-32
-31
-32
-33
-33
-33
-32
-30
-28
-24
-19
-6
8
19
29
39
48
48
46
-14
-76
-169
-259
-295
-324
-288
-249
-191
-136
-86
-45
-26
-12
-7
-3
-2
-1
1
4
7
9
10
11
12
14
16
17
18
19
20
21
22
24
26
28
30
31
32
34
36
39
37
46
49
52
55
58
61
66
71
75
79
82
85
88
92
96
99
100
101
100
98
95
91
87
82
76
67
57
46
35
25
16
9
3
-4
-11
-16
-20
-22
-24
-25
-26
-28
-29
-30
-31
-31
-31
-31
-31
-31
-31
-32
-33
-32
-31
-31
-31
-31
-31
-32
-33
-32
-31
-30
-29
-30
-31
-31
-31
-30
-29
-30
-31
-30
-30
-32
-33
-32
-31
-31
-31
-32
-33
-35
-35
-35
-34
-33
-34
-35
-36
-37
-37
-37
-37
-37
-37
-37
-38
-39
-38
-37
-37
-37
-38
-39
-38
-37
-37
-36
-34
-32
-30
-28
-26
-25
-24
-23
-23
-22
-20
-20
-22
-25
-23
-32
-35
-32
-29
-31
-33
-35
-37
-39
-41
-41
-41
-42
-43
-43
-43
-41
-39
-40
-41
-41
-41
-40
-39
-39
-39
-38
-37
-37
-37
-37
-36
-34
-33
-33
-29
-24
-9
7
16
24
31
37
35
29
-35
-102
-193
-274
-308
-328
-293
-252
-195
-139
-86
-45
-26
-14
-10
-7
-5
-2
0
1
2
3
4
6
8
10
12
13
13
13
14
16
18
19
20
21
22
23
25
28
31
33
35
39
43
44
45
49
54
59
64
68
71
73
76
80
83
85
87
88
88
86
85
85
83
79
73
66
57
48
38
29
20
11
4
-2
-9
-16
-20
-17
-27
-29
-30
-31
-33
-35
-35
-35
-35
-35
-35
-35
-36
-37
-36
-35
-34
-33
-34
-35
-35
-35
-35
-35
-35
-35
-35
-35
-36
-37
-36
-35
-34
-33
-34
-35
-36
-37
-36
-35
-35
-36
-37
-38
-39
-39
-39
-39
-39
-39
-39
-40
-41
-41
-41
-41
-41
-41
-41
-42
-43
-42
-41
-41
-41
-41
-41
-41
-41
-40
-38
-36
-33
-30
-29
-29
-29
-28
-27
-26
-25
-25
-30
-37
-38
-39
-37
-35
-35
-35
-38
-41
-43
-45
-44
-43
-45
-47
-47
-47
-45
-43
-43
-43
-43
-43
-44
-45
-44
-43
-42
-41
-40
-39
-40
-40
-38
-37
-37
-34
-30
-18
-6
8
-5
23
23
25
24
-17
-65
-151
-229
-275
-308
-294
-271
-228
-182
-130
-85
-51
-27
-17
-11
-10
-8
-6
-4
-2
0
2
3
4
5
6
8
10
11
12
13
13
13
14
16
18
20
21
22
23
26
29
32
35
37
39
42
46
50
54
58
62
65
67
69
72
76
79
80
81
81
80
78
76
74
71
67
60
53
44
35
26
17
11
6
-1
-8
-13
-19
-21
-23
-25
-27
-28
-29
-31
-33
-33
-33
-32
-31
-32
-33
-33
-33
-33
-33
-32
-31
-31
-31
-31
-31
-31
-31
-30
-29
-28
-27
-28
-29
-29
-29
-29
-29
-29
-29
-29
-29
-29
-29
-29
-29
-29
-30
-31
-32
-33
-33
-33
-33
-33
-34
-35
-34
-33
-33
-33
-33
-33
-34
-35
-35
-35
-35
-35
-35
-35
-35
-35
-35
-33
-30
-27
-24
-23
-22
-21
-21
-20
-18
-18
-19
-25
-31
-32
-33
-30
-27
-28
-29
-32
-35
-37
-39
-38
-37
-37
-37
-38
-39
-38
-37
-36
-35
-35
-35
-35
-35
-35
-35
-34
-33
-33
-33
-33
-33
-32
-31
-30
-25
-20
-4
13
21
29
35
41
38
26
-36
-102
-189
-261
-288
-299
-270
-235
-188
-140
-90
-52
-29
-15
-8
-5
-4
-2
0
2
4
6
8
9
10
11
12
14
16
17
17
17
18
19
19
24
27
28
29
30
31
34
37
40
43
46
49
52
56
60
64
70
74
77
80
83
86
88
89
89
89
89
88
86
83
79
73
67
59
51
40
29
20
12
6
0
-7
-13
-16
-19
-21
-23
-23
-23
-24
-25
-27
-29
-29
-29
-29
-29
-29
-29
-30
-31
-30
-29
-28
-27
-27
-27
-28
-29
-28
-27
-26
-25
-25
-25
-26
-27
-26
-25
-25
-25
-25
-25
-27
-27
-27
-26
-25
-25
-25
-27
-29
-29
-29
-28
-27
-28
-29
-30
-31
-31
-31
-30
-29
-32
-33
-33
-33
-33
-33
-32
-31
-31
-31
-31
-29
-26
-22
-18
-17
-17
-17
-18
-18
-19
-16
-17
-22
-27
-29
-31
-28
-25
-25
-26
-31
-35
-36
-37
-36
-35
-35
-35
-35
-35
-35
-35
-35
-35
-34
-33
-33
-33
-33
-33
-32
-31
-30
-29
-29
-29
-30
-29
-26
-16
-6
10
25
29
33
44
51
33
3
-82
-168
-256
-319
-311
-292
-249
-200
-139
-88
-49
-22
-10
-2
0
2
4
5
6
8
10
13
16
17
17
17
18
19
20
22
24
26
28
29
29
31
33
36
39
41
43
45
47
50
54
59
63
66
70
74
78
82
86
90
93
96
97
98
99
100
101
101
99
95
88
81
74
67
58
49
39
28
19
10
4
9
-8
-13
-17
-21
-23
-25
-25
-25
-25
-25
-26
-27
-29
-31
-30
-29
-28
-27
-28
-29
-29
-29
-28
-27
-27
-27
-27
-27
-27
-27
-27
-27
-26
-25
-26
-27
-28
-29
-28
-27
-26
-26
-27
-28
-29
-28
-27
-27
-27
-28
-29
-30
-31
-31
-31
-31
-31
-31
-31
-32
-33
-33
-33
-32
-31
-32
-33
-34
-35
-34
-32
-30
-27
-24
-22
-20
-19
-19
-19
-18
-17
-16
-17
-21
-24
-27
-28
-29
-27
-25
-27
-29
-33
-37
-36
-35
-36
-37
-38
-39
-38
-37
-36
-35
-35
-35
-36
-37
-36
-35
-34
-33
-33
-33
-33
-33
-32
-31
-30
-29
-28
-23
-18
-2
-17
23
31
40
49
42
25
-47
-124
-218
-295
-313
-317
-279
-234
-175
-119
-71
-37
-20
-10
-5
-2
0
2
4
5
5
6
8
10
12
14
16
17
18
19
19
19
20
23
26
28
29
30
31
34
37
40
43
45
47
50
54
58
62
67
72
76
80
83
85
87
90
93
96
98
99
98
96
92
89
85
78
71
61
51
42
33
23
14
6
-2
-8
-15
-18
-21
-23
-25
-27
-29
-31
-33
-33
-33
-32
-31
-32
-33
-34
-35
-34
-33
-33
-33
-32
-31
-32
-33
-33
-33
-32
-31
-31
-31
-31
-31
-31
-31
-30
-29
-30
-31
-32
-33
-33
-32
-31
-31
-31
-32
-33
-34
-35
-34
-33
-34
-35
-36
-37
-37
-37
-37
-37
-38
-39
-39
-39
-38
-37
-37
-37
-38
-39
-38
-37
-37
-34
-30
-28
-26
-25
-26
-26
-24
-23
-22
-23
-25
-31
-37
-37
-37
-34
-31
-32
-34
-40
-45
-43
-41
-42
-43
-44
-45
-44
-43
-43
-42
-40
-39
-40
-41
-41
-41
-40
-39
-38
-37
-37
-37
-37
-37
-37
-36
-34
-28
-22
-7
9
15
21
28
34
25
5
-71
-149
-231
-296
-308
-306
-267
-221
-163
-110
-65
-34
-20
-12
-7
-5
-5
-4
-2
0
3
5
5
5
5
6
8
10
12
13
13
13
14
17
15
22
23
25
27
28
29
32
35
39
43
45
47
50
54
58
62
66
69
71
73
76
78
80
82
84
85
84
81
77
73
69
63
57
48
39
29
19
11
4
-1
-6
-12
-17
-21
-25
-27
-29
-30
-31
-31
-31
-33
-35
-35
-35
-34
-33
-34
-35
-35
-35
-34
-33
-32
-31
-31
-31
-32
-33
-33
-33
-32
-31
-31
-31
-32
-33
-32
-31
-31
-31
-31
-31
-33
-32
-31
-31
-31
-32
-33
-34
-35
-35
-35
-35
-35
-35
-35
-36
-37
-37
-37
-36
-35
-36
-37
-38
-39
-38
-37
-36
-35
-34
-32
-30
-28
-26
-24
-22
-21
-22
-23
-22
-23
-21
-30
-33
-34
-35
-33
-31
-31
-31
-37
-41
-41
-41
-41
-41
-41
-41
-41
-41
-41
-41
-41
-40
-38
-37
-37
-37
-38
-39
-39
-38
-36
-35
-35
-35
-35
-35
-34
-25
-16
0
16
21
25
27
29
22
7
-62
-132
-211
-277
-295
-301
-268
-231
-184
-137
-89
-53
-33
-18
-11
-6
-3
-1
-1
-1
0
2
4
6
8
10
12
13
12
12
14
15
16
18
20
21
21
23
25
27
29
32
35
37
39
43
47
50
53
55
58
62
66
70
74
77
79
82
83
83
83
83
82
80
77
73
66
59
51
43
35
27
18
10
3
-4
-8
-5
-16
-19
-21
-23
-26
-29
-29
-29
-29
-29
-29
-29
-30
-31
-30
-29
-28
-27
-28
-29
-29
-29
-28
-27
-27
-27
-27
-27
-27
-27
-26
-25
-25
-25
-25
-25
-25
-25
-25
-25
-25
-26
-27
-28
-29
-29
-29
-29
-29
-30
-31
-31
-31
-31
-31
-31
-31
-32
-33
-34
-35
-34
-33
-33
-33
-33
-33
-33
-33
-33
-32
-30
-26
-22
-21
-21
-21
-20
-18
-16
-16
-18
-22
-27
-30
-33
-30
-27
-27
-27
-29
-32
-37
-41
-39
-37
-37
-37
-39
-41
-39
-37
-36
-35
-35
-35
-36
-37
-36
-35
-34
-33
-33
-33
-33
-33
-32
-31
-30
-28
-26
-16
-6
11
-5
33
37
44
50
34
9
-68
-147
-236
-305
-306
-296
-254
-206
-145
-92
-51
-23
-13
-6
-3
-1
0
2
5
7
8
9
10
12
14
15
16
17
18
19
19
20
22
25
28
29
29
31
33
36
39
42
45
47
49
53
58
62
66
70
74
78
82
85
88
91
94
97
99
99
98
95
92
90
85
79
71
62
51
41
32
23
13
4
-2
-8
-13
-19
-21
-23
-24
-25
-27
-29
-30
-31
-30
-29
-29
-29
-30
-31
-31
-31
-31
-31
-30
-29
-30
-31
-30
-29
-29
-29
-28
-27
-28
-29
-28
-27
-27
-27
-27
-27
-27
-27
-28
-29
-29
-27
-27
-27
-27
-28
-29
-29
-29
-29
-29
-29
-29
-30
-31
-31
-31
-31
-31
-31
-31
-32
-33
-32
-31
-31
-31
-32
-33
-33
-32
-30
-26
-22
-20
-18
-18
-20
-21
-20
-18
-16
-17
-19
-24
-29
-30
-31
-28
-25
-26
-27
-31
-35
-37
-39
-38
-37
-37
-37
-38
-39
-38
-37
-36
-35
-35
-35
-35
-35
-35
-35
-34
-33
-32
-31
-32
-33
-32
-30
-28
-18
-8
8
25
31
37
47
53
12
-38
-134
-224
-291
-335
-307
-273
-222
-170
-112
-67
-39
-19
-10
-5
-2
-1
0
2
4
6
8
10
12
13
13
14
16
18
20
21
22
23
23
25
23
30
31
34
37
37
37
41
45
48
51
56
59
62
66
71
76
82
85
87
89
92
94
97
100
102
102
99
95
91
86
81
73
63
53
43
32
21
12
4
-1
-6
-11
-15
-20
-25
-26
-27
-28
-29
-29
-29
-30
-31
-31
-31
-30
-29
-30
-31
-31
-31
-31
-31
-30
-29
-29
-29
-29
-29
-29
-29
-28
-27
-28
-29
-29
-29
-28
-27
-27
-27
-28
-29
-29
-29
-29
-29
-29
-30
-31
-32
-33
-33
-33
-33
-33
-33
-33
-34
-35
-34
-33
-33
-33
-33
-34
-36
-37
-36
-35
-34
-33
-34
-35
-36
-36
-34
-32
-30
-26
-22
-21
-21
-21
-21
-19
-17
-18
-19
-23
-27
-30
-33
-30
-27
-29
-31
-32
-34
-37
-39
-37
-35
-36
-37
-38
-39
-39
-39
-38
-37
-37
-37
-38
-39
-38
-37
-36
-35
-35
-35
-36
-36
-34
-33
-32
-28
-25
-13
0
13
25
31
38
44
41
0
-55
-146
-230
-297
-333
-308
-274
-224
-170
-110
-65
-36
-20
-12
-8
-6
-4
-2
1
4
5
6
7
8
10
12
13
14
15
16
17
17
19
21
23
25
27
29
30
31
34
37
40
44
48
52
55
59
64
69
74
77
80
82
85
88
91
94
96
97
96
93
90
86
80
74
67
57
46
36
26
18
25
2
-5
-11
-17
-21
-25
-27
-29
-30
-31
-33
-35
-36
-37
-37
-37
-36
-35
-36
-37
-36
-35
-35
-35
-35
-35
-35
-35
-36
-37
-36
-35
-36
-37
-37
-37
-37
-37
-37
-37
-36
-36
-37
-38
-39
-38
-37
-37
-37
-38
-39
-40
-41
-40
-39
-39
-39
-39
-39
-41
-43
-42
-41
-40
-39
-40
-41
-42
-43
-43
-43
-42
-41
-42
-43
-44
-45
-44
-43
-43
-43
-43
-43
-43
-38
-33
-31
-29
-30
-31
-31
-31
-29
-27
-29
-32
-36
-39
-40
-41
-39
-37
-37
-38
-43
-45
-46
-47
-46
-45
-46
-47
-47
-47
-47
-47
-46
-45
-44
-43
-43
-43
-43
-43
-43
-42
-41
-40
-39
-40
-41
-40
-39
-33
-26
-12
1
10
18
21
23
24
4
-47
-114
-198
-259
-297
-302
-277
-241
-197
-149
-98
-65
-40
-27
-17
-13
-10
-9
-9
-7
-4
-2
0
2
3
3
3
4
5
8
11
13
15
15
15
17
19
21
23
24
26
29
32
35
39
44
48
51
54
57
60
64
67
71
74
76
77
77
79
82
83
82
79
76
70
63
58
53
45
36
27
18
9
0
-5
-10
-14
-18
-22
-26
-29
-31
-32
-33
-33
-33
-33
-34
-36
-37
-37
-36
-34
-33
-34
-35
-36
-36
-34
-33
-32
-31
-32
-33
-34
-35
-35
-32
-31
-31
-31
-32
-33
-32
-31
-31
-31
-31
-31
-33
-35
-34
-33
-33
-33
-34
-35
-35
-35
-36
-37
-36
-35
-35
-35
-36
-37
-37
-37
-37
-37
-37
-37
-38
-39
-38
-37
-37
-36
-35
-36
-37
-36
-35
-32
-29
-26
-23
-24
-25
-24
-23
-21
-19
-20
-23
-28
-31
-33
-34
-31
-29
-30
-33
-37
-39
-39
-39
-38
-37
-38
-39
-40
-41
-40
-39
-39
-39
-39
-39
-41
-39
-37
-36
-35
-35
-35
-36
-37
-36
-35
-34
-33
-31
-26
-17
-4
14
25
25
27
32
25
6
-46
-120
-193
-263
-287
-288
-260
-219
-169
-115
-76
-39
-24
-13
-10
-8
-5
-7
1
3
3
3
4
5
8
11
12
13
14
15
15
15
17
19
21
23
24
25
25
26
29
32
35
38
41
44
46
49
52
57
63
66
68
70
72
76
80
82
84
86
87
86
85
83
81
78
74
67
59
50
41
32
23
16
9
2
-5
-10
-14
-17
-20
-22
-24
-26
-27
-28
-29
-29
-29
-29
-29
-29
-29
-30
-31
-30
-29
-28
-27
-27
-27
-29
-29
-29
-28
-27
-28
-29
-28
-27
-26
-25
-25
-25
-25
-25
-26
-27
-27
-27
-26
-25
-26
-27
-28
-29
-29
-29
-29
-29
-29
-29
-30
-31
-31
-31
-30
-29
-30
-31
-32
-33
-33
-32
-31
-31
-31
-32
-33
-32
-31
-31
-31
-30
-29
-29
-28
-25
-22
-19
-17
-17
-17
-18
-18
-15
-14
-16
-20
-25
-28
-30
-29
-25
-23
-24
-28
-32
-33
-34
-35
-34
-33
-33
-34
-35
-35
-35
-34
-33
-32
-31
-32
-33
-33
-33
-31
-29
-29
-29
-29
-29
-28
-27
-27
-25
-20
-10
5
18
30
39
46
49
49
12
-39
-123
-215
-272
-322
-302
-270
-219
-167
-112
-57
-35
-13
-7
-1
2
5
4
3
7
11
12
13
15
17
18
19
20
21
23
25
26
27
28
29
30
32
34
36
38
39
40
44
48
50
52
57
62
65
68
74
69
85
89
91
93
96
99
101
103
103
103
102
100
94
87
81
74
66
57
45
35
24
16
10
4
-2
-8
-13
-17
-20
-21
-22
-23
-24
-25
-26
-27
-28
-29
-29
-29
-28
-28
-29
-29
-29
-28
-27
-27
-27
-27
-27
-28
-29
-27
-25
-26
-27
-26
-25
-26
-27
-26
-25
-25
-25
-26
-27
-27
-27
-27
-27
-27
-27
-27
-27
-28
-29
-28
-27
-27
-27
-27
-27
-29
-30
-31
-30
-29
-30
-31
-31
-31
-31
-31
-31
-31
-31
-31
-32
-33
-32
-31
-30
-29
-28
-26
-24
-22
-19
-17
-17
-17
-17
-17
-16
-15
-15
-18
-22
-25
-28
-28
-26
-25
-25
-28
-31
-32
-33
-34
-35
-34
-33
-33
-33
-33
-33
-34
-35
-34
-33
-32
-31
-31
-31
-31
-31
-30
-29
-28
-27
-27
-27
-27
-25
-21
-9
6
18
31
38
44
48
52
15
-26
-117
-209
-276
-337
-309
-277
-225
-172
-114
-64
-38
-17
-8
-1
1
3
4
5
5
6
9
12
15
17
17
17
17
18
22
23
24
25
25
27
30
31
32
36
40
41
42
44
47
50
53
57
61
66
71
75
79
83
88
92
95
96
98
101
103
102
101
101
99
94
87
79
70
61
52
43
33
24
15
6
0
-6
-9
-12
-16
-20
-23
-26
-27
-27
-28
-29
-29
-29
-30
-31
-31
-31
-30
-29
-28
-27
-28
-29
-29
-29
-28
-27
-27
-27
-28
-29
-28
-27
-27
-27
-27
-27
-28
-29
-29
-29
-28
-27
-28
-29
-30
-30
-28
-27
-28
-30
-31
-32
-33
-32
-31
-31
-31
-31
-31
-32
-33
-33
-33
-32
-31
-32
-33
-34
-35
-35
-35
-35
-35
-34
-33
-33
-33
-34
-35
-34
-33
-33
-33
-34
-35
-34
-32
-30
-29
-28
-26
-23
-20
-17
-17
-17
-15
-13
-14
-16
-22
-27
-29
-31
-28
-25
-27
-30
-33
-35
-35
-35
-36
-37
-38
-39
-38
-37
-37
-37
-37
-37
-37
-37
-36
-35
-34
-33
-33
-33
-33
-33
-33
-31
-31
-30
-29
-21
-11
8
23
29
34
43
41
9
-42
-131
-215
-291
-330
-317
-286
-237
-180
-116
-68
-35
-18
-12
-7
-4
-2
0
3
6
7
8
9
10
11
12
14
16
17
17
18
19
20
21
24
27
28
29
30
31
34
38
42
45
47
50
54
58
62
67
71
75
79
82
84
87
91
94
96
97
97
97
96
94
92
86
80
71
62
52
41
33
25
17
9
0
-7
-12
-17
-20
-23
-25
-27
-28
-29
-31
-33
-32
-31
-32
-33
-33
-34
-36
-37
-36
-35
-34
-33
-33
-33
-34
-35
-34
-33
-33
-33
-32
-31
-32
-33
-33
-31
-31
-31
-31
-32
-33
-33
-33
-32
-31
-32
-33
-33
-33
-33
-33
-33
-33
-33
-33
-34
-35
-35
-35
-36
-37
-36
-36
-38
-39
-38
-37
-36
-35
-35
-35
-36
-36
-34
-30
-26
-24
-23
-24
-25
-23
-21
-20
-19
-23
-27
-31
-35
-34
-33
-31
-29
-31
-35
-40
-43
-41
-39
-40
-41
-41
-41
-41
-41
-40
-39
-38
-37
-37
-37
-38
-39
-38
-37
-36
-35
-35
-35
-35
-34
-33
-32
-31
-26
-19
-4
11
21
29
31
33
30
4
-63
-138
-224
-283
-306
-302
-265
-219
-166
-117
-71
-42
-24
-13
-7
-5
-5
-3
0
2
4
6
8
9
9
9
9
13
15
16
17
17
17
19
21
23
25
27
29
30
32
35
37
39
42
45
48
51
55
59
63
67
70
73
75
76
79
83
86
88
88
86
84
82
78
74
69
64
55
47
37
27
20
13
7
1
-5
-10
-16
-21
-22
-23
-24
-25
-27
-29
-30
-31
-30
-29
-30
-31
-30
-30
-32
-32
-30
-29
-28
-27
-28
-29
-29
-29
-28
-27
-27
-27
-27
-27
-29
-28
-27
-27
-27
-27
-27
-27
-27
-27
-27
-27
-27
-27
-27
-29
-31
-30
-29
-30
-31
-30
-30
-32
-33
-33
-33
-32
-31
-31
-31
-32
-33
-33
-33
-32
-31
-32
-33
-33
-32
-33
-26
-23
-21
-19
-20
-21
-19
-17
-15
-13
-16
-20
-25
-29
-30
-30
-27
-25
-26
-29
-34
-37
-36
-35
-34
-34
-36
-37
-37
-37
-37
-37
-36
-35
-35
-35
-35
-35
-34
-33
-33
-32
-31
-32
-33
-31
-29
-27
-24
-16
-6
10
24
28
32
39
42
37
6
-63
-138
-221
-274
-298
-290
-254
-208
-156
-106
-57
-31
-16
-8
-3
-1
0
2
4
6
8
10
12
13
13
15
17
18
19
20
21
22
23
24
25
28
31
32
33
34
36
39
42
46
50
55
58
61
65
69
73
77
81
84
86
88
90
92
93
94
94
92
89
86
81
85
69
63
55
47
37
28
20
12
6
0
-6
-12
-16
-19
-21
-23
-23
-23
-25
-27
-28
-29
-29
-29
-28
-27
-28
-29
-30
-31
-30
-29
-28
-27
-27
-27
-28
-29
-28
-27
-26
-25
-25
-26
-27
-26
-25
-24
-23
-24
-25
-26
-27
-26
-25
-25
-25
-26
-27
-27
-27
-28
-29
-28
-27
-28
-29
-30
-31
-30
-29
-29
-29
-30
-31
-32
-33
-32
-31
-30
-29
-30
-31
-33
-31
-29
-27
-25
-21
-17
-17
-17
-17
-17
-15
-13
-15
-18
-23
-27
-28
-29
-27
-25
-25
-26
-29
-32
-34
-35
-34
-33
-34
-35
-35
-35
-35
-35
-34
-33
-33
-33
-34
-34
-35
-31
-31
-30
-29
-30
-31
-30
-29
-28
-27
-22
-16
-4
10
25
38
46
51
53
33
-15
-85
-177
-252
-314
-320
-288
-241
-186
-130
-74
-42
-18
-9
-2
-1
0
3
6
7
8
11
13
13
13
16
19
21
23
24
25
25
25
27
29
31
33
35
37
38
40
43
47
51
54
57
60
63
68
73
77
81
86
90
92
94
98
102
103
104
105
105
103
99
95
91
84
77
68
60
48
37
27
18
11
4
-1
-7
-13
-17
-18
-19
-21
-23
-24
-26
-28
-29
-29
-29
-28
-27
-27
-27
-28
-29
-28
-27
-26
-26
-28
-29
-28
-27
-27
-26
-25
-25
-25
-26
-27
-26
-25
-25
-25
-25
-25
-26
-27
-27
-27
-26
-25
-26
-27
-28
-29
-28
-27
-27
-27
-27
-28
-30
-31
-31
-31
-30
-29
-30
-31
-32
-33
-32
-31
-30
-30
-31
-31
-31
-28
-25
-21
-17
-17
-17
-18
-19
-17
-15
-15
-16
-20
-24
-28
-30
-27
-25
-25
-26
-29
-32
-35
-37
-36
-35
-35
-35
-36
-37
-37
-37
-36
-35
-34
-33
-34
-35
-35
-34
-33
-32
-31
-31
-31
-32
-33
-31
-29
-26
-20
-10
2
19
30
34
41
51
42
10
-53
-146
-231
-311
-327
-303
-262
-212
-153
-92
-55
-25
-13
-5
-2
0
1
2
3
3
7
9
11
13
15
17
18
19
20
21
23
25
25
25
27
29
31
33
35
37
40
42
45
48
51
56
61
65
68
71
75
80
84
88
92
94
96
98
100
101
102
100
97
92
87
80
72
62
52
41
31
21
12
4
-2
-9
-14
-18
-22
-25
-27
-28
-29
-30
-31
-32
-33
-34
-35
-34
-33
-33
-33
-34
-35
-35
-35
-34
-33
-32
-31
-32
-33
-33
-32
-31
-31
-31
-31
-31
-32
-33
-33
-33
-31
-29
-31
-33
-34
-35
-34
-33
-33
-33
-33
-33
-34
-35
-34
-33
-33
-34
-36
-37
-38
-39
-38
-37
-37
-37
-38
-39
-40
-41
-41
-39
-39
-39
-39
-38
-37
-34
-31
-28
-25
-26
-27
-27
-27
-25
-23
-23
-25
-31
-35
-38
-38
-35
-33
-34
-36
-39
-43
-46
-47
-46
-45
-45
-45
-45
-45
-46
-47
-46
-45
-44
-42
-41
-41
-41
-41
-41
-40
-39
-39
-39
-39
-39
-37
-34
-27
-18
-1
11
19
27
36
41
40
-4
-84
-177
-280
-323
-333
-302
-251
-189
-122
-79
-42
-25
-13
-10
-8
-7
-6
-5
-3
-1
1
3
5
6
7
8
9
10
11
12
13
15
17
17
17
19
22
25
27
28
30
33
36
39
44
49
53
57
61
64
68
72
77
82
84
86
87
88
89
89
91
91
87
83
77
70
62
54
46
37
27
17
8
-1
-7
-12
-18
-22
-25
-28
-31
-33
-33
-33
-33
-33
-34
-36
-38
-39
-38
-37
-37
-37
-37
-37
-37
-37
-36
-35
-34
-34
-35
-35
-35
-34
-33
-33
-33
-33
-33
-34
-35
-34
-33
-32
-31
-32
-33
-33
-33
-33
-33
-32
-32
-34
-35
-36
-37
-36
-35
-35
-35
-36
-37
-38
-39
-38
-37
-37
-37
-38
-39
-41
-39
-37
-36
-35
-33
-31
-29
-27
-26
-25
-24
-23
-22
-21
-22
-24
-28
-31
-33
-35
-34
-33
-34
-36
-38
-39
-40
-41
-41
-41
-42
-43
-42
-41
-41
-41
-41
-41
-42
-43
-43
-39
-37
-37
-37
-38
-39
-37
-35
-34
-33
-33
-33
-31
-25
-10
4
18
27
26
26
29
16
-14
-75
-161
-231
-292
-309
-302
-272
-233
-181
-125
-82
-42
-25
-13
-9
-6
-4
-2
1
3
4
5
7
9
11
13
13
13
14
15
16
17
19
21
22
23
24
25
27
31
35
38
40
42
44
48
53
57
61
65
68
70
72
75
78
82
86
87
86
85
85
84
83
78
73
66
58
49
40
32
23
15
7
0
-7
-13
-17
-19
-21
-22
-23
-26
-27
-28
-29
-28
-27
-27
-27
-28
-29
-29
-29
-29
-29
-28
-27
-27
-27
-28
-28
-29
-25
-25
-25
-25
-26
-27
-26
-25
-24
-23
-24
-25
-25
-25
-24
-23
-23
-23
-24
-25
-26
-27
-27
-27
-27
-27
-27
-27
-28
-29
-29
-29
-29
-29
-28
-28
-30
-31
-30
-29
-29
-29
-29
-28
-27
-24
-21
-18
-15
-15
-15
-16
-17
-14
-11
-13
-16
-21
-25
-27
-28
-25
-23
-23
-25
-29
-32
-34
-35
-34
-33
-33
-33
-33
-33
-34
-35
-35
-34
-32
-31
-31
-31
-33
-31
-29
-28
-27
-27
-27
-27
-27
-26
-24
-19
-12
2
15
27
36
39
42
46
28
-17
-89
-184
-252
-299
-298
-268
-225
-177
-127
-77
-46
-20
-9
-1
1
2
3
4
6
5
12
15
16
17
18
19
20
21
24
27
26
25
27
29
31
33
35
37
39
41
44
46
49
53
57
60
63
67
71
76
81
86
90
92
94
95
96
97
98
99
99
95
91
84
77
71
64
56
48
39
29
20
12
6
0
-4
-8
-12
-15
-17
-19
-20
-21
-21
-21
-22
-23
-24
-25
-24
-23
-23
-23
-23
-24
-26
-26
-24
-23
-22
-21
-21
-21
-23
-22
-21
-20
-19
-19
-19
-20
-21
-20
-19
-19
-19
-19
-19
-20
-21
-21
-21
-21
-21
-22
-23
-24
-25
-25
-25
-25
-25
-25
-25
-26
-27
-27
-26
-24
-24
-26
-27
-27
-27
-27
-22
-19
-16
-13
-14
-15
-14
-13
-11
-9
-10
-12
-17
-21
-23
-24
-21
-19
-20
-22
-27
-29
-30
-31
-30
-29
-30
-31
-32
-33
-32
-31
-30
-29
-29
-29
-30
-30
-28
-27
-26
-25
-25
-26
-27
-25
-23
-22
-20
-13
-4
14
28
34
41
49
55
56
41
1
-57
-138
-216
-292
-317
-297
-262
-216
-160
-99
-56
-22
-7
1
3
4
6
8
10
12
14
16
17
17
19
21
23
25
25
25
25
25
28
31
32
33
35
37
39
41
43
46
50
54
57
60
62
65
69
74
79
83
87
90
92
96
100
102
104
105
106
105
102
99
101
88
81
73
64
52
40
32
24
16
8
2
-4
-9
-14
-17
-19
-20
-21
-23
-25
-28
-29
-28
-27
-26
-25
-26
-27
-28
-29
-28
-27
-27
-27
-26
-25
-26
-27
-27
-27
-26
-25
-25
-26
-27
-26
-25
-24
-23
-24
-25
-26
-27
-26
-25
-25
-25
-26
-27
-28
-29
-29
-29
-28
-27
-28
-29
-30
-31
-30
-29
-30
-31
-32
-33
-34
-35
-34
-33
-32
-31
-31
-30
-27
-23
-19
-18
-17
-18
-19
-18
-17
-18
-20
-24
-27
-30
-33
-31
-29
-28
-29
-34
-37
-38
-39
-39
-38
-36
-35
-35
-35
-36
-37
-37
-36
-34
-33
-33
-33
-33
-33
-33
-33
-33
-31
-31
-31
-31
-30
-28
-20
-10
6
20
26
33
41
46
42
13
-58
-139
-235
-299
-327
-319
-275
-221
-159
-107
-61
-35
-18
-9
-3
-1
0
1
2
4
6
8
10
12
14
16
17
17
17
19
21
22
23
24
25
25
26
30
33
35
38
41
43
45
48
52
57
62
67
71
74
76
79
83
87
91
94
96
97
98
99
99
97
94
89
84
75
65
57
49
38
26
17
8
-1
-9
-13
-17
-19
-21
-24
-27
-29
-31
-32
-33
-33
-33
-33
-34
-36
-37
-36
-35
-35
-35
-34
-33
-33
-33
-34
-35
-34
-33
-33
-33
-34
-35
-35
-32
-31
-31
-31
-32
-33
-33
-33
-33
-33
-33
-33
-34
-35
-35
-35
-35
-35
-35
-35
-38
-39
-38
-37
-37
-37
-38
-39
-40
-41
-40
-39
-38
-37
-38
-39
-39
-36
-32
-29
-26
-25
-25
-26
-27
-25
-23
-24
-25
-31
-35
-37
-39
-36
-33
-34
-36
-40
-43
-44
-45
-44
-43
-43
-43
-44
-45
-45
-45
-44
-43
-42
-41
-41
-41
-41
-41
-40
-39
-39
-39
-38
-37
-39
-37
-35
-25
-14
2
15
18
22
30
35
23
-10
-95
-179
-262
-314
-317
-300
-256
-205
-147
-98
-58
-33
-19
-11
-7
-5
-4
-3
-2
0
2
5
8
9
9
9
9
10
9
13
13
15
17
18
19
21
23
25
27
28
29
32
36
39
42
48
52
55
58
61
65
70
74
77
80
82
83
84
86
88
88
86
82
78
72
66
60
54
45
36
24
13
6
-1
-6
-11
-15
-19
-22
-25
-28
-31
-31
-31
-31
-31
-32
-33
-34
-35
-35
-35
-34
-33
-33
-33
-34
-35
-34
-33
-33
-33
-32
-31
-31
-31
-31
-31
-30
-29
-30
-31
-31
-31
-31
-30
-29
-30
-31
-32
-33
-32
-31
-32
-33
-33
-33
-35
-37
-36
-35
-34
-33
-36
-37
-37
-37
-37
-37
-37
-37
-36
-35
-35
-35
-34
-31
-28
-26
-24
-23
-24
-25
-25
-21
-19
-22
-25
-30
-35
-34
-33
-31
-29
-31
-34
-39
-43
-41
-39
-40
-41
-41
-41
-41
-41
-41
-41
-40
-39
-39
-39
-39
-39
-38
-37
-36
-35
-35
-35
-36
-36
-34
-31
-28
-17
-7
8
23
24
25
31
34
13
-21
-106
-187
-257
-304
-299
-280
-237
-190
-137
-90
-52
-27
-15
-8
-6
-5
-4
-2
2
3
4
6
8
9
9
11
14
15
16
17
17
17
19
21
23
24
25
27
29
31
33
37
41
43
46
50
54
57
60
64
68
71
74
79
81
82
84
86
88
90
90
88
84
79
73
67
61
54
46
36
26
16
9
15
-3
-7
-12
-17
-21
-25
-25
-25
-27
-29
-29
-29
-30
-31
-31
-31
-30
-29
-29
-29
-30
-31
-30
-29
-28
-27
-28
-29
-29
-29
-28
-27
-27
-27
-27
-27
-27
-27
-27
-27
-26
-26
-27
-28
-29
-28
-27
-27
-27
-29
-31
-31
-31
-32
-33
-32
-31
-31
-31
-32
-33
-33
-33
-32
-31
-32
-33
-34
-34
-32
-31
-30
-27
-24
-23
-22
-21
-21
-20
-18
-17
-17
-20
-25
-29
-33
-31
-29
-28
-27
-30
-33
-36
-39
-38
-37
-38
-39
-39
-39
-39
-39
-38
-37
-37
-37
-37
-37
-36
-35
-34
-33
-33
-33
-33
-33
-32
-31
-30
-25
-20
-7
6
18
7
38
45
48
48
6
-43
-136
-223
-287
-331
-302
-267
-213
-158
-100
-55
-31
-15
-9
-5
-2
-1
0
3
7
9
10
11
11
11
12
15
18
19
20
21
21
22
24
26
28
31
33
34
35
38
41
44
47
51
55
57
59
62
67
74
80
83
86
89
92
95
98
100
101
100
98
95
91
87
81
75
66
56
45
35
27
19
10
2
-3
-8
-13
-19
-21
-23
-24
-25
-26
-27
-28
-29
-29
-29
-29
-29
-30
-31
-31
-31
-31
-31
-30
-29
-29
-29
-29
-29
-28
-27
-27
-27
-28
-29
-29
-29
-28
-27
-26
-25
-26
-27
-26
-25
-25
-27
-27
-27
-27
-28
-29
-29
-29
-29
-29
-30
-31
-32
-33
-32
-31
-31
-31
-32
-33
-33
-33
-33
-32
-29
-26
-24
-22
-20
-19
-19
-19
-18
-17
-17
-20
-24
-27
-30
-31
-30
-28
-27
-29
-31
-35
-39
-38
-37
-37
-37
-38
-39
-38
-37
-36
-35
-35
-35
-36
-37
-37
-37
-36
-35
-34
-33
-34
-35
-34
-32
-30
-27
-24
-14
-2
12
27
34
40
47
54
10
-38
-132
-224
-287
-340
-309
-275
-223
-170
-114
-65
-37
-15
-8
-3
-2
-1
1
4
7
9
10
11
12
14
16
17
18
19
20
21
22
24
26
27
28
30
32
33
33
36
33
44
47
51
55
59
63
66
70
76
81
84
87
89
92
95
97
99
101
100
98
93
89
85
80
74
65
55
45
35
25
16
8
1
-5
-12
-17
-22
-23
-23
-24
-26
-28
-29
-30
-31
-31
-31
-31
-31
-31
-31
-32
-33
-33
-33
-33
-33
-33
-33
-33
-33
-32
-31
-31
-31
-31
-31
-32
-33
-32
-31
-31
-31
-31
-31
-32
-33
-32
-31
-31
-31
-32
-34
-37
-36
-35
-35
-35
-36
-37
-37
-37
-37
-37
-37
-37
-38
-39
-39
-39
-39
-39
-37
-35
-35
-34
-32
-30
-27
-25
-24
-23
-24
-25
-24
-23
-23
-25
-28
-32
-36
-37
-36
-35
-35
-34
-35
-39
-43
-43
-43
-43
-43
-43
-43
-43
-43
-44
-45
-43
-41
-41
-41
-41
-41
-41
-41
-40
-38
-36
-35
-36
-37
-37
-33
-27
-15
0
10
19
26
32
34
36
-25
-91
-184
-276
-309
-339
-302
-263
-207
-152
-99
-53
-35
-20
-14
-9
-8
-7
-6
-5
-3
-1
1
4
6
7
8
9
9
10
12
13
14
15
16
17
17
20
24
26
28
30
32
35
39
42
45
49
53
57
61
63
66
71
75
78
81
83
85
84
83
84
84
81
77
72
65
57
49
41
32
24
16
8
0
-9
-14
-18
-21
-24
-27
-30
-32
-34
-35
-35
-35
-35
-37
-39
-40
-41
-40
-39
-38
-37
-36
-35
-36
-37
-36
-35
-35
-35
-35
-35
-36
-37
-36
-35
-34
-33
-34
-35
-35
-35
-35
-35
-34
-33
-34
-35
-36
-37
-37
-37
-36
-36
-37
-38
-39
-39
-39
-38
-37
-38
-39
-40
-41
-40
-39
-39
-39
-38
-37
-37
-36
-32
-28
-26
-25
-25
-25
-24
-23
-23
-25
-29
-34
-38
-38
-36
-35
-34
-34
-36
-40
-44
-45
-43
-43
-43
-43
-43
-43
-43
-43
-43
-42
-41
-40
-39
-39
-39
-39
-39
-38
-37
-36
-35
-35
-35
-35
-31
-24
-11
5
15
21
23
24
25
26
-11
-58
-138
-223
-271
-316
-298
-319
-229
-183
-129
-77
-49
-24
-16
-9
-7
-5
-4
-3
-2
-1
1
3
5
7
9
11
10
10
12
13
14
15
16
17
18
20
22
24
26
28
30
32
34
37
40
44
48
52
55
58
61
63
65
70
75
77
79
80
81
81
81
80
78
75
71
65
58
50
42
35
28
20
13
4
-2
-9
-13
-16
-19
-22
-24
-26
-27
-28
-29
-29
