7
12
13
15
17
15
13
13
13
14
15
15
15
14
13
13
13
13
13
12
11
8
6
3
0
-2
-4
-6
-8
-10
-12
-14
-16
-18
-19
-18
-17
-17
-17
-18
-19
-18
-17
-17
-17
-17
-16
-15
-15
-15
-15
-15
-15
-15
-14
-13
-12
-11
-11
-11
-13
-15
-15
-15
-14
-13
-12
-12
-14
-15
-15
-15
-15
-14
-12
-12
-14
-15
-16
-17
-17
-17
-16
-15
-15
-16
-17
-16
-15
-12
-9
-7
-5
-5
-5
-4
-3
-2
-1
1
4
7
9
10
11
10
7
3
-1
-7
-10
-13
-16
-18
-19
-18
-17
-18
-19
-19
-19
-20
-21
-21
-21
-21
-23
-23
-22
-21
-21
-21
-19
-17
-18
-19
-18
-17
-16
-15
-16
-14
-5
15
50
108
192
282
377
347
218
70
-91
-145
-141
-108
-63
-39
-23
-18
-16
-15
-16
-17
-17
-17
-16
-16
-17
-17
-17
-15
-13
-14
-15
-14
-13
-12
-11
-10
-9
-8
-7
-7
-7
-7
-7
-6
-4
-2
-1
0
1
1
1
2
5
8
9
10
11
11
11
12
13
14
17
20
21
21
22
23
24
25
24
23
23
23
23
23
23
23
23
23
22
21
20
18
14
10
7
3
-1
-4
-6
-8
-10
-11
-12
-14
-16
-17
-17
-17
-17
-17
-16
-15
-16
-17
-17
-18
-19
-18
-17
-17
-17
-16
-15
-15
-15
-15
-15
-16
-17
-16
-15
-15
-15
-15
-15
-16
-17
-17
-17
-18
-19
-18
-17
-18
-19
-20
-21
-21
-21
-21
-21
-20
-19
-19
-19
-20
-21
-21
-21
-21
-20
-19
-17
-15
-13
-11
-11
-11
-8
-5
-5
-5
-4
-2
1
3
4
5
6
5
1
-4
-9
-12
-14
-17
-20
-21
-21
-21
-22
-23
-24
-25
-25
-25
-25
-25
-27
-28
-29
-28
-27
-26
-25
-26
-27
-25
-23
-23
-23
-21
-19
-20
-21
-21
-13
6
44
102
187
298
332
310
181
-11
-105
-152
-137
-97
-65
-35
-25
-18
-18
-20
-21
-21
-21
-21
-21
-21
-20
-19
-20
-21
-19
-17
-16
-15
-13
-11
-12
-13
-13
-13
-13
-13
-11
-9
-8
-7
-7
-7
-6
-4
-2
-1
0
1
2
3
3
4
6
7
8
9
10
11
12
13
13
14
15
15
15
16
17
17
17
16
15
14
13
14
15
15
14
11
8
5
2
-1
-4
-6
-8
-10
-12
-14
-16
-18
-20
-22
-23
-22
-21
-21
-21
-22
-23
-23
-23
-23
-22
-21
-21
-21
-21
-21
-22
-23
-22
-21
-22
-23
-22
-21
-22
-23
-22
-21
-22
-23
-23
-23
-23
-23
-24
-25
-25
-25
-24
-23
-23
-24
-26
-27
-27
-27
-27
-27
-27
-27
-27
-27
-29
-27
-25
-26
-27
-27
-27
-25
-23
-20
-17
-17
-17
-16
-15
-16
-16
-12
-8
-5
-3
-3
-1
3
2
-3
-7
-11
-16
-21
-25
-28
-29
-29
-29
-29
-29
-30
-31
-30
-30
-31
-33
-35
-34
-33
-34
-35
-34
-33
-33
-33
-31
-29
-29
-29
-28
-27
-27
-27
-29
-25
-12
17
59
132
225
302
369
254
53
-64
-151
-154
-131
-98
-62
-46
-33
-30
-28
-27
-25
-26
-27
-26
-25
-25
-25
-24
-23
-23
-23
-23
-23
-22
-21
-21
-21
-19
-17
-15
-13
-14
-15
-14
-13
-12
-11
-12
-11
-8
-7
-6
-5
-5
-4
-2
-1
0
1
1
2
1
6
7
7
7
7
7
8
9
8
7
7
7
5
3
4
5
4
3
3
2
-1
-4
-6
-8
-11
-13
-14
-16
-18
-20
-22
-23
-24
-25
-26
-27
-27
-27
-27
-27
-26
-25
-25
-25
-25
-24
-23
-24
-25
-24
-23
-24
-25
-24
-23
-22
-21
-22
-23
-22
-21
-21
-21
-22
-23
-23
-23
-24
-25
-26
-27
-26
-25
-24
-24
-26
-27
-26
-25
-26
-27
-26
-25
-27
-26
-25
-22
-19
-17
-15
-15
-15
-14
-13
-12
-10
-6
-3
-1
1
2
3
2
0
-5
-9
-13
-16
-19
-22
-25
-27
-26
-25
-25
-25
-26
-27
-27
-27
-27
-27
-28
-29
-29
-29
-29
-28
-27
-26
-25
-25
-25
-23
-21
-19
-18
-22
-22
-12
7
40
96
184
274
367
324
150
8
-109
-148
-136
-105
-64
-41
-25
-20
-18
-17
-17
-17
-17
-17
-17
-17
-16
-15
-15
-14
-13
-12
-11
-11
-11
-9
-7
-7
-7
-7
-7
-5
-3
-3
-3
-2
-1
-1
0
2
4
6
7
7
7
8
9
10
13
16
17
17
17
18
19
19
19
20
21
21
22
23
23
23
22
21
21
21
21
21
19
17
17
16
13
11
9
6
3
0
-3
-6
-8
-9
-10
-11
-12
-13
-13
-13
-14
-15
-14
-13
-13
-13
-13
-13
-14
-15
-15
-13
-13
-12
-11
-12
-13
-13
-13
-12
-11
-9
-7
-9
-11
-11
-11
-12
-13
-12
-11
-11
-11
-12
-13
-13
-13
-13
-13
-13
-13
-14
-15
-16
-17
-16
-15
-15
-15
-15
-15
-14
-13
-13
-12
-11
-8
-5
-5
-5
-2
1
1
1
1
2
6
9
10
11
11
9
4
-1
-5
-8
-10
-12
-15
-17
-18
-19
-19
-19
-19
-19
-20
-21
-21
-22
-24
-24
-22
-21
-21
-21
-21
-20
-19
-18
-17
-16
-15
-17
-18
-14
-5
18
54
116
201
318
350
268
142
-31
-122
-139
-120
-73
-44
-26
-18
-16
-15
-15
-15
-15
-15
-15
-15
-15
-15
-15
-15
-15
-14
-13
-12
-11
-11
-11
-10
-9
-8
-7
-7
-7
-6
-5
-5
-5
-3
-1
1
3
3
3
3
4
6
8
10
11
12
13
14
15
15
17
20
21
21
21
22
23
22
22
23
23
23
23
23
23
23
22
21
21
21
19
16
12
8
5
2
-1
-4
-7
-10
-12
-13
-14
-16
-18
-19
-18
-17
-17
-17
-17
-17
-18
-19
-19
-19
-19
-19
-18
-18
-21
-20
-19
-18
-17
-16
-15
-16
-17
-18
-19
-20
-21
-19
-17
-18
-19
-20
-21
-21
-21
-20
-19
-20
-21
-22
-23
-24
-25
-24
-23
-23
-23
-24
-25
-24
-23
-24
-25
-25
-25
-25
-24
-25
-24
-23
-22
-21
-19
-17
-15
-13
-11
-9
-11
-13
-11
-8
-5
-3
-1
1
4
3
-1
-5
-11
-14
-17
-21
-25
-27
-28
-29
-29
-29
-29
-29
-29
-29
-29
-30
-32
-32
-31
-32
-33
-33
-33
-32
-31
-29
-27
-27
-27
-27
-27
-28
-27
-21
-6
21
73
154
247
351
331
205
63
-90
-148
-155
-127
-83
-56
-36
-30
-28
-27
-28
-29
-30
-30
-28
-27
-29
-28
-27
-27
-27
-25
-23
-24
-25
-24
-23
-24
-25
-23
-21
-21
-21
-20
-19
-18
-17
-16
-15
-14
-13
-13
-13
-14
-13
-10
-9
-8
-6
-4
-3
-2
-1
0
1
1
1
1
3
3
4
5
4
3
3
3
4
5
4
3
2
1
1
0
-3
-5
-5
-6
-9
-13
-17
-20
-22
-24
-26
-28
-30
-31
-32
-34
-36
-37
-36
-35
-35
-35
-35
-35
-34
-33
-33
-34
-35
-36
-37
-36
-35
-33
-31
-33
-35
-35
-35
-33
-31
-31
-31
-32
-33
-33
-33
-34
-35
-35
-35
-35
-35
-35
-36
-38
-39
-38
-37
-37
-37
-37
-37
-37
-37
-36
-36
-39
-37
-35
-32
-29
-28
-27
-27
-27
-26
-25
-24
-22
-18
-15
-14
-12
-9
-7
-9
-13
-18
-23
-28
-32
-35
-38
-40
-41
-41
-41
-41
-41
-41
-41
-42
-43
-44
-45
-44
-43
-43
-44
-45
-44
-43
-44
-45
-42
-39
-39
-39
-37
-36
-40
-40
-29
-10
22
76
161
250
343
303
137
-4
-124
-169
-165
-138
-99
-73
-53
-45
-42
-39
-36
-35
-36
-37
-38
-39
-38
-34
-31
-32
-33
-32
-31
-32
-33
-30
-27
-29
-31
-29
-27
-26
-25
-25
-25
-24
-23
-22
-21
-21
-20
-18
-17
-17
-17
-16
-14
-12
-11
-10
-9
-9
-8
-6
-5
-5
-4
-2
-1
-3
-4
-5
-4
-3
-3
-3
-5
-7
-8
-9
-8
-7
-7
-8
-11
-13
-15
-17
-19
-21
-24
-26
-29
-31
-32
-33
-33
-33
-34
-35
-35
-35
-34
-33
-33
-33
-33
-33
-33
-33
-33
-32
-31
-30
-29
-29
-29
-30
-31
-31
-31
-30
-29
-30
-31
-31
-31
-31
-31
-30
-29
-30
-31
-31
-31
-32
-33
-32
-31
-32
-33
-32
-31
-32
-33
-32
-31
-32
-31
-28
-26
-24
-22
-21
-20
-19
-17
-15
-13
-11
-8
-5
-4
-3
-4
-6
-10
-14
-17
-21
-26
-29
-30
-31
-32
-33
-32
-32
-34
-35
-35
-35
-35
-35
-35
-35
-35
-35
-35
-35
-35
-34
-32
-31
-31
-30
-29
-27
-25
-27
-29
-24
-13
20
65
148
238
345
358
193
40
-91
-162
-154
-129
-86
-56
-37
-29
-28
-27
-28
-29
-28
-27
-26
-25
-25
-25
-24
-23
-23
-23
-23
-23
-23
-20
-19
-18
-17
-17
-17
-16
-15
-13
-11
-10
-9
-9
-9
-8
-7
-6
-5
-3
-1
0
1
2
3
4
6
8
9
10
11
12
13
14
15
16
17
17
17
16
16
18
18
17
16
15
13
11
9
7
5
3
0
-4
-8
-11
-13
-15
-17
-19
-20
-21
-22
-23
-24
-25
-25
-25
-24
-23
-23
-23
-23
-23
-23
-23
-23
-23
-23
-23
-22
-21
-21
-21
-21
-21
-21
-20
-19
-19
-19
-19
-19
-19
-19
-20
-21
-21
-21
-21
-21
-22
-23
-23
-23
-23
-23
-24
-25
-25
-25
-25
-25
-24
-23
-23
-23
-23
-23
-23
-23
-23
-20
-16
-15
-15
-13
-13
-12
-11
-9
-7
-5
-3
0
3
4
5
2
-2
-5
-8
-12
-16
-19
-22
-25
-27
-27
-27
-26
-25
-26
-28
-30
-31
-30
-29
-30
-30
-28
-28
-30
-31
-31
-30
-28
-26
-25
-24
-23
-24
-25
-24
-20
-1
28
88
162
272
342
319
231
29
-106
-145
-148
-105
-70
-44
-29
-24
-21
-22
-23
-23
-23
-23
-23
-22
-21
-22
-22
-20
-19
-19
-19
-18
-17
-19
-18
-17
-16
-15
-13
-11
-12
-13
-12
-11
-10
-9
-7
-5
-4
-3
-3
-3
-1
1
2
4
6
7
8
9
10
12
14
15
15
15
16
17
18
19
19
19
19
19
19
19
19
19
19
18
17
14
11
9
7
4
0
-4
-8
-11
-13
-15
-17
-17
-18
-21
-23
-24
-24
-22
-21
-21
-22
-24
-25
-24
-23
-23
-23
-23
-23
-23
-23
-23
-23
-22
-21
-21
-22
-23
-23
-23
-23
-23
-22
-21
-22
-23
-22
-21
-21
-21
-22
-23
-23
-23
-23
-24
-26
-27
-26
-25
-26
-27
-26
-25
-26
-27
-27
-27
-26
-25
-25
-24
-22
-20
-18
-17
-15
-12
-9
-10
-11
-9
-7
-5
-3
-2
-1
1
2
-4
-10
-14
-18
-22
-26
-29
-31
-30
-29
-29
-29
-30
-32
-34
-35
-34
-33
-34
-35
-35
-35
-35
-35
-34
-33
-34
-34
-35
-30
-29
-29
-29
-27
-22
1
34
103
185
307
359
229
92
-58
-153
-153
-134
-87
-54
-39
-31
-30
-29
-29
-29
-30
-31
-31
-31
-31
-29
-26
-25
-25
-25
-26
-27
-26
-25
-24
-23
-23
-22
-21
-21
-21
-20
-19
-18
-17
-15
-13
-13
-13
-12
-11
-10
-9
-7
-5
-5
-5
-4
-2
0
1
2
3
2
2
4
5
6
7
8
9
8
7
6
5
6
7
7
6
5
5
5
2
-1
-4
-7
-10
-13
-16
-19
-21
-23
-25
-27
-28
-29
-29
-29
-32
-33
-33
-33
-33
-33
-33
-33
-32
-31
-32
-33
-33
-32
-30
-29
-28
-27
-28
-29
-29
-30
-31
-31
-31
-30
-29
-29
-29
-30
-31
-30
-29
-30
-31
-30
-29
-31
-33
-33
-33
-33
-33
-34
-35
-34
-33
-33
-33
-32
-29
-26
-25
-24
-22
-20
-19
-19
-19
-19
-15
-10
-8
-7
-5
-3
-8
-13
-17
-21
-24
-27
-31
-35
-36
-37
-36
-35
-36
-37
-37
-37
-38
-39
-39
-39
-39
-39
-39
-39
-39
-37
-34
-33
-34
-35
-36
-35
-32
-31
-31
-31
-32
-21
-7
37
85
187
282
313
308
109
-64
-131
-175
-147
-117
-82
-55
-42
-33
-32
-31
-30
-29
-28
-27
-27
-27
-27
-27
-27
-27
-26
-25
-24
-23
-23
-23
-22
-20
-18
-17
-18
-19
-19
-17
-17
-14
-11
-10
-9
-8
-7
-6
-5
-4
-3
-2
-1
-1
-1
0
1
3
5
6
8
10
11
12
13
13
13
13
13
13
13
12
11
11
11
11
11
11
11
10
9
9
6
3
0
-3
-4
-5
-7
-9
-12
-15
-16
-17
-17
-17
-16
-15
-16
-17
-16
-15
-16
-17
-16
-15
-15
-15
-14
-13
-13
-13
-13
-13
-12
-11
-11
-11
-12
-13
-12
-11
-11
-12
-13
-12
-11
-11
-11
-12
-13
-14
-15
-15
-15
-14
-13
-14
-15
-16
-17
-16
-15
-15
-15
-15
-13
-9
-7
-6
-5
-4
-3
-2
-1
0
5
10
11
11
12
14
13
15
4
-1
-4
-7
-10
-13
-15
-17
-17
-17
-17
-17
-17
-17
-18
-19
-20
-21
-20
-19
-19
-19
-19
-19
-18
-17
-17
-17
-16
-14
-12
-11
-11
-12
-14
-2
15
53
94
190
289
350
403
210
24
-73
-156
-132
-105
-65
-31
-21
-13
-13
-13
-12
-11
-11
-11
-10
-9
-10
-11
-10
-8
-6
-5
-6
-7
-7
-7
-6
-4
-2
-1
-2
-3
-2
-1
-1
1
4
5
7
7
7
9
11
12
13
14
15
15
15
16
17
20
23
24
25
26
27
29
31
31
31
31
31
32
33
32
31
32
33
32
31
31
31
31
29
26
21
16
13
15
6
3
2
1
-2
-5
-7
-9
-9
-9
-8
-7
-8
-9
-9
-9
-10
-10
-7
-5
-6
-7
-7
-7
-7
-7
-6
-5
-6
-7
-6
-5
-6
-7
-6
-5
-6
-7
-8
-8
-6
-7
-9
-9
-9
-10
-11
-12
-13
-11
-9
-10
-11
-11
-11
-11
-11
-11
-11
-11
-11
-11
-11
-12
-13
-13
-13
-13
-13
-12
-10
-8
-5
-2
-2
-4
-2
2
3
2
3
6
8
11
11
11
15
19
15
11
6
1
-3
-7
-10
-13
-13
-13
-14
-15
-16
-17
-16
-15
-15
-15
-16
-17
-18
-19
-19
-18
-16
-15
-16
-17
-16
-15
-14
-13
-12
-11
-10
-11
-9
-5
6
47
93
186
277
352
378
190
21
-82
-150
-125
-94
-54
-26
-18
-13
-12
-11
-12
-13
-13
-13
-12
-11
-10
-9
-10
-11
-11
-11
-10
-8
-6
-5
-6
-7
-7
-6
-4
-2
-1
-1
-1
0
1
2
3
5
7
8
9
9
9
11
13
15
17
17
17
18
19
19
20
23
25
24
23
24
25
26
27
27
27
26
25
26
26
24
23
24
24
21
18
15
11
7
5
3
0
-3
-5
-7
-9
-11
-11
-11
-12
-13
-13
-13
-12
-11
-11
-11
-12
-13
-13
-13
-12
-11
-11
-11
-12
-13
-13
-13
-12
-11
-11
-11
-12
-13
-13
-13
-13
-14
-15
-14
-13
-15
-17
-17
-17
-15
-13
-15
-17
-17
-17
-19
-21
-20
-19
-20
-21
-21
-21
-21
-21
-20
-19
-20
-21
-21
-21
-21
-21
-21
-21
-22
-23
-23
-23
-22
-21
-21
-21
-21
-17
-13
-13
-13
-11
-9
-9
-9
-8
-6
-1
3
3
3
4
5
3
-1
-6
-10
-12
-15
-19
-22
-24
-25
-25
-25
-25
-25
-26
-27
-27
-27
-28
-29
-28
-27
-29
-29
-29
-28
-27
-27
-27
-26
-25
-24
-23
-22
-21
-23
-22
-10
9
41
98
188
277
364
308
125
-15
-124
-156
-141
-107
-65
-44
-31
-27
-27
-26
-24
-23
-24
-25
-25
-25
-25
-25
-25
-24
-23
-22
-21
-20
-19
-19
-19
-17
-15
-16
-17
-15
-13
-12
-11
-11
-11
-10
-9
-8
-7
-6
-4
-2
-1
-2
-3
-2
0
2
3
4
5
5
5
5
5
5
7
9
8
7
7
7
6
5
5
5
5
5
3
1
1
1
-1
-3
-4
-5
-7
-10
-13
-16
-18
-20
-22
-24
-26
-27
-27
-27
-26
-25
-26
-27
-27
-27
-28
-28
-26
-25
-25
-24
-23
-25
-27
-26
-25
-24
-23
-23
-23
-24
-25
-25
-25
-25
-25
-25
-25
-25
-25
-26
-27
-28
-29
-28
-27
-27
-27
-28
-29
-29
-29
-29
-29
-30
-31
-30
-30
-32
-33
-33
-31
-31
-29
-27
-25
-23
-22
-21
-20
-19
-18
-17
-16
-14
-9
-5
-5
-5
-3
-3
-8
-12
-15
-19
-23
-26
-29
-32
-34
-35
-34
-33
-33
-33
-33
-33
-34
-35
-36
-37
-36
-34
-33
-33
-33
-33
-33
-33
-33
-31
-29
-28
-27
-29
-26
-10
17
65
137
247
305
299
196
-4
-117
-158
-152
-112
-79
-50
-37
-29
-27
-26
-25
-25
-26
-28
-28
-26
-25
-24
-23
-23
-21
-19
-19
-19
-20
-21
-19
-17
-17
-17
-16
-15
-14
-13
-13
-12
-9
-7
-7
-7
-6
-5
-5
-4
-2
-1
0
1
2
3
4
5
5
6
8
9
10
11
11
11
11
11
11
11
11
10
9
8
7
9
11
11
11
8
5
3
0
-3
-5
-6
-8
-11
-14
-16
-17
-18
-19
-19
-19
-20
-21
-21
-21
-21
-21
-20
-19
-19
-19
-20
-20
-18
-18
-19
-19
-19
-18
-17
-17
-17
-17
-17
-17
-17
-18
-19
-18
-17
-17
-17
-17
-17
-18
-19
-20
-21
-20
-19
-20
-21
-21
-21
-21
-21
-21
-21
-21
-21
-21
-21
-22
-23
-22
-19
-15
-13
-11
-10
-9
-8
-7
-6
-5
-3
-1
1
3
6
8
5
2
-2
-6
-9
-12
-17
-20
-22
-23
-24
-25
-25
-25
-25
-25
-25
-25
-26
-27
-27
-27
-27
-27
-27
-27
-27
-25
-23
-23
-23
-21
-19
-21
-22
-14
0
32
80
170
262
357
355
189
40
-86
-152
-149
-124
-79
-49
-31
-22
-20
-19
-20
-21
-21
-21
-22
-22
-20
-19
-19
-19
-19
-19
-18
-16
-15
-15
-15
-15
-15
-14
-13
-11
-9
-10
-11
-10
-9
-7
-5
-3
-1
-1
-1
-1
-1
-1
1
5
7
7
7
8
10
12
13
14
16
18
19
19
19
19
19
20
21
21
20
19
20
21
20
19
18
17
16
14
10
7
4
0
-3
-6
-9
-11
-12
-14
-17
-19
-20
-21
-22
-23
-22
-21
-21
-21
-21
-21
-22
-23
-22
-21
-20
-19
-20
-21
-21
-23
-25
-22
-19
-20
-21
-21
-21
-20
-19
-19
-19
-20
-21
-21
-21
-22
-23
-22
-21
-24
-25
-25
-25
-24
-23
-22
-22
-24
-25
-25
-25
-26
-27
-26
-25
-26
-27
-26
-24
-22
-18
-15
-15
-15
-14
-13
-12
-11
-9
-7
-5
-3
-1
1
0
-2
-6
-10
-13
-17
-22
-26
-28
-29
-29
-29
-29
-29
-30
-31
-32
-33
-33
-33
-33
-33
-34
-35
-34
-33
-33
-33
-31
-30
-29
-29
-29
-28
-27
-28
-26
-11
12
57
118
219
298
337
287
98
-45
-129
-160
-132
-100
-65
-44
-33
-29
-29
-29
-28
-27
-28
-29
-30
-31
-30
-29
-28
-27
-27
-27
-27
-26
-25
-23
-21
-22
-23
-23
-23
-22
-21
-19
-17
-17
-17
-16
-15
-14
-13
-11
-9
-8
-7
-8
-8
-6
-4
-1
1
1
1
1
1
2
4
6
7
7
7
7
7
8
8
7
7
7
7
7
7
7
6
5
2
-1
-4
-7
-9
-12
-16
-20
-24
-27
-29
-31
-31
-31
-31
-31
-32
-33
-34
-35
-35
-35
-34
-33
-34
-35
-34
-33
-34
-35
-34
-33
-35
-34
-33
-33
-33
-32
-31
-33
-35
-35
-35
-35
-35
-34
-33
-35
-37
-37
-37
-37
-37
-36
-36
-38
-39
-39
-39
-40
-40
-38
-37
-37
-37
-38
-39
-39
-39
-40
-41
-40
-36
-39
-30
-29
-28
-27
-26
-25
-24
-23
-20
-17
-15
-13
-10
-8
-11
-15
-21
-26
-29
-32
-37
-40
-42
-43
-42
-41
-41
-41
-42
-43
-44
-45
-45
-45
-45
-45
-45
-45
-45
-45
-44
-43
-43
-42
-41
-41
-41
-40
-39
-39
-36
-21
0
36
89
180
254
298
256
84
-47
-128
-160
-142
-114
-80
-59
-48
-42
-40
-39
-38
-37
-37
-37
-36
-35
-35
-35
-36
-36
-34
-33
-33
-33
-33
-32
-31
-29
-27
-27
-27
-26
-25
-24
-23
-23
-23
-23
-23
-23
-23
-21
-18
-15
-13
-12
-11
-11
-11
-11
-9
-6
-5
-4
-3
-3
-3
-2
-1
-1
-1
-1
-1
-1
-4
-5
-4
-3
-3
-3
-4
-5
-6
-7
-12
-16
-20
-23
-25
-28
-31
-33
-34
-35
-35
-35
-36
-37
-37
-37
-36
-35
-36
-37
-37
-37
-37
-37
-37
-37
-37
-36
-34
-33
-34
-35
-35
-35
-35
-34
-33
-33
-33
-33
-33
-33
-33
-33
-33
-34
-35
-35
-35
-35
-35
-36
-37
-36
-35
-35
-35
-35
-35
-36
-36
-34
-31
-28
-27
-27
-27
-26
-25
-24
-21
-18
-16
-13
-12
-11
-8
-5
-8
-11
-15
-19
-23
-28
-33
-37
-35
-33
-33
-33
-35
-37
-36
-35
-36
-37
-37
-37
-37
-37
-37
-37
-37
-37
-36
-35
-35
-34
-32
-31
-30
-29
-29
-29
-29
-12
9
60
116
219
307
312
280
80
-85
-137
-166
-134
-101
-68
-44
-33
-27
-26
-25
-26
-27
-27
-27
-26
-24
-22
-21
-21
-21
-20
-19
-20
-20
-18
-17
-16
-15
-15
-14
-12
-11
-11
-11
-11
-9
-7
-5
-3
-2
-1
-1
-1
0
1
3
5
7
9
9
9
10
12
14
16
18
19
19
19
19
19
20
21
20
19
20
21
20
19
18
17
16
14
11
8
5
2
-1
-4
-7
-10
-13
-15
-17
-17
-17
-17
-17
-18
-19
-18
-17
-18
-19
-18
-17
-17
-17
-17
-17
-17
-16
-14
-13
-14
-15
-15
-15
-14
-13
-13
-13
-13
-13
-13
-13
-13
-12
-11
-12
-13
-14
-15
-15
-15
-14
-13
-14
-15
-16
-17
-18
-18
-15
-13
-16
-17
-17
-17
-17
-17
-16
-15
-15
-14
-12
-10
-8
-7
-7
-5
-2
-1
-1
-1
0
4
7
8
9
11
13
9
5
1
-3
-6
-9
-12
-15
-16
-17
-18
-19
-20
-21
-20
-19
-20
-21
-21
-21
-22
-22
-20
-19
-20
-21
-20
-19
-19
-19
-18
-16
-14
-14
-16
-14
-9
13
39
112
189
308
390
264
132
-23
-139
-137
-122
-74
-39
-24
-15
-15
-15
-14
-13
-13
-13
-14
-15
-15
-15
-14
-13
-12
-11
-11
-11
-11
-11
-10
-9
-8
-7
-6
-5
-5
-2
-1
-1
-1
1
3
4
5
6
7
9
11
11
11
12
13
15
17
19
21
22
23
24
25
26
27
28
29
29
29
29
29
29
29
30
31
30
29
28
24
20
16
13
10
7
3
-1
-4
-7
-9
-11
-12
-13
-14
-15
-15
-15
-15
-15
-15
-15
-15
-15
-15
-15
-14
-13
-14
-15
-15
-15
-14
-13
-13
-13
-14
-15
-14
-13
-14
-15
-14
-13
-13
-13
-13
-14
-15
-14
-13
-14
-15
-15
-15
-17
-19
-17
-15
-15
-15
-16
-17
-17
-17
-17
-17
-18
-19
-18
-17
-18
-19
-18
-17
-18
-19
-18
-17
-16
-12
-8
-7
-7
-6
-7
-2
-1
0
1
3
5
6
7
10
13
10
6
1
-4
-8
-12
-15
-17
-17
-17
-17
-17
-18
-19
-20
-21
-21
-21
-22
-23
-22
-21
-21
-21
-21
-21
-21
-21
-20
-19
-18
-15
-13
-15
-17
-15
-11
12
40
94
160
266
342
327
256
59
-84
-132
-145
-105
-71
-42
-24
-18
-15
-15
-15
-16
-17
-18
-19
-18
-17
-16
-15
-14
-13
-14
-15
-15
-14
-12
-11
-11
-11
-11
-9
-7
-6
-5
-5
-5
-4
-3
-3
-3
0
3
3
3
4
5
7
9
10
11
12
14
16
17
17
17
18
21
24
25
26
27
27
27
27
27
26
25
25
26
25
26
27
24
21
18
15
12
9
7
4
-1
-6
-9
-11
-12
-13
-14
-15
-18
-19
-19
-19
-18
-17
-18
-19
-18
-17
-18
-19
-18
-17
-18
-18
-16
-15
-16
-17
-17
-17
-17
-16
-15
-17
-19
-19
-19
-19
-19
-19
-19
-18
-17
-17
-17
-18
-19
-19
-19
-21
-23
-23
-23
-22
-21
-21
-21
-22
-23
-23
-23
-22
-21
-21
-21
-22
-23
-24
-24
-22
-21
-23
-23
-23
-22
-21
-20
-19
-17
-15
-14
-13
-12
-11
-9
-7
-7
-6
-2
1
1
2
5
5
0
-5
-11
-14
-16
-19
-22
-23
-24
-25
-24
-23
-24
-26
-28
-29
-29
-29
-29
-28
-27
-29
-31
-31
-31
-29
-27
-26
-25
-24
-23
-23
-23
-24
-25
-23
-13
8
45
101
186
296
321
277
148
-34
-121
-158
-142
-103
-72
-43
-32
-25
-23
-23
-23
-23
-23
-23
-22
-21
-21
-21
-21
-21
-21
-21
-20
-19
-18
-17
-16
-15
-14
-13
-13
-13
-13
-13
-11
-9
-9
-8
-6
-5
-5
-5
-4
-2
0
1
1
1
2
4
6
7
8
9
10
11
11
11
11
13
15
16
17
15
13
13
13
11
9
12
15
13
11
9
7
5
2
-1
-4
-6
-8
-11
-15
-19
-21
-21
-21
-22
-23
-23
-23
-24
-25
-25
-25
-24
-23
-23
-23
-23
-23
-23
-23
-23
-23
-23
-21
-19
-20
-21
-21
-21
-21
-21
-22
-23
-22
-21
-21
-21
-22
-23
-24
-25
-24
-24
-26
-27
-26
-25
-25
-25
-24
-24
-26
-26
-24
-23
-23
-23
-23
-24
-25
-24
-23
-20
-17
-16
-15
-15
-15
-13
-11
-9
-7
-7
-6
-2
1
1
2
4
3
-2
-7
-11
-15
-19
-22
-24
-25
-25
-25
-26
-27
-27
-27
-28
-29
-28
-27
-29
-29
-29
-27
-25
-26
-27
-27
-27
-27
-27
-25
-23
-22
-21
-20
-20
-23
-20
-8
18
58
127
221
304
380
292
103
-30
-137
-151
-127
-93
-56
-38
-24
-20
-18
-17
-18
-19
-19
-19
-19
-18
-17
-17
-17
-16
-15
-13
-11
-11
-11
-11
-11
-10
-9
-9
-9
-7
-5
-5
-5
-4
-2
0
1
2
3
4
5
5
5
6
9
12
13
14
15
15
17
20
22
23
23
23
23
23
23
23
24
25
24
23
23
23
23
23
22
20
17
14
10
5
1
-2
-4
-6
-8
-10
-14
-15
-15
-15
-16
-17
-17
-17
-17
-17
-16
-15
-16
-17
-17
-16
-15
-14
-13
-13
-13
-14
-15
-15
-15
-14
-13
-12
-11
-12
-13
-13
-13
-14
-15
-12
-12
-14
-15
-15
-15
-16
-17
-16
-16
-18
-19
-19
-19
-18
-17
-18
-19
-19
-19
-19
-19
-19
-19
-19
-19
-19
-19
-19
-19
-19
-19
-19
-19
-19
-19
-19
-19
-19
-19
-19
-19
-17
-13
-10
-8
-6
-4
-3
-4
-5
-4
-2
0
4
8
9
9
8
6
2
-2
-5
-7
-12
-17
-20
-23
-23
-23
-22
-21
-21
-21
-22
-23
-23
-23
-23
-23
-23
-23
-23
-23
-23
-23
-22
-21
-20
-19
-18
-17
-18
-18
-16
-2
16
70
133
238
350
321
279
91
-99
-129
-155
-110
-67
-42
-21
-19
-17
-18
-19
-20
-21
-19
-17
-17
-17
-18
-19
-18
-17
-16
-15
-15
-15
-14
-13
-13
-13
-13
-13
-12
-11
-10
-9
-8
-7
-6
-5
-4
-3
-3
-2
-1
1
3
4
5
5
5
8
11
12
13
14
15
16
17
17
17
19
21
21
21
22
23
23
23
23
23
22
21
20
17
14
12
10
7
4
0
-4
-7
-10
-13
-15
-18
-21
-21
-21
-22
-23
-22
-21
-21
-21
-21
-21
-20
-19
-20
-21
-21
-21
-22
-23
-23
-23
-22
-21
-22
-23
-22
-21
-21
-21
-21
-21
-22
-23
-23
-23
-23
-23
-22
-22
-25
-24
-23
-23
-23
-24
-25
-26
-27
-27
-27
-27
-27
-27
-27
-27
-27
-28
-29
-28
-27
-27
-27
-27
-27
-27
-28
-30
-31
-30
-29
-28
-27
-27
-27
-27
-27
-27
-27
-28
-29
-29
-28
-29
-27
-25
-23
-21
-19
-17
-15
-13
-11
-9
-9
-8
-5
-3
-3
-2
1
2
-3
-7
-11
-14
-17
-20
-23
-26
-28
-29
-29
-29
-29
-29
-29
-30
-32
-33
-32
-31
-32
-31
-29
-30
-31
-30
-29
-29
-29
-27
-25
-24
-24
-28
-27
-11
12
51
114
211
290
348
282
92
-44
-134
-158
-134
-99
-58
-39
-30
-27
-28
-29
-29
-29
-29
-29
-29
-29
-28
-27
-29
-28
-27
-25
-23
-24
-25
-25
-25
-24
-23
-23
-23
-21
-19
-20
-21
-20
-19
-18
-17
-16
-15
-14
-13
-12
-11
-11
-9
-6
-5
-5
-5
-4
-2
0
1
1
2
4
5
5
4
3
3
3
3
3
4
5
4
3
3
3
2
1
1
0
-4
-8
-11
-14
-19
-22
-25
-27
-28
-29
-30
-31
-32
-33
-33
-33
-34
-35
-34
-33
-34
-35
-35
-35
-34
-32
-31
-32
-33
-33
-33
-33
-33
-32
-31
-32
-33
-33
-33
-32
-31
-32
-33
-34
-35
-35
-35
-35
-35
-35
-35
-36
-37
-37
-37
-37
-37
-37
-37
-37
-37
-38
-39
-38
-37
-37
-37
-35
-34
-33
-34
-35
-35
-35
-35
-35
-36
-37
-38
-39
-37
-35
-35
-35
-34
-33
-32
-31
-28
-27
-28
-28
-26
-25
-24
-22
-20
-17
-14
-13
-13
-10
-6
-9
-14
-18
-22
-25
-23
-32
-35
-36
-37
-38
-39
-39
-39
-39
-39
-39
-39
-40
-41
-41
-41
-42
-42
-39
-37
-38
-39
-39
-39
-38
-36
-34
-34
-36
-37
-37
-24
-7
36
85
181
287
297
294
116
-74
-130
-182
-150
-117
-85
-56
-47
-39
-38
-37
-36
-35
-35
-35
-35
-35
-33
-31
-32
-33
-32
-31
-32
-32
-30
-29
-28
-27
-26
-25
-25
-25
-25
-25
-24
-23
-22
-21
-20
-18
-16
-15
-15
-14
-13
-11
-9
-9
-9
-9
-9
-8
-7
-6
-5
-2
1
1
1
1
1
2
3
2
1
0
-1
-1
-1
-2
-3
-3
-3
-4
-5
-6
-8
-10
-13
-16
-19
-22
-25
-23
-30
-31
-30
-29
-29
-29
-30
-31
-31
-31
-30
-29
-29
-29
-29
-29
-29
-29
-28
-27
-27
-27
-27
-27
-26
-25
-25
-25
-26
-27
-28
-28
-26
-25
-25
-25
-26
-27
-27
-27
-28
-28
-27
-28
-29
-30
-31
-30
-29
-28
-27
-28
-29
-29
-29
-29
-29
-29
-29
-29
-29
-29
-29
-29
-29
-29
-29
-28
-25
-21
-19
-18
-17
-17
-16
-14
-13
-12
-10
-8
-6
-4
-3
-1
-1
-1
-6
-11
-14
-17
-22
-27
-29
-31
-30
-29
-29
-29
-30
-31
-31
-31
-31
-31
-31
-31
-31
-31
-31
-31
-31
-30
-28
-27
-27
-27
-26
-25
-26
-26
-24
-5
16
62
17
218
321
302
268
78
-91
-134
-161
-118
-79
-53
-32
-28
-25
-24
-23
-23
-23
-23
-23
-23
-23
-23
-23
-22
-21
-20
-19
-19
-19
-19
-19
-18
-17
-16
-15
-14
-13
-13
-13
-13
-11
-9
-8
-7
-6
-5
-3
-1
0
1
2
3
5
7
8
9
10
11
12
13
14
15
16
17
18
19
18
17
18
19
19
19
19
19
18
16
14
13
12
10
8
4
-1
-4
-7
-10
-13
-15
-17
-18
-19
-21
-23
-24
-25
-24
-23
-23
-23
-22
-21
-22
-23
-23
-23
-22
-21
-21
-21
-21
-21
-20
-19
-19
-19
-19
-19
-19
-19
-19
-19
-19
-19
-19
-20
-21
-21
-21
-21
-21
-21
-21
-22
-23
-23
-23
-24
-25
-24
-23
-25
-27
-26
-25
-25
-25
-25
-25
-25
-25
-25
-25
-25
-25
-24
-23
-24
-25
-25
-25
-25
-25
-25
-25
-24
-24
-25
-24
-23
-21
-19
-17
-15
-14
-13
-11
-9
-9
-9
-7
-4
-1
1
1
1
3
2
-5
-10
-12
-14
-17
-20
-24
-25
-25
-25
-25
-26
-28
-29
-28
-27
-28
-29
-28
-27
-29
-29
-29
-28
-27
-25
-23
-22
-21
-21
-21
-24
-23
-9
14
51
113
210
289
344
275
73
-61
-134
-144
-106
-72
-42
-28
-23
-21
-21
-21
-21
-21
-22
-23
-23
-23
-22
-21
-21
-21
-21
-21
-21
-20
-19
-17
-15
-15
-15
-15
-15
-14
-13
-13
-12
-9
-7
-7
-7
-6
-5
-4
-3
-2
-1
0
1
2
3
4
6
8
9
10
11
11
12
14
15
15
16
17
16
15
15
15
15
15
16
17
16
15
14
13
11
8
5
2
-1
-4
-7
-10
-13
-15
-16
-17
-18
-20
-22
-23
-22
-21
-21
-21
-21
-21
-22
-23
-23
-23
-22
-21
-21
-22
-23
-22
-21
-21
-21
-21
-21
-21
-21
-21
-21
-21
-21
-22
-23
-23
-23
-22
-21
-22
-23
-24
-25
-26
-27
-26
-25
-25
-25
-26
-27
-27
-27
-27
-27
-26
-26
-28
-29
-29
-29
-29
-28
-27
-27
-27
-28
-29
-29
-29
-28
-27
-27
-27
-27
-27
-28
-29
-28
-27
-27
-27
-28
-29
-28
-26
-24
-23
-22
-21
-20
-18
-16
-14
-12
-11
-12
-11
-8
-7
-6
-1
3
-2
-7
-12
-17
-20
-23
-26
-29
-30
-31
-30
-29
-30
-31
-32
-33
-33
-33
-34
-34
-32
-31
-31
-31
-31
-31
-31
-31
-30
-29
-28
-27
-28
-29
-29
-12
7
49
93
209
325
290
246
64
-103
-142
-170
-132
-96
-67
-44
-37
-31
-30
-29
-29
-29
-29
-29
-29
-29
-28
-27
-26
-25
-25
-25
-26
-27
-26
-25
-24
-23
-22
-21
-21
-20
-18
-17
-17
-17
-17
-16
-15
-14
-13
-12
-11
-10
-9
-8
-7
-6
-5
-3
-1
-1
-1
-1
-1
1
3
4
5
6
7
7
7
7
7
6
5
5
5
5
5
5
5
4
3
3
3
2
-2
-5
-8
-11
-14
-17
-18
-19
-20
-21
-22
-23
-25
-27
-27
-27
-27
-27
-27
-27
-27
-27
-28
-28
-26
-25
-26
-27
-27
-26
-24
-23
-23
-23
-24
-25
-24
-23
-23
-23
-23
-23
-23
-24
-25
-25
-25
-25
-25
-26
-27
-27
-27
-28
-29
-27
-25
-27
-29
-27
-25
-27
-29
-28
-27
-28
-29
-28
-27
-28
-29
-28
-27
-27
-27
-26
-23
-20
-18
-16
-15
-15
-15
-15
-12
-11
-7
-3
-1
1
2
3
2
0
-5
-9
-12
-16
-21
-25
-26
-27
-27
-27
-26
-25
-25
-25
-25
-26
-28
-29
-28
-27
-27
-27
-26
-25
-24
-23
-24
-24
-22
-21
-20
-19
-19
-18
-16
7
33
89
153
263
339
288
205
29
-103
-138
-148
-109
-74
-45
-27
-21
-17
-17
-17
-17
-17
-16
-15
-16
-17
-16
-15
-14
-13
-12
-11
-10
-9
-10
-11
-10
-9
-7
-6
-5
-4
-3
-2
-1
-1
-1
1
3
3
3
5
7
7
7
8
9
11
13
16
17
17
17
17
18
20
22
24
25
25
25
24
23
23
23
23
23
24
25
25
22
21
20
19
17
15
12
9
7
5
2
-1
-3
-5
-7
-9
-10
-11
-10
-9
-10
-11
-11
-11
-10
-9
-9
-9
-9
-9
-9
-9
-9
-9
-8
-7
-7
-7
-7
-7
-7
-6
-5
-5
-5
-5
-5
-7
-9
-8
-7
-6
-5
-7
-9
-9
-9
-9
-9
-9
-9
-9
-9
-10
-11
-10
-9
-9
-9
-10
-11
-10
-9
-10
-11
-10
-9
-10
-11
-12
-12
-10
-9
-11
-10
-9
-10
-11
-10
-9
-5
-1
0
1
1
1
2
3
4
6
9
12
15
17
18
18
15
11
7
3
-1
-4
-6
-9
-12
-13
-13
-13
-12
-11
-12
-13
-13
-13
-13
-16
-17
-15
-13
-13
-13
-13
-13
-11
-9
-8
-7
-9
-11
-9
0
19
55
113
193
296
336
315
198
6
-93
-134
-123
-83
-51
-23
-13
-10
-9
-8
-7
-8
-9
-9
-9
-9
-8
-7
-7
-7
-6
-5
-5
-5
-4
-3
-3
-3
-2
-1
0
1
2
3
3
3
5
7
8
9
10
11
12
13
14
15
16
17
17
18
20
21
22
23
24
25
25
26
29
30
31
31
31
31
31
31
31
31
31
30
29
28
27
25
23
21
18
15
12
9
5
1
-2
-4
-5
-6
-7
-7
-7
-8
-9
-10
-11
-10
-9
-9
-9
-10
-11
-11
-10
-11
-10
-9
-9
-9
-10
-11
-10
-9
-8
-7
-8
-9
-10
-11
-11
-11
-10
-9
-9
-9
-10
-11
-11
-11
-10
-9
-10
-11
-11
-12
-14
-15
-14
-13
-14
-15
-15
-15
-15
-14
-13
-14
-15
-15
-15
-15
-15
-14
-13
-14
-15
-16
-17
-15
-13
-13
-13
-14
-15
-13
-10
-7
-5
-4
-3
-2
-1
-1
0
2
5
8
9
10
12
14
10
4
1
-2
-6
-11
-13
-15
-16
-17
-17
-17
-18
-19
-19
-19
-20
-21
-20
-19
-20
-21
-21
-21
-20
-19
-18
-17
-17
-17
-16
-15
-16
-15
-12
4
25
81
146
246
353
317
255
84
-98
-128
-107
-105
-61
-40
-21
-18
-15
-15
-15
-15
-15
-16
-17
-17
-17
-17
-17
-15
-13
-13
-13
-12
-11
-11
-11
-10
-9
-9
-9
-9
-9
-8
-7
-7
-5
-2
-1
-2
-2
0
1
2
5
7
6
5
5
5
7
9
11
13
14
15
15
15
17
19
20
21
20
19
19
19
18
17
18
19
19
19
18
17
17
17
16
13
10
7
4
0
-4
-5
-6
-9
-13
-15
-17
-18
-19
-19
-19
-18
-17
-18
-19
-19
-19
-20
-21
-20
-19
-19
-19
-19
-19
-19
-19
-19
-19
-20
-21
-21
-21
-20
-19
-19
-19
-19
-19
-19
-19
-20
-21
-21
-21
-21
-24
-25
-24
-23
-24
-25
-25
-25
-24
-23
-24
-25
-25
-25
-26
-27
-27
-27
-25
-23
-26
-27
-27
-26
-24
-22
-19
-17
-17
-16
-14
-13
-13
-13
-12
-7
-2
-1
0
2
4
0
-5
-10
-15
-20
-25
-27
-29
-29
-29
-29
-29
-30
-31
-31
-31
-31
-31
-31
-31
-33
-35
-34
-33
-33
-33
-32
-30
-28
-27
-27
-27
-26
-26
-28
-22
-13
12
38
119
204
297
387
215
47
-63
-160
-150
-135
-95
-60
-44
-31
-29
-27
-27
-27
-27
-27
-26
-25
-24
-23
-23
-23
-24
-24
-22
-21
-21
-20
-18
-17
-18
-19
-18
-17
-16
-15
-14
-13
-12
-11
-11
-10
-9
-7
-5
-5
-5
-5
-5
-3
-1
1
3
4
5
5
5
4
4
8
11
11
10
8
7
8
9
9
9
8
7
8
8
6
5
6
6
4
1
-2
-4
-6
-9
-11
-15
-19
-21
-23
-24
-25
-24
-23
-24
-25
-26
-27
-26
-25
-24
-23
-24
-25
-26
-27
-26
-25
-25
-25
-24
-23
-23
-23
-23
-23
-24
-25
-24
-23
-23
-23
-22
-21
-22
-23
-25
-25
-25
-24
-23
-25
-27
-26
-25
-26
-27
-27
-27
-26
-25
-26
-27
-26
-25
-25
-24
-21
-19
-18
-17
-16
-15
-14
-13
-12
-9
-6
-4
-2
0
2
2
0
-4
-8
-13
-9
-23
-27
-27
-27
-27
-27
-28
-29
-29
-29
-29
-29
-29
-29
-29
-29
-30
-31
-30
-29
-29
-29
-29
-28
-26
-25
-24
-23
-22
-23
-26
-23
-17
7
34
99
171
277
388
268
132
-11
-149
-148
-144
-103
-65
-44
-27
-24
-21
-21
-21
-22
-23
-21
-19
-19
-19
-20
-21
-20
-19
-19
-18
-16
-15
-14
-13
-13
-13
-12
-11
-10
-8
-6
-5
-5
-5
-5
-5
-4
-3
-1
1
3
4
5
5
5
7
9
10
11
12
13
15
17
17
17
17
17
18
19
19
19
18
17
16
15
15
15
16
16
14
11
8
5
2
-1
-4
-7
-10
-12
-11
-17
-19
-20
-21
-21
-21
-21
-21
-21
-21
-21
-21
-21
-21
-22
-23
-22
-21
-21
-21
-20
-19
-19
-19
-19
-19
-20
-21
-20
-19
-19
-19
-19
-19
-19
-20
-22
-22
-20
-19
-20
-22
-23
-24
-25
-25
-25
-25
-25
-24
-23
-24
-25
-25
-25
-25
-25
-25
-25
-26
-27
-26
-25
-25
-25
-24
-23
-24
-25
-24
-20
-15
-13
-13
-13
-12
-11
-11
-11
-10
-5
0
0
-3
0
3
-1
-5
-7
-9
-16
-21
-24
-27
-28
-29
-27
-25
-27
-29
-30
-31
-30
-29
-29
-29
-30
-31
-31
-31
-31
-31
-30
-29
-28
-27
-27
-26
-24
-25
-28
-21
-12
22
-11
146
235
324
389
217
53
-68
-164
-146
-121
-78
-45
-34
-27
-27
-27
-28
-29
-27
-25
-26
-27
-27
-27
-26
-25
-24
-23
-23
-23
-23
-23
-23
-22
-20
-19
-20
-21
-20
-18
-16
-14
-13
-13
-13
-12
-11
-10
-9
-7
-5
-5
-5
-3
-1
0
1
3
5
7
9
9
9
9
9
10
11
12
13
13
13
13
13
12
11
12
11
8
7
6
4
2
-2
-7
-10
-13
-15
-17
-19
-21
-24
-27
-28
-29
-29
-29
-28
-27
-29
-31
-30
-29
-28
-27
-27
-27
-28
-29
-30
-31
-30
-28
-26
-26
-28
-29
-28
-27
-27
-27
-27
-27
-28
-29
-29
-30
-31
-30
-29
-29
-29
-30
-31
-31
-31
-31
-31
-31
-31
-33
-35
-35
-35
-33
-31
-32
-33
-33
-33
-34
-35
-34
-33
-34
-35
-34
-33
-34
-35
-34
-33
-34
-33
-30
-27
-24
-23
-23
-21
-19
-20
-21
-19
-17
-13
-9
-10
-11
-10
-9
-11
-14
-18
-22
-26
-30
-33
-35
-36
-37
-36
-35
-36
-37
-38
-39
-40
-41
-42
-43
-43
-43
-42
-41
-42
-43
-42
-41
-39
-37
-35
-34
-33
-37
-40
-33
-21
8
52
138
227
322
322
138
-16
-121
-171
-146
-114
-74
-51
-41
-37
-37
-37
-38
-39
-39
-39
-38
-37
-36
-35
-35
-35
-35
-35
-34
-33
-33
-32
-31
-30
-29
-28
-27
-27
-27
-26
-25
-24
-23
-22
-21
-21
-21
-19
-17
-16
-15
-14
-12
-10
-9
-9
-8
-6
-5
-5
-5
-5
-5
-4
-3
-2
-1
-1
-1
0
1
1
0
-1
-2
-3
-2
-1
-4
-7
-7
-7
-11
-15
-17
-19
-21
-24
-28
-31
-32
-33
-34
-35
-36
-37
-36
-35
-35
-36
-38
-39
-38
-36
-34
-33
-33
-33
-34
-35
-34
-33
-33
-33
-31
-32
-33
-33
-33
-32
-31
-31
-31
-31
-31
-33
-35
-33
-31
-33
-35
-35
-35
-34
-33
-34
-35
-36
-37
-36
-35
-36
-37
-36
-35
-36
-37
-36
-35
-35
-35
-34
-33
-33
-31
-33
-27
-27
-24
-21
-22
-23
-21
-19
-13
-9
-8
-7
-6
-5
-7
-11
-17
-22
-26
-30
-33
-35
-36
-37
-37
-37
-37
-38
-40
-41
-40
-39
-39
-39
-39
-39
-39
-39
-39
-39
-38
-36
-35
-35
-35
-33
-31
-33
-35
-32
-25
-5
25
78
147
252
310
283
191
4
-118
-160
-164
-129
-96
-63
-45
-36
-33
-32
-31
-31
-31
-30
-29
-29
-29
-29
-29
-29
-28
-26
-25
-23
-23
-23
-22
-21
-20
-19
-19
-19
-19
-19
-18
-17
-14
-11
-11
-11
-10
-9
-8
-7
-6
-5
-4
-3
-2
-1
0
1
2
3
4
6
8
9
9
9
9
9
10
11
11
9
9
9
9
10
11
10
9
7
5
5
5
3
1
0
-1
-3
-6
-10
-13
-14
-16
-18
-19
-19
-19
-19
-19
-19
-19
-19
-19
-19
-19
-19
-19
-18
-17
-17
-17
-17
-17
-17
-17
-17
-16
-15
-15
-15
-14
-13
-14
-15
-15
-15
-14
-13
-13
-13
-14
-15
-17
-19
-19
-19
-18
-17
-17
-17
-18
-19
-19
-19
-19
-19
-19
-19
-18
-17
-17
-17
-16
-15
-13
-10
-7
-6
-5
-3
-1
-1
-1
0
1
3
5
6
7
9
10
6
1
-4
-8
-13
-16
-18
-19
-20
-21
-20
-19
-19
-19
-19
-19
-19
-19
-20
-21
-21
-21
-22
-23
-23
-20
-19
-19
-19
-18
-17
-15
-13
-15
-16
-10
1
25
63
133
218
327
357
276
149
-30
-126
-144
-128
-81
-50
-27
-17
-14
-13
-14
-15
-16
-17
-16
-15
-14
-13
-13
-13
-13
-12
-11
-11
-11
-10
-9
-9
-9
-8
-7
-6
-5
-4
-3
-3
-3
-2
-1
0
1
3
5
5
5
6
7
8
10
12
15
18
19
19
19
20
21
21
21
22
23
24
25
25
24
23
24
25
26
27
26
25
24
23
20
17
16
14
11
8
4
0
-3
-5
-8
-9
-10
-11
-12
-13
-14
-15
-14
-13
-14
-15
-15
-15
-14
-13
-13
-13
-14
-15
-15
-13
-13
-12
-11
-12
-13
-14
-15
-13
-11
-11
-11
-12
-13
-12
-11
-13
-15
-14
-13
-14
-15
-14
-13
-14
-15
-16
-17
-17
-17
-17
-17
-18
-19
-18
-17
-18
-19
-18
-17
-17
-18
-19
-19
-19
-18
-17
-17
-17
-16
-15
-14
-13
-11
-9
-7
-5
-4
-3
-3
-3
-2
0
3
6
8
9
10
10
8
6
4
0
-4
-9
-14
-16
-18
-19
-19
-19
-18
-17
-19
-20
-21
-20
-19
-20
-21
-21
-21
-21
-21
-21
-21
-20
-19
-19
-19
-19
-19
-17
-15
-18
-13
-1
25
61
133
228
310
387
274
86
-37
-139
-140
-117
-78
-37
-25
-16
-15
-15
-15
-17
-17
-17
-17
-17
-16
-15
-14
-13
-12
-11
-12
-13
-12
-11
-11
-10
-7
-5
-6
-7
-6
-5
-4
-2
0
1
1
1
2
3
3
4
6
7
8
9
10
12
14
16
17
17
17
19
21
21
21
23
25
24
23
22
21
22
23
23
23
22
21
21
20
18
16
14
11
7
4
0
-1
-2
-5
-8
-9
-10
-11
-11
-11
-12
-13
-13
-13
-13
-13
-13
-12
-11
-11
-11
-11
-11
-12
-13
-13
-13
-12
-11
-12
-13
-13
-13
-13
-13
-12
-11
-12
-13
-13
-14
-16
-17
-16
-15
-15
-15
-16
-17
-17
-17
-17
-17
-17
-17
-17
-20
-21
-20
-19
-18
-17
-18
-19
-18
-17
-18
-19
-19
-19
-20
-21
-22
-23
-21
-19
-19
-18
-15
-12
-10
-9
-8
-7
-6
-5
-4
-2
0
3
6
7
8
9
8
3
-2
-7
-11
-14
-17
-20
-23
-23
-23
-23
-23
-23
-23
-24
-25
-25
-25
-25
-25
-26
-27
-26
-25
-24
-23
-22
-21
-22
-23
-22
-21
-22
-19
-13
12
41
108
181
286
396
267
116
-15
-145
-144
-141
-99
-59
-40
-23
-21
-19
-20
-21
-22
-23
-20
-17
-18
-19
-18
-17
-16
-15
-15
-15
-15
-15
-14
-13
-13
-12
-10
-9
-9
-9
-8
-7
-6
-5
-4
-3
-4
-4
-5
1
3
4
5
5
5
6
7
9
11
11
11
10
9
10
11
12
13
15
17
16
15
14
13
13
13
13
13
12
11
10
8
6
5
6
5
2
-2
-6
-7
-8
-10
-11
-13
-15
-17
-19
-18
-17
-17
-17
-17
-17
-19
-21
-20
-19
-17
-15
-16
-17
-18
-19
-19
-19
-18
-17
-16
-15
-15
-16
-18
-19
-18
-17
-17
-17
-17
-17
-18
-19
-19
-19
-19
-19
-19
-20
-21
-20
-19
-20
-21
-21
-21
-20
-19
-20
-21
-21
-21
-22
-23
-22
-21
-18
-16
-14
-13
-13
-12
-9
-7
-8
-8
-6
-2
2
3
4
6
8
3
-4
-7
-5
-14
-17
-20
-23
-23
-23
-24
-25
-24
-23
-23
-23
-25
-27
-27
-27
-28
-29
-27
-25
-24
-23
-23
-23
-22
-21
-20
-20
-22
-19
-13
8
35
99
173
278
388
272
127
-11
-148
-148
-144
-101
-60
-39
-21
-20
-19
-17
-15
-16
-17
-15
-13
-13
-13
-13
-13
-13
-13
-12
-11
-11
-11
-10
-9
-8
-7
-7
-6
-4
-3
-3
-3
-2
-1
-1
0
2
3
4
5
5
7
9
10
11
13
15
14
13
16
19
19
19
20
21
21
21
20
19
20
21
21
21
20
19
19
19
18
17
17
17
16
13
10
9
8
5
2
0
-2
-5
-3
-11
-13
-12
-11
-11
-11
-12
-13
-12
-11
-11
-11
-12
-13
-12
-11
-11
-11
-10
-9
-10
-11
-11
-11
-10
-9
-8
-8
-10
-11
-11
-11
-11
-11
-10
-10
-12
-13
-12
-11
-12
-12
-11
-12
-13
-14
-15
-16
-17
-15
-13
-14
-15
-15
-15
-14
-13
-13
-13
-13
-13
-13
-12
-10
-8
-5
-3
-3
-3
-2
0
2
3
4
7
10
11
11
11
12
10
6
3
-1
-6
-11
-14
-17
-17
-17
-17
-17
-17
-17
-19
-21
-20
-19
-19
-19
-19
-19
-19
-19
-19
-19
-19
-18
-16
-15
-14
-13
-14
-15
-14
1
19
63
113
211
317
343
362
168
363
-102
-164
-127
-90
-55
-25
-18
-13
-12
-11
-12
-13
-14
-15
-14
-13
-13
-13
-12
-11
-12
-13
-12
-10
-8
-7
-6
-5
-6
-7
-7
-7
-6
-4
-2
-1
-1
-1
-1
0
2
4
5
5
5
6
7
8
9
11
13
15
17
18
19
20
21
22
23
23
23
23
23
22
21
22
23
23
23
23
23
22
21
21
20
18
15
12
8
4
2
0
-3
-7
-9
-11
-13
-15
-15
-15
-16
-17
-17
-17
-17
-17
-16
-15
-16
-17
-17
-17
-16
-15
-15
-15
-15
-15
-15
-15
-16
-17
-16
-15
-15
-15
-16
-17
-16
-15
-15
-15
-16
-17
-17
-18
-19
-18
-17
-17
-17
-18
-19
-19
-19
-19
-19
-19
-19
-19
-19
-19
-19
-19
-18
-13
-11
-10
-8
-6
-5
-5
-5
-4
-2
0
3
6
7
8
8
6
2
-2
-6
-10
-13
-15
-19
-23
-22
-21
-22
-23
-22
-21
-22
-23
-25
-27
-26
-25
-24
-23
-24
-25
-25
-25
-25
-24
-22
-21
-20
-19
-18
-19
-22
-14
-2
29
64
149
245
312
376
211
25
-70
-161
-134
-107
-69
-35
-26
-19
-19
-19
-19
-19
-20
-21
-20
-19
-19
-19
-19
-19
-17
-15
-15
-15
-16
-17
-16
-15
-15
-14
-12
-11
-11
-11
-11
-11
-10
-8
-6
-5
-5
-5
-5
-3
-3
-1
1
2
3
4
5
6
7
8
9
10
11
12
13
12
11
12
13
12
11
10
9
10
11
11
10
8
7
7
5
2
0
-2
-5
-8
-12
-16
-18
-20
-22
-23
-24
-25
-26
-27
-28
-29
-28
-27
-28
-29
-27
-25
-26
-27
-27
-27
-28
-29
-28
-27
-27
-27
-27
-27
-27
-27
-27
-27
-27
-27
-27
-27
-28
-29
-30
-31
-31
-31
-30
-29
-29
-31
-33
-33
-33
-33
-33
-33
-33
-34
-35
-35
-35
-33
-31
-33
-35
-34
-33
-31
-28
-25
-23
-23
-23
-22
-21
-21
-19
-16
-13
-8
-8
-10
-9
-6
-8
-12
-17
-22
-25
-23
-32
-35
-36
-37
-37
-37
-38
-39
-38
-37
-38
-39
-41
-43
-42
-41
-41
-41
-40
-39
-39
-39
-39
-38
-36
-34
-32
-33
-36
-32
-24
2
32
102
182
277
376
241
76
-45
-163
-158
-150
-112
-76
-58
-41
-39
-37
-35
-33
-33
-33
-33
-33
-33
-33
-33
-33
-32
-31
-31
-31
-31
-30
-28
-27
-26
-25
-25
-24
-22
-20
-18
-17
-18
-19
-20
-20
-18
-17
-16
-15
-13
-12
-11
-10
-9
-7
-5
-5
-5
-3
-1
-1
-1
0
1
0
-1
-1
-1
1
3
0
-1
-1
-2
-4
-5
-5
-5
-5
-7
-10
-12
-14
-17
-20
-22
-24
-27
-30
-31
-31
-31
-31
-31
-31
-32
-33
-31
-29
-30
-31
-31
-31
-32
-33
-32
-31
-30
-29
-29
-29
-29
-29
-28
-27
-27
-27
-28
-29
-29
-29
-28
-27
-28
-29
-28
-27
-28
-29
-30
-31
-30
-29
-29
-30
-31
-31
-31
-32
-33
-31
-29
-26
-23
-23
-23
-21
-19
-17
-15
-15
-14
-11
-9
-8
-5
0
2
-1
-7
-14
-19
-22
-26
-30
-31
-31
-31
-31
-31
-32
-33
-33
-33
-35
-35
-35
-34
-33
-33
-33
-34
-35
-34
-33
-33
-33
-31
-29
-28
-27
-28
-29
-27
-17
2
35
81
162
269
302
291
162
-24
-111
-159
-143
-106
-75
-44
-32
-24
-23
-24
-25
-25
-25
-25
-24
-23
-22
-21
-21
-21
-20
-19
-18
-17
-17
-17
-16
-15
-14
-13
-12
-11
-11
-11
-10
-8
-6
-5
-4
-3
-2
-1
-1
-1
0
3
6
7
8
9
10
11
11
12
13
15
17
17
17
18
19
19
19
18
17
18
19
19
19
18
17
15
12
9
6
4
2
0
-3
-7
-10
-12
-13
-14
-15
-16
-17
-18
-19
-20
-21
-20
-19
-18
-17
-17
-17
-17
-17
-17
-16
-15
-15
-15
-15
-15
-15
-15
-14
-13
-13
-13
-13
-13
-13
-13
-12
-12
-14
-15
-15
-15
-16
-17
-16
-15
-16
-17
-18
-18
-16
-15
-16
-17
-17
-17
-17
-20
-21
-20
-19
-18
-17
-14
-11
-9
-7
-7
-7
-6
-5
-4
-3
-1
2
5
7
8
9
8
5
1
-2
-5
-10
-15
-18
-20
-21
-21
-21
-20
-20
-22
-23
-24
-24
-22
-22
-23
-24
-25
-24
-23
-24
-25
-23
-21
-20
-19
-19
-19
-18
-17
-18
-12
6
38
85
163
271
321
321
203
3
-100
-149
-134
-88
-56
-29
-21
-18
-17
-18
-19
-19
-19
-18
-17
-15
-16
-17
-17
-17
-16
-15
-14
-13
-13
-13
-12
-11
-10
-9
-9
-9
-8
-7
-5
-3
-2
-1
-1
-1
0
1
2
5
8
9
8
7
8
10
12
14
16
17
18
19
19
21
21
22
23
23
23
23
23
23
23
23
23
22
21
20
18
15
12
9
6
3
0
-3
-6
-8
-10
-12
-13
-14
-15
-16
-17
-17
-17
-17
-17
-17
-17
-17
-17
-16
-15
-15
-16
-17
-16
-15
-16
-17
-16
-15
-15
-15
-15
-15
-15
-15
-14
-13
-14
-15
-16
-17
-18
-18
-16
-15
-15
-16
-18
-19
-19
-19
-19
-19
-19
-19
-19
-19
-20
-21
-21
-21
-19
-20
-21
-20
-19
-17
-15
-13
-11
-10
-9
-7
-5
-5
-5
-4
-3
-1
1
3
5
8
6
-1
-6
-9
-14
-19
-21
-22
-23
-23
-24
-26
-27
-28
-29
-28
-27
-28
-29
-29
-29
-29
-29
-29
-29
-29
-28
-27
-26
-25
-25
-25
-24
-24
-27
-25
-11
11
46
110
207
294
369
297
107
-29
-131
-155
-135
-101
-61
-42
-30
-26
-24
-23
-24
-25
-26
-27
-27
-25
-23
-24
-25
-24
-23
-23
-23
-22
-21
-21
-21
-21
-21
-19
-17
-15
-13
-14
-15
-15
-15
-15
-14
-11
-9
-9
-9
-9
-8
-6
-5
-4
-2
0
1
2
3
3
4
6
7
7
8
9
10
11
11
11
10
9
9
9
8
7
9
11
9
7
7
6
3
0
-3
-7
-11
-14
-17
-19
-19
-21
-25
-27
-27
-27
-27
-27
-28
-29
-29
-29
-29
-29
-29
-30
-29
-29
-29
-29
-29
-29
-29
-29
-29
-28
-27
-27
-27
-27
-27
-27
-27
-28
-29
-28
-27
-27
-27
-27
-27
-28
-29
-30
-31
-31
-31
-32
-33
-33
-33
-33
-33
-33
-33
-32
-27
-23
-22
-21
-20
-19
-20
-21
-19
-17
-13
-9
-7
-5
-4
-4
-8
-13
-18
-22
-26
-30
-32
-33
-33
-33
-34
-35
-36
-37
-37
-37
-37
-37
-37
-37
-38
-39
-39
-39
-39
-39
-37
-35
-33
-32
-31
-31
-31
-30
-29
-31
-29
-13
10
49
108
205
285
337
281
83
-59
-142
-169
-145
-113
-74
-51
-38
-32
-30
-29
-30
-31
-31
-30
-28
-27
-26
-25
-26
-27
-27
-24
-23
-21
-19
-20
-21
-21
-21
-19
-17
-16
-15
-14
-13
-12
-11
-11
-11
-9
-7
-6
-5
-5
-4
-2
-1
-1
0
2
3
4
5
5
6
8
9
9
9
10
11
11
11
11
11
11
10
9
9
9
9
9
9
9
7
5
3
0
-3
-5
-7
-10
-13
-16
-18
-19
-19
-19
-19
-19
-20
-21
-20
-19
-19
-19
-19
-19
-19
-19
-19
-19
-18
-17
-17
-17
-17
-16
-15
-14
-13
-14
-15
-15
-15
-17
-19
-18
-17
-17
-17
-17
-17
-17
-17
-17
-18
-20
-20
-18
-17
-18
-19
-18
-17
-18
-19
-20
-21
-20
-15
-10
-9
-9
-9
-9
-7
-7
-5
-3
0
3
6
9
10
11
6
2
-2
-6
-10
-14
-17
-19
-20
-21
-21
-21
-21
-21
-21
-21
-22
-23
-24
-25
-25
-25
-25
-25
-24
-23
-23
-23
-22
-21
-20
-17
-15
-15
-15
-18
-20
-8
9
46
95
189
281
365
367
187
29
-89
-152
-134
-105
-64
-37
-25
-18
-16
-15
-15
-15
-16
-17
-16
-15
-15
-15
-14
-13
-14
-15
-15
-14
-12
-11
-11
-10
-9
-8
-7
-6
-5
-5
-5
-4
-3
-2
-1
1
3
4
5
5
5
7
9
12
13
14
15
15
15
16
19
22
23
23
23
23
24
26
27
27
27
27
27
27
24
23
24
25
24
23
20
17
15
13
8
4
0
-4
-7
-9
-11
-13
-13
-13
-16
-17
-17
-17
-16
-15
-14
-13
-14
-15
-15
-15
-16
-16
-14
-13
-13
-13
-13
-13
-13
-13
-13
-14
-15
-13
-11
-11
-11
-12
-13
-13
-13
-13
-13
-14
-15
-14
-13
-15
-17
-17
-17
-18
-19
-18
-17
-17
-17
-17
-17
-17
-17
-16
-15
-16
-17
-17
-16
-14
-10
-6
-5
-7
-6
-5
-4
-3
-2
-1
3
7
7
7
9
10
6
2
-2
-6
-9
-12
-16
-19
-19
-19
-20
-21
-21
-22
-24
-25
-24
-23
-24
-25
-25
-25
-25
-25
-25
-25
-25
-25
-25
-22
-21
-19
-17
-18
-19
-20
-18
0
27
80
149
258
333
339
268
68
-74
-134
-149
-109
-74
-43
-26
-20
-17
-17
-17
-18
-19
-19
-19
-19
-19
-18
-17
-17
-17
-17
-16
-14
-14
-15
-15
-15
-14
-13
-12
-11
-9
-7
-7
-7
-7
-7
-5
-3
-1
1
1
1
2
3
3
4
6
7
8
9
10
12
14
15
15
15
16
17
16
15
15
15
16
17
15
15
15
16
17
15
13
10
7
4
1
-2
-5
-7
-10
-14
-17
-19
-21
-20
-19
-20
-22
-25
-27
-26
-25
-26
-26
-24
-23
-24
-25
-26
-26
-24
-23
-22
-22
-24
-25
-25
-26
-25
-24
-23
-25
-27
-28
-29
-26
-23
-24
-25
-27
-29
-29
-29
-29
-29
-29
-29
-30
-31
-31
-31
-32
-33
-32
-31
-31
-31
-31
-31
-31
-31
-31
-31
-32
-33
-33
-33
-34
-31
-27
-24
-21
-21
-21
-19
-17
-18
-19
-15
-11
-9
-7
-6
-5
-6
-9
-14
-18
-22
-26
-28
-30
-33
-35
-35
-35
-35
-35
-36
-37
-37
-37
-38
-39
-39
-39
-39
-39
-39
-39
-39
-39
-39
-38
-37
-34
-31
-30
-29
-32
-33
-25
-9
24
80
177
267
343
300
99
-48
-137
-164
-136
-103
-67
-48
-39
-33
-30
-29
-30
-31
-32
-33
-32
-30
-28
-27
-27
-27
-27
-28
-27
-26
-25
-24
-23
-23
-23
-21
-19
-19
-19
-18
-17
-16
-15
-14
-13
-11
-9
-9
-9
-9
-8
-5
-3
-3
-1
2
3
2
1
2
3
3
3
3
3
4
5
5
4
3
2
1
1
1
1
1
0
-1
-3
-5
-6
-8
-12
-15
-16
-18
-22
-25
-26
-27
-28
-29
-29
-29
-29
-29
-30
-31
-30
-29
-28
-27
-27
-27
-27
-27
-28
-28
-26
-25
-27
-28
-29
-28
-27
-27
-27
-26
-25
-26
-27
-27
-27
-27
-27
-27
-27
-28
-29
-28
-27
-27
-27
-28
-29
-28
-27
-28
-29
-29
-29
-30
-31
-30
-27
-24
-22
-20
-19
-19
-18
-19
-15
-15
-13
-11
-8
-5
-5
-5
1
5
0
-4
-9
-14
-19
-24
-27
-29
-28
-27
-27
-27
-28
-29
-29
-29
-29
-29
-29
-29
-29
-29
-30
-31
-30
-29
-29
-29
-28
-27
-26
-23
-21
-21
-21
-23
-23
-5
19
71
134
240
318
314
248
47
-98
-141
-152
-114
-79
-47
-28
-22
-19
-19
-19
-19
-19
-19
-19
-18
-17
-17
-17
-16
-15
-14
-13
-13
-13
-12
-11
-9
-8
-7
-6
-5
-5
-5
-5
-5
-3
-1
0
1
2
3
3
3
4
6
9
11
12
13
14
15
16
17
18
19
20
21
22
23
23
23
23
23
23
23
23
23
23
22
21
22
23
21
19
17
15
12
9
7
5
2
-2
-5
-8
-11
-13
-12
-11
-12
-13
-13
-13
-13
-13
-13
-13
-13
-13
-13
-13
-14
-15
-14
-13
-13
-13
-12
-11
-10
-10
-11
-12
-13
-12
-11
-12
-13
-12
-11
-12
-13
-13
-13
-12
-11
-13
-15
-15
-15
-16
-17
-17
-17
-17
-17
-17
-17
-17
-17
-16
-15
-15
-15
-15
-15
-16
-17
-18
-18
-16
-14
-11
-9
-7
-6
-5
-4
-3
-3
-3
0
3
6
9
10
11
9
6
2
-2
-6
-10
-13
-16
-19
-21
-20
-19
-20
-21
-21
-21
-22
-23
-23
-23
-23
-23
-23
-23
-24
-25
-25
-22
-21
-20
-19
-18
-17
-19
-20
-12
2
32
76
152
237
341
358
226
89
-53
-134
-145
-129
-85
-53
-32
-22
-19
-17
-18
-19
-19
-19
-20
-21
-20
-19
-19
-19
-19
-19
-18
-16
-15
-15
-15
-14
-13
-13
-13
-12
-11
-11
-11
-10
-9
-7
-5
-4
-3
-3
-3
-2
-1
0
1
2
3
4
6
8
10
12
13
14
15
15
15
15
15
15
16
18
19
19
17
15
17
19
19
19
17
15
13
10
6
3
1
-2
-5
-8
-11
-13
-15
-17
-20
-21
-21
-21
-21
-22
-24
-25
-24
-23
-23
-23
-23
-23
-22
-21
-22
-23
-23
-23
-23
-23
-23
-23
-23
-23
-23
-24
-25
-24
-23
-23
-23
-25
-27
-27
-27
-27
-27
-27
-27
-27
-28
-30
-31
-30
-29
-29
-29
-30
-31
-30
-29
-30
-31
-31
-32
-34
-34
-32
-31
-32
-32
-31
-33
-35
-33
-31
-28
-25
-24
-23
-22
-21
-20
-19
-18
-16
-13
-11
-10
-9
-8
-7
-7
-9
-13
-18
-23
-28
-33
-35
-36
-37
-37
-37
-37
-37
-37
-37
-38
-39
-38
-38
-41
-42
-43
-42
-41
-41
-41
-40
-39
-38
-37
-38
-39
-36
-33
-35
-36
-33
-22
-1
36
90
170
274
302
273
148
-33
-122
-166
-152
-113
-82
-53
-43
-36
-35
-35
-35
-35
-35
-35
-37
-37
-36
-35
-34
-33
-34
-35
-32
-29
-29
-29
-29
-29
-29
-29
-29
-28
-25
-23
-23
-23
-22
-21
-21
-20
-18
-17
-16
-15
-15
-15
-15
-13
-10
-9
-9
-9
-8
-6
-4
-1
1
1
1
0
-1
-2
-3
-1
1
-1
-3
-3
-3
-3
-3
-3
-4
-7
-10
-13
-17
-21
-23
-24
-26
-29
-32
-34
-35
-36
-37
-37
-37
-37
-37
-37
-37
-37
-37
-36
-35
-37
-38
-39
-37
-35
-35
-35
-36
-37
-36
-35
-35
-35
-35
-35
-35
-35
-34
-33
-34
-35
-36
-37
-36
-35
-36
-37
-37
-37
-38
-39
-39
-39
-38
-37
-37
-37
-38
-39
-39
-38
-39
-32
-29
-29
-29
-28
-27
-26
-25
-24
-22
-17
-13
-13
-12
-9
-8
-12
-16
-19
-23
-30
-35
-39
-41
-40
-39
-39
-39
-39
-40
-42
-43
-44
-44
-42
-41
-42
-43
-43
-43
-43
-41
-39
-39
-39
-38
-37
-37
-37
-34
-31
-35
-37
-27
-9
24
75
159
249
348
326
154
7
-115
-165
-154
-125
-84
-58
-41
-33
-30
-29
-29
-29
-30
-31
-30
-29
-28
-27
-26
-25
-25
-25
-25
-23
-21
-20
-19
-20
-21
-20
-19
-19
-19
-16
-13
-13
-13
-12
-11
-10
-9
-6
-5
-4
-3
-3
-3
-3
-1
3
5
5
5
6
7
8
10
12
12
10
10
9
12
11
12
13
12
11
10
9
10
11
10
9
6
2
-1
-4
-7
-9
-10
-12
-15
-18
-20
-21
-21
-21
-22
-23
-22
-21
-22
-23
-22
-21
-21
-21
-21
-21
-20
-19
-19
-19
-19
-19
-19
-18
-17
-17
-17
-17
-17
-18
-19
-19
-19
-18
-17
-17
-17
-18
-19
-20
-21
-21
-21
-20
-19
-20
-21
-22
-23
-23
-22
-20
-19
-20
-21
-21
-21
-22
-22
-20
-18
-15
-14
-13
-11
-9
-8
-7
-7
-7
-5
-3
-1
1
3
5
6
5
0
-4
-7
-10
-15
-19
-23
-25
-24
-23
-24
-25
-25
-25
-26
-27
-26
-25
-25
-25
-26
-27
-27
-27
-27
-26
-25
-23
-21
-21
-21
-21
-21
-21
-19
-8
11
48
104
199
288
367
328
127
-26
-123
-156
-125
-90
-51
-31
-22
-19
-20
-21
-21
-21
-21
-21
-20
-19
-19
-19
-18
-17
-16
-14
-13
-14
-15
-14
-13
-13
-13
-11
-9
-9
-9
-8
-7
-6
-5
-4
-3
-2
-1
1
3
4
5
6
8
10
11
12
13
14
15
16
17
18
19
20
21
21
21
21
21
21
21
21
22
23
23
23
22
21
18
15
12
9
6
2
-2
-6
-9
-11
-12
-13
-14
-15
-16
-17
-18
-19
-20
-21
-20
-19
-19
-19
-19
-19
-19
-19
-19
-19
-19
-19
-19
-18
-17
-17
-17
-18
-19
-19
-19
-18
-17
-18
-19
-19
-19
-20
-21
-20
-19
-20
-21
-21
-21
-22
-23
-22
-21
-22
-23
-23
-23
-23
-23
-23
-23
-22
-21
-22
-23
-24
-25
-25
-23
-21
-19
-17
-15
-13
-13
-13
-11
-9
-8
-7
-5
-3
-1
1
2
3
3
2
-2
-7
-12
-16
-18
-21
-25
-27
-27
-27
-27
-27
-27
-27
-27
-27
-28
-29
-29
-29
-29
-29
-29
-29
-29
-28
-27
-27
-27
-25
-23
-22
-22
-26
-26
-12
11
52
116
216
294
343
279
91
-43
-131
-152
-123
-88
-52
-34
-26
-23
-23
-23
-23
-23
-23
-23
-23
-23
-23
-23
-23
-22
-21
-20
-19
-19
-19
-19
-19
-17
-15
-14
-13
-13
-13
-13
-13
-12
-10
-7
-5
-5
-5
-5
-4
-2
0
2
3
3
3
4
5
5
8
12
13
13
13
14
15
15
16
17
16
15
15
15
14
13
14
15
15
15
15
15
14
12
9
6
3
1
-1
-4
-7
-10
-13
-16
-18
-19
-20
-21
-22
-23
-23
-23
-23
-23
-23
-23
-23
-23
-23
-23
-23
-22
-21
-21
-21
-21
-21
-22
-23
-23
-23
-23
-23
-22
-21
-21
-21
-22
-23
-24
-25
-25
-25
-25
-25
-25
-25
-25
-26
-28
-29
-28
-27
-27
-27
-27
-27
-27
-27
-27
-27
-27
-28
-27
-27
-27
-24
-21
-21
-21
-19
-17
-15
-13
-12
-11
-9
-7
-5
-2
1
3
2
-2
-8
-13
-19
-22
-25
-27
-28
-30
-32
-33
-32
-31
-31
-31
-31
-31
-31
-31
-32
-32
-31
-32
-33
-33
-33
-32
-31
-30
-29
-29
-29
-27
-25
-26
-23
-9
15
55
123
225
295
332
251
71
-54
-141
-158
-133
-100
-63
-44
-32
-28
-26
-25
-26
-27
-26
-25
-25
-25
-23
-23
-23
-23
-23
-21
-19
-19
-19
-19
-19
-18
-17
-16
-15
-14
-13
-14
-15
-13
-11
-8
-7
-7
-7
-6
-5
-5
-5
-4
-2
0
1
1
2
4
6
8
9
9
9
9
10
11
11
11
11
11
9
7
9
11
10
9
9
9
8
7
5
3
1
-2
-5
-9
-13
-15
-16
-17
-17
-19
-23
-25
-25
-25
-25
-25
-25
-25
-26
-27
-28
-28
-26
-24
-23
-24
-25
-25
-25
-26
-27
-25
-23
-23
-23
-23
-23
-24
-25
-24
-23
-24
-25
-25
-25
-26
-27
-27
-27
-28
-29
-29
-29
-28
-27
-27
-27
-28
-29
-29
-27
-24
-22
-20
-19
-17
-16
-15
-14
-13
-10
-7
-4
-1
1
3
0
-4
-8
-12
-16
-20
-24
-27
-28
-29
-29
-29
-30
-31
-31
-31
-31
-31
-31
-31
-31
-31
-31
-31
-31
-31
-30
-29
-30
-31
-31
-28
-27
-24
-21
-24
-27
-23
-15
8
41
104
177
280
334
288
190
5
-116
-149
-150
-112
-79
-50
-32
-23
-19
-18
-18
-20
-21
-20
-19
-19
-19
-18
-17
-16
-15
-15
-15
-14
-11
-9
-9
-9
-9
-9
-9
-9
-7
-5
-4
-3
-2
-1
1
3
4
5
5
5
7
9
10
12
14
15
15
15
16
18
20
21
22
23
23
23
23
23
23
23
24
25
25
24
23
23
23
22
21
18
15
13
10
6
3
1
-1
-3
-5
-7
-9
-10
-11
-11
-11
-12
-13
-13
-13
-12
-11
-10
-9
-10
-11
-11
-11
-11
-11
-10
-9
-9
-9
-9
-9
-9
-9
-9
-9
-9
-8
-7
-8
-9
-10
-11
-11
-11
-11
-11
-11
-11
-11
-11
-12
-13
-13
-13
-12
-11
-12
-13
-14
-15
-15
-14
-12
-9
-6
-5
-4
-3
-3
-3
-2
1
3
4
5
8
11
11
11
13
14
8
2
-2
-5
-9
-11
-13
-15
-16
-17
-17
-17
-18
-19
-18
-17
-18
-19
-20
-21
-21
-21
-20
-19
-19
-19
-19
-19
-19
-18
-16
-15
-13
-16
-19
-5
11
49
94
179
264
351
376
211
58
-69
-149
-136
-111
-68
-37
-21
-13
-12
-12
-14
-15
-16
-17
-17
-15
-12
-11
-12
-13
-13
-13
-13
-11
-8
-7
-8
-9
-9
-8
-9
-7
-5
-4
-3
-2
-1
1
3
3
3
4
5
7
9
9
9
11
13
14
15
16
18
20
22
24
25
26
27
26
25
26
27
27
27
27
27
27
27
27
25
23
20
17
12
7
6
5
2
-1
-4
-7
-9
-11
-12
-13
-14
-15
-16
-17
-17
-17
-16
-15
-15
-15
-16
-17
-16
-15
-15
-15
-15
-15
-15
-15
-16
-17
-17
-17
-16
-15
-15
-15
-15
-15
-15
-15
-15
-16
-17
-17
-17
-18
-19
-18
-17
-18
-19
-19
-19
-19
-19
-19
-19
-19
-19
-20
-21
-22
-22
-20
-19
-20
-21
-21
-21
-20
-16
-12
-11
-11
-11
-11
-10
-11
-8
-5
-2
1
2
3
4
5
5
4
-1
-6
-10
-14
-18
-22
-25
-27
-26
-25
-24
-24
-26
-27
-28
-29
-29
-29
-28
-27
-28
-29
-30
-31
-30
-29
-28
-27
-27
-26
-25
-24
-23
-26
-28
-18
-4
25
68
157
248
342
351
172
16
-100
-159
-133
-101
-61
-37
-28
-23
-24
-25
-25
-25
-24
-23
-23
-23
-23
-23
-23
-23
-22
-21
-22
-21
-18
-17
-19
-18
-17
-16
-15
-14
-13
-12
-11
-11
-11
-10
-9
-8
-7
-6
-5
-4
-3
-1
1
1
2
4
5
5
5
6
8
10
11
11
11
12
12
10
9
9
9
9
9
9
8
9
6
3
1
-1
-3
-5
-9
-13
-15
-18
-22
-25
-25
-25
-26
-27
-28
-29
-29
-29
-29
-29
-29
-29
-29
-29
-29
-29
-30
-30
-28
-27
-27
-27
-27
-27
-27
-27
-27
-27
-27
-28
-29
-30
-31
-30
-29
-28
-27
-28
-29
-30
-31
-32
-33
-32
-31
-32
-33
-33
-33
-34
-35
-34
-33
-33
-33
-34
-35
-34
-33
-32
-31
-30
-29
-28
-27
-26
-25
-24
-22
-19
-18
-17
-13
-9
-8
-7
-5
-3
-7
-12
-16
-20
-24
-28
-31
-33
-35
-37
-35
-33
-34
-35
-36
-37
-38
-39
-40
-40
-38
-37
-38
-39
-40
-41
-40
-39
-38
-37
-37
-37
-37
-34
-33
-35
-36
-23
-6
35
87
186
272
311
283
84
-72
-138
-168
-139
-107
-72
-49
-38
-33
-32
-31
-32
-33
-33
-33
-32
-31
-31
-31
-30
-29
-29
-28
-26
-25
-25
-25
-24
-25
-27
-25
-23
-22
-21
-19
-17
-17
-17
-16
-15
-13
-11
-10
-9
-9
-9
-9
-9
-8
-6
-4
-3
-2
-1
-1
0
2
3
4
5
5
5
5
4
2
1
0
0
2
2
-1
-2
-3
-3
-3
-4
-5
-8
-11
-14
-17
-19
-21
-21
-22
-25
-27
-29
-31
-31
-31
-28
-28
-30
-31
-31
-31
-32
-31
-28
-27
-27
-27
-28
-29
-28
-27
-27
-27
-27
-27
-27
-27
-27
-26
-25
-25
-25
-25
-25
-26
-27
-27
-27
-27
-27
-27
-27
-28
-29
-29
-29
-29
-29
-28
-27
-27
-26
-23
-21
-20
-19
-18
-17
-16
-14
-12
-10
-8
-6
-4
-1
2
1
-1
-6
-11
-15
-19
-25
-31
-29
-27
-28
-29
-29
-29
-30
-31
-31
-31
-32
-33
-33
-33
-32
-31
-30
-29
-30
-31
-30
-29
-28
-26
-24
-25
-28
-24
-18
9
40
114
192
300
405
229
56
-61
-164
-151
-133
-91
-55
-40
-29
-26
-23
-24
-25
-25
-25
-24
-23
-23
-23
-22
-21
-21
-21
-21
-20
-18
-17
-16
-15
-16
-17
-16
-15
-15
-14
-12
-11
-11
-11
-11
-8
-7
-5
-3
-2
-1
-1
-1
1
3
4
5
7
9
10
11
11
11
13
15
16
17
16
15
16
17
17
17
16
15
16
17
16
15
14
11
8
5
2
0
-2
-5
-7
-11
-15
-17
-19
-21
-23
-22
-21
-23
-25
-25
-25
-24
-23
-22
-21
-22
-23
-23
-23
-24
-24
-22
-21
-21
-21
-21
-21
-21
-21
-20
-19
-20
-21
-20
-19
-20
-21
-21
-21
-21
-22
-23
-22
-21
-22
-23
-24
-25
-25
-25
-25
-25
-24
-23
-24
-25
-25
-25
-24
-23
-23
-23
-24
-25
-25
-25
-25
-24
-22
-19
-14
-13
-14
-14
-12
-11
-10
-9
-9
-6
-9
-1
-1
2
5
1
-3
-7
-11
-17
-21
-24
-27
-27
-27
-28
-29
-29
-29
-29
-29
-30
-31
-30
-29
-29
-29
-29
-29
-29
-29
-29
-29
-28
-27
-26
-25
-24
-24
-26
-21
-14
17
49
137
226
323
393
259
122
-29
-147
-150
-142
-96
-60
-41
-28
-24
-21
-23
-25
-26
-27
-27
-26
-24
-23
-23
-23
-23
-23
-22
-21
-21
-21
-20
-19
-19
-19
-19
-18
-16
-15
-15
-14
-13
-12
-11
-9
-7
-7
-7
-6
-5
-4
-3
-2
-1
1
3
4
5
5
5
8
10
12
13
12
12
14
15
14
13
14
15
15
15
15
15
16
17
16
15
15
12
11
7
3
0
-3
-7
-11
-13
-15
-16
-17
-19
-21
-22
-23
-23
-23
-24
-25
-24
-23
-23
-23
-24
-25
-24
-23
-23
-23
-22
-21
-22
-23
-23
-23
-23
-23
-23
-23
-22
-21
-21
-23
-25
-26
-27
-28
-29
-27
-25
-25
-25
-25
-25
-26
-27
-27
-27
-28
-29
-28
-28
-30
-30
-28
-27
-28
-29
-30
-31
-31
-31
-30
-29
-29
-29
-29
-27
-24
-23
-22
-21
-19
-17
-15
-14
-13
-12
-11
-8
-5
-4
-3
-3
-4
-10
-16
-19
-22
-26
-29
-31
-33
-33
-33
-33
-33
-33
-33
-34
-35
-35
-36
-38
-39
-39
-39
-38
-37
-36
-35
-36
-37
-37
-36
-37
-33
-29
-33
-36
-29
-18
12
52
128
212
316
348
226
91
-65
-157
-162
-145
-102
-71
-50
-39
-35
-33
-34
-35
-34
-33
-34
-35
-35
-35
-34
-33
-33
-33
-32
-30
-28
-27
-27
-27
-27
-25
-23
-24
-25
-22
-19
-20
-21
-20
-19
-17
-15
-14
-13
-13
-13
-12
-11
-10
-8
-6
-5
-6
-7
-6
-4
-2
0
2
3
2
1
1
1
0
0
2
3
3
2
1
1
1
1
1
-1
-3
-5
-8
-12
-15
-17
-19
-21
-24
-27
-29
-30
-31
-30
-30
-33
-35
-34
-33
-34
-34
-32
-31
-32
-33
-33
-33
-32
-31
-30
-29
-29
-29
-29
-30
-31
-31
-31
-31
-31
-29
-27
-28
-29
-30
-31
-32
-33
-32
-31
-31
-31
-32
-33
-34
-35
-35
-34
-32
-32
-34
-35
-35
-35
-34
-33
-34
-35
-34
-31
-28
-26
-24
-23
-22
-20
-19
-19
-19
-18
-17
-13
-9
-9
-9
-6
-4
-10
-15
-17
-20
-24
-28
-31
-33
-34
-35
-35
-35
-35
-35
-36
-37
-38
-39
-39
-39
-38
-37
-37
-37
-38
-39
-38
-37
-37
-36
-33
-32
-31
-31
-31
-34
-35
-22
-4
32
82
175
260
327
299
89
-67
-141
-172
-145
-113
-74
-50
-38
-32
-30
-29
-29
-29
-30
-31
-30
-29
-29
-28
-26
-25
-24
-23
-23
-23
-23
-21
-19
-19
-19
-18
-17
-17
-17
-16
-15
-13
-11
-10
-9
-8
-7
-7
-6
-3
-1
-2
-2
0
2
4
5
6
7
7
7
8
9
9
9
10
11
10
9
9
9
8
8
9
9
9
8
7
4
1
0
-1
-5
-9
-10
-11
-15
-17
-18
-19
-21
-23
-21
-19
-20
-21
-21
-21
-21
-21
-21
-21
-20
-19
-18
-17
-18
-19
-18
-17
-17
-17
-16
-15
-15
-16
-17
-16
-15
-16
-17
-17
-17
-17
-17
-18
-19
-19
-19
-19
-19
-19
-19
-19
-19
-19
-19
-20
-20
-18
-18
-20
-21
-20
-19
-20
-21
-20
-19
-18
-15
-12
-11
-11
-10
-11
-6
-5
-3
-1
2
5
6
7
9
11
9
6
1
-4
-9
-14
-17
-19
-20
-21
-21
-21
-21
-21
-22
-23
-23
-23
-23
-23
-23
-23
-24
-25
-24
-23
-23
-23
-22
-21
-20
-17
-15
-18
-21
-18
-12
16
50
114
190
304
369
294
184
1
-125
-147
-144
-100
-63
-35
-20
-17
-15
-14
-13
-14
-15
-15
-15
-14
-13
-13
-13
-13
-13
-12
-11
-11
-11
-11
-11
-9
-8
-7
-5
-3
-3
-3
-2
-1
0
1
2
3
4
5
5
5
7
9
11
13
14
15
16
17
18
19
20
22
24
25
25
25
26
27
27
27
28
28
26
25
25
27
27
27
27
25
23
20
17
16
15
12
9
6
2
-1
-3
-5
-7
-8
-9
-10
-11
-11
-11
-12
-13
-12
-11
-11
-11
-11
-11
-11
-11
-11
-11
-11
-11
-11
-11
-12
-12
-11
-10
-9
-9
-9
-10
-11
-12
-13
-12
-11
-11
-11
-12
-13
-12
-11
-12
-13
-14
-15
-14
-13
-13
-13
-14
-15
-15
-15
-15
-15
-14
-13
-13
-13
-14
-15
-15
-14
-12
-11
-13
-13
-13
-13
-13
-9
-5
-4
-3
-2
-1
0
1
2
3
5
7
9
11
13
15
15
12
6
1
-3
-7
-11
-13
-14
-15
-15
-15
-16
-17
-17
-17
-18
-19
-19
-19
-19
-18
-19
-19
-19
-19
-19
-18
-17
-15
-13
-12
-11
-14
-15
-8
6
32
78
154
249
364
343
192
47
-92
-142
-133
-100
-55
-32
-19
-15
-14
-13
-13
-13
-13
-13
-13
-13
-13
-12
-11
-11
-11
-10
-9
-9
-9
-8
-7
-7
-7
-5
-3
-3
-3
-2
-1
-1
-1
1
3
3
3
4
5
6
7
8
10
12
13
14
16
18
19
19
19
20
21
22
23
23
23
23
24
25
25
25
24
23
23
23
22
21
22
23
21
19
17
14
11
9
6
3
-1
-4
-7
-10
-12
-13
-13
-13
-14
-15
-15
-15
-15
-15
-15
-15
-15
-15
-15
-16
-15
-15
-15
-15
-15
-15
-15
-15
-15
-15
-15
-15
-15
-16
-17
-18
-19
-18
-17
-17
-17
-18
-19
-19
-19
-19
-19
-20
-21
-21
-21
-22
-23
-23
-23
-22
-21
-21
-21
-22
-23
-23
-23
-23
-23
-23
-24
-25
-24
-23
-24
-25
-24
-23
-23
-22
-19
-17
-16
-15
-15
-15
-14
-12
-10
-8
-6
-4
0
1
2
3
4
1
-5
-10
-14
-18
-22
-24
-26
-27
-27
-27
-27
-28
-29
-29
-29
-31
-33
-33
-33
-32
-31
-31
-31
-31
-31
-31
-31
-29
-27
-26
-25
-26
-27
-27
-27
-26
-11
10
52
101
192
295
315
315
143
-58
-123
-174
-144
-177
-77
-45
-35
-25
-26
-27
-27
-27
-27
-27
-26
-25
-24
-23
-23
-23
-23
-23
-22
-21
-20
-19
-19
-19
-18
-17
-16
-15
-14
-13
-13
-13
-13
-12
-10
-9
-8
-7
-7
-7
-6
-4
-3
-2
-1
0
1
1
1
2
3
4
5
6
7
7
7
7
7
6
5
6
6
4
3
3
3
3
3
2
1
0
-3
-6
-8
-10
-13
-16
-18
-20
-21
-22
-23
-25
-25
-25
-25
-25
-26
-27
-27
-27
-27
-27
-26
-25
-25
-25
-25
-25
-25
-25
-23
-21
-22
-23
-24
-25
-24
-23
-24
-25
-25
-25
-25
-25
-26
-27
-27
-27
-27
-27
-28
-29
-29
-27
-27
-27
-27
-29
-31
-31
-31
-30
-29
-29
-29
-29
-29
-29
-29
-29
-28
-25
-23
-20
-19
-20
-20
-17
-15
-14
-13
-12
-9
-5
-3
-3
-1
2
0
-4
-8
-12
-16
-20
-24
-27
-28
-29
-28
-27
-29
-31
-30
-29
-30
-31
-30
-29
-30
-31
-31
-31
-31
-31
-29
-27
-27
-27
-26
-25
-24
-23
-24
-24
-22
-6
14
59
110
210
321
309
278
103
-85
-131
-173
-134
-96
-64
-35
-26
-19
-20
-21
-21
-21
-22
-23
-22
-21
-20
-19
-18
-17
-16
-15
-15
-15
-14
-13
-12
-11
-11
-11
-10
-9
-9
-8
-6
-5
-4
-2
0
1
0
-1
-1
2
3
6
9
10
11
11
11
12
13
15
17
17
17
17
17
17
17
17
17
17
17
17
17
18
19
18
17
17
16
14
11
8
6
4
1
-2
-4
-6
-8
-10
-13
-15
-16
-17
-16
-15
-16
-17
-16
-15
-16
-17
-17
-17
-16
-15
-14
-13
-14
-15
-15
-15
-15
-15
-14
-13
-13
-13
-14
-15
-14
-13
-12
-11
-12
-13
-14
-15
-16
-17
-16
-15
-17
-17
-17
-17
-17
-17
-17
-17
-17
-18
-19
-20
-21
-20
-19
-19
-19
-19
-19
-19
-19
-19
-19
-19
-19
-19
-19
-20
-20
-18
-16
-14
-11
-8
-7
-6
-5
-5
-5
-4
-2
-3
3
5
6
7
7
7
2
-3
-5
-7
-12
-16
-20
-23
-23
-23
-23
-23
-23
-23
-23
-23
-24
-25
-25
-25
-24
-23
-24
-25
-24
-23
-23
-22
-20
-19
-18
-18
-20
-12
-2
32
67
157
247
334
388
201
27
-81
-159
-132
-101
-62
-33
-25
-19
-18
-17
-19
-21
-20
-19
-20
-20
-18
-17
-17
-17
-18
-19
-18
-17
-16
-15
-15
-15
-14
-13
-12
-11
-10
-9
-9
-8
-7
-5
-3
-3
-3
-1
1
1
1
2
3
5
7
9
11
11
11
12
13
14
15
16
17
17
17
17
17
17
17
17
17
17
17
17
17
17
15
12
10
11
4
1
-1
-3
-7
-11
-12
-13
-15
-17
-18
-19
-20
-21
-21
-21
-21
-21
-20
-19
-19
-19
-20
-21
-20
-19
-19
-19
-19
-19
-19
-19
-19
-19
-19
-19
-18
-17
-18
-19
-19
-19
-19
-20
-21
-20
-19
-20
-21
-21
-21
-22
-23
-23
-23
-23
-23
-23
-23
-24
-25
-24
-24
-26
-27
-26
-25
-25
-25
-26
-26
-24
-23
-23
-23
-24
-25
-26
-27
-27
-26
-24
-23
-25
-25
-25
-23
-21
-17
-13
-14
-15
-14
-13
-13
-13
-10
-6
-3
-1
-1
0
3
4
1
-3
-8
-13
-17
-21
-25
-27
-27
-27
-27
-27
-28
-29
-29
-29
-30
-31
-32
-33
-33
-33
-33
-32
-31
-30
-29
-29
-29
-28
-27
-27
-27
-28
-24
-6
24
75
149
254
314
321
220
15
-102
-151
-148
-109
-76
-46
-35
-32
-30
-28
-27
-28
-29
-30
-31
-30
-29
-28
-27
-27
-28
-29
-28
-27
-26
-25
-25
-25
-25
-25
-24
-23
-22
-21
-20
-19
-19
-19
-17
-15
-15
-14
-12
-11
-12
-13
-12
-10
-8
-5
-2
-1
-2
-3
-3
-3
-2
0
2
3
1
1
1
2
3
3
3
2
1
1
1
0
-1
-1
-1
-2
-3
-5
-8
-11
-13
-16
-19
-23
-25
-26
-28
-31
-33
-33
-33
-33
-33
-33
-33
-33
-33
-32
-32
-34
-35
-35
-34
-33
-32
-31
-32
-33
-33
-33
-32
-31
-31
-31
-33
-35
-35
-35
-36
-37
-35
-33
-34
-35
-35
-35
-35
-35
-36
-37
-37
-37
-36
-36
-38
-39
-38
-37
-38
-39
-40
-41
-40
-38
-37
-37
-37
-38
-39
-38
-37
-37
-37
-37
-37
-35
-33
-29
-27
-28
-29
-27
-25
-24
-23
-22
-19
-14
-11
-12
-11
-7
-6
-8
-12
-17
-23
-28
-30
-32
-34
-36
-37
-37
-37
-39
-40
-41
-40
-39
-39
-39
-41
-43
-42
-41
-41
-41
-40
-39
-38
-37
-38
-39
-37
-35
-36
-35
-30
-13
13
62
126
219
326
293
204
57
-108
-154
-174
-142
-101
-75
-51
-43
-49
-35
-35
-34
-33
-32
-31
-32
-33
-31
-29
-30
-31
-30
-29
-29
-29
-28
-27
-25
-23
-23
-23
-23
-22
-20
-19
-19
-19
-19
-18
-16
-15
-14
-12
-10
-9
-9
-9
-8
-6
-4
-2
-1
-1
-1
-1
-1
-1
-1
2
5
4
3
3
3
3
3
2
1
0
-1
0
1
0
-1
-1
-2
-4
-6
-8
-9
-10
-12
-14
-18
-22
-23
-24
-25
-26
-27
-26
-25
-25
-25
-25
-23
-21
-22
-23
-23
-23
-23
-23
-24
-25
-23
-21
-21
-21
-22
-23
-22
-21
-21
-21
-21
-21
-20
-20
-22
-23
-23
-23
-24
-25
-24
-23
-22
-21
-21
-22
-24
-25
-25
-23
-23
-22
-21
-23
-25
-25
-25
-24
-23
-21
-19
-17
-15
-14
-13
-12
-11
-10
-9
-6
-4
-2
0
2
4
6
6
4
0
-5
-10
-14
-16
-18
-20
-22
-23
-23
-23
-24
-24
-23
-24
-25
-25
-25
-27
-29
-27
-25
-25
-25
-25
-25
-24
-23
-22
-21
-20
-19
-19
-19
-20
-11
9
44
90
173
276
328
357
215
10
-87
-155
-141
-109
-75
-40
-28
-18
-17
-19
-18
-17
-16
-15
-15
-15
-15
-15
-15
-15
-14
-13
-12
-11
-11
-11
-10
-9
-9
-9
-6
-5
-5
-5
-4
-3
-3
-1
2
3
3
4
6
7
8
9
10
11
12
13
13
17
19
21
23
23
23
23
23
24
25
25
25
25
25
25
25
24
23
23
23
22
20
17
14
12
9
5
1
-2
-4
-6
-9
-12
-13
-13
-13
-14
-15
-15
-15
-15
-14
-13
-14
-15
-15
-15
-15
-15
-14
-13
-13
-13
-13
-13
-13
-13
-12
-11
-11
-11
-11
-11
-12
-13
-12
-11
-12
-13
-13
-13
-13
-13
-13
-13
-14
-15
-15
-15
-15
-15
-15
-15
-17
-17
-17
-16
-15
-15
-15
-16
-17
-17
-17
-16
-14
-10
-7
-6
-5
-5
-5
-3
-1
0
2
4
6
8
9
10
11
11
7
1
-3
-6
-10
-14
-15
-16
-17
-17
-17
-17
-19
-21
-21
-21
-21
-21
-21
-21
-21
-21
-21
-21
-21
-21
-20
-19
-19
-19
-17
-15
-16
-17
-16
-5
13
52
103
192
302
331
325
176
-21
-101
-153
-128
-88
-58
-29
-22
-16
-14
-13
-15
-17
-17
-17
-17
-17
-15
-13
-13
-13
-13
-13
-13
-13
-12
-11
-10
-9
-8
-7
-7
-7
-6
-5
-5
-4
-2
-1
0
1
2
3
4
6
8
9
9
10
12
14
17
17
17
18
19
21
23
24
25
25
25
23
21
22
23
23
23
23
23
23
23
22
20
17
14
12
9
5
1
-2
-5
-8
-9
-10
-12
-14
-15
-16
-17
-18
-18
-19
-17
-19
-18
-17
-18
-19
-19
-19
-17
-15
-16
-17
-18
-19
-18
-17
-17
-17
-17
-17
-17
-17
-17
-17
-16
-15
-16
-17
-18
-19
-18
-17
-17
-17
-18
-19
-20
-21
-21
-21
-21
-20
-19
-20
-21
-22
-23
-22
-21
-22
-23
-23
-23
-23
-23
-23
-23
-22
-21
-21
-20
-17
-15
-14
-13
-12
-11
-10
-9
-8
-5
-1
1
2
3
4
4
2
-3
-8
-12
-16
-19
-23
-26
-29
-27
-25
-25
-25
-27
-29
-30
-31
-32
-33
-31
-29
-29
-29
-31
-33
-32
-31
-30
-29
-28
-26
-24
-25
-29
-25
-14
10
40
118
211
302
392
248
65
-53
-163
-149
-169
-90
-53
-40
-27
-26
-25
-26
-27
-26
-25
-25
-25
-25
-25
-24
-23
-22
-21
-22
-23
-23
-22
-20
-19
-18
-17
-17
-17
-17
-16
-14
-12
-10
-9
-10
-11
-10
-9
-8
-6
-4
-1
1
1
1
2
3
3
3
5
7
8
9
9
9
10
11
11
11
11
11
10
8
6
6
8
9
10
10
8
6
4
2
0
-4
-8
-10
-12
-17
-22
-23
-23
-23
-25
-26
-27
-26
-25
-26
-27
-28
-29
-28
-27
-27
-27
-26
-25
-25
-25
-25
-25
-25
-25
-22
-22
-24
-24
-22
-21
-22
-23
-23
-23
-24
-25
-24
-23
-23
-23
-23
-23
-24
-25
-25
-27
-27
-26
-25
-25
-25
-27
-29
-28
-27
-26
-25
-25
-25
-25
-25
-25
-24
-21
-19
-18
-16
-14
-12
-10
-9
-10
-9
-5
-3
-2
1
4
1
-6
-9
-12
-17
-22
-24
-26
-26
-25
-27
-29
-29
-29
-30
-31
-31
-31
-31
-31
-30
-29
-30
-31
-31
-31
-30
-29
-27
-25
-26
-26
-23
-23
-27
-24
-16
8
38
93
157
250
351
299
214
55
-115
-147
-168
-132
-93
-64
-37
-29
-21
-22
-23
-22
-21
-21
-21
-20
-19
-19
-19
-18
-17
-17
-16
-13
-11
-11
-11
-11
-11
-11
-11
-10
-8
-6
-5
-5
-5
-4
-2
0
2
4
5
5
5
5
6
7
9
11
12
13
14
15
15
15
17
19
20
21
21
21
21
21
20
19
19
19
20
21
20
19
19
19
18
16
14
11
8
5
2
0
-2
-4
-6
-7
-8
-10
-11
-13
-15
-14
-13
-13
-13
-13
-13
-13
-13
-12
-11
-11
-11
-11
-11
-10
-9
-10
-11
-11
-11
-10
-9
-9
-9
-10
-10
-8
-7
-7
-8
-10
-11
-11
-11
-12
-13
-12
-11
-11
-13
-15
-14
-13
-13
-13
-13
-13
-12
-11
-11
-11
-12
-13
-13
-12
-9
-6
-3
-1
-2
-2
1
3
2
2
5
9
12
13
13
14
16
13
8
4
0
-3
-6
-10
-7
-16
-17
-16
-15
-15
-15
-16
-17
-17
-17
-17
-17
-16
-15
-15
-15
-16
-17
-16
-15
-15
-15
-14
-12
-10
-9
-10
-11
-12
-1
18
59
107
198
301
346
381
207
6
-79
-157
-127
-94
-59
-25
-17
-9
-10
-11
-10
-9
-10
-11
-11
-11
-10
-9
-7
-5
-7
-9
-8
-7
-7
-6
-4
-3
-3
-3
-3
-3
-2
1
4
5
5
5
5
5
5
7
10
11
13
14
15
17
19
20
21
23
25
26
27
27
27
29
31
31
31
31
31
33
35
35
35
34
33
33
33
32
30
28
25
22
18
14
10
6
4
2
-1
-4
-6
-5
-11
-13
-12
-11
-12
-13
-12
-11
-11
-11
-11
-11
-12
-13
-11
-9
-10
-11
-10
-9
-10
-11
-11
-11
-10
-9
-9
-9
-9
-9
-10
-11
-11
-11
-11
-11
-11
-11
-11
-11
-11
-11
-11
-12
-13
-13
-13
-14
-15
-15
-15
-15
-15
-15
-15
-15
-15
-15
-15
-15
-15
-15
-15
-16
-17
-16
-15
-16
-17
-16
-15
-14
-12
-10
-8
-6
-5
-5
-4
-2
-1
-1
-1
1
4
7
9
11
12
13
12
10
5
0
-4
-7
-9
-12
-16
-19
-19
-19
-18
-17
-18
-19
-20
-21
-21
-21
-21
-21
-21
-21
-21
-21
-21
-21
-20
-19
-18
-17
-17
-17
-17
-15
-15
-14
-11
10
37
96
164
270
343
309
230
38
-101
-133
-138
-96
-61
-37
-22
-17
-15
-15
-15
-16
-17
-17
-17
-17
-17
-16
-15
-15
-15
-14
-13
-13
-13
-12
-11
-10
-8
-7
-7
-7
-7
-7
-7
-7
-5
-3
-3
-3
-2
-1
1
3
4
5
6
7
8
10
12
14
16
17
17
17
18
19
20
21
22
23
22
21
22
22
20
19
19
19
19
18
17
12
7
3
-1
-3
-5
-9
-13
-15
-17
-19
-21
-21
-21
-21
-21
-21
-21
-22
-23
-24
-25
-25
-25
-24
-23
-22
-21
-22
-23
-23
-23
-22
-21
-21
-21
-22
-23
-23
-23
-23
-22
-21
-22
-23
-24
-25
-25
-25
-24
-23
-24
-25
-26
-27
-28
-29
-28
-27
-27
-27
-28
-29
-28
-27
-27
-27
-27
-27
-27
-27
-28
-29
-28
-27
-27
-27
-28
-29
-29
-29
-29
-30
-31
-29
-27
-26
-25
-22
-19
-19
-19
-17
-15
-13
-11
-9
-7
-6
-5
-4
-3
-3
-4
-7
-12
-17
-20
-24
-27
-30
-31
-30
-29
-29
-29
-30
-32
-34
-35
-34
-33
-35
-34
-33
-33
-33
-32
-31
-32
-33
-32
-31
-30
-29
-28
-27
-29
-26
-13
13
55
121
213
290
354
267
70
-59
-146
-160
-138
-104
-65
-45
-32
-29
-29
-29
-29
-29
-29
-29
-29
-27
-25
-25
-25
-24
-23
-22
-21
-21
-21
-20
-19
-20
-21
-20
-19
-18
-17
-16
-15
-14
-13
-12
-11
-10
-9
-8
-7
-6
-5
-5
-5
-5
-4
-2
0
2
3
3
4
6
8
9
9
9
8
7
8
9
9
9
8
7
5
3
4
5
6
6
3
0
-4
-8
-11
-13
-14
-16
-18
-20
-24
-25
-25
-26
-28
-29
-29
-29
-30
-31
-31
-31
-31
-30
-27
-27
-27
-28
-29
-29
-29
-29
-29
-28
-27
-27
-27
-27
-27
-27
-27
-26
-25
-26
-27
-26
-25
-26
-27
-27
-27
-27
-27
-28
-29
-29
-29
-29
-29
-29
-29
-30
-30
-28
-28
-27
-30
-29
-29
-29
-29
-29
-29
-29
-28
-27
-24
-21
-21
-21
-19
-17
-17
-17
-15
-12
-7
-5
-4
-2
1
0
-5
-10
-15
-19
-23
-27
-30
-31
-30
-29
-28
-28
-30
-31
-31
-31
-31
-31
-31
-31
-31
-31
-31
-30
-29
-29
-29
-28
-27
-26
-25
-23
-22
-25
-21
-7
20
60
133
232
300
348
234
28
-84
-152
-148
-116
-82
-47
-34
-25
-23
-22
-21
-21
-21
-21
-19
-17
-18
-19
-19
-19
-19
-19
-17
-15
-14
-13
-13
-13
-13
-13
-12
-11
-10
-9
-8
-7
-6
-5
-4
-3
-2
-1
0
1
2
3
4
5
6
9
12
13
12
12
11
15
15
18
21
21
21
21
21
21
21
21
21
21
21
21
21
19
17
17
16
13
10
7
4
1
-2
-5
-9
-12
-13
-14
-16
-18
-19
-20
-21
-22
-23
-22
-21
-20
-19
-19
-19
-19
-19
-19
-19
-19
-18
-17
-18
-19
-19
-19
-17
-15
-15
-15
-16
-17
-17
-17
-18
-18
-16
-16
-18
-19
-19
-19
-19
-19
-19
-19
-20
-21
-21
-21
-22
-23
-22
-21
-21
-22
-23
-22
-21
-22
-23
-23
-23
-22
-21
-22
-23
-22
-21
-22
-22
-19
-16
-13
-11
-10
-9
-9
-9
-8
-6
-4
-1
2
3
4
5
4
0
-4
-8
-12
-16
-20
-22
-21
-25
-25
-25
-25
-26
-27
-27
-27
-27
-27
-27
-27
-28
-29
-27
-25
-26
-27
-26
-25
-25
-24
-22
-20
-18
-18
-21
-15
-3
24
56
127
210
305
403
292
142
1
-140
-147
-144
-99
-55
-40
-25
-23
-21
-22
-23
-22
-21
-23
-25
-23
-21
-20
-19
-19
-19
-19
-19
-18
-16
-14
-13
-14
-15
-14
-13
-13
-13
-12
-11
-10
-9
-8
-7
-7
-6
-4
-3
-2
-1
1
2
3
4
5
8
11
12
13
14
15
15
15
17
19
20
21
22
23
22
21
22
23
22
21
21
21
21
20
18
15
10
6
2
0
-2
-6
-10
-13
-16
-18
-17
-22
-23
-22
-21
-21
-21
-22
-23
-22
-21
-21
-21
-22
-23
-22
-21
-22
-23
-22
-21
-21
-21
-21
-21
-21
-21
-21
-21
-21
-21
-22
-23
-22
-21
-22
-23
-23
-23
-23
-23
-22
-22
-23
-24
-25
-25
-25
-24
-23
-24
-25
-25
-25
-25
-25
-25
-25
-26
-27
-27
-27
-27
-27
-27
-27
-26
-25
-25
-24
-22
-20
-18
-17
-16
-15
-14
-13
-12
-11
-10
-6
-2
-1
-1
2
5
0
-5
-9
-13
-16
-19
-22
-25
-27
-29
-29
-29
-30
-31
-31
-31
-30
-29
-32
-33
-33
-33
-32
-31
-31
-31
-30
-29
-30
-31
-30
-28
-26
-26
-28
-28
-26
-3
-25
86
154
262
356
302
230
45
-111
-147
-166
-124
-85
-57
-36
-32
-29
-30
-31
-30
-29
-29
-29
-29
-28
-26
-25
-25
-25
-25
-25
-25
-25
-24
-23
-23
-23
-22
-21
-21
-20
-18
-16
-15
-14
-13
-12
-11
-10
-9
-8
-7
-7
-7
-7
-6
-2
1
2
3
4
5
5
5
6
7
8
9
9
10
12
12
10
9
9
9
9
9
9
9
8
6
4
1
-3
-6
-9
-13
-17
-19
-21
-23
-25
-27
-29
-28
-27
-28
-29
-30
-31
-30
-29
-28
-27
-27
-27
-28
-29
-29
-29
-29
-29
-28
-27
-26
-26
-28
-29
-29
-28
-26
-25
-26
-27
-27
-29
-31
-28
-25
-26
-27
-27
-27
-29
-31
-30
-29
-30
-31
-31
-31
-32
-33
-32
-31
-32
-33
-32
-30
-28
-27
-28
-29
-30
-31
-31
-30
-28
-25
-22
-21
-21
-21
-20
-17
-14
-12
-11
-8
-5
-5
-5
-5
-5
-9
-13
-16
-20
-24
-27
-29
-31
-30
-29
-31
-33
-34
-35
-36
-36
-34
-33
-34
-35
-35
-35
-35
-35
-34
-33
-34
-34
-32
-31
-31
-30
-28
-28
-31
-25
-18
7
35
97
165
268
339
279
189
12
-121
-151
-157
-116
-81
-54
-36
-29
-25
-26
-27
-28
-29
-29
-29
-28
-25
-22
-21
-22
-23
-23
-23
-22
-20
-18
-17
-17
-17
-17
-15
-15
-13
-11
-11
-11
-9
-7
-7
-7
-5
-3
-2
-1
-1
-1
1
3
5
7
7
8
10
11
12
13
13
13
14
15
14
13
13
13
13
13
13
13
14
15
15
13
11
9
7
4
1
-2
-5
-7
-9
-12
-15
-16
-17
-17
-17
-18
-19
-19
-19
-19
-19
-19
-19
-18
-17
-18
-19
-19
-19
-18
-17
-17
-17
-17
-17
-16
-15
-16
-16
-14
-14
-17
-17
-17
-17
-17
-16
-15
-16
-17
-18
-19
-19
-19
-19
-19
-19
-19
-20
-21
-20
-19
-19
-19
-19
-19
-19
-19
-19
-19
-18
-17
-18
-19
-19
-18
-16
-12
-8
-7
-8
-8
-9
-5
-5
-2
1
3
5
5
5
7
9
7
4
-1
-6
-9
-12
-16
-19
-19
-19
-19
-19
-20
-21
-21
-21
-21
-21
-22
-23
-22
-21
-22
-23
-22
-21
-21
-21
-20
-19
-18
-15
-13
-15
-17
-14
-9
14
44
114
193
306
368
287
176
-2
-123
-140
-133
-87
-51
-29
-17
-16
-15
-15
-15
-15
-15
-15
-15
-15
-15
-15
-15
-15
-15
-14
-13
-12
-11
-10
-9
-11
-9
-7
-6
-5
-4
-3
-3
-3
-2
-1
1
3
4
5
6
7
7
8
11
13
14
15
16
17
18
19
20
22
24
25
25
25
25
25
26
27
28
29
29
29
29
28
27
28
29
26
23
20
17
13
9
7
4
0
-4
-7
-9
-11
-13
-14
-15
-15
-15
-16
-17
-16
-15
-15
-15
-15
-15
-15
-15
-15
-15
-14
-13
-14
-15
-15
-15
-14
-13
-13
-13
-13
-14
-15
-15
-15
-14
-13
-14
-15
-16
-17
-16
-15
-15
-15
-16
-17
-17
-18
-20
-20
-18
-17
-18
-19
-19
-19
-19
-19
-18
-17
-18
-19
-19
-19
-20
-21
-20
-19
-19
-20
-21
-19
-17
-16
-15
-12
-9
-9
-9
-7
-5
-4
-3
-2
0
3
5
7
9
10
9
5
1
-5
-8
-11
-15
-18
-19
-20
-21
-20
-19
-20
-21
-22
-23
-23
-23
-23
-24
-23
-23
-23
-23
-23
-23
-23
-22
-21
-20
-19
-18
-17
-19
-20
-17
-6
17
54
108
192
302
333
300
173
-14
-105
-146
-131
-90
-60
-33
-23
-18
-17
-17
-17
-18
-19
-19
-19
-19
-17
-15
-16
-17
-18
-19
-17
-15
-15
-15
-14
-13
-11
-9
-9
-9
-9
-9
-8
-7
-6
-5
-4
-3
-3
-3
-2
1
4
5
6
7
7
7
7
8
10
13
16
17
17
16
15
17
19
20
21
20
19
19
19
18
17
18
19
19
18
15
13
11
8
5
2
-1
-5
-9
-12
-14
-16
-18
-20
-22
-23
-23
-23
-22
-21
-21
-21
-22
-23
-23
-22
-23
-21
-19
-21
-23
-23
-23
-23
-23
-24
-25
-23
-21
-21
-21
-22
-23
-23
-23
-23
-23
-23
-23
-23
-23
-24
-25
-26
-27
-26
-25
-25
-25
-26
-27
-28
-29
-28
-27
-26
-27
-29
-29
-29
-30
-31
-29
-27
-27
-27
-27
-27
-28
-29
-29
-29
-27
-25
-24
-23
-21
-19
-19
-17
-13
-11
-12
-12
-10
-7
-3
-1
-1
-1
0
-3
-8
-13
-18
-20
-22
-24
-27
-28
-29
-29
-29
-30
-31
-31
-31
-32
-33
-33
-33
-33
-33
-33
-33
-33
-33
-33
-33
-30
-29
-29
-29
-28
-27
-28
-29
-29
-17
0
39
84
171
267
308
340
165
-31
-105
-41
-147
-120
-83
-48
-37
-27
-27
-27
-26
-25
-25
-25
-26
-27
-27
-27
-25
-23
-22
-21
-20
-20
-22
-23
-22
-20
-18
-17
-16
-15
-16
-16
-14
-13
-13
-12
-10
-9
-8
-7
-6
-4
-3
-3
-3
-2
-1
0
1
4
7
6
5
6
7
8
9
10
11
9
7
7
7
6
5
6
7
6
5
5
3
0
-2
-4
-8
-12
-14
-16
-18
-20
-21
-22
-23
-25
-25
-25
-26
-27
-27
-27
-26
-25
-26
-27
-26
-25
-25
-25
-24
-23
-23
-23
-24
-25
-25
-25
-24
-23
-24
-25
-24
-23
-22
-21
-22
-23
-22
-21
-22
-23
-23
-23
-24
-25
-25
-26
-25
-24
-23
-25
-27
-25
-23
-23
-23
-23
-23
-23
-23
-23
-23
-22
-20
-16
-13
-13
-13
-12
-11
-10
-9
-8
-5
-1
1
2
3
4
2
-2
-4
-6
-11
-16
-19
-22
-24
-25
-24
-23
-23
-23
-24
-25
-25
-25
-26
-27
-27
-27
-26
-25
-25
-25
-25
-25
-24
-23
-22
-21
-20
-19
-19
-20
-22
-13
2
37
79
164
260
323
379
213
13
-78
-160
-140
-115
-78
-43
-29
-17
-16
-15
-16
-17
-17
-17
-17
-17
-15
-13
-14
-15
-15
-15
-13
-11
-11
-11
-11
-11
-10
-9
-8
-7
-6
-5
-4
-3
-3
-1
2
3
4
5
6
7
7
7
9
11
13
15
17
18
19
20
21
21
21
22
23
23
23
22
21
22
23
23
23
23
23
22
21
20
18
16
14
12
9
6
4
2
-2
-6
-8
-10
-12
-14
-15
-15
-15
-15
-17
-19
-17
-15
-15
-15
-15
-15
-15
-15
-15
-15
-14
-13
-14
-15
-14
-13
-14
-14
-12
-11
-11
-11
-12
-13
-13
-13
-12
-11
-12
-13
-13
-14
-16
-17
-16
-15
-17
-17
-17
-16
-15
-16
-17
-17
-17
-17
-17
-17
-17
-16
-15
-16
-17
-18
-19
-17
-15
-15
-15
-16
-16
-14
-12
-9
-7
-6
-5
-4
-3
-3
-3
-2
3
8
9
9
10
9
9
5
2
-1
-5
-9
-13
-17
-17
-17
-18
-19
-19
-19
-18
-17
-19
-21
-20
-19
-20
-21
-21
-21
-20
-19
-18
-17
-18
-19
-18
-17
-16
-15
-16
-11
-4
24
55
140
229
327
418
246
78
-47
-155
-133
-109
-70
-37
-25
-15
-14
-13
-14
-15
-15
-15
-15
-15
-15
-15
-14
-13
-13
-13
-13
-12
-10
-9
-8
-7
-7
-7
-8
-9
-8
-7
-6
-5
-4
-3
-1
0
1
2
3
4
5
7
9
9
9
11
13
14
15
16
17
18
19
20
21
22
23
23
23
23
23
24
25
25
25
25
25
24
23
22
19
16
14
12
8
11
0
-3
-5
-7
-10
-13
-14
-15
-15
-15
-16
-17
-18
-19
-18
-17
-18
-19
-17
-15
-16
-17
-18
-19
-18
-17
-16
-15
-16
-17
-17
-17
-18
-19
-18
-17
-16
-16
-18
-19
-18
-17
-17
-18
-19
-19
-19
-20
-21
-21
-21
-21
-21
-21
-21
-21
-21
-21
-21
-22
-23
-22
-22
-24
-24
-22
-22
-24
-25
-25
-24
-22
-21
-21
-21
-21
-20
-18
-17
-16
-14
-12
-11
-11
-10
-9
-6
-3
-1
1
3
5
3
0
-5
-10
-14
-18
-21
-23
-24
-25
-25
-25
-26
-27
-28
-29
-30
-31
-30
-29
-29
-29
-30
-31
-31
-31
-30
-29
-28
-27
-26
-25
-25
-27
-27
-26
-24
-4
20
76
140
243
320
306
243
55
-87
-139
-158
-124
-90
-57
-37
-30
-27
-26
-25
-26
-27
-27
-27
-27
-27
-26
-25
-25
-25
-24
-23
-23
-23
-23
-22
-20
-19
-19
-19
-19
-17
-15
-16
-17
-16
-15
-15
-15
-13
-11
-10
-9
-7
-5
-6
-7
-5
-3
-2
0
3
5
4
3
2
2
4
6
8
9
8
7
7
7
6
7
10
11
9
7
5
5
5
3
1
-3
-7
-9
-12
-16
-19
-20
-22
-25
-27
-28
-29
-29
-29
-29
-29
-30
-31
-30
-29
-29
-29
-28
-28
-30
-31
-30
-29
-29
-29
-29
-29
-29
-29
-29
-27
-27
-27
-27
-27
-27
-27
-27
-28
-29
-29
-29
-30
-31
-30
-29
-30
-31
-30
-29
-30
-31
-32
-33
-32
-31
-31
-31
-31
-31
-31
-29
-26
-25
-24
-23
-22
-21
-20
-19
-18
-13
-9
-8
-7
-5
-3
-6
-9
-13
-17
-20
-24
-28
-31
-32
-33
-34
-35
-35
-35
-35
-35
-36
-37
-37
-37
-37
-37
-37
-37
-37
-37
-37
-37
-37
-36
-34
-33
-32
-30
-28
-31
-37
-23
-7
32
77
172
262
320
328
135
-32
-118
-173
-149
-121
-84
-56
-42
-33
-31
-29
-29
-29
-29
-29
-29
-29
-29
-28
-26
-25
-25
-25
-24
-23
-23
-23
-22
-21
-20
-19
-19
-17
-17
-15
-13
-14
-15
-13
-11
-10
-9
-8
-7
-7
-7
-5
-3
-2
-1
1
3
3
3
4
6
8
9
10
11
11
11
11
11
10
9
9
9
9
9
9
9
8
7
7
5
3
0
-3
-6
-9
-10
-11
-14
-17
-19
-21
-21
-21
-21
-21
-22
-23
-23
-23
-23
-22
-20
-19
-20
-21
-21
-21
-20
-19
-19
-19
-19
-19
-19
-19
-19
-19
-18
-17
-17
-18
-19
-19
-19
-19
-19
-19
-19
-19
-19
-20
-21
-21
-21
-21
-21
-21
-21
-21
-21
-21
-21
-21
-21
-21
-20
-17
-14
-12
-11
-11
-11
-10
-7
-4
-2
0
1
2
3
3
5
5
2
-1
-6
-11
-14
-17
-19
-21
-21
-21
-22
-23
-23
-23
-25
-27
-26
-25
-26
-27
-27
-26
-24
-23
-24
-25
-25
-25
-24
-23
-22
-20
-18
-18
-20
-19
-16
5
26
86
148
265
369
314
242
57
-102
-136
-154
-110
-70
-43
-22
-18
-15
-16
-17
-17
-17
-17
-17
-18
-18
-16
-15
-16
-16
-14
-12
-10
-9
-10
-11
-11
-11
-11
-11
-10
-7
-4
-3
-3
-3
-3
-1
1
3
5
6
7
8
9
9
9
12
15
16
17
19
21
23
25
26
27
27
27
26
25
26
27
28
29
28
27
26
25
25
25
24
21
18
13
17
4
1
-3
-7
-8
-9
-11
-13
-14
-15
-16
-17
-17
-17
-17
-17
-16
-15
-14
-13
-14
-15
-14
-13
-13
-13
-13
-13
-13
-13
-14
-15
-14
-13
-13
-13
-13
-13
-13
-13
-12
-11
-11
-12
-13
-14
-15
-16
-17
-16
-15
-15
-15
-16
-17
-16
-15
-15
-15
-16
-17
-17
-17
-18
-19
-18
-17
-17
-17
-16
-13
-10
-8
-6
-5
-5
-5
-4
-3
-2
2
6
7
7
9
11
9
7
3
-1
-6
-11
-15
-19
-19
-19
-19
-19
-20
-21
-22
-23
-22
-21
-21
-21
-22
-23
-24
-25
-25
-24
-22
-21
-21
-21
-21
-20
-18
-17
-16
-16
-18
-1
-19
65
114
229
333
328
296
102
-67
-123
-158
-117
-79
-48
-26
-21
-17
-18
-19
-18
-17
-20
-20
-18
-17
-16
-15
-15
-15
-15
-15
-15
-15
-14
-13
-12
-11
-10
-9
-9
-9
-8
-6
-5
-4
-3
-2
-1
1
3
3
3
4
5
6
7
9
11
10
9
11
13
14
15
16
17
18
19
18
17
17
17
17
17
17
17
16
15
16
16
14
13
12
8
3
-1
-5
-8
-11
-13
-15
-18
-21
-23
-25
-26
-27
-26
-25
-25
-25
-26
-27
-27
-27
-27
-27
-26
-25
-26
-27
-28
-29
-28
-27
-27
-27
-28
-29
-28
-27
-27
-27
-27
-27
-27
-30
-31
-30
-29
-30
-31
-31
-31
-30
-29
-30
-31
-33
-35
-35
-35
-35
-35
-34
-33
-34
-35
-35
-35
-34
-33
-33
-32
-30
-29
-28
-27
-27
-25
-22
-21
-21
-21
-20
-16
-12
-10
-9
-9
-9
-14
-19
-24
-29
-31
-33
-35
-37
-38
-39
-39
-39
-40
-41
-42
-43
-43
-43
-44
-45
-44
-43
-43
-43
-43
-43
-42
-40
-38
-37
-37
-37
-36
-38
-42
-27
-10
32
76
180
278
305
307
102
-80
-139
-180
-144
-110
-78
-53
-44
-37
-37
-37
-38
-39
-37
-35
-36
-37
-36
-35
-35
-35
-35
-35
-34
-32
-30
-29
-28
-27
-28
-29
-28
-27
-26
-25
-25
-23
-21
-20
-19
-18
-17
-16
-15
-15
-15
-14
-13
-11
-9
-8
-7
-7
-6
-3
-1
-2
-3
-3
-3
-2
-1
-2
-3
-3
-3
-3
-3
-3
-3
-3
-3
-4
-6
-8
-9
-10
-13
-15
-19
-23
-26
-29
-31
-33
-34
-35
-36
-37
-37
-37
-37
-37
-36
-35
-36
-37
-37
-37
-37
-36
-34
-33
-34
-35
-35
-35
-34
-33
-32
-31
-32
-33
-33
-33
-34
-35
-34
-33
-35
-34
-33
-33
-33
-34
-35
-36
-37
-37
-37
-38
-39
-38
-37
-36
-35
-37
-38
-35
-32
-29
-27
-28
-29
-28
-26
-24
-21
-18
-16
-14
-13
-12
-9
-6
-8
-12
-16
-20
-22
-21
-29
-33
-33
-33
-34
-35
-34
-33
-35
-37
-37
-37
-38
-39
-39
-39
-39
-39
-37
-35
-35
-35
-35
-34
-32
-31
-30
-29
-30
-30
-28
-10
14
67
129
234
346
305
243
71
-110
-143
-172
-132
-93
-63
-37
-31
-25
-25
-25
-24
-23
-23
-23
-22
-21
-21
-21
-21
-21
-19
-17
-18
-19
-18
-17
-16
-15
-14
-13
-12
-11
-10
-9
-9
-8
-6
-5
-5
-4
-2
-1
1
1
1
4
7
7
7
8
9
10
11
13
15
16
17
18
19
19
19
21
23
22
21
21
21
20
19
18
18
20
19
16
15
14
11
8
6
4
0
-4
-6
-5
-12
-15
-15
-15
-17
-19
-18
-17
-18
-19
-19
-19
-18
-17
-17
-17
-17
-17
-17
-17
-17
-17
-16
-15
-14
-13
-13
-13
-14
-15
-14
-13
-14
-15
-15
-15
-14
-14
-16
-17
-16
-15
-15
-16
-17
-17
-17
-18
-19
-18
-17
-18
-19
-19
-19
-18
-17
-17
-17
-18
-19
-18
-16
-13
-10
-8
-7
-6
-5
-5
-5
-4
0
4
5
6
8
10
9
6
2
-2
-6
-11
-13
-15
-17
-19
-19
-19
-20
-21
-21
-21
-22
-23
-23
-23
-24
-25
-24
-23
-22
-21
-22
-23
-22
-21
-21
-20
-18
-17
-16
-16
-18
-9
6
43
85
179
283
344
402
218
405
-74
-164
-134
-104
-67
-34
-25
-17
-16
-15
-16
-17
-17
-17
-16
-15
-17
-19
-17
-15
-15
-15
-14
-13
-13
-13
-12
-11
-10
-9
-9
-9
-8
-7
-6
-5
-4
-3
-3
-1
2
3
3
4
5
6
7
9
11
13
15
15
15
16
17
19
21
22
23
23
23
22
21
22
23
24
25
24
23
23
23
23
22
20
17
14
12
10
5
0
-2
-4
-7
-11
-13
-15
-15
-15
-16
-17
-18
-19
-18
-17
-17
-17
-16
-15
-17
-19
-19
-19
-17
-15
-18
-19
-18
-17
-18
-19
-19
-19
-19
-19
-18
-17
-18
-19
-19
-19
-20
-21
-21
-21
-21
-22
-23
-23
-23
-23
-23
-23
-23
-23
-23
-24
-25
-26
-27
-26
-25
-25
-25
-26
-27
-27
-27
-27
-27
-27
-26
-23
-21
-20
-19
-18
-17
-16
-15
-14
-13
-12
-9
-6
-5
-4
0
3
0
-3
-8
-13
-17
-21
-23
-25
-28
-31
-31
-31
-30
-29
-29
-29
-31
-33
-34
-35
-36
-36
-34
-33
-34
-35
-34
-33
-33
-33
-33
-32
-30
-29
-29
-29
-30
-29
-26
-4
19
79
141
248
338
286
213
30
-122
-151
-163
-122
-86
-59
-40
-35
-31
-30
-29
-30
-31
-31
-31
-31
-31
-30
-29
-29
-28
-26
-25
-26
-27
-26
-25
-24
-23
-22
-21
-21
-21
-21
-20
-21
-18
-15
-14
-13
-12
-11
-11
-11
-10
-9
-9
-9
-7
-5
-4
-3
-2
-1
0
2
4
5
5
5
5
5
4
3
3
3
3
3
4
5
4
3
2
-1
-4
-8
-11
-13
-15
-19
-23
-24
-25
-27
-29
-30
-31
-32
-33
-32
-31
-31
-31
-31
-31
-31
-31
-30
-30
-32
-32
-30
-29
-28
-27
-28
-29
-30
-31
-31
-31
-30
-29
-29
-29
-30
-31
-31
-30
-29
-29
-29
-31
-33
-32
-31
-31
-31
-32
-33
-34
-35
-35
-35
-34
-33
-33
-33
-34
-35
-35
-35
-35
-33
-29
-27
-26
-24
-22
-21
-22
-21
-18
-14
-10
-9
-9
-7
-9
-7
-11
-14
-17
-22
-27
-30
-33
-33
-33
-33
-33
-34
-35
-35
-35
-36
-37
-36
-35
-36
-37
-37
-37
-36
-35
-35
-35
-36
-36
-34
-33
-32
-30
-28
-29
-32
-19
-3
35
74
166
259
325
372
176
-8
-98
-169
-146
-119
-81
-50
-38
-29
-27
-25
-25
-25
-24
-23
-23
-23
-24
-24
-22
-21
-20
-19
-19
-19
-18
-17
-16
-15
-15
-15
-14
-13
-12
-10
-8
-7
-7
-6
-5
-3
-1
0
1
1
1
2
3
4
5
7
9
10
11
13
15
15
15
15
15
16
17
16
15
15
15
15
15
15
15
16
17
16
13
10
8
6
4
5
-1
-3
-6
-9
-11
-13
-14
-15
-16
-17
-17
-17
-18
-19
-18
-17
-17
-17
-16
-15
-16
-17
-17
-17
-16
-15
-14
-13
-13
-14
-16
-17
-16
-15
-14
-13
-14
-15
-15
-15
-14
-14
-15
-16
-17
-18
-19
-19
-19
-19
-19
-19
-19
-19
-19
-19
-19
-18
-17
-18
-19
-20
-21
-22
-22
-20
-19
-20
-21
-20
-19
-19
-16
-12
-11
-10
-8
-6
-5
-6
-7
-6
-3
1
3
5
7
9
7
5
0
-5
-8
-11
-14
-17
-20
-23
-23
-23
-23
-23
-22
-21
-22
-24
-26
-27
-26
-25
-26
-27
-26
-25
-24
-23
-23
-23
-22
-20
-18
-17
-18
-19
-19
0
22
88
159
272
362
312
236
44
-109
-134
-141
-97
-60
-38
-23
-21
-19
-18
-17
-18
-19
-19
-19
-19
-19
-18
-17
-17
-17
-16
-15
-14
-13
-13
-13
-13
-12
-10
-9
-8
-7
-7
-6
-5
-5
-5
-3
-1
0
1
3
5
5
5
6
7
9
11
13
15
14
14
16
17
18
19
19
19
20
21
21
21
21
21
21
21
21
21
20
19
18
16
13
10
7
3
-1
-3
-5
-8
-11
-12
-13
-16
-19
-19
-19
-20
-21
-21
-21
-19
-17
-18
-19
-19
-19
-19
-19
-19
-19
-19
-19
-19
-19
-19
-19
-18
-17
-17
-18
-20
-21
-21
-20
-19
-19
-19
-20
-21
-21
-21
-21
-21
-20
-19
-21
-23
-24
-25
-26
-27
-25
-23
-24
-25
-26
-27
-26
-25
-25
-25
-25
-25
-26
-27
-27
-27
-27
-27
-27
-27
-27
-23
-18
-16
-15
-14
-13
-13
-13
-12
-11
-5
-1
-1
-1
0
1
0
-2
-7
-12
-16
-20
-24
-28
-30
-31
-30
-29
-29
-29
-30
-31
-32
-33
-32
-31
-32
-33
-32
-31
-32
-33
-32
-31
-31
-29
-27
-26
-25
-25
-25
-26
-24
-5
22
75
141
239
312
338
276
74
-70
-138
-157
-122
-88
-54
-36
-30
-27
-27
-27
-27
-27
-27
-27
-27
-27
-26
-25
-25
-25
-25
-25
-25
-25
-25
-23
-21
-21
-21
-21
-21
-20
-19
-17
-15
-15
-15
-14
-13
-13
-13
-11
-9
-8
-7
-7
-6
-4
-3
-3
-3
-2
0
2
3
3
3
4
5
5
5
6
7
6
6
7
6
5
5
5
4
3
3
3
1
-1
-3
-5
-6
-8
-12
-16
-20
-23
-25
-28
-30
-31
-31
-31
-32
-33
-32
-31
-31
-31
-31
-31
-32
-33
-33
-33
-33
-33
-32
-31
-33
-33
-33
-31
-29
-30
-31
-32
-33
-34
-35
-34
-33
-34
-35
-35
-35
-36
-37
-36
-35
-35
-35
-35
-35
-36
-37
-37
-37
-37
-37
-37
-37
-38
-39
-39
-39
-38
-37
-37
-37
-37
-37
-37
-36
-35
-34
-33
-31
-29
-28
-27
-24
-21
-21
-21
-20
-18
-14
-11
-11
-11
-8
-9
-13
-17
-23
-26
-29
-33
-36
-37
-37
-37
-37
-38
-40
-41
-41
-40
-38
-37
-38
-40
-41
-41
-41
-39
-37
-37
-37
-37
-37
-36
-35
-34
-33
-35
-35
-29
-14
15
66
145
238
344
318
180
38
-107
-160
-162
-136
-96
-69
-46
-39
-36
-35
-34
-33
-34
-35
-34
-33
-31
-30
-29
-29
-29
-28
-27
-28
-29
-27
-25
-25
-25
-23
-21
-22
-23
-21
-19
-17
-15
-15
-15
-15
-14
-12
-11
-10
-9
-9
-9
-8
-7
-6
-4
-2
-1
0
1
1
1
1
3
3
4
5
4
3
2
1
1
1
2
3
2
1
1
1
-1
-3
-3
-4
-9
-12
-14
-15
-16
-18
-20
-23
-26
-27
-27
-27
-27
-27
-27
-27
-27
-27
-27
-27
-26
-25
-25
-26
-27
-26
-25
-25
-25
-24
-23
-23
-23
-23
-23
-23
-23
-23
-23
-23
-23
-24
-25
-25
-25
-25
-25
-24
-23
-23
-23
-24
-25
-25
-25
-26
-27
-26
-25
-26
-27
-26
-25
-27
-26
-25
-22
-19
-17
-15
-15
-15
-12
-9
-9
-9
-7
-4
-1
1
1
1
3
4
-1
-5
-10
-15
-19
-22
-25
-27
-26
-25
-26
-27
-27
-27
-27
-27
-26
-26
-28
-29
-29
-29
-29
-27
-25
-26
-27
-27
-27
-25
-23
-21
-19
-21
-23
-22
-14
5
41
98
178
285
327
308
192
0
-104
-152
-144
-105
-72
-41
-29
-23
-21
-21
-21
-20
-19
-19
-19
-18
-17
-17
-17
-17
-16
-15
-15
-15
-13
-11
-11
-11
-10
-9
-8
-7
-6
-5
-5
-5
-4
-3
-3
-2
1
3
3
4
6
7
8
10
12
13
13
14
16
17
17
18
20
21
21
21
21
22
23
23
23
22
21
20
19
20
21
20
18
15
12
8
4
1
-2
-5
-8
-10
-11
-12
-14
-16
-17
-18
-19
-19
-19
-19
-19
-18
-17
-18
-19
-18
-17
-17
-17
-17
-16
-15
-16
-17
-17
-17
-16
-15
-14
-13
-15
-17
-17
-17
-17
-17
-17
-17
-18
-19
-19
-19
-20
-21
-20
-19
-20
-21
-21
-21
-22
-23
-22
-21
-21
-21
-22
-23
-22
-21
-21
-21
-21
-22
-23
-23
-23
-22
-21
-21
-21
-21
-20
-16
-13
-12
-11
-10
-9
-7
-5
-6
-6
-3
0
2
3
3
4
6
4
0
-5
-11
-15
-18
-21
-24
-25
-24
-23
-25
-27
-29
-28
-27
-26
-25
-26
-27
-28
-29
-29
-29
-28
-27
-26
-25
-25
-25
-23
-21
-21
-21
-22
-15
1
35
80
170
283
328
346
192
-17
-103
-160
-133
-91
-62
-33
-28
-31
-23
-23
-23
-23
-23
-23
-24
-25
-24
-23
-22
-21
-20
-19
-19
-19
-19
-19
-17
-15
-15
-15
-14
-13
-12
-11
-11
-11
-10
-9
-8
-7
-6
-5
-4
-3
-2
-1
0
3
6
7
7
8
9
10
11
12
13
14
15
15
15
15
15
17
19
19
19
18
17
16
15
15
15
15
14
11
8
4
2
0
-2
-4
-8
-12
-15
-18
-20
-22
-23
-22
-21
-21
-22
-23
-22
-21
-20
-19
-20
-21
-22
-23
-22
-21
-21
-21
-21
-21
-21
-21
-21
-21
-21
-21
-21
-21
-21
-21
-22
-23
-23
-23
-23
-23
-22
-21
-22
-23
-23
-23
-23
-23
-23
-26
-27
-26
-25
-26
-27
-27
-27
-27
-27
-27
-27
-27
-27
-28
-29
-28
-27
-28
-29
-28
-27
-28
-29
-28
-27
-28
-29
-28
-25
-21
-19
-18
-16
-14
-13
-14
-15
-14
-10
-6
-4
-3
0
3
-1
-5
-9
-13
-16
-19
-23
-27
-28
-29
-30
-31
-31
-31
-32
-33
-33
-33
-33
-33
-33
-33
-33
-33
-33
-32
-30
-29
-30
-31
-31
-31
-30
-30
-32
-22
-10
25
62
170
273
321
343
156
-16
-104
-170
-142
-112
-75
-46
-36
-29
-29
-29
-29
-29
-29
-29
-29
-29
-28
-27
-27
-27
-26
-25
-24
-23
-23
-23
-23
-22
-20
-19
-19
-19
-19
-19
-19
-17
-17
-15
-13
-12
-11
-10
-9
-8
-7
-6
-5
-5
-5
-4
-3
-3
-3
-1
1
1
1
2
4
6
7
8
8
6
5
5
5
4
3
4
5
5
5
4
3
3
1
-1
-4
-7
-10
-13
-15
-17
-18
-19
-21
-23
-25
-27
-27
-27
-26
-25
-26
-27
-27
-27
-28
-29
-28
-27
-26
-25
-25
-25
-25
-25
-24
-24
-26
-27
-26
-25
-25
-24
-22
-21
-23
-25
-27
-27
-27
-26
-25
-25
-25
-27
-29
-29
-29
-28
-27
-28
-29
-29
-29
-28
-27
-30
-30
-28
-27
-27
-27
-27
-27
-26
-25
-24
-22
-20
-19
-18
-16
-14
-13
-13
-11
-13
-5
-3
0
3
2
1
-6
-11
-15
-19
-22
-25
-26
-27
-28
-29
-29
-29
-29
-29
-30
-31
-31
-31
-31
-31
-31
-31
-31
-31
-30
-29
-29
-29
-28
-27
-27
-26
-24
-24
-26
-19
-10
23
60
135
213
313
376
251
120
-31
-145
-154
-149
-108
-72
-47
-30
-26
-23
-23
-23
-23
-22
-20
-19
-20
-21
-21
-20
-18
-17
-16
-15
-16
-17
-16
-15
-14
-12
-10
-9
-9
-9
-9
-6
-3
-3
-3
-2
-1
-1
-1
1
3
3
3
5
7
8
9
9
9
12
14
16
17
17
17
16
15
16
17
18
19
18
17
17
17
16
15
15
15
15
16
15
13
11
8
5
3
1
-2
-5
-6
-7
-10
-13
-13
-13
-14
-15
-14
-13
-13
-13
-14
-15
-14
-13
-14
-15
-14
-13
-13
-13
-13
-13
-12
-11
-12
-13
-13
-13
-12
-11
-11
-12
-13
-13
-13
-14
-15
-14
-13
-14
-15
-15
-15
-15
-15
-16
-17
-16
-15
-16
-17
-17
-17
-16
-15
-15
-15
-16
-17
-17
-17
-16
-15
-14
-11
-8
-7
-6
-4
-2
-1
-3
-1
1
4
7
9
11
12
13
9
4
0
-3
-6
-10
-14
-17
-19
-21
-20
-19
-19
-19
-18
-18
-20
-21
-22
-23
-22
-21
-21
-21
-22
-22
-20
-19
-19
-19
-18
-16
-17
-15
-17
-13
-7
17
48
118
196
312
380
290
176
-1
-126
-142
-136
-89
-52
-31
-19
-16
-15
-16
-17
-16
-15
-14
-13
-14
-15
-14
-13
-13
-13
-12
-11
-11
-11
-10
-9
-8
-7
-7
-6
-5
-5
-5
-4
-3
-2
-1
0
1
2
3
4
5
7
9
10
11
12
13
14
16
18
19
19
19
20
22
24
25
25
25
24
23
23
23
24
25
25
25
25
24
23
20
17
14
11
7
3
1
-1
-4
-7
-10
-13
-15
-17
-16
-15
-15
-15
-16
-17
-18
-19
-19
-18
-16
-15
-15
-15
-16
-17
-17
-17
-16
-15
-15
-15
-16
-17
-17
-16
-15
-15
-15
-15
-15
-17
-19
-18
-17
-17
-17
-18
-19
-19
-19
-20
-21
-19
-17
-18
-19
-20
-21
-21
-21
-20
-19
-20
-21
-21
-21
-21
-21
-20
-19
-20
-21
-22
-22
-20
-19
-19
-18
-17
-14
-11
-12
-13
-10
-7
-7
-7
-5
-2
2
5
5
5
6
7
6
3
-2
-7
-12
-16
-19
-21
-21
-21
-22
-23
-22
-22
-24
-25
-25
-25
-26
-27
-27
-27
-25
-25
-25
-25
-25
-24
-23
-22
-21
-20
-19
-21
-23
-20
-10
10
47
108
191
303
334
278
154
-29
-122
-149
-131
-86
-56
-32
-24
-22
-21
-20
-19
-19
-19
-20
-21
-21
-21
-21
-21
-21
-18
-15
-16
-17
-17
-17
-15
-13
-13
-13
-12
-11
-10
-9
-9
-9
-7
-5
-5
-4
-2
0
2
3
3
3
4
5
6
7
7
9
12
13
13
13
13
13
13
14
15
16
17
15
13
13
13
13
13
13
13
12
11
7
4
0
-3
-5
-8
-11
-14
-17
-19
-20
-21
-21
-21
-22
-23
-22
-21
-22
-23
-23
-23
-22
-21
-21
-21
-21
-22
-25
-24
-23
-23
-23
-22
-21
-22
-23
-23
-23
-23
-23
-23
-23
-23
-23
-24
-25
-26
-27
-26
-25
-25
-25
-26
-27
-28
-29
-29
-29
-28
-27
-27
-27
-27
-27
-28
-29
-29
-29
-29
-29
-31
-29
-27
-28
-29
-29
-29
-25
-21
-20
-19
-19
-19
-17
-15
-15
-15
-13
-10
-5
-3
-3
-3
-2
-3
-7
-13
-19
-23
-26
-29
-32
-32
-30
-29
-30
-31
-32
-33
-33
-33
-33
-33
-33
-34
-35
-36
-37
-36
-35
-34
-33
-33
-33
-32
-31
-30
-29
-31
-28
-17
4
36
100
190
279
368
276
79
-50
-148
-158
-135
-100
-62
-45
-33
-31
-30
-29
-29
-29
-29
-29
-29
-29
-29
-27
-25
-25
-25
-25
-25
-25
-25
-24
-23
-23
-23
-21
-19
-18
-17
-16
-15
-15
-15
-14
-13
-12
-11
-10
-9
-8
-7
-7
-6
-4
-3
-2
-1
-1
0
-1
3
3
4
5
4
3
3
3
4
5
5
5
3
1
2
3
2
1
1
1
-2
-4
-6
-7
-7
-9
-13
-16
-18
-20
-22
-24
-26
-27
-27
-27
-27
-27
-28
-29
-28
-26
-25
-26
-27
-26
-25
-26
-27
-26
-25
-25
-25
-25
-25
-24
-23
-23
-23
-23
-23
-23
-23
-24
-25
-24
-23
-24
-25
-25
-25
-25
-25
-25
-25
-25
-26
-28
-29
-28
-27
-26
-25
-27
-27
-27
-27
-27
-26
-25
-26
-27
-23
-19
-18
-17
-16
-15
-15
-15
-13
-10
-6
-3
0
1
2
2
-1
-5
-9
-13
-16
-19
-24
-26
-28
-28
-26
-25
-26
-27
-27
-27
-27
-30
-31
-30
-29
-29
-29
-28
-27
-27
-27
-27
-27
-26
-25
-24
-23
-22
-22
-25
-19
0
31
75
154
259
322
357
235
30
-80
-151
-147
-118
-82
-45
-32
-23
-21
-22
-22
-20
-20
-21
-21
-21
-20
-19
-19
-19
-17
-15
-15
-15
-15
-15
-14
-13
-12
-11
-11
-11
-10
-9
-9
-8
-6
-5
-4
-3
-2
-1
0
1
2
3
4
6
8
9
10
11
12
13
13
15
17
19
21
21
21
20
19
19
19
19
19
20
21
20
19
18
17
17
17
14
11
7
4
1
-2
-5
-7
-8
-11
-14
-17
-20
-21
-20
-19
-19
-19
-19
-19
-19
-19
-19
-19
-19
-19
-19
-19
-19
-18
-17
-16
-15
-17
-19
-17
-15
-17
-19
-17
-15
-16
-17
-18
-19
-18
-17
-17
-17
-18
-19
-19
-19
-20
-21
-20
-20
-22
-23
-22
-21
-22
-22
-21
-22
-23
-22
-21
-22
-23
-22
-21
-22
-23
-22
-21
-17
-15
-13
-11
-11
-10
-7
-5
-6
-6
-4
-2
1
3
2
3
7
6
2
-3
-8
-11
-14
-18
-22
-23
-24
-25
-27
-27
-27
-26
-25
-25
-25
-27
-29
-29
-29
-29
-29
-28
-27
-27
-27
-27
-26
-23
-21
-20
-19
-20
-21
-21
-9
10
52
104
188
286
335
370
220
27
-75
-162
-143
-111
-73
-109
-28
-21
-21
-21
-21
-21
-21
-21
-22
-23
-21
-19
-19
-19
-19
-19
-18
-17
-17
-17
-16
-14
-12
-11
-12
-13
-12
-11
-10
-9
-8
-6
-4
-3
-3
-2
0
1
1
2
4
6
7
8
9
10
11
11
11
14
17
17
17
17
17
18
19
19
19
18
17
18
19
19
19
19
18
15
12
10
7
4
1
-2
-6
-10
-12
-14
-16
-18
-19
-18
-18
-21
-21
-21
-20
-19
-19
-19
-20
-21
-20
-19
-19
-19
-19
-19
-20
-21
-20
-19
-18
-17
-17
-17
-18
-19
-20
-21
-21
-21
-20
-19
-20
-21
-21
-21
-21
-21
-22
-23
-23
-23
-23
-25
-25
-24
-23
-23
-23
-23
-23
-23
-23
-24
-25
-25
-25
-25
-25
-26
-27
-26
-25
-25
-25
-24
-21
-17
-15
-16
-17
-16
-14
-12
-11
-10
-6
-2
-1
-1
0
2
3
2
-4
-9
-14
-19
-22
-25
-26
-27
-27
-27
-28
-29
-30
-31
-31
-31
-32
-33
-32
-31
-31
-31
-32
-33
-33
-33
-32
-31
-30
-28
-26
-27
-30
-26
-19
8
39
108
183
287
393
266
129
-15
-151
-152
-149
-108
-70
-51
-35
-31
-27
-28
-29
-28
-27
-27
-27
-27
-27
-26
-25
-25
-25
-25
-25
-24
-23
-23
-23
-22
-21
-20
-19
-18
-17
-17
-17
-16
-14
-12
-11
-11
-9
-9
-8
-7
-7
-7
-5
-3
-2
-1
0
1
2
3
5
7
6
5
7
9
8
7
6
5
5
5
6
7
7
7
6
5
4
3
3
1
-2
-5
-8
-10
-12
-16
-19
-21
-23
-24
-25
-26
-27
-28
-29
-28
-27
-26
-25
-26
-27
-27
-27
-27
-27
-26
-26
-28
-29
-28
-27
-27
-27
-26
-25
-25
-25
-25
-26
-28
-29
-28
-27
-27
-26
-24
-25
-29
-29
-29
-28
-27
-27
-27
-29
-31
-31
-31
-31
-31
-30
-29
-30
-31
-31
-31
-29
-26
-21
-19
-19
-19
-19
-19
-18
-17
-16
-13
-8
-7
-6
-4
-2
-1
-2
-7
-12
-17
-13
-27
-31
-31
-31
-31
-31
-32
-33
-34
-35
-36
-37
-37
-37
-36
-35
-36
-37
-37
-37
-37
-36
-34
-33
-32
-30
-28
-29
-33
-33
-30
-12
12
65
127
228
337
288
220
48
-130
-153
-172
-130
-89
-63
-39
-34
-29
-28
-27
-28
-29
-29
-29
-25
-23
-23
-23
-23
-23
-23
-23
-22
-20
-18
-17
-16
-15
-16
-16
-14
-13
-13
-12
-10
-9
-8
-6
-4
-3
-4
-4
-1
1
3
4
5
5
5
6
7
9
11
12
13
14
15
14
13
13
13
13
13
13
13
12
11
11
11
10
9
9
8
6
3
0
-2
-4
-7
-10
-11
-12
-14
-13
-18
-19
-19
-19
-18
-17
-18
-19
-18
-17
-17
-17
-16
-15
-16
-17
-17
-17
-16
-15
-15
-15
-15
-15
-14
-13
-13
-13
-14
-15
-14
-13
-13
-13
-13
-13
-14
-15
-16
-17
-16
-15
-15
-16
-17
-17
-17
-17
-17
-16
-15
-17
-19
-19
-19
-17
-14
-11
-9
-8
-7
-7
-7
-6
-4
-1
2
4
5
6
9
12
11
8
4
0
-4
-8
-12
-16
-17
-17
-17
-19
-19
-19
-19
-19
-20
-21
-22
-23
-22
-21
-21
-21
-20
-19
-19
-19
-19
-19
-17
-15
-12
-13
-17
-15
-8
13
43
109
193
293
400
308
154
11
-131
-144
-134
-93
-48
-30
-45
-14
-15
-14
-13
-14
-15
-14
-13
-13
-13
-12
-11
-11
-11
-11
-11
-10
-9
-8
-7
-7
-7
-6
-5
-4
-3
-2
-1
0
1
2
3
3
4
6
7
8
9
10
12
14
16
17
18
19
20
21
22
23
26
29
29
29
28
27
29
31
31
31
30
29
29
29
28
27
28
28
26
24
20
17
14
10
6
3
0
-2
-4
-7
-10
-11
-11
-11
-13
-12
-11
-11
-11
-11
-11
-12
-13
-12
-11
-11
-11
-11
-11
-11
-11
-11
-11
-10
-9
-10
-11
-11
-11
-12
-13
-13
-13
-12
-11
-12
-13
-13
-13
-13
-13
-13
-13
-14
-15
-15
-16
-17
-16
-15
-16
-17
-18
-19
-17
-15
-15
-15
-16
-17
-17
-17
-16
-13
-8
-5
-5
-5
-5
-5
-4
-2
0
3
6
7
8
10
12
10
6
1
-4
-6
-8
-12
-16
-18
-19
-19
-19
-20
-21
-21
-21
-21
-21
-21
-21
-22
-23
-23
-23
-22
-21
-21
-21
-21
-21
-20
-18
-16
-16
-18
-16
-9
9
32
87
154
255
365
317
234
73
-99
-129
-148
-106
-61
-41
-21
-18
-15
-16
-17
-18
-19
-18
-17
-17
-17
-16
-15
-15
-15
-14
-13
-12
-11
-10
-9
-10
-11
-10
-9
-8
-6
-4
-3
-4
-5
-4
-2
0
2
4
5
5
5
5
8
9
11
13
15
17
17
17
18
19
20
21
21
21
21
21
21
21
21
21
22
23
22
21
21
21
20
17
14
12
10
7
4
2
0
-5
-10
-11
-12
-13
-14
-16
-17
-19
-21
-21
-21
-20
-19
-19
-19
-20
-21
-21
-21
-20
-19
-19
-19
-19
-19
-20
-21
-21
-20
-18
-17
-18
-19
-20
-21
-21
-21
-21
-21
-21
-21
-21
-21
-22
-23
-23
-23
-25
-25
-25
-25
-25
-24
-23
-24
-25
-25
-25
-26
-27
-26
-25
-26
-27
-27
-27
-27
-27
-24
-22
-20
-19
-18
-17
-17
-15
-12
-11
-11
-10
-8
-5
-2
-1
-1
-1
0
-3
1
-13
-17
-20
-23
-26
-29
-29
-29
-28
-27
-29
-31
-32
-33
-34
-35
-34
-33
-32
-31
-32
-33
-33
-33
-32
-31
-30
-29
-30
-31
-30
-29
-30
-28
-24
-9
9
52
98
196
297
295
286
98
-78
-129
-170
-140
-110
-76
-47
-37
-29
-29
-29
-28
-27
-27
-27
-28
-29
-28
-27
-28
-28
-26
-25
-24
-23
-23
-23
-22
-21
-21
-21
-20
-19
-18
-17
-17
-16
-14
-13
-13
-11
-9
-9
-9
-8
-7
-5
-3
-2
-1
-1
-1
1
3
3
3
3
3
5
7
7
6
4
3
3
3
3
3
4
5
5
3
0
0
2
0
-4
-7
-10
-12
-11
-18
-21
-21
-21
-23
-25
-27
-29
-28
-27
-27
-27
-27
-27
-27
-27
-28
-29
-28
-27
-27
-27
-26
-25
-25
-25
-26
-27
-27
-27
-27
-27
-26
-25
-25
-25
-26
-27
-27
-27
-28
-28
-27
-29
-31
-31
-31
-30
-29
-29
-29
-29
-29
-29
-29
-29
-29
-29
-29
-27
-25
-23
-21
-21
-20
-17
-15
-14
-13
-13
-11
-7
-5
-4
-1
2
-2
-8
-12
-16
-20
-24
-26
-29
-29
-29
-29
-29
-29
-29
-30
-31
-31
-31
-32
-33
-32
-31
-32
-33
-31
-29
-29
-29
-28
-27
-27
-26
-24
-24
-26
-25
-22
-6
15
65
124
226
339
299
234
70
-104
-138
-113
-125
-84
-57
-31
-26
-21
-22
-23
-22
-21
-21
-21
-20
-19
-19
-19
-18
-17
-16
-15
-15
-15
-14
-13
-12
-11
-10
-9
-9
-9
-8
-7
-6
-4
-2
-1
-1
-1
0
2
4
6
7
7
7
8
9
11
13
15
17
18
19
20
21
21
21
21
21
22
23
22
21
21
21
21
21
20
19
20
19
16
13
10
7
4
-1
-6
-7
-8
-10
-12
-13
-15
-15
-15
-16
-17
-16
-15
-15
-15
-16
-17
-17
-17
-15
-13
-14
-15
-15
-15
-15
-15
-14
-13
-13
-13
-13
-13
-14
-15
-14
-13
-12
-11
-12
-13
-13
-13
-14
-15
-15
-15
-15
-17
-17
-16
-15
-15
-15
-16
-17
-17
-17
-17
-17
-17
-17
-17
-17
-18
-19
-18
-17
-17
-17
-16
-15
-14
-11
-7
-5
-6
-5
-2
-1
-2
-2
0
3
6
7
8
10
12
8
3
0
-3
-7
-11
-14
-17
-18
-19
-19
-19
-19
-19
-19
-19
-20
-21
-21
-21
-21
-21
-22
-22
-20
-19
-19
-19
-19
-19
-18
-17
-16
-16
-18
-12
-3
29
64
153
248
335
419
244
72
-49
-155
-133
-107
-66
-32
-22
-15
-16
-17
-16
-15
-17
-19
-19
-19
-17
-15
-14
-13
-13
-13
-12
-11
-11
-11
-10
-9
-9
-9
-8
-7
-6
-4
-2
-1
-1
-1
-1
1
3
4
5
6
7
9
11
12
13
14
15
17
19
20
21
23
25
24
23
24
25
26
27
27
27
26
25
25
25
24
23
23
21
18
15
12
9
6
3
0
-4
-7
-10
-13
-14
-15
-16
-17
-17
-17
-18
-19
-19
-19
-18
-17
-17
-17
-17
-17
-18
-19
-19
-19
-18
-17
-17
-17
-18
-19
-18
-17
-17
-17
-17
-17
-18
-19
-19
-19
-18
-17
-17
-19
-21
-20
-19
-18
-17
-19
-21
-21
-21
-22
-23
-22
-21
-21
-21
-21
-21
-21
-21
-21
-21
-22
-23
-22
-21
-22
-23
-22
-21
-21
-21
-21
-18
-14
-12
-10
-9
-10
-10
-11
-6
-5
-3
-1
1
3
3
3
4
5
0
-4
-9
-14
-18
-22
-25
-27
-26
-25
-25
-25
-26
-27
-28
-29
-29
-29
-30
-31
-30
-29
-30
-31
-30
-29
-29
-29
-29
-28
-26
-23
-21
-25
-29
-20
-7
27
70
159
248
338
361
193
39
-84
-157
-138
-111
-71
-45
-35
-29
-28
-27
-27
-27
-28
-29
-28
-27
-26
-25
-24
-23
-24
-25
-24
-23
-23
-23
-22
-21
-23
-22
-21
-19
-17
-16
-15
-15
-15
-14
-13
-12
-11
-9
-7
-8
-9
-8
-7
-5
-2
1
2
0
0
2
3
4
5
6
7
7
7
7
8
10
11
11
10
8
7
7
5
5
6
7
6
5
2
-1
-4
-7
-10
-14
-18
-21
-23
-25
-27
-29
-29
-29
-30
-32
-34
-35
-34
-33
-32
-31
-31
-31
-31
-31
-32
-33
-32
-31
-30
-29
-29
-29
-29
-30
-31
-31
-31
-31
-31
-32
-33
-32
-31
-30
-29
-31
-33
-32
-31
-31
-31
-32
-33
-34
-35
-36
-36
-34
-33
-33
-33
-34
-35
-35
-35
-34
-34
-36
-37
-36
-33
-30
-27
-24
-23
-25
-24
-23
-21
-19
-16
-13
-12
-11
-8
-5
-8
-12
-16
-20
-24
-28
-31
-33
-35
-37
-36
-35
-35
-36
-38
-39
-39
-39
-39
-39
-40
-40
-38
-37
-37
-37
-37
-37
-36
-35
-35
-33
-31
-30
-29
-32
-34
-25
-12
19
61
142
228
326
342
185
39
-90
-162
-155
-133
-93
-63
-44
-34
-32
-30
-28
-27
-28
-29
-28
-27
-28
-28
-26
-25
-25
-25
-24
-22
-20
-20
-21
-20
-19
-17
-15
-15
-15
-14
-13
-12
-11
-10
-9
-8
-7
-6
-5
-4
-3
-2
-1
0
2
4
5
6
7
7
8
10
11
12
13
12
11
11
11
11
11
12
13
11
11
11
11
11
10
9
8
7
5
2
-2
-5
-6
-8
-11
-13
-15
-17
-17
-17
-18
-19
-20
-20
-18
-18
-20
-20
-18
-17
-18
-19
-19
-18
-16
-15
-15
-15
-16
-17
-17
-15
-15
-14
-13
-14
-15
-16
-17
-17
-17
-17
-17
-17
-17
-17
-17
-18
-19
-19
-19
-19
-19
-20
-21
-20
-19
-19
-19
-20
-21
-21
-21
-20
-19
-18
-18
-20
-20
-18
-14
-10
-8
-7
-7
-7
-6
-5
-4
-3
3
7
7
7
8
9
7
4
1
-2
-6
-10
-14
-18
-20
-21
-20
-19
-20
-21
-22
-23
-23
-23
-23
-23
-24
-25
-24
-23
-24
-24
-22
-21
-21
-22
-23
-21
-19
-17
-15
-17
-19
-17
-11
6
36
97
174
282
345
334
237
30
-97
-140
-138
-94
-60
-33
-22
-19
-17
-17
-17
-18
-19
-18
-17
-16
-15
-15
-15
-15
-15
-15
-12
-11
-10
-9
-10
-11
-10
-9
-8
-7
-5
-3
-3
-3
-3
-3
-2
0
3
5
5
6
8
9
10
11
12
13
14
16
18
19
20
22
24
25
24
23
24
26
28
29
29
27
25
26
27
26
25
25
25
21
16
12
9
5
2
-1
-4
-7
-9
-11
-14
-16
-17
-17
-17
-17
-17
-17
-17
-17
-17
-17
-17
-17
-17
-17
-17
-17
-17
-16
-15
-15
-16
-17
-17
-17
-16
-15
-14
-13
-15
-17
-17
-17
-17
-17
-17
-17
-17
-17
-18
-19
-18
-17
-18
-19
-19
-19
-20
-21
-20
-19
-19
-19
-20
-21
-20
-19
-20
-21
-20
-19
-19
-21
-21
-21
-21
-21
-21
-21
-21
-19
-17
-15
-13
-12
-11
-10
-9
-8
-7
-6
-5
-2
0
2
3
4
6
9
7
0
-5
-8
-12
-16
-18
-20
-21
-22
-23
-23
-23
-23
-23
-23
-25
-27
-27
-27
-28
-29
-28
-27
-26
-25
-25
-25
-24
-23
-22
-21
-20
-19
-21
-22
-19
-5
17
66
133
230
345
325
243
91
-88
-135
-145
-111
-67
-45
-27
-23
-20
-19
-21
-22
-23
-22
-21
-21
-21
-21
-21
-20
-19
-19
-19
-17
-15
-16
-17
-16
-15
-14
-13
-13
-13
-13
-12
-10
-9
-8
-7
-6
-5
-5
-5
-4
-2
0
1
2
3
3
3
3
7
9
10
11
12
13
13
13
14
15
15
15
15
15
15
15
15
15
14
13
12
10
7
4
2
0
-3
-7
-10
-13
-16
-19
-22
-23
-24
-26
-28
-29
-28
-27
-27
-26
-25
-26
-27
-26
-25
-26
-27
-27
-27
-28
-29
-29
-29
-27
-25
-25
-25
-25
-25
-26
-27
-27
-27
-27
-27
-28
-29
-29
-29
-28
-27
-27
-28
-30
-31
-31
-31
-31
-31
-32
-33
-33
-32
-31
-32
-33
-32
-31
-32
-33
-33
-33
-34
-35
-34
-33
-33
-33
-34
-35
-35
-35
-34
-33
-34
-35
-34
-33
-34
-35
-34
-33
-33
-32
-30
-28
-26
-24
-22
-21
-21
-20
-21
-15
-13
-10
-7
-6
-5
-6
-7
-11
-15
-18
-21
-24
-28
-32
-35
-37
-39
-37
-35
-36
-37
-38
-39
-38
-37
-37
-37
-38
-39
-38
-37
-37
-37
-36
-35
-34
-33
-33
-35
-38
-28
-17
15
53
155
252
308
323
133
-33
-117
-171
-141
-109
-74
-49
-40
-35
-35
-35
-35
-35
-34
-33
-34
-35
-34
-33
-32
-31
-30
-29
-29
-29
-28
-27
-27
-26
-24
-23
-23
-23
-23
-23
-23
-20
-17
-17
-17
-17
-17
-16
-15
-14
-13
-12
-11
-10
-9
-8
-7
-6
-5
-4
-2
0
1
2
2
0
0
2
3
3
3
2
1
2
3
2
1
0
-1
-1
-3
-5
-7
-9
-11
-13
-16
-19
-21
-23
-24
-25
-27
-29
-31
-33
-32
-31
-30
-29
-29
-29
-30
-31
-30
-29
-28
-27
-28
-29
-30
-31
-31
-30
-28
-27
-27
-27
-28
-29
-28
-26
-25
-26
-27
-28
-29
-29
-29
-29
-29
-29
-29
-30
-31
-31
-31
-31
-31
-31
-31
-31
-31
-31
-31
-31
-31
-32
-33
-33
-33
-32
-29
-26
-24
-22
-21
-21
-21
-20
-18
-16
-14
-11
-7
-3
-2
-1
-1
-1
-8
-13
-16
-20
-24
-27
-29
-31
-32
-33
-31
-29
-30
-31
-32
-33
-34
-35
-34
-33
-33
-33
-33
-33
-33
-33
-32
-30
-28
-27
-27
-26
-24
-26
-23
-20
-8
24
60
143
228
328
380
223
73
-57
-151
-153
-142
-102
-69
-47
-31
-26
-23
-23
-23
-23
-23
-23
-22
-20
-19
-19
-19
-19
-19
-19
-18
-16
-15
-15
-15
-15
-15
-14
-12
-11
-10
-9
-9
-9
-8
-7
-6
-5
-3
-1
0
1
1
1
3
5
7
9
10
11
12
13
14
16
18
19
19
19
19
19
20
21
20
19
20
21
21
21
20
19
17
16
15
12
9
8
7
3
-1
-5
-9
-11
-13
-14
-15
-16
-17
-17
-17
-17
-17
-17
-17
-17
-17
-17
-17
-18
-18
-16
-15
-16
-17
-16
-15
-14
-13
-12
-11
-12
-13
-13
-14
-15
-14
-13
-14
-15
-15
-15
-15
-15
-16
-17
-17
-17
-18
-19
-18
-17
-18
-19
-18
-17
-18
-19
-18
-17
-17
-17
-18
-19
-19
-19
-18
-14
-10
-9
-8
-6
-4
-3
-4
-3
-1
2
5
5
5
7
9
9
8
3
-1
-4
-8
-13
-17
-19
-21
-21
-21
-20
-20
-22
-23
-23
-23
-24
-25
-24
-23
-23
-23
-23
-23
-23
-23
-23
-22
-20
-18
-16
-16
-19
-16
-12
9
35
91
156
268
351
321
250
58
-89
-131
-145
-103
-67
-40
-24
-20
-17
-17
-17
-18
-19
-18
-17
-18
-18
-16
-15
-16
-17
-16
-15
-14
-13
-13
-13
-13
-13
-13
-11
-11
-10
-9
-8
-7
-6
-5
-3
-1
-1
-1
-1
-1
1
3
4
5
7
9
9
10
12
14
16
18
20
21
20
19
20
21
21
22
24
25
24
23
22
22
24
25
25
23
21
17
13
8
3
1
-1
-5
-9
-11
-13
-14
-15
-16
-18
-21
-23
-22
-21
-20
-19
-19
-19
-20
-21
-20
-19
-19
-19
-19
-19
-19
-19
-19
-19
-19
-19
-20
-21
-21
-19
-17
-18
-19
-20
-21
-21
-21
-22
-23
-21
-19
-20
-21
-22
-23
-23
-23
-23
-23
-23
-23
-24
-25
-24
-23
-24
-25
-24
-23
-24
-25
-25
-25
-24
-23
-23
-22
-20
-18
-19
-14
-13
-10
-7
-9
-11
-10
-9
-3
1
1
1
3
4
0
-4
-8
-12
-15
-18
-21
-23
-24
-25
-25
-25
-25
-26
-28
-29
-29
-29
-30
-31
-30
-29
-29
-29
-30
-31
-30
-29
-29
-28
-27
-26
-25
-24
-23
-26
-26
-11
11
51
110
209
291
343
293
90
-56
-135
-160
-129
-94
-55
-35
-28
-25
-25
-25
-25
-25
-26
-27
-27
-27
-27
-27
-28
-28
-26
-25
-23
-22
-21
-21
-21
-20
-19
-18
-17
-17
-17
-18
-19
-16
-13
-12
-11
-9
-7
-8
-8
-5
-3
-3
-3
-2
-1
0
3
6
7
7
7
6
6
8
9
10
11
11
11
11
11
11
11
11
10
9
9
9
7
4
-1
-5
-8
-12
-15
-17
-19
-21
-23
-25
-28
-29
-29
-29
-28
-27
-28
-29
-30
-31
-30
-29
-30
-30
-28
-27
-27
-27
-28
-29
-28
-27
-27
-27
-27
-27
-27
-28
-29
-28
-27
-27
-27
-27
-27
-27
-27
-27
-27
-28
-29
-29
-29
-30
-31
-31
-31
-31
-31
-30
-29
-29
-29
-30
-31
-31
-31
-30
-29
-28
-24
-20
-19
-21
-21
-21
-19
-17
-15
-13
-9
-5
-5
-5
-2
1
-2
-6
-11
-17
-22
-25
-27
-29
-30
-31
-32
-33
-33
-34
-37
-37
-34
-33
-34
-35
-36
-37
-36
-35
-34
-33
-34
-35
-35
-33
-33
-30
-27
-26
-25
-30
-33
-20
0
42
99
195
277
335
298
101
-47
-129
-163
-142
-112
-76
-51
-35
-29
-28
-27
-27
-27
-27
-27
-28
-28
-26
-25
-24
-23
-23
-23
-22
-21
-21
-20
-19
-17
-15
-15
-15
-14
-13
-13
-13
-11
-9
-8
-7
-6
-5
-5
-5
-4
-2
1
3
3
3
4
5
5
6
8
10
12
13
13
13
12
11
11
11
12
13
13
12
11
11
11
12
13
11
9
6
2
-2
-5
-6
-8
-11
-13
-15
-17
-18
-19
-20
-21
-22
-23
-22
-21
-22
-22
-20
-19
-20
-21
-21
-21
-20
-19
-19
-19
-19
-19
-19
-19
-19
-18
-17
-17
-17
-17
-17
-15
-13
-15
-17
-18
-19
-19
-19
-19
-19
-17
-15
-18
-19
-20
-21
-20
-19
-19
-19
-19
-19
-20
-21
-21
-21
-20
-17
-14
-12
-10
-9
-9
-7
-5
-4
-3
-1
1
2
3
6
9
7
4
0
-4
-8
-12
-16
-19
-21
-23
-23
-23
-23
-23
-22
-22
-24
-25
-26
-27
-26
-25
-24
-23
-23
-23
-23
-23
-24
-24
-22
-21
-19
-18
-17
-16
-13
8
37
105
182
299
367
283
174
6
-114
-143
-144
-99
-62
-37
-22
-17
-15
-16
-17
-18
-19
-19
-18
-16
-15
-15
-15
-14
-13
-14
-15
-14
-13
-12
-11
-11
-9
-9
-8
-7
-7
-7
-6
-5
-4
-3
-1
1
2
3
4
5
5
5
6
7
10
11
12
14
16
17
18
19
20
22
24
25
25
25
26
27
27
27
26
25
26
27
27
25
23
21
19
15
11
9
6
1
-4
-8
-11
-12
-13
-15
-17
-18
-19
-20
-21
-21
-21
-20
-19
-19
-20
-22
-22
-20
-19
-20
-21
-20
-19
-19
-19
-19
-19
-18
-17
-19
-18
-17
-17
-17
-17
-17
-18
-19
-18
-17
-18
-19
-19
-19
-20
-21
-22
-23
-22
-21
-20
-20
-22
-23
-22
-22
-24
-25
-24
-23
-24
-25
-24
-23
-23
-23
-22
-21
-22
-23
-23
-23
-23
-19
-15
-14
-13
-12
-11
-9
-7
-6
-5
-4
-2
1
3
4
5
3
0
-5
-9
-14
-18
-20
-22
-24
-25
-25
-25
-25
-25
-26
-27
-28
-29
-29
-29
-29
-29
-29
-29
-29
-29
-29
-28
-27
-26
-25
-24
-23
-23
-23
-24
-23
-16
-1
27
79
165
258
358
351
234
95
-64
-138
-155
-133
-89
-59
-34
-25
-22
-22
-24
-25
-26
-27
-26
-25
-24
-23
-23
-23
-23
-22
-21
-20
-19
-20
-21
-20
-19
-19
-19
-18
-17
-16
-15
-15
-14
-11
-9
-8
-7
-7
-7
-6
-5
-4
-2
0
1
2
3
4
5
6
7
8
10
12
13
13
15
17
17
17
19
21
20
19
19
19
19
19
20
21
19
16
13
9
4
1
-2
-4
-7
-10
-13
-16
-18
-21
-24
-25
-25
-25
-25
-25
-25
-25
-25
-25
-26
-27
-26
-25
-25
-24
-23
-25
-27
-28
-29
-27
-25
-25
-25
-25
-25
-25
-25
-25
-25
-26
-27
-27
-27
-27
-27
-27
-27
-27
-28
-30
-31
-31
-31
-31
-31
-30
-29
-29
-29
-30
-31
-32
-33
-31
-31
-31
-30
-29
-30
-31
-32
-33
-33
-33
-31
-29
-30
-31
-31
-31
-30
-29
-29
-29
-29
-27
-23
-21
-21
-20
-18
-17
-17
-16
-14
-12
-10
-9
-8
-5
-2
-3
-6
-9
-7
-19
-25
-27
-29
-30
-31
-32
-33
-33
-33
-33
-33
-34
-35
-35
-35
-36
-37
-36
-35
-35
-35
-36
-36
-34
-33
-33
-33
-32
-31
-30
-31
-34
-27
-15
12
41
117
197
304
413
255
93
-39
-161
-159
-152
-109
-70
-49
-33
-31
-29
-30
-31
-30
-29
-29
-29
-29
-29
-29
-29
-30
-30
-27
-25
-25
-25
-25
-25
-24
-23
-22
-21
-20
-19
-19
-19
-19
-18
-16
-15
-13
-13
-13
-11
-9
-8
-7
-6
-5
-3
-1
-1
-1
1
3
3
3
3
4
7
9
9
8
6
5
6
7
6
6
8
9
8
6
4
2
0
-2
-4
-8
-12
-14
-13
-21
-25
-26
-27
-28
-29
-30
-31
-30
-29
-30
-31
-31
-31
-31
-31
-30
-29
-28
-27
-28
-29
-29
-29
-28
-27
-27
-27
-26
-25
-26
-27
-28
-28
-26
-26
-28
-29
-29
-29
-29
-29
-29
-29
-29
-30
-31
-32
-33
-31
-29
-30
-31
-31
-31
-31
-31
-31
-31
-32
-33
-32
-31
-31
-31
-31
-31
-31
-31
-31
-29
-25
-23
-22
-21
-21
-20
-18
-17
-17
-15
-12
-9
-5
-4
-3
0
3
-2
-7
-12
-17
-21
-25
-28
-31
-30
-29
-30
-31
-31
-31
-31
-31
-31
-31
-32
-33
-33
-33
-33
-33
-32
-31
-30
-29
-29
-28
-26
-25
-24
-23
-23
-23
-23
-5
17
73
134
240
328
301
244
53
-101
-138
-155
-116
-80
-51
-32
-26
-23
-21
-19
-20
-21
-21
-21
-20
-19
-18
-17
-17
-17
-16
-15
-15
-15
-14
-13
-13
-13
-12
-11
-10
-8
-7
-7
-7
-5
-3
-2
-1
0
1
2
3
4
5
6
7
9
11
11
11
12
13
14
16
18
20
22
23
23
23
23
23
23
23
22
21
21
21
21
20
18
15
11
7
3
1
-1
-4
-7
-10
-13
-14
-15
-17
-19
-19
-19
-20
-21
-21
-21
-20
-19
-18
-18
-20
-21
-20
-19
-19
-19
-18
-17
-18
-19
-19
-19
-18
-17
-16
-15
-16
-17
-17
-17
-17
-16
-15
-16
-17
-18
-19
-19
-19
-19
-19
-20
-21
-21
-21
-21
-21
-21
-21
-21
-21
-21
-21
-21
-21
-21
-21
-21
-21
-21
-21
-22
-23
-22
-21
-22
-23
-23
-22
-20
-19
-19
-20
-21
-21
-21
-21
-21
-19
-17
-14
-11
-10
-9
-8
-7
-5
-3
-2
-1
0
2
4
6
8
9
9
6
1
-2
-4
-8
-12
-16
-20
-21
-21
-21
-22
-23
-22
-21
-21
-22
-23
-23
-23
-23
-23
-24
-25
-24
-23
-22
-21
-19
-17
-17
-17
-18
-19
-17
-5
18
63
129
225
342
343
271
128
-50
-121
-150
-122
-76
-48
-25
-19
-16
-15
-16
-17
-17
-17
-17
-17
-17
-17
-17
-16
-15
-13
-11
-12
-13
-13
-13
-12
-11
-10
-9
-9
-9
-9
-9
-8
-6
-4
-3
-3
-3
-3
-3
-2
-1
0
3
6
7
8
9
10
12
14
17
19
19
19
20
21
22
23
25
27
26
25
25
25
26
27
28
29
28
26
23
20
17
14
11
8
5
1
-3
-6
-8
-10
-12
-14
-16
-17
-18
-19
-19
-19
-19
-19
-19
-19
-19
-18
-17
-17
-17
-18
-19
-19
-19
-20
-21
-19
-17
-18
-19
-20
-21
-20
-19
-18
-17
-18
-19
-19
-19
-20
-21
-21
-21
-21
-21
-21
-21
-22
-23
-23
-23
-24
-25
-25
-23
-23
-23
-23
-23
-23
-24
-25
-24
-23
-22
-21
-22
-23
-24
-25
-25
-25
-25
-25
-24
-23
-23
-23
-23
-23
-23
-23
-22
-21
-22
-23
-23
-23
-23
-23
-22
-19
-16
-14
-12
-11
-11
-10
-9
-7
-5
-4
-3
1
5
4
3
4
4
-1
-6
-9
-12
-16
-20
-23
-25
-25
-25
-24
-24
-26
-27
-28
-29
-29
-29
-29
-29
-28
-28
-30
-31
-30
-29
-28
-27
-27
-27
-27
-24
-21
-24
-27
-20
-10
18
57
133
220
333
366
245
110
-46
-139
-151
-135
-89
-58
-39
-30
-27
-25
-26
-27
-27
-27
-27
-27
-27
-27
-27
-26
-24
-23
-24
-25
-25
-23
-23
-22
-21
-21
-21
-21
-21
-20
-19
-17
-15
-14
-13
-13
-13
-13
-13
-11
-9
-8
-7
-6
-5
-4
-3
-2
-1
0
2
4
5
5
6
8
9
9
9
9
9
10
11
11
9
7
6
5
5
5
5
5
1
-3
-6
-9
-13
-16
-19
-22
-25
-27
-28
-30
-32
-33
-32
-31
-31
-31
-32
-33
-32
-31
-32
-33
-32
-31
-32
-33
-32
-31
-31
-31
-31
-32
-33
-31
-29
-30
-31
-31
-31
-31
-31
-31
-31
-30
-29
-31
-33
-33
-33
-33
-33
-32
-32
-34
-35
-35
-35
-35
-35
-34
-34
-36
-37
-36
-35
-35
-35
-35
-35
-35
-35
-35
-36
-37
-36
-35
-34
-33
-35
-37
-36
-35
-35
-35
-34
-32
-29
-27
-27
-27
-26
-25
-22
-21
-21
-20
-18
-15
-11
-9
-8
-6
-4
-8
-15
-18
-20
-24
-28
-31
-34
-35
-35
-35
-35
-36
-37
-38
-39
-39
-39
-39
-39
-39
-39
-39
-39
-37
-35
-35
-35
-35
-35
-34
-33
-32
-32
-34
-30
-21
2
31
98
182
277
377
267
99
-32
-155
-160
-147
-108
-67
-51
-35
-34
-33
-32
-31
-31
-31
-31
-31
-30
-29
-28
-27
-26
-25
-24
-23
-24
-25
-23
-21
-20
-19
-19
-19
-18
-17
-16
-15
-14
-13
-13
-12
-10
-9
-8
-6
-4
-3
-3
-3
-3
0
1
3
5
6
7
8
9
10
11
10
9
10
11
9
7
8
9
9
9
10
11
10
8
6
4
2
-1
-4
-5
-6
-10
-14
-16
-18
-19
-20
-21
-22
-23
-24
-24
-23
-24
-25
-23
-21
-22
-23
-23
-23
-23
-23
-22
-21
-21
-21
-20
-19
-20
-21
-21
-21
-21
-21
-20
-19
-19
-20
-22
-23
-22
-21
-21
-21
-21
-21
-21
-21
-22
-23
-23
-23
-23
-24
-25
-24
-23
-24
-25
-24
-23
-23
-23
-24
-25
-24
-23
-23
-23
-24
-25
-24
-23
-24
-25
-26
-27
-26
-25
-25
-24
-22
-21
-20
-18
-16
-14
-12
-10
-8
-8
-10
-10
-11
-4
-1
0
1
3
5
0
-5
-8
-11
-13
-16
-20
-23
-24
-25
-26
-27
-27
-27
-27
-27
-28
-29
-29
-29
-28
-27
-28
-29
-28
-27
-26
-25
-24
-23
-22
-21
-22
-22
-20
-1
18
72
132
248
347
313
254
72
-81
-132
-158
-116
-79
-50
-30
-25
-21
-21
-21
-21
-21
-21
-21
-21
-21
-20
-19
-18
-17
-16
-15
-16
-17
-16
-15
-14
-13
-13
-13
-13
-13
-11
-10
-9
-7
-5
-5
-5
-4
-3
-2
-1
0
1
2
3
3
3
5
7
9
11
12
13
14
15
16
17
17
18
20
21
21
21
20
20
22
23
22
21
20
19
19
16
15
13
11
7
3
-1
-5
-6
-7
-10
-13
-15
-17
-19
-21
-22
-23
-22
-21
-21
-21
-21
-21
-21
-21
-20
-19
-20
-21
-20
-19
-20
-21
-20
-19
-20
-21
-20
-19
-18
-17
-17
-19
-21
-20
-19
-20
-21
-20
-19
-20
-21
-22
-23
-22
-21
-21
-21
-22
-23
-23
-23
-24
-25
-24
-23
-23
-23
-24
-25
-24
-23
-23
-23
-23
-23
-23
-23
-23
-23
-22
-21
-23
-24
-25
-23
-21
-22
-23
-22
-21
-22
-23
-22
-21
-20
-18
-15
-13
-12
-11
-10
-9
-8
-7
-6
-3
1
3
3
4
6
5
0
-3
-6
-10
-14
-17
-20
-22
-24
-25
-25
-24
-23
-24
-25
-25
-25
-26
-27
-27
-27
-27
-27
-27
-27
-27
-27
-26
-25
-23
-21
-20
-20
-23
-22
-16
3
31
90
166
261
365
312
207
58
-102
-135
-145
-109
-66
-44
-24
-22
-21
-21
-21
-21
-21
-22
-23
-22
-21
-21
-21
-21
-21
-19
-17
-16
-15
-16
-17
-17
-17
-16
-15
-14
-13
-13
-13
-12
-11
-10
-9
-8
-7
-7
-6
-4
-3
-3
-2
0
2
5
4
3
5
7
9
11
12
13
13
13
13
13
15
17
15
13
14
15
15
15
15
15
14
13
12
10
7
4
2
-1
-6
-8
-10
-12
-14
-16
-18
-21
-24
-25
-25
-25
-27
-25
-23
-24
-25
-25
-25
-25
-25
-24
-23
-23
-23
-23
-23
-23
-23
-24
-25
-24
-23
-24
-25
-25
-25
-26
-27
-27
-27
-27
-27
-27
-27
-27
-27
-28
-29
-29
-29
-29
-29
-29
-31
-33
-32
-31
-32
-33
-32
-31
-33
-35
-35
-35
-33
-31
-32
-33
-33
-33
-34
-35
-34
-33
-32
-31
-32
-33
-34
-34
-32
-31
-31
-31
-32
-33
-34
-35
-35
-34
-32
-31
-31
-32
-33
-32
-31
-27
-23
-24
-25
-23
-21
-21
-21
-19
-16
-13
-11
-9
-7
-5
-3
-6
-9
-14
-18
-21
-25
-29
-32
-34
-35
-36
-37
-36
-35
-34
-33
-34
-35
-36
-37
-37
-38
-39
-39
-39
-38
-37
-37
-37
-36
-35
-33
-31
-33
-32
-23
-7
22
76
165
255
346
302
128
-11
-123
-159
-146
-115
-75
-53
-39
-35
-35
-35
-34
-33
-34
-35
-35
-34
-32
-30
-29
-30
-31
-30
-29
-28
-27
-26
-25
-26
-27
-26
-25
-24
-23
-22
-21
-20
-19
-17
-15
-15
-15
-15
-14
-12
-11
-10
-8
-6
-5
-4
-3
-4
-5
-4
-2
0
1
1
1
1
1
1
0
-1
0
1
0
-1
-2
-3
-2
-1
-2
-3
-5
-8
-11
-13
-15
-17
-20
-22
-24
-26
-28
-30
-32
-33
-33
-33
-33
-33
-32
-31
-32
-33
-32
-31
-31
-31
-31
-31
-31
-31
-31
-31
-31
-31
-31
-30
-29
-29
-29
-29
-29
-31
-33
-32
-31
-31
-31
-31
-32
-34
-35
-34
-33
-33
-33
-34
-35
-34
-33
-34
-35
-35
-35
-35
-35
-35
-35
-35
-34
-33
-34
-35
-35
-35
-35
-35
-35
-35
-35
-35
-35
-35
-34
-32
-29
-27
-27
-27
-25
-23
-22
-20
-18
-17
-16
-14
-10
-8
-6
-3
0
-3
-9
-15
-20
-24
-28
-29
-30
-32
-35
-34
-33
-32
-31
-32
-33
-33
-33
-33
-33
-34
-35
-34
-33
-33
-33
-32
-31
-30
-29
-28
-27
-27
-27
-26
-14
4
48
105
198
305
306
274
113
-78
-133
-165
-133
-93
-64
-91
-31
-27
-25
-23
-24
-25
-24
-23
-22
-21
-21
-21
-20
-19
-19
-19
-19
-19
-17
-15
-14
-13
-14
-15
-14
-13
-12
-11
-10
-9
-8
-7
-6
-5
-4
-3
-2
0
2
3
3
4
5
5
5
8
11
11
11
13
15
15
15
15
15
17
19
19
19
17
15
15
15
15
15
16
16
14
12
10
8
6
3
0
-3
-6
-9
-12
-14
-16
-17
-17
-17
-19
-21
-23
-22
-21
-20
-19
-20
-21
-21
-21
-21
-21
-20
-19
-19
-19
-18
-17
-17
-17
-17
-17
-18
-19
-18
-17
-17
-17
-16
-15
-16
-17
-18
-19
-18
-17
-18
-19
-20
-21
-21
-21
-21
-21
-21
-21
-21
-22
-23
-21
-19
-20
-21
-22
-23
-23
-23
-23
-23
-22
-21
-21
-21
-21
-21
-21
-21
-21
-21
-21
-19
-15
-13
-12
-10
-8
-7
-7
-7
-6
-4
-2
1
3
5
7
5
3
-2
-7
-10
-13
-17
-21
-22
-23
-24
-25
-25
-25
-26
-27
-26
-25
-26
-27
-26
-25
-26
-27
-26
-25
-24
-23
-22
-21
-22
-21
-18
-19
-22
-17
-10
16
44
122
201
311
397
281
158
-4
-135
-145
-142
-97
-59
-36
-21
-21
-21
-21
-21
-21
-21
-20
-19
-20
-21
-20
-19
-20
-20
-18
-17
-16
-15
-15
-15
-15
-15
-14
-13
-12
-11
-11
-11
-11
-8
-5
-5
-5
-4
-3
-1
1
2
3
3
3
4
5
7
9
11
13
13
13
13
14
17
19
19
19
19
19
19
19
18
18
20
21
20
19
18
16
14
10
7
3
-1
-3
-5
-9
-13
-14
-15
-19
-23
-23
-23
-23
-23
-23
-23
-24
-25
-24
-23
-23
-23
-22
-21
-22
-23
-23
-23
-23
-23
-22
-21
-21
-21
-21
-21
-21
-21
-22
-23
-23
-22
-21
-22
-23
-24
-25
-25
-25
-26
-27
-26
-25
-26
-27
-27
-27
-27
-27
-26
-25
-26
-27
-27
-27
-28
-29
-29
-29
-29
-29
-30
-31
-30
-29
-29
-29
-29
-29
-30
-31
-31
-29
-29
-26
-23
-21
-19
-20
-21
-17
-13
-13
-13
-12
-11
-10
-9
-7
-5
-3
-1
-4
-7
-12
-16
-18
-20
-23
-27
-30
-31
-32
-33
-34
-34
-32
-31
-32
-33
-33
-33
-34
-35
-35
-34
-33
-33
-33
-33
-33
-33
-33
-31
-29
-28
-28
-32
-30
-13
12
50
112
204
286
356
280
81
-54
-144
-158
-129
-93
-56
-39
-31
-30
-32
-33
-32
-31
-31
-31
-31
-31
-29
-29
-29
-29
-29
-28
-27
-27
-27
-26
-25
-25
-25
-24
-23
-23
-23
-22
-21
-19
-17
-16
-15
-15
-15
-14
-13
-13
-11
-8
-7
-6
-5
-5
-4
-2
0
2
3
3
3
3
4
3
3
3
4
5
4
3
3
3
3
3
2
0
-4
-7
-8
-9
-11
-14
-19
-22
-25
-27
-28
-29
-30
-31
-32
-34
-36
-37
-36
-35
-35
-35
-35
-35
-34
-33
-33
-33
-33
-33
-33
-33
-33
-33
-33
-33
-33
-33
-33
-33
-33
-34
-35
-34
-33
-34
-35
-34
-33
-34
-35
-35
-35
-35
-35
-36
-37
-36
-35
-36
-37
-37
-37
-37
-37
-37
-37
-37
-37
-37
-38
-39
-38
-37
-37
-37
-38
-39
-39
-39
-38
-36
-32
-29
-28
-27
-27
-27
-26
-24
-21
-19
-18
-16
-13
-11
-12
-11
-8
-11
-17
-22
-28
-30
-32
-34
-36
-37
-38
-39
-39
-40
-41
-41
-41
-42
-43
-42
-41
-41
-41
-41
-41
-41
-41
-41
-41
-40
-38
-35
-33
-33
-35
-39
-32
-14
18
60
142
246
296
324
182
-18
-107
-169
-154
-123
-90
-58
-46
-36
-34
-33
-33
-33
-34
-35
-35
-35
-33
-31
-31
-31
-30
-29
-28
-27
-26
-25
-26
-27
-26
-25
-24
-22
-20
-19
-20
-20
-16
-15
-14
-13
-12
-11
-10
-9
-9
-9
-8
-7
-6
-4
-1
0
1
2
3
3
3
4
5
4
3
4
5
4
3
3
3
3
3
3
3
3
2
0
-2
-5
-8
-10
-11
-12
-15
-20
-21
-22
-23
-24
-25
-26
-28
-30
-31
-31
-29
-29
-28
-27
-28
-29
-29
-29
-27
-25
-25
-25
-25
-25
-25
-25
-25
-25
-25
-25
-24
-23
-23
-23
-23
-23
-22
-21
-22
-23
-24
-25
-24
-23
-23
-23
-23
-23
-24
-25
-26
-26
-25
-25
-25
-26
-27
-27
-27
-27
-27
-26
-25
-25
-25
-21
-19
-17
-15
-13
-11
-11
-11
-10
-8
-5
-2
0
2
4
4
2
-2
-7
-13
-18
-21
-24
-25
-25
-25
-25
-25
-25
-26
-27
-26
-25
-26
-27
-27
-27
-27
-27
-28
-29
-27
-25
-25
-25
-23
-21
-20
-19
-22
-21
-16
5
37
100
182
281
390
283
91
-37
-144
-146
-123
-85
-45
-31
-20
-19
-19
-19
-19
-19
-19
-19
-19
-18
-17
-16
-15
-15
-15
-14
-13
-13
-13
-12
-11
-10
-9
-9
-9
-8
-7
-6
-5
-4
-3
-2
-1
-1
0
2
3
4
6
8
9
10
11
12
14
15
16
17
18
19
21
23
22
21
21
21
23
25
24
23
24
25
24
23
23
22
19
17
16
13
9
6
2
0
-2
-5
-8
-11
-14
-15
-15
-15
-16
-17
-17
-17
-19
-19
-19
-17
-15
-15
-15
-17
-19
-18
-17
-17
-17
-15
-13
-14
-15
-15
-15
-14
-13
-13
-13
-14
-15
-15
-15
-16
-16
-14
-13
-14
-15
-16
-17
-17
-17
-17
-17
-18
-19
-19
-19
-21
-20
-19
-20
-21
-21
-21
-20
-19
-19
-19
-20
-21
-21
-21
-21
-21
-19
-17
-18
-18
-15
-12
-10
-9
-8
-7
-6
-5
-4
-1
2
3
4
6
8
8
6
1
-4
-8
-11
-16
-21
-23
-25
-24
-23
-23
-23
-25
-27
-26
-25
-25
-25
-25
-25
-25
-25
-25
-25
-25
-24
-22
-21
-21
-20
-18
-18
-20
-19
-16
1
21
67
118
217
322
332
334
154
-32
-101
-165
-132
-98
-62
-31
-24
-19
-20
-21
-21
-21
-20
-19
-19
-19
-19
-19
-19
-19
-19
-19
-18
-17
-16
-15
-16
-16
-14
-13
-13
-13
-12
-11
-10
-9
-8
-7
-6
-5
-5
-3
-3
-2
-1
1
3
4
5
6
7
8
9
10
11
13
15
15
15
17
19
18
17
18
19
20
21
21
21
20
19
19
19
19
18
16
12
8
5
2
-1
-4
-8
-11
-13
-15
-17
-19
-21
-23
-22
-21
-22
-23
-23
-23
-21
-19
-19
-19
-21
-23
-22
-21
-21
-21
-20
-19
-20
-21
-21
-21
-21
-21
-21
-21
-21
-21
-21
-21
-22
-23
-23
-23
-23
-23
-23
-23
-23
-24
-25
-25
-25
-26
-27
-26
-25
-25
-25
-25
-25
-26
-27
-28
-29
-26
-25
-25
-25
-26
-27
-26
-25
-26
-27
-27
-26
-24
-23
-22
-20
-18
-17
-18
-17
-19
-13
-13
-12
-11
-7
-3
-2
-1
1
3
0
-4
-10
-16
-20
-23
-25
-27
-28
-29
-29
-29
-29
-29
-30
-31
-31
-31
-32
-33
-34
-35
-34
-33
-32
-31
-31
-31
-32
-32
-30
-28
-27
-26
-25
-28
-30
-18
-1
36
85
177
265
343
347
185
37
-87
-159
-151
-129
-89
-61
-43
-34
-31
-29
-29
-29
-29
-29
-29
-29
-28
-27
-27
-27
-27
-27
-27
-26
-24
-23
-23
-23
-23
-20
-17
-18
-19
-19
-19
-18
-17
-15
-13
-12
-11
-11
-11
-10
-9
-7
-5
-5
-5
-4
-3
-3
-3
-2
0
2
4
6
7
7
7
7
7
7
7
6
5
5
4
3
4
5
4
3
2
1
-2
-5
-8
-11
-13
-16
-19
-22
-25
-27
-27
-27
-28
-29
-28
-27
-28
-29
-30
-31
-30
-29
-28
-27
-28
-29
-28
-27
-27
-27
-27
-27
-26
-27
-29
-29
-29
-28
-27
-26
-25
-26
-27
-28
-29
-29
-29
-29
-29
-29
-29
-30
-31
-31
-31
-32
-32
-30
-29
-30
-31
-31
-31
-31
-31
-31
-31
-32
-33
-33
-33
-32
-28
-24
-23
-21
-22
-23
-21
-19
-17
-15
-14
-13
-10
-7
-7
-7
-4
-3
-9
-14
-18
-22
-25
-27
-30
-31
-32
-33
-33
-34
-36
-37
-36
-35
-35
-35
-36
-36
-34
-33
-33
-33
-34
-35
-35
-35
-35
-32
-29
-28
-27
-28
-29
-26
-19
2
32
87
157
258
318
307
216
13
-113
-153
-155
-119
-86
-54
-37
-30
-27
-26
-25
-25
-25
-26
-26
-24
-23
-23
-23
-24
-24
-22
-20
-19
-19
-19
-18
-17
-16
-15
-14
-13
-12
-11
-11
-11
-9
-7
-6
-5
-4
-3
-3
-3
-2
0
2
3
4
6
8
9
9
9
10
11
11
11
11
11
12
13
13
13
13
13
13
14
15
13
11
10
9
7
5
3
1
-1
-4
-7
-10
-13
-15
-15
-15
-18
-20
-22
-23
-22
-21
-21
-21
-21
-21
-21
-21
-22
-22
-20
-19
-19
-19
-20
-21
-21
-20
-21
-20
-19
-19
-19
-19
-19
-19
-19
-19
-19
-19
-19
-19
-19
-20
-21
-21
-21
-22
-23
-23
-23
-22
-21
-22
-23
-24
-25
-24
-23
-23
-23
-23
-23
-24
-25
-25
-25
-24
-22
-21
-23
-25
-22
-19
-17
-15
-13
-11
-10
-9
-10
-11
-7
-4
0
3
2
1
3
3
-2
-6
-9
-12
-15
-19
-23
-25
-25
-25
-25
-25
-26
-27
-28
-29
-29
-29
-29
-29
-31
-31
-31
-29
-27
-27
-27
-27
-27
-26
-25
-24
-23
-24
-19
1
32
82
162
280
329
303
188
-8
-112
-150
-139
-97
-66
-39
-29
-26
-25
-24
-23
-24
-25
-25
-25
-26
-26
-27
-22
-21
-21
-21
-21
-21
-21
-21
-19
-17
-17
-17
-16
-15
-15
-15
-14
-13
-11
-9
-8
-7
-7
-7
-6
-4
-2
-1
0
1
1
2
4
6
8
9
9
9
9
10
12
14
15
15
15
15
15
14
13
15
17
16
15
14
13
13
13
12
10
7
4
0
-5
-9
-12
-14
-15
-16
-18
-20
-21
-22
-23
-24
-25
-24
-23
-23
-23
-24
-25
-25
-25
-25
-24
-23
-22
-21
-22
-23
-23
-23
-22
-21
-22
-23
-23
-23
-24
-25
-24
-23
-23
-23
-23
-23
-24
-25
-25
-25
-25
-25
-25
-25
-26
-27
-26
-25
-26
-27
-26
-25
-26
-27
-27
-28
-29
-28
-27
-27
-27
-27
-27
-26
-25
-26
-27
-26
-24
-21
-19
-18
-16
-13
-11
-11
-11
-11
-9
-3
-1
0
2
4
3
0
-4
-9
-14
-18
-21
-24
-25
-26
-27
-27
-28
-29
-29
-29
-30
-31
-31
-31
-30
-29
-30
-31
-31
-31
-30
-29
-28
-27
-25
-23
-24
-25
-26
-20
-5
28
74
157
262
317
350
220
29
-76
-157
-144
-112
-78
-44
-34
-26
-25
-25
-26
-27
-26
-25
-25
-25
-24
-23
-23
-23
-24
-25
-24
-23
-23
-23
-22
-21
-19
-17
-17
-17
-16
-15
-14
-13
-12
-11
-10
-9
-9
-9
-9
-8
-6
-4
-2
-1
0
1
1
3
3
5
7
8
9
10
11
11
11
11
11
11
11
11
11
10
9
9
9
9
9
8
7
6
4
1
-3
-6
-9
-12
-15
-18
-19
-20
-22
-24
-25
-25
-25
-25
-24
-23
-26
-29
-28
-27
-27
-27
-26
-25
-26
-27
-27
-27
-26
-25
-24
-23
-25
-27
-27
-27
-26
-25
-25
-25
-25
-25
-26
-27
-26
-25
-25
-25
-26
-27
-28
-29
-29
-29
-29
-29
-31
-30
-29
-28
-27
-28
-29
-29
-29
-29
-29
-29
-29
-28
-26
-23
-21
-21
-21
-19
-17
-14
-13
-12
-9
-5
-3
-4
-3
0
-3
-9
-13
-16
-21
-26
-28
-30
-32
-34
-33
-35
-31
-33
-33
-33
-34
-35
-35
-35
-35
-35
-35
-35
-36
-37
-35
-33
-32
-31
-31
-31
-31
-31
-32
-32
-30
-18
0
39
90
180
288
309
299
141
-56
-126
-173
-151
-119
-86
-52
-40
-29
-29
-29
-29
-29
-30
-31
-28
-25
-25
-25
-26
-27
-26
-25
-23
-21
-21
-21
-20
-19
-20
-20
-18
-17
-17
-17
-16
-15
-15
-14
-12
-11
-10
-8
-6
-5
-5
-5
-4
-3
-1
0
1
2
3
4
5
5
5
7
9
8
7
9
11
9
7
5
3
4
5
8
8
6
5
4
1
-3
-5
-5
-7
-10
-12
-14
-16
-18
-20
-22
-24
-26
-27
-27
-27
-27
-25
-23
-24
-25
-25
-25
-25
-25
-24
-23
-24
-25
-24
-23
-24
-25
-24
-23
-22
-21
-22
-23
-23
-23
-23
-23
-23
-23
-24
-25
-25
-25
-25
-25
-25
-25
-25
-25
-25
-26
-27
-27
-27
-26
-25
-24
-23
-19
-15
-16
-17
-16
-15
-13
-11
-9
-7
-5
-3
-2
0
2
1
-3
-8
-13
-17
-21
-25
-28
-29
-28
-27
-28
-29
-29
-29
-30
-31
-31
-31
-31
-32
-33
-32
-31
-31
-31
-30
-29
-29
-29
-28
-27
-25
-24
-27
-28
-24
-11
14
56
116
208
326
328
242
101
-72
-141
-159
-135
-93
-64
-38
-29
-22
-21
-21
-22
-24
-25
-25
-23
-23
-21
-19
-20
-21
-21
-21
-19
-17
-16
-15
-15
-15
-15
-15
-14
-13
-11
-9
-9
-9
-9
-8
-5
-3
-2
-1
0
1
1
1
2
4
6
7
8
10
12
14
16
18
19
18
17
18
19
18
17
19
21
19
17
17
17
18
19
18
17
15
12
9
5
0
-4
-6
-8
-10
-12
-14
-16
-18
-19
-19
-19
-20
-21
-20
-19
-20
-21
-20
-19
-21
-21
-21
-20
-19
-18
-17
-18
-19
-19
-19
-18
-17
-16
-15
-16
-17
-18
-19
-18
-17
-17
-17
-18
-19
-19
-19
-20
-21
-20
-19
-19
-19
-20
-21
-21
-21
-20
-19
-20
-21
-21
-22
-23
-21
-19
-20
-21
-20
-19
-15
-11
-11
-11
-9
-7
-7
-7
-6
-4
-1
1
2
4
7
8
6
2
-3
-8
-13
-17
-20
-21
-22
-23
-22
-22
-24
-25
-26
-27
-26
-24
-23
-25
-27
-27
-27
-28
-29
-26
-23
-23
-23
-23
-23
-21
-19
-20
-20
-16
-1
25
75
148
244
361
337
215
69
-92
-143
-143
-109
-62
-40
-26
-22
-20
-20
-22
-23
-22
-21
-19
-19
-19
-18
-17
-17
-17
-16
-15
-15
-15
-15
-15
-13
-11
-11
-11
-10
-9
-8
-7
-6
-5
-5
-4
-2
-1
0
2
4
5
5
5
6
8
10
11
12
13
14
15
15
18
19
21
23
22
21
21
21
22
23
23
23
22
21
21
21
19
17
16
14
9
6
3
0
-3
-6
-8
-9
-10
-12
-14
-16
-18
-19
-18
-17
-17
-17
-17
-17
-17
-17
-17
-17
-17
-16
-15
-16
-17
-17
-17
-17
-17
-16
-15
-15
-15
-15
-15
-16
-17
-17
-17
-18
-18
-16
-15
-16
-17
-18
-19
-19
-19
-18
-17
-18
-19
-20
-21
-21
-21
-20
-19
-19
-20
-21
-21
-21
-21
-21
-21
-21
-19
-17
-14
-11
-12
-12
-9
-7
-7
-7
-5
-2
3
5
4
4
6
5
1
-3
-7
-11
-16
-20
-24
-25
-25
-25
-25
-25
-25
-25
-25
-29
-31
-30
-29
-30
-31
-31
-31
-30
-29
-29
-29
-28
-27
-26
-25
-24
-23
-24
-25
-25
-15
4
42
96
183
293
325
315
175
-20
-108
-160
-140
-100
-69
-41
-33
-28
-27
-26
-25
-25
-26
-27
-27
-27
-26
-25
-23
-21
-21
-21
-22
-23
-22
-21
-20
-19
-19
-19
-18
-17
-17
-17
-16
-15
-15
-14
-10
-9
-9
-9
-8
-7
-6
-5
-4
-3
-3
-2
0
2
5
5
5
7
9
9
9
9
9
9
9
9
9
9
9
9
9
10
11
10
9
8
6
4
2
0
-3
-7
-10
-12
-16
-21
-23
-23
-24
-26
-27
-27
-27
-28
-29
-29
-29
-29
-29
-29
-29
-29
-29
-29
-28
-27
-26
-25
-26
-27
-28
-29
-28
-27
-27
-27
-27
-27
-27
-27
-27
-27
-28
-29
-28
-27
-27
-28
-30
-31
-31
-31
-31
-31
-31
-31
-31
-32
-33
-34
-35
-34
-33
-33
-33
-32
-31
-32
-33
-31
-29
-25
-23
-23
-23
-21
-19
-19
-19
-18
-15
-10
-7
-7
-6
-4
-7
-13
-17
-20
-25
-30
-33
-36
-37
-36
-35
-34
-34
-37
-38
-39
-38
-37
-38
-39
-39
-39
-39
-39
-39
-39
-38
-37
-36
-35
-34
-33
-32
-32
-35
-33
-25
-1
33
104
196
288
379
280
106
-28
-150
-164
-151
-119
-83
-62
-42
-39
-41
-34
-33
-32
-31
-31
-31
-31
-31
-31
-31
-29
-27
-27
-27
-27
-27
-27
-27
-25
-23
-22
-21
-21
-21
-20
-19
-18
-17
-16
-15
-15
-15
-14
-13
-12
-11
-10
-9
-8
-7
-6
-3
-1
0
1
3
5
4
3
4
5
4
3
4
5
6
7
7
7
5
3
3
3
3
3
2
0
-3
-6
-10
-11
-12
-15
-18
-20
-22
-23
-24
-26
-28
-29
-28
-27
-27
-27
-27
-26
-25
-25
-25
-25
-25
-24
-23
-24
-25
-24
-23
-23
-23
-23
-23
-23
-23
-22
-21
-22
-23
-24
-25
-24
-23
-23
-23
-24
-25
-25
-25
-25
-25
-25
-25
-25
-25
-25
-26
-25
-26
-27
-27
-27
-25
-23
-22
-21
-19
-17
-17
-16
-13
-11
-11
-11
-10
-9
-6
-4
-1
2
4
3
-1
-5
-9
-14
-19
-22
-24
-25
-26
-27
-27
-27
-28
-29
-28
-28
-29
-30
-31
-31
-31
-31
-31
-30
-29
-29
-29
-29
-29
-28
-26
-23
-21
-22
-23
-24
-24
-21
-5
20
66
127
218
327
329
282
132
-56
-125
-160
-134
-94
-64
-36
-27
-20
-19
-21
-22
-23
-22
-21
-20
-19
-19
-19
-19
-19
-19
-19
-18
-17
-16
-15
-14
-13
-12
-11
-11
-11
-11
-10
-8
-7
-7
-6
-4
-3
-3
-2
0
2
4
6
8
9
9
9
9
12
13
16
19
19
19
20
21
22
23
23
23
23
23
23
23
22
21
22
23
22
20
17
15
14
11
7
3
-1
-5
-8
-10
-12
-13
-14
-16
-18
-19
-19
-19
-18
-17
-17
-17
-17
-17
-17
-17
-17
-17
-17
-17
-17
-16
-15
-14
-13
-14
-15
-15
-15
-16
-17
-16
-15
-14
-13
-14
-15
-15
-15
-16
-17
-17
-17
-17
-17
-18
-19
-19
-19
-19
-19
-19
-18
-17
-18
-19
-19
-19
-19
-19
-19
-19
-19
-19
-19
-18
-15
-12
-9
-7
-7
-7
-6
-5
-5
-4
-2
0
3
5
6
7
8
7
4
1
-2
-6
-10
-14
-18
-19
-19
-21
-23
-21
-19
-21
-23
-24
-25
-24
-23
-22
-21
-23
-25
-25
-25
-25
-25
-23
-21
-21
-21
-20
-19
-18
-17
-18
-10
4
39
82
159
248
324
395
251
66
-49
-156
-143
-122
-80
-39
-29
-19
-19
-19
-20
-21
-19
-17
-18
-19
-19
-19
-17
-15
-14
-13
-14
-15
-14
-13
-13
-13
-12
-11
-11
-11
-11
-10
-8
-7
-6
-5
-4
-3
-3
-3
-2
0
2
3
5
6
7
9
11
13
15
16
17
17
17
18
19
20
21
21
21
21
21
22
23
23
23
22
21
21
20
18
16
14
11
8
4
-2
-5
-8
-10
-12
-14
-16
-17
-17
-18
-19
-19
-19
-19
-19
-19
-19
-19
-19
-19
-19
-19
-19
-18
-17
-18
-19
-18
-17
-17
-17
-18
-19
-18
-17
-18
-19
-19
-19
-19
-19
-19
-19
-19
-19
-20
-21
-22
-23
-22
-21
-21
-23
-25
-25
-25
-24
-23
-23
-23
-24
-25
-25
-25
-24
-23
-23
-23
-24
-25
-25
-25
-26
-26
-23
-21
-22
-21
-17
-15
-15
-14
-12
-11
-11
-10
-8
-6
-4
-2
0
2
5
3
1
-3
-7
-12
-17
-21
-25
-25
-25
-26
-27
-26
-25
-27
-29
-29
-29
-28
-27
-28
-30
-32
-33
-32
-31
-31
-30
-28
-27
-27
-27
-27
-26
-24
-24
-26
-16
-4
33
-3
169
265
315
343
150
-27
-105
-164
-134
-103
-67
-40
-34
-28
-25
-23
-25
-27
-26
-25
-25
-25
-25
-24
-22
-21
-22
-23
-23
-23
-22
-20
-18
-17
-17
-17
-16
-15
-14
-13
-14
-13
-11
-10
-9
-9
-9
-7
-5
-5
-5
-4
-3
0
3
3
3
3
3
3
4
7
9
10
11
11
10
8
7
8
9
9
9
10
11
10
9
9
9
8
5
2
-2
-7
-9
-11
-13
-15
-17
-19
-22
-25
-26
-27
-28
-29
-27
-25
-26
-27
-28
-29
-27
-25
-25
-25
-25
-25
-25
-25
-25
-25
-25
-25
-25
-25
-24
-23
-23
-23
-23
-23
-24
-25
-25
-25
-27
-26
-25
-26
-27
-26
-25
-27
-29
-28
-27
-28
-29
-28
-27
-28
-29
-29
-29
-28
-27
-27
-27
-26
-24
-22
-21
-21
-20
-18
-17
-16
-15
-14
-10
-6
-4
-2
1
4
-1
-7
-12
-17
-22
-27
-28
-29
-29
-29
-29
-29
-29
-29
-30
-31
-31
-31
-32
-33
-32
-31
-32
-32
-30
-29
-30
-31
-30
-29
-28
-26
-24
-23
-23
-24
-26
-14
1
41
83
176
269
325
365
169
-15
-97
-164
-141
-116
-78
-46
-32
-21
-20
-19
-19
-19
-19
-19
-18
-17
-17
-17
-17
-17
-16
-15
-15
-14
-12
-11
-12
-13
-12
-10
-8
-7
-6
-5
-6
-7
-7
-3
-1
2
5
4
3
3
3
6
9
10
11
12
13
13
13
15
17
18
19
20
21
21
