-39
-35
-31
-27
-23
-22
-21
-21
-21
-15
-11
-6
-3
-5
-8
-11
-12
-8
-6
-9
-15
-24
-31
-36
-39
-39
-39
-39
-39
-39
-39
-40
-41
-41
-41
-41
-41
-42
-42
-40
-39
-38
-37
-37
-37
-37
-35
-33
-31
-31
-45
-61
-83
-92
-63
-10
96
211
339
403
374
262
52
-87
-157
-185
-177
-144
-95
-62
-39
-27
-21
-19
-18
-17
-17
-17
-16
-15
-14
-12
-10
-9
-9
-7
-5
-3
-1
0
1
3
5
6
7
9
11
13
15
17
20
23
26
30
33
36
39
43
47
51
56
62
69
76
83
89
95
101
107
112
115
118
122
126
127
127
126
123
114
104
90
75
61
47
32
19
8
-3
-11
-18
-22
-26
-29
-32
-35
-37
-40
-41
-41
-41
-42
-43
-42
-41
-41
-41
-42
-43
-43
-43
-42
-41
-41
-41
-41
-41
-41
-40
-39
-40
-41
-40
-39
-38
-37
-38
-39
-39
-39
-39
-39
-39
-39
-40
-41
-41
-41
-41
-41
-41
-41
-41
-41
-42
-43
-43
-43
-43
-43
-43
-43
-43
-43
-42
-41
-41
-40
-38
-35
-31
-28
-25
-24
-23
-18
-13
-9
-5
-8
-11
-14
-16
-12
-10
-13
-17
-24
-32
-40
-45
-44
-43
-44
-45
-45
-45
-45
-45
-45
-45
-46
-47
-46
-45
-46
-47
-46
-45
-45
-44
-45
-41
-41
-39
-37
-41
-48
-70
-89
-86
-66
9
102
244
348
377
324
132
-25
-136
-195
-194
-174
-136
-100
-65
-43
-30
-24
-22
-21
-21
-21
-20
-19
-18
-17
-16
-14
-12
-10
-8
-6
-5
-4
-3
-2
-1
2
5
6
7
10
13
16
19
23
26
29
32
35
39
44
48
51
55
59
65
72
78
85
93
102
108
113
118
122
123
124
126
128
127
124
117
109
96
83
67
52
39
26
13
2
-6
-14
-19
-24
-29
-34
-37
-39
-40
-41
-41
-41
-41
-41
-42
-43
-44
-44
-42
-41
-41
-41
-41
-41
-41
-41
-40
-39
-39
-39
-40
-41
-41
-40
-41
-41
-41
-41
-41
-40
-39
-38
-37
-38
-39
-40
-41
-42
-43
-42
-41
-42
-43
-44
-45
-45
-45
-44
-43
-44
-45
-45
-45
-45
-45
-44
-43
-43
-43
-43
-38
-32
-28
-24
-25
-27
-24
-21
-15
-9
-9
-9
-15
-19
-18
-17
-15
-13
-17
-23
-37
-45
-44
-43
-43
-43
-44
-45
-45
-46
-48
-48
-46
-45
-45
-45
-44
-43
-43
-43
-42
-41
-41
-40
-38
-37
-37
-37
-38
-56
-73
-78
-74
-15
58
183
296
373
388
255
108
-66
-178
-192
-191
-168
-134
-89
-57
-38
-25
-18
-14
-12
-11
-12
-12
-10
-8
-6
-5
-4
-3
-2
-1
0
2
1
7
9
11
13
14
15
18
21
23
25
27
29
32
36
40
44
48
52
56
62
69
76
82
89
96
102
107
112
117
122
127
129
130
131
130
127
124
116
108
96
84
70
57
45
33
22
12
4
-4
-12
-20
-25
-29
-30
-31
-35
-37
-37
-37
-38
-39
-39
-39
-38
-37
-37
-37
-37
-37
-36
-35
-35
-35
-35
-35
-36
-37
-36
-35
-35
-35
-35
-35
-35
-35
-35
-34
-33
-33
-33
-35
-37
-36
-35
-36
-37
-38
-39
-39
-39
-38
-37
-38
-39
-40
-41
-41
-41
-40
-39
-40
-41
-41
-41
-41
-38
-32
-28
-24
-23
-23
-23
-22
-16
-21
-7
-5
-10
-15
-14
-13
-11
-9
-13
-19
-29
-37
-40
-43
-44
-45
-44
-43
-44
-45
-45
-45
-45
-45
-46
-47
-46
-45
-46
-46
-44
-43
-44
-45
-44
-43
-42
-40
-38
-47
-58
-77
-95
-68
-35
78
191
310
403
365
290
80
-93
-161
-207
-197
-175
-130
-92
-63
-43
-33
-26
-24
-23
-22
-21
-21
-20
-18
-17
-16
-14
-12
-11
-11
-10
-8
-7
-6
-4
-2
0
3
5
7
10
13
15
17
18
19
23
27
30
34
38
42
46
51
57
64
71
78
85
91
96
102
108
113
117
120
122
123
122
118
114
104
91
77
63
48
32
20
31
-2
-11
-18
-25
-29
-33
-35
-37
-40
-43
-44
-45
-45
-45
-45
-45
-45
-45
-45
-45
-45
-45
-44
-43
-43
-43
-43
-43
-44
-45
-44
-43
-43
-43
-43
-43
-43
-43
-42
-41
-40
-39
-39
-39
-39
-40
-41
-41
-41
-41
-41
-42
-43
-43
-43
-43
-43
-43
-43
-43
-43
-44
-45
-45
-45
-46
-47
-46
-45
-44
-43
-43
-40
-36
-33
-30
-29
-28
-27
-27
-22
-16
-13
-9
-12
-15
-17
-19
-15
-11
-15
-20
-30
-38
-42
-45
-46
-47
-47
-47
-46
-45
-45
-45
-46
-47
-47
-47
-47
-47
-46
-45
-45
-45
-45
-45
-44
-42
-40
-39
-38
-42
-48
-71
-49
-88
-78
4
92
232
357
391
386
204
35
-93
-187
-196
-191
-152
-113
-75
-48
-36
-29
-28
-27
-26
-25
-24
-22
-20
-19
-19
-18
-16
-14
-12
-11
-10
-9
-9
-7
-4
-3
-2
1
3
5
7
9
11
15
19
21
23
26
30
35
40
45
50
55
61
66
72
80
88
95
101
106
110
113
117
121
124
126
125
122
115
107
94
79
65
51
37
24
12
-1
-9
-17
-23
-29
-33
-37
-39
-41
-42
-43
-44
-45
-46
-47
-47
-47
-47
-47
-46
-45
-45
-45
-46
-47
-46
-45
-45
-45
-45
-45
-46
-47
-46
-45
-44
-43
-43
-43
-42
-41
-41
-41
-41
-41
-41
-42
-43
-43
-43
-42
-41
-42
-43
-43
-43
-43
-43
-43
-43
-43
-43
-44
-45
-44
-43
-43
-43
-43
-43
-43
-43
-42
-38
-33
-30
-28
-27
-28
-25
-20
-15
-10
-11
-13
-16
-19
-16
-13
-15
-17
-23
-29
-38
-45
-46
-47
-47
-47
-47
-47
-47
-47
-46
-45
-46
-47
-47
-47
-47
-47
-47
-46
-44
-43
-43
-43
-42
-41
-40
-39
-40
-59
-80
-92
-105
-53
3
131
255
352
422
335
226
29
-129
-172
-197
-173
-141
-94
-59
-41
-30
-26
-23
-24
-25
-24
-23
-22
-21
-20
-19
-18
-17
-16
-14
-12
-10
-8
-7
-6
-5
-4
-2
-3
3
5
8
11
12
13
17
21
24
27
30
33
35
39
46
52
58
64
71
78
85
92
98
104
110
115
119
121
122
123
124
122
117
107
97
81
63
49
34
22
10
-1
-11
-18
-25
-30
-35
-38
-41
-42
-43
-45
-47
-47
-47
-46
-45
-44
-43
-45
-47
-48
-49
-48
-47
-46
-45
-46
-47
-47
-47
-46
-45
-45
-45
-45
-45
-45
-45
-44
-43
-43
-43
-43
-45
-47
-46
-45
-45
-45
-46
-47
-47
-47
-47
-47
-47
-47
-48
-49
-48
-47
-48
-49
-49
-49
-49
-49
-48
-47
-48
-49
-49
-49
-49
-49
-48
-47
-47
-47
-46
-45
-44
-39
-43
-30
-27
-28
-29
-26
-22
-14
-7
-7
-8
-14
-18
-14
-11
-11
-13
-20
-29
-39
-45
-46
-47
-46
-45
-44
-43
-43
-43
-44
-45
-46
-47
-46
-45
-45
-45
-45
-45
-44
-43
-43
-42
-41
-40
-39
-43
-49
-72
-91
-87
-66
15
111
249
355
388
341
152
-10
-132
-199
-200
-181
-140
-102
-66
-44
-32
-27
-26
-24
-22
-21
-21
-20
-18
-17
-16
-15
-14
-13
-12
-11
-9
-7
-5
-4
-3
0
3
3
3
7
11
12
14
18
21
23
25
27
31
36
40
45
49
53
58
64
72
80
87
94
100
105
110
116
120
124
125
126
125
122
114
121
92
79
63
48
35
22
11
0
-8
-16
-21
-26
-31
-35
-37
-39
-40
-41
-43
-45
-46
-47
-47
-47
-46
-45
-44
-43
-44
-45
-44
-43
-44
-45
-44
-43
-44
-45
-44
-43
-43
-43
-43
-43
-43
-43
-43
-43
-43
-43
-43
-44
-45
-44
-43
-44
-45
-46
-47
-47
-47
-47
-47
-47
-47
-47
-47
-47
-47
-47
-47
-47
-47
-48
-49
-49
-48
-46
-42
-38
-35
-32
-31
-33
-30
-27
-20
-13
-12
-11
-15
-19
-20
-21
-19
-17
-20
-26
-38
-45
-47
-49
-49
-49
-49
-49
-49
-49
-49
-49
-49
-50
-52
-53
-52
-51
-50
-49
-48
-47
-47
-47
-47
-46
-47
-41
-39
-48
-58
-78
-93
-77
-46
45
145
276
369
361
288
81
-83
-174
-224
-214
-190
-149
-111
-75
-51
-37
-30
-28
-26
-24
-23
-23
-23
-22
-20
-18
-17
-16
-14
-12
-11
-10
-7
-5
-5
-5
-2
1
4
7
9
11
12
14
18
21
25
28
33
38
41
45
50
56
62
68
74
80
86
93
100
107
113
116
118
120
122
123
123
119
114
101
88
74
59
44
29
18
6
-4
-14
-21
-27
-31
-35
-38
-41
-43
-45
-46
-47
-47
-47
-48
-49
-49
-49
-48
-47
-47
-47
-47
-47
-48
-49
-48
-47
-47
-47
-46
-45
-45
-45
-45
-45
-45
-42
-41
-43
-45
-45
-45
-45
-45
-45
-45
-44
-43
-44
-45
-46
-47
-48
-49
-49
-49
-50
-51
-50
-49
-48
-47
-48
-49
-49
-49
-49
-49
-49
-49
-49
-49
-49
-47
-44
-38
-32
-29
-27
-29
-31
-26
-21
-16
-11
-13
-15
-19
-22
-18
-15
-16
-19
-26
-34
-42
-47
-47
-47
-47
-47
-47
-47
-47
-47
-47
-47
-47
-47
-47
-47
-46
-45
-45
-45
-44
-43
-43
-43
-41
-38
-35
-42
-51
-71
-89
-86
-70
-3
79
209
321
388
392
273
130
-47
-160
-191
-193
-163
-126
-81
-53
-37
-29
-25
-23
-24
-25
-24
-22
-20
-18
-16
-15
-14
-13
-13
-12
-13
-7
-5
-3
-1
-1
-1
2
5
7
9
11
13
15
18
21
24
28
32
36
40
43
48
55
63
70
76
82
89
95
101
107
112
116
118
120
121
122
123
122
114
106
91
77
62
47
34
22
13
4
-4
-12
-19
-26
-30
-33
-35
-37
-38
-39
-41
-43
-42
-41
-41
-41
-41
-41
-42
-43
-42
-41
-41
-41
-41
-41
-41
-41
-41
-41
-41
-41
-41
-41
-41
-40
-39
-38
-37
-37
-37
-38
-39
-39
-39
-38
-37
-38
-39
-39
-39
-40
-41
-42
-43
-42
-41
-41
-41
-42
-43
-43
-43
-43
-43
-42
-41
-41
-41
-41
-41
-41
-40
-38
-33
-37
-25
-23
-24
-25
-21
-17
-10
-5
-7
-9
-11
-13
-11
-9
-9
-11
-17
-25
-35
-41
-42
-43
-42
-41
-40
-39
-40
-41
-40
-39
-39
-39
-39
-39
-39
-39
-39
-39
-38
-37
-36
-35
-35
-33
-31
-35
-42
-66
-86
-80
-58
21
114
247
354
404
383
231
79
-76
-168
-186
-177
-139
-101
-63
-40
-28
-22
-20
-19
-19
-19
-18
-17
-16
-14
-12
-11
-10
-9
-8
-6
-3
-2
-1
1
3
4
5
7
9
12
15
16
17
19
22
26
30
33
37
42
46
51
55
60
67
74
80
86
93
99
105
111
116
120
123
126
127
128
128
126
118
125
95
81
65
50
37
24
14
4
-7
-16
-21
-26
-30
-33
-34
-35
-36
-37
-39
-41
-41
-41
-40
-39
-39
-39
-40
-41
-41
-41
-41
-41
-40
-39
-40
-41
-42
-42
-40
-39
-39
-39
-39
-40
-41
-39
-37
-37
-37
-38
-39
-39
-39
-39
-39
-39
-39
-39
-39
-40
-41
-41
-41
-41
-41
-42
-43
-43
-43
-43
-43
-42
-41
-42
-43
-43
-43
-42
-41
-41
-41
-41
-39
-35
-30
-25
-23
-21
-21
-21
-16
-11
-7
-3
-6
-9
-11
-12
-9
-8
-11
-17
-26
-33
-38
-41
-42
-42
-40
-39
-39
-39
-39
-40
-42
-43
-43
-43
-42
-41
-41
-41
-41
-41
-41
-38
-37
-36
-35
-34
-34
-44
-57
-82
-94
-61
0
133
257
364
398
308
176
-11
-130
-172
-184
-166
-131
-84
-55
-37
-28
-23
-21
-21
-20
-18
-17
-17
-17
-16
-14
-12
-11
-10
-8
-7
-7
-7
-4
-1
1
3
4
5
7
9
12
15
17
20
23
26
29
32
36
41
45
49
53
58
64
70
77
83
89
94
99
105
110
114
118
121
124
125
125
121
115
104
93
78
64
48
34
21
10
0
-9
-17
-24
-28
-32
-36
-39
-40
-41
-42
-43
-44
-45
-46
-47
-46
-45
-45
-45
-46
-47
-46
-45
-45
-45
-44
-43
-44
-45
-45
-45
-45
-43
-43
-43
-43
-43
-43
-43
-43
-42
-41
-43
-45
-45
-45
-44
-43
-43
-43
-44
-45
-48
-49
-48
-47
-46
-45
-46
-47
-47
-47
-48
-49
-48
-47
-48
-49
-48
-47
-46
-45
-44
-38
-33
-31
-29
-30
-31
-27
-22
-15
-9
-10
-12
-16
-19
-18
-17
-16
-17
-22
-29
-39
-46
-48
-49
-48
-47
-48
-49
-49
-49
-48
-47
-47
-47
-48
-49
-48
-47
-47
-47
-47
-47
-45
-45
-45
-43
-41
-40
-41
-55
-70
-86
-90
-53
6
117
227
332
373
309
185
-18
-145
-191
-203
-184
-148
-101
-69
-47
-35
-28
-25
-26
-26
-24
-22
-20
-18
-16
-15
-14
-13
-13
-9
-7
-7
-7
-6
-5
-2
1
3
5
6
7
9
12
16
20
23
26
29
32
37
41
46
52
58
64
70
77
83
90
97
102
107
112
116
118
120
122
124
125
124
117
111
98
84
70
56
40
25
13
2
-6
-14
-22
-27
-31
-34
-37
-40
-43
-45
-45
-45
-46
-47
-47
-47
-48
-48
-46
-45
-45
-45
-46
-47
-46
-45
-45
-45
-45
-45
-45
-45
-47
-45
-43
-43
-43
-43
-43
-43
-43
-43
-43
-43
-43
-45
-47
-47
-47
-45
-43
-45
-47
-47
-47
-48
-49
-49
-49
-49
-49
-49
-49
-50
-50
-48
-47
-47
-47
-48
-49
-49
-49
-49
-42
-37
-34
-31
-30
-29
-27
-24
-18
-13
-11
-10
-14
-17
-19
-20
-16
-14
-18
-26
-37
-44
-46
-47
-48
-49
-49
-48
-46
-45
-46
-47
-47
-48
-50
-51
-50
-49
-48
-47
-47
-45
-43
-43
-43
-42
-41
-40
-41
-57
-71
-85
-82
-32
41
164
273
359
358
226
75
-99
-194
-208
-203
-179
-142
-96
-66
-44
-33
-27
-24
-22
-21
-21
-20
-18
-17
-16
-15
-15
-14
-11
-10
-9
-6
-3
-2
-1
0
1
4
7
9
11
13
15
17
20
23
26
29
32
37
40
43
48
54
60
66
73
79
85
91
97
103
108
112
116
120
121
122
123
123
116
111
98
84
70
56
43
31
19
7
-2
-11
-18
-24
-29
-33
-35
-38
-41
-43
-43
-43
-43
-43
-43
-43
-43
-43
-44
-45
-46
-47
-46
-45
-45
-45
-44
-43
-42
-41
-41
-41
-41
-41
-41
-41
-41
-41
-41
-41
-41
-42
-43
-42
-41
-41
-41
-41
-41
-42
-43
-44
-45
-45
-45
-45
-45
-45
-45
-45
-45
-45
-45
-45
-45
-45
-45
-45
-45
-44
-43
-44
-41
-35
-32
-29
-28
-27
-27
-27
-20
-15
-12
-9
-12
-15
-17
-18
-15
-14
-17
-22
-30
-37
-42
-45
-45
-45
-45
-45
-45
-45
-45
-45
-45
-45
-45
-45
-46
-47
-46
-45
-45
-45
-45
-42
-41
-41
-41
-41
-42
-55
-68
-88
-96
-62
-7
103
216
337
400
363
253
42
-103
-173
-200
-186
-150
-98
-64
-43
-31
-25
-23
-24
-24
-22
-21
-21
-21
-20
-19
-18
-16
-14
-11
-9
-8
-7
-6
-5
-3
-1
1
3
4
5
8
11
15
18
21
23
25
28
32
37
41
45
50
56
61
67
74
81
89
96
103
108
112
115
118
121
124
125
124
118
111
100
89
74
60
46
32
19
8
0
-8
-15
-22
-28
-34
-37
-39
-41
-43
-43
-43
-43
-43
-44
-45
-44
-43
-44
-45
-45
-45
-46
-47
-47
-47
-46
-45
-44
-43
-43
-43
-43
-42
-41
-41
-41
-41
-41
-41
-41
-41
-41
-40
-39
-40
-41
-40
-39
-40
-41
-42
-43
-43
-43
-43
-43
-43
-43
-43
-43
-44
-45
-44
-43
-43
-43
-44
-45
-44
-43
-42
-38
-34
-29
-25
-26
-27
-25
-23
-17
-11
-9
-7
-10
-13
-15
-16
-12
-10
-14
-21
-31
-38
-42
-45
-44
-43
-43
-43
-43
-43
-43
-43
-43
-43
-43
-43
-43
-43
-43
-43
-42
-41
-41
-41
-41
-39
-37
-36
-36
-54
-71
-87
-93
-52
8
128
244
352
407
359
250
48
-96
-164
-193
-178
-144
-93
-60
-39
-28
-23
-21
-21
-21
-21
-20
-18
-17
-16
-14
-12
-11
-10
-9
-9
-5
-3
-2
-1
0
1
4
7
9
11
13
15
17
20
24
27
29
32
36
40
45
49
54
61
68
75
82
89
95
101
107
112
117
121
124
126
128
129
129
126
122
108
95
81
66
52
38
23
10
1
-8
-15
-22
-26
-29
-31
-33
-35
-37
-38
-39
-39
-39
-39
-39
-39
-39
-40
-41
-41
-41
-41
-41
-41
-41
-41
-41
-41
-41
-40
-39
-39
-37
-33
-32
-31
-31
-31
-31
-31
-31
-31
-31
-31
-31
-31
-32
-33
-32
-31
-30
-29
-30
-31
-32
-33
-33
-33
-33
-33
-33
-33
-34
-35
-36
-37
-36
-35
-36
-37
-36
-35
-35
-35
-35
-33
-31
-26
-21
-19
-17
-18
-19
-15
-10
-5
-1
-2
-4
-7
-9
-7
-5
-7
-11
-18
-25
-33
-37
-38
-39
-38
-37
-37
-37
-36
-35
-36
-37
-38
-39
-40
-41
-40
-39
-38
-36
-35
-36
-37
-36
-35
-33
-32
-38
-48
-72
-89
-81
-48
41
147
281
373
404
339
158
5
-120
-180
-186
-165
-124
-89
-56
-38
-26
-23
-22
-21
-20
-19
-18
-17
-16
-14
-12
-11
-11
-9
-7
-5
-3
-2
-1
0
1
2
3
6
9
10
11
13
16
19
22
26
30
35
38
40
43
47
52
58
65
71
76
81
88
95
101
108
113
118
120
122
124
123
125
123
114
104
90
75
61
47
32
19
6
-5
-13
-21
-27
-32
-35
-37
-39
-41
-44
-45
-45
-45
-46
-47
-47
-47
-47
-47
-47
-47
-47
-47
-47
-47
-46
-45
-46
-46
-44
-43
-43
-43
-43
-44
-45
-45
-45
-44
-43
-44
-45
-44
-43
-43
-43
-44
-45
-46
-47
-47
-47
-47
-47
-47
-47
-48
-49
-49
-49
-49
-49
-48
-47
-48
-49
-48
-47
-48
-49
-49
-49
-47
-45
-43
-40
-37
-34
-31
-31
-31
-28
-24
-18
-13
-12
-12
-17
-21
-19
-17
-17
-18
-21
-29
-41
-47
-48
-49
-49
-49
-49
-49
-49
-49
-49
-49
-49
-49
-49
-49
-48
-47
-47
-47
-47
-47
-47
-46
-45
-43
-41
-41
-44
-59
-75
-89
-87
-51
12
119
226
333
363
303
172
-26
-142
-196
-209
-196
-165
-125
-92
-61
-44
-32
-29
-28
-27
-26
-25
-24
-22
-20
-19
-19
-18
-17
-15
-13
-10
-7
-7
-7
-6
-5
-2
1
2
3
5
8
11
13
15
19
23
27
31
35
39
44
51
57
63
69
75
81
87
94
100
106
112
114
116
118
121
121
121
113
104
90
75
57
40
25
11
1
-9
-17
-25
-31
-36
-39
-42
-45
-47
-47
-47
-48
-49
-50
-51
-51
-51
-52
-53
-52
-51
-50
-49
-50
-51
-51
-51
-50
-49
-49
-48
-47
-47
-47
-48
-49
-48
-47
-47
-47
-46
-45
-47
-49
-48
-47
-48
-49
-49
-49
-50
-51
-51
-51
-51
-51
-51
-51
-51
-51
-51
-51
-51
-51
-51
-51
-52
-53
-52
-51
-51
-50
-49
-48
-47
-42
-37
-34
-31
-32
-33
-31
-27
-19
-13
-13
-14
-19
-23
-23
-22
-18
-16
-19
-27
-40
-46
-49
-51
-51
-50
-48
-47
-48
-49
-49
-49
-49
-49
-49
-49
-49
-49
-49
-48
-47
-46
-45
-45
-45
-44
-43
-42
-45
-61
-77
-91
-89
-52
16
131
244
351
383
333
199
-10
-132
-191
-203
-185
-149
-104
-74
-49
-36
-27
-25
-25
-25
-24
-23
-22
-21
-21
-16
-13
-13
-13
-12
-11
-10
-9
-7
-5
-2
1
1
2
6
9
10
11
13
16
19
23
28
32
35
40
45
49
53
59
65
72
79
85
90
96
102
107
112
115
118
122
125
123
121
116
110
97
83
69
54
40
27
15
5
-3
-11
-18
-25
-30
-33
-35
-37
-38
-39
-40
-41
-42
-43
-43
-43
-43
-43
-43
-43
-43
-43
-42
-41
-41
-41
-42
-43
-45
-44
-43
-41
-39
-39
-39
-39
-39
-38
-37
-37
-37
-37
-37
-38
-39
-38
-37
-38
-39
-40
-41
-41
-41
-41
-41
-41
-41
-42
-43
-44
-45
-44
-43
-43
-43
-43
-43
-43
-43
-43
-43
-43
-42
-41
-42
-43
-40
-37
-31
-27
-24
-21
-23
-24
-19
-14
-8
-5
-6
-8
-13
-14
-11
-9
-10
-14
-19
-27
-37
-41
-42
-43
-42
-41
-41
-41
-41
-41
-41
-41
-40
-40
-41
-41
-41
-40
-39
-38
-37
-37
-37
-37
-37
-35
-33
-34
-42
-64
-79
-84
-58
6
109
250
349
413
353
206
52
-105
-169
-189
-172
-140
-101
-61
-41
-25
-21
-18
-17
-18
-19
-17
-15
-13
-12
-11
-10
-9
-7
-5
-4
-3
-1
1
2
3
4
5
7
10
13
15
18
20
22
24
27
31
35
39
42
45
50
55
61
67
74
81
88
94
100
107
101
119
123
127
131
132
133
131
129
123
116
103
89
73
57
44
31
17
6
-4
-12
-21
-26
-29
-31
-32
-33
-34
-35
-36
-37
-37
-37
-37
-37
-38
-39
-39
-39
-38
-37
-37
-37
-37
-38
-39
-38
-37
-37
-37
-36
-35
-35
-35
-35
-35
-35
-35
-35
-35
-36
-37
-36
-35
-35
-35
-36
-37
-38
-39
-39
-39
-38
-37
-38
-39
-39
-39
-39
-39
-39
-39
-40
-41
-41
-39
-37
-38
-39
-38
-37
-38
-39
-38
-36
-32
-28
-24
-21
-21
-21
-20
-17
-11
-6
-3
-3
-7
-9
-10
-10
-7
-7
-11
-19
-28
-34
-38
-39
-40
-40
-38
-37
-38
-39
-39
-39
-39
-39
-39
-40
-41
-40
-39
-38
-37
-37
-37
-36
-35
-34
-33
-32
-36
-49
-66
-85
-76
-40
44
165
277
384
383
323
168
-28
-120
-177
-180
-167
-125
-77
-54
-35
-29
-24
-22
-21
-21
-21
-19
-17
-16
-15
-14
-13
-12
-11
-10
-9
-5
-3
-2
-1
0
1
3
6
9
12
14
16
18
21
25
28
30
33
36
40
44
48
52
58
64
70
76
82
89
96
103
109
115
119
123
125
127
128
129
126
121
112
100
83
68
54
40
26
14
3
-6
-13
-20
-26
-30
-33
-36
-38
-40
-42
-43
-42
-41
-41
-41
-42
-43
-44
-45
-45
-43
-43
-43
-43
-44
-45
-44
-43
-43
-43
-43
-43
-43
-43
-43
-43
-42
-41
-42
-43
-43
-43
-42
-41
-42
-43
-43
-43
-43
-43
-44
-45
-45
-45
-46
-47
-47
-47
-47
-47
-46
-45
-45
-46
-47
-47
-47
-46
-45
-46
-47
-47
-47
-46
-45
-45
-45
-43
-40
-36
-32
-29
-27
-28
-28
-25
-20
-14
-11
-11
-13
-16
-17
-16
-15
-15
-19
-24
-33
-44
-46
-48
-49
-49
-47
-45
-45
-45
-46
-47
-47
-47
-47
-47
-47
-47
-47
-47
-46
-45
-44
-43
-42
-41
-38
-39
-44
-61
-85
-92
-87
-31
50
171
308
370
409
286
124
-20
-161
-187
-200
-170
-201
-98
-59
-44
-31
-28
-25
-25
-25
-24
-23
-22
-21
-19
-17
-17
-16
-13
-11
-11
-11
-10
-8
-5
-3
-3
-2
0
2
4
7
11
15
18
20
22
25
28
33
38
43
48
54
59
64
69
76
83
89
96
102
108
113
117
120
123
127
128
125
120
112
102
91
78
62
47
32
18
6
-4
-14
-20
-25
-30
-35
-38
-40
-41
-42
-43
-43
-43
-44
-45
-47
-47
-47
-48
-49
-48
-47
-47
-47
-47
-47
-47
-47
-46
-45
-46
-47
-46
-45
-44
-43
-43
-43
-44
-45
-45
-45
-45
-45
-46
-47
-46
-45
-46
-46
-44
-43
-43
-43
-43
-43
-43
-42
-41
-42
-43
-44
-45
-44
-43
-43
-43
-43
-43
-43
-43
-42
-41
-39
-36
-32
-28
-25
-23
-24
-23
-17
-12
-7
-6
-8
-11
-14
-13
-10
-9
-10
-17
-26
-34
-42
-43
-43
-44
-45
-45
-45
-44
-43
-43
-43
-43
-43
-44
-45
-45
-45
-44
-43
-42
-41
-41
-41
-40
-39
-39
-42
-48
-63
-85
-85
-72
-3
91
214
347
361
339
160
-52
-142
-215
-209
-196
-152
-107
-75
-45
-37
-29
-27
-25
-23
-21
-20
-19
-17
-15
-14
-13
-13
-13
-11
-9
-7
-5
-2
-1
0
2
4
6
8
10
12
15
18
21
24
28
32
34
36
40
44
50
45
63
69
75
81
87
94
101
108
114
119
122
125
127
129
130
130
126
119
107
94
79
64
48
34
21
9
-1
-10
-18
-25
-31
-34
-36
-39
-42
-44
-46
-47
-46
-45
-45
-46
-47
-47
-47
-47
-47
-46
-45
-45
-45
-45
-45
-45
-45
-45
-45
-45
-45
-45
-45
-45
-45
-45
-45
-44
-43
-44
-45
-44
-43
-44
-45
-45
-45
-45
-45
-45
-45
-45
-45
-46
-47
-47
-47
-47
-47
-47
-47
-47
-48
-49
-48
-47
-47
-47
-47
-46
-43
-39
-34
-30
-27
-25
-28
-27
-23
-17
-10
-8
-10
-14
-19
-19
-16
-15
-16
-21
-28
-36
-44
-45
-46
-47
-47
-45
-45
-45
-45
-46
-47
-46
-45
-45
-45
-45
-45
-45
-45
-44
-43
-42
-41
-41
-41
-38
-41
-49
-66
-89
-83
-55
35
158
274
386
390
356
187
-17
-116
-196
-198
-190
-151
-110
-78
-47
-36
-25
-24
-23
-23
-23
-21
-19
-19
-19
-16
-13
-12
-11
-10
-9
-8
-7
-5
-2
0
1
2
4
6
8
12
14
16
19
22
25
28
31
34
38
42
47
52
57
63
71
79
85
91
100
107
112
117
120
123
126
129
128
126
122
115
104
92
78
64
49
34
21
10
-1
-8
-14
-21
-27
-31
-36
-37
-38
-39
-40
-41
-42
-43
-43
-43
-43
-43
-43
-43
-43
-43
-43
-43
-43
-42
-41
-41
-41
-41
-41
-41
-41
-40
-39
-39
-39
-39
-39
-38
-37
-37
-37
-37
-37
-37
-37
-37
-37
-38
-39
-39
-39
-40
-41
-41
-41
-41
-41
-41
-42
-43
-42
-41
-41
-41
-41
-41
-41
-41
-38
-34
-29
-25
-24
-23
-24
-23
-17
-11
-7
-6
-8
-11
-15
-15
-11
-9
-10
-16
-23
-32
-41
-43
-44
-45
-44
-43
-42
-41
-41
-41
-41
-41
-41
-42
-43
-43
-43
-43
-43
-41
-39
-39
-39
-38
-37
-35
-35
-41
-56
-79
-87
-77
-18
77
199
337
392
406
273
81
-53
-169
-192
-194
-156
-110
-78
-47
-34
-45
-20
-19
-18
-17
-17
-17
-15
-13
-12
-11
-11
-11
-9
-7
-6
-5
-3
-1
0
1
4
6
9
12
14
16
18
21
24
27
30
34
38
42
46
50
54
60
66
73
80
88
95
102
109
115
121
125
129
131
133
132
130
124
116
105
92
77
61
46
32
20
9
0
-8
-16
-21
-25
-29
-33
-36
-38
-39
-40
-41
-42
-43
-43
-43
-44
-45
-45
-45
-45
-45
-45
-44
-43
-43
-43
-43
-43
-43
-43
-43
-43
-43
-43
-43
-43
-42
-41
-40
-39
-39
-40
-42
-43
-42
-41
-41
-41
-42
-43
-44
-45
-44
-43
-43
-43
-44
-45
-46
-47
-47
-45
-45
-45
-45
-45
-45
-44
-42
-36
-31
-29
-27
-28
-28
-25
-22
-16
-13
-12
-12
-15
-17
-17
-16
-14
-14
-17
-25
-35
-41
-45
-47
-46
-45
-45
-45
-46
-47
-46
-45
-45
-45
-45
-46
-47
-47
-47
-46
-45
-44
-43
-43
-43
-42
-41
-39
-41
-55
-71
-91
-86
-48
35
164
277
378
365
273
119
-68
-153
-192
-186
-163
-122
-77
-54
-36
-31
-28
-27
-26
-25
-23
-21
-19
-17
-15
-15
-15
-14
-13
-12
-11
-9
-7
-5
-3
-1
1
2
3
5
8
11
14
16
18
21
26
31
34
36
39
44
50
57
63
70
78
86
93
100
105
101
117
123
126
129
129
129
128
126
118
108
94
79
63
47
34
21
9
-2
-12
-20
-27
-32
-35
-37
-38
-40
-42
-44
-46
-47
-47
-47
-47
-47
-47
-47
-47
-47
-47
-47
-47
-47
-47
-47
-47
-47
-47
-46
-45
-44
-43
-44
-45
-44
-43
-43
-43
-43
-43
-44
-45
-43
-41
-42
-44
-46
-47
-46
-45
-44
-43
-44
-45
-45
-45
-46
-47
-48
-48
-46
-45
-46
-47
-49
-48
-47
-46
-45
-40
-35
-33
-31
-30
-29
-28
-26
-20
-15
-13
-12
-15
-17
-18
-19
-16
-17
-21
-27
-35
-40
-42
-43
-44
-45
-45
-45
-45
-45
-46
-47
-48
-49
-49
-49
-49
-49
-49
-47
-45
-45
-45
-44
-43
-42
-41
-42
-47
-61
-75
-90
-84
-42
33
154
262
355
362
287
139
-63
-167
-208
-211
-191
-151
-102
-71
-46
-36
-29
-27
-27
-25
-22
-21
-20
-18
-17
-16
-15
-13
-11
-10
-9
-7
-5
-5
-5
-2
1
2
4
7
9
11
14
17
20
23
26
28
32
37
42
49
54
59
66
73
79
85
92
100
106
112
116
120
123
127
128
129
126
122
113
103
90
76
60
44
31
18
6
-6
-15
-23
-28
-32
-36
-39
-42
-43
-44
-46
-48
-49
-48
-47
-48
-49
-49
-49
-48
-47
-48
-49
-48
-47
-48
-49
-49
-46
-45
-46
-47
-48
-49
-48
-47
-47
-47
-47
-47
-47
-47
-46
-45
-46
-47
-47
-47
-48
-49
-49
-49
-49
-49
-50
-51
-52
-53
-52
-51
-51
-51
-52
-53
-53
-53
-52
-51
-51
-51
-51
-48
-45
-41
-37
-34
-31
-32
-33
-29
-24
-18
-13
-15
-18
-22
-24
-21
-19
-20
-24
-30
-38
-47
-51
-52
-53
-52
-51
-51
-51
-50
-49
-50
-51
-50
-49
-49
-49
-50
-51
-49
-48
-47
-46
-45
-45
-45
-43
-41
-44
-52
-75
-91
-93
-70
5
108
254
354
394
337
174
20
-127
-193
-201
-181
-141
-102
-64
-45
-34
-30
-28
-27
-26
-24
-22
-21
-22
-21
-23
-15
-13
-11
-9
-9
-9
-8
-7
-5
-3
-2
-1
1
3
5
8
11
13
15
18
21
25
29
33
37
42
47
52
57
64
71
77
83
90
97
103
108
114
120
123
126
127
127
124
121
113
104
89
75
61
46
32
19
10
1
-9
-17
-24
-30
-34
-37
-38
-40
-42
-43
-44
-45
-45
-45
-45
-45
-44
-43
-44
-45
-45
-45
-46
-47
-46
-45
-45
-45
-45
-44
-43
-42
-41
-42
-43
-42
-41
-41
-41
-40
-39
-40
-41
-41
-41
-40
-39
-40
-41
-41
-41
-42
-43
-43
-43
-43
-43
-44
-45
-44
-43
-43
-43
-43
-43
-43
-43
-43
-43
-43
-36
-31
-29
-27
-26
-25
-24
-23
-17
-13
-8
-5
-8
-12
-15
-16
-12
-10
-13
-19
-28
-35
-40
-43
-44
-45
-44
-43
-43
-43
-42
-41
-41
-41
-41
-41
-40
-39
-39
-39
-40
-40
-39
-39
-39
-38
-37
-35
-35
-47
-61
-84
-95
-70
-20
88
203
331
404
395
296
90
-59
-152
-193
-189
-155
-101
-66
-43
-31
-23
-21
-21
-21
-20
-18
-16
-14
-12
-11
-11
-11
-9
-7
-5
-3
-1
0
1
3
5
7
9
10
11
13
15
17
20
24
28
31
33
36
39
43
47
53
58
64
71
77
83
89
96
103
110
117
123
128
131
134
135
135
136
135
128
120
105
89
72
54
38
23
13
3
-5
-13
-19
-24
-28
-31
-33
-35
-38
-39
-39
-39
-39
-40
-42
-43
-44
-45
-44
-43
-43
-43
-43
-43
-44
-45
-44
-43
-43
-43
-43
-42
-41
-41
-41
-41
-41
-41
-41
-41
-41
-41
-41
-41
-41
-40
-39
-40
-41
-41
-41
-41
-41
-42
-43
-43
-43
-43
-43
-43
-43
-43
-43
-43
-43
-42
-41
-41
-41
-42
-43
-41
-41
-41
-38
-35
-31
-27
-25
-23
-23
-22
-18
-14
-10
-7
-7
-8
-11
-13
-12
-11
-11
-14
-20
-28
-37
-41
-42
-43
-43
-43
-43
-43
-42
-41
-41
-41
-42
-43
-43
-43
-43
-41
-41
-41
-41
-39
-37
-36
-35
-35
-35
-36
-43
-67
-84
-87
-61
15
118
259
358
407
353
202
53
-93
-165
-188
-174
-138
-100
-61
-42
-28
-24
-22
-21
-21
-21
-20
-19
-19
-17
-15
-14
-13
-11
-9
-8
-7
-6
-5
-4
-3
0
3
4
5
6
7
9
11
13
17
21
24
26
28
31
36
41
46
51
56
61
68
75
83
91
98
104
109
114
118
123
126
129
131
133
128
122
112
101
86
72
56
41
26
12
0
-9
-16
-23
-28
-32
-37
-39
-40
-42
-44
-45
-46
-47
-46
-46
-48
-49
-49
-49
-48
-47
-48
-49
-48
-47
-47
-46
-45
-46
-47
-46
-45
-45
-45
-44
-43
-44
-45
-45
-45
-45
-45
-45
-45
-45
-45
-48
-49
-49
-48
-46
-45
-46
-47
-48
-49
-49
-49
-49
-49
-49
-49
-50
-51
-50
-49
-49
-50
-51
-51
-51
-49
-47
-47
-47
-48
-49
-49
-49
-48
-47
-47
-46
-43
-40
-36
-33
-31
-29
-28
-25
-21
-16
-10
-8
-12
-16
-21
-19
-13
-14
-18
-27
-37
-43
-48
-49
-49
-49
-49
-47
-45
-46
-47
-48
-49
-49
-49
-49
-49
-49
-49
-49
-49
-48
-47
-46
-45
-44
-43
-40
-44
-56
-72
-93
-84
-55
27
134
246
360
361
326
159
-39
-131
-205
-203
-192
-150
-191
-76
-47
-37
-27
-27
-27
-27
-27
-26
-25
-23
-21
-20
-19
-18
-17
-15
-13
-11
-9
-8
-6
-3
0
2
3
4
6
8
11
14
17
20
23
26
29
32
36
40
45
50
57
63
69
75
82
89
97
104
110
115
118
121
124
127
126
124
121
115
104
91
77
62
46
32
19
7
-4
-13
-20
-25
-29
-34
-38
-41
-44
-45
-46
-47
-46
-45
-46
-48
-51
-50
-49
-49
-49
-49
-49
-49
-49
-47
-45
-46
-47
-47
-47
-47
-47
-46
-45
-46
-47
-46
-45
-46
-47
-46
-45
-46
-47
-46
-45
-46
-47
-47
-47
-48
-49
-48
-47
-48
-49
-49
-51
-51
-52
-53
-53
-53
-52
-51
-50
-49
-50
-51
-51
-51
-50
-49
-49
-48
-44
-40
-35
-33
-33
-32
-30
-25
-18
-15
-14
-15
-18
-20
-22
-20
-16
-19
-24
-33
-42
-45
-48
-50
-51
-51
-51
-50
-49
-49
-49
-50
-51
-52
-53
-51
-49
-49
-49
-49
-49
-48
-47
-46
-45
-44
-42
-40
-41
-45
-58
-77
-84
-86
-38
30
151
287
350
398
260
94
-53
-200
-210
-217
-189
-161
-113
-70
-52
-37
-32
-27
-26
-25
-23
-21
-20
-19
-18
-17
-15
-13
-12
-11
-10
-8
-6
-4
-2
0
2
4
6
7
8
11
14
17
20
24
28
31
34
38
35
49
55
59
63
70
78
86
94
101
108
113
117
120
124
128
131
131
130
126
119
108
96
82
67
51
37
24
11
-3
-12
-20
-26
-30
-34
-38
-39
-40
-41
-42
-43
-44
-46
-47
-47
-47
-47
-47
-46
-45
-45
-45
-45
-45
-44
-43
-43
-43
-43
-43
-43
-43
-42
-41
-41
-41
-40
-39
-40
-41
-41
-41
-41
-41
-42
-43
-43
-43
-43
-43
-42
-41
-42
-44
-47
-46
-45
-45
-45
-45
-45
-45
-45
-45
-45
-45
-45
-45
-45
-46
-47
-46
-45
-45
-45
-44
-43
-43
-43
-43
-42
-39
-35
-31
-28
-26
-25
-25
-21
-16
-11
-6
-7
-10
-14
-11
-16
-13
-13
-13
-19
-26
-34
-41
-42
-43
-43
-43
-43
-43
-43
-43
-43
-43
-43
-43
-43
-43
-42
-41
-41
-41
-40
-39
-39
-39
-38
-35
-32
-35
-40
-60
-82
-80
-74
9
97
236
371
393
399
213
34
-89
-191
-194
-188
-146
-106
-70
-42
-31
-23
-22
-21
-21
-21
-20
-18
-16
-15
-14
-13
-12
-10
-8
-7
-6
-4
-2
-1
0
2
4
6
8
11
14
15
17
21
25
27
29
34
39
42
46
52
58
64
70
76
83
89
96
104
111
116
120
125
130
136
141
147
148
146
138
127
111
94
78
62
50
37
26
15
6
-2
-7
-3
-16
-19
-21
-23
-25
-27
-27
-27
-27
-27
-28
-29
-29
-29
-30
-31
-31
-31
-32
-33
-34
-35
-34
-33
-34
-35
-35
-35
-35
-35
-35
-35
-36
-37
-37
-37
-38
-39
-39
-39
-39
-39
-39
-40
-41
-41
-41
-41
-41
-42
-43
-43
-43
-42
-41
-42
-43
-43
-43
-43
-43
-43
-43
-43
-43
-43
-43
-43
-43
-42
-41
-41
-41
-41
-41
-41
-39
-36
-31
-26
-24
-22
-21
-23
-18
-13
-8
-3
-6
-9
-12
-15
-11
-7
-10
-15
-22
-30
-39
-45
-43
-41
-42
-43
-43
-43
-43
-43
-42
-41
-42
-43
-43
-43
-43
-43
-42
-40
-38
-37
-38
-39
-39
-37
-39
-39
-46
-69
-91
-85
-67
26
127
271
385
406
368
179
12
-110
-188
-192
-175
-127
-88
-59
-40
-28
-23
-22
-21
-21
-21
-20
-19
-18
-17
-16
-15
-14
-13
-12
-10
-8
-7
-6
-3
-1
0
1
4
7
9
11
13
15
18
21
24
28
32
36
40
44
48
53
59
66
72
79
87
94
100
106
113
118
123
126
128
129
129
126
122
113
102
89
76
60
43
30
17
7
-3
-12
-19
-24
-29
-31
-33
-35
-37
-39
-41
-43
-45
-44
-43
-44
-45
-45
-45
-45
-45
-44
-43
-42
-41
-42
-43
-44
-45
-44
-43
-43
-43
-43
-43
-43
-43
-43
-44
-45
-45
-45
-46
-47
-46
-45
-45
-45
-45
-45
-46
-47
-47
-47
-47
-47
-47
-47
-48
-49
-49
-49
-48
-47
-48
-49
-49
-49
-49
-49
-49
-49
-49
-49
-49
-49
-48
-47
-47
-47
-47
-47
-47
-45
-43
-38
-33
-30
-27
-29
-30
-26
-22
-15
-11
-11
-13
-18
-20
-17
-15
-14
-16
-22
-31
-41
-46
-48
-48
-46
-45
-46
-47
-47
-47
-48
-49
-48
-47
-47
-47
-49
-48
-47
-46
-45
-45
-45
-45
-45
-42
-39
-42
-51
-75
-91
-93
-66
8
114
258
352
393
318
139
-11
-140
-192
-198
-175
-135
-97
-60
-42
-30
-27
-27
-27
-26
-25
-24
-22
-23
-18
-17
-16
-15
-13
-11
-9
-7
-6
-5
-3
-1
0
2
5
7
9
11
12
14
17
21
25
28
30
33
37
41
44
48
53
60
67
75
83
89
94
100
106
112
118
123
127
127
127
126
125
121
115
103
90
75
60
45
32
19
7
-4
-13
-19
-25
-30
-33
-34
-37
-41
-43
-43
-43
-43
-43
-42
-42
-44
-45
-46
-47
-46
-45
-45
-45
-45
-45
-45
-44
-43
-42
-41
-42
-43
-43
-43
-44
-45
-45
-45
-45
-45
-46
-47
-46
-45
-45
-45
-48
-49
-48
-47
-47
-47
-47
-47
-48
-49
-49
-49
-49
-49
-49
-49
-50
-51
-51
-51
-51
-48
-47
-48
-49
-49
-49
-49
-49
-45
-41
-36
-33
-32
-31
-31
-29
-22
-16
-13
-12
-17
-20
-23
-23
-19
-18
-20
-27
-37
-43
-47
-49
-49
-49
-50
-51
-51
-51
-50
-49
-49
-50
-51
-51
-51
-50
-49
-49
-49
-48
-47
-46
-45
-45
-45
-43
-43
-49
-60
-80
-87
-77
-27
62
174
305
355
346
212
7
-114
-198
-213
-202
-170
-132
-96
-60
-44
-31
-28
-26
-25
-25
-23
-21
-19
-17
-16
-15
-15
-15
-13
-11
-9
-7
-6
-5
-3
-1
1
3
5
8
11
13
14
16
19
22
24
28
33
37
40
46
53
59
64
69
74
80
86
92
87
105
111
114
117
119
121
122
123
119
113
104
94
80
67
54
40
26
13
1
-9
-18
-25
-29
-32
-35
-38
-41
-43
-44
-45
-46
-47
-47
-47
-48
-49
-48
-47
-47
-47
-46
-47
-49
-48
-47
-46
-45
-46
-47
-47
-47
-47
-47
-47
-47
-46
-45
-46
-47
-47
-47
-46
-45
-46
-47
-47
-47
-48
-49
-49
-49
-50
-51
-50
-49
-50
-51
-51
-51
-51
-51
-51
-51
-51
-51
-51
-51
-51
-50
-49
-50
-51
-49
-46
-41
-37
-35
-33
-33
-32
-29
-25
-19
-15
-15
-17
-21
-23
-22
-20
-18
-19
-23
-33
-44
-49
-52
-53
-52
-51
-50
-49
-50
-51
-51
-50
-51
-50
-49
-50
-51
-50
-49
-48
-47
-47
-47
-47
-47
-45
-43
-41
-44
-56
-71
-90
-85
-58
21
140
251
356
364
319
169
-26
-122
-186
-193
-185
-147
-104
-75
-47
-37
-28
-26
-25
-25
-25
-23
-21
-20
-19
-18
-17
-16
-15
-13
-11
-9
-7
-6
-5
-4
-3
-1
2
4
6
8
10
13
16
20
23
27
31
34
38
42
47
52
58
64
70
76
81
87
94
101
105
109
113
117
119
121
122
122
116
108
97
85
70
56
43
31
19
8
-3
-12
-19
-25
-29
-32
-35
-37
-38
-41
-44
-45
-45
-45
-44
-43
-44
-45
-45
-45
-45
-43
-43
-43
-43
-43
-43
-42
-41
-40
-39
-40
-41
-41
-41
-40
-39
-40
-41
-42
-43
-43
-42
-40
-39
-39
-39
-39
-39
-39
-39
-40
-41
-42
-43
-42
-41
-42
-43
-42
-41
-42
-43
-43
-44
-45
-44
-43
-43
-43
-43
-43
-43
-43
-40
-36
-31
-26
-23
-21
-23
-24
-20
-14
-7
-4
-7
-11
-15
-14
-7
-5
-5
-10
-17
-24
-31
-33
-34
-35
-35
-35
-35
-35
-37
-36
-35
-35
-35
-36
-37
-37
-37
-36
-35
-35
-35
-35
-35
-34
-33
-31
-30
-34
-46
-67
-79
-84
-60
-12
81
201
304
398
374
302
136
-60
-137
-187
-175
-152
-108
-62
-44
-59
-22
-17
-17
-17
-16
-15
-14
-13
-12
-11
-9
-7
-6
-5
-3
-1
0
1
3
5
5
6
9
12
15
18
20
21
22
25
29
33
36
39
42
46
50
56
62
68
74
80
85
92
99
104
109
114
119
122
125
126
127
127
126
119
111
99
85
70
55
42
29
17
6
-3
-10
-16
-21
-25
-28
-30
-33
-36
-37
-37
-37
-37
-37
-37
-37
-38
-39
-39
-38
-37
-37
-37
-37
-37
-37
-37
-37
-37
-37
-37
-37
-37
-36
-35
-35
-35
-35
-35
-35
-35
-36
-37
-38
-39
-38
-37
-38
-39
-39
-39
-40
-41
-41
-41
-41
-41
-42
-43
-43
-43
-43
-43
-43
-43
-43
-43
-43
-42
-41
-40
-38
-33
-28
-25
-23
-24
-24
-20
-15
-10
-7
-8
-10
-13
-14
-11
-10
-12
-18
-25
-33
-41
-43
-44
-45
-45
-45
-44
-43
-43
-44
-45
-45
-45
-45
-45
-45
-45
-45
-45
-45
-45
-44
-43
-41
-39
-38
-37
-38
-50
-74
-86
-83
-34
52
165
297
365
397
295
131
-9
-140
-178
-190
-166
-134
-95
-55
-40
-28
-26
-23
-21
-19
-18
-17
-17
-17
-16
-15
-13
-11
-10
-9
-8
-7
-6
-5
-3
0
3
5
5
6
8
10
13
16
18
21
24
26
28
32
38
42
46
52
58
64
70
76
71
90
97
103
109
112
115
118
121
123
125
122
117
108
97
82
69
55
42
29
16
5
-5
-14
-22
-28
-32
-35
-39
-42
-43
-43
-43
-44
-45
-46
-47
-48
-49
-48
-47
-46
-46
-47
-47
-47
-46
-45
-45
-45
-47
-49
-48
-47
-45
-43
-44
-45
-45
-45
-45
-45
-44
-43
-44
-45
-46
-47
-47
-47
-46
-45
-46
-47
-47
-48
-50
-51
-50
-49
-48
-48
-50
-51
-51
-50
-49
-48
-47
-47
-47
-44
-41
-37
-33
-33
-33
-31
-27
-21
-17
-15
-15
-20
-23
-22
-20
-17
-17
-21
-30
-42
-48
-50
-51
-52
-52
-50
-50
-52
-53
-52
-51
-52
-53
-53
-52
-51
-52
-53
-52
-51
-50
-49
-48
-47
-45
-43
-43
-47
-62
-76
-92
-84
-42
38
161
266
354
335
230
79
-102
-182
-209
-201
-177
-137
-91
-65
-45
-35
-28
-27
-27
-27
-26
-23
-21
-21
-21
-19
-17
-16
-15
-13
-11
-10
-9
-8
-7
-5
-3
-2
-1
1
4
8
12
14
15
16
19
23
27
31
36
41
46
50
55
61
68
76
81
86
91
96
101
107
111
115
118
121
120
119
114
107
97
86
72
57
43
29
16
3
-7
-15
-21
-27
-32
-37
-42
-45
-45
-45
-46
-47
-47
-47
-48
-49
-48
-47
-48
-49
-49
-49
-49
-49
-49
-46
-45
-46
-47
-47
-47
-46
-45
-45
-45
-44
-43
-44
-45
-45
-45
-45
-45
-45
-45
-46
-47
-46
-46
-48
-49
-49
-49
-49
-49
-49
-49
-50
-51
-52
-53
-52
-51
-50
-49
-50
-47
-43
-40
-37
-34
-31
-31
-31
-27
-23
-19
-15
-18
-21
-22
-22
-19
-18
-21
-27
-37
-45
-50
-53
-52
-51
-52
-53
-52
-51
-51
-51
-51
-51
-51
-51
-50
-49
-50
-51
-51
-51
-49
-48
-47
-46
-45
-44
-43
-45
-50
-65
-78
-84
-72
-11
72
199
300
361
331
184
34
-119
-197
-209
-201
-177
-139
-94
-66
-45
-34
-27
-25
-24
-22
-20
-19
-18
-17
-16
-15
-15
-11
-9
-8
-7
-6
-5
-3
-1
1
3
5
7
8
10
13
15
17
20
23
25
28
31
36
41
47
51
55
60
65
72
79
85
91
97
104
108
112
116
120
121
122
121
119
113
107
95
84
68
53
39
25
11
0
-6
-13
-20
-26
-30
-34
-37
-39
-39
-39
-39
-40
-42
-43
-43
-43
-42
-41
-41
-41
-40
-39
-40
-41
-41
-41
-40
-39
-39
-39
-41
-40
-39
-38
-37
-37
-37
-37
-37
-37
-37
-36
-35
-37
-39
-39
-39
-38
-37
-38
-39
-39
-39
-40
-41
-41
-41
-41
-41
-42
-43
-43
-43
-42
-41
-41
-37
-32
-29
-26
-25
-25
-23
-21
-16
-11
-10
-9
-12
-15
-15
-15
-13
-11
-14
-20
-29
-36
-40
-43
-44
-45
-44
-43
-43
-43
-43
-43
-43
-43
-44
-45
-44
-43
-42
-41
-42
-43
-42
-41
-40
-38
-36
-35
-35
-56
-75
-86
-88
-31
38
165
284
371
411
318
193
1
-138
-180
-195
-169
-133
-84
-51
-33
-24
-22
-21
-21
-21
-20
-18
-16
-14
-12
-11
-11
-10
-8
-7
-6
-5
-4
-2
1
3
5
7
9
10
11
13
15
18
21
23
26
30
34
37
41
46
51
57
63
70
76
82
89
96
102
108
113
117
121
126
128
130
130
128
123
118
105
92
77
91
48
35
23
11
1
-7
-14
-19
-23
-27
-30
-33
-35
-37
-37
-37
-38
-39
-40
-41
-41
-41
-40
-39
-39
-39
-40
-41
-41
-41
-41
-41
-40
-39
-39
-39
-39
-39
-38
-37
-36
-35
-35
-36
-37
-36
-35
-35
-35
-36
-37
-37
-37
-37
-37
-37
-37
-38
-39
-39
-39
-38
-37
-37
-37
-38
-39
-39
-39
-39
-36
-31
-28
-26
-24
-22
-21
-22
-18
-12
-9
-6
-7
-11
-13
-15
-11
-7
-9
-12
-21
-30
-36
-41
-41
-41
-41
-41
-42
-43
-42
-41
-42
-43
-42
-41
-42
-43
-42
-41
-40
-39
-38
-37
-38
-38
-36
-35
-34
-47
-63
-82
-102
-58
-103
112
233
335
421
350
262
68
-101
-155
-193
-172
-144
-97
-60
-42
-29
-23
-19
-19
-19
-19
-18
-16
-15
-14
-13
-12
-11
-10
-8
-6
-5
-4
-3
-2
-1
0
3
6
8
10
13
15
18
21
24
27
30
33
36
40
45
50
55
61
68
75
82
89
97
103
109
115
120
124
127
130
132
133
132
127
119
108
94
79
64
51
39
29
20
9
-2
-8
-15
-19
-23
-26
-29
-31
-33
-34
-35
-35
-35
-36
-37
-38
-39
-39
-39
-38
-37
-38
-39
-38
-37
-38
-39
-39
-39
-38
-37
-37
-37
-37
-37
-36
-35
-34
-33
-34
-35
-35
-35
-35
-35
-35
-36
-37
-38
-39
-37
-35
-36
-37
-37
-37
-39
-41
-40
-39
-39
-39
-40
-41
-41
-41
-41
-41
-40
-38
-36
-33
-29
-25
-22
-21
-22
-20
-16
-12
-8
-7
-7
-10
-14
-13
-11
-10
-9
-14
-20
-30
-39
-41
-43
-43
-43
-43
-43
-42
-41
-42
-43
-44
-45
-44
-43
-42
-41
-42
-43
-43
-43
-42
-40
-38
-37
-36
-39
-45
-66
-90
-85
-76
5
92
219
347
381
403
232
65
-68
-182
-190
-189
-147
-107
-72
-44
-33
-25
-25
-25
-24
-23
-21
-19
-20
-20
-18
-17
-16
-14
-12
-11
-11
-11
-10
-7
-4
-2
0
3
6
7
8
11
9
18
21
24
27
31
35
38
41
45
50
57
64
70
77
85
94
102
108
112
116
119
123
127
129
130
128
123
114
103
90
77
63
48
34
20
10
1
-8
-16
-21
-26
-30
-33
-36
-39
-41
-43
-43
-43
-43
-43
-44
-45
-46
-47
-46
-45
-44
-43
-43
-43
-43
-43
-42
-41
-42
-43
-44
-44
-42
-41
-41
-41
-41
-41
-41
-41
-40
-39
-40
-41
-41
-41
-43
-43
-43
-43
-43
-44
-45
-45
-45
-45
-45
-45
-45
-45
-45
-45
-45
-45
-45
-46
-47
-46
-45
-45
-44
-41
-38
-35
-32
-30
-29
-29
-26
-22
-17
-10
-9
-10
-15
-20
-19
-21
-15
-15
-22
-29
-39
-47
-46
-45
-44
-43
-43
-43
-44
-45
-45
-45
-45
-45
-46
-47
-47
-47
-46
-44
-42
-41
-41
-41
-40
-39
-38
-40
-45
-63
-83
-79
-69
18
114
240
367
360
345
142
-51
-141
-218
-208
-193
-154
-116
-80
-50
-37
-27
-25
-23
-21
-19
-19
-19
-18
-16
-14
-12
-10
-9
-9
-8
-6
-4
-2
0
2
4
6
8
10
12
14
16
18
21
25
29
33
37
41
45
49
54
60
67
74
81
88
94
101
107
113
118
122
125
128
131
133
133
131
125
115
102
86
70
55
41
30
19
9
-1
-9
-16
-22
-28
-32
-29
-39
-41
-41
-41
-41
-41
-42
-43
-43
-43
-44
-45
-45
-45
-44
-43
-42
-41
-41
-41
-41
-41
-41
-41
-40
-39
-39
-39
-39
-39
-39
-39
-39
-39
-40
-41
-42
-43
-42
-41
-41
-41
-41
-42
-43
-42
-41
-43
-45
-45
-45
-46
-47
-46
-45
-45
-45
-45
-45
-46
-47
-46
-45
-44
-43
-42
-38
-33
-30
-26
-26
-28
-26
-22
-17
-11
-9
-10
-14
-18
-18
-16
-15
-15
-20
-25
-34
-43
-45
-47
-47
-47
-47
-47
-46
-45
-46
-47
-47
-47
-46
-45
-45
-45
-45
-45
-44
-43
-42
-41
-40
-39
-38
-37
-38
-53
-71
-79
-84
-34
27
156
292
358
299
273
124
-38
-186
-197
-204
-179
-151
-105
-65
-48
-34
-29
-25
-23
-21
-20
-19
-18
-17
-18
-18
-15
-13
-12
-11
-10
-8
-6
-4
-2
0
2
3
4
6
8
11
14
17
20
23
25
28
31
35
39
44
50
56
62
68
75
83
91
98
104
109
114
118
122
125
128
130
130
128
123
114
103
90
74
58
43
29
17
5
-3
-11
-18
-24
-29
-34
-35
-37
-37
-37
-39
-41
-41
-41
-41
-41
-41
-41
-41
-41
-42
-43
-43
-43
-42
-41
-41
-41
-41
-41
-41
-41
-40
-39
-39
-39
-39
-39
-38
-37
-37
-37
-37
-37
-37
-37
-37
-37
-37
-38
-39
-39
-39
-40
-41
-42
-43
-42
-41
-41
-41
-42
-43
-43
-43
-42
-41
-42
-43
-43
-43
-43
-43
-42
-41
-42
-43
-43
-43
-42
-41
-41
-40
-38
-34
-30
-26
-22
-21
-22
-18
-13
-8
-3
-2
-1
-9
-15
-12
-9
-10
-12
-16
-22
-32
-39
-40
-41
-43
-45
-44
-42
-40
-39
-40
-41
-41
-41
-41
-41
-40
-39
-38
-37
-38
-39
-38
-37
-36
-35
-34
-40
-49
-70
-91
-75
-52
33
126
263
378
407
383
195
26
-101
-188
-197
-186
-141
-100
-64
-40
-29
-23
-23
-22
-20
-19
-18
-17
-18
-18
-16
-14
-12
-11
-10
-8
-6
-5
-5
-3
-5
3
5
6
7
9
11
14
17
20
23
26
29
32
36
41
46
52
57
63
69
74
81
90
99
106
112
117
121
125
129
132
133
134
132
128
118
107
93
78
63
48
34
21
9
-3
-10
-17
-22
-27
-29
-31
-34
-37
-37
-37
-38
-39
-39
-39
-39
-39
-39
-39
-40
-41
-41
-41
-41
-41
-40
-39
-40
-41
-40
-39
-39
-39
-39
-39
-39
-39
-39
-39
-37
-37
-37
-37
-37
-37
-37
-37
-37
-37
-37
-37
-37
-38
-39
-39
-39
-39
-39
-39
-39
-39
-39
-39
-39
-39
-39
-39
-39
-40
-41
-41
-41
-40
-39
-38
-37
-38
-39
-39
-38
-39
-30
-25
-22
-19
-19
-19
-17
-14
-8
-3
0
2
-4
-9
-8
-7
-5
-5
-10
-18
-29
-36
-38
-39
-39
-39
-39
-39
-39
-39
-38
-37
-38
-39
-40
-41
-40
-39
-39
-39
-38
-36
-35
-35
-35
-33
-31
-31
-33
-50
-65
-77
-76
-33
36
160
276
376
415
365
247
46
-89
-157
-184
-175
-142
-93
-60
-37
-25
-17
-15
-15
-15
-14
-13
-12
-11
-10
-9
-8
-7
-5
-4
-3
-1
1
2
3
4
5
7
9
11
13
15
17
19
22
26
30
34
38
41
44
47
52
58
64
70
77
84
92
101
108
115
121
128
132
136
138
140
141
141
133
125
113
100
84
67
52
37
25
13
4
-5
-13
-20
-23
-26
-29
-31
-33
-35
-36
-37
-37
-37
-37
-37
-37
-37
-38
-39
-38
-37
-38
-39
-39
-39
-40
-41
-41
-41
-40
-39
-39
-39
-39
-39
-39
-39
-39
-39
-39
-39
-39
-39
-39
-39
-39
-39
-39
-40
-41
-41
-41
-41
-41
-41
-41
-41
-41
-41
-41
-42
-43
-43
-43
-43
-43
-43
-43
-43
-43
-43
-43
-43
-43
-43
-44
-45
-43
-41
-41
-41
-40
-39
-37
-34
-30
-26
-23
-21
-22
-22
-18
-13
-6
-3
-4
-7
-11
-12
-10
-9
-9
-14
-23
-30
-37
-41
-44
-45
-44
-43
-44
-45
-45
-43
-43
-44
-45
-45
-45
-45
-45
-44
-43
-43
-43
-43
-43
-41
-39
-38
-37
-37
-46
-65
-82
-96
-80
-39
51
174
284
388
365
289
115
-91
-163
-201
-186
-160
-116
-70
-50
-32
-29
-27
-28
-29
-27
-25
-23
-21
-19
-17
-17
-17
-15
-13
-12
-11
-9
-7
-6
-5
-3
0
3
6
8
9
9
11
15
19
23
26
28
32
36
40
44
50
56
63
70
77
85
92
99
106
113
118
123
125
127
129
131
129
125
117
107
94
79
64
49
33
19
6
-6
-16
-23
-29
-32
-34
-37
-41
-44
-46
-47
-48
-49
-48
-47
-48
-49
-50
-51
-51
-49
-49
-50
-51
-50
-49
-48
-47
-48
-49
-49
-49
-49
-49
-48
-47
-48
-49
-49
-49
-52
-52
-50
-49
-48
-47
-48
-49
-49
-49
-50
-51
-50
-49
-50
-51
-52
-53
-52
-51
-52
-53
-53
-53
-53
-53
-53
-53
-53
-52
-51
-52
-52
-47
-43
-39
-36
-33
-31
-32
-31
-25
-19
-15
-15
-19
-22
-24
-23
-19
-19
-22
-31
-42
-48
-52
-53
-53
-53
-53
-53
-54
-54
-51
-51
-51
-51
-51
-52
-53
-53
-53
-52
-51
-51
-51
-51
-51
-51
-50
-46
-43
-43
-48
-59
-74
-91
-82
-53
26
133
245
359
364
326
158
-50
-148
-220
-220
-207
-166
-122
-89
-119
-44
-31
-29
-27
-26
-25
-23
-21
-19
-17
-17
-17
-17
-16
-13
-11
-9
-7
-6
-5
-5
-3
1
4
6
8
11
13
14
17
21
26
30
32
34
38
42
49
56
61
66
74
81
88
95
102
109
115
121
125
129
130
131
131
130
125
117
103
89
72
57
43
28
14
2
-8
-17
-26
-31
-35
-39
-42
-44
-46
-47
-47
-47
-47
-47
-47
-47
-48
-49
-51
-50
-49
-49
-49
-48
-47
-47
-47
-47
-47
-46
-45
-45
-45
-45
-45
-45
-45
-45
-45
-44
-43
-44
-45
-44
-43
-44
-45
-45
-45
-46
-47
-46
-46
-48
-49
-48
-47
-48
-49
-49
-48
-49
-49
-49
-49
-49
-48
-47
-48
-49
-48
-47
-47
-47
-46
-45
-44
-42
-38
-34
-29
-27
-28
-28
-25
-20
-15
-13
-12
-13
-17
-19
-19
-17
-14
-16
-20
-30
-40
-43
-46
-46
-45
-46
-47
-46
-45
-45
-45
-46
-47
-47
-47
-46
-45
-45
-45
-44
-43
-43
-43
-43
-42
-40
-39
-39
-45
-55
-71
-90
-81
-56
30
139
259
383
393
377
195
-10
-111
-204
-204
-199
-150
-102
-72
-44
-34
-25
-24
-23
-23
-23
-21
-19
-18
-17
-16
-15
-13
-11
-10
-9
-8
-7
-6
-4
-2
0
2
3
4
6
8
11
14
17
20
23
26
29
32
36
33
46
51
56
61
66
72
79
86
93
100
106
112
117
122
126
129
131
133
131
126
117
107
95
81
65
51
38
25
11
2
-6
-13
-19
-24
-28
-31
-34
-35
-36
-37
-38
-40
-41
-41
-41
-40
-39
-39
-39
-40
-41
-42
-43
-42
-41
-40
-39
-39
-39
-39
-39
-39
-39
-39
-39
-38
-37
-38
-39
-38
-37
-37
-37
-37
-37
-38
-39
-39
-39
-39
-39
-40
-41
-41
-41
-41
-41
-41
-41
-41
-42
-43
-42
-41
-41
-41
-41
-41
-41
-41
-41
-41
-40
-39
-39
-38
-36
-33
-27
-24
-22
-21
-22
-21
-16
-11
-5
-4
-6
-9
-12
-12
-10
-9
-9
-16
-21
-31
-41
-42
-43
-42
-41
-40
-39
-39
-39
-41
-43
-43
-43
-42
-41
-42
-43
-43
-42
-40
-39
-38
-37
-37
-37
-36
-37
-40
-57
-80
-85
-86
-18
64
202
347
392
430
255
77
-55
-177
-189
-195
-155
-115
-78
-47
-36
-27
-24
-21
-21
-21
-20
-19
-19
-19
-17
-14
-12
-11
-10
-9
-9
-8
-6
-3
0
1
2
3
4
7
10
12
14
15
16
19
23
27
31
34
37
42
47
51
56
62
68
75
82
88
95
102
109
115
120
124
127
130
131
130
126
120
110
99
84
68
53
39
26
14
5
-3
-11
-18
-23
-28
-31
-29
-37
-39
-40
-41
-42
-43
-42
-41
-42
-43
-42
-41
-42
-43
-42
-41
-41
-41
-42
-43
-43
-43
-42
-41
-41
-41
-42
-43
-43
-43
-43
-43
-42
-41
-42
-43
-42
-41
-42
-43
-42
-42
-43
-44
-45
-45
-45
-44
-43
-44
-45
-45
-45
-45
-45
-44
-43
-43
-43
-44
-45
-45
-45
-45
-45
-44
-43
-43
-42
-40
-37
-33
-28
-24
-23
-24
-23
-20
-14
-8
-7
-7
-10
-15
-14
-13
-11
-9
-13
-18
-30
-39
-41
-43
-43
-43
-43
-43
-44
-45
-44
-43
-43
-43
-42
-41
-42
-43
-42
-41
-40
-39
-39
-39
-38
-37
-36
-35
-34
-44
-57
-78
-99
-64
-101
91
208
317
412
358
284
85
-88
-147
-190
-175
-150
-103
-65
-46
-31
-25
-21
-21
-21
-21
-20
-18
-17
-16
-15
-14
-13
-12
-10
-8
-7
-6
-5
-4
-2
0
2
4
6
8
11
13
15
17
21
25
27
29
33
37
40
44
50
56
63
69
75
81
87
94
101
107
112
117
121
124
126
128
130
129
125
116
106
91
74
61
49
36
23
12
2
-7
-17
-22
-27
-30
-33
-34
-35
-36
-37
-37
-37
-38
-39
-40
-41
-41
-41
-39
-37
-37
-37
-38
-39
-40
-41
-40
-39
-38
-37
-38
-39
-39
-39
-38
-37
-37
-37
-37
-37
-38
-39
-39
-38
-39
-40
-41
-41
-41
-41
-41
-41
-41
-41
-41
-42
-43
-43
-43
-43
-43
-44
-45
-44
-43
-42
-41
-41
-41
-42
-43
-43
-43
-42
-41
-41
-41
-41
-40
-38
-33
-28
-25
-22
-22
-23
-20
-17
-10
-3
-4
-5
-11
-15
-13
-11
-11
-13
-20
-27
-36
-41
-42
-43
-42
-41
-40
-39
-40
-41
-42
-43
-43
-43
-42
-41
-42
-43
-43
-42
-40
-39
-38
-37
-37
-37
-35
-37
-40
-59
-77
-83
-80
-20
54
179
291
365
379
250
108
-59
-168
-186
-181
-145
-107
-69
-44
-31
-24
-22
-21
-20
-19
-18
-16
-14
-13
-12
-11
-10
-9
-8
-7
-6
-4
-5
0
1
2
3
6
9
11
13
16
19
21
23
25
28
31
34
38
42
46
50
55
60
67
74
80
86
92
99
105
111
117
122
126
127
128
128
126
120
114
102
90
75
61
47
33
21
10
1
-8
-15
-21
-25
-29
-32
-35
-37
-39
-39
-39
-41
-43
-43
-43
-43
-43
-43
-43
-44
-45
-44
-43
-43
-43
-43
-43
-43
-43
-43
-43
-42
-41
-41
-42
-45
-45
-45
-44
-43
-43
-43
-43
-43
-43
-43
-43
-43
-44
-45
-45
-45
-45
-45
-44
-43
-46
-47
-48
-49
-48
-47
-46
-45
-45
-45
-46
-47
-46
-45
-45
-45
-45
-45
-45
-41
-45
-31
-27
-27
-27
-24
-21
-14
-9
-11
-13
-18
-21
-18
-15
-17
-20
-24
-30
-40
-45
-46
-47
-47
-47
-46
-45
-45
-45
-45
-45
-45
-45
-46
-47
-47
-47
-48
-49
-48
-47
-46
-44
-43
-42
-41
-39
-38
-48
-60
-79
-90
-66
-17
96
210
324
368
288
161
-31
-155
-196
-209
-193
-161
-116
-82
-57
-41
-31
-26
-24
-23
-23
-23
-22
-20
-18
-17
-16
-14
-12
-11
-9
-8
-7
-5
-3
-2
-1
1
3
5
7
10
13
14
16
19
22
26
30
34
39
44
49
53
57
63
68
74
81
88
95
101
106
112
117
122
124
126
127
126
122
125
107
97
82
68
54
40
26
14
3
-6
-15
-22
-28
-34
-37
-39
-41
-43
-44
-45
-46
-47
-47
-47
-46
-45
-46
-47
-47
-47
-46
-45
-46
-47
-47
-47
-47
-47
-46
-45
-44
-44
-45
-45
-45
-44
-43
-43
-43
-44
-45
-46
-47
-46
-45
-45
-45
-45
-45
-46
-47
-47
-47
-47
-47
-48
-49
-50
-51
-50
-49
-49
-49
-49
-49
-49
-49
-48
-47
-47
-43
-38
-35
-31
-30
-29
-28
-27
-21
-15
-13
-12
-17
-21
-21
-21
-19
-18
-21
-27
-37
-43
-45
-47
-47
-47
-47
-47
-47
-47
-47
-47
-47
-47
-47
-47
-47
-47
-46
-45
-46
-47
-46
-45
-45
-42
-41
-41
-42
-60
-76
-87
-88
-34
37
165
280
361
383
279
144
-40
-160
-193
-201
-180
-144
-93
-61
-43
-32
-27
-25
-25
-25
-24
-23
-22
-20
-18
-17
-16
-14
-12
-11
-11
-9
-7
-5
-3
-2
-1
2
5
7
9
12
15
17
19
21
24
28
32
35
38
42
47
52
57
62
69
78
84
91
97
103
109
115
118
120
123
126
126
124
117
110
98
85
70
55
40
26
15
4
-5
-14
-20
-25
-28
-31
-34
-37
-39
-41
-41
-41
-42
-43
-43
-43
-43
-43
-43
-43
-43
-43
-43
-43
-44
-44
-42
-41
-40
-39
-40
-41
-41
-41
-41
-41
-41
-40
-39
-40
-41
-40
-39
-39
-39
-39
-39
-39
-39
-39
-39
-39
-39
-39
-39
-40
-41
-41
-41
-41
-41
-42
-43
-42
-41
-42
-43
-42
-41
-40
-39
-40
-37
-32
-28
-24
-23
-23
-22
-21
-15
-9
-8
-7
-10
-13
-15
-16
-12
-9
-13
-18
-28
-36
-40
-43
-42
-41
-41
-41
-41
-41
-41
-41
-41
-41
-41
-41
-41
-41
-41
-41
-40
-39
-38
-37
-38
-38
-35
-36
-38
-59
-79
-84
-79
-9
75
215
335
393
390
236
82
-74
-175
-190
-183
-145
-106
-66
-41
-29
-23
-22
-21
-20
-19
-19
-19
-18
-16
-14
-13
-12
-10
-8
-7
-6
-4
-5
1
3
4
5
7
9
11
13
16
19
21
23
26
30
33
36
40
44
48
52
57
62
69
77
84
91
98
105
111
116
121
126
130
131
132
131
128
122
116
103
90
72
55
41
27
16
6
-2
-10
-17
-23
-27
-31
-33
-35
-36
-37
-38
-39
-40
-41
-40
-39
-40
-41
-40
-39
-39
-39
-39
-39
-39
-39
-39
-39
-40
-41
-40
-39
-39
-39
-39
-39
-39
-38
-37
-38
-39
-38
-37
-37
-37
-37
-37
-38
-39
-39
-39
-39
-39
-39
-39
-40
-41
-41
-41
-42
-43
-43
-43
-42
-41
-41
-41
-41
-38
-32
-29
-26
-25
-24
-23
-23
-18
-23
-8
-5
-9
-13
-14
-15
-12
-9
-13
-19
-28
-36
-41
-45
-43
-41
-41
-41
-42
-43
-44
-44
-42
-41
-42
-43
-42
-41
-42
-43
-42
-41
-40
-39
-39
-39
-39
-38
-36
-48
-62
-82
-100
-68
-29
82
194
317
411
364
284
83
-82
-147
-190
-180
-155
-105
-67
-47
-33
-27
-23
-22
-21
-21
-21
-20
-18
-16
-15
-14
-13
-12
-11
-10
-9
-8
-5
-2
-1
0
1
3
6
9
11
13
15
17
20
23
26
30
34
38
43
48
52
57
64
72
79
86
93
100
106
111
117
122
127
129
130
131
130
126
120
109
95
79
63
49
34
22
33
-1
-11
-18
-25
-29
-33
-36
-39
-40
-41
-43
-45
-46
-47
-46
-45
-46
-47
-47
-47
-47
-47
-47
-47
-46
-45
-45
-45
-46
-47
-46
-45
-44
-43
-44
-45
-46
-46
-44
-43
-44
-45
-45
-45
-45
-45
-45
-45
-45
-45
-45
-45
-45
-45
-45
-46
-47
-48
-49
-49
-49
-49
-48
-46
-45
-46
-47
-48
-49
-49
-49
-48
-44
-39
-35
-32
-31
-31
-31
-31
-26
-20
-17
-13
-16
-19
-21
-23
-19
-15
-18
-22
-32
-40
-45
-49
-49
-49
-50
-51
-50
-49
-49
-49
-50
-51
-52
-53
-52
-51
-51
-51
-50
-49
-48
-47
-47
-46
-44
-43
-43
-54
-66
-85
-67
-74
-38
78
193
305
395
347
269
66
-105
-168
-210
-196
-171
-122
-82
-58
-41
-35
-31
-28
-27
-26
-24
-22
-21
-22
-22
-20
-18
-16
-14
-12
-11
-11
-10
-8
-6
-4
-1
2
4
5
6
7
12
17
20
23
25
27
29
32
37
42
47
53
62
69
75
82
90
98
104
109
114
118
121
124
128
129
129
125
119
107
94
80
65
50
35
20
6
-3
-13
-20
-27
-31
-35
-37
-39
-43
-47
-47
-47
-48
-49
-50
-51
-52
-53
-51
-49
-49
-49
-49
-49
-49
-49
-49
-49
-49
-49
-49
-49
-50
-51
-50
-49
-48
-47
-47
-47
-48
-48
-49
-45
-45
-47
-49
-48
-47
-47
-47
-49
-51
-51
-51
-50
-49
-49
-49
-50
-51
-52
-53
-53
-52
-50
-49
-50
-51
-52
-51
-48
-44
-39
-35
-32
-31
-32
-30
-26
-19
-12
-12
-14
-20
-25
-21
-17
-19
-21
-29
-36
-43
-49
-50
-51
-51
-51
-51
-51
-50
-49
-50
-51
-51
-51
-51
-51
-52
-53
-52
-50
-48
-47
-47
-47
-46
-44
-42
-48
-57
-74
-91
-82
-70
13
99
228
350
376
378
185
2
-123
-223
-220
-209
-174
-137
-94
-60
-43
-32
-29
-27
-25
-23
-23
-23
-22
-21
-20
-19
-18
-17
-16
-15
-14
-11
-8
-6
-4
-2
0
1
2
5
3
11
13
16
19
22
25
28
31
35
39
44
48
54
61
69
77
84
92
99
105
110
115
119
123
129
131
131
129
126
119
110
96
81
64
46
32
19
7
-4
-11
-18
-25
-31
-36
-41
-42
-43
-43
-43
-45
-47
-48
-49
-48
-47
-48
-49
-48
-47
-47
-47
-47
-47
-47
-47
-47
-47
-47
-46
-44
-43
-44
-45
-45
-45
-45
-45
-45
-45
-44
-43
-43
-43
-45
-44
-43
-43
-43
-44
-45
-45
-45
-45
-45
-45
-45
-46
-47
-48
-49
-48
-47
-47
-47
-46
-46
-48
-48
-45
-41
-37
-33
-30
-29
-30
-28
-22
-17
-12
-12
-14
-19
-24
-22
-25
-18
-19
-26
-33
-43
-51
-51
-51
-50
-49
-48
-47
-48
-49
-49
-49
-49
-49
-50
-51
-51
-51
-50
-49
-48
-47
-46
-45
-44
-43
-42
-46
-53
-74
-99
-89
-71
29
140
274
410
398
377
159
-49
-134
-209
-205
-193
-144
-99
-69
-45
-35
-27
-27
-27
-27
-27
-25
-23
-22
-21
-20
-19
-18
-17
-16
-14
-12
-10
-8
-7
-6
-4
-2
0
2
5
8
10
12
14
17
20
23
28
33
37
41
46
52
58
65
73
81
89
96
101
107
114
120
124
128
131
133
133
130
124
114
103
88
72
55
38
23
10
-1
-11
-18
-24
-29
-34
-36
-35
-41
-43
-45
-47
-48
-49
-49
-49
-48
-47
-48
-49
-49
-49
-48
-47
-48
-49
-49
-49
-48
-47
-47
-47
-46
-45
-45
-45
-45
-45
-44
-43
-43
-43
-42
-41
-42
-43
-42
-41
-42
-42
-41
-42
-43
-44
-45
-44
-43
-43
-43
-45
-47
-46
-45
-44
-43
-44
-45
-45
-45
-45
-45
-44
-43
-42
-38
-33
-30
-26
-26
-28
-26
-22
-17
-11
-9
-10
-14
-18
-17
-14
-13
-13
-18
-23
-34
-45
-47
-49
-49
-49
-47
-45
-45
-45
-45
-45
-46
-47
-46
-45
-45
-45
-44
-43
-43
-43
-42
-41
-40
-39
-38
-37
-36
-44
-56
-75
-96
-78
-54
42
146
276
151
404
390
180
-20
-117
-201
-196
-181
-126
-78
-54
-36
-30
-25
-24
-23
-22
-21
-21
-21
-20
-18
-16
-14
-12
-11
-11
-10
-8
-6
-4
-3
-2
0
2
3
4
7
10
13
16
20
23
25
27
32
37
41
45
51
56
61
67
75
83
93
101
107
113
119
124
127
131
135
137
137
134
129
120
109
95
80
64
49
34
20
9
-1
-11
-20
-25
-30
-34
-39
-39
-39
-40
-41
-42
-43
-43
-43
-42
-41
-41
-41
-42
-43
-44
-45
-44
-43
-43
-43
-43
-43
-43
-43
-42
-41
-40
-39
-40
-41
-41
-41
-40
-39
-39
-39
-39
-39
-39
-39
-39
-39
-39
-40
-41
-42
-43
-42
-41
-41
-41
-41
-41
-42
-43
-43
-43
-43
-43
-43
-43
-43
-43
-43
-43
-42
-39
-35
-31
-28
-26
-24
-23
-23
-20
-16
-11
-6
-6
-8
-12
-16
-13
-9
-11
-13
-20
-28
-37
-45
-45
-45
-45
-45
-43
-41
-41
-41
-41
-41
-42
-43
-43
-43
-43
-43
-43
-43
-42
-40
-38
-37
-37
-37
-36
-39
-44
-64
-88
-86
-80
-3
80
221
363
399
422
234
53
-76
-186
-193
-190
-145
-103
-71
-44
-32
-23
-22
-21
-20
-19
-17
-15
-15
-15
-14
-12
-10
-8
-6
-5
-5
-4
-2
0
2
4
6
9
12
13
14
17
15
24
27
30
33
36
39
46
51
57
62
68
75
82
89
97
105
112
119
124
128
133
136
139
141
140
136
130
118
104
88
72
57
42
30
17
7
-3
-9
-14
-19
-24
-29
-33
-37
-41
-41
-41
-42
-43
-43
-43
-44
-45
-44
-43
-43
-43
-43
-43
-44
-45
-44
-43
-44
-45
-44
-43
-44
-45
-44
-43
-42
-41
-41
-41
-41
-41
-41
-41
-40
-39
-40
-41
-43
-42
-41
-41
-41
-42
-43
-43
-43
-43
-43
-42
-41
-43
-45
-46
-47
-45
-43
-43
-43
-43
-43
-44
-44
-41
-36
-31
-29
-28
-28
-30
-27
-21
-14
-7
-6
-8
-14
-20
-17
-21
-14
-17
-26
-35
-41
-47
-49
-51
-49
-47
-46
-45
-46
-47
-47
-47
-46
-45
-46
-47
-47
-47
-46
-45
-44
-43
-43
-43
-42
-41
-40
-42
-46
-64
-87
-83
-73
8
97
226
358
379
392
205
24
-101
-211
-210
-204
-169
-132
-89
-53
-38
-27
-23
-21
-21
-21
-20
-19
-18
-16
-14
-13
-12
-11
-11
-10
-6
-5
-4
-3
-2
0
2
6
10
11
11
12
14
17
21
25
29
33
37
41
45
49
54
60
67
75
82
88
95
102
109
116
123
129
133
136
137
136
133
129
120
109
93
75
58
43
29
16
4
-9
-17
-24
-29
-34
-35
-35
-40
-43
-44
-45
-47
-49
-48
-47
-47
-47
-47
-47
-47
-47
-47
-47
-48
-49
-49
-49
-49
-49
-48
-47
-46
-45
-46
-47
-47
-47
-46
-45
-44
-43
-44
-45
-46
-47
-47
-47
-46
-47
-49
-50
-51
-50
-49
-49
-49
-50
-51
-51
-51
-51
-51
-51
-51
-51
-51
-52
-53
-52
-51
-50
-49
-49
-46
-41
-37
-33
-31
-31
-31
-30
-25
-19
-16
-14
-17
-22
-23
-23
-22
-19
-22
-25
-36
-47
-49
-51
-52
-53
-52
-51
-50
-49
-49
-49
-50
-51
-51
-51
-50
-49
-50
-51
-50
-49
-48
-47
-46
-44
-42
-41
-41
-53
-69
-82
-95
-51
3
139
284
355
291
282
140
-29
-184
-200
-212
-190
-162
-114
-73
-53
-38
-32
-27
-26
-25
-24
-23
-23
-23
-20
-19
-18
-16
-14
-13
-12
-10
-8
-7
-6
-3
0
1
2
3
4
8
12
15
18
22
25
29
33
37
41
46
51
57
62
68
75
83
91
98
105
111
116
120
124
127
129
130
129
124
115
104
90
76
60
44
30
16
5
-5
-12
-20
-25
-30
-34
-38
-39
-41
-42
-43
-44
-45
-46
-47
-47
-47
-46
-45
-46
-47
-47
-47
-48
-49
-48
-47
-46
-45
-45
-45
-45
-45
-44
-43
-43
-43
-43
-43
-43
-43
-42
-41
-41
-41
-42
-43
-43
-43
-43
-41
-41
-43
-45
-44
-43
-43
-43
-44
-45
-45
-45
-45
-45
-45
-45
-45
-45
-45
-45
-45
-45
-44
-41
-37
-33
-29
-27
-26
-25
-25
-21
-15
-11
-8
-9
-12
-14
-16
-14
-10
-12
-15
-24
-33
-38
-43
-44
-45
-45
-45
-45
-45
-44
-43
-42
-41
-42
-43
-44
-45
-43
-41
-41
-41
-40
-39
-39
-38
-36
-35
-34
-40
-50
-70
-93
-81
-60
38
148
275
404
392
370
158
-46
-128
-200
-191
-175
-121
-73
-49
-30
-24
-19
-20
-21
-21
-20
-17
-15
-15
-15
-12
-11
-10
-9
-8
-6
-4
-3
-3
-2
0
3
6
7
8
11
14
17
20
22
21
29
33
36
39
42
45
50
56
63
70
76
83
90
97
105
113
119
124
128
132
135
137
138
137
131
122
110
95
78
63
47
34
20
9
-3
-11
-20
-24
-28
-30
-32
-35
-37
-39
-41
-41
-41
-41
-41
-42
-43
-43
-43
-43
-43
-43
-43
-43
-43
-43
-43
-42
-41
-41
-41
-41
-41
-42
-42
-40
-39
-39
-39
-38
-37
-38
-39
-39
-39
-38
-37
-38
-39
-41
-40
-39
-40
-41
-41
-41
-42
-43
-42
-41
-42
-43
-43
-43
-44
-45
-44
-43
-42
-41
-41
-41
-42
-43
-43
-43
-42
-41
-41
-41
-41
-41
-40
-39
-38
-34
-30
-27
-24
-23
-23
-20
-19
-14
-9
-4
1
-4
-9
-11
-12
-7
-4
-9
-16
-25
-32
-38
-41
-41
-41
-41
-41
-40
-39
-39
-39
-40
-41
-41
-41
-41
-41
-41
-41
-40
-39
-39
-38
-36
-35
-34
-38
-43
-67
-89
-81
-62
28
125
257
367
399
379
212
54
-84
-177
-189
-180
-138
-100
-65
-41
-29
-23
-23
-23
-23
-23
-22
-21
-20
-18
-16
-15
-14
-13
-12
-10
-8
-7
-7
-6
-3
-2
-1
2
5
7
9
11
13
17
21
24
27
30
34
39
44
48
53
59
65
72
79
87
94
100
106
112
118
123
127
130
131
132
131
128
119
108
92
74
59
73
29
15
3
-9
-16
-23
-28
-33
-36
-39
-41
-43
-45
-47
-46
-45
-45
-45
-47
-49
-50
-50
-48
-47
-47
-47
-47
-47
-48
-49
-50
-51
-50
-49
-48
-47
-48
-49
-49
-49
-48
-48
-49
-50
-51
-50
-49
-49
-49
-49
-49
-49
-49
-49
-49
-49
-49
-50
-51
-51
-51
-52
-53
-53
-53
-52
-51
-51
-51
-51
-51
-51
-51
-50
-49
-50
-51
-51
-49
-46
-42
-38
-36
-33
-33
-33
-29
-25
-20
-15
-16
-17
-21
-25
-22
-19
-20
-22
-26
-33
-44
-51
-51
-51
-52
-53
-53
-53
-52
-51
-51
-51
-51
-51
-52
-53
-52
-51
-51
-51
-51
-51
-50
-49
-49
-46
-45
-44
-44
-60
-76
-87
-92
-60
-8
110
224
327
378
317
202
-5
-147
-202
-223
-206
-172
-123
-87
-60
-44
-35
-31
-30
-29
-28
-27
-26
-25
-24
-23
-22
-21
-20
-18
-16
-12
-9
-8
-7
-5
-3
-3
-3
-1
1
4
8
12
15
16
19
25
30
33
38
45
51
56
62
70
77
84
92
100
107
113
118
123
127
130
131
131
128
124
114
104
89
73
57
41
26
12
2
-8
-17
-26
-31
-36
-41
-45
-47
-49
-50
-51
-51
-51
-51
-51
-52
-53
-54
-55
-54
-53
-54
-55
-55
-55
-54
-53
-53
-53
-53
-53
-54
-55
-55
-54
-55
-52
-53
-52
-51
-52
-53
-52
-51
-51
-51
-51
-51
-52
-53
-52
-51
-52
-53
-53
-53
-54
-55
-55
-54
-52
-51
-52
-53
-54
-55
-54
-53
-53
-53
-53
-53
-53
-53
-52
-51
-51
-52
-53
-52
-51
-50
-49
-48
-47
-41
-37
-35
-33
-33
-33
-29
-26
-21
-17
-15
-14
-17
-19
-20
-20
-18
-19
-23
-31
-41
-46
-48
-49
-49
-49
-49
-49
-48
-47
-48
-49
-49
-49
-49
-48
-47
-47
-47
-45
-43
-43
-43
-42
-41
-41
-41
-40
-39
-40
-47
-65
-78
-85
-63
-7
85
211
311
391
361
265
107
-82
-161
-198
-193
-175
-132
-84
-60
-39
-32
-26
-25
-25
-21
-19
-19
-19
-18
-17
-16
-15
-13
-11
-10
-9
-8
-7
-5
-3
-1
1
3
5
5
7
11
14
17
20
22
25
28
31
35
40
45
51
56
62
68
75
82
91
100
106
111
117
123
127
131
133
135
133
129
120
110
95
81
67
53
39
27
14
3
-6
-13
-18
-23
-28
-32
-34
-35
-35
-35
-36
-37
-37
-37
-38
-39
-39
-39
-38
-37
-38
-39
-39
-39
-39
-39
-39
-38
-37
-38
-39
-39
-39
-38
-37
-37
-37
-37
-37
-36
-35
-35
-35
-35
-35
-36
-37
-37
-37
-36
-35
-36
-37
-38
-39
-38
-37
-38
-39
-38
-38
-40
-41
-41
-40
-41
-41
-41
-41
-41
-39
-37
-37
-37
-37
-37
-38
-39
-39
-39
-38
-37
-37
-37
-37
-37
-36
-35
-35
-34
-31
-27
-23
-19
-16
-15
-15
-14
-12
-5
4
4
2
-3
-8
-5
-1
-3
-5
-11
-18
-26
-33
-35
-37
-37
-37
-37
-37
-36
-35
-35
-35
-36
-37
-37
-37
-37
-37
-37
-37
-36
-35
-34
-33
-32
-30
-28
-30
-34
-54
-78
-76
-70
12
100
236
373
404
423
262
102
-42
-165
-181
-189
-156
-120
-76
-42
-28
-19
-17
-15
-15
-15
-14
-13
-10
-9
-8
-7
-6
-5
-4
-3
-2
-1
0
3
6
7
8
10
12
13
14
17
15
23
25
26
27
31
35
39
43
49
54
60
67
74
82
93
103
110
117
123
129
136
140
143
146
148
149
148
141
132
121
109
93
77
62
48
34
21
11
2
-4
-10
-15
-19
-23
-27
-28
-29
-30
-31
-32
-33
-34
-35
-34
-33
-33
-33
-33
-33
-34
-35
-35
-35
-35
-35
-35
-35
-35
-35
-35
-35
-34
-33
-33
-33
-34
-35
-35
-35
-35
-35
-35
-35
-35
-35
-35
-34
-33
-34
-35
-35
-35
-35
-35
-35
-35
-37
-39
-39
-39
-38
-37
-37
-37
-38
-39
-39
-39
-39
-39
-39
-39
-39
-39
-39
-39
-38
-37
-37
-37
-37
-37
-36
-35
-35
-35
-35
-34
-33
-30
-27
-22
-17
-17
-17
-15
-12
-6
0
3
4
-2
-5
-6
-7
-4
-5
-10
-18
-29
-34
-37
-39
-38
-37
-36
-35
-35
-35
-36
-37
-37
-37
-37
-37
-36
-36
-37
-37
-37
-36
-35
-34
-33
-32
-31
-31
-35
-50
-66
-83
-82
-43
30
150
266
376
400
336
198
-1
-117
-174
-186
-170
-131
-81
-53
-34
-26
-22
-21
-20
-18
-16
-15
-16
-16
-13
-12
-11
-10
-9
-7
-5
-5
-5
-3
-1
1
3
4
5
7
9
11
14
17
19
22
24
26
29
35
38
41
46
51
57
63
70
77
85
93
102
110
115
120
124
121
132
135
134
133
127
120
107
94
77
60
46
32
18
6
-3
-11
-18
-25
-30
-34
-37
-39
-40
-41
-41
-41
-42
-43
-44
-45
-45
-45
-45
-45
-45
-45
-45
-45
-45
-45
-45
-44
-43
-44
-45
-45
-45
-45
-45
-44
-43
-43
-43
-43
-43
-43
-43
-44
-45
-44
-43
-43
-43
-43
-43
-44
-45
-46
-47
-46
-45
-45
-45
-46
-47
-47
-47
-47
-47
-47
-47
-47
-47
-49
-47
-45
-46
-47
-47
-47
-47
-47
-46
-45
-44
-43
-45
-47
-46
-45
-45
-45
-44
-43
-43
-42
-40
-37
-31
-28
-25
-23
-24
-23
-18
-11
-3
-3
-6
-10
-14
-12
-8
-7
-7
-18
-27
-34
-41
-42
-43
-42
-41
-42
-43
-42
-41
-43
-45
-43
-41
-41
-41
-41
-41
-42
-43
-42
-41
-40
-39
-38
-37
-38
-39
-38
-46
-60
-75
-90
-58
-16
96
217
315
411
333
247
55
-126
-168
-203
-187
-166
-119
-78
-55
-35
-27
-21
-22
-23
-22
-21
-21
-20
-17
-15
-15
-14
-12
-11
-10
-8
-6
-5
-4
-3
-2
0
2
4
6
8
10
13
16
19
23
25
27
31
35
41
47
50
54
61
68
75
82
88
95
104
111
117
122
126
129
130
131
130
128
125
116
104
88
72
57
43
31
20
9
-1
-10
-18
-24
-30
-32
-31
-37
-39
-41
-43
-44
-45
-44
-43
-44
-45
-44
-43
-44
-45
-45
-45
-45
-45
-46
-47
-46
-45
-45
-45
-45
-45
-44
-43
-43
-43
-43
-43
-43
-43
-43
-43
-43
-43
-43
-43
-43
-43
-43
-44
-45
-45
-45
-45
-45
-46
-47
-47
-47
-46
-45
-45
-45
-45
-45
-46
-47
-46
-45
-45
-45
-45
-45
-45
-45
-45
-45
-45
-42
-37
-33
-30
-29
-28
-26
-24
-19
-14
-11
-7
-12
-17
-17
-17
-15
-13
-15
-18
-28
-36
-41
-45
-45
-45
-45
-45
-44
-43
-45
-47
-47
-47
-47
-47
-46
-45
-44
-43
-44
-45
-44
-43
-43
-42
-40
-39
-38
-37
-37
-50
-37
-80
-93
-46
8
129
245
338
399
320
214
19
-135
-185
-214
-199
-171
-123
-84
-58
-39
-30
-25
-24
-23
-22
-20
-18
-17
-16
-15
-14
-12
-10
-9
-8
-7
-7
-6
-4
-2
0
3
5
7
9
12
15
17
19
21
23
26
30
35
40
44
48
53
59
64
70
77
84
91
98
104
110
115
120
125
127
128
129
129
125
119
107
95
80
65
49
34
23
11
2
-7
-14
-21
-26
-31
-34
-37
-39
-41
-41
-41
-42
-43
-43
-43
-43
-43
-43
-43
-43
-43
-43
-43
-43
-43
-43
-43
-43
-42
-40
-39
-39
-39
-38
-37
-37
-37
-38
-39
-39
-39
-39
-40
-41
-42
-43
-42
-41
-42
-43
-43
-43
-44
-45
-45
-45
-45
-45
-45
-45
-46
-47
-46
-45
-45
-45
-45
-45
-45
-45
-45
-45
-46
-47
-46
-45
-44
-43
-43
-43
-43
-37
-31
-28
-25
-25
-25
-22
-19
-13
-9
-8
-8
-12
-15
-15
-15
-13
-12
-15
-20
-28
-35
-40
-43
-44
-45
-45
-45
-44
-43
-43
-43
-43
-43
-44
-45
-44
-43
-43
-43
-43
-43
-41
-41
-41
-39
-37
-36
-36
-45
-57
-78
-89
-65
-17
85
194
316
393
399
324
143
-9
-130
-190
-197
-175
-129
-90
-55
-37
-28
-25
-24
-22
-20
-19
-18
-17
-16
-15
-14
-13
-13
-10
-9
-8
-7
-6
-5
-2
1
2
3
6
9
9
10
13
16
19
22
25
27
30
33
37
41
47
51
55
61
67
74
81
89
97
103
110
113
116
121
126
128
130
128
125
116
106
93
80
65
51
37
23
9
-3
-11
-18
-23
-28
-32
-35
-37
-39
-40
-41
-41
-41
-42
-43
-44
-45
-45
-45
-44
-43
-44
-45
-46
-47
-46
-45
-45
-45
-45
-45
-45
-44
-43
-43
-43
-43
-43
-43
-43
-43
-43
-44
-45
-45
-45
-45
-45
-44
-43
-44
-45
-45
-45
-46
-47
-46
-45
-45
-45
-46
-47
-47
-47
-46
-45
-45
-45
-45
-46
-48
-48
-49
-44
-43
-44
-45
-43
-41
-36
-31
-28
-25
-26
-27
-24
-19
-12
-7
-8
-11
-16
-19
-16
-15
-15
-17
-23
-30
-39
-44
-46
-47
-47
-47
-46
-45
-45
-45
-46
-47
-47
-47
-47
-46
-45
-46
-47
-45
-43
-42
-41
-42
-43
-41
-39
-39
-45
-65
-81
-90
-70
-8
90
229
332
398
358
228
77
-89
-165
-191
-183
-160
-120
-75
-53
-36
-30
-26
-25
-24
-23
-23
-23
-21
-19
-17
-16
-15
-14
-13
-12
-11
-9
-7
-5
-3
-2
-1
1
3
5
8
11
14
17
20
22
24
27
30
33
38
43
47
52
57
63
70
77
84
90
95
100
107
101
118
121
123
125
125
125
121
116
105
94
80
65
50
35
22
10
-1
-10
-17
-23
-28
-32
-34
-36
-38
-39
-40
-41
-42
-43
-43
-43
-42
-41
-42
-43
-43
-43
-43
-43
-42
-42
-43
-44
-45
-44
-43
-43
-43
-42
-41
-42
-43
-43
-43
-43
-43
-42
-41
-42
-43
-43
-43
-43
-43
-44
-45
-45
-45
-45
-45
-45
-45
-45
-45
-46
-47
-47
-47
-46
-45
-46
-47
-47
-46
-45
-45
-45
-44
-43
-39
-35
-31
-27
-27
-27
-27
-25
-18
-13
-11
-10
-14
-17
-17
-16
-14
-15
-19
-28
-39
-45
-48
-49
-48
-47
-46
-45
-45
-45
-45
-45
-46
-47
-47
-46
-47
-47
-47
-47
-47
-45
-43
-43
-43
-41
-39
-39
-43
-58
-73
-92
-92
-66
0
111
227
349
385
352
216
13
-104
-177
-193
-184
-145
-95
-68
-45
-36
-30
-29
-28
-26
-24
-21
-19
-19
-19
-18
-17
-16
-15
-14
-13
-12
-11
-9
-7
-5
-3
-1
1
2
3
5
8
11
14
16
18
21
24
28
32
37
42
47
51
54
60
68
75
82
87
92
97
103
107
111
115
119
119
119
118
116
108
98
84
69
55
41
29
17
7
-2
-10
-17
-24
-29
-34
-38
-40
-41
-42
-43
-44
-46
-48
-49
-48
-47
-47
-47
-47
-47
-47
-47
-47
-46
-45
-45
-45
-47
-49
-47
-45
-44
-43
-44
-45
-45
-45
-45
-45
-44
-43
-44
-45
-46
-47
-47
-47
-48
-49
-49
-49
-49
-49
-48
-47
-48
-49
-49
-50
-52
-52
-50
-49
-50
-51
-51
-51
-51
-50
-49
-47
-45
-42
-39
-36
-33
-33
-33
-29
-25
-19
-15
-15
-16
-20
-22
-20
-19
-19
-23
-32
-39
-46
-49
-50
-51
-51
-51
-52
-53
-52
-51
-50
-50
-52
-53
-53
-52
-51
-51
-51
-51
-51
-50
-49
-48
-47
-45
-44
-49
-60
-83
-95
-89
-51
28
135
274
350
373
283
109
-32
-153
-197
-203
-186
-158
-119
-76
-55
-40
-34
-30
-29
-29
-28
-29
-24
-23
-22
-21
-19
-17
-16
-15
-14
-13
-11
-9
-7
-5
-4
-3
-1
1
3
5
5
7
11
15
19
22
24
27
30
34
39
44
48
53
60
67
74
80
86
93
100
104
107
110
113
116
119
117
115
111
105
93
80
65
51
38
25
14
4
-5
-14
-21
-27
-32
-36
-39
-43
-47
-49
-49
-49
-48
-48
-50
-51
-51
-51
-50
-49
-48
-47
-46
-45
-47
-48
-49
-48
-47
-46
-45
-47
-49
-48
-47
-48
-49
-48
-47
-48
-49
-47
-45
-45
-45
-48
-49
-50
-51
-50
-49
-49
-49
-49
-49
-50
-51
-52
-53
-52
-51
-52
-53
-52
-51
-51
-48
-45
-41
-37
-36
-35
-34
-33
-30
-26
-19
-13
-14
-16
-21
-25
-23
-21
-20
-21
-28
-36
-46
-51
-52
-53
-52
-51
-52
-52
-50
-50
-52
-53
-53
-53
-53
-53
-52
-51
-51
-49
-47
-48
-49
-48
-47
-45
-43
-45
-51
-71
-86
-82
-55
25
125
260
346
361
278
75
-77
-179
-222
-214
-190
-154
-116
-76
-53
-38
-30
-26
-25
-25
-24
-22
-21
-20
-19
-19
-19
-19
-16
-13
-11
-9
-6
-3
-2
-1
0
1
3
5
8
11
12
14
18
22
25
28
31
34
37
41
45
49
53
59
65
71
77
84
91
97
102
106
110
112
114
115
115
115
113
106
98
86
74
61
49
37
25
14
3
-5
-13
-19
-24
-28
-32
-35
-37
-40
-41
-42
-43
-43
-43
-43
-44
-46
-47
-46
-45
-45
-45
-45
-45
-45
-45
-44
-43
-42
-41
-41
-41
-41
-41
-41
-41
-41
-42
-43
-44
-45
-44
-43
-43
-43
-43
-43
-44
-45
-45
-45
-45
-45
-45
-46
-48
-49
-48
-47
-47
-47
-47
-47
-47
-46
-44
-40
-36
-33
-30
-30
-33
-29
-25
-18
-11
-12
-13
-17
-21
-18
-15
-16
-18
-24
-32
-42
-49
-48
-47
-48
-49
-49
-49
-49
-49
-49
-49
-48
-47
-48
-49
-49
-49
-48
-47
-46
-45
-44
-43
-42
-40
-41
-46
-56
-78
-97
-76
-42
71
185
305
391
362
286
87
-74
-158
-209
-202
-178
-133
-95
-64
-43
-31
-25
-24
-23
-22
-21
-21
-20
-18
-17
-16
-15
-15
-15
-14
-11
-8
-7
-6
-4
-3
-1
1
3
5
8
11
12
13
16
19
21
24
28
32
36
40
43
47
53
60
66
71
76
82
88
94
101
105
109
113
116
117
116
114
112
104
96
84
72
57
41
29
17
8
-1
-10
-17
-22
-28
-33
-37
-39
-41
-43
-45
-45
-45
-45
-45
-44
-43
-44
-45
-44
-43
-43
-43
-43
-43
-44
-45
-45
-45
-44
-43
-43
-43
-42
-41
-42
-43
-43
-41
-41
-41
-41
-42
-43
-42
-41
-41
-41
-42
-43
-44
-45
-45
-45
-45
-45
-45
-45
-45
-45
-45
-44
-41
-37
-33
-31
-30
-29
-29
-26
-21
-16
-12
-12
-14
-16
-18
-16
-12
-14
-17
-24
-31
-39
-47
-47
-47
-48
-49
-49
-49
-48
-47
-47
-47
-47
-47
-48
-49
-48
-47
-46
-45
-46
-47
-47
-46
-42
-41
-41
-46
-53
-73
-96
-88
-72
15
111
237
365
377
385
196
13
-95
-191
-195
-193
-151
-111
-77
-48
-36
-27
-27
-27
-26
-25
-24
-23
-21
-19
-18
-17
-16
-15
-14
-12
-10
-9
-8
-6
-4
-2
0
1
2
4
6
8
10
13
11
20
23
26
29
32
35
40
46
52
58
64
70
76
83
90
97
104
110
113
115
118
119
119
118
116
110
101
87
72
58
45
32
18
7
-3
-11
-18
-22
-26
-30
-34
-37
-39
-40
-41
-42
-43
-43
-43
-43
-43
-44
-45
-44
-43
-42
-41
-41
-41
-41
-41
-41
-41
-41
-41
-41
-41
-41
-41
-40
-39
-39
-39
-39
-39
-39
-39
-39
-39
-38
-37
-38
-39
-41
-40
-39
-39
-39
-40
-41
-41
-41
-41
-41
-41
-41
-40
-38
-34
-30
-27
-25
-25
-24
-21
-17
-13
-10
-8
-9
-13
-15
-14
-13
-12
-14
-20
-29
-39
-42
-44
-45
-45
-45
-45
-45
-45
-46
-47
-47
-47
-45
-43
-44
-45
-45
-45
-44
-43
-42
-41
-40
-39
-38
-40
-47
-62
-85
-90
-79
-25
58
171
299
362
398
281
112
-28
-160
-187
-194
-156
-112
-79
-46
-34
-23
-23
-23
-21
-19
-19
-19
-18
-17
-15
-13
-12
-11
-10
-9
-7
-5
-4
-3
-1
1
2
4
6
7
8
11
15
18
20
24
28
30
32
37
42
46
50
54
58
63
69
77
85
92
99
104
109
111
114
119
123
124
125
122
117
110
100
87
74
60
46
31
18
6
-3
-10
-16
-21
-26
-31
-34
-36
-37
-37
-37
-37
-37
-38
-40
-42
-42
-43
-39
-39
-39
-39
-39
-39
-39
-39
-40
-41
-40
-39
-39
-39
-38
-37
-37
-37
-37
-37
-37
-37
-37
-37
-36
-35
-36
-37
-38
-39
-39
-39
-38
-37
-38
-39
-40
-41
-40
-39
-40
-40
-39
-39
-39
-39
-39
-36
-33
-30
-27
-27
-27
-24
-20
-13
-9
-8
-8
-11
-13
-13
-11
-7
-7
-11
-18
-27
-34
-39
-41
-41
-41
-42
-43
-43
-43
-43
-43
-42
-41
-42
-43
-45
-44
-43
-42
-41
-40
-39
-38
-37
-37
-37
-35
-36
-47
-61
-79
-80
-52
17
137
249
352
352
259
111
-76
-167
-200
-196
-174
-134
-87
-59
-38
-28
-21
-19
-18
-17
-16
-15
-15
-12
-11
-10
-9
-8
-7
-5
-3
-1
1
3
5
6
8
11
13
15
17
18
19
22
24
27
31
35
38
40
44
49
54
59
66
73
79
84
90
96
102
108
112
116
121
125
127
129
129
129
123
116
104
92
78
64
52
40
27
15
4
-6
-14
-20
-24
-28
-31
-33
-34
-35
-36
-37
-36
-36
-38
-39
-38
-37
-37
-37
-36
-35
-36
-37
-38
-39
-39
-37
-35
-35
-35
-35
-35
-36
-37
-36
-35
-36
-37
-37
-37
-37
-37
-37
-37
-37
-37
-37
-37
-38
-39
-40
-41
-41
-41
-41
-41
-42
-43
-42
-41
-41
-41
-41
-41
-41
-36
-41
-26
-23
-24
-25
-22
-18
-11
-5
-6
-8
-13
-17
-15
-13
-12
-12
-18
-25
-37
-43
-44
-45
-45
-45
-45
-45
-45
-45
-45
-45
-45
-45
-46
-47
-46
-45
-46
-46
-44
-43
-43
-43
-43
-41
-39
-38
-37
-42
-50
-71
-86
-80
-55
24
122
260
355
375
314
133
-20
-138
-197
-196
-177
-143
-107
-69
-47
-34
-27
-23
-21
-21
-21
-20
-18
-16
-15
-15
-14
-12
-11
-11
-9
-7
-5
-3
-1
1
3
5
7
9
11
13
16
19
21
24
27
30
33
36
41
45
50
55
61
67
74
81
87
93
99
104
110
114
118
120
122
123
122
119
121
104
93
78
64
50
36
25
14
5
-4
-11
-18
-23
-27
-29
-31
-33
-35
-36
-37
-38
-39
-38
-37
-37
-37
-37
-37
-38
-39
-38
-37
-37
-37
-37
-37
-37
-37
-36
-35
-35
-35
-35
-35
-35
-34
-33
-33
-33
-34
-35
-35
-35
-35
-35
-35
-35
-36
-37
-37
-37
-37
-37
-37
-37
-38
-39
-39
-39
-39
-39
-39
-39
-39
-39
-39
-36
-32
-28
-24
-23
-22
-21
-23
-16
-9
-6
-3
-6
-9
-11
-13
-10
-7
-10
-15
-22
-29
-36
-41
-41
-41
-40
-39
-39
-39
-39
-39
-39
-39
-40
-41
-41
-41
-40
-39
-39
-38
-36
-35
-35
-35
-35
-34
-35
-38
-46
-69
-90
-75
-47
53
159
291
393
395
342
144
-21
-122
-185
-186
-168
-122
-84
-54
-34
-24
-19
-18
-17
-17
-16
-14
-13
-13
-12
-10
-9
-8
-7
-7
-5
-2
0
2
4
5
6
7
9
11
13
15
18
21
22
24
28
32
36
40
43
46
50
55
61
68
75
81
86
92
98
104
111
115
119
123
126
128
130
130
128
121
114
101
88
73
57
46
35
24
12
3
-6
-13
-19
-22
-25
-27
-29
-31
-33
-34
-35
-35
-35
-35
-35
-36
-37
-37
-37
-37
-37
-37
-37
-37
-37
-37
-37
-36
-35
-34
-33
-33
-33
-34
-35
-35
-33
-33
-34
-35
-35
-35
-34
-33
-32
-31
-33
-35
-35
-35
-36
-37
-36
-35
-36
-37
-37
-37
-37
-37
-37
-37
-36
-35
-36
-37
-36
-35
-36
-35
-32
-27
-22
-20
-18
-17
-18
-14
-9
-5
-1
-2
-3
-7
-11
-8
-5
-7
-10
-16
-23
-31
-37
-37
-37
-37
-37
-37
-37
-37
-37
-37
-37
-38
-39
-38
-37
-37
-37
-37
-37
-37
-37
-36
-34
-32
-30
-28
-27
-29
-50
-71
-78
-79
-20
51
186
309
389
414
274
126
-40
-156
-177
-178
-145
-108
-68
-41
-28
-20
-17
-15
-14
-13
-12
-11
-11
-11
-10
-8
-6
-5
-4
-3
-2
-1
0
1
1
4
5
7
9
9
9
13
17
19
21
26
29
31
34
38
42
46
50
54
59
66
73
81
88
94
100
106
111
115
119
123
126
128
128
126
120
114
102
88
76
64
52
41
30
19
8
-1
-7
-13
-19
-23
-26
-29
-29
-29
-33
-35
-35
-36
-39
-41
-41
-41
-41
-41
-41
-41
-42
-42
-40
-40
-42
-43
-43
-43
-43
-42
-40
-39
-39
-39
-40
-41
-41
-40
-39
-40
-41
-41
-41
-41
-41
-41
-41
-42
-43
-44
-45
-45
-45
-45
-45
-46
-47
-46
-45
-46
-47
-46
-45
-45
-45
-46
-47
-46
-45
-45
-45
-45
-45
-44
-43
-43
-41
-43
-34
-31
-29
-27
-28
-29
-25
-20
-13
-7
-9
-12
-17
-21
-19
-17
-15
-15
-20
-28
-39
-45
-46
-47
-46
-45
-44
-43
-44
-45
-45
-45
-44
-44
-46
-47
-46
-45
-44
-43
-42
-42
-43
-42
-41
-39
-37
-40
-46
-67
-84
-89
-75
-4
88
229
337
389
360
210
60
-88
-167
-176
-162
-128
-92
-56
-34
-20
-14
-12
-11
-11
-11
-10
-8
-6
-5
-5
-5
-5
-5
-3
-1
1
2
3
4
5
6
7
9
11
13
15
18
21
22
24
28
32
35
38
43
47
51
56
62
68
74
80
85
90
95
101
107
111
114
117
120
121
121
119
121
106
97
82
68
53
38
25
13
2
-8
-17
-24
-29
-34
-39
-43
-45
-47
-48
-49
-50
-51
-51
-51
-51
-51
-51
-51
-51
-51
-51
-51
-51
-51
-51
-51
-51
-51
-52
-53
-52
-51
-51
-51
-51
-50
-49
-49
-49
-50
-51
-51
-51
-51
-51
-52
-53
-53
-53
-54
-55
-54
-53
-53
-53
-54
-55
-56
-56
-54
-53
-53
-53
-54
-55
-56
-56
-54
-53
-54
-55
-54
-53
-53
-54
-55
-49
-43
-40
-37
-37
-37
-36
-34
-28
-23
-20
-18
-22
-25
-27
-28
-24
-21
-24
-30
-42
-49
-53
-55
-55
-55
-55
-55
-55
-55
-55
-55
-55
-55
-54
-53
-54
-55
-55
-52
-51
-51
-51
-50
-49
-49
-49
-46
-45
-55
-68
-87
-94
-72
-21
76
185
309
367
350
237
34
-103
-191
-220
-211
-180
-138
-101
-66
-48
-34
-31
-31
-31
-30
-28
-26
-24
-22
-20
-19
-18
-17
-16
-15
-13
-11
-10
-9
-8
-7
-4
-1
1
4
8
11
12
14
17
20
23
26
29
33
37
42
47
53
59
66
73
79
85
90
94
100
106
110
114
116
119
120
121
117
112
103
93
80
67
52
38
25
12
2
-7
-16
-23
-29
-33
-35
-38
-41
-43
-44
-45
-45
-45
-46
-47
-47
-47
-47
-47
-47
-47
-46
-45
-45
-45
-45
-45
-45
-44
-43
-43
-43
-43
-43
-43
-43
-43
-43
-44
-45
-45
-45
-45
-45
-45
-45
-45
-45
-45
-45
-46
-47
-46
-45
-46
-47
-47
-47
-47
-47
-47
-47
-47
-47
-48
-49
-48
-47
-47
-48
-49
-48
-47
-47
-47
-46
-45
-45
-45
-44
-42
-36
-31
-29
-27
-28
-28
-24
-19
-13
-9
-10
-13
-18
-20
-17
-15
-15
-18
-23
-32
-42
-45
-46
-47
-47
-47
-46
-45
-46
-47
-45
-45
-45
-45
-45
-45
-45
-45
-45
-44
-43
-42
-41
-40
-39
-38
-37
-38
-49
-72
-85
-88
-47
34
150
292
374
421
327
164
9
-143
-188
-200
-174
-137
-97
-57
-41
-28
-26
-27
-23
-23
-22
-21
-21
-21
-18
-15
-14
-13
-12
-11
-10
-9
-8
-6
-3
-1
0
1
2
4
7
10
13
15
16
19
23
26
28
32
37
41
44
49
54
59
64
72
80
87
93
99
105
109
113
117
121
123
125
123
120
114
106
93
80
66
52
37
24
12
2
-5
-12
-18
-24
-29
-32
-34
-35
-36
-37
-37
-37
-38
-39
-39
-39
-40
-41
-41
-41
-41
-40
-39
-40
-41
-40
-39
-39
-39
-38
-37
-37
-37
-37
-37
-38
-39
-39
-39
-38
-37
-38
-39
-39
-39
-38
-37
-37
-37
-38
-39
-40
-41
-41
-41
-40
-39
-40
-41
-42
-43
-43
-42
-41
-41
-41
-42
-43
-42
-41
-40
-39
-40
-41
-41
-41
-40
-39
-37
-33
-28
-25
-22
-21
-22
-21
-15
-10
-5
-5
-8
-11
-15
-14
-10
-10
-12
-18
-24
-32
-40
-41
-42
-43
-43
-43
-43
-42
-41
-41
-41
-41
-41
-42
-43
-42
-41
-41
-41
-40
-39
-39
-39
-37
-35
-34
-35
-40
-57
-82
-88
-81
-20
67
191
328
383
413
266
81
-49
-171
-186
-192
-152
-109
-75
-43
-33
-23
-22
-21
-21
-21
-19
-17
-16
-15
-15
-15
-13
-11
-9
-7
-6
-5
-4
-2
0
1
2
4
7
10
12
13
14
18
22
25
28
32
36
39
42
48
43
60
65
72
79
85
92
99
105
111
115
118
121
123
125
126
126
120
112
100
87
72
58
44
31
18
8
-1
-9
-16
-21
-25
-28
-30
-32
-34
-36
-38
-39
-38
-37
-38
-39
-39
-40
-41
-40
-39
-40
-41
-41
-41
-41
-41
-41
-41
-40
-39
-39
-39
-40
-41
-39
-37
-37
-37
-37
-37
-38
-39
-39
-39
-39
-39
-40
-41
-41
-41
-41
-41
-41
-41
-41
-41
-43
-43
-43
-42
-41
-41
-41
-42
-43
-43
-43
-42
-41
-42
-43
-43
-43
-42
-41
-41
-41
-41
-40
-38
-35
-29
-26
-23
-21
-21
-20
-18
-13
-7
-5
-4
-7
-12
-13
-13
-11
-13
-12
-17
-27
-37
-40
-43
-43
-43
-42
-41
-40
-39
-40
-41
-41
-41
-40
-39
-41
-43
-43
-42
-40
-39
-39
-39
-38
-37
-37
-36
-34
-45
-61
-78
-94
-67
-31
77
195
313
431
341
243
48
-135
-170
-198
-168
-136
-93
-56
-41
-28
-24
-21
-20
-19
-18
-17
-17
-17
-15
-12
-10
-9
-9
-9
-8
-6
-2
-1
0
2
4
5
6
9
12
15
18
20
22
24
27
31
35
39
43
48
53
56
60
67
74
81
88
93
99
106
113
118
121
123
125
126
127
126
122
116
106
94
81
67
52
37
25
14
3
-7
-14
-20
-23
-26
-29
-27
-34
-35
-37
-39
-40
-41
-40
-39
-38
-37
-37
-37
-38
-39
-39
-39
-39
-39
-39
-39
-39
-39
-39
-39
-38
-37
-37
-37
-38
-39
-38
-37
-37
-37
-38
-39
-40
-41
-41
-41
-40
-39
-39
-40
-41
-40
-39
-40
-41
-41
-41
-42
-43
-42
-41
-41
-41
-41
-41
-42
-43
-42
-41
-40
-39
-40
-41
-40
-36
-31
-27
-23
-21
-22
-22
-20
-14
-8
-7
-6
-8
-12
-13
-11
-10
-9
-13
-18
-29
-39
-42
-45
-43
-41
-41
-41
-40
-39
-41
-43
-43
-43
-43
-43
-42
-41
-42
-43
-42
-41
-41
-41
-40
-39
-38
-36
-34
-42
-55
-71
-89
-55
-15
96
-13
314
409
315
211
19
-151
-185
-209
-188
-161
-115
-75
-51
-33
-25
-19
-18
-17
-16
-15
-14
-13
-13
-12
-10
-9
-8
-5
-2
-1
0
2
4
5
6
7
8
11
14
17
20
24
27
30
33
36
39
42
45
51
56
61
66
72
78
83
88
93
99
104
110
117
122
124
125
126
127
126
123
119
111
102
88
73
57
42
29
17
7
-2
-9
-16
-22
-29
-31
-33
-34
-35
-36
-37
-38
-39
-39
-39
-40
-41
-40
-39
-39
-39
-40
-41
-40
-39
-39
-39
-39
-39
-38
-37
-37
-37
-37
-37
-38
-39
-38
-37
-38
-39
-38
-37
-38
-39
-39
-39
-39
-39
-39
-41
-43
-41
-39
-39
-39
-40
-41
-42
-43
-43
-43
-43
-43
-43
-43
-43
-43
-42
-41
-41
-41
-41
-38
-33
-29
-26
-25
-24
-23
-22
-17
-12
-8
-4
-6
-10
-13
-15
-11
-7
-11
-16
-29
-41
-42
-43
-44
-45
-44
-43
-42
-41
-41
-41
-43
-45
-44
-43
-43
-43
-43
-43
-43
-43
-42
-41
-40
-39
-38
-37
-36
-46
-61
-77
-93
-62
-25
89
204
315
415
346
261
60
-118
-167
-204
-185
-160
-113
-73
-50
-33
-27
-23
-22
-21
-20
-19
-18
-17
-16
-14
-12
-11
-11
-9
-6
-5
-4
-2
0
2
4
6
8
9
10
13
11
19
21
23
25
29
33
37
41
44
48
53
58
63
69
75
81
88
95
100
105
110
114
117
120
123
125
124
120
115
106
96
84
70
56
42
29
17
7
-2
-9
-16
-21
-25
-29
-33
-34
-35
-36
-37
-38
-39
-39
-39
-39
-39
-39
-39
-39
-39
-39
-39
-38
-37
-37
-37
-37
-37
-37
-37
-37
-37
-36
-35
-35
-35
-35
-35
-35
-35
-34
-33
-34
-35
-37
-37
-37
-37
-37
-38
-39
-39
-39
-38
-37
-37
-37
-38
-39
-39
-39
-39
-39
-39
-39
-39
-39
-39
-39
-39
-39
-38
-35
-32
-29
-26
-23
-20
-19
-20
-17
-12
-8
-4
-3
-3
-9
-13
-9
-5
-9
-13
-18
-24
-32
-39
-40
-41
-42
-42
-39
-37
-38
-39
-40
-41
-42
-43
-42
-41
-41
-41
-41
-41
-40
-39
-38
-37
-36
-35
-34
-37
-42
-63
-87
-83
-76
18
115
258
391
395
374
169
-17
-116
-193
-191
-176
-126
-83
-55
-35
-26
-21
-21
-21
-19
-17
-16
-14
-12
-11
-11
-10
-8
-7
-6
-4
-2
-1
-1
1
4
5
6
8
10
12
15
18
21
23
25
29
33
35
38
43
48
52
56
62
68
73
80
88
95
101
106
111
115
119
122
124
125
126
125
122
113
102
89
76
62
48
36
25
13
2
-5
1
-19
-25
-28
-31
-33
-35
-36
-37
-37
-37
-37
-37
-38
-39
-38
-37
-38
-39
-38
-37
-37
-37
-37
-37
-37
-37
-36
-35
-36
-37
-37
-37
-36
-35
-35
-35
-36
-37
-37
-37
-37
-37
-37
-38
-39
-39
-39
-39
-39
-39
-39
-40
-41
-41
-41
-41
-41
-41
-41
-42
-43
-42
-41
-41
-41
-41
-41
-41
-41
-40
-37
-34
-30
-25
-23
-22
-21
-21
-17
-12
-7
-2
-3
-7
-10
-13
-9
-5
-7
-10
-17
-24
-34
-41
-41
-41
-41
-41
-41
-41
-41
-41
-41
-41
-41
-41
-41
-41
-40
-39
-39
-39
-39
-39
-39
-37
-34
-33
-32
-38
-48
-70
-93
-77
-95
40
139
272
393
395
370
176
-2
-104
-183
-188
-179
-134
-93
-63
-40
-29
-23
-22
-21
-21
-20
-18
-17
-17
-16
-14
-13
-13
-12
-10
-9
-9
-8
-6
-5
-4
-2
0
2
4
7
9
11
13
16
19
22
25
28
31
33
36
40
44
49
55
61
67
72
77
82
88
95
102
108
112
115
118
122
123
124
122
118
109
99
86
73
59
45
31
18
8
-3
-10
-17
-22
-27
-30
-33
-35
-37
-37
-37
-38
-39
-40
-41
-41
-41
-42
-43
-42
-41
-41
-41
-40
-39
-39
-39
-39
-39
-39
-39
-40
-40
-38
-37
-38
-39
-39
-39
-40
-41
-41
-41
-41
-41
-41
-43
-45
-45
-45
-44
-43
-43
-43
-44
-45
-45
-45
-46
-47
-47
-47
-47
-47
-47
-47
-46
-45
-45
-45
-45
-45
-44
-43
-43
-42
-40
-36
-32
-29
-26
-25
-26
-22
-17
-13
-9
-11
-13
-16
-19
-15
-11
-15
-21
-29
-36
-43
-47
-47
-47
-47
-47
-46
-45
-45
-46
-48
-49
-48
-47
-47
-47
-47
-47
-48
-48
-46
-45
-44
-43
-42
-41
-40
-46
-55
-76
-97
-83
-62
24
116
243
349
370
349
194
45
-90
-182
-191
-188
-165
-133
-90
-60
-43
-33
-29
-27
-26
-25
-24
-23
-23
-23
-22
-19
-16
-14
-12
-11
-10
-9
-8
-7
-7
-4
-3
-1
1
3
5
8
11
13
15
18
21
24
28
32
36
39
42
46
51
56
62
69
76
82
88
93
97
101
105
108
111
114
115
114
109
104
94
84
71
58
44
31
20
9
0
-10
-18
-25
-31
-36
-41
-45
-45
-45
-45
-45
-46
-47
-48
-49
-49
-49
-48
-47
-47
-47
-48
-49
-48
-47
-47
-47
-47
-47
-47
-47
-47
-47
-47
-47
-47
-47
-49
-50
-51
-50
-49
-49
-49
-50
-51
-50
-49
-50
-51
-51
-51
-51
-51
-52
-53
-53
-53
-53
-53
-53
-53
-54
-55
-54
-53
-54
-55
-55
-55
-54
-52
-50
-47
-44
-40
-36
-35
-35
-33
-33
-27
-21
-18
-15
-19
-23
-25
-26
-21
-17
-20
-26
-35
-43
-49
-53
-53
-53
-52
-51
-51
-51
-51
-51
-52
-53
-53
-53
-52
-51
-50
-49
-49
-44
-38
-31
-24
-21
-18
-15
-13
-17
-22
-40
-57
-62
-58
-4
65
185
293
370
385
262
120
-56
-168
-188
-188
-164
-128
-81
-49
-29
-18
-13
-10
-8
-7
-7
-7
-6
-5
-4
-3
-2
0
2
3
3
3
5
6
7
9
11
13
15
16
17
18
19
22
25
27
30
33
36
40
44
48
53
58
63
68
74
80
86
92
98
103
107
110
114
118
119
120
121
120
114
108
99
107
75
61
48
34
23
12
3
-6
-13
-20
-25
-29
-32
-35
-37
-39
-40
-41
-42
-43
-44
-45
-44
-43
-43
-43
-43
-43
-43
-43
-43
-42
-40
-39
-40
-41
-42
-43
-42
-41
-41
-41
-41
-41
-41
-41
-41
-41
-41
-42
-43
-43
-43
-43
-43
-43
-43
-44
-45
-46
-47
-47
-47
-46
-45
-46
-47
-48
-49
-48
-47
-47
-47
-46
-45
-46
-43
-38
-34
-30
-29
-29
-27
-23
-17
-11
-11
-11
-15
-19
-20
-21
-17
-13
-15
-20
-31
-40
-44
-47
-46
-45
-45
-45
-45
-45
-45
-45
-45
-45
-45
-45
-46
-47
-46
-45
-45
-44
-42
-41
-42
-43
-42
-40
-41
-37
-38
-59
-79
-85
-84
-27
44
178
298
373
400
302
174
-12
-143
-181
-195
-174
-142
-96
-63
-42
-31
-25
-23
-23
-22
-20
-19
-19
-19
-18
-16
-14
-13
-13
-12
-10
-8
-6
-4
-3
-1
1
3
5
7
9
11
13
14
15
18
22
26
30
33
36
40
45
50
56
62
67
72
78
84
91
98
103
107
111
114
116
118
119
119
113
106
94
82
68
53
39
25
14
3
-6
-14
-21
-27
-31
-35
-37
-39
-41
-43
-43
-43
-43
-43
-43
-43
-44
-45
-45
-45
-44
-43
-44
-45
-45
-45
-45
-45
-45
-45
-46
-47
-46
-45
-46
-46
-47
-43
-43
-44
-45
-44
-43
-44
-45
-45
-45
-45
-45
-46
-47
-47
-47
-48
-49
-50
-51
-51
-51
-51
-51
-51
-51
-51
-51
-51
-51
-50
-46
-41
-38
-36
-33
-30
-29
-30
-28
-24
-18
-13
-16
-19
-21
-23
-19
-15
-18
-22
-27
-33
-41
-47
-48
-49
-49
-49
-50
-51
-50
-49
-49
-49
-50
-51
-51
-51
-50
-49
-48
-47
-46
-45
-45
-45
-44
-42
-40
-43
-48
-72
-97
-90
-79
-2
81
211
328
379
389
240
90
-62
-174
-191
-192
-158
-121
-81
-51
-37
-29
-26
-25
-26
-26
-24
-23
-22
-21
-20
-19
-18
-16
-14
-13
-12
-11
-10
-9
-8
-5
-7
0
1
3
5
7
9
12
15
18
21
26
30
34
38
42
47
54
61
66
72
79
86
93
99
103
107
111
114
116
117
118
117
114
105
93
79
65
53
40
28
16
5
-5
-13
-21
-26
-31
-34
-37
-40
-43
-43
-43
-43
-43
-44
-45
-45
-45
-45
-45
-45
-45
-44
-43
-44
-45
-44
-43
-44
-45
-44
-43
-43
-43
-43
-43
-43
-43
-43
-43
-43
-43
-43
-42
-41
-41
-41
-41
-41
-42
-43
-42
-41
-42
-43
-43
-43
-43
-43
-43
-43
-43
-43
-44
-45
-45
-45
-45
-45
-44
-40
-35
-31
-28
-27
-27
-27
-26
-20
-14
-13
-12
-12
-11
-15
-15
-13
-11
-16
-22
-31
-39
-43
-47
-46
-45
-46
-47
-46
-45
-46
-47
-47
-47
-48
-49
-48
-47
-46
-45
-44
-43
-44
-45
-44
-42
-40
-39
-38
-49
-63
-83
-103
-67
-26
96
220
324
416
344
257
63
-107
-159
-196
-181
-157
-110
-71
-49
-33
-27
-23
-23
-23
-22
-20
-18
-17
-17
-17
-17
-16
-14
-12
-10
-9
-9
-8
-6
-4
-2
0
2
4
6
8
11
14
17
19
21
24
27
29
32
37
42
47
52
57
63
69
76
84
92
99
104
109
112
115
118
121
123
123
119
113
103
92
80
68
54
40
27
15
5
-4
-11
-5
-24
-29
-32
-35
-37
-39
-40
-41
-41
-41
-41
-41
-42
-43
-43
-43
-42
-41
-42
-43
-42
-41
-41
-41
-41
-41
-41
-41
-40
-39
-39
-39
-39
-39
-39
-39
-40
-40
-38
-37
-38
-39
-39
-39
-39
-39
-39
-40
-41
-42
-43
-43
-43
-43
-43
-42
-41
-41
-41
-42
-43
-42
-40
-37
-34
-31
-28
-26
-25
-24
-21
-17
-12
-8
-7
-8
-11
-14
-13
-10
-9
-9
-13
-19
-28
-37
-39
-41
-43
-45
-44
-43
-42
-41
-42
-43
-43
-43
-44
-45
-45
-45
-44
-43
-40
-39
-39
-39
-38
-37
-36
-35
-36
-49
-66
-79
-90
-48
9
132
266
341
409
274
413
-30
-181
-188
-193
-165
-135
-91
-52
-36
-23
-21
-19
-19
-19
-17
-15
-13
-11
-11
-11
-10
-8
-6
-5
-4
-2
1
3
3
4
6
9
12
14
16
17
18
22
26
30
34
37
39
43
47
53
59
65
72
78
84
91
98
104
110
114
118
123
127
128
129
129
127
122
113
102
90
76
62
46
33
21
11
2
-7
-15
-20
-24
-27
-30
-31
-32
-34
-37
-36
-35
-37
-39
-39
-39
-39
-39
-39
-39
-38
-37
-37
-37
-35
-33
-34
-35
-35
-35
-34
-33
-34
-35
-35
-35
-35
-35
-36
-37
-36
-35
-34
-33
-33
-33
-34
-35
-35
-35
-35
-35
-35
-36
-37
-38
-39
-38
-37
-38
-39
-38
-37
-38
-39
-38
-36
-32
-28
-25
-23
-23
-23
-22
-18
-12
-7
-3
-2
-4
-7
-10
-8
-4
-5
-8
-18
-29
-35
-40
-41
-41
-41
-41
-41
-41
-40
-39
-40
-41
-40
-39
-41
-43
-42
-41
-41
-41
-40
-39
-38
-37
-36
-34
-32
-34
-40
-53
-72
-68
-51
23
122
239
363
373
350
174
-33
-127
-206
-202
-190
-150
-109
-74
-41
-28
-17
-15
-13
-12
-11
-10
-9
-8
-7
-6
-5
-4
-3
-2
-1
1
3
4
5
6
8
10
12
15
17
18
19
20
23
26
31
36
40
44
48
52
56
53
66
71
77
83
90
97
104
109
115
119
122
125
126
127
126
123
117
108
96
82
65
51
37
25
14
3
-7
-15
-21
-26
-31
-35
-38
-39
-40
-41
-42
-43
-44
-45
-45
-45
-45
-44
-43
-43
-43
-44
-45
-45
-45
-44
-43
-43
-43
-43
-43
-42
-41
-41
-41
-42
-43
-42
-41
-42
-43
-43
-43
-43
-43
-43
-43
-42
-42
-44
-45
-44
-43
-43
-43
-44
-46
-49
-48
-47
-46
-45
-46
-47
-46
-45
-42
-38
-34
-31
-29
-27
-27
-25
-20
-16
-12
-10
-13
-16
-19
-19
-15
-14
-16
-23
-32
-40
-47
-49
-48
-47
-47
-47
-46
-45
-46
-47
-47
-47
-47
-47
-47
-48
-49
-47
-45
-44
-43
-43
-43
-42
-41
-40
-41
-47
-60
-83
-90
-79
-25
69
188
325
387
400
281
90
-49
-167
-197
-198
-163
-117
-83
-51
-37
-24
-23
-22
-21
-21
-20
-19
-18
-17
-16
-15
-13
-11
-11
-11
-9
-7
-5
-3
-2
-1
1
3
4
6
9
12
14
16
18
21
25
29
33
38
42
46
50
56
62
69
76
82
88
94
101
108
115
119
123
124
125
124
122
116
109
97
85
70
54
39
25
12
1
-8
-15
-20
-25
-30
-34
-36
-37
-38
-40
-42
-43
-43
-43
-43
-43
-43
-43
-44
-45
-45
-45
-45
-44
-43
-43
-43
-43
-43
-42
-41
-40
-39
-40
-41
-41
-41
-39
-37
-37
-37
-38
-39
-39
-39
-39
-39
-39
-39
-39
-39
-39
-39
-40
-41
-41
-41
-41
-41
-42
-43
-42
-41
-42
-42
-41
-40
-39
-34
-29
-25
-21
-22
-23
-20
-16
-11
-7
-7
-8
-12
-15
-14
-13
-11
-10
-13
-20
-30
-37
-41
-43
-42
-41
-41
-41
-41
-41
-41
-41
-41
-41
-42
-43
-43
-43
-45
-43
-41
-40
-39
-39
-39
-38
-37
-35
-34
-40
-51
-74
-88
-84
-49
35
149
302
386
399
296
90
-55
-155
-191
-187
-152
-102
-70
-45
-32
-23
-21
-20
-19
-18
-17
-17
-16
-17
-12
-11
-11
-11
-9
-7
-5
-3
-2
-1
1
3
5
7
9
11
13
16
19
21
24
26
29
33
37
41
45
49
53
60
68
76
83
90
97
103
108
114
120
124
128
131
133
131
129
123
116
103
89
72
56
41
27
17
6
-4
-12
-17
-23
-28
-31
-33
-35
-36
-37
-38
-39
-39
-39
-39
-39
-40
-41
-40
-39
-40
-41
-40
-39
-39
-39
-39
-39
-41
-40
-39
-38
-37
-37
-37
-37
-37
-36
-35
-34
-33
-34
-35
-36
-37
-36
-35
-36
-37
-37
-37
-37
-37
-37
-37
-37
-37
-38
-39
-39
-39
-38
-37
-38
-39
-38
-37
-38
-39
-39
-38
-39
-37
-35
-30
-25
-22
-19
-21
-23
-18
-14
-8
-3
-5
-8
-11
-13
-11
-9
-10
-14
-20
-27
-35
-39
-40
-41
-41
-41
-41
-41
-40
-39
-40
-41
-42
-43
-43
-43
-42
-41
-41
-40
-39
-39
-39
-39
-39
-36
-33
-34
-40
-60
-77
-85
-68
-2
92
229
334
398
364
230
80
-82
-163
-188
-176
-142
-104
-64
-43
-29
-25
-24
-23
-23
-23
-22
-21
-21
-21
-19
-18
-17
-15
-13
-12
-11
-9
-7
-6
-5
-3
-1
-1
0
3
6
10
14
17
19
22
24
26
29
35
40
45
50
55
62
69
77
85
91
98
103
108
112
116
121
117
127
127
122
117
106
95
81
67
52
38
24
11
2
-7
-15
-22
-28
-32
-35
-38
-41
-43
-44
-45
-45
-45
-45
-45
-45
-45
-45
-45
-45
-45
-45
-46
-48
-49
-48
-47
-46
-45
-45
-44
-43
-43
-43
-44
-45
-45
-45
-45
-45
-45
-45
-44
-43
-43
-43
-44
-45
-43
-42
-44
-45
-45
-45
-46
-47
-46
-46
-48
-49
-49
-49
-48
-47
-47
-47
-47
-47
-47
-47
-47
-47
-47
-47
-47
-46
-45
-45
-45
-46
-47
-45
-43
-40
-36
-33
-31
-29
-27
-26
-24
-19
-14
-7
-5
-9
-12
-15
-15
-11
-11
-14
-22
-33
-39
-44
-45
-45
-45
-45
-45
-45
-43
-43
-44
-45
-46
-47
-47
-47
-47
-47
-46
-45
-44
-43
-41
-39
-39
-39
-38
-44
-59
-75
-93
-78
-36
59
187
290
381
353
273
108
-85
-161
-207
-203
-187
-144
-96
-69
-44
-35
-27
-27
-27
-25
-23
-22
-21
-20
-19
-17
-15
-14
-13
-12
-11
-10
-9
-7
-4
-1
2
4
5
6
8
10
13
17
20
22
26
30
33
36
42
48
53
58
65
72
79
87
94
101
106
111
116
121
124
127
128
129
127
123
115
105
92
77
62
48
34
22
11
0
-10
-19
-26
-31
-35
-39
-42
-43
-43
-43
-43
-43
-44
-46
-48
-49
-49
-48
-49
-45
-45
-46
-47
-48
-49
-47
-45
-45
-45
-45
-45
-46
-47
-46
-45
-45
-45
-45
-45
-46
-47
-46
-45
-46
-47
-47
-47
-46
-45
-46
-47
-47
-47
-47
-47
-48
-49
-49
-49
-48
-48
-49
-49
-49
-47
-45
-47
-49
-49
-49
-49
-49
-47
-45
-44
-42
-37
-33
-31
-29
-30
-29
-25
-20
-12
-9
-10
-13
-17
-19
-18
-17
-17
-20
-24
-33
-43
-45
-45
-45
-46
-47
-47
-47
-47
-47
-47
-48
-49
-49
-49
-48
-47
-46
-45
-44
-43
-43
-43
-42
-41
-40
-39
-38
-41
-51
-66
-85
-72
-39
52
171
283
393
343
242
61
-138
-190
-218
-201
-179
-131
-177
-59
-37
-31
-25
-22
-19
-18
-17
-16
-15
-13
-11
-11
-11
-9
-7
-6
-5
-3
-1
2
3
4
5
6
8
11
15
18
21
24
26
28
31
34
38
42
48
54
58
62
69
75
82
89
96
103
109
115
119
123
126
129
131
133
132
129
122
112
97
83
69
54
38
25
12
2
-7
-14
-21
-25
-28
-30
-32
-35
-38
-39
-40
-41
-41
-41
-42
-43
-43
-43
-43
-43
-43
-43
-43
-42
-41
-41
-41
-41
-41
-40
-39
-40
-41
-40
-39
-38
-37
-38
-39
-39
-39
-38
-37
-37
-37
-37
-37
-38
-39
-39
-39
-40
-41
-41
-41
-41
-41
-41
-40
-39
-40
-41
-42
-43
-42
-41
-41
-41
-41
-41
-41
-41
-41
-41
-41
-41
-41
-41
-41
-41
-40
-39
-39
-39
-38
-37
-36
-33
-29
-24
-19
-18
-20
-19
-16
-9
-2
-1
-1
-6
-11
-8
-5
-5
-5
-11
-18
-29
-37
-38
-39
-39
-39
-38
-37
-37
-37
-38
-39
-38
-37
-37
-37
-38
-39
-38
-36
-34
-33
-33
-33
-32
-31
-30
-35
-43
-65
-89
-70
-46
67
182
305
421
410
377
173
-14
-115
-195
-194
-181
-133
-90
-58
-35
-26
-21
-20
-19
-18
-17
-14
-13
-13
-13
-12
-10
-8
-7
-6
-5
-4
-2
0
1
2
4
6
7
8
11
9
17
19
21
23
26
29
32
35
39
43
48
52
57
63
71
79
86
94
101
107
114
119
124
129
133
135
135
134
132
126
119
108
94
79
64
50
37
25
14
5
-4
-13
-21
-25
-29
-31
-33
-34
-35
-36
-37
-38
-39
-39
-39
-39
-39
-39
-39
-40
-41
-40
-39
-40
-41
-41
-41
-41
-41
-41
-41
-40
-39
-39
-39
-40
-40
-38
-37
-37
-37
-37
-37
-39
-39
-39
-38
-37
-37
-37
-37
-37
-38
-39
-39
-39
-40
-41
-41
-41
-40
-39
-39
-39
-39
-39
-39
-39
-39
-39
-39
-39
-39
-39
-39
-39
-39
-39
-38
-37
-37
-36
-34
-29
-33
-20
-17
-18
-19
-15
-10
-3
3
2
0
-6
-11
-8
-5
-4
-6
-14
-22
-32
-37
-40
-41
-40
-39
-39
-39
-39
-39
-39
-39
-39
-39
-39
-39
-39
-39
-39
-39
-38
-37
-36
-35
-35
-33
-31
-34
-39
-63
-83
-77
-54
36
139
277
383
416
379
215
58
-87
-173
-186
-172
-129
-90
-54
-33
-22
-17
-16
-15
-16
-17
-16
-15
-14
-12
-10
-9
-9
-8
-6
-4
-1
0
1
1
1
3
5
7
9
12
15
17
19
21
23
25
28
32
36
40
44
49
53
57
63
70
77
84
91
97
104
111
117
123
128
132
134
136
137
137
132
137
113
101
85
70
55
40
27
16
5
-4
-11
-18
-23
-27
-29
-31
-32
-33
-35
-37
-38
-39
-39
-39
-39
-39
-40
-41
-41
-41
-41
-41
-41
-41
-41
-41
-41
-41
-41
-41
-40
-40
-41
-41
-41
-41
-41
-40
-39
-39
-39
-39
-39
-39
-39
-38
-37
-38
-39
-39
-39
-39
-39
-39
-39
-40
-41
-42
-43
-42
-41
-41
-41
-41
-41
-42
-43
-42
-41
-41
-41
-41
-41
-41
-40
-39
-39
-39
-39
-39
-40
-41
-39
-37
-37
-37
-34
-30
-25
-21
-20
-19
-17
-13
-6
-1
3
3
-1
-4
-6
-5
-2
-4
-9
-18
-29
-34
-38
-39
-39
-39
-39
-39
-39
-38
-39
-40
-41
-41
-41
-40
-39
-39
-39
-39
-39
-38
-37
-37
-37
-35
-33
-33
-39
-52
-67
-85
-78
-50
24
129
244
366
382
351
191
-13
-114
-189
-192
-181
-135
-85
-59
-36
-27
-19
-20
-21
-20
-19
-16
-13
-11
-9
-9
-9
-8
-7
-6
-5
-3
-1
0
2
5
7
8
10
12
14
16
19
23
26
28
31
34
37
40
44
48
53
58
62
66
72
79
86
93
100
107
113
119
123
127
130
133
135
137
136
132
123
112
99
85
71
57
42
29
17
7
-1
-9
-16
-21
-25
-29
-32
-34
-36
-37
-37
-37
-38
-39
-39
-39
-39
-41
-41
-40
-39
-41
-43
-42
-41
-41
-41
-40
-39
-39
-39
-40
-41
-40
-39
-40
-41
-40
-39
-40
-41
-40
-39
-39
-39
-39
-39
-39
-39
-39
-39
-40
-41
-42
-43
-42
-41
-41
-41
-41
-42
-43
-43
-43
-42
-41
-41
-41
-40
-39
-39
-39
-37
-34
-31
-28
-25
-23
-22
-20
-18
-14
-8
-5
-6
-10
-15
-15
-12
-11
-11
-15
-20
-29
-39
-41
-42
-43
-43
-43
-43
-42
-41
-43
-45
-44
-43
-43
-43
-42
-41
-42
-43
-43
-43
-42
-41
-39
-37
-36
-35
-34
-37
-47
-61
-78
-73
-54
13
103
215
336
363
360
199
1
-107
-202
-206
-200
-159
-199
-81
-47
-35
-23
-20
-17
-17
-17
-15
-13
-12
-11
-10
-9
-9
-9
-7
-5
-4
-2
1
4
6
7
8
10
12
14
16
19
23
25
26
30
34
37
40
45
50
54
58
65
71
77
83
90
98
106
113
117
121
124
128
132
135
135
134
130
123
112
99
85
70
54
40
27
15
4
-5
-12
-19
-25
-29
-32
-35
-38
-39
-40
-41
-42
-43
-43
-43
-45
-44
-43
-43
-43
-44
-45
-45
-45
-44
-43
-44
-45
-44
-43
-44
-44
-41
-39
-40
-41
-40
-39
-40
-41
-41
-41
-41
-41
-41
-41
-42
-43
-42
-41
-41
-41
-42
-43
-43
-43
-43
-43
-43
-44
-45
-45
-45
-45
-45
-44
-43
-43
-43
-43
-43
-42
-41
-40
-39
-40
-40
-37
-33
-28
-25
-24
-23
-22
-19
-15
-10
-5
-6
-10
-13
-16
-15
-12
-11
-12
-23
-34
-39
-43
-44
-45
-44
-43
-42
-41
-42
-43
-43
-43
-44
-45
-45
-45
-44
-43
-42
-41
-40
-39
-39
-39
-38
-37
-36
-35
-36
-51
-71
-77
-77
-25
43
166
302
369
426
303
164
-5
-173
-189
-204
-172
-138
-92
-51
-37
-25
-23
-21
-20
-19
-19
-18
-15
-13
-13
-13
-12
-11
-8
-7
-6
-5
-4
-2
1
3
3
5
8
10
12
14
16
19
22
25
28
32
29
41
45
49
53
59
65
72
78
85
92
99
106
112
118
122
126
129
131
131
130
125
119
111
99
85
70
55
41
27
16
6
-3
-11
-17
-22
-26
-30
-32
-34
-35
-36
-37
-37
-39
-41
-40
-39
-39
-39
-40
-41
-41
-41
-41
-41
-41
-41
-40
-39
-40
-41
-40
-39
-39
-39
-39
-39
-39
-39
-38
-37
-38
-39
-38
-37
-37
-37
-37
-37
-37
-37
-38
-39
-39
-39
-39
-40
-41
-40
-39
-41
-43
-42
-41
-41
-41
-41
-41
-41
-41
-41
-41
-40
-39
-39
-39
-39
-39
-38
-34
-28
-24
-22
-22
-24
-22
-18
-13
-6
-5
-5
-8
-12
-13
-13
-9
-7
-11
-16
-27
-37
-39
-41
-40
-39
-40
-41
-40
-39
-39
-39
-39
-39
-39
-39
-40
-41
-40
-39
-38
-37
-36
-35
-35
-34
-32
-31
-30
-37
-47
-68
-90
-77
-59
52
169
294
417
395
359
155
-36
-124
-196
-190
-174
-122
-77
-51
-31
-23
-17
-18
-19
-18
-17
-16
-14
-12
-11
-10
-9
-9
-8
-6
-4
-2
-1
0
1
2
5
8
9
10
12
14
16
19
23
27
30
33
36
39
42
46
52
58
63
69
76
82
87
94
102
110
117
122
127
130
132
133
132
128
123
113
101
86
69
55
40
28
17
7
-4
-11
-18
-22
-19
-30
-33
-35
-37
-38
-39
-39
-39
-40
-41
-41
-41
-41
-41
-40
-39
-39
-39
-40
-41
-41
-41
-41
-41
-40
-39
-39
-39
-39
-39
-39
-39
-39
-39
-39
-39
-38
-37
-37
-37
-37
-37
-37
-38
-39
-39
-39
-39
-39
-40
-41
-41
-41
-42
-43
-42
-41
-41
-41
-41
-41
-41
-41
-41
-41
-41
-41
-42
-42
-38
-34
-29
-25
-22
-23
-26
-23
-18
-12
-6
-6
-8
-12
-17
-14
-11
-11
-11
-18
-26
-35
-43
-44
-45
-44
-43
-43
-43
-44
-45
-43
-41
-42
-43
-44
-45
-45
-45
-44
-43
-42
-41
-41
-41
-41
-41
-40
-38
-36
-47
-61
-81
-102
-70
-103
84
204
315
413
370
305
103
-74
-144
-197
-188
-168
-119
-77
-53
-35
-28
-23
-24
-25
-25
-24
-22
-20
-18
-17
-17
-17
-16
-14
-12
-10
-8
-7
-7
-7
-6
-3
0
2
4
8
11
13
15
17
19
23
27
30
33
37
42
48
55
62
69
76
83
88
94
102
108
111
115
119
121
122
123
122
117
109
98
86
72
58
44
29
16
3
-8
-18
-24
-31
-34
-37
-40
-43
-45
-47
-48
-49
-49
-49
-49
-49
-49
-49
-49
-49
-49
-49
-49
-49
-49
-49
-49
-49
-49
-49
-49
-49
-50
-51
-50
-48
-46
-45
-46
-47
-47
-47
-48
-49
-49
-48
-47
-49
-51
-51
-51
-51
-51
-51
-51
-52
-53
-52
-51
-51
-51
-51
-51
-52
-53
-54
-55
-54
-53
-52
-51
-51
-51
-51
-47
-41
-38
-36
-35
-35
-34
-32
-27
-22
-19
-16
-19
-23
-24
-25
-22
-19
-23
-28
-40
-49
-52
-55
-54
-53
-53
-53
-53
-53
-53
-53
-54
-55
-54
-53
-54
-55
-55
-54
-52
-51
-51
-51
-50
-49
-49
-49
-48
-54
-62
-80
-100
-76
-48
59
166
283
381
320
239
41
-128
-183
-221
-204
-179
-137
-100
-74
-53
-42
-35
-34
-33
-30
-29
-29
-28
-26
-24
-22
-21
-21
-21
-20
-18
-16
-14
-12
-10
-8
-7
-7
-4
-7
3
5
8
11
14
17
19
21
27
31
36
40
46
53
60
68
76
83
88
93
98
103
107
110
113
116
118
117
114
106
96
84
72
56
40
27
15
4
-6
-15
-24
-30
-35
-40
-45
-48
-51
-53
-55
-55
-55
-55
-55
-54
-53
-54
-55
-55
-55
-54
-53
-53
-53
-53
-53
-53
-53
-53
-53
-53
-53
-52
-51
-52
-53
-53
-53
-52
-51
-52
-53
-52
-51
-53
-53
-53
-53
-53
-53
-53
-55
-57
-56
-55
-54
-53
-54
-55
-56
-57
-56
-55
-55
-55
-55
-55
-56
-56
-54
-53
-52
-49
-45
-41
-36
-36
-38
-35
-30
-24
-18
-17
-18
-23
-19
-26
-23
-23
-23
-29
-36
-46
-55
-56
-57
-56
-55
-55
-55
-54
-53
-53
-53
-54
-55
-56
-57
-56
-55
-55
-55
-54
-53
-52
-51
-51
-50
-48
-47
-46
-55
-67
-83
-99
-67
-30
99
227
321
399
295
180
-10
-172
-203
-222
-196
-165
-118
-79
-57
-41
-35
-31
-30
-29
-27
-25
-24
-23
-22
-21
-20
-19
-18
-16
-14
-13
-12
-10
-8
-6
-4
-2
0
1
2
5
9
12
15
18
21
24
27
30
33
37
42
48
54
60
67
73
79
85
92
99
104
107
110
113
115
116
117
117
113
106
95
84
72
60
46
32
19
7
-4
-14
-20
-15
-31
-35
-38
-41
-44
-47
-46
-45
-46
-47
-48
-49
-50
-51
-49
-47
-47
-47
-47
-47
-48
-48
-46
-45
-45
-45
-46
-47
-46
-45
-45
-45
-44
-43
-43
-43
-43
-43
-43
-43
-43
-43
-43
-44
-45
-45
-45
-45
-45
-45
-45
-46
-47
-46
-45
-45
-45
-46
-47
-47
-47
-47
-47
-46
-45
-45
-45
-45
-42
-35
-31
-28
-27
-28
-27
-24
-18
-10
-9
-10
-14
-18
-19
-17
-16
-15
-19
-24
-34
-43
-45
-47
-47
-47
-47
-47
-47
-47
-47
-47
-47
-47
-47
-47
-47
-47
-47
-47
-46
-45
-44
-43
-43
-42
-40
-40
-42
-60
-81
-88
-92
-41
18
148
21
367
443
315
183
5
-152
-178
-193
-157
-119
-76
-42
-28
-19
-17
-15
-14
-13
-14
-15
-14
-12
-9
-7
-7
-6
-4
-3
-2
0
2
3
4
5
6
7
8
10
12
15
18
21
23
27
31
33
35
39
43
47
51
55
60
66
73
80
87
93
99
104
109
114
118
121
124
126
126
123
118
113
102
87
73
59
44
30
17
5
-4
-12
-19
-26
-31
-37
-38
-39
-41
-43
-43
-43
-44
-45
-45
-45
-45
-45
-45
-45
-46
-47
-45
-43
-44
-45
-45
-45
-45
-45
-45
-45
-45
-45
-45
-45
-44
-43
-42
-41
-41
-41
-42
-43
-43
-43
-43
-42
-41
-42
-43
-45
-47
-46
-45
-45
-45
-45
-45
-46
-47
-47
-47
-45
-43
-44
-45
-46
-47
-46
-43
-39
-35
-31
-29
-28
-27
-27
-24
-19
-15
-12
-14
-18
-19
-20
-18
-14
-17
-21
-29
-37
-44
-51
-50
-49
-48
-47
-48
-49
-49
-49
-49
-49
-49
-49
-50
-51
-50
-49
-49
-49
-48
-47
-47
-47
-46
-45
-44
-49
-58
-80
-104
-89
-65
40
155
285
416
379
332
123
-77
-145
-206
-196
-179
-128
-83
-60
-42
-35
-29
-29
-29
-28
-27
-26
-25
-24
-23
-20
-19
-18
-17
-16
-14
-12
-11
-10
-8
-6
-4
-2
0
2
4
6
8
10
13
11
20
23
26
29
33
37
42
47
53
58
64
71
79
87
93
99
105
110
114
117
120
121
121
120
117
109
99
86
72
58
45
32
18
7
-3
-12
-21
-26
-30
-34
-38
-41
-43
-45
-47
-47
-47
-47
-47
-47
-47
-48
-49
-48
-47
-46
-45
-46
-47
-47
-47
-47
-47
-47
-47
-46
-45
-46
-47
-47
-47
-46
-45
-45
-45
-46
-47
-46
-45
-45
-45
-45
-45
-45
-45
-45
-45
-45
-45
-45
-46
-47
-47
-47
-47
-47
-47
-47
-49
-51
-49
-47
-46
-45
-46
-47
-47
-46
-43
-38
-33
-30
-28
-27
-28
-26
-20
-15
-10
-10
-12
-15
-18
-16
-19
-15
-19
-29
-39
-43
-47
-47
-47
-47
-47
-47
-47
-46
-45
-46
-47
-47
-47
-47
-47
-48
-48
-46
-45
-44
-43
-42
-41
-40
-39
-39
-48
-62
-81
-101
-77
-43
61
173
288
403
380
349
143
-53
-130
-199
-193
-180
-135
-94
-67
-45
-33
-25
-25
-25
-24
-23
-22
-21
-19
-17
-16
-15
-14
-13
-12
-10
-8
-7
-6
-4
-2
-1
0
2
4
6
8
12
16
18
21
25
29
32
35
39
43
48
54
60
66
72
78
84
90
95
101
106
111
116
120
125
127
128
127
121
113
103
90
76
60
45
33
22
11
1
-8
-16
-23
-30
-32
-31
-36
-37
-39
-41
-43
-45
-45
-45
-44
-43
-43
-43
-44
-45
-44
-43
-43
-43
-43
-43
-44
-45
-44
-43
-42
-41
-41
-41
-42
-43
-43
-43
-42
-41
-40
-39
-40
-41
-41
-40
-38
-40
-43
-43
-43
-43
-43
-43
-43
-44
-45
-44
-43
-44
-45
-44
-43
-43
-43
-44
-45
-44
-43
-42
-41
-41
-40
-38
-35
-31
-27
-24
-23
-24
-21
-16
-10
-4
-5
-8
-13
-18
-16
-11
-13
-15
-22
-29
-36
-43
-44
-45
-44
-43
-43
-43
-42
-41
-43
-45
-44
-43
-44
-45
-44
-43
-43
-43
-43
-42
-40
-39
-38
-37
-36
-40
-47
-66
-87
-77
-61
19
106
240
111
368
350
141
-56
-140
-212
-201
-185
-148
-111
-74
-43
-29
-19
-18
-17
-16
-15
-14
-13
-13
-12
-9
-7
-6
-5
-4
-3
-2
-1
0
3
6
7
8
10
12
16
20
21
22
25
27
30
33
37
41
46
51
57
62
68
75
83
90
97
103
110
116
120
124
127
130
132
132
130
126
120
110
99
86
73
60
48
36
24
14
5
-3
-10
-16
-22
-27
-33
-34
-35
-36
-37
-38
-39
-41
-43
-42
-41
-40
-39
-40
-41
-42
-43
-41
-39
-39
-39
-39
-39
-40
-40
-38
-37
-37
-37
-37
-37
-38
-39
-38
-37
-37
-37
-38
-39
-39
-39
-39
-38
-39
-40
-41
-43
-45
-43
-41
-42
-43
-43
-43
-44
-45
-44
-43
-44
-45
-45
-45
-45
-45
-44
-43
-42
-41
-41
-38
-33
-29
-26
-25
-24
-23
-23
-18
-12
-9
-6
-9
-14
-15
-15
-12
-9
-13
-18
-30
-41
-43
-45
-46
-47
-45
-43
-43
-43
-42
-41
-42
-43
-43
-43
-42
-41
-42
-43
-43
-42
-40
-39
-38
-36
-34
-34
-36
-53
-74
-78
-80
-6
76
217
359
386
401
229
60
-82
-203
-203
-197
-163
-128
-88
-55
-38
-26
-23
-21
-19
-17
-16
-15
-15
-15
-15
-14
-12
-10
-8
-7
-6
-4
-2
1
4
5
6
8
10
11
12
15
13
22
25
27
29
32
35
40
45
49
54
59
64
70
77
83
89
95
101
107
112
115
119
124
128
130
130
127
121
114
104
92
79
64
51
38
25
13
4
-4
-10
-16
-22
-27
-30
-33
-34
-35
-36
-37
-37
-37
-39
-41
-40
-39
-38
-37
-37
-37
-38
-39
-38
-37
-37
-37
-37
-37
-38
-38
-36
-35
-35
-35
-35
-35
-36
-37
-36
-35
-34
-33
-34
-35
-37
-37
-37
-36
-35
-37
-39
-39
-39
-39
-39
-39
-39
-39
-39
-41
-43
-42
-41
-41
-41
-41
-41
-41
-41
-40
-39
-38
-37
-37
-35
-30
-26
-20
-19
-20
-19
-16
-11
-6
-5
-5
-9
-13
-12
-11
-10
-9
-13
-18
-29
-37
-40
-43
-43
-43
-41
-39
-40
-41
-41
-41
-41
-41
-41
-41
-40
-39
-39
-39
-39
-39
-39
-39
-38
-36
-34
-34
-36
-56
-77
-82
-86
-21
49
188
322
393
439
311
174
-7
-155
-183
-198
-169
-134
-86
-50
-35
-25
-23
-21
-21
-20
-18
-16
-14
-13
-13
-12
-10
-8
-6
-5
-5
-5
-4
-2
0
2
4
6
8
9
11
14
17
20
23
26
29
32
36
42
48
52
56
60
65
72
79
85
91
97
103
110
115
119
123
129
132
134
134
132
126
119
107
94
81
67
54
41
28
16
7
15
-10
-17
-22
-27
-31
-35
-34
-33
-34
-35
-36
-37
-38
-39
-39
-39
-38
-37
-38
-39
-40
-41
-40
-39
-38
-37
-37
-37
-37
-37
-37
-37
-36
-35
-36
-37
-37
-37
-36
-35
-35
-35
-35
-36
-37
-37
-37
-37
-37
-38
-39
-40
-41
-41
-41
-41
-41
-41
-41
-42
-43
-42
-41
-41
-41
-42
-43
-43
-43
-42
-41
-41
-41
-41
-41
-41
-41
-40
-39
-38
-37
-38
-39
-39
-35
-31
-26
-21
-21
-21
-20
-18
-12
-6
0
4
-1
-6
-10
-11
-5
-2
-6
-13
-22
-30
-36
-39
-39
-39
-39
-39
-38
-37
-38
-39
-39
-39
-39
-39
-39
-39
-39
-39
-39
-36
-35
-35
-35
-34
-33
-35
-41
-66
-85
-84
-60
21
126
278
385
419
365
188
30
-107
-178
-190
-172
-131
-94
-58
-38
-27
-23
-22
-21
-20
-19
-18
-17
-16
-15
-14
-13
-12
-10
-9
-9
-9
-6
-3
-2
-1
0
1
2
3
5
8
12
15
16
18
21
24
27
30
33
37
42
46
49
54
61
67
75
81
87
93
99
106
112
117
122
124
126
127
125
121
117
109
100
86
71
57
43
31
19
9
-1
-9
-17
-23
-28
-31
-33
-34
-35
-36
-37
-37
-38
-40
-41
-40
-39
-39
-39
-40
-41
-40
-39
-40
-41
-41
-41
-41
-41
-41
-41
-39
-40
-41
-42
-43
-42
-41
-41
-41
-41
-41
-42
-43
-42
-41
-41
-41
-42
-43
-44
-45
-44
-43
-43
-43
-44
-45
-45
-45
-45
-45
-45
-45
-45
-45
-46
-47
-46
-45
-45
-46
-47
-46
-45
-44
-43
-38
-33
-30
-27
-26
-25
-24
-21
-14
-8
-3
0
-3
-5
-7
-8
-5
-5
-10
-19
-29
-34
-38
-39
-39
-39
-40
-41
-41
-41
-41
-41
-41
-41
-42
-43
-43
-43
-43
-42
-41
-41
-41
-40
-39
-38
-37
-36
-38
-50
-66
-86
-90
-67
-10
88
200
325
380
370
255
65
-65
-160
-191
-190
-160
-119
-84
-52
-36
-25
-23
-24
-25
-25
-24
-25
-19
-17
-18
-19
-18
-17
-15
-13
-11
-9
-7
-5
-5
-5
-4
-2
1
3
4
6
9
12
15
18
21
25
29
33
37
41
45
50
55
61
68
74
80
88
96
101
106
111
115
117
119
120
121
117
111
99
87
73
60
47
33
20
8
-2
-12
-20
-27
-32
-36
-39
-42
-45
-47
-48
-49
-49
-49
-49
-49
-49
-50
-52
-53
-52
-51
-50
-49
-50
-51
-51
-50
-49
-49
-49
-50
-51
-51
-51
-51
-51
-49
-47
-48
-49
-49
-49
-49
-49
-50
-51
-50
-49
-49
-50
-52
-53
-53
-53
-54
-55
-54
-53
-53
-53
-53
-53
-53
-53
-53
-53
-53
-53
-53
-53
-53
-54
-55
-53
-51
-49
-46
-41
-37
-35
-33
-34
-34
-30
-25
-20
-17
-18
-21
-25
-26
-23
-21
-22
-28
-36
-44
-51
-53
-53
-53
-54
-55
-55
-54
-52
-51
-52
-54
-55
-54
-53
-53
-53
-53
-53
-52
-51
-51
-51
-49
-47
-46
-45
-46
-53
-68
-83
-96
-84
-44
36
149
255
358
344
264
103
-96
-176
-214
-207
-185
-142
-95
-71
-49
-41
-34
-33
-33
-30
-27
-26
-25
-25
-25
-24
-23
-20
-17
-16
-15
-14
-13
-12
-11
-9
-6
-3
-1
0
2
4
7
11
14
17
21
24
27
30
34
40
45
52
58
64
69
74
81
75
94
99
104
109
113
117
118
119
118
116
111
104
92
79
64
50
34
20
7
-4
-11
-18
-24
-29
-35
-38
-40
-43
-46
-47
-47
-47
-47
-48
-50
-51
-51
-50
-48
-47
-47
-47
-47
-48
-49
-49
-49
-49
-49
-48
-47
-47
-47
-47
-47
-47
-47
-46
-45
-47
-49
-49
-49
-48
-47
-48
-49
-49
-49
-50
-51
-51
-51
-51
-51
-51
-51
-51
-51
-52
-53
-53
-53
-53
-52
-51
-50
-49
-50
-51
-51
-51
-51
-51
-51
-51
-48
-44
-40
-36
-33
-31
-31
-29
-24
-19
-14
-12
-15
-18
-21
-22
-20
-19
-19
-25
-33
-41
-49
-51
-50
-49
-50
-51
-51
-49
-49
-49
-49
-50
-51
-50
-49
-49
-49
-49
-49
-49
-49
-48
-47
-46
-45
-43
-41
-41
-45
-54
-70
-91
-85
-62
10
108
223
346
376
374
214
13
-101
-200
-206
-200
-162
-122
-87
-53
-42
-31
-29
-27
-26
-25
-24
-23
-22
-21
-19
-17
-16
-15
-14
-13
-11
-9
-8
-6
-3
-1
-1
0
2
4
6
9
13
16
18
21
24
26
28
32
36
41
46
50
55
62
69
76
83
90
97
102
107
111
115
118
121
121
120
115
107
97
85
71
57
42
29
17
6
-3
-10
-16
-22
-27
-31
-36
-37
-38
-39
-40
-41
-41
-41
-42
-43
-43
-43
-43
-44
-45
-44
-43
-43
-43
-44
-45
-44
-43
-44
-45
-44
-43
-43
-43
-42
-41
-44
-45
-44
-43
-43
-43
-42
-42
-44
-45
-45
-45
-45
-45
-45
-45
-46
-47
-47
-47
-46
-45
-45
-46
-47
-46
-45
-45
-45
-46
-47
-46
-45
-45
-45
-44
-43
-42
-39
-34
-30
-27
-25
-26
-26
-23
-18
-13
-11
-11
-13
-16
-17
-16
-15
-14
-16
-20
-29
-38
-42
-46
-47
-47
-46
-45
-45
-45
-44
-43
-44
-45
-45
-45
-44
-43
-44
-45
-45
-45
-44
-43
-42
-41
-40
-39
-38
-45
-59
-76
-94
-76
-38
53
166
278
390
389
361
183
-19
-112
-193
-192
-197
-135
-86
-62
-39
-32
-25
-24
-23
-22
-21
-20
-19
-18
-17
-16
-15
-13
-11
-10
-9
-8
-7
-6
-4
-1
1
2
4
6
8
10
13
16
19
22
25
28
32
36
41
46
51
55
60
65
72
79
85
91
97
102
107
112
116
119
121
123
123
121
115
106
95
83
70
56
41
28
16
6
-4
-12
-20
-26
-30
-33
-36
-37
-38
-39
-40
-41
-42
-43
-43
-43
-43
-43
-43
-43
-43
-42
-41
-41
-41
-41
-41
-41
-41
-42
-43
-42
-41
-40
-39
-39
-39
-39
-39
-39
-39
-39
-39
-39
-39
-39
-39
-40
-41
-41
-41
-40
-39
-40
-41
-41
-41
-41
-42
-43
-43
-43
-43
-43
-43
-43
-42
-41
-42
-43
-42
-41
-41
-41
-41
-41
-41
-39
-35
-31
-27
-24
-22
-21
-21
-17
-11
-7
-4
-6
-10
-12
-14
-12
-8
-8
-10
-21
-31
-36
-41
-41
-41
-40
-39
-40
-41
-41
-41
-40
-39
-40
-41
-41
-41
-41
-41
-40
-39
-38
-37
-38
-38
-36
-34
-32
-37
-46
-65
-88
-81
-64
27
133
259
388
399
398
210
18
-86
-183
-184
-180
-133
-89
-62
-38
-28
-21
-21
-21
-21
-21
-19
-17
-16
-15
-13
-11
-10
-9
-8
-6
-4
-3
-2
-1
0
2
4
7
10
11
12
15
18
20
22
26
23
34
37
41
45
48
51
58
64
71
78
84
90
96
103
109
114
118
122
125
127
127
126
124
118
109
97
84
69
54
41
29
18
8
-1
-9
-17
-24
-26
-28
-30
-32
-34
-35
-35
-35
-36
-37
-37
-37
-38
-39
-39
-39
-39
-39
-38
-37
-37
-37
-37
-37
-37
-37
-36
-35
-36
-37
-37
-37
-37
-37
-36
-35
-35
-36
-38
-39
-39
-39
-39
-39
-39
-39
-39
-39
-39
-39
-39
-40
-41
-41
-41
-41
-41
-41
-41
-41
-41
-41
-41
-40
-39
-39
-39
-40
-41
-41
-41
-40
-37
-33
-29
-25
-23
-23
-23
-22
-17
-12
-9
-6
-5
-6
-10
-7
-11
-7
-9
-11
-19
-28
-35
-41
-41
-41
-41
-41
-42
-43
-42
-41
-41
-41
-40
-39
-40
-41
-40
-39
-39
-39
-39
-39
-39
-38
-36
-35
-34
-38
-45
-66
-88
-79
-64
25
119
250
377
378
365
177
1
-103
-189
-187
-177
-137
-99
-66
-40
-27
-19
-18
-17
-18
-19
-17
-14
-11
-9
-9
-9
-9
-8
-6
-5
-4
-3
-2
0
2
4
6
8
10
13
16
17
19
22
25
29
33
35
37
41
46
52
58
63
68
73
79
85
91
97
103
108
112
117
120
123
125
126
127
126
119
110
98
85
71
58
44
30
19
8
-2
-12
-16
-13
-25
-29
-32
-35
-37
-39
-39
-39
-39
-39
-40
-41
-41
-41
-39
-37
-38
-39
-39
-39
-39
-39
-38
-37
-37
-37
-37
-37
-38
-39
-39
-39
-38
-37
-38
-39
-38
-37
-38
-39
-40
-40
-39
-39
-39
-40
-41
-42
-43
-43
-43
-43
-43
-43
-43
-43
-43
-44
-45
-45
-45
-44
-43
-43
-43
-43
-43
-43
-41
-37
-33
-29
-26
-24
-23
-24
-20
-14
-10
-6
-7
-10
-14
-19
-15
-11
-13
-15
-22
-30
-37
-43
-43
-43
-44
-45
-44
-43
-44
-45
-44
-43
-44
-45
-45
-45
-45
-45
-44
-43
-42
-41
-41
-41
-40
-39
-38
-38
-40
-55
-73
-79
-84
-18
-85
181
305
356
389
232
77
-71
-192
-201
-203
-177
-145
-102
-67
-46
-31
-25
-21
-20
-19
-19
-17
-13
-11
-11
-11
-10
-9
-9
-7
-4
-3
-2
0
2
3
3
5
8
10
12
15
17
20
23
25
27
31
35
41
45
47
50
56
62
69
75
81
87
92
98
105
111
115
118
121
124
126
127
127
125
121
110
98
84
70
57
45
33
20
10
0
-8
-17
-21
-25
-28
-31
-34
-37
-38
-39
-40
-41
-41
-41
-41
-41
-41
-41
-40
-39
-39
-39
-40
-41
-40
-39
-38
-37
-38
-39
-38
-37
-37
-37
-38
-39
-38
-37
-38
-39
-39
-39
-39
-38
-37
-38
-39
-40
-41
-42
-43
-43
-43
-44
-45
-45
-45
-44
-43
-43
-43
-42
-41
-42
-43
-43
-43
-43
-43
-42
-41
-42
-41
-38
-34
-29
-26
-24
-23
-24
-21
-16
-10
-4
-5
-7
-12
-17
-13
-9
-10
-12
-20
-28
-36
-43
-42
-41
-42
-43
-42
-41
-41
-41
-41
-41
-42
-43
-43
-43
-42
-41
-40
-39
-38
-37
-37
-37
-37
-35
-32
-36
-42
-63
-86
-75
-60
35
133
263
379
384
359
161
-17
-120
-196
-192
-179
-144
-108
-71
-42
-29
-21
-19
-17
-16
-15
-14
-13
-12
-11
-10
-9
-8
-7
-6
-4
-2
-1
0
3
6
7
8
10
9
15
17
19
21
23
25
29
33
36
39
44
48
52
57
63
69
75
81
87
93
100
105
110
115
119
122
124
125
126
126
124
117
109
95
80
65
49
39
30
20
10
2
-5
-10
-15
-18
-21
-23
-25
-26
-27
-28
-29
-30
-31
-31
-31
-31
-31
-31
-31
-30
-29
-30
-31
-31
-31
-32
-33
-32
-31
-30
-29
-29
-29
-29
-29
-30
-31
-30
-29
-28
-28
-31
-31
-31
-30
-29
-30
-31
-33
-35
-34
-33
-33
-33
-34
-35
-35
-35
-36
-37
-36
-35
-36
-37
-37
-37
-37
-37
-36
-35
-35
-34
-32
-28
-22
-20
-18
-17
-17
-15
-12
-7
-11
-5
-9
-11
-13
-10
-7
-9
-12
-23
-31
-36
-39
-40
-41
-41
-41
-40
-39
-39
-39
-40
-41
-41
-41
-41
-41
-41
-41
-40
-39
-38
-37
-36
-35
-34
-33
-33
-45
-60
-78
-96
-63
-26
99
224
339
432
357
260
54
-117
-165
-197
-182
-156
-106
-66
-44
-29
-23
-19
-19
-19
-18
-17
-16
-15
-14
-13
-12
-10
-8
-7
-6
-5
-4
-2
0
2
4
5
6
8
11
14
17
19
21
24
27
29
31
35
40
45
50
54
59
65
71
78
85
91
97
102
107
112
116
119
122
125
127
128
127
122
115
107
95
81
66
51
39
28
21
27
7
1
-6
-13
-15
-17
-19
-21
-22
-23
-23
-23
-24
-25
-25
-25
-26
-27
-27
-27
-28
-29
-28
-27
-27
-27
-28
-29
-29
-29
-28
-27
-27
-27
-28
-29
-30
-31
-30
-29
-29
-30
-31
-31
-31
-31
-31
-31
-31
-32
-33
-34
-35
-34
-33
-34
-35
-36
-37
-37
-37
-37
-37
-37
-37
-38
-39
-39
-39
-38
-35
-31
-26
-22
-21
-22
-23
-22
-16
-10
-8
-6
-7
-11
-13
-15
-12
-9
-13
-18
-28
-37
-40
-43
-43
-43
-43
-43
-44
-45
-45
-45
-45
-45
-45
-45
-46
-47
-46
-45
-44
-43
-43
-43
-43
-42
-40
-39
-38
-46
-57
-79
-101
-83
-103
52
166
291
403
376
325
126
-51
-131
-193
-191
-176
-129
-89
-62
-42
-33
-27
-27
-27
-27
-26
-24
-23
-22
-21
-20
-19
-18
-17
-16
-14
-12
-11
-10
-8
-6
-4
-2
0
2
4
5
7
9
14
19
21
23
26
29
33
38
42
47
54
61
68
75
81
87
93
99
103
107
111
114
116
117
117
116
114
107
99
87
74
59
43
30
17
5
-6
-14
-23
-27
-31
-35
-39
-41
-43
-45
-47
-48
-49
-49
-49
-50
-51
-51
-51
-50
-49
-49
-49
-48
-47
-48
-49
-48
-47
-47
-47
-48
-49
-49
-49
-48
-47
-46
-45
-46
-47
-48
-49
-49
-47
-47
-47
-47
-48
-49
-49
-49
-50
-51
-51
-51
-50
-49
-50
-51
-51
-51
-51
-51
-51
-51
-50
-49
-49
-49
-48
-47
-48
-47
-43
-38
-34
-33
-32
-31
-31
-25
-18
-16
-14
-16
-19
-22
-25
-21
-17
-20
-24
-36
-45
-49
-53
-52
-51
-51
-51
-51
-51
-50
-49
-49
-50
-52
-53
-52
-51
-52
-52
-50
-49
-49
-49
-48
-47
-47
-46
-44
-49
-56
-76
-98
-82
-62
42
147
275
386
352
291
86
-91
-154
-197
-181
-155
-106
-65
-40
-21
-11
-5
-4
-3
-3
-3
-2
-1
0
2
4
5
5
6
8
10
12
13
14
15
16
18
20
22
21
27
29
31
33
36
39
43
47
51
55
58
62
66
70
75
80
86
92
99
104
109
114
120
125
129
132
134
135
134
131
128
119
108
94
80
65
49
37
24
15
6
-3
-11
-16
-21
-26
-31
-32
-33
-35
-37
-38
-39
-40
-41
-40
-39
-39
-39
-39
-39
-39
-39
-39
-39
-39
-40
-42
-42
-40
-39
-39
-39
-40
-41
-41
-41
-41
-41
-41
-41
-41
-42
-45
-43
-41
-42
-43
-44
-45
-47
-49
-48
-47
-47
-47
-49
-51
-51
-51
-49
-47
-47
-47
-47
-47
-48
-49
-50
-50
-48
-43
-37
-35
-34
-33
-32
-30
-28
-22
-16
-14
-12
-14
-11
-20
-21
-18
-15
-18
-22
-35
-45
-47
-49
-49
-49
-49
-49
-49
-49
-49
-49
-49
-49
-49
-49
-49
-49
-49
-49
-48
-47
-48
-48
-46
-45
-44
-43
-42
-48
-57
-74
-91
-74
-54
42
140
264
377
350
300
92
-93
-168
-225
-211
-192
-155
-118
-82
-54
-40
-31
-29
-27
-25
-23
-22
-21
-20
-19
-18
-16
-14
-13
-12
-11
-10
-9
-8
-5
-2
0
2
4
6
7
9
12
15
18
21
23
25
28
32
37
42
47
52
56
61
67
73
80
88
95
100
105
109
113
116
118
119
120
119
116
108
98
85
70
54
38
26
15
4
-6
-14
-7
-28
-33
-37
-41
-44
-47
-47
-47
-48
-49
-49
-49
-50
-51
-50
-49
-49
-49
-50
-51
-51
-51
-50
-49
-49
-49
-49
-49
-49
-49
-48
-47
-47
-47
-47
-47
-47
-47
-47
-47
-48
-48
-47
-48
-49
-48
-47
-49
-51
-51
-51
-52
-53
-52
-51
-52
-53
-52
-51
-51
-51
-51
-51
-50
-49
-50
-51
-51
-50
-48
-43
-37
-35
-34
-33
-34
-30
-24
-20
-16
-16
-18
-21
-25
-22
-19
-20
-21
-25
-30
-40
-49
-50
-51
-50
-49
-50
-51
-51
-51
-50
-49
-50
-51
-52
-53
-52
-51
-51
-50
-48
-47
-47
-47
-47
-45
-42
-41
-41
-58
-79
-91
-102
-58
-103
116
241
342
427
356
267
61
-116
-170
-208
-193
-167
-115
-72
-51
-35
-29
-25
-26
-27
-26
-25
-24
-22
-20
-19
-18
-17
-16
-15
-14
-12
-10
-9
-8
-7
-6
-3
0
2
4
7
9
11
13
16
19
23
27
30
34
39
44
49
55
62
69
75
81
87
94
101
107
112
116
119
121
122
123
123
119
113
102
88
73
58
44
29
18
6
-4
-14
-20
-27
-30
-33
-35
-37
-39
-41
-43
-45
-44
-43
-43
-43
-44
-45
-45
-45
-45
-45
-45
-45
-45
-45
-45
-45
-44
-43
-43
-43
-43
-43
-42
-41
-40
-39
-39
-39
-39
-39
-40
-41
-41
-39
-39
-40
-41
-41
-41
-42
-43
-42
-41
-42
-43
-43
-43
-43
-43
-43
-43
-44
-45
-44
-43
-43
-43
-43
-43
-42
-41
-41
-37
-31
-27
-24
-23
-23
-23
-23
-18
-12
-9
-6
-8
-11
-13
-15
-12
-9
-12
-16
-24
-32
-39
-45
-44
-43
-42
-41
-41
-41
-41
-41
-41
-41
-41
-41
-41
-41
-42
-42
-40
-39
-38
-37
-38
-37
-34
-33
-33
-48
-65
-82
-98
-46
11
155
295
372
425
279
130
-30
-162
-181
-188
-157
-123
-82
-51
-36
-26
-22
-19
-19
-19
-18
-17
-16
-15
-14
-12
-10
-9
-8
-7
-7
-5
-2
-1
0
2
4
6
8
10
9
16
19
20
21
24
27
31
35
39
44
49
54
58
63
70
77
84
92
99
105
110
116
122
127
131
134
136
136
134
129
123
111
96
80
64
49
35
24
14
5
-4
-12
-19
-23
-27
-29
-31
-32
-33
-34
-35
-36
-37
-37
-37
-37
-37
-37
-37
-38
-39
-38
-37
-37
-37
-37
-37
-37
-37
-36
-35
-35
-35
-34
-33
-34
-35
-34
-33
-33
-33
-33
-33
-35
-34
-33
-34
-35
-34
-33
-34
-35
-35
-35
-35
-35
-36
-37
-37
-37
-36
-35
-35
-35
-35
-35
-35
-35
-35
-35
-34
-33
-34
-35
-35
-32
-28
-24
-20
-18
-16
-15
-16
-14
-17
-3
3
0
-3
-6
-9
-5
-1
-3
-6
-13
-21
-29
-35
-36
-37
-36
-35
-35
-35
-36
-37
-36
-35
-35
-35
-36
-37
-37
-36
-34
-33
-33
-33
-33
-33
-33
-31
-28
-30
-34
-58
-81
-80
-74
-3
76
213
336
389
400
257
111
-42
-153
-175
-179
-151
-116
-74
-45
-32
-23
-19
-17
-17
-17
-17
-17
-16
-14
-12
-11
-10
-9
-8
-6
-4
-3
-2
-1
0
1
3
6
9
11
13
17
21
23
25
28
31
34
38
42
46
50
55
62
70
77
83
90
96
103
111
118
123
127
130
132
133
134
132
128
120
111
96
81
66
50
38
49
15
5
-3
-11
-17
-23
-26
-29
-30
-31
-32
-33
-35
-37
-37
-37
-36
-35
-36
-37
-37
-37
-37
-37
-36
-35
-35
-35
-36
-37
-36
-35
-36
-37
-36
-35
-35
-34
-32
-31
-32
-32
-31
-32
-33
-33
-33
-34
-35
-35
-35
-36
-37
-36
-35
-35
-35
-35
-35
-36
-37
-37
-37
-37
-37
-38
-39
-39
-39
-39
-38
-36
-35
-36
-37
-37
-37
-37
-37
-36
-34
-32
-29
-25
-22
-19
-19
-19
-18
-16
-9
-3
-2
-1
-4
-7
-9
-10
-7
-6
-10
-17
-27
-33
-36
-37
-38
-39
-39
-39
-38
-37
-37
-37
-38
-39
-38
-37
-38
-39
-38
-37
-38
-39
-39
-36
-35
-35
-35
-33
-31
-35
-42
-63
-78
-72
-44
39
138
269
357
374
308
125
-26
-141
-196
-194
-173
-137
-101
-64
-42
-28
-21
-17
-15
-15
-15
-14
-13
-13
-12
-10
-8
-6
-5
-5
-3
-1
1
3
5
7
8
9
11
13
16
19
23
26
29
32
35
39
44
48
51
55
59
65
72
79
86
92
97
103
109
115
120
125
130
131
131
131
132
129
123
114
105
90
76
60
46
33
21
10
-1
-9
-16
-20
-24
-29
-33
-34
-35
-35
-35
-38
-39
-39
-39
-40
-41
-41
-41
-41
-41
-41
-41
-41
-41
-40
-39
-39
-39
-39
-39
-39
-37
-37
-37
-37
-38
-39
-38
-37
-37
-37
-38
-39
-40
-41
-40
-39
-39
-39
-40
-41
-41
-41
-41
-41
-42
-43
-42
-41
-42
-43
-42
-41
-41
-41
-41
-41
-42
-43
-42
-41
-40
-39
-39
-41
-43
-39
-35
-30
-25
-24
-23
-24
-24
-18
-12
-8
-5
-7
-10
-14
-16
-12
-10
-12
-18
-28
-36
-41
-43
-43
-43
-44
-45
-44
-43
-44
-45
-44
-43
-42
-41
-42
-43
-43
-43
-43
-41
-39
-39
-39
-40
-41
-38
-35
-35
-38
-52
-66
-81
-73
-26
51
167
273
369
373
292
140
-64
-165
-204
-202
-180
-139
-91
-62
-40
-30
-23
-21
-20
-18
-16
-15
-15
-14
-13
-12
-11
-10
-9
-7
-5
-3
-1
0
1
3
5
7
9
11
13
15
17
18
21
25
29
33
36
39
43
46
51
57
62
67
73
80
86
92
98
104
111
118
122
125
127
129
129
129
126
122
111
100
85
70
58
45
31
18
8
-1
-9
-15
-20
-24
-27
-30
-32
-34
-36
-37
-37
-37
-38
-39
-39
-39
-40
-40
-38
-37
-37
-37
-37
-37
-39
-39
-39
-38
-37
-37
-37
-36
-35
-35
-35
-35
-35
-37
-39
-38
-37
-36
-35
-35
-35
-35
-36
-38
-39
-39
-39
-40
-41
-41
-41
-41
-41
-40
-39
-39
-39
-39
-39
-40
-41
-41
-41
-41
-41
-41
-40
-39
-39
-39
-38
-37
-37
-36
-32
-28
-24
-21
-21
-21
-22
-20
-13
-8
-5
-4
-7
-10
-13
-13
-9
-8
-10
-17
-27
-33
-40
-41
-41
-41
-40
-39
-39
-38
-37
-38
-39
-39
-39
-39
-39
-39
-39
-39
-39
-38
-37
-36
-35
-34
-33
-32
-33
-39
-53
-75
-80
-71
-11
84
204
339
395
417
290
107
-32
-159
-186
-194
-160
-119
-82
-47
-35
-23
-21
-19
-18
-17
-16
-15
-15
-15
-13
-11
-10
-9
-8
-7
-6
-5
-3
-1
1
3
6
7
8
10
12
14
16
19
22
24
26
30
34
38
42
46
50
54
58
65
59
80
87
94
101
107
113
120
125
128
131
133
135
132
127
120
110
96
81
66
51
38
26
16
6
-3
-11
-18
-23
-27
-30
-32
-34
-36
-37
-37
-38
-40
-41
-40
-39
-39
-40
-41
-41
-41
-40
-39
-39
-39
-40
-41
-41
-41
-41
-41
-40
-39
-39
-39
-39
-39
-38
-37
-36
-36
-38
-39
-38
-37
-37
-37
-37
-37
-38
-39
-39
-39
-39
-39
-39
-39
-39
-39
-41
-40
-39
-40
-41
-40
-39
-40
-41
-41
-41
-41
-41
-40
-39
-39
-39
-39
-39
-38
-36
-31
-28
-25
-22
-20
-19
-19
-16
-11
-7
-4
-4
-6
-9
-12
-10
-6
-7
-10
-18
-11
-34
-41
-41
-41
-41
-41
-40
-39
-39
-39
-39
-39
-40
-41
-41
-41
-40
-39
-40
-41
-38
-37
-37
-37
-36
-34
-32
-34
-39
-56
-79
-82
-78
-19
55
180
314
376
429
289
136
-13
-157
-178
-195
-160
-125
-85
-49
-36
-25
-23
-21
-21
-21
-17
-15
-15
-15
-14
-13
-12
-10
-8
-7
-6
-5
-4
-3
-2
0
2
4
6
7
8
11
14
17
20
23
26
28
31
36
41
46
51
56
61
68
74
81
89
97
104
109
114
119
124
128
131
132
132
129
123
113
102
88
75
60
47
33
21
10
0
-9
-15
-22
-26
-30
-33
-36
-37
-37
-39
-39
-40
-41
-42
-43
-42
-41
-41
-41
-41
-41
-41
-41
-41
-41
-41
-41
-41
-41
-41
-41
-40
-39
-39
-39
-39
-39
-39
-39
-39
-39
-39
-39
-40
-41
-41
-41
-40
-39
-39
-41
-43
-43
-43
-42
-41
-41
-41
-42
-43
-43
-43
-44
-45
-44
-43
-44
-45
-45
-45
-44
-43
-43
-43
-43
-43
-43
-43
-43
-43
-43
-43
-42
-41
-41
-41
-40
-37
-34
-30
-26
-25
-23
-22
-21
-15
-9
-4
1
-4
-9
-11
-12
-8
-6
-11
-18
-28
-36
-39
-41
-41
-41
-41
-41
-41
-41
-42
-43
-42
-41
-42
-43
-43
-43
-43
-43
-42
-41
-40
-39
-39
-38
-39
-34
-33
-50
-66
-85
-95
-50
13
152
279
366
400
296
166
-14
-140
-176
-189
-170
-137
-89
-56
-38
-28
-26
-25
-24
-23
-23
-21
-18
-17
-16
-15
-15
-15
-14
-12
-10
-8
-6
-4
-3
-2
-1
2
5
6
7
10
13
15
17
20
24
28
32
35
38
42
46
50
56
62
68
74
81
90
96
103
108
113
118
122
124
126
127
127
123
118
108
98
84
69
55
41
28
16
6
-4
-12
-20
-25
-29
-32
-35
-36
-38
-41
-43
-43
-43
-43
-43
-43
-43
-44
-45
-44
-43
-43
-43
-43
-43
-43
-43
-43
-43
-43
-43
-43
-43
-43
-43
-43
-43
-43
-42
-41
-42
-43
-43
-43
-43
-43
-44
-45
-45
-45
-44
-43
-43
-43
-44
-45
-46
-47
-46
-45
-45
-45
-45
-46
-48
-48
-46
-45
-45
-45
-45
-45
-44
-39
-34
-32
-30
-28
-27
-25
-23
-16
-9
-8
-7
-13
-17
-18
-19
-16
-14
-18
-25
-37
-46
-49
-51
-50
-49
-48
-47
-46
-45
-45
-45
-46
-47
-48
-49
-49
-49
-48
-47
-47
-47
-46
-45
-46
-46
-43
-41
-39
-43
-49
-71
-90
-80
-53
37
137
265
357
364
301
101
-59
-157
-211
-205
-181
-139
-102
-69
-48
-34
-29
-28
-26
-24
-23
-22
-21
-20
-18
-16
-15
-14
-13
-12
-11
-11
-7
-5
-2
1
1
1
4
7
9
11
13
15
18
22
26
29
31
34
38
43
50
55
60
66
72
79
86
93
100
106
111
116
121
125
128
129
129
128
126
119
112
97
83
68
52
39
26
15
4
-7
-16
-23
-29
-32
-35
-37
-40
-43
-45
-46
-47
-47
-47
-47
-47
-48
-49
-49
-49
-48
-47
-47
-47
-47
-47
-47
-47
-47
-47
-46
-45
-45
-45
-45
-44
-43
-43
-43
-44
-45
-45
-45
-45
-45
-45
-45
-45
-45
-46
-47
-47
-47
-48
-49
-49
-49
-49
-49
-48
-47
-47
-47
-48
-49
-50
-51
-50
-49
-49
-49
-49
-49
-48
-45
-47
-36
-31
-30
-29
-29
-28
-21
-15
-12
-9
-14
-17
-20
-22
-19
-17
-18
-23
-33
-42
-49
-53
-52
-51
-51
-51
-50
-49
-50
-50
-48
-47
-48
-49
-49
-49
-49
-49
-48
-47
-47
-46
-45
-46
-47
-44
-42
-51
-62
-81
-94
-78
-40
54
160
295
381
379
295
91
-66
-166
-214
-207
-180
-137
-99
-66
-46
-33
-29
-28
-27
-26
-25
-25
-24
-22
-21
-20
-19
-18
-17
-15
-13
-11
-9
-7
-5
-3
-1
1
3
5
6
7
10
14
17
20
24
28
31
34
39
43
48
54
60
67
74
81
88
95
101
106
112
115
118
120
122
123
122
119
121
106
97
85
72
57
42
29
17
6
-4
-13
-20
-26
-32
-35
-37
-39
-41
-42
-43
-46
-47
-47
-46
-44
-44
-46
-47
-47
-47
-46
-45
-45
-45
-45
-45
-46
-46
-44
-43
-43
-44
-45
-44
-43
-43
-43
-42
-41
-41
-41
-42
-43
-42
-41
-40
-39
-41
-43
-44
-45
-45
-45
-44
-43
-44
-45
-45
-45
-45
-45
-44
-43
-44
-45
-46
-47
-46
-45
-45
-45
-45
-45
-45
-42
-39
-35
-31
-28
-25
-26
-26
-21
-16
-11
-7
-10
-14
-18
-20
-17
-15
-14
-15
-22
-29
-39
-43
-44
-45
-45
-45
-45
-45
-45
-45
-45
-45
-45
-45
-45
-45
-46
-47
-47
-45
-45
-44
-43
-43
-43
-40
-37
-38
-44
-68
-86
-90
-70
3
100
236
342
406
379
244
90
-84
-174
-199
-188
-153
-113
-70
-47
-33
-27
-24
-23
-23
-23
-23
-21
-18
-17
-16
-14
-13
-12
-11
-9
-7
-6
-5
-3
-1
0
1
4
7
9
11
13
16
19
22
25
28
31
35
39
43
47
52
59
65
73
79
85
93
101
108
114
118
122
125
128
129
131
129
127
120
112
101
89
73
57
42
28
16
5
-3
-11
-18
-24
-28
-31
-33
-35
-36
-38
-40
-41
-41
-41
-41
-41
-41
-41
-41
-41
-41
-41
-40
-39
-39
-39
-39
-39
-39
-39
-39
-39
-39
-39
-39
-38
-37
-37
-37
-36
-35
-36
-37
-37
-37
-37
-37
-37
-37
-38
-39
-38
-37
-37
-37
-38
-39
-38
-37
-38
-39
-39
-39
-39
-39
-39
-39
-39
-39
-39
-39
-39
-36
-33
-28
-23
-20
-17
-19
-21
-17
-12
-6
-1
-2
-4
-8
-11
-9
-7
-7
-10
-17
-25
-33
-38
-40
-41
-40
-39
-38
-37
-37
-37
-38
-39
-39
-39
-39
-39
-39
-39
-39
-38
-37
-36
-35
-35
-35
-34
-33
-32
-35
-51
-68
-86
-85
-42
36
167
287
392
406
320
172
-29
-139
-181
-183
-161
-120
-71
-45
-28
-20
-16
-15
-14
-13
-13
-13
-13
-11
-13
-6
-5
-4
-3
-2
-1
1
3
5
7
8
9
10
12
15
17
19
21
23
26
29
33
38
42
45
50
55
60
65
71
77
84
91
98
105
111
116
122
128
132
136
139
141
138
135
127
118
105
91
75
60
45
31
21
11
1
-7
-14
-20
-24
-27
-28
-30
-32
-33
-33
-33
-34
-35
-35
-35
-34
-33
-34
-35
-35
-35
-34
-33
-33
-33
-33
-33
-35
-34
-33
-32
-31
-32
-33
-33
-33
-32
-31
-31
-31
-32
-33
-33
-33
-33
-33
-32
-31
-34
-35
-34
-33
-33
-33
-34
-35
-35
-35
-36
-37
-37
-37
-37
-37
-37
-37
-37
-37
-37
-35
-35
-35
-35
-32
-29
-24
-19
-18
-17
-18
-18
-13
-7
-1
2
-1
-4
-8
-11
-8
-7
-8
-12
-18
-25
-34
-37
-38
-39
-39
-39
-38
-37
-37
-38
-40
-41
-41
-41
-41
-41
-41
-40
-39
-39
-39
-38
-37
-36
-35
-36
-37
-40
-50
-75
-89
-80
-41
45
158
302
384
402
295
82
-64
-164
-195
-185
-146
-95
-63
-39
-28
-21
-19
-19
-19
-18
-17
-16
-15
-13
-12
-11
-10
-9
-8
-7
-6
-5
-3
-1
1
3
4
5
5
6
10
14
17
19
22
24
27
31
35
39
43
47
51
57
63
71
79
86
93
99
104
109
114
119
115
129
133
133
133
128
122
112
101
85
70
53
38
26
14
3
-7
-14
-21
-27
-31
-34
-36
-38
-39
-40
-41
-42
-43
-42
-41
-42
-43
-43
-43
-44
-45
-45
-45
-44
-43
-43
-42
-41
-41
-41
-42
-43
-41
-39
-41
-43
-43
-43
-41
-39
-40
-41
-41
-41
-41
-41
-41
-41
-40
-40
-42
-43
-44
-45
-44
-43
-44
-45
-45
-45
-45
-45
-44
-43
-43
-43
-44
-45
-45
-43
-41
-41
-41
-36
-31
-29
-27
-27
-26
-21
-16
-10
-6
-9
-12
-16
-18
-14
-11
-12
-16
-23
-32
-41
-45
-45
-45
-45
-45
-46
-47
-46
-45
-45
-45
-46
-47
-46
-45
-45
-44
-43
-44
-45
-46
-47
-45
-43
-39
-35
-36
-41
-59
-75
-87
-77
-28
52
174
280
368
370
289
139
-65
-169
-210
-214
-197
-159
-113
-78
-48
-33
-23
-21
-21
-21
-20
-18
-16
-13
-11
-10
-9
-8
-7
-6
-5
-3
-1
-1
-1
2
5
7
9
11
13
15
18
22
26
28
31
35
38
41
46
53
59
65
71
77
83
89
96
104
110
116
121
126
128
131
132
133
130
126
116
105
91
76
61
46
32
18
6
-5
-14
-20
-24
-28
-32
-35
-36
-38
-40
-41
-41
-41
-41
-41
-42
-43
-43
-43
-42
-41
-40
-40
-42
-43
-42
-41
-41
-40
-39
-39
-39
-40
-41
-40
-39
-39
-39
-39
-39
-40
-41
-40
-39
-38
-37
-38
-39
-42
-43
-42
-41
-41
-41
-42
-43
-43
-43
-43
-43
-43
-43
-43
-43
-44
-45
-45
-44
-42
-41
-41
-38
-35
-31
-27
-25
-23
-24
-24
-19
-14
-8
-4
-9
-14
-17
-18
-14
-11
-12
-17
-26
-34
-42
-45
-45
-45
-45
-45
-45
-45
-45
-45
-45
-45
-45
-45
-45
-45
-45
-45
-47
-45
-43
-42
-41
-41
-41
-39
-37
-38
-44
-64
-80
-85
-66
4
98
230
332
396
351
189
31
-125
-195
-202
-184
-151
-111
-69
-47
-33
-27
-24
-23
-22
-21
-20
-18
-16
-15
-15
-12
-11
-10
-9
-7
-5
-4
-3
-1
1
3
5
7
9
11
14
17
19
21
24
27
31
35
39
45
50
55
60
65
72
79
86
93
99
104
109
114
118
122
124
126
127
127
122
117
106
96
81
67
53
39
25
13
4
-5
-12
-19
-25
-30
-33
-35
-36
-38
-40
-41
-41
-41
-42
-43
-42
-41
-41
-41
-41
-41
-42
-43
-42
-41
-41
-41
-41
-41
-43
-42
-41
-40
-39
-39
-39
-39
-39
-38
-37
-37
-37
-38
-39
-39
-39
-39
-39
-38
-37
-38
-39
-39
-39
-39
-39
-40
-41
-41
-41
-41
-41
-41
-41
-41
-41
-41
-41
-41
-39
-41
-31
-27
-25
-23
-24
-25
-20
-15
-9
-5
-7
-10
-14
-16
-12
-9
-10
-14
-21
-29
-40
-45
-45
-44
-42
-41
-41
-41
-42
-43
-43
-43
-43
-43
-44
-45
-45
-44
-42
-41
-41
-39
-37
-37
-37
-35
-34
-43
-54
-77
-91
-69
-31
55
149
261
350
399
385
274
134
-41
-147
-185
-191
-169
-132
-84
-56
-37
-28
-23
-21
-22
-23
-22
-21
-20
-18
-16
-15
-14
-13
-13
-11
-9
-6
-3
-2
-1
-1
-1
2
5
7
9
12
15
17
19
21
24
28
32
35
39
43
47
51
57
64
71
78
85
91
99
107
113
118
121
124
125
126
127
127
121
115
100
86
70
54
41
29
18
7
-2
-11
-19
-26
-29
-32
-36
-39
-40
-41
-42
-43
-43
-43
-44
-45
-45
-45
-45
-45
-45
-45
-44
-43
-43
-43
-44
-45
-45
-45
-44
-43
-43
-43
-43
-42
-41
-41
-41
-41
-41
-41
-41
-41
-41
-41
-41
-41
-41
-43
-45
-44
-43
-43
-43
-43
-43
-44
-45
-44
-43
-44
-45
-44
-43
-44
-45
-45
-45
-44
-41
-38
-34
-29
-28
-27
-27
-27
-22
-17
-13
-9
-10
-12
-16
-18
-14
-12
-15
-21
-31
-39
-44
-47
-46
-45
-46
-47
-46
-45
-46
-47
-48
-49
-49
-49
-48
-47
-46
-45
-45
-45
-45
-45
-45
-42
-39
-39
-40
-52
-65
-86
-99
-74
-32
67
175
304
387
375
294
97
-56
-149
-198
-195
-167
-116
-79
-52
-37
-28
-25
-25
-25
-24
-23
-22
-21
-20
-19
-18
-16
-14
-13
-12
-10
-9
-8
-7
-5
-3
-1
1
3
5
6
7
10
14
18
21
23
26
29
33
38
43
48
53
58
64
70
77
84
91
99
105
111
115
118
121
124
125
125
122
118
107
95
81
67
52
38
24
10
-2
-12
-18
-24
-29
-34
-38
-41
-43
-45
-45
-45
-46
-47
-48
-49
-50
-51
-50
-49
-49
-49
-49
-49
-50
-51
-50
-49
-48
-47
-47
-47
-47
-47
-47
-47
-47
-47
-47
-48
-49
-48
-47
-47
-47
-48
-49
-49
-49
-49
-49
-49
-49
-49
-49
-49
-49
-48
-47
-48
-49
-50
-51
-51
-51
-50
-49
-49
-49
-49
-48
-46
-41
-36
-34
-32
-31
-31
-27
-23
-18
-13
-16
-19
-22
-25
-21
-17
-20
-26
-36
-44
-48
-51
-52
-53
-52
-51
-51
-51
-52
-53
-54
-55
-54
-53
-53
-53
-53
-53
-52
-51
-51
-51
-50
-49
-48
-47
-47
-59
-72
-89
-101
-61
-10
105
217
320
381
316
211
13
-134
-184
-209
-191
-160
-112
-77
-56
-41
-33
-29
-28
-27
-27
-27
-26
-24
-22
-21
-20
-19
-18
-17
-16
-15
-14
-12
-13
-7
-5
-4
-3
-1
1
4
7
11
15
17
19
21
24
28
32
36
41
47
54
61
68
74
79
85
91
98
104
109
113
116
118
120
120
118
112
106
95
82
67
52
37
23
11
-1
-10
-19
-25
-32
-38
-43
-45
-47
-48
-49
-49
-49
-50
-51
-52
-53
-52
-51
-51
-51
-51
-51
-52
-53
-53
-53
-52
-51
-51
-51
-51
-51
-51
-51
-50
-49
-49
-49
-51
-50
-49
-49
-49
-48
-47
-49
-51
-52
-53
-51
-49
-50
-51
-51
-51
-52
-53
