11
25
27
23
19
22
25
18
13
16
18
9
1
-7
-11
-3
0
-9
-15
-13
-14
-23
-30
-36
-44
-55
-63
-70
-67
-58
-52
-47
-43
-40
-40
-42
-49
-56
-47
-34
-33
-32
-42
-53
-53
-53
-46
-39
-41
-42
-36
-31
-35
-39
-42
-45
-43
-42
-46
-46
-38
-33
-35
-39
-44
-45
-41
-42
-48
-56
-64
-53
-33
-34
-44
-47
-46
-56
-71
-71
-68
-63
-58
-52
-45
-51
-57
-50
-43
-49
-53
-39
-29
-39
-48
-53
-54
-44
-42
-57
-67
-65
-63
-62
-52
-33
-25
-29
-33
-39
-40
-38
-38
-40
-49
-62
-49
-28
-35
-50
-46
-38
-46
-56
-30
-57
-1
-3
-46
-83
-51
-24
-35
-45
-39
-30
-9
0
-25
-41
-35
-29
-22
-21
-31
-24
5
15
7
-5
-21
-21
-9
-1
6
-4
-24
-11
14
11
1
-6
-12
-26
-42
-35
-26
-37
-49
-19
9
6
1
-21
-44
-78
-105
-101
-97
-95
-52
80
222
380
499
559
605
634
552
356
170
-8
-116
-177
-189
-173
-168
-170
-143
-104
-71
-41
-35
-36
-48
-61
-60
-56
-43
-29
-19
-9
-13
-18
-32
-42
-18
1
4
3
-16
-25
-10
1
-1
-3
-1
1
3
8
17
30
47
50
41
35
31
37
51
55
55
60
67
68
66
55
43
55
72
63
73
35
19
14
9
2
-4
6
13
0
-11
-13
-15
-16
-19
-25
-30
-34
-37
-37
-32
-21
-16
-18
-21
-25
-26
-24
-19
-13
-18
-28
-28
-24
-22
-20
-17
-14
-18
-24
-19
-12
-13
-15
-22
-29
-17
-6
6
12
-20
-45
-45
-44
-36
-31
-29
-27
-29
-30
-27
-19
-3
-5
-25
-37
-42
-43
-39
-30
-17
-19
-28
-30
-28
-32
-39
-37
-32
-23
-12
-15
-20
-21
-21
-23
-25
-26
-27
-34
-39
-24
-11
-10
-12
-26
-36
-31
-26
-23
-23
-29
-33
-31
-28
-23
-17
-9
-12
-26
-28
-23
-20
-18
-19
-22
-19
-13
-14
-18
-19
-19
-19
-18
-13
-17
6
19
12
5
4
3
2
1
-5
-9
-12
-13
-6
-1
-3
-8
-17
-25
-30
-32
-29
-23
-14
-9
-8
-10
-15
-46
-91
-112
-122
-104
-75
12
115
253
399
486
566
597
626
519
404
177
-39
-124
-199
-198
-192
-158
-127
-107
-89
-81
-72
-59
-51
-52
-52
-48
-40
-28
-23
-28
-35
-43
-46
-43
-37
-30
-28
-30
-29
-26
-19
-11
-14
-20
-14
-6
-2
2
4
7
9
12
28
42
32
24
32
39
43
47
49
54
65
68
53
43
44
47
52
51
42
31
19
1
-20
-26
-20
-19
-22
-26
-31
-34
-36
-30
-21
-13
-6
-25
-47
-55
-49
-63
-63
-57
-51
-43
-35
-32
-30
-36
-41
-42
-36
-11
-2
-31
-49
-51
-50
-42
-35
-28
-26
-28
-30
-32
-29
-22
-26
-37
-29
-12
-17
-32
-35
-36
-45
-55
-49
-40
-39
-40
-33
-25
-35
-45
-42
-38
-27
-18
-26
-34
-40
-45
-47
-49
-49
-47
-38
-33
-31
-33
-42
-45
-41
-33
-20
-21
-32
-42
-50
-49
-41
-38
-36
-36
-38
-39
-40
-41
-40
-28
-16
-22
-31
-45
-59
-50
-41
-38
-35
-32
-30
-36
-37
-18
-5
-6
-16
-42
-57
-50
-45
-43
-40
-35
-32
-29
-26
-24
-16
-5
-1
0
1
2
1
-2
-5
-8
-16
-26
-29
-32
-27
-33
-21
-23
-31
-39
-37
-34
-24
-16
-24
-31
-36
-36
-25
-30
-71
-105
-129
-129
-94
-32
60
192
362
481
561
612
645
502
266
75
-97
-169
-207
-207
-197
-185
-173
-151
-127
-91
-54
-56
-59
-63
-67
-58
-49
-44
-39
-41
-41
-31
-25
-33
-39
-39
-37
-31
-25
-20
-16
-13
-13
-17
-17
-13
-9
-5
0
7
11
14
27
43
43
37
30
24
31
42
43
43
46
51
53
55
47
39
33
27
23
21
36
42
21
3
-6
-15
-21
-25
-23
-21
-20
-21
-26
-29
-29
-27
-23
-17
-10
-8
-10
-15
-21
-20
-16
-11
-6
0
6
0
-8
-11
-9
-7
1
-16
-31
-20
-11
-9
-8
-16
-18
3
19
19
7
-32
-50
-31
-18
-14
-16
-27
-33
-33
-24
-8
-2
-5
-18
-35
-34
-22
-12
-2
-6
-15
-23
-32
-22
-8
-14
-22
-22
-21
-13
-5
-13
-21
-17
-13
-12
-11
-11
-10
-2
1
-9
-15
-16
-13
-2
1
-8
-13
-12
-11
-12
-13
-13
-12
-8
-8
-10
-9
-6
-1
4
-2
-11
-7
0
12
24
5
-17
-22
-27
-19
-11
-5
1
1
2
7
11
11
11
13
16
21
27
32
34
31
26
19
13
8
5
4
6
11
8
0
-3
-2
2
8
4
-3
0
6
17
28
-29
29
-111
-129
-77
-21
68
165
314
449
524
588
612
597
481
332
112
-53
-130
-175
-173
-157
-126
-104
-88
-74
-61
-49
-39
-31
-24
-21
-21
-15
-7
-9
-14
-17
-20
-12
-2
5
12
-1
-15
-3
9
7
5
7
10
16
22
27
31
33
38
49
58
62
61
51
49
58
68
79
83
78
76
79
80
78
79
82
76
66
63
64
56
45
33
20
16
12
13
17
4
-9
-15
-20
-9
0
-7
-13
-12
-13
-21
-19
8
20
0
-16
-24
-21
-3
7
7
1
-11
-15
-11
-2
10
8
-3
-7
-6
-4
-2
-3
-6
-3
2
3
2
1
1
5
9
7
4
-15
-31
-26
-20
-14
-10
-16
-21
-18
-11
2
5
-11
-18
-8
-8
-19
-17
-1
1
-10
-20
-29
-21
-1
-2
-12
-6
8
-3
-22
-21
-16
-15
-15
-18
-22
-20
-17
-9
-1
7
14
-1
-13
-9
-4
4
6
-13
-27
-31
-27
-8
1
-7
-11
-10
-11
-16
-9
11
11
-3
-11
-15
-21
-27
-12
11
5
-12
-12
-8
-2
4
3
0
15
33
24
15
15
15
12
9
5
-2
-21
-29
-5
8
-12
-24
-21
-19
-18
-18
-21
-22
-17
-13
-9
-20
-42
-79
-124
-120
-92
-25
57
187
331
441
542
579
604
523
430
198
425
-107
-172
-195
-216
-197
-177
-144
-110
-73
-44
-53
-60
-64
-63
-48
-41
-47
-51
-51
-48
-39
-37
-42
-40
-31
-27
-28
-29
-29
-29
-28
-19
-8
-11
-19
-21
-22
-17
-10
-3
4
14
23
23
23
30
37
31
27
41
53
54
53
45
39
35
31
22
16
12
9
8
7
8
6
-2
-16
-36
-41
-37
-33
-30
-36
-46
-52
-56
-54
-50
-47
-44
-43
-44
-46
-49
-41
-33
-26
-20
-37
-51
-51
-50
-42
-35
-36
-37
-35
-34
-38
-41
-40
-39
-38
-38
-41
-40
-34
-32
-35
-44
-56
-59
-55
-50
-45
-45
-48
-50
-52
-53
-53
-45
-36
-36
-35
-48
-57
-54
-51
-58
-63
-49
-39
-50
-59
-58
-57
-55
-52
-49
-47
-45
-43
-41
-43
-52
-55
-51
-48
-45
-43
-44
-49
-55
-54
-49
-44
-40
-45
-53
-51
-46
-39
-32
-42
-54
-55
-55
-54
-53
-46
-39
-42
-44
-37
-31
-31
-31
-34
-37
-41
-35
-13
-4
-19
-23
-14
-14
-25
-34
-40
-43
-42
-39
-35
-36
-41
-46
-50
-47
-42
-39
-36
-41
-48
-34
-18
-55
-95
-129
-161
-145
-122
-33
66
214
354
459
544
568
567
504
378
131
-61
-163
-222
-226
-221
-202
-179
-153
-127
-101
-83
-70
-67
-71
-73
-73
-70
-66
-58
-49
-48
-50
-49
-46
-43
-45
-35
-31
-33
-35
-32
-29
-22
-17
-20
-23
-22
-21
-21
-17
-2
7
8
9
11
14
17
23
31
35
36
38
41
45
48
45
39
37
37
33
28
23
18
7
-4
-10
-16
-19
-21
-26
-31
-31
-31
-35
-39
-39
-39
-37
-37
-45
-50
-46
-42
-39
-38
-42
-44
-41
-37
-33
-30
-28
-28
-30
-31
-31
-30
-28
-28
-30
-31
-31
-28
-24
-26
-30
-35
-40
-38
-33
-32
-31
-39
-47
-43
-39
-40
-41
-45
-48
-42
-37
-40
-42
-39
-37
-35
-35
-40
-43
-44
-45
-46
-45
-41
-37
-33
-33
-36
-38
-40
-41
-42
-43
-42
-41
-41
-40
-38
-37
-37
-36
-37
-37
-37
-37
-37
-37
-37
-34
-31
-34
-37
-37
-37
-36
-35
-35
-35
-37
-37
-32
-30
-33
-35
-36
-34
-29
-23
-16
-18
-26
-23
-13
-9
-6
-3
0
-4
-10
-17
-24
-28
-31
-27
-23
-26
-29
-33
-37
-39
-41
-37
-32
-28
-26
-31
-35
-36
-55
-101
-131
-140
-126
-86
-1
119
259
412
501
556
589
614
469
261
78
-98
-169
-218
-216
-204
-185
-164
-132
-99
-80
-61
-62
-63
-65
-67
-65
-63
-59
-54
-50
-47
-49
-51
-49
-46
-42
-39
-38
-35
-30
-27
-26
-26
-29
-26
-17
-13
-12
-6
1
0
-4
1
9
14
18
27
36
37
37
36
37
35
34
45
54
43
32
24
17
14
10
4
-3
-9
-13
-14
-18
-28
-36
-43
-48
-50
-51
-50
-49
-50
-50
-48
-45
-42
-44
-48
-49
-50
-50
-48
-45
-42
-46
-52
-51
-49
-48
-47
-43
-39
-34
-30
-36
-41
-41
-42
-46
-49
-45
-43
-44
-46
-49
-51
-49
-45
-41
-41
-45
-48
-51
-54
-56
-52
-44
-47
-56
-57
-54
-55
-58
-59
-59
-59
-58
-57
-59
-57
-55
-53
-51
-52
-53
-54
-54
-49
-45
-48
-53
-60
-64
-59
-55
-57
-59
-57
-53
-48
-46
-49
-53
-59
-59
-55
-53
-52
-52
-54
-52
-46
-44
-42
-51
-63
-60
-54
-53
-53
-56
-57
-58
-59
-53
-47
-48
-49
-53
-55
-45
-39
-48
-55
-53
-51
-53
-52
-42
-39
-46
-51
-55
-54
-48
-41
-32
-29
-28
-25
-22
-18
-14
-23
-36
-42
-46
-42
-36
-41
-48
-50
-51
-48
-45
-52
-59
-58
-56
-49
-43
-43
-51
-83
-115
-149
-163
-141
-85
21
152
314
434
514
567
596
491
291
105
-75
-169
-226
-234
-224
-210
-196
-181
-165
-135
-102
-87
-74
-75
-79
-80
-81
-78
-75
-74
-72
-62
-54
-59
-63
-60
-57
-56
-52
-42
-37
-42
-46
-50
-47
-32
-25
-24
-25
-29
-25
-15
-6
2
8
13
13
10
9
10
21
33
26
16
15
15
19
21
19
17
12
7
8
7
-6
-19
-30
-39
-40
-43
-51
-56
-53
-51
-53
-53
-46
-47
-56
-61
-62
-56
-44
-44
-52
-54
-52
-44
-34
-36
-43
-47
-50
-49
-46
-41
-36
-36
-37
-44
-51
-43
-35
-41
-47
-50
-53
-51
-49
-47
-45
-44
-43
-44
-47
-53
-57
-57
-53
-45
-41
-42
-48
-57
-60
-56
-55
-55
-52
-47
-41
-35
-44
-59
-61
-60
-58
-56
-48
-39
-41
-43
-46
-49
-52
-55
-53
-51
-48
-44
-40
-37
-40
-43
-44
-45
-46
-45
-40
-37
-40
-42
-44
-46
-48
-44
-36
-34
-36
-38
-40
-41
-42
-41
-38
-35
-32
-32
-34
-37
-35
-38
-35
-32
-29
-27
-26
-33
-39
-40
-41
-38
-35
-33
-31
-30
-29
-27
-26
-29
-30
-27
-24
-21
-20
-22
-20
-14
-11
-11
-8
-3
2
6
3
-4
-7
-10
-21
-32
-32
-30
-27
-25
-28
-31
-22
-13
-16
-20
-29
-37
-34
-33
-42
-63
-110
-139
-133
-90
6
131
291
421
521
581
608
563
468
286
55
-81
-175
-201
-202
-191
-174
-147
-117
-88
-60
-56
-54
-56
-61
-52
-43
-39
-35
-40
-45
-41
-37
-37
-35
-23
-16
-22
-29
-35
-34
-21
-13
-14
-14
-11
-5
3
9
13
18
23
22
17
19
25
33
41
47
52
55
58
56
52
48
51
53
63
52
41
35
29
22
16
5
-1
8
11
-5
-20
-31
-37
-30
-26
-29
-31
-34
-33
-29
-26
-23
-24
-29
-31
-32
-38
-45
-41
-33
-27
-22
-21
-21
-17
-12
-19
-28
-33
-37
-34
-31
-26
-21
-13
-8
-19
-27
-30
-32
-26
-20
-15
-11
-13
-23
-43
-54
-50
-43
-34
-29
-28
-27
-27
-28
-32
-33
-32
-31
-30
-39
-52
-45
-33
-27
-22
-28
-36
-36
-33
-31
-29
-37
-45
-41
-37
-30
-25
-26
-27
-25
-23
-22
-21
-23
-27
-33
-33
-23
-21
-30
-35
-35
-29
-18
-15
-19
-19
-15
-19
-28
-31
-31
-33
-36
-37
-37
-32
-26
-17
-25
-10
-13
-15
-17
-18
-20
-29
-36
-29
-20
-6
1
-14
-25
-24
-23
-21
-17
-12
-8
-3
2
8
11
12
6
-6
-1
16
4
-20
-28
-30
-23
-13
-18
-27
-29
-29
-10
10
-9
-29
-29
-29
-34
-43
-75
-105
-118
-123
-92
-34
98
233
377
489
546
590
614
541
351
168
-7
-123
-191
-216
-211
-194
-169
-139
-106
-91
-82
-79
-78
-63
-46
-42
-40
-53
-68
-67
-63
-48
-33
-34
-35
-33
-32
-39
-45
-42
-40
-45
-43
-20
-5
-7
-12
-21
-21
-5
3
6
8
11
14
17
19
20
25
32
37
40
46
53
58
62
60
56
41
24
19
23
10
7
7
7
-4
-13
-20
-25
-19
-17
-30
-41
-50
-57
-58
-56
-45
-40
-44
-48
-53
-54
-52
-48
-42
-32
-20
-27
-47
-56
-61
-52
-37
-30
-26
-30
-36
-41
-46
-43
-38
-32
-27
-36
-44
-29
-16
-32
-45
-48
-49
-37
-28
-33
-39
-49
-53
-47
-41
-35
-33
-38
-43
-48
-46
-37
-34
-36
-44
-57
-52
-37
-39
-47
-50
-52
-49
-44
-36
-28
-36
-46
-47
-47
-45
-43
-41
-39
-33
-29
-44
-56
-50
-44
-40
-37
-36
-35
-36
-37
-36
-37
-43
-47
-44
-44
-46
-45
-41
-36
-31
-35
-44
-38
-25
-28
-39
-39
-36
-37
-40
-34
-26
-9
-25
4
-1
-11
-21
-17
-13
-16
-21
-37
-49
-47
-42
-31
-27
-39
-44
-33
-27
-29
-34
-41
-40
-28
-35
-58
-95
-141
-151
-141
-63
44
178
321
434
538
574
596
548
491
245
-14
-122
-225
-227
-228
-213
-196
-166
-136
-102
-75
-77
-79
-76
-69
-56
-48
-51
-53
-54
-52
-44
-38
-36
-35
-35
-34
-31
-27
-23
-19
-15
-13
-13
-18
-25
-25
-22
-13
-2
3
8
14
21
26
31
34
37
42
47
49
52
59
65
68
67
53
45
52
53
43
33
21
14
9
5
0
-4
-7
-10
-13
-14
-12
-13
-16
-25
-36
-39
-38
-32
-26
-27
-30
-21
-31
-15
-21
-16
-12
-23
-33
-29
-25
-24
-22
-17
-13
-14
-16
-20
-23
-22
-17
-7
-5
-14
-24
-34
-36
-30
-26
-23
-23
-26
-27
-27
-27
-26
-18
-9
-13
-22
-34
-48
-44
-38
-34
-31
-31
-31
-30
-29
-27
-25
-27
-26
-12
-3
-15
-26
-37
-43
-34
-29
-30
-30
-26
-22
-20
-19
-20
-18
-12
-14
-24
-29
-33
-26
-12
-15
-23
-25
-24
-23
-24
-14
-2
-6
-13
-12
-11
-4
4
13
20
12
4
-6
-12
-6
-2
-7
-11
-13
-15
-14
-18
-32
-39
-36
-33
-28
-24
-21
-16
-10
-35
-78
-109
-135
-116
-84
20
140
278
419
504
583
608
587
512
387
164
-46
-123
-189
-186
-183
-177
-166
-136
-105
-77
-57
-57
-51
-35
-31
-46
-52
-45
-40
-37
-27
-11
-16
-34
-41
-40
-34
-27
-21
-15
-12
-10
-2
7
2
-6
4
16
19
21
20
19
24
30
42
53
47
43
44
49
64
76
80
79
65
57
59
59
54
49
44
34
19
14
16
12
4
1
0
-10
-24
-27
-27
-27
-27
-26
-24
-30
-38
-36
-31
-32
-33
-29
-25
-23
-22
-30
-36
-30
-24
-20
-18
-22
-23
-17
-10
-1
-5
-30
-39
-28
-18
-6
-8
-20
-24
-21
-17
-13
-13
-16
-17
-16
-15
-15
-28
-43
-39
-32
-30
-31
-25
-23
-23
-23
-26
-29
-29
-29
-23
-17
-7
-3
-17
-28
-33
-37
-35
-33
-33
-31
-26
-25
-29
-31
-30
-27
-23
-24
-29
-28
-23
-23
-26
-31
-38
-36
-32
-26
-20
-27
-36
-34
-31
-23
-15
-24
-32
-24
-17
-14
-13
-27
-36
-32
-28
-24
-19
-13
-7
-1
3
1
-3
-8
-11
-10
-13
-20
-24
-26
-31
-37
-34
-27
-35
-48
-40
-27
-31
-38
-37
-34
-47
-63
-107
-149
-139
-122
-56
25
180
330
455
557
591
591
507
365
114
-73
-161
-216
-228
-229
-214
-194
-168
-124
-65
-47
-54
-66
-80
-79
-70
-67
-68
-61
-51
-44
-38
-44
-52
-48
-53
-36
-31
-38
-45
-40
-36
-43
-48
-41
-33
-24
-14
-3
9
21
22
1
-7
5
16
29
31
22
19
25
31
40
43
43
49
58
58
54
33
7
3
2
3
6
-8
-24
-26
-27
-28
-29
-42
-53
-49
-46
-53
-58
-51
-45
-46
-47
-45
-43
-42
-39
-33
-34
-45
-50
-48
-47
-48
-45
-38
-34
-32
-38
-48
-43
-32
-21
-9
-28
-53
-49
-38
-41
-46
-52
-59
-33
-10
-38
-61
-40
-23
-41
-55
-55
-52
-36
-28
-39
-49
-56
-59
-53
-48
-45
-38
-25
-28
-45
-48
-39
-38
-43
-48
-53
-53
-50
-44
-37
-35
-36
-37
-38
-34
-28
-40
-27
-45
-35
-43
-51
-50
-47
-32
-20
-31
-40
-46
-49
-38
-34
-43
-44
-30
-27
-41
-43
-30
-23
-23
-29
-40
-45
-46
-45
-41
-29
-13
-17
-28
-24
-15
-13
-12
4
21
1
-22
-25
-27
-39
-51
-38
-27
-26
-25
-25
-25
-26
-25
-13
-11
-30
-43
-45
-46
-42
-53
-85
-112
-136
-114
-54
31
134
273
434
524
581
612
632
470
256
74
-101
-165
-213
-211
-204
-188
-171
-132
-94
-78
-63
-69
-71
-46
-25
-27
-32
-45
-55
-54
-50
-41
-28
-8
2
-1
-12
-33
-40
-34
-27
-19
-7
6
10
8
0
-10
-5
6
16
25
34
42
46
50
48
51
42
41
57
71
63
55
55
55
53
51
48
42
30
18
8
3
10
10
-2
-10
-15
-18
-21
-24
-26
-21
-11
-16
-30
-33
-29
-24
-19
-19
-22
-30
-39
-38
-34
-29
-24
-22
-21
-18
-15
-11
-7
-12
-17
-20
-20
-4
5
-10
-21
-23
-25
-26
-27
-25
-23
-24
-25
-25
-24
-22
-21
-20
-20
-24
-21
-15
-21
-32
-37
-40
-37
-32
-28
-24
-17
-10
-21
-35
-39
-43
-34
-25
-26
-27
-29
-31
-28
-25
-22
-19
-22
-25
-24
-23
-24
-24
-20
-18
-23
-26
-29
-31
-30
-26
-20
-17
-16
-16
-18
-20
-22
-23
-23
-20
-16
-15
-16
-17
-17
-17
-15
-16
-17
-15
-13
-11
-9
-10
-11
-12
-12
-6
1
7
14
22
24
16
8
1
-5
-10
-13
-12
-12
-14
-15
-16
-17
-18
-17
-14
-17
-22
-21
-18
-14
-10
-43
-80
-107
-133
-107
-76
19
121
267
405
501
583
613
603
483
329
102
-74
-161
-209
-199
-184
-164
-140
-112
-88
-66
-54
-49
-48
-50
-50
-48
-44
-39
-38
-40
-37
-32
-29
-26
-25
-25
-25
-23
-21
-19
-16
-13
-10
-7
-5
-3
-1
2
8
15
23
29
30
31
32
35
41
46
51
53
54
56
58
60
63
63
59
54
49
42
35
29
22
14
6
-2
-10
-13
-11
-17
-17
-22
-27
-29
-31
-32
-33
-33
-33
-34
-35
-35
-35
-36
-36
-32
-29
-30
-31
-30
-28
-26
-25
-26
-27
-26
-25
-25
-25
-26
-26
-24
-23
-23
-24
-26
-27
-27
-27
-27
-30
-33
-33
-33
-33
-33
-36
-39
-35
-32
-37
-41
-41
-41
-40
-39
-40
-42
-45
-47
-45
-43
-42
-41
-42
-43
-43
-43
-43
-43
-44
-45
-45
-45
-45
-45
-44
-42
-40
-39
-40
-42
-45
-45
-45
-44
-43
-43
-43
-43
-43
-43
-43
-40
-37
-39
-41
-41
-41
-42
-43
-41
-39
-40
-41
-40
-39
-38
-36
-34
-35
-38
-39
-39
-39
-39
-37
-34
-33
-32
-24
-16
-15
-15
-7
-1
-6
-11
-18
-25
-29
-33
-35
-37
-37
-37
-40
-43
-44
-44
-41
-39
-38
-37
-40
-38
-32
-49
-86
-120
-152
-143
-111
-16
106
250
402
491
565
602
633
453
246
65
-114
-179
-241
-236
-230
-213
-194
-169
-143
-114
-90
-82
-74
-70
-67
-67
-67
-65
-62
-58
-55
-54
-52
-50
-49
-49
-49
-48
-46
-44
-41
-38
-37
-37
-34
-30
-26
-22
-17
-12
-8
-4
-1
3
8
13
16
19
21
25
39
50
45
42
47
47
32
19
10
6
10
13
13
9
-2
-14
-27
-31
-27
-28
-33
-38
-43
-50
-57
-62
-66
-63
-58
-57
-58
-59
-60
-53
-61
-32
-21
-23
-27
-48
-67
-69
-71
-67
-58
-36
-21
-28
-35
-41
-44
-40
-37
-38
-39
-42
-45
-49
-52
-54
-57
-61
-63
-62
-59
-55
-51
-48
-50
-54
-55
-56
-51
-44
-43
-44
-49
-53
-52
-51
-57
-63
-61
-58
-52
-47
-48
-49
-49
-49
-49
-49
-48
-47
-49
-49
-43
-37
-32
-36
-49
-52
-47
-44
-42
-41
-42
-52
-64
-58
-46
-43
-43
-35
-26
-17
-8
-26
-47
-38
-29
-26
-23
-22
-21
-21
-22
-30
-37
-37
-35
-27
-25
-40
-49
-48
-46
-43
-41
-40
-39
-39
-34
-23
-36
-63
-92
-122
-129
-124
-67
7
140
288
410
527
564
593
561
595
273
26
-85
-189
-215
-236
-223
-210
-189
-161
-105
-65
-62
-59
-60
-59
-52
-48
-52
-53
-46
-46
-52
-51
-44
-39
-35
-25
-11
-2
5
2
-5
-20
-38
-30
-17
-8
0
-5
-12
1
15
9
4
26
46
56
62
41
25
29
38
57
69
62
55
49
50
63
60
36
29
42
35
10
-18
-46
-42
-19
-18
-28
-36
-43
-44
-42
-33
-23
-26
-32
-31
-28
-27
-29
-38
-47
-34
-24
-36
-46
-38
-27
-7
6
-10
-24
-34
-40
-35
-24
-4
7
8
4
-9
-15
-16
-17
-17
-20
-25
-22
-14
-18
-28
-38
-49
-21
17
-1
-30
-33
-32
-25
-31
-20
-23
-16
-9
-19
-27
-26
-25
-27
-29
-30
-29
-21
-15
-16
-12
4
5
-14
-29
-38
-38
-26
-25
-33
-22
4
-9
-42
-38
-17
-8
-3
3
8
9
10
-3
-19
-5
12
7
1
1
1
4
7
3
-3
-20
-30
-16
-9
-24
-35
-35
-32
-23
-19
-25
-29
-27
-34
-54
-80
-112
-126
-129
-77
8
143
301
424
534
579
604
569
520
303
62
-74
-201
-196
-185
-191
-195
-158
-123
-101
-81
-74
-69
-65
-57
-41
-31
-39
-45
-45
-41
-31
-26
-29
-30
-25
-27
-35
-35
-27
-17
-7
-6
-11
-8
1
1
-2
5
15
13
8
18
30
23
31
34
55
48
42
63
80
69
59
53
52
67
72
47
29
27
26
29
28
21
8
-13
-15
3
3
-13
-23
-30
-36
-41
-41
-38
-31
-21
-31
-46
-39
-27
-25
-26
-29
-32
-35
-37
-36
-35
-39
-40
-16
1
-22
-41
-41
-36
-16
-3
-11
-21
-32
-37
-31
-24
-16
-17
-30
-37
-36
-33
-29
-29
-33
-34
-32
-28
-24
-30
-39
-43
-46
-30
-11
-21
-34
-38
-43
-32
-21
-36
-48
-32
-20
-28
-34
-29
-24
-19
-18
-29
-36
-31
-23
-12
-5
-4
-1
4
6
4
1
-3
-8
-13
-21
-30
-35
-38
-39
-38
-36
-34
-32
-30
-31
-34
-33
-35
-28
-27
-24
-25
-75
-122
-145
-158
-121
-65
50
173
319
442
520
583
621
560
361
162
-36
-160
-215
-231
-217
-190
-154
-129
-111
-95
-79
-65
-50
-49
-52
-56
-60
-55
-48
-42
-36
-45
-55
-43
-31
-38
-44
-32
-21
-22
-23
-25
-24
-12
-3
-4
-5
-5
-3
3
9
14
18
20
25
33
38
40
42
46
47
47
50
54
49
41
37
34
41
50
37
22
15
7
-6
-19
-24
-28
-19
-13
-29
-43
-39
-35
-38
-42
-47
-50
-46
-43
-41
-41
-46
-48
-43
-36
-26
-22
-24
-23
-19
-24
-35
-40
-42
-43
-42
-35
-27
-21
-16
-17
-20
-32
-21
-28
-11
-27
-41
-42
-42
-33
-25
-29
-33
-28
-26
-32
-37
-37
-37
-38
-37
-32
-31
-38
-38
-32
-29
-29
-28
-25
-32
-46
-48
-43
-36
-29
-35
-45
-40
-31
-29
-29
-37
-46
-32
-17
-27
-36
-21
-7
-10
-13
-13
-13
-12
-10
-4
-2
-15
-21
-15
-15
-26
-33
-32
-31
-32
-34
-37
-42
-48
-51
-50
-42
-32
-33
-39
-36
-29
-61
-103
-126
-145
-132
-116
-36
47
198
347
456
556
592
601
458
297
66
-124
-194
-237
-216
-201
-199
-185
-152
-119
-86
-70
-75
-76
-73
-70
-68
-65
-61
-52
-41
-42
-51
-60
-69
-58
-42
-44
-50
-50
-48
-32
-47
-21
-27
-27
-27
-30
-33
-29
-24
-17
-8
6
15
8
7
22
32
35
37
37
41
52
50
34
25
19
18
21
21
18
10
-2
1
9
-2
-20
-33
-45
-47
-46
-48
-52
-52
-51
-46
-41
-44
-47
-46
-45
-41
-37
-39
-41
-39
-37
-33
-33
-40
-45
-43
-38
-31
-31
-39
-36
-21
-22
-36
-42
-46
-34
-15
-18
-32
-40
-47
-43
-35
-34
-36
-33
-28
-38
-51
-45
-39
-46
-52
-38
-25
-30
-36
-46
-52
-45
-39
-42
-45
-44
-41
-36
-34
-38
-35
-22
-24
-43
-53
-57
-47
-26
-26
-37
-36
-27
-32
-41
-43
-44
-39
-32
-31
-32
-35
-33
-34
-29
-33
-37
-26
-19
-35
-47
-35
-25
-27
-29
-30
-31
-32
-32
-29
-22
-9
-2
-5
-5
0
0
-6
-8
-6
-9
-16
-21
-25
-27
-27
-28
-30
-36
-42
-33
-20
-27
-36
-32
-27
-24
-23
-56
-87
-111
-131
-129
-110
-28
74
228
369
481
562
587
576
507
359
114
-58
-156
-203
-207
-203
-192
-173
-151
-120
-86
-67
-53
-57
-67
-56
-40
-40
-44
-46
-48
-47
-43
-30
-17
-20
-23
-29
-35
-35
-32
-12
1
-7
-13
-15
-13
2
7
-6
-6
12
19
12
11
16
29
46
52
49
45
42
43
48
49
49
49
49
45
40
39
40
36
41
24
19
15
11
4
-3
-3
-3
-5
-9
-18
-22
-10
-5
-17
-23
-16
-11
-9
-9
-14
-18
-21
-17
-6
-2
-5
-9
-13
-13
-9
-4
0
-2
-6
-11
-16
-13
-8
-4
0
-14
-29
-29
-29
-20
-11
-16
-21
-22
-21
-9
-3
-22
-31
-17
-10
-19
-27
-33
-34
-26
-21
-21
-21
-21
-18
-13
-16
-26
-28
-26
-21
-15
-13
-14
-22
-31
-22
-9
-7
-6
-11
-19
-21
-23
-27
-31
-31
-29
-13
-1
-15
-23
-15
-9
-12
-15
-14
-12
-8
-6
-9
-11
-11
-11
-12
-17
-25
-25
-18
-12
-7
-7
-10
-11
-11
-11
-12
-13
-13
0
16
17
17
-2
-19
-3
11
15
19
21
21
9
-1
-2
-4
-9
-12
-8
-6
-9
-11
-11
-9
-2
-4
-14
-19
-20
-17
-10
-22
-46
-82
-124
-124
-109
-43
36
171
317
431
542
573
600
573
538
294
60
-57
-163
-179
-192
-180
-165
-138
-111
-85
-64
-54
-47
-45
-43
-43
-40
-33
-28
-26
-22
-16
-18
-27
-31
-30
-21
-9
-16
-31
-27
-17
-10
-4
-1
2
4
6
11
17
14
11
16
21
23
26
34
41
41
43
52
59
62
64
60
57
55
53
53
55
60
54
35
23
16
13
13
11
7
-3
-16
-21
-24
-20
-13
-12
-14
-22
-30
-26
-31
-11
-3
-13
-23
-30
-35
-21
-9
-15
-19
-14
-11
-8
-5
-4
-3
-4
-10
-22
-26
-19
-16
-19
-21
-21
-19
-15
-12
-10
-17
-29
-17
4
-5
-24
-27
-28
-29
-29
-27
-24
-29
-35
-34
-32
-18
-6
-19
-30
-22
-15
-16
-18
-26
-31
-33
-35
-33
-31
-31
-28
-21
-20
-26
-24
-15
-15
-24
-29
-33
-30
-22
-19
-19
-21
-24
-21
-16
-22
-30
-28
-24
-27
-33
-28
-23
-28
-31
-12
3
-15
-30
-35
-37
-25
-17
-18
-19
-20
-21
-21
-25
-35
-35
-20
-14
-16
-20
-26
-25
-18
-21
-32
-27
-16
-16
-22
-23
-24
-26
-28
-28
-26
-17
-25
-13
-19
-17
-15
-14
-12
-5
1
-5
-8
1
7
8
7
0
-5
-5
-6
-9
-14
-23
-24
-17
-15
-19
-23
-27
-26
-21
-20
-22
-25
-28
-28
-26
-45
-70
-108
-148
-132
-112
7
129
283
431
507
579
613
606
401
201
14
-135
-183
-217
-215
-207
-188
-169
-149
-122
-88
-64
-48
-47
-58
-60
-54
-51
-51
-45
-36
-33
-33
-42
-54
-53
-48
-34
-19
-17
-18
-27
-37
-28
-19
-17
-15
-13
-11
-13
-13
-1
10
17
22
17
14
18
23
28
32
36
36
29
32
46
51
47
40
32
33
40
30
12
9
12
3
-11
-18
-24
-26
-28
-20
-29
-20
-31
-27
-24
-37
-49
-48
-46
-35
-26
-19
-15
-24
-32
-35
-35
-28
-21
-16
-18
-31
-35
-31
-29
-30
-31
-30
-25
-18
-20
-27
-30
-32
-33
-33
-38
-44
-38
-30
-32
-36
-42
-47
-39
-31
-36
-40
-31
-24
-35
-43
-45
-47
-45
-41
-34
-32
-42
-48
-45
-43
-43
-37
-25
-24
-33
-37
-37
-39
-43
-41
-35
-31
-28
-36
-48
-48
-44
-35
-24
-26
-30
-32
-35
-36
-37
-38
-39
-35
-31
-29
-27
-23
-21
-30
-37
-34
-29
-23
-22
-30
-34
-31
-29
-29
-29
-29
-30
-33
-32
-26
-23
-23
-23
-22
-20
-18
-24
-33
-28
-18
-17
-18
-19
-19
-14
-11
-10
-9
-4
1
4
7
7
6
-3
-9
-10
-11
-10
-12
-23
-30
-34
-32
-21
-16
-19
-23
-27
-28
-26
-23
-19
-39
-71
-98
-125
-111
-85
12
122
275
433
508
577
607
630
459
287
102
-70
-146
-208
-200
-191
-182
-169
-144
-117
-82
-58
-53
-50
-54
-56
-52
-43
-30
-26
-34
-34
-29
-25
-21
-20
-22
-26
-31
-25
-13
-11
-12
-8
-2
-3
-6
-6
-3
2
8
24
38
28
20
33
43
47
51
51
51
52
55
61
65
63
58
50
46
49
51
51
41
24
16
13
11
10
0
-13
-19
-22
-23
-23
-16
-8
-19
-32
-29
-33
-25
-27
-29
-31
-31
-31
-24
-19
-19
-19
-19
-19
-20
-21
-20
-19
-17
-14
-10
-11
-22
-27
-28
-27
-23
-19
-15
-18
-26
-31
-35
-30
-20
-20
-24
-21
-16
-25
-36
-39
-42
-35
-27
-17
-8
-25
-40
-32
-25
-31
-35
-34
-31
-22
-18
-31
-39
-40
-41
-39
-34
-26
-21
-22
-24
-26
-27
-26
-28
-35
-34
-29
-21
-13
-26
-45
-43
-35
-29
-24
-21
-18
-25
-35
-20
-6
-22
-37
-39
-40
-31
-23
-20
-17
-17
-19
-27
-31
-25
-20
-17
-15
-17
-19
-19
-11
4
10
8
10
16
17
13
-2
-20
-25
-26
-23
-18
-18
-20
-26
-32
-28
-33
-20
-19
-24
-29
-28
-26
-18
-14
-31
-54
-95
-125
-126
-112
-65
11
133
266
413
513
561
590
600
465
215
26
-125
-190
-210
-206
-190
-164
-135
-112
-91
-74
-57
-50
-44
-50
-58
-52
-45
-46
-47
-39
-31
-32
-32
-21
-14
-19
-24
-29
-31
-21
-14
-9
-8
-16
-15
-1
7
8
9
9
13
20
27
34
41
49
51
52
57
63
54
41
47
58
60
62
51
37
33
29
29
28
10
-5
-4
-5
-16
-25
-28
-30
-26
-23
-21
-23
-34
-42
-45
-42
-31
-25
-26
-34
-48
-43
-25
-14
-6
-16
-36
-41
-41
-38
-34
-26
-18
-21
-26
-25
-27
-19
-17
-21
-25
-32
-39
-32
-27
-31
-33
-20
-12
-18
-27
-39
-46
-40
-35
-29
-27
-34
-38
-40
-41
-40
-39
-40
-35
-26
-27
-33
-37
-40
-40
-38
-37
-37
-37
-36
-35
-36
-39
-41
-35
-29
-32
-34
-25
-18
-29
-38
-46
-52
-44
-39
-38
-36
-33
-32
-35
-36
-33
-31
-31
-31
-30
-31
-35
-38
-40
-36
-28
-25
-26
-31
-37
-34
-28
-23
-18
-23
-30
-32
-35
-25
-15
-12
-9
-4
0
-7
-14
-21
-25
-16
-12
-22
-30
-33
-35
-35
-34
-31
-34
-47
-51
-46
-42
-39
-32
-24
-47
-87
-118
-146
-129
-97
-17
74
222
380
474
562
597
567
470
308
95
-105
-176
-236
-227
-217
-206
-191
-166
-138
-106
-81
-74
-69
-70
-69
-64
-59
-52
-51
-55
-55
-51
-48
-45
-42
-40
-39
-38
-37
-37
-34
-30
-29
-28
-25
-22
-21
-21
-16
-11
-4
3
3
3
8
14
21
27
29
32
38
43
42
41
39
37
38
39
39
35
27
23
22
15
5
-6
-17
-23
-26
-30
-34
-39
-44
-45
-45
-44
-42
-41
-42
-43
-45
-45
-45
-43
-41
-43
-45
-45
-45
-41
-36
-32
-30
-34
-37
-38
-39
-39
-39
-37
-36
-39
-41
-41
-41
-41
-40
-38
-39
-43
-45
-44
-44
-46
-48
-50
-51
-50
-50
-52
-52
-53
-48
-47
-48
-49
-50
-51
-50
-49
-49
-49
-48
-47
-48
-49
-48
-47
-45
-43
-44
-45
-48
-49
-48
-46
-44
-44
-46
-47
-46
-45
-45
-43
-40
-40
-42
-43
-42
-41
-41
-40
-38
-40
-43
-41
-39
-35
-31
-30
-29
-23
-19
-16
-12
-8
-6
-11
-16
-20
-24
-28
-31
-32
-33
-34
-36
-38
-39
-39
-38
-36
-35
-36
-36
-34
-33
-32
-66
-109
-126
-139
-100
-55
62
181
325
464
518
570
601
593
373
162
-16
-158
-196
-220
-210
-196
-175
-149
-119
-94
-76
-65
-60
-56
-54
-52
-49
-44
-38
-36
-38
-38
-36
-33
-30
-29
-28
-25
-22
-20
-18
-15
-17
-6
-1
0
1
3
5
10
15
19
24
31
38
42
46
50
54
60
63
63
63
62
61
62
61
55
51
47
40
32
25
19
16
14
6
-3
-10
-16
-19
-22
-26
-30
-32
-33
-34
-35
-34
-33
-30
-27
-28
-29
-30
-31
-29
-27
-27
-27
-27
-27
-26
-25
-26
-25
-21
-19
-20
-22
-25
-26
-22
-22
-24
-25
-26
-28
-30
-31
-30
-28
-26
-27
-30
-31
-33
-33
-33
-34
-35
-34
-33
-34
-35
-33
-31
-31
-31
-32
-33
-34
-35
-34
-33
-33
-33
-32
-31
-32
-33
-32
-30
-28
-27
-28
-29
-29
-29
-29
-29
-28
-27
-28
-29
-28
-27
-27
-25
-23
-19
-15
-16
-17
-18
-18
-11
-5
-2
1
4
6
2
-2
-8
-12
-15
-18
-23
-25
-26
-28
-30
-30
-28
-27
-27
-27
-26
-23
-20
-22
-26
-65
-111
-127
-138
-93
-44
81
209
360
502
550
595
611
583
334
105
-54
-177
-203
-216
-199
-180
-158
-132
-99
-77
-67
-58
-51
-47
-48
-48
-46
-44
-40
-39
-38
-36
-34
-33
-32
-28
-24
-21
-18
-17
-17
-17
-15
-12
-9
-6
-3
0
3
10
16
21
26
33
39
41
44
48
52
56
59
59
59
59
59
59
57
53
50
48
41
30
22
15
10
4
-2
-9
-16
-22
-25
-28
-29
-29
-33
-35
-35
-35
-36
-37
-36
-35
-35
-35
-33
-31
-30
-29
-28
-27
-26
-25
-25
-25
-26
-26
-24
-23
-22
-21
-22
-23
-23
-23
-24
-23
-20
-21
-24
-25
-26
-27
-28
-29
-28
-28
-29
-30
-31
-32
-33
-30
-27
-29
-31
-34
-37
-34
-31
-31
-31
-31
-31
-32
-33
-34
-34
-31
-29
-30
-32
-34
-35
-34
-33
-34
-35
-34
-33
-34
-35
-34
-32
-30
-29
-30
-32
-35
-35
-35
-34
-33
-31
-29
-29
-29
-32
-34
-30
-27
-25
-23
-23
-23
-21
-16
-9
-5
-4
-2
0
-3
-10
-14
-16
-19
-23
-27
-30
-33
-36
-36
-34
-34
-36
-36
-34
-33
-33
-28
-23
-34
-49
-95
-135
-139
-132
-73
2
125
256
402
516
562
593
599
491
223
16
-123
-200
-218
-221
-208
-192
-172
-144
-111
-91
-77
-68
-61
-59
-59
-56
-52
-51
-51
-49
-46
-45
-45
-42
-39
-39
-39
-34
-29
-29
-29
-26
-23
-22
-20
-15
-11
-9
-6
-2
3
9
15
19
23
28
32
35
38
42
44
46
47
48
49
49
48
46
43
40
33
26
17
7
2
-3
-8
-13
-17
-21
-28
-33
-34
-35
-34
-33
-35
-37
-38
-39
-37
-35
-36
-36
-33
-31
-30
-29
-29
-28
-25
-23
-23
-25
-28
-27
-24
-23
-24
-25
-24
-24
-26
-27
-27
-28
-29
-29
-29
-29
-29
-30
-31
-34
-37
-35
-34
-38
-40
-37
-35
-34
-33
-32
-32
-37
-39
-38
-38
-40
-40
-38
-37
-38
-39
-39
-36
-31
-31
-34
-35
-36
-37
-36
-35
-35
-36
-37
-36
-35
-34
-33
-31
-29
-31
-33
-32
-31
-31
-31
-32
-33
-32
-31
-31
-31
-29
-26
-23
-21
-20
-19
-19
-16
-11
-7
-4
0
4
1
-4
-10
-16
-18
-20
-21
-22
-27
-33
-32
-31
-31
-31
-30
-29
-29
-29
-27
-25
-25
-37
-80
-113
-128
-121
-79
-7
105
233
380
483
549
594
623
520
334
141
-57
-149
-199
-207
-201
-182
-161
-138
-116
-92
-69
-62
-67
-51
-47
-42
-37
-38
-39
-36
-33
-31
-29
-26
-23
-23
-22
-19
-16
-13
-10
-7
-5
-4
-1
3
6
9
12
14
19
25
31
37
45
55
57
58
59
60
62
64
65
64
63
63
63
63
57
51
48
44
35
26
19
12
7
2
-5
-9
-11
-14
-17
-19
-20
-20
-18
-17
-18
-19
-19
-19
-18
-17
-17
-16
-14
-13
-12
-11
-11
-9
-6
-6
-8
-9
-9
-8
-7
-9
-11
-10
-9
-11
-13
-12
-11
-10
-9
-11
-13
-15
-17
-19
-21
-20
-19
-20
-21
-20
-19
-19
-18
-16
-16
-18
-20
-22
-23
-23
-23
-23
-23
-22
-21
-20
-19
-19
-17
-15
-15
-15
-17
-19
-18
-17
-19
-21
-19
-17
-17
-17
-17
-16
-13
-11
-13
-15
-15
-15
-15
-15
-15
-15
-15
-15
-14
-13
-12
-11
-10
-9
-10
-11
-11
-9
-6
-4
-2
2
5
9
13
17
21
22
22
13
5
1
-3
-4
-5
-6
-8
-11
-13
-14
-15
-13
-10
-8
-8
-10
-11
-10
-18
-32
-64
-104
-114
-112
-59
9
132
266
396
526
564
594
582
563
300
46
-74
-181
-186
-189
-171
-153
-129
-104
-74
-52
-47
-43
-41
-39
-37
-35
-33
-31
-28
-26
-23
-20
-18
-15
-11
-9
-9
-9
-8
-6
-4
-3
-2
1
4
7
10
14
11
28
37
38
39
43
47
52
57
59
61
66
69
69
69
69
69
70
69
64
58
51
44
38
31
24
19
15
8
0
-4
-6
-7
-7
-11
-16
-17
-18
-19
-20
-21
-21
-21
-21
-19
-17
-18
-19
-15
-11
-12
-13
-13
-13
-13
-13
-12
-11
-11
-11
-10
-9
-9
-8
-5
-4
-7
-10
-12
-13
-14
-15
-15
-15
-15
-16
-18
-19
-18
-17
-16
-17
-20
-21
-21
-21
-21
-21
-21
-21
-21
-21
-21
-22
-22
-17
-14
-19
-23
-23
-23
-22
-21
-19
-18
-21
-23
-22
-21
-22
-23
-22
-21
-20
-19
-19
-19
-20
-21
-20
-19
-20
-20
-18
-17
-17
-19
-21
-20
-19
-19
-19
-18
-17
-18
-19
-19
-19
-19
-19
-18
-17
-15
-13
-14
-15
-18
-19
-18
-17
-17
-18
-20
-21
-20
-17
-13
-8
-4
-2
0
3
6
10
14
13
10
2
-5
-8
-11
-14
-17
-16
-15
-18
-21
-23
-25
-24
-23
-25
-27
-27
-26
-22
-37
-78
-108
-126
-120
-91
-23
72
204
357
462
544
589
620
497
330
124
-90
-163
-216
-213
-204
-186
-167
-136
-106
-90
-75
-68
-61
-59
-57
-55
-53
-51
-49
-47
-45
-45
-44
-41
-39
-38
-37
-37
-36
-33
-30
-28
-25
-21
-19
-19
-17
-14
-10
-6
-3
0
4
8
13
18
25
19
36
39
42
45
43
41
43
45
43
41
39
37
34
29
22
15
9
2
-5
-11
-18
-22
-24
-27
-31
-36
-41
-43
-43
-43
-43
-41
-38
-38
-40
-41
-42
-42
-40
-39
-39
-38
-37
-37
-37
-37
-37
-32
-27
-30
-33
-33
-33
-34
-35
-35
-35
-37
-39
-41
-43
-41
-39
-38
-38
-41
-43
-44
-45
-44
-43
-44
-45
-46
-47
-48
-49
-49
-48
-46
-45
-46
-47
-47
-46
-45
-47
-49
-48
-47
-47
-47
-48
-49
-46
-43
-44
-45
-46
-47
-46
-45
-47
-48
-45
-44
-46
-47
-46
-45
-44
-44
-46
-45
-42
-41
-42
-43
-44
-45
-45
-45
-44
-43
-43
-40
-37
-38
-39
-39
-39
-40
-41
-40
-39
-41
-43
-41
-39
-38
-37
-35
-33
-34
-36
-39
-40
-38
-37
-36
-34
-31
-29
-29
-27
-24
-17
-9
-7
-8
-7
-4
-7
-12
-19
-26
-28
-29
-31
-33
-34
-35
-33
-31
-33
-35
-34
-33
-33
-33
-31
-34
-48
-72
-110
-132
-135
-94
-7
114
262
391
507
566
592
564
510
314
67
-65
-165
-192
-203
-194
-181
-164
-148
-120
-91
-77
-63
-62
-61
-56
-51
-49
-47
-45
-43
-40
-37
-36
-35
-35
-34
-30
-27
-27
-26
-21
-19
-18
-16
-14
-10
-5
-1
3
7
12
16
20
24
28
33
38
40
42
45
43
53
57
53
49
49
49
49
48
42
36
31
25
18
11
5
0
-3
-7
-13
-18
-23
-25
-25
-26
-28
-29
-30
-31
-32
-33
-32
-30
-28
-27
-27
-27
-27
-26
-24
-23
-24
-24
-23
-23
-23
-23
-23
-19
-15
-18
-21
-23
-25
-25
-25
-26
-27
-28
-29
-30
-31
-30
-28
-26
-27
-31
-33
-33
-33
-33
-33
-34
-35
-36
-37
-38
-38
-36
-34
-32
-32
-34
-35
-37
-36
-35
-36
-37
-35
-33
-34
-35
-34
-33
-30
-27
-30
-33
-34
-35
-34
-33
-33
-33
-34
-35
-35
-35
-35
-33
-29
-29
-32
-33
-33
-32
-30
-29
-30
-31
-30
-29
-28
-27
-27
-26
-23
-26
-29
-24
-19
-18
-17
-15
-12
-6
-1
0
1
1
0
-6
-10
-14
-18
-21
-23
-24
-26
-29
-31
-30
-29
-30
-31
-30
-27
-24
-21
-18
-49
-88
-113
-137
-108
-74
37
151
301
444
510
572
596
592
445
284
76
-95
-163
-209
-201
-188
-166
-141
-110
-87
-74
-65
-60
-57
-56
-54
-52
-50
-48
-46
-44
-43
-42
-40
-38
-37
-38
-35
-30
-28
-26
-25
-23
-20
-17
-15
-13
-9
-5
-2
1
5
10
17
23
26
30
34
39
44
47
48
49
52
52
50
48
46
44
41
35
29
22
13
8
2
-5
-13
-19
-24
-29
-34
-35
-35
-37
-37
-40
-43
-42
-41
-40
-39
-39
-39
-39
-39
-40
-41
-40
-38
-35
-33
-32
-31
-32
-33
-32
-31
-31
-31
-30
-30
-32
-33
-33
-33
-32
-31
-32
-34
-36
-37
-36
-36
-38
-41
-43
-43
-43
-42
-41
-40
-39
-42
-45
-45
-45
-46
-47
-46
-45
-46
-47
-47
-47
-46
-44
-41
-40
-43
-46
-49
-50
-48
-47
-46
-45
-45
-45
-46
-47
-47
-45
-42
-44
-48
-49
-49
-46
-43
-44
-45
-43
-41
-44
-47
-45
-43
-41
-39
-41
-43
-44
-44
-40
-37
-35
-32
-29
-25
-21
-18
-15
-12
-10
-15
-24
-29
-34
-36
-38
-39
-40
-42
-44
-45
-46
-47
-47
-42
-37
-41
-45
-42
-41
-57
-78
-115
-145
-145
-122
-38
66
209
343
462
543
571
571
535
386
131
-46
-161
-213
-223
-219
-207
-189
-169
-137
-103
-87
-77
-75
-75
-72
-68
-65
-62
-58
-55
-55
-55
-55
-55
-51
-47
-47
-47
-44
-41
-39
-37
-37
-36
-33
-31
-29
-26
-22
-15
-6
-1
-1
2
7
12
17
21
25
30
34
35
35
36
38
39
40
39
36
30
23
18
13
7
1
-5
-11
-18
-24
-30
-35
-37
-40
-44
-47
-49
-51
-53
-55
-54
-53
-52
-51
-52
-53
-52
-49
-45
-43
-44
-45
-45
-45
-44
-43
-42
-41
-41
-41
-42
-43
-43
-41
-39
-41
-43
-45
-47
-47
-47
-48
-49
-50
-51
-52
-53
-53
-53
-51
-49
-51
-53
-54
-55
-54
-53
-54
-55
-54
-53
-54
-55
-56
-54
-50
-50
-52
-53
-52
-51
-50
-50
-52
-53
-53
-53
-53
-54
-55
-52
-49
-48
-47
-50
-53
-50
-47
-48
-49
-48
-47
-47
-47
-46
-44
-41
-38
-36
-36
-38
-36
-29
-25
-22
-19
-16
-15
-16
-22
-30
-31
-30
-33
-38
-39
-41
-42
-43
-44
-45
-43
-41
-41
-41
-41
-40
-33
-33
-56
-83
-119
-140
-136
-100
-23
85
226
357
478
548
582
553
484
294
44
-93
-185
-208
-210
-200
-186
-165
-144
-115
-85
-76
-83
-62
-57
-55
-53
-53
-53
-50
-47
-44
-41
-41
-41
-39
-37
-35
-32
-28
-24
-21
-19
-18
-15
-11
-8
-6
-4
-1
3
7
13
19
25
31
35
38
42
46
50
54
55
55
55
55
53
51
47
43
40
36
28
20
13
6
0
-6
-13
-19
-25
-29
-30
-31
-33
-35
-34
-34
-36
-37
-38
-39
-38
-37
-36
-35
-34
-33
-34
-34
-32
-29
-26
-25
-25
-25
-27
-25
-23
-25
-27
-26
-25
-26
-27
-27
-27
-25
-23
-25
-27
-29
-31
-31
-31
-32
-33
-32
-32
-34
-35
-34
-32
-30
-30
-32
-34
-36
-36
-34
-33
-33
-33
-33
-33
-32
-31
-31
-27
-23
-26
-29
-30
-31
-30
-29
-29
-29
-29
-29
-29
-29
-28
-27
-25
-23
-24
-25
-24
-23
-24
-25
-24
-23
-24
-25
-24
-23
-22
-18
-14
-13
-14
-12
-8
-2
4
6
8
9
9
2
-5
-9
-13
-12
-11
-14
-17
-20
-23
-23
-23
-23
-23
-22
-21
-22
-23
-21
-19
-18
-43
-93
-119
-129
-90
-23
91
225
361
497
553
587
586
577
368
130
-18
-158
-183
-205
-187
-169
-153
-136
-103
-74
-64
-55
-53
-50
-44
-39
-39
-39
-39
-38
-35
-33
-31
-29
-28
-27
-26
-24
-21
-18
-15
-11
-8
-7
-6
-2
2
4
6
8
10
15
20
24
21
35
41
46
51
53
55
58
61
64
67
66
65
65
64
60
55
49
43
37
30
21
14
8
3
-1
-6
-11
-14
-16
-17
-18
-19
-19
-19
-20
-22
-24
-25
-24
-23
-22
-21
-21
-19
-17
-17
-17
-14
-11
-13
-15
-15
-15
-14
-13
-12
-11
-11
-11
-13
-15
-15
-14
-12
-12
-14
-16
-19
-21
-21
-21
-22
-23
-22
-22
-24
-25
-25
-25
-24
-24
-26
-27
-27
-28
-29
-28
-27
-26
-25
-27
-29
-29
-29
-27
-25
-26
-27
-29
-31
-31
-31
-30
-29
-30
-30
-27
-26
-28
-28
-26
-26
-28
-29
-28
-27
-27
-27
-28
-29
-28
-28
-30
-30
-31
-25
-23
-25
-27
-26
-25
-25
-25
-25
-25
-25
-25
-24
-23
-23
-23
-22
-21
-22
-23
-26
-25
-20
-17
-16
-14
-12
-9
-5
-2
0
6
13
11
6
-1
-10
-11
-12
-14
-16
-18
-19
-21
-23
-23
-23
-22
-21
-21
-21
-22
-22
-16
-20
-52
-84
-116
-131
-121
-73
21
140
284
407
515
573
598
566
500
305
51
-86
-180
-204
-208
-197
-181
-159
-135
-107
-78
-69
-59
-54
-49
-49
-49
-46
-43
-42
-41
-37
-33
-30
-27
-27
-27
-25
-21
-16
-13
-15
-17
-14
-12
-9
-6
-4
2
11
15
16
18
20
27
35
40
44
47
50
52
54
57
55
64
67
63
59
58
57
53
49
45
40
33
25
18
12
7
3
3
0
-8
-14
-17
-19
-18
-18
-20
-21
-20
-19
-18
-17
-16
-12
-8
-7
-8
-9
-9
-9
-9
-9
-9
-7
-5
-8
-11
-10
-9
-6
-3
-6
-9
-11
-13
-13
-13
-15
-17
-16
-15
-17
-19
-20
-20
-17
-16
-18
-20
-22
-23
-24
-25
-24
-23
-24
-25
-25
-24
-22
-20
-18
-18
-20
-21
-23
-22
-21
-22
-23
-22
-21
-22
-23
-23
-23
-21
-19
-19
-19
-20
-21
-19
-18
-21
-23
-20
-19
-19
-19
-19
-17
-13
-11
-12
-14
-16
-17
-17
-17
-16
-15
-15
-15
-14
-13
-13
-10
-9
-9
-9
-10
-11
-11
-11
-11
-11
-10
-9
-9
-9
-8
-6
-3
-2
-5
-7
-6
-3
2
5
5
6
8
11
15
19
23
27
30
25
17
11
6
4
2
0
-2
-5
-7
-7
-7
-5
-3
-2
-1
-4
-7
-4
-5
-20
-44
-87
-115
-114
-80
3
115
261
392
508
577
608
573
493
310
70
-66
-155
-180
-182
-171
-156
-138
-120
-89
-56
-48
-42
-41
-39
-35
-31
-31
-31
-28
-25
-23
-21
-19
-16
-12
-9
-10
-11
-10
-8
-5
-3
-2
0
3
6
9
13
17
22
28
32
34
39
45
50
54
57
60
63
66
68
70
71
71
74
77
73
69
63
57
50
44
37
30
24
18
13
7
1
-3
-3
-5
-10
-13
-14
-15
-14
-13
-14
-15
-15
-15
-14
-13
-13
-11
-8
-7
-6
-7
-10
-10
-8
-6
-4
-4
-5
-6
-7
-7
-7
-5
-3
-3
-3
-6
-9
-10
-11
-10
-10
-13
-15
-15
-15
-14
-13
-13
-13
-14
-15
-16
-17
-17
-17
-17
-17
-18
-19
-20
-20
-18
-17
-18
-19
-18
-18
-21
-20
-19
-20
-21
-20
-19
-21
-23
-20
-17
-16
-15
-15
-16
-19
-21
-19
-17
-17
-17
-16
-15
-15
-15
-16
-17
-16
-15
-15
-15
-15
-15
-15
-15
-14
-13
-13
-13
-13
-13
-13
-13
-13
-11
-9
-11
-13
-13
-13
-11
-9
-6
-3
-4
-4
0
5
11
15
17
19
16
12
6
1
-3
-5
-6
-8
-10
-12
-14
-14
-12
-12
-14
-15
-14
-13
-14
-12
-8
-33
-60
-94
-127
-118
-97
-1
104
251
389
494
579
613
604
495
345
121
-50
-142
-193
-193
-182
-160
-137
-113
-91
-69
-59
-55
-50
-45
-43
-43
-41
-38
-35
-32
-29
-26
-25
-25
-25
-25
-23
-21
-19
-17
-14
-11
-10
-9
-7
-4
2
7
9
12
16
21
26
30
33
37
42
47
51
53
54
58
63
64
62
60
58
56
54
50
46
39
32
26
20
15
19
4
-1
-8
-15
-20
-25
-25
-25
-27
-29
-30
-31
-31
-31
-29
-27
-27
-27
-26
-25
-26
-27
-26
-25
-24
-23
-24
-25
-24
-23
-23
-23
-23
-23
-22
-21
-22
-23
-23
-23
-23
-25
-27
-28
-29
-30
-31
-31
-31
-31
-31
-33
-35
-35
-35
-34
-33
-35
-37
-37
-37
-37
-37
-38
-39
-38
-37
-38
-39
-39
-38
-36
-37
-40
-41
-40
-39
-39
-39
-38
-37
-37
-37
-39
-38
-37
-37
-37
-36
-35
-37
-39
-39
-39
-38
-37
-36
-35
-36
-37
-36
-35
-35
-35
-35
-35
-35
-35
-34
-33
-33
-33
-34
-35
-34
-33
-34
-33
-30
-30
-32
-33
-33
-33
-33
-27
-23
-24
-25
-20
-15
-10
-5
-3
-2
-8
-14
-19
-23
-24
-25
-26
-28
-32
-35
-35
-35
-34
-33
-34
-35
-35
-34
-32
-35
-41
-71
-109
-130
-148
-107
-55
50
162
312
464
526
585
614
625
409
197
17
-140
-187
-222
-216
-207
-189
-169
-144
-119
-97
-81
-73
-69
-67
-63
-59
-56
-53
-51
-51
-51
-50
-49
-48
-44
-40
-39
-39
-38
-36
-32
-28
-24
-20
-19
-19
-16
-13
-9
-5
0
5
9
14
20
26
32
37
40
43
44
45
46
47
49
51
50
46
40
36
33
27
20
14
9
2
-7
-12
-18
-21
-24
-29
-34
-35
-36
-37
-37
-38
-37
-37
-37
-38
-39
-38
-37
-35
-33
-33
-33
-33
-33
-33
-32
-29
-27
-28
-29
-30
-31
-32
-33
-32
-31
-31
-32
-34
-35
-36
-36
-34
-34
-36
-39
-42
-43
-42
-41
-42
-45
-47
-45
-43
-43
-43
-42
-41
-42
-43
-44
-45
-45
-45
-45
-45
-45
-45
-44
-43
-44
-44
-41
-40
-42
-43
-43
-43
-43
-43
-42
-41
-42
-43
-42
-41
-41
-41
-41
-41
-40
-39
-41
-39
-37
-38
-39
-39
-39
-37
-35
-33
-31
-30
-27
-20
-15
-14
-11
-6
-4
-8
-14
-23
-28
-30
-31
-31
-32
-35
-37
-36
-35
-36
-37
-37
-37
-36
-32
-28
-39
-52
-92
-53
-135
-134
-65
11
146
282
421
541
576
600
586
500
232
11
-114
-197
-208
-210
-198
-182
-161
-135
-103
-84
-73
-68
-66
-63
-60
-57
-54
-50
-46
-45
-45
-44
-42
-40
-38
-37
-37
-33
-29
-27
-25
-24
-23
-18
-13
-10
-7
-6
-4
1
6
10
15
22
29
34
38
41
45
50
53
52
51
51
51
50
47
43
38
34
27
19
12
4
0
-4
-11
-18
-25
-33
-35
-37
-42
-47
-46
-45
-46
-47
-47
-47
-46
-45
-44
-43
-43
-43
-43
-43
-42
-41
-40
-39
-39
-39
-39
-38
-36
-35
-34
-33
-33
-33
-34
-35
-34
-35
-38
-39
-38
-38
-37
-40
-39
-40
-41
-43
-45
-45
-45
-44
-43
-45
-47
-46
-45
-46
-47
-47
-47
-45
-43
-44
-45
-45
-45
-46
-47
-46
-45
-46
-47
-46
-45
-45
-44
-42
-42
-44
-45
-44
-43
-42
-42
-43
-42
-41
-41
-41
-40
-39
-39
-39
-40
-41
-39
-37
-35
-32
-29
-27
-29
-29
-23
-17
-13
-10
-7
-6
-8
-13
-20
-25
-28
-29
-30
-33
-36
-37
-36
-36
-38
-38
-36
-35
-37
-37
-37
-32
-31
-67
-103
-128
-145
-121
-78
23
138
284
410
495
560
593
557
429
261
49
-94
-176
-210
-207
-193
-174
-148
-118
-98
-81
-74
-68
-65
-62
-61
-60
-58
-56
-54
-55
-49
-47
-45
-43
-43
-43
-39
-35
-34
-33
-30
-27
-25
-22
-19
-16
-12
-8
-4
0
3
7
12
19
26
30
33
37
41
44
46
48
50
51
52
51
48
44
40
33
26
19
13
6
-1
-8
-15
-18
-21
-27
-31
-35
-39
-41
-43
-44
-45
-44
-43
-42
-41
-41
-40
-38
-37
-36
-35
-36
-37
-36
-35
-35
-34
-32
-31
-32
-33
-32
-29
-26
-25
-25
-26
-29
-29
-29
-31
-33
-32
-31
-33
-35
-35
-35
-34
-33
-34
-35
-36
-37
-37
-37
-38
-39
-39
-39
-40
-41
-40
-38
-36
-35
-35
-36
-38
-39
-38
-37
-37
-37
-38
-39
-40
-41
-41
-36
-33
-34
-35
-36
-37
-36
-35
-36
-37
-35
-33
-33
-33
-33
-33
-31
-29
-30
-31
-34
-34
-32
-32
-34
-34
-32
-31
-31
-31
-30
-28
-26
-25
-26
-28
-30
-31
-31
-31
-30
-28
-27
-27
-27
-27
-27
-25
-23
-25
-27
-26
-25
-23
-21
-20
-18
-15
-12
-9
-5
0
4
6
2
-7
-13
-17
-20
-24
-25
-26
-29
-32
-33
-33
-33
-32
-31
-31
-31
-31
-29
-25
-42
-61
-105
-145
-145
-133
-56
33
161
291
427
534
573
600
605
511
261
52
-101
-192
-217
-222
-208
-187
-163
-134
-102
-85
-74
-71
-71
-70
-68
-63
-58
-57
-57
-57
-56
-54
-55
-47
-43
-40
-37
-39
-41
-38
-35
-32
-29
-28
-26
-22
-18
-14
-9
-3
2
5
8
13
16
19
22
25
30
36
39
40
41
41
44
49
48
44
37
30
25
20
13
6
-2
-9
-14
-19
-24
-29
-31
-33
-37
-41
-41
-41
-42
-43
-44
-45
-45
-45
-45
-45
-44
-41
-36
-33
-34
-35
-36
-37
-37
-37
-38
-38
-36
-35
-35
-35
-34
-32
-30
-31
-34
-35
-37
-40
-43
-43
-43
-44
-45
-45
-45
-44
-43
-42
-41
-42
-43
-45
-47
-47
-47
-46
-45
-48
-49
-48
-47
-47
-46
-44
-43
-44
-45
-46
-47
-47
-46
-44
-44
-46
-47
-47
-47
-47
-44
-43
-43
-43
-44
-45
-44
-43
-41
-39
-42
-45
-45
-45
-43
-41
-41
-41
-40
-39
-40
-41
-42
-42
-40
-39
-40
-41
-42
-42
-40
-39
-38
-37
-36
-36
-38
-39
-39
-36
-32
-35
-39
-38
-37
-37
-37
-36
-35
-34
-33
-35
-37
-36
-35
-33
-31
-32
-33
-34
-35
-34
-33
-32
-31
-30
-30
-32
-32
-28
-28
-30
-31
-31
-29
-26
-24
-22
-19
-16
-11
-6
-5
-7
-4
-1
-8
-15
-18
-21
-23
-25
-25
-25
-27
-29
-31
-33
-33
-33
-31
-29
-31
-31
-26
-38
-66
-97
-130
-135
-122
-53
43
176
324
438
543
586
614
538
442
214
-29
-122
-41
-207
-207
-197
-186
-167
-147
-116
-89
-77
-67
-62
-59
-57
-55
-53
-50
-44
-41
-40
-39
-42
-42
-39
-36
-34
-32
-30
-29
-28
-25
-22
-18
-14
-12
-10
-7
-4
0
4
7
10
16
21
25
29
33
37
40
43
44
45
45
45
46
47
46
44
40
36
32
27
22
17
12
7
3
-3
-12
-16
-20
-21
-22
-25
-28
-29
-29
-29
-29
-29
-29
-28
-26
-25
-25
-24
-23
-23
-23
-23
-23
-22
-21
-21
-21
-22
-23
-21
-19
-20
-21
-22
-23
-22
-21
-24
-25
-26
-27
-27
-27
-27
-27
-28
-29
-30
-31
-32
-32
-30
-32
-36
-36
-34
-33
-33
-35
-35
-32
-29
-32
-35
-35
-35
-33
-31
-32
-33
-33
-33
-32
-31
-30
-29
-28
-28
-31
-32
-30
-29
-29
-29
-29
-29
-30
-30
-28
-24
-20
-22
-26
-27
-27
-27
-27
-27
-28
-27
-25
-25
-25
-25
-25
-21
-17
-19
-21
-22
-23
-23
-23
-22
-21
-21
-21
-19
-17
-18
-18
-15
-14
-16
-18
-20
-20
-16
-15
-14
-11
-8
-7
-7
-2
4
8
12
13
13
8
1
-3
-7
-11
-15
-13
-11
-15
-19
-20
-21
-18
-15
-17
-19
-20
-21
-19
-17
-17
-37
-79
-109
-128
-111
-65
25
142
281
430
517
580
613
638
500
322
135
-55
-133
-199
-196
-203
-167
-146
-120
-94
-76
-61
-56
-51
-49
-47
-45
-43
-41
-39
-37
-34
-31
-29
-28
-27
-26
-24
-22
-20
-18
-17
-16
-14
-12
-9
-5
-3
-2
3
8
11
14
19
24
30
36
40
43
47
51
54
57
59
61
63
65
63
61
58
55
53
48
39
31
23
16
9
3
-2
-7
-11
-16
-21
-23
-23
-23
-24
-26
-28
-29
-30
-29
-26
-25
-25
-25
-24
-24
-27
-25
-23
-21
-19
-19
-19
-21
-23
-21
-19
-16
-13
-15
-17
-18
-19
-18
-17
-17
-17
-20
-21
-22
-23
-23
-22
-20
-21
-24
-25
-25
-25
-26
-27
-28
-29
-28
-28
-30
-31
-31
-27
-25
-27
-29
-30
-31
-29
-27
-28
-29
-30
-31
-30
-29
-30
-30
-27
-25
-27
-29
-30
-31
-30
-29
-30
-31
-30
-29
-29
-27
-24
-23
-23
-23
-24
-27
-30
-29
-26
-26
-28
-28
-27
-27
-27
-27
-27
-23
-19
-22
-25
-25
-25
-24
-23
-27
-29
-27
-24
-20
-17
-17
-13
-5
-1
0
2
4
5
6
3
-5
-9
-12
-16
-20
-21
-20
-20
-22
-24
-26
-27
-27
-27
-27
-27
-27
-23
-21
-39
-60
-98
-128
-132
-115
-44
46
173
305
443
538
578
602
609
472
206
12
-130
-193
-209
-209
-198
-181
-160
-133
-103
-84
-68
-64
-62
-58
-54
-50
-53
-44
-43
-41
-39
-39
-39
-37
-35
-31
-27
-28
-29
-27
-24
-21
-18
-15
-13
-11
-8
-5
0
6
10
13
18
24
29
33
39
45
49
52
54
56
57
56
55
56
53
48
45
43
36
29
24
19
11
4
-4
-12
-19
-25
-27
-29
-33
-35
-37
-39
-38
-37
-36
-34
-31
-30
-32
-33
-33
-33
-32
-31
-30
-29
-28
-27
-27
-27
-27
-24
-20
-21
-24
-25
-27
-27
-27
-28
-29
-30
-31
-31
-31
-31
-31
-29
-27
-29
-31
-33
-35
-34
-34
-37
-38
-35
-34
-37
-39
-38
-36
-33
-33
-36
-37
-37
-36
-34
-34
-36
-36
-34
-33
-34
-35
-35
-32
-27
-29
-31
-31
-31
-31
-31
-32
-33
-31
-29
-30
-31
-30
-29
-27
-25
-27
-29
-29
-28
-26
-25
-26
-27
-28
-28
-26
-23
-20
-16
-11
-11
-14
-12
-8
-2
4
5
6
5
3
-4
-11
-13
-15
-14
-13
-16
-19
-23
-27
-26
-25
-25
-25
-25
-25
-24
-21
-15
-27
-60
-91
-122
-121
-96
-16
96
235
388
487
567
609
641
491
303
107
-91
-157
-211
-204
-193
-172
-150
-119
-90
-73
-59
-56
-53
-50
-46
-41
-37
-36
-35
-34
-33
-31
-29
-29
-28
-23
-21
-21
-20
-18
-14
-9
-7
-6
-3
0
4
10
12
14
22
30
34
38
43
39
54
59
63
67
66
65
67
69
69
69
66
62
58
53
46
40
37
32
22
13
4
-3
-7
-12
-18
-21
-22
-25
-28
-29
-28
-27
-26
-25
-25
-27
-30
-30
-28
-27
-28
-27
-25
-26
-27
-24
-21
-18
-15
-15
-15
-16
-17
-17
-17
-18
-19
-18
-17
-18
-19
-20
-20
-17
-16
-18
-20
-22
-24
-26
-26
-24
-24
-26
-27
-27
-27
-26
-24
-22
-22
-24
-25
-27
-27
-27
-27
-27
-26
-25
-26
-27
-26
-25
-23
-21
-22
-23
-24
-25
-25
-25
-26
-27
-24
-23
-24
-24
-22
-20
-18
-18
-20
-21
-22
-23
-22
-21
-20
-19
-20
-21
-21
-20
-21
-15
-13
-15
-17
-17
-17
-17
-17
-15
-13
-8
-5
-7
-7
-1
5
11
15
15
13
6
1
-4
-8
-10
-11
-12
-15
-18
-19
-19
-19
-18
-17
-18
-19
-19
-16
-12
-23
-36
-78
-119
-126
-128
-56
23
159
293
425
536
571
596
590
513
280
79
-68
-164
-189
-196
-180
-160
-136
-110
-81
-64
-55
-50
-48
-46
-44
-42
-40
-39
-38
-37
-36
-32
-28
-27
-26
-25
-23
-23
-23
-20
-17
-14
-11
-9
-7
-4
0
4
7
10
14
17
21
27
31
33
38
45
51
55
58
60
62
65
67
66
63
60
57
54
47
39
30
22
17
12
4
11
-7
-9
-17
-25
-26
-27
-29
-31
-32
-33
-33
-33
-34
-35
-34
-32
-29
-27
-28
-29
-32
-33
-32
-31
-31
-31
-31
-31
-30
-29
-29
-26
-22
-23
-26
-28
-30
-30
-28
-27
-28
-29
-29
-30
-31
-34
-37
-29
-24
-31
-37
-33
-29
-30
-31
-32
-32
-27
-26
-35
-41
-43
-46
-49
-46
-37
-32
-30
-32
-37
-39
-38
-35
-32
-34
-38
-34
-28
-29
-32
-41
-50
-56
-63
-53
-43
-40
-37
-39
-41
-44
-46
-41
-36
-31
-28
-32
-37
-43
-47
-45
-43
-42
-37
-28
-30
-43
-47
-41
-39
-40
-37
-31
-31
-34
-35
-36
-37
-38
-38
-36
-35
-34
-34
-33
-30
-23
-28
-33
-23
-16
-26
-33
-20
-8
1
4
-8
-19
-25
-30
-34
-37
-36
-37
-44
-49
-53
-51
-43
-41
-45
-42
-34
-33
-37
-38
-36
-69
-112
-134
-152
-125
-92
19
135
295
452
516
577
602
603
427
246
38
-134
-178
-212
-220
-219
-199
-175
-145
-118
-94
-75
-61
-51
-47
-53
-68
-72
-67
-56
-40
-35
-34
-36
-40
-33
-21
-32
-48
-42
-30
-34
-40
-22
-1
-13
-25
-14
-3
-3
-3
-4
-3
8
18
24
30
34
34
22
15
16
30
62
63
28
16
28
43
60
67
68
47
15
2
-3
-5
-5
-14
-27
-26
-22
-10
2
-20
3
-50
-55
-39
-26
-39
-50
-42
-35
-34
-33
-32
-31
-31
-32
-37
-37
-26
-20
-24
-29
-36
-36
-30
-20
-7
-15
-40
-37
-17
-20
-33
-39
-42
-39
-34
-33
-34
-35
-35
-32
-28
-17
-7
-18
-29
-34
-40
-48
-53
-41
-31
-35
-39
-42
-41
-27
-22
-36
-43
-38
-35
-35
-29
-17
-18
-31
-41
-50
-48
-40
-34
-29
-28
-30
-35
-40
-30
-15
-21
-32
-39
-46
-42
-35
-29
-23
-27
-32
-41
-45
-18
3
-8
-20
-33
-43
-41
-38
-33
-28
-25
-26
-34
-36
-29
-26
-29
-21
-4
-5
-18
-24
-26
-20
-10
-1
7
7
4
-3
-10
-19
-28
-26
-29
-19
-17
-28
-39
-33
-27
-30
-33
-30
-28
-33
-34
-20
-25
-69
-106
-130
-134
-106
-46
50
178
336
452
537
584
605
557
471
274
30
-91
-172
-199
-212
-196
-172
-149
-125
-100
-76
-64
-53
-54
-55
-59
-63
-55
-48
-41
-35
-38
-41
-41
-40
-35
-31
-31
-29
-23
-19
-21
-23
-22
-20
-17
-14
-12
-5
5
5
-1
3
12
18
22
34
49
51
52
53
53
51
47
51
55
56
57
51
45
45
44
37
30
26
19
5
-7
-13
-17
-17
-20
-27
-32
-35
-36
-33
-34
-40
-41
-37
-34
-32
-35
-41
-40
-36
-30
-23
-26
-32
-29
-24
-27
-23
-27
-21
-23
-25
-23
-22
-30
-36
-28
-21
-16
-14
-20
-26
-29
-30
-26
-24
-27
-30
-35
-34
-27
-25
-31
-33
-34
-34
-32
-28
-23
-24
-28
-32
-36
-33
-28
-27
-28
-33
-38
-33
-27
-30
-33
-33
-33
-29
-26
-32
-35
-25
-18
-23
-28
-32
-33
-27
-23
-25
-27
-27
-29
-34
-31
-20
-17
-21
-26
-31
-29
-23
-21
-21
-22
-24
-25
-26
-26
-24
-23
-24
-24
-21
-19
-17
-18
-19
-17
-15
-15
-13
-2
8
12
13
4
-3
-5
-10
-19
-23
-17
-14
-17
-22
-29
-31
-27
-25
-24
-23
-24
-27
-30
-27
-21
-53
-95
-111
-123
-104
-81
48
-79
346
505
555
601
593
549
289
53
-76
-179
-197
-207
-192
-172
-143
-114
-85
-64
-56
-54
-63
-66
-64
-55
-39
-34
-36
-39
-43
-46
-48
-46
-41
-30
-17
-23
-33
-34
-32
-31
-32
-26
-19
-14
-9
-9
-8
1
9
9
9
13
20
33
42
37
35
42
47
48
49
50
56
67
65
50
41
37
35
34
28
20
7
-7
-12
-14
-19
-24
-27
-30
-37
-44
-46
-49
-43
-37
-44
-51
-46
-41
-48
-53
-49
-45
-46
-46
-42
-39
-39
-38
-34
-33
-38
-41
-38
-37
-36
-35
-35
-34
-32
-32
-34
-33
-28
-28
-30
-35
-42
-46
-50
-48
-44
-43
-43
-40
-39
-41
-43
-41
-39
-41
-43
-46
-49
-48
-47
-45
-43
-41
-39
-39
-39
-40
-42
-45
-47
-47
-47
-46
-45
-45
-47
-50
-46
-39
-37
-37
-34
-30
-35
-44
-47
-50
-47
-42
-42
-43
-42
-41
-39
-37
-39
-41
-40
-39
-41
-43
-40
-37
-35
-34
-37
-38
-34
-31
-33
-31
-22
-20
-26
-30
-32
-24
-8
-7
-15
-17
-18
-15
-10
-15
-23
-25
-24
-23
-24
-27
-31
-34
-37
-34
-31
-32
-33
-37
-40
-33
-26
-19
-28
-80
-124
-150
-147
-96
-15
106
238
381
483
549
594
625
520
331
139
-56
-150
-206
-215
-209
-194
-178
-160
-141
-108
-73
-70
-71
-65
-63
-53
-43
-44
-45
-42
-39
-38
-37
-42
-44
-40
-36
-31
-27
-27
-27
-25
-20
-11
-8
-10
-11
-10
-6
-1
2
4
14
27
30
28
29
32
37
42
49
56
56
54
51
49
53
57
45
35
35
34
28
23
23
20
7
-3
-7
-12
-21
-27
-28
-29
-30
-28
-22
-24
-33
-36
-33
-31
-32
-29
-21
-22
-26
-26
-24
-23
-22
-12
0
-8
-18
-20
-23
-18
-13
-16
-19
-21
-23
-20
-17
-15
-13
-13
-13
-12
-12
-17
-22
-26
-26
-18
-15
-22
-26
-29
-29
-25
-23
-23
-24
-26
-27
-28
-29
-30
-27
-22
-26
-32
-30
-26
-28
-25
-27
-21
-17
-14
-25
-35
-36
-37
-33
-29
-30
-31
-30
-30
-33
-33
-27
-23
-23
-23
-26
-25
-21
-18
-16
-20
-29
-32
-30
-23
-14
-8
-4
-8
-15
-9
1
2
0
6
14
2
-11
-12
-13
-10
-7
-7
-8
-19
-27
-27
-27
-28
-28
-21
-18
-21
-21
-13
-15
-31
-59
-101
-124
-132
-97
-33
74
206
346
490
553
587
603
613
416
176
15
-135
-173
-202
-191
-177
-160
-142
-116
-92
-74
-59
-58
-54
-35
-23
-33
-41
-41
-40
-35
-30
-26
-21
-16
-15
-22
-22
-16
-13
-14
-12
-6
-2
0
1
1
5
11
14
16
25
36
37
38
45
39
56
59
60
61
71
79
76
72
66
61
60
58
53
47
41
34
25
17
11
5
0
-10
-24
-31
-30
-28
-25
-31
-43
-45
-42
-41
-40
-38
-36
-35
-34
-34
-36
-37
-36
-37
-39
-35
-31
-35
-39
-35
-31
-31
-31
-28
-24
-19
-17
-25
-30
-27
-27
-32
-33
-27
-25
-29
-30
-28
-31
-40
-42
-40
-35
-27
-29
-35
-36
-34
-36
-40
-39
-36
-34
-32
-31
-31
-39
-47
-45
-43
-39
-35
-34
-33
-29
-26
-32
-37
-39
-39
-33
-29
-31
-33
-34
-36
-41
-42
-40
-37
-31
-31
-35
-38
-40
-42
-44
-42
-38
-37
-36
-35
-36
-35
-32
-32
-31
-25
-15
-18
-21
-24
-26
-19
-14
-23
-31
-32
-34
-38
-42
-45
-46
-42
-38
-35
-38
-51
-57
-56
-55
-54
-51
-47
-45
-46
-79
-125
-146
-158
-126
-81
26
144
297
455
522
584
603
613
336
70
-80
-212
-227
-237
-224
-209
-191
-167
-128
-98
-88
-81
-83
-84
-81
-77
-71
-61
-48
-48
-61
-67
-67
-65
-61
-57
-53
-46
-39
-42
-49
-41
-29
-30
-34
-31
-26
-25
-23
-20
-17
-14
-10
0
9
11
16
35
48
41
35
37
40
43
45
47
48
45
41
34
30
28
20
6
-2
-8
-12
-14
-14
-12
-23
-39
-46
-50
-51
-50
-46
-42
-43
-41
-51
-55
-51
-47
-50
-53
-49
-44
-37
-31
-30
-27
-18
-17
-36
-52
-61
-63
-51
-45
-48
-47
-43
-39
-33
-28
-23
-31
-48
-50
-45
-48
-55
-50
-41
-38
-36
-54
-75
-64
-50
-54
-59
-64
-69
-61
-53
-47
-41
-44
-49
-59
-62
-43
-30
-37
-45
-57
-62
-54
-48
-45
-46
-53
-51
-38
-40
-52
-59
-63
-54
-38
-36
-41
-47
-52
-43
-31
-37
-46
-47
-46
-35
-23
-34
-45
-45
-44
-30
-17
-20
-24
-29
-30
-14
-4
-10
-14
-11
-11
-16
-23
-35
-37
-26
-24
-31
-35
-35
-38
-44
-45
-41
-37
-32
-34
-38
-35
-28
-50
-78
-109
-141
-132
-143
-46
31
169
307
439
557
590
602
520
398
145
-62
-152
-213
-214
-211
-197
-180
-156
-127
-92
-77
-81
-78
-69
-63
-59
-55
-52
-46
-39
-41
-47
-49
-48
-41
-34
-26
-18
-23
-30
-24
-17
-18
-19
-21
-22
-12
-3
-1
1
2
7
26
38
34
31
32
33
35
38
41
49
61
65
60
57
58
54
46
46
51
40
22
12
5
0
-4
-5
-5
-18
-32
-35
-39
-30
-21
-26
-32
-45
-56
-49
-43
-43
-43
-41
-38
-32
-28
-32
-37
-42
-42
-35
-31
-30
-28
-26
-25
-26
-30
-35
-34
-29
-27
-28
-29
-29
-29
-30
-29
-26
-27
-30
-33
-31
-35
-33
-30
-28
-41
-52
-45
-39
-36
-34
-39
-40
-28
-23
-38
-46
-42
-35
-23
-21
-30
-36
-39
-41
-42
-41
-37
-33
-30
-33
-39
-36
-29
-28
-30
-32
-34
-35
-34
-34
-36
-35
-33
-35
-37
-33
-29
-32
-34
-26
-20
-28
-33
-25
-19
-23
-26
-29
-30
-27
-24
-20
-15
-10
-7
-7
-6
-3
1
5
-2
-15
-19
-18
-22
-29
-31
-32
-26
-18
-21
-26
-28
-31
-28
-25
-28
-31
-29
-32
-68
-101
-125
-135
-100
-46
55
170
316
438
523
585
618
559
401
214
1
-125
-187
-206
-198
-184
-166
-136
-100
-82
-70
-67
-68
-65
-60
-59
-58
-57
-57
-49
-43
-43
-43
-35
-28
-35
-41
-39
-37
-32
-29
-28
-27
-25
-22
-19
-17
-15
-13
-13
-7
7
17
24
24
19
25
37
47
56
55
49
58
72
60
42
44
50
48
44
38
33
23
13
13
12
-3
-15
-16
-20
-35
-44
-32
-29
-49
-63
-65
-65
-57
-53
-54
-52
-46
-42
-39
-43
-53
-54
-49
-47
-46
-43
-40
-43
-48
-45
-40
-39
-38
-40
-44
-37
-27
-35
-43
-45
-47
-47
-47
-43
-40
-50
-54
-38
-30
-40
-48
-53
-54
-45
-43
-52
-54
-47
-43
-44
-45
-46
-46
-44
-47
-54
-54
-49
-47
-46
-49
-54
-51
-46
-47
-50
-42
-51
-39
-47
-50
-52
-41
-32
-46
-56
-49
-43
-46
-49
-52
-52
-43
-39
-45
-49
-48
-47
-48
-42
-28
-30
-48
-51
-42
-39
-39
-41
-45
-39
-28
-30
-37
-32
-23
-21
-20
-18
-16
-6
3
-12
-27
-33
-39
-33
-27
-26
-27
-41
-50
-46
-43
-43
-42
-39
-37
-38
-38
-34
-37
-49
-75
-112
-132
-141
-110
-55
53
185
325
467
537
586
602
611
387
128
-26
-170
-207
-241
-230
-218
-193
-169
-147
-123
-97
-74
-68
-62
-58
-56
-61
-61
-46
-38
-42
-47
-52
-52
-45
-40
-38
-35
-31
-32
-37
-34
-26
-22
-20
-19
-20
-21
-21
-8
7
7
4
8
3
29
43
40
37
40
44
51
57
51
47
49
51
51
49
42
38
41
40
30
21
12
6
3
-5
-16
-24
-29
-32
-34
-31
-25
-25
-28
-29
-29
-35
-44
-38
-30
-26
-22
-21
-21
-26
-31
-33
-34
-26
-19
-17
-17
-27
-30
-11
-2
-18
-31
-37
-39
-33
-29
-27
-26
-28
-29
-29
-23
-13
-20
-37
-40
-35
-33
-32
-34
-38
-36
-32
-33
-36
-36
-34
-32
-29
-34
-39
-29
-20
-30
-39
-36
-33
-33
-33
-30
-27
-24
-23
-32
-37
-36
-31
-22
-19
-26
-30
-32
-30
-24
-22
-24
-26
-28
-27
-24
-25
-28
-25
-20
-19
-20
-24
-28
-29
-29
-14
1
-9
-19
-16
-12
-5
2
8
13
10
5
-2
-6
-3
-3
-9
-13
-13
-20
-35
-39
-30
-26
-29
-29
-25
-21
-17
-15
-15
-28
-47
-80
-117
-123
-123
-61
10
136
266
403
536
573
606
585
535
275
38
-88
-187
-189
-190
-185
-174
-152
-125
-90
-65
-52
-49
-59
-60
-49
-41
-36
-33
-34
-36
-40
-34
-22
-22
-27
-29
-30
-30
-28
-10
11
3
-8
-11
-15
-3
9
8
7
16
23
21
20
30
40
52
61
62
63
63
65
70
74
77
77
70
66
63
63
69
63
48
38
30
20
10
4
0
-5
-10
-11
-10
-14
-20
-23
-21
-27
-27
-25
-23
-26
-29
-25
-22
-28
-33
-31
-27
-20
-15
-16
-17
-15
-13
-12
-11
-10
-10
-12
-9
-1
-6
-23
-24
-16
-13
-14
-18
-22
-19
-14
-13
-14
-17
-20
-24
-28
-26
-23
-20
-17
-18
-19
-18
-17
-18
-21
-31
-37
-28
-21
-23
-25
-24
-24
-28
-31
-30
-24
-14
-14
-23
-27
-28
-25
-18
-19
-25
-27
-26
-22
-18
-19
-22
-24
-26
-20
-12
-13
-17
-22
-27
-18
-9
-15
-21
-23
-25
-22
-19
-19
-18
-14
-12
-17
-21
-20
-19
-19
-18
-13
-13
-17
-14
-5
-1
-1
3
10
11
6
9
15
12
5
-3
-10
-6
0
-8
1
-14
-9
-7
-6
-17
-27
-20
-15
-19
-23
-21
-18
-13
-23
-66
-101
-122
-120
-83
-7
114
248
394
495
559
599
624
560
449
257
32
-91
-179
-193
-186
-169
-150
-127
-103
-67
-30
-41
-53
-55
-57
-50
-43
-35
-29
-27
-26
-31
-35
-36
-35
-28
-21
-14
-12
-21
-27
-25
-18
-8
-5
-10
-9
-2
3
7
11
15
19
22
27
32
41
51
59
66
67
67
65
61
63
65
61
57
59
61
65
66
46
31
34
34
20
8
-1
-8
-11
-16
-23
-29
-34
-37
-37
-36
-34
-31
-27
-28
-33
-29
-20
-27
-40
-40
-36
-33
-30
-28
-26
-25
-25
-26
-27
-27
-27
-22
-18
-26
-32
-26
-22
-28
-33
-32
-31
-29
-27
-28
-28
-25
-25
-30
-34
-37
-39
-38
-36
-33
-33
-36
-35
-31
-29
-29
-27
-24
-33
-45
-41
-34
-29
-24
-24
-25
-34
-43
-38
-33
-27
-22
-30
-37
-37
-36
-31
-27
-28
-29
-30
-31
-30
-29
-28
-28
-30
-31
-30
-29
-29
-26
-19
-17
-18
-24
-31
-29
-24
-23
-23
-24
-26
-27
-28
-29
-27
-26
-25
-23
-21
-20
-19
-16
-13
-9
-5
-3
-1
-3
-3
4
7
0
-8
-16
-16
-5
-7
-24
-31
-31
-32
-34
-31
-24
-25
-31
-25
-14
-13
-16
-32
-51
-91
-133
-137
-135
-65
15
151
287
416
532
570
601
600
536
266
35
-96
-191
-212
-219
-200
-183
-166
-147
-124
-99
-72
-55
-48
-50
-59
-55
-41
-39
-43
-45
-45
-39
-31
-31
-34
-36
-38
-32
-24
-28
-33
-30
-26
-12
1
-5
-11
-7
-1
11
20
15
12
19
24
28
31
30
34
45
52
55
60
68
67
58
53
49
50
55
51
43
41
40
25
8
4
2
-5
-12
-14
-17
-17
-17
-25
-33
-33
-32
-25
-20
-28
-34
-29
-25
-24
-24
-28
-30
-26
-22
-19
-17
-16
-15
-15
-17
-21
-23
-24
-25
-26
-27
-27
-25
-22
-21
-22
-24
-26
-28
-30
-31
-31
-25
-21
-28
-35
-32
-29
-28
-27
-29
-32
-38
-42
-38
-35
-34
-33
-33
-31
-25
-26
-37
-39
-31
-25
-19
-23
-35
-38
-36
-35
-34
-28
-21
-23
-30
-34
-38
-35
-30
-28
-26
-30
-35
-32
-29
-31
-33
-27
-21
-27
-30
-25
-21
-24
-27
-25
-23
-21
-18
-15
-13
-15
-12
-2
3
4
4
1
-4
-11
-14
-16
-20
-24
-23
-20
-22
-26
-22
-16
-17
-20
-25
-31
-31
-31
-27
-25
-47
-73
-116
-147
-126
-88
-1
97
219
341
466
555
585
602
598
469
206
8
-134
-199
-206
-199
-181
-164
-148
-124
-98
-72
-46
-47
-55
-58
-60
-56
-50
-48
-49
-41
-37
-40
-43
-40
-37
-30
-25
-25
-25
-26
-26
-20
-14
-9
-5
-5
-7
-12
-12
-3
2
4
10
19
29
39
41
37
42
52
56
58
60
62
63
62
60
58
52
46
46
47
36
25
16
7
2
-4
-12
-20
-26
-31
-31
-31
-27
-29
-40
-47
-47
-46
-42
-36
-29
-28
-36
-38
-36
-34
-32
-33
-36
-31
-23
-27
-35
-33
-28
-28
-30
-31
-30
-27
-23
-31
-39
-32
-25
-31
-37
-36
-35
-36
-35
-27
-25
-39
-48
-45
-41
-35
-33
-39
-43
-40
-39
-38
-38
-40
-40
-38
-37
-37
-37
-37
-38
-40
-42
-44
-43
-40
-41
-44
-38
-45
-32
-35
-36
-37
-35
-33
-34
-35
-37
-39
-37
-35
-37
-36
-27
-23
-29
-33
-35
-37
-38
-39
-40
-40
-37
-33
-29
-27
-26
-25
-24
-23
-24
-19
-11
-10
-12
-10
-6
2
10
0
-11
-23
-35
-32
-29
-26
-23
-19
-17
-28
-37
-37
-37
-39
-40
-36
-33
-31
-30
-33
-59
-108
-131
-132
-115
-85
3
121
262
413
505
577
612
636
474
273
84
-102
-165
-217
-210
-199
-176
-151
-119
-88
-71
-57
-55
-55
-70
-79
-67
-58
-53
-49
-48
-46
-42
-40
-43
-43
-36
-32
-29
-28
-31
-32
-30
-21
-9
-11
-20
-23
-22
-14
-5
4
12
9
4
11
3
31
41
46
51
53
55
54
53
53
54
61
65
56
45
32
24
27
23
6
-5
-10
-13
-12
-18
-31
-35
-31
-33
-40
-45
-49
-42
-30
-35
-45
-50
-54
-49
-42
-37
-32
-34
-37
-41
-45
-38
-31
-29
-27
-33
-36
-31
-29
-41
-48
-44
-40
-37
-37
-43
-45
-40
-36
-34
-35
-39
-42
-45
-46
-44
-43
-42
-43
-46
-47
-47
-49
-52
-49
-44
-43
-44
-45
-47
-48
-49
-49
-49
-45
-41
-44
-47
-47
-47
-46
-45
-47
-47
-40
-38
-47
-53
-52
-49
-42
-38
-36
-38
-44
-48
-50
-49
-45
-43
-44
-48
-52
-49
-42
-41
-41
-36
-30
-41
-29
-45
-35
-33
-31
-41
-47
-31
-19
-32
-44
-49
-51
-43
-36
-31
-27
-28
-24
-11
-5
-12
-14
-12
-14
-20
-24
-27
-29
-29
-31
-35
-37
-36
-39
-44
-43
-40
-35
-30
-29
-28
-29
-31
-37
-44
-67
-91
-126
-150
-121
-74
34
151
297
427
524
598
631
579
399
205
-9
-143
-196
-216
-207
-196
-184
-166
-144
-117
-87
-71
-60
-62
-69
-67
-62
-54
-46
-43
-40
-39
-39
-43
-47
-38
-29
-30
-32
-40
-46
-40
-33
-24
-17
-20
-21
-15
-9
-4
-1
-1
4
15
20
17
20
31
36
38
39
39
41
46
54
63
56
45
42
40
39
38
29
37
15
11
10
8
-4
-15
-22
-27
-33
-37
-36
-35
-36
-38
-41
-41
-34
-29
-29
-29
-30
-27
-18
-21
-35
-40
-38
-32
-24
-21
-22
-24
-26
-23
-18
-28
-41
-39
-34
-32
-30
-31
-33
-28
-23
-32
-41
-40
-39
-36
-33
-34
-35
-34
-33
-33
-33
-32
-33
-38
-43
-48
-48
-41
-37
-36
-35
-34
-31
-27
-29
-35
-37
-38
-38
-36
-30
-24
-27
-32
-33
-33
-34
-37
-36
-35
-36
-36
-26
-17
-22
-28
-33
-35
-25
-18
-24
-29
-29
-29
-31
-32
-28
-25
-26
-26
-24
-24
-26
-26
-23
-20
-18
-17
-18
-15
-9
-2
5
9
12
7
0
-8
-1
-15
-13
-11
-9
-10
-12
-26
-36
-29
-23
-23
-23
-24
-25
-26
-23
-12
-20
-57
-94
-131
-136
-109
-45
48
171
314
433
541
596
628
562
462
248
5
-108
-197
-207
-206
-185
-164
-131
-99
-84
-69
-67
-64
-51
-39
-41
-43
-46
-48
-40
-35
-39
-38
-28
-21
-20
-22
-29
-28
-18
-14
-17
-18
-16
-13
-9
-5
-2
7
18
17
11
12
16
31
47
49
48
47
47
56
65
67
69
64
59
58
57
57
57
58
55
38
27
25
22
18
8
-8
-17
-16
-19
-29
-34
-36
-37
-36
-34
-32
-30
-28
-29
-32
-29
-22
-28
-38
-35
-30
-22
-29
-20
-27
-22
-17
-20
-23
-22
-21
-20
-19
-19
-20
-26
-29
-23
-18
-12
-12
-19
-24
-27
-24
-14
-14
-25
-30
-32
-27
-18
-23
-35
-36
-31
-27
-24
-25
-28
-29
-30
-30
-28
-24
-21
-26
-31
-32
-31
-13
0
-18
-33
-35
-36
-31
-27
-26
-26
-30
-33
-32
-29
-24
-22
-24
-20
-11
-14
-26
-29
-25
-23
-23
-23
-22
-21
-21
-26
-32
-27
-20
-16
-12
-22
-35
-28
-21
-12
-3
-4
-5
-1
3
3
3
3
3
6
7
0
-5
-6
-9
-14
-17
-16
-17
-21
-22
-19
-15
-11
-7
-4
-14
-29
-30
-26
-25
-24
-59
-101
-120
-138
-113
-139
36
160
321
473
543
606
633
620
429
236
32
-129
-179
-207
-188
-169
-150
-126
-93
-72
-63
-59
-58
-54
-48
-45
-45
-44
-42
-39
-36
-32
-28
-27
-27
-24
-20
-19
-20
-25
-30
-24
-17
-19
-21
-15
-8
1
9
9
9
13
18
23
30
40
47
45
44
48
54
61
65
65
64
62
62
64
64
60
52
40
32
25
22
20
9
-3
-9
-14
-15
-14
-23
-35
-39
-43
-46
-49
-45
-41
-40
-39
-38
-36
-32
-29
-30
-33
-39
-41
-35
-33
-38
-40
-37
-33
-28
-27
-33
-35
-34
-33
-32
-31
-30
-29
-30
-35
-42
-32
-19
-29
-44
-42
-45
-35
-33
-39
-45
-37
-29
-33
-37
-33
-30
-35
-39
-41
-43
-45
-46
-43
-39
-33
-31
-36
-41
-45
-45
-39
-39
-43
-41
-35
-35
-39
-39
-36
-35
-36
-43
-50
-41
-30
-28
-26
-35
-45
-38
-31
-38
-44
-35
-27
-33
-37
-40
-43
-40
-37
-35
-33
-34
-35
-34
-32
-28
-23
-19
-20
-28
-33
-37
-39
-39
-36
-31
-27
-24
-19
-14
-9
-4
2
8
-2
-14
-7
3
-14
-31
-34
-37
-30
-23
-26
-29
-29
-28
-23
-20
-25
-29
-28
-26
-23
-33
-62
-89
-116
-131
-136
-85
9
139
289
419
539
592
620
587
533
312
52
-76
-183
-199
-206
-205
-207
-175
-148
-116
-86
-71
-57
-64
-68
-62
-55
-44
-36
-40
-43
-43
-42
-36
-31
-26
-25
-32
-34
-31
-26
-20
-21
-28
-27
-20
-14
-9
0
10
11
8
8
10
16
22
27
32
42
51
51
52
65
76
64
53
56
59
55
50
46
42
38
33
27
20
12
7
9
6
-4
-14
-24
-26
-20
-20
-25
-22
-14
-21
-35
-40
-42
-40
-36
-28
-20
-22
-26
-27
-25
-24
-23
-21
-19
-14
-10
-17
-23
-21
-20
-24
-26
-22
-19
-21
-24
-28
-31
-29
-27
-28
-31
-35
-33
-25
-24
-29
-31
-30
-24
-17
-22
-33
-39
-44
-41
-36
-28
-20
-28
-19
-32
-25
-32
-39
-33
-27
-28
-29
-30
-31
-31
-30
-24
-21
-29
-32
-21
-16
-20
-25
-32
-34
-32
-31
-30
-30
-32
-28
-20
-19
-23
-22
-18
-21
-26
-28
-30
-27
-22
-21
-20
-17
-15
-22
-29
-25
-21
-16
-11
-9
-7
-3
4
16
22
12
4
0
-2
1
1
-4
-9
-14
-18
-21
-24
-26
-27
-27
-26
-24
-17
-8
-11
-19
-25
-30
-62
-98
-120
-142
-87
-28
91
212
358
495
553
607
636
613
384
168
-6
-141
-184
-210
-198
-181
-154
-128
-101
-80
-65
-57
-57
-55
-49
-47
-47
-45
-41
-37
-32
-33
-36
-33
-28
-29
-32
-28
-22
-14
-21
-10
-15
-21
-27
-17
-9
-10
-10
-1
7
9
13
22
31
39
48
59
60
47
45
58
63
58
56
59
60
57
51
44
43
46
43
37
27
15
0
-17
-11
-2
-11
-22
-31
-39
-38
-37
-34
-31
-27
-24
-36
-45
-45
-44
-40
-36
-31
-27
-26
-28
-36
-38
-31
-22
-11
-11
-24
-29
-28
-27
-27
-27
-26
-26
-28
-29
-30
-29
-26
-20
-14
-16
-20
-27
-35
-35
-35
-35
-35
-28
-21
-23
-26
-33
-38
-33
-29
-30
-32
-36
-38
-35
-34
-38
-38
-29
-25
-26
-27
-28
-28
-26
-29
-35
-35
-30
-31
-34
-35
-34
-33
-34
-36
-38
-33
-39
-23
-21
-27
-33
-30
-27
-32
-37
-35
-32
-27
-23
-25
-28
-31
-31
-24
-19
-20
-21
-22
-23
-24
-25
-24
-23
-24
-22
-17
-12
-7
-1
5
8
10
9
6
-3
-12
-11
-8
-16
-25
-23
-21
-23
-25
-22
-19
-23
-28
-33
-36
-30
-23
-16
-22
-54
-85
-116
-132
-129
-81
11
133
281
407
518
580
614
573
496
294
47
-83
-180
-200
-204
-185
-161
-134
-106
-89
-71
-62
-53
-56
-59
-59
-59
-59
-59
-55
-49
-39
-31
-32
-32
-29
-26
-22
-24
-38
-43
-38
-33
-28
-24
-22
-16
-8
0
8
8
3
-2
-6
5
20
28
34
37
40
41
41
49
55
55
55
49
43
44
45
41
37
34
26
7
-7
-6
-5
-7
-14
-26
-34
-37
-43
-51
-54
-52
-50
-48
-47
-48
-50
-52
-46
-36
-38
-45
-46
-44
-44
-46
-48
-50
-36
-21
-33
-45
-45
-44
-36
-30
-39
-47
-44
-41
-39
-37
-41
-39
-28
-25
-36
-45
-50
-50
-43
-41
-45
-47
-48
-48
-46
-45
-46
-50
-54
-48
-39
-38
-40
-43
-46
-48
-50
-51
-53
-53
-53
-40
-30
-39
-47
-44
-41
-43
-45
-47
-49
-48
-46
-43
-41
-43
-45
-47
-49
-46
-46
-48
-46
-40
-37
-37
-39
-42
-42
-40
-36
-32
-31
-31
-39
-50
-49
-46
-42
-45
-40
-43
-45
-47
-42
-37
-36
-35
-35
-35
-34
-33
-35
-36
-33
-31
-30
-28
-24
-21
-22
-19
-11
-6
-3
-7
-19
-23
-23
-28
-36
-33
-23
-28
-37
-41
-44
-45
-45
-34
-22
-28
-35
-37
-39
-41
-48
-94
-136
-155
-156
-84
3
132
267
414
526
574
610
628
527
278
76
-78
-166
-198
-214
-219
-207
-185
-156
-124
-98
-75
-61
-51
-60
-75
-69
-58
-52
-46
-46
-49
-51
-53
-48
-43
-40
-37
-39
-40
-33
-26
-21
-17
-19
-21
-21
-18
-10
-5
-7
-6
1
6
9
13
19
27
37
41
42
43
42
42
44
49
56
55
52
47
42
35
41
21
15
7
-1
-5
-9
-13
-18
-27
-35
-35
-34
-29
-26
-29
-32
-36
-39
-40
-37
-26
-23
-28
-32
-35
-37
-37
-33
-26
-23
-22
-23
-26
-27
-27
-29
-32
-26
-18
-27
-38
-36
-33
-27
-21
-26
-31
-36
-41
-39
-37
-37
-37
-40
-42
-38
-35
-34
-34
-38
-40
-37
-33
-28
-26
-29
-34
-39
-44
-49
-43
-31
-33
-41
-45
-48
-45
-40
-33
-26
-26
-28
-30
-33
-34
-35
-30
-25
-26
-27
-32
-37
-36
-35
-36
-36
-32
-29
-31
-33
-34
-35
-33
-30
-25
-25
-29
-27
-19
-18
-24
-29
-33
-29
-20
-20
-24
-25
-26
-25
-22
-14
-6
-5
-5
-1
3
15
25
1
-21
-17
-13
-15
-18
-23
-27
-26
-26
-31
-32
-24
-19
-19
-20
-23
-27
-32
-29
-18
-46
-100
-129
-146
-103
-33
89
228
365
501
557
598
621
641
412
165
-1
-161
-187
-211
-198
-185
-163
-140
-105
-75
-65
-57
-60
-63
-62
-58
-49
-42
-38
-37
-42
-39
-26
-20
-23
-29
-36
-36
-31
-25
-19
-17
-16
-16
-18
-18
-16
-8
0
5
10
14
19
20
21
31
41
38
35
42
48
56
64
70
74
69
65
63
59
53
48
44
39
32
24
14
6
0
-8
-16
-21
-24
-25
-26
-30
-36
-35
-32
-30
-28
-34
-42
-40
-43
-29
-23
-30
-37
-34
-31
-31
-31
-25
-21
-23
-25
-26
-25
-17
-10
-7
-12
-29
-33
-18
-14
-20
-25
-31
-33
-32
-29
-25
-26
-31
-32
-30
-26
-22
-24
-28
-25
-20
-21
-24
-24
-23
-31
-39
-39
-39
-31
-25
-29
-33
-32
-31
-29
-28
-32
-32
-23
-17
-19
-21
-21
-22
-24
-29
-37
-40
-38
-34
-27
-23
-20
-25
-33
-31
-25
-23
-24
-15
-2
-12
-24
-26
-29
-30
-31
-28
-25
-20
-15
-17
-19
-20
-21
-19
-17
-19
-20
-15
-11
-10
-5
5
11
10
12
19
15
-1
-7
-6
-8
-13
-17
-22
-20
-14
-14
-16
-19
-22
-23
-24
-18
-25
-7
-5
-2
-3
-48
-90
-115
-134
-128
-101
-6
105
258
396
506
586
618
599
509
350
111
-53
-146
-189
-195
-180
-151
-129
-111
-92
-72
-61
-53
-51
-51
-48
-44
-38
-32
-29
-26
-30
-35
-27
-19
-13
-7
-12
-17
-18
-19
-20
-21
-23
-23
-13
-6
-2
1
3
7
12
19
27
32
34
41
51
55
56
59
63
66
68
67
64
63
64
64
62
61
61
50
37
30
23
18
13
12
10
-3
-14
-24
-28
-16
-10
-24
-35
-42
-44
-36
-30
-27
-27
-34
-37
-37
-32
-21
-17
-18
-20
-22
-24
-26
-20
-11
-16
-25
-25
-22
-26
-32
-28
-33
-22
-23
-23
-23
-22
-22
-29
-34
-25
-18
-27
-32
-28
-26
-31
-32
-21
-15
-16
-22
-33
-40
-43
-38
-25
-22
-28
-32
-34
-30
-22
-25
-35
-36
-34
-32
-30
-29
-28
-23
-18
-22
-27
-33
-39
-36
-33
-34
-35
-31
-27
-27
-27
-28
-29
-28
-27
-25
-24
-28
-31
-29
-25
-20
-20
-28
-32
-34
-30
-20
-18
-20
-21
-22
-22
-20
-24
-32
-26
-18
-16
-14
-13
-11
-12
-13
-5
3
7
10
1
-7
-5
-4
-9
-13
-10
-11
-24
-32
-28
-25
-25
-25
-25
-24
-21
-15
-7
-18
-42
-73
-107
-126
-139
-67
34
164
301
424
545
584
615
572
617
284
50
-70
-179
-190
-198
-190
-179
-158
-136
-114
-93
-79
-67
-60
-54
-51
-45
-35
-32
-39
-43
-43
-39
-32
-28
-26
-27
-31
-28
-21
-17
-14
-12
-10
-17
-27
-21
-12
-8
-4
1
5
12
19
22
25
30
35
36
39
48
55
57
59
59
57
50
45
47
50
53
55
54
45
30
20
14
11
11
2
-11
-15
-14
-19
-27
-29
-28
-22
-16
-27
-40
-37
-31
-31
-31
-30
-29
-25
-21
-23
-25
-21
-17
-14
-12
-17
-22
-27
-30
-26
-24
-28
-28
-21
-20
-26
-29
-30
-28
-23
-24
-29
-31
-30
-29
-29
-29
-29
-33
-38
-37
-34
-35
-33
-33
-27
-29
-31
-35
-39
-39
-39
-37
-34
-28
-23
-24
-27
-33
-34
-26
-23
-29
-34
-37
-37
-32
-28
-26
-26
-29
-31
-31
-26
-19
-20
-25
-19
-7
-20
-38
-35
-28
-27
-27
-20
-13
-16
-19
-20
-20
-10
-1
-4
-7
-6
-1
14
20
1
-13
-22
-27
-25
-23
-21
-20
-22
-22
-20
-17
-13
-13
-17
-22
-27
-23
-15
-25
-42
-75
-112
-117
-117
-52
18
151
287
417
541
578
609
591
534
268
31
-92
-186
-191
-189
-168
-152
-148
-131
-93
-64
-48
-44
-57
-63
-62
-56
-45
-38
-33
-31
-30
-29
-29
-26
-22
-19
-16
-18
-22
-25
-28
-21
-29
0
11
5
-1
-3
-4
6
16
25
33
35
38
42
45
45
49
63
71
72
72
67
65
64
63
63
64
67
57
37
31
30
23
13
3
-9
-11
-10
-19
-32
-33
-33
-33
-33
-32
-31
-35
-39
-31
-25
-31
-35
-38
-39
-27
-20
-24
-26
-23
-22
-26
-28
-24
-19
-14
-13
-18
-21
-22
-22
-20
-19
-19
-24
-31
-31
-28
-19
-9
-16
-28
-30
-32
-29
-23
-23
-23
-26
-29
-26
-23
-26
-29
-33
-37
-38
-37
-29
-23
-25
-29
-34
-37
-38
-34
-23
-18
-21
-23
-23
-26
-31
-35
-38
-35
-29
-27
-28
-29
-29
-25
-20
-23
-28
-29
-29
-19
-7
-2
2
-18
-35
-37
-39
-33
-29
-24
-21
-18
-14
-10
-4
4
9
7
4
1
0
3
3
-1
-9
-21
-25
-24
-28
-36
-33
-23
-21
-22
-23
-24
-25
-25
-16
-6
-40
-75
-104
-131
-128
-113
-15
89
223
353
473
568
598
611
586
476
216
10
-117
-188
-191
-183
-163
-146
-133
-109
-79
-67
-67
-61
-52
-52
-56
-53
-47
-43
-40
-33
-26
-24
-22
-31
-43
-35
-27
-22
-17
-21
-25
-23
-19
-7
2
-3
-6
0
5
6
8
11
16
24
33
42
46
44
45
51
61
76
73
61
57
57
57
57
55
52
52
54
37
16
11
15
4
3
-4
-11
-16
-21
-26
-31
-27
-23
-25
-29
-38
-44
-39
-33
-27
-24
-27
-30
-35
-34
-27
-22
-19
-20
-26
-26
-21
-19
-18
-20
-24
-21
-16
-20
-26
-27
-27
-20
-12
-15
-19
-23
-27
-31
-35
-30
-25
-21
-17
-21
-26
-32
-37
-33
-32
-35
-36
-33
-28
-21
-17
-18
-22
-30
-34
-37
-34
-26
-28
-36
-39
-39
-36
-32
-29
-26
-28
-32
-31
-28
-28
-31
-29
-27
-23
-20
-29
-37
-33
-29
-31
-32
-27
-25
-33
-39
-38
-36
-32
-29
-28
-27
-28
-27
-23
-22
-24
-25
-25
-25
-26
-25
-22
-21
-22
-19
-14
-13
-13
-12
-10
5
-9
11
1
-9
-19
-24
-29
-28
-27
-31
-33
-22
-16
-28
-37
-35
-32
-28
-26
-30
-31
-24
-43
-87
-120
-143
-130
-91
-7
101
244
403
501
579
617
644
501
325
131
-64
-148
-223
-218
-211
-196
-179
-152
-123
-87
-58
-65
-70
-65
-60
-56
-54
-59
-59
-48
-41
-42
-43
-41
-37
-32
-31
-36
-33
-23
-22
-27
-31
-34
-31
-25
-19
-14
-13
-12
-1
12
13
14
15
17
27
37
41
45
43
42
52
61
59
55
45
39
48
50
35
23
17
12
8
4
1
-5
-13
-21
-28
-30
-28
-31
-37
-41
-44
-43
-40
-43
-50
-49
-46
-45
-45
-39
-45
-24
-17
-27
-37
-36
-34
-27
-21
-27
-32
-37
-41
-42
-42
-39
-36
-30
-28
-32
-36
-39
-37
-29
-30
-39
-46
-51
-47
-38
-37
-41
-41
-38
-39
-42
-43
-43
-48
-54
-48
-40
-37
-35
-42
-49
-48
-47
-43
-39
-38
-37
-35
-34
-40
-45
-49
-50
-46
-43
-43
-41
-35
-34
-40
-43
-43
-37
-27
-27
-34
-41
-47
-46
-42
-38
-34
-36
-40
-37
-32
-32
-34
-30
-23
-30
-37
-36
-35
-26
-19
-23
-27
-26
-22
-9
-1
-8
-13
-11
-9
-7
-7
-13
-16
-11
-9
-10
-18
-32
-32
-24
-29
-43
-41
-32
-29
-28
-27
-27
-27
-26
-57
-93
-113
-95
-104
-70
45
164
333
487
550
605
631
601
385
180
3
-135
-190
-219
-202
-184
-167
-144
-114
-87
-64
-53
-54
-55
-56
-53
-46
-41
-37
-35
-34
-33
-34
-31
-26
-27
-30
-24
-16
-17
-19
-21
-23
-15
-7
-3
2
13
17
-1
-13
-1
11
24
33
33
34
37
44
55
61
62
62
59
60
66
64
54
51
51
51
52
41
26
19
14
13
14
-1
-20
-20
-17
-19
-21
-28
-35
-34
-33
-33
-32
-27
-23
-25
-27
-24
-21
-21
-24
-32
-36
-33
-28
-21
-18
-21
-22
-20
-17
-13
-9
-6
-11
-20
-20
-16
-18
-22
-26
-30
-25
-18
-22
-17
-28
-27
-21
-15
-17
-19
-22
-25
-23
-21
-26
-29
-29
-29
-31
-32
-29
-27
-28
-29
-28
-25
-20
-21
-28
-27
-18
-21
-31
-34
-32
-30
-28
-24
-20
-24
-30
-32
-34
-31
-26
-19
-13
-21
-29
-28
-27
-26
-25
-26
-27
-23
-19
-20
-20
-13
-14
-31
-40
-36
-31
-26
-17
-5
1
2
2
0
-1
0
5
11
7
-1
-2
0
-3
-8
-14
-20
-24
-28
-28
-25
-19
-13
-13
-13
-12
-11
-14
-17
-19
-29
-61
-96
-135
-140
-78
11
141
277
421
521
575
614
640
533
327
135
-48
-131
-165
-178
-183
-171
-151
-119
-84
-65
-49
-50
-54
-55
-55
-44
-35
-35
-35
-27
-19
-21
-23
-29
-33
-35
-36
-31
-27
-26
-24
-18
-15
-16
-12
-1
3
-1
2
11
16
18
18
16
27
44
47
44
43
43
57
75
67
56
56
58
62
65
56
47
39
31
29
26
15
6
0
-8
-21
-31
-32
-30
-21
-18
-27
-35
-40
-40
-33
-30
-32
-37
-44
-46
-44
-40
-35
-30
-25
-27
-32
-33
-34
-35
-35
-30
-24
-23
-25
-24
-23
-27
-31
-31
-31
-28
-26
-36
-40
-28
-22
-33
-40
-35
-31
-33
-39
-49
-52
-43
-39
-38
-37
-37
-39
-43
-45
-44
-45
-48
-48
-46
-44
-42
-41
-42
-36
-28
-37
-27
-43
-37
-43
-49
-50
-51
-48
-45
-46
-47
-42
-40
-46
-50
-46
-39
-28
-28
-47
-56
-51
-46
-39
-41
-52
-53
-46
-43
-44
-44
-42
-41
-42
-43
-44
-48
-52
-41
-26
-37
-50
-46
-41
-39
-37
-34
-31
-34
-37
-34
-31
-28
-24
-16
-12
-19
-23
-24
-28
-36
-42
-45
-46
-43
-40
-37
-39
-46
-49
-49
-42
-32
-40
-55
-55
-49
-61
-78
-114
-152
-155
-156
-83
-5
141
287
428
556
587
605
550
452
189
-35
-142
-218
-224
-225
-210
-194
-174
-151
-121
-102
-93
-85
-75
-72
-75
-72
-64
-61
-62
-63
-63
-63
-62
-61
-60
-54
-48
-43
-38
-48
-37
-52
-43
-40
-37
-36
-35
-31
-27
-21
-17
-12
-8
-4
1
8
17
28
32
22
18
21
26
33
36
33
30
27
23
19
17
17
8
-6
-11
-14
-24
-35
-38
-40
-44
-48
-50
-51
-56
-61
-63
-65
-61
-57
-58
-59
-57
-55
-52
-49
-51
-53
-53
-53
-51
-48
-44
-41
-40
-43
-51
-57
-61
-61
-57
-56
-58
-59
-59
-58
-56
-55
-56
-55
-52
-51
-51
-55
-61
-60
-59
-64
-69
-67
-65
-66
-67
-64
-61
-62
-63
-63
-63
-64
-63
-57
-54
-58
-63
-68
-71
-70
-69
-69
-68
-65
-62
-60
-60
-62
-62
-60
-60
-62
-62
-60
-59
-60
-61
-61
-63
-63
-61
-59
-55
-52
-59
-65
-62
-58
-51
-47
-56
-62
-59
-56
-53
-48
-38
-35
-42
-40
-30
-26
-28
-29
-28
-29
-32
-36
-41
-41
-38
-39
-42
-43
-44
-48
-52
-53
-54
-55
-55
-47
-39
-45
-51
-48
-52
-94
-130
-145
-146
-103
-37
78
208
364
484
552
600
624
546
364
174
-23
-140
-202
-225
-224
-211
-192
-165
-134
-111
-89
-80
-72
-69
-66
-65
-64
-62
-59
-57
-55
-53
-51
-49
-47
-46
-45
-42
-39
-37
-35
-33
-31
-31
-30
-26
-22
-18
-14
-9
-5
-1
4
10
17
24
29
32
37
43
47
50
51
52
53
52
51
50
48
49
42
39
32
25
14
5
-2
-8
-15
-21
-26
-29
-32
-35
-37
-39
-40
-41
-42
-43
-44
-44
-41
-39
-39
-39
-39
-38
-36
-34
-32
-31
-30
-29
-29
-29
-30
-29
-26
-25
-25
-27
-29
-29
-29
-28
-27
-27
-27
-28
-29
-32
-35
-33
-31
-32
-33
-33
-33
-34
-35
-34
-32
-30
-30
-32
-33
-33
-33
-33
-33
-33
-33
-34
-34
-32
-31
-30
-29
-28
-28
-30
-31
-31
-31
-31
-31
-31
-30
-29
-28
-27
-28
-29
-26
-23
-23
-23
-25
-27
-25
-23
-24
-25
-24
-23
-24
-24
-21
-17
-13
-11
-11
-11
-11
-6
1
3
3
5
8
5
0
-5
-1
-10
-9
-13
-17
-19
-21
-22
-23
-23
-23
-22
-21
-21
-21
-19
-17
-17
-36
-81
-112
-127
-116
-78
-1
107
243
399
501
575
615
642
514
334
138
-63
-145
-204
-199
-184
-166
-148
-113
-79
-69
-59
-55
-51
-46
-41
-39
-37
-37
-37
-34
-31
-30
-29
-28
-26
-23
-21
-19
-15
-11
-9
-9
-9
-8
-4
1
4
6
10
14
18
22
28
34
41
48
50
52
56
61
64
67
68
69
70
71
70
69
67
64
59
53
46
37
25
15
9
3
-3
-9
-16
-21
-25
-27
-27
-27
-28
-29
-30
-32
-34
-34
-32
-31
-32
-33
-33
-33
-34
-34
-35
-28
-25
-27
-29
-31
-33
-31
-29
-28
-27
-28
-29
-29
-29
-29
-29
-28
-28
-31
-33
-36
-37
-37
-37
-36
-35
-35
-36
-38
-39
-40
-39
-36
-35
-36
-37
-38
-39
-39
-39
-40
-41
-41
-41
-41
-40
-39
-37
-35
-36
-37
-40
-43
-41
-39
-40
-41
-39
-38
-42
-43
-38
-35
-35
-35
-35
-36
-38
-39
-39
-39
-39
-39
-38
-37
-36
-35
-34
-29
-24
-25
-28
-24
-17
-15
-13
-9
-5
-7
-9
-16
-21
-22
-23
-25
-27
-29
-32
-37
-41
-39
-37
-37
-37
-34
-34
-37
-37
-31
-43
-65
-97
-134
-145
-144
-89
-17
99
225
366
509
561
603
597
605
310
40
-85
-200
-213
-223
-209
-194
-173
-150
-118
-92
-81
-72
-68
-63
-57
-53
-52
-51
-51
-50
-48
-46
-43
-41
-42
-41
-38
-36
-34
-31
-28
-27
-26
-23
-20
-18
-16
-14
-12
-5
1
3
5
11
18
27
35
37
39
40
41
44
47
48
49
50
51
49
47
45
41
36
28
19
11
4
-4
-12
-18
-23
-28
-32
-34
-36
-37
-38
-39
-38
-38
-40
-41
-41
-39
-37
-37
-37
-36
-35
-34
-33
-33
-33
-30
-27
-28
-29
-30
-31
-31
-31
-33
-35
-32
-32
-34
-35
-36
-37
-37
-37
-38
-39
-40
-41
-41
-42
-44
-45
-44
-43
-44
-45
-45
-42
-39
-41
-43
-44
-45
-45
-45
-44
-43
-43
-43
-43
-43
-43
-42
-39
-37
-39
-41
-41
-41
-40
-39
-39
-39
-38
-37
-37
-37
-38
-37
-34
-34
-36
-37
-36
-33
-30
-29
-28
-27
-27
-20
-13
-12
-11
-5
0
-6
-12
-18
-23
-24
-25
-26
-27
-28
-29
-30
-31
-32
-32
-29
-27
-28
-29
-28
-26
-24
-52
-95
-119
-135
-103
-57
51
173
324
478
541
595
618
638
407
181
15
-137
-175
-206
-194
-182
-163
-142
-111
-85
-71
-60
-57
-53
-48
-45
-44
-43
-40
-38
-36
-35
-34
-33
-32
-29
-25
-23
-23
-22
-20
-17
-14
-13
-12
-8
-4
-2
-3
5
9
15
21
24
27
32
37
41
45
50
54
58
62
65
67
67
67
68
68
63
59
54
46
37
30
24
17
10
2
-5
-8
-10
-15
-22
-25
-28
-29
-28
-28
-30
-30
-29
-29
-29
-29
-29
-25
-21
-21
-21
-23
-25
-23
-21
-20
-19
-19
-19
-18
-17
-18
-18
-16
-15
-16
-18
-20
-18
-13
-14
-19
-21
-21
-25
-30
-31
-31
-31
-30
-28
-26
-25
-27
-27
-27
-27
-27
-29
-30
-18
-10
-16
-21
-20
-20
-26
-31
-33
-35
-35
-35
-33
-31
-31
-27
-19
-16
-19
-21
-21
-24
-29
-26
-17
-15
-15
-22
-31
-27
-20
-18
-16
-13
-15
-11
-13
-14
-15
-5
3
0
-2
4
9
6
-1
-16
-26
-22
-19
-20
-23
-28
-31
-30
-29
-30
-27
-20
-18
-21
-21
-17
-25
-41
-71
-107
-127
-142
-82
-8
138
293
415
535
570
603
590
557
296
52
-75
-183
-200
-209
-186
-160
-124
-93
-71
-57
-58
-59
-57
-52
-44
-44
-54
-59
-59
-49
-32
-28
-33
-37
-41
-35
-24
-22
-24
-20
-14
-21
-32
-22
-10
-3
5
-6
-17
-6
5
11
17
22
28
36
45
55
63
65
66
63
59
53
51
56
57
50
43
35
32
35
32
24
13
1
-3
-2
-5
-11
-9
-2
-23
-50
-51
-48
-46
-47
-40
-37
-31
-25
-25
-25
-25
-25
-27
-29
-27
-25
-27
-29
-27
-24
-21
-19
-20
-21
-22
-25
-29
-23
-9
-7
-14
-25
-37
-36
-28
-20
-13
-11
-10
-15
-24
-24
-22
-36
-52
-37
-21
-29
-37
-34
-31
-31
-31
-31
-31
-27
-23
-23
-23
-22
-25
-37
-42
-33
-28
-32
-32
-26
-25
-30
-27
-16
-17
-27
-31
-32
-34
-36
-37
-36
-35
-35
-29
-22
-10
2
-14
-33
-24
-16
-33
-49
-42
-35
-37
-39
-35
-27
-7
4
-7
-16
-20
-13
12
24
17
7
-8
-22
-35
-32
-16
-11
-15
-21
-27
-34
-41
-36
-27
-28
-32
-32
-30
-33
-38
-19
-39
-43
-88
-113
-137
-126
-105
-15
91
264
416
501
571
603
577
431
258
41
-108
-163
-196
-203
-196
-173
-150
-127
-101
-73
-66
-71
-71
-68
-54
-35
-30
-28
-37
-49
-48
-44
-43
-44
-43
-41
-30
-19
-17
-15
-16
-17
-20
-23
-22
-21
-18
-15
-16
-10
12
24
21
16
9
16
38
47
42
36
30
34
47
58
70
54
27
33
48
41
29
28
30
12
-10
-4
5
-9
-23
-24
-25
-30
-36
-44
-50
-45
-39
-29
-19
-11
-14
-42
-51
-31
-24
-36
-41
-36
-30
-24
-29
-43
-36
-15
-13
-24
-29
-34
-36
-38
-23
-2
-18
-40
-49
-56
-39
-57
-24
-29
-28
-28
-41
-52
-44
-37
-37
-37
-37
-38
-43
-46
-42
-41
-48
-49
-37
-33
-40
-41
-36
-31
-27
-34
-51
-51
-42
-37
-34
-39
-49
-46
-39
-35
-32
-34
-38
-41
-44
-38
-31
-32
-33
-37
-41
-41
-40
-34
-30
-38
-44
-39
-33
-26
-23
-29
-35
-43
-42
-31
-23
-19
-17
-18
-22
-28
-23
-10
-5
-4
3
12
0
-19
-22
-20
-19
-20
-31
-42
-36
-27
-24
-21
-35
-46
-35
-25
-29
-32
-25
-24
-45
-71
-108
-133
-132
-103
-30
75
221
357
480
555
586
574
530
355
101
-58
-171
-203
-203
-190
-173
-155
-136
-111
-86
-76
-68
-61
-67
-50
-47
-49
-51
-55
-57
-40
-26
-32
-37
-40
-41
-34
-29
-27
-24
-21
-22
-30
-31
-20
-16
-18
-11
3
6
1
3
9
14
19
27
35
38
40
40
38
37
37
43
50
54
57
52
47
35
25
27
28
21
15
14
10
-3
-14
-19
-26
-36
-41
-33
-32
-40
-45
-46
-44
-38
-29
-18
-24
-43
-48
-46
-40
-33
-29
-26
-28
-32
-25
-14
-23
-34
-35
-35
-25
-15
-22
-29
-25
-22
-29
-35
-33
-31
-28
-25
-27
-30
-33
-35
-37
-34
-20
-19
-32
-40
-42
-40
-34
-31
-31
-33
-37
-34
-27
-27
-30
-34
-38
-36
-32
-31
-32
-37
-33
-30
-17
-23
-29
-40
-48
-37
-28
-34
-38
-29
-25
-33
-38
-34
-29
-22
-19
-25
-29
-28
-30
-36
-34
-23
-18
-16
-21
-30
-29
-23
-21
-22
-23
-22
-23
-26
-27
-28
-29
-28
-11
5
-8
-21
-15
-8
3
13
14
13
2
-8
-14
-18
-11
-11
-22
-29
-30
-31
-31
-28
-22
-18
-16
-18
-24
-23
-16
-20
-32
-67
-111
-125
-131
-77
-8
122
262
394
526
562
595
601
592
339
99
-31
-144
-167
-185
-184
-177
-149
-119
-84
-60
-57
-54
-51
-49
-51
-52
-49
-42
-32
-26
-23
-21
-22
-25
-28
-29
-30
-24
-15
-14
-16
-23
-30
-21
-10
-3
-9
-2
-9
1
11
16
22
30
37
31
29
38
45
44
45
53
59
59
59
57
55
58
55
46
39
35
30
24
18
13
1
-13
-14
-10
-17
-27
-33
-38
-39
-38
-38
-40
-37
-33
-32
-31
-31
-31
-36
-40
-33
-27
-31
-33
-24
-19
-26
-34
-43
-47
-39
-34
-30
-26
-23
-22
-24
-28
-34
-37
-36
-31
-23
-25
-31
-33
-33
-35
-38
-38
-36
-39
-44
-43
-39
-32
-25
-30
-35
-37
-40
-47
-53
-51
-47
-39
-35
-42
-45
-39
-36
-39
-41
-42
-41
-36
-34
-37
-33
-22
-24
-35
-41
-44
-44
-42
-42
-44
-45
-45
-43
-40
-41
-44
-43
-45
-29
-19
-32
-45
-40
-35
-31
-29
-40
-47
-37
-31
-39
-42
-31
-25
-31
-35
-34
-32
-27
-26
-28
-29
-28
-21
-11
-11
-17
-15
-9
-12
-19
-25
-30
-27
-22
-26
-32
-35
-38
-37
-35
-33
-31
-26
-22
-31
-39
-38
-40
-58
-79
-109
-135
-149
-129
-43
61
190
320
451
536
575
588
579
419
154
-16
-134
-192
-224
-225
-214
-189
-160
-135
-111
-94
-79
-74
-70
-59
-47
-55
-63
-49
-38
-49
-59
-52
-47
-47
-46
-41
-37
-38
-38
-34
-33
-38
-38
-31
-26
-21
-18
-15
-14
-16
-14
-9
-1
10
13
12
21
36
39
38
35
32
37
44
43
45
35
31
32
33
33
32
23
14
8
3
1
-3
-11
-18
-22
-28
-36
-41
-39
-39
-44
-47
-48
-49
-48
-46
-43
-41
-42
-41
-37
-35
-35
-34
-32
-36
-42
-41
-38
-30
-22
-27
-33
-37
-41
-42
-43
-35
-29
-33
-38
-44
-49
-46
-45
-52
-54
-45
-41
-46
-47
-42
-39
-39
-43
-51
-51
-42
-40
-44
-49
-57
-55
-49
-47
-48
-49
-48
-44
-40
-39
-40
-46
-53
-41
-29
-30
-31
-40
-46
-39
-34
-42
-49
-51
-53
-51
-48
-43
-39
-39
-39
-37
-35
-34
-35
-40
-41
-37
-30
-21
-27
-42
-47
-47
-38
-26
-27
-34
-36
-38
-27
-14
-13
-13
-2
7
-2
-11
-16
-21
-21
-22
-28
-33
-36
-39
-41
-40
-30
-23
-25
-27
-27
-27
-30
-31
-32
-29
-21
-49
-102
-137
-163
-128
-67
37
155
295
442
516
578
612
643
431
203
30
-138
-177
-213
-201
-190
-174
-156
-122
-91
-73
-59
-60
-60
-56
-52
-47
-41
-36
-37
-47
-50
-44
-42
-45
-44
-38
-33
-29
-32
-40
-31
-13
-15
-23
-12
4
0
-8
-10
-12
-3
9
12
15
15
16
28
39
44
49
45
44
56
64
59
54
51
51
57
52
31
19
18
15
10
2
-9
-14
-16
-23
-32
-35
-35
-35
-34
-37
-44
-46
-48
-37
-24
-36
-23
-48
-45
-32
-19
-26
-33
-37
-41
-40
-37
-26
-19
-27
-33
-31
-25
-14
-13
-28
-37
-38
-34
-24
-21
-25
-28
-30
-31
-32
-33
-34
-30
-23
-30
-43
-43
-40
-35
-30
-36
-44
-44
-43
-34
-25
-32
-39
-40
-39
-27
-19
-31
-39
-29
-24
-35
-43
-44
-44
-40
-37
-37
-29
-13
-11
-24
-35
-45
-41
-28
-25
-28
-34
-41
-39
-34
-29
-24
-25
-28
-30
-32
-33
-31
-28
-25
-21
-17
-21
-25
-30
-34
-29
-24
-18
-14
-18
-18
-6
1
2
3
1
-1
0
-6
-19
-22
-16
-15
-19
-21
-21
-21
-20
-25
-33
-26
-13
-18
-26
-34
-42
-31
-43
-40
-65
-110
-150
-134
-107
-19
81
231
373
484
574
609
595
477
317
88
-82
-171
-215
-204
-185
-156
-130
-105
-88
-76
-61
-46
-41
-41
-44
-49
-47
-42
-35
-26
-34
-44
-43
-40
-26
-13
-21
-29
-27
-24
-16
-9
-12
-15
-13
-11
-8
-4
3
7
8
11
17
21
22
29
42
48
45
44
46
48
50
55
61
63
62
61
60
47
31
36
44
29
10
0
-11
-15
-19
-21
-23
-30
-37
-38
-38
-33
-29
-32
-35
-38
-41
-39
-37
-38
-37
-32
-30
-33
-34
-32
-30
-27
-28
-33
-34
-32
-28
-23
-24
-30
-31
-30
-29
-29
-34
-40
-38
-41
-31
-29
-34
-39
-38
-37
-39
-41
-40
-39
-39
-39
-40
-40
-36
-33
-34
-37
-42
-43
-38
-37
-41
-43
-43
-43
-42
-43
-46
-47
-46
-40
-33
-35
-40
-41
-42
-43
-42
-41
-42
-42
-41
-42
-43
-41
-39
-39
-39
-38
-37
-39
-41
-39
-37
-38
-39
-40
-41
-39
-38
-41
-41
-37
-35
-35
-36
-38
-39
-38
-35
-32
-34
-38
-40
-42
-41
-38
-29
-18
-17
-16
-14
-11
-12
-13
-16
-19
-25
-31
-33
-35
-35
-35
-35
-36
-40
-43
-45
-45
-38
-34
-37
-38
-35
-46
-72
-104
-141
-147
-134
-66
30
164
313
432
542
592
629
518
382
156
-79
-155
-91
-217
-211
-204
-196
-176
-155
-121
-92
-84
-77
-72
-69
-67
-64
-60
-55
-49
-45
-47
-49
-49
-49
-50
-47
-40
-40
-45
-47
-46
-45
-44
-34
-20
-20
-24
-25
-24
-17
-10
-5
0
3
5
10
15
23
31
34
37
35
33
36
40
46
50
46
42
37
31
26
21
15
9
5
-2
-11
-18
-24
-29
-33
-37
-40
-43
-46
-47
-47
-47
-47
-46
-44
-43
-43
-43
-41
-42
-43
-43
-43
-41
-39
-37
-35
-35
-35
-32
-29
-29
-31
-37
-41
-41
-41
-39
-37
-40
-42
-44
-45
-44
-42
-39
-37
-38
-41
-44
-45
-45
-45
-46
-47
-46
-45
-45
-45
-45
-40
-37
-37
-37
-42
-47
-43
-39
-40
-41
-41
-41
-40
-39
-40
-39
-33
-30
-33
-35
-36
-37
-36
-35
-34
-33
-33
-33
-32
-31
-30
-27
-24
-25
-28
-29
-28
-27
-27
-27
-26
-24
-23
-19
-15
-16
-16
-8
-1
1
3
6
9
6
1
-6
-11
-12
-13
-14
-16
-19
-21
-21
-22
-24
-24
-22
-20
-18
-17
-18
-15
-9
-27
-52
-89
-128
-124
-112
-23
73
222
372
478
578
603
621
577
500
247
22
-92
-180
-184
-184
-174
-161
-141
-117
-85
-64
-57
-51
-46
-42
-39
-36
-33
-27
-20
-22
-30
-31
-26
-23
-20
-16
-12
-11
-11
-11
-11
-8
-11
3
9
10
11
13
15
16
18
25
32
37
42
47
53
60
66
69
71
71
72
77
78
75
71
67
61
54
49
45
38
30
24
19
11
3
-5
-12
-14
-16
-21
-26
-27
-27
-28
-29
-30
-31
-29
-27
-26
-25
-28
-30
-26
-23
-24
-25
-24
-23
-23
-22
-18
-15
-14
-14
-16
-17
-17
-17
-16
-15
-14
-14
-16
-17
-17
-18
-20
-21
-21
-21
-20
-20
-23
-22
-21
-21
-21
-23
-25
-22
-19
-18
-17
-15
-14
-19
-23
-24
-24
-21
-18
-15
-15
-20
-22
-20
-18
-16
-15
-14
-14
-16
-18
-20
-19
-16
-14
-12
-12
-14
-16
-18
-19
-19
-12
-7
-14
-21
-19
-17
-13
-9
-8
-7
-6
-4
0
4
8
12
16
18
14
7
-2
-8
-11
-12
-10
-9
-10
-14
-19
-21
-20
-16
-12
-12
-14
-15
-16
-13
-8
-39
-74
-103
-131
-121
-103
-1
108
265
411
510
591
614
612
538
408
154
-43
-139
-197
-196
-186
-164
-136
-101
-78
-63
-55
-51
-48
-44
-43
-43
-41
-38
-36
-34
-33
-32
-28
-24
-23
-23
-22
-19
-16
-13
-14
-15
-12
-9
-6
-3
0
3
5
8
13
18
23
28
32
37
43
47
48
51
56
63
70
72
69
65
61
59
60
55
47
37
27
19
12
5
-2
-10
-3
-22
-25
-25
-25
-31
-37
-38
-39
-37
-35
-35
-36
-40
-43
-42
-39
-33
-29
-30
-31
-32
-34
-36
-36
-34
-33
-32
-31
-32
-33
-33
-30
-26
-26
-28
-31
-34
-35
-34
-34
-36
-38
-39
-36
-33
-35
-37
-39
-41
-41
-41
-41
-41
-38
-35
-39
-41
-39
-38
-41
-41
-36
-34
-36
-38
-40
-41
-42
-41
-37
-35
-35
-36
-38
-38
-36
-37
-40
-40
-38
-36
-34
-36
-41
-38
-35
-35
-35
-37
-39
-35
-31
-35
-39
-37
-34
-29
-25
-26
-26
-22
-18
-15
-11
-6
-4
-7
-13
-20
-23
-23
-23
-22
-27
-36
-39
-38
-36
-34
-33
-34
-36
-38
-38
-39
-31
-28
-52
-78
-111
-141
-137
-116
-22
87
240
382
494
581
619
584
425
241
22
-124
-188
-219
-218
-205
-182
-162
-142
-118
-91
-76
-66
-59
-53
-51
-52
-50
-46
-45
-44
-43
-44
-38
-31
-32
-33
-31
-29
-24
-19
-20
-21
-19
-16
-11
-7
-7
-5
1
6
10
14
18
23
28
34
40
44
47
49
50
51
52
53
53
53
54
51
46
44
42
32
22
15
7
2
-3
-9
-15
-22
-29
-28
-27
-27
-27
-28
-29
-31
-33
-33
-32
-29
-27
-28
-29
-28
-27
-26
-24
-22
-21
-20
-18
-16
-17
-22
-23
-23
-23
-22
-20
-18
-20
-24
-25
-25
-24
-21
-22
-23
-24
-25
-25
-25
-29
-33
-28
-25
-26
-27
-28
-28
-24
-22
-25
-27
-27
-27
-26
-25
-26
-27
-27
-26
-24
-25
-29
-27
-21
-20
-22
-23
-22
-21
-22
-23
-24
-22
-19
-21
-23
-23
-23
-20
-17
-15
-13
-12
-11
-11
-11
-9
-5
1
5
5
5
5
5
4
1
-4
-9
-13
-15
-16
-19
-22
-23
-23
-23
-23
-22
-20
-17
-14
-13
-13
-21
-31
-72
-111
-124
-129
-74
-8
119
250
395
517
566
607
631
568
338
133
-33
-144
-185
-203
-194
-180
-161
-134
-100
-77
-61
-53
-50
-48
-46
-42
-38
-37
-36
-33
-30
-29
-30
-31
-31
-25
-21
-18
-15
-14
-13
-11
-9
-6
-3
-3
-1
6
11
13
16
20
25
30
34
39
44
51
58
64
66
63
62
64
66
68
69
68
66
64
57
48
43
38
31
24
12
1
-4
-9
-13
-17
-19
-21
-23
-25
-29
-33
-30
-27
-26
-25
-27
-29
-29
-27
-22
-18
-15
-15
-19
-21
-20
-18
-16
-15
-16
-17
-16
-16
-18
-19
-19
-14
-8
-12
-18
-19
-21
-20
-19
-20
-21
-22
-23
-24
-25
-22
-19
-20
-21
-21
-21
-22
-23
-23
-23
-25
-27
-24
-24
-26
-26
-23
-21
-22
-23
-22
-21
-22
-23
-24
-25
-25
-25
-25
-24
-22
-21
-21
-18
-17
-19
-21
-20
-19
-18
-17
-19
-21
-20
-19
-17
-14
-11
-8
-4
-1
1
4
7
9
10
9
3
-1
-5
-11
-17
-18
-16
-15
-16
-19
-22
-23
-23
-23
-23
-23
-24
-22
-19
-19
-22
-64
-102
-118
-126
-94
-46
59
177
331
462
544
608
638
571
358
157
-29
-142
-181
-194
-185
-171
-152
-123
-88
-70
-58
-53
-50
-48
-46
-44
-42
-36
-30
-29
-28
-27
-29
-30
-31
-28
-25
-22
-19
-19
-19
-15
-10
-3
3
1
0
3
6
9
12
15
19
24
30
37
42
45
49
53
57
60
61
61
61
61
61
61
59
56
49
42
35
41
24
21
10
-1
-11
-19
-19
-19
-25
-29
-31
-33
-35
-37
-36
-34
-31
-29
-31
-33
-30
-29
-29
-29
-29
-29
-30
-30
-28
-27
-28
-26
-21
-21
-24
-27
-30
-31
-31
-30
-28
-27
-27
-29
-31
-31
-31
-31
-31
-33
-35
-36
-37
-38
-39
-39
-39
-38
-37
-39
-41
-40
-38
-36
-36
-38
-39
-38
-37
-37
-39
-42
-42
-40
-39
-40
-41
-41
-40
-38
-38
-40
-41
-41
-41
-41
-41
-41
-39
-37
-40
-43
-39
-35
-35
-35
-36
-38
-41
-43
-43
-43
-41
-39
-39
-39
-40
-40
-38
-36
-33
-30
-28
-27
-28
-26
-20
-18
-16
-11
-6
-10
-16
-20
-17
-26
-27
-33
-39
-40
-41
-43
-45
-44
-43
-42
-41
-40
-38
-35
-32
-28
-42
-84
-117
-140
-140
-117
-47
61
197
351
462
549
595
625
525
381
171
-55
-148
-215
-223
-222
-206
-190
-165
-141
-117
-95
-86
-77
-72
-67
-64
-61
-60
-59
-58
-57
-56
-54
-51
-49
-48
-47
-47
-45
-40
-37
-37
-36
-34
-32
-28
-25
-22
-18
-14
-11
-8
-3
2
10
18
19
20
24
29
32
35
37
39
38
37
38
39
37
35
34
31
24
16
7
-1
-7
-13
-19
-24
-27
-32
-38
-41
-41
-41
-40
-39
-39
-39
-40
-41
-40
-39
-39
-37
-34
-33
-34
-34
-35
-30
-29
-30
-31
-31
-31
-29
-27
-29
-31
-30
-29
-31
-33
-34
-35
-33
-32
-35
-37
-37
-37
-38
-39
-40
-41
-40
-39
-39
-39
-40
-38
-34
-35
-38
-39
-40
-41
-40
-39
-38
-39
-41
-39
-37
-37
-37
-35
-33
-34
-35
-36
-37
-36
-35
-35
-35
-35
-35
-36
-37
-35
-32
-29
-28
-30
-31
-30
-29
-29
-30
-32
-33
-32
-31
-30
-28
-26
-19
-12
-14
-18
-16
-11
-7
-3
1
5
2
-2
-10
-17
-17
-17
-16
-16
-20
-24
-27
-29
-28
-27
-26
-25
-25
-25
-25
-23
-19
-31
-53
-85
-122
-128
-121
-49
43
184
335
447
553
590
621
522
623
183
-42
-127
-205
-203
-199
-179
-158
-129
-102
-81
-65
-62
-59
-57
-54
-48
-45
-45
-45
-44
-41
-37
-35
-35
-34
-32
-29
-26
-25
-25
-21
-15
-13
-13
-11
-8
-4
0
3
6
11
15
20
25
28
32
40
47
50
53
55
57
57
57
58
59
58
56
52
47
42
37
32
24
15
6
-3
-9
-13
-19
-25
-28
-30
-32
-34
-35
-36
-36
-34
-33
-34
-35
-35
-35
-35
-35
-35
-33
-31
-31
-31
-31
-30
-26
-23
-24
-25
-26
-27
-26
-25
-25
-25
-26
-27
-28
-29
-29
-28
-26
-27
-30
-32
-34
-34
-32
-33
-36
-36
-34
-34
-36
-37
-37
-33
-31
-32
-33
-34
-35
-33
-31
-32
-33
-32
-31
-32
-33
-33
-32
-29
-27
-29
-31
-31
-31
-30
-30
-32
-33
-32
-31
-31
-31
-30
-27
-24
-24
-26
-27
-28
-29
-28
-27
-27
-25
-23
-21
-19
-18
-17
-13
-9
-5
-1
0
1
1
-1
-8
-14
-17
-19
-21
-23
-24
-25
-26
-27
-28
-29
-29
-29
-28
-28
-30
-27
-21
-39
-66
-98
-132
-129
-118
-37
50
202
356
467
572
600
616
531
422
182
-29
-128
-202
-198
-190
-172
-148
-115
-89
-73
-62
-59
-57
-54
-52
-49
-47
-46
-44
-42
-40
-38
-37
-37
-35
-32
-31
-31
-28
-24
-23
-24
-23
-25
-16
-13
-13
-13
-9
-5
0
5
9
14
19
24
29
34
38
42
46
49
51
53
50
49
48
47
47
44
38
29
20
12
4
1
0
-12
-26
-34
-40
-42
-44
-46
-48
-51
-53
-53
-53
-56
-59
-57
-55
-49
-45
-49
-53
-55
-56
-51
-47
-45
-43
-43
-43
-45
-45
-41
-40
-42
-41
-37
-38
-45
-45
-42
-41
-42
-45
-48
-48
-46
-42
-38
-43
-50
-53
-57
-66
-75
-62
-50
-41
-33
-37
-41
-40
-39
-37
-35
-37
-40
-43
-45
-47
-49
-49
-49
-50
-49
-45
-43
-44
-43
-39
-37
-36
-37
-40
-41
-42
-43
-43
-43
-43
-43
-44
-46
-45
-42
-35
-31
-27
-30
-34
-43
-51
-47
-43
-43
-41
-33
-26
-21
-16
-13
-11
-12
-14
-19
-17
-8
-5
-11
-16
-21
-26
-31
-38
-46
-40
-26
-29
-37
-36
-32
-34
-38
-41
-44
-35
-25
-24
-27
-82
-131
-137
-137
-99
-42
82
217
386
518
568
608
630
542
291
83
-73
-165
-194
-199
-184
-164
-142
-116
-88
-74
-66
-58
-51
-65
-87
-77
-60
-46
-33
-31
-31
-31
-31
-27
-23
-25
-28
-44
-54
-31
-13
-13
-12
-5
1
-1
-3
-5
-6
-3
3
15
21
22
24
27
31
35
45
58
59
53
51
50
54
61
63
64
60
54
48
42
33
41
21
19
7
-5
-11
-17
-20
-24
-31
-37
-32
-32
-43
-48
-38
-30
-27
-27
-33
-33
-24
-24
-34
-36
-30
-27
-28
-29
-30
-28
-23
-25
-31
-32
-30
-25
-20
-29
-40
-39
-36
-22
-9
-21
-33
-33
-33
-29
-25
-28
-31
-32
-32
-27
-28
-47
-54
-39
-29
-31
-35
-41
-42
-36
-31
-27
-28
-34
-34
-27
-25
-25
-32
-42
-38
-29
-37
-49
-45
-38
-38
-40
-39
-35
-38
-41
-48
-53
-35
-19
-22
-26
-32
-36
-32
-29
-32
-36
-40
-44
-47
-45
-36
-31
-34
-34
-32
-29
-25
-16
-4
-1
-5
-7
-7
-14
-23
-25
-26
-32
-38
-36
-32
-40
-31
-44
-37
-41
-45
-47
-49
-46
-42
-33
-29
-47
-73
-118
-150
-154
-126
-42
69
216
355
486
564
594
587
550
377
117
-54
-178
-220
-228
-218
-201
-178
-153
-125
-97
-86
-78
-77
-76
-68
-61
-60
-59
-65
-71
-67
-63
-62
-60
-54
-49
-51
-53
-53
-49
-38
-36
-51
-52
-36
-25
-21
-21
-26
-24
-15
-9
-5
-3
-3
0
4
13
23
26
28
36
44
41
36
36
39
35
31
33
34
20
7
7
4
-16
-29
-20
-16
-30
-39
-41
-47
-57
-62
-58
-56
-61
-64
-66
-65
-59
-57
-56
-61
-72
-67
-54
-49
-46
-46
-48
-49
-50
-54
-58
-57
-59
-52
-51
-48
-45
-48
-51
-48
-46
-53
-59
-58
-58
-62
-65
-63
-57
-46
-45
-62
-69
-62
-61
-65
-64
-58
-55
-55
-59
-65
-65
-62
-57
-51
-55
-63
-63
-60
-59
-60
-62
-64
-61
-57
-59
-61
-61
-61
-58
-55
-61
-65
-62
-59
-60
-61
-63
-62
-53
-49
-57
-59
-54
-50
-48
-51
-59
-62
-59
-57
-57
-57
-56
-52
-48
-46
-44
-41
-38
-32
-26
-27
-30
-25
-17
-26
-35
-42
-49
-51
-53
-53
-53
-54
-55
-54
-53
-54
-55
-53
-51
-51
-51
-51
-52
-57
-80
-120
-148
-169
-143
-88
21
156
303
455
530
583
614
641
438
196
16
-158
-202
-167
-227
-215
-198
-181
-149
-119
-102
-87
-84
-81
-81
-81
-78
-74
-69
-64
-60
-57
-59
-60
-57
-55
-55
-54
-51
-49
-49
-48
-46
-43
-39
-34
-29
-26
-24
-23
-23
-20
-16
-7
2
4
5
10
15
20
25
30
35
35
35
35
35
35
34
29
25
23
19
13
5
-5
-11
-12
-18
-27
-32
-35
-39
-43
-45
-45
-45
-46
-46
-44
-43
-42
-41
-40
-39
-38
-39
-43
-40
-37
-35
-33
-30
-27
-34
-39
-35
-30
-24
-21
-30
-37
-36
-35
-34
-33
-35
-37
-36
-35
-35
-35
-35
-32
-27
-29
-36
-36
-31
-32
-36
-35
-32
-33
-36
-36
-34
-36
-33
-31
-21
-21
-21
-27
-33
-26
-21
-27
-32
-37
-40
-35
-31
-30
-28
-22
-20
-23
-25
-26
-27
-27
-26
-24
-22
-19
-18
-20
-20
-18
-14
-10
-11
-14
-12
-8
-7
-7
-8
-10
-8
-5
2
9
7
6
15
23
21
17
5
-4
2
4
-6
-13
-11
-8
-5
-8
-20
-20
-6
-4
-13
-18
-21
-20
-13
-28
-54
-85
-119
-125
-122
-59
17
147
284
410
535
570
603
614
610
360
121
-32
-163
-182
-193
-170
-146
-116
-89
-66
-51
-49
-47
-45
-43
-41
-38
-33
-31
-30
-28
-26
-22
-17
-16
-18
-19
-18
-15
-12
-11
-12
-10
-6
-4
-2
1
-1
10
15
17
19
22
25
32
37
40
44
50
55
58
61
62
64
68
71
70
68
63
59
54
49
43
35
25
16
8
1
-5
-8
-10
-17
-25
-27
-28
-31
-34
-36
-38
-38
-37
-37
-37
-37
-37
-33
-29
-31
-33
-33
-33
-32
-31
-32
-33
-32
-31
-33
-35
-33
-31
-30
-30
-32
-33
-33
-33
-33
-34
-36
-37
-36
-35
-36
-38
-40
-39
-36
-36
-38
-39
-39
-39
-39
-39
-39
-40
-41
-42
-43
-42
-41
-39
-37
-39
-41
-42
-42
-39
-37
-39
-41
-38
-37
-38
-38
-36
-35
-35
-36
-38
-39
-39
-38
-36
-35
-36
-36
-34
-33
-32
-31
-31
-21
-13
-13
-13
-9
-5
-5
-6
-14
-21
-21
-22
-28
-33
-33
-33
-33
-33
-35
-37
-38
-39
-38
-37
-37
-37
-36
-40
-48
-79
-120
-136
-143
-105
-53
54
172
319
471
534
592
606
611
353
104
-42
-174
-198
-218
-210
-199
-180
-158
-131
-106
-87
-74
-70
-66
-63
-60
-57
-52
-46
-43
-43
-43
-43
-42
-40
-39
-39
-37
-34
-33
-33
-29
-24
-21
-18
-17
-16
-13
-9
-6
-3
3
9
12
15
19
24
29
34
39
43
42
42
46
49
48
47
45
42
39
34
27
21
17
12
6
-2
-10
-18
-25
-29
-32
-36
-40
-41
-42
-43
-43
-43
-43
-39
-37
-36
-35
-36
-37
-34
-31
-32
-33
-33
-33
-32
-31
-30
-29
-27
-25
-27
-29
-29
-29
-30
-31
-32
-33
-34
-35
-34
-33
-34
-32
-28
-29
-32
-33
-33
-33
-34
-35
-35
-35
-35
-35
-35
-35
-35
-31
-27
-31
-35
-35
-35
-34
-33
-33
-33
-32
-31
-31
-31
-29
-26
-24
-24
-26
-27
-28
-28
-26
-23
-20
-19
-19
-14
-7
-2
2
3
3
3
4
-1
-9
-13
-17
-18
-19
-21
-23
-25
-27
-27
-27
-27
-27
-24
-21
-23
-25
-24
-25
-30
-54
-98
-123
-133
-103
-44
63
198
342
491
560
599
619
634
421
155
-6
-149
-179
-198
-188
-199
-156
-136
-103
-73
-62
-53
-50
-47
-43
-39
-38
-37
-35
-33
-31
-28
-25
-23
-22
-20
-15
-13
-13
-12
-9
-7
-6
-3
0
3
7
14
21
24
26
31
36
42
48
51
54
59
63
65
67
66
65
68
71
68
65
61
56
48
41
33
25
19
13
7
0
-8
-13
-14
-16
-19
-22
-24
-25
-25
-25
-26
-27
-26
-25
-25
-25
-24
-21
-18
-17
-16
-16
-19
-16
-13
-13
-13
-13
-13
-12
-11
-14
-17
-14
-11
-12
-13
-15
-17
-18
-19
-20
-21
-20
-19
-20
-21
-22
-22
-19
-19
-22
-23
-23
-23
-22
-21
-21
-21
-20
-19
-20
-21
-21
-18
-15
-18
-21
-20
-19
-18
-17
-18
-19
-18
-17
-18
-19
-17
-14
-11
-9
-7
-5
-5
-2
5
11
15
16
14
12
10
4
-4
-7
-7
-7
-8
-10
-12
-15
-18
-19
-19
-19
-19
-17
-15
-16
-17
-9
-6
-25
-49
-89
-119
-121
-102
-32
62
200
337
471
562
600
614
604
456
192
8
-123
-177
-187
-180
-162
-140
-117
-91
-64
-54
-46
-41
-36
-35
-35
-34
-31
-27
-23
-24
-25
-23
-21
-19
-17
-16
-14
-10
-7
-7
-7
-5
-2
1
3
5
8
11
15
20
25
29
36
45
49
50
52
54
57
60
62
64
65
66
67
66
65
65
62
59
50
41
33
25
20
14
6
-2
-7
-12
-17
-21
-22
-22
-19
-19
-24
-27
-26
-25
-25
-25
-24
-23
-23
-23
-22
-21
-20
-16
-11
-11
-14
-16
-18
-18
-16
-15
-15
-15
-15
-15
-15
-16
-17
-15
-13
-16
-19
-20
-21
-21
-21
-22
-23
-23
-23
-23
-23
-23
-22
-20
-20
-22
-23
-24
-25
-25
-25
-26
-26
-24
-23
-24
-25
-24
-23
-22
-22
-24
-25
-23
-23
-23
-24
-25
-24
-23
-23
-23
-23
-23
-21
-19
-19
-19
-21
-23
-21
-19
-18
-17
-14
-11
-7
-5
-6
-2
6
9
10
11
12
7
-1
-6
-10
-11
-12
-14
-16
-18
-17
-20
-19
-19
-19
-20
-21
-21
-21
-19
-17
-18
-31
-78
-113
-128
-121
-78
-6
107
237
386
493
559
604
632
515
304
110
-75
-160
-202
-200
-183
-163
-143
-114
-83
-71
-62
-61
-60
-56
-53
-51
-49
-46
-43
-41
-39
-38
-37
-37
-37
-35
-32
-28
-25
-26
-26
-23
-21
-21
-19
-14
-10
-8
-7
-6
-1
6
10
12
16
21
27
32
36
40
43
46
47
48
49
49
48
47
45
43
36
29
22
16
9
2
-2
-8
-18
-26
-29
-32
-35
-37
-39
-41
-41
-41
-42
-43
-42
-40
-37
-35
-36
-37
-37
-36
-34
-34
-36
-37
-36
-35
-36
-34
-37
-28
-27
-28
-29
-33
-37
-36
-35
-35
-35
-35
-35
-38
-41
-39
-37
-36
-35
-37
-39
-42
-43
-44
-45
-44
-43
-42
-42
-44
-45
-44
-41
-38
-38
-40
-41
-42
-43
-43
-43
-42
-42
-43
-43
-43
-42
-41
-40
-39
-41
-43
-41
-39
-40
-41
-40
-39
-39
-39
-39
-39
-39
-39
-38
-36
-34
-35
-39
-40
-36
-35
-34
-33
-32
-28
-24
-19
-14
-8
-2
-2
-4
-11
-19
-21
-23
-28
-33
-34
-35
-39
-43
-41
-39
-36
-33
-35
-37
-37
-37
-35
-33
-33
-53
-95
-124
-143
-127
-84
8
129
268
415
504
569
610
642
459
224
40
-136
-183
-217
-213
-219
-178
-151
-132
-114
-98
-82
-72
-63
-61
-59
-58
-57
-55
-53
-55
-53
-42
-37
-43
-46
-43
-41
-40
-38
-36
-35
-34
-30
-25
-22
-20
-16
-12
-9
-6
-4
-2
4
10
13
16
20
23
29
35
37
39
41
43
44
44
39
35
36
35
27
19
12
5
-3
-8
-11
-15
-20
-25
-29
-31
-31
-31
-32
-35
-39
-41
-42
-43
-42
-41
-41
-37
-32
-31
-31
-33
-37
-33
-29
-31
-33
-31
-29
-32
-35
-35
-34
-30
-27
-28
-30
-34
-37
-39
-41
-39
-36
-33
-34
-40
-44
-46
-44
-39
-36
-34
-33
-33
-36
-42
-45
-48
-49
-50
-50
-48
-45
-47
-39
-37
-37
-37
-39
-41
-39
-37
-37
-37
-35
-33
-35
-37
-36
-34
-31
-30
-33
-35
-34
-33
-32
-31
-30
-29
-30
-31
-32
-33
-32
-30
-28
-27
-27
-27
-27
-26
-24
-23
-22
-16
-11
-7
-3
-2
-1
-2
-4
-12
-19
-21
-23
-24
-26
-30
-33
-35
-34
-25
-21
-27
-31
-32
-34
-36
-33
-24
-38
-64
-95
-128
-132
-125
-66
8
149
303
430
553
591
622
539
450
204
-32
-124
-207
-209
-208
-188
-167
-142
-115
-83
-59
-58
-57
-59
-59
-53
-47
-41
-38
-41
-42
-39
-35
-31
-26
-21
-25
-36
-39
-39
-36
-30
-21
-11
-9
-10
-7
-2
-1
-1
3
7
14
21
28
35
32
31
44
55
50
45
38
35
42
47
48
47
42
39
38
29
13
5
5
5
6
-2
-16
-28
-40
-43
-43
-36
-27
-35
-47
-45
-40
-36
-32
-31
-31
-31
-31
-33
-35
-37
-39
-38
-37
-35
-32
-27
-23
-27
-24
-10
-5
-18
-26
-29
-31
-31
-29
-24
-25
-32
-34
-30
-31
-35
-31
-22
-24
-31
-27
-19
-18
-20
-24
-28
-23
-15
-30
-45
-51
-57
-50
-42
-35
-29
-30
-31
-28
-25
-28
-29
-20
-13
-7
-10
-26
-37
-42
-45
-46
-45
-41
-29
-13
-14
-25
-38
-51
-48
-37
-31
-24
-23
-23
-29
-36
-36
-37
-30
-27
-27
-26
-7
8
-6
-19
-35
-42
-17
-1
-12
-21
-27
-27
-13
-3
2
6
9
9
5
-5
-19
-23
-19
-21
-27
-26
-21
-20
-22
-27
-32
-27
-20
-9
2
-10
-24
-30
-36
-73
-108
-126
-139
-103
-56
43
153
304
436
517
581
606
585
477
320
91
-73
-159
-201
-197
-188
-173
-141
-96
-72
-59
-57
-61
-60
-56
-49
-41
-39
-40
-41
-41
-41
-40
-36
-31
-36
-41
-34
-27
-21
-15
-17
-20
-28
-34
-28
-23
-22
-20
-16
-11
-6
0
7
13
20
27
37
37
30
32
40
49
58
54
44
38
32
32
34
33
30
24
18
17
17
6
-7
-17
-27
-33
-39
-38
-38
-44
-49
-46
-43
-45
-47
-46
-44
-38
-35
-35
-38
-47
-50
-47
-43
-37
-35
-36
-37
-36
-38
-43
-44
-42
-41
-40
-38
-36
-38
-42
-42
-40
-43
-47
-46
-45
-49
-52
-40
-30
-37
-44
-50
-55
-53
-51
-50
-48
-45
-44
-47
-46
-39
-38
-45
-51
-55
-56
-54
-50
-43
-43
-47
-49
-49
-49
-48
-37
-25
-27
-32
-44
-56
-57
-59
-55
-51
-45
-39
-38
-38
-50
-57
-46
-35
-27
-25
-42
-53
-54
-54
-50
-47
-45
-43
-42
-41
-40
-38
-35
-32
-30
-29
-29
-27
-24
-23
-22
-15
-7
-11
-18
-21
-24
-21
-25
-25
-35
-44
-53
-45
-37
-36
-36
-42
-46
-40
-34
-30
-27
-28
-38
-65
-97
-137
-155
-146
-99
-16
92
219
350
483
552
588
585
565
362
99
-49
-168
-199
-215
-202
-185
-181
-178
-146
-115
-94
-75
-69
-63
-57
-51
-53
-55
-51
-48
-56
-61
-59
-50
-30
-21
-31
-39
-44
-42
-31
-30
-40
-44
-42
-36
-28
-21
-15
-6
4
7
8
10
12
13
13
22
32
28
21
36
51
50
48
35
23
22
21
25
27
19
13
12
9
2
-5
-10
-15
-21
-28
-37
-40
-37
-35
-35
-35
-35
-38
-43
-43
-38
-37
-38
-45
-53
-42
-27
-30
-36
-37
-37
-38
-39
-30
-21
-31
-39
-36
-34
-42
-47
-37
-29
-32
-35
-33
-32
-36
-39
-40
-38
-31
-29
-33
-39
-47
-50
-48
-45
-41
-41
-44
-43
-40
-39
-40
-41
-41
-41
-40
-35
-30
-33
-37
-39
-41
-40
-39
-35
-31
-30
-29
-32
-35
-34
-33
-32
-31
-32
-33
-33
-32
-29
-28
-30
-26
-16
-17
-27
-33
-37
-37
-34
-32
-30
-26
-22
-21
-21
-13
-4
-1
2
4
7
4
1
-10
-21
-16
-12
-19
-26
-36
-41
-33
-27
-27
-26
-23
-22
-25
-27
-27
-25
-18
-39
-85
-116
-137
-117
-71
24
143
289
446
525
580
610
635
440
207
36
-129
-169
-137
-190
-177
-156
-135
-104
-75
-60
-47
-50
-53
-50
-47
-46
-44
-41
-38
-34
-31
-30
-29
-29
-28
-25
-22
-20
-17
-13
-11
-11
-11
-11
-7
-1
1
2
4
6
17
30
31
32
30
27
35
43
48
53
57
61
60
59
59
59
59
58
53
48
43
36
27
18
11
6
3
-3
-11
-16
-18
-20
-22
-23
-24
-27
-30
-32
-34
-35
-34
-33
-33
-33
-34
-35
-33
-31
-29
-29
-29
-22
-15
-16
-18
-23
-26
-22
-20
-24
-24
-12
-7
-14
-20
-24
-27
-28
-26
-20
-19
-25
-27
-27
-27
-28
-29
-30
-28
-22
-26
-33
-20
-1
-10
-22
-32
-23
-42
-41
-40
-39
-36
-32
-24
-17
-21
-25
-27
-30
-34
-36
-32
-28
-25
-23
-24
-27
-34
-26
-5
-7
-28
-38
-41
-35
-23
-22
-27
-29
-29
-26
-22
-18
-14
-10
-6
-14
-24
-23
-21
-10
1
-10
-18
-3
9
7
5
6
5
-3
-11
-19
-23
-17
-13
-11
-14
-25
-28
-21
-21
-29
-32
-30
-28
-26
-21
-13
-29
-55
-93
-133
-130
-115
-27
73
215
362
464
563
594
619
543
449
211
-5
-97
-171
-175
-176
-162
-144
-118
-97
-82
-71
-65
-60
-56
-47
-32
-27
-31
-37
-45
-43
-33
-28
-26
-26
-28
-29
-30
-23
-13
-18
-26
-24
-20
-11
-19
-2
-3
3
9
12
15
14
13
17
23
36
45
43
44
53
59
57
54
51
52
59
61
56
51
47
42
37
31
25
13
-3
-9
-12
-15
-18
-25
-32
-34
-36
-37
-36
-40
-45
-34
-24
-37
-49
-48
-45
-28
-18
-32
-43
-42
-41
-40
-39
-37
-35
-34
-30
-23
-20
-22
-24
-27
-30
-33
-34
-30
-34
-42
-36
-22
-20
-22
-35
-51
-49
-44
-36
-28
-28
-31
-38
-45
-45
-45
-38
-31
-30
-31
-45
-54
-48
-42
-37
-32
-28
-28
-37
-43
-43
-39
-30
-27
-32
-39
-46
-44
-36
-33
-32
-39
-50
-38
-17
-22
-35
-37
-38
-35
-30
-34
-29
-34
-27
-30
-33
-32
-31
-31
-31
-28
-25
-27
-29
-27
-25
-24
-24
-27
-25
-15
-6
1
4
2
-4
-13
-16
-13
-13
-17
-21
-25
-24
-20
-27
-39
-36
-30
-29
-28
-29
-32
-30
-27
-18
-12
-53
-91
-115
-131
-105
-59
63
197
364
496
554
602
632
571
374
179
-11
-130
-176
-198
-201
-191
-169
-145
-119
-103
-91
-80
-70
-63
-57
-51
-46
-44
-42
-38
-34
-34
-37
-28
-19
-19
-20
-29
-36
-27
-19
-22
-23
-15
-10
-16
-19
-13
-7
0
5
4
5
12
18
24
35
49
54
52
49
45
43
42
46
53
55
55
55
54
51
48
45
47
35
29
23
17
9
1
-1
-4
-11
-17
-19
-21
-22
-25
-31
-33
-26
-21
-22
-24
-29
-30
-27
-25
-26
-23
-16
-15
-18
-21
-25
-24
-19
-18
-20
-20
-18
-16
-14
-12
-10
-15
-21
-24
-27
-28
-29
-25
-20
-13
-9
-20
-29
-30
-31
-35
-35
-29
-25
-24
-25
-31
-32
-26
-21
-17
-18
-24
-28
-32
-32
-30
-27
-24
-23
-22
-21
-20
-17
-14
-19
-26
-25
-21
-22
-23
-22
-21
-21
-21
-17
-14
-19
-21
-13
-7
-10
-14
-17
-19
-20
-21
-19
-17
-14
-11
-7
-3
3
5
4
-1
-7
-5
1
8
15
16
14
6
-2
-2
0
-2
1
-7
-7
-15
-23
-19
-15
-17
-19
-18
-17
-15
-12
-6
-6
-22
-49
-92
-117
-117
-85
-15
87
220
356
493
566
598
603
594
411
154
-6
-133
-165
-173
-163
-149
-139
-130
-98
-64
-52
-41
-42
-43
-40
-37
-31
-25
-26
-26
-19
-13
-13
-13
-14
-14
-11
-9
-11
-11
-5
-1
-1
2
8
11
12
14
18
19
18
22
29
35
41
44
46
52
58
59
59
62
67
72
77
80
82
72
62
54
47
45
43
40
33
19
6
-3
-9
-8
-9
-15
-19
-18
-17
-18
-24
-33
-36
-34
-28
-20
-17
-18
-19
-19
-17
-14
-16
-20
-19
-16
-12
-15
-16
-25
-21
-17
-15
-13
-14
-15
-11
-6
-1
0
-12
-21
-23
-23
-16
-11
-11
-11
-12
-14
-16
-17
-18
-19
-19
-25
-34
-34
-29
-15
1
-1
-9
-22
-35
-30
-22
-28
-36
-30
-23
-26
-29
-21
-13
-18
-23
-21
-19
-15
-13
-22
-29
-33
-34
-30
-27
-25
-23
-21
-17
-13
-11
-12
-15
-19
-20
-18
-17
-17
-17
-16
-15
-15
-15
-15
-15
-14
-7
0
2
5
-1
-7
-7
-7
0
7
7
7
9
10
4
-1
2
-1
-19
-32
-35
-33
-21
-16
-21
-25
-29
-29
-23
-14
-2
-14
-41
-82
-128
-133
-125
-56
27
170
322
444
563
595
569
570
508
263
31
-81
-178
-185
-187
-162
-140
-125
-108
-89
-72
-63
-55
-49
-45
-43
-41
-40
-36
-30
-27
-27
-28
-31
-31
-27
-18
-6
-9
-17
-20
-22
-21
-18
-14
-10
-9
-8
3
13
14
15
18
21
29
35
41
45
43
43
53
61
60
57
51
47
47
50
58
62
60
52
39
28
19
13
9
3
-5
-10
-14
-19
-25
-32
-38
-36
-32
-35
-40
-41
-39
-36
-33
-38
-43
-41
-38
-30
-24
-32
-39
-39
-39
-37
-34
-30
-26
-23
-23
-28
-30
-25
-25
-29
-34
-40
-41
-37
-37
-40
-40
-38
-36
-34
-33
-34
-37
-40
-38
-34
-36
-33
-44
-47
-46
-45
-46
-47
-46
-45
-47
-49
-46
-43
-43
-44
-47
-48
-44
-41
-41
-41
-40
-40
-42
-43
-44
-44
-42
-41
-40
-39
-40
-38
-34
-35
-38
-39
-40
-44
-48
-47
-44
-37
-31
-37
-43
-43
-43
-41
-39
-36
-33
-37
-40
-35
-31
-30
-30
-34
-37
-37
-37
-37
-33
-24
-21
-26
-28
-25
-16
-5
-1
-1
-7
-15
-20
-24
-30
-38
-31
-22
-29
-38
-39
-41
-41
-41
-42
-43
-42
-41
-38
-35
-35
-46
-91
-126
-136
-131
-94
-31
74
198
349
465
545
600
634
538
344
145
-56
-151
-193
-208
-213
-195
-168
-148
-128
-107
-86
-75
-66
-68
-65
-58
-43
-47
-51
-48
-45
-46
-47
-50
-52
-46
-38
-27
-21
-28
-37
-48
-49
-35
-27
-26
-23
-19
-14
-8
1
13
12
4
6
13
17
20
26
33
42
51
53
52
39
26
28
31
34
37
38
39
31
24
13
5
7
3
-23
-40
-36
-34
-37
-39
-37
-38
-46
-49
-45
-42
-39
-40
-45
-47
-48
-47
-44
-37
-28
-35
-48
-38
-22
-26
-34
-33
-30
-28
-25
-39
-53
-43
-33
-28
-24
-33
-42
-50
-53
-34
-24
-34
-43
-52
-56
-53
-48
-40
-37
-42
-45
-45
-47
-53
-41
-19
-22
-40
-53
-64
-55
-39
-35
-35
-42
-52
-53
-52
-47
-51
-37
-33
-26
-20
-34
-47
-48
-48
-42
-34
-17
-8
-20
-31
-38
-43
-45
-44
-37
-33
-36
-37
-37
-37
-38
-35
-26
-27
-33
-35
-34
-28
-21
-19
-18
-21
-26
-27
-27
-17
-6
12
29
10
-7
-15
-23
-22
-21
-18
-15
-18
-22
-27
-31
-35
-35
-29
-25
-25
-24
-21
-19
-18
-17
-16
-33
-63
-96
-130
-134
-124
-46
56
194
341
454
559
598
626
546
456
219
-20
-112
-199
-197
-195
-188
-178
-153
-129
-104
-81
-61
-47
-48
-49
-51
-51
-45
-39
-33
-30
-33
-39
-47
-48
-42
-34
-25
-22
-24
-25
-25
-20
-13
-11
-10
-9
-8
4
16
17
17
13
7
16
25
35
44
51
57
53
49
49
49
52
57
63
64
53
46
43
38
31
26
23
11
-7
-18
-24
-29
-32
-33
-34
-35
-35
-35
-36
-38
-40
-41
-41
-41
-41
-41
-41
-30
-20
-35
-49
-48
-47
-44
-41
-37
-33
-34
-35
-34
-32
-29
-27
-26
-23
-18
-21
-33
-40
-43
-44
-41
-38
-36
-33
-29
-29
-32
-38
-45
-46
-44
-37
-30
-32
-36
-37
-39
-40
-41
-41
-41
-40
-39
-35
-31
-33
-35
-37
-39
-41
-43
-41
-39
-37
-36
-39
-40
-35
-31
-27
-29
-37
-41
-42
-42
-40
-37
-34
-35
-38
-39
-39
-38
-36
-35
-35
-34
-35
-29
-27
-31
-35
-34
-33
-31
-29
-30
-31
-29
-27
-25
-23
-21
-18
-12
-8
-5
-3
-3
-6
-12
-16
-19
-22
-24
-27
-31
-33
-32
-31
-30
-31
-34
-34
-32
-31
-31
-24
-16
-38
-62
-106
-147
-148
-140
-61
28
168
306
442
553
590
603
556
433
175
-24
-135
-197
-199
-191
-171
-149
-127
-104
-82
-70
-63
-61
-62
-60
-55
-53
-52
-49
-46
-43
-40
-36
-32
-32
-35
-33
-31
-31
-31
-24
-17
-19
-21
-20
-18
-14
-9
-1
5
3
1
3
8
15
21
28
33
37
40
42
48
56
59
58
56
54
50
46
44
42
34
26
17
8
1
7
-13
-19
-26
-33
-38
-43
-44
-45
-47
-49
-52
-54
-48
-44
-49
-53
-52
-50
-46
-45
-50
-52
-49
-48
-51
-50
-45
-43
-44
-44
-42
-39
-36
-36
-38
-41
-44
-45
-44
-43
-43
-44
-45
-45
-45
-48
-51
-46
-41
-47
-51
-52
-53
-50
-47
-47
-47
-47
-47
-49
-51
-49
-47
-47
-47
-47
-49
-53
-55
-54
-52
-50
-49
-49
-49
-50
-51
-51
-48
-44
-43
-43
-45
-49
-48
-47
-45
-43
-47
-51
-53
-55
-51
-47
-45
-43
-46
-49
-47
-45
-43
-41
-43
-45
-42
-42
-44
-44
-42
-39
-35
-35
-39
-39
-36
-36
-38
-33
-25
-22
-20
-19
-20
-17
-21
-14
-17
-26
-35
-35
-35
-36
-37
-40
-43
-40
-37
-36
-35
-36
-36
-33
-31
-32
-34
-39
-64
-110
-141
-159
-133
-77
24
149
293
445
525
581
610
633
433
190
16
-150
-192
-226
-212
-197
-178
-159
-134
-109
-87
-69
-68
-67
-65
-62
-54
-49
-51
-52
-47
-44
-48
-49
-43
-38
-36
-36
-38
-38
-35
-32
-28
-26
-24
-23
-24
-21
-16
-12
-8
0
8
12
16
18
21
24
27
34
41
43
45
47
49
48
47
49
50
45
39
33
27
20
13
7
0
-7
-13
-18
-23
-29
-32
-35
-38
-40
-41
-42
-43
-43
-42
-40
-38
-36
-37
-40
-39
-41
-32
-29
-34
-39
-37
-35
-30
-26
-32
-37
-36
-35
-33
-31
-30
-29
-31
-33
-32
-31
-32
-33
-32
-31
-31
-34
-39
-43
-46
-45
-41
-38
-36
-37
-40
-41
-41
-41
-40
-39
-39
-40
-41
-39
-37
-36
-35
-33
-31
-37
-41
-38
-35
-35
-35
-35
-35
-34
-33
-34
-35
-33
-30
-28
-28
-30
-31
-31
-31
-32
-33
-32
-31
-30
-29
-30
-29
-26
-22
-18
-17
-17
-21
-27
-22
-17
-19
-21
-12
-5
-3
0
5
9
7
3
-4
-9
-11
-13
-15
-17
-19
-22
-25
-27
-27
-26
-24
-20
-15
-16
-21
-19
-13
-33
-63
-99
-137
-120
-92
7
114
260
119
499
586
615
631
519
391
161
-43
-130
-197
-192
-185
-170
-150
-121
-94
-70
-55
-54
-53
-52
-48
-42
-38
-36
-34
-32
-30
-28
-28
-30
-26
-19
-17
-18
-16
-12
-11
-12
-12
-10
-3
3
4
5
8
11
16
21
24
28
34
40
45
50
57
61
62
64
67
69
68
67
66
65
64
59
52
44
36
29
23
16
9
3
-3
-10
-16
-20
-24
-25
-26
-30
-35
-35
-35
-34
-33
-33
-33
-30
-27
-31
-34
-29
-25
-27
-28
-25
-24
-28
-30
-26
-23
-24
-24
-22
-20
-18
-14
-9
-11
-17
-21
-24
-25
-24
-23
-24
-25
-25
-25
-26
-27
-27
-25
-25
-26
-27
-28
-29
-29
-29
-30
-31
-32
-33
-31
-29
-27
-25
-25
-25
-26
-27
-28
-29
-28
-27
-27
-27
-26
-25
-25
-25
-25
-25
-26
-27
-28
-29
-29
-26
-22
-21
-22
-25
-27
-28
-29
-28
-27
-24
-21
-21
-21
-22
-23
-23
-23
-22
-21
-20
-19
-20
-21
-22
-22
-19
-16
-14
-13
-12
-10
-6
-2
3
7
10
11
10
0
-11
-13
-12
-13
-16
-18
-21
-21
-21
-24
-27
-23
-19
-22
-25
-25
-23
-14
-18
-57
-91
-114
-125
-115
-70
22
141
292
419
526
584
608
591
549
367
116
-39
-157
-190
-197
-185
-168
-147
-126
-98
-69
-60
-67
-49
-47
-45
-43
-40
-37
-35
-33
-33
-33
-32
-31
-30
-28
-23
-18
-14
-12
-16
-19
-18
-16
-13
-9
-3
0
2
5
8
13
19
26
33
35
36
38
40
47
54
56
58
60
61
61
61
62
63
60
56
45
36
30
23
14
5
-2
-9
-15
-20
-24
-27
-29
-30
-27
-28
-34
-36
-34
-33
-33
-34
-36
-34
-30
-29
-30
-28
-24
-23
-22
-22
-24
-26
-29
-26
-23
-25
-27
-27
-27
-26
-25
-24
-23
-21
-20
-25
-30
-33
-33
-28
-26
-30
-33
-33
-33
-34
-36
-38
-38
-35
-33
-34
-35
-34
-33
-32
-32
-34
-35
-36
-37
-37
-37
-37
-33
-31
-33
-35
-38
-41
-39
-37
-39
-41
-40
-39
-38
-37
-36
-35
-33
-31
-33
-35
-38
-37
-33
-32
-35
-36
-33
-33
-36
-37
-37
-35
-32
-31
-30
-33
-38
-37
-34
-34
-36
-37
-37
-31
-25
-30
-35
-33
-31
-34
-37
-35
-33
-33
-33
-32
-31
-29
-27
-26
-25
-27
-24
-13
-6
-3
-2
-5
-7
-7
-11
-19
-22
-24
-25
-26
-28
-30
-31
-32
-33
-34
-35
-33
-33
-33
-33
-33
-28
-26
-51
-78
-115
-142
-138
-114
-43
53
196
335
468
561
604
581
486
312
68
-86
-175
-209
-210
-205
-194
-174
-149
-119
-87
-76
-69
-64
-60
-59
-59
-58
-59
-52
-49
-47
-45
-44
-43
-40
-37
-37
-37
-34
-31
-30
-29
-29
-28
-22
-18
-15
-13
-14
-12
-5
0
3
9
16
21
25
29
32
39
47
48
46
45
45
45
46
47
46
42
39
32
25
19
13
7
0
-9
-17
-21
-26
-30
-33
-37
-40
-45
-49
-48
-47
-48
-47
-42
-40
-42
-43
-43
-43
-44
-45
-44
-42
-40
-39
-38
-37
-37
-34
-30
-30
-32
-34
-37
-36
-35
-35
-35
-37
-39
-38
-37
-40
-43
-42
-41
-39
-39
-45
-48
-45
-43
-45
-47
-47
-47
-47
-47
-47
-45
-41
-39
-40
-43
-46
-46
-44
-43
-42
-41
-42
-44
-46
-47
-47
-43
-37
-40
-43
-43
-43
-41
-39
-39
-39
-39
-39
-40
-41
-40
-38
-35
-35
-40
-42
-39
-37
-37
-37
-37
-36
-34
-33
-33
-34
-36
-35
-32
-31
-30
-29
-28
-27
-28
-30
-32
-31
-29
-28
-27
-28
-29
-27
-25
-25
-25
-23
-21
-18
-15
-16
-15
-9
-4
-1
1
2
2
0
-4
-12
-15
-14
-13
-14
-17
-20
-22
-24
-27
-30
-30
-28
-22
-16
-16
-18
-19
-21
-64
-106
-122
-133
-88
-33
72
186
334
463
537
596
620
587
439
270
68
-77
-148
-184
-181
-173
-161
-143
-122
-95
-65
-52
-47
-45
-44
-43
-42
-37
-32
-31
-30
-29
-28
-24
-27
-17
-15
-16
-17
-15
-13
-9
-5
-4
-3
-3
-2
2
6
11
17
23
28
31
36
43
48
50
52
55
60
65
70
75
76
74
73
72
67
62
59
56
51
46
36
26
17
9
4
-1
-6
-11
-14
-17
-20
-23
-25
-27
-29
-31
-30
-29
-27
-25
-26
-27
-25
-21
-16
-14
-16
-20
-26
-28
-24
-22
-20
-19
-18
-17
-16
-15
-15
-13
-10
-12
-16
-16
-13
-14
-15
-17
-19
-16
-13
-18
-23
-24
-25
-22
-19
-21
-23
-24
-25
-23
-21
-21
-21
-21
-21
-21
-21
-22
-22
-19
-17
-18
-19
-20
-21
-21
-20
-18
-17
-18
-18
-16
-19
-15
-24
-23
-21
-19
-18
-17
-19
-21
-22
-23
-21
-19
-17
-15
-16
-17
-16
-15
-16
-17
-17
-16
-14
-14
-17
-19
-18
-14
-9
-10
-15
-16
-14
-13
-14
-15
-15
-13
-10
-12
-16
-15
-13
-12
-11
-6
-1
-2
-3
3
7
11
15
14
13
11
8
4
1
-1
-4
-8
-10
-8
-9
-13
-15
-15
-14
-10
-9
-8
-9
-12
-8
-1
-33
-75
-102
-127
-104
-76
31
141
287
430
510
586
614
618
480
326
114
-63
-138
-189
-180
-168
-150
-129
-104
-80
-59
-46
-41
-39
-39
-39
-38
-36
-34
-32
-30
-26
-21
-18
-16
-15
-15
-14
-12
-10
-8
-6
-7
1
5
4
3
9
15
19
23
24
26
32
38
44
50
54
58
64
67
69
71
74
76
78
78
76
75
75
67
53
46
41
35
29
19
9
2
-4
-5
-6
-15
-24
-26
-27
-28
-29
-29
-29
-25
-21
-27
-31
-30
-29
-28
-26
-22
-19
-21
-23
-21
-20
-24
-26
-23
-21
-20
-20
-22
-23
-23
-22
-20
-19
-19
-16
-12
-13
-16
-21
-26
-23
-18
-23
-31
-28
-25
-25
-25
-24
-23
-26
-29
-27
-25
-26
-27
-30
-33
-32
-30
-27
-25
-26
-27
-27
-31
-39
-40
-34
-31
-30
-33
-39
-39
-34
-33
-33
-37
-42
-41
-38
-36
-34
-37
-33
-38
-33
-36
-39
-41
-42
-34
-27
-33
-37
-40
-43
-43
-43
-41
-38
-35
-33
-34
-36
-39
-40
-37
-35
-35
-34
-32
-30
-28
-28
-30
-24
-14
-10
-8
-8
-10
-9
-6
-12
-20
-24
-27
-26
-25
-24
-23
-25
-27
-33
-37
-35
-33
-33
-33
-29
-25
-19
-27
-59
-93
-130
-142
-126
-72
14
139
292
419
531
586
613
558
472
264
21
-99
-195
-207
-206
-188
-168
-146
-123
-95
-69
-65
-61
-61
-61
-54
-48
-43
-39
-39
-39
-41
-42
-38
-34
-30
-27
-27
-27
-28
-27
-23
-20
-17
-12
-7
-7
-10
-6
1
5
8
12
16
24
32
34
36
44
37
62
71
63
55
54
54
61
67
64
59
50
40
29
19
13
8
4
-2
-10
-17
-24
-27
-28
-34
-43
-47
-46
-41
-35
-35
-39
-41
-40
-39
-38
-40
-44
-41
-36
-33
-30
-32
-35
-34
-33
-31
-29
-24
-19
-22
-25
-27
-28
-23
-20
-25
-29
-30
-30
-27
-25
-27
-30
-32
-32
-30
-30
-32
-33
-32
-31
-32
-34
-36
-34
-30
-29
-28
-28
-30
-31
-32
-33
-33
-28
-23
-28
-33
-32
-31
-30
-29
-25
-21
-24
-27
-29
-31
-29
-26
-23
-24
-31
-34
-31
-25
-17
-14
-17
-20
-22
-23
-24
-25
-24
-23
-22
-22
-24
-22
-18
-15
-12
-10
-11
1
9
14
19
8
-1
-8
-13
-13
-13
-13
-14
-18
-21
-22
-21
-15
-14
-21
-25
-25
-23
-19
-17
-17
-31
-56
-85
-117
-124
-119
-53
33
169
317
436
550
586
613
576
534
279
26
-81
-181
-188
-193
-175
-156
-137
-115
-85
-62
-54
-49
-48
-46
-41
-36
-32
-29
-31
-31
-26
-23
-22
-21
-22
-22
-20
-17
-14
-12
-10
-7
-4
-2
0
8
16
15
12
13
17
25
33
39
45
48
52
60
67
64
63
73
80
76
73
71
69
67
63
57
51
44
38
31
20
6
-2
-7
-13
-19
-21
-21
-25
-31
-33
-33
-33
-34
-35
-36
-38
-37
-37
-33
-31
-29
-30
-31
-31
-31
-30
-29
-26
-23
-21
-19
-20
-22
-26
-28
-25
-23
-22
-20
-17
-18
-24
-28
-30
-31
-32
-33
-33
-32
-30
-26
-22
-27
-34
-36
-38
-39
-40
-40
-39
-39
-39
-36
-33
-33
-33
-32
-31
-29
-29
-37
-43
-39
-37
-36
-35
-35
-35
-35
-34
-31
-29
-30
-32
-35
-37
-36
-34
-32
-32
-34
-35
-34
-33
-32
-27
-22
-25
-30
-31
-31
-26
-21
-28
-35
-35
-35
-32
-29
-27
-24
-18
-13
-14
-15
-14
-11
-6
-1
5
6
-1
-8
-15
-20
-22
-23
-22
-25
-31
-34
-36
-37
-36
-34
-32
-31
-31
-32
-34
-30
-35
-41
-61
-108
-151
-150
-136
-41
63
206
343
465
561
591
600
565
445
183
-17
-133
-200
-213
-213
-201
-183
-160
-133
-102
-85
-75
-68
-63
-59
-56
-55
-55
-55
-55
-55
-54
-50
-46
-44
-43
-46
-49
-46
-42
-33
-25
-28
-31
-30
-28
-22
-17
-16
-15
-14
-11
-3
4
11
18
24
30
36
40
43
45
46
46
44
44
46
46
44
43
42
36
30
20
10
-2
-15
-19
-23
-28
-33
-39
-46
-53
-59
-59
-58
-53
-49
-50
-52
-55
-57
-57
-57
-58
-59
-59
-55
-47
-45
-49
-48
-43
-42
-44
-45
-44
-40
-36
-38
-42
-43
-44
-46
-48
-49
-49
-45
-43
-43
-43
-47
-51
-51
-51
-48
-45
-50
-54
-58
-60
-55
-51
-51
-51
-52
-53
-50
-48
-46
-50
-61
-62
-57
-53
-49
-48
-50
-48
-44
-47
-52
-53
-53
-53
-52
-51
-51
-51
-51
-51
-51
-51
-51
-46
-41
-42
-43
-45
-47
-49
-51
-51
-50
-47
-45
-47
-49
-51
-53
-52
-50
-47
-44
-41
-39
-39
-34
-26
-22
-20
-18
-16
-12
-8
-8
-10
-18
-26
-30
-35
-38
-41
-42
-43
-42
-41
-39
-37
-37
-37
-36
-35
-37
-38
-34
-42
-70
-100
-132
-143
-128
-75
13
133
275
401
518
576
606
578
526
314
54
-80
-186
-207
-214
-203
-190
-170
-189
-113
-77
-67
-57
-56
-55
-51
-47
-50
-52
-47
-43
-40
-37
-35
-31
-24
-19
-19
-19
-22
-22
-20
-17
-11
-11
-15
-14
-9
-5
-1
5
11
15
18
23
28
35
42
46
50
54
57
59
61
64
67
70
72
66
60
54
48
40
34
27
21
12
3
-8
-15
-16
-17
-17
-18
-21
-28
-37
-41
-40
-39
-38
-35
-32
-31
-30
-32
-36
-34
-30
-29
-29
-26
-21
-21
-21
-22
-23
-22
-21
-19
-17
-18
-18
-14
-11
-13
-16
-21
-25
-26
-28
-31
-32
-27
-25
-24
-25
-29
-28
-22
-23
-29
-31
-31
-29
-26
-25
-25
-25
-26
-23
-18
-22
-17
-28
-27
-28
-29
-29
-29
-27
-25
-24
-23
-20
-18
-24
-29
-31
-32
-28
-25
-23
-22
-25
-26
-24
-25
-29
-28
-22
-18
-16
-21
-30
-27
-19
-17
-18
-19
-20
-18
-14
-17
-22
-23
-23
-18
-13
-11
-9
-11
-12
-3
5
5
5
7
9
9
6
-4
-11
-13
-15
-15
-15
-15
-15
-14
-13
-12
-14
-21
-21
-17
-15
-15
-19
-25
-60
-100
-115
-128
-92
-51
75
205
362
512
562
608
626
603
360
133
-24
-149
-176
-192
-181
-165
-140
-113
-81
-61
-56
-51
-46
-39
-31
-31
-38
-38
-32
-29
-28
-25
-22
-20
-18
-17
-16
-15
-15
-15
-16
-17
-17
-9
-1
2
5
8
11
10
10
18
26
33
40
45
49
51
55
61
67
72
74
71
70
72
72
69
64
59
53
46
39
33
28
24
11
-4
-10
-14
-16
-18
-22
-26
-26
-25
-29
-33
-31
-29
-30
-31
-33
-34
-29
-25
-26
-27
-29
-30
-25
-21
-23
-25
-24
-20
-13
-12
-18
-21
-20
-19
-18
-18
-20
-21
-22
-23
-22
-21
-22
-20
-16
-18
-22
-23
-23
-25
-27
-29
-31
-29
-27
-28
-29
-28
-27
-25
-23
-22
-22
-25
-28
-31
-33
-31
-29
-29
-29
-28
-28
-30
-28
-22
-19
-20
-23
-26
-27
-26
-25
-25
-27
-30
-30
-28
-26
-27
-22
-21
-19
-17
-23
-29
-28
-27
-26
-25
-20
-19
-27
-32
-27
-22
-19
-18
-21
-23
-24
-25
-26
-27
-26
-24
-22
-21
-21
-19
-15
-10
-5
-5
-8
-9
-9
-5
0
1
2
-2
-7
-10
-13
-16
-19
-18
-18
-24
-29
-30
-30
-25
-22
-27
-31
-31
-30
-27
-25
-25
-45
-87
-117
-137
-123
-85
0
112
247
394
489
566
606
635
507
344
139
-72
-147
-211
-206
-197
-182
-166
-137
-109
-89
-71
-66
-61
-57
-53
-53
-52
-47
-43
-45
-47
-45
-42
-38
-35
-32
-31
-32
-32
-30
-25
-18
-17
-21
-21
-16
-13
-10
-6
-2
2
6
9
12
20
13
34
39
43
47
50
53
55
57
56
55
56
56
50
45
44
42
36
29
17
6
-5
-12
-15
-20
-26
-31
-35
-37
-38
-41
-44
-45
-44
-43
-43
-42
-40
-39
-40
-41
-41
-38
-35
-34
-33
-34
-35
-31
-27
-24
-21
-25
-29
-30
-31
-35
-37
-36
-35
-36
-37
-35
-32
-30
-30
-33
-35
-36
-37
-36
-36
-38
-39
-39
-42
-46
-42
-34
-32
-30
-37
-46
-46
-43
-42
-41
-42
-43
-41
-39
-39
-39
-41
-42
-38
-35
-35
-36
-40
-43
-42
-41
-40
-39
-36
-35
-35
-35
-36
-36
-34
-33
-34
-35
-35
-35
-36
-37
-38
-37
-34
-33
-32
-33
-31
-32
-27
-27
-27
-30
-33
-31
-29
-30
-31
-30
-29
-31
-32
-29
-26
-22
-19
-21
-23
-22
-17
-8
-4
-6
-5
-1
-1
-4
-7
-10
-12
-14
-18
-22
-25
-28
-27
-24
-27
-32
-29
-25
-26
-27
-26
-25
-20
-22
-64
-102
-125
-134
-98
-37
78
206
354
474
551
603
627
575
447
267
44
-93
-172
-198
-191
-182
-172
-151
-125
-100
-76
-64
-55
-50
-46
-44
-42
-42
-45
-40
-35
-32
-29
-29
-29
-29
-29
-27
-24
-17
-11
-12
-12
-8
-5
-4
-3
-4
-3
2
7
12
17
21
27
34
39
43
50
59
61
61
62
64
65
66
72
78
75
79
60
51
50
48
37
26
18
11
7
2
-7
-14
-19
-23
-25
-27
-27
-27
-28
-29
-29
-28
-25
-25
-29
-31
-30
-29
-29
-27
-23
-21
-21
-22
-24
-24
-22
-21
-20
-19
-18
-18
-19
-21
-23
-22
-21
-18
-15
-17
-19
-21
-23
-25
-27
-29
-31
-30
-29
-29
-29
-27
-26
-28
-29
-28
-27
-28
-29
-30
-32
-34
-32
-28
-27
-28
-29
-30
-28
-24
-25
-28
-31
-35
-30
-25
-25
-25
-26
-27
-28
-28
-22
-18
-22
-25
-25
-25
-23
-23
-28
-31
-31
-31
-28
-26
-24
-22
-20
-19
-19
-20
-22
-23
-23
-23
-23
-21
-18
-16
-14
-13
-13
-12
-13
1
11
10
9
5
1
0
-2
-9
-15
-14
-14
-18
-21
-23
-25
-24
-22
-19
-17
-20
-22
-24
-23
-19
-28
-46
-79
-120
-133
-134
-76
4
137
284
412
537
574
601
586
568
308
50
-72
-185
-192
-197
-181
-164
-141
-118
-92
-71
-62
-55
-55
-55
-53
-50
-46
-43
-42
-39
-35
-32
-30
-29
-29
-29
-30
-30
-28
-26
-24
-23
-23
-19
-14
-9
-4
-2
0
1
3
8
13
18
23
28
34
41
47
51
56
61
65
64
63
64
65
66
63
54
47
42
36
29
21
14
8
2
-6
-14
-20
-25
-31
-37
-39
-38
-37
-37
-42
-48
-49
-49
-47
-43
-42
-41
-41
-41
-39
-37
-36
-35
-36
-37
-37
-37
-35
-32
-28
-25
-26
-30
-37
-40
-37
-35
-34
-34
-36
-39
-42
-43
-42
-38
-34
-34
-36
-37
-38
-41
-44
-45
-46
-46
-45
-42
-39
-40
-41
-42
-43
-45
-47
-47
-47
-47
-46
-41
-39
-48
-52
-49
-47
-46
-44
-41
-40
-42
-43
-44
-45
-45
-45
-45
-45
-44
-43
-42
-43
-46
-42
-36
-37
-40
-42
-45
-43
-41
-38
-35
-39
-43
-43
-43
-42
-40
-36
-33
-33
-33
-32
-31
-29
-26
-23
-20
-17
-13
-8
-7
-11
-18
-26
-30
-32
-34
-36
-39
-42
-43
-44
-43
-40
-39
-40
-40
-41
-31
-25
-30
-38
-79
-118
-139
-152
-122
-72
47
177
335
465
541
600
629
560
352
151
-43
-158
-200
-217
-213
-197
-174
-153
-135
-113
-89
-75
-64
-61
-61
-60
-58
-56
-54
-53
-52
-49
-47
-44
-41
-42
-43
-35
-29
-32
-35
-33
-30
-25
-21
-22
-23
-22
-17
-7
0
4
9
14
17
18
23
32
37
41
43
44
48
52
54
56
57
57
56
54
46
38
32
25
17
9
1
-7
-16
-24
-31
-37
-38
-39
-41
-43
-43
-44
-47
-48
-45
-43
-45
-47
-46
-45
-46
-46
-43
-40
-38
-37
-38
-37
-32
-32
-34
-35
-36
-35
-32
-33
-36
-37
-37
-32
-29
-32
-35
-39
-43
-40
-37
-40
-43
-40
-38
-43
-46
-42
-39
-39
-40
-43
-45
-44
-40
-34
-35
-43
-46
-43
-41
-42
-41
-38
-37
-36
-35
-34
-35
-38
-39
-39
-39
-40
-38
-35
-34
-33
-37
-41
-39
-37
-34
-31
-31
-31
-34
-36
-32
-29
-27
-26
-30
-33
-33
-32
-29
-27
-26
-24
-21
-18
-14
-11
-8
-6
-4
-1
2
1
-2
-5
-8
-9
-10
-17
-25
-26
-27
-27
-27
-28
-29
-27
-25
-22
-19
-21
-21
-13
-18
-51
-83
-116
-130
-116
-63
32
156
307
428
527
580
604
574
514
316
65
-67
-163
-189
-199
-187
-171
-150
-129
-99
-127
-56
-43
-45
-47
-44
-41
-37
-33
-32
-31
-30
-28
-24
-21
-20
-19
-19
-18
-14
-11
-11
-10
-8
-6
-4
-1
3
9
15
17
18
24
31
37
42
44
46
53
60
64
68
71
73
69
65
70
75
74
72
66
58
44
32
28
24
17
9
-2
-11
-16
-19
-21
-23
-23
-29
-40
-44
-42
-40
-38
-37
-38
-39
-39
-37
-34
-33
-34
-35
-34
-32
-30
-29
-29
-27
-25
-26
-27
-25
-23
-26
-29
-25
-21
-18
-16
-21
-26
-30
-31
-26
-24
-28
-31
-31
-31
-32
-33
-32
-31
-30
-29
-30
-33
-36
-34
-30
-29
-29
-32
-36
-37
-37
-36
-37
-29
-25
-29
-33
-33
-33
-29
-25
-29
-33
-33
-33
-35
-36
-32
-29
-28
-27
-27
-27
-30
-31
-32
-33
-32
-30
-28
-27
-26
-26
-28
-28
-26
-25
-26
-27
-26
-25
-25
-26
-28
-24
-19
-24
-29
-27
-25
-19
-13
-15
-17
-21
-23
-11
-3
1
5
11
12
3
-7
-17
-21
-16
-15
-19
-22
-24
-26
-30
-27
-21
-22
-26
-27
-28
-27
-24
-22
-20
-62
-109
-128
-147
-101
-50
65
185
331
464
527
581
605
584
426
255
50
-106
-167
-201
-191
-178
-162
-139
-108
-85
-68
-60
-57
-54
-52
-49
-46
-45
-46
-44
-38
-34
-30
-33
-38
-38
-36
-32
-35
-25
-23
-23
-23
-17
-11
-10
-9
-8
-7
-4
-1
2
6
10
15
22
30
37
42
47
50
53
56
58
59
60
61
61
61
61
60
58
49
39
30
21
12
4
0
-4
-15
-25
-29
-33
-35
-37
-34
-31
-35
-39
-40
-41
-39
-37
-38
-38
-35
-33
-34
-35
-35
-33
-29
-27
-27
-28
-30
-30
-28
-25
-22
-21
-22
-23
-23
-25
-28
-26
-22
-27
-34
-35
-35
-36
-37
-35
-33
-33
-33
-33
-33
-32
-31
-32
-33
-32
-31
-33
-35
-35
-35
-35
-35
-36
-36
-34
-32
-30
-30
-33
-35
-36
-37
-36
-35
-36
-37
-37
-36
-34
-33
-33
-33
-33
-32
-31
-33
-35
-37
-39
-37
-35
-33
-31
-33
-35
-33
-32
-35
-36
-32
-29
-28
-28
-33
-34
-32
-31
-31
-31
-30
-31
-35
-35
-32
-30
-28
-27
-28
-29
-29
-29
-30
-31
-32
-32
-31
-30
-29
-27
-25
-25
-25
-27
-29
-29
-29
-27
-25
-25
-24
-21
-19
-19
-17
-12
-7
-2
0
-2
-3
-2
-3
-7
-15
-24
-24
-20
-21
-24
-28
-32
-30
-26
-26
-28
-29
-29
-28
-27
-23
-21
-47
-74
-110
-137
-126
-91
17
139
294
426
513
576
599
566
456
287
54
-95
-171
-203
-203
-193
-177
-158
-139
-114
-86
-72
-63
-61
-60
-56
-52
-51
-50
-48
-49
-38
-31
-34
-37
-33
-29
-29
-29
-28
-27
-28
-28
-22
-17
-19
-18
-10
-5
-3
0
5
11
19
23
22
24
29
34
39
44
49
53
56
59
62
63
62
59
56
50
44
39
35
27
19
10
1
-3
-8
-14
-20
-25
-29
-32
-35
-34
-34
-39
-42
-38
-35
-36
-37
-36
-35
-34
-33
-34
-35
-34
-32
-30
-29
-29
-29
-28
-29
-32
-31
-28
-27
-28
-29
-29
-30
-31
-33
-35
-32
-29
-32
-35
-36
-37
-37
-37
-38
-39
-39
-38
-35
-34
-38
-41
-38
-38
-41
-43
-42
-40
-37
-35
-35
-37
-40
-39
-36
-35
-34
-34
-36
-37
-37
-38
-37
-38
-35
-37
-39
-37
-35
-36
-37
-35
-33
-33
-33
-32
-31
-31
-31
-31
-31
-31
-31
-32
-33
-32
-30
-28
-27
-28
-29
-28
-28
-30
-28
-24
-24
-26
-27
-27
-27
-27
-27
-27
-24
-21
-22
-23
-25
-27
-24
-21
-18
-16
-23
-29
-26
-23
-19
-18
-21
-22
-19
-17
-15
-12
-9
-8
-10
-9
-5
-1
3
6
8
10
12
6
-3
-7
-10
-9
-6
-9
-14
-15
-13
-16
-19
-19
-19
-17
-15
-15
-15
-12
-16
-48
-79
-109
-122
-101
-44
68
195
342
457
537
589
617
551
415
230
17
-101
-172
-191
-188
-173
-155
-130
-103
-82
-61
-55
-50
-49
-49
-41
-33
-30
-27
-27
-27
-27
-27
-23
-19
-21
-22
-18
-15
-14
-12
-9
-7
-6
-5
-4
0
7
12
14
20
29
35
39
39
36
41
49
55
62
64
66
69
72
73
72
73
75
71
67
68
68
59
50
41
32
25
17
9
1
-6
-12
-16
-21
-27
-31
-29
-27
-26
-27
-31
-32
-29
-27
-28
-29
-29
-29
-28
-27
-27
-22
-16
-15
-14
-16
-20
-23
-27
-21
-15
-18
-21
-19
-17
-19
-21
-20
-19
-18
-17
-18
-20
-23
-25
-25
-24
-20
-19
-24
-28
-30
-29
-25
-24
-26
-27
-27
-26
-24
-26
-30
-28
-24
-23
-24
-25
-26
-27
-27
-25
-21
-22
-23
-24
-25
-25
-25
-27
-29
-26
-23
-23
-23
-24
-25
-24
-23
-21
-19
-20
-22
-24
-25
-24
-23
-23
-23
-23
-23
-22
-21
-21
-20
-18
-20
-24
-23
-20
-19
-20
-20
-19
-18
-17
-18
-19
-16
-13
-12
-12
-17
-21
-18
-15
-15
-15
-15
-15
-16
-17
-18
-15
-6
-3
-8
-11
-10
-6
-1
3
7
9
10
12
14
10
4
2
0
-1
-2
-8
-15
-18
-21
-19
-17
-17
-17
-16
-15
-16
-16
-9
-10
-36
-66
-106
-127
-114
-65
32
152
295
416
518
573
594
602
599
429
178
14
-116
-165
-188
-182
-168
-150
-131
-103
-73
-60
-71
-45
-43
-43
-43
-42
-41
-37
-33
-33
-32
-27
-23
-24
-25
-23
-20
-16
-13
-13
-13
-13
-12
-10
-6
0
4
6
9
12
16
21
29
37
43
48
50
52
57
62
64
66
70
73
74
75
72
69
69
68
59
49
37
26
18
12
8
3
-6
-13
-18
-24
-31
-34
-31
-32
