-13
-13
-11
-9
-7
-8
-9
-9
-9
-7
-5
-4
-4
-9
-13
-15
-17
-18
-17
-12
-10
-13
-16
-18
-19
-19
-19
-19
-20
-22
-23
-23
-23
-22
-21
-22
-23
-23
-43
-67
-94
-122
-134
-145
-156
-168
-193
-213
-196
-171
-113
-58
-16
17
27
35
34
33
31
29
28
27
26
26
28
29
29
30
32
33
32
31
32
33
34
35
34
33
34
35
35
36
38
39
37
38
39
41
43
43
43
43
43
42
41
40
39
36
31
25
20
16
12
9
6
1
-2
-5
-8
-10
-11
-12
-13
-13
-13
-13
-13
-13
-13
-13
-13
-12
-11
-12
-13
-13
-13
-13
-13
-13
-14
-15
-15
-15
-15
-15
-15
-15
-16
-17
-16
-14
-11
-9
-9
-9
-10
-11
-12
-11
-7
-7
-11
-15
-18
-20
-22
-21
-18
-17
-16
-16
-18
-20
-22
-23
-22
-21
-21
-23
-25
-25
-25
-25
-25
-24
-23
-26
-37
-70
-98
-117
-132
-142
-156
-173
-191
-209
-202
-167
-120
-63
-20
13
27
31
32
30
29
28
27
26
25
25
25
26
27
28
28
25
26
27
28
29
31
33
33
33
32
31
32
33
35
37
37
37
37
37
37
37
38
39
38
36
34
32
30
28
26
22
17
12
6
3
0
-2
-4
-8
-12
-13
-13
-15
-15
-14
-13
-15
-17
-18
-19
-18
-17
-16
-15
-16
-17
-17
-17
-17
-17
-17
-17
-18
-19
-19
-19
-19
-19
-19
-19
-19
-19
-19
-17
-14
-13
-13
-13
-13
-13
-13
-13
-12
-15
-19
-21
-23
-25
-27
-24
-21
-22
-23
-23
-23
-25
-27
-26
-25
-26
-27
-27
-27
-28
-29
-28
-27
-28
-44
-71
-92
-109
-119
-125
-135
-146
-172
-201
-196
-183
-132
-76
-33
9
17
25
25
25
21
17
19
21
21
21
22
23
22
21
23
25
25
25
25
25
25
25
26
27
27
27
26
25
25
26
28
29
29
29
28
27
28
29
29
28
26
24
25
19
17
15
13
8
3
-1
-5
-7
-9
-11
-13
-15
-17
-18
-19
-20
-21
-20
-19
-19
-19
-20
-21
-21
-21
-20
-19
-19
-20
-22
-23
-23
-22
-20
-20
-22
-23
-24
-25
-24
-23
-23
-22
-21
-20
-19
-18
-17
-18
-19
-20
-21
-18
-16
-20
-23
-24
-26
-29
-30
-27
-25
-25
-25
-26
-28
-30
-31
-32
-33
-33
-33
-32
-31
-32
-33
-33
-33
-33
-41
-50
-81
-113
-126
-139
-146
-154
-172
-189
-204
-210
-174
-135
-83
-37
-4
20
23
24
21
19
18
17
17
17
17
17
18
19
19
19
20
21
22
23
22
21
21
22
24
25
25
25
25
25
25
26
27
28
29
29
29
29
29
29
29
26
22
19
17
15
11
6
2
-3
-7
-11
-14
-17
-20
-22
-23
-24
-25
-26
-27
-27
-27
-26
-25
-26
-27
-27
-27
-27
-26
-25
-26
-27
-27
-27
-27
-27
-27
-27
-28
-29
-29
-29
-29
-29
-28
-27
-25
-23
-23
-23
-24
-25
-24
-23
-22
-21
-22
-25
-29
-31
-30
-30
-32
-31
-28
-29
-32
-33
-32
-31
-33
-34
-35
-36
-37
-36
-35
-36
-37
-37
-37
-39
-50
-82
-109
-127
-143
-154
-166
-178
-194
-213
-210
-186
-146
-95
-51
-11
9
18
21
20
17
14
13
12
12
14
15
16
17
17
17
17
19
21
21
21
19
17
18
19
21
23
24
25
25
25
25
26
29
31
30
29
29
28
26
26
28
27
24
21
18
14
10
7
4
0
-4
-9
-14
-16
-18
-20
-21
-24
-27
-26
-25
-25
-25
-24
-23
-24
-25
-25
-25
-25
-25
-24
-23
-24
-25
-26
-27
-27
-27
-26
-25
-26
-27
-27
-27
-27
-25
-22
-21
-20
-20
-22
-23
-22
-21
-20
-19
-17
-23
-29
-29
-29
-30
-31
-29
-27
-28
-29
-30
-31
-31
-31
-31
-31
-33
-35
-35
-35
-34
-33
-34
-35
-35
-46
-64
-90
-120
-136
-146
-155
-163
-183
-205
-210
-212
-173
-128
-81
-125
-5
23
24
25
22
19
17
15
16
17
18
19
19
19
19
19
19
19
20
21
21
21
21
21
22
24
26
27
26
25
26
27
28
29
30
31
31
31
31
31
31
30
29
27
25
21
17
13
9
5
1
-2
-6
-11
-15
-17
-19
-19
-19
-20
-21
-22
-23
-22
-21
-21
-21
-22
-23
-23
-23
-22
-21
-21
-21
-22
-23
-23
-23
-22
-21
-21
-21
-23
-25
-27
-24
-21
-19
-17
-17
-17
-18
-19
-19
-18
-14
-12
-16
-20
-23
-25
-26
-27
-24
-23
-24
-25
-26
-27
-28
-29
-28
-27
-28
-29
-30
-31
-31
-31
-31
-31
-30
-36
-29
-78
-111
-124
-137
-148
-159
-178
-195
-210
-214
-180
-141
-89
-41
-5
20
26
29
28
26
21
19
18
17
18
19
20
21
21
21
21
21
22
24
26
27
26
25
25
25
26
28
29
29
29
29
29
31
33
34
35
36
37
35
33
31
29
29
28
24
20
16
11
6
2
0
-3
-7
-10
-14
-15
-16
-17
-16
-16
-18
-19
-20
-21
-20
-19
-18
-17
-19
-20
-21
-20
-19
-18
-17
-18
-19
-21
-23
-23
-23
-21
-19
-20
-21
-22
-23
-21
-18
-15
-14
-16
-17
-17
-17
-17
-15
-11
-12
-17
-20
-22
-23
-24
-23
-20
-19
-20
-22
-21
-26
-27
-26
-25
-26
-27
-27
-27
-28
-29
-29
-29
-29
-33
-46
-66
-97
-120
-132
-144
-155
-173
-198
-209
-209
-178
-125
-75
-26
3
23
29
29
28
26
24
22
21
21
22
24
25
25
25
25
25
25
26
27
28
29
29
29
28
27
28
29
31
33
33
33
33
34
36
37
37
37
37
36
34
33
33
32
30
25
19
15
12
8
4
1
-2
-5
-9
-11
-13
-15
-17
-17
-17
-17
-17
-17
-17
-17
-17
-16
-15
-17
-19
-18
-17
-18
-19
-18
-17
-18
-19
-19
-19
-19
-19
-19
-19
-19
-19
-18
-16
-14
-13
-13
-13
-14
-15
-15
-13
-9
-12
-15
-18
-21
-22
-23
-22
-21
-19
-17
-20
-23
-25
-27
-26
-25
-24
-23
-24
-25
-26
-27
-27
-27
-26
-27
-31
-56
-88
-110
-127
-138
-147
-162
-179
-198
-217
-195
-168
-114
-60
-19
19
24
29
29
29
26
23
22
21
21
21
23
25
26
27
26
25
25
25
25
26
28
29
29
29
28
27
28
30
32
33
33
33
33
34
36
37
37
37
35
35
35
32
29
27
25
21
16
10
5
2
-1
-3
-6
-10
-13
-15
-17
-17
-17
-16
-15
-16
-17
-18
-19
-19
-19
-18
-17
-17
-18
-20
-21
-21
-20
-18
-18
-20
-21
-21
-21
-21
-21
-21
-21
-21
-20
-19
-17
-15
-15
-15
-16
-17
-17
-16
-13
-12
-16
-19
-22
-24
-26
-25
-21
-19
-20
-22
-24
-25
-26
-27
-27
-27
-27
-27
-28
-29
-29
-29
-29
-29
-29
-54
-78
-102
-124
-133
-143
-157
-174
-200
-214
-194
-163
-108
-58
-15
14
23
29
28
26
23
21
21
21
21
21
21
21
21
22
24
24
22
22
24
25
25
25
26
27
27
27
27
28
29
30
31
30
29
30
31
31
31
32
33
31
28
25
23
21
18
15
11
7
3
-1
-4
-7
-10
-12
-14
-16
-18
-20
-21
-20
-19
-19
-19
-19
-19
-19
-19
-19
-18
-17
-18
-19
-21
-23
-22
-21
-21
-21
-21
-21
-22
-23
-23
-23
-22
-21
-21
-21
-20
-19
-18
-17
-17
-17
-17
-16
-14
-15
-18
-19
-20
-22
-24
-25
-25
-25
-24
-24
-25
-27
-29
-30
-31
-30
-29
-28
-27
-28
-29
-29
-29
-29
-31
-38
-55
-86
-108
-120
-131
-140
-158
-183
-198
-207
-181
-133
-83
-33
-3
20
25
25
24
22
21
20
19
20
21
21
21
21
22
23
24
25
25
25
25
25
25
25
26
27
28
29
28
27
28
29
30
31
31
31
31
31
31
31
30
29
28
25
22
20
18
13
8
5
2
-2
1
-10
-13
-14
-15
-17
-19
-20
-21
-21
-21
-20
-19
-19
-19
-19
-19
-19
-19
-19
-19
-20
-21
-21
-21
-21
-21
-21
-21
-22
-23
-23
-23
-23
-22
-20
-19
-18
-17
-18
-19
-18
-16
-15
-14
-13
-16
-19
-21
-23
-24
-25
-23
-21
-22
-23
-24
-25
-26
-27
-27
-27
-28
-29
-29
-29
-28
-27
-28
-29
-29
-32
-37
-63
-97
-116
-130
-140
-149
-168
-187
-198
-208
-175
-139
-91
-43
-9
23
27
31
30
29
26
23
22
21
23
25
25
25
25
25
26
27
28
29
29
29
29
29
29
30
32
33
33
33
33
33
34
35
36
37
37
37
37
35
35
35
35
32
29
25
21
18
15
10
6
1
-4
-7
-9
-10
-11
-12
-13
-14
-16
-18
-18
-16
-15
-15
-15
-15
-15
-16
-17
-16
-15
-15
-15
-16
-17
-18
-19
-18
-17
-17
-17
-17
-18
-19
-18
-17
-15
-13
-12
-11
-12
-13
-13
-13
-12
-11
-10
-11
-16
-19
-19
-19
-20
-20
-17
-16
-20
-21
-21
-21
-21
-21
-22
-23
-24
-25
-24
-23
-23
-23
-25
-25
-25
-41
-58
-89
-116
-129
-141
-151
-165
-189
-206
-200
-178
-128
-79
-33
2
23
35
35
33
29
26
24
23
24
25
26
27
28
29
28
27
28
29
30
31
31
31
31
30
31
33
35
35
35
35
35
35
35
37
39
39
39
38
37
38
39
38
36
33
29
25
22
19
16
13
8
3
-2
-7
-9
-10
-11
-12
-13
-13
-14
-16
-17
-16
-14
-13
-14
-15
-15
-15
-16
-17
-16
-15
-15
-15
-16
-17
-17
-17
-17
-17
-17
-17
-17
-17
-17
-16
-13
-11
-11
-11
-12
-13
-13
-10
-6
-9
-15
-17
-18
-19
-20
-19
-16
-15
-17
-19
-21
-22
-23
-22
-21
-22
-23
-24
-25
-25
-25
-25
-25
-25
-28
-37
-56
-88
-110
-121
-132
-144
-162
-186
-200
-208
-183
-140
-91
-39
-6
23
30
32
32
30
28
26
25
25
24
25
25
25
26
27
27
27
28
29
29
29
29
29
30
31
31
31
32
33
34
35
34
34
36
37
38
39
39
37
34
33
33
32
30
25
20
17
14
10
6
2
-1
-5
-9
-11
-13
-14
-15
-14
-13
-14
-15
-16
-17
-16
-15
-14
-13
-14
-15
-16
-17
-16
-15
-15
-15
-15
-16
-18
-19
-18
-17
-17
-17
-18
-19
-18
-16
-14
-13
-12
-11
-13
-14
-15
-13
-11
-11
-11
-15
-19
-21
-23
-23
-22
-18
-16
-19
-21
-23
-25
-25
-25
-24
-23
-24
-25
-25
-25
-26
-27
-26
-27
-30
-52
-81
-101
-120
-131
-142
-156
-172
-194
-173
-194
-169
-115
-62
-21
16
25
33
32
31
28
25
23
21
22
23
23
23
25
27
26
25
25
26
28
29
30
31
30
29
29
29
30
31
32
33
33
33
34
35
35
36
37
37
37
35
33
32
31
29
26
21
16
12
8
4
1
-1
-4
-8
-11
-13
-15
-16
-17
-17
-17
-17
-17
-18
-19
-18
-17
-16
-15
-16
-17
-18
-19
-18
-17
-17
-17
-19
-20
-21
-20
-19
-19
-19
-20
-21
-20
-19
-16
-13
-14
-15
-15
-15
-17
-18
-14
-12
-17
-19
-20
-22
-24
-25
-24
-23
-22
-22
-24
-25
-26
-27
-27
-27
-27
-27
-28
-29
-29
-30
-29
-27
-26
-37
-51
-85
-115
-126
-137
-147
-161
-186
-204
-209
-197
-152
-104
-54
-15
12
25
25
25
24
23
22
20
18
17
17
19
22
23
24
25
25
24
22
22
24
25
25
26
27
26
25
27
29
30
31
32
33
31
29
31
33
35
37
36
34
31
28
26
23
19
15
11
7
3
-1
-4
-7
-10
-13
-16
-17
-18
-19
-19
-19
-18
-17
-19
-19
-19
-19
-19
-18
-17
-18
-19
-20
-21
-21
-21
-20
-19
-20
-21
-22
-23
-23
-23
-22
-21
-21
-21
-20
-19
-18
-17
-17
-17
-18
-18
-16
-16
-18
-19
-19
-22
-26
-27
-27
-25
-23
-23
-23
-25
-27
-29
-31
-30
-29
-29
-29
-30
-31
-31
-31
-30
-30
-34
-50
-80
-101
-115
-127
-138
-154
-172
-191
-211
-197
-169
-121
-67
-26
11
20
24
22
18
17
17
17
17
18
19
18
17
18
19
20
21
21
21
21
21
22
23
24
25
25
25
23
22
25
27
27
27
27
27
26
25
26
27
26
25
24
21
18
16
14
10
6
3
-1
-6
-11
-13
-15
-16
-17
-19
-21
-22
-23
-24
-25
-24
-23
-23
-23
-23
-23
-23
-23
-22
-21
-22
-23
-24
-25
-25
-25
-25
-25
-26
-27
-28
-28
-26
-25
-25
-25
-24
-23
-23
-22
-23
-22
-21
-21
-21
-19
-17
-20
-23
-24
-25
-28
-30
-27
-25
-26
-27
-28
-29
-32
-33
-34
-35
-34
-33
-32
-32
-34
-35
-35
-35
-36
-47
-60
-82
-106
-115
-122
-134
-146
-176
-205
-201
-193
-141
-90
-46
-7
7
19
18
17
15
13
11
9
11
13
11
9
11
13
13
14
16
17
17
17
17
17
17
18
20
20
18
17
18
19
19
19
20
21
21
21
21
21
21
19
17
16
15
13
11
8
5
2
-2
-7
-12
-16
-19
-20
-21
-22
-24
-26
-27
-28
-29
-28
-27
-26
-25
-26
-27
-26
-25
-26
-27
-27
-27
-27
-27
-27
-28
-29
-28
-27
-28
-29
-30
-31
-30
-29
-27
-25
-25
-25
-25
-25
-25
-25
-24
-23
-20
-21
-26
-29
-30
-31
-31
-31
-30
-30
-32
-33
-34
-35
-35
-35
-36
-37
-37
-37
-37
-36
-35
-36
-37
-36
-36
-47
-62
-91
-117
-128
-139
-151
-167
-192
-209
-210
-193
-148
-102
-54
-17
9
21
22
22
19
16
12
12
14
15
15
15
15
15
15
15
16
17
17
17
17
17
17
19
21
21
21
21
21
21
21
22
23
24
25
26
27
26
25
24
23
22
20
18
15
11
7
3
-1
-4
-7
-12
-15
-18
-19
-20
-22
-24
-25
-25
-25
-25
-27
-27
-26
-25
-25
-25
-26
-27
-26
-25
-25
-25
-25
-25
-26
-27
-27
-27
-26
-25
-28
-29
-30
-31
-30
-28
-25
-23
-23
-23
-23
-23
-23
-23
-23
-23
-22
-24
-28
-29
-29
-30
-31
-29
-27
-28
-29
-30
-31
-31
-31
-32
-33
-34
-35
-35
-35
-35
-35
-35
-35
-35
-43
-61
-83
-110
-127
-137
-146
-156
-176
-202
-209
-208
-172
-127
-80
-32
-3
23
25
25
22
17
15
13
14
15
17
19
19
19
18
17
18
19
22
24
21
19
18
17
19
21
24
25
25
25
26
27
28
29
29
29
29
29
29
29
29
28
26
24
22
20
21
11
5
2
-1
-5
-9
-12
-15
-16
-17
-18
-19
-19
-19
-20
-22
-25
-27
-25
-23
-22
-22
-24
-25
-26
-26
-24
-23
-23
-24
-26
-27
-26
-23
-20
-22
-26
-25
-22
-24
-28
-26
-23
-23
-23
-25
-27
-25
-23
-24
-25
-23
-21
-24
-27
-27
-27
-29
-30
-27
-26
-29
-30
-27
-25
-26
-30
-36
-39
-39
-39
-39
-39
-38
-37
-37
-37
-36
-43
-54
-83
-114
-123
-133
-145
-158
-182
-203
-205
-200
-153
-105
-55
-13
7
21
19
17
16
15
14
13
13
13
14
15
15
15
14
14
16
17
16
15
16
17
17
18
20
21
22
23
22
21
21
22
23
27
31
29
27
26
25
26
27
25
22
18
15
14
11
4
-2
-5
-8
-11
-14
-16
-17
-17
-17
-17
-18
-20
-21
-21
-21
-22
-22
-20
-19
-18
-17
-18
-19
-19
-18
-17
-19
-21
-21
-21
-21
-21
-21
-21
-21
-21
-23
-25
-21
-18
-15
-13
-15
-17
-16
-16
-18
-18
-15
-13
-13
-16
-23
-25
-24
-23
-24
-23
-20
-23
-28
-29
-28
-27
-27
-27
-25
-27
-29
-28
-27
-28
-29
-28
-27
-29
-36
-60
-83
-104
-122
-131
-143
-158
-177
-202
-206
-187
-151
-102
-57
-14
11
26
31
31
29
26
20
13
13
16
18
20
22
24
24
25
19
17
21
25
25
25
25
25
25
25
26
27
29
30
27
25
27
29
31
33
33
33
34
34
31
29
29
28
26
20
13
11
10
5
-2
-6
-10
-12
-14
-15
-16
-16
-15
-11
-7
-10
-13
-12
-11
-14
-18
-23
-27
-29
-30
-26
-23
-22
-21
-20
-19
-21
-23
-23
-22
-20
-19
-20
-21
-22
-21
-18
-17
-16
-15
-16
-19
-22
-23
-22
-17
-12
-14
-19
-21
-23
-25
-27
-24
-21
-22
-23
-25
-27
-27
-27
-26
-25
-27
-29
-29
-28
-25
-23
-20
-21
-26
-36
-50
-71
-96
-108
-113
-123
-134
-156
-182
-192
-199
-161
-114
-69
-24
0
-21
23
23
23
23
21
19
19
19
18
17
19
21
23
24
20
17
18
19
19
19
22
23
22
22
24
25
26
27
27
27
26
25
26
27
28
28
26
24
22
21
22
22
21
16
11
5
-1
-2
-3
-4
-6
-11
-15
-17
-19
-21
-22
-19
-17
-16
-15
-16
-17
-18
-19
-18
-17
-17
-17
-18
-19
-20
-21
-20
-19
-19
-19
-20
-21
-21
-21
-20
-20
-23
-23
-23
-20
-17
-15
-13
-14
-15
-16
-17
-15
-13
-12
-12
-17
-21
-21
-21
-23
-24
-21
-19
-18
-17
-18
-22
-28
-29
-26
-26
-28
-30
-32
-31
-28
-27
-28
-29
-28
-39
-27
-77
-101
-105
-109
-116
-126
-149
-172
-189
-194
-153
-111
-64
-24
6
25
23
21
21
22
25
27
28
24
13
8
6
8
13
17
20
18
14
17
24
24
22
21
20
19
20
24
27
25
23
24
25
25
25
27
29
26
23
22
21
22
22
19
15
10
7
5
1
-3
-6
-9
-11
-12
-13
-14
-17
-21
-23
-23
-23
-22
-21
-20
-19
-20
-18
-14
-18
-25
-24
-23
-21
-19
-19
-19
-20
-21
-21
-21
-21
-21
-22
-23
-23
-23
-23
-22
-18
-15
-14
-13
-14
-17
-21
-22
-19
-17
-18
-21
-24
-25
-26
-27
-26
-24
-22
-23
-26
-27
-27
-29
-29
-29
-29
-29
-29
-31
-33
-32
-31
-28
-27
-34
-49
-79
-103
-115
-126
-134
-148
-167
-185
-203
-193
-160
-118
-68
-29
4
19
25
25
22
21
20
19
18
17
17
17
18
21
23
23
23
22
21
22
23
24
25
25
25
26
27
25
24
27
29
29
29
29
29
30
31
30
29
30
30
28
26
24
23
22
17
12
8
4
0
-4
-6
-8
-12
-17
-19
-21
-22
-23
-22
-21
-21
-21
-21
-21
-21
-21
-20
-19
-20
-21
-21
-21
-20
-19
-18
-17
-18
-20
-23
-24
-21
-21
-24
-25
-25
-25
-24
-22
-20
-17
-14
-16
-20
-21
-21
-18
-17
-16
-15
-19
-23
-26
-29
-28
-27
-22
-19
-22
-25
-26
-27
-27
-27
-28
-29
-30
-31
-30
-29
-30
-30
-28
-27
-28
-43
-63
-85
-106
-118
-127
-137
-147
-173
-201
-203
-202
-155
-108
-60
-14
7
25
27
29
26
22
17
13
15
17
18
19
21
23
22
21
21
22
24
25
25
25
24
23
23
24
26
29
32
33
33
31
28
28
30
33
36
35
31
32
33
31
29
27
25
22
18
13
9
6
3
0
-4
-8
-11
-13
-15
-15
-15
-15
-16
-18
-19
-18
-17
-16
-15
-15
-15
-16
-16
-14
-14
-16
-16
-14
-17
-22
-23
-23
-22
-21
-20
-19
-20
-21
-20
-19
-17
-15
-14
-13
-15
-17
-17
-17
-16
-15
-15
-16
-19
-22
-24
-25
-25
-23
-19
-19
-22
-24
-26
-27
-27
-27
-27
-27
-27
-27
-27
-27
-28
-27
-25
-25
-26
-50
-73
-95
-114
-122
-131
-143
-160
-187
-203
-190
-163
-111
-61
-16
13
23
28
26
24
22
20
18
17
18
19
20
21
22
23
23
23
22
21
22
23
24
25
25
26
27
27
27
28
29
30
31
31
31
33
35
35
35
35
35
33
31
29
27
26
23
19
15
9
6
3
-1
-4
-7
-10
-12
-14
-15
-16
-17
-17
-17
-17
-17
-17
-19
-19
-18
-17
-18
-19
-19
-19
-19
-19
-18
-17
-18
-19
-21
-23
-22
-21
-20
-19
-20
-21
-22
-23
-22
-20
-17
-16
-18
-19
-19
-19
-18
-15
-12
-13
-16
-19
-22
-23
-23
-24
-25
-22
-19
-22
-25
-26
-27
-27
-27
-27
-27
-27
-27
-29
-31
-30
-29
-28
-28
-31
-46
-74
-92
-101
-110
-119
-134
-153
-174
-197
-180
-148
-105
-58
-23
9
16
20
21
21
20
17
16
15
14
13
16
19
19
19
19
19
20
21
22
23
24
25
23
21
21
21
24
25
26
26
24
23
24
25
25
24
22
21
22
21
18
16
14
10
6
4
5
-1
-3
-6
-9
-13
-17
-18
-19
-20
-21
-20
-19
-20
-21
-21
-21
-21
-21
-19
-17
-18
-19
-19
-19
-19
-19
-19
-19
-20
-21
-21
-21
-21
-21
-21
-21
-22
-23
-23
-22
-20
-17
-15
-16
-17
-17
-17
-16
-15
-12
-9
-12
-15
-18
-21
-23
-25
-24
-23
-21
-20
-23
-25
-26
-27
-26
-25
-26
-27
-28
-29
-29
-29
-28
-27
-27
-27
-28
-46
-67
-82
-96
-104
-113
-121
-130
-154
-175
-168
-154
-108
-65
-31
-2
11
21
21
21
19
17
15
13
15
17
20
21
21
21
21
21
22
23
24
25
25
25
25
25
26
27
28
28
26
25
25
25
25
26
27
26
25
23
21
21
21
19
17
14
10
7
4
1
-2
-5
-8
-11
-14
-16
-18
-20
-21
-20
-19
-20
-21
-21
-21
-21
-20
-18
-17
-18
-19
-20
-21
-20
-19
-19
-19
-19
-20
-21
-21
-21
-20
-19
-20
-21
-22
-23
-21
-19
-17
-15
-14
-13
-15
-17
-18
-17
-13
-12
-15
-18
-22
-23
-23
-23
-23
-23
-22
-22
-24
-25
-26
-27
-27
-27
-29
-29
-29
-29
-29
-28
-27
-26
-26
-31
-42
-73
-98
-108
-118
-127
-140
-160
-177
-193
-185
-150
-106
-55
-16
13
26
29
29
26
24
22
21
21
21
21
23
26
27
27
27
27
26
25
27
29
29
29
29
29
29
29
30
31
31
31
32
33
33
33
34
35
34
33
32
31
30
28
26
23
19
15
11
6
2
0
-2
-6
-10
-12
-14
-16
-18
-19
-19
-20
-21
-21
-21
-21
-21
-19
-17
-18
-19
-20
-21
-20
-19
-18
-17
-18
-19
-20
-21
-21
-21
-20
-19
-20
-21
-22
-23
-23
-21
-18
-17
-17
-17
-17
-17
-18
-18
-16
-15
-17
-17
-17
-21
-25
-24
-23
-25
-27
-24
-21
-22
-23
-24
-25
-26
-27
-28
-29
-29
-29
-29
-29
-29
-29
-29
-29
-28
-43
-68
-90
-111
-125
-136
-145
-153
-175
-198
-192
-182
-135
-181
-41
1
16
29
27
25
22
19
18
17
18
19
20
21
21
21
21
21
23
25
25
25
25
25
25
26
28
28
26
25
26
27
28
30
32
32
30
29
30
31
30
30
31
28
25
21
17
14
11
7
2
-3
-7
-10
-13
-15
-17
-18
-19
-20
-21
-22
-23
-22
-21
-21
-21
-21
-21
-22
-23
-22
-21
-20
-19
-19
-20
-22
-23
-23
-23
-22
-21
-23
-23
-23
-24
-25
-24
-23
-22
-21
-20
-19
-19
-19
-19
-19
-20
-21
-19
-18
-21
-23
-24
-25
-26
-27
-28
-28
-26
-25
-26
-28
-30
-31
-32
-33
-33
-33
-32
-31
-32
-33
-33
-33
-31
-33
-37
-69
-99
-115
-130
-139
-151
-168
-186
-205
-207
-171
-128
-76
-31
3
21
22
21
16
13
13
13
13
13
14
15
14
14
16
17
18
19
19
19
19
19
18
19
21
21
21
21
21
21
21
23
25
25
25
25
25
25
25
26
26
23
21
19
16
13
10
7
2
-3
-7
-11
-15
-19
-21
-21
-22
-24
-25
-26
-27
-27
-27
-27
-27
-27
-27
-27
-26
-25
-24
-23
-25
-27
-27
-27
-27
-27
-26
-25
-26
-27
-28
-29
-29
-29
-28
-27
-28
-29
-28
-26
-24
-23
-23
-23
-23
-23
-23
-21
-18
-19
-22
-24
-26
-28
-27
-30
-29
-28
-27
-30
-33
-34
-35
-35
-35
-34
-33
-33
-33
-35
-37
-36
-35
-33
-37
-50
-70
-97
-113
-120
-127
-134
-154
-181
-193
-199
-170
-128
-84
-40
-13
12
16
18
19
18
14
11
11
11
12
13
14
15
16
17
17
17
17
17
18
19
20
21
21
21
21
21
20
19
20
21
21
21
20
19
18
17
18
18
16
14
12
11
10
8
6
2
-3
-7
-11
-12
-13
-15
-17
-20
-23
-25
-27
-27
-27
-25
-23
-24
-25
-26
-27
-26
-25
-22
-21
-22
-23
-23
-23
-23
-23
-23
-24
-26
-27
-27
-27
-26
-25
-26
-27
-27
-27
-27
-25
-23
-20
-17
-18
-19
-20
-21
-21
-21
-16
-14
-18
-21
-23
-26
-29
-29
-24
-22
-27
-29
-30
-31
-31
-31
-30
-30
-32
-33
-33
-33
-32
-31
-31
-31
-31
-48
-67
-87
-106
-114
-121
-131
-143
-170
-195
-192
-180
-127
-77
-36
-2
11
21
21
21
20
19
18
17
17
17
17
18
20
21
21
21
21
22
24
25
26
27
26
25
25
25
26
27
28
29
27
27
27
28
29
29
29
28
27
24
21
20
19
16
12
9
6
2
-2
-5
-8
-11
-14
-17
-19
-20
-21
-22
-23
-22
-21
-22
-23
-24
-25
-24
-23
-22
-21
-21
-21
-21
-21
-21
-20
-19
-20
-21
-23
-25
-24
-23
-23
-23
-24
-25
-25
-25
-25
-24
-21
-19
-18
-17
-18
-19
-19
-18
-16
-15
-15
-17
-21
-23
-23
-24
-26
-25
-22
-23
-26
-27
-28
-28
-27
-28
-29
-30
-31
-31
-31
-31
-31
-30
-29
-30
-37
-59
-81
-103
-121
-132
-143
-152
-169
-193
-198
-185
-147
-91
-46
-6
14
24
27
28
27
24
22
20
19
20
22
24
25
25
25
25
26
27
28
29
29
29
29
29
31
33
33
33
32
31
32
33
33
33
34
35
34
33
32
31
31
31
30
26
21
16
12
9
6
3
0
-5
-10
-12
-11
-17
-19
-20
-21
-21
-21
-22
-23
-22
-21
-20
-19
-20
-21
-21
-21
-19
-17
-18
-19
-20
-21
-21
-21
-21
-21
-20
-20
-22
-23
-24
-25
-24
-23
-22
-20
-18
-17
-17
-17
-17
-16
-15
-16
-17
-14
-11
-15
-19
-20
-21
-23
-25
-23
-21
-21
-21
-22
-23
-25
-27
-28
-29
-29
-29
-28
-27
-28
-29
-30
-31
-30
-34
-41
-69
-103
-120
-135
-143
-150
-169
-190
-201
-213
-176
-138
-85
-34
0
29
30
31
28
25
23
21
23
25
25
25
25
25
25
26
29
31
30
29
29
29
30
32
34
35
34
33
33
33
34
36
38
39
38
37
37
38
37
37
37
35
33
29
25
23
21
16
12
7
2
-3
-7
-9
-11
-12
-13
-16
-17
-18
-19
-18
-17
-17
-17
-17
-17
-17
-17
-17
-17
-17
-17
-17
-17
-18
-19
-18
-17
-17
-19
-21
-20
-19
-20
-21
-20
-19
-20
-21
-19
-17
-15
-13
-13
-13
-14
-15
-14
-13
-13
-14
-16
-18
-21
-24
-26
-24
-19
-18
-20
-23
-26
-27
-27
-27
-27
-27
-27
-27
-27
-28
-29
-28
-27
-27
-31
-57
-82
-102
-119
-131
-141
-149
-164
-190
-205
-200
-176
-125
-78
-33
0
21
30
28
26
24
23
22
21
21
21
22
23
22
23
26
27
26
25
25
28
29
29
29
29
29
29
29
30
31
31
31
31
31
30
29
29
29
31
33
30
27
23
20
18
17
17
14
9
5
1
-4
-8
-10
-12
-13
-14
-16
-18
-19
-19
-19
-19
-20
-21
-20
-19
-19
-19
-18
-17
-18
-19
-20
-21
-21
-21
-20
-19
-20
-21
-22
-23
-23
-23
-22
-21
-22
-23
-24
-24
-22
-19
-16
-15
-15
-15
-16
-17
-18
-16
-12
-13
-17
-19
-21
-24
-27
-23
-19
-22
-25
-27
-29
-29
-29
-28
-27
-28
-29
-29
-29
-29
-29
-29
-29
-30
-45
-71
-88
-99
-108
-116
-128
-141
-164
-190
-179
-158
-114
-66
-30
5
15
7
24
23
21
19
19
19
19
19
20
21
23
25
24
23
23
23
24
25
26
27
27
27
26
25
26
27
26
25
25
25
24
23
24
25
24
23
22
19
16
15
15
12
9
5
1
-2
-5
-8
-11
-12
-13
-16
-19
-20
-21
-22
-23
-22
-21
-22
-23
-23
-23
-22
-21
-20
-19
-20
-21
-22
-23
-22
-21
-20
-20
-22
-23
-24
-25
-24
-23
-22
-21
-23
-24
-25
-24
-23
-20
-17
-16
-15
-17
-19
-19
-19
-16
-13
-15
-18
-22
-25
-26
-27
-24
-23
-24
-26
-28
-29
-29
-29
-30
-31
-31
-31
-32
-33
-33
-33
-33
-33
-32
-40
-31
-79
-107
-114
-121
-129
-140
-161
-181
-193
-193
-150
-106
-59
-19
5
22
25
27
25
23
20
19
19
19
20
22
24
25
25
25
25
25
26
27
28
29
29
29
28
27
28
30
31
30
29
29
29
28
27
28
29
28
27
25
23
22
20
17
13
8
4
1
-2
-5
-8
-11
-14
-17
-20
-22
-23
-23
-23
-23
-23
-23
-23
-23
-23
-22
-21
-20
-19
-19
-20
-21
-21
-21
-20
-19
-20
-21
-21
-21
-22
-23
-22
-21
-21
-21
-22
-23
-22
-20
-17
-15
-14
-13
-14
-15
-16
-16
-14
-13
-12
-14
-18
-19
-20
-22
-24
-23
-20
-21
-19
-25
-25
-25
-25
-26
-27
-28
-29
-28
-27
-27
-27
-28
-29
-29
-35
-52
-73
-99
-118
-131
-140
-147
-164
-189
-198
-195
-161
-110
-63
-17
9
29
33
34
33
30
28
26
26
28
31
33
32
31
32
33
33
33
34
35
35
35
35
35
36
37
38
39
38
37
37
38
40
41
42
43
42
40
38
37
38
39
38
34
30
26
22
19
16
12
8
3
-3
-6
-9
-11
-13
-13
-13
-15
-17
-17
-17
-16
-15
-15
-15
-15
-15
-15
-15
-15
-15
-14
-13
-14
-15
-15
-15
-15
-15
-15
-15
-16
-17
-18
-19
-19
-18
-16
-15
-14
-13
-13
-13
-13
-13
-13
-13
-13
-11
-9
-13
-17
-17
-17
-20
-22
-19
-17
-18
-19
-20
-21
-22
-23
-24
-25
-25
-25
-24
-23
-24
-25
-25
-26
-28
-51
-78
-101
-122
-136
-150
-161
-172
-194
-215
-201
-183
-131
-79
-31
11
27
39
36
33
30
27
27
27
29
31
30
29
30
31
31
31
32
33
34
35
34
33
34
36
38
39
38
37
37
37
38
39
40
41
39
39
39
39
39
38
37
35
33
30
26
22
19
16
11
5
0
-4
-7
-8
-9
-10
-12
-14
-16
-18
-19
-18
-17
-16
-15
-16
-17
-17
-17
-16
-15
-14
-13
-14
-15
-15
-15
-15
-15
-15
-16
-17
-17
-17
-17
-17
-17
-17
-18
-19
-18
-17
-15
-13
-12
-11
-12
-13
-13
-12
-10
-10
-12
-14
-16
-19
-22
-20
-16
-15
-16
-18
-20
-21
-22
-23
-23
-23
-23
-23
-23
-25
-27
-26
-25
-23
-24
-40
-60
-86
-107
-115
-123
-130
-146
-175
-190
-186
-158
-107
-60
-17
9
23
29
28
27
26
24
22
21
22
23
24
26
28
29
29
29
29
29
29
30
31
31
31
32
33
32
31
32
33
33
33
33
33
31
29
30
31
30
28
26
24
22
21
20
17
14
10
5
1
-2
-4
-6
-8
-10
-12
-14
-15
-15
-16
-15
-15
-15
-14
-13
-14
-15
-15
-15
-15
-15
-14
-13
-14
-15
-15
-15
-14
-13
-14
-15
-15
-15
-16
-17
-16
-16
-18
-19
-19
-17
-14
-12
-10
-9
-10
-11
-12
-12
-10
-7
-5
-9
-13
-16
-19
-20
-21
-17
-13
-16
-19
-21
-23
-23
-23
-23
-23
-23
-23
-23
-23
-23
-23
-23
-23
-23
-36
-58
-76
-94
-105
-114
-123
-131
-155
-181
-176
-164
-115
-63
-25
13
21
29
29
29
27
25
25
25
25
25
26
27
28
29
30
31
31
31
32
33
33
33
33
33
33
33
34
35
34
33
33
32
30
29
30
31
32
32
30
28
29
24
23
20
17
15
13
9
5
2
-1
-4
-7
-10
-13
-14
-15
-16
-17
-16
-15
-16
-17
-17
-17
-16
-15
-14
-13
-14
-15
-15
-15
-15
-15
-14
-13
-14
-15
-16
-17
-17
-17
-17
-17
-17
-18
-19
-18
-17
-15
-13
-12
-11
-12
-13
-13
-12
-9
-7
-9
-12
-15
-18
-20
-21
-20
-19
-18
-18
-22
-23
-23
-23
-23
-23
-23
-23
-24
-25
-25
-25
-25
-25
-25
-28
-32
-60
-86
-99
-112
-125
-137
-148
-162
-185
-197
-183
-156
-103
-56
-17
11
27
35
34
32
30
28
26
25
26
27
28
29
30
31
30
30
32
33
33
33
34
35
35
34
35
36
37
37
37
37
37
36
35
36
37
36
35
34
33
32
31
30
27
22
17
12
8
5
2
-1
-5
-9
-12
-14
-16
-18
-19
-18
-17
-17
-18
-20
-21
-20
-18
-17
-17
-17
-18
-19
-18
-17
-17
-17
-17
-17
-18
-19
-19
-19
-18
-17
-19
-21
-22
-23
-23
-22
-20
-19
-18
-17
-16
-15
-16
-17
-17
-17
-17
-17
-16
-17
-20
-21
-21
-23
-27
-23
-19
-21
-23
-24
-25
-26
-27
-28
-29
-29
-29
-28
-27
-28
-29
-30
-31
-29
-34
-49
-72
-102
-123
-137
-147
-154
-172
-194
-201
-200
-163
-116
-68
-18
7
28
31
31
29
31
24
23
25
27
26
25
25
25
25
25
27
29
29
29
29
29
29
29
31
33
33
32
30
30
32
34
36
37
36
35
34
33
33
33
33
30
26
25
24
20
16
12
9
3
-3
-7
-11
-13
-15
-17
-19
-20
-21
-23
-25
-25
-25
-23
-21
-22
-23
-24
-25
-24
-23
-22
-21
-22
-23
-24
-25
-25
-25
-25
-25
-26
-27
-27
-27
-27
-27
-27
-27
-27
-26
-25
-23
-21
-21
-21
-22
-23
-24
-25
-23
-21
-24
-27
-28
-30
-33
-34
-30
-27
-28
-29
-30
-32
-34
-35
-35
-35
-34
-33
-34
-35
-36
-37
-37
-36
-34
-46
-62
-92
-63
-137
-151
-157
-165
-187
-207
-211
-207
-163
-117
-65
-20
5
23
22
21
19
17
17
17
17
17
17
17
17
18
20
21
20
19
19
19
20
21
22
23
22
21
22
23
23
25
27
26
25
25
25
25
25
25
25
23
21
19
17
15
12
9
6
2
-3
-8
-13
-17
-19
-20
-22
-24
-26
-28
-29
-29
-28
-26
-26
-28
-29
-29
-28
-26
-25
-25
-25
-27
-27
-27
-27
-27
-26
-25
-26
-27
-28
-29
-30
-31
-30
-29
-30
-31
-32
-32
-29
-26
-23
-22
-25
-27
-26
-25
-24
-22
-20
-21
-26
-28
-30
-32
-34
-33
-30
-30
-32
-33
-33
-35
-35
-35
-35
-35
-35
-36
-37
-36
-35
-35
-35
-34
-37
-49
-66
-93
-111
-116
-122
-131
-147
-172
-187
-195
-175
-135
-93
-49
-18
6
14
16
17
16
14
12
11
11
11
12
15
17
17
17
17
17
17
17
19
21
21
21
21
21
21
21
22
23
21
19
20
21
20
19
20
21
20
18
16
15
14
12
10
6
2
0
-2
-5
-8
-11
-14
-17
-21
-24
-27
-27
-27
-26
-25
-25
-25
-25
-25
-25
-25
-24
-23
-23
-23
-24
-25
-24
-23
-23
-23
-24
-25
-26
-27
-26
-25
-25
-25
-26
-27
-28
-29
-28
-25
-22
-21
-20
-20
-19
-22
-21
-20
-19
-17
-15
-19
-23
-24
-25
-27
-29
-27
-25
-27
-29
-30
-31
-30
-29
-30
-32
-34
-34
-32
-31
-31
-31
-32
-33
-34
-53
-78
-93
-106
-119
-131
-143
-154
-177
-200
-188
-174
-124
-74
-34
2
14
25
25
25
22
19
18
17
19
21
22
23
23
23
23
23
24
25
25
25
25
25
25
26
28
29
29
29
29
28
26
26
28
29
29
29
29
27
25
23
21
21
21
18
15
11
7
4
0
-4
-8
-12
-15
-17
-19
-21
-23
-23
-23
-24
-25
-25
-25
-24
-23
-23
-23
-23
-23
-23
-23
-23
-23
-22
-21
-21
-22
-21
-24
-23
-24
-25
-25
-25
-26
-27
-26
-25
-25
-25
-24
-22
-19
-17
-18
-19
-19
-19
-19
-19
-18
-18
-20
-22
-24
-25
-26
-27
-27
-27
-26
-25
-25
-25
-26
-27
-28
-29
-29
-28
-27
-28
-29
-30
-31
-30
-29
-31
-39
-67
-93
-112
-128
-139
-151
-165
-180
-198
-194
-160
-116
-62
-19
15
29
29
28
26
25
24
23
24
25
25
25
25
26
28
29
29
29
29
29
29
30
31
32
33
33
33
33
33
34
35
36
37
36
35
34
33
33
33
33
32
30
28
25
22
19
15
11
6
1
-4
-8
-11
-14
-15
-16
-18
-20
-21
-21
-22
-21
-21
-21
-21
-21
-22
-23
-21
-19
-19
-19
-20
-21
-21
-21
-21
-21
-21
-21
-22
-23
-23
-23
-23
-23
-23
-23
-23
-23
-22
-20
-18
-17
-18
-19
-19
-19
-19
-19
-18
-19
-21
-23
-25
-27
-29
-25
-21
-22
-23
-25
-27
-28
-29
-29
-29
-28
-27
-28
-29
-30
-31
-30
-29
-29
-41
-61
-86
-112
-130
-145
-154
-161
-180
-203
-196
-181
-129
-72
-31
9
19
29
28
27
26
25
25
25
25
25
25
25
27
29
29
29
29
29
30
31
31
31
32
33
33
33
34
35
35
35
36
37
37
37
37
37
37
37
37
36
34
32
33
27
25
21
17
11
5
1
-3
-7
-11
-12
-13
-16
-19
-20
-21
-21
-21
-20
-19
-20
-21
-21
-21
-21
-21
-20
-19
-20
-21
-21
-21
-21
-21
-21
-21
-21
-21
-22
-23
-22
-21
-21
-23
-25
-24
-23
-21
-19
-17
-15
-16
-17
-18
-19
-19
-19
-17
-16
-20
-23
-24
-25
-26
-26
-24
-23
-22
-22
-26
-27
-27
-27
-27
-27
-27
-27
-28
-29
-28
-27
-27
-27
-29
-41
-54
-85
-114
-127
-140
-148
-159
-179
-196
-203
-197
-156
-112
-59
-16
12
29
31
33
30
28
26
25
26
27
28
29
30
31
30
29
29
30
32
33
34
35
34
33
33
34
35
36
37
37
37
37
37
37
37
38
39
39
39
37
35
34
33
31
28
23
19
14
9
5
2
-1
-5
-9
-13
-17
-19
-19
-19
-19
-19
-20
-21
-21
-21
-20
-18
-17
-18
-19
-20
-21
-21
-21
-20
-19
-20
-21
-22
-23
-23
-23
-22
-21
-22
-23
-24
-25
-24
-22
-20
-19
-18
-17
-17
-17
-17
-17
-17
-17
-16
-16
-18
-20
-22
-23
-23
-24
-27
-24
-21
-23
-25
-25
-25
-26
-27
-28
-29
-28
-27
-27
-27
-28
-29
-30
-31
-31
-41
-64
-89
-115
-135
-151
-162
-171
-190
-212
-208
-193
-150
-97
-52
-8
13
31
32
30
28
29
23
21
24
27
27
27
26
25
25
25
28
31
30
29
29
29
29
29
31
33
34
35
34
33
33
34
36
37
37
37
37
36
34
33
34
33
30
27
24
19
14
11
9
4
-1
-6
-11
-13
-15
-16
-17
-18
-19
-20
-21
-21
-21
-20
-19
-19
-19
-20
-21
-20
-19
-18
-17
-18
-19
-20
-21
-21
-21
-20
-19
-20
-22
-24
-25
-24
-23
-22
-21
-19
-18
-17
-17
-17
-17
-17
-17
-17
-15
-13
-15
-17
-19
-22
-25
-27
-26
-25
-23
-21
-22
-24
-26
-28
-30
-31
-30
-28
-26
-26
-28
-29
-30
-30
-28
-32
-38
-66
-97
-109
-99
-131
-141
-159
-176
-194
-205
-171
-134
-81
-34
0
25
27
28
25
23
22
21
21
21
21
21
21
21
22
24
26
27
27
27
26
25
26
27
28
29
29
29
28
27
28
30
31
30
29
28
27
28
29
28
27
25
23
21
18
14
11
9
5
0
-4
-8
-12
-14
-15
-15
-16
-18
-20
-22
-23
-24
-24
-22
-21
-21
-21
-21
-21
-21
-21
-21
-21
-21
-21
-21
-22
-23
-22
-21
-22
-23
-23
-23
-23
-23
-23
-23
-24
-25
-24
-23
-21
-19
-16
-16
-18
-19
-19
-17
-13
-12
-14
-17
-20
-23
-26
-27
-27
-25
-22
-23
-26
-27
-27
-29
-29
-28
-27
-28
-29
-30
-31
-31
-31
-29
-28
-33
-46
-75
-96
-104
-112
-120
-133
-152
-171
-192
-184
-153
-112
-64
-27
5
18
23
24
22
21
20
19
20
21
21
21
22
23
23
24
25
25
25
26
27
28
29
28
27
27
27
28
29
29
29
28
27
26
25
26
27
27
27
26
24
22
20
18
16
14
11
8
3
-2
-4
-6
-8
-10
-13
-17
-19
-21
-21
-21
-21
-21
-21
-21
-21
-21
-21
-21
-19
-17
-19
-21
-21
-21
-20
-19
-19
-19
-20
-21
-21
-21
-22
-23
-22
-21
-22
-23
-24
-24
-22
-19
-16
-16
-18
-19
-19
-18
-17
-15
-13
-17
-21
-23
-25
-28
-30
-24
-19
-22
-25
-26
-27
-28
-29
-28
-27
-28
-29
-29
-29
-29
-29
-29
-29
-29
-40
-56
-80
-107
-120
-129
-137
-146
-168
-193
-202
-210
-166
-120
-70
-21
5
29
30
31
30
29
26
23
23
23
24
26
29
31
30
29
29
29
30
31
32
33
33
33
33
33
33
34
36
37
36
35
35
35
35
35
34
33
33
31
29
28
27
26
25
20
15
11
6
1
-3
-5
-8
-11
-14
-17
-19
-20
-21
-21
-21
-21
-21
-22
-23
-22
-21
-21
-21
-20
-19
-20
-21
-20
-19
-19
-19
-20
-21
-21
-22
-21
-21
-21
-21
-21
-23
-25
-23
-21
-19
-17
-16
-15
-17
-19
-18
-17
-17
-17
-16
-16
-19
-21
-21
-22
-24
-24
-22
-21
-22
-23
-24
-25
-26
-27
-28
-29
-29
-29
-29
-28
-27
-28
-29
-29
-31
-47
-65
-94
-120
-134
-146
-152
-164
-186
-202
-205
-188
-141
-92
-40
-2
22
33
33
31
27
25
24
23
24
26
28
29
29
29
28
27
28
29
30
31
33
32
31
32
33
34
35
35
35
35
35
36
37
38
39
38
37
36
35
35
35
34
31
27
24
21
17
13
8
3
-2
-7
-11
-14
-16
-18
-19
-19
-19
-20
-21
-21
-22
-21
-19
-17
-18
-19
-20
-21
-20
-19
-19
-19
-19
-19
-20
-21
-21
-21
-20
-19
-22
-23
-23
-23
-23
-22
-19
-17
-16
-16
-18
-19
-19
-18
-16
-15
-14
-16
-20
-21
-22
-24
-25
-26
-27
-25
-23
-25
-27
-27
-27
-27
-27
-28
-29
-29
-29
-29
-29
-30
-31
-31
-31
-32
-50
-82
-106
-126
-141
-154
-166
-178
-195
-214
-205
-187
-137
-81
-36
7
19
28
28
25
24
23
22
21
23
25
25
25
25
25
25
25
27
29
29
29
29
29
29
29
30
31
31
31
30
30
33
35
34
33
34
35
35
35
35
35
34
32
30
26
29
17
13
8
3
0
-3
-8
-13
-15
-17
-19
-21
-22
-23
-23
-23
-23
-23
-22
-21
-22
-23
-24
-25
-24
-23
-22
-21
-22
-23
-24
-25
-24
-23
-23
-24
-26
-27
-26
-25
-26
-26
-25
-24
-23
-22
-21
-21
-21
-20
-19
-20
-21
-19
-17
-21
-23
-24
-26
-29
-31
-30
-29
-28
-27
-27
-28
-30
-31
-32
-33
-33
-33
-33
-33
-33
-33
-34
-33
-30
-39
-50
-80
-111
-121
-131
-139
-149
-171
-192
-201
-201
-158
-113
-65
-24
3
21
21
21
19
17
16
15
16
17
17
17
17
17
18
19
20
21
22
23
22
21
21
22
24
25
24
23
23
23
25
25
25
25
25
24
23
23
23
22
21
19
17
15
12
9
6
2
-2
-7
-10
-13
-16
-19
-21
-22
-24
-26
-27
-27
-27
-28
-29
-28
-27
-26
-25
-25
-25
-25
-25
-25
-26
-27
-28
-29
-28
-27
-27
-27
-27
-27
-29
-31
-30
-29
-29
-29
-29
-29
-28
-26
-24
-23
-23
-23
-24
-24
-20
-19
-20
-23
-26
-28
-30
-31
-32
-31
-28
-28
-30
-33
-37
-37
-37
-37
-37
-36
-35
-36
-37
-37
-37
-36
-35
-35
-43
-66
-88
-106
-120
-128
-137
-148
-166
-190
-197
-189
-153
-102
-59
-19
1
14
16
14
13
12
11
12
13
13
13
13
14
15
16
17
17
17
17
17
18
19
20
21
21
21
21
21
20
19
21
23
22
21
20
19
18
18
20
19
16
14
12
9
6
4
2
-3
-8
-11
-14
-17
-20
-22
-23
-25
-27
-28
-29
-29
-29
-28
-27
-28
-29
-29
-29
-29
-29
-28
-27
-28
-29
-29
-29
-29
-29
-29
-29
-30
-31
-32
-33
-33
-33
-32
-31
-31
-31
-30
-28
-26
-25
-24
-23
-25
-26
-27
-23
-19
-22
-25
-28
-31
-33
-35
-33
-31
-30
-29
-31
-33
-35
-37
-37
-37
-36
-35
-36
-37
-38
-39
-39
-38
-36
-43
-56
-84
-116
-132
-143
-150
-156
-176
-197
-207
-199
-172
-127
-74
-23
0
21
21
21
20
19
18
17
18
19
18
17
19
21
22
23
24
25
24
23
23
24
26
27
27
27
27
27
26
26
28
29
29
29
29
29
29
30
31
30
29
27
25
23
21
19
16
10
4
-1
-6
-10
-13
-15
-18
-22
-25
-26
-27
-28
-29
-28
-27
-27
-27
-28
-29
-28
-27
-26
-25
-26
-27
-27
-27
-27
-27
-26
-25
-27
-28
-29
-29
-29
-29
-29
-29
-29
-29
-29
-28
-27
-24
-21
-22
-23
-24
-25
-25
-24
-19
-19
-24
-28
-30
-31
-32
-31
-27
-26
-28
-30
-32
-33
-33
-33
-32
-32
-34
-35
-35
-35
-35
-34
-33
-33
-36
-59
-84
-111
-135
-148
-159
-166
-179
-203
-214
-200
-168
-111
-60
-15
12
22
27
26
25
24
23
22
21
22
23
23
23
24
25
25
25
26
27
28
29
29
29
29
30
31
31
31
32
33
33
33
33
33
34
35
36
37
35
33
33
32
30
28
26
23
19
14
9
5
1
-3
-6
-10
-14
-17
-20
-21
-21
-21
-21
-21
-21
-23
-25
-24
-23
-21
-19
-19
-19
-20
-21
-21
-21
-21
-21
-22
-23
-23
-23
-22
-21
-21
-21
-22
-23
-24
-25
-24
-21
-18
-17
-17
-17
-18
-19
-19
-17
-14
-13
-14
-18
-15
-24
-25
-26
-27
-24
-21
-24
-27
-28
-29
-28
-27
-27
-27
-28
-29
-29
-29
-28
-27
-28
-30
-32
-49
-79
-104
-125
-142
-156
-171
-185
-202
-221
-203
-174
-123
-68
-27
12
22
30
31
31
28
25
25
25
25
25
27
29
29
29
27
25
27
29
29
29
30
31
30
30
32
33
33
34
36
36
34
34
36
39
42
43
42
40
38
37
36
35
34
31
27
22
17
13
9
5
1
-4
-9
-12
-15
-16
-17
-17
-17
-18
-19
-20
-21
-20
-19
-18
-17
-17
-17
-18
-19
-19
-19
-18
-17
-17
-18
-20
-21
-21
-21
-20
-19
-20
-21
-21
-22
-21
-19
-17
-16
-15
-16
-17
-17
-17
-16
-15
-13
-12
-16
-19
-20
-21
-22
-23
-22
-21
-21
-21
-22
-23
-24
-25
-25
-25
-26
-27
-27
-27
-26
-25
-26
-27
-27
-35
-44
-77
-109
-122
-135
-147
-159
-177
-195
-207
-209
-169
-125
-72
-25
8
30
33
35
33
30
27
25
26
27
28
29
29
29
29
29
30
31
32
33
33
33
32
31
32
34
36
37
35
34
33
35
37
38
39
38
37
37
37
37
37
36
34
30
25
20
16
13
11
8
4
-2
-6
-8
-10
-13
-15
-14
-14
-16
-17
-17
-17
-17
-17
-16
-15
-16
-17
-17
-17
-17
-17
-17
-17
-17
-18
-19
-19
-19
-18
-17
-19
-21
-21
-21
-21
-21
-20
-19
-16
-15
-15
-15
-15
-15
-15
-13
-10
-11
-14
-15
-16
-18
-20
-21
-22
-23
-22
-21
-22
-23
-23
-24
-25
-26
-27
-27
-27
-27
-27
-27
-27
-27
-28
-35
-48
-76
-97
-107
-116
-124
-139
-161
-179
-196
-183
-150
-105
-55
-18
14
25
28
28
26
23
20
19
20
21
22
23
21
23
25
25
25
26
27
27
27
27
27
27
27
28
29
29
29
27
25
26
27
28
29
28
27
26
25
24
23
23
21
18
15
12
9
6
3
0
-4
-8
-11
-9
-16
-17
-18
-19
-18
-17
-19
-21
-21
-21
-20
-19
-19
-19
-20
-21
-20
-19
-19
-19
-19
-19
-20
-21
-21
-21
-20
-20
-22
-23
-23
-23
-23
-23
-22
-21
-20
-19
-18
-17
-17
-16
-15
-16
-17
-14
-11
-14
-17
-18
-19
-21
-23
-22
-21
-21
-21
-22
-23
-24
-25
-27
-29
-28
-27
-27
-27
-27
-27
-28
-29
-28
-30
-34
-57
-86
-102
-117
-127
-138
-155
-174
-192
-211
-175
-138
-87
-38
-4
25
28
31
29
27
24
21
23
25
26
27
27
27
28
29
30
31
31
31
32
33
33
33
34
35
35
35
34
33
34
35
36
37
36
35
35
33
33
33
33
30
27
24
21
18
15
13
10
5
0
-5
-9
-11
-13
-14
-15
-18
-19
-20
-21
-21
-20
-18
-17
-18
-19
-19
-19
-19
-18
-16
-16
-18
-19
-20
-21
-20
-19
-19
-19
-19
-20
-21
-22
-23
-22
-21
-19
-17
-16
-15
-15
-15
-15
-15
-15
-15
-15
-16
-19
-21
-22
-24
-26
-26
-22
-22
-24
-25
-25
-26
-28
-29
-29
-29
-29
-29
-28
-28
-31
-31
-31
-30
-31
-50
-71
-100
-125
-137
-148
-155
-167
-191
-206
-203
-181
-129
-77
-26
8
25
33
32
30
27
25
24
24
26
27
27
27
27
27
28
29
29
29
30
31
31
30
31
32
33
33
33
32
31
33
35
36
37
36
35
36
37
36
35
35
34
31
28
25
22
20
17
13
8
3
-2
-7
-10
-12
-13
-14
-16
-18
-21
-24
-25
-24
-22
-21
-21
-21
-22
-23
-22
-21
-21
-21
-21
-21
-22
-23
-22
-21
-21
-21
-22
-23
-24
-25
-24
-23
-23
-23
-22
-21
-20
-19
-18
-17
-17
-17
-17
-17
-18
-19
-19
-20
-22
-23
-25
-27
-29
-25
-21
-22
-23
-25
-27
-28
-29
-29
-29
-29
-29
-29
-29
-30
-31
-30
-29
-29
-41
-65
-90
-117
-135
-148
-157
-164
-185
-211
-211
-203
-158
-105
-54
-4
14
30
31
31
27
25
25
25
25
25
26
27
27
27
28
29
29
29
29
29
30
31
31
31
32
33
32
31
32
34
36
37
37
37
36
35
36
37
37
37
36
33
30
28
26
21
17
12
7
2
-3
-6
-9
-11
-13
-16
-19
-20
-21
-21
-21
-20
-19
-20
-21
-21
-21
-21
-21
-20
-19
-19
-19
-20
-21
-20
-19
-19
-19
-20
-21
-21
-21
-21
-21
-21
-21
-21
-19
-17
-17
-17
-16
-15
-17
-19
-16
-14
-18
-21
-21
-22
-25
-27
-26
-25
-24
-23
-23
-24
-26
-27
-28
-29
-29
-29
-28
-27
-28
-29
-30
-30
-28
-29
-32
-63
-97
-115
-99
-145
-157
-173
-188
-207
-219
-188
-153
-98
-46
-5
26
30
32
29
27
25
23
24
25
24
23
24
25
26
27
27
27
28
29
28
27
28
29
30
31
31
31
31
31
32
34
35
35
35
35
35
36
37
37
37
35
33
30
27
25
22
19
15
10
5
0
-5
-9
-11
-12
-14
-17
-20
-22
-23
-23
-23
-22
-21
-21
-21
-21
-21
-21
-21
-21
-21
-21
-22
-23
-22
-21
-21
-21
-22
-23
-23
-23
-23
-23
-22
-21
-22
-23
-22
-21
-19
-17
-17
-17
-17
-17
-18
-18
-16
-17
-20
-22
-24
-27
-30
-27
-22
-21
-22
-24
-26
-27
-27
-29
-29
-28
-27
-29
-31
-32
-33
-31
-29
-28
-32
-53
-75
-101
-120
-131
-140
-148
-165
-193
-202
-192
-157
-103
-55
-11
13
27
29
26
24
22
21
22
23
22
21
22
23
24
26
27
27
27
27
27
26
25
27
29
29
29
28
27
28
29
31
33
31
29
30
31
31
30
27
25
25
24
22
20
18
16
14
9
3
-1
-4
-7
-10
-11
-12
-14
-17
-18
-19
-19
-19
-19
-19
-19
-19
-19
-19
-19
-19
-18
-17
-18
-19
-19
-19
-19
-19
-18
-17
-18
-19
-20
-21
-21
-21
-20
-19
-19
-19
-19
-17
-14
-13
-13
-13
-14
-14
-15
-11
-11
-14
-17
-19
-21
-23
-25
-22
-19
-21
-23
-24
-25
-26
-27
-26
-25
-25
-25
-26
-27
-28
-28
-26
-26
-29
-49
-76
-94
-107
-117
-127
-141
-156
-178
-200
-181
-155
-105
-54
-20
13
21
29
28
27
24
21
21
21
22
23
23
23
25
27
28
29
28
27
28
29
30
31
31
31
31
31
30
30
32
33
34
35
34
33
32
31
32
33
32
30
27
24
21
19
17
15
13
9
4
-1
-5
-7
-9
-11
-13
-15
-17
-18
-19
-19
-19
-19
-19
-19
-19
-20
-21
-20
-19
-18
-17
-18
-19
-20
-21
-21
-21
-20
-19
-20
-21
-21
-21
-21
-21
-21
-21
-21
-19
-17
-16
-15
-15
-15
-16
-17
-15
-13
-15
-17
-19
-22
-25
-27
-26
-24
-22
-22
-24
-25
-26
-27
-28
-29
-29
-29
-29
-29
-29
-29
-30
-31
-30
-38
-48
-80
-112
-125
-137
-145
-154
-176
-195
-204
-200
-158
-114
-64
-20
10
29
30
31
29
27
26
25
25
25
26
27
27
27
28
29
30
31
31
31
31
31
31
31
32
33
33
33
33
34
35
36
37
37
37
35
33
34
35
34
33
31
28
24
20
17
14
11
7
2
-3
-7
-10
-12
-13
-14
-16
-18
-19
-20
-21
-22
-23
-22
-21
-21
-21
-21
-21
-21
-20
-19
-19
-19
-20
-21
-21
-21
-21
-21
-22
-23
-24
-25
-24
-23
-23
-23
-22
-21
-20
-19
-18
-17
-16
-15
-16
-17
-18
-18
-16
-17
-20
-21
-22
-25
-28
-26
-22
-22
-23
-25
-27
-28
-29
-28
-27
-27
-27
-28
-29
-30
-31
-31
-31
-31
-39
-59
-83
-111
-131
-144
-154
-160
-178
-203
-210
-203
-163
-106
-55
-6
16
30
32
30
28
26
25
25
25
27
26
25
27
29
30
31
30
29
29
29
29
29
31
33
31
29
30
31
32
33
36
37
37
37
37
36
34
34
36
35
30
28
26
22
18
17
16
10
4
0
3
-9
-13
-15
-17
-19
-21
-22
-23
-23
-23
-22
-21
-21
-21
-22
-23
-23
-23
-22
-21
-22
-23
-23
-23
-23
-23
-22
-22
-24
-25
-25
-25
-25
-25
-25
-25
-24
-23
-22
-21
-21
-20
-19
-20
-21
-20
-19
-21
-23
-24
-25
-27
-29
-28
-27
-26
-25
-27
-29
-30
-31
-32
-33
-32
-31
-31
-31
-32
-33
-34
-35
-34
-36
-41
-68
-101
-120
-136
-148
-160
-175
-190
-208
-227
-196
-164
-108
-53
-14
19
23
27
25
23
21
19
20
21
21
21
21
21
22
23
24
25
25
24
22
22
24
25
25
25
26
27
27
27
28
29
30
31
31
31
31
30
29
29
29
28
27
24
21
18
15
12
8
3
-3
-9
-13
-15
-17
-19
-21
-24
-26
-28
-29
-29
-28
-26
-25
-26
-27
-28
-29
-28
-27
-26
-25
-26
-27
-28
-29
-28
-27
-27
-28
-29
-29
-29
-29
-29
-29
-29
-28
-27
-26
-25
-25
-25
-24
-23
-23
-23
-22
-22
-24
-25
-26
-28
-31
-33
-34
-33
-29
-28
-30
-32
-34
-35
-35
-35
-35
-35
-34
-34
-37
-38
-39
-37
-35
-38
-45
-75
-102
-121
-137
-149
-161
-176
-193
-211
-212
-184
-145
-92
-46
-5
17
22
23
19
17
17
17
17
17
18
19
18
17
18
20
22
23
22
21
21
21
23
24
25
24
23
22
21
23
25
25
25
26
27
27
27
27
27
26
25
24
22
19
16
14
12
9
3
-3
-7
-11
-15
-18
-19
-20
-22
-24
-25
-26
-27
-27
-26
-25
-25
-25
-26
-27
-26
-25
-25
-25
-26
-27
-27
-27
-26
-25
-25
-25
-26
-27
-28
-29
-28
-27
-27
-27
-27
-27
-26
-25
-24
-23
-22
-21
-21
-20
-18
-19
-22
-23
-24
-26
-29
-29
-29
-28
-27
-28
-29
-31
-33
-33
-33
-33
-33
-33
-33
-34
-35
-35
-35
-33
-35
-44
-64
-92
-110
-119
-128
-136
-152
-173
-190
-207
-182
-145
-96
-45
-12
18
22
24
22
25
15
13
15
17
17
17
18
19
18
17
20
23
22
21
21
21
23
25
25
25
25
25
24
23
24
25
26
27
27
26
24
23
24
25
25
24
22
18
14
13
12
8
5
2
-1
-5
-9
-12
-15
-15
-15
-17
-19
-20
-21
-21
-21
-21
-21
-21
-21
-21
-21
-21
-21
-20
-19
-20
-21
-22
-23
-23
-22
-20
-20
-22
-23
-24
-25
-25
-25
-24
-23
-21
-20
-19
-18
-17
-17
-17
-18
-19
-16
-13
-15
-17
-19
-21
-23
-25
-25
-25
-24
-23
-23
-24
-26
-27
-28
-29
-29
-29
-28
-27
-28
-29
-30
-31
-30
-37
-48
-77
-109
-123
-111
-144
-152
-176
-199
-203
-200
-150
-100
-52
-10
14
31
31
30
27
25
25
25
25
25
26
27
26
26
28
29
30
31
30
29
29
29
30
31
32
33
33
33
33
33
33
35
37
36
35
36
37
36
35
34
33
31
29
26
23
19
16
12
8
4
-1
-6
-10
-12
-13
-14
-16
-18
-19
-20
-21
-20
-19
-19
-19
-20
-21
-20
-19
-19
-19
-18
-17
-19
-19
-19
-20
-21
-20
-19
-20
-21
-21
-21
-22
-23
-21
-19
-19
-19
-18
-17
-17
-17
-14
-14
-16
-16
-13
-13
-17
-19
-19
-21
-24
-25
-24
-23
-22
-21
-22
-23
-24
-25
-25
-26
-25
-26
-27
-27
-27
-28
-29
-28
-28
-35
-50
-82
-110
-125
-138
-146
-159
-178
-195
-208
-195
-157
-110
-56
-14
21
33
34
33
30
28
26
26
28
29
29
29
29
29
29
31
33
32
31
32
33
33
33
35
37
36
35
34
33
33
34
38
41
41
41
41
40
38
37
38
38
36
34
30
27
23
19
16
11
6
1
-4
-6
-8
-10
-12
-13
-15
-17
-19
-18
-17
-17
-17
-17
-17
-18
-19
-18
-17
-16
-15
-15
-15
-16
-17
-17
-17
-17
-17
-18
-19
-19
-19
-20
-21
-20
-19
-18
-17
-16
-15
-15
-15
-14
-13
-13
-13
-13
-15
-17
-18
-19
-22
-25
-22
-19
-20
-21
-22
-23
-24
-25
-25
-25
-25
-25
-25
-25
-26
-27
-27
-27
-26
-34
-49
-75
-105
-124
-137
-147
-155
-174
-197
-204
-208
-165
-115
-63
-12
12
35
35
35
32
29
27
25
28
31
30
29
28
27
28
29
31
33
33
33
32
31
32
33
34
35
35
35
36
37
37
38
40
41
40
39
39
39
38
37
38
37
33
29
25
23
21
17
13
8
3
-1
-5
-8
-11
-12
-13
-15
-17
-18
-19
-18
-17
-17
-17
-18
-19
-19
-19
-18
-17
-16
-16
-18
-19
-20
-21
-20
-19
-19
-19
-19
-20
-19
-22
-21
-20
-19
-17
-15
-15
-15
-15
-15
-15
-15
-14
-13
-14
-16
-19
-21
-21
-22
-25
-26
-23
-21
-21
-21
-22
-24
-26
-27
-27
-27
-27
-27
-27
-27
-28
-29
-29
-30
-32
-60
-87
-109
-130
-143
-156
-168
-182
-203
-215
-192
-160
-103
-50
-7
23
30
34
31
28
25
23
24
25
26
27
27
27
26
25
26
27
28
29
29
29
29
29
29
29
30
31
31
30
29
29
29
32
35
35
35
34
33
33
33
32
30
27
24
21
17
12
8
5
1
-4
-8
-11
-14
-16
-17
-18
-19
-20
-21
-21
-21
-21
-21
-20
-19
-20
-21
-21
-20
-19
-19
-19
-21
-23
-22
-21
-21
-21
-21
-21
-22
-23
-24
-25
-25
-25
-23
-21
-20
-19
-19
-19
-18
-17
-17
-16
-14
-14
-16
-18
-20
-21
-21
-22
-24
-24
-22
-22
-24
-26
-27
-28
-29
-29
-29
-29
-29
-29
-29
-30
-31
-30
-29
-33
-43
-67
-88
-105
-119
-129
-140
-151
-170
-195
-198
-186
-149
-99
-55
-14
8
23
27
26
23
20
19
18
18
20
21
23
22
21
22
23
24
25
25
25
25
25
26
27
28
29
28
27
27
27
27
27
28
29
28
27
26
25
25
25
25
24
22
18
14
11
8
6
4
0
-4
-8
-5
-15
-17
-17
-17
-19
-21
-21
-21
-21
-21
-20
-19
-20
-21
-20
-19
-19
-19
-18
-17
-18
-19
-20
-21
-21
-21
-21
-21
-22
-23
-24
-25
-24
-23
-22
-20
-18
-17
-17
-17
-18
-18
-17
-15
-13
-15
-17
-19
-21
-22
-23
-23
-23
-23
-23
-24
-25
-26
-27
-27
-27
-28
-29
-28
-27
-28
-29
-29
-29
-29
-33
-41
-65
-96
-112
-124
-135
-145
-164
-183
-198
-212
-173
-131
-78
-28
1
27
30
33
30
27
25
23
23
23
25
27
27
27
27
27
28
29
30
31
31
31
31
31
31
31
32
33
33
33
33
33
34
35
35
35
35
35
35
34
35
33
31
28
25
22
19
15
11
6
2
-3
-8
-11
-13
-14
-15
-16
-17
-18
-19
-20
-21
-20
-19
-19
-19
-19
-19
-19
-19
-19
-19
-18
-17
-18
-19
-20
-21
-21
-21
-21
-22
-23
-23
-23
-22
-21
-19
-17
-15
-13
-15
-17
-17
-17
-16
-15
-13
-12
-16
-19
-20
-22
-24
-24
-21
-20
-22
-23
-24
-25
-25
-25
-26
-27
-27
-27
-28
-29
-28
-27
-29
-29
-29
-37
-48
-82
-113
-128
-142
-152
-164
-185
-202
-208
-197
-149
-100
-51
-11
16
31
32
32
29
26
24
23
24
26
28
29
28
27
27
28
30
31
31
31
31
31
31
32
33
34
35
34
33
34
35
36
37
38
39
38
37
37
37
36
35
33
30
27
24
21
17
11
8
5
0
-5
-9
-13
-15
-16
-17
-18
-19
-20
-21
-22
-23
-22
-19
-17
-19
-21
-21
-21
-20
-19
-19
-19
-19
-19
-20
-21
-21
-21
-21
-21
-21
-21
-21
-21
-22
-22
-20
-19
-18
-17
-17
-17
-17
-17
-17
-16
-14
-15
-18
-19
-20
-22
-24
-24
-21
-22
-23
-24
-25
-25
-25
-26
-27
-28
-29
-28
-27
-27
-27
-28
-29
-28
-30
-37
-56
-88
-110
-124
-137
-148
-163
-179
-195
-210
-189
-152
-102
-48
-10
24
31
34
34
32
28
31
24
25
27
29
29
29
28
27
28
29
31
33
32
31
32
33
33
33
34
35
35
35
35
35
36
37
38
39
38
37
37
37
37
37
36
33
30
25
20
15
10
5
1
-1
-3
-7
-11
-13
-15
-16
-17
-17
-17
-19
-21
-20
-19
-18
-17
-18
-19
-19
-19
-18
-17
-17
-17
-17
-18
-20
-21
-20
-19
-18
-18
-20
-21
-21
-21
-21
-20
-18
-17
-15
-16
-17
-16
-15
-13
-11
-11
-11
-15
-19
-20
-21
-23
-24
-21
-19
-20
-21
-22
-23
-24
-25
-26
-27
-27
-27
-27
-27
-27
-27
-27
-27
-27
-30
-34
-61
-92
-110
-128
-141
-129
-171
-187
-203
-214
-182
-146
-92
-41
-4
25
30
33
31
29
27
25
25
25
26
27
28
29
28
28
30
31
32
33
32
31
30
30
32
33
34
35
36
36
34
33
34
36
37
37
37
37
37
35
33
32
31
28
24
20
16
12
8
3
-2
-5
-8
-12
-15
-16
-17
-17
-17
-18
-19
-20
-21
-20
-19
-19
-19
-18
-17
-18
-19
-19
-19
-19
-19
-19
-20
-21
-21
-21
-21
-21
-22
-23
-23
-23
-22
-21
-20
-19
-18
-17
-18
-19
-19
-19
-16
-15
-14
-15
-19
-22
-24
-25
-25
-23
-20
-21
-24
-25
-26
-27
-27
-27
-27
-27
-27
-28
-27
-28
-29
-29
-29
-29
-33
-55
-78
-99
-118
-130
-142
-153
-170
-194
-204
-192
-161
-110
-64
-22
6
22
29
28
25
22
21
21
21
21
22
24
25
25
25
25
25
25
27
29
27
25
26
27
28
29
29
29
29
29
29
29
29
29
31
33
31
29
29
29
28
27
26
23
19
16
12
9
5
1
-2
-6
-10
-13
-16
-17
-18
-19
-19
-19
-21
-22
-23
-21
-19
-19
-19
-20
-21
-21
-21
-20
-19
-19
-19
-20
-21
-22
-23
-23
-23
-23
-23
-23
-23
-23
-23
-24
-23
-20
-19
-18
-17
-18
-19
-18
-17
-16
-15
-14
-15
-13
-20
-21
-24
-27
-24
-21
-24
-27
-27
-27
-27
-27
-28
-29
-30
-31
-31
-31
-30
-29
-28
-28
-30
-42
-63
-82
-102
-115
-125
-136
-146
-168
-195
-196
-189
-143
-89
-48
-8
9
24
25
25
21
17
17
17
18
19
20
21
22
23
22
21
22
23
25
27
26
25
25
25
25
25
26
27
27
27
26
25
26
27
28
29
29
28
26
25
25
24
22
19
15
10
5
2
-1
-4
-7
-11
-15
-18
-21
-22
-23
-22
-21
-22
-23
-23
-23
-24
-25
-24
-23
-24
-25
-24
-23
-23
-23
-22
-22
-24
-25
-26
-26
-24
-23
-24
-25
-26
-27
-27
-28
-27
-24
-21
-20
-19
-21
-23
-23
-23
-18
-15
-18
-22
-25
-27
-28
-29
-28
-27
-26
-26
-29
-31
-32
-33
-32
-31
-32
-33
-34
-35
-34
-33
-33
-33
-33
-35
-38
-64
-92
-110
-127
-140
-154
-168
-183
-202
-214
-179
-139
-84
-35
-3
19
23
25
24
22
19
17
18
19
20
21
22
23
22
21
21
22
24
25
25
25
25
25
25
25
25
26
28
29
29
29
29
30
31
31
31
30
29
28
27
26
25
23
20
16
12
8
4
0
-4
-9
-13
-17
-20
-22
-23
-24
-25
-25
-25
-26
-27
-27
-27
-27
-26
-24
-23
-24
-25
-25
-27
-27
-26
-25
-26
-27
-27
-27
-27
-27
-27
-27
-28
-29
-29
-29
-28
-26
-23
-21
-21
-21
-22
-23
-23
-21
-17
-18
-23
-26
-28
-29
-30
-30
-28
-27
-27
-28
-30
-31
-32
-34
-35
-34
-33
-34
-35
-35
-35
-35
-35
-35
-35
-38
-50
-79
-105
-125
-141
-154
-167
-181
-198
-216
-211
-186
-143
-89
-44
-4
16
26
29
28
23
18
17
17
17
18
20
22
23
21
22
23
22
21
24
27
26
25
25
25
25
25
27
29
29
29
29
29
30
31
32
33
32
31
31
31
30
29
28
24
19
16
14
10
6
2
-2
-6
-10
-14
-11
-21
-23
-23
-23
-23
-23
-25
-27
-26
-25
-24
-23
-23
-23
-24
-25
-25
-25
-24
-23
-24
-25
-25
-25
-25
-25
-25
-25
-25
-25
-26
-27
-26
-23
-20
-19
-19
-19
-20
-21
-21
-18
-15
-17
-19
-22
-25
-27
-29
-29
-29
-26
-23
-26
-29
-30
-31
-31
-31
-31
-31
-31
-31
-32
-33
-33
-33
-33
-36
-43
-67
-100
-120
-135
-147
-159
-176
-194
-207
-220
-182
-139
-85
-31
-1
27
28
29
27
25
23
21
21
21
23
25
25
25
25
25
25
25
26
27
28
29
29
29
29
29
29
30
32
33
33
33
33
33
33
33
34
35
34
33
33
30
29
27
25
19
13
10
7
1
-3
-6
-9
-12
-16
-19
-21
-21
-21
-20
-19
-22
-23
-23
-23
-23
-22
-20
-19
-20
-21
-22
-23
-22
-21
-20
-19
-20
-21
-22
-23
-23
-22
-21
-22
-23
-24
-25
-23
-21
-19
-17
-17
-17
-18
-19
-19
-18
-14
-13
-18
-21
-22
-24
-27
-27
-22
-20
-22
-24
-26
-27
-28
-29
-28
-27
-28
-29
-30
-31
-31
-31
-30
-29
-29
-43
-58
-88
-116
-129
-142
-151
-163
-188
-207
-206
-191
-140
-91
-43
-5
15
27
28
29
26
24
22
21
21
21
22
24
26
27
27
27
26
25
26
27
28
29
28
27
27
28
31
31
31
31
31
30
29
31
33
33
33
32
31
30
29
27
25
23
19
14
9
4
0
-2
-4
-7
-11
-14
-16
-18
-19
-19
-19
-20
-21
-22
-23
-23
-23
-22
-19
-17
-19
-21
-22
-23
-21
-19
-19
-19
-20
-21
-22
-23
-23
-23
-23
-23
-23
-23
-23
-22
-19
-17
-16
-15
-16
-17
-18
-18
-16
-14
-12
-14
-18
-20
-22
-24
-26
-24
-20
-21
-25
-26
-27
-27
-27
-27
-27
-27
-27
-29
-31
-30
-29
-28
-27
-29
-41
-68
-90
-106
-119
-130
-143
-158
-178
-200
-195
-173
-133
-85
-45
-8
10
22
25
25
24
22
21
21
21
21
20
21
23
25
24
23
23
23
24
25
26
27
27
27
27
27
28
29
27
25
28
29
28
27
28
29
29
29
28
27
26
24
22
20
18
15
12
7
2
0
-2
-5
-7
-10
-13
-16
-19
-19
-19
-18
-17
-18
-19
-19
-19
-19
-19
-18
-17
-17
-17
-18
-19
-19
-19
-18
-17
-18
-19
-20
-21
-21
-21
-20
-19
-20
-21
-21
-20
-18
-16
-14
-13
-15
-16
-17
-14
-11
-12
-13
-16
-19
-21
-23
-23
-23
-20
-18
-21
-23
-25
-27
-27
-27
-26
-25
-26
-27
-28
-29
-29
-29
-28
-29
-34
-56
-85
-102
-116
-126
-136
-149
-162
-186
-163
-195
-177
-121
-66
-24
14
23
31
30
29
28
27
24
21
23
25
25
25
27
29
29
29
29
29
29
30
32
32
30
29
29
29
30
32
34
35
34
33
33
33
33
34
35
34
33
30
27
25
23
21
18
13
8
4
1
-3
-6
-9
-12
-15
-17
-18
-19
-20
-21
-20
-19
-20
-21
-21
-21
-20
-19
-18
-17
-18
-19
-19
-19
-20
-21
-20
-19
-21
-22
-23
-23
-23
-23
-23
-23
-23
-22
-21
-19
-17
-16
-15
-16
-17
-18
-18
-14
-12
-17
-20
-22
-24
-26
-27
-26
-24
-22
-22
-24
-26
-28
-29
-29
-29
-28
-27
-28
-29
-29
-31
-31
-30
-29
-34
-43
-75
-103
-119
-133
-144
-157
-172
-189
-208
-210
-181
-139
-81
-32
5
24
27
29
28
27
26
24
22
21
22
23
24
25
26
27
26
25
25
26
28
29
29
29
29
29
29
30
31
32
33
33
33
33
33
33
33
33
33
32
31
29
27
26
24
21
16
11
6
1
-3
-7
-10
-12
-15
-18
-19
-20
-21
-22
-23
-23
-23
-23
-23
-23
-22
-21
-21
-21
-21
-21
-22
-23
-23
-23
-22
-21
-22
-23
-24
-25
-24
-23
-23
-23
-24
-25
-25
-24
-21
-19
-18
-18
-20
-21
-21
-19
-16
-16
-18
-21
-24
-25
-25
-27
-27
-24
-21
-24
-27
-29
-31
-31
-31
-30
-29
-30
-31
-32
-33
-33
-33
-31
-30
-33
-51
-83
-107
-125
-140
-152
-165
-179
-198
-219
-210
-190
-139
-81
-36
6
19
28
28
26
24
23
22
21
21
21
23
25
25
25
25
25
25
25
26
27
28
29
29
29
29
29
29
30
32
33
33
33
33
33
33
33
34
35
34
32
30
28
26
24
22
17
11
6
1
-3
-7
-9
-11
-15
-19
-21
-23
-23
-23
-22
-21
-21
-21
-23
-25
-24
-23
-22
-21
-21
-21
-21
-21
-22
-23
-22
-22
-24
-25
-24
-23
-23
-23
-23
-23
-24
-25
-25
-20
-17
-18
-19
-19
-19
-20
-21
-18
-15
-16
-17
-20
-24
-27
-29
-28
-27
-25
-23
-26
-28
-30
-31
-31
-31
-30
-29
-30
-31
-31
-31
-31
-31
-30
-34
-40
-71
-104
-122
-138
-149
-159
-178
-196
-213
-225
-191
-154
-97
-45
-6
23
26
29
28
27
25
23
22
21
21
21
22
23
24
25
25
25
26
27
27
27
28
29
28
27
28
29
30
31
32
33
33
33
33
34
35
35
35
34
33
32
31
28
25
23
20
15
10
6
2
-2
-6
-11
-14
-16
-18
-20
-21
-22
-23
-23
-23
-23
-23
-23
-23
-23
-22
-20
-19
-20
-21
-21
-23
-23
-22
-21
-22
-23
-24
-25
-25
-25
-24
-23
-24
-25
-25
-24
-21
-19
-19
-19
-19
-19
-20
-20
-17
-16
-18
-20
-22
-25
-28
-28
-26
-25
-24
-25
-28
-29
-30
-31
-31
-31
-31
-32
-33
-33
-33
-33
-33
-30
-27
-31
-41
-67
-90
-107
-122
-131
-142
-157
-176
-200
-200
-174
-132
-78
-35
0
16
21
22
20
18
16
15
14
13
14
15
16
17
18
19
19
18
17
19
21
22
23
22
21
21
21
22
23
23
23
23
23
22
21
22
23
23
22
20
18
15
13
13
12
10
7
2
-2
-6
-9
-12
-14
-16
-19
-22
-23
-23
-25
-25
-26
-27
-26
-25
-24
-23
-23
-23
-23
-23
-23
-23
-23
-23
-24
-25
-24
-23
-24
-25
-26
-27
-27
-27
-26
-25
-26
-27
-26
-24
-22
-20
-18
-18
-20
-21
-21
-20
-18
-15
-13
-18
-23
-25
-27
-28
-29
-25
-21
-24
-27
-28
-29
-30
-31
-30
-29
-30
-31
-32
-33
-33
-32
-30
-30
-32
-46
-68
-86
-102
-111
-117
-128
-140
-165
-191
-185
-172
-123
-71
-35
1
12
23
22
21
19
17
17
17
17
17
19
21
21
21
22
23
24
25
25
25
28
28
26
25
25
25
25
27
30
31
30
29
28
27
26
26
28
28
26
24
25
19
17
16
15
9
3
0
-3
-5
-7
-10
-13
-15
-17
-18
-19
-20
-21
-20
-19
-20
-21
-21
-21
-20
-19
-19
-19
-19
-19
-20
-21
-21
-20
-18
-17
-18
-19
-20
-21
-21
-21
-21
-21
-21
-20
-19
-17
-15
-15
-15
-16
-17
-17
-17
-15
-13
-15
-17
-19
-22
-26
-27
-22
-20
-22
-24
-26
-27
-28
-29
-29
-29
-29
-29
-29
-29
-29
-29
-29
-29
-30
-51
-73
-97
-121
-134
-145
-149
-157
-182
-203
-199
-182
-130
-80
-35
0
18
29
28
27
26
25
25
24
22
22
24
26
28
29
29
29
29
29
30
31
30
31
34
34
32
31
31
32
31
34
37
35
33
33
33
33
33
33
33
31
28
25
22
19
17
15
11
4
-1
-5
-8
-11
-14
-16
-18
-20
-21
-22
-23
-23
-22
-20
-19
-20
-21
-21
-21
-21
-20
-19
-20
-21
-22
-23
-22
-21
-20
-19
-20
-21
-22
-23
-23
-23
-22
-21
-22
-23
-23
-22
-19
-17
-16
-16
-18
-19
-20
-19
-16
-15
-16
-19
-22
-23
-24
-26
-28
-26
-22
-22
-25
-27
-29
-29
-29
-28
-27
-28
-29
-31
-33
-32
-31
-30
-30
-34
-47
-75
-99
-118
-134
-145
-156
-168
-184
-203
-196
-172
-126
-69
-28
8
21
27
29
28
27
26
25
25
25
25
25
25
27
29
29
29
30
31
30
29
31
33
33
33
33
33
34
35
35
35
36
36
34
33
34
35
35
33
30
28
26
25
24
21
18
14
10
4
-2
-4
-6
-10
-13
-16
-19
-21
-23
-23
-23
-22
-21
-23
-25
-25
-25
-23
-21
-21
-21
-21
-21
-22
-23
-23
-23
-22
-21
-22
-23
-24
-25
-25
-25
-25
-25
-25
-24
-22
-20
-18
-17
-17
-17
-19
-21
-23
-19
-15
-17
-19
-22
-25
-27
-29
-27
-25
-24
-23
-25
-27
-28
-29
-29
-29
-29
-29
-29
-29
-30
-31
-31
-31
-30
-35
-44
-72
-106
-124
-138
-147
-154
-172
-192
-201
-193
-173
-133
-79
-27
2
27
28
29
27
25
25
25
25
25
25
25
26
27
26
25
26
27
28
29
29
29
30
31
30
29
29
30
32
33
33
33
33
33
33
33
33
33
33
31
29
26
23
21
19
16
12
6
0
-4
-7
-11
-14
-17
-20
-23
-25
-25
-25
-25
-25
-25
-25
-26
-27
-26
-25
-24
-23
-24
-25
-25
-25
-26
-27
-26
-25
-24
-24
-27
-27
-27
-27
-27
-26
-25
-26
-27
-26
-25
-23
-21
-19
-17
-19
-21
-22
-22
-19
-17
-20
-22
-25
-28
-30
-30
-27
-25
-24
-25
-28
-30
-32
-33
-32
-31
-30
-30
-32
-33
-33
-34
-33
-32
-31
-41
-53
-87
-117
-130
-142
-151
-163
-184
-201
-208
-196
-150
-101
-49
-9
16
28
26
24
22
21
22
23
22
21
22
23
24
26
28
29
28
27
26
26
28
30
31
30
29
30
31
31
31
32
33
33
33
33
33
33
33
34
34
31
29
28
26
24
22
19
14
8
3
-1
-5
-9
-12
-14
-17
-20
-21
-22
-23
-23
-23
-22
-21
-23
-23
-23
-22
-21
-20
-19
-20
-21
-22
-23
-23
-23
-22
-21
-22
-23
-24
-25
-24
-23
-22
-22
-24
-25
-25
-23
-19
-17
-16
-16
-18
-19
-20
-19
-16
-16
-18
-21
-24
-25
-25
-26
-25
-23
-21
-24
-27
-28
-29
-29
-29
-29
-29
-29
-29
-30
-31
-31
-31
-30
-31
-38
-58
-92
-116
-134
-146
-155
-171
-191
-207
-221
-197
-159
-107
-50
-13
21
26
28
29
28
26
25
25
25
24
23
24
25
27
29
29
29
29
29
29
29
30
31
31
31
31
31
32
34
36
36
34
33
33
33
34
35
35
35
34
32
30
28
26
24
22
17
11
7
3
-1
-5
-8
-11
-13
-15
-18
-21
-21
-21
-21
-21
-22
-23
-22
-21
-21
-21
-20
-19
-20
-21
-22
-23
-22
-21
-20
-19
-20
-21
-22
-23
-23
-23
-22
-21
-22
-23
-23
-23
-21
-18
-15
-17
-19
-19
-19
-17
-15
-14
-14
-18
-22
-25
-27
-28
-27
-21
-18
-21
-24
-26
-27
-28
-28
-26
-26
-28
-29
-30
-31
-31
-31
-30
-29
-29
-49
-71
-99
-128
-143
-157
-169
-182
-207
-227
-209
-184
-131
-80
-35
3
19
31
30
29
29
28
24
21
23
25
25
25
26
27
26
26
28
29
29
29
30
31
30
29
29
29
29
31
34
35
35
34
33
35
37
36
35
35
35
34
33
30
27
24
20
16
11
6
2
-1
-4
-7
-10
-13
-16
-18
-19
-20
-21
-20
-19
-20
-21
-21
-21
-20
-19
-19
-19
-20
-21
-21
-20
-19
-18
-17
-19
-21
-22
-23
-22
-21
-21
-21
-22
-23
-23
-23
-22
-20
-17
-15
-16
-17
-18
-19
-18
-15
-11
-11
-15
-19
-22
-25
-28
-25
-20
-19
-20
-23
-26
-27
-27
-27
-27
-27
-27
-28
-29
-28
-27
-27
-27
-28
-33
-51
-70
-92
-110
-119
-129
-140
-159
-185
-196
-190
-158
-105
-58
-15
10
24
28
26
25
24
22
20
19
18
18
20
21
22
23
23
23
23
24
25
27
29
28
27
26
25
25
25
27
29
29
29
27
25
25
25
28
28
26
24
22
20
18
17
16
13
8
4
0
-2
-4
-6
-8
-11
-14
-16
-15
-19
-19
-18
-17
-18
-19
-20
-21
-20
-19
-18
-17
-18
-19
-20
-21
-20
-19
-18
-17
-18
-19
-20
-21
-21
-21
-21
-21
-21
-21
-22
-23
-22
-20
-18
-17
-16
-15
-15
-15
-15
-13
-11
-10
-9
-13
-17
-19
-21
-22
-23
-20
-18
-22
-25
-25
-25
-24
-23
-24
-25
-26
-27
-27
-27
-26
-25
-25
-25
-26
-36
-49
-71
-95
-106
-113
-120
-128
-150
-175
-180
-184
-142
-97
-55
-14
6
25
27
29
26
23
22
21
23
25
25
25
25
25
26
27
27
27
30
31
31
31
30
29
29
29
30
31
30
29
28
28
30
31
31
31
30
28
29
24
23
21
19
17
15
11
7
5
3
0
-4
-8
-11
-13
-15
-15
-15
-16
-17
-16
-15
-16
-17
-17
-16
-14
-14
-16
-17
-17
-17
-16
-15
-15
-15
-16
-17
-18
-19
-18
-17
-17
-18
-19
-20
-21
-20
-19
-16
-13
-12
-11
-12
-13
-14
-14
-10
-8
-11
-14
-17
-19
-20
-21
-20
-19
-19
-20
-22
-23
-23
-23
-23
-23
-24
-25
-26
-27
-27
-27
-26
-25
-25
-31
-39
-72
-104
-117
-130
-140
-152
-172
-190
-202
-200
-162
-120
-67
-23
9
28
32
35
34
31
27
25
26
27
28
29
30
31
31
31
31
31
32
33
33
33
34
35
35
35
35
36
37
36
35
36
37
37
37
37
37
36
35
34
33
32
31
30
27
22
17
13
10
7
4
1
-4
-9
-13
-16
-17
-18
-19
-18
-17
-18
-19
-20
-21
-21
-19
-17
-18
-19
-19
-19
-19
-19
-18
-17
-18
-19
-19
-19
-19
-19
-19
-19
-20
-21
-22
-23
-23
-22
-19
-17
-16
-15
-16
-17
-17
-17
-16
-14
-12
-15
-20
-21
-22
-24
-26
-25
-21
-22
-23
-24
-25
-26
-27
-27
-27
-27
-27
-28
-29
-29
-29
-30
-31
-30
-33
-43
-64
-97
-121
-138
-149
-157
-171
-189
-201
-210
-185
-145
-95
-41
-7
24
31
34
33
30
28
29
25
25
27
29
29
29
28
27
28
29
31
33
33
33
32
31
33
35
36
37
36
35
34
34
36
37
38
39
39
38
36
35
35
35
34
31
28
24
20
16
12
8
5
1
-3
-8
-13
-15
-17
-18
-19
-20
-21
-22
-23
-22
-21
-20
-19
-19
-19
-20
-21
-20
-19
-19
-19
-20
-21
-21
-21
-22
-23
-22
-21
-21
-21
-22
-23
-23
-22
-20
-19
-17
-18
-19
-19
-19
-19
-19
-16
-14
-19
-23
-24
-25
-26
-27
-25
-23
-25
-27
-27
-27
-28
-29
-30
-31
-31
-31
-31
-31
-31
-31
-32
-33
-32
-40
-51
-82
-117
-135
-152
-161
-153
-192
-213
-216
-215
-168
-120
-69
-22
7
29
31
32
28
25
23
21
22
23
24
25
25
25
25
25
26
27
27
27
27
27
27
27
28
29
30
31
31
31
31
31
32
35
37
35
33
32
31
31
31
30
29
26
22
18
14
10
6
3
-1
-6
-10
-13
-16
-18
-19
-20
-21
-21
-22
-24
-24
-22
-21
-21
-21
-21
-21
-22
-22
-20
-19
-19
-20
-23
-23
-23
-23
-23
-23
-23
-24
-25
-25
-25
-25
-25
-23
-21
-20
-19
-19
-19
-18
-17
-18
-18
-15
-14
-17
-20
-22
-23
-24
-25
-24
-23
-24
-25
-26
-27
-27
-27
-28
-29
-29
-30
-29
-29
-29
-30
-31
-30
-30
-36
-47
-76
-99
-108
-118
-127
-139
-155
-173
-192
-191
-163
-124
-75
-34
1
19
26
27
24
21
18
17
18
19
20
21
21
21
21
21
22
25
27
26
25
25
25
25
25
27
29
28
27
26
25
26
27
27
27
26
25
25
25
24
22
20
19
18
15
11
8
6
4
2
-3
-8
-11
-14
-16
-18
-19
-18
-18
-21
-22
-23
-23
-23
-21
-19
-19
-19
-20
-21
-21
-21
-20
-19
-20
-21
-22
-23
-23
-23
-22
-21
-22
-23
-23
-23
-23
-23
-23
-22
-20
-19
-18
-17
-17
-17
-17
-17
-16
-15
-15
-17
-21
-21
-21
-24
-27
-24
-21
-23
-25
-26
-27
-28
-29
-29
-29
-30
-31
-30
-29
-29
-29
-29
-30
-32
-47
-72
-92
-109
-122
-134
-146
-158
-178
-199
-185
-164
-116
-65
-26
12
21
29
27
25
22
19
20
21
23
25
26
27
26
25
26
27
28
29
29
29
29
29
30
31
32
33
32
31
30
30
32
33
33
33
32
30
28
27
27
27
26
23
19
15
11
7
3
0
-3
-7
-11
-14
-17
-18
-19
-20
-21
-22
-23
-23
-23
-22
-21
-21
-21
-21
-21
-21
-21
-21
-21
-20
-19
-20
-21
-21
-21
-22
-23
-22
-21
-22
-23
-23
-23
-23
-22
-21
-19
-17
-16
-15
-16
-17
-17
-17
-16
-15
-14
-14
-18
-21
-22
-24
-27
-27
-23
-22
-24
-25
-25
-26
-28
-29
-29
-29
-29
-29
-28
-27
-28
-29
-29
-29
-30
-55
-79
-103
-126
-139
-152
-161
-172
-193
-205
-187
-159
-105
-54
-11
19
28
33
32
30
27
25
26
27
28
29
29
29
29
29
30
31
32
33
33
32
30
30
32
33
33
33
35
34
33
35
37
38
39
38
37
35
33
33
33
34
34
30
26
23
21
19
16
11
7
2
-3
-7
-10
-13
-15
-16
-17
-18
-20
-22
-23
-22
-21
-20
-19
-19
-19
-19
-20
-19
-18
-17
-18
-19
-20
-21
-21
-21
-20
-19
-20
-21
-22
-23
-22
-21
-21
-21
-20
-19
-18
-17
-16
-15
-15
-15
-15
-15
-14
-15
-18
-19
-19
-21
-24
-24
-22
-21
-22
-23
-23
-25
-27
-28
-29
-28
-27
-27
-27
-28
-29
-29
-29
-28
-32
-49
-71
-103
-127
-141
-152
-159
-174
-196
-204
-202
-169
-117
-66
-13
13
29
33
32
30
28
27
27
27
28
29
27
27
27
29
31
32
33
33
33
32
31
32
33
34
35
34
33
33
33
34
35
38
39
38
37
37
36
34
33
34
34
32
29
26
22
18
15
12
6
0
-3
-1
-10
-13
-15
-17
-18
-19
-21
-23
-22
-21
-20
-19
-20
-21
-21
-21
-21
-21
-20
-19
-19
-19
-20
-21
-21
-21
-21
-21
-22
-23
-22
-21
-22
-23
-22
-21
-21
-21
-20
-18
-16
-16
-17
-18
-19
-17
-15
-18
-21
-22
-23
-26
-28
-24
-21
-23
-25
-26
-27
-28
-29
-29
-29
-30
-31
-30
-29
-30
-31
-32
-33
-32
-37
-46
-76
-111
-129
-145
-156
-168
-186
-206
-214
-223
-179
-134
-79
-26
5
31
30
29
27
25
22
19
20
21
23
25
24
23
24
25
26
27
26
25
26
27
26
26
28
29
29
29
29
29
29
30
32
33
33
33
33
32
33
33
33
29
25
23
21
18
15
12
8
3
-2
-7
-11
-13
-15
-17
-19
-22
-23
-24
-25
-25
-25
-24
-23
-24
-25
-26
-26
-24
-23
-23
-23
-23
-24
-26
-27
-26
-25
-25
-26
-27
-28
-29
-29
-29
-28
-27
-27
-27
-26
-25
-23
-21
-21
-21
-22
-23
-22
-21
-21
-22
-25
-27
-28
-30
-32
-31
-28
-27
-28
-31
-34
-35
-35
-35
-34
-33
-33
-33
-35
-36
-37
-37
-37
-36
-39
-65
-91
-112
-131
-143
-154
-165
-180
-203
-211
-193
-160
-107
-59
-16
9
17
20
18
16
14
13
13
13
13
13
14
15
15
16
18
19
19
19
19
17
17
19
21
20
19
19
19
19
19
20
21
21
21
20
19
20
21
20
17
12
9
9
8
5
2
0
-3
-7
-11
-15
-18
-20
-22
-24
-26
-28
-29
-30
-31
-30
-28
-27
-28
-29
-29
-29
-29
-29
-29
-29
-29
-29
-30
-31
-31
-31
-30
-29
-31
-33
-33
-33
-33
-33
-32
-31
-32
-33
-32
-30
-28
-27
-26
-26
-28
-29
-28
-26
-24
-25
-28
-31
-35
-36
-37
-34
-31
-33
-35
-36
-37
-39
-41
-41
-41
-40
-39
-40
-41
-41
-41
-39
-37
-40
-55
-81
-101
-115
-126
-134
-143
-152
-174
-200
-201
-193
-151
-101
-57
-14
3
16
16
17
11
9
9
9
9
9
9
9
9
9
11
13
12
11
12
13
13
13
15
17
14
13
13
14
16
17
17
16
14
13
13
13
13
13
14
13
10
8
6
4
2
0
-1
-5
-9
-12
-15
-18
-21
-23
-25
-26
-27
-29
-31
-33
-34
-31
-29
-30
-31
-31
-31
-30
-29
-29
-29
-29
-29
-29
-29
-30
-31
-30
-29
-30
-31
-32
-33
-33
-33
-32
-31
-31
-31
-31
-29
-27
-25
-23
-24
-25
-26
-27
-24
-21
-24
-27
-28
-30
-34
-36
-32
-29
-30
-32
-34
-35
-36
-37
-37
-37
-36
-35
-36
-37
-38
-38
-36
-36
-38
-64
-91
-108
-93
-135
-145
-156
-169
-195
-215
-194
-167
-112
-61
-23
7
15
21
20
19
17
15
16
17
17
17
16
16
18
19
18
18
20
21
20
19
20
21
21
21
21
21
22
23
23
24
25
25
25
25
25
25
25
23
21
20
19
16
13
11
9
7
3
-2
-6
-10
-14
-17
-19
-20
-22
-24
-26
-28
-29
-29
-29
-28
-27
-27
-27
-28
-29
-29
-27
-24
-23
-25
-25
-25
-26
-27
-26
-25
-26
-27
-28
-29
-29
-29
-27
-25
-27
-29
-29
-28
-25
-23
-20
-20
-22
-23
-24
-24
-22
-20
-18
-19
-24
-25
-26
-29
-32
-29
-24
-25
-28
-29
-29
-32
-33
-32
-31
-32
-33
-33
-33
-33
-33
-32
-31
-32
-40
-62
-86
-110
-130
-143
-155
-164
-181
-206
-209
-193
-153
-97
-51
-11
10
23
27
26
25
24
23
22
21
22
23
24
26
27
27
27
26
25
27
29
29
29
27
25
26
27
28
29
31
33
33
33
32
31
32
33
33
33
32
30
26
24
22
21
20
15
10
4
-2
-5
-8
-10
-12
-15
-19
-21
-23
-23
-23
-22
-21
-22
-23
-23
-23
-23
-23
-22
-21
-21
-21
-21
-21
-21
-21
-21
-21
-22
-23
-22
-21
-22
-23
-23
-23
-24
-25
-24
-22
-20
-17
-14
-15
-18
-19
-19
-18
-15
-15
-15
-19
-23
-25
-27
-27
-27
-22
-19
-22
-25
-27
-29
-28
-27
-27
-27
-28
-29
-30
-31
-30
-29
-29
-29
-29
-40
-56
-84
-116
-135
-150
-159
-166
-188
-213
-208
-200
-141
-82
-34
11
23
33
31
29
28
27
26
25
24
23
24
25
27
29
28
27
27
27
28
29
30
31
31
31
30
30
32
33
34
35
35
35
34
34
36
37
38
39
37
35
33
31
29
27
25
20
14
9
5
2
-1
-4
-8
-12
-15
-17
-19
-19
-19
-19
-19
-20
-21
-20
-19
-19
-19
-18
-17
-18
-19
-19
-19
-18
-17
-16
-16
-18
-19
-19
-19
-19
-19
-19
-19
-19
-20
-21
-19
-17
-15
-13
-14
-15
-16
-17
-15
-12
-9
-9
-16
-20
-22
-23
-24
-22
-17
-17
-20
-22
-24
-25
-25
-25
-25
-25
-26
-27
-27
-27
-27
-26
-25
-25
-26
-44
-64
-94
-121
-137
-151
-160
-172
-195
-209
-201
-177
-126
-76
-26
9
27
37
36
34
32
30
28
27
27
28
30
31
31
31
31
31
30
29
30
32
34
35
33
32
31
32
33
35
37
36
35
35
35
36
37
37
37
36
35
34
33
32
31
30
27
23
19
13
10
7
3
-1
-5
-10
-12
-14
-15
-16
-17
-17
-17
-18
-19
-19
-19
-19
-18
-17
-17
-17
-17
-17
-17
-17
-17
-17
-17
-17
-18
-19
-19
-19
-19
-19
-20
-21
-22
-23
-22
-20
-17
-15
-15
-15
-16
-17
-17
-14
-10
-10
-12
-16
-20
-21
-22
-23
-23
-21
-19
-23
-27
-27
-27
-26
-25
-27
-29
-29
-29
-29
-29
-29
-29
-28
-29
-34
-51
-80
-99
-110
-121
-131
-146
-163
-180
-196
-179
-148
-104
-56
-20
12
22
28
28
26
24
21
21
21
21
21
22
23
23
23
22
21
23
25
26
27
27
27
26
25
26
27
28
29
28
27
27
27
27
27
28
29
28
27
26
24
22
21
20
16
12
9
11
2
-1
-4
-7
-11
-15
-16
-17
-17
-17
-18
-19
-20
-21
-21
-21
-20
-19
-19
-19
-19
-19
-20
-21
-20
-19
-19
-19
-19
-19
-20
-21
-21
-21
-20
-19
-20
-21
-22
-23
-22
-19
-17
-16
-15
-16
-17
-16
-15
-14
-13
-12
-12
-16
-19
-20
-21
-23
-24
-21
-20
-24
-27
-26
-25
-26
-27
-27
-28
-30
-31
-30
-29
-28
-27
-27
-27
-28
-49
-73
-90
-106
-115
-125
-135
-146
-172
-194
-180
-159
-108
-60
-22
9
19
27
27
26
22
19
18
17
19
21
22
23
23
23
23
23
23
24
26
27
26
25
25
25
26
27
27
27
27
27
27
26
27
28
29
28
27
25
23
22
21
19
17
15
12
8
4
0
-3
-5
-8
-11
-14
-17
-19
-20
-21
-21
-21
-20
-19
-20
-21
-21
-21
-20
-19
-20
-21
-21
-21
-20
-19
-19
-20
-21
-22
-23
-22
-21
-20
-19
-22
-25
-24
-23
-23
-23
-21
-19
-17
-15
-17
-19
-19
-18
-16
-15
-14
-15
-19
-21
-22
-24
-26
-25
-22
-22
-24
-25
-26
-27
-27
-27
-29
-30
-31
-30
-29
-29
-29
-30
-31
-31
-36
-56
-78
-102
-123
-136
-149
-159
-175
-200
-207
-192
-157
-104
-57
-15
10
25
31
30
28
26
24
22
22
24
25
26
27
26
25
25
27
27
28
29
29
29
29
29
29
29
30
31
31
31
31
31
32
33
34
35
34
33
32
31
30
29
29
27
23
19
15
11
8
5
2
-2
-6
-10
-14
-15
-16
-18
-19
-20
-21
-21
-21
-20
-19
-18
-17
-18
-19
-20
-21
-20
-19
-18
-17
-18
-19
-19
-19
-19
-19
-19
-19
-20
-21
-21
-21
-21
-21
-20
-18
-16
-15
-15
-15
-16
-17
-16
-14
-11
-15
-19
-20
-21
-22
-23
-22
-21
-21
-21
-23
-25
-25
-25
-26
-27
-28
-29
-28
-27
-27
-27
-28
-29
-29
-32
-37
-59
-90
-110
-127
-139
-150
-165
-180
-197
-213
-189
-159
-107
-157
-14
25
31
37
34
31
29
27
27
27
28
29
29
29
29
29
29
29
31
33
32
31
32
33
33
33
34
35
35
35
35
35
36
37
38
39
39
39
38
37
36
35
35
32
29
25
21
18
15
11
7
3
-2
-6
-9
-13
-15
-16
-17
-18
-19
-20
-21
-20
-19
-18
-17
-17
-17
-18
-19
-19
-19
-18
-17
-17
-18
-20
-21
-20
-19
-19
-19
-21
-21
-21
-21
-21
-19
-17
-16
-15
-15
-15
-16
-17
-16
-15
-15
-15
-15
-16
-19
-21
-21
-22
-25
-25
-21
-20
-22
-23
-24
-25
-26
-27
-27
-27
-27
-27
-27
-27
-28
-29
-29
-28
-27
-34
-43
-75
-105
-120
-135
-147
-160
-175
-191
-207
-208
-173
-130
-74
-26
9
29
30
30
28
26
24
23
24
25
25
25
25
25
26
27
28
29
29
29
28
27
28
30
31
31
31
31
31
32
33
34
35
35
35
34
33
34
35
33
31
29
26
22
18
15
11
7
2
-3
-7
-11
-14
-16
-18
-20
-21
-22
-23
-23
-23
-22
-21
-21
-21
-21
-22
-23
-22
-21
-21
-21
-21
-21
-22
-23
-22
-21
-21
-21
-22
-23
-24
-25
-24
-23
-23
-22
-20
-19
-19
-19
-19
-19
-18
-17
-18
-18
-16
-17
-20
-21
-22
-25
-28
-26
-29
-24
-27
-27
-27
-28
-29
-30
-31
-30
-29
-28
-27
-29
-31
-31
-31
-29
-33
-47
-68
-97
-116
-128
-137
-145
-162
-185
-196
-201
-174
-132
-85
-37
-6
20
25
26
25
22
20
18
18
19
20
21
21
21
21
21
23
25
25
25
25
25
25
25
25
25
25
25
25
25
25
26
28
29
29
29
28
27
26
25
25
24
22
19
16
13
10
7
4
0
-5
-9
-13
-15
-17
-18
-19
-21
-23
-23
-23
-23
-23
-22
-21
-21
-21
-22
-23
-23
-23
-20
-19
-20
-21
-21
-21
-21
-21
-21
-22
-24
-25
-24
-23
-23
-23
-23
-23
-24
-23
-25
-18
-17
-17
-17
-18
-19
-18
-17
-17
-17
-18
-20
-24
-27
-27
-27
-25
-23
-24
-25
-28
-29
-30
-31
-31
-31
-30
-29
-30
-31
-31
-31
-30
-34
-41
-67
-95
-107
-116
-123
-130
-151
-171
-186
-199
-161
-121
-73
-29
-1
21
22
23
20
17
15
13
15
17
17
17
17
17
18
20
22
23
22
21
20
19
20
21
22
23
22
21
21
21
22
23
24
25
23
23
23
22
21
20
19
18
17
14
11
8
5
4
2
-2
-6
-10
-13
-15
-17
-18
-20
-22
-23
-24
-25
-25
-25
-25
-25
-25
-25
-25
-25
-24
-23
-22
-21
-22
-23
-23
-24
-23
-23
-23
-24
-25
-26
-27
-27
-27
-27
-27
-27
-27
-26
-25
-23
-21
-20
-19
-20
-21
-22
-21
-17
-17
-21
-24
-26
-28
-30
-28
-24
-24
-26
-28
-30
-31
-32
-33
-33
-32
-31
-32
-33
-34
-35
-35
-35
-33
-34
-50
-70
-97
-121
-134
-146
-155
-171
-197
-208
-201
-170
-116
-67
-22
4
18
23
22
20
18
17
17
17
17
17
18
19
20
21
21
21
23
23
23
23
23
24
25
25
25
25
25
25
25
27
29
27
25
25
25
26
27
27
26
24
22
19
16
14
12
10
6
1
-4
-10
-12
-14
-17
-20
-23
-26
-27
-27
-29
-29
-28
-27
-27
-27
-28
-29
-28
-27
-26
-25
-26
-27
-28
-29
-28
-27
-26
-25
-26
-27
-28
-29
-29
-29
-29
-29
-29
-29
-29
-27
-24
-23
-22
-21
-22
-23
-24
-23
-20
-21
-23
-26
-29
-30
-31
-31
-31
-29
-27
-29
-31
-32
-33
-34
-35
-35
-35
-35
-35
-36
-37
-36
-35
-34
-35
-39
-60
-89
-111
-130
-143
-154
-166
-178
-199
-222
-210
-193
-140
-83
-41
1
12
23
22
21
20
19
16
13
15
17
17
17
19
21
20
19
19
19
20
21
24
24
22
21
22
23
24
25
26
27
26
25
25
25
26
27
27
27
26
25
25
21
19
17
15
11
7
2
-3
-7
-11
-16
-19
-22
-25
-27
-29
-30
-31
-31
-31
-31
-31
-31
-31
-31
-30
-28
-27
-27
-27
-28
-29
-29
-29
-28
-27
-28
-29
-30
-31
-31
-31
-31
-31
-31
-31
-31
-30
-29
-27
-25
-26
-27
-27
-27
-27
-26
-23
-23
-28
-31
-32
-33
-34
-34
-31
-29
-30
-32
-36
-37
-37
-37
-36
-35
-36
-37
-38
-39
-39
-39
-38
-37
-37
-45
-55
-87
-118
-132
-146
-158
-171
-192
-211
-220
-215
-172
-125
-72
-28
0
17
19
21
20
18
16
15
14
13
14
15
16
17
17
17
18
19
19
19
20
21
21
21
21
22
23
24
25
25
25
25
25
26
27
28
29
28
27
25
23
21
19
18
16
13
9
4
-1
-5
-8
-11
-15
-18
-21
-24
-26
-28
-29
-28
-27
-28
-29
-29
-29
-29
-28
-27
-27
-27
-28
-29
-27
-25
-25
-25
-27
-29
-30
-31
-30
-29
-28
-27
-28
-29
-30
-31
-30
-28
-26
-25
-24
-23
-24
-25
-25
-24
-22
-21
-21
-25
-30
-31
-32
-33
-32
-30
-27
-30
-33
-33
-33
-33
-33
-34
-35
-36
-37
-37
-37
-36
-35
-35
-36
-39
-53
-83
-108
-127
-144
-158
-173
-187
-203
-221
-210
-185
-138
-84
-40
1
15
23
24
22
20
18
17
17
17
19
20
21
20
19
19
19
20
21
23
25
23
21
22
23
24
25
26
27
26
25
26
27
28
29
29
29
28
27
28
28
26
25
24
21
18
14
10
6
2
-3
-7
-10
-13
-17
-21
-22
-23
-23
-23
-24
-25
-25
-25
-25
-25
-23
-21
-22
-23
-24
-25
-24
-23
-22
-21
-22
-23
-24
-25
-25
-25
-25
-25
-25
-25
-25
-25
-26
-26
-24
-23
-21
-20
-19
-20
-21
-19
-17
-16
-15
-17
-19
-22
-25
-25
-25
-25
-25
-25
-25
-27
-29
-29
-29
-29
-29
-30
-31
-30
-29
-30
-31
-30
-29
-29
-32
-36
-60
-88
-102
-114
-124
-115
-150
-165
-185
-201
-171
-139
-89
-43
-11
16
21
25
23
20
17
15
16
17
18
19
20
21
20
19
20
21
22
23
24
24
22
23
26
27
26
25
25
25
24
24
26
26
25
25
25
23
21
21
21
21
21
17
13
11
9
5
2
-1
-4
-8
-11
-13
-16
-18
-19
-19
-19
-20
-21
-21
-21
-21
-21
-20
-19
-20
-21
-22
-23
-22
-21
-20
-19
-21
-21
-21
-21
-21
-21
-21
-22
-23
-23
-23
-22
-21
-21
-21
-20
-19
-18
-17
-15
-13
-13
-13
-14
-14
-12
-12
-15
-17
-18
-21
-24
-23
-20
-19
-20
-22
-24
-25
-26
-27
-27
-27
-27
-26
-25
-26
-27
-28
-29
-27
-27
-40
-57
-85
-108
-117
-126
-134
-148
-172
-189
-198
-181
-137
-91
-44
-8
21
31
31
29
26
25
24
23
24
25
25
25
26
27
27
29
31
30
29
30
31
32
33
33
33
33
33
33
33
34
35
35
35
35
35
34
33
32
31
30
28
26
23
19
17
16
12
8
4
0
-5
-10
-11
-12
-13
-14
-15
-17
-18
-19
-19
-19
-18
-17
-18
-19
-19
-19
-18
-17
-16
-15
-16
-17
-18
-19
-18
-17
-17
-17
-18
-19
-19
-19
-20
-20
-18
-17
-18
-18
-16
-14
-12
-11
-11
-11
-12
-13
-13
-12
-13
-15
-17
-19
-21
-21
-21
-19
-17
-18
-19
-21
-23
-24
-25
-24
-23
-23
-23
-24
-25
-26
-27
-26
-25
-26
-46
-76
-98
-118
-131
-142
-152
-161
-182
-204
-191
-173
-121
-66
-24
17
26
35
33
31
30
29
29
29
30
31
30
29
30
31
32
33
33
33
33
33
34
35
36
37
37
37
37
37
37
37
38
39
40
40
38
37
37
37
38
37
33
31
29
26
23
20
17
12
6
1
-3
-6
-9
-11
-13
-15
-17
-18
-19
-19
-19
-18
-17
-18
-19
-19
-19
-18
-17
-16
-15
-15
-15
-16
-17
-17
-17
-16
-15
-16
-17
-17
-18
-19
-19
-19
-19
-19
-18
-17
-15
-13
-12
-11
-13
-15
-15
-15
-13
-11
-10
-11
-16
-20
-22
-22
-20
-19
-18
-19
-22
-23
-24
-25
-25
-25
-24
-23
-23
-24
-26
-27
-27
-26
-25
-31
-39
-73
-104
-120
-134
-145
-157
-177
-195
-205
-201
-160
-114
-60
-16
13
29
30
31
30
29
28
27
27
27
27
27
28
29
30
31
31
31
31
31
31
31
32
33
33
33
33
34
35
36
37
37
37
37
37
37
37
38
39
37
35
33
31
29
26
23
19
15
10
4
0
-3
-7
-10
-13
-16
-17
-18
-19
-19
-19
-19
-19
-20
-21
-21
-19
-19
-18
-17
-18
-19
-19
-19
-19
-19
-19
-19
-20
-21
-21
-21
-21
-21
-21
-21
-21
-21
-21
-21
-20
-18
-15
-14
-16
-17
-18
-18
-16
-15
-14
-16
-20
-22
-24
-25
-26
-22
-17
-20
-23
-25
-27
-27
-27
-27
-27
-28
-29
-30
-31
-30
-29
-29
-29
-29
-36
-54
-77
-107
-128
-141
-152
-161
-180
-203
-211
-210
-173
-122
-75
-28
0
24
27
28
28
26
24
21
21
21
22
23
25
27
27
27
25
23
25
27
28
29
28
27
27
27
28
29
30
31
31
31
31
31
32
33
34
35
34
33
32
31
30
28
26
22
18
13
17
3
-1
-4
-7
-11
-15
-18
-21
-22
-23
-22
-21
-22
-23
-23
-23
-23
-23
-21
-19
-20
-21
-22
-23
-23
-23
-22
-21
-22
-23
-23
-23
-23
-23
-23
-23
-23
-23
-24
-25
-25
-22
-19
-18
-17
-19
-21
-21
-21
-18
-15
-16
-18
-23
-27
-27
-27
-27
-27
-25
-23
-25
-27
-28
-29
-28
-28
-30
-31
-31
-31
-31
-31
-30
-29
-30
-32
-34
-59
-86
-107
-128
-142
-157
-169
-182
-202
-219
-198
-171
-117
-65
-23
11
23
31
29
27
25
23
22
21
22
23
24
25
25
25
25
25
26
28
30
31
30
29
29
29
30
31
31
31
31
31
31
32
33
34
35
35
35
33
31
31
31
30
28
24
20
16
12
8
4
0
-4
-9
-12
-15
-17
-18
-19
-19
-19
-20
-21
-21
-21
-21
-21
-20
-19
-19
-19
-20
-21
-20
-19
-19
-19
-19
-20
-21
-21
-21
-21
-21
-22
-23
-23
-23
-23
-23
-22
-21
-20
-19
-18
-17
-18
-19
-18
-16
-14
-14
-16
-18
-20
-21
-22
-23
-23
-23
-22
-22
-24
-25
-26
-27
-27
-28
-29
-28
-27
-26
-25
-26
-27
-26
-26
-32
-45
-75
-99
-112
-125
-136
-150
-168
-183
-198
-187
-152
-109
-60
-21
12
25
29
29
26
23
20
20
22
23
24
25
25
25
25
26
27
27
27
27
27
27
27
27
27
29
31
30
29
29
29
30
31
32
33
30
29
29
29
29
29
28
25
21
17
14
11
8
5
2
-1
-4
-8
-12
-14
-16
-17
-17
-18
-19
-19
-19
-18
-17
-16
-15
-16
-17
-17
-17
-18
-19
-18
-17
-17
-17
-18
-19
-19
-19
-18
-17
-18
-19
-20
-21
-20
-19
-19
-19
-18
-17
-16
-14
-12
-11
-11
-12
-15
-12
-9
-10
-11
-13
-15
-18
-21
-19
-17
-18
-19
-20
-21
-22
-23
-24
-25
-25
-25
-24
-23
-24
-25
-25
-25
-24
-29
-38
-61
-90
-101
-107
-116
-125
-143
-163
-179
-196
-161
-197
-75
-28
1
27
29
31
28
25
25
25
25
25
25
25
25
25
25
26
29
31
30
29
28
27
28
30
32
33
33
33
32
31
32
33
34
35
34
33
32
31
30
30
31
29
27
24
21
17
13
11
8
3
-1
-4
-7
-9
-11
-12
-13
-14
-15
-17
-19
-18
-17
-16
-15
-15
-15
-16
-17
-16
-15
-15
-15
-15
-15
-15
-15
-15
-15
-15
-15
-17
-18
-19
-19
-19
-17
-15
-17
-19
-17
-15
-13
-11
-11
-11
-12
-13
-13
-13
-11
-9
-12
-14
-16
-18
-21
-22
-19
-17
-17
-18
-20
-21
-22
-23
-23
-23
-23
-23
-24
-25
-25
-24
-23
-24
-26
-45
-65
-93
-119
-131
-142
-149
-161
-186
-201
-194
-170
-118
-68
-21
12
27
35
34
32
30
29
29
29
30
31
31
31
31
32
34
35
35
35
34
33
34
37
39
38
37
37
37
37
37
39
41
41
41
39
37
38
39
39
39
38
36
33
30
27
24
21
17
13
8
3
-1
-5
-7
-8
-11
-14
-15
-16
-17
-17
-17
-16
-15
-17
-17
-17
-16
-15
-14
-13
-14
-15
-14
-13
-14
-15
-15
-15
-15
-15
-16
-17
-17
-17
-17
-17
-18
-19
-18
-16
-14
-11
-8
-9
-12
-13
-14
-14
-12
-10
-8
-11
-16
-17
-17
-21
-23
-18
-13
-16
-19
-20
-21
-21
-21
-21
-21
-22
-23
-24
-25
-25
-25
-25
-25
-25
-36
-59
-83
-109
-127
-140
-150
-158
-177
-201
-203
-197
-154
-102
-54
-7
14
31
33
34
33
31
30
29
29
29
30
31
32
33
32
31
30
29
31
33
33
33
34
35
34
33
34
36
38
39
38
37
37
38
40
41
41
41
40
37
34
33
33
32
30
26
21
15
9
5
1
-2
-5
-8
-11
-14
-17
-17
-17
-17
-17
-18
-19
-19
-19
-19
-19
-16
-15
-16
-17
-17
-17
-18
-19
-18
-17
-17
-17
-18
-19
-19
-19
-18
-18
-20
-21
-21
-20
-19
-17
-15
-14
-13
-15
-17
-17
-17
-14
-11
-13
-16
-20
-23
-24
-25
-24
-23
-22
-22
-25
-27
-27
-27
-27
-27
-27
-27
-28
-29
-30
-30
-28
-27
-27
-32
-38
-69
-102
-119
-135
-147
-160
-177
-194
-209
-215
-179
-140
-85
-36
0
25
29
31
30
28
25
23
22
22
24
25
26
27
27
27
26
25
25
27
30
31
30
29
29
29
29
30
32
33
31
32
33
34
35
36
37
36
35
34
33
33
33
31
28
24
20
16
12
8
4
1
-3
-8
-12
-15
-17
-18
-19
-19
-19
-20
-21
-22
-23
-22
-21
-20
-19
-19
-19
-19
-21
-21
-20
-19
-20
-21
-21
-21
-22
-23
-23
-23
-23
-23
-24
-25
-24
-23
-21
-19
-19
-19
-19
-19
-20
-20
-18
-17
-16
-17
-20
-22
-24
-25
-26
-27
-26
-25
-25
-25
-26
-28
-29
-30
-31
-32
-33
-32
-31
-31
-31
-32
-33
-33
-34
-39
-54
-86
-111
-128
-143
-157
-173
-191
-206
-219
-206
-173
-127
-72
-29
8
22
27
28
26
23
20
19
19
19
20
21
21
21
21
22
23
24
25
25
25
24
23
25
27
28
29
28
27
26
25
25
26
29
31
30
29
29
28
26
25
25
24
22
18
14
10
6
3
0
-4
-8
-12
-9
-19
-21
-22
-23
-24
-25
-26
-27
-27
-27
-25
-23
-24
-25
-25
-25
-25
-25
-24
-23
-24
-25
-25
-25
-25
-25
-25
-25
-26
-27
-28
-29
-29
-29
-28
-26
-24
-23
-22
-21
-21
-21
-21
-21
-21
-20
-19
-22
-25
-25
-25
-28
-31
-29
-27
-28
-29
-29
-29
-30
-31
-32
-33
-32
-31
-32
-33
-33
-33
-32
-33
-36
-53
-76
-95
-113
-125
-135
-147
-160
-183
-208
-195
-179
-126
-75
-33
6
16
25
24
22
17
13
14
15
17
19
19
19
19
19
19
19
22
23
24
25
24
23
22
22
24
25
25
25
25
25
25
25
25
25
25
25
25
22
21
22
23
21
19
16
13
9
5
3
0
-5
-10
-13
-15
-17
-19
-19
-19
-20
-21
-22
-23
-23
-23
-22
-21
-21
-21
-21
-21
-21
-21
-21
-21
-21
-21
-22
-23
-23
-22
-21
-22
-23
-23
-23
-23
-23
-23
-23
-23
-23
-23
-23
-19
-17
-16
-15
-17
-19
-18
-16
-14
-14
-16
-18
-20
-23
-27
-26
-21
-19
-20
-22
-24
-26
-28
-29
-28
-27
-26
-26
-29
-29
-29
-28
-27
-28
-32
-51
-71
-96
-117
-129
-139
-148
-164
-190
-204
-195
-165
-110
-61
-19
9
24
31
30
28
26
25
25
25
25
25
26
27
26
27
30
31
30
29
29
29
29
31
33
33
33
33
33
33
33
34
35
34
33
33
33
34
35
35
34
31
28
26
24
22
20
18
13
7
3
0
-2
-4
-6
-8
-11
-14
-15
-16
-17
-17
-15
-13
-14
-15
-16
-17
-15
-13
-13
-13
-13
-13
-14
-15
-15
-15
-14
-13
-14
-15
-16
-17
-17
-17
-16
-15
-15
-15
-15
-15
-14
-12
-10
-9
-10
-11
-12
-12
-10
-9
-9
-12
-17
-18
-19
-20
-21
-17
-13
-16
-19
-20
-21
-21
-21
-21
-21
-21
-21
-22
-23
-24
-25
-22
-23
-28
-49
-81
-104
-122
-135
-146
-162
-180
-195
-210
-184
-147
-96
-42
-8
25
29
27
33
33
32
31
30
29
29
29
29
29
31
33
33
33
33
33
33
33
35
37
36
35
34
34
36
38
40
40
38
37
38
39
40
41
41
41
40
37
34
33
32
29
27
21
15
10
5
2
-1
-4
-7
-9
-11
-13
-15
-14
-13
-13
-13
-13
-13
-14
-15
-14
-13
-12
-11
-11
-12
-14
-15
-14
-13
-12
-11
-12
-13
-14
-15
-15
-15
-14
-13
-15
-16
-17
-14
-11
-9
-7
-9
-11
-11
-11
-12
-13
-10
-8
-11
-13
-15
-17
-18
-18
-15
-13
-14
-16
-18
-19
-20
-21
-20
-19
-20
-21
-21
-21
-21
-21
-21
-21
-21
-26
-21
-65
-97
-113
-128
-140
-153
-169
-185
-201
-205
-168
-127
-73
-25
11
36
39
41
39
36
33
31
30
30
32
33
34
35
35
35
34
33
34
35
36
37
37
37
37
37
38
40
41
41
41
41
41
42
43
43
43
43
43
42
41
40
39
38
36
33
29
24
20
17
14
11
6
1
-2
-6
-7
-8
-9
-9
-9
-10
-11
-12
-13
-12
-11
-10
-9
-11
-11
-11
-11
-11
-10
-9
-10
-11
-12
-13
-12
-11
-11
-11
-12
-13
-14
-15
-14
-12
-9
-7
-7
-8
-10
-11
-11
-9
-6
-5
-6
-10
-14
-15
-16
-17
-18
-17
-14
-14
-13
-18
-19
-19
-19
-20
-21
-22
-23
-22
-21
-20
-19
-20
-21
-22
-28
-44
-65
-95
-117
-132
-144
-156
-174
-197
-203
-196
-160
-109
-63
-19
9
30
36
38
37
34
32
30
29
30
32
33
33
33
33
33
34
35
36
37
36
35
35
35
36
37
38
39
38
37
38
39
40
41
42
43
43
42
40
39
40
40
38
36
34
29
24
21
18
13
8
5
1
-3
-7
-9
-11
-11
-11
-12
-13
-14
-15
-14
-13
-13
-13
-13
-13
-14
-15
-14
-13
-13
-13
-13
-13
-14
-15
-15
-15
-15
-15
-16
-17
-18
-19
-18
-16
-14
-13
-12
-11
-11
-13
-13
-12
-11
-11
-11
-13
-15
-16
-17
-18
-19
-19
-19
-19
-19
-20
-21
-21
-21
-22
-23
-24
-25
-25
-25
-25
-25
-25
-25
-24
-29
-39
-63
-92
-107
-119
-131
-144
-167
-190
-197
-202
-159
-116
-69
-24
5
29
30
31
29
27
25
23
23
23
23
23
24
25
25
25
26
27
28
29
28
27
27
27
28
29
30
30
28
27
28
29
30
31
32
32
29
29
29
29
29
27
25
23
21
17
13
11
9
6
2
-2
-6
-9
-11
-13
-15
-15
-15
-16
-17
-18
-19
-18
-17
-17
-17
-18
-19
-19
-18
-16
-15
-15
-16
-18
-19
-19
-19
-19
-19
-19
-20
-21
-21
-21
-21
-21
-20
-19
-19
-19
-17
-15
-15
-15
-15
-15
-15
-14
-12
-12
-15
-17
-18
-20
-22
-23
-22
-21
-21
-21
-22
-23
-24
-26
-28
-29
-28
-26
-25
-26
-27
-28
-29
-27
-26
-34
-47
-74
-97
-109
-119
-129
-143
-165
-184
-197
-188
-149
-105
-56
-17
14
27
28
28
24
23
22
21
22
23
23
23
24
25
25
26
28
29
29
28
27
28
29
29
29
30
31
30
29
30
31
31
31
31
31
30
29
29
29
29
28
25
22
19
16
14
11
8
4
-1
-6
-10
-12
-14
-15
-15
-16
-18
-19
-19
-20
-21
-20
-19
-19
-19
-19
-19
-19
-19
-18
-17
-18
-19
-20
-21
-20
-19
-19
-19
-20
-21
-21
-21
-21
-21
-20
-19
-18
-17
-16
-15
-15
-15
-14
-13
-14
-14
-12
-13
-16
-18
-19
-21
-23
-22
-21
-21
-21
-21
-21
-23
-25
-25
-25
-26
-27
-26
-25
-26
-27
-28
-28
-26
-32
-45
-70
-103
-124
-138
-147
-155
-172
-194
-199
-200
-162
-115
-68
-21
5
30
31
33
30
27
26
25
26
27
28
29
29
29
30
31
32
33
32
31
31
31
33
35
35
35
35
35
35
35
35
35
36
37
37
37
37
37
37
37
37
36
34
31
33
24
21
18
15
10
5
0
-5
-6
-7
-9
-11
-13
-15
-16
-17
-17
-17
-16
-15
-16
-17
-17
-17
-16
-15
-14
-13
-14
-15
-16
-17
-16
-15
-15
-15
-15
-15
-16
-17
-17
-16
-15
-15
-15
-14
-13
-12
-11
-11
-11
-12
-13
-14
-15
-14
-13
-15
-17
-19
-21
-23
-23
-18
-15
-16
-18
-20
-21
-22
-23
-24
-25
-24
-23
-24
-25
-25
-25
-24
-24
-26
-55
-85
-105
-125
-138
-150
-159
-170
-194
-211
-196
-172
-116
-64
-18
17
29
37
35
33
31
29
29
29
29
29
29
29
29
30
32
33
32
31
31
31
32
33
34
35
35
35
35
35
35
36
37
37
37
37
37
38
39
39
39
37
34
31
29
28
26
23
19
14
9
4
-1
-5
-8
-10
-12
-14
-15
-16
-17
-18
-19
-18
-17
-17
-17
-17
-17
-17
-16
-15
-16
-17
-17
-17
-16
-15
-15
-15
-17
-19
-19
-19
-19
-19
-18
-17
-17
-17
-17
-16
-14
-13
-13
-13
-13
-13
-14
-14
-12
-13
-16
-17
-18
-20
-22
-22
-20
-19
-19
-20
-23
-24
-25
-24
-23
-23
-23
-24
-25
-25
-25
-25
-25
-24
-27
-42
-63
-95
-119
-133
-145
-156
-173
-197
-207
-206
-172
-119
-68
-19
9
30
34
32
31
30
29
28
27
26
25
25
28
29
31
33
31
29
29
29
30
31
32
33
33
33
33
33
33
33
35
37
37
37
38
39
39
39
38
37
36
34
32
31
30
26
22
17
12
8
4
1
-2
-6
-9
-11
-13
-14
-15
-15
-15
-15
-15
-15
-15
-16
-17
-16
-15
-15
-15
-15
-15
-15
-15
-15
-15
-15
-15
-15
-15
-16
-17
-17
-17
-17
-17
-17
-17
-16
-15
-14
-13
-12
-11
-13
-15
-17
-15
-13
-15
-17
-19
-21
-23
-25
-22
-19
-18
-17
-19
-21
-23
-25
-24
-23
-23
-23
-24
-25
-26
-27
-26
-25
-24
-31
-44
-71
-103
-119
-133
-142
-152
-172
-193
-204
-195
-172
-129
-76
-25
6
33
33
33
31
29
27
25
25
25
25
25
26
27
28
29
28
27
28
29
29
29
30
31
30
29
29
29
30
32
34
35
34
33
33
34
36
37
37
35
33
32
31
29
27
24
21
17
12
6
1
-1
-4
-7
-9
-11
-13
-15
-17
-17
-17
-17
-17
-17
-17
-17
-17
-17
-17
-16
-15
-16
-17
-18
-19
-18
-17
-16
-16
-19
-20
-21
-20
-19
-19
-19
-19
-19
-19
-19
-17
-15
-14
-13
-15
-17
-17
-17
-17
-17
-16
-17
-21
-23
-24
-25
-26
-23
-17
-17
-22
-23
-24
-25
-25
-25
-25
-25
-26
-27
-27
-29
-29
-28
-27
-29
-34
-59
-83
-105
-125
-136
-149
-163
-180
-204
-211
-189
-151
-93
-43
-4
19
27
31
30
28
25
23
23
23
22
21
22
24
26
27
26
25
25
25
25
27
29
27
25
25
25
27
29
30
31
30
29
29
29
29
29
31
33
31
29
27
25
25
24
21
16
11
8
4
0
-5
-7
-8
-11
-14
-16
-18
-19
-20
-21
-20
-19
-19
-21
-23
-22
-21
-20
-19
-20
-21
-21
-21
-21
-21
-20
-19
-20
-21
-22
-23
-23
-23
-23
-23
-24
-25
-24
-22
-20
-18
-16
-16
-18
-19
-19
-19
-19
-17
-14
-15
-18
-20
-19
-25
-27
-25
-23
-24
-25
-27
-29
-29
-29
-29
-29
-30
-31
-31
-31
-31
-31
-30
-29
-29
-34
-46
-65
-91
-106
-115
-126
-137
-159
-184
-196
-203
-170
-126
-81
-36
-10
15
18
20
20
19
16
13
14
15
16
17
18
19
19
19
18
17
19
21
21
21
21
21
20
19
20
21
21
21
21
21
21
21
21
21
21
21
20
19
18
16
14
12
10
7
3
0
-3
-6
-9
-11
-13
-16
-19
-21
-23
-24
-25
-24
-23
-24
-25
-25
-25
-25
-25
-24
-23
-24
-25
-25
-25
-25
-25
-25
-25
-26
-27
-27
-27
-27
-27
-27
-27
-27
-27
-27
-27
-25
-23
-21
-22
-23
-23
-23
-23
-23
-21
-20
-24
-27
-28
-29
-31
-32
-29
-27
-28
-30
-32
-33
-34
-35
-34
-33
-34
-35
-36
-37
-37
-37
-36
-35
-35
-42
-50
-78
-108
-120
-131
-141
-152
-173
-192
-208
-216
-181
-142
-89
-41
-9
14
18
21
20
18
15
13
13
13
13
14
17
19
19
19
18
17
17
18
20
21
20
19
20
21
21
21
21
21
23
23
23
23
23
24
25
25
25
24
23
21
19
18
16
12
8
4
0
-4
-7
-10
-13
-17
-20
-23
-25
-26
-27
-26
-25
-26
-27
-28
-29
-29
-28
-26
-25
-26
-27
-27
-27
-27
-26
-25
-26
-27
-28
-29
-29
-29
-28
-27
-28
-29
-30
-31
-29
-27
-25
-23
-23
-24
-26
-27
-26
-25
-24
-24
-26
-28
-30
-31
-31
-31
-32
-31
-28
-29
-32
-33
-33
-33
-33
-34
-35
-36
-37
-36
-35
-34
-33
-34
-35
-38
-50
-79
-104
-121
-136
-149
-163
-179
-195
-213
-205
-174
-129
-75
-33
2
17
23
24
22
20
18
17
16
15
16
18
20
21
21
19
17
19
21
22
23
23
23
22
21
22
23
24
25
25
25
25
25
26
27
28
29
28
27
26
25
25
24
22
19
14
10
6
3
0
-4
-8
-12
-16
-18
-17
-23
-25
-25
-25
-25
-25
-26
-27
-26
-25
-24
-23
-23
-23
-24
-25
-24
-23
-23
-23
-24
-25
-26
-27
-26
-25
-25
-25
-26
-27
-27
-27
-26
-24
-22
-21
-20
-20
-22
-23
-22
-21
-21
-20
-19
-23
-27
-27
-27
-28
-29
-26
-23
-25
-27
-28
-29
-30
-31
-31
-31
-31
-31
-32
-33
-32
-31
-32
-33
-33
-44
-60
-85
-112
-131
-146
-157
-167
-187
-209
-206
-200
-152
-103
-56
-10
9
27
28
29
26
23
21
19
19
19
21
23
23
23
22
21
23
25
25
25
25
25
25
25
26
27
28
29
29
29
29
29
30
31
32
33
33
32
33
29
29
29
29
26
23
19
15
11
7
4
0
-5
-10
-13
-15
-16
-17
-17
-17
-20
-21
-22
-22
-20
-19
-19
-19
-19
-19
-20
-21
-21
-21
-20
-19
-19
-19
-20
-21
-21
-20
-19
-21
-23
-23
-23
-21
-19
-18
-17
-17
-17
-18
-19
-18
-17
-17
-17
-16
-16
-19
-21
-22
-23
-24
-24
-22
-21
-22
-23
-24
-25
-24
-24
-26
-27
-28
-29
-28
-27
-27
-27
-29
-28
-27
-33
-42
-74
-103
-117
-131
-145
-159
-178
-194
-208
-204
-167
-123
-69
-24
11
29
32
31
27
24
22
21
21
22
24
25
25
25
25
25
25
26
28
29
29
29
29
28
29
30
31
32
33
32
31
31
31
34
37
37
37
36
35
36
37
36
35
32
29
24
20
17
14
12
7
1
-3
-7
-10
-12
-13
-13
-13
-14
-15
-16
-17
-17
-16
-15
-15
-15
-16
-17
-16
-15
-14
-13
-14
-15
-16
-17
-17
-17
-16
-15
-16
-17
-18
-19
-18
-17
-16
-15
-14
-13
-13
-13
-13
-13
-13
-13
-12
-11
-12
-15
-18
-19
-18
-19
-23
-19
-15
-18
-21
-21
-21
-22
-23
-24
-25
-24
-23
-23
-23
-23
-23
-25
-27
-26
-37
-63
-86
-109
-126
-140
-153
-168
-186
-207
-200
-180
-134
-80
-35
8
24
35
36
34
31
33
26
25
27
29
29
29
29
29
29
29
30
31
32
33
32
31
32
33
34
35
35
35
35
35
35
35
36
37
38
39
39
39
38
37
37
35
32
29
26
23
20
16
13
8
3
0
-3
-5
-7
-8
-9
-12
-15
-14
-13
-13
-13
-12
-11
-12
-13
-13
-13
-13
-13
-13
-13
-13
-13
-14
-15
-14
-13
-13
-13
-14
-15
-15
-15
-16
-17
-16
-15
-13
-12
-11
-11
-11
-10
-9
-9
-9
-8
-8
-12
-15
-15
-15
-17
-18
-15
-13
-15
-17
-18
-19
-19
-19
-20
-21
-21
-21
-21
-21
-21
-21
-21
-21
-21
-35
-53
-76
-99
-108
-101
-128
-140
-166
-191
-188
-178
-127
-77
-34
3
20
33
32
30
27
25
24
23
25
27
27
27
27
27
27
27
28
29
29
29
29
29
30
31
32
33
33
32
30
30
32
33
33
32
31
30
29
30
31
31
31
28
25
22
19
17
15
13
9
4
0
-4
-7
-8
-9
-9
-10
-12
-13
-14
-15
-15
-15
-14
-13
-13
-13
-13
-13
-13
-13
-13
-13
-15
-15
-15
-15
-15
-14
-13
-15
-17
-17
-17
-17
-17
-16
-15
-15
-15
-14
-13
-12
-11
-10
-9
-10
-11
-10
-9
-10
-11
-12
-14
-16
-18
-20
-19
-16
-16
-18
-19
-20
-21
-21
-23
-23
-22
-21
-22
-23
-23
-23
-22
-22
-27
-39
-69
-92
-102
-112
-120
-133
-154
-173
-192
-182
-146
-101
-51
-13
18
30
32
31
28
27
26
25
26
27
27
27
27
27
28
30
31
31
31
31
31
31
31
33
35
34
33
34
35
35
35
36
37
36
35
34
33
34
35
34
32
29
26
22
20
18
15
12
8
4
0
-4
-6
-8
-9
-10
-12
-15
-16
-17
-17
-17
-16
-15
-16
-17
-17
-17
-16
-15
-15
-15
-15
-15
-16
-17
-17
-17
-16
-15
-16
-17
-18
-19
-19
-18
-16
-15
-15
-14
-12
-11
-12
-13
-12
-11
-12
-12
-13
-12
-15
-16
-17
-19
-21
-20
-19
-19
-19
-20
-21
-22
-23
-24
-25
-24
-23
-23
-23
-24
-25
-25
-25
-24
-25
-29
-53
-86
-107
-123
-133
-143
-158
-176
-189
-201
-172
-136
-85
-34
-1
31
33
35
33
31
29
27
28
29
30
31
31
31
31
31
32
33
33
33
33
33
34
35
36
37
36
35
35
35
36
38
40
41
40
39
39
39
39
39
38
36
33
31
29
25
21
18
15
8
3
0
-4
-8
-11
-11
-11
-13
-15
-15
-15
-15
-15
-15
-15
-15
-15
-15
-15
-14
-13
-12
-12
-14
-15
-15
-15
-15
-15
-15
-15
-15
-15
-15
-16
-17
-16
-15
-16
-17
-16
-15
-13
-11
-11
-11
-11
-11
-12
-13
-13
-13
-13
-13
-16
-17
-18
-20
-22
-20
-15
-14
-16
-18
-20
-21
-22
-23
-22
-21
-21
-21
-22
-23
-24
-23
-21
-34
-49
-81
-110
-123
-136
-145
-158
-181
-199
-200
-187
-140
-91
-41
-2
23
37
36
34
32
31
30
29
30
31
30
29
30
31
32
33
33
33
33
33
33
33
34
35
35
35
35
36
37
38
39
39
39
39
39
40
41
41
41
39
37
35
33
31
29
26
22
16
11
7
4
1
-2
-4
-7
-10
-12
-14
-15
-15
-15
-14
-13
-14
-15
-15
-15
-15
-14
-13
-13
-13
-15
-17
-16
-15
-14
-13
-15
-17
-17
-17
-17
-17
-17
-17
-17
-17
-17
-16
-14
-13
-12
-11
-12
-13
-14
-14
-12
-12
-14
-16
-18
-20
-22
-23
-22
-19
-17
-19
-21
-23
-25
-25
-25
-25
-25
-25
-25
-27
-29
-28
-26
-23
-26
-39
-60
-91
-113
-126
-138
-148
-166
-190
-202
-209
-176
-125
-76
-28
2
26
31
31
30
28
27
26
25
23
24
25
26
27
28
29
28
27
27
27
28
29
31
33
32
31
31
31
32
33
36
37
36
35
35
35
36
37
37
37
36
34
32
30
28
25
22
17
12
9
11
1
-3
-6
-9
-11
-13
-15
-17
-17
-17
-16
-15
-16
-17
-18
-19
-19
-19
-18
-17
-16
-15
-16
-17
-17
-17
-17
-17
-18
-19
-19
-19
-20
-21
-20
-19
-20
-21
-20
-18
-16
-14
-13
-14
-15
-15
-15
-15
-15
-14
-13
-16
-19
-21
-23
-24
-24
-20
-17
-19
-21
-23
-25
-25
-25
-25
-25
-25
-25
-26
-27
-27
-27
-26
-25
-26
-47
-71
-89
-105
-116
-126
-140
-155
-181
-204
-187
-166
-114
-63
-25
8
18
25
25
25
24
23
22
21
21
21
21
21
24
25
25
25
25
25
25
26
28
29
28
27
28
29
29
29
29
29
29
29
29
29
29
30
31
29
27
25
23
22
21
20
18
14
10
5
0
-3
-5
-7
-9
-12
-14
-16
-17
-17
-17
-17
-17
-17
-17
-18
-19
-18
-17
-17
-17
-17
-18
-20
-20
-18
-17
-17
-18
-19
-20
-21
-21
-21
-20
-19
-20
-21
-21
-21
-19
-17
-16
-15
-16
-17
-16
-15
-16
-16
-13
-13
-17
-19
-20
-21
-22
-23
-22
-21
-21
-22
-24
-25
-25
-25
-25
-25
-27
-27
-27
-27
-27
-27
-27
-27
-31
-51
-71
-90
-104
-110
-118
-127
-143
-168
-183
-182
-158
-110
-66
-26
-1
15
22
24
24
22
21
20
19
18
19
22
23
24
25
25
25
25
26
27
28
29
29
29
28
27
27
27
29
31
30
29
28
27
28
29
29
29
28
26
23
21
21
20
18
15
11
7
4
1
-2
-4
-6
-9
-12
-15
-18
-19
-19
-18
-17
-18
-19
-19
-19
-18
-17
-17
-17
-17
-17
-18
-19
-18
-17
-17
-17
-18
-19
-20
-21
-20
-19
-19
-19
-20
-21
-22
-21
-18
-15
-12
-13
-16
-17
-17
-17
-18
-17
-14
-15
-19
-21
-23
-24
-25
-22
-19
-19
-19
-22
-25
-26
-27
-26
-25
-26
-27
-28
-29
-28
-27
-27
-27
-26
-30
-41
-62
-91
-108
-119
-130
-140
-159
-180
-194
-205
-172
-131
-84
-36
-5
-33
28
31
30
29
27
25
25
25
25
25
27
29
29
29
29
29
29
29
30
31
31
31
31
31
32
33
34
35
35
35
34
33
34
35
36
37
36
34
32
31
30
26
23
19
15
10
5
2
-1
-4
-7
-10
-13
-15
-17
-18
-19
-19
-19
-20
-21
-21
-21
-20
-19
-18
-17
-18
-19
-19
-19
-19
-19
-18
-17
-18
-20
-22
-23
-22
-21
-20
-19
-21
-22
-23
-21
-19
-17
-15
-16
-17
-17
-17
-18
-19
-17
-16
-19
-22
-25
-27
-27
-26
-23
-21
-21
-22
-25
-27
-28
-29
-28
-27
-27
-28
-30
-31
-31
-31
-30
-29
-28
-42
-27
-87
-115
-126
-137
-147
-158
-180
-200
-206
-201
-155
-107
-57
-15
11
27
28
29
28
26
23
21
21
22
24
25
26
27
27
27
26
25
25
26
28
29
28
27
28
29
29
30
31
30
29
30
31
32
33
34
35
34
33
32
31
30
29
27
24
20
15
10
5
1
-2
-5
-9
-13
-16
-20
-21
-21
-21
-21
-21
-22
-22
-20
-20
-22
-22
-20
-19
-17
-23
-29
-25
-21
-21
-21
-24
-27
-29
-31
-29
-27
-25
-23
-24
-25
-26
-27
-25
-23
-20
-19
-20
-21
-22
-23
-23
-24
-26
-27
-28
-29
-30
-31
-32
-32
-30
-29
-29
-31
-29
-35
-35
-35
-35
-35
-35
-36
-37
-38
-39
-38
-37
-34
-34
-43
-61
-94
-118
-131
-144
-155
-172
-193
-210
-223
-205
-165
-115
-60
-21
11
19
20
21
20
18
16
13
10
11
14
17
19
18
17
17
17
18
19
20
21
22
23
20
17
18
20
23
25
25
25
25
25
26
27
27
27
27
27
26
25
24
22
20
15
10
8
6
3
0
-4
-8
-12
-17
-19
-21
-23
-25
-25
-25
-26
-27
-26
-25
-24
-23
-24
-25
-26
-27
-26
-25
-24
-23
-24
-25
-25
-26
-28
-29
-30
-29
-26
-26
-28
-30
-32
-31
-28
-26
-24
-23
-23
-23
-23
-24
-23
-25
-27
-24
-21
-28
-33
-33
-33
-33
-32
-28
-26
-29
-31
-31
-31
-30
-29
-26
-29
-38
-42
-39
-37
-37
-37
-37
-36
-34
-46
-65
-86
-109
-122
-133
-142
-150
-178
-208
-207
-204
-159
-114
-68
-25
-1
19
20
21
17
13
14
15
14
14
17
17
12
9
11
14
17
21
26
29
29
22
11
7
6
9
15
17
17
17
18
19
18
17
18
19
17
17
17
24
31
25
18
6
-3
-2
-2
-7
-13
-21
-26
-21
-19
-24
-26
-23
-23
-30
-32
-30
-28
-25
-23
-22
-27
-36
-36
-31
-30
-32
-32
-30
-29
-28
-32
-38
-32
-39
-29
-35
-32
-29
-30
-32
-40
-47
-44
-41
-38
-35
-34
-31
-25
-22
-26
-29
-30
-30
-27
-25
-26
-29
-33
-35
-35
-34
-32
-31
-31
-31
-32
-33
-32
-35
-40
-38
-34
-35
-38
-40
-41
-40
-39
-35
-31
-35
-43
-72
-98
-113
-126
-134
-144
-160
-176
-191
-191
-164
-127
-78
-38
-6
14
23
25
21
16
11
11
14
18
22
22
20
19
18
20
24
26
28
24
17
21
25
30
35
31
27
25
23
24
25
26
27
26
25
24
23
22
21
23
25
22
20
18
15
11
9
10
8
3
-4
-13
-15
-15
-15
-14
-16
-20
-24
-28
-28
-29
-25
-25
-23
-21
-21
-21
-20
-19
-18
-17
-20
-23
-23
-23
-22
-21
-20
-19
-19
-19
-20
-22
-24
-25
-24
-20
-15
-14
-16
-15
-12
-13
-16
-17
-18
-16
-12
-15
-20
-22
-24
-24
-23
-23
-23
-25
-27
-26
-25
-24
-23
-21
-20
-26
-31
-29
-27
-26
-25
-23
-21
-21
-27
-39
-60
-89
-107
-118
-129
-139
-155
-174
-183
-189
-160
-120
-73
-24
3
27
30
32
33
31
28
25
27
29
28
27
32
37
33
29
26
24
30
35
33
31
33
35
34
34
39
40
37
34
32
32
35
39
42
43
44
40
33
31
32
31
28
26
24
20
23
14
13
6
-1
-1
-1
-8
-13
-11
-9
-10
-12
-17
-20
-15
-12
-16
-19
-17
-15
-16
-17
-18
-19
-18
-15
-11
-11
-14
-16
-18
-16
-12
-11
-10
-10
-12
-15
-18
-20
-22
-19
-15
-6
3
-10
-21
-20
-19
-15
-11
-10
-10
-15
-19
-19
-19
-20
-21
-21
-20
-17
-15
-15
-17
-21
-23
-23
-20
-13
-16
-24
-28
-30
-27
-22
-19
-16
-24
-36
-66
-98
-109
-121
-130
-140
-156
-172
-183
-189
-162
-129
-77
-29
6
31
32
34
37
37
32
29
29
31
38
39
34
31
31
34
39
39
36
33
28
27
27
29
32
34
36
37
36
35
35
37
37
37
37
38
39
38
37
36
35
37
38
34
31
31
26
10
2
5
6
1
-4
-10
-14
-16
-16
-14
-13
-14
-15
-15
-15
-15
-15
-15
-15
-15
-15
-15
-15
-14
-10
-7
-12
-17
-17
-17
-17
-17
-15
-13
-17
-21
-23
-25
-21
-18
-14
-11
-12
-13
-13
-10
-4
-4
-12
-15
-15
-15
-14
-15
-19
-21
-20
-21
-24
-22
-18
-17
-17
-17
-18
-21
-25
-25
-25
-23
-21
-24
-27
-24
-21
-25
-29
-30
-38
-64
-87
-105
-121
-134
-145
-154
-170
-195
-200
-186
-148
-94
-47
-5
19
34
39
39
34
27
22
18
21
26
30
34
31
35
28
31
30
29
31
33
31
29
28
27
32
35
34
33
33
33
34
35
36
38
41
42
40
39
38
37
37
36
34
28
20
17
17
14
10
5
0
-2
-4
-6
-8
-10
-11
-13
-15
-16
-17
-16
-15
-14
-13
-15
-17
-14
-12
-16
-19
-18
-17
-17
-17
-17
-18
-20
-21
-21
-21
-21
-21
-20
-19
-20
-21
-20
-19
-20
-20
-18
-17
-16
-15
-15
-15
-15
-15
-15
-16
-17
-18
-19
-22
-25
-28
-30
-24
-19
-20
-21
-22
-24
-28
-31
-31
-31
-30
-29
-28
-27
-27
-28
-30
-32
-34
-61
-98
-115
-126
-140
-154
-174
-195
-204
-212
-167
-213
-72
-28
-4
19
21
23
23
23
22
21
21
21
21
21
23
25
25
25
25
25
26
27
27
27
26
26
28
29
29
31
35
34
29
28
30
31
30
28
26
26
28
30
31
31
31
26
21
19
17
14
10
5
1
2
1
-6
-12
-15
-17
-19
-21
-20
-20
-22
-22
-20
-20
-23
-25
-25
-24
-22
-20
-18
-17
-18
-19
-20
-18
-14
-13
-14
-16
-19
-21
-23
-26
-29
-26
-23
-22
-21
-19
-17
-20
-23
-20
-17
-15
-14
-18
-20
-16
-14
-19
-23
-27
-29
-29
-24
-15
-14
-19
-26
-35
-37
-36
-29
-21
-23
-28
-29
-30
-31
-31
-33
-33
-29
-26
-44
-62
-87
-107
-105
-107
-127
-143
-154
-169
-195
-199
-165
-123
-68
-26
3
18
20
19
15
13
12
10
8
11
17
17
14
14
16
22
28
20
10
13
18
20
21
20
19
21
23
17
12
21
28
23
19
20
21
21
22
25
24
16
13
18
18
12
8
5
2
0
-2
-4
-5
-4
-9
-17
-20
-22
-19
-14
-21
-30
-26
-20
-23
-29
-29
-29
-25
-21
-22
-23
-22
-21
-20
-19
-20
-21
-21
-21
-21
-21
-22
-21
-16
-13
-16
-19
-23
-26
-28
-25
-18
-14
-12
-12
-14
-19
-25
-24
-20
-18
-16
-18
-22
-23
-23
-23
-23
-19
-15
-18
-21
-20
-19
-25
-29
-28
-27
-25
-24
-29
-33
-31
-28
-25
-24
-29
-40
-58
-79
-102
-117
-127
-137
-147
-169
-194
-192
-180
-137
-85
-41
2
18
32
30
26
27
29
29
29
25
21
23
25
27
29
30
31
31
31
32
33
32
31
29
28
31
33
33
34
37
38
35
33
33
33
33
33
33
34
36
35
32
29
26
25
24
25
29
15
1
-2
-5
-6
-7
-8
-9
-12
-15
-16
-17
-15
-14
-18
-21
-20
-18
-15
-14
-19
-21
-20
-19
-19
-18
-16
-13
-10
-12
-17
-20
-22
-21
-18
-16
-14
-13
-13
-13
-13
-17
-19
-16
-13
-14
-15
-13
-11
-13
-15
-12
-10
-16
-20
-15
-13
-19
-23
-22
-21
-24
-25
-24
-22
-20
-22
-27
-29
-29
-26
-21
-22
-27
-27
-24
-23
-24
-37
-52
-82
-114
-127
-139
-142
-146
-168
-187
-189
-184
-143
-100
-49
-5
18
35
33
31
30
29
27
26
29
32
34
33
29
25
21
22
29
32
34
33
30
30
32
33
32
33
36
37
36
35
35
35
35
39
43
40
37
32
27
27
27
26
25
27
27
18
13
12
9
4
0
-5
-9
-13
-14
-12
-13
-17
-17
-14
-15
-20
-21
-22
-22
-20
-19
-19
-17
-14
-14
-13
-17
-17
-17
-17
-17
-17
-15
-13
-14
-15
-17
-19
-18
-17
-18
-19
-18
-17
-17
-17
-14
-14
-16
-16
-14
-13
-14
-15
-15
-17
-20
-21
-22
-21
-18
-17
-17
-16
-14
-18
-24
-26
-27
-27
-27
-27
-27
-27
-27
-25
-23
-24
-25
-27
-36
-59
-82
-102
-119
-130
-142
-154
-171
-193
-194
-177
-137
-81
-35
7
26
34
34
29
28
30
31
32
33
32
29
26
25
25
26
27
28
29
30
31
31
31
31
32
36
39
36
34
38
39
33
29
31
35
42
42
36
33
32
32
34
34
32
31
30
22
13
8
4
6
10
0
-12
-13
-13
-13
-13
-15
-17
-17
-17
-17
-17
-15
-13
-13
-13
-13
-14
-17
-19
-18
-17
-17
-17
-14
-15
-20
-23
-22
-20
-18
-17
-17
-18
-20
-18
-13
-13
-16
-16
-14
-13
-14
-15
-14
-16
-19
-16
-13
-14
-15
-17
-19
-20
-21
-19
-17
-18
-19
-18
-18
-22
-25
-27
-29
-30
-30
-27
-25
-24
-24
-26
-27
-26
-31
-40
-64
-94
-109
-119
-132
-147
-166
-185
-195
-204
-169
-131
-81
-32
-1
27
28
29
25
21
21
21
23
25
26
27
28
28
25
23
24
25
28
29
29
30
33
35
34
31
27
26
28
29
29
29
29
31
34
35
36
37
37
35
33
33
33
27
21
21
21
18
14
9
4
-1
-5
-4
-4
-7
-11
-17
-21
-18
-17
-16
-15
-16
-16
-13
-11
-12
-13
-14
-17
-20
-19
-16
-14
-12
-11
-12
-15
-18
-18
-17
-18
-19
-22
-25
-24
-23
-20
-17
-17
-17
-14
-11
-12
-13
-13
-13
-15
-15
-10
-9
-13
-15
-15
-16
-19
-21
-20
-21
-25
-25
-22
-21
-22
-23
-24
-25
-24
-23
-23
-24
-27
-27
-27
-23
-20
-33
-49
-76
-99
-103
-109
-117
-131
-158
-180
-192
-185
-148
-107
-60
-22
7
22
24
24
22
21
20
20
22
23
22
21
22
23
23
23
23
23
24
25
25
25
25
27
29
27
25
26
27
28
29
29
29
29
29
27
25
25
25
25
24
21
19
18
15
11
9
8
5
2
-1
-4
-7
-10
-11
-11
-13
-16
-17
-16
-15
-15
-14
-13
-15
-17
-17
-17
-16
-15
-13
-11
-13
-15
-15
-15
-14
-13
-14
-15
-15
-15
-16
-17
-17
-17
-16
-15
-15
-15
-15
-14
-12
-11
-11
-11
-12
-13
-13
-9
-4
-5
-8
-11
-15
-17
-19
-18
-17
-16
-15
-18
-21
-21
-21
-22
-23
-22
-21
-23
-25
-25
-25
-24
-23
-20
-22
-28
-46
-73
-89
-99
-107
-114
-130
-148
-170
-192
-174
-146
-95
-41
-10
19
22
21
25
25
21
17
19
21
21
21
23
25
25
25
25
25
26
27
28
29
30
30
27
25
25
26
28
29
30
31
31
31
30
29
28
27
28
28
26
23
20
17
14
11
9
7
5
0
-5
-10
-15
-16
-17
-18
-19
-22
-25
-24
-23
-21
-19
-21
-23
-22
-21
-21
-21
-21
-21
-21
-21
-22
-23
-22
-21
-22
-23
-22
-22
-24
-25
-24
-23
-22
-21
-23
-21
-19
-16
-13
-13
-13
-15
-17
-19
-21
-19
-17
-19
-21
-21
-22
-26
-28
-25
-23
-22
-22
-25
-27
-28
-29
-29
-29
-29
-29
-30
-30
-28
-27
-28
-29
-29
-39
-50
-80
-51
-120
-129
-136
-145
-168
-190
-201
-203
-156
-107
-56
-13
11
27
28
29
27
25
23
21
21
22
24
26
28
29
29
29
28
29
32
32
30
29
30
31
30
29
29
32
36
34
31
34
37
34
31
30
29
32
35
35
35
35
33
26
20
16
12
9
5
0
-2
0
-2
-10
-17
-24
-27
-27
-26
-24
-22
-20
-21
-24
-25
-25
-24
-22
-21
-21
-21
-21
-22
-23
-22
-21
-19
-17
-18
-19
-19
-19
-20
-19
-12
-9
-18
-23
-25
-26
-23
-20
-17
-16
-19
-21
-21
-21
-20
-17
-14
-18
-27
-29
-28
-27
-27
-23
-18
-19
-22
-26
-23
-31
-31
-30
-29
-29
-29
-34
-39
-35
-31
-31
-31
-33
-45
-78
-104
-120
-133
-145
-154
-163
-178
-201
-203
-187
-144
-83
-38
-2
16
26
29
29
26
22
21
21
21
21
22
24
26
27
26
25
26
27
27
27
28
29
28
27
28
29
30
31
32
35
40
41
36
35
39
40
38
35
31
29
29
27
23
21
21
18
14
8
2
0
-2
-5
-8
-11
-15
-17
-19
-19
-19
-19
-19
-18
-17
-18
-19
-18
-17
-17
-17
-17
-17
-19
-20
-17
-15
-16
-17
-17
-18
-21
-22
-20
-19
-19
-20
-22
-23
-23
-21
-18
-16
-14
-13
-14
-15
-15
-16
-17
-15
-13
-15
-17
-20
-23
-22
-21
-22
-23
-21
-19
-21
-23
-24
-25
-25
-25
-25
-25
-26
-27
-27
-27
-27
-27
-26
-25
-26
-44
-68
-92
-117
-132
-145
-159
-174
-196
-218
-195
-170
-113
-58
-18
18
26
33
31
29
27
25
23
21
23
25
25
25
25
25
25
25
26
27
28
29
28
27
28
29
29
30
32
33
33
33
33
33
34
35
36
37
37
35
33
32
31
30
29
25
20
15
10
6
3
1
-2
-6
-10
-14
-17
-18
-19
-18
-17
-18
-19
-19
-19
-19
-19
-18
-17
-17
-17
-17
-17
-18
-19
-19
-19
-20
-21
-21
-19
-19
-19
-19
-20
-21
-22
-23
-21
-19
-16
-13
-14
-15
-16
-17
-16
-15
-14
-13
-13
-14
-17
-19
-20
-22
-24
-23
-19
-19
-22
-23
-24
-25
-25
-25
-26
-27
-27
-27
-27
-26
-25
-25
-25
-27
-32
-57
-81
-93
-105
-114
-125
-141
-158
-175
-183
-171
-141
-87
-39
2
23
23
21
17
16
19
19
15
13
13
16
21
23
24
28
32
35
38
28
16
23
33
28
23
20
17
18
19
23
27
24
23
32
37
30
24
21
20
24
25
20
14
7
5
9
9
3
0
-2
-3
-4
-7
-10
-11
-12
-16
-20
-21
-22
-22
-20
-14
-19
-7
-7
-17
-27
-27
-27
-27
-27
-27
-27
-26
-25
-23
-21
-20
-19
-20
-21
-20
-19
-20
-21
-21
-20
-17
-14
-12
-11
-12
-15
-18
-11
0
-3
-11
-16
-20
-23
-26
-25
-22
-22
-23
-20
-17
-20
-23
-23
-23
-23
-23
-25
-27
-26
-25
-25
-25
-25
-25
-26
-27
-26
-34
-52
-72
-92
-105
-114
-122
-132
-152
-178
-186
-188
-152
-104
-60
-17
6
27
29
30
30
27
25
23
24
25
27
29
29
29
29
29
30
31
33
35
35
35
34
33
34
35
36
37
36
35
35
35
36
37
37
37
36
34
32
31
31
30
28
25
22
18
21
10
7
5
3
-1
-5
-8
-11
-12
-13
-12
-11
-14
-17
-19
-20
-17
-15
-14
-13
-14
-15
-15
-15
-16
-17
-16
-15
-15
-16
-18
-18
-16
-15
-15
-16
-18
-19
-18
-17
-18
-16
-13
-12
-11
-12
-13
-13
-13
-12
-11
-11
-11
-14
-17
-18
-19
-19
-19
-19
-19
-19
-19
-20
-21
-21
-21
-22
-23
-24
-25
-25
-25
-25
-25
-26
-27
-26
-32
-40
-71
-103
-116
-129
-136
-144
-168
-189
-190
-184
-135
-86
-39
1
20
33
33
33
31
29
28
27
28
29
30
31
31
31
31
31
32
33
33
33
33
33
33
33
34
35
36
37
37
37
37
36
37
38
39
38
37
36
35
35
35
32
29
27
24
19
14
11
8
4
0
-5
-8
-11
-13
-14
-15
-16
-17
-18
-19
-19
-19
-18
-17
-17
-17
-17
-17
-18
-19
-18
-17
-17
-17
-17
-18
-19
-19
-19
-19
-19
-20
-21
-21
-21
-20
-19
-17
-15
-14
-13
-14
-15
-15
-15
-15
-15
-14
-15
-19
-22
-24
-25
-25
-23
-20
-19
-20
-22
-24
-25
-25
-25
-27
-27
-27
-26
-25
-26
-27
-28
-29
-29
-31
-39
-54
-84
-109
-124
-137
-148
-163
-184
-197
-204
-186
-146
-101
-52
-14
18
30
32
32
30
27
24
23
24
25
26
27
27
27
27
27
27
29
31
31
31
29
27
28
29
30
31
31
31
32
33
33
33
34
35
35
35
34
33
33
33
33
31
28
24
19
17
17
11
3
-3
-8
-11
-14
-15
-15
-17
-19
-20
-21
-21
-21
-21
-21
-20
-19
-20
-21
-21
-21
-20
-19
-18
-17
-18
-19
-20
-21
-20
-19
-19
-20
-22
-23
-23
-23
-23
-22
-20
-19
-18
-17
-18
-18
-16
-16
-18
-19
-19
-21
-23
-25
-27
-27
-27
-24
-21
-22
-23
-24
-25
-26
-27
-28
-29
-30
-31
-29
-27
-27
-27
-28
-29
-29
-38
-53
-78
-108
-125
-138
-148
-159
-179
-201
-205
-205
-160
-110
-64
-107
7
31
32
33
28
23
21
19
21
23
26
29
28
27
25
23
25
27
28
29
28
27
28
29
29
29
30
32
34
34
32
31
32
33
34
35
35
35
35
35
34
32
31
28
25
21
17
14
11
8
4
-1
-5
-8
-11
-12
-13
-14
-15
-17
-19
-19
-19
-19
-19
-18
-17
-17
-17
-18
-18
-16
-15
-16
-17
-17
-17
-18
-19
-18
-17
-17
-17
-19
-20
-21
-20
-19
-17
-15
-15
-15
-15
-15
-15
-15
-14
-13
-14
-15
-17
-19
-21
-23
-23
-23
-22
-21
-20
-20
-22
-23
-24
-25
-25
-25
-25
-25
-26
-27
-26
-26
-28
-29
-29
-29
-32
-61
-88
-104
-120
-131
-144
-160
-177
-198
-205
-175
-140
-92
-47
-8
18
26
31
28
26
23
21
21
22
24
25
25
25
24
23
24
25
26
27
27
27
28
29
28
29
31
31
31
31
31
31
31
33
35
33
31
31
31
30
29
28
27
25
21
16
12
9
6
4
0
-5
-8
-12
-13
-14
-15
-15
-16
-18
-19
-18
-17
-17
-17
-16
-16
-19
-18
-17
-18
-19
-17
-15
-16
-17
-18
-19
-19
-19
-19
-19
-19
-19
-19
-19
-19
-19
-18
-17
-16
-15
-14
-13
-14
-15
-14
-13
-12
-12
-14
-15
-16
-17
-18
-19
-20
-21
-21
-22
-23
-23
-23
-24
-25
-25
-25
-26
-27
-26
-25
-25
-25
-26
-30
-38
-53
-79
-95
-102
-109
-117
-131
-151
-167
-180
-162
-126
-85
-42
-12
15
24
28
28
26
23
20
20
22
24
25
25
25
25
25
26
27
27
27
28
29
28
27
27
27
28
29
29
29
28
27
27
28
30
30
28
26
24
23
22
21
21
19
16
13
10
7
4
3
2
-2
-7
-10
-13
-14
-15
-16
-17
-17
-17
-18
-19
-18
-17
-17
-17
-17
-17
-18
-19
-17
-15
-15
-15
-16
-17
-18
-19
-19
-19
-18
-17
-18
-19
-20
-21
-20
-17
-14
-13
-13
-13
-13
-15
-15
-15
-15
-13
-11
-14
-17
-18
-19
-21
-23
-21
-19
-20
-21
-23
-25
-25
-25
-26
-27
-27
-27
-27
-27
-26
-25
-26
-27
-27
-34
-44
-67
-93
-104
-113
-123
-132
-155
-178
-190
-200
-158
-116
-67
-20
6
29
31
33
31
29
26
23
24
25
27
29
27
25
26
27
28
29
30
31
30
29
30
31
32
33
33
33
33
33
34
35
35
35
36
37
35
34
33
32
31
30
29
25
21
18
14
9
5
3
0
-4
-8
-11
-13
-14
-15
-15
-15
-16
-17
-18
-19
-18
-16
-14
-14
-16
-17
-17
-17
-17
-17
-16
-15
-16
-17
-17
-19
-19
-18
-17
-19
-21
-22
-23
-21
-19
-17
-15
-14
-13
-14
-15
-15
-15
-15
-15
-15
-16
-18
-20
-22
-23
-22
-21
-22
-23
-22
-21
-22
-23
-24
-25
-26
-27
-27
-27
-26
-25
-25
-26
-27
-26
-25
-31
-42
-73
-100
-114
-127
-137
-151
-173
-189
-198
-184
-137
-89
-39
-2
22
33
33
31
27
25
25
25
25
26
28
29
28
27
28
29
29
29
30
31
29
29
29
31
33
33
33
32
31
32
33
34
35
35
35
34
33
33
33
33
33
33
32
29
25
19
16
13
9
6
2
-3
-8
-12
-15
-18
-19
-19
-19
-20
-21
-21
-21
-21
-20
-19
-20
-21
-21
-21
-21
-21
-20
-19
-20
-21
-21
-21
-21
-21
-20
-19
-22
-23
-23
-23
-23
-22
-20
-18
-16
-16
-18
-19
-19
-19
-18
-17
-18
-20
-22
-24
-26
-26
-25
-25
-25
-25
-25
-26
-27
-27
-27
-28
-29
-30
-31
-31
-31
-30
-29
-30
-31
-30
-34
-45
-67
-98
-118
-132
-142
-152
-169
-191
-201
-207
-177
-137
-89
-40
-8
22
26
28
27
23
21
19
20
21
22
23
23
23
22
21
22
23
24
25
25
25
25
25
25
25
28
29
29
29
29
29
29
29
30
31
31
31
30
29
29
29
29
26
22
20
21
13
9
5
1
-5
-11
-14
-17
-19
-21
-21
-21
-23
-25
-25
-25
-25
-25
-24
-23
-23
-23
-24
-25
-24
-23
-23
-23
-23
-23
-24
-25
-25
-25
-24
-23
-24
-25
-26
-27
-27
-25
-23
-22
-21
-22
-23
-23
-23
-22
-21
-22
-23
-24
-25
-27
-29
-29
-29
-30
-30
-27
-26
-29
-31
-31
-32
-34
-35
-35
-35
-35
-35
-34
-33
-34
-35
-35
-38
-42
-70
-100
-116
-133
-145
-157
-173
-188
-205
-214
-180
-143
-93
-46
-9
18
22
25
23
20
17
15
14
13
16
17
17
17
17
17
18
19
20
21
21
21
20
20
22
23
22
21
21
21
21
23
25
27
29
28
27
26
25
25
25
24
23
20
16
12
8
4
1
-1
-5
-10
-15
-19
-22
-24
-25
-25
-26
-28
-29
-29
-29
-29
-29
-28
-27
-27
-27
-28
-29
-28
-27
-27
-28
-29
-28
-27
-28
-29
-28
-27
-28
-29
-31
-33
-31
-29
-28
-27
-26
-25
-26
-27
-26
-25
-25
-25
-24
-24
-28
-29
-30
-31
-31
-31
-32
-32
-30
-30
-32
-33
-34
-35
-35
-36
-37
-37
-37
-37
-37
-37
-37
-36
-35
-38
-49
-79
-104
-122
-138
-151
-166
-184
-200
-215
-207
-176
-134
-83
-40
-2
15
22
23
18
17
16
15
14
14
16
17
17
17
17
17
17
18
19
18
17
18
19
18
17
19
21
22
23
23
23
24
25
26
27
27
27
28
29
29
29
28
25
22
20
18
15
12
8
4
-1
-6
-10
-14
-16
-18
-20
-21
-23
-25
-26
-27
-27
-27
-26
-25
-25
-25
-25
-25
-25
-25
-24
-23
-25
-27
-27
-27
-27
-27
-26
-25
-26
-27
-28
-29
-29
-29
-28
-27
-26
-25
-24
-23
-23
-22
-20
-20
-23
-22
-21
-23
-25
-25
-25
-28
-31
-29
-27
-27
-27
-28
-29
-30
-31
-32
-33
-33
-33
-32
-31
-32
-33
-33
-33
-32
-33
-36
-57
-86
-103
-118
-129
-139
-155
-171
-191
-212
-184
-213
-100
-48
-11
23
24
25
23
21
19
17
18
19
19
19
18
17
19
21
21
21
21
21
21
21
21
22
25
27
26
25
25
25
26
27
28
29
29
29
29
29
28
26
25
24
23
19
15
13
11
8
5
1
-4
-8
-11
-13
-15
-15
-15
-17
-19
-20
-21
-20
-19
-18
-17
-18
-19
-19
-19
-19
-19
-18
-17
-18
-19
-20
-21
-20
-19
-19
-19
-21
-21
-21
-21
-21
-20
-19
-19
-19
-18
-17
-16
-15
-14
-13
-15
-16
-13
-11
-12
-13
-16
-18
-21
-23
-22
-21
-21
-21
-21
-22
-24
-25
-26
-27
-26
-25
-25
-25
-26
-27
-27
-26
-25
-29
-35
-64
-90
-97
-104
-113
-125
-145
-164
-183
-186
-150
-109
-61
-21
7
23
26
26
23
21
20
19
20
21
21
21
21
21
22
23
24
25
25
25
25
25
26
28
29
29
29
27
25
27
29
29
29
29
29
29
29
29
29
29
29
27
24
21
18
15
12
10
7
3
0
-4
-6
-8
-10
-12
-14
-16
-17
-17
-17
-16
-15
-15
-15
-17
-17
-17
-16
-15
-14
-13
-15
-17
-18
-19
-18
-17
-17
-17
-18
-19
-19
-19
-19
-19
-18
-17
-16
-14
-12
-11
-11
-11
-11
-11
-12
-11
-8
-8
-10
-12
-14
-16
-18
-19
-19
-18
-17
-18
-19
-20
-21
-23
-25
-24
-23
-22
-21
-22
-23
-24
-25
-24
-23
-25
-41
-73
-96
-112
-123
-131
-144
-161
-177
-194
-182
-158
-112
-58
-17
21
31
36
36
34
33
32
30
29
29
29
30
31
32
33
34
35
35
35
34
33
34
35
37
39
38
37
37
37
38
39
39
39
40
41
41
41
40
39
39
39
38
35
32
30
28
25
22
16
9
4
-1
-3
-5
-6
-7
-9
-11
-13
-15
-13
-11
-11
-11
-12
-13
-13
-13
-12
-11
-10
-9
-10
-11
-12
-13
-13
-13
-12
-11
-11
-12
-14
-15
-14
-13
-13
-13
-13
-12
-13
-7
-5
-6
-7
-8
-9
-9
-9
-7
-5
-7
-9
-11
-14
-17
-18
-14
-11
-12
-13
-16
-17
-18
-19
-19
-19
-18
-17
-18
-19
-20
-21
-21
-19
-16
-29
-47
-75
-105
-115
-124
-133
-141
-165
-187
-190
-187
-138
-89
-40
3
25
41
40
39
35
33
33
33
33
33
33
33
34
35
36
37
36
35
35
35
36
37
38
39
39
39
38
37
38
40
42
43
41
41
41
41
41
42
43
42
41
38
35
34
33
30
26
22
17
11
7
5
3
0
-1
-2
-4
-6
-6
-4
-5
-9
-13
-18
-19
-19
-18
-16
-14
-12
-11
-12
-14
-13
-15
-13
-12
-11
-11
-11
-11
-10
-3
2
-4
-9
-9
-11
-17
-21
-21
-21
-21
-21
-18
-17
-17
-16
-13
-11
-10
-11
-15
-19
-22
-23
-22
-19
-16
-16
-18
-19
-19
-19
-19
-21
-23
-29
-35
-34
-33
-31
-29
-23
-21
-30
-45
-77
-102
-115
-127
-138
-154
-179
-195
-201
-180
-130
-82
-36
-2
23
32
28
27
28
29
28
27
26
25
26
27
27
27
27
27
29
28
27
30
33
34
35
33
31
33
35
35
35
35
35
37
39
37
35
36
38
41
44
46
43
35
29
25
23
24
24
22
17
11
7
4
2
0
-4
-8
-9
-9
-12
-13
-11
-9
-11
-12
-4
2
-9
-17
-20
-23
-20
-17
-17
-17
-18
-18
-15
-13
-14
-15
-16
-17
-16
-15
-15
-15
-16
-17
-17
-20
-25
-21
-13
-11
-12
-14
-16
-16
-14
-14
-15
-16
-17
-10
-4
-17
-29
-29
-29
-28
-27
-27
-27
-27
-26
-23
-23
-28
-31
-30
-30
-33
-33
-29
-28
-31
-50
-78
-100
-119
-131
-140
-151
-161
-178
-196
-191
-180
-137
-91
-49
-7
8
23
21
19
19
19
15
12
22
30
34
36
31
26
23
17
6
2
10
15
14
12
10
11
17
21
25
28
30
28
23
24
30
32
34
35
35
30
24
18
23
15
19
19
19
13
7
0
-5
-1
1
-8
-15
-18
-21
-23
-24
-18
-17
-23
-29
-34
-34
-27
-23
-24
-27
-31
-27
-17
-14
-16
-23
-33
-27
-15
-17
-22
-27
-32
-27
-20
-21
-23
-29
-35
-33
-31
-28
-25
-24
-23
-23
-20
-8
-3
-17
-27
-27
-28
-31
-32
-28
-26
-29
-30
-27
-25
-25
-26
-30
-29
-26
-19
-11
-23
-41
-44
-42
-37
-32
-31
-31
-37
-45
-60
-76
-96
-116
-132
-145
-152
-161
-184
-201
-198
-179
-124
-74
-34
-2
16
26
22
21
26
25
17
13
12
12
15
17
17
19
22
23
22
23
26
27
26
23
20
23
19
27
25
26
27
32
37
32
27
29
31
28
25
25
24
21
19
17
16
20
20
13
5
-3
-7
-7
-8
-10
-13
-16
-16
-14
-14
-16
-17
-16
-19
-24
-21
-16
-15
-16
-16
-15
-13
-11
-24
-35
-29
-23
-23
-23
-21
-19
-20
-21
-19
-16
-13
-11
-13
-17
-22
-23
-18
-15
-16
-17
-18
-16
-11
-9
-10
-10
-8
-4
0
-7
-17
-17
-14
-11
-8
-11
-17
-28
-39
-31
-23
-14
-8
-15
-22
-28
-30
-17
-8
-12
-16
-21
-26
-29
-36
-48
-66
-91
-106
-112
-115
-116
-141
-180
-181
-163
-118
-62
-26
5
22
36
35
30
22
14
23
13
21
7
14
21
31
38
24
13
17
22
27
31
28
26
30
31
24
22
29
34
39
35
21
17
23
28
33
33
29
24
19
17
17
17
17
17
17
13
8
-1
-10
-6
-1
-3
-5
-2
0
-10
-19
-21
-23
-23
-22
-17
-11
-4
-4
-21
-31
-30
-22
-6
-3
-16
-24
-26
-25
-21
-19
-18
-16
-14
-11
-8
-11
-17
-21
-24
-22
-18
-16
-14
-8
-1
-7
-13
-19
-25
-18
-11
-8
-7
-22
-32
-25
-19
-20
-20
-16
-13
-13
-15
-20
-23
-26
-27
-26
-27
-31
-30
-25
-23
-24
-27
-30
-40
-52
-81
-114
-124
-130
-137
-144
-166
-145
-174
-157
-98
-42
-2
33
32
31
33
34
29
26
30
31
25
24
32
37
35
33
32
32
34
33
27
26
29
31
32
33
33
33
33
34
36
42
48
44
38
37
37
37
37
37
37
39
40
32
25
27
28
21
14
6
0
-4
-7
-8
-9
-11
-13
-12
-11
-10
-7
-3
-7
-17
-14
-1
-3
-12
-18
-22
-23
-22
-20
-18
-17
-18
-14
-8
-12
-19
-15
-11
-16
-21
-20
-19
-17
-15
-14
-13
-12
-11
-11
-11
-12
-13
-11
-9
-11
-11
-6
-7
-15
-19
-19
-19
-18
-11
-2
-12
-30
-33
-30
-25
-18
-22
-28
-23
-16
-22
-15
-25
-19
-17
-15
-23
-31
-26
-29
-72
-106
-111
-117
-128
-139
-151
-162
-173
-165
-131
-95
-56
-21
11
25
26
30
35
31
22
20
22
26
30
31
32
33
32
31
30
29
29
29
29
32
35
34
33
37
41
41
40
34
28
22
19
29
38
48
48
30
19
20
26
36
36
26
20
18
16
14
6
-4
-7
-6
-6
-8
-9
-10
-15
-20
-21
-20
-18
-15
-16
-17
-19
-21
-24
-27
-24
-21
-19
-17
-18
-18
-14
-12
-16
-21
-27
-28
-20
-16
-19
-20
-18
-19
-23
-24
-22
-17
-11
-7
-2
-8
-19
-20
-18
-12
-6
-9
-14
-23
-15
-30
-27
-24
-21
-23
-25
-25
-25
-23
-21
-18
-18
-29
-35
-28
-23
-22
-24
-32
-36
-33
-39
-57
-78
-101
-114
-120
-136
-156
-176
-196
-188
-171
-124
-70
-36
-7
7
20
22
24
27
29
28
27
27
27
30
32
26
22
30
37
37
36
32
27
20
17
22
26
30
32
30
29
30
32
35
38
40
36
28
29
35
37
37
31
23
21
20
21
24
19
11
2
-7
-8
-9
-5
-2
-11
-19
-22
-25
-23
-20
-16
-14
-18
-21
-23
-25
-25
-25
-25
-24
-21
-17
-11
-10
-13
-19
-26
-28
-26
-23
-20
-23
-28
-26
-22
-22
-24
-20
-25
-17
-21
-21
-21
-15
-9
-12
-16
-23
-28
-21
-16
-20
-23
-24
-25
-26
-26
-23
-22
-25
-27
-28
-29
-29
-29
-30
-31
-30
-29
-28
-27
-26
-29
-34
-35
-34
-56
-83
-104
-124
-135
-145
-153
-162
-187
-207
-183
-155
-108
-62
-18
16
21
24
20
18
23
27
29
29
23
21
26
28
26
22
16
16
23
23
19
21
27
29
29
26
22
20
18
23
30
35
41
31
21
25
29
38
44
35
27
29
30
26
22
16
10
7
3
-2
-3
2
3
-4
-14
-27
-29
-22
-19
-20
-21
-22
-21
-18
-21
-27
-29
-28
-27
-26
-17
-8
-17
-7
-28
-27
-26
-25
-21
-17
-22
-27
-27
-27
-27
-27
-24
-21
-21
-22
-28
-27
-15
-10
-13
-17
-21
-27
-34
-27
-9
-10
-21
-27
-31
-33
-34
-28
-19
-23
-30
-34
-38
-37
-34
-31
-29
-34
-39
-36
-33
-38
-42
-36
-31
-29
-30
-43
-62
-93
-118
-133
-145
-153
-168
-192
-206
-208
-179
-124
-74
-28
0
19
23
19
21
27
22
13
11
10
20
33
21
6
7
11
16
21
19
17
17
17
20
23
20
18
24
28
22
19
26
29
24
21
19
19
24
27
28
27
23
18
13
11
12
11
6
3
0
-1
-2
-11
-22
-23
-24
-17
-25
-24
-41
-37
-33
-28
-23
-21
-20
-28
-35
-30
-27
-26
-23
-16
-15
-27
-35
-36
-35
-28
-26
-29
-31
-30
-28
-25
-25
-29
-30
-28
-23
-17
-22
-31
-27
-20
-22
-26
-28
-30
-19
-7
-22
-37
-37
-37
-35
-33
-30
-27
-29
-31
-34
-36
-32
-30
-35
-39
-37
-35
-35
-37
-41
-40
-32
-33
-40
-63
-95
-112
-124
-130
-135
-156
-180
-196
-211
-187
-156
-111
-65
-29
7
15
23
20
17
15
13
11
10
15
18
13
9
11
14
18
20
16
14
17
20
23
24
22
20
18
17
17
19
23
23
18
17
17
21
26
27
26
22
18
19
17
18
13
15
17
13
8
-5
-15
-11
-8
-13
-18
-24
-28
-23
-20
-23
-25
-26
-27
-28
-28
-25
-25
-31
-29
-22
-22
-27
-29
-28
-27
-26
-28
-32
-30
-26
-24
-22
-21
-22
-17
-11
-24
-37
-38
-39
-34
-28
-19
-12
-19
-24
-20
-17
-15
-14
-17
-21
-26
-28
-24
-24
-31
-32
-24
-24
-30
-33
-34
-33
-30
-33
-39
-35
-27
-31
-39
-39
-36
-26
-16
-27
-41
-73
-103
-100
-98
-112
-128
-152
-174
-189
-196
-175
-139
-72
-23
-10
4
18
26
22
17
10
11
19
21
15
14
17
17
14
19
28
23
12
17
27
22
14
14
16
20
17
32
39
31
23
20
17
16
15
17
19
22
26
30
29
17
9
11
17
29
26
5
-8
-15
-17
-11
-10
-13
-15
-14
-15
-19
-24
-29
-28
-24
-23
-23
-23
-23
-23
-22
-20
-19
-14
-9
-17
-25
-25
-25
-27
-28
-23
-19
-18
-17
-17
-18
-22
-26
-29
-29
-23
-19
-18
-17
-16
-16
-19
-21
-20
-18
-16
-17
-20
-21
-21
-21
-22
-19
-14
-17
-22
-28
-35
-28
-21
-29
-36
-25
-15
-20
-26
-34
-39
-30
-23
-23
-30
-51
-73
-94
-111
-123
-133
-144
-158
-177
-184
-182
-152
-105
-56
-6
14
23
25
26
23
18
22
28
29
29
29
29
24
17
28
39
34
29
27
26
32
36
31
28
33
36
32
29
29
31
36
39
36
35
35
36
39
40
38
37
36
33
29
24
19
20
24
13
-3
-4
-2
-1
-2
-7
-11
-14
-17
-21
-25
-21
-16
-9
-4
-11
-17
-18
-19
-19
-19
-19
-18
-14
-11
-13
-15
-15
-16
-19
-21
-21
-20
-16
-15
-15
-15
-16
-16
-14
-13
-12
-11
-12
-13
-14
-12
-7
-8
-9
-7
-5
-12
-19
-23
-27
-26
-24
-17
-11
-10
-13
-25
-32
-29
-26
-22
-19
-22
-23
-24
-24
-22
-21
-21
-23
-26
-49
-81
-97
-108
-123
-138
-150
-161
-178
-196
-162
-197
-79
-34
-3
25
35
43
45
44
26
13
24
33
30
27
27
28
32
34
30
29
36
37
33
32
34
38
44
41
32
31
35
38
40
37
30
32
36
37
37
37
37
40
43
36
29
29
29
26
23
19
14
8
1
-8
-15
-11
-9
-10
-13
-18
-18
-10
-5
-5
-12
-25
-28
-23
-17
-10
-9
-12
-15
-18
-19
-19
-18
-16
-15
-15
-15
-14
-17
-23
-20
-17
-12
-7
-11
-15
-13
-11
-9
-8
-15
-20
-16
-13
-11
-9
-7
-8
-15
-18
-13
-18
-32
-35
-27
-23
-23
-22
-20
-19
-20
-21
-22
-23
-22
-21
-21
-21
-22
-23
-23
-15
-8
-33
-60
-98
-131
-130
-130
-139
-152
-176
-191
-183
-163
-118
-72
-26
9
28
39
36
33
28
25
26
28
30
31
31
32
34
35
36
37
38
39
38
36
34
37
42
36
29
30
31
33
35
35
35
39
43
42
41
42
43
42
41
40
38
34
29
24
22
24
25
25
21
12
6
-1
-9
-18
-17
-11
-9
-9
-12
-16
-8
4
-8
-22
-24
-27
-23
-19
-17
-15
-10
-6
-14
-21
-19
-17
-16
-15
-15
-16
-21
-24
-21
-19
-19
-17
-12
-9
-9
-9
-10
-9
-5
-3
-2
-11
-25
-23
-15
-14
-16
-17
-17
-20
-24
-20
-25
-15
-17
-20
-23
-23
-23
-23
-23
-23
-23
-22
-21
-21
-21
-22
-23
-25
-34
-53
-74
-97
-115
-127
-138
-147
-164
-185
-184
-170
-127
-73
-31
7
23
35
35
32
29
26
27
30
30
29
28
27
27
27
30
33
35
37
35
33
31
30
34
38
41
43
42
39
33
30
32
34
36
37
36
35
34
34
36
37
36
34
32
27
22
18
14
13
12
9
5
0
-5
-12
-19
-17
-15
-17
-19
-20
-21
-19
-17
-15
-14
-17
-19
-18
-17
-17
-17
-14
-14
-16
-17
-16
-15
-14
-14
-16
-15
-12
-14
-18
-19
-18
-17
-17
-15
-12
-12
-11
-16
-17
-14
-11
-11
-11
-12
-13
-13
-13
-11
-9
-12
-15
-13
-15
-26
-31
-26
-23
-22
-24
-31
-29
-18
-17
-26
-28
-26
-27
-31
-33
-33
-49
-69
-93
-118
-126
-132
-141
-150
-177
-203
-178
-151
-99
-49
-17
12
24
33
30
27
30
33
31
29
28
23
12
9
18
26
32
33
29
28
30
30
28
27
28
32
37
35
30
31
34
33
30
29
30
30
27
28
29
32
35
33
31
26
21
21
21
19
17
18
16
4
-5
-11
-15
-17
-19
-19
-18
-15
-13
-14
-20
-28
-27
-21
-18
-16
-19
-25
-23
-16
-17
-20
-9
4
-10
5
-30
-33
-23
-13
-20
-27
-23
-19
-23
-26
-21
-17
-16
-15
-15
-15
-15
-14
-11
-12
-19
-19
-10
-9
-16
-15
-6
-11
-25
-29
-28
-24
-20
-18
-16
-21
-30
-29
-26
-29
-34
-30
-25
-27
-29
-26
-23
-26
-31
-45
-62
-88
-110
-123
-134
-138
-152
-184
-200
-191
-160
-104
-55
-13
12
21
26
28
27
23
21
22
24
26
27
28
29
29
29
29
32
36
35
31
33
35
35
35
34
33
31
29
27
26
30
33
34
36
40
42
38
35
34
33
32
32
34
35
35
30
22
12
1
-3
-4
-6
-8
-9
-8
-8
-10
-11
-12
-15
-13
-19
-19
-16
-13
-14
-15
-14
-13
-12
-11
-10
-11
-19
-22
-13
-9
-15
-20
-23
-25
-22
-19
-15
-14
-16
-14
-9
-9
-13
-13
-10
-9
-9
-7
-4
-12
-23
-22
-18
-17
-16
-18
-21
-19
-17
-19
-21
-22
-23
-22
-21
-22
-23
-20
-17
-21
-23
-24
-24
-20
-18
-21
-24
-26
-42
-71
-96
-118
-128
-132
-146
-165
-182
-197
-182
-158
-109
-56
-17
20
32
42
37
29
24
19
27
35
36
37
30
25
25
25
26
27
27
27
28
29
28
29
34
37
38
39
38
37
36
38
44
47
46
40
31
29
30
29
26
27
30
33
36
22
37
8
11
9
7
0
-7
-9
-11
-12
-13
-16
-17
-9
-5
-12
-18
-21
-22
-19
-17
-17
-18
-21
-23
-22
-21
-21
-20
-18
-21
-27
-26
-22
-20
-18
-17
-18
-19
-20
-21
-21
-18
-15
-14
-13
-12
-11
-10
-9
-12
-14
-9
-5
-2
-3
-16
-26
-30
-32
-28
-25
-23
-22
-25
-26
-24
-24
-26
-27
-26
-25
-24
-23
-24
-25
-24
-23
-24
-29
-34
-54
-76
-100
-125
-135
-146
-167
-188
-197
-200
-162
-121
-67
-21
7
28
32
34
30
27
25
23
25
27
30
31
30
31
35
37
37
32
24
26
33
28
19
21
26
29
32
32
30
29
29
31
33
34
35
37
39
38
37
39
39
30
23
25
26
23
20
17
13
7
0
-7
-11
-12
-14
-16
-17
-17
-16
-14
-13
-12
-13
-16
-17
-18
-19
-19
-16
-12
-13
-16
-15
-13
-18
-23
-21
-19
-18
-17
-23
-26
-20
-17
-26
-32
-25
-21
-22
-22
-19
-17
-15
-14
-17
-19
-18
-16
-14
-11
-7
-3
0
-8
-22
-23
-20
-24
-30
-29
-26
-25
-25
-28
-33
-32
-31
-30
-29
-29
-29
-31
-33
-34
-35
-36
-44
-71
-95
-115
-129
-136
-149
-167
-183
-198
-190
-162
-122
-75
-36
-1
15
22
24
22
21
21
20
18
17
18
19
20
24
21
28
27
26
25
21
17
21
25
24
23
24
25
25
26
30
32
28
26
29
31
32
33
34
34
32
34
39
35
25
16
9
9
12
11
8
4
0
-4
-8
-13
-18
-20
-21
-20
-19
-19
-19
-18
-17
-18
-19
-17
-15
-13
-12
-16
-20
-23
-25
-23
-21
-19
-21
-29
-31
-27
-25
-24
-23
-23
-23
-23
-23
-22
-20
-18
-16
-14
-15
-18
-14
-8
-7
-5
-11
-17
-25
-33
-30
-27
-27
-27
-24
-21
-22
-23
-24
-25
-27
-29
-29
-29
-31
-33
-30
-26
-19
-19
-26
-30
-32
-39
-50
-74
-104
-124
-141
-149
-156
-175
-196
-201
-204
-160
-205
-62
-14
15
40
26
13
17
20
14
10
16
21
21
18
9
6
15
21
22
23
20
21
26
25
17
14
16
18
20
21
21
21
21
27
35
32
26
26
28
28
26
17
9
11
13
15
17
11
5
8
8
-6
-17
-18
-19
-21
-23
-24
-22
-14
-15
-31
-37
-33
-26
-17
-15
-19
-24
-29
-32
-34
-29
-20
-21
-27
-31
-34
-30
-24
-23
-23
-27
-33
-33
-33
-27
-21
-23
-25
-23
-21
-17
-15
-25
-32
-27
-22
-19
-18
-22
-25
-25
-25
-28
-29
-30
-32
-34
-35
-34
-31
-28
-29
-34
-35
-36
-36
-34
-34
-36
-36
-34
-32
-33
-27
-26
-60
-92
-107
-121
-125
-131
-144
-161
-186
-200
-181
-151
-102
-58
-22
3
13
19
16
14
11
9
9
11
15
16
14
12
10
16
26
25
18
17
16
15
15
15
16
13
9
12
15
16
17
17
17
18
19
19
19
18
17
17
17
15
13
13
13
11
7
3
0
-2
-4
-7
-9
-10
-13
-17
-22
-27
-30
-32
-31
-28
-27
-27
-27
-27
-27
-25
-26
-27
-26
-25
-24
-23
-24
-25
-26
-27
-27
-27
-27
-26
-21
-18
-22
-25
-25
-25
-22
-24
-31
-30
-19
-18
-24
-27
-28
-25
-19
-19
-22
-25
-28
-30
-32
-29
-24
-23
-23
-25
-25
-25
-25
-31
-37
-35
-34
-40
-45
-42
-39
-38
-37
-37
-39
-45
-62
-95
-119
-134
-143
-148
-161
-179
-191
-200
-179
-141
-96
-49
-16
13
21
24
21
16
15
14
13
14
16
17
18
19
18
17
17
17
21
25
28
31
30
28
21
17
17
18
21
23
22
21
21
23
27
29
28
26
22
21
22
23
22
20
18
14
10
6
2
-1
-4
-7
-11
-17
-23
-25
-27
-29
-31
-30
-29
-29
-29
-29
-29
-29
-29
-28
-27
-28
-29
-28
-27
-24
-23
-22
-23
-29
-31
-30
-27
-23
-22
-24
-29
-35
-32
-25
-21
-18
-23
-30
-26
-31
-23
-27
-24
-21
-21
-21
-20
-19
-22
-25
-25
-26
-32
-36
-32
-29
-29
-29
-29
-29
-30
-31
-30
-29
-30
-31
-31
-33
-37
-36
-31
-36
-46
-65
-85
-106
-126
-137
-146
-153
-160
-183
-205
-193
-178
-127
-78
-35
3
17
29
29
29
28
27
23
23
32
32
19
11
10
9
10
12
15
17
17
17
18
21
24
25
25
25
25
25
24
23
24
26
28
29
29
29
29
28
27
26
25
23
21
17
12
8
5
2
-2
-7
-12
-16
-19
-20
-21
-22
-23
-22
-22
-25
-27
-26
-25
-25
-25
-26
-27
-26
-25
-24
-23
-22
-22
-24
-25
-25
-25
-25
-21
-17
-23
-29
-28
-27
-26
-25
-24
-23
-21
-19
-18
-18
-21
-23
-21
-18
-15
-16
-22
-25
-26
-27
-26
-26
-28
-28
-26
-25
-25
-25
-26
-27
-28
-29
-30
-30
-28
-31
-35
-33
-31
-32
-33
-35
-41
-70
-97
-115
-132
-145
-160
-176
-191
-202
-195
-158
-113
-60
-20
8
22
24
24
21
19
19
19
19
19
20
21
21
21
21
21
22
23
24
25
25
25
25
25
25
27
29
29
29
29
29
29
29
31
33
31
29
29
29
29
29
28
26
23
20
18
16
13
9
5
1
-4
-8
-12
-13
-14
-15
-15
-17
-20
-21
-21
-20
-19
-18
-17
-17
-17
-17
-17
-19
-21
-19
-17
-17
-17
-16
-15
-17
-19
-19
-19
-19
-19
-20
-21
-20
-18
-16
-15
-14
-13
-13
-13
-14
-15
-15
-14
-12
-13
-16
-18
-20
-22
-23
-23
-23
-23
-23
-24
-25
-25
-25
-26
-27
-27
-27
-27
-27
-27
-27
-27
-27
-27
-30
-36
-56
-88
-110
-127
-138
-146
-161
-180
-197
-213
-193
-163
-113
-58
-17
21
29
34
34
31
28
25
25
25
27
29
26
23
23
23
23
24
30
34
31
29
27
26
29
31
30
30
32
33
32
31
32
33
33
33
34
38
44
41
34
33
32
31
30
26
29
19
17
13
9
6
3
-2
-7
-7
-8
-14
-19
-19
-19
-20
-20
-16
-14
-17
-19
-19
-19
-20
-20
-17
-11
-4
-11
-28
-31
-27
-22
-18
-17
-17
-18
-20
-23
-26
-25
-22
-19
-17
-13
-9
-12
-15
-17
-19
-18
-17
-13
-10
-15
-20
-24
-27
-27
-27
-25
-23
-22
-22
-24
-25
-24
-24
-26
-27
-27
-27
-26
-25
-25
-25
-26
-27
-26
-32
-40
-70
-102
-115
-129
-142
-156
-178
-199
-208
-209
-165
-119
-65
-18
12
33
34
34
31
29
29
31
37
40
37
32
26
24
27
28
25
24
26
25
22
21
22
27
34
35
36
34
30
29
29
31
31
33
35
36
37
38
39
37
35
34
33
32
30
26
22
18
12
4
-2
-5
-7
-8
-9
-9
-10
-13
-14
-12
-14
-19
-21
-22
-22
-20
-18
-16
-17
-20
-21
-20
-18
-17
-22
-27
-23
-19
-18
-17
-17
-18
-23
-26
-21
-17
-21
-22
-18
-13
-8
-7
-13
-18
-20
-20
-17
-14
-11
-16
-29
-29
-23
-23
-26
-25
-22
-21
-22
-24
-26
-27
-27
-27
-27
-29
-31
-32
-32
-23
-17
-30
-41
-37
-33
-32
-40
-72
-95
-102
-113
-129
-147
-165
-182
-199
-194
-170
-127
-71
-30
2
15
19
21
22
20
16
14
12
14
18
18
16
12
15
14
21
19
17
22
26
13
3
7
13
22
29
27
23
17
14
20
24
27
29
29
30
32
27
14
10
13
15
16
13
7
6
8
5
0
-3
-6
-13
-20
-20
-18
-17
-17
-16
-15
-17
-19
-19
-19
-18
-18
-24
-29
-27
-25
-26
-25
-19
-16
-20
-23
-24
-25
-25
-25
-24
-24
-26
-27
-26
-25
-24
-20
-16
-15
-15
-18
-22
-21
-18
-17
-18
-16
-11
-18
-25
-25
-25
-24
-23
-25
-27
-25
-23
-25
-27
-26
-25
-25
-25
-25
-26
-29
-31
-30
-29
-30
-27
-19
-20
-28
-45
-66
-84
-99
-106
-110
-123
-138
-163
-190
-185
-176
-130
-175
-43
-5
12
27
24
21
19
17
17
17
19
21
21
21
20
19
18
17
19
21
24
25
24
23
22
22
24
26
28
27
24
23
22
25
30
31
30
25
20
20
22
25
27
23
19
16
13
7
1
-1
-3
-3
-4
-8
-11
-15
-17
-17
-17
-19
-21
-21
-21
-22
-22
-19
-17
-18
-19
-19
-19
-19
-19
-19
-19
-19
-19
-18
-17
-17
-17
-17
-17
-19
-24
-29
-27
-25
-22
-19
-18
-17
-17
-17
-17
-17
-15
-13
-11
-11
-17
-20
-17
-15
-18
-19
-20
-20
-18
-20
-26
-29
-29
-29
-30
-30
-28
-27
-27
-27
-27
-27
-28
-29
-29
-33
-38
-69
-98
-110
-122
-131
-142
-163
-181
-194
-191
-148
-105
-61
-25
-3
16
28
34
31
27
22
20
22
23
23
24
26
27
28
32
37
40
42
34
23
21
21
26
32
36
39
35
31
30
29
33
37
40
43
42
41
38
34
30
27
27
27
25
22
18
14
12
10
8
4
-2
-5
-5
-8
-13
-13
-10
-9
-10
-14
-18
-17
-14
-19
-26
-26
-23
-22
