31
32
33
35
37
40
43
43
43
46
49
51
54
58
61
61
61
63
65
67
69
70
71
70
69
68
67
66
64
62
56
49
42
35
27
19
11
2
-4
-10
-15
-20
-23
-25
-26
-27
-29
-31
-31
-31
-32
-33
-33
-33
-34
-35
-35
-35
-34
-33
-33
-33
-33
-33
-32
-31
-31
-31
-31
-31
-31
-31
-31
-31
-30
-29
-28
-27
-28
-29
-30
-31
-30
-29
-29
-30
-31
-32
-33
-32
-31
-30
-29
-30
-31
-32
-33
-33
-33
-32
-31
-33
-35
-35
-35
-36
-36
-34
-34
-36
-37
-37
-37
-37
-36
-34
-33
-34
-35
-36
-37
-37
-36
-34
-33
-33
-36
-37
-36
-35
-35
-35
-36
-37
-37
-37
-37
-37
-35
-33
-34
-35
-36
-37
-37
-37
-36
-35
-36
-37
-37
-37
-37
-36
-34
-33
-34
-35
-36
-37
-36
-35
-35
-35
-35
-35
-35
-36
-37
-35
-33
-34
-35
-35
-35
-35
-35
-34
-33
-34
-35
-35
-35
-34
-32
-29
-27
-29
-31
-30
-27
-22
-19
-18
-18
-20
-21
-21
-21
-21
-25
-30
-32
-34
-35
-34
-32
-30
-30
-33
-36
-39
-40
-41
-39
-37
-36
-35
-35
-35
-35
-35
-33
-26
-11
9
34
61
91
85
39
-15
-75
-118
-149
-177
-204
-189
-152
-124
-99
-79
-61
-39
-17
-7
0
1
1
1
1
-1
-1
0
1
2
3
3
3
4
5
6
7
8
9
9
9
10
11
11
11
14
15
15
15
15
15
16
19
22
23
24
25
26
28
30
32
34
35
36
38
40
43
45
49
53
54
55
57
59
62
65
67
69
69
69
69
69
70
71
70
68
65
60
54
48
40
33
24
16
8
0
-8
-15
-21
-25
-28
-31
-34
-36
-38
-39
-40
-41
-41
-42
-43
-43
-43
-44
-45
-43
-41
-42
-43
-43
-43
-43
-43
-42
-41
-40
-39
-40
-41
-40
-38
-36
-35
-36
-37
-37
-37
-37
-37
-36
-35
-35
-35
-36
-37
-36
-35
-35
-35
-35
-37
-37
-37
-37
-37
-37
-37
-37
-38
-39
-38
-37
-37
-37
-37
-37
-37
-37
-38
-39
-36
-35
-36
-37
-37
-37
-37
-37
-36
-35
-35
-35
-36
-37
-36
-35
-35
-35
-36
-37
-37
-36
-35
-34
-33
-34
-35
-35
-35
-35
-35
-34
-33
-34
-35
-35
-35
-35
-35
-34
-33
-33
-33
-33
-33
-33
-33
-33
-33
-34
-35
-34
-33
-33
-33
-32
-31
-32
-33
-33
-33
-33
-33
-31
-31
-31
-32
-33
-33
-33
-31
-29
-30
-31
-31
-31
-31
-31
-30
-29
-30
-31
-31
-31
-31
-31
-30
-29
-29
-29
-29
-29
-29
-29
-29
-29
-30
-31
-31
-31
-31
-30
-28
-27
-27
-30
-31
-30
-29
-28
-27
-27
-27
-28
-29
-27
-25
-23
-21
-22
-23
-23
-21
-15
-11
-11
-11
-12
-13
-14
-15
-15
-17
-20
-23
-27
-29
-28
-26
-24
-23
-24
-28
-32
-33
-34
-34
-33
-31
-29
-29
-29
-29
-29
-28
-24
-6
14
41
68
91
86
27
-31
-86
-129
-157
-182
-206
-196
-157
-126
-99
-76
-54
-33
-13
-4
1
3
3
3
3
3
2
2
4
5
7
7
7
7
7
8
9
11
13
13
13
13
13
13
14
17
19
19
19
18
18
21
24
26
27
27
27
28
30
32
35
38
39
40
42
44
46
48
52
56
57
57
61
63
66
69
71
73
74
75
75
75
75
75
75
74
69
63
56
48
40
31
22
13
4
-5
-12
-18
-23
-26
-28
-31
-35
-38
-40
-41
-41
-41
-41
-41
-42
-43
-43
-43
-43
-43
-43
-43
-43
-44
-45
-44
-43
-42
-41
-41
-41
-42
-43
-41
-39
-38
-37
-38
-39
-39
-39
-38
-37
-37
-37
-37
-37
-38
-39
-38
-37
-37
-37
-37
-37
-38
-39
-39
-39
-39
-39
-39
-40
-41
-40
-39
-39
-39
-40
-41
-41
-41
-40
-39
-40
-41
-40
-39
-41
-43
-40
-39
-39
-39
-39
-39
-39
-39
-38
-37
-37
-37
-38
-39
-39
-39
-39
-39
-38
-37
-37
-37
-37
-37
-37
-36
-35
-36
-37
-37
-37
-37
-37
-36
-35
-35
-35
-35
-35
-35
-35
-34
-33
-34
-35
-35
-35
-35
-35
-34
-33
-33
-34
-36
-37
-36
-34
-32
-32
-34
-35
-35
-35
-35
-33
-31
-32
-33
-33
-33
-32
-31
-30
-29
-30
-31
-31
-31
-31
-31
-30
-29
-28
-27
-27
-27
-27
-24
-18
-15
-14
-15
-18
-19
-18
-17
-16
-18
-22
-27
-32
-31
-28
-27
-25
-27
-29
-32
-35
-35
-35
-34
-33
-32
-31
-31
-31
-30
-29
-28
-24
-15
0
23
53
92
92
57
6
-55
-99
-132
-165
-197
-188
-162
-137
-112
-93
-76
-55
-34
-18
-2
0
-1
3
3
3
3
4
5
5
5
5
5
6
7
10
13
12
11
11
11
12
13
14
15
16
17
17
17
18
20
22
23
23
23
24
25
26
28
30
32
34
35
35
38
41
44
47
49
51
54
57
58
59
62
65
66
67
67
67
68
69
70
71
70
68
65
61
56
50
44
35
25
16
8
1
-5
-9
-12
-16
-20
-24
-28
-29
-29
-29
-31
-32
-33
-35
-37
-36
-35
-34
-33
-34
-35
-36
-37
-36
-35
-34
-33
-33
-33
-34
-35
-34
-32
-30
-29
-30
-31
-31
-31
-30
-29
-29
-29
-29
-29
-30
-31
-31
-30
-28
-27
-27
-31
-33
-32
-31
-30
-29
-30
-31
-32
-33
-33
-33
-32
-31
-31
-31
-32
-33
-32
-31
-31
-31
-32
-33
-33
-33
-33
-33
-32
-31
-31
-31
-31
-31
-31
-31
-30
-29
-30
-31
-32
-32
-31
-30
-29
-30
-31
-31
-31
-31
-31
-30
-29
-29
-29
-31
-33
-31
-29
-29
-29
-30
-31
-31
-31
-30
-29
-29
-29
-29
-29
-29
-29
-29
-29
-28
-27
-26
-25
-25
-25
-24
-19
-13
-13
-13
-15
-17
-15
-13
-13
-13
-17
-22
-27
-31
-28
-25
-24
-23
-25
-28
-31
-33
-33
-32
-30
-29
-30
-31
-30
-29
-28
-27
-26
-25
-24
-6
15
47
79
89
96
38
97
-63
-102
-138
-171
-177
-179
-150
-122
-102
-84
-67
-49
-27
-9
-2
3
4
5
5
5
5
5
6
7
6
6
8
9
10
11
10
9
10
12
14
15
16
17
16
15
16
17
17
20
23
22
21
22
23
25
27
29
31
32
33
33
33
35
38
42
45
46
48
50
52
55
58
61
63
64
65
65
66
68
69
70
71
70
68
66
63
60
54
47
39
31
21
11
5
-1
-6
-11
-15
-19
-22
-25
-26
-27
-28
-29
-31
-33
-34
-35
-35
-34
-32
-31
-32
-33
-34
-35
-34
-33
-32
-31
-31
-31
-32
-33
-32
-31
-30
-29
-29
-29
-29
-28
-27
-27
-27
-27
-27
-27
-27
-27
-27
-27
-27
-27
-27
-28
-29
-28
-27
-27
-27
-28
-29
-30
-31
-30
-29
-28
-27
-28
-29
-29
-29
-29
-29
-28
-27
-28
-29
-29
-30
-31
-29
-27
-28
-29
-29
-29
-29
-29
-29
-29
-29
-29
-30
-31
-30
-29
-28
-27
-28
-29
-29
-29
-28
-27
-27
-27
-28
-29
-29
-29
-28
-27
-26
-25
-26
-27
-27
-27
-27
-27
-25
-26
-27
-27
-27
-27
-27
-26
-25
-25
-25
-26
-27
-26
-25
-24
-23
-24
-25
-25
-25
-25
-25
-24
-23
-23
-23
-24
-25
-24
-23
-23
-23
-23
-23
-24
-25
-24
-23
-22
-21
-21
-22
-23
-22
-21
-21
-21
-22
-23
-23
-23
-21
-19
-18
-17
-17
-16
-10
-7
-6
-5
-6
-7
-7
-8
-10
-13
-17
-19
-20
-21
-21
-21
-20
-20
-22
-24
-26
-27
-28
-29
-29
-27
-25
-24
-23
-23
-23
-23
-22
-10
4
30
58
93
103
58
5
-64
-116
-143
-170
-196
-191
-154
-123
-96
-73
-53
-31
-9
2
7
9
9
9
10
11
10
9
10
11
12
13
15
14
13
14
15
16
17
19
21
19
17
19
21
22
23
25
27
27
27
27
27
30
32
34
35
35
35
36
38
40
43
48
49
50
52
54
57
60
63
66
68
67
71
71
74
77
79
81
82
83
82
81
80
79
76
71
65
58
50
41
31
22
15
7
-1
-8
-14
-18
-21
-23
-24
-26
-28
-30
-32
-33
-33
-33
-33
-33
-34
-35
-35
-35
-35
-34
-33
-34
-35
-35
-35
-34
-33
-32
-31
-31
-31
-32
-33
-32
-31
-30
-29
-30
-31
-30
-29
-29
-29
-28
-27
-28
-29
-29
-29
-29
-29
-29
-29
-29
-29
-30
-31
-31
-31
-29
-30
-31
-32
-33
-33
-33
-32
-31
-31
-31
-32
-33
-32
-31
-31
-31
-31
-31
-32
-33
-32
-31
-30
-29
-30
-31
-31
-31
-31
-31
-31
-31
-31
-31
-32
-33
-32
-30
-28
-28
-27
-31
-31
-31
-31
-30
-29
-30
-31
-32
-33
-32
-31
-30
-29
-28
-27
-29
-31
-30
-29
-29
-29
-29
-29
-30
-31
-30
-29
-28
-27
-27
-27
-28
-29
-29
-29
-28
-27
-27
-27
-27
-27
-27
-27
-27
-27
-27
-28
-29
-29
-29
-27
-25
-26
-27
-27
-27
-27
-27
-26
-25
-26
-27
-26
-25
-26
-27
-26
-25
-25
-25
-26
-27
-26
-25
-24
-23
-24
-25
-25
-24
-22
-21
-19
-19
-19
-15
-11
-9
-7
-7
-7
-8
-9
-11
-14
-18
-21
-23
-25
-24
-23
-23
-23
-23
-24
-26
-27
-28
-29
-29
-29
-28
-26
-24
-23
-24
-25
-25
-17
-6
17
41
78
43
81
44
-25
-91
-121
-152
-187
-213
-190
-164
-131
-101
-79
-55
-31
-11
0
7
9
11
10
9
9
9
8
8
10
11
12
13
13
13
14
15
16
17
18
19
18
17
18
21
23
24
25
25
25
26
27
28
29
31
33
34
35
36
37
39
42
45
47
49
51
52
55
59
62
64
66
68
69
70
72
74
76
78
79
80
81
81
81
81
80
77
70
63
56
48
38
28
20
12
5
-2
-8
-14
-18
-21
-23
-25
-27
-29
-31
-33
-34
-35
-34
-33
-34
-35
-35
-35
-35
-35
-34
-33
-34
-35
-35
-35
-35
-34
-32
-31
-31
-31
-31
-31
-31
-30
-29
-30
-31
-31
-31
-31
-31
-29
-27
-27
-27
-28
-29
-28
-27
-27
-27
-28
-29
-30
-31
-31
-31
-30
-29
-30
-31
-32
-32
-30
-29
-29
-29
-30
-31
-31
-31
-31
-30
-29
-29
-29
-30
-31
-31
-31
-30
-29
-29
-29
-30
-31
-31
-31
-29
-27
-28
-29
-30
-31
-30
-29
-29
-29
-28
-27
-28
-29
-28
-27
-27
-27
-27
-27
-28
-29
-28
-27
-25
-26
-27
-27
-27
-27
-27
-26
-25
-25
-25
-26
-27
-26
-25
-25
-25
-25
-25
-26
-27
-27
-26
-24
-23
-24
-25
-25
-25
-25
-25
-24
-23
-24
-25
-25
-25
-25
-24
-22
-21
-21
-24
-25
-24
-23
-22
-21
-22
-23
-24
-25
-24
-23
-22
-21
-20
-19
-20
-21
-19
-16
-11
-8
-6
-6
-9
-10
-8
-7
-7
-9
-13
-18
-22
-23
-22
-20
-18
-18
-20
-24
-28
-28
-27
-26
-25
-25
-25
-25
-25
-23
-21
-20
-17
-8
6
28
56
93
103
74
30
-30
-75
-105
-140
-180
-184
-160
-135
-109
-89
-70
-49
-26
-9
6
9
10
11
10
9
9
10
13
12
11
11
11
12
13
14
15
15
15
15
15
17
19
20
21
21
21
20
19
22
23
24
25
25
25
26
29
32
34
36
37
37
37
38
41
44
46
48
50
49
55
57
60
63
64
65
67
69
69
69
70
71
72
73
72
70
66
62
58
51
42
33
25
17
10
4
-2
-7
-11
-15
-19
-22
-24
-25
-26
-27
-28
-29
-30
-31
-31
-31
-31
-30
-29
-31
-33
-32
-31
-31
-31
-30
-29
-29
-29
-30
-31
-30
-29
-28
-27
-27
-27
-28
-29
-29
-29
-28
-27
-27
-27
-27
-27
-28
-29
-28
-27
-28
-29
-29
-29
-29
-29
-27
-29
-31
-32
-33
-32
-31
-30
-29
-30
-31
-31
-31
-31
-31
-30
-29
-30
-31
-31
-31
-32
-33
-32
-31
-31
-31
-31
-31
-31
-31
-31
-31
-32
-33
-32
-31
-31
-31
-30
-29
-29
-31
-31
-30
-29
-29
-29
-30
-31
-32
-33
-32
-31
-30
-29
-30
-31
-31
-31
-30
-29
-28
-27
-28
-29
-30
-31
-30
-29
-28
-27
-28
-29
-30
-31
-30
-29
-28
-27
-28
-29
-29
-28
-27
-25
-23
-24
-25
-24
-23
-17
-13
-12
-11
-14
-17
-16
-15
-16
-18
-22
-25
-27
-29
-29
-28
-26
-26
-28
-30
-32
-33
-34
-35
-34
-33
-32
-31
-31
-31
-31
-30
-28
-22
-15
7
31
63
93
84
68
4
-54
-88
-125
-166
-192
-178
-160
-131
-107
-89
-72
-54
-36
-17
-5
-1
1
1
1
0
-1
0
1
1
2
4
5
5
5
5
5
5
6
5
9
9
10
11
12
13
13
13
13
13
14
15
17
19
19
19
20
21
23
25
28
30
32
33
33
34
37
41
44
46
48
50
52
54
56
58
60
61
62
63
63
63
63
64
65
61
57
51
44
38
32
24
15
6
-3
-11
-18
-23
-27
-29
-32
-35
-38
-40
-41
-41
-41
-40
-40
-42
-43
-43
-43
-43
-43
-43
-43
-43
-43
-43
-43
-42
-41
-41
-41
-41
-42
-43
-42
-41
-40
-39
-39
-39
-39
-39
-38
-37
-37
-37
-38
-39
-39
-39
-38
-37
-37
-37
-38
-39
-39
-39
-39
-39
-38
-37
-38
-39
-40
-41
-41
-41
-41
-41
-41
-41
-43
-42
-41
-40
-39
-39
-39
-40
-41
-41
-41
-40
-39
-40
-41
-40
-39
-39
-39
-39
-39
-39
-39
-40
-41
-41
-40
-38
-38
-40
-41
-41
-41
-40
-39
-38
-37
-38
-39
-39
-39
-39
-38
-37
-37
-37
-38
-39
-39
-39
-38
-37
-37
-37
-38
-39
-39
-39
-38
-37
-37
-37
-38
-39
-38
-37
-36
-35
-36
-37
-37
-37
-37
-36
-34
-34
-36
-37
-37
-37
-36
-35
-35
-35
-35
-36
-37
-37
-37
-35
-33
-33
-33
-32
-31
-31
-30
-26
-23
-21
-19
-20
-21
-24
-25
-24
-24
-26
-30
-35
-37
-36
-34
-32
-31
-31
-33
-36
-38
-40
-40
-38
-37
-37
-39
-39
-38
-37
-35
-33
-26
-17
8
36
76
97
69
26
-46
-101
-130
-161
-195
-207
-194
-171
-139
-113
-90
-67
-44
-25
-8
-3
-3
-3
-4
-5
-4
-3
-2
-1
-1
-1
-1
0
1
3
5
5
5
5
5
6
7
8
9
10
11
10
9
11
13
14
15
16
17
18
20
22
23
24
26
28
30
32
34
36
40
44
46
48
49
50
54
58
60
63
64
65
66
67
67
67
69
71
69
66
62
58
52
44
35
26
18
10
2
-6
-13
-19
-23
-27
-33
-36
-39
-41
-42
-43
-43
-44
-46
-47
-47
-47
-46
-45
-45
-45
-45
-46
-47
-46
-45
-43
-41
-43
-45
-45
-45
-44
-43
-41
-39
-40
-41
-41
-41
-41
-41
-38
-37
-38
-39
-40
-41
-40
-39
-38
-37
-38
-39
-39
-39
-40
-41
-40
-39
-39
-39
-40
-40
-39
-39
-39
-40
-41
-41
-41
-41
-41
-40
-39
-40
-41
-41
-41
-40
-39
-38
-37
-38
-39
-39
-39
-39
-39
-38
-37
-38
-39
-40
-41
-40
-39
-38
-37
-38
-39
-38
-37
-37
-37
-37
-37
-37
-37
-37
-37
-37
-36
-35
-36
-37
-37
-37
-36
-35
-35
-35
-35
-35
-36
-37
-37
-36
-34
-33
-34
-35
-35
-35
-34
-33
-34
-35
-35
-35
-35
-35
-34
-33
-32
-31
-31
-33
-33
-33
-33
-32
-31
-32
-33
-33
-33
-33
-33
-32
-31
-31
-31
-31
-31
-30
-29
-29
-29
-29
-29
-30
-31
-30
-29
-29
-29
-30
-31
-30
-28
-26
-24
-22
-21
-22
-19
-14
-12
-11
-12
-13
-13
-13
-15
-17
-21
-25
-26
-27
-26
-25
-24
-23
-25
-27
-29
-31
-32
-33
-33
-33
-32
-30
-28
-27
-28
-29
-28
-18
-6
17
42
74
108
78
37
-29
-96
-126
-155
-188
-218
-186
-154
-125
-96
-73
-51
-27
-7
1
7
8
9
9
9
9
9
8
7
8
10
12
13
13
13
13
14
16
17
17
17
18
19
19
20
22
23
24
25
25
26
27
29
31
32
33
35
37
37
37
40
43
46
49
50
52
55
58
61
63
64
66
69
71
72
74
76
78
80
81
82
83
82
81
80
76
72
65
58
49
40
30
21
13
5
0
-5
-11
-17
-20
-23
-24
-25
-27
-29
-31
-33
-33
-33
-32
-31
-32
-33
-33
-33
-33
-33
-33
-33
-32
-31
-32
-32
-30
-29
-29
-29
-29
-29
-29
-29
-28
-27
-25
-26
-27
-27
-27
-26
-25
-25
-25
-25
-25
-25
-25
-25
-25
-25
-25
-26
-27
-28
-29
-28
-27
-27
-27
-28
-29
-29
-29
-28
-27
-27
-27
-28
-29
-29
-29
-28
-27
-27
-27
-27
-27
-27
-27
-27
-26
-25
-26
-27
-28
-29
-28
-27
-26
-25
-25
-25
-26
-27
-26
-25
-25
-25
-25
-25
-25
-25
-25
-25
-24
-23
-24
-25
-25
-25
-24
-23
-23
-23
-23
-23
-24
-24
-23
-21
-19
-21
-23
-23
-23
-22
-21
-20
-19
-20
-21
-22
-23
-22
-21
-20
-19
-20
-21
-21
-21
-20
-19
-19
-19
-19
-19
-19
-19
-18
-16
-14
-13
-12
-9
-6
-5
-4
-3
-3
-4
-5
-7
-9
-14
-19
-18
-17
-16
-15
-16
-17
-18
-19
-21
-23
-24
-25
-24
-23
-22
-20
-18
-17
-17
-17
-16
-1
20
48
78
95
110
64
4
-41
-84
-123
-161
-170
-163
-147
-115
-94
-74
-56
-38
-17
2
8
13
13
13
14
15
14
13
13
13
14
15
16
17
17
17
18
19
20
21
21
21
21
21
22
23
24
25
26
27
28
29
29
30
31
34
37
37
37
38
39
41
43
46
49
49
49
51
54
57
60
63
65
65
66
68
70
73
75
76
77
77
77
76
75
74
72
70
64
56
47
38
32
26
19
11
5
-1
-7
-13
-16
-19
-19
-19
-22
-25
-25
-25
-26
-27
-26
-25
-27
-29
-30
-31
-30
-29
-28
-27
-27
-27
-27
-27
-27
-26
-24
-23
-24
-25
-26
-27
-26
-25
-24
-23
-23
-25
-25
-25
-25
-24
-23
-24
-25
-25
-25
-26
-27
-26
-25
-25
-25
-27
-29
-28
-27
-26
-26
-28
-29
-29
-29
-29
-29
-28
-27
-28
-29
-29
-29
-28
-27
-28
-29
-29
-29
-29
-29
-29
-28
-27
-28
-29
-29
-29
-29
-29
-28
-27
-28
-29
-29
-29
-28
-27
-28
-29
-28
-27
-28
-29
-28
-27
-27
-27
-27
-27
-28
-29
-28
-27
-27
-27
-27
-27
-28
-28
-26
-25
-23
-24
-25
-23
-21
-17
-13
-12
-11
-12
-13
-14
-15
-16
-18
-23
-27
-28
-29
-28
-27
-27
-27
-28
-30
-33
-35
-35
-35
-34
-32
-30
-29
-30
-31
-30
-29
-28
-20
-12
9
-11
66
101
86
68
7
-49
-83
-118
-159
-190
-184
-171
-139
-112
-94
-77
-60
-40
-19
-5
0
2
0
-1
-1
-1
-1
0
2
3
4
5
4
3
4
5
6
7
7
7
8
10
11
11
11
12
13
13
13
15
17
18
19
20
21
21
21
23
26
29
31
31
32
34
36
39
42
44
46
48
49
50
51
52
55
58
59
60
61
61
61
61
61
63
58
53
48
43
37
30
22
14
6
-2
-8
-14
-18
-22
-26
-30
-33
-35
-37
-39
-40
-41
-40
-39
-40
-41
-42
-43
-42
-41
-41
-41
-41
-41
-41
-41
-41
-41
-40
-39
-39
-39
-39
-38
-37
-36
-35
-36
-37
-38
-39
-38
-37
-35
-33
-34
-35
-36
-37
-36
-35
-36
-37
-36
-35
-36
-37
-37
-37
-36
-35
-36
-37
-38
-39
-39
-39
-38
-37
-37
-37
-38
-39
-39
-38
-37
-38
-39
-39
-39
-38
-37
-37
-37
-38
-39
-39
-39
-38
-37
-36
-35
-36
-37
-37
-37
-37
-37
-36
-35
-36
-37
-37
-37
-37
-37
-36
-35
-35
-35
-36
-37
-36
-35
-33
-34
-35
-35
-35
-35
-35
-34
-33
-33
-33
-34
-35
-35
-35
-33
-31
-32
-33
-33
-33
-33
-33
-32
-31
-32
-33
-33
-33
-32
-31
-31
-31
-31
-31
-31
-31
-32
-32
-30
-29
-29
-29
-29
-27
-25
-25
-25
-24
-23
-19
-15
-15
-15
-15
-15
-16
-18
-21
-24
-28
-31
-30
-29
-28
-27
-27
-28
-30
-32
-34
-35
-35
-35
-35
-34
-32
-30
-28
-27
-28
-28
-26
-3
19
51
81
87
85
20
-42
-87
-129
-157
-181
-193
-190
-154
-123
-99
-76
-52
-31
-13
-2
1
3
4
5
5
5
5
5
5
6
8
10
12
12
10
10
12
13
14
15
15
16
17
17
17
18
19
20
21
22
23
24
25
26
28
31
33
33
33
34
36
39
42
45
47
48
50
52
55
58
61
64
65
66
67
68
70
72
74
76
77
77
76
75
72
69
63
57
50
44
35
25
16
8
2
-5
-12
-18
-22
-26
-29
-31
-31
-32
-34
-36
-38
-39
-39
-39
-38
-37
-38
-39
-39
-39
-39
-39
-38
-37
-37
-37
-36
-36
-37
-35
-33
-34
-35
-34
-33
-33
-33
-32
-31
-31
-31
-31
-31
-31
-31
-30
-29
-30
-31
-32
-33
-32
-31
-32
-33
-33
-33
-34
-35
-35
-35
-34
-33
-34
-35
-35
-35
-35
-35
-35
-35
-35
-35
-35
-35
-35
-34
-33
-33
-33
-34
-35
-35
-35
-33
-31
-32
-33
-33
-33
-33
-33
-32
-31
-32
-33
-33
-33
-33
-33
-32
-31
-32
-33
-33
-33
-33
-33
-32
-31
-31
-32
-33
-31
-29
-29
-29
-29
-29
-31
-33
-32
-31
-30
-29
-29
-29
-30
-31
-31
-31
-28
-27
-28
-29
-29
-29
-29
-29
-28
-27
-28
-29
-28
-27
-27
-27
-27
-27
-27
-27
-28
-28
-27
-26
-25
-25
-25
-26
-27
-26
-25
-24
-23
-22
-21
-22
-22
-19
-15
-10
-7
-8
-10
-13
-15
-14
-13
-13
-16
-23
-25
-26
-27
-26
-24
-22
-22
-24
-27
-30
-31
-31
-31
-29
-29
-29
-29
-29
-28
-27
-25
-20
-4
16
47
75
95
89
28
-30
-85
-129
-158
-182
-203
-194
-157
-127
-103
-81
-62
-39
-14
-2
7
9
9
8
6
5
5
7
10
11
11
10
11
12
13
15
17
15
13
15
17
17
17
19
21
21
21
21
21
23
25
28
29
29
29
29
30
32
35
38
39
40
42
44
47
50
53
56
58
60
61
62
66
69
72
75
76
77
77
77
78
79
80
81
79
76
71
65
59
53
45
37
27
17
9
3
-2
-8
-13
-17
-21
-24
-26
-28
-30
-31
-31
-31
-32
-33
-34
-35
-35
-35
-35
-36
-37
-37
-37
-36
-35
-33
-31
-32
-33
-33
-33
-32
-31
-30
-29
-29
-29
-30
-31
-30
-29
-29
-29
-29
-29
-29
-29
-29
-29
-28
-27
-28
-29
-30
-31
-31
-31
-30
-29
-29
-32
-33
-31
-29
-29
-29
-30
-31
-32
-33
-32
-31
-30
-29
-30
-31
-32
-33
-32
-31
-31
-31
-30
-29
-30
-31
-31
-31
-30
-29
-30
-31
-31
-31
-31
-31
-30
-29
-29
-29
-30
-30
-29
-28
-27
-28
-29
-29
-29
-29
-29
-28
-27
-28
-29
-29
-29
-29
-29
-28
-27
-27
-27
-27
-27
-27
-27
-26
-26
-28
-29
-28
-27
-27
-27
-26
-25
-26
-27
-27
-27
-27
-27
-25
-25
-25
-27
-29
-27
-25
-24
-23
-24
-25
-25
-25
-24
-23
-21
-19
-20
-21
-20
-17
-12
-9
-8
-7
-8
-9
-10
-11
-12
-16
-21
-23
-24
-25
-24
-23
-23
-23
-24
-27
-25
-31
-31
-30
-29
-28
-27
-26
-25
-26
-27
-25
-19
-1
18
39
64
96
95
46
-5
-57
-99
-132
-164
-196
-190
-158
-130
-103
-83
-66
-45
-22
-9
3
6
8
8
6
5
5
6
7
9
11
10
9
10
11
11
11
13
15
15
15
14
13
14
15
17
19
19
19
19
20
22
23
24
25
26
27
28
30
32
34
36
38
40
41
42
45
48
50
53
55
57
58
59
61
63
66
69
69
69
69
69
70
71
70
68
64
59
53
46
37
29
21
13
6
-1
-8
-13
-16
-19
-22
-26
-30
-32
-34
-35
-35
-35
-34
-33
-33
-36
-37
-36
-35
-35
-35
-36
-37
-36
-35
-34
-33
-33
-33
-33
-33
-33
-33
-32
-31
-31
-31
-31
-31
-32
-33
-32
-31
-30
-29
-30
-31
-32
-33
-33
-33
-32
-31
-32
-33
-34
-34
-33
-32
-31
-33
-35
-36
-37
-36
-35
-35
-35
-35
-35
-36
-37
-37
-37
-36
-35
-36
-37
-38
-39
-38
-37
-36
-35
-36
-37
-38
-39
-38
-37
-36
-35
-36
-37
-37
-37
-36
-35
-35
-35
-35
-36
-37
-36
-35
-35
-35
-35
-35
-36
-37
-36
-35
-35
-35
-35
-35
-35
-35
-36
-36
-34
-33
-34
-35
-36
-36
-34
-33
-33
-33
-33
-33
-34
-34
-32
-31
-30
-29
-29
-25
-21
-19
-17
-18
-19
-19
-19
-20
-21
-24
-27
-30
-33
-32
-31
-31
-31
-31
-32
-35
-37
-37
-37
-38
-39
-38
-36
-34
-33
-33
-33
-33
-31
-28
-8
16
41
67
82
96
38
-22
-65
-108
-153
-193
-187
-176
-145
-117
-99
-81
-63
-45
-25
-10
-5
-1
0
1
0
-1
-1
-1
0
2
4
5
4
3
3
4
6
7
8
9
9
9
9
10
12
13
15
15
15
16
17
18
19
21
23
23
23
24
25
28
31
33
35
36
37
38
40
43
46
49
51
52
54
56
58
60
61
62
63
63
63
63
63
62
61
61
58
61
47
41
34
27
17
9
2
-4
-11
-17
-22
-25
-27
-29
-31
-33
-35
-37
-38
-39
-38
-37
-38
-39
-39
-39
-40
-41
-40
-39
-39
-39
-39
-39
-39
-39
-38
-37
-37
-37
-37
-37
-37
-36
-35
-34
-33
-34
-35
-35
-35
-34
-33
-33
-33
-33
-33
-34
-35
-34
-33
-33
-34
-36
-37
-36
-35
-35
-35
-35
-35
-36
-37
-38
-37
-34
-33
-34
-35
-36
-37
-36
-35
-35
-35
-35
-36
-37
-37
-37
-36
-35
-35
-35
-35
-35
-35
-35
-34
-33
-34
-35
-36
-37
-36
-34
-32
-31
-32
-33
-34
-35
-34
-33
-32
-31
-32
-33
-33
-33
-33
-33
-32
-31
-31
-32
-33
-32
-31
-30
-29
-30
-31
-32
-33
-32
-31
-29
-27
-28
-29
-29
-29
-29
-29
-29
-29
-29
-29
-29
-29
-28
-27
-26
-25
-26
-27
-27
-27
-27
-27
-26
-25
-26
-27
-27
-26
-25
-24
-23
-24
-25
-25
-25
-23
-21
-19
-17
-19
-21
-17
-14
-10
-7
-7
-7
-8
-10
-12
-13
-14
-17
-21
-23
-23
-23
-22
-21
-21
-22
-24
-26
-28
-29
-29
-29
-28
-27
-25
-25
-25
-24
-23
-21
-16
8
33
65
90
94
77
10
-51
-98
-137
-165
-185
-197
-184
-144
-112
-86
-62
-40
-20
-2
7
10
11
11
11
11
11
10
10
12
13
14
15
15
15
15
16
17
19
21
21
21
21
21
22
23
25
27
27
27
28
29
29
30
33
35
36
37
38
40
42
45
48
49
50
53
56
58
60
63
66
68
70
71
72
75
77
80
83
84
85
85
85
85
85
82
78
70
63
55
47
38
31
23
16
8
1
-4
-9
-13
-16
-18
-21
-25
-28
-30
-31
-31
-31
-30
-29
-30
-31
-32
-33
-32
-31
-29
-30
-31
-31
-31
-31
-31
-30
-29
-29
-29
-29
-29
-28
-27
-26
-25
-25
-25
-25
-25
-25
-25
-25
-25
-25
-25
-25
-25
-25
-25
-25
-25
-26
-27
-27
-27
-27
-26
-24
-24
-23
-27
-27
-27
-27
-27
-27
-27
-27
-27
-27
-27
-27
-26
-25
-26
-27
-27
-27
-26
-25
-25
-25
-25
-25
-26
-27
-26
-25
-24
-23
-24
-25
-26
-27
-26
-25
-24
-23
-24
-25
-25
-25
-25
-24
-23
-23
-23
-24
-25
-24
-23
-22
-21
-22
-23
-23
-23
-23
-23
-21
-19
-20
-21
-22
-23
-22
-21
-20
-19
-20
-21
-22
-23
-22
-21
-20
-19
-20
-21
-21
-21
-20
-19
-19
-20
-21
-22
-23
-21
-19
-18
-17
-18
-19
-20
-21
-20
-19
-17
-15
-17
-19
-19
-19
-19
-18
-16
-15
-16
-17
-18
-19
-18
-17
-17
-17
-16
-15
-14
-13
-13
-10
-6
-4
-5
-1
-1
-2
-3
-3
-3
-5
-8
-14
-19
-18
-17
-15
-13
-14
-16
-19
-21
-22
-23
-23
-23
-22
-21
-21
-21
-21
-19
-16
-15
-14
2
22
52
84
96
105
43
-30
-81
-130
-164
-197
-192
-185
-149
-115
-92
-70
-48
-27
-7
9
12
15
15
15
14
13
15
17
18
19
18
18
20
21
22
23
23
23
22
22
24
25
26
27
28
29
28
28
30
31
33
34
35
36
37
37
37
40
43
44
45
47
49
49
50
55
59
60
61
63
65
68
70
73
76
78
79
80
82
84
86
88
89
88
87
86
82
78
74
70
62
69
43
33
25
17
9
1
-4
-9
-13
-17
-22
-25
-25
-25
-26
-27
-28
-29
-30
-31
-30
-29
-29
-29
-30
-31
-32
-32
-30
-29
-29
-29
-29
-29
-28
-27
-27
-27
-27
-27
-26
-26
-27
-26
-25
-26
-27
-28
-29
-28
-27
-26
-25
-26
-27
-27
-27
-28
-29
-27
-25
-26
-27
-28
-29
-28
-27
-27
-27
-28
-29
-30
-31
-30
-29
-29
-29
-29
-29
-29
-29
-29
-29
-29
-28
-27
-29
-31
-30
-29
-28
-27
-27
-27
-28
-29
-28
-27
-27
-27
-28
-29
-29
-29
-28
-27
-27
-27
-27
-27
-27
-27
-27
-27
-26
-25
-26
-27
-28
-29
-28
-27
-26
-25
-25
-28
-29
-28
-27
-26
-25
-26
-27
-27
-27
-26
-25
-24
-23
-25
-27
-27
-27
-26
-25
-25
-25
-25
-25
-25
-25
-25
-25
-24
-23
-24
-25
-26
-26
-24
-23
-23
-23
-23
-23
-23
-21
-19
-19
-19
-18
-17
-13
-9
-8
-7
-8
-9
-9
-9
-11
-15
-21
-25
-23
-21
-21
-21
-22
-23
-24
-25
-26
-27
-28
-29
-29
-29
-28
-26
-24
-23
-23
-23
-23
-11
2
24
47
83
115
81
43
-18
-73
-99
-129
-169
-195
-175
-153
-126
-101
-81
-61
-40
-20
-4
5
6
7
8
9
9
9
9
9
10
11
12
13
13
13
13
13
13
14
16
17
17
17
17
19
21
22
23
24
25
24
23
25
27
29
31
32
33
34
35
37
40
43
45
46
48
51
54
56
59
63
65
65
65
66
68
70
71
72
73
74
75
75
72
69
67
65
57
48
40
32
24
16
10
4
-2
-8
-13
-17
-19
-21
-22
-23
-25
-27
-28
-29
-30
-31
-30
-29
-29
-30
-32
-32
-30
-29
-28
-27
-28
-29
-29
-29
-28
-27
-27
-27
-27
-27
-27
-26
-25
-25
-25
-25
-25
-25
-25
-25
-25
-25
-25
-25
-25
-26
-27
-26
-25
-24
-24
-26
-27
-28
-29
-28
-27
-28
-29
-29
-29
-29
-29
-29
-29
-28
-27
-27
-30
-31
-30
-29
-28
-27
-28
-29
-30
-31
-30
-29
-28
-27
-27
-27
-28
-29
-29
-29
-28
-27
-28
-29
-29
-29
-28
-27
-26
-25
-26
-27
-27
-27
-27
-27
-26
-25
-26
-27
-27
-27
-27
-26
-25
-25
-25
-26
-27
-26
-25
-25
-25
-26
-27
-27
-27
-27
-26
-23
-21
-20
-20
-22
-22
-19
-14
-9
-7
-8
-10
-12
-13
-12
-11
-12
-18
-24
-25
-26
-26
-24
-23
-21
-24
-27
-29
-31
-31
-31
-29
-27
-27
-27
-27
-27
-26
-25
-23
-15
1
22
49
76
104
89
36
-16
-67
-109
-145
-170
-189
-172
-139
-116
-95
-77
-60
-37
-14
-4
4
5
5
4
3
4
5
6
7
7
7
7
7
8
9
10
11
12
13
13
13
14
15
16
17
17
17
18
19
19
21
24
25
25
25
26
27
28
30
32
34
36
37
38
41
43
47
51
52
53
55
57
59
61
63
65
65
65
65
65
67
69
70
70
67
64
61
56
50
43
36
28
18
10
2
-4
-9
-14
-18
-21
-24
-28
-32
-33
-33
-33
-33
-35
-37
-38
-39
-39
-39
-38
-37
-37
-37
-38
-39
-38
-37
-36
-35
-36
-37
-36
-35
-36
-36
-34
-33
-33
-33
-34
-34
-32
-31
-31
-31
-32
-33
-33
-33
-33
-33
-32
-31
-31
-34
-35
-34
-33
-33
-33
-34
-35
-36
-37
-36
-35
-35
-35
-35
-35
-36
-37
-36
-35
-34
-33
-34
-35
-35
-35
-35
-35
-34
-33
-34
-35
-34
-33
-33
-33
-32
-31
-32
-33
-33
-33
-33
-32
-31
-31
-31
-31
-31
-32
-33
-32
-31
-31
-31
-31
-31
-31
-31
-30
-29
-30
-31
-31
-31
-31
-31
-30
-29
-29
-29
-30
-31
-30
-29
-28
-27
-28
-29
-29
-29
-29
-29
-27
-27
-27
-28
-29
-28
-27
-27
-27
-27
-27
-27
-27
-27
-27
-26
-25
-26
-27
-27
-27
-27
-26
-24
-23
-24
-25
-26
-26
-24
-22
-20
-19
-20
-21
-20
-16
-12
-11
-10
-10
-9
-14
-15
-15
-15
-20
-25
-26
-27
-26
-25
-24
-23
-24
-26
-29
-31
-31
-31
-30
-29
-28
-27
-27
-27
-27
-27
-26
-15
2
26
54
80
105
63
1
-53
-107
-136
-163
-188
-212
-179
-145
-117
-90
-72
-53
-29
-8
0
7
8
9
9
9
8
7
8
9
11
13
11
9
10
12
14
15
16
17
17
17
17
18
20
22
24
25
24
23
24
26
28
29
31
33
35
34
33
36
39
42
45
46
47
50
53
56
59
61
63
65
67
68
69
72
74
76
77
77
78
80
81
80
78
76
70
63
53
43
34
24
17
10
3
9
-10
-15
-19
-23
-25
-27
-29
-31
-33
-35
-34
-33
-33
-33
-35
-37
-37
-37
-37
-37
-36
-35
-36
-37
-37
-37
-36
-35
-34
-33
-33
-33
-34
-35
-34
-33
-32
-31
-31
-31
-32
-32
-31
-31
-31
-32
-33
-32
-31
-32
-33
-33
-33
-33
-33
-34
-35
-34
-33
-33
-33
-33
-33
-34
-35
-35
-35
-34
-33
-33
-33
-34
-35
-35
-35
-34
-33
-34
-35
-35
-35
-34
-33
-33
-34
-35
-35
-35
-34
-33
-33
-33
-33
-33
-34
-35
-35
-35
-34
-33
-34
-35
-35
-35
-35
-34
-32
-31
-32
-33
-33
-33
-33
-33
-32
-31
-32
-33
-33
-33
-33
-33
-32
-31
-31
-33
-33
-32
-31
-31
-31
-32
-33
-33
-33
-32
-31
-30
-29
-30
-31
-32
-33
-31
-29
-29
-29
-30
-31
-32
-33
-32
-31
-30
-29
-30
-31
-31
-31
-30
-29
-29
-29
-30
-31
-31
-30
-29
-28
-27
-27
-27
-27
-27
-24
-20
-15
-11
-13
-15
-16
-17
-17
-17
-18
-21
-27
-31
-31
-30
-28
-27
-28
-30
-34
-36
-38
-39
-38
-36
-34
-33
-33
-33
-32
-31
-31
-30
-27
-10
8
36
63
83
92
28
-33
-87
-134
-166
-192
-203
-198
-161
-128
-105
-83
-64
-43
-20
-6
0
3
3
3
2
1
2
3
4
5
4
3
4
5
6
7
8
9
9
9
9
10
11
13
15
15
15
14
13
16
19
20
21
22
23
23
23
25
27
28
30
32
34
36
38
41
45
48
50
52
55
58
60
62
64
66
67
68
69
69
71
73
74
75
72
69
64
58
52
46
38
29
17
7
-1
-8
-13
-18
-22
-26
-29
-32
-35
-37
-38
-39
-39
-39
-40
-41
-42
-43
-42
-41
-41
-41
-42
-43
-42
-41
-40
-39
-37
-38
-39
-39
-39
-38
-37
-36
-35
-36
-37
-37
-37
-36
-35
-35
-35
-36
-37
-37
-37
-37
-37
-36
-35
-36
-37
-37
-37
-37
-37
-36
-35
-36
-37
-38
-39
-38
-37
-36
-35
-35
-37
-37
-38
-39
-38
-37
-37
-37
-38
-39
-38
-37
-37
-37
-37
-37
-37
-37
-37
-37
-36
-35
-35
-35
-36
-37
-36
-35
-35
-35
-35
-35
-35
-35
-35
-35
-35
-35
-35
-35
-36
-35
-33
-32
-31
-32
-33
-33
-33
-32
-31
-31
-31
-32
-33
-33
-33
-32
-31
-31
-31
-31
-31
-31
-31
-31
-31
-30
-29
-30
-31
-31
-29
-26
-25
-25
-25
-25
-21
-16
-15
-14
-13
-15
-16
-17
-18
-19
-23
-27
-28
-29
-28
-27
-27
-27
-28
-29
-31
-33
-34
-35
-34
-33
-33
-32
-30
-29
-29
-29
-29
-24
-16
3
25
57
92
90
79
23
-41
-75
-107
-149
-109
-185
-176
-145
-115
-94
-73
-53
-34
-16
-1
2
5
5
5
4
3
3
3
4
5
8
9
9
8
6
6
9
12
14
15
15
15
14
14
16
18
20
21
21
21
21
23
25
26
27
28
29
31
33
33
33
36
39
41
43
44
46
49
52
55
57
58
60
62
64
66
68
70
71
70
69
69
69
69
69
68
63
58
50
42
34
26
20
13
6
-1
-7
-13
-16
-19
-21
-23
-25
-27
-28
-29
-29
-29
-30
-31
-31
-31
-32
-33
-32
-31
-30
-29
-30
-31
-30
-29
-30
-30
-28
-27
-27
-27
-28
-29
-28
-27
-26
-25
-25
-27
-27
-27
-27
-26
-25
-26
-27
-27
-27
-28
-29
-28
-27
-28
-29
-29
-29
-29
-29
-29
-29
-29
-29
-30
-31
-30
-29
-28
-27
-28
-29
-30
-31
-31
-31
-30
-29
-29
-29
-30
-30
-29
-29
-29
-29
-29
-29
-29
-29
-29
-28
-27
-28
-29
-30
-31
-30
-29
-28
-27
-28
-29
-29
-29
-29
-29
-28
-27
-27
-27
-28
-29
-28
-27
-26
-25
-26
-27
-26
-24
-22
-21
-21
-19
-17
-14
-11
-11
-11
-11
-11
-11
-11
-13
-16
-21
-25
-25
-25
-24
-23
-24
-26
-29
-31
-30
-29
-30
-31
-31
-31
-30
-28
-26
-25
-25
-25
-25
-14
-1
24
49
83
51
68
19
-33
-84
-121
-155
-175
-186
-156
-128
-106
-85
-69
-50
-29
-12
-1
5
6
7
6
5
5
5
5
5
5
6
8
9
9
9
9
10
12
13
13
13
13
13
14
16
17
19
21
21
21
22
23
24
25
27
29
29
29
30
31
32
34
38
41
41
43
47
50
52
54
56
57
58
59
60
62
64
66
68
69
68
67
67
67
66
62
57
50
43
34
25
16
9
4
-2
-8
-14
-18
-21
-23
-25
-26
-28
-31
-33
-34
-35
-35
-35
-34
-33
-33
-33
-34
-35
-35
-35
-34
-33
-33
-33
-34
-35
-34
-33
-32
-31
-31
-30
-31
-30
-29
-29
-29
-29
-29
-29
-29
-29
-29
-28
-27
-28
-29
-30
-31
-30
-29
-29
-29
-30
-31
-32
-33
-33
-33
-32
-31
-32
-33
-33
-33
-32
-31
-31
-31
-32
-33
-33
-34
-35
-33
-31
-31
-31
-32
-33
-32
-31
-31
-31
-31
-31
-33
-35
-34
-33
-32
-31
-31
-31
-32
-33
-32
-31
-31
-31
-31
-31
-32
-33
-32
-31
-30
-29
-29
-29
-30
-31
-30
-29
-29
-29
-29
-30
-31
-31
-31
-29
-27
-28
-29
-29
-29
-29
-29
-29
-29
-29
-29
-29
-29
-29
-29
-28
-27
-28
-29
-28
-27
-27
-27
-27
-27
-27
-27
-27
-27
-26
-25
-25
-25
-25
-23
-23
-22
-21
-16
-11
-10
-9
-11
-13
-13
-13
-14
-16
-20
-24
-27
-28
-25
-23
-22
-22
-24
-26
-29
-31
-32
-32
-30
-29
-29
-29
-29
-29
-28
-27
-26
-19
-12
11
34
73
111
83
52
-20
-86
-118
-150
-183
-206
-191
-171
-138
-109
-87
-65
-41
-21
-4
5
6
7
6
5
5
6
8
9
8
7
8
9
10
12
14
15
15
15
15
15
16
18
21
21
21
21
21
21
21
24
27
27
27
27
27
30
33
35
37
38
39
39
40
43
46
49
52
54
55
56
59
63
66
68
69
70
72
74
75
75
75
76
77
77
71
67
62
57
50
42
32
22
13
4
-2
-8
-12
-16
-20
-24
-28
-31
-32
-33
-34
-35
-36
-37
-38
-39
-38
-37
-37
-37
-38
-39
-39
-39
-38
-37
-36
-35
-36
-37
-37
-36
-35
-34
-33
-33
-33
-34
-35
-34
-33
-32
-31
-32
-33
-33
-33
-33
-33
-32
-31
-32
-33
-33
-33
-34
-35
-34
-33
-34
-35
-36
-37
-36
-35
-34
-33
-34
-35
-35
-35
-35
-35
-33
-33
-33
-35
-37
-36
-35
-34
-33
-34
-35
-35
-35
-35
-35
-34
-33
-34
-35
-35
-35
-34
-33
-32
-32
-34
-35
-34
-33
-32
-31
-31
-31
-32
-33
-34
-35
-34
-32
-30
-29
-29
-32
-33
-32
-31
-30
-29
-30
-31
-32
-33
-33
-33
-31
-29
-29
-29
-30
-31
-30
-29
-29
-29
-29
-29
-29
-29
-30
-31
-30
-29
-29
-29
-29
-29
-28
-27
-27
-27
-27
-27
-28
-28
-27
-25
-23
-24
-25
-26
-27
-27
-27
-26
-25
-25
-25
-25
-25
-25
-25
-24
-23
-23
-23
-22
-21
-20
-19
-18
-15
-11
-9
-8
-8
-10
-10
-8
-8
-10
-15
-20
-22
-24
-24
-21
-21
-21
-23
-25
-27
-29
-29
-29
-29
-29
-28
-27
-26
-25
-24
-23
-23
-17
-1
20
48
76
104
83
24
-35
-93
-130
-157
-181
-205
-185
-150
-122
-95
-72
-50
-27
-5
3
-3
11
11
10
9
9
9
11
13
12
11
12
13
15
17
17
17
17
17
18
19
20
21
21
21
22
23
24
25
25
26
28
29
30
31
32
34
36
37
38
40
42
46
49
51
53
55
57
59
61
64
67
70
73
73
73
75
77
78
80
83
85
84
82
80
78
75
70
64
56
48
39
30
21
13
6
-1
-7
-12
-16
-20
-23
-26
-27
-27
-29
-31
-32
-33
-33
-33
-33
-33
-34
-35
-34
-33
-33
-33
-32
-31
-32
-33
-33
-33
-30
-29
-28
-27
-28
-29
-29
-29
-28
-27
-26
-25
-26
-27
-28
-29
-28
-27
-26
-25
-25
-26
-27
-27
-27
-27
-27
-28
-29
-30
-31
-30
-29
-28
-27
-28
-29
-30
-31
-30
-29
-28
-27
-28
-29
-29
-29
-29
-29
-28
-27
-28
-29
-29
-29
-29
-29
-28
-27
-27
-27
-28
-29
-29
-28
-27
-28
-29
-28
-27
-27
-27
-27
-27
-27
-27
-27
-27
-27
-27
-26
-25
-26
-27
-26
-25
-25
-25
-25
-25
-25
-25
-25
-25
-25
-25
-24
-23
-24
-25
-25
-25
-24
-23
-23
-23
-23
-24
-25
-24
-23
-22
-21
-22
-23
-22
-21
-21
-21
-20
-19
-19
-19
-19
-19
-18
-14
-8
-5
-5
-6
-8
-9
-8
-7
-8
-13
-19
-21
-22
-22
-20
-19
-18
-18
-17
-24
-27
-28
-29
-27
-25
-25
-25
-24
-23
-23
-23
-20
-14
-3
13
35
64
101
106
72
23
-41
-86
-118
-154
-191
-190
-166
-140
-112
-90
-70
-46
-21
-5
9
11
11
11
11
11
11
11
11
12
13
13
13
13
13
16
19
18
17
17
17
19
21
22
23
24
25
25
25
25
26
29
31
31
31
32
33
34
37
40
41
42
43
44
48
52
54
57
59
61
62
63
66
69
71
73
74
75
76
77
78
79
80
80
76
72
69
64
57
50
43
34
25
16
8
2
-3
-7
-10
-14
-20
-22
-24
-25
-25
-25
-25
-25
-25
-28
-29
-28
-27
-27
-27
-28
-29
-29
-29
-28
-27
-27
-27
-27
-27
-27
-27
-26
-25
-25
-25
-25
-25
-25
-25
-25
-25
-24
-23
-23
-23
-24
-25
-24
-23
-23
-23
-24
-25
-26
-27
-27
-26
-25
-26
-27
-27
-27
-27
-27
-26
-25
-27
-29
-29
-29
-28
-27
-27
-27
-27
-27
-27
-27
-27
-27
-27
-27
-28
-29
-29
-29
-28
-27
-26
-25
-26
-27
-28
-29
-28
-27
-25
-26
-27
-28
-29
-28
-27
-26
-25
-25
-25
-26
-27
-26
-25
-25
-25
-25
-25
-26
-27
-27
-26
-24
-23
-23
-23
-22
-21
-20
-17
-12
-11
-10
-10
-12
-13
-12
-11
-11
-16
-11
-25
-27
-25
-23
-21
-19
-23
-27
-29
-31
-31
-31
-29
-27
-27
-27
-27
-27
-25
-23
-22
-15
-1
17
40
70
106
92
50
-1
-55
-95
-129
-161
-192
-174
-147
-124
-103
-86
-70
-48
-27
-11
5
5
5
5
5
5
5
6
7
7
7
7
7
8
9
11
13
11
10
12
13
13
14
16
17
17
17
17
17
18
20
22
23
22
22
24
26
28
29
31
32
33
34
35
38
41
43
45
47
49
50
51
54
58
61
63
63
63
64
65
66
67
68
68
66
64
62
58
53
46
39
30
19
12
5
-2
-8
-12
-16
-19
-17
-26
-29
-30
-31
-31
-31
-32
-33
-34
-35
-36
-37
-36
-35
-35
-35
-35
-35
-35
-35
-34
-33
-34
-35
-36
-37
-36
-34
-32
-31
-32
-33
-33
-33
-33
-33
-32
-31
-32
-33
-33
-33
-33
-32
-31
-33
-35
-36
-37
-37
-37
-36
-35
-36
-37
-38
-39
-38
-37
-37
-37
-37
-38
-40
-40
-38
-37
-37
-37
-37
-37
-38
-39
-39
-39
-38
-37
-38
-39
-39
-39
-39
-39
-37
-38
-39
-39
-39
-39
-39
-38
-37
-38
-39
-40
-41
-40
-39
-38
-37
-36
-35
-36
-37
-36
-33
-29
-26
-24
-23
-24
-25
-25
-25
-25
-26
-28
-33
-40
-41
-40
-39
-38
-37
-37
-39
-43
-44
-45
-44
-43
-44
-45
-44
-43
-42
-41
-40
-39
-39
-33
-17
5
33
62
91
75
15
-42
-97
-137
-168
-192
-212
-196
-162
-136
-112
-92
-73
-50
-28
-17
-8
-7
-7
-8
-9
-7
-5
-6
-7
-7
-7
-5
-3
-2
-1
-1
-1
-1
-1
0
1
3
5
5
5
6
7
8
10
12
13
12
11
12
14
16
18
20
21
22
23
24
27
30
31
33
37
41
42
43
47
51
53
55
56
57
57
57
59
61
62
63
62
61
60
57
52
46
40
32
21
12
4
-3
-10
-16
-21
-26
-30
-34
-38
-39
-40
-41
-41
-41
-41
-44
-45
-45
-45
-44
-43
-44
-45
-46
-47
-45
-43
-42
-41
-41
-41
-41
-41
-41
-41
-40
-39
-39
-39
-39
-39
-39
-39
-38
-37
-38
-39
-39
-39
-38
-37
-37
-37
-38
-39
-40
-40
-39
-39
-39
-40
-41
-41
-41
-40
-39
-39
-39
-40
-41
-41
-41
-42
-43
-41
-39
-40
-41
-42
-43
-42
-41
-40
-39
-39
-39
-40
-41
-41
-40
-38
-37
-38
-39
-40
-40
-38
-37
-37
-37
-37
-38
-39
-39
-39
-38
-37
-38
-39
-38
-37
-37
-37
-36
-35
-35
-35
-36
-37
-37
-37
-36
-35
-35
-35
-35
-35
-35
-35
-34
-33
-33
-33
-34
-35
-35
-34
-32
-32
-31
-35
-35
-34
-33
-32
-31
-31
-31
-32
-33
-31
-29
-27
-25
-26
-26
-23
-20
-16
-13
-14
-15
-16
-17
-18
-20
-22
-25
-29
-31
-30
-29
-29
-29
-28
-29
-32
-34
-36
-37
-37
-35
-33
-32
-31
-31
-31
-30
-29
-25
-16
8
37
74
96
77
39
-33
-90
-124
-159
-196
-206
-186
-160
-127
-101
-79
-58
-36
-19
-4
2
4
5
5
5
5
5
5
5
5
7
11
11
11
10
9
12
15
16
17
17
17
17
17
17
18
21
23
22
21
22
23
26
28
30
31
32
33
33
35
39
42
44
45
46
47
48
52
56
59
62
63
63
67
69
71
73
75
77
77
77
77
77
75
73
71
68
63
56
47
37
27
18
11
4
-3
-9
-15
-18
-21
-24
-26
-27
-28
-30
-32
-33
-33
-33
-33
-33
-34
-35
-35
-35
-35
-34
-33
-33
-33
-33
-33
-32
-31
-30
-29
-29
-29
-29
-29
-29
-29
-27
-25
-26
-27
-27
-27
-27
-27
-26
-25
-25
-26
-28
-29
-28
-27
-26
-25
-26
-28
-30
-31
-30
-29
-27
-28
-29
-29
-29
-29
-29
-28
-27
-28
-29
-30
-31
-30
-29
-28
-27
-28
-29
-29
-29
-29
-28
-26
-26
-28
-29
-28
-27
-27
-27
-26
-25
-26
-27
-27
-27
-27
-26
-24
-23
-23
-26
-27
-26
-25
-24
-23
-23
-23
-24
-25
-25
-25
-24
-23
-24
-25
-24
-23
-23
-23
-23
-23
-23
-23
-24
-25
-24
-23
-22
-21
-21
-21
-22
-23
-22
-21
-20
-19
-20
-21
-21
-22
-23
-20
-17
-18
-19
-20
-21
-20
-19
-19
-19
-19
-19
-20
-21
-21
-21
-19
-17
-18
-19
-18
-16
-14
-13
-13
-13
-14
-12
-7
-5
-4
-3
-3
-3
-3
-5
-8
-11
-14
-16
-19
-17
-15
-15
-15
-17
-19
-20
-21
-23
-25
-25
-25
-23
-21
-19
-17
-18
-19
-18
-10
7
28
52
80
109
88
33
-25
-86
-122
-148
-175
-202
-177
-139
-111
-84
-62
-41
-20
-39
8
15
16
17
17
17
17
17
17
17
18
19
21
23
22
21
22
23
24
25
26
27
26
25
26
27
28
30
32
33
33
33
33
34
36
39
42
43
42
42
44
47
49
52
55
56
57
59
61
64
67
70
73
74
75
76
78
81
83
84
85
85
85
86
86
84
80
75
68
60
53
45
37
28
21
15
8
0
-4
-8
-12
-16
-17
-19
-21
-23
-25
-27
-26
-25
-25
-25
-25
-25
-26
-27
-26
-25
-25
-25
-25
-25
-25
-25
-24
-23
-22
-21
-21
-21
-22
-23
-22
-21
-21
-21
-21
-21
-21
-21
-21
-21
-20
-19
-19
-21
-21
-21
-21
-21
-21
-21
-21
-23
-25
-24
-23
-23
-23
-24
-25
-25
-25
-24
-23
-23
-23
-24
-25
-25
-25
-25
-25
-24
-23
-24
-25
-25
-25
-25
-25
-25
-25
-24
-23
-24
-25
-25
-24
-23
-24
-25
-25
-25
-25
-25
-24
-23
-23
-23
-24
-25
-25
-25
-23
-21
-22
-23
-23
-23
-22
-21
-21
-21
-21
-21
-21
-21
-21
-21
-20
-19
-20
-21
-22
-23
-22
-21
-21
-21
-21
-21
-21
-21
-21
-20
-19
-19
-19
-20
-21
-20
-19
-19
-19
-19
-19
-19
-19
-19
-19
-18
-17
-18
-19
-18
-17
-17
-16
-14
-13
-14
-13
-10
-7
-4
-3
-3
-3
-3
-6
-7
-8
-9
-14
-19
-18
-17
-17
-17
-17
-17
-19
-21
-23
-25
-25
-25
-23
-21
-20
-19
-20
-21
-20
-18
-16
-1
20
47
77
91
101
52
-12
-54
-90
-130
-170
-173
-172
-140
-109
-88
-68
-51
-33
-12
5
9
13
13
13
12
11
11
11
12
13
15
17
16
15
15
15
16
18
20
21
21
21
21
21
22
23
24
25
25
25
26
27
28
29
31
32
33
33
33
35
37
40
43
44
45
46
47
50
54
57
59
61
63
63
63
66
68
70
71
71
71
70
69
70
70
68
64
58
52
45
36
28
21
14
7
13
-7
-13
-15
-17
-19
-21
-24
-27
-28
-29
-29
-29
-29
-29
-30
-31
-32
-33
-32
-31
-31
-31
-31
-31
-31
-31
-31
-31
-30
-29
-29
-29
-29
-29
-28
-27
-27
-27
-27
-27
-28
-28
-27
-26
-25
-26
-27
-28
-29
-28
-27
-27
-27
-28
-29
-30
-31
-31
-31
-30
-29
-30
-31
-32
-33
-33
-33
-32
-31
-31
-32
-34
-35
-34
-33
-33
-33
-33
-33
-33
-33
-33
-33
-31
-32
-33
-33
-33
-33
-33
-32
-31
-32
-33
-33
-33
-33
-33
-32
-31
-32
-33
-33
-33
-33
-33
-32
-31
-31
-31
-32
-32
-30
-29
-29
-29
-30
-31
-31
-31
-31
-30
-28
-27
-27
-29
-29
-29
-29
-29
-29
-29
-29
-29
-29
-29
-29
-28
-27
-28
-29
-29
-29
-27
-25
-24
-23
-23
-21
-17
-15
-14
-13
-13
-13
-14
-15
-16
-20
-24
-26
-28
-28
-26
-25
-25
-27
-29
-31
-33
-34
-35
-34
-33
-32
-31
-30
-29
-29
-29
-29
-28
-24
-12
12
39
72
89
90
56
-10
-61
-103
-141
-177
-187
-184
-159
-127
-103
-83
-64
-46
-26
-7
-2
2
3
5
4
3
3
3
2
1
4
7
7
7
6
5
7
9
10
11
11
11
11
11
12
14
16
17
17
17
17
18
20
22
24
25
26
27
27
27
28
32
36
38
37
42
43
46
49
53
57
57
57
59
61
63
65
67
69
69
69
69
69
68
66
63
58
51
43
36
27
17
9
3
-4
-11
-16
-21
-25
-28
-30
-32
-34
-36
-38
-40
-40
-39
-39
-39
-40
-41
-41
-41
-41
-41
-40
-39
-40
-41
-41
-41
-40
-39
-38
-37
-38
-39
-39
-39
-38
-37
-36
-35
-36
-37
-37
-37
-37
-37
-36
-35
-35
-35
-36
-37
-36
-35
-35
-35
-35
-36
-37
-38
-39
-38
-37
-38
-39
-39
-39
-39
-39
-38
-37
-38
-39
-39
-39
-40
-40
-38
-37
-38
-39
-39
-39
-39
-39
-38
-37
-38
-39
-38
-37
-38
-39
-38
-37
-37
-37
-37
-36
-35
-35
-35
-36
-37
-37
-37
-37
-37
-36
-35
-35
-35
-36
-37
-36
-35
-34
-33
-34
-35
-35
-35
-35
-35
-35
-35
-34
-33
-34
-35
-35
-34
-32
-31
-32
-33
-34
-34
-33
-32
-31
-32
-33
-33
-33
-33
-33
-32
-31
-31
-31
-32
-33
-33
-33
-31
-29
-30
-31
-31
-31
-31
-31
-30
-29
-30
-31
-31
-31
-31
-31
-30
-29
-29
-29
-30
-31
-30
-29
-27
-28
-29
-29
-29
-29
-29
-28
-27
-27
-27
-27
-27
-27
-27
-26
-25
-26
-27
-27
-27
-26
-25
-24
-23
-24
-22
-17
-13
-10
-9
-10
-11
-12
-14
-16
-18
-20
-24
-28
-29
-29
-26
-25
-25
-25
-27
-29
-31
-33
-34
-35
-34
-33
-30
-27
-28
-29
-28
-26
-23
-10
13
43
79
87
73
21
-54
-102
-135
-168
-202
-200
-185
-155
-123
-99
-78
-57
-37
-19
-2
2
5
6
7
6
5
4
3
5
7
9
11
10
9
10
11
12
13
15
17
17
17
17
18
20
21
22
23
23
23
24
25
26
28
30
31
32
33
34
36
38
40
43
45
47
49
51
54
57
61
65
67
69
70
71
72
74
77
79
79
79
79
79
78
76
74
69
62
54
46
38
30
21
12
3
-5
-11
-18
-21
-24
-26
-28
-30
-29
-34
-35
-36
-37
-37
-37
-38
-39
-39
-39
-39
-39
-38
-37
-37
-37
-37
-37
-37
-37
-36
-35
-35
-35
-35
-35
-35
-34
-32
-31
-32
-33
-33
-33
-32
-31
-31
-31
-32
-33
-33
-33
-33
-32
-31
-32
-33
-33
-33
-33
-33
-33
-33
-34
-35
-35
-35
-34
-33
-32
-31
-33
-35
-34
-33
-33
-33
-32
-31
-32
-33
-34
-35
-34
-33
-32
-31
-32
-33
-34
-34
-32
-31
-31
-32
-33
-33
-33
-33
-33
-32
-31
-31
-31
-32
-33
-32
-31
-30
-29
-30
-31
-31
-31
-31
-31
-30
-29
-29
-29
-30
-31
-30
-29
-28
-27
-28
-29
-29
-29
-29
-29
-28
-27
-27
-28
-29
-28
-27
-27
-27
-27
-27
-27
-27
-27
-27
-26
-25
-25
-25
-26
-27
-26
-25
-25
-25
-25
-25
-26
-27
-26
-25
-24
-23
-23
-23
-24
-25
-25
-25
-24
-23
-23
-23
-24
-25
-25
-24
-23
-23
-23
-24
-25
-24
-23
-21
-19
-20
-21
-22
-23
-22
-21
-19
-17
-18
-19
-18
-14
-8
-5
-5
-6
-8
-9
-10
-11
-12
-17
-22
-23
-23
-23
-22
-21
-20
-20
-23
-26
-29
-29
-29
-28
-27
-25
-23
-24
-25
-23
-21
-20
-12
9
33
58
80
96
76
14
-38
-83
-122
-156
-177
-192
-174
-139
-113
-91
-73
-57
-35
-13
-3
4
5
5
5
5
7
7
8
9
10
11
10
9
10
11
12
13
14
15
14
13
15
17
18
19
20
21
21
21
22
23
23
25
28
29
29
29
30
32
34
37
40
41
41
41
42
46
49
52
55
56
57
59
61
64
67
69
71
72
73
73
73
73
73
73
71
66
60
54
47
39
30
21
12
4
-3
-11
-16
-20
-23
-26
-29
-32
-33
-34
-35
-36
-37
-35
-36
-37
-39
-41
-40
-39
-38
-37
-37
-37
-37
-37
-37
-37
-35
-33
-35
-37
-37
-37
-36
-35
-34
-33
-33
-33
-34
-34
-32
-31
-32
-33
-34
-35
-35
-35
-34
-33
-33
-33
-33
-35
-35
-35
-35
-34
-33
-35
-37
-37
-37
-37
-37
-36
-35
-36
-37
-37
-37
-37
-37
-37
-37
-37
-37
-37
-37
-37
-37
-37
-37
-37
-37
-37
-37
-37
-37
-36
-35
-36
-37
-38
-37
-35
-35
-35
-36
-37
-37
-37
-36
-35
-34
-33
-34
-35
-35
-35
-35
-35
-34
-33
-34
-35
-34
-33
-32
-31
-30
-29
-30
-31
-31
-31
-31
-31
-30
-29
-30
-31
-31
-31
-30
-29
-29
-29
-29
-29
-29
-29
-29
-28
-27
-28
-29
-30
-31
-30
-29
-28
-27
-28
-29
-29
-29
-28
-27
-26
-25
-25
-25
-24
-21
-17
-15
-15
-15
-16
-17
-17
-17
-18
-22
-26
-27
-27
-29
-29
-27
-25
-27
-29
-32
-35
-35
-35
-35
-35
-33
-31
-31
-31
-31
-31
-29
-24
-15
0
23
53
89
88
62
15
-43
-81
-109
-146
-185
-180
-164
-138
-111
-93
-77
-57
-38
-19
-1
2
5
3
1
1
1
3
5
6
7
6
5
6
7
7
7
9
11
11
11
11
11
12
14
16
17
16
15
16
17
17
19
22
23
23
23
24
26
28
30
33
34
35
36
37
41
45
48
51
52
53
54
55
58
61
63
65
65
65
65
65
65
65
66
65
61
56
51
44
36
28
21
12
3
-3
-10
-15
-20
-22
-24
-27
-25
-33
-35
-35
-35
-35
-35
-36
-37
-38
-39
-39
-39
-39
-39
-39
-39
-39
-39
-38
-37
-37
-37
-37
-37
-37
-37
-36
-35
-35
-35
-34
-33
-33
-33
-34
-35
-34
-33
-33
-33
-33
-33
-33
-33
-33
-34
-35
-35
-35
-34
-33
-33
-33
-34
-35
-36
-37
-36
-35
-34
-33
-34
-35
-36
-37
-37
-37
-36
-35
-35
-35
-36
-37
-36
-35
-34
-33
-34
-35
-35
-35
-35
-35
-33
-34
-35
-35
-35
-34
-33
-33
-33
-34
-35
-35
-35
-34
-33
-32
-31
-32
-33
-34
-35
-34
-33
-32
-31
-32
-33
-33
-33
-32
-31
-30
-29
-30
-31
-31
-31
-31
-31
-30
-29
-29
-30
-31
-30
-29
-29
-29
-29
-29
-30
-31
-30
-29
-28
-27
-28
-29
-29
-29
-28
-27
-27
-27
-27
-27
-27
-27
-26
-25
-24
-23
-24
-25
-26
-27
-26
-25
-24
-23
-23
-23
-23
-23
-23
-18
-13
-11
-9
-9
-9
-10
-11
-11
-11
-14
-18
-23
-27
-26
-25
-23
-21
-21
-22
-25
-28
-30
-30
-28
-27
-27
-27
-27
-27
-26
-25
-24
-21
-18
0
21
54
87
90
92
21
-49
-92
-134
-161
-185
-189
-186
-150
-118
-97
-75
-55
-34
-13
2
6
9
9
9
9
10
12
13
13
13
13
13
13
14
16
17
17
17
17
17
17
19
22
23
23
22
23
25
27
29
31
30
29
31
33
35
37
39
41
42
43
44
46
49
52
55
58
60
62
64
66
68
71
75
77
78
79
79
79
80
82
84
85
85
82
78
73
69
64
59
48
38
29
20
12
4
-2
-8
-13
-18
-22
-25
-27
-29
-29
-29
-30
-32
-34
-35
-35
-35
-34
-33
-34
-35
-36
-37
-36
-34
-32
-31
-32
-33
-33
-33
-32
-31
-31
-30
-29
-30
-31
-31
-31
-30
-29
-29
-29
-29
-29
-28
-27
-27
-27
-28
-29
-29
-29
-30
-31
-30
-29
-29
-30
-32
-32
-30
-29
-29
-29
-30
-31
-32
-33
-32
-31
-31
-31
-31
-31
-31
-31
-31
-30
-29
-31
-33
-33
-33
-32
-31
-30
-29
-30
-31
-31
-31
-30
-29
-29
-29
-29
-29
-30
-31
-30
-29
-29
-29
-29
-29
-29
-29
-29
-29
-29
-29
-29
-29
-30
-30
-29
-27
-25
-26
-27
-28
-29
-28
-27
-26
-25
-26
-27
-28
-29
-28
-27
-26
-25
-26
-27
-27
-27
-27
-27
-26
-25
-26
-27
-27
-27
-27
-27
-26
-25
-25
-25
-26
-26
-24
-23
-23
-24
-25
-25
-25
-25
-25
-24
-23
-23
-23
-22
-21
-21
-21
-19
-16
-12
-9
-8
-7
-10
-11
-10
-10
-12
-16
-21
-23
-24
-24
-22
-21
-21
-22
-24
-26
-28
-29
-29
-29
-29
-27
-27
-26
-25
-24
-23
-23
-20
-3
17
42
68
96
96
38
-20
-79
-124
-152
-176
-197
-187
-149
-118
-93
-70
-49
-27
-6
3
7
9
8
7
8
9
10
11
11
11
11
12
13
15
17
17
17
17
17
18
19
21
23
22
21
21
21
23
25
27
29
29
29
30
32
34
36
38
39
40
42
44
46
48
51
54
56
58
60
62
64
66
70
75
76
77
78
79
81
83
83
83
82
81
78
74
69
63
54
45
35
26
18
10
3
-3
-8
-14
-20
-24
-27
-30
-32
-33
-33
-33
-34
-35
-36
-37
-37
-37
-37
-37
-37
-39
-39
-38
-37
-36
-35
-35
-35
-36
-37
-36
-35
-34
-33
-33
-33
-33
-33
-33
-33
-32
-31
-31
-31
-32
-33
-33
-32
-30
-29
-30
-31
-32
-33
-32
-31
-32
-33
-33
-33
-33
-34
-35
-34
-33
-33
-33
-35
-37
-35
-33
-34
-35
-35
-35
-34
-33
-34
-35
-35
-35
-34
-33
-34
-35
-34
-33
-33
-33
-33
-33
-34
-35
-35
-34
-32
-31
-32
-33
-33
-33
-32
-31
-31
-31
-31
-32
-33
-33
-33
-32
-31
-32
-33
-33
-33
-32
-31
-30
-29
-30
-31
-31
-31
-31
-31
-30
-29
-30
-31
-31
-31
-30
-29
-29
-29
-30
-31
-31
-31
-31
-30
-28
-27
-27
-29
-29
-28
-27
-27
-27
-26
-25
-25
-25
-24
-22
-18
-15
-13
-11
-12
-13
-12
-11
-12
-15
-19
-23
-29
-30
-27
-25
-24
-23
-24
-28
-32
-33
-33
-32
-30
-29
-29
-29
-29
-28
-27
-25
-23
-17
-9
15
41
78
103
85
54
-14
-71
-106
-142
-181
-197
-175
-151
-122
-98
-80
-60
-38
-20
-3
3
4
5
5
5
5
6
8
9
8
7
8
9
9
10
13
13
13
13
13
13
13
16
19
19
19
19
19
20
21
23
25
26
27
27
27
28
30
33
35
36
37
38
41
44
47
50
51
52
54
56
59
62
65
68
69
69
71
73
73
73
75
77
77
77
74
71
66
62
57
50
40
30
22
15
9
2
-5
-11
-15
-18
-21
-24
-26
-27
-27
-27
-28
-29
-30
-31
-31
-31
-31
-31
-31
-31
-32
-32
-31
-30
-29
-29
-29
-30
-31
-30
-29
-28
-27
-28
-29
-29
-29
-29
-29
-28
-27
-27
-27
-27
-27
-27
-27
-27
-27
-28
-29
-30
-31
-30
-29
-29
-29
-29
-29
-30
-31
-31
-31
-29
-30
-31
-32
-33
-32
-31
-31
-31
-31
-31
-31
-31
-31
-31
-30
-29
-30
-31
-32
-33
-32
-31
-30
-29
-29
-29
-30
-31
-31
-31
-30
-29
-30
-31
-31
-31
-30
-29
-29
-29
-29
-29
-29
-29
-29
-28
-27
-28
-29
-29
-29
-29
-29
-28
-27
-27
-27
-27
-27
-27
-27
-26
-25
-26
-27
-26
-25
-24
-23
-22
-19
-15
-13
-13
-13
-13
-13
-12
-11
-12
-15
-18
-24
-29
-26
-23
-23
-23
-24
-25
-27
-29
-30
-31
-31
-31
-31
-31
-30
-29
-28
-27
-26
-25
-24
-12
8
34
62
82
98
62
2
-45
-87
-129
-169
-177
-176
-149
-118
-99
-82
-63
-43
-23
-3
0
3
2
1
3
5
5
5
5
5
5
5
7
9
9
9
9
9
10
12
14
15
14
13
13
14
16
17
18
19
19
19
20
21
21
24
28
29
29
29
29
31
33
37
41
42
43
44
45
47
50
54
57
58
59
60
61
63
65
66
67
67
67
66
65
64
61
57
50
43
35
27
19
11
4
-2
-8
-14
-18
-22
-25
-27
-28
-29
-31
-33
-34
-35
-35
-35
-35
-35
-36
-37
-37
-37
-36
-35
-35
-35
-35
-35
-35
-35
-35
-34
-32
-31
-32
-33
-33
-33
-32
-31
-31
-31
-31
-31
-31
-31
-31
-31
-29
-30
-31
-32
-33
-33
-33
-31
-29
-30
-31
-32
-33
-33
-33
-33
-33
-34
-35
-35
-35
-34
-33
-33
-33
-34
-35
-35
-35
-34
-33
-33
-33
-33
-33
-34
-35
-34
-33
-32
-31
-31
-32
-33
-33
-33
-32
-31
-32
-33
-33
-33
-33
-33
-32
-31
-31
-31
-32
-33
-32
-31
-31
-31
-31
-31
-32
-33
-32
-31
-30
-29
-30
-31
-31
-31
-31
-31
-30
-29
-29
-29
-28
-27
-27
-25
-23
-19
-15
-15
-15
-16
-17
-15
-13
-15
-18
-25
-29
-30
-31
-29
-27
-27
-28
-30
-32
-34
-35
-34
-33
-34
-35
-35
-34
-32
-30
-28
-27
-28
-23
-16
6
30
68
107
86
61
-10
-76
-111
-146
-180
-204
-188
-168
-136
-107
-87
-66
-45
-25
-10
-1
1
3
2
2
4
5
4
3
4
5
5
7
10
11
11
11
10
10
12
13
14
15
15
16
17
18
19
20
21
21
21
21
21
23
25
28
31
31
31
33
35
36
38
41
44
47
49
50
52
55
59
63
66
68
69
70
71
72
74
76
76
74
73
73
69
65
62
59
50
40
31
22
14
6
-1
-8
-14
-20
-24
-28
-31
-33
-33
-33
-35
-37
-38
-39
-38
-37
-37
-37
-38
-39
-40
-41
-41
-40
-38
-37
-37
-37
-37
-37
-37
-37
-35
-35
-35
-35
-35
-35
-35
-34
-33
-34
-35
-35
-35
-34
-33
-33
-33
-34
-35
-36
-37
-36
-35
-35
-35
-36
-37
-37
-37
-37
-37
-37
-37
-37
-37
-38
-39
-39
-39
-38
-37
-37
-37
-37
-37
-37
-37
-37
-37
-37
-37
-37
-38
-39
-38
-37
-37
-37
-38
-39
-38
-37
-36
-35
-36
-37
-37
-37
-37
-37
-36
-35
-36
-37
-37
-37
-37
-37
-36
-35
-36
-37
-38
-38
-37
-36
-35
-36
-37
-37
-37
-36
-35
-34
-33
-34
-35
-36
-37
-36
-35
-34
-33
-34
-35
-35
-35
-35
-35
-34
-33
-33
-33
-32
-31
-30
-29
-29
-28
-26
-23
-20
-19
-18
-17
-17
-19
-21
-24
-27
-31
-35
-33
-31
-31
-31
-32
-33
-34
-35
-37
-39
-40
-41
-40
-39
-38
-36
-34
-33
-33
-33
-32
-20
-2
24
54
78
100
59
2
-54
-109
-141
-171
-197
-173
-186
-148
-119
-91
-69
-47
-26
-9
-5
-1
0
1
1
1
0
-1
0
1
2
3
4
5
5
5
5
6
8
9
9
9
10
11
11
11
12
14
16
17
17
17
18
20
21
24
27
26
25
27
29
31
33
37
41
41
41
45
47
49
52
55
57
57
58
61
64
66
67
68
69
69
69
69
68
66
62
58
52
44
36
28
20
12
5
-3
-10
-17
-22
-27
-30
-33
-35
-37
-38
-39
-41
-43
-43
-43
-42
-41
-42
-43
-43
-43
-44
-44
-42
-41
-41
-41
-42
-43
-42
-41
-41
-41
-40
-39
-39
-39
-39
-39
-38
-37
-37
-38
-39
-38
-37
-37
-37
-37
-37
-38
-39
-39
-39
-38
-37
-38
-39
-39
-39
-39
-39
-39
-39
-39
-39
-40
-41
-40
-39
-39
-39
-39
-39
-40
-41
-40
-39
-38
-37
-38
-39
-40
-40
-39
-38
-37
-38
-39
-39
-39
-38
-37
-37
-37
-38
-39
-38
-37
-37
-37
-37
-37
-37
-37
-36
-35
-35
-35
-35
-35
-36
-37
-37
-37
-37
-37
-36
-35
-35
-35
-35
-35
-35
-35
-33
-33
-33
-33
-33
-33
-33
-32
-31
-32
-33
-33
-33
-33
-33
-32
-31
-31
-31
-32
-33
-32
-30
-28
-27
-27
-27
-27
-25
-21
-18
-16
-15
-16
-17
-17
-17
-17
-20
-24
-28
-25
-31
-29
-29
-29
-29
-29
-32
-35
-36
-37
-36
-35
-34
-33
-32
-31
-31
-31
-29
-26
-21
-8
13
39
69
84
89
51
-10
-57
-97
-136
-175
-186
-190
-163
-129
-107
-87
-69
-52
-29
-7
-1
5
4
3
3
3
3
3
4
5
5
5
5
5
6
7
9
11
10
9
10
11
12
13
14
15
15
15
16
17
18
20
22
23
24
25
25
26
28
30
33
35
37
38
39
41
43
46
49
51
53
54
55
57
60
63
65
66
67
67
67
68
70
72
71
67
62
56
49
43
36
29
21
13
5
-3
-8
-12
-15
-18
-21
-19
-27
-29
-30
-31
-31
-31
-32
-33
-34
-35
-34
-33
-32
-31
-32
-33
-33
-33
-32
-31
-30
-29
-30
-31
-32
-33
-32
-31
-30
-29
-29
-29
-29
-29
-29
-29
-29
-29
-29
-29
-29
-29
-29
-29
-29
-29
-29
-30
-31
-30
-29
-29
-29
-30
-31
-32
-33
-33
-33
-32
-31
-31
-31
-31
-31
-32
-33
-32
-31
-32
-33
-33
-33
-32
-31
-31
-31
-31
-31
-31
-31
-31
-31
-31
-31
-31
-32
-33
-32
-31
-30
-29
-30
-31
-31
-31
-30
-29
-29
-29
-29
-29
-30
-31
-31
-30
-28
-27
-28
-29
-29
-29
-29
-29
-28
-27
-27
-27
-28
-29
-28
-27
-26
-25
-25
-25
-25
-24
-23
-22
-21
-21
-21
-17
-13
-12
-11
-12
-13
-12
-11
-13
-16
-20
-23
-24
-25
-24
-23
-23
-24
-26
-27
-27
-27
-28
-29
-30
-30
-28
-27
-26
-25
-25
-25
-25
-9
7
32
57
88
110
66
21
-32
-79
-111
-142
-171
-183
-154
-127
-103
-82
-65
-46
-26
-10
0
5
5
5
6
7
6
5
5
5
6
7
8
9
10
11
10
10
12
13
15
15
15
15
15
17
19
19
19
20
21
22
23
24
25
26
27
28
29
30
31
34
36
39
41
42
44
46
49
52
54
56
57
58
59
60
62
64
66
68
69
69
67
67
66
65
62
58
51
44
36
28
21
14
8
2
-3
-8
-14
-18
-21
-23
-24
-26
-28
-29
-30
-31
-31
-31
-30
-29
-30
-31
-32
-33
-33
-33
-32
-31
-32
-33
-32
-32
-33
-31
-29
-29
-29
-30
-31
-31
-31
-29
-27
-28
-29
-30
-31
-30
-29
-29
-29
-29
-29
-30
-31
-31
-31
-31
-31
-31
-31
-32
-33
-34
-35
-34
-33
-33
-33
-34
-35
-35
-35
-33
-34
-35
-36
-37
-36
-35
-35
-35
-35
-35
-36
-37
-36
-35
-34
-33
-34
-35
-36
-37
-36
-35
-34
-33
-33
-33
-34
-35
-35
-34
-32
-32
-34
-35
-34
-33
-34
-34
-32
-31
-31
-34
-35
-33
-31
-31
-31
-32
-33
-34
-35
-34
-33
-32
-31
-31
-31
-31
-31
-29
-27
-27
-27
-26
-23
-19
-17
-17
-17
-18
-19
-19
-19
-20
-25
-30
-31
-31
-31
-30
-29
-29
-31
-33
-34
-35
-36
-37
-37
-37
-35
-33
-32
-31
-31
-31
-30
-24
-7
13
39
66
96
85
33
-23
-82
-124
-152
-176
-196
-178
-141
-113
-89
-68
-49
-29
-8
-2
2
3
3
3
3
2
1
1
1
3
5
6
7
7
7
8
9
10
11
12
13
13
13
13
13
16
17
18
19
19
19
20
21
22
24
26
27
28
29
30
33
36
38
40
42
41
47
49
51
53
56
59
60
61
62
63
65
67
69
71
71
71
70
69
68
66
61
55
47
38
29
21
14
7
1
-5
-11
-17
-23
-26
-28
-31
-34
-35
-36
-38
-40
-42
-43
-41
-39
-40
-41
-42
-43
-43
-43
-41
-39
-39
-39
-40
-41
-41
-41
-39
-37
-37
-37
-37
-37
-37
-37
-36
-35
-36
-37
-37
-37
-37
-36
-34
-33
-34
-35
-36
-37
-37
-37
-35
-36
-37
-38
-39
-39
-39
-38
-37
-38
-39
-39
-39
-39
-39
-38
-37
-38
-39
-39
-39
-38
-37
-36
-35
-36
-37
-38
-39
-38
-37
-37
-37
-37
-37
-37
-37
-37
-36
-34
-33
-33
-36
-37
-37
-37
-36
-35
-35
-35
-36
-37
-36
-35
-34
-33
-34
-35
-35
-35
-35
-35
-34
-33
-34
-35
-34
-33
-33
-33
-33
-33
-33
-33
-33
-33
-33
-33
-32
-31
-31
-31
-32
-32
-31
-31
-31
-31
-31
-31
-31
-31
-31
-30
-29
-30
-31
-31
-31
-31
-31
-30
-29
-30
-31
-31
-31
-30
-29
-29
-29
-29
-29
-30
-31
-30
-29
-28
-27
-28
-29
-29
-29
-28
-27
-27
-28
-29
-28
-27
-27
-27
-26
-25
-25
-25
-26
-27
-25
-23
-23
-23
-23
-23
-22
-21
-21
-19
-15
-12
-10
-9
-10
-11
-11
-11
-11
-12
-14
-19
-26
-27
-26
-23
-20
-19
-19
-22
-25
-27
-29
-29
-29
-29
-29
-28
-27
-26
-25
-24
-23
-21
-11
10
35
65
84
91
60
-10
-64
-105
-138
-167
-181
-188
-167
-132
-106
-82
-61
-41
-20
0
5
8
8
6
6
7
9
11
11
11
11
11
12
13
15
17
18
19
18
17
19
21
22
23
23
23
24
25
25
26
29
31
30
29
29
31
34
36
38
39
40
42
44
48
52
54
57
59
61
62
63
66
69
72
75
76
77
77
77
79
81
82
83
81
77
72
67
62
56
49
40
31
22
13
6
1
-3
-8
-12
-18
-20
-22
-24
-26
-27
-26
-26
-25
-29
-29
-29
-29
-29
-29
-30
-31
-31
-31
-30
-29
-28
-27
-27
-27
-28
-29
-28
-27
-24
-23
-24
-25
-26
-26
-24
-23
-23
-23
-23
-23
-24
-25
-24
-23
-23
-23
-24
-25
-26
-27
-27
-25
-23
-25
-27
-27
-27
-26
-25
-26
-27
-28
-29
-29
-29
-28
-27
-27
-27
-27
-27
-27
-27
-28
-29
-28
-27
-27
-27
-27
-27
-27
-27
-26
-25
-25
-25
-25
-25
-25
-25
-25
-25
-25
-26
-27
-27
-27
-25
-23
-24
-25
-25
-25
-24
-23
-23
-23
-24
-25
-25
-25
-25
-25
-24
-23
-23
-23
-23
-23
-23
-23
-23
-23
-23
-23
-24
-24
-22
-21
-21
-21
-21
-22
-23
-22
-21
-21
-21
-21
-21
-22
-23
-22
-21
-20
-19
-19
-19
-19
-19
-18
-17
-14
-13
-14
-13
-9
-7
-6
-5
-5
-5
-5
-5
-6
-10
-14
-16
-18
-19
-18
-17
-17
-17
-17
-19
-21
-22
-23
-23
-23
-22
-21
-20
-19
-20
-21
-20
-17
-11
2
24
50
80
95
95
62
2
-44
-80
-119
-160
-169
-163
-140
-112
-92
-74
-58
-42
-22
-3
4
10
11
13
12
11
11
11
11
11
14
17
16
15
15
15
17
19
20
21
21
21
21
21
22
23
24
25
26
27
27
27
28
30
32
33
34
35
35
37
40
42
44
45
45
49
51
53
55
58
61
63
65
66
67
68
69
71
73
74
75
75
75
75
74
71
67
62
55
47
39
32
25
18
10
3
-2
-7
-11
-14
-16
-18
-20
-22
-23
-24
-25
-25
-25
-25
-26
-27
-27
-27
-27
-27
-27
-27
-27
-27
-27
-27
-26
-25
-25
-25
-25
-25
-25
-25
-24
-23
-22
-21
-22
-23
-24
-25
-24
-23
-23
-23
-23
-23
-23
-23
-23
-23
-25
-25
-25
-26
-27
-27
-27
-26
-25
-26
-27
-28
-29
-28
-27
-26
-25
-27
-29
-29
-29
-29
-29
-28
-27
-28
-29
-30
-31
-30
-29
-28
-27
-28
-29
-29
-29
-30
-30
-28
-27
-27
-29
-29
-28
-27
-27
-27
-28
-29
-29
-29
-29
-29
-28
-27
-27
-27
-28
-29
-28
-27
-27
-27
-28
-29
-29
-29
-29
-28
-26
-25
-26
-27
-27
-27
-27
-27
-26
-25
-26
-27
-26
-25
-25
-23
-21
-20
-19
-15
-11
-10
-9
-10
-11
-12
-13
-14
-16
-21
-25
-25
-25
-24
-23
-23
-24
-26
-28
-30
-31
-31
-31
-31
-31
-30
-28
-26
-25
-26
-27
-27
-14
0
26
53
83
108
53
-2
-57
-107
-136
-163
-183
-191
-157
-127
-103
-81
-61
-41
-20
-5
1
5
6
7
7
7
7
7
7
8
10
11
11
11
11
11
11
12
14
15
16
17
17
16
17
18
19
20
21
21
21
22
23
25
27
29
31
32
33
34
35
37
39
42
44
46
48
50
52
55
59
62
64
66
67
68
69
70
72
74
75
75
75
74
72
71
67
63
56
48
40
32
23
14
7
0
-8
-14
-19
-24
-27
-29
-30
-31
-33
-35
-36
-37
-37
-37
-37
-37
-38
-39
-39
-39
-39
-39
-38
-37
-38
-39
-39
-39
-38
-37
-35
-36
-37
-37
-37
-36
-35
-34
-33
-34
-35
-35
-35
-34
-33
-33
-33
-34
-35
-35
-35
-36
-37
-36
-35
-36
-37
-37
-37
-37
-37
-37
-37
-37
-37
-37
-37
-37
-37
-37
-37
-37
-39
-39
-38
-37
-37
-37
-37
-37
-38
-39
-38
-37
-37
-37
-38
-39
-38
-37
-37
-37
-36
-35
-36
-37
-38
-39
-38
-37
-36
-35
-35
-35
-36
-37
-36
-35
-35
-35
-36
-37
-37
-37
-37
-35
-33
-34
-35
-35
-35
-35
-35
-34
-33
-35
-37
-37
-37
-36
-35
-35
-35
-35
-35
-35
-35
-35
-35
-34
-33
-33
-33
-34
-35
-35
-35
-34
-33
-34
-35
-35
-35
-35
-35
-33
-33
-33
-34
-35
-34
-33
-33
-33
-32
-31
-30
-29
-29
-29
-27
-23
-18
-15
-16
-17
-18
-19
-19
-20
-22
-26
-31
-33
-34
-33
-30
-29
-29
-31
-34
-35
-36
-37
-37
-37
-37
-37
-37
-36
-35
-34
-33
-32
-29
-13
5
31
59
87
90
35
-22
-84
-131
-157
-183
-211
-207
-171
-141
-114
-90
-69
-46
-22
-11
-5
-3
-2
-1
-1
-1
0
1
1
1
1
2
3
4
5
5
5
6
7
7
7
10
13
13
13
13
13
14
15
17
19
19
19
20
21
22
24
27
29
30
31
32
35
38
41
44
45
46
48
50
53
56
59
63
64
65
67
69
70
71
73
75
75
75
72
69
66
61
54
46
37
27
17
8
-1
-7
-12
-18
-24
-29
-33
-35
-36
-37
-37
-38
-40
-42
-44
-45
-44
-43
-43
-43
-43
-44
-45
-44
-43
-41
-39
-40
-41
-41
-41
-41
-41
-40
-39
-38
-37
-38
-39
-38
-37
-37
-37
-37
-37
-37
-37
-37
-37
-36
-35
-36
-37
-38
-39
-39
-39
-38
-37
-38
-39
-39
-40
-41
-39
-37
-38
-39
-40
-41
-40
-39
-38
-37
-38
-39
-40
-41
-40
-39
-38
-37
-38
-39
-39
-39
-39
-39
-38
-37
-38
-39
-39
-39
-38
-37
-36
-35
-36
-37
-37
-37
-37
-37
-35
-35
-35
-36
-37
-36
-35
-35
-35
-35
-35
-35
-35
-34
-33
-33
-33
-34
-35
-35
-35
-34
-33
-33
-33
-33
-33
-33
-33
-33
-33
-32
-31
-32
-33
-33
-33
-32
-31
-30
-29
-29
-28
-27
-27
-27
-26
-25
-21
-17
-16
-15
-16
-17
-15
-13
-15
-18
-21
-24
-28
-31
-28
-27
-27
-27
-28
-30
-32
-33
-33
-33
-33
-33
-33
-33
-32
-30
-28
-27
-27
-25
-22
1
24
57
89
90
84
20
-39
-77
-115
-154
-183
-183
-174
-143
-117
-97
-77
-55
-34
-14
-2
1
3
4
5
6
7
6
5
5
5
6
8
10
11
11
11
11
11
12
13
15
15
15
15
15
16
17
19
21
21
21
22
23
25
27
28
29
30
31
33
35
38
40
42
44
46
47
48
51
54
57
60
61
62
63
64
66
68
70
72
73
73
70
69
67
65
62
58
49
40
32
24
17
10
4
-2
-7
-12
-18
-21
-22
-23
-26
-27
-28
-30
-32
-33
-33
-33
-32
-31
-32
-33
-33
-33
-33
-32
-30
-29
-30
-31
-31
-31
-31
-30
-29
-29
-29
-29
-29
-29
-29
-28
-27
-28
-29
-29
-29
-29
-29
-28
-27
-28
-29
-30
-31
-30
-29
-29
-29
-30
-31
-31
-31
-30
-29
-29
-29
-29
-29
-30
-31
-30
-29
-29
-30
-31
-32
-33
-32
-31
-30
-29
-29
-29
-31
-33
-31
-29
-29
-29
-29
-29
-30
-31
-30
-29
-28
-27
-28
-29
-30
-31
-30
-29
-29
-29
-29
-29
-29
-29
-30
-30
-28
-27
-27
-28
-29
-28
-27
-28
-29
-28
-27
-28
-29
-29
-29
-28
-27
-27
-27
-27
-27
-26
-25
-22
-21
-21
-19
-15
-13
-12
-11
-12
-13
-13
-13
-14
-18
-22
-23
-24
-25
-24
-23
-23
-25
-27
-28
-29
-30
-31
-31
-31
-29
-27
-26
-25
-25
-25
-25
-21
-9
8
30
58
93
97
68
23
-36
-78
-106
-141
-180
-179
-157
-131
-104
-84
-66
-46
-24
-10
3
5
6
7
7
6
5
5
5
6
7
8
9
10
11
11
11
11
11
13
15
14
13
14
15
16
18
20
21
20
19
20
21
22
24
26
27
28
29
30
32
34
37
40
41
41
44
45
48
51
54
57
58
59
60
61
62
63
66
69
69
69
69
69
69
69
66
63
58
51
44
37
28
21
14
7
1
-5
-11
-15
-18
-21
-24
-27
-30
-31
-32
-33
-33
-33
-33
-34
-35
-35
-35
-35
-35
-34
-33
-33
-33
-33
-33
-33
-33
-32
-31
-31
-31
-31
-31
-31
-31
-30
-29
-29
-29
-29
-29
-29
-29
-28
-27
-27
-28
-30
-31
-30
-29
-29
-29
-29
-31
-33
-32
-31
-31
-31
-31
-31
-32
-33
-33
-33
-32
-31
-31
-31
-32
-33
-33
-33
-32
-31
-32
-33
-33
-33
-32
-31
-31
-31
-32
-33
-33
-33
-33
-33
-32
-31
-31
-32
-33
-33
-33
-31
-29
-30
-31
-32
-33
-31
-29
-29
-29
-30
-31
-31
-31
-31
-31
-30
-29
-30
-31
-31
-31
-30
-29
-29
-29
-29
-29
-30
-31
-30
-29
-29
-29
-29
-29
-29
-29
-29
-28
-27
-28
-29
-29
-29
-29
-29
-27
-25
-26
-27
-28
-29
-28
-27
-27
-27
-27
-27
-27
-27
-26
-25
-24
-23
-24
-23
-20
-16
-12
-10
-8
-10
-14
-15
-15
-15
-16
-20
-25
-27
-29
-28
-27
-26
-25
-25
-25
-29
-33
-33
-33
-32
-31
-30
-29
-29
-29
-29
-29
-29
-21
-4
19
48
74
98
66
3
-54
-110
-144
-173
-192
-208
-179
-141
-113
-87
-66
-85
-26
-7
-1
5
5
5
5
5
5
5
6
7
8
9
10
11
11
11
11
11
14
15
15
15
15
15
16
18
20
21
21
21
22
23
24
25
26
28
30
31
32
35
37
39
41
43
45
46
47
50
53
57
61
63
65
66
67
69
72
75
77
76
75
75
75
75
74
72
68
61
54
46
37
28
19
11
3
-5
-12
-18
-21
-24
-27
-31
-33
-35
-36
-37
-38
-39
-38
-37
-38
-39
-40
-41
-41
-41
-40
-39
-39
-39
-39
-39
-39
-39
-38
-37
-37
-37
-37
-37
-36
-35
-34
-33
-34
-35
-35
-35
-35
-35
-34
-33
-33
-35
-35
-35
-35
-34
-33
-34
-35
-36
-37
-36
-35
-34
-33
-35
-37
-37
-37
-36
-35
-35
-35
-35
-35
-36
-37
-36
-35
-35
-35
-35
-35
-35
-35
-35
-35
-35
-35
-35
-35
-36
-36
-35
-34
-33
-34
-35
-35
-35
-34
-33
-33
-33
-34
-35
-35
-35
-34
-33
-32
-31
-32
-33
-33
-33
-33
-32
-30
-29
-30
-31
-32
-33
-33
-32
-30
-29
-30
-31
-32
-32
-30
-29
-29
-30
-31
-31
-31
-30
-29
-28
-27
-28
-29
-29
-29
-29
-29
-28
-27
-28
-29
-28
-27
-28
-29
-28
-27
-27
-27
-28
-29
-28
-27
-26
-25
-26
-27
-27
-27
-26
-25
-25
-25
-25
-25
-23
-22
-21
-20
-19
-16
-13
-11
-9
-10
-11
-10
-9
-11
-13
-15
-19
-24
-27
-24
-23
-23
-23
-23
-24
-26
-27
-28
-29
-29
-29
-28
-27
-27
-26
-24
-23
-23
-22
-20
3
25
57
87
89
83
12
-53
-91
-128
-164
-190
-186
-174
-143
-116
-94
-73
-53
-32
-12
1
5
7
7
7
8
9
9
9
9
9
9
10
12
13
13
13
13
14
16
17
19
18
17
17
17
19
21
23
25
25
25
26
27
28
29
31
33
33
33
35
37
40
42
45
48
50
51
52
54
56
59
64
65
66
68
70
71
72
74
76
77
77
76
75
74
73
69
64
56
48
40
31
21
12
7
1
-5
-10
-16
-19
-21
-23
-24
-26
-28
-29
-30
-31
-31
-31
-31
-31
-31
-31
-32
-33
-33
-33
-32
-31
-31
-31
-31
-30
-29
-28
-27
-28
-29
-29
-29
-28
-27
-27
-27
-28
-29
-29
-29
-28
-27
-27
-27
-28
-29
-29
-29
-29
-29
-28
-27
-28
-29
-30
-31
-30
-29
-29
-29
-29
-29
-30
-31
-30
-29
-29
-30
-31
-31
-31
-30
-29
-29
-29
-30
-31
-31
-31
-31
-31
-30
-29
-30
-31
-31
-31
-31
-31
-30
-29
-30
-31
-31
-31
-30
-29
-28
-27
-28
-29
-30
-31
-30
-29
-29
-29
-29
-28
-27
-28
-29
-29
-29
-29
-29
-30
-31
-30
-29
-28
-27
-27
-27
-28
-29
-28
-27
-26
-25
-26
-27
-28
-29
-28
-27
-26
-25
-24
-23
-23
-23
-23
-21
-18
-15
-12
-11
-11
-11
-11
-11
-11
-13
-15
-20
-25
-25
-25
-23
-21
-22
-23
-25
-27
-29
-31
-30
-29
-29
-29
-28
-27
-26
-25
-24
-23
-22
-8
11
36
63
85
107
67
12
-34
-79
-113
-145
-165
-185
-154
-124
-105
-86
-69
-52
-28
-8
0
7
6
5
6
7
8
9
9
9
9
9
10
11
12
13
13
13
13
13
14
16
18
19
18
17
18
19
19
20
22
23
23
24
25
26
27
29
31
33
35
35
35
36
37
40
44
47
49
50
51
53
56
59
61
62
63
64
65
66
68
70
71
72
72
70
67
64
60
56
47
38
29
20
12
5
1
-3
-9
-15
-19
-23
-25
-27
-27
-27
-29
-31
-32
-33
-32
-31
-31
-31
-31
-31
-31
-31
-31
-31
-30
-29
-30
-31
-32
-32
-30
-29
-28
-27
-28
-29
-28
-27
-27
-27
-27
-27
-27
-28
-29
-28
-27
-26
-25
-26
-27
-27
-27
-27
-27
-27
-27
-28
-29
-30
-31
-30
-29
-28
-27
-28
-29
-29
-29
-29
-29
-29
-29
-29
-29
-30
-31
-30
-29
-29
-29
-29
-29
-29
-28
-27
-27
-27
-28
-29
-29
-29
-29
-29
-28
-27
-28
-29
-30
-31
-29
-27
-28
-29
-29
-29
-29
-29
-29
-28
-26
-25
-26
-27
-28
-29
-28
-27
-26
-25
-26
-27
-27
-27
-27
-26
-25
-26
-27
-26
-25
-25
-25
-26
-27
-26
-25
-26
-27
-27
-27
-26
-25
-25
-25
-26
-27
-26
-25
-25
-25
-25
-25
-26
-27
-27
-27
-26
-25
-25
-25
-25
-25
-24
-22
-19
-20
-21
-18
-15
-12
-9
-8
-7
-9
-11
-13
-15
-15
-16
-21
-25
-26
-27
-26
-25
-25
-25
-26
-28
-30
-31
-32
-32
-30
-29
-28
-27
-28
-29
-28
-20
-12
11
35
74
37
75
34
-34
-99
-126
-153
-188
-212
-185
-157
-127
-100
-81
-60
-38
-19
-5
3
4
5
6
7
6
5
5
6
8
9
10
11
10
9
10
11
12
13
13
13
13
13
14
17
19
20
21
22
23
24
25
25
25
28
31
31
31
33
35
37
39
41
43
44
46
49
52
55
58
61
63
64
65
66
69
72
74
76
77
77
77
76
75
75
74
71
64
57
49
41
32
24
16
8
1
-6
-13
-19
-22
-25
-27
-29
-31
-34
-37
-39
-39
-39
-39
-39
-39
-39
-40
-41
-41
-41
-40
-39
-39
-39
-39
-39
-39
-38
-36
-35
-35
-37
-37
-36
-35
-35
-35
-35
-35
-35
-35
-35
-35
-33
-31
-32
-33
-34
-35
-35
-35
-35
-35
-35
-35
-36
-37
-38
-39
-38
-37
-37
-37
-38
-39
-39
-39
-38
-37
-38
-39
-39
-39
-39
-38
-37
-38
-39
-38
-37
-38
-39
-38
-37
-37
-37
-38
-39
-39
-39
-38
-37
-37
-37
-38
-39
-38
-37
-37
-37
-37
-37
-38
-39
-39
-38
-36
-35
-35
-35
-36
-37
-36
-35
-35
-36
-37
-37
-37
-36
-35
-34
-33
-34
-35
-36
-37
-35
-33
-33
-33
-34
-35
-35
-35
-34
-33
-32
-31
-32
-33
-33
-33
-32
-31
-31
-31
-31
-31
-32
-33
-32
-31
-30
-29
-29
-30
-31
-29
-27
-25
-23
-24
-25
-23
-21
-16
-13
-12
-11
-13
-15
-16
-17
-19
-22
-27
-29
-29
-29
-28
-27
-27
-27
-28
-30
-32
-33
-33
-33
-33
-32
-30
-29
-29
-29
-29
-26
-23
0
23
49
74
89
91
32
-25
-71
-113
-147
-176
-192
-191
-158
-127
-101
-79
-59
-39
-17
-4
2
5
6
6
4
3
2
2
4
5
6
7
8
9
9
9
10
12
15
14
13
13
13
14
15
17
19
19
19
19
19
21
23
25
27
27
27
28
29
32
34
37
39
40
42
44
46
48
51
56
57
58
59
60
62
64
67
70
71
71
73
73
73
73
71
69
64
58
50
42
35
27
20
13
5
-3
-9
-14
-18
-21
-24
-26
-29
-32
-34
-35
-34
-33
-34
-35
-35
-35
-35
-35
-35
-35
-34
-33
-34
-35
-35
-35
-35
-34
-33
-33
-33
-33
-33
-32
-31
-30
-29
-30
-31
-32
-33
-32
-31
-30
-29
-30
-31
-32
-33
-32
-31
-31
-31
-32
-33
-33
-33
-34
-34
-32
-31
-32
-33
-34
-35
-34
-33
-33
-33
-33
-34
-35
-35
-35
-34
-33
-33
-33
-34
-35
-34
-33
-33
-33
-34
-35
-35
-35
-35
-34
-32
-31
-32
-33
-33
-33
-33
-33
-32
-31
-32
-33
-33
-33
-33
-32
-30
-29
-29
-32
-33
-31
-29
-29
-29
-29
-29
-29
-29
-28
-27
-26
-25
-25
-24
-20
-17
-15
-13
-16
-16
-14
-14
-16
-19
-23
-26
-28
-29
-28
-27
-27
-27
-28
-30
-32
-33
-34
-35
-34
-32
-31
-29
-27
-28
-29
-28
-26
-14
0
24
52
88
101
61
16
-37
-81
-112
-144
-178
-183
-159
-134
-109
-90
-75
-56
-34
-18
-5
0
2
3
3
3
2
2
4
5
5
5
7
8
9
8
7
8
9
11
13
11
9
11
13
14
15
17
19
18
17
18
19
20
22
24
25
25
26
29
31
32
34
36
37
37
39
42
45
48
51
54
55
55
58
59
61
63
64
65
65
65
65
65
65
65
63
59
53
47
41
34
26
18
9
2
-4
-9
-15
-18
-20
-22
-24
-26
-28
-30
-32
-33
-33
-33
-32
-32
-34
-35
-35
-35
-35
-35
-35
-34
-33
-34
-35
-34
-33
-32
-31
-31
-31
-32
-33
-33
-33
-31
-29
-30
-31
-32
-33
-32
-31
-30
-29
-29
-29
-30
-31
-32
-32
-30
-30
-32
-33
-34
-35
-35
-35
-33
-34
-35
-35
-35
-35
-35
-34
-33
-34
-35
-36
-37
-36
-35
-34
-33
-34
-35
-36
-37
-37
-37
-36
-35
-35
-35
-36
-37
-36
-35
-35
-35
-36
-37
-37
-37
-36
-35
-34
-33
-33
-33
-33
-33
-33
-27
-21
-21
-21
-22
-23
-22
-21
-20
-20
-25
-30
-34
-37
-35
-33
-32
-31
-32
-35
-39
-41
-42
-42
-40
-39
-39
-39
-38
-37
-36
-35
-34
-33
-32
-14
4
31
57
80
97
34
-27
-76
-123
-163
-194
-188
-175
-143
-116
-97
-79
-59
-39
-19
-7
-5
-3
-4
-5
-4
-3
-3
-3
-3
-3
-2
-1
0
1
2
3
4
5
4
4
6
7
9
9
9
9
9
10
11
13
15
16
17
17
17
19
22
25
27
28
29
30
32
35
38
40
42
44
46
48
50
52
55
58
59
60
61
60
60
62
63
64
64
65
58
55
50
45
39
32
23
14
6
-2
-8
-14
-19
-24
-27
-30
-33
-35
-36
-37
-37
-37
-38
-39
-40
-41
-41
-41
-40
-39
-39
-39
-40
-41
-40
-39
-38
-37
-37
-37
-37
-37
-37
-36
-35
-36
-37
-37
-37
-36
-35
-34
-33
-34
-35
-35
-35
-34
-33
-33
-33
-34
-35
-36
-37
-36
-35
-36
-37
-37
-37
-38
-39
-38
-37
-36
-35
-36
-37
-38
-39
-38
-37
-35
-36
-37
-38
-39
-39
-39
-37
-35
-35
-35
-36
-37
-37
-37
-36
-35
-36
-37
-37
-37
-37
-37
-36
-35
-35
-35
-36
-37
-36
-35
-35
-35
-35
-35
-36
-37
-36
-35
-34
-33
-33
-35
-35
-35
-35
-35
-35
-35
-35
-35
-35
-35
-35
-33
-31
-32
-33
-33
-33
-31
-29
-28
-28
-30
-29
-23
-20
-18
-17
-17
-17
-18
-19
-20
-23
-26
-29
-32
-33
-33
-33
-32
-31
-31
-34
-37
-38
-39
-38
-37
-37
-37
-35
-33
-34
-35
-34
-33
-32
-24
-7
15
41
67
93
72
12
-45
-99
-136
-164
-189
-212
-193
-157
-129
-104
-83
-64
-41
-17
-8
0
1
1
0
-1
-1
-1
0
1
3
5
5
5
3
1
3
5
7
9
9
9
9
9
12
13
14
15
16
17
17
17
17
19
22
23
23
23
24
27
30
32
34
35
35
38
39
42
45
49
53
54
55
57
59
60
61
64
67
67
67
67
67
69
71
70
67
62
55
48
39
29
21
15
7
-2
-9
-15
-20
-24
-26
-28
-31
-34
-35
-36
-38
-39
-38
-37
-38
-39
-40
-41
-40
-39
-39
-39
-39
-39
-39
-39
-38
-37
-36
-35
-35
-35
-35
-35
-34
-33
-33
-33
-33
-33
-34
-35
-34
-33
-32
-31
-32
-33
-33
-33
-33
-33
-33
-34
-35
-35
-35
-35
-35
-34
-33
-34
-35
-35
-35
-35
-35
-34
-33
-34
-35
-36
-37
-36
-35
-34
-33
-34
-35
-35
-35
-35
-35
-34
-33
-34
-35
-35
-35
-34
-33
-33
-33
-33
-33
-33
-33
-33
-32
-31
-32
-33
-34
-35
-34
-33
-32
-31
-31
-31
-31
-31
-30
-29
-29
-29
-29
-29
-30
-31
-30
-29
-29
-29
-29
-29
-30
-31
-30
-29
-28
-27
-28
-29
-29
-28
-27
-26
-25
-26
-27
-28
-29
-28
-27
-26
-25
-26
-27
-27
-27
-27
-27
-26
-25
-25
-25
-26
-27
-26
-25
-25
-25
-24
-23
-24
-25
-25
-24
-22
-21
-21
-21
-20
-19
-19
-16
-11
-9
-7
-8
-9
-9
-9
-8
-7
-10
-14
-20
-25
-24
-22
-19
-17
-18
-20
-24
-27
-28
-29
-28
-27
-27
-27
-26
-25
-24
-23
-22
-21
-20
-4
16
45
76
87
96
26
97
-92
-134
-167
-197
-192
-182
-147
-113
-92
-71
-50
-30
-9
5
7
9
9
9
9
9
10
11
12
13
13
13
14
15
16
17
17
17
18
19
20
21
22
23
23
23
23
24
25
28
31
30
29
31
33
34
35
37
39
40
41
43
46
49
52
55
57
58
60
63
66
68
70
73
75
75
76
78
79
80
81
82
81
78
75
72
67
62
55
47
38
29
20
11
4
-3
-7
-11
-15
-19
-22
-25
-26
-27
-27
-27
-29
-31
-32
-33
-33
-32
-30
-29
-30
-31
-31
-31
-31
-30
-28
-27
-28
-29
-30
-31
-30
-28
-26
-25
-25
-27
-27
-27
-27
-26
-25
-26
-27
-27
-27
-27
-27
-26
-25
-26
-27
-28
-29
-28
-27
-27
-27
-28
-29
-30
-31
-30
-29
-29
-29
-29
-29
-30
-31
-31
-31
-30
-29
-30
-31
-31
-30
-29
-28
-27
-28
-29
-29
-29
-29
-29
-29
-29
-29
-29
-29
-29
-28
-27
-27
-27
-28
-29
-30
-30
-28
-27
-27
-27
-27
-27
-28
-29
-28
-27
-26
-25
-26
-27
-27
-27
-27
-27
-25
-25
-25
-26
-27
-27
-27
-26
-25
-25
-25
-26
-27
-26
-25
-24
-23
-24
-25
-25
-25
-25
-24
-22
-21
-20
-19
-19
-19
-19
-15
-9
-7
-7
-8
-10
-11
-10
-9
-9
-12
-9
-20
-23
-21
-19
-19
-19
-20
-21
-24
-27
-27
-27
-26
-25
-25
-25
-25
-25
-23
-21
-18
-16
-14
-3
17
42
71
89
103
64
3
-44
-86
-126
-166
-173
-174
-148
-117
-96
-76
-58
-41
-18
3
7
11
10
9
11
13
13
13
13
13
13
13
15
17
18
19
19
19
19
19
20
21
22
23
23
23
23
23
24
27
30
31
31
31
31
31
32
35
39
40
41
42
43
44
45
50
55
56
57
58
59
62
65
67
69
69
69
71
73
74
76
78
78
75
73
72
69
66
61
55
46
35
28
21
13
6
2
-2
-7
-3
-15
-17
-19
-21
-21
-21
-23
-25
-26
-27
-27
-27
-26
-25
-26
-27
-27
-27
-26
-25
-25
-25
-25
-25
-26
-26
-24
-23
-23
-23
-23
-23
-23
-23
-23
-23
-22
-21
-22
-23
-24
-24
-23
-23
-23
-24
-25
-25
-25
-25
-25
-25
-25
-26
-27
-28
-29
-28
-27
-26
-25
-26
-27
-27
-27
-27
-27
-27
-27
-27
-27
-28
-29
-28
-27
-27
-27
-27
-27
-28
-29
-28
-27
-27
-27
-27
-27
-27
-27
-27
-26
-25
-26
-27
-27
-27
-27
-27
-26
-25
-25
-25
-24
-23
-24
-23
-19
-16
-13
-11
-12
-13
-13
-13
-13
-13
-13
-17
-24
-25
-26
-25
-22
-21
-21
-25
-29
-30
-31
-30
-29
-30
-31
-31
-31
-29
-27
-26
-25
-25
-22
-13
2
23
50
84
95
83
46
-11
-54
-89
-127
-168
-171
-155
-133
-108
-90
-74
-55
-36
-19
-3
-1
-1
1
3
2
1
1
1
1
1
3
5
7
9
7
5
6
7
8
9
11
13
13
13
13
13
14
16
18
19
19
19
18
18
20
22
24
25
26
27
28
30
32
34
37
39
41
42
43
46
49
51
53
54
55
56
57
58
59
60
61
60
59
58
57
54
51
46
39
31
23
16
9
3
-3
-9
-14
-20
-24
-28
-30
-32
-33
-32
-32
-31
-35
-35
-35
-35
-35
-35
-37
-39
-39
-39
-37
-35
-36
-37
-37
-37
-36
-35
-35
-35
-34
-33
-34
-35
-36
-36
-34
-33
-33
-33
-34
-35
-36
-37
-36
-35
-34
-33
-34
-36
-38
-38
-37
-36
-35
-36
-37
-38
-39
-39
-39
-38
-37
-38
-39
-39
-39
-39
-39
-39
-39
-39
-39
-40
-41
-40
-39
-39
-39
-39
-39
-40
-41
-40
-39
-39
-39
-39
-39
-40
-41
-40
-39
-39
-39
-39
-39
-39
-39
-39
-38
-37
-38
-39
-39
-39
-38
-37
-37
-37
-36
-35
-35
-35
-35
-33
-28
-25
-24
-23
-24
-25
-25
-25
-24
-26
-32
-36
-40
-41
-40
-37
-34
-34
-33
-40
-43
-44
-45
-44
-43
-43
-43
-42
-41
-40
-39
-38
-37
-36
-29
-13
8
36
63
88
71
11
-46
-101
-141
-172
-191
-205
-185
-150
-125
-104
-83
-63
-40
-18
-12
-8
-7
-7
-8
-9
-7
-5
-5
-5
-4
-3
-2
-1
0
1
0
-1
-1
-1
1
3
4
5
5
5
6
8
10
11
12
13
13
14
16
18
20
22
24
25
26
28
30
32
34
37
41
43
45
46
47
50
53
55
57
58
59
60
61
62
63
64
64
61
58
55
51
46
40
33
24
15
6
-2
-9
-15
-19
-24
-28
-32
-35
-38
-39
-40
-41
-40
-40
-39
-42
-41
-42
-43
-42
-41
-42
-43
-43
-43
-42
-41
-40
-39
-39
-39
-38
-37
-37
-37
-36
-35
-36
-37
-37
-37
-37
-37
-36
-35
-36
-37
-37
-37
-37
-37
-36
-35
-36
-37
-37
-38
-39
-38
-37
-38
-39
-40
-41
-40
-39
-39
-39
-40
-41
-41
-41
-40
-39
-38
-37
-37
-38
-40
-40
-38
-37
-37
-37
-37
-37
-38
-39
-39
-39
-38
-37
-37
-37
-37
-37
-37
-37
-35
-35
-35
-36
-37
-36
-35
-35
-35
-35
-35
-36
-37
-36
-35
-34
-33
-33
-33
-34
-35
-34
-33
-33
-33
-33
-33
-33
-33
-33
-33
-32
-31
-31
-32
-34
-35
-34
-33
-32
-31
-31
-31
-31
-31
-31
-30
-29
-30
-31
-31
-31
-29
-27
-26
-25
-25
-24
-21
-18
-15
-13
-13
-13
-13
-14
-16
-17
-18
-22
-27
-29
-29
-29
-28
-27
-26
-26
-28
-31
-34
-35
-35
-34
-33
-30
-27
-28
-29
-29
-29
-26
-19
3
26
53
77
93
81
19
-40
-92
-134
-164
-185
-197
-183
-145
-115
-90
-68
-48
-27
-7
2
6
7
8
8
6
5
6
7
8
10
13
12
11
12
13
13
13
15
17
17
17
19
21
21
21
22
23
24
25
25
25
28
29
29
30
32
33
34
37
40
42
44
45
45
47
50
53
56
58
60
62
61
67
69
70
71
74
77
77
77
77
77
77
77
75
72
67
61
54
46
38
30
21
14
7
-1
-8
-13
-17
-20
-22
-25
-28
-29
-30
-31
-31
-31
-30
-30
-32
-33
-33
-33
-33
-31
-29
-30
-31
-31
-31
-30
-29
-28
-27
-28
-29
-29
-29
-28
-27
-26
-25
-26
-27
-27
-27
-27
-27
-26
-26
-28
-29
-29
-29
-29
-29
-28
-27
-28
-29
-29
-29
-29
-29
-29
-29
-29
-31
-33
-32
-31
-30
-29
-29
-29
-29
-29
-29
-29
-29
-29
-30
-31
-31
-31
-30
-29
-28
-27
-28
-29
-30
-31
-30
-29
-29
-29
-29
-29
-30
-31
-30
-29
-28
-27
-27
-29
-29
-28
-27
-27
-27
-27
-27
-28
-29
-28
-27
-27
-27
-27
-27
-27
-27
-27
-27
-26
-25
-26
-27
-27
-27
-26
-25
-25
-25
-25
-25
-26
-27
-26
-25
-24
-23
-24
-25
-26
-26
-25
-24
-23
-24
-25
-24
-23
-22
-21
-20
-19
-19
-18
-13
-9
-8
-7
-7
-7
-7
-8
-10
-13
-18
-21
-22
-23
-22
-21
-21
-21
-22
-24
-26
-27
-28
-29
-29
-28
-26
-24
-21
-22
-23
-23
-22
-13
-2
23
50
86
106
74
31
-36
-92
-125
-158
-191
-199
-169
-139
-109
-85
-64
-42
-20
-6
3
7
8
9
10
11
11
11
10
10
12
13
14
15
15
15
17
17
17
19
21
21
21
21
21
21
21
24
27
26
25
27
29
30
31
34
35
35
35
36
38
41
44
46
48
50
52
54
56
58
61
64
65
66
67
68
71
73
75
77
78
79
77
75
74
73
69
63
55
47
39
31
24
17
9
2
-5
-11
-15
-19
-23
-25
-26
-28
-30
-31
-31
-31
-31
-31
-30
-29
-30
-31
-32
-33
-33
-32
-29
-30
-31
-31
-31
-30
-29
-29
-29
-30
-31
-30
-29
-29
-29
-28
-27
-28
-29
-30
-31
-30
-29
-29
-29
-29
-29
-30
-31
-30
-29
-29
-29
-30
-31
-31
-31
-32
-33
-32
-31
-31
-34
-35
-34
-33
-33
-33
-33
-33
-33
-33
-34
-35
-33
-31
-32
-33
-33
-33
-33
-33
-33
-33
-33
-33
-33
-33
-34
-35
-34
-33
-33
-33
-33
-33
-33
-33
-32
-31
-32
-33
-33
-33
-33
-31
-29
-30
-31
-31
-31
-31
-31
-30
-29
-30
-31
-31
-31
-30
-29
-27
-25
-25
-23
-19
-17
-16
-15
-15
-15
-15
-16
-18
-22
-26
-27
-28
-29
-28
-27
-27
-28
-30
-32
-35
-36
-37
-37
-37
-35
-33
-32
-31
-31
-31
-30
-27
-20
-7
18
47
82
95
74
35
-23
-67
-99
-137
-179
-188
-177
-155
-127
-106
-86
-68
-51
-31
-10
-4
0
1
1
1
1
-1
-1
1
3
4
5
5
5
4
3
5
7
8
9
10
11
10
9
10
11
14
15
15
15
15
16
18
20
22
23
23
23
24
26
28
30
32
34
36
37
38
42
45
48
51
52
53
55
57
58
59
61
63
62
61
62
63
63
63
61
57
51
43
35
27
19
12
7
1
-6
-12
-17
-21
-24
-25
-26
-28
-30
-32
-34
-35
-35
-35
-33
-34
-35
-36
-37
-37
-37
-35
-33
-34
-35
-36
-37
-35
-33
-33
-33
-34
-35
-34
-33
-34
-34
-32
-31
-31
-31
-31
-31
-31
-31
-31
-31
-32
-33
-34
-35
-34
-33
-33
-33
-33
-34
-35
-35
-35
-34
-33
-34
-35
-36
-37
-36
-35
-34
-33
-34
-35
-35
-35
-35
-35
-34
-33
-34
-35
-36
-36
-34
-33
-33
-33
-33
-33
-33
-33
-33
-33
-32
-31
-32
-33
-34
-34
-33
-32
-31
-32
-33
-30
-27
-29
-31
-29
-26
-22
-19
-19
-19
-20
-20
-17
-15
-17
-20
-23
-27
-31
-33
-32
-31
-30
-30
-32
-34
-36
-37
-37
-37
-37
-37
-38
-37
-34
-33
-31
-31
-31
-31
-30
-14
3
30
58
85
94
47
-1
-49
-92
-127
-157
-180
-181
-154
-129
-108
-89
-74
-55
-34
-18
-7
-3
-2
-1
-1
-1
-2
-3
-3
-2
0
1
2
3
3
3
5
5
5
7
9
7
5
7
9
9
9
11
13
14
15
15
15
16
17
20
21
22
23
24
26
28
30
32
34
36
38
40
42
44
47
50
51
52
53
54
57
59
60
61
61
61
60
59
58
57
53
47
39
31
24
17
10
3
-2
-7
-12
-17
-21
-24
-27
-29
-29
-30
-34
-35
-36
-37
-37
-37
-36
-35
-36
-37
-37
-37
-37
-36
-33
-34
-35
-36
-37
-36
-35
-34
-33
-33
-33
-33
-33
-33
-33
-32
-31
-32
-33
-33
-33
-33
-33
-32
-32
-34
-35
-35
-35
-35
-35
-34
-33
-34
-35
-36
-37
-37
-37
-36
-35
-35
-38
-39
-38
-37
-36
-35
-37
-39
-39
-39
-38
-37
-36
-35
-36
-37
-37
-37
-36
-35
-35
-35
-36
-37
-37
-37
-36
-35
-35
-35
-35
-35
-35
-35
-36
-37
-36
-35
-35
-35
-36
-36
-35
-35
-35
-35
-35
-35
-35
-35
-35
-34
-33
-32
-31
-31
-31
-31
-29
-23
-19
-18
-18
-20
-21
-20
-19
-19
-22
-27
-31
-35
-35
-32
-31
-30
-29
-30
-33
-36
-38
-40
-40
-37
-37
-37
-37
-37
-36
-35
-34
-33
-31
-25
-5
17
46
71
89
78
19
-37
-88
-130
-163
-186
-199
-185
-149
-121
-99
-78
-59
-37
-13
-5
-2
-1
-1
-1
-1
0
2
3
3
2
3
2
1
3
5
6
7
6
5
7
9
10
11
12
13
13
13
13
14
17
19
19
19
20
22
24
26
28
29
29
30
32
34
36
39
42
44
46
47
48
52
55
58
61
61
61
62
63
64
65
67
69
68
67
63
60
55
49
44
37
28
19
10
2
-4
-10
-15
-20
-25
-29
-32
-33
-34
-35
-35
-35
-36
-37
-38
-39
-39
-39
-37
-37
-37
-38
-39
-38
-37
-36
-35
-35
-35
-35
-35
-34
-33
-33
-33
-33
-33
-34
-35
-34
-33
-32
-31
-32
-33
-33
-33
-33
-33
-32
-32
-34
-35
-36
-37
-37
-36
-34
-33
-33
-36
-37
-36
-35
-35
-35
-36
-37
-37
-37
-37
-37
-36
-35
-36
-37
-38
-39
-38
-37
-36
-35
-36
-37
-37
-37
-37
-37
-36
-35
-35
-35
-36
-37
-36
-35
-35
-35
-35
-35
-35
-35
-35
-33
-31
-32
-33
-34
-35
-34
-33
-32
-31
-32
-33
-33
-33
-33
-33
-32
-31
-31
-31
-32
-33
-33
-32
-30
-30
-32
-33
-33
-33
-32
-31
-31
-31
-31
-31
-31
-31
-31
-31
-29
-30
-31
-31
-31
-29
-27
-25
-23
-25
-27
-26
-24
-18
-13
-13
-13
-15
-17
-18
-19
-19
-21
-25
-28
-30
-30
-28
-27
-26
-26
-28
-32
-36
-37
-38
-38
-36
-34
-32
-31
-31
-31
-31
-30
-28
-15
0
23
49
83
100
59
11
-54
-109
-141
-172
-204
-209
-174
-142
-113
-89
-70
-49
-26
-12
-3
1
2
3
2
1
1
2
4
5
6
7
6
5
6
8
9
11
13
13
13
13
13
14
15
16
17
18
19
18
17
19
21
23
25
25
26
28
30
32
34
36
38
40
41
42
45
48
51
54
55
56
58
60
62
64
66
69
70
71
71
71
71
71
70
69
65
60
53
45
37
29
22
14
5
-3
-9
-15
-20
-24
-27
-30
-32
-34
-36
-37
-38
-39
-38
-37
-38
-39
-40
-41
-40
-39
-38
-37
-37
-38
-37
-37
-37
-36
-35
-35
-35
-36
-37
-36
-35
-34
-33
-34
-35
-35
-35
-35
-35
-35
-35
-35
-35
-36
-37
-37
-37
-36
-35
-36
-37
-38
-39
-38
-37
-37
-37
-38
-39
-39
-39
-39
-37
-35
-37
-39
-38
-37
-38
-39
-38
-37
-37
-37
-38
-39
-39
-39
-38
-37
-37
-37
-38
-39
-38
-37
-37
-37
-38
-39
-39
-39
-38
-37
-36
-36
-38
-39
-39
-39
-38
-37
-37
-37
-37
-38
-39
-38
-37
-36
-35
-35
-35
-36
-37
-37
-37
-36
-35
-36
-37
-37
-37
-36
-35
-34
-33
-34
-35
-35
-35
-34
-32
-30
-29
-30
-31
-31
-26
-20
-18
-16
-16
-15
-19
-19
-20
-21
-23
-25
-30
-35
-34
-33
-32
-31
-31
-32
-36
-39
-40
-41
-40
-39
-38
-37
-37
-37
-36
-35
-35
-34
-32
-21
-5
17
42
70
100
56
-2
-53
-103
-141
-178
-193
-206
-173
-140
-118
-97
-80
-62
-39
-19
-10
-3
-3
-3
-4
-5
-4
-3
-1
1
1
1
1
1
2
3
4
5
5
5
6
7
8
9
9
10
12
13
13
14
16
17
19
18
17
19
21
22
23
25
27
28
29
31
33
36
40
43
45
47
49
50
51
54
56
59
61
61
61
62
63
64
65
65
64
62
57
50
44
38
31
24
13
23
-4
-9
-14
-19
-22
-25
-28
-31
-33
-35
-36
-37
-36
-35
-36
-37
-37
-37
-38
-39
-38
-37
-37
-37
-37
-37
-37
-37
-36
-35
-35
-35
-35
-35
-35
-35
-34
-33
-34
-35
-35
-35
-35
-34
-33
-35
-37
-36
-35
-35
-35
-34
-33
-34
-35
-36
-37
-36
-35
-36
-37
-37
-37
-37
-37
-37
-37
-36
-35
-36
-37
-38
-39
-38
-37
-37
-37
-37
-37
-37
-37
-37
-37
-35
-36
-37
-38
-39
-37
-35
-35
-35
-36
-37
-37
-37
-36
-35
-35
-35
-35
-35
-36
-37
-36
-34
-32
-31
-32
-33
-33
-32
-30
-29
-29
-29
-29
-26
-22
-21
-20
-19
-19
-19
-19
-19
-21
-25
-29
-31
-33
-32
-31
-31
-31
-33
-35
-36
-37
-37
-37
-37
-37
-36
-35
-32
-31
-32
-33
-32
-27
-20
-2
22
53
88
86
71
23
-34
-71
-105
-147
-190
-183
-172
-144
-117
-98
-80
-63
-45
-26
-9
-5
-1
0
1
0
-1
-1
-1
1
3
2
1
1
2
4
5
6
7
8
9
9
9
10
11
12
13
13
13
13
14
16
18
20
21
21
22
23
24
25
27
29
31
33
33
33
36
39
42
45
47
49
51
53
54
55
56
58
60
61
61
61
61
61
61
59
56
51
45
37
29
21
14
8
2
-3
1
-13
-17
-20
-23
-24
-25
-27
-29
-31
-33
-33
-33
-32
-31
-32
-33
-33
-33
-33
-33
-32
-31
-32
-33
-33
-32
-30
-29
-29
-29
-29
-29
-30
-31
-30
-29
-29
-29
-29
-29
-30
-31
-31
-30
-29
-29
-29
-30
-31
-31
-31
-30
-29
-30
-31
-33
-35
-34
-33
-32
-31
-32
-33
-33
-33
-32
-31
-31
-31
-32
-33
-33
-33
-34
-35
-34
-33
-34
-35
-35
-35
-35
-34
-31
-32
-33
-34
-35
-34
-33
-32
-31
-32
-33
-34
-35
-33
-31
-29
-27
-28
-29
-27
-24
-19
-17
-17
-17
-18
-19
-19
-19
-20
-24
-29
-31
-32
-33
-32
-31
-31
-32
-34
-36
-35
-38
-37
-36
-35
-34
-33
-33
-33
-33
-33
-32
-29
-18
-4
18
45
79
92
73
33
-33
-82
-117
-154
-192
-192
-166
-141
-115
-96
-80
-60
-40
-23
-8
-3
0
1
0
-1
-2
-2
-1
0
1
1
1
2
3
4
5
5
5
6
7
8
9
9
9
11
13
14
15
14
14
16
17
17
18
20
21
22
23
24
26
28
30
32
33
34
37
40
42
45
47
49
51
53
54
55
58
61
61
61
61
61
62
63
62
60
57
53
48
43
36
29
21
13
5
-2
-8
-14
-19
-22
-24
-26
-28
-31
-34
-35
-35
-35
-34
-33
-33
-36
-37
-36
-35
-35
-35
-35
-35
-36
-37
-36
-35
-34
-33
-33
-33
-33
-33
-33
-33
-32
-31
-32
-33
-33
-33
-33
-33
-32
-31
-31
-32
-34
-35
-34
-33
-33
-33
-33
-33
-34
-35
-35
-35
-35
-35
-35
-35
-35
-35
-35
-35
-35
-36
-37
-37
-37
-37
-37
-36
-35
-35
-35
-36
-37
-36
-35
-35
-35
-35
-35
-36
-37
-36
-35
-34
-33
-33
-33
-34
-35
-34
-33
-33
-33
-33
-34
-35
-34
-33
-33
-33
-33
-33
-33
-33
-32
-31
-30
-29
-30
-31
-32
-33
-32
-30
-27
-25
-26
-27
-28
-26
-21
-18
-16
-15
-15
-16
-18
-19
-19
-20
-22
-28
-23
-33
-31
-30
-29
-29
-29
-32
-35
-36
-37
-37
-37
-36
-35
-35
-35
-33
-31
-31
-31
-28
-20
-4
16
41
69
100
77
25
-30
-86
-125
-158
-183
-207
-181
-145
-119
-93
-73
-54
-30
-7
-2
3
2
1
2
3
3
3
4
5
5
5
5
5
6
7
9
11
10
9
10
11
12
13
13
14
16
17
16
16
18
19
20
21
21
23
26
28
30
31
33
34
35
37
39
42
45
48
51
52
53
55
57
59
61
63
65
65
65
65
65
68
69
69
67
63
58
53
47
40
32
23
15
7
1
-6
-10
-14
-17
-20
-23
-21
-29
-31
-32
-33
-33
-33
-34
-35
-36
-37
-37
-37
-35
-33
-35
-37
-37
-37
-36
-35
-34
-33
-33
-33
-33
-33
-33
-33
-32
-31
-31
-31
-31
-31
-31
-31
-30
-29
-30
-31
-31
-32
-33
-33
-33
-33
-33
-33
-33
-34
-35
-34
-33
-34
-35
-35
-35
-35
-35
-34
-33
-33
-34
-36
-37
-36
-35
-34
-33
-34
-35
-35
-35
-35
-35
-34
-33
-34
-35
-35
-35
-34
-33
-33
-33
-33
-34
-35
-34
-33
-32
-31
-32
-33
-34
-35
-34
-33
-33
-33
-33
-33
-33
-33
-33
-33
-32
-31
-31
-31
-31
-31
-31
-31
-30
-29
-30
-31
-31
-31
-30
-29
-28
-27
-27
-27
-27
-26
-25
-19
-13
-13
-13
-15
-17
-17
-17
-17
-19
-26
-31
-31
-31
-30
-29
-26
-26
-29
-32
-35
-37
-36
-35
-34
-33
-33
-32
-30
-29
-29
-29
-28
-17
-4
18
40
76
111
79
44
-23
-86
-118
-151
-187
-210
-184
-158
-128
-101
-82
-61
-37
-18
-5
3
4
5
4
3
4
5
5
5
6
7
7
7
8
10
12
13
12
11
11
12
14
15
17
17
17
17
17
19
21
23
25
25
25
25
25
27
30
33
35
36
37
39
41
44
46
48
50
52
54
56
58
60
62
64
65
66
67
68
69
70
71
72
73
73
68
65
59
53
46
38
29
20
12
4
-1
-6
-11
-16
-19
-22
-25
-27
-28
-29
-32
-33
-33
-33
-33
-33
-33
-33
-33
-33
-33
-33
-34
-34
-32
-31
-31
-31
-31
-31
-31
-31
-31
-29
-27
-28
-29
-29
-29
-29
-29
-27
-25
-26
-27
-28
-29
-29
-29
-28
-27
-28
-29
-30
-31
-31
-31
-30
-29
-30
-31
-32
-33
-32
-31
-30
-29
-30
-31
-32
-33
-32
-31
-29
-30
-31
-32
-33
-32
-31
-30
-29
-30
-31
-31
-31
-30
-29
-29
-29
-30
-31
-31
-31
-30
-29
-28
-27
-28
-29
-29
-29
-28
-27
-27
-27
-28
-29
-29
-29
-28
-27
-26
-25
-25
-27
-27
-27
-27
-26
-25
-26
-27
-27
-27
-27
-27
-26
-25
-25
-25
-25
-25
-24
-23
-22
-22
-24
-25
-24
-23
-22
-20
-18
-17
-18
-16
-11
-9
-8
-7
-8
-9
-9
-9
-10
-14
-17
-21
-25
-23
-21
-21
-21
-22
-23
-25
-27
-28
-29
-29
-29
-27
-25
-24
-23
-23
-23
-22
-19
-15
0
24
57
95
96
78
23
-45
-85
-117
-155
-194
-187
-173
-143
-112
-92
-71
-52
-32
-14
3
6
9
9
9
9
9
10
11
11
11
12
13
13
13
14
15
16
17
17
18
20
21
21
22
24
25
26
27
26
25
26
28
30
31
32
33
33
35
37
39
41
43
45
46
47
49
51
54
58
62
65
64
64
67
69
70
72
75
76
74
73
74
75
74
72
70
65
59
51
43
35
27
19
10
4
-2
-7
-12
-15
-17
-19
-21
-23
-25
-26
-27
-27
-27
-27
-27
-28
-29
-29
-29
-29
-29
-27
-25
-26
-27
-28
-29
-28
-27
-26
-25
-26
-27
-26
-25
-25
-25
-25
-25
-25
-25
-25
-25
-25
-25
-23
-24
-25
-26
-27
-28
-29
-28
-27
-28
-29
-29
-29
-28
-27
-27
-27
-28
-29
-30
-31
-30
-29
-28
-27
-28
-29
-29
-29
-28
-27
-28
-29
-29
-29
-29
-29
-29
-29
-28
-27
-27
-29
-29
-28
-27
-27
-27
-28
-29
-29
-29
-28
-27
-26
-25
-26
-27
-27
-27
-27
-27
-26
-25
-26
-27
-27
-26
-24
-23
-22
-21
-21
-20
-18
-14
-10
-9
-9
-9
-10
-11
-12
-14
-15
-20
-25
-25
-25
-24
-23
-23
-23
-25
-27
-29
-31
-31
-31
-30
-29
-28
-27
-26
-25
-26
-27
-26
-15
2
22
44
73
106
86
46
-4
-57
-95
-130
-160
-190
-168
-140
-117
-93
-78
-62
-38
-16
-5
5
5
5
5
5
4
3
4
5
7
9
9
9
9
9
10
11
12
13
13
13
14
15
16
17
17
17
18
19
18
19
22
23
24
25
25
29
31
32
33
35
37
39
41
41
41
44
47
50
53
54
55
57
59
60
61
62
63
64
65
64
63
64
64
62
58
53
46
39
32
25
17
10
4
-2
-7
-12
-16
-19
-20
-21
-23
-25
-27
-29
-30
-31
-30
-29
-30
-31
-31
-31
-31
-31
-30
-29
-30
-31
-31
-31
-30
-29
-29
-29
-28
-27
-28
-29
-29
-28
-26
-26
-28
-29
-29
-29
-28
-27
-25
-26
-27
-29
-31
-31
-31
-30
-29
-30
-31
-32
-33
-33
-33
-32
-31
-32
-33
-34
-35
-35
-35
-34
-33
-34
-35
-35
-35
-35
-35
-35
-35
-36
-37
-36
-35
-35
-35
-35
-35
-35
-37
-37
-36
-35
-35
-35
-36
-37
-36
-35
-36
-37
-35
-33
-33
-33
-33
-33
-32
-31
-31
-30
-27
-24
-22
-21
-22
-23
-22
-21
-22
-25
-28
-32
-36
-36
-34
-33
-33
-33
-34
-39
-43
-42
-41
-41
-41
-41
-41
-40
-39
-37
-35
-35
-35
-34
-26
-6
19
51
75
88
63
-1
-55
-99
-136
-169
-186
-194
-176
-144
-120
-98
-79
-61
-40
-18
-11
-6
-5
-5
-5
-5
-5
-5
-5
-5
-4
-3
-1
1
1
1
2
3
3
3
4
5
5
5
5
5
8
10
12
13
12
11
12
13
14
17
20
21
21
21
22
24
26
29
32
34
33
38
39
42
45
48
51
51
51
52
53
55
57
57
57
57
57
56
55
53
49
44
37
28
19
11
4
-2
-8
-13
-18
-23
-28
-32
-34
-36
-37
-37
-38
-40
-41
-42
-44
-45
-43
-41
-42
-43
-43
-43
-42
-41
-40
-39
-40
-41
-42
-43
-42
-41
-39
-37
-38
-39
-39
-39
-38
-37
-36
-35
-36
-37
-38
-39
-39
-39
-38
-37
-38
-39
-40
-41
-41
-41
-39
-40
-41
-41
-41
-41
-41
-41
-41
-41
-41
-42
-43
-42
-41
-41
-41
-42
-43
-43
-43
-43
-43
-42
-41
-42
-43
-43
-43
-43
-43
-42
-41
-41
-41
-42
-43
-42
-41
-40
-39
-39
-41
-41
-41
-41
-40
-39
-40
-41
-41
-41
-40
-39
-39
-39
-40
-41
-40
-39
-39
-39
-39
-39
-39
-39
-40
-40
-38
-37
-37
-37
-37
-37
-37
-37
-37
-37
-37
-37
-37
-37
-38
-36
-33
-32
-31
-32
-33
-30
-27
-23
-19
-20
-21
-21
-21
-23
-25
-27
-30
-33
-35
-36
-37
-36
-35
-34
-33
-34
-36
-40
-41
-42
-43
-42
-40
-38
-37
-37
-37
-37
-37
-36
-28
-19
3
27
63
94
76
51
-18
-80
-117
-153
-188
-211
-202
-183
-146
-115
-95
-74
-51
-32
-15
-5
-1
0
-2
-3
-3
-3
-2
-1
0
1
2
3
3
3
3
4
6
7
7
7
7
9
11
12
13
13
13
13
13
15
17
19
21
21
21
22
24
27
29
32
33
34
36
38
40
42
45
48
50
52
54
56
58
60
62
64
65
65
65
66
67
67
66
65
60
55
49
42
34
25
16
7
-1
-8
-15
-20
-24
-27
-29
-31
-33
-36
-38
-39
-39
-39
-39
-39
-40
-41
-41
-41
-41
-41
-40
-39
-39
-39
-39
-39
-39
-38
-35
-36
-37
-36
-35
-35
-35
-34
-33
-33
-33
-34
-35
-34
-33
-33
-33
-33
-33
-34
-35
-35
-35
-34
-33
-34
-35
-36
-37
-36
-35
-35
-35
-35
-36
-38
-39
-38
-37
-36
-35
-35
-37
-37
-36
-35
-35
-35
-35
-35
-36
-37
-36
-35
-34
-33
-34
-35
-36
-37
-36
-35
-34
-33
-34
-35
-35
-35
-35
-35
-34
-33
-33
-33
-34
-35
-34
-33
-32
-31
-31
-31
-32
-33
-33
-32
-31
-31
-31
-31
-31
-30
-29
-29
-29
-30
-31
-31
-31
-32
-33
-31
-29
-29
-29
-30
-30
-28
-27
-27
-27
-28
-29
-29
-29
-29
-28
-26
-25
-26
-27
-27
-27
-27
-27
-25
-25
-25
-26
-27
-26
-25
-23
-21
-21
-21
-21
-20
-16
-12
-9
-7
-9
-11
-11
-11
-12
-14
-16
-19
-25
-26
-24
-23
-22
-21
-21
-24
-28
-29
-30
-31
-30
-28
-26
-25
-25
-25
-25
-25
-25
-21
-14
8
33
69
95
85
58
-9
-68
-108
-145
-179
-197
-191
-172
-138
-110
-87
-66
-45
-25
-5
5
9
11
10
9
9
9
10
11
12
13
13
12
10
12
15
17
19
20
21
19
17
20
23
24
25
25
25
25
25
27
29
30
31
32
33
33
34
36
38
40
42
44
46
48
50
52
56
60
61
62
63
64
66
68
71
75
76
77
77
77
77
77
78
79
76
72
66
59
52
45
36
28
19
10
2
-4
-9
-12
-15
-18
-21
-24
-26
-27
-28
-29
-28
-28
-30
-31
-32
-33
-32
-31
-30
-29
-29
-30
-29
-29
-29
-28
-27
-27
-27
-28
-29
-28
-27
-26
-25
-25
-25
-25
-25
-25
-25
-24
-23
-24
-25
-25
-25
-26
-26
-24
-23
-24
-25
-26
-27
-27
-27
-27
-27
-27
-27
-28
-29
-29
-27
-25
-26
-27
-27
-27
-27
-27
-27
-27
-28
-29
-29
-29
-28
-27
-26
-25
-27
-29
-29
-29
-28
-27
-26
-25
-25
-26
-28
-29
-28
-27
-26
-25
-25
-25
-26
-27
-26
-25
-25
-26
-27
-26
-25
-25
-25
-24
-23
-24
-25
-25
-25
-24
-23
-23
-23
-24
-25
-25
-25
-24
-23
-22
-21
-22
-23
-24
-25
-24
-23
-22
-21
-22
-23
-22
-21
-21
-21
-20
-19
-19
-22
-23
-22
-21
-20
-19
-19
-19
-20
-21
-21
-21
-19
-17
-17
-17
-17
-17
-16
-15
-15
-13
-8
-5
-4
-4
-6
-6
-4
-4
-6
-12
-19
-21
-20
-19
-18
-17
-17
-18
-20
-23
-25
-24
-23
-24
-25
-24
-23
-21
-19
-18
-17
-17
-14
-4
10
32
60
99
106
71
23
-39
-83
-112
-146
-183
-181
-155
-128
-101
-80
-62
-38
-14
-1
9
11
12
13
13
13
13
14
15
15
15
16
17
17
17
18
19
19
19
20
21
21
21
22
23
23
23
24
26
28
29
30
31
30
30
32
34
36
37
38
39
40
43
46
47
48
50
49
56
59
61
63
65
67
66
65
67
69
71
73
74
75
74
73
71
68
65
60
53
46
40
32
23
16
10
5
1
-4
-9
-14
-18
-19
-20
-21
-22
-24
-26
-27
-28
-29
-29
-28
-27
-28
-29
-29
-29
-28
-27
-27
-27
-27
-27
-28
-29
-28
-27
-26
-25
-26
-27
-27
-27
-26
-25
-25
-25
-25
-25
-26
-27
-27
-27
-26
-25
-26
-27
-28
-29
-29
-29
-27
-28
-29
-29
-29
-30
-31
-30
-29
-30
-31
-31
-31
-31
-31
-31
-31
-31
-31
-32
-33
-33
-32
-30
-29
-30
-31
-32
-33
-32
-31
-30
-29
-30
-31
-32
-33
-32
-31
-30
-29
-29
-31
-31
-31
-31
-30
-29
-29
-29
-30
-31
-31
-31
-30
-29
-29
-29
-29
-29
-29
-29
-28
-27
-28
-29
-29
-29
-29
-29
-28
-27
-27
-27
-28
-29
-28
-27
-26
-25
-24
-23
-24
-25
-25
-19
-13
-13
-13
-14
-15
-14
-13
-14
-16
-21
-25
-27
-29
-27
-25
-24
-24
-27
-30
-32
-33
-33
-33
-32
-31
-31
-31
-31
-31
-30
-28
-26
-21
-16
2
23
55
87
89
89
26
-35
-73
-111
-152
-186
-174
-160
-131
-106
-90
-74
-56
-37
-17
-4
0
3
2
1
2
3
4
5
4
3
4
5
6
7
8
9
9
9
9
9
10
11
12
13
13
15
15
16
17
19
21
21
21
21
21
23
25
28
31
31
31
33
35
37
40
43
45
45
46
48
50
53
56
58
59
59
59
60
61
62
63
64
65
64
60
56
51
47
41
35
26
17
9
2
-5
-11
-14
-18
-22
-25
-29
-31
-31
-31
-32
-33
-34
-35
-36
-37
-37
-37
-36
-35
-35
-35
-36
-37
-37
-36
-34
-33
-33
-33
-33
-33
-32
-31
-29
-30
-31
-32
-33
-33
-33
-32
-31
-32
-33
-33
-33
-32
-31
-31
-31
-32
-33
-33
-33
-33
-33
-33
-33
-34
-35
-35
-35
-35
-35
-35
-35
-35
-36
-38
-39
-38
-37
-36
-35
-35
-36
-35
-36
-37
-35
-33
-35
-37
-37
-37
-36
-35
-35
-35
-35
-35
-35
-35
-35
-35
-34
-33
-34
-35
-36
-37
-36
-35
-34
-33
-34
-35
-35
-35
-34
-33
-33
-33
-34
-35
-35
-34
-33
-33
-33
-32
-31
-32
-33
-32
-31
-31
-31
-31
-31
-31
-31
-30
-29
-28
-26
-23
-20
-17
-15
-16
-17
-17
-17
-18
-20
-22
-26
-31
-32
-30
-29
-29
-29
-29
-30
-32
-34
-37
-36
-35
-36
-37
-36
-35
-33
-31
-31
-31
-31
-27
-13
6
35
65
95
89
33
-25
-85
-127
-155
-181
-207
-195
-159
-129
-101
-78
-57
-34
-12
-3
4
4
2
2
4
4
5
3
5
5
5
7
9
10
11
10
9
10
11
13
15
15
15
15
15
17
19
20
21
21
21
21
22
24
27
30
31
32
33
34
36
38
41
44
45
46
48
50
54
57
60
63
64
65
66
67
69
71
73
75
74
73
72
71
69
66
62
56
49
40
30
21
13
6
0
-7
-14
-19
-23
-26
-28
-29
-30
-32
-34
-35
-36
-37
-37
-37
-37
-38
-39
-39
-39
-40
-41
-39
-37
-37
-37
-38
-39
-37
-35
-35
-35
-35
-35
-35
-35
-35
-35
-34
-33
-33
-33
-33
-33
-32
-31
-31
-31
-32
-33
-34
-35
-34
-33
-33
-33
-33
-34
-35
-35
-35
-34
-33
-34
-35
-35
-35
-35
-35
-34
-33
-34
-35
-35
-35
-34
-33
-32
-32
-34
-35
-35
-35
-35
-35
-34
-33
-33
-33
-33
-33
-33
-33
-32
-31
-32
-33
-34
-34
-33
-32
-31
-31
-31
-32
-33
-32
-31
-31
-31
-31
-31
-31
-31
-31
-31
-30
-29
-29
-29
-30
-31
-30
-29
-28
-27
-28
-29
-30
-31
-30
-29
-28
-27
-27
-27
-28
-29
-29
-29
-27
-28
-29
-29
-29
-28
-27
-26
-25
-26
-27
-27
-27
-26
-25
-25
-25
-25
-25
-26
-27
-26
-25
-24
-23
-22
-21
-22
-23
-22
-18
-13
-11
-10
-10
-12
-13
-12
-11
-11
-14
-11
-23
-27
-26
-25
-23
-21
-22
-23
-26
-29
-31
-33
-31
-29
-29
-29
-28
-27
-27
-27
-24
-20
-13
3
26
58
95
95
74
16
-56
-100
-134
-168
-203
-197
-181
-148
-114
-90
-68
-42
-17
-4
9
9
9
8
7
8
9
10
11
11
11
11
11
12
13
15
17
17
17
17
17
18
19
20
21
21
21
21
22
24
25
26
27
28
29
30
32
34
36
39
40
41
42
43
46
49
52
55
56
57
59
61
64
67
69
71
72
73
74
75
78
79
79
79
78
74
69
63
57
50
41
32
23
15
7
0
-6
-10
-14
-20
-15
-29
-31
-32
-33
-33
-33
-34
-35
-36
-37
-36
-35
-35
-35
-36
-37
-36
-35
-35
-35
-34
-33
-34
-35
-35
-35
-34
-33
-32
-31
-32
-33
-32
-31
-30
-29
-29
-29
-30
-31
-32
-32
-31
-31
-31
-32
-33
-34
-35
-34
-33
-33
-33
-34
-35
-35
-35
-35
-35
-35
-35
-35
-35
-36
-37
-36
-35
-35
-35
-35
-35
-36
-37
-37
-36
-34
-33
-34
-35
-36
-37
-36
-35
-33
-34
-35
-35
-35
-35
-35
-33
-31
-33
-35
-35
-35
-34
-33
-33
-33
-33
-33
-34
-35
-34
-33
-32
-31
-32
-33
-33
-33
-33
-33
-32
-31
-32
-33
-33
-33
-33
-33
-32
-31
-31
-31
-31
-31
-31
-30
-29
-30
-31
-32
-33
-32
-31
-30
-29
-30
-31
-31
-31
-30
-29
-29
-29
-29
-29
-29
-28
-26
-25
-24
-23
-24
-22
-17
-14
-12
-11
-12
-13
-13
-15
-18
-22
-25
-28
-31
-29
-27
-27
-27
-28
-29
-31
-33
-34
-35
-35
-35
-34
-33
-31
-29
-30
-31
-31
-26
-16
2
26
57
93
86
59
2
-66
-108
-143
-178
-214
-194
-166
-137
-108
-90
-71
-49
-27
-13
-1
0
1
2
3
2
1
1
1
1
1
3
5
5
5
6
7
8
9
10
11
12
13
13
13
13
14
16
17
17
17
18
19
20
22
24
25
25
29
31
32
33
35
37
39
41
43
45
47
50
54
57
57
58
61
63
63
63
66
67
66
65
65
65
64
61
58
52
45
37
29
21
13
5
-2
-9
-16
-20
-24
-28
-31
-33
-35
-36
-37
-38
-39
-39
-39
-39
-39
-40
-41
-41
-41
-41
-41
-40
-39
-39
-39
-40
-40
-38
-37
-37
-37
-37
-37
-38
-39
-38
-37
-36
-35
-36
-37
-37
-37
-37
-37
-37
-37
-37
-38
-39
-38
-37
-37
-37
-37
-37
-37
-37
-38
-39
-38
-37
-38
-39
-40
-41
-40
-39
-38
-37
-38
-39
-39
-39
-40
-40
-38
-37
-38
-39
-39
-39
-39
-39
-38
-37
-37
-38
-39
-38
-37
-37
-37
-37
-37
-38
-39
-38
-37
-36
-35
-36
-37
-37
-37
-36
-35
-36
-37
-36
-35
-35
-35
-36
-36
-34
-33
-34
-35
-35
-35
-34
-32
-30
-30
-32
-31
-28
-23
-19
-19
-19
-20
-21
-21
-21
-23
-25
-29
-33
-33
-33
-32
-31
-32
-33
-34
-35
-37
-39
-39
-39
-39
-38
-35
-33
-33
-33
-34
-32
-27
-9
13
40
69
80
88
38
-19
-56
-93
-136
-177
-181
-182
-151
-122
-101
-80
-63
-45
-25
-10
-5
-1
-1
-1
-1
-1
-2
-2
1
3
3
3
3
3
4
5
5
6
8
9
9
9
9
9
10
12
14
15
15
14
13
15
17
19
21
22
23
22
21
26
29
31
33
34
36
39
41
43
45
48
49
50
51
52
54
56
58
60
61
62
63
62
61
62
61
58
53
48
41
34
25
17
12
7
0
-7
-12
-17
-20
-23
-25
-27
-29
-31
-33
-35
-35
-35
-35
-35
-35
-35
-35
-35
-35
-35
-34
-33
-34
-35
-35
-35
-34
-33
-32
-31
-31
-31
-32
-33
-33
-32
-29
-30
-31
-32
-33
-32
-31
-30
-29
-30
-31
-32
-33
-32
-31
-31
-31
-32
-33
-34
-35
-35
-35
-34
-33
-34
-35
-35
-35
-35
-35
-34
-34
-36
-37
-37
-37
-36
-35
-35
-35
-35
-37
-37
-37
-37
-35
-33
-34
-35
-36
-37
-36
-35
-35
-35
-35
-35
-35
-35
-35
-35
-34
-33
-34
-35
-36
-37
-36
-35
-35
-35
-35
-35
-35
-33
-30
-29
-29
-29
-29
-26
-22
-19
-17
-18
-19
-19
-19
-20
-21
-25
-29
-32
-35
-34
-33
-33
-33
-33
-34
-37
-39
-40
-41
-41
-40
-38
-37
-36
-35
-35
-35
-35
-33
-30
-13
7
32
57
78
99
48
-11
-59
-107
-145
-181
-189
-194
-161
-130
-109
-88
-71
-52
-31
-14
-8
-3
-2
-1
-2
-3
-4
-5
-2
-1
0
1
1
1
2
3
4
5
5
5
5
5
6
7
8
9
10
11
11
12
13
14
15
17
19
20
21
22
23
24
25
28
31
32
33
35
37
39
42
45
47
48
50
52
54
56
59
62
63
62
61
61
61
62
62
60
54
48
41
34
25
17
11
5
-2
-9
-15
-21
-24
-27
-29
-31
-34
-37
-39
-41
-40
-39
-39
-39
-39
-40
-42
-43
-42
-41
-40
-39
-39
-39
-40
-41
-40
-38
-36
-35
-35
-35
-35
-35
-35
-35
-33
-34
-35
-35
-35
-34
-33
-33
-33
-34
-35
-36
-37
-36
-35
-34
-33
-35
-37
-38
-39
-38
-37
-37
-37
-37
-37
-38
-39
-38
-37
-37
-37
-38
-39
-40
-41
-40
-39
-38
-37
-37
-39
-39
-38
-37
-37
-37
-37
-37
-38
-39
-38
-37
-36
-35
-36
-37
-37
-37
-37
-37
-36
-35
-36
-37
-38
-38
-36
-35
-35
-35
-35
-35
-36
-37
-36
-35
-35
-35
-35
-35
-35
-34
-33
-33
-33
-33
-33
-34
-35
-34
-33
-33
-33
-34
-35
-35
-35
-34
-33
-32
-31
-32
-33
-33
-33
-32
-31
-31
-31
-32
-33
-33
-33
-33
-32
-30
-29
-30
-31
-30
-29
-28
-27
-27
-27
-27
-23
-19
-16
-13
-13
-13
-15
-17
-19
-21
-22
-24
-28
-31
-31
-31
-30
-29
-29
-30
-32
-33
-34
-35
-35
-35
-35
-34
-32
-31
-31
-31
-32
-27
-20
3
27
64
29
76
48
-24
-91
-122
-154
-189
-216
-198
-176
-142
-111
-89
-66
-45
-25
-9
1
2
3
3
3
2
1
2
3
4
5
6
7
8
9
9
9
10
11
12
13
12
11
12
13
13
16
19
18
17
19
21
21
21
24
27
27
27
28
29
31
34
38
41
41
42
44
46
48
51
55
58
60
61
62
63
64
67
70
71
72
73
73
72
70
69
67
62
57
48
38
29
20
13
6
-2
-10
-15
-20
-24
-28
-31
-33
-35
-37
-38
-39
-40
-41
-40
-39
-40
-41
-41
-41
-41
-41
-40
-39
-40
-41
-41
-41
-40
-39
-38
-37
-37
-37
-37
-36
-35
-34
-33
-34
-35
-36
-37
-36
-35
-33
-31
-32
-33
-34
-35
-35
-35
-35
-35
-36
-37
-37
-37
-38
-39
-38
-37
-38
-39
-38
-37
-37
-37
-36
-36
-38
-39
-39
-39
-39
-37
-35
-37
-39
-38
-37
-37
-37
-36
-35
-35
-35
-36
-37
-37
-37
-36
-35
-36
-37
-36
-35
-35
-35
-34
-33
-34
-35
-36
-37
-36
-35
-34
-33
-33
-33
-33
-33
-34
-35
-33
-34
-35
-35
-35
-34
-33
-33
-33
-33
-33
-33
-33
-32
-31
-31
-31
-32
-33
-33
-33
-32
-31
-31
-31
-31
-31
-32
-32
-30
-29
-30
-31
-31
-31
-31
-31
-30
-29
-28
-27
-27
-29
-29
-28
-27
-25
-23
-24
-25
-22
-19
-16
-13
-13
-13
-13
-13
-15
-17
-19
-23
-28
-31
-30
-29
-28
-27
-27
-27
-28
-31
-34
-35
-34
-33
-32
-31
-30
-29
-29
-29
-29
-26
-23
0
23
54
81
89
84
19
-43
-89
-131
-161
-187
-203
-200
-162
-128
-101
-77
-57
-37
-15
-2
4
7
7
7
7
7
6
5
5
7
10
11
10
9
10
11
12
13
15
16
17
17
17
18
19
21
23
22
21
23
25
25
25
27
29
31
33
33
33
36
38
41
43
44
46
48
51
55
59
62
63
63
64
66
68
70
73
76
77
77
77
77
77
77
74
70
63
56
50
43
34
25
18
11
3
-5
-11
-16
-19
-22
-25
-28
-30
-31
-32
-33
-33
-33
-33
-33
-34
-35
-35
-35
-35
-35
-34
-33
-33
-33
-33
-33
-33
-31
-29
-30
-31
-31
-31
-29
-27
-27
-27
-28
-29
-29
-29
-28
-27
-27
-27
-28
-29
-29
-29
-29
-29
-28
-27
-28
-29
-30
-31
-31
-31
-30
-29
-30
-31
-31
-31
-31
-31
-29
-30
-31
-32
-33
-32
-31
-31
-31
-30
-29
-31
-33
-31
-29
-29
-29
-29
-29
-30
-31
-30
-29
-29
-29
-29
-29
-29
-29
-29
-29
-29
-29
-29
-29
-29
-29
-29
-29
-28
-27
-27
-28
-29
-28
-27
-27
-27
-27
-27
-28
-29
-28
-27
-26
-25
-26
-27
-27
-27
-27
-27
-26
-25
-25
-25
-26
-27
-27
-27
-26
-25
-26
-27
-26
-25
-25
-25
-24
-23
-24
-25
-24
-22
-21
-20
-19
-18
-17
-13
-9
-8
-7
-8
-9
-10
-11
-13
-17
-23
-27
-25
-23
-23
-23
-23
-24
-26
-27
-28
-29
-30
-31
-30
-29
-28
-26
-24
-23
-23
-22
-20
-1
20
46
73
92
108
49
-7
-52
-96
-128
-159
-180
-190
-158
-128
-104
-81
-61
-41
-20
-4
3
7
8
9
9
9
9
9
9
9
10
11
12
13
13
13
14
15
14
15
18
19
19
17
17
19
21
22
23
24
25
25
25
26
27
29
31
32
33
35
37
39
41
44
45
46
47
48
51
55
58
60
61
62
63
64
66
68
70
72
73
73
72
70
69
69
66
63
56
48
40
32
24
16
10
4
-2
-8
-13
-17
-19
-21
-22
-24
-27
-29
-29
-29
-30
-31
-30
-30
-32
-33
-33
-33
-33
-32
-30
-29
-29
-29
-30
-31
-30
-28
-25
-26
-27
-27
-27
-27
-27
-26
-25
-25
-25
-26
-27
-26
-25
-25
-25
-26
-27
-27
-27
-28
-28
-26
-25
-26
-27
-28
-29
-29
-29
-28
-27
-28
-29
-30
-31
-31
-31
-30
-29
-29
-31
-31
-31
-31
-29
-27
-28
-29
-30
-31
-31
-31
-30
-29
-29
-29
-30
-31
-30
-29
-28
-27
-28
-29
-29
-29
-29
-29
-28
-27
-28
-29
-29
-29
-28
-27
-27
-27
-27
-27
-27
-28
-29
-27
-25
-26
-27
-27
-27
-27
-27
-25
-23
-23
-23
-23
-23
-22
-21
-20
-18
-14
-11
-10
-9
-10
-11
-10
-10
-12
-17
-23
-25
-25
-24
-22
-21
-22
-24
-26
-28
-30
-31
-29
-29
-29
-29
-29
-28
-27
-25
-23
-23
-20
-8
7
30
56
89
101
80
42
-15
-59
-89
-124
-164
-177
-170
-150
-121
-99
-81
-61
-40
-22
-5
1
4
5
5
5
6
7
7
5
5
5
5
9
13
12
11
11
11
12
13
14
15
15
15
16
17
17
17
20
21
21
21
22
23
24
26
28
29
30
31
32
34
36
39
42
43
44
46
48
51
53
56
59
60
61
62
63
64
65
66
67
68
69
67
65
63
59
54
48
41
33
24
16
8
3
-1
-6
-13
-17
-21
-24
-26
-27
-28
-30
-32
-33
-34
-35
-35
-35
-35
-36
-37
-37
-37
-36
-35
-35
-35
-35
-35
-35
-35
-34
-33
-32
-31
-32
-33
-34
-35
-34
-33
-32
-31
-32
-33
-33
-33
-33
-33
-32
-32
-34
-35
-35
-35
-35
-35
-35
-35
-35
-36
-37
-37
-37
-36
-35
-36
-37
-38
-39
-39
-39
-38
-37
-37
-37
-38
-39
-38
-37
-37
-37
-37
-37
-38
-39
-38
-37
-36
-35
-36
-37
-38
-39
-38
-37
-36
-35
-36
-37
-38
-39
-39
-38
-37
-38
-39
-38
-37
-37
-37
-36
-35
-36
-37
-38
-39
-38
-37
-36
-35
-35
-35
-34
-33
-33
-33
-32
-28
-23
-21
-21
-21
-22
-23
-22
-21
-22
-26
-30
-33
-36
-36
-33
-33
-33
-35
-37
-40
-43
-43
-43
-42
-41
-42
-43
-41
-39
-38
-37
-37
-37
-36
-27
-8
19
54
75
86
46
-27
-79
-122
-158
-191
-202
-206
-179
-144
-120
-98
-75
-53
-32
-51
-8
-5
-5
-5
-5
-5
-5
-5
-5
-5
-3
-1
0
1
1
1
1
1
2
3
6
7
7
7
7
7
8
10
12
13
13
13
14
15
16
19
22
23
23
24
26
30
33
35
37
39
41
44
47
49
51
52
53
55
57
58
59
61
63
64
65
64
62
59
55
51
46
40
32
22
12
2
-6
-13
-19
-24
-29
-34
-37
-40
-41
-42
-43
-45
-46
-47
-48
-49
-49
-49
-48
-47
-48
-49
-49
-49
-49
-49
-48
-47
-47
-47
-48
-49
-48
-46
-44
-43
-44
-45
-45
-45
-44
-43
-42
-42
-44
-45
-45
-45
-44
-43
-43
-43
-43
-44
-45
-44
-43
-43
-43
-44
-45
-46
-47
-47
-47
-46
-45
-46
-47
-47
-47
-46
-45
-45
-45
-45
-45
-46
-47
-46
-45
-45
-45
-45
-45
-46
-47
-46
-45
-45
-45
-45
-45
-45
-45
-45
-44
-43
-44
-45
-45
-45
-45
-45
-44
-43
-43
-43
-43
-43
-43
-43
-42
-41
-41
-41
-41
-41
-41
-41
-40
-39
-40
-41
-41
-41
-41
-41
-41
-41
-41
-41
-41
-41
-40
-39
-39
-40
-41
-41
-41
-40
-39
-39
-39
-39
-39
-39
-39
-39
-39
-38
-37
-37
-37
-38
-39
-38
-37
-36
-35
-36
-37
-37
-37
-37
-37
-36
-35
-34
-33
-33
-33
-33
-27
-20
-19
-19
-21
-23
-23
-23
-23
-23
-30
-35
-37
-39
-37
-35
-33
-31
-33
-36
-39
-41
-42
-43
-40
-39
-39
-39
-38
-37
-37
-37
-36
-31
-25
-7
16
48
83
82
73
8
-64
-105
-144
-177
-209
-204
-197
-163
-131
-107
-84
-63
-43
-23
-7
-4
-1
-1
-1
-2
-3
-1
1
1
1
1
1
1
2
5
7
7
7
7
7
6
8
12
13
14
15
14
14
16
17
19
20
21
22
23
22
21
24
27
29
31
32
33
35
38
41
44
47
50
53
55
56
58
61
63
64
66
68
69
69
70
72
73
73
71
68
63
58
51
44
36
43
18
9
2
-5
-12
-19
-23
-27
-30
-33
-36
-39
-38
-37
-38
-39
-40
-41
-41
-41
-41
-41
-41
-41
-41
-41
-41
-40
-38
-37
-38
-39
-38
-37
-37
-37
-36
-35
-35
-35
-35
-34
-33
-32
-31
-32
-33
-33
-33
-33
-33
-33
-33
-34
-35
-36
-37
-36
-35
-35
-35
-35
-35
-35
-35
-35
-35
-34
-34
-36
-37
-37
-37
-36
-35
-34
-33
-34
-35
-35
-35
-35
-35
-33
-34
-35
-35
-35
-35
-35
-34
-33
-33
-33
-33
-33
-33
-33
-32
-31
-32
-33
-33
-33
-32
-31
-30
-29
-30
-31
-31
-31
-30
-29
-29
-29
-29
-30
-32
-32
-30
-29
-28
-27
-27
-29
-29
-29
-29
-28
-27
-27
-27
-28
-29
-28
-27
-26
-25
-26
-27
-27
-27
-27
-27
-24
-24
-26
-27
-27
-27
-26
-25
-24
-23
-24
-25
-26
-26
-24
-22
-20
-19
-19
-19
-19
-14
-9
-7
-5
-7
-9
-10
-11
-11
-12
-17
-21
-22
-23
-22
-21
-21
-21
-22
-24
-27
-29
-30
-30
-28
-27
-26
-25
-25
-25
-25
-25
-24
-14
-2
17
38
74
112
76
33
-25
-83
-116
-148
-179
-204
-171
-139
-114
-90
-71
-52
-29
-10
1
9
10
11
10
9
9
9
9
10
12
13
13
13
13
14
16
17
18
19
18
17
18
19
20
22
24
24
25
24
27
28
29
29
29
29
29
32
35
36
37
40
43
44
45
47
49
51
54
59
61
62
63
64
66
68
70
72
73
73
74
76
77
77
77
76
71
66
59
52
44
37
29
21
13
5
-3
-9
-12
-15
-17
-19
-22
-25
-27
-29
-29
-29
-29
-29
-29
-29
-30
-31
-30
-29
-29
-29
-29
-29
-30
-31
-31
-30
-28
-27
-27
-27
-28
-29
-29
-28
-25
-26
-27
-27
-27
-27
-27
-26
-25
-26
-27
-28
-29
-28
-27
-27
-27
-28
-29
-29
-29
-29
-29
-29
-29
-29
-30
-32
-33
-32
-31
-30
-29
-30
-31
-32
-33
-33
-33
-32
-31
-31
-32
-33
-32
-31
-30
-29
-29
-29
-30
-31
-31
-31
-30
-29
-29
-29
-30
-31
-30
-29
-28
-28
-30
-31
-32
-32
-30
-29
-28
-28
-30
-31
-30
-29
-29
-29
-28
-27
-28
-29
-30
-30
-29
-28
-27
-27
-27
-26
-25
-24
-23
-23
-23
-20
-17
-16
-15
-15
-15
-14
-13
-13
-15
-19
-23
-27
-29
-28
-27
-26
-25
-26
-30
-34
-35
-34
-33
-33
-33
-33
-32
-30
-29
-27
-28
-29
-28
-25
-7
12
37
62
89
97
48
-1
-49
-94
-131
-161
-179
-177
-148
-124
-103
-85
-68
-49
-28
-13
-3
1
1
1
2
3
3
3
3
3
4
5
6
7
7
6
7
8
9
10
11
11
11
11
11
12
13
15
17
17
17
18
19
20
21
22
24
26
27
27
27
28
31
35
37
38
39
40
42
44
47
50
52
54
55
55
56
57
59
61
61
61
61
61
60
59
57
54
46
39
32
24
15
7
1
-5
-11
-17
-22
-26
-28
-29
-30
-32
-34
-35
-36
-37
-37
-37
-36
-36
-38
-39
-39
-39
-38
-37
-37
-37
-37
-37
-37
-37
-37
-36
-35
-35
-35
-35
-35
-35
-35
-34
-33
-34
-35
-36
-37
-37
-37
-36
-35
-35
-35
-36
-37
-37
-37
-36
-36
-38
-39
-39
-39
-39
-39
-39
-39
-39
-41
-41
-41
-41
-40
-39
-40
-41
-41
-41
-41
-41
-40
-39
-39
-39
-40
-41
-40
-39
-39
-39
-40
-41
-42
-43
-42
-41
-40
-39
-40
-41
-41
-41
-40
-39
-39
-39
-40
-41
-41
-40
-39
-38
-37
-38
-39
-39
-39
-39
-39
-38
-37
-38
-39
-38
-37
-37
-37
-36
-35
-35
-35
-34
-33
-33
-30
-25
-23
-22
-22
-24
-24
-22
-21
-22
-26
-30
-34
-38
-39
-38
-35
-31
-32
-33
-37
-41
-43
-45
-43
-41
-41
-41
-40
-39
-38
-37
-36
-35
-35
-29
-15
5
31
60
94
82
35
-22
-84
-124
-152
-182
-212
-195
-163
-137
-111
-91
-71
-48
-25
-14
-23
-3
-3
-3
-3
-3
-3
-3
-3
-2
-1
0
1
2
3
4
5
5
5
7
9
9
9
9
9
10
11
12
14
16
17
17
17
18
20
22
24
26
27
28
29
30
34
37
40
43
44
45
47
49
53
57
59
61
62
63
64
65
67
69
69
69
67
65
64
60
52
46
41
32
21
12
4
-3
-9
-15
-20
-24
-28
-31
-34
-35
-36
-37
-39
-39
-39
-40
-41
-41
-41
-41
-41
-42
-43
-43
-43
-42
-41
-41
-41
-41
-41
-41
-41
-40
-39
-38
-37
-37
-37
-37
-37
-37
-37
-36
-35
-35
-35
-36
-37
-37
-37
-36
-35
-35
-35
-35
-36
-37
-36
-35
-35
-35
-37
-39
-38
-37
-36
-35
-36
-37
-37
-37
-38
-39
-36
-35
-36
-37
-38
-38
-36
-35
-35
-35
-36
-37
-37
-37
-37
-37
-36
-35
-36
-37
-38
-37
-35
-34
-33
-34
-35
-35
-35
-35
-35
-34
-33
-34
-35
-35
-35
-35
-35
-34
-33
-33
-33
-34
-35
-34
-33
-32
-31
-31
-31
-32
-33
-33
-33
-32
-31
-32
-33
-33
-33
-32
-31
-29
-30
-31
-32
-33
-32
-31
-30
-29
-29
-29
-30
-31
-30
-29
-29
-29
-29
-29
-29
-29
-29
-29
-28
-27
-27
-27
-28
-29
-28
-27
-27
-27
-27
-27
-28
-29
-28
-27
-26
-25
-25
-26
-25
-24
-23
-22
-21
-20
-19
-15
-11
-10
-9
-10
-11
-12
-13
-14
-16
-20
-23
-26
-26
-24
-23
-24
-25
-26
-27
-28
-29
-30
-31
-32
-33
-32
-30
-28
-27
-27
-27
-27
-13
1
27
53
84
104
48
-9
-72
-126
-152
-176
-199
-204
-168
-136
-111
-87
-67
-45
-23
-7
1
6
8
9
9
9
8
7
8
9
10
11
12
13
12
12
14
15
16
17
19
19
19
19
19
21
23
25
27
27
27
27
27
29
31
33
35
36
37
38
40
43
46
48
50
52
54
57
61
64
66
68
69
70
71
72
75
78
80
82
83
83
80
79
77
75
71
66
57
48
37
28
19
11
4
-3
-9
-14
-18
-22
-25
-27
-28
-30
-32
-33
-34
-35
-35
-35
-34
-33
-34
-35
-35
-35
-35
-35
-34
-33
-33
-33
-33
-33
-33
-32
-31
-31
-31
-30
-29
-29
-29
-29
-29
-29
-29
-30
-31
-30
-29
-28
-27
-28
-29
-29
-29
-29
-29
-29
-29
-30
-31
-31
-31
-31
-31
-30
-29
-30
-31
-31
-31
-31
-31
-31
-31
-31
-32
-33
-32
-31
-30
-29
-30
-31
-32
-33
-32
-31
-30
-29
-30
-31
-31
-31
-31
-31
-30
-29
-29
-29
-29
-29
-29
-29
-28
-27
-28
-29
-29
-29
-29
-28
-26
-25
-25
-28
-29
-28
-27
-26
-25
-26
-27
-27
-27
-27
-27
-26
-25
-26
-27
-27
-27
-26
-25
-25
-25
-25
-25
-25
-25
-25
-24
-22
-22
-24
-25
-25
-25
-24
-23
-22
-21
-22
-23
-24
-24
-23
-23
-23
-23
-23
-23
-23
-22
-21
-21
-21
-22
-23
-23
-23
-23
-23
-21
-19
-19
-19
-19
-18
-15
-11
-7
-5
-5
-6
-8
-9
-10
-11
-12
-17
-22
-23
-22
-21
-20
-19
-19
-22
-25
-27
-29
-28
-27
-26
-25
-24
-23
-23
-23
-22
-21
-20
-12
6
28
53
77
100
78
16
-42
-96
-138
-173
-189
-195
-171
-134
-108
-86
-67
-50
-28
-6
3
10
11
11
10
9
10
11
12
13
13
13
14
15
15
15
17
19
19
19
19
19
20
21
24
25
25
25
25
25
26
28
30
31
32
33
33
34
36
39
42
43
44
46
48
52
55
58
61
63
65
67
69
71
73
75
77
77
77
77
77
78
79
78
75
70
64
58
51
43
35
28
20
10
2
-6
-12
-16
-19
-22
-25
-28
-29
-29
-30
-32
-33
-33
-34
-35
-35
-35
-35
-35
-34
-33
-34
-35
-35
-35
-34
-33
-33
-33
-33
-33
-33
-33
-33
-33
-32
-31
-32
-33
-33
-33
-32
-31
-31
-31
-31
-31
-32
-33
-33
-33
-32
-31
-31
-33
-33
-33
-33
-33
-33
-34
-35
-36
-37
-35
-33
-33
-33
-34
-35
-36
-37
-36
-35
-35
-35
-35
-35
-36
-37
-36
-35
-35
-35
-35
-35
-36
-37
-36
-35
-34
-33
-34
-35
-36
-36
-35
-35
-35
-35
-35
-35
-35
-35
-35
-34
-33
-34
-35
-35
-35
-35
-35
-35
-35
-34
-33
-34
-35
-35
-35
-34
-33
-34
-35
-35
-35
-35
-34
-32
-31
-32
-33
-34
-35
-34
-33
-33
-33
-33
-34
-35
-34
-33
-32
-31
-31
-31
-32
-33
-30
-27
-27
-27
-26
-24
-21
-19
-18
-17
-17
-17
-17
-18
-20
-23
-26
-28
-30
-31
-31
-31
-30
-31
-34
-35
-35
-35
-35
-38
-39
-37
-35
-33
-31
-32
-33
-32
-29
-19
-5
19
47
83
95
61
17
-40
-85
-117
-152
-188
-191
-164
-139
-116
-95
-77
-57
-37
-22
-8
-4
-2
-1
-1
-1
-2
-3
-3
-2
-1
1
3
2
1
3
5
6
7
8
9
7
5
6
7
8
10
13
15
14
14
16
17
17
18
20
21
22
23
23
25
28
31
34
35
34
35
38
41
44
47
51
53
55
55
55
57
59
61
63
63
63
62
61
61
60
56
51
45
37
28
20
13
6
-1
-8
-14
-19
-23
-27
-30
-31
-32
-34
-36
-37
-38
-39
-39
-39
-39
-39
-39
-41
-41
-41
-41
-39
-37
-38
-39
-40
-41
-40
-39
-38
-37
-37
-37
-38
-39
-38
-37
-37
-37
-37
-37
-37
-37
-37
-37
-36
-35
-35
-35
-36
-37
-37
-37
-36
-36
-38
-39
-39
-39
-39
-38
-37
-38
-39
-40
-41
-40
-39
-40
-41
-41
-41
-41
-41
-40
-39
-39
-39
-40
-41
-41
-41
-41
-41
-40
-39
-40
-41
-41
-41
-41
-40
-38
-38
-40
-41
-41
-41
-40
-39
-37
-38
-39
-40
-41
-40
-39
-38
-37
-37
-37
-37
-37
-37
-37
-37
-37
-37
-37
-35
-33
-33
-33
-32
-29
-25
-23
-23
-23
-23
-23
-22
-22
-24
-27
-30
-33
-36
-36
-34
-33
-33
-33
-35
-37
-39
-40
-41
-40
-39
-40
-41
-39
-37
-36
-35
-36
-36
-32
-20
1
25
50
71
89
66
11
-39
-85
-121
-151
-176
-197
-180
-150
-126
-103
-82
-62
-39
-17
-10
-4
-3
-3
-2
-1
-1
-1
-2
-3
-2
-1
1
3
3
3
3
3
4
5
7
9
9
9
9
9
10
11
12
13
14
15
15
16
18
20
22
23
24
25
25
27
30
32
35
37
39
41
43
46
49
52
55
55
55
57
59
61
63
64
65
65
65
63
61
60
57
53
47
40
32
24
16
8
1
-5
-10
-16
-21
-26
-28
-30
-31
-32
-34
-33
-38
-39
-39
-39
-38
-37
-39
-41
-40
-39
-40
-41
-40
-39
-38
-37
-37
-37
-36
-35
-35
-35
-35
-35
-35
-35
-35
-35
-34
-33
-33
-33
-33
-33
-33
-33
-32
-31
-32
-33
-34
-35
-35
-34
-33
-33
-33
-34
-35
-35
-35
-34
-33
-34
-35
-36
-37
-36
-35
-34
-33
-34
-35
-35
-35
-35
-35
-34
-33
-33
-34
-36
-37
-36
-35
-34
-33
-33
-34
-36
-35
-32
-31
-29
-29
-29
-29
-29
-24
-19
-18
-17
-18
-19
-20
-21
-21
-22
-26
-30
-33
-35
-34
-33
-30
-29
-30
-32
-35
-37
-38
-39
-38
-37
-36
-35
-35
-35
-35
-35
-34
-26
-18
4
-17
59
91
92
88
29
-29
-72
-114
-154
-186
-191
-186
-152
-123
-104
-85
-66
-46
-23
-9
-2
1
1
1
0
-1
0
1
2
3
4
5
5
5
5
7
10
11
11
11
11
10
9
12
15
17
19
19
19
21
23
24
25
25
25
26
27
29
31
33
35
37
39
40
43
47
50
53
55
55
57
60
61
62
65
68
69
70
71
70
70
72
73
71
67
63
57
50
41
32
25
18
10
2
-5
-12
-16
-20
-23
-25
-27
-30
-33
-35
-35
-35
-34
-33
-34
-35
-36
-37
-37
-37
-36
-35
-35
-35
-36
-37
-36
-35
-34
-33
-33
-33
-33
-32
-31
-30
-29
-30
-31
-32
-33
-32
-31
-30
-29
-30
-31
-31
-31
-31
-31
-31
-31
-31
-31
-32
-33
-33
-33
-33
-33
-33
-33
-33
-33
-33
-33
-33
-33
-34
-35
-35
-34
-33
-32
-31
-32
-33
-33
-33
-32
-31
-30
-29
-29
-29
-29
-28
-25
-21
-16
-13
-14
-16
-18
-19
-18
-17
-18
-23
-30
-33
-33
-32
-30
-28
-26
-26
-28
-33
-38
-39
-38
-37
-35
-34
-33
-33
-33
-32
-31
-30
-29
-27
-20
1
24
50
76
102
100
50
-2
-55
-100
-136
-169
-200
-193
-159
-129
-104
-82
-63
-41
-17
-7
-1
1
2
3
2
1
2
3
3
5
5
7
9
9
9
11
13
13
13
13
13
15
17
17
17
17
17
18
19
22
24
26
27
27
27
28
31
34
35
36
39
42
43
44
47
50
52
54
56
58
61
63
66
69
69
69
69
69
72
75
75
75
72
68
63
57
50
43
35
28
20
11
3
-3
-8
-12
-15
-19
-23
-26
-28
-29
-28
-27
-27
-27
-28
-29
-30
-31
-30
-29
-29
-30
-31
-31
-31
-30
-29
-28
-27
-28
-29
-29
-29
-28
-27
-26
-25
-26
-27
-27
-27
-27
-27
-26
-25
-26
-27
-28
-29
-28
-27
-27
-27
-28
-29
-30
-31
-31
-31
-30
-29
-29
-31
-33
-32
-31
-31
-31
-32
-33
-34
-35
-34
-33
-32
-31
-32
-33
-32
-31
-30
-29
-28
-26
-24
-22
-20
-19
-18
-17
-17
-17
-18
-20
-22
-27
-34
-35
-34
-33
-32
-31
-30
-33
-37
-37
-37
-38
-39
-39
-39
-38
-37
-35
-33
-33
-33
-33
-32
-28
-16
8
34
64
83
92
67
10
-38
-81
-125
-170
-185
-185
-164
-134
-112
-93
-76
-60
-38
-15
-8
-2
-1
-1
-2
-3
-3
-3
-3
-3
-1
1
1
1
1
1
3
5
6
7
7
7
7
7
8
10
12
13
13
13
14
15
16
18
20
21
22
23
23
24
26
29
32
33
33
37
39
42
45
47
49
49
49
50
51
53
55
56
57
57
57
57
57
55
53
50
45
37
29
22
15
8
2
-3
-7
-11
-16
-21
-24
-26
-27
-27
-28
-30
-32
-34
-34
-33
-32
-31
-32
-33
-34
-35
-34
-33
-32
-31
-32
-33
-32
-31
-32
-33
-32
-31
-30
-29
-30
-31
-30
-29
-29
-29
-29
-29
-30
-31
-31
-31
-30
-29
-29
-29
-29
-29
-30
-31
-33
-32
-31
-32
-33
-34
-35
-34
-33
-33
-33
-35
-37
-36
-35
-35
-35
-35
-35
-36
-37
-37
-37
-36
-35
-35
-35
-36
-37
-36
-35
-35
-35
-36
-37
-37
-37
-36
-34
-32
-31
-31
-32
-33
-29
-25
-22
-19
-21
-23
-23
-23
-23
-23
-26
-30
-35
-39
-38
-36
-33
-31
-32
-35
-39
-42
-44
-45
-44
-43
-42
-41
-40
-39
-38
-37
-37
-36
-34
-29
-24
-2
20
55
89
87
80
13
-52
-94
-135
-174
-202
-186
-166
-136
-110
-91
-72
-50
-31
-14
-5
-4
-3
-4
-5
-5
-5
-4
-3
-2
-1
-1
-1
0
2
4
5
5
5
5
5
5
6
9
10
11
11
11
12
13
15
17
18
19
20
21
22
23
25
27
28
29
31
33
36
38
41
43
44
46
48
50
52
55
58
59
59
59
59
59
60
61
61
59
61
51
47
41
35
28
20
13
6
-1
-8
-14
-19
-22
-25
-27
-30
-33
-35
-36
-37
-37
-37
-37
-37
-38
-39
-39
-38
-36
-36
-38
-39
-39
-39
-38
-37
-36
-35
-35
-35
-35
-33
-31
-30
-29
-30
-31
-31
-31
-32
-33
-31
-29
-30
-31
-31
-31
-31
-31
-31
-31
-31
-31
-32
-33
-34
-35
-34
-33
-34
-35
-35
-35
-35
-35
-34
-33
-33
-33
-34
-35
-35
-35
-33
-34
-35
-35
-35
-35
-35
-35
-35
-35
-35
-36
-37
-35
-33
-33
-33
-33
-33
-34
-35
-34
-33
-32
-31
-32
-33
-33
-33
-32
-31
-30
-29
-30
-31
-32
-33
-32
-30
-28
-28
-27
-31
-31
-30
-29
-28
-27
-28
-29
-30
-31
-30
-29
-28
-27
-28
-29
-28
-27
-27
-27
-27
-27
-27
-27
-28
-29
-28
-26
-24
-23
-24
-25
-25
-25
-25
-25
-24
-23
-24
-25
-25
-25
-25
-24
-23
-24
-25
-25
-25
-24
-23
-22
-21
-22
-23
-22
-21
-22
-23
-22
-21
-22
-23
-23
-23
-22
-21
-21
-21
-21
-21
-21
-21
-21
-21
-20
-19
-20
-21
-21
-21
-20
-19
-19
-19
-19
-20
-21
-20
-19
-19
-19
-19
-19
-20
-21
-20
-19
-18
-17
-18
-19
-19
-19
-19
-19
-18
-17
-17
-17
-18
-19
-19
-18
-16
-15
-16
-17
-18
-19
-19
-18
-16
-15
-15
-18
-19
-17
-15
-15
-15
-15
-15
-16
-17
-17
-17
-16
-15
-15
-15
-16
-17
-17
-17
-16
-15
-16
-17
-17
-17
-17
-17
-16
-15
-15
-15
-14
-13
-13
-12
-10
-6
-2
-1
-1
-3
-5
-4
-3
-5
-7
-12
-17
-18
-19
-17
-15
-14
-13
-17
-19
-21
-23
-23
-23
-23
-23
-22
-21
-20
-19
-18
-17
-17
-5
14
41
72
87
97
37
-39
-89
-135
-157
-178
-182
-187
-150
-114
-89
-65
-40
-17
-1
13
15
17
16
15
15
15
17
19
18
17
17
17
18
20
22
23
23
23
23
23
24
26
28
29
30
31
31
31
32
33
34
35
35
38
39
41
43
46
49
49
49
51
53
55
57
60
63
65
67
69
72
75
77
80
81
81
81
82
84
86
87
87
86
84
80
75
69
62
55
46
36
26
17
8
1
-5
-8
-11
-15
-19
-22
-25
-26
-27
-28
-29
-29
-29
-30
-31
-31
-31
-30
-29
-30
-31
-31
-31
-30
-29
-28
-27
-27
-27
-27
-27
-27
-26
-24
-23
-24
-25
-25
-25
-25
-25
-23
-24
-25
-25
-25
-25
-25
-24
-23
-24
-25
-26
-27
-26
-25
-25
-25
-26
-27
-28
-29
-29
-29
-28
-27
-28
-29
-30
-31
-30
-29
-28
-27
-28
-29
-29
-29
-29
-29
-28
-27
-27
-29
-29
-29
-29
-29
-29
-29
-29
-30
-31
-30
-29
-27
-25
-26
-27
-28
-29
-28
-27
-27
-27
-27
-27
-27
-27
-27
-27
-26
-25
-26
-27
-27
-27
-27
-27
-26
-25
-26
-27
-27
-27
-27
-25
-23
-25
-27
-27
-27
-26
-25
-25
-25
-25
-25
-25
-25
-25
-25
-24
-23
-24
-25
-25
-25
-25
-25
-24
-23
-23
-24
-26
-27
-26
-24
-22
-22
-24
-25
-24
-23
-24
-25
-23
-23
-23
-24
-25
-24
-23
-23
-23
-23
-23
-23
-23
-23
-23
-23
-23
-23
-23
-24
-25
-24
-23
-22
-21
-21
-21
-22
-23
-23
-23
-22
-21
-22
-23
-23
-23
-22
-21
-21
-21
-21
-23
-23
-22
-21
-21
-21
-21
-21
-22
-23
-22
-21
-21
-21
-22
-23
-23
-23
-22
-21
-21
-21
-22
-23
-23
-23
-22
-21
-20
-19
-19
-18
-16
-12
-8
-7
-8
-9
-9
-9
-10
-12
-13
-18
-23
-23
-23
-22
-21
-21
-21
-23
-25
-27
-29
-30
-31
-31
-30
-27
-25
-26
-27
-26
-25
-24
-14
3
23
45
72
99
68
13
-38
-88
-124
-156
-171
-184
-155
-123
-101
-79
-62
-44
-24
-5
0
5
6
7
6
5
5
5
6
7
8
9
9
9
9
9
9
10
12
13
13
13
13
13
14
16
18
19
19
19
19
19
20
23
26
27
27
27
29
31
33
36
39
40
41
43
45
47
50
54
57
58
59
60
61
62
63
64
65
66
67
66
65
65
62
57
51
45
37
27
19
11
5
0
-7
-14
-19
-24
-27
-29
-30
-31
-33
-35
-36
-37
-37
-37
-37
-37
-38
-39
-40
-41
-40
-39
-38
-37
-38
-39
-39
-39
-38
-37
-36
-35
-36
-37
-37
-37
-36
-35
-34
-33
-34
-35
-35
-35
-35
-35
-33
-34
-35
-36
-37
-36
-35
-34
-33
-33
-33
-35
-37
-36
-35
-35
-35
-35
-35
-36
-37
-38
-38
-36
-35
-36
-37
-38
-39
-38
-37
-37
-37
-38
-39
-39
-39
-38
-37
-36
-35
-35
-38
-39
-38
-37
-37
-37
-37
-37
-38
-39
-38
-37
-36
-35
-35
-35
-36
-37
-36
-35
-35
-35
-35
-35
-36
-37
-37
-37
-36
-35
-35
-35
-36
-37
-36
-35
-34
-33
-34
-35
-35
-35
-35
-34
-33
-34
-35
-35
-35
-34
-33
-32
-31
-33
-35
-34
-33
-34
-35
-33
-31
-31
-31
-32
-33
-33
-33
-32
-31
-32
-33
-33
-33
-32
-31
-30
-29
-30
-31
-31
-31
-31
-31
-29
-30
-31
-32
-33
-32
-31
-30
-29
-29
-29
-29
-29
-29
-29
-29
-29
-29
-29
-29
-29
-29
-29
-28
-27
-28
-29
-29
-29
-29
-29
-28
-27
-28
-29
-30
-31
-30
-29
-28
-27
-27
-28
-27
-28
-29
-28
-27
-27
-27
-26
-25
-20
-16
-11
-7
-7
-8
-11
-14
-17
-19
-22
-23
-24
-25
-25
-26
-29
-31
-31
-31
-31
-31
-32
-32
-30
-29
-29
-29
-29
-20
-10
14
38
75
106
68
25
-40
-98
-121
-146
-180
-199
-173
-147
-118
-91
-69
-46
-21
-5
1
5
4
3
4
5
6
7
6
5
5
6
8
10
12
12
10
10
12
13
14
16
19
18
17
18
19
20
21
23
25
25
25
26
27
29
31
33
35
36
37
39
42
45
48
51
54
56
57
58
61
65
68
70
71
72
73
74
75
76
78
80
80
81
75
73
67
61
54
46
36
26
17
8
1
-6
-10
-15
-21
-26
-29
-31
-33
-35
-35
-35
-36
-37
-38
-39
-39
-39
-38
-37
-38
-39
-39
-39
-39
-39
-38
-37
-38
-39
-38
-37
-37
-35
-33
-34
-35
-34
-33
-33
-33
-33
-33
-33
-33
-33
-33
-33
-33
-32
-31
-31
-31
-32
-33
-32
-31
-31
-31
-32
-33
-33
-33
-34
-34
-32
-31
-32
-33
-34
-35
-34
-33
-31
-32
-33
-34
-35
-34
-33
-32
-31
-32
-33
-33
-33
-33
-33
-32
-31
-32
-33
-33
-33
-33
-33
-32
-31
-31
-31
-31
-31
-30
-29
-28
-27
-28
-29
-30
-31
-31
-30
-28
-27
-27
-29
-29
-28
-27
-28
-29
-29
-29
-29
-29
-29
-29
-27
-25
-26
-27
-27
-27
-26
-25
-25
-25
-25
-25
-26
-27
-27
-27
-26
-25
-25
-25
-25
-25
-25
-25
-24
-23
-24
-25
-26
-25
-23
-22
-21
-22
-23
-24
-25
-24
-23
-22
-21
-22
-23
-23
-23
-23
-23
-22
-21
-22
-23
-23
-23
-23
-23
-22
-21
-21
-21
-22
-23
-22
-21
-20
-19
-19
-19
-20
-21
-21
-21
-19
-19
-19
-20
-21
-21
-21
-19
-17
-18
-19
-20
-21
-20
-19
-18
-17
-17
-17
-18
-19
-18
-17
-17
-17
-17
-17
-18
-19
-18
-17
-16
-15
-16
-17
-17
-16
-14
-13
-12
-9
-11
-3
-1
-1
-1
-2
-3
-4
-5
-7
-10
-15
-19
-19
-19
-17
-15
-16
-17
-19
-21
-22
-23
-24
-25
-25
-25
-24
-22
-20
-19
-19
-19
-18
0
23
57
93
92
86
14
-61
-99
-135
-162
-187
-184
-177
-143
-112
-89
-67
-44
-23
-4
9
11
13
14
15
14
13
13
13
14
15
16
18
20
21
21
21
21
21
21
23
26
27
26
25
26
27
28
30
33
33
33
34
35
35
35
38
41
41
41
43
46
50
54
57
59
60
62
65
67
70
73
77
79
80
82
84
86
88
89
90
91
90
89
89
86
82
77
72
63
71
42
31
22
13
7
0
-7
-13
-17
-21
-23
-25
-27
-29
-31
-33
-33
-33
-34
-35
-34
-33
-34
-35
-36
-37
-36
-35
-35
-35
-36
-37
-36
-35
-35
-34
-32
-31
-32
-33
-34
-33
-31
-30
-29
-29
-29
-30
-31
-30
-29
-29
-29
-29
-29
-30
-31
-31
-31
-30
-29
-30
-31
-31
-31
-31
-31
-30
-30
-32
-33
-33
-32
-30
-29
-30
-31
-31
-31
-32
-32
-30
-29
-29
-29
-29
-31
-33
-31
-29
-28
-27
-28
-29
-29
-29
-29
-29
-28
-27
-28
-29
-29
-29
-28
-27
-27
-27
-28
-29
-29
-29
-28
-27
-26
-25
-26
-27
-28
-29
-29
-29
-28
-27
-27
-27
-27
-26
-25
-25
-25
-26
-27
-27
-27
-26
-25
-25
-25
-25
-25
-25
-25
-25
-25
-24
-23
-24
-25
-25
-25
-24
-23
-23
-23
-23
-23
-24
-24
-22
-21
-21
-21
-21
-21
-22
-23
-23
-21
-19
-20
-21
-22
-23
-22
-21
-21
-21
-21
-21
-21
-21
-21
-21
-20
-19
-19
-19
-20
-21
-21
-21
-20
-19
-19
-19
-20
-21
-20
-19
-18
-17
-18
-19
-19
-18
-16
-15
-13
-14
-15
-14
-13
-8
-3
-2
-1
-3
-5
-5
-5
-6
-8
-13
-17
-18
-19
-18
-17
-16
-16
-18
-20
-23
-25
-25
-24
-22
-21
-20
-19
-19
-19
-20
-19
-16
4
25
54
27
95
105
42
-19
-62
-103
-134
-162
-178
-184
-150
-119
-95
-73
-55
-35
-13
3
9
13
13
13
13
13
13
13
14
15
16
17
17
17
18
19
19
19
20
21
21
21
22
24
25
27
29
29
29
29
29
32
35
36
37
37
37
39
41
42
44
47
49
50
52
54
57
61
64
66
68
70
72
74
75
76
80
84
85
85
85
85
85
85
85
83
78
73
65
56
47
38
31
24
16
8
1
-5
-8
-12
-15
-18
-22
-25
-26
-27
-28
-29
-28
-27
-28
-29
-30
-31
-30
-29
-29
-29
-30
-31
-32
-33
-32
-30
-28
-27
-27
-29
-29
-28
-27
-26
-25
-26
-27
-26
-25
-26
-27
-25
-23
-24
-25
-26
-27
-26
-25
-25
-25
-25
-25
-26
-27
-27
-27
-26
-25
-25
-25
-26
-27
-27
-27
-26
-25
-26
-27
-28
-28
-27
-26
-25
-26
-27
-27
-27
-27
-27
-26
-25
-26
-27
-28
-29
-27
-25
-26
-27
-26
-25
-26
-27
-27
-27
-26
-25
-26
-27
-27
-27
-27
-27
-26
-25
-25
-25
-26
-27
-26
-25
-23
-24
-25
-25
-25
-25
-25
-24
-23
-23
-23
-24
-25
-24
-23
-22
-21
-22
-23
-23
-23
-23
-23
-22
-21
-22
-23
-23
-23
-22
-21
-21
-21
-21
-21
-22
-23
-22
-21
-20
-19
-19
-22
-23
-22
-21
-20
-19
-20
-21
-22
-23
-21
-19
-19
-19
-20
-21
-21
-21
-20
-19
-19
-19
-19
-19
-18
-17
-17
-17
-16
-14
-12
-9
-6
-5
-5
-5
-5
-5
-5
-6
-8
-15
-21
-19
-17
-17
-17
-17
-17
-19
-21
-22
-23
-24
-25
-24
-23
-23
-22
-19
-17
-18
-19
-18
-6
14
39
67
88
107
73
13
-34
-77
-115
-152
-164
-172
-146
-114
-94
-74
-57
-39
-20
-1
4
9
9
9
10
11
11
11
11
11
12
13
14
15
14
13
13
13
16
17
17
17
17
17
17
18
20
22
24
25
24
23
24
26
28
30
32
33
33
33
33
36
39
42
45
46
47
50
53
55
57
60
63
65
67
68
69
69
70
73
75
75
74
72
70
68
65
61
53
44
35
27
19
11
4
-2
-8
-14
-19
-24
-27
-29
-31
-33
-34
-35
-35
-35
-36
-37
-36
-35
-36
-37
-37
-37
-37
-37
-36
-35
-36
-37
-38
-38
-36
-35
-35
-35
-35
-35
-35
-35
-34
-33
-32
-31
-31
-31
-32
-33
-32
-31
-29
-30
-31
-31
-31
-31
-31
-30
-29
-30
-31
-32
-33
-32
-31
-30
-29
-30
-31
-32
-33
-33
-33
-32
-31
-31
-31
-32
-33
-32
-31
-31
-31
-31
-31
-32
-33
-32
-31
-30
-29
-29
-31
-31
-31
-31
-30
-29
-30
-31
-31
-31
-31
-31
-30
-29
-29
-29
-30
-31
-30
-29
-28
-27
-28
-29
-29
-29
-29
-29
-28
-27
-28
-29
-29
-29
-29
-29
-28
-27
-28
-29
-29
-28
-27
-27
-27
-27
-27
-27
-27
-27
-27
-26
-25
-26
-27
-27
-27
-27
-27
-27
-27
-27
-27
-27
-27
-27
-26
-24
-23
-24
-25
-26
-27
-26
-25
-25
-25
-25
-25
-25
-25
-25
-25
-23
-23
-23
-24
-25
-25
-25
-24
-23
-22
-21
-23
-25
-24
-23
-22
-21
-22
-23
-24
-25
-24
-23
-22
-21
-20
-19
-20
-21
-20
-15
-9
-7
-6
-7
-10
-11
-10
-9
-9
-12
-9
-22
-27
-24
-21
-19
-17
-18
-19
-25
-29
-29
-29
-28
-27
-27
-27
-26
-25
-25
-25
-22
-16
-4
14
39
69
103
85
39
-22
-90
-125
-150
-178
-208
-183
-147
-119
-91
-71
-52
-28
-5
3
11
10
9
9
9
9
9
11
13
13
13
13
13
14
15
17
19
18
17
17
18
20
21
21
21
21
22
24
25
25
26
28
30
32
33
34
36
38
39
41
43
45
46
47
50
53
57
61
63
65
67
69
72
76
79
81
82
83
83
83
84
85
85
84
82
78
72
65
58
49
40
31
23
14
5
-3
-10
-15
-20
-24
-21
-31
-33
-34
-35
-35
-35
-37
-39
-39
-39
-40
-41
-39
-37
-39
-41
-41
-41
-40
-39
-39
-39
-39
-39
-39
-39
-38
-37
-36
-35
-35
-35
-36
-37
-36
-35
-35
-35
-35
-35
-36
-36
-35
-35
-35
-35
-35
-35
-35
-35
-35
-35
-35
-35
-35
-36
-37
-38
-39
-37
-35
-36
-37
-38
-39
-38
-37
-37
-37
-37
-37
-38
-39
-38
-37
-37
-37
-36
-36
-38
-39
-38
-37
-35
-36
-37
-37
-37
-37
-37
-35
-33
-34
-35
-35
-35
-35
-35
-35
-35
-35
-35
-36
-37
-37
-36
-34
-33
-33
-34
-36
-37
-36
-35
-35
-35
-35
-35
-35
-35
-35
-35
-34
-33
-33
-34
-35
-35
-35
-34
-33
-33
-33
-34
-35
-34
-33
-32
-31
-32
-33
-34
-35
-34
-33
-32
-31
-32
-33
-33
-33
-33
-33
-32
-31
-32
-33
-32
-31
-31
-31
-31
-31
-31
-31
-32
-32
-31
-30
-29
-30
-31
-31
-31
-30
-29
-29
-29
-29
-29
-30
-31
-30
-29
-28
-27
-28
-29
-29
-29
-29
-29
-28
-27
-28
-29
-29
-29
-28
-27
-26
-25
-24
-23
-23
-23
-23
-21
-17
-14
-11
-12
-13
-13
-13
-13
-13
-16
-20
-26
-31
-29
-27
-25
-23
-24
-26
-29
-31
-32
-33
-33
-33
-33
-33
-32
-31
-30
-29
-28
-24
-18
2
25
62
101
81
55
-14
53
-117
-150
-183
-212
-196
-177
-143
-111
-89
-66
-42
-21
-6
5
5
5
5
5
5
5
8
8
6
5
6
7
8
10
12
13
13
13
14
15
16
17
18
19
18
18
20
21
21
24
27
27
27
28
29
31
33
35
37
38
39
40
42
46
50
53
55
57
60
62
65
69
72
74
75
76
77
78
79
80
82
84
84
82
78
74
67
60
53
45
34
23
14
5
-1
-7
-12
-18
-23
-27
-30
-33
-34
-35
-35
-35
-37
-39
-40
-41
-40
-39
-38
-37
-38
-39
-40
-41
-40
-39
-38
-37
-37
-37
-38
-39
-38
-37
-36
-35
-35
-36
-35
-35
-35
-34
-33
-34
-35
-35
-35
-34
-33
-33
-33
-33
-33
-34
-35
-35
-35
-34
-33
-34
-35
-35
-35
-35
-35
-34
-33
-34
-35
-36
-36
-34
-33
-33
-33
-34
-35
-36
-36
-35
-34
-33
-34
-35
-35
-35
-34
-33
-33
-33
-34
-35
-35
-35
-34
-33
-32
-31
-32
-33
-33
-33
-32
-31
-31
-31
-32
-33
-33
-33
-33
-32
-30
-29
-30
-31
-31
-31
-31
-31
-29
-29
-29
-30
-31
-30
-29
-28
-27
-28
-29
-29
-29
-28
-27
-27
-27
-28
-29
-29
-29
-28
-27
-26
-25
-26
-27
-27
-27
-27
-27
-26
-25
-25
-25
-26
-27
-26
-25
-24
-23
-23
-26
-27
-25
-23
-23
-23
-24
-25
-25
-25
-25
-25
-24
-23
-23
-23
-24
-25
-24
-23
-22
-21
-21
-21
-22
-23
-22
-20
-18
-17
-17
-17
-17
-13
-8
-7
-6
-6
-8
-9
-8
-8
-9
-13
-17
-19
-21
-20
-19
-19
-19
-19
-19
-22
-25
-26
-27
-26
-25
-23
-21
-21
-21
-21
-21
-20
-13
-3
16
39
71
107
90
52
-1
-57
-90
-119
-153
-188
-168
-142
-118
-93
-77
-60
-42
-24
-8
5
9
13
11
9
9
9
11
13
13
13
13
13
13
13
14
15
16
17
17
17
18
19
20
21
21
21
22
23
24
25
26
27
28
30
29
33
33
35
37
39
41
41
41
44
47
49
51
54
58
61
63
64
65
67
69
72
73
73
73
74
75
76
77
76
73
69
63
57
50
43
35
26
18
10
2
-6
-10
-13
-16
-19
-22
-25
-26
-27
-27
-27
-28
-29
-30
-31
-32
-33
-33
-33
-32
-31
-31
-31
-31
-31
-32
-32
-30
-29
-30
-31
-30
-29
-29
-29
-28
-27
-27
-27
-27
-27
-27
-27
-25
-26
-27
-27
-27
-27
-27
-26
-25
-26
-27
-27
-27
-27
-27
-26
-25
-27
-29
-30
-31
-30
-29
-28
-27
-28
-29
-30
-31
-30
-29
-29
-29
-29
-29
-30
-31
-30
-29
-29
-29
-29
-30
-31
-30
-29
-29
-29
-29
-29
-30
-31
-31
-31
-29
-27
-28
-29
-30
-31
-30
-29
-28
-28
-30
-31
-30
-29
-29
-29
-28
-27
-27
-27
-28
-29
-29
-29
-28
-27
-28
-29
-29
-29
-29
-28
-27
-27
-27
-28
-29
-28
-27
-26
-25
-26
-27
-28
-29
-28
-27
-25
-23
-25
-27
-27
-27
-27
-27
-26
-25
-26
-27
-26
-25
-24
-23
-22
-21
-21
-18
-14
-13
-12
-11
-11
-11
-11
-13
-15
-19
-23
-24
-25
-24
-23
-22
-21
-23
-25
-27
-29
-30
-31
-31
-31
-28
-27
-27
-27
-27
-27
-26
-19
-8
12
37
71
108
87
52
-4
-65
-94
-119
-155
-121
-178
-164
-135
-108
-87
-67
-46
-26
-10
3
6
9
9
9
8
7
7
7
8
9
10
11
10
10
12
13
13
14
16
17
17
17
17
17
18
19
20
21
21
21
22
25
27
28
29
31
33
33
33
35
37
40
43
45
47
49
52
55
58
61
63
64
66
68
70
72
74
76
77
78
79
78
77
77
75
72
66
58
49
40
32
24
15
5
-1
-7
-13
-19
-22
-25
-26
-27
-29
-31
-33
-35
-36
-37
-36
-35
-36
-37
-38
-39
-39
-39
-38
-37
-37
-37
-37
-37
-37
-36
-34
-33
-34
-36
-38
-38
-36
-34
-32
-31
-31
-33
-33
-32
-31
-31
-31
-32
-33
-33
-33
-32
-31
-31
-31
-31
-31
-32
-33
-33
-33
-32
-32
-34
-35
-35
-35
-34
-33
-32
-31
-32
-33
-34
-35
-34
-33
-33
-33
-33
-33
-34
-34
-33
-32
-31
-32
-33
-33
-33
-33
-33
-32
-31
-31
-31
-32
-33
-32
-31
-30
-29
-31
-33
-32
-31
-31
-31
-30
-29
-30
-31
-32
-32
-30
-29
-29
-29
-29
-29
-30
-31
-30
-29
-27
-28
-29
-30
-31
-29
-27
-27
-27
-27
-27
-27
-27
-27
-27
-26
-25
-26
-27
-27
-27
-27
-27
-26
-25
-26
-27
-27
-27
-26
-25
-24
-23
-24
-25
-26
-27
-26
-25
-24
-23
-23
-25
-25
-25
-25
-24
-23
