-25
-28
-29
-28
-27
-28
-29
-28
-27
-28
-29
-28
-27
-26
-25
-26
-27
-28
-29
-28
-27
-30
-30
-27
-25
-26
-27
-26
-25
-24
-23
-24
-25
-25
-25
-25
-25
-26
-27
-27
-27
-26
-25
-25
-22
-19
-20
-21
-16
-11
-11
-11
-10
-8
-2
4
8
11
12
11
5
0
-4
-6
-4
-5
-10
-15
-19
-20
-18
-19
-23
-25
-25
-25
-24
-23
-22
-21
-20
-25
-32
-19
-3
54
111
177
249
363
455
423
360
173
11
-80
-144
-138
-128
-113
-96
-78
-63
-54
-47
-42
-38
-35
-34
-36
-37
-36
-35
-35
-35
-35
-34
-32
-31
-31
-31
-30
-29
-28
-27
-27
-30
-31
-28
-25
-27
-29
-27
-25
-25
-25
-22
-19
-17
-15
-15
-15
-16
-16
-12
-9
-9
-7
-3
0
2
5
9
13
17
19
19
19
20
23
26
27
27
27
27
25
22
18
15
14
13
6
-1
-6
-11
-13
-15
-19
-23
-25
-27
-27
-27
-28
-29
-28
-27
-29
-31
-32
-33
-32
-32
-34
-34
-32
-31
-32
-33
-32
-31
-31
-31
-31
-32
-34
-33
-30
-29
-29
-28
-27
-27
-27
-25
-23
-25
-27
-26
-25
-26
-27
-26
-26
-29
-31
-30
-29
-29
-29
-28
-27
-27
-28
-30
-31
-31
-30
-28
-27
-28
-29
-29
-29
-30
-32
-34
-32
-28
-27
-27
-29
-29
-31
-33
-32
-31
-29
-27
-28
-29
-28
-27
-27
-27
-28
-29
-30
-30
-27
-25
-28
-28
-26
-25
-25
-25
-25
-23
-20
-18
-16
-15
-15
-12
-8
-5
-2
5
12
12
10
2
-5
-5
-5
-4
-3
-11
-17
-18
-19
-19
-20
-24
-27
-27
-27
-27
-26
-22
-19
-20
-25
-33
-14
29
82
143
218
302
388
475
410
288
143
-8
-83
-141
-142
-134
-117
-100
-86
-71
-61
-51
-45
-39
-36
-33
-32
-31
-32
-33
-32
-31
-29
-27
-28
-29
-28
-27
-27
-27
-26
-25
-24
-23
-22
-21
-22
-22
-20
-18
-16
-16
-18
-18
-16
-14
-12
-11
-12
-11
-13
-6
-5
-4
-3
1
5
6
7
10
13
14
15
17
19
21
23
22
21
23
25
22
21
21
19
15
12
9
7
6
1
-5
-9
-12
-14
-16
-18
-20
-21
-21
-21
-21
-21
-21
-20
-19
-21
-23
-23
-23
-23
-23
-23
-23
-21
-19
-20
-21
-21
-21
-19
-17
-17
-17
-17
-16
-14
-14
-16
-17
-16
-15
-16
-17
-16
-15
-14
-13
-14
-15
-16
-17
-16
-16
-19
-18
-17
-18
-19
-19
-19
-18
-17
-17
-17
-17
-17
-16
-15
-17
-19
-18
-17
-17
-17
-17
-17
-16
-15
-15
-15
-15
-13
-10
-9
-8
-7
-6
-2
2
6
10
15
20
19
21
10
5
4
3
2
1
-4
-9
-11
-13
-12
-12
-16
-19
-19
-19
-20
-20
-17
-15
-15
-20
-30
-19
9
55
111
178
251
350
459
451
401
240
49
-50
-133
-137
-130
-113
-96
-78
-61
-51
-41
-36
-31
-30
-29
-29
-29
-29
-29
-27
-25
-25
-25
-24
-22
-19
-17
-19
-21
-21
-21
-20
-19
-20
-20
-18
-17
-17
-16
-14
-12
-10
-9
-9
-9
-9
-8
-6
-5
-3
0
3
4
5
9
13
16
19
20
21
23
25
27
29
30
31
32
33
33
33
30
29
28
25
19
14
9
5
1
-4
-9
-12
-14
-16
-18
-19
-20
-21
-20
-19
-19
-24
-27
-26
-25
-26
-27
-27
-27
-27
-27
-27
-27
-26
-25
-24
-23
-24
-25
-23
-21
-24
-24
-21
-19
-20
-21
-20
-19
-19
-19
-19
-19
-20
-21
-20
-20
-22
-23
-22
-21
-21
-22
-23
-22
-21
-22
-23
-24
-25
-25
-25
-26
-27
-27
-27
-26
-25
-25
-25
-24
-23
-24
-25
-26
-26
-24
-24
-27
-28
-26
-25
-25
-25
-25
-25
-24
-22
-20
-18
-16
-14
-12
-11
-13
-5
3
4
5
10
14
7
1
-3
-7
-7
-7
-10
-14
-19
-23
-23
-23
-25
-27
-30
-30
-28
-27
-27
-26
-23
-28
-39
-27
-5
45
104
172
243
345
452
434
401
224
399
-56
-147
-145
-142
-126
-109
-92
-76
-67
-58
-49
-43
-42
-41
-41
-41
-42
-42
-39
-37
-40
-40
-38
-37
-36
-35
-34
-33
-33
-33
-32
-31
-32
-32
-30
-29
-30
-30
-28
-27
-27
-26
-25
-21
-17
-18
-19
-18
-17
-14
-11
-10
-9
-6
-3
1
3
5
9
14
17
18
19
20
22
24
24
22
22
24
23
19
16
14
9
4
-1
-6
-13
-20
-21
-21
-25
-31
-30
-29
-32
-35
-35
-35
-33
-31
-32
-33
-35
-37
-35
-33
-35
-37
-36
-35
-35
-35
-35
-34
-32
-31
-32
-33
-33
-32
-30
-30
-32
-33
-32
-31
-30
-29
-29
-29
-28
-27
-27
-30
-31
-31
-31
-33
-35
-32
-29
-30
-31
-32
-33
-32
-31
-32
-33
-34
-35
-33
-32
-35
-36
-34
-33
-34
-35
-34
-33
-33
-33
-34
-35
-34
-33
-32
-32
-34
-35
-35
-35
-34
-32
-31
-30
-29
-30
-31
-28
-25
-23
-21
-21
-20
-16
-12
-7
-2
3
7
5
1
-5
-11
-15
-16
-14
-17
-26
-29
-29
-29
-30
-32
-34
-35
-35
-34
-32
-31
-32
-32
-30
-39
-51
-6
40
104
171
264
355
431
460
296
141
10
-94
-132
-153
-141
-127
-112
-97
-81
-69
-58
-51
-46
-43
-44
-45
-44
-43
-42
-41
-42
-42
-40
-39
-39
-39
-38
-36
-34
-33
-33
-34
-35
-34
-33
-34
-35
-32
-29
-29
-29
-27
-25
-24
-23
-21
-19
-19
-18
-15
-13
-16
-15
-11
-7
-3
0
3
6
8
9
10
11
12
14
16
17
16
15
15
15
15
12
9
9
9
2
-5
-9
-13
-15
-17
-21
-25
-25
-25
-27
-29
-29
-29
-28
-27
-27
-27
-28
-29
-29
-29
-30
-31
-30
-29
-30
-30
-28
-27
-27
-26
-24
-23
-24
-24
-22
-21
-23
-22
-21
-21
-21
-20
-19
-18
-17
-18
-19
-19
-19
-19
-19
-20
-21
-22
-23
-23
-23
-22
-20
-18
-18
-21
-23
-22
-21
-21
-22
-24
-24
-22
-22
-24
-24
-22
-20
-18
-17
-17
-20
-21
-20
-19
-19
-19
-15
-11
-11
-11
-10
-8
-3
2
7
12
16
18
15
10
1
-2
0
0
-2
-7
-14
-15
-12
-14
-19
-23
-26
-26
-24
-23
-23
-20
-16
-25
-36
-14
10
66
121
182
248
355
446
453
416
220
48
-57
-131
-138
-138
-121
-104
-84
-69
-60
-51
-43
-38
-36
-35
-36
-36
-32
-31
-31
-31
-30
-29
-28
-27
-26
-25
-26
-25
-22
-22
-25
-23
-21
-21
-21
-19
-17
-17
-17
-16
-15
-14
-13
-12
-11
-11
-11
-9
-7
-5
-3
0
3
7
9
9
10
12
14
16
17
18
19
20
21
22
24
26
27
27
25
27
17
13
10
7
1
-5
-7
-9
-12
-15
-17
-19
-19
-19
-19
-20
-23
-25
-24
-23
-26
-26
-24
-24
-26
-27
-26
-25
-24
-23
-23
-23
-23
-23
-22
-21
-22
-23
-22
-21
-21
-19
-17
-15
-13
-14
-15
-17
-19
-18
-17
-18
-19
-19
-19
-19
-19
-19
-19
-20
-21
-19
-18
-20
-21
-20
-19
-19
-19
-20
-21
-22
-23
-22
-21
-21
-21
-21
-21
-22
-23
-22
-21
-21
-21
-21
-21
-21
-16
-11
-8
-5
-6
-7
-4
0
4
8
11
12
8
4
0
-3
-3
-3
-2
-5
-13
-17
-18
-20
-22
-25
-28
-29
-28
-27
-26
-24
-22
-21
-21
-26
-21
12
58
122
190
297
396
453
463
270
92
-33
-126
-138
-141
-122
-104
-90
-76
-64
-55
-48
-44
-41
-39
-39
-39
-38
-37
-36
-34
-32
-31
-32
-33
-32
-32
-34
-34
-32
-31
-31
-30
-29
-28
-27
-27
-27
-26
-25
-24
-23
-23
-23
-21
-19
-17
-15
-15
-14
-10
-7
-6
-5
-4
-1
4
7
7
10
15
17
17
18
20
23
26
27
27
25
22
21
21
16
9
6
3
-3
-9
-12
-15
-18
-21
-25
-29
-32
-35
-36
-37
-38
-39
-39
-39
-39
-39
-39
-38
-36
-36
-39
-41
-40
-39
-39
-39
-39
-39
-39
-39
-38
-36
-34
-32
-30
-30
-29
-33
-33
-32
-31
-32
-33
-31
-29
-30
-31
-30
-29
-29
-29
-29
-29
-31
-33
-31
-30
-33
-34
-32
-31
-32
-33
-33
-33
-32
-31
-32
-33
-32
-31
-31
-32
-34
-35
-34
-33
-32
-32
-33
-31
-29
-30
-31
-31
-31
-31
-31
-31
-31
-31
-31
-30
-29
-30
-30
-27
-24
-21
-19
-19
-18
-15
-11
-7
-4
0
3
6
4
-1
-7
-12
-12
-10
-12
-16
-20
-24
-26
-29
-30
-31
-33
-35
-34
-33
-31
-29
-27
-27
-36
-38
-20
8
53
106
172
256
363
424
435
345
164
25
-84
-133
-146
-140
-122
-107
-93
-80
-68
-60
-53
-49
-46
-44
-42
-41
-41
-42
-43
-41
-39
-41
-43
-40
-37
-38
-39
-37
-35
-35
-35
-34
-33
-34
-34
-31
-29
-32
-32
-30
-29
-28
-26
-24
-22
-20
-19
-19
-19
-18
-15
-12
-10
-8
-5
-2
2
6
9
11
15
19
19
19
20
21
23
25
23
21
20
18
14
10
6
2
-1
-5
-11
-17
-21
-23
-24
-26
-29
-31
-31
-31
-32
-33
-34
-35
-34
-33
-34
-35
-35
-35
-34
-34
-37
-36
-35
-37
-39
-37
-35
-33
-31
-32
-33
-33
-33
-33
-33
-33
-33
-32
-31
-31
-31
-31
-30
-27
-26
-29
-31
-32
-33
-32
-32
-34
-35
-35
-34
-32
-31
-32
-33
-33
-33
-33
-34
-33
-34
-35
-36
-37
-36
-35
-36
-37
-36
-35
-34
-33
-34
-35
-36
-37
-35
-33
-36
-36
-34
-33
-34
-35
-34
-33
-32
-31
-32
-33
-33
-30
-26
-25
-25
-25
-24
-18
-12
-7
-3
3
9
2
-5
-10
-15
-15
-15
-17
-20
-25
-29
-30
-31
-30
-30
-33
-35
-37
-39
-39
-38
-35
-33
-34
-39
-46
-21
20
76
137
226
322
402
479
333
153
27
-95
-129
-161
-145
-129
-113
-98
-85
-72
-63
-55
-51
-47
-48
-49
-49
-49
-49
-48
-45
-43
-42
-41
-41
-41
-40
-39
-38
-37
-37
-36
-34
-34
-36
-37
-36
-34
-32
-30
-28
-26
-24
-23
-23
-22
-21
-19
-17
-18
-19
-14
-9
-8
-7
-4
-1
1
4
7
9
8
8
11
13
13
14
16
16
13
11
11
11
10
7
4
0
-5
-9
-12
-15
-18
-20
-22
-23
-24
-26
-27
-27
-27
-29
-31
-31
-31
-31
-31
-31
-31
-30
-29
-28
-27
-27
-27
-25
-23
-24
-26
-28
-28
-25
-23
-23
-23
-22
-21
-22
-22
-20
-19
-20
-21
-20
-20
-22
-22
-20
-21
-25
-22
-19
-19
-19
-21
-23
-23
-23
-22
-21
-23
-25
-23
-21
-22
-23
-22
-21
-21
-21
-21
-21
-20
-19
-19
-19
-19
-19
-19
-19
-20
-19
-16
-13
-10
-9
-9
-8
-6
-3
-5
5
9
14
19
15
11
6
1
0
-1
0
0
-6
-11
-13
-15
-16
-17
-19
-22
-25
-26
-23
-21
-21
-19
-15
-20
-31
-12
20
72
129
203
280
381
487
419
329
157
-20
-87
-151
-138
-124
-110
-95
-79
-64
-55
-46
-40
-35
-33
-31
-31
-31
-30
-29
-27
-25
-26
-27
-26
-25
-24
-24
-26
-26
-24
-23
-22
-21
-20
-19
-18
-16
-14
-14
-16
-15
-12
-11
-13
-10
-7
-7
-7
-3
1
4
7
8
9
9
9
12
15
16
18
21
23
24
25
25
27
31
32
30
28
26
24
22
19
14
10
6
3
0
-3
-6
-7
-8
-11
-9
-17
-19
-18
-17
-18
-19
-19
-19
-20
-21
-20
-19
-18
-17
-18
-19
-21
-22
-19
-17
-18
-19
-18
-17
-17
-16
-14
-13
-13
-13
-13
-13
-13
-13
-12
-12
-14
-14
-12
-11
-12
-13
-13
-13
-13
-14
-15
-14
-13
-13
-13
-15
-17
-16
-15
-15
-15
-15
-15
-14
-13
-14
-15
-15
-15
-14
-14
-16
-17
-16
-14
-12
-8
-3
-1
-1
0
2
6
10
13
16
17
19
14
9
4
-1
2
5
2
-2
-8
-13
-13
-13
-15
-18
-21
-23
-21
-19
-18
-17
-16
-17
-21
-18
-7
28
78
139
204
303
416
450
459
296
92
-28
-135
-139
-132
-113
-131
-76
-59
-50
-41
-36
-31
-31
-31
-30
-29
-29
-29
-28
-27
-26
-25
-26
-27
-25
-23
-26
-26
-23
-21
-22
-23
-22
-21
-21
-19
-16
-16
-18
-17
-14
-13
-14
-13
-10
-9
-8
-6
-5
-2
1
3
5
8
11
14
17
19
21
22
23
25
27
28
30
33
35
34
32
30
28
25
20
15
11
7
1
-5
-7
-8
-11
-14
-17
-20
-23
-26
-27
-26
-27
-31
-29
-27
-29
-31
-30
-29
-29
-29
-29
-29
-30
-31
-29
-27
-29
-31
-29
-27
-27
-27
-26
-24
-22
-21
-22
-23
-23
-23
-22
-21
-22
-23
-22
-21
-21
-21
-22
-23
-22
-21
-21
-23
-23
-24
-25
-25
-25
-25
-25
-25
-25
-25
-25
-24
-23
-23
-23
-24
-25
-24
-23
-24
-24
-22
-22
-24
-25
-25
-25
-25
-25
-25
-25
-25
-21
-16
-15
-15
-13
-10
-8
-6
0
5
9
13
12
11
3
-3
-5
-7
-6
-6
-12
-17
-21
-23
-22
-22
-25
-27
-28
-29
-29
-28
-26
-25
-24
-29
-39
-27
-2
46
102
173
248
351
461
398
310
153
-9
-82
-151
-141
-131
-116
-102
-85
-70
-60
-50
-44
-39
-39
-39
-39
-39
-40
-40
-37
-35
-36
-37
-36
-34
-31
-29
-30
-31
-31
-31
-30
-29
-29
-29
-28
-27
-26
-25
-25
-23
-20
-19
-19
-18
-17
-16
-15
-14
-13
-10
-7
-6
-5
-2
2
6
9
10
11
13
16
20
23
22
22
25
27
27
27
26
24
22
19
15
9
3
0
-2
-8
-14
-16
-18
-20
-22
-24
-25
-25
-25
-26
-27
-28
-29
-28
-27
-30
-33
-32
-31
-30
-29
-30
-31
-29
-27
-28
-29
-28
-27
-26
-25
-26
-27
-26
-25
-26
-26
-24
-23
-23
-23
-22
-23
-26
-26
-24
-23
-25
-25
-25
-26
-27
-26
-25
-25
-25
-25
-25
-27
-29
-28
-27
-29
-31
-30
-29
-29
-29
-30
-31
-30
-29
-30
-31
-31
-31
-30
-29
-30
-31
-30
-29
-29
-29
-28
-23
-18
-17
-17
-18
-19
-15
-11
-8
-5
0
5
2
-2
-7
-11
-11
-11
-13
-17
-23
-27
-27
-28
-33
-35
-35
-35
-36
-37
-36
-33
-30
-29
-29
-35
-43
-9
37
91
146
226
309
396
483
344
201
63
-68
-115
-156
-145
-133
-116
-100
-86
-73
-64
-56
-49
-45
-45
-45
-43
-41
-42
-43
-43
-43
-42
-41
-42
-42
-40
-39
-39
-38
-36
-34
-32
-31
-32
-33
-34
-35
-34
-33
-33
-30
-27
-28
-29
-27
-25
-22
-19
-18
-17
-16
-15
-13
-11
-9
-7
-5
-2
1
3
4
6
9
12
14
15
16
17
16
15
15
13
10
7
4
1
-2
-3
-4
-9
-5
-19
-23
-23
-23
-26
-29
-28
-27
-28
-29
-27
-25
-25
-25
-26
-27
-28
-29
-27
-25
-28
-28
-25
-24
-26
-27
-26
-24
-22
-21
-21
-21
-21
-21
-20
-19
-20
-21
-20
-19
-18
-18
-19
-17
-15
-17
-19
-20
-21
-21
-21
-21
-21
-21
-21
-20
-19
-20
-21
-19
-17
-18
-19
-20
-21
-20
-19
-19
-19
-19
-19
-18
-17
-16
-12
-8
-7
-6
-6
-8
-3
4
6
9
15
21
15
9
4
-1
1
2
-3
-8
-14
-19
-16
-14
-19
-23
-23
-23
-24
-25
-22
-20
-18
-21
-29
-28
-19
20
72
128
187
269
360
431
497
380
231
89
-52
-101
-59
-135
-123
-107
-92
-77
-62
-52
-43
-39
-35
-34
-33
-32
-31
-31
-31
-31
-31
-29
-27
-28
-28
-26
-25
-26
-26
-24
-23
-22
-21
-22
-23
-22
-21
-21
-21
-20
-19
-19
-18
-16
-14
-13
-9
-5
-6
-7
-4
-1
0
1
3
5
8
11
12
13
15
18
21
23
23
23
22
21
21
20
18
16
14
11
7
4
2
-1
-4
-6
-8
-13
-18
-19
-19
-21
-25
-24
-23
-24
-25
-23
-21
-21
-21
-22
-23
-24
-25
-24
-23
-24
-25
-24
-23
-23
-23
-22
-19
-15
-14
-16
-17
-18
-19
-18
-17
-18
-19
-18
-17
-17
-17
-17
-16
-14
-14
-13
-18
-19
-19
-19
-21
-23
-21
-19
-19
-19
-19
-19
-18
-17
-18
-19
-20
-21
-20
-20
-23
-24
-21
-18
-15
-12
-9
-7
-6
-3
0
3
6
10
14
12
8
4
0
-1
-2
-2
-1
-7
-13
-16
-19
-18
-17
-21
-25
-27
-29
-28
-27
-23
-21
-22
-25
-33
-20
19
69
129
199
277
370
473
438
323
173
8
-82
-143
-145
-130
-113
-96
-81
-67
-57
-48
-46
-43
-40
-37
-37
-37
-36
-35
-34
-33
-33
-33
-34
-35
-33
-31
-32
-33
-31
-29
-28
-27
-28
-28
-26
-25
-24
-23
-22
-21
-21
-21
-20
-19
-18
-16
-14
-13
-12
-7
-2
-1
-1
3
5
8
11
12
13
16
19
20
21
23
25
27
29
29
28
24
20
17
13
6
2
-1
-5
-11
-14
-16
-19
-22
-23
-24
-26
-28
-29
-29
-30
-32
-33
-32
-31
-32
-34
-35
-32
-29
-31
-33
-33
-33
-34
-35
-35
-35
-34
-33
-33
-33
-32
-31
-29
-27
-27
-27
-28
-29
-28
-27
-28
-29
-28
-27
-27
-27
-27
-27
-27
-27
-28
-29
-29
-29
-29
-31
-35
-32
-29
-30
-31
-31
-31
-30
-29
-30
-31
-33
-35
-33
-31
-32
-33
-33
-33
-32
-31
-32
-32
-29
-28
-30
-31
-31
-31
-31
-31
-31
-31
-31
-27
-22
-21
-20
-18
-16
-12
-15
-5
-3
2
7
0
-7
-10
-13
-15
-17
-15
-14
-19
-23
-25
-27
-28
-29
-31
-34
-37
-37
-33
-31
-31
-32
-34
-34
-32
2
50
108
168
257
353
420
482
327
145
14
-113
-136
-157
-136
-116
-103
-90
-78
-66
-58
-51
-49
-47
-46
-45
-45
-45
-43
-41
-39
-37
-39
-41
-40
-39
-38
-37
-38
-38
-36
-35
-35
-35
-34
-33
-32
-31
-30
-29
-29
-27
-24
-24
-27
-24
-21
-20
-19
-16
-13
-11
-9
-7
-5
-4
-2
2
5
6
8
11
13
15
17
18
20
22
23
22
20
17
13
10
6
1
-4
-8
-11
-14
-16
-18
-19
-20
-23
-21
-28
-29
-29
-29
-31
-33
-32
-31
-31
-31
-32
-33
-32
-31
-31
-31
-32
-33
-32
-31
-34
-34
-31
-29
-30
-31
-31
-30
-28
-27
-27
-27
-27
-27
-26
-26
-28
-29
-28
-27
-28
-29
-29
-28
-27
-28
-29
-30
-31
-32
-33
-33
-33
-33
-33
-32
-31
-31
-31
-30
-29
-31
-33
-33
-33
-32
-31
-32
-32
-30
-29
-30
-30
-28
-28
-30
-31
-30
-30
-32
-33
-32
-31
-31
-29
-27
-29
-31
-30
-29
-27
-25
-23
-21
-21
-21
-20
-19
-17
-13
-6
0
4
6
3
0
-3
-6
-9
-11
-11
-15
-21
-25
-28
-27
-24
-26
-30
-31
-31
-31
-30
-29
-29
-25
-23
-35
-44
-12
25
84
148
229
313
411
451
341
217
65
-54
-116
-149
-139
-128
-115
-99
-80
-67
-59
-52
-46
-42
-40
-39
-39
-39
-39
-38
-36
-36
-38
-37
-34
-33
-34
-33
-31
-29
-27
-29
-31
-30
-29
-28
-27
-27
-27
-27
-27
-26
-25
-24
-23
-21
-19
-17
-15
-14
-12
-9
-6
-4
-3
-2
1
4
5
6
9
12
14
16
17
16
17
20
20
17
17
17
14
11
8
5
4
3
-1
-6
-11
-15
-15
-16
-19
-21
-22
-23
-24
-25
-26
-26
-24
-23
-24
-25
-26
-27
-26
-25
-24
-23
-23
-23
-22
-21
-22
-22
-20
-19
-19
-21
-21
-20
-19
-20
-21
-20
-19
-19
-19
-18
-17
-17
-17
-17
-17
-19
-21
-19
-18
-21
-22
-20
-19
-19
-19
-18
-17
-16
-15
-16
-17
-18
-19
-19
-19
-19
-19
-20
-20
-18
-18
-19
-18
-17
-17
-17
-16
-15
-16
-17
-15
-13
-10
-7
-6
-4
-1
3
11
15
17
19
18
15
10
4
-1
-2
2
-1
-9
-11
-12
-13
-12
-14
-18
-21
-24
-23
-20
-19
-21
-18
-15
-25
-33
-15
9
67
126
191
268
376
452
447
373
167
5
-87
-139
-139
-131
-112
-93
-74
-61
-53
-45
-38
-34
-32
-31
-32
-32
-30
-29
-29
-29
-30
-29
-26
-25
-25
-25
-25
-24
-23
-22
-21
-21
-21
-20
-19
-20
-20
-16
-13
-13
-13
-13
-12
-9
-7
-10
-9
-5
-3
-3
-2
1
4
6
9
12
13
14
16
18
18
16
17
20
21
22
23
23
22
21
18
15
11
7
4
1
-3
-7
-9
-11
-13
-15
-17
-19
-18
-17
-19
-22
-24
-24
-22
-22
-24
-25
-24
-23
-24
-24
-22
-21
-21
-21
-21
-21
-22
-22
-20
-20
-23
-19
-15
-16
-17
-16
-15
-13
-11
-13
-15
-16
-17
-16
-15
-17
-19
-18
-17
-18
-19
-19
-18
-16
-16
-18
-19
-19
-19
-19
-19
-19
-19
-18
-17
-17
-17
-18
-18
-16
-15
-15
-18
-19
-18
-17
-16
-15
-11
-7
-6
-5
-4
-1
6
11
12
14
17
17
11
5
0
-2
1
1
-5
-10
-16
-19
-18
-18
-20
-23
-26
-26
-24
-23
-23
-20
-16
-25
-36
-13
12
64
118
190
267
379
469
442
380
192
27
-72
-141
-140
-133
-116
-98
-81
-67
-58
-50
-44
-40
-37
-35
-36
-37
-36
-35
-35
-34
-32
-30
-28
-27
-28
-29
-30
-31
-30
-29
-29
-27
-25
-26
-27
-24
-21
-20
-19
-19
-19
-19
-19
-17
-15
-15
-14
-11
-9
-8
-6
-3
1
5
8
10
12
14
17
20
21
22
24
26
28
30
31
31
31
32
29
33
19
15
11
7
2
-3
-7
-11
-15
-19
-20
-21
-21
-21
-23
-26
-29
-31
-29
-27
-30
-31
-31
-31
-32
-33
-32
-31
-30
-29
-30
-31
-31
-30
-28
-28
-30
-30
-28
-27
-27
-26
-25
-24
-23
-23
-23
-23
-23
-22
-21
-23
-25
-24
-23
-23
-23
-24
-25
-24
-23
-25
-27
-27
-27
-26
-25
-26
-27
-27
-27
-27
-27
-27
-26
-24
-23
-24
-25
-26
-26
-24
-24
-27
-26
-25
-26
-27
-25
-23
-20
-17
-15
-13
-13
-12
-8
-4
-1
2
6
9
7
3
-2
-5
-6
-7
-7
-10
-16
-20
-22
-23
-24
-27
-30
-31
-31
-31
-30
-27
-24
-23
-23
-32
-40
-2
38
93
150
218
291
390
452
387
291
116
-25
-100
-146
-140
-130
-111
-95
-80
-68
-56
-49
-45
-43
-42
-41
-40
-39
-38
-37
-38
-39
-38
-37
-37
-37
-36
-35
-36
-35
-33
-31
-29
-30
-31
-30
-29
-28
-27
-27
-27
-25
-23
-22
-21
-21
-20
-17
-15
-14
-12
-10
-8
-5
-2
0
2
6
8
10
12
14
18
22
23
23
23
24
26
28
26
21
19
17
12
7
3
-1
-5
-9
-13
-17
-20
-23
-23
-24
-28
-31
-29
-27
-29
-31
-30
-29
-29
-29
-30
-31
-32
-33
-32
-32
-34
-35
-34
-33
-32
-31
-32
-32
-30
-29
-29
-29
-29
-28
-27
-28
-29
-29
-29
-29
-29
-29
-29
-27
-25
-26
-27
-28
-29
-28
-28
-31
-32
-30
-30
-32
-33
-32
-31
-30
-29
-30
-32
-34
-34
-32
-32
-34
-33
-30
-31
-34
-33
-31
-30
-29
-29
-29
-30
-31
-30
-29
-29
-28
-24
-21
-21
-21
-20
-16
-8
-3
-1
3
7
6
0
-6
-12
-14
-12
-13
-16
-20
-25
-27
-27
-28
-30
-34
-38
-37
-34
-34
-37
-33
-29
-33
-37
-40
-36
9
57
118
186
271
355
439
435
260
105
-20
-106
-141
-153
-138
-122
-105
-90
-78
-68
-60
-54
-49
-47
-46
-45
-45
-44
-42
-41
-42
-41
-38
-37
-37
-37
-37
-35
-33
-34
-35
-33
-31
-32
-33
-31
-29
-27
-25
-25
-25
-26
-26
-22
-19
-19
-18
-16
-15
-16
-15
-11
-7
-4
-3
-2
-1
-1
2
6
7
7
10
14
15
15
16
17
19
21
18
15
12
9
3
-1
-4
-7
-10
-13
-17
-20
-24
-27
-25
-23
-25
-28
-30
-31
-30
-29
-30
-31
-30
-29
-30
-30
-28
-27
-26
-25
-26
-27
-27
-27
-26
-25
-25
-24
-23
-23
-23
-22
-21
-21
-21
-19
-17
-18
-19
-18
-18
-21
-22
-19
-17
-18
-19
-20
-21
-21
-21
-20
-20
-22
-23
-22
-21
-22
-23
-23
-23
-22
-21
-21
-21
-20
-19
-19
-21
-21
-21
-21
-18
-15
-13
-11
-10
-9
-7
-3
4
10
13
15
13
9
4
0
-5
-5
-1
-3
-11
-16
-18
-18
-16
-18
-23
-26
-28
-27
-24
-24
-26
-23
-18
-27
-38
-18
4
65
126
193
266
378
464
419
343
155
-4
-86
-143
-141
-134
-119
-102
-82
-68
-60
-52
-45
-40
-37
-35
-35
-35
-35
-34
-32
-31
-32
-30
-26
-25
-26
-27
-27
-26
-24
-24
-27
-24
-21
-21
-21
-21
-21
-19
-17
-16
-15
-16
-16
-12
-9
-10
-11
-9
-7
-6
-4
-1
2
5
8
11
13
14
17
20
21
21
21
22
23
24
25
25
24
22
20
21
12
7
4
1
-3
-7
-9
-11
-14
-17
-18
-19
-19
-19
-20
-21
-23
-25
-24
-23
-24
-25
-25
-25
-25
-25
-24
-23
-23
-23
-22
-21
-22
-22
-20
-19
-20
-20
-18
-17
-17
-16
-15
-13
-11
-13
-15
-16
-17
-16
-15
-16
-17
-16
-15
-16
-17
-18
-18
-15
-13
-15
-17
-17
-17
-17
-17
-18
-18
-16
-16
-18
-18
-16
-15
-15
-15
-15
-16
-18
-17
-14
-12
-9
-7
-5
-5
-5
0
5
10
15
17
18
14
10
6
2
-1
-3
-1
-2
-9
-13
-14
-15
-15
-16
-19
-21
-22
-22
-20
-19
-18
-17
-16
-23
-33
-6
29
87
148
229
151
413
506
395
277
105
-50
-104
-147
-131
-115
-98
-81
-66
-53
-45
-38
-35
-33
-32
-31
-32
-32
-30
-29
-30
-30
-28
-27
-27
-27
-26
-25
-26
-26
-24
-24
-26
-25
-22
-21
-21
-20
-19
-17
-15
-15
-15
-15
-15
-13
-11
-10
-9
-7
-5
-3
0
3
6
10
13
15
17
18
20
23
25
26
28
32
33
33
33
34
35
34
30
26
19
12
10
8
0
-9
-11
-13
-17
-21
-21
-21
-22
-23
-24
-25
-27
-29
-29
-29
-30
-31
-31
-31
-32
-33
-32
-30
-28
-27
-28
-29
-30
-31
-30
-29
-29
-29
-28
-27
-26
-25
-25
-24
-22
-21
-21
-23
-23
-23
-23
-24
-25
-25
-25
-25
-25
-26
-27
-26
-25
-25
-25
-26
-27
-26
-25
-28
-29
-28
-27
-27
-27
-27
-27
-27
-27
-26
-25
-26
-27
-26
-26
-28
-28
-26
-25
-26
-27
-27
-27
-27
-26
-25
-24
-23
-17
-13
-15
-17
-15
-11
-4
1
2
5
10
10
2
-5
-9
-10
-8
-8
-11
-16
-23
-25
-25
-26
-28
-29
-30
-31
-32
-33
-32
-29
-26
-28
-33
-34
-33
13
62
128
201
310
402
429
401
206
38
-66
-137
-144
-142
-122
-105
-91
-78
-67
-58
-51
-46
-44
-43
-43
-43
-42
-41
-41
-41
-40
-39
-38
-37
-37
-35
-32
-32
-31
-35
-35
-35
-35
-35
-35
-34
-33
-32
-31
-29
-27
-26
-25
-24
-23
-22
-21
-19
-17
-16
-14
-11
-8
-6
-4
-1
3
7
9
10
12
14
17
20
21
21
22
24
25
24
22
21
19
17
10
3
-1
-5
-11
-15
-19
-23
-26
-29
-30
-31
-32
-33
-31
-30
-33
-35
-35
-35
-35
-36
-38
-39
-38
-37
-37
-37
-37
-37
-37
-37
-36
-35
-35
-35
-35
-35
-35
-35
-35
-35
-35
-33
-31
-30
-29
-30
-31
-32
-33
-32
-31
-32
-33
-33
-33
-34
-35
-35
-34
-31
-30
-32
-33
-34
-35
-35
-35
-36
-37
-37
-37
-37
-37
-36
-34
-32
-33
-31
-37
-37
-36
-35
-35
-35
-35
-35
-35
-35
-34
-33
-33
-33
-34
-35
-36
-37
-36
-35
-36
-36
-34
-33
-34
-35
-34
-33
-33
-33
-33
-33
-34
-33
-30
-31
-34
-34
-32
-31
-31
-27
-23
-22
-21
-20
-19
-14
-9
-6
-3
0
2
-4
-10
-14
-17
-17
-17
-17
-19
-25
-28
-26
-27
-31
-34
-36
-37
-36
-35
-35
-32
-28
-31
-37
-36
-32
11
59
120
183
278
373
432
477
304
136
11
-99
-129
-151
-136
-122
-109
-95
-80
-68
-63
-57
-51
-47
-48
-49
-46
-44
-41
-40
-42
-43
-43
-43
-42
-41
-41
-41
-40
-39
-39
-39
-38
-36
-34
-33
-33
-35
-35
-33
-31
-31
-31
-29
-27
-26
-25
-23
-21
-19
-17
-15
-13
-12
-10
-7
-5
-2
1
5
7
8
10
12
13
14
16
18
18
16
15
14
9
4
3
2
-3
-8
-12
-15
-16
-17
-21
-25
-27
-29
-30
-31
-32
-33
-33
-33
-33
-33
-33
-33
-32
-31
-32
-33
-33
-33
-33
-33
-34
-34
-30
-29
-29
-29
-29
-27
-24
-24
-26
-27
-27
-26
-24
-24
-27
-25
-23
-25
-27
-26
-25
-25
-25
-24
-23
-25
-27
-26
-26
-29
-31
-29
-27
-27
-27
-27
-27
-26
-25
-25
-26
-28
-28
-26
-26
-28
-29
-30
-31
-30
-28
-26
-25
-24
-24
-23
-27
-27
-27
-27
-28
-29
-27
-25
-26
-27
-27
-27
-26
-25
-26
-27
-25
-22
-18
-15
-18
-18
-15
-12
-10
-6
0
5
9
10
8
1
-7
-9
-8
-8
-10
-14
-18
-20
-22
-23
-23
-24
-25
-25
-25
-26
-27
-25
-23
-24
-26
-34
-24
25
83
155
242
348
426
470
397
203
49
-71
-130
-145
-141
-125
-105
-85
-72
-62
-52
-43
-39
-36
-35
-36
-35
-32
-33
-37
-34
-31
-32
-33
-30
-27
-26
-25
-25
-25
-27
-29
-27
-25
-25
-25
-25
-25
-24
-23
-23
-21
-17
-15
-16
-17
-17
-15
-12
-11
-11
-9
-6
-4
-2
1
4
8
12
13
13
15
17
19
21
21
21
23
25
24
23
24
25
23
20
15
10
4
1
-1
-5
-10
-13
-14
-16
-19
-21
-20
-19
-19
-19
-20
-22
-24
-25
-25
-25
-25
-25
-25
-25
-25
-25
-25
-21
-17
-19
-21
-21
-21
-20
-19
-19
-19
-18
-17
-16
-15
-15
-15
-13
-11
-12
-14
-16
-17
-16
-15
-15
-15
-15
-16
-18
-19
-18
-17
-16
-15
-15
-16
-18
-18
-16
-17
-21
-19
-17
-18
-19
-17
-15
-15
-15
-15
-15
-17
-19
-18
-17
-18
-19
-18
-17
-17
-17
-16
-15
-14
-14
-16
-17
-17
-17
-17
-16
-14
-10
-6
-5
-4
-2
0
7
14
15
15
17
17
11
5
1
-3
-1
1
-3
-7
-12
-15
-12
-10
-14
-18
-21
-22
-19
-17
-18
-17
-13
-17
-30
-12
25
79
140
218
303
396
491
404
269
117
-38
-93
-136
-127
-114
-96
-79
-66
-53
-46
-39
-35
-31
-31
-31
-31
-31
-30
-29
-29
-29
-29
-28
-25
-23
-25
-27
-26
-25
-24
-23
-24
-25
-24
-23
-22
-21
-21
-20
-18
-17
-17
-17
-16
-14
-12
-11
-13
-10
-7
-6
-5
-1
3
6
9
12
15
17
20
24
27
26
26
29
31
31
31
32
33
32
29
25
20
14
9
5
-1
-7
-11
-14
-17
-20
-22
-24
-25
-25
-26
-25
-30
-31
-31
-31
-32
-33
-32
-31
-31
-31
-31
-31
-31
-31
-30
-29
-31
-33
-31
-29
-30
-30
-28
-27
-28
-28
-26
-24
-22
-21
-22
-24
-26
-26
-24
-24
-26
-27
-26
-25
-26
-27
-27
-25
-23
-24
-25
-27
-29
-28
-27
-29
-31
-30
-29
-29
-29
-29
-29
-28
-27
-28
-29
-29
-29
-28
-27
-28
-29
-28
-27
-28
-29
-28
-27
-26
-25
-26
-27
-28
-28
-26
-26
-29
-27
-25
-27
-29
-28
-27
-25
-23
-24
-25
-26
-27
-25
-23
-25
-27
-25
-23
-24
-25
-24
-23
-22
-21
-21
-20
-17
-13
-10
-10
-12
-10
-4
1
6
9
12
13
13
6
13
-5
-7
-6
-5
-10
-15
-19
-23
-21
-20
-25
-29
-27
-25
-25
-25
-23
-22
-26
-29
-29
-4
47
105
169
254
353
421
475
363
179
40
-85
-124
-140
-132
-119
-100
-81
-71
-62
-53
-45
-41
-37
-37
-37
-37
-37
-36
-35
-36
-37
-35
-33
-34
-35
-34
-33
-32
-31
-31
-31
-31
-31
-30
-29
-29
-29
-28
-27
-27
-26
-24
-22
-20
-19
-19
-19
-19
-17
-14
-13
-13
-9
-5
-3
-1
4
9
12
15
16
17
18
19
22
25
25
25
27
28
25
23
20
18
15
10
4
-1
-5
-9
-13
-17
-22
-23
-24
-25
-26
-27
-28
-28
-26
-27
-25
-32
-33
-32
-31
-33
-35
-33
-31
-32
-33
-32
-31
-31
-31
-31
-31
-32
-33
-31
-29
-32
-32
-29
-27
-28
-28
-26
-25
-24
-24
-26
-27
-28
-28
-26
-27
-30
-30
-28
-27
-28
-29
-29
-27
-25
-28
-31
-30
-29
-30
-31
-31
-31
-31
-31
-32
-33
-31
-29
-27
-25
-27
-29
-30
-31
-30
-29
-29
-29
-30
-30
-28
-27
-28
-29
-28
-27
-28
-29
-29
-29
-28
-27
-29
-28
-27
-27
-27
-27
-27
-26
-25
-26
-27
-27
-27
-25
-24
-27
-29
-27
-25
-25
-24
-21
-18
-15
-13
-13
-13
-13
-8
0
3
4
7
10
7
0
-4
-8
-6
-2
-7
-1
-18
-21
-19
-17
-21
-25
-26
-27
-27
-27
-26
-25
-22
-23
-36
-31
7
52
109
170
236
321
424
436
375
247
75
-36
-115
-139
-138
-128
-114
-98
-82
-72
-63
-54
-46
-44
-42
-39
-37
-35
-33
-34
-35
-34
-33
-33
-33
-34
-35
-33
-31
-30
-29
-28
-27
-25
-23
-24
-25
-24
-23
-23
-23
-23
-22
-20
-19
-19
-18
-16
-13
-10
-9
-9
-9
-8
-4
0
1
1
6
11
11
11
14
17
19
21
23
25
22
19
21
21
15
11
12
11
5
1
-2
-4
-7
-10
-12
-14
-17
-19
-20
-21
-21
-21
-21
-21
-22
-23
-23
-23
-22
-21
-21
-22
-21
-20
-19
-20
-21
-21
-21
-20
-19
-19
-19
-17
-15
-15
-15
-15
-15
-14
-13
-16
-16
-14
-13
-14
-15
-15
-15
-16
-17
-17
-17
-18
-18
-16
-15
-16
-17
-16
-17
-20
-19
-17
-17
-17
-18
-19
-20
-21
-19
-17
-19
-21
-19
-17
-18
-19
-20
-21
-19
-17
-17
-17
-18
-19
-18
-17
-18
-19
-19
-19
-18
-14
-10
-9
-8
-7
-6
-4
-2
6
14
16
19
16
13
6
-1
2
5
3
0
-6
-11
-14
-17
-15
-14
-19
-23
-21
-19
-19
-18
-15
-14
-17
-19
-20
8
55
113
177
258
346
425
500
392
239
93
-51
-99
-137
-129
-139
-100
-83
-68
-55
-47
-39
-35
-31
-31
-31
-30
-29
-27
-25
-25
-25
-25
-25
-24
-23
-24
-24
-22
-21
-22
-22
-19
-17
-17
-17
-16
-15
-16
-16
-14
-13
-14
-14
-12
-11
-10
-6
-3
-2
-1
1
3
5
7
11
15
15
15
18
21
23
25
26
27
29
31
31
31
30
28
26
23
19
16
12
9
5
0
-5
-7
-7
-9
-12
-13
-14
-15
-15
-17
-21
-20
-19
-20
-21
-21
-21
-20
-19
-19
-19
-21
-23
-21
-19
-21
-22
-19
-17
-17
-17
-17
-17
-16
-15
-14
-13
-14
-14
-12
-11
-12
-13
-13
-13
-13
-13
-13
-13
-12
-12
-11
-15
-15
-15
-15
-16
-17
-17
-17
-17
-17
-18
-19
-17
-15
-17
-19
-18
-17
-16
-15
-18
-18
-16
-15
-16
-17
-17
-17
-16
-15
-15
-16
-18
-16
-12
-11
-11
-8
-4
-4
-6
-4
-1
5
11
14
17
15
13
7
3
0
-3
-1
0
-4
-8
-13
-16
-13
-13
-19
-23
-23
-23
-23
-22
-20
-18
-16
-23
-35
-13
23
79
140
212
285
382
483
426
356
176
-6
-79
-149
-142
-133
-113
-93
-75
-60
-52
-45
-42
-39
-36
-33
-35
-37
-35
-33
-33
-33
-30
-29
-28
-27
-28
-29
-30
-30
-28
-27
-27
-27
-27
-27
-26
-25
-24
-22
-20
-19
-19
-20
-19
-17
-15
-14
-13
-11
-9
-6
-3
-2
0
4
7
9
11
13
16
19
21
21
22
24
25
26
27
27
26
24
21
18
13
7
3
0
-6
-12
-14
-16
-20
-24
-27
-29
-30
-31
-30
-29
-31
-33
-32
-31
-33
-35
-35
-35
-35
-35
-36
-37
-36
-35
-35
-35
-35
-35
-34
-33
-34
-34
-32
-31
-30
-29
-30
-30
-28
-27
-27
-27
-28
-29
-28
-27
-29
-29
-29
-30
-31
-30
-29
-29
-29
-30
-31
-33
-35
-33
-31
-33
-35
-33
-31
-33
-35
-34
-33
-32
-31
-32
-33
-33
-33
-32
-31
-32
-33
-32
-31
-31
-31
-31
-30
-28
-28
-27
-31
-31
-31
-31
-31
-31
-31
-31
-28
-25
-22
-19
-18
-17
-16
-14
-8
-4
-1
1
4
3
-2
-7
-13
-14
-11
-11
-14
-17
-21
-23
-24
-26
-28
-31
-34
-34
-32
-31
-31
-28
-25
-33
-40
-22
1
51
104
171
247
359
435
409
333
144
-8
-96
-147
-141
-131
-115
-99
-81
-68
-59
-52
-47
-45
-44
-43
-42
-41
-41
-41
-40
-39
-38
-37
-37
-37
-36
-35
-35
-34
-33
-34
-35
-33
-31
-30
-29
-28
-27
-28
-29
-26
-23
-25
-26
-23
-21
-21
-20
-17
-14
-12
-10
-8
-7
-6
-2
3
5
6
9
12
14
16
17
18
22
26
27
27
24
23
21
19
14
9
6
3
-3
-7
-12
-15
-16
-18
-21
-23
-25
-27
-27
-27
-30
-31
-30
-29
-30
-31
-30
-29
-30
-31
-30
-30
-32
-33
-32
-31
-32
-32
-30
-29
-30
-30
-29
-28
-27
-27
-27
-27
-27
-26
-25
-26
-27
-27
-27
-27
-27
-28
-29
-27
-25
-27
-29
-29
-29
-29
-30
-32
-33
-32
-31
-32
-33
-33
-32
-30
-29
-29
-30
-32
-33
-32
-31
-33
-32
-31
-32
-33
-32
-31
-30
-29
-29
-29
-30
-31
-30
-29
-31
-33
-31
-29
-30
-31
-30
-27
-22
-19
-19
-19
-20
-19
-15
-9
-3
2
6
3
-2
-7
-12
-12
-10
-11
-9
-20
-25
-26
-27
-29
-31
-33
-35
-35
-35
-35
-34
-30
-28
-32
-35
-37
-20
25
78
140
222
323
399
456
370
189
50
-68
-121
-148
-146
-132
-116
-98
-87
-77
-65
-52
-50
-48
-45
-43
-43
-43
-42
-41
-41
-41
-39
-37
-39
-41
-39
-37
-36
-35
-36
-37
-35
-33
-32
-31
-31
-31
-30
-29
-28
-27
-26
-25
-24
-23
-23
-22
-20
-18
-16
-14
-12
-10
-8
-7
-5
-1
3
5
7
8
9
11
13
14
15
16
17
18
19
17
15
14
11
5
0
-3
-6
-9
-12
-14
-18
-23
-25
-24
-25
-28
-29
-28
-27
-28
-29
-29
-29
-28
-27
-27
-28
-27
-28
-29
-30
-31
-30
-29
-27
-25
-25
-25
-24
-23
-23
-23
-23
-23
-21
-19
-20
-21
-21
-21
-21
-21
-21
-21
-21
-21
-21
-22
-24
-24
-22
-21
-22
-23
-23
-23
-23
-22
-21
-20
-19
-20
-21
-23
-25
-24
-23
-23
-23
-23
-23
-22
-21
-20
-19
-17
-15
-15
-14
-12
-11
-10
-9
-8
-3
4
8
10
10
8
5
2
1
0
-2
-4
-10
-16
-18
-21
-21
-21
-25
-29
-27
-25
-23
-21
-21
-21
-21
-23
-32
-25
16
66
130
202
283
370
464
432
287
137
-15
-99
-141
-144
-126
-111
-97
-80
-63
-54
-47
-40
-34
-33
-32
-31
-31
-31
-29
-29
-29
-29
-29
-28
-27
-26
-25
-25
-25
-23
-21
-21
-21
-21
-21
-20
-19
-20
-20
-18
-17
-16
-14
-12
-11
-10
-9
-8
-7
-8
-6
-2
-1
-1
2
6
7
8
11
13
17
21
21
21
20
19
21
23
23
23
21
19
15
12
8
5
3
-1
-6
-10
-13
-15
-16
-18
-20
-21
-22
-23
-24
-25
-26
-26
-24
-24
-26
-27
-28
-28
-26
-25
-27
-25
-23
-24
-25
-24
-23
-22
-21
-20
-19
-20
-21
-18
-15
-17
-19
-17
-15
-16
-17
-16
-15
-15
-15
-15
-16
-18
-18
-16
-17
-20
-21
-20
-19
-19
-19
-19
-18
-16
-16
-15
-19
-19
-20
-21
-21
-21
-20
-19
-13
-9
-8
-7
-5
-2
1
4
7
10
14
16
11
7
3
0
-2
-3
-2
-5
-11
-13
-14
-17
-20
-21
-22
-23
-24
-25
-24
-22
-20
-17
-15
-23
-29
-1
32
88
147
219
298
404
467
404
305
125
-18
-96
-140
-131
-119
-103
-88
-74
-62
-52
-44
-39
-36
-34
-33
-34
-34
-32
-30
-28
-27
-27
-28
-30
-29
-26
-26
-29
-26
-23
-24
-25
-23
-21
-19
-17
-16
-15
-17
-19
-16
-13
-13
-12
-9
-7
-7
-6
-3
0
2
4
7
10
12
16
21
23
23
26
30
31
32
34
36
37
38
38
39
31
27
23
19
14
9
5
1
-3
-8
-13
-17
-17
-18
-21
-23
-24
-25
-24
-23
-26
-27
-27
-27
-28
-29
-28
-27
-27
-27
-27
-28
-30
-29
-26
-27
-30
-29
-26
-25
-26
-25
-23
-23
-23
-22
-21
-22
-23
-21
-19
-20
-21
-21
-21
-21
-21
-21
-21
-20
-19
-20
-21
-22
-23
-24
-25
-25
-25
-26
-27
-26
-25
-26
-26
-24
-23
-24
-25
-25
-25
-25
-26
-29
-27
-25
-26
-27
-25
-23
-23
-23
-22
-21
-19
-17
-15
-13
-15
-14
-6
-1
0
2
7
7
3
-1
-7
-9
-10
-11
-11
-14
-19
-23
-26
-27
-26
-27
-30
-31
-30
-29
-29
-29
-27
-28
-29
-35
-35
8
54
117
186
280
371
457
459
286
125
-15
-109
-140
-150
-135
-118
-100
-85
-74
-64
-55
-49
-45
-43
-43
-44
-46
-46
-44
-43
-43
-43
-42
-41
-41
-40
-39
-36
-33
-35
-37
-37
-37
-36
-35
-35
-35
-35
-35
-31
-29
-29
-28
-24
-21
-22
-23
-22
-20
-17
-15
-14
-12
-8
-5
-2
1
4
8
12
13
13
14
16
19
22
23
21
22
23
20
17
14
11
6
0
-5
-10
-15
-19
-21
-24
-29
-33
-33
-33
-34
-35
-35
-35
-35
-35
-35
-36
-38
-39
-38
-37
-38
-39
-39
-39
-39
-39
-38
-37
-36
-35
-35
-35
-35
-34
-33
-33
-33
-33
-33
-32
-31
-32
-33
-31
-29
-30
-31
-32
-33
-32
-31
-34
-35
-34
-33
-34
-35
-34
-33
-32
-31
-32
-34
-36
-36
-34
-34
-36
-36
-34
-34
-36
-36
-35
-33
-31
-32
-33
-34
-35
-34
-33
-34
-35
-34
-33
-33
-33
-33
-33
-31
-28
-25
-23
-22
-21
-21
-19
-15
-10
-5
-1
3
1
-5
-8
-10
-11
-12
-15
-18
-22
-26
-29
-33
-32
-31
-35
-39
-38
-37
-35
-33
-32
-31
-32
-34
-39
-30
9
56
117
185
265
351
442
409
266
126
-13
-93
-139
-148
-137
-123
-109
-94
-78
-68
-59
-54
-50
-47
-44
-45
-43
-47
-45
-45
-45
-44
-43
-42
-41
-42
-43
-42
-41
-39
-37
-38
-39
-38
-37
-36
-35
-36
-36
-33
-31
-31
-30
-28
-27
-26
-24
-22
-21
-21
-19
-16
-15
-16
-11
-4
-3
-3
1
5
8
11
12
13
14
15
17
19
18
17
15
13
11
8
3
-1
-3
-7
-12
-16
-19
-23
-27
-29
-30
-31
-32
-33
-34
-35
-35
-34
-32
-31
-32
-33
-34
-35
-35
-36
-39
-37
-35
-36
-37
-34
-31
-31
-31
-30
-29
-31
-33
-31
-29
-30
-30
-27
-25
-26
-27
-26
-25
-25
-25
-25
-25
-26
-26
-24
-23
-24
-25
-25
-25
-25
-25
-24
-23
-23
-23
-23
-24
-25
-25
-25
-25
-25
-24
-23
-24
-25
-26
-26
-22
-19
-21
-23
-24
-25
-23
-21
-22
-22
-20
-19
-18
-15
-11
-9
-9
-9
-8
-4
0
5
12
13
14
10
4
0
-4
-3
-1
-7
-13
-15
-17
-18
-19
-20
-21
-24
-27
-24
-21
-20
-19
-18
-21
-31
-24
6
51
111
177
248
339
445
430
346
203
33
-62
-130
-137
-127
-115
-103
-85
-67
-56
-46
-42
-37
-34
-31
-30
-29
-29
-29
-27
-25
-24
-23
-25
-27
-24
-21
-22
-23
-21
-19
-20
-21
-18
-17
-17
-16
-14
-13
-13
-13
-12
-11
-11
-10
-8
-7
-6
-4
-2
0
2
3
3
7
9
12
15
16
17
18
19
21
23
24
25
28
31
30
29
28
27
25
21
16
12
10
7
3
0
-3
-5
-6
-7
-8
-12
-16
-16
-14
-16
-20
-20
-18
-17
-18
-18
-17
-16
-15
-16
-17
-18
-19
-17
-15
-16
-17
-16
-15
-14
-13
-13
-12
-9
-7
-9
-11
-11
-11
-10
-9
-10
-11
-10
-9
-10
-11
-12
-12
-10
-9
-10
-11
-12
-13
-13
-13
-15
-13
-11
-13
-15
-14
-13
-14
-15
-13
-11
-14
-17
-15
-13
-15
-16
-13
-11
-10
-8
-5
-3
-2
0
3
8
13
17
20
21
21
17
11
7
4
3
4
2
-2
-7
-3
-13
-13
-16
-19
-20
-21
-19
-17
-16
-15
-13
-13
-21
-17
16
60
121
187
260
345
444
464
408
282
100
-22
-106
-133
-129
-117
-101
-85
-69
-56
-43
-38
-34
-31
-28
-27
-28
-28
-27
-25
-23
-22
-21
-22
-23
-21
-19
-21
-23
-22
-21
-20
-19
-18
-17
-15
-13
-14
-15
-14
-13
-12
-11
-11
-11
-10
-8
-6
-4
-2
2
6
7
8
9
10
15
20
21
23
27
31
31
31
35
39
40
41
42
42
38
35
33
29
23
18
15
10
3
-1
-4
-5
-6
-8
-11
-14
-17
-19
-18
-18
-20
-21
-20
-19
-20
-21
-21
-20
-18
-19
-17
-23
-23
-22
-21
-22
-23
-21
-19
-19
-19
-18
-17
-15
-13
-13
-13
-15
-17
-15
-13
-16
-17
-16
-15
-16
-16
-14
-13
-13
-14
-16
-17
-18
-19
-18
-18
-20
-21
-20
-19
-20
-20
-19
-18
-17
-18
-19
-20
-21
-19
-17
-19
-21
-20
-19
-19
-19
-20
-21
-19
-17
-18
-19
-19
-19
-20
-21
-20
-17
-13
-10
-8
-7
-7
-3
3
6
8
12
16
14
10
3
-5
-4
-3
-4
-5
-10
-15
-16
-17
-17
-18
-22
-25
-24
-23
-23
-22
-19
-17
-18
-22
-31
-14
27
81
145
222
307
398
494
408
250
97
-54
-111
-146
-137
-119
-101
-82
-71
-81
-50
-41
-38
-35
-36
-37
-36
-35
-35
-35
-35
-35
-32
-29
-30
-31
-31
-31
-30
-29
-30
-31
-30
-29
-29
-28
-26
-24
-22
-21
-22
-23
-23
-21
-18
-17
-18
-17
-14
-13
-12
-8
-5
-2
1
3
5
6
7
11
15
17
19
22
25
26
27
29
32
35
36
32
27
23
19
15
10
5
1
-3
-8
-13
-16
-18
-19
-19
-21
-24
-26
-28
-29
-28
-29
-33
-31
-29
-31
-33
-31
-29
-29
-29
-29
-29
-31
-33
-31
-29
-31
-33
-31
-29
-29
-29
-28
-26
-24
-23
-24
-25
-25
-25
-25
-25
-25
-25
-25
-25
-25
-25
-25
-25
-24
-23
-23
-26
-27
-27
-27
-28
-29
-29
-29
-29
-29
-29
-29
-27
-25
-26
-27
-28
-29
-28
-27
-28
-29
-28
-27
-28
-29
-28
-27
-26
-25
-25
-26
-28
-28
-26
-26
-28
-27
-24
-24
-26
-26
-25
-26
-27
-26
-25
-22
-19
-16
-13
-14
-14
-9
-4
1
6
9
10
7
3
-3
-7
-8
-9
-9
-12
-18
-21
-22
-23
-23
-25
-28
-29
-28
-27
-28
-28
-26
-24
-22
-33
-47
-9
30
84
141
215
295
402
466
358
237
77
-53
-110
-145
-138
-127
-109
-93
-79
-67
-56
-48
-42
-39
-40
-41
-42
-42
-40
-39
-40
-40
-38
-37
-37
-37
-37
-36
-34
-33
-33
-35
-35
-34
-33
-33
-33
-32
-31
-29
-27
-27
-27
-26
-25
-24
-23
-23
-23
-21
-19
-16
-14
-11
-9
-8
-5
-1
3
7
10
12
13
13
15
18
19
18
18
20
20
18
16
15
12
9
4
-1
-6
-11
-14
-17
-21
-25
-27
-29
-30
-31
-31
-31
-30
-29
-31
-33
-34
-35
-34
-33
-34
-35
-35
-35
-36
-37
-36
-34
-32
-31
-32
-33
-34
-34
-32
-31
-33
-32
-31
-30
-29
-29
-29
-29
-29
-28
-27
-29
-31
-29
-27
-29
-31
-31
-31
-31
-31
-32
-32
-30
-29
-30
-32
-34
-34
-32
-31
-32
-33
-32
-31
-32
-33
-32
-30
-28
-28
-27
-32
-33
-32
-31
-32
-33
-32
-31
-31
-31
-31
-31
-30
-29
-30
-31
-30
-29
-28
-27
-28
-27
-23
-21
-21
-20
-18
-15
-11
-5
1
3
4
6
8
3
-6
-7
-8
-9
-9
-14
-19
-22
-25
-23
-21
-26
-31
-29
-27
-28
-29
-26
-23
-22
-25
-37
-34
-7
34
89
150
216
306
414
440
407
279
98
-20
-109
-136
-141
-131
-114
-99
-83
-72
-60
-52
-44
-42
-39
-37
-35
-36
-37
-35
-33
-31
-29
-29
-29
-30
-31
-28
-25
-27
-29
-27
-25
-25
-24
-21
-19
-20
-21
-20
-19
-20
-20
-18
-17
-16
-14
-12
-11
-11
-11
-10
-5
0
1
1
5
7
8
9
10
11
14
17
18
19
19
19
22
25
23
20
17
15
14
12
7
4
1
-3
-9
-11
-12
-14
-16
-17
-17
-20
-24
-24
-22
-23
-26
-26
-24
-23
-24
-25
-25
-23
-21
-22
-23
-24
-25
-23
-21
-22
-23
-22
-21
-21
-21
-20
-19
-18
-17
-18
-19
-19
-19
-19
-19
-19
-19
-19
-19
-20
-21
-21
-21
-20
-19
-20
-21
-21
-21
-21
-22
-25
-23
-21
-22
-23
-22
-21
-21
-21
-21
-21
-22
-23
-22
-21
-23
-25
-23
-21
-22
-23
-22
-21
-21
-20
-18
-16
-13
-11
-10
-9
-10
-8
-4
1
6
10
14
15
15
9
15
-1
-3
-2
-1
-9
-17
-18
-19
-17
-16
-21
-25
-23
-21
-21
-21
-21
-21
-20
-23
-34
-18
24
78
140
210
285
379
483
436
322
165
-6
-85
-140
-141
-131
-112
-93
-78
-64
-53
-43
-38
-33
-31
-29
-31
-33
-31
-29
-29
-29
-28
-27
-27
-27
-26
-25
-23
-21
-22
-23
-23
-23
-22
-21
-21
-21
-20
-19
-18
-16
-14
-12
-10
-9
-9
-9
-9
-8
-6
-5
-3
2
7
8
9
13
17
19
21
23
25
24
24
28
31
30
29
31
32
29
27
26
24
21
17
11
6
1
-3
-6
-9
-12
-13
-14
-16
-18
-19
-19
-19
-18
-18
-17
-22
-23
-23
-23
-23
-23
-23
-23
-24
-25
-24
-23
-20
-17
-18
-19
-20
-21
-20
-19
-20
-20
-17
-15
-16
-17
-16
-15
-14
-13
-13
-14
-16
-17
-16
-17
-20
-19
-16
-15
-16
-17
-17
-17
-17
-17
-17
-18
-19
-17
-15
-18
-21
-19
-17
-18
-19
-19
-19
-17
-15
-16
-17
-17
-17
-17
-17
-18
-19
-18
-17
-16
-14
-12
-8
-4
-3
-4
-5
-4
2
8
9
11
15
19
12
5
2
-1
1
3
-1
-6
-12
-17
-14
-13
-19
-23
-22
-21
-21
-20
-15
-13
-14
-20
-29
-10
26
75
129
187
247
333
427
457
472
321
140
19
-97
-122
-103
-126
-109
-92
-76
-65
-54
-46
-39
-37
-35
-33
-31
-30
-29
-29
-29
-29
-29
-29
-29
-29
-28
-26
-25
-26
-26
-24
-23
-22
-21
-21
-21
-22
-21
-18
-17
-18
-17
-14
-13
-13
-11
-9
-6
-3
-3
-3
-2
-1
2
5
8
11
13
16
20
23
25
28
32
35
34
33
34
35
35
33
29
25
21
16
11
6
1
-2
-4
-9
-14
-16
-18
-19
-20
-22
-25
-24
-23
-25
-27
-26
-25
-24
-23
-24
-25
-27
-29
-28
-27
-28
-29
-27
-25
-27
-29
-26
-24
-22
-21
-21
-21
-22
-23
-22
-21
-22
-22
-20
-19
-20
-21
-21
-21
-20
-20
-19
-23
-23
-22
-21
-22
-23
-24
-25
-24
-23
-25
-27
-24
-21
-23
-25
-25
-25
-24
-23
-26
-26
-24
-23
-24
-25
-25
-25
-24
-23
-23
-23
-24
-25
-24
-23
-24
-24
-22
-23
-26
-24
-21
-18
-15
-14
-13
-12
-11
-7
-3
1
5
8
11
10
7
1
-3
-4
-5
-5
-7
-12
-16
-18
-19
-19
-21
-25
-27
-27
-27
-27
-24
-20
-19
-19
-28
-40
-11
21
75
130
200
273
379
465
387
295
126
-23
-94
-146
-140
-130
-112
-95
-80
-67
-56
-48
-44
-41
-40
-39
-38
-37
-37
-37
-37
-37
-36
-35
-35
-34
-32
-31
-32
-33
-33
-31
-28
-27
-27
-28
-27
-26
-25
-25
-25
-24
-23
-22
-21
-21
-21
-18
-15
-14
-13
-12
-10
-6
-3
0
2
5
8
10
12
14
17
20
22
24
25
24
24
26
24
20
19
18
14
10
5
1
-3
-7
-11
-15
-19
-23
-24
-25
-28
-31
-29
-27
-29
-31
-30
-29
-30
-31
-31
-31
-31
-31
-32
-33
-33
-33
-32
-31
-30
-30
-32
-31
-28
-27
-28
-29
-29
-29
-28
-27
-29
-28
-27
-27
-27
-27
-27
-26
-25
-25
-25
-27
-29
-28
-27
-29
-31
-30
-30
-33
-34
-31
-29
-28
-27
-28
-29
-30
-30
-28
-28
-30
-31
-31
-31
-30
-29
-30
-30
-28
-28
-27
-32
-33
-31
-29
-30
-31
-31
-31
-31
-31
-30
-28
-23
-19
-19
-19
-19
-18
-15
-13
-10
-6
0
5
9
8
3
-2
-7
-9
-8
-8
-10
-15
-22
-23
-23
-25
-28
-29
-30
-33
-35
-31
-27
-26
-25
-26
-28
-36
-34
11
61
121
191
283
369
443
420
253
103
-26
-105
-135
-142
-129
-115
-101
-86
-72
-61
-52
-46
-41
-39
-39
-38
-36
-35
-36
-37
-36
-35
-37
-34
-31
-31
-31
-30
-29
-27
-25
-25
-25
-27
-29
-26
-23
-24
-25
-23
-21
-20
-19
-18
-16
-13
-11
-11
-11
-11
-10
-8
-7
-6
-2
2
4
6
8
10
13
16
17
17
17
19
19
19
17
15
14
13
10
7
5
3
1
-3
-10
-15
-17
-19
-19
-20
-25
-27
-26
-25
-25
-25
-25
-25
-24
-23
-24
-26
-28
-28
-26
-25
-25
-25
-24
-23
-22
-21
-21
-22
-23
-22
-21
-22
-23
-21
-19
-20
-21
-19
-17
-17
-17
-19
-21
-20
-19
-20
-21
-22
-22
-20
-20
-22
-23
-22
-21
-21
-21
-22
-23
-22
-21
-22
-23
-23
-23
-22
-21
-23
-23
-23
-22
-21
-21
-21
-19
-17
-19
-21
-21
-20
-16
-13
-14
-15
-13
-11
-9
-4
3
9
14
16
14
8
0
-3
-3
-3
-4
-9
-15
-17
-18
-19
-19
-19
-20
-23
-21
-27
-27
-25
-23
-22
-22
-33
-37
-2
39
103
170
247
331
430
464
385
267
95
-33
-111
-145
-137
-125
-111
-95
-77
-64
-53
-45
-39
-37
-37
-36
-34
-33
-34
-35
-34
-32
-30
-28
-27
-26
-25
-25
-25
-25
-25
-24
-23
-23
-23
-23
-23
-21
-19
-18
-16
-13
-11
-12
-13
-12
-11
-10
-8
-6
-4
-2
0
2
5
8
10
12
14
16
17
17
19
22
23
23
25
27
26
25
24
23
20
17
15
12
6
1
-1
-4
-9
-13
-14
-15
-17
-19
-19
-19
-20
-21
-20
-20
-22
-22
-20
-21
-24
-24
-22
-21
-22
-23
-22
-21
-20
-19
-19
-19
-19
-17
-15
-16
-17
-16
-15
-14
-13
-15
-17
-15
-13
-13
-13
-14
-15
-14
-13
-16
-17
-16
-15
-15
-15
-15
-15
-14
-13
-14
-15
-16
-16
-14
-15
-18
-19
-18
-17
-18
-17
-15
-15
-15
-15
-15
-16
-17
-14
-11
-9
-7
-6
-5
-3
0
5
11
16
19
18
14
8
4
1
-1
0
-2
-7
-11
-15
-17
-16
-16
-18
-21
-24
-25
-24
-22
-20
-19
-17
-27
-36
-4
31
88
148
224
307
416
481
407
302
120
-26
-106
-151
-138
-124
-108
-91
-74
-60
-50
-43
-37
-35
-35
-35
-34
-33
-34
-34
-32
-31
-30
-29
-30
-28
-24
-24
-23
-27
-27
-27
-27
-27
-27
-25
-23
-22
-21
-21
-21
-18
-15
-15
-15
-15
-15
-13
-11
-11
-10
-7
-4
-1
2
4
7
11
15
18
19
19
22
26
27
26
27
30
30
28
27
27
23
19
15
11
6
1
-2
-6
-12
-17
-19
-21
-23
-25
-26
-27
-26
-25
-27
-29
-29
-29
-30
-31
-32
-33
-33
-33
-32
-31
-32
-32
-30
-29
-29
-30
-32
-32
-30
-29
-31
-29
-27
-28
-29
-27
-25
-24
-23
-23
-23
-24
-25
-24
-23
-25
-27
-25
-23
-25
-27
-26
-25
-24
-24
-26
-27
-28
-29
-28
-27
-28
-29
-29
-29
-29
-29
-29
-27
-24
-24
-23
-28
-29
-28
-27
-28
-29
-28
-27
-28
-29
-28
-27
-24
-20
-17
-15
-16
-17
-15
-12
-7
-3
1
4
6
5
1
-3
-6
-7
-7
-10
-14
-17
-20
-23
-26
-27
-27
-29
-32
-32
-31
-28
-25
-25
-25
-27
-29
-31
-24
19
66
126
196
290
374
441
415
253
106
-21
-101
-134
-142
-127
-113
-99
-85
-72
-61
-52
-46
-42
-40
-38
-37
-38
-40
-42
-41
-38
-37
-39
-37
-35
-36
-37
-35
-33
-33
-33
-32
-31
-32
-33
-30
-27
-29
-31
-29
-27
-27
-26
-23
-21
-20
-18
-16
-15
-15
-13
-10
-9
-8
-4
0
2
4
7
10
12
14
15
15
18
19
21
23
20
17
15
13
10
6
1
-3
-6
-10
-15
-20
-23
-25
-26
-28
-31
-33
-33
-33
-33
-33
-34
-35
-34
-33
-33
-34
-36
-36
-34
-35
-38
-37
-34
-34
-36
-36
-35
-33
-31
-31
-31
-32
-33
-32
-31
-32
-33
-31
-29
-30
-31
-31
-31
-29
-27
-29
-31
-31
-32
-34
-35
-35
-35
-34
-33
-33
-33
-32
-31
-31
-31
-31
-33
-36
-36
-34
-34
-37
-35
-33
-35
-37
-37
-37
-35
-33
-33
-33
-34
-35
-33
-32
-35
-37
-36
-35
-35
-35
-34
-33
-33
-33
-32
-32
-34
-34
-32
-30
-28
-26
-24
-23
-23
-20
-16
-9
-2
2
-1
4
1
-6
-13
-15
-17
-15
-14
-20
-25
-26
-27
-27
-28
-32
-35
-36
-37
-35
-33
-32
-31
-31
-35
-43
-21
22
79
143
227
318
397
473
355
186
52
-75
-119
-152
-145
-134
-117
-101
-87
-73
-64
-55
-50
-45
-44
-43
-43
-43
-43
-43
-43
-43
-42
-41
-39
-37
-38
-39
-39
-38
-36
-36
-38
-38
-36
-35
-35
-34
-32
-30
-28
-28
-30
-30
-28
-27
-26
-25
-25
-22
-19
-20
-21
-17
-13
-10
-7
-4
-1
-1
0
4
7
5
4
8
11
9
7
10
11
12
12
9
6
3
0
-2
-5
-10
-14
-18
-19
-20
-22
-24
-25
-24
-25
-23
-30
-31
-31
-31
-31
-31
-31
-31
-31
-31
-30
-29
-29
-29
-29
-29
-30
-31
-29
-27
-30
-30
-27
-25
-25
-25
-24
-23
-22
-21
-22
-24
-26
-26
-24
-24
-26
-26
-24
-23
-24
-25
-25
-23
-21
-22
-23
-23
-23
-24
-25
-27
-29
-27
-25
-27
-29
-28
-27
-26
-25
-25
-25
-25
-25
-25
-25
-25
-25
-25
-25
-24
-20
-16
-14
-12
-11
-12
-11
-8
-2
4
7
11
7
3
-3
-9
-7
-5
-7
-10
-17
-23
-22
-21
-23
-26
-30
-33
-32
-31
-30
-28
-25
-25
-29
-32
-34
-5
43
100
163
242
327
408
489
385
236
89
-59
-110
-151
-142
-153
-113
-97
-82
-69
-61
-52
-45
-39
-39
-39
-39
-39
-36
-33
-34
-35
-35
-35
-33
-31
-32
-33
-32
-31
-30
-29
-28
-26
-24
-23
-23
-24
-26
-25
-22
-21
-22
-22
-20
-19
-19
-15
-11
-9
-7
-7
-7
-6
-5
-2
1
2
3
6
9
10
11
12
14
18
21
20
19
18
17
16
13
9
7
6
3
-1
-5
-8
-9
-10
-13
-16
-18
-20
-21
-22
-24
-27
-26
-25
-26
-27
-26
-25
-24
-23
-23
-23
-25
-27
-24
-21
-23
-25
-23
-21
-22
-23
-20
-19
-18
-17
-16
-15
-16
-16
-14
-15
-18
-19
-18
-17
-17
-17
-17
-17
-16
-15
-15
-17
-17
-17
-17
-17
-17
-18
-19
-20
-21
-20
-19
-17
-15
-17
-19
-19
-19
-19
-19
-19
-19
-18
-17
-18
-16
-11
-8
-6
-5
-5
-2
2
7
12
13
14
15
14
8
2
0
-1
0
1
-4
-9
-14
-19
-16
-14
-20
-25
-24
-23
-23
-23
-21
-19
-17
-20
-32
-21
16
67
129
206
292
389
492
420
266
110
-46
-109
-146
-140
-124
-104
-85
-71
-58
-51
-43
-39
-35
-35
-35
-34
-33
-33
-33
-32
-31
-32
-33
-30
-27
-29
-31
-29
-27
-28
-29
-26
-25
-26
-27
-26
-25
-25
-24
-22
-21
-22
-22
-20
-19
-19
-17
-14
-11
-8
-7
-7
-4
-3
0
3
5
7
10
13
16
19
19
20
24
27
27
27
25
23
22
19
14
9
5
1
-3
-8
-13
-16
-18
-21
-24
-27
-30
-31
-31
-33
-36
-36
-34
-34
-36
-36
-35
-34
-33
-33
-33
-35
-37
-36
-35
-36
-37
-36
-35
-34
-33
-33
-32
-29
-27
-29
-31
-31
-31
-30
-29
-29
-29
-29
-29
-28
-27
-27
-27
-27
-27
-27
-28
-30
-31
-31
-31
-33
-32
-31
-32
-33
-32
-31
-31
-31
-31
-31
-33
-35
-33
-31
-33
-35
-33
-31
-32
-33
-32
-31
-30
-29
-29
-30
-32
-33
-32
-31
-32
-32
-30
-27
-24
-22
-20
-18
-16
-13
-15
-5
-1
3
7
0
-7
-10
-13
-12
-11
-13
-16
-20
-23
-25
-27
-28
-30
-33
-35
-35
-34
-32
-31
-30
-32
-37
-34
-26
10
57
113
172
264
365
420
467
308
121
-5
-127
-140
-151
-135
-118
-101
-84
-73
-62
-53
-45
-46
-47
-45
-43
-43
-43
-43
-43
-41
-39
-39
-39
-39
-39
-38
-37
-37
-37
-36
-35
-34
-34
-36
-35
-32
-31
-31
-31
-31
-30
-28
-27
-27
-25
-23
-21
-19
-18
-17
-14
-11
-9
-7
-6
-4
1
5
5
6
9
11
12
14
17
19
20
21
21
19
15
11
8
4
-1
-5
-8
-12
-16
-20
-24
-25
-26
-28
-27
-33
-35
-35
-35
-36
-37
-38
-39
-38
-37
-37
-37
-36
-35
-36
-37
-38
-39
-39
-39
-39
-38
-36
-35
-36
-36
-34
-33
-32
-31
-31
-32
-34
-34
-32
-32
-34
-35
-34
-33
-34
-34
-33
-33
-33
-33
-33
-35
-37
-36
-35
-36
-37
-36
-35
-35
-35
-36
-36
-33
-32
-35
-37
-38
-38
-36
-35
-36
-37
-38
-39
-39
-39
-38
-35
-32
-32
-34
-35
-36
-37
-36
-35
-37
-35
-33
-31
-29
-27
-25
-23
-21
-20
-18
-13
-8
-2
2
-2
-6
-10
-14
-17
-19
-18
-20
-26
-29
-30
-31
-32
-33
-34
-36
-38
-39
-38
-37
-36
-35
-36
-40
-44
-6
-45
95
156
238
321
409
466
330
192
47
-76
-126
-159
-145
-131
-118
-104
-88
-75
-65
-58
-53
-51
-52
-52
-50
-48
-46
-45
-44
-43
-42
-41
-42
-42
-40
-39
-39
-39
-38
-37
-38
-38
-37
-36
-35
-33
-31
-32
-33
-31
-29
-30
-31
-28
-25
-26
-26
-23
-20
-17
-15
-15
-14
-11
-8
-6
-4
-2
0
2
3
3
3
4
8
12
13
12
11
10
8
6
2
-3
-6
-9
-13
-17
-18
-19
-22
-25
-26
-27
-30
-33
-32
-32
-35
-37
-35
-33
-34
-35
-35
-35
-34
-32
-30
-30
-32
-33
-32
-32
-34
-33
-30
-29
-29
-29
-28
-25
-22
-22
-21
-26
-27
-26
-25
-25
-25
-25
-25
-24
-23
-24
-25
-23
-21
-22
-23
-24
-25
-24
-23
-26
-27
-26
-25
-25
-25
-24
-23
-22
-22
-24
-25
-24
-23
-24
-25
-25
-24
-22
-21
-22
-22
-21
-21
-21
-21
-21
-19
-17
-13
-9
-10
-10
-6
-2
2
6
11
15
16
14
7
1
-4
-5
-1
-3
-10
-14
-18
-18
-16
-18
-23
-25
-25
-25
-25
-25
-24
-22
-20
-27
-37
-24
-8
44
97
160
228
330
419
463
451
266
99
-25
-115
-138
-146
-128
-111
-97
-82
-67
-54
-44
-38
-35
-33
-33
-33
-33
-33
-33
-33
-32
-31
-31
-30
-28
-26
-24
-23
-23
-25
-25
-24
-23
-23
-23
-23
-23
-21
-19
-18
-17
-14
-11
-11
-11
-12
-12
-9
-7
-7
-6
-3
-1
0
2
5
9
12
13
14
15
15
16
18
19
19
21
24
24
22
21
21
19
17
13
9
4
-1
-3
-5
-8
-11
-13
-15
-16
-17
-18
-19
-18
-17
-19
-21
-21
-21
-21
-21
-22
-23
-22
-21
-20
-19
-20
-18
-14
-14
-16
-17
-16
-15
-14
-13
-15
-14
-13
-12
-11
-11
-11
-10
-9
-11
-13
-14
-15
-13
-11
-13
-15
-13
-11
-13
-15
-14
-13
-12
-11
-12
-13
-14
-15
-14
-14
-16
-16
-14
-13
-13
-13
-14
-15
-14
-13
-13
-9
-5
-3
-1
-1
-1
2
5
11
15
17
19
22
23
15
8
4
2
5
5
-2
-7
-11
-13
-12
-13
-17
-19
-19
-19
-18
-17
-17
-15
-12
-22
-35
-5
32
88
146
223
302
407
499
409
309
131
-28
-93
-143
-133
-121
-103
-87
-71
-58
-49
-41
-33
-29
-29
-29
-29
-29
-28
-27
-27
-26
-24
-23
-23
-23
-23
-22
-20
-19
-20
-21
-20
-19
-18
-17
-19
-17
-15
-15
-15
-14
-13
-11
-9
-8
-7
-6
-5
-3
-1
-1
0
4
7
9
12
17
20
22
24
26
27
28
30
32
33
32
32
34
33
30
27
24
22
20
13
19
1
-3
-7
-11
-15
-19
-20
-21
-23
-25
-26
-27
-25
-24
-27
-29
-29
-29
-28
-27
-30
-31
-30
-29
-30
-31
-31
-29
-26
-25
-25
-25
-26
-26
-24
-24
-26
-26
-24
-23
-23
-22
-21
-21
-21
-21
-21
-23
-25
-23
-21
-24
-27
-26
-25
-25
-25
-26
-27
-26
-25
-26
-27
-27
-27
-26
-26
-28
-29
-28
-27
-27
-27
-27
-27
-26
-25
-26
-27
-27
-27
-26
-25
-27
-26
-25
-26
-27
-27
-27
-25
-23
-22
-21
-18
-15
-14
-13
-13
-11
-4
1
2
5
10
10
3
-3
-9
-11
-11
-11
-12
-18
-25
-26
-24
-25
-28
-29
-30
-30
-28
-27
-27
-27
-25
-29
-33
-33
-27
18
65
123
185
265
348
437
453
319
181
37
-69
-124
-148
-135
-122
-106
-91
-75
-64
-55
-49
-45
-43
-42
-41
-41
-41
-41
-40
-38
-37
-38
-38
-36
-36
-37
-36
-35
-35
-35
-33
-31
-32
-33
-30
-27
-29
-31
-29
-27
-27
-27
-25
-23
-22
-21
-20
-19
-18
-17
-16
-14
-10
-7
-4
0
4
8
12
13
14
15
15
16
18
19
19
20
21
19
17
14
11
7
2
-3
-8
-14
-19
-20
-22
-27
-31
-30
-29
-31
-33
-33
-33
-33
-33
-32
-32
-34
-34
-32
-33
-36
-36
-34
-33
-33
-33
-33
-32
-30
-29
-29
-29
-29
-28
-27
-28
-29
-27
-25
-25
-25
-26
-27
-26
-25
-26
-27
-27
-27
-26
-25
-28
-29
-28
-27
-28
-29
-29
-29
-28
-27
-28
-29
-30
-30
-28
-29
-32
-31
-28
-28
-30
-30
-29
-28
-27
-27
-27
-28
-29
-28
-27
-29
-31
-28
-25
-26
-27
-26
-25
-25
-25
-26
-27
-26
-24
-21
-19
-18
-17
-16
-13
-9
-4
0
6
13
11
6
1
-4
-7
-10
-11
-9
-14
-19
-22
-25
-24
-23
-26
-29
-29
-29
-30
-31
-28
-25
-25
-28
-37
-31
-4
36
88
148
214
302
406
431
409
278
95
-23
-115
-139
-142
-131
-116
-99
-83
-70
-58
-53
-57
-44
-41
-41
-41
-41
-41
-41
-41
-40
-39
-39
-39
-37
-35
-35
-35
-36
-37
-36
-35
-34
-33
-32
-31
-32
-32
-29
-27
-26
-25
-25
-25
-26
-25
-22
-21
-22
-21
-18
-17
-16
-10
-5
-2
1
2
3
3
3
6
9
10
11
12
13
14
15
15
15
14
11
6
1
-3
-7
-11
-15
-19
-22
-24
-25
-26
-28
-30
-31
-30
-30
-32
-33
-34
-35
-34
-33
-35
-35
-35
-34
-33
-33
-33
-31
-29
-29
-29
-30
-31
-29
-27
-28
-29
-27
-25
-26
-27
-27
-27
-27
-26
-24
-24
-26
-26
-24
-25
-30
-30
-28
-27
-28
-29
-28
-27
-26
-25
-25
-28
-29
-28
-27
-29
-31
-29
-27
-27
-27
-27
-27
-27
-27
-29
-31
-29
-27
-25
-24
-27
-29
-28
-27
-27
-26
-24
-23
-22
-21
-22
-23
-24
-22
-18
-16
-14
-12
-10
-9
-10
-2
7
10
13
16
18
8
-1
-2
-3
-2
-2
-8
-13
-17
-18
-15
-14
-18
-21
-23
-25
-25
-25
-24
-22
-20
-23
-30
-25
-13
28
79
142
207
302
402
445
480
320
143
19
-101
-123
-145
-131
-118
-100
-83
-68
-54
-47
-41
-38
-35
-32
-29
-31
-33
-31
-29
-28
-27
-27
-26
-24
-23
-23
-24
-26
-26
-24
-23
-23
-22
-20
-19
-19
-19
-18
-16
-14
-13
-13
-13
-13
-11
-9
-9
-9
-8
-7
-5
-3
-1
2
6
9
9
9
10
11
13
15
15
16
18
19
19
19
18
17
17
15
11
6
2
0
-2
-7
-12
-13
-12
-12
-14
-16
-17
-18
-19
-20
-21
-22
-23
-21
-19
-22
-25
-24
-23
-24
-25
-23
-21
-20
-19
-19
-19
-19
-19
-18
-17
-17
-17
-17
-17
-16
-15
-16
-16
-14
-13
-14
-15
-16
-17
-17
-17
-19
-17
-15
-17
-19
-18
-17
-17
-17
-17
-17
-19
-21
-19
-18
-21
-23
-21
-19
-20
-21
-20
-19
-19
-18
-16
-15
-14
-11
-8
-7
-8
-7
-4
1
8
11
14
15
16
10
17
-1
-3
-2
-1
-8
-15
-18
-21
-20
-19
-24
-27
-26
-25
-25
-25
-24
-23
-21
-25
-40
-30
5
52
107
173
247
346
457
450
390
236
51
-51
-132
-145
-144
-126
-107
-90
-74
-62
-51
-43
-35
-35
-35
-36
-37
-35
-33
-34
-35
-32
-29
-30
-31
-30
-29
-27
-25
-24
-23
-24
-24
-22
-22
-24
-24
-22
-21
-20
-19
-18
-15
-12
-11
-12
-12
-10
-9
-8
-7
-5
-2
1
5
9
11
13
16
19
21
23
22
21
24
27
26
25
27
28
24
21
18
15
11
7
3
-2
-7
-10
-12
-16
-21
-23
-23
-24
-26
-27
-27
-27
-26
-26
-25
-29
-29
-29
-29
-31
-33
-32
-31
-30
-29
-29
-29
-27
-25
-26
-27
-26
-25
-25
-25
-26
-26
-23
-21
-20
-19
-20
-21
-20
-19
-20
-21
-21
-21
-21
-22
-24
-25
-24
-24
-26
-26
-25
-24
-23
-24
-25
-25
-25
-25
-25
-27
-29
-28
-27
-27
-27
-27
-26
-23
-22
-25
-27
-26
-25
-26
-27
-27
-26
-22
-19
-16
-15
-15
-11
-6
-2
2
3
4
7
10
3
-7
-10
-13
-12
-11
-13
-15
-20
-25
-23
-22
-28
-33
-33
-33
-34
-34
-31
-29
-28
-31
-40
-25
13
62
121
191
267
363
469
415
297
142
-25
-101
-155
-149
-133
-115
-96
-83
-95
-61
-53
-48
-43
-44
-45
-44
-43
-42
-41
-41
-41
-39
-37
-38
-39
-38
-37
-37
-37
-37
-37
-36
-35
-34
-33
-33
-32
-30
-29
-29
-29
-29
-28
-26
-25
-26
-23
-18
-17
-17
-15
-13
-10
-7
-4
-1
0
1
5
9
10
11
13
15
16
17
18
19
21
22
19
16
13
9
5
0
-5
-10
-15
-19
-22
-25
-28
-29
-28
-29
-32
-33
-34
-35
-35
-35
-37
-37
-37
-37
-37
-37
-37
-35
-33
-34
-35
-36
-37
-35
-33
-35
-36
-33
-31
-32
-33
-30
-29
-28
-27
-27
-27
-28
-29
-28
-27
-27
-27
-27
-27
-27
-27
-28
-28
-26
-26
-25
-29
-29
-30
-31
-31
-31
-31
-31
-31
-31
-31
-31
-29
-27
-28
-29
-30
-31
-30
-29
-30
-31
-30
-29
-30
-31
-30
-29
-28
-27
-27
-27
-26
-22
-18
-17
-18
-16
-12
-8
-4
1
5
5
5
-1
-7
-10
-13
-11
-10
-17
-23
-25
-27
-26
-26
-29
-31
-31
-31
-31
-31
-30
-28
-26
-31
-41
-24
10
59
116
183
255
350
451
402
320
165
0
-76
-144
-142
-135
-119
-103
-87
-72
-62
-52
-45
-39
-39
-39
-39
-39
-38
-37
-38
-38
-35
-33
-35
-37
-34
-33
-32
-31
-31
-31
-32
-32
-30
-29
-30
-30
-28
-27
-27
-26
-24
-22
-20
-19
-19
-19
-19
-16
-13
-12
-11
-8
-5
-1
3
4
6
11
15
15
15
17
19
21
23
24
25
26
27
26
23
19
15
12
9
5
-1
-7
-11
-14
-18
-22
-23
-23
-24
-26
-27
-27
-26
-25
-26
-27
-29
-31
-30
-29
-30
-31
-30
-29
-30
-31
-30
-29
-28
-27
-27
-27
-27
-26
-24
-24
-26
-26
-24
-23
-24
-25
-24
-23
-22
-21
-22
-23
-23
-23
-24
-25
-25
-25
-25
-25
-25
-26
-27
-26
-25
-25
-25
-27
-29
-28
-27
-29
-31
-29
-27
-29
-31
-28
-27
-26
-25
-26
-27
-28
-28
-26
-27
-30
-30
-28
-27
-27
-27
-28
-29
-28
-27
-27
-28
-29
-27
-25
-24
-23
-19
-15
-15
-15
-13
-9
-1
5
7
9
8
5
0
-4
-9
-10
-8
-9
-15
-18
-21
-22
-20
-21
-25
-29
-32
-32
-30
-30
-32
-28
-22
-30
-40
-25
-8
44
97
158
223
326
414
435
411
226
62
-41
-119
-138
-146
-131
-114
-96
-81
-71
-61
-53
-47
-43
-41
-42
-43
-42
-41
-41
-41
-40
-36
-32
-32
-34
-35
-35
-34
-32
-32
-35
-32
-29
-29
-29
-30
-31
-29
-27
-26
-25
-25
-25
-23
-21
-21
-21
-19
-17
-15
-12
-9
-7
-6
-3
1
3
3
5
9
10
8
9
12
13
13
13
14
15
16
15
17
7
3
0
-3
-6
-9
-12
-15
-17
-19
-21
-23
-23
-23
-24
-25
-26
-27
-27
-27
-27
-27
-27
-27
-28
-28
-26
-25
-24
-23
-24
-25
-25
-24
-22
-21
-22
-23
-22
-21
-21
-19
-17
-16
-15
-16
-17
-19
-21
-20
-19
-21
-23
-21
-19
-20
-21
-20
-19
-18
-17
-18
-19
-20
-21
-21
-21
-22
-23
-22
-21
-21
-21
-22
-22
-20
-20
-22
-22
-20
-19
-19
-19
-21
-20
-19
-19
-19
-18
-17
-13
-9
-8
-7
-7
-6
-1
4
8
13
18
19
13
8
3
1
1
1
1
-4
-12
-15
-15
-16
-18
-20
-22
-23
-24
-24
-22
-20
-18
-17
-17
-28
-37
6
50
114
181
272
363
452
487
339
189
33
-86
-128
-149
-133
-116
-99
-83
-68
-57
-49
-43
-39
-37
-36
-34
-32
-31
-32
-33
-32
-31
-30
-29
-29
-29
-28
-27
-27
-27
-27
-26
-25
-23
-21
-22
-23
-21
-19
-20
-20
-16
-13
-14
-15
-13
-11
-9
-7
-6
-5
-4
-1
3
5
5
6
10
12
14
15
16
20
24
25
24
23
23
23
23
22
19
16
13
10
7
4
1
-1
-3
-7
-11
-14
-17
-17
-18
-21
-23
-22
-21
-23
-25
-26
-27
-26
-25
-25
-25
-25
-24
-22
-23
-26
-25
-22
-21
-22
-23
-23
-21
-18
-17
-17
-18
-19
-17
-15
-17
-19
-18
-17
-16
-15
-15
-15
-15
-15
-16
-17
-18
-19
-19
-19
-20
-21
-21
-21
-20
-19
-20
-21
-20
-19
-19
-19
-20
-21
-20
-19
-20
-21
-20
-20
-22
-22
-21
-20
-19
-18
-17
-19
-20
-14
-9
-10
-11
-9
-6
-2
2
6
10
14
15
10
4
-2
-5
-4
-4
-6
-10
-15
-17
-18
-19
-20
-21
-22
-24
-26
-26
-24
-22
-20
-22
-27
-29
-29
15
62
127
197
293
384
461
478
310
149
7
-98
-132
-146
-128
-110
-92
-78
-65
-55
-47
-42
-39
-37
-38
-39
-38
-37
-38
-38
-36
-35
-35
-35
-34
-33
-32
-31
-31
-31
-31
-30
-29
-29
-29
-28
-27
-26
-25
-25
-25
-22
-19
-20
-21
-20
-19
-17
-15
-12
-10
-7
-4
-2
0
3
7
11
14
16
17
17
19
22
23
23
24
26
27
26
24
23
20
17
12
7
1
-5
-8
-12
-18
-23
-24
-25
-29
-31
-31
-31
-30
-29
-30
-32
-34
-34
-32
-32
-35
-37
-36
-35
-35
-35
-35
-34
-32
-32
-34
-35
-34
-33
-32
-31
-31
-30
-29
-29
-29
-29
-29
-28
-27
-28
-29
-28
-27
-27
-27
-29
-31
-30
-29
-30
-31
-31
-31
-31
-31
-30
-30
-32
-32
-30
-31
-34
-34
-32
-32
-34
-35
-34
-33
-32
-31
-31
-34
-35
-33
-31
-32
-33
-32
-31
-32
-33
-33
-33
-31
-29
-31
-33
-32
-31
-31
-31
-32
-33
-32
-31
-30
-27
-23
-19
-16
-16
-18
-16
-12
-7
-2
0
2
3
2
-5
-12
-13
-13
-13
-13
-18
-23
-27
-31
-28
-26
-31
-35
-34
-33
-32
-30
-27
-25
-27
-30
-34
-16
27
83
149
229
317
394
466
376
211
73
-56
-111
-145
-140
-127
-111
-95
-82
-70
-62
-53
-49
-45
-45
-45
-45
-45
-43
-41
-41
-41
-41
-41
-40
-39
-40
-41
-39
-37
-38
-39
-38
-37
-36
-34
-32
-32
-34
-33
-30
-30
-32
-30
-26
-25
-25
-24
-22
-20
-18
-16
-17
-11
-9
-5
-1
0
1
4
7
9
11
13
15
18
21
21
21
22
23
21
18
13
9
5
1
-3
-8
-13
-16
-18
-21
-24
-26
-28
-29
-29
-31
-34
-35
-34
-33
-33
-33
-33
-33
-33
-32
-31
-33
-35
-34
-33
-36
-38
-34
-31
-33
-35
-34
-33
-31
-29
-30
-31
-31
-31
-30
-29
-30
-31
-30
-29
-29
-29
-30
-30
-28
-28
-30
-31
-32
-33
-33
-33
-33
-34
-35
-34
-33
-33
-33
-32
-31
-32
-33
-34
-35
-34
-33
-34
-35
-34
-33
-35
-36
-33
-31
-31
-31
-32
-33
-34
-34
-32
-33
-36
-36
-34
-33
-33
-33
-32
-31
-30
-29
-29
-32
-33
-33
-33
-33
-33
-32
-31
-29
-27
-25
-23
-21
-19
-17
-13
-7
-2
2
5
5
2
-5
-11
-15
-16
-13
-15
-21
-24
-26
-28
-30
-31
-32
-34
-36
-36
-34
-32
-30
-33
-37
-35
-30
17
66
125
188
267
346
426
448
308
168
27
-79
-127
-150
-137
-123
-109
-95
-82
-70
-60
-54
-51
-48
-46
-45
-44
-43
-42
-40
-38
-37
-37
-37
-37
-37
-37
-36
-33
-32
-31
-31
-31
-30
-29
-28
-27
-28
-29
-28
-27
-25
-23
-24
-24
-21
-19
-18
-17
-14
-12
-10
-8
-5
-3
-2
2
7
9
8
9
12
13
13
14
16
17
18
19
19
16
13
12
11
6
1
-1
-3
-6
-9
-12
-15
-15
-16
-19
-21
-23
-25
-24
-23
-26
-27
-27
-27
-26
-25
-26
-27
-26
-25
-24
-23
-24
-25
-24
-23
-24
-24
-22
-21
-22
-21
-19
-18
-17
-17
-17
-20
-23
-19
-15
-18
-21
-19
-17
-18
-19
-18
-17
-18
-19
-18
-17
-18
-19
-18
-18
-20
-21
-20
-19
-19
-19
-19
-18
-16
-16
-18
-19
-19
-19
-20
-21
-19
-19
-19
-19
-19
-18
-17
-16
-15
-16
-17
-19
-20
-14
-9
-10
-10
-7
-5
-5
-2
7
13
17
19
19
15
8
3
0
0
2
0
-6
-10
-14
-15
-15
-17
-20
-21
-21
-20
-19
-19
-19
-16
-14
-25
-33
-17
8
65
127
201
286
393
459
452
366
172
20
-85
-137
-137
-128
-112
-94
-74
-60
-49
-41
-35
-33
-33
-32
-30
-30
-32
-31
-28
-27
-28
-27
-25
-24
-23
-22
-21
-22
-23
-21
-19
-20
-21
-19
-17
-17
-17
-15
-13
-13
-13
-11
-9
-9
-8
-5
-3
-4
-4
0
2
4
6
8
12
16
17
18
19
20
22
24
25
25
26
27
25
23
22
21
20
19
15
10
5
1
-2
-6
-10
-13
-14
-15
-16
-17
-18
-19
-19
-19
-19
-20
-23
-24
-22
-22
-24
-24
-22
-21
-22
-23
-23
-23
-22
-21
-21
-19
-19
-17
-15
-17
-19
-17
-15
-15
-15
-15
-15
-13
-11
-12
-13
-15
-17
-16
-15
-18
-19
-18
-17
-17
-17
-16
-15
-15
-15
-16
-18
-20
-19
-16
-17
-20
-21
-20
-19
-20
-19
-17
-17
-17
-16
-15
-17
-19
-17
-15
-18
-21
-19
-17
-17
-17
-15
-11
-6
-3
-4
-5
-4
0
6
9
10
13
17
15
9
4
0
1
4
2
-2
-8
-14
-15
-15
-16
-19
-21
-23
-23
-23
-22
-21
-17
-14
-22
-26
-13
13
68
128
198
287
406
459
425
314
120
-18
-108
-144
-138
-125
-107
-89
-71
-60
-53
-45
-37
-35
-35
-35
-35
-35
-34
-33
-33
-31
-31
-30
-29
-30
-31
-30
-29
-29
-29
-28
-27
-25
-23
-24
-25
-24
-23
-23
-23
-23
-22
-20
-19
-18
-17
-16
-13
-9
-7
-6
-5
-5
-1
4
5
6
10
14
15
16
20
23
26
29
30
31
30
29
29
29
25
21
19
16
9
4
0
-4
-8
-12
-15
-18
-21
-23
-24
-26
-28
-29
-29
-29
-29
-29
-30
-30
-28
-27
-28
-29
-30
-31
-30
-29
-31
-30
-29
-29
-29
-28
-27
-25
-23
-24
-25
-26
-27
-24
-21
-23
-25
-23
-21
-22
-23
-23
-23
-22
-21
-21
-22
-24
-25
-24
-24
-26
-26
-24
-24
-26
-27
-26
-25
-24
-23
-23
-26
-27
-27
-27
-27
-27
-27
-27
-27
-27
-27
-27
-24
-21
-23
-25
-26
-27
-27
-27
-27
-27
-26
-25
-24
-23
-24
-23
-20
-17
-14
-13
-13
-12
-10
-7
-4
1
6
9
12
7
1
-2
-5
-4
-3
-8
-13
-16
-19
-21
-23
-24
-25
-27
-29
-28
-27
-25
-23
-21
-22
-29
-28
-19
14
63
121
185
276
381
426
449
307
116
-6
-115
-134
-140
-126
-110
-93
-75
-64
-53
-47
-41
-40
-39
-37
-35
-36
-37
-36
-35
-34
-33
-33
-33
-32
-31
-31
-31
-31
-30
-28
-27
-26
-26
-28
-27
-24
-23
-24
-24
-22
-21
-21
-20
-18
-16
-14
-13
-13
-11
-11
-7
-3
-3
-3
1
5
7
9
11
14
19
23
22
21
23
25
26
27
26
24
22
19
15
12
9
5
2
-2
-7
-12
-16
-18
-20
-22
-24
-25
-24
-24
-26
-27
-27
-27
-27
-27
-27
-28
-29
-27
-25
-29
-33
-30
-27
-28
-29
-28
-27
-26
-25
-24
-24
-26
-26
-24
-23
-24
-25
-24
-23
-23
-23
-24
-24
-22
-23
-26
-27
-27
-27
-27
-27
-29
-28
-27
-27
-27
-29
-31
-29
-27
-28
-29
-29
-29
-29
-29
-30
-31
-30
-29
-30
-31
-28
-27
-27
-27
-27
-28
-30
-30
-28
-28
-30
-31
-30
-29
-29
-29
-29
-29
-28
-27
-27
-29
-29
-26
-23
-21
-19
-18
-17
-13
-8
-3
2
6
9
8
5
-1
-6
-10
-13
-10
-11
-16
-20
-23
-25
-24
-25
-28
-30
-32
-33
-32
-30
-28
-27
-26
-35
-46
-19
12
66
121
190
263
374
462
385
292
123
-25
-98
-152
-144
-135
-121
-105
-88
-73
-60
-51
-46
-43
-44
-44
-41
-39
-39
-39
-38
-37
-37
-37
-37
-34
-30
-30
-32
-33
-33
-33
-32
-31
-29
-28
-27
-27
-27
-26
-25
-22
-19
-20
-21
-21
-21
-19
-17
-16
-15
-13
-11
-10
-8
-3
0
3
6
8
9
9
11
14
15
14
16
20
19
16
16
18
18
16
12
15
3
-1
-3
-5
-10
-15
-15
-15
-17
-19
-21
-23
-22
-21
-23
-25
-25
-25
-24
-23
-24
-25
-25
-25
-24
-23
-24
-24
-22
-21
-21
-21
-21
-21
-20
-19
-20
-20
-18
-17
-18
-19
-19
-17
-15
-16
-17
-17
-17
-17
-17
-18
-19
-18
-17
-19
-21
-20
-19
-20
-21
-20
-19
-19
-19
-18
-18
-21
-23
-22
-21
-20
-19
-20
-21
-20
-19
-18
-17
-18
-19
-18
-18
-21
-19
-17
-11
-5
-6
-7
-4
-1
0
2
6
10
15
18
13
8
5
3
2
0
-3
-7
-12
-15
-14
-15
-19
-21
-22
-24
-26
-25
-22
-21
-20
-23
-28
-26
-22
28
-21
142
205
301
395
459
491
320
156
20
-92
-126
-147
-131
-114
-99
-84
-68
-56
-46
-40
-35
-33
-33
-33
-32
-31
-32
-31
-28
-27
-27
-27
-26
-25
-25
-25
-26
-26
-24
-23
-23
-22
-21
-19
-17
-17
-17
-18
-19
-17
-15
-16
-16
-12
-9
-10
-10
-7
-4
0
3
4
5
6
7
8
9
10
12
14
17
20
21
21
22
24
25
25
24
22
21
20
16
11
8
5
1
-3
-5
-7
-9
-11
-14
-17
-19
-21
-21
-21
-22
-23
-23
-23
-22
-21
-21
-21
-20
-19
-19
-20
-22
-22
-20
-19
-20
-19
-16
-15
-16
-16
-14
-13
-12
-11
-11
-14
-15
-14
-13
-13
-13
-13
-13
-13
-13
-14
-15
-13
-11
-12
-13
-15
-17
-15
-13
-14
-15
-15
-15
-15
-15
-15
-15
-14
-13
-14
-15
-15
-15
-15
-15
-15
-11
-6
-5
-5
-4
-3
2
7
11
15
16
17
18
18
10
3
3
3
3
1
-5
-9
-11
-13
-12
-13
-18
-21
-21
-21
-22
-22
-18
-16
-14
-21
-32
-10
23
77
135
208
283
383
485
433
373
193
20
-65
-141
-137
-130
-110
-90
-75
-61
-53
-45
-37
-31
-32
-33
-32
-31
-31
-31
-28
-27
-26
-25
-24
-23
-24
-25
-24
-23
-24
-24
-22
-21
-21
-20
-18
-17
-16
-15
-15
-15
-15
-12
-9
-11
-13
-10
-7
-5
-3
-1
1
4
7
9
12
15
17
19
21
24
26
28
29
30
31
32
34
36
35
32
28
24
21
18
12
6
2
-2
-6
-10
-13
-15
-16
-17
-19
-21
-23
-25
-24
-23
-25
-27
-25
-23
-27
-29
-28
-27
-26
-25
-25
-25
-26
-27
-26
-25
-25
-24
-22
-21
-21
-21
-21
-20
-18
-17
-18
-19
-19
-19
-18
-17
-19
-19
-19
-19
-19
-20
-21
-19
-17
-19
-21
-21
-21
-21
-21
-22
-23
-22
-21
-21
-21
-22
-23
-22
-21
-21
-21
-22
-22
-20
-21
-24
-23
-20
-20
-22
-23
-22
-21
-21
-21
-21
-19
-19
-14
-9
-10
-11
-8
-5
1
5
7
10
15
16
7
0
-3
-5
-3
-2
-5
-10
-16
-19
-19
-20
-23
-25
-25
-25
-25
-25
-24
-20
-16
-24
-35
-22
-5
44
94
160
228
339
440
422
382
194
22
-67
-137
-139
-137
-118
-101
-87
-73
-61
-51
-43
-39
-38
-37
-38
-38
-36
-35
-36
-36
-34
-33
-33
-33
-32
-30
-28
-28
-30
-31
-30
-29
-29
-29
-27
-26
-25
-25
-25
-23
-21
-19
-17
-17
-17
-17
-17
-15
-13
-12
-10
-7
-5
-4
-2
3
7
11
14
16
17
16
17
21
23
22
23
26
26
24
23
22
20
18
13
17
1
-5
-8
-11
-15
-19
-21
-23
-25
-27
-28
-29
-27
-25
-27
-29
-30
-31
-31
-31
-31
-31
-31
-31
-31
-31
-31
-30
-28
-28
-30
-31
-30
-28
-26
-25
-26
-27
-26
-25
-25
-25
-25
-24
-23
-23
-23
-25
-27
-25
-23
-26
-29
-27
-25
-26
-27
-27
-27
-27
-27
-26
-26
-29
-30
-28
-28
-30
-30
-28
-27
-28
-29
-29
-29
-28
-27
-27
-28
-30
-30
-28
-27
-29
-28
-27
-27
-27
-28
-29
-27
-25
-26
-27
-28
-29
-28
-26
-23
-21
-19
-17
-16
-14
-11
-6
0
4
7
9
8
3
-3
-9
-15
-14
-10
-13
-20
-23
-26
-26
-24
-26
-23
-33
-35
-33
-31
-31
-31
-28
-27
-39
-43
-17
18
73
133
203
289
401
431
345
223
59
-56
-124
-151
-143
-130
-115
-97
-79
-68
-61
-55
-49
-47
-46
-45
-45
-45
-44
-43
-44
-43
-41
-38
-35
-35
-35
-37
-39
-37
-35
-37
-39
-37
-35
-37
-38
-34
-31
-31
-31
-30
-29
-29
-28
-26
-25
-26
-26
-22
-21
-20
-18
-16
-11
-5
-3
-2
-1
0
3
6
7
7
9
11
13
15
14
13
13
13
10
7
5
3
0
-5
-11
-15
-16
-19
-24
-27
-27
-27
-28
-29
-30
-31
-32
-33
-32
-33
-38
-37
-34
-34
-36
-36
-34
-33
-33
-33
-33
-35
-37
-34
-31
-32
-33
-32
-31
-31
-31
-30
-29
-27
-25
-26
-27
-28
-29
-28
-27
-28
-29
-29
-29
-30
-31
-31
-30
-28
-27
-27
-27
-27
-27
-26
-27
-30
-31
-30
-29
-29
-29
-29
-28
-27
-26
-25
-25
-25
-24
-23
-26
-29
-26
-23
-21
-19
-17
-15
-14
-12
-9
-5
-1
4
10
12
9
4
-3
-7
-10
-9
-6
-9
-15
-18
-20
-21
-22
-25
-28
-29
-31
-30
-29
-26
-23
-22
-22
-32
-35
-2
37
97
158
225
304
406
445
383
271
97
-31
-110
-144
-138
-127
-113
-97
-81
-69
-58
-51
-45
-40
-36
-37
-40
-40
-38
-35
-32
-31
-31
-32
-33
-31
-29
-30
-31
-29
-27
-27
-27
-27
-27
-24
-21
-22
-23
-23
-23
-21
-19
-18
-17
-16
-15
-14
-13
-13
-10
-5
-3
-4
-4
-2
1
4
5
5
7
10
11
11
14
17
18
19
19
19
16
13
13
12
7
3
2
0
-5
-9
-9
-9
-11
-14
-17
-20
-23
-25
-24
-23
-24
-25
-24
-24
-26
-27
-26
-24
-22
-22
-24
-25
-25
-25
-24
-23
-23
-22
-21
-20
-19
-18
-17
-15
-13
-15
-17
-17
-17
-16
-15
-16
-17
-16
-15
-17
-19
-18
-17
-16
-15
-16
-17
-18
-19
-18
-18
-20
-20
-18
-17
-18
-18
-16
-15
-15
-15
-15
-17
-17
-14
-11
-10
-9
-6
-3
-3
-2
3
8
13
17
19
19
13
8
4
1
1
0
-3
-7
-13
-15
-15
-15
-16
-19
-22
-23
-22
-21
-21
-20
-18
-21
-26
-24
-20
31
83
149
218
314
406
468
489
312
143
3
-107
-132
-144
-127
-109
-92
-76
-63
-52
-44
-38
-35
-33
-33
-33
-33
-32
-28
-27
-27
-27
-26
-25
-25
-25
-24
-23
-23
-23
-22
-21
-23
-22
-21
-19
-17
-18
-19
-16
-13
-13
-13
-12
-11
-9
-7
-7
-7
-5
-3
-2
0
5
9
13
16
18
19
20
23
26
27
27
28
30
31
31
31
30
26
22
18
21
8
3
0
-3
-8
-13
-14
-15
-18
-21
-22
-23
-23
-23
-25
-27
-27
-27
-28
-29
-29
-29
-29
-29
-28
-27
-28
-28
-26
-25
-26
-27
-27
-27
-26
-25
-26
-26
-24
-23
-23
-22
-21
-19
-17
-18
-19
-21
-23
-21
-19
-21
-23
-22
-21
-23
-25
-23
-21
-21
-21
-22
-23
-24
-25
-24
-23
-24
-25
-25
-25
-25
-25
-25
-25
-24
-23
-24
-25
-25
-25
-24
-23
-25
-24
-23
-19
-15
-14
-13
-11
-9
-6
-3
0
4
8
10
6
2
-2
-5
-7
-9
-8
-9
-14
-18
-21
-24
-26
-28
-30
-31
-32
-32
-30
-29
-29
-27
-24
-30
-38
-1
-39
99
160
243
327
420
481
334
188
40
-82
-124
-151
-133
-117
-104
-91
-77
-65
-55
-48
-45
-43
-43
-43
-42
-41
-41
-39
-36
-35
-36
-37
-37
-37
-36
-35
-36
-36
-34
-33
-32
-31
-31
-29
-27
-28
-29
-28
-27
-25
-23
-24
-25
-22
-19
-19
-18
-14
-11
-9
-7
-5
-2
1
5
9
11
10
11
15
17
17
19
22
23
23
23
22
19
16
13
10
4
-3
-6
-9
-14
-19
-22
-25
-26
-27
-29
-31
-32
-33
-33
-33
-34
-35
-34
-33
-34
-35
-36
-36
-34
-33
-34
-35
-35
-35
-34
-33
-33
-32
-30
-29
-30
-31
-31
-31
-30
-29
-29
-28
-29
-26
-23
-26
-29
-27
-25
-26
-27
-27
-27
-26
-25
-26
-27
-27
-27
-27
-27
-27
-27
-28
-29
-30
-31
-30
-28
-26
-26
-28
-29
-29
-29
-29
-29
-30
-30
-28
-27
-27
-27
-27
-26
-25
-25
-25
-25
-25
-19
-15
-16
-17
-14
-11
-7
-4
1
7
13
15
9
2
-4
-7
-7
-7
-8
-12
-17
-20
-22
-23
-22
-23
-26
-28
-30
-31
-30
-28
-26
-25
-23
-34
-44
-12
23
80
140
215
295
394
452
382
283
113
-25
-102
-147
-141
-131
-115
-100
-85
-73
-63
-54
-45
-41
-41
-41
-41
-40
-38
-38
-40
-41
-40
-39
-38
-35
-32
-31
-31
-33
-33
-33
-33
-33
-33
-32
-31
-30
-29
-29
-29
-26
-23
-23
-23
-23
-22
-19
-17
-16
-15
-14
-12
-9
-7
-6
-2
3
5
6
8
10
11
12
13
14
16
18
19
19
17
15
13
11
6
1
-5
-11
-12
-14
-20
-25
-25
-25
-26
-27
-27
-28
-31
-33
-32
-31
-32
-33
-32
-31
-32
-33
-32
-31
-32
-32
-30
-29
-29
-29
-30
-31
-30
-28
-26
-26
-29
-27
-25
-25
-25
-25
-25
-23
-21
-22
-23
-24
-25
-25
-25
-26
-27
-26
-25
-26
-27
-27
-27
-26
-25
-26
-28
-30
-29
-26
-27
-30
-30
-28
-28
-30
-30
-28
-27
-27
-27
-27
-27
-29
-28
-27
-28
-29
-27
-25
-23
-21
-19
-17
-14
-11
-12
-11
-4
1
3
6
9
9
4
-1
-7
-8
-5
-5
-8
-13
-19
-21
-20
-21
-24
-27
-30
-31
-30
-29
-28
-23
-19
-24
-29
-25
-15
41
98
168
246
354
434
440
388
205
51
-50
-118
-135
-139
-126
-113
-100
-85
-70
-59
-52
-46
-41
-38
-36
-35
-35
-33
-30
-29
-30
-31
-32
-32
-30
-29
-27
-27
-27
-27
-27
-26
-25
-22
-19
-20
-21
-21
-21
-20
-19
-18
-17
-16
-15
-15
-15
-12
-10
-7
-4
-2
-1
-2
-1
3
5
5
7
10
11
10
11
14
16
18
19
19
15
13
14
15
9
3
1
-1
-4
-7
-9
-11
-13
-15
-17
-19
-21
-23
-23
-23
-26
-27
-26
-25
-26
-27
-27
-26
-24
-23
-24
-25
-24
-23
-22
-21
-22
-23
-22
-21
-20
-20
-21
-20
-19
-19
-19
-20
-21
-19
-17
-19
-21
-19
-17
-19
-21
-20
-19
-19
-19
-19
-20
-22
-22
-20
-20
-23
-24
-22
-21
-22
-23
-22
-21
-20
-19
-20
-21
-21
-21
-21
-21
-21
-17
-13
-12
-11
-10
-9
-5
-1
3
7
10
13
13
11
4
-1
-3
-5
-4
-5
-12
-15
-16
-17
-17
-20
-26
-29
-28
-27
-28
-27
-24
-22
-20
-29
-41
-15
17
78
19
221
304
412
501
392
274
108
-39
-103
-151
-140
-126
-108
-90
-75
-62
-54
-47
-41
-37
-37
-37
-36
-35
-34
-33
-33
-31
-28
-27
-28
-29
-28
-27
-26
-25
-25
-25
-25
-24
-22
-22
-23
-21
-19
-19
-19
-18
-17
-14
-11
-13
-15
-12
-9
-8
-7
-5
-2
1
4
7
9
10
13
17
19
19
20
24
25
24
23
24
25
26
25
22
19
16
12
8
3
-3
-6
-9
-12
-15
-18
-21
-21
-21
-24
-27
-28
-29
-29
-29
-30
-31
-31
-31
-31
-31
-31
-31
-30
-29
-29
-30
-32
-32
-30
-29
-29
-28
-26
-25
-26
-26
-24
-22
-20
-19
-19
-23
-25
-23
-21
-22
-23
-23
-23
-25
-27
-25
-23
-23
-23
-24
-25
-26
-27
-27
-27
-27
-27
-27
-27
-28
-29
-29
-28
-26
-25
-26
-27
-27
-27
-27
-28
-30
-29
-26
-25
-26
-27
-27
-26
-25
-24
-23
-21
-19
-16
-13
-15
-15
-7
-1
0
3
9
11
6
1
-4
-7
-8
-9
-10
-15
-22
-25
-26
-27
-26
-28
-32
-30
-26
-25
-26
-27
-26
-29
-34
-29
-21
31
83
149
220
329
424
444
420
218
39
-68
-143
-144
-139
-121
-103
-85
-71
-61
-52
-45
-40
-38
-37
-37
-37
-38
-37
-34
-34
-36
-35
-32
-31
-32
-32
-30
-29
-28
-27
-27
-28
-29
-26
-23
-25
-27
-24
-21
-21
-21
-19
-17
-15
-13
-12
-11
-10
-8
-5
-3
-2
0
3
6
9
12
14
17
21
23
23
24
26
28
30
31
31
31
30
26
22
18
15
11
7
3
-1
-7
-13
-14
-15
-18
-21
-21
-21
-22
-23
-23
-23
-24
-25
-25
-25
-25
-25
-25
-26
-28
-28
-26
-25
-25
-25
-24
-22
-20
-19
-20
-21
-21
-21
-20
-19
-19
-18
-17
-17
-17
-17
-17
-15
-13
-15
-17
-18
-19
-18
-17
-19
-21
-20
-19
-20
-21
-21
-21
-20
-19
-19
-19
-19
-19
-19
-19
-20
-21
-20
-19
-20
-21
-20
-19
-18
-17
-17
-18
-19
-18
-17
-18
-19
-18
-17
-18
-19
-17
-14
-9
-5
-4
-3
-4
-3
2
6
11
15
19
20
18
13
6
3
4
4
2
-2
-7
-10
-12
-13
-13
-15
-18
-19
-19
-19
-19
-16
-13
-14
-16
-24
-25
15
58
113
171
241
320
420
452
359
237
73
-45
-109
-136
-126
-111
-93
-78
-66
-54
-41
-35
-31
-29
-29
-29
-28
-27
-26
-25
-25
-25
-24
-23
-25
-24
-23
-22
-21
-22
-23
-21
-19
-20
-21
-19
-17
-15
-13
-14
-15
-14
-13
-12
-11
-11
-9
-5
-3
-2
-1
-1
1
4
5
5
8
12
14
16
19
22
24
26
27
27
29
29
30
31
28
25
24
23
17
13
10
7
6
3
-3
-8
-11
-13
-15
-17
-18
-19
-20
-21
-22
-23
-23
-21
-18
-18
-20
-21
-21
-21
-20
-21
-24
-24
-22
-21
-21
-20
-19
-20
-21
-19
-17
-17
-17
-16
-15
-15
-15
-16
-17
-16
-15
-15
-15
-14
-13
-14
-15
-16
-17
-18
-19
-19
-19
-18
-18
-20
-21
-20
-17
-14
-15
-18
-19
-20
-21
-20
-19
-19
-20
-21
-21
-21
-21
-21
-18
-15
-17
-19
-20
-21
-20
-19
-18
-17
-15
-13
-11
-9
-10
-9
-4
1
7
9
10
14
19
15
6
2
0
-1
0
-4
-10
-12
-14
-14
-15
-18
-25
-23
-21
-22
-23
-21
-19
-18
-19
-29
-31
-7
26
81
140
209
295
406
448
410
297
114
-14
-98
-132
-134
-125
-108
-93
-79
-67
-56
-46
-37
-34
-32
-31
-31
-30
-28
-27
-27
-26
-25
-24
-23
-22
-21
-20
-19
-21
-23
-21
-19
-20
-20
-17
-15
-14
-13
-12
-12
-14
-14
-11
-10
-12
-12
-8
-7
-6
-4
-2
1
4
5
5
5
6
8
10
12
15
15
15
17
19
20
21
24
27
26
25
23
21
18
14
9
5
4
1
-4
-7
-7
-8
-10
-12
-15
-17
-18
-19
-18
-18
-20
-21
-20
-19
-20
-21
-21
-21
-20
-19
-19
-19
-21
-20
-19
-19
-19
-16
-13
-15
-17
-15
-13
-13
-13
-14
-15
-16
-17
-17
-17
-17
-17
-17
-17
-16
-15
-15
-15
-15
-16
-18
-19
-18
-17
-17
-18
-20
-20
-18
-17
-18
-18
-17
-16
-15
-16
-17
-18
-19
-17
-15
-14
-12
-8
-5
-6
-7
-5
-1
7
12
16
18
16
12
6
0
-5
-6
-2
-5
-13
-16
-18
-18
-16
-19
-24
-25
-26
-25
-22
-21
-23
-21
-19
-29
-37
-15
14
76
139
210
291
406
467
399
290
107
-33
-107
-147
-141
-130
-113
-95
-76
-62
-53
-46
-41
-38
-36
-35
-36
-36
-34
-33
-33
-32
-30
-29
-29
-29
-29
-28
-29
-27
-25
-26
-27
-25
-23
-23
-23
-22
-21
-19
-17
-17
-17
-17
-17
-15
-13
-12
-11
-10
-8
-6
-4
-2
2
7
9
9
10
12
14
16
17
17
18
20
21
21
21
21
20
19
16
13
8
3
1
-2
-7
-11
-13
-16
-21
-25
-24
-23
-25
-27
-27
-28
-30
-31
-30
-30
-32
-32
-30
-30
-32
-32
-30
-29
-28
-27
-28
-29
-29
-29
-28
-27
-25
-25
-25
-25
-25
-24
-23
-21
-19
-21
-23
-23
-23
-23
-23
-24
-25
-25
-25
-25
-25
-25
-25
-25
-25
-26
-27
-28
-28
-26
-26
-28
-28
-26
-26
-28
-29
-28
-27
-27
-27
-27
-27
-27
-27
-27
-28
-29
-26
-23
-20
-17
-16
-15
-14
-12
-9
-6
-2
2
6
9
6
3
-2
-6
-9
-10
-8
-9
-12
-18
-25
-27
-26
-26
-28
-32
-36
-35
-32
-31
-32
-29
-25
-33
-40
-23
-1
51
107
181
264
382
459
418
328
133
-23
-109
-158
-149
-134
-114
-96
-82
-70
-60
-54
-51
-48
-44
-43
-43
-43
-42
-41
-40
-39
-38
-37
-38
-38
-36
-35
-37
-36
-35
-35
-35
-34
-33
-31
-29
-30
-31
-30
-29
-27
-25
-25
-24
-21
-19
-18
-17
-16
-13
-9
-6
-4
-2
0
3
7
9
9
12
16
17
17
20
24
25
26
27
27
24
21
19
17
11
5
2
-2
-8
-13
-15
-17
-19
-22
-25
-27
-28
-29
-30
-31
-31
-31
-32
-33
-33
-33
-33
-31
-28
-28
-30
-31
-31
-31
-31
-31
-32
-33
-32
-31
-30
-29
-29
-27
-25
-25
-25
-27
-29
-27
-25
-26
-27
-26
-25
-27
-29
-27
-25
-25
-25
-26
-27
-28
-29
-29
-30
-32
-32
-30
-29
-30
-31
-30
-29
-29
-29
-29
-30
-32
-33
-32
-31
-33
-32
-31
-31
-31
-31
-31
-30
-29
-29
-29
-29
-29
-29
-29
-29
-28
-24
-21
-19
-17
-17
-15
-10
-5
-1
2
5
6
4
-2
-9
-11
-11
-11
-12
-16
-20
-23
-26
-26
-27
-29
-35
-33
-31
-33
-35
-31
-27
-27
-29
-38
-34
6
52
111
176
248
333
433
428
303
163
10
-85
-137
-150
-138
-121
-103
-87
-73
-63
-53
-48
-44
-43
-43
-43
-44
-44
-42
-41
-41
-39
-37
-37
-37
-37
-37
-36
-35
-36
-37
-35
-33
-33
-33
-32
-31
-30
-29
-28
-27
-28
-27
-23
-21
-22
-22
-18
-17
-16
-13
-10
-8
-6
-4
-2
0
2
5
8
9
11
13
15
17
19
19
19
22
25
21
17
15
12
8
4
-1
-6
-9
-12
-15
-18
-23
-25
-26
-27
-27
-28
-31
-33
-33
-33
-34
-35
-34
-33
-33
-33
-33
-33
-33
-33
-33
-34
-37
-34
-31
-33
-35
-33
-31
-32
-33
-32
-31
-29
-27
-28
-29
-30
-31
-31
-31
-32
-33
-32
-31
-31
-31
-31
-31
-31
-31
-32
-33
-33
-33
-34
-35
-36
-37
-36
-35
-36
-36
-35
-34
-33
-33
-33
-34
-35
-34
-33
-36
-39
-36
-33
-35
-37
-35
-33
-32
-31
-32
-33
-34
-35
-34
-34
-36
-35
-31
-27
-24
-23
-22
-20
-18
-14
-10
-8
-6
0
6
1
-7
-11
-15
-13
-11
-16
-21
-24
-27
-27
-28
-32
-35
-36
-37
-36
-35
-34
-33
-31
-34
-47
-38
-10
32
82
140
202
294
401
419
402
256
70
-38
-128
-145
-150
-137
-120
-104
-119
-78
-69
-60
-51
-50
-49
-47
-45
-46
-47
-46
-45
-42
-39
-39
-39
-40
-41
-40
-39
-39
-39
-38
-37
-36
-35
-35
-33
-30
-29
-30
-31
-30
-29
-29
-28
-26
-25
-24
-22
-20
-18
-17
-14
-11
-10
-9
-8
-7
-3
1
3
5
7
9
9
9
10
11
12
13
12
9
5
3
3
0
-5
-8
-10
-13
-17
-19
-20
-21
-22
-23
-24
-26
-28
-29
-28
-27
-29
-28
-27
-28
-29
-29
-29
-26
-23
-24
-25
-25
-25
-24
-23
-24
-25
-24
-23
-23
-23
-20
-19
-19
-19
-19
-19
-19
-19
-18
-18
-20
-21
-20
-19
-20
-21
-20
-19
-19
-19
-19
-21
-23
-20
-17
-20
-23
-22
-21
-21
-21
-21
-21
-19
-17
-19
-21
-21
-21
-20
-19
-20
-20
-18
-17
-16
-15
-14
-11
-7
-5
-6
-7
-6
-1
6
9
12
15
18
14
8
3
-1
4
9
2
-5
-11
-17
-14
-12
-17
-21
-22
-23
-24
-24
-21
-19
-17
-18
-25
-26
-19
14
68
130
197
291
402
448
466
331
139
13
-94
-124
-139
-129
-115
-98
-82
-70
-57
-48
-39
-35
-31
-31
-31
-29
-27
-28
-29
-29
-29
-27
-25
-25
-25
-24
-23
-24
-25
-22
-20
-18
-17
-17
-18
-20
-19
-16
-16
-18
-16
-12
-11
-11
-9
-6
-3
0
1
1
-1
-1
4
9
8
7
11
15
15
15
17
19
21
23
23
23
23
23
24
24
21
18
15
11
7
3
-1
-3
-4
-7
-11
-13
-14
-15
-15
-16
-18
-19
-19
-19
-19
-19
-19
-18
-17
-18
-19
-20
-21
-19
-17
-18
-19
-17
-15
-14
-13
-13
-13
-12
-11
-10
-10
-12
-12
-10
-10
-12
-13
-12
-11
-12
-13
-13
-13
-12
-11
-11
-12
-14
-14
-12
-13
-17
-15
-13
-14
-15
-16
-17
-14
-11
-13
-15
-15
-15
-15
-15
-16
-17
-15
-12
-8
-5
-5
-4
-1
2
5
9
13
17
21
21
16
12
8
5
2
2
4
1
-4
-8
-5
-13
-13
-16
-19
-22
-25
-22
-19
-18
-17
-14
-14
-25
-22
14
58
117
185
268
360
460
463
373
234
57
-55
-125
-141
-127
-112
-96
-79
-63
-52
-43
-38
-34
-33
-32
-31
-32
-31
-29
-27
-25
-25
-25
-26
-27
-25
-23
-25
-27
-25
-23
-23
-23
-21
-19
-18
-17
-17
-17
-17
-16
-14
-13
-14
-14
-10
-9
-8
-6
-4
-1
2
3
4
7
10
12
14
16
19
21
23
25
27
28
29
31
33
33
33
32
30
26
22
17
12
8
3
-2
-6
-9
-12
-14
-16
-19
-22
-25
-26
-24
-25
-28
-29
-28
-28
-30
-30
-28
-27
-27
-27
-27
-29
-31
-29
-27
-28
-29
-28
-27
-27
-27
-26
-25
-22
-19
-21
-23
-23
-23
-23
-23
-23
-23
-23
-23
-23
-23
-24
-25
-24
-23
-24
-25
-25
-25
-26
-27
-27
-27
-27
-27
-27
-27
-27
-26
-25
-26
-27
-27
-27
-26
-25
-27
-29
-28
-27
-28
-29
-28
-26
-22
-18
-15
-13
-14
-13
-8
-5
-4
0
5
7
6
1
-5
-8
-10
-10
-8
-12
-18
-21
-24
-25
-27
-29
-31
-33
-35
-34
-33
-30
-27
-26
-27
-39
-37
-2
38
91
149
215
300
407
436
378
257
80
-41
-121
-148
-143
-130
-112
-97
-83
-70
-58
-51
-46
-44
-42
-41
-40
-39
-39
-39
-39
-37
-35
-37
-39
-37
-35
-35
-35
-34
-33
-32
-31
-31
-31
-31
-31
-29
-27
-27
-26
-24
-23
-23
-22
-20
-18
-16
-15
-14
-12
-10
-7
-4
-3
-3
0
4
7
10
13
15
18
21
21
21
22
23
25
27
24
21
19
16
12
8
5
2
-2
-6
-10
-15
-20
-23
-24
-26
-29
-30
-28
-27
-28
-29
-29
-29
-29
-29
-30
-31
-32
-33
-32
-31
-33
-33
-33
-32
-31
-31
-31
-29
-27
-29
-31
-31
-31
-30
-29
-30
-31
-29
-27
-28
-29
-30
-30
-28
-28
-30
-31
-31
-31
-31
-32
-34
-35
-34
-33
-33
-33
-32
-31
-32
-33
-33
-34
-35
-33
-31
-34
-37
-36
-35
-35
-35
-34
-33
-32
-31
-32
-33
-34
-35
-34
-32
-27
-25
-24
-23
-22
-18
-12
-7
-3
1
4
1
-5
-11
-18
-18
-16
-17
-20
-25
-30
-31
-31
-32
-33
-36
-39
-39
-39
-37
-35
-35
-35
-37
-39
-40
-24
24
77
137
213
306
382
442
368
181
39
-72
-126
-148
-147
-135
-119
-103
-88
-74
-66
-58
-54
-50
-48
-46
-45
-47
-45
-43
-42
-41
-41
-41
-38
-35
-36
-37
-37
-37
-36
-35
-35
-35
-34
-33
-32
-31
-30
-28
-25
-23
-23
-23
-23
-22
-20
-18
-16
-15
-14
-11
-8
-6
-4
-1
2
3
3
5
5
9
13
11
9
12
15
15
15
15
15
15
14
11
9
7
3
-2
-6
-9
-12
-15
-17
-18
-19
-20
-21
-20
-20
-22
-24
-26
-27
-26
-26
-28
-29
-29
-29
-28
-25
-23
-22
-21
-24
-27
-25
-23
-22
-21
-22
-23
-21
-19
-20
-21
-19
-17
-15
-13
-15
-18
-20
-20
-18
-18
-20
-21
-20
-20
-22
-23
-22
-19
-16
-17
-20
-21
-21
-21
-21
-21
-19
-19
-19
-19
-19
-19
-19
-17
-15
-16
-17
-18
-19
-16
-13
-12
-11
-9
-7
-6
-2
5
11
16
18
15
9
2
-1
-1
-2
-4
-8
-14
-15
-16
-17
-16
-18
-22
-23
-23
-24
-25
-22
-19
-20
-22
-32
-35
0
42
107
179
265
354
452
458
311
164
17
-82
-128
-144
-130
-115
-99
-84
-69
-57
-47
-41
-37
-35
-34
-33
-33
-33
-33
-33
-32
-31
-30
-28
-27
-25
-23
-24
-25
-25
-25
-24
-23
-24
-25
-22
-19
-19
-19
-18
-17
-16
-15
-14
-13
-13
-12
-9
-7
-7
-6
-2
-1
0
3
6
9
12
14
16
17
17
18
20
21
21
22
23
23
23
22
21
19
16
11
7
4
1
-2
-6
-10
-13
-14
-15
-17
-19
-19
-19
-19
-19
-20
-21
-22
-23
-22
-22
-24
-25
-24
-23
-23
-23
-22
-21
-20
-19
-19
-18
-17
-16
-15
-18
-21
-18
-15
-16
-17
-16
-15
-14
-13
-14
-15
-16
-17
-16
-15
-18
-19
-18
-17
-18
-19
-19
-18
-16
-16
-18
-19
-19
-19
-20
-21
-21
-21
-21
-21
-20
-20
-21
-19
-17
-15
-13
-10
-7
-6
-5
-5
-3
5
11
11
12
16
17
11
5
0
-3
-3
-4
-6
-11
-20
-22
-18
-19
-22
-23
-24
-25
-24
-23
-22
-21
-20
-26
-34
-19
-1
51
103
168
238
340
432
466
455
264
91
-33
-124
-136
-140
-122
-105
-87
-73
-61
-52
-43
-37
-33
-31
-32
-33
-33
-33
-32
-31
-32
-32
-30
-29
-29
-29
-28
-27
-26
-25
-25
-25
-25
-22
-19
-21
-23
-20
-17
-18
-19
-17
-15
-14
-13
-12
-11
-10
-8
-4
-1
-1
0
3
7
11
14
16
19
23
25
24
24
26
27
28
29
29
27
24
22
20
13
7
4
1
-4
-9
-13
-17
-19
-21
-24
-27
-27
-27
-28
-29
-30
-31
-30
-29
-30
-31
-32
-32
-30
-30
-33
-34
-32
-31
-32
-33
-32
-30
-28
-27
-28
-29
-29
-29
-28
-27
-27
-26
-25
-24
-23
-25
-27
-24
-21
-24
-27
-27
-27
-27
-27
-28
-29
-29
-29
-29
-29
-29
-29
-28
-27
-28
-29
-30
-31
-30
-29
-30
-31
-30
-29
-30
-31
-30
-29
-29
-29
-29
-30
-33
-30
-27
-28
-29
-22
-17
-18
-19
-18
-15
-7
-1
0
2
5
5
0
-5
-10
-13
-13
-13
-13
-16
-22
-25
-25
-25
-26
-30
-34
-35
-35
-35
-34
-32
-30
-32
-36
-35
-32
20
73
137
205
302
391
440
437
242
69
-46
-129
-143
-147
-128
-110
-92
-76
-64
-55
-50
-46
-44
-44
-46
-46
-42
-41
-42
-42
-40
-39
-38
-37
-37
-37
-37
-37
-36
-35
-37
-36
-35
-34
-33
-32
-31
-29
-27
-27
-27
-26
-25
-24
-23
-22
-21
-19
-16
-13
-11
-10
-7
-3
0
2
4
7
10
12
13
13
14
16
18
20
21
21
21
21
18
21
8
3
0
-3
-9
-15
-17
-19
-23
-27
-28
-29
-29
-29
-31
-33
-34
-35
-35
-35
-36
-37
-36
-35
-35
-35
-35
-34
-32
-32
-34
-35
-34
-33
-33
-33
-33
-33
-33
-33
-32
-31
-31
-28
-25
-26
-27
-28
-29
-29
-29
-31
-33
-31
-29
-30
-31
-30
-29
-28
-27
-28
-30
-32
-33
-32
-31
-32
-33
-32
-31
-32
-32
-30
-29
-29
-29
-30
-31
-32
-32
-30
-30
-33
-32
-31
-31
-31
-31
-31
-29
-27
-28
-29
-29
-28
-24
-21
-20
-19
-18
-16
-13
-9
-4
2
8
8
2
-4
-10
-13
-13
-14
-16
-20
-24
-27
-30
-30
-28
-29
-32
-33
-33
-34
-35
-32
-29
-30
-32
-39
-39
-4
36
92
154
232
318
421
437
308
170
19
-84
-134
-152
-136
-121
-105
-90
-75
-63
-53
-48
-46
-45
-45
-45
-44
-43
-43
-43
-43
-42
-40
-38
-37
-37
-37
-37
-37
-37
-37
-36
-35
-36
-37
-35
-33
-34
-35
-33
-31
-31
-31
-29
-27
-28
-27
-23
-21
-21
-20
-16
-15
-14
-11
-8
-5
-2
-1
0
2
4
6
8
9
9
13
17
14
11
9
7
4
1
-3
-8
-12
-15
-17
-20
-24
-28
-31
-33
-34
-35
-36
-37
-36
-35
-36
-37
-38
-39
-38
-38
-40
-41
-40
-39
-40
-39
-36
-35
-35
-35
-35
-38
-39
-36
-33
-34
-35
-34
-33
-34
-35
-33
-31
-30
-29
-30
-31
-31
-31
-31
-31
-32
-33
-32
-31
-32
-33
-34
-33
-29
-29
-32
-33
-33
-33
-33
-33
-33
-33
-33
-33
-33
-32
-31
-29
-27
-29
-31
-31
-31
-30
-29
-28
-27
-24
-21
-21
-21
-19
-15
-7
-1
4
7
6
3
-2
-8
-13
-12
-7
-10
-18
-23
-26
-26
-24
-26
-30
-32
-34
-33
-30
-29
-31
-28
-25
-35
-43
-25
-1
57
115
174
244
347
424
442
390
200
43
-59
-125
-143
-147
-132
-116
-99
-84
-72
-62
-54
-48
-43
-41
-41
-41
-40
-39
-39
-39
-38
-37
-37
-35
-37
-32
-33
-32
-31
-32
-33
-31
-29
-30
-31
-28
-25
-24
-23
-23
-23
-24
-25
-24
-23
-20
-19
-18
-17
-16
-14
-11
-6
-1
1
0
-1
0
2
4
5
6
8
10
11
11
11
11
13
15
12
9
5
1
-2
-6
-11
-15
-15
-16
-20
-23
-23
-23
-24
-25
-26
-28
-30
-30
-28
-28
-31
-32
-30
-30
-32
-32
-30
-29
-28
-27
-27
-27
-27
-26
-24
-24
-27
-25
-23
-23
-23
-22
-21
-18
-15
-18
-21
-21
-21
-22
-23
-23
-23
-23
-23
-23
-23
-23
-22
-20
-20
-22
-23
-24
-25
-24
-24
-26
-27
-26
-25
-25
-25
-24
-23
-22
-18
-21
-13
-13
-10
-7
-7
-6
1
7
9
11
9
6
1
-3
-4
-5
-6
-9
-14
-19
-24
-26
-24
-25
-29
-31
-31
-29
-26
-25
-24
-23
-22
-29
-41
-13
23
81
143
220
299
401
498
397
290
121
-35
-101
-155
-143
-130
-115
-99
-81
-67
-57
-49
-42
-37
-37
-37
-36
-35
-36
-36
-33
-31
-32
-32
-28
-27
-28
-28
-26
-25
-25
-25
-24
-23
-24
-23
-20
-20
-23
-20
-17
-16
-15
-13
-11
-10
-9
-8
-7
-6
-5
-2
1
2
4
7
10
13
15
18
21
25
27
28
29
29
30
32
32
30
29
29
25
20
17
14
9
4
0
3
-10
-15
-15
-15
-18
-21
-21
-21
-23
-25
-23
-21
-21
-21
-22
-23
-24
-25
-24
-24
-27
-28
-25
-23
-24
-25
-24
-22
-20
-19
-19
-19
-19
-19
-18
-17
-17
-17
-16
-15
-15
-16
-17
-14
-11
-13
-15
-16
-17
-16
-15
-17
-19
-17
-15
-17
-19
-19
-19
-18
-17
-16
-16
-18
-18
-16
-16
-19
-20
-18
-17
-18
-19
-18
-17
-17
-17
-17
-17
-17
-12
-6
-5
-7
-6
-5
1
7
10
13
18
22
14
6
1
-3
-1
1
-1
-5
-10
-13
-14
-15
-15
-16
-18
-19
-20
-21
-21
-19
-16
-17
-22
-24
-26
7
50
109
171
253
337
424
341
385
256
96
-53
-107
-151
-132
-114
-97
-80
-66
-53
-42
-35
-33
-31
-32
-33
-31
-29
-30
-31
-30
-29
-28
-27
-27
-25
-22
-21
-22
-23
-24
-24
-22
-21
-21
-21
-21
-21
-20
-17
-15
-13
-11
-12
-13
-12
-11
-8
-5
-5
-4
0
3
4
6
10
14
18
21
23
25
25
27
31
33
32
32
36
36
34
32
30
27
24
18
12
6
0
-3
-6
-11
-17
-18
-19
-21
-23
-23
-23
-22
-21
-23
-25
-25
-25
-25
-25
-26
-27
-27
-27
-27
-27
-27
-26
-24
-23
-24
-25
-25
-25
-24
-23
-23
-23
-22
-21
-21
-21
-21
-20
-18
-17
-17
-20
-21
-20
-19
-21
-23
-21
-19
-22
-25
-23
-21
-22
-23
-23
-23
-24
-25
-24
-23
-24
-25
-24
-23
-24
-25
-25
-25
-24
-23
-23
-23
-23
-23
-22
-22
-24
-25
-24
-23
-22
-22
-23
-21
-19
-18
-17
-14
-11
-10
-9
-8
-6
0
5
7
10
13
13
7
2
-2
-5
-6
-7
-7
-11
-18
-21
-20
-21
-24
-25
-26
-27
-27
-26
-24
-23
-22
-23
-26
-27
-27
22
72
134
200
301
393
436
431
234
59
-49
-127
-136
-138
-120
-103
-88
-75
-63
-54
-47
-41
-37
-36
-38
-39
-38
-37
-36
-35
-36
-37
-36
-35
-34
-33
-32
-31
-30
-29
-29
-30
-31
-28
-25
-27
-29
-26
-23
-25
-27
-25
-23
-22
-21
-19
-17
-17
-16
-12
-9
-10
-9
-5
-2
0
2
4
7
10
11
12
14
16
19
22
22
20
19
19
17
14
8
3
1
-1
-6
-11
-15
-19
-22
-25
-28
-31
-32
-33
-33
-33
-34
-35
-34
-33
-34
-35
-36
-37
-36
-36
-39
-40
-36
-36
-38
-37
-34
-33
-33
-33
-32
-32
-34
-34
-32
-32
-35
-34
-33
-32
-31
-30
-29
-29
-29
-31
-33
-33
-33
-32
-31
-32
-33
-33
-33
-34
-35
-34
-33
-32
-31
-32
-33
-34
-35
-35
-35
-36
-36
-34
-33
-34
-35
-34
-33
-32
-31
-31
-34
-35
-34
-33
-34
-35
-33
-31
-32
-33
-33
-33
-33
-33
-32
-31
-32
-31
-26
-23
-24
-24
-22
-19
-15
-10
-5
0
5
6
4
-2
-9
-11
-12
-14
-16
-22
-28
-29
-29
-31
-33
-33
-33
-35
-37
-35
-33
-30
-29
-38
-42
-27
-1
51
105
164
238
335
408
452
387
210
67
-48
-114
-147
-149
-133
-118
-105
-90
-75
-64
-55
-50
-46
-45
-45
-45
-44
-43
-41
-40
-39
-39
-39
-38
-37
-35
-33
-34
-35
-33
-31
-31
-31
-31
-31
-30
-29
-28
-27
-24
-23
-22
-21
-21
-21
-21
-21
-20
-18
-16
-14
-12
-10
-8
-4
0
2
4
5
5
7
7
10
13
12
11
15
19
17
15
14
13
11
8
5
2
-2
-6
-9
-12
-17
-19
-19
-20
-23
-25
-25
-25
-24
-23
-24
-26
-28
-29
-28
-27
-27
-27
-28
-28
-26
-26
-27
-24
-21
-21
-21
-22
-23
-22
-21
-21
-21
-19
-17
-19
-21
-21
-20
-17
-15
-16
-18
-20
-20
-18
-18
-21
-23
-22
-21
-21
-21
-22
-21
-18
-17
-18
-19
-20
-21
-20
-20
-23
-22
-21
-23
-25
-24
-23
-21
-19
-20
-21
-21
-21
-21
-21
-21
-21
-20
-18
-14
-11
-12
-11
-7
-3
1
5
9
13
16
12
5
0
-4
-4
-2
-5
-10
-12
-14
-15
-15
-20
-25
-24
-23
-25
-27
-24
-21
-20
-21
-31
-34
-15
17
75
135
199
286
402
459
444
340
150
12
-88
-131
-140
-132
-115
-99
-85
-72
-60
-52
-45
-40
-36
-35
-35
-35
-34
-32
-31
-29
-27
-28
-29
-29
-29
-27
-25
-26
-27
-25
-23
-23
-23
-22
-21
-20
-19
-17
-15
-16
-16
-14
-13
-14
-13
-9
-7
-7
-5
-2
1
4
5
5
6
8
12
16
17
15
18
21
22
23
25
27
28
29
27
25
22
19
16
12
8
4
1
-2
-5
-8
-11
-13
-13
-14
-16
-18
-20
-21
-20
-20
-22
-23
-23
-23
-24
-24
-22
-21
-21
-21
-21
-22
-23
-21
-19
-21
-23
-20
-17
-18
-19
-17
-15
-14
-13
-12
-12
-15
-17
-15
-13
-16
-17
-16
-15
-16
-17
-17
-16
-14
-14
-16
-17
-17
-17
-17
-17
-18
-19
-19
-19
-19
-19
-19
-17
-15
-16
-17
-18
-19
-18
-17
-19
-21
-19
-17
-19
-21
-19
-17
-16
-15
-15
-15
-15
-13
-8
-6
-8
-6
-1
3
6
9
12
15
18
13
5
0
-4
-4
-2
-5
-11
-15
-19
-18
-17
-21
-25
-23
-21
-22
-23
-22
-21
-19
-20
-32
-27
6
51
113
184
266
361
466
448
337
189
18
-78
-138
-145
-131
-113
-95
-81
-67
-57
-46
-41
-36
-35
-35
-34
-35
-33
-31
-34
-37
-34
-31
-32
-33
-31
-29
-28
-27
-26
-25
-27
-28
-25
-23
-26
-26
-24
-23
-22
-21
-20
-18
-16
-15
-15
-14
-12
-11
-10
-9
-8
-5
-2
1
4
8
11
14
17
19
21
22
23
25
27
27
27
27
27
25
22
18
14
11
7
2
-4
-10
-14
-16
-20
-25
-27
-26
-26
-28
-29
-30
-31
-31
-31
-31
-32
-34
-35
-34
-34
-37
-36
-35
-36
-37
-36
-35
-33
-31
-32
-33
-32
-31
-30
-29
-30
-31
-30
-29
-28
-27
-28
-29
-28
-27
-27
-27
-28
-29
-28
-28
-30
-31
-30
-29
-30
-31
-30
-29
-29
-29
-29
-31
-33
-31
-29
-31
-33
-30
-27
-30
-33
-31
-29
-29
-29
-29
-29
-30
-31
-29
-28
-31
-32
-30
-29
-29
-29
-29
-28
-26
-25
-26
-27
-28
-29
-29
-29
-29
-29
-29
-27
-24
-19
-15
-13
-11
-11
-11
-6
-1
3
7
4
0
-4
-8
-12
-14
-11
-11
-16
-20
-24
-27
-26
-26
-29
-32
-34
-34
-30
-29
-29
-27
-24
-31
-41
-13
24
82
144
228
314
408
499
338
179
37
-92
-126
-153
-137
-120
-105
-90
-76
-63
-55
-48
-45
-43
-43
-43
-42
-41
-41
-40
-37
-35
-36
-37
-36
-35
-34
-33
-34
-34
-32
-31
-31
-31
-31
-31
-30
-29
-29
-28
-29
-27
-25
-27
-29
-26
-23
-22
-21
-19
-16
-12
-9
-8
-7
-6
-3
3
7
6
7
11
13
14
16
18
20
22
23
22
20
18
15
12
7
2
-1
-4
-9
-14
-17
-19
-20
-21
-24
-27
-29
-31
-31
-31
-33
-35
-33
-31
-33
-35
-33
-31
-30
-29
-30
-32
-34
-34
-32
-32
-34
-34
-32
-31
-31
-31
-30
-29
-28
-27
-27
-27
-27
-27
-26
-25
-27
-28
-29
-27
-25
-26
-27
-25
-23
-26
-29
-29
-29
-29
-29
-29
-29
-30
-31
-31
-31
-30
-29
-28
-27
-28
-30
-32
-33
-32
-31
-32
-33
-32
-31
-31
-30
-28
-27
-27
-27
-27
-31
-33
-31
-29
-32
-35
-33
-31
-31
-31
-30
-29
-28
-27
-27
-27
-28
-29
-29
-29
-26
-23
-19
-17
-17
-16
-13
-6
2
7
10
9
6
2
-2
-6
-10
-11
-10
-13
-18
-22
-25
-20
-15
-21
-27
-29
-31
-30
-29
-28
-27
-25
-26
-36
-30
8
55
115
184
262
349
446
416
278
137
-5
-87
-135
-144
-132
-117
-99
-83
-68
-58
-49
-46
-44
-42
-40
-40
-43
-41
-39
-38
-37
-37
-37
-35
-33
-33
-33
-32
-31
-32
-33
-33
-33
-32
-31
-30
-29
-30
-30
-27
-25
-25
-26
-28
-27
-24
-23
-24
-22
-18
-17
-16
-13
-10
-7
-4
-2
-3
2
3
6
9
8
7
10
13
14
15
15
15
15
15
14
11
5
1
0
-3
-10
-14
-16
-18
-20
-22
-24
-24
-22
-23
-27
-29
-29
-29
-28
-27
-28
-29
-29
-29
-28
-27
-27
-25
-23
-23
-23
-24
-25
-24
-23
-23
-23
-22
-21
-21
-21
-21
-21
-19
-17
-17
-18
-20
-20
-18
-18
-20
-20
-18
-18
-20
-21
-20
-19
-18
-17
-18
-19
-20
-20
-18
-18
-21
-21
-21
-21
-21
-19
-17
-16
-15
-16
-17
-17
-17
-15
-13
-12
-11
-9
-7
-6
-5
-2
3
11
16
18
18
16
12
7
3
-2
-1
2
-1
-8
-10
-12
-13
-12
-14
-11
-20
-21
-19
-17
-19
-21
-16
-13
-26
-32
-8
25
85
144
205
282
386
443
433
337
145
4
-88
-131
-135
-128
-113
-93
-72
-59
-50
-43
-37
-33
-30
-29
-29
-29
-29
-29
-28
-27
-27
-24
-21
-23
-25
-23
-21
-20
-19
-21
-23
-21
-19
-19
-19
-17
-15
-13
-11
-12
-13
-13
-12
-9
-7
-7
-6
-2
-1
0
2
4
7
10
12
14
15
15
16
18
19
21
22
23
23
23
23
23
24
25
21
16
12
8
4
1
-1
-4
-7
-10
-13
-15
-15
-15
-15
-16
-18
-20
-22
-23
-22
-21
-22
-23
-23
-22
-20
-20
-22
-21
-18
-17
-17
-17
-17
-17
-17
-15
-13
-12
-11
-10
-9
-10
-11
-11
-11
-11
-11
-12
-13
-12
-11
-12
-13
-12
-11
-12
-13
-13
-12
-10
-10
-12
-13
-14
-15
-14
-13
-13
-13
-13
-13
-12
-8
-5
-2
1
1
1
2
4
10
15
17
19
18
15
8
3
3
3
5
4
-4
-11
-15
-16
-13
-14
-20
-22
-20
-19
-19
-16
-12
-11
-12
-18
-26
12
57
123
190
282
374
457
524
345
170
24
-102
-126
-142
-122
-103
-84
-67
-53
-41
-35
-30
-27
-25
-24
-23
-22
-21
-20
-19
-19
-19
-18
-17
-17
-17
-17
-17
-16
-15
-15
-15
-14
-13
-12
-11
-11
-9
-9
-7
-5
-6
-7
-3
1
0
-1
1
3
5
8
11
13
15
18
21
23
24
27
31
33
34
35
36
39
42
43
43
41
38
36
34
30
26
20
14
10
6
0
-5
-6
-7
-10
-13
-15
-17
-17
-17
-19
-21
-20
-19
-20
-21
-21
-21
-21
-21
-21
-22
-24
-24
-22
-21
-22
-22
-20
-19
-20
-19
-16
-15
-14
-13
-13
-14
-16
-16
-14
-13
-15
-14
-13
-14
-15
-14
-13
-13
-13
-15
-17
-17
-17
-17
-17
-18
-19
-19
-19
-19
-19
-19
-18
-16
-15
-16
-17
-18
-18
-16
-15
-14
-10
-6
-5
-6
-4
0
5
10
12
11
14
13
8
3
-2
-7
-5
-4
-10
-15
-17
-19
-18
-18
-22
-25
-27
-29
-27
-25
-24
-23
-22
-26
-37
-17
23
76
137
209
287
381
480
403
279
122
-41
-103
-153
-142
-126
-108
-91
-76
-61
-53
-45
-42
-39
-38
-37
-38
-39
-37
-35
-34
-33
-33
-33
-31
-29
-29
-29
-30
-30
-27
-26
-28
-28
-26
-25
-25
-25
-24
-23
-22
-20
-18
-17
-18
-16
-12
-11
-13
-9
-5
-4
-3
0
3
6
9
12
15
17
19
22
25
26
28
31
33
34
35
34
33
32
27
20
14
9
5
1
-3
-8
-12
-16
-18
-20
-21
-22
-23
-23
-23
-23
-27
-29
-28
-27
-29
-31
-29
-27
-29
-31
-30
-29
-28
-27
-27
-27
-29
-31
-29
-27
-28
-29
-28
-27
-27
-26
-24
-22
-20
-19
-20
-21
-21
-21
-21
-21
-21
-21
-22
-23
-23
-23
-23
-22
-21
-23
-25
-25
-25
-24
-23
-25
-27
-26
-25
-26
-27
-26
-25
-24
-23
-23
-23
-24
-23
-18
-15
-16
-16
-12
-10
-8
-4
1
6
10
9
6
-2
-10
-11
-10
-11
-15
-18
-21
-25
-29
-30
-31
-32
-33
-33
-33
-33
-33
-30
-28
-31
-34
-37
-21
21
71
131
208
301
381
452
373
202
64
-58
-116
-149
-145
-129
-114
-100
-85
-71
-62
-54
-49
-53
-44
-45
-44
-43
-45
-47
-44
-41
-41
-41
-40
-39
-38
-37
-36
-35
-37
-39
-37
-35
-36
-36
-34
-33
-33
-33
-33
-32
-30
-28
-26
-25
-25
-23
-20
-19
-19
-17
-14
-12
-10
-6
-3
1
5
6
7
10
13
14
15
16
17
18
19
17
15
13
11
9
6
3
-3
-11
-15
-15
-18
-24
-27
-28
-30
-32
-33
-33
-33
-34
-35
-34
-34
-36
-36
-34
-34
-37
-37
-37
-36
-35
-35
-35
-34
-33
-34
-35
-34
-33
-32
-31
-30
-29
-27
-25
-25
-25
-26
-26
-23
-21
-22
-23
-24
-25
-25
-25
-26
-27
-27
-27
-27
-27
-28
-28
-26
-25
-25
-28
-31
-29
-27
-29
-31
-28
-25
-27
-29
-29
-29
-28
-26
-22
-19
-19
-18
-15
-13
-13
-10
-3
2
4
5
6
4
-1
-5
-9
-10
-8
-11
-18
-23
-28
-27
-24
-27
-32
-33
-33
-30
-27
-29
-31
-29
-27
-33
-36
-30
-12
38
93
157
237
343
421
457
390
196
43
-71
-131
-146
-146
-132
-116
-99
-85
-73
-62
-52
-46
-42
-41
-41
-41
-42
-41
-38
-38
-41
-39
-37
-36
-35
-34
-33
-31
-29
-30
-31
-31
-31
-30
-29
-29
-29
-28
-27
-26
-25
-24
-21
-17
-15
-16
-17
-16
-14
-12
-10
-8
-5
-2
0
2
5
8
11
14
15
15
16
15
18
21
18
15
16
17
14
11
9
6
2
-2
-6
-10
-14
-17
-19
-21
-24
-25
-26
-28
-30
-31
-30
-29
-28
-29
-32
-33
-33
-33
-32
-31
-32
-33
-32
-31
-31
-29
-27
-25
-23
-24
-25
-25
-25
-23
-21
-22
-23
-22
-21
-21
-21
-20
-19
-17
-15
-16
-18
-21
-22
-20
-20
-23
-24
-22
-21
-22
-23
-22
-21
-20
-19
-20
-22
-24
-24
-22
-21
-23
-22
-21
-22
-23
-21
-19
-15
-11
-11
-11
-10
-8
-2
3
4
6
10
11
5
-1
-6
-8
-5
-4
-7
-12
-17
-19
-19
-20
-22
-24
-26
-27
-26
-25
-25
-22
-18
-21
-17
-25
-21
28
78
140
206
306
400
469
482
307
141
-3
-109
-133
-143
-126
-107
-86
-72
-63
-55
-46
-40
-38
-37
-36
-34
-32
-31
-32
-33
-33
-33
-32
-31
-30
-29
-30
-31
-30
-28
-27
-25
-23
-23
-23
-23
-23
-23
-23
-21
-19
-18
-17
-15
-13
-12
-11
-9
-7
-5
-2
0
3
7
9
10
13
17
20
22
25
28
30
32
35
38
38
36
35
35
30
23
20
17
11
5
0
-5
-9
-13
-17
-21
-24
-27
-27
-27
-29
-31
-31
-31
-32
-33
-33
-33
-32
-32
-34
-35
-35
-35
-35
-35
-36
-36
-34
-33
-34
-34
-32
-31
-30
-29
-29
-30
-31
-29
-27
-29
-31
-29
-27
-28
-29
-27
-25
-26
-27
-27
-27
-28
-29
-29
-29
-32
-32
-30
-29
-30
-31
-31
-31
-30
-29
-30
-31
-32
-33
-32
-31
-32
-33
-33
-33
-33
-33
-33
-31
-29
-30
-31
-31
-31
-31
-31
-32
-33
-32
-31
-31
-31
-30
-29
-29
-29
-29
-30
-32
-32
-29
-27
-28
-26
-19
-17
-18
-18
-16
-10
-3
0
2
3
4
0
-6
-11
-17
-14
-11
-16
-21
-25
-29
-27
-25
-29
-33
-34
-35
-34
-33
-32
-30
-27
-29
-39
-34
-9
31
84
146
215
308
417
431
397
251
60
-50
-136
-147
-139
-123
-107
-90
-72
-64
-71
-51
-47
-45
-43
-45
-47
-45
-43
-43
-43
-42
-41
-40
-39
-38
-37
-38
-38
-35
-34
-37
-38
-35
-33
-34
-35
-34
-33
-32
-30
-28
-27
-28
-27
-24
-23
-23
-21
-18
-16
-14
-10
-7
-3
1
3
5
9
13
17
21
22
23
26
29
31
33
33
33
32
30
26
20
13
8
5
-1
-8
-12
-16
-20
-25
-27
-28
-29
-29
-29
-29
-30
-32
-33
-32
-33
-37
-35
-33
-34
-35
-36
-37
-36
-35
-35
-35
-35
-35
-34
-33
-35
-37
-36
-35
-34
-33
-33
-32
-29
-27
-28
-29
-30
-31
-30
-29
-30
-31
-30
-29
-30
-31
-31
-30
-28
-27
-27
-32
-35
-33
-31
-34
-37
-36
-35
-36
-37
-36
-35
-34
-33
-34
-35
-36
-37
-35
-34
-37
-38
-36
-35
-35
-35
-36
-36
-34
-33
-34
-35
-36
-37
-36
-35
-35
-35
-36
-37
-37
-37
-37
-34
-31
-32
-33
-35
-37
-35
-33
-34
-35
-35
-35
-35
-35
-33
-31
-31
-31
-31
-32
-34
-35
-34
-33
-33
-33
-32
-31
-32
-32
-30
-29
-29
-29
-29
-30
-32
-32
-30
-30
-33
-33
-33
-32
-31
-30
-29
-28
-27
-29
-31
-30
-29
-29
-29
-29
-29
-30
-31
-30
-29
-30
-30
-28
-27
-26
-24
-21
-19
-20
-21
-21
-15
-7
-2
2
3
4
1
-4
-8
-5
-11
-9
-12
-15
-22
-29
-26
-23
-27
-31
-32
-33
-33
-33
-31
-29
-27
-28
-36
-35
-22
13
68
129
195
289
400
431
419
282
93
-26
-121
-141
-141
-129
-115
-98
-81
-70
-60
-52
-45
-41
-37
-39
-41
-39
-37
-37
-37
-38
-39
-36
-33
-34
-35
-35
-35
-33
-31
-30
-29
-30
-30
-28
-28
-30
-30
-26
-25
-25
-24
-22
-21
-21
-20
-18
-17
-17
-16
-14
-13
-11
-8
-5
-2
1
4
7
10
13
14
15
16
17
19
21
21
21
21
21
19
16
13
10
8
5
1
-3
-7
-11
-15
-18
-20
-22
-24
-25
-25
-25
-25
-25
-24
-24
-23
-28
-29
-28
-27
-29
-31
-29
-27
-28
-29
-27
-25
-24
-23
-23
-23
-24
-25
-24
-23
-23
-22
-19
-18
-20
-21
-20
-19
-18
-17
-18
-19
-20
-21
-21
-21
-22
-23
-23
-23
-22
-22
-23
-21
-19
-20
-21
-23
-25
-23
-21
-24
-27
-24
-21
-23
-25
-24
-23
-23
-23
-23
-23
-24
-24
-22
-22
-24
-25
-24
-23
-24
-24
-22
-21
-20
-19
-20
-22
-24
-25
-24
-23
-23
-22
-21
-21
-21
-20
-19
-17
-15
-17
-19
-20
-21
-20
-19
-19
-17
-12
-9
-8
-7
-8
-6
1
6
9
13
17
17
13
6
-1
-1
2
2
0
-7
-14
-15
-14
-14
-13
-20
-23
-21
-19
-20
-21
-17
-14
-22
-27
-18
3
55
114
184
270
382
451
463
379
185
35
-75
-127
-134
-126
-108
-90
-73
-60
-50
-43
-37
-32
-28
-28
-30
-30
-28
-27
-27
-26
-25
-23
-21
-22
-23
-23
-23
-23
-23
-23
-23
-22
-21
-20
-19
-19
-19
-17
-15
-14
-13
-13
-12
-10
-9
-10
-9
-5
-3
-2
2
6
9
12
14
16
18
20
24
28
29
31
34
37
39
41
42
43
44
44
39
34
29
24
20
15
8
2
-1
-4
-7
-10
-15
-17
-17
-18
-20
-21
-21
-21
-22
-23
-24
-25
-25
-25
-26
-27
-27
-27
-26
-25
-25
-27
-29
-26
-23
-25
-27
-25
-23
-23
-23
-21
-19
-18
-17
-17
-17
-18
-18
-15
-14
-17
-19
-18
-17
-18
-19
-18
-17
-17
-18
-20
-21
-21
-21
-21
-21
-22
-23
-22
-21
-21
-22
-23
-22
-21
-21
-21
-21
-21
-22
-23
-23
-23
-23
-23
-23
-23
-22
-21
-21
-21
-21
-21
-22
-23
-22
-22
-24
-24
-22
-22
-24
-24
-22
-21
-20
-19
-20
-22
-24
-24
-22
-21
-23
-22
-21
-22
-23
-22
-21
-20
-19
-19
-19
-20
-21
-20
-18
-14
-11
-11
-11
-10
-7
-2
4
10
13
14
12
7
2
-3
-5
-5
-6
-8
-13
-18
-19
-20
-21
-21
-23
-21
-27
-27
-25
-23
-23
-23
-28
-32
-23
-3
50
109
180
265
375
445
447
367
171
17
-90
-143
-142
-132
-114
-97
-79
-66
-55
-48
-43
-40
-38
-37
-36
-36
-38
-39
-38
-37
-36
-35
-35
-34
-33
-33
-33
-32
-31
-31
-31
-32
-33
-31
-29
-28
-27
-26
-25
-24
-23
-22
-21
-22
-22
-19
-17
-17
-16
-12
-10
-8
-4
0
4
8
11
14
16
18
22
26
27
27
31
35
36
37
36
35
34
32
27
22
16
10
5
-1
-7
-12
-15
-18
-21
-23
-26
-27
-26
-26
-28
-29
-30
-31
-31
-31
-32
-33
-33
-33
-33
-33
-33
-33
-32
-31
-31
-34
-35
-33
-31
-32
-33
-31
-29
-30
-31
-29
-27
-26
-25
-25
-25
-26
-27
-25
-23
-26
-27
-26
-25
-26
-27
-27
-27
-27
-27
-27
-27
-28
-29
-28
-28
-30
-31
-30
-29
-29
-30
-31
-29
-27
-29
-31
-31
-31
-30
-29
-31
-33
-31
-29
-30
-31
-30
-29
-28
-27
-27
-28
-30
-30
-28
-28
-31
-32
-30
-29
-30
-31
-30
-29
-28
-27
-27
-27
-28
-29
-28
-28
-31
-29
-27
-28
-29
-28
-27
-25
-23
-23
-23
-25
-27
-27
-27
-27
-27
-27
-27
-26
-25
-22
-19
-14
-12
-14
-14
-11
-6
-1
3
8
8
6
1
-4
-6
-8
-9
-8
-12
-7
-22
-25
-24
-23
-28
-33
-31
-29
-28
-27
-24
-21
-24
-28
-31
-17
27
78
137
209
296
381
464
413
257
110
-30
-101
-136
-139
-127
-111
-95
-79
-64
-55
-48
-44
-40
-39
-40
-41
-41
-38
-35
-36
-37
-37
-37
-35
-33
-33
-33
-31
-29
-30
-31
-31
-31
-29
-27
-28
-29
-28
-27
-26
-25
-25
-24
-20
-19
-19
-16
-12
-11
-10
-7
-4
-3
-3
1
6
7
9
13
17
18
19
21
23
27
31
30
29
29
29
29
28
24
19
14
10
6
2
-3
-6
-8
-11
-15
-18
-20
-22
-24
-25
-26
-27
-26
-25
-26
-27
-27
-27
-26
-25
-25
-28
-29
-27
-25
-26
-27
-26
-25
-26
-27
-24
-21
-20
-19
-19
-19
-20
-21
-19
-17
-20
-20
-18
-17
-18
-19
-18
-17
-16
-15
-16
-17
-18
-19
-19
-19
-20
-21
-20
-19
-19
-19
-19
-17
-15
-18
-21
-21
-21
-20
-19
-20
-21
-20
-19
-19
-19
-19
-19
-18
-17
-17
-17
-18
-19
-19
-19
-20
-20
-18
-18
-20
-21
-20
-19
-19
-18
-16
-16
-18
-17
-14
-16
-21
-19
-17
-18
-19
-17
-15
-14
-13
-13
-13
-10
-7
-6
-5
-5
-3
3
8
12
16
19
19
15
11
5
3
4
3
0
-4
-9
-12
-14
-15
-16
-18
-20
-20
-18
-17
-17
-14
-13
-20
-27
-20
-6
46
100
163
234
334
421
472
446
259
95
-30
-111
-130
-135
-122
-105
-86
-71
-60
-50
-41
-35
-31
-29
-30
-31
-31
-31
-30
-29
-29
-29
-28
-27
-26
-25
-25
-22
-19
-21
-23
-23
-23
-22
-21
-21
-21
-20
-19
-18
-17
-16
-15
-13
-11
-10
-9
-9
-8
-5
-3
-3
0
5
7
8
11
14
17
20
22
24
25
25
27
30
31
29
30
31
28
25
22
19
15
11
7
2
-2
-5
-7
-10
-13
-15
-17
-19
-20
-21
-24
-24
-22
-21
-22
-23
-24
-25
-24
-23
-24
-25
-25
-25
-25
-25
-25
-24
-22
-21
-21
-21
-21
-20
-19
-20
-21
-19
-17
-17
-17
-17
-17
-17
-17
-17
-17
-18
-19
-18
-18
-21
-22
-20
-19
-20
-21
-20
-19
-19
-19
-19
-20
-22
-23
-22
-21
-22
-23
-22
-21
-21
-21
-21
-19
-17
-19
-21
-21
-21
-21
-21
-21
-21
-21
-21
-21
-21
-21
-21
-20
-19
-19
-19
-20
-21
-20
-20
-22
-22
-20
-19
-20
-21
-20
-19
-18
-17
-18
-19
-20
-16
-10
-9
-11
-8
-5
-2
1
6
11
15
18
13
8
2
-3
-3
-3
-4
-7
-12
-15
-17
-19
-19
-19
-20
-21
-22
-23
-23
-21
-18
-21
-27
-25
-19
24
75
146
220
329
441
456
447
275
86
-25
-127
-135
-141
-120
-101
-85
-71
-60
-49
-41
-35
-34
-33
-34
-35
-34
-33
-34
-34
-31
-29
-30
-30
-28
-26
-24
-23
-24
-25
-26
-27
-27
-27
-26
-25
-25
-25
-24
-22
-21
-18
-15
-16
-17
-16
-15
-12
-9
-8
-7
-4
-1
1
4
7
11
16
19
21
24
26
28
31
33
32
32
36
37
36
35
34
29
24
20
16
9
2
-1
-4
-10
-17
-18
-19
-22
-25
-25
-25
-25
-25
-27
-29
-30
-31
-30
-29
-30
-31
-31
-31
-30
-29
-30
-30
-28
-28
-30
-31
-30
-29
-28
-27
-27
-27
-27
-26
-24
-23
-23
-23
-23
-23
-23
-22
-21
-21
-21
-23
-25
-24
-23
-24
-25
-24
-23
-23
-23
-24
-25
-26
-27
-26
-25
-28
-29
-28
-27
-28
-29
-28
-27
-26
-25
-25
-25
-26
-27
-27
-27
-27
-27
-26
-25
-26
-26
-25
-24
-23
-24
-25
-25
-25
-25
-25
-25
-25
-25
-25
-24
-23
-24
-25
-23
-21
-22
-23
-23
-23
-22
-21
-22
-23
-22
-21
-22
-22
-20
-16
-12
-10
-8
-7
-8
-4
2
4
7
12
17
12
7
2
-3
-2
-1
-2
-4
-10
-15
-16
-17
-18
-19
-21
-23
-24
-25
-24
-21
-17
-18
-24
-26
-23
12
62
121
184
275
376
438
491
340
155
26
-97
-121
-103
-126
-111
-92
-75
-65
-56
-46
-37
-36
-35
-34
-33
-32
-31
-30
-29
-30
-31
-30
-29
-32
-32
-30
-29
-30
-30
-28
-27
-26
-25
-26
-27
-27
-26
-24
-23
-24
-24
-22
-21
-20
-18
-17
-14
-11
-10
-9
-7
-5
-2
1
3
5
8
12
16
19
21
24
27
29
29
29
29
30
33
33
29
27
26
21
15
10
6
2
-2
-6
-10
-14
-18
-19
-19
-23
-29
-26
-23
-25
-27
-27
-27
-27
-27
-27
-27
-29
-31
-30
-29
-29
-29
-28
-27
-27
-27
-27
-26
-24
-23
-24
-25
-25
-25
-24
-23
-24
-25
-24
-23
-23
-23
-24
-24
-22
-22
-21
-25
-25
-23
-21
-24
-27
-27
-27
-28
-29
-27
-25
-26
-27
-26
-25
-27
-29
-28
-27
-28
-29
-28
-27
-28
-29
-28
-27
-26
-25
-25
-25
-26
-27
-26
-25
-26
-27
-27
-27
-26
-26
-27
-25
-23
-24
-25
-26
-27
-27
-27
-27
-27
-25
-23
-24
-25
-24
-23
-22
-21
-21
-21
-22
-23
-22
-22
-24
-22
-17
-15
-14
-12
-10
-4
3
6
8
10
12
9
4
-2
-9
-7
-5
-9
-13
-16
-19
-16
-14
-19
-23
-26
-29
-28
-27
-25
-23
-21
-24
-36
-31
-5
37
94
155
219
309
416
438
419
274
81
-28
-111
-132
-139
-128
-113
-96
-78
-69
-77
-51
-43
-39
-35
-38
-41
-38
-35
-36
-37
-35
-33
-32
-31
-31
-31
-32
-33
-31
-29
-30
-30
-28
-27
-28
-28
-25
-23
-22
-21
-21
-21
-21
-20
-18
-17
-17
-15
-12
-9
-6
-6
-7
-2
3
6
9
11
13
15
17
19
21
21
21
25
27
26
25
24
22
19
16
13
10
7
2
-3
-6
-10
-13
-17
-19
-20
-21
-22
-23
-23
-24
-26
-27
-26
-26
-29
-27
-25
-27
-29
-29
-29
-27
-25
-27
-29
-28
-27
-26
-25
-26
-27
-26
-25
-25
-25
-24
-22
-20
-20
-22
-23
-23
-23
-23
-23
-23
-23
-23
-23
-23
-23
-24
-24
-22
-21
-21
-25
-27
-25
-23
-25
-27
-24
-21
-23
-25
-25
-25
-26
-27
-25
-23
-25
-27
-25
-24
-27
-29
-28
-27
-27
-27
-26
-25
-24
-23
-23
-24
-26
-27
-26
-25
-25
-25
-25
-25
-24
-23
-23
-20
-17
-16
-15
-15
-15
-12
-8
-2
3
6
9
10
9
2
-3
-5
-7
-5
-6
-13
-18
-20
-21
-21
-22
-24
-26
-28
-28
-26
-24
-22
-20
-18
-30
-45
-12
27
90
154
240
326
418
490
380
262
98
-45
-105
-149
-140
-129
-114
-98
-83
-69
-59
-50
-43
-39
-39
-38
-36
-35
-36
-37
-37
-36
-34
-33
-33
-33
-32
-31
-31
-31
-31
-30
-28
-27
-27
-27
-27
-25
-23
-24
-25
-23
-21
-21
-21
-20
-19
-16
-13
-12
-11
-11
-10
-6
-3
-3
-1
3
6
8
10
13
16
18
19
20
21
21
21
21
21
20
18
16
13
10
6
3
1
-1
-7
-13
-16
-19
-19
-19
-22
-25
-25
-25
-26
-27
-26
-25
-25
-25
-26
-27
-28
-29
-28
-27
-28
-28
-26
-25
-26
-26
-24
-23
-22
-21
-21
-22
-24
-23
-20
-20
-23
-22
-21
-20
-19
-19
-19
-18
-17
-18
-19
-20
-21
-19
-18
-21
-23
-22
-21
-22
-23
-22
-21
-20
-19
-20
-21
-21
-21
-21
-21
-22
-23
-23
-23
-22
-21
-21
-21
-20
-19
-19
-22
-23
-21
-19
-22
-25
-23
-21
-21
-21
-21
-21
-20
-19
-19
-19
-18
-15
-9
-6
-9
-9
-5
-1
3
7
11
14
16
13
7
2
-3
-3
0
-4
-10
-13
-16
-17
-17
-20
-23
-24
-25
-25
-25
-23
-21
-18
-17
-31
-32
4
46
104
166
238
323
429
468
424
308
122
-13
-107
-144
-141
-126
-106
-89
-74
-61
-50
-42
-35
-33
-33
-34
-36
-35
-32
-32
-35
-33
-31
-31
-31
-30
-29
-27
-25
-26
-27
-27
-27
-26
-25
-26
-27
-25
-23
-23
-23
-22
-20
-17
-15
-16
-17
-17
-16
-14
-12
-10
-8
-6
-4
-2
3
8
12
16
17
17
20
21
24
27
27
27
29
31
30
29
29
29
26
22
17
11
4
-2
-5
-9
-14
-17
-18
-20
-22
-24
-26
-27
-27
-27
-28
-29
-29
-29
-30
-31
-30
-29
-30
-31
-31
-31
-31
-30
-29
-29
-29
-29
-29
-28
-27
-27
-27
-28
-29
-28
-27
-25
-23
-23
-23
-22
-22
-24
-25
-24
-23
-24
-25
-25
-25
-26
-27
-26
-25
-25
-25
-26
-27
-28
-29
-28
-28
-31
-30
-29
-29
-29
-29
-29
-28
-27
-28
-29
-29
-29
-28
-27
-29
-31
-30
-29
-29
-29
-30
-30
-28
-27
-28
-29
-29
-29
-29
-29
-29
-29
-29
-29
-28
-27
-28
-29
-28
-27
-27
-27
-27
-25
-23
-21
-19
-16
-13
-14
-14
-8
-2
2
6
10
11
4
-2
-6
-9
-12
-13
-12
-15
-22
-25
-25
-25
-25
-27
-30
-31
-31
-31
-30
-28
-26
-30
-36
-33
-28
20
69
134
202
295
384
443
462
277
106
-20
-118
-140
-150
-134
-117
-98
-83
-70
-60
-52
-47
-46
-44
-42
-42
-45
-46
-44
-43
-42
-41
-40
-38
-36
-35
-36
-37
-38
-39
-38
-38
-41
-39
-37
-37
-37
-35
-33
-31
-29
-29
-29
-30
-31
-29
-27
-26
-25
-23
-21
-19
-17
-14
-11
-6
-3
-2
0
2
5
8
9
10
12
14
15
16
18
20
21
22
19
23
8
3
0
-3
-10
-17
-18
-19
-23
-27
-28
-29
-29
-29
-30
-32
-35
-37
-36
-35
-38
-38
-36
-35
-36
-37
-37
-36
-34
-34
-36
-37
-37
-37
-37
-37
-36
-35
-35
-35
-35
-34
-33
-32
-31
-32
-33
-33
-33
-32
-31
-33
-35
-35
-35
-34
-33
-35
-37
-36
-35
-35
-35
-36
-37
-36
-36
-38
-39
-38
-37
-38
-39
-39
-39
-38
-36
-34
-34
-36
-37
-36
-37
-41
-39
-37
-37
-37
-37
-37
-36
-35
-36
-37
-37
-37
-37
-37
-38
-39
-38
-37
-37
-37
-37
-36
-34
-34
-36
-37
-37
-37
-36
-34
-32
-31
-30
-29
-28
-23
-18
-11
-4
-1
-3
-2
-7
-11
-15
-17
-19
-18
-18
-24
-29
-30
-31
-30
-30
-34
-37
-38
-38
-34
-31
-32
-33
-34
-37
-41
-14
36
92
153
232
320
397
470
360
202
63
-74
-120
-156
-148
-136
-121
-107
-90
-73
-65
-57
-53
-49
-48
-47
-47
-47
-45
-43
-44
-45
-43
-41
-39
-37
-37
-37
-38
-39
-38
-37
-37
-37
-36
-35
-34
-33
-32
-31
-30
-29
-28
-27
-28
-26
-22
-21
-21
-18
-15
-14
-13
-10
-7
-4
-1
0
1
2
4
8
11
10
9
11
13
14
15
14
14
16
15
11
8
5
0
-5
-9
-12
-14
-16
-19
-22
-23
-24
-25
-24
-24
-23
-30
-33
-31
-29
-31
-33
-32
-31
-32
-33
-31
-29
-28
-27
-28
-29
-30
-31
-29
-27
-28
-28
-26
-25
-25
-25
-24
-22
-20
-20
-22
-23
-23
-23
-22
-21
-22
-23
-23
-23
-23
-24
-25
-22
-19
-22
-25
-24
-23
-23
-23
-24
-25
-25
-25
-24
-23
-23
-23
-22
-21
-22
-23
-24
-24
-22
-22
-24
-25
-24
-23
-24
-24
-22
-21
-21
-21
-21
-21
-22
-23
-22
-21
-21
-16
-11
-12
-13
-12
-10
-1
7
9
11
13
14
8
2
-3
-6
-2
-1
-6
-10
-15
-16
-13
-13
-19
-21
-22
-23
-23
-23
-22
-19
-16
-25
-39
-15
16
79
145
215
149
385
479
433
374
185
12
-70
-137
-137
-133
-115
-96
-78
-62
-53
-46
-42
-37
-32
-29
-32
-32
-29
-27
-27
-27
-26
-23
-20
-19
-20
-21
-22
-22
-20
-19
-20
-20
-18
-17
-16
-15
-15
-12
-9
-10
-11
-10
-9
-8
-7
-6
-5
-3
-1
1
3
5
8
11
13
15
18
20
22
25
27
27
28
30
31
31
31
32
33
33
30
26
22
18
15
12
6
-1
-1
-1
-4
-7
-9
-11
-11
-11
-12
-13
-14
-15
-14
-14
-17
-19
-17
-15
-16
-17
-17
-16
-14
-13
-13
-13
-13
-13
-12
-11
-12
-13
-12
-11
-10
-9
-9
-8
-6
-5
-5
-7
-7
-7
-7
-8
-9
-8
-7
-8
-9
-8
-7
-8
-9
-8
-7
-9
-11
-9
-8
-11
-12
-10
-9
-10
-11
-11
-11
-10
-9
-9
-10
-12
-12
-10
-9
-10
-11
-11
-11
-10
-9
-9
-7
-5
-7
-9
-9
-9
-9
-9
-6
-3
0
3
3
4
7
11
19
23
24
24
21
17
12
8
5
4
6
4
-1
-4
-6
-6
-4
-7
-12
-15
-18
-17
-14
-13
-11
-12
-13
-18
-18
30
81
151
228
336
427
468
439
243
72
-47
-123
-129
-125
-106
-87
-68
-54
-44
-37
-31
-29
-28
-27
-26
-25
-25
-25
-25
-25
-24
-23
-24
-24
-22
-21
-21
-20
-19
-19
-19
-20
-21
-19
-17
-17
-17
-16
-15
-14
-13
-12
-11
-12
-12
-8
-5
-6
-5
-1
1
1
2
5
9
12
15
18
19
20
23
26
27
27
28
30
32
34
35
35
35
35
30
25
20
15
9
5
1
-4
-8
-11
-15
-17
-19
-21
-21
-21
-22
-24
-26
-26
-24
-24
-27
-28
-26
-27
-30
-31
-30
-28
-26
-25
-25
-26
-28
-28
-26
-25
-27
-25
-23
-24
-25
-24
-23
-21
-19
-20
-21
-21
-21
-21
-21
-22
-23
-23
-23
-23
-23
-23
-23
-23
-23
-23
-23
-24
-25
-25
-25
-25
-25
-26
-27
-27
-27
-27
-27
-28
-29
-29
-27
-27
-27
-27
-28
-29
-29
-29
-30
-31
-30
-29
-28
-27
-27
-28
-31
-33
-31
-29
-30
-31
-30
-29
-29
-28
-26
-23
-20
-19
-19
-19
-19
-13
-5
-3
-2
3
8
3
-4
-9
-13
-10
-7
-12
-17
-21
-25
-25
-25
-28
-31
-32
-33
-33
-33
-32
-30
-26
-28
-40
-33
-3
41
96
156
220
313
424
414
349
204
30
-64
-134
-143
-138
-125
-111
-93
-76
-69
-61
-53
-45
-44
-43
-43
-43
-41
-39
-39
-39
-40
-41
-39
-37
-38
-39
-38
-37
-35
-33
-33
-33
-32
-31
-31
-31
-31
-31
-31
-31
-30
-29
-28
-27
-27
-25
-22
-20
-18
-17
-17
-17
-17
-13
-9
-9
-9
-2
3
4
5
8
11
14
17
17
17
15
13
15
16
13
11
10
8
6
2
-3
-7
-10
-13
-16
-20
-25
-27
-27
-28
-30
-31
-31
-31
-32
-33
-33
-30
-27
-30
-33
-33
-33
-33
-33
-33
-33
-32
-31
-31
-31
-31
-30
-27
-25
-25
-26
-28
-28
-25
-24
-26
-26
-24
-23
-24
-25
-24
-23
-23
-23
-23
-25
-28
-28
-26
-25
-27
-26
-25
-25
-25
-24
-23
-23
-23
-22
-21
-23
-25
-24
-23
-24
-25
-24
-23
-23
-23
-23
-22
-20
-20
-23
-24
-22
-21
-20
-20
-22
-23
-22
-21
-20
-17
-14
-12
-10
-9
-9
-6
-3
3
9
12
15
13
11
7
3
2
1
0
-2
-7
-12
-15
-16
-13
-14
-21
-24
-22
-21
-22
-22
-20
-17
-14
-21
-33
-21
2
53
111
172
234
333
436
453
464
276
86
-21
-121
-132
-140
-124
-108
-90
-73
-61
-50
-42
-37
-33
-31
-31
-31
-29
-27
-28
-29
-28
-26
-24
-23
-24
-24
-22
-21
-22
-23
-22
-20
-18
-17
-17
-17
-18
-17
-14
-14
-17
-14
-11
-11
-11
-9
-7
-5
-3
-3
-3
-3
-3
-1
2
5
7
9
12
15
17
18
20
23
25
24
23
24
25
25
24
22
21
20
17
14
11
8
5
2
-1
1
-8
-11
-12
-13
-16
-19
-18
-17
-19
-21
-19
-17
-17
-17
-17
-17
-19
-21
-20
-19
-20
-21
-20
-19
-19
-18
-16
-15
-15
-15
-14
-13
-13
-13
-12
-13
-16
-16
-14
-13
-13
-13
-13
-12
-11
-12
-13
-14
-15
-14
-13
-15
-17
-16
-15
-15
-15
-16
-17
-15
-13
-15
-17
-17
-17
-16
-15
-16
-16
-14
-13
-14
-15
-15
-14
-12
-11
-12
-14
-16
-15
-12
-11
-11
-6
-1
-2
-3
1
5
10
15
19
22
17
12
8
5
3
1
2
1
-5
-9
-12
-13
-12
-13
-17
-19
-20
-20
-18
-16
-14
-15
-18
-19
-20
16
60
120
182
260
185
432
515
380
242
81
-65
-111
-147
-132
-117
-99
-81
-66
-53
-45
-38
-35
-33
-31
-30
-33
-34
-31
-29
-29
-28
-26
-25
-25
-25
-24
-23
-24
-25
-24
-23
-24
-25
-24
-23
-23
-21
-19
-17
-15
-16
-17
-15
-13
-13
-13
-12
-11
-8
-5
-4
-3
-1
2
6
9
10
12
15
18
20
21
21
22
26
27
27
28
30
31
30
27
24
18
12
10
8
1
-7
-9
-11
-15
-19
-20
-21
-23
-25
-25
-25
-27
-29
-27
-25
-27
-29
-28
-27
-28
-29
-28
-27
-26
-25
-26
-27
-28
-28
-26
-25
-26
-27
-27
-27
-26
-25
-25
-23
-20
-19
-19
-22
-23
-22
-21
-22
-23
-22
-21
-22
-23
-22
-21
-21
-21
-21
-21
-23
-25
-23
-21
-24
-24
-22
-22
-24
-24
-22
-21
-21
-21
-21
-21
-22
-23
-22
-21
-22
-23
-22
-21
-22
-22
-21
-19
-17
-18
-19
-20
-21
-19
-17
-18
-19
-19
-19
-18
-16
-13
-10
-7
-5
-5
-4
-2
2
8
12
14
15
15
11
3
1
0
-1
0
-3
-8
-13
-18
-17
-14
-18
-25
-23
-21
-22
-23
-20
-17
-19
-21
-22
-12
32
81
142
215
308
393
464
429
254
101
-30
-105
-131
-135
-121
-105
-89
-75
-61
-52
-45
-40
-34
-33
-33
-33
-33
-31
-28
-27
-27
-29
-29
-27
-25
-26
-27
-25
-23
-24
-25
-24
-23
-21
-19
-19
-19
-19
-19
-17
-15
-18
-18
-15
-13
-13
-12
-10
-7
-4
-3
-2
-1
0
3
6
8
10
13
16
18
20
22
23
28
33
32
31
32
33
33
33
30
27
24
20
15
10
6
3
2
0
-4
-9
-14
-17
-16
-16
-19
-21
-20
-20
-22
-22
-20
-19
-18
-17
-17
-19
-22
-22
-20
-19
-21
-20
-19
-20
-21
-19
-17
-16
-15
-15
-15
-17
-19
-17
-15
-16
-17
-17
-17
-17
-17
-16
-15
-14
-13
-14
-16
-18
-19
-18
-17
-18
-19
-20
-21
-20
-19
-20
-20
-18
-17
-17
-19
-19
-20
-21
-22
-23
-22
-21
-21
-21
-20
-19
-19
-19
-19
-19
-20
-21
-19
-18
-21
-22
-20
-20
-22
-22
-20
-19
-18
-17
-18
-19
-19
-15
-10
-10
-12
-11
-8
-4
0
5
9
15
21
15
9
3
-3
-2
-1
-3
-6
-11
-15
-17
-19
-19
-20
-23
-25
-26
-26
-24
-22
-20
-20
-23
-26
-30
-2
41
96
156
234
318
402
486
363
209
76
-56
-105
-151
-137
-123
-109
-96
-79
-64
-55
-47
-43
-39
-39
-39
-38
-37
-37
-37
-36
-35
-35
-35
-34
-32
-30
-30
-32
-33
-32
-31
-31
-31
-30
-29
-28
-27
-27
-27
-27
-25
-22
-21
-21
-22
-23
-20
-17
-18
-19
-15
-11
-9
-7
-5
-2
2
5
6
7
7
8
12
15
12
12
15
17
16
15
16
15
12
9
6
2
-3
-6
-8
-14
-20
-21
-21
-22
-24
-27
-29
-29
-29
-30
-31
-31
-31
-31
-31
-31
-31
-32
-33
-32
-31
-32
-32
-29
-27
-29
-31
-31
-30
-28
-28
-30
-30
-28
-27
-27
-27
-27
-26
-24
-23
-24
-26
-28
-28
-26
-26
-29
-28
-27
-27
-27
-27
-27
-28
-29
-28
-27
-27
-27
-26
-26
-29
-31
-29
-27
-29
-31
-28
-27
-26
-25
-26
-27
-27
-27
-26
-25
-25
-24
-22
-20
-18
-17
-17
-12
-6
-4
-5
3
7
7
7
-1
-9
-9
-9
-9
-10
-17
-23
-25
-27
-26
-26
-32
-35
-33
-31
-32
-32
-29
-27
-27
-33
-45
-26
10
63
123
191
262
358
461
405
319
164
2
-77
-149
-148
-145
-128
-110
-95
-80
-70
-60
-53
-47
-45
-43
-43
-43
-42
-41
-40
-38
-35
-33
-34
-35
-36
-37
-36
-35
-35
-34
-32
-32
-34
-32
-27
-25
-26
-27
-26
-25
-26
-26
-24
-23
-23
-19
-15
-16
-17
-15
-13
-8
-3
-3
-3
-2
0
4
7
6
6
9
11
12
13
16
17
16
15
14
12
9
6
4
0
-5
-8
-10
-13
-16
-18
-20
-21
-21
-23
-21
-28
-29
-28
-27
-29
-31
-31
-31
-31
-31
-31
-31
-29
-27
-27
-27
-28
-29
-29
-29
-28
-27
-26
-25
-24
-23
-22
-21
-22
-23
-22
-21
-22
-22
-20
-21
-24
-24
-22
-22
-24
-25
-25
-25
-25
-25
-25
-25
-25
-25
-25
-25
-25
-26
-27
-26
-25
-26
-26
-23
-21
-23
-25
-25
-25
-24
-23
-24
-23
-19
-15
-12
-11
-11
-9
-6
-1
4
6
8
10
12
6
-3
-4
-5
-5
-5
-8
-11
-16
-21
-20
-20
-25
-29
-29
-29
-29
-29
-27
-25
-23
-25
-34
-29
-8
30
81
141
205
301
411
447
453
312
125
-1
-113
-136
-146
-130
-110
-95
-109
-71
-63
-54
-45
-43
-41
-40
-39
-38
-37
-36
-35
-34
-33
-32
-31
-31
-31
-31
-31
-30
-29
-30
-30
-28
-27
-27
-27
-26
-25
-24
-22
-20
-19
-19
-19
-18
-17
-17
-15
-12
-10
-9
-5
-1
0
1
4
7
9
11
13
15
17
19
21
23
25
27
29
31
30
28
25
22
19
14
8
4
0
-4
-9
-12
-14
-16
-18
-20
-22
-24
-26
-27
-26
-26
-29
-28
-27
-29
-31
-29
-27
-27
-27
-28
-29
-29
-29
-28
-27
-28
-29
-27
-25
-25
-25
-25
-24
-22
-21
-21
-21
-21
-21
-20
-19
-20
-21
-20
-19
-19
-20
-22
-22
-20
-20
-19
-22
-21
-21
-21
-22
-23
-22
-21
-21
-21
-22
-23
-22
-21
-21
-21
-21
-21
-20
-19
-22
-22
-20
-19
-20
-21
-20
-19
-18
-17
-18
-19
-20
-16
-9
-8
-10
-9
-6
-1
4
8
11
15
19
12
5
0
-5
-4
-3
-5
-8
-13
-17
-18
-19
-20
-21
-22
-23
-23
-23
-22
-20
-18
-20
-26
-27
-23
12
60
116
176
267
367
431
487
335
152
26
-95
-122
-147
-128
-109
-94
-80
-68
-56
-46
-37
-36
-35
-35
-35
-34
-33
-34
-35
-33
-31
-30
-29
-28
-26
-24
-24
-26
-27
-26
-25
-24
-23
-24
-24
-22
-21
-20
-19
-19
-17
-14
-13
-13
-13
-13
-10
-7
-7
-7
-4
-1
1
3
8
11
14
17
19
21
21
23
28
31
30
30
33
35
34
33
32
29
26
23
19
13
7
3
0
-4
-8
-9
-10
-13
-16
-17
-17
-18
-19
-19
-19
-19
-19
-19
-19
-20
-21
-21
-21
-21
-21
-21
-21
-19
-17
-18
-19
-19
-19
-19
-19
-19
-19
-19
-19
-18
-17
-17
-17
-16
-15
-15
-15
-16
-17
-16
-17
-21
-19
-17
-18
-19
-19
-19
-19
-19
-19
-19
-20
-21
-20
-19
-21
-23
-23
-23
-23
-23
-22
-21
-20
-19
-20
-21
-21
-21
-22
-23
-23
-23
-23
-23
-23
-23
-23
-22
-20
-19
-19
-21
-21
-16
-11
-12
-13
-11
-9
-6
-2
4
10
15
18
14
8
0
-5
-6
-7
-7
-9
-14
-18
-21
-22
-20
-21
-24
-25
-26
-27
-26
-25
-24
-23
-24
-28
-32
8
52
113
175
265
354
430
478
318
163
31
-81
-121
-148
-135
-121
-107
-92
-77
-63
-52
-45
-43
-41
-41
-40
-38
-38
-40
-40
-38
-37
-37
-35
-32
-31
-31
-31
-30
-29
-30
-30
-28
-28
-31
-29
-27
-27
-27
-25
-23
-21
-19
-20
-21
-20
-19
-17
-15
-15
-15
-13
-11
-9
-6
-1
3
7
9
8
8
11
13
14
15
16
18
20
21
20
18
16
15
14
8
13
-1
-3
-7
-11
-14
-17
-20
-23
-23
-23
-24
-25
-24
-24
-27
-29
-28
-27
-25
-24
-27
-28
-25
-24
-26
-27
-26
-25
-25
-25
-24
-24
-26
-24
-20
-21
-24
-24
-22
-21
-20
-18
-17
-17
-17
-19
-21
-20
-19
-20
-21
-22
-23
-22
-21
-20
-19
-19
-19
-18
-17
-19
-21
-21
-21
-21
-21
-21
-21
-21
-21
-21
-20
-18
-17
-16
-15
-16
-18
-20
-21
-20
-19
-19
-13
-7
-9
-11
-7
-3
1
5
8
11
14
17
16
13
7
3
1
-1
-1
-3
-10
-13
-13
-13
-14
-16
-19
-21
-21
-21
-22
-21
-18
-17
-18
-26
-34
6
52
117
55
284
383
446
486
297
118
-6
-110
-130
-142
-125
-108
-90
-73
-61
-51
-45
-39
-34
-31
-32
-32
-30
-29
-29
-28
-26
-25
-24
-23
-23
-23
-24
-24
-22
-21
-22
-22
-20
-19
-20
-18
-15
-15
-15
-14
-13
-13
-13
-13
-13
-12
-11
-8
-5
-4
-3
-1
2
6
9
10
12
14
16
19
21
20
20
22
23
24
25
26
27
27
26
24
20
16
14
12
7
1
-1
-3
-6
-9
-10
-11
-13
-15
-14
-13
-16
-19
-17
-15
-17
-19
-18
-17
-18
-19
-18
-17
-16
-15
-16
-17
-16
-15
-14
-14
-16
-17
-16
-14
-12
-11
-11
-10
-8
-7
-7
-10
-11
-10
-9
-11
-13
-12
-11
-12
-13
-12
-11
-10
-9
-9
-10
-13
-15
-14
-13
-16
-17
-16
-15
-15
-15
-14
-13
-12
-11
-12
-13
-13
-13
-13
-13
-14
-14
-12
-8
-4
-3
-3
1
5
9
13
15
17
20
22
15
9
6
3
5
6
2
-2
-6
-9
-9
-11
-16
-19
-20
-21
-21
-20
-18
-17
-16
-18
-22
-15
-5
39
90
149
210
316
427
449
467
277
92
-21
-123
-130
-134
-114
-94
-79
-65
-57
-49
-41
-35
-33
-31
-31
-31
-31
-31
-28
-26
-23
-22
-24
-25
-25
-25
-25
-25
-25
-24
-22
-21
-21
-21
-20
-18
-16
-15
-15
-14
-13
-11
-9
-9
-9
-7
-5
-3
-1
1
3
6
10
13
15
16
18
21
23
23
25
29
31
31
32
34
35
36
36
34
30
26
23
20
13
6
3
0
-5
-10
-13
-15
-17
-19
-20
-21
-22
-23
-22
-21
-23
-25
-25
-25
-25
-25
-26
-27
-25
-23
-25
-27
-26
-25
-25
-25
-25
-24
-22
-21
-22
-23
-22
-21
-20
-19
-19
-19
-20
-21
-20
-20
-23
-22
-21
-21
-21
-21
-21
-21
-21
-21
-21
-23
-25
-23
-21
-23
-25
-24
-23
-24
-25
-25
-24
-22
-22
-24
-25
-26
-27
-26
-25
-26
-27
-26
-25
-25
-25
-25
-24
-22
-22
-21
-25
-25
-25
-25
-25
-25
-20
-15
-14
-13
-13
-12
-6
0
4
7
8
9
7
2
-5
-9
-8
-8
-10
-13
-17
-20
-22
-23
-22
-24
-29
-30
-28
-27
-28
-27
-24
-23
-24
-32
-38
5
49
110
173
257
342
435
476
330
184
36
-81
-126
-150
-135
-118
-100
-84
-73
-63
-55
-48
-42
-39
-40
-41
-40
-39
-39
-38
-36
-34
-32
-31
-32
-34
-36
-35
-32
-32
-35
-33
-31
-32
-33
-31
-29
-28
-27
-26
-25
-25
-25
-22
-19
-20
-21
-19
-17
-16
-14
-11
-8
-5
-2
1
4
6
9
13
15
15
18
22
23
24
25
26
28
30
28
31
21
19
15
11
6
1
-3
-7
-11
-15
-17
-19
-19
-19
-21
-24
-27
-29
-27
-26
-31
-32
-29
-28
-30
-30
-28
-27
-27
-27
-28
-29
-30
-31
-30
-29
-29
-29
-28
-27
-27
-26
-25
-23
-21
-22
-23
-23
-23
-22
-21
-23
-25
-24
-23
-24
-25
-25
-25
-24
-23
-25
-27
-27
-27
-27
-27
-28
-29
-28
-27
-27
-27
-28
-28
-26
-25
-26
-27
-28
-28
-26
-27
-31
-29
-27
-28
-29
-29
-29
-28
-27
-26
-25
-27
-29
-27
-26
-29
-31
-29
-27
-28
-29
-28
-27
-26
-25
-26
-27
-27
-25
-22
-21
-20
-19
-18
-15
-12
-7
-2
4
10
10
11
1
-5
-7
-9
-10
-11
-15
-19
-22
-25
-25
-25
-28
-31
-31
-31
-31
-31
-29
-27
-27
-32
-42
-29
4
52
110
178
251
344
445
418
346
198
30
-63
-142
-148
-144
-130
-116
-99
-83
-70
-57
-52
-47
-47
-47
-47
-47
-47
-47
-45
-43
-42
-41
-41
-40
-37
-35
-37
-39
-39
-38
-36
-36
-38
-39
-38
-37
-36
-34
-32
-30
-28
-28
-30
-31
-31
-28
-24
-23
-25
-21
-17
-17
-17
-12
-7
-4
-1
1
3
3
3
6
9
9
10
13
15
16
17
16
15
15
14
11
6
1
-3
-7
-11
-16
-17
-18
-22
-26
-28
-30
-30
-28
-27
-27
-30
-31
-31
-31
-32
-33
-32
-31
-34
-37
-35
-33
-32
-31
-31
-31
-31
-31
-29
-27
-30
-30
-27
-26
-28
-29
-28
-26
-24
-23
-24
-26
-28
-27
-24
-24
-26
-27
-27
-27
-28
-29
-29
-28
-27
-27
-27
-27
-27
-27
-27
-28
-29
-27
-25
-25
-25
-25
-25
-25
-25
-26
-27
-26
-25
-26
-27
-26
-25
-24
-23
-23
-23
-23
-22
-20
-19
-19
-17
-14
-13
-12
-11
-11
-5
1
5
9
12
15
13
10
5
1
-1
-3
-3
-5
-14
-19
-17
-16
-19
-21
-24
-25
-24
-23
-24
-24
-21
-20
-22
-26
-31
3
51
114
179
270
366
437
505
334
509
24
-98
-123
-146
-131
-115
-98
-81
-69
-58
-49
-42
-37
-33
-31
-29
-30
-31
-30
-29
-32
-31
-27
-25
-26
-27
-26
-25
-25
-25
-24
-23
-24
-23
-20
-20
-22
-22
-20
-19
-18
-16
-15
-13
-11
-10
-9
-9
-9
-7
-5
-4
-3
0
3
4
5
7
10
14
17
16
16
18
19
19
19
19
19
20
20
18
16
14
12
10
7
4
-1
-6
-7
-8
-12
-17
-17
-17
-19
-21
-21
-21
-21
-21
-20
-19
-21
-23
-21
-20
-23
-25
-23
-21
-21
-21
-21
-21
-20
-18
-16
-16
-18
-18
-16
-15
-16
-17
-16
-15
-16
-17
-16
-15
-14
-14
-13
-18
-19
-18
-17
-18
-19
-18
-17
-18
-19
-19
-19
-18
-17
-17
-17
-19
-21
-20
-19
-20
-21
-20
-19
-20
-20
-18
-17
-16
-14
-12
-10
-8
-7
-6
-5
-4
4
12
13
14
15
15
11
7
3
-1
0
1
-5
-10
-15
-19
-17
-15
-19
-21
-22
-23
-22
-21
-21
-21
-20
-23
-31
-25
-8
33
86
145
206
303
413
447
460
305
113
-9
-122
-135
-140
-126
-109
-91
-73
-64
-54
-45
-37
-34
-31
-31
-31
-32
-33
-30
-28
-31
-32
-29
-27
-27
-27
-26
-24
-22
-21
-22
-23
-23
-23
-22
-21
-20
-19
-18
-17
-16
-15
-14
-11
-8
-7
-7
-7
-5
-4
-3
0
3
6
9
12
15
18
21
24
27
27
27
28
30
33
35
32
31
31
29
25
22
19
15
12
8
3
-2
-7
-9
-10
-13
-16
-17
-18
-19
-20
-21
-21
-21
-21
-22
-23
-24
-25
-24
-23
-24
-25
-25
-25
-25
-25
-24
-23
-21
-19
-20
-21
-21
-21
-20
-19
-18
-17
-17
-17
-17
-17
-17
-17
-16
-15
-16
-17
-18
-18
-16
-17
-21
-19
-17
-19
-21
-20
-19
-19
-19
-19
-19
-20
-21
-20
-19
-21
-23
-21
-19
-20
-21
-20
-19
-18
-17
-18
-19
-20
-21
-21
-21
-21
-21
-20
-18
-16
-13
-10
-7
-4
-3
-3
2
7
10
13
14
14
7
1
-1
-3
-3
-3
-3
-5
-12
-17
-17
-17
-19
-22
-25
-26
-23
-21
-21
-20
-17
-21
-31
-17
8
51
101
165
234
337
447
430
398
220
32
-57
-143
-138
-132
-114
-96
-81
-68
-56
-47
-43
-39
-37
-35
-35
-35
-35
-34
-31
-29
-30
-31
-31
-31
-30
-29
-29
-29
-28
-27
-26
-25
-25
-24
-22
-21
-21
-21
-21
-20
-18
-17
-17
-15
-13
-11
-9
-8
-7
-4
-1
1
3
5
8
12
15
15
17
22
25
25
25
28
30
32
33
34
34
32
31
30
25
19
14
10
6
2
-3
-8
-9
-9
-12
-9
-19
-21
-21
-21
-23
-25
-24
-23
-24
-25
-24
-23
-22
-21
-22
-23
-25
-27
-25
-23
-26
-27
-26
-25
-24
-23
-22
-21
-20
-19
-19
-19
-20
-21
-20
-20
-22
-22
-20
-19
-20
-20
-19
-18
-17
-18
-19
-20
-21
-21
-21
-22
-23
-23
-23
-22
-21
-21
-21
-19
-17
-19
-21
-22
-23
-22
-21
-21
-21
-21
-21
-21
-21
-20
-18
-16
-16
-18
-19
-19
-18
-16
-17
-21
-18
-15
-11
-7
-6
-5
-5
-4
1
5
7
10
15
17
11
6
3
1
-1
-3
0
-1
-5
-9
-13
-15
-16
-18
-20
-21
-22
-23
-22
-20
-18
-18
-20
-23
-26
9
-27
105
164
242
321
417
481
348
211
58
-69
-115
-145
-127
-110
-95
-81
-69
-57
-47
-41
-38
-36
-34
-33
-34
-34
-32
-31
-30
-29
-29
-29
-30
-30
-28
-28
-30
-29
-26
-25
-26
-26
-25
-23
-21
-21
-21
-20
-19
-18
-17
-18
-19
-17
-15
-14
-13
-11
-8
-5
-3
-1
2
5
8
10
11
12
14
16
18
20
21
22
24
26
27
26
24
22
19
16
11
5
3
1
-3
-7
-10
-13
-16
-19
-19
-19
-22
-25
-24
-23
-25
-27
-26
-25
-26
-27
-26
-25
-25
-25
-26
-27
-27
-26
-24
-24
-26
-26
-24
-23
-23
-23
-23
-22
-20
-19
-19
-20
-19
-19
-19
-21
-23
-21
-19
-21
-23
-22
-21
-19
-17
-19
-21
-22
-23
-22
-21
-24
-24
-22
-22
-24
-24
-22
-21
-21
-21
-20
-20
-22
-22
-20
-21
-24
-24
-22
-21
-22
-21
-19
-18
-17
-18
-19
-20
-21
-20
-19
-17
-15
-12
-9
-8
-7
-5
-1
7
11
13
15
15
12
6
1
-3
-4
-2
-4
-9
-13
-16
-15
-12
-16
-22
-23
-24
-25
-24
-23
-23
-18
-13
-26
-35
-10
19
77
135
198
271
376
444
418
337
151
5
-76
-125
-131
-129
-114
-99
-84
-72
-63
-53
-43
-37
-34
-33
-32
-31
-31
-31
-30
-29
-28
-27
-27
-27
-27
-24
-23
-22
-21
-22
-23
-22
-21
-21
-21
-19
-17
-16
-15
-15
-15
-14
-12
-9
-8
-11
-11
-7
-5
-4
-2
1
4
6
7
8
10
12
15
18
19
18
18
20
21
20
19
19
20
21
19
17
13
9
7
4
-1
-5
-7
-9
-11
-14
-17
-19
-18
-17
-18
-19
-19
-19
-20
-21
-22
-23
-23
-23
-23
-23
-22
-21
-20
-19
-19
-19
-20
-20
-18
-18
-21
-18
-15
-17
-19
-17
-15
-14
-13
-13
-13
-15
-17
-16
-15
-17
-19
-17
-15
-16
-17
-16
-15
-16
-17
-17
-17
-18
-17
-14
-15
-18
-19
-19
-19
-18
-17
-18
-18
-16
-16
-15
-17
-15
-12
-9
-9
-9
-7
-5
-3
0
6
12
16
18
15
11
4
-1
-1
-1
-2
-5
-9
-12
-15
-17
-16
-17
-21
-23
-22
-22
-24
-22
-18
-17
-18
-29
-40
-10
24
87
151
233
317
424
503
371
234
77
-58
-113
-150
-135
-121
-105
-90
-73
-59
-49
-42
-38
-35
-34
-33
-32
-31
-31
-31
-30
-29
-28
-27
-27
-26
-24
-23
-22
-21
-22
-22
-20
-19
-21
-19
-17
-17
-17
-15
-13
-12
-11
-9
-7
-8
-9
-6
-3
-4
-4
0
3
4
6
9
13
18
21
21
22
24
26
28
29
28
28
30
31
32
33
32
31
31
25
31
13
9
6
3
-2
-7
-9
-11
-13
-15
-14
-13
-14
-15
-17
-19
-21
-23
-21
-19
-22
-23
-23
-23
-23
-22
-20
-19
-18
-17
-18
-19
-20
-19
-16
-15
-16
-16
-14
-13
-13
-13
-13
-12
-11
-12
-13
-13
-13
-13
-13
-14
-15
-15
-15
-15
-15
-16
-16
-13
-11
-13
-15
-16
-17
-17
-17
-18
-18
-16
-15
-16
-17
-16
-15
-14
-13
-14
-15
-16
-17
-16
-16
-19
-12
-5
-6
-7
-5
-3
4
9
12
15
17
18
13
7
0
-4
0
2
-2
-7
-12
-15
-15
-15
-16
-18
-21
-23
-23
-23
-23
-22
-20
-23
-30
-23
-12
39
94
158
97
333
439
454
449
254
70
-44
-137
-138
-135
-118
-100
-82
-66
-57
-49
-43
-38
-35
-33
-36
-36
-34
-33
-33
-33
-32
-31
-30
-29
-29
-29
-29
-28
-26
-26
-28
-28
-26
-25
-25
-24
-23
-22
-21
-20
-19
-18
-17
-16
-15
-15
-15
-13
-11
-9
-7
-5
-1
4
7
8
10
12
14
17
19
20
22
24
25
26
28
30
31
32
31
28
23
18
14
10
3
-5
-7
-9
-13
-17
-19
-21
-21
-21
-22
-23
-26
-29
-28
-27
-29
-31
-31
-31
-31
-31
-31
-30
-28
-27
-28
-29
-30
-31
-30
-29
-29
-29
-29
-28
-26
-25
-25
-24
-22
-22
-21
-24
-23
-24
-25
-26
-27
-26
-25
-25
-25
-25
-25
-24
-23
-24
-25
-27
-29
-27
-25
-28
-29
-28
-27
-28
-29
-28
-27
-26
-25
-25
-26
-28
-29
-28
-28
-30
-30
-28
-27
-28
-28
-27
-26
-25
-27
-29
-29
-29
-27
-25
-25
-24
-20
-17
-16
-15
-14
-10
-2
3
3
5
9
8
2
-4
-10
-12
-8
-9
-13
-19
-25
-25
-22
-25
-30
-32
-34
-33
-30
-29
-31
-28
-25
-34
-42
-25
-4
44
96
160
235
343
420
425
364
172
18
-78
-136
-144
-141
-124
-106
-87
-74
-63
-56
-50
-46
-44
-43
-44
-45
-44
-43
-42
-41
-41
-39
-36
-35
-35
-38
-39
-37
-35
-37
-39
-37
-35
-36
-37
-34
-31
-29
-27
-28
-29
-30
-30
-27
-25
-26
-26
-24
-23
-22
-20
-17
-13
-10
-8
-6
-5
-4
0
4
5
4
7
12
13
13
14
15
16
17
14
11
6
1
-1
-4
-9
-14
-18
-21
-25
-28
-31
-33
-32
-31
-33
-35
-36
-37
-37
-38
-40
-41
-41
-40
-38
-37
-37
-37
-36
-35
-36
-37
-38
-38
-36
-37
-41
-39
-37
-37
-37
-35
-33
-33
-33
-32
-31
-33
-35
-34
-34
-37
-39
-37
-35
-35
-35
-35
-35
-34
-33
-33
-34
-36
-37
-37
-37
-38
-39
-38
-37
-36
-35
-36
-36
-34
-34
-33
-38
-39
-37
-35
-36
-37
-37
-37
-37
-37
-37
-37
-36
-35
-34
-33
-34
-35
-33
-31
-28
-27
-27
-27
-26
-22
-17
-12
-7
-3
1
-1
-7
-12
-16
-18
-20
-21
-20
-23
-28
-31
-33
-32
-31
-35
-39
-40
-41
-40
-39
-37
-35
-37
-40
-44
-33
8
58
122
202
302
383
445
372
185
43
-70
-126
-149
-148
-135
-121
-107
-91
-76
-67
-59
-54
-50
-49
-48
-47
-49
-47
-45
-44
-43
-41
-39
-39
-39
-38
-37
-39
-41
-39
-37
-37
-37
-35
-33
-34
-35
-32
-31
-30
-29
-28
-27
-27
-26
-24
-23
-23
-22
-20
-19
-18
-16
-14
-9
-4
-3
-3
-3
-1
0
1
1
1
3
5
5
5
7
9
10
10
6
2
-2
-5
-7
-11
-16
-19
-20
-23
-27
-29
-30
-31
-30
-29
-30
-32
-34
-34
-32
-33
-36
-35
-32
-32
-34
-33
-31
-29
-27
-29
-31
-32
-33
-32
-31
-30
-29
-29
-29
-28
-27
-27
-27
-25
-23
-24
-25
-25
-25
-25
-25
-26
-27
-28
-29
-29
-29
-29
-28
-26
-26
-28
-29
-29
-29
-29
-29
-31
-30
-29
-30
-31
-30
-29
-29
-29
-28
-27
-29
-31
-29
-27
-28
-27
-21
-17
-18
-18
-15
-10
-4
0
3
6
9
7
1
-5
-11
-11
-8
-11
-18
-22
-26
-25
-22
-25
-21
-33
-35
-34
-33
-32
-31
-28
-26
-37
-41
-21
9
70
132
199
282
394
450
427
326
134
-7
-100
-143
