-31
-28
-29
-31
-35
-37
-38
-38
-38
-36
-38
-41
-44
-49
-49
-51
-50
-50
-49
-51
-53
-56
-58
-57
-57
-56
-53
-55
-56
-60
-61
-60
-59
-57
-56
-54
-55
-58
-60
-59
-58
-57
-55
-52
-52
-55
-55
-57
-57
-54
-53
-51
-50
-50
-53
-54
-54
-51
-50
-47
-45
-43
-44
-45
-44
-41
-41
-40
-43
-50
-55
-63
-70
-69
-64
-62
-55
-54
-52
-57
-56
-56
-54
-52
-51
-49
-50
-53
-56
-60
-57
-55
-54
-53
-55
-57
-61
-62
-63
-62
-62
-68
-80
-101
-130
-161
-187
-217
-240
-259
-269
-270
-257
-234
-206
-178
-156
-130
-111
-91
-73
-66
-63
-60
-58
-57
-51
-48
-51
-52
-52
-51
-51
-49
-48
-47
-47
-48
-50
-50
-50
-45
-46
-45
-46
-48
-50
-48
-47
-45
-43
-40
-38
-39
-41
-39
-41
-39
-36
-33
-29
-31
-31
-31
-34
-30
-28
-25
-24
-27
-28
-32
-36
-35
-35
-36
-38
-39
-42
-47
-50
-51
-49
-50
-50
-48
-50
-52
-53
-56
-55
-55
-52
-52
-54
-55
-58
-58
-62
-57
-56
-55
-53
-53
-57
-55
-58
-58
-54
-53
-52
-51
-53
-56
-58
-57
-53
-52
-48
-48
-50
-50
-54
-51
-50
-50
-46
-44
-45
-44
-43
-43
-40
-38
-35
-35
-41
-44
-49
-55
-58
-61
-61
-60
-57
-55
-54
-56
-52
-50
-49
-49
-47
-47
-48
-50
-51
-48
-47
-48
-46
-46
-48
-51
-50
-51
-48
-48
-46
-48
-50
-55
-58
-60
-68
-71
-106
-139
-173
-207
-236
-250
-253
-232
-204
-177
-154
-137
-123
-108
-88
-72
-57
-50
-50
-49
-49
-49
-48
-44
-42
-40
-39
-42
-42
-43
-45
-42
-41
-39
-37
-40
-42
-41
-44
-42
-39
-38
-36
-37
-38
-38
-40
-38
-35
-33
-30
-30
-31
-31
-32
-31
-27
-25
-22
-21
-20
-22
-24
-26
-27
-25
-24
-22
-26
-28
-31
-35
-37
-35
-35
-34
-36
-40
-41
-44
-46
-45
-43
-41
-41
-42
-44
-48
-50
-48
-48
-44
-43
-45
-48
-49
-53
-50
-50
-49
-47
-48
-46
-49
-49
-50
-46
-46
-44
-42
-43
-44
-44
-47
-45
-44
-41
-40
-39
-41
-43
-45
-44
-43
-42
-37
-35
-35
-35
-36
-35
-33
-29
-29
-29
-34
-37
-41
-48
-51
-51
-54
-49
-48
-47
-45
-45
-43
-41
-40
-38
-36
-34
-38
-39
-41
-39
-38
-37
-34
-38
-39
-42
-46
-44
-42
-38
-40
-39
-41
-45
-53
-60
-76
-82
-121
-144
-172
-196
-215
-226
-226
-210
-186
-165
-144
-129
-114
-102
-85
-69
-54
-46
-44
-42
-45
-47
-42
-41
-40
-38
-35
-36
-38
-39
-40
-37
-36
-32
-32
-33
-34
-37
-38
-36
-35
-33
-30
-28
-33
-33
-34
-33
-33
-32
-28
-27
-27
-28
-30
-28
-27
-23
-21
-20
-18
-18
-23
-23
-21
-21
-18
-16
-18
-19
-24
-25
-26
-25
-24
-24
-25
-28
-32
-35
-35
-37
-34
-34
-33
-34
-37
-39
-43
-42
-39
-38
-35
-35
-38
-38
-40
-42
-39
-38
-37
-35
-35
-37
-37
-39
-37
-35
-32
-32
-32
-34
-35
-36
-33
-31
-31
-29
-29
-31
-31
-33
-33
-33
-34
-28
-24
-23
-24
-24
-24
-23
-22
-21
-26
-31
-38
-44
-48
-43
-39
-32
-29
-28
-30
-31
-31
-32
-30
-29
-27
-26
-29
-32
-33
-33
-34
-33
-32
-31
-32
-35
-39
-40
-41
-39
-43
-47
-64
-86
-111
-137
-165
-191
-199
-221
-224
-211
-189
-164
-141
-119
-99
-78
-58
-45
-39
-40
-40
-39
-36
-33
-29
-29
-30
-31
-30
-31
-30
-29
-24
-25
-24
-26
-28
-30
-29
-27
-23
-23
-23
-22
-23
-26
-25
-24
-20
-19
-18
-18
-17
-20
-23
-17
-15
-12
-9
-9
-11
-12
-12
-8
-7
-7
-3
-5
-8
-10
-15
-14
-15
-11
-11
-15
-17
-20
-23
-26
-25
-24
-23
-23
-28
-29
-31
-32
-31
-29
-29
-29
-29
-30
-32
-34
-34
-31
-32
-27
-30
-32
-33
-34
-35
-33
-33
-29
-30
-29
-28
-30
-31
-30
-29
-27
-23
-25
-26
-27
-29
-28
-24
-25
-23
-23
-22
-22
-23
-23
-19
-17
-12
-12
-15
-21
-26
-32
-37
-41
-40
-35
-33
-31
-32
-31
-29
-27
-24
-22
-20
-25
-24
-28
-29
-29
-28
-25
-25
-25
-28
-31
-32
-31
-32
-31
-35
-42
-62
-93
-126
-160
-189
-215
-234
-241
-238
-215
-188
-159
-137
-130
-95
-80
-62
-46
-35
-32
-30
-29
-24
-22
-19
-21
-21
-22
-23
-17
-18
-17
-15
-17
-19
-21
-22
-20
-19
-18
-16
-18
-17
-18
-18
-14
-15
-13
-9
-12
-9
-12
-14
-11
-7
-5
-4
-1
-2
0
-3
-3
-2
-1
5
5
2
1
1
-3
-3
-3
0
-1
-2
-8
-10
-12
-15
-14
-14
-15
-17
-19
-19
-23
-23
-22
-23
-22
-22
-22
-25
-29
-28
-26
-26
-25
-25
-26
-26
-28
-29
-30
-28
-26
-23
-23
-25
-26
-26
-26
-24
-25
-20
-20
-21
-23
-24
-25
-23
-22
-21
-17
-19
-20
-21
-21
-19
-16
-14
-11
-10
-11
-9
-11
-14
-13
-14
-20
-27
-35
-36
-41
-36
-30
-26
-22
-19
-20
-20
-21
-24
-22
-23
-19
-21
-19
-21
-24
-26
-27
-27
-25
-23
-23
-25
-29
-32
-34
-35
-37
-45
-59
-83
-112
-143
-171
-196
-217
-236
-244
-246
-234
-211
-187
-161
-138
-130
-94
-73
-55
-39
-31
-30
-30
-26
-23
-19
-19
-19
-19
-19
-22
-20
-17
-16
-15
-17
-17
-19
-18
-18
-17
-15
-13
-14
-16
-18
-17
-18
-15
-12
-11
-9
-13
-13
-13
-13
-11
-8
-5
-3
-4
-4
-4
-5
-3
-2
3
3
3
1
-2
-2
-1
-1
-1
2
-3
-5
-10
-12
-16
-16
-15
-15
-16
-18
-24
-24
-25
-26
-24
-21
-22
-25
-28
-30
-31
-29
-28
-27
-27
-26
-29
-29
-32
-31
-30
-27
-27
-24
-27
-27
-28
-31
-29
-28
-22
-23
-23
-24
-26
-26
-23
-21
-20
-17
-18
-21
-23
-22
-21
-19
-16
-13
-8
-8
-10
-10
-11
-9
-10
-12
-14
-21
-29
-32
-34
-32
-26
-23
-19
-17
-19
-20
-19
-19
-19
-16
-14
-13
-15
-18
-19
-21
-20
-20
-16
-15
-19
-22
-23
-24
-22
-22
-22
-21
-25
-29
-36
-51
-76
-105
-136
-165
-191
-211
-219
-211
-190
-164
-155
-115
-95
-81
-64
-46
-35
-28
-26
-22
-20
-18
-16
-16
-18
-17
-16
-14
-10
-13
-15
-14
-15
-17
-13
-14
-10
-10
-12
-11
-12
-13
-14
-12
-9
-8
-6
-8
-10
-13
-12
-11
-8
-4
-2
-5
-2
-5
-5
-2
-2
2
4
5
2
2
-1
2
1
0
3
1
-2
-7
-8
-12
-12
-10
-10
-11
-14
-17
-19
-21
-20
-20
-17
-17
-18
-18
-23
-24
-24
-24
-22
-20
-20
-22
-24
-27
-26
-24
-24
-24
-20
-22
-25
-24
-25
-23
-21
-18
-17
-18
-20
-20
-23
-24
-20
-17
-15
-16
-17
-20
-18
-19
-16
-12
-11
-9
-8
-10
-12
-15
-18
-19
-24
-25
-31
-32
-32
-29
-26
-23
-20
-20
-18
-20
-22
-23
-22
-20
-19
-16
-18
-17
-20
-21
-24
-26
-26
-24
-23
-22
-25
-26
-26
-27
-26
-31
-37
-54
-79
-108
-138
-165
-188
-201
-208
-204
-191
-168
-145
-124
-105
-98
-67
-48
-35
-30
-29
-31
-28
-25
-23
-20
-20
-20
-21
-22
-22
-20
-19
-18
-15
-16
-18
-18
-22
-21
-21
-17
-15
-16
-17
-20
-20
-19
-16
-14
-12
-14
-15
-14
-19
-16
-15
-11
-10
-9
-10
-8
-10
-11
-11
-9
-7
-4
-5
-6
-8
-10
-10
-10
-9
-10
-11
-14
-18
-20
-23
-24
-21
-22
-22
-24
-28
-29
-30
-31
-31
-30
-28
-29
-31
-33
-33
-36
-33
-32
-30
-29
-31
-34
-36
-36
-33
-33
-31
-28
-31
-30
-32
-35
-33
-32
-29
-28
-28
-30
-32
-32
-32
-30
-30
-26
-24
-23
-25
-25
-24
-23
-20
-18
-17
-24
-29
-38
-45
-47
-46
-40
-33
-34
-31
-32
-36
-32
-31
-29
-28
-29
-29
-30
-35
-34
-33
-32
-31
-32
-31
-34
-37
-41
-40
-39
-38
-44
-59
-84
-112
-143
-170
-193
-211
-230
-240
-235
-215
-188
-159
-130
-110
-90
-68
-51
-42
-38
-40
-36
-35
-31
-29
-27
-29
-30
-32
-31
-29
-28
-25
-24
-24
-28
-30
-31
-28
-25
-25
-22
-24
-27
-27
-28
-25
-24
-23
-20
-20
-21
-23
-25
-21
-20
-17
-14
-16
-15
-16
-16
-16
-15
-12
-10
-8
-7
-10
-13
-14
-14
-15
-14
-13
-18
-22
-23
-26
-27
-28
-29
-27
-28
-29
-33
-37
-38
-36
-34
-34
-35
-37
-38
-40
-41
-41
-40
-37
-35
-37
-38
-42
-42
-40
-39
-39
-37
-35
-38
-40
-40
-42
-40
-37
-35
-33
-33
-39
-38
-36
-36
-35
-34
-30
-29
-30
-32
-33
-29
-27
-25
-19
-17
-19
-24
-27
-33
-35
-38
-43
-46
-45
-47
-44
-40
-40
-41
-33
-33
-32
-33
-34
-36
-34
-34
-32
-31
-31
-33
-35
-39
-40
-38
-39
-37
-35
-39
-39
-44
-51
-54
-56
-87
-118
-156
-192
-226
-251
-266
-266
-248
-221
-193
-168
-146
-129
-113
-91
-68
-50
-40
-38
-39
-38
-38
-35
-34
-28
-25
-26
-26
-27
-28
-28
-26
-24
-23
-22
-23
-26
-27
-27
-25
-24
-21
-19
-21
-21
-24
-26
-25
-24
-20
-15
-15
-16
-17
-18
-17
-15
-12
-8
-8
-8
-9
-9
-7
-9
-7
-3
-3
-3
-7
-8
-12
-13
-12
-11
-11
-15
-18
-23
-26
-26
-26
-26
-25
-25
-27
-33
-33
-35
-32
-32
-31
-31
-31
-34
-37
-41
-39
-38
-36
-35
-35
-38
-38
-40
-40
-39
-37
-35
-34
-35
-37
-37
-36
-36
-36
-34
-32
-30
-32
-34
-36
-35
-34
-31
-25
-27
-29
-29
-29
-26
-24
-23
-17
-17
-20
-24
-30
-36
-39
-43
-45
-44
-42
-44
-41
-40
-37
-37
-34
-31
-29
-32
-35
-37
-37
-35
-34
-32
-33
-33
-37
-39
-43
-42
-40
-42
-43
-49
-61
-86
-119
-151
-162
-212
-240
-257
-264
-250
-225
-193
-162
-137
-115
-96
-78
-63
-54
-47
-42
-38
-38
-34
-35
-35
-36
-38
-36
-35
-30
-27
-26
-29
-32
-32
-31
-32
-31
-26
-26
-29
-29
-29
-30
-28
-28
-24
-23
-23
-23
-24
-25
-23
-22
-17
-11
-15
-13
-13
-17
-17
-14
-14
-9
-7
-12
-13
-16
-16
-17
-16
-17
-17
-19
-24
-24
-29
-29
-30
-28
-29
-31
-33
-35
-36
-39
-39
-38
-36
-35
-38
-39
-40
-41
-40
-39
-39
-37
-39
-39
-43
-44
-44
-43
-39
-38
-37
-38
-40
-40
-42
-39
-37
-34
-32
-34
-35
-37
-38
-37
-36
-33
-32
-33
-32
-35
-36
-36
-34
-29
-25
-25
-25
-25
-26
-27
-26
-26
-30
-32
-38
-44
-48
-49
-45
-40
-36
-35
-34
-35
-37
-38
-36
-36
-33
-32
-30
-32
-32
-33
-35
-34
-35
-35
-33
-33
-37
-40
-41
-41
-41
-38
-39
-49
-63
-90
-124
-157
-168
-215
-231
-228
-210
-181
-152
-124
-99
-77
-57
-42
-39
-38
-37
-39
-37
-33
-32
-29
-29
-32
-30
-34
-34
-33
-30
-27
-26
-29
-30
-31
-31
-28
-29
-24
-27
-26
-27
-30
-30
-28
-27
-27
-23
-23
-25
-26
-26
-26
-25
-21
-18
-19
-19
-19
-20
-18
-17
-16
-16
-15
-16
-16
-17
-19
-19
-20
-20
-19
-20
-23
-27
-30
-31
-31
-29
-30
-30
-33
-36
-36
-37
-37
-36
-34
-35
-37
-37
-38
-41
-39
-38
-37
-35
-36
-38
-40
-40
-41
-40
-39
-37
-33
-36
-39
-40
-41
-39
-36
-31
-30
-31
-33
-36
-37
-33
-33
-30
-30
-29
-32
-35
-36
-36
-35
-33
-30
-28
-28
-29
-30
-27
-25
-23
-19
-20
-22
-26
-29
-36
-39
-42
-45
-44
-43
-40
-38
-39
-39
-38
-35
-32
-30
-32
-35
-35
-36
-34
-32
-33
-31
-33
-36
-38
-39
-40
-39
-37
-37
-38
-40
-43
-47
-54
-56
-83
-107
-139
-171
-200
-224
-238
-238
-225
-200
-173
-150
-130
-115
-97
-75
-60
-49
-43
-42
-43
-43
-45
-44
-43
-38
-36
-32
-35
-38
-38
-39
-39
-37
-35
-32
-34
-36
-37
-40
-38
-36
-33
-32
-34
-33
-35
-35
-34
-33
-30
-27
-26
-27
-27
-29
-27
-26
-23
-21
-21
-20
-24
-25
-29
-27
-29
-25
-25
-27
-29
-32
-36
-36
-37
-36
-37
-35
-40
-41
-42
-46
-46
-44
-43
-44
-48
-48
-50
-52
-50
-49
-49
-48
-48
-51
-53
-51
-55
-52
-50
-49
-48
-51
-53
-53
-56
-52
-50
-49
-47
-47
-50
-50
-53
-50
-50
-47
-46
-47
-46
-50
-51
-52
-51
-48
-47
-46
-47
-45
-46
-46
-44
-40
-38
-35
-40
-44
-54
-60
-65
-64
-65
-61
-58
-55
-55
-58
-55
-54
-51
-50
-49
-50
-52
-55
-55
-55
-52
-52
-53
-52
-55
-58
-60
-59
-59
-60
-58
-61
-66
-74
-85
-105
-112
-159
-190
-221
-252
-278
-289
-284
-262
-231
-196
-164
-143
-122
-100
-83
-69
-64
-61
-59
-58
-58
-58
-58
-58
-56
-54
-52
-50
-52
-55
-56
-57
-53
-54
-51
-49
-51
-54
-54
-54
-52
-54
-50
-50
-48
-49
-50
-51
-50
-50
-46
-42
-42
-41
-43
-44
-42
-41
-40
-34
-33
-33
-34
-37
-38
-35
-35
-35
-30
-31
-32
-35
-38
-39
-38
-38
-40
-40
-43
-46
-50
-52
-50
-50
-47
-44
-47
-50
-54
-54
-52
-54
-52
-51
-50
-50
-55
-55
-56
-56
-53
-51
-51
-51
-55
-54
-54
-55
-51
-49
-47
-48
-48
-52
-51
-53
-50
-49
-48
-46
-49
-49
-52
-50
-48
-43
-39
-35
-37
-38
-39
-41
-42
-42
-44
-50
-58
-62
-66
-70
-65
-61
-55
-53
-52
-53
-54
-54
-55
-54
-50
-49
-48
-51
-51
-55
-53
-54
-54
-53
-52
-53
-56
-57
-61
-64
-63
-64
-69
-80
-102
-134
-170
-202
-212
-261
-284
-293
-291
-272
-244
-213
-182
-157
-133
-112
-92
-77
-67
-66
-62
-62
-58
-53
-54
-54
-56
-56
-56
-55
-53
-52
-48
-51
-52
-54
-55
-54
-52
-51
-50
-50
-52
-55
-55
-53
-50
-50
-47
-47
-44
-47
-48
-50
-50
-44
-41
-39
-38
-40
-39
-39
-38
-36
-35
-33
-36
-36
-39
-39
-41
-39
-39
-39
-40
-42
-46
-51
-53
-53
-51
-53
-53
-54
-55
-58
-61
-60
-60
-56
-55
-56
-57
-58
-59
-60
-59
-60
-56
-56
-56
-57
-57
-57
-55
-50
-48
-48
-52
-54
-51
-49
-44
-39
-31
-27
-30
-34
-41
-49
-50
-50
-47
-44
-42
-45
-49
-52
-54
-52
-50
-48
-48
-51
-52
-56
-59
-58
-58
-57
-59
-67
-85
-112
-142
-173
-204
-231
-248
-257
-248
-230
-206
-181
-172
-137
-119
-99
-82
-71
-64
-60
-59
-56
-54
-52
-51
-51
-51
-54
-53
-52
-50
-48
-46
-49
-50
-52
-52
-52
-49
-48
-47
-47
-49
-50
-53
-51
-50
-48
-44
-47
-47
-48
-48
-46
-45
-44
-40
-40
-36
-38
-42
-39
-40
-38
-35
-35
-38
-39
-40
-44
-42
-40
-40
-39
-43
-47
-49
-53
-55
-54
-55
-52
-53
-56
-59
-60
-61
-60
-59
-59
-57
-59
-59
-61
-65
-63
-62
-59
-59
-60
-60
-63
-64
-64
-62
-62
-59
-57
-59
-60
-61
-62
-61
-59
-58
-57
-59
-60
-62
-63
-64
-63
-60
-58
-61
-60
-60
-65
-64
-63
-63
-60
-59
-61
-63
-64
-66
-65
-61
-59
-59
-57
-59
-61
-63
-63
-63
-59
-58
-60
-59
-62
-62
-65
-62
-62
-56
-57
-59
-60
-62
-65
-66
-58
-55
-53
-51
-54
-55
-53
-50
-49
-50
-51
-53
-57
-64
-68
-70
-70
-65
-60
-57
-56
-58
-58
-60
-59
-56
-52
-51
-52
-55
-55
-59
-58
-56
-54
-52
-54
-56
-58
-62
-63
-61
-60
-59
-62
-66
-84
-108
-139
-149
-194
-219
-239
-252
-254
-240
-218
-190
-161
-142
-123
-106
-87
-76
-69
-68
-63
-64
-59
-57
-56
-56
-60
-61
-60
-56
-55
-52
-54
-55
-58
-57
-58
-57
-54
-52
-52
-54
-55
-56
-58
-56
-53
-52
-50
-49
-51
-52
-52
-53
-49
-47
-41
-43
-47
-46
-47
-45
-42
-40
-39
-39
-41
-44
-45
-46
-47
-45
-44
-43
-49
-52
-56
-59
-59
-58
-58
-58
-59
-61
-64
-66
-66
-66
-67
-65
-67
-68
-69
-73
-73
-73
-71
-70
-69
-68
-74
-77
-76
-75
-72
-72
-70
-71
-72
-74
-76
-74
-73
-69
-67
-70
-74
-79
-80
-80
-84
-91
-114
-150
-191
-231
-261
-276
-281
-284
-275
-261
-252
-245
-241
-232
-222
-211
-203
-193
-186
-181
-177
-168
-158
-145
-133
-119
-107
-95
-86
-77
-68
-63
-42
-34
-29
-28
-29
-30
-28
-24
-24
-18
-16
-13
-13
-13
-12
-9
-7
-2
3
6
9
9
8
13
13
23
25
28
30
29
29
28
30
29
33
35
30
29
25
19
16
13
10
8
4
-3
-10
-17
-23
-26
-30
-33
-36
-40
-43
-50
-55
-56
-57
-57
-57
-57
-61
-63
-65
-66
-66
-63
-62
-63
-64
-66
-68
-69
-69
-68
-67
-64
-69
-70
-72
-74
-74
-73
-72
-73
-73
-73
-76
-78
-81
-80
-80
-77
-77
-78
-80
-83
-84
-84
-82
-81
-81
-83
-84
-86
-89
-90
-89
-85
-83
-82
-85
-85
-83
-79
-79
-78
-74
-77
-76
-78
-82
-82
-82
-78
-78
-76
-78
-82
-85
-86
-84
-82
-83
-95
-116
-145
-174
-198
-216
-224
-218
-205
-190
-178
-169
-163
-157
-155
-152
-153
-155
-159
-163
-163
-164
-159
-150
-135
-117
-105
-95
-89
-83
-79
-75
-71
-67
-65
-67
-66
-68
-69
-70
-64
-63
-62
-62
-64
-65
-67
-66
-64
-62
-60
-59
-60
-61
-60
-62
-58
-56
-51
-49
-50
-49
-49
-49
-47
-45
-42
-38
-40
-44
-44
-48
-47
-47
-45
-46
-48
-49
-55
-59
-62
-62
-64
-62
-65
-68
-70
-75
-78
-80
-79
-78
-80
-82
-84
-88
-90
-91
-90
-90
-88
-89
-92
-94
-94
-95
-93
-92
-91
-89
-91
-92
-92
-94
-94
-91
-87
-86
-88
-87
-89
-89
-89
-88
-86
-87
-86
-87
-89
-91
-91
-91
-89
-89
-87
-89
-90
-94
-95
-94
-92
-90
-89
-91
-92
-95
-100
-97
-95
-93
-91
-91
-94
-95
-95
-96
-95
-94
-93
-92
-93
-94
-95
-99
-99
-97
-94
-92
-93
-94
-96
-97
-96
-97
-94
-94
-92
-93
-95
-96
-96
-94
-91
-86
-81
-82
-81
-81
-83
-83
-84
-84
-87
-95
-101
-108
-110
-107
-102
-97
-95
-93
-95
-95
-97
-94
-92
-91
-90
-88
-91
-93
-93
-95
-97
-96
-92
-92
-94
-95
-96
-100
-101
-105
-112
-122
-149
-181
-212
-245
-274
-295
-307
-302
-285
-260
-234
-208
-187
-181
-147
-125
-107
-98
-92
-93
-93
-92
-89
-84
-82
-79
-83
-85
-84
-83
-83
-81
-80
-79
-81
-80
-82
-83
-82
-80
-78
-76
-75
-77
-79
-83
-80
-77
-75
-75
-73
-73
-77
-78
-77
-75
-73
-68
-67
-68
-66
-66
-67
-67
-64
-63
-61
-62
-61
-63
-66
-66
-67
-66
-64
-64
-66
-72
-74
-77
-77
-75
-76
-78
-77
-82
-87
-87
-87
-89
-87
-86
-87
-88
-91
-94
-94
-92
-90
-88
-87
-89
-89
-92
-95
-90
-89
-87
-85
-88
-86
-89
-87
-86
-83
-80
-76
-75
-77
-77
-79
-79
-78
-75
-71
-66
-69
-69
-70
-69
-69
-67
-66
-67
-72
-78
-85
-90
-92
-89
-82
-78
-78
-77
-79
-80
-79
-76
-75
-75
-74
-75
-75
-79
-78
-77
-76
-74
-73
-76
-78
-80
-82
-83
-82
-80
-77
-83
-93
-112
-137
-160
-184
-207
-231
-249
-265
-273
-271
-256
-234
-209
-184
-165
-146
-128
-111
-99
-96
-89
-85
-80
-81
-79
-82
-82
-82
-80
-79
-78
-75
-78
-78
-79
-79
-79
-77
-75
-73
-74
-77
-77
-78
-79
-76
-73
-71
-72
-73
-73
-74
-72
-71
-70
-65
-65
-65
-64
-68
-68
-67
-64
-60
-59
-60
-60
-63
-62
-64
-62
-60
-61
-62
-63
-67
-69
-71
-73
-74
-72
-72
-77
-79
-80
-82
-82
-80
-79
-81
-78
-82
-85
-86
-85
-85
-84
-81
-81
-82
-84
-87
-88
-85
-84
-82
-82
-82
-85
-85
-88
-85
-85
-82
-80
-83
-83
-83
-85
-86
-84
-80
-81
-80
-81
-83
-82
-82
-80
-75
-73
-67
-68
-69
-72
-77
-79
-80
-82
-82
-91
-90
-93
-90
-88
-81
-79
-77
-77
-78
-78
-79
-79
-78
-78
-76
-73
-76
-78
-80
-81
-79
-80
-76
-76
-77
-80
-82
-84
-85
-86
-89
-98
-121
-151
-185
-220
-253
-278
-288
-280
-256
-226
-200
-179
-162
-144
-124
-102
-88
-82
-82
-81
-84
-83
-78
-75
-73
-71
-73
-73
-74
-74
-75
-72
-69
-67
-68
-70
-71
-74
-73
-69
-68
-66
-67
-68
-69
-71
-70
-68
-65
-63
-62
-63
-64
-65
-64
-60
-59
-56
-53
-53
-54
-54
-54
-52
-53
-50
-46
-47
-49
-50
-54
-56
-53
-53
-53
-53
-54
-57
-60
-64
-64
-64
-63
-63
-65
-69
-72
-74
-75
-73
-71
-71
-74
-74
-73
-77
-78
-77
-75
-74
-72
-74
-78
-81
-80
-79
-77
-73
-70
-72
-74
-76
-78
-76
-75
-71
-71
-69
-71
-73
-74
-74
-71
-69
-68
-68
-66
-70
-72
-71
-65
-63
-58
-58
-56
-58
-57
-59
-60
-61
-62
-65
-72
-78
-83
-87
-86
-81
-76
-71
-72
-69
-72
-74
-72
-71
-68
-65
-65
-66
-67
-70
-73
-72
-71
-70
-68
-73
-72
-76
-77
-79
-80
-81
-89
-107
-140
-177
-215
-248
-279
-300
-308
-300
-279
-252
-221
-196
-173
-151
-127
-106
-87
-80
-76
-76
-75
-71
-68
-65
-63
-63
-64
-67
-65
-65
-61
-58
-58
-60
-60
-63
-64
-62
-63
-60
-57
-56
-56
-57
-59
-59
-56
-54
-52
-51
-50
-52
-53
-52
-50
-47
-43
-41
-39
-43
-43
-45
-43
-41
-38
-37
-37
-41
-44
-48
-47
-50
-49
-47
-50
-53
-57
-60
-62
-62
-60
-60
-62
-63
-64
-67
-69
-70
-70
-67
-64
-65
-67
-68
-69
-71
-70
-67
-64
-63
-65
-66
-68
-68
-67
-66
-63
-62
-61
-62
-64
-64
-66
-62
-61
-59
-58
-60
-61
-63
-64
-58
-56
-55
-52
-51
-50
-52
-50
-48
-48
-48
-51
-59
-68
-77
-80
-77
-67
-66
-60
-60
-59
-61
-62
-63
-60
-58
-58
-58
-56
-59
-60
-62
-63
-61
-58
-57
-59
-62
-65
-66
-66
-65
-66
-69
-80
-98
-124
-157
-168
-214
-242
-265
-285
-294
-287
-270
-240
-206
-179
-155
-132
-111
-90
-72
-64
-61
-59
-58
-54
-53
-53
-54
-54
-54
-50
-50
-48
-47
-46
-48
-50
-50
-52
-49
-47
-44
-44
-45
-44
-48
-49
-45
-42
-41
-41
-39
-41
-42
-41
-38
-35
-31
-30
-30
-31
-34
-31
-29
-28
-26
-24
-27
-29
-32
-34
-33
-34
-35
-35
-35
-40
-43
-47
-48
-48
-46
-45
-45
-49
-51
-54
-54
-53
-51
-49
-48
-48
-53
-55
-56
-55
-53
-51
-51
-50
-50
-53
-55
-53
-52
-50
-48
-47
-46
-50
-49
-50
-48
-46
-44
-41
-42
-43
-45
-45
-44
-39
-38
-33
-30
-30
-33
-37
-39
-43
-45
-48
-53
-54
-56
-54
-52
-49
-47
-43
-41
-41
-41
-43
-44
-44
-42
-40
-38
-39
-38
-43
-45
-46
-44
-43
-41
-41
-43
-45
-48
-49
-50
-52
-63
-82
-111
-144
-176
-207
-231
-241
-237
-214
-185
-160
-139
-121
-116
-83
-64
-52
-43
-43
-46
-46
-46
-42
-40
-37
-34
-34
-34
-37
-37
-38
-36
-32
-32
-32
-34
-35
-37
-36
-36
-35
-31
-29
-32
-33
-32
-36
-33
-34
-30
-29
-28
-29
-31
-32
-30
-28
-24
-21
-19
-21
-22
-24
-26
-23
-22
-21
-19
-21
-22
-25
-26
-26
-28
-26
-26
-29
-34
-33
-38
-38
-38
-38
-35
-37
-36
-42
-43
-43
-43
-42
-40
-41
-43
-42
-45
-47
-46
-45
-43
-43
-40
-40
-45
-47
-46
-45
-42
-41
-37
-41
-41
-42
-41
-40
-37
-37
-34
-35
-37
-39
-38
-37
-35
-33
-32
-32
-33
-33
-33
-31
-27
-26
-23
-23
-22
-28
-31
-33
-37
-40
-41
-45
-46
-46
-44
-43
-41
-38
-35
-31
-34
-34
-35
-36
-34
-36
-32
-30
-31
-33
-33
-38
-39
-40
-38
-38
-35
-36
-37
-40
-42
-45
-49
-62
-84
-110
-135
-167
-194
-216
-230
-232
-225
-208
-187
-166
-146
-139
-108
-90
-70
-53
-46
-41
-42
-43
-38
-35
-31
-28
-31
-31
-32
-35
-34
-33
-29
-27
-25
-29
-31
-32
-31
-31
-28
-26
-25
-26
-28
-26
-29
-29
-28
-25
-22
-22
-23
-24
-26
-23
-22
-18
-17
-14
-14
-14
-17
-16
-15
-10
-11
-9
-10
-10
-12
-13
-13
-14
-12
-9
-12
-14
-18
-20
-21
-22
-24
-22
-23
-26
-29
-30
-31
-31
-30
-29
-30
-29
-32
-33
-35
-36
-35
-32
-30
-32
-31
-33
-35
-37
-34
-30
-30
-27
-31
-32
-32
-33
-33
-31
-29
-26
-28
-26
-30
-29
-28
-28
-27
-22
-23
-22
-24
-27
-28
-25
-20
-17
-16
-14
-15
-13
-14
-14
-18
-19
-21
-27
-35
-39
-41
-34
-30
-26
-23
-26
-24
-25
-26
-25
-23
-20
-18
-18
-19
-21
-23
-24
-24
-21
-21
-19
-22
-24
-27
-29
-28
-29
-28
-33
-43
-65
-93
-126
-156
-189
-216
-234
-244
-236
-211
-181
-171
-125
-103
-81
-60
-45
-34
-27
-29
-28
-24
-17
-14
-16
-15
-18
-18
-19
-16
-14
-14
-12
-11
-12
-15
-16
-12
-13
-10
-7
-8
-9
-11
-12
-13
-10
-7
-6
-5
-7
-7
-6
-7
-4
-1
2
4
3
1
3
2
3
8
9
10
8
5
3
-1
-1
-1
0
-1
-4
-7
-9
-13
-13
-15
-14
-14
-13
-15
-17
-18
-20
-21
-21
-22
-18
-20
-21
-23
-25
-26
-23
-21
-19
-19
-22
-23
-23
-25
-23
-21
-19
-18
-20
-23
-25
-23
-20
-18
-17
-14
-15
-18
-19
-18
-19
-18
-14
-10
-10
-10
-10
-9
-9
-6
-4
1
1
-1
-8
-14
-16
-24
-27
-30
-27
-25
-22
-23
-22
-21
-18
-16
-12
-12
-14
-15
-15
-18
-16
-14
-12
-12
-14
-17
-19
-19
-19
-19
-19
-18
-23
-26
-32
-47
-66
-96
-131
-163
-197
-231
-253
-262
-247
-218
-180
-145
-118
-95
-76
-54
-48
-25
-18
-16
-11
-11
-11
-13
-13
-12
-10
-7
-7
-5
-6
-7
-8
-7
-8
-5
-3
0
-2
-2
-3
-5
-3
0
5
7
5
7
7
6
7
11
14
17
19
20
17
17
15
18
19
23
23
21
17
15
14
11
10
11
13
9
4
2
-2
-3
-1
0
2
0
-3
-5
-7
-8
-7
-6
-4
-3
-4
-8
-7
-8
-9
-7
-6
-3
-1
-4
-5
-7
-7
-5
-5
-1
-1
-2
-1
-2
-3
-2
0
2
3
4
0
0
1
2
6
8
11
10
11
11
11
12
11
12
12
8
5
-4
-13
-13
-13
-5
-2
0
-1
0
-2
-3
-1
1
2
7
6
2
-2
-1
0
1
3
3
2
0
0
-3
-4
-3
-1
0
0
-5
-8
-20
-25
-62
-88
-114
-140
-169
-192
-207
-211
-198
-175
-150
-125
-103
-89
-75
-59
-42
-25
-10
-4
1
-1
1
-3
-4
0
5
4
8
8
7
3
3
2
4
7
9
9
10
8
7
4
6
8
10
13
12
10
10
12
11
13
17
18
20
18
20
17
20
23
25
27
28
28
24
21
21
21
22
22
22
21
18
12
10
8
9
9
10
9
7
5
0
-2
2
3
7
4
3
-1
-2
-2
-2
-2
0
1
1
0
-3
-4
-2
0
2
3
2
4
2
-1
-1
1
4
4
4
5
3
1
1
1
4
8
9
7
5
6
7
9
11
15
18
15
15
13
7
2
2
-1
-4
-4
-5
-3
-2
-1
3
4
6
7
7
7
6
6
5
6
7
10
9
7
4
4
3
4
8
6
6
6
3
1
0
-1
-1
-6
-18
-43
-74
-106
-117
-167
-184
-188
-176
-155
-128
-102
-80
-62
-42
-23
-7
-1
0
1
0
0
4
9
11
13
11
10
7
8
7
9
14
15
15
14
12
10
10
13
16
18
18
17
16
14
13
15
17
18
21
20
20
18
18
18
21
22
24
26
26
24
24
23
25
27
31
31
27
26
21
20
20
22
20
21
16
13
10
11
8
8
10
10
10
7
4
1
1
4
3
6
7
4
1
-1
-2
1
0
1
5
4
2
1
1
0
2
4
7
6
5
5
5
4
5
8
10
10
8
7
7
6
8
13
15
15
18
17
16
15
12
10
10
7
2
-4
-7
-7
-6
-2
1
7
7
8
4
1
3
3
7
9
11
8
7
4
3
4
4
6
8
7
5
3
-1
-1
0
-2
-1
-7
-24
-46
-71
-99
-126
-155
-179
-196
-206
-204
-189
-183
-138
-113
-92
-72
-56
-39
-26
-12
-6
-2
5
6
8
9
10
6
8
10
12
15
17
14
14
13
11
11
12
19
17
16
17
15
13
12
15
19
20
21
21
17
17
17
17
19
23
27
24
23
23
23
22
26
29
32
34
31
31
28
29
29
31
33
32
30
28
25
24
22
21
22
20
18
14
15
14
9
9
11
11
8
8
5
5
3
3
6
6
7
6
3
1
1
2
4
5
5
5
4
1
1
1
2
7
8
10
9
7
4
5
7
8
12
11
9
9
7
8
10
13
15
19
18
20
19
19
16
15
10
7
3
-4
-6
-7
-4
0
2
5
8
7
7
3
5
5
7
7
9
9
6
5
3
2
3
5
5
2
1
-1
-4
-7
-8
-10
-18
-36
-65
-96
-127
-161
-188
-210
-226
-231
-223
-203
-181
-173
-129
-105
-81
-56
-32
-17
-4
-1
-1
1
5
9
11
10
8
5
8
8
11
13
14
15
11
11
9
9
12
13
16
15
13
13
13
12
13
16
18
21
18
18
17
16
17
21
24
27
28
27
23
21
26
29
31
35
33
34
32
29
28
31
29
33
31
27
24
19
17
18
16
18
19
15
10
9
7
6
6
9
7
9
5
1
1
-1
0
2
3
4
3
1
0
-2
-1
-2
0
2
3
2
0
-1
-2
0
0
3
5
3
0
1
1
1
3
5
8
6
4
3
4
6
9
12
17
19
16
15
14
13
12
8
4
-2
-9
-14
-12
-9
-4
0
2
3
2
1
-1
0
1
1
4
7
5
3
-1
-1
-3
-1
-1
0
0
-3
-8
-7
-13
-12
-21
-36
-65
-105
-146
-184
-218
-237
-234
-212
-182
-152
-127
-109
-102
-72
-50
-29
-13
-3
-5
-4
-4
-4
-1
3
6
7
7
6
3
3
3
5
8
8
8
8
4
5
5
6
7
9
10
9
8
5
5
8
9
13
14
12
12
11
12
13
17
19
22
23
21
23
23
21
23
25
26
27
24
20
17
16
18
17
18
18
12
12
9
6
6
5
6
9
5
3
0
-1
-3
-1
-2
1
3
-1
-4
-5
-7
-7
-4
-1
-1
0
-3
-6
-6
-7
-4
-3
0
-2
-2
-3
-3
-5
-1
0
4
4
3
-2
0
0
0
0
3
4
2
3
2
3
5
7
11
14
15
13
7
5
3
-1
-3
-6
-8
-10
-9
-8
-7
-4
-3
-1
2
2
-1
-2
-3
-3
-1
1
2
1
-2
-2
-3
-5
-4
-2
-1
-1
-3
-4
-11
-18
-33
-57
-85
-115
-147
-176
-199
-204
-192
-167
-138
-112
-93
-76
-59
-53
-26
-13
-7
-3
-5
-5
-6
-5
-6
-4
0
3
3
3
3
0
-1
0
2
4
5
5
3
1
0
-1
1
4
7
9
7
6
3
4
5
7
11
14
12
12
11
11
12
12
15
17
18
16
15
13
12
14
15
15
16
12
8
7
2
3
3
2
3
0
-3
-5
-8
-7
-6
-5
-5
-5
-7
-9
-11
-11
-9
-8
-7
-5
-7
-9
-13
-14
-12
-9
-8
-7
-7
-8
-9
-11
-11
-8
-5
-4
-2
-3
-7
-8
-7
-7
-4
0
0
-2
-3
-5
-4
-2
2
5
8
9
8
6
1
0
-5
-4
-8
-12
-13
-16
-15
-10
-8
-5
-3
-1
-1
-4
-4
-4
-4
-3
-3
-3
-4
-4
-5
-10
-9
-6
-5
-5
-4
-8
-9
-11
-14
-11
-10
-15
-22
-43
-70
-102
-135
-162
-188
-201
-201
-187
-162
-136
-117
-94
-77
-55
-35
-22
-17
-15
-14
-16
-14
-8
-6
-4
-5
-6
-7
-9
-6
-4
-3
-1
-3
-4
-6
-8
-7
-5
-2
-1
-1
-2
-4
-4
-5
-3
-1
2
5
2
0
0
0
2
3
8
11
11
10
11
11
8
12
14
15
15
14
10
8
7
9
7
8
8
5
0
-2
-3
-1
-3
0
-3
-4
-8
-8
-10
-12
-10
-7
-7
-9
-11
-13
-14
-15
-11
-12
-11
-9
-12
-13
-16
-17
-19
-15
-14
-11
-11
-15
-14
-15
-15
-12
-12
-9
-8
-10
-11
-12
-14
-11
-10
-7
-6
-8
-7
-11
-9
-9
-4
0
0
1
0
0
1
-2
-1
-2
-5
-9
-14
-22
-24
-26
-21
-18
-13
-10
-11
-12
-13
-15
-13
-11
-9
-7
-8
-10
-14
-13
-14
-14
-13
-10
-11
-14
-16
-17
-21
-20
-17
-18
-22
-31
-45
-70
-101
-130
-157
-187
-212
-233
-241
-239
-221
-194
-165
-138
-115
-97
-81
-62
-56
-35
-27
-21
-20
-18
-16
-16
-15
-17
-16
-12
-10
-10
-10
-11
-12
-14
-13
-11
-9
-6
-5
-6
-10
-9
-11
-10
-8
-5
-2
-6
-7
-9
-9
-7
-5
-3
1
0
0
-2
-2
1
0
5
10
8
9
7
6
5
6
7
10
9
8
8
7
5
6
7
8
10
10
7
1
-5
-9
-13
-16
-18
-23
-29
-29
-30
-28
-23
-19
-16
-13
-16
-18
-20
-20
-20
-18
-19
-16
-16
-17
-22
-20
-22
-21
-18
-18
-18
-18
-20
-22
-22
-23
-19
-19
-18
-21
-23
-25
-27
-28
-35
-48
-74
-108
-148
-188
-227
-254
-264
-254
-226
-194
-161
-138
-131
-88
-63
-41
-26
-21
-25
-26
-25
-24
-24
-22
-19
-18
-15
-18
-19
-20
-20
-18
-16
-15
-14
-15
-17
-18
-20
-18
-16
-13
-11
-13
-13
-14
-16
-13
-11
-9
-5
-6
-5
-7
-9
-7
-3
-2
1
3
-1
-1
-1
-4
-4
-4
-4
-4
-8
-11
-16
-18
-18
-20
-21
-20
-23
-27
-28
-33
-32
-31
-30
-27
-28
-28
-30
-31
-29
-29
-25
-24
-27
-26
-28
-33
-35
-30
-25
-19
-21
-22
-26
-33
-34
-33
-29
-28
-25
-23
-24
-28
-29
-34
-33
-32
-30
-28
-32
-33
-36
-38
-37
-36
-36
-38
-43
-52
-68
-95
-123
-154
-185
-212
-241
-261
-265
-262
-227
-197
-165
-140
-118
-98
-80
-58
-50
-42
-39
-34
-33
-31
-29
-33
-32
-31
-28
-27
-24
-25
-25
-26
-28
-30
-28
-27
-25
-22
-23
-24
-25
-26
-24
-22
-23
-19
-19
-20
-19
-18
-21
-16
-13
-13
-9
-12
-10
-11
-11
-9
-6
-6
-6
-6
-10
-10
-13
-17
-14
-14
-14
-16
-18
-23
-27
-28
-28
-29
-26
-27
-29
-31
-33
-35
-36
-35
-33
-34
-34
-36
-39
-40
-39
-38
-35
-35
-35
-37
-37
-40
-39
-35
-34
-33
-31
-31
-32
-32
-35
-33
-30
-27
-25
-27
-30
-32
-34
-31
-31
-29
-28
-28
-29
-31
-33
-34
-34
-32
-29
-29
-29
-32
-33
-34
-34
-33
-32
-28
-29
-31
-34
-35
-34
-31
-30
-29
-29
-31
-32
-34
-34
-33
-31
-30
-27
-30
-31
-32
-33
-30
-28
-23
-23
-23
-22
-25
-26
-27
-25
-26
-25
-24
-27
-26
-27
-25
-26
-26
-27
-29
-28
-30
-29
-33
-33
-30
-32
-26
-29
-32
-33
-36
-37
-37
-44
-57
-80
-110
-139
-172
-199
-222
-231
-227
-209
-187
-165
-157
-122
-102
-84
-64
-48
-41
-38
-37
-36
-36
-31
-29
-26
-26
-25
-28
-29
-30
-27
-25
-24
-24
-23
-26
-27
-28
-29
-24
-24
-22
-21
-22
-25
-24
-24
-23
-22
-18
-16
-17
-17
-17
-19
-17
-14
-10
-10
-9
-12
-11
-13
-12
-10
-9
-8
-11
-13
-15
-16
-19
-18
-18
-17
-17
-21
-27
-28
-30
-31
-29
-27
-28
-29
-33
-35
-38
-36
-36
-35
-33
-37
-38
-38
-40
-41
-40
-37
-36
-36
-37
-39
-41
-41
-39
-37
-37
-35
-34
-36
-35
-37
-36
-33
-32
-28
-31
-31
-34
-34
-35
-33
-30
-29
-29
-31
-34
-36
-37
-36
-35
-32
-32
-34
-36
-37
-38
-39
-37
-34
-32
-35
-36
-40
-42
-40
-40
-38
-37
-38
-36
-38
-40
-40
-36
-32
-29
-26
-27
-28
-29
-31
-31
-31
-34
-36
-41
-46
-51
-50
-51
-46
-42
-38
-37
-40
-39
-42
-40
-41
-38
-34
-34
-35
-37
-37
-41
-41
-41
-40
-36
-36
-40
-44
-45
-45
-44
-44
-52
-67
-92
-124
-155
-186
-212
-233
-246
-244
-229
-206
-199
-156
-133
-114
-93
-74
-58
-50
-45
-48
-48
-43
-39
-37
-36
-37
-37
-39
-41
-38
-34
-33
-31
-32
-34
-37
-37
-37
-35
-32
-29
-30
-33
-33
-36
-34
-32
-28
-26
-26
-27
-29
-29
-29
-27
-25
-20
-18
-17
-18
-20
-20
-19
-16
-14
-10
-11
-18
-16
-19
-20
-19
-20
-19
-22
-22
-27
-30
-32
-32
-32
-32
-31
-36
-36
-38
-41
-43
-41
-39
-39
-38
-38
-44
-45
-45
-45
-43
-43
-39
-41
-43
-45
-44
-43
-41
-37
-35
-38
-37
-38
-40
-40
-38
-36
-33
-35
-37
-38
-38
-38
-37
-36
-31
-32
-36
-38
-39
-39
-37
-36
-34
-32
-31
-30
-31
-31
-28
-26
-24
-24
-28
-33
-40
-46
-50
-51
-49
-42
-37
-38
-39
-40
-42
-41
-38
-35
-30
-34
-35
-36
-40
-38
-36
-34
-32
-36
-37
-39
-42
-42
-42
-39
-37
-39
-42
-45
-50
-58
-68
-86
-112
-140
-173
-209
-221
-266
-273
-258
-232
-196
-168
-145
-128
-110
-88
-67
-50
-43
-40
-41
-41
-42
-40
-39
-36
-33
-32
-34
-35
-36
-35
-35
-33
-32
-29
-29
-33
-33
-33
-35
-33
-31
-29
-27
-30
-31
-33
-32
-31
-29
-26
-24
-24
-24
-26
-26
-26
-21
-17
-16
-17
-17
-17
-19
-20
-18
-16
-13
-16
-20
-24
-25
-27
-27
-28
-29
-28
-32
-32
-33
-39
-39
-39
-38
-38
-38
-41
-44
-45
-46
-46
-45
-42
-42
-46
-49
-49
-51
-49
-47
-44
-44
-46
-46
-47
-50
-49
-46
-46
-42
-43
-43
-45
-47
-48
-45
-41
-39
-40
-40
-44
-46
-47
-44
-45
-41
-37
-40
-41
-42
-41
-37
-35
-33
-29
-29
-31
-34
-37
-43
-43
-47
-51
-54
-57
-57
-56
-55
-51
-49
-47
-44
-46
-45
-46
-49
-44
-45
-42
-42
-43
-46
-47
-49
-50
-48
-45
-45
-45
-48
-50
-52
-54
-56
-59
-68
-84
-109
-143
-154
-211
-241
-266
-281
-279
-265
-240
-208
-184
-159
-138
-117
-94
-76
-62
-57
-54
-54
-52
-48
-47
-43
-42
-43
-45
-45
-44
-43
-39
-38
-37
-41
-42
-44
-43
-42
-39
-38
-37
-39
-40
-42
-41
-40
-38
-34
-33
-35
-36
-35
-37
-37
-33
-29
-26
-25
-25
-26
-27
-28
-25
-22
-20
-19
-22
-23
-26
-27
-26
-25
-26
-26
-30
-32
-35
-38
-39
-40
-38
-38
-40
-43
-47
-49
-49
-51
-49
-48
-47
-51
-54
-55
-57
-54
-55
-52
-52
-52
-55
-54
-56
-56
-55
-51
-48
-49
-51
-52
-53
-52
-51
-46
-48
-46
-46
-48
-51
-49
-49
-47
-46
-44
-45
-46
-44
-46
-46
-44
-41
-38
-36
-33
-36
-37
-39
-42
-45
-50
-57
-60
-61
-60
-58
-53
-49
-47
-46
-47
-49
-50
-50
-50
-48
-45
-46
-45
-46
-49
-50
-51
-48
-47
-47
-45
-48
-49
-52
-53
-56
-61
-69
-88
-112
-143
-151
-204
-229
-249
-256
-253
-238
-215
-189
-163
-141
-118
-95
-73
-60
-55
-53
-54
-53
-51
-46
-44
-42
-43
-44
-46
-48
-48
-45
-44
-41
-41
-42
-44
-44
-45
-46
-43
-40
-39
-42
-43
-42
-44
-43
-42
-36
-36
-36
-37
-38
-39
-38
-37
-34
-32
-30
-29
-31
-33
-33
-30
-29
-27
-26
-28
-31
-33
-35
-36
-37
-38
-36
-39
-44
-45
-47
-49
-50
-47
-48
-49
-50
-53
-55
-55
-56
-55
-53
-50
-53
-52
-55
-56
-56
-56
-54
-53
-54
-55
-55
-57
-58
-54
-54
-50
-51
-51
-55
-54
-55
-54
-50
-49
-50
-48
-50
-52
-53
-53
-51
-49
-46
-49
-47
-49
-47
-48
-43
-40
-38
-38
-40
-47
-51
-55
-58
-61
-61
-63
-60
-56
-57
-58
-55
-55
-52
-49
-50
-52
-54
-52
-54
-54
-51
-49
-49
-50
-52
-53
-55
-54
-54
-54
-51
-53
-53
-57
-60
-62
-74
-97
-128
-162
-199
-211
-248
-247
-234
-207
-177
-152
-135
-117
-100
-82
-68
-57
-54
-53
-53
-56
-55
-56
-53
-50
-47
-47
-48
-49
-50
-52
-53
-51
-47
-45
-46
-47
-48
-50
-50
-49
-47
-46
-45
-46
-46
-48
-49
-49
-46
-42
-41
-41
-40
-40
-44
-42
-38
-35
-34
-34
-35
-36
-41
-39
-39
-37
-36
-36
-38
-41
-44
-46
-47
-45
-45
-47
-50
-52
-55
-58
-58
-58
-57
-53
-56
-57
-61
-62
-63
-63
-59
-59
-57
-60
-63
-65
-65
-64
-62
-60
-60
-61
-61
-63
-63
-62
-59
-57
-54
-54
-53
-56
-57
-60
-58
-56
-55
-53
-56
-54
-55
-57
-57
-54
-53
-49
-48
-48
-50
-51
-49
-44
-41
-42
-44
-49
-54
-60
-64
-69
-66
-63
-59
-57
-59
-58
-59
-58
-57
-52
-48
-51
-52
-53
-58
-57
-56
-53
-54
-52
-53
-57
-57
-60
-60
-56
-57
-57
-61
-70
-88
-111
-137
-163
-188
-215
-237
-258
-264
-264
-249
-226
-198
-173
-152
-136
-119
-101
-82
-67
-58
-56
-53
-54
-54
-53
-53
-53
-51
-50
-45
-46
-47
-48
-49
-49
-49
-46
-44
-44
-44
-46
-47
-50
-47
-44
-43
-41
-41
-41
-44
-43
-42
-40
-38
-36
-33
-36
-37
-36
-36
-34
-29
-28
-27
-26
-28
-30
-32
-32
-28
-29
-24
-29
-32
-35
-40
-41
-41
-41
-41
-44
-45
-46
-52
-52
-52
-51
-50
-50
-52
-54
-56
-58
-56
-56
-53
-52
-54
-57
-58
-61
-57
-59
-58
-55
-55
-56
-57
-59
-59
-59
-57
-54
-52
-52
-54
-55
-57
-57
-55
-52
-50
-53
-54
-54
-57
-56
-53
-51
-50
-50
-52
-53
-51
-49
-44
-41
-38
-38
-40
-43
-46
-49
-53
-54
-59
-63
-65
-66
-63
-62
-58
-56
-50
-50
-49
-51
-51
-52
-54
-52
-50
-47
-49
-50
-51
-55
-56
-54
-52
-52
-51
-52
-56
-57
-57
-59
-59
-57
-64
-75
-98
-108
-169
-207
-241
-267
-283
-279
-262
-236
-207
-183
-160
-137
-116
-93
-77
-65
-62
-61
-61
-57
-53
-49
-49
-50
-50
-53
-53
-50
-47
-45
-45
-46
-47
-49
-51
-48
-48
-46
-43
-44
-46
-48
-49
-46
-46
-43
-40
-41
-41
-42
-43
-42
-40
-36
-33
-30
-31
-33
-34
-32
-30
-29
-28
-26
-27
-31
-32
-34
-35
-34
-35
-34
-37
-40
-42
-49
-49
-50
-48
-47
-47
-50
-52
-54
-56
-55
-52
-52
-51
-53
-57
-57
-59
-60
-55
-58
-55
-54
-57
-56
-60
-60
-59
-56
-55
-54
-53
-56
-55
-57
-57
-57
-52
-48
-50
-49
-51
-54
-52
-50
-49
-47
-49
-49
-49
-50
-48
-46
-43
-40
-36
-38
-39
-42
-46
-47
-50
-55
-58
-64
-68
-68
-62
-62
-60
-55
-53
-54
-51
-52
-55
-54
-54
-52
-49
-50
-51
-54
-56
-58
-57
-57
-54
-53
-53
-57
-58
-62
-64
-65
-72
-86
-111
-140
-151
-208
-240
-264
-280
-286
-273
-254
-224
-196
-171
-151
-128
-105
-86
-71
-65
-64
-63
-61
-58
-55
-49
-51
-50
-52
-52
-54
-49
-50
-47
-44
-45
-47
-49
-48
-49
-48
-44
-43
-43
-46
-47
-48
-46
-46
-41
-42
-40
-42
-42
-43
-43
-40
-36
-31
-31
-33
-32
-34
-34
-33
-31
-28
-26
-27
-30
-34
-35
-38
-37
-36
-35
-40
-43
-46
-49
-52
-50
-49
-51
-50
-54
-55
-57
-57
-58
-56
-54
-52
-54
-57
-61
-60
-61
-59
-56
-54
-55
-56
-57
-58
-58
-57
-55
-52
-50
-52
-52
-54
-55
-53
-53
-51
-46
-49
-51
-53
-55
-56
-52
-49
-44
-42
-44
-45
-43
-44
-45
-44
-48
-51
-59
-67
-69
-67
-63
-59
-54
-51
-52
-55
-55
-55
-55
-52
-49
-50
-49
-52
-54
-55
-56
-57
-55
-54
-53
-53
-56
-57
-61
-60
-59
-60
-62
-74
-94
-121
-150
-179
-210
-233
-252
-256
-245
-239
-198
-173
-151
-132
-112
-92
-76
-66
-63
-61
-62
-60
-55
-52
-52
-53
-54
-55
-56
-55
-51
-50
-49
-51
-50
-53
-54
-54
-52
-50
-49
-49
-52
-51
-53
-54
-49
-47
-48
-47
-50
-49
-49
-48
-48
-45
-43
-40
-42
-44
-45
-42
-43
-39
-38
-34
-35
-37
-39
-42
-40
-38
-37
-39
-40
-43
-45
-48
-50
-50
-47
-50
-50
-53
-55
-57
-59
-57
-58
-57
-57
-59
-61
-62
-62
-63
-62
-59
-58
-59
-59
-63
-65
-65
-64
-63
-60
-57
-60
-60
-63
-63
-62
-59
-57
-55
-55
-56
-58
-58
-59
-56
-54
-52
-53
-57
-58
-58
-54
-52
-47
-47
-45
-45
-45
-53
-56
-58
-58
-63
-66
-68
-68
-67
-66
-63
-61
-57
-55
-56
-57
-59
-60
-61
-60
-57
-57
-55
-58
-58
-62
-62
-62
-63
-59
-60
-63
-65
-67
-78
-91
-116
-145
-177
-210
-239
-257
-262
-249
-228
-201
-175
-154
-138
-133
-107
-93
-78
-71
-67
-64
-66
-65
-65
-64
-62
-61
-60
-58
-58
-57
-58
-60
-60
-58
-57
-55
-56
-54
-55
-58
-60
-58
-56
-55
-51
-54
-54
-55
-56
-54
-51
-49
-46
-45
-47
-47
-49
-49
-47
-44
-41
-38
-40
-42
-39
-41
-40
-38
-39
-37
-39
-40
-42
-45
-44
-44
-45
-44
-47
-49
-53
-54
-58
-57
-56
-57
-56
-59
-58
-62
-63
-64
-62
-61
-60
-60
-64
-68
-66
-68
-67
-65
-63
-64
-67
-66
-70
-69
-67
-64
-62
-60
-62
-63
-66
-66
-66
-62
-61
-58
-60
-62
-63
-62
-59
-60
-58
-56
-54
-55
-55
-55
-54
-50
-49
-46
-45
-51
-52
-64
-70
-75
-73
-70
-65
-63
-63
-64
-64
-64
-62
-60
-57
-58
-62
-61
-63
-63
-64
-62
-62
-61
-64
-64
-67
-68
-70
-69
-71
-77
-92
-115
-138
-164
-189
-215
-241
-262
-277
-279
-269
-247
-220
-192
-166
-144
-119
-103
-96
-76
-71
-68
-66
-63
-61
-59
-60
-60
-60
-60
-57
-56
-55
-54
-57
-55
-57
-60
-58
-55
-54
-52
-54
-55
-57
-58
-55
-53
-51
-49
-50
-50
-51
-53
-52
-48
-46
-43
-41
-43
-43
-43
-45
-40
-39
-36
-35
-35
-35
-40
-41
-40
-38
-38
-39
-42
-45
-47
-52
-53
-52
-54
-53
-54
-56
-58
-61
-62
-63
-62
-61
-61
-65
-64
-67
-69
-67
-65
-63
-62
-65
-66
-66
-70
-71
-68
-67
-66
-65
-65
-67
-70
-69
-68
-64
-62
-61
-63
-64
-65
-65
-63
-61
-59
-58
-60
-61
-63
-63
-62
-58
-54
-51
-51
-51
-48
-50
-54
-56
-57
-61
-66
-73
-75
-78
-76
-71
-65
-64
-61
-63
-63
-64
-64
-63
-64
-62
-60
-60
-62
-65
-64
-67
-67
-65
-62
-63
-65
-66
-67
-71
-71
-71
-70
-73
-86
-108
-137
-169
-202
-233
-263
-284
-291
-286
-262
-231
-200
-170
-148
-131
-110
-93
-87
-74
-73
-70
-69
-65
-62
-60
-60
-62
-64
-63
-60
-61
-56
-58
-58
-58
-61
-62
-60
-59
-55
-56
-55
-55
-58
-58
-60
-57
-54
-53
-52
-50
-53
-54
-54
-51
-48
-44
-43
-43
-44
-46
-43
-40
-39
-37
-35
-38
-38
-42
-45
-45
-44
-44
-43
-48
-49
-52
-54
-57
-56
-56
-55
-54
-57
-62
-64
-67
-67
-65
-62
-63
-64
-65
-69
-72
-71
-71
-68
-67
-69
-70
-71
-73
-73
-72
-68
-67
-68
-68
-70
-72
-71
-71
-67
-66
-67
-67
-66
-66
-68
-65
-65
-63
-61
-63
-62
-64
-62
-62
-58
-54
-52
-47
-49
-50
-54
-59
-61
-62
-67
-69
-75
-77
-80
-79
-73
-71
-67
-65
-65
-67
-68
-71
-70
-66
-65
-65
-61
-64
-68
-68
-70
-69
-66
-65
-63
-66
-67
-71
-73
-73
-73
-73
-79
-94
-119
-149
-178
-207
-237
-262
-279
-277
-264
-243
-215
-192
-168
-149
-126
-108
-89
-84
-73
-73
-72
-69
-65
-61
-61
-61
-62
-64
-64
-61
-59
-59
-57
-59
-60
-60
-64
-60
-58
-56
-54
-57
-58
-57
-59
-57
-56
-53
-51
-50
-52
-51
-53
-53
-51
-48
-44
-41
-41
-44
-46
-45
-43
-40
-39
-37
-40
-39
-42
-45
-46
-45
-46
-44
-46
-50
-53
-57
-60
-58
-58
-56
-58
-58
-62
-65
-64
-64
-65
-64
-64
-65
-65
-68
-71
-69
-68
-65
-64
-66
-65
-65
-69
-69
-66
-64
-61
-60
-62
-64
-66
-66
-63
-61
-60
-56
-57
-59
-59
-60
-57
-54
-51
-49
-46
-48
-51
-54
-57
-60
-65
-68
-71
-72
-70
-68
-67
-63
-60
-59
-58
-59
-58
-60
-65
-61
-62
-61
-59
-61
-61
-64
-66
-66
-66
-64
-61
-60
-63
-66
-65
-72
-80
-94
-113
-136
-160
-168
-217
-241
-252
-255
-248
-230
-209
-186
-166
-147
-129
-108
-88
-72
-66
-66
-66
-68
-67
-64
-61
-58
-54
-56
-57
-58
-59
-61
-58
-56
-55
-55
-56
-55
-59
-58
-56
-55
-52
-50
-51
-52
-54
-56
-55
-51
-49
-45
-47
-48
-49
-52
-48
-46
-43
-40
-37
-42
-42
-42
-43
-42
-39
-38
-40
-40
-42
-46
-49
-47
-48
-48
-48
-52
-51
-59
-60
-60
-60
-60
-58
-57
-61
-63
-66
-66
-65
-63
-63
-62
-62
-66
-67
-69
-69
-68
-65
-63
-63
-65
-67
-68
-67
-66
-64
-62
-61
-64
-64
-65
-66
-66
-62
-61
-60
-59
-62
-64
-63
-60
-57
-52
-51
-49
-50
-51
-53
-57
-59
-58
-62
-68
-72
-76
-74
-73
-68
-64
-61
-60
-60
-63
-64
-64
-64
-61
-60
-57
-59
-60
-63
-66
-64
-63
-61
-61
-63
-63
-67
-65
-67
-66
-65
-67
-76
-92
-123
-157
-189
-220
-247
-261
-260
-244
-236
-188
-162
-141
-123
-99
-82
-72
-68
-67
-69
-67
-65
-62
-59
-56
-56
-59
-61
-62
-59
-57
-57
-53
-55
-56
-57
-58
-59
-57
-53
-53
-49
-53
-52
-55
-57
-53
-51
-49
-47
-48
-46
-48
-49
-47
-43
-40
-40
-38
-39
-40
-39
-40
-37
-36
-33
-34
-37
-42
-42
-44
-45
-44
-44
-45
-49
-51
-53
-57
-57
-55
-55
-52
-56
-55
-59
-61
-61
-62
-60
-58
-60
-59
-63
-63
-66
-64
-62
-61
-61
-63
-64
-64
-66
-64
-64
-59
-60
-59
-60
-63
-63
-62
-60
-59
-55
-55
-56
-58
-59
-60
-58
-55
-51
-49
-49
-49
-50
-48
-47
-46
-47
-49
-52
-55
-63
-67
-70
-72
-69
-65
-64
-61
-62
-63
-62
-61
-58
-53
-53
-55
-57
-60
-58
-59
-60
-56
-56
-57
-58
-61
-62
-64
-63
-60
-60
-60
-62
-69
-78
-92
-113
-139
-166
-195
-228
-255
-275
-280
-268
-245
-217
-187
-167
-160
-135
-117
-99
-82
-68
-62
-61
-61
-60
-62
-60
-58
-55
-52
-51
-52
-52
-54
-56
-53
-53
-50
-47
-50
-50
-55
-54
-53
-51
-47
-47
-45
-48
-48
-49
-51
-47
-46
-44
-41
-42
-40
-40
-39
-38
-34
-32
-27
-29
-30
-29
-31
-31
-29
-26
-27
-27
-29
-31
-35
-36
-35
-36
-34
-37
-40
-42
-46
-48
-48
-50
-49
-48
-50
-52
-54
-57
-58
-56
-56
-53
-54
-55
-56
-58
-59
-59
-56
-57
-55
-54
-58
-60
-60
-61
-58
-57
-53
-56
-58
-57
-59
-58
-55
-54
-51
-51
-52
-52
-59
-58
-56
-53
-50
-49
-52
-52
-52
-50
-49
-46
-41
-40
-39
-40
-43
-46
-49
-52
-56
-60
-64
-67
-68
-64
-63
-61
-56
-54
-52
-53
-52
-54
-56
-57
-54
-53
-50
-53
-52
-57
-59
-59
-59
-58
-57
-57
-58
-63
-62
-64
-67
-71
-81
-99
-124
-156
-188
-219
-248
-271
-279
-275
-256
-248
-202
-176
-153
-128
-104
-80
-66
-61
-60
-62
-62
-59
-56
-52
-51
-52
-54
-54
-55
-54
-54
-52
-48
-50
-52
-50
-51
-52
-52
-48
-46
-46
-47
-48
-50
-51
-48
-45
-44
-41
-43
-42
-43
-44
-43
-42
-37
-33
-33
-32
-35
-36
-36
-33
-31
-29
-28
-32
-33
-37
-39
-40
-41
-38
-40
-45
-46
-49
-54
-54
-54
-54
-50
-54
-56
-58
-60
-63
-61
-59
-59
-57
-60
-61
-64
-66
-62
-62
-61
-61
-62
-62
-65
-65
-67
-62
-61
-58
-60
-60
-62
-63
-64
-62
-59
-58
-57
-57
-59
-60
-61
-59
-56
-56
-55
-55
-50
-52
-53
-51
-47
-44
-43
-46
-49
-54
-61
-65
-69
-70
-73
-69
-67
-67
-65
-63
-63
-61
-59
-56
-58
-57
-61
-63
-64
-62
-59
-58
-57
-58
-62
-63
-65
-64
-64
-62
-63
-63
-66
-70
-76
-82
-98
-121
-148
-180
-213
-245
-269
-282
-279
-260
-233
-206
-198
-163
-148
-128
-108
-88
-74
-65
-67
-66
-67
-66
-62
-60
-57
-53
-54
-55
-57
-58
-57
-56
-53
-53
-51
-51
-54
-55
-56
-55
-52
-51
-49
-48
-49
-50
-51
-51
-48
-44
-42
-42
-41
-42
-44
-41
-39
-36
-37
-33
-34
-35
-37
-37
-36
-35
-33
-33
-39
-41
-42
-46
-47
-47
-47
-47
-52
-52
-56
-58
-59
-58
-57
-55
-56
-57
-61
-64
-63
-63
-64
-60
-61
-61
-62
-64
-65
-62
-61
-57
-57
-58
-58
-62
-61
-61
-61
-57
-54
-54
-55
-57
-59
-60
-58
-55
-51
-51
-53
-54
-52
-55
-52
-50
-48
-43
-42
-42
-46
-49
-51
-54
-57
-59
-65
-69
-68
-68
-64
-61
-58
-57
-53
-56
-55
-57
-61
-58
-56
-57
-53
-55
-56
-57
-60
-61
-58
-57
-57
-56
-57
-60
-63
-66
-70
-81
-101
-124
-151
-183
-213
-238
-248
-254
-245
-224
-205
-185
-164
-149
-132
-116
-99
-78
-68
-65
-62
-63
-64
-60
-57
-54
-53
-54
-54
-56
-57
-56
-54
-50
-50
-49
-50
-53
-53
-54
-53
-49
-46
-46
-47
-49
-48
-53
-48
-46
-45
-44
-42
-43
-43
-45
-44
-40
-39
-37
-34
-36
-37
-38
-38
-36
-35
-32
-35
-36
-43
-43
-46
-47
-46
-46
-50
-52
-54
-58
-59
-60
-58
-59
-57
-58
-59
-61
-65
-64
-64
-61
-59
-60
-62
-62
-65
-65
-63
-61
-61
-59
-60
-61
-62
-63
-61
-61
-57
-55
-58
-57
-59
-60
-61
-56
-56
-54
-55
-56
-55
-57
-59
-57
-53
-51
-47
-50
-50
-50
-52
-52
-53
-57
-58
-65
-69
-74
-73
-69
-66
-61
-57
-57
-58
-61
-61
-60
-60
-58
-55
-56
-57
-59
-62
-64
-62
-59
-60
-58
-59
-61
-63
-67
-66
-65
-64
-63
-62
-62
-79
-98
-125
-152
-184
-211
-236
-250
-252
-239
-218
-189
-162
-137
-116
-99
-83
-75
-70
-70
-67
-64
-64
-59
-60
-63
-63
-63
-62
-59
-56
-54
-56
-56
-59
-60
-58
-59
-55
-53
-54
-53
-56
-60
-59
-58
-53
-52
-51
-50
-54
-53
-53
-52
-50
-45
-43
-43
-44
-45
-45
-43
-41
-39
-35
-36
-36
-41
-45
-44
-43
-43
-43
-43
-45
-50
-53
-56
-56
-56
-53
-54
-58
-59
-60
-62
-63
-62
-63
-60
-61
-61
-64
-67
-66
-65
-64
-63
-64
-63
-65
-68
-70
-69
-66
-63
-60
-64
-63
-65
-67
-65
-63
-59
-57
-58
-58
-62
-64
-63
-63
-59
-56
-57
-57
-59
-61
-58
-55
-52
-48
-45
-46
-49
-54
-59
-62
-65
-67
-69
-71
-72
-73
-71
-69
-64
-62
-58
-59
-58
-60
-64
-65
-61
-62
-58
-58
-61
-63
-65
-65
-64
-66
-62
-62
-63
-65
-70
-77
-85
-102
-123
-154
-186
-197
-248
-270
-281
-275
-256
-232
-204
-182
-163
-151
-135
-115
-97
-81
-71
-69
-69
-69
-70
-69
-66
-62
-60
-59
-60
-60
-61
-61
-60
-59
-57
-54
-57
-57
-60
-60
-58
-58
-54
-53
-54
-53
-55
-56
-55
-55
-51
-52
-47
-48
-50
-50
-50
-47
-45
-40
-39
-38
-39
-42
-43
-42
-41
-36
-35
-36
-37
-40
-42
-44
-45
-44
-43
-45
-47
-51
-54
-58
-57
-58
-56
-56
-61
-61
-63
-66
-66
-63
-64
-63
-65
-66
-66
-70
-70
-70
-68
-66
-64
-65
-67
-68
-70
-69
-66
-65
-62
-65
-64
-65
-67
-66
-65
-62
-61
-63
-61
-64
-67
-64
-61
-60
-59
-57
-56
-60
-60
-61
-57
-54
-52
-48
-48
-48
-52
-55
-59
-64
-65
-72
-74
-75
-73
-69
-69
-65
-65
-60
-61
-60
-62
-64
-66
-64
-64
-62
-60
-62
-64
-67
-69
-68
-67
-67
-66
-67
-69
-70
-75
-80
-87
-102
-123
-149
-159
-209
-238
-264
-284
-289
-280
-256
-227
-199
-176
-158
-135
-113
-94
-77
-70
-69
-69
-68
-68
-66
-61
-59
-59
-58
-58
-61
-62
-61
-57
-56
-53
-55
-57
-57
-57
-58
-56
-55
-53
-54
-54
-56
-56
-54
-56
-54
-50
-48
-49
-50
-52
-52
-48
-46
-43
-41
-41
-42
-42
-42
-42
-39
-35
-35
-34
-33
-37
-39
-40
-39
-40
-38
-39
-41
-46
-49
-53
-53
-54
-53
-51
-54
-56
-59
-64
-63
-64
-62
-58
-59
-61
-62
-65
-68
-67
-65
-63
-63
-64
-66
-68
-71
-69
-64
-65
-59
-62
-64
-66
-66
-67
-64
-62
-61
-60
-60
-63
-64
-63
-63
-60
-58
-56
-55
-60
-62
-62
-60
-58
-54
-51
-49
-51
-52
-51
-51
-50
-51
-55
-60
-65
-74
-78
-78
-74
-69
-64
-61
-60
-59
-60
-62
-59
-56
-53
-50
-52
-53
-56
-54
-44
-23
8
45
83
116
141
161
179
191
198
190
169
160
100
68
39
11
-15
-41
-59
-70
-77
-82
-86
-88
-92
-94
-92
-93
-98
-101
-106
-109
-107
-108
-111
-108
-107
-115
-120
-124
-124
-125
-127
-128
-131
-135
-141
-146
-149
-153
-156
-159
-165
-168
-177
-184
-192
-192
-196
-200
-202
-203
-207
-210
-209
-209
-205
-201
-198
-193
-191
-187
-182
-176
-169
-159
-151
-143
-139
-134
-127
-123
-114
-106
-101
-95
-93
-91
-91
-88
-85
-80
-78
-76
-73
-74
-76
-77
-78
-77
-74
-73
-70
-75
-78
-79
-82
-80
-81
-79
-78
-79
-82
-84
-85
-85
-81
-79
-78
-78
-78
-80
-79
-79
-76
-75
-72
-70
-69
-69
-71
-70
-69
-67
-65
-60
-58
-61
-60
-57
-56
-49
-49
-48
-50
-53
-58
-63
-69
-73
-74
-70
-64
-64
-62
-64
-64
-62
-59
-58
-53
-54
-57
-58
-60
-60
-58
-57
-56
-57
-59
-60
-62
-63
-63
-62
-61
-63
-74
-88
-113
-141
-170
-197
-226
-246
-252
-257
-243
-218
-190
-169
-145
-129
-110
-94
-81
-73
-69
-65
-59
-58
-56
-57
-58
-58
-58
-54
-54
-52
-50
-51
-53
-54
-55
-54
-53
-50
-49
-48
-48
-51
-52
-50
-48
-47
-44
-42
-44
-45
-45
-46
-44
-39
-37
-35
-35
-36
-34
-34
-32
-30
-29
-26
-26
-27
-28
-30
-32
-32
-32
-30
-29
-36
-39
-44
-46
-47
-47
-49
-47
-48
-53
-55
-59
-58
-58
-56
-56
-57
-58
-61
-63
-64
-63
-60
-61
-56
-60
-63
-65
-64
-63
-63
-60
-58
-57
-58
-60
-61
-60
-59
-55
-51
-53
-55
-55
-57
-57
-56
-52
-52
-50
-53
-54
-54
-54
-50
-47
-45
-44
-43
-44
-47
-53
-55
-60
-63
-67
-67
-66
-63
-63
-61
-60
-60
-56
-53
-55
-56
-58
-60
-58
-56
-55
-54
-53
-58
-60
-64
-60
-62
-58
-57
-59
-60
-64
-65
-71
-79
-94
-114
-141
-172
-205
-235
-254
-257
-245
-224
-199
-190
-154
-135
-116
-98
-80
-68
-63
-65
-66
-64
-65
-64
-61
-59
-57
-56
-56
-58
-61
-61
-60
-57
-54
-54
-54
-54
-56
-58
-58
-56
-55
-53
-51
-52
-55
-56
-58
-55
-52
-49
-49
-51
-49
-50
-52
-51
-47
-46
-42
-41
-43
-44
-45
-43
-40
-36
-33
-34
-34
-34
-38
-36
-38
-40
-44
-49
-55
-66
-69
-71
-71
-68
-64
-62
-61
-61
-64
-62
-62
-60
-57
-56
-58
-58
-61
-63
-63
-64
-61
-60
-59
-60
-62
-65
-68
-66
-65
-62
-61
-61
-63
-64
-66
-65
-64
-63
-62
-61
-63
-64
-65
-66
-65
-65
-65
-71
-84
-109
-139
-170
-201
-230
-253
-265
-267
-249
-228
-204
-181
-161
-139
-122
-105
-90
-79
-74
-72
-67
-66
-62
-58
-60
-60
-61
-62
-60
-57
-56
-55
-54
-56
-56
-59
-59
-56
-54
-51
-53
-55
-55
-56
-57
-54
-51
-48
-47
-48
-48
-51
-51
-49
-44
-41
-40
-39
-40
-41
-44
-41
-39
-36
-33
-35
-37
-40
-41
-43
-43
-43
-43
-43
-46
-48
-53
-56
-57
-56
-55
-57
-57
-59
-63
-65
-67
-66
-64
-63
-63
-64
-64
-66
-66
-63
-61
-58
-56
-58
-63
-66
-68
-63
-58
-53
-49
-50
-57
-61
-66
-64
-61
-57
-53
-53
-55
-59
-61
-61
-61
-60
-58
-58
-60
-61
-68
-70
-67
-65
-64
-64
-63
-70
-73
-80
-93
-114
-140
-173
-206
-241
-266
-279
-278
-260
-231
-202
-176
-157
-140
-126
-106
-87
-74
-68
-65
-64
-64
-63
-64
-62
-62
-58
-56
-54
-55
-57
-58
-58
-58
-57
-55
-53
-53
-55
-58
-57
-58
-55
-54
-51
-50
-52
-51
-53
-51
-50
-48
-46
-43
-44
-46
-44
-44
-39
-40
-34
-33
-35
-36
-38
-39
-39
-41
-42
-40
-41
-44
-49
-53
-55
-56
-53
-54
-55
-58
-60
-64
-64
-66
-63
-63
-62
-64
-65
-67
-69
-71
-67
-66
-64
-63
-66
-69
-72
-71
-68
-65
-65
-63
-65
-68
-66
-66
-66
-63
-62
-61
-62
-62
-65
-65
-64
-64
-60
-59
-58
-62
-62
-66
-66
-65
-63
-60
-61
-63
-66
-67
-67
-67
-65
-61
-62
-63
-64
-66
-67
-67
-67
-63
-63
-64
-64
-66
-67
-70
-67
-65
-63
-63
-66
-68
-67
-69
-66
-66
-64
-61
-63
-64
-67
-68
-64
-63
-63
-60
-58
-59
-59
-61
-59
-57
-56
-56
-57
-60
-65
-67
-68
-66
-64
-66
-64
-65
-67
-67
-69
-66
-68
-64
-63
-64
-65
-68
-70
-70
-70
-69
-68
-74
-86
-108
-140
-174
-210
-242
-270
-288
-293
-281
-256
-229
-198
-173
-150
-131
-123
-95
-82
-75
-71
-69
-65
-63
-59
-59
-62
-61
-60
-60
-57
-53
-52
-54
-56
-57
-58
-58
-55
-54
-51
-50
-53
-56
-58
-57
-54
-52
-51
-48
-49
-51
-52
-50
-48
-46
-43
-38
-37
-39
-41
-40
-41
-36
-36
-31
-32
-35
-37
-38
-40
-38
-40
-40
-41
-42
-48
-51
-54
-54
-55
-54
-56
-57
-63
-64
-65
-65
-63
-64
-62
-61
-65
-68
-68
-70
-68
-66
-63
-66
-68
-69
-69
-72
-70
-68
-64
-64
-63
-63
-66
-66
-64
-63
-61
-58
-59
-60
-61
-62
-61
-61
-59
-55
-57
-57
-59
-62
-63
-62
-59
-60
-58
-60
-62
-63
-66
-66
-62
-60
-61
-60
-62
-64
-66
-67
-66
-62
-62
-59
-60
-61
-62
-64
-59
-54
-49
-47
-49
-48
-49
-51
-54
-54
-56
-60
-61
-70
-76
-75
-72
-67
-65
-63
-60
-61
-62
-63
-63
-61
-60
-57
-58
-60
-60
-63
-65
-64
-63
-62
-59
-60
-63
-65
-67
-68
-69
-68
-72
-86
-108
-142
-177
-215
-247
-271
-274
-261
-232
-200
-176
-153
-135
-116
-93
-76
-72
-64
-64
-67
-63
-60
-57
-54
-54
-56
-57
-58
-58
-57
-54
-54
-52
-52
-53
-57
-57
-58
-55
-53
-53
-52
-51
-53
-54
-55
-52
-48
-48
-45
-45
-46
-48
-49
-47
-42
-42
-37
-37
-39
-38
-42
-42
-38
-38
-36
-36
-40
-43
-46
-48
-50
-48
-47
-48
-49
-53
-58
-60
-59
-57
-56
-57
-57
-58
-61
-62
-63
-62
-62
-60
-60
-62
-65
-66
-65
-64
-65
-62
-62
-63
-64
-65
-65
-65
-63
-61
-58
-59
-61
-62
-63
-61
-58
-57
-54
-52
-55
-56
-59
-60
-59
-56
-53
-54
-56
-58
-60
-61
-60
-59
-55
-56
-56
-57
-60
-60
-59
-58
-56
-53
-52
-51
-53
-52
-50
-47
-46
-45
-47
-50
-56
-65
-70
-72
-71
-66
-61
-60
-60
-62
-61
-62
-57
-54
-55
-54
-54
-57
-59
-58
-59
-59
-56
-55
-56
-59
-61
-63
-62
-60
-58
-57
-57
-60
-65
-69
-78
-93
-112
-134
-142
-184
-212
-236
-253
-256
-242
-218
-190
-163
-144
-128
-111
-91
-72
-60
-54
-55
-55
-56
-56
-54
-54
-47
-47
-45
-46
-50
-50
-52
-51
-49
-46
-45
-45
-46
-48
-50
-50
-46
-45
-44
-46
-44
-46
-47
-47
-44
-40
-38
-37
-38
-40
-41
-40
-36
-33
-32
-31
-32
-34
-36
-39
-39
-40
-38
-38
-42
-45
-47
-50
-51
-53
-52
-50
-51
-53
-55
-59
-61
-61
-60
-57
-58
-58
-62
-61
-64
-62
-61
-59
-58
-58
-61
-62
-64
-63
-62
-58
-58
-57
-58
-61
-64
-63
-60
-57
-53
-53
-54
-57
-58
-60
-59
-58
-56
-53
-53
-53
-56
-57
-57
-56
-54
-52
-51
-54
-56
-56
-55
-55
-50
-48
-45
-44
-44
-47
-48
-49
-49
-53
-55
-57
-64
-66
-70
-68
-66
-61
-55
-56
-55
-58
-60
-59
-57
-55
-54
-54
-53
-56
-57
-60
-59
-58
-57
-56
-56
-59
-60
-63
-63
-61
-62
-60
-61
-74
-90
-113
-137
-160
-187
-211
-236
-251
-258
-249
-231
-207
-183
-158
-138
-126
-108
-93
-80
-70
-63
-60
-58
-57
-55
-56
-55
-56
-54
-53
-51
-49
-50
-51
-53
-53
-53
-51
-49
-45
-49
-49
-49
-49
-50
-49
-45
-43
-42
-43
-43
-44
-46
-43
-42
-39
-34
-35
-35
-38
-37
-35
-34
-31
-29
-31
-31
-35
-36
-37
-39
-38
-35
-35
-38
-41
-44
-48
-49
-48
-49
-49
-49
-54
-56
-58
-58
-56
-56
-53
-57
-57
-59
-60
-61
-62
-60
-59
-57
-61
-61
-65
-64
-63
-60
-57
-57
-58
-58
-59
-61
-62
-57
-56
-54
-54
-55
-56
-57
-59
-58
-55
-54
-54
-57
-57
-59
-61
-58
-56
-54
-54
-56
-56
-56
-60
-56
-53
-50
-45
-45
-46
-46
-51
-53
-57
-60
-64
-66
-71
-71
-68
-65
-61
-61
-60
-57
-56
-57
-58
-61
-59
-59
-56
-54
-55
-58
-59
-61
-62
-61
-58
-59
-57
-59
-62
-62
-67
-69
-68
-70
-77
-95
-122
-155
-188
-221
-248
-272
-283
-275
-255
-226
-196
-168
-142
-119
-96
-89
-68
-66
-67
-68
-65
-61
-56
-55
-57
-56
-54
-55
-56
-55
-51
-51
-49
-52
-53
-55
-54
-52
-50
-48
-48
-48
-50
-51
-53
-52
-48
-46
-46
-47
-46
-46
-46
-46
-44
-41
-38
-37
-38
-38
-38
-38
-36
-33
-31
-29
-32
-33
-37
-36
-39
-36
-38
-37
-39
-43
-47
-51
-51
-52
-50
-47
-51
-54
-57
-58
-60
-59
-57
-56
-54
-58
-60
-64
-63
-62
-61
-61
-60
-60
-62
-64
-66
-64
-61
-59
-56
-59
-58
-59
-61
-60
-58
-58
-54
-54
-56
-56
-57
-60
-58
-56
-54
-51
-52
-57
-58
-59
-60
-57
-57
-53
-53
-54
-54
-55
-50
-43
-36
-32
-29
-26
-24
-23
-26
-27
-26
-20
-8
9
32
65
103
141
171
194
209
212
212
208
203
197
192
188
180
176
125
79
28
-17
-45
-63
-73
-78
-84
-90
-96
-100
-104
-105
-106
-106
-110
-114
-118
-124
-124
-126
-127
-129
-129
-135
-141
-147
-151
-153
-156
-159
-161
-166
-173
-180
-186
-190
-195
-198
-205
-209
-216
-222
-227
-232
-233
-234
-237
-238
-242
-242
-245
-242
-237
-231
-225
-222
-220
-214
-213
-207
-200
-192
-182
-174
-167
-161
-156
-151
-143
-136
-126
-117
-114
-110
-109
-107
-104
-97
-96
-89
-86
-88
-87
-89
-90
-87
-86
-84
-80
-81
-84
-83
-87
-84
-84
-83
-83
-82
-81
-80
-84
-85
-84
-81
-76
-74
-73
-74
-76
-77
-76
-73
-70
-67
-69
-69
-70
-70
-72
-68
-66
-65
-63
-66
-65
-66
-68
-65
-64
-63
-62
-63
-64
-65
-67
-67
-65
-62
-58
-60
-61
-60
-60
-59
-55
-50
-48
-46
-45
-47
-53
-58
-65
-69
-72
-69
-67
-67
-65
-65
-64
-61
-59
-56
-57
-56
-58
-61
-63
-60
-59
-59
-57
-57
-59
-62
-64
-64
-62
-63
-61
-63
-66
-72
-82
-96
-122
-152
-183
-217
-251
-275
-281
-267
-240
-209
-186
-179
-150
-132
-112
-92
-78
-69
-62
-60
-62
-60
-60
-61
-59
-58
-55
-53
-53
-53
-55
-58
-58
-55
-51
-51
-49
-52
-53
-53
-55
-55
-52
-48
-48
-48
-47
-51
-50
-48
-47
-43
-41
-40
-39
-40
-41
-38
-36
-32
-30
-29
-28
-29
-28
-29
-27
-25
-24
-23
-24
-27
-29
-32
-33
-36
-34
-36
-39
-42
-46
-49
-51
-51
-49
-49
-51
-51
-55
-56
-59
-57
-56
-56
-55
-56
-57
-60
-61
-64
-64
-60
-57
-58
-58
-58
-61
-61
-59
-54
-53
-52
-54
-53
-54
-55
-54
-51
-51
-49
-49
-51
-51
-53
-54
-52
-50
-49
-47
-48
-48
-48
-49
-47
-44
-40
-38
-42
-46
-49
-53
-56
-62
-66
-69
-71
-70
-66
-65
-58
-50
-40
-30
-27
-23
-20
-17
-8
9
34
68
80
138
163
176
186
193
195
195
192
184
180
172
161
146
120
87
50
11
-24
-50
-68
-76
-81
-83
-86
-85
-93
-97
-102
-106
-107
-107
-107
-109
-112
-113
-118
-123
-125
-127
-128
-130
-132
-138
-143
-149
-154
-157
-160
-162
-164
-174
-180
-187
-193
-196
-199
-204
-206
-212
-214
-220
-224
-225
-227
-223
-222
-219
-221
-220
-219
-217
-210
-205
-197
-194
-187
-182
-180
-174
-167
-159
-151
-145
-141
-133
-132
-128
-123
-117
-111
-105
-102
-101
-99
-97
-96
-92
-88
-86
-85
-85
-84
-85
-88
-87
-85
-82
-81
-80
-80
-83
-85
-87
-84
-84
-79
-77
-79
-81
-81
-82
-80
-76
-74
-72
-73
-72
-71
-75
-74
-71
-67
-65
-67
-68
-68
-72
-69
-65
-65
-64
-63
-63
-65
-68
-68
-67
-64
-61
-59
-58
-57
-58
-58
-55
-51
-50
-49
-53
-60
-66
-72
-75
-73
-67
-64
-60
-59
-62
-63
-63
-61
-58
-55
-55
-56
-57
-59
-63
-61
-61
-57
-56
-57
-58
-61
-66
-66
-64
-62
-62
-61
-63
-68
-76
-91
-108
-131
-157
-166
-213
-238
-253
-253
-238
-212
-183
-158
-137
-119
-102
-86
-74
-69
-65
-63
-62
-61
-61
-63
-63
-60
-59
-56
-55
-56
-57
-58
-61
-59
-56
-53
-52
-52
-53
-55
-55
-56
-53
-51
-50
-49
-50
-51
-55
-54
-51
-48
-46
-46
-43
-43
-43
-42
-42
-39
-36
-30
-29
-29
-31
-31
-33
-32
-28
-28
-26
-29
-32
-34
-40
-39
-39
-41
-40
-42
-46
-51
-55
-56
-55
-53
-53
-56
-56
-59
-61
-62
-61
-60
-58
-57
-59
-62
-65
-65
-65
-65
-60
-61
-61
-61
-63
-65
-66
-62
-58
-57
-56
-58
-57
-59
-57
-58
-55
-51
-49
-50
-52
-54
-57
-56
-53
-51
-50
-49
-51
-51
-51
-48
-45
-43
-41
-42
-45
-53
-58
-61
-66
-68
-68
-66
-63
-64
-64
-63
-62
-60
-58
-57
-59
-61
-62
-59
-56
-50
-40
-33
-29
-25
-26
-20
-11
8
36
67
104
137
154
158
152
135
112
85
77
28
-1
-29
-49
-63
-67
-67
-68
-69
-76
-80
-85
-86
-85
-86
-86
-86
-89
-93
-96
-99
-98
-96
-98
-97
-99
-102
-106
-110
-110
-112
-114
-113
-117
-122
-126
-132
-135
-139
-142
-144
-148
-151
-158
-162
-169
-171
-174
-174
-174
-176
-180
-184
-184
-184
-179
-173
-169
-166
-163
-160
-158
-151
-145
-136
-129
-123
-117
-113
-110
-107
-103
-95
-92
-89
-86
-83
-83
-83
-79
-79
-75
-73
-74
-73
-74
-77
-77
-76
-74
-72
-71
-73
-76
-80
-80
-80
-79
-75
-76
-77
-77
-79
-79
-80
-76
-74
-72
-71
-71
-73
-75
-73
-72
-68
-68
-65
-67
-66
-69
-69
-67
-64
-62
-60
-56
-56
-57
-54
-54
-51
-49
-48
-51
-57
-66
-71
-75
-74
-69
-66
-59
-60
-59
-63
-64
-61
-59
-56
-55
-59
-60
-60
-61
-62
-60
-58
-57
-58
-59
-62
-64
-66
-66
-66
-66
-64
-70
-82
-102
-126
-155
-178
-205
-212
-255
-271
-270
-254
-220
-187
-157
-134
-118
-100
-84
-73
-67
-65
-63
-56
-56
-55
-58
-59
-59
-58
-55
-53
-53
-51
-53
-55
-56
-57
-54
-52
-50
-48
-50
-52
-53
-54
-53
-51
-47
-47
-48
-46
-47
-48
-46
-42
-43
-42
-37
-39
-39
-38
-37
-35
-30
-29
-27
-29
-31
-34
-33
-34
-34
-34
-33
-39
-43
-47
-50
-52
-51
-52
-52
-54
-56
-59
-60
-63
-61
-61
-60
-59
-59
-62
-65
-68
-69
-65
-62
-61
-62
-63
-65
-66
-67
-64
-58
-59
-59
-59
-61
-60
-59
-58
-57
-54
-53
-54
-56
-59
-58
-56
-54
-54
-52
-53
-55
-55
-56
-55
-51
-48
-46
-44
-45
-47
-50
-54
-56
-58
-63
-65
-70
-69
-71
-68
-65
-62
-59
-59
-61
-60
-62
-65
-63
-64
-58
-57
-50
-50
-46
-43
-38
-33
-26
-21
-15
-6
9
24
52
88
121
148
159
155
134
106
76
51
27
4
-3
-39
-55
-66
-73
-73
-75
-75
-76
-77
-82
-86
-90
-91
-90
-91
-89
-89
-91
-92
-96
-100
-99
-99
-99
-98
-101
-104
-108
-112
-113
-115
-115
-117
-118
-124
-130
-134
-139
-141
-144
-144
-147
-153
-157
-162
-168
-171
-171
-174
-173
-174
-176
-179
-182
-179
-176
-173
-167
-163
-161
-157
-154
-152
-145
-138
-129
-126
-122
-119
-115
-112
-107
-102
-96
-94
-89
-86
-87
-86
-86
-84
-82
-77
-74
-78
-79
-82
-81
-79
-78
-77
-76
-78
-79
-81
-85
-85
-84
-81
-80
-78
-81
-82
-83
-83
-80
-78
-75
-75
-75
-76
-78
-76
-74
-72
-71
-66
-69
-68
-70
-70
-69
-66
-63
-62
-60
-58
-57
-57
-58
-57
-58
-59
-64
-70
-77
-80
-79
-73
-68
-63
-65
-64
-64
-64
-67
-65
-63
-62
-60
-58
-61
-64
-66
-65
-64
-63
-61
-62
-65
-68
-69
-71
-72
-71
-75
-82
-96
-117
-146
-172
-198
-226
-247
-254
-264
-252
-226
-201
-176
-155
-135
-116
-96
-80
-72
-68
-69
-69
-65
-62
-59
-57
-57
-60
-61
-60
-59
-57
-57
-55
-57
-58
-59
-60
-59
-56
-54
-53
-55
-56
-59
-56
-56
-54
-52
-49
-50
-52
-52
-52
-50
-47
-45
-43
-37
-39
-42
-42
-40
-38
-34
-32
-31
-30
-31
-32
-34
-31
-32
-31
-28
-33
-36
-40
-43
-44
-46
-46
-47
-47
-50
-53
-57
-57
-60
-57
-58
-56
-61
-63
-63
-66
-64
-64
-62
-62
-64
-65
-67
-70
-69
-68
-64
-63
-64
-65
-69
-69
-69
-65
-64
-62
-61
-63
-61
-62
-62
-62
-59
-57
-53
-53
-54
-58
-60
-59
-57
-53
-52
-48
-48
-49
-49
-48
-48
-51
-52
-54
-61
-68
-75
-78
-72
-68
-64
-60
-60
-63
-65
-66
-66
-65
-65
-64
-62
-63
-60
-57
-58
-48
-42
-34
-31
-26
-23
-20
-13
5
35
69
106
134
146
146
127
103
75
45
35
-13
-39
-58
-69
-73
-74
-73
-75
-76
-80
-83
-87
-90
-89
-88
-89
-88
-91
-93
-95
-100
-99
-99
-98
-100
-101
-104
-108
-110
-113
-113
-115
-114
-115
-122
-123
-128
-133
-137
-139
-140
-145
-150
-156
-162
-167
-169
-174
-173
-174
-173
-176
-176
-178
-175
-170
-165
-159
-157
-153
-149
-147
-142
-136
-130
-122
-115
-111
-107
-105
-101
-99
-92
-88
-86
-80
-80
-80
-80
-80
-78
-74
-72
-69
-72
-71
-72
-72
-74
-71
-70
-68
-72
-69
-73
-77
-77
-78
-74
-73
-72
-74
-75
-76
-77
-77
-73
-71
-69
-70
-72
-74
-73
-73
-71
-67
-65
-63
-64
-67
-66
-64
-62
-59
-56
-52
-51
-52
-52
-52
-49
-46
-44
-45
-49
-55
-60
-65
-68
-70
-70
-64
-61
-59
-58
-61
-59
-59
-56
-55
-50
-53
-54
-56
-58
-55
-52
-55
-54
-54
-57
-57
-60
-58
-58
-58
-56
-56
-60
-65
-77
-94
-117
-141
-149
-191
-221
-242
-251
-246
-224
-196
-172
-150
-137
-122
-109
-92
-75
-66
-58
-57
-57
-57
-58
-57
-56
-54
-51
-48
-48
-47
-51
-51
-54
-52
-49
-47
-45
-46
-47
-50
-48
-47
-47
-46
-44
-42
-43
-45
-47
-45
-43
-40
-38
-35
-37
-37
-37
-38
-34
-32
-27
-26
-26
-26
-26
-29
-30
-29
-28
-26
-26
-29
-34
-38
-37
-40
-39
-40
-43
-45
-49
-53
-54
-55
-56
-52
-52
-55
-58
-59
-62
-62
-59
-59
-57
-57
-59
-61
-64
-62
-62
-60
-59
-56
-56
-57
-59
-58
-57
-55
-52
-49
-51
-51
-52
-53
-51
-49
-48
-44
-44
-46
-49
-50
-49
-47
-43
-42
-39
-39
-40
-42
-44
-46
-47
-49
-50
-56
-60
-66
-64
-61
-57
-53
-52
-54
-54
-57
-56
-54
-50
-44
-40
-32
-29
-27
-26
-26
-21
-14
-1
15
32
52
81
108
132
151
166
176
176
165
143
116
89
65
42
34
-12
-42
-61
-72
-77
-77
-77
-79
-81
-85
-87
-92
-96
-94
-97
-97
-95
-98
-101
-105
-111
-113
-114
-113
-114
-118
-120
-125
-131
-134
-139
-141
-144
-147
-151
-157
-162
-168
-171
-174
-177
-178
-181
-188
-195
-194
-197
-193
-189
-186
-182
-181
-176
-174
-169
-163
-153
-146
-139
-134
-132
-126
-121
-114
-110
-104
-98
-95
-91
-90
-88
-90
-85
-81
-80
-75
-77
-77
-79
-81
-78
-76
-74
-75
-76
-78
-77
-80
-80
-78
-76
-75
-75
-77
-78
-81
-79
-79
-76
-75
-71
-73
-75
-76
-75
-72
-73
-69
-67
-67
-67
-68
-69
-66
-66
-59
-54
-54
-53
-55
-53
-55
-55
-54
-55
-58
-62
-69
-74
-76
-73
-70
-65
-62
-60
-60
-61
-61
-61
-59
-56
-56
-54
-57
-57
-62
-63
-60
-58
-57
-56
-58
-60
-63
-67
-64
-64
-63
-66
-81
-103
-130
-163
-194
-222
-246
-260
-265
-255
-232
-206
-183
-159
-140
-134
-102
-87
-75
-67
-69
-65
-63
-58
-56
-54
-56
-58
-59
-59
-54
-52
-52
-49
-51
-53
-54
-54
-55
-52
-51
-47
-48
-51
-51
-51
-51
-49
-47
-46
-46
-43
-44
-47
-45
-42
-35
-35
-35
-34
-35
-34
-33
-31
-27
-26
-23
-23
-25
-27
-27
-28
-25
-23
-22
-26
-29
-34
-35
-37
-38
-37
-41
-42
-44
-48
-51
-55
-56
-54
-55
-54
-56
-57
-63
-64
-64
-61
-60
-60
-59
-62
-63
-64
-65
-63
-62
-60
-59
-59
-59
-63
-62
-61
-58
-56
-53
-54
-54
-55
-56
-55
-53
-51
-48
-46
-49
-50
-50
-49
-45
-42
-42
-40
-40
-39
-42
-44
-48
-51
-52
-62
-68
-73
-74
-72
-69
-64
-60
-56
-53
-49
-44
-39
-32
-27
-23
-17
-12
-4
8
21
47
80
118
129
176
190
199
201
202
201
200
194
189
178
167
151
131
107
78
48
13
-20
-47
-67
-78
-84
-87
-90
-91
-95
-99
-101
-106
-110
-112
-114
-113
-114
-117
-123
-128
-132
-136
-135
-137
-138
-141
-147
-153
-158
-164
-166
-171
-172
-178
-184
-188
-198
-202
-207
-207
-211
-211
-215
-219
-225
-229
-228
-229
-223
-225
-223
-224
-225
-221
-219
-213
-207
-205
-195
-191
-185
-181
-173
-166
-159
-149
-139
-134
-129
-126
-122
-116
-108
-100
-97
-93
-91
-90
-89
-88
-84
-82
-82
-78
-78
-80
-79
-79
-82
-80
-76
-74
-74
-75
-77
-80
-81
-79
-76
-75
-74
-77
-78
-79
-80
-79
-76
-76
-70
-71
-72
-75
-73
-73
-71
-69
-66
-66
-65
-67
-66
-66
-61
-56
-55
-52
-52
-51
-50
-47
-45
-43
-44
-48
-53
-60
-68
-74
-73
-68
-60
-52
-54
-55
-57
-58
-56
-54
-51
-50
-49
-52
-51
-55
-56
-57
-54
-55
-53
-55
-53
-57
-62
-61
-60
-60
-61
-74
-96
-127
-164
-200
-232
-257
-268
-269
-250
-222
-195
-169
-149
-127
-121
-86
-71
-62
-58
-58
-58
-52
-50
-47
-44
-46
-46
-49
-48
-45
-45
-41
-39
-42
-42
-44
-46
-45
-42
-42
-39
-39
-38
-41
-42
-43
-39
-36
-35
-36
-34
-36
-34
-34
-33
-29
-26
-24
-24
-22
-20
-22
-18
-15
-13
-9
-10
-12
-12
-15
-16
-16
-15
-14
-16
-17
-22
-25
-29
-30
-30
-30
-31
-36
-39
-42
-44
-43
-41
-41
-38
-43
-43
-46
-49
-49
-48
-48
-48
-47
-47
-50
-53
-52
-51
-51
-48
-48
-46
-48
-49
-49
-48
-47
-46
-42
-42
-43
-43
-44
-42
-42
-36
-34
-35
-36
-36
-39
-38
-36
-30
-29
-28
-27
-27
-29
-32
-32
-33
-33
-39
-47
-52
-60
-65
-62
-57
-45
-35
-31
-26
-24
-20
-15
-9
2
16
40
69
100
133
159
179
191
194
204
198
194
187
181
178
171
160
141
106
66
22
-17
-43
-58
-65
-67
-73
-77
-84
-88
-93
-93
-95
-96
-94
-100
-101
-106
-110
-111
-114
-116
-119
-120
-126
-133
-138
-145
-147
-151
-154
-159
-167
-172
-180
-185
-189
-192
-193
-195
-199
-203
-207
-209
-209
-209
-205
-202
-199
-197
-196
-192
-187
-179
-171
-164
-159
-152
-150
-146
-139
-134
-126
-124
-113
-109
-105
-100
-100
-95
-90
-84
-81
-76
-77
-75
-77
-77
-74
-71
-69
-68
-69
-69
-72
-72
-72
-69
-70
-66
-67
-69
-70
-71
-71
-70
-68
-66
-63
-65
-65
-67
-66
-63
-59
-58
-55
-59
-58
-60
-61
-59
-57
-54
-53
-53
-57
-57
-56
-54
-53
-50
-49
-45
-44
-44
-44
-43
-39
-38
-40
-41
-46
-53
-59
-62
-62
-60
-58
-47
-49
-50
-50
-51
-51
-47
-45
-44
-43
-45
-48
-49
-49
-49
-49
-47
-46
-50
-49
-52
-53
-54
-51
-52
-47
-50
-51
-63
-79
-104
-134
-162
-192
-218
-234
-237
-224
-200
-169
-142
-120
-101
-85
-69
-58
-56
-53
-52
-50
-46
-45
-42
-46
-49
-47
-48
-43
-41
-42
-41
-45
-44
-44
-42
-40
-40
-39
-38
-41
-39
-42
-42
-39
-38
-31
-33
-34
-35
-35
-34
-30
-27
-26
-22
-23
-19
-22
-21
-20
-14
-14
-12
-15
-14
-16
-19
-20
-19
-19
-22
-23
-28
-31
-34
-37
-39
-37
-37
-38
-40
-42
-46
-46
-46
-45
-44
-44
-48
-46
-48
-52
-50
-49
-50
-48
-48
-48
-50
-51
-52
-50
-48
-47
-45
-46
-47
-49
-48
-46
-41
-40
-37
-37
-38
-40
-40
-41
-38
-36
-31
-31
-30
-31
-31
-33
-31
-32
-30
-34
-42
-47
-53
-58
-58
-56
-51
-47
-47
-47
-46
-48
-46
-46
-44
-39
-39
-41
-44
-48
-46
-47
-42
-40
-41
-43
-46
-48
-48
-47
-46
-46
-45
-49
-51
-60
-73
-91
-118
-126
-169
-199
-226
-247
-259
-252
-234
-206
-180
-157
-138
-123
-109
-89
-72
-56
-51
-48
-47
-48
-48
-47
-45
-46
-44
-41
-41
-42
-42
-45
-45
-42
-41
-38
-38
-40
-41
-41
-42
-42
-40
-38
-36
-38
-38
-38
-39
-38
-37
-34
-30
-31
-29
-34
-34
-32
-31
-27
-26
-23
-22
-24
-25
-28
-26
-24
-24
-23
-23
-28
-30
-33
-34
-33
-34
-34
-35
-38
-42
-44
-45
-43
-43
-43
-44
-46
-47
-48
-53
-51
-51
-47
-46
-47
-51
-54
-55
-54
-53
-52
-49
-49
-49
-50
-50
-51
-48
-45
-43
-41
-42
-43
-44
-44
-43
-39
-38
-36
-35
-37
-39
-42
-39
-37
-36
-32
-31
-30
-30
-31
-29
-28
-29
-29
-32
-40
-49
-57
-60
-58
-50
-46
-43
-43
-43
-44
-43
-42
-41
-41
-37
-37
-39
-41
-43
-43
-43
-42
-40
-40
-42
-44
-48
-49
-47
-45
-49
-52
-64
-82
-108
-138
-163
-186
-194
-232
-249
-259
-258
-244
-218
-190
-162
-137
-116
-100
-79
-65
-54
-47
-46
-44
-38
-40
-39
-39
-40
-41
-37
-36
-32
-30
-31
-35
-35
-37
-35
-33
-32
-30
-28
-32
-34
-35
-33
-31
-27
-26
-28
-29
-27
-31
-27
-28
-27
-22
-22
-20
-21
-22
-24
-20
-16
-14
-12
-12
-14
-16
-17
-17
-14
-11
-13
-15
-18
-21
-24
-27
-26
-25
-25
-27
-29
-34
-37
-39
-37
-34
-34
-34
-36
-38
-41
-44
-43
-40
-39
-39
-39
-41
-43
-45
-43
-42
-42
-41
-39
-40
-42
-43
-43
-41
-40
-38
-35
-34
-35
-36
-37
-35
-31
-30
-26
-29
-29
-29
-33
-32
-27
-26
-21
-20
-19
-22
-26
-27
-28
-32
-33
-34
-37
-38
-33
-24
-17
-7
-1
3
8
15
26
43
69
103
115
168
190
202
209
212
214
215
213
212
207
201
197
189
180
161
134
95
50
10
-24
-43
-56
-59
-63
-66
-66
-69
-74
-80
-84
-85
-88
-88
-88
-89
-91
-98
-102
-105
-107
-109
-109
-111
-114
-122
-127
-133
-135
-140
-141
-143
-148
-155
-161
-167
-171
-173
-176
-177
-179
-184
-189
-193
-198
-194
-194
-194
-192
-190
-189
-189
-187
-183
-177
-176
-162
-157
-153
-148
-143
-137
-128
-120
-114
-106
-101
-95
-94
-89
-84
-78
-73
-69
-66
-66
-64
-65
-63
-61
-61
-54
-52
-54
-56
-56
-58
-58
-55
-53
-53
-52
-55
-57
-58
-56
-56
-54
-53
-52
-53
-53
-56
-56
-52
-52
-48
-46
-47
-49
-52
-50
-49
-46
-42
-43
-41
-42
-43
-44
-43
-41
-37
-38
-37
-36
-38
-40
-38
-37
-36
-29
-27
-26
-28
-30
-28
-26
-26
-28
-28
-34
-39
-45
-47
-47
-41
-39
-33
-32
-32
-38
-37
-34
-33
-31
-28
-30
-33
-35
-34
-36
-36
-34
-33
-29
-33
-37
-38
-38
-37
-34
-37
-45
-63
-90
-121
-152
-180
-202
-209
-217
-205
-182
-159
-136
-118
-101
-82
-62
-47
-40
-38
-39
-40
-38
-33
-32
-29
-29
-29
-32
-32
-32
-33
-30
-24
-25
-25
-30
-31
-31
-28
-28
-27
-21
-23
-25
-27
-25
-25
-22
-20
-17
-17
-16
-21
-18
-17
-15
-14
-9
-8
-6
-9
-6
-8
-9
-6
-5
-3
-5
-9
-11
-12
-15
-15
-14
-13
-15
-18
-23
-26
-30
-28
-28
-28
-28
-29
-34
-38
-38
-39
-38
-35
-34
-37
-39
-40
-43
-40
-38
-37
-37
-37
-39
-42
-43
-42
-39
-39
-35
-35
-35
-36
-36
-37
-34
-32
-31
-27
-29
-28
-29
-29
-29
-28
-26
-25
-21
-23
-23
-24
-23
-20
-18
-17
-20
-23
-29
-38
-43
-47
-46
-41
-38
-35
-33
-37
-38
-38
-33
-31
-30
-28
-32
-33
-34
-35
-34
-33
-32
-31
-31
-35
-38
-39
-38
-37
-38
-37
-42
-50
-61
-80
-105
-129
-156
-180
-208
-228
-237
-230
-209
-177
-168
-119
-98
-82
-63
-49
-40
-38
-38
-36
-33
-31
-31
-32
-34
-32
-30
-28
-26
-27
-29
-30
-32
-31
-30
-28
-26
-25
-27
-27
-29
-28
-26
-25
-23
-22
-21
-23
-24
-27
-25
-20
-18
-16
-14
-15
-18
-18
-18
-13
-12
-11
-9
-11
-13
-16
-17
-17
-17
-17
-19
-19
-22
-27
-30
-31
-29
-29
-28
-30
-32
-35
-37
-36
-37
-38
-35
-35
-35
-38
-42
-41
-43
-39
-38
-38
-37
-41
-41
-43
-42
-41
-38
-35
-37
-36
-40
-38
-38
-36
-36
-31
-28
-31
-31
-33
-34
-31
-31
-29
-25
-24
-25
-25
-25
-22
-20
-19
-20
-20
-25
-31
-35
-43
-46
-47
-44
-41
-41
-39
-40
-39
-39
-34
-33
-28
-32
-33
-35
-34
-36
-34
-33
-32
-31
-33
-36
-37
-38
-38
-37
-36
-35
-40
-45
-51
-66
-87
-117
-150
-187
-220
-244
-254
-248
-224
-196
-163
-140
-119
-102
-87
-67
-53
-45
-42
-37
-35
-36
-35
-34
-33
-32
-31
-29
-29
-27
-29
-29
-30
-30
-30
-27
-25
-24
-25
-27
-30
-30
-27
-26
-23
-22
-24
-22
-25
-24
-23
-20
-18
-15
-15
-15
-18
-17
-15
-13
-10
-6
-7
-9
-9
-11
-11
-10
-11
-9
-10
-13
-16
-17
-21
-21
-23
-22
-23
-23
-26
-31
-35
-34
-34
-34
-33
-32
-36
-39
-40
-44
-39
-40
-37
-36
-39
-39
-43
-44
-43
-40
-39
-38
-38
-40
-41
-41
-41
-39
-35
-33
-31
-32
-34
-35
-34
-35
-33
-30
-31
-33
-34
-33
-31
-23
-15
-7
1
6
11
10
10
11
16
25
39
58
84
115
150
178
200
207
226
230
231
224
217
212
211
208
202
187
157
115
70
25
-9
-33
-44
-48
-53
-60
-65
-71
-74
-75
-77
-78
-78
-84
-89
-92
-97
-98
-99
-100
-100
-104
-109
-114
-122
-124
-126
-128
-132
-137
-140
-149
-154
-159
-162
-164
-168
-172
-179
-185
-191
-196
-197
-200
-201
-201
-202
-205
-205
-203
-202
-196
-191
-185
-179
-176
-172
-168
-165
-156
-153
-138
-131
-127
-125
-118
-114
-107
-98
-92
-85
-83
-78
-78
-76
-71
-66
-67
-62
-60
-60
-58
-61
-62
-59
-58
-55
-53
-56
-55
-57
-59
-58
-55
-53
-52
-54
-55
-58
-57
-55
-53
-50
-49
-49
-50
-52
-50
-48
-48
-47
-43
-42
-43
-44
-45
-46
-44
-43
-41
-39
-39
-40
-40
-41
-42
-38
-39
-36
-35
-37
-38
-40
-41
-39
-38
-35
-32
-34
-36
-36
-36
-32
-29
-26
-24
-21
-20
-24
-28
-33
-38
-42
-43
-43
-42
-41
-39
-37
-38
-37
-32
-30
-31
-30
-36
-36
-36
-34
-31
-33
-31
-35
-36
-37
-39
-36
-37
-35
-35
-38
-45
-58
-77
-100
-108
-145
-170
-195
-215
-221
-218
-197
-171
-143
-119
-101
-85
-67
-52
-44
-38
-37
-35
-32
-34
-34
-35
-36
-33
-34
-30
-28
-30
-31
-33
-33
-31
-29
-29
-28
-27
-29
-30
-31
-32
-29
-30
-29
-25
-24
-27
-30
-32
-29
-28
-22
-20
-20
-22
-23
-22
-19
-19
-17
-13
-11
-13
-13
-14
-14
-11
-12
-9
-6
-9
-13
-15
-18
-19
-17
-17
-17
-21
-25
-28
-31
-31
-31
-29
-30
-31
-32
-36
-36
-39
-41
-38
-36
-38
-39
-41
-44
-45
-45
-44
-40
-40
-42
-41
-46
-47
-45
-44
-41
-38
-38
-40
-40
-41
-41
-36
-33
-32
-33
-32
-32
-33
-35
-33
-33
-29
-26
-27
-27
-29
-30
-28
-25
-24
-20
-22
-26
-32
-37
-41
-45
-48
-48
-45
-42
-41
-43
-43
-41
-42
-37
-34
-35
-37
-40
-43
-40
-41
-39
-38
-38
-39
-41
-43
-46
-45
-44
-43
-42
-47
-59
-77
-103
-131
-141
-185
-211
-224
-226
-216
-195
-169
-145
-125
-103
-87
-73
-60
-52
-48
-49
-47
-43
-40
-41
-41
-41
-42
-42
-42
-37
-36
-36
-39
-40
-42
-40
-40
-39
-35
-36
-35
-38
-41
-40
-38
-36
-35
-32
-34
-33
-35
-35
-34
-33
-28
-26
-26
-27
-27
-28
-27
-25
-22
-21
-20
-23
-25
-28
-31
-30
-27
-28
-28
-31
-35
-37
-39
-38
-38
-37
-38
-40
-43
-44
-48
-47
-46
-47
-43
-43
-44
-46
-50
-51
-47
-48
-46
-46
-48
-49
-49
-49
-47
-48
-45
-42
-42
-43
-43
-47
-46
-40
-38
-36
-36
-38
-40
-40
-43
-40
-40
-37
-36
-39
-38
-40
-38
-36
-35
-31
-28
-26
-27
-30
-34
-37
-40
-43
-46
-51
-51
-54
-51
-46
-45
-43
-39
-39
-38
-38
-40
-44
-43
-42
-38
-39
-38
-41
-45
-47
-45
-44
-45
-42
-43
-47
-50
-56
-68
-82
-107
-135
-164
-193
-223
-245
-258
-250
-245
-205
-179
-153
-133
-118
-100
-79
-61
-49
-44
-41
-42
-43
-43
-43
-39
-39
-36
-35
-34
-38
-39
-39
-39
-38
-35
-33
-34
-33
-36
-37
-35
-35
-32
-31
-29
-31
-34
-32
-34
-34
-27
-26
-24
-24
-24
-24
-26
-23
-22
-18
-14
-13
-16
-18
-20
-22
-20
-19
-17
-18
-23
-26
-30
-33
-34
-33
-32
-33
-36
-39
-43
-43
-46
-45
-43
-40
-44
-46
-46
-50
-48
-48
-47
-47
-46
-48
-48
-50
-52
-50
-48
-48
-44
-44
-48
-49
-49
-50
-49
-45
-42
-42
-44
-45
-47
-43
-43
-39
-39
-37
-38
-42
-41
-42
-42
-39
-37
-34
-33
-36
-35
-36
-34
-32
-30
-29
-34
-39
-47
-54
-60
-59
-58
-53
-49
-49
-50
-48
-49
-48
-46
-42
-38
-40
-45
-47
-50
-47
-49
-42
-41
-41
-46
-48
-49
-51
-50
-47
-46
-46
-51
-53
-61
-73
-93
-121
-152
-184
-220
-247
-269
-273
-253
-243
-182
-153
-135
-120
-102
-84
-66
-55
-50
-47
-47
-46
-45
-48
-47
-43
-43
-41
-37
-38
-39
-41
-42
-42
-43
-38
-36
-36
-37
-39
-40
-38
-38
-37
-35
-34
-35
-35
-36
-37
-34
-31
-29
-27
-27
-25
-28
-28
-25
-24
-21
-18
-18
-20
-21
-25
-27
-27
-26
-24
-27
-31
-34
-36
-39
-40
-38
-37
-38
-39
-40
-43
-47
-47
-49
-45
-43
-43
-47
-48
-50
-49
-49
-50
-45
-46
-46
-48
-50
-52
-50
-48
-46
-43
-45
-46
-48
-47
-48
-47
-42
-39
-40
-40
-44
-45
-43
-41
-41
-37
-38
-39
-40
-40
-43
-43
-38
-36
-34
-32
-34
-32
-32
-31
-30
-29
-29
-33
-39
-44
-52
-57
-58
-53
-48
-44
-45
-46
-48
-46
-42
-42
-40
-38
-38
-41
-43
-44
-45
-44
-43
-40
-40
-42
-46
-47
-50
-47
-46
-44
-45
-48
-54
-67
-87
-110
-136
-159
-183
-208
-227
-236
-235
-220
-214
-174
-151
-134
-119
-109
-96
-81
-65
-54
-48
-45
-45
-47
-49
-46
-45
-42
-41
-39
-39
-39
-39
-43
-41
-41
-36
-35
-35
-37
-39
-41
-39
-38
-36
-36
-34
-36
-36
-36
-37
-34
-33
-29
-29
-29
-30
-31
-30
-30
-29
-22
-22
-21
-23
-23
-24
-24
-22
-20
-20
-20
-20
-24
-28
-29
-31
-30
-32
-31
-34
-39
-43
-44
-44
-45
-43
-43
-42
-45
-47
-48
-51
-49
-48
-47
-47
-49
-50
-53
-56
-54
-51
-49
-44
-46
-49
-52
-50
-48
-46
-44
-44
-41
-44
-46
-46
-48
-47
-45
-42
-41
-41
-43
-45
-44
-44
-44
-41
-39
-38
-39
-40
-39
-38
-38
-32
-32
-35
-41
-44
-52
-60
-60
-60
-56
-52
-50
-49
-51
-52
-50
-47
-46
-42
-43
-46
-48
-49
-49
-47
-47
-47
-46
-48
-51
-51
-51
-51
-50
-49
-50
-50
-53
-54
-59
-61
-68
-82
-107
-136
-169
-202
-230
-247
-250
-236
-207
-178
-150
-128
-109
-89
-72
-58
-51
-48
-50
-50
-51
-52
-45
-45
-43
-40
-42
-44
-45
-45
-44
-42
-40
-38
-36
-36
-37
-40
-41
-40
-39
-36
-34
-35
-37
-41
-40
-39
-37
-32
-30
-32
-31
-32
-35
-33
-32
-28
-25
-25
-25
-27
-27
-28
-26
-24
-22
-22
-25
-28
-31
-33
-35
-35
-34
-34
-37
-41
-41
-45
-47
-49
-45
-43
-43
-45
-50
-50
-51
-51
-48
-46
-46
-48
-49
-50
-54
-50
-51
-49
-47
-48
-47
-51
-51
-50
-49
-47
-44
-41
-44
-46
-46
-46
-44
-41
-40
-38
-39
-41
-40
-42
-41
-42
-38
-35
-33
-34
-34
-32
-32
-31
-28
-27
-29
-35
-41
-49
-55
-56
-56
-52
-46
-45
-45
-44
-45
-43
-43
-40
-36
-39
-39
-43
-43
-43
-43
-42
-41
-41
-42
-44
-48
-51
-49
-49
-47
-52
-62
-81
-106
-135
-159
-187
-214
-235
-254
-261
-258
-242
-215
-207
-165
-143
-129
-110
-97
-80
-65
-54
-49
-46
-43
-45
-43
-43
-44
-42
-40
-36
-35
-34
-38
-38
-41
-40
-38
-35
-33
-32
-32
-35
-37
-36
-36
-33
-29
-28
-29
-30
-30
-32
-30
-28
-25
-23
-22
-21
-22
-24
-21
-19
-18
-15
-9
-12
-14
-16
-19
-14
-13
-13
-13
-15
-18
-22
-25
-26
-26
-24
-26
-29
-32
-34
-39
-39
-38
-38
-37
-36
-39
-44
-45
-46
-47
-45
-44
-44
-46
-45
-48
-49
-47
-47
-47
-44
-44
-45
-46
-46
-47
-46
-43
-41
-37
-39
-40
-43
-42
-41
-39
-38
-36
-36
-39
-37
-38
-37
-35
-36
-31
-30
-30
-31
-32
-31
-29
-26
-23
-23
-29
-34
-40
-48
-51
-53
-53
-47
-45
-44
-45
-45
-42
-42
-40
-37
-36
-37
-39
-41
-43
-43
-39
-38
-37
-40
-41
-44
-46
-43
-45
-44
-42
-44
-50
-58
-70
-88
-113
-140
-168
-195
-223
-247
-263
-262
-258
-213
-177
-149
-127
-110
-89
-72
-55
-45
-42
-40
-42
-39
-39
-39
-40
-38
-34
-33
-34
-34
-35
-38
-36
-34
-33
-30
-29
-30
-32
-34
-35
-35
-32
-29
-25
-28
-30
-28
-32
-28
-28
-24
-21
-22
-22
-21
-20
-20
-20
-16
-14
-10
-14
-16
-17
-18
-19
-18
-19
-17
-22
-26
-32
-33
-34
-34
-33
-35
-34
-34
-39
-41
-42
-40
-39
-37
-37
-40
-43
-44
-43
-43
-44
-40
-39
-41
-43
-43
-45
-47
-42
-42
-39
-39
-39
-40
-42
-42
-41
-37
-33
-34
-34
-36
-37
-36
-36
-33
-33
-31
-33
-35
-33
-34
-30
-30
-27
-24
-23
-22
-25
-30
-32
-32
-37
-40
-43
-48
-49
-46
-44
-43
-38
-35
-33
-33
-34
-37
-38
-35
-36
-34
-30
-31
-33
-36
-39
-39
-38
-37
-37
-35
-37
-41
-39
-43
-42
-40
-40
-42
-54
-77
-105
-137
-164
-189
-208
-221
-224
-217
-200
-177
-155
-148
-115
-98
-82
-65
-54
-49
-48
-45
-42
-39
-34
-35
-35
-38
-39
-39
-37
-34
-33
-32
-33
-38
-38
-38
-37
-35
-32
-33
-34
-35
-35
-36
-34
-31
-30
-29
-28
-30
-33
-32
-31
-31
-28
-25
-24
-23
-27
-27
-26
-25
-20
-19
-19
-19
-20
-24
-25
-25
-26
-23
-22
-24
-27
-31
-34
-35
-36
-33
-34
-32
-35
-38
-41
-43
-44
-41
-41
-41
-44
-45
-47
-48
-46
-46
-47
-46
-48
-48
-48
-49
-50
-50
-48
-45
-46
-49
-49
-47
-49
-47
-43
-45
-41
-43
-46
-42
-43
-41
-42
-40
-38
-38
-39
-40
-43
-40
-41
-39
-35
-35
-36
-36
-36
-38
-38
-31
-28
-26
-29
-35
-39
-45
-48
-52
-51
-49
-50
-47
-44
-47
-46
-43
-41
-38
-38
-39
-40
-43
-44
-42
-42
-40
-38
-41
-43
-43
-48
-47
-46
-45
-41
-43
-46
-47
-51
-54
-62
-75
-95
-119
-140
-168
-194
-215
-220
-231
-224
-210
-193
-173
-153
-135
-118
-99
-80
-61
-53
-47
-51
-52
-50
-50
-44
-41
-40
-41
-42
-44
-46
-45
-42
-39
-40
-41
-41
-42
-45
-43
-43
-39
-39
-39
-39
-41
-44
-41
-38
-38
-33
-34
-35
-36
-37
-37
-36
-32
-30
-28
-25
-27
-28
-29
-29
-27
-24
-23
-24
-24
-28
-31
-32
-31
-31
-32
-32
-36
-38
-41
-44
-43
-42
-44
-42
-44
-46
-47
-51
-51
-48
-48
-46
-47
-49
-52
-54
-52
-53
-49
-48
-50
-50
-52
-53
-55
-56
-50
-48
-45
-46
-49
-49
-52
-49
-48
-46
-43
-45
-46
-44
-46
-45
-47
-46
-43
-42
-42
-42
-40
-42
-41
-35
-33
-34
-40
-45
-50
-57
-61
-63
-61
-56
-53
-52
-53
-52
-53
-50
-45
-45
-44
-44
-48
-50
-51
-50
-48
-45
-45
-49
-50
-51
-54
-53
-53
-50
-49
-51
-52
-57
-64
-74
-95
-124
-160
-197
-229
-256
-270
-265
-261
-216
-185
-159
-139
-125
-108
-91
-73
-61
-55
-53
-52
-53
-52
-53
-51
-50
-45
-45
-44
-43
-46
-47
-47
-47
-45
-44
-40
-43
-44
-46
-47
-48
-44
-43
-39
-39
-41
-43
-45
-45
-44
-41
-38
-35
-34
-36
-35
-35
-36
-30
-27
-27
-25
-26
-28
-26
-29
-28
-25
-24
-24
-29
-32
-35
-37
-37
-37
-37
-41
-40
-44
-49
-50
-50
-49
-48
-47
-50
-51
-53
-55
-57
-55
-54
-53
-52
-54
-57
-57
-59
-56
-57
-53
-54
-55
-56
-58
-59
-59
-56
-53
-51
-53
-53
-56
-56
-54
-51
-48
-46
-49
-50
-49
-50
-50
-49
-49
-47
-44
-45
-43
-44
-43
-42
-37
-36
-33
-38
-45
-50
-59
-63
-64
-65
-61
-59
-54
-56
-55
-57
-53
-53
-48
-47
-48
-49
-52
-52
-51
-53
-51
-49
-51
-51
-55
-56
-57
-58
-60
-67
-83
-110
-147
-181
-214
-241
-260
-268
-263
-241
-215
-189
-167
-161
-131
-109
-88
-71
-60
-56
-57
-56
-53
-48
-47
-45
-47
-48
-48
-49
-47
-47
-44
-42
-45
-45
-47
-48
-48
-45
-42
-37
-42
-42
-43
-45
-43
-41
-41
-38
-35
-36
-37
-39
-36
-36
-33
-28
-27
-29
-27
-30
-30
-29
-26
-24
-24
-25
-26
-28
-31
-29
-29
-27
-27
-29
-32
-37
-39
-42
-42
-44
-42
-43
-46
-47
-51
-50
-50
-49
-49
-47
-50
-51
-54
-54
-54
-52
-51
-52
-52
-52
-54
-56
-55
-54
-52
-49
-47
-48
-50
-53
-51
-50
-46
-44
-41
-44
-42
-45
-48
-45
-44
-41
-40
-40
-41
-44
-44
-42
-39
-38
-34
-32
-32
-33
-37
-41
-44
-48
-52
-51
-54
-52
-54
-52
-50
-49
-46
-44
-43
-45
-46
-46
-46
-45
-44
-42
-41
-46
-46
-46
-49
-50
-47
-45
-43
-48
-47
-50
-54
-51
-51
-51
-56
-72
-100
-132
-165
-195
-219
-236
-233
-221
-199
-174
-148
-129
-124
-91
-71
-56
-50
-50
-52
-55
-53
-50
-45
-40
-42
-44
-43
-45
-45
-44
-45
-42
-40
-41
-41
-43
-46
-45
-42
-40
-37
-38
-41
-42
-44
-42
-40
-38
-36
-36
-38
-39
-38
-38
-37
-33
-32
-31
-33
-30
-33
-32
-32
-28
-27
-25
-27
-29
-31
-35
-34
-33
-34
-33
-35
-38
-40
-43
-47
-47
-48
-47
-45
-45
-47
-50
-53
-54
-51
-51
-48
-48
-51
-53
-56
-56
-54
-52
-51
-51
-53
-55
-53
-57
-56
-55
-54
-50
-53
-52
-52
-54
-54
-50
-47
-47
-45
-47
-49
-51
-51
-48
-46
-45
-43
-46
-46
-49
-48
-47
-44
-39
-38
-38
-39
-40
-39
-39
-41
-42
-43
-44
-51
-56
-63
-62
-60
-56
-52
-48
-48
-50
-52
-52
-50
-49
-46
-44
-47
-48
-51
-51
-52
-51
-50
-49
-50
-53
-54
-56
-57
-57
-58
-67
-86
-115
-147
-180
-211
-231
-238
-228
-205
-176
-151
-134
-118
-113
-80
-63
-56
-51
-54
-55
-55
-55
-53
-48
-48
-46
-47
-49
-49
-48
-50
-49
-45
-42
-44
-47
-46
-48
-49
-45
-43
-42
-42
-41
-44
-42
-41
-40
-39
-35
-32
-35
-34
-35
-36
-32
-31
-27
-27
-26
-29
-28
-30
-30
-31
-30
-27
-28
-32
-35
-38
-41
-42
-41
-41
-41
-44
-45
-49
-53
-51
-50
-49
-47
-51
-51
-54
-55
-56
-56
-54
-52
-52
-54
-56
-58
-57
-56
-54
-52
-50
-52
-55
-55
-56
-54
-53
-50
-48
-48
-49
-53
-51
-52
-51
-50
-46
-46
-45
-50
-51
-50
-48
-47
-46
-44
-44
-45
-44
-44
-43
-40
-36
-34
-36
-43
-49
-54
-57
-61
-63
-61
-61
-59
-56
-54
-54
-53
-52
-48
-47
-48
-49
-52
-54
-52
-50
-51
-48
-49
-52
-54
-58
-57
-55
-53
-54
-54
-54
-59
-62
-67
-77
-90
-112
-137
-163
-191
-222
-247
-263
-266
-249
-222
-192
-166
-143
-125
-120
-85
-67
-57
-53
-50
-54
-54
-54
-53
-51
-46
-46
-47
-48
-50
-49
-49
-47
-43
-43
-44
-43
-46
-48
-48
-47
-43
-41
-40
-41
-43
-42
-45
-42
-40
-37
-34
-36
-38
-38
-39
-34
-32
-28
-28
-26
-27
-30
-29
-29
-28
-26
-24
-26
-28
-32
-36
-39
-39
-41
-39
-41
-43
-45
-49
-50
-52
-50
-49
-51
-51
-53
-57
-58
-59
-57
-56
-54
-53
-57
-57
-60
-60
-61
-58
-56
-54
-57
-59
-60
-61
-59
-57
-56
-53
-52
-54
-53
-55
-56
-55
-52
-48
-48
-49
-53
-55
-57
-56
-53
-50
-45
-44
-41
-37
-32
-24
-16
-11
-8
-7
-8
-11
-9
-8
25
59
100
139
167
187
199
209
214
218
218
214
209
202
198
193
184
170
144
109
66
19
-22
-53
-61
-77
-79
-80
-84
-90
-95
-102
-106
-106
-105
-104
-105
-107
-113
-117
-122
-124
-126
-128
-128
-132
-138
-144
-151
-153
-159
-163
-164
-169
-177
-184
-191
-195
-200
-201
-205
-209
-212
-219
-221
-224
-224
-227
-222
-222
-217
-218
-217
-212
-210
-199
-191
-183
-178
-172
-166
-161
-152
-141
-132
-123
-113
-110
-102
-101
-98
-93
-87
-81
-77
-74
-74
-72
-75
-74
-71
-68
-65
-63
-64
-67
-67
-69
-70
-67
-63
-62
-65
-68
-66
-70
-65
-63
-61
-60
-60
-61
-61
-62
-63
-60
-56
-54
-52
-55
-53
-56
-55
-53
-50
-47
-48
-45
-47
-47
-50
-49
-48
-44
-42
-41
-43
-46
-47
-46
-45
-42
-39
-37
-35
-35
-33
-32
-30
-27
-28
-29
-32
-38
-47
-54
-54
-51
-48
-42
-41
-39
-42
-40
-41
-39
-38
-35
-33
-34
-38
-42
-43
-40
-38
-36
-36
-38
-41
-40
-42
-43
-44
-41
-46
-55
-75
-101
-129
-139
-181
-205
-221
-227
-226
-214
-195
-170
-147
-128
-110
-96
-81
-66
-57
-49
-46
-42
-41
-38
-38
-36
-39
-38
-37
-38
-33
-32
-31
-32
-32
-36
-35
-35
-34
-30
-30
-29
-31
-31
-35
-32
-30
-29
-25
-26
-26
-28
-31
-30
-27
-24
-20
-18
-21
-21
-22
-22
-19
-17
-13
-9
-10
-11
-12
-14
-11
-9
-8
-9
-8
-11
-13
-16
-17
-18
-18
-19
-22
-25
-29
-33
-33
-35
-33
-34
-33
-34
-37
-40
-44
-43
-42
-40
-40
-40
-43
-43
-46
-47
-46
-45
-43
-42
-42
-42
-42
-43
-42
-40
-37
-33
-33
-36
-37
-37
-37
-31
-30
-29
-30
-32
-32
-31
-32
-27
-25
-24
-22
-22
-26
-34
-39
-43
-48
-49
-46
-48
-44
-40
-36
-31
-25
-16
-10
-6
-4
-3
1
4
29
55
89
128
156
176
188
193
197
200
200
197
192
189
182
175
166
150
126
93
54
18
-15
-39
-47
-63
-66
-66
-70
-76
-81
-86
-89
-90
-91
-91
-92
-96
-100
-107
-111
-113
-116
-115
-118
-125
-130
-135
-141
-143
-149
-152
-154
-160
-167
-174
-179
-184
-187
-190
-189
-190
-193
-196
-200
-205
-204
-200
-197
-195
-193
-190
-187
-185
-184
-174
-166
-159
-151
-145
-139
-136
-130
-125
-116
-109
-102
-96
-93
-90
-87
-82
-79
-72
-68
-69
-69
-70
-66
-67
-66
-63
-62
-59
-60
-61
-64
-63
-65
-62
-59
-60
-60
-60
-65
-65
-64
-62
-60
-59
-59
-60
-63
-62
-61
-59
-55
-52
-51
-53
-52
-54
-54
-50
-50
-47
-46
-47
-48
-46
-46
-43
-40
-37
-33
-29
-31
-33
-38
-40
-44
-45
-48
-52
-53
-55
-49
-51
-48
-44
-42
-41
-39
-41
-42
-44
-44
-44
-42
-40
-40
-40
-43
-45
-46
-45
-43
-42
-41
-42
-46
-49
-52
-54
-61
-70
-91
-122
-155
-191
-227
-250
-263
-257
-235
-206
-178
-158
-139
-134
-101
-79
-62
-51
-47
-47
-47
-46
-43
-42
-40
-35
-35
-34
-38
-42
-39
-38
-37
-34
-30
-34
-35
-38
-40
-35
-36
-33
-30
-34
-33
-35
-35
-34
-32
-28
-26
-27
-27
-27
-28
-26
-24
-20
-16
-12
-13
-12
-13
-12
-10
-6
-3
-2
-5
-4
-6
-7
-7
-7
-6
-5
-9
-10
-15
-20
-20
-22
-24
-23
-24
-28
-33
-35
-37
-38
-38
-37
-37
-38
-42
-45
-47
-47
-46
-44
-43
-46
-47
-49
-51
-50
-50
-48
-46
-43
-46
-47
-50
-51
-49
-44
-43
-41
-41
-42
-42
-44
-40
-39
-37
-36
-35
-35
-36
-35
-33
-32
-27
-26
-23
-25
-29
-31
-32
-37
-43
-46
-51
-55
-58
-59
-55
-53
-50
-47
-45
-42
-45
-46
-48
-47
-45
-45
-43
-43
-46
-46
-49
-49
-49
-47
-45
-46
-48
-52
-55
-59
-60
-69
-83
-107
-135
-167
-199
-227
-255
-268
-269
-256
-233
-205
-180
-160
-153
-121
-101
-81
-65
-57
-53
-52
-55
-50
-48
-45
-43
-44
-44
-46
-48
-47
-45
-43
-39
-37
-39
-40
-45
-44
-41
-40
-40
-37
-40
-38
-38
-40
-40
-36
-34
-35
-32
-30
-33
-33
-34
-32
-29
-24
-22
-24
-25
-26
-27
-23
-21
-21
-22
-23
-25
-27
-27
-29
-29
-30
-30
-31
-36
-38
-42
-43
-43
-43
-42
-41
-46
-49
-51
-52
-49
-50
-47
-46
-51
-48
-52
-52
-53
-52
-50
-50
-49
-51
-52
-54
-54
-51
-48
-47
-46
-46
-50
-48
-46
-45
-46
-44
-40
-42
-42
-45
-46
-46
-44
-42
-38
-35
-38
-39
-38
-37
-34
-31
-32
-37
-43
-50
-57
-59
-61
-54
-50
-45
-42
-45
-46
-48
-47
-45
-41
-42
-41
-44
-46
-46
-48
-47
-44
-44
-44
-47
-50
-50
-51
-49
-49
-49
-48
-55
-66
-85
-113
-136
-164
-189
-211
-228
-237
-231
-215
-192
-164
-140
-119
-98
-80
-64
-57
-56
-54
-52
-47
-44
-47
-46
-48
-48
-45
-46
-44
-42
-41
-42
-44
-45
-44
-44
-43
-40
-38
-39
-44
-43
-44
-43
-40
-38
-35
-39
-36
-37
-39
-37
-35
-35
-30
-32
-32
-31
-34
-32
-30
-27
-23
-23
-23
-25
-31
-32
-31
-31
-32
-30
-34
-37
-39
-42
-45
-44
-42
-41
-43
-45
-49
-50
-52
-51
-47
-49
-47
-51
-51
-53
-52
-53
-51
-52
-51
-53
-52
-52
-55
-56
-54
-51
-49
-49
-49
-52
-56
-52
-50
-47
-44
-42
-43
-46
-46
-48
-44
-42
-40
-37
-36
-37
-38
-40
-39
-34
-29
-30
-31
-35
-40
-45
-50
-52
-55
-56
-52
-49
-48
-48
-49
-48
-45
-43
-41
-41
-44
-46
-48
-48
-46
-45
-43
-45
-46
-49
-51
-52
-50
-50
-50
-48
-51
-53
-66
-71
-111
-143
-174
-204
-228
-239
-238
-219
-193
-165
-139
-120
-101
-83
-67
-57
-56
-52
-52
-48
-45
-47
-47
-49
-51
-45
-45
-43
-42
-42
-42
-45
-46
-45
-44
-42
-39
-38
-40
-44
-44
-44
-42
-39
-37
-37
-38
-40
-40
-40
-37
-35
-30
-29
-28
-29
-31
-31
-29
-27
-26
-22
-23
-25
-27
-30
-30
-28
-27
-28
-26
-31
-35
-37
-38
-38
-41
-37
-37
-42
-42
-46
-48
-49
-47
-47
-46
-48
-52
-54
-54
-55
-54
-52
-53
-52
-52
-54
-56
-57
-55
-56
-53
-49
-50
-50
-54
-54
-53
-50
-49
-47
-45
-47
-47
-48
-48
-48
-45
-45
-41
-45
-45
-45
-47
-44
-40
-35
-33
-32
-35
-37
-37
-38
-37
-42
-44
-48
-54
-61
-63
-61
-54
-49
-49
-45
-47
-46
-48
-49
-50
-47
-42
-45
-44
-48
-50
-51
-51
-49
-50
-49
-50
-51
-52
-55
-59
-60
-70
-84
-109
-142
-175
-208
-217
-258
-270
-265
-248
-223
-195
-170
-152
-134
-114
-92
-73
-60
-53
-54
-53
-54
-50
-48
-45
-44
-44
-47
-46
-47
-47
-45
-43
-40
-40
-42
-42
-47
-45
-41
-39
-36
-37
-37
-38
-40
-39
-37
-35
-32
-29
-30
-31
-31
-31
-29
-25
-22
-18
-20
-20
-23
-23
-22
-20
-18
-16
-15
-13
-16
-15
-17
-15
-13
-16
-21
-28
-38
-44
-48
-57
-59
-53
-51
-48
-48
-49
-48
-48
-45
-43
-43
-44
-45
-47
-49
-50
-48
-49
-47
-45
-46
-48
-49
-51
-51
-50
-49
-46
-47
-48
-51
-50
-51
-48
-47
-44
-43
-46
-48
-51
-55
-58
-74
-103
-143
-189
-231
-265
-274
-273
-242
-201
-163
-136
-115
-95
-78
-60
-53
-50
-48
-46
-44
-45
-44
-45
-43
-39
-37
-36
-37
-39
-41
-41
-40
-39
-36
-32
-34
-33
-37
-37
-37
-36
-35
-31
-30
-29
-30
-30
-31
-29
-26
-22
-20
-19
-18
-20
-21
-21
-17
-17
-16
-16
-20
-22
-27
-29
-30
-30
-29
-32
-36
-39
-43
-43
-45
-45
-46
-44
-47
-49
-51
-51
-54
-51
-51
-48
-50
-50
-51
-53
-54
-51
-50
-45
-48
-48
-49
-48
-49
-48
-46
-44
-40
-41
-43
-44
-45
-44
-42
-39
-37
-37
-36
-37
-39
-38
-38
-34
-34
-37
-41
-43
-44
-44
-38
-34
-31
-32
-39
-43
-45
-46
-45
-43
-42
-40
-40
-41
-44
-46
-47
-45
-44
-43
-42
-45
-45
-51
-51
-53
-61
-80
-103
-136
-172
-203
-213
-244
-245
-229
-201
-173
-147
-128
-109
-87
-69
-54
-46
-43
-44
-46
-47
-45
-43
-39
-40
-37
-37
-37
-40
-40
-40
-39
-36
-35
-34
-38
-40
-39
-41
-36
-34
-33
-30
-34
-34
-37
-37
-34
-33
-30
-29
-30
-30
-30
-31
-30
-27
-23
-22
-20
-21
-21
-23
-23
-24
-21
-21
-20
-21
-23
-25
-26
-28
-30
-29
-29
-32
-36
-40
-41
-43
-42
-41
-41
-43
-44
-48
-48
-48
-47
-48
-46
-47
-47
-48
-51
-52
-53
-51
-49
-48
-48
-52
-52
-54
-53
-51
-50
-48
-50
-48
-49
-51
-49
-46
-44
-43
-41
-40
-42
-45
-44
-45
-46
-43
-40
-41
-43
-45
-47
-48
-47
-44
-41
-41
-43
-45
-47
-47
-48
-47
-43
-43
-44
-46
-49
-50
-48
-46
-44
-44
-44
-44
-48
-50
-50
-49
-46
-45
-44
-46
-48
-48
-49
-47
-47
-42
-39
-40
-39
-40
-41
-38
-36
-33
-31
-35
-40
-45
-46
-54
-55
-57
-53
-50
-48
-49
-48
-48
-47
-44
-42
-39
-39
-41
-45
-47
-47
-43
-42
-40
-42
-43
-48
-47
-49
-50
-46
-43
-45
-47
-49
-56
-66
-86
-113
-144
-172
-202
-224
-240
-243
-236
-220
-195
-172
-153
-137
-122
-118
-92
-75
-59
-51
-47
-50
-52
-51
-50
-45
-44
-41
-41
-43
-45
-45
-46
-44
-43
-40
-41
-40
-40
-43
-44
-44
-42
-40
-39
-38
-39
-41
-42
-43
-40
-37
-35
-34
-34
-36
-36
-36
-36
-32
-32
-29
-27
-28
-29
-28
-26
-24
-23
-21
-21
-22
-25
-26
-27
-25
-24
-23
-23
-25
-31
-33
-34
-36
-35
-34
-37
-41
-41
-45
-47
-46
-48
-47
-46
-46
-47
-51
-51
-54
-52
-53
-50
-49
-52
-53
-52
-55
-53
-53
-51
-50
-49
-50
-52
-51
-53
-51
-47
-45
-46
-45
-46
-47
-46
-47
-46
-44
-42
-44
-43
-46
-49
-49
-47
-41
-38
-39
-37
-39
-40
-38
-37
-38
-39
-44
-51
-60
-65
-67
-62
-55
-52
-47
-50
-49
-51
-50
-50
-48
-46
-46
-46
-49
-50
-51
-53
-51
-48
-48
-48
-50
-54
-56
-57
-57
-57
-59
-68
-87
-111
-141
-171
-198
-222
-245
-259
-267
-262
-247
-240
-193
-166
-144
-121
-105
-85
-71
-61
-56
-55
-52
-50
-47
-47
-47
-48
-49
-48
-46
-45
-42
-43
-43
-46
-45
-46
-43
-42
-41
-38
-41
-42
-44
-44
-41
-42
-39
-36
-37
-37
-38
-39
-38
-36
-29
-29
-28
-29
-30
-31
-29
-26
-23
-22
-21
-24
-24
-26
-28
-28
-28
-27
-27
-31
-35
-40
-42
-42
-42
-42
-41
-43
-45
-50
-53
-53
-51
-48
-50
-51
-51
-55
-56
-56
-55
-54
-51
-50
-55
-53
-55
-57
-56
-56
-55
-53
-52
-53
-56
-58
-56
-55
-51
-46
-46
-48
-50
-51
-50
-48
-47
-47
-45
-46
-44
-48
-49
-49
-47
-43
-38
-37
-39
-37
-36
-34
-33
-36
-40
-44
-53
-62
-65
-64
-57
-51
-47
-46
-46
-47
-48
-49
-47
-47
-45
-44
-45
-46
-48
-50
-51
-51
-51
-48
-48
-50
-55
-58
-63
-74
-91
-122
-161
-203
-242
-275
-287
-274
-239
-203
-173
-152
-135
-117
-110
-77
-60
-51
-48
-45
-47
-47
-48
-47
-48
-44
-40
-38
-39
-41
-41
-44
-42
-40
-38
-37
-36
-38
-40
-41
-41
-38
-38
-36
-32
-34
-36
-36
-37
-35
-32
-28
-28
-27
-28
-29
-27
-26
-21
-19
-18
-17
-17
-19
-20
-22
-21
-19
-18
-19
-23
-26
-30
-32
-33
-35
-34
-35
-38
-37
-44
-45
-45
-45
-43
-43
-42
-44
-46
-49
-50
-50
-49
-47
-45
-48
-50
-54
-55
-52
-48
-48
-45
-47
-47
-48
-52
-47
-47
-44
-39
-39
-41
-43
-43
-43
-42
-41
-37
-37
-38
-39
-39
-39
-35
-34
-29
-26
-26
-28
-28
-32
-36
-37
-38
-42
-49
-54
-58
-58
-53
-46
-44
-39
-36
-39
-42
-39
-42
-40
-40
-37
-37
-35
-38
-44
-45
-45
-44
-43
-40
-43
-45
-46
-47
-49
-51
-55
-67
-87
-116
-147
-177
-206
-228
-240
-237
-220
-199
-175
-157
-138
-121
-104
-85
-68
-54
-47
-47
-47
-48
-46
-42
-41
-37
-36
-38
-40
-41
-39
-39
-34
-34
-37
-37
-39
-40
-39
-40
-37
-36
-34
-35
-38
-36
-39
-35
-33
-31
-31
-31
-32
-31
-33
-32
-27
-26
-22
-23
-22
-24
-26
-24
-22
-22
-19
-19
-20
-22
-23
-24
-25
-25
-26
-25
-28
-31
-34
-38
-38
-39
-41
-39
-40
-43
-47
-46
-46
-47
-45
-45
-45
-47
-49
-50
-52
-50
-50
-47
-46
-48
-48
-52
-53
-51
-51
-48
-46
-47
-48
-50
-52
-50
-49
-47
-43
-44
-41
-45
-46
-47
-44
-41
-41
-39
-41
-42
-43
-47
-44
-42
-38
-34
-33
-33
-34
-36
-33
-35
-35
-39
-44
-49
-55
-56
-61
-58
-51
-45
-42
-42
-44
-46
-45
-46
-44
-40
-39
-38
-42
-45
-45
-45
-46
-41
-40
-40
-42
-45
-46
-50
-48
-46
-43
-43
-45
-47
-50
-56
-63
-75
-96
-121
-146
-173
-201
-224
-237
-238
-221
-194
-165
-141
-125
-119
-94
-76
-60
-52
-47
-48
-49
-49
-50
-47
-43
-43
-41
-41
-43
-43
-44
-45
-42
-40
-37
-37
-38
-39
-40
-44
-42
-39
-35
-34
-36
-39
-40
-39
-37
-34
-32
-30
-32
-32
-32
-30
-31
-27
-25
-22
-21
-19
-23
-25
-25
-22
-20
-21
-18
-21
-24
-26
-30
-29
-32
-31
-30
-35
-36
-40
-40
-43
-45
-43
-42
-42
-47
-46
-48
-51
-49
-47
-47
-46
-47
-50
-52
-52
-52
-52
-49
-47
-47
-51
-52
-54
-52
-50
-47
-44
-44
-46
-47
-47
-49
-48
-47
-44
-41
-42
-43
-46
-46
-44
-40
-35
-32
-32
-32
-32
-34
-35
-37
-39
-42
-50
-54
-59
-59
-59
-55
-50
-47
-44
-46
-47
-48
-48
-46
-44
-43
-42
-45
-45
-47
-49
-48
-49
-48
-47
-48
-48
-50
-52
-55
-56
-61
-71
-88
-118
-151
-184
-217
-241
-260
-269
-254
-231
-201
-175
-154
-134
-115
-92
-72
-56
-51
-52
-55
-53
-51
-46
-43
-41
-43
-44
-45
-46
-46
-43
-41
-38
-40
-40
-43
-42
-43
-40
-40
-37
-37
-38
-41
-40
-40
-38
-34
-35
-33
-34
-36
-35
-34
-34
-32
-29
-23
-25
-23
-28
-26
-24
-24
-21
-19
-19
-21
-22
-23
-25
-26
-25
-25
-25
-28
-32
-34
-39
-40
-38
-40
-41
-41
-44
-49
-50
-52
-52
-50
-49
-48
-49
-53
-54
-55
-56
-53
-52
-51
-53
-54
-55
-57
-57
-58
-54
-51
-52
-52
-54
-53
-53
-51
-50
-49
-47
-48
-49
-49
-50
-49
-46
-45
-43
-43
-42
-41
-40
-41
-37
-34
-30
-34
-36
-43
-49
-56
-60
-62
-60
-56
-55
-53
-53
-52
-52
-49
-46
-44
-45
-49
-51
-50
-52
-50
-47
-50
-49
-49
-53
-56
-56
-58
-56
-57
-63
-76
-104
-114
-177
-212
-242
-269
-282
-274
-249
-216
-186
-159
-136
-112
-89
-72
-61
-56
-57
-58
-57
-49
-46
-46
-45
-44
-45
-49
-46
-45
-42
-38
-41
-43
-42
-44
-44
-42
-39
-35
-36
-38
-40
-38
-38
-36
-34
-30
-27
-25
-28
-29
-27
-26
-23
-21
-18
-21
-22
-22
-23
-21
-21
-18
-18
-18
-20
-24
-27
-29
-29
-31
-31
-33
-35
-37
-39
-44
-43
-43
-42
-43
-44
-49
-49
-50
-49
-50
-47
-46
-45
-49
-51
-52
-53
-51
-49
-47
-47
-47
-49
-47
-51
-49
-49
-46
-44
-44
-46
-45
-46
-46
-44
-42
-40
-38
-39
-41
-40
-42
-39
-33
-31
-28
-29
-28
-29
-30
-31
-32
-36
-38
-47
-53
-56
-56
-49
-46
-42
-39
-40
-40
-41
-42
-39
-39
-37
-37
-37
-37
-38
-40
-42
-41
-40
-38
-40
-38
-40
-44
-44
-44
-42
-41
-41
-46
-57
-74
-105
-136
-166
-198
-224
-239
-235
-213
-205
-159
-135
-111
-88
-68
-53
-44
-44
-45
-46
-42
-39
-34
-32
-34
-35
-37
-36
-37
-36
-34
-32
-32
-36
-36
-38
-36
-33
-31
-29
-30
-31
-34
-35
-33
-31
-30
-27
-28
-29
-28
-30
-32
-29
-24
-21
-20
-18
-21
-22
-24
-22
-16
-17
-14
-17
-18
-19
-21
-24
-24
-24
-22
-22
-27
-30
-32
-33
-36
-37
-34
-34
-37
-40
-42
-46
-42
-41
-41
-40
-41
-43
-45
-47
-48
-46
-44
-42
-46
-45
-46
-48
-48
-49
-47
-44
-42
-45
-45
-48
-47
-48
-44
-41
-40
-39
-40
-42
-43
-45
-41
-40
-36
-37
-38
-38
-40
-40
-36
-33
-29
-28
-29
-29
-30
-36
-38
-40
-42
-46
-50
-51
-52
-51
-47
-43
-39
-37
-37
-39
-39
-41
-41
-41
-39
-39
-35
-39
-40
-42
-45
-43
-42
-41
-40
-42
-45
-48
-48
-54
-61
-79
-101
-130
-160
-192
-218
-235
-238
-227
-205
-179
-155
-134
-128
-101
-83
-64
-50
-44
-42
-44
-46
-45
-43
-41
-37
-36
-34
-36
-36
-37
-38
-36
-36
-34
-34
-35
-35
-36
-40
-36
-34
-32
-30
-29
-32
-31
-31
-31
-29
-27
-25
-24
-25
-26
-27
-26
-20
-19
-15
-13
-18
-17
-19
-18
-18
-18
-16
-16
-16
-21
-23
-28
-29
-30
-28
-29
-30
-34
-37
-38
-40
-40
-38
-38
-39
-41
-44
-45
-47
-45
-44
-42
-43
-41
-43
-46
-46
-47
-46
-44
-43
-43
-42
-42
-44
-45
-43
-42
-38
-36
-36
-37
-38
-42
-38
-36
-34
-32
-32
-33
-34
-33
-34
-30
-27
-26
-22
-23
-26
-27
-30
-34
-33
-36
-41
-47
-52
-54
-52
-49
-44
-40
-36
-38
-38
-40
-40
-37
-38
-35
-35
-36
-37
-39
-40
-44
-41
-40
-39
-38
-41
-42
-42
-46
-45
-45
-49
-58
-77
-103
-133
-163
-190
-217
-238
-252
-256
-246
-224
-198
-176
-152
-133
-113
-93
-75
-58
-54
-47
-46
-40
-37
-34
-33
-36
-34
-37
-36
-35
-33
-30
-30
-30
-33
-34
-34
-32
-29
-29
-28
-29
-29
-32
-31
-30
-27
-26
-24
-24
-25
-25
-24
-24
-22
-19
-19
-17
-15
-17
-15
-17
-13
-11
-12
-8
-10
-12
-13
-15
-15
-15
-16
-16
-20
-23
-28
-31
-34
-33
-34
-34
-32
-37
-41
-40
-42
-41
-39
-41
-39
-42
-46
-47
-47
-48
-46
-44
-41
-41
-40
-45
-48
-47
-45
-42
-38
-38
-40
-40
-41
-42
-40
-40
-38
-36
-35
-37
-38
-39
-39
-36
-35
-32
-29
-29
-29
-30
-29
-25
-20
-21
-24
-32
-38
-48
-54
-54
-52
-49
-44
-39
-39
-39
-42
-44
-37
-37
-36
-36
-36
-39
-42
-39
-39
-39
-37
-34
-38
-39
-44
-43
-43
-41
-40
-39
-43
-44
-46
-57
-66
-85
-111
-143
-176
-211
-244
-266
-270
-253
-217
-178
-147
-124
-104
-85
-67
-53
-43
-42
-38
-38
-39
-40
-38
-37
-35
-32
-31
-30
-30
-33
-33
-32
-31
-30
-29
-26
-26
-31
-32
-32
-32
-30
-27
-26
-25
-26
-27
-29
-27
-26
-24
-23
-21
-20
-21
-22
-22
-19
-16
-12
-8
-11
-12
-13
-12
-11
-11
-10
-6
-9
-11
-12
-18
-18
-21
-19
-18
-21
-24
-29
-31
-32
-31
-30
-31
-32
-35
-35
-38
-41
-39
-39
-37
-35
-36
-39
-41
-44
-43
-44
-39
-36
-37
-40
-43
-42
-43
-42
-38
-39
-34
-35
-36
-37
-37
-36
-33
-30
-30
-29
-30
-31
-34
-33
-29
-23
-21
-19
-21
-20
-21
-25
-27
-28
-31
-36
-43
-46
-48
-47
-43
-38
-33
-30
-32
-31
-33
-34
-32
-32
-31
-31
-30
-31
-34
-33
-37
-35
-35
-34
-32
-35
-37
-39
-40
-40
-46
-52
-70
-97
-129
-140
-191
-216
-232
-232
-216
-190
-161
-139
-120
-102
-83
-61
-45
-36
-34
-35
-37
-36
-35
-33
-29
-29
-27
-28
-29
-31
-32
-28
-27
-24
-26
-29
-30
-30
-30
-28
-27
-25
-22
-26
-26
-25
-28
-26
-24
-20
-19
-19
-18
-19
-22
-22
-20
-16
-12
-12
-12
-12
-13
-12
-13
-12
-11
-10
-12
-14
-14
-18
-18
-20
-19
-19
-19
-22
-24
-30
-32
-31
-29
-28
-30
-32
-35
-37
-40
-40
-37
-37
-33
-36
-40
-42
-43
-41
-40
-38
-36
-37
-38
-39
-40
-41
-38
-38
-36
-34
-35
-38
-37
-38
-37
-33
-30
-26
-30
-31
-33
-35
-34
-30
-28
-23
-22
-23
-24
-25
-24
-23
-22
-24
-29
-32
-41
-45
-52
-52
-45
-40
-36
-35
-37
-39
-39
-38
-33
-31
-31
-32
-33
-36
-36
-38
-36
-36
-34
-32
-35
-38
-39
-42
-41
-39
-44
-49
-70
-97
-127
-155
-184
-210
-233
-241
-239
-223
-218
-173
-149
-130
-111
-89
-71
-55
-46
-45
-42
-40
-37
-34
-31
-32
-32
-32
-34
-34
-32
-28
-27
-28
-28
-28
-31
-30
-28
-26
-24
-24
-23
-26
-26
-28
-25
-22
-18
-17
-19
-20
-18
-19
-17
-15
-12
-10
-9
-9
-9
-13
-9
-11
-9
-6
-7
-8
-13
-14
-18
-18
-20
-20
-21
-24
-27
-31
-33
-33
-33
-32
-32
-31
-33
-35
-38
-39
-39
-36
-33
-34
-36
-37
-39
-42
-40
-39
-36
-34
-34
-38
-38
-38
-37
-38
-32
-31
-32
-34
-36
-39
-35
-34
-32
-29
-26
-27
-28
-28
-27
-25
-23
-19
-15
-14
-17
-22
-26
-32
-37
-42
-45
-46
-43
-42
-37
-36
-37
-33
-31
-28
-26
-29
-30
-33
-32
-30
-30
-29
-32
-33
-36
-38
-37
-35
-35
-33
-32
-36
-40
-42
-50
-60
-76
-103
-133
-170
-204
-240
-260
-264
-247
-214
-177
-151
-128
-113
-95
-72
-51
-37
-32
-32
-33
-32
-36
-34
-33
-28
-27
-25
-27
-26
-30
-29
-27
-26
-25
-22
-22
-27
-25
-25
-28
-27
-24
-20
-20
-20
-20
-24
-25
-20
-21
-16
-16
-14
-18
-19
-18
-16
-14
-10
-9
-7
-6
-9
-9
-8
-7
-3
-1
-1
-3
-5
-8
-8
-10
-10
-11
-11
-12
-18
-20
-23
-25
-25
-25
-23
-25
-29
-32
-33
-35
-34
-30
-32
-30
-34
-35
-37
-39
-37
-37
-36
-35
-38
-38
-39
-39
-39
-37
-37
-36
-33
-38
-41
-40
-39
-37
-34
-32
-32
-34
-36
-35
-35
-33
-30
-29
-29
-29
-27
-28
-27
-24
-23
-20
-14
-15
-14
-19
-24
-27
-30
-33
-37
-41
-46
-47
-47
-44
-40
-36
-34
-33
-34
-36
-34
-34
-34
-33
-31
-29
-31
-35
-34
-35
-34
-33
-36
-32
-31
-34
-35
-38
-39
-41
-41
-46
-57
-76
-106
-140
-173
-204
-232
-252
-262
-257
-236
-209
-178
-151
-129
-107
-86
-64
-51
-47
-39
-37
-35
-32
-30
-28
-26
-27
-27
-28
-28
-27
-26
-22
-21
-24
-25
-26
-28
-26
-23
-21
-18
-23
-24
-25
-25
-22
-21
-17
-16
-15
-17
-17
-16
-15
-13
-9
-7
-6
-5
-8
-9
-7
-3
-2
-1
2
-1
-2
-6
-7
-7
-8
-10
-8
-12
-15
-17
-21
-23
-24
-23
-21
-22
-24
-26
-31
-32
-31
-30
-29
-32
-32
-33
-36
-35
-35
-34
-32
-30
-31
-34
-34
-36
-35
-33
-30
-29
-29
-30
-30
-31
-29
-29
-27
-24
-23
-23
-24
-28
-27
-22
-19
-16
-14
-15
-13
-14
-16
-15
-13
-15
-16
-23
-29
-36
-41
-40
-34
-31
-25
-25
-23
-23
-28
-28
-25
-23
-21
-21
-22
-25
-26
-26
-26
-26
-27
-26
-26
-27
-29
-31
-32
-32
-32
-37
-49
-73
-81
-133
-156
-186
-208
-223
-222
-213
-193
-168
-146
-126
-109
-93
-74
-56
-42
-36
-34
-32
-30
-25
-23
-22
-22
-21
-23
-26
-22
-22
-20
-17
-19
-20
-22
-25
-22
-20
-18
-16
-15
-14
-18
-20
-21
-18
-17
-14
-14
-12
-12
-14
-14
-14
-11
-9
-6
-7
-6
-6
-6
-7
-4
-1
0
-1
-1
-6
-8
-8
-7
-8
-6
-6
-11
-12
-17
-20
-20
-22
-22
-23
-24
-26
-29
-30
-30
-30
-31
-28
-28
-32
-32
-36
-35
-33
-33
-32
-33
-34
-34
-37
-36
-36
-32
-33
-29
-31
-33
-35
-37
-34
-33
-29
-26
-28
-29
-30
-33
-32
-30
-27
-25
-24
-26
-27
-25
-24
-23
-21
-17
-15
-19
-24
-28
-33
-38
-42
-44
-40
-38
-37
-35
-35
-36
-34
-34
-29
-27
-28
-29
-33
-33
-33
-33
-31
-31
-32
-35
-35
-38
-37
-38
-36
-34
-36
-38
-42
-49
-64
-85
-112
-142
-172
-202
-210
-239
-234
-207
-170
-136
-109
-89
-71
-54
-46
-42
-41
-37
-32
-32
-34
-35
-36
-35
-33
-31
-30
-29
-30
-31
-31
-33
-32
-31
-27
-27
-26
-28
-29
-31
-30
-28
-25
-24
-22
-22
-26
-25
-24
-22
-18
-16
-12
-14
-15
-14
-17
-12
-11
-8
-7
-9
-11
-14
-16
-16
-15
-16
-15
-19
-23
-27
-28
-32
-30
-29
-31
-30
-33
-33
-37
-39
-40
-39
-38
-34
-36
-38
-41
-41
-42
-39
-39
-39
-38
-40
-42
-41
-43
-42
-39
-39
-37
-37
-37
-40
-41
-40
-38
-37
-34
-33
-37
-36
-36
-35
-35
-32
-29
-27
-27
-28
-26
-28
-24
-19
-20
-22
-27
-29
-42
-48
-51
-49
-47
-42
-42
-38
-38
-40
-39
-37
-37
-34
-35
-35
-35
-38
-39
-38
-36
-36
-34
-37
-38
-42
-44
-43
-43
-42
-45
-53
-73
-105
-142
-178
-209
-236
-250
-257
-251
-228
-200
-175
-145
-124
-102
-81
-63
-58
-46
-45
-44
-40
-37
-33
-34
-34
-36
-38
-36
-33
-28
-27
-29
-30
-31
-33
-34
-32
-29
-30
-24
-28
-26
-31
-33
-30
-30
-25
-25
-24
-24
-24
-28
-26
-22
-21
-15
-15
-14
-14
-14
-15
-15
-10
-9
-7
-8
-9
-14
-16
-14
-15
-13
-14
-16
-21
-23
-26
-28
-27
-28
-27
-29
-32
-33
-36
-38
-38
-36
-37
-38
-38
-39
-43
-45
-45
-43
-43
-42
-43
-45
-47
-48
-48
-48
-45
-43
-44
-43
-46
-45
-47
-45
-45
-42
-39
-41
-42
-41
-43
-40
-40
-36
-35
-35
-36
-38
-38
-37
-35
-31
-28
-28
-29
-28
-29
-27
-28
-25
-27
-31
-36
-38
-52
-56
-57
-53
-50
-44
-42
-41
-42
-45
-42
-44
-40
-38
-38
-40
-42
-42
-45
-42
-41
-40
-39
-42
-43
-46
-48
-49
-48
-47
-48
-53
-63
-81
-107
-137
-169
-199
-229
-255
-272
-274
-260
-231
-199
-170
-146
-125
-110
-104
-72
-58
-49
-46
-42
-40
-40
-38
-39
-40
-38
-38
-35
-34
-33
-32
-33
-34
-35
-35
-32
-30
-31
-31
-30
-32
-31
-31
-28
-25
-24
-22
-22
-22
-24
-23
-21
-18
-15
-11
-12
-13
-14
-16
-13
-9
-9
-8
-9
-10
-14
-18
-21
-19
-21
-21
-22
-26
-30
-35
-36
-35
-36
-36
-35
-38
-40
-43
-42
-42
-42
-42
-39
-42
-41
-44
-47
-44
-44
-42
-40
-41
-42
-44
-45
-45
-44
-42
-39
-39
-39
-39
-43
-42
-40
-37
-37
-34
-35
-34
-36
-39
-37
-37
-34
-32
-29
-29
-30
-30
-29
-26
-22
-23
-24
-31
-34
-41
-48
-52
-51
-49
-43
-43
-40
-42
-42
-42
-38
-37
-34
-32
-34
-35
-37
-40
-39
-36
-34
-34
-36
-38
-41
-43
-41
-38
-38
-35
-41
-40
-44
-48
-50
-60
-72
-98
-128
-161
-194
-225
-246
-253
-242
-216
-184
-157
-136
-121
-104
-84
-66
-52
-43
-40
-41
-42
-42
-39
-35
-33
-30
-29
-31
-33
-35
-37
-34
-32
-30
-28
-30
-31
-34
-34
-32
-30
-28
-26
-27
-26
-31
-32
-32
-30
-25
-24
-25
-24
-24
-26
-26
-22
-19
-14
-14
-14
-13
-15
-14
-14
-13
-12
-9
-12
-13
-19
-24
-24
-25
-24
-25
-28
-28
-31
-35
-39
-39
-36
-35
-36
-38
-41
-41
-43
-43
-41
-40
-38
-40
-41
-44
-46
-45
-44
-41
-40
-40
-41
-41
-44
-43
-40
-39
-35
-35
-35
-38
-39
-40
-38
-34
-34
-30
-33
-34
-35
-36
-35
-35
-29
-26
-24
-24
-25
-25
-26
-25
-25
-24
-28
-34
-41
-48
-52
-49
-44
-41
-35
-34
-34
-38
-39
-37
-35
-32
-31
-32
-32
-34
-37
-36
-37
-36
-36
-32
-34
-38
-38
-41
-40
-38
-39
-40
-47
-51
-85
-110
-140
-166
-192
-212
-229
-232
-222
-202
-179
-154
-131
-116
-98
-84
-69
-58
-48
-44
-40
-37
-32
-34
-35
-36
-36
-37
-34
-34
-30
-33
-32
-33
-33
-33
-33
-30
-30
-30
-30
-30
-33
-34
-33
-30
-29
-25
-28
-27
-28
-30
-29
-28
-26
-24
-20
-22
-23
-24
-24
-21
-19
-17
-14
-14
-17
-18
-17
-18
-16
-13
-13
-16
-18
-20
-24
-26
-24
-25
-27
-29
-30
-32
-37
-40
-40
-38
-37
-35
-38
-40
-42
-45
-47
-44
-44
-44
-44
-44
-47
-47
-51
-48
-47
-45
-42
-47
-47
-49
-49
-48
-45
-42
-41
-43
-44
-45
-43
-44
-41
-39
-38
-36
-37
-39
-42
-41
-37
-34
-30
-29
-30
-31
-31
-31
-34
-34
-37
-43
-52
-55
-57
-54
-49
-46
-41
-39
-39
-39
-41
-43
-44
-42
-40
-40
-39
-42
-45
-48
-49
-47
-46
-45
-44
-46
-49
-54
-60
-73
-94
-119
-149
-175
-184
-233
-256
-267
-258
-240
-211
-182
-157
-137
-116
-97
-76
-58
-47
-44
-47
-47
-46
-44
-44
-42
-38
-37
-36
-38
-38
-41
-41
-38
-36
-35
-33
-33
-36
-39
-40
-38
-37
-34
-32
-34
-33
-36
-38
-35
-34
-29
-27
-27
-28
-29
-31
-30
-28
-25
-22
-16
-21
-22
-22
-22
-20
-17
-16
-14
-18
-19
-20
-23
-24
-25
-25
-24
-28
-31
-35
-38
-38
-42
-39
-41
-38
-42
-47
-48
-47
-44
-39
-36
-34
-34
-37
-37
-42
-46
-46
-51
-53
-60
-63
-69
-67
-62
-59
-54
-53
-51
-50
-49
-49
-48
-45
-43
-41
-40
-43
-43
-45
-46
-44
-46
-43
-41
-43
-43
-47
-49
-47
-46
-47
-46
-48
-50
-52
-60
-69
-86
-112
-145
-175
-211
-244
-268
-275
-267
-237
-200
-169
-145
-137
-104
-82
-67
-56
-50
-48
-48
-47
-46
-46
-47
-46
-43
-42
-39
-42
-41
-41
-43
-43
-40
-39
-34
-37
-38
-39
-39
-41
-38
-38
-35
-32
-32
-31
-34
-34
-33
-28
-26
-23
-22
-23
-23
-23
-24
-20
-17
-15
-19
-17
-23
-26
-29
-29
-29
-28
-29
-32
-35
-38
-42
-45
-44
-44
-43
-47
-49
-52
-54
-53
-54
-51
-51
-49
-50
-55
-59
-59
-56
-55
-52
-51
-53
-55
-54
-54
-54
-53
-50
-47
-49
-50
-51
-51
-51
-50
-47
-47
-47
-47
-51
-52
-52
-52
-53
-51
-49
-51
-52
-55
-54
-55
-53
-52
-50
-52
-53
-54
-56
-54
-51
-50
-48
-48
-48
-48
-50
-48
-45
-42
-38
-35
-35
-36
-40
-43
-45
-48
-53
-56
-65
-66
-67
-64
-60
-57
-54
-49
-52
-54
-53
-52
-53
-50
-50
-49
-45
-50
-49
-55
-56
-55
-53
-52
-50
-52
-55
-57
-63
-62
-64
-70
-84
-113
-124
-190
-227
-256
-277
-285
-277
-259
-233
-205
-181
-158
-137
-116
-94
-74
-62
-58
-58
-59
-55
-52
-50
-45
-48
-49
-48
-48
-47
-48
-47
-43
-42
-44
-45
-48
-47
-47
-46
-44
-39
-41
-42
-44
-45
-42
-41
-40
-39
-34
-35
-38
-38
-36
-33
-29
-27
-27
-25
-26
-26
-25
-26
-23
-22
-18
-20
-23
-25
-28
-27
-28
-28
-25
-28
-30
-37
-40
-42
-44
-41
-44
-43
-46
-49
-52
-53
-54
-54
-51
-51
-52
-54
-57
-59
-59
-59
-56
-54
-55
-56
-60
-60
-63
-60
-57
-57
-55
-57
-59
-60
-59
-59
-56
-55
-51
-51
-52
-55
-56
-54
-54
-50
-49
-50
-52
-52
-53
-54
-52
-50
-49
-48
-51
-50
-51
-51
-49
-47
-44
-40
-40
-39
-41
-41
-44
-45
-47
-49
-56
-59
-69
-68
-64
-60
-55
-52
-51
-52
-52
-55
-56
-55
-52
-54
-49
-50
-50
-54
-56
-57
-56
-53
-54
-53
-55
-58
-60
-63
-64
-65
-70
-86
-110
-139
-168
-197
-221
-243
-257
-263
-257
-238
-215
-191
-167
-148
-129
-110
-89
-84
-65
-61
-61
-58
-53
-53
-50
-51
-51
-52
-54
-52
-50
-49
-47
-46
-49
-48
-51
-51
-51
-49
-48
-46
-45
-48
-51
-50
-50
-44
-44
-41
-42
-43
-46
-45
-42
-42
-37
-37
-35
-36
-36
-38
-37
-35
-32
-32
-29
-30
-33
-34
-36
-36
-37
-36
-38
-41
-43
-46
-50
-52
-51
-51
-50
-50
-53
-56
-56
-58
-59
-58
-56
-57
-57
-60
-60
-62
-62
-60
-59
-59
-61
-62
-61
-64
-63
-62
-61
-57
-56
-58
-61
-63
-60
-60
-56
-55
-54
-56
-57
-59
-60
-57
-56
-55
-53
-53
-55
-58
-60
-58
-54
-49
-48
-46
-47
-47
-47
-46
-47
-49
-51
-56
-58
-68
-73
-74
-67
-63
-59
-54
-57
-58
-61
-59
-57
-54
-53
-53
-54
-56
-58
-60
-59
-60
-58
-58
-57
-58
-60
-61
-65
-63
-63
-62
-64
-74
-91
-115
-142
-167
-191
-216
-235
-251
-254
-241
-222
-193
-168
-145
-127
-112
-106
-81
-71
-68
-64
-62
-58
-57
-57
-56
-58
-59
-58
-57
-57
-52
-54
-53
-55
-58
-57
-58
-55
-54
-53
-54
-53
-55
-55
-55
-53
-49
-49
-50
-50
-51
-52
-51
-49
-47
-43
-42
-41
-42
-44
-41
-39
-37
-35
-35
-35
-38
-39
-43
-41
-42
-41
-41
-44
-46
-50
-55
-57
-57
-55
-54
-57
-59
-63
-65
-66
-66
-65
-62
-63
-63
-66
-68
-70
-69
-69
-69
-67
-67
-68
-71
-72
-73
-70
-66
-66
-67
-67
-69
-72
-70
-65
-65
-63
-62
-63
-63
-66
-67
-66
-62
-62
-58
-60
-61
-63
-62
-62
-58
-54
-52
-51
-51
-52
-55
-57
-60
-61
-65
-72
-75
-78
-80
-77
-72
-69
-65
-61
-64
-64
-66
-66
-67
-64
-62
-63
-62
-63
-68
-70
-70
-69
-66
-66
-66
-67
-73
-76
-81
-91
-109
-133
-167
-200
-235
-263
-284
-285
-270
-245
-212
-187
-166
-149
-132
-112
-92
-77
-69
-68
-69
-68
-67
-67
-67
-62
-60
-60
-59
-61
-63
-63
-61
-59
-57
-58
-57
-57
-57
-60
-59
-57
-53
-52
-51
-52
-54
-53
-53
-53
-50
-48
-43
-42
-44
-44
-45
-44
-40
-39
-35
-36
-35
-37
-39
-42
-41
-39
-39
-40
-41
-45
-50
-53
-54
-56
-54
-57
-60
-62
-63
-65
-67
-66
-66
-63
-64
-66
-70
-72
-73
-69
-69
-69
-67
-68
-72
-73
-73
-74
-72
-68
-67
-68
-70
-72
-71
-72
-69
-68
-65
-64
-65
-68
-66
-68
-66
-63
-61
-60
-61
-66
-66
-66
-64
-60
-57
-54
-53
-53
-52
-53
-56
-57
-59
-64
-71
-78
-79
-80
-75
-72
-67
-66
-62
-61
-65
-65
-67
-66
-65
-62
-62
-62
-64
-68
-67
-66
-66
-65
-64
-64
-66
-69
-72
-72
-74
-75
-80
-94
-101
-154
-189
-226
-259
-282
-292
-282
-256
-220
-185
-162
-138
-116
-92
-76
-66
-66
-70
-70
-69
-64
-64
-59
-58
-57
-60
-61
-63
-60
-61
-56
-55
-55
-57
-59
-59
-59
-59
-55
-55
-53
-55
-55
-58
-58
-57
-53
-50
-50
-49
-50
-52
-51
-48
-45
-42
-40
-39
-39
-39
-39
-39
-38
-35
-35
-32
-37
-40
-43
-46
-46
-43
-44
-44
-46
-50
-54
-57
-58
-60
-58
-59
-60
-63
-65
-68
-68
-68
-65
-65
-64
-65
-68
-71
-73
-71
-70
-68
-66
-66
-69
-72
-72
-72
-70
-69
-66
-67
-68
-70
-70
-70
-67
-66
-62
-64
-64
-66
-66
-67
-64
-62
-58
-59
-58
-63
-64
-64
-60
-59
-56
-53
-51
-51
-51
-51
-54
-53
-57
-58
-65
-71
-79
-79
-76
-73
-67
-62
-62
-62
-62
-64
-64
-61
-60
-61
-56
-57
-59
-62
-63
-66
-64
-61
-61
-61
-63
-67
-69
-72
-80
-93
-115
-148
-158
-225
-262
-285
-291
-271
-238
-201
-172
-149
-130
-111
-91
-75
-64
-61
-60
-62
-61
-60
-58
-57
-55
-52
-49
-51
-53
-54
-57
-56
-53
-51
-46
-48
-49
-50
-52
-53
-50
-47
-47
-45
-45
-48
-47
-47
-46
-43
-40
-37
-36
-37
-38
-38
-37
-34
-30
-29
-29
-30
-32
-33
-36
-32
-32
-30
-34
-34
-40
-39
-44
-42
-42
-44
-44
-43
-52
-53
-54
-55
-55
-54
-53
-56
-58
-60
-60
-64
-61
-59
-58
-58
-61
-63
-62
-64
-60
-62
-61
-59
-58
-61
-60
-61
-61
-59
-59
-54
-53
-56
-59
-60
-59
-55
-52
-50
-52
-53
-54
-57
-57
-56
-53
-48
-50
-50
-52
-53
-51
-50
-45
-42
-40
-39
-38
-43
-47
-51
-54
-59
-61
-64
-66
-64
-62
-60
-57
-54
-52
-50
-51
-52
-52
-54
-53
-50
-50
-46
-46
-47
-50
-50
-53
-51
-48
-48
-47
-49
-52
-54
-58
-55
-55
-54
-65
-70
-103
-132
-160
-183
-210
-230
-246
-249
-237
-212
-185
-160
-136
-115
-89
-67
-57
-53
-53
-54
-51
-47
-47
-44
-44
-44
-46
-46
-46
-46
-43
-40
-41
-42
-44
-44
-46
-42
-41
-39
-38
-40
-41
-41
-43
-40
-38
-36
-34
-36
-35
-35
-38
-34
-34
-30
-26
-25
-26
-28
-28
-28
-26
-25
-23
-23
-27
-29
-33
-34
-37
-35
-34
-34
-35
-40
-44
-47
-46
-48
-46
-46
-47
-49
-52
-54
-53
-53
-50
-50
-50
-50
-51
-55
-56
-57
-53
-52
-51
-49
-53
-55
-57
-55
-52
-50
-47
-49
-50
-50
-52
-52
-50
-48
-46
-45
-46
-47
-50
-50
-50
-46
-45
-43
-44
-42
-43
-43
-40
-40
-36
-34
-36
-41
-45
-52
-56
-60
-62
-60
-58
-56
-56
-55
-54
-55
-51
-48
-46
-45
-46
-48
-52
-50
-50
-48
-48
-49
-50
-50
-53
-55
-54
-55
-52
-51
-54
-56
-61
-68
-81
-103
-130
-160
-171
-218
-241
-254
-255
-240
-215
-188
-166
-147
-132
-116
-100
-80
-63
-56
-54
-55
-55
-57
-56
-54
-52
-48
-49
-48
-49
-49
-52
-49
-50
-48
-47
-46
-48
-48
-52
-53
-50
-50
-46
-43
-45
-46
-48
-49
-44
-43
-42
-39
-39
-39
-40
-40
-40
-37
-35
-34
-32
-31
-34
-35
-34
-32
-31
-26
-28
-30
-32
-34
-37
-36
-36
-35
-35
-36
-44
-44
-47
-49
-49
-49
-49
-51
-52
-54
-56
-58
-57
-57
-58
-56
-56
-57
-60
-61
-62
-59
-56
-58
-59
-61
-61
-65
-64
-62
-61
-57
-57
-57
-59
-60
-61
-59
-56
-53
-52
-52
-55
-58
-58
-57
-54
-51
-51
-49
-49
-50
-52
-49
-45
-41
-40
-44
-47
-52
-59
-66
-69
-70
-68
-62
-63
-61
-61
-61
-59
-58
-55
-51
-51
-55
-57
-58
-60
-57
-54
-55
-56
-56
-59
-60
-62
-61
-61
-60
-61
-66
-81
-100
-129
-158
-185
-213
-241
-249
-275
-275
-255
-229
-201
-174
-156
-140
-122
-106
-89
-74
-64
-59
-57
-55
-55
-54
-58
-56
-53
-52
-50
-50
-49
-50
-53
-52
-53
-51
-49
-49
-47
-46
-49
-50
-52
-49
-46
-44
-43
-46
-47
-48
-48
-45
-42
-40
-37
-37
-37
-37
-37
-37
-33
-31
-30
-28
-28
-30
-31
-35
-32
-31
-30
-29
-33
-36
-41
-43
-44
-46
-46
-47
-46
-52
-54
-58
-58
-59
-59
-58
-56
-61
-63
-63
-62
-63
-61
-60
-61
-62
-63
-65
-66
-66
-63
-63
-61
-59
-61
-63
-64
-63
-63
-58
-57
-56
-58
-59
-62
-61
-58
-56
-55
-54
-54
-56
-57
-57
-54
-50
-44
-43
-41
-42
-44
-48
-52
-54
-55
-62
-68
-72
-74
-71
-67
-63
-58
-56
-54
-56
-58
-58
-58
-57
-57
-56
-53
-52
-56
-57
-61
-60
-59
-58
-56
-59
-59
-62
-65
-65
-67
-71
-81
-98
-133
-171
-206
-241
-266
-280
-274
-243
-231
-174
-149
-130
-108
-90
-72
-61
-60
-61
-60
-60
-61
-58
-53
-51
-48
-51
-51
-51
-54
-53
-52
-51
-49
-48
-46
-48
-49
-50
-49
-46
-43
-42
-43
-46
-45
-49
-44
-42
-37
-36
-37
-38
-39
-39
-35
-33
-30
-27
-25
-28
-28
-29
-29
-31
-27
-26
-25
-30
-34
-37
-39
-36
-35
-33
-32
-32
-32
-34
-38
-43
-45
-50
-53
-53
-64
-69
-71
-72
-66
-59
-58
-54
-53
-55
-55
-54
-53
-52
-50
-48
-50
-50
-51
-53
-53
-51
-49
-46
-47
-49
-52
-54
-54
-53
-51
-49
-50
-51
-55
-57
-59
-62
-72
-92
-118
-152
-187
-223
-254
-276
-286
-278
-254
-245
-198
-176
-158
-139
-119
-98
-78
-63
-55
-54
-56
-55
-53
-49
-47
-42
-43
-43
-45
-46
-46
-44
-39
-39
-39
-40
-43
-43
-43
-44
-42
-38
-38
-39
-39
-41
-43
-39
-36
-33
-30
-31
-30
-33
-32
-29
-28
-24
-22
-19
-22
-21
-23
-24
-25
-21
-19
-19
-20
-26
-28
-31
-32
-30
-32
-30
-36
-39
-46
-48
-50
-49
-48
-48
-47
-51
-52
-56
-57
-56
-54
-54
-55
-55
-58
-60
-63
-58
-57
-54
-54
-54
-56
-55
-57
-57
-54
-52
-50
-49
-51
-51
-52
-54
-55
-51
-50
-50
-51
-53
-56
-56
-54
-53
-53
-50
-52
-52
-56
-57
-56
-55
-53
-54
-53
-52
-55
-57
-59
-58
-56
-52
-53
-54
-55
-56
-57
-54
-49
-46
-43
-44
-42
-43
-43
-43
-44
-43
-45
-47
-58
-66
-71
-73
-70
-65
-60
-54
-53
-54
-54
-56
-53
-51
-48
-46
-49
-51
-53
-53
-53
-53
-51
-49
-49
-52
-57
-58
-57
-55
-57
-57
-59
-69
-87
-112
-141
-166
-191
-216
-237
-251
-258
-248
-230
-204
-176
-155
-133
-127
-104
-87
-74
-65
-59
-55
-51
-51
-50
-50
-52
-53
-50
-47
-48
-43
-45
-46
-48
-50
-49
-45
-42
-42
-42
-43
-46
-47
-50
-47
-43
-40
-41
-40
-42
-43
-45
-41
-39
-38
-32
-35
-34
-37
-38
-37
-33
-29
-26
-25
-28
-27
-29
-30
-25
-24
-25
-25
-26
-28
-30
-33
-34
-35
-32
-34
-35
-38
-42
-46
-47
-48
-46
-45
-44
-49
-54
-56
-58
-56
-56
-55
-53
-55
-59
-60
-63
-60
-59
-57
-57
-57
-58
-61
-62
-62
-59
-57
-55
-56
-58
-60
-61
-62
-64
-63
-59
-60
-74
-101
-142
-186
-221
-242
-251
-255
-250
-243
-234
-226
-219
-208
-196
-182
-178
-161
-150
-141
-132
-122
-115
-107
-104
-100
-92
-82
-68
-51
-36
-25
-16
-18
-14
-15
-15
-12
-8
-4
0
1
4
3
5
7
11
15
20
25
27
29
29
33
34
39
42
47
47
46
44
43
43
45
45
45
45
39
35
29
26
22
18
15
10
3
-3
-9
-13
-17
-20
-20
-21
-25
-28
-34
-37
-41
-39
-40
-39
-40
-42
-45
-45
-47
-46
-42
-41
-43
-43
-47
-49
-49
-50
-47
-45
-43
-47
-45
-50
-52
-51
-50
-50
-48
-47
-50
-51
-53
-56
-56
-53
-50
-50
-51
-55
-57
-58
-59
-58
-56
-55
-56
-58
-60
-62
-62
-61
-62
-59
-58
-57
-61
-65
-64
-64
-61
-59
-59
-60
-62
-63
-65
-63
-62
-63
-58
-59
-59
-62
-64
-66
-64
-62
-60
-60
-60
-62
-62
-62
-59
-58
-54
-56
-57
-59
-62
-63
-65
-65
-74
-90
-117
-147
-171
-189
-198
-194
-182
-170
-167
-152
-148
-144
-144
-145
-143
-140
-137
-135
-134
-128
-123
-112
-99
-89
-76
-71
-64
-61
-62
-60
-57
-54
-52
-51
-49
-53
-54
-55
-54
-52
-48
-47
-47
-50
-49
-48
-48
-45
-44
-39
-39
-38
-38
-39
-36
-35
-30
-27
-26
-27
-28
-29
-30
-29
-29
-26
-27
-28
-31
-34
-37
-38
-39
-37
-37
-40
-41
-47
-50
-54
-51
-54
-52
-53
-57
-60
-63
-66
-67
-66
-65
-64
-66
-69
-72
-74
-76
-74
-70
-69
-69
-71
-74
-75
-74
-72
-68
-66
-66
-67
-66
-70
-69
-67
-66
-62
-62
-63
-62
-63
-66
-65
-61
-61
-58
-60
-62
-63
-67
-67
-66
-63
-61
-62
-66
-68
-69
-68
-66
-66
-64
-64
-65
-64
-68
-71
-70
-67
-66
-66
-63
-66
-69
-72
-71
-68
-66
-64
-66
-66
-69
-69
-71
-72
-69
-66
-65
-65
-69
-69
-71
-69
-68
-64
-59
-59
-59
-59
-57
-57
-54
-53
-54
-55
-63
-71
-77
-84
-83
-78
-70
-69
-68
-69
-70
-70
-70
-70
-65
-64
-65
-67
-71
-72
-73
-69
-70
-70
-69
-70
-73
-76
-78
-82
-95
-114
-144
-176
-206
-236
-262
-284
-297
-290
-269
-238
-207
-184
-165
-146
-127
-106
-87
-81
-74
-73
-73
-71
-70
-66
-65
-62
-62
-64
-65
-66
-66
-62
-60
-59
-56
-59
-61
-63
-63
-61
-60
-57
-57
-58
-58
-61
-60
-59
-55
-52
-50
-51
-53
-55
-53
-53
-50
-46
-44
-43
-43
-44
-45
-44
-40
-38
-36
-34
-36
-38
-40
-42
-39
-43
-43
-42
-44
-47
-51
-56
-59
-57
-58
-59
-61
-62
-66
-67
-68
-68
-66
-67
-66
-68
-69
-72
-75
-73
-72
-71
-69
-69
-69
-75
-75
-74
-72
-71
-68
-68
-70
-72
-71
-71
-68
-68
-66
-64
-65
-67
-68
-68
-66
-66
-64
-61
-62
-63
-63
-66
-64
-60
-57
-54
-51
-53
-51
-54
-59
-61
-63
-68
-69
-79
-82
-82
-79
-75
-71
-68
-66
-67
-67
-68
-69
-69
-68
-66
-64
-64
-67
-69
-70
-72
-70
-68
-69
-68
-68
-72
-77
-80
-84
-95
-114
-145
-181
-219
-257
-283
-296
-287
-255
-217
-183
-157
-137
-115
-99
-81
-74
-71
-69
-70
-69
-68
-68
-67
-66
-61
-60
-59
-61
-63
-64
-62
-63
-59
-59
-57
-59
-59
-61
-62
-61
-59
-57
-56
-52
-54
-55
-57
-56
-54
-51
-47
-47
-49
-49
-49
-46
-43
-41
-39
-37
-37
-39
-40
-42
-40
-40
-39
-38
-41
-44
-48
-50
-50
-52
-50
-50
-54
-55
-58
-61
-61
-59
-59
-58
-57
-61
-62
-64
-67
-64
-64
-62
-61
-63
-65
-65
-69
-69
-65
-63
-62
-62
-64
-66
-67
-65
-65
-62
-61
-59
-61
-63
-64
-67
-64
-62
-60
-59
-60
-61
-62
-64
-62
-61
-56
-54
-53
-53
-54
-54
-52
-48
-45
-45
-46
-51
-55
-62
-68
-72
-73
-72
-73
-67
-65
-65
-64
-61
-60
-55
-54
-54
-57
-57
-61
-58
-57
-55
-57
-57
-57
-58
-60
-62
-62
-60
-58
-59
-64
-71
-83
-103
-125
-152
-179
-207
-236
-256
-264
-257
-235
-207
-179
-157
-137
-121
-105
-89
-76
-67
-60
-59
-58
-57
-57
-56
-57
-56
-53
-50
-50
-49
-51
-52
-53
-53
-52
-49
-48
-46
-48
-51
-53
-53
-52
-49
-46
-45
-44
-44
-46
-48
-45
-44
-41
-39
-37
-38
-39
-40
-39
-37
-34
-30
-31
-29
-33
-36
-36
-34
-30
-30
-30
-32
-36
-38
-40
-40
-41
-40
-40
-43
-44
-49
-52
-54
-57
-54
-51
-51
-53
-56
-58
-60
-59
-58
-57
-58
-58
-61
-61
-61
-59
-59
-57
-57
-56
-58
-60
-61
-63
-61
-57
-56
-55
-55
-58
-59
-61
-58
-54
-53
-52
-51
-54
-56
-57
-56
-55
-53
-52
-52
-55
-56
-57
-55
-50
-48
-44
-43
-41
-44
-45
-50
-52
-54
-58
-60
-67
-67
-68
-66
-62
-57
-56
-55
-55
-55
-57
-59
-57
-55
-54
-53
-52
-53
-56
-58
-59
-57
-58
-56
-55
-57
-57
-61
-64
-62
-62
-64
-69
-80
-100
-126
-154
-180
-205
-230
-245
-253
-251
-235
-212
-183
-154
-132
-110
-103
-76
-69
-66
-67
-64
-63
-58
-55
-56
-56
-56
-58
-59
-58
-54
-53
-51
-51
-55
-55
-57
-54
-53
-51
-50
-51
-53
-52
-55
-54
-51
-49
-48
-47
-48
-49
-49
-50
-48
-46
-43
-40
-40
-41
-40
-43
-40
-36
-34
-35
-33
-37
-38
-42
-43
-42
-42
-41
-46
-48
-53
-55
-58
-58
-57
-57
-55
-57
-61
-64
-67
-65
-64
-63
-62
-60
-64
-67
-69
-68
-64
-65
-64
-64
-64
-67
-69
-69
-68
-64
-64
-60
-62
-63
-64
-68
-65
-62
-59
-57
-57
-60
-62
-64
-64
-61
-58
-58
-57
-57
-59
-57
-56
-54
-50
-47
-44
-47
-51
-56
-61
-65
-68
-72
-74
-73
-70
-69
-68
-64
-63
-63
-60
-60
-60
-61
-62
-64
-63
-61
-61
-59
-59
-61
-63
-68
-67
-67
-66
-65
-65
-68
-73
-78
-85
-100
-122
-149
-174
-205
-236
-261
-277
-282
-269
-243
-213
-188
-168
-152
-133
-114
-94
-77
-71
-67
-67
-68
-68
-67
-64
-60
-56
-56
-58
-59
-59
-61
-59
-57
-54
-53
-55
-57
-60
-60
-58
-57
-54
-52
-54
-54
-55
-56
-55
-53
-49
-48
-47
-49
-50
-48
-49
-46
-42
-37
-38
-36
-37
-38
-39
-38
-38
-36
-37
-37
-38
-42
-49
-49
-50
-49
-51
-50
-55
-59
-59
-63
-65
-62
-60
-62
-64
-65
-69
-70
-70
-68
-67
-68
-67
-70
-71
-72
-72
-71
-69
-66
-67
-68
-70
-71
-71
-67
-65
-64
-62
-62
-66
-68
-69
-67
-64
-62
-61
-61
-63
-65
-64
-65
-67
-61
-59
-57
-56
-57
-55
-55
-55
-51
-49
-51
-54
-62
-69
-77
-82
-83
-77
-75
-69
-69
-67
-68
-69
-67
-64
-64
-63
-64
-66
-69
-67
-68
-66
-65
-63
-67
-68
-70
-72
-73
-71
-71
-72
-83
-95
-122
-153
-185
-216
-245
-267
-286
-291
-280
-260
-229
-199
-171
-150
-126
-104
-85
-75
-73
-72
-67
-65
-63
-61
-60
-63
-64
-65
-62
-57
-58
-57
-59
-57
-61
-64
-61
-58
-54
-54
-56
-57
-58
-59
-59
-55
-53
-54
-51
-51
-52
-52
-51
-49
-45
-44
-43
-42
-41
-43
-44
-41
-39
-36
-33
-34
-37
-41
-42
-44
-42
-40
-40
-43
-49
-52
-55
-59
-59
-59
-58
-57
-60
-64
-65
-68
-68
-66
-63
-64
-64
-68
-69
-70
-72
-71
-67
-66
-67
-67
-68
-71
-72
-71
-68
-66
-64
-68
-67
-71
-70
-67
-67
-63
-61
-62
-64
-68
-70
-68
-65
-63
-62
-62
-63
-64
-64
-63
-59
-55
-51
-49
-50
-53
-54
-58
-59
-64
-70
-73
-77
-79
-77
-76
-71
-70
-67
-66
-63
-63
-65
-66
-66
-66
-65
-62
-60
-65
-66
-68
-69
-68
-66
-63
-64
-67
-69
-70
-73
-73
-73
-74
-76
-92
-115
-148
-189
-223
-257
-281
-292
-286
-264
-237
-212
-186
-166
-145
-128
-107
-88
-77
-71
-71
-70
-69
-65
-62
-58
-59
-61
-62
-63
-60
-58
-56
-54
-56
-57
-59
-59
-58
-55
-55
-53
-54
-54
-56
-57
-59
-53
-53
-52
-49
-49
-51
-52
-52
-47
-43
-39
-35
-38
-36
-37
-39
-35
-35
-33
-31
-31
-34
-37
-38
-40
-38
-40
-40
-44
-44
-49
-53
-54
-54
-54
-52
-52
-56
-59
-61
-62
-63
-61
-60
-57
-60
-62
-65
-65
-67
-64
-64
-64
-62
-65
-67
-68
-70
-67
-65
-63
-63
-62
-64
-62
-64
-62
-61
-58
-57
-56
-57
-59
-61
-60
-59
-56
-57
-56
-56
-57
-57
-60
-57
-53
-49
-48
-48
-49
-46
-46
-44
-44
-44
-44
-50
-56
-66
-71
-76
-71
-65
-63
-55
-56
-58
-59
-59
-56
-52
-51
-50
-51
-53
-55
-56
-56
-53
-54
-53
-53
-53
-56
-58
-59
-60
-58
-57
-57
-60
-69
-82
-103
-127
-155
-183
-209
-239
-260
-268
-264
-240
-211
-181
-157
-138
-122
-106
-89
-73
-62
-56
-55
-53
-52
-51
-53
-51
-49
-50
-46
-44
-46
-48
-46
-49
-48
-46
-43
-44
-44
-44
-46
-47
-46
-45
-40
-40
-38
-40
-42
-42
-41
-37
-35
-31
-29
-29
-30
-30
-31
-29
-28
-24
-23
-24
-27
-29
-29
-31
-31
-30
-32
-31
-34
-39
-42
-46
-46
-45
-46
-45
-49
-50
-53
-54
-54
-54
-51
-51
-53
-53
-57
-59
-58
-58
-55
-54
-54
-55
-57
-57
-59
-58
-54
-52
-51
-53
-54
-54
-57
-53
-51
-50
-48
-47
-49
-50
-53
-53
-52
-50
-50
-48
-49
-52
-51
-52
-48
-44
-42
-41
-39
-38
-39
-41
-41
-46
-47
-49
-55
-59
-63
-65
-62
-57
-51
-49
-47
-48
-49
-51
-53
-49
-46
-46
-44
-46
-47
-49
-50
-49
-51
-48
-48
-50
-49
-52
-55
-54
-54
-53
-52
-52
-56
-63
-78
-98
-120
-143
-174
-203
-231
-249
-250
-234
-207
-177
-151
-133
-117
-99
-84
-71
-62
-58
-55
-54
-51
-50
-52
-51
-52
-49
-48
-45
-45
-45
-46
-49
-48
-48
-47
-43
-44
-45
-45
-47
-46
-48
-47
-45
-45
-41
-41
-43
-44
-46
-42
-40
-39
-34
-38
-38
-38
-38
-35
-33
-30
-28
-27
-29
-31
-32
-35
-35
-32
-33
-31
-34
-39
-42
-45
-46
-47
-45
-44
-47
-51
-53
-56
-55
-54
-54
-53
-52
-55
-56
-59
-61
-61
-59
-58
-55
-57
-59
-61
-61
-61
-56
-56
-54
-54
-56
-57
-58
-57
-54
-52
-51
-50
-53
-55
-55
-58
-55
-52
-50
-49
-50
-52
-51
-50
-48
-44
-40
-38
-40
-43
-50
-55
-58
-61
-63
-64
-65
-63
-61
-60
-58
-56
-55
-54
-50
-51
-52
-55
-56
-53
-53
-51
-50
-51
-54
-56
-57
-56
-56
-53
-53
-54
-57
-62
-68
-77
-91
-116
-125
-173
-203
-233
-255
-265
-255
-236
-208
-178
-158
-141
-125
-108
-90
-72
-61
-57
-55
-55
-57
-58
-55
-52
-50
-49
-47
-47
-51
-53
-52
-50
-47
-46
-45
-46
-47
-46
-50
-51
-48
-46
-44
-43
-43
-46
-46
-45
-43
-41
-39
-36
-38
-39
-39
-39
-38
-36
-30
-29
-26
-27
-31
-31
-31
-31
-29
-29
-28
-30
-34
-39
-40
-41
-40
-39
-42
-45
-49
-51
-57
-55
-55
-52
-52
-53
-55
-58
-62
-60
-59
-57
-57
-59
-60
-60
-64
-63
-62
-59
-60
-58
-59
-62
-64
-61
-61
-60
-57
-55
-57
-57
-58
-58
-59
-56
-54
-51
-52
-52
-54
-54
-56
-55
-54
-53
-48
-45
-47
-47
-45
-42
-41
-41
-44
-49
-58
-64
-70
-71
-68
-62
-57
-55
-54
-55
-58
-58
-55
-52
-51
-50
-53
-55
-56
-59
-57
-55
-53
-52
-54
-56
-57
-61
-63
-62
-61
-59
-65
-70
-82
-99
-121
-147
-172
-181
-224
-249
-271
-282
-276
-251
-217
-184
-157
-138
-123
-104
-88
-71
-62
-57
-56
-57
-55
-55
-53
-57
-54
-52
-50
-49
-51
-51
-53
-55
-54
-51
-50
-47
-49
-49
-52
-51
-52
-52
-47
-47
-45
-46
-47
-49
-47
-46
-44
-42
-38
-40
-42
-40
-43
-38
-35
-33
-31
-28
-32
-29
-32
-32
-30
-29
-27
-28
-32
-34
-38
-40
-40
-41
-42
-43
-46
-50
-52
-57
-55
-55
-54
-53
-52
-55
-59
-61
-62
-62
-60
-59
-59
-62
-62
-63
-66
-64
-61
-60
-57
-59
-63
-62
-64
-63
-60
-58
-55
-54
-58
-58
-61
-57
-58
-57
-55
-53
-53
-55
-60
-57
-54
-51
-50
-44
-42
-43
-44
-45
-46
-46
-48
-53
-58
-68
-72
-74
-73
-69
-63
-60
-58
-58
-60
-60
-61
-59
-57
-54
-54
-56
-58
-61
-62
-61
-61
-60
-58
-60
-59
-63
-64
-66
-66
-64
-65
-74
-89
-116
-152
-188
-222
-253
-263
-289
-288
-272
-244
-212
-183
-158
-138
-115
-96
-80
-70
-67
-66
-64
-58
-56
-54
-54
-55
-54
-55
-53
-52
-51
-49
-48
-51
-50
-54
-53
-49
-48
-47
-45
-47
-49
-52
-51
-48
-46
-42
-44
-42
-45
-45
-45
-42
-39
-38
-36
-34
-34
-34
-36
-34
-30
-27
-26
-24
-26
-27
-30
-30
-29
-30
-28
-28
-30
-35
-38
-40
-43
-40
-41
-41
-44
-46
-50
-53
-52
-53
-53
-53
-51
-53
-56
-59
-59
-58
-57
-57
-56
-56
-59
-61
-62
-61
-57
-58
-56
-55
-58
-57
-60
-58
-56
-53
-51
-51
-52
-54
-54
-54
-53
-51
-49
-49
-50
-52
-53
-53
-53
-51
-50
-50
-49
-49
-49
-46
-46
-41
-39
-37
-36
-38
-41
-47
-51
-55
-61
-63
-63
-62
-59
-56
-56
-56
-53
-51
-48
-48
-51
-53
-52
-54
-52
-52
-51
-50
-51
-53
-56
-55
-55
-55
-54
-54
-56
-59
-65
-71
-83
-103
-110
-152
-180
-208
-233
-252
-261
-257
-238
-211
-185
-162
-142
-126
-104
-82
-64
-56
-52
-55
-57
-58
-54
-53
-49
-48
-45
-46
-48
-50
-52
-50
-47
-45
-46
-45
-45
-47
-50
-50
-48
-44
-44
-42
-43
-43
-46
-47
-42
-42
-42
-38
-37
-39
-41
-40
-39
-37
-32
-29
-29
-31
-32
-33
-33
-31
-29
-27
-26
-29
-32
-32
-36
-36
-37
-36
-32
-32
-33
-34
-36
-37
-38
-38
-41
-44
-49
-54
-62
-65
-65
-65
-62
-59
-56
-57
-57
-58
-55
-52
-50
-47
-49
-48
-52
-51
-52
-51
-49
-47
-48
-48
-51
-53
-52
-49
-48
-47
-45
-48
-52
-52
-52
-53
-51
-52
-47
-50
-53
-54
-56
-57
-65
-83
-106
-134
-164
-195
-223
-241
-245
-234
-212
-186
-163
-145
-128
-113
-96
-76
-70
-54
-52
-51
-54
-53
-52
-48
-46
-44
-42
-43
-45
-47
-48
-46
-40
-41
-41
-42
-45
-47
-47
-44
-43
-42
-40
-41
-40
-42
-44
-40
-38
-37
-36
-34
-32
-35
-35
-36
-33
-30
-28
-26
-27
-29
-30
-32
-31
-31
-29
-28
-31
-33
-39
-42
-42
-46
-43
-43
-43
-46
-53
-55
-55
-55
-53
-51
-50
-55
-56
-60
-59
-57
-56
-55
-54
-54
-55
-60
-60
-60
-57
-54
-53
-52
-54
-55
-55
-56
-54
-51
-50
-50
-50
-54
-55
-56
-54
-55
-53
-51
-51
-54
-57
-58
-57
-57
-54
-53
-55
-54
-57
-58
-59
-57
-56
-54
-52
-54
-55
-59
-59
-59
-57
-57
-52
-56
-54
-57
-57
-55
-53
-49
-46
-43
-44
-45
-43
-45
-46
-43
-48
-50
-56
-63
-69
-65
-60
-59
-56
-52
-54
-53
-56
-55
-54
-50
-49
-48
-50
-51
-52
-53
-54
-53
-53
-51
-53
-52
-56
-58
-58
-61
-59
-60
-68
-88
-122
-158
-198
-230
-252
-265
-264
-249
-225
-198
-173
-151
-130
-109
-87
-67
-59
-54
-54
-57
-54
-49
-48
-44
-43
-45
-46
-46
-48
-48
-44
-43
-40
-44
-45
-47
-49
-46
-43
-42
-40
-43
-42
-46
-44
-41
-39
-38
-34
-36
-36
-35
-34
-34
-30
-27
-24
-24
-23
-25
-25
-27
-24
-20
-19
-18
-21
-23
-23
-27
-28
-28
-28
-30
-28
-31
-37
-42
-43
-43
-44
-43
-43
-48
-48
-54
-53
-54
-52
-50
-51
-52
-55
-57
-59
-58
-57
-57
-54
-57
-55
-57
-60
-61
-59
-59
-58
-55
-56
-59
-61
-61
-58
-58
-59
-57
-60
-64
-74
-95
-127
-169
-184
-242
-263
-277
-285
-286
-272
-259
-245
-237
-228
-220
-208
-197
-188
-175
-159
-143
-127
-117
-104
-94
-88
-80
-74
-72
-62
-58
-52
-47
-37
-28
-21
-11
-5
-1
1
3
2
5
9
13
18
22
25
24
27
30
34
39
41
49
49
52
52
55
55
61
62
63
65
66
61
58
58
57
58
56
52
47
42
32
26
20
16
14
10
3
-1
-7
-11
-17
-21
-22
-24
-24
-26
-30
-34
-37
-35
-32
-33
-31
-36
-36
-40
-40
-40
-38
-37
-35
-35
-40
-39
-41
-41
-39
-40
-38
-38
-39
-43
-45
-44
-44
-42
-43
-41
-43
-45
-47
-49
-50
-47
-47
-45
-49
-48
-51
-54
-53
-53
-52
-50
-48
-50
-54
-56
-56
-55
-52
-51
-49
-52
-54
-55
-58
-57
-55
-55
-52
-53
-53
-53
-57
-57
-58
-55
-51
-52
-55
-55
-57
-59
-58
-57
-55
-53
-54
-56
-59
-60
-62
-61
-61
-57
-55
-58
-66
-85
-108
-135
-162
-181
-192
-195
-189
-179
-166
-155
-146
-138
-134
-133
-132
-134
-137
-138
-133
-132
-122
-116
-110
-101
-90
-80
-69
-59
-50
-43
-44
-44
-47
-46
-42
-40
-37
-36
-38
-36
-37
-36
-35
-34
-33
-29
-28
-31
-32
-32
-31
-28
-26
-24
-21
-20
-21
-21
-20
-18
-14
-12
-10
-11
-9
-13
-12
-13
-11
-10
-8
-10
-8
-13
-14
-16
-17
-15
-14
-17
-20
-25
-27
-30
-31
-31
-32
-32
-33
-37
-41
-45
-46
-44
-43
-45
-46
-48
-51
-53
-55
-54
-54
-52
-49
-51
-52
-55
-57
-56
-53
-52
-50
-51
-50
-51
-52
-51
-48
-46
-44
-46
-46
-46
-49
-50
-50
-46
-45
-44
-45
-48
-48
-52
-48
-45
-47
-45
-47
-47
-49
-50
-51
-48
