-75
-75
-75
-75
-75
-77
-77
-76
-72
-73
-73
-73
-71
-69
-69
-68
-65
-62
-61
-62
-57
-50
-50
-47
-42
-39
-32
-28
-23
-14
-9
-5
0
9
13
15
19
23
27
29
30
33
35
36
33
33
30
26
17
15
14
2
-8
-14
-18
-25
-31
-35
-39
-42
-44
-48
-48
-49
-53
-53
-52
-52
-54
-55
-54
-53
-54
-56
-56
-55
-51
-53
-52
-48
-50
-50
-48
-46
-45
-48
-48
-44
-44
-45
-48
-43
-44
-46
-47
-45
-43
-47
-50
-49
-48
-48
-50
-51
-50
-51
-54
-53
-52
-53
-56
-58
-57
-58
-58
-60
-60
-60
-61
-64
-63
-60
-62
-65
-65
-64
-63
-65
-64
-60
-55
-56
-53
-50
-49
-47
-49
-46
-43
-43
-45
-42
-41
-43
-49
-51
-52
-54
-54
-51
-50
-55
-62
-64
-65
-68
-74
-77
-76
-78
-82
-81
-81
-79
-81
-83
-80
-80
-80
-82
-81
-81
-83
-89
-102
-108
-115
-99
-67
3
109
213
305
360
361
282
141
6
-76
-104
-101
-81
-63
-63
-73
-75
-76
-78
-84
-86
-87
-88
-92
-92
-90
-92
-95
-94
-92
-93
-94
-94
-95
-95
-93
-96
-92
-90
-91
-93
-87
-87
-87
-88
-84
-82
-78
-80
-77
-71
-68
-68
-64
-57
-53
-50
-43
-36
-29
-26
-22
-14
-8
-6
0
6
12
11
14
19
21
22
20
20
19
16
10
6
1
-5
-15
-22
-27
-34
-43
-49
-52
-54
-60
-63
-64
-62
-67
-69
-68
-66
-67
-69
-69
-69
-69
-70
-70
-66
-66
-66
-66
-64
-63
-64
-65
-62
-60
-61
-64
-62
-59
-59
-63
-61
-59
-60
-62
-62
-60
-60
-64
-66
-63
-62
-65
-67
-65
-66
-66
-69
-69
-68
-69
-71
-70
-69
-69
-75
-73
-72
-73
-75
-77
-75
-75
-78
-76
-76
-75
-78
-80
-75
-76
-77
-79
-79
-77
-76
-77
-73
-71
-67
-63
-62
-62
-63
-61
-57
-54
-52
-54
-53
-50
-52
-56
-62
-62
-63
-62
-63
-60
-65
-70
-75
-76
-78
-81
-84
-86
-85
-88
-90
-90
-88
-88
-90
-91
-90
-89
-90
-91
-87
-88
-93
-109
-124
-123
-108
-79
-4
109
223
312
360
368
223
54
-66
-106
-107
-91
-71
-71
-78
-83
-83
-82
-89
-95
-99
-97
-97
-101
-103
-101
-99
-99
-102
-100
-99
-99
-101
-100
-97
-98
-97
-94
-94
-93
-93
-90
-86
-82
-82
-81
-76
-70
-67
-64
-56
-53
-47
-43
-36
-33
-20
-18
-13
-6
-2
-1
5
10
14
12
13
15
13
9
3
2
-1
-14
-20
-24
-29
-38
-46
-51
-52
-58
-63
-65
-66
-67
-71
-71
-69
-69
-70
-70
-68
-69
-70
-71
-68
-66
-67
-69
-68
-65
-67
-68
-65
-66
-63
-66
-67
-63
-62
-65
-64
-64
-63
-67
-66
-63
-65
-67
-67
-65
-63
-63
-69
-67
-67
-68
-70
-70
-71
-71
-74
-73
-73
-73
-77
-76
-74
-75
-77
-79
-77
-79
-81
-82
-81
-80
-81
-82
-82
-81
-81
-80
-79
-77
-78
-81
-79
-78
-73
-72
-67
-65
-64
-66
-65
-61
-58
-61
-62
-56
-58
-59
-64
-68
-69
-69
-69
-66
-64
-70
-76
-78
-76
-79
-84
-86
-89
-90
-91
-90
-87
-89
-93
-93
-90
-89
-88
-91
-91
-89
-90
-95
-109
-114
-113
-96
-60
17
121
220
303
338
303
167
12
-81
-112
-112
-84
-67
-73
-81
-85
-83
-85
-92
-95
-96
-95
-96
-98
-97
-97
-96
-98
-96
-94
-96
-98
-98
-95
-95
-96
-98
-91
-90
-90
-93
-88
-85
-86
-86
-81
-80
-75
-72
-66
-60
-58
-53
-48
-42
-37
-34
-27
-21
-16
-12
-10
-5
1
2
4
7
11
9
6
8
7
4
-1
-6
-10
-19
-24
-31
-34
-39
-47
-52
-54
-55
-60
-62
-61
-61
-66
-68
-65
-65
-68
-67
-67
-66
-68
-69
-67
-66
-65
-65
-64
-63
-64
-62
-61
-59
-61
-59
-59
-58
-57
-58
-58
-57
-56
-58
-57
-57
-58
-57
-58
-55
-58
-59
-60
-59
-60
-63
-64
-63
-62
-64
-68
-66
-67
-69
-70
-71
-69
-70
-73
-73
-72
-71
-73
-75
-72
-73
-75
-76
-74
-73
-74
-76
-75
-71
-73
-76
-74
-71
-70
-68
-64
-60
-58
-60
-58
-56
-54
-52
-54
-50
-47
-50
-54
-56
-60
-62
-62
-58
-57
-62
-68
-70
-71
-77
-79
-77
-79
-81
-86
-83
-84
-85
-86
-86
-86
-84
-87
-86
-84
-85
-86
-96
-109
-116
-103
-77
-10
100
215
308
357
338
221
54
-71
-110
-112
-79
-66
-68
-76
-80
-80
-84
-87
-89
-91
-92
-90
-94
-96
-93
-92
-93
-93
-93
-94
-94
-95
-94
-90
-90
-91
-91
-89
-86
-85
-86
-81
-79
-77
-75
-74
-68
-66
-63
-55
-49
-44
-43
-35
-27
-22
-18
-12
-4
-2
3
8
15
19
17
20
25
25
25
19
20
20
13
3
1
-4
-12
-22
-26
-30
-37
-45
-47
-50
-50
-56
-62
-60
-61
-63
-66
-64
-64
-66
-68
-65
-63
-65
-68
-64
-61
-62
-63
-60
-59
-60
-62
-60
-58
-58
-58
-58
-54
-55
-56
-58
-56
-55
-55
-59
-55
-57
-57
-60
-57
-59
-61
-62
-60
-60
-62
-65
-64
-62
-63
-66
-68
-67
-67
-69
-70
-67
-68
-74
-74
-70
-70
-72
-76
-74
-72
-74
-74
-74
-74
-74
-76
-75
-73
-72
-71
-71
-66
-62
-60
-59
-56
-55
-54
-53
-52
-51
-49
-51
-49
-52
-56
-61
-63
-59
-57
-60
-62
-66
-67
-73
-76
-76
-80
-84
-86
-84
-86
-87
-87
-85
-85
-85
-88
-86
-83
-85
-88
-92
-104
-116
-115
-94
-49
-30
152
264
342
364
314
170
13
-76
-105
-95
-72
-60
-70
-80
-78
-77
-83
-88
-89
-87
-91
-93
-93
-91
-91
-94
-96
-93
-93
-92
-95
-93
-90
-91
-93
-90
-88
-87
-88
-88
-82
-82
-82
-79
-74
-72
-70
-66
-61
-60
-54
-47
-43
-38
-32
-27
-19
-13
-8
-5
4
7
10
12
16
21
23
23
24
25
25
19
18
14
12
-2
-5
-10
-19
-29
-34
-39
-46
-49
-54
-56
-55
-59
-64
-63
-63
-63
-69
-69
-66
-65
-68
-66
-66
-66
-68
-66
-61
-62
-62
-62
-60
-59
-60
-62
-59
-55
-58
-60
-56
-55
-56
-59
-57
-56
-54
-58
-57
-55
-54
-59
-60
-59
-58
-61
-62
-60
-63
-63
-66
-65
-62
-66
-69
-67
-66
-68
-70
-70
-67
-69
-72
-73
-71
-69
-72
-73
-73
-70
-74
-73
-69
-71
-73
-74
-72
-70
-70
-70
-65
-58
-58
-59
-57
-53
-51
-53
-51
-49
-49
-49
-49
-48
-53
-55
-60
-60
-56
-56
-56
-59
-62
-68
-70
-73
-74
-76
-79
-81
-83
-84
-87
-88
-84
-85
-86
-85
-82
-86
-83
-84
-83
-82
-83
-91
-104
-116
-114
-101
-69
-9
85
181
275
348
372
327
206
58
16
-94
-102
-93
-73
-62
-67
-71
-75
-78
-81
-79
-84
-88
-91
-91
-92
-91
-93
-91
-89
-92
-95
-93
-92
-91
-94
-92
-92
-90
-90
-91
-87
-85
-86
-89
-84
-82
-82
-81
-80
-76
-73
-73
-70
-64
-59
-58
-55
-48
-45
-40
-35
-28
-25
-20
-17
-8
-3
-1
1
8
14
16
17
22
26
25
23
25
26
23
17
14
11
9
-3
-9
-14
-19
-28
-35
-37
-40
-44
-51
-51
-53
-56
-61
-58
-57
-62
-65
-65
-62
-62
-65
-65
-64
-65
-64
-63
-60
-62
-60
-62
-60
-58
-58
-60
-57
-55
-55
-56
-56
-54
-54
-55
-54
-54
-54
-55
-55
-53
-53
-56
-57
-57
-57
-58
-60
-56
-56
-59
-62
-60
-60
-61
-64
-63
-61
-64
-67
-66
-64
-66
-67
-67
-67
-66
-70
-71
-71
-70
-73
-72
-72
-71
-71
-75
-73
-72
-73
-75
-72
-70
-71
-74
-73
-72
-72
-72
-70
-64
-63
-60
-60
-57
-56
-55
-53
-48
-49
-49
-49
-47
-49
-55
-62
-63
-58
-58
-60
-62
-65
-70
-73
-73
-75
-77
-81
-82
-80
-81
-86
-87
-86
-84
-84
-84
-81
-81
-82
-83
-81
-82
-89
-105
-112
-104
-82
-35
52
152
182
321
352
313
193
54
-45
-95
-105
-92
-69
-60
-70
-77
-79
-75
-80
-85
-88
-87
-86
-85
-89
-91
-88
-86
-90
-90
-89
-87
-89
-91
-87
-86
-88
-90
-86
-84
-85
-86
-82
-80
-79
-80
-76
-74
-73
-72
-68
-64
-62
-59
-54
-48
-44
-43
-36
-29
-23
-22
-16
-9
-4
0
3
8
14
14
14
16
22
24
19
20
20
19
9
3
2
-7
-16
-21
-22
-30
-37
-39
-41
-44
-49
-52
-53
-54
-55
-56
-58
-57
-58
-61
-61
-59
-58
-59
-60
-57
-57
-60
-58
-56
-56
-56
-57
-54
-53
-52
-54
-52
-49
-49
-49
-49
-48
-48
-52
-52
-47
-48
-49
-48
-50
-48
-51
-52
-48
-50
-51
-54
-52
-52
-53
-56
-54
-55
-55
-58
-60
-58
-59
-62
-63
-60
-61
-65
-65
-64
-63
-66
-68
-66
-66
-67
-68
-66
-64
-66
-68
-67
-65
-66
-68
-66
-63
-60
-54
-54
-52
-50
-50
-50
-41
-43
-46
-44
-43
-44
-48
-53
-53
-51
-51
-52
-52
-55
-61
-64
-66
-67
-69
-75
-75
-76
-77
-78
-78
-77
-78
-79
-80
-77
-76
-79
-80
-78
-82
-99
-114
-101
-75
-26
68
186
290
351
354
272
119
69
-89
-99
-78
-59
-56
-67
-70
-69
-72
-79
-80
-79
-82
-84
-85
-83
-83
-85
-85
-82
-82
-84
-85
-82
-81
-82
-83
-81
-77
-80
-81
-77
-75
-74
-73
-70
-66
-64
-64
-57
-52
-51
-50
-43
-34
-31
-29
-22
-14
-12
-5
1
8
11
13
16
20
24
26
26
30
30
28
24
23
22
15
7
4
-3
-11
-20
-26
-29
-29
-43
-46
-47
-50
-54
-57
-56
-57
-60
-61
-59
-59
-60
-63
-60
-60
-62
-62
-61
-58
-58
-59
-58
-54
-52
-54
-54
-53
-51
-55
-55
-51
-50
-52
-53
-53
-50
-52
-53
-52
-50
-51
-54
-52
-53
-54
-60
-58
-56
-56
-61
-61
-59
-60
-62
-63
-63
-63
-65
-66
-66
-65
-67
-71
-68
-68
-68
-70
-68
-70
-68
-71
-71
-68
-67
-70
-70
-64
-61
-56
-56
-52
-51
-51
-52
-48
-45
-47
-45
-45
-45
-49
-54
-55
-54
-52
-53
-58
-60
-61
-69
-72
-72
-74
-77
-81
-79
-79
-81
-83
-82
-81
-81
-81
-79
-74
-79
-81
-83
-83
-94
-115
-115
-97
-90
-10
92
203
297
359
359
272
116
-27
-85
-96
-89
-71
-56
-62
-68
-72
-75
-75
-77
-81
-87
-86
-88
-88
-88
-89
-86
-87
-88
-90
-86
-86
-87
-87
-84
-82
-81
-86
-83
-78
-79
-77
-75
-72
-72
-71
-69
-65
-63
-60
-56
-50
-45
-43
-37
-28
-24
-20
-14
-7
-2
2
5
11
19
20
22
28
30
33
33
33
33
32
28
24
22
16
7
2
-4
-11
-19
-27
-30
-33
-39
-46
-45
-49
-51
-52
-52
-53
-55
-56
-55
-54
-54
-55
-56
-55
-54
-57
-55
-49
-49
-49
-51
-51
-46
-47
-50
-46
-43
-44
-49
-45
-42
-44
-45
-45
-39
-39
-45
-46
-44
-46
-48
-49
-47
-47
-52
-51
-52
-51
-56
-55
-55
-55
-59
-61
-57
-57
-58
-62
-61
-60
-58
-62
-64
-63
-61
-63
-64
-61
-61
-60
-61
-57
-54
-49
-50
-48
-46
-46
-44
-41
-39
-40
-40
-38
-39
-41
-50
-52
-48
-48
-47
-51
-54
-56
-61
-62
-64
-64
-68
-70
-71
-70
-71
-72
-73
-70
-73
-75
-72
-70
-71
-72
-74
-74
-88
-106
-106
-88
-57
7
112
222
311
361
354
253
99
-26
-84
-92
-83
-60
-48
-54
-59
-59
-64
-66
-67
-72
-73
-75
-75
-75
-76
-80
-78
-75
-77
-80
-76
-75
-76
-76
-73
-70
-72
-72
-74
-69
-68
-69
-68
-64
-61
-63
-60
-54
-52
-52
-48
-43
-38
-36
-35
-27
-21
-14
-11
-6
2
6
8
12
18
20
23
28
30
32
35
35
36
36
34
29
27
20
14
4
1
-6
-10
-19
-22
-26
-30
-36
-38
-38
-38
-43
-44
-45
-42
-45
-46
-45
-47
-48
-47
-44
-42
-44
-44
-41
-40
-40
-44
-39
-39
-39
-41
-42
-39
-39
-39
-38
-36
-35
-38
-39
-38
-37
-39
-43
-41
-38
-41
-44
-44
-40
-43
-46
-46
-48
-48
-53
-52
-50
-50
-53
-55
-53
-54
-59
-59
-58
-56
-58
-60
-58
-59
-60
-62
-60
-58
-59
-59
-59
-56
-56
-53
-48
-44
-45
-44
-42
-38
-36
-36
-38
-36
-33
-36
-40
-43
-46
-46
-45
-42
-41
-46
-53
-55
-57
-60
-65
-66
-66
-68
-72
-73
-70
-70
-72
-73
-70
-70
-74
-74
-71
-70
-73
-83
-96
-103
-88
-64
-3
92
194
280
343
355
351
176
36
-55
-95
-99
-76
-50
-50
-58
-65
-64
-65
-68
-75
-75
-74
-76
-79
-81
-79
-78
-82
-79
-79
-78
-81
-82
-78
-78
-79
-78
-76
-74
-76
-78
-73
-72
-72
-71
-69
-66
-66
-67
-62
-57
-56
-56
-51
-45
-44
-38
-34
-26
-20
-19
-15
-9
-5
0
4
10
15
18
19
23
25
26
25
26
27
24
18
14
11
9
-4
-11
-17
-23
-31
-35
-39
-41
-46
-51
-49
-51
-54
-55
-55
-53
-54
-57
-57
-56
-58
-59
-58
-54
-54
-54
-52
-50
-49
-51
-50
-44
-45
-46
-48
-46
-45
-46
-47
-46
-47
-45
-48
-48
-46
-48
-51
-50
-51
-50
-53
-55
-54
-54
-57
-58
-57
-57
-60
-60
-62
-63
-63
-67
-63
-62
-64
-68
-66
-63
-66
-69
-68
-65
-64
-67
-68
-64
-62
-61
-57
-50
-52
-52
-55
-48
-44
-46
-49
-44
-43
-45
-49
-53
-55
-58
-57
-53
-54
-56
-64
-67
-64
-69
-74
-76
-77
-78
-80
-83
-79
-77
-82
-82
-80
-80
-80
-80
-79
-78
-82
-96
-111
-118
-116
-86
-38
55
156
246
323
362
334
234
77
-43
-92
-101
-85
-61
-56
-66
-71
-73
-73
-79
-85
-85
-85
-87
-90
-90
-89
-89
-92
-94
-90
-89
-89
-91
-87
-89
-88
-90
-87
-85
-86
-89
-84
-81
-82
-81
-79
-75
-74
-73
-68
-65
-63
-60
-58
-52
-48
-47
-39
-32
-27
-28
-21
-14
-6
-4
-1
5
9
11
13
17
20
22
19
20
20
16
9
5
0
-6
-12
-19
-24
-31
-38
-45
-47
-51
-55
-59
-58
-60
-62
-64
-62
-61
-62
-64
-66
-64
-62
-65
-64
-61
-59
-61
-62
-60
-57
-58
-59
-59
-56
-58
-59
-56
-55
-55
-55
-57
-54
-54
-58
-60
-58
-58
-62
-59
-55
-55
-58
-61
-61
-62
-64
-64
-63
-64
-67
-67
-68
-66
-68
-71
-72
-69
-69
-72
-73
-69
-72
-75
-76
-74
-74
-75
-76
-76
-75
-75
-76
-72
-70
-68
-67
-63
-61
-59
-60
-58
-52
-50
-55
-53
-49
-53
-57
-62
-62
-63
-63
-62
-62
-65
-71
-75
-75
-77
-80
-84
-82
-83
-86
-88
-85
-85
-85
-88
-88
-85
-84
-86
-87
-86
-86
-87
-91
-100
-113
-114
-100
-69
-8
88
180
259
310
320
268
156
34
0
-100
-109
-96
-74
-68
-75
-79
-81
-82
-82
-84
-88
-90
-94
-91
-92
-93
-94
-95
-93
-96
-97
-97
-94
-94
-94
-94
-91
-93
-94
-94
-91
-89
-90
-90
-87
-86
-85
-87
-82
-76
-77
-76
-72
-68
-69
-63
-58
-53
-51
-46
-38
-34
-30
-27
-22
-14
-11
-9
-5
0
4
6
6
10
9
9
6
7
7
1
-6
-10
-12
-15
-28
-32
-35
-42
-47
-48
-50
-53
-56
-59
-59
-59
-60
-62
-62
-61
-62
-66
-66
-63
-63
-65
-64
-61
-62
-62
-60
-58
-58
-59
-60
-56
-56
-57
-57
-55
-54
-52
-55
-53
-49
-53
-55
-54
-52
-55
-55
-55
-52
-52
-57
-59
-55
-57
-62
-64
-59
-60
-62
-63
-64
-63
-68
-68
-68
-67
-71
-72
-72
-71
-71
-74
-74
-71
-72
-75
-75
-73
-73
-77
-78
-75
-74
-76
-80
-77
-78
-78
-80
-75
-69
-69
-66
-63
-62
-62
-62
-58
-56
-56
-57
-55
-52
-53
-58
-59
-59
-64
-66
-65
-62
-64
-70
-71
-74
-76
-80
-84
-83
-85
-89
-90
-90
-88
-89
-93
-94
-91
-92
-93
-92
-89
-90
-91
-92
-91
-94
-106
-125
-128
-119
-102
-74
-6
92
190
276
339
347
341
151
7
-76
-104
-108
-95
-71
-66
-76
-81
-82
-83
-86
-89
-93
-96
-96
-98
-97
-99
-98
-100
-101
-99
-99
-101
-100
-98
-100
-100
-99
-97
-97
-97
-97
-94
-94
-94
-95
-92
-89
-89
-89
-86
-82
-80
-81
-77
-71
-69
-67
-61
-56
-53
-52
-45
-39
-34
-29
-27
-21
-15
-12
-8
-3
2
3
5
7
9
11
8
9
9
7
-2
-6
-10
-15
-25
-32
-34
-41
-46
-53
-55
-58
-60
-67
-66
-68
-69
-71
-71
-73
-71
-73
-73
-70
-72
-72
-72
-68
-70
-71
-72
-68
-66
-67
-69
-66
-67
-66
-65
-63
-65
-63
-66
-63
-62
-61
-65
-63
-64
-63
-67
-67
-65
-68
-70
-71
-69
-68
-72
-73
-73
-72
-77
-76
-77
-77
-81
-81
-81
-80
-81
-83
-84
-82
-81
-85
-84
-84
-82
-83
-85
-84
-82
-83
-84
-82
-84
-85
-87
-83
-80
-82
-83
-78
-72
-71
-71
-71
-66
-66
-64
-61
-60
-59
-58
-60
-62
-63
-66
-72
-72
-71
-69
-71
-72
-76
-80
-84
-85
-86
-88
-92
-95
-92
-93
-96
-95
-95
-95
-95
-97
-95
-95
-97
-98
-94
-96
-97
-98
-99
-111
-128
-132
-113
-88
-30
66
173
266
293
347
299
167
14
-83
-110
-113
-103
-83
-76
-83
-87
-90
-95
-94
-94
-100
-102
-103
-103
-104
-107
-107
-104
-103
-108
-107
-103
-106
-108
-105
-103
-104
-105
-104
-100
-100
-99
-103
-97
-94
-91
-94
-90
-87
-86
-84
-79
-72
-71
-68
-61
-54
-51
-47
-41
-35
-30
-28
-23
-16
-15
-11
-9
-2
1
1
3
5
5
3
-1
-3
-6
-8
-21
-26
-33
-40
-48
-53
-55
-61
-67
-69
-68
-71
-73
-77
-76
-75
-76
-77
-78
-75
-76
-79
-76
-74
-73
-75
-74
-73
-70
-71
-71
-67
-68
-69
-69
-67
-64
-66
-67
-66
-64
-66
-69
-68
-67
-67
-71
-69
-72
-71
-73
-75
-72
-76
-78
-82
-78
-80
-81
-80
-80
-78
-83
-84
-81
-82
-84
-87
-84
-84
-85
-88
-86
-85
-84
-87
-88
-84
-85
-87
-88
-85
-84
-85
-88
-84
-87
-86
-88
-84
-85
-86
-85
-84
-80
-74
-75
-72
-68
-67
-66
-66
-62
-59
-62
-61
-61
-61
-66
-71
-70
-71
-68
-68
-68
-72
-76
-80
-79
-80
-84
-87
-90
-87
-88
-90
-91
-89
-90
-91
-92
-89
-89
-92
-91
-90
-89
-91
-93
-88
-85
-87
-89
-87
-95
-113
-118
-101
-70
-59
99
215
311
361
335
207
45
-67
-104
-104
-82
-63
-66
-76
-76
-74
-78
-85
-89
-87
-89
-90
-90
-86
-86
-90
-89
-87
-85
-88
-88
-84
-82
-85
-85
-81
-77
-80
-80
-76
-72
-72
-72
-66
-62
-61
-60
-56
-48
-46
-42
-36
-30
-24
-21
-15
-6
-1
2
5
13
16
18
19
24
28
28
26
26
26
22
16
15
11
9
-4
-11
-14
-21
-27
-32
-34
-36
-41
-44
-44
-45
-48
-50
-48
-47
-48
-50
-46
-44
-45
-47
-47
-44
-43
-44
-41
-41
-40
-42
-41
-37
-36
-37
-37
-37
-35
-35
-37
-36
-33
-36
-38
-36
-34
-36
-38
-37
-37
-37
-41
-42
-40
-41
-43
-45
-44
-45
-46
-48
-46
-47
-47
-51
-50
-48
-53
-54
-50
-51
-52
-54
-54
-52
-51
-56
-55
-53
-54
-55
-55
-56
-53
-55
-56
-55
-52
-54
-54
-49
-43
-42
-41
-37
-36
-36
-35
-32
-29
-29
-31
-30
-31
-35
-43
-42
-37
-37
-39
-42
-45
-48
-52
-55
-57
-58
-60
-62
-63
-61
-61
-65
-61
-61
-62
-64
-65
-66
-64
-63
-64
-60
-62
-60
-62
-59
-58
-62
-66
-79
-93
-88
-69
-24
68
184
285
360
375
371
151
-2
-69
-82
-69
-45
-36
-45
-49
-51
-52
-56
-61
-62
-63
-61
-63
-66
-65
-63
-66
-68
-65
-66
-66
-66
-65
-62
-63
-63
-63
-59
-58
-60
-59
-56
-52
-53
-52
-48
-44
-43
-41
-35
-30
-28
-23
-17
-11
-9
-6
3
9
11
12
16
20
25
26
28
32
33
33
30
32
31
22
18
15
11
3
-5
-10
-15
-18
-29
-32
-32
-36
-40
-44
-44
-45
-49
-50
-47
-45
-50
-52
-50
-48
-50
-51
-49
-48
-49
-51
-47
-43
-44
-48
-44
-43
-46
-46
-45
-43
-43
-44
-46
-44
-42
-45
-42
-44
-43
-46
-48
-45
-45
-46
-48
-51
-49
-49
-52
-51
-50
-53
-55
-57
-58
-57
-62
-64
-60
-59
-63
-66
-65
-62
-64
-67
-65
-64
-67
-70
-71
-68
-69
-71
-70
-68
-69
-71
-73
-69
-70
-73
-76
-72
-71
-74
-74
-69
-66
-66
-63
-58
-55
-56
-57
-54
-53
-53
-53
-54
-55
-60
-66
-67
-63
-60
-61
-68
-69
-71
-74
-79
-78
-79
-82
-86
-86
-84
-87
-88
-86
-86
-85
-89
-89
-89
-88
-91
-93
-88
-89
-88
-89
-87
-86
-89
-93
-104
-118
-118
-103
-73
-13
82
175
262
318
329
265
129
-6
-79
-110
-117
-95
-75
-74
-81
-81
-79
-86
-92
-93
-95
-93
-96
-97
-95
-96
-100
-97
-95
-95
-98
-98
-95
-95
-97
-96
-95
-94
-94
-96
-92
-91
-93
-90
-88
-86
-85
-87
-80
-77
-76
-77
-72
-67
-68
-62
-56
-52
-46
-43
-41
-33
-30
-28
-25
-19
-16
-13
-12
-6
-4
-5
-5
-1
-1
-4
-7
-10
-11
-12
-22
-27
-32
-38
-47
-50
-54
-57
-63
-66
-65
-70
-71
-75
-74
-76
-77
-80
-77
-77
-78
-81
-79
-79
-78
-80
-80
-77
-76
-77
-78
-74
-74
-75
-76
-74
-71
-71
-73
-73
-68
-71
-72
-70
-69
-73
-73
-74
-71
-71
-76
-74
-75
-75
-79
-79
-78
-79
-82
-84
-82
-83
-87
-89
-87
-86
-89
-89
-89
-88
-90
-92
-93
-92
-91
-95
-94
-93
-95
-95
-97
-93
-95
-98
-97
-94
-93
-94
-91
-84
-80
-81
-82
-79
-74
-76
-79
-80
-76
-75
-79
-82
-85
-87
-89
-85
-83
-86
-93
-98
-97
-101
-104
-106
-110
-110
-113
-112
-112
-111
-110
-114
-112
-111
-112
-114
-112
-109
-111
-115
-116
-123
-140
-145
-124
-93
-22
81
189
278
324
302
205
55
-66
-125
-134
-123
-100
-93
-99
-103
-104
-107
-111
-115
-115
-117
-121
-126
-121
-121
-123
-124
-121
-120
-122
-123
-122
-120
-121
-121
-120
-118
-118
-121
-119
-115
-114
-115
-113
-108
-110
-109
-107
-104
-100
-100
-98
-92
-89
-84
-83
-73
-67
-66
-61
-56
-47
-45
-40
-35
-29
-26
-24
-22
-18
-14
-15
-13
-11
-9
-14
-16
-18
-19
-27
-34
-37
-43
-49
-59
-66
-69
-72
-80
-85
-83
-89
-93
-94
-94
-93
-96
-101
-99
-97
-98
-100
-98
-98
-98
-99
-97
-96
-95
-100
-97
-95
-94
-94
-93
-91
-89
-90
-90
-87
-87
-89
-89
-87
-86
-88
-89
-87
-87
-90
-91
-91
-89
-92
-92
-92
-92
-94
-97
-99
-95
-97
-101
-103
-100
-100
-102
-104
-101
-102
-104
-104
-104
-103
-104
-106
-108
-106
-109
-109
-108
-108
-108
-110
-109
-108
-109
-110
-112
-110
-110
-110
-109
-106
-106
-105
-103
-94
-92
-93
-94
-91
-88
-87
-89
-88
-84
-83
-88
-91
-93
-97
-97
-94
-93
-97
-102
-106
-104
-108
-113
-116
-117
-119
-120
-122
-120
-120
-121
-123
-122
-121
-123
-123
-122
-116
-118
-118
-121
-127
-142
-151
-141
-116
-64
32
143
246
320
329
255
106
-37
-117
-136
-136
-120
-112
-99
-107
-109
-110
-111
-116
-116
-119
-121
-123
-120
-121
-123
-126
-123
-122
-123
-125
-124
-123
-124
-125
-125
-121
-120
-123
-121
-117
-117
-118
-117
-115
-113
-112
-112
-105
-103
-105
-102
-95
-90
-89
-87
-79
-77
-72
-66
-61
-54
-53
-46
-38
-34
-32
-30
-27
-20
-18
-17
-16
-12
-9
-10
-15
-13
-16
-21
-27
-29
-33
-42
-50
-55
-61
-63
-73
-78
-78
-84
-88
-91
-88
-92
-94
-96
-94
-95
-96
-97
-94
-94
-95
-97
-95
-93
-93
-96
-94
-90
-89
-93
-92
-87
-88
-90
-89
-88
-89
-90
-88
-86
-84
-85
-87
-84
-86
-87
-87
-86
-84
-87
-88
-89
-89
-89
-92
-93
-91
-92
-95
-95
-92
-95
-96
-98
-96
-96
-99
-101
-101
-100
-101
-102
-100
-98
-101
-104
-102
-101
-102
-105
-105
-102
-101
-103
-102
-103
-102
-103
-104
-99
-100
-101
-102
-99
-95
-94
-96
-90
-87
-85
-86
-83
-80
-81
-78
-78
-78
-77
-78
-80
-79
-83
-86
-88
-83
-81
-81
-83
-87
-89
-93
-100
-101
-100
-100
-105
-106
-105
-105
-109
-108
-106
-106
-108
-109
-105
-106
-107
-108
-104
-103
-108
-110
-118
-128
-135
-123
-103
-66
9
104
194
274
296
323
252
118
-14
-94
-123
-121
-105
-85
-85
-88
-91
-97
-101
-97
-99
-105
-108
-107
-106
-107
-111
-109
-108
-108
-111
-111
-108
-109
-108
-109
-105
-105
-107
-108
-101
-101
-103
-102
-100
-99
-98
-99
-95
-92
-88
-88
-86
-80
-79
-76
-73
-65
-61
-57
-52
-43
-41
-39
-32
-26
-20
-18
-16
-9
-4
-3
-1
4
6
5
3
4
4
3
-3
-6
-10
-13
-22
-28
-32
-38
-44
-49
-52
-57
-61
-66
-65
-67
-69
-73
-70
-70
-72
-75
-73
-73
-73
-73
-75
-71
-71
-70
-73
-67
-67
-67
-69
-65
-65
-63
-66
-62
-63
-64
-63
-62
-60
-60
-63
-60
-60
-61
-62
-62
-60
-61
-64
-63
-62
-64
-66
-67
-66
-67
-70
-72
-68
-70
-72
-75
-75
-73
-76
-78
-77
-77
-77
-84
-81
-77
-79
-81
-82
-77
-78
-81
-81
-77
-80
-80
-81
-79
-77
-76
-78
-73
-70
-70
-68
-66
-63
-64
-61
-58
-56
-57
-57
-58
-58
-62
-68
-70
-65
-63
-63
-67
-71
-74
-77
-81
-83
-84
-86
-87
-88
-88
-91
-90
-91
-87
-88
-90
-89
-86
-87
-89
-91
-88
-98
-115
-128
-117
-98
-62
13
124
231
322
366
359
258
213
-35
-99
-106
-97
-76
-67
-70
-77
-79
-81
-82
-87
-92
-96
-92
-94
-95
-97
-96
-95
-95
-97
-96
-95
-95
-96
-96
-93
-92
-92
-92
-90
-89
-88
-87
-83
-83
-82
-82
-77
-75
-72
-72
-65
-61
-58
-55
-48
-42
-41
-35
-26
-19
-16
-13
-8
-1
4
6
9
16
20
20
21
25
25
23
22
22
17
9
3
-1
-7
-11
-26
-31
-35
-41
-47
-50
-53
-57
-58
-60
-60
-59
-62
-63
-61
-61
-62
-62
-60
-60
-61
-63
-63
-59
-61
-59
-59
-54
-56
-56
-56
-52
-54
-54
-54
-51
-51
-56
-56
-52
-54
-57
-57
-53
-53
-56
-61
-59
-58
-60
-62
-62
-61
-63
-64
-67
-64
-68
-71
-72
-70
-69
-70
-72
-71
-72
-73
-74
-73
-72
-72
-76
-74
-73
-72
-74
-73
-71
-73
-76
-74
-70
-70
-67
-63
-58
-58
-57
-57
-50
-50
-51
-52
-47
-49
-52
-57
-60
-61
-60
-59
-56
-59
-68
-72
-73
-72
-77
-80
-82
-80
-81
-84
-85
-83
-83
-85
-87
-83
-81
-83
-84
-84
-82
-83
-109
-116
-102
-76
-22
79
194
288
355
364
294
134
-19
-92
-103
-97
-72
-58
-62
-70
-73
-74
-76
-77
-79
-82
-83
-82
-85
-88
-87
-83
-84
-87
-86
-85
-84
-87
-86
-82
-80
-83
-83
-81
-80
-80
-81
-77
-74
-75
-72
-70
-65
-62
-62
-57
-50
-46
-43
-39
-29
-25
-20
-17
-9
-2
0
4
9
15
16
19
22
26
27
26
24
24
19
14
10
7
-3
-12
-17
-22
-27
-35
-39
-41
-43
-46
-49
-50
-49
-50
-54
-54
-51
-52
-55
-53
-52
-53
-59
-54
-50
-49
-51
-53
-49
-48
-47
-48
-46
-44
-46
-46
-44
-42
-44
-45
-44
-42
-43
-46
-45
-42
-44
-49
-50
-48
-50
-52
-51
-53
-53
-52
-56
-55
-54
-56
-58
-56
-54
-57
-62
-59
-58
-59
-64
-64
-62
-64
-67
-64
-61
-63
-64
-66
-62
-63
-65
-68
-65
-61
-62
-61
-54
-48
-49
-50
-45
-41
-42
-44
-42
-39
-41
-42
-44
-45
-49
-55
-53
-46
-47
-53
-58
-59
-59
-63
-66
-66
-69
-72
-75
-74
-73
-74
-74
-72
-73
-72
-72
-73
-70
-71
-73
-77
-86
-99
-101
-84
-47
23
121
223
309
354
331
218
61
-44
-69
-93
-69
-49
-53
-63
-67
-65
-68
-74
-76
-76
-77
-80
-81
-78
-77
-81
-81
-78
-76
-76
-80
-78
-76
-75
-78
-75
-73
-72
-74
-71
-66
-65
-65
-64
-58
-58
-56
-53
-47
-41
-39
-35
-26
-19
-15
-11
-3
2
4
8
13
20
23
24
29
30
31
28
25
24
20
12
5
3
-4
-13
-20
-23
-27
-33
-38
-39
-41
-43
-46
-48
-48
-50
-51
-50
-46
-47
-49
-49
-45
-46
-47
-48
-44
-42
-44
-43
-43
-41
-41
-43
-41
-41
-40
-44
-42
-41
-43
-40
-41
-40
-40
-42
-43
-39
-42
-45
-45
-46
-43
-46
-47
-46
-47
-48
-50
-50
-48
-49
-55
-55
-54
-55
-58
-58
-56
-56
-58
-60
-57
-58
-59
-61
-59
-58
-60
-61
-60
-59
-60
-61
-58
-53
-52
-48
-45
-42
-43
-44
-41
-37
-38
-39
-37
-35
-37
-42
-46
-48
-46
-45
-45
-46
-50
-53
-58
-59
-60
-61
-68
-68
-66
-70
-74
-71
-70
-71
-75
-73
-71
-70
-72
-74
-70
-70
-73
-84
-97
-104
-98
-73
-22
74
108
283
366
389
339
203
43
-60
-91
-92
-69
-48
-50
-59
-64
-64
-64
-71
-76
-77
-77
-79
-80
-80
-77
-79
-81
-79
-77
-79
-81
-80
-75
-76
-78
-78
-74
-75
-74
-74
-72
-67
-68
-68
-63
-60
-58
-59
-53
-47
-44
-40
-33
-28
-20
-18
-11
-6
0
4
11
16
19
19
22
27
31
30
30
32
34
30
26
24
20
19
5
-1
-6
-13
-22
-26
-29
-34
-40
-44
-43
-45
-50
-51
-52
-49
-52
-55
-52
-50
-52
-53
-52
-51
-49
-53
-54
-49
-50
-52
-49
-44
-46
-47
-46
-43
-42
-44
-46
-43
-42
-45
-46
-44
-45
-46
-45
-44
-44
-44
-46
-45
-44
-49
-51
-50
-49
-50
-52
-52
-51
-50
-52
-54
-54
-56
-57
-57
-55
-56
-58
-59
-58
-58
-58
-60
-60
-57
-61
-62
-62
-59
-58
-60
-60
-59
-58
-61
-61
-61
-59
-63
-60
-54
-48
-46
-49
-45
-43
-44
-41
-41
-38
-39
-39
-37
-39
-41
-46
-49
-50
-46
-46
-50
-51
-55
-59
-61
-62
-62
-66
-70
-73
-71
-72
-75
-74
-72
-73
-79
-77
-74
-71
-73
-75
-71
-74
-85
-104
-110
-96
-71
-13
89
202
298
364
384
338
312
57
-52
-86
-90
-82
-58
-47
-58
-65
-67
-66
-70
-75
-80
-78
-78
-80
-83
-82
-81
-83
-85
-82
-79
-80
-83
-82
-79
-79
-83
-79
-73
-73
-74
-74
-72
-68
-70
-69
-63
-61
-60
-58
-52
-47
-45
-42
-33
-26
-25
-19
-11
-5
-2
-1
8
13
17
18
21
29
30
31
32
34
35
28
25
26
24
15
9
2
-1
-4
-19
-22
-26
-32
-41
-44
-44
-47
-50
-51
-49
-49
-52
-56
-53
-52
-56
-58
-55
-52
-54
-53
-53
-50
-51
-54
-49
-47
-47
-52
-47
-44
-45
-46
-47
-44
-44
-47
-48
-44
-46
-45
-47
-47
-47
-48
-49
-46
-47
-46
-52
-52
-50
-53
-54
-53
-53
-54
-59
-57
-58
-58
-62
-62
-61
-57
-61
-62
-61
-59
-63
-66
-66
-65
-66
-69
-67
-64
-66
-69
-68
-64
-65
-67
-67
-66
-65
-66
-66
-64
-59
-55
-52
-52
-49
-50
-53
-48
-46
-45
-47
-43
-39
-42
-46
-49
-51
-53
-54
-52
-52
-53
-60
-66
-63
-67
-71
-74
-70
-72
-77
-77
-76
-74
-75
-76
-77
-75
-76
-77
-76
-73
-73
-78
-79
-90
-106
-106
-88
-52
24
132
237
323
358
326
209
59
-45
-70
-99
-79
-56
-55
-64
-66
-65
-67
-74
-77
-77
-77
-80
-82
-81
-80
-83
-83
-80
-81
-83
-83
-80
-78
-79
-82
-79
-76
-78
-78
-77
-76
-76
-76
-74
-70
-65
-67
-65
-56
-55
-56
-53
-45
-42
-40
-37
-30
-25
-24
-15
-7
-2
-2
1
7
14
15
16
20
25
26
26
29
28
26
24
21
17
11
3
-4
-9
-12
-14
-25
-28
-31
-37
-44
-43
-41
-43
-46
-50
-47
-49
-52
-50
-48
-47
-48
-49
-47
-47
-47
-47
-46
-44
-43
-48
-47
-43
-44
-45
-43
-41
-40
-42
-41
-39
-40
-42
-42
-42
-41
-43
-44
-44
-43
-45
-47
-48
-44
-44
-49
-48
-46
-48
-52
-52
-51
-52
-55
-56
-53
-53
-58
-60
-59
-58
-61
-62
-61
-62
-61
-62
-59
-57
-58
-63
-60
-59
-62
-62
-62
-61
-61
-63
-61
-57
-55
-52
-50
-46
-43
-45
-46
-40
-38
-41
-44
-40
-37
-38
-43
-46
-47
-50
-50
-47
-45
-47
-55
-58
-57
-58
-63
-69
-64
-65
-68
-70
-70
-68
-70
-73
-71
-69
-69
-72
-70
-68
-67
-72
-72
-71
-80
-94
-95
-81
-59
-18
61
154
238
304
343
333
245
105
-16
-79
-93
-91
-61
-47
-51
-58
-66
-62
-61
-65
-74
-72
-73
-74
-75
-75
-77
-74
-76
-75
-75
-73
-74
-77
-73
-73
-72
-75
-75
-74
-71
-72
-72
-68
-67
-68
-64
-60
-59
-60
-59
-53
-51
-51
-49
-41
-35
-36
-30
-23
-17
-17
-12
-6
1
6
7
9
16
19
21
23
28
30
30
29
33
35
30
26
25
21
14
7
3
-1
-3
-17
-21
-23
-30
-35
-36
-40
-40
-45
-44
-46
-45
-48
-49
-47
-46
-48
-51
-50
-48
-48
-48
-44
-44
-42
-47
-45
-41
-42
-44
-43
-38
-39
-39
-38
-36
-38
-40
-41
-37
-36
-38
-40
-35
-34
-39
-39
-37
-36
-37
-42
-42
-39
-40
-45
-45
-42
-44
-47
-48
-46
-47
-51
-54
-50
-49
-52
-54
-52
-50
-53
-55
-56
-54
-55
-56
-54
-54
-56
-58
-58
-57
-57
-59
-57
-55
-54
-55
-53
-47
-44
-43
-43
-41
-39
-37
-36
-34
-31
-32
-32
-32
-32
-37
-43
-43
-40
-39
-39
-43
-45
-51
-55
-60
-59
-60
-64
-67
-69
-67
-68
-69
-67
-66
-66
-69
-69
-65
-66
-68
-70
-75
-94
-108
-96
-70
-13
82
194
301
378
391
326
172
15
-74
-93
-80
-50
-41
-49
-56
-57
-59
-64
-69
-68
-70
-73
-77
-75
-74
-77
-78
-75
-73
-75
-77
-75
-73
-73
-75
-73
-69
-69
-73
-68
-65
-66
-66
-62
-58
-57
-57
-52
-45
-43
-39
-37
-28
-24
-19
-17
-8
-1
3
5
15
21
23
25
31
36
37
36
41
43
39
37
35
34
26
19
13
9
1
-10
-16
-20
-25
-32
-36
-37
-38
-39
-45
-46
-45
-45
-46
-47
-43
-46
-48
-48
-44
-44
-45
-45
-42
-40
-41
-41
-39
-38
-38
-40
-38
-34
-35
-39
-38
-36
-35
-39
-38
-36
-37
-39
-40
-39
-38
-40
-42
-40
-40
-43
-43
-43
-43
-45
-48
-45
-44
-47
-50
-53
-51
-52
-55
-56
-53
-56
-56
-57
-55
-57
-58
-58
-56
-55
-56
-59
-57
-55
-57
-60
-55
-56
-56
-55
-53
-45
-41
-46
-42
-41
-40
-38
-37
-34
-33
-35
-35
-37
-41
-45
-47
-40
-42
-48
-53
-54
-57
-56
-66
-64
-64
-66
-70
-70
-67
-68
-69
-71
-66
-64
-68
-69
-69
-74
-95
-105
-93
-68
-8
98
223
330
358
362
237
66
-57
-93
-84
-60
-44
-49
-58
-60
-60
-68
-73
-72
-73
-76
-77
-76
-76
-75
-79
-77
-76
-75
-79
-76
-75
-75
-76
-74
-72
-70
-71
-68
-65
-64
-65
-63
-57
-53
-54
-53
-45
-39
-36
-33
-24
-20
-18
-10
-2
3
8
12
17
24
27
28
32
37
41
40
40
43
41
37
31
26
24
16
7
1
-5
-8
-20
-23
-27
-33
-36
-39
-39
-42
-45
-46
-45
-45
-48
-48
-48
-46
-47
-47
-43
-43
-43
-46
-44
-42
-43
-43
-43
-40
-38
-41
-38
-38
-38
-40
-41
-38
-36
-41
-41
-38
-38
-43
-44
-42
-42
-44
-47
-46
-44
-43
-50
-48
-48
-50
-52
-55
-54
-52
-56
-55
-55
-55
-58
-58
-55
-55
-57
-60
-58
-60
-62
-63
-61
-59
-57
-63
-59
-59
-62
-66
-62
-61
-57
-56
-53
-47
-45
-46
-46
-45
-38
-38
-40
-37
-35
-36
-42
-43
-46
-48
-48
-44
-42
-48
-56
-58
-55
-60
-64
-65
-65
-67
-71
-72
-67
-65
-69
-70
-69
-68
-68
-68
-68
-67
-68
-91
-99
-90
-70
-28
59
165
258
336
370
347
234
82
-34
-81
-92
-78
-52
-46
-53
-60
-64
-62
-66
-68
-77
-76
-72
-76
-78
-77
-74
-74
-77
-79
-76
-74
-77
-76
-74
-73
-72
-73
-72
-70
-72
-70
-67
-64
-63
-64
-60
-57
-56
-55
-49
-43
-39
-38
-34
-27
-21
-18
-13
-5
-1
1
5
13
17
20
23
26
28
30
31
34
35
32
27
26
22
19
12
7
2
-5
-13
-18
-20
-25
-30
-33
-35
-36
-39
-43
-41
-41
-42
-45
-45
-43
-43
-46
-44
-40
-40
-42
-41
-37
-37
-38
-40
-35
-34
-37
-38
-36
-34
-36
-37
-34
-33
-34
-39
-34
-33
-35
-42
-41
-38
-39
-41
-41
-41
-41
-46
-47
-43
-45
-46
-48
-47
-47
-49
-52
-49
-50
-49
-55
-53
-51
-51
-55
-55
-52
-52
-56
-55
-53
-52
-56
-56
-48
-44
-44
-40
-39
-36
-39
-37
-34
-31
-32
-32
-29
-29
-33
-37
-40
-41
-39
-38
-40
-40
-45
-52
-54
-55
-55
-59
-61
-61
-63
-65
-68
-67
-65
-64
-67
-65
-62
-62
-66
-65
-65
-69
-86
-94
-89
-76
-53
8
104
211
301
363
366
293
145
8
-70
-86
-88
-60
-44
-46
-55
-59
-57
-55
-62
-70
-71
-69
-70
-73
-75
-73
-69
-71
-73
-73
-70
-72
-73
-72
-69
-70
-72
-69
-67
-67
-68
-64
-61
-61
-60
-59
-54
-52
-51
-48
-44
-40
-38
-33
-26
-21
-19
-14
-6
0
1
6
13
19
22
23
28
33
37
37
40
42
43
39
36
36
30
24
19
14
8
2
-8
-11
-18
-20
-31
-33
-34
-37
-38
-40
-38
-41
-42
-46
-43
-41
-46
-44
-42
-41
-41
-43
-39
-39
-40
-39
-38
-35
-35
-36
-33
-35
-34
-39
-36
-35
-33
-34
-34
-34
-36
-37
-38
-35
-35
-37
-39
-38
-38
-42
-44
-42
-41
-42
-46
-46
-43
-45
-50
-48
-46
-46
-50
-50
-49
-47
-52
-53
-51
-50
-50
-53
-51
-49
-52
-54
-53
-50
-49
-57
-54
-51
-52
-54
-51
-47
-43
-42
-38
-37
-35
-37
-37
-29
-29
-31
-33
-27
-26
-33
-35
-37
-40
-41
-41
-36
-38
-41
-48
-50
-50
-53
-56
-60
-58
-62
-65
-64
-63
-62
-64
-65
-63
-63
-63
-66
-63
-63
-64
-67
-68
-80
-98
-100
-83
-54
2
91
195
290
361
384
346
223
64
-45
-85
-84
-67
-50
-44
-48
-52
-53
-59
-58
-61
-66
-70
-72
-73
-72
-75
-75
-73
-72
-74
-76
-73
-71
-74
-75
-73
-70
-71
-72
-69
-68
-68
-70
-66
-62
-64
-66
-60
-56
-56
-56
-55
-47
-46
-43
-39
-36
-31
-28
-23
-16
-10
-7
-2
5
12
13
15
24
30
32
35
38
42
44
42
45
46
45
41
37
35
30
24
16
11
7
-2
-10
-12
-16
-19
-31
-33
-34
-35
-43
-41
-38
-44
-47
-46
-44
-43
-47
-44
-45
-45
-45
-46
-40
-39
-41
-44
-41
-37
-37
-42
-39
-35
-37
-39
-40
-36
-38
-40
-38
-33
-36
-39
-39
-38
-37
-41
-41
-40
-39
-41
-44
-45
-43
-45
-51
-49
-46
-48
-52
-51
-49
-53
-54
-55
-54
-54
-56
-56
-55
-56
-60
-60
-57
-56
-59
-60
-58
-55
-56
-59
-58
-52
-53
-54
-47
-41
-42
-45
-42
-38
-36
-37
-37
-33
-31
-33
-36
-39
-41
-46
-49
-45
-40
-40
-52
-54
-57
-59
-64
-65
-63
-67
-69
-71
-69
-69
-75
-73
-70
-71
-71
-73
-71
-69
-69
-72
-72
-84
-89
-108
-94
-71
-24
59
166
265
342
376
344
234
78
-43
-92
-87
-70
-54
-49
-55
-60
-63
-67
-68
-70
-72
-80
-79
-77
-76
-79
-79
-78
-79
-82
-81
-79
-78
-80
-81
-81
-78
-78
-80
-76
-77
-77
-75
-73
-69
-70
-69
-67
-64
-62
-63
-59
-56
-52
-50
-44
-37
-35
-34
-29
-21
-14
-12
-4
2
6
9
11
17
22
23
24
29
31
29
30
31
32
28
25
17
13
4
-3
-9
-12
-22
-26
-33
-38
-41
-42
-43
-46
-46
-45
-51
-49
-49
-53
-56
-53
-49
-49
-51
-51
-49
-46
-49
-48
-46
-45
-44
-45
-43
-43
-45
-46
-45
-45
-44
-46
-44
-42
-43
-46
-46
-43
-45
-48
-48
-47
-47
-50
-51
-47
-49
-52
-54
-53
-53
-54
-56
-54
-57
-58
-59
-59
-61
-60
-61
-61
-60
-62
-63
-64
-64
-62
-64
-65
-63
-63
-65
-67
-63
-60
-61
-60
-57
-52
-50
-49
-49
-46
-44
-43
-41
-39
-41
-42
-43
-42
-44
-51
-53
-46
-45
-51
-53
-54
-57
-62
-65
-66
-66
-67
-76
-73
-69
-71
-73
-72
-69
-71
-72
-72
-73
-72
-73
-75
-74
-76
-95
-102
-89
-70
-31
45
141
227
253
339
332
236
98
-19
-81
-101
-88
-60
-51
-60
-62
-66
-67
-67
-71
-73
-75
-75
-76
-80
-78
-76
-76
-76
-82
-77
-77
-76
-81
-81
-78
-77
-77
-74
-72
-72
-73
-74
-70
-68
-70
-68
-62
-59
-57
-58
-53
-47
-44
-42
-36
-28
-29
-25
-21
-15
-8
-5
0
3
8
8
12
19
19
22
26
25
27
24
22
22
19
17
8
4
0
-8
-13
-17
-22
-27
-33
-35
-37
-38
-42
-46
-44
-43
-46
-48
-46
-45
-47
-48
-46
-44
-45
-47
-46
-44
-43
-46
-43
-42
-41
-43
-42
-40
-39
-41
-42
-39
-37
-39
-40
-38
-37
-39
-41
-38
-36
-37
-42
-38
-37
-38
-41
-40
-39
-38
-42
-45
-43
-43
-49
-47
-43
-45
-46
-48
-49
-48
-50
-52
-50
-50
-50
-54
-53
-49
-51
-55
-53
-54
-51
-55
-55
-54
-52
-54
-50
-42
-37
-38
-41
-36
-34
-34
-33
-30
-30
-29
-33
-33
-33
-39
-42
-43
-38
-37
-42
-43
-46
-48
-57
-57
-57
-60
-63
-63
-66
-67
-69
-70
-68
-67
-66
-69
-68
-67
-68
-68
-68
-66
-75
-91
-99
-90
-73
-39
34
126
218
300
354
362
306
178
34
-63
-97
-103
-76
-49
-46
-57
-63
-62
-60
-63
-71
-75
-74
-74
-76
-76
-74
-73
-76
-78
-74
-74
-79
-79
-76
-73
-74
-77
-74
-71
-72
-74
-70
-66
-67
-68
-66
-62
-61
-63
-58
-52
-50
-48
-46
-38
-35
-32
-25
-18
-12
-11
-4
2
8
11
13
19
26
27
28
32
37
38
35
35
33
30
24
21
15
8
-1
-7
-12
-19
-21
-32
-34
-37
-41
-43
-44
-44
-45
-48
-48
-48
-48
-51
-49
-48
-47
-49
-49
-46
-45
-44
-46
-43
-41
-42
-43
-44
-42
-42
-44
-41
-40
-40
-41
-41
-39
-39
-40
-44
-41
-40
-43
-45
-41
-42
-45
-46
-48
-45
-45
-49
-51
-49
-49
-55
-51
-49
-52
-56
-55
-53
-51
-55
-56
-53
-52
-57
-57
-54
-53
-57
-57
-52
-49
-49
-46
-43
-39
-41
-40
-36
-32
-35
-34
-33
-32
-36
-40
-43
-43
-41
-41
-41
-44
-48
-53
-57
-60
-60
-61
-66
-67
-66
-68
-69
-69
-66
-68
-68
-67
-67
-64
-70
-70
-73
-88
-104
-99
-76
-33
51
162
266
347
367
330
194
35
-69
-96
-88
-63
-47
-48
-57
-59
-61
-63
-69
-71
-74
-74
-76
-74
-73
-77
-79
-76
-76
-77
-79
-76
-77
-75
-77
-74
-71
-72
-73
-71
-69
-66
-68
-66
-63
-60
-61
-57
-52
-49
-45
-42
-37
-27
-25
-21
-11
-5
1
1
11
16
19
21
25
32
34
34
37
41
41
39
37
37
34
25
17
14
7
4
-12
-16
-20
-28
-33
-36
-37
-41
-44
-44
-46
-44
-49
-48
-47
-47
-47
-48
-47
-44
-45
-46
-44
-41
-40
-43
-44
-40
-41
-43
-39
-36
-37
-39
-39
-39
-40
-43
-43
-41
-42
-43
-45
-44
-44
-46
-46
-48
-49
-48
-52
-51
-50
-55
-56
-56
-55
-57
-57
-57
-58
-56
-58
-59
-58
-61
-61
-59
-56
-53
-51
-48
-43
-42
-41
-43
-38
-33
-35
-36
-34
-31
-36
-43
-44
-47
-45
-45
-45
-46
-49
-54
-57
-59
-62
-63
-68
-69
-70
-69
-74
-74
-71
-71
-73
-71
-70
-71
-72
-72
-72
-85
-106
-113
-98
-71
-15
90
212
317
379
378
294
128
73
-88
-96
-79
-56
-51
-59
-65
-66
-69
-71
-73
-79
-81
-83
-81
-80
-81
-83
-82
-80
-82
-85
-82
-80
-81
-81
-78
-76
-77
-79
-76
-75
-75
-73
-68
-65
-63
-61
-58
-53
-48
-47
-41
-34
-26
-26
-18
-12
-6
-5
2
10
15
17
19
22
28
31
31
29
32
32
27
22
19
11
5
-3
-8
-14
-23
-31
-36
-36
-39
-47
-46
-44
-48
-51
-51
-47
-50
-52
-49
-49
-48
-51
-51
-48
-48
-47
-49
-47
-45
-46
-48
-44
-41
-41
-46
-43
-41
-41
-43
-42
-41
-42
-47
-45
-46
-46
-47
-49
-48
-47
-49
-50
-50
-49
-50
-53
-53
-53
-55
-56
-55
-53
-55
-58
-58
-56
-59
-62
-62
-59
-60
-61
-59
-58
-57
-61
-62
-58
-57
-58
-58
-51
-45
-44
-47
-46
-44
-42
-41
-38
-41
-38
-38
-40
-39
-43
-50
-54
-48
-45
-45
-49
-53
-57
-59
-62
-62
-63
-65
-71
-72
-70
-70
-73
-71
-67
-70
-73
-69
-68
-67
-71
-71
-72
-83
-102
-102
-84
-53
14
119
230
315
335
328
218
74
-40
-94
-93
-68
-50
-54
-62
-64
-63
-69
-72
-73
-75
-77
-79
-77
-78
-81
-81
-77
-75
-75
-80
-77
-76
-78
-80
-77
-75
-75
-78
-72
-70
-69
-73
-70
-66
-64
-61
-58
-54
-50
-47
-45
-35
-32
-32
-24
-17
-9
-6
-4
1
7
10
11
16
22
23
24
23
24
25
22
17
17
13
6
-2
-5
-10
-13
-28
-31
-31
-33
-39
-43
-41
-44
-47
-50
-48
-49
-52
-49
-46
-47
-51
-49
-49
-47
-46
-47
-45
-44
-44
-47
-44
-42
-43
-47
-44
-42
-40
-43
-42
-40
-39
-43
-43
-42
-38
-44
-46
-42
-41
-43
-47
-44
-44
-45
-49
-48
-50
-48
-54
-52
-52
-53
-57
-54
-54
-53
-57
-59
-58
-55
-58
-59
-60
-59
-59
-60
-58
-59
-60
-62
-58
-57
-52
-51
-46
-42
-42
-46
-41
-38
-36
-39
-37
-36
-34
-37
-41
-43
-44
-48
-48
-42
-41
-44
-54
-55
-57
-62
-65
-64
-64
-69
-71
-73
-69
-69
-73
-72
-70
-70
-72
-71
-71
-70
-72
-79
-87
-99
-102
-85
-49
28
134
236
321
366
346
237
73
-49
-96
-97
-73
-49
-50
-61
-65
-65
-67
-72
-77
-79
-76
-78
-81
-83
-78
-80
-84
-80
-78
-79
-80
-81
-79
-79
-81
-79
-77
-77
-77
-77
-74
-72
-71
-69
-65
-63
-64
-62
-55
-52
-51
-49
-43
-37
-34
-32
-23
-17
-13
-10
-5
3
6
7
11
17
19
22
22
28
31
32
29
27
29
24
20
16
15
6
-4
-8
-10
-15
-25
-29
-32
-34
-43
-45
-44
-45
-48
-52
-50
-49
-50
-54
-52
-50
-50
-52
-52
-49
-49
-51
-51
-49
-49
-50
-49
-47
-46
-47
-48
-47
-45
-45
-47
-45
-43
-44
-47
-45
-43
-46
-48
-46
-46
-46
-48
-48
-46
-48
-49
-50
-49
-49
-51
-51
-52
-52
-56
-57
-56
-57
-58
-61
-60
-58
-59
-63
-60
-61
-62
-64
-63
-61
-61
-62
-60
-55
-51
-50
-49
-45
-44
-46
-44
-40
-40
-41
-41
-39
-38
-41
-47
-49
-49
-50
-51
-48
-53
-54
-61
-65
-65
-66
-70
-73
-73
-72
-76
-76
-74
-71
-72
-76
-77
-75
-76
-78
-77
-77
-85
-105
-113
-108
-89
-54
30
150
261
346
383
344
221
57
-62
-105
-101
-99
-64
-53
-58
-67
-72
-71
-71
-77
-84
-82
-83
-83
-86
-88
-86
-85
-86
-89
-86
-86
-86
-87
-86
-84
-85
-87
-83
-82
-81
-83
-79
-74
-74
-74
-72
-68
-64
-64
-61
-56
-49
-50
-44
-37
-30
-29
-21
-14
-6
-4
-1
2
10
12
16
20
25
26
26
30
31
29
26
24
20
17
11
5
0
-6
-16
-22
-27
-29
-31
-42
-43
-44
-47
-53
-53
-51
-53
-56
-56
-55
-55
-57
-58
-53
-52
-53
-54
-51
-49
-48
-50
-50
-48
-47
-49
-47
-44
-47
-48
-45
-45
-45
-45
-45
-43
-44
-44
-42
-43
-44
-46
-48
-47
-48
-51
-54
-49
-49
-50
-55
-53
-53
-54
-57
-58
-58
-58
-60
-60
-59
-60
-63
-60
-61
-60
-63
-63
-63
-60
-62
-64
-64
-62
-62
-57
-51
-48
-49
-50
-45
-42
-40
-42
-42
-41
-39
-42
-43
-43
-48
-53
-53
-49
-47
-49
-53
-55
-57
-59
-67
-65
-67
-69
-74
-72
-70
-73
-74
-73
-69
-71
-74
-75
-72
-71
-75
-83
-97
-106
-96
-78
-32
60
92
264
344
368
326
199
43
-61
-94
-95
-68
-47
-47
-59
-66
-62
-65
-70
-73
-73
-74
-77
-78
-75
-74
-74
-79
-76
-75
-77
-77
-76
-74
-75
-77
-75
-71
-72
-73
-70
-69
-68
-69
-65
-62
-60
-60
-57
-51
-48
-46
-43
-38
-30
-29
-25
-18
-11
-8
-6
1
11
12
15
17
23
29
28
31
35
37
35
34
33
32
29
18
18
13
6
-4
-8
-15
-21
-27
-27
-31
-36
-40
-38
-37
-37
-41
-41
-39
-41
-42
-42
-39
-40
-41
-41
-38
-37
-37
-38
-36
-33
-35
-36
-35
-32
-33
-36
-33
-31
-34
-35
-36
-33
-34
-36
-36
-37
-37
-36
-39
-38
-37
-40
-43
-41
-41
-42
-46
-42
-45
-47
-47
-46
-48
-50
-49
-48
-47
-49
-49
-51
-52
-50
-52
-53
-52
-50
-51
-49
-48
-44
-42
-41
-37
-36
-36
-35
-33
-30
-32
-32
-29
-24
-27
-32
-36
-36
-39
-41
-36
-33
-37
-44
-48
-48
-46
-51
-56
-56
-56
-59
-61
-62
-61
-60
-62
-61
-59
-58
-62
-63
-62
-61
-63
-75
-86
-87
-76
-52
4
91
188
274
342
363
315
194
57
-35
-82
-84
-56
-39
-42
-51
-56
-55
-57
-59
-67
-66
-64
-66
-69
-68
-67
-70
-71
-72
-70
-70
-73
-72
-71
-71
-69
-71
-67
-66
-70
-68
-64
-62
-63
-63
-58
-55
-56
-58
-52
-47
-45
-43
-37
-31
-27
-26
-19
-13
-8
-6
-1
6
11
12
16
22
24
25
29
35
36
36
33
34
30
28
20
18
15
6
-1
-3
-8
-16
-22
-26
-28
-33
-37
-39
-39
-40
-39
-44
-42
-41
-44
-47
-43
-40
-40
-41
-42
-40
-39
-41
-40
-37
-35
-37
-37
-35
-34
-35
-35
-32
-32
-33
-35
-33
-32
-34
-35
-37
-35
-34
-38
-36
-36
-37
-40
-42
-37
-38
-42
-42
-42
-41
-47
-48
-47
-47
-48
-51
-49
-49
-52
-54
-53
-49
-51
-53
-52
-52
-53
-56
-54
-51
-48
-47
-46
-40
-39
-41
-40
-37
-33
-32
-37
-33
-30
-33
-40
-39
-42
-42
-44
-41
-40
-44
-53
-54
-59
-61
-64
-64
-65
-67
-73
-71
-69
-68
-68
-74
-70
-70
-72
-73
-72
-71
-80
-99
-110
-104
-86
-52
37
157
271
354
394
362
241
70
-58
-105
-92
-84
-49
-52
-59
-65
-67
-69
-72
-79
-81
-82
-81
-83
-86
-84
-85
-84
-85
-86
-85
-85
-84
-87
-85
-80
-81
-82
-80
-76
-77
-78
-73
-70
-69
-68
-63
-57
-56
-54
-48
-42
-35
-33
-27
-18
-11
-8
-2
5
10
11
16
23
31
28
28
30
31
29
30
26
22
12
5
0
-8
-17
-25
-30
-35
-38
-44
-49
-47
-51
-53
-57
-57
-54
-56
-57
-57
-54
-55
-56
-53
-51
-53
-55
-56
-52
-50
-51
-50
-49
-48
-49
-52
-46
-46
-46
-49
-48
-47
-51
-52
-52
-50
-51
-53
-53
-52
-52
-55
-56
-53
-54
-58
-59
-56
-57
-59
-60
-61
-59
-60
-64
-62
-61
-66
-69
-68
-64
-65
-69
-67
-67
-67
-69
-70
-65
-64
-62
-60
-52
-50
-53
-51
-48
-48
-47
-47
-44
-40
-43
-49
-52
-52
-56
-57
-51
-50
-56
-64
-65
-66
-72
-75
-77
-77
-80
-83
-83
-80
-82
-84
-86
-81
-80
-82
-86
-83
-85
-100
-119
-123
-108
-78
-13
99
217
319
381
384
291
119
-40
-106
-107
-83
-74
-63
-69
-73
-77
-84
-86
-89
-92
-95
-93
-93
-93
-96
-93
-92
-94
-97
-95
-93
-92
-91
-91
-88
-88
-89
-89
-84
-82
-84
-82
-77
-74
-70
-68
-60
-56
-51
-49
-43
-36
-30
-24
-17
-9
-4
1
3
11
17
18
22
26
27
25
25
24
21
16
8
2
-3
-10
-21
-28
-35
-39
-50
-53
-54
-57
-59
-62
-61
-64
-68
-68
-65
-63
-65
-65
-64
-64
-66
-64
-61
-59
-60
-60
-58
-57
-56
-58
-58
-57
-56
-55
-56
-56
-56
-55
-57
-57
-55
-56
-58
-59
-54
-57
-58
-59
-60
-61
-63
-64
-64
-63
-65
-67
-66
-67
-68
-70
-67
-69
-71
-74
-71
-72
-76
-74
-72
-71
-71
-75
-73
-71
-70
-72
-68
-64
-59
-59
-58
-53
-54
-53
-54
-52
-52
-50
-50
-48
-54
-60
-65
-62
-58
-57
-63
-65
-69
-74
-77
-79
-79
-82
-87
-88
-86
-85
-86
-88
-88
-85
-86
-88
-85
-85
-87
-99
-115
-125
-111
-85
-19
89
203
299
361
356
264
97
-46
-102
-110
-91
-66
-61
-73
-77
-81
-79
-85
-91
-94
-92
-92
-92
-94
-92
-90
-92
-94
-92
-94
-93
-94
-91
-90
-92
-90
-88
-86
-87
-86
-84
-78
-77
-76
-74
-70
-67
-67
-64
-54
-50
-45
-42
-38
-29
-24
-22
-15
-8
-3
0
3
10
12
13
15
20
24
22
19
17
14
11
4
1
-5
-12
-21
-25
-29
-34
-41
-47
-46
-49
-54
-58
-56
-56
-57
-58
-60
-60
-60
-61
-61
-61
-61
-62
-60
-56
-55
-58
-59
-55
-54
-56
-54
-51
-52
-56
-55
-51
-50
-51
-52
-50
-48
-51
-54
-52
-52
-51
-52
-51
-51
-54
-57
-58
-56
-54
-57
-58
-58
-57
-62
-60
-60
-60
-61
-67
-65
-62
-66
-68
-66
-67
-70
-71
-69
-68
-67
-69
-68
-66
-66
-66
-63
-56
-54
-57
-55
-52
-50
-48
-51
-49
-45
-46
-52
-53
-55
-57
-57
-55
-53
-57
-64
-66
-67
-72
-75
-77
-76
-79
-82
-82
-80
-80
-81
-84
-80
-81
-80
-82
-82
-83
-101
-115
-106
-83
-33
55
165
260
330
349
298
165
17
-78
-109
-102
-76
-66
-64
-69
-72
-75
-80
-80
-83
-87
-89
-89
-87
-89
-88
-91
-87
-88
-90
-92
-91
-89
-90
-91
-87
-85
-86
-86
-85
-82
-80
-82
-79
-75
-75
-74
-70
-66
-64
-63
-57
-52
-48
-45
-40
-31
-27
-25
-18
-11
-6
-4
-2
5
11
11
12
19
23
23
24
25
27
23
17
14
12
6
1
-6
-12
-20
-27
-32
-36
-39
-41
-48
-46
-50
-54
-56
-57
-57
-57
-58
-61
-58
-57
-61
-59
-55
-55
-55
-56
-54
-53
-56
-53
-51
-50
-52
-53
-49
-49
-49
-50
-48
-44
-47
-48
-48
-46
-47
-49
-51
-47
-49
-51
-51
-49
-50
-52
-53
-52
-52
-53
-56
-55
-59
-57
-58
-57
-57
-61
-63
-64
-62
-63
-64
-64
-65
-64
-66
-66
-64
-63
-66
-67
-67
-65
-68
-65
-62
-58
-54
-53
-52
-50
-48
-48
-45
-44
-45
-44
-40
-44
-46
-52
-56
-54
-53
-50
-52
-54
-59
-61
-69
-69
-70
-76
-77
-76
-79
-79
-81
-81
-78
-80
-80
-80
-78
-77
-80
-79
-80
-86
-101
-116
-116
-101
-94
-10
95
203
299
367
387
337
200
38
-65
-99
-98
-80
-58
-53
-67
-73
-72
-73
-77
-85
-86
-84
-87
-88
-93
-89
-90
-93
-93
-91
-91
-91
-93
-90
-87
-89
-91
-88
-84
-86
-87
-86
-83
-82
-82
-80
-78
-73
-74
-74
-69
-66
-63
-61
-54
-51
-45
-42
-35
-28
-23
-20
-13
-7
-3
0
5
13
17
18
22
28
30
31
32
34
38
33
30
31
30
20
17
12
8
-4
-10
-16
-20
-28
-36
-40
-41
-44
-49
-52
-52
-51
-52
-56
-54
-57
-56
-58
-57
-54
-56
-57
-56
-54
-55
-55
-53
-51
-51
-50
-51
-50
-48
-49
-48
-49
-46
-46
-48
-45
-44
-45
-46
-47
-44
-46
-46
-46
-45
-47
-49
-49
-47
-49
-52
-50
-50
-50
-54
-54
-53
-54
-55
-58
-57
-56
-60
-59
-59
-58
-62
-63
-62
-61
-60
-63
-61
-60
-62
-64
-63
-59
-59
-58
-53
-46
-45
-46
-46
-43
-41
-39
-41
-40
-37
-39
-41
-44
-47
-50
-51
-47
-45
-51
-56
-59
-61
-65
-69
-72
-71
-74
-76
-79
-75
-77
-78
-80
-78
-74
-77
-76
-77
-76
-79
-90
-105
-111
-104
-86
-43
45
156
267
353
389
343
316
48
-57
-91
-94
-75
-56
-54
-63
-69
-73
-71
-78
-84
-84
-85
-89
-89
-89
-87
-88
-89
-89
-88
-88
-88
-90
-87
-85
-86
-87
-85
-82
-84
-83
-81
-80
-78
-77
-75
-71
-70
-67
-65
-61
-59
-55
-50
-45
-39
-37
-30
-24
-16
-13
-9
-2
5
6
10
14
21
22
24
29
31
28
29
29
28
21
15
10
8
2
-1
-14
-19
-25
-33
-38
-39
-42
-46
-52
-54
-54
-57
-61
-59
-58
-59
-59
-61
-59
-58
-60
-61
-59
-57
-59
-59
-56
-57
-59
-59
-55
-52
-55
-57
-54
-54
-54
-55
-53
-53
-55
-54
-53
-54
-54
-58
-59
-54
-58
-60
-62
-57
-57
-59
-63
-61
-60
-62
-66
-66
-64
-66
-68
-70
-68
-68
-70
-71
-69
-70
-71
-73
-69
-70
-72
-73
-72
-71
-69
-71
-66
-58
-58
-57
-55
-54
-54
-54
-51
-49
-47
-46
-47
-47
-53
-57
-61
-57
-54
-54
-58
-62
-66
-70
-73
-73
-74
-79
-84
-82
-82
-81
-84
-83
-81
-83
-84
-81
-79
-81
-83
-91
-102
-114
-116
-92
-52
31
140
244
328
365
321
192
39
-65
-103
-107
-85
-62
-59
-70
-75
-75
-78
-84
-87
-86
-85
-86
-92
-90
-90
-89
-93
-90
-86
-89
-93
-92
-90
-90
-90
-87
-83
-83
-85
-86
-82
-83
-81
-80
-76
-73
-73
-74
-66
-61
-60
-57
-50
-45
-43
-41
-30
-22
-19
-19
-11
-5
0
2
9
12
14
13
15
23
24
23
18
18
17
9
2
-3
-9
-15
-22
-25
-31
-37
-43
-47
-45
-47
-53
-55
-53
-56
-59
-57
-56
-56
-58
-59
-53
-54
-57
-58
-54
-51
-51
-52
-49
-49
-50
-50
-47
-47
-46
-48
-49
-49
-47
-49
-48
-45
-49
-50
-51
-48
-49
-51
-51
-51
-51
-54
-55
-55
-54
-57
-59
-59
-58
-57
-60
-62
-60
-62
-65
-65
-63
-63
-63
-67
-66
-64
-66
-68
-66
-66
-66
-69
-66
-62
-62
-63
-56
-52
-50
-52
-52
-48
-47
-44
-45
-43
-41
-40
-44
-47
-49
-55
-59
-53
-51
-50
-57
-61
-61
-65
-70
-70
-70
-74
-77
-79
-76
-78
-81
-79
-77
-77
-78
-78
-75
-76
-79
-83
-88
-103
-110
-95
-64
-3
99
201
295
354
366
298
165
22
-79
-113
-97
-67
-56
-58
-71
-72
-72
-78
-84
-81
-83
-85
-87
-85
-84
-86
-87
-86
-85
-85
-88
-88
-84
-85
-85
-86
-82
-82
-81
-82
-79
-77
-78
-79
-75
-71
-70
-69
-63
-61
-55
-55
-49
-43
-39
-37
-32
-23
-17
-14
-10
-3
2
4
9
15
19
19
19
24
26
26
26
25
25
18
14
10
5
-4
-10
-13
-19
-29
-34
-39
-41
-44
-45
-53
-52
-52
-55
-60
-56
-56
-56
-59
-58
-57
-58
-56
-58
-53
-55
-56
-54
-53
-52
-51
-51
-49
-49
-51
-50
-47
-46
-49
-49
-48
-44
-46
-50
-47
-47
-49
-51
-50
-48
-51
-51
-52
-51
-54
-55
-57
-55
-56
-58
-60
-57
-58
-61
-64
-61
-61
-62
-64
-63
-63
-65
-66
-66
-64
-64
-67
-66
-62
-60
-59
-55
-49
-48
-50
-47
-42
-41
-44
-43
-38
-39
-44
-47
-51
-51
-49
-50
-51
-51
-57
-62
-65
-66
-69
-72
-76
-75
-76
-76
-80
-75
-73
-76
-78
-77
-75
-76
-78
-80
-94
-116
-116
-94
-49
38
161
284
370
392
335
183
10
-85
-101
-88
-57
-51
-63
-70
-69
-71
-76
-80
-83
-81
-84
-86
-87
-85
-84
-88
-88
-87
-86
-85
-87
-82
-81
-81
-85
-80
-82
-80
-79
-75
-71
-70
-71
-67
-64
-63
-60
-54
-49
-46
-43
-35
-27
-22
-18
-11
-5
0
0
9
15
22
23
24
30
34
34
35
35
32
30
25
21
17
10
2
-5
-10
-18
-27
-31
-36
-39
-38
-47
-46
-49
-54
-52
-54
-54
-56
-57
-54
-53
-54
-54
-54
-51
-53
-53
-52
-49
-47
-50
-49
-45
-45
-46
-46
-43
-42
-43
-48
-43
-41
-44
-46
-43
-42
-45
-46
-45
-44
-46
-46
-47
-46
-46
-52
-51
-49
-51
-51
-55
-54
-55
-55
-56
-56
-57
-55
-59
-57
-57
-60
-61
-62
-59
-61
-61
-60
-59
-59
-61
-60
-57
-53
-52
-49
-45
-44
-45
-42
-36
-36
-37
-37
-35
-35
-40
-47
-49
-47
-46
-49
-52
-51
-58
-61
-65
-67
-68
-69
-74
-72
-71
-73
-76
-74
-72
-74
-77
-75
-72
-76
-86
-104
-111
-101
-70
-2
116
238
342
400
391
282
236
-38
-101
-96
-75
-52
-48
-58
-64
-65
-68
-71
-76
-79
-79
-79
-80
-80
-81
-78
-81
-84
-82
-80
-81
-82
-82
-80
-77
-77
-77
-75
-72
-74
-73
-70
-68
-66
-64
-62
-58
-57
-54
-51
-43
-38
-35
-31
-24
-17
-15
-6
-1
4
6
11
17
21
25
27
32
34
37
34
36
38
37
32
29
27
19
12
6
0
-7
-10
-19
-25
-27
-33
-39
-39
-42
-43
-46
-46
-44
-47
-49
-48
-47
-45
-47
-47
-46
-45
-45
-43
-43
-42
-43
-47
-43
-38
-40
-41
-39
-38
-40
-39
-39
-37
-36
-39
-40
-35
-38
-42
-43
-42
-42
-45
-45
-43
-44
-43
-47
-46
-46
-49
-53
-50
-49
-51
-51
-52
-54
-57
-58
-56
-57
-55
-56
-57
-55
-57
-57
-56
-54
-57
-58
-58
-55
-56
-56
-56
-53
-46
-46
-44
-40
-37
-38
-38
-35
-32
-35
-35
-33
-32
-35
-39
-43
-42
-42
-42
-41
-43
-47
-52
-55
-57
-57
-59
-62
-64
-64
-64
-66
-64
-64
-66
-68
-67
-63
-63
-65
-67
-64
-64
-67
-92
-96
-85
-67
-25
62
163
259
339
370
340
226
79
-29
-75
-86
-74
-50
-38
-48
-55
-56
-52
-55
-55
-65
-66
-65
-70
-73
-69
-68
-71
-72
-68
-69
-70
-69
-68
-66
-67
-66
-66
-62
-61
-65
-61
-60
-58
-59
-59
-56
-55
-53
-51
-46
-42
-41
-39
-35
-29
-26
-22
-15
-10
-4
-4
1
8
11
13
18
27
30
31
33
37
39
40
40
43
42
39
37
34
31
24
17
14
8
2
-6
-7
-11
-16
-20
-25
-26
-26
-28
-30
-29
-28
-31
-32
-30
-29
-31
-32
-29
-27
-26
-27
-25
-26
-25
-27
-25
-22
-23
-24
-23
-18
-19
-20
-21
-19
-19
-20
-22
-21
-22
-22
-24
-22
-20
-22
-25
-26
-27
-29
-30
-30
-28
-30
-33
-35
-31
-31
-33
-37
-35
-33
-37
-39
-37
-33
-37
-40
-37
-35
-39
-38
-37
-36
-37
-37
-35
-32
-31
-26
-25
-19
-20
-21
-20
-15
-14
-16
-15
-12
-11
-16
-19
-23
-21
-22
-22
-19
-20
-23
-29
-33
-32
-35
-41
-41
-40
-43
-45
-48
-45
-44
-47
-47
-45
-43
-45
-46
-47
-46
-46
-50
-49
-53
-69
-80
-77
-60
-33
24
119
216
306
333
397
372
257
107
-8
-58
-68
-55
-31
-19
-23
-32
-37
-38
-39
-43
-49
-51
-50
-52
-54
-56
-54
-55
-57
-58
-54
-54
-57
-56
-54
-55
-56
-55
-51
-49
-50
-53
-48
-45
-46
-46
-46
-40
-39
-38
-37
-31
-28
-28
-23
-16
-12
-9
-6
1
8
12
16
22
25
33
33
36
42
47
47
51
54
55
54
55
56
56
54
47
46
42
36
28
22
17
8
2
-3
-8
-13
-17
-18
-17
-19
-23
-24
-22
-23
-24
-25
-24
-23
-22
-28
-24
-22
-24
-23
-21
-23
-22
-23
-21
-19
-17
-18
-19
-16
-16
-17
-16
-15
-15
-16
-16
-15
-14
-15
-19
-17
-17
-17
-21
-20
-21
-22
-23
-24
-23
-25
-27
-28
-25
-30
-29
-30
-28
-29
-33
-32
-31
-32
-32
-37
-32
-32
-35
-36
-34
-33
-35
-37
-37
-35
-36
-38
-38
-36
-38
-38
-38
-34
-36
-38
-36
-33
-33
-31
-26
-21
-22
-24
-22
-17
-17
-15
-16
-15
-13
-12
-17
-19
-21
-26
-28
-24
-21
-23
-29
-31
-32
-35
-34
-41
-42
-43
-46
-50
-49
-50
-51
-52
-51
-49
-53
-53
-55
-50
-51
-54
-52
-51
-52
-56
-68
-82
-89
-87
-57
-9
83
190
286
365
400
384
303
159
25
-53
-75
-74
-55
-33
-32
-42
-44
-47
-49
-52
-54
-59
-60
-62
-63
-62
-64
-65
-64
-63
-66
-68
-65
-63
-63
-63
-61
-58
-60
-61
-59
-55
-56
-57
-55
-51
-52
-54
-50
-47
-46
-43
-42
-37
-32
-30
-28
-19
-15
-10
-7
-1
6
12
13
20
27
29
32
38
43
45
46
49
52
53
51
46
47
45
39
34
28
22
13
4
-1
-7
-14
-22
-24
-23
-28
-32
-34
-32
-35
-35
-35
-33
-35
-34
-36
-34
-34
-35
-35
-35
-33
-34
-34
-30
-31
-30
-31
-30
-27
-29
-31
-29
-27
-27
-26
-28
-27
-26
-28
-30
-28
-27
-30
-32
-30
-32
-33
-33
-33
-35
-37
-37
-35
-34
-38
-41
-40
-38
-41
-42
-44
-42
-43
-47
-47
-43
-44
-46
-47
-46
-45
-45
-48
-45
-45
-45
-47
-47
-47
-46
-46
-46
-39
-38
-36
-33
-32
-30
-32
-29
-24
-26
-24
-25
-22
-23
-28
-35
-38
-36
-35
-36
-33
-35
-38
-42
-45
-49
-51
-53
-56
-55
-57
-60
-62
-59
-59
-60
-61
-57
-56
-59
-62
-59
-57
-60
-68
-81
-92
-88
-70
-32
44
147
179
330
378
366
272
125
-4
-70
-83
-77
-49
-38
-45
-53
-52
-50
-55
-60
-60
-62
-63
-68
-69
-68
-68
-68
-70
-67
-66
-68
-69
-65
-66
-69
-68
-64
-64
-63
-66
-61
-60
-61
-62
-58
-55
-55
-54
-49
-47
-41
-40
-36
-29
-26
-23
-20
-13
-6
-3
1
9
15
16
18
26
30
33
34
38
43
44
39
38
37
33
32
21
19
10
3
-6
-12
-18
-21
-24
-29
-31
-34
-39
-37
-36
-35
-37
-39
-36
-37
-39
-39
-35
-36
-36
-40
-36
-35
-35
-36
-34
-32
-33
-34
-32
-32
-33
-32
-31
-30
-32
-35
-35
-33
-35
-36
-34
-34
-34
-36
-39
-37
-38
-39
-42
-41
-41
-42
-43
-45
-43
-46
-49
-48
-45
-46
-49
-50
-50
-50
-51
-53
-51
-53
-55
-53
-51
-52
-53
-55
-52
-51
-51
-50
-44
-38
-38
-40
-37
-32
-30
-31
-34
-32
-32
-31
-35
-35
-40
-42
-43
-36
-36
-42
-49
-50
-52
-55
-58
-59
-60
-64
-66
-67
-64
-65
-66
-67
-65
-66
-67
-65
-62
-64
-65
-71
-78
-96
-102
-89
-61
-9
88
200
301
371
386
324
186
33
-67
-93
-81
-55
-40
-44
-53
-53
-55
-56
-64
-65
-70
-72
-73
-73
-71
-73
-75
-73
-72
-72
-75
-76
-72
-73
-76
-74
-70
-66
-66
-69
-68
-66
-65
-61
-58
-57
-55
-54
-49
-46
-42
-41
-33
-27
-22
-18
-14
-5
0
1
9
16
18
22
23
29
32
35
34
39
41
37
35
36
34
27
19
15
10
-1
-7
-9
-15
-22
-26
-31
-31
-37
-37
-41
-40
-41
-42
-45
-40
-39
-43
-46
-43
-43
-42
-43
-41
-39
-41
-42
-40
-37
-36
-39
-37
-33
-34
-36
-36
-32
-32
-34
-38
-36
-33
-35
-39
-38
-36
-39
-41
-40
-37
-40
-42
-44
-43
-44
-46
-45
-44
-47
-50
-50
-50
-51
-53
-55
-53
-52
-55
-56
-53
-53
-56
-58
-57
-53
-57
-57
-56
-54
-55
-59
-54
-53
-54
-56
-50
-43
-40
-41
-41
-40
-36
-37
-39
-37
-32
-34
-36
-38
-38
-44
-48
-45
-39
-43
-48
-51
-52
-55
-62
-63
-60
-65
-67
-71
-68
-68
-71
-74
-71
-72
-71
-72
-69
-68
-69
-72
-71
-72
-79
-101
-111
-99
-78
-28
73
192
297
327
383
338
202
35
-70
-94
-88
-68
-50
-50
-56
-59
-65
-67
-70
-74
-76
-76
-74
-79
-81
-83
-79
-80
-81
-82
-80
-79
-81
-81
-76
-75
-76
-77
-75
-71
-71
-72
-68
-64
-65
-65
-59
-53
-51
-51
-46
-39
-32
-29
-22
-18
-10
-7
-1
6
10
15
16
24
28
31
31
35
39
36
34
32
32
25
17
9
6
-2
-6
-16
-20
-24
-32
-35
-35
-37
-42
-44
-46
-46
-47
-49
-46
-45
-48
-47
-46
-43
-43
-48
-47
-42
-40
-40
-41
-38
-39
-41
-41
-37
-37
-41
-41
-39
-37
-40
-41
-39
-39
-43
-43
-43
-41
-44
-45
-46
-46
-48
-50
-49
-49
-49
-53
-56
-53
-53
-54
-56
-58
-56
-57
-59
-56
-56
-59
-62
-61
-60
-61
-61
-62
-60
-64
-64
-64
-63
-60
-61
-62
-60
-57
-52
-49
-47
-46
-47
-48
-45
-40
-42
-41
-39
-39
-42
-49
-51
-50
-50
-49
-51
-51
-56
-60
-63
-67
-67
-68
-71
-73
-72
-75
-77
-75
-74
-73
-75
-76
-73
-73
-73
-75
-72
-78
-82
-110
-105
-84
-43
44
152
254
337
376
344
216
41
-75
-106
-97
-69
-52
-54
-62
-67
-71
-72
-75
-77
-78
-84
-82
-82
-84
-85
-83
-80
-84
-84
-82
-80
-80
-80
-79
-80
-78
-79
-74
-73
-72
-73
-71
-65
-62
-63
-61
-58
-53
-51
-46
-39
-34
-29
-24
-15
-9
-6
-3
2
11
15
18
21
22
24
27
29
31
32
31
23
20
17
7
-1
-5
-11
-21
-28
-31
-33
-37
-41
-43
-43
-43
-46
-47
-45
-45
-47
-48
-45
-44
-46
-47
-44
-42
-44
-43
-40
-39
-39
-39
-38
-36
-39
-41
-37
-37
-36
-38
-39
-41
-40
-42
-42
-40
-40
-41
-45
-45
-45
-48
-52
-50
-49
-52
-53
-52
-50
-55
-59
-58
-57
-58
-59
-57
-58
-60
-63
-62
-59
-59
-60
-61
-62
-61
-63
-63
-62
-59
-60
-62
-58
-53
-49
-48
-47
-45
-44
-45
-40
-37
-38
-40
-39
-36
-37
-40
-46
-48
-49
-48
-45
-47
-50
-55
-59
-62
-61
-65
-68
-69
-68
-72
-71
-72
-69
-70
-72
-73
-70
-71
-72
-70
-71
-74
-90
-105
-99
-80
-46
24
139
249
335
367
323
185
25
-72
-101
-85
-55
-47
-57
-61
-63
-64
-69
-70
-73
-77
-82
-78
-74
-78
-79
-76
-76
-78
-79
-77
-75
-78
-79
-77
-74
-72
-72
-73
-69
-68
-67
-67
-63
-58
-60
-59
-54
-50
-49
-47
-40
-34
-31
-28
-22
-14
-10
-8
-1
3
6
9
14
21
25
24
26
32
34
34
34
34
32
27
24
21
16
10
1
-5
-7
-15
-19
-24
-24
-29
-37
-38
-34
-38
-39
-45
-43
-43
-44
-45
-44
-43
-44
-46
-44
-42
-45
-44
-42
-39
-40
-42
-42
-36
-37
-38
-39
-34
-34
-35
-36
-34
-33
-34
-36
-35
-36
-35
-36
-35
-36
-37
-40
-38
-39
-40
-43
-43
-42
-44
-49
-47
-44
-47
-49
-50
-46
-50
-50
-52
-50
-51
-54
-53
-53
-52
-54
-57
-57
-55
-55
-57
-56
-53
-55
-59
-59
-53
-53
-53
-47
-41
-40
-41
-43
-39
-33
-34
-34
-33
-30
-34
-37
-38
-39
-44
-44
-44
-40
-40
-46
-49
-52
-54
-56
-63
-61
-63
-68
-72
-68
-68
-72
-73
-69
-68
-71
-72
-67
-67
-70
-73
-84
-102
-107
-91
-58
15
125
161
330
388
382
298
139
-9
-88
-98
-84
-53
-44
-54
-64
-62
-65
-70
-74
-76
-76
-80
-83
-82
-78
-79
-78
-81
-79
-80
-81
-83
-80
-79
-78
-79
-78
-76
-76
-75
-73
-70
-71
-71
-70
-65
-62
-60
-58
-54
-51
-50
-43
-37
-32
-31
-25
-17
-11
-7
-4
4
8
10
12
16
22
23
24
27
33
35
32
32
32
30
28
21
20
13
4
-3
-8
-13
-22
-26
-29
-31
-36
-42
-46
-43
-46
-49
-48
-47
-49
-50
-50
-47
-47
-48
-50
-48
-47
-48
-49
-45
-42
-43
-45
-44
-42
-43
-43
-43
-39
-40
-42
-44
-41
-38
-39
-42
-41
-40
-42
-44
-42
-41
-42
-43
-42
-43
-45
-46
-45
-45
-46
-49
-48
-48
-49
-52
-51
-50
-54
-57
-54
-53
-54
-57
-59
-56
-57
-60
-61
-59
-58
-60
-63
-58
-60
-60
-63
-60
-60
-66
-64
-59
-58
-56
-55
-51
-48
-45
-47
-46
-42
-38
-40
-42
-38
-36
-40
-44
-43
-48
-52
-52
-48
-45
-52
-57
-61
-62
-65
-71
-71
-68
-71
-73
-75
-73
-75
-74
-76
-76
-76
-76
-77
-72
-73
-77
-84
-96
-111
-112
-96
-64
6
105
208
304
367
368
359
134
-13
-86
-101
-94
-70
-50
-59
-69
-71
-68
-72
-75
-77
-81
-81
-83
-84
-83
-86
-88
-88
-87
-86
-85
-86
-87
-84
-85
-85
-81
-80
-80
-81
-79
-79
-80
-78
-76
-73
-71
-70
-67
-63
-63
-60
-58
-53
-50
-49
-42
-37
-32
-29
-25
-19
-13
-11
-6
2
6
7
10
16
19
20
22
22
27
28
23
22
23
19
17
9
6
-2
-10
-16
-17
-25
-34
-39
-38
-40
-46
-49
-49
-48
-51
-54
-55
-53
-53
-55
-53
-52
-52
-52
-55
-50
-50
-52
-54
-50
-48
-48
-49
-47
-45
-47
-48
-47
-45
-44
-49
-47
-46
-44
-46
-48
-45
-44
-45
-49
-47
-48
-49
-50
-48
-49
-52
-53
-53
-51
-53
-56
-56
-56
-58
-60
-62
-60
-60
-62
-63
-63
-64
-65
-65
-63
-63
-63
-65
-65
-64
-66
-67
-66
-67
-67
-70
-67
-66
-66
-68
-65
-62
-61
-56
-52
-49
-48
-47
-49
-43
-42
-42
-42
-41
-41
-45
-49
-51
-53
-54
-53
-52
-53
-59
-62
-64
-66
-71
-72
-76
-74
-76
-76
-79
-78
-78
-78
-80
-76
-76
-77
-79
-77
-77
-87
-105
-112
-98
-77
-29
60
165
261
339
368
330
198
148
-62
-100
-101
-79
-57
-56
-63
-71
-73
-72
-77
-79
-82
-82
-83
-84
-87
-86
-82
-86
-86
-86
-86
-84
-85
-87
-83
-82
-85
-86
-82
-81
-80
-77
-76
-75
-75
-75
-73
-67
-65
-66
-61
-57
-51
-49
-45
-37
-34
-33
-28
-21
-17
-16
-9
-4
2
3
6
14
17
17
16
19
23
23
19
15
15
11
5
0
-3
-9
-12
-23
-25
-31
-37
-45
-44
-44
-50
-52
-51
-51
-50
-55
-54
-53
-53
-54
-53
-51
-50
-53
-56
-51
-52
-51
-52
-50
-48
-51
-52
-47
-45
-46
-48
-49
-47
-47
-49
-48
-47
-49
-51
-50
-47
-46
-48
-51
-50
-51
-53
-55
-54
-54
-59
-62
-58
-57
-58
-63
-63
-61
-63
-65
-65
-63
-64
-68
-67
-63
-66
-67
-67
-66
-67
-66
-70
-67
-64
-67
-66
-59
-53
-53
-53
-50
-49
-49
-47
-44
-45
-40
-45
-46
-51
-52
-55
-54
-51
-52
-53
-60
-62
-65
-70
-74
-73
-75
-76
-79
-76
-78
-80
-80
-80
-78
-78
-79
-81
-78
-79
-82
-84
-96
-114
-118
-91
-49
41
154
263
345
369
296
136
-15
-93
-110
-93
-64
-54
-64
-73
-75
-73
-77
-82
-84
-86
-87
-89
-89
-87
-88
-92
-92
-91
-88
-89
-90
-89
-86
-87
-88
-87
-82
-81
-81
-81
-77
-75
-75
-72
-66
-64
-63
-60
-52
-50
-48
-44
-34
-27
-23
-21
-14
-7
-2
0
6
11
12
14
17
21
20
19
18
18
15
12
3
1
-8
-17
-25
-29
-32
-41
-45
-49
-51
-54
-61
-58
-58
-61
-62
-62
-61
-63
-63
-63
-59
-60
-61
-61
-59
-57
-61
-61
-57
-56
-59
-57
-52
-51
-54
-56
-53
-51
-53
-55
-55
-52
-55
-57
-56
-55
-54
-55
-60
-58
-57
-58
-61
-60
-61
-65
-64
-62
-64
-65
-67
-69
-69
-68
-70
-70
-70
-71
-75
-72
-69
-71
-71
-76
-74
-73
-74
-75
-73
-72
-74
-75
-67
-62
-59
-60
-61
-57
-56
-53
-50
-50
-51
-50
-50
-49
-54
-55
-63
-60
-57
-59
-61
-63
-67
-73
-76
-78
-77
-81
-84
-85
-83
-85
-89
-88
-83
-84
-87
-86
-84
-84
-84
-84
-86
-98
-118
-124
-106
-77
-16
90
209
313
372
365
281
129
-20
-96
-111
-97
-72
-59
-64
-72
-73
-74
-81
-80
-85
-90
-91
-92
-91
-90
-95
-93
-92
-93
-95
-93
-89
-90
-92
-91
-89
-89
-89
-86
-83
-83
-84
-84
-78
-76
-75
-76
-71
-68
-68
-65
-58
-53
-51
-47
-41
-33
-27
-26
-18
-11
-9
-8
-1
7
9
8
14
17
22
21
22
23
24
20
15
14
14
6
-2
-4
-12
-21
-30
-34
-35
-42
-49
-51
-53
-53
-55
-60
-58
-59
-63
-65
-60
-58
-61
-62
-60
-60
-59
-60
-56
-57
-57
-58
-57
-55
-53
-54
-56
-54
-53
-54
-54
-51
-50
-53
-54
-54
-53
-54
-55
-55
-53
-56
-58
-59
-56
-59
-61
-62
-60
-62
-67
-67
-63
-65
-67
-72
-69
-65
-69
-71
-70
-70
-74
-74
-71
-70
-72
-74
-73
-72
-73
-75
-74
-72
-74
-75
-75
-70
-74
-73
-68
-60
-57
-61
-61
-57
-55
-54
-55
-53
-51
-50
-52
-56
-57
-62
-64
-59
-56
-61
-67
-69
-70
-72
-74
-82
-82
-83
-86
-88
-85
-83
-84
-87
-84
-82
-84
-86
-85
-84
-86
-106
-123
-118
-96
-51
48
164
274
304
363
296
132
-31
-103
-108
-94
-71
-61
-68
-75
-80
-79
-82
-86
-91
-90
-88
-88
-91
-97
-93
-91
-93
-92
-93
-91
-90
-90
-89
-89
-88
-89
-92
-86
-83
-83
-84
-81
-79
-78
-78
-73
-69
-68
-65
-61
-56
-52
-53
-47
-39
-34
-31
-27
-20
-13
-12
-10
-2
0
2
5
11
13
14
17
16
20
17
13
10
13
8
6
-5
-8
-16
-24
-31
-33
-37
-43
-45
-46
-49
-53
-57
-57
-55
-55
-57
-57
-55
-57
-58
-57
-53
-56
-58
-55
-51
-51
-53
-53
-53
-52
-52
-53
-51
-49
-48
-52
-51
-50
-48
-51
-49
-50
-53
-54
-53
-50
-53
-53
-58
-55
-57
-60
-62
-59
-61
-61
-62
-62
-63
-66
-69
-70
-65
-66
-69
-69
-69
-69
-72
-70
-69
-69
-68
-73
-70
-69
-69
-72
-70
-70
-70
-66
-59
-56
-55
-55
-52
-49
-49
-49
-49
-47
-46
-47
-48
-50
-57
-58
-59
-54
-52
-60
-65
-66
-68
-72
-73
-74
-77
-79
-81
-80
-77
-79
-81
-81
-78
-79
-81
-81
-79
-81
-83
-109
-108
-91
-54
26
141
245
325
362
321
199
47
-60
-103
-95
-70
-54
-58
-67
-71
-73
-73
-76
-80
-82
-87
-85
-84
-85
-89
-85
-86
-88
-87
-85
-83
-86
-88
-85
-82
-83
-83
-81
-78
-78
-81
-79
-75
-74
-72
-73
-65
-65
-65
-63
-57
-53
-50
-50
-42
-38
-34
-30
-23
-16
-12
-11
-4
2
4
6
8
13
16
17
18
23
23
22
18
20
19
12
7
4
-2
-11
-18
-21
-25
-32
-38
-41
-41
-45
-48
-49
-48
-48
-49
-54
-48
-49
-51
-53
-49
-49
-49
-50
-49
-46
-48
-49
-46
-43
-43
-43
-45
-42
-43
-43
-42
-41
-41
-42
-43
-44
-44
-46
-45
-46
-44
-47
-48
-50
-48
-50
-53
-53
-53
-53
-57
-57
-56
-59
-61
-60
-57
-61
-63
-64
-63
-61
-64
-68
-64
-65
-66
-66
-65
-64
-67
-67
-65
-61
-60
-62
-55
-50
-50
-48
-49
-46
-43
-43
-41
-42
-39
-39
-41
-42
-45
-50
-53
-51
-47
-48
-53
-58
-60
-61
-66
-67
-67
-67
-73
-76
-76
-74
-76
-77
-75
-74
-78
-78
-77
-75
-76
-77
-77
-85
-105
-119
-111
-91
-64
-1
104
210
302
366
382
342
215
167
-50
-93
-97
-82
-59
-48
-55
-65
-70
-69
-68
-73
-79
-80
-81
-83
-85
-85
-84
-83
-87
-88
-83
-86
-86
-88
-87
-86
-88
-88
-83
-80
-80
-81
-77
-75
-76
-75
-74
-70
-69
-69
-67
-63
-57
-58
-53
-49
-45
-44
-37
-30
-25
-23
-19
-10
-6
-1
1
7
11
16
15
19
22
25
27
28
30
28
24
22
21
15
13
0
-4
-11
-18
-24
-29
-34
-40
-43
-44
-47
-50
-51
-52
-53
-55
-54
-55
-53
-52
-55
-54
-49
-49
-49
-52
-49
-50
-49
-48
-46
-42
-44
-47
-45
-42
-45
-47
-46
-44
-46
-45
-46
-44
-44
-46
-49
-47
-46
-46
-51
-48
-48
-51
-54
-51
-51
-53
-54
-57
-55
-58
-59
-57
-57
-59
-62
-63
-61
-62
-64
-64
-62
-64
-66
-66
-62
-63
-67
-67
-65
-64
-64
-64
-61
-60
-59
-55
-49
-47
-49
-48
-46
-41
-42
-43
-44
-40
-38
-39
-46
-49
-52
-54
-52
-47
-48
-56
-58
-60
-60
-65
-68
-69
-71
-75
-77
-74
-73
-75
-78
-77
-74
-75
-75
-78
-76
-75
-77
-80
-81
-91
-111
-117
-101
-81
-34
51
158
259
341
373
353
251
96
-34
-93
-102
-91
-86
-56
-58
-65
-69
-71
-72
-73
-81
-85
-83
-80
-83
-86
-89
-85
-86
-89
-87
-88
-87
-88
-88
-84
-85
-86
-86
-82
-81
-83
-84
-81
-78
-78
-77
-72
-72
-72
-69
-65
-61
-59
-58
-53
-47
-45
-42
-37
-31
-29
-28
-18
-10
-5
-4
-1
6
8
13
14
18
22
21
23
23
23
22
18
16
12
4
-3
-8
-11
-20
-23
-35
-37
-42
-45
-50
-48
-50
-56
-57
-57
-55
-57
-57
-55
-56
-57
-57
-55
-52
-53
-57
-54
-50
-51
-53
-54
-48
-50
-49
-50
-46
-45
-47
-49
-50
-48
-49
-50
-48
-46
-49
-51
-53
-50
-50
-55
-53
-51
-54
-55
-57
-56
-55
-57
-62
-59
-59
-62
-65
-64
-62
-63
-66
-67
-63
-66
-67
-69
-69
-70
-71
-71
-67
-70
-70
-71
-70
-70
-70
-74
-72
-69
-69
-68
-61
-57
-55
-58
-54
-51
-49
-50
-51
-46
-47
-48
-51
-53
-55
-58
-61
-56
-55
-59
-63
-64
-65
-69
-72
-74
-76
-77
-81
-80
-80
-80
-83
-83
-81
-82
-85
-84
-80
-81
-82
-85
-83
-86
-97
-114
-117
-106
-82
-42
47
149
243
315
349
315
205
57
-54
-101
-107
-94
-68
-56
-66
-70
-78
-76
-78
-86
-89
-86
-85
-90
-91
-90
-88
-89
-92
-87
-86
-89
-91
-90
-88
-86
-90
-90
-86
-85
-87
-84
-80
-81
-81
-81
-76
-72
-72
-70
-66
-62
-60
-59
-51
-47
-43
-41
-32
-25
-22
-19
-11
-7
-4
-2
1
7
8
8
9
11
15
12
10
9
4
-4
-10
-12
-18
-24
-35
-40
-39
-44
-48
-53
-53
-54
-56
-58
-58
-56
-58
-61
-58
-58
-58
-62
-59
-58
-58
-61
-60
-54
-56
-56
-54
-51
-53
-54
-55
-51
-51
-51
-57
-53
-51
-55
-58
-54
-53
-54
-56
-55
-54
-60
-61
-60
-59
-62
-64
-66
-62
-65
-65
-65
-65
-65
-66
-69
-67
-70
-71
-74
-71
-71
-74
-72
-71
-71
-72
-74
-72
-72
-72
-75
-72
-68
-65
-62
-58
-57
-55
-56
-55
-49
-49
-51
-52
-49
-48
-53
-57
-61
-60
-59
-58
-57
-61
-67
-69
-72
-71
-75
-78
-79
-77
-81
-82
-82
-83
-82
-84
-86
-83
-82
-83
-85
-82
-82
-93
-108
-116
-101
-77
-21
73
175
272
335
354
311
183
136
-67
-106
-109
-85
-63
-60
-67
-76
-78
-76
-81
-87
-90
-90
-90
-89
-90
-91
-87
-88
-91
-89
-89
-87
-88
-89
-86
-85
-85
-86
-82
-80
-80
-82
-78
-75
-77
-77
-70
-66
-65
-64
-58
-50
-48
-43
-39
-31
-28
-26
-18
-10
-8
-6
-1
6
11
11
11
15
19
19
16
14
14
8
5
-2
-8
-15
-23
-29
-33
-39
-42
-50
-52
-51
-57
-59
-57
-59
-59
-61
-60
-58
-58
-61
-58
-56
-56
-56
-54
-51
-53
-54
-53
-50
-52
-54
-51
-50
-50
-51
-51
-50
-48
-51
-52
-50
-48
-51
-55
-57
-55
-57
-57
-58
-57
-60
-63
-63
-61
-60
-61
-68
-66
-68
-66
-68
-67
-68
-69
-72
-70
-69
-68
-71
-71
-68
-69
-72
-71
-67
-67
-67
-63
-54
-55
-56
-57
-53
-50
-50
-52
-48
-48
-50
-52
-55
-56
-61
-59
-54
-57
-63
-66
-67
-69
-73
-79
-80
-79
-81
-82
-84
-83
-83
-85
-83
-83
-81
-84
-84
-84
-84
-98
-119
-120
-104
-76
-8
103
216
310
354
326
212
44
-6
-109
-102
-81
-60
-60
-68
-73
-76
-80
-82
-85
-86
-91
-91
-91
-93
-95
-93
-91
-89
-94
-94
-93
-90
-91
-92
-91
-89
-91
-90
-86
-82
-83
-84
-82
-79
-74
-75
-73
-69
-67
-65
-59
-52
-49
-45
-42
-34
-28
-26
-21
-12
-10
-8
-7
2
7
6
7
12
14
14
14
15
15
12
4
-2
-1
-9
-18
-24
-27
-35
-39
-48
-47
-51
-57
-61
-61
-60
-63
-64
-64
-62
-65
-68
-65
-61
-64
-64
-64
-62
-59
-62
-59
-56
-57
-58
-60
-57
-56
-55
-56
-54
-55
-55
-56
-56
-54
-58
-59
-58
-57
-57
-60
-60
-60
-61
-63
-63
-60
-64
-64
-67
-65
-64
-68
-70
-68
-69
-72
-74
-72
-70
-72
-74
-74
-74
-75
-77
-77
-75
-77
-77
-77
-76
-75
-76
-77
-74
-73
-73
-69
-62
-60
-60
-59
-56
-56
-53
-53
-54
-51
-52
-56
-56
-56
-62
-64
-65
-59
-59
-60
-66
-68
-71
-75
-80
-78
-79
-81
-84
-83
-85
-87
-87
-83
-84
-83
-86
-85
-84
-84
-87
-88
-93
-112
-119
-110
-82
-23
72
176
274
336
338
268
125
-15
-95
-112
-97
-73
-62
-69
-76
-78
-79
-83
-89
-87
-90
-91
-95
-92
-91
-94
-94
-94
-94
-97
-95
-92
-92
-93
-93
-94
-89
-90
-89
-90
-85
-84
-85
-82
-78
-78
-76
-72
-67
-62
-60
-57
-52
-46
-42
-41
-31
-24
-21
-19
-17
-8
-3
0
3
9
10
9
13
15
12
11
6
5
4
-5
-13
-16
-23
-31
-37
-36
-40
-45
-52
-54
-55
-58
-60
-59
-58
-58
-58
-55
-56
-56
-57
-60
-57
-58
-56
-58
-55
-53
-55
-56
-52
-49
-51
-56
-54
-52
-52
-52
-53
-54
-55
-55
-54
-51
-54
-56
-58
-54
-52
-57
-60
-61
-63
-62
-64
-61
-60
-62
-65
-66
-66
-67
-68
-68
-67
-67
-69
-69
-70
-69
-69
-73
-70
-72
-70
-72
-70
-71
-72
-73
-69
-65
-63
-61
-55
-55
-56
-55
-52
-44
-45
-49
-51
-47
-48
-50
-55
-55
-57
-57
-58
-54
-56
-60
-62
-66
-68
-72
-74
-73
-74
-77
-79
-78
-75
-75
-79
-80
-78
-78
-77
-79
-76
-74
-78
-86
-100
-108
-97
-79
-37
40
131
222
300
340
330
238
100
-14
-83
-102
-86
-57
-53
-56
-69
-70
-71
-75
-81
-82
-83
-86
-86
-85
-84
-85
-87
-86
-86
-86
-88
-84
-83
-86
-85
-86
-82
-82
-82
-82
-80
-78
-77
-77
-71
-69
-69
-68
-60
-56
-55
-55
-51
-44
-39
-38
-31
-24
-20
-21
-13
-4
-1
0
4
7
13
14
18
21
21
19
15
15
12
5
-2
-7
-14
-20
-27
-31
-34
-40
-46
-46
-46
-47
-48
-51
-52
-52
-53
-56
-52
-50
-51
-52
-50
-48
-49
-50
-51
-45
-45
-46
-45
-43
-42
-45
-46
-42
-42
-43
-44
-43
-44
-45
-46
-44
-43
-43
-49
-47
-47
-47
-51
-50
-48
-52
-53
-54
-52
-53
-57
-58
-54
-56
-56
-60
-59
-59
-60
-65
-61
-61
-61
-63
-62
-61
-65
-65
-64
-60
-63
-65
-64
-61
-58
-55
-53
-47
-47
-48
-49
-42
-41
-43
-44
-41
-40
-44
-46
-47
-51
-53
-52
-53
-50
-53
-57
-62
-62
-66
-71
-72
-72
-73
-74
-78
-78
-76
-77
-79
-76
-76
-78
-79
-78
-76
-79
-84
-90
-107
-117
-107
-84
-29
61
168
274
354
371
368
182
22
-80
-109
-100
-74
-52
-54
-65
-69
-72
-74
-77
-81
-82
-86
-87
-88
-87
-87
-87
-88
-89
-87
-88
-89
-87
-86
-88
-88
-85
-84
-83
-85
-82
-79
-80
-80
-75
-72
-72
-71
-67
-63
-60
-58
-53
-47
-45
-43
-38
-27
-23
-21
-14
-9
-3
-3
0
7
11
13
14
18
21
22
21
22
21
19
15
10
7
1
-2
-14
-17
-26
-34
-36
-39
-43
-47
-52
-53
-51
-55
-58
-59
-56
-58
-59
-57
-54
-56
-56
-56
-52
-54
-53
-53
-51
-51
-50
-52
-49
-46
-48
-49
-47
-47
-48
-49
-46
-44
-46
-49
-50
-45
-47
-51
-51
-48
-51
-52
-53
-50
-52
-54
-56
-54
-52
-56
-58
-58
-56
-58
-62
-62
-60
-62
-64
-64
-61
-62
-67
-67
-63
-62
-61
-65
-64
-63
-65
-70
-65
-65
-64
-65
-67
-65
-61
-58
-53
-49
-50
-51
-50
-44
-42
-44
-43
-38
-39
-38
-44
-45
-48
-52
-53
-48
-47
-51
-54
-57
-61
-63
-68
-69
-67
-71
-73
-76
-74
-75
-76
-76
-72
-75
-76
-77
-75
-77
-79
-78
-86
-100
-114
-108
-84
-41
45
156
271
355
374
307
158
0
-90
-104
-88
-63
-50
-50
-67
-68
-69
-73
-79
-80
-80
-84
-88
-84
-84
-85
-88
-87
-87
-86
-86
-86
-84
-83
-85
-82
-80
-79
-80
-82
-76
-76
-74
-76
-69
-67
-66
-66
-57
-54
-50
-49
-44
-38
-35
-30
-21
-14
-10
-12
-5
2
6
7
9
14
18
18
21
25
24
21
18
18
17
10
3
-1
-5
-13
-21
-26
-31
-38
-44
-46
-46
-48
-49
-53
-51
-52
-54
-56
-56
-55
-56
-59
-56
-54
-55
-58
-55
-53
-53
-54
-53
-53
-52
-53
-52
-47
-50
-51
-52
-50
-49
-50
-52
-50
-50
-51
-52
-52
-52
-52
-54
-52
-54
-55
-54
-54
-53
-56
-57
-56
-57
-59
-58
-61
-60
-60
-62
-66
-63
-63
-65
-71
-66
-64
-68
-70
-68
-67
-65
-69
-68
-68
-68
-72
-72
-68
-69
-70
-71
-68
-70
-69
-68
-63
-59
-57
-58
-54
-53
-53
-52
-49
-48
-50
-48
-47
-46
-51
-56
-59
-59
-55
-54
-54
-55
-60
-66
-67
-69
-71
-74
-78
-79
-78
-79
-82
-82
-80
-81
-81
-81
-78
-79
-80
-81
-77
-81
-84
-110
-113
-98
-76
-23
65
160
251
324
352
307
175
23
-71
-100
-100
-82
-59
-59
-66
-70
-73
-70
-76
-78
-85
-83
-81
-84
-86
-85
-84
-86
-87
-83
-84
-86
-87
-86
-83
-82
-84
-83
-79
-79
-81
-81
-77
-75
-74
-74
-72
-69
-67
-64
-61
-57
-57
-54
-49
-42
-40
-38
-32
-26
-20
-20
-12
-8
-7
-5
0
3
7
8
13
18
22
20
19
21
21
17
16
15
11
4
-4
-5
-9
-16
-22
-26
-29
-35
-39
-42
-43
-45
-45
-50
-47
-48
-50
-52
-50
-51
-53
-54
-49
-47
-46
-48
-48
-47
-48
-47
-46
-43
-42
-44
-45
-44
-42
-41
-45
-41
-42
-43
-45
-43
-40
-42
-44
-42
-41
-42
-43
-45
-44
-45
-48
-51
-48
-50
-52
-52
-51
-55
-56
-54
-54
-53
-56
-60
-59
-58
-59
-58
-59
-60
-62
-64
-62
-62
-64
-63
-64
-62
-62
-63
-64
-60
-62
-63
-62
-57
-51
-48
-47
-46
-46
-45
-42
-39
-41
-42
-39
-41
-42
-47
-53
-51
-47
-46
-49
-53
-55
-58
-60
-65
-65
-67
-70
-73
-71
-71
-74
-76
-73
-71
-73
-74
-71
-71
-74
-76
-82
-97
-104
-95
-67
-5
94
127
294
356
346
239
79
-45
-100
-97
-70
-47
-47
-60
-64
-65
-65
-71
-76
-74
-76
-77
-79
-78
-76
-77
-78
-79
-78
-79
-77
-78
-76
-78
-75
-75
-74
-71
-71
-70
-69
-68
-67
-65
-62
-57
-58
-56
-54
-47
-44
-44
-38
-33
-31
-25
-21
-12
-4
-3
-1
4
10
14
15
18
22
26
25
26
30
28
24
22
20
16
15
2
-3
-10
-16
-24
-27
-31
-36
-40
-43
-45
-47
-50
-47
-50
-51
-51
-50
-49
-47
-51
-52
-49
-46
-48
-50
-46
-45
-46
-47
-44
-42
-43
-44
-42
-42
-42
-43
-40
-40
-42
-43
-45
-41
-42
-47
-47
-46
-46
-48
-49
-47
-49
-52
-54
-53
-52
-53
-55
-55
-55
-57
-60
-57
-57
-59
-60
-60
-57
-58
-59
-62
-60
-59
-60
-61
-59
-60
-60
-59
-53
-49
-47
-47
-46
-45
-47
-44
-40
-41
-38
-40
-39
-41
-46
-49
-52
-47
-48
-49
-56
-55
-57
-65
-68
-65
-66
-72
-73
-72
-72
-73
-74
-72
-69
-72
-74
-74
-71
-73
-80
-98
-110
-105
-101
-34
63
180
287
361
372
289
121
-31
-90
-94
-72
-49
-47
-56
-60
-64
-67
-70
-73
-77
-77
-79
-77
-78
-80
-78
-76
-79
-84
-79
-75
-79
-79
-76
-74
-74
-75
-73
-69
-70
-71
-67
-63
-61
-60
-56
-52
-49
-47
-40
-34
-31
-28
-23
-16
-7
-4
-2
4
10
14
16
20
24
26
27
29
32
31
25
21
19
15
12
-1
-5
-13
-21
-29
-29
-33
-40
-43
-44
-44
-47
-50
-50
-48
-50
-51
-52
-49
-48
-49
-51
-50
-48
-49
-47
-46
-46
-46
-46
-41
-40
-42
-43
-42
-40
-43
-43
-40
-40
-41
-45
-45
-41
-43
-45
-46
-48
-47
-47
-50
-49
-50
-54
-54
-53
-54
-55
-57
-56
-58
-60
-62
-61
-58
-61
-63
-61
-60
-62
-64
-64
-62
-64
-65
-66
-65
-66
-67
-67
-67
-64
-64
-65
-61
-59
-54
-54
-51
-47
-47
-49
-45
-44
-45
-45
-44
-43
-48
-49
-57
-55
-53
-51
-57
-60
-64
-67
-70
-72
-71
-75
-79
-78
-75
-78
-80
-79
-78
-76
-81
-79
-75
-75
-75
-79
-80
-85
-101
-115
-110
-93
-62
8
117
222
310
356
346
243
80
-43
-97
-99
-84
-64
-56
-65
-69
-70
-73
-74
-80
-86
-87
-83
-83
-85
-87
-88
-87
-87
-89
-88
-88
-87
-88
-85
-82
-81
-84
-85
-81
-81
-82
-81
-77
-78
-76
-73
-69
-66
-65
-65
-58
-55
-51
-49
-44
-37
-31
-30
-22
-15
-11
-11
-5
1
5
7
11
13
18
19
17
20
24
22
18
15
11
5
-2
-5
-11
-18
-25
-29
-33
-36
-42
-46
-46
-49
-50
-56
-53
-54
-55
-59
-57
-56
-58
-57
-55
-53
-56
-55
-56
-51
-53
-54
-53
-51
-51
-52
-51
-50
-48
-47
-49
-48
-48
-52
-50
-48
-47
-48
-49
-49
-52
-52
-55
-51
-52
-54
-56
-56
-53
-56
-57
-60
-58
-60
-60
-61
-61
-64
-65
-70
-64
-63
-64
-66
-65
-66
-68
-68
-67
-69
-67
-68
-69
-68
-68
-70
-70
-67
-66
-67
-66
-62
-56
-56
-56
-53
-51
-49
-51
-49
-48
-50
-54
-54
-57
-58
-59
-57
-55
-61
-66
-68
-68
-72
-71
-79
-77
-78
-80
-83
-79
-78
-79
-80
-80
-79
-81
-83
-78
-77
-83
-101
-113
-104
-80
-34
58
167
263
291
343
279
140
2
-81
-104
-93
-65
-55
-63
-70
-72
-75
-76
-78
-81
-85
-87
-87
-86
-89
-89
-87
-87
-89
-90
-88
-87
-86
-89
-85
-84
-83
-84
-81
-80
-80
-81
-77
-75
-70
-70
-69
-67
-64
-61
-58
-51
-48
-49
-42
-34
-29
-27
-21
-15
-11
-8
-7
-1
5
7
7
14
15
17
18
20
22
18
14
10
11
7
4
-6
-10
-19
-25
-31
-33
-36
-41
-44
-46
-48
-51
-54
-52
-52
-55
-55
-55
-53
-53
-54
-55
-53
-52
-53
-52
-49
-48
-49
-51
-47
-46
-46
-48
-45
-43
-45
-47
-44
-42
-44
-44
-46
-45
-46
-46
-45
-45
-45
-46
-49
-46
-46
-51
-52
-49
-51
-54
-57
-54
-53
-55
-59
-59
-60
-60
-61
-62
-58
-62
-63
-63
-59
-62
-63
-64
-64
-63
-62
-64
-61
-61
-59
-57
-51
-48
-46
-47
-46
-42
-44
-45
-41
-39
-41
-47
-50
-52
-51
-52
-50
-49
-53
-59
-65
-64
-66
-71
-73
-74
-75
-76
-76
-78
-75
-75
-79
-78
-75
-75
-78
-79
-80
-90
-96
-117
-100
-70
-6
97
209
308
365
367
275
112
-29
-96
-103
-84
-61
-54
-60
-65
-71
-72
-78
-79
-79
-79
-86
-84
-86
-88
-89
-88
-87
-89
-89
-88
-87
-88
-87
-86
-84
-83
-85
-82
-79
-78
-81
-80
-75
-74
-74
-69
-63
-62
-61
-60
-54
-49
-46
-42
-35
-29
-26
-25
-14
-10
-7
-5
-1
3
7
8
13
17
17
16
17
22
22
20
14
14
11
5
0
-5
-9
-16
-25
-29
-33
-37
-43
-46
-49
-49
-55
-55
-56
-56
-57
-60
-59
-58
-59
-59
-58
-56
-58
-58
-56
-54
-55
-54
-54
-53
-51
-53
-50
-48
-48
-49
-50
-46
-49
-50
-51
-48
-46
-51
-51
-51
-51
-52
-51
-52
-51
-55
-56
-56
-55
-57
-59
-61
-58
-60
-64
-61
-60
-62
-63
-66
-65
-66
-65
-67
-66
-66
-68
-67
-66
-66
-69
-69
-69
-67
-67
-66
-64
-60
-57
-54
-57
-52
-51
-51
-49
-49
-46
-47
-47
-47
-48
-54
-59
-60
-56
-56
-61
-63
-64
-67
-70
-72
-71
-72
-76
-80
-80
-80
-80
-81
-80
-79
-82
-84
-81
-79
-78
-79
-77
-81
-90
-106
-120
-112
-99
-73
-10
97
204
296
353
364
295
263
18
-75
-103
-106
-88
-61
-53
-67
-73
-73
-71
-76
-83
-85
-84
-86
-88
-89
-88
-89
-90
-90
-88
-87
-88
-92
-90
-85
-89
-90
-85
-85
-84
-86
-84
-81
-80
-79
-77
-74
-71
-72
-72
-66
-64
-62
-59
-55
-52
-49
-45
-38
-33
-31
-25
-17
-12
-6
-4
-1
4
7
8
13
16
18
18
20
22
21
16
15
13
9
6
-4
-8
-15
-22
-28
-31
-36
-42
-45
-46
-48
-51
-54
-53
-52
-53
-55
-56
-54
-57
-57
-57
-55
-52
-52
-56
-52
-51
-52
-53
-51
-50
-50
-51
-50
-48
-47
-49
-49
-46
-48
-49
-47
-45
-46
-51
-49
-48
-47
-48
-50
-49
-52
-53
-55
-52
-54
-56
-59
-60
-57
-58
-61
-57
-59
-62
-62
-61
-60
-61
-61
-64
-65
-62
-63
-65
-62
-61
-64
-67
-64
-60
-60
-58
-51
-49
-49
-50
-48
-44
-43
-44
-47
-42
-39
-41
-43
-46
-51
-53
-55
-51
-47
-52
-60
-60
-60
-64
-69
-68
-69
-72
-77
-77
-72
-75
-75
-75
-72
-73
-76
-74
-70
-72
-74
-79
-82
-95
-107
-104
-89
-54
22
123
224
307
344
324
222
82
-32
-87
-98
-83
-59
-55
-61
-67
-70
-70
-76
-74
-77
-82
-85
-83
-81
-84
-85
-83
-83
-84
-86
-83
-84
-87
-85
-86
-85
-84
-85
-84
-80
-81
-80
-80
-76
-75
-74
-75
-71
-69
-68
-67
-61
-56
-54
-53
-44
-39
-36
-33
-27
-22
-20
-17
-11
-3
0
1
2
7
9
12
14
19
19
19
18
18
18
11
7
4
0
-10
-17
-20
-23
-29
-37
-41
-44
-43
-44
-49
-49
-49
-52
-52
-51
-49
-52
-56
-54
-51
-51
-51
-51
-48
-51
-51
-50
-44
-45
-46
-45
-46
-44
-44
-46
-44
-42
-45
-46
-45
-43
-45
-48
-44
-44
-45
-47
-45
-46
-46
-49
-49
-49
-51
-51
-51
-50
-53
-54
-55
-54
-55
-58
-59
-58
-59
-61
-62
-59
-58
-63
-63
-61
-59
-60
-62
-62
-62
-62
-60
-54
-49
-47
-49
-48
-44
-43
-42
-43
-40
-36
-38
-40
-41
-44
-48
-50
-50
-46
-46
-48
-51
-54
-57
-65
-66
-68
-65
-68
-74
-72
-72
-73
-76
-73
-72
-75
-76
-71
-72
-73
-73
-74
-83
-104
-116
-104
-83
-41
43
152
257
340
361
351
252
92
-38
-99
-99
-77
-53
-50
-57
-63
-68
-72
-73
-75
-79
-83
-85
-83
-84
-87
-86
-84
-84
-84
-89
-85
-83
-86
-87
-84
-82
-83
-83
-79
-78
-78
-79
-77
-71
-70
-71
-67
-64
-63
-61
-58
-48
-46
-45
-41
-31
-28
-27
-22
-15
-9
-5
-3
4
10
13
12
18
21
21
23
25
28
27
22
19
18
13
10
-2
-5
-13
-22
-29
-32
-38
-45
-50
-51
-50
-53
-56
-56
-56
-57
-59
-58
-56
-58
-59
-59
-55
-56
-57
-55
-52
-52
-55
-58
-51
-51
-50
-51
-52
-49
-50
-51
-51
-48
-50
-50
-51
-47
-52
-55
-54
-53
-54
-55
-57
-57
-57
-59
-61
-61
-58
-63
-66
-67
-65
-63
-68
-67
-67
-69
-72
-70
-66
-67
-70
-72
-71
-68
-68
-71
-70
-68
-68
-70
-59
-53
-56
-56
-54
-52
-52
-51
-51
-46
-47
-52
-53
-57
-58
-61
-59
-55
-61
-64
-71
-71
-73
-78
-80
-79
-81
-82
-85
-84
-82
-84
-85
-84
-81
-84
-85
-84
-83
-86
-102
-121
-123
-107
-100
-7
107
221
317
370
357
257
86
-55
-105
-107
-91
-68
-57
-66
-75
-81
-79
-81
-85
-89
-89
-89
-92
-92
-94
-94
-91
-94
-96
-93
-94
-94
-95
-93
-91
-92
-91
-88
-85
-85
-86
-86
-81
-79
-79
-76
-72
-71
-70
-66
-61
-54
-53
-49
-42
-37
-32
-27
-20
-14
-7
-7
1
8
9
9
15
21
21
21
20
23
18
17
8
7
-2
-9
-14
-20
-27
-37
-42
-47
-51
-54
-59
-61
-60
-62
-62
-64
-63
-63
-64
-63
-59
-62
-61
-63
-60
-59
-59
-59
-57
-56
-54
-54
-54
-54
-54
-57
-52
-52
-54
-56
-57
-54
-55
-59
-57
-56
-61
-60
-63
-61
-61
-62
-66
-65
-66
-66
-69
-68
-67
-71
-71
-71
-69
-72
-75
-75
-74
-72
-74
-76
-74
-75
-76
-76
-75
-74
-76
-78
-75
-69
-66
-64
-61
-59
-59
-58
-54
-51
-57
-54
-54
-50
-58
-63
-67
-64
-61
-63
-66
-68
-72
-77
-81
-79
-81
-83
-88
-87
-88
-88
-91
-90
-88
-87
-89
-89
-87
-87
-92
-103
-119
-126
-124
-87
-19
89
202
301
358
346
230
60
-67
-110
-107
-91
-65
-65
-77
-80
-81
-81
-87
-92
-96
-92
-94
-95
-95
-93
-94
-98
-99
-95
-91
-94
-96
-94
-94
-93
-95
-92
-90
-88
-92
-89
-83
-81
-81
-81
-75
-74
-75
-69
-62
-62
-58
-53
-47
-39
-38
-34
-26
-21
-15
-12
-6
-2
3
4
6
12
13
15
17
17
14
13
9
7
0
-7
-17
-21
-28
-36
-40
-43
-47
-53
-57
-56
-58
-58
-61
-63
-64
-63
-62
-60
-58
-59
-60
-62
-60
-57
-59
-62
-59
-56
-57
-56
-54
-52
-53
-58
-58
-53
-54
-56
-57
-54
-56
-60
-59
-54
-55
-57
-58
-59
-58
-61
-61
-61
-60
-65
-66
-63
-64
-66
-69
-69
-70
-70
-72
-70
-67
-70
-77
-74
-72
-70
-71
-75
-73
-77
-78
-78
-74
-73
-72
-72
-69
-61
-60
-60
-59
-57
-57
-55
-53
-54
-53
-52
-52
-51
-55
-56
-63
-62
-60
-60
-60
-63
-67
-73
-74
-75
-76
-80
-82
-84
-81
-80
-84
-85
-85
-85
-86
-87
-85
-84
-85
-86
-85
-88
-102
-116
-115
-101
-76
-21
69
166
256
319
342
295
180
43
-60
-101
-105
-88
-64
-61
-71
-74
-83
-82
-85
-88
-92
-90
-90
-93
-95
-94
-94
-97
-95
-93
-92
-94
-95
-96
-92
-92
-96
-95
-92
-93
-92
-91
-88
-87
-87
-86
-84
-82
-81
-81
-73
-72
-73
-68
-61
-55
-51
-50
-45
-38
-37
-32
-26
-16
-14
-13
-9
-4
0
-1
1
6
9
8
8
8
8
2
-2
-5
-9
-16
-23
-29
-33
-40
-47
-49
-52
-54
-57
-61
-60
-59
-62
-63
-61
-62
-64
-65
-63
-63
-62
-64
-64
-60
-60
-61
-61
-59
-62
-61
-58
-55
-55
-55
-56
-56
-55
-56
-58
-54
-53
-57
-59
-57
-55
-56
-56
-58
-56
-58
-62
-60
-58
-60
-64
-65
-63
-63
-64
-66
-66
-66
-70
-73
-70
-68
-69
-73
-71
-70
-72
-72
-71
-70
-73
-73
-73
-70
-68
-65
-62
-56
-54
-55
-54
-50
-48
-49
-50
-47
-43
-45
-47
-50
-55
-57
-57
-51
-51
-56
-61
-66
-67
-69
-72
-74
-76
-78
-80
-81
-77
-76
-78
-79
-78
-77
-79
-79
-76
-76
-77
-83
-95
-108
-111
-93
-66
3
104
204
297
360
368
361
168
26
-66
-101
-100
-79
-54
-50
-61
-64
-65
-68
-72
-75
-76
-81
-85
-83
-82
-81
-84
-84
-81
-81
-82
-83
-81
-80
-83
-82
-80
-79
-78
-79
-76
-74
-72
-74
-72
-67
-66
-68
-65
-60
-58
-57
-52
-46
-43
-44
-37
-32
-24
-18
-15
-10
-2
1
3
11
16
22
22
25
30
34
33
35
38
36
32
28
29
24
23
11
4
-1
-11
-17
-21
-23
-29
-33
-37
-36
-39
-43
-43
-41
-43
-44
-44
-41
-41
-41
-41
-40
-38
-39
-40
-36
-35
-38
-38
-35
-33
-33
-34
-34
-32
-32
-33
-32
-31
-32
-35
-35
-34
-31
-32
-35
-33
-34
-36
-36
-33
-35
-39
-42
-39
-39
-41
-43
-43
-41
-41
-44
-43
-44
-43
-46
-47
-44
-44
-47
-49
-45
-45
-47
-51
-47
-45
-47
-46
-39
-33
-34
-35
-32
-30
-30
-29
-27
-23
-22
-24
-28
-33
-35
-35
-34
-31
-34
-36
-44
-44
-46
-48
-52
-52
-54
-57
-60
-56
-57
-59
-61
-61
-59
-61
-62
-60
-59
-60
-64
-76
-94
-98
-96
-57
4
97
194
284
351
374
339
231
73
-43
-83
-86
-69
-44
-37
-44
-48
-49
-53
-59
-63
-64
-66
-66
-69
-68
-69
-72
-73
-70
-68
-72
-73
-72
-69
-68
-70
-66
-64
-66
-66
-64
-63
-62
-61
-61
-56
-54
-55
-54
-48
-45
-44
-43
-35
-30
-26
-23
-15
-11
-6
-3
2
10
16
16
22
27
30
29
34
39
39
39
39
40
36
34
29
28
23
15
7
3
-4
-10
-19
-23
-26
-30
-34
-36
-35
-37
-41
-42
-37
-38
-40
-41
-39
-38
-41
-42
-38
-37
-38
-39
-38
-34
-36
-36
-35
-34
-35
-34
-35
-32
-31
-34
-36
-32
-33
-34
-35
-33
-33
-35
-38
-34
-33
-36
-39
-37
-38
-39
-42
-44
-41
-45
-44
-46
-47
-45
-48
-48
-46
-48
-49
-53
-51
-52
-52
-53
-52
-53
-53
-53
-53
-51
-54
-57
-55
-52
-53
-51
-47
-43
-41
-42
-42
-37
-35
-34
-36
-35
-36
-34
-35
-35
-36
-41
-47
-47
-43
-42
-43
-44
-47
-52
-56
-58
-59
-60
-62
-65
-66
-68
-69
-69
-67
-69
-70
-72
-69
-68
-67
-68
-68
-67
-72
-84
-98
-107
-101
-86
-54
21
120
217
304
350
338
325
114
-15
-78
-97
-92
-63
-46
-53
-63
-65
-63
-66
-70
-73
-73
-74
-76
-75
-76
-76
-79
-79
-78
-78
-77
-81
-80
-78
-80
-81
-77
-75
-75
-76
-74
-71
-72
-71
-66
-66
-62
-64
-60
-54
-52
-50
-47
-39
-34
-33
-25
-19
-15
-12
-9
-2
4
5
7
14
17
18
19
24
25
23
20
17
16
13
4
-1
-6
-13
-16
-25
-31
-34
-40
-42
-46
-45
-48
-51
-52
-51
-54
-56
-54
-53
-54
-55
-55
-54
-54
-54
-54
-50
-53
-54
-55
-52
-51
-54
-54
-52
-51
-50
-51
-49
-49
-51
-53
-51
-50
-52
-53
-53
-51
-53
-55
-56
-52
-56
-59
-58
-56
-58
-60
-63
-60
-62
-65
-67
-64
-63
-64
-68
-68
-68
-69
-71
-71
-68
-70
-74
-73
-74
-71
-69
-71
-73
-72
-74
-74
-71
-64
-63
-64
-62
-60
-61
-59
-53
-53
-55
-54
-55
-56
-58
-64
-68
-67
-63
-64
-64
-65
-67
-74
-79
-79
-81
-82
-84
-84
-85
-85
-89
-89
-86
-86
-88
-88
-87
-88
-90
-91
-86
-88
-91
-114
-124
-117
-102
-71
0
93
186
271
319
309
217
80
-37
-97
-114
-107
-78
-63
-70
-80
-84
-83
-86
-87
-95
-94
-95
-99
-100
-100
-99
-99
-100
-101
-99
-99
-100
-97
-95
-95
-98
-98
-94
-94
-96
-98
-92
-89
-89
-88
-84
-81
-83
-80
-73
-66
-65
-64
-56
-50
-47
-44
-35
-31
-29
-25
-23
-15
-11
-11
-8
-6
-4
-3
-4
-1
-2
-9
-13
-13
-14
-22
-29
-33
-41
-47
-54
-54
-56
-61
-65
-68
-69
-70
-72
-73
-70
-70
-70
-76
-71
-72
-71
-73
-72
-71
-70
-70
-69
-68
-67
-69
-67
-67
-69
-68
-67
-64
-66
-68
-66
-64
-64
-65
-70
-67
-67
-68
-69
-67
-64
-70
-71
-69
-71
-70
-74
-75
-72
-76
-75
-75
-74
-75
-77
-78
-76
-77
-79
-80
-80
-79
-82
-82
-80
-79
-82
-83
-81
-79
-79
-75
-72
-68
-68
-70
-66
-63
-62
-63
-65
-62
-61
-60
-64
-66
-70
-72
-71
-68
-66
-70
-75
-78
-80
-83
-85
-86
-85
-88
-91
-92
-90
-90
-89
-90
-87
-89
-90
-91
-89
-90
-99
-115
-124
-117
-93
-48
47
160
259
320
325
249
93
-48
-117
-117
-88
-67
-67
-75
-80
-82
-85
-86
-90
-93
-94
-94
-93
-92
-96
-96
-94
-97
-96
-95
-93
-94
-95
-96
-92
-92
-92
-93
-88
-88
-89
-86
-80
-78
-77
-77
-69
-64
-61
-59
-52
-47
-43
-38
-30
-24
-21
-15
-13
-5
-2
-1
1
6
8
8
11
14
11
9
4
2
-1
-8
-15
-25
-31
-37
-44
-46
-50
-54
-58
-64
-61
-65
-67
-68
-63
-66
-67
-66
-63
-64
-67
-66
-62
-60
-61
-62
-60
-58
-60
-60
-58
-57
-59
-59
-60
-58
-57
-57
-59
-57
-57
-58
-57
-57
-57
-60
-62
-61
-59
-60
-61
-62
-62
-64
-65
-64
-63
-64
-67
-68
-68
-69
-69
-70
-68
-68
-68
-72
-70
-67
-70
-71
-66
-61
-57
-58
-56
-54
-54
-56
-52
-49
-50
-51
-47
-49
-53
-57
-62
-60
-58
-58
-60
-60
-61
-68
-72
-72
-74
-79
-81
-82
-82
-82
-87
-85
-84
-82
-83
-85
-81
-81
-85
-85
-91
-109
-115
-116
-97
-53
33
143
252
329
344
289
148
-4
-93
-112
-97
-71
-59
-67
-72
-73
-75
-82
-86
-86
-87
-89
-92
-92
-92
-94
-93
-90
-89
-91
-93
-90
-88
-89
-90
-89
-88
-85
-86
-83
-81
-78
-78
-77
-71
-68
-68
-64
-59
-52
-50
-45
-37
-31
-26
-22
-12
-7
-4
-2
2
7
12
10
15
16
18
16
15
13
9
7
-3
-9
-15
-24
-31
-35
-38
-47
-51
-53
-56
-59
-62
-64
-63
-63
-65
-64
-62
-65
-66
-65
-60
-62
-64
-64
-63
-59
-58
-60
-60
-58
-57
-59
-56
-54
-56
-60
-58
-55
-56
-57
-58
-56
-59
-57
-58
-55
-59
-61
-65
-61
-61
-64
-67
-63
-64
-67
-68
-68
-66
-68
-70
-71
-68
-66
-69
-70
-68
-73
-72
-71
-70
-71
-71
-68
-65
-58
-57
-58
-57
-56
-55
-54
-53
-51
-52
-53
-53
-52
-57
-61
-64
-60
-59
-62
-67
-68
-72
-73
-82
-80
-83
-85
-88
-88
-87
-87
-92
-88
-86
-86
-89
-88
-86
-87
-94
-104
-120
-125
-116
-86
-26
79
115
286
342
331
241
83
-53
-112
-115
-99
-73
-66
-74
-81
-83
-83
-87
-93
-97
-95
-98
-102
-102
-100
-100
-102
-103
-102
-100
-101
-102
-98
-96
-98
-100
-98
-96
-95
-96
-93
-88
-88
-90
-89
-85
-81
-80
-77
-74
-71
-70
-65
-58
-51
-49
-46
-39
-31
-28
-28
-18
-15
-12
-10
-5
-1
3
3
4
7
7
5
1
-1
-3
-6
-20
-22
-29
-38
-45
-45
-50
-57
-62
-62
-64
-68
-73
-73
-72
-73
-76
-74
-72
-74
-76
-76
-73
-71
-72
-75
-73
-71
-71
-72
-69
-67
-68
-71
-68
-69
-70
-70
-70
-68
-69
-70
-71
-68
-67
-70
-73
-71
-70
-70
-71
-71
-72
-75
-79
-77
-73
-77
-79
-78
-76
-78
-81
-81
-80
-82
-86
-85
-83
-82
-84
-88
-86
-83
-84
-88
-84
-84
-85
-91
-88
-85
-85
-84
-80
-75
-71
-74
-75
-72
-72
-70
-66
-65
-67
-66
-64
-65
-67
-69
-79
-77
-74
-73
-72
-73
-78
-82
-84
-86
-88
-90
-93
-93
-93
-97
-98
-99
-98
-97
-99
-99
-100
-99
-99
-100
-98
-97
-101
-113
-125
-129
-115
-91
-26
68
163
251
314
324
264
133
4
-76
-113
-118
-94
-72
-79
-84
-96
-95
-93
-99
-103
-101
-103
-104
-106
-105
-103
-106
-111
-109
-107
-109
-109
-105
-103
-104
-106
-104
-101
-101
-102
-103
-100
-97
-98
-95
-93
-90
-92
-89
-85
-80
-77
-73
-70
-63
-60
-55
-49
-40
-35
-34
-31
-27
-20
-18
-16
-13
-8
-5
-3
-3
-2
-4
-10
-13
-14
-19
-24
-28
-33
-40
-47
-51
-55
-61
-67
-69
-68
-71
-70
-75
-76
-77
-79
-76
-75
-75
-76
-76
-75
-75
-75
-77
-74
-72
-70
-72
-72
-69
-71
-74
-71
-72
-70
-71
-70
-68
-68
-70
-71
-69
-69
-71
-74
-72
-70
-73
-74
-74
-73
-74
-75
-77
-78
-79
-78
-78
-77
-78
-78
-81
-80
-82
-84
-86
-84
-82
-85
-88
-85
-84
-84
-87
-87
-86
-88
-89
-88
-85
-82
-83
-80
-76
-73
-72
-74
-70
-69
-69
-71
-65
-64
-65
-68
-68
-69
-72
-77
-77
-72
-71
-73
-77
-79
-81
-84
-90
-88
-90
-91
-97
-96
-96
-96
-98
-98
-97
-98
-98
-96
-94
-95
-99
-96
-97
-103
-119
-131
-123
-106
-76
-7
88
184
214
330
338
265
120
-24
-103
-123
-111
-88
-73
-74
-82
-89
-89
-89
-95
-99
-101
-101
-101
-106
-106
-104
-105
-105
-106
-102
-103
-102
-103
-103
-101
-100
-101
-101
-102
-100
-101
-98
-96
-94
-94
-92
-87
-86
-84
-82
-77
-74
-73
-68
-62
-55
-51
-49
-41
-36
-31
-30
-21
-16
-15
-12
-8
-3
2
0
3
4
3
2
1
-2
-9
-10
-23
-31
-35
-43
-52
-53
-56
-64
-68
-69
-71
-74
-75
-75
-74
-76
-79
-78
-76
-75
-77
-76
-74
-73
-72
-75
-72
-70
-71
-72
-70
-68
-69
-72
-69
-67
-68
-70
-71
-65
-71
-70
-69
-67
-68
-73
-72
-70
-68
-69
-73
-71
-70
-73
-75
-73
-70
-75
-78
-78
-77
-79
-80
-81
-79
-79
-83
-82
-80
-82
-83
-83
-82
-82
-82
-84
-82
-81
-81
-83
-82
-80
-78
-75
-71
-67
-68
-69
-68
-63
-59
-63
-60
-58
-57
-57
-60
-60
-63
-65
-74
-70
-67
-68
-72
-74
-75
-80
-83
-85
-84
-86
-90
-90
-89
-92
-92
-92
-89
-90
-93
-93
-90
-91
-91
-92
-92
-98
-116
-128
-117
-97
-51
34
148
248
330
361
330
212
47
-71
-114
-112
-95
-75
-71
-78
-83
-84
-86
-87
-90
-97
-99
-98
-99
-98
-101
-98
-99
-100
-103
-100
-100
-100
-99
-100
-98
-98
-95
-95
-92
-93
-94
-91
-88
-85
-84
-83
-83
-78
-75
-73
-67
-62
-58
-58
-52
-43
-38
-35
-26
-22
-17
-12
-9
-2
3
4
8
13
15
16
18
17
16
13
7
6
3
-4
-13
-19
-26
-32
-40
-45
-47
-52
-58
-61
-60
-63
-65
-66
-68
-69
-70
-71
-68
-66
-68
-70
-69
-68
-70
-69
-68
-65
-64
-66
-63
-63
-63
-63
-62
-59
-61
-62
-60
-59
-57
-61
-59
-60
-59
-62
-61
-61
-60
-60
-63
-59
-60
-62
-65
-65
-65
-68
-68
-69
-69
-69
-68
-71
-69
-69
-72
-73
-72
-74
-75
-75
-74
-73
-75
-77
-76
-74
-77
-78
-78
-74
-76
-80
-80
-76
-77
-77
-78
-76
-70
-66
-67
-63
-60
-63
-64
-58
-55
-55
-57
-53
-51
-56
-60
-64
-63
-65
-66
-62
-61
-65
-67
-74
-73
-73
-79
-81
-84
-83
-85
-87
-87
-87
-85
-87
-86
-85
-85
-87
-86
-84
-82
-89
-98
-113
-121
-121
-82
-17
88
202
299
357
347
228
61
-58
-106
-110
-88
-66
-68
-77
-80
-81
-83
-85
-89
-93
-93
-90
-91
-93
-92
-92
-94
-94
-92
-91
-92
-93
-91
-89
-90
-88
-88
-85
-86
-85
-83
-80
-78
-77
-77
-72
-69
-68
-62
-56
-51
-47
-45
-37
-28
-24
-23
-15
-9
-8
-4
1
8
9
9
10
15
16
13
14
15
10
9
-3
-6
-15
-22
-27
-32
-37
-44
-47
-49
-50
-58
-61
-59
-58
-60
-61
-62
-61
-63
-65
-63
-59
-60
-61
-64
-62
-61
-60
-62
-60
-59
-60
-59
-58
-55
-55
-58
-59
-58
-59
-57
-57
-53
-53
-56
-58
-57
-55
-56
-56
-54
-56
-57
-61
-57
-58
-60
-63
-63
-63
-64
-66
-66
-63
-65
-67
-69
-67
-67
-68
-71
-71
-71
-71
-72
-70
-70
-73
-76
-74
-73
-73
-75
-73
-71
-73
-76
-75
-71
-69
-69
-64
-60
-58
-56
-56
-54
-52
-51
-57
-52
-49
-53
-57
-60
-63
-62
-61
-58
-56
-61
-70
-69
-69
-75
-76
-79
-79
-84
-84
-83
-78
-79
-80
-83
-81
-80
-82
-85
-82
-79
-81
-85
-96
-109
-110
-93
-59
19
122
227
318
354
319
194
38
-65
-101
-107
-77
-59
-65
-72
-76
-75
-75
-83
-87
-84
-84
-88
-89
-87
-88
-87
-90
-90
-88
-90
-90
-90
-87
-86
-87
-88
-84
-83
-83
-85
-80
-78
-77
-78
-74
-70
-68
-66
-63
-57
-54
-49
-45
-35
-31
-26
-24
-17
-10
-9
-5
0
5
7
9
14
19
21
20
22
22
21
16
14
9
5
-2
-9
-14
-20
-28
-34
-37
-42
-45
-50
-50
-52
-56
-61
-59
-56
-57
-58
-59
-58
-60
-62
-60
-58
-57
-59
-59
-57
-55
-57
-57
-54
-53
-55
-56
-53
-50
-50
-53
-51
-51
-50
-51
-50
-49
-49
-53
-52
-51
-50
-52
-53
-52
-54
-55
-56
-55
-56
-57
-59
-59
-57
-59
-61
-61
-62
-64
-66
-64
-65
-64
-65
-67
-68
-67
-67
-68
-67
-65
-69
-70
-68
-67
-68
-70
-67
-67
-64
-64
-60
-54
-57
-57
-52
-47
-45
-51
-50
-45
-46
-49
-52
-54
-55
-56
-54
-54
-58
-61
-68
-68
-70
-74
-79
-78
-77
-81
-83
-83
-81
-82
-84
-83
-81
-79
-82
-84
-87
-104
-120
-109
-80
-17
9
210
319
374
346
215
40
-74
-104
-98
-74
-57
-66
-74
-75
-75
-78
-86
-88
-90
-91
-90
-92
-90
-90
-92
-94
-92
-91
-91
-93
-90
-88
-90
-89
-86
-85
-83
-86
-85
-80
-78
-80
-76
-72
-69
-67
-62
-57
-52
-50
-44
-38
-29
-27
-23
-15
-8
-5
0
5
12
13
14
19
23
25
25
23
23
18
12
8
4
-1
-3
-19
-21
-28
-37
-42
-46
-49
-55
-59
-59
-60
-64
-66
-66
-64
-64
-66
-68
-67
-67
-67
-68
-64
-63
-63
-64
-61
-61
-60
-62
-60
-59
-58
-59
-55
-54
-58
-59
-57
-57
-55
-57
-55
-54
-60
-59
-59
-59
-58
-58
-63
-63
-65
-66
-67
-66
-67
-66
-68
-69
-67
-68
-70
-73
-71
-70
-72
-73
-72
-71
-74
-75
-73
-71
-73
-76
-74
-74
-74
-77
-72
-69
-72
-72
-68
-61
-61
-60
-59
-57
-54
-52
-54
-51
-51
-54
-58
-58
-60
-61
-61
-59
-60
-65
-70
-71
-72
-77
-82
-83
-84
-84
-85
-88
-84
-86
-85
-85
-83
-84
-85
-86
-84
-85
-86
-108
-121
-110
-86
-36
64
182
281
342
335
246
92
-37
-95
-100
-84
-70
-68
-74
-78
-82
-84
-85
-88
-87
-96
-95
-95
-95
-97
-96
-93
-98
-100
-97
-94
-94
-96
-96
-94
-92
-91
-90
-89
-87
-88
-84
-82
-78
-78
-76
-71
-69
-64
-61
-57
-52
-48
-43
-38
-31
-26
-23
-18
-11
-5
-3
0
7
10
10
10
14
14
15
15
14
12
4
0
-2
-9
-14
-24
-29
-32
-40
-45
-50
-55
-57
-61
-62
-59
-61
-64
-65
-66
-65
-63
-66
-65
-65
-65
-68
-64
-59
-62
-64
-64
-62
-60
-60
-60
-58
-59
-61
-61
-58
-58
-58
-60
-60
-59
-59
-60
-58
-56
-58
-61
-63
-60
-61
-64
-64
-63
-63
-66
-69
-65
-65
-69
-72
-70
-70
-75
-74
-71
-72
-73
-74
-75
-72
-73
-76
-75
-72
-74
-76
-76
-75
-76
-78
-77
-75
-76
-76
-77
-77
-75
-75
-72
-66
-62
-59
-62
-59
-59
-59
-57
-57
-56
-55
-58
-57
-57
-62
-66
-65
-61
-62
-63
-66
-67
-74
-76
-79
-82
-81
-83
-83
-85
-87
-86
-88
-87
-86
-88
-88
-87
-85
-87
-90
-87
-87
-88
-97
-109
-116
-109
-93
-51
29
132
164
302
345
328
227
83
-34
-94
-115
-111
-83
-66
-73
-80
-81
-80
-84
-86
-89
-90
-91
-95
-97
-94
-93
-94
-98
-95
-93
-94
-98
-95
-93
-95
-95
-93
-93
-94
-94
-91
-87
-86
-88
-87
-82
-79
-80
-78
-72
-70
-69
-68
-63
-57
-56
-54
-47
-42
-39
-36
-31
-24
-20
-17
-11
-7
-2
-2
1
6
8
7
10
11
12
11
10
8
4
0
-6
-13
-16
-22
-29
-34
-36
-42
-48
-47
-52
-58
-61
-62
-61
-63
-63
-66
-64
-64
-65
-67
-65
-63
-67
-67
-66
-63
-65
-66
-64
-63
-61
-64
-64
-61
-61
-60
-61
-57
-58
-60
-60
-57
-58
-59
-59
-56
-58
-57
-60
-56
-56
-57
-59
-59
-61
-60
-62
-62
-62
-63
-65
-64
-63
-66
-69
-70
-70
-69
-68
-72
-70
-68
-73
-76
-75
-72
-72
-71
-73
-72
-73
-77
-76
-72
-71
-73
-75
-76
-74
-74
-72
-69
-65
-66
-64
-56
-57
-56
-57
-55
-50
-51
-52
-50
-50
-51
-57
-59
-59
-58
-60
-59
-60
-64
-67
-69
-70
-75
-76
-80
-79
-80
-82
-83
-81
-79
-80
-81
-80
-79
-80
-82
-81
-80
-81
-87
-100
-110
-103
-90
-59
10
111
144
294
353
354
286
149
11
-73
-97
-96
-76
-60
-58
-68
-71
-72
-75
-80
-82
-84
-84
-85
-87
-87
-88
-90
-91
-89
-86
-88
-92
-89
-87
-86
-87
-86
-84
-84
-85
-83
-80
-80
-79
-79
-75
-73
-72
-69
-66
-62
-62
-61
-53
-48
-46
-43
-35
-28
-25
-21
-14
-6
-4
0
3
10
12
13
16
23
25
26
25
27
29
27
21
21
17
6
1
-4
-6
-17
-23
-30
-33
-39
-43
-46
-46
-50
-55
-56
-54
-56
-60
-61
-57
-58
-58
-62
-59
-59
-59
-60
-58
-56
-56
-57
-56
-55
-55
-56
-56
-54
-54
-53
-53
-52
-51
-52
-52
-49
-48
-49
-50
-49
-50
-50
-52
-51
-53
-53
-55
-56
-54
-54
-57
-57
-57
-61
-60
-62
-59
-60
-60
-62
-62
-62
-63
-65
-63
-62
-64
-68
-65
-65
-65
-69
-66
-67
-67
-67
-66
-66
-67
-69
-70
-66
-64
-68
-65
-61
-56
-55
-54
-51
-48
-46
-47
-47
-45
-44
-46
-48
-50
-55
-58
-56
-50
-49
-55
-60
-63
-65
-67
-72
-72
-71
-74
-80
-79
-76
-76
-80
-78
-77
-79
-79
-78
-74
-74
-79
-80
-86
-104
-114
-104
-77
-27
70
186
292
362
377
299
145
-2
-82
-97
-92
-68
-55
-61
-66
-66
-70
-75
-76
-77
-82
-85
-87
-82
-84
-86
-89
-87
-84
-86
-88
-85
-85
-86
-88
-85
-81
-84
-86
-83
-80
-77
-78
-75
-73
-75
-74
-72
-68
-64
-64
-60
-57
-53
-52
-44
-36
-32
-27
-22
-17
-13
-9
-5
2
5
7
10
16
20
23
25
26
29
29
28
26
27
23
21
12
7
2
-4
-11
-16
-25
-31
-38
-40
-41
-46
-50
-52
-53
-56
-57
-58
-56
-55
-58
-59
-57
-55
-56
-60
-58
-56
-60
-60
-57
-54
-54
-55
-52
-52
-52
-51
-50
-49
-51
-51
-50
-48
-50
-51
-52
-49
-50
-53
-53
-51
-51
-55
-57
-56
-57
-58
-58
-59
-58
-61
-61
-61
-61
-63
-65
-68
-66
-65
-65
-66
-68
-67
-67
-69
-68
-67
-68
-71
-70
-69
-70
-71
-69
-69
-70
-72
-70
-68
-65
-70
-62
-57
-54
-54
-54
-49
-47
-47
-48
-49
-45
-45
-48
-49
-50
-57
-60
-55
-51
-49
-56
-59
-61
-66
-67
-69
-69
-71
-74
-80
-78
-76
-77
-77
-77
-75
-76
-79
-77
-74
-75
-76
-75
-74
-76
-87
-100
-105
-95
-77
-39
45
147
239
318
362
339
321
79
-41
-88
-97
-88
-62
-53
-62
-69
-69
-67
-69
-76
-76
-75
-75
-80
-81
-80
-80
-81
-80
-79
-81
-80
-83
-79
-77
-79
-80
-77
-74
-75
-76
-74
-69
-70
-67
-66
-62
-62
-59
-55
-51
-51
-49
-44
-38
-32
-30
-25
-20
-14
-11
-7
-1
7
7
10
16
21
24
24
28
30
31
29
27
26
23
14
7
6
-2
-4
-17
-22
-25
-31
-35
-37
-38
-42
-44
-43
-45
-43
-46
-48
-47
-45
-45
-46
-46
-44
-45
-47
-43
-41
-40
-45
-40
-37
-36
-42
-38
-36
-38
-38
-34
-32
-34
-38
-40
-35
-37
-38
-39
-38
-39
-40
-42
-39
-40
-41
-47
-46
-45
-45
-48
-47
-47
-49
-52
-52
-50
-50
-54
-54
-53
-51
-52
-52
-51
-53
-56
-56
-51
-50
-51
-57
-54
-51
-54
-54
-53
-49
-48
-46
-41
-36
-36
-38
-36
-31
-31
-35
-34
-31
-31
-37
-41
-40
-42
-41
-42
-39
-42
-47
-51
-49
-51
-57
-59
-60
-60
-62
-62
-61
-59
-60
-62
-60
-58
-56
-61
-62
-60
-60
-61
-65
-73
-88
-90
-77
-48
9
103
201
289
351
366
312
186
48
-48
-84
-86
-62
-40
-40
-50
-51
-51
-52
-59
-59
-64
-65
-69
-67
-67
-68
-70
-68
-68
-69
-69
-70
-66
-67
-67
-68
-65
-63
-63
-63
-60
-60
-60
-60
-56
-55
-51
-50
-45
-43
-41
-38
-29
-24
-21
-17
-11
-4
3
4
12
16
20
22
26
32
35
37
37
40
41
37
34
33
31
25
17
11
6
-3
-10
-15
-18
-24
-30
-34
-34
-36
-39
-39
-39
-40
-41
-42
-41
-38
-42
-44
-40
-41
-40
-41
-39
-35
-38
-41
-38
-34
-33
-36
-35
-34
-33
-37
-34
-31
-32
-33
-35
-33
-32
-36
-35
-33
-33
-35
-39
-37
-36
-37
-40
-39
-41
-42
-43
-44
-42
-43
-47
-48
-47
-49
-50
-52
-51
-49
-51
-54
-53
-51
-55
-56
-54
-54
-54
-57
-56
-55
-57
-60
-59
-54
-54
-56
-56
-49
-46
-44
-45
-39
-37
-38
-40
-36
-36
-35
-37
-33
-35
-42
-47
-44
-42
-38
-43
-46
-46
-50
-55
-58
-58
-63
-65
-65
-65
-66
-67
-69
-69
-66
-67
-69
-67
-67
-67
-69
-67
-69
-77
-98
-107
-98
-79
-39
46
158
259
288
380
362
252
90
-35
-81
-86
-76
-54
-42
-52
-60
-65
-67
-67
-72
-77
-78
-78
-80
-83
-83
-78
-80
-82
-85
-82
-80
-84
-84
-80
-77
-79
-80
-79
-76
-75
-77
-74
-72
-74
-72
-69
-64
-60
-60
-56
-49
-47
-44
-37
-29
-26
-20
-13
-5
2
5
6
11
16
19
20
24
25
28
28
25
25
21
13
7
4
-3
-6
-19
-25
-30
-38
-44
-46
-50
-51
-57
-55
-56
-56
-60
-60
-59
-58
-59
-60
-57
-59
-58
-58
-57
-55
-56
-59
-55
-52
-52
-54
-54
-53
-52
-54
-54
-50
-51
-54
-51
-51
-51
-54
-55
-52
-54
-58
-60
-58
-59
-60
-63
-63
-60
-63
-65
-65
-64
-68
-69
-67
-64
-68
-71
-71
-69
-70
-74
-75
-72
-72
-75
-75
-73
-71
-72
-76
-73
-71
-74
-75
-72
-71
-73
-72
-66
-59
-57
-59
-58
-54
-53
-54
-54
-53
-51
-54
-57
-59
-62
-63
-66
-59
-57
-62
-68
-67
-71
-75
-79
-79
-79
-82
-85
-86
-84
-85
-87
-86
-85
-84
-85
-86
-84
-87
-86
-88
-87
-99
-115
-119
-100
-70
-5
98
205
295
344
334
238
81
-50
-98
-108
-89
-64
-63
-75
-80
-80
-81
-86
-84
-87
-92
-95
-91
-92
-92
-94
-96
-93
-93
-93
-93
-91
-90
-91
-92
-91
-87
-87
-87
-85
-85
-86
-83
-77
-75
-75
-73
-66
-58
-56
-54
-47
-43
-38
-34
-24
-22
-18
-14
-8
-3
2
3
5
8
13
13
13
13
11
4
-1
-4
-7
-16
-26
-30
-36
-41
-48
-52
-51
-55
-60
-62
-58
-60
-64
-66
-64
-63
-63
-66
-67
-65
-66
-69
-65
-62
-63
-63
-61
-59
-58
-60
-59
-56
-57
-57
-57
-57
-55
-54
-57
-55
-54
-56
-56
-56
-55
-59
-61
-60
-58
-62
-64
-62
-62
-63
-65
-65
-66
-68
-70
-71
-72
-71
-72
-72
-72
-73
-74
-72
-70
-71
-75
-77
-77
-74
-75
-76
-76
-75
-76
-78
-75
-74
-73
-73
-72
-67
-62
-60
-61
-58
-57
-55
-57
-55
-53
-51
-55
-55
-56
-60
-64
-63
-61
-58
-61
-65
-68
-69
-72
-75
-79
-78
-79
-82
-81
-81
-80
-87
-84
-83
-85
-86
-83
-81
-85
-86
-86
-83
-91
-106
-111
-101
-82
-42
38
139
231
302
339
316
205
160
-47
-96
-105
-94
-69
-60
-66
-73
-76
-76
-77
-81
-86
-87
-87
-89
-90
-91
-88
-88
-89
-89
-88
-88
-87
-88
-86
-86
-87
-89
-85
-82
-82
-82
-81
-80
-76
-78
-72
-71
-70
-69
-67
-61
-57
-55
-50
-45
-40
-39
-32
-24
-18
-14
-12
-6
-1
2
3
8
11
13
14
16
18
17
16
14
16
10
5
2
-1
-6
-8
-21
-26
-30
-36
-42
-45
-48
-52
-55
-57
-57
-59
-61
-61
-61
-61
-64
-64
-62
-61
-61
-63
-60
-61
-60
-61
-58
-58
-58
-58
-56
-55
-54
-55
-52
-49
-54
-55
-52
-52
-51
-52
-52
-50
-50
-52
-54
-51
-52
-53
-54
-53
-53
-55
-57
-55
-53
-56
-60
-60
-58
-60
-63
-60
-60
-62
-65
-67
-64
-65
-67
-69
-68
-67
-68
-72
-71
-66
-69
-71
-70
-69
-69
-70
-69
-71
-71
-73
-72
-69
-71
-70
-66
-60
-58
-56
-55
-53
-52
-53
-50
-47
-48
-51
-50
-46
-45
-51
-56
-58
-56
-57
-55
-54
-57
-61
-66
-67
-69
-71
-75
-78
-76
-79
-79
-84
-83
-81
-84
-84
-84
-83
-83
-83
-79
-79
-79
-84
-88
-97
-115
-119
-105
-78
-26
68
180
281
352
368
333
218
70
-44
-93
-101
-91
-67
-60
-65
-70
-72
-76
-77
-81
-87
-90
-91
-91
-89
-93
-94
-94
-92
-93
-92
-90
-92
-91
-93
-90
-89
-87
-88
-86
-84
-83
-86
-83
-79
-78
-79
-77
-74
-72
-72
-66
-59
-57
-57
-50
-43
-37
-34
-31
-25
-19
-15
-10
-1
4
8
10
14
18
22
24
25
27
25
22
21
20
14
12
2
-6
-12
-19
-29
-31
-36
-42
-50
-51
-53
-56
-60
-60
-60
-63
-64
-64
-64
-62
-63
-63
-62
-62
-63
-61
-57
-57
-60
-63
-58
-55
-56
-55
-54
-52
-54
-55
-52
-51
-53
-52
-54
-50
-50
-54
-53
-51
-52
-51
-54
-53
-54
-54
-56
-56
-52
-58
-62
-61
-59
-62
-64
-64
-62
-64
-65
-67
-64
-64
-68
-71
-67
-67
-66
-70
-69
-66
-68
-70
-70
-67
-71
-71
-71
-69
-71
-71
-71
-70
-70
-71
-67
-62
-59
-57
-57
-53
-53
-54
-51
-49
-48
-47
-50
-50
-46
-50
-56
-59
-57
-57
-59
-56
-59
-62
-66
-67
-68
-73
-77
-78
-78
-80
-81
-83
-81
-81
-79
-81
-78
-79
-79
-79
-77
-78
-81
-88
-104
-112
-107
-83
-33
64
178
277
343
363
297
264
-2
-85
-101
-96
-81
-61
-62
-70
-77
-73
-72
-76
-83
-86
-85
-88
-91
-89
-89
-90
-91
-91
-89
-88
-88
-89
-89
-88
-89
-90
-84
-84
-83
-85
-83
-81
-78
-79
-77
-73
-69
-70
-67
-61
-59
-54
-51
-47
-41
-39
-33
-26
-21
-17
-12
-5
0
6
8
12
15
17
19
16
21
16
14
12
11
5
-4
-13
-19
-25
-28
-38
-38
-43
-49
-54
-53
-53
-57
-61
-62
-59
-58
-60
-60
-59
-59
-63
-60
-58
-59
-62
-61
-58
-58
-56
-57
-56
-55
-55
-57
-55
-52
-55
-55
-53
-51
-53
-53
-53
-52
-55
-56
-57
-54
-55
-56
-58
-58
-60
-62
-65
-61
-61
-65
-65
-65
-62
-66
-67
-67
-67
-69
-72
-70
-68
-70
-72
-74
-70
-75
-75
-74
-69
-70
-71
-72
-73
-73
-72
-73
-73
-71
-72
-72
-67
-62
-59
-60
-58
-54
-57
-56
-51
-48
-52
-52
-52
-50
-55
-57
-62
-60
-59
-57
-61
-61
-65
-69
-72
-74
-77
-79
-82
-83
-81
-82
-83
-83
-82
-81
-83
-85
-83
-83
-84
-84
-82
-94
-110
-112
-97
-68
-4
89
195
286
343
343
265
123
-8
-81
-107
-96
-68
-59
-69
-75
-77
-78
-83
-85
-85
-89
-92
-91
-90
-90
-93
-92
-90
-89
-93
-94
-89
-91
-91
-92
-87
-87
-89
-87
-85
-82
-83
-82
-79
-76
-74
-73
-70
-65
-61
-61
-56
-52
-46
-43
-36
-29
-24
-25
-19
-13
-7
-7
-3
2
5
5
8
15
15
13
12
13
10
6
2
-2
-5
-14
-23
-28
-31
-37
-42
-49
-48
-52
-56
-58
-55
-56
-57
-62
-60
-60
-62
-64
-62
-61
-61
-62
-60
-57
-60
-59
-58
-56
-56
-57
-56
-52
-52
-57
-56
-53
-51
-50
-52
-51
-50
-52
-57
-55
-52
-53
-56
-54
-54
-56
-56
-57
-55
-54
-58
-58
-58
-58
-60
-62
-62
-64
-66
-67
-67
-64
-66
-69
-68
-68
-70
-71
-72
-68
-69
-72
-72
-69
-72
-71
-72
-68
-66
-66
-63
-56
-54
-55
-54
-51
-49
-50
-51
-48
-45
-49
-51
-54
-56
-61
-58
-56
-54
-61
-67
-70
-73
-74
-74
-79
-80
-82
-82
-85
-83
-82
-83
-86
-84
-82
-82
-85
-85
-90
-110
-122
-110
-87
-43
47
161
268
351
378
328
193
31
-16
-107
-94
-70
-58
-69
-74
-74
-78
-83
-86
-88
-91
-91
-91
-90
-96
-92
-93
-91
-92
-92
-94
-91
-90
-90
-91
-88
-84
-87
-87
-81
-80
-82
-81
-78
-74
-71
-71
-68
-61
-57
-55
-50
-40
-35
-32
-26
-21
-14
-12
-6
4
5
8
9
14
20
18
19
20
22
17
15
12
12
6
-3
-9
-13
-20
-29
-35
-38
-43
-47
-55
-54
-54
-58
-62
-62
-61
-62
-63
-63
-61
-61
-64
-64
-59
-59
-63
-61
-58
-59
-61
-60
-57
-55
-56
-60
-58
-58
-56
-58
-54
-51
-53
-56
-53
-51
-53
-55
-55
-55
-55
-58
-56
-56
-56
-61
-61
-60
-60
-62
-63
-63
-61
-64
-67
-64
-64
-66
-69
-68
-66
-68
-71
-71
-69
-71
-75
-72
-69
-70
-72
-74
-70
-71
-71
-74
-72
-69
-69
-64
-59
-54
-56
-56
-53
-48
-46
-49
-47
-45
-47
-50
-53
-55
-56
-57
-55
-54
-58
-60
-70
-70
-71
-75
-78
-77
-78
-80
-84
-80
-79
-78
-81
-80
-80
-81
-82
-84
-78
-81
-97
-112
-114
-99
-93
-14
88
202
301
365
370
290
126
-28
-91
-99
-89
-68
-52
-62
-70
-72
-70
-71
-77
-83
-84
-83
-82
-83
-86
-84
-82
-86
-87
-86
-86
-87
-88
-85
-85
-83
-85
-83
-80
-78
-79
-77
-73
-73
-74
-72
-65
-66
-65
-61
-54
-50
-49
-43
-38
-32
-27
-21
-14
-9
-5
-2
5
10
12
16
19
24
26
28
28
31
31
30
23
22
18
10
3
1
-5
-12
-19
-22
-28
-34
-43
-48
-48
-50
-53
-55
-52
-55
-60
-59
-58
-56
-57
-58
-55
-56
-56
-55
-52
-50
-52
-54
-50
-48
-47
-49
-48
-45
-46
-46
-47
-45
-46
-50
-50
-47
-46
-45
-50
-49
-48
-52
-54
-52
-52
-55
-56
-55
-54
-54
-56
-58
-57
-61
-61
-62
-61
-61
-63
-64
-63
-64
-63
-65
-66
-67
-67
-71
-66
-64
-68
-69
-68
-67
-68
-70
-67
-64
-67
-63
-57
-53
-52
-53
-51
-45
-44
-43
-47
-44
-45
-50
-54
-58
-56
-56
-55
-51
-54
-62
-66
-66
-67
-71
-74
-76
-72
-75
-79
-80
-78
-77
-76
-78
-78
-80
-79
-80
-77
-76
-82
-98
-109
-102
-83
-45
43
151
252
328
360
312
174
15
-78
-102
-92
-85
-57
-61
-66
-69
-73
-74
-75
-80
-87
-84
-82
-83
-86
-84
-82
-84
-86
-86
-83
-84
-85
-83
-82
-82
-82
-82
-79
-78
-77
-79
-75
-70
-68
-68
-66
-63
-61
-60
-55
-50
-46
-45
-40
-34
-28
-25
-19
-14
-8
-7
-3
5
7
10
9
15
22
23
23
24
24
18
17
15
14
8
3
-4
-9
-15
-23
-29
-32
-34
-36
-45
-45
-43
-48
-51
-49
-50
-51
-54
-52
-52
-50
-53
-53
-52
-54
-51
-51
-48
-49
-53
-50
-48
-46
-48
-50
-48
-43
-46
-46
-45
-45
-46
-48
-45
-42
-44
-46
-47
-46
-48
-48
-49
-46
-51
-53
-55
-53
-53
-54
-57
-56
-57
-60
-61
-61
-61
-63
-65
-64
-63
-64
-67
-65
-65
-65
-68
-67
-63
-65
-67
-67
-65
-65
-63
-66
-64
-63
-61
-58
-51
-49
-52
-52
-47
-44
-44
-48
-45
-44
-44
-49
-53
-53
-53
-53
-52
-50
-54
-55
-62
-64
-62
-68
-72
-72
-73
-75
-76
-77
-75
-76
-79
-77
-75
-74
-78
-77
-76
-76
-76
-84
-98
-108
-109
-77
-36
51
158
257
337
369
319
185
30
-69
-102
-98
-78
-52
-51
-63
-65
-66
-68
-73
-77
-78
-77
-78
-81
-79
-79
-81
-82
-81
-75
-79
-81
-79
-75
-77
-79
-77
-75
-76
-74
-73
-70
-71
-72
-70
-64
-62
-61
-63
-57
-54
-51
-46
-40
-34
-32
-30
-20
-15
-11
-7
-3
4
8
10
13
19
21
23
24
31
31
31
29
31
27
23
17
16
11
3
-4
-9
-13
-20
-26
-32
-32
-39
-43
-46
-46
-46
-50
-51
-49
-51
-50
-54
-52
-51
-53
-54
-52
-51
-50
-51
-49
-47
-48
-49
-46
-44
-46
-47
-47
-45
-43
-45
-45
-41
-40
-41
-45
-43
-44
-42
-46
-43
-44
-45
-47
-48
-46
-49
-49
-50
-51
-53
-55
-54
-52
-53
-56
-57
-56
-57
-58
-61
-59
-61
-62
-64
-63
-61
-63
-65
-64
-63
-65
-66
-66
-64
-62
-65
-66
-64
-66
-66
-64
-60
-57
-56
-54
-50
-49
-48
-52
-46
-43
-43
-47
-41
-40
-41
-46
-49
-50
-54
-56
-51
-49
-53
-59
-63
-64
-62
-63
-68
-69
-71
-75
-78
-76
-75
-78
-80
-77
-75
-77
-77
-74
-74
-77
-76
-77
-78
-90
-106
-112
-102
-81
-73
38
145
244
330
377
378
310
170
28
-56
-88
-97
-89
-64
-53
-58
-65
-67
-68
-70
-75
-79
-81
-79
-81
-84
-82
-81
-84
-88
-86
-85
-86
-86
-85
-83
-84
-84
-84
-82
-81
-82
-81
-80
-80
-80
-76
-72
-73
-72
-72
-67
-62
-62
-60
-55
-52
-50
-50
-42
-37
-33
-30
-23
-16
-12
-10
-5
-1
4
7
8
14
17
17
21
27
29
27
25
27
26
22
21
15
9
3
-4
-10
-16
-23
-31
-35
-40
-43
-50
-49
-50
-54
-56
-57
-57
-58
-58
-59
-58
-59
-59
-59
-56
-54
-53
-54
-54
-51
-51
-54
-52
-50
-51
-52
-50
-48
-48
-49
-51
-47
-51
-49
-51
-46
-48
-49
-50
-49
-48
-50
-53
-52
-50
-53
-56
-56
-56
-58
-63
-61
-57
-60
-62
-64
-61
-61
-65
-68
-65
-64
-64
-68
-66
-67
-68
-71
-69
-65
-70
-71
-71
-69
-68
-72
-71
-68
-70
-71
-71
-69
-63
-63
-57
-54
-54
-56
-56
-50
-48
-50
-52
-48
-46
-50
-55
-58
-58
-60
-61
-57
-55
-61
-64
-70
-71
-71
-76
-77
-76
-77
-83
-84
-81
-79
-80
-84
-80
-79
-80
-80
-79
-77
-77
-81
-87
-98
-112
-115
-97
-70
-8
85
179
269
335
360
330
208
52
-57
-97
-103
-87
-62
-59
-66
-70
-70
-70
-74
-78
-81
-83
-87
-85
-84
-84
-86
-84
-83
-87
-88
-86
-85
-85
-88
-88
-85
-84
-84
-84
-81
-79
-84
-81
-76
-74
-75
-75
-69
-68
-70
-67
-62
-59
-55
-53
-46
-40
-36
-35
-28
-23
-17
-14
-7
-3
-1
2
5
10
12
13
16
21
22
20
17
19
18
13
10
6
2
-7
-16
-21
-25
-31
-37
-40
-44
-46
-49
-53
-51
-54
-53
-56
-53
-56
-58
-60
-56
-56
-56
-57
-56
-55
-56
-57
-55
-52
-53
-54
-54
-51
-54
-55
-51
-49
-49
-49
-53
-50
-46
-49
-49
-49
-49
-53
-55
-53
-52
-55
-56
-56
-57
-57
-61
-59
-59
-61
-63
-63
-63
-63
-64
-67
-66
-67
-68
-72
-68
-68
-68
-71
-69
-68
-70
-73
-72
-70
-70
-73
-72
-69
-70
-68
-65
-59
-57
-57
-57
-54
-53
-52
-55
-50
-48
-51
-54
-54
-58
-62
-60
-55
-55
-59
-65
-68
-67
-72
-77
-77
-77
-80
-81
-82
-79
-82
-82
-81
-80
-80
-80
-81
-80
-78
-78
-81
-84
-98
-111
-107
-85
-42
33
129
228
310
343
347
212
69
-41
-95
-103
-83
-59
-60
-69
-71
-71
-72
-75
-80
-80
-82
-85
-85
-83
-83
-87
-85
-83
-84
-84
-87
-83
-86
-85
-86
-84
-82
-81
-82
-83
-79
-79
-76
-72
-70
-69
-69
-68
-63
-57
-56
-51
-45
-41
-40
-34
-24
-20
-17
-13
-5
1
3
5
10
14
13
15
19
21
20
18
16
17
13
7
1
-1
-12
-13
-27
-28
-33
-40
-45
-45
-48
-51
-52
-52
-51
-54
-56
-55
-53
-54
-57
-54
-52
-54
-54
-54
-50
-51
-51
-52
-49
-47
-48
-47
-47
-47
-46
-46
-45
-43
-48
-51
-48
-46
-47
-50
-53
-49
-50
-50
-54
-51
-53
-55
-58
-56
-55
-57
-63
-60
-59
-61
-64
-62
-62
-65
-67
-66
-64
-65
-69
-69
-67
-68
-70
-70
-67
-70
-72
-71
-67
-68
-69
-67
-64
-57
-55
-56
-52
-50
-53
-50
-48
-46
-48
-47
-47
-49
-51
-59
-58
-54
-55
-54
-60
-62
-64
-69
-74
-72
-74
-79
-81
-80
-81
-83
-83
-83
-82
-84
-82
-80
-79
-82
-82
-82
-81
-88
-93
-118
-112
-94
-66
10
127
238
325
375
354
242
80
-47
-102
-105
-90
-66
-59
-64
-71
-75
-77
-80
-82
-83
-87
-85
-86
-90
-94
-89
-87
-89
-91
-91
-90
-93
-90
-88
-88
-87
-88
-85
-82
-82
-81
-81
-78
-76
-75
-72
-67
-64
-63
-59
-52
-47
-44
-42
-34
-25
-20
-18
-10
-4
-1
1
7
15
17
16
18
23
24
23
17
17
10
2
-5
-8
-17
-24
-33
-39
-41
-47
-53
-56
-57
-60
-64
-61
-58
-60
-64
-63
-58
-58
-57
-62
-58
-59
-58
-60
-55
-53
-53
-55
-54
-52
-53
-55
-53
-51
-51
-53
-52
-49
-50
-54
-53
-52
-51
-50
-54
-54
-54
-56
-59
-55
-58
-58
-62
-59
-58
-61
-65
-66
-65
-66
-64
-63
-64
-65
-69
-68
-66
-66
-67
-70
-70
-70
-70
-72
-68
-71
-71
-70
-68
-67
-71
-69
-64
-58
-56
-55
-55
-49
-49
-48
-45
-43
-45
-46
-44
-43
-48
-54
-57
-55
-52
-52
-53
-56
-61
-64
-67
-67
-68
-72
-74
-77
-75
-75
-76
-77
-78
-77
-77
-79
-76
-77
-79
-77
-77
-78
-87
-105
-111
-101
-80
-33
60
173
273
345
376
324
185
26
-75
-101
-94
-90
-59
-57
-66
-70
-74
-72
-79
-83
-84
-82
-83
-83
-87
-87
-85
-84
-86
-86
-83
-86
-87
-85
-83
-82
-83
-82
-80
-77
-77
-78
-72
-72
-72
-71
-66
-60
-59
-57
-52
-46
-42
-39
-34
-26
-22
-20
-13
-4
0
1
6
13
17
17
19
23
26
25
24
23
24
17
11
5
1
-7
-13
-19
-26
-32
-39
-43
-44
-49
-51
-56
-56
-56
-60
-61
-60
-58
-61
-63
-58
-56
-57
-58
-58
-55
-56
-54
-55
-50
-52
-53
-54
-48
-49
-50
-52
-50
-48
-50
-49
-49
-48
-50
-51
-50
-48
-51
-53
-55
-53
-56
-57
-56
-54
-57
-61
-62
-59
-60
-61
-64
-62
-62
-66
-67
-65
-65
-67
-68
-67
-66
-69
-71
-68
-68
-72
-70
-73
-71
-69
-71
-72
-69
-72
-71
-73
-69
-64
-62
-60
-55
-55
-54
-55
-53
-50
-48
-52
-51
-48
-48
-51
-53
-54
-59
-62
-59
-55
-58
-59
-67
-67
-69
-74
-74
-75
-78
-80
-81
-79
-78
-79
-81
-80
-77
-79
-81
-79
-77
-77
-79
-85
-95
-109
-110
-87
-48
36
145
253
333
357
295
150
6
-76
-101
-94
-65
-54
-64
-71
-71
-69
-77
-81
-83
-80
-82
-84
-85
-82
-82
-83
-86
-82
-82
-83
-85
-80
-78
-80
-78
-78
-77
-79
-77
-74
-71
-70
-71
-65
-59
-57
-55
-53
-45
-42
-39
-35
-30
-24
-19
-18
-8
-3
0
1
6
12
15
18
21
25
23
21
21
20
15
13
4
3
-3
-15
-20
-23
-30
-36
-39
-41
-40
-45
-49
-50
-48
-48
-52
-52
-51
-54
-53
-52
-48
-48
-46
-51
-50
-48
-48
-49
-48
-50
-50
-49
-45
-44
-44
-46
-45
-43
-44
-44
-45
-43
-43
-45
-44
-41
-43
-43
-48
-46
-45
-51
-49
-46
-47
-51
-52
-51
-51
-53
-56
-55
-55
-57
-61
-60
-58
-58
-60
-60
-59
-62
-63
-65
-63
-60
-63
-64
-61
-60
-62
-64
-61
-59
-63
-61
-57
-53
-52
-50
-47
-44
-45
-45
-40
-36
-40
-42
-40
-39
-38
-44
-48
-50
-49
-46
-46
-47
-50
-55
-60
-60
-62
-65
-64
-67
-69
-71
-71
-70
-68
-69
-71
-73
-71
-70
-73
-72
-68
-69
-71
-75
-83
-97
-98
-81
-49
28
137
241
334
375
359
248
88
-38
-91
-99
-75
-50
-47
-57
-64
-62
-65
-70
-76
-75
-75
-76
-77
-78
-76
-78
-78
-78
-77
-78
-79
-81
-75
-75
-76
-77
-73
-72
-73
-74
-70
-67
-67
-67
-63
-60
-58
-58
-52
-47
-44
-42
-35
-28
-27
-24
-17
-9
-6
-4
4
10
13
15
17
24
29
29
30
32
34
33
30
29
26
20
12
7
4
-4
-13
-19
-22
-27
-29
-37
-37
-41
-47
-49
-48
-46
-50
-51
-50
-48
-51
-53
-49
-47
-48
-49
-50
-48
-48
-48
-48
-44
-44
-45
-47
-45
-42
-43
-44
-44
-41
-44
-45
-45
-43
-43
-46
-45
-46
-47
-46
-48
-46
-47
-49
-52
-50
-48
-49
-53
-52
-54
-58
-57
-54
-55
-56
-58
-58
-61
-63
-64
-62
-61
-63
-64
-65
-62
-63
-64
-64
-61
-63
-64
-66
-64
-62
-62
-64
-60
-57
-53
-52
-48
-47
-47
-48
-43
-41
-43
-44
-41
-41
-45
-51
-49
-51
-52
-53
-50
-50
-54
-58
-62
-62
-68
-72
-74
-73
-74
-77
-80
-79
-76
-78
-78
-78
-75
-77
-80
-80
-77
-76
-77
-80
-79
-95
-115
-119
-98
-71
-16
81
192
290
358
379
350
235
83
-38
-98
-104
-95
-72
-55
-59
-67
-69
-73
-71
-76
-82
-86
-85
-86
-90
-90
-87
-87
-89
-91
-87
-87
-87
-88
-88
-85
-86
-87
-85
-84
-84
-84
-84
-80
-80
-80
-79
-74
-72
-72
-71
-66
-63
-61
-59
-53
-50
-48
-45
-40
-33
-27
-25
-20
-11
-8
-6
1
5
9
10
11
16
18
21
21
24
24
22
17
14
15
11
4
0
-5
-12
-20
-26
-29
-34
-36
-43
-44
-50
-54
-58
-57
-56
-60
-61
-60
-59
-60
-62
-60
-59
-60
-61
-58
-56
-56
-56
-56
-53
-52
-54
-54
-51
-52
-53
-54
-53
-50
-54
-56
-53
-50
-52
-52
-52
-48
-50
-54
-52
-52
-55
-56
-57
-55
-55
-56
-58
-59
-59
-61
-64
-60
-61
-63
-64
-62
-63
-63
-66
-66
-64
-68
-70
-68
-66
-68
-70
-72
-69
-69
-68
-70
-69
-67
-71
-72
-69
-67
-68
-67
-62
-59
-56
-56
-54
-51
-51
-50
-49
-48
-49
-47
-47
-45
-47
-49
-59
-58
-56
-56
-57
-52
-56
-63
-69
-67
-66
-71
-76
-75
-75
-77
-80
-77
-77
-77
-80
-78
-78
-78
-81
-79
-80
-79
-83
-89
-101
-112
-107
-93
-52
26
127
226
316
360
336
216
55
-55
-97
-97
-76
-55
-58
-61
-69
-67
-70
-77
-81
-80
-79
-82
-84
-84
-82
-82
-84
-81
-82
-83
-84
-81
-79
-78
-82
-80
-76
-77
-77
-77
-73
-70
-71
-68
-65
-59
-60
-59
-52
-47
-46
-44
-38
-33
-29
-26
-17
-11
-6
-7
-1
6
9
12
16
20
23
24
27
31
33
32
29
29
26
21
15
11
4
-2
-8
-11
-18
-26
-29
-31
-30
-33
-35
-37
-39
-39
-40
-44
-40
-39
-39
-41
-39
-36
-40
-40
-38
-34
-34
-35
-37
-31
-30
-33
-33
-28
-28
-29
-29
-28
-26
-27
-28
-26
-25
-30
-29
-28
-26
-28
-30
-28
-29
-31
-32
-32
-31
-33
-35
-34
-34
-36
-37
-38
-37
-34
-39
-39
-39
-38
-41
-42
-40
-40
-41
-42
-42
-40
-40
-42
-42
-39
-40
-43
-42
-38
-39
-40
-39
-32
-31
-28
-28
-26
-21
-22
-22
-18
-16
-19
-17
-15
-17
-21
-27
-28
-25
-23
-26
-27
-27
-31
-33
-39
-39
-41
-43
-47
-46
-45
-47
-46
-45
-47
-47
-48
-45
-43
-44
-46
-45
-43
-47
-57
-73
-79
-62
-55
40
152
263
350
388
355
237
70
-47
-70
-54
-28
-18
-26
-31
-34
-35
-37
-40
-42
-45
-47
-45
-46
-46
-48
-45
-45
-47
-48
-43
-44
-46
-46
-42
-39
-41
-42
-39
-34
-32
-34
-33
-28
-26
-25
-21
-17
-16
-15
-8
2
6
11
15
25
29
32
33
42
49
50
52
56
61
63
62
62
64
62
60
55
53
48
45
35
32
22
15
10
8
3
-2
-6
-6
-9
-13
-16
-12
-12
-14
-14
-16
-13
-15
-15
-15
-13
-14
-13
-15
-11
-10
-10
-13
-9
-8
-9
-11
-9
-7
-7
-9
-8
-6
-8
-8
-10
-6
-8
-8
-9
-6
-9
-12
-13
-11
-12
-14
-17
-14
-15
-16
-19
-19
-18
-20
-23
-23
-23
-23
-27
-26
-24
-24
-25
-27
-24
-25
-26
-30
-27
-26
-27
-30
-25
-24
-25
-24
-16
-12
-11
-13
-12
-7
-9
-9
-8
-4
-5
-9
-12
-14
-18
-18
-15
-11
-19
-25
-26
-26
-29
-35
-38
-38
-37
-42
-41
-41
-39
-40
-41
-41
-40
-41
-43
-42
-40
-43
-46
-73
-81
-68
-40
26
139
250
337
384
364
250
77
-43
-68
-56
-36
-22
-25
-31
-34
-40
-40
-42
-44
-46
-52
-50
-51
-52
-50
-49
-52
-52
-53
-51
-50
-53
-52
-51
-48
-49
-49
-46
-43
-45
-47
-45
-38
-39
-38
-38
-29
-30
-28
-22
-17
-14
-12
-9
-1
3
6
11
17
21
24
26
30
36
38
40
41
47
47
47
49
49
49
43
36
33
25
22
14
9
2
-5
-12
-15
-16
-21
-22
-24
-22
-27
-27
-28
-25
-27
-27
-30
-29
-27
-29
-34
-29
-27
-27
-28
-27
-25
-26
-27
-22
-21
-22
-24
-25
-24
-22
-23
-26
-25
-26
-27
-29
-26
-29
-28
-31
-30
-29
-35
-37
-35
-34
-36
-38
-36
-36
-41
-44
-42
-40
-42
-45
-46
-45
-46
-48
-46
-43
-46
-48
-51
-51
-51
-52
-51
-49
-48
-50
-52
-48
-45
-40
-38
-37
-32
-33
-35
-33
-30
-32
-30
-34
-34
-38
-44
-45
-39
-40
-46
-52
-56
-57
-58
-61
-59
-63
-67
-69
-68
-66
-67
-71
-70
-70
-70
-71
-70
-67
-68
-74
-84
-98
-102
-84
-55
17
118
218
299
340
316
206
58
-52
-85
-87
-65
-46
-47
-59
-62
-62
-63
-66
-73
-76
-74
-77
-76
-78
-76
-76
-76
-79
-80
-76
-77
-80
-79
-78
-77
-77
-77
-74
-74
-74
-73
-69
-68
-69
-70
-65
-62
-63
-62
-57
-52
-49
-49
-42
-36
-33
-30
-25
-20
-18
-13
-7
-2
-1
1
2
9
11
11
14
17
16
16
16
16
11
7
2
-1
-6
-14
-20
-23
-28
-34
-37
-41
-42
-45
-47
-52
-50
-52
-55
-58
-55
-54
-55
-57
-54
-53
-54
-56
-53
-52
-50
-54
-53
-50
-49
-53
-52
-48
-47
-49
-52
-49
-50
-49
-51
-48
-46
-49
-51
-51
-48
-51
-54
-51
-51
-54
-58
-57
-57
-60
-62
-63
-61
-62
-64
-65
-64
-68
-67
-69
-65
-65
-68
-69
-71
-71
-71
-75
-74
-71
-72
-73
-72
-69
-71
-69
-63
-56
-56
-55
-57
-52
-50
-51
-53
-50
-49
-51
-54
-55
-60
-62
-66
-62
-57
-61
-66
-69
-69
-72
-78
-81
-80
-80
-82
-88
-88
-87
-87
-87
-85
-85
-84
-84
-85
-84
-85
-86
-84
-87
-98
-118
-123
-111
-89
-36
64
176
269
295
347
302
170
17
-88
-112
-106
-86
-65
-61
-73
-79
-81
-82
-84
-89
-93
-94
-92
-94
-95
-97
-95
-98
-98
-98
-96
-95
-97
-96
-94
-92
-94
-95
-91
-88
-90
-91
-88
-84
-87
-86
-82
-75
-76
-73
-70
-64
-62
-62
-54
-47
-42
-41
-36
-31
-27
-23
-20
-12
-8
-4
-2
2
6
10
8
12
16
14
12
10
11
6
4
-4
-7
-16
-24
-31
-35
-42
-47
-52
-54
-60
-64
-66
-67
-65
-67
-68
-69
-69
-71
-71
-68
-64
-68
-69
-69
-65
-66
-66
-66
-63
-62
-64
-63
-59
-57
-59
-60
-58
-57
-59
-60
-62
-60
-62
-63
-61
-61
-61
-62
-66
-65
-66
-66
-70
-67
-68
-69
-72
-73
-72
-73
-75
-75
-75
-76
-77
-79
-77
-79
-80
-81
-81
-80
-81
-83
-81
-82
-82
-83
-81
-78
-76
-75
-70
-68
-67
-69
-65
-60
-59
-62
-59
-57
-60
-65
-69
-69
-72
-72
-70
-67
-71
-77
-81
-81
-84
-88
-92
-93
-93
-95
-96
-94
-92
-96
-97
-97
-94
-96
-95
-96
-94
-95
-96
-105
-119
-132
-130
-112
-73
3
113
222
305
345
323
207
40
-74
-118
-120
-101
-78
-74
-83
-88
-87
-89
-90
-96
-97
-101
-104
-105
-103
-101
-104
-104
-103
-102
-104
-104
-103
-100
-101
-103
-104
-99
-99
-98
-96
-95
-95
-96
-93
-90
-87
-86
-85
-80
-79
-74
-73
-66
-63
-58
-54
-49
-44
-43
-39
-32
-22
-21
-20
-15
-9
-8
-7
-3
2
5
2
4
5
7
3
-1
-3
-8
-14
-21
-25
-30
-39
-43
-47
-50
-55
-59
-63
-62
-64
-66
-69
-68
-66
-69
-73
-69
-68
-69
-68
-67
-68
-68
-66
-66
-62
-63
-63
-64
-60
-62
-62
-63
-60
-59
-59
-58
-57
-60
-61
-61
-61
-61
-63
-63
-62
-62
-63
-66
-66
-66
-65
-65
-66
-67
-69
-70
-71
-70
-72
-72
-75
-74
-76
-78
-80
-78
-78
-78
-79
-78
-76
-78
-80
-82
-80
-81
-80
-81
-78
-81
-79
-74
-67
-66
-65
-65
-61
-60
-61
-58
-57
-55
-56
-58
-59
-62
-65
-70
-68
-64
-66
-69
-71
-74
-76
-82
-81
-80
-83
-84
-87
-84
-87
-89
-90
-88
-87
-90
-89
-90
-86
-85
-88
-88
-98
-112
-119
-106
-76
-18
74
179
270
329
342
285
161
28
-66
-104
-102
-78
-59
-66
-71
-74
-78
-79
-82
-85
-87
-89
-90
-86
-88
-89
-90
-89
-89
-89
-92
-90
-90
-88
-90
-86
-86
-86
-85
-84
-83
-79
-84
-81
-80
-78
-77
-75
-72
-70
-67
-64
-58
-56
-55
-51
-45
-41
-38
-33
-26
-25
-19
-18
-8
-5
-2
0
6
8
10
10
16
19
19
15
15
18
13
11
3
3
-5
-14
-21
-23
-29
-35
-38
-42
-43
-46
-50
-50
-50
-51
-55
-52
-51
-53
-54
-54
-51
-52
-51
-53
-50
-50
-51
-52
-47
-47
-47
-46
-45
-43
-45
-45
-46
-41
-42
-43
-44
-39
-41
-44
-44
-41
-42
-42
-47
-46
-45
-48
-50
-49
-50
-51
-53
-50
-50
-52
-55
-53
-53
-56
-57
-59
-56
-57
-58
-60
-58
-59
-58
-64
-60
-60
-63
-63
-61
-61
-62
-64
-61
-59
-62
-58
-52
-49
-50
-49
-47
-43
-43
-44
-42
-38
-40
-41
-40
-39
-42
-48
-52
-50
-48
-47
-48
-52
-54
-58
-62
-63
-64
-68
-70
-71
-71
-74
-74
-75
-71
-74
-75
-77
-75
-75
-76
-78
-76
-76
-77
-80
-95
-111
-113
-100
-74
-16
81
188
286
362
384
341
221
76
-38
-66
-101
-84
-60
-47
-55
-60
-65
-69
-71
-72
-76
-80
-82
-81
-82
-84
-83
-83
-82
-82
-84
-84
-80
-83
-82
-85
-82
-81
-82
-82
-77
-77
-76
-76
-74
-70
-70
-70
-66
-62
-61
-60
-58
-53
-49
-48
-45
-37
-35
-33
-27
-20
-16
-11
-7
0
2
7
12
17
20
22
22
27
30
31
31
31
33
28
24
18
16
8
6
-6
-9
-16
-23
-27
-31
-36
-40
-44
-45
-45
-47
-51
-49
-52
-55
-53
-54
-51
-52
-51
-50
-48
-48
-49
-50
-46
-46
-48
-47
-43
-42
-43
-43
-41
-41
-42
-45
-41
-40
-41
-42
-42
-41
-43
-43
-45
-43
-44
-46
-49
-49
-48
-51
-54
-51
-51
-54
-56
-54
-54
-57
-57
-57
-57
-58
-62
-58
-58
-60
-62
-61
-60
-61
-60
-64
-62
-60
-61
-62
-58
-52
-51
-50
-47
-43
-44
-45
-41
-38
-37
-38
-37
-38
-41
-46
-51
-50
-47
-46
-50
-51
-57
-61
-67
-65
-66
-70
-72
-74
-73
-73
-77
-75
-74
-76
-78
-76
-72
-73
-75
-76
-77
-87
-92
-117
-103
-81
-38
52
165
274
353
380
328
197
34
-75
-104
-92
-70
-57
-55
-60
-66
-70
-71
-73
-78
-77
-82
-82
-83
-86
-88
-84
-81
-86
-88
-86
-83
-84
-86
-82
-81
-81
-83
-83
-77
-75
-80
-77
-73
-72
-72
-71
-65
-64
-62
-59
-53
-49
-46
-45
-37
-29
-25
-21
-15
-8
-5
-3
4
12
13
15
18
22
23
24
24
27
27
23
15
16
13
3
-4
-7
-15
-23
-29
-35
-36
-40
-45
-46
-45
-47
-51
-52
-49
-54
-56
-54
-50
-49
-51
-52
-50
-50
-52
-54
-46
-45
-46
-48
-47
-44
-44
-45
-46
-43
-44
-47
-46
-44
-46
-47
-48
-46
-47
-48
-50
-47
-48
-52
-54
-52
-52
-53
-56
-57
-56
-57
-59
-61
-59
-61
-62
-63
-61
-61
-62
-65
-63
-63
-66
-67
-63
-66
-65
-65
-65
-63
-62
-62
-54
-51
-52
-48
-48
-44
-45
-46
-45
-40
-41
-40
-50
-53
-53
-54
-55
-53
-56
-62
-66
-65
-68
-72
-77
-77
-73
-75
-78
-78
-75
-76
-78
-78
-74
-73
-74
-76
-75
-88
-107
-109
-93
-69
-5
99
216
309
356
339
236
86
-37
-91
-98
-75
-55
-53
-63
-65
-69
-69
-74
-74
-79
-82
-84
-82
-82
-83
-85
-83
-85
-85
-85
-84
-81
-83
-84
-83
-78
-79
-80
-79
-75
-76
-75
-74
-71
-72
-69
-65
-60
-60
-58
-52
-48
-45
-41
-38
-31
-25
-21
-19
-9
-2
1
-1
7
12
14
15
18
25
24
20
20
22
20
16
10
5
-1
-9
-17
-22
-25
-33
-36
-38
-39
-42
-46
-49
-46
-47
-48
-51
-49
-50
-51
-53
-50
-49
-50
-50
-45
-44
-44
-47
-44
-42
-43
-42
-44
-39
-40
-43
-42
-39
-41
-42
-44
-41
-42
-43
-47
-47
-45
-47
-48
-48
-48
-51
-55
-54
-53
-56
-59
-59
-56
-58
-63
-60
-58
-59
-61
-63
-60
-61
-64
-66
-64
-62
-66
-65
-62
-60
-57
-54
-50
-44
-45
-47
-43
-39
-41
-42
-41
-35
-41
-42
-47
-49
-51
-49
-47
-46
-53
-59
-61
-61
-63
-66
-69
-72
-73
-74
-76
-74
-73
-75
-78
-74
-72
-72
-72
-75
-71
-75
-84
-101
-105
-94
-68
-17
79
187
286
354
368
296
150
3
-83
-101
-91
-64
-47
-50
-61
-64
-67
-67
-72
-77
-82
-80
-81
-80
-81
-81
-79
-82
-82
-82
-80
-81
-83
-81
-78
-77
-77
-77
-75
-73
-71
-73
-68
-67
-65
-64
-57
-55
-54
-51
-45
-41
-38
-35
-27
-20
-16
-13
-9
1
5
8
14
19
21
23
25
28
29
29
27
26
25
19
11
7
1
-7
-15
-21
-26
-33
-37
-40
-41
-44
-48
-48
-45
-46
-49
-51
-46
-45
-47
-51
-45
-43
-46
-45
-43
-41
-43
-45
-43
-37
-41
-44
-43
-38
-40
-43
-41
-37
-40
-40
-42
-38
-41
-41
-45
-44
-45
-47
-49
-49
-48
-51
-53
-54
-52
-54
-54
-55
-55
-57
-57
-59
-58
-56
-57
-60
-57
-58
-60
-61
-58
-57
-59
-62
-58
-56
-53
-51
-46
-44
-42
-46
-39
-37
-36
-38
-35
-32
-37
-39
-44
-46
-45
-44
-45
-43
-49
-54
-57
-58
-58
-66
-65
-66
-66
-69
-72
-69
-69
-70
-71
-71
-68
-70
-69
-71
-68
-70
-77
-93
-108
-108
-92
-66
0
101
205
303
372
385
326
180
23
-67
-96
-95
-70
-44
-45
-48
-62
-62
-64
-70
-76
-76
-78
-76
-79
-79
-77
-79
-82
-80
-82
-79
-79
-79
-77
-75
-76
-76
-72
-72
-73
-71
-66
-66
-65
-65
-60
-57
-58
-55
-48
-45
-40
-38
-31
-25
-22
-18
-11
-3
1
2
9
16
18
18
23
27
31
33
34
35
36
33
30
28
23
15
10
5
-1
-11
-17
-21
-25
-31
-35
-39
-37
-41
-42
-44
-45
-44
-46
-47
-44
-44
-44
-46
-43
-41
-42
-42
-41
-39
-43
-41
-39
-37
-37
-38
-38
-35
-37
-37
-37
-35
-38
-38
-40
-34
-39
-38
-40
-40
-38
-39
-43
-45
-42
-45
-46
-45
-44
-48
-48
-48
-45
-49
-52
-52
-52
-53
-54
-53
-53
-54
-58
-59
-54
-53
-58
-58
-59
-58
-60
-60
-58
-55
-55
-55
-52
-44
-45
-45
-43
-38
-38
-37
-39
-37
-38
-37
-38
-38
-38
-45
-50
-47
-43
-44
-47
-51
-54
-58
-61
-64
-62
-64
-65
-70
-71
-72
-71
-72
-71
-71
-72
-73
-72
-73
-75
-76
-72
-70
-73
-82
-99
-107
-103
-85
-36
55
169
203
347
377
334
205
48
-58
-94
-94
-79
-52
-44
-56
-63
-64
-62
-65
-72
-76
-75
-77
-81
-80
-77
-79
-80
-82
-81
-79
-82
-82
-79
-80
-81
-83
-79
-77
-79
-77
-76
-72
-73
-72
-72
-65
-67
-66
-63
-55
-55
-53
-50
-43
-40
-36
-33
-26
-18
-15
-11
-6
1
3
6
12
16
15
18
22
25
25
21
22
22
15
13
4
2
-4
-14
-18
-23
-26
-32
-36
-36
-40
-45
-46
-49
-46
-49
-51
-51
-50
-52
-55
-52
-50
-52
-52
-53
-49
-48
-50
-51
-49
-47
-47
-48
-45
-45
-46
-48
-47
-46
-48
-48
-49
-45
-45
-48
-51
-46
-47
-48
-53
-52
-50
-53
-54
-53
-51
-55
-58
-58
-57
-59
-61
-61
-61
-65
-64
-66
-64
-65
-66
-67
-64
-65
-65
-68
-66
-64
-67
-66
-65
-68
-69
-70
-67
-64
-63
-60
-57
-53
-52
-53
-51
-47
-45
-49
-50
-44
-46
-47
-51
-52
-57
-61
-61
-55
-55
-57
-62
-65
-67
-68
-73
-75
-75
-76
-83
-81
-79
-82
-85
-83
-81
-80
-81
-84
-81
-78
-82
-83
-83
-90
-108
-117
-105
-87
-45
30
130
226
306
345
337
246
101
-23
-89
-107
-93
-85
-57
-64
-71
-75
-76
-77
-82
-87
-90
-86
-85
-90
-92
-89
-87
-90
-92
-92
-88
-87
-92
-91
-89
-88
-89
-89
-85
-85
-88
-85
-81
-79
-79
-79
-73
-70
-71
-70
-65
-57
-53
-51
-45
-37
-33
-32
-27
-19
-16
-15
-9
-4
1
-1
2
7
10
9
10
14
14
11
9
8
4
-3
-9
-12
-17
-24
-32
-39
-40
-44
-47
-51
-50
-54
-59
-61
-59
-58
-60
-62
-58
-56
-62
-61
-59
-58
-58
-62
-58
-56
-58
-58
-59
-55
-54
-54
-56
-51
-51
-53
-55
-51
-51
-54
-54
-52
-49
-53
-56
-56
-55
-55
-57
-57
-56
-57
-59
-60
-55
-59
-59
-61
-61
-61
-67
-70
-66
-67
-70
-71
-71
-68
-69
-72
-69
-68
-71
-73
-72
-69
-71
-74
-69
-64
-60
-59
-58
-56
-57
-59
-55
-50
-51
-50
-50
-48
-50
-56
-61
-63
-59
-59
-60
-59
-63
-69
-73
-77
-77
-79
-81
-83
-83
-84
-86
-87
-85
-84
-86
-87
-85
-84
-85
-87
-87
-86
-94
-110
-123
-118
-102
-70
7
117
220
250
356
367
299
161
11
-82
-115
-108
-84
-62
-62
-74
-82
-81
-80
-87
-94
-94
-91
-94
-96
-97
-97
-98
-99
-97
-95
-96
-100
-102
-97
-96
-98
-98
-93
-93
-94
-94
-91
-87
-88
-90
-87
-82
-81
-81
-78
-72
-72
-71
-65
-60
-54
-53
-49
-43
-40
-33
-32
-24
-21
-17
-14
-8
-6
-4
0
3
9
8
9
11
12
11
8
6
5
0
-7
-14
-17
-23
-32
-39
-43
-46
-53
-56
-54
-58
-60
-65
-63
-62
-65
-67
-66
-62
-64
-66
-66
-63
-63
-63
-63
-61
-61
-62
-63
-58
-56
-59
-60
-57
-56
-56
-61
-60
-57
-58
-62
-59
-56
-58
-59
-60
-58
-59
-61
-61
-60
-60
-63
-66
-63
-62
-66
-69
-67
-66
-67
-71
-71
-69
-72
-74
-74
-72
-73
-74
-76
-73
-73
-78
-78
-76
-73
-78
-79
-76
-76
-77
-78
-74
-73
-73
-71
-66
-61
-63
-65
-62
-57
-58
-57
-54
-55
-52
-54
-55
-56
-56
-65
-67
-64
-62
-62
-65
-69
-71
-75
-77
-78
-80
-81
-86
-87
-86
-87
-87
-89
-88
-89
-90
-91
-90
-87
-88
-89
-88
-87
-95
-108
-123
-127
-115
-91
-36
63
175
274
347
371
315
286
23
-82
-113
-116
-98
-72
-65
-76
-83
-84
-84
-91
-95
-98
-96
-99
-102
-102
-101
-100
-104
-103
-100
-101
-102
-103
-101
-101
-101
-101
-98
-97
-97
-97
-93
-91
-92
-93
-89
-85
-84
-83
-78
-74
-71
-69
-64
-56
-53
-51
-43
-36
-33
-30
-25
-17
-14
-11
-5
-1
5
8
8
11
14
12
10
8
9
4
-3
-7
-13
-18
-21
-34
-38
-45
-54
-57
-59
-60
-65
-65
-66
-64
-66
-69
-68
-66
-67
-71
-69
-65
-67
-70
-68
-62
-62
-63
-63
-59
-58
-61
-61
-58
-57
-59
-61
-57
-58
-58
-62
-58
-59
-61
-62
-62
-61
-62
-66
-65
-65
-66
-67
-69
-68
-69
-72
-75
-72
-73
-77
-78
-76
-77
-80
-79
-79
-77
-79
-79
-78
-79
-79
-80
-77
-77
-80
-79
-80
-77
-77
-79
-81
-75
-71
-70
-66
-63
-61
-64
-61
-55
-54
-57
-59
-57
-56
-61
-66
-70
-71
-72
-71
-68
-68
-73
-78
-81
-82
-84
-89
-91
-91
-90
-92
-96
-94
-93
-95
-97
-95
-94
-94
-97
-94
-91
-94
-96
-116
-130
-130
-116
-79
0
111
218
315
360
335
198
15
-102
-123
-113
-86
-69
-78
-85
-88
-88
-88
-94
-95
-100
-97
-97
-102
-106
-102
-100
-101
-102
-102
-100
-101
-102
-100
-96
-96
-97
-97
-93
-92
-93
-90
-88
-86
-86
-84
-78
-74
-72
-68
-60
-55
-51
-45
-36
-29
-26
-22
-16
-9
-6
-5
-3
4
7
5
8
11
10
8
0
0
-7
-17
-25
-29
-33
-43
-47
-52
-55
-59
-62
-61
-64
-65
-66
-67
-63
-65
-67
-65
-61
-65
-64
-64
-59
-59
-61
-62
-58
-58
-60
-60
-59
-57
-57
-61
-60
-56
-58
-60
-60
-57
-59
-64
-62
-61
-62
-62
-65
-64
-64
-67
-70
-67
-67
-69
-73
-70
-71
-74
-74
-72
-74
-77
-77
-77
-73
-76
-79
-78
-78
-79
-81
-80
-79
-79
-83
-83
-79
-77
-78
-75
-67
-64
-64
-65
-63
-59
-61
-58
-59
-55
-55
-59
-61
-62
-67
-68
-65
-63
-66
-72
-77
-78
-80
-83
-84
-85
-88
-90
-92
-91
-89
-90
-92
-91
-88
-88
-91
-88
-87
-91
-93
-119
-119
-102
-69
9
120
227
312
354
316
184
18
-87
-118
-105
-80
-66
-71
-79
-81
-84
-85
-90
-92
-94
-94
-92
-92
-95
-96
-95
-94
-94
-97
-95
-93
-92
-93
-93
-92
-93
-93
-90
-86
-83
-86
-83
-76
-77
-78
-75
-68
-64
-63
-57
-51
-46
-44
-39
-32
-26
-21
-18
-11
-6
-3
-4
1
8
8
9
10
12
12
10
3
5
-2
-8
-15
-18
-27
-34
-41
-42
-46
-50
-54
-56
-55
-57
-61
-62
-57
-60
-62
-62
-57
-60
-59
