12
3
-2
-6
-7
-7
-10
-13
-16
-17
-20
-19
-18
-16
-16
-15
-20
-17
-19
-18
-15
-12
-13
-12
-15
-16
-15
-16
-15
-13
-12
-11
-12
-15
-19
-18
-17
-15
-15
-16
-18
-21
-22
-20
-20
-21
-18
-20
-20
-21
-22
-23
-23
-21
-20
-21
-23
-24
-25
-26
-28
-27
-28
-28
-29
-28
-27
-28
-30
-30
-31
-27
-27
-26
-29
-30
-31
-30
-27
-24
-25
-25
-27
-29
-32
-31
-27
-27
-26
-25
-24
-27
-28
-27
-29
-27
-28
-26
-26
-27
-29
-26
-26
-24
-22
-19
-20
-19
-18
-16
-12
-8
-4
-1
2
5
6
4
0
-1
-3
-5
-9
-13
-17
-20
-20
-21
-20
-19
-19
-22
-25
-27
-28
-25
-21
-21
-13
-11
-7
-6
-2
4
12
22
31
36
39
40
39
48
57
69
86
107
136
170
209
234
224
179
106
39
-10
-43
-70
-93
-100
-94
-72
-48
-27
-15
-15
-14
-18
-18
-12
-11
-10
-11
-13
-14
-14
-15
-14
-14
-10
-9
-11
-11
-13
-13
-11
-9
-5
-3
-2
-5
-7
-12
-8
-4
1
5
6
8
7
9
13
20
24
30
31
30
31
29
32
35
41
44
47
48
45
44
39
38
38
37
35
29
20
16
10
5
3
4
1
-2
-5
-9
-12
-14
-14
-13
-13
-11
-12
-11
-12
-16
-13
-13
-14
-13
-13
-14
-15
-16
-15
-15
-11
-10
-8
-10
-13
-17
-15
-15
-14
-12
-12
-14
-15
-16
-22
-22
-22
-19
-19
-18
-20
-24
-25
-26
-24
-24
-23
-22
-23
-29
-29
-31
-28
-26
-24
-25
-25
-27
-28
-33
-31
-27
-27
-25
-25
-27
-31
-33
-36
-34
-31
-30
-28
-28
-31
-33
-35
-35
-33
-29
-27
-26
-31
-31
-34
-36
-32
-32
-31
-30
-33
-30
-32
-33
-31
-31
-27
-26
-27
-30
-31
-33
-31
-26
-25
-26
-25
-23
-24
-19
-15
-13
-8
-10
-5
-5
-6
-4
-6
-8
-10
-12
-18
-20
-24
-28
-27
-28
-27
-27
-29
-28
-32
-32
-35
-35
-33
-32
-33
-32
-31
-33
-34
-33
-31
-31
-30
-30
-28
-29
-31
-24
-18
-4
16
40
66
88
95
57
-13
-96
-164
-209
-232
-244
-244
-219
-181
-135
-89
-48
-18
-7
-2
-1
3
9
16
21
22
23
25
26
29
29
32
33
38
42
45
45
47
49
52
56
59
62
66
70
73
77
84
91
98
104
107
114
116
125
132
137
145
151
156
160
161
163
164
166
168
169
167
164
158
153
144
136
124
113
101
91
77
72
52
43
37
27
23
14
8
2
-2
-5
-6
-6
-6
-5
-5
-6
-9
-11
-7
-6
-3
-2
-4
-4
-5
-5
-6
-4
-4
-1
-1
-3
-6
-8
-10
-11
-8
-6
-5
-6
-11
-12
-15
-16
-16
-14
-15
-17
-19
-20
-21
-22
-22
-22
-22
-22
-22
-25
-25
-25
-26
-23
-21
-22
-25
-26
-30
-32
-32
-32
-32
-28
-27
-29
-29
-32
-31
-30
-27
-27
-27
-26
-31
-33
-33
-31
-32
-30
-29
-29
-30
-34
-33
-32
-31
-30
-29
-31
-33
-35
-38
-36
-35
-32
-34
-33
-37
-37
-39
-38
-35
-33
-30
-26
-25
-23
-24
-23
-22
-15
-11
-10
-9
-11
-12
-18
-20
-23
-25
-26
-29
-30
-31
-36
-36
-40
-41
-41
-41
-43
-44
-46
-45
-44
-41
-40
-38
-42
-41
-41
-41
-39
-37
-34
-32
-32
-33
-29
-24
-11
4
28
56
86
105
101
56
-8
-77
-131
-169
-191
-206
-206
-206
-165
-125
-79
-41
-17
-9
-7
-8
-8
-7
-3
5
4
10
10
11
12
12
16
20
23
25
28
27
28
31
34
36
42
47
51
55
57
59
64
67
73
81
86
90
95
98
105
111
119
122
126
124
126
126
127
131
132
132
130
128
126
120
113
107
99
94
86
76
64
53
41
32
25
17
12
8
5
-1
-4
-13
-15
-15
-17
-18
-19
-21
-20
-21
-21
-19
-16
-13
-14
-15
-18
-20
-22
-21
-19
-17
-16
-15
-16
-17
-21
-21
-21
-19
-17
-19
-19
-23
-25
-27
-25
-26
-24
-24
-25
-28
-28
-31
-33
-32
-32
-31
-33
-32
-34
-37
-36
-38
-35
-31
-33
-34
-34
-36
-39
-38
-39
-36
-34
-37
-37
-39
-40
-40
-40
-36
-36
-36
-37
-37
-40
-39
-37
-35
-32
-32
-34
-36
-37
-39
-35
-31
-27
-22
-22
-21
-21
-19
-16
-14
-14
-13
-14
-19
-22
-29
-29
-31
-29
-26
-29
-30
-32
-35
-37
-36
-35
-36
-37
-37
-43
-40
-40
-39
-38
-38
-34
-32
-32
-34
-37
-36
-33
-29
-25
-22
-14
-5
9
30
58
90
110
103
57
-11
-80
-136
-170
-191
-205
-205
-190
-160
-148
-77
-41
-17
-7
-3
-2
2
3
5
8
10
13
18
19
21
21
19
20
23
26
34
40
40
44
43
46
51
54
55
61
64
68
69
74
77
83
88
95
102
106
110
115
117
123
128
132
136
137
140
138
137
135
135
134
133
130
123
115
108
99
91
82
73
68
55
46
36
27
22
18
13
11
6
3
0
-6
-9
-7
-9
-8
-8
-8
-11
-12
-12
-13
-9
-8
-4
-6
-6
-7
-6
-7
-5
-6
-5
-9
-8
-10
-12
-11
-10
-11
-9
-11
-11
-15
-17
-16
-16
-15
-14
-14
-16
-18
-22
-25
-22
-21
-18
-18
-20
-22
-22
-27
-28
-25
-23
-22
-23
-24
-27
-26
-28
-28
-28
-25
-24
-27
-26
-30
-30
-29
-27
-25
-23
-24
-25
-24
-30
-30
-27
-26
-24
-22
-22
-23
-24
-25
-24
-20
-16
-12
-10
-9
-9
-9
-4
-1
-1
-2
-8
-9
-11
-20
-23
-24
-21
-22
-19
-21
-24
-29
-31
-31
-30
-26
-21
-19
-18
-16
-12
-8
0
6
16
23
29
32
37
43
49
58
70
87
112
144
181
211
218
185
124
57
7
-25
-57
-83
-94
-93
-78
-54
-37
-23
-20
-21
-21
-21
-20
-13
-13
-13
-12
-15
-15
-15
-12
-8
-6
-10
-10
-11
-13
-11
-10
-8
-6
-4
-5
-6
-5
-5
-3
0
2
6
7
8
7
9
14
17
20
24
26
31
30
33
37
37
39
41
46
46
47
45
40
38
38
38
36
33
24
22
14
13
9
9
8
5
0
-5
-9
-11
-13
-13
-11
-10
-12
-13
-18
-19
-17
-13
-11
-10
-11
-10
-11
-13
-12
-8
-5
-5
-6
-8
-9
-11
-9
-8
-5
-4
-8
-8
-10
-12
-13
-13
-11
-12
-10
-9
-12
-13
-14
-14
-14
-12
-11
-15
-18
-19
-21
-21
-23
-22
-21
-20
-22
-21
-22
-24
-25
-23
-23
-22
-22
-23
-26
-31
-31
-29
-27
-23
-23
-26
-28
-30
-31
-30
-28
-28
-27
-26
-27
-30
-31
-29
-26
-25
-26
-28
-27
-27
-28
-26
-23
-20
-17
-16
-13
-15
-13
-12
-10
-7
-2
-3
-3
-4
-10
-14
-18
-18
-16
-17
-18
-21
-25
-28
-29
-31
-29
-28
-28
-26
-28
-22
-20
-14
-8
-1
3
10
14
23
28
35
38
45
53
59
69
84
108
142
185
229
250
228
172
93
28
-16
-48
-73
-93
-98
-90
-85
-54
-35
-27
-23
-21
-21
-21
-21
-23
-24
-24
-21
-21
-18
-16
-16
-18
-19
-23
-22
-21
-16
-16
-17
-16
-21
-20
-18
-16
-12
-12
-12
-14
-13
-12
-10
-7
-5
2
0
0
1
-1
2
4
7
12
14
15
16
17
20
24
24
27
27
23
22
17
10
7
5
0
0
-5
-12
-15
-18
-18
-16
-16
-14
-14
-17
-17
-20
-21
-18
-19
-15
-15
-17
-17
-18
-19
-19
-15
-13
-11
-13
-16
-19
-20
-19
-18
-16
-15
-14
-16
-17
-20
-20
-20
-18
-17
-17
-17
-19
-20
-23
-24
-22
-24
-22
-23
-26
-29
-29
-29
-28
-27
-25
-28
-28
-29
-29
-30
-28
-28
-29
-27
-27
-28
-28
-31
-32
-30
-31
-29
-30
-30
-33
-35
-33
-33
-29
-26
-26
-30
-29
-28
-28
-23
-18
-13
-13
-10
-9
-8
-5
-6
-8
-11
-14
-17
-18
-22
-24
-25
-25
-24
-23
-25
-31
-32
-33
-34
-33
-31
-28
-24
-19
-15
-12
-7
-2
6
15
22
25
31
35
38
42
50
58
74
97
127
137
201
233
247
224
174
112
60
16
-21
-53
-77
-86
-82
-66
-52
-35
-28
-25
-25
-25
-25
-20
-18
-17
-16
-22
-22
-22
-20
-16
-17
-15
-14
-16
-19
-18
-17
-13
-13
-14
-14
-17
-18
-19
-15
-13
-8
-6
-9
-10
-13
-12
-10
-7
-3
0
1
3
2
4
7
9
15
20
20
22
20
21
21
26
27
30
29
24
23
15
9
7
5
3
3
0
-2
-6
-11
-11
-12
-11
-10
-10
-14
-12
-15
-14
-15
-14
-11
-9
-9
-11
-13
-12
-10
-9
-7
-5
-6
-7
-8
-10
-9
-9
-5
-2
-7
-7
-11
-11
-13
-12
-11
-10
-11
-13
-13
-16
-19
-18
-16
-15
-16
-16
-16
-19
-21
-23
-21
-23
-18
-18
-19
-20
-22
-25
-24
-22
-23
-23
-24
-25
-26
-26
-25
-22
-22
-22
-22
-25
-25
-26
-27
-25
-24
-22
-21
-21
-22
-24
-25
-25
-22
-20
-19
-21
-21
-26
-30
-28
-22
-21
-20
-23
-23
-22
-19
-14
-13
-11
-7
-7
-3
-1
0
-1
-2
-2
-4
-6
-10
-11
-18
-20
-20
-16
-16
-18
-21
-23
-24
-26
-25
-23
-20
-17
-14
-9
-3
-2
3
9
15
25
33
39
42
46
48
54
64
80
100
127
160
197
229
240
221
166
98
41
3
-25
-57
-79
-90
-83
-66
-47
-28
-23
-12
-13
-13
-14
-12
-9
-8
-8
-10
-12
-13
-11
-9
-6
-6
-5
-8
-10
-11
-10
-6
-6
-2
-3
-2
-4
-5
-4
1
5
6
7
7
6
4
6
9
14
20
23
24
24
26
29
30
33
37
40
40
40
39
38
40
45
47
50
45
41
36
31
28
23
22
22
19
13
7
1
-2
-1
0
-1
2
0
-1
-8
-8
-7
-4
-2
2
-1
-1
-6
-8
-8
-7
-4
-1
0
-1
1
-1
-2
-2
-3
-2
-1
-2
-1
-1
-4
-5
-2
0
3
2
-1
-7
-8
-8
-5
-6
-7
-8
-8
-9
-10
-14
-13
-13
-13
-12
-12
-11
-17
-19
-21
-20
-19
-15
-15
-17
-20
-24
-22
-22
-18
-15
-16
-16
-19
-20
-22
-21
-19
-17
-14
-16
-15
-18
-20
-19
-17
-16
-14
-11
-12
-16
-21
-24
-23
-20
-16
-10
-11
-13
-20
-25
-23
-20
-18
-14
-15
-16
-19
-21
-21
-21
-15
-11
-9
-8
-8
-7
-1
2
7
9
11
8
5
3
5
7
9
5
-1
-6
-7
-9
-11
-11
-12
-13
-14
-19
-17
-19
-20
-18
-17
-13
-6
-1
2
3
4
10
18
29
39
46
50
53
57
61
70
85
107
138
175
219
256
261
224
152
69
10
-25
-48
-70
-82
-82
-67
-44
-21
-9
-5
-4
-12
-10
-10
-4
-4
-2
-1
-1
-2
-4
-4
-4
-1
-3
-1
-3
-3
-2
-3
0
3
5
6
7
7
10
8
7
8
10
14
18
17
16
18
20
22
24
27
30
34
35
37
38
42
44
45
47
48
49
50
49
52
51
51
44
36
28
24
19
18
16
15
13
11
7
3
2
2
5
4
2
2
-1
0
-1
-4
-4
-2
-3
0
1
3
1
-2
-4
-4
-1
3
2
1
1
-1
-2
-2
-1
-1
-1
1
2
1
-1
-2
-2
-1
-1
0
-3
-5
-7
-6
-5
-7
-10
-10
-8
-10
-13
-15
-17
-17
-13
-10
-12
-14
-18
-19
-17
-13
-10
-11
-16
-18
-19
-20
-18
-17
-16
-17
-14
-15
-17
-23
-26
-26
-18
-16
-14
-18
-20
-24
-24
-23
-20
-17
-17
-17
-18
-19
-20
-19
-17
-16
-12
-15
-17
-17
-18
-17
-13
-15
-16
-15
-17
-16
-18
-22
-24
-24
-20
-18
-14
-15
-16
-17
-19
-17
-12
-6
-4
-3
-6
-5
-3
3
8
10
11
6
4
-6
-10
-13
-12
-10
-10
-11
-12
-14
-18
-20
-17
-17
-16
-13
-11
-10
-9
-7
-2
3
8
15
23
27
39
44
48
53
58
66
77
92
114
144
188
229
252
228
160
75
6
-36
-56
-74
-82
-82
-66
-47
-40
-15
-11
-9
-7
-6
-3
-1
-2
-1
0
1
3
1
-1
2
-1
3
0
0
2
7
10
11
11
10
7
5
7
6
12
16
18
20
21
21
23
26
32
36
38
39
40
40
41
48
51
54
57
58
58
56
56
57
59
57
54
49
44
40
35
32
24
19
16
11
10
8
5
3
2
0
1
0
1
2
-2
-5
-5
-2
2
3
1
0
1
0
-2
-3
-4
-4
-4
-1
-1
-2
-1
-3
-2
-2
-2
-2
-4
-1
-1
-4
-4
-4
-2
-2
-5
-9
-10
-14
-13
-11
-10
-9
-8
-10
-14
-19
-19
-17
-17
-15
-15
-14
-19
-21
-21
-21
-20
-17
-14
-17
-18
-22
-25
-24
-24
-23
-21
-23
-25
-28
-28
-25
-21
-22
-22
-22
-22
-26
-26
-25
-24
-22
-20
-19
-20
-23
-24
-28
-26
-22
-19
-21
-26
-27
-29
-28
-27
-25
-24
-21
-21
-21
-23
-26
-28
-26
-27
-25
-23
-24
-24
-24
-24
-24
-24
-24
-21
-26
-24
-26
-26
-24
-21
-17
-15
-12
-11
-10
-8
-7
-3
0
4
2
0
-4
-8
-13
-18
-18
-19
-20
-19
-21
-22
-27
-29
-29
-29
-25
-25
-25
-25
-22
-19
-12
-7
-1
4
6
13
18
24
33
41
49
54
58
73
90
116
149
185
217
227
194
177
68
12
-26
-55
-80
-93
-94
-80
-59
-41
-28
-18
-17
-16
-16
-13
-13
-17
-20
-21
-18
-17
-10
-11
-10
-14
-16
-18
-14
-14
-12
-9
-8
-11
-13
-12
-12
-10
-7
-7
-7
-4
-7
-8
-7
-3
1
6
8
7
5
6
6
8
12
13
17
20
21
22
23
26
25
28
29
29
30
30
23
20
15
14
16
12
9
1
-3
-8
-7
-7
-5
-6
-8
-9
-13
-13
-13
-12
-10
-9
-9
-9
-12
-13
-13
-11
-8
-3
-5
-6
-7
-7
-6
-2
-3
-1
-4
-4
-5
-8
-9
-12
-9
-7
-5
-5
-5
-7
-10
-12
-11
-10
-11
-10
-12
-11
-13
-15
-14
-14
-12
-12
-9
-13
-15
-20
-20
-18
-19
-17
-15
-18
-20
-23
-24
-19
-18
-17
-18
-20
-23
-22
-23
-18
-17
-14
-12
-16
-17
-18
-21
-20
-18
-15
-11
-10
-13
-18
-19
-20
-17
-12
-7
-4
-3
-4
-6
-5
0
2
7
10
8
6
1
-3
-8
-9
-10
-10
-12
-10
-13
-17
-17
-17
-20
-19
-20
-21
-17
-15
-12
-8
-3
3
9
14
18
24
32
39
47
57
63
69
80
101
128
168
204
224
211
156
136
26
-20
-49
-72
-80
-79
-63
-44
-25
-15
-13
-11
-11
-7
-4
-3
-5
-5
-6
-4
-2
2
2
3
0
-3
-4
-3
2
7
7
6
2
3
3
4
6
8
12
16
19
21
23
22
24
26
32
38
41
42
42
43
40
42
48
51
54
55
55
51
51
49
50
47
47
40
35
28
22
18
15
12
10
8
6
0
-4
-7
-6
-5
-6
-6
-8
-8
-11
-12
-10
-9
-8
-6
-8
-7
-9
-10
-10
-11
-8
-6
-4
-3
-4
-4
-5
-5
-5
-5
-3
-6
-5
-8
-10
-10
-9
-7
-6
-9
-11
-11
-15
-15
-14
-13
-14
-13
-14
-14
-17
-16
-16
-14
-13
-11
-14
-17
-19
-21
-19
-16
-17
-16
-20
-20
-21
-21
-21
-19
-19
-17
-19
-20
-22
-22
-21
-21
-21
-20
-16
-19
-19
-22
-21
-19
-17
-15
-16
-18
-16
-21
-21
-23
-17
-12
-6
-5
-6
-6
-4
-4
0
6
7
10
6
1
-4
-6
-8
-8
-10
-10
-11
-12
-13
-17
-19
-22
-21
-22
-20
-21
-21
-23
-22
-23
-21
-21
-21
-19
-17
-20
-22
-21
-20
-18
-13
-12
-6
0
14
32
56
84
105
95
85
-26
-106
-162
-195
-210
-211
-201
-177
-144
-103
-64
-33
-11
3
12
15
12
14
15
16
19
22
27
26
25
28
29
30
31
37
42
50
51
53
53
58
61
66
74
81
88
89
91
94
101
110
116
122
130
132
140
144
149
152
155
160
163
167
166
165
162
159
156
154
146
136
128
117
107
96
85
74
66
56
52
34
23
15
11
7
7
6
4
2
0
-2
-5
-8
-12
-10
-8
-8
-7
-9
-7
-8
-5
-3
-2
-3
-3
-4
-3
0
1
2
-1
-6
-6
-7
-10
-9
-9
-7
-7
-7
-8
-11
-13
-14
-15
-14
-15
-13
-13
-18
-22
-22
-23
-20
-17
-17
-18
-22
-25
-27
-27
-27
-26
-22
-22
-26
-28
-30
-32
-30
-27
-24
-25
-27
-29
-29
-28
-29
-27
-26
-22
-24
-25
-28
-29
-30
-29
-26
-24
-25
-27
-27
-29
-30
-28
-27
-24
-20
-19
-14
-12
-13
-11
-9
-7
-7
-7
-9
-12
-13
-14
-17
-17
-18
-21
-19
-21
-24
-24
-29
-28
-30
-30
-32
-33
-34
-37
-35
-36
-32
-27
-30
-28
-31
-33
-37
-33
-29
-26
-25
-27
-26
-23
-18
-5
13
37
61
69
97
78
23
-52
-125
-174
-206
-221
-226
-217
-195
-159
-115
-73
-37
-13
-6
-2
0
-1
4
10
16
17
18
22
24
24
27
27
30
33
33
34
34
35
39
44
49
56
58
61
64
64
68
75
85
92
99
100
107
110
117
125
133
139
146
148
149
150
152
152
155
157
160
158
156
149
141
131
124
119
108
102
99
78
65
52
41
33
27
19
12
6
-1
-5
-9
-9
-10
-8
-9
-12
-15
-19
-19
-19
-18
-14
-13
-13
-13
-17
-17
-15
-13
-10
-6
-10
-9
-11
-13
-13
-12
-10
-10
-11
-12
-14
-17
-19
-21
-20
-19
-17
-18
-23
-24
-29
-29
-30
-27
-24
-24
-28
-29
-32
-29
-25
-24
-21
-23
-25
-29
-36
-38
-36
-35
-34
-32
-31
-34
-36
-38
-40
-38
-36
-33
-34
-34
-36
-37
-38
-35
-32
-29
-29
-32
-36
-39
-40
-38
-34
-32
-30
-32
-31
-32
-34
-29
-26
-22
-20
-17
-13
-13
-11
-12
-11
-12
-13
-19
-22
-26
-30
-30
-27
-28
-30
-32
-33
-39
-44
-46
-47
-44
-41
-39
-38
-38
-39
-41
-43
-41
-36
-34
-32
-34
-33
-34
-30
-19
-3
18
45
55
101
104
68
0
-79
-142
-184
-203
-215
-216
-203
-175
-134
-91
-54
-28
-19
-16
-14
-14
-11
-4
2
6
7
6
6
7
11
16
17
17
16
15
20
20
23
24
26
32
41
44
46
48
47
53
59
64
73
77
80
85
88
95
101
110
117
120
119
117
117
119
119
121
122
121
119
116
107
99
94
87
78
71
68
48
35
25
16
11
5
3
-2
-6
-14
-19
-24
-26
-26
-24
-25
-26
-28
-31
-33
-31
-28
-26
-23
-24
-25
-24
-29
-26
-23
-25
-21
-23
-24
-26
-29
-31
-31
-29
-26
-25
-28
-30
-30
-32
-34
-31
-31
-30
-30
-30
-35
-36
-38
-36
-36
-37
-39
-41
-42
-43
-43
-43
-40
-43
-44
-43
-44
-47
-45
-47
-45
-43
-42
-43
-41
-44
-50
-48
-46
-42
-39
-40
-40
-42
-41
-39
-38
-32
-30
-25
-23
-24
-25
-27
-27
-29
-30
-31
-32
-33
-37
-41
-41
-44
-43
-43
-47
-49
-51
-55
-55
-57
-52
-49
-47
-51
-50
-52
-54
-51
-50
-47
-44
-42
-42
-42
-44
-41
-31
-16
2
32
61
86
97
70
13
-58
-121
-163
-191
-210
-213
-200
-170
-124
-80
-45
-37
-22
-20
-22
-17
-12
-8
-3
-2
-2
-2
-2
-1
2
5
7
11
11
14
14
16
19
27
33
36
37
40
42
42
47
55
61
68
75
82
86
88
93
97
105
110
115
115
116
113
114
112
114
114
111
110
101
95
86
80
72
62
52
43
35
24
13
3
2
-1
-6
-12
-17
-21
-24
-28
-27
-26
-28
-25
-25
-28
-28
-32
-29
-28
-26
-24
-22
-21
-23
-24
-29
-29
-29
-23
-21
-22
-25
-28
-28
-28
-27
-26
-27
-28
-30
-32
-34
-37
-36
-36
-34
-32
-32
-36
-39
-42
-40
-37
-36
-33
-35
-38
-41
-42
-42
-39
-40
-37
-36
-38
-43
-44
-43
-41
-39
-38
-36
-38
-38
-40
-41
-39
-34
-30
-27
-26
-26
-28
-28
-24
-21
-24
-23
-23
-27
-32
-35
-38
-38
-37
-35
-36
-38
-42
-45
-50
-48
-43
-42
-38
-35
-33
-34
-33
-28
-19
-11
-4
-1
8
11
16
22
28
35
41
54
71
98
132
172
209
221
196
137
66
5
-37
-70
-96
-113
-114
-96
-89
-54
-40
-36
-35
-37
-37
-33
-32
-30
-31
-33
-35
-33
-34
-32
-34
-31
-33
-35
-35
-34
-30
-30
-30
-30
-32
-31
-33
-31
-30
-28
-26
-21
-20
-20
-22
-22
-20
-17
-12
-8
-8
-4
-2
-1
0
5
8
8
10
11
10
11
16
14
17
22
18
18
13
6
2
-4
-10
-12
-13
-17
-22
-26
-30
-33
-31
-28
-28
-28
-29
-33
-34
-35
-32
-31
-29
-27
-28
-29
-31
-33
-32
-27
-26
-25
-25
-27
-30
-31
-29
-26
-28
-27
-25
-24
-26
-29
-30
-33
-31
-28
-29
-28
-29
-31
-31
-32
-32
-33
-31
-32
-35
-36
-38
-38
-37
-36
-34
-35
-37
-37
-40
-40
-40
-38
-37
-36
-37
-40
-40
-40
-38
-37
-38
-38
-40
-38
-39
-41
-41
-41
-37
-32
-30
-29
-30
-33
-28
-28
-24
-20
-19
-17
-15
-18
-22
-22
-25
-26
-28
-29
-30
-34
-36
-35
-37
-40
-37
-36
-40
-39
-38
-40
-36
-33
-29
-24
-23
-17
-15
-8
1
9
15
25
28
31
36
37
47
64
85
115
126
187
211
206
165
102
33
-15
-47
-78
-100
-109
-105
-88
-62
-42
-28
-25
-24
-26
-27
-32
-30
-29
-27
-25
-26
-26
-27
-30
-29
-30
-28
-25
-22
-23
-24
-26
-23
-24
-19
-16
-17
-17
-19
-18
-16
-12
-8
-5
-4
0
0
1
2
7
11
15
16
16
20
19
18
20
23
29
34
35
34
31
29
26
28
27
26
25
18
11
4
-1
-2
-2
-3
-8
-11
-15
-19
-23
-23
-22
-20
-19
-22
-20
-22
-25
-26
-23
-20
-18
-16
-17
-19
-22
-20
-19
-16
-16
-16
-16
-17
-18
-20
-21
-19
-19
-18
-20
-21
-20
-22
-27
-26
-22
-22
-21
-22
-25
-26
-27
-25
-25
-23
-25
-26
-23
-23
-26
-28
-32
-33
-34
-34
-32
-37
-38
-40
-38
-34
-35
-34
-34
-32
-37
-39
-37
-36
-33
-33
-33
-34
-35
-36
-34
-34
-33
-34
-33
-33
-31
-34
-35
-33
-34
-29
-27
-27
-26
-25
-23
-21
-16
-11
-8
-9
-10
-12
-17
-16
-19
-20
-23
-24
-25
-24
-27
-31
-32
-34
-35
-34
-33
-31
-31
-30
-26
-24
-19
-13
-7
0
5
13
20
29
34
40
45
52
59
73
95
129
172
214
225
216
159
80
13
-31
-58
-79
-94
-100
-92
-77
-59
-41
-33
-28
-26
-24
-25
-23
-24
-27
-25
-24
-23
-22
-23
-25
-26
-28
-28
-26
-23
-23
-24
-23
-25
-24
-25
-21
-18
-15
-15
-15
-16
-15
-11
-7
-1
4
4
6
7
4
4
7
13
17
19
19
16
16
17
22
28
29
33
32
30
25
21
17
15
13
10
8
5
2
-3
-11
-16
-18
-16
-18
-19
-20
-24
-27
-24
-23
-20
-18
-18
-19
-21
-22
-21
-20
-17
-14
-13
-13
-17
-23
-22
-22
-20
-19
-18
-21
-20
-22
-23
-24
-18
-21
-22
-22
-25
-26
-28
-27
-27
-28
-25
-24
-29
-30
-31
-31
-31
-32
-31
-31
-30
-31
-30
-30
-33
-35
-37
-36
-35
-35
-38
-40
-43
-41
-40
-41
-40
-41
-40
-42
-43
-44
-40
-38
-36
-34
-36
-38
-41
-43
-42
-41
-37
-35
-36
-42
-46
-45
-47
-43
-40
-39
-39
-39
-38
-36
-31
-27
-23
-19
-15
-14
-17
-20
-22
-22
-21
-24
-28
-30
-31
-34
-39
-40
-42
-42
-41
-43
-46
-48
-45
-45
-43
-43
-41
-41
-39
-40
-41
-40
-40
-39
-37
-36
-36
-36
-36
-27
-15
5
29
38
81
88
53
-15
-97
-161
-203
-222
-230
-223
-204
-170
-126
-85
-48
-23
-12
-7
-7
-7
-6
0
6
10
13
12
11
10
11
16
23
27
30
31
29
29
29
36
40
46
55
59
63
62
64
71
81
90
99
102
109
115
119
126
130
133
139
141
145
147
146
142
142
140
138
135
127
121
109
95
80
67
59
49
45
31
22
14
6
3
0
-1
-1
-7
-13
-16
-21
-20
-17
-16
-14
-14
-12
-13
-14
-16
-15
-17
-13
-12
-12
-13
-16
-17
-14
-14
-9
-8
-11
-13
-16
-18
-20
-18
-16
-15
-18
-18
-18
-21
-25
-24
-26
-24
-23
-24
-26
-28
-31
-30
-30
-28
-29
-28
-32
-33
-37
-37
-36
-34
-32
-32
-34
-36
-36
-38
-36
-35
-33
-34
-34
-35
-39
-42
-40
-38
-34
-36
-38
-40
-41
-42
-43
-41
-39
-37
-35
-37
-39
-39
-39
-40
-38
-38
-37
-34
-34
-38
-39
-42
-41
-39
-34
-33
-31
-32
-32
-32
-29
-23
-19
-17
-13
-13
-14
-15
-16
-17
-16
-17
-23
-26
-30
-33
-30
-28
-29
-31
-36
-38
-41
-42
-45
-44
-45
-43
-40
-42
-43
-45
-49
-47
-42
-41
-39
-39
-37
-37
-31
-21
-4
18
48
71
76
43
-29
-113
-182
-220
-233
-235
-221
-197
-161
-119
-72
-39
-21
-15
-9
-7
-3
-4
-1
4
11
14
16
18
16
15
18
26
28
33
35
34
34
35
38
43
49
56
58
63
68
72
76
80
88
96
103
107
112
117
120
126
132
137
143
147
148
152
149
149
146
143
142
141
133
125
113
102
93
85
77
70
60
49
37
25
16
9
6
0
1
-2
-10
-14
-17
-18
-17
-16
-16
-21
-20
-21
-22
-22
-18
-15
-12
-10
-12
-15
-17
-16
-18
-17
-13
-11
-14
-15
-17
-19
-15
-14
-12
-11
-14
-21
-24
-28
-25
-26
-25
-25
-27
-30
-33
-34
-34
-34
-30
-28
-30
-33
-34
-36
-39
-38
-38
-33
-34
-33
-35
-36
-39
-38
-37
-36
-35
-34
-34
-36
-40
-41
-39
-36
-35
-35
-39
-40
-42
-46
-42
-39
-38
-36
-34
-36
-38
-39
-38
-38
-35
-35
-35
-38
-40
-41
-38
-34
-35
-34
-34
-36
-37
-36
-40
-40
-36
-33
-32
-35
-36
-39
-41
-40
-35
-30
-25
-21
-18
-18
-15
-17
-18
-15
-14
-15
-20
-27
-33
-35
-33
-30
-29
-31
-36
-39
-44
-44
-44
-44
-43
-42
-39
-40
-41
-42
-43
-43
-43
-39
-36
-35
-34
-37
-37
-35
-30
-19
-15
10
29
45
51
32
-19
-83
-147
-194
-217
-227
-220
-200
-166
-128
-87
-54
-30
-19
-16
-16
-12
-8
-3
-1
6
7
8
8
8
12
17
20
22
27
27
27
30
32
38
48
53
56
57
58
62
68
74
82
86
95
98
102
108
115
122
131
134
137
141
142
143
143
144
144
146
144
139
129
118
111
102
93
83
80
61
48
36
25
18
13
7
-1
-4
-8
-14
-17
-18
-18
-18
-18
-16
-18
-20
-21
-20
-20
-20
-17
-16
-17
-18
-21
-21
-21
-21
-17
-16
-17
-18
-16
-21
-23
-27
-24
-21
-19
-21
-23
-27
-31
-30
-30
-28
-27
-24
-27
-32
-33
-37
-36
-35
-32
-32
-32
-35
-36
-39
-39
-38
-37
-37
-37
-39
-42
-39
-40
-39
-39
-37
-39
-40
-41
-42
-44
-43
-39
-39
-39
-38
-40
-43
-41
-39
-38
-38
-39
-40
-39
-42
-43
-40
-38
-37
-36
-35
-37
-40
-40
-42
-41
-35
-38
-38
-36
-38
-40
-39
-37
-33
-29
-27
-25
-26
-25
-23
-20
-15
-13
-13
-11
-13
-17
-22
-23
-26
-28
-24
-25
-30
-35
-39
-43
-39
-40
-39
-41
-42
-42
-43
-45
-44
-42
-38
-36
-38
-40
-43
-41
-40
-39
-36
-34
-32
-26
-18
-7
8
30
53
72
67
32
-30
-100
-163
-204
-228
-238
-239
-216
-185
-150
-109
-74
-45
-28
-17
-11
-11
-9
-5
-1
4
11
15
20
21
20
20
21
23
25
30
31
35
36
39
43
49
49
56
62
64
66
68
70
73
79
87
94
104
109
117
124
129
135
140
143
143
143
142
143
143
142
144
142
142
141
130
121
109
98
89
81
71
63
51
41
32
24
17
14
10
8
0
-4
-8
-13
-13
-14
-12
-13
-13
-16
-15
-20
-20
-18
-17
-15
-14
-15
-16
-18
-17
-16
-14
-14
-13
-12
-15
-17
-18
-22
-20
-17
-17
-16
-16
-19
-21
-26
-28
-31
-29
-28
-29
-29
-33
-34
-33
-33
-34
-34
-36
-34
-35
-38
-37
-38
-35
-34
-35
-35
-37
-37
-40
-39
-39
-39
-39
-41
-40
-41
-43
-40
-41
-39
-39
-38
-37
-41
-44
-46
-44
-44
-41
-40
-39
-40
-44
-45
-46
-42
-38
-38
-36
-37
-41
-42
-44
-44
-42
-41
-37
-39
-36
-36
-34
-31
-25
-19
-17
-17
-18
-21
-23
-25
-22
-25
-24
-28
-30
-32
-38
-38
-40
-38
-39
-40
-43
-45
-49
-51
-50
-47
-45
-43
-42
-42
-45
-45
-45
-46
-41
-42
-41
-43
-41
-40
-35
-26
-10
-5
22
40
53
46
12
-45
-108
-164
-203
-223
-228
-226
-209
-183
-147
-109
-77
-55
-40
-32
-25
-19
-13
-7
-6
-1
-2
-4
-5
-4
0
3
6
8
9
9
12
12
19
23
28
33
36
35
37
37
42
46
49
52
60
65
68
73
79
85
90
96
100
105
109
108
111
113
116
118
120
118
117
115
109
103
97
93
91
81
72
60
48
35
27
20
13
7
-2
-10
-15
-21
-26
-27
-29
-29
-31
-33
-40
-40
-44
-42
-39
-38
-35
-33
-34
-38
-39
-39
-38
-37
-37
-39
-38
-38
-40
-38
-37
-38
-38
-36
-35
-39
-42
-43
-42
-41
-40
-36
-39
-40
-47
-47
-48
-48
-43
-41
-43
-44
-49
-53
-54
-52
-52
-50
-48
-47
-48
-52
-52
-52
-52
-53
-47
-46
-47
-50
-52
-54
-53
-53
-52
-49
-48
-50
-50
-50
-46
-42
-39
-37
-35
-35
-34
-32
-30
-28
-27
-26
-27
-30
-35
-38
-39
-42
-40
-40
-41
-46
-48
-51
-54
-53
-49
-49
-49
-51
-53
-54
-53
-53
-49
-48
-47
-49
-50
-51
-51
-46
-43
-38
-34
-22
-8
10
34
59
78
75
35
-22
-88
-142
-181
-198
-206
-197
-192
-140
-102
-69
-45
-32
-25
-21
-16
-11
-9
-9
-7
-8
-3
0
4
6
9
10
11
11
12
16
19
20
28
31
34
35
37
43
47
50
51
54
58
63
67
75
83
90
95
101
105
108
110
113
120
121
120
124
123
122
119
117
113
109
105
100
91
78
66
54
45
37
28
22
16
10
2
-5
-9
-8
-6
-7
-6
-12
-15
-18
-21
-25
-28
-25
-24
-22
-20
-22
-24
-23
-22
-17
-17
-16
-19
-20
-22
-21
-22
-22
-20
-19
-17
-17
-15
-18
-22
-25
-28
-29
-26
-28
-31
-36
-38
-37
-35
-34
-31
-31
-34
-37
-35
-35
-35
-36
-34
-36
-38
-39
-38
-39
-37
-35
-32
-31
-33
-37
-39
-42
-41
-38
-38
-37
-37
-39
-42
-43
-44
-40
-38
-32
-29
-28
-26
-27
-25
-20
-15
-11
-9
-9
-13
-19
-23
-22
-24
-24
-26
-28
-30
-32
-37
-37
-38
-40
-42
-45
-48
-50
-50
-48
-47
-43
-41
-43
-42
-45
-47
-48
-45
-40
-39
-37
-31
-22
-9
11
33
58
65
57
5
-72
-145
-199
-225
-235
-229
-214
-188
-152
-113
-73
-45
-28
-19
-15
-11
-7
-6
-5
-2
2
6
8
11
13
14
13
11
17
23
29
32
32
36
38
40
44
49
55
60
65
69
75
80
80
88
93
97
110
115
121
125
127
130
135
137
140
142
144
144
142
140
136
135
130
123
112
100
87
76
64
57
54
39
30
22
15
8
2
-4
-10
-12
-16
-19
-22
-25
-28
-25
-24
-21
-18
-22
-21
-23
-23
-21
-18
-17
-15
-15
-19
-19
-20
-18
-19
-17
-15
-15
-17
-20
-21
-21
-21
-20
-21
-23
-29
-32
-33
-34
-36
-33
-34
-32
-34
-36
-37
-40
-39
-39
-39
-38
-37
-38
-40
-41
-43
-40
-41
-39
-38
-38
-38
-41
-42
-43
-44
-43
-40
-40
-41
-41
-42
-40
-36
-37
-42
-45
-45
-40
-38
-36
-31
-30
-26
-23
-20
-19
-21
-21
-21
-25
-27
-30
-34
-36
-40
-42
-40
-39
-39
-40
-40
-42
-46
-48
-53
-53
-49
-46
-44
-47
-48
-54
-52
-46
-47
-44
-45
-45
-44
-42
-41
-31
-19
-3
20
44
65
71
48
-3
-75
-142
-189
-216
-225
-228
-217
-194
-159
-117
-104
-48
-31
-26
-24
-22
-17
-15
-7
-3
0
0
1
4
7
9
14
15
19
21
25
25
26
29
33
35
45
45
47
50
53
53
57
62
70
77
82
86
90
96
104
111
116
122
123
126
124
125
130
132
133
136
136
131
123
116
111
105
98
91
79
68
54
43
33
24
20
13
8
1
-6
-14
-18
-20
-20
-22
-23
-25
-26
-29
-27
-27
-24
-24
-25
-23
-28
-25
-26
-27
-27
-23
-22
-20
-18
-18
-21
-27
-27
-29
-27
-23
-22
-25
-26
-29
-32
-29
-30
-28
-27
-28
-29
-30
-32
-32
-35
-34
-33
-32
-33
-37
-37
-37
-36
-35
-33
-36
-39
-42
-45
-45
-44
-41
-40
-42
-44
-47
-47
-45
-45
-45
-42
-40
-41
-42
-45
-47
-44
-42
-43
-36
-39
-41
-42
-45
-45
-41
-37
-34
-33
-33
-33
-33
-31
-30
-25
-21
-17
-16
-18
-20
-25
-27
-29
-29
-34
-33
-36
-37
-38
-40
-42
-45
-45
-43
-44
-43
-46
-48
-45
-47
-43
-44
-41
-42
-43
-43
-44
-42
-41
-38
-38
-35
-35
-29
-18
-3
19
47
74
90
76
22
-57
-135
-194
-223
-240
-241
-227
-205
-168
-123
-82
-68
-26
-17
-11
-11
-9
-4
1
5
7
11
12
14
15
15
17
24
26
29
29
31
33
35
37
43
45
52
55
59
60
64
69
74
82
89
94
98
102
106
110
118
126
130
135
140
141
142
141
147
147
147
151
149
146
140
132
126
117
111
104
93
83
71
57
45
35
28
24
20
12
9
6
0
-6
-9
-10
-14
-16
-17
-18
-19
-18
-14
-11
-8
-7
-9
-9
-14
-15
-16
-15
-11
-11
-13
-14
-16
-20
-22
-19
-19
-16
-18
-19
-23
-25
-26
-24
-24
-22
-20
-22
-22
-28
-30
-29
-29
-27
-25
-26
-27
-30
-34
-34
-31
-30
-25
-27
-30
-35
-35
-38
-36
-34
-33
-34
-38
-40
-39
-42
-39
-40
-38
-35
-36
-38
-37
-37
-36
-35
-34
-30
-30
-32
-32
-35
-37
-36
-33
-32
-28
-27
-28
-25
-22
-19
-16
-12
-4
-1
-1
-1
-2
-3
-8
-10
-19
-22
-23
-24
-25
-27
-31
-31
-32
-33
-34
-36
-38
-39
-38
-35
-34
-33
-32
-31
-33
-32
-31
-28
-26
-24
-23
-23
-19
-12
5
25
49
77
102
101
59
-16
-97
-166
-210
-229
-232
-225
-202
-168
-129
-84
-50
-41
-10
-2
2
6
9
9
13
19
22
24
25
24
24
26
30
35
39
44
45
47
45
50
54
59
62
68
68
71
75
79
84
91
96
102
108
116
122
126
133
134
140
144
151
153
153
152
149
150
150
150
151
147
141
131
117
108
103
95
85
74
60
48
38
27
21
15
13
12
6
1
-7
-11
-14
-13
-12
-13
-12
-14
-17
-19
-19
-18
-14
-12
-8
-8
-10
-13
-16
-16
-14
-10
-8
-11
-13
-16
-20
-20
-20
-19
-20
-20
-21
-21
-22
-25
-26
-25
-24
-25
-28
-30
-31
-34
-32
-28
-29
-29
-29
-33
-36
-40
-42
-40
-41
-38
-36
-37
-39
-43
-44
-42
-41
-40
-37
-40
-41
-44
-46
-44
-41
-39
-38
-39
-36
-43
-47
-47
-48
-47
-42
-39
-40
-45
-47
-49
-48
-48
-46
-42
-41
-41
-40
-40
-36
-33
-28
-24
-22
-22
-24
-26
-26
-29
-28
-33
-36
-39
-41
-40
-43
-46
-49
-50
-50
-49
-52
-55
-57
-56
-52
-50
-48
-47
-49
-49
-50
-51
-49
-47
-43
-42
-40
-32
-22
-7
16
46
73
88
72
23
-37
-98
-139
-164
-178
-181
-174
-151
-118
-87
-60
-41
-37
-27
-23
-21
-17
-17
-15
-15
-7
-5
0
0
0
0
-3
4
10
11
13
13
15
14
20
24
28
30
38
41
48
48
52
55
63
69
78
84
89
91
91
92
94
100
100
102
102
102
99
97
99
95
95
87
82
72
60
50
41
31
27
24
17
8
1
-7
-11
-15
-15
-16
-18
-19
-20
-25
-25
-28
-27
-27
-21
-17
-16
-18
-19
-21
-21
-20
-21
-20
-21
-23
-22
-24
-23
-22
-24
-22
-20
-22
-23
-26
-29
-29
-28
-25
-26
-28
-30
-33
-34
-31
-32
-32
-29
-32
-34
-37
-38
-38
-38
-38
-38
-37
-35
-35
-38
-40
-39
-40
-39
-39
-36
-39
-41
-43
-40
-40
-36
-37
-36
-36
-37
-38
-34
-30
-26
-23
-20
-17
-18
-19
-18
-16
-15
-14
-17
-21
-28
-31
-36
-36
-37
-35
-36
-37
-41
-46
-47
-47
-45
-44
-39
-39
-41
-43
-44
-44
-43
-42
-38
-40
-40
-39
-39
-38
-35
-34
-28
-17
-1
19
44
72
83
75
23
-46
-114
-167
-202
-216
-224
-210
-205
-143
-102
-67
-43
-30
-25
-20
-14
-10
-5
-3
0
0
-1
-1
1
6
9
14
15
15
17
20
22
24
33
36
38
39
40
44
50
59
65
72
79
83
86
91
95
101
109
117
120
122
120
122
123
122
123
127
126
123
117
110
103
94
88
80
71
59
48
34
26
19
11
7
3
-3
-7
-10
-15
-22
-18
-19
-18
-18
-21
-22
-25
-26
-24
-22
-19
-16
-15
-17
-14
-13
-14
-16
-14
-12
-14
-15
-19
-21
-21
-21
-23
-22
-20
-22
-24
-27
-29
-27
-27
-26
-27
-29
-32
-33
-33
-35
-34
-29
-30
-28
-31
-33
-36
-38
-34
-31
-27
-31
-36
-39
-40
-43
-38
-33
-30
-29
-27
-24
-22
-23
-19
-16
-15
-12
-11
-12
-14
-20
-26
-29
-29
-24
-24
-25
-28
-32
-31
-33
-34
-38
-40
-41
-39
-42
-42
-41
-37
-37
-32
-33
-34
-36
-38
-38
-36
-35
-36
-36
-41
-38
-36
-29
-18
-1
17
42
70
91
92
59
-2
-73
-130
-172
-194
-207
-212
-201
-176
-138
-125
-56
-32
-21
-21
-21
-18
-15
-8
-3
1
1
4
2
3
5
11
16
19
19
19
19
22
23
27
28
33
37
40
43
45
46
49
57
65
75
80
84
87
92
101
108
115
121
126
128
130
132
132
134
136
138
138
135
130
123
117
111
104
98
87
76
64
49
37
26
20
16
11
6
1
-6
-11
-15
-16
-16
-16
-19
-23
-26
-28
-30
-27
-24
-24
-21
-22
-20
-21
-22
-20
-18
-16
-13
-11
-12
-14
-16
-16
-15
-14
-13
-13
-18
-20
-22
-25
-24
-22
-20
-20
-22
-25
-27
-29
-28
-28
-28
-28
-29
-30
-34
-37
-38
-37
-36
-34
-31
-32
-30
-28
-28
-26
-23
-20
-19
-19
-22
-21
-22
-18
-17
-18
-21
-24
-29
-29
-34
-35
-38
-40
-38
-39
-42
-45
-51
-50
-49
-49
-47
-45
-45
-42
-40
-43
-42
-41
-39
-34
-32
-33
-33
-35
-35
-30
-29
-9
4
20
42
66
83
76
32
-36
-105
-161
-194
-215
-219
-211
-189
-151
-106
-64
-33
-19
-15
-14
-10
-7
4
10
9
6
3
4
7
12
16
19
24
24
26
23
27
34
38
48
51
52
54
54
58
68
71
82
88
95
99
100
104
112
115
124
132
136
141
142
143
142
145
144
145
143
142
136
127
120
114
111
100
89
80
67
54
44
36
32
25
22
17
12
7
0
-7
-10
-11
-8
-8
-9
-12
-16
-17
-17
-15
-10
-8
-9
-9
-11
-10
-6
-4
-2
2
0
-2
-3
-4
-6
-5
-3
-4
-3
-5
-5
-8
-9
-7
-8
-6
-6
-6
-5
-8
-12
-15
-13
-13
-13
-11
-14
-15
-16
-20
-19
-17
-16
-14
-15
-18
-21
-24
-24
-22
-20
-18
-19
-20
-24
-23
-22
-17
-13
-11
-9
-5
-6
-5
-2
3
5
8
6
0
-9
-17
-22
-21
-22
-15
-13
-15
-19
-25
-27
-28
-27
-25
-25
-25
-25
-22
-23
-22
-21
-21
-20
-19
-19
-23
-23
-24
-21
-21
-11
-5
5
20
39
67
93
108
96
41
-37
-111
-165
-198
-212
-212
-191
-158
-114
-68
-34
-12
0
6
8
18
24
26
26
27
26
27
30
36
39
41
47
51
52
52
53
56
58
60
61
64
64
65
71
74
84
94
98
104
108
111
117
124
132
138
143
145
149
150
153
154
160
162
163
159
156
153
146
144
143
132
125
116
103
88
73
62
56
51
43
34
29
22
18
14
11
15
14
12
3
-2
-8
-7
-5
-3
-5
-5
-6
-7
-9
-9
-8
-6
-4
0
1
0
1
-4
-4
-5
-3
1
4
7
6
2
-4
-7
-8
-8
-6
-3
-7
-9
-13
-16
-13
-12
-10
-10
-13
-16
-18
-18
-19
-18
-16
-13
-15
-16
-19
-22
-19
-18
-18
-18
-18
-19
-21
-25
-28
-25
-23
-20
-19
-19
-23
-25
-26
-27
-25
-23
-21
-21
-19
-20
-22
-19
-18
-12
-5
-4
-3
-2
-7
-6
-6
-6
-5
-10
-13
-21
-25
-26
-26
-27
-25
-24
-25
-26
-30
-37
-40
-41
-38
-32
-30
-32
-37
-43
-41
-36
-33
-28
-29
-28
-24
-27
-27
-26
-23
-17
-10
-3
8
21
47
75
84
116
94
41
-24
-86
-132
-164
-185
-192
-186
-168
-131
-91
-56
-31
-16
-7
-1
6
11
17
22
24
26
27
28
34
35
35
33
32
38
46
51
56
58
58
60
64
63
66
71
79
86
93
95
93
91
95
96
109
115
118
120
121
125
130
135
137
139
134
130
129
127
126
122
118
113
108
98
90
81
77
68
65
53
44
36
28
21
15
11
7
5
3
-1
-3
-4
-5
-4
-3
-3
-1
-1
-2
-1
-2
-1
1
2
8
10
9
9
7
9
8
5
4
7
10
12
8
3
-2
-6
-9
-6
-3
-4
-3
-5
-7
-8
-8
-5
-2
-7
-7
-9
-10
-13
-14
-14
-13
-10
-9
-13
-17
-21
-22
-22
-20
-16
-17
-18
-18
-19
-20
-21
-17
-16
-17
-20
-23
-23
-21
-19
-17
-16
-13
-10
-9
-6
-5
-4
-3
2
6
6
7
7
6
3
2
-4
-3
-7
-9
-14
-18
-22
-20
-18
-15
-14
-16
-20
-23
-25
-22
-17
-12
-8
-4
-1
4
8
14
16
28
34
39
45
47
50
54
66
80
101
127
159
197
233
244
216
152
80
25
-11
-34
-57
-71
-77
-75
-39
-19
-7
-5
-8
-10
-10
-8
-5
-2
-2
-6
-8
-8
-8
-7
-7
-3
-1
1
3
-1
-4
-5
-6
-2
-1
1
1
0
-2
1
6
10
14
14
17
17
14
13
17
24
27
26
24
26
29
33
40
41
44
45
48
47
49
45
42
43
43
41
36
35
32
27
21
17
15
14
13
9
9
4
1
-1
0
6
6
8
7
6
6
3
3
2
0
1
4
5
0
-3
-2
-2
0
1
0
-2
-3
-4
-4
-3
-1
-1
-1
-5
-5
-5
-6
-3
-2
1
-2
-5
-5
-8
-8
-11
-12
-10
-7
-5
-6
-9
-9
-15
-16
-14
-16
-13
-15
-16
-16
-18
-14
-14
-15
-12
-16
-18
-20
-22
-19
-17
-16
-13
-14
-14
-16
-16
-13
-13
-11
-8
-5
-5
-4
-9
-15
-14
-12
-6
0
-1
-3
-8
-6
3
17
26
25
19
12
6
2
1
2
2
-3
-9
-9
-7
-10
-14
-17
-16
-13
-9
-11
-13
-19
-19
-16
-14
-12
-5
-3
2
3
5
13
17
31
34
38
39
40
45
52
62
73
89
105
130
154
182
209
214
187
126
58
1
-31
-54
-70
-80
-82
-68
-46
-29
-15
-10
-9
-7
-4
-2
1
1
1
3
5
7
5
5
2
0
2
3
4
6
6
5
5
7
13
16
18
17
19
21
22
23
22
22
24
29
32
34
40
45
47
45
47
46
46
52
54
54
55
55
53
50
48
52
52
53
55
54
47
38
30
24
23
23
22
17
11
11
12
15
10
7
2
3
3
5
1
-3
-4
-1
4
5
4
1
0
1
4
5
4
3
3
3
3
1
0
-1
0
-2
-1
0
-4
-7
-11
-11
-9
-8
-10
-8
-9
-12
-11
-12
-9
-9
-8
-8
-8
-10
-12
-17
-19
-20
-14
-10
-7
-9
-13
-17
-20
-16
-14
-11
-9
-11
-13
-19
-22
-20
-17
-15
-15
-17
-17
-22
-19
-17
-15
-13
-13
-13
-16
-18
-17
-15
-12
-8
-4
-8
-13
-16
-16
-13
-5
-2
4
3
5
1
-2
-5
-6
-5
4
13
14
7
-1
-7
-9
-6
-6
-8
-11
-17
-16
-13
-14
-16
-17
-19
-21
-19
-18
-17
-15
-15
-14
-9
-2
5
11
15
20
27
34
38
46
56
59
61
62
69
88
113
147
186
220
228
196
131
62
42
-27
-48
-66
-82
-88
-77
-56
-30
-8
-2
0
-6
-7
-7
-7
-2
-1
1
0
2
0
-3
-5
-4
-4
3
6
10
7
10
8
4
6
8
13
15
18
20
18
17
15
15
20
24
29
31
28
23
25
25
39
42
48
47
48
47
50
55
58
63
59
53
53
50
50
54
53
54
48
42
36
31
27
21
19
14
15
11
6
3
2
1
3
3
6
6
-1
-6
-9
-10
-7
-4
0
3
5
4
2
-2
-2
-1
3
5
5
3
-1
-1
-6
-8
-8
-7
-5
-4
-5
-6
-11
-11
-10
-8
-7
-5
-4
-8
-10
-14
-13
-17
-14
-12
-10
-11
-14
-16
-18
-19
-20
-16
-17
-20
-25
-28
-29
-28
-24
-21
-18
-21
-22
-26
-25
-24
-23
-21
-21
-23
-20
-20
-20
-18
-19
-19
-21
-21
-19
-20
-26
-27
-28
-23
-21
-19
-19
-21
-20
-19
-17
-13
-10
-9
-5
-1
0
-1
4
6
8
11
10
8
3
-4
-5
-10
-10
-9
-11
-13
-16
-19
-23
-22
-23
-21
-25
-29
-28
-31
-32
-30
-29
-24
-20
-19
-20
-25
-25
-17
-11
-8
-11
-18
-21
-17
-4
12
19
68
101
122
111
64
-3
-69
-117
-146
-163
-175
-177
-162
-137
-101
-65
-33
-12
-2
2
2
4
7
9
10
9
10
12
14
16
17
21
22
26
26
29
31
34
35
36
40
44
50
53
59
61
66
70
73
75
85
92
100
106
110
114
115
118
121
125
130
131
132
130
125
125
123
124
121
117
107
97
86
75
70
54
49
45
37
30
22
15
7
2
1
5
5
0
-4
-10
-12
-12
-10
-8
-6
-3
-5
-10
-13
-12
-10
-7
-5
-8
-9
-8
-8
-5
-4
-3
-5
-11
-12
-16
-17
-16
-17
-13
-14
-14
-14
-16
-19
-20
-19
-17
-17
-15
-16
-16
-20
-20
-21
-20
-18
-17
-19
-21
-24
-26
-29
-28
-28
-27
-26
-25
-25
-26
-27
-28
-24
-21
-20
-15
-13
-11
-10
-11
-11
-7
-5
-2
-3
-4
-7
-8
-9
-10
-9
-9
-10
-14
-19
-21
-21
-17
-15
-15
-20
-25
-25
-28
-26
-23
-19
-16
-12
-8
-7
-4
0
7
13
22
24
31
35
35
41
44
54
65
79
95
123
153
191
224
241
230
186
125
65
19
-19
-51
-77
-90
-88
-76
-55
-36
-25
-20
-18
-15
-15
-12
-13
-12
-14
-12
-15
-10
-10
-9
-7
-10
-10
-11
-10
-10
-9
-5
-3
-6
-5
-6
-5
-6
-1
1
4
3
4
4
0
3
5
7
8
12
13
14
15
18
21
26
29
31
31
32
33
33
34
37
37
38
35
31
27
25
23
21
19
16
10
3
-4
-7
-9
-9
-7
-8
-8
-10
-10
-11
-12
-11
-7
-5
-4
-1
-3
-4
-6
-4
-5
0
2
0
0
0
-3
-6
-3
-4
-2
0
0
-4
-6
-7
-9
-5
-6
-5
-5
-6
-9
-12
-12
-11
-10
-8
-7
-9
-12
-13
-14
-14
-12
-9
-8
-8
-9
-10
-1
1
2
-6
-11
-16
-13
-14
-14
-11
-8
0
6
8
9
10
9
12
11
13
13
12
10
5
1
-2
-3
-5
-2
-2
0
-2
-9
-17
-19
-20
-16
-11
-9
-7
-4
-2
0
5
14
22
29
35
40
44
49
52
63
71
86
103
126
161
199
233
248
223
162
87
27
-12
-39
-64
-81
-85
-69
-47
-24
-9
-3
-3
-5
-2
3
4
4
4
1
-1
0
0
3
6
6
4
7
4
6
7
9
12
11
11
9
10
10
12
16
18
19
20
19
19
21
25
27
33
41
44
44
43
42
41
43
45
48
48
49
50
50
51
50
53
52
53
48
42
36
27
24
24
19
19
17
15
11
6
2
2
1
0
3
1
2
-1
-2
-1
2
3
5
4
4
1
1
0
1
5
6
7
7
5
4
4
3
7
7
5
3
2
1
0
0
-1
-3
-5
-3
-4
-8
-8
-9
-9
-7
-5
-7
-9
-9
-11
-11
-12
-8
-10
-7
-9
-10
-14
-14
-13
-10
-9
-4
-2
-4
-6
-7
-2
-1
3
7
11
11
11
9
5
3
2
4
3
-1
-3
-9
-11
-11
-13
-11
-12
-14
-17
-19
-18
-17
-15
-9
-5
1
5
7
15
22
29
33
36
43
45
49
51
53
53
72
90
118
155
196
233
250
231
186
127
75
38
4
-30
-62
-80
-78
-62
-40
-21
-12
-6
-9
-11
-12
-9
-7
-5
-3
-2
-5
-6
-7
-7
-6
-4
-3
-3
-5
-7
-7
-5
-3
-1
0
-2
0
1
-2
-1
1
3
7
6
9
9
13
13
16
17
21
24
26
28
28
29
31
32
37
40
41
43
38
36
35
33
30
29
26
21
16
14
8
6
5
6
7
6
4
1
0
0
1
3
6
3
0
-3
-4
-5
-1
0
-1
0
3
-1
-1
-1
0
0
2
4
4
-2
-1
-3
-2
-2
-1
0
-2
-3
-5
-6
-6
-6
-5
-2
-2
-2
-4
-9
-9
-8
-6
-4
-6
-5
-6
-7
-12
-10
-8
-6
-2
-3
-3
-2
0
0
7
7
6
9
11
11
9
9
8
5
4
5
3
1
-4
-7
-7
-5
-4
-4
-8
-13
-15
-16
-17
-14
-11
-7
-5
-3
-2
2
5
14
20
30
36
43
46
50
54
58
66
77
90
109
133
166
206
219
262
238
177
107
50
15
-14
-40
-63
-73
-66
-51
-31
-17
-6
-3
-1
-3
-1
-2
0
0
0
-1
-2
-1
4
9
11
11
8
4
3
4
6
8
13
11
6
5
4
7
10
17
20
23
23
25
22
21
30
37
39
40
43
43
43
46
49
51
56
56
56
58
57
56
56
55
55
54
47
45
35
30
27
23
21
20
19
16
8
7
2
4
7
8
10
7
7
6
4
5
7
9
10
8
7
4
4
6
5
7
8
8
7
4
4
4
5
6
6
4
5
2
0
0
-1
-1
3
3
4
2
-2
-7
-10
-9
-7
-5
-3
-8
-9
-13
-11
-11
-10
-8
-6
-6
-9
-10
-12
-11
-11
-8
-6
-4
-4
-5
-3
-2
3
5
9
11
13
14
14
12
13
12
9
7
6
3
-1
-2
-1
-4
-2
-4
-5
-7
-11
-11
-9
-7
-5
-1
3
5
7
11
16
20
29
39
46
54
56
61
64
68
77
96
122
152
188
221
243
247
193
124
56
10
-18
-40
-60
-69
-65
-52
-29
-12
-2
1
0
-1
-2
-1
2
5
6
5
2
3
2
2
4
5
9
10
11
8
9
9
11
14
16
16
15
14
15
17
19
22
27
30
33
32
31
30
36
41
48
51
52
53
52
54
56
60
62
68
65
66
65
62
63
61
58
55
49
43
38
31
29
25
21
17
18
16
12
8
9
8
8
9
9
10
7
9
7
6
8
7
10
10
9
6
5
4
6
8
10
10
9
8
5
5
6
7
7
6
6
3
1
-1
0
-1
1
2
0
-1
-1
-5
-6
-5
-6
-3
-4
-6
-8
-13
-13
-12
-10
-7
-8
-8
-8
-10
-10
-11
-10
-8
-6
-6
-6
-8
-12
-12
-10
-8
-6
-6
-6
-8
-11
-9
-6
-3
1
5
6
7
10
9
9
12
13
13
9
5
-1
-6
-7
-7
-4
-1
-3
-5
-7
-11
-8
-7
-3
-3
-5
-6
-2
-1
5
9
16
25
34
42
45
51
52
54
63
73
83
101
121
150
186
226
251
235
181
108
41
-4
-29
-49
-67
-76
-69
-52
-32
-15
-6
-5
-4
-7
-6
-3
-1
-1
0
-2
-4
-3
0
0
4
3
1
3
3
4
3
4
8
9
8
7
7
8
10
9
15
18
20
21
22
21
24
28
31
36
39
41
43
44
45
49
53
58
59
61
60
61
60
59
62
59
59
50
46
40
31
28
24
22
20
19
13
12
6
7
7
6
7
5
4
3
3
2
6
7
7
5
4
2
0
1
2
5
8
9
6
4
3
0
0
1
2
1
2
1
-3
-3
-4
-6
-5
-3
-3
-3
-6
-8
-11
-10
-9
-8
-8
-8
-10
-11
-13
-14
-14
-12
-9
-8
-12
-13
-15
-16
-15
-16
-13
-14
-14
-14
-18
-21
-17
-16
-12
-14
-13
-14
-16
-17
-17
-16
-14
-13
-14
-17
-17
-17
-18
-18
-18
-18
-16
-15
-15
-17
-16
-15
-12
-7
-3
-2
-2
-1
1
3
7
9
11
11
5
0
-4
-7
-9
-10
-10
-7
-9
-12
-16
-19
-20
-16
-14
-13
-11
-10
-7
-4
1
9
20
29
35
39
41
45
46
58
65
76
90
112
144
181
222
250
237
182
102
26
-22
-56
-75
-93
-94
-80
-53
-26
-10
-4
-5
-6
-7
-3
0
4
4
0
0
-1
1
1
3
5
8
8
8
5
5
6
10
12
15
16
15
15
16
20
20
24
25
29
32
36
37
39
42
45
47
50
49
48
49
51
54
61
64
64
66
66
64
63
60
58
57
53
47
40
35
30
27
20
16
14
12
8
8
5
4
5
5
5
4
4
3
2
2
1
3
7
9
7
6
0
-1
-1
-1
1
4
4
4
-1
-5
-5
-6
-5
-4
-3
-6
-8
-9
-10
-12
-11
-8
-9
-11
-13
-16
-19
-18
-18
-16
-15
-15
-16
-18
-22
-23
-22
-19
-18
-14
-17
-21
-25
-27
-26
-24
-21
-21
-20
-21
-24
-28
-30
-28
-28
-23
-24
-23
-25
-25
-24
-23
-24
-26
-27
-26
-28
-29
-28
-28
-28
-27
-30
-28
-28
-27
-28
-29
-29
-27
-21
-18
-17
-17
-15
-16
-13
-7
-3
-4
-2
-2
-6
-7
-13
-17
-19
-22
-21
-22
-22
-27
-30
-31
-29
-28
-30
-34
-37
-38
-39
-37
-33
-31
-27
-29
-28
-28
-28
-28
-25
-23
-20
-24
-22
-18
-6
13
40
72
99
110
89
30
-41
-105
-150
-175
-188
-194
-186
-161
-127
-115
-48
-21
-6
0
1
5
7
9
11
15
17
20
23
23
21
21
25
26
31
35
37
41
41
43
44
48
54
60
65
68
71
75
78
82
90
98
103
109
116
121
124
125
130
132
138
142
143
143
140
139
137
136
134
131
122
114
102
91
80
72
65
57
48
38
23
15
10
5
3
-1
-2
-4
-7
-7
-9
-11
-8
-6
-5
0
-4
-6
-7
-8
-8
-2
1
0
-2
-4
-4
-6
-4
-3
-5
-5
-6
-8
-12
-13
-18
-18
-20
-16
-14
-16
-21
-22
-23
-23
-21
-22
-23
-25
-24
-28
-31
-30
-28
-23
-24
-25
-27
-28
-31
-31
-30
-28
-23
-22
-23
-24
-27
-28
-30
-32
-29
-29
-28
-28
-27
-30
-28
-26
-24
-23
-23
-25
-29
-30
-30
-26
-21
-17
-13
-12
-15
-18
-17
-15
-10
-5
-2
-2
-5
-9
-15
-18
-21
-21
-21
-21
-19
-24
-25
-29
-31
-32
-30
-29
-27
-28
-27
-26
-20
-12
-7
1
4
12
20
26
34
39
45
51
55
68
89
97
151
191
220
222
178
104
28
-28
-62
-82
-97
-103
-94
-78
-53
-35
-25
-21
-21
-19
-14
-13
-13
-15
-17
-19
-20
-12
-9
-9
-9
-10
-9
-7
-6
-7
-4
-1
1
1
-2
-3
-2
1
4
4
4
6
5
6
13
18
21
24
30
29
31
31
32
35
41
44
50
50
51
53
52
52
54
54
53
49
42
37
34
24
20
14
13
5
1
-2
-4
-4
-7
-9
-10
-9
-9
-10
-14
-13
-13
-11
-12
-12
-11
-12
-11
-13
-12
-10
-10
-6
-4
-6
-9
-11
-13
-13
-13
-10
-9
-11
-11
-13
-16
-14
-12
-10
-7
-12
-12
-17
-19
-20
-20
-18
-13
-15
-17
-19
-22
-24
-20
-21
-18
-18
-21
-18
-20
-24
-26
-24
-23
-23
-22
-22
-21
-20
-21
-22
-21
-21
-16
-19
-22
-25
-29
-30
-26
-23
-21
-25
-23
-24
-26
-26
-23
-23
-21
-20
-21
-22
-22
-17
-13
-10
-7
-2
-1
-1
1
1
1
3
4
-1
-7
-14
-22
-23
-22
-20
-19
-19
-24
-28
-28
-29
-26
-24
-20
-14
-12
-8
-8
-5
-1
6
17
24
33
39
42
47
47
54
63
81
109
141
179
212
220
205
146
65
-2
-45
-68
-87
-102
-106
-93
-70
-44
-24
-17
-13
-14
-15
-15
-10
-8
-8
-7
-10
-7
-7
-10
-9
-5
-3
0
-1
-1
-2
-1
-1
1
4
3
6
4
3
3
6
11
15
16
17
19
18
19
21
25
29
35
38
40
38
37
38
42
42
45
48
49
51
50
50
50
50
50
49
46
39
33
31
22
18
15
14
9
6
2
-2
-4
-6
-8
-7
-6
-6
-7
-9
-8
-10
-12
-12
-12
-13
-14
-15
-16
-19
-17
-13
-13
-11
-13
-16
-17
-18
-19
-17
-15
-15
-15
-15
-17
-20
-18
-21
-19
-21
-25
-26
-29
-29
-30
-32
-30
-27
-28
-29
-31
-31
-32
-32
-33
-32
-31
-30
-33
-35
-36
-35
-35
-34
-32
-31
-32
-35
-36
-36
-35
-34
-29
-26
-28
-32
-34
-36
-35
-36
-34
-32
-35
-37
-36
-38
-39
-38
-37
-36
-32
-33
-31
-30
-31
-28
-22
-17
-13
-10
-10
-11
-13
-13
-12
-14
-19
-28
-32
-34
-31
-32
-31
-30
-32
-35
-34
-38
-38
-38
-36
-34
-33
-34
-38
-38
-38
-38
-35
-33
-31
-28
-28
-28
-26
-23
-11
7
30
60
89
103
86
75
-41
-107
-153
-176
-188
-190
-184
-159
-126
-84
-48
-24
-9
-7
-6
-5
-2
0
6
12
15
16
17
16
14
14
16
20
24
27
31
34
36
39
43
46
48
53
56
61
64
67
72
79
85
89
95
101
106
107
113
116
122
126
130
132
134
133
132
134
133
131
130
124
115
106
96
84
76
63
58
49
39
28
25
10
6
3
0
-5
-8
-10
-12
-13
-14
-12
-11
-11
-11
-13
-16
-17
-15
-12
-9
-7
-7
-8
-9
-10
-10
-13
-13
-10
-5
-8
-9
-11
-14
-16
-15
-11
-10
-11
-12
-17
-22
-24
-22
-20
-20
-21
-23
-24
-27
-27
-26
-27
-24
-22
-22
-26
-29
-29
-29
-27
-24
-25
-25
-25
-27
-29
-30
-30
-27
-25
-24
-22
-25
-26
-26
-25
-25
-27
-26
-25
-26
-26
-28
-28
-23
-19
-15
-12
-8
-6
-5
-7
-7
-6
-5
-9
-14
-21
-24
-29
-25
-20
-19
-18
-23
-24
-27
-29
-31
-28
-26
-25
-24
-23
-22
-17
-13
-5
1
7
15
20
26
28
34
40
47
60
78
98
129
163
198
218
212
164
100
32
-11
-40
-66
-86
-99
-98
-85
-65
-45
-31
-27
-23
-22
-20
-18
-16
-16
-15
-16
-16
-16
-13
-11
-9
-11
-14
-15
-13
-12
-10
-9
-7
-7
-7
-7
-8
-5
-5
-3
1
2
4
6
8
7
12
15
19
24
24
28
30
31
33
33
35
38
39
40
41
41
38
37
34
30
28
23
14
8
2
-1
-3
-3
-4
-8
-9
-14
-17
-18
-18
-17
-13
-15
-17
-21
-22
-22
-20
-18
-16
-15
-16
-18
-19
-21
-22
-23
-20
-17
-14
-13
-17
-19
-19
-17
-14
-13
-13
-16
-17
-19
-23
-22
-21
-16
-16
-17
-22
-21
-23
-22
-21
-23
-21
-25
-27
-29
-27
-28
-28
-26
-24
-23
-23
-23
-25
-27
-28
-25
-25
-23
-22
-25
-25
-25
-29
-27
-22
-21
-19
-20
-21
-25
-25
-22
-20
-20
-20
-21
-21
-22
-19
-17
-15
-10
-3
0
0
-3
-4
-8
-8
-8
-13
-16
-19
-23
-24
-22
-22
-21
-23
-21
-23
-22
-22
-22
-18
-12
-5
2
4
6
9
13
21
28
36
45
50
58
62
73
91
121
156
196
226
226
182
162
35
-18
-49
-68
-86
-96
-96
-79
-57
-32
-16
-9
-8
-8
-8
-8
-7
-11
-9
-9
-5
-2
-5
-4
-6
-5
-3
-2
-1
-1
0
1
-1
-3
-6
-2
-2
3
3
5
7
5
6
9
13
17
21
24
26
27
26
29
35
36
38
36
40
39
39
40
40
41
44
46
47
49
44
39
37
34
30
29
21
13
11
2
-2
-4
-3
-3
-6
-9
-11
-12
-14
-14
-11
-12
-10
-13
-14
-16
-14
-17
-15
-15
-15
-16
-15
-17
-17
-18
-16
-15
-13
-13
-14
-14
-16
-15
-15
-13
-13
-16
-17
-19
-22
-22
-21
-20
-23
-26
-29
-29
-28
-33
-33
-31
-29
-25
-27
-29
-33
-34
-32
-29
-25
-23
-25
-30
-35
-35
-35
-31
-30
-29
-33
-36
-38
-39
-35
-36
-36
-31
-31
-28
-30
-30
-30
-32
-28
-23
-19
-16
-14
-10
-9
-6
-4
-2
0
-1
-6
-11
-14
-21
-21
-21
-18
-15
-17
-24
-29
-31
-32
-28
-26
-23
-21
-19
-15
-14
-7
-1
5
12
19
22
26
27
31
34
43
51
64
80
97
124
163
205
238
238
199
132
66
18
-16
-46
-73
-89
-87
-72
-49
-32
-27
-17
-19
-18
-14
-10
-10
-14
-14
-19
-16
-14
-12
-10
-10
-11
-8
-11
-12
-12
-13
-10
-8
-8
-10
-10
-15
-13
-12
-10
-5
-5
-7
-4
-4
1
3
8
10
11
13
15
14
15
19
22
25
26
30
30
31
31
33
34
34
34
35
29
21
10
8
6
1
2
0
-3
-8
-9
-14
-13
-11
-9
-10
-10
-12
-12
-15
-16
-15
-12
-9
-7
-8
-12
-13
-14
-11
-9
-2
2
-1
-5
-10
-12
-11
-9
-11
-12
-17
-14
-14
-18
-16
-15
-14
-14
-16
-19
-20
-20
-19
-17
-17
-18
-19
-25
-26
-33
-34
-32
-30
-27
-28
-26
-29
-31
-28
-30
-31
-29
-27
-26
-26
-27
-27
-28
-28
-26
-23
-25
-26
-28
-29
-30
-25
-27
-25
-25
-29
-29
-30
-31
-29
-27
-22
-18
-15
-13
-13
-8
-10
-6
-3
-1
-5
-9
-13
-18
-24
-24
-23
-19
-19
-18
-21
-23
-27
-28
-29
-26
-23
-20
-13
-13
-9
-7
-3
2
10
17
22
29
34
38
43
50
64
83
107
142
153
205
203
151
79
13
-36
-62
-86
-100
-98
-86
-60
-35
-20
-15
-18
-17
-17
-14
-12
-6
-3
-9
-11
-13
-16
-18
-15
-12
-10
-11
-11
-13
-13
-13
-11
-10
-5
-1
-1
-1
-3
-2
2
4
10
16
16
20
19
19
21
24
27
31
29
28
29
28
31
33
39
41
44
44
44
41
38
37
33
31
29
23
21
18
8
2
1
-3
-3
-4
-6
-11
-14
-16
-13
-15
-15
-14
-14
-14
-16
-16
-15
-15
-11
-11
-12
-13
-13
-17
-17
-14
-12
-11
-10
-10
-13
-15
-16
-14
-13
-13
-11
-13
-15
-16
-17
-18
-16
-15
-13
-15
-15
-16
-25
-24
-23
-20
-18
-17
-19
-27
-32
-35
-35
-32
-31
-29
-33
-34
-36
-38
-36
-36
-31
-30
-31
-33
-34
-37
-36
-36
-33
-33
-34
-34
-35
-36
-38
-36
-35
-30
-28
-26
-25
-27
-32
-33
-34
-31
-28
-30
-28
-29
-30
-26
-23
-17
-12
-10
-6
-9
-11
-16
-16
-18
-22
-24
-25
-28
-29
-31
-31
-30
-30
-32
-35
-34
-36
-35
-34
-29
-24
-17
-13
-10
-4
0
8
16
25
31
36
40
43
47
54
73
95
125
165
203
219
220
133
53
-12
-49
-70
-88
-101
-100
-87
-65
-40
-24
-18
-18
-19
-21
-24
-23
-21
-20
-19
-15
-17
-15
-15
-20
-18
-14
-11
-7
-8
-8
-10
-12
-10
-7
-6
-2
0
0
-1
-3
-5
-3
0
5
11
14
15
13
18
20
25
28
29
32
34
35
35
35
36
38
42
43
43
40
36
29
27
22
19
17
13
7
5
-6
-10
-11
-12
-10
-13
-14
-16
-18
-17
-19
-18
-16
-17
-14
-17
-17
-19
-19
-18
-17
-15
-14
-15
-16
-17
-18
-17
-15
-13
-14
-16
-18
-19
-21
-20
-17
-17
-18
-20
-23
-24
-26
-27
-25
-23
-23
-25
-24
-26
-31
-30
-31
-30
-29
-28
-29
-34
-37
-38
-37
-36
-34
-32
-35
-36
-37
-38
-38
-38
-35
-34
-33
-35
-36
-42
-41
-39
-37
-37
-34
-35
-38
-40
-39
-39
-37
-36
-33
-33
-39
-37
-40
-40
-39
-37
-35
-31
-31
-31
-31
-30
-26
-22
-16
-12
-11
-11
-14
-17
-20
-19
-24
-27
-31
-31
-33
-36
-38
-41
-42
-41
-41
-42
-44
-44
-43
-47
-45
-43
-42
-42
-44
-44
-44
-44
-41
-39
-37
-37
-37
-38
-33
-24
-11
7
31
62
88
98
92
50
-12
-71
-119
-151
-176
-192
-196
-184
-152
-112
-74
-43
-29
-23
-21
-22
-18
-17
-9
-7
-3
-3
-3
-2
0
2
5
6
9
10
13
13
13
17
21
25
28
31
33
36
38
42
47
53
61
64
69
71
76
81
85
92
98
102
107
107
106
106
108
110
111
110
109
105
100
93
87
82
74
67
58
47
41
27
18
12
8
4
-2
-6
-10
-14
-18
-22
-21
-19
-18
-20
-22
-22
-23
-23
-22
-21
-17
-17
-17
-18
-21
-21
-19
-19
-17
-16
-19
-21
-23
-25
-25
-24
-23
-21
-22
-26
-27
-29
-31
-31
-30
-30
-28
-31
-32
-35
-37
-38
-36
-33
-34
-35
-36
-36
-38
-39
-36
-35
-32
-34
-34
-37
-39
-40
-39
-37
-34
-34
-36
-35
-40
-40
-38
-35
-36
-33
-35
-33
-34
-32
-29
-24
-20
-16
-13
-12
-13
-16
-15
-17
-18
-22
-25
-30
-29
-34
-35
-32
-35
-38
-38
-40
-42
-42
-44
-43
-42
-39
-38
-38
-37
-39
-41
-39
-40
-37
-36
-34
-34
-34
-32
-26
-13
5
29
56
86
102
90
42
-29
-93
-142
-175
-197
-204
-201
-184
-150
-108
-66
-35
-19
-13
-11
-13
-11
-6
-2
3
5
5
6
4
7
9
12
15
21
21
22
24
24
26
29
34
40
44
47
49
51
55
58
64
70
76
84
86
89
93
98
106
112
117
120
123
122
122
122
124
124
127
125
119
118
107
99
91
85
77
69
56
45
36
26
17
12
7
3
-2
-8
-12
-18
-20
-22
-22
-21
-20
-21
-19
-24
-25
-23
-23
-23
-19
-20
-20
-22
-22
-23
-21
-19
-18
-19
-19
-21
-22
-24
-22
-23
-22
-22
-25
-25
-29
-32
-31
-30
-29
-30
-30
-33
-35
-39
-38
-38
-36
-37
-34
-37
-37
-40
-39
-40
-39
-38
-39
-39
-40
-42
-42
-41
-40
-39
-38
-38
-41
-41
-43
-44
-42
-39
-39
-40
-40
-41
-42
-42
-40
-39
-33
-31
-28
-25
-27
-25
-22
-17
-11
-9
-11
-16
-21
-26
-29
-32
-32
-33
-31
-31
-34
-39
-43
-41
-40
-36
-32
-33
-34
-30
-28
-24
-17
-10
-2
6
11
16
22
27
32
41
48
56
73
92
124
163
205
227
208
148
66
41
-48
-74
-96
-108
-104
-86
-60
-41
-29
-27
-26
-25
-23
-18
-21
-21
-22
-24
-23
-20
-19
-19
-18
-16
-13
-15
-17
-16
-15
-15
-15
-13
-12
-13
-14
-13
-11
-8
-4
1
2
2
3
7
11
14
19
23
23
24
23
27
26
29
33
36
39
40
36
29
26
24
26
22
19
15
6
-1
-6
-10
-11
-12
-11
-14
-14
-22
-23
-24
-22
-19
-20
-19
-22
-22
-23
-23
-20
-19
-18
-19
-19
-19
-20
-20
-19
-18
-18
-19
-19
-19
-23
-26
-25
-23
-20
-20
-21
-22
-26
-26
-28
-26
-25
-22
-25
-26
-28
-32
-32
-31
-30
-28
-29
-29
-31
-35
-38
-36
-35
-35
-35
-37
-36
-37
-41
-39
-37
-39
-35
-34
-36
-37
-39
-42
-41
-37
-36
-32
-34
-33
-35
-38
-37
-38
-35
-35
-36
-37
-38
-38
-36
-35
-34
-30
-28
-28
-26
-24
-21
-19
-12
-7
-5
-8
-9
-17
-24
-25
-28
-29
-26
-27
-27
-29
-33
-38
-40
-37
-36
-34
-32
-32
-29
-25
-22
-15
-6
0
7
10
15
19
26
36
43
52
56
66
83
107
138
175
210
220
192
129
53
-13
-53
-79
-96
-104
-100
-83
-75
-38
-26
-25
-24
-22
-20
-16
-17
-18
-21
-21
-19
-16
-13
-12
-13
-15
-19
-19
-17
-14
-12
-10
-12
-13
-12
-13
-9
-8
-6
-4
-4
0
1
2
4
5
8
13
14
15
17
19
21
23
23
26
32
33
33
35
34
34
37
39
39
33
29
25
18
15
12
9
4
2
-1
-6
-10
-16
-17
-18
-18
-15
-15
-16
-20
-20
-21
-21
-18
-16
-17
-16
-18
-22
-22
-18
-16
-14
-14
-14
-15
-17
-19
-23
-20
-19
-17
-18
-17
-23
-26
-24
-22
-22
-23
-25
-27
-28
-28
-29
-27
-28
-28
-29
-28
-31
-33
-34
-34
-33
-30
-28
-31
-32
-37
-38
-39
-37
-35
-32
-32
-36
-38
-42
-41
-40
-38
-33
-35
-37
-37
-39
-39
-38
-38
-36
-33
-34
-34
-34
-36
-34
-34
-32
-27
-30
-30
-30
-35
-32
-30
-30
-28
-26
-26
-25
-22
-22
-17
-14
-7
-1
0
-1
-4
-8
-7
-12
-14
-17
-18
-21
-20
-24
-25
-25
-25
-22
-24
-24
-26
-27
-25
-23
-19
-13
-8
-8
-8
0
4
9
20
30
37
43
48
50
55
57
70
88
116
148
187
219
229
199
137
62
1
-35
-61
-67
-95
-98
-79
-54
-28
-13
-6
-9
-11
-15
-17
-15
-13
-8
-6
-5
-6
-7
-11
-10
-10
-6
-5
-6
-5
-6
-6
-6
-2
0
4
3
5
4
1
0
5
7
8
12
13
14
14
14
16
22
26
31
34
34
34
34
37
38
41
43
46
47
45
44
44
41
40
41
35
32
25
19
13
9
7
5
6
0
1
-6
-9
-11
-12
-10
-11
-8
-12
-12
-15
-15
-13
-13
-10
-9
-11
-11
-12
-15
-14
-16
-14
-13
-14
-14
-14
-15
-15
-14
-12
-12
-12
-13
-18
-20
-22
-19
-21
-20
-18
-20
-20
-24
-25
-27
-26
-27
-23
-24
-23
-25
-27
-29
-27
-26
-23
-24
-26
-29
-30
-31
-31
-29
-28
-26
-28
-29
-29
-33
-30
-29
-26
-22
-25
-26
-30
-31
-30
-30
-28
-27
-26
-27
-29
-30
-31
-31
-28
-28
-27
-24
-26
-25
-24
-19
-20
-14
-7
-5
-4
-3
-5
-7
-6
-8
-7
-12
-18
-21
-24
-23
-26
-28
-29
-30
-29
-32
-34
-36
-37
-36
-33
-29
-29
-31
-31
-33
-33
-31
-30
-27
-25
-26
-25
-22
-14
-2
16
40
69
102
114
95
40
-28
-90
-133
-161
-180
-185
-185
-164
-129
-87
-46
-19
-4
-3
-3
-3
-1
3
9
12
17
18
17
17
17
19
21
27
31
31
33
34
36
39
43
47
54
57
61
63
62
66
70
77
84
89
92
98
100
104
109
114
121
125
126
127
128
128
125
126
131
130
129
125
119
112
106
100
92
85
75
66
54
45
36
29
25
19
13
9
6
1
-1
-7
-7
-8
-8
-5
-7
-6
-8
-10
-10
-6
-5
-3
-3
-5
-8
-12
-12
-11
-8
-4
-6
-5
-7
-11
-11
-10
-8
-6
-7
-11
-14
-20
-20
-16
-17
-15
-16
-18
-16
-20
-23
-25
-24
-21
-21
-22
-24
-25
-26
-29
-25
-22
-22
-22
-21
-23
-29
-28
-29
-30
-30
-27
-28
-29
-30
-32
-30
-30
-31
-29
-28
-27
-32
-34
-33
-31
-27
-23
-19
-20
-19
-20
-18
-14
-11
-9
-10
-13
-15
-20
-26
-28
-27
-26
-22
-21
-20
-30
-39
-44
-45
-39
-41
-40
-41
-40
-42
-43
-41
-40
-38
-35
-32
-36
-35
-39
-33
-32
-26
-18
-8
-4
25
52
83
98
86
34
-41
-107
-158
-188
-205
-207
-191
-159
-117
-76
-39
-21
-14
-13
-12
-5
0
4
5
6
8
8
11
15
18
21
23
22
25
27
30
36
40
45
45
47
49
50
55
62
68
78
82
84
93
95
99
104
113
118
125
131
132
130
131
131
132
132
134
129
126
116
111
102
94
85
75
63
59
40
27
19
11
7
2
-3
-8
-13
-18
-19
-18
-21
-19
-17
-17
-19
-21
-25
-24
-25
-19
-20
-19
-20
-20
-21
-20
-19
-19
-17
-17
-16
-16
-21
-22
-23
-23
-21
-20
-22
-23
-25
-29
-29
-28
-27
-25
-26
-29
-29
-32
-33
-35
-32
-32
-33
-33
-34
-35
-36
-35
-36
-34
-35
-31
-35
-38
-40
-39
-37
-36
-36
-36
-35
-42
-42
-44
-40
-41
-39
-37
-39
-38
-38
-41
-36
-33
-31
-26
-23
-22
-25
-21
-20
-18
-14
-11
-14
-15
-22
-26
-30
-33
-35
-32
-33
-32
-34
-39
-43
-43
-41
-37
-33
-32
-33
-33
-30
-26
-21
-13
-8
0
3
11
15
22
28
33
43
51
62
77
101
129
169
208
222
196
134
60
-1
-43
-71
-95
-111
-110
-91
-84
-46
-31
-27
-26
-27
-26
-25
-26
-25
-28
-28
-26
-26
-25
-20
-19
-17
-19
-22
-21
-20
-16
-12
-12
-13
-17
-16
-18
-15
-13
-10
-6
-5
-5
-5
-4
-4
0
2
8
10
10
13
10
12
16
18
22
24
23
27
26
27
26
28
28
25
21
17
11
6
2
-1
-3
-6
-9
-14
-17
-19
-22
-22
-18
-20
-19
-21
-23
-25
-27
-26
-24
-22
-20
-19
-19
-22
-24
-23
-21
-19
-18
-19
-21
-21
-22
-23
-21
-20
-16
-16
-17
-19
-22
-25
-24
-22
-22
-22
-22
-25
-28
-31
-30
-31
-29
-27
-27
-29
-32
-34
-33
-32
-31
-30
-30
-31
-33
-35
-38
-36
-33
-31
-30
-31
-33
-36
-38
-38
-35
-35
-32
-32
-34
-36
-37
-35
-34
-33
-33
-32
-31
-33
-36
-36
-33
-29
-27
-23
-21
-21
-21
-19
-15
-11
-5
-6
-7
-10
-17
-22
-23
-26
-25
-26
-23
-24
-26
-30
-33
-36
-39
-34
-29
-29
-29
-27
-25
-21
-16
-8
-2
5
13
18
22
26
32
39
44
52
53
70
88
113
147
183
221
234
203
140
66
10
-23
-48
-73
-91
-95
-86
-66
-47
-29
-22
-20
-19
-19
-19
-20
-20
-20
-20
-17
-16
-12
-12
-12
-14
-15
-13
-15
-11
-11
-12
-12
-13
-12
-12
-12
-8
-5
-4
-4
-3
-3
-2
1
3
8
14
16
18
18
16
18
22
25
27
29
31
34
34
33
35
37
37
36
35
26
21
14
9
7
6
3
1
-4
-9
-11
-13
-13
-14
-11
-11
-12
-14
-16
-17
-16
-16
-12
-14
-17
-15
-17
-17
-16
-17
-16
-14
-14
-12
-14
-16
-17
-16
-13
-13
-17
-15
-16
-19
-21
-19
-19
-19
-19
-20
-21
-24
-24
-25
-24
-23
-22
-22
-24
-27
-29
-30
-30
-26
-26
-28
-26
-28
-30
-32
-31
-29
-30
-26
-26
-28
-29
-29
-31
-30
-28
-28
-28
-28
-31
-33
-32
-32
-30
-27
-25
-26
-28
-32
-32
-31
-30
-27
-24
-26
-27
-27
-27
-29
-29
-25
-21
-21
-19
-18
-17
-15
-10
-4
-2
-1
-1
-2
-4
-6
-6
-9
-11
-14
-16
-17
-19
-20
-21
-21
-22
-20
-21
-21
-25
-24
-21
-18
-10
-5
0
5
7
14
22
29
36
41
46
49
57
60
68
81
101
131
168
204
234
228
186
113
44
-6
-34
-55
-76
-92
-93
-81
-57
-35
-19
-10
-9
-12
-15
-17
-11
-10
-11
-10
-8
-8
-10
-9
-11
-7
-8
-5
-5
-6
-7
-7
-7
-4
-3
-1
-1
0
-1
-3
-2
-2
3
6
10
11
10
7
10
11
15
15
21
25
25
24
23
25
27
31
36
38
39
40
37
38
35
35
32
31
24
19
14
8
6
3
1
0
-3
-3
-5
-12
-14
-12
-11
-10
-9
-10
-12
-12
-15
-13
-9
-11
-8
-8
-10
-9
-12
-13
-11
-12
-9
-7
-5
-5
-12
-13
-13
-13
-10
-8
-9
-12
-14
-16
-16
-15
-16
-14
-16
-18
-20
-23
-24
-22
-22
-20
-19
-23
-25
-26
-30
-29
-24
-25
-24
-23
-26
-29
-27
-28
-27
-25
-28
-26
-27
-28
-31
-28
-29
-27
-26
-29
-28
-26
-29
-30
-28
-28
-26
-24
-25
-25
-26
-27
-27
-28
-27
-25
-25
-24
-25
-26
-25
-22
-18
-15
-13
-12
-10
-8
-6
-3
-1
1
1
2
-3
-9
-15
-20
-20
-19
-19
-19
-20
-26
-30
-32
-32
-29
-28
-28
-27
-28
-30
-31
-30
-28
-28
-23
-23
-24
-26
-27
-24
-24
-21
-18
-14
-10
0
13
35
66
98
120
110
65
-2
-71
-122
-156
-174
-182
-181
-178
-137
-102
-66
-38
-16
-5
1
4
5
7
8
9
15
16
21
22
24
24
25
25
28
30
34
39
41
44
44
45
48
53
56
63
66
68
72
75
80
86
94
99
107
112
116
120
122
128
132
136
139
141
141
139
136
135
135
136
136
132
128
118
109
100
94
84
77
70
59
50
42
31
25
19
16
13
11
4
1
-3
-7
-7
-3
-2
-2
-2
-5
-6
-7
-6
-5
0
-1
-1
-2
-2
-3
-3
-3
2
2
2
0
-4
-6
-7
-5
-2
-2
-4
-7
-8
-11
-12
-12
-9
-8
-7
-11
-15
-17
-19
-18
-17
-15
-14
-13
-15
-16
-18
-20
-17
-18
-17
-16
-15
-16
-20
-21
-21
-18
-15
-15
-17
-20
-22
-24
-22
-20
-18
-17
-18
-20
-19
-20
-21
-20
-16
-13
-14
-15
-18
-20
-20
-16
-11
-6
-3
-3
-1
-2
0
1
2
4
6
4
-4
-10
-13
-16
-15
-12
-12
-15
-17
-23
-25
-25
-22
-19
-14
-10
-10
-8
-4
-2
8
16
24
32
34
38
41
45
49
52
67
86
113
144
180
212
227
206
153
89
34
-2
-35
-65
-86
-89
-73
-53
-30
-24
-11
-13
-15
-17
-14
-10
-8
-7
-8
-10
-12
-12
-11
-7
-5
-4
-4
-6
-6
-7
-5
-7
-4
-2
-3
-2
-3
-6
-3
1
3
9
11
14
14
14
16
19
22
26
27
27
27
28
30
31
32
37
40
40
42
38
35
34
31
30
27
24
16
11
6
1
-1
-4
-6
-4
-7
-8
-12
-15
-16
-14
-13
-9
-8
-12
-11
-13
-14
-12
-12
-9
-7
-8
-10
-11
-13
-13
-9
-8
-8
-6
-7
-12
-14
-13
-12
-9
-6
-4
-9
-12
-12
-15
-15
-14
-10
-11
-11
-17
-20
-23
-25
-22
-20
-18
-19
-22
-25
-26
-26
-23
-23
-22
-22
-23
-25
-28
-28
-26
-26
-22
-23
-25
-27
-29
-30
-29
-28
-26
-25
-25
-27
-28
-28
-29
-27
-29
-26
-27
-25
-25
-28
-26
-29
-26
-24
-23
-23
-25
-26
-27
-22
-17
-15
-12
-11
-9
-7
-6
-5
-5
-4
-3
-4
-9
-16
-22
-23
-21
-18
-18
-19
-21
-27
-30
-30
-32
-28
-25
-21
-19
-19
-16
-12
-6
-1
6
15
18
25
29
33
39
44
55
65
80
101
132
170
208
232
220
165
93
26
-18
-49
-74
-92
-97
-81
-57
-49
-18
-13
-12
-17
-17
-16
-14
-10
-9
-12
-12
-14
-11
-9
-9
-6
-8
-8
-9
-10
-11
-8
-7
-4
-4
-5
-4
-4
-5
-4
1
4
7
8
8
7
9
13
18
22
26
31
32
32
30
32
34
36
43
44
45
45
43
39
39
36
31
30
24
17
10
6
4
0
-1
-2
-4
-5
-8
-13
-14
-14
-11
-9
-7
-9
-11
-14
-12
-13
-12
-10
-8
-9
-7
-9
-10
-12
-10
-10
-8
-9
-11
-11
-14
-16
-12
-12
-10
-9
-12
-13
-16
-18
-17
-17
-17
-15
-17
-16
-19
-20
-23
-22
-20
-19
-19
-19
-23
-27
-29
-26
-24
-21
-21
-23
-26
-29
-28
-26
-26
-26
-23
-24
-26
-29
-31
-31
-25
-25
-24
-24
-26
-30
-30
-32
-29
-28
-23
-24
-23
-24
-27
-29
-26
-26
-24
-23
-24
-28
-28
-29
-30
-29
-25
-23
-23
-22
-22
-20
-17
-15
-8
-4
-1
-2
-2
-5
-7
-7
-8
-10
-12
-17
-20
-21
-21
-22
-22
-24
-24
-25
-26
-23
-25
-23
-17
-12
-8
-5
-3
1
7
13
22
28
36
42
43
49
49
57
71
91
119
155
190
220
220
182
119
48
-1
-30
-38
-79
-90
-89
-75
-49
-29
-14
-9
-10
-10
-14
-15
-12
-9
-7
-6
-7
-7
-9
-9
-9
-7
-4
-2
-2
-2
-1
-2
-5
-1
-1
2
3
5
6
5
4
6
10
14
17
19
21
22
24
26
30
36
38
38
40
40
39
40
42
48
49
51
50
51
49
45
41
38
34
30
27
21
14
10
5
4
3
3
4
-2
-4
-5
-6
-5
-5
-4
-4
-3
-6
-7
-8
-7
-2
-3
-3
-5
-7
-8
-8
-8
-7
-5
-4
-3
-5
-4
-7
-8
-8
-6
-5
-6
-5
-8
-9
-11
-12
-11
-8
-10
-9
-11
-13
-15
-17
-18
-18
-15
-16
-16
-17
-18
-19
-19
-19
-18
-16
-18
-19
-20
-20
-22
-21
-18
-17
-18
-20
-22
-24
-26
-25
-22
-20
-20
-20
-22
-24
-25
-25
-21
-21
-21
-21
-21
-22
-26
-23
-27
-22
-22
-20
-20
-22
-22
-26
-22
-24
-19
-16
-19
-20
-21
-24
-24
-22
-20
-17
-17
-12
-13
-12
-10
-3
1
5
6
5
4
1
-2
-4
-7
-9
-10
-13
-15
-16
-16
-17
-19
-22
-20
-22
-20
-21
-16
-15
-10
-7
-2
1
4
11
14
21
29
37
42
45
53
55
58
68
88
116
152
193
230
240
210
145
67
7
-26
-45
-65
-82
-84
-73
-53
-29
-13
-5
-3
-5
-6
-8
-9
-5
-4
-2
-1
-2
-2
-3
-3
-4
-1
1
2
3
2
0
0
0
2
5
8
9
9
10
9
9
12
11
17
19
21
24
24
27
29
34
35
40
40
41
44
42
42
44
47
51
53
55
55
54
49
48
44
41
40
37
29
22
17
12
9
9
8
6
2
1
-4
-7
-6
-7
-5
-4
-4
-4
-6
-8
-8
-7
-5
-4
-4
-3
-6
-7
-5
-4
-1
-3
-2
-5
-7
-6
-8
-8
-7
-6
-5
-6
-7
-10
-11
-13
-12
-11
-10
-10
-12
-14
-18
-15
-14
-13
-12
-13
-15
-19
-20
-19
-19
-16
-17
-15
-18
-16
-19
-21
-22
-21
-22
-19
-20
-21
-23
-25
-23
-24
-21
-20
-22
-20
-21
-25
-26
-24
-22
-21
-19
-20
-21
-24
-24
-23
-24
-21
-18
-19
-21
-23
-24
-25
-25
-20
-19
-18
-23
-23
-25
-24
-22
-17
-14
-11
-10
-7
-7
-3
0
4
7
8
9
6
0
-6
-12
-16
-14
-9
-11
-13
-17
-20
-24
-24
-21
-17
-15
-11
-9
-10
-8
-5
2
8
16
22
31
36
40
43
50
58
68
75
89
110
140
175
212
232
211
198
78
13
-26
-56
-79
-92
-91
-72
-47
-25
-11
-8
-6
-10
-6
-4
0
-2
-2
-4
-3
-3
-1
-1
0
-1
1
3
1
3
5
6
9
8
8
6
7
7
9
13
14
19
18
18
18
18
20
27
30
32
37
40
39
38
38
43
47
51
53
54
54
51
51
55
54
53
52
45
37
31
27
22
19
17
16
11
4
2
-2
-2
-1
-2
0
-1
-3
-4
-7
-8
-6
-6
-2
-4
-4
-7
-5
-6
-6
-7
-3
-2
-2
-3
-4
-6
-6
-5
-1
-1
-2
-1
-2
-5
-7
-9
-8
-6
-8
-8
-11
-13
-16
-17
-15
-13
-12
-12
-13
-16
-19
-17
-16
-13
-15
-14
-14
-18
-16
-19
-19
-18
-20
-18
-20
-21
-22
-21
-22
-17
-17
-18
-17
-18
-20
-22
-23
-22
-20
-18
-18
-20
-22
-24
-24
-20
-20
-16
-17
-19
-19
-22
-22
-20
-19
-17
-16
-16
-14
-13
-15
-11
-9
-2
2
5
6
4
3
0
1
-1
-4
-7
-10
-15
-15
-17
-17
-16
-17
-19
-20
-22
-26
-26
-24
-21
-21
-19
-19
-17
-20
-19
-22
-21
-19
-16
-11
-11
-9
-3
4
21
42
71
80
120
113
61
-18
-99
-160
-192
-204
-204
-184
-155
-113
-69
-27
-2
13
19
19
22
24
24
27
31
35
37
41
42
42
44
45
51
56
60
64
64
68
68
72
77
83
87
93
96
102
107
110
119
125
132
135
143
148
152
153
159
164
168
173
175
176
172
171
168
165
163
157
152
142
128
113
103
93
83
73
70
53
41
33
25
19
17
14
12
10
7
5
3
1
1
4
8
8
8
6
1
4
1
3
6
7
11
7
3
4
3
6
5
4
4
2
1
-1
-2
-2
-2
1
-2
-3
-4
-7
-10
-9
-8
-8
-7
-6
-10
-10
-13
-16
-15
-12
-11
-11
-14
-17
-22
-20
-20
-16
-13
-14
-15
-17
-19
-19
-20
-19
-19
-18
-17
-16
-21
-21
-22
-21
-18
-15
-15
-18
-17
-23
-22
-21
-20
-17
-15
-16
-16
-18
-21
-20
-16
-15
-14
-9
-8
-7
-9
-5
-3
5
9
11
10
6
4
0
0
0
-5
-7
-11
-11
-13
-12
-16
-17
-17
-19
-17
-19
-20
-20
-20
-18
-17
-16
-15
-16
-18
-16
-18
-15
-14
-9
-8
-6
-2
4
16
35
63
95
106
129
102
40
-37
-99
-139
-164
-174
-174
-158
-129
-89
-47
-16
5
15
19
18
18
19
23
25
28
34
35
40
39
40
42
44
46
49
54
56
57
58
61
64
69
73
78
82
87
89
91
96
104
107
114
117
125
130
132
135
138
143
146
153
155
156
157
155
155
151
150
148
143
135
127
118
106
98
90
82
79
64
54
43
33
29
26
23
22
19
15
14
12
10
13
12
14
15
16
13
11
7
11
13
16
17
17
16
13
11
12
13
12
15
17
16
13
9
10
8
11
13
14
12
9
7
5
3
5
4
4
4
2
2
-1
0
1
2
4
5
2
0
-6
-5
-3
-2
0
2
0
-1
-5
-5
-6
-5
-3
-3
1
0
-2
-3
-1
-4
-4
-2
-1
-1
-1
-3
-3
0
2
6
9
9
8
10
11
16
17
20
21
25
22
19
14
8
7
5
5
5
4
5
1
-7
-8
-6
-6
-2
-2
-4
-7
-9
-7
-4
-5
-3
-1
-3
-4
-5
-4
-3
1
3
5
4
7
12
22
39
63
93
127
149
143
100
30
-43
-105
-137
-146
-166
-160
-138
-102
-61
-23
4
20
26
28
29
32
33
37
39
44
46
49
51
50
51
51
58
61
63
68
69
72
73
79
80
84
92
94
98
102
106
110
115
124
129
138
141
144
146
150
155
159
164
166
170
169
168
165
164
162
159
156
150
139
129
119
109
99
90
78
70
62
53
45
40
35
31
31
29
25
21
20
16
17
16
19
20
22
19
18
16
16
19
20
21
23
22
23
21
18
19
18
20
23
21
20
17
11
12
11
14
15
15
13
13
11
9
9
9
10
9
9
9
7
4
3
3
5
7
8
7
3
3
3
4
3
6
5
5
3
-1
0
1
2
4
5
5
4
2
1
1
4
7
8
15
15
17
15
16
20
24
29
31
29
25
19
15
15
14
12
13
7
9
7
6
3
3
2
4
3
3
6
5
6
11
19
23
30
34
39
45
51
59
66
71
78
81
85
93
105
129
159
199
212
270
269
226
156
82
35
3
-24
-48
-62
-61
-49
-28
-6
8
19
19
20
18
17
17
18
19
22
21
22
21
22
19
18
22
21
25
26
24
26
25
25
25
26
29
30
31
31
33
32
32
35
36
39
42
41
43
45
45
50
52
57
59
59
61
62
61
62
67
70
73
75
73
71
68
64
63
61
60
56
50
45
38
35
32
30
31
32
28
27
22
19
20
23
22
24
24
23
22
21
21
22
24
22
26
25
23
22
20
23
24
28
29
30
25
24
21
20
21
23
24
25
23
20
19
19
19
19
18
21
18
16
15
11
12
12
14
16
14
14
12
9
10
11
14
12
11
12
9
8
8
9
10
11
12
11
10
9
9
10
9
12
13
13
12
9
11
13
16
20
24
27
26
28
29
29
32
31
32
29
24
21
15
14
14
15
19
20
13
9
5
2
4
7
10
15
18
21
21
20
26
32
42
46
56
62
67
68
72
76
84
92
101
116
139
170
208
252
282
286
244
178
114
65
25
-9
-40
-54
-57
-37
-15
4
16
19
20
19
20
22
23
23
21
21
21
22
23
23
24
21
22
21
23
25
26
27
28
27
25
24
23
26
29
30
32
32
32
31
30
32
33
38
42
44
45
44
45
44
47
51
53
58
60
58
59
59
63
66
70
71
70
68
65
57
58
53
53
49
44
42
35
33
28
29
29
28
29
27
24
24
22
20
23
24
27
29
28
24
24
24
26
28
30
32
32
31
29
27
31
32
31
32
31
29
27
25
26
26
29
31
30
29
25
22
22
22
23
24
24
22
21
19
14
17
18
19
23
21
17
17
15
15
16
18
19
18
17
13
14
13
14
17
19
19
17
16
13
13
13
15
16
17
18
16
14
13
12
14
14
18
17
17
15
14
16
18
23
27
30
30
31
30
32
33
37
36
37
32
29
21
18
18
21
22
23
22
18
12
11
12
13
16
20
22
26
26
29
33
42
50
53
65
72
77
80
86
89
96
106
123
143
171
205
246
275
276
240
170
102
50
10
-19
-44
-56
-49
-44
-7
13
23
26
21
22
26
28
31
32
29
27
26
26
30
31
34
33
32
31
28
30
30
34
35
38
38
37
35
34
37
39
42
45
48
48
50
50
50
55
61
63
65
67
66
69
67
68
74
75
81
79
78
75
75
74
73
71
68
63
58
53
47
41
40
39
37
36
32
30
28
26
25
26
27
29
30
28
25
25
25
25
27
28
28
28
26
24
25
26
27
28
27
27
29
23
24
26
27
27
28
26
24
22
19
20
20
22
23
22
21
16
16
14
14
16
16
18
13
13
11
11
8
11
11
13
12
11
8
8
7
10
13
14
12
10
9
6
6
6
6
7
8
6
6
5
3
3
5
8
7
9
7
4
4
4
7
8
9
8
8
7
3
3
4
7
8
12
12
13
14
14
18
20
23
32
33
30
28
25
23
22
18
14
12
13
11
10
6
7
6
4
7
4
4
3
6
8
13
15
26
30
34
40
47
54
60
69
76
82
87
89
95
110
130
149
181
212
234
241
218
171
116
66
51
1
-21
-35
-41
-32
-16
-2
12
20
21
20
20
18
18
18
21
21
23
21
19
17
18
21
21
22
24
25
24
27
23
23
26
28
29
32
31
30
31
31
35
38
44
47
45
46
45
49
51
54
54
60
61
62
61
60
61
66
69
70
69
68
63
59
56
52
48
45
41
37
31
26
22
20
20
19
20
18
17
14
13
15
15
17
19
17
15
14
12
12
12
14
16
18
17
15
14
13
13
14
13
15
14
13
13
9
11
12
12
14
15
11
10
8
8
7
6
9
7
6
4
1
0
2
1
2
4
5
4
0
-4
-3
-3
-1
0
2
-1
-3
-6
-7
-6
-5
1
-1
-3
-4
-7
-6
-6
-6
-5
-4
-2
-5
-6
-8
-9
-6
-3
-3
1
-1
-3
-6
-5
-6
-6
-5
-3
-3
-4
-3
-8
-7
-4
-4
2
3
0
-4
-2
-3
-2
2
5
11
9
12
14
16
18
20
23
23
20
15
8
1
-1
0
1
4
4
1
-2
-7
-7
-2
-2
1
4
5
8
8
13
19
24
35
42
48
53
55
61
65
72
75
87
99
115
140
173
213
249
262
234
169
95
35
-7
-38
-60
-74
-70
-53
-31
-11
1
6
6
8
8
12
14
13
12
10
10
12
13
14
14
14
13
14
12
16
15
18
21
22
20
20
19
23
23
23
27
29
31
30
32
32
38
41
44
49
49
50
50
52
55
56
60
62
64
66
64
63
65
65
66
70
70
64
58
50
48
45
40
36
32
27
22
20
15
16
15
15
14
11
11
6
6
6
9
10
13
14
13
10
7
5
8
9
11
14
12
10
9
7
10
10
12
12
11
10
8
6
4
5
7
8
8
7
4
2
1
0
3
2
4
2
1
-1
-2
-3
-1
0
0
-2
-4
-10
-11
-8
-9
-8
-6
-7
-4
-8
-10
-11
-9
-8
-7
-8
-8
-10
-12
-10
-12
-9
-7
-4
-8
-8
-9
-13
-13
-13
-12
-10
-8
-8
-11
-11
-12
-12
-12
-11
-9
-9
-9
-10
-12
-13
-10
-8
-5
-9
-10
-10
-12
-11
-10
-9
-4
-6
-8
-8
-10
-7
-3
2
4
5
6
8
11
17
16
16
18
17
14
8
1
-3
-5
-5
-5
2
0
-4
-10
-12
-13
-9
-7
-3
-1
3
4
5
10
17
25
33
42
48
52
57
62
68
73
76
90
105
123
154
190
227
251
239
189
112
45
-1
-28
-49
-66
-71
-61
-43
-22
-5
2
4
5
6
6
6
8
10
11
10
9
9
12
14
14
15
14
13
13
11
16
17
21
18
20
18
18
19
21
22
28
30
32
30
31
30
32
39
41
44
46
47
48
48
53
56
59
64
65
66
64
64
68
67
68
68
65
64
58
52
46
40
37
35
33
28
23
17
14
11
13
12
11
10
8
8
4
3
5
6
9
9
9
8
5
5
7
8
10
10
10
7
7
7
5
8
10
14
11
12
8
6
3
1
2
4
4
3
1
-1
0
-1
-1
-1
-1
-2
-3
-7
-8
-7
-7
-6
-3
-6
-7
-8
-11
-10
-11
-12
-11
-10
-11
-13
-14
-15
-13
-12
-10
-10
-9
-12
-13
-16
-15
-12
-11
-9
-13
-11
-13
-15
-16
-17
-16
-12
-12
-12
-15
-14
-17
-17
-17
-16
-15
-15
-17
-17
-18
-16
-14
-13
-14
-12
-14
-17
-19
-18
-17
-16
-14
-12
-11
-12
-12
-13
-8
-5
-2
3
3
5
8
11
12
12
13
13
10
5
-3
-9
-11
-9
-7
-5
-5
-9
-14
-16
-18
-17
-13
-10
-6
-4
-4
0
6
9
18
26
31
37
42
47
51
56
62
65
78
88
100
121
153
188
225
244
234
183
115
55
8
-27
-54
-76
-80
-72
-55
-34
-16
-6
-4
-3
-2
-3
-1
-1
-1
-2
-2
-1
2
4
5
3
3
2
2
1
4
7
6
6
7
7
6
7
8
8
9
11
12
11
11
12
13
16
21
23
25
24
25
25
27
32
33
37
37
40
40
40
41
44
45
47
47
48
42
39
34
29
26
23
21
15
13
7
3
1
0
0
1
1
0
-5
-3
-5
-6
-4
0
1
0
-3
-2
-1
-1
0
2
3
1
0
-1
-2
-1
-1
0
2
3
1
-2
-5
-7
-6
-5
-2
-2
-5
-5
-9
-10
-10
-9
-8
-8
-8
-8
-9
-10
-14
-15
-15
-14
-11
-14
-16
-19
-19
-18
-17
-15
-15
-18
-19
-22
-23
-21
-16
-16
-15
-16
-19
-20
-22
-22
-18
-16
-15
-18
-19
-20
-20
-17
-20
-20
-17
-16
-18
-19
-19
-18
-17
-17
-11
-9
-8
-5
-5
-6
-2
3
6
9
10
9
5
1
-3
-6
-6
-6
-7
-7
-9
-11
-16
-18
-19
-19
-18
-19
-20
-22
-24
-20
-19
-16
-14
-14
-16
-18
-19
-21
-18
-18
-12
-9
-5
-2
5
20
43
77
113
136
135
91
20
-51
-104
-143
-165
-173
-168
-146
-111
-70
-34
-6
0
12
18
19
20
20
22
27
30
33
39
37
41
43
43
43
47
50
56
58
56
58
60
68
69
72
83
85
90
96
100
103
110
118
126
134
138
140
143
146
150
152
156
159
159
159
156
155
150
149
148
140
132
124
114
104
91
80
72
64
56
48
40
32
24
19
15
12
11
7
5
3
1
-1
-2
-2
2
5
4
4
2
0
3
5
6
7
8
7
4
4
2
4
7
6
7
5
2
-1
-3
-3
-2
-1
0
-3
-3
-7
-8
-7
-8
-7
-6
-7
-8
-11
-14
-12
-13
-14
-12
-10
-13
-15
-16
-17
-16
-16
-13
-12
-12
-13
-15
-16
-19
-16
-17
-13
-14
-12
-15
-17
-16
-15
-12
-12
-10
-12
-11
-9
-8
-5
-5
0
4
4
7
5
3
0
0
-4
-4
-5
-7
-13
-14
-15
-13
-10
-11
-14
-17
-18
-20
-18
-18
-16
-10
-6
-1
0
4
11
19
27
33
42
45
51
54
58
69
84
110
141
176
212
235
224
177
106
84
-4
-35
-62
-85
-96
-87
-67
-42
-19
-7
-5
-5
-8
-12
-7
-5
-6
-1
0
1
2
-1
-2
-2
-1
4
7
6
6
3
1
3
6
8
10
11
14
13
14
14
16
21
22
30
31
31
34
37
40
43
48
52
52
55
51
52
54
56
58
59
59
57
52
46
43
35
29
26
22
18
11
7
2
0
1
0
0
-3
-5
-9
-11
-12
-10
-8
-7
-5
-6
-9
-12
-12
-10
-8
-6
-4
-5
-6
-7
-9
-7
-6
-5
-2
-3
-6
-5
-8
-7
-7
-7
-4
-6
-5
-8
-10
-12
-11
-9
-11
-8
-10
-13
-15
-16
-14
-15
-13
-12
-15
-17
-19
-20
-21
-17
-16
-17
-16
-18
-20
-24
-21
-20
-17
-18
-15
-19
-18
-20
-21
-24
-23
-18
-15
-17
-19
-20
-22
-20
-16
-15
-12
-11
-8
-9
-6
-7
-5
-1
1
6
7
5
1
-3
-5
-6
-7
-7
-10
-12
-17
-17
-17
-17
-16
-18
-20
-17
-19
-20
-19
-15
-12
-7
-2
2
3
7
11
18
22
37
43
47
52
54
59
69
84
112
143
181
219
239
228
177
103
37
-11
-38
-62
-81
-89
-80
-59
-51
-15
-5
-4
-7
-10
-10
-9
-8
-6
-4
-2
-3
-5
-6
-5
-5
-2
2
3
3
3
0
-1
1
2
7
9
10
11
9
9
11
16
19
22
24
24
27
27
30
34
38
41
46
48
47
47
48
51
53
57
59
57
53
48
42
40
34
32
28
21
16
11
6
1
-3
1
0
-1
-3
-3
-7
-8
-8
-6
-4
-1
-3
-3
-5
-5
-2
-5
-4
-3
-4
-4
-4
-6
-5
-5
-3
-3
-2
-2
-2
-6
-9
-9
-8
-5
-3
-2
-7
-11
-13
-13
-13
-11
-11
-8
-11
-14
-18
-19
-20
-18
-16
-15
-17
-19
-21
-21
-22
-21
-19
-19
-18
-19
-23
-24
-25
-23
-22
-19
-20
-22
-22
-26
-25
-22
-21
-18
-18
-19
-22
-21
-23
-21
-19
-22
-19
-17
-20
-20
-24
-24
-22
-20
-18
-16
-16
-15
-13
-10
-11
-4
1
4
5
7
2
-1
-6
-7
-11
-11
-13
-12
-14
-18
-17
-18
-19
-20
-20
-23
-21
-22
-20
-17
-12
-5
0
4
7
13
14
24
27
41
45
52
55
58
63
69
85
108
140
176
216
243
243
203
134
60
4
-28
-51
-72
-83
-85
-69
-62
-22
-9
-1
-4
-5
-8
-9
-7
-6
-3
-4
-1
-4
-4
-6
-2
-2
2
0
2
0
1
1
0
2
6
6
7
8
8
9
9
11
13
16
19
20
22
22
23
25
29
34
39
41
40
40
41
44
43
49
52
54
55
52
47
45
47
45
43
38
32
27
21
13
10
8
7
6
4
0
-4
-8
-8
-7
-6
-3
-4
-4
-5
-7
-9
-8
-6
-4
-4
-3
-5
-5
-5
-6
-4
-5
-4
-2
-5
-4
-6
-7
-9
-6
-5
-5
-6
-8
-10
-11
-12
-12
-9
-9
-10
-10
-12
-15
-14
-14
-12
-12
-14
-15
-15
-18
-16
-17
-16
-13
-13
-16
-19
-21
-22
-21
-19
-16
-15
-17
-18
-19
-19
-20
-17
-18
-16
-17
-18
-19
-19
-19
-20
-16
-14
-16
-19
-22
-20
-18
-20
-17
-16
-17
-18
-17
-19
-19
-15
-15
-15
-16
-16
-17
-17
-17
-20
-22
-17
-13
-11
-14
-14
-14
-10
-4
-1
2
5
7
7
9
8
5
3
-1
-6
-8
-11
-13
-11
-11
-10
-14
-16
-19
-20
-20
-21
-24
-22
-20
-20
-18
-19
-19
-20
-21
-21
-18
-15
-11
-15
-14
-15
-16
-10
-7
14
32
55
81
103
106
80
14
-66
-134
-181
-207
-220
-218
-201
-171
-128
-82
-40
-12
3
3
7
11
13
23
26
29
29
31
31
32
37
41
44
46
49
50
50
52
58
64
69
74
74
73
73
78
84
88
99
107
110
115
117
123
127
135
141
150
154
158
159
160
164
168
169
172
172
172
169
161
154
149
146
140
134
125
112
98
84
73
63
56
50
42
33
27
18
13
12
9
9
10
6
2
-1
-6
-9
-9
-5
-3
-5
-3
-3
-4
-6
-4
-2
-1
2
1
0
-4
-3
-1
0
0
2
1
-1
-3
-5
-8
-7
-7
-5
-6
-9
-16
-16
-16
-15
-14
-14
-14
-17
-18
-20
-21
-20
-20
-22
-22
-25
-25
-27
-27
-27
-26
-26
-24
-27
-27
-30
-27
-30
-30
-32
-32
-30
-31
-31
-32
-34
-30
-31
-29
-29
-28
-28
-29
-34
-36
-34
-32
-30
-25
-25
-28
-31
-35
-32
-32
-32
-32
-32
-30
-32
-34
-32
-31
-27
-23
-20
-16
-15
-12
-9
-8
-3
-3
-3
-4
-7
-11
-15
-18
-20
-20
-22
-22
-23
-28
-32
-35
-33
-32
-30
-30
-31
-34
-35
-36
-35
-32
-31
-31
-28
-31
-33
-32
-30
-28
-22
-20
-16
-12
0
16
38
70
95
99
61
-9
-92
-163
-204
-213
-226
-217
-192
-158
-116
-75
-40
-16
-5
3
7
10
12
14
15
19
22
25
27
29
26
26
25
26
28
37
42
48
49
50
53
57
61
65
73
80
84
89
92
97
104
109
120
127
131
135
138
141
146
147
156
162
161
162
160
156
152
150
148
145
139
131
118
105
92
82
74
63
53
43
34
25
16
10
6
2
-1
-3
-3
-7
-12
-15
-18
-18
-16
-13
-13
-14
-14
-14
-13
-11
-9
-7
-9
-8
-9
-12
-12
-12
-10
-9
-9
-8
-12
-13
-16
-17
-16
-15
-14
-16
-15
-19
-19
-20
-22
-24
-24
-25
-25
-28
-31
-33
-34
-34
-33
-31
-33
-33
-35
-36
-36
-35
-36
-34
-35
-38
-38
-40
-39
-39
-37
-35
-36
-37
-39
-41
-42
-41
-37
-39
-37
-40
-44
-44
-47
-44
-43
-41
-39
-38
-44
-47
-50
-49
-47
-45
-41
-40
-42
-46
-49
-49
-49
-45
-45
-42
-44
-42
-42
-42
-38
-34
-29
-24
-22
-21
-20
-24
-25
-24
-24
-26
-30
-36
-38
-42
-41
-42
-43
-46
-46
-51
-51
-52
-53
-55
-54
-53
-51
-51
-48
-48
-50
-49
-50
-51
-48
-46
-45
-44
-38
-34
-31
-10
14
40
70
92
91
62
4
-62
-117
-158
-183
-196
-198
-184
-158
-121
-82
-50
-34
-27
-25
-23
-19
-17
-10
-6
-1
-2
0
0
1
6
7
11
15
17
18
15
19
22
27
31
37
43
43
43
48
50
54
65
69
76
82
87
90
95
97
103
108
115
117
117
119
116
116
117
117
116
115
111
104
93
86
82
67
58
51
41
32
21
9
2
-3
-5
-6
-9
-13
-16
-21
-22
-21
-22
-23
-23
-20
-24
-26
-24
-23
-21
-17
-15
-20
-25
-26
-27
-26
-23
-21
-17
-17
-19
-23
-26
-26
-25
-24
-25
-23
-24
-27
-27
-28
-28
-29
-27
-27
-28
-31
-31
-33
-35
-35
-34
-34
-35
-36
-38
-37
-38
-37
-35
-33
-36
-34
-38
-38
-41
-40
-37
-34
-35
-32
-32
-35
-39
-38
-37
-32
-30
-33
-34
-37
-38
-39
-37
-37
-33
-30
-28
-26
-26
-26
-25
-21
-16
-15
-14
-15
-14
-16
-17
-17
-18
-20
-22
-25
-26
-28
-29
-33
-33
-34
-35
-35
-38
-39
-38
-40
-39
-38
-36
-36
-38
-37
-38
-37
-36
-34
-32
-34
-34
-34
-30
-28
-19
-9
9
31
59
83
98
84
75
-31
-99
-146
-179
-196
-202
-199
-177
-144
-107
-65
-34
-15
-6
-5
-2
-1
3
9
13
13
15
15
17
19
23
27
28
32
34
38
38
43
45
49
51
54
54
57
60
66
73
80
87
91
94
97
101
105
107
120
126
132
135
138
139
140
143
145
146
148
146
140
134
127
120
114
108
99
90
77
65
55
43
39
28
22
17
11
4
0
-8
-10
-11
-10
-10
-11
-14
-17
-21
-23
-24
-23
-23
-21
-17
-19
-20
-19
-20
-18
-17
-14
-13
-12
-14
-15
-17
-17
-14
-13
-12
-15
-15
-16
-16
-15
-13
-13
-14
-16
-18
-20
-22
-23
-22
-22
-24
-25
-28
-30
-29
-29
-29
-28
-30
-28
-30
-30
-31
-31
-30
-29
-30
-27
-29
-30
-33
-33
-33
-31
-27
-25
-27
-31
-31
-32
-34
-32
-28
-27
-29
-30
-30
-31
-30
-31
-28
-25
-22
-21
-24
-25
-24
-25
-20
-16
-10
-8
-8
-8
-10
-9
-10
-13
-15
-20
-23
-25
-30
-32
-28
-25
-24
-28
-32
-33
-36
-36
-34
-27
-21
-16
-15
-13
-13
-10
-4
5
14
24
29
34
38
43
46
52
62
73
92
117
149
191
227
236
217
158
85
25
-19
-53
-83
-104
-109
-96
-73
-50
-30
-22
-22
-26
-23
-21
-17
-13
-13
-15
-16
-21
-22
-21
-17
-11
-13
-15
-16
-17
-18
-16
-13
-9
-9
-10
-15
-16
-16
-14
-11
-7
-5
-2
-1
-3
-1
0
6
11
15
16
15
15
14
17
18
23
29
31
31
29
28
29
31
31
32
29
25
21
13
9
7
2
-1
-2
-6
-10
-14
-19
-20
-21
-21
-23
-23
-26
-25
-25
-25
-23
-22
-21
-21
-20
-21
-22
-25
-25
-22
-21
-20
-19
-19
-21
-22
-23
-21
-18
-17
-13
-17
-18
-22
-28
-28
-30
-25
-22
-23
-24
-28
-28
-28
-28
-27
-25
-29
-31
-36
-35
-34
-32
-32
-32
-29
-32
-33
-36
-35
-36
-35
-35
-34
-35
-34
-34
-36
-34
-32
-30
-28
-30
-29
-31
-30
-34
-34
-32
-31
-30
-28
-29
-29
-27
-24
-18
-15
-11
-10
-8
-9
-10
-11
-16
-20
-22
-25
-26
-30
-32
-31
-31
-31
-31
-35
-35
-36
-36
-31
-33
-29
-26
-22
-19
-13
-8
-4
-3
8
19
25
28
32
33
37
43
58
74
94
121
157
196
231
248
218
156
88
34
-9
-45
-75
-95
-97
-82
-58
-36
-19
-17
-19
-25
-24
-22
-15
-7
-3
-8
-15
-23
-28
-27
-25
-21
-20
-21
-20
-18
-19
-19
-12
-14
-15
-14
-16
-13
-10
-8
-5
-1
-2
-5
-8
-10
-9
-9
-5
0
2
6
6
8
5
8
9
13
19
22
24
24
24
25
25
27
25
27
24
21
17
11
6
1
-4
-10
-12
-13
-15
-19
-23
-26
-25
-22
-21
-19
-21
-22
-24
-23
-20
-18
-19
-15
-16
-17
-18
-24
-20
-21
-19
-16
-14
-15
-18
-20
-20
-18
-16
-16
-17
-18
-20
-21
-22
-22
-21
-19
-19
-23
-25
-26
-25
-25
-22
-23
-22
-24
-22
-25
-29
-31
-25
-17
-14
-15
-24
-33
-40
-37
-35
-35
-34
-32
-32
-34
-34
-35
-39
-34
-33
-33
-33
-37
-39
-37
-38
-35
-33
-33
-35
-34
-35
-37
-34
-31
-31
-30
-27
-27
-26
-24
-21
-21
-18
-17
-17
-15
-13
-10
-12
-12
-11
-8
-9
-14
-19
-24
-27
-29
-29
-26
-23
-23
-30
-33
-37
-37
-34
-32
-27
-22
-19
-13
-12
-8
-7
5
13
23
30
36
37
41
48
58
70
91
122
159
203
235
238
195
120
44
-12
-45
-72
-96
-104
-105
-76
-48
-27
-16
-15
-17
-19
-19
-17
-14
-10
-5
-4
-4
-5
-8
-7
-9
-10
-12
-10
-11
-11
-11
-12
-8
-4
-2
1
-1
1
3
1
3
8
15
18
19
19
18
19
18
16
21
26
29
32
32
35
34
40
42
44
46
45
42
36
32
27
24
24
18
10
6
-2
-7
-8
-10
-7
-8
-11
-12
-17
-17
-18
-15
-14
-13
-14
-13
-14
-15
-18
-17
-14
-12
-10
-10
-10
-13
-17
-15
-13
-11
-6
-8
-9
-9
-12
-11
-12
-10
-10
-12
-13
-11
-13
-15
-18
-15
-14
-15
-16
-22
-25
-28
-26
-24
-21
-18
-19
-19
-19
-22
-24
-24
-22
-22
-21
-23
-23
-25
-25
-24
-23
-21
-20
-20
-20
-24
-24
-25
-26
-27
-27
-28
-26
-26
-27
-29
-25
-25
-20
-20
-19
-21
-23
-23
-24
-22
-20
-19
-16
-14
-15
-13
-13
-6
0
4
4
3
3
1
0
-5
-7
-11
-15
-15
-16
-19
-21
-22
-23
-22
-23
-19
-19
-19
-16
-15
-8
-3
4
8
9
11
13
16
33
40
45
48
53
58
68
86
112
147
186
220
232
203
133
59
1
-35
-61
-80
-89
-87
-71
-50
-41
-13
-7
-3
-3
-6
-7
-10
-8
-6
-2
-2
-3
-4
-6
-5
-1
0
1
3
2
2
3
3
2
1
5
10
16
16
15
15
15
17
23
29
36
40
40
38
38
40
43
47
49
53
54
56
55
53
51
55
56
57
53
49
42
37
30
28
25
24
19
11
3
-3
-7
-6
-4
-5
-4
-7
-11
-13
-14
-16
-15
-13
-9
-7
-8
-9
-12
-13
-13
-11
-9
-7
-5
-8
-11
-12
-12
-11
-9
-9
-10
-9
-10
-9
-9
-12
-10
-11
-11
-12
-13
-14
-15
-16
-17
-15
-14
-17
-17
-17
-21
-22
-22
-21
-20
-19
-22
-24
-26
-27
-22
-19
-15
-17
-19
-21
-24
-27
-28
-23
-20
-18
-21
-24
-27
-28
-25
-27
-24
-22
-22
-22
-22
-25
-27
-27
-22
-19
-20
-19
-22
-22
-25
-24
-25
-22
-22
-23
-23
-24
-27
-24
-24
-20
-17
-18
-16
-14
-13
-12
-7
-3
2
5
7
3
-1
-3
-6
-7
-10
-12
-14
-12
-13
-14
-15
-14
-15
-17
-20
-22
-23
-25
-26
-18
-10
-7
-3
2
7
13
18
25
35
40
47
50
56
59
71
90
118
152
190
225
237
209
137
113
-1
-36
-54
-72
-85
-90
-83
-63
-38
-17
-7
-6
-8
-10
-8
-8
-7
-6
-1
1
3
2
1
1
0
0
1
3
1
1
2
0
0
1
6
8
12
15
13
13
13
13
16
23
29
31
35
35
37
36
43
48
52
57
55
56
53
51
54
58
60
61
58
55
48
43
38
33
28
25
22
17
12
5
4
1
-1
0
0
-2
-3
-5
-6
-8
-10
-8
-4
-4
-4
-6
-11
-10
-5
-4
-1
-2
-5
-6
-8
-9
-8
-5
-3
-2
-3
-4
-6
-6
-7
-6
-4
-5
-6
-9
-13
-16
-17
-14
-13
-11
-9
-14
-17
-21
-22
-19
-18
-18
-19
-22
-23
-24
-27
-26
-23
-23
-21
-23
-22
-28
-31
-30
-30
-27
-26
-25
-26
-29
-30
-31
-32
-26
-23
-24
-28
-33
-36
-39
-36
-34
-28
-25
-26
-28
-34
-36
-37
-35
-35
-30
-30
-32
-32
-34
-33
-33
-32
-32
-29
-31
-30
-32
-33
-32
-28
-25
-22
-22
-21
-21
-19
-15
-10
-6
-3
-5
-5
-10
-16
-17
-24
-23
-22
-23
-26
-27
-32
-33
-35
-35
-35
-35
-34
-35
-38
-40
-40
-35
-32
-31
-33
-36
-37
-37
-37
-35
-33
-31
-29
-30
-25
-18
-6
15
42
72
102
114
98
41
-31
-94
-139
-168
-187
-192
-192
-177
-148
-136
-70
-35
-15
-5
-4
-2
-1
1
7
10
14
16
15
16
17
19
20
24
27
30
33
36
37
39
41
48
53
55
58
60
64
67
70
78
85
91
97
102
109
110
114
117
122
129
136
137
140
137
137
136
137
136
137
136
130
123
113
101
94
85
79
70
60
51
40
31
23
16
10
5
1
-3
-6
-8
-9
-9
-10
-9
-9
-11
-11
-11
-12
-9
-10
-9
-6
-5
-5
-7
-11
-8
-8
-8
-6
-7
-6
-7
-10
-11
-12
-12
-8
-10
-12
-14
-19
-19
-20
-20
-16
-17
-18
-19
-23
-25
-25
-25
-22
-19
-21
-23
-26
-29
-30
-32
-32
-30
-27
-27
-27
-31
-31
-31
-30
-28
-27
-27
-28
-29
-31
-31
-31
-29
-27
-25
-27
-28
-30
-31
-31
-30
-29
-26
-24
-25
-26
-26
-21
-19
-16
-12
-10
-7
-7
-8
-9
-7
-8
-9
-11
-15
-19
-21
-22
-23
-23
-22
-25
-28
-30
-34
-36
-37
-37
-36
-31
-30
-29
-29
-34
-35
-35
-34
-34
-30
-31
-27
-28
-29
-27
-22
-16
-2
11
34
59
86
102
88
42
-25
-91
-141
-175
-191
-203
-195
-172
-138
-98
-59
-31
-18
-15
-7
-3
2
9
10
11
14
15
17
21
25
27
28
27
30
32
33
38
43
47
52
52
55
54
55
60
66
71
77
79
84
89
90
95
102
112
120
124
131
131
129
134
138
142
145
149
147
145
142
140
136
134
126
118
105
91
80
68
57
49
44
36
29
21
15
8
0
-6
-5
-5
-6
-9
-14
-15
-17
-18
-15
-17
-12
-16
-15
-16
-17
-16
-14
-14
-9
-10
-12
-12
-15
-14
-13
-9
-9
-7
-10
-16
-13
-14
-16
-14
-12
-13
-17
-19
-21
-23
-23
-25
-25
-26
-24
-28
-28
-28
-29
-29
-27
-26
-25
-24
-26
-29
-30
-34
-33
-28
-26
-26
-27
-29
-29
-30
-32
-30
-30
-30
-32
-33
-34
-35
-33
-31
-28
-27
-29
-31
-34
-36
-32
-31
-29
-28
-29
-29
-31
-27
-26
-22
-16
-11
-8
-8
-10
-10
-11
-10
-14
-17
-19
-24
-26
-27
-28
-25
-29
-32
-33
-32
-34
-36
-35
-33
-29
-25
-18
-14
-12
-7
-3
1
11
17
26
31
35
37
42
44
64
83
107
140
177
204
203
170
112
52
3
-31
-58
-79
-92
-92
-79
-60
-39
-26
-21
-21
-25
-26
-25
-20
-21
-18
-16
-18
-16
-15
-19
-19
-15
-15
-14
-13
-12
-13
-15
-14
-12
-9
-5
-2
-2
-3
-3
-2
0
0
4
8
12
14
15
15
15
21
23
28
29
32
32
31
32
34
39
42
42
40
39
36
34
29
26
21
15
12
6
2
-6
-9
-8
-9
-12
-14
-20
-21
-25
-25
-25
-22
-22
-22
-22
-22
-24
-24
-22
-20
-19
-17
-18
-19
-20
-21
-21
-18
-17
-16
-17
-19
-20
-23
-25
-23
-22
-20
-19
-21
-23
-25
-26
-28
-27
-26
-22
-21
-21
-25
-29
-32
-33
-30
-31
-30
-29
-30
-32
-34
-36
-32
-32
-29
-29
-27
-28
-29
-29
-29
-27
-29
-27
-28
-30
-32
-34
-36
-34
-32
-33
-30
-32
-32
-34
-35
-31
-29
-27
-31
-31
-34
-36
-36
-31
-29
-26
-27
-29
-31
-33
-30
-25
-20
-14
-12
-11
-12
-14
-15
-11
-9
-8
-8
-12
-17
-22
-24
-23
-25
-24
-25
-25
-28
-28
-28
-27
-25
-23
-16
-13
-10
-9
-7
2
11
19
26
32
39
41
47
49
67
85
111
142
177
200
203
173
117
57
8
-26
-53
-69
-83
-85
-74
-58
-40
-24
-17
-14
-15
-18
-18
-18
-16
-15
-13
-14
-12
-13
-13
-13
-9
-9
-8
-9
-9
-9
-8
-9
-8
-3
-4
-1
-1
-1
0
-1
3
6
11
17
21
20
20
21
21
26
30
36
39
39
38
37
40
42
45
48
48
45
42
35
31
27
24
21
20
16
8
-2
-8
-12
-12
-11
-11
-11
-11
-11
-16
-18
-18
-19
-16
-12
-13
-14
-15
-15
-17
-17
-13
-10
-7
-11
-15
-19
-21
-19
-15
-9
-9
-9
-12
-16
-19
-18
-17
-14
-13
-15
-18
-19
-19
-22
-22
-22
-19
-17
-19
-18
-23
-23
-21
-20
-18
-15
-21
-25
-30
-31
-28
-29
-27
-27
-30
-31
-29
-30
-31
-32
-30
-29
-30
-29
-29
-32
-33
-32
-30
-26
-27
-29
-27
-27
-28
-29
-30
-28
-28
-27
-27
-28
-29
-29
-29
-29
-26
-29
-29
-31
-28
-28
-29
-25
-23
-18
-16
-16
-13
-9
-5
0
0
0
-2
-8
-11
-12
-18
-19
-18
-16
-18
-19
-25
-27
-29
-29
-29
-26
-24
-22
-22
-20
-16
-10
-5
1
7
11
16
22
24
32
40
47
55
65
80
100
128
163
199
223
212
162
92
26
-22
-52
-73
-85
-84
-70
-53
-35
-23
-21
-20
-19
-16
-16
-11
-15
-16
-17
-18
-17
-15
-12
-9
-11
-8
-7
-7
-7
-6
-5
-4
-2
-1
-1
-2
0
2
8
9
7
6
9
8
11
15
20
24
29
31
30
30
33
36
41
44
45
46
44
45
46
45
45
49
48
49
43
36
28
24
20
18
17
14
6
3
0
-5
-6
-4
-3
-3
-3
-6
-11
-12
-13
-11
-8
-8
-12
-13
-13
-14
-16
-11
-9
-11
-7
-8
-9
-12
-15
-16
-14
-10
-9
-8
-9
-10
-11
-12
-12
-11
-10
-9
-12
-14
-17
-18
-20
-21
-21
-20
-20
-21
-21
-23
-22
-23
-25
-24
-24
-23
-24
-24
-26
-27
-28
-27
-25
-23
-25
-29
-32
-33
-29
-27
-24
-25
-27
-30
-32
-28
-27
-29
-28
-27
-28
-28
-27
-29
-30
-31
-29
-28
-27
-29
-29
-27
-28
-27
-27
-28
-29
-30
-31
-29
-30
-28
-26
-22
-20
-17
-22
-23
-21
-18
-12
-6
-4
-3
-1
-1
-3
-3
-2
-2
-8
-11
-17
-20
-20
-18
-19
-19
-21
-24
-23
-26
-25
-26
-24
-22
-17
-16
-15
-10
-4
-1
8
18
22
30
33
40
41
44
47
58
72
95
123
160
197
209
220
180
107
39
-14
-48
-72
-90
-94
-86
-66
-40
-20
-8
-5
-7
-9
-11
-8
-6
-3
-6
-10
-10
-10
-10
-9
-7
-4
-3
-4
-3
-4
-5
-5
-4
-1
2
3
3
2
2
6
9
14
18
17
16
17
18
25
28
29
31
30
31
35
35
37
41
42
43
45
48
52
51
48
48
45
43
39
34
30
21
18
12
10
7
6
3
1
-2
-5
-9
-7
-7
-4
-5
-7
-10
-14
-15
-16
-14
-12
-10
-10
-14
-12
-13
-13
-12
-9
-10
-7
-10
-12
-14
-14
-15
-15
-9
-9
-8
-8
-14
-17
-19
-20
-22
-19
-20
-20
-24
-24
-20
-23
-21
-23
-22
-24
-22
-24
-25
-23
-24
-25
-23
-25
-23
-24
-28
-32
-31
-30
-25
-24
-22
-25
-27
-31
-31
-28
-27
-26
-28
-30
-32
-31
-33
-31
-30
-26
-23
-24
-28
-34
-32
-29
-27
-25
-24
-26
-27
-29
-32
-31
-29
-24
-24
-26
-26
-26
-26
-24
-18
-12
-10
-9
-10
-10
-9
-4
-1
-2
-2
-2
-4
-11
-15
-26
-26
-23
-22
-21
-24
-26
-31
-33
-32
-31
-27
-26
-29
-30
-34
-32
-30
-30
-28
-26
-26
-24
-26
-27
-28
-24
-18
-10
2
16
36
61
91
108
97
43
-36
-119
-178
-214
-225
-220
-199
-167
-127
-85
-50
-26
-19
-4
0
6
12
16
19
21
25
24
28
32
33
34
36
35
35
35
37
41
46
52
56
60
61
60
64
66
75
81
88
92
96
101
106
113
121
127
138
140
147
150
147
149
152
151
157
159
159
158
157
151
149
144
140
132
125
114
102
87
78
69
63
56
47
39
29
18
13
8
6
7
5
0
-3
-5
-5
-4
-6
-5
-4
-2
-5
-8
-9
-9
-7
-3
-2
-2
-4
-5
-5
-4
-2
-3
-4
-5
-9
-9
-11
-13
-12
-10
-9
-7
-9
-11
-13
-17
-16
-17
-17
-14
-13
-16
-20
-24
-24
-24
-23
-22
-24
-27
-28
-28
-32
-30
-28
-25
-21
-23
-26
-30
-32
-32
-32
-28
-27
-28
-31
-31
-34
-34
-29
-26
-26
-25
-28
-31
-33
-36
-34
-33
-30
-29
-32
-33
-35
-34
-34
-31
-29
-26
-28
-31
-34
-37
-34
-29
-26
-23
-19
-22
-24
-26
-26
-24
-18
-12
-5
-1
0
-4
-7
-6
-10
-12
-17
-21
-24
-27
-26
-27
-31
-29
-29
-29
-30
-33
-33
-36
-33
-31
-30
-31
-30
-31
-31
-29
-28
-29
-29
-30
-30
-24
-20
-12
2
21
54
85
108
105
52
31
-107
-169
-203
-215
-212
-196
-172
-131
-88
-43
-12
1
4
3
3
7
8
9
12
16
20
23
27
26
26
26
32
36
44
50
50
47
47
47
51
56
62
70
71
75
79
80
87
92
98
107
113
118
123
123
127
136
142
148
154
152
152
149
147
146
147
147
147
146
139
126
116
104
93
87
77
64
55
40
36
24
17
13
11
7
1
-3
-8
-11
-14
-17
-17
-13
-13
-13
-15
-16
-21
-22
-20
-19
-14
-13
-16
-17
-18
-16
-15
-15
-14
-16
-17
-17
-18
-21
-19
-15
-14
-16
-18
-23
-26
-28
-28
-27
-25
-24
-25
-27
-26
-29
-28
-25
-25
-24
-23
-24
-27
-27
-27
-29
-28
-27
-24
-26
-29
-32
-33
-32
-29
-27
-27
-29
-31
-32
-32
-31
-28
-27
-26
-27
-28
-29
-28
-27
-27
-25
-27
-29
-29
-31
-31
-32
-32
-29
-26
-24
-23
-23
-24
-21
-22
-21
-14
-11
-10
-7
-3
-1
3
4
0
1
-1
-6
-12
-17
-21
-23
-21
-21
-23
-24
-27
-28
-35
-37
-35
-30
-27
-31
-34
-37
-38
-35
-33
-30
-29
-25
-22
-22
-22
-22
-16
-4
10
38
63
95
105
107
61
-15
-92
-149
-182
-199
-203
-195
-170
-134
-88
-49
-19
-4
4
4
5
9
16
18
23
22
20
21
21
27
30
37
40
38
37
37
39
43
50
55
58
60
61
62
62
66
73
83
91
97
101
105
107
117
122
129
136
140
143
148
148
148
150
153
157
160
161
158
153
151
144
141
132
124
114
100
89
85
66
56
47
35
29
21
15
11
4
2
2
3
5
3
1
-1
-2
-4
-2
-3
-2
-1
-1
-1
-2
-7
-7
-5
-3
-1
2
-1
-3
-5
-7
-7
-9
-6
-6
-6
-8
-11
-13
-13
-11
-10
-11
-10
-12
-13
-16
-18
-16
-16
-15
-15
-18
-19
-17
-17
-17
-18
-18
-19
-20
-21
-25
-27
-26
-26
-25
-19
-21
-19
-21
-22
-24
-25
-22
-22
-20
-20
-23
-24
-26
-26
-22
-22
-20
-22
-24
-23
-25
-26
-24
-22
-19
-23
-23
-24
-26
-22
-18
-15
-13
-12
-12
-8
-6
-2
1
5
7
8
-2
-9
-13
-17
-21
-20
-19
-15
-17
-22
-24
-28
-29
-32
-29
-28
-27
-25
-26
-26
-30
-32
-31
-29
-27
-25
-26
-25
-27
-27
-24
-14
1
18
40
47
88
104
80
18
-67
-149
-207
-235
-243
-231
-205
-164
-117
-65
-27
-5
3
6
8
13
18
22
26
26
28
29
30
31
31
35
36
41
40
41
46
49
56
63
68
68
65
66
68
74
79
88
95
99
106
107
110
115
124
132
141
146
150
151
154
156
159
163
166
167
165
163
158
148
145
138
129
121
107
94
90
72
61
52
45
37
31
25
13
7
2
3
2
0
0
-4
-7
-10
-13
-13
-12
-9
-8
-10
-8
-8
-6
-8
-6
-5
-6
-7
-9
-10
-9
-10
-8
-5
-3
-5
-11
-13
-13
-15
-13
-11
-12
-11
-15
-15
-16
-19
-20
-17
-17
-16
-17
-18
-19
-24
-26
-25
-23
-21
-20
-21
-23
-26
-26
-24
-22
-22
-22
-27
-26
-27
-29
-32
-28
-26
-25
-23
-27
-25
-26
-29
-32
-31
-27
-26
-25
-26
-31
-34
-33
-32
-29
-25
-24
-28
-30
-30
-34
-31
-27
-22
-18
-19
-19
-20
-21
-17
-10
-3
2
1
0
-2
-7
-7
-12
-18
-20
-24
-27
-28
-31
-32
-33
-29
-30
-32
-33
-36
-37
-38
-37
-35
-32
-31
-31
-30
-32
-34
-33
-31
-29
-29
-28
-28
-29
-25
-14
3
24
55
86
117
119
88
16
-64
-132
-173
-195
-203
-199
-183
-152
-109
-63
-30
-9
-4
-5
-6
-3
1
7
12
14
15
18
16
17
17
20
26
27
29
31
30
33
31
40
44
51
57
59
60
60
60
66
73
83
91
94
97
98
102
111
117
122
126
128
134
135
133
130
129
131
131
133
128
124
121
109
103
94
83
74
63
54
45
36
29
21
17
14
6
0
-6
-9
-15
-16
-15
-13
-10
-9
-10
-9
-10
-12
-10
-10
-8
-8
-7
-9
-10
-11
-11
-10
-9
-9
-7
-8
-9
-10
-12
-14
-14
-13
-13
-14
-14
-18
-18
-15
-17
-14
-15
-16
-15
-17
-19
-24
-23
-25
-24
-23
-21
-24
-25
-25
-24
-21
-21
-20
-20
-21
-25
-27
-28
-25
-22
-21
-23
-25
-24
-25
-24
-24
-22
-24
-25
-29
-25
-26
-25
-23
-19
-18
-11
-11
-10
-11
-8
-4
1
5
7
1
-2
-8
-13
-15
-16
-17
-15
-14
-15
-22
-25
-30
-29
-28
-25
-29
-29
-30
-31
-32
-29
-26
-21
-22
-24
-25
-27
-29
-25
-21
-16
-12
-10
-8
2
12
32
61
93
122
125
89
71
-59
-123
-162
-183
-192
-192
-180
-156
-121
-82
-49
-19
-2
3
5
11
10
13
17
21
24
27
29
31
32
32
32
35
37
40
42
45
48
47
50
53
60
66
68
74
79
78
82
85
89
95
102
111
117
119
124
129
134
141
146
150
152
153
152
150
147
146
146
142
133
123
112
102
92
83
71
59
47
39
35
23
17
15
9
7
6
2
-2
-4
-6
-6
-4
-6
-3
-3
-4
-3
-4
-6
-4
-3
-3
-1
-1
-3
-3
-4
-2
0
-1
0
2
1
-3
-11
-14
-16
-13
-9
-13
-14
-17
-19
-18
-19
-17
-18
-15
-21
-22
-25
-24
-24
-23
-22
-20
-20
-22
-26
-28
-28
-29
-27
-27
-27
-29
-30
-32
-34
-32
-32
-30
-29
-32
-32
-34
-34
-35
-31
-28
-25
-23
-23
-19
-17
-14
-11
-8
-1
-5
-5
-7
-13
-17
-22
-26
-26
-24
-29
-27
-31
-35
-34
-33
-33
-32
-33
-31
-32
-34
-34
-35
-33
-31
-30
-30
-31
-30
-30
-28
-25
-22
-21
-17
-16
-3
15
40
72
108
126
118
70
1
-68
-122
-155
-172
-179
-180
-161
-130
-92
-55
-22
-4
4
3
2
0
3
5
9
13
17
21
20
22
21
23
25
28
32
35
38
40
42
42
44
50
54
60
64
69
68
73
72
74
80
87
96
102
108
109
114
116
121
125
130
132
133
133
131
128
130
132
130
127
120
118
107
98
90
80
72
63
55
44
36
25
19
15
11
10
6
3
0
-4
-9
-10
-10
-7
-7
-8
-10
-13
-15
-12
-10
-8
-5
-8
-5
-4
-7
-8
-5
-5
3
2
3
-3
-7
-9
-10
-11
-7
-10
-12
-11
-13
-14
-13
-13
-9
-11
-14
-16
-18
-21
-19
-17
-16
-14
-17
-17
-20
-21
-24
-23
-22
-20
-16
-18
-18
-19
-20
-18
-15
-11
-8
-7
-7
-6
-6
-4
1
5
5
3
-1
-7
-13
-16
-17
-17
-15
-17
-18
-19
-25
-28
-26
-24
-24
-21
-22
-21
-23
-24
-25
-25
-22
-20
-21
-21
-23
-27
-25
-23
-16
-7
5
21
27
69
93
101
69
7
-69
-137
-183
-212
-223
-219
-199
-166
-124
-78
-40
-16
-2
2
5
11
17
20
22
23
24
26
29
33
35
40
43
43
43
43
47
51
57
62
65
68
70
72
73
79
87
93
98
102
105
115
120
127
132
141
149
154
158
158
159
159
162
165
169
167
161
157
148
138
131
124
115
104
90
85
61
49
41
36
33
27
21
16
11
6
4
2
1
2
5
3
1
0
-1
-2
-2
-2
-2
1
2
1
-1
-1
2
5
7
7
5
1
-1
-2
3
6
7
6
5
0
0
-5
-3
-2
1
2
0
1
-5
-8
-10
-9
-8
-5
-7
-9
-12
-13
-12
-9
-6
-6
-10
-16
-15
-14
-14
-11
-5
-3
2
5
4
12
12
11
8
9
8
2
-2
-6
-13
-12
-12
-10
-9
-9
-13
-19
-24
-23
-24
-22
-21
-19
-22
-23
-25
-24
-23
-20
-20
-18
-17
-17
-18
-20
-16
-11
-4
5
22
40
67
87
103
96
55
-15
-89
-150
-166
-213
-224
-215
-195
-161
-121
-80
-44
-19
-4
6
10
17
21
26
30
33
32
31
31
32
39
41
41
43
44
45
50
54
60
62
65
65
66
73
79
84
89
95
99
105
108
114
122
128
137
143
148
148
151
155
157
161
163
166
166
168
166
162
159
152
144
139
131
120
109
98
83
72
61
53
48
42
37
36
29
22
16
11
9
9
8
5
1
-2
-1
1
4
4
4
4
1
1
1
4
8
9
14
12
11
11
8
6
6
7
10
10
9
8
3
0
1
1
2
4
3
1
-3
-3
-4
-2
-3
-1
-2
-1
-5
-8
-8
-8
-7
-6
-8
-7
-10
-13
-15
-12
-8
-6
-3
-4
-8
-14
-16
-15
-13
-10
-6
-8
-8
-12
-10
-5
-2
5
5
9
10
10
8
9
10
13
11
9
4
-2
-8
-11
-11
-8
-8
-10
-11
-12
-18
-21
-22
-22
-18
-19
-17
-17
-16
-19
-20
-17
-17
-13
-14
-12
-15
-15
-13
-12
-7
4
22
42
51
89
105
103
64
-8
-85
-152
-191
-212
-216
-207
-187
-155
-110
-66
-31
-7
6
11
14
17
23
28
30
31
29
29
31
34
39
40
43
45
44
45
46
53
58
61
65
65
69
70
71
77
82
89
94
100
102
108
110
118
124
131
140
143
145
144
144
143
146
151
156
157
156
152
151
144
141
138
132
125
118
115
93
80
71
63
55
50
41
32
26
17
13
9
6
6
7
6
4
1
-2
-4
-2
2
0
0
0
-5
-4
-6
-2
-2
-1
0
-1
-1
-4
-5
-4
-1
1
-1
-1
-2
-4
-8
-6
-4
-4
-2
-5
-6
-6
-9
-10
-9
-9
-9
-9
-13
-13
-18
-20
-21
-22
-18
-20
-20
-19
-22
-24
-22
-20
-19
-15
-16
-15
-19
-22
-19
-20
-19
-17
-18
-19
-20
-19
-18
-18
-18
-16
-14
-15
-15
-17
-20
-18
-12
-8
0
1
2
0
2
2
3
6
7
4
1
-6
-12
-13
-13
-10
-7
-8
-11
-14
-17
-22
-22
-20
-18
-14
-18
-19
-18
-18
-16
-14
-14
-14
-13
-13
-12
-16
-19
-15
-9
-2
8
20
37
60
86
108
114
91
40
-28
-49
-136
-160
-170
-164
-142
-111
-72
-38
-16
-2
2
9
15
21
26
24
26
25
27
30
33
38
45
44
43
46
44
48
51
56
60
63
67
69
69
71
77
82
89
97
102
104
107
110
117
124
130
138
141
143
145
146
147
149
151
154
153
149
142
135
128
121
115
110
101
89
80
66
57
51
43
41
31
26
23
16
13
9
7
7
10
11
10
7
6
6
7
5
7
7
6
8
7
8
9
10
14
13
15
16
11
6
1
0
1
3
2
1
0
-1
-3
-3
-3
-4
-1
-3
-5
-7
-7
-7
-7
-5
-5
-6
-8
-6
-5
-2
-2
-2
-4
-7
-9
-9
-9
-13
-14
-16
-15
-12
-11
-11
-12
-15
-15
-15
-11
-8
-7
-8
-8
-12
-16
-13
-11
-7
-8
-10
-12
-17
-19
-20
-19
-14
-12
-14
-14
-15
-16
-16
-13
-10
-9
-5
-6
-3
-1
3
7
11
14
21
17
18
12
7
5
2
2
-1
-6
-7
-8
-9
-10
-11
-12
-10
-11
-12
-9
-9
-13
-14
-18
-14
-14
-16
-15
-16
-15
-15
-14
-14
-11
-8
-6
0
10
26
51
80
107
120
117
25
-59
-130
-176
-197
-202
-200
-184
-160
-122
-79
-39
-8
10
20
22
23
24
26
26
30
31
37
38
39
43
44
47
50
54
54
58
55
59
61
65
69
73
80
87
91
96
102
100
105
111
119
125
133
136
142
144
150
155
159
163
166
166
165
159
157
156
152
152
145
136
126
114
102
92
82
74
65
56
51
33
25
20
19
17
18
15
11
9
4
2
6
4
3
5
4
3
1
0
1
3
4
8
8
7
7
7
6
7
6
5
5
6
4
0
2
3
0
5
1
-1
0
1
0
1
-3
-7
-7
-8
-7
-11
-13
-13
-11
-9
-6
-7
-11
-13
-19
-17
-16
-15
-12
-13
-16
-15
-16
-16
-15
-13
-15
-13
-15
-14
-19
-20
-20
-20
-17
-17
-16
-17
-18
-21
-22
-20
-19
-19
-17
-21
-18
-19
-19
-21
-20
-18
-14
-16
-18
-18
-20
-21
-16
-11
-5
-2
-2
1
2
4
5
5
4
3
-1
-4
-10
-15
-17
-14
-11
-9
-14
-15
-18
-23
-26
-25
-24
-21
-21
-21
-22
-21
-22
-23
-21
-20
-20
-21
-22
-21
-22
-19
-15
-7
1
13
18
56
85
112
119
85
13
-70
-144
-194
-216
-223
-212
-185
-145
-99
-57
-25
-6
2
7
11
17
23
27
28
30
29
30
31
36
38
41
44
43
45
48
51
57
62
67
71
74
75
78
82
87
92
93
100
102
104
106
113
123
132
140
149
154
156
159
162
166
170
172
174
173
170
166
163
159
151
141
132
122
119
97
82
68
57
48
43
37
30
22
15
11
7
6
5
5
4
3
2
-1
-5
-8
-5
-3
1
1
0
-4
-6
-6
-1
0
6
4
3
-1
-5
-7
-5
0
3
2
4
0
-6
-8
-7
-7
-5
-7
-8
-13
-14
-17
-15
-15
-15
-17
-15
-17
-20
-21
-23
-20
-20
-16
-19
-17
-22
-27
-28
-27
-24
-23
-25
-26
-30
-31
-33
-32
-32
-31
-31
-31
-31
-32
-33
-32
-32
-30
-29
-27
-27
-32
-37
-37
-35
-32
-31
-29
-29
-33
-32
-33
-30
-27
-26
-27
-28
-30
-29
-30
-28
-26
-27
-25
-28
-24
-22
-20
-19
-17
-10
-3
2
4
6
9
7
6
2
-3
-9
-12
-16
-16
-19
-18
-20
-22
-22
-22
-25
-30
-35
-33
-31
-26
-24
-25
-27
-26
-26
-27
-29
-28
-27
-25
-23
-24
-20
-20
-14
-4
16
39
68
94
105
84
26
-52
-127
-184
-218
-226
-235
-225
-199
-158
-111
-64
-27
-4
3
4
4
6
12
20
26
27
31
32
30
30
32
35
39
40
39
43
46
46
49
57
62
66
68
70
72
77
81
86
91
102
105
110
113
119
125
130
136
142
146
147
150
149
151
154
152
154
153
151
144
140
132
124
112
98
85
70
57
42
33
25
18
13
11
6
4
-5
-11
-13
-15
-15
-12
-10
-11
-15
-18
-19
-18
-14
-12
-12
-13
-15
-13
-15
-14
-11
-12
-8
-11
-12
-13
-14
-15
-15
-14
-13
-13
-16
-17
-18
-22
-19
-22
-21
-24
-26
-25
-29
-31
-30
-29
-28
-26
-25
-23
-27
-27
-28
-30
-27
-29
-30
-30
-28
-29
-31
-36
-33
-33
-29
-28
-30
-30
-32
-34
-32
-32
-29
-26
-27
-25
-30
-33
-31
-29
-28
-25
-25
-25
-22
-20
-19
-18
-14
-8
-5
-6
-5
-10
-9
-12
-14
-17
-18
-20
-22
-23
-25
-27
-29
-29
-28
-31
-32
-34
-37
-37
-37
-34
-34
-32
-30
-30
-29
-30
-27
-27
-28
-27
-26
-27
-26
-22
-12
1
17
40
63
95
114
113
79
20
-46
-99
-138
-164
-184
-189
-180
-154
-116
-75
-39
-29
-8
-5
-5
1
5
12
18
20
20
20
19
21
27
29
32
31
30
30
33
31
35
42
46
49
51
53
58
62
66
71
76
82
86
89
93
97
103
110
115
123
127
131
133
135
136
140
144
150
150
149
142
135
130
127
123
119
109
101
93
80
69
58
47
41
34
28
23
17
10
2
-1
-3
-6
-4
-3
-6
-7
-11
-12
-12
-10
-7
-8
-10
-12
-14
-13
-10
-7
-7
-6
-8
-10
-13
-12
-10
-11
-8
-8
-10
-10
-12
-14
-16
-14
-13
-15
-15
-19
-21
-24
-24
-20
-17
-17
-19
-24
-27
-31
-31
-29
-29
-28
-25
-24
-25
-26
-31
-29
-29
-31
-30
-31
-31
-31
-31
-30
-28
-26
-27
-25
-28
-26
-29
-32
-32
-33
-31
-29
-27
-30
-31
-34
-32
-31
-27
-23
-22
-20
-22
-22
-21
-16
-13
-9
-4
-4
-6
-10
-14
-16
-20
-23
-23
-25
-25
-27
-27
-28
-31
-30
-29
-33
-35
-40
-38
-38
-35
-35
-34
-33
-35
-34
-34
-33
-28
-27
-25
-26
-24
-22
-17
-5
16
43
76
103
110
82
14
-66
-134
-178
-204
-214
-217
-210
-187
-155
-113
-76
-42
-20
-6
-3
3
6
8
10
15
18
24
28
30
27
29
27
28
31
37
45
45
47
49
51
54
57
59
62
64
72
74
81
86
90
98
103
113
117
123
127
131
138
146
153
160
162
164
163
164
168
167
169
169
168
162
153
145
135
128
118
107
96
83
71
59
51
43
35
31
23
15
11
4
0
-1
-3
-3
-4
-4
-7
-9
-9
-11
-9
-7
-5
-7
-8
-8
-7
-5
-3
-2
-2
0
-4
-5
-7
-8
-8
-7
-6
-4
-4
-9
-11
-13
-13
-11
-8
-7
-8
-12
-17
-20
-23
-21
-21
-18
-16
-19
-19
-21
-23
-24
-22
-20
-20
-21
-23
-27
-27
-27
-23
-21
-21
-21
-23
-24
-28
-28
-29
-29
-26
-24
-23
-25
-30
-32
-32
-32
-30
-28
-26
-27
-28
-29
-31
-28
-27
-24
-24
-25
-27
-28
-29
-26
-22
-17
-12
-14
-12
-10
-8
-4
-3
-3
-3
-1
-10
-15
-22
-24
-22
-21
-20
-21
-26
-29
-31
-34
-34
-36
-33
-30
-33
-31
-34
-35
-34
-34
-33
-32
-31
-32
-35
-35
-32
-26
-18
-6
13
34
62
85
95
70
3
-81
-156
-208
-235
-243
-233
-207
-168
-119
-73
-60
-19
-12
-7
-4
3
9
15
17
17
18
20
19
23
30
28
32
34
34
36
39
45
47
52
58
60
62
63
66
71
77
84
92
96
100
103
105
113
118
124
131
139
143
144
150
149
148
151
155
154
155
152
146
141
131
124
113
101
91
80
66
54
41
30
25
19
15
8
2
-8
-15
-17
-17
-14
-15
-16
-17
-19
-23
-25
-28
-25
-23
-22
-22
-23
-25
-23
-21
-18
-17
-13
-13
-14
-15
-20
-20
-22
-18
-16
-16
-18
-20
-23
-24
-24
-22
-24
-27
-27
-28
-30
-30
-30
-29
-27
-28
-29
-30
-33
-33
-31
-33
-30
-29
-29
-32
-34
-36
-34
-32
-29
-29
-27
-31
-34
-36
-38
-36
-33
-35
-31
-33
-35
-36
-38
-36
-38
-35
-32
-30
-29
-27
-29
-28
-25
-21
-19
-14
-14
-11
-13
-12
-15
-12
-12
-14
-20
-24
-30
-32
-29
-30
-28
-30
-29
-35
-36
-37
-34
-34
-35
-37
-38
-37
-36
-39
-42
-40
-37
-33
-30
-31
-30
-32
-35
-32
-26
-17
-3
2
33
60
91
114
113
77
16
-51
-109
-147
-175
-187
-194
-183
-160
-125
-84
-51
-32
-21
-13
-7
-2
3
4
8
9
11
12
14
18
20
23
24
25
25
27
32
34
42
46
46
48
50
55
58
65
70
77
79
86
90
95
99
106
112
119
127
128
131
132
135
138
142
143
144
144
141
135
132
125
120
113
107
104
86
71
59
48
40
32
26
20
12
5
1
-4
-7
-9
-11
-11
-12
-14
-16
-18
-19
-18
-16
-13
-14
-16
-18
-18
-16
-14
-13
-11
-10
-9
-11
-14
-19
-17
-15
-13
-14
-12
-14
-16
-17
-17
-19
-21
-22
-21
-23
-24
-24
-25
-28
-26
-26
-25
-25
-28
-31
-36
-36
-32
-33
-29
-31
-32
-33
-35
-36
-35
-32
-30
-29
-33
-35
-36
-36
-32
-32
-31
-30
-30
-34
-34
-36
-33
-32
-31
-28
-29
-32
-33
-37
-35
-29
-24
-20
-18
-16
-14
-13
-12
-13
-14
-15
-18
-24
-29
-35
-33
-35
-33
-32
-33
-36
-37
-40
-42
-42
-41
-40
-36
-34
-33
-36
-40
-43
-41
-36
-34
-36
-41
-44
-44
-40
-31
-22
-6
12
38
70
98
108
85
26
-51
-119
-136
-194
-207
-215
-214
-193
-160
-114
-72
-35
-17
-8
-4
-5
-1
3
8
12
12
12
11
14
16
18
25
26
26
28
29
31
33
37
40
45
47
53
56
59
63
69
77
86
90
94
100
103
108
115
121
129
131
139
141
143
142
143
148
148
149
147
144
140
134
126
119
112
103
90
80
64
54
44
37
29
23
21
11
5
-3
-7
-8
-10
-9
-12
-13
-16
-18
-17
-17
-14
-9
-10
-12
-13
-12
-14
-12
-10
-9
-8
-7
-10
-9
-14
-14
-18
-16
-13
-12
-13
-16
-17
-19
-18
-17
-16
-12
-15
-16
-16
-19
-22
-23
-23
-21
-20
-24
-25
-26
-26
-26
-25
-24
-24
-25
-26
-32
-30
-32
-30
-30
-27
-27
-27
-30
-29
-30
-27
-28
-29
-30
-34
-34
-35
-31
-27
-29
-29
-29
-29
-31
-31
-30
-25
-22
-19
-16
-15
-13
-10
-9
-7
-6
-6
-5
-6
-14
-19
-26
-29
-29
-26
-22
-23
-29
-34
-38
-41
-43
-41
-35
-32
-33
-33
-37
-39
-38
-37
-34
-32
-32
-29
-31
-31
-31
-28
-26
-21
-13
-2
16
37
64
95
116
111
71
-1
-78
-139
-179
-202
-208
-203
-184
-174
-109
-69
-34
-13
-5
0
4
6
10
15
16
17
19
19
23
29
32
33
35
34
35
38
44
48
50
58
59
58
60
66
74
81
86
87
88
90
96
102
111
117
128
134
137
142
143
147
152
155
159
160
156
156
152
149
148
146
142
138
127
114
98
84
74
65
58
48
40
32
24
15
7
5
2
4
2
-4
-6
-8
-12
-10
-11
-7
-6
-5
-6
-8
-6
-6
-5
-4
-5
-6
-8
-7
-5
-8
-7
-9
-8
-7
-7
-6
-7
-8
-7
-7
-5
-7
-9
-10
-12
-12
-14
-12
-15
-12
-13
-16
-18
-21
-21
-20
-18
-16
-17
-20
-20
-21
-20
-20
-24
-23
-22
-24
-27
-30
-31
-33
-32
-29
-28
-29
-27
-27
-31
-30
-31
-29
-29
-27
-28
-31
-31
-33
-29
-30
-28
-26
-25
-26
-28
-31
-27
-27
-26
-24
-25
-25
-24
-22
-19
-14
-10
-6
-5
-4
-5
-10
-13
-16
-17
-19
-21
-25
-25
-27
-28
-31
-32
-31
-28
-29
-31
-32
-34
-32
-26
-24
-18
-15
-9
-5
0
5
13
21
29
35
40
46
48
52
62
78
105
143
185
227
248
236
179
105
42
0
-10
-60
-88
-99
-94
-77
-55
-36
-24
-21
-20
-24
-27
-26
-25
-21
-18
-16
-20
-23
-25
-23
-21
-19
-15
-14
-16
-17
-17
-18
-16
-13
-11
-9
-8
-10
-8
-7
-6
-1
1
4
2
-2
-4
-3
1
7
11
17
19
19
14
15
16
22
25
30
34
35
35
33
30
29
26
24
22
19
15
6
-1
-4
-8
-6
-6
-5
-6
-8
-10
-15
-12
-15
-10
-11
-11
-12
-14
-17
-14
-16
-15
-13
-13
-13
-13
-15
-18
-16
-15
-9
-8
-9
-11
-12
-17
-17
-17
-17
-15
-16
-19
-18
-20
-21
-18
-17
-13
-14
-19
-25
-28
-28
-25
-22
-23
-22
-27
-27
-29
-29
-27
-26
-23
-21
-20
-20
-22
-23
-22
-23
-19
-20
-21
-23
-25
-28
-31
-27
-23
-20
-18
-22
-27
-31
-35
-36
-34
-30
-26
-26
-28
-28
-29
-28
-27
-22
-19
-19
-21
-21
-24
-25
-22
-18
-16
-15
-14
-12
-10
-8
-6
-2
0
0
-1
-4
-12
-15
-18
-19
-19
-15
-15
-15
-20
-25
-28
-31
-26
-24
-22
-15
-12
-10
-5
0
9
17
27
32
36
43
44
49
56
64
74
88
108
140
178
225
259
260
214
193
71
20
-17
-47
-69
-76
-68
-47
-28
-13
-9
-9
-12
-11
-4
-2
3
-1
-8
-12
-14
-12
-7
-5
-3
-3
-3
-6
-5
-6
-3
1
6
8
8
7
6
3
5
8
13
15
19
19
21
23
26
32
35
37
38
39
39
42
42
48
51
56
58
59
59
56
55
53
54
52
48
41
33
26
21
19
16
11
9
7
5
2
-1
-2
-3
0
0
1
-2
-1
-3
-4
-1
2
5
2
-1
-3
-4
-3
-2
-3
-3
-2
-2
-2
-3
-4
-6
-4
-5
-4
-4
-4
-6
-8
-9
-9
-9
-8
-10
-12
-12
-16
-17
-17
-17
-16
-15
-13
-13
-17
-22
-21
-19
-17
-14
-14
-15
-19
-21
-21
-20
-18
-19
-19
-18
-20
-20
-22
-19
-19
-16
-15
-15
-15
-17
-21
-23
-25
-22
-22
-21
-20
-20
-22
-25
-23
-24
-19
-20
-18
-18
-18
-21
-22
-20
-19
-18
-14
-13
-14
-13
-7
-5
-2
-1
1
2
4
5
7
5
4
-2
-6
-10
-14
-14
-15
-14
-14
-16
-16
-19
-21
-21
-19
-19
-15
-10
-5
-4
0
2
7
13
24
33
42
48
51
57
60
68
81
99
126
135
203
242
249
215
144
62
0
-34
-60
-75
-85
-81
-65
-40
-19
-3
2
2
-2
-4
-4
-3
-3
2
4
7
7
6
1
4
4
8
11
11
10
8
8
5
5
9
14
17
18
19
19
18
20
24
28
30
34
37
39
40
43
47
53
59
60
61
63
64
65
65
69
71
72
72
65
61
53
48
46
42
40
28
21
14
10
8
7
5
6
3
2
0
-2
-4
-6
-2
0
0
0
-3
-4
-2
-3
1
3
4
-1
-4
-7
-8
-6
-4
-1
0
-1
-2
-6
-8
-8
-6
-6
-4
-6
-10
-11
-14
-13
-14
-13
-12
-11
-12
-12
-15
-18
-19
-18
-16
-16
-17
-17
-19
-18
-18
-21
-21
-24
-21
-23
-25
-23
-27
-26
-24
-24
-22
-24
-25
-27
-29
-28
-28
-25
-23
-24
-24
-26
-30
-30
-29
-27
-23
-25
-24
-23
-24
-25
-27
-23
-25
-26
-30
-30
-32
-31
-32
-31
-32
-27
-26
-27
-28
-27
-28
-25
-20
-16
-12
-12
-10
-9
-7
-5
-2
0
-1
0
-3
-10
-16
-21
-20
-18
-18
-17
-17
-19
-25
-23
-27
-22
-17
-14
-14
-17
-19
-18
-12
-4
6
11
18
24
31
35
39
44
53
59
66
76
92
115
146
186
222
250
236
183
112
49
5
-22
-48
-72
-77
-88
-75
-53
-33
-20
-13
-12
-13
-12
-12
-13
-15
-13
-10
-9
-8
-5
-7
-6
-7
-6
-9
-6
-5
-4
0
-2
-4
-7
-5
-4
2
-1
0
4
2
1
2
5
8
12
15
15
15
17
21
23
25
29
31
35
32
31
34
34
37
39
39
40
36
33
29
24
20
18
16
14
12
10
3
-3
-6
-9
-8
-7
-10
-13
-16
-18
-19
-15
-11
-11
-9
-9
-11
-12
-14
-12
-10
-7
-4
-2
-6
-6
-11
-10
-9
-10
-8
-10
-13
-13
-14
-15
-15
-11
-10
-10
-10
-14
-19
-18
-17
-15
-12
-11
-13
-20
-23
-24
-26
-24
-22
-21
-18
-18
-21
-22
-24
-24
-19
-19
-20
-21
-21
-23
-26
-25
-24
-21
-18
-16
-19
-23
-22
-22
-21
-21
-20
-21
-23
-22
-24
-26
-24
-22
-19
-16
-15
-13
-12
-10
-6
-3
3
9
11
12
11
7
1
-3
-7
-8
-11
-13
-10
-13
-18
-18
-19
-17
-15
-16
-14
-14
-12
-8
-2
4
8
10
16
18
22
25
33
37
40
48
51
55
63
75
97
126
164
206
244
260
242
186
122
67
29
-3
-39
-66
-81
-76
-59
-39
-18
-13
-2
-3
-2
-1
-2
-2
-1
-1
1
-2
-6
-9
-10
-7
-4
-1
1
1
1
-2
-4
-1
2
6
8
9
7
6
5
5
9
11
16
18
19
19
20
21
25
29
33
37
39
42
44
44
47
51
55
55
61
59
56
58
56
53
50
45
43
37
30
23
16
11
8
6
8
6
3
-1
-1
-3
-2
-1
1
0
0
0
-3
-4
-1
2
5
8
8
6
1
1
4
6
5
3
0
1
1
0
-1
-1
-1
1
2
1
0
-5
-7
-8
-7
-4
-2
-4
-8
-10
-11
-11
-10
-6
-6
-7
-10
-10
-11
-9
-6
-7
-8
-10
-12
-10
-11
-15
-14
-14
-10
-10
-10
-13
-18
-18
-15
-13
-15
-14
-14
-17
-16
-16
-18
-15
-16
-15
-13
-12
-11
-14
-17
-17
-17
-15
-13
-12
-13
-14
-13
-9
-7
-1
3
7
7
6
5
4
3
7
5
2
-2
-5
-10
-14
-12
-12
-10
-11
-14
-15
-17
-17
-13
-12
-6
-1
2
4
6
3
8
15
25
28
41
48
50
55
59
68
81
99
121
154
196
234
252
241
186
114
50
6
-28
-55
-76
-82
-72
-47
-39
-5
4
3
-1
-7
-6
-2
1
1
1
0
2
0
1
1
4
6
7
7
6
4
7
6
10
11
15
15
13
15
15
16
15
16
18
20
21
23
26
28
33
39
43
44
47
47
48
48
50
55
56
61
61
60
58
56
57
60
56
55
49
44
36
30
26
24
21
21
18
13
6
0
-2
-1
2
3
1
-3
-5
-9
-9
-7
-5
-2
0
-3
-6
-8
-11
-10
-8
-2
-1
-1
-3
-7
-6
-8
-7
-6
-5
-6
-8
-11
-11
-12
-10
-8
-4
-3
-3
-7
-9
-15
-18
-14
-12
-10
-9
-11
-14
-18
-17
-16
-15
-16
-15
-17
-17
-23
-24
-23
-23
-21
-20
-18
-20
-20
-23
-23
-20
-20
-19
-19
-21
-22
-24
-26
-26
-21
-20
-16
-16
-19
-17
-22
-22
-26
-23
-22
-25
-23
-26
-25
-24
-25
-20
-22
-18
-19
-18
-19
-21
-17
-12
-10
-3
-1
-1
2
2
4
3
2
1
-2
-4
-11
-16
-18
-21
-16
-14
-14
-18
-24
-28
-27
-27
-21
-19
-13
-9
-9
-6
-5
0
8
19
28
31
34
33
38
41
50
61
70
85
105
138
178
220
250
242
234
128
57
6
-31
-59
-81
-88
-74
-53
-30
-13
-10
-9
-12
-10
-6
-5
-6
-6
-8
-6
-5
-4
-1
0
1
0
-2
-3
-2
-1
2
4
3
4
2
5
5
5
10
12
16
16
17
20
20
21
25
28
31
35
37
39
40
40
44
47
51
51
53
53
53
52
53
50
48
46
43
37
30
20
12
10
7
5
3
2
-3
-7
-8
-10
-9
-8
-6
-7
-9
-11
-14
-13
-15
-13
-11
-9
-9
-7
-10
-11
-11
-10
-9
-6
-6
-7
-7
-7
-7
-12
-13
-11
-11
-9
-11
-14
-17
-19
-16
-15
-20
-21
-21
-23
-23
-22
-20
-21
-19
-19
-20
-22
-24
-25
-24
-24
-21
-22
-20
-22
-27
-30
-33
-32
-29
-26
-24
-26
-29
-32
-31
-30
-28
-27
-25
-26
-27
-25
-24
-23
-24
-24
-25
-27
-30
-31
-32
-32
-29
-30
-28
-27
-27
-29
-30
-32
-29
-30
-25
-25
-26
-27
-28
-27
-26
-22
-17
-18
-19
-20
-22
-20
-16
-9
-3
1
0
1
-5
-8
-10
-11
-12
-13
-15
-18
-20
-21
-24
-26
-24
-23
-21
-24
-25
-25
-23
-18
-15
-12
-6
-1
4
9
15
22
27
29
45
51
55
62
69
88
111
147
189
232
252
225
155
72
6
-32
-59
-78
-91
-91
-73
-47
-23
-9
-6
-2
-6
-5
-6
-7
-5
-3
-2
-1
0
0
-2
-5
-6
-5
2
3
3
4
5
2
4
10
11
12
13
14
17
17
20
22
26
27
33
35
34
34
37
39
42
48
52
56
55
57
56
54
56
60
63
68
64
59
50
45
39
35
28
25
19
14
13
8
1
-2
-2
-4
-3
-6
-5
-6
-9
-7
-6
-7
-4
-3
-5
-8
-11
-13
-12
-11
-6
-7
-5
-8
-11
-12
-12
-11
-6
-3
-5
-8
-12
-16
-16
-14
-13
-10
-12
-16
-20
-17
-19
-19
-17
-17
-16
-21
-22
-26
-27
-23
-25
-28
-26
-24
-26
-27
-31
-33
-32
-30
-27
-27
-29
-33
-36
-38
-35
-34
-32
-31
-34
-36
-37
-37
-36
-35
-32
-31
-32
-37
-39
-40
-39
-39
-37
-36
-36
-35
-35
-39
-36
-35
-35
-34
-35
-36
-38
-36
-37
-38
-37
-37
-36
-37
-41
-40
-39
-36
-35
-34
-28
-27
-27
-29
-29
-23
-17
-12
-9
-11
-12
-16
-21
-24
-28
-29
-28
-28
-29
-31
-40
-42
-45
-45
-44
-42
-41
-42
-42
-45
-44
-45
-42
-41
-40
-38
-42
-42
-42
-39
-34
-34
-33
-34
-29
-20
-7
12
43
53
105
109
68
-3
-89
-152
-192
-210
-214
-205
-184
-154
-115
-76
-43
-23
-9
-4
-2
-2
-3
1
5
4
5
11
14
16
18
20
19
23
27
30
31
33
35
37
41
43
50
53
58
60
65
68
75
80
86
89
98
104
110
114
116
120
125
134
139
144
143
140
135
137
137
140
140
139
131
125
116
106
97
87
84
68
53
42
30
21
13
8
3
-2
-2
-8
-13
-17
-21
-21
-21
-20
-20
-24
-22
-22
-25
-26
-23
-22
-19
-17
-15
-17
-22
-26
-25
-20
-18
-17
-19
-22
-24
-25
-23
-22
-20
-22
-21
-23
-26
-25
-25
-27
-28
-29
-30
-29
-31
-33
-35
-36
-34
-32
-32
-31
-33
-34
-34
-33
-35
-35
-35
-38
-39
-40
-39
-40
-38
-38
-38
-38
-41
-42
-44
-42
-40
-37
-35
-33
-39
-41
-41
-43
-40
-38
-37
-35
-35
-34
-36
-37
-41
-39
-38
-35
-32
-31
-32
-32
-33
-31
-25
-19
-17
-14
-16
-15
-16
-14
-16
-17
-19
-24
-28
-31
-32
-34
-32
-32
-35
-38
-42
-46
-47
-44
-42
-39
-36
-36
-37
-40
-43
-44
-43
-40
-36
-35
-32
-33
-36
-34
-29
-20
-18
11
34
63
91
108
105
70
4
-65
-119
-154
-178
-194
-205
-198
-173
-134
-92
-52
-29
-14
-8
-3
0
2
9
12
12
15
16
15
18
21
25
27
29
29
26
30
35
41
44
45
48
50
51
56
60
66
70
82
85
93
97
101
104
112
121
127
134
138
139
140
145
148
153
154
157
156
155
153
149
145
138
137
126
116
106
93
79
67
58
49
43
35
30
20
10
2
-2
-4
-6
-8
-12
-13
-19
-23
-22
-21
-20
-16
-14
-16
-17
-18
-19
-17
-12
-11
-10
-11
-8
-12
-16
-17
-18
-14
-11
-12
-14
-16
-17
-18
-19
-18
-18
-18
-21
-21
-25
-28
-27
-28
-27
-25
-26
-27
-28
-30
-31
-31
-30
-30
-29
-33
-34
-35
-36
-36
-37
-31
-30
-31
-35
-37
-38
-37
-38
-37
-33
-34
-35
-36
-35
-34
-33
-31
-30
-32
-37
-38
-41
-39
-37
-35
-34
-34
-35
-37
-39
-37
-36
-34
-31
-28
-25
-22
-22
-22
-14
-9
-7
-4
-5
-6
-7
-12
-14
-17
-20
-22
-25
-29
-31
-34
-38
-39
-37
-36
-34
-32
-30
-27
-28
-22
-14
-9
-2
5
9
14
18
24
32
36
48
50
57
68
86
112
148
193
233
242
210
143
67
8
-30
-55
-79
-95
-97
-84
-64
-44
-27
-20
-17
-17
-14
-18
-16
-14
-16
-14
-16
-15
-11
-12
-9
-13
-13
-12
-8
-6
-3
-1
-4
-3
-3
-4
-2
-2
0
2
-1
2
3
5
10
12
17
20
22
26
29
31
31
33
36
39
43
43
41
40
43
44
44
48
47
45
39
30
24
18
16
14
10
4
0
-5
-9
-12
-13
-12
-12
-13
-16
-19
-24
-25
-23
-21
-18
-18
-17
-18
-19
-19
-17
-14
-13
-12
-17
-22
-25
-27
-26
-22
-21
-20
-20
-19
-21
-22
-21
-20
-19
-17
-16
-20
-23
-27
-27
-27
-27
-27
-24
-26
-27
-27
-29
-30
-27
-28
-30
-29
-28
-29
-31
-34
-35
-34
-33
-33
-35
-34
-36
-37
-38
-36
-35
-35
-36
-38
-40
-40
-40
-39
-37
-34
-35
-34
-35
-37
-38
-37
-36
-33
-33
-30
-33
-34
-37
-38
-37
-34
-31
-34
-34
-39
-41
-40
-37
-35
-31
-31
-29
-31
-29
-28
-24
-21
-14
-10
-8
-8
-9
-11
-10
-16
-19
-24
-27
-26
-27
-29
-29
-30
-30
-31
-29
-32
-30
-33
-32
-27
-24
-14
-9
-3
0
8
15
25
32
41
49
52
56
62
82
110
150
195
229
233
195
123
47
-11
-45
-55
-92
-103
-98
-80
-55
-35
-23
-17
-17
-18
-18
-18
-16
-16
-16
-14
-15
-13
-11
-11
-11
-14
-16
-12
-12
-6
-4
-5
-7
-11
-12
-8
-5
-2
2
3
3
1
-1
3
7
13
18
21
23
23
22
21
25
27
33
35
38
36
37
37
38
40
40
36
32
28
22
18
11
6
5
3
-1
-4
-11
-15
-17
-19
-19
-18
-20
-20
-23
-24
-24
-25
-23
-21
-19
-20
-19
-22
-23
-24
-24
-20
-20
-22
-20
-23
-23
-26
-25
-25
-23
-21
-23
-24
-26
-27
-27
-29
-27
-27
-29
-29
-30
-35
-36
-37
-36
-33
-33
-35
-38
-39
-41
-41
-41
-39
-37
-38
-37
-39
-40
-40
-41
-39
-38
-36
-37
-40
-42
-41
-40
-39
-37
-39
-40
-41
-45
-46
-44
-43
-37
-35
-36
-39
-43
-47
-46
-45
-43
-39
-42
-41
-42
-45
-42
-40
-41
-39
-37
-37
-38
-39
-37
-33
-32
-27
-23
-23
-21
-23
-21
-22
-20
-18
-19
-21
-23
-30
-36
-37
-32
-32
-33
-38
-42
-44
-43
-42
-37
-35
-32
-28
-29
-23
-19
-15
-7
-2
6
13
17
22
25
29
34
43
55
75
101
140
186
228
243
211
195
83
26
-20
-58
-84
-95
-90
-70
-45
-28
-23
-21
-26
-29
-28
-26
-25
-23
-22
-22
-21
-23
-24
-21
-21
-16
-14
-14
-15
-16
-18
-15
-16
-14
-10
-8
-9
-8
-8
-7
-5
1
5
6
7
6
5
4
5
6
13
19
20
23
22
22
27
27
29
32
34
33
33
30
25
23
22
19
12
7
2
-1
-6
-5
-6
-11
-10
-11
-8
-11
-16
-22
-23
-22
-19
-18
-18
-18
-21
-17
-16
-15
-13
-11
-10
-11
-13
-12
-13
-13
-11
-12
-15
-21
-23
-25
-22
-19
-18
-15
-16
-18
-23
-24
-25
-22
-21
-17
-18
-19
-22
-22
-25
-26
-27
-27
-25
-26
-29
-33
-33
-30
-30
-29
-28
-28
-27
-29
-28
-27
-23
-22
-24
-22
-21
-26
-32
-38
-36
-34
-30
-26
-26
-29
-34
-34
-32
-31
-29
-24
-23
-23
-26
-27
-28
-22
-20
-19
-24
-25
-27
-28
-27
-25
-25
-27
-28
-27
-26
-26
-30
-30
-26
-23
-18
-14
-12
-15
-16
-14
-12
-7
-2
0
0
-1
-5
-11
-17
-20
-21
-22
-21
-20
-21
-23
-27
-30
-29
-27
-25
-21
-20
-15
-16
-16
-12
-3
4
11
15
19
27
32
35
47
54
57
64
76
91
117
150
189
227
237
203
133
55
-3
-39
-60
-83
-95
-96
-83
-61
-38
-23
-19
-12
-13
-13
-14
-13
-13
-14
-10
-9
-6
-4
-3
-5
-7
-8
-6
-4
-2
0
-2
-2
-4
-2
-2
-1
4
6
4
7
7
10
14
18
19
27
29
31
30
29
33
38
42
44
44
44
44
46
46
48
48
50
46
41
33
24
15
13
9
7
6
4
2
-3
-8
-14
-22
-24
-23
-20
-22
-23
-25
-26
-23
-22
-17
-17
-16
-20
-22
-24
-24
-22
-21
-18
-19
-20
-22
-23
-23
-20
-21
-20
-19
-20
-23
-26
-27
-30
-29
-29
-30
-28
-29
-30
-32
-36
-34
-32
-32
-29
-29
-31
-32
-34
-34
-34
-32
-33
-35
-37
-39
-40
-39
-37
-34
-32
-35
-38
-43
-44
-41
-42
-41
-41
-40
-41
-43
-43
-44
-43
-39
-38
-33
-35
-36
-39
-40
-41
-42
-38
-36
-37
-38
-41
-42
-43
-41
-37
-34
-32
-33
-37
-40
-37
-35
-31
-27
-19
-17
-16
-17
-19
-19
-20
-18
-19
-25
-30
-33
-36
-37
-36
-37
-38
-39
-38
-39
-41
-43
-47
-45
-43
-38
-37
-43
-46
-47
-45
-44
-37
-36
-37
-39
-40
-40
-37
-33
-26
-11
2
22
49
74
95
96
53
-11
-77
-129
-168
-192
-204
-203
-199
-149
-108
-69
-40
-21
-13
-11
-7
-6
-3
1
5
5
4
8
9
13
15
20
22
23
22
24
28
29
37
41
44
45
48
54
57
63
64
66
73
78
84
88
93
99
106
113
120
124
130
131
132
134
136
141
143
143
139
135
128
123
117
111
105
96
86
73
62
50
39
33
27
22
16
9
3
-4
-8
-9
-10
-10
-13
-17
-16
-19
-16
-16
-14
-17
-19
-22
-21
-24
-23
-21
-19
-17
-14
-14
-13
-17
-19
-16
-15
-16
-14
-16
-19
-19
-21
-22
-22
-23
-22
-22
-22
-23
-25
-27
-29
-29
-29
-24
-27
-28
-34
-37
-37
-36
-33
-29
-30
-29
-33
-35
-38
-37
-36
-34
-32
-33
-35
-34
-33
-35
-36
-38
-36
-37
-35
-36
-37
-37
-38
-37
-36
-36
-35
-38
-39
-36
-36
-35
-32
-31
-30
-33
-33
-36
-36
-35
-27
-21
-19
-20
-16
-13
-13
-13
-15
-13
-12
-15
-18
-23
-26
-29
-27
-25
-24
-25
-28
-33
-37
-38
-36
-33
-31
-29
-30
-27
-24
-19
-16
-3
6
10
17
20
24
29
34
40
49
58
74
94
122
158
201
231
235
194
126
55
4
-32
-58
-66
-91
-91
-74
-50
-31
-21
-18
-17
-18
-16
-12
-10
-12
-13
-16
-17
-16
-12
-10
-9
-9
-10
-10
-10
-8
-5
-4
-3
-5
-7
-5
-3
-2
0
0
2
4
7
11
10
12
14
20
26
30
34
31
30
30
32
39
44
46
47
46
46
46
48
49
52
51
48
43
34
25
19
13
12
7
4
-1
-7
-11
-15
-16
-13
-13
-14
-15
-18
-18
-21
-17
-15
-11
-12
-13
-15
-17
-19
-18
-16
-17
-15
-14
-12
-12
-12
-15
-17
-15
-14
-13
-12
-14
-16
-18
-14
-13
-10
-8
-10
-12
-18
-21
-23
-21
-20
-16
-19
-20
-22
-24
-23
-23
-22
-19
-18
-17
-20
-22
-27
-26
-25
-22
-18
-20
-23
-24
-29
-30
-24
-22
-19
-17
-17
-21
-26
-31
-30
-28
-23
-21
-22
-25
-28
-29
-29
-28
-24
-24
-25
-22
-25
-23
-23
-22
-20
-18
-21
-22
-23
-22
-21
-20
-15
-11
-6
-5
-6
-7
-4
-3
-1
4
6
-1
-6
-14
-18
-18
-16
-13
-12
-12
-16
-22
-26
-26
-25
-22
-16
-14
-12
-10
-9
-3
5
14
20
26
31
35
39
45
50
57
68
82
104
131
169
206
232
238
181
111
42
-12
-47
-73
-96
-94
-82
-56
-31
-14
-7
-9
-8
-9
-5
-2
0
1
0
-2
-1
-1
-2
0
3
7
6
4
4
3
7
10
8
9
7
8
10
8
13
13
20
22
25
26
26
30
31
31
35
39
43
47
49
53
56
55
57
59
61
65
65
63
63
66
64
62
57
51
45
40
31
29
27
22
20
18
14
9
3
-2
0
1
3
3
4
1
-1
-3
-2
-1
1
1
3
4
2
3
0
1
0
4
5
5
1
-2
-3
-1
2
4
5
2
2
-4
-5
-6
-7
-4
-3
-3
-4
-7
-8
-11
-11
-10
-7
-6
-6
-9
-13
-13
-12
-9
-8
-11
-14
-15
-16
-16
-15
-15
-13
-10
-10
-9
-12
-15
-18
-18
-15
-14
-13
-14
-14
-16
-16
-13
-15
-15
-13
-14
-15
-16
-17
-19
-17
-14
-12
-12
-14
-17
-16
-16
-17
-15
-14
-11
-9
-12
-17
-19
-18
-16
-11
-6
-4
-1
-1
3
4
6
9
14
13
14
5
-1
-5
-5
-6
-7
-5
-7
-8
-10
-16
-15
-12
-11
-11
-11
-10
-8
-5
-2
4
10
16
22
29
36
42
48
50
61
71
77
88
103
126
153
190
230
249
231
168
87
19
-23
-45
-61
-70
-69
-54
-30
-9
0
0
1
0
3
8
6
6
5
2
5
6
8
10
10
12
10
9
11
10
11
16
18
15
16
17
17
18
21
24
27
28
31
34
35
39
41
45
50
53
56
57
59
60
62
66
70
67
68
67
67
67
68
69
68
65
56
45
35
30
27
25
23
20
16
12
9
7
6
4
8
9
8
5
4
3
0
1
1
4
6
8
5
3
-1
2
3
3
4
3
6
7
5
1
1
2
4
5
5
1
-1
-1
-1
-1
1
1
-2
-5
-7
-7
-7
-7
-5
-4
-8
-8
-12
-11
-9
-10
-11
-8
-9
-10
-10
-11
-13
-14
-10
-10
-9
-9
-12
-15
-17
-17
-16
-14
-12
-13
-12
-14
-13
-15
-13
-11
-10
-9
-14
-17
-18
-18
-18
-14
-10
-8
-10
-14
-16
-17
-15
-15
-11
-10
-13
-13
-14
-14
-14
-14
-13
-10
-9
-12
-11
-10
-10
-10
-4
0
5
4
2
5
7
11
13
12
11
11
8
5
-1
-4
-9
-8
-7
-5
-7
-8
-15
-16
-18
-17
-15
-13
-14
-16
-18
-19
-17
-17
-13
-11
-13
-14
-16
-13
-13
-12
-9
-3
3
10
22
39
61
68
107
103
57
-18
-99
-163
-208
-225
-228
-212
-183
-144
-100
-56
-22
0
14
20
26
28
30
34
37
39
39
43
46
49
50
50
53
57
58
62
65
71
72
74
71
75
80
86
94
99
103
105
108
111
117
120
132
140
146
152
158
159
162
167
172
178
181
184
185
185
184
181
180
178
174
168
162
155
144
130
125
104
97
88
77
66
56
46
39
33
28
26
19
14
10
4
3
2
3
4
5
4
5
3
3
4
3
5
6
4
0
0
0
1
2
3
6
5
3
3
1
-2
-1
-3
0
0
-2
-4
-9
-9
-10
-8
-7
-8
-11
-14
-17
-18
-17
-17
-16
-13
-13
-14
-14
-17
-21
-20
-22
-19
-18
-21
-22
-28
-28
-29
-28
-27
-24
-24
-24
-27
-29
-30
-29
-25
-24
-23
-26
-27
-28
-29
-28
-28
-24
-23
-22
-23
-25
-27
-29
-30
-28
-27
-24
-21
-23
-25
-28
-27
-23
-22
-23
-25
-26
-28
-30
-27
-24
-24
-20
-17
-15
-17
-16
-14
-8
-2
0
3
5
3
0
-2
-2
-7
-9
-13
-16
-19
-21
-24
-22
-25
-25
-23
-24
-27
-30
-35
-36
-32
-30
-25
-26
-23
-26
-28
-28
-28
-24
-22
-17
-20
-18
-19
-15
-8
5
26
48
73
99
114
93
82
-28
-93
-140
-172
-189
-193
-185
-161
-122
-77
-37
-11
3
7
5
5
9
15
21
24
27
25
22
23
26
28
35
39
42
43
45
43
45
49
56
61
65
66
66
69
72
80
89
94
101
103
107
113
116
117
129
133
138
141
142
141
143
143
144
146
148
145
139
133
125
118
110
103
94
83
71
57
48
40
37
27
19
13
4
2
-2
-6
-7
-7
-9
-7
-6
-6
-8
-12
-15
-13
-11
-8
-6
-8
-7
-11
-12
-13
-9
-8
-7
-7
-7
-11
-11
-12
-11
-8
-8
-10
-12
-16
-16
-16
-16
-16
-15
-15
-18
-21
-25
-27
-29
-27
-24
-22
-22
-26
-27
-28
-28
-27
-26
-25
-23
-25
-27
-30
-31
-32
-31
-28
-26
-27
-26
-28
-29
-30
-27
-25
-24
-24
-25
-29
-31
-31
-31
-32
-30
-28
-30
-30
-34
-34
-33
-31
-27
-27
-28
-28
-27
-24
-23
-17
-12
-9
-4
-3
-5
-7
-10
-9
-6
-6
-11
-17
-21
-24
-25
-25
-27
-25
-26
-29
-33
-36
-35
-36
-33
-34
-32
-32
-32
-31
-32
-32
-31
-30
-29
-25
-27
-25
-27
-28
-25
-20
-8
9
29
54
81
103
109
81
21
-49
-116
-161
-187
-204
-208
-200
-174
-137
-93
-54
-24
-9
-1
3
13
15
20
24
22
22
24
24
27
28
30
35
36
36
38
37
42
49
54
58
59
61
62
68
70
80
85
91
94
95
100
105
107
120
128
134
140
148
150
152
154
155
154
158
160
159
156
152
146
139
134
126
119
109
94
79
65
60
50
44
34
24
16
10
2
-1
-2
-4
-5
-6
-6
-10
-16
-20
-19
-16
-12
-11
-9
-12
-14
-13
-14
-11
-9
-8
-11
-14
-12
-16
-16
-15
-12
-10
-10
-11
-13
-17
-22
-20
-18
-17
-16
-18
-22
-28
-27
-29
-25
-23
-24
-24
-23
-25
-29
-34
-34
-31
-31
-29
-30
-32
-33
-33
-32
-31
-29
-28
-29
-32
-35
-37
-39
-36
-35
-32
-32
-31
-32
-33
-35
-34
-30
-31
-27
-29
-31
-34
-39
-39
-37
-32
-31
-28
-29
-31
-33
-33
-30
-27
-22
-21
-19
-18
-19
-17
-15
-13
-10
-6
-8
-12
-19
-25
-26
-28
-23
-22
-24
-27
-32
-38
-40
-41
-39
-37
-33
-34
-35
-39
-41
-40
-37
-35
-35
-34
-33
-32
-33
-34
-28
-20
-8
11
32
58
81
89
74
18
-60
-134
-185
-214
-230
-231
-212
-178
-137
-91
-52
-27
-15
-8
-7
-3
5
10
14
17
15
16
17
24
28
29
29
30
33
37
36
39
44
49
54
56
57
58
60
62
69
74
80
86
92
95
101
104
112
121
129
137
143
147
148
151
153
158
160
163
163
162
159
156
150
144
137
131
121
106
91
79
75
60
53
46
35
26
20
12
5
2
0
-3
-6
-8
-11
-16
-18
-19
-18
-15
-13
-14
-16
-21
-21
-20
-13
-12
-13
-14
-20
-21
-20
-19
-17
-14
-12
-11
-14
-14
-17
-18
-17
-17
-17
-16
-17
-17
-19
-20
-20
-23
-25
-27
-25
-26
-28
-27
-29
-28
-25
-23
-21
-24
-29
-32
-33
-33
-34
-29
-27
-27
-29
-33
-36
-38
-37
-37
-35
-34
-37
-38
-38
-40
-38
-38
-37
-35
-37
-36
-37
-39
-39
-36
-36
-34
-32
-34
-35
-36
-36
-33
-32
-31
-30
-31
-32
-31
-31
-29
-24
-18
-13
-9
-6
-9
-12
-11
-11
-16
-16
-21
-27
-31
-33
-32
-33
-35
-34
-37
-40
-42
-46
-44
-44
-41
-39
-39
-40
-38
-37
-39
-38
-40
-39
-38
-37
-37
-37
-35
-34
-23
-10
9
32
56
75
78
42
-24
-103
-167
-210
-233
-244
-234
-207
-170
-125
-79
-41
-19
-7
-7
-5
-4
2
7
10
14
18
20
22
24
25
25
27
27
29
30
33
32
37
41
51
53
60
63
64
66
68
77
86
93
102
105
110
113
118
122
127
132
138
140
143
143
145
147
150
152
154
151
148
144
135
133
123
116
107
98
88
78
64
47
33
23
15
11
3
-2
-10
-14
-20
-22
-24
-22
-25
-25
-27
-30
-32
-29
-27
-24
-23
-22
-21
-23
-30
-32
-31
-27
-25
-25
-28
-27
-30
-27
-23
-21
-21
-19
-20
-22
-25
-25
-27
-29
-32
-28
-29
-29
-30
-32
-31
-32
-30
-30
-34
-37
-38
-40
-36
-34
-36
-35
-35
-38
-39
-41
-43
-43
-41
-42
-42
-43
-45
-45
-48
-47
-46
-45
-43
-44
-44
-46
-49
-49
-45
-42
-41
-41
-42
-43
-44
-43
-42
-40
-40
-35
-35
-35
-38
-41
-44
-47
-47
-45
-43
-40
-39
-40
-38
-36
-29
-23
-22
-23
-23
-26
-28
-32
-36
-39
-40
-42
-43
-43
-48
-49
-49
-50
-49
-49
-53
-54
-58
-53
-50
-47
-48
-50
-51
-50
-51
-50
-49
-50
-48
-44
-42
-41
-37
-27
-11
14
43
78
100
97
49
-19
-93
-150
-186
-204
-219
-215
-196
-165
-153
-82
-50
-33
-27
-24
-24
-21
-18
-14
-10
-7
-4
-2
0
0
1
1
6
9
14
19
19
24
28
30
33
35
38
41
44
49
50
56
60
67
73
80
83
90
93
94
100
104
114
121
125
124
120
119
119
120
122
121
120
117
110
101
92
84
76
68
59
51
38
29
19
14
8
3
1
-6
-13
-18
-23
-25
-27
-29
-28
-25
-27
-28
-32
-32
-30
-27
-25
-28
-28
-30
-32
-34
-32
-32
-28
-25
-26
-26
-26
-27
-28
-29
-30
-28
-25
-28
-30
-34
-37
-38
-36
-34
-34
-35
-36
-36
-40
-43
-45
-46
-45
-45
-45
-49
-49
-50
-50
-49
-45
-44
-45
-46
-49
-51
-51
-50
-45
-46
-47
-49
-50
-53
-54
-54
-51
-49
-47
-48
-47
-51
-51
-52
-47
-46
-45
-45
-47
-50
-51
-51
-48
-44
-43
-40
-38
-36
-37
-33
-31
-27
-20
-18
-19
-26
-30
-33
-41
-42
-43
-42
-42
-44
-50
-53
-54
-55
-52
-48
-50
-51
-50
-51
-50
-50
-53
-56
-56
-55
-55
-54
-55
-53
-52
-47
-41
-37
-28
-19
-1
22
50
76
85
60
0
-78
-147
-190
-215
-226
-230
-215
-190
-154
-114
-101
-49
-32
-21
-14
-11
-11
-11
-8
-5
0
4
8
10
15
14
15
17
20
24
28
32
33
35
37
38
42
49
53
59
62
67
69
75
78
87
95
102
108
110
117
120
122
126
131
136
140
140
138
136
137
134
130
128
122
117
108
94
79
66
54
45
39
28
19
7
-2
-8
-12
-13
-16
-16
-20
-25
-28
-29
-29
-31
-31
-30
-31
-30
-31
-30
-29
-27
-27
-27
-30
-31
-29
-31
-32
-29
-29
-27
-25
-27
-29
-32
-33
-32
-31
-28
-27
-29
-28
-29
-31
-32
-34
-35
-36
-35
-36
-37
-43
-43
-46
-45
-44
-40
-40
-41
-45
-46
-46
-43
-42
-43
-42
-45
-50
-52
-55
-52
-53
-49
-47
-46
-49
-49
-50
-52
-50
-46
-47
-47
-48
-52
-53
-52
-50
-50
-49
-49
-50
-51
-50
-50
-49
-46
-40
-39
-34
-35
-36
-38
-34
-29
-23
-21
-21
-25
-29
-31
-39
-41
-41
-41
-39
-40
-42
-46
-49
-53
-51
-50
-48
-49
-47
-49
-51
-52
-55
-54
-50
-49
-48
-51
-52
-52
-49
-48
-45
-41
-37
-34
-24
-7
18
48
77
87
57
-16
-104
-176
-221
-238
-242
-227
-203
-167
-124
-110
-54
-33
-23
-16
-12
-9
-7
-9
-9
-5
0
3
8
9
12
12
12
15
18
23
28
29
31
33
34
40
48
51
57
59
62
64
69
73
82
90
98
105
107
110
112
116
123
129
135
138
142
141
138
138
139
137
134
130
121
112
103
87
74
61
49
40
32
23
16
2
-7
-15
-18
-20
-18
-23
-25
-32
-35
-40
-39
-35
-32
-31
-32
-31
-33
-34
-34
-30
-29
-28
-27
-29
-34
-34
-31
-31
-29
-25
-28
-31
-31
-32
-35
-35
-30
-33
-33
-31
-34
-36
-35
-38
-40
-39
-36
-42
-44
-45
-46
-45
-43
-41
-40
-41
-44
-46
-48
-48
-47
-45
-45
-48
-49
-49
-53
-52
-50
-50
-48
-46
-48
-47
-51
-53
-55
-55
-53
-51
-49
-51
-53
-54
-55
-53
-50
-49
-49
-47
-46
-47
-48
-49
-47
-43
-40
-40
-40
-39
-36
-32
-24
-21
-20
-20
-21
-24
-22
-28
-31
-34
-37
-39
-40
-41
-40
-42
-44
-47
-48
-52
-53
-51
-52
-50
-49
-49
-49
-48
-47
-49
-52
-54
-55
-53
-50
-48
-45
-44
-42
-36
-30
-13
4
31
63
93
107
85
30
-43
-113
-164
-193
-211
-214
-206
-201
-145
-105
-66
-39
-23
-16
-11
-9
-3
4
12
17
14
10
3
-3
-2
-3
1
5
6
9
9
14
15
20
27
32
40
46
50
55
59
61
70
74
78
82
82
82
80
82
89
96
104
109
112
113
116
116
117
118
120
122
122
120
114
108
101
94
85
78
69
57
44
34
22
15
12
7
4
1
-7
-18
-21
-36
-38
-36
-33
-31
-31
-33
-37
-39
-38
-30
-26
-28
-32
-35
-39
-40
-41
-39
-38
-34
-36
-35
-36
-35
-38
-36
-34
-31
-29
-32
-32
-38
-40
-44
-41
-40
-36
-39
-39
-42
-44
-44
-43
-40
-39
-40
-44
-45
-44
-47
-47
-46
-46
-47
-48
-51
-53
-54
-54
-55
-53
-51
-50
-52
-51
-51
-52
-51
-47
-47
-45
-45
-50
-52
-55
-53
-50
-48
-43
-44
-42
-43
-42
-39
-33
-28
-23
-23
-24
-28
-32
-37
-44
-46
-46
-44
-44
-45
-46
-52
-57
-57
-55
-53
-49
-53
-53
-54
-50
-50
-48
-48
-53
-53
-55
-55
-54
-51
-48
-48
-44
-41
-32
-27
1
29
63
92
94
54
-16
-91
-152
-185
-205
-215
-209
-190
-159
-117
-81
-48
-30
-19
-13
-12
-14
-16
-17
-11
-8
-4
0
3
4
4
2
2
5
11
16
19
21
23
23
25
27
35
41
49
52
55
57
59
64
71
78
86
94
97
102
105
109
114
119
124
128
131
128
122
118
116
113
110
105
97
84
72
68
46
34
24
18
10
3
-6
-14
-20
-24
-24
-26
-25
-27
-30
-33
-35
-36
-36
-33
-31
-31
-32
-31
-31
-38
-37
-34
-32
-29
-25
-27
-27
-32
-34
-34
-33
-30
-30
-31
-34
-35
-36
-35
-33
-32
-32
-32
-35
-37
-41
-41
-42
-40
-39
-42
-44
-45
-46
-46
-47
-48
-46
-46
-47
-48
-48
-49
-43
-45
-42
-44
-44
-47
-46
-48
-47
-47
-45
-45
-46
-48
-50
-52
-51
-48
-48
-46
-48
-47
-44
-45
-44
-41
-37
-32
-31
-30
-28
-28
-29
-28
-29
-26
-29
-30
-37
-40
-43
-41
-39
-37
-38
-39
-42
-45
-48
-48
-45
-44
-39
-35
-30
-30
-29
-24
-17
-9
-2
6
9
14
19
23
29
38
52
67
88
110
132
150
155
138
99
51
6
-28
-53
-60
-83
-84
-77
-64
-53
-45
-39
-38
-37
-34
-32
-29
-28
-28
-27
-28
-30
-29
-28
-26
-25
-23
-27
-23
-23
-23
-23
-19
-18
-15
-14
-18
-17
-15
-13
-13
-10
-5
-1
1
-1
0
4
8
14
17
19
22
21
21
22
25
29
36
36
38
37
33
33
30
29
28
25
18
14
7
2
-5
-9
-14
-16
-21
-25
-30
-31
-31
-33
-31
-31
-29
-31
-31
-34
-35
-35
-33
-32
-28
-29
-28
-30
-31
-32
-32
-30
-29
-27
-30
-32
-33
-36
-33
-34
-31
-30
-31
-34
-36
-39
-38
-37
-38
-37
-38
-36
-40
-44
-44
-45
-43
-41
-38
-41
-43
-44
-45
-45
-44
-46
-41
-44
-46
-47
-48
-50
-48
-46
-46
-43
-43
-46
-47
-48
-49
-47
-44
-45
-45
-47
-48
-50
-49
-47
-44
-42
-41
-43
-42
-41
-38
-37
-33
-31
-29
-28
-27
-26
-27
-26
-24
-22
-25
-29
-34
-37
-41
-41
-39
-40
-37
-39
-42
-45
-46
-45
-41
-37
-38
-34
-33
-30
-26
-21
-14
-8
0
6
10
15
15
20
26
32
38
49
64
83
112
148
186
215
214
179
121
60
10
-26
-60
-87
-101
-98
-87
-69
-54
-49
-40
-38
-36
-38
-33
-32
-31
-36
-37
-37
-36
-33
-30
-29
-29
-31
-35
-33
-34
-31
-26
-24
-26
-24
-24
-28
-27
-25
-26
-25
-28
-28
-30
-29
-27
-23
-18
-15
-9
-12
-9
-8
-9
-4
1
4
8
8
8
7
9
11
12
14
15
8
3
0
-6
-10
-16
-18
-19
-22
-25
-26
-31
-32
-33
-32
-32
-32
-35
-37
-38
-36
-37
-37
-34
-32
-30
-33
-34
-34
-32
-29
-26
-27
-27
-31
-32
-33
-35
-34
-32
-32
-30
-32
-32
-32
-36
-36
-34
-33
-32
-33
-34
-36
-38
-39
-38
-36
-34
-34
-34
-38
-38
-38
-39
-38
-39
-41
-44
-47
-47
-47
-47
-46
-43
-42
-43
-42
-45
-46
-46
-43
-44
-40
-38
-39
-37
-37
-35
-32
-29
-28
-25
-24
-26
-27
-27
-26
-23
-19
-16
-17
-19
-24
-29
-37
-39
-37
-36
-32
-34
-38
-42
-44
-44
-39
-36
-32
-34
-31
-30
-28
-20
-16
-7
0
5
12
15
17
22
30
36
44
51
64
81
107
143
188
224
237
207
148
82
62
-14
-47
-72
-87
-86
-73
-55
-37
-26
-21
-23
-23
-23
-22
-24
-25
-29
-29
-29
-27
-25
-22
-21
-19
-21
-22
-23
-21
-20
-17
-17
-17
-20
-20
-21
-20
-15
-13
-11
-10
-10
-10
-9
-8
-6
-6
2
1
3
5
2
7
12
14
18
21
20
19
20
21
26
27
28
27
25
20
16
9
5
2
1
-2
-5
-11
-13
-20
-20
-21
-18
-18
-17
-19
-20
-20
-22
-22
-18
-18
-17
-15
-16
-20
-22
-22
-19
-20
-17
-16
-17
-18
-21
-19
-17
-14
-11
-13
-15
-16
-21
-21
-23
-21
-18
-19
-21
-22
-22
-24
-25
-25
-22
-21
-21
-25
-26
-29
-25
-25
-25
-25
-26
-26
-27
-29
-31
-28
-27
-27
-22
-23
-24
-26
-31
-31
-33
-29
-26
-29
-27
-29
-30
-32
-32
-31
-27
-27
-27
-27
-30
-31
-29
-24
-20
-16
-20
-20
-21
-21
-14
-11
-5
-1
-4
-7
-9
-15
-20
-22
-24
-23
-21
-23
-24
-23
-29
-30
-30
-25
-22
-25
-28
-27
-25
-20
-12
-6
2
7
13
15
23
28
34
40
48
54
61
74
93
118
158
200
231
235
189
116
43
-9
-38
-59
-75
-83
-78
-59
-53
-22
-13
-11
-10
-9
-12
-14
-12
-13
-12
-11
-10
-8
-6
-5
-6
-6
-7
-9
-7
-5
1
-2
1
0
1
1
4
7
9
10
11
11
12
14
20
25
27
30
30
31
32
34
38
42
47
49
52
49
48
45
46
47
46
45
