511
443
321
118
-102
-216
-220
-177
-154
-150
-138
-125
-122
-119
-110
-107
-111
-117
-117
-114
-107
-103
-106
-111
-111
-109
-103
-92
-87
-87
-87
-90
-92
-94
-91
-88
-79
-73
-71
-60
-53
-52
-54
-45
-22
-9
-1
13
25
32
34
46
58
57
57
61
56
57
59
55
49
46
44
45
35
29
27
23
17
12
13
6
-6
-8
-6
-6
-14
-20
-20
-17
-20
-23
-27
-27
-27
-23
-15
-19
-29
-24
-11
-6
-10
-11
-8
-7
-9
-8
3
5
2
-9
-10
0
-6
-14
-13
-14
-14
-13
-14
-11
-16
-28
-34
-28
-19
-24
-30
-24
-17
-15
-20
-22
-19
-20
-19
-9
0
-7
-16
-18
-14
-6
-6
-13
-15
-21
-30
-34
-29
-35
-48
-51
-49
-51
-59
-67
-69
-62
-61
-72
-71
-69
-74
-78
-67
-48
-29
4
74
193
356
491
500
410
275
54
-152
-232
-216
-170
-148
-136
-132
-130
-113
-109
-111
-105
-104
-110
-106
-102
-103
-103
-102
-100
-102
-100
-98
-97
-97
-93
-89
-84
-89
-92
-82
-79
-77
-66
-59
-56
-52
-45
-32
-23
-14
-12
-3
18
29
33
43
54
65
68
64
66
65
55
52
60
55
51
36
38
40
37
22
14
18
12
5
-1
-5
-10
-14
-16
-14
-18
-23
-27
-33
-36
-37
-37
-36
-35
-34
-40
-32
-26
-28
-29
-22
-18
-23
-24
-15
-9
-6
-4
-14
-16
-12
-14
-14
-12
-19
-23
-22
-21
-27
-29
-32
-28
-32
-39
-36
-42
-42
-35
-35
-35
-26
-24
-34
-34
-22
-19
-29
-19
-12
-16
-18
-16
-7
-9
-13
-30
-25
-24
-30
-35
-40
-45
-55
-59
-57
-55
-60
-64
-66
-68
-70
-72
-69
-64
-67
-77
-72
-50
-20
-9
129
290
470
553
506
403
232
-7
-170
-212
-181
-149
-138
-130
-123
-119
-106
-101
-102
-105
-114
-120
-112
-103
-101
-103
-96
-94
-101
-103
-102
-100
-99
-97
-96
-88
-85
-84
-85
-81
-73
-68
-64
-51
-43
-40
-34
-23
-12
-8
21
32
39
49
54
54
58
61
61
65
64
57
54
54
55
52
42
38
39
33
23
19
20
14
12
0
-4
-8
-7
-13
-18
-15
-18
-26
-29
-24
-20
-27
-22
-13
-8
-12
-16
-11
-7
-11
-15
-8
-6
-6
5
6
8
7
0
1
0
-2
-1
-7
-9
-18
-24
-19
-9
-14
-23
-24
-22
-22
-21
-22
-16
-15
-15
-27
-20
-13
-15
-14
-11
-9
-9
-11
-6
-6
-4
-4
-8
-13
-10
-15
-22
-29
-26
-30
-40
-46
-43
-42
-54
-53
-48
-53
-65
-65
-61
-60
-64
-73
-63
-51
-21
37
119
241
414
532
508
415
263
46
-128
-201
-211
-148
-137
-129
-122
-117
-112
-103
-99
-100
-104
-107
-104
-104
-104
-97
-100
-100
-94
-94
-92
-93
-90
-86
-86
-85
-77
-74
-73
-72
-73
-69
-61
-55
-51
-38
-30
-19
-13
-5
8
23
27
32
51
65
70
74
78
78
77
70
61
62
64
55
48
50
38
26
22
23
23
19
12
13
4
-6
-9
-2
-1
-9
-16
-21
-24
-23
-21
-22
-21
-22
-25
-26
-18
-15
-19
-19
-12
-7
-2
-4
-2
3
1
-3
-1
0
-6
-9
-10
-7
-6
-11
-12
-9
-14
-25
-28
-24
-25
-24
-23
-22
-20
-20
-16
-10
-10
-14
-17
-14
-14
-10
-9
-15
-16
-14
0
3
6
-2
-12
-16
-18
-26
-30
-34
-37
-40
-53
-56
-52
-49
-54
-56
-60
-66
-66
-60
-57
-65
-67
-53
-22
35
116
255
437
560
540
446
289
68
-112
-189
-181
-146
-132
-134
-131
-117
-106
-107
-107
-103
-100
-98
-108
-108
-103
-102
-98
-98
-100
-100
-101
-97
-89
-87
-90
-84
-83
-86
-88
-83
-67
-57
-59
-58
-46
-41
-42
-29
-12
4
18
29
40
54
63
66
66
75
79
76
75
77
69
62
52
47
49
45
40
49
44
38
26
26
28
21
18
17
7
4
2
-7
-16
-18
-18
-17
-19
-23
-23
-19
-12
-9
-1
1
-7
-2
1
5
6
8
4
0
5
8
3
3
7
5
2
-10
-8
-2
-2
-6
-11
-12
-16
-19
-22
-25
-24
-23
-20
-8
-3
-15
-29
-25
-12
-10
-15
-6
0
1
-6
-7
6
16
7
-12
-20
-14
-13
-21
-26
-24
-25
-38
-39
-47
-53
-57
-58
-53
-48
-52
-59
-60
-63
-70
-80
-68
-46
-12
44
141
296
470
561
527
423
385
22
-140
-193
-170
-142
-135
-129
-121
-109
-105
-108
-106
-102
-104
-103
-101
-108
-108
-100
-99
-103
-99
-90
-88
-89
-94
-91
-85
-87
-90
-85
-77
-71
-71
-68
-56
-46
-44
-39
-29
-18
-14
-6
6
22
32
43
51
53
53
63
68
72
68
65
66
69
63
57
53
49
41
39
38
39
34
17
9
10
9
3
2
0
-6
-9
-16
-20
-21
-21
-24
-23
-27
-25
-21
-18
-13
-13
-17
-14
-13
-20
-16
-3
4
2
-5
-6
0
4
4
-3
-7
-8
-7
-13
-14
-16
-24
-24
-16
-14
-22
-34
-38
-36
-29
-27
-26
-17
-15
-16
-18
-17
-15
-14
-8
2
9
2
-10
-9
-6
-14
-25
-25
-21
-24
-31
-30
-27
-36
-46
-53
-48
-49
-56
-58
-52
-54
-55
-57
-58
-54
-56
-59
-50
-32
10
81
210
395
544
552
461
304
63
-128
-217
-219
-177
-146
-136
-126
-113
-109
-102
-107
-108
-109
-109
-95
-91
-88
-85
-95
-95
-88
-84
-85
-91
-96
-97
-95
-91
-88
-85
-81
-77
-69
-65
-57
-53
-48
-37
-33
-24
-13
-12
-1
18
34
35
35
50
65
67
60
56
54
55
55
50
54
49
45
37
35
32
21
14
9
4
2
1
-9
-11
-13
-21
-27
-24
-26
-33
-36
-33
-30
-27
-27
-25
-19
-16
-16
-20
-12
-5
0
5
8
5
-1
1
5
3
0
2
1
0
0
-8
-12
-15
-21
-22
-13
-17
-19
-30
-30
-27
-32
-36
-33
-33
-24
-24
-26
-22
-18
-20
-21
-20
-20
-19
-13
-12
-15
-16
-13
-10
-18
-22
-22
-28
-33
-32
-36
-44
-49
-59
-70
-63
-58
-62
-65
-66
-67
-68
-70
-70
-69
-66
-59
-37
15
96
125
376
513
517
409
239
22
-148
-221
-220
-181
-158
-137
-124
-116
-109
-107
-105
-104
-98
-100
-103
-106
-107
-110
-110
-106
-100
-91
-88
-93
-97
-92
-88
-83
-76
-71
-69
-74
-73
-66
-67
-65
-55
-45
-35
-29
-28
-12
5
8
20
42
49
53
61
60
60
63
58
54
52
48
37
33
30
23
17
20
20
12
3
-4
-13
-16
-16
-22
-26
-23
-28
-37
-43
-46
-49
-53
-52
-43
-33
-35
-39
-29
-23
-27
-31
-28
-18
-13
-15
-6
-5
-7
-6
-1
-3
-1
1
3
6
-1
-9
-11
-8
-17
-27
-24
-19
-19
-26
-35
-37
-33
-30
-30
-25
-21
-23
-25
-17
-17
-25
-21
-12
-7
-11
-18
-26
-24
-14
-12
-18
-13
-16
-32
-38
-37
-44
-54
-60
-62
-58
-59
-64
-61
-62
-61
-64
-67
-67
-76
-81
-68
-45
-4
63
178
350
518
572
518
382
157
-86
-201
-211
-171
-158
-147
-138
-122
-109
-104
-106
-109
-111
-111
-109
-104
-100
-98
-98
-97
-97
-98
-93
-87
-83
-81
-87
-85
-83
-84
-80
-69
-57
-56
-65
-60
-51
-49
-41
-28
-14
-2
4
13
33
49
46
50
67
73
73
75
79
74
73
71
65
64
55
45
43
33
29
25
21
17
9
3
0
-2
-4
-11
-22
-28
-26
-25
-34
-42
-40
-39
-37
-32
-26
-33
-36
-27
-16
-12
-14
-11
-8
-8
-5
-2
7
10
2
-5
-8
-9
-10
-15
-16
-13
-12
-21
-22
-14
-18
-25
-24
-20
-18
-20
-19
-18
-23
-19
-16
-13
-10
-8
-8
-10
-9
-15
-13
-4
-13
-17
-27
-25
-27
-29
-36
-40
-42
-49
-59
-63
-63
-64
-66
-67
-65
-66
-70
-73
-71
-71
-66
-45
-10
46
66
270
440
540
521
427
271
34
-149
-219
-202
-160
-134
-122
-117
-116
-109
-108
-108
-102
-104
-111
-114
-105
-99
-96
-95
-100
-99
-91
-86
-85
-86
-94
-97
-95
-87
-84
-84
-81
-74
-73
-67
-51
-40
-43
-38
-24
-8
7
12
28
40
59
70
69
74
82
84
83
81
78
69
63
63
62
60
50
45
49
48
37
29
18
10
8
5
3
-2
-12
-16
-18
-19
-26
-29
-26
-23
-26
-30
-26
-21
-14
-22
-27
-16
-9
-10
-10
-4
1
2
-6
-9
-10
-10
-14
-10
-4
-5
-5
-2
-5
-14
-19
-25
-27
-20
-21
-23
-18
-20
-24
-17
-11
-10
-10
-10
-11
-13
-4
-2
-4
-2
1
13
21
3
-14
-26
-29
-20
-25
-43
-58
-55
-45
-48
-53
-54
-53
-52
-56
-52
-56
-64
-64
-72
-75
-63
-47
-4
65
179
339
517
594
548
433
256
14
-153
-207
-182
-150
-138
-134
-125
-113
-104
-110
-115
-111
-107
-111
-112
-107
-100
-98
-96
-99
-99
-94
-96
-102
-103
-97
-92
-88
-84
-79
-76
-68
-59
-51
-52
-52
-46
-40
-23
-17
-10
5
19
26
39
57
69
69
69
76
81
80
76
80
77
73
67
69
65
58
49
42
37
32
28
24
23
16
9
2
3
2
0
-5
-13
-20
-24
-24
-16
-14
-16
-22
-22
-21
-18
-21
-13
-8
-12
-14
-8
-1
3
-1
3
4
-1
-2
-3
-4
-12
-19
-14
-3
-4
-6
-18
-20
-21
-21
-21
-19
-14
-15
-22
-24
-16
-10
-15
-13
-3
0
0
-3
-8
-3
6
4
-8
-11
-10
-17
-28
-38
-41
-44
-48
-48
-55
-59
-60
-57
-55
-60
-62
-60
-58
-66
-80
-79
-58
-36
1
77
208
256
531
558
479
342
124
-85
-192
-202
-167
-149
-140
-132
-122
-113
-112
-113
-115
-119
-121
-121
-122
-117
-107
-99
-98
-103
-101
-106
-104
-101
-96
-92
-87
-88
-87
-89
-85
-78
-77
-68
-58
-60
-54
-39
-30
-21
-12
1
17
22
34
43
55
58
60
60
65
70
70
70
68
60
54
51
53
52
37
27
24
22
10
1
2
6
6
-2
-4
-3
-10
-18
-22
-23
-25
-26
-20
-13
-14
-18
-27
-24
-13
-5
-5
-15
-24
-21
-19
-9
0
1
-3
-8
-8
-5
-5
-4
-4
-7
-12
-14
-16
-25
-28
-22
-12
-9
-21
-30
-28
-24
-22
-13
2
0
-4
-11
-1
1
-5
-6
-7
-3
-5
-14
-18
-15
-18
-31
-42
-44
-46
-51
-56
-57
-55
-58
-60
-53
-56
-60
-65
-57
-63
-72
-67
-54
-29
20
103
248
439
571
558
449
279
43
-145
-231
-216
-171
-154
-148
-136
-122
-117
-112
-106
-98
-99
-102
-97
-96
-96
-95
-102
-104
-104
-108
-107
-97
-90
-90
-89
-85
-82
-79
-81
-75
-72
-71
-66
-57
-46
-41
-42
-33
-14
-5
2
21
36
45
49
53
64
68
66
68
69
62
55
54
51
50
52
39
32
30
25
21
16
14
11
3
-1
-9
-20
-26
-24
-20
-25
-37
-44
-39
-38
-40
-38
-34
-30
-29
-28
-15
-6
-5
-8
-6
0
1
2
2
4
-2
-5
0
3
2
-2
-5
-6
-8
-14
-20
-22
-18
-18
-27
-25
-28
-27
-24
-20
-16
-17
-18
-17
-10
-7
-16
-20
-14
-13
-14
-17
-19
-19
-16
-24
-31
-28
-27
-36
-44
-52
-57
-62
-60
-58
-61
-66
-68
-63
-59
-66
-74
-70
-57
-32
23
115
259
440
556
538
426
384
-6
-177
-226
-200
-162
-143
-138
-130
-121
-113
-106
-102
-101
-104
-102
-100
-101
-102
-107
-103
-99
-101
-101
-98
-95
-92
-94
-90
-89
-89
-85
-82
-79
-74
-71
-66
-58
-55
-46
-28
-17
-15
-9
3
17
27
37
52
60
63
72
65
58
58
57
59
62
53
48
42
35
29
20
12
16
17
7
-3
-10
-13
-20
-27
-21
-20
-22
-43
-43
-40
-43
-43
-45
-42
-37
-39
-42
-41
-34
-26
-16
-7
-2
-4
-9
-14
-11
-10
-11
-8
-4
-1
-4
-9
-6
-4
-13
-21
-27
-27
-23
-18
-16
-21
-21
-18
-16
-14
-17
-12
-8
-7
-11
-16
-18
-9
-5
1
-14
-22
-22
-21
-25
-28
-35
-47
-53
-46
-47
-63
-70
-66
-61
-57
-59
-65
-64
-66
-77
-78
-54
-45
28
105
235
417
561
571
490
330
86
-119
-206
-202
-167
-144
-130
-121
-118
-117
-112
-110
-108
-105
-101
-100
-100
-98
-101
-102
-103
-103
-102
-96
-93
-94
-92
-86
-83
-92
-90
-74
-69
-70
-71
-62
-54
-48
-41
-33
-24
-21
-3
6
18
27
40
53
65
69
69
71
81
77
64
62
64
61
49
45
42
38
34
22
13
7
4
-3
-5
-6
-13
-18
-21
-24
-26
-29
-33
-33
-35
-39
-40
-35
-31
-28
-29
-27
-27
-28
-28
-19
-10
-7
-10
-3
7
9
2
2
4
1
-1
-4
-6
-10
-15
-21
-17
-18
-20
-20
-12
-8
-14
-18
-16
-11
-10
-10
-4
0
-3
-8
0
6
-3
-13
-20
-21
-32
-41
-43
-41
-46
-53
-56
-47
-53
-58
-61
-68
-65
-63
-67
-69
-68
-74
-73
-55
-21
35
121
268
448
564
558
469
303
46
-150
-225
-207
-172
-151
-138
-129
-117
-113
-108
-103
-101
-103
-106
-105
-98
-96
-102
-99
-95
-99
-105
-108
-100
-91
-82
-82
-88
-95
-95
-89
-83
-73
-70
-67
-62
-54
-48
-43
-29
-12
3
13
26
36
47
56
58
66
71
67
64
78
81
72
66
64
59
58
51
41
32
29
27
23
19
9
-1
-3
-4
-2
-6
-12
-21
-25
-28
-31
-22
-19
-23
-29
-26
-22
-23
-33
-26
-16
-21
-25
-19
-6
-7
-17
-23
-19
-9
-10
-13
-13
-6
-9
-13
-15
-10
-10
-16
-20
-14
-12
-9
-8
-12
-17
-14
-8
0
-1
-2
-3
-3
-1
0
1
-2
-9
-12
-14
-17
-25
-27
-29
-37
-42
-43
-49
-52
-55
-62
-63
-60
-62
-62
-64
-63
-65
-69
-63
-43
11
92
223
400
554
586
514
390
164
-71
-128
-201
-170
-146
-140
-132
-122
-118
-117
-112
-105
-105
-105
-101
-100
-106
-106
-104
-99
-100
-101
-104
-100
-90
-87
-88
-94
-83
-79
-76
-78
-74
-66
-63
-63
-52
-42
-37
-33
-17
3
15
18
24
39
54
63
68
73
76
78
78
76
75
77
70
61
56
51
49
44
42
39
28
23
25
26
15
4
1
1
-6
-12
-15
-16
-15
-21
-24
-20
-20
-23
-26
-30
-34
-32
-24
-17
-14
-14
-16
-12
-12
-18
-19
-16
-8
-4
-7
-4
-8
-10
-6
-11
-11
-14
-22
-17
-16
-16
-15
-14
-13
-12
-15
-16
-16
-9
-2
-6
-13
-16
-17
-7
0
-4
-7
-21
-26
-21
-25
-34
-42
-46
-39
-40
-54
-60
-57
-64
-70
-75
-78
-83
-79
-78
-84
-73
-47
-15
48
73
318
496
571
515
386
185
-45
-185
-227
-192
-157
-142
-139
-129
-123
-124
-117
-110
-101
-107
-109
-114
-110
-101
-100
-111
-108
-104
-109
-113
-108
-100
-100
-101
-97
-98
-95
-88
-84
-85
-84
-72
-68
-54
-42
-42
-35
-20
-7
-2
16
26
35
42
47
48
54
61
63
63
57
55
54
47
46
33
14
7
10
12
14
4
0
1
0
-11
-20
-26
-32
-32
-27
-23
-28
-34
-29
-32
-35
-35
-40
-34
-23
-21
-22
-22
-21
-19
-11
-5
-3
-2
-9
-11
-8
-3
0
0
0
-2
-7
-18
-13
-10
-13
-12
-11
-15
-23
-26
-18
-13
-15
-19
-19
-19
-18
5
7
-1
-5
-4
-5
-10
-14
-17
-17
-14
-19
-27
-40
-46
-51
-54
-60
-58
-57
-66
-70
-65
-58
-56
-58
-71
-80
-77
-57
-20
37
134
289
476
601
583
471
293
40
-159
-219
-200
-163
-150
-142
-131
-119
-112
-111
-110
-114
-114
-111
-107
-107
-104
-106
-110
-106
-104
-105
-106
-103
-99
-94
-97
-95
-90
-89
-81
-72
-68
-65
-64
-64
-56
-46
-39
-33
-20
-7
4
11
27
38
48
51
55
59
58
62
64
66
67
63
52
48
47
45
29
27
27
21
13
6
2
0
-1
-4
-5
-9
-17
-22
-25
-24
-27
-31
-27
-22
-27
-32
-31
-25
-23
-25
-20
-16
-16
-13
-12
-9
-9
-11
-9
-1
0
-5
-8
-7
-5
-9
-10
-12
-12
-17
-23
-16
-14
-16
-27
-24
-14
-19
-25
-20
-17
-6
-1
-2
0
-2
-13
-14
-7
-11
-17
-15
-15
-14
-21
-40
-49
-40
-37
-58
-65
-65
-68
-77
-79
-70
-69
-78
-76
-72
-76
-70
-50
-1
70
179
341
511
575
523
416
221
-28
-94
-201
-166
-137
-134
-130
-130
-125
-122
-128
-128
-124
-122
-126
-126
-117
-105
-98
-104
-111
-109
-107
-108
-103
-100
-96
-86
-84
-86
-87
-87
-80
-71
-74
-75
-68
-55
-44
-35
-26
-11
0
4
19
38
48
55
61
62
61
63
71
72
63
57
52
49
50
47
40
30
27
25
17
9
14
18
13
6
6
5
2
-7
-16
-17
-16
-24
-32
-28
-24
-30
-25
-18
-22
-25
-21
-19
-14
-13
-12
-6
-3
-7
-10
-10
-9
-11
-10
-6
-5
-4
-8
-11
-12
-9
-10
-16
-18
-14
-12
-19
-27
-26
-19
-18
-20
-21
-14
-5
2
2
2
0
1
4
4
-7
-19
-21
-22
-27
-29
-28
-32
-46
-56
-57
-59
-65
-67
-63
-58
-54
-54
-55
-61
-74
-79
-63
-26
-13
110
256
444
560
533
421
252
18
-163
-236
-222
-176
-156
-143
-130
-118
-111
-109
-110
-113
-114
-119
-120
-115
-113
-107
-107
-105
-105
-107
-103
-97
-93
-94
-94
-92
-93
-92
-88
-88
-84
-80
-76
-70
-64
-60
-49
-38
-28
-25
-10
0
16
31
40
40
46
56
54
52
53
54
49
44
41
36
32
31
29
19
15
11
10
9
5
-12
-9
-9
-16
-25
-29
-30
-35
-35
-38
-38
-34
-37
-36
-31
-26
-27
-29
-25
-19
-18
-14
-8
-8
-8
-14
-10
-1
1
-2
-5
-4
-5
-9
-10
-13
-17
-19
-16
-18
-20
-22
-33
-40
-33
-28
-28
-27
-25
-24
-24
-24
-19
-13
-14
-16
-12
-9
-6
-10
-19
-29
-33
-31
-26
-30
-44
-57
-65
-60
-61
-62
-56
-51
-54
-73
-74
-73
-69
-79
-87
-81
-64
-45
-5
70
200
375
532
562
477
312
77
-119
-218
-227
-187
-164
-155
-150
-125
-118
-114
-114
-120
-121
-114
-109
-109
-108
-102
-101
-109
-110
-107
-103
-103
-101
-95
-94
-91
-93
-97
-93
-90
-85
-85
-76
-68
-62
-52
-41
-36
-36
-21
-2
15
28
35
40
46
46
51
58
59
58
54
48
50
52
42
41
38
28
18
10
8
4
1
-1
-7
-15
-19
-25
-31
-29
-26
-36
-43
-47
-50
-54
-51
-45
-42
-41
-41
-32
-26
-27
-28
-21
-21
-19
-14
-6
-5
-16
-19
-12
-4
-2
-11
-19
-21
-24
-22
-19
-24
-27
-31
-32
-33
-30
-30
-32
-31
-27
-26
-29
-24
-17
-12
-7
-12
-18
-21
-17
-12
-14
-26
-36
-35
-34
-35
-46
-51
-55
-57
-59
-55
-55
-56
-60
-72
-72
-69
-74
-74
-78
-86
-81
-60
-22
36
120
255
426
544
563
422
248
14
-162
-230
-214
-172
-154
-150
-140
-124
-113
-112
-113
-111
-109
-111
-111
-102
-99
-95
-98
-99
-101
-103
-102
-100
-99
-99
-98
-91
-90
-91
-89
-85
-78
-75
-73
-73
-66
-56
-46
-40
-28
-16
-8
7
22
33
37
42
45
54
60
56
48
50
54
51
43
36
36
31
23
17
12
3
0
0
-6
-17
-25
-25
-21
-20
-36
-41
-33
-38
-52
-57
-55
-51
-51
-51
-43
-39
-37
-33
-26
-23
-25
-24
-22
-13
-5
-4
-4
0
2
-6
-13
-17
-24
-29
-28
-16
-19
-29
-30
-26
-22
-24
-23
-21
-23
-27
-28
-27
-27
-17
-9
-8
-14
-17
-9
-7
-7
-18
-33
-36
-34
-46
-51
-52
-50
-52
-64
-65
-62
-66
-69
-71
-71
-68
-72
-75
-80
-88
-90
-86
-61
-5
71
180
350
519
568
501
367
150
-87
-204
-220
-181
-149
-148
-147
-133
-123
-122
-128
-128
-122
-120
-120
-113
-108
-106
-107
-111
-111
-107
-108
-107
-105
-108
-106
-105
-103
-103
-97
-95
-88
-81
-79
-71
-57
-46
-44
-43
-36
-17
5
14
17
23
37
43
51
66
73
71
68
67
63
52
42
41
33
25
29
34
31
30
18
13
12
5
-2
-6
-8
-13
-15
-13
-9
-13
-23
-29
-34
-35
-40
-44
-34
-31
-28
-26
-25
-23
-23
-19
-16
-11
-13
-12
-13
-11
-4
-5
-10
-10
-5
-6
-16
-21
-24
-22
-18
-19
-23
-21
-14
-11
-16
-18
-31
-32
-20
-12
-14
-7
-4
-5
-8
-10
-9
-7
-7
-12
-20
-24
-26
-38
-42
-43
-51
-53
-53
-66
-70
-63
-61
-65
-62
-65
-68
-63
-68
-76
-76
-63
-41
7
93
235
408
543
559
478
347
112
-116
-215
-212
-202
-154
-141
-135
-130
-126
-118
-110
-113
-119
-122
-123
-119
-115
-122
-119
-110
-113
-114
-109
-100
-100
-106
-100
-92
-91
-93
-87
-86
-90
-91
-79
-68
-58
-60
-56
-45
-37
-23
-9
6
17
23
32
45
51
52
58
60
62
61
55
53
53
42
37
37
27
20
17
19
20
14
3
-3
5
1
-6
-13
-12
-13
-19
-24
-29
-32
-32
-33
-34
-35
-36
-35
-36
-34
-27
-27
-27
-25
-24
-19
-16
-12
-6
-4
-5
-4
-7
-12
-15
-16
-14
-15
-21
-25
-27
-26
-29
-31
-30
-29
-29
-32
-27
-23
-25
-27
-14
-4
-9
-17
-16
-10
-10
-13
-13
-15
-18
-23
-22
-26
-33
-30
-37
-47
-55
-63
-65
-66
-74
-75
-75
-74
-71
-76
-79
-84
-81
-66
-44
-1
73
101
354
523
571
509
391
184
-51
-179
-211
-178
-153
-148
-143
-135
-125
-119
-120
-120
-122
-122
-122
-123
-120
-113
-110
-111
-115
-110
-104
-105
-108
-98
-96
-102
-104
-98
-90
-88
-86
-86
-86
-82
-68
-56
-46
-37
-29
-20
-5
0
22
27
37
46
49
57
67
68
64
60
61
57
47
42
44
42
42
38
34
29
25
20
15
14
14
11
6
1
-10
-16
-17
-11
-12
-20
-26
-20
-18
-19
-21
-24
-30
-31
-35
-31
-24
-21
-18
-12
-7
-6
-16
-22
-12
-1
-3
-6
-10
-10
-10
-14
-15
-12
-20
-24
-18
-18
-28
-37
-32
-28
-31
-30
-24
-21
-20
-16
-16
-14
-12
-14
-12
-8
-11
-13
-9
-7
-14
-17
-16
-21
-29
-39
-53
-53
-49
-55
-61
-65
-64
-62
-66
-64
-61
-65
-67
-66
-71
-67
-56
-28
22
103
232
412
539
526
414
243
13
-159
-236
-229
-185
-160
-155
-139
-131
-119
-112
-116
-119
-116
-112
-113
-113
-117
-116
-114
-120
-116
-107
-107
-104
-95
-90
-92
-96
-96
-90
-87
-93
-87
-84
-81
-75
-68
-60
-58
-49
-29
-16
-10
-3
7
19
29
38
41
47
53
50
43
43
40
37
29
20
24
27
19
15
13
11
7
-1
-3
-3
-15
-23
-25
-21
-26
-37
-35
-33
-38
-41
-40
-38
-37
-31
-32
-30
-25
-21
-15
-11
-7
-3
0
0
1
-1
-6
-4
-2
-4
-7
-12
-15
-16
-17
-14
-14
-14
-19
-28
-29
-29
-35
-37
-33
-33
-33
-29
-29
-26
-25
-25
-23
-16
-12
-11
-14
-12
-12
-12
-14
-21
-24
-27
-27
-23
-28
-46
-55
-59
-65
-70
-71
-62
-54
-61
-69
-66
-61
-61
-60
-74
-82
-64
-37
-1
74
104
385
535
550
463
306
67
-141
-220
-222
-184
-159
-151
-136
-122
-110
-105
-106
-107
-105
-98
-100
-105
-108
-106
-105
-101
-97
-94
-101
-105
-100
-92
-92
-98
-101
-94
-90
-87
-83
-78
-73
-68
-63
-54
-41
-30
-24
-17
0
6
21
32
45
53
56
59
61
59
57
53
50
48
43
40
36
31
23
11
4
2
3
1
-4
-11
-14
-15
-20
-20
-24
-33
-37
-38
-45
-47
-43
-39
-37
-37
-34
-34
-30
-27
-28
-21
-13
-11
-11
-8
-4
-3
-2
-4
0
0
-3
-9
-12
-10
-12
-21
-22
-20
-20
-26
-27
-25
-25
-27
-29
-24
-21
-22
-23
-25
-25
-23
-17
-13
-14
-19
-16
-10
-14
-17
-26
-26
-22
-29
-34
-37
-41
-48
-55
-61
-64
-69
-73
-69
-62
-61
-69
-73
-67
-71
-82
-79
-65
-42
2
82
205
382
526
546
468
334
95
-128
-215
-209
-171
-153
-143
-136
-133
-123
-121
-124
-121
-118
-114
-114
-113
-113
-113
-111
-108
-108
-107
-103
-107
-107
-103
-101
-99
-101
-99
-92
-86
-85
-83
-76
-72
-65
-59
-56
-42
-29
-19
-12
-4
13
27
33
44
53
55
57
56
57
54
48
44
43
44
31
23
23
21
16
11
7
4
-3
-4
-3
-12
-21
-27
-28
-31
-33
-39
-40
-40
-40
-40
-40
-37
-38
-42
-32
-28
-26
-22
-15
-11
-10
-14
-15
-6
-5
-3
-4
-7
-11
-10
-9
-8
-12
-22
-28
-29
-26
-27
-29
-24
-21
-24
-21
-13
-10
-15
-16
-13
-13
-6
-9
-18
-13
-9
-6
-4
-8
-15
-22
-30
-31
-34
-37
-52
-51
-53
-54
-58
-60
-60
-62
-64
-65
-65
-68
-71
-69
-78
-81
-63
-30
29
119
264
442
567
557
538
306
61
-134
-209
-200
-168
-147
-135
-130
-122
-112
-113
-116
-115
-110
-109
-108
-116
-120
-120
-117
-114
-108
-99
-96
-96
-97
-100
-103
-97
-92
-88
-84
-79
-75
-72
-66
-59
-52
-48
-43
-33
-15
-9
-1
6
17
38
51
53
59
64
69
70
70
64
57
53
53
50
49
43
37
26
21
18
15
11
11
9
3
-6
-10
-4
-1
-15
-19
-16
-24
-29
-27
-31
-37
-36
-29
-25
-25
-28
-29
-21
-16
-21
-23
-15
-11
-12
-13
-9
-6
-4
-18
-15
-6
-7
-15
-23
-27
-28
-36
-37
-28
-24
-34
-33
-23
-20
-16
-20
-26
-22
-17
-13
-10
-10
-12
-21
-17
-5
-1
-16
-25
-19
-17
-30
-37
-36
-44
-57
-62
-60
-56
-63
-69
-68
-65
-68
-74
-71
-63
-64
-80
-72
-54
-20
35
127
277
454
556
515
418
255
17
-152
-204
-185
-153
-144
-138
-126
-121
-121
-117
-119
-120
-120
-114
-114
-120
-120
-117
-120
-115
-117
-119
-111
-101
-104
-111
-107
-105
-106
-99
-90
-82
-82
-86
-82
-72
-69
-63
-52
-39
-26
-16
-11
-5
5
16
23
32
37
40
46
51
54
49
46
50
48
42
31
29
31
29
11
13
14
13
11
10
9
1
-3
-8
-11
-14
-18
-23
-24
-21
-23
-31
-35
-35
-31
-26
-26
-25
-23
-18
-18
-15
-3
0
1
2
2
3
5
8
9
4
0
-8
-14
-13
-17
-20
-12
-8
-13
-17
-21
-24
-25
-25
-18
-8
-8
-10
-8
-1
0
0
0
-5
-11
-7
6
8
-1
-4
-7
-14
-21
-23
-24
-31
-35
-48
-57
-62
-64
-62
-57
-59
-64
-68
-69
-64
-62
-67
-57
-41
-11
56
154
314
498
568
500
374
172
98
-190
-232
-196
-161
-148
-136
-128
-122
-113
-106
-103
-105
-105
-108
-112
-113
-110
-108
-101
-97
-98
-96
-96
-93
-92
-94
-91
-86
-85
-90
-82
-72
-69
-72
-69
-62
-53
-46
-40
-29
-18
-12
-1
20
30
32
38
44
54
58
68
64
62
53
49
51
48
41
40
40
36
29
22
16
13
10
7
3
0
-5
-13
-15
-12
-11
-11
-23
-26
-24
-21
-25
-29
-27
-18
-15
-14
-13
-12
-15
-10
-5
0
1
0
0
0
-2
-4
0
1
0
-10
-11
-13
-19
-23
-18
-14
-17
-27
-26
-22
-22
-27
-30
-24
-18
-16
-19
-20
-15
-16
-15
-8
-1
0
-3
-1
2
-2
-14
-21
-25
-25
-24
-31
-34
-32
-39
-47
-56
-61
-64
-67
-67
-62
-64
-72
-69
-63
-62
-72
-70
-55
-38
6
88
220
401
553
550
452
284
44
-143
-217
-215
-179
-161
-145
-131
-124
-118
-111
-112
-113
-113
-112
-110
-110
-114
-114
-110
-110
-113
-112
-104
-96
-93
-96
-90
-86
-89
-85
-79
-77
-81
-85
-77
-67
-64
-68
-54
-36
-30
-25
-8
7
14
17
26
36
43
47
47
48
56
47
42
42
44
41
35
31
25
23
15
14
14
10
-2
-9
-7
-7
-12
-18
-20
-31
-41
-40
-32
-35
-40
-38
-29
-23
-27
-26
-15
-8
-7
-12
-12
-8
-1
-3
5
13
10
8
4
0
-3
-7
-5
0
-4
-16
-24
-21
-16
-16
-19
-23
-23
-23
-24
-21
-19
-15
-18
-17
-10
-9
-10
-10
-10
-9
-5
-13
-13
0
-2
-11
-16
-14
-15
-20
-25
-30
-31
-43
-45
-42
-50
-58
-62
-58
-59
-54
-53
-60
-56
-59
-68
-58
-33
6
67
173
340
505
560
495
355
303
-86
-214
-226
-189
-159
-144
-124
-109
-105
-108
-110
-109
-109
-105
-100
-96
-98
-96
-96
-95
-89
-97
-94
-86
-85
-86
-84
-82
-84
-86
-82
-77
-71
-69
-65
-55
-47
-49
-42
-31
-17
-12
-7
9
23
29
39
51
60
62
60
63
65
61
55
48
44
45
41
34
30
27
21
17
12
9
4
1
-1
-6
-19
-24
-27
-27
-28
-41
-46
-41
-38
-44
-44
-42
-41
-38
-28
-25
-25
-24
-20
-14
-16
-15
-8
-4
-1
-1
-5
-4
-1
-2
-14
-17
-19
-16
-21
-23
-23
-22
-23
-25
-24
-24
-24
-25
-20
-17
-17
-19
-18
-17
-12
-9
-9
-13
-15
-12
-3
-4
-14
-20
-21
-15
-20
-27
-31
-32
-42
-55
-63
-62
-62
-67
-73
-71
-69
-70
-71
-70
-71
-73
-72
-49
-6
49
133
278
457
554
525
417
248
6
-166
-217
-187
-151
-146
-144
-133
-121
-117
-116
-111
-104
-104
-107
-106
-104
-106
-107
-101
-99
-101
-102
-96
-94
-90
-87
-90
-88
-84
-87
-87
-81
-76
-73
-67
-63
-54
-50
-48
-33
-13
-3
2
10
25
35
38
46
58
65
67
67
64
62
62
59
54
51
44
35
34
28
25
17
16
10
2
-3
0
3
-4
-11
-18
-26
-29
-30
-32
-31
-31
-29
-28
-26
-24
-21
-20
-13
-9
-11
-16
-9
-7
-10
-10
-8
0
4
1
0
7
8
-5
-23
-25
-18
-17
-20
-16
-13
-21
-22
-16
-19
-20
-14
-15
-5
0
-6
-7
4
7
1
-4
-3
-3
-8
-12
-10
-8
-18
-19
-19
-26
-32
-38
-40
-41
-43
-49
-54
-56
-58
-61
-59
-55
-59
-68
-75
-69
-52
-27
26
122
258
436
573
564
476
324
80
-133
-208
-216
-162
-143
-128
-121
-122
-116
-107
-105
-106
-108
-106
-103
-105
-109
-102
-96
-95
-96
-96
-97
-100
-94
-94
-89
-86
-87
-85
-78
-71
-72
-73
-65
-59
-55
-45
-36
-30
-24
-19
-3
13
28
37
47
61
69
68
73
80
79
68
65
66
60
51
44
40
35
24
23
23
23
16
8
5
3
0
0
-3
-10
-16
-18
-23
-28
-29
-27
-21
-21
-25
-30
-30
-30
-29
-29
-23
-13
-9
-9
-10
-5
-6
-15
-11
0
-6
-8
-7
-14
-13
-14
-21
-22
-16
-17
-25
-27
-18
-17
-18
-18
-18
-16
-14
-21
-22
-16
-16
-13
-7
-5
-6
-6
-2
-3
-5
-15
-20
-25
-29
-31
-37
-44
-54
-58
-56
-55
-62
-65
-66
-63
-66
-63
-63
-64
-71
-75
-67
-45
-4
12
178
345
516
578
516
402
206
-38
-183
-208
-177
-150
-142
-136
-126
-122
-119
-124
-124
-114
-106
-107
-113
-111
-110
-109
-104
-102
-104
-107
-106
-98
-96
-103
-104
-101
-96
-84
-79
-79
-82
-79
-66
-60
-57
-55
-49
-41
-19
-12
2
9
27
43
46
45
51
59
62
63
66
58
51
53
49
48
41
30
29
34
30
21
16
17
18
13
5
4
-1
-6
-8
-8
-10
-13
-11
-7
-11
-18
-20
-18
-19
-25
-23
-13
-9
-7
-4
-7
-9
-8
-6
1
8
8
2
-1
5
6
1
-2
-2
-7
-9
-10
-19
-23
-14
-10
-16
-14
-13
-17
-21
-17
-14
-10
-4
2
2
0
0
0
-4
-5
0
-3
-10
-12
-12
-13
-16
-21
-30
-32
-38
-47
-54
-55
-57
-59
-66
-57
-52
-59
-65
-70
-73
-59
-43
-21
20
103
251
439
550
522
403
225
-4
-168
-233
-211
-167
-150
-145
-132
-130
-118
-112
-118
-120
-115
-118
-120
-108
-103
-95
-96
-106
-102
-97
-100
-103
-101
-99
-102
-103
-94
-80
-77
-80
-77
-71
-68
-71
-59
-43
-40
-36
-21
-6
5
9
15
32
49
54
56
63
72
70
64
61
58
58
47
38
38
34
34
23
21
25
30
23
13
8
5
-3
-7
-13
-23
-28
-27
-27
-31
-35
-25
-20
-21
-18
-5
-5
-12
-14
-13
-4
0
1
-4
-1
3
8
8
1
1
4
5
-1
-5
-13
-17
-10
-1
0
-15
-20
-19
-21
-22
-14
-18
-21
-25
-12
-5
-7
-14
-22
-4
6
3
-3
-9
-17
-13
-7
-7
-13
-16
-27
-26
-28
-32
-33
-38
-44
-51
-53
-52
-53
-53
-52
-63
-63
-54
-60
-76
-77
-64
-45
-6
73
199
244
519
568
494
351
122
-98
-207
-218
-181
-157
-144
-131
-124
-114
-105
-106
-107
-102
-104
-101
-103
-106
-101
-101
-103
-106
-102
-94
-95
-100
-95
-88
-85
-85
-85
-82
-80
-76
-74
-67
-58
-54
-54
-44
-38
-28
-17
-6
13
18
37
53
61
60
63
68
65
57
49
51
55
52
43
33
33
40
33
25
23
22
15
2
0
0
0
-8
-13
-14
-23
-27
-29
-28
-32
-38
-36
-31
-37
-37
-27
-18
-19
-21
-14
1
11
11
4
4
7
8
4
4
4
0
-5
-7
-8
-9
-11
-14
-9
-5
0
6
3
-13
-29
-36
-31
-25
-23
-17
-11
-16
-18
-14
-5
-8
-21
-16
-7
-2
2
-4
-18
-22
-21
-22
-27
-41
-46
-45
-51
-55
-57
-61
-62
-64
-54
-52
-58
-60
-60
-71
-69
-51
-18
39
116
248
417
530
510
395
221
-4
-164
-227
-205
-163
-147
-137
-123
-111
-108
-104
-104
-101
-98
-98
-96
-92
-92
-92
-86
-84
-86
-90
-88
-87
-91
-92
-91
-89
-84
-75
-69
-66
-70
-72
-61
-56
-54
-49
-40
-27
-14
-4
5
18
31
41
45
53
67
75
76
74
73
67
55
49
52
54
53
34
30
27
22
18
15
12
7
-1
-7
-7
-16
-28
-31
-27
-25
-31
-41
-40
-32
-32
-39
-37
-34
-36
-32
-18
-13
-13
-14
-9
-2
-5
-5
-3
-3
0
-3
-7
-5
-8
-13
-20
-18
-19
-22
-25
-29
-24
-20
-7
-6
-11
-15
-16
-19
-20
-15
-14
-8
-1
-2
-10
-10
-3
-7
-11
-17
-27
-28
-30
-35
-34
-35
-37
-41
-43
-50
-64
-76
-76
-64
-67
-69
-71
-73
-78
-84
-75
-46
7
74
174
338
509
580
525
409
202
124
-202
-234
-192
-158
-150
-141
-130
-125
-131
-130
-119
-113
-115
-117
-116
-120
-117
-108
-102
-102
-103
-104
-105
-96
-95
-104
-99
-87
-84
-86
-82
-77
-75
-74
-67
-54
-48
-46
-34
-21
-5
4
9
19
35
45
53
63
68
67
71
75
77
73
63
54
49
38
34
38
33
24
20
23
20
14
3
-1
0
0
-6
-13
-12
-11
-13
-26
-29
-23
-27
-33
-30
-27
-29
-29
-27
-21
-16
-18
-16
-11
-6
-5
-3
1
3
-4
-6
-1
-2
-5
-16
-18
-18
-24
-29
-29
-30
-28
-19
-18
-11
-6
-6
-11
-10
-12
-12
-5
-1
-1
-11
-14
-6
-5
-6
-12
-20
-21
-20
-30
-38
-40
-46
-50
-47
-44
-54
-63
-65
-62
-63
-62
-66
-72
-68
-72
-82
-73
-48
-40
54
158
313
473
541
496
397
201
-51
-197
-226
-195
-168
-154
-138
-130
-123
-116
-111
-110
-114
-114
-111
-110
-111
-116
-115
-105
-102
-108
-108
-104
-103
-104
-106
-98
-92
-88
-79
-75
-78
-77
-78
-75
-69
-63
-59
-43
-25
-20
-5
9
19
27
40
51
57
61
64
60
62
65
64
63
59
58
54
46
44
44
32
16
10
10
10
8
9
9
-2
-10
-10
-13
-15
-19
-26
-26
-26
-31
-33
-22
-18
-26
-29
-28
-24
-21
-18
-14
-10
-9
-17
-18
-12
-12
-15
-9
-5
-4
-5
-11
-15
-14
-18
-22
-23
-26
-27
-25
-22
-15
-13
-19
-21
-13
-11
-13
-2
10
8
-3
-8
-7
-11
-13
-16
-21
-21
-18
-21
-20
-9
-21
-44
-55
-62
-66
-73
-69
-67
-67
-74
-73
-67
-72
-82
-82
-68
-42
-9
51
154
319
492
575
527
423
226
-26
-178
-218
-187
-149
-134
-131
-130
-128
-125
-127
-131
-124
-121
-117
-112
-110
-108
-104
-106
-109
-108
-108
-110
-113
-106
-99
-92
-86
-88
-88
-85
-86
-82
-78
-68
-61
-51
-41
-36
-29
-26
-14
1
17
32
41
50
61
63
64
65
63
62
56
57
60
61
52
48
47
39
31
28
26
22
16
9
8
8
2
-2
-4
0
-5
-12
-14
-12
-17
-21
-18
-16
-16
-22
-21
-16
-11
-14
-12
-6
-4
-4
-2
0
0
-1
-2
-1
2
0
-4
-3
-1
-5
-16
-19
-17
-16
-18
-17
-13
-10
-14
-19
-18
-17
-16
-18
-11
-5
-2
-2
-2
0
-2
-4
1
1
-11
-18
-20
-29
-32
-39
-46
-48
-45
-45
-52
-55
-57
-62
-64
-60
-60
-69
-70
-67
-69
-67
-45
-18
22
102
241
414
518
533
382
222
4
-161
-233
-223
-180
-162
-151
-140
-124
-115
-113
-117
-120
-115
-112
-115
-116
-114
-113
-110
-106
-108
-111
-111
-105
-99
-97
-98
-96
-94
-86
-84
-85
-81
-77
-77
-73
-65
-56
-51
-44
-32
-16
-6
0
11
27
31
41
48
53
51
43
42
46
44
43
40
41
42
35
23
16
16
10
3
0
2
0
-6
-12
-16
-18
-27
-27
-23
-26
-32
-32
-29
-28
-25
-22
-19
-18
-19
-16
-13
-10
-8
-7
-4
-2
-3
-5
-4
-2
-2
-4
-3
-4
-4
-11
-14
-12
-12
-16
-20
-26
-36
-43
-42
-35
-33
-31
-25
-23
-28
-25
-22
-20
-14
-13
-13
-18
-20
-17
-10
-11
-20
-27
-30
-31
-32
-36
-47
-56
-57
-58
-63
-55
-53
-63
-67
-68
-63
-53
-51
-61
-68
-72
-58
-38
4
88
223
397
536
550
444
265
20
-161
-247
-245
-203
-176
-158
-142
-131
-122
-112
-109
-109
-108
-106
-107
-108
-106
-107
-107
-107
-100
-97
-99
-98
-92
-88
-90
-88
-86
-86
-88
-85
-80
-77
-72
-70
-67
-63
-45
-30
-28
-21
-5
5
18
32
41
47
51
54
59
65
61
54
44
42
40
33
30
28
27
15
13
13
6
0
-2
0
-2
-11
-19
-21
-29
-37
-37
-35
-37
-35
-35
-35
-32
-29
-29
-25
-15
-12
-13
-11
-10
-6
-1
1
2
1
1
0
1
-1
-5
-6
-8
-16
-21
-20
-22
-26
-33
-35
-27
-18
-17
-26
-28
-25
-24
-23
-23
-23
-25
-19
-11
-7
-13
-22
-20
-13
-15
-19
-21
-21
-24
-33
-41
-46
-49
-51
-67
-67
-62
-60
-62
-66
-63
-62
-66
-70
-71
-78
-80
-65
-38
0
71
183
347
498
533
444
300
81
6
-238
-248
-202
-179
-167
-144
-124
-117
-114
-111
-109
-111
-115
-117
-116
-113
-111
-109
-111
-110
-109
-107
-104
-103
-103
-96
-94
-88
-85
-88
-82
-71
-70
-71
-70
-62
-58
-56
-42
-29
-21
-11
2
15
28
39
43
48
57
59
59
56
54
49
44
43
40
36
30
24
19
10
1
-2
-1
0
-1
-13
-21
-24
-29
-32
-33
-36
-37
-47
-50
-47
-50
-49
-41
-35
-29
-27
-27
-24
-20
-15
-14
-12
-13
-11
2
12
8
-6
-15
-19
-20
-21
-25
-25
-24
-23
-27
-27
-27
-26
-26
-26
-19
-16
-27
-35
-28
-23
-21
-19
-11
-12
-18
-16
-8
-6
-6
-16
-27
-27
-24
-32
-34
-31
-44
-51
-54
-56
-60
-72
-73
-67
-67
-67
-67
-69
-73
-80
-84
-69
-36
-24
81
206
384
540
571
492
356
119
-121
-220
-222
-187
-166
-155
-143
-136
-127
-118
-116
-115
-115
-113
-109
-107
-107
-110
-111
-109
-111
-114
-106
-98
-92
-89
-91
-91
-92
-89
-85
-79
-74
-78
-77
-67
-57
-54
-46
-30
-19
-15
1
15
33
45
51
58
67
71
71
69
70
64
56
58
60
49
39
39
36
33
30
21
12
8
5
0
-3
-7
-16
-23
-20
-18
-22
-30
-32
-30
-37
-36
-31
-26
-21
-24
-26
-20
-13
-14
-17
-11
-5
-4
-14
-12
-9
-5
-2
-4
-8
-9
-10
-14
-18
-22
-27
-28
-27
-21
-18
-16
-12
-10
-11
-14
-10
-5
-4
-16
-14
-12
-13
-16
-14
-14
-14
-28
-30
-18
-13
-22
-28
-32
-40
-50
-54
-56
-61
-59
-62
-63
-68
-69
-71
-69
-63
-70
-81
-72
-51
-22
36
140
287
455
556
534
434
270
13
-174
-220
-194
-161
-150
-143
-133
-130
-119
-112
-108
-116
-120
-119
-113
-110
-109
-108
-105
-102
-107
-108
-102
-97
-98
-99
-102
-103
-97
-88
-86
-84
-81
-74
-66
-57
-54
-55
-44
-27
-11
-2
7
21
32
39
49
61
68
69
68
72
75
67
58
56
56
58
44
41
40
36
35
32
25
13
11
7
7
9
5
-2
-7
-11
-17
-23
-28
-28
-28
-32
-29
-22
-21
-25
-19
-14
-12
-10
-10
-8
-8
-7
-2
-1
-4
-6
-3
0
-3
-8
-11
-12
-13
-21
-24
-22
-18
-19
-23
-25
-23
-19
-11
-6
-6
-4
-7
-5
1
1
-4
-11
-12
-3
-3
-12
-16
-18
-21
-24
-22
-23
-26
-41
-45
-51
-59
-57
-62
-62
-64
-71
-66
-64
-68
-70
-77
-66
-44
-6
53
161
322
490
564
518
403
360
-39
-198
-233
-201
-168
-157
-141
-127
-123
-119
-111
-108
-113
-118
-117
-116
-113
-110
-104
-102
-104
-102
-99
-100
-103
-106
-99
-96
-95
-95
-90
-84
-81
-81
-73
-67
-65
-60
-50
-35
-29
-19
-6
7
20
25
35
50
59
60
59
62
66
63
58
58
58
54
49
43
38
32
28
31
34
27
22
17
16
14
5
-4
-8
-10
-12
-18
-20
-20
-20
-21
-17
-15
-13
-17
-18
-15
-15
-16
-11
-7
-2
0
2
8
4
0
-1
0
-1
-2
-10
-12
-6
-7
-13
-13
-14
-15
-16
-19
-18
-17
-22
-23
-19
-14
-13
-9
0
4
4
0
0
0
-1
0
-2
-8
-12
-18
-22
-27
-38
-44
-46
-47
-46
-48
-55
-56
-56
-60
-65
-66
-67
-68
-69
-73
-65
-60
-16
34
129
280
454
551
514
391
208
-24
-180
-235
-213
-169
-149
-138
-131
-124
-116
-112
-111
-112
-113
-108
-105
-108
-107
-102
-102
-107
-108
-101
-98
-98
-95
-91
-89
-90
-90
-85
-88
-90
-84
-73
-66
-61
-59
-48
-38
-35
-24
-9
3
16
27
42
52
56
61
63
68
68
67
62
56
53
45
40
37
37
37
31
27
24
23
13
8
2
0
0
-4
-9
-16
-20
-22
-22
-23
-26
-28
-24
-19
-17
-20
-19
-17
-14
-10
-4
-4
-6
-6
1
7
7
3
2
1
4
2
-2
-5
-9
-11
-16
-14
-14
-17
-20
-20
-21
-22
-19
-14
-12
-12
-19
-13
-10
-15
-15
-7
0
-4
-6
-5
-4
-3
-10
-18
-21
-21
-26
-34
-38
-40
-42
-49
-53
-54
-56
-58
-60
-63
-61
-58
-59
-63
-66
-68
-60
-35
10
81
201
377
531
548
462
300
63
-144
-233
-234
-195
-183
-157
-145
-126
-111
-107
-103
-100
-104
-107
-100
-98
-102
-103
-103
-102
-102
-99
-96
-98
-93
-90
-90
-93
-91
-88
-83
-81
-77
-76
-77
-66
-55
-47
-44
-40
-25
-10
3
13
26
40
46
47
53
57
56
58
54
51
49
50
49
38
38
31
22
21
19
15
9
6
1
-8
-14
-9
-7
-18
-24
-24
-24
-29
-28
-33
-35
-35
-35
-36
-25
-16
-14
-16
-13
-10
-7
-4
-3
-1
-1
-1
1
-1
-2
-5
-8
-5
-6
-10
-16
-18
-19
-16
-20
-24
-26
-25
-19
-16
-21
-24
-19
-9
-12
-14
-6
-4
-8
-16
-18
-11
-8
-12
-20
-18
-16
-17
-27
-31
-34
-43
-53
-55
-56
-58
-60
-62
-57
-59
-67
-67
-68
-77
-78
-63
-34
-1
54
148
301
470
515
500
376
171
-60
-197
-231
-202
-167
-153
-138
-124
-115
-112
-107
-103
-109
-108
-107
-101
-97
-102
-106
-98
-89
-87
-94
-95
-90
-86
-86
-89
-86
-86
-86
-76
-66
-64
-65
-63
-54
-45
-39
-36
-22
-5
3
14
28
43
49
71
73
72
66
59
59
63
59
54
50
50
47
39
33
33
27
16
13
11
4
-3
-8
-12
-11
-10
-23
-26
-28
-33
-40
-37
-31
-34
-36
-35
-27
-25
-24
-20
-14
-11
-10
-10
-6
1
5
3
0
2
3
-1
-1
0
-3
-8
-12
-13
-14
-20
-24
-17
-14
-19
-17
-8
-8
-12
-12
-11
-6
-2
-1
-6
-10
-12
-14
-13
-10
-12
-17
-17
-15
-17
-24
-31
-32
-44
-52
-56
-55
-54
-59
-59
-56
-62
-66
-67
-68
-73
-73
-50
-18
38
115
238
406
539
537
447
286
46
-152
-228
-217
-178
-158
-146
-133
-121
-112
-108
-110
-110
-109
-109
-111
-109
-106
-105
-105
-109
-107
-101
-97
-91
-87
-90
-94
-94
-84
-80
-83
-86
-75
-66
-64
-64
-51
-41
-38
-32
-24
-7
9
20
32
46
48
52
67
75
73
68
66
66
67
65
59
53
46
36
32
29
26
25
16
14
17
8
-2
-8
-11
-16
-25
-26
-20
-25
-31
-33
-30
-28
-29
-30
-21
-14
-14
-18
-16
-12
-12
-16
-10
-2
-5
-8
-7
0
1
-7
-16
-10
-6
-12
-16
-17
-20
-21
-19
-13
-7
-8
-10
-4
-1
-3
-10
-1
8
4
-7
-13
-12
-7
-7
-18
-20
-14
-19
-25
-27
-29
-43
-49
-50
-55
-61
-67
-71
-64
-61
-59
-57
-53
-58
-71
-68
-51
-16
42
138
282
454
560
540
444
282
23
-173
-222
-196
-163
-151
-141
-129
-126
-118
-115
-113
-114
-113
-110
-107
-107
-109
-109
-100
-99
-103
-103
-100
-98
-97
-94
-88
-84
-89
-84
-78
-78
-79
-67
-59
-52
-45
-41
-33
-21
-7
9
25
36
37
39
50
59
64
70
74
80
74
71
71
68
67
65
53
50
47
38
33
31
29
18
3
2
12
15
8
3
-6
-14
-17
-16
-16
-18
-21
-24
-22
-23
-23
-27
-27
-21
-18
-16
-16
-14
-9
-8
-4
-1
-4
-5
-8
-9
-8
-10
-15
-14
-10
-12
-12
-12
-11
-12
-15
-10
-5
-9
-10
-9
-14
-11
-11
-13
-7
-4
-4
1
1
-12
-17
-17
-16
-21
-30
-39
-45
-48
-50
-53
-56
-58
-60
-62
-62
-61
-65
-70
-78
-81
-77
-62
-39
16
95
222
393
531
548
464
328
103
-116
-170
-226
-185
-160
-149
-139
-125
-119
-122
-124
-122
-120
-116
-119
-121
-115
-113
-114
-110
-104
-102
-106
-112
-106
-97
-96
-95
-92
-94
-95
-90
-82
-71
-68
-66
-56
-49
-41
-30
-19
-8
3
12
25
39
44
50
56
59
61
61
59
61
56
55
50
50
50
41
34
32
31
28
28
24
23
20
15
7
6
7
1
-6
-12
-17
-21
-21
-24
-24
-22
-23
-25
-17
-14
-15
-12
-10
-14
-15
-7
-2
0
0
0
-2
-4
-4
-6
-2
-3
-5
-13
-20
-15
-12
-11
-9
-6
-4
-4
-3
-1
-4
-6
1
8
4
0
-1
3
8
8
0
-8
-8
-8
-22
-25
-28
-38
-44
-47
-48
-55
-58
-56
-57
-53
-58
-64
-59
-58
-69
-76
-64
-38
9
86
214
392
450
570
489
354
140
-90
-205
-215
-177
-152
-144
-139
-134
-126
-117
-113
-109
-110
-112
-109
-106
-102
-101
-105
-106
-107
-112
-109
-103
-99
-96
-93
-86
-89
-90
-84
-76
-73
-71
-69
-61
-54
-52
-47
-31
-16
-7
5
18
29
33
50
61
69
70
67
65
68
69
68
66
64
61
54
48
46
37
31
32
33
30
25
17
11
9
8
-2
-5
-7
-11
-15
-15
-14
-17
-22
-23
-21
-22
-20
-16
-11
-8
-10
-11
-7
-4
-5
-5
-6
-4
-3
-8
-3
0
-5
-8
-8
-10
-14
-20
-20
-17
-14
-17
-18
-10
-7
-14
-17
-13
-11
-10
-7
-4
-3
-5
-12
-12
-5
-9
-17
-20
-21
-26
-36
-43
-45
-44
-52
-58
-60
-63
-64
-70
-71
-64
-62
-65
-67
-64
-64
-57
-36
-1
55
158
322
484
526
453
309
96
-113
-228
-252
-208
-168
-160
-150
-135
-124
-122
-120
-117
-115
-113
-119
-112
-107
-108
-109
-106
-105
-106
-105
-100
-95
-96
-93
-80
-74
-76
-88
-91
-90
-87
-84
-77
-66
-55
-51
-38
-34
-21
-5
2
11
23
30
33
40
47
52
52
49
47
39
33
31
31
29
23
19
20
22
21
12
5
2
-1
-6
-10
-12
-16
-23
-23
-17
-21
-29
-31
-25
-23
-23
-22
-17
-14
-10
-6
0
4
6
0
1
6
2
-4
-2
0
-2
-2
-2
-6
-12
-17
-14
-11
-14
-16
-16
-16
-16
-15
-18
-23
-21
-19
-19
-15
-9
-7
-10
-10
-10
-7
-5
0
-5
-9
-18
-28
-34
-36
-38
-43
-47
-55
-63
-57
-52
-51
-53
-64
-62
-62
-68
-73
-76
-69
-53
-34
15
97
228
404
546
553
457
280
35
-160
-244
-238
-196
-168
-151
-147
-126
-117
-112
-107
-106
-99
-99
-109
-114
-110
-101
-103
-105
-100
-92
-92
-92
-93
-92
-91
-95
-89
-80
-78
-78
-70
-66
-61
-60
-53
-45
-32
-20
-15
-6
10
24
27
30
49
65
64
63
67
66
61
57
56
53
50
44
40
35
34
28
20
16
11
3
-3
-7
-12
-19
-27
-23
-25
-36
-39
-36
-37
-37
-38
-36
-31
-28
-25
-22
-20
-18
-14
-3
2
-2
-6
-4
-1
-6
-5
-1
-2
-10
-13
-15
-18
-19
-18
-22
-27
-26
-25
-21
-21
-21
-25
-26
-20
-16
-16
-15
-12
-14
-22
-26
-18
-11
-10
-18
-28
-31
-26
-24
-29
-35
-40
-44
-56
-57
-61
-66
-69
-70
-68
-68
-70
-69
-70
-75
-73
-51
-22
20
95
217
388
516
513
416
258
26
-48
-233
-220
-182
-166
-155
-141
-130
-123
-120
-112
-104
-105
-115
-117
-110
-109
-109
-102
-100
-98
-101
-101
-100
-101
-101
-100
-95
-89
-86
-87
-84
-78
-76
-72
-64
-55
-46
-38
-30
-21
-12
-1
14
30
39
46
49
51
57
58
52
56
55
52
53
48
44
40
30
25
23
15
5
2
5
5
-3
-9
-10
-15
-24
-29
-29
-32
-34
-35
-37
-36
-32
-28
-30
-29
-25
-21
-16
-13
-10
-11
-10
-4
0
-5
-8
-3
1
1
-3
-6
-8
-9
-14
-10
-2
-1
-7
-13
-18
-19
-22
-19
-12
-9
-9
-4
-1
-7
-10
-10
-5
-1
-7
-17
-18
-17
-20
-32
-34
-34
-42
-46
-48
-46
-57
-69
-71
-67
-68
-72
-71
-66
-69
-73
-61
-33
9
72
179
342
509
551
508
393
181
-74
-213
-228
-194
-163
-149
-139
-131
-121
-116
-115
-115
-113
-114
-112
-109
-108
-104
-104
-104
-103
-103
-108
-100
-88
-87
-89
-86
-81
-81
-83
-81
-77
-70
-64
-61
-52
-42
-35
-26
-10
1
8
18
32
45
49
63
70
73
73
72
75
77
73
66
61
63
58
48
42
35
29
26
19
17
12
6
1
-1
-3
-4
-14
-16
-12
-19
-23
-24
-26
-27
-27
-25
-25
-25
-23
-19
-16
-14
-17
-18
-12
-6
-7
-9
-7
-9
-10
-10
-12
-12
-17
-22
-20
-19
-21
-21
-20
-15
-19
-27
-19
-6
-9
-14
-10
-2
-1
-4
-10
-15
-14
-15
-11
-15
-19
-21
-26
-34
-36
-36
-44
-53
-55
-54
-57
-57
-56
-65
-67
-66
-65
-63
-70
-79
-75
-56
-50
10
79
195
351
498
535
471
354
148
-88
-209
-218
-179
-160
-151
-141
-138
-133
-121
-117
-115
-114
-114
-114
-114
-115
-115
-116
-118
-113
-107
-101
-101
-103
-103
-101
-99
-88
-74
-71
-75
-85
-89
-79
-71
-66
-55
-46
-43
-41
-19
-2
13
25
31
45
59
61
61
59
62
65
64
61
57
57
51
41
41
43
34
31
37
33
30
16
18
23
13
0
-4
-5
-10
-17
-21
-21
-22
-27
-29
-23
-18
-21
-23
-27
-28
-19
-15
-13
-6
-4
-7
-8
-5
-2
-2
-5
-4
-4
-11
-14
-15
-18
-20
-18
-15
-11
-12
-14
-7
-6
-10
-12
-12
-8
-6
1
2
4
-2
-7
-2
4
-10
-29
-24
-16
-19
-31
-39
-44
-52
-55
-60
-59
-57
-61
-64
-61
-58
-59
-67
-69
-66
-69
-58
-27
26
115
247
425
563
561
464
314
80
-139
-233
-227
-180
-156
-151
-143
-134
-120
-115
-116
-118
-114
-111
-115
-114
-109
-108
-107
-108
-109
-106
-104
-99
-97
-96
-96
-91
-87
-85
-86
-86
-77
-71
-70
-66
-59
-48
-37
-30
-18
-3
6
17
29
39
48
57
65
70
71
67
65
67
67
61
56
54
54
53
42
36
35
30
20
16
14
13
12
10
7
2
-7
-13
-12
-18
-23
-25
-23
-22
-25
-27
-23
-19
-19
-21
-19
-15
-14
-16
-12
-8
-9
-10
-7
-4
-3
-8
-12
-6
-6
-12
-17
-18
-20
-27
-26
-17
-11
-10
-13
-16
-16
-18
-18
-13
-7
-5
-4
-8
-2
0
2
-2
-10
-16
-23
-28
-27
-32
-42
-51
-48
-49
-51
-60
-60
-58
-63
-63
-64
-65
-66
-71
-79
-75
-50
-24
24
117
263
439
546
500
380
201
-28
-191
-239
-243
-185
-164
-145
-135
-128
-122
-117
-116
-116
-118
-117
-120
-119
-115
-112
-114
-116
-108
-102
-100
-104
-108
-103
-97
-96
-92
-91
-87
-82
-81
-72
-64
-61
-60
-51
-41
-34
-29
-16
1
12
20
28
38
50
58
57
57
60
61
53
50
49
43
38
34
29
32
32
29
28
15
2
-4
-2
-4
-12
-14
-17
-19
-23
-24
-20
-18
-19
-25
-26
-21
-22
-18
-9
-5
-4
-3
-5
-1
4
2
2
8
9
1
-7
-7
-6
-6
-7
-10
-15
-18
-23
-19
-11
-12
-21
-22
-12
-10
-15
-18
-16
-8
-7
-12
-6
1
-3
-12
-9
1
-3
-20
-24
-22
-23
-23
-21
-30
-40
-46
-48
-46
-52
-61
-63
-59
-57
-63
-66
-63
-63
-67
-62
-45
-18
27
108
249
431
486
540
436
255
3
-183
-243
-225
-184
-164
-153
-136
-121
-118
-115
-110
-102
-96
-100
-102
-98
-100
-100
-98
-94
-93
-98
-97
-91
-86
-86
-85
-80
-81
-82
-77
-72
-66
-61
-57
-52
-45
-41
-33
-21
-10
1
16
31
39
42
51
53
62
67
67
66
63
55
51
51
54
48
40
40
36
30
23
17
13
4
-6
-7
-6
-10
-14
-23
-23
-26
-34
-34
-29
-34
-35
-31
-29
-26
-17
-14
-13
-11
-9
-8
-3
0
1
2
0
1
0
0
-8
-3
-1
-8
-14
-16
-18
-20
-22
-18
-9
-9
-13
-15
-16
-15
-13
-15
-9
-4
-7
-14
-10
-5
-5
-13
-13
-18
-21
-23
-21
-18
-26
-45
-48
-46
-50
-55
-60
-55
-54
-61
-67
-69
-70
-68
-74
-72
-58
-52
2
71
190
359
507
539
465
311
77
-132
-227
-231
-190
-160
-147
-141
-134
-120
-108
-104
-107
-111
-109
-109
-109
-112
-108
-106
-108
-105
-102
-99
-101
-104
-106
-100
-96
-96
-89
-82
-82
-84
-76
-65
-58
-54
-48
-41
-32
-29
-19
-8
8
22
31
37
54
63
61
61
60
59
60
56
49
48
43
34
30
28
25
19
13
14
15
-4
-11
-10
-18
-28
-30
-29
-31
-36
-37
-34
-35
-40
-40
-34
-33
-30
-28
-18
-13
-12
-12
-10
-8
-9
-12
-9
-5
-6
-9
-7
-6
-9
-11
-14
-14
-19
-25
-21
-12
-6
-6
-8
-10
-6
-4
-6
-2
1
0
-8
-13
-15
-10
-9
-12
-18
-22
-26
-26
-24
-32
-44
-50
-56
-61
-65
-59
-56
-54
-56
-59
-58
-64
-67
-76
-74
-57
-32
13
92
219
393
544
558
482
340
92
-142
-234
-228
-190
-165
-149
-135
-130
-124
-113
-108
-106
-111
-110
-105
-108
-108
-105
-103
-103
-104
-102
-101
-101
-99
-99
-94
-90
-92
-86
-75
-71
-71
-68
-62
-53
-51
-44
-34
-22
-10
1
10
23
35
50
63
71
71
73
71
74
75
69
64
61
57
52
49
45
39
37
23
20
26
23
14
9
6
2
-7
-9
-3
-8
-19
-23
-25
-24
-25
-27
-24
-21
-23
-24
-19
-16
-17
-19
-13
-8
-6
-10
-10
-6
-9
-11
-7
-6
-12
-17
-23
-17
-13
-12
-13
-15
-11
-12
-16
-13
-10
-10
-16
-9
-4
-4
-3
0
2
2
0
-8
-19
-29
-32
-31
-33
-40
-48
-55
-55
-52
-58
-66
-65
-63
-64
-73
-75
-75
-75
-80
-84
-74
-53
-22
36
123
258
422
537
527
441
282
38
-151
-222
-208
-169
-146
-142
-141
-133
-125
-116
-122
-128
-131
-126
-130
-132
-120
-115
-111
-108
-106
-105
-105
-107
-106
-101
-98
-92
-91
-92
-90
-90
-84
-81
-80
-73
-65
-53
-35
-29
-19
-6
3
15
28
37
46
52
56
55
56
57
57
51
54
56
54
47
42
44
40
33
32
29
24
17
15
14
11
1
-2
0
-1
-12
-20
-23
-28
-29
-24
-19
-22
-24
-27
-24
-19
-18
-18
-16
-10
-11
-10
-8
-7
-1
-1
-7
-3
0
2
-3
-5
-9
-16
-23
-23
-17
-15
-8
-6
-6
-10
-14
-16
-12
-2
0
-4
-4
-6
-11
-8
-1
-4
-10
-11
-19
-29
-35
-39
-37
-43
-46
-60
-64
-62
-64
-66
-67
-60
-61
-64
-68
-74
-74
-60
-30
23
102
244
426
546
531
432
278
43
-154
-199
-221
-178
-155
-149
-142
-132
-120
-117
-120
-122
-118
-117
-119
-120
-114
-115
-114
-104
-105
-107
-105
-104
-101
-97
-96
-98
-96
-93
-90
-88
-82
-74
-73
-72
-66
-53
-45
-36
-23
-8
4
10
24
35
43
45
49
61
65
65
53
53
58
56
54
44
36
36
31
24
22
21
14
12
11
4
0
-6
-10
-10
-16
-24
-20
-22
-26
-31
-28
-25
-26
-26
-21
-17
-15
-15
-14
-12
-12
-12
-13
-6
1
0
-2
-4
-8
-9
-11
-14
-16
-15
-19
-23
-18
-9
-9
-7
-9
-17
-20
-18
-14
-10
-5
-1
-3
-9
-13
-13
-7
-10
-17
-20
-18
-17
-18
-35
-34
-29
-35
-48
-53
-57
-65
-70
-71
-72
-71
-72
-71
-70
-75
-70
-54
-24
34
126
275
454
547
555
389
226
-2
-171
-241
-210
-162
-146
-143
-142
-134
-123
-121
-122
-121
-119
-123
-125
-118
-116
-117
-115
-111
-117
-119
-113
-109
-104
-101
-101
-96
-90
-92
-93
-93
-85
-82
-75
-64
-50
-49
-52
-44
-33
-22
-2
13
25
35
37
37
44
52
56
54
55
56
49
48
47
49
46
34
33
31
21
11
8
9
5
-2
-2
1
-5
-8
-14
-15
-13
-17
-21
-17
-18
-21
-21
-19
-17
-18
-22
-22
-13
-4
-8
-9
-4
-1
0
-2
-1
-3
-4
-10
-8
-6
-11
-14
-16
-14
-19
-22
-22
-15
-12
-16
-16
-15
-11
-10
-9
-3
-2
-8
-10
-8
-8
-8
-6
-15
-18
-22
-31
-32
-33
-37
-47
-55
-55
-54
-53
-50
-52
-52
-58
-62
-65
-64
-68
-73
-63
-40
-33
17
95
233
402
522
516
414
231
-9
-181
-253
-241
-200
-176
-153
-139
-127
-118
-112
-107
-110
-115
-111
-109
-109
-108
-107
-103
-103
-107
-106
-101
-104
-104
-101
-98
-93
-91
-86
-83
-88
-86
-76
-66
-62
-61
-53
-39
-25
-21
-5
5
17
22
27
36
45
48
48
48
50
51
43
37
40
37
30
27
29
23
16
15
18
13
9
-5
-5
-11
-19
-22
-20
-16
-23
-26
-29
-29
-28
-25
-16
-12
-16
-17
-13
-3
-1
2
0
-3
-1
0
2
1
2
0
-5
-6
-9
-16
-18
-16
-13
-15
-25
-26
-24
-23
-21
-17
-14
-17
-18
-18
-16
-9
-6
-7
-9
-12
-12
-10
-5
-8
-19
-23
-18
-20
-27
-41
-52
-53
-51
-55
-60
-60
-61
-62
-62
-62
-60
-58
-68
-81
-75
-63
-47
-14
52
152
306
480
564
506
371
159
-72
-214
-243
-211
-172
-153
-139
-126
-121
-116
-115
-116
-110
-107
-108
-109
-108
-105
-101
-101
-104
-103
-98
-98
-100
-95
-89
-88
-89
-84
-76
-76
-76
-73
-73
-74
-65
-54
-35
-25
-20
-11
0
7
18
35
48
52
55
56
57
61
59
54
55
57
51
44
43
40
37
30
26
25
16
8
2
0
-1
-5
-8
-10
-16
-27
-29
-23
-28
-34
-37
-29
-23
-25
-24
-16
-11
-10
-8
-5
1
7
8
8
11
5
-3
-2
0
-6
-10
-8
-7
-10
-15
-18
-14
-19
-22
-19
-14
-6
-4
-12
-11
-8
-7
-12
-6
0
-3
-4
-6
-1
-1
-16
-28
-27
-27
-29
-31
-36
-42
-49
-53
-52
-54
-56
-59
-61
-58
-61
-69
-65
-59
-70
-70
-49
-17
33
113
245
409
520
483
379
205
-25
-190
-241
-220
-181
-172
-148
-129
-118
-114
-113
-112
-109
-110
-112
-110
-102
-100
-102
-104
-102
-101
-103
-98
-90
-88
-88
-89
-88
-85
-84
-78
-74
-71
-70
-64
-55
-44
-38
-33
-27
-15
2
14
28
42
42
42
51
61
68
67
64
61
53
50
45
44
50
38
25
25
25
16
13
12
9
0
-10
-12
-14
-21
-26
-31
-37
-36
-33
-34
-36
-34
-33
-34
-30
-24
-19
-18
-14
-6
-6
-7
-3
3
8
5
3
2
9
4
-7
-16
-22
-25
-23
-15
-8
-7
-6
-6
-7
-13
-18
-11
-3
-2
-2
-4
-5
-5
-4
-1
0
-10
-20
-22
-19
-22
-32
-42
-43
-44
-46
-58
-58
-56
-59
-61
-61
-61
-62
-68
-72
-72
-63
-44
-6
63
163
316
484
556
510
398
204
-47
-196
-223
-194
-158
-147
-144
-136
-122
-112
-113
-116
-112
-110
-109
-110
-111
-105
-103
-105
-96
-97
-103
-107
-100
-94
-94
-95
-91
-87
-82
-76
-72
-65
-59
-59
-57
-51
-35
-30
-24
-9
7
20
28
41
51
59
63
66
73
74
73
68
70
65
60
54
48
46
40
32
30
24
15
14
14
7
4
4
2
-2
-7
-15
-22
-21
-18
-18
-25
-27
-23
-16
-15
-16
-12
-6
-5
-8
-7
-5
-5
-2
2
1
2
3
1
-1
-8
-9
-5
-9
-12
-17
-12
-7
-7
-8
-8
-6
-9
-11
-7
1
6
0
-3
-6
-6
1
1
-7
-15
-18
-20
-23
-26
-27
-43
-47
-51
-57
-59
-60
-55
-61
-68
-66
-59
-62
-71
-78
-69
-53
-21
31
117
250
409
524
531
446
413
50
-159
-230
-220
-185
-161
-147
-133
-125
-118
-112
-114
-119
-119
-116
-116
-116
-113
-109
-105
-105
-107
-105
-103
-102
-101
-99
-94
-95
-93
-86
-79
-75
-72
-66
-59
-58
-58
-51
-39
-23
-11
1
16
26
32
41
54
61
62
67
70
74
72
66
63
65
56
53
47
45
45
35
31
30
20
12
12
12
12
8
2
0
-6
-9
-18
-16
-16
-21
-21
-20
-19
-20
-19
-16
-16
-14
-14
-12
-8
-6
-3
-2
-1
-5
-9
-2
2
-1
-4
-10
-8
-10
-12
-13
-7
-4
-5
-6
-6
-2
0
-2
0
5
4
-1
-6
2
5
-5
-14
-16
-12
-10
-23
-25
-28
-37
-44
-49
-53
-55
-57
-65
-59
-61
-58
-56
-55
-61
-69
-65
-44
-12
48
146
293
469
520
539
441
265
14
-166
-219
-196
-161
-152
-146
-134
-128
-125
-117
-112
-108
-107
-110
-113
-113
-114
-113
-109
-108
-107
-106
-99
-98
-106
-105
-97
-89
-87
-88
-83
-76
-73
-74
-69
-58
-51
-44
-34
-21
-13
-7
8
25
36
40
54
64
63
63
62
61
63
67
66
62
61
58
54
50
43
38
34
28
27
28
25
21
16
11
10
0
-3
-2
-7
-12
-14
-16
-20
-21
-16
-12
-12
-14
-14
-12
-8
-9
-9
-2
0
-2
-2
0
-1
-3
-6
-7
-4
-11
-14
-11
-5
-8
-10
-9
-8
-11
-15
-16
-10
-6
-2
0
0
-1
-4
-2
4
4
1
-16
-15
-12
-25
-32
-30
-34
-44
-51
-56
-58
-58
-63
-63
-62
-61
-63
-66
-65
-67
-73
-59
-36
-4
10
191
369
512
521
420
266
48
-143
-247
-240
-187
-161
-151
-139
-127
-118
-118
-117
-117
-116
-117
-115
-116
-117
-118
-112
-107
-107
-107
-105
-99
-95
-102
-106
-96
-87
-86
-86
-85
-77
-69
-65
-61
-57
-54
-46
-39
-24
-9
-5
6
19
32
44
48
53
61
58
51
51
54
49
45
42
40
38
30
27
26
20
13
9
5
-4
-7
-6
-8
-6
-7
-10
-14
-22
-26
-28
-29
-24
-22
-19
-14
-11
-7
-8
-5
3
6
4
1
0
0
0
3
5
2
0
-5
-8
-6
-7
-12
-17
-13
-13
-16
-14
-9
-7
-8
-6
-2
-3
-2
0
4
4
2
-5
-2
-3
-10
-14
-17
-16
-17
-29
-37
-39
-49
-54
-49
-52
-53
-52
-66
-68
-65
-61
-54
-61
-59
-57
-34
2
79
192
358
516
559
474
319
78
-136
-234
-242
-196
-161
-149
-136
-125
-117
-109
-110
-113
-110
-108
-107
-107
-102
-98
-101
-102
-97
-94
-94
-94
-92
-90
-90
-91
-88
-86
-79
-77
-74
-70
-63
-55
-47
-40
-36
-34
-11
4
13
21
29
42
54
57
57
63
64
63
61
59
53
55
56
45
34
28
23
21
19
18
15
3
5
5
-7
-20
-22
-19
-20
-25
-28
-28
-27
-33
-34
-27
-21
-19
-13
-5
-3
-4
-3
0
2
3
0
0
4
2
0
0
-2
-7
-13
-12
-9
-15
-22
-22
-15
-8
-7
-9
-4
-4
-6
-2
-1
-1
-1
-14
-13
-7
-9
-25
-37
-31
-24
-31
-37
-36
-36
-41
-50
-54
-55
-56
-59
-61
-63
-67
-72
-71
-70
-72
-85
-66
-33
9
78
198
367
511
541
453
305
70
-141
-230
-229
-193
-161
-140
-133
-131
-127
-123
-120
-116
-114
-117
-116
-110
-108
-109
-106
-106
-105
-103
-101
-97
-98
-99
-94
-90
-88
-86
-84
-86
-80
-75
-75
-68
-62
-61
-45
-27
-8
5
18
30
36
33
34
51
63
67
65
65
64
62
57
51
43
37
29
25
21
24
23
19
12
5
-2
-6
-6
-8
-18
-36
-35
-32
-36
-41
-39
-30
-29
-29
-28
-18
-12
-12
-9
-4
0
0
1
-5
-7
2
6
-3
-8
-3
-6
-12
-11
-6
-8
-8
-8
-8
-14
-13
-4
2
1
0
4
4
2
-7
-7
-6
-8
-13
-16
-13
-14
-20
-27
-34
-48
-57
-53
-48
-52
-63
-72
-68
-60
-59
-62
-61
-68
-72
-76
-56
-24
19
92
222
392
531
556
476
345
109
-125
-224
-216
-178
-161
-155
-149
-135
-125
-119
-113
-114
-115
-113
-113
-115
-119
-120
-115
-109
-106
-114
-113
-105
-99
-97
-99
-92
-87
-80
-78
-77
-72
-70
-70
-61
-49
-47
-28
-19
-9
0
8
20
37
46
58
65
71
70
67
65
64
61
63
65
63
57
47
40
44
44
42
31
27
19
5
3
7
4
-1
-3
-3
-3
-7
-18
-24
-20
-18
-23
-26
-22
-19
-17
-17
-16
-11
-10
-6
-4
-1
-4
-10
-5
0
-5
-11
-14
-11
-13
-16
-10
-7
-4
-3
-10
-12
-4
-4
-2
0
0
-2
-20
-16
-9
-10
-15
-12
-14
-18
-19
-22
-26
-31
-46
-55
-53
-56
-63
-65
-65
-67
-73
-75
-71
-66
-65
-75
-77
-63
-28
27
119
263
438
552
517
415
253
10
-172
-227
-208
-169
-156
-149
-143
-140
-130
-121
-127
-130
-129
-123
-120
-119
-115
-111
-116
-119
-115
-110
-107
-109
-113
-112
-108
-107
-104
-95
-87
-83
-82
-79
-68
-54
-50
-55
-44
-33
-23
-7
6
22
36
49
47
45
51
51
54
56
60
62
62
55
51
43
36
32
27
24
13
14
21
23
25
20
17
14
8
3
-3
-12
-26
-30
-25
-26
-31
-21
-9
-7
-15
-17
-10
-5
-6
-10
-8
-7
-4
-5
-8
-6
-7
-16
-14
-7
-10
-11
-4
-2
-8
-10
-9
-6
-4
-10
-11
-5
0
0
-6
-4
-2
-1
-2
-9
-16
-21
-24
-22
-23
-29
-40
-41
-44
-49
-55
-60
-63
-60
-56
-60
-65
-63
-61
-71
-73
-51
-29
8
80
204
371
512
516
424
276
55
-137
-219
-221
-179
-156
-140
-131
-132
-124
-114
-111
-111
-113
-113
-107
-108
-109
-107
-109
-111
-107
-100
-96
-95
-99
-99
-92
-88
-88
-85
-83
-80
-76
-72
-69
-63
-60
-48
-36
-26
-18
-5
5
14
26
32
42
51
56
56
52
54
57
56
51
49
45
44
39
34
35
34
27
25
19
10
11
18
14
-4
-16
-16
-8
-7
-12
-14
-14
-13
-13
-15
-13
-11
-10
-5
6
10
8
1
9
11
4
-2
0
4
3
1
-3
-1
-2
-5
-2
1
-2
-6
-7
-6
-7
-9
-10
-6
1
3
-2
-2
3
1
1
3
-8
-19
-19
-20
-25
-32
-42
-44
-44
-50
-54
-56
-52
-48
-55
-59
-56
-53
-52
-57
-66
-62
-51
-29
32
140
309
489
564
513
381
170
-67
-199
-228
-198
-167
-150
-137
-132
-128
-116
-107
-106
-111
-112
-109
-106
-111
-110
-97
-100
-103
-101
-98
-96
-94
-97
-94
-86
-85
-87
-81
-73
-74
-71
-63
-60
-59
-45
-40
-34
-24
-13
-3
17
31
35
42
50
57
60
58
64
58
51
49
44
44
48
42
35
32
31
19
16
17
10
0
-1
-5
-14
-22
-25
-20
-20
-25
-30
-28
-18
-23
-27
-14
-8
-11
-10
-2
-2
-3
-4
-9
-6
3
2
2
10
8
-1
-8
-3
1
-5
-9
-6
-6
-8
-11
-10
-10
-12
-9
0
2
3
1
-1
2
2
2
-1
-8
-14
-18
-24
-28
-33
-42
-47
-50
-50
-56
-59
-51
-46
-52
-56
-52
-56
-59
-70
-72
-57
-32
11
85
200
369
524
544
453
297
69
-141
-226
-224
-192
-167
-147
-135
-128
-114
-107
-103
-103
-98
-95
-98
-101
-104
-101
-98
-103
-104
-100
-93
-87
-84
-89
-94
-92
-88
-84
-76
-69
-67
-66
-60
-46
-41
-35
-36
-27
-17
-7
5
21
37
43
49
59
66
69
67
64
61
58
56
57
55
46
34
27
29
31
20
18
18
13
4
-6
-15
-15
-15
-19
-28
-32
-35
-33
-29
-23
-21
-22
-15
-12
-14
-11
-7
0
2
0
6
10
9
4
1
-2
-6
-7
-7
-5
-9
-7
-2
-1
-1
-2
-6
-4
-3
-4
0
0
4
4
-4
-6
-6
-4
-10
-17
-18
-19
-26
-26
-26
-34
-45
-50
-51
-58
-60
-59
-56
-52
-63
-68
-61
-66
-70
-76
-56
-29
21
101
231
403
529
537
455
312
72
-141
-222
-205
-168
-149
-145
-140
-126
-117
-117
-116
-114
-113
-113
-106
-100
-102
-107
-107
-107
-103
-104
-104
-97
-94
-95
-88
-84
-84
-84
-81
-77
-77
-74
-67
-57
-47
-44
-29
-19
-5
3
12
27
40
45
47
50
54
59
63
66
64
61
61
55
48
44
39
34
34
27
23
17
14
8
1
-3
-7
-8
-12
-13
-14
-15
-21
-28
-28
-24
-21
-23
-19
-15
-12
-8
-10
-7
-5
-3
-1
-3
-4
-4
-2
0
2
0
0
-1
1
0
-5
-11
-3
1
-6
-6
0
0
0
4
8
-2
-5
-1
3
1
-9
-16
-15
-12
-18
-30
-40
-39
-43
-50
-54
-55
-50
-50
-53
-58
-56
-54
-56
-59
-68
-71
-45
-3
70
179
338
502
570
509
403
200
-54
-195
-217
-180
-147
-136
-138
-135
-126
-115
-109
-111
-115
-114
-114
-111
-105
-99
-96
-98
-102
-101
-96
-93
-92
-88
-90
-96
-92
-84
-81
-77
-76
-68
-64
-62
-52
-40
-34
-32
-15
-2
12
25
31
42
54
60
57
58
63
64
59
60
62
64
55
49
48
48
43
35
31
34
33
20
20
22
19
12
5
1
-2
-9
-14
-7
-4
-11
-16
-15
-13
-11
-9
-5
-3
-6
-6
0
4
4
0
1
4
8
4
-1
-4
-2
0
-2
2
1
-2
3
8
5
0
-5
-5
7
11
4
0
-1
0
6
5
-2
-10
-11
-13
-15
-23
-32
-34
-32
-42
-54
-58
-55
-49
-57
-61
-60
-55
-60
-74
-77
-65
-60
-15
44
148
300
468
553
523
420
248
0
-168
-211
-185
-159
-144
-138
-132
-122
-117
-117
-120
-121
-117
-113
-113
-114
-109
-105
-106
-110
-108
-101
-102
-104
-100
-97
-96
-94
-92
-90
-86
-83
-74
-63
-59
-54
-50
-41
-26
-21
-5
7
21
32
34
38
40
44
53
62
68
64
61
54
52
52
51
50
45
45
42
33
35
35
31
11
12
20
15
12
15
2
-2
-7
-2
-5
-10
-14
-23
-17
-10
-4
-9
-10
-3
-2
1
7
4
2
-1
-1
9
10
3
-2
-1
-2
-6
-5
-1
-2
-3
-3
-3
-4
-8
-8
-7
-2
2
8
14
17
18
8
5
3
1
-7
-11
-15
-20
-26
-34
-42
-50
-54
-58
-59
-60
-63
-59
-56
-57
-53
-59
-65
-57
-51
-1
71
191
363
522
554
475
327
103
-95
-201
-218
-181
-154
-140
-132
-131
-121
-116
-119
-119
-111
-104
-99
-100
-113
-110
-111
-113
-111
-103
-99
-99
-101
-95
-89
-84
-85
-87
-86
-86
-84
-74
-64
-57
-52
-45
-36
-27
-24
-14
2
18
24
25
34
42
43
45
42
41
46
45
42
44
44
42
38
37
37
35
29
23
21
21
12
7
2
1
-1
-1
2
-2
-4
-1
3
4
6
9
10
16
14
11
18
21
19
17
22
24
23
10
16
24
16
9
6
6
5
1
-2
0
4
6
2
3
1
-2
3
15
17
10
5
8
15
16
4
-6
-7
-6
-12
-17
-16
-29
-43
-44
-43
-45
-52
-54
-45
-44
-59
-62
-59
-61
-70
-73
-55
-31
-23
92
224
395
536
554
470
333
104
-105
-194
-191
-157
-148
-148
-137
-127
-121
-115
-108
-107
-113
-115
-113
-112
-113
-117
-112
-107
-107
-107
-101
-96
-97
-100
-96
-92
-87
-88
-90
-84
-78
-73
-66
-58
-50
-43
-36
-24
-11
-8
9
24
32
42
46
52
56
54
55
52
49
48
45
46
44
45
40
37
41
43
40
39
38
28
23
11
11
10
8
6
5
3
0
-3
-6
-4
-10
-15
-16
-7
0
0
-1
8
12
11
11
13
10
7
4
8
5
-1
-2
-3
-5
-7
-13
-14
-11
-5
0
-4
-3
-2
-6
-7
-1
7
5
-2
-4
0
2
8
3
1
1
-7
-17
-20
-23
-36
-39
-42
-53
-60
-50
-48
-51
-52
-45
-45
-45
-49
-61
-66
-49
-42
0
75
204
379
528
541
454
295
68
-121
-217
-220
-183
-166
-150
-134
-126
-116
-110
-110
-116
-116
-111
-110
-109
-111
-113
-111
-110
-107
-105
-99
-95
-97
-93
-89
-88
-91
-90
-81
-75
-79
-77
-65
-62
-62
-49
-36
-25
-21
-12
2
17
23
25
32
41
40
40
37
39
44
42
42
43
32
27
32
32
26
16
9
9
14
16
3
3
0
-9
-15
-18
-2
-2
-8
-10
-7
-2
-2
-3
0
8
10
10
15
20
19
16
20
21
20
11
9
9
6
5
2
-2
-8
-11
-3
0
1
3
-2
-5
-1
0
-1
1
5
7
1
0
3
4
2
-3
-13
-18
-14
-16
-21
-28
-37
-38
-35
-44
-55
-60
-60
-58
-57
-60
-63
-62
-68
-72
-70
-57
-51
-6
65
186
353
512
555
492
365
161
-61
-188
-212
-180
-160
-147
-133
-129
-123
-114
-114
-117
-115
-119
-118
-118
-120
-116
-116
-111
-108
-108
-105
-98
-96
-95
-93
-89
-89
-93
-91
-88
-84
-73
-61
-51
-52
-43
-36
-31
-29
-11
2
11
18
24
35
50
50
48
48
54
59
52
48
47
40
29
25
29
36
28
14
16
22
23
13
8
5
3
0
0
1
-1
-9
-17
-15
-11
-9
-7
0
0
-1
0
2
7
10
9
9
12
12
4
7
14
12
7
3
0
-8
-15
-14
-10
-12
-13
-3
5
0
-3
-3
-1
-2
0
2
3
1
0
3
7
3
-6
-8
-10
-18
-25
-26
-32
-36
-47
-51
-46
-45
-46
-49
-51
-55
-57
-65
-64
-64
-67
-65
-28
25
104
229
396
543
569
485
355
129
-91
-196
-200
-163
-145
-143
-140
-130
-119
-118
-119
-113
-104
-115
-120
-118
-112
-111
-112
-103
-103
-103
-104
-108
-106
-98
-94
-88
-84
-82
-86
-83
-77
-74
-66
-56
-48
-38
-34
-33
-13
-1
13
29
39
44
47
48
49
51
58
61
59
49
46
49
42
38
38
36
33
36
35
31
29
25
23
22
17
15
9
7
2
-3
-6
-6
-2
-6
-7
-2
2
0
0
8
13
9
6
9
10
10
11
14
15
10
4
5
6
1
-1
0
2
0
-1
-2
0
0
-2
-2
0
8
8
7
7
6
6
3
4
10
2
-5
-5
-4
-11
-19
-22
-26
-33
-40
-45
-47
-52
-50
-53
-56
-54
-55
-60
-58
-56
-59
-58
-38
0
61
166
332
502
545
478
364
184
-34
-175
-214
-184
-149
-139
-135
-130
-125
-122
-123
-118
-111
-109
-111
-113
-113
-115
-115
-110
-105
-106
-110
-107
-102
-103
-104
-97
-90
-86
-86
-83
-81
-76
-70
-63
-60
-46
-40
-23
-15
-5
3
6
19
35
45
46
50
50
50
51
56
62
56
47
42
41
41
35
29
31
37
37
23
29
26
12
8
11
10
4
-3
-9
-9
-9
-14
-19
-15
-12
-12
-13
-5
-1
-2
-6
0
3
4
8
6
-1
-2
-3
-1
-1
-4
-5
-3
-4
-7
-12
-14
-10
-10
-12
-14
-11
-13
-16
-10
-6
-4
-4
-5
-1
-2
-6
-2
5
8
-4
-11
-14
-15
-27
-36
-40
-42
-39
-47
-57
-54
-54
-58
-56
-53
-56
-59
-57
-52
-52
-49
-40
-12
51
153
308
483
563
492
357
150
-72
-210
-236
-200
-167
-156
-148
-134
-115
-104
-103
-116
-114
-107
-108
-110
-98
-90
-99
-109
-110
-100
-99
-103
-101
-94
-86
-84
-84
-78
-69
-68
-74
-75
-71
-69
-57
-49
-38
-27
-15
-3
8
16
24
34
42
44
42
42
44
37
34
35
37
39
37
34
33
37
36
24
25
15
12
11
6
4
-3
-9
-9
-3
-4
-14
-16
-15
-11
-7
-3
0
0
0
4
12
19
21
8
13
18
17
11
9
12
6
2
0
-1
-1
-7
-8
-7
-14
-22
-20
-16
-21
-21
-15
-16
-21
-22
-18
-12
-9
-7
-4
-4
-7
-2
-9
-10
-13
-17
-18
-23
-31
-33
-41
-47
-47
-52
-60
-61
-63
-65
-64
-58
-56
-59
-63
-68
-74
-67
-49
-24
29
112
246
415
526
502
398
207
-34
-183
-232
-216
-179
-159
-141
-135
-127
-119
-111
-109
-107
-110
-107
-101
-109
-111
-102
-104
-104
-98
-90
-86
-96
-102
-101
-93
-89
-84
-79
-71
-69
-62
-62
-61
-60
-56
-53
-43
-30
-13
9
29
40
44
56
67
65
53
45
45
43
44
44
46
44
42
31
30
24
18
11
7
4
-1
-10
-14
-8
-12
-23
-31
-36
-40
-37
-34
-30
-26
-23
-19
-10
-6
-6
-8
-7
-10
-7
-2
-4
-4
-4
-1
2
4
0
-3
-2
0
-8
-17
-21
-16
-17
-16
-8
-2
-8
-12
-19
-14
-17
-23
-22
-9
-1
-5
-8
-2
-5
-10
-15
-25
-29
-30
-32
-34
-37
-40
-47
-49
-45
-49
-52
-55
-59
-62
-67
-70
-65
-60
-65
-68
-62
-36
20
108
243
420
559
547
455
291
45
-160
-230
-211
-173
-164
-151
-141
-129
-122
-116
-109
-102
-93
-95
-99
-109
-120
-121
-111
-103
-99
-97
-90
-84
-84
-86
-82
-86
-83
-80
-74
-72
-71
-66
-60
-48
-37
-34
-30
-13
9
24
32
42
50
56
61
67
72
70
66
60
58
61
60
52
50
44
31
25
28
27
20
9
4
6
2
-4
-10
-14
-14
-18
-28
-28
-23
-21
-20
-14
-17
-21
-22
-15
-10
-5
-5
-5
0
2
1
4
9
6
-1
-2
0
-4
-13
-16
-9
-7
-11
-11
-10
-12
-12
-16
-18
-11
-11
-18
-14
-2
0
0
-2
-1
-3
-7
-10
-16
-18
-19
-21
-27
-35
-44
-51
-54
-53
-54
-61
-63
-64
-62
-65
-62
-63
-65
-71
-77
-66
-42
-5
50
142
284
444
536
499
396
216
-24
-182
-217
-215
-167
-147
-133
-130
-132
-130
-126
-123
-120
-117
-115
-113
-116
-113
-108
-101
-103
-105
-105
-101
-98
-100
-95
-89
-88
-88
-82
-76
-76
-74
-61
-52
-50
-47
-38
-25
-13
-1
17
26
38
47
53
59
67
63
63
70
67
64
52
45
46
43
37
37
28
17
15
10
8
9
-2
-10
-13
-21
-27
-29
-24
-19
-21
-24
-22
-21
-21
-21
-22
-15
-16
-26
-23
-9
-5
-7
-7
-1
4
1
-2
-2
-5
-11
-14
-15
-13
-20
-26
-25
-21
-20
-21
-13
-7
-10
-10
-6
-3
-6
-7
-7
-9
-17
-21
-15
-5
-6
-21
-22
-15
-15
-24
-36
-46
-47
-45
-48
-60
-71
-76
-75
-73
-71
-73
-73
-70
-71
-72
-62
-40
-5
61
174
330
496
564
512
398
200
-55
-124
-223
-183
-149
-145
-148
-135
-111
-100
-112
-123
-118
-117
-124
-122
-110
-105
-107
-102
-103
-105
-102
-98
-99
-95
-94
-89
-86
-86
-79
-76
-79
-66
-56
-56
-51
-41
-33
-22
-3
13
22
23
27
41
55
58
54
63
70
71
63
57
54
57
54
50
50
37
26
31
27
13
6
6
4
5
2
0
-2
-8
-15
-14
-19
-18
-16
-10
-12
-12
-8
-5
-9
-12
-13
-14
-14
-5
0
0
0
0
4
0
-9
-8
-1
-3
-9
-14
-13
-12
-21
-23
-17
-14
-14
-11
-9
-10
-12
-13
-8
-1
-4
-6
-9
-8
-5
-5
-11
-13
-14
-21
-26
-29
-31
-42
-49
-56
-63
-65
-63
-65
-66
-68
-70
-66
-67
-76
-80
-76
-67
-51
-9
63
173
333
493
545
470
440
142
-91
-202
-217
-185
-163
-155
-152
-144
-126
-117
-115
-114
-116
-114
-117
-121
-123
-113
-107
-111
-113
-108
-102
-103
-107
-104
-101
-101
-103
-98
-92
-89
-84
-74
-62
-55
-55
-49
-35
-27
-16
-1
10
21
29
38
51
59
61
65
59
55
48
40
42
48
46
40
34
33
28
15
10
11
8
1
-5
-7
-4
-9
-12
-13
-14
-16
-23
-22
-19
-13
-8
-8
-12
-16
-17
-17
-14
-15
-17
-15
-10
-8
-8
-1
2
0
-5
-7
-4
-6
-9
-21
-12
-12
-22
-25
-25
-16
-16
-19
-15
-9
-8
-6
-7
-1
0
-8
-7
-4
-8
-6
-9
-12
-8
-8
-31
-35
-34
-43
-47
-50
-56
-56
-61
-62
-59
-56
-64
-73
-70
-61
-65
-72
-67
-51
-30
16
98
240
292
549
535
428
277
41
-140
-208
-194
-165
-149
-131
-120
-121
-129
-132
-120
-117
-122
-118
-107
-110
-120
-117
-112
-111
-110
-102
-97
-102
-103
-96
-87
-85
-83
-76
-73
-75
-72
-65
-62
-60
-50
-39
-27
-9
4
14
26
32
35
48
51
50
51
48
53
61
58
49
46
48
47
40
35
29
26
27
22
17
15
14
9
4
4
3
-2
-9
-9
-15
-23
-18
-10
-10
-11
-13
-8
-6
-5
-3
-1
2
2
2
4
6
6
5
6
6
5
-8
-8
-4
-6
-10
-7
-8
-10
-16
-14
-12
-8
-5
-10
-16
-15
-14
-13
-5
5
-1
-9
-9
1
4
-4
-15
-15
-15
-21
-24
-26
-37
-43
-50
-56
-63
-63
-61
-61
-61
-61
-64
-66
-65
-72
-79
-73
-54
-48
29
121
276
446
537
493
383
210
-18
-170
-216
-190
-164
-157
-154
-142
-139
-133
-119
-107
-109
-113
-115
-117
-117
-124
-121
-115
-117
-115
-107
-103
-101
-102
-109
-109
-101
-94
-90
-86
-86
-78
-72
-66
-59
-48
-40
-24
-5
0
10
16
26
34
43
47
47
42
39
43
43
42
37
35
38
39
27
21
28
29
26
27
28
27
25
3
0
-1
-4
-14
-18
-7
-2
-7
-12
-9
-8
-16
-18
-12
-8
-8
-10
-4
0
-3
-4
0
3
4
1
-1
2
-1
-10
-16
-16
-13
-17
-18
-13
-9
-8
-7
-9
-18
-22
-26
-23
-9
-6
-7
-6
3
7
-1
-4
1
10
4
-12
-24
-30
-32
-30
-31
-36
-39
-40
-48
-55
-58
-59
-55
-60
-61
-63
-67
-67
-66
-70
-77
-64
-37
1
73
189
359
524
565
491
361
149
-86
-200
-221
-186
-163
-150
-142
-135
-125
-117
-114
-115
-124
-117
-113
-114
-117
-113
-107
-109
-110
-105
-108
-107
-104
-103
-94
-83
-88
-89
-86
-87
-89
-83
-71
-59
-55
-50
-34
-21
-17
-8
5
13
21
31
41
51
56
51
44
42
42
45
47
46
43
37
35
33
28
25
18
20
19
14
9
8
6
1
-2
-8
-9
-6
-6
-8
-8
-5
-4
-1
3
3
0
-1
2
8
9
1
4
11
8
5
4
-3
2
1
-2
-3
-1
-5
-12
-15
-13
-12
-9
-7
-8
-9
-11
-12
-8
-8
-14
-7
0
0
0
0
0
5
6
1
-4
-8
-9
-16
-20
-21
-34
-44
-46
-50
-58
-57
-53
-56
-58
-59
-64
-59
-58
-64
-71
-69
-54
-32
16
96
241
420
533
498
393
238
14
-156
-224
-207
-170
-153
-144
-141
-127
-121
-120
-120
-120
-120
-118
-117
-115
-110
-108
-109
-110
-107
-107
-105
-108
-108
-100
-95
-91
-91
-85
-78
-77
-78
-68
-58
-55
-51
-42
-29
-16
-8
4
19
24
28
32
45
52
48
52
47
45
50
50
45
39
37
41
36
30
26
21
19
17
9
8
10
7
2
-1
-4
-2
2
1
-1
3
-6
-16
-15
-10
-6
-6
-12
-15
-11
-3
0
0
3
5
-5
-9
-7
-6
-2
-4
-8
-6
-7
-11
-12
-9
-15
-22
-14
-9
-11
-27
-24
-18
-20
-22
-16
-14
-12
-3
0
2
4
1
0
4
0
-17
-22
-23
-25
-31
-37
-40
-45
-47
-52
-55
-48
-50
-58
-57
-56
-55
-57
-59
-61
-64
-64
-55
-31
22
112
242
419
549
532
412
229
-10
-82
-234
-222
-185
-165
-152
-140
-123
-107
-111
-117
-113
-111
-103
-97
-103
-114
-117
-114
-106
-102
-105
-106
-99
-91
-90
-102
-100
-89
-86
-82
-76
-73
-69
-66
-59
-53
-44
-35
-24
-9
5
11
19
34
41
37
40
42
44
44
39
37
36
31
24
24
27
31
24
16
20
17
8
3
1
-11
-17
-20
-23
-21
-21
-23
-24
-29
-31
-25
-17
-13
-12
-12
-12
-4
1
1
6
13
12
9
9
10
5
4
6
7
5
-4
-11
-10
-10
-10
-22
-25
-19
-16
-14
-12
-8
-11
-14
-10
-10
-5
-3
-6
-10
-17
-16
-7
-4
-10
-17
-19
-18
-22
-25
-42
-55
-58
-60
-63
-60
-61
-60
-68
-69
-63
-64
-65
-63
-71
-82
-76
-58
-24
32
131
283
457
543
551
404
225
-13
-177
-224
-195
-168
-155
-149
-143
-134
-121
-118
-123
-121
-122
-122
-123
-123
-123
-124
-114
-106
-106
-104
-100
-101
-102
-102
-100
-99
-96
-89
-86
-84
-78
-73
-71
-63
-45
-36
-30
-14
0
13
21
29
37
41
40
47
52
57
52
48
50
51
51
48
47
44
34
25
21
22
16
10
8
6
4
0
-6
-6
-8
-10
-22
-25
-23
-30
-38
-35
-23
-20
-22
-18
-16
-12
-6
-2
-2
0
0
-1
-4
-5
-5
-8
-7
-6
-6
-12
-15
-18
-20
-21
-20
-13
-14
-22
-24
-22
-18
-17
-18
-17
-22
-19
-5
3
-2
-11
-10
-6
-3
-3
-21
-26
-17
-23
-30
-31
-32
-42
-53
-54
-48
-50
-63
-66
-68
-73
-77
-77
-65
-64
-76
-84
-68
-32
-20
107
255
441
571
566
480
336
84
-141
-226
-216
-178
-159
-153
-150
-137
-125
-122
-122
-119
-116
-117
-120
-118
-117
-116
-116
-113
-111
-107
-105
-101
-98
-100
-101
-95
-91
-86
-82
-77
-75
-77
-74
-65
-53
-45
-35
-18
-5
-2
15
21
32
40
47
54
59
63
61
58
56
57
52
51
49
37
37
36
38
38
28
24
22
21
21
7
4
3
-3
-4
-5
-10
-21
-25
-25
-19
-13
-13
-19
-24
-23
-23
-19
-13
-9
-8
-4
0
2
0
-6
-2
0
1
-7
-10
-10
-17
-21
-20
-19
-18
-15
-19
-23
-21
-20
-20
-19
-17
-17
-16
-13
-8
-7
-6
-9
-10
-9
-10
-7
-6
-12
-17
-20
-24
-35
-50
-62
-62
-61
-64
-66
-62
-63
-68
-68
-65
-64
-65
-70
-72
-68
-56
-35
3
75
203
379
511
515
422
270
50
-135
-228
-225
-179
-156
-154
-146
-140
-131
-127
-128
-126
-118
-117
-121
-120
-116
-113
-116
-119
-117
-113
-109
-110
-107
-98
-93
-93
-91
-85
-81
-81
-83
-76
-68
-65
-54
-44
-39
-29
-16
0
16
27
36
43
47
47
45
45
49
51
46
43
45
48
43
29
23
20
19
8
5
6
0
-4
0
-1
-12
-23
-25
-22
-21
-27
-30
-27
-30
-33
-29
-21
-20
-21
-17
-12
-8
-8
-3
-1
-2
-4
-4
1
10
7
2
4
4
-6
-20
-26
-23
-26
-28
-30
-24
-22
-27
-26
-23
-18
-16
-21
-20
-16
-18
-16
-12
-12
-15
-17
-18
-12
-9
-12
-19
-25
-21
-18
-19
-22
-34
-45
-49
-44
-50
-54
-56
-52
-53
-55
-57
-58
-57
-56
-59
-68
-71
-59
-40
8
98
228
408
548
550
460
289
40
-163
-240
-249
-186
-162
-148
-135
-127
-123
-113
-108
-108
-110
-111
-113
-114
-111
-113
-105
-104
-106
-99
-88
-91
-99
-98
-88
-85
-83
-74
-74
-77
-79
-72
-63
-59
-50
-42
-35
-17
1
9
18
25
35
47
49
53
52
52
56
56
54
44
43
32
27
23
24
26
17
5
0
4
3
-7
-15
-15
-16
-23
-28
-29
-35
-40
-41
-42
-39
-37
-37
-32
-27
-23
-25
-23
-14
-12
-17
-16
-6
1
2
-3
-8
-10
-11
-14
-8
-12
-23
-24
-21
-24
-26
-29
-33
-25
-23
-26
-33
-35
-30
-28
-29
-19
-15
-17
-18
-16
-18
-21
-21
-20
-12
-12
-27
-32
-29
-29
-38
-40
-48
-56
-59
-64
-70
-73
-74
-73
-65
-60
-67
-73
-79
-86
-88
-89
-68
-30
10
82
207
369
418
470
372
220
6
-176
-249
-240
-196
-173
-157
-146
-140
-130
-127
-119
-120
-124
-125
-119
-113
-113
-113
-112
-108
-106
-115
-110
-106
-105
-102
-98
-95
-92
-92
-88
-77
-74
-75
-68
-58
-53
-42
-32
-20
-10
-3
9
18
27
30
37
44
46
43
40
38
40
34
26
22
22
13
2
-1
0
0
-4
-10
-9
-7
-17
-24
-28
-35
-37
-42
-48
-56
-59
-55
-48
-47
-44
-35
-28
-23
-24
-26
-21
-13
-11
-16
-21
-19
-14
-13
-18
-17
-12
-12
-21
-24
-23
-26
-25
-21
-23
-29
-38
-40
-34
-27
-25
-26
-24
-19
-18
-20
-14
-13
-16
-16
-12
-16
-20
-18
-12
-22
-36
-40
-36
-35
-38
-42
-48
-55
-59
-65
-67
-64
-65
-69
-71
-71
-70
-71
-74
-80
-85
-85
-56
-17
50
144
283
452
560
531
436
260
7
-174
-227
-207
-171
-156
-157
-155
-141
-130
-130
-125
-121
-117
-117
-122
-115
-111
-111
-113
-108
-104
-108
-111
-111
-103
-101
-102
-104
-94
-85
-86
-79
-72
-64
-64
-61
-50
-40
-37
-22
-6
12
25
31
37
46
49
50
50
51
57
56
54
52
44
41
35
31
30
22
12
7
7
6
-4
-7
-4
-8
-14
-18
-19
-29
-32
-31
-29
-29
-31
-31
-27
-29
-29
-31
-26
-22
-24
-28
-18
-10
-8
-14
-7
-3
-8
-14
-9
-5
-13
-20
-21
-20
-26
-30
-32
-33
-30
-25
-25
-22
-18
-21
-24
-20
-17
-18
-21
-13
-13
-19
-27
-29
-21
-15
-17
-26
-30
-30
-35
-41
-41
-48
-54
-56
-60
-69
-81
-85
-80
-73
-70
-71
-73
-74
-84
-94
-82
-55
-26
25
127
276
441
527
498
397
226
-18
-189
-226
-198
-170
-157
-140
-131
-130
-128
-129
-126
-127
-131
-134
-132
-124
-123
-127
-123
-117
-116
-114
-106
-109
-109
-106
-100
-94
-94
-88
-84
-75
-73
-76
-66
-61
-56
-47
-31
-14
-3
14
27
40
48
51
55
62
64
56
52
51
52
50
47
44
43
42
28
21
20
14
9
6
7
3
-5
-10
-6
0
-9
-20
-30
-33
-31
-29
-27
-25
-30
-23
-21
-20
-18
-30
-28
-18
-10
-8
-3
6
15
5
-11
-22
-23
-22
-23
-27
-25
-26
-27
-29
-28
-33
-28
-23
-23
-20
-18
-17
-19
-23
-24
-21
-27
-19
-10
-7
-7
-4
-1
1
7
0
-19
-25
-22
-17
-16
-28
-51
-62
-63
-50
-51
-59
-64
-65
-62
-61
-64
-64
-64
-73
-75
-59
-34
-11
40
129
260
425
545
538
443
280
34
-44
-229
-211
-172
-153
-147
-138
-122
-109
-106
-107
-109
-106
-111
-111
-104
-95
-94
-98
-101
-105
-109
-104
-94
-90
-90
-93
-89
-89
-82
-81
-78
-67
-65
-61
-45
-39
-35
-30
-16
0
18
22
28
44
48
46
48
58
63
63
54
58
52
39
35
36
31
20
13
12
9
7
3
-4
-9
-5
-12
-20
-21
-20
-30
-35
-31
-31
-31
-38
-36
-36
-37
-34
-30
-33
-32
-28
-19
-16
-16
-16
-16
-11
-12
-14
-15
-13
-13
-19
-25
-25
-25
-27
-39
-38
-30
-33
-39
-38
-31
-32
-34
-27
-19
-21
-25
-28
-29
-21
-16
-23
-25
-23
-20
-21
-20
-24
-27
-35
-35
-37
-35
-42
-53
-63
-70
-74
-72
-72
-77
-76
-75
-71
-73
-75
-74
-76
-85
-83
-65
-32
26
47
268
449
555
527
415
239
-4
-172
-224
-200
-176
-168
-163
-151
-139
-130
-126
-125
-118
-115
-120
-124
-119
-112
-110
-111
-110
-105
-103
-104
-100
-95
-91
-91
-96
-101
-98
-91
-79
-72
-71
-70
-58
-45
-38
-35
-21
-8
6
11
32
44
46
55
70
66
58
49
41
35
34
36
37
26
23
31
22
7
3
2
4
2
-4
-14
-16
-23
-28
-27
-26
-29
-32
-33
-32
-27
-23
-25
-11
-4
-16
-31
-34
-31
-31
-25
-16
-8
-7
-6
-3
-5
-7
-5
-4
-5
-11
-16
-18
-26
-28
-25
-16
-11
-21
-29
-31
-23
-24
-26
-22
-12
-9
-17
-25
-18
-15
-21
-26
-20
-11
-11
-18
-23
-25
-27
-31
-34
-35
-49
-61
-65
-65
-66
-65
-58
-62
-69
-65
-65
-66
-68
-82
-84
-69
-48
-6
62
169
341
509
552
478
352
155
-75
-198
-227
-194
-166
-153
-143
-141
-136
-127
-127
-128
-131
-131
-120
-115
-119
-118
-112
-113
-109
-105
-108
-106
-103
-98
-102
-103
-101
-101
-102
-97
-87
-81
-74
-63
-60
-59
-42
-22
-13
-7
1
12
26
34
41
52
52
49
50
53
52
48
45
43
36
30
25
21
21
20
14
12
12
5
-7
-10
-9
-17
-26
-28
-26
-25
-27
-21
-21
-27
-36
-40
-38
-39
-31
-29
-25
-20
-19
-17
-15
-16
-15
-17
-15
-14
-7
-7
-9
-9
-17
-29
-34
-27
-22
-25
-32
-30
-27
-31
-34
-27
-29
-31
-29
-32
-28
-20
-18
-16
-21
-20
-22
-19
-10
-6
-21
-33
-33
-41
-45
-50
-59
-62
-65
-67
-69
-72
-73
-78
-74
-78
-79
-73
-68
-71
-84
-81
-57
-19
48
157
329
502
558
466
333
140
-80
-206
-234
-202
-176
-172
-151
-144
-139
-132
-130
-134
-127
-124
-124
-122
-121
-117
-120
-122
-122
-126
-118
-110
-99
-97
-92
-94
-96
-94
-92
-94
-89
-83
-85
-81
-72
-62
-43
-28
-12
3
18
24
31
38
48
56
58
59
57
49
47
48
39
35
25
26
26
18
14
17
22
30
33
20
12
13
20
17
-11
-42
-50
-50
-41
-38
-45
-40
-28
-25
-27
-24
-11
-12
-20
-17
-10
-4
-5
-5
1
9
9
5
4
0
-6
-12
-18
-20
-22
-25
-27
-21
-18
-18
-21
-23
-18
-16
-14
-11
-12
-8
2
9
4
-6
-11
-7
-1
-13
-28
-28
-20
-19
-25
-31
-39
-49
-53
-57
-61
-58
-59
-63
-66
-69
-69
-72
-71
-68
-72
-77
-60
-32
9
83
206
384
537
548
454
334
125
47
-212
-214
-169
-144
-144
-139
-124
-121
-126
-126
-119
-121
-124
-124
-119
-115
-114
-117
-120
-114
-109
-110
-105
-100
-101
-106
-101
-94
-96
-92
-84
-79
-78
-77
-66
-54
-45
-39
-24
-7
4
15
25
36
42
45
55
65
70
69
58
61
65
61
44
39
37
37
36
36
35
28
19
12
16
18
7
1
2
1
-6
-13
-18
-21
-21
-26
-26
-23
-34
-37
-22
-12
-20
-26
-17
-15
-12
-7
-7
-9
-8
-10
-20
-20
-13
-14
-16
-15
-16
-17
-15
-20
-33
-35
-33
-27
-16
-15
-17
-16
-16
-21
-26
-20
-6
-4
-9
-15
-16
-11
-10
-14
-16
-22
-25
-36
-34
-35
-49
-65
-66
-57
-63
-62
-59
-57
-65
-73
-74
-71
-69
-78
-87
-79
-63
-45
1
90
232
286
566
564
450
265
18
-158
-231
-215
-175
-155
-145
-139
-139
-133
-127
-131
-134
-135
-132
-130
-132
-132
-130
-126
-123
-106
-102
-101
-101
-103
-101
-96
-99
-97
-94
-87
-86
-86
-81
-72
-64
-52
-45
-39
-27
-16
-11
-2
8
12
25
27
37
45
45
40
41
40
30
23
34
36
25
21
24
21
10
4
0
1
-6
-17
-21
-20
-20
-28
-24
-18
-25
-26
-27
-29
-25
-24
-19
-9
0
3
5
-4
-14
-11
-5
2
13
14
10
0
-4
-4
-4
-5
-3
-2
-11
-19
-25
-22
-20
-17
-5
2
-7
-18
-20
-13
-14
-9
-1
-6
-12
-15
-11
-6
-5
-7
-14
-21
-21
-20
-23
-30
-38
-47
-47
-51
-56
-61
-68
-65
-65
-69
-72
-71
-69
-73
-83
-67
-42
-35
42
148
320
502
579
523
410
219
-31
-180
-223
-197
-169
-152
-138
-130
-126
-120
-119
-117
-119
-121
-115
-117
-120
-127
-120
-112
-112
-117
-117
-109
-106
-107
-99
-95
-95
-94
-94
-92
-91
-89
-80
-70
-61
-54
-46
-36
-23
-18
2
12
21
30
47
52
54
55
54
52
53
48
35
30
37
39
34
26
22
16
6
0
3
2
0
-6
-7
-7
-11
-19
-24
-24
-32
-35
-33
-28
-25
-24
-18
-12
-9
-22
-17
1
10
-1
-12
-8
-7
-10
-17
-16
-14
-12
-14
-13
-14
-14
-17
-21
-22
-25
-30
-30
-24
-25
-26
-17
-14
-16
-14
-17
-17
-8
-6
-12
-12
-6
0
1
-2
-8
-16
-26
-31
-29
-34
-48
-53
-59
-63
-59
-70
-77
-75
-76
-75
-74
-69
-67
-76
-80
-65
-39
9
90
221
400
551
567
487
350
114
-109
-202
-211
-178
-162
-153
-142
-135
-132
-128
-131
-130
-130
-127
-121
-118
-119
-113
-112
-118
-119
-117
-116
-109
-107
-102
-95
-96
-93
-92
-90
-86
-85
-75
-63
-54
-52
-46
-36
-27
-16
-8
7
20
27
34
46
56
62
62
64
63
53
46
49
54
47
35
30
34
32
29
17
16
12
9
4
1
3
1
-1
-4
-6
-5
-3
-8
-15
-29
-35
-36
-31
-31
-23
-15
-5
-4
-7
-12
-5
0
0
0
3
6
2
-5
-14
-15
-10
-10
-11
-14
-21
-21
-22
-24
-22
-15
-11
-12
-13
-12
-17
-11
-6
-2
-3
-6
-7
-6
-5
-4
-10
-18
-21
-22
-27
-30
-36
-45
-50
-57
-62
-63
-61
-62
-63
-71
-71
-59
-57
-72
-78
-73
-58
-35
14
92
228
404
539
537
445
304
87
-108
-205
-206
-170
-152
-148
-147
-138
-132
-126
-124
-125
-125
-129
-130
-128
-125
-121
-120
-122
-123
-114
-116
-118
-115
-110
-107
-107
-103
-103
-96
-93
-86
-80
-73
-65
-56
-47
-42
-36
-27
-15
-4
7
13
21
31
43
45
37
41
44
42
37
35
35
33
27
27
26
26
21
17
9
7
8
6
1
-5
-11
-10
-9
-12
-16
-21
-25
-21
-21
-22
-23
-21
-20
-10
-10
-9
-10
-7
-1
-2
-4
-1
5
8
9
2
-4
-5
-9
-9
-12
-14
-13
-14
-13
-16
-15
-14
-14
-17
-10
-15
-20
-12
-6
-9
-3
1
0
4
1
-1
2
-6
-14
-16
-17
-20
-25
-31
-35
-43
-46
-52
-50
-50
-57
-57
-54
-56
-56
-57
-57
-60
-69
-60
-33
5
65
163
318
487
551
488
369
187
-33
-94
-214
-183
-152
-150
-146
-135
-127
-117
-113
-117
-117
-122
-123
-121
-117
-109
-104
-96
-90
-95
-111
-124
-126
-117
-113
-107
-98
-88
-87
-79
-75
-73
-68
-65
-56
-43
-30
-25
-16
-1
6
7
13
27
32
39
52
62
60
58
44
42
41
36
33
33
35
34
33
29
26
25
18
10
14
14
10
9
7
3
-3
-12
-17
-16
-16
-16
-9
-4
-8
-9
-7
0
2
-1
-2
0
-2
-1
4
8
5
0
1
4
0
-4
-7
-6
-10
-12
-12
-13
-14
-20
-17
-10
-13
-17
-18
-14
-11
-8
-12
-12
-4
0
-1
-3
-1
1
0
0
-6
-14
-17
-14
-18
-27
-34
-44
-45
-50
-50
-50
-52
-53
-56
-57
-60
-62
-62
-64
-68
-67
-55
-36
-7
49
151
190
456
502
426
297
107
-84
-207
-244
-213
-175
-155
-142
-134
-129
-122
-117
-118
-123
-122
-117
-120
-120
-115
-114
-116
-109
-107
-105
-107
-107
-105
-103
-99
-99
-94
-91
-92
-92
-87
-77
-75
-77
-58
-46
-33
-22
-12
5
14
15
13
25
34
35
35
35
35
31
26
26
25
22
24
23
22
20
15
12
9
2
-4
0
-4
-7
-10
-15
-9
-1
4
-7
-17
-23
-23
-22
-18
-13
-12
-13
-9
2
6
3
3
9
9
9
7
5
4
5
2
-2
-4
-2
-9
-16
-19
-18
-20
-19
-18
-18
-18
-12
-9
-12
-15
-18
-18
-16
-17
-14
-4
3
4
-14
-17
-13
-6
0
-3
-11
-13
-17
-24
-26
-33
-36
-35
-41
-50
-56
-57
-60
-62
-61
-63
-52
-47
-46
-58
-64
-50
-35
-7
56
174
357
529
562
478
332
105
-109
-214
-238
-198
-160
-143
-130
-121
-116
-113
-106
-105
-111
-110
-103
-105
-116
-120
-111
-102
-101
-100
-91
-86
-90
-92
-88
-86
-88
-90
-80
-75
-73
-68
-53
-41
-38
-45
-32
-9
14
18
18
20
24
25
35
48
56
59
60
60
53
44
39
38
36
35
32
31
28
26
23
22
15
6
-1
-7
-10
-12
-14
-23
-26
-26
-29
-24
-21
-27
-23
-13
-8
-5
-10
-7
-1
9
12
9
7
8
10
8
8
10
12
10
6
3
-2
-11
-19
-14
-11
-19
-26
-20
-11
-12
-17
-16
-13
-14
-24
-22
-12
-12
-12
-8
-10
-12
-8
-7
-5
-7
-17
-20
-17
-20
-26
-33
-40
-47
-52
-56
-54
-54
-54
-61
-59
-57
-57
-63
-65
-65
-73
-74
-57
-33
5
74
194
367
521
547
462
309
85
-127
-225
-231
-193
-180
-150
-139
-123
-112
-111
-109
-103
-107
-109
-107
-101
-98
-104
-107
-106
-98
-98
-100
-98
-90
-91
-87
-79
-78
-77
-70
-63
-57
-52
-58
-57
-46
-48
-43
-32
-17
5
28
42
42
46
49
50
54
58
54
51
54
44
40
44
43
35
27
21
19
17
15
9
4
-4
-5
-11
-18
-14
-23
-32
-39
-35
-26
-24
-27
-31
-34
-34
-24
-19
-16
-17
-22
-16
-4
-1
-9
-5
-1
2
4
5
1
-5
-7
-7
-6
-3
-2
-5
0
-5
-9
-20
-21
-23
-24
-23
-21
-16
-20
-17
-8
-1
0
-4
-12
-8
-4
-2
-4
-9
-12
-13
-19
-29
-37
-40
-47
-43
-46
-55
-51
-55
-65
-60
-59
-58
-61
-66
-70
-78
-65
-37
0
54
151
302
459
534
489
368
323
-50
-192
-225
-201
-166
-140
-124
-121
-114
-104
-96
-95
-101
-105
-106
-107
-113
-116
-109
-101
-98
-98
-89
-85
-84
-78
-73
-79
-86
-85
-72
-62
-60
-61
-56
-48
-43
-39
-29
-16
0
11
22
35
46
49
54
60
64
67
80
79
69
62
65
64
52
46
38
29
27
15
4
8
14
8
4
1
-3
-9
-22
-26
-16
-16
-19
-36
-26
-21
-18
-18
-20
-13
-7
-13
-12
0
6
-5
-11
2
11
7
10
20
16
8
5
4
3
0
-4
0
-12
-17
-10
-3
0
-11
-11
-5
-9
-10
-6
-3
-5
-7
2
5
2
-10
-5
0
-3
-17
-23
-13
-15
-24
-29
-34
-35
-33
-40
-44
-42
-52
-58
-56
-47
-48
-61
-61
-58
-63
-57
-42
2
64
155
189
444
532
492
371
186
-29
-171
-210
-187
-153
-132
-117
-114
-110
-113
-107
-95
-94
-103
-104
-94
-90
-92
-88
-89
-84
-85
-86
-83
-82
-81
-77
-69
-68
-81
-79
-63
-56
-54
-49
-48
-38
-24
-20
-9
-3
3
23
32
33
50
67
77
74
69
71
67
57
45
44
46
42
33
27
23
15
12
12
6
0
-3
-1
-2
-8
-9
-26
-20
-16
-28
-30
-24
-27
-34
-38
-37
-42
-38
-35
-30
-22
-21
-19
-9
-2
1
2
2
5
0
-3
0
5
2
-8
-17
-16
-17
-17
-17
-11
-6
-6
-10
-16
-18
-12
-10
-2
3
0
-4
-3
-2
-3
-4
-6
-9
-12
-13
-20
-24
-21
-24
-35
-44
-47
-51
-50
-52
-56
-61
-67
-69
-67
-68
-73
-76
-72
-55
-48
22
85
198
353
494
530
470
348
144
-77
-195
-211
-183
-150
-136
-123
-108
-100
-103
-104
-106
-105
-106
-108
-107
-104
-96
-89
-87
-86
-83
-83
-94
-100
-90
-81
-83
-84
-71
-68
-69
-69
-64
-56
-51
-41
-30
-17
-6
-4
8
19
33
41
49
61
70
71
70
68
67
69
63
53
46
41
37
30
25
20
16
14
13
7
4
-2
-4
-2
-10
-21
-19
-25
-26
-24
-21
-18
-15
-22
-27
-28
-21
-16
-13
-8
-1
-6
-10
0
2
0
-8
0
3
-1
-3
-5
-6
-8
-15
-16
-13
-14
-8
-2
-8
-10
-12
-10
-5
-3
-10
-9
-3
4
7
1
-1
2
1
-1
-2
-8
-16
-21
-23
-24
-32
-42
-46
-43
-47
-54
-56
-53
-58
-65
-63
-57
-52
-52
-64
-54
-32
-8
37
118
240
399
523
514
437
298
69
-134
-208
-196
-162
-147
-139
-130
-116
-108
-104
-103
-105
-103
-109
-111
-111
-111
-108
-104
-96
-93
-90
-90
-86
-86
-90
-87
-80
-76
-77
-73
-68
-67
-64
-51
-48
-48
-32
-15
-6
-4
-6
6
21
34
43
48
51
57
60
61
65
57
46
39
37
36
25
18
21
23
23
18
17
17
9
6
5
1
-3
-7
-6
-7
-16
-21
-20
-24
-26
-23
-18
-14
-13
-16
-11
-3
0
0
1
2
4
5
-2
-11
-10
-4
-3
-4
-5
-6
-11
-12
-10
-12
-15
-16
-12
-6
-5
-12
-12
-6
-3
-7
-3
2
1
-5
-1
0
0
2
-2
-9
-16
-18
-23
-16
-10
-20
-34
-41
-48
-56
-56
-52
-56
-56
-56
-56
-56
-59
-61
-59
-48
-30
4
79
190
352
513
570
511
395
189
-54
-185
-213
-179
-154
-138
-126
-122
-121
-115
-110
-107
-106
-102
-97
-102
-106
-107
-105
-98
-94
-86
-83
-86
-84
-81
-80
-81
-75
-79
-73
-68
-67
-68
-60
-48
-41
-36
-23
-8
-3
-1
11
28
38
46
54
63
65
61
64
67
62
56
53
49
49
47
34
36
35
27
23
21
12
7
1
-2
-8
-7
-5
-9
-11
-10
-15
-18
-13
-11
-12
-15
-21
-21
-20
-13
-9
-8
-7
-2
2
5
2
1
2
5
1
-4
-5
-3
-9
-13
-11
-9
-11
-16
-21
-16
-9
-8
-6
-2
0
-4
-7
-4
-7
-3
0
-7
-5
-4
-5
-6
-10
-18
-19
-18
-19
-23
-33
-42
-42
-48
-52
-57
-50
-48
-61
-61
-57
-56
-64
-66
-69
-71
-65
-47
-8
60
159
317
483
549
492
362
156
-73
-187
-206
-185
-157
-147
-146
-138
-125
-117
-113
-112
-110
-106
-103
-109
-110
-108
-107
-107
-106
-102
-95
-95
-97
-92
-88
-89
-92
-92
-90
-93
-88
-78
-68
-65
-64
-51
-35
-25
-18
-6
9
21
23
32
44
40
31
39
48
48
50
43
40
31
22
22
28
27
19
17
18
21
20
13
8
4
4
-2
-9
-10
-7
-12
-19
-21
-23
-25
-23
-21
-19
-14
-8
-2
0
-2
-2
-2
-1
0
0
-1
0
-4
-4
5
10
10
0
-10
-10
-10
-12
-13
-13
-10
-12
-17
-17
-10
-9
-14
-13
-6
-3
0
4
1
-6
-11
-7
-2
-4
-11
-15
-14
-16
-17
-24
-34
-44
-49
-55
-59
-61
-62
-61
-53
-48
-54
-57
-60
-59
-68
-72
-59
-33
17
103
246
432
569
594
468
313
66
-144
-228
-212
-172
-149
-140
-130
-121
-118
-117
-117
-114
-112
-109
-106
-108
-108
-98
-93
-98
-104
-103
-103
-103
-101
-99
-100
-91
-82
-84
-86
-81
-72
-67
-64
-58
-52
-46
-36
-19
-6
3
7
15
32
46
49
54
53
50
46
38
39
44
41
40
36
30
28
32
24
19
21
20
19
11
5
2
3
0
-4
-6
-12
-11
-9
-15
-19
-14
-9
-7
-10
-10
-9
-6
-4
2
5
1
2
1
7
11
9
6
6
5
3
-8
-10
-10
-15
-18
-18
-17
-18
-18
-16
-13
-12
-13
-12
-7
-8
-12
-17
-9
-1
-2
-1
0
-1
-2
-11
-14
-12
-17
-23
-26
-33
-43
-47
-53
-56
-54
-56
-56
-61
-60
-64
-67
-66
-66
-76
-79
-69
-55
-49
38
150
313
478
549
495
382
192
-43
-172
-206
-182
-164
-152
-141
-133
-131
-129
-129
-125
-126
-124
-119
-117
-118
-119
-120
-117
-116
-117
-116
-112
-111
-113
-104
-100
-97
-91
-85
-84
-87
-87
-78
-73
-72
-66
-55
-41
-30
-27
-9
3
13
18
20
29
30
34
44
48
45
36
30
33
35
31
24
21
27
29
23
24
22
13
12
2
3
0
-3
-6
-8
-8
-12
-15
-7
-7
-10
-7
-9
-1
-2
-3
0
4
9
14
12
5
0
0
2
7
5
-3
-2
5
3
-1
-6
-14
-15
-12
-14
-12
-3
-2
-9
-12
-7
-1
0
1
4
0
-1
6
11
10
8
5
4
-4
-19
-22
-17
-15
-15
-21
-29
-31
-31
-43
-50
-55
-57
-59
-59
-52
-49
-50
-54
-61
-71
-69
-57
-22
39
140
296
479
582
543
433
261
16
-165
-218
-198
-162
-140
-134
-134
-125
-115
-113
-115
-114
-113
-114
-116
-116
-114
-110
-108
-103
-98
-98
-104
-105
-97
-88
-88
-91
-90
-92
-88
-80
-75
-74
-73
-59
-49
-41
-31
-27
-17
2
18
24
28
38
43
48
50
54
53
42
41
49
49
44
41
44
40
37
30
31
26
18
14
14
11
3
2
6
10
7
-4
-13
-7
-1
-7
-10
-6
-7
-8
-2
4
3
1
-4
4
12
11
5
10
13
7
4
3
4
4
3
2
2
-8
-18
-24
-20
-18
-19
-17
-15
-15
-16
-16
-13
-8
-8
-6
-3
0
-1
0
-2
-1
4
5
0
-8
-12
-16
-16
-27
-38
-47
-52
-54
-57
-58
-57
-55
-56
-57
-54
-53
-54
-60
-65
-61
-49
-31
-2
63
177
340
490
530
446
311
92
-110
-216
-233
-227
-171
-158
-149
-135
-123
-118
-114
-115
-116
-113
-119
-118
-111
-107
-102
-103
-103
-102
-97
-102
-107
-101
-94
-92
-93
-90
-91
-85
-83
-85
-78
-69
-65
-62
-46
-33
-23
-10
3
10
13
25
36
38
40
39
34
35
36
35
36
36
35
33
35
35
33
17
7
4
-1
-7
-8
-8
-14
-21
-21
-16
-19
-26
-27
-17
-6
-8
-9
-13
-2
7
4
-4
0
10
12
11
9
13
16
8
8
18
16
-1
-3
2
-1
-7
-10
-8
-11
-15
-15
-19
-25
-22
-21
-13
-5
-8
-13
-14
-10
-4
6
11
6
-1
-8
-7
-6
-9
-22
-25
-16
-19
-21
-29
-26
-28
-39
-49
-46
-33
-51
-68
-57
-44
-52
-58
-56
-59
-63
-57
-24
22
80
182
356
515
550
541
332
114
-98
-209
-227
-188
-157
-145
-137
-123
-113
-109
-105
-98
-102
-103
-98
-96
-88
-88
-99
-103
-99
-92
-90
-90
-83
-76
-86
-89
-76
-68
-75
-84
-73
-65
-64
-58
-46
-35
-23
-16
-8
3
11
24
33
47
56
57
51
57
62
57
48
48
47
32
26
27
24
19
11
4
7
8
1
-1
-3
-13
-21
-22
-18
-29
-33
-38
-40
-40
-39
-36
-26
-18
-24
-29
-24
-17
-10
-8
-4
3
4
-5
-11
-3
2
3
5
4
-1
-3
-9
-7
-9
-18
-27
-24
-21
-16
-14
-14
-13
-16
-14
-13
-16
-12
-11
-6
-8
-10
-7
-6
-4
-7
-10
-25
-22
-20
-32
-39
-37
-42
-52
-56
-56
-56
-61
-64
-66
-67
-64
-69
-72
-75
-79
-72
-53
-11
50
71
288
458
541
494
375
183
-52
-186
-230
-205
-168
-148
-144
-137
-124
-113
-111
-108
-105
-105
-109
-113
-110
-105
-103
-104
-100
-99
-102
-102
-98
-98
-104
-104
-89
-75
-72
-79
-80
-75
-66
-61
-61
-55
-42
-30
-19
-6
6
10
28
41
45
46
50
54
58
57
44
37
39
40
38
29
24
25
16
13
10
8
2
-4
-4
-10
-14
-15
-13
-16
-19
-30
-34
-31
-32
-33
-31
-24
-21
-21
-19
-11
-9
-11
-3
1
3
4
1
-2
4
6
2
5
5
-1
-9
-14
-12
-13
-15
-14
-6
-1
5
2
-3
-8
-10
-6
-7
-10
-4
0
2
6
8
-1
-4
-8
-16
-17
-10
-10
-22
-27
-28
-39
-55
-62
-58
-51
-52
-54
-57
-59
-59
-61
-64
-71
-69
-66
-23
17
103
230
393
532
561
484
353
119
-110
-205
-207
-175
-150
-141
-134
-120
-109
-108
-109
-107
-105
-108
-111
-107
-107
-105
-100
-94
-94
-97
-95
-93
-91
-85
-83
-85
-83
-78
-75
-70
-61
-56
-54
-55
-52
-36
-26
-24
-8
6
22
30
36
46
56
60
59
59
58
58
57
56
48
46
41
33
33
34
24
17
20
17
14
-2
-3
-4
-9
-11
-13
-14
-19
-25
-29
-26
-28
-32
-30
-21
-23
-30
-21
-11
-7
-6
-6
-4
-1
0
-2
2
5
-1
-4
-3
-1
-3
-9
-17
-20
-26
-27
-16
-10
-10
-13
-13
-11
-17
-18
-15
-14
-9
-8
-12
-7
-6
-5
0
0
-10
-19
-27
-27
-25
-26
-33
-43
-49
-56
-63
-66
-62
-60
-59
-62
-65
-64
-65
-74
-75
-71
-56
-23
37
123
262
432
540
530
430
263
18
-161
-224
-197
-162
-144
-132
-130
-124
-118
-117
-117
-117
-115
-112
-110
-112
-116
-111
-107
-107
-101
-95
-93
-104
-108
-103
-98
-93
-90
-86
-85
-82
-77
-71
-62
-59
-50
-37
-23
-15
-11
2
17
31
41
49
54
51
48
52
55
53
48
45
43
38
35
37
38
34
31
13
9
10
7
6
3
2
0
-16
-25
-18
-7
-6
-12
-8
-6
-13
-24
-27
-24
-17
-11
-8
-6
-7
-15
-2
5
3
-1
0
4
2
1
0
2
4
1
-9
-18
-15
-10
-10
-7
-5
-10
-14
-9
-3
0
-1
-1
2
1
-2
-8
-7
-2
-3
-4
-4
-10
-23
-27
-27
-35
-38
-40
-42
-44
-43
-48
-52
-54
-56
-60
-55
-52
-57
-68
-74
-64
-44
-4
72
191
365
525
576
507
380
152
-92
-205
-217
-185
-165
-156
-137
-132
-118
-115
-115
-109
-105
-104
-107
-110
-112
-105
-100
-101
-100
-98
-97
-103
-103
-102
-93
-88
-86
-87
-83
-84
-85
-72
-66
-59
-55
-49
-33
-20
-16
-11
3
14
20
30
40
45
48
47
45
47
48
46
39
38
42
42
27
27
24
19
15
10
6
1
-3
-7
-5
-7
-15
-18
-13
-16
-24
-28
-27
-25
-24
-14
-6
-8
-11
-7
-7
-6
-4
-6
-6
-3
0
2
2
1
1
-3
2
-4
-11
-12
-19
-22
-17
-18
-19
-18
-15
-14
-14
-14
-5
-4
-8
-1
4
-2
-7
-11
-14
-11
-3
-6
-10
-18
-24
-25
-24
-26
-40
-45
-40
-47
-52
-66
-68
-69
-65
-63
-60
-55
-62
-79
-80
-69
-48
-3
80
215
387
531
567
491
358
124
-107
-210
-199
-188
-148
-146
-139
-132
-126
-125
-125
-126
-123
-116
-117
-117
-114
-111
-108
-107
-108
-107
-97
-95
-108
-117
-113
-103
-100
-96
-94
-91
-90
-83
-82
-73
-58
-53
-43
-29
-15
-9
0
7
15
27
39
40
39
35
31
33
40
39
29
39
34
30
35
36
33
26
23
25
22
18
13
7
4
10
3
1
2
-10
-21
-20
-9
-11
-13
-6
-1
1
4
3
-1
-3
-4
-1
2
0
4
3
0
8
7
0
2
6
9
6
4
-1
0
-1
-9
-7
-4
-1
-1
-4
0
-1
-2
6
11
9
7
8
10
11
14
5
-17
-23
-24
-16
-12
-16
-19
-39
-42
-46
-49
-55
-57
-54
-57
-59
-59
-59
-58
-68
-72
-56
-33
0
61
180
358
521
569
503
373
325
-66
-194
-216
-183
-156
-149
-141
-136
-129
-125
-118
-115
-114
-112
-110
-113
-112
-112
-112
-103
-103
-108
-105
-106
-109
-106
-98
-91
-88
-88
-85
-77
-81
-83
-70
-65
-62
-62
-51
-37
-29
-20
-8
2
10
21
22
33
41
40
34
43
44
38
38
33
29
27
28
31
31
29
24
22
18
12
7
1
2
-1
-6
-9
-2
-4
-6
-12
-9
-8
-12
-13
-4
6
4
-3
-5
-1
0
0
2
8
5
4
5
3
1
-2
0
2
-1
-1
0
-4
-8
-13
-18
-17
-6
-2
-5
-5
-1
0
1
4
4
3
2
-1
2
10
7
-2
-6
-9
-10
-17
-15
-26
-35
-42
-43
-46
-50
-48
-46
-53
-58
-58
-61
-62
-67
-74
-77
-60
-36
-7
55
166
333
389
533
458
331
136
-74
-192
-229
-197
-167
-150
-136
-134
-134
-125
-120
-122
-121
-117
-115
-113
-115
-118
-117
-112
-111
-113
-105
-101
-100
-94
-90
-97
-99
-97
-92
-84
-82
-86
-81
-67
-59
-55
-47
-43
-38
-27
-13
0
18
25
34
38
36
29
28
33
40
43
41
39
32
29
26
25
26
21
19
15
14
12
12
15
9
-1
-5
-15
-17
-13
-13
-14
-14
-10
-5
1
5
1
1
1
8
13
10
11
17
19
12
7
11
20
25
24
-1
-4
-4
-5
-14
-19
-16
-15
-14
-9
-2
2
3
0
-1
-2
0
8
10
5
0
-1
0
1
0
-1
-5
-10
-16
-23
-27
-25
-34
-39
-42
-44
-48
-50
-52
-51
-54
-53
-51
-49
-52
-59
-63
-53
-35
-28
65
165
324
489
557
492
361
141
-86
-199
-228
-207
-175
-154
-140
-130
-118
-107
-103
-107
-108
-106
-104
-103
-102
-108
-108
-103
-103
-103
-98
-96
-99
-92
-88
-86
-90
-89
-86
-82
-81
-78
-73
-66
-62
-54
-41
-33
-29
-26
-2
7
16
28
31
33
42
41
40
39
30
22
25
31
31
25
23
20
16
18
7
-1
-2
-3
-4
-8
-11
-13
-23
-31
-27
-25
-26
-22
-18
-18
-14
-13
-8
-6
-6
-4
6
14
4
-4
-4
-2
1
2
3
1
1
-2
-1
-2
-6
-8
-14
-20
-20
-21
-16
-10
-12
-18
-17
-15
-16
-18
-16
-1
12
5
0
-11
-13
-9
-19
-27
-29
-24
-28
-35
-42
-42
-43
-52
-59
-59
-57
-64
-66
-67
-59
-62
-71
-70
-65
-67
-65
-36
6
69
175
340
495
531
458
306
102
-99
-206
-221
-192
-171
-155
-146
-138
-124
-113
-108
-103
-96
-93
-105
-102
-97
-110
-116
-106
-104
-104
-98
-87
-77
-76
-84
-84
-83
-95
-94
-87
-79
-73
-74
-64
-50
-44
-42
-31
-12
2
4
13
33
46
44
43
51
60
57
52
56
44
32
30
29
29
19
12
16
21
13
10
-7
-9
-11
-16
-20
-23
-26
-28
-29
-28
-30
-38
-37
-35
-34
-24
-19
-19
-12
-19
-25
-18
-10
-5
-3
-2
-1
4
3
0
1
3
0
-6
-4
-2
-5
-12
-18
-9
-4
-4
-6
-8
-5
-5
-6
-4
-2
-2
-3
-1
-2
-4
-2
-2
-6
-14
-18
-15
-20
-29
-35
-43
-53
-58
-58
-56
-56
-55
-63
-64
-59
-58
-57
-72
-73
-58
-40
0
68
167
317
483
540
484
369
172
-62
-191
-221
-188
-160
-145
-135
-129
-124
-115
-111
-109
-107
-107
-104
-107
-108
-108
-104
-103
-103
-99
-95
-98
-103
-101
-92
-86
-83
-82
-83
-84
-76
-73
-63
-59
-60
-58
-44
-31
-15
-2
3
16
30
39
47
52
51
48
50
49
47
44
42
46
38
31
28
25
19
17
9
3
-1
-7
-7
-6
-8
-19
-26
-27
-27
-31
-34
-30
-27
-27
-28
-32
-32
-32
-26
-22
-18
-13
-12
-18
-14
-9
-6
-4
-3
0
-6
-10
-10
-11
-12
-13
-14
-13
-12
-14
-16
-9
-6
-7
-10
-10
-6
-7
-4
-7
-5
-2
-4
0
0
-15
-24
-23
-22
-28
-36
-44
-46
-48
-54
-58
-60
-62
-67
-67
-63
-71
-75
-77
-78
-72
-66
-44
5
74
177
326
493
570
517
399
198
-58
-206
-224
-191
-161
-149
-140
-133
-126
-121
-120
-123
-118
-116
-116
-114
-107
-103
-108
-118
-114
-109
-107
-104
-105
-103
-105
-105
-101
-91
-81
-80
-73
-70
-71
-69
-67
-57
-45
-35
-16
-1
6
13
17
29
42
48
49
52
56
58
52
46
43
38
40
44
40
35
36
35
18
13
7
4
0
0
-4
-6
-5
-4
-4
-10
-18
-20
-14
-9
-16
-31
-38
-36
-29
-19
-9
-6
-16
-7
-3
-4
-2
-1
5
0
-2
0
1
-4
-8
-8
-6
-5
-7
-8
-4
-2
-3
-4
0
0
0
0
2
3
-3
-7
-4
0
-1
-5
-10
-16
-19
-16
-23
-30
-40
-46
-49
-46
-47
-52
-57
-57
-57
-58
-67
-68
-67
-71
-69
-48
-23
23
108
252
429
555
553
471
335
94
-117
-210
-205
-171
-152
-148
-138
-132
-130
-121
-116
-116
-121
-126
-121
-116
-119
-122
-116
-113
-113
-112
-107
-103
-103
-105
-99
-94
-96
-103
-99
-90
-83
-81
-74
-67
-61
-55
-45
-38
-29
-12
-5
6
19
29
39
44
48
49
50
50
46
45
41
33
32
32
31
16
16
16
13
15
12
6
1
-1
-1
-7
-12
-14
-24
-30
-28
-24
-28
-29
-30
-37
-32
-25
-19
-16
-14
-15
-13
-4
0
-3
-10
-14
-15
-10
-8
-13
-14
-9
-9
-15
-20
-19
-16
-15
-14
-7
-6
-6
-6
-14
-5
0
-4
-11
-15
-10
-4
-5
-8
-11
-16
-20
-24
-28
-28
-40
-45
-56
-61
-51
-55
-53
-57
-61
-67
-67
-67
-73
-82
-83
-68
-37
5
89
219
391
540
573
493
363
130
-97
-194
-206
-177
-157
-151
-147
-147
-136
-129
-127
-131
-130
-126
-115
-115
-117
-115
-112
-116
-120
-115
-111
-116
-119
-119
-110
-107
-104
-96
-92
-94
-95
-90
-81
-71
-68
-62
-55
-48
-41
-32
-19
-6
10
25
37
37
36
40
41
44
44
31
29
34
32
30
20
25
19
12
10
12
16
13
7
4
5
4
4
4
-4
-15
-21
-22
-19
-20
-23
-16
-12
-16
-17
-12
-1
3
-2
-7
-9
-6
-3
-4
-3
3
2
-1
2
5
2
-1
-8
-7
-4
-6
-6
-2
-10
-13
-11
-1
2
0
1
-1
-6
-2
4
4
1
-6
-12
-14
-12
-14
-21
-28
-32
-40
-48
-55
-55
-56
-57
-56
-57
-60
-64
-63
-66
-69
-65
-51
-27
25
114
257
437
535
501
387
228
8
-163
-237
-220
-172
-155
-153
-143
-132
-120
-118
-124
-121
-113
-118
-120
-117
-116
-117
-120
-117
-115
-117
-114
-110
-107
-105
-106
-106
-105
-101
-100
-90
-86
-84
-83
-77
-70
-63
-54
-44
-29
-18
-6
2
10
19
31
35
36
35
34
33
31
29
28
27
20
17
21
19
18
15
8
3
2
0
-3
-9
-14
-15
-12
-17
-23
-26
-23
-22
-29
-20
-12
-9
-10
-11
-11
-14
-11
-8
-7
-3
-6
-9
-7
-1
0
-3
-5
-6
-9
-10
-15
-16
-14
-16
-17
-14
-12
-12
-17
-15
-12
-10
-9
-9
-9
-8
-6
-1
2
-2
-12
-14
-17
-21
-26
-34
-40
-45
-52
-63
-67
-62
-61
-61
-61
-64
-66
-64
-65
-67
-70
-70
-54
-35
1
69
186
365
529
548
459
306
73
-135
-223
-227
-188
-174
-147
-137
-136
-130
-124
-120
-121
-124
-123
-118
-110
-103
-107
-117
-118
-118
-120
-112
-106
-103
-103
-100
-95
-92
-92
-88
-91
-92
-86
-79
-70
-71
-67
-59
-47
-34
-22
-8
4
18
20
16
26
32
35
36
31
28
27
27
21
18
23
22
18
25
20
2
-4
1
-1
-13
-23
-29
-31
-35
-32
-30
-32
-25
-21
-17
-12
-15
-16
-15
-2
3
0
2
6
12
7
2
5
6
8
11
14
8
0
-4
-5
-10
-7
-4
-7
-9
-2
0
1
-2
-4
-12
-12
-5
0
3
-6
-10
-1
1
-6
-17
-23
-16
-21
-28
-35
-37
-40
-46
-52
-51
-50
-54
-60
-59
-61
-63
-53
-51
-70
-78
-61
-37
-2
61
159
307
467
533
477
343
138
-85
-214
-241
-202
-187
-161
-145
-131
-128
-119
-108
-106
-113
-112
-109
-107
-109
-111
-107
-105
-105
-103
-99
-92
-97
-101
-97
-93
-91
-92
-93
-86
-77
-73
-70
-63
-52
-48
-47
-38
-23
-8
0
7
20
31
33
39
48
50
46
43
47
43
40
26
24
27
17
7
5
0
-3
-5
-7
-7
-9
-18
-18
-15
-24
-32
-37
-44
-47
-48
-42
-40
-39
-37
-33
-28
-23
-23
-23
-15
-7
-7
-8
-4
-2
-7
-10
-8
-4
-1
-8
-14
-14
-11
-10
-13
-12
-12
-14
-10
-12
-12
-13
-15
-8
-5
-15
-18
-18
-14
-13
-9
-10
-17
-25
-31
-32
-27
-33
-49
-56
-58
-56
-57
-70
-73
-71
-71
-74
-75
-79
-79
-78
-60
-33
17
95
215
391
538
544
464
321
87
-135
-225
-220
-184
-173
-152
-142
-130
-122
-120
-121
-118
-121
-124
-116
-110
-111
-115
-107
-107
-111
-111
-111
-112
-103
-103
-106
-98
-93
-92
-91
-87
-80
-79
-81
-77
-63
-55
-46
-31
-18
-6
6
17
25
33
37
42
54
61
59
58
53
48
44
32
28
15
12
13
15
9
-2
-2
3
5
-2
-5
-7
-7
-17
-26
-24
-23
-24
-28
-34
-33
-34
-35
-23
-20
-22
-22
-14
-7
0
-1
-8
-6
1
3
1
1
1
-2
-5
-10
-9
-5
-5
-6
-3
0
0
3
7
6
4
2
3
-4
-4
-4
-5
-1
-4
-11
-18
-18
-17
-23
-25
-30
-43
-53
-54
-56
-51
-49
-56
-57
-59
-64
-62
-63
-65
-69
-58
-29
22
112
247
416
546
557
467
322
79
-137
-218
-207
-168
-145
-141
-144
-133
-120
-115
-122
-121
-115
-113
-112
-115
-108
-110
-117
-113
-107
-106
-102
-99
-97
-97
-95
-91
-92
-93
-92
-83
-79
-74
-68
-64
-58
-48
-37
-34
-23
0
11
22
31
38
42
45
51
53
52
49
48
46
39
37
39
38
35
33
28
20
12
12
10
4
1
0
-4
-6
-5
-14
-26
-29
-22
-19
-17
-20
-21
-22
-25
-34
-25
-24
-26
-21
-16
-13
-15
-16
-7
-3
-1
-5
-6
-5
-9
-10
-13
-15
-16
-12
-13
-10
-3
-1
2
2
3
2
-2
-3
0
-7
-9
1
3
-9
-14
-15
-17
-25
-34
-40
-42
-49
-53
-51
-55
-56
-57
-60
-61
-61
-59
-63
-67
-73
-71
-59
-24
32
112
243
424
561
572
476
334
92
-125
-208
-202
-173
-156
-152
-145
-132
-117
-115
-118
-121
-119
-125
-127
-122
-118
-115
-112
-112
-115
-115
-113
-106
-94
-88
-98
-105
-102
-96
-94
-93
-98
-89
-78
-71
-68
-56
-48
-41
-19
-5
-2
4
13
22
29
41
47
48
47
43
45
52
43
38
40
40
32
22
18
24
33
32
28
25
14
-2
-7
-4
-2
0
-10
-16
-13
-13
-13
-13
-15
-18
-20
-18
-16
-14
-8
-2
-1
0
-2
-3
0
5
10
5
0
4
8
3
1
-2
-9
-10
-7
1
3
3
1
7
10
4
-2
5
11
3
-1
1
8
7
-5
-12
-4
-4
-12
-20
-24
-30
-36
-45
-48
-47
-48
-54
-51
-53
-60
-60
-62
-66
-69
-70
-56
-38
0
70
194
370
535
579
520
393
181
-55
-187
-211
-177
-166
-150
-142
-132
-127
-123
-120
-117
-122
-122
-116
-116
-123
-126
-126
-121
-117
-114
-110
-107
-107
-110
-108
-99
-95
-94
-94
-95
-92
-87
-82
-73
-63
-59
-49
-37
-28
-22
-11
3
15
21
23
27
29
32
31
37
43
38
35
37
35
31
28
24
21
23
24
18
18
20
15
4
-4
-7
-10
-15
-16
-9
-9
-14
-13
-14
-15
-14
-12
-16
-15
-9
0
3
1
-4
-10
-10
-9
-9
-8
-4
-1
-4
-6
-9
-3
-1
-8
-12
-9
-8
-9
-8
-4
-3
-8
-8
-2
2
5
10
9
2
-3
-1
-2
-9
-23
-21
-17
-16
-17
-29
-38
-43
-43
-42
-43
-51
-57
-64
-68
-62
-60
-60
-62
-60
-57
-48
-33
-8
50
151
315
492
553
478
340
136
-71
-196
-223
-209
-176
-159
-149
-145
-137
-127
-122
-123
-116
-112
-113
-113
-105
-101
-97
-103
-111
-112
-114
-114
-110
-101
-98
-97
-101
-94
-85
-94
-97
-89
-80
-74
-70
-57
-52
-45
-35
-24
-9
0
11
21
29
32
33
40
42
40
42
44
36
33
25
16
22
27
23
15
12
12
13
11
8
0
-7
-13
-14
-14
-17
-21
-17
-8
-5
-6
-8
-5
3
7
8
11
6
1
1
14
24
21
18
18
14
4
-2
-2
-2
-2
-2
0
0
-3
-5
-13
-11
-8
-11
-13
-8
-4
-4
-2
6
8
-1
-5
2
5
3
0
-7
-13
-15
-23
-29
-25
-29
-31
-41
-43
-51
-61
-61
-58
-56
-55
-49
-50
-58
-65
-64
-56
-46
-25
30
127
282
463
564
528
414
210
134
-189
-233
-210
-175
-153
-140
-134
-124
-116
-115
-111
-108
-115
-118
-109
-106
-103
-107
-113
-110
-107
-103
-98
-97
-96
-98
-93
-84
-83
-88
-88
-85
-87
-87
-73
-61
-55
-48
-38
-31
-21
-6
4
12
21
24
33
42
39
37
48
48
47
33
22
21
19
17
13
14
16
13
10
8
8
5
3
1
-9
-24
-39
-47
-45
-44
-45
-42
-33
-24
-21
-23
-18
-12
-8
-6
-1
2
-1
-4
1
10
10
4
2
4
0
-1
-4
-10
-16
-18
-7
-5
-4
-9
-15
-19
-18
-13
-7
-10
-7
-1
-6
-11
-11
-11
-9
-8
-9
-9
-19
-24
-28
-35
-37
-45
-57
-49
-47
-56
-52
-48
-54
-57
-62
-65
-63
-72
-80
-67
-47
-22
24
112
247
422
546
544
431
387
11
-170
-235
-227
-187
-162
-147
-133
-128
-122
-112
-112
-110
-110
-109
-111
-110
-106
-100
-94
-89
-91
-95
-97
-96
-90
-89
-93
-102
-100
-89
-82
-80
-79
-73
-64
-58
-54
-44
-32
-25
-9
8
19
31
41
52
61
63
62
46
49
48
48
51
49
38
30
24
26
29
26
21
21
23
12
1
-6
-17
-27
-31
-31
-29
-32
-33
-37
-30
-24
-29
-31
-24
-16
-9
-8
-4
0
0
2
4
4
7
9
8
7
3
0
-3
0
0
-1
-8
-3
-1
-4
-6
-2
0
-1
-1
-4
-2
4
6
1
1
4
3
5
-1
-8
-14
-20
-21
-20
-21
-35
-39
-47
-53
-55
-56
-54
-57
-60
-63
-61
-63
-66
-69
-74
-69
-48
-11
55
158
309
476
554
502
475
198
-43
-189
-226
-201
-167
-149
-142
-136
-124
-114
-116
-126
-129
-120
-117
-116
-112
-108
-110
-113
-111
-111
-104
-100
-105
-98
-97
-98
-98
-92
-88
-88
-88
-82
-75
-72
-66
-52
-37
-28
-21
-10
5
12
14
24
37
44
45
53
55
53
50
36
31
33
33
32
34
36
29
16
2
0
-4
-12
-13
-8
-13
-16
-16
-17
-23
-26
-37
-34
-29
-26
-27
-26
-24
-25
-26
-21
-11
-9
-8
-6
-1
2
-3
-5
-3
-11
-14
-7
-5
-9
-10
-10
-11
-12
-10
-8
-7
-3
-5
-7
-9
-8
-10
-6
-2
-5
-2
-1
2
4
-2
-10
-12
-12
-19
-23
-25
-28
-33
-36
-45
-54
-67
-75
-71
-70
-66
-60
-57
-70
-80
-74
-58
-28
21
100
242
422
561
578
566
359
119
-100
-194
-201
-174
-156
-155
-150
-136
-123
-127
-129
-123
-115
-109
-112
-116
-113
-112
-112
-103
-94
-91
-92
-94
-85
-86
-91
-92
-86
-83
-88
-91
-92
-82
-76
-66
-49
-38
-29
-25
-22
2
13
19
30
42
50
51
44
45
49
57
56
48
46
45
41
34
32
32
29
29
27
17
15
20
17
5
0
0
0
-4
-7
-14
-14
-13
-20
-24
-25
-23
-19
-18
-17
-10
-10
-11
-8
-5
-3
1
5
5
6
0
-4
-4
-1
0
-11
-9
-6
-5
-8
-5
-2
-2
-11
-5
0
-1
-2
6
9
-1
-5
-5
-1
-2
-11
-20
-18
-15
-14
-25
-31
-30
-44
-52
-52
-52
-58
-62
-65
-62
-62
-65
-64
-61
-68
-71
-61
-36
3
75
191
360
522
560
503
387
164
-71
-191
-206
-171
-154
-154
-146
-134
-127
-124
-124
-125
-122
-125
-126
-121
-123
-128
-120
-118
-122
-122
-118
-114
-111
-111
-116
-120
-113
-101
-95
-91
-87
-81
-76
-72
-62
-51
-48
-44
-33
-24
-17
-4
8
16
18
31
39
39
40
35
31
29
25
28
29
26
24
28
29
29
27
17
12
11
6
-1
-7
0
-5
-10
-16
-13
-15
-19
-22
-24
-16
-12
-13
-15
-18
-18
-16
-12
-11
-8
-8
-3
0
0
0
4
4
0
-2
-11
-1
-2
-7
-7
-4
-2
-4
-7
-7
-6
-8
-6
-2
6
8
5
3
6
10
10
6
-4
-8
-8
-16
-24
-28
-31
-43
-46
-48
-54
-54
-61
-58
-49
-47
-52
-56
-56
-63
-72
-71
-62
-36
24
113
254
305
560
569
484
337
98
-113
-208
-209
-180
-158
-144
-146
-138
-130
-127
-126
-130
-125
-116
-118
-124
-123
-119
-113
-111
-108
-102
-106
-112
-115
-109
-100
-94
-93
-94
-92
-96
-92
-86
-76
-64
-61
-53
-39
-36
-37
-29
-9
6
10
23
28
31
31
35
35
37
39
33
33
39
37
35
34
32
31
28
24
25
22
17
14
12
9
7
1
5
3
-3
-8
-10
-8
-7
-5
-4
-5
-2
-1
-3
-1
0
1
4
7
7
4
8
9
2
0
6
3
2
-1
-5
-5
-1
-5
-8
-6
-4
-6
-7
-6
-7
-4
-3
-3
2
3
0
-1
8
10
8
-13
-16
-16
-19
-27
-31
-39
-48
-54
-58
-57
-59
-62
-62
-58
-61
-67
-64
-57
-67
-73
-60
-34
3
18
192
371
512
529
438
296
83
-109
-217
-213
-176
-161
-151
-145
-138
-130
-126
-125
-124
-124
-128
-129
-124
-121
-119
-117
-117
-117
-118
-123
-119
-112
-108
-110
-114
-109
-103
-99
-96
-93
-92
-89
-85
-79
-74
-64
-44
-28
-25
-24
-16
-5
0
8
19
27
28
25
26
31
28
22
14
14
17
17
14
10
9
14
14
10
10
2
-1
-5
-8
-7
-13
-13
-6
-4
-8
-11
-9
-6
-10
-5
0
2
8
5
3
4
6
6
5
6
3
2
4
2
2
1
-4
-9
-10
-10
-10
-7
-8
-9
-9
-10
-7
-2
4
6
1
-5
-9
-4
6
5
3
-3
-9
-16
-23
-27
-26
-32
-34
-39
-49
-53
-57
-61
-62
-60
-56
-58
-66
-64
-65
-68
-54
-29
3
14
171
342
504
545
460
317
103
-106
-230
-242
-200
-171
-162
-145
-126
-119
-123
-122
-115
-113
-119
-118
-113
-113
-113
-107
-106
-103
-97
-98
-102
-105
-106
-101
-98
-92
-92
-94
-86
-82
-84
-85
-81
-68
-58
-50
-40
-31
-23
-19
2
9
15
25
31
30
27
26
27
31
26
27
29
29
25
20
20
17
16
18
11
4
2
-4
-7
-10
-9
-12
-12
-13
-17
-13
-10
-11
-6
-1
-2
-2
6
13
10
14
17
16
15
7
10
18
17
15
12
14
6
-2
-4
-4
-5
-9
-10
-6
-3
-4
-6
-2
0
-3
-4
-1
0
1
-2
-1
5
0
-4
-23
-22
-14
-19
-26
-28
-32
-39
-44
-50
-49
-47
-52
-53
-49
-48
-55
-62
-66
-66
-67
-63
-40
-2
13
178
355
522
563
479
331
105
-111
-228
-233
-192
-163
-148
-132
-118
-105
-103
-107
-112
-117
-119
-113
-107
-105
-104
-111
-110
-106
-104
-104
-102
-103
-105
-106
-96
-84
-84
-87
-81
-68
-68
-70
-67
-58
-53
-40
-27
-15
-3
0
2
16
25
28
31
34
39
41
41
38
38
35
34
32
24
18
15
11
7
11
9
3
4
2
0
-14
-15
-18
-28
-31
-29
-37
-38
-32
-23
-15
-11
-7
-8
-9
-9
-11
-1
5
4
2
1
8
16
19
2
-2
0
-2
-4
-1
2
-2
-4
0
1
-3
-10
-10
-2
4
9
8
6
6
3
3
2
-13
-18
-19
-16
-20
-23
-26
-36
-47
-45
-46
-54
-56
-55
-55
-58
-61
-59
-60
-66
-74
-69
-46
-11
42
132
166
443
566
542
430
256
12
-173
-228
-214
-174
-155
-147
-135
-123
-114
-112
-111
-110
-107
-104
-101
-100
-101
-94
-92
-104
-94
-87
-89
-94
-92
-88
-91
-87
-76
-76
-77
-71
-68
-65
-57
-50
-46
-41
-27
-20
-10
4
18
24
44
45
51
56
57
61
62
58
57
53
48
44
35
32
31
23
13
11
17
14
3
-5
-6
-11
-14
-21
-20
-28
-34
-33
-35
-31
-28
-28
-29
-28
-24
-19
-14
-4
1
-1
-2
0
1
-5
-6
-1
1
2
0
0
-5
-8
-8
-2
0
-5
-11
-7
-5
-11
-11
-3
1
-2
-4
-7
-3
0
-7
-17
-10
-13
-16
-26
-29
-34
-40
-49
-57
-61
-60
-58
-63
-61
-63
-64
-63
-65
-70
-75
-66
-42
-6
55
155
310
469
511
476
362
162
-77
-205
-219
-183
-157
-152
-142
-131
-125
-122
-120
-119
-120
-113
-108
-103
-103
-105
-106
-104
-103
-104
-108
-101
-93
-96
-97
-92
-89
-88
-89
-84
-78
-75
-71
-64
-53
-43
-41
-34
-22
-10
1
11
23
29
31
47
50
50
52
51
51
50
47
43
38
34
27
19
16
11
2
0
-1
-2
-6
-9
-10
-12
-17
-21
-30
-28
-27
-30
-31
-25
-21
-21
-19
-15
-14
-15
-7
-2
-1
4
7
1
-2
-1
-2
-3
-4
-10
-12
-10
-3
3
11
11
4
4
8
-1
-6
3
9
2
-4
-5
0
2
2
-1
-5
-10
-20
-28
-30
-32
-45
-41
-42
-47
-50
-53
-63
-61
-57
-61
-62
-64
-69
-67
-52
-36
6
73
181
341
518
598
546
411
362
-64
-207
-223
-192
-167
-154
-149
-138
-126
-116
-110
-111
-114
-113
-109
-109
-106
-104
-102
-109
-116
-114
-106
-99
-96
-96
-101
-98
-92
-91
-86
-84
-82
-70
-61
-55
-52
-48
-39
-24
-16
-10
-2
11
25
33
44
52
52
50
50
51
58
52
47
46
46
45
44
36
36
33
25
25
15
6
4
6
4
1
-7
-9
-12
-14
-14
-17
-25
-24
-19
-14
-11
-10
-10
-10
-12
-12
-9
-5
-4
-2
-2
-6
-2
3
1
0
-2
-1
-3
-5
-7
1
6
0
-3
5
4
0
6
11
5
0
5
12
11
-3
-15
-22
-22
-18
-25
-29
-35
-40
-42
-51
-56
-62
-68
-62
-58
-61
-66
-71
-76
-72
-68
-56
-31
19
94
226
396
532
555
470
332
108
-112
-164
-210
-177
-161
-160
-155
-139
-130
-125
-124
-125
-119
-111
-114
-119
-118
-115
-117
-116
-106
-102
-105
-104
-98
-97
-98
-96
-96
-96
-93
-91
-85
-77
-76
-74
-63
-55
-47
-36
-27
-15
0
8
20
34
36
35
40
44
44
44
47
52
47
33
33
32
28
26
25
26
24
18
11
10
11
6
4
2
0
-2
-9
-10
-12
-14
-15
-28
-30
-21
-13
-12
-12
-8
-10
-10
-8
-2
0
-3
-9
-5
-2
-2
0
2
1
-3
3
16
22
21
0
-5
-4
-4
-5
-2
4
6
5
2
12
20
9
-4
-6
3
5
-10
-27
-38
-44
-48
-50
-52
-54
-58
-60
-61
-59
-56
-47
-40
-52
-67
-70
-55
-21
28
112
242
422
565
590
506
368
128
-102
-207
-205
-195
-153
-145
-132
-126
-126
-122
-115
-123
-129
-126
-113
-108
-111
-112
-114
-111
-109
-108
-110
-110
-108
-107
-103
-97
-95
-88
-89
-91
-85
-82
-75
-68
-61
-54
-40
-28
-25
-20
-9
9
23
28
34
40
42
43
44
46
47
46
42
43
40
35
31
30
32
32
34
35
30
18
12
10
10
2
0
-1
0
-5
-12
-15
-10
-8
-9
-10
-11
-13
-11
-4
0
7
2
-9
-5
5
8
4
-2
-7
-6
-4
-6
-2
-2
-3
-2
2
0
-1
0
0
-2
-4
1
8
10
9
9
7
13
9
1
-2
-3
-10
-17
-19
-19
-24
-38
-56
-64
-60
-58
-56
-59
-63
-66
-66
-65
-66
-74
-71
-50
-25
21
105
250
433
557
516
399
224
-8
-178
-241
-221
-181
-173
-146
-132
-123
-123
-122
-122
-122
-125
-126
-122
-116
-113
-115
-109
-103
-109
-117
-121
-113
-105
-103
-98
-92
-94
-97
-99
-93
-91
-87
-79
-75
-75
-66
-46
-33
-26
-18
-10
0
8
18
16
23
31
26
21
26
27
27
29
30
27
21
11
8
8
6
4
1
-5
-11
-14
-14
-10
-8
-11
-14
-15
-9
-16
-23
-15
-10
-8
-8
-5
-7
-2
0
0
4
7
5
3
0
0
4
2
-1
1
-4
-11
-13
-8
-5
-12
-11
-9
-8
-7
-3
3
1
-2
2
4
3
6
3
-2
0
-1
-8
-17
-24
-30
-33
-38
-42
-43
-49
-53
-44
-44
-48
-53
-53
-55
-52
-54
-58
-71
-79
-62
-28
20
98
220
403
566
589
478
309
57
-154
-239
-230
-191
-169
-163
-139
-130
-116
-111
-107
-108
-107
-111
-111
-107
-107
-106
-98
-93
-99
-102
-103
-102
-92
-87
-91
-94
-86
-83
-82
-77
-73
-73
-65
-62
-58
-54
-46
-34
-18
-2
12
23
29
39
47
50
39
38
46
46
41
35
28
29
28
28
27
20
18
14
12
8
6
-1
-7
-9
-13
-14
-12
-20
-28
-31
-24
-18
-21
-24
-18
-9
-6
-7
-10
-5
-2
-2
0
2
0
3
3
2
2
1
-3
-4
-8
-8
-7
-4
-4
-5
-2
1
-3
-5
-7
-4
-2
-4
-4
-7
-8
-6
-4
-7
-14
-25
-28
-26
-26
-26
-33
-51
-58
-60
-60
-56
-54
-56
-58
-65
-65
-56
-59
-66
-73
-73
-56
-22
42
137
285
447
521
463
338
132
-91
-211
-237
-209
-177
-158
-144
-139
-124
-115
-112
-118
-120
-119
-118
-116
-114
-115
-108
-105
-105
-104
-102
-100
-102
-105
-104
-99
-96
-95
-92
-85
-84
-82
-71
-67
-66
-65
-54
-40
-28
-12
0
9
13
19
27
35
40
41
45
45
42
39
33
31
28
27
24
19
12
7
4
2
0
-10
-17
-23
-23
-24
-28
-33
-37
-43
-41
-35
-28
-29
-35
-27
-13
-9
-10
-10
-6
-4
-1
-4
-4
-2
-3
-3
0
3
1
-3
-1
-2
-9
-10
-5
-3
-11
-11
-6
-8
-5
-4
-4
-1
-5
-10
-10
-3
2
-4
-13
-17
-19
-27
-37
-32
-26
-31
-37
-48
-55
-60
-67
-68
-64
-61
-62
-62
-62
-72
-76
-63
-33
18
99
229
416
570
581
496
349
101
-131
-216
-213
-180
-157
-145
-139
-130
-125
-124
-127
-118
-115
-116
-115
-108
-105
-104
-104
-106
-106
-107
-102
-102
-103
-96
-97
-96
-89
-85
-82
-78
-76
-75
-73
-69
-62
-49
-39
-28
-16
-3
9
22
36
42
42
48
54
47
44
47
49
44
45
42
38
37
35
34
25
22
17
11
5
3
4
2
-4
-9
-7
-18
-25
-22
-18
-23
-26
-24
-20
-17
-18
-14
-6
-7
-7
-5
-1
2
-3
-4
3
6
3
1
2
-1
-4
-8
-9
-5
-2
1
3
0
-3
-4
-1
2
3
4
2
-1
-2
-2
2
2
-7
-12
-18
-21
-22
-32
-39
-42
-50
-56
-59
-62
-60
-62
-67
-62
-59
-62
-64
-75
-82
-72
-44
-7
52
147
293
459
541
504
396
208
-38
-193
-237
-206
-172
-158
-145
-134
-128
-117
-118
-121
-119
-121
-119
-119
-123
-121
-120
-120
-118
-112
-108
-111
-111
-104
-101
-101
-101
-96
-93
-94
-96
-94
-80
-69
-65
-54
-47
-36
-30
-23
-5
6
10
18
30
40
42
40
42
45
46
43
41
44
40
34
35
33
24
21
19
21
15
9
4
4
2
-1
-3
-6
-5
-12
-16
-17
-14
-17
-22
-24
-20
-18
-20
-12
-2
0
-1
-2
-1
-1
-7
-10
-6
0
0
0
-2
-2
-6
-5
-2
-1
-6
-9
-3
-3
-4
-6
-5
0
4
4
0
-1
-3
-2
0
-7
-16
-15
-13
-15
-17
-26
-43
-49
-43
-50
-59
-62
-57
-59
-66
-63
-57
-60
-63
-77
-72
-51
-21
34
127
267
438
558
534
437
279
39
-157
-222
-211
-179
-162
-149
-145
-139
-129
-122
-123
-125
-123
-125
-125
-122
-124
-118
-116
-115
-113
-113
-110
-107
-107
-107
-102
-99
-102
-101
-96
-92
-89
-86
-82
-74
-71
-61
-49
-43
-25
-11
-2
12
17
25
31
33
34
37
38
37
35
31
30
33
33
26
16
13
20
21
21
23
21
10
5
4
2
0
-5
-11
-13
-17
-18
-18
-15
-15
-17
-14
-11
-13
-18
-20
-16
-8
-7
-3
0
0
1
3
2
0
-3
-5
-6
-9
-13
-14
-9
-7
-9
-9
-9
-4
-1
-2
-6
-4
1
3
-2
5
5
2
1
-7
-11
-12
-16
-21
-25
-32
-40
-47
-51
-56
-60
-57
-56
-58
-59
-62
-62
-63
-64
-77
-76
-65
-46
-1
70
182
345
492
507
424
294
91
-109
-206
-217
-182
-155
-146
-144
-138
-132
-127
-125
-124
-124
-118
-115
-121
-124
-121
-118
-121
-123
-119
-112
-108
-110
-110
-106
-103
-105
-99
-96
-93
-92
-87
-80
-74
-73
-61
-48
-40
-35
-23
-6
0
4
5
11
26
40
33
28
34
36
36
37
39
36
29
29
35
33
31
22
19
23
20
17
12
8
3
1
-4
-6
-8
-9
-12
-14
-16
-16
-15
-12
-8
-9
-4
0
3
4
6
6
1
-3
-4
-1
0
-3
-4
0
0
-5
-11
-14
-12
-4
-7
-11
-12
-13
-15
-11
-3
-4
-5
2
4
3
-4
-3
3
8
-5
-13
-12
-9
-13
-22
-24
-27
-41
-46
-48
-50
-51
-54
-53
-50
-51
-53
-59
-54
-57
-61
-54
-34
-5
47
129
279
446
515
447
318
123
-92
-216
-251
-214
-179
-164
-148
-134
-123
-119
-114
-112
-109
-108
-111
-110
-109
-109
-108
-111
-108
-109
-106
-103
-100
-98
-98
-99
-95
-90
-90
-91
-86
-82
-82
-78
-70
-60
-52
-41
-31
-27
-20
-6
4
12
22
23
18
21
24
23
27
29
26
26
25
28
24
22
21
18
17
11
4
0
2
-1
-7
-3
0
-4
-6
-6
-5
-5
-2
-1
0
2
3
5
9
12
13
11
14
15
12
14
15
15
11
5
7
5
-1
-5
-3
-3
-9
-12
-10
-8
-10
-12
-10
-6
-3
-2
-7
-5
0
2
2
0
4
3
2
-2
-11
-16
-15
-15
-22
-30
-37
-45
-45
-47
-54
-56
-53
-56
-58
-62
-53
-52
-55
-67
-68
-55
-34
0
69
177
341
495
531
441
295
69
-145
-230
-232
-194
-165
-153
-144
-139
-119
-110
-104
-102
-103
-106
-109
-107
-110
-111
-106
-104
-101
-103
-96
-93
-98
-98
-94
-93
-92
-93
-81
-71
-71
-75
-63
-55
-57
-54
-40
-31
-22
-11
0
10
17
22
34
42
36
34
38
36
33
31
23
27
27
24
25
20
14
15
15
9
9
3
-9
-15
-15
-20
-24
-24
-23
-28
-31
-27
-20
-14
-13
-10
-3
0
0
1
5
6
6
4
8
11
8
5
3
5
1
-6
-10
-8
-8
-9
-11
-8
-9
-12
-8
-2
0
0
0
-2
-2
1
0
-3
1
1
0
1
3
-5
-11
-10
-18
-27
-30
-34
-39
-41
-42
-51
-58
-53
-51
-51
-53
-57
-61
-65
-66
-65
-54
-22
38
124
256
420
540
528
425
249
10
-167
-228
-214
-180
-155
-142
-138
-126
-113
-107
-107
-109
-108
-103
-103
-106
-104
-99
-98
-100
-98
-96
-95
-95
-91
-85
-82
-82
-83
-84
-82
-80
-72
-68
-63
-59
-51
-41
-28
-19
-11
0
12
20
25
30
39
45
48
49
52
51
47
45
46
40
38
29
29
21
15
14
13
7
4
3
0
-4
-9
-16
-23
-24
-23
-23
-23
-23
-24
-25
-20
-14
-10
-10
-5
-1
0
-1
2
9
12
10
7
5
9
7
0
-2
-6
-10
-9
-7
-2
-1
0
-3
0
0
-2
-4
0
4
2
-1
-2
-6
-5
-3
-3
-9
-12
-14
-15
-17
-25
-37
-40
-43
-52
-56
-56
-51
-54
-58
-64
-64
-64
-72
-75
-73
-69
-50
-18
37
126
267
430
532
506
406
238
-2
-171
-222
-202
-169
-150
-143
-141
-132
-119
-116
-116
-115
-112
-109
-109
-113
-110
-104
-108
-111
-104
-96
-96
-97
-97
-102
-102
-96
-88
-82
-78
-79
-78
-70
-65
-58
-51
-40
-29
-23
-11
1
11
20
33
39
44
49
50
51
57
58
52
44
43
43
42
39
34
26
23
23
22
15
13
13
10
5
0
-1
-4
-2
-5
-10
-13
-12
-15
-19
-19
-13
-10
-9
-8
0
2
0
-1
1
5
5
4
4
5
7
3
2
2
0
0
-2
-4
0
0
-4
0
2
2
-1
3
12
15
9
6
9
9
8
14
13
4
0
-4
-12
-17
-20
-26
-33
-41
-46
-47
-48
-51
-53
-53
-47
-50
-51
-54
-60
-65
-58
-45
-10
51
150
297
472
568
529
414
246
2
-174
-226
-200
-163
-149
-147
-137
-121
-112
-112
-113
-113
-110
-112
-117
-114
-106
-108
-112
-103
-98
-99
-98
-97
-93
-90
-92
-92
-86
-81
-81
-80
-75
-73
-67
-55
-46
-39
-35
-28
-11
0
8
21
31
36
42
46
48
47
49
46
44
49
50
48
36
40
44
36
33
29
27
22
21
21
13
7
7
5
0
-5
-8
-6
-3
-7
-10
-10
-9
-7
-8
-6
-1
-1
-1
-1
3
5
5
5
5
11
11
7
6
7
1
-2
-5
-2
2
0
3
6
3
0
-1
0
1
0
1
4
4
1
0
2
10
4
-4
-6
-7
-13
-20
-24
-29
-35
-42
-49
-53
-55
-56
-60
-51
-52
-57
-58
-59
-65
-72
-68
-48
-13
46
140
290
463
562
517
414
239
-1
-166
-214
-190
-160
-153
-146
-138
-126
-125
-124
-117
-113
-116
-114
-114
-116
-117
-117
-117
-113
-110
-115
-114
-108
-104
-105
-102
-94
-89
-88
-86
-82
-80
-76
-71
-61
-48
-42
-34
-24
-12
-3
4
13
28
35
35
41
43
35
33
39
41
42
42
38
37
42
44
45
39
34
28
26
32
29
16
10
9
9
8
6
5
-1
-5
-8
-4
2
4
4
-5
-12
-10
-3
2
5
10
10
8
9
7
2
1
6
8
5
2
2
7
8
4
1
1
4
5
3
5
4
5
2
6
16
20
13
6
4
7
12
8
2
2
0
-5
-10
-11
-17
-33
-36
-36
-37
-46
-46
-51
-54
-53
-50
-46
-50
-57
-63
-51
-27
-6
34
125
269
446
555
511
390
204
-24
-189
-242
-246
-179
-155
-140
-131
-128
-119
-112
-113
-112
-109
-104
-102
-106
-105
-104
-101
-102
-98
-95
-90
-90
-96
-97
-90
-87
-90
-87
-84
-83
-79
-74
-68
-65
-59
-47
-35
-26
-18
-7
6
16
22
32
38
38
33
36
41
40
39
36
35
38
34
29
29
29
24
17
11
8
5
1
-1
0
-3
-10
-11
-5
-7
-14
-12
-8
-5
-4
2
2
2
4
6
10
10
14
17
18
19
13
8
8
11
13
8
6
10
2
-6
-5
-4
-7
-8
-10
-9
-8
-11
-13
-4
-4
-6
0
5
5
0
-2
0
3
-2
-8
-12
-11
-15
-18
-26
-33
-38
-39
-41
-44
-45
-56
-65
-59
-55
-56
-57
-60
-66
-72
-66
-50
-25
20
104
232
414
551
538
427
259
21
-52
-226
-211
-177
-152
-138
-134
-130
-121
-112
-108
-107
-107
-107
-102
-101
-104
-107
-102
-96
-94
-94
-96
-90
-83
-81
-84
-88
-91
-87
-81
-72
-71
-69
-59
-55
-47
-42
-31
-12
0
6
10
10
21
36
44
48
49
46
44
39
42
46
41
35
31
31
31
26
25
31
27
19
15
3
-8
-11
-19
-21
-20
-18
-17
-21
-18
-19
-21
-16
-7
-5
-2
1
-1
2
7
13
17
14
9
15
20
15
11
4
0
-1
-9
-11
-7
-8
-10
-8
-7
-1
-3
-9
-6
0
-2
-6
-1
5
4
2
1
0
0
-5
-13
-19
-19
-16
-19
-23
-33
-38
-43
-42
-47
-54
-57
-49
-43
-52
-56
-59
-57
-62
-68
-65
-45
-14
33
110
246
419
529
511
415
244
178
-167
-231
-215
-179
-155
-136
-128
-124
-114
-107
-106
-108
-107
-103
-102
-102
-104
-105
-102
-101
-103
-102
-98
-93
-92
-91
-92
-94
-92
-90
-86
-78
-75
-75
-69
-59
-50
-43
-35
-21
-11
-1
10
23
28
36
41
41
45
47
42
42
41
31
29
32
31
24
23
25
21
13
6
0
-1
-6
-10
-12
-14
-21
-27
-28
-27
-26
-25
-32
-30
-17
-18
-19
-12
-9
-12
-12
-8
-3
0
-3
-3
1
1
-1
-3
-4
-4
-5
-6
-8
-11
-14
-11
-9
-10
-6
-5
-4
-2
-3
-4
1
5
3
-2
-5
-5
-1
-5
-13
-16
-17
-22
-29
-33
-45
-50
-61
-61
-63
-60
-63
-65
-61
-67
-71
-71
-69
-72
-79
-71
-45
-7
56
155
312
481
553
506
403
203
125
-203
-230
-198
-175
-162
-150
-135
-126
-121
-117
-117
-118
-124
-126
-118
-113
-116
-118
-112
-105
-101
-104
-103
-102
-103
-101
-92
-90
-93
-97
-95
-86
-82
-74
-69
-63
-53
-44
-34
-24
-14
-4
11
24
29
35
43
50
50
49
50
55
54
51
39
28
31
36
32
22
18
12
2
-4
-1
-1
-5
-7
-8
-6
-7
-7
-7
-13
-16
-25
-27
-24
-19
-17
-10
-8
-10
-15
-16
-9
-8
-6
1
5
2
-3
-8
-7
-11
-18
-14
-8
-10
-11
-4
-1
-3
-6
-8
-6
0
0
-1
0
3
3
-9
-14
-7
-2
-2
-9
-15
-14
-12
-20
-29
-35
-37
-45
-47
-53
-66
-73
-66
-63
-65
-65
-64
-60
-65
-73
-73
-60
-30
26
123
277
452
556
527
431
259
192
-169
-227
-205
-173
-159
-150
-136
-127
-125
-123
-122
-122
-124
-123
-117
-117
-119
-116
-115
-112
-112
-112
-109
-110
-110
-111
-105
-99
-96
-97
-93
-91
-85
-83
-78
-72
-59
-50
-45
-30
-16
-10
3
14
25
29
32
42
41
40
42
40
37
35
40
40
37
30
28
26
26
25
20
19
12
4
0
0
-4
-6
-12
-16
-12
-15
-18
-20
-20
-23
-25
-20
-19
-15
-17
-16
-12
-10
-8
-4
-2
-3
-8
-10
-5
-1
-8
-12
-13
-8
-7
-9
-10
-8
-6
-4
-8
-8
-3
-6
-8
-4
-1
-8
-10
-4
-1
2
1
-5
-11
-14
-17
-23
-26
-31
-34
-47
-55
-56
-62
-67
-65
-60
-62
-64
-62
-59
-68
-78
-77
-65
-36
20
108
251
421
553
560
472
315
254
-135
-217
-210
-180
-164
-152
-141
-135
-134
-130
-128
-129
-127
-127
-119
-116
-119
-121
-114
-120
-123
-115
-113
-107
-106
-109
-111
-109
-106
-97
-92
-92
-93
-89
-80
-72
-66
-57
-40
-28
-28
-21
-9
3
16
18
19
27
32
35
33
33
32
31
28
32
37
29
24
23
25
22
23
13
3
2
5
7
4
1
-4
-8
-11
-12
-13
-14
-11
-11
-13
-14
-7
-4
-8
-6
-2
1
4
3
2
6
7
6
9
7
1
-3
-4
-1
1
1
-8
-5
-5
-9
-3
0
2
4
4
6
11
15
14
10
7
6
6
3
-4
-9
-8
-9
-8
-17
-22
-40
-41
-39
-46
-51
-51
-55
-58
-59
-61
-62
-58
-61
-68
-60
-47
-28
21
116
269
442
531
487
369
327
-33
-187
-237
-214
-175
-156
-149
-145
-133
-122
-119
-122
-121
-118
-118
-120
-122
-122
-118
-119
-117
-114
-113
-110
-109
-111
-106
-101
-100
-101
-96
-92
-95
-94
-84
-81
-73
-67
-57
-48
-37
-28
-15
-2
5
13
23
29
32
31
34
34
32
33
28
26
29
31
28
25
24
20
16
14
12
5
0
-2
-3
-10
-12
-13
-17
-21
-21
-20
-18
-16
-18
-16
-11
-3
-1
-2
1
1
-3
-3
2
7
10
9
9
11
4
-1
-5
-1
-2
-4
-12
-14
-16
-16
-13
-10
-10
-12
-12
-7
-5
-4
-6
-2
4
2
-2
-1
1
-7
-16
-21
-23
-22
-21
-29
-34
-45
-48
-52
-55
-56
-56
-53
-58
-63
-65
-61
-61
-63
-63
-52
-29
17
96
225
404
546
533
509
243
11
-163
-230
-218
-181
-162
-153
-147
-136
-124
-116
-114
-113
-113
-115
-113
-106
-103
-99
-101
-102
-97
-96
-98
-111
-106
-99
-90
-86
-90
-95
-95
-90
-83
-74
-64
-61
-61
-54
-42
-31
-21
-8
2
11
24
30
30
32
44
47
43
31
30
37
39
35
30
30
34
30
24
19
15
6
2
1
-9
-14
-15
-16
-14
-22
-26
-30
-20
-11
-10
-7
-2
-2
-3
-2
4
15
13
3
2
10
12
10
10
6
5
4
8
13
6
2
-13
-12
-13
-12
-13
-8
-5
-9
-13
-6
-2
-1
2
4
1
-2
-8
-7
1
4
-9
-17
-15
-18
-21
-27
-26
-33
-49
-57
-51
-48
-53
-61
-64
-64
-57
-55
-59
-62
-71
-67
-46
-13
41
130
278
457
552
562
386
193
-45
-199
-243
-214
-178
-162
-150
-134
-130
-123
-113
-113
-116
-115
-112
-110
-111
-110
-107
-109
-104
-103
-102
-102
-100
-99
-99
-99
-94
-91
-91
-89
-85
-80
-75
-67
-59
-51
-44
-33
-24
-9
8
17
27
37
40
40
42
49
52
47
40
39
40
36
32
27
23
19
15
13
9
3
-1
-5
-9
-13
-18
-23
-24
-24
-25
-29
-33
-36
-32
-29
-25
-20
-18
-15
-11
-9
-6
-7
0
4
2
0
2
5
6
4
4
3
-2
-4
-9
-7
-8
-15
-11
-11
-14
-14
-15
-13
-11
-9
0
7
3
-2
-6
-8
-6
-5
-15
-21
-16
-14
-16
-28
-29
-36
-47
-52
-55
-54
-59
-58
-57
-58
-60
-64
-69
-68
-72
-69
-55
-21
40
134
284
466
569
583
435
260
3
-176
-230
-205
-172
-157
-148
-132
-123
-117
-114
-113
-115
-115
-112
-108
-103
-104
-109
-110
-112
-112
-110
-106
-104
-101
-99
-95
-90
-88
-83
-81
-79
-74
-70
-64
-54
-45
-35
-26
-13
-1
10
17
28
37
42
44
47
53
57
55
54
60
57
47
39
35
37
31
25
23
24
17
8
3
0
0
0
-4
-5
-11
-15
-25
-22
-21
-23
-21
-17
-18
-19
-17
-12
-7
-1
1
0
2
3
1
4
6
1
-1
-5
-6
-5
-6
-9
-10
-7
-6
-8
-4
1
-1
-3
-2
-2
-1
2
6
2
-4
-7
-3
0
-1
-11
-15
-16
-21
-24
-26
-24
-34
-46
-54
-58
-56
-57
-61
-65
-66
-66
-68
-67
-71
-76
-65
-42
1
65
170
327
486
544
543
373
180
-65
-206
-227
-193
-165
-160
-154
-138
-124
-115
-118
-120
-118
-117
-119
-120
-116
-114
-113
-105
-101
-106
-109
-107
-104
-107
-100
-96
-97
-91
-91
-91
-84
-78
-75
-73
-62
-47
-37
-32
-18
-8
-1
6
22
37
43
44
47
53
56
52
43
44
40
36
39
32
27
31
25
17
18
17
17
19
11
7
8
6
2
-5
-9
-21
-16
-16
-25
-25
-20
-15
-13
-17
-19
-9
-10
-12
-9
-4
-4
1
3
2
0
-2
-1
-2
-5
-4
-4
-7
-10
-8
-10
-8
0
-1
-2
0
0
-3
-6
0
8
8
3
0
1
5
-1
-10
-14
-16
-18
-22
-30
-36
-43
-49
-54
-59
-59
-51
-43
-49
-57
-63
-59
-59
-69
-70
-59
-35
11
85
211
385
540
575
491
360
126
-106
-208
-209
-177
-156
-153
-143
-131
-126
-123
-126
-120
-111
-116
-121
-116
-111
-107
-104
-105
-110
-112
-111
-101
-97
-104
-107
-103
-97
-91
-85
-84
-83
-83
-75
-65
-54
-46
-47
-31
-14
-2
4
15
31
35
34
43
52
58
51
43
43
46
46
40
37
39
36
29
27
30
24
23
19
15
13
8
2
0
-2
-4
-10
-9
-10
-15
-16
-13
-16
-14
-9
-3
-1
-5
-5
-5
-3
-2
0
1
4
2
0
3
5
2
0
-3
-2
-5
-9
-9
-10
-8
-7
-8
-6
-5
-5
-5
-2
5
6
2
5
9
8
6
0
-5
-4
-3
-9
-13
-15
-25
-34
-40
-50
-54
-54
-55
-55
-59
-62
-61
-56
-59
-66
-70
-65
-50
-19
44
150
317
376
566
509
384
195
-36
-177
-217
-190
-164
-150
-146
-140
-134
-130
-129
-124
-121
-122
-117
-115
-120
-115
-112
-111
-111
-111
-109
-109
-110
-109
-104
-102
-103
-104
-99
-93
-90
-84
-77
-69
-64
-57
-49
-38
-30
-24
-13
-2
4
6
17
29
37
34
31
33
36
34
37
39
32
32
29
25
26
24
22
22
16
13
10
0
-2
0
-1
-8
-7
-7
-8
-12
-10
-10
-15
-18
-18
-15
-14
-13
-9
-4
0
0
-2
-4
-2
2
6
6
0
-2
-2
-2
-7
-13
-18
-9
0
-1
-3
0
-2
-4
-4
-1
-1
-3
-2
-3
1
3
0
0
2
-3
-7
-13
-10
-13
-22
-29
-35
-37
-44
-50
-46
-51
-57
-59
-52
-50
-57
-63
-61
-56
-62
-60
-45
-9
67
96
364
533
566
463
301
76
-133
-232
-237
-188
-159
-150
-138
-128
-125
-123
-121
-117
-114
-114
-110
-105
-101
-105
-108
-110
-99
-95
-101
-102
-96
-97
-106
-100
-89
-86
-88
-89
-81
-70
-66
-60
-46
-40
-31
-16
-13
-15
-7
-3
19
29
33
29
32
41
40
40
33
27
29
32
27
22
21
19
20
17
11
7
1
-2
-4
-8
-9
-12
-11
-8
-13
-15
-14
-16
-20
-15
-7
-1
4
1
2
7
10
17
15
11
13
12
8
12
9
6
2
2
-1
-7
-10
-11
-10
-11
-7
-2
-1
-3
-7
-8
-8
-8
-6
-3
-3
-5
-4
-1
2
-2
-5
-18
-19
-21
-26
-32
-32
-38
-47
-53
-57
-55
-56
-54
-54
-59
-65
-60
-57
-66
-74
-71
-50
-20
29
49
248
425
541
521
405
219
-15
-181
-241
-225
-180
-155
-147
-135
-126
-119
-114
-112
-108
-110
-113
-105
-101
-106
-107
-108
-105
-98
-98
-101
-101
-99
-96
-95
-89
-86
-88
-90
-84
-73
-63
-63
-60
-51
-42
-37
-30
-15
-4
0
14
26
35
38
42
42
40
40
37
35
32
26
23
26
25
25
15
7
4
-1
-7
-5
-1
-7
-11
-25
-26
-30
-37
-39
-37
-37
-27
-21
-18
-15
-14
-17
-15
-11
-8
-4
-1
6
2
0
5
7
6
5
5
7
1
-5
-7
-7
-6
-6
-7
-8
-9
-10
-5
-4
-6
-8
-5
-1
0
0
1
1
4
-3
-6
-9
-9
-24
-35
-33
-32
-37
-43
-48
-56
-58
-55
-59
-61
-59
-58
-62
-64
-65
-75
-73
-54
-17
49
74
314
494
579
531
414
228
-16
-174
-224
-205
-181
-168
-156
-142
-126
-115
-114
-112
-112
-113
-115
-109
-107
-111
-112
-111
-102
-97
-100
-103
-99
-94
-91
-90
-88
-81
-79
-82
-75
-73
-71
-63
-52
-46
-36
-31
-24
-5
12
16
38
42
42
45
53
58
58
50
46
42
47
49
44
41
35
27
23
23
22
12
3
0
-2
-4
-4
-6
-10
-16
-18
-21
-16
-20
-26
-25
-23
-16
-7
-4
-8
-8
-1
0
6
8
8
8
4
6
4
2
2
5
5
-1
-5
-5
-2
-2
-3
-2
1
1
3
4
5
5
5
7
-1
-5
-4
-1
2
-3
-6
-22
-17
-14
-23
-29
-34
-44
-53
-56
-56
-57
-55
-54
-62
-62
-63
-67
-69
-69
-67
-51
-11
50
139
172
449
559
531
428
253
1
-177
-226
-208
-173
-155
-149
-139
-130
-115
-109
-113
-113
-114
-119
-120
-118
-116
-117
-117
-112
-109
-115
-110
-104
-101
-95
-94
-95
-90
-85
-84
-84
-81
-79
-76
-67
-62
-54
-43
-32
-21
-4
9
13
31
38
45
46
46
49
46
47
50
41
32
28
22
23
30
27
23
15
10
8
6
5
3
3
2
-1
-7
-12
-15
-19
-23
-20
-17
-21
-25
-20
-18
-16
-14
-9
-9
-5
-1
3
3
3
6
1
0
0
-2
0
-5
-9
-15
-14
-5
-6
-8
-2
0
-1
-3
1
3
6
3
-1
0
3
2
0
3
-5
-9
-11
-8
-19
-33
-35
-37
-45
-48
-48
-53
-57
-65
-67
-62
-56
-61
-61
-64
-67
-58
-36
5
70
176
217
503
577
528
417
211
-40
-190
-221
-191
-158
-146
-142
-131
-121
-114
-115
-121
-125
-125
-121
-117
-113
-107
-104
-105
-109
-105
-107
-110
-114
-110
-101
-98
-95
-90
-91
-89
-84
-79
-72
-65
-64
-55
-41
-34
-18
-3
5
15
20
27
32
42
43
47
52
50
42
33
32
38
42
37
33
30
26
25
27
26
19
11
11
13
6
2
-4
-3
-4
-9
-9
-10
-12
-12
-12
-12
-6
-4
-7
-4
-2
0
-2
0
3
3
-2
-1
0
0
1
0
3
2
1
-6
-8
0
3
-2
-4
-4
-2
0
0
2
2
2
2
-2
-4
-2
3
4
-3
-6
-13
-13
-16
-23
-33
-42
-46
-48
-54
-58
-60
-59
-62
-56
-53
-59
-68
-73
-74
-63
-46
-8
63
183
227
519
575
500
369
168
-59
-190
-213
-181
-156
-150
-147
-142
-130
-121
-122
-126
-128
-125
-120
-121
-123
-118
-119
-121
-117
-114
-107
-106
-109
-109
-105
-100
-93
-87
-84
-88
-89
-84
-81
-77
-72
-65
-56
-48
-36
-20
-10
3
7
19
27
35
34
32
32
35
36
32
28
31
29
27
27
26
28
28
24
23
18
17
16
10
2
-1
-6
-7
-10
-12
-11
-9
-6
-6
-11
-15
-13
-9
-7
-4
-2
-4
-6
-6
-4
4
5
0
6
4
1
-4
-1
1
-9
-11
-3
2
-1
-7
-9
-5
-1
-3
-2
5
6
6
7
1
2
5
2
-2
-4
-5
-14
-16
-25
-29
-33
-42
-51
-51
-50
-51
-48
-52
-61
-69
-68
-64
-66
-66
-51
-35
-11
42
137
293
349
572
521
381
170
-66
-208
-244
-208
-173
-156
-146
-133
-122
-116
-119
-118
-114
-111
-109
-104
-105
-108
-102
-99
-100
-104
-107
-110
-105
-95
-86
-86
-95
-98
-93
-82
-75
-76
-67
-58
-61
-52
-41
-34
-29
-23
-6
6
17
21
25
23
27
29
29
33
37
32
31
29
30
30
26
9
-27
-2
16
10
5
-2
-6
-8
-5
-2
-2
-15
-18
-17
-16
-16
-11
-12
-13
-8
1
4
0
2
12
19
16
14
13
9
10
10
11
12
11
8
2
-3
-7
-6
-6
-3
-5
-3
-3
-7
-5
-8
-8
-2
5
4
-10
-15
-5
-3
-6
-11
-18
-21
-21
-31
-30
-34
-50
-51
-46
-52
-57
-59
-63
-66
-63
-60
-61
-63
-73
-73
-62
-40
-3
67
176
338
493
532
465
325
103
-115
-225
-233
-199
-175
-160
-139
-125
-121
-117
-114
-110
-108
-116
-120
-117
-112
-110
-108
-103
-101
-100
-105
-101
-101
-101
-98
-96
-91
-90
-86
-85
-83
-81
-74
-64
-57
-56
-52
-38
-28
-24
-14
2
12
21
25
34
36
36
30
27
26
25
22
20
18
19
23
22
18
9
0
-2
-5
-9
-10
-19
-26
-27
-28
-30
-35
-34
-30
-24
-23
-23
-22
-19
-16
-13
-8
-5
0
7
13
13
10
7
6
4
4
4
4
3
1
-1
-1
-5
-7
-8
-7
-4
1
3
-2
-6
-3
0
0
-9
-9
-1
1
-8
-19
-25
-22
-22
-29
-32
-38
-41
-44
-45
-45
-49
-50
-52
-60
-65
-63
-58
-61
-70
-76
-67
-41
10
95
219
390
540
577
496
463
119
-121
-215
-214
-180
-163
-160
-147
-131
-118
-112
-112
-114
-113
-109
-108
-107
-102
-99
-100
-106
-115
-118
-114
-112
-106
-102
-91
-86
-86
-84
-82
-85
-81
-73
-69
-63
-54
-44
-29
-18
-4
16
33
32
21
28
40
46
45
46
51
50
45
42
44
42
37
32
29
27
26
21
15
9
8
10
10
7
2
-6
-13
-14
-15
-16
-18
-13
-10
-9
-14
-17
-12
-15
-15
-3
0
0
-2
-1
4
8
6
5
-2
-5
0
-1
-4
0
1
2
5
5
-1
-3
2
6
3
3
11
8
0
-1
0
7
2
-9
-18
-18
-16
-24
-29
-27
-37
-42
-54
-57
-55
-52
-54
-59
-59
-57
-60
-63
-68
-69
-63
-48
-7
56
161
318
486
562
514
402
211
-38
-107
-219
-191
-164
-151
-143
-135
-125
-122
-122
-122
-116
-114
-114
-113
-112
-114
-117
-116
-110
-102
-103
-104
-100
-102
-104
-99
-93
-94
-96
-89
-80
-72
-71
-66
-58
-50
-44
-36
-21
-12
-4
3
13
26
38
44
48
53
54
53
54
49
47
47
44
37
31
28
29
26
24
17
14
11
8
0
-1
0
0
-5
-7
-4
-4
-7
-10
-14
-13
-16
-15
-13
-5
-1
0
1
4
3
4
0
-2
2
6
5
4
8
9
2
-3
0
2
2
-4
-2
0
1
3
5
13
16
5
4
7
9
6
10
9
-1
-3
-8
-19
-25
-27
-30
-33
-36
-38
-50
-53
-53
-52
-53
-51
-53
-63
-70
-72
-53
-34
2
83
215
385
531
588
518
377
156
-73
-191
-197
-189
-148
-146
-140
-133
-124
-122
-122
-120
-121
-119
-115
-115
-113
-107
-106
-103
-103
-107
-108
-107
-114
-106
-98
-96
-95
-89
-87
-81
-76
-77
-68
-54
-49
-47
-40
-28
-14
-4
4
15
23
30
34
44
47
38
40
45
45
46
42
40
37
41
44
40
39
37
32
32
34
28
20
16
12
5
5
11
4
-6
-17
-22
-17
-11
-9
-8
2
4
2
0
1
4
5
5
11
14
16
20
19
9
-1
-4
0
6
3
7
29
48
42
36
4
-8
-13
-1
6
6
6
4
7
16
13
-2
-7
-4
-3
-11
-18
-20
-26
-35
-42
-42
-41
-35
-32
-38
-40
-44
-53
-53
-54
-63
-60
-44
-14
52
159
323
502
568
500
370
189
-29
-171
-218
-190
-157
-149
-149
-134
-121
-117
-115
-117
-117
-111
-113
-116
-114
-112
-113
-114
-109
-105
-106
-102
-99
-98
-97
-101
-100
-94
-96
-96
-90
-88
-80
-77
-72
-59
-48
-40
-30
-13
-1
0
7
18
25
26
31
39
40
34
33
36
39
38
39
38
36
37
29
22
20
23
20
15
9
5
2
-2
-2
-3
-12
-11
-4
-2
-8
-12
-13
-8
0
1
4
4
6
7
6
10
14
11
9
9
5
4
1
1
5
0
-4
-3
4
13
7
1
3
5
6
14
16
14
9
6
13
15
3
-9
-10
-11
-14
-14
-20
-28
-37
-43
-46
-44
-47
-54
-54
-52
-51
-50
-52
-55
-65
-60
-42
-20
19
98
229
408
542
531
423
258
29
-155
-230
-222
-181
-159
-153
-144
-130
-127
-125
-115
-113
-115
-118
-110
-97
-92
-94
-100
-103
-106
-107
-105
-101
-98
-95
-94
-93
-88
-86
-86
-80
-69
-67
-67
-69
-67
-58
-48
-43
-22
4
17
22
29
36
36
34
33
32
29
27
26
32
39
43
42
35
32
30
22
17
15
6
0
2
-5
-15
-19
-15
-7
-1
-6
-10
-7
0
1
1
0
1
4
8
12
10
11
10
15
28
30
29
33
27
18
11
0
-7
0
10
21
30
27
23
11
-1
-9
-11
-6
-2
-4
-4
5
12
12
1
-6
-2
-6
-16
-18
-22
-26
-30
-35
-40
-46
-50
-50
-48
-45
-45
-50
-48
-47
-50
-52
-50
-21
36
133
288
473
590
557
436
221
-33
-194
-236
-210
-176
-157
-142
-132
-127
-124
-117
-109
-103
-97
-96
-103
-101
-101
-97
-96
-98
-96
-96
-94
-94
-91
-91
-92
-86
-82
-85
-84
-77
-72
-73
-65
-53
-46
-43
-41
-21
-4
9
15
25
34
42
47
48
49
50
44
38
38
44
38
29
27
27
28
25
18
15
11
10
1
-2
-6
-11
-16
-20
-22
-28
-32
-27
-22
-21
-23
-24
-14
-6
-9
-7
-3
-1
3
5
9
8
8
2
1
4
1
0
2
2
0
0
5
5
0
-2
-5
2
6
6
8
8
5
0
-2
0
-3
-6
-17
-12
-13
-26
-33
-32
-37
-48
-50
-55
-57
-57
-62
-67
-64
-61
-62
-64
-68
-67
-59
-30
22
101
130
410
542
536
444
288
48
-153
-218
-209
-176
-155
-147
-142
-133
-121
-122
-121
-118
-119
-114
-115
-117
-111
-109
-109
-115
-108
-101
-100
-98
-92
-90
-90
-91
-92
-91
-89
-92
-87
-78
-75
-66
-49
-42
-36
-24
-15
-4
7
12
30
41
48
51
54
58
56
43
30
23
22
23
28
33
33
23
16
13
8
4
4
1
-2
-7
-9
-15
-20
-27
-24
-20
-21
-26
-28
-29
-23
-16
-14
-19
-19
-4
2
6
7
6
7
9
10
10
5
2
4
11
8
5
2
-3
-1
-1
1
4
6
8
3
-4
1
6
6
8
4
-7
-10
-11
-18
-28
-31
-33
-44
-50
-51
-51
-50
-53
-62
-65
-59
-53
-57
-67
-65
-46
-19
36
121
263
440
570
568
480
328
267
-134
-216
-207
-176
-157
-144
-132
-124
-121
-110
-107
-113
-113
-117
-116
-107
-104
-98
-100
-112
-112
-105
-101
-95
-94
-96
-87
-83
-85
-90
-84
-75
-77
-77
-68
-54
-45
-43
-30
-19
-12
-1
17
29
38
42
47
54
62
64
61
65
64
59
53
52
54
47
35
33
31
24
21
16
15
13
11
9
7
3
1
-1
-4
-12
-14
-13
-12
-13
-8
-4
-5
-7
