-24
-21
-20
-23
-24
-24
-23
-24
-25
-24
-23
-24
-24
-25
-25
-25
-23
-20
-22
-26
-26
-25
-26
-27
-26
-25
-20
-24
-27
-26
-25
-25
-26
-26
-25
-23
-23
-24
-24
-24
-24
-25
-27
-25
-23
-24
-24
-26
-26
-24
-24
-26
-26
-25
-25
-24
-25
-28
-25
-22
-22
-24
-24
-25
-23
-26
-28
-26
-24
-24
-24
-23
-18
-13
-6
-5
-5
-4
-4
-7
-10
-11
-16
-18
-19
-21
-25
-27
-23
-19
-21
-23
-23
-26
-30
-30
-31
-30
-29
-29
-30
-33
-30
-27
-26
-28
-28
-30
-29
-29
-29
-11
20
43
59
59
61
95
79
-63
-161
-156
-133
-112
-80
-69
-31
-24
-21
-20
-17
-16
-15
-15
-13
-13
-16
-15
-13
-10
-10
-13
-12
-9
-10
-12
-10
-7
-8
-7
-6
-4
-3
-4
-5
-2
-1
-3
-4
-2
0
-2
-1
1
2
0
2
5
7
6
6
9
13
14
16
17
18
19
25
28
30
31
32
36
39
40
40
43
45
47
49
49
50
52
50
52
51
49
47
44
42
39
35
30
29
27
21
17
14
11
7
5
3
2
0
-1
-4
-4
-5
-8
-10
-8
-7
-9
-8
-7
-8
-8
-5
-5
-8
-9
-8
-8
-7
-7
-6
-6
-6
-5
-5
-6
-7
-8
-8
-8
-10
-11
-12
-12
-13
-13
-13
-16
-18
-19
-18
-17
-18
-19
-20
-22
-21
-19
-20
-26
-26
-23
-21
-24
-25
-25
-24
-23
-26
-28
-26
-24
-25
-25
-26
-27
-25
-27
-28
-26
-26
-27
-27
-26
-28
-26
-27
-29
-27
-26
-29
-29
-27
-27
-27
-26
-28
-27
-27
-28
-27
-28
-27
-26
-29
-29
-27
-29
-29
-29
-26
-24
-28
-31
-28
-28
-30
-28
-28
-29
-26
-28
-28
-27
-28
-30
-29
-28
-28
-27
-29
-28
-27
-30
-31
-29
-27
-22
-16
-9
-6
-5
-5
-6
-6
-9
-14
-19
-21
-23
-25
-26
-26
-25
-24
-25
-30
-32
-34
-37
-38
-34
-32
-37
-38
-35
-35
-35
-33
-32
-33
-35
-34
-31
-32
-27
2
36
63
83
83
102
140
59
-112
-176
-153
-141
-125
-95
-64
-41
-30
-26
-25
-23
-25
-24
-21
-20
-18
-19
-20
-18
-17
-17
-16
-18
-18
-18
-16
-14
-13
-16
-16
-13
-14
-13
-12
-12
-10
-8
-12
-11
-8
-7
-7
-5
-4
-4
-3
0
0
0
0
3
5
6
6
7
10
11
13
14
15
21
25
28
29
30
33
38
39
38
43
45
42
47
48
46
48
48
46
43
41
37
37
34
28
26
25
22
17
14
12
8
6
3
1
-1
-5
-8
-8
-9
-11
-12
-10
-13
-16
-16
-14
-14
-12
-12
-13
-13
-13
-12
-13
-12
-10
-10
-10
-9
-11
-14
-14
-13
-12
-13
-12
-14
-16
-18
-19
-16
-16
-19
-20
-21
-21
-22
-23
-21
-21
-25
-26
-24
-24
-27
-28
-26
-25
-24
-28
-30
-28
-26
-30
-30
-28
-27
-28
-30
-30
-27
-30
-32
-30
-27
-29
-30
-29
-28
-30
-32
-30
-28
-29
-31
-28
-27
-29
-31
-30
-30
-28
-30
-30
-29
-29
-31
-29
-29
-30
-30
-30
-29
-28
-30
-29
-29
-30
-31
-30
-29
-30
-29
-29
-27
-30
-30
-30
-30
-29
-28
-29
-26
-29
-30
-28
-28
-31
-30
-28
-29
-28
-28
-28
-28
-30
-30
-26
-20
-13
-10
-7
-3
-5
-7
-12
-13
-15
-18
-21
-25
-26
-27
-25
-24
-26
-27
-28
-27
-32
-37
-34
-33
-37
-33
-29
-33
-37
-33
-32
-35
-33
-30
-29
-32
-35
-23
7
37
56
62
65
93
109
-12
-148
-165
-142
-125
-99
-66
-41
-30
-26
-25
-20
-19
-20
-20
-19
-17
-16
-15
-15
-17
-16
-15
-15
-13
-13
-13
-10
-11
-14
-14
-9
-8
-8
-8
-7
-8
-6
-6
-6
-6
-5
-4
-4
-3
-2
-1
-1
0
0
1
4
6
6
7
7
11
16
16
18
20
24
24
28
30
32
32
34
39
41
41
42
43
42
46
47
47
46
47
41
40
38
33
28
29
28
20
18
17
16
13
8
4
3
3
0
-1
-2
-2
-3
-6
-12
-10
-9
-10
-10
-9
-8
-8
-8
-9
-5
-8
-10
-9
-8
-7
-8
-8
-7
-5
-7
-8
-7
-8
-8
-10
-13
-11
-11
-13
-13
-13
-14
-15
-16
-18
-18
-19
-19
-20
-22
-21
-20
-19
-21
-23
-24
-22
-21
-24
-26
-27
-25
-24
-23
-26
-27
-25
-22
-21
-26
-26
-24
-23
-27
-29
-26
-25
-26
-26
-26
-26
-25
-27
-28
-26
-24
-26
-28
-27
-26
-25
-26
-26
-27
-26
-26
-27
-27
-26
-28
-30
-27
-26
-26
-27
-26
-26
-25
-27
-30
-29
-27
-27
-29
-26
-26
-27
-28
-27
-26
-25
-27
-29
-29
-27
-28
-29
-28
-27
-29
-28
-23
-19
-12
-6
-6
-3
-3
-4
-8
-14
-18
-20
-21
-26
-28
-29
-27
-25
-26
-29
-28
-27
-32
-35
-35
-32
-35
-37
-35
-34
-35
-34
-31
-29
-31
-32
-31
-30
-33
-18
13
38
58
62
64
100
95
-54
-169
-165
-145
-129
-101
-68
-43
-31
-28
-26
-25
-24
-21
-20
-19
-19
-19
-20
-18
-15
-15
-18
-18
-16
-15
-17
-14
-13
-15
-12
-13
-13
-13
-13
-11
-8
-7
-8
-8
-9
-6
-6
-8
-6
-4
-4
-2
-1
0
1
1
2
5
6
6
8
10
14
19
23
24
24
25
28
30
37
37
39
44
45
47
48
47
49
52
51
51
50
50
45
39
38
38
31
26
24
22
18
14
13
8
5
2
1
0
-3
-7
-8
-8
-8
-11
-14
-10
-13
-16
-15
-13
-13
-12
-10
-10
-12
-14
-12
-10
-12
-13
-9
-9
-10
-8
-13
-15
-15
-14
-15
-13
-11
-15
-18
-20
-19
-17
-17
-19
-23
-22
-23
-23
-24
-24
-25
-27
-25
-23
-27
-28
-27
-26
-27
-27
-27
-26
-30
-31
-29
-29
-30
-28
-29
-27
-29
-32
-30
-29
-27
-29
-30
-29
-29
-30
-31
-30
-29
-30
-31
-30
-30
-32
-32
-29
-28
-29
-30
-30
-30
-31
-32
-30
-29
-30
-32
-30
-30
-32
-31
-28
-30
-31
-30
-30
-32
-31
-29
-29
-32
-31
-30
-31
-32
-30
-29
-30
-33
-34
-30
-31
-34
-32
-28
-26
-23
-15
-10
-7
-7
-8
-9
-12
-15
-19
-20
-20
-26
-28
-27
-27
-26
-26
-27
-31
-34
-38
-38
-35
-36
-39
-38
-37
-39
-36
-34
-37
-38
-36
-36
-35
-34
-34
-18
19
56
83
93
92
133
130
-24
-156
-162
-147
-139
-118
-85
-59
-40
-32
-29
-26
-26
-25
-24
-24
-24
-21
-18
-20
-23
-20
-19
-17
-17
-20
-19
-16
-17
-17
-16
-15
-15
-17
-16
-14
-13
-11
-10
-13
-11
-10
-10
-10
-9
-6
-6
-5
-3
-2
-1
-1
2
4
2
3
6
9
9
10
14
16
16
20
27
30
28
28
29
33
36
36
37
42
40
38
41
41
39
37
36
33
28
27
28
24
20
17
15
12
9
7
6
5
4
0
-2
-3
-3
-9
-13
-13
-12
-14
-14
-12
-10
-13
-15
-13
-12
-15
-14
-12
-12
-10
-9
-8
-10
-13
-12
-9
-10
-8
-9
-12
-12
-15
-17
-15
-15
-15
-14
-16
-19
-19
-19
-20
-20
-20
-20
-20
-23
-23
-22
-27
-27
-26
-23
-25
-26
-26
-26
-25
-23
-27
-29
-27
-28
-28
-26
-27
-27
-26
-27
-27
-26
-25
-29
-29
-28
-28
-28
-26
-26
-26
-26
-28
-28
-26
-26
-29
-30
-29
-28
-26
-26
-27
-24
-27
-29
-30
-28
-26
-27
-29
-28
-28
-27
-27
-27
-25
-26
-29
-27
-26
-26
-28
-28
-26
-26
-27
-28
-26
-24
-25
-30
-27
-25
-28
-29
-27
-27
-25
-27
-29
-27
-24
-25
-27
-27
-26
-27
-29
-25
-15
-9
-6
-2
-2
-3
-8
-12
-14
-17
-20
-21
-21
-21
-25
-26
-22
-21
-26
-27
-27
-28
-34
-37
-32
-31
-30
-31
-31
-30
-31
-32
-30
-30
-30
-31
-31
-32
-5
26
47
60
59
70
106
44
-105
-166
-149
-128
-107
-77
-48
-31
-24
-21
-21
-18
-16
-20
-19
-17
-16
-14
-15
-16
-14
-13
-13
-12
-11
-10
-8
-8
-13
-11
-8
-8
-8
-6
-5
-6
-4
-6
-1
0
-4
-5
-2
0
0
-1
1
1
2
4
8
10
10
9
11
14
15
18
19
23
27
30
31
30
32
38
39
40
44
46
43
45
48
48
48
49
47
48
46
44
42
36
32
30
28
24
19
17
17
14
8
7
7
5
3
2
0
-4
-7
-7
-6
-7
-8
-9
-8
-8
-8
-6
-5
-7
-10
-9
-6
-5
-6
-6
-7
-7
-6
-7
-6
-6
-8
-9
-8
-7
-6
-9
-12
-13
-14
-14
-13
-13
-14
-17
-18
-18
-17
-19
-22
-24
-21
-21
-21
-21
-23
-23
-24
-22
-23
-26
-27
-26
-26
-24
-26
-24
-24
-22
-21
-25
-27
-26
-24
-27
-28
-26
-25
-26
-27
-27
-27
-26
-27
-27
-27
-25
-26
-28
-29
-28
-29
-30
-28
-27
-29
-29
-27
-28
-28
-28
-26
-26
-26
-27
-29
-29
-27
-26
-27
-28
-28
-27
-27
-27
-28
-26
-25
-26
-27
-26
-25
-27
-29
-26
-25
-27
-28
-27
-26
-27
-29
-27
-26
-25
-27
-28
-27
-26
-27
-27
-21
-14
-8
-6
-4
-3
-6
-10
-12
-13
-16
-18
-22
-25
-25
-26
-25
-28
-29
-29
-30
-32
-36
-36
-35
-35
-34
-32
-34
-36
-34
-33
-34
-32
-32
-28
-33
-35
-28
-6
31
61
84
87
98
140
96
-72
-169
-155
-140
-126
-100
-71
-46
-33
-28
-25
-22
-21
-21
-19
-19
-19
-17
-17
-18
-15
-14
-18
-18
-15
-15
-17
-14
-12
-10
-12
-15
-14
-12
-10
-9
-7
-6
-6
-8
-8
-6
-6
-5
-4
-4
-4
-6
-4
0
2
2
2
4
8
11
13
12
15
18
20
23
24
26
31
35
36
39
39
40
43
47
47
46
49
50
47
49
47
46
47
41
39
38
33
28
26
26
22
18
14
9
8
7
5
2
-1
-4
-6
-6
-7
-8
-10
-12
-10
-9
-11
-13
-14
-13
-10
-9
-9
-9
-8
-8
-8
-6
-7
-9
-9
-8
-8
-9
-10
-9
-10
-12
-13
-15
-16
-17
-17
-16
-18
-19
-17
-16
-19
-19
-19
-20
-24
-24
-23
-21
-22
-28
-29
-26
-25
-28
-27
-25
-25
-24
-26
-27
-27
-26
-28
-29
-28
-27
-28
-30
-29
-28
-29
-30
-29
-28
-27
-27
-28
-27
-27
-32
-32
-29
-30
-32
-29
-27
-28
-30
-31
-30
-28
-29
-30
-28
-26
-30
-32
-28
-28
-32
-31
-30
-30
-29
-29
-28
-26
-30
-33
-29
-29
-31
-30
-29
-28
-29
-30
-29
-28
-30
-30
-29
-28
-27
-30
-29
-28
-33
-32
-30
-30
-29
-27
-29
-28
-29
-28
-23
-16
-14
-10
-9
-8
-11
-13
-14
-15
-18
-19
-22
-25
-26
-24
-24
-26
-29
-28
-30
-37
-38
-36
-35
-36
-35
-35
-37
-37
-35
-35
-35
-32
-34
-35
-33
-35
-29
2
41
67
87
89
112
143
39
-125
-172
-151
-139
-117
-108
-58
-39
-30
-28
-25
-24
-21
-22
-22
-21
-20
-17
-17
-20
-20
-17
-17
-16
-16
-16
-17
-16
-14
-14
-14
-10
-11
-13
-11
-10
-12
-10
-9
-7
-6
-5
-6
-7
-5
-1
-2
-4
-4
0
1
2
2
4
5
6
9
11
13
16
20
20
23
28
30
31
31
36
37
37
39
41
43
42
40
42
43
42
42
39
38
37
31
26
26
25
22
19
16
14
9
6
4
3
0
-3
-6
-6
-5
-8
-9
-9
-10
-13
-12
-10
-10
-13
-15
-13
-10
-10
-8
-7
-7
-10
-10
-7
-8
-10
-9
-8
-8
-6
-8
-11
-13
-13
-12
-13
-13
-13
-13
-16
-20
-20
-19
-19
-19
-17
-18
-22
-23
-20
-21
-25
-25
-23
-23
-24
-23
-24
-25
-25
-24
-24
-26
-26
-25
-24
-25
-27
-27
-26
-26
-25
-26
-25
-23
-27
-30
-26
-25
-29
-28
-27
-25
-24
-26
-28
-27
-24
-29
-31
-27
-26
-27
-27
-26
-25
-25
-25
-28
-27
-26
-28
-30
-28
-26
-26
-26
-26
-26
-23
-24
-26
-29
-27
-28
-28
-26
-26
-25
-24
-25
-28
-26
-26
-27
-27
-26
-27
-26
-26
-27
-26
-24
-26
-29
-27
-25
-19
-18
-11
-6
-2
-4
-6
-7
-8
-10
-14
-19
-21
-24
-24
-25
-25
-24
-24
-26
-24
-27
-34
-33
-31
-37
-35
-32
-32
-29
-29
-28
-29
-31
-30
-30
-29
-30
-26
-2
27
46
58
57
69
102
28
-118
-168
-167
-127
-106
-73
-42
-26
-24
-23
-19
-17
-16
-17
-17
-16
-16
-15
-15
-13
-12
-12
-13
-13
-13
-10
-9
-8
-6
-7
-8
-8
-7
-8
-8
-6
-5
-5
-4
-2
-1
0
0
2
4
3
1
1
4
6
6
7
8
12
14
16
19
21
24
24
25
28
32
34
36
37
40
41
42
47
49
48
48
50
52
51
48
48
48
43
43
40
37
32
26
25
22
16
13
15
15
10
6
4
3
1
0
-2
-3
-2
-4
-9
-10
-11
-9
-9
-8
-7
-7
-6
-7
-8
-9
-7
-6
-7
-9
-9
-8
-7
-6
-8
-8
-7
-8
-13
-13
-13
-12
-13
-14
-14
-17
-19
-19
-17
-16
-18
-18
-17
-20
-23
-21
-21
-24
-25
-24
-24
-21
-20
-25
-27
-26
-23
-25
-27
-27
-24
-24
-27
-27
-25
-25
-28
-29
-27
-26
-26
-25
-26
-27
-24
-26
-29
-29
-27
-29
-30
-24
-25
-26
-24
-27
-28
-27
-28
-29
-28
-26
-27
-28
-30
-28
-26
-27
-27
-27
-26
-25
-28
-30
-28
-27
-28
-29
-28
-26
-25
-29
-29
-26
-26
-28
-29
-26
-26
-28
-29
-28
-27
-26
-27
-29
-26
-25
-27
-22
-19
-8
-9
-7
-6
-6
-8
-13
-14
-15
-17
-18
-20
-23
-25
-24
-21
-26
-29
-31
-32
-32
-34
-34
-34
-35
-34
-32
-35
-35
-32
-31
-34
-32
-31
-32
-34
-22
14
53
82
100
96
121
140
21
-136
-168
-150
-143
-139
-89
-62
-40
-28
-26
-25
-23
-24
-24
-21
-20
-19
-17
-18
-19
-18
-17
-16
-15
-15
-17
-17
-16
-16
-15
-12
-15
-16
-11
-10
-13
-13
-9
-8
-9
-9
-7
-5
-8
-10
-6
-3
-3
-4
-3
0
0
0
2
3
7
8
8
9
14
16
19
22
24
24
27
31
34
32
31
38
41
37
37
41
40
39
38
35
36
34
32
30
26
23
18
19
20
17
14
8
6
6
2
1
-1
-2
-4
-7
-7
-8
-7
-8
-11
-12
-13
-11
-12
-12
-12
-10
-12
-11
-7
-6
-8
-10
-10
-9
-10
-9
-8
-8
-10
-10
-8
-10
-15
-17
-16
-13
-16
-19
-17
-15
-17
-19
-16
-15
-20
-24
-24
-21
-21
-23
-23
-21
-22
-24
-24
-23
-24
-25
-25
-24
-23
-26
-27
-24
-25
-27
-28
-26
-26
-26
-26
-26
-22
-21
-26
-27
-23
-24
-29
-29
-26
-25
-28
-27
-26
-24
-25
-24
-25
-25
-24
-26
-28
-29
-26
-26
-27
-25
-25
-27
-23
-22
-25
-27
-24
-21
-27
-28
-26
-25
-26
-27
-26
-26
-24
-25
-27
-25
-22
-23
-26
-27
-24
-23
-26
-26
-25
-24
-24
-25
-24
-24
-26
-26
-25
-20
-15
-8
-3
0
0
-2
-3
-5
-8
-12
-16
-17
-19
-22
-24
-23
-21
-21
-23
-23
-24
-29
-29
-28
-28
-31
-32
-29
-27
-29
-29
-26
-25
-28
-29
-26
-28
-29
-9
24
51
68
64
72
106
66
-80
-160
-167
-131
-114
-81
-49
-31
-26
-21
-19
-17
-17
-15
-13
-14
-14
-13
-12
-13
-13
-9
-8
-10
-12
-10
-9
-8
-6
-4
-4
-4
-4
-6
-5
-2
-2
-4
-5
-3
-1
0
-1
0
0
0
1
1
2
4
4
6
8
15
16
16
18
20
19
19
23
28
30
30
32
39
41
39
42
46
46
45
48
50
50
48
47
48
45
43
42
39
34
30
28
26
21
15
11
14
14
8
6
6
6
3
0
-1
-3
-6
-9
-11
-10
-8
-8
-7
-7
-8
-7
-5
-4
-5
-8
-9
-10
-7
-6
-7
-8
-7
-6
-7
-7
-5
-7
-10
-12
-13
-13
-13
-15
-11
-10
-14
-18
-18
-19
-20
-19
-18
-20
-24
-24
-20
-21
-23
-26
-26
-23
-23
-26
-27
-26
-24
-24
-27
-28
-25
-26
-27
-26
-26
-26
-28
-27
-26
-26
-26
-26
-27
-27
-28
-28
-26
-27
-28
-26
-26
-28
-29
-28
-26
-27
-28
-28
-27
-27
-28
-29
-27
-27
-30
-29
-28
-28
-28
-28
-28
-26
-28
-30
-28
-27
-26
-26
-28
-27
-27
-29
-29
-26
-25
-28
-29
-27
-26
-28
-29
-27
-26
-28
-30
-28
-26
-28
-30
-28
-26
-27
-29
-30
-25
-21
-18
-15
-9
-5
-4
-7
-8
-8
-15
-21
-24
-23
-21
-21
-21
-21
-24
-26
-26
-27
-32
-34
-36
-37
-35
-35
-35
-34
-32
-32
-31
-32
-30
-30
-35
-32
-30
-26
-1
41
72
92
93
107
118
75
-102
-172
-154
-141
-129
-100
-68
-43
-32
-28
-24
-20
-20
-21
-16
-15
-19
-21
-19
-15
-14
-16
-14
-13
-15
-17
-17
-14
-13
-13
-12
-10
-12
-13
-13
-9
-7
-7
-8
-6
-6
-5
-3
-6
-8
-6
-4
-1
0
2
0
0
0
3
4
5
9
12
14
16
20
23
23
23
28
33
35
35
36
39
40
39
42
43
45
46
43
45
43
40
37
38
36
30
28
28
26
20
16
15
15
9
6
5
4
2
0
-1
-2
-4
-7
-9
-8
-10
-11
-12
-8
-7
-12
-13
-9
-7
-8
-9
-9
-8
-7
-8
-8
-8
-7
-7
-7
-7
-8
-12
-14
-11
-10
-12
-13
-13
-14
-17
-19
-16
-15
-18
-21
-21
-20
-19
-21
-22
-20
-19
-21
-22
-21
-19
-23
-25
-22
-19
-22
-27
-26
-21
-22
-26
-28
-25
-23
-26
-29
-28
-26
-26
-28
-28
-26
-26
-27
-28
-26
-27
-28
-27
-26
-26
-27
-26
-25
-25
-26
-25
-24
-24
-26
-25
-23
-23
-26
-26
-23
-22
-25
-27
-27
-21
-25
-28
-25
-23
-23
-26
-26
-25
-24
-24
-26
-27
-24
-24
-26
-26
-25
-25
-25
-25
-26
-26
-25
-24
-28
-27
-22
-15
-9
-6
-5
-2
-1
-5
-8
-10
-10
-14
-17
-18
-19
-22
-23
-21
-20
-22
-26
-27
-27
-28
-30
-31
-28
-27
-31
-31
-28
-28
-31
-32
-29
-28
-29
-29
-30
-14
16
44
64
71
70
97
97
79
-150
-164
-144
-123
-94
-64
-37
-25
-22
-21
-20
-17
-16
-17
-17
-15
-14
-13
-14
-11
-9
-12
-15
-14
-13
-10
-9
-8
-7
-4
-4
-7
-9
-9
-7
-6
-4
-2
-4
-5
-2
-1
0
0
1
2
3
3
4
5
6
7
9
10
13
14
17
20
22
24
27
30
33
34
36
39
42
40
44
47
46
47
49
50
50
50
48
47
48
46
41
35
33
33
27
22
19
17
16
13
12
12
8
6
4
3
2
0
-1
-2
-5
-9
-12
-11
-8
-8
-8
-8
-7
-7
-5
-4
-4
-5
-7
-8
-7
-6
-8
-7
-6
-6
-8
-8
-7
-6
-8
-10
-9
-13
-16
-17
-14
-13
-14
-15
-17
-18
-18
-19
-18
-17
-22
-25
-22
-19
-20
-24
-24
-24
-23
-23
-24
-24
-24
-24
-25
-25
-25
-25
-26
-24
-24
-26
-25
-21
-22
-26
-27
-24
-21
-26
-28
-26
-24
-26
-29
-29
-24
-24
-29
-30
-25
-24
-28
-30
-27
-25
-28
-29
-26
-25
-27
-28
-27
-26
-26
-25
-25
-25
-25
-24
-24
-26
-27
-27
-26
-26
-27
-26
-25
-28
-29
-28
-27
-27
-26
-27
-28
-27
-23
-18
-15
-13
-13
-10
-9
-8
-8
-9
-14
-17
-16
-15
-18
-18
-18
-24
-27
-23
-18
-19
-24
-27
-27
-27
-30
-34
-32
-32
-35
-35
-32
-32
-32
-32
-30
-31
-31
-29
-28
-30
-22
5
41
70
92
92
109
142
49
-119
-177
-154
-147
-121
-93
-63
-39
-29
-28
-24
-20
-19
-19
-18
-17
-16
-15
-15
-16
-15
-14
-15
-14
-10
-12
-13
-12
-10
-11
-13
-10
-9
-9
-7
-5
-4
-5
-8
-6
-2
-2
-6
-6
-3
0
1
0
-1
0
2
4
5
7
14
13
13
17
19
20
21
25
29
32
33
36
41
43
46
50
50
51
52
53
57
54
53
54
54
53
50
48
47
41
38
35
31
27
21
22
23
18
13
8
6
4
1
-3
-4
-3
-3
-6
-8
-7
-6
-11
-9
-5
-4
-5
-10
-10
-5
-5
-6
-6
-4
-4
-5
-4
-2
-1
-3
-3
-6
-9
-10
-7
-6
-9
-10
-10
-8
-9
-14
-15
-14
-15
-15
-16
-15
-15
-19
-21
-18
-17
-17
-19
-17
-19
-23
-23
-20
-19
-21
-21
-21
-20
-19
-19
-24
-26
-22
-22
-24
-22
-19
-23
-22
-17
-20
-25
-26
-24
-23
-23
-23
-21
-21
-20
-22
-26
-25
-21
-22
-23
-20
-20
-23
-20
-21
-26
-25
-24
-23
-21
-21
-23
-22
-19
-21
-26
-24
-21
-21
-21
-20
-17
-15
-13
-9
-7
-5
-2
-4
-4
-4
-6
-8
-8
-10
-12
-13
-14
-18
-22
-20
-15
-14
-18
-22
-21
-24
-28
-30
-28
-28
-28
-27
-27
-25
-29
-29
-26
-23
-21
-28
-29
-22
-13
15
59
88
96
120
130
152
72
-99
-172
-157
-142
-126
-102
-72
-42
-26
-21
-19
-17
-15
-13
-12
-12
-12
-9
-9
-7
-5
-6
-8
-6
-4
-7
-9
-6
-5
-4
-5
-5
-2
-2
-1
0
0
0
0
0
2
5
3
2
3
4
9
9
7
8
9
8
13
16
17
19
23
25
30
35
36
37
37
42
46
50
57
57
57
60
61
64
64
67
70
71
70
70
72
69
65
65
64
59
53
52
51
45
38
32
29
29
26
19
16
15
7
3
2
2
0
-2
-5
-3
-1
-7
-9
-4
-1
-5
-3
-1
0
-2
-3
-1
1
1
0
0
0
2
1
0
1
-2
-1
0
0
-1
-5
-7
-4
-3
-8
-10
-10
-10
-8
-12
-9
-7
-11
-16
-15
-13
-15
-17
-13
-14
-16
-17
-16
-16
-15
-17
-16
-15
-16
-19
-20
-17
-17
-16
-19
-18
-16
-19
-21
-20
-19
-15
-20
-24
-19
-16
-19
-23
-19
-18
-16
-18
-20
-14
-8
-7
-4
-2
-1
-4
-2
1
1
-1
-3
-5
-8
-8
-12
-11
-13
-17
-15
-10
-12
-16
-22
-23
-23
-26
-20
-21
-29
-29
-26
-27
-24
-24
-23
-20
-21
-27
-25
-22
-22
-18
12
61
90
117
127
133
145
66
-102
-176
-158
-136
-120
-100
-73
-41
-23
-17
-14
-12
-12
-11
-13
-10
-6
-4
-6
-5
-3
-2
-4
0
0
-3
-7
-1
0
0
-4
-3
0
2
0
1
2
4
5
5
2
4
7
8
9
14
15
14
13
15
16
24
29
24
21
25
28
33
41
39
40
41
47
55
58
61
64
63
71
78
79
74
81
89
88
85
87
93
90
84
84
83
76
74
70
65
67
56
43
43
44
37
30
24
19
17
15
8
5
6
4
3
2
4
3
0
0
0
1
0
3
5
3
-1
0
6
10
9
6
4
3
5
5
6
8
8
6
6
8
5
0
-2
2
5
2
2
3
-2
-2
-3
-4
-2
-2
-1
-3
-5
-12
-14
-7
-6
-8
-5
-5
-4
-6
-14
-14
-10
-10
-8
-9
-10
-13
-10
-4
-8
-13
-14
-14
-12
-10
-13
-11
-3
2
5
1
4
12
9
4
3
4
1
-2
-2
-1
1
0
-10
-13
-6
-8
-12
-11
-14
-16
-19
-18
-14
-19
-22
-17
-14
-25
-27
-21
-20
-19
-15
-16
-19
-23
-17
-15
-3
34
82
111
128
130
134
110
-26
-154
-173
-148
-126
-101
-73
-47
-24
-10
-7
-15
-13
-9
-6
-4
-6
-7
-2
1
0
1
-1
-2
-2
0
1
4
4
3
0
-1
5
7
2
2
7
1
0
8
10
8
11
9
6
9
11
9
7
13
24
25
19
18
24
22
27
32
31
37
45
45
47
49
51
59
63
61
64
71
75
75
78
81
79
84
84
83
86
84
80
83
80
71
68
68
60
52
50
47
38
32
31
23
12
13
14
7
0
-2
3
4
-4
-6
-1
-1
0
-1
-1
-2
-1
-2
-2
0
6
1
-1
-1
0
0
0
2
3
2
1
2
-2
-2
1
0
-3
-5
-5
-2
-1
-4
-8
-11
-9
-7
-9
-8
-9
-15
-14
-12
-14
-13
-18
-19
-12
-15
-17
-15
-16
-17
-15
-17
-19
-17
-18
-19
-17
-15
-17
-21
-16
-14
-19
-17
-8
-7
-4
0
-3
-2
0
0
0
-2
-8
-7
-11
-16
-15
-14
-17
-17
-15
-8
-16
-21
-24
-24
-24
-25
-26
-27
-26
-27
-32
-31
-26
-30
-31
-28
-28
-26
-24
-27
-29
-20
2
14
84
100
109
115
118
41
-113
-181
-163
-144
-122
-97
-68
-45
-31
-21
-17
-16
-21
-19
-17
-13
-12
-12
-12
-6
-9
-13
-11
-9
-9
-9
-7
-6
-7
-4
-3
-3
-8
-9
-4
-2
-2
-3
-2
-3
-3
-2
-1
0
4
3
5
6
7
6
4
9
13
15
16
22
25
21
24
30
36
36
38
49
51
48
52
57
60
61
64
70
70
72
73
73
74
75
74
74
71
68
64
60
52
51
47
40
35
31
25
15
11
10
5
1
-4
-6
-6
-7
-8
-8
-8
-10
-10
-10
-11
-14
-14
-10
-9
-11
-9
-9
-9
-9
-9
-7
-6
-9
-11
-10
-8
-8
-11
-10
-11
-15
-18
-19
-17
-16
-20
-21
-19
-19
-20
-21
-21
-23
-25
-26
-26
-27
-26
-27
-28
-28
-27
-29
-29
-27
-29
-32
-30
-28
-31
-35
-32
-30
-31
-32
-32
-27
-24
-22
-19
-15
-14
-10
-12
-13
-10
-14
-17
-17
-18
-19
-23
-25
-24
-28
-32
-29
-24
-25
-31
-35
-33
-34
-37
-41
-39
-38
-40
-40
-41
-39
-38
-39
-38
-37
-37
-39
-38
-37
-36
-11
30
60
84
91
93
107
43
-114
-195
-172
-162
-131
-107
-77
-50
-36
-32
-30
-28
-26
-26
-28
-24
-21
-20
-20
-23
-23
-21
-20
-18
-19
-21
-20
-18
-17
-14
-15
-17
-18
-15
-15
-13
-12
-14
-15
-10
-8
-9
-9
-7
-6
-4
-4
-2
-2
-2
-3
-1
2
4
8
9
12
14
16
17
19
23
26
28
31
32
36
40
41
43
48
48
48
52
54
52
51
53
54
51
48
46
42
40
36
29
26
24
19
16
12
7
2
-1
-3
-5
-9
-13
-13
-14
-17
-19
-18
-17
-16
-18
-18
-18
-19
-18
-15
-15
-15
-14
-16
-16
-15
-15
-16
-14
-13
-16
-19
-18
-18
-22
-24
-23
-23
-23
-22
-26
-28
-26
-27
-28
-27
-28
-29
-31
-34
-31
-29
-32
-32
-31
-33
-35
-35
-32
-33
-37
-35
-34
-36
-37
-36
-36
-36
-35
-35
-35
-35
-37
-40
-38
-35
-37
-38
-36
-35
-37
-39
-37
-37
-38
-38
-38
-37
-38
-40
-38
-36
-35
-38
-38
-36
-37
-39
-39
-40
-39
-36
-35
-37
-37
-36
-34
-27
-21
-22
-25
-20
-18
-17
-19
-20
-24
-26
-26
-27
-29
-30
-31
-33
-35
-35
-32
-34
-35
-35
-36
-41
-41
-45
-47
-45
-45
-45
-41
-44
-43
-40
-42
-43
-42
-40
-42
-46
-33
1
27
45
50
51
66
55
-67
-179
-185
-156
-130
-94
-82
-43
-36
-30
-28
-28
-29
-28
-28
-28
-27
-25
-24
-25
-27
-23
-21
-20
-22
-23
-20
-17
-17
-15
-17
-18
-17
-15
-11
-8
-9
-12
-13
-8
-7
-8
-9
-5
-4
-4
-2
1
2
1
2
4
7
7
9
13
13
13
14
16
22
25
26
28
32
36
37
36
38
39
42
41
46
48
44
43
46
45
40
38
37
35
28
25
21
17
15
10
7
7
8
4
1
0
-2
-5
-7
-8
-8
-9
-13
-13
-10
-14
-16
-16
-17
-17
-16
-14
-13
-12
-11
-12
-12
-12
-15
-14
-14
-15
-16
-16
-17
-17
-18
-17
-16
-18
-22
-24
-24
-24
-25
-27
-27
-26
-27
-29
-30
-28
-27
-28
-30
-31
-30
-32
-34
-29
-29
-33
-35
-34
-35
-38
-35
-32
-32
-36
-36
-37
-36
-32
-34
-35
-36
-35
-37
-37
-32
-33
-37
-37
-34
-36
-38
-36
-35
-36
-35
-36
-38
-39
-36
-37
-37
-35
-36
-37
-37
-36
-36
-37
-35
-34
-35
-36
-37
-37
-34
-32
-36
-37
-34
-36
-37
-28
-25
-23
-25
-20
-15
-15
-18
-20
-20
-23
-24
-26
-28
-29
-32
-35
-35
-35
-31
-29
-34
-35
-35
-39
-41
-41
-46
-44
-42
-41
-41
-41
-43
-39
-40
-45
-41
-40
-41
-43
-44
-23
8
27
37
35
39
58
-5
-141
-178
-175
-154
-127
-89
-59
-43
-35
-33
-32
-31
-30
-29
-30
-29
-29
-28
-27
-27
-26
-26
-26
-26
-24
-20
-20
-24
-24
-21
-18
-19
-20
-18
-18
-18
-17
-18
-15
-13
-17
-16
-12
-10
-10
-10
-10
-8
-6
-7
-7
-6
-3
-2
0
0
1
1
4
6
6
8
12
15
17
19
18
21
23
20
21
25
26
24
23
24
25
23
18
17
17
12
10
8
7
7
2
0
1
0
-3
-5
-6
-6
-8
-12
-12
-13
-15
-15
-14
-14
-15
-18
-19
-16
-14
-15
-15
-18
-19
-19
-18
-15
-16
-19
-19
-19
-19
-19
-20
-20
-20
-25
-26
-24
-24
-26
-27
-27
-25
-26
-29
-29
-27
-26
-29
-31
-30
-30
-32
-32
-30
-32
-35
-34
-32
-32
-34
-31
-31
-32
-35
-33
-31
-31
-34
-34
-35
-34
-32
-34
-36
-34
-31
-35
-35
-30
-28
-34
-36
-33
-32
-32
-34
-32
-32
-37
-35
-32
-33
-34
-31
-32
-35
-33
-32
-32
-32
-32
-34
-37
-32
-31
-34
-35
-31
-28
-34
-36
-34
-34
-35
-35
-31
-29
-27
-22
-18
-18
-17
-18
-19
-17
-16
-19
-22
-26
-28
-29
-32
-34
-35
-35
-32
-30
-29
-33
-35
-37
-38
-41
-45
-41
-40
-41
-39
-41
-43
-40
-39
-40
-38
-39
-40
-39
-41
-26
2
24
42
46
27
51
26
-106
-189
-176
-157
-135
-103
-68
-46
-37
-35
-36
-32
-29
-29
-31
-30
-28
-28
-29
-27
-25
-25
-27
-26
-24
-21
-24
-25
-24
-20
-19
-23
-21
-19
-18
-19
-18
-16
-14
-15
-17
-14
-13
-13
-12
-10
-10
-10
-9
-10
-8
-6
-6
-3
-1
0
2
3
4
4
6
6
9
10
10
10
10
10
15
19
18
17
18
18
19
19
19
18
16
17
15
9
8
6
4
2
0
0
1
0
-3
-4
-4
-6
-7
-8
-8
-8
-11
-13
-14
-17
-17
-17
-16
-16
-18
-19
-18
-16
-18
-17
-15
-18
-20
-21
-20
-21
-21
-24
-23
-23
-23
-27
-29
-27
-26
-26
-28
-28
-28
-26
-28
-31
-31
-32
-35
-34
-32
-34
-36
-35
-32
-36
-37
-33
-32
-38
-37
-35
-36
-36
-36
-36
-36
-35
-39
-40
-37
-38
-40
-38
-35
-36
-38
-37
-37
-38
-37
-38
-37
-37
-37
-38
-38
-37
-40
-40
-39
-40
-39
-37
-38
-39
-36
-39
-41
-37
-37
-39
-38
-36
-37
-39
-38
-39
-38
-37
-39
-39
-35
-37
-41
-39
-37
-37
-37
-38
-37
-37
-37
-39
-38
-38
-39
-38
-38
-36
-37
-39
-38
-37
-30
-29
-27
-22
-21
-22
-21
-21
-22
-24
-22
-21
-26
-31
-33
-36
-37
-39
-35
-31
-32
-34
-37
-39
-39
-43
-46
-43
-43
-45
-46
-48
-45
-43
-45
-43
-41
-42
-42
-40
-41
-28
4
37
65
77
64
81
95
84
-158
-181
-162
-153
-132
-98
-67
-48
-39
-38
-38
-32
-33
-34
-31
-28
-28
-30
-29
-26
-25
-31
-30
-27
-26
-26
-27
-26
-24
-21
-25
-27
-23
-23
-24
-24
-21
-20
-20
-18
-18
-19
-21
-19
-17
-15
-14
-15
-15
-14
-12
-11
-8
-7
-6
-7
-7
-5
-4
-4
-2
0
0
1
2
4
5
5
7
8
13
11
8
11
13
10
9
9
9
8
6
8
5
4
5
4
6
3
1
1
2
1
-1
-4
-7
-10
-12
-13
-13
-13
-14
-15
-17
-17
-19
-20
-17
-16
-19
-20
-18
-17
-17
-16
-18
-21
-21
-20
-19
-19
-17
-22
-25
-23
-21
-22
-25
-27
-25
-25
-28
-30
-29
-28
-30
-30
-29
-29
-28
-31
-32
-30
-31
-35
-32
-29
-32
-36
-32
-30
-37
-37
-34
-35
-36
-35
-35
-35
-35
-35
-36
-36
-35
-36
-36
-35
-34
-33
-35
-33
-32
-38
-38
-35
-35
-37
-36
-35
-37
-36
-38
-39
-36
-35
-37
-36
-34
-33
-37
-36
-34
-35
-37
-34
-33
-36
-36
-35
-38
-38
-35
-37
-36
-35
-35
-36
-35
-34
-36
-37
-36
-34
-34
-36
-34
-32
-34
-35
-35
-37
-35
-34
-35
-29
-27
-19
-19
-19
-18
-17
-17
-14
-14
-19
-24
-25
-26
-29
-34
-36
-34
-35
-35
-30
-28
-31
-34
-35
-36
-37
-40
-42
-43
-40
-39
-40
-39
-38
-39
-40
-38
-38
-37
-37
-40
-24
9
31
47
48
43
66
59
-75
-123
-173
-153
-134
-101
-66
-43
-30
-27
-31
-31
-27
-25
-26
-28
-26
-24
-24
-25
-23
-20
-17
-20
-24
-20
-19
-18
-18
-18
-16
-16
-17
-14
-12
-14
-15
-11
-9
-12
-15
-12
-9
-7
-7
-8
-5
-4
-3
-4
-4
-3
-3
-2
1
5
6
6
7
9
11
12
14
17
18
17
17
21
25
25
24
24
25
28
28
26
25
23
24
25
22
18
14
10
8
8
5
3
3
1
-1
-2
-2
-4
-6
-8
-8
-8
-8
-10
-10
-9
-9
-11
-13
-13
-15
-15
-13
-11
-11
-13
-13
-10
-13
-17
-15
-13
-13
-15
-19
-17
-15
-17
-19
-16
-15
-19
-22
-21
-20
-21
-23
-24
-24
-24
-25
-27
-28
-27
-27
-29
-30
-28
-28
-30
-29
-28
-29
-30
-30
-30
-30
-30
-32
-31
-30
-33
-32
-30
-30
-31
-31
-30
-29
-31
-32
-31
-30
-31
-33
-31
-32
-32
-32
-31
-30
-30
-32
-31
-30
-30
-32
-30
-31
-34
-34
-33
-35
-32
-30
-31
-32
-30
-30
-31
-30
-30
-31
-30
-30
-30
-30
-30
-32
-31
-28
-31
-36
-33
-30
-32
-33
-30
-28
-31
-31
-28
-28
-29
-30
-30
-26
-28
-31
-29
-28
-28
-30
-30
-27
-28
-32
-29
-28
-31
-33
-27
-22
-19
-19
-17
-13
-12
-9
-8
-9
-13
-18
-24
-25
-25
-25
-29
-31
-28
-27
-28
-31
-30
-29
-37
-39
-35
-36
-39
-37
-35
-37
-37
-35
-34
-35
-35
-34
-35
-35
-32
-15
18
44
61
54
51
84
59
-94
-182
-169
-152
-134
-98
-65
-44
-31
-28
-29
-27
-25
-23
-21
-20
-21
-22
-19
-18
-21
-22
-18
-17
-17
-16
-15
-15
-16
-17
-15
-12
-10
-13
-16
-16
-13
-12
-10
-9
-8
-6
-6
-5
-6
-7
-7
-4
-4
-3
-3
-2
0
0
0
3
6
7
8
11
15
17
17
19
20
21
24
23
26
29
28
27
32
35
33
30
33
36
31
27
27
29
24
19
19
17
14
14
13
10
9
6
4
2
0
-1
-3
-5
-6
-8
-12
-13
-12
-12
-13
-14
-10
-8
-12
-15
-16
-15
-15
-14
-13
-12
-15
-17
-18
-17
-15
-16
-19
-19
-19
-21
-20
-19
-20
-24
-25
-24
-21
-25
-28
-29
-26
-27
-30
-30
-29
-28
-29
-30
-30
-28
-29
-31
-31
-29
-29
-31
-31
-30
-32
-35
-31
-30
-33
-32
-32
-30
-33
-35
-31
-30
-34
-35
-32
-35
-35
-35
-36
-35
-34
-35
-35
-34
-32
-35
-35
-32
-32
-36
-36
-33
-35
-37
-35
-33
-34
-35
-33
-31
-34
-35
-33
-35
-37
-36
-34
-36
-35
-32
-34
-35
-32
-30
-34
-35
-31
-31
-37
-36
-31
-30
-36
-33
-31
-31
-34
-33
-31
-33
-35
-29
-24
-23
-18
-14
-8
-6
-8
-12
-15
-17
-21
-25
-25
-28
-29
-31
-30
-27
-27
-31
-33
-32
-36
-37
-37
-39
-37
-36
-38
-38
-34
-35
-37
-36
-36
-38
-35
-36
-29
-23
32
55
69
62
73
96
5
-139
-180
-160
-145
-120
-86
-55
-38
-29
-27
-26
-26
-22
-19
-22
-24
-23
-21
-19
-20
-19
-19
-19
-19
-16
-15
-14
-16
-17
-16
-14
-15
-14
-9
-9
-12
-14
-11
-9
-10
-8
-6
-5
-8
-8
-5
-3
-4
-5
-5
-3
-2
-2
1
4
5
5
7
10
12
13
16
19
20
18
19
20
21
26
26
25
25
24
26
27
27
25
23
24
24
21
16
15
13
12
7
5
9
10
4
0
1
2
0
-3
-5
-5
-6
-8
-9
-9
-11
-12
-9
-8
-12
-16
-15
-12
-11
-13
-11
-8
-8
-12
-13
-13
-14
-14
-14
-13
-12
-13
-16
-17
-16
-15
-18
-18
-16
-16
-19
-21
-19
-17
-20
-25
-25
-23
-24
-27
-27
-26
-25
-26
-26
-27
-26
-26
-28
-29
-29
-27
-28
-30
-29
-28
-28
-27
-27
-29
-28
-28
-30
-30
-29
-28
-29
-29
-30
-28
-27
-28
-30
-27
-28
-29
-30
-29
-29
-29
-30
-30
-28
-27
-28
-28
-27
-27
-29
-28
-27
-27
-29
-29
-28
-28
-28
-29
-26
-26
-27
-28
-26
-25
-28
-28
-26
-28
-29
-29
-28
-28
-28
-29
-27
-25
-24
-29
-26
-24
-28
-30
-27
-27
-30
-31
-27
-22
-16
-13
-9
-5
-5
-6
-9
-13
-13
-17
-23
-26
-27
-26
-23
-24
-25
-26
-25
-29
-35
-34
-34
-37
-35
-31
-31
-34
-32
-30
-30
-34
-33
-29
-28
-33
-34
-13
-4
36
52
51
47
71
51
-80
-170
-168
-147
-128
-93
-58
-37
-28
-23
-21
-20
-19
-19
-18
-17
-18
-18
-17
-15
-17
-15
-13
-13
-15
-13
-12
-12
-13
-10
-8
-9
-8
-8
-6
-7
-8
-8
-6
-7
-7
-5
-2
-1
-1
-1
0
2
0
1
3
5
6
6
7
9
9
10
13
16
17
18
21
23
23
23
27
31
32
30
30
32
35
34
34
35
34
31
30
32
28
24
19
19
18
18
14
10
10
8
5
2
2
1
-2
-3
-3
-3
-4
-5
-5
-5
-6
-5
-6
-6
-7
-9
-8
-7
-7
-9
-10
-7
-6
-8
-8
-7
-6
-7
-8
-10
-12
-13
-14
-10
-10
-12
-14
-16
-16
-17
-18
-17
-16
-17
-20
-21
-20
-19
-20
-21
-21
-21
-21
-23
-24
-25
-25
-25
-21
-23
-25
-26
-25
-23
-26
-29
-27
-23
-24
-26
-26
-25
-25
-27
-28
-26
-25
-26
-27
-27
-26
-26
-28
-27
-25
-25
-26
-26
-26
-25
-25
-27
-27
-26
-26
-27
-27
-26
-27
-27
-26
-26
-27
-27
-26
-27
-28
-25
-25
-28
-29
-27
-27
-27
-27
-27
-26
-26
-26
-27
-27
-25
-25
-28
-27
-25
-24
-29
-29
-26
-27
-28
-23
-17
-9
-8
-5
-3
-3
-6
-10
-13
-15
-18
-22
-25
-26
-27
-27
-24
-25
-26
-28
-29
-30
-30
-34
-33
-32
-35
-36
-35
-33
-30
-31
-31
-30
-30
-28
-29
-23
7
41
67
80
73
71
114
11
-138
-173
-155
-143
-120
-84
-53
-36
-25
-20
-23
-24
-19
-17
-19
-21
-18
-17
-15
-15
-14
-17
-18
-17
-15
-14
-11
-10
-12
-14
-13
-13
-12
-10
-8
-8
-8
-8
-6
-6
-6
-6
-5
-4
-5
-4
-2
-2
-2
-1
0
1
2
4
7
8
8
10
12
15
17
17
20
24
24
24
27
30
30
29
29
35
36
32
34
35
33
30
30
30
29
26
23
21
21
20
16
15
14
12
9
6
6
4
2
0
-1
-2
-6
-7
-6
-6
-8
-10
-8
-6
-7
-12
-11
-7
-6
-9
-10
-9
-9
-9
-9
-8
-7
-8
-9
-11
-12
-10
-12
-12
-10
-10
-12
-14
-17
-18
-19
-17
-16
-19
-23
-19
-17
-19
-20
-17
-18
-21
-24
-21
-20
-21
-26
-26
-23
-22
-24
-25
-25
-24
-24
-25
-26
-25
-24
-26
-27
-25
-24
-24
-25
-25
-24
-25
-25
-26
-27
-26
-26
-27
-28
-27
-27
-27
-25
-25
-27
-25
-23
-26
-28
-24
-23
-27
-30
-27
-25
-27
-29
-27
-26
-25
-26
-26
-24
-22
-23
-25
-26
-24
-23
-29
-30
-25
-26
-29
-27
-25
-26
-26
-24
-24
-25
-25
-21
-24
-25
-26
-25
-24
-27
-28
-26
-21
-18
-14
-10
-6
-2
-3
-6
-8
-9
-13
-17
-19
-20
-24
-24
-23
-24
-24
-25
-26
-26
-27
-31
-32
-29
-30
-34
-33
-30
-30
-30
-30
-27
-26
-30
-30
-30
-26
-1
28
52
64
65
68
99
19
-126
-175
-153
-135
-112
-76
-47
-26
-19
-23
-24
-18
-18
-19
-18
-15
-15
-15
-14
-16
-14
-12
-12
-14
-15
-11
-10
-10
-6
-6
-11
-12
-7
-6
-7
-9
-7
-4
-4
-5
-2
0
0
-1
0
0
1
2
3
6
5
4
6
9
10
10
8
13
17
18
21
23
26
26
27
29
33
32
32
36
39
38
37
37
39
37
35
35
35
32
31
28
24
20
16
16
16
14
13
10
8
7
6
2
0
0
0
-1
-3
-3
-4
-7
-6
-4
-7
-9
-9
-7
-6
-8
-8
-7
-5
-5
-5
-4
-6
-6
-7
-8
-8
-7
-9
-9
-7
-8
-12
-12
-8
-10
-14
-17
-16
-13
-15
-17
-16
-18
-20
-19
-18
-17
-19
-23
-21
-20
-19
-20
-19
-24
-22
-21
-25
-23
-20
-23
-22
-20
-24
-26
-25
-24
-20
-22
-27
-26
-22
-23
-24
-25
-24
-23
-24
-26
-25
-24
-25
-25
-26
-24
-24
-23
-22
-25
-27
-26
-25
-21
-22
-25
-23
-23
-28
-26
-24
-23
-21
-25
-27
-25
-23
-25
-25
-24
-23
-23
-24
-25
-24
-24
-24
-24
-24
-24
-25
-21
-20
-26
-26
-24
-24
-24
-22
-24
-22
-22
-27
-28
-25
-24
-20
-16
-10
-6
-6
-3
-1
-2
-6
-9
-10
-12
-15
-18
-21
-21
-21
-19
-17
-22
-26
-26
-27
-28
-29
-30
-30
-31
-30
-29
-28
-26
-29
-30
-30
-28
-26
-26
-28
-14
16
27
57
60
56
85
80
-55
-169
-166
-146
-129
-97
-60
-35
-25
-20
-19
-20
-19
-16
-14
-13
-15
-16
-13
-12
-14
-11
-10
-10
-8
-10
-13
-9
-7
-10
-9
-6
-6
-7
-3
-4
-5
-3
0
-3
-4
-1
0
0
-1
-1
1
3
4
4
3
7
9
9
13
15
15
15
17
23
27
27
27
28
33
37
38
37
39
41
43
40
42
46
42
45
47
45
45
41
39
39
33
29
27
25
24
20
17
15
12
8
6
6
6
5
2
0
-3
-6
-6
-6
-7
-8
-9
-7
-6
-6
-7
-5
-4
-6
-8
-6
-4
-7
-9
-8
-5
-5
-8
-7
-5
-7
-7
-7
-9
-12
-13
-14
-13
-13
-13
-14
-15
-16
-18
-19
-18
-17
-16
-18
-23
-22
-20
-23
-21
-18
-22
-24
-22
-23
-24
-24
-24
-21
-22
-27
-27
-24
-21
-21
-24
-27
-24
-24
-26
-25
-24
-25
-24
-25
-26
-26
-25
-25
-24
-24
-25
-26
-25
-26
-27
-26
-25
-23
-25
-26
-25
-24
-27
-26
-24
-22
-21
-28
-28
-25
-24
-21
-26
-27
-25
-25
-28
-25
-23
-24
-25
-26
-25
-24
-24
-26
-26
-26
-25
-23
-25
-26
-27
-25
-23
-23
-27
-27
-26
-26
-24
-20
-13
-6
-4
-2
0
0
-3
-7
-10
-14
-18
-20
-19
-19
-20
-24
-24
-23
-24
-28
-30
-30
-29
-31
-35
-32
-30
-29
-32
-31
-29
-30
-30
-28
-27
-28
-28
-13
24
36
76
82
80
111
101
-48
-168
-163
-148
-134
-104
-69
-46
-30
-22
-20
-21
-21
-19
-14
-13
-16
-15
-13
-13
-17
-14
-12
-9
-12
-15
-10
-9
-12
-13
-9
-7
-6
-8
-7
-5
-6
-6
-6
-6
-6
-5
-3
-2
-2
-2
-1
0
1
1
2
4
4
5
6
9
10
8
10
16
20
21
20
22
26
28
29
30
31
32
37
35
35
37
37
37
36
37
33
29
29
32
27
23
20
19
17
17
18
16
13
9
7
7
8
3
1
-2
-2
-4
-6
-4
-5
-6
-7
-6
-5
-5
-4
-5
-6
-5
-5
-8
-5
-5
-7
-6
-4
-3
-6
-5
-7
-9
-5
-4
-3
-7
-14
-13
-9
-6
-11
-13
-12
-13
-15
-14
-14
-16
-17
-16
-17
-17
-17
-19
-19
-17
-16
-19
-23
-21
-19
-19
-18
-18
-23
-24
-21
-19
-17
-21
-24
-22
-20
-20
-22
-21
-21
-21
-20
-22
-24
-21
-21
-20
-19
-23
-26
-21
-20
-18
-21
-25
-25
-19
-19
-23
-22
-20
-20
-20
-21
-24
-23
-21
-21
-19
-23
-24
-22
-19
-19
-20
-21
-22
-21
-20
-23
-21
-18
-21
-23
-20
-20
-23
-24
-18
-12
-10
-6
-4
-2
-3
-7
-9
-6
-6
-9
-12
-12
-12
-13
-18
-22
-21
-20
-18
-15
-17
-24
-26
-24
-24
-23
-30
-29
-26
-27
-29
-27
-24
-25
-28
-28
-26
-24
-26
-29
-16
15
41
59
67
63
80
84
-32
-151
-172
-143
-125
-94
-58
-34
-23
-19
-16
-15
-17
-14
-12
-10
-10
-9
-10
-10
-11
-8
-8
-8
-7
-6
-3
-2
-6
-5
-3
-2
-4
-5
-1
-1
-3
-3
0
1
0
-2
1
4
4
2
1
5
8
7
10
14
15
13
15
17
18
20
24
29
30
29
32
35
37
39
41
44
45
43
47
48
49
50
49
49
51
52
45
44
45
40
37
35
32
29
24
20
20
20
17
13
12
10
8
6
5
2
-1
-3
-2
0
0
-2
-3
-2
-1
-1
-2
-2
0
-1
-2
-1
0
-2
-5
-5
-2
0
-3
-4
-3
-4
-6
-6
-5
-5
-6
-6
-5
-6
-9
-10
-8
-12
-15
-14
-11
-12
-14
-13
-14
-15
-17
-17
-16
-13
-16
-20
-20
-18
-17
-19
-20
-18
-16
-19
-20
-17
-18
-22
-23
-20
-18
-18
-20
-22
-21
-20
-21
-20
-18
-21
-24
-21
-18
-17
-19
-22
-21
-19
-18
-15
-9
-6
-6
-9
-6
-3
-4
-5
-5
-6
-8
-11
-12
-12
-15
-20
-24
-20
-19
-16
-17
-20
-21
-24
-26
-24
-26
-27
-28
-28
-27
-27
-27
-27
-24
-26
-27
-24
-26
-24
-27
-18
9
19
55
68
61
78
93
-20
-158
-173
-151
-134
-104
-66
-37
-25
-19
-15
-17
-18
-16
-14
-13
-11
-10
-9
-8
-13
-13
-9
-8
-10
-9
-6
-5
-6
-7
-4
-2
-2
-4
-3
-5
-4
-2
0
-2
-2
-1
0
1
2
3
2
3
4
7
6
9
16
17
17
18
17
18
20
26
31
31
29
36
41
41
42
46
49
50
52
53
58
58
60
59
57
58
57
54
53
52
47
43
42
36
32
32
29
27
23
18
17
16
14
6
4
5
3
0
0
0
1
-1
-2
0
-1
-2
-2
0
0
-2
-4
-2
-3
-5
-3
0
-2
-3
-5
-5
-4
-4
-4
-4
-5
-5
-6
-8
-6
-8
-14
-16
-14
-13
-13
-15
-14
-13
-12
-16
-17
-16
-15
-16
-15
-17
-19
-20
-18
-16
-17
-17
-18
-19
-19
-18
-16
-18
-21
-23
-20
-17
-16
-20
-24
-21
-18
-17
-19
-18
-20
-20
-21
-16
-10
-10
-10
-8
-7
-5
-4
-5
-5
-3
-4
-5
-6
-7
-10
-13
-13
-17
-19
-16
-13
-13
-19
-24
-23
-23
-25
-27
-29
-27
-25
-28
-30
-28
-26
-26
-26
-26
-27
-24
-24
-23
-18
-16
44
86
113
120
117
148
128
-45
-173
-161
-142
-134
-113
-80
-51
-29
-23
-21
-17
-14
-13
-12
-13
-10
-9
-12
-10
-8
-8
-8
-8
-5
-5
-8
-7
-4
-2
-6
-8
-6
-6
-7
-6
-2
0
0
0
-2
0
1
0
1
4
5
5
6
7
8
9
14
16
17
17
19
22
24
26
30
34
36
38
40
43
46
48
50
52
54
57
58
58
61
60
59
59
59
60
58
54
52
52
49
44
43
38
34
33
31
26
24
18
14
12
9
6
5
1
0
-1
-2
-1
0
-1
0
0
-2
-4
-2
0
-1
-1
0
1
2
2
1
0
2
0
-4
-4
-2
-2
-4
-6
-4
-2
-3
-6
-5
-4
-6
-8
-6
-4
-8
-12
-13
-10
-10
-13
-10
-9
-14
-16
-16
-17
-15
-15
-16
-16
-13
-14
-17
-18
-16
-16
-15
-13
-17
-21
-19
-16
-15
-14
-18
-19
-17
-17
-17
-16
-13
-17
-22
-20
-17
-15
-17
-19
-16
-8
-6
-5
-2
-1
-1
-2
0
0
-1
-6
-6
-8
-8
-11
-15
-17
-17
-15
-10
-12
-13
-21
-25
-23
-23
-25
-28
-28
-26
-27
-26
-26
-27
-26
-25
-27
-26
-25
-25
-25
-24
0
44
80
107
116
126
151
86
-86
-170
-155
-135
-119
-94
-66
-39
-23
-19
-21
-18
-14
-13
-14
-11
-8
-9
-12
-11
-7
-7
-11
-9
-6
-4
-5
-6
-4
-2
-6
-5
0
-1
-2
-3
-3
-1
0
1
2
1
3
4
6
8
12
11
9
11
15
15
15
17
18
19
23
28
30
30
37
41
41
44
48
51
57
57
58
62
67
69
69
68
71
72
70
68
70
69
64
61
59
56
54
48
46
44
37
29
27
26
21
15
10
7
4
1
0
1
0
-3
-3
-1
0
-3
-5
-3
-1
0
-3
-1
2
1
-1
-1
2
2
2
2
3
1
0
0
2
1
-1
-3
-3
-3
-5
-5
-6
-8
-9
-13
-10
-8
-8
-10
-11
-13
-12
-15
-17
-14
-13
-15
-15
-13
-16
-18
-19
-17
-17
-17
-19
-19
-17
-17
-18
-16
-17
-22
-21
-19
-18
-17
-18
-20
-20
-18
-18
-19
-20
-23
-21
-21
-21
-19
-18
-22
-20
-18
-18
-21
-18
-14
-9
-6
-5
-2
-3
-5
-4
-2
-5
-11
-12
-13
-17
-17
-16
-17
-16
-19
-19
-18
-18
-18
-25
-27
-28
-28
-31
-33
-28
-27
-28
-31
-32
-30
-31
-30
-28
-27
-30
-33
-31
-16
23
58
82
98
101
121
100
-44
-171
-181
-149
-126
-98
-66
-43
-28
-21
-21
-21
-19
-17
-18
-18
-15
-15
-15
-14
-16
-15
-14
-14
-11
-9
-7
-9
-13
-10
-7
-8
-8
-6
-4
-4
-4
-1
0
-2
-4
0
2
0
0
4
5
5
6
9
10
10
13
14
17
19
19
22
26
30
31
35
40
42
45
49
52
57
59
59
63
64
64
66
69
72
72
69
68
67
62
55
54
49
45
39
32
31
28
22
18
16
10
6
3
1
0
-1
-8
-10
-7
-7
-10
-10
-8
-8
-9
-10
-10
-12
-11
-9
-8
-7
-8
-9
-8
-8
-7
-6
-9
-10
-10
-12
-11
-10
-12
-15
-14
-10
-14
-17
-19
-17
-17
-20
-23
-22
-19
-21
-24
-26
-24
-23
-24
-21
-24
-26
-28
-25
-25
-27
-28
-26
-24
-28
-30
-28
-26
-30
-30
-28
-28
-27
-28
-29
-27
-27
-30
-30
-27
-27
-27
-30
-28
-24
-27
-30
-28
-26
-30
-31
-29
-27
-28
-29
-28
-27
-29
-32
-31
-27
-29
-30
-30
-29
-29
-29
-29
-28
-28
-29
-30
-30
-29
-30
-31
-29
-29
-27
-28
-29
-27
-26
-24
-20
-15
-13
-12
-13
-14
-14
-14
-15
-15
-13
-14
-19
-24
-24
-25
-27
-28
-25
-23
-25
-27
-28
-29
-30
-31
-34
-35
-32
-34
-35
-32
-32
-35
-32
-29
-33
-37
-33
-31
-34
-31
-2
28
50
61
59
73
94
-5
-145
-175
-150
-131
-107
-72
-43
-36
-26
-24
-21
-22
-21
-19
-18
-19
-19
-18
-16
-15
-15
-17
-18
-16
-15
-15
-12
-10
-9
-12
-12
-10
-10
-12
-9
-6
-6
-7
-5
-1
0
-1
-3
-2
0
0
0
0
1
0
1
4
7
8
9
13
16
17
15
16
19
23
27
28
30
32
32
34
36
38
39
39
41
43
41
39
39
40
36
35
32
29
27
21
19
19
15
12
10
7
5
3
1
1
0
-3
-4
-4
-4
-5
-6
-6
-7
-8
-9
-8
-7
-7
-10
-8
-6
-5
-6
-6
-6
-7
-8
-9
-8
-8
-10
-9
-7
-7
-10
-13
-14
-15
-17
-16
-16
-16
-15
-18
-19
-19
-22
-24
-24
-21
-23
-24
-25
-25
-27
-27
-25
-24
-26
-27
-28
-26
-25
-27
-29
-27
-28
-29
-30
-28
-27
-31
-32
-29
-28
-31
-32
-29
-26
-27
-31
-30
-27
-27
-29
-30
-27
-27
-31
-31
-28
-28
-29
-30
-29
-27
-29
-31
-31
-30
-30
-30
-32
-32
-32
-30
-30
-32
-32
-30
-28
-29
-31
-30
-29
-29
-30
-30
-30
-30
-29
-30
-32
-33
-30
-29
-31
-34
-31
-29
-31
-31
-27
-21
-21
-21
-19
-15
-14
-15
-14
-15
-17
-24
-22
-21
-24
-31
-33
-30
-29
-30
-29
-27
-31
-36
-36
-33
-36
-40
-39
-36
-39
-39
-37
-38
-36
-35
-37
-38
-35
-35
-35
-35
-31
-7
27
52
67
63
70
98
23
-133
-183
-164
-149
-129
-97
-64
-43
-35
-34
-32
-28
-25
-25
-28
-26
-21
-22
-24
-25
-24
-20
-20
-21
-22
-24
-21
-19
-17
-17
-20
-20
-17
-15
-14
-15
-16
-15
-14
-14
-12
-10
-9
-8
-7
-7
-4
-4
-4
-3
-2
-2
-2
0
2
4
6
10
14
16
16
16
19
21
24
28
29
30
29
31
37
38
36
36
39
39
37
38
39
36
31
30
29
24
21
20
19
17
13
9
8
6
2
0
-1
-2
-4
-8
-9
-9
-9
-11
-13
-13
-13
-15
-15
-15
-15
-15
-18
-14
-13
-13
-13
-13
-13
-14
-16
-17
-14
-14
-15
-14
-16
-18
-20
-21
-19
-18
-20
-23
-23
-21
-21
-24
-25
-26
-26
-28
-30
-29
-28
-28
-27
-27
-28
-30
-32
-33
-30
-29
-29
-31
-31
-32
-35
-35
-31
-30
-35
-33
-29
-30
-35
-33
-31
-34
-36
-33
-31
-32
-35
-32
-32
-35
-34
-32
-34
-34
-34
-34
-35
-33
-32
-34
-32
-34
-37
-39
-34
-29
-31
-34
-34
-34
-37
-36
-30
-30
-32
-34
-35
-35
-35
-34
-34
-35
-31
-30
-28
-24
-19
-18
-15
-14
-16
-18
-19
-19
-20
-24
-27
-27
-27
-28
-30
-33
-30
-27
-30
-33
-32
-33
-35
-40
-40
-42
-41
-39
-40
-39
-37
-38
-40
-40
-39
-39
-38
-39
-40
-37
-18
20
53
75
80
83
114
125
-72
-178
-168
-150
-137
-111
-75
-51
-39
-36
-32
-28
-27
-27
-27
-25
-25
-25
-24
-24
-23
-22
-20
-22
-24
-23
-19
-15
-16
-19
-19
-17
-16
-17
-16
-15
-15
-16
-15
-13
-13
-13
-13
-12
-10
-12
-10
-7
-6
-5
-4
-2
0
0
0
1
4
4
5
7
11
13
13
14
16
19
20
19
25
27
25
23
27
29
29
26
26
26
26
25
20
19
16
14
14
12
10
6
5
6
2
0
-1
-3
-5
-8
-13
-16
-17
-18
-18
-17
-16
-20
-23
-20
-18
-18
-18
-17
-16
-18
-19
-17
-14
-15
-17
-19
-18
-16
-18
-20
-21
-21
-21
-23
-24
-25
-26
-26
-26
-25
-27
-28
-28
-27
-26
-30
-31
-30
-31
-34
-32
-32
-34
-35
-33
-34
-35
-36
-34
-36
-36
-37
-41
-39
-35
-38
-39
-37
-36
-37
-38
-39
-38
-37
-38
-39
-38
-36
-37
-39
-35
-36
-38
-39
-40
-40
-39
-41
-41
-38
-39
-41
-39
-37
-39
-40
-38
-37
-39
-39
-40
-39
-37
-41
-40
-37
-40
-41
-40
-39
-35
-33
-31
-28
-25
-23
-21
-24
-22
-23
-26
-29
-30
-32
-35
-36
-38
-39
-39
-41
-37
-36
-37
-41
-40
-42
-45
-48
-49
-46
-47
-48
-46
-45
-46
-45
-47
-45
-45
-46
-43
-46
-48
-37
-8
21
43
50
43
67
67
-58
-178
-182
-158
-141
-115
-78
-51
-40
-38
-38
-34
-32
-34
-35
-30
-31
-32
-30
-26
-30
-32
-31
-29
-27
-28
-29
-27
-23
-25
-27
-24
-21
-23
-25
-24
-20
-19
-19
-20
-18
-17
-16
-15
-16
-17
-16
-13
-13
-9
-8
-8
-4
0
-1
-3
-3
0
3
4
7
10
13
13
14
16
17
18
20
24
26
26
24
25
28
30
26
24
25
25
18
17
16
11
6
3
3
0
-2
-4
-4
-6
-8
-10
-10
-13
-15
-24
-21
-19
-20
-24
-24
-24
-24
-25
-23
-20
-21
-24
-23
-21
-21
-23
-24
-20
-23
-25
-24
-23
-21
-21
-25
-24
-25
-25
-26
-29
-29
-28
-27
-30
-32
-31
-34
-37
-36
-35
-36
-38
-35
-38
-41
-38
-38
-38
-39
-38
-40
-40
-39
-43
-41
-37
-40
-42
-40
-40
-42
-40
-42
-41
-39
-43
-44
-40
-41
-41
-41
-41
-41
-41
-45
-42
-39
-42
-43
-41
-41
-42
-41
-43
-42
-42
-42
-41
-39
-41
-42
-42
-41
-40
-41
-41
-41
-41
-42
-43
-41
-39
-41
-42
-42
-39
-38
-36
-29
-26
-26
-26
-25
-24
-24
-28
-31
-28
-27
-32
-36
-36
-38
-39
-41
-36
-36
-38
-39
-42
-43
-45
-49
-49
-48
-50
-49
-48
-48
-49
-50
-49
-46
-44
-43
-46
-43
-43
-46
-21
17
45
69
71
75
115
71
-96
-182
-172
-159
-147
-117
-82
-57
-46
-41
-37
-35
-35
-32
-34
-33
-32
-30
-32
-30
-28
-27
-29
-29
-28
-28
-28
-27
-26
-25
-26
-27
-25
-24
-22
-23
-23
-23
-20
-19
-20
-19
-19
-18
-15
-15
-15
-13
-13
-13
-11
-8
-6
-6
-5
-1
1
2
1
1
4
7
10
13
15
17
17
20
24
26
25
24
26
29
29
28
26
27
29
25
23
21
16
13
15
16
11
6
4
4
3
1
-3
-2
-5
-12
-17
-17
-16
-17
-18
-21
-21
-19
-22
-21
-19
-21
-25
-24
-20
-18
-19
-23
-21
-19
-19
-19
-19
-19
-22
-23
-21
-21
-20
-24
-26
-24
-26
-28
-28
-27
-27
-28
-29
-29
-29
-34
-35
-31
-30
-30
-36
-32
-30
-35
-36
-35
-36
-36
-36
-35
-36
-37
-35
-35
-36
-35
-39
-39
-35
-35
-38
-39
-36
-35
-35
-37
-36
-37
-37
-37
-38
-36
-38
-39
-37
-33
-36
-39
-37
-36
-37
-37
-38
-39
-37
-37
-37
-36
-35
-36
-39
-35
-33
-38
-38
-38
-37
-34
-31
-28
-25
-21
-20
-18
-15
-17
-19
-19
-19
-20
-25
-28
-28
-29
-30
-39
-36
-32
-32
-32
-32
-32
-37
-39
-40
-40
-40
-41
-45
-41
-39
-40
-42
-39
-39
-39
-38
-41
-39
-38
-43
-24
11
38
61
67
73
105
72
-82
-175
-165
-148
-129
-98
-64
-45
-35
-29
-29
-30
-27
-26
-26
-26
-25
-22
-21
-24
-24
-21
-19
-19
-20
-23
-20
-19
-18
-15
-17
-18
-16
-16
-15
-13
-13
-13
-13
-10
-10
-13
-9
-7
-7
-5
-4
-4
-1
0
0
0
0
3
7
8
7
7
9
14
16
15
16
19
22
24
27
28
29
33
32
33
35
35
35
34
36
37
32
30
28
27
23
19
17
16
12
8
6
4
3
0
0
-1
-2
-4
-4
-8
-14
-15
-12
-10
-12
-11
-13
-15
-13
-12
-13
-12
-10
-12
-11
-8
-9
-10
-13
-12
-10
-12
-13
-10
-8
-13
-17
-17
-15
-15
-17
-14
-16
-21
-21
-21
-20
-20
-20
-23
-24
-21
-21
-26
-26
-25
-24
-26
-27
-27
-26
-26
-25
-25
-27
-27
-27
-30
-29
-28
-29
-26
-26
-28
-27
-26
-28
-29
-28
-26
-28
-30
-27
-27
-29
-29
-29
-27
-26
-28
-29
-25
-27
-31
-30
-29
-28
-27
-28
-28
-26
-27
-28
-28
-27
-26
-26
-28
-25
-24
-25
-21
-15
-10
-10
-12
-13
-12
-13
-14
-16
-17
-15
-17
-19
-21
-25
-26
-28
-25
-20
-23
-26
-26
-27
-30
-32
-32
-32
-31
-31
-32
-34
-32
-33
-35
-32
-30
-30
-29
-30
-32
-34
-12
16
43
59
56
66
101
39
-114
-174
-156
-139
-119
-84
-50
-28
-26
-27
-20
-17
-21
-24
-18
-15
-15
-16
-14
-15
-17
-17
-14
-12
-13
-13
-11
-8
-12
-14
-12
-8
-8
-8
-6
-4
-7
-8
-5
-2
-3
-4
-6
-4
0
0
0
0
1
2
2
6
9
10
9
12
15
15
16
19
24
27
30
31
31
35
36
39
39
41
42
42
45
49
46
44
46
44
41
41
37
35
31
27
24
20
20
18
15
13
10
8
4
5
3
-1
-3
-2
-3
-4
-6
-8
-8
-9
-10
-10
-7
-8
-9
-7
-4
-5
-8
-9
-6
-5
-6
-10
-10
-8
-8
-12
-9
-7
-9
-12
-15
-16
-15
-16
-16
-15
-13
-16
-20
-19
-17
-19
-23
-24
-23
-23
-23
-22
-24
-25
-25
-24
-24
-25
-26
-23
-21
-24
-28
-26
-24
-28
-30
-27
-25
-26
-27
-27
-26
-25
-25
-29
-28
-24
-27
-29
-27
-25
-26
-28
-29
-28
-27
-29
-28
-26
-26
-26
-26
-28
-27
-26
-31
-31
-27
-26
-30
-27
-26
-27
-26
-28
-29
-25
-22
-19
-17
-15
-15
-10
-8
-9
-9
-9
-13
-15
-18
-19
-18
-20
-23
-28
-28
-21
-20
-25
-27
-28
-28
-30
-35
-35
-36
-39
-37
-33
-32
-34
-33
-30
-36
-37
-33
-34
-31
-30
-26
1
42
69
90
89
100
132
54
-111
-171
-155
-144
-126
-95
-64
-44
-30
-26
-26
-26
-22
-18
-21
-24
-22
-18
-16
-16
-17
-19
-17
-17
-17
-15
-11
-15
-18
-17
-14
-13
-13
-11
-9
-12
-13
-11
-8
-8
-9
-7
-6
-5
-6
-4
-2
0
-1
-2
-1
0
0
2
3
7
10
11
14
17
18
17
17
21
26
27
27
28
30
31
32
32
32
33
34
35
35
31
31
30
27
23
24
24
21
19
15
11
13
15
15
9
8
7
1
-2
-3
-4
-6
-7
-6
-9
-13
-14
-10
-9
-10
-10
-7
-5
-11
-15
-13
-8
-8
-8
-8
-7
-6
-9
-12
-12
-12
-13
-13
-13
-13
-14
-17
-18
-16
-16
-18
-19
-17
-16
-19
-22
-19
-18
-19
-25
-25
-23
-23
-23
-24
-25
-26
-25
-24
-26
-28
-27
-27
-28
-28
-28
-27
-26
-26
-28
-27
-26
-29
-31
-28
-27
-28
-29
-28
-27
-26
-28
-29
-27
-26
-29
-30
-28
-28
-30
-30
-29
-26
-26
-28
-29
-26
-27
-29
-30
-28
-28
-29
-29
-27
-26
-28
-29
-28
-27
-28
-27
-21
-16
-16
-16
-16
-13
-13
-13
-11
-12
-15
-16
-18
-20
-23
-24
-25
-26
-28
-25
-22
-20
-25
-29
-30
-31
-33
-35
-34
-32
-35
-35
-34
-36
-34
-31
-31
-36
-32
-30
-33
-36
-22
8
34
57
67
67
90
91
-32
-154
-171
-147
-129
-97
-64
-42
-31
-24
-21
-21
-23
-21
-19
-19
-18
-16
-14
-17
-19
-16
-14
-15
-15
-14
-14
-13
-13
-13
-10
-8
-13
-10
-5
-5
-7
-10
-7
-6
-6
-5
-3
-1
-2
-1
1
2
0
1
4
6
6
6
8
12
13
14
17
21
24
24
24
25
27
30
34
34
36
38
39
39
41
41
41
42
42
38
37
38
34
29
26
24
24
19
17
10
8
10
7
4
4
2
-1
-4
-6
-7
-8
-8
-8
-8
-9
-9
-9
-9
-9
-12
-11
-8
-8
-9
-9
-7
-7
-9
-9
-6
-7
-11
-13
-10
-9
-10
-12
-13
-13
-13
-13
-14
-17
-17
-17
-18
-20
-20
-21
-21
-19
-21
-24
-24
-22
-20
-20
-25
-27
-24
-24
-26
-28
-27
-26
-26
-28
-27
-26
-28
-27
-26
-27
-27
-26
-26
-26
-27
-26
-26
-31
-29
-28
-29
-27
-28
-29
-29
-29
-28
-28
-26
-27
-30
-28
-27
-29
-29
-30
-28
-29
-29
-29
-30
-26
-27
-30
-30
-29
-29
-28
-28
-28
-30
-30
-30
-28
-26
-28
-29
-27
-28
-30
-30
-27
-28
-31
-30
-29
-29
-27
-29
-28
-25
-22
-19
-16
-12
-9
-10
-15
-17
-15
-16
-18
-17
-19
-24
-25
-27
-27
-28
-28
-24
-23
-24
-30
-34
-32
-31
-33
-37
-35
-33
-36
-36
-35
-36
-35
-32
-31
-35
-34
-32
-33
-29
0
31
56
73
70
86
123
35
-127
-178
-155
-141
-118
-87
-59
-38
-28
-27
-26
-23
-19
-18
-19
-22
-18
-17
-17
-18
-19
-16
-16
-16
-12
-10
-14
-17
-13
-12
-13
-12
-10
-8
-6
-9
-9
-7
-7
-8
-8
-5
-3
-4
-3
-1
0
0
0
3
4
3
5
7
9
9
10
13
16
17
17
22
26
28
28
31
36
37
35
37
41
40
41
42
43
42
43
42
42
41
37
33
31
30
26
21
19
19
17
16
12
10
7
3
0
0
-2
-4
-5
-5
-4
-7
-9
-7
-7
-13
-12
-9
-9
-10
-10
-8
-4
-5
-6
-10
-5
-6
-12
-12
-8
-7
-8
-9
-9
-10
-10
-13
-16
-15
-16
-17
-16
-13
-17
-21
-19
-17
-18
-19
-21
-21
-21
-21
-23
-23
-24
-24
-24
-21
-24
-27
-26
-24
-21
-24
-28
-27
-24
-24
-24
-25
-25
-25
-26
-27
-25
-24
-24
-27
-28
-26
-26
-26
-24
-26
-26
-26
-27
-25
-25
-25
-24
-26
-28
-26
-24
-23
-25
-27
-26
-24
-24
-27
-26
-24
-24
-25
-26
-25
-23
-25
-27
-25
-23
-23
-25
-26
-25
-24
-25
-24
-25
-25
-25
-24
-22
-19
-16
-13
-9
-6
-5
-6
-6
-4
-7
-12
-14
-13
-16
-18
-18
-19
-23
-26
-21
-17
-21
-23
-25
-24
-24
-30
-34
-30
-27
-29
-31
-31
-29
-28
-29
-29
-27
-27
-30
-29
-29
-22
6
40
65
80
81
99
125
20
-130
-167
-143
-127
-106
-73
-44
-28
-21
-20
-18
-15
-18
-19
-16
-13
-11
-12
-14
-12
-10
-10
-12
-8
-7
-8
-8
-7
-6
-7
-8
-7
-5
-5
-6
-4
-3
-3
-3
-1
0
0
-1
1
3
2
2
4
6
7
6
7
9
12
13
12
15
19
21
22
23
26
30
32
34
35
37
39
39
41
43
43
41
45
45
42
42
43
40
39
36
32
32
28
25
23
21
18
15
13
15
11
7
6
5
2
1
-2
-2
-2
-3
-3
-2
-3
-4
-4
-2
-2
-3
-4
-4
-2
-3
-6
-5
0
-1
-5
-4
-1
-1
-3
-5
-4
-3
-5
-6
-6
-4
-6
-9
-13
-11
-9
-12
-12
-10
-13
-14
-14
-15
-16
-16
-16
-13
-14
-15
-21
-17
-16
-17
-16
-16
-19
-21
-21
-18
-17
-18
-19
-18
-20
-19
-20
-21
-19
-18
-21
-18
-17
-20
-21
-21
-20
-20
-21
-19
-17
-20
-21
-20
-21
-20
-18
-20
-20
-18
-19
-21
-22
-19
-19
-19
-18
-19
-22
-24
-20
-19
-19
-20
-21
-19
-17
-18
-22
-23
-20
-19
-20
-18
-17
-21
-22
-20
-18
-18
-17
-12
-7
-5
-5
-3
-1
-1
-1
-2
-3
-6
-10
-13
-14
-15
-19
-22
-23
-19
-17
-16
-16
-18
-19
-24
-26
-26
-27
-26
-27
-27
-26
-25
-24
-26
-27
-26
-26
-22
-22
-28
-25
-2
29
49
62
63
72
102
40
-107
-170
-149
-141
-108
-72
-42
-24
-19
-17
-16
-16
-16
-12
-10
-12
-10
-10
-13
-13
-10
-8
-7
-6
-8
-7
-3
-4
-6
-8
-5
-4
-6
-4
-3
-3
-3
-3
0
0
0
0
2
3
2
2
4
6
5
6
8
10
8
8
12
18
21
21
21
24
30
33
34
32
34
38
40
43
47
46
44
48
50
50
51
49
51
51
49
45
42
37
35
32
29
25
23
20
19
17
12
9
6
5
2
0
-1
-1
-3
-5
-5
-2
-3
-4
-8
-7
-5
-5
-7
-7
-8
-8
-7
-6
-5
-5
-5
-4
-4
-7
-9
-7
-4
-7
-10
-13
-10
-11
-13
-13
-12
-13
-16
-18
-17
-15
-16
-18
-20
-21
-20
-20
-20
-18
-19
-23
-24
-19
-22
-26
-27
-24
-23
-23
-24
-24
-24
-24
-24
-24
-25
-26
-25
-24
-25
-27
-26
-24
-25
-26
-27
-26
-23
-24
-28
-26
-21
-26
-28
-28
-26
-26
-27
-26
-25
-24
-24
-26
-26
-24
-27
-30
-28
-26
-27
-28
-27
-25
-25
-24
-26
-27
-27
-26
-27
-27
-26
-27
-24
-20
-18
-16
-14
-11
-9
-10
-13
-10
-11
-15
-16
-16
-17
-18
-21
-25
-26
-25
-23
-18
-22
-26
-27
-27
-31
-32
-33
-34
-34
-34
-34
-35
-34
-31
-29
-30
-31
-30
-30
-32
-31
-19
12
24
76
94
91
113
136
20
-138
-168
-148
-137
-117
-86
-56
-37
-28
-24
-24
-20
-16
-17
-20
-18
-14
-16
-17
-15
-13
-15
-15
-13
-13
-13
-13
-12
-13
-13
-12
-10
-8
-7
-8
-9
-8
-5
-6
-9
-7
-4
-3
-3
-4
-1
0
0
0
1
3
3
3
6
8
8
9
14
18
19
21
23
25
24
24
28
34
33
32
36
38
39
38
38
39
37
39
38
36
33
32
30
28
23
21
23
21
19
16
13
13
12
8
6
3
2
0
-2
-5
-7
-9
-10
-9
-7
-6
-8
-7
-6
-8
-13
-11
-8
-5
-7
-9
-8
-6
-5
-6
-7
-6
-6
-9
-10
-9
-8
-11
-12
-11
-9
-9
-12
-16
-18
-19
-18
-17
-16
-18
-20
-19
-19
-19
-19
-18
-19
-21
-22
-20
-20
-24
-26
-25
-23
-22
-24
-25
-24
-21
-21
-24
-25
-24
-23
-25
-25
-24
-25
-25
-24
-24
-25
-26
-24
-24
-26
-26
-25
-24
-26
-27
-26
-24
-25
-25
-25
-26
-23
-21
-25
-26
-21
-22
-23
-26
-25
-24
-27
-28
-26
-24
-26
-27
-25
-22
-21
-17
-10
-8
-8
-7
-7
-7
-7
-8
-9
-10
-13
-14
-17
-17
-20
-24
-25
-25
-23
-21
-21
-24
-24
-26
-28
-30
-27
-30
-34
-30
-30
-32
-32
-29
-25
-27
-28
-28
-26
-30
-32
-13
21
46
64
68
74
105
70
-77
-168
-158
-138
-116
-82
-50
-31
-23
-19
-17
-17
-18
-15
-13
-13
-15
-13
-11
-12
-13
-13
-10
-8
-8
-7
-7
-8
-8
-8
-6
-6
-7
-7
-4
-2
-2
-1
-1
-1
0
1
2
3
2
2
4
8
8
7
7
10
11
12
14
18
21
23
23
24
27
29
30
34
35
35
38
40
41
46
46
45
48
49
48
49
47
49
46
41
41
38
31
28
29
28
22
20
15
13
13
11
9
9
7
2
0
-1
-1
-2
-3
-1
-3
-7
-9
-6
-3
-6
-7
-5
-3
-4
-4
-3
-1
-2
-3
-2
0
-4
-6
-4
-2
-3
-7
-10
-9
-8
-9
-10
-9
-7
-7
-12
-14
-16
-16
-16
-15
-15
-15
-16
-18
-19
-17
-17
-18
-17
-19
-21
-20
-19
-18
-21
-23
-21
-19
-20
-21
-21
-23
-23
-21
-20
-21
-24
-24
-21
-19
-20
-23
-24
-21
-19
-21
-23
-24
-22
-21
-23
-21
-21
-23
-21
-20
-19
-23
-25
-21
-20
-21
-25
-25
-22
-20
-21
-21
-23
-21
-20
-20
-21
-24
-24
-23
-21
-21
-22
-24
-22
-19
-19
-20
-21
-15
-10
-8
-7
-6
-7
-8
-8
-8
-9
-13
-15
-13
-13
-15
-15
-17
-21
-23
-19
-15
-16
-19
-21
-25
-24
-28
-31
-30
-28
-27
-28
-29
-28
-26
-30
-30
-26
-25
-24
-27
-29
-15
12
38
63
75
69
71
104
-21
-152
-168
-146
-129
-102
-68
-39
-24
-20
-21
-20
-16
-14
-14
-15
-14
-13
-13
-13
-11
-8
-9
-9
-10
-9
-9
-11
-9
-8
-7
-6
-6
-4
-5
-4
-2
0
-3
-4
-2
0
0
-3
-3
1
5
4
3
2
5
8
10
12
13
13
14
16
19
20
24
27
31
32
35
37
39
40
40
43
44
48
50
49
49
51
51
50
48
49
46
39
38
37
32
29
28
27
23
15
13
13
12
9
6
6
3
-1
-2
-2
0
-2
-8
-9
-6
-4
-7
-8
-6
-5
-7
-5
-2
-3
-7
-6
-2
-1
-6
-8
-6
-4
-7
-8
-8
-7
-7
-8
-8
-8
-12
-16
-16
-13
-14
-15
-15
-15
-16
-19
-19
-19
-17
-18
-21
-21
-20
-21
-21
-20
-20
-21
-23
-21
-20
-23
-25
-25
-21
-20
-24
-25
-24
-21
-24
-25
-25
-24
-23
-24
-24
-24
-25
-25
-24
-24
-24
-26
-24
-22
-25
-27
-25
-21
-22
-25
-26
-24
-22
-25
-27
-27
-23
-23
-24
-24
-24
-25
-24
-26
-24
-18
-14
-10
-8
-5
-4
-5
-4
-6
-10
-13
-12
-12
-14
-15
-16
-19
-23
-23
-17
-15
-18
-20
-26
-25
-27
-33
-32
-29
-28
-31
-32
-30
-29
-32
-30
-27
-26
-29
-31
-27
-27
-19
12
49
77
88
86
117
129
-6
-149
-165
-143
-131
-108
-73
-43
-28
-21
-18
-18
-19
-17
-16
-14
-12
-10
-14
-15
-10
-9
-10
-12
-9
-8
-9
-6
-4
-7
-11
-9
-5
-5
-8
-6
-3
-2
-3
-3
-1
0
0
-1
2
4
3
2
4
5
6
6
8
9
12
11
11
16
18
18
20
25
27
28
29
33
35
36
38
40
41
40
40
42
44
45
42
41
42
39
37
37
34
31
28
28
27
23
19
17
17
19
15
10
8
6
3
1
0
0
-1
-2
-2
-2
-4
-6
-3
0
-1
-6
-7
-4
0
-1
-4
-4
-4
-4
-3
-2
-2
-3
-4
-4
-2
-5
-6
-4
-3
-4
-9
-12
-12
-10
-10
-13
-12
-9
-9
-13
-15
-17
-18
-17
-16
-16
-15
-15
-17
-17
-18
-18
-18
-18
-21
-21
-19
-17
-17
-19
-21
-20
-20
-19
-20
-20
-20
-20
-21
-19
-19
-23
-24
-21
-19
-19
-19
-19
-20
-20
-19
-20
-24
-24
-21
-23
-21
-19
-20
-23
-20
-15
-13
-10
-9
-7
-7
-6
-5
-5
-5
-7
-9
-8
-12
-16
-17
-17
-20
-24
-21
-16
-17
-21
-23
-23
-23
-26
-28
-28
-26
-28
-30
-30
-27
-27
-28
-26
-25
-25
-28
-29
-26
-28
-19
13
42
60
65
66
95
89
-45
-160
-162
-138
-121
-114
-54
-30
-22
-19
-17
-14
-13
-13
-14
-16
-16
-13
-11
-8
-7
-8
-9
-9
-7
-7
-8
-7
-6
-6
-7
-4
-3
-4
-4
-1
0
0
-2
-2
1
3
2
2
2
4
6
7
8
9
9
9
12
15
15
15
18
23
25
24
26
30
32
35
36
39
41
42
45
49
50
50
50
51
53
53
52
52
52
50
48
42
41
35
31
30
27
23
18
17
16
16
12
8
6
5
1
-1
-3
-4
-6
-5
-3
-6
-9
-10
-8
-6
-5
-6
-4
-2
-4
-8
-7
-3
-2
-7
-10
-8
-7
-8
-8
-7
-5
-7
-10
-13
-15
-14
-13
-15
-15
-13
-15
-19
-21
-20
-20
-20
-21
-21
-21
-23
-21
-19
-24
-26
-25
-23
-23
-25
-25
-25
-25
-24
-28
-28
-26
-27
-29
-27
-27
-27
-25
-24
-27
-27
-26
-27
-29
-28
-28
-28
-29
-29
-29
-28
-26
-27
-28
-27
-27
-26
-21
-17
-12
-12
-13
-11
-10
-10
-10
-13
-14
-15
-19
-23
-22
-24
-28
-31
-28
-21
-20
-21
-32
-32
-31
-37
-37
-35
-35
-36
-38
-35
-35
-38
-36
-34
-35
-35
-34
-36
-34
-33
-22
16
54
80
89
96
132
124
-28
-163
-166
-149
-142
-117
-81
-53
-36
-28
-26
-26
-24
-21
-24
-23
-21
-20
-16
-15
-20
-23
-18
-16
-17
-16
-13
-14
-19
-18
-16
-13
-11
-10
-13
-13
-13
-13
-11
-8
-6
-6
-6
-5
-5
-4
-4
-2
-1
-1
-1
-1
2
5
7
9
14
16
17
20
21
20
21
25
31
35
35
34
39
42
42
43
46
49
50
46
47
50
46
45
42
40
38
36
35
30
27
24
21
19
15
11
8
6
2
-3
-5
-9
-8
-9
-12
-12
-9
-8
-13
-16
-16
-14
-14
-14
-10
-9
-12
-13
-13
-12
-12
-13
-10
-9
-11
-13
-13
-13
-14
-16
-15
-14
-15
-18
-20
-20
-19
-20
-23
-24
-23
-24
-25
-22
-21
-23
-26
-25
-21
-25
-27
-27
-25
-27
-30
-29
-26
-29
-31
-31
-28
-27
-30
-31
-26
-26
-31
-31
-27
-28
-33
-32
-28
-29
-34
-34
-29
-30
-32
-31
-29
-29
-31
-31
-29
-29
-31
-30
-29
-30
-31
-29
-29
-30
-30
-29
-34
-32
-30
-33
-34
-27
-21
-19
-20
-19
-17
-16
-15
-14
-10
-14
-18
-22
-24
-24
-23
-27
-29
-30
-29
-29
-29
-28
-32
-34
-38
-37
-38
-39
-39
-37
-39
-40
-39
-39
-39
-38
-39
-37
-36
-37
-40
-36
-7
27
53
75
79
98
108
44
-120
-177
-156
-138
-117
-89
-60
-37
-31
-30
-28
-26
-25
-26
-24
-22
-20
-20
-24
-24
-19
-18
-19
-19
-17
-17
-17
-17
-15
-13
-10
-14
-15
-15
-13
-12
-11
-8
-7
-8
-8
-6
-6
-6
-7
-4
-2
-2
-3
0
2
1
2
4
7
9
9
12
15
17
18
20
24
25
24
27
30
29
35
39
36
35
39
41
43
38
38
40
40
39
34
29
27
26
24
20
18
16
12
6
4
2
0
-3
-6
-7
-8
-10
-12
-10
-9
-10
-11
-10
-10
-13
-16
-14
-10
-10
-12
-10
-8
-7
-10
-10
-10
-9
-11
-10
-9
-8
-9
-9
-9
-9
-13
-16
-16
-15
-17
-20
-21
-19
-19
-21
-21
-21
-23
-26
-25
-21
-20
-24
-27
-25
-20
-23
-26
-27
-25
-27
-30
-28
-26
-28
-33
-30
-25
-24
-27
-29
-27
-26
-29
-30
-28
-27
-29
-30
-28
-27
-27
-28
-28
-26
-26
-27
-29
-28
-28
-30
-31
-28
-22
-19
-19
-16
-15
-15
-12
-10
-9
-12
-15
-16
-16
-21
-24
-24
-25
-28
-30
-28
-26
-26
-27
-28
-27
-33
-36
-36
-36
-36
-36
-36
-35
-35
-35
-36
-35
-32
-36
-37
-35
-34
-39
-25
8
35
53
58
59
92
77
-67
-171
-168
-146
-131
-97
-61
-37
-26
-24
-24
-23
-20
-18
-18
-18
-20
-20
-17
-15
-20
-24
-19
-15
-14
-12
-14
-18
-17
-14
-12
-10
-8
-8
-9
-8
-6
-5
-6
-7
-7
-7
-5
-2
-1
-1
-2
-2
0
2
2
5
7
6
5
5
9
12
14
18
22
24
24
24
28
33
32
33
39
41
39
38
40
42
41
43
42
40
40
36
32
31
30
26
23
18
17
18
17
10
7
4
1
0
0
-3
-5
-6
-6
-9
-14
-15
-13
-12
-13
-13
-12
-14
-16
-15
-11
-10
-12
-12
-9
-9
-12
-13
-14
-14
-14
-15
-14
-15
-16
-17
-17
-17
-17
-19
-21
-22
-20
-23
-25
-22
-21
-25
-27
-24
-25
-29
-29
-27
-27
-27
-29
-29
-26
-29
-31
-30
-31
-32
-31
-32
-32
-30
-30
-31
-30
-32
-32
-32
-35
-32
-31
-32
-32
-30
-30
-30
-30
-24
-20
-17
-16
-15
-15
-17
-16
-15
-16
-23
-25
-26
-27
-27
-26
-29
-31
-31
-29
-30
-31
-31
-36
-38
-37
-37
-40
-41
-39
-40
-41
-39
-39
-38
-38
-38
-38
-36
-36
-37
-43
-26
2
24
46
48
47
74
60
-83
-184
-177
-152
-129
-93
-61
-38
-31
-29
-27
-26
-27
-26
-25
-24
-21
-23
-25
-24
-21
-20
-19
-21
-20
-17
-17
-17
-17
-17
-17
-16
-15
-13
-16
-17
-14
-11
-10
-10
-9
-7
-6
-6
-7
-9
-6
-4
-2
-2
0
0
0
3
6
7
8
8
13
15
15
18
21
23
21
21
29
32
30
33
38
38
36
37
39
38
37
36
32
29
28
26
23
20
17
11
7
6
4
1
0
-2
-3
-6
-9
-10
-11
-13
-13
-14
-17
-19
-19
-19
-16
-18
-19
-18
-17
-17
-17
-16
-16
-16
-20
-21
-18
-16
-18
-18
-19
-20
-21
-21
-21
-20
-24
-27
-25
-25
-27
-29
-28
-27
-30
-34
-32
-33
-35
-33
-32
-32
-34
-35
-35
-38
-36
-34
-36
-37
-34
-34
-40
-39
-35
-36
-38
-36
-34
-38
-38
-37
-39
-37
-36
-37
-38
-35
-37
-40
-37
-38
-41
-38
-36
-38
-38
-37
-39
-37
-37
-41
-39
-33
-32
-32
-25
-19
-20
-24
-24
-20
-18
-23
-27
-28
-26
-28
-30
-31
-32
-36
-41
-37
-28
-30
-39
-40
-39
-41
-43
-43
-45
-42
-44
-46
-45
-43
-45
-43
-42
-41
-40
-44
-42
-40
-43
-21
18
51
76
76
86
132
80
-92
-184
-168
-153
-142
-136
-81
-54
-41
-37
-36
-32
-32
-35
-31
-28
-27
-28
-29
-26
-26
-24
-24
-25
-24
-24
-24
-24
-23
-21
-21
-20
-22
-21
-19
-17
-15
-15
-17
-17
-14
-14
-13
-9
-8
-11
-14
-13
-8
-6
-6
-5
-2
0
0
0
2
5
6
6
9
12
13
15
19
24
26
23
26
29
28
29
30
30
31
31
29
29
29
27
26
25
22
18
15
17
19
15
10
9
6
3
0
-3
-4
-7
-13
-12
-10
-13
-18
-20
-17
-16
-16
-17
-19
-17
-17
-17
-13
-14
-19
-20
-17
-15
-15
-16
-16
-17
-17
-19
-19
-17
-20
-25
-26
-22
-21
-22
-23
-25
-26
-26
-27
-29
-28
-27
-29
-31
-30
-29
-34
-35
-30
-30
-34
-34
-32
-33
-36
-35
-33
-32
-33
-34
-32
-33
-36
-35
-35
-35
-36
-35
-34
-36
-35
-37
-37
-35
-35
-37
-37
-33
-35
-37
-36
-36
-38
-37
-36
-37
-37
-35
-39
-39
-35
-38
-39
-37
-35
-37
-38
-37
-38
-37
-38
-39
-36
-34
-35
-37
-36
-35
-36
-37
-36
-33
-35
-35
-29
-27
-26
-23
-21
-18
-17
-18
-18
-17
-19
-25
-26
-25
-26
-30
-34
-35
-32
-32
-32
-31
-30
-33
-38
-38
-41
-46
-42
-41
-41
-41
-42
-42
-38
-38
-42
-40
-40
-40
-38
-42
-35
-5
24
32
63
64
82
102
1
-143
-182
-157
-140
-114
-82
-56
-38
-30
-31
-32
-30
-30
-29
-28
-26
-22
-26
-29
-28
-23
-23
-25
-25
-21
-18
-20
-25
-21
-17
-17
-18
-17
-16
-17
-18
-16
-14
-10
-11
-14
-15
-10
-9
-10
-8
-6
-6
-7
-3
0
0
-1
0
2
4
5
8
12
12
12
13
16
17
17
20
26
27
24
23
30
32
29
27
28
29
29
27
25
21
20
18
15
14
10
5
4
4
2
1
0
-1
-4
-6
-7
-7
-8
-14
-17
-16
-14
-15
-16
-15
-14
-15
-17
-18
-15
-14
-17
-15
-10
-11
-17
-17
-14
-13
-14
-15
-15
-16
-17
-18
-19
-17
-18
-22
-24
-21
-23
-26
-27
-24
-25
-28
-28
-28
-27
-27
-29
-28
-29
-30
-30
-28
-30
-29
-31
-34
-31
-30
-32
-31
-30
-29
-32
-35
-30
-31
-35
-34
-32
-32
-34
-32
-29
-32
-35
-35
-33
-36
-34
-33
-35
-33
-32
-31
-34
-33
-30
-35
-36
-30
-33
-37
-35
-31
-32
-34
-32
-30
-32
-35
-35
-30
-34
-34
-34
-34
-32
-34
-35
-33
-32
-32
-32
-35
-30
-31
-35
-35
-33
-32
-35
-37
-34
-30
-26
-25
-19
-17
-19
-20
-19
-15
-14
-17
-18
-22
-26
-29
-31
-35
-36
-35
-35
-31
-29
-33
-37
-36
-36
-41
-43
-40
-39
-41
-42
-41
-40
-40
-40
-38
-36
-37
-41
-37
-37
-41
-18
15
37
51
51
61
93
34
-124
-168
-167
-150
-128
-93
-62
-44
-35
-35
-35
-29
-28
-30
-27
-26
-26
-26
-24
-24
-24
-23
-26
-24
-21
-22
-23
-19
-19
-20
-20
-17
-16
-19
-18
-15
-14
-15
-15
-13
-9
-11
-15
-13
-8
-7
-8
-7
-3
-2
-2
-3
2
4
4
5
8
10
10
10
14
17
17
20
25
28
28
27
30
34
34
34
39
39
37
39
39
37
35
35
30
26
25
20
18
19
15
10
6
4
3
0
-3
-3
-4
-5
-8
-9
-14
-18
-19
-18
-17
-15
-16
-18
-17
-17
-19
-18
-17
-16
-17
-18
-18
-16
-15
-17
-17
-17
-20
-21
-20
-23
-25
-24
-24
-23
-21
-25
-28
-28
-27
-27
-29
-30
-27
-29
-35
-32
-30
-33
-35
-34
-32
-37
-39
-35
-37
-38
-36
-36
-37
-37
-37
-40
-38
-36
-38
-38
-38
-35
-37
-39
-37
-36
-37
-37
-36
-37
-35
-39
-39
-36
-36
-38
-39
-37
-39
-39
-39
-40
-38
-37
-40
-39
-37
-38
-39
-38
-35
-37
-37
-35
-37
-37
-37
-39
-36
-35
-39
-41
-39
-38
-34
-29
-27
-23
-23
-23
-20
-18
-20
-25
-26
-23
-26
-32
-33
-29
-30
-36
-38
-29
-26
-35
-38
-36
-40
-42
-42
-45
-45
-46
-46
-44
-40
-42
-43
-44
-43
-42
-45
-45
-40
-40
-27
8
44
73
90
89
116
129
-7
-160
-180
-159
-153
-130
-93
-61
-44
-40
-33
-30
-32
-30
-26
-24
-27
-29
-27
-25
-27
-28
-27
-24
-20
-21
-24
-21
-21
-20
-21
-21
-22
-24
-20
-15
-12
-18
-21
-18
-15
-13
-12
-16
-14
-14
-14
-13
-4
-3
-7
-7
-4
-1
-3
-3
-2
-2
2
6
11
13
13
14
16
17
18
19
24
25
20
22
24
30
27
26
26
25
23
20
19
20
18
14
8
9
14
12
7
6
5
3
0
-2
-6
-10
-13
-13
-13
-13
-15
-18
-23
-21
-16
-15
-14
-15
-19
-23
-20
-16
-16
-14
-17
-22
-17
-14
-13
-13
-17
-21
-23
-18
-18
-21
-20
-18
-19
-23
-26
-25
-22
-26
-28
-28
-25
-25
-28
-28
-29
-30
-31
-33
-27
-27
-31
-32
-32
-31
-32
-35
-34
-30
-29
-30
-33
-36
-37
-40
-32
-26
-30
-40
-39
-29
-26
-33
-37
-34
-35
-37
-38
-34
-30
-32
-33
-36
-39
-35
-36
-36
-31
-30
-34
-36
-35
-32
-36
-39
-35
-34
-35
-32
-32
-32
-35
-36
-32
-34
-35
-34
-35
-36
-34
-36
-35
-31
-31
-32
-35
-32
-33
-35
-27
-20
-18
-18
-18
-15
-15
-16
-16
-16
-18
-21
-24
-25
-26
-31
-35
-33
-31
-32
-29
-27
-28
-30
-37
-37
-37
-40
-40
-38
-37
-37
-37
-38
-38
-36
-38
-38
-35
-33
-39
-36
-13
19
40
56
59
66
95
50
-102
-181
-164
-144
-121
-84
-53
-35
-31
-28
-26
-24
-25
-21
-22
-23
-22
-20
-16
-20
-22
-18
-15
-14
-18
-18
-16
-15
-15
-13
-10
-10
-11
-10
-12
-10
-9
-10
-7
-5
-6
-3
-2
-4
-1
0
0
0
1
3
2
2
7
9
12
12
13
13
14
18
18
20
25
27
30
32
33
36
38
37
39
40
41
41
40
40
41
39
33
32
35
30
23
21
21
16
13
10
9
7
4
1
1
0
-2
-5
-5
-4
-7
-10
-10
-10
-12
-13
-12
-10
-9
-11
-13
-9
-9
-15
-12
-8
-9
-10
-10
-10
-6
-11
-16
-14
-12
-14
-15
-14
-14
-16
-16
-19
-19
-19
-20
-21
-20
-23
-24
-24
-24
-24
-26
-26
-25
-24
-26
-29
-27
-27
-28
-28
-27
-26
-30
-32
-28
-27
-26
-30
-31
-27
-29
-32
-30
-28
-27
-31
-30
-29
-28
-30
-31
-30
-28
-29
-30
-27
-27
-32
-32
-30
-28
-28
-30
-30
-28
-30
-30
-30
-29
-28
-30
-29
-28
-28
-29
-30
-28
-30
-30
-29
-29
-28
-30
-30
-31
-31
-29
-29
-29
-28
-29
-28
-30
-30
-29
-28
-26
-25
-21
-19
-16
-14
-13
-14
-15
-14
-13
-16
-18
-19
-19
-21
-25
-26
-28
-29
-29
-25
-25
-25
-29
-33
-33
-35
-37
-36
-35
-34
-36
-35
-35
-36
-35
-35
-35
-33
-31
-31
-32
-11
26
59
85
95
97
130
117
-37
-162
-167
-150
-138
-111
-79
-51
-34
-28
-25
-24
-21
-21
-20
-20
-20
-17
-16
-17
-17
-16
-15
-15
-15
-14
-15
-15
-15
-13
-10
-10
-10
-9
-7
-6
-9
-8
-7
-6
-6
-7
-4
-3
-3
-1
1
1
0
2
4
6
7
6
9
12
11
10
15
20
24
24
26
27
29
33
34
37
41
43
42
42
46
46
46
47
46
47
46
45
43
39
36
35
35
30
27
26
25
21
15
13
7
4
1
0
0
-2
-6
-8
-8
-6
-8
-9
-8
-8
-11
-15
-12
-10
-9
-9
-6
-5
-8
-10
-10
-5
-7
-12
-14
-10
-8
-10
-11
-10
-9
-13
-17
-17
-13
-15
-19
-18
-17
-21
-23
-21
-19
-19
-24
-26
-23
-22
-25
-27
-24
-23
-25
-25
-25
-27
-26
-27
-29
-28
-27
-30
-29
-27
-26
-27
-26
-28
-28
-27
-28
-31
-29
-29
-30
-28
-27
-28
-27
-27
-27
-28
-28
-28
-29
-28
-27
-28
-29
-27
-27
-28
-30
-28
-29
-30
-28
-27
-29
-27
-26
-27
-27
-27
-28
-29
-28
-29
-30
-29
-28
-28
-28
-27
-26
-21
-16
-13
-14
-15
-14
-10
-9
-10
-12
-14
-15
-19
-21
-20
-20
-27
-30
-26
-21
-23
-27
-26
-26
-28
-29
-32
-35
-32
-35
-36
-32
-30
-34
-35
-30
-33
-35
-32
-29
-30
-34
-10
26
54
75
76
91
128
71
-92
-174
-157
-140
-122
-114
-56
-34
-27
-22
-20
-20
-23
-21
-17
-15
-14
-13
-15
-17
-17
-16
-14
-10
-10
-12
-13
-10
-13
-15
-14
-8
-7
-8
-5
-3
-4
-8
-7
-5
-2
-1
-3
-2
-1
-1
-1
0
2
2
2
5
9
12
13
13
18
19
19
19
23
24
26
29
31
35
36
37
39
40
40
40
44
46
44
42
45
43
41
39
38
36
31
29
26
23
20
15
15
16
15
9
6
5
4
0
-2
-2
-2
-3
-4
-3
-3
-4
-7
-9
-10
-9
-8
-7
-5
-4
-6
-7
-5
-3
-4
-3
-2
-1
-4
-8
-9
-9
-8
-10
-8
-7
-8
-10
-10
-11
-15
-18
-18
-16
-15
-16
-17
-16
-17
-18
-20
-17
-15
-18
-23
-23
-20
-19
-21
-21
-21
-19
-22
-24
-20
-19
-21
-24
-20
-21
-26
-26
-22
-21
-25
-27
-24
-21
-21
-21
-21
-21
-24
-22
-19
-19
-23
-24
-23
-21
-23
-25
-25
-23
-24
-26
-25
-24
-21
-22
-24
-24
-23
-21
-21
-21
-23
-24
-24
-21
-21
-24
-24
-24
-23
-24
-26
-25
-21
-20
-23
-24
-24
-21
-21
-21
-19
-19
-22
-24
-23
-21
-21
-17
-12
-7
-5
-6
-6
-4
-6
-5
-6
-8
-11
-15
-15
-15
-18
-23
-25
-25
-21
-19
-21
-24
-24
-25
-27
-30
-30
-30
-30
-29
-26
-26
-29
-26
-24
-26
-28
-28
-27
-26
-29
-17
19
41
58
62
66
102
81
-63
-167
-163
-140
-122
-114
-55
-31
-26
-25
-19
-17
-17
-18
-17
-15
-15
-14
-11
-8
-8
-10
-10
-12
-13
-13
-9
-8
-7
-6
-5
-4
-4
-6
-6
-4
-3
-5
-6
-5
-2
-1
-2
0
1
0
0
2
5
5
5
8
14
15
15
15
19
20
21
25
29
31
31
33
37
41
41
42
46
47
48
50
50
51
52
51
52
51
51
47
45
44
38
35
32
31
28
23
18
17
18
13
9
8
5
1
0
0
0
-2
-2
-3
-2
-3
-5
-6
-5
-4
-5
-6
-6
-7
-7
-7
-5
-4
-5
-6
-4
-2
-3
-6
-6
-5
-8
-11
-12
-10
-12
-13
-14
-16
-18
-18
-16
-15
-16
-20
-21
-20
-18
-19
-19
-17
-17
-20
-23
-21
-20
-24
-27
-26
-21
-21
-25
-26
-26
-24
-24
-26
-24
-24
-26
-28
-28
-26
-25
-26
-26
-24
-25
-24
-22
-20
-25
-27
-25
-24
-27
-27
-26
-21
-26
-30
-27
-23
-24
-28
-27
-25
-25
-27
-28
-25
-24
-27
-29
-28
-26
-22
-18
-16
-13
-10
-11
-10
-6
-7
-9
-9
-10
-12
-16
-18
-16
-13
-18
-24
-25
-20
-19
-21
-23
-26
-29
-29
-28
-30
-32
-32
-32
-32
-32
-34
-33
-32
-32
-30
-30
-30
-28
-29
-26
5
49
78
100
100
117
145
48
-119
-169
-151
-143
-140
-92
-65
-44
-29
-25
-26
-25
-21
-18
-15
-17
-20
-19
-16
-16
-16
-13
-10
-13
-15
-15
-13
-12
-11
-10
-8
-12
-16
-14
-8
-8
-8
-8
-5
-2
-4
-6
-4
-3
-2
-2
-2
-1
-2
-2
-1
1
3
3
4
11
13
12
15
18
19
20
24
26
29
29
29
33
37
36
34
39
41
38
37
40
41
37
35
36
34
29
28
28
26
23
19
18
19
18
15
10
9
6
2
-1
-2
-2
-4
-6
-6
-4
-8
-8
-8
-8
-12
-14
-10
-7
-7
-8
-6
-4
-4
-6
-8
-9
-6
-9
-10
-8
-8
-8
-8
-8
-8
-8
-11
-13
-15
-15
-15
-15
-16
-16
-17
-17
-17
-17
-17
-18
-19
-20
-21
-20
-19
-17
-20
-24
-23
-19
-23
-26
-27
-21
-20
-23
-22
-21
-23
-24
-24
-21
-21
-24
-25
-21
-20
-25
-27
-23
-22
-25
-27
-25
-23
-24
-27
-28
-23
-23
-27
-26
-23
-23
-23
-21
-23
-26
-25
-24
-22
-23
-25
-24
-21
-24
-28
-27
-24
-24
-26
-23
-21
-12
-9
-9
-9
-5
-7
-10
-10
-9
-13
-15
-15
-14
-14
-17
-23
-25
-24
-20
-19
-23
-24
-24
-27
-28
-27
-30
-30
-29
-31
-30
-30
-30
-29
-29
-29
-29
-28
-27
-28
-31
-21
6
37
60
69
70
94
100
86
-145
-166
-144
-127
-97
-61
-36
-26
-20
-17
-17
-19
-18
-15
-14
-16
-13
-11
-13
-14
-10
-11
-13
-13
-12
-7
-7
-9
-6
-4
-7
-9
-6
-3
-5
-7
-6
-2
0
-2
-2
0
1
1
0
2
5
5
4
4
8
11
10
14
18
19
19
20
24
28
30
32
33
34
35
39
39
42
46
44
45
46
45
45
47
47
46
45
40
39
37
30
27
27
27
20
17
15
13
9
8
8
6
2
0
-2
-3
-3
-4
-4
-5
-7
-8
-8
-6
-5
-6
-5
-4
-4
-5
-6
-3
-2
-5
-8
-6
-4
-7
-9
-7
-5
-7
-8
-7
-5
-7
-13
-15
-12
-12
-15
-13
-10
-12
-18
-21
-18
-17
-18
-17
-15
-18
-23
-24
-19
-20
-21
-23
-24
-20
-20
-21
-24
-24
-22
-21
-24
-25
-25
-24
-25
-21
-21
-25
-25
-24
-25
-26
-26
-24
-21
-24
-26
-26
-23
-24
-26
-27
-24
-23
-26
-27
-25
-23
-23
-26
-27
-25
-25
-25
-21
-23
-26
-26
-28
-26
-24
-25
-26
-22
-27
-28
-26
-24
-22
-19
-16
-11
-8
-8
-8
-9
-10
-9
-12
-13
-13
-15
-18
-21
-23
-27
-28
-28
-21
-19
-22
-26
-26
-25
-31
-34
-31
-32
-35
-34
-30
-29
-35
-35
-31
-31
-29
-30
-28
-30
-32
-17
-8
47
72
76
78
116
101
-50
-165
-163
-144
-131
-102
-70
-41
-28
-25
-22
-20
-21
-19
-17
-16
-15
-17
-17
-15
-13
-13
-15
-14
-13
-15
-14
-11
-8
-8
-9
-9
-8
-10
-12
-9
-8
-7
-6
-5
-3
-3
-3
-2
0
-1
0
2
4
3
4
7
8
8
9
12
14
15
14
15
22
28
29
28
32
37
38
40
41
46
46
45
48
50
52
49
49
51
48
44
43
41
37
36
30
28
25
20
19
17
14
10
6
5
4
1
-3
-6
-4
-5
-8
-8
-7
-8
-8
-6
-8
-10
-9
-9
-10
-8
-7
-8
-6
-5
-7
-5
-4
-8
-10
-9
-8
-9
-10
-12
-12
-10
-11
-15
-17
-16
-16
-17
-18
-17
-17
-21
-22
-20
-19
-20
-24
-25
-21
-22
-24
-24
-24
-24
-25
-25
-25
-25
-26
-25
-25
-26
-27
-26
-24
-25
-28
-28
-25
-25
-28
-29
-28
-25
-27
-29
-27
-24
-27
-29
-27
-25
-25
-28
-28
-25
-25
-28
-28
-26
-24
-25
-27
-27
-24
-24
-28
-29
-27
-25
-28
-29
-26
-25
-26
-27
-27
-26
-27
-27
-21
-17
-14
-12
-10
-8
-9
-13
-10
-8
-13
-15
-14
-14
-17
-20
-23
-25
-25
-21
-19
-23
-25
-27
-29
-28
-30
-31
-34
-35
-32
-30
-33
-35
-30
-30
-31
-32
-29
-29
-31
-31
-20
11
47
74
94
90
113
132
19
-136
-170
-151
-137
-115
-85
-54
-35
-26
-23
-21
-21
-18
-17
-19
-18
-15
-13
-14
-15
-15
-13
-14
-13
-10
-9
-9
-12
-12
-10
-10
-12
-8
-6
-6
-6
-5
-2
-2
-4
-3
-2
-2
-2
-2
0
1
0
0
2
6
8
6
6
9
12
14
17
18
17
19
20
29
30
28
31
37
38
36
39
41
41
41
43
43
43
42
39
39
39
36
31
29
30
26
20
19
19
19
15
15
13
8
3
2
3
0
-2
-4
-3
-3
-8
-10
-8
-6
-8
-10
-8
-6
-6
-6
-6
-5
-6
-5
-3
-3
-7
-8
-6
-6
-6
-8
-9
-7
-7
-8
-8
-7
-11
-15
-17
-14
-13
-15
-15
-14
-18
-21
-20
-19
-18
-18
-19
-22
-22
-19
-22
-23
-21
-20
-23
-21
-20
-23
-26
-25
-24
-24
-24
-26
-26
-21
-23
-27
-27
-24
-24
-25
-25
-26
-24
-26
-29
-25
-21
-24
-24
-23
-22
-26
-26
-26
-27
-27
-25
-25
-23
-22
-26
-25
-19
-24
-30
-26
-24
-25
-27
-26
-21
-17
-13
-10
-9
-8
-7
-9
-9
-6
-6
-8
-8
-8
-13
-17
-17
-19
-22
-24
-19
-16
-18
-24
-24
-22
-28
-32
-31
-32
-33
-30
-30
-28
-30
-30
-28
-27
-31
-30
-30
-28
-29
-18
12
52
88
105
107
132
156
37
-129
-171
-148
-137
-117
-89
-55
-31
-25
-24
-21
-15
-16
-17
-17
-13
-11
-12
-9
-8
-12
-13
-10
-8
-7
-9
-8
-7
-7
-9
-4
-1
-1
-6
-8
-7
0
0
0
-3
-2
0
1
4
6
6
3
3
7
9
11
13
15
17
17
17
24
30
34
30
29
36
39
41
46
51
53
52
57
61
62
63
63
66
70
65
65
68
68
66
59
54
54
50
46
46
41
38
32
27
21
17
12
10
10
10
4
0
2
1
-1
-3
-4
-4
-4
-4
-2
-3
-6
-9
-8
-4
-6
-3
0
0
-1
0
-2
-3
-4
-4
0
0
0
0
0
0
-5
-8
-8
-9
-10
-9
-8
-7
-10
-11
-8
-7
-9
-11
-15
-15
-16
-12
-9
-9
-12
-14
-14
-15
-15
-15
-15
-14
-14
-13
-14
-17
-18
-16
-13
-16
-18
-13
-13
-13
-14
-15
-13
-12
-13
-10
-9
-14
-15
-11
-8
-10
-11
-4
2
1
0
1
7
6
7
7
5
3
2
2
2
2
-3
-4
-4
-4
0
-1
-4
-5
-8
-9
-8
-12
-13
-14
-15
-14
-11
-12
-11
-12
-12
-17
-14
-9
-8
-11
-4
10
49
100
124
139
142
147
134
8
-136
-162
-138
-131
-104
-82
-55
-26
-9
-6
-5
-2
-1
0
0
0
0
1
0
2
4
4
2
2
2
3
3
5
6
7
6
6
5
8
8
10
9
8
5
6
11
14
14
13
12
15
17
15
16
20
23
25
26
26
28
28
29
36
41
38
43
48
49
54
55
58
61
67
70
72
73
78
80
82
85
83
80
81
82
80
77
72
70
70
61
54
53
52
46
37
35
32
23
16
13
11
11
8
5
2
4
1
-2
-3
0
0
-1
-2
0
2
0
3
4
1
2
3
4
4
4
4
4
6
6
4
3
5
2
1
1
0
0
0
0
-1
-2
-6
-8
-5
-6
-8
-10
-10
-8
-10
-8
-7
-9
-12
-13
-15
-15
-13
-14
-15
-14
-14
-13
-13
-13
-16
-17
-16
-16
-17
-16
-15
-18
-17
-15
-13
-15
-18
-19
-16
-16
-16
-17
-17
-17
-18
-17
-17
-17
-10
-7
-6
-7
-2
0
0
0
0
-1
-6
-8
-5
-5
-7
-9
-12
-16
-20
-15
-12
-15
-17
-17
-17
-22
-27
-27
-26
-26
-27
-28
-25
-26
-26
-26
-26
-28
-25
-25
-24
-20
-12
12
59
73
110
118
118
128
57
-105
-181
-155
-135
-121
-99
-73
-44
-24
-19
-17
-15
-15
-11
-9
-8
-8
-9
-12
-10
-4
-6
-8
-9
-3
-6
-9
-4
-1
-3
-6
-4
0
0
-3
-2
-1
0
0
-1
2
2
1
2
3
5
9
8
7
14
12
10
15
19
19
19
24
30
34
28
32
39
42
41
47
52
59
58
58
59
69
71
68
70
74
75
78
77
76
76
70
65
68
59
53
51
49
38
32
30
27
20
12
7
7
5
0
-4
-7
-4
-8
-9
-8
-7
-4
-8
-10
-10
-9
-12
-13
-10
-8
-8
-7
-4
-5
-5
-8
-8
-7
-8
-10
-6
-3
-10
-10
-10
-9
-8
-12
-13
-14
-13
-17
-16
-18
-19
-25
-20
-17
-22
-25
-26
-27
-20
-20
-25
-25
-26
-27
-27
-27
-27
-26
-24
-24
-28
-34
-28
-26
-27
-27
-30
-29
-27
-28
-29
-28
-27
-25
-28
-28
-29
-25
-21
-19
-15
-14
-15
-18
-16
-11
-10
-9
-12
-14
-19
-25
-24
-19
-22
-30
-31
-30
-22
-29
-36
-34
-26
-34
-41
-40
-38
-39
-40
-36
-35
-39
-37
-37
-37
-36
-39
-41
-39
-37
-31
-4
8
66
87
96
106
113
25
-131
-189
-166
-144
-126
-102
-71
-41
-32
-34
-27
-24
-26
-27
-21
-18
-23
-23
-21
-17
-17
-15
-17
-17
-17
-19
-14
-13
-17
-19
-18
-12
-13
-13
-13
-11
-9
-12
-11
-9
-9
-8
-8
-8
-2
0
0
0
3
3
6
5
6
12
11
10
13
15
17
21
28
31
30
35
43
46
48
53
54
59
61
64
65
68
70
72
73
75
70
64
65
63
59
54
45
40
38
28
21
17
13
8
5
4
-1
-8
-14
-17
-15
-17
-20
-16
-14
-18
-22
-20
-18
-16
-18
-21
-20
-18
-18
-14
-10
-14
-21
-21
-18
-10
-12
-16
-16
-15
-18
-20
-18
-17
-23
-26
-21
-20
-25
-30
-28
-23
-23
-26
-29
-31
-27
-25
-33
-37
-28
-31
-37
-36
-29
-32
-35
-34
-34
-35
-35
-34
-32
-37
-36
-30
-30
-35
-37
-37
-37
-35
-34
-34
-35
-29
-31
-30
-21
-15
-16
-18
-14
-14
-18
-20
-17
-19
-24
-30
-28
-26
-31
-36
-37
-32
-34
-32
-30
-31
-37
-39
-46
-47
-43
-47
-50
-48
-43
-40
-42
-45
-44
-41
-39
-41
-48
-49
-45
-18
24
52
67
66
68
83
8
-136
-198
-177
-151
-125
-82
-47
-38
-38
-36
-29
-27
-32
-32
-24
-21
-25
-26
-26
-22
-23
-25
-26
-22
-27
-24
-16
-15
-20
-21
-19
-16
-16
-16
-15
-14
-13
-13
-12
-10
-10
-6
-5
-5
-4
-4
-3
-2
1
2
1
4
6
6
6
11
13
15
18
24
28
30
33
39
41
45
48
50
54
57
56
59
61
64
62
62
64
64
59
53
52
49
44
38
32
30
26
19
14
12
9
3
-1
-2
-5
-9
-10
-10
-13
-13
-15
-19
-21
-19
-15
-13
-14
-21
-24
-16
-13
-14
-22
-26
-22
-17
-14
-13
-14
-15
-19
-21
-21
-17
-19
-21
-21
-19
-24
-28
-22
-20
-26
-28
-27
-26
-30
-33
-28
-27
-30
-32
-30
-28
-33
-37
-31
-29
-31
-34
-34
-35
-36
-38
-38
-32
-29
-36
-38
-35
-36
-37
-33
-29
-32
-36
-37
-37
-34
-31
-31
-37
-39
-32
-22
-19
-19
-20
-20
-20
-17
-14
-19
-27
-27
-26
-30
-30
-28
-31
-38
-41
-37
-32
-30
-32
-38
-40
-43
-44
-40
-40
-45
-47
-39
-36
-40
-43
-43
-42
-44
-41
-41
-45
-51
-40
-11
14
34
41
35
51
62
-44
-174
-195
-165
-139
-102
-64
-44
-40
-35
-27
-25
-28
-29
-27
-26
-27
-26
-29
-23
-17
-23
-26
-24
-23
-21
-19
-19
-19
-18
-18
-20
-19
-17
-17
-19
-13
-10
-13
-16
-14
-9
-8
-12
-7
-4
-3
-6
-4
-2
1
-3
-3
4
7
6
8
12
15
17
18
20
21
21
25
30
32
32
36
38
39
38
38
42
43
41
39
37
37
36
30
25
23
20
17
16
13
9
5
2
2
-1
-4
-4
-2
-2
-7
-13
-16
-17
-15
-16
-17
-15
-13
-16
-19
-18
-16
-15
-15
-17
-18
-17
-17
-17
-15
-14
-21
-21
-18
-17
-17
-19
-20
-23
-24
-24
-25
-24
-25
-27
-26
-27
-30
-31
-32
-34
-32
-32
-31
-32
-32
-31
-33
-34
-34
-37
-39
-38
-32
-36
-38
-33
-33
-37
-37
-35
-36
-37
-37
-39
-36
-35
-34
-37
-36
-33
-36
-38
-37
-38
-39
-38
-37
-37
-38
-36
-35
-35
-36
-39
-38
-37
-39
-39
-35
-33
-38
-39
-36
-36
-37
-37
-40
-40
-37
-39
-38
-37
-35
-38
-39
-38
-39
-38
-39
-37
-30
-26
-22
-20
-20
-19
-21
-18
-17
-23
-28
-28
-29
-32
-36
-34
-32
-37
-38
-35
-34
-35
-36
-39
-40
-40
-45
-46
-46
-45
-43
-44
-46
-43
-42
-45
-42
-38
-39
-41
-47
-48
-6
18
33
38
30
49
57
-57
-176
-183
-162
-144
-112
-77
-53
-37
-33
-31
-32
-30
-30
-31
-29
-29
-28
-27
-27
-25
-24
-26
-26
-25
-22
-20
-22
-24
-20
-18
-20
-20
-21
-18
-16
-19
-19
-15
-14
-16
-16
-15
-12
-13
-13
-13
-12
-13
-10
-7
-4
-2
-4
-1
0
2
2
5
6
5
6
8
10
12
13
14
15
17
17
17
18
19
19
17
21
22
18
15
14
13
10
6
6
6
4
1
0
2
2
-1
-5
-6
-6
-8
-12
-9
-9
-10
-12
-13
-14
-15
-14
-15
-15
-15
-17
-18
-17
-15
-16
-16
-16
-18
-21
-20
-19
-18
-17
-17
-20
-21
-23
-24
-21
-21
-25
-27
-26
-24
-28
-30
-27
-26
-28
-30
-31
-29
-31
-35
-33
-30
-31
-33
-34
-32
-31
-32
-34
-34
-35
-35
-34
-35
-32
-35
-37
-36
-34
-34
-38
-36
-32
-34
-36
-37
-36
-36
-37
-34
-35
-37
-35
-35
-36
-35
-35
-37
-37
-32
-34
-38
-36
-35
-35
-34
-28
-25
-24
-23
-20
-19
-14
-16
-19
-19
-19
-21
-24
-25
-27
-31
-33
-35
-33
-32
-31
-31
-30
-30
-34
-36
-39
-40
-42
-41
-41
-39
-39
-39
-41
-39
-38
-40
-37
-35
-36
-40
-36
-12
16
37
48
35
42
65
-18
-149
-183
-163
-146
-140
-85
-57
-39
-33
-30
-29
-27
-24
-25
-28
-27
-23
-20
-21
-24
-21
-20
-20
-19
-21
-19
-17
-20
-18
-17
-17
-17
-17
-15
-14
-15
-18
-16
-14
-13
-13
-12
-10
-12
-12
-8
-7
-6
-8
-6
-3
-2
-2
-1
0
2
3
2
7
8
7
7
12
14
14
14
19
21
18
17
18
22
22
18
19
21
18
15
13
13
13
11
8
6
7
5
2
1
2
0
-2
-2
-3
-6
-8
-9
-8
-13
-16
-14
-12
-12
-14
-14
-13
-15
-18
-18
-15
-13
-13
-17
-17
-17
-17
-19
-16
-15
-18
-23
-23
-19
-18
-21
-21
-21
-24
-26
-26
-26
-29
-28
-28
-29
-29
-30
-30
-30
-30
-29
-29
-29
-30
-30
-32
-35
-34
-32
-34
-33
-31
-30
-30
-33
-34
-31
-36
-37
-31
-32
-35
-35
-33
-32
-33
-35
-32
-29
-32
-32
-34
-34
-33
-35
-35
-32
-31
-36
-35
-34
-31
-32
-32
-31
-30
-33
-35
-30
-29
-35
-36
-31
-31
-35
-35
-32
-35
-33
-32
-32
-32
-32
-32
-32
-32
-31
-30
-31
-32
-30
-32
-37
-33
-28
-30
-33
-32
-30
-32
-29
-21
-18
-16
-18
-18
-15
-15
-16
-16
-17
-17
-20
-26
-26
-27
-33
-37
-31
-25
-26
-31
-32
-33
-37
-39
-37
-36
-37
-38
-36
-36
-37
-39
-39
-38
-35
-37
-39
-33
-34
-36
-19
14
37
51
43
39
73
40
-106
-186
-167
-152
-135
-98
-60
-42
-34
-30
-30
-26
-25
-27
-26
-23
-23
-20
-19
-22
-24
-24
-21
-18
-18
-20
-18
-17
-16
-16
-16
-17
-15
-16
-16
-16
-13
-12
-13
-14
-10
-11
-10
-6
-5
-7
-9
-8
-5
-4
-5
-3
-1
0
-1
0
4
4
4
5
6
10
9
9
15
19
20
19
20
21
21
22
24
25
23
22
21
24
24
19
18
17
13
12
8
8
11
5
4
6
5
2
0
-1
-2
-6
-8
-9
-8
-10
-14
-15
-13
-14
-17
-14
-12
-15
-18
-17
-16
-15
-15
-16
-15
-16
-18
-19
-19
-19
-20
-21
-19
-18
-18
-24
-25
-23
-22
-26
-27
-25
-27
-30
-30
-29
-28
-29
-34
-33
-29
-30
-32
-32
-32
-30
-33
-35
-32
-34
-38
-34
-30
-34
-37
-37
-35
-34
-35
-35
-35
-37
-35
-35
-37
-36
-37
-39
-36
-35
-36
-37
-35
-33
-37
-37
-35
-36
-37
-37
-38
-36
-34
-36
-35
-35
-35
-36
-37
-32
-34
-37
-36
-34
-35
-35
-37
-37
-35
-34
-35
-36
-34
-32
-36
-37
-35
-38
-39
-35
-34
-35
-37
-36
-29
-27
-25
-21
-19
-18
-17
-19
-17
-15
-17
-22
-24
-25
-26
-29
-31
-32
-33
-35
-32
-29
-32
-39
-38
-36
-41
-43
-41
-39
-39
-41
-42
-42
-41
-43
-42
-39
-39
-40
-37
-40
-38
-17
15
40
47
58
52
86
61
-87
-180
-172
-155
-138
-106
-73
-48
-36
-32
-33
-30
-26
-24
-26
-28
-24
-23
-23
-21
-21
-23
-21
-21
-20
-19
-20
-20
-18
-17
-18
-18
-17
-15
-15
-16
-15
-13
-14
-15
-11
-9
-9
-12
-9
-8
-6
-8
-8
-5
-4
-4
-4
-1
0
0
1
4
7
8
5
6
13
15
16
19
19
16
16
18
19
20
18
16
19
25
25
19
17
15
13
13
10
11
8
6
7
7
6
3
3
3
1
-2
-3
-2
-3
-6
-8
-9
-10
-11
-15
-14
-11
-12
-13
-15
-14
-10
-11
-10
-10
-14
-14
-10
-9
-14
-17
-16
-15
-15
-17
-17
-17
-18
-20
-20
-19
-20
-25
-25
-21
-23
-25
-27
-25
-23
-23
-26
-28
-25
-24
-28
-29
-28
-26
-26
-28
-29
-28
-32
-35
-30
-27
-31
-33
-30
-28
-28
-31
-31
-27
-28
-32
-32
-31
-32
-30
-26
-25
-28
-34
-34
-30
-32
-35
-36
-33
-29
-26
-28
-29
-28
-32
-35
-31
-28
-27
-28
-29
-28
-29
-30
-28
-27
-32
-35
-28
-27
-27
-32
-32
-29
-28
-34
-32
-28
-27
-29
-35
-32
-28
-29
-32
-35
-31
-26
-27
-33
-35
-29
-31
-34
-31
-29
-29
-29
-23
-17
-14
-16
-18
-12
-10
-13
-13
-13
-17
-21
-24
-28
-25
-24
-26
-28
-32
-31
-30
-28
-30
-37
-37
-31
-30
-39
-45
-41
-34
-34
-43
-39
-29
-30
-38
-42
-33
-23
-30
-40
-39
12
32
49
55
51
72
74
-58
-181
-174
-150
-133
-104
-72
-47
-30
-25
-25
-28
-21
-19
-26
-26
-18
-17
-20
-21
-23
-14
-8
-14
-25
-18
-9
-11
-16
-16
-13
-13
-16
-10
-7
-9
-13
-9
-6
-10
-9
-3
-1
-5
-9
-10
-5
-4
1
3
1
0
0
0
2
1
4
12
15
15
15
16
18
20
26
27
26
27
30
27
26
30
30
30
36
37
32
28
28
30
26
19
20
21
17
9
10
11
8
3
2
7
9
1
-4
-5
-4
-8
-9
-8
-8
-14
-16
-9
-7
-11
-12
-13
-13
-14
-17
-9
-6
-8
-10
-12
-15
-16
-15
-15
-15
-15
-13
-19
-20
-15
-14
-19
-20
-17
-19
-25
-27
-21
-22
-29
-28
-20
-19
-25
-30
-29
-28
-26
-27
-26
-27
-27
-27
-32
-31
-30
-35
-30
-27
-27
-32
-38
-32
-34
-36
-30
-28
-31
-35
-35
-32
-31
-31
-30
-31
-29
-32
-34
-31
-31
-32
-32
-32
-32
-33
-32
-36
-35
-31
-33
-36
-33
-31
-31
-35
-34
-32
-30
-34
-35
-31
-31
-35
-32
-33
-35
-34
-33
-34
-32
-32
-34
-35
-32
-33
-35
-33
-31
-30
-32
-34
-32
-32
-37
-35
-32
-34
-36
-34
-34
-35
-34
-31
-26
-22
-19
-18
-15
-13
-14
-15
-15
-17
-20
-23
-26
-27
-31
-31
-29
-31
-32
-29
-30
-33
-33
-34
-37
-39
-39
-39
-41
-38
-36
-38
-40
-39
-38
-37
-38
-38
-37
-30
-35
-27
6
41
66
85
79
95
121
18
-141
-182
-163
-152
-128
-93
-62
-43
-33
-29
-27
-26
-27
-28
-23
-24
-20
-18
-24
-23
-20
-20
-19
-19
-20
-17
-15
-17
-19
-17
-15
-15
-16
-14
-12
-15
-17
-14
-12
-10
-12
-10
-8
-8
-7
-4
-4
-5
-8
-6
-3
0
-1
-1
1
2
2
3
7
10
11
12
16
18
21
19
18
23
24
24
27
27
28
26
25
28
27
23
19
21
23
19
15
15
13
10
9
10
10
5
3
3
3
1
-2
-4
-5
-6
-9
-12
-12
-10
-10
-11
-8
-10
-15
-15
-11
-9
-11
-12
-11
-12
-12
-10
-10
-13
-14
-14
-14
-14
-14
-14
-14
-17
-16
-17
-18
-18
-18
-20
-23
-20
-17
-21
-26
-25
-23
-24
-26
-25
-24
-23
-24
-28
-28
-26
-27
-27
-26
-26
-26
-27
-29
-27
-26
-28
-27
-28
-30
-28
-28
-29
-29
-28
-28
-28
-27
-28
-26
-26
-27
-28
-28
-29
-28
-28
-27
-26
-28
-29
-28
-27
-26
-27
-27
-25
-25
-28
-28
-26
-26
-28
-28
-26
-25
-25
-28
-28
-26
-28
-29
-27
-24
-23
-27
-29
-25
-23
-26
-29
-27
-26
-26
-27
-24
-24
-24
-29
-30
-21
-16
-14
-14
-12
-11
-10
-11
-7
-6
-11
-15
-14
-13
-18
-24
-23
-21
-23
-24
-20
-19
-20
-24
-27
-27
-27
-29
-30
-31
-30
-29
-31
-31
-29
-28
-29
-27
-27
-27
-29
-27
-27
-12
21
45
65
68
65
96
75
-68
-169
-164
-141
-124
-91
-57
-32
-24
-23
-20
-16
-13
-14
-18
-17
-15
-12
-13
-13
-10
-8
-10
-13
-10
-7
-8
-10
-7
-6
-6
-6
-4
-2
-1
-3
-5
-1
0
0
0
1
2
-1
0
3
5
5
7
11
13
12
10
13
15
14
14
17
22
25
25
27
29
29
31
35
36
39
41
39
40
45
42
41
44
44
41
41
39
36
32
30
27
25
25
19
18
19
14
9
9
10
8
5
4
3
0
-3
-2
0
-1
-4
-6
-4
-3
-5
-5
-4
-3
-4
-5
-4
-3
-3
-3
-3
-3
-3
-4
-4
-5
-7
-9
-8
-7
-7
-9
-10
-10
-11
-15
-17
-14
-13
-14
-15
-15
-17
-19
-19
-18
-17
-17
-18
-19
-19
-18
-19
-18
-18
-20
-21
-22
-19
-17
-21
-24
-21
-19
-19
-21
-20
-21
-21
-21
-22
-21
-21
-22
-19
-20
-23
-24
-24
-20
-18
-21
-23
-20
-19
-21
-22
-21
-21
-22
-24
-22
-23
-22
-21
-20
-20
-24
-26
-21
-18
-18
-20
-24
-21
-20
-21
-20
-18
-18
-21
-21
-21
-23
-21
-21
-20
-19
-22
-26
-25
-24
-20
-20
-19
-22
-21
-20
-20
-16
-13
-9
-8
-7
-5
-6
-6
-4
-3
-7
-12
-14
-18
-20
-23
-21
-21
-28
-25
-20
-19
-20
-23
-27
-27
-27
-30
-32
-30
-29
-30
-33
-30
-27
-27
-29
-29
-28
-27
-25
-28
-27
17
45
68
79
71
96
114
-19
-161
-172
-151
-133
-107
-71
-44
-26
-19
-19
-21
-17
-14
-14
-16
-15
-15
-13
-15
-14
-11
-10
-10
-10
-7
-6
-11
-13
-9
-7
-7
-7
-6
-4
-4
-5
-4
-1
-4
-7
-5
-3
-4
-3
0
2
1
0
3
6
5
3
6
12
13
10
13
17
20
19
20
24
29
31
30
32
34
35
35
37
40
42
41
42
43
42
39
39
37
35
35
31
28
25
21
18
18
18
13
10
8
8
3
0
-2
-2
-2
-6
-9
-6
-5
-8
-9
-7
-7
-8
-7
-8
-11
-13
-12
-10
-8
-8
-9
-6
-5
-5
-9
-9
-9
-13
-15
-13
-11
-11
-13
-15
-17
-17
-17
-18
-16
-15
-18
-19
-18
-19
-19
-21
-24
-24
-24
-24
-23
-25
-28
-26
-25
-24
-24
-27
-27
-25
-24
-26
-28
-24
-24
-29
-31
-27
-24
-28
-30
-27
-26
-28
-29
-27
-26
-26
-29
-28
-26
-25
-27
-29
-27
-25
-30
-30
-26
-25
-28
-31
-29
-26
-26
-26
-26
-26
-25
-28
-29
-26
-24
-26
-30
-28
-26
-27
-28
-26
-26
-27
-29
-27
-26
-26
-26
-25
-26
-26
-26
-25
-24
-25
-27
-24
-25
-28
-22
-16
-12
-10
-11
-13
-10
-10
-12
-10
-10
-12
-16
-21
-22
-20
-23
-27
-28
-27
-21
-22
-21
-23
-28
-31
-31
-34
-35
-34
-34
-34
-32
-32
-30
-30
-30
-31
-34
-31
-27
-29
-22
11
23
68
76
71
97
113
-13
-153
-167
-148
-136
-108
-72
-44
-29
-26
-20
-17
-19
-21
-19
-16
-16
-17
-17
-16
-14
-17
-16
-13
-13
-14
-10
-10
-11
-13
-13
-10
-8
-12
-8
-3
-4
-7
-8
-6
-6
-7
-3
-1
-1
-2
-3
-1
1
1
0
3
7
8
5
6
11
14
14
17
21
23
21
23
27
30
31
29
28
29
34
32
31
35
39
34
34
36
33
29
27
27
26
20
17
18
15
9
8
8
7
3
1
1
1
0
-2
-4
-5
-6
-6
-8
-9
-10
-10
-10
-8
-7
-10
-10
-7
-7
-12
-13
-9
-7
-8
-8
-7
-6
-8
-10
-10
-12
-13
-14
-13
-13
-12
-15
-17
-17
-16
-17
-17
-13
-15
-22
-23
-19
-17
-21
-25
-24
-23
-22
-25
-26
-25
-24
-26
-23
-22
-25
-27
-25
-24
-27
-28
-26
-25
-26
-28
-28
-27
-28
-28
-28
-25
-24
-25
-28
-26
-25
-29
-31
-27
-26
-26
-29
-28
-25
-25
-30
-29
-26
-25
-26
-28
-27
-24
-28
-32
-29
-27
-29
-29
-27
-26
-25
-26
-28
-26
-25
-28
-29
-27
-25
-25
-28
-28
-26
-26
-29
-28
-24
-26
-28
-26
-25
-23
-18
-14
-13
-13
-13
-9
-8
-7
-11
-13
-15
-16
-21
-25
-23
-21
-25
-29
-26
-20
-22
-27
-27
-26
-27
-29
-32
-32
-31
-36
-36
-31
-31
-32
-31
-30
-29
-35
-33
-27
-27
-30
-9
25
49
65
61
71
79
33
-121
-176
-156
-140
-117
-82
-49
-31
-28
-24
-19
-19
-23
-21
-19
-18
-17
-19
-16
-14
-16
-16
-14
-13
-15
-13
-8
-11
-16
-16
-10
-8
-8
-8
-8
-8
-8
-8
-7
-5
-4
-5
-5
-4
-2
-2
-2
1
2
3
2
4
6
6
6
9
12
12
15
19
23
24
24
25
28
32
33
33
38
40
40
39
41
42
39
41
42
41
39
33
30
29
29
23
19
18
14
8
9
10
7
2
0
0
0
-1
-4
-4
-5
-10
-12
-10
-9
-10
-10
-13
-13
-11
-10
-10
-10
-12
-13
-10
-8
-8
-9
-10
-11
-10
-12
-13
-11
-10
-10
-15
-17
-17
-15
-17
-17
-16
-15
-21
-22
-21
-20
-21
-22
-24
-24
-22
-24
-26
-26
-26
-27
-25
-24
-26
-28
-25
-25
-29
-29
-27
-27
-28
-30
-27
-25
-29
-31
-29
-26
-27
-29
-29
-26
-27
-30
-29
-28
-28
-32
-31
-29
-28
-28
-29
-27
-26
-29
-32
-30
-29
-31
-31
-31
-27
-26
-28
-28
-26
-30
-31
-30
-30
-30
-29
-30
-27
-26
-29
-29
-29
-28
-29
-30
-30
-29
-29
-29
-29
-27
-27
-29
-29
-27
-30
-30
-27
-25
-24
-17
-16
-15
-9
-9
-10
-10
-13
-16
-18
-17
-17
-20
-25
-28
-28
-27
-26
-26
-25
-26
-30
-32
-32
-31
-37
-39
-34
-30
-35
-37
-35
-37
-36
-32
-31
-34
-32
-30
-31
-12
27
60
84
91
94
129
108
-57
-113
-162
-149
-136
-106
-73
-49
-31
-26
-26
-24
-22
-21
-21
-21
-18
-17
-17
-19
-20
-17
-15
-14
-16
-16
-15
-15
-17
-14
-12
-12
-12
-13
-13
-11
-10
-10
-8
-7
-8
-8
-4
-2
-5
-8
-3
0
-2
-4
-1
1
0
0
6
10
9
7
10
16
17
17
18
20
22
25
29
32
31
31
32
34
34
35
36
36
36
33
31
29
28
25
24
25
22
18
14
15
14
11
9
9
7
4
1
0
0
-1
-3
-6
-9
-10
-10
-10
-10
-8
-9
-9
-7
-8
-9
-9
-9
-8
-9
-10
-8
-6
-6
-6
-8
-10
-8
-11
-13
-13
-12
-12
-13
-14
-11
-15
-19
-17
-15
-15
-17
-18
-20
-20
-20
-21
-19
-20
-24
-23
-21
-21
-23
-26
-25
-24
-25
-26
-25
-25
-24
-26
-24
-25
-26
-26
-26
-25
-26
-27
-25
-25
-27
-28
-27
-25
-25
-28
-27
-26
-25
-26
-28
-27
-27
-27
-27
-24
-25
-28
-28
-27
-24
-28
-31
-28
-24
-25
-29
-28
-25
-26
-28
-28
-26
-25
-27
-29
-27
-24
-25
-28
-28
-27
-26
-26
-28
-26
-21
-17
-13
-10
-13
-14
-9
-8
-9
-10
-10
-12
-13
-21
-22
-21
-23
-27
-30
-25
-18
-20
-28
-30
-27
-26
-32
-37
-32
-30
-33
-34
-32
-30
-34
-32
-30
-30
-30
-31
-29
-31
-25
4
31
55
63
58
79
95
-15
-150
-173
-148
-132
-106
-69
-39
-28
-26
-24
-18
-17
-20
-20
-18
-16
-15
-16
-15
-15
-16
-15
-15
-12
-11
-13
-11
-9
-10
-12
-11
-8
-6
-7
-6
-5
-4
-3
-3
-5
-3
0
-4
-2
1
1
-2
3
7
3
2
7
13
13
13
15
18
18
18
21
25
26
28
30
35
38
38
39
43
44
43
42
44
45
46
43
41
43
41
35
32
32
29
21
16
16
17
12
9
8
7
4
1
0
0
0
-4
-6
-6
-5
-10
-13
-8
-7
-9
-10
-9
-7
-6
-8
-8
-7
-9
-12
-8
-6
-8
-8
-6
-6
-6
-9
-9
-7
-12
-15
-13
-12
-13
-14
-16
-14
-14
-19
-19
-17
-17
-17
-20
-24
-22
-20
-20
-18
-23
-25
-23
-21
-19
-24
-28
-25
-21
-20
-26
-28
-24
-25
-27
-25
-26
-25
-27
-30
-26
-22
-23
-27
-30
-26
-25
-25
-25
-28
-27
-28
-27
-26
-27
-26
-27
-26
-25
-26
-26
-26
-27
-27
-27
-25
-28
-29
-28
-26
-27
-27
-28
-26
-24
-28
-30
-28
-27
-27
-27
-27
-26
-28
-30
-27
-25
-24
-28
-29
-27
-26
-27
-26
-19
-16
-16
-18
-16
-10
-10
-12
-9
-8
-10
-15
-18
-20
-21
-20
-25
-28
-28
-25
-22
-26
-28
-27
-28
-29
-34
-37
-36
-32
-32
-35
-36
-34
-30
-30
-34
-37
-33
-30
-30
-34
-16
-6
46
73
83
80
110
111
-26
-157
-168
-148
-137
-109
-76
-50
-33
-24
-23
-25
-24
-21
-20
-20
-19
-19
-18
-17
-16
-13
-16
-18
-17
-13
-12
-14
-13
-10
-13
-14
-13
-11
-8
-10
-11
-7
-6
-9
-7
-5
-5
-6
-5
-3
-3
-2
0
0
1
4
4
2
5
6
5
9
15
20
21
22
24
28
30
32
35
35
36
41
41
42
44
43
41
46
47
42
39
41
40
37
34
29
26
26
21
17
16
15
11
8
5
4
0
-2
-4
-7
-9
-9
-9
-9
-10
-12
-11
-11
-14
-15
-13
-9
-9
-11
-10
-9
-12
-12
-10
-10
-9
-10
-11
-9
-9
-12
-13
-14
-14
-14
-16
-15
-14
-17
-20
-20
-18
-18
-19
-23
-22
-21
-22
-21
-22
-23
-26
-25
-24
-23
-27
-28
-25
-24
-25
-28
-26
-24
-27
-28
-27
-24
-26
-31
-28
-25
-24
-28
-31
-27
-26
-27
-27
-27
-26
-29
-30
-27
-25
-25
-29
-27
-25
-26
-30
-30
-26
-26
-27
-29
-27
-25
-27
-29
-28
-27
-27
-27
-27
-27
-26
-28
-27
-27
-26
-26
-27
-26
-26
-27
-27
-27
-27
-26
-25
-25
-27
-28
-26
-25
-25
-26
-19
-15
-13
-12
-13
-8
-8
-9
-10
-9
-12
-13
-16
-17
-19
-21
-24
-26
-26
-23
-21
-21
-24
-24
-28
-30
-30
-30
-31
-32
-30
-31
-33
-32
-29
-29
-30
-31
-30
-28
-28
-30
-9
25
50
68
70
75
81
73
-75
-165
-157
-139
-122
-89
-55
-31
-24
-25
-21
-18
-17
-17
-17
-17
-15
-15
-15
-13
-11
-10
-12
-13
-10
-12
-11
-8
-8
-9
-7
-6
-5
-6
-8
-3
-3
-7
-5
-2
-3
-4
-2
0
-1
-1
0
2
3
4
4
6
9
12
13
14
15
17
19
20
24
27
28
31
32
32
34
38
40
42
42
42
46
47
43
46
47
43
41
40
36
33
31
26
22
19
19
15
14
12
10
7
4
4
2
-1
-2
-1
-1
-4
-5
-6
-5
-7
-10
-8
-6
-8
-10
-8
-4
-4
-7
-8
-4
-3
-7
-9
-5
-4
-10
-9
-7
-6
-8
-6
-8
-10
-8
-11
-15
-15
-15
-15
-14
-13
-16
-19
-19
-18
-18
-18
-19
-20
-19
-20
-19
-19
-19
-26
-27
-21
-19
-24
-25
-24
-22
-23
-26
-26
-24
-24
-24
-24
-25
-25
-25
-23
-23
-26
-26
-25
-24
-24
-27
-27
-24
-23
-25
-27
-23
-24
-26
-27
-26
-23
-24
-28
-26
-23
-23
-25
-28
-25
-21
-24
-26
-26
-27
-27
-27
-24
-25
-26
-26
-25
-25
-26
-26
-24
-25
-25
-25
-24
-24
-27
-28
-25
-24
-26
-29
-26
-23
-21
-21
-22
-15
-10
-12
-8
-4
-6
-9
-12
-13
-13
-16
-19
-19
-19
-24
-29
-28
-20
-20
-24
-25
-25
-24
-32
-35
-31
-29
-32
-35
-30
-29
-33
-34
-31
-29
-33
-34
-29
-28
-32
-19
14
42
61
64
64
97
112
-49
-166
-165
-145
-131
-101
-66
-41
-28
-26
-22
-20
-21
-20
-19
-19
-17
-16
-15
-18
-18
-16
-15
-13
-13
-13
-14
-15
-10
-13
-14
-9
-7
-8
-11
-5
-4
-7
-7
-5
-6
-5
-5
-3
-2
0
-1
0
1
2
3
3
4
5
8
11
13
13
15
20
25
26
27
31
35
37
37
38
43
43
45
48
48
51
52
50
49
50
51
45
41
40
39
33
28
28
26
19
15
14
13
10
8
4
1
0
-3
-7
-9
-8
-10
-13
-13
-10
-13
-11
-10
-14
-14
-12
-13
-12
-12
-13
-8
-9
-14
-13
-9
-12
-13
-13
-12
-8
-7
-15
-17
-15
-15
-17
-17
-16
-18
-22
-23
-20
-19
-23
-25
-25
-23
-23
-25
-25
-25
-25
-26
-28
-28
-27
-27
-27
-28
-28
-27
-29
-30
-28
-27
-28
-29
-30
-30
-28
-29
-31
-30
-30
-30
-30
-29
-31
-32
-30
-29
-29
-30
-30
-29
-31
-33
-30
-29
-28
-32
-31
-28
-33
-34
-29
-26
-29
-34
-32
-30
-31
-31
-30
-27
-26
-35
-32
-30
-30
-31
-31
-27
-30
-33
-32
-32
-31
-30
-31
-30
-30
-31
-32
-32
-31
-28
-27
-30
-31
-30
-23
-22
-19
-17
-16
-16
-13
-8
-12
-16
-18
-18
-19
-21
-22
-26
-29
-31
-25
-22
-26
-30
-31
-33
-35
-37
-37
-37
-36
-37
-39
-39
-37
-38
-36
-31
-33
-39
-38
-34
-31
-18
18
59
89
104
100
123
132
117
-151
-174
-153
-145
-126
-93
-61
-42
-36
-30
-25
-24
-26
-24
-20
-18
-18
-22
-22
-18
-17
-17
-16
-18
-19
-17
-16
-14
-13
-17
-16
-14
-15
-15
-13
-10
-8
-9
-13
-11
-9
-9
-9
-6
-5
-2
-3
-3
0
1
3
2
3
5
7
8
10
10
12
16
22
26
28
28
30
34
36
38
42
45
46
44
48
50
50
47
47
47
49
43
41
40
36
32
30
27
22
18
16
15
13
10
6
3
1
-3
-9
-9
-8
-9
-16
-17
-15
-15
-17
-16
-17
-17
-17
-16
-16
-14
-14
-15
-15
-13
-13
-13
-11
-8
-11
-16
-16
-13
-12
-16
-13
-13
-18
-20
-18
-18
-19
-19
-23
-24
-24
-24
-24
-24
-27
-28
-27
-23
-25
-28
-28
-27
-28
-29
-29
-27
-24
-29
-32
-30
-30
-30
-30
-30
-28
-28
-30
-30
-31
-32
-32
-32
-29
-29
-31
-31
-32
-32
-31
-30
-30
-30
-30
-30
-31
-30
-29
-28
-32
-33
-30
-30
-32
-30
-29
-28
-29
-30
-29
-30
-32
-29
-26
-26
-29
-31
-27
-30
-34
-32
-29
-28
-30
-32
-28
-27
-30
-31
-27
-28
-32
-33
-29
-27
-27
-28
-24
-17
-16
-20
-18
-13
-10
-13
-11
-10
-13
-17
-20
-21
-19
-19
-23
-28
-29
-25
-21
-23
-26
-28
-29
-30
-34
-35
-35
-35
-36
-35
-39
-38
-31
-31
-34
-33
-28
-30
-36
-39
-26
3
35
53
65
72
89
107
15
-126
-160
-146
-129
-104
-71
-46
-33
-26
-23
-23
-25
-26
-27
-25
-18
-20
-19
-17
-16
-9
-6
-7
-8
-9
-8
-8
-14
-7
-6
-13
-15
-12
-4
-2
-13
-16
-4
4
4
0
0
-1
0
3
1
-4
-2
7
10
8
7
14
17
16
11
9
15
24
31
29
24
31
40
40
36
38
46
53
58
56
50
48
48
50
52
51
48
48
39
45
49
39
36
36
29
20
20
19
13
13
9
3
0
-2
-4
-5
-7
2
0
-5
-6
1
1
-4
-11
-12
-7
-1
1
-4
-10
-12
-9
-4
0
0
-2
-11
-11
1
3
-4
-8
-3
-3
-6
-17
-9
1
4
-1
-10
-15
-16
-17
-15
-15
-12
-11
-15
-15
-19
-24
-16
-8
-9
-9
-14
-19
-20
-19
-12
-17
-21
-24
-20
-24
-20
-20
-24
-24
-18
-20
-23
-24
-23
-19
-20
-21
-17
-15
-28
-29
-19
-18
-19
-28
-30
-28
-23
-19
-24
-31
-23
-20
-28
-30
-26
-24
-21
-19
-18
-23
-18
-23
-29
-27
-27
-26
-22
-19
-26
-37
-28
-21
-24
-23
-17
-18
-18
-19
-14
-8
-12
-15
-9
0
-8
-19
-19
-7
-9
-28
-27
-19
-19
-41
-28
-15
-19
-28
-27
-29
-34
-28
-34
-40
-37
-25
-28
-37
-39
-35
-27
-26
-35
-41
-37
-35
-36
-34
11
45
71
68
71
105
93
-57
-168
-156
-137
-130
-103
-72
-46
-26
-12
-17
-37
-43
-35
-28
-21
-24
-28
-20
-15
-21
-18
-24
-29
-19
-15
-16
-20
-21
-16
-9
-11
-17
-23
-20
-4
-13
-25
-17
-10
-13
-16
-18
-9
-8
-10
-7
-9
-13
-6
1
6
13
15
9
0
-4
2
13
14
12
17
17
27
36
34
31
29
35
38
34
40
50
54
49
47
56
62
53
40
34
32
35
31
23
21
21
19
14
9
9
6
3
4
-2
-14
-20
-18
-11
-3
-11
-20
-21
-14
-19
-27
-32
-27
-26
-27
-24
-16
-14
-19
-23
-23
-20
-20
-21
-25
-22
-9
-15
-26
-26
-23
-26
-30
-20
-18
-26
-25
-26
-27
-29
-34
-30
-25
-29
-33
-32
-32
-34
-33
-31
-31
-31
-32
-39
-37
-30
-39
-43
-40
-35
-33
-40
-40
-38
-40
-41
-40
-36
-36
-38
-39
-38
-37
-39
-35
-35
-38
-41
-40
-32
-35
-45
-41
-32
-37
-43
-42
-37
-34
-41
-46
-30
-32
-37
-38
-41
-40
-40
-41
-40
-38
-32
-27
-28
-29
-28
-27
-22
-19
-20
-24
-26
-26
-27
-27
-33
-37
-30
-28
-37
-37
-32
-32
-38
-40
-37
-41
-46
-43
-37
-45
-47
-42
-40
-47
-50
-47
-40
-40
-39
-41
-41
-45
-38
-4
38
68
76
90
121
128
4
-138
-164
-149
-141
-125
-94
-65
-47
-41
-37
-31
-32
-30
-28
-27
-28
-29
-23
-19
-25
-28
-26
-24
-21
-23
-23
-20
-26
-25
-20
-21
-20
-18
-20
-24
-19
-17
-16
-14
-15
-13
-15
-18
-12
-8
-8
-6
-7
-9
-9
-8
-3
0
0
-1
1
4
7
7
5
9
14
15
17
22
26
25
31
37
36
35
36
38
40
41
38
37
40
40
33
28
27
26
21
21
21
15
8
5
2
0
1
1
-5
-9
-9
-10
-14
-13
-14
-20
-20
-16
-17
-20
-21
-18
-15
-16
-18
-15
-10
-16
-20
-19
-15
-15
-16
-16
-19
-19
-13
-18
-20
-15
-14
-13
-15
-21
-25
-22
-19
-19
-22
-24
-25
-24
-24
-28
-29
-22
-25
-29
-26
-26
-26
-30
-32
-29
-28
-30
-30
-32
-29
-29
-34
-29
-27
-32
-34
-30
-29
-33
-33
-28
-30
-35
-31
-31
-30
-31
-31
-32
-32
-34
-34
-28
-26
-33
-36
-28
-31
-31
-31
-35
-35
-32
-32
-37
-37
-31
-31
-35
-32
-30
-29
-27
-36
-32
-22
-21
-18
-10
-14
-16
-14
-8
-15
-26
-29
-20
-17
-27
-31
-30
-31
-36
-34
-26
-26
-29
-34
-34
-34
-35
-43
-43
-37
-36
-39
-41
-39
-35
-37
-37
-37
-38
-38
-38
-42
-42
-17
17
40
58
63
82
119
57
-94
-167
-155
-140
-121
-93
-60
-34
-29
-31
-28
-26
-24
-24
-24
-24
-24
-19
-25
-25
-18
-17
-21
-21
-20
-15
-16
-19
-15
-17
-20
-17
-11
-8
-11
-16
-14
-12
-14
-15
-11
-8
-7
-5
-4
-4
-3
0
-3
-5
-1
0
1
5
6
6
9
17
19
17
19
24
26
26
31
38
39
41
45
48
52
51
48
50
52
54
51
48
50
48
42
40
37
36
30
24
21
17
10
7
9
3
0
-2
-6
-6
-6
-15
-13
-10
-15
-18
-16
-13
-16
-19
-19
-15
-13
-13
-13
-17
-15
-15
-16
-12
-10
-10
-12
-12
-9
-10
-18
-14
-10
-13
-19
-18
-17
-18
-18
-19
-20
-24
-26
-24
-20
-18
-25
-26
-24
-25
-27
-29
-27
-24
-23
-30
-29
-28
-30
-29
-27
-27
-31
-34
-33
-30
-28
-28
-30
-29
-29
-31
-31
-27
-30
-32
-29
-26
-27
-29
-33
-30
-30
-33
-37
-33
-25
-28
-30
-29
-30
-32
-31
-28
-27
-27
-28
-28
-31
-38
-39
-23
-14
-20
-24
-28
-26
-25
-18
-17
-16
-8
-8
-14
-12
-10
-14
-20
-18
-16
-18
-19
-19
-21
-25
-25
-21
-18
-22
-25
-30
-36
-35
-25
-30
-34
-34
-35
-37
-37
-28
-22
-30
-35
-31
-28
-27
-31
-32
-11
25
62
92
106
105
141
153
5
-144
-165
-144
-138
-118
-91
-62
-37
-24
-28
-27
-22
-17
-13
-13
-16
-20
-19
-17
-16
-16
-15
-17
-19
-17
-11
-12
-13
-12
-7
-5
-4
-14
-19
-14
-7
-6
-9
-10
-9
-5
-1
-2
-4
-2
-2
-3
-2
1
4
4
1
3
8
13
15
15
17
20
18
22
33
36
34
35
39
41
41
46
50
50
50
52
51
57
57
54
57
54
49
43
42
45
42
38
36
31
20
15
13
14
11
6
3
3
2
0
-4
-5
-5
-7
-8
-7
-10
-11
-11
-15
-14
-7
-8
-10
-6
-2
-11
-16
-9
-7
-8
-7
-5
-5
-6
-12
-7
-5
-9
-8
-6
-10
-13
-18
-18
-16
-15
-18
-18
-16
-14
-21
-24
-18
-18
-19
-19
-20
-22
-24
-24
-22
-21
-24
-28
-27
-19
-21
-25
-26
-25
-25
-28
-28
-25
-24
-24
-24
-27
-25
-25
-26
-27
-28
-28
-26
-24
-23
-25
-27
-27
-23
-25
-28
-28
-27
-25
-27
-26
-23
-27
-30
-27
-25
-25
-27
-27
-26
-20
-18
-16
-16
-9
-8
-10
-7
-4
-5
-11
-16
-18
-17
-17
-16
-16
-25
-31
-26
-15
-15
-20
-23
-26
-27
-27
-33
-35
-30
-30
-35
-35
-29
-30
-34
-34
-32
-32
-33
-31
-28
-34
-31
-3
39
70
93
101
128
155
154
-98
-162
-143
-133
-119
-89
-56
-36
-29
-27
-20
-18
-23
-23
-17
-12
-16
-18
-14
-17
-17
-13
-10
-10
-10
-13
-10
-9
-12
-13
-9
-7
-8
-9
-6
-4
-5
-5
-5
-3
-3
-7
-7
0
2
0
2
4
2
1
3
6
11
16
18
16
18
21
21
25
33
38
36
36
44
46
48
50
53
57
59
60
64
68
68
63
64
65
60
59
61
54
48
40
38
38
39
35
35
29
21
14
9
7
5
0
-5
-6
-3
-4
-9
-10
-7
-6
-8
-7
-4
-6
-8
-8
-8
-9
-8
-5
-5
-6
-6
-6
-8
-6
-5
-5
-2
-3
-4
-10
-10
-9
-6
-6
-9
-10
-14
-14
-10
-13
-16
-16
-13
-14
-20
-21
-21
-22
-18
-19
-20
-16
-16
-18
-19
-16
-17
-24
-26
-20
-18
-18
-23
-26
-22
-20
-19
-19
-22
-23
-23
-21
-21
-24
-26
-23
-19
-19
-20
-24
-20
-19
-19
-24
-25
-21
-19
-19
-20
-23
-21
-22
-21
-20
-23
-23
-21
-20
-18
-21
-24
-23
-20
-19
-21
-19
-13
-10
-9
-8
-3
-4
-5
-2
-1
-6
-13
-14
-12
-13
-13
-15
-16
-17
-13
-12
-16
-18
-19
-21
-21
-26
-29
-29
-30
-29
-28
-29
-28
-28
-27
-27
-24
-26
-30
-30
-28
-18
6
49
79
108
118
118
154
80
-89
-165
-149
-134
-117
-92
-66
-44
-28
-21
-19
-19
-12
-13
-16
-14
-12
-11
-10
-12
-9
-7
-6
-10
-9
-7
-8
-9
-6
-2
-3
-6
-4
-2
-3
-5
-2
-2
-1
0
1
0
1
0
0
2
5
7
8
9
15
15
13
15
17
17
16
23
29
29
29
35
41
41
40
49
53
58
59
59
64
68
69
68
69
72
72
71
70
70
70
62
59
57
52
47
43
40
35
31
27
20
16
12
7
4
1
0
-4
-6
-6
-5
-8
-8
-8
-7
-7
-6
-7
-6
-8
-6
-6
-6
-6
-5
-7
-6
-5
-5
-4
-4
-3
-6
-3
0
-3
-7
-5
-4
-11
-14
-12
-10
-12
-12
-12
-14
-14
-15
-17
-17
-17
-21
-20
-17
-16
-17
-23
-21
-19
-18
-21
-21
-19
-20
-22
-21
-21
-19
-20
-24
-24
-23
-22
-24
-23
-25
-26
-25
-24
-24
-25
-25
-20
-21
-25
-28
-27
-21
-23
-24
-25
-19
-15
-11
-10
-10
-7
-6
-7
-7
-5
-8
-12
-14
-12
-10
-15
-17
-24
-24
-20
-18
-18
-22
-25
-26
-25
-29
-33
-31
-28
-29
-31
-31
-29
-31
-30
-32
-30
-31
-32
-31
-27
-28
-13
27
68
97
114
124
151
128
-31
-159
-162
-139
-128
-105
-78
-48
-27
-23
-25
-20
-18
-17
-12
-13
-13
-15
-15
-12
-9
-10
-12
-10
-4
-7
-10
-7
-7
-6
-6
-7
-4
-3
-6
-3
-1
0
-1
-2
1
4
3
3
6
5
3
4
9
10
8
9
14
14
15
18
23
24
27
29
30
37
41
41
43
49
51
55
60
66
68
70
72
73
72
74
72
73
78
74
70
70
66
61
55
48
46
43
41
32
30
24
16
15
12
5
1
-3
-8
-4
-4
-10
-9
-7
-10
-7
-5
-6
-5
-8
-12
-10
-6
-4
-6
-6
-2
-8
-9
-3
-1
-3
-5
-8
-7
-2
-6
-10
-8
-6
-12
-14
-9
-7
-10
-17
-19
-17
-16
-20
-18
-19
-18
-15
-19
-21
-17
-13
-22
-27
-27
-23
-19
-18
-24
-25
-24
-24
-25
-28
-26
-23
-24
-24
-25
-27
-24
-23
-25
-26
-21
-24
-22
-21
-18
-13
-10
-10
-6
0
-5
-8
-8
-9
-14
-15
-15
-16
-17
-18
-23
-25
-20
-16
-19
-21
-25
-30
-31
-30
-37
-32
-29
-36
-35
-36
-36
-32
-31
-34
-36
-34
-30
-31
-37
-31
-5
40
68
92
101
117
135
59
-106
-186
-173
-151
-125
-98
-67
-42
-27
-23
-26
-25
-18
-11
-12
-23
-18
-14
-18
-20
-12
-8
-15
-18
-14
-11
-9
-7
-10
-6
-8
-14
-15
-6
-2
-7
-10
-4
0
0
-6
-2
0
1
3
2
5
5
4
5
9
13
12
10
13
15
17
20
28
30
31
38
43
44
45
49
56
60
58
63
68
73
72
73
75
79
79
79
75
73
72
68
62
60
55
48
40
35
29
26
18
17
7
1
-1
-1
-2
-6
-11
-9
-7
-13
-16
-17
-14
-13
-17
-19
-12
-11
-16
-13
-10
-12
-13
-12
-13
-13
-12
-13
-11
-10
-13
-13
-13
-14
-17
-18
-17
-14
-14
-21
-22
-21
-20
-24
-25
-24
-25
-24
-25
-25
-26
-27
-26
-26
-27
-28
-28
-26
-29
-31
-31
-31
-31
-30
-30
-30
-30
-30
-31
-31
-31
-29
-29
-26
-22
-19
-19
-17
-12
-9
-12
-13
-13
-13
-16
-20
-23
-21
-24
-25
-27
-28
-28
-27
-25
-24
-28
-31
-35
-36
-41
-41
-42
-40
-37
-38
-40
-40
-37
-37
-38
-37
-37
-39
-39
-41
-32
0
36
65
91
97
101
118
-3
-146
-174
-148
-129
-106
-80
-55
-38
-28
-27
-30
-26
-21
-20
-19
-19
-21
-21
-20
-18
-15
-16
-18
-18
-16
-13
-13
-13
-15
-15
-13
-12
-11
-8
-7
-8
-6
-4
-7
-8
-7
-2
0
-2
-4
0
0
0
0
1
4
4
7
12
16
16
17
19
23
26
28
29
33
35
36
41
43
45
47
48
52
54
54
57
57
59
57
53
53
50
50
44
41
41
35
28
27
26
20
16
11
8
4
0
-2
-3
-3
-4
-7
-7
-6
-8
-10
-9
-7
-7
-7
-9
-9
-10
-9
-8
-6
-6
-8
-9
-10
-9
-8
-9
-8
-8
-9
-10
-10
-12
-15
-17
-17
-17
-17
-17
-20
-23
-23
-23
-23
-21
-23
-24
-25
-23
-23
-27
-29
-25
-26
-27
-26
-26
-25
-25
-26
-27
-25
-25
-27
-29
-27
-27
-28
-28
-27
-26
-26
-26
-28
-27
-26
-30
-30
-27
-26
-29
-29
-27
-26
-27
-26
-21
-17
-13
-10
-9
-10
-13
-13
-11
-14
-16
-17
-20
-24
-26
-25
-25
-27
-28
-26
-24
-24
-30
-34
-31
-34
-37
-38
-36
-35
-35
-36
-35
-36
-35
-37
-39
-34
-34
-37
-39
-38
-20
-12
39
58
59
68
96
51
-93
-175
-168
-142
-117
-84
-53
-30
-24
-28
-27
-25
-24
-25
-24
-21
-18
-17
-18
-21
-19
-17
-16
-17
-17
-14
-14
-15
-14
-11
-12
-14
-10
-11
-12
-11
-9
-8
-6
-8
-5
-1
0
-1
-4
-1
0
0
0
5
8
5
4
7
12
14
13
14
18
21
21
23
27
29
30
33
37
38
37
41
43
41
44
46
43
46
46
40
40
40
33
29
26
26
21
16
13
12
9
5
2
3
3
2
-2
-3
-6
-7
-7
-7
-9
-10
-10
-9
-8
-9
-12
-13
-9
-8
-12
-13
-8
-8
-8
-9
-10
-9
-8
-11
-13
-13
-12
-14
-13
-15
-19
-20
-18
-17
-17
-18
-19
-20
-21
-23
-20
-19
-25
-27
-26
-24
-25
-26
-27
-25
-25
-29
-29
-27
-26
-26
-26
-28
-26
-26
-29
-29
-25
-24
-28
-30
-28
-27
-31
-30
-27
-26
-27
-32
-29
-28
-29
-28
-28
-27
-27
-29
-30
-27
-26
-28
-29
-27
-27
-30
-31
-26
-25
-30
-32
-28
-29
-30
-30
-28
-27
-28
-30
-29
-27
-28
-29
-27
-26
-24
-28
-30
-26
-26
-27
-27
-26
-26
-27
-30
-27
-26
-26
-29
-28
-25
-29
-32
-29
-26
-27
-28
-29
-27
-27
-30
-25
-18
-15
-14
-13
-12
-13
-15
-13
-9
-11
-13
-15
-15
-15
-20
-25
-26
-26
-27
-25
-23
-21
-25
-32
-32
-30
-34
-36
-36
-34
-34
-34
-31
-30
-31
-32
-31
-30
-32
-34
-35
-24
5
34
58
62
58
80
90
-29
-151
-169
-150
-132
-99
-68
-42
-29
-26
-24
-23
-21
-20
-20
-19
-17
-16
-15
-15
-15
-14
-16
-17
-15
-13
-10
-10
-12
-9
-7
-11
-14
-10
-7
-7
-6
-6
-4
-2
-2
-4
-2
-1
-4
-5
-2
0
0
0
2
7
7
6
6
11
13
14
14
17
18
18
19
22
24
25
26
27
28
28
28
30
31
30
31
31
31
32
30
28
26
22
20
21
21
16
14
10
10
8
7
6
6
4
2
0
-2
-2
-2
-4
-6
-5
-4
-4
-5
-6
-6
-7
-5
-4
-5
-6
-7
-7
-7
-6
-7
-7
-6
-8
-9
-8
-7
-8
-10
-10
-13
-17
-17
-16
-13
-14
-18
-20
-18
-19
-20
-19
-20
-20
-20
-23
-22
-21
-23
-24
-23
-21
-23
-24
-23
-22
-23
-24
-25
-25
-24
-25
-24
-24
-25
-25
-24
-24
-27
-29
-26
-24
-26
-29
-28
-25
-24
-27
-30
-26
-26
-26
-26
-27
-25
-26
-25
-25
-25
-24
-24
-26
-26
-24
-25
-27
-27
-24
-23
-23
-22
-16
-14
-11
-8
-5
-6
-9
-10
-8
-9
-14
-16
-17
-17
-17
-23
-26
-26
-22
-21
-23
-24
-26
-27
-27
-30
-32
-31
-31
-32
-30
-32
-34
-30
-29
-32
-30
-27
-27
-27
-34
-25
4
31
51
63
57
79
99
-22
-154
-174
-152
-134
-104
-68
-44
-29
-20
-18
-19
-22
-20
-17
-17
-16
-16
-16
-14
-15
-14
-12
-10
-10
-13
-13
-10
-13
-10
-7
-7
-7
-6
-3
-1
-5
-5
-2
-4
-5
-2
0
-1
-1
0
0
0
0
1
3
3
6
6
8
9
13
13
16
19
19
19
23
28
28
28
29
34
35
32
34
38
38
37
36
39
40
37
36
32
31
26
24
24
24
18
14
14
13
11
10
8
8
6
4
2
2
0
-1
-2
-4
-7
-8
-8
-10
-8
-7
-8
-9
-6
-7
-7
-6
-6
-7
-7
-10
-10
-9
-9
-8
-8
-10
-15
-16
-16
-17
-16
-16
-16
-15
-18
-23
-21
-18
-18
-20
-23
-24
-21
-21
-23
-23
-25
-25
-24
-24
-23
-25
-27
-25
-24
-26
-26
-25
-24
-27
-29
-27
-24
-24
-27
-28
-26
-25
-25
-27
-27
-25
-27
-28
-26
-26
-27
-27
-29
-28
-26
-26
-26
-27
-27
-28
-28
-26
-26
-27
-27
-27
-27
-26
-26
-25
-28
-28
-27
-26
-25
-27
-28
-27
-25
-26
-28
-26
-25
-26
-26
-26
-25
-26
-27
-27
-25
-25
-25
-28
-25
-24
-25
-28
-27
-26
-26
-27
-25
-25
-26
-27
-26
-25
-27
-28
-28
-26
-25
-26
-26
-27
-25
-24
-16
-9
-6
-7
-8
-8
-8
-11
-13
-16
-17
-18
-23
-24
-22
-20
-21
-23
-25
-28
-30
-31
-32
-32
-31
-35
-33
-30
-30
-35
-32
-28
-28
-29
-29
-26
-27
-13
24
64
92
101
95
126
133
-10
-149
-162
-144
-141
-117
-82
-52
-34
-29
-23
-19
-20
-20
-20
-18
-16
-17
-16
-16
-14
-16
-17
-12
-11
-16
-17
-15
-15
-15
-12
-9
-8
-11
-10
-11
-10
-9
-9
-7
-6
-5
-5
-4
-3
-2
-4
-1
2
2
1
4
6
6
5
8
9
10
12
13
15
18
19
23
27
28
28
29
32
37
35
34
35
39
37
35
40
41
38
37
38
36
34
30
28
28
26
24
23
21
18
13
9
7
4
0
0
-1
-4
-5
-7
-8
-7
-7
-8
-12
-11
-9
-12
-13
-9
-8
-8
-9
-8
-7
-12
-13
-9
-9
-12
-12
-10
-9
-12
-14
-15
-18
-18
-17
-16
-17
-20
-20
-19
-19
-19
-20
-20
-23
-24
-23
-23
-24
-26
-26
-26
-26
-26
-27
-28
-27
-24
-27
-29
-28
-26
-27
-30
-28
-28
-29
-30
-30
-30
-29
-30
-30
-29
-28
-29
-29
-27
-28
-30
-29
-27
-31
-31
-30
-30
-29
-30
-30
-28
-27
-30
-30
-29
-28
-29
-30
-30
-30
-29
-29
-31
-31
-28
-28
-29
-29
-28
-28
-27
-29
-31
-28
-27
-32
-31
-28
-28
-29
-31
-29
-27
-27
-29
-28
-26
-26
-29
-31
-29
-30
-30
-28
-27
-28
-29
-28
-27
-27
-27
-27
-27
-28
-29
-29
-24
-20
-16
-13
-7
-6
-9
-12
-13
-13
-15
-18
-19
-21
-23
-26
-25
-24
-24
-27
-27
-28
-35
-37
-32
-35
-36
-35
-32
-34
-34
-32
-31
-32
-33
-31
-32
-32
-32
-30
21
54
76
76
82
122
99
-60
-167
-157
-140
-124
-94
-61
-38
-28
-27
-24
-19
-20
-19
-18
-16
-19
-20
-17
-16
-14
-14
-15
-16
-16
-14
-14
-11
-9
-10
-13
-13
-8
-9
-12
-9
-6
-6
-7
-3
-1
-2
-2
-4
-4
-1
0
0
2
3
0
0
4
6
5
10
15
15
15
14
15
18
23
26
28
29
29
30
31
34
34
34
37
38
36
36
36
36
33
32
30
28
26
20
18
17
17
14
9
7
8
5
4
1
0
0
-3
-5
-6
-5
-6
-7
-8
-7
-6
-9
-10
-10
-10
-12
-9
-7
-7
-8
-6
-5
-10
-12
-11
-9
-9
-10
-10
-9
-8
-11
-13
-13
-17
-19
-18
-15
-15
-20
-22
-19
-17
-18
-20
-21
-20
-22
-23
-23
-24
-25
-26
-24
-25
-27
-27
-27
-25
-24
-27
-27
-25
-23
-27
-30
-27
-24
-25
-30
-28
-26
-26
-27
-30
-27
-26
-27
-27
-27
-26
-27
-28
-28
-26
-26
-29
-29
-26
-26
-30
-31
-26
-27
-29
-29
-26
-27
-28
-27
-27
-26
-27
-28
-27
-26
-26
-28
-29
-27
-26
-29
-31
-27
-26
-28
-28
-28
-28
-29
-27
-27
-27
-27
-27
-26
-27
-26
-26
-27
-27
-27
-26
-27
-29
-28
-28
-27
-28
-28
-28
-28
-27
-28
-28
-29
-27
-26
-27
-26
-26
-28
-27
-24
-17
-13
-10
-7
-4
-5
-9
-12
-13
-13
-17
-24
-25
-24
-26
-30
-26
-23
-25
-26
-30
-32
-31
-33
-35
-33
-32
-35
-36
-31
-30
-35
-35
-30
-31
-34
-32
-33
-21
11
40
63
69
65
67
103
-18
-152
-169
-148
-132
-104
-72
-44
-29
-24
-24
-26
-23
-19
-19
-19
-19
-17
-17
-17
-15
-14
-16
-17
-17
-16
-13
-13
-10
-8
-9
-12
-11
-12
-13
-9
-8
-6
-5
-5
-4
-1
-1
-2
-2
-1
-1
0
1
3
4
6
7
7
8
13
14
14
15
17
17
18
21
27
29
26
29
36
38
37
39
42
40
39
42
43
42
42
41
40
39
36
31
30
29
24
20
17
15
13
12
9
6
4
2
0
0
-2
-3
-4
-4
-6
-9
-13
-10
-8
-11
-11
-9
-7
-8
-12
-12
-11
-13
-11
-9
-8
-8
-10
-9
-12
-16
-17
-13
-13
-13
-15
-15
-16
-18
-19
-19
-17
-20
-24
-25
-23
-22
-26
-25
-24
-25
-25
-26
-26
-27
-27
-26
-29
-30
-28
-29
-31
-29
-28
-28
-30
-31
-29
-27
-29
-34
-30
-30
-32
-34
-31
-31
-32
-30
-29
-29
-30
-31
-30
-27
-31
-34
-30
-29
-33
-31
-29
-33
-32
-31
-30
-30
-31
-32
-29
-29
-31
-32
-29
-28
-31
-32
-33
-32
-28
-29
-31
-33
-29
-30
-31
-31
-31
-30
-30
-30
-30
-30
-32
-32
-30
-29
-35
-32
-28
-29
-30
-32
-31
-29
-29
-30
-29
-29
-29
-30
-29
-27
-32
-33
-29
-29
-34
-30
-21
-15
-13
-12
-10
-10
-11
-13
-14
-15
-17
-20
-25
-26
-26
-28
-29
-28
-27
-29
-33
-36
-35
-34
-38
-38
-36
-38
-37
-35
-38
-36
-35
-34
-34
-35
-32
-31
-16
23
65
94
110
106
129
143
11
-145
-175
-153
-143
-123
-95
-64
-42
-29
-25
-24
-27
-22
-20
-22
-24
-21
-19
-19
-17
-16
-17
-17
-19
-16
-14
-15
-16
-15
-13
-14
-15
-13
-10
-11
-12
-12
-7
-7
-9
-10
-7
-5
-6
-4
-2
-1
-3
-1
2
2
3
5
7
8
8
10
13
15
15
15
19
23
26
26
28
31
35
37
36
35
39
40
38
39
42
38
38
40
38
36
35
32
28
24
23
20
20
18
13
10
8
4
1
0
-2
-4
-6
-7
-8
-9
-12
-10
-10
-11
-14
-17
-15
-12
-12
-13
-13
-11
-8
-12
-13
-10
-10
-10
-10
-9
-7
-14
-17
-15
-14
-14
-15
-15
-16
-18
-21
-18
-17
-19
-20
-21
-21
-21
-21
-20
-22
-25
-26
-25
-21
-25
-28
-27
-24
-24
-29
-30
-27
-25
-28
-29
-27
-27
-30
-31
-28
-26
-29
-32
-28
-27
-29
-31
-29
-27
-30
-32
-29
-27
-29
-32
-31
-29
-30
-30
-30
-29
-30
-32
-32
-29
-29
-30
-30
-28
-31
-32
-30
-30
-28
-30
-30
-29
-31
-31
-30
-28
-28
-30
-30
-29
-29
-30
-29
-29
-28
-30
-30
-28
-28
-28
-29
-28
-28
-30
-29
-27
-27
-28
-30
-27
-28
-28
-28
-28
-26
-28
-30
-28
-27
-27
-26
-28
-28
-26
-29
-29
-26
-18
-12
-9
-8
-8
-6
-6
-12
-13
-13
-16
-22
-24
-25
-24
-26
-27
-26
-25
-26
-31
-34
-31
-31
-36
-37
-35
-34
-35
-33
-31
-32
-35
-33
-30
-28
-31
-36
-22
8
40
48
72
73
94
115
8
-134
-172
-150
-131
-105
-72
-45
-29
-25
-24
-23
-20
-18
-18
-20
-19
-16
-15
-14
-15
-12
-10
-12
-15
-13
-10
-9
-11
-12
-10
-7
-6
-8
-6
-5
-7
-7
-4
-2
-2
-3
-1
1
2
2
1
3
5
4
6
8
8
8
8
14
16
16
16
21
24
26
26
28
30
33
34
38
43
41
40
43
45
46
46
46
46
46
42
41
42
38
34
32
29
25
18
15
15
14
11
9
7
5
2
1
0
0
-3
-5
-6
-5
-6
-10
-12
-8
-6
-8
-10
-9
-7
-8
-6
-4
-6
-8
-8
-7
-9
-11
-13
-9
-7
-7
-8
-10
-13
-15
-15
-15
-14
-14
-15
-17
-18
-18
-20
-20
-18
-17
-23
-25
-22
-20
-19
-20
-22
-24
-24
-24
-24
-23
-24
-25
-24
-20
-24
-28
-26
-23
-24
-27
-27
-24
-21
-25
-27
-25
-24
-27
-28
-26
-24
-27
-29
-28
-25
-24
-26
-27
-27
-25
-24
-27
-27
-25
-25
-26
-25
-24
-25
-26
-26
-26
-26
-26
-26
-27
-28
-27
-25
-24
-26
-26
-25
-21
-20
-24
-26
-24
-23
-27
-28
-24
-22
-26
-27
-25
-23
-23
-24
-23
-22
-24
-24
-24
-24
-25
-23
-21
-23
-24
-26
-25
-23
-24
-25
-26
-25
-21
-21
-19
-14
-7
-4
-3
-1
0
-5
-9
-12
-13
-18
-22
-22
-19
-19
-23
-24
-21
-21
-24
-28
-30
-28
-28
-30
-28
-27
-29
-30
-29
-28
-26
-27
-30
-28
-24
-28
-27
0
33
56
70
67
74
113
50
-103
-168
-152
-135
-112
-78
-46
-37
-21
-19
-17
-16
-15
-14
-13
-13
-13
-10
-9
-10
-10
-10
-9
-8
-8
-8
-7
-8
-8
-6
-4
-3
-3
-2
-2
-3
-3
0
0
-2
-4
-3
0
0
0
-1
0
1
3
4
5
6
7
10
15
18
18
17
17
22
25
26
28
31
34
36
38
38
40
40
41
46
47
46
47
48
47
44
42
41
40
37
35
28
26
23
20
16
15
13
9
7
6
6
3
1
0
-2
-6
-7
-6
-5
-8
-10
-7
-7
-9
-10
-8
-7
-8
-12
-12
-9
-8
-9
-9
-6
-5
-9
-13
-15
-14
-13
-13
-13
-9
-12
-15
-16
-16
-17
-17
-18
-18
-20
-23
-21
-19
-18
-21
-23
-23
-22
-23
-26
-26
-25
-27
-27
-27
-26
-27
-28
-27
-26
-27
-27
-29
-28
-27
-29
-31
-29
-27
-29
-30
-28
-28
-30
-30
-28
-28
-28
-28
-29
-28
-28
-31
-32
-30
-29
-30
-31
-30
-30
-32
-30
-29
-30
-30
-30
-29
-28
-30
-32
-29
-28
-32
-32
-30
-29
-31
-32
-31
-30
-30
-31
-31
-29
-28
-30
-30
-26
-29
-31
-29
-29
-31
-32
-31
-29
-29
-30
-29
-27
-29
-30
-28
-29
-32
-30
-29
-34
-32
-27
-25
-19
-14
-10
-9
-9
-8
-12
-16
-20
-24
-24
-26
-26
-27
-29
-28
-26
-29
-32
-34
-35
-37
-37
-36
-38
-40
-38
-38
-39
-38
-34
-34
-37
-35
-36
-36
-34
-22
11
52
79
94
90
113
136
128
-134
-170
-153
-145
-125
-92
-64
-45
-35
-30
-28
-27
-24
-21
-25
-26
-24
-22
-19
-19
-23
-20
-18
-20
-21
-20
-18
-18
-18
-17
-16
-17
-18
-17
-13
-13
-13
-14
-16
-14
-13
-12
-9
-6
-7
-10
-7
-5
-4
-4
-5
-2
-1
-2
0
0
0
2
5
8
12
13
17
20
21
19
20
25
29
29
27
28
35
33
31
31
32
31
29
27
26
23
20
19
18
14
9
9
8
4
1
0
0
-1
-4
-6
-8
-10
-12
-13
-15
-13
-15
-20
-21
-18
-17
-18
-17
-16
-20
-21
-18
-16
-15
-15
-17
-19
-19
-17
-18
-15
-14
-19
-21
-20
-18
-23
-25
-21
-20
-21
-22
-26
-28
-27
-26
-28
-26
-26
-28
-27
-27
-31
-31
-32
-33
-30
-30
-31
-31
-31
-30
-34
-37
-33
-34
-37
-36
-32
-33
-36
-36
-34
-35
-36
-35
-32
-33
-35
-34
-36
-37
-35
-36
-37
-35
-34
-36
-36
-34
-35
-37
-36
-34
-34
-36
-35
-34
-35
-35
-37
-39
-36
-36
-38
-36
-34
-36
-37
-34
-33
-35
-36
-37
-37
-35
-30
-31
-36
-37
-42
-43
-34
-28
-35
-35
-31
-32
-38
-39
-31
-29
-34
-36
-36
-40
-39
-32
-30
-39
-47
-33
-24
-27
-30
-31
-31
-30
-31
-35
-34
-34
-39
-38
-28
-20
-20
-19
-18
-15
-9
-6
-12
-14
-18
-26
-28
-27
-28
-30
-31
-29
-28
-25
-24
-24
-30
-41
-45
-41
-34
-34
-39
-41
-33
-31
-35
-37
-37
-36
-40
-34
-31
-23
-3
24
48
65
63
69
98
42
-106
-169
-153
-139
-117
-80
-69
-36
-25
-22
-28
-28
-19
-12
-17
-19
-24
-26
-19
-8
-3
-14
-25
-23
-15
-8
-7
-10
-13
-10
-5
-4
-21
-14
-8
-7
-6
-6
-7
-8
-8
-6
1
3
-2
-2
0
0
1
8
9
4
4
6
5
5
4
11
26
28
20
16
16
24
34
36
37
36
40
42
39
38
46
50
44
40
38
35
29
31
38
39
33
26
20
17
17
13
5
5
9
8
-2
-4
-1
-1
0
-2
-12
-11
1
0
-6
-9
-14
-18
-18
-7
-5
-8
-12
-12
-7
-6
-11
-13
-11
-14
-12
-5
-3
-6
-7
-8
-9
-8
-16
-18
-15
-6
-5
-8
-20
-18
-15
-13
-15
-16
-19
-21
-20
-17
-22
-23
-21
-20
-22
-24
-23
-21
-20
-27
-29
-27
-21
-19
-21
-29
-24
-23
-28
-31
-28
-15
-10
-24
-30
-25
-21
-21
-25
-29
-26
-27
-22
-24
-27
-26
-24
-28
-30
-31
-29
-24
-21
-24
-25
-29
-31
-26
-21
-23
-25
-19
-21
-28
-27
-27
-28
-27
-26
-26
-29
-31
-26
-24
-24
-23
-25
-26
-24
-28
-29
-27
-25
-27
-26
-19
-21
-25
-23
-26
-28
-26
-25
-27
-29
-27
-22
-21
-32
-36
-24
-9
-10
-24
-26
-19
-14
-8
-4
-1
-2
-7
-12
-13
-14
-20
-20
-23
-26
-26
-26
-21
-21
-28
-30
-36
-30
-17
-22
-32
-32
-35
-32
-28
-26
-31
-32
-29
-27
-28
-30
-29
-26
-12
18
42
59
59
53
54
70
-65
-168
-171
-144
-115
-84
-56
-33
-22
-19
-25
-23
-19
-19
-16
-15
-14
-13
-16
-15
-14
-12
-9
-9
-7
-6
-12
-10
-8
-7
-8
-8
-5
-2
-3
-5
-3
-9
-14
-3
3
3
3
-3
-10
-3
8
9
7
0
8
14
10
5
12
19
17
18
22
20
21
20
24
31
36
42
46
36
36
47
51
50
48
46
58
58
56
52
49
47
46
44
40
37
29
22
32
37
23
12
15
16
8
7
13
11
6
-1
-4
-6
4
0
-7
-4
-1
-10
-14
-5
-3
-5
-3
0
-4
-10
-9
-6
-6
-5
-1
0
-5
-6
-6
-7
-8
-5
-9
-12
-13
-9
0
1
-15
-17
-14
-13
-14
-17
-17
-15
-18
-22
-23
-18
-17
-20
-21
-18
-16
-8
-15
-24
-27
-20
-18
-18
-17
-19
-23
-24
-24
-21
-21
-26
-30
-25
-13
-13
-24
-24
-20
-24
-24
-24
-17
-19
-25
-27
-23
-18
-18
-25
-27
-17
-14
-21
-26
-23
-21
-24
-26
-28
-20
-13
-19
-20
-16
-23
-27
-19
-20
-25
-23
-19
-22
-23
-23
-24
-19
-18
-20
-20
-21
-21
-24
-22
-18
-26
-33
-24
-14
-17
-21
-20
-15
-17
-24
-25
-23
-20
-21
-22
-19
-19
-22
-23
-22
-19
-15
-13
-8
-3
0
-1
0
-2
-7
-12
-14
-16
-13
-15
-18
-17
-14
-16
-20
-23
-24
-26
-25
-26
-26
-26
-28
-29
-28
-27
-29
-26
-24
-26
-30
-31
-21
-25
-17
9
40
60
79
70
77
105
28
-119
-163
-148
-137
-117
-80
-47
-28
-22
-21
-17
-13
-16
-17
-11
-11
-15
-15
-12
-10
-9
-9
-8
-9
-10
-9
-7
-6
-7
-6
-6
-3
-1
-3
-6
-3
0
0
-1
-2
0
-2
-1
3
5
0
-3
3
9
7
6
7
8
12
15
17
17
19
21
21
26
28
28
28
32
36
39
37
39
41
40
42
43
43
45
46
47
43
41
37
37
38
31
27
24
23
21
18
17
14
14
12
9
7
7
5
3
1
0
-4
-8
-7
-6
-9
-9
-6
-6
-7
-7
-7
-6
-3
-4
-5
-6
-5
-6
-7
-8
-6
-6
-8
-7
-5
-5
-10
-10
-6
-10
-15
-15
-13
-13
-15
-13
-10
-16
-23
-24
-15
-14
-17
-19
-20
-19
-20
-21
-20
-17
-23
-26
-22
-21
-24
-26
-26
-25
-24
-26
-27
-24
-24
-26
-25
-24
-25
-24
-24
-28
-27
-25
-26
-27
-26
-26
-26
-26
-26
-26
-27
-27
-27
-26
-27
-26
-24
-28
-29
-28
-26
-26
-27
-27
-26
-27
-29
-29
-28
-26
-27
-29
-29
-24
-25
-32
-28
-21
-24
-29
-28
-22
-24
-27
-28
-26
-24
-28
-30
-26
-24
-27
-29
-28
-25
-24
-25
-25
-26
-27
-26
-27
-27
-25
-25
-27
-26
-27
-23
-21
-11
-8
-8
-7
-6
-5
-9
-11
-11
-15
-20
-24
-26
-21
-19
-23
-24
-24
-24
-26
-32
-33
-30
-30
-31
-34
-31
-30
-31
-31
-29
-29
-31
-32
-28
-30
-34
-19
13
39
59
63
60
87
93
-34
-155
-167
-145
-140
-98
-63
-38
-28
-25
-22
-20
-20
-19
-16
-16
-18
-15
-14
-16
-16
-13
-13
-15
-14
-12
-10
-9
-11
-12
-12
-10
-12
-10
-6
-7
-8
-5
-4
-4
-8
-9
-5
-2
-3
-3
-1
0
-1
-1
1
4
6
6
5
9
14
15
19
21
22
20
22
28
34
35
32
36
42
41
40
41
45
47
47
46
48
49
44
42
43
40
37
31
29
26
18
17
18
15
13
9
7
5
2
-1
-2
-3
-3
-6
-9
-13
-14
-14
-13
-13
-11
-12
-13
-10
-10
-15
-18
-14
-10
-12
-12
-9
-9
-13
-15
-14
-14
-13
-13
-13
-16
-17
-16
-17
-16
-15
-16
-18
-21
-24
-21
-21
-20
-22
-25
-26
-24
-26
-28
-28
-26
-26
-25
-27
-27
-25
-24
-28
-30
-28
-26
-30
-31
-28
-26
-29
-31
-28
-27
-31
-35
-31
-30
-30
-31
-30
-30
-28
-30
-30
-27
-27
-30
-31
-26
-30
-32
-30
-27
-28
-30
-30
-30
-30
-32
-30
-30
-31
-30
-30
-30
-28
-28
-29
-27
-28
-30
-29
-28
-30
-31
-30
-30
-30
-29
-30
-30
-30
-30
-29
-29
-30
-27
-28
-28
-24
-21
-20
-15
-12
-12
-12
-14
-15
-14
-13
-15
-16
-17
-20
-23
-25
-26
-25
-25
-24
-22
-21
-27
-34
-34
-32
-34
-35
-35
-33
-34
-36
-36
-31
-33
-35
-33
-34
-33
-31
-28
-27
-3
40
75
102
109
111
147
112
-56
-165
-160
-144
-134
-112
-82
-73
-33
-30
-26
-24
-21
-19
-19
-19
-17
-15
-16
-18
-17
-15
-15
-14
-11
-9
-14
-16
-15
-11
-10
-10
-10
-8
-8
-7
-8
-7
-5
-7
-8
-7
-3
-3
-4
-1
0
0
0
1
3
4
4
6
8
9
8
9
17
22
24
25
26
28
32
36
37
42
46
45
47
50
50
51
53
53
56
52
52
52
48
45
43
40
40
34
29
28
27
24
18
16
11
6
3
2
0
-4
-9
-9
-7
-8
-11
-9
-11
-15
-17
-17
-13
-12
-14
-13
-10
-10
-13
-13
-11
-9
-10
-12
-9
-8
-11
-15
-12
-10
-13
-15
-15
-13
-15
-17
-18
-18
-17
-19
-19
-19
-19
-21
-24
-22
-22
-26
-28
-25
-24
-24
-25
-27
-26
-25
-29
-31
-28
-26
-27
-27
-30
-27
-27
-33
-31
-28
-31
-32
-30
-27
-27
-28
-30
-28
-28
-34
-32
-29
-28
-30
-30
-28
-27
-32
-34
-28
-29
-32
-31
-28
-29
-32
-33
-31
-29
-29
-30
-27
-26
-29
-32
-30
-30
-31
-31
-30
-28
-28
-30
-30
-27
-31
-32
-31
-31
-30
-29
-29
-27
-27
-29
-29
-29
-31
-30
-31
-30
-28
-27
-28
-28
-29
-30
-29
-28
-30
-29
-28
-28
-30
-29
-29
-28
-25
-19
-17
-13
-8
-6
-7
-10
-11
-14
-17
-18
-15
-17
-20
-25
-26
-26
-26
-28
-28
-26
-26
-27
-32
-35
-34
-36
-37
-34
-31
-34
-36
-34
-34
-35
-35
-31
-30
-32
-34
-32
13
46
69
80
85
114
119
-20
-155
-164
-143
-127
-100
-68
-44
-29
-25
-22
-22
-24
-21
-17
-16
-18
-19
-18
-16
-16
-14
-13
-16
-15
-14
-13
-12
-12
-13
-8
-6
-11
-13
-8
-6
-8
-8
-6
-4
-3
-3
-3
0
0
-1
1
4
3
0
2
7
10
9
8
12
14
15
16
20
26
29
28
27
30
35
37
37
43
46
43
45
48
48
46
49
49
48
49
47
46
42
38
32
30
28
20
18
18
14
12
7
6
7
6
1
-1
-2
-2
-6
-8
-7
-5
-9
-14
-14
-10
-10
-12
-9
-8
-9
-10
-9
-8
-9
-9
-10
-8
-7
-8
-9
-6
-4
-10
-15
-13
-9
-12
-13
-11
-10
-14
-17
-17
-16
-18
-19
-17
-16
-17
-23
-25
-19
-20
-24
-22
-21
-22
-21
-25
-26
-26
-25
-26
-25
-24
-26
-26
-25
-25
-27
-27
-25
-26
-27
-27
-27
-24
-24
-29
-29
-25
-27
-29
-28
-26
-24
-27
-30
-25
-25
-29
-29
-26
-26
-24
-27
-28
-25
-25
-28
-29
-26
-25
-27
-28
-26
-26
-26
-27
-27
-25
-25
-29
-29
-26
-26
-27
-25
-25
-26
-25
-27
-29
-26
-27
-27
-25
-24
-26
-25
-24
-26
-26
-25
-26
-28
-26
-26
-26
-24
-24
-26
-24
-21
-25
-28
-28
-25
-24
-24
-23
-6
-4
-4
-4
-4
-7
-10
-14
-17
-19
-23
-24
-21
-18
-21
-25
-25
-24
-27
-33
-32
-30
-31
-30
-31
-28
-27
-32
-31
-28
-29
-30
-29
-26
-27
-31
-18
14
41
60
60
63
94
85
-47
-157
-160
-139
-120
-112
-55
-32
-25
-21
-17
-16
-18
-17
-14
-12
-14
-15
-14
-13
-13
-13
-11
-9
-8
-9
-10
-9
-7
-8
-9
-5
-5
-6
-5
-3
-2
-1
-2
-2
0
0
0
0
1
1
2
5
7
8
7
8
12
13
12
12
17
18
21
25
28
28
26
29
36
39
39
40
45
48
50
49
50
52
52
51
50
49
51
48
46
45
38
32
35
30
25
20
16
14
15
11
8
6
4
1
0
-1
-2
-3
-4
-5
-6
-9
-13
-13
-8
-8
-10
-9
-6
-6
-9
-9
-8
-6
-7
-9
-10
-9
-8
-9
-8
-8
-8
-9
-9
-11
-14
-15
-15
-13
-14
-16
-17
-16
-17
-19
-19
-18
-18
-23
-24
-20
-19
-22
-24
-24
-22
-20
-22
-26
-27
-25
-24
-25
-28
-28
-26
-28
-29
-28
-27
-27
-27
-26
-27
-28
-26
-25
-27
-27
-27
-26
-27
-28
-28
-27
-27
-28
-28
-25
-24
-28
-28
-23
-25
-30
-28
-26
-26
-29
-30
-26
-26
-28
-29
-28
-26
-27
-29
-27
-25
-26
-30
-30
-24
-26
-31
-28
-25
-28
-32
-30
-27
-27
-29
-30
-26
-25
-28
-29
-27
-25
-27
-29
-28
-24
-27
-33
-34
-23
-20
-18
-14
-8
-6
-6
-7
-8
-10
-15
-19
-21
-21
-23
-24
-23
-23
-25
-26
-28
-28
-32
-35
-35
-31
-34
-35
-32
-32
-34
-34
-35
-33
-30
-30
-32
-32
-28
-22
6
50
83
104
101
118
153
66
-108
-152
-149
-140
-125
-95
-62
-41
-30
-28
-25
-20
-19
-18
-18
-19
-18
-17
-19
-17
-15
-15
-15
-13
-13
-13
-12
-12
-12
-12
-11
-10
-10
-10
-9
-8
-8
-8
-6
-4
-3
-4
-7
-5
-3
-3
-2
1
2
2
1
2
5
7
6
9
14
17
19
22
24
25
26
31
38
39
40
45
46
49
50
49
52
54
56
58
58
56
55
52
52
49
48
42
39
38
33
27
26
26
21
16
13
9
7
3
0
-1
-3
-5
-7
-8
-6
-7
-12
-14
-14
-13
-13
-13
-11
-9
-9
-10
-10
-9
-9
-8
-8
-7
-7
-8
-8
-6
-6
-9
-10
-12
-13
-14
-14
-13
-13
-15
-16
-16
-19
-19
-17
-17
-20
-24
-24
-21
-19
-22
-25
-26
-24
-24
-24
-24
-25
-25
-24
-24
-26
-26
-25
-26
-26
-26
-26
-29
-29
-27
-27
-30
-29
-27
-27
-28
-27
-26
-27
-27
-27
-28
-28
-28
-28
-30
-29
-28
-28
-29
-30
-29
-28
-29
-29
-29
-27
-27
-26
-28
-28
-25
-28
-30
-27
-26
-27
-29
-29
-27
-26
-28
-29
-27
-27
-26
-27
-28
-25
-24
-27
-28
-26
-24
-27
-29
-26
-25
-29
-30
-29
-27
-29
-30
-27
-26
-29
-30
-28
-27
-27
-28
-28
-25
-24
-27
-30
-27
-20
-16
-11
-7
-5
-4
-5
-6
-8
-11
-14
-18
-21
-24
-24
-22
-20
-21
-25
-26
-25
-26
-33
-35
-34
-33
-35
-35
-35
-32
-32
-32
-32
-32
-31
-32
-35
-32
-31
-23
11
48
71
86
90
117
137
20
-135
-161
-141
-129
-107
-73
-46
-29
-26
-25
-21
-18
-18
-18
-19
-19
-17
-15
-14
-13
-14
-17
-17
-13
-13
-13
-10
-8
-11
-13
-13
-9
-7
-8
-8
-5
-5
-5
-4
-2
-1
0
0
0
0
0
0
3
5
5
4
6
7
8
12
13
16
18
20
21
28
28
28
33
37
37
38
39
42
45
45
49
50
50
50
49
50
52
48
44
42
40
38
33
30
26
24
23
18
15
10
5
3
2
2
-1
-3
-4
-6
-8
-9
-9
-8
-8
-8
-7
-7
-10
-13
-14
-12
-10
-10
-9
-6
-6
-7
-7
-7
-8
-9
-9
-6
-5
-8
-9
-8
-7
-8
-9
-12
-11
-14
-16
-15
-14
-15
-16
-15
-15
-18
-20
-19
-18
-19
-23
-23
-21
-21
-24
-25
-22
-20
-21
-23
-24
-25
-25
-24
-23
-25
-26
-25
-24
-23
-25
-27
-25
-22
-21
-24
-26
-22
-21
-25
-28
-26
-24
-26
-28
-26
-24
-25
-26
-26
-25
-25
-26
-28
-27
-26
-26
-28
-28
-26
-26
-24
-24
-26
-27
-24
-21
-25
-28
-25
-24
-24
-25
-26
-26
-23
-22
-26
-26
-23
-22
-26
-26
-25
-24
-26
-26
-25
-24
-25
-25
-24
-24
-24
-25
-27
-26
-25
-26
-27
-26
-24
-25
-24
-23
-26
-28
-25
-24
-26
-24
-16
-7
-2
-2
-3
-3
-5
-10
-14
-17
-20
-23
-22
-21
-17
-18
-21
-23
-23
-25
-30
-30
-30
-28
-29
-31
-28
-27
-30
-31
-28
-26
-27
-29
-27
-26
-31
-25
-19
34
55
63
61
76
103
26
-119
-169
-146
-131
-105
-68
-40
-27
-21
-19
-17
-17
-18
-17
-13
-13
-15
-16
-13
-14
-15
-13
-10
-10
-8
-7
-8
-10
-10
-9
-8
-7
-6
-6
-4
-3
-1
-2
-2
-2
-1
0
0
1
2
3
4
3
2
4
7
11
13
13
12
15
17
18
20
25
27
28
29
34
38
39
40
41
46
47
49
50
52
52
49
53
54
52
50
47
46
45
37
32
32
27
20
16
15
15
12
8
7
5
2
0
-1
-1
-2
-4
-5
-6
-8
-12
-12
-10
-9
-9
-7
-7
-8
-12
-13
-10
-11
-13
-11
-9
-8
-9
-10
-10
-9
-13
-15
-13
-13
-13
-13
-13
-14
-17
-19
-19
-18
-17
-19
-19
-19
-20
-20
-19
-20
-25
-25
-25
-22
-20
-22
-26
-26
-25
-27
-29
-27
-26
-26
-27
-28
-25
-23
-28
-30
-28
-26
-27
-28
-29
-26
-26
-30
-30
-26
-28
-32
-28
-26
-26
-27
-30
-27
-24
-30
-32
-28
-27
-30
-30
-28
-26
-26
-30
-31
-26
-27
-29
-29
-28
-28
-29
-30
-28
-28
-33
-31
-26
-26
-27
-27
-27
-26
-27
-29
-30
-27
-30
-32
-31
-26
-25
-26
-28
-26
-25
-29
-30
-28
-27
-28
-29
-28
-26
-27
-30
-30
-27
-24
-24
-17
-9
-7
-5
-4
-6
-6
-10
-15
-19
-22
-24
-23
-23
-24
-25
-25
-25
-28
-31
-34
-32
-33
-38
-36
-31
-30
-34
-32
-30
-32
-33
-32
-30
-28
-29
-30
-18
15
56
83
102
101
122
146
38
-123
-167
-147
-138
-119
-89
-60
-38
-31
-26
-25
-22
-19
-17
-17
-18
-18
-14
-13
-14
-14
-14
-16
-17
-13
-11
-9
-10
-13
-15
-14
-10
-9
-8
-7
-7
-8
-7
-5
-5
-9
-8
-5
-2
-3
-3
-1
0
0
2
2
4
4
5
8
13
15
16
17
23
24
24
29
34
36
36
40
45
45
49
52
52
53
52
57
59
59
56
54
54
53
49
45
43
40
36
31
30
28
23
18
14
10
6
2
0
0
-1
-5
-8
-9
-10
-12
-11
-10
-9
-10
-14
-15
-13
-13
-12
-10
-8
-8
-10
-10
-8
-7
-8
-12
-9
-8
-9
-10
-9
-8
-10
-13
-13
-13
-15
-15
-15
-13
-14
-18
-20
-18
-19
-20
-19
-19
-22
-24
-23
-23
-25
-25
-25
-25
-25
-26
-27
-26
-25
-30
-30
-28
-26
-28
-29
-27
-24
-24
-29
-29
-27
-25
-27
-28
-27
-25
-26
-28
-28
-27
-30
-32
-28
-27
-28
-29
-29
-27
-26
-30
-31
-26
-26
-29
-29
-27
-25
-25
-27
-28
-25
-27
-28
-26
-26
-27
-27
-27
-26
-25
-27
-29
-28
-26
-26
-27
-25
-25
-24
-23
-25
-27
-27
-25
-24
-25
-25
-24
-23
-22
-26
-27
-25
-25
-28
-27
-26
-25
-26
-26
-25
-23
-22
-26
-28
-25
-22
-25
-27
-24
-20
-15
-8
-4
-2
-1
-2
-5
-7
-9
-11
-13
-17
-19
-21
-21
-20
-20
-21
-22
-21
-24
-29
-29
-27
-29
-31
-30
-28
-27
-29
-29
-27
-28
-29
-29
-29
-26
-29
-7
34
64
88
93
102
140
102
-56
-157
-148
-131
-119
-92
-59
-32
-23
-21
-18
-16
-16
-16
-15
-12
-13
-16
-11
-8
-9
-10
-9
-8
-12
-13
-10
-7
-6
-7
-6
-6
-5
-4
-2
0
-1
-4
-4
-3
0
-2
-4
-1
2
3
4
4
4
5
6
10
13
14
14
15
17
18
19
22
26
29
30
32
34
39
39
42
45
47
46
50
51
53
55
52
52
54
53
51
48
47
44
39
35
34
29
25
23
24
19
15
10
10
8
5
2
2
1
0
-1
-4
-5
-7
-8
-7
-6
-5
-4
-5
-6
-6
-8
-7
-6
-5
-6
-8
-6
-4
-4
-6
-5
-4
-3
-5
-6
-5
-4
-6
-9
-10
-12
-14
-13
-12
-13
-14
-14
-13
-15
-16
-17
-16
-17
-18
-19
-19
-19
-19
-20
-21
-21
-21
-21
-24
-24
-23
-24
-22
-19
-20
-25
-26
-25
-19
-22
-24
-24
-21
-20
-21
-23
-24
-23
-23
-24
-22
-23
-24
-24
-23
-24
-26
-25
-24
-26
-28
-26
-25
-21
-22
-26
-26
-21
-22
-25
-25
-24
-24
-25
-24
-23
-24
-24
-25
-26
-26
-24
-24
-25
-25
-25
-24
-23
-19
-24
-27
-22
-19
-22
-25
-24
-22
-21
-21
-21
-21
-21
-23
-24
-24
-24
-23
-23
-23
-25
-26
-23
-21
-14
-9
-4
-2
0
0
-2
-4
-6
-10
-14
-16
-16
-18
-22
-24
-21
-19
-24
-26
-26
-26
-29
-31
-32
-33
-30
-32
-31
-29
-27
-28
-30
-29
-27
-28
-28
-30
-18
12
40
60
68
64
85
103
-7
-143
-166
-160
-125
-97
-65
-37
-21
-19
-20
-17
-15
-15
-15
-12
-10
-12
-13
-10
-10
-10
-10
-9
-7
-7
-8
-8
-9
-8
-7
-6
-5
-3
-4
-4
-3
-1
0
0
0
0
0
0
2
2
3
3
4
6
8
7
7
7
10
12
14
17
20
21
24
26
28
30
30
35
38
40
40
42
46
48
47
51
52
51
52
50
50
50
48
43
40
37
32
28
24
22
18
11
9
12
10
6
4
3
2
0
-2
-3
-6
-10
-10
-10
-9
-9
-12
-11
-8
-7
-10
-10
-10
-9
-9
-10
-9
-7
-8
-10
-10
-10
-10
-12
-13
-13
-14
-14
-13
-14
-18
-19
-18
-16
-16
-18
-17
-18
-21
-22
-19
-18
-21
-25
-25
-23
-21
-24
-24
-24
-25
-25
-25
-26
-26
-25
-27
-29
-28
-27
-29
-31
-28
-26
-27
-28
-27
-28
-26
-26
-28
-29
-28
-27
-29
-29
-29
-30
-31
-28
-29
-30
-31
-29
-27
-27
-29
-30
-28
-28
-30
-30
-28
-30
-29
-28
-29
-30
-30
-28
-28
-29
-31
-32
-29
-27
-31
-31
-27
-28
-30
-30
-29
-28
-29
-30
-28
-28
-29
-31
-30
-28
-30
-32
-28
-30
-34
-33
-31
-27
-30
-31
-30
-27
-27
-29
-29
-27
-29
-31
-29
-24
-21
-18
-13
-8
-6
-6
-6
-8
-12
-17
-23
-26
-24
-25
-28
-27
-24
-27
-32
-32
-31
-34
-36
-37
-36
-35
-38
-36
-35
-36
-36
-36
-35
-34
-32
-31
-32
-32
-9
27
56
80
79
83
123
92
-73
-172
-161
-144
-130
-100
-65
-42
-29
-25
-24
-25
-22
-19
-20
-21
-21
-20
-18
-17
-17
-20
-21
-17
-15
-15
-16
-13
-13
-15
-16
-13
-10
-9
-9
-12
-13
-11
-10
-8
-7
-7
-6
-5
-3
-2
-3
-2
-1
0
2
0
2
5
6
7
9
12
13
14
14
18
20
23
27
28
30
30
33
37
38
40
40
39
41
43
41
41
42
39
37
34
30
27
25
24
25
21
15
11
10
9
5
3
2
0
-1
-4
-5
-5
-8
-10
-8
-8
-10
-14
-14
-13
-13
-14
-11
-9
-11
-15
-15
-14
-10
-10
-10
-9
-7
-6
-9
-12
-13
-15
-16
-15
-13
-13
-14
-17
-18
-19
-19
-18
-18
-22
-25
-24
-23
-21
-24
-26
-25
-23
-23
-25
-26
-26
-24
-25
-28
-29
-27
-27
-30
-28
-27
-28
-28
-28
-28
-28
-27
-27
-29
-29
-27
-29
-31
-29
-28
-29
-30
-28
-29
-28
-27
-28
-28
-28
-29
-30
-30
-29
-31
-31
-29
-29
-30
-29
-28
-29
-28
-28
-28
-28
-28
-29
-29
-28
-29
-30
-30
-29
-30
-30
-29
-28
-28
-28
-28
-29
-28
-28
-30
-29
-29
-30
-30
-29
-29
-30
-30
-28
-28
-28
-27
-27
-28
-28
-28
-28
-28
-28
-30
-30
-28
-26
-25
-14
-10
-8
-7
-6
-8
-13
-13
-14
-20
-25
-25
-25
-25
-26
-26
-24
-25
-28
-31
-34
-34
-36
-35
-34
-32
-34
-35
-31
-31
-36
-34
-34
-34
-31
-33
-32
-9
22
45
63
62
66
97
52
-95
-169
-158
-140
-135
-85
-54
-35
-29
-26
-24
-23
-20
-18
-19
-23
-20
-17
-17
-18
-17
-17
-17
-16
-15
-13
-13
-16
-17
-17
-12
-11
-10
-7
-8
-11
-12
-7
-6
-6
-8
-8
-5
-3
-4
-2
0
0
0
0
3
3
3
6
7
9
9
10
13
16
18
23
26
27
28
30
35
37
36
36
40
41
42
45
43
41
42
41
39
39
38
31
28
28
25
19
15
12
10
7
6
4
4
1
0
-2
-2
-3
-8
-9
-9
-10
-10
-13
-14
-17
-16
-15
-14
-12
-10
-10
-13
-14
-15
-15
-13
-12
-12
-12
-10
-12
-14
-16
-16
-15
-14
-16
-17
-17
-19
-20
-20
-19
-20
-22
-24
-24
-22
-21
-24
-26
-24
-23
-27
-29
-27
-26
-30
-32
-28
-27
-30
-29
-29
-28
-28
-28
-29
-28
-28
-31
-31
-29
-28
-30
-30
-29
-27
-30
-32
-28
-27
-35
-33
-29
-31
-35
-33
-31
-30
-31
-31
-29
-28
-30
-31
-30
-29
-32
-32
-30
-29
-29
-31
-28
-28
-31
-30
-28
-30
-32
-31
-31
-32
-32
-31
-31
-32
-29
-29
-32
-32
-31
-30
-33
-32
-30
-30
-32
-30
-29
-29
-29
-29
-29
-27
-30
-32
-31
-27
-33
-34
-30
-30
-31
-26
-17
-13
-10
-10
-10
-11
-14
-16
-18
-19
-22
-26
-28
-27
-26
-27
-27
-28
-28
-33
-36
-36
-35
-37
-38
-36
-36
-38
-38
-37
-35
-35
-34
-35
-34
-32
-33
-17
19
50
72
75
72
110
101
-50
-167
-168
-150
-135
-106
-71
-49
-33
-27
-27
-28
-25
-21
-20
-19
-24
-22
-18
-18
-20
-20
-19
-18
-17
-17
-16
-16
-18
-17
-14
-13
-13
-14
-16
-14
-10
-13
-10
-8
-7
-10
-7
-5
-6
-8
-8
-7
-3
-3
-3
-1
0
1
1
3
5
6
8
14
18
21
22
24
24
25
29
31
35
36
35
37
39
42
41
42
42
43
41
39
40
37
31
27
27
26
20
16
14
10
6
4
4
4
2
0
-3
-4
-10
-13
-13
-12
-13
-13
-14
