-25
-29
-30
-30
-30
-31
-29
-22
-22
-23
-25
-26
-23
-21
-20
-24
-25
-22
-18
-17
-17
-19
-19
-20
-20
-20
-20
-20
-20
-22
-22
-20
-20
-21
-23
-24
-25
-21
-20
-23
-26
-27
-26
-26
-26
-24
-24
-25
-23
-21
-22
-24
-25
-23
-27
-31
-31
-25
-22
-23
-25
-24
-26
-26
-24
-23
-24
-27
-25
-24
-24
-24
-21
-17
-11
-8
-1
-1
-3
-6
-5
-1
0
-1
-5
-6
-6
-5
-6
-7
-11
-10
-10
-12
-15
-21
-29
-35
-35
-31
-29
-31
-30
-30
-30
-32
-36
-36
-34
-33
-35
-36
-34
-28
-13
4
27
65
122
178
218
269
371
461
435
418
323
271
182
65
-42
-83
-71
-55
-52
-51
-51
-48
-49
-51
-52
-54
-51
-55
-53
-51
-51
-51
-51
-50
-50
-52
-51
-50
-50
-49
-50
-51
-51
-50
-49
-50
-49
-50
-54
-54
-54
-56
-58
-57
-60
-61
-65
-69
-72
-74
-80
-84
-89
-91
-96
-102
-106
-108
-111
-113
-114
-114
-113
-111
-107
-100
-95
-88
-77
-69
-63
-57
-49
-46
-45
-34
-33
-34
-30
-26
-25
-25
-23
-22
-20
-21
-25
-27
-26
-22
-20
-22
-22
-22
-23
-28
-30
-30
-28
-27
-21
-20
-24
-28
-28
-26
-24
-25
-26
-26
-24
-25
-28
-29
-23
-20
-21
-21
-19
-19
-21
-21
-20
-20
-21
-23
-21
-17
-15
-17
-17
-18
-19
-18
-17
-17
-17
-19
-20
-20
-20
-21
-22
-22
-21
-20
-21
-23
-22
-22
-24
-24
-24
-20
-19
-19
-20
-21
-22
-23
-22
-24
-24
-24
-22
-21
-22
-23
-24
-24
-21
-22
-23
-24
-24
-21
-19
-16
-16
-19
-21
-21
-24
-26
-26
-24
-24
-21
-21
-18
-15
-14
-9
-6
-3
-1
-1
-3
-6
-6
1
2
-1
-6
-6
-2
-1
-2
-4
-7
-4
-5
-11
-15
-18
-21
-23
-27
-27
-26
-26
-28
-29
-30
-29
-29
-30
-31
-28
-28
-30
-29
-20
-3
15
43
86
146
198
237
297
406
471
432
372
322
259
160
40
3
-73
-56
-45
-42
-46
-49
-48
-50
-51
-50
-51
-50
-50
-50
-49
-48
-48
-48
-49
-47
-48
-50
-49
-49
-49
-47
-48
-45
-46
-47
-47
-48
-48
-48
-51
-50
-51
-55
-56
-60
-61
-64
-67
-68
-70
-77
-83
-86
-88
-89
-97
-99
-101
-104
-106
-106
-108
-108
-105
-99
-93
-88
-80
-72
-64
-58
-52
-46
-40
-32
-27
-27
-26
-23
-22
-20
-18
-19
-21
-21
-20
-17
-19
-20
-20
-18
-19
-18
-18
-18
-21
-24
-24
-20
-18
-17
-19
-20
-20
-21
-22
-23
-24
-24
-22
-22
-20
-18
-19
-20
-20
-20
-20
-20
-18
-16
-17
-18
-18
-17
-17
-17
-18
-16
-15
-15
-14
-13
-14
-15
-16
-17
-17
-19
-21
-17
-14
-14
-16
-16
-18
-19
-18
-16
-16
-16
-16
-17
-17
-17
-20
-21
-18
-20
-20
-18
-17
-17
-19
-19
-18
-20
-21
-22
-20
-17
-17
-18
-20
-19
-20
-19
-17
-17
-17
-19
-20
-20
-20
-19
-20
-20
-20
-20
-19
-17
-17
-19
-23
-21
-19
-16
-11
-5
-2
-1
-1
2
3
3
0
-1
4
6
3
1
0
0
0
0
0
0
0
-2
-5
-9
-13
-19
-23
-25
-26
-24
-23
-22
-23
-26
-27
-27
-27
-26
-27
-28
-27
-27
-20
-4
10
31
60
111
164
197
238
324
412
406
356
313
275
258
95
-8
-56
-52
-37
-37
-43
-44
-45
-45
-44
-44
-45
-43
-44
-45
-43
-44
-45
-44
-45
-44
-41
-42
-43
-44
-46
-43
-41
-41
-41
-42
-45
-45
-43
-44
-45
-45
-46
-45
-48
-50
-52
-56
-59
-62
-64
-70
-72
-72
-80
-82
-82
-85
-90
-93
-96
-97
-98
-100
-98
-94
-90
-84
-78
-68
-61
-55
-50
-44
-38
-33
-28
-27
-26
-22
-20
-21
-21
-21
-21
-19
-17
-17
-19
-21
-19
-17
-15
-17
-21
-18
-20
-22
-20
-23
-21
-18
-18
-21
-27
-21
-24
-28
-23
-20
-17
-21
-22
-21
-20
-21
-23
-20
-21
-26
-24
-24
-24
-24
-22
-22
-16
-17
-19
-20
-19
-20
-26
-25
-21
-16
-18
-20
-22
-24
-20
-20
-24
-22
-17
-14
-19
-26
-27
-24
-27
-30
-25
-23
-17
-20
-29
-30
-28
-21
-20
-21
-23
-22
-17
-21
-24
-23
-27
-25
-23
-21
-22
-22
-19
-21
-25
-26
-25
-20
-20
-22
-24
-25
-29
-31
-23
-20
-22
-22
-13
-6
-10
-6
0
-1
0
-6
-2
2
1
-3
-4
-3
-5
-1
1
0
-8
-7
-6
-15
-18
-18
-22
-24
-28
-30
-28
-27
-31
-28
-27
-26
-28
-30
-35
-35
-33
-32
-35
-24
-7
8
27
65
126
179
222
284
390
468
447
389
335
273
177
57
-48
-87
-68
-49
-48
-49
-43
-42
-42
-49
-51
-55
-50
-49
-50
-48
-50
-46
-47
-50
-50
-50
-52
-49
-51
-46
-45
-47
-48
-47
-48
-49
-50
-48
-45
-50
-53
-56
-53
-54
-59
-61
-62
-72
-76
-75
-76
-79
-88
-90
-93
-98
-106
-112
-111
-111
-120
-120
-115
-113
-110
-104
-102
-92
-83
-78
-71
-58
-50
-43
-38
-32
-28
-30
-28
-24
-20
-20
-20
-16
-15
-18
-17
-20
-23
-23
-24
-26
-23
-22
-24
-22
-25
-27
-20
-20
-20
-22
-26
-26
-22
-20
-24
-24
-21
-21
-20
-22
-22
-18
-20
-21
-20
-20
-20
-17
-13
-12
-13
-14
-13
-11
-13
-14
-9
-8
-10
-11
-13
-13
-12
-12
-13
-12
-12
-14
-14
-12
-12
-13
-15
-13
-11
-14
-15
-15
-15
-17
-18
-16
-15
-17
-16
-15
-16
-17
-18
-19
-20
-19
-20
-19
-17
-16
-17
-20
-20
-20
-20
-20
-18
-15
-13
-11
-7
-4
-1
0
6
7
6
-1
0
6
4
1
0
1
1
1
0
0
0
0
-6
-9
-13
-17
-19
-22
-26
-27
-26
-24
-27
-26
-26
-25
-24
-26
-27
-27
-29
-29
-23
-11
4
26
59
112
168
208
252
331
437
455
407
362
321
243
212
6
-59
-67
-51
-41
-48
-54
-54
-51
-48
-49
-51
-51
-50
-50
-43
-47
-52
-55
-49
-45
-48
-46
-47
-50
-48
-49
-48
-46
-45
-48
-49
-52
-54
-51
-49
-51
-55
-56
-55
-56
-59
-62
-62
-65
-68
-72
-75
-79
-82
-88
-91
-92
-96
-99
-100
-101
-100
-101
-104
-99
-94
-88
-83
-75
-66
-57
-52
-46
-42
-38
-32
-29
-26
-25
-24
-21
-20
-21
-24
-26
-21
-17
-17
-20
-22
-22
-21
-20
-16
-13
-17
-20
-18
-19
-21
-21
-24
-24
-24
-25
-23
-23
-24
-24
-22
-20
-20
-22
-26
-27
-24
-21
-21
-23
-21
-20
-21
-19
-16
-15
-19
-22
-20
-19
-20
-18
-15
-15
-17
-22
-23
-21
-19
-17
-15
-17
-18
-17
-18
-18
-19
-20
-22
-22
-22
-24
-20
-17
-16
-19
-23
-24
-23
-22
-21
-20
-22
-24
-26
-25
-22
-17
-13
-10
-8
-9
-7
-2
0
-1
-5
-3
0
1
-2
-5
-4
-3
-3
-1
0
0
-3
-8
-10
-15
-23
-27
-29
-29
-27
-26
-29
-31
-32
-32
-31
-32
-32
-32
-33
-32
-33
-28
-19
-3
13
42
92
152
197
238
313
417
440
380
326
285
215
115
-4
-80
-81
-74
-54
-51
-47
-49
-51
-50
-50
-50
-53
-52
-50
-51
-50
-50
-50
-50
-51
-51
-50
-48
-49
-50
-51
-52
-51
-54
-51
-46
-47
-48
-48
-49
-49
-53
-56
-56
-56
-58
-63
-66
-70
-73
-75
-80
-85
-89
-92
-97
-101
-103
-109
-112
-112
-113
-113
-114
-109
-105
-101
-92
-82
-74
-68
-61
-53
-45
-42
-40
-35
-30
-25
-23
-23
-24
-23
-20
-20
-21
-21
-21
-21
-18
-18
-20
-22
-23
-22
-22
-24
-25
-24
-24
-22
-23
-24
-24
-24
-22
-18
-18
-23
-24
-24
-21
-18
-18
-15
-16
-17
-15
-15
-13
-14
-14
-15
-15
-15
-14
-12
-12
-14
-13
-9
-8
-8
-13
-14
-13
-12
-15
-15
-13
-13
-14
-15
-14
-13
-15
-17
-16
-13
-13
-16
-18
-19
-19
-17
-15
-13
-13
-13
-11
-10
-7
-4
-1
3
2
1
-1
0
3
1
-1
-1
-1
-1
0
1
0
0
0
-3
-11
-13
-21
-24
-25
-27
-29
-30
-28
-27
-28
-31
-30
-27
-28
-31
-30
-29
-30
-25
-14
-1
22
55
105
164
181
247
326
430
449
401
351
310
233
127
10
-59
-64
-49
-41
-43
-45
-45
-45
-48
-49
-49
-50
-50
-46
-45
-49
-48
-48
-44
-45
-48
-46
-48
-49
-46
-45
-45
-45
-47
-45
-43
-46
-48
-49
-48
-47
-50
-51
-51
-51
-55
-60
-61
-64
-68
-70
-75
-80
-83
-86
-88
-94
-99
-101
-100
-101
-104
-103
-100
-96
-92
-86
-79
-71
-67
-57
-52
-48
-42
-34
-31
-28
-25
-24
-24
-22
-23
-23
-21
-20
-19
-20
-20
-20
-20
-21
-20
-20
-22
-23
-24
-23
-21
-22
-24
-23
-22
-24
-25
-27
-26
-23
-21
-21
-23
-24
-26
-24
-22
-22
-21
-23
-22
-19
-17
-17
-17
-16
-17
-17
-18
-20
-19
-19
-20
-18
-18
-20
-20
-20
-17
-16
-19
-20
-17
-17
-19
-20
-21
-22
-24
-23
-20
-18
-20
-20
-20
-21
-22
-22
-24
-23
-21
-20
-18
-15
-16
-16
-12
-8
-4
0
0
-3
-5
-2
0
0
-5
-8
-6
0
0
0
-7
-9
-10
-14
-16
-16
-21
-26
-30
-31
-31
-31
-31
-32
-30
-29
-34
-35
-32
-31
-33
-36
-34
-29
-21
-4
17
45
94
152
190
224
297
396
411
361
310
271
211
120
88
-70
-77
-57
-50
-50
-50
-50
-51
-55
-53
-50
-50
-50
-51
-51
-50
-51
-49
-48
-50
-50
-51
-50
-50
-51
-56
-53
-48
-48
-50
-50
-49
-47
-46
-49
-50
-56
-57
-57
-59
-65
-67
-67
-70
-72
-75
-82
-89
-88
-89
-93
-97
-101
-106
-111
-115
-113
-112
-111
-108
-101
-97
-91
-84
-75
-65
-58
-54
-49
-41
-36
-36
-33
-28
-27
-31
-28
-24
-25
-27
-27
-25
-25
-26
-27
-27
-26
-24
-26
-27
-27
-27
-27
-28
-27
-27
-29
-27
-29
-30
-31
-28
-24
-25
-28
-29
-27
-24
-26
-28
-25
-22
-22
-24
-25
-22
-21
-20
-19
-19
-22
-23
-20
-17
-16
-17
-18
-19
-19
-20
-21
-21
-23
-24
-21
-20
-19
-18
-20
-21
-21
-22
-22
-20
-21
-23
-24
-23
-22
-22
-26
-23
-18
-14
-10
-6
-2
0
0
-3
-6
-4
-1
0
0
-3
-6
-6
-1
0
-1
-5
-7
-8
-10
-17
-21
-26
-29
-29
-29
-29
-31
-33
-35
-32
-29
-28
-32
-32
-30
-32
-34
-30
-17
-5
9
36
78
95
185
218
276
380
444
411
359
314
259
171
56
-42
-71
-59
-46
-43
-48
-46
-44
-46
-47
-49
-48
-49
-50
-50
-50
-50
-48
-49
-48
-46
-47
-46
-46
-46
-45
-45
-45
-45
-47
-47
-47
-48
-46
-45
-48
-50
-50
-51
-55
-57
-58
-62
-61
-66
-69
-71
-77
-81
-83
-87
-92
-97
-100
-102
-103
-105
-103
-101
-100
-96
-91
-85
-83
-73
-64
-55
-49
-45
-39
-31
-30
-31
-28
-24
-23
-24
-24
-22
-21
-22
-23
-24
-24
-23
-22
-21
-22
-23
-25
-26
-24
-26
-29
-28
-23
-21
-21
-24
-26
-27
-28
-29
-28
-25
-24
-23
-21
-21
-23
-24
-24
-23
-23
-25
-25
-20
-18
-19
-20
-20
-19
-20
-20
-19
-19
-21
-23
-20
-17
-16
-16
-15
-15
-18
-20
-20
-20
-21
-24
-24
-22
-21
-18
-17
-17
-19
-20
-22
-21
-18
-20
-21
-21
-22
-21
-21
-21
-21
-21
-21
-21
-20
-19
-21
-23
-21
-20
-20
-20
-15
-13
-11
-8
-7
-3
0
0
-1
-3
-2
1
2
0
-2
-4
-1
0
1
-2
-4
-1
-3
-9
-14
-18
-21
-26
-29
-29
-28
-29
-29
-29
-30
-29
-29
-30
-31
-33
-32
-32
-30
-28
-10
5
29
57
107
156
191
232
307
395
398
349
307
274
205
104
-5
-64
-59
-43
-39
-44
-47
-47
-46
-51
-52
-48
-48
-50
-50
-49
-48
-49
-50
-49
-49
-48
-47
-47
-43
-44
-47
-46
-46
-48
-49
-50
-48
-48
-51
-48
-46
-52
-56
-56
-53
-55
-57
-60
-63
-69
-74
-78
-81
-82
-84
-88
-90
-92
-96
-98
-98
-98
-98
-95
-92
-89
-85
-82
-75
-66
-59
-51
-45
-42
-38
-36
-33
-27
-24
-25
-27
-26
-22
-21
-22
-22
-22
-23
-25
-23
-24
-27
-27
-22
-18
-22
-24
-24
-23
-22
-26
-31
-33
-30
-27
-25
-26
-27
-27
-27
-27
-26
-25
-25
-26
-24
-24
-27
-24
-22
-22
-22
-26
-26
-24
-24
-26
-26
-22
-22
-22
-19
-19
-20
-20
-20
-20
-21
-21
-22
-21
-21
-22
-22
-23
-23
-25
-25
-23
-24
-28
-29
-26
-22
-25
-27
-26
-25
-24
-27
-28
-28
-27
-27
-25
-26
-27
-27
-26
-25
-23
-19
-17
-14
-10
-7
-3
-2
-5
-8
-7
0
-2
-8
-11
-11
-9
-8
-7
-4
-5
-11
-13
-15
-20
-26
-31
-32
-30
-34
-33
-36
-38
-34
-32
-31
-32
-34
-35
-39
-40
-37
-36
-24
-16
-5
9
36
87
150
194
237
324
430
438
379
323
275
201
91
-25
-90
-90
-63
-55
-56
-52
-51
-51
-50
-50
-53
-57
-53
-50
-50
-50
-51
-51
-50
-51
-51
-51
-48
-50
-51
-50
-50
-51
-51
-50
-49
-50
-54
-56
-54
-54
-54
-55
-58
-61
-64
-68
-68
-71
-76
-83
-84
-85
-91
-97
-102
-107
-112
-118
-120
-120
-121
-122
-119
-114
-111
-105
-98
-89
-81
-71
-64
-56
-50
-46
-39
-34
-29
-28
-27
-26
-27
-29
-25
-22
-21
-21
-24
-24
-22
-23
-26
-27
-26
-26
-28
-29
-25
-22
-22
-23
-27
-27
-26
-26
-27
-26
-25
-23
-22
-24
-25
-26
-25
-24
-24
-25
-24
-20
-19
-20
-19
-17
-20
-20
-17
-15
-13
-15
-19
-20
-20
-19
-18
-19
-20
-20
-21
-20
-20
-20
-23
-24
-23
-23
-22
-24
-26
-26
-24
-22
-22
-23
-24
-26
-22
-18
-18
-20
-23
-24
-25
-27
-25
-24
-23
-24
-24
-24
-24
-24
-24
-21
-21
-24
-28
-26
-23
-22
-22
-23
-21
-17
-15
-11
-8
-7
-2
0
1
0
-3
-1
2
0
-3
-6
-6
-3
0
0
-1
0
-3
-9
-12
-16
-22
-26
-28
-29
-29
-29
-28
-29
-30
-31
-30
-28
-29
-30
-31
-29
-28
-29
-24
-8
8
34
70
127
178
211
262
360
437
446
362
319
273
190
81
-22
-65
-56
-44
-41
-44
-47
-47
-46
-48
-49
-50
-51
-49
-47
-48
-47
-45
-45
-46
-44
-45
-45
-47
-49
-49
-47
-45
-45
-48
-46
-45
-47
-48
-48
-48
-50
-51
-50
-52
-54
-53
-57
-59
-60
-69
-72
-75
-77
-81
-83
-86
-90
-94
-98
-100
-99
-100
-102
-101
-97
-92
-88
-80
-72
-68
-61
-52
-44
-42
-36
-32
-31
-28
-24
-20
-15
-16
-18
-18
-18
-18
-17
-20
-20
-17
-17
-18
-16
-16
-17
-17
-19
-18
-17
-19
-18
-17
-19
-23
-24
-22
-20
-19
-18
-19
-21
-23
-22
-18
-14
-16
-20
-19
-17
-16
-17
-17
-15
-15
-17
-19
-18
-15
-15
-15
-14
-13
-13
-13
-12
-11
-13
-14
-13
-12
-13
-15
-14
-13
-14
-14
-13
-13
-14
-17
-16
-13
-12
-15
-15
-15
-16
-17
-17
-15
-12
-12
-16
-16
-14
-13
-15
-12
-12
-16
-18
-18
-16
-16
-16
-14
-16
-18
-19
-18
-15
-14
-15
-15
-15
-15
-15
-16
-14
-12
-13
-14
-14
-13
-11
-7
-3
0
0
2
3
1
3
7
6
1
0
0
1
4
5
1
0
0
-1
-7
-11
-13
-18
-24
-25
-22
-20
-20
-25
-27
-25
-26
-26
-24
-26
-27
-27
-28
-28
-23
-13
1
20
49
91
146
181
213
268
362
402
361
346
287
239
148
34
-47
-60
-45
-34
-36
-43
-43
-40
-40
-43
-40
-41
-43
-44
-44
-42
-39
-45
-45
-43
-42
-41
-39
-38
-41
-41
-40
-40
-38
-39
-41
-41
-40
-44
-45
-44
-45
-48
-50
-49
-46
-49
-55
-58
-58
-59
-68
-70
-70
-72
-77
-82
-87
-92
-93
-94
-96
-96
-98
-97
-91
-85
-81
-76
-67
-58
-54
-48
-43
-39
-37
-32
-30
-25
-20
-15
-15
-16
-17
-17
-19
-18
-17
-18
-18
-21
-17
-16
-17
-15
-15
-16
-17
-18
-16
-15
-20
-20
-20
-21
-25
-25
-20
-17
-19
-21
-21
-20
-20
-17
-14
-13
-17
-19
-19
-18
-18
-17
-16
-16
-17
-19
-21
-18
-15
-13
-14
-12
-14
-16
-17
-13
-9
-11
-13
-14
-13
-16
-18
-20
-20
-16
-14
-14
-13
-14
-18
-19
-16
-14
-14
-14
-12
-14
-18
-20
-19
-17
-14
-15
-17
-17
-18
-20
-18
-13
-12
-13
-15
-17
-18
-22
-19
-15
-14
-16
-16
-15
-16
-14
-9
-7
-3
-1
0
1
1
0
-1
1
2
0
0
-1
0
0
1
1
1
0
-3
-6
-8
-12
-16
-19
-19
-19
-21
-24
-25
-22
-22
-23
-25
-24
-24
-24
-24
-25
-26
-23
-10
3
19
41
88
152
200
238
311
420
460
409
349
306
245
142
21
-57
-73
-53
-43
-42
-40
-39
-45
-44
-42
-44
-45
-45
-43
-44
-45
-43
-42
-42
-45
-43
-42
-42
-43
-43
-43
-41
-41
-41
-41
-40
-41
-45
-45
-45
-45
-43
-44
-47
-49
-53
-55
-56
-56
-63
-68
-68
-72
-77
-80
-85
-88
-92
-99
-102
-103
-104
-108
-108
-103
-100
-100
-93
-85
-77
-69
-60
-50
-45
-40
-34
-31
-25
-24
-21
-16
-13
-15
-17
-17
-17
-17
-15
-13
-13
-14
-17
-16
-15
-14
-15
-16
-15
-15
-18
-20
-18
-15
-17
-18
-19
-19
-22
-21
-17
-14
-13
-17
-18
-16
-14
-14
-16
-14
-12
-13
-15
-13
-12
-13
-13
-9
-8
-9
-10
-10
-8
-8
-9
-10
-10
-10
-13
-12
-10
-9
-11
-10
-9
-10
-13
-15
-15
-13
-13
-13
-12
-13
-15
-17
-17
-16
-15
-12
-11
-12
-11
-16
-18
-18
-16
-14
-12
-10
-11
-12
-14
-16
-16
-17
-17
-15
-12
-14
-19
-19
-17
-17
-17
-15
-13
-13
-18
-18
-18
-16
-13
-13
-11
-10
-9
-6
-4
0
2
5
7
7
3
2
6
7
1
0
-1
0
0
2
0
-1
0
0
-2
-4
-9
-16
-21
-23
-21
-23
-24
-23
-21
-21
-22
-23
-22
-25
-23
-20
-21
-23
-21
-8
11
34
64
119
175
209
248
332
424
417
364
318
280
209
102
-8
-59
-55
-46
-43
-43
-42
-41
-42
-42
-39
-42
-43
-43
-43
-43
-46
-45
-44
-46
-44
-42
-41
-39
-41
-46
-45
-44
-45
-45
-42
-42
-42
-41
-42
-43
-41
-45
-46
-47
-52
-54
-55
-57
-59
-62
-68
-70
-70
-76
-81
-82
-88
-94
-99
-100
-100
-101
-101
-99
-96
-94
-93
-87
-73
-67
-64
-56
-49
-41
-37
-33
-28
-27
-28
-25
-20
-19
-20
-22
-18
-17
-17
-19
-21
-19
-17
-17
-18
-18
-19
-18
-13
-16
-18
-20
-22
-21
-19
-23
-26
-22
-18
-20
-21
-18
-17
-18
-20
-17
-15
-18
-24
-26
-23
-20
-18
-17
-20
-20
-16
-18
-18
-16
-14
-17
-22
-18
-15
-14
-15
-13
-13
-22
-21
-18
-17
-18
-13
-10
-13
-14
-14
-16
-19
-20
-20
-16
-15
-17
-18
-18
-21
-20
-17
-17
-16
-17
-21
-16
-14
-16
-20
-19
-20
-23
-21
-20
-20
-20
-21
-22
-22
-22
-22
-16
-16
-17
-15
-17
-12
-8
-7
-2
0
4
1
-3
1
6
1
0
-2
-3
-1
-1
0
-2
-3
-6
-3
-4
-12
-16
-22
-27
-27
-27
-24
-27
-31
-29
-28
-27
-27
-25
-26
-29
-28
-28
-24
-14
0
15
39
83
152
206
246
315
427
483
482
379
324
259
154
30
-62
-88
-68
-52
-48
-42
-39
-46
-51
-51
-45
-43
-49
-50
-48
-48
-46
-48
-49
-48
-49
-46
-45
-44
-41
-43
-46
-45
-49
-49
-48
-50
-50
-54
-48
-43
-47
-50
-51
-50
-54
-59
-61
-65
-68
-72
-72
-74
-78
-87
-98
-103
-103
-106
-112
-115
-111
-115
-120
-114
-109
-106
-101
-95
-87
-77
-65
-60
-53
-50
-43
-37
-30
-28
-28
-22
-15
-15
-16
-20
-22
-19
-21
-23
-21
-21
-20
-21
-19
-15
-16
-19
-20
-20
-20
-21
-23
-21
-21
-24
-24
-24
-21
-20
-17
-15
-18
-21
-21
-20
-18
-18
-18
-21
-20
-17
-16
-15
-16
-17
-18
-16
-10
-9
-12
-11
-7
-9
-15
-16
-14
-13
-13
-14
-12
-10
-11
-13
-13
-15
-17
-21
-16
-13
-12
-14
-18
-17
-15
-16
-15
-14
-13
-16
-17
-17
-19
-20
-18
-16
-15
-18
-19
-17
-20
-22
-22
-17
-18
-19
-19
-16
-15
-20
-23
-18
-13
-10
-9
-7
-2
0
1
0
0
-1
0
0
0
-1
-4
-3
-1
0
0
0
0
-1
-2
-4
-10
-15
-21
-25
-25
-25
-26
-25
-24
-23
-24
-29
-29
-24
-22
-24
-28
-30
-25
-22
-1
18
51
94
157
209
248
310
423
490
458
400
347
285
184
59
-43
-71
-57
-43
-41
-45
-45
-44
-45
-48
-50
-51
-50
-51
-49
-48
-49
-49
-47
-46
-45
-47
-49
-48
-47
-46
-45
-45
-45
-48
-50
-48
-47
-46
-47
-48
-49
-49
-54
-55
-54
-55
-60
-64
-65
-69
-74
-79
-80
-81
-87
-94
-98
-99
-102
-105
-106
-107
-108
-109
-107
-99
-95
-90
-83
-75
-67
-61
-54
-46
-39
-35
-34
-29
-24
-25
-27
-22
-20
-19
-20
-22
-22
-21
-23
-21
-17
-16
-17
-20
-21
-20
-20
-24
-23
-22
-25
-24
-22
-21
-22
-24
-24
-22
-23
-25
-24
-22
-21
-19
-19
-19
-19
-23
-24
-23
-24
-26
-23
-18
-17
-17
-19
-16
-15
-16
-21
-19
-17
-18
-19
-18
-18
-17
-19
-17
-15
-16
-20
-21
-18
-17
-18
-17
-17
-17
-18
-18
-19
-16
-17
-19
-19
-18
-21
-23
-20
-19
-20
-23
-22
-20
-20
-23
-23
-20
-20
-20
-20
-18
-19
-21
-20
-20
-19
-18
-20
-22
-21
-20
-20
-20
-17
-17
-25
-24
-22
-21
-19
-16
-14
-14
-12
-8
-4
-1
-1
-1
-3
-3
0
0
1
-5
-8
-7
0
1
0
-6
-5
-3
-8
-13
-15
-17
-24
-28
-29
-28
-25
-25
-27
-27
-25
-26
-30
-31
-31
-31
-30
-30
-26
-23
-1
18
46
86
143
187
221
277
378
436
403
349
303
247
160
52
-37
-62
-50
-40
-41
-47
-48
-45
-46
-50
-51
-50
-50
-50
-50
-47
-47
-49
-51
-49
-46
-49
-50
-48
-47
-47
-48
-50
-48
-49
-50
-46
-49
-50
-51
-53
-50
-50
-54
-54
-54
-53
-58
-62
-63
-66
-71
-74
-76
-81
-86
-88
-87
-93
-98
-101
-104
-104
-104
-103
-101
-97
-90
-87
-82
-72
-67
-62
-54
-46
-41
-36
-35
-32
-28
-26
-26
-22
-21
-21
-23
-22
-18
-17
-23
-24
-24
-22
-20
-19
-15
-18
-23
-23
-21
-20
-24
-27
-25
-21
-22
-22
-20
-19
-22
-23
-22
-22
-22
-27
-25
-22
-21
-22
-22
-20
-20
-21
-22
-21
-21
-21
-22
-20
-18
-18
-16
-15
-17
-21
-18
-15
-16
-17
-20
-21
-19
-17
-17
-18
-15
-16
-20
-23
-20
-16
-17
-18
-18
-18
-20
-22
-20
-17
-20
-23
-23
-19
-18
-20
-22
-20
-20
-22
-21
-17
-18
-22
-24
-22
-20
-20
-22
-21
-20
-21
-22
-21
-20
-21
-21
-22
-20
-19
-19
-20
-21
-20
-18
-14
-7
-6
-4
1
3
3
0
-2
2
5
1
-2
-5
-2
0
0
0
0
0
-4
-7
-10
-14
-21
-25
-26
-28
-29
-30
-29
-28
-29
-29
-29
-29
-28
-28
-29
-28
-30
-29
-18
-4
0
32
65
117
164
193
236
324
397
379
329
296
258
182
77
-21
-62
-55
-41
-38
-44
-43
-44
-49
-50
-49
-50
-49
-48
-49
-50
-49
-45
-48
-50
-49
-50
-48
-45
-45
-44
-46
-48
-48
-47
-47
-46
-49
-49
-46
-47
-50
-50
-50
-54
-58
-55
-55
-56
-58
-63
-67
-69
-75
-79
-82
-84
-90
-93
-95
-97
-99
-100
-100
-98
-98
-98
-93
-88
-79
-74
-68
-59
-51
-50
-45
-40
-36
-32
-29
-27
-25
-25
-23
-21
-21
-21
-24
-22
-19
-18
-23
-24
-22
-21
-22
-21
-18
-21
-23
-24
-21
-20
-23
-27
-28
-24
-23
-27
-29
-27
-27
-27
-25
-25
-25
-24
-22
-23
-23
-26
-25
-20
-20
-24
-25
-23
-21
-19
-17
-16
-16
-19
-21
-20
-19
-19
-20
-20
-19
-20
-22
-20
-17
-20
-24
-23
-19
-19
-20
-20
-21
-23
-23
-23
-22
-22
-23
-24
-21
-19
-21
-21
-22
-26
-27
-24
-22
-19
-21
-25
-26
-24
-22
-24
-25
-21
-18
-21
-26
-26
-26
-24
-23
-27
-28
-20
-15
-11
-8
-6
-3
-3
0
-2
-6
-2
3
2
-1
-6
-8
-8
-8
-8
-5
-3
-5
-10
-14
-17
-25
-31
-32
-30
-29
-31
-33
-31
-30
-31
-34
-34
-31
-30
-31
-35
-35
-33
-28
-15
-1
18
51
101
152
188
233
319
408
425
346
299
261
191
86
-21
-81
-71
-52
-51
-52
-50
-51
-55
-52
-50
-51
-52
-51
-50
-49
-50
-51
-52
-51
-52
-52
-50
-49
-51
-52
-51
-49
-50
-51
-48
-48
-50
-52
-53
-50
-52
-54
-55
-55
-54
-59
-64
-68
-69
-70
-71
-75
-81
-88
-96
-100
-100
-102
-107
-108
-113
-117
-118
-115
-111
-109
-107
-102
-93
-84
-77
-67
-58
-56
-49
-43
-35
-31
-31
-30
-27
-29
-28
-23
-22
-21
-23
-22
-21
-22
-22
-22
-20
-21
-25
-27
-24
-23
-23
-27
-27
-23
-22
-22
-25
-27
-27
-27
-27
-26
-25
-26
-27
-27
-24
-24
-25
-21
-19
-20
-22
-21
-20
-19
-17
-17
-17
-17
-16
-16
-15
-15
-16
-17
-15
-14
-16
-18
-18
-15
-15
-16
-16
-17
-20
-22
-21
-19
-17
-16
-19
-21
-21
-21
-21
-20
-23
-26
-27
-22
-18
-17
-22
-23
-24
-23
-21
-18
-18
-20
-23
-23
-17
-15
-17
-15
-13
-13
-11
-5
0
0
-5
-6
-1
2
0
-5
-7
-4
-1
-1
-2
-1
-3
-7
-10
-10
-11
-19
-24
-27
-27
-28
-31
-32
-29
-28
-30
-30
-30
-29
-30
-31
-30
-29
-28
-19
-4
10
40
81
140
159
223
281
387
450
414
357
310
258
169
54
-43
-72
-58
-48
-45
-48
-48
-48
-50
-50
-51
-51
-49
-47
-46
-49
-49
-46
-47
-48
-48
-47
-47
-48
-48
-42
-42
-46
-49
-50
-45
-45
-47
-47
-46
-48
-50
-51
-50
-50
-55
-57
-59
-58
-63
-67
-70
-74
-79
-82
-85
-89
-94
-100
-100
-102
-102
-105
-106
-103
-103
-102
-93
-87
-84
-74
-66
-59
-51
-45
-43
-38
-36
-35
-29
-24
-22
-22
-24
-22
-20
-19
-20
-22
-22
-23
-21
-19
-19
-20
-21
-22
-22
-23
-26
-27
-25
-24
-24
-27
-25
-24
-25
-24
-19
-17
-22
-26
-26
-24
-22
-24
-24
-23
-22
-21
-22
-22
-22
-22
-21
-19
-20
-22
-23
-18
-16
-16
-15
-15
-17
-20
-21
-19
-17
-18
-20
-19
-20
-21
-21
-20
-17
-17
-20
-21
-20
-18
-20
-19
-17
-20
-22
-24
-23
-21
-23
-25
-23
-21
-20
-21
-22
-22
-22
-23
-21
-19
-20
-22
-23
-22
-23
-25
-27
-26
-22
-21
-22
-23
-22
-24
-25
-21
-18
-16
-15
-11
-8
-8
-3
-1
0
-1
-6
-2
1
0
-3
-6
-6
-3
-1
-3
-1
-1
-3
-5
-8
-14
-21
-29
-31
-28
-27
-27
-29
-28
-29
-34
-35
-31
-29
-28
-31
-33
-31
-34
-31
-14
0
25
58
107
157
186
223
299
389
409
347
306
278
217
119
10
-54
-58
-48
-41
-44
-48
-47
-48
-50
-50
-52
-51
-49
-50
-51
-53
-50
-48
-48
-50
-51
-50
-49
-50
-50
-50
-47
-46
-48
-48
-51
-51
-50
-50
-48
-49
-52
-52
-51
-53
-57
-60
-59
-59
-66
-69
-70
-72
-76
-81
-84
-88
-92
-96
-97
-99
-98
-100
-100
-100
-98
-95
-90
-83
-74
-68
-61
-54
-51
-48
-42
-34
-33
-32
-28
-24
-24
-25
-26
-24
-24
-24
-26
-24
-21
-20
-21
-22
-22
-22
-23
-25
-28
-29
-30
-23
-20
-24
-27
-26
-22
-24
-26
-27
-27
-24
-22
-25
-27
-27
-27
-27
-24
-24
-27
-28
-27
-25
-24
-27
-22
-18
-18
-20
-22
-22
-21
-23
-25
-24
-24
-23
-22
-19
-17
-20
-22
-22
-22
-20
-22
-23
-22
-22
-24
-21
-20
-21
-26
-28
-22
-21
-25
-28
-27
-27
-26
-23
-21
-20
-24
-27
-28
-28
-29
-28
-24
-22
-21
-26
-28
-27
-26
-28
-27
-20
-15
-13
-14
-9
-6
-5
-6
-6
-8
-4
-1
-1
-5
-10
-11
-6
-1
-1
-6
-8
-7
-15
-20
-24
-27
-29
-31
-32
-32
-32
-30
-29
-29
-32
-34
-35
-37
-36
-32
-33
-34
-31
-30
-14
5
30
62
111
162
201
252
344
413
389
333
289
246
171
67
-37
-87
-73
-54
-48
-49
-52
-47
-45
-54
-55
-54
-54
-56
-54
-51
-50
-50
-51
-53
-54
-52
-49
-48
-48
-53
-56
-53
-51
-50
-50
-49
-50
-51
-53
-51
-54
-56
-57
-57
-57
-59
-62
-68
-70
-72
-77
-79
-79
-85
-92
-97
-99
-100
-104
-110
-113
-117
-119
-122
-118
-111
-104
-97
-90
-81
-75
-71
-63
-53
-48
-48
-48
-39
-32
-32
-35
-33
-25
-20
-20
-23
-24
-24
-25
-27
-26
-27
-29
-26
-22
-22
-24
-28
-26
-28
-31
-31
-28
-24
-24
-26
-25
-27
-29
-33
-32
-27
-24
-23
-24
-25
-28
-28
-25
-24
-24
-24
-22
-19
-15
-17
-21
-23
-21
-22
-22
-19
-17
-20
-21
-17
-15
-15
-18
-20
-21
-20
-20
-20
-17
-15
-16
-19
-19
-20
-20
-23
-26
-26
-24
-23
-21
-22
-21
-24
-22
-19
-17
-22
-24
-22
-22
-23
-23
-26
-27
-26
-22
-19
-17
-20
-24
-22
-15
-15
-14
-9
-4
-1
0
-1
-2
-1
0
0
-1
-5
-6
-6
-3
-3
-4
-4
-5
-7
-12
-15
-18
-21
-22
-26
-27
-26
-27
-30
-34
-30
-29
-31
-31
-29
-26
-26
-31
-31
-23
-11
5
30
65
122
182
222
267
360
469
474
420
362
307
221
103
64
-75
-70
-50
-45
-50
-51
-48
-48
-51
-53
-50
-48
-49
-50
-50
-51
-51
-53
-50
-46
-47
-48
-50
-47
-45
-49
-50
-48
-48
-48
-50
-49
-46
-48
-52
-52
-53
-53
-55
-56
-56
-59
-62
-65
-69
-72
-77
-80
-83
-84
-95
-99
-102
-106
-111
-111
-111
-110
-113
-113
-107
-103
-98
-91
-82
-71
-65
-60
-52
-43
-38
-34
-29
-27
-27
-26
-22
-21
-23
-25
-24
-20
-18
-17
-17
-19
-20
-22
-23
-21
-20
-21
-22
-22
-20
-17
-21
-20
-20
-21
-27
-24
-20
-17
-20
-22
-24
-24
-24
-25
-23
-20
-20
-20
-15
-16
-20
-21
-19
-18
-17
-18
-20
-20
-20
-20
-16
-14
-14
-15
-17
-20
-22
-21
-14
-11
-11
-14
-17
-18
-20
-19
-17
-15
-15
-16
-19
-21
-19
-18
-19
-17
-17
-19
-21
-23
-22
-20
-21
-22
-21
-20
-21
-20
-18
-17
-20
-20
-17
-17
-17
-20
-23
-24
-24
-24
-21
-18
-19
-22
-20
-17
-18
-19
-19
-18
-15
-12
-10
-3
0
0
-2
-6
-5
-2
0
-1
-2
-3
-5
-3
0
0
-3
-6
-4
-7
-12
-17
-19
-22
-27
-28
-26
-26
-29
-30
-27
-25
-24
-29
-31
-28
-27
-30
-29
-24
-17
-3
22
53
100
164
211
252
324
443
497
452
392
339
265
156
30
-55
-71
-58
-46
-43
-50
-46
-48
-50
-51
-53
-51
-52
-52
-50
-50
-49
-49
-51
-52
-51
-50
-50
-51
-50
-50
-49
-51
-50
-49
-50
-47
-46
-49
-51
-52
-52
-53
-57
-58
-58
-59
-65
-68
-70
-73
-79
-81
-84
-87
-91
-97
-102
-106
-108
-113
-113
-111
-110
-111
-108
-104
-101
-97
-87
-77
-70
-65
-61
-52
-43
-39
-35
-31
-30
-29
-26
-21
-20
-21
-23
-21
-20
-20
-22
-23
-22
-22
-23
-23
-19
-18
-23
-24
-20
-21
-25
-27
-26
-24
-22
-23
-23
-24
-24
-26
-25
-24
-26
-27
-25
-22
-21
-24
-26
-23
-21
-21
-21
-22
-22
-22
-22
-22
-21
-22
-23
-20
-17
-16
-21
-20
-17
-16
-17
-19
-18
-18
-21
-22
-21
-18
-18
-17
-15
-18
-21
-23
-23
-21
-19
-20
-19
-19
-20
-22
-23
-24
-23
-24
-22
-19
-17
-17
-19
-19
-20
-23
-24
-23
-24
-25
-23
-20
-20
-22
-23
-23
-21
-20
-19
-20
-20
-22
-22
-22
-22
-23
-26
-26
-22
-18
-19
-21
-22
-21
-20
-18
-13
-11
-11
-9
-4
0
0
-4
-5
0
3
1
-4
-8
-8
-7
-2
0
-5
-9
-8
-6
-9
-14
-16
-19
-23
-27
-28
-27
-28
-29
-31
-28
-26
-28
-31
-30
-28
-28
-29
-29
-22
-8
6
30
67
121
180
219
266
358
467
478
425
369
354
227
106
-8
-61
-64
-52
-42
-44
-46
-48
-50
-51
-52
-48
-51
-53
-54
-54
-51
-51
-48
-47
-51
-53
-54
-52
-51
-50
-49
-48
-49
-50
-50
-52
-54
-51
-47
-52
-53
-54
-58
-61
-62
-58
-58
-61
-67
-70
-72
-74
-82
-84
-86
-92
-96
-99
-105
-110
-114
-116
-116
-114
-114
-111
-103
-98
-94
-89
-83
-74
-65
-58
-50
-44
-41
-36
-30
-27
-24
-24
-26
-26
-22
-26
-28
-27
-23
-18
-20
-24
-22
-22
-22
-17
-18
-22
-25
-24
-22
-22
-26
-25
-23
-21
-27
-30
-27
-26
-26
-24
-16
-18
-23
-24
-26
-27
-27
-28
-28
-25
-25
-27
-23
-21
-20
-20
-16
-14
-14
-17
-21
-20
-18
-18
-17
-18
-17
-19
-19
-16
-15
-15
-15
-20
-22
-19
-16
-16
-13
-12
-20
-23
-22
-23
-22
-19
-16
-18
-21
-17
-16
-22
-21
-18
-19
-22
-23
-21
-20
-19
-19
-20
-17
-18
-19
-21
-21
-20
-17
-17
-14
-14
-19
-21
-21
-19
-19
-19
-19
-19
-21
-23
-22
-17
-17
-18
-16
-17
-20
-21
-17
-8
-4
-5
-4
0
5
2
0
0
2
3
2
-3
-5
-1
-2
-2
0
0
0
0
-5
-11
-13
-16
-20
-23
-24
-23
-23
-20
-23
-25
-24
-24
-22
-25
-27
-26
-23
-24
-18
-7
5
26
59
112
181
201
277
356
476
522
479
422
370
285
161
26
-59
-69
-52
-43
-42
-41
-41
-44
-49
-49
-48
-49
-49
-47
-46
-49
-51
-46
-44
-47
-49
-47
-46
-44
-46
-48
-46
-47
-50
-48
-45
-43
-45
-49
-50
-50
-50
-50
-51
-51
-56
-59
-61
-63
-67
-70
-76
-79
-83
-89
-92
-96
-101
-108
-110
-111
-114
-119
-121
-119
-116
-114
-111
-106
-102
-89
-79
-66
-57
-50
-46
-37
-33
-32
-28
-26
-24
-22
-20
-18
-15
-16
-15
-14
-14
-15
-15
-15
-15
-15
-19
-21
-19
-20
-22
-21
-18
-16
-15
-17
-21
-22
-22
-21
-20
-20
-22
-24
-22
-19
-18
-20
-22
-20
-18
-17
-17
-14
-14
-17
-16
-16
-15
-15
-13
-13
-13
-15
-16
-16
-15
-15
-14
-13
-13
-15
-15
-16
-14
-13
-17
-17
-14
-14
-17
-17
-17
-16
-16
-18
-18
-15
-16
-20
-19
-17
-18
-19
-19
-18
-19
-23
-21
-16
-15
-17
-17
-20
-21
-22
-20
-16
-15
-16
-17
-16
-17
-18
-20
-18
-19
-20
-22
-18
-18
-17
-17
-17
-19
-20
-20
-21
-17
-15
-15
-16
-14
-15
-15
-15
-11
-7
-6
-4
-3
1
3
3
3
1
0
4
5
2
0
-3
-1
1
1
0
-2
-1
-2
-6
-10
-12
-15
-20
-25
-24
-21
-22
-25
-26
-26
-26
-24
-24
-23
-23
-28
-25
-20
-11
1
17
45
84
142
194
233
287
390
482
462
404
353
296
201
82
-18
-58
-52
-39
-35
-42
-44
-42
-43
-46
-47
-47
-45
-49
-51
-50
-50
-47
-45
-45
-44
-46
-48
-45
-46
-47
-45
-45
-45
-45
-50
-47
-45
-47
-48
-50
-49
-50
-51
-51
-54
-54
-55
-59
-60
-62
-65
-71
-75
-78
-83
-87
-90
-92
-93
-101
-103
-105
-108
-110
-108
-104
-101
-100
-93
-87
-76
-68
-65
-56
-49
-44
-40
-36
-35
-31
-25
-21
-20
-19
-21
-21
-19
-16
-16
-17
-17
-19
-22
-23
-21
-20
-18
-15
-15
-18
-19
-21
-21
-20
-22
-25
-25
-23
-22
-22
-21
-18
-20
-23
-21
-18
-21
-25
-26
-21
-18
-20
-26
-27
-18
-14
-15
-16
-12
-11
-18
-22
-21
-20
-17
-17
-17
-16
-18
-18
-17
-17
-15
-14
-16
-18
-21
-24
-23
-17
-14
-13
-14
-14
-17
-18
-20
-19
-19
-23
-25
-23
-18
-17
-22
-27
-26
-23
-17
-15
-15
-15
-18
-20
-21
-23
-24
-24
-21
-20
-21
-21
-19
-18
-21
-22
-22
-22
-18
-19
-20
-20
-21
-24
-21
-17
-19
-20
-22
-24
-22
-18
-13
-10
-8
-9
-8
-3
-2
-2
-3
-2
0
0
0
-1
-2
-3
-3
-1
0
-2
-4
-7
-11
-13
-16
-17
-19
-22
-26
-27
-26
-25
-31
-30
-27
-26
-27
-27
-28
-27
-28
-27
-21
-11
-1
22
61
117
177
220
273
365
473
483
433
380
365
236
116
-2
-63
-63
-48
-45
-48
-49
-49
-48
-49
-49
-51
-51
-47
-48
-50
-50
-48
-48
-50
-50
-46
-45
-48
-47
-49
-49
-49
-50
-49
-50
-50
-50
-52
-50
-53
-53
-51
-51
-52
-55
-58
-59
-63
-69
-70
-70
-71
-81
-85
-89
-95
-100
-101
-106
-113
-117
-119
-119
-121
-123
-122
-117
-110
-108
-103
-93
-85
-78
-70
-61
-52
-49
-42
-35
-30
-27
-24
-23
-18
-16
-18
-19
-17
-18
-20
-18
-16
-15
-18
-20
-20
-21
-21
-20
-20
-20
-20
-22
-23
-21
-20
-23
-24
-22
-21
-24
-27
-26
-24
-25
-24
-22
-20
-20
-21
-16
-14
-16
-17
-18
-19
-18
-18
-15
-14
-14
-16
-17
-16
-15
-15
-18
-20
-20
-20
-20
-19
-16
-16
-18
-17
-19
-22
-22
-20
-17
-16
-18
-20
-22
-21
-21
-22
-23
-22
-22
-23
-21
-19
-20
-22
-24
-21
-21
-20
-17
-18
-21
-23
-22
-19
-18
-22
-23
-20
-20
-21
-22
-20
-21
-20
-21
-20
-18
-20
-24
-24
-21
-19
-17
-19
-20
-20
-19
-13
-8
-6
0
1
3
2
-2
-6
0
2
1
-1
-2
-4
-1
0
1
0
0
-1
-2
-5
-13
-22
-24
-24
-25
-28
-28
-31
-30
-29
-28
-28
-26
-27
-27
-28
-29
-28
-24
-12
0
18
44
96
163
211
251
321
433
466
431
369
320
247
131
10
-63
-74
-62
-51
-46
-46
-51
-57
-61
-61
-57
-51
-53
-54
-52
-54
-51
-52
-52
-50
-51
-52
-55
-54
-53
-50
-50
-53
-56
-58
-54
-53
-50
-50
-51
-54
-56
-60
-64
-68
-67
-65
-65
-66
-70
-74
-78
-85
-88
-95
-100
-100
-103
-111
-116
-119
-125
-127
-128
-127
-126
-122
-120
-114
-105
-99
-93
-82
-78
-64
-55
-48
-44
-42
-35
-31
-32
-32
-27
-22
-21
-23
-26
-25
-21
-21
-22
-24
-25
-27
-24
-21
-21
-20
-22
-24
-21
-27
-31
-31
-26
-24
-25
-27
-27
-27
-22
-22
-23
-23
-24
-24
-26
-27
-29
-28
-24
-23
-22
-25
-26
-23
-22
-23
-26
-23
-21
-20
-18
-17
-17
-19
-20
-17
-13
-13
-16
-19
-18
-17
-19
-19
-17
-17
-19
-21
-20
-17
-19
-19
-19
-22
-23
-23
-19
-17
-19
-21
-21
-20
-16
-11
-8
-5
-2
-1
0
0
-1
-5
0
0
-6
-10
-9
-8
-6
-6
-6
-4
-5
-11
-14
-15
-14
-22
-30
-34
-33
-31
-29
-33
-35
-34
-34
-32
-32
-35
-37
-34
-28
-28
-29
-20
-3
20
56
115
183
236
285
378
493
510
457
401
343
240
202
-22
-86
-78
-58
-50
-52
-51
-50
-52
-55
-54
-54
-56
-54
-57
-57
-54
-53
-53
-51
-52
-54
-54
-54
-53
-51
-50
-51
-50
-52
-52
-54
-54
-56
-55
-52
-54
-54
-58
-58
-56
-59
-63
-66
-71
-75
-78
-81
-85
-87
-94
-98
-102
-106
-113
-116
-119
-121
-124
-127
-124
-122
-118
-112
-105
-96
-88
-79
-70
-61
-54
-47
-41
-36
-34
-33
-30
-24
-21
-23
-23
-20
-18
-18
-20
-19
-20
-22
-22
-20
-20
-22
-23
-23
-23
-24
-24
-21
-20
-21
-25
-23
-21
-21
-26
-29
-26
-22
-21
-24
-24
-22
-22
-23
-23
-21
-22
-23
-18
-16
-17
-19
-18
-15
-15
-17
-16
-15
-19
-22
-20
-17
-17
-18
-19
-19
-23
-25
-24
-21
-18
-20
-21
-23
-24
-24
-22
-20
-22
-24
-25
-22
-19
-21
-24
-25
-25
-25
-26
-26
-24
-23
-24
-27
-25
-19
-17
-13
-8
-5
-4
-3
-4
-6
-6
0
1
-3
-7
-8
-5
-2
-6
-10
-11
-12
-15
-16
-17
-22
-31
-36
-37
-30
-27
-31
-33
-31
-29
-30
-35
-35
-34
-34
-34
-37
-39
-33
-19
-1
27
70
133
195
241
295
399
502
490
437
384
318
210
75
32
-85
-75
-58
-51
-54
-55
-54
-54
-57
-59
-58
-58
-58
-59
-57
-56
-57
-58
-59
-58
-58
-55
-55
-55
-54
-56
-56
-56
-57
-61
-57
-56
-56
-56
-58
-60
-58
-62
-65
-65
-65
-67
-71
-75
-78
-83
-86
-89
-94
-96
-102
-108
-113
-117
-122
-126
-130
-130
-130
-129
-126
-124
-120
-112
-103
-94
-87
-79
-70
-61
-56
-49
-41
-39
-38
-33
-28
-26
-28
-28
-26
-24
-25
-27
-27
-25
-24
-26
-28
-26
-24
-25
-28
-30
-28
-28
-30
-30
-29
-28
-30
-31
-32
-28
-27
-26
-27
-27
-27
-27
-26
-27
-27
-26
-23
-22
-24
-26
-24
-24
-23
-23
-24
-22
-22
-23
-24
-25
-24
-22
-21
-20
-23
-24
-25
-23
-20
-20
-22
-25
-25
-24
-23
-23
-23
-26
-24
-22
-21
-21
-24
-25
-22
-19
-15
-13
-8
-8
-7
-5
-4
-3
-8
-7
-1
0
-2
-6
-6
-3
-1
-2
-3
-4
-4
-10
-12
-14
-20
-29
-31
-29
-27
-28
-30
-34
-37
-38
-34
-32
-32
-35
-35
-32
-34
-35
-30
-16
1
6
54
107
170
218
263
353
466
473
421
366
305
209
88
-30
-87
-82
-57
-51
-52
-51
-51
-50
-52
-55
-55
-56
-53
-51
-48
-47
-50
-46
-46
-49
-50
-50
-48
-51
-51
-49
-51
-50
-50
-50
-50
-50
-49
-50
-49
-50
-52
-52
-53
-57
-61
-63
-63
-66
-71
-74
-78
-82
-87
-93
-95
-100
-105
-109
-114
-116
-119
-121
-121
-121
-122
-118
-113
-105
-97
-90
-81
-72
-64
-58
-52
-46
-39
-33
-29
-28
-24
-24
-23
-23
-24
-24
-24
-22
-21
-20
-22
-24
-22
-21
-24
-25
-24
-25
-27
-29
-28
-26
-23
-21
-21
-22
-24
-26
-24
-23
-21
-23
-24
-22
-21
-21
-21
-20
-18
-18
-18
-17
-16
-16
-15
-15
-14
-14
-17
-15
-12
-13
-13
-14
-13
-15
-15
-16
-16
-16
-17
-16
-15
-16
-17
-17
-15
-13
-14
-17
-19
-20
-18
-16
-13
-14
-15
-16
-12
-9
-6
-2
0
0
1
-1
-1
3
5
0
-1
-1
-2
-3
-3
-1
0
-2
-7
-9
-11
-15
-19
-20
-23
-27
-27
-28
-28
-27
-32
-32
-28
-26
-29
-30
-28
-27
-27
-27
-20
-5
11
40
90
151
194
238
316
427
457
404
345
293
278
118
2
-77
-89
-66
-52
-48
-48
-53
-54
-53
-52
-47
-43
-44
-43
-49
-51
-52
-51
-46
-46
-45
-48
-50
-54
-52
-48
-47
-45
-46
-48
-48
-49
-50
-49
-50
-56
-55
-51
-50
-53
-58
-59
-62
-67
-70
-73
-76
-77
-89
-92
-93
-96
-103
-108
-110
-113
-120
-125
-124
-125
-122
-119
-113
-102
-95
-87
-77
-66
-60
-55
-51
-42
-38
-36
-31
-27
-26
-27
-26
-21
-20
-20
-20
-19
-18
-22
-27
-25
-22
-23
-26
-24
-24
-22
-23
-22
-21
-22
-21
-23
-26
-26
-25
-22
-21
-28
-33
-28
-20
-17
-19
-20
-19
-15
-18
-23
-21
-16
-13
-14
-17
-18
-18
-15
-12
-11
-15
-17
-16
-12
-11
-14
-17
-16
-14
-14
-17
-15
-13
-13
-11
-5
-3
-2
0
0
0
0
-6
-2
0
3
0
-2
-3
-1
0
0
-2
-3
-2
-8
-13
-15
-18
-25
-27
-28
-27
-29
-30
-26
-25
-27
-29
-31
-30
-32
-32
-29
-29
-30
-24
-11
2
25
66
126
186
234
293
402
491
475
417
359
291
266
62
-45
-92
-82
-56
-50
-49
-45
-44
-49
-51
-52
-51
-50
-51
-50
-51
-52
-49
-51
-51
-48
-48
-47
-46
-50
-50
-48
-45
-48
-49
-47
-48
-50
-49
-48
-49
-49
-52
-51
-52
-56
-57
-60
-62
-66
-71
-73
-76
-78
-88
-92
-95
-100
-107
-110
-116
-119
-120
-121
-120
-118
-114
-109
-103
-97
-90
-80
-70
-59
-52
-47
-41
-36
-33
-27
-27
-24
-22
-18
-18
-18
-19
-21
-20
-20
-17
-16
-17
-18
-20
-21
-20
-20
-20
-20
-21
-22
-21
-22
-23
-21
-18
-15
-15
-18
-18
-19
-20
-20
-20
-19
-19
-20
-19
-15
-15
-14
-10
-9
-15
-16
-13
-12
-13
-13
-11
-9
-14
-17
-19
-17
-12
-11
-15
-16
-18
-17
-18
-15
-12
-13
-16
-21
-24
-25
-23
-19
-19
-18
-14
-11
-7
-1
2
1
-1
-3
-8
-5
0
0
-3
-3
0
-1
-1
-1
1
2
-1
-8
-17
-16
-15
-25
-25
-24
-27
-26
-29
-27
-27
-30
-35
-35
-29
-27
-31
-31
-34
-36
-32
-15
2
24
60
116
177
195
274
372
481
494
440
383
332
242
120
-6
-80
-81
-56
-48
-49
-46
-45
-47
-50
-51
-50
-53
-50
-49
-50
-51
-54
-50
-49
-50
-51
-49
-50
-52
-49
-46
-46
-46
-45
-48
-48
-50
-51
-50
-51
-51
-51
-53
-55
-56
-59
-61
-63
-68
-71
-74
-79
-83
-86
-92
-95
-97
-104
-111
-114
-118
-119
-120
-117
-115
-117
-111
-106
-100
-97
-81
-73
-64
-55
-47
-42
-37
-29
-27
-26
-25
-22
-22
-20
-19
-17
-18
-19
-18
-17
-19
-20
-20
-20
-20
-19
-19
-19
-19
-23
-22
-21
-21
-22
-20
-20
-21
-21
-18
-17
-18
-22
-23
-19
-17
-18
-19
-18
-19
-20
-21
-20
-17
-16
-14
-17
-17
-17
-18
-16
-14
-12
-13
-13
-13
-16
-17
-17
-15
-15
-15
-14
-15
-16
-17
-20
-18
-17
-17
-17
-20
-19
-15
-10
-9
-8
-4
-1
1
2
0
-3
-3
2
4
0
-3
-6
-6
-4
0
-2
-3
-3
-6
-9
-11
-11
-12
-19
-27
-27
-24
-24
-24
-26
-30
-31
-31
-32
-32
-31
-31
-31
-30
-26
-19
-7
12
45
95
162
216
260
334
453
510
471
414
363
291
174
42
-53
-74
-59
-49
-50
-48
-46
-48
-46
-45
-48
-48
-50
-49
-48
-49
-47
-48
-48
-48
-50
-47
-44
-45
-47
-47
-44
-45
-47
-47
-45
-46
-47
-45
-48
-49
-47
-49
-50
-52
-55
-57
-60
-64
-69
-72
-71
-75
-79
-81
-86
-93
-98
-104
-107
-110
-111
-109
-109
-109
-109
-105
-100
-93
-84
-77
-68
-58
-49
-44
-38
-33
-27
-27
-25
-22
-21
-19
-18
-17
-17
-17
-20
-18
-15
-15
-17
-18
-18
-17
-17
-15
-14
-16
-20
-21
-21
-19
-21
-22
-20
-21
-21
-19
-17
-17
-17
-21
-21
-18
-18
-19
-21
-19
-19
-20
-20
-18
-17
-19
-21
-19
-15
-13
-13
-12
-14
-17
-18
-17
-14
-13
-15
-15
-13
-10
-14
-18
-19
-17
-16
-15
-13
-13
-17
-19
-17
-15
-15
-14
-14
-16
-20
-20
-20
-17
-17
-19
-19
-18
-18
-20
-19
-19
-21
-22
-20
-16
-12
-9
-7
-8
-6
-4
-1
1
0
-3
-2
5
7
6
0
-1
-2
-1
1
0
-1
0
0
-1
-4
-10
-15
-22
-25
-23
-24
-24
-27
-27
-25
-24
-24
-27
-28
-27
-23
-22
-25
-27
-23
-9
6
30
68
126
187
231
280
375
489
492
438
384
332
241
118
-6
-64
-72
-49
-43
-45
-44
-45
-48
-46
-47
-49
-50
-50
-50
-51
-51
-50
-50
-46
-44
-47
-44
-43
-47
-46
-45
-46
-48
-48
-45
-45
-48
-47
-48
-50
-50
-50
-52
-51
-55
-56
-57
-60
-62
-69
-72
-74
-80
-86
-87
-91
-93
-99
-103
-106
-111
-113
-116
-114
-113
-112
-105
-99
-93
-88
-82
-73
-63
-57
-51
-45
-37
-31
-29
-29
-24
-21
-18
-17
-16
-15
-17
-18
-16
-16
-19
-20
-16
-15
-15
-17
-17
-15
-17
-17
-18
-18
-17
-21
-22
-21
-20
-19
-19
-18
-19
-20
-18
-14
-14
-17
-19
-18
-15
-15
-17
-17
-17
-17
-17
-15
-13
-12
-10
-11
-14
-14
-17
-15
-14
-13
-10
-8
-10
-12
-15
-17
-17
-15
-15
-16
-15
-15
-17
-19
-18
-16
-15
-18
-17
-17
-18
-20
-19
-17
-19
-21
-21
-19
-18
-19
-19
-18
-18
-19
-21
-21
-19
-18
-18
-17
-17
-20
-20
-19
-16
-15
-15
-17
-18
-18
-18
-18
-15
-14
-16
-18
-19
-20
-16
-16
-16
-19
-20
-19
-15
-10
-8
-7
-3
-1
0
4
4
0
0
5
5
1
-1
-2
-2
0
1
0
-1
-1
0
-4
-7
-11
-14
-22
-26
-26
-24
-23
-22
-24
-24
-24
-26
-24
-25
-26
-27
-29
-29
-29
-22
-9
9
34
70
123
184
229
276
369
477
480
467
374
326
236
114
-7
-65
-63
-44
-40
-43
-43
-43
-45
-48
-50
-49
-50
-50
-50
-52
-49
-47
-50
-47
-45
-48
-46
-46
-46
-45
-47
-45
-44
-45
-46
-46
-46
-48
-48
-49
-50
-52
-54
-54
-54
-53
-57
-58
-62
-63
-70
-72
-77
-83
-86
-91
-96
-97
-101
-105
-109
-111
-115
-116
-114
-111
-110
-109
-103
-95
-88
-81
-72
-62
-58
-47
-39
-36
-31
-27
-25
-24
-21
-20
-16
-15
-13
-13
-13
-15
-15
-16
-17
-16
-16
-15
-16
-15
-15
-15
-15
-17
-15
-13
-17
-18
-20
-20
-21
-16
-14
-15
-16
-19
-19
-17
-17
-18
-19
-18
-18
-20
-16
-15
-15
-14
-10
-7
-8
-11
-14
-15
-13
-14
-14
-12
-11
-11
-11
-11
-10
-11
-12
-13
-13
-14
-15
-16
-15
-15
-16
-16
-14
-13
-13
-13
-13
-12
-14
-17
-15
-16
-17
-19
-20
-21
-20
-18
-16
-15
-16
-18
-19
-19
-18
-17
-18
-17
-17
-19
-20
-20
-19
-18
-15
-13
-15
-19
-22
-21
-18
-17
-16
-15
-16
-17
-19
-18
-18
-18
-15
-13
-14
-15
-17
-16
-14
-15
-17
-17
-17
-17
-17
-17
-16
-17
-16
-15
-17
-17
-16
-12
-8
-4
-3
0
5
7
4
1
0
5
4
1
0
0
1
3
3
0
-2
-1
-1
-7
-9
-14
-20
-22
-21
-21
-22
-22
-22
-21
-22
-23
-24
-26
-25
-22
-22
-23
-24
-21
-10
1
22
48
94
150
194
234
299
401
431
389
339
301
243
146
29
-54
-66
-51
-41
-42
-45
-44
-43
-48
-50
-47
-47
-43
-44
-50
-51
-51
-47
-45
-43
-44
-46
-48
-48
-48
-47
-42
-41
-43
-44
-45
-47
-48
-50
-49
-50
-51
-48
-50
-51
-50
-53
-56
-58
-66
-64
-66
-72
-75
-82
-85
-88
-96
-99
-103
-109
-112
-113
-111
-111
-113
-115
-112
-105
-99
-90
-81
-74
-72
-64
-56
-48
-44
-37
-26
-25
-26
-26
-24
-21
-17
-18
-16
-15
-14
-13
-14
-16
-17
-17
-18
-21
-21
-19
-17
-17
-16
-15
-17
-20
-18
-16
-15
-15
-20
-22
-24
-23
-19
-19
-22
-23
-20
-19
-13
-12
-15
-14
-15
-22
-18
-13
-10
-13
-13
-10
-10
-10
-9
-8
-10
-14
-15
-14
-10
-8
-9
-11
-17
-19
-13
-10
-11
-12
-15
-16
-19
-19
-17
-15
-13
-14
-18
-19
-14
-11
-15
-18
-18
-17
-15
-13
-14
-19
-22
-23
-20
-15
-13
-16
-12
-9
-13
-19
-17
-15
-15
-20
-21
-14
-8
-6
-5
-3
-1
-1
0
0
0
0
3
0
0
-1
-1
-1
2
-2
-8
-7
-1
-6
-12
-15
-12
-10
-16
-24
-25
-20
-23
-26
-22
-23
-29
-32
-26
-18
-15
-21
-24
-24
-14
-2
10
36
79
142
202
250
318
433
514
484
426
371
300
187
59
-47
-88
-72
-53
-50
-49
-44
-40
-46
-50
-48
-50
-49
-48
-50
-48
-47
-50
-47
-45
-47
-49
-50
-49
-47
-45
-45
-47
-47
-45
-44
-47
-43
-47
-49
-48
-49
-49
-49
-54
-54
-55
-60
-61
-63
-68
-73
-77
-80
-84
-88
-91
-96
-101
-102
-110
-116
-120
-122
-123
-123
-119
-114
-112
-107
-99
-90
-81
-73
-65
-57
-50
-44
-34
-27
-24
-25
-23
-21
-19
-18
-19
-21
-21
-22
-19
-17
-17
-17
-15
-16
-16
-15
-15
-16
-17
-17
-16
-17
-17
-20
-19
-17
-17
-17
-20
-20
-20
-18
-19
-18
-15
-17
-19
-15
-12
-10
-10
-10
-12
-13
-14
-15
-14
-13
-11
-10
-12
-13
-14
-15
-17
-18
-16
-13
-16
-17
-15
-15
-15
-17
-16
-16
-18
-16
-15
-18
-20
-20
-19
-18
-20
-19
-18
-17
-19
-19
-21
-18
-15
-14
-13
-13
-16
-20
-22
-19
-19
-17
-17
-18
-20
-20
-17
-11
-6
-3
0
0
0
5
4
0
-1
0
4
5
2
1
-3
-1
1
0
0
0
1
-1
-7
-11
-16
-23
-29
-28
-23
-22
-25
-27
-25
-22
-20
-19
-24
-28
-29
-29
-30
-29
-19
-3
21
54
90
146
203
246
310
420
487
449
432
332
271
175
53
-43
-71
-58
-46
-44
-46
-44
-44
-48
-48
-46
-47
-50
-50
-46
-48
-48
-46
-48
-48
-48
-46
-45
-45
-45
-43
-44
-45
-43
-46
-49
-48
-47
-47
-46
-48
-49
-51
-51
-48
-52
-54
-56
-58
-59
-61
-69
-71
-76
-82
-86
-91
-93
-97
-103
-107
-109
-111
-115
-116
-115
-111
-109
-101
-93
-85
-78
-68
-61
-53
-50
-43
-37
-33
-26
-23
-23
-21
-21
-19
-15
-15
-15
-12
-15
-19
-15
-13
-13
-14
-16
-17
-20
-20
-19
-18
-18
-16
-15
-11
-11
-16
-20
-19
-18
-17
-17
-18
-19
-20
-18
-17
-17
-17
-17
-17
-19
-17
-17
-16
-14
-16
-19
-21
-24
-21
-13
0
7
-2
-10
-4
-4
-11
-16
-18
-18
-17
-18
-18
-16
-15
-14
-14
-15
-16
-16
-15
-17
-17
-16
-16
-16
-16
-18
-17
-15
-15
-14
-13
-14
-17
-18
-19
-18
-16
-15
-13
-12
-14
-15
-20
-18
-16
-18
-19
-17
-15
-15
-15
-15
-14
-10
-7
-3
-1
3
5
6
2
0
-1
4
7
2
0
-1
-1
1
2
0
0
0
-3
-4
-6
-11
-15
-18
-20
-22
-21
-21
-21
-21
-21
-21
-22
-22
-23
-24
-24
-22
-22
-24
-15
4
25
60
103
169
222
266
333
446
500
472
416
363
284
168
37
-45
-62
-48
-42
-38
-39
-35
-38
-45
-44
-43
-46
-46
-44
-43
-45
-47
-54
-57
-49
-44
-43
-40
-36
-31
-34
-35
-37
-38
-39
-42
-41
-42
-40
-41
-46
-44
-43
-45
-45
-44
-50
-51
-52
-57
-59
-64
-68
-73
-78
-82
-87
-90
-91
-96
-100
-104
-109
-111
-110
-104
-102
-101
-95
-92
-86
-77
-69
-60
-50
-45
-39
-32
-27
-24
-23
-20
-16
-15
-13
-15
-15
-15
-16
-16
-15
-14
-13
-13
-13
-13
-16
-19
-20
-21
-19
-17
-15
-14
-13
-14
-16
-16
-15
-15
-16
-18
-19
-18
-18
-15
-15
-16
-17
-15
-16
-16
-18
-16
-14
-14
-15
-13
-13
-12
-13
-13
-13
-12
-13
-13
-11
-10
-12
-11
-10
-12
-14
-17
-17
-15
-15
-15
-15
-13
-15
-17
-17
-17
-15
-14
-12
-13
-13
-16
-19
-20
-21
-20
-15
-13
-13
-14
-16
-17
-16
-15
-15
-14
-14
-15
-17
-16
-15
-16
-15
-14
-16
-17
-18
-17
-16
-13
-9
-7
-6
-3
-1
0
2
3
2
0
0
6
7
2
0
0
0
2
2
2
1
0
0
-3
-7
-11
-16
-20
-20
-20
-23
-24
-23
-22
-23
-24
-25
-26
-24
-21
-20
-22
-23
-22
-12
-7
22
52
105
169
217
262
331
444
492
443
385
336
260
144
17
-62
-69
-52
-41
-43
-46
-43
-45
-47
-45
-46
-48
-45
-46
-48
-48
-47
-45
-45
-48
-44
-43
-45
-43
-43
-44
-45
-45
-44
-42
-45
-47
-45
-45
-45
-45
-49
-50
-50
-51
-52
-55
-55
-58
-61
-62
-67
-72
-75
-82
-86
-88
-93
-98
-101
-105
-110
-112
-113
-113
-111
-110
-106
-101
-96
-89
-79
-71
-66
-58
-51
-43
-36
-34
-30
-24
-22
-20
-20
-20
-20
-19
-17
-16
-16
-16
-14
-15
-16
-18
-18
-17
-18
-18
-15
-14
-17
-20
-21
-19
-15
-16
-17
-18
-20
-21
-21
-20
-15
-13
-14
-16
-17
-17
-17
-16
-13
-12
-12
-12
-12
-11
-11
-12
-12
-13
-13
-13
-14
-14
-12
-10
-12
-13
-12
-15
-15
-16
-16
-15
-17
-18
-15
-16
-13
-14
-15
-17
-18
-18
-20
-19
-16
-15
-15
-15
-18
-19
-18
-17
-17
-17
-17
-18
-20
-22
-18
-17
-16
-17
-18
-17
-17
-18
-20
-20
-20
-21
-20
-18
-15
-11
-8
-9
-9
-3
0
5
4
0
-1
3
7
4
0
-1
-2
-1
0
-1
0
0
0
-2
-8
-10
-15
-19
-21
-22
-24
-25
-26
-28
-29
-28
-26
-26
-30
-28
-26
-24
-25
-29
-20
-1
14
37
77
138
190
231
293
396
432
424
365
312
253
155
36
-60
-87
-69
-54
-50
-47
-47
-47
-48
-49
-49
-50
-50
-52
-51
-49
-48
-45
-45
-49
-46
-42
-46
-47
-50
-50
-49
-48
-45
-44
-46
-48
-51
-53
-50
-50
-51
-50
-52
-51
-52
-52
-56
-58
-66
-69
-70
-75
-82
-89
-93
-94
-97
-103
-108
-113
-117
-119
-122
-123
-122
-119
-119
-117
-109
-101
-93
-84
-81
-68
-57
-50
-49
-44
-34
-28
-29
-27
-19
-17
-17
-21
-23
-20
-19
-21
-21
-17
-17
-20
-22
-20
-17
-17
-22
-24
-21
-20
-22
-21
-22
-22
-21
-19
-17
-21
-26
-27
-22
-17
-18
-17
-15
-15
-15
-16
-17
-13
-12
-15
-19
-20
-19
-20
-17
-12
-11
-12
-10
-9
-13
-15
-16
-14
-12
-15
-17
-15
-19
-20
-22
-20
-19
-18
-13
-15
-17
-21
-27
-24
-17
-13
-12
-13
-16
-22
-25
-22
-20
-17
-19
-19
-17
-19
-23
-22
-22
-20
-17
-12
-9
-7
-5
-4
-2
0
0
0
1
2
-2
-5
-3
-4
2
2
-2
-4
-6
-5
-9
-15
-20
-22
-30
-25
-23
-25
-27
-27
-27
-26
-28
-31
-30
-27
-29
-33
-30
-27
-25
-14
3
23
54
105
171
223
239
362
480
513
465
405
341
250
127
0
-82
-93
-65
-52
-50
-47
-46
-47
-48
-50
-50
-50
-50
-49
-50
-51
-50
-48
-45
-44
-48
-48
-49
-50
-50
-50
-45
-45
-48
-48
-49
-49
-48
-47
-49
-49
-52
-52
-56
-56
-55
-58
-57
-62
-67
-70
-75
-79
-82
-86
-93
-99
-102
-107
-111
-118
-124
-126
-125
-127
-124
-121
-113
-109
-104
-102
-89
-80
-71
-59
-51
-46
-37
-34
-32
-24
-22
-21
-22
-24
-21
-14
-11
-12
-10
-12
-15
-18
-19
-18
-17
-17
-17
-19
-18
-18
-18
-18
-19
-22
-24
-24
-22
-18
-17
-19
-17
-17
-17
-19
-16
-15
-17
-16
-16
-16
-15
-15
-17
-13
-10
-10
-10
-9
-10
-11
-10
-13
-13
-13
-13
-12
-12
-14
-17
-17
-15
-15
-15
-18
-19
-21
-18
-16
-17
-17
-15
-17
-17
-19
-19
-18
-20
-18
-17
-18
-17
-18
-19
-19
-18
-18
-21
-22
-22
-21
-13
-8
-6
-4
-1
1
3
2
1
-3
-1
4
2
-1
-4
-6
-3
1
3
1
-1
0
-1
-6
-8
-16
-21
-25
-27
-24
-27
-31
-31
-28
-28
-29
-30
-26
-24
-24
-24
-25
-27
-22
-7
10
41
83
148
170
251
305
414
509
496
438
385
318
206
69
-42
-78
-64
-49
-43
-46
-49
-49
-50
-50
-49
-50
-50
-51
-52
-54
-53
-51
-50
-51
-53
-53
-50
-50
-47
-45
-49
-49
-50
-49
-48
-48
-50
-50
-51
-50
-52
-56
-57
-56
-56
-58
-60
-63
-64
-69
-76
-78
-82
-87
-91
-95
-100
-105
-109
-113
-116
-118
-120
-119
-116
-114
-109
-107
-105
-95
-87
-79
-68
-60
-54
-48
-42
-37
-32
-30
-27
-25
-22
-20
-19
-20
-21
-21
-20
-17
-17
-17
-18
-19
-22
-21
-19
-20
-22
-23
-23
-22
-21
-22
-26
-27
-25
-24
-24
-28
-28
-25
-20
-18
-18
-21
-21
-20
-20
-20
-20
-21
-21
-19
-20
-20
-18
-19
-21
-21
-21
-19
-15
-14
-16
-17
-17
-18
-18
-17
-19
-21
-21
-22
-20
-18
-16
-19
-21
-23
-26
-24
-23
-20
-21
-21
-21
-20
-20
-20
-23
-25
-24
-22
-24
-24
-24
-25
-25
-22
-22
-24
-24
-24
-21
-17
-12
-10
-9
-7
-4
-1
0
-4
-7
-2
0
0
-4
-7
-8
-7
-4
-3
-6
-6
-7
-11
-15
-20
-25
-30
-31
-31
-33
-36
-34
-30
-29
-32
-35
-33
-29
-30
-32
-33
-32
-31
-30
-10
6
33
75
141
196
237
300
409
485
462
407
353
281
170
40
-56
-83
-66
-51
-47
-49
-50
-50
-51
-53
-55
-54
-54
-56
-54
-56
-55
-54
-53
-55
-54
-53
-53
-50
-51
-51
-51
-50
-54
-57
-52
-52
-53
-51
-51
-52
-56
-57
-56
-58
-61
-63
-63
-66
-69
-74
-78
-81
-85
-90
-94
-97
-102
-105
-109
-113
-117
-121
-123
-126
-123
-120
-116
-113
-107
-100
-92
-83
-75
-67
-57
-50
-46
-40
-34
-31
-30
-28
-25
-24
-24
-24
-24
-24
-27
-26
-26
-23
-22
-22
-22
-26
-26
-24
-22
-21
-23
-27
-28
-24
-24
-27
-27
-27
-25
-25
-28
-29
-28
-25
-24
-24
-24
-22
-20
-21
-21
-20
-21
-21
-20
-21
-22
-23
-24
-22
-20
-18
-17
-20
-23
-22
-21
-21
-19
-20
-21
-23
-24
-22
-21
-20
-23
-25
-26
-23
-22
-24
-26
-27
-24
-22
-21
-22
-22
-25
-26
-25
-26
-27
-27
-27
-28
-28
-27
-24
-22
-22
-19
-16
-14
-10
-8
-4
-1
-1
-5
-6
-1
1
-3
-8
-10
-10
-3
-5
-8
-8
-7
-8
-15
-20
-21
-24
-28
-32
-32
-32
-35
-34
-34
-34
-36
-38
-35
-33
-36
-35
-34
-33
-34
-27
-11
2
24
63
123
175
213
265
363
428
395
337
288
233
145
31
-59
-84
-67
-51
-52
-54
-49
-49
-50
-53
-54
-54
-54
-52
-53
-52
-50
-51
-51
-51
-51
-54
-53
-51
-51
-50
-48
-49
-47
-49
-50
-50
-50
-50
-52
-51
-54
-54
-52
-53
-53
-58
-61
-62
-66
-68
-70
-76
-80
-82
-88
-92
-95
-100
-105
-106
-108
-110
-112
-113
-115
-113
-109
-103
-99
-93
-87
-80
-72
-68
-59
-53
-47
-40
-39
-35
-29
-24
-24
-27
-27
-24
-23
-25
-27
-24
-23
-22
-23
-25
-28
-29
-26
-24
-27
-29
-27
-26
-23
-25
-30
-29
-26
-26
-27
-27
-26
-22
-19
-19
-21
-23
-22
-24
-24
-22
-21
-21
-17
-15
-15
-18
-21
-22
-23
-21
-15
-16
-18
-20
-21
-21
-16
-14
-16
-20
-25
-24
-19
-18
-19
-20
-21
-16
-12
-9
-12
-19
-26
-25
-13
-9
-24
-43
-38
-33
-25
-20
-15
-11
-11
-8
-4
-1
0
2
0
-1
-3
-5
6
15
7
-10
-13
-4
-4
-7
-4
-17
-22
-22
-18
-28
-30
-24
-26
-28
-30
-32
-22
-20
-33
-39
-37
-27
-27
-30
-27
-10
-9
-11
5
48
88
100
166
220
299
392
414
358
299
262
209
121
10
-66
-77
-64
-54
-50
-46
-35
-28
-36
-39
-31
-32
-41
-42
-42
-41
-39
-42
-39
-47
-48
-39
-40
-30
-25
-37
-48
-40
-28
-29
-33
-33
-36
-44
-43
-39
-32
-34
-38
-38
-32
-37
-40
-50
-58
-53
-47
-44
-55
-68
-82
-98
-93
-90
-100
-100
-97
-98
-93
-99
-96
-67
-66
-67
-72
-89
-91
-77
-62
-42
-29
-28
-21
-20
-16
-16
4
13
-11
-15
-2
-4
-1
17
23
-2
-16
-14
-10
-1
-11
-10
2
0
-10
-8
-1
-2
7
16
13
6
7
-6
-23
-3
1
-11
-2
3
0
5
1
0
2
7
7
5
8
3
0
6
26
27
23
7
-2
-3
-1
2
8
15
0
-18
-8
0
-1
7
10
2
10
3
-10
-13
-3
0
-1
0
-5
-7
-3
-1
5
16
6
5
12
19
17
11
12
18
20
20
25
12
3
5
15
18
16
8
6
5
2
0
-3
-5
-8
-5
-6
-13
-18
-20
-20
-19
-19
-18
-17
-7
-7
-9
-19
-23
-18
-20
-7
20
50
97
160
203
241
308
409
444
403
348
306
248
152
35
-50
-66
-49
-34
-34
-36
-26
-27
-48
-57
-49
-41
-41
-44
-44
-40
-41
-45
-40
-38
-41
-39
-41
-35
-36
-38
-37
-36
-35
-36
-39
-36
-43
-50
-43
-37
-38
-42
-38
-38
-45
-54
-56
-54
-55
-59
-62
-59
-61
-79
-91
-92
-91
-93
-98
-98
-100
-102
-104
-109
-110
-106
-99
-92
-83
-77
-72
-65
-56
-46
-42
-34
-28
-25
-31
-31
-29
-20
-16
-17
-17
-16
-16
-13
-18
-19
-14
-12
-17
-16
-11
-15
-25
-29
-24
-22
-24
-24
-22
-19
-17
-17
-20
-19
-18
-17
-21
-21
-20
-19
-18
-17
-19
-17
-19
-22
-19
-15
-16
-19
-17
-17
-16
-17
-17
-17
-17
-14
-10
-7
-4
-10
-27
-29
-20
-17
-20
-20
-22
-21
-19
-16
-15
-17
-20
-22
-23
-20
-20
-18
-15
-14
-11
-10
-8
-4
-1
0
-3
-4
-2
0
2
-2
-6
-6
-4
0
0
0
-3
-2
-4
-8
-11
-16
-17
-24
-28
-30
-29
-27
-27
-28
-29
-29
-32
-34
-29
-27
-27
-30
-32
-29
-21
-7
12
40
80
136
182
194
276
380
426
390
340
298
247
158
47
-45
-73
-59
-43
-43
-49
-47
-45
-46
-50
-51
-49
-50
-51
-48
-48
-48
-46
-45
-48
-47
-48
-46
-47
-45
-41
-46
-47
-45
-45
-45
-46
-47
-46
-47
-50
-48
-46
-50
-51
-50
-51
-55
-58
-60
-62
-66
-70
-73
-76
-82
-89
-93
-94
-98
-101
-102
-104
-106
-105
-101
-100
-96
-91
-90
-89
-73
-69
-63
-53
-47
-40
-36
-32
-31
-25
-22
-24
-23
-23
-23
-24
-24
-25
-25
-24
-24
-23
-24
-26
-27
-24
-26
-29
-31
-28
-27
-31
-30
-26
-25
-28
-31
-31
-27
-23
-25
-28
-28
-28
-27
-24
-26
-27
-26
-24
-24
-26
-27
-25
-21
-22
-29
-31
-29
-25
-23
-27
-27
-26
-23
-23
-23
-22
-22
-21
-21
-23
-27
-29
-28
-30
-30
-29
-30
-25
-23
-27
-27
-25
-22
-22
-20
-18
-13
-10
-13
-9
-7
-10
-4
-1
-8
-13
-13
-12
-11
-10
-10
-13
-13
-14
-17
-18
-23
-31
-36
-41
-43
-40
-36
-36
-38
-38
-37
-40
-40
-36
-37
-43
-44
-39
-37
-31
-20
-8
17
52
105
161
199
246
347
424
400
339
289
242
164
49
-59
-99
-80
-58
-57
-58
-55
-56
-55
-59
-58
-58
-56
-59
-57
-56
-58
-58
-56
-56
-61
-57
-57
-60
-57
-53
-57
-57
-58
-56
-54
-52
-55
-55
-56
-57
-61
-63
-62
-61
-66
-69
-66
-67
-71
-75
-81
-84
-87
-95
-100
-100
-106
-114
-115
-114
-117
-117
-121
-126
-123
-120
-120
-111
-101
-98
-92
-84
-77
-68
-62
-54
-49
-42
-41
-39
-36
-34
-32
-34
-34
-30
-37
-41
-33
-28
-29
-30
-34
-32
-30
-33
-33
-29
-29
-29
-31
-33
-31
-32
-34
-31
-35
-36
-32
-31
-32
-35
-32
-26
-23
-25
-27
-28
-24
-22
-28
-30
-27
-25
-23
-25
-28
-23
-22
-26
-30
-28
-27
-20
-17
-19
-22
-25
-24
-23
-24
-27
-28
-28
-25
-27
-24
-24
-27
-24
-27
-24
-20
-17
-16
-12
-6
-3
-5
-6
-8
-9
-5
-2
-7
-12
-13
-11
-9
-4
-5
-11
-10
-13
-17
-20
-25
-29
-31
-31
-35
-39
-31
-29
-31
-38
-38
-36
-32
-29
-29
-34
-35
-34
-34
-26
-8
6
33
83
145
190
225
293
408
455
414
354
310
299
149
31
-55
-75
-57
-47
-50
-49
-48
-53
-55
-53
-50
-52
-50
-48
-54
-51
-49
-50
-54
-53
-52
-50
-49
-46
-48
-50
-47
-44
-51
-54
-48
-49
-50
-47
-48
-52
-50
-46
-51
-60
-59
-56
-57
-57
-66
-71
-69
-70
-82
-81
-80
-88
-94
-97
-97
-104
-109
-105
-106
-109
-105
-99
-92
-90
-87
-76
-66
-67
-59
-48
-43
-43
-42
-32
-31
-30
-25
-24
-27
-25
-20
-19
-25
-27
-24
-27
-26
-22
-24
-24
-24
-26
-26
-25
-21
-24
-27
-27
-24
-28
-25
-25
-24
-17
-17
-26
-30
-26
-24
-24
-21
-24
-27
-22
-21
-22
-25
-24
-23
-21
-21
-23
-22
-21
-26
-22
-17
-19
-19
-20
-19
-20
-25
-20
-18
-18
-18
-19
-19
-22
-24
-21
-21
-23
-21
-20
-23
-24
-18
-23
-24
-24
-17
-21
-29
-28
-25
-18
-16
-12
-8
-10
-5
0
1
-2
-7
-4
0
1
-4
-13
-14
-3
-4
-3
-2
-8
-8
-9
-12
-13
-18
-30
-34
-26
-27
-31
-26
-29
-34
-33
-33
-31
-23
-31
-39
-38
-30
-28
-31
-20
-2
11
36
81
139
180
208
265
369
422
380
333
298
247
160
51
-40
-60
-50
-42
-41
-41
-41
-46
-49
-50
-51
-52
-48
-45
-48
-47
-45
-48
-47
-45
-47
-47
-45
-45
-47
-47
-44
-39
-45
-48
-40
-40
-45
-49
-50
-49
-50
-46
-43
-51
-52
-51
-57
-56
-56
-65
-65
-69
-78
-77
-76
-76
-84
-89
-88
-96
-98
-100
-94
-88
-95
-95
-93
-88
-77
-70
-66
-63
-53
-43
-39
-31
-21
-31
-35
-26
-19
-17
-20
-20
-26
-23
-19
-18
-21
-22
-22
-22
-23
-16
-19
-24
-22
-20
-22
-20
-21
-24
-23
-25
-28
-20
-15
-21
-22
-24
-27
-17
-19
-27
-22
-22
-21
-20
-22
-25
-29
-24
-20
-19
-20
-19
-20
-21
-24
-20
-17
-16
-18
-20
-21
-18
-19
-19
-16
-27
-25
-22
-20
-18
-20
-22
-19
-15
-22
-21
-19
-21
-23
-23
-24
-17
-16
-20
-19
-10
-6
-1
-4
0
4
-7
-20
-7
-2
-4
-5
-4
-3
-3
-6
-5
-4
-7
-6
-5
-8
-20
-29
-31
-35
-33
-32
-34
-31
-28
-30
-32
-34
-31
-33
-36
-35
-30
-28
-29
-18
-5
9
40
82
138
177
208
219
358
402
367
320
283
231
145
37
-48
-64
-52
-51
-49
-46
-48
-50
-50
-50
-46
-47
-50
-53
-53
-51
-50
-48
-49
-46
-47
-50
-49
-50
-48
-49
-49
-46
-42
-43
-50
-51
-48
-48
-50
-49
-50
-50
-49
-51
-56
-56
-54
-61
-63
-65
-70
-71
-71
-74
-78
-85
-89
-90
-93
-100
-100
-102
-99
-97
-100
-102
-96
-85
-80
-80
-78
-62
-57
-54
-50
-42
-38
-41
-35
-25
-23
-28
-34
-29
-22
-22
-27
-27
-27
-25
-28
-27
-25
-27
-27
-27
-24
-25
-26
-24
-24
-25
-27
-27
-28
-29
-26
-24
-29
-29
-27
-29
-30
-25
-27
-33
-32
-27
-23
-29
-31
-27
-27
-27
-21
-21
-27
-26
-24
-23
-20
-24
-27
-27
-25
-24
-23
-24
-28
-24
-20
-17
-18
-25
-19
-15
-12
-10
-9
-8
-2
-1
-10
-12
-1
-3
-9
-8
-6
-3
-2
-4
-9
-11
-8
-6
-15
-23
-24
-32
-35
-31
-29
-31
-39
-41
-38
-37
-31
-31
-35
-37
-34
-36
-36
-34
-36
-29
-12
7
38
75
128
173
204
213
347
399
359
312
271
217
140
31
-63
-78
-64
-57
-51
-48
-48
-44
-46
-50
-51
-55
-52
-50
-45
-48
-50
-47
-46
-48
-54
-51
-44
-42
-48
-49
-47
-48
-49
-50
-48
-40
-41
-48
-50
-50
-49
-50
-49
-50
-54
-55
-54
-63
-62
-58
-58
-70
-82
-82
-81
-81
-87
-93
-96
-98
-101
-104
-102
-99
-98
-95
-91
-87
-85
-75
-70
-55
-57
-50
-41
-32
-35
-38
-27
-16
-24
-30
-27
-23
-17
-21
-24
-24
-18
-17
-27
-29
-24
-20
-25
-27
-28
-28
-27
-25
-20
-24
-27
-27
-26
-22
-24
-24
-26
-27
-21
-19
-21
-23
-25
-22
-20
-21
-21
-22
-22
-17
-16
-16
-16
-15
-20
-20
-20
-18
-13
-10
-12
-19
-18
-16
-20
-19
-18
-16
-15
-19
-24
-25
-17
-13
-22
-21
-23
-21
-15
-17
-22
-19
-16
-15
-13
-10
-5
-1
0
-1
-2
-1
-2
-3
0
0
-6
-6
-4
-3
-7
-7
-6
-9
-11
-7
-19
-28
-28
-29
-31
-31
-29
-31
-32
-34
-34
-31
-31
-34
-32
-27
-34
-38
-30
-23
-7
12
44
80
127
169
202
255
354
400
364
316
279
232
153
56
-43
-76
-58
-43
-43
-47
-48
-45
-47
-46
-50
-51
-51
-54
-49
-44
-46
-48
-47
-47
-43
-46
-50
-50
-47
-41
-44
-49
-44
-42
-43
-43
-42
-46
-46
-49
-42
-42
-50
-50
-49
-52
-54
-58
-58
-63
-65
-68
-70
-70
-75
-83
-83
-85
-93
-99
-100
-91
-95
-97
-94
-93
-89
-86
-80
-70
-66
-62
-54
-46
-38
-30
-34
-36
-24
-21
-22
-25
-23
-20
-18
-19
-27
-26
-22
-19
-17
-17
-22
-20
-18
-21
-25
-26
-22
-20
-22
-21
-24
-23
-25
-28
-25
-21
-20
-24
-26
-24
-23
-22
-22
-21
-21
-20
-21
-18
-15
-19
-25
-25
-20
-16
-15
-10
-16
-22
-20
-16
-18
-20
-16
-15
-18
-20
-18
-17
-18
-18
-18
-24
-26
-23
-18
-17
-17
-22
-26
-24
-21
-18
-20
-22
-20
-24
-21
-20
-22
-22
-20
-22
-21
-22
-27
-25
-20
-16
-11
-10
-9
-12
-12
-3
0
-1
-5
-3
-1
-2
-2
-3
-3
-4
-5
-7
-5
-6
-6
-7
-12
-15
-19
-23
-30
-33
-27
-24
-29
-34
-30
-28
-32
-42
-39
-32
-31
-33
-33
-31
-32
-28
-18
-3
20
50
93
148
186
218
287
381
397
345
296
266
212
119
9
-64
-66
-51
-48
-47
-45
-42
-45
-48
-46
-45
-45
-44
-47
-47
-43
-46
-50
-46
-44
-43
-45
-44
-42
-43
-41
-39
-36
-39
-43
-41
-43
-44
-48
-47
-43
-48
-44
-44
-52
-52
-50
-52
-52
-57
-63
-66
-70
-76
-79
-76
-82
-90
-96
-95
-98
-101
-102
-104
-103
-103
-100
-92
-91
-87
-80
-73
-62
-55
-52
-43
-36
-32
-31
-26
-18
-18
-20
-18
-18
-23
-19
-16
-15
-16
-17
-17
-14
-13
-17
-20
-17
-16
-17
-19
-18
-16
-15
-15
-19
-22
-23
-21
-20
-21
-14
-11
-17
-18
-15
-16
-16
-12
-16
-18
-18
-20
-18
-13
-10
-11
-8
-8
-13
-11
-12
-15
-13
-20
-22
-11
-9
-7
-13
-17
-15
-17
-17
-14
-12
-15
-15
-14
-18
-20
-19
-16
-11
-8
-20
-19
-14
-22
-23
-21
-15
-16
-17
-16
-15
-20
-23
-16
-14
-18
-20
-17
-16
-13
-20
-27
-19
-11
-10
-7
-1
0
-1
0
0
0
-1
0
3
3
1
-3
-3
-1
3
1
-4
-1
-1
-6
-10
-12
-19
-24
-24
-25
-27
-28
-29
-29
-27
-28
-31
-29
-25
-29
-29
-28
-27
-29
-24
-12
1
17
41
81
137
184
217
273
374
432
397
344
329
247
156
48
-41
-71
-57
-41
-39
-44
-48
-44
-44
-48
-45
-42
-47
-45
-44
-47
-44
-46
-49
-45
-44
-43
-39
-45
-47
-44
-41
-42
-49
-45
-38
-42
-45
-48
-45
-41
-44
-48
-46
-48
-48
-49
-51
-53
-54
-62
-66
-67
-74
-76
-78
-81
-85
-91
-95
-96
-93
-97
-106
-108
-100
-98
-96
-93
-85
-79
-78
-70
-60
-52
-48
-46
-40
-36
-31
-28
-24
-21
-29
-24
-21
-20
-20
-17
-21
-21
-20
-21
-20
-23
-22
-21
-21
-15
-15
-24
-27
-23
-19
-21
-21
-16
-21
-25
-23
-22
-21
-23
-23
-20
-20
-18
-18
-20
-20
-19
-16
-14
-17
-21
-21
-20
-17
-17
-16
-14
-13
-15
-16
-17
-14
-13
-19
-20
-16
-12
-15
-19
-14
-18
-24
-23
-17
-18
-23
-23
-22
-18
-21
-25
-24
-21
-19
-17
-15
-16
-22
-24
-22
-21
-25
-23
-21
-21
-15
-16
-29
-26
-20
-20
-24
-24
-22
-21
-22
-24
-22
-19
-20
-25
-24
-20
-21
-23
-18
-20
-23
-22
-22
-18
-18
-22
-20
-17
-15
-11
-8
-2
-1
-1
0
-1
-1
0
0
0
-3
-3
0
1
-1
-3
-3
-3
-2
-10
-13
-14
-22
-31
-34
-33
-26
-25
-28
-28
-29
-28
-27
-30
-33
-32
-28
-26
-26
-29
-27
-17
2
22
53
98
147
182
216
283
311
396
349
306
281
227
129
14
-53
-58
-46
-38
-40
-44
-46
-44
-47
-48
-45
-46
-50
-51
-50
-50
-50
-50
-43
-44
-48
-50
-49
-43
-45
-46
-42
-46
-49
-45
-42
-46
-50
-48
-45
-45
-49
-50
-48
-52
-56
-53
-51
-58
-64
-66
-66
-66
-73
-77
-79
-80
-82
-90
-96
-97
-97
-99
-104
-102
-100
-99
-95
-88
-82
-82
-74
-70
-57
-49
-48
-39
-32
-34
-34
-28
-25
-23
-22
-17
-15
-19
-23
-21
-21
-22
-22
-17
-13
-13
-16
-18
-17
-18
-16
-17
-18
-20
-24
-22
-18
-16
-20
-18
-17
-18
-21
-19
-16
-16
-15
-15
-16
-15
-13
-17
-20
-20
-17
-12
-10
-18
-15
-11
-13
-9
-7
-7
-11
-15
-14
-14
-16
-17
-15
-13
-14
-16
-17
-15
-17
-19
-17
-8
-8
-11
-18
-21
-18
-13
-21
-22
-16
-18
-20
-21
-21
-16
-16
-17
-17
-18
-20
-19
-18
-19
-23
-24
-20
-23
-22
-16
-13
-18
-24
-23
-20
-17
-16
-19
-20
-20
-20
-20
-17
-14
-22
-21
-17
-22
-25
-21
-20
-21
-22
-22
-21
-17
-19
-20
-23
-23
-18
-21
-21
-16
-17
-24
-20
-14
-19
-24
-22
-24
-21
-15
-14
-13
-5
-8
-10
-4
0
0
0
-2
-1
3
1
-1
-2
-2
0
-1
0
1
0
-1
-2
-10
-16
-21
-22
-22
-26
-27
-27
-26
-22
-25
-25
-24
-28
-30
-29
-28
-27
-30
-26
-17
-6
6
27
61
119
165
200
213
351
423
394
341
304
264
174
61
-35
-64
-51
-42
-43
-43
-46
-45
-43
-41
-46
-51
-50
-44
-45
-48
-48
-49
-46
-45
-46
-48
-48
-44
-43
-43
-44
-46
-45
-44
-38
-41
-46
-45
-44
-43
-48
-45
-45
-50
-57
-58
-53
-57
-58
-59
-62
-70
-74
-77
-79
-86
-92
-93
-91
-95
-101
-111
-113
-110
-109
-110
-110
-106
-100
-94
-92
-76
-71
-65
-55
-50
-45
-41
-34
-26
-20
-19
-19
-22
-21
-18
-20
-19
-18
-18
-20
-16
-12
-15
-20
-21
-20
-20
-17
-14
-13
-17
-22
-20
-18
-21
-21
-18
-16
-13
-18
-23
-17
-13
-13
-15
-15
-17
-20
-20
-18
-10
-10
-10
-13
-16
-15
-15
-13
-14
-14
-13
-8
-6
-13
-15
-17
-19
-17
-15
-15
-14
-13
-15
-17
-18
-16
-20
-20
-17
-15
-14
-19
-18
-21
-24
-21
-16
-15
-13
-13
-24
-25
-22
-20
-19
-17
-17
-19
-23
-23
-15
-16
-20
-20
-20
-20
-21
-21
-17
-11
-15
-21
-22
-22
-24
-21
-18
-16
-21
-23
-16
-9
-9
-7
-5
0
1
0
1
0
1
3
1
0
0
0
-2
1
0
1
-3
-2
0
-7
-14
-16
-20
-24
-21
-21
-25
-29
-27
-25
-23
-25
-28
-27
-21
-22
-26
-28
-26
-22
-12
1
25
50
93
146
185
221
282
375
401
361
310
278
230
142
26
-55
-58
-40
-37
-40
-40
-44
-46
-43
-43
-43
-38
-43
-48
-45
-43
-43
-43
-42
-41
-42
-43
-43
-37
-36
-39
-42
-41
-38
-40
-44
-42
-39
-41
-42
-41
-39
-41
-46
-45
-47
-50
-49
-48
-50
-55
-59
-61
-64
-70
-72
-73
-76
-84
-88
-91
-91
-92
-96
-98
-98
-95
-92
-88
-82
-75
-72
-66
-63
-49
-44
-39
-31
-29
-27
-22
-17
-13
-12
-14
-15
-15
-16
-19
-15
-10
-12
-15
-17
-14
-14
-15
-16
-15
-12
-14
-15
-16
-16
-15
-15
-16
-17
-19
-19
-18
-18
-14
-14
-19
-17
-16
-20
-22
-18
-12
-9
-11
-13
-15
-13
-14
-12
-10
-13
-16
-10
-6
-14
-16
-13
-11
-7
-9
-13
-10
-9
-15
-14
-9
-7
-10
-13
-15
-14
-13
-17
-13
-10
-15
-17
-15
-16
-15
-16
-15
-12
-15
-13
-14
-20
-18
-19
-18
-12
-12
-19
-21
-22
-20
-18
-15
-11
-11
-19
-19
-16
-18
-15
-14
-13
-10
-7
-8
-5
-3
0
3
4
2
2
6
7
6
1
0
0
2
4
1
0
0
0
-6
-13
-15
-18
-21
-25
-27
-24
-19
-20
-23
-29
-32
-26
-22
-21
-22
-26
-27
-20
-21
-17
-5
9
36
67
118
163
200
249
335
401
363
313
276
245
170
63
-34
-67
-69
-44
-43
-46
-42
-40
-44
-45
-41
-40
-43
-43
-45
-43
-41
-44
-45
-41
-37
-44
-44
-39
-38
-39
-41
-41
-35
-37
-44
-47
-43
-38
-40
-42
-41
-43
-44
-44
-45
-43
-46
-53
-54
-56
-57
-62
-63
-67
-72
-78
-80
-83
-86
-94
-99
-98
-94
-97
-102
-103
-98
-95
-91
-84
-78
-70
-65
-55
-44
-41
-41
-35
-27
-20
-17
-18
-16
-21
-19
-13
-15
-16
-13
-12
-15
-21
-19
-14
-10
-10
-9
-13
-13
-14
-19
-20
-17
-10
-8
-14
-15
-18
-16
-19
-16
-13
-9
-8
-9
-11
-9
-11
-20
-13
-8
-14
-13
-7
-6
-9
-9
-5
-5
-8
-12
-11
-3
-6
-4
-9
-10
-6
-14
-13
-8
-10
-13
-9
-9
-9
-12
-11
-8
-7
-13
-14
-14
-15
-11
-9
-10
-17
-11
-9
-15
-16
-15
-15
-17
-16
-15
-15
-11
-4
-6
-6
-1
-1
0
3
5
6
1
-1
3
6
4
1
4
7
1
1
4
1
0
-1
-8
-8
-10
-13
-19
-24
-20
-19
-27
-28
-24
-19
-16
-16
-17
-25
-24
-23
-20
-22
-17
-13
-1
28
57
98
157
201
246
323
434
465
411
349
304
233
128
7
-64
-75
-49
-35
-43
-44
-41
-41
-43
-37
-35
-42
-43
-46
-43
-36
-41
-46
-42
-42
-41
-37
-38
-37
-34
-35
-36
-37
-36
-36
-37
-39
-43
-39
-38
-40
-41
-41
-42
-47
-48
-46
-49
-48
-49
-57
-62
-62
-69
-74
-79
-80
-80
-86
-94
-97
-96
-102
-104
-104
-106
-103
-100
-98
-91
-85
-77
-68
-58
-51
-45
-39
-32
-24
-22
-21
-20
-19
-20
-18
-10
-11
-13
-16
-17
-14
-12
-11
-15
-12
-12
-10
-10
-16
-18
-15
-14
-15
-15
-17
-19
-20
-18
-18
-14
-12
-13
-16
-17
-13
-13
-16
-13
-14
-11
-13
-16
-15
-14
-13
-13
-13
-11
-8
-8
-9
-8
-8
-9
-11
-14
-10
-9
-13
-10
-9
-8
-12
-15
-11
-9
-13
-15
-15
-14
-14
-12
-12
-10
-13
-15
-16
-18
-16
-20
-18
-13
-11
-14
-19
-17
-13
-19
-21
-15
-12
-13
-16
-15
-11
-8
-7
-4
2
7
13
16
2
-1
2
5
6
1
-1
0
3
6
2
-1
-1
0
-6
-8
-8
-13
-21
-26
-27
-25
-21
-18
-17
-30
-28
-26
-21
-19
-25
-28
-27
-26
-19
-10
3
25
54
96
151
193
227
288
392
432
393
344
304
292
154
41
-33
-50
-39
-31
-38
-39
-38
-37
-40
-43
-43
-42
-43
-45
-43
-41
-43
-42
-38
-40
-45
-43
-43
-38
-37
-47
-43
-36
-37
-41
-37
-35
-41
-43
-43
-40
-38
-43
-46
-44
-42
-44
-49
-54
-53
-54
-58
-61
-65
-65
-70
-74
-78
-79
-83
-89
-94
-93
-95
-94
-91
-92
-92
-85
-76
-67
-63
-62
-54
-49
-43
-39
-37
-26
-21
-22
-25
-21
-19
-17
-16
-16
-14
-18
-18
-19
-20
-14
-15
-20
-18
-17
-19
-17
-16
-20
-21
-20
-13
-14
-20
-22
-18
-18
-16
-17
-19
-18
-22
-22
-18
-13
-14
-17
-16
-17
-17
-18
-17
-15
-15
-10
-8
-13
-13
-15
-16
-13
-12
-14
-13
-7
-8
-10
-10
-13
-15
-14
-13
-12
-10
-10
-12
-15
-17
-15
-15
-15
-12
-11
-11
-16
-17
-19
-21
-16
-13
-10
-11
-14
-15
-15
-16
-16
-14
-12
-15
-15
-12
-8
-6
-6
-4
2
3
0
0
-2
2
5
4
3
0
0
3
4
2
2
1
-1
-3
-4
-9
-13
-16
-19
-23
-25
-23
-21
-26
-25
-25
-26
-24
-26
-27
-26
-27
-28
-29
-22
-12
0
19
48
85
132
170
200
248
336
366
354
304
277
238
157
53
-31
-55
-49
-36
-35
-39
-42
-40
-41
-45
-44
-42
-40
-42
-46
-43
-36
-41
-45
-41
-42
-42
-38
-40
-43
-41
-40
-39
-39
-40
-44
-42
-40
-40
-38
-37
-42
-48
-48
-45
-44
-47
-51
-51
-51
-56
-61
-62
-61
-64
-73
-80
-83
-81
-89
-91
-92
-90
-94
-100
-96
-96
-91
-85
-79
-73
-70
-64
-61
-45
-33
-40
-42
-36
-35
-32
-26
-22
-19
-17
-19
-21
-19
-19
-20
-22
-23
-26
-24
-19
-15
-15
-22
-24
-23
-25
-25
-25
-16
-13
-22
-28
-27
-24
-24
-20
-15
-19
-24
-24
-24
-21
-26
-24
-19
-18
-18
-17
-19
-21
-15
-16
-20
-16
-12
-15
-20
-18
-15
-14
-14
-19
-22
-23
-18
-16
-13
-17
-23
-23
-21
-20
-20
-20
-19
-18
-21
-24
-22
-21
-17
-15
-14
-15
-17
-16
-8
-1
-1
-1
-5
-8
-3
-2
0
0
-3
-3
-3
-3
-1
0
-3
-3
-8
-14
-18
-20
-24
-29
-28
-23
-26
-33
-34
-27
-24
-30
-34
-32
-23
-26
-34
-34
-27
-18
-16
-4
19
36
63
123
183
222
270
369
440
414
359
304
238
152
47
-50
-86
-72
-51
-46
-45
-48
-49
-42
-44
-48
-48
-46
-44
-43
-49
-51
-50
-47
-43
-46
-48
-40
-38
-45
-50
-44
-38
-40
-48
-49
-37
-45
-52
-46
-43
-43
-51
-48
-46
-48
-50
-51
-57
-61
-58
-58
-66
-74
-76
-81
-84
-88
-97
-102
-103
-101
-109
-116
-108
-106
-111
-112
-105
-92
-87
-82
-71
-61
-53
-49
-43
-36
-32
-29
-30
-25
-19
-14
-17
-19
-17
-23
-25
-22
-18
-17
-17
-20
-19
-17
-18
-17
-16
-21
-29
-28
-16
-14
-23
-23
-19
-22
-24
-23
-22
-14
-19
-25
-19
-10
-11
-16
-19
-18
-17
-18
-14
-8
-9
-15
-11
-12
-12
-10
-4
-6
-10
-17
-18
-16
-12
-7
-8
-13
-15
-16
-19
-13
-11
-14
-14
-10
-11
-11
-14
-19
-22
-19
-17
-13
-8
-14
-16
-14
-13
-3
0
-2
-3
0
-2
-8
-2
9
10
4
-3
-3
0
7
0
-8
-8
-2
0
0
-7
-15
-19
-20
-23
-26
-30
-26
-20
-20
-17
-21
-22
-26
-28
-22
-22
-29
-28
-18
0
17
41
88
160
217
252
311
336
515
499
444
384
323
214
87
-24
-82
-73
-50
-38
-40
-42
-41
-43
-42
-40
-48
-50
-50
-48
-45
-45
-45
-46
-40
-38
-44
-41
-46
-45
-45
-45
-45
-43
-40
-40
-42
-43
-49
-45
-42
-42
-41
-53
-54
-48
-50
-51
-57
-61
-65
-68
-62
-67
-77
-83
-88
-95
-99
-98
-101
-104
-109
-114
-115
-110
-108
-104
-97
-92
-87
-80
-77
-63
-56
-49
-42
-39
-30
-24
-28
-24
-17
-18
-24
-20
-16
-16
-18
-18
-21
-24
-18
-17
-19
-22
-22
-22
-20
-17
-15
-19
-25
-25
-20
-19
-20
-16
-29
-31
-22
-19
-18
-16
-16
-14
-18
-20
-18
-16
-17
-21
-20
-19
-22
-16
-14
-14
-10
-13
-15
-15
-17
-17
-16
-11
-7
-6
-13
-17
-16
-14
-18
-18
-14
-15
-17
-18
-18
-11
-14
-15
-12
-8
-8
-8
-7
0
0
-1
-1
0
0
2
2
0
-6
-10
-1
0
-1
-4
-3
-5
-12
-17
-18
-16
-21
-30
-34
-32
-29
-29
-27
-21
-23
-34
-34
-28
-30
-33
-26
-21
-25
-19
0
6
60
108
165
207
248
317
430
482
446
384
329
253
148
30
-53
-73
-56
-37
-43
-50
-46
-47
-50
-55
-55
-49
-51
-51
-52
-50
-48
-52
-50
-48
-48
-50
-48
-44
-45
-50
-49
-43
-44
-50
-50
-47
-47
-50
-49
-47
-51
-48
-50
-56
-55
-55
-59
-60
-60
-69
-73
-72
-77
-84
-85
-90
-89
-92
-99
-101
-104
-107
-107
-103
-100
-97
-96
-92
-84
-77
-72
-63
-55
-53
-49
-44
-36
-35
-34
-31
-25
-21
-25
-30
-25
-23
-28
-30
-31
-30
-23
-22
-24
-25
-24
-28
-27
-28
-29
-28
-25
-22
-24
-30
-31
-29
-29
-29
-24
-28
-31
-29
-27
-28
-29
-24
-27
-31
-28
-27
-29
-29
-29
-21
-18
-21
-24
-25
-23
-22
-21
-25
-26
-25
-21
-18
-17
-20
-24
-24
-22
-21
-19
-18
-21
-24
-26
-24
-22
-22
-24
-21
-22
-29
-28
-26
-26
-21
-19
-26
-28
-22
-19
-20
-20
-14
-11
-10
-3
0
0
-6
-4
-1
-5
-5
-8
-8
-3
-5
-10
-10
-9
-10
-8
-8
-8
-19
-27
-28
-28
-29
-28
-32
-32
-31
-36
-36
-31
-33
-38
-34
-31
-34
-36
-31
-21
-4
12
37
68
118
161
189
199
325
412
400
351
305
258
183
81
-12
-52
-52
-43
-40
-43
-46
-48
-50
-50
-51
-48
-46
-46
-45
-50
-50
-53
-51
-50
-51
-46
-44
-49
-49
-48
-50
-50
-49
-48
-45
-47
-48
-45
-44
-47
-47
-52
-52
-51
-53
-54
-56
-58
-61
-63
-64
-70
-75
-78
-79
-80
-82
-91
-95
-96
-96
-96
-96
-99
-100
-99
-96
-88
-79
-73
-71
-64
-60
-54
-49
-42
-37
-39
-35
-26
-24
-32
-30
-25
-24
-24
-25
-27
-29
-24
-20
-22
-25
-25
-23
-22
-23
-22
-24
-26
-22
-22
-25
-26
-25
-24
-25
-24
-24
-25
-25
-23
-22
-24
-26
-28
-25
-23
-27
-26
-24
-21
-23
-23
-23
-24
-22
-20
-25
-27
-26
-23
-21
-20
-22
-23
-18
-17
-19
-19
-22
-22
-20
-20
-17
-17
-27
-30
-28
-25
-23
-27
-24
-23
-24
-24
-24
-20
-21
-24
-22
-20
-24
-24
-23
-23
-20
-16
-12
-15
-16
-7
-3
-1
-4
-10
-12
-7
-1
0
1
-6
-11
-3
-2
-6
-7
-11
-13
-14
-16
-18
-25
-31
-30
-31
-30
-33
-32
-30
-32
-30
-32
-34
-33
-29
-35
-35
-30
-30
-25
-8
5
26
56
101
148
172
205
284
316
368
327
291
261
200
101
-5
-58
-59
-46
-39
-45
-47
-43
-39
-46
-50
-48
-50
-49
-47
-48
-52
-48
-45
-46
-48
-45
-47
-46
-45
-51
-51
-50
-50
-44
-43
-43
-43
-45
-48
-49
-49
-48
-50
-54
-50
-47
-50
-51
-63
-66
-66
-68
-68
-70
-79
-81
-83
-90
-91
-93
-97
-100
-100
-104
-101
-99
-97
-93
-91
-86
-79
-71
-68
-56
-55
-49
-40
-35
-30
-28
-26
-25
-24
-24
-24
-22
-21
-30
-29
-21
-18
-12
-21
-29
-24
-21
-23
-25
-22
-23
-25
-21
-20
-22
-25
-22
-20
-24
-26
-27
-26
-25
-22
-31
-31
-23
-19
-17
-23
-27
-27
-26
-24
-21
-22
-18
-22
-19
-13
-15
-17
-16
-18
-20
-17
-19
-20
-19
-20
-20
-20
-20
-19
-17
-14
-10
-20
-23
-22
-18
-17
-17
-19
-22
-24
-18
-18
-21
-19
-20
-16
-16
-21
-20
-23
-25
-20
-19
-16
-9
-8
-7
-5
0
0
0
-2
-3
0
0
-4
-4
-2
-4
-3
0
0
-2
-6
-8
-10
-13
-15
-18
-24
-27
-27
-27
-20
-27
-34
-30
-29
-28
-24
-29
-31
-26
-26
-30
-29
-18
-4
14
46
91
147
194
234
302
413
462
459
364
314
245
149
39
-53
-76
-57
-42
-42
-47
-47
-44
-46
-46
-43
-43
-44
-50
-50
-46
-44
-49
-48
-47
-45
-42
-41
-44
-45
-46
-48
-44
-41
-41
-43
-42
-43
-45
-48
-43
-43
-49
-51
-53
-55
-51
-54
-57
-56
-63
-66
-70
-73
-75
-78
-87
-94
-94
-94
-99
-102
-106
-109
-109
-106
-103
-99
-96
-92
-85
-75
-68
-61
-59
-44
-43
-43
-33
-29
-29
-25
-24
-21
-19
-22
-22
-19
-19
-22
-24
-27
-25
-24
-18
-15
-17
-20
-25
-27
-22
-21
-22
-22
-24
-27
-24
-21
-19
-18
-21
-24
-24
-20
-18
-21
-18
-14
-19
-18
-16
-19
-19
-16
-17
-13
-14
-17
-15
-13
-14
-16
-14
-12
-15
-19
-17
-14
-15
-16
-18
-16
-10
-13
-18
-20
-19
-19
-20
-19
-18
-17
-16
-17
-17
-18
-21
-21
-22
-20
-20
-20
-20
-19
-19
-24
-19
-15
-17
-18
-15
-12
-13
-10
-8
0
2
0
-2
-4
-1
1
1
0
-3
-2
-3
-2
0
0
-3
-4
-7
-11
-14
-18
-21
-26
-27
-27
-26
-24
-26
-30
-28
-25
-25
-28
-29
-29
-30
-28
-30
-28
-9
6
24
58
105
156
193
227
299
401
426
376
328
286
216
122
19
-43
-52
-41
-34
-42
-42
-42
-47
-47
-47
-48
-46
-46
-46
-45
-43
-46
-42
-39
-43
-45
-45
-43
-41
-44
-46
-40
-36
-39
-45
-45
-43
-43
-43
-45
-45
-47
-50
-47
-45
-48
-50
-53
-55
-58
-58
-64
-68
-65
-71
-79
-84
-86
-89
-90
-88
-91
-96
-98
-97
-94
-90
-88
-85
-79
-68
-62
-59
-56
-46
-39
-33
-28
-25
-24
-24
-25
-23
-24
-21
-18
-14
-14
-24
-24
-20
-18
-19
-20
-22
-23
-25
-20
-18
-15
-15
-20
-20
-15
-18
-24
-21
-19
-21
-23
-21
-20
-20
-22
-22
-20
-19
-20
-21
-17
-20
-22
-21
-20
-16
-18
-17
-17
-18
-17
-16
-16
-14
-13
-13
-13
-14
-19
-20
-20
-15
-14
-16
-16
-16
-16
-17
-17
-15
-17
-20
-20
-18
-17
-20
-20
-20
-22
-26
-25
-20
-16
-13
-13
-15
-17
-15
-20
-21
-15
-14
-20
-21
-20
-15
-17
-15
-17
-20
-21
-22
-22
-20
-16
-12
-10
-8
-5
-1
0
1
2
0
0
8
10
1
-5
-6
0
2
0
0
0
-1
-1
-4
-7
-20
-23
-25
-29
-26
-25
-24
-25
-28
-26
-23
-20
-23
-23
-31
-34
-29
-28
-25
-13
1
17
44
82
137
171
198
256
353
411
373
322
292
253
165
52
-35
-62
-47
-33
-31
-45
-45
-43
-41
-44
-49
-49
-45
-43
-43
-41
-41
-38
-43
-49
-43
-43
-45
-41
-42
-44
-36
-38
-44
-46
-43
-41
-42
-44
-45
-42
-45
-50
-46
-43
-45
-48
-54
-58
-57
-61
-63
-67
-68
-72
-79
-81
-87
-90
-91
-97
-101
-101
-100
-101
-103
-101
-96
-92
-84
-77
-78
-70
-65
-55
-45
-43
-42
-34
-32
-34
-25
-20
-20
-18
-15
-16
-20
-20
-18
-18
-20
-19
-22
-22
-19
-23
-19
-15
-20
-21
-21
-21
-22
-24
-24
-22
-21
-21
-20
-15
-18
-20
-18
-18
-17
-17
-20
-22
-22
-20
-22
-21
-17
-19
-21
-19
-16
-15
-14
-13
-14
-17
-19
-19
-15
-16
-16
-11
-11
-14
-15
-16
-17
-16
-16
-16
-14
-11
-14
-17
-17
-18
-18
-16
-12
-19
-22
-22
-22
-15
-19
-23
-17
-18
-23
-22
-19
-18
-20
-20
-20
-21
-17
-14
-12
-9
-9
-10
-5
0
3
3
-5
-9
-3
1
0
0
0
-5
-3
0
0
-1
-4
-3
-2
-4
-11
-17
-20
-23
-24
-23
-22
-27
-28
-27
-26
-27
-25
-26
-29
-30
-34
-32
-26
-21
-15
-2
12
39
75
127
179
217
266
365
437
408
355
308
261
242
65
-31
-61
-53
-40
-36
-45
-50
-45
-43
-44
-45
-43
-43
-49
-51
-50
-44
-39
-41
-47
-46
-45
-44
-45
-47
-42
-43
-44
-44
-41
-41
-46
-48
-43
-42
-48
-46
-45
-48
-50
-50
-49
-53
-60
-59
-58
-65
-69
-70
-70
-73
-80
-87
-90
-92
-97
-101
-98
-98
-106
-106
-100
-98
-99
-93
-84
-76
-70
-64
-58
-52
-45
-40
-36
-32
-34
-32
-29
-24
-24
-26
-24
-22
-20
-22
-22
-21
-24
-24
-20
-19
-19
-21
-26
-27
-23
-21
-23
-24
-25
-21
-23
-30
-33
-28
-23
-24
-28
-26
-24
-22
-21
-20
-19
-28
-25
-22
-22
-20
-21
-23
-22
-20
-19
-16
-17
-25
-21
-20
-20
-19
-22
-24
-21
-22
-20
-19
-20
-21
-21
-24
-22
-19
-18
-20
-21
-23
-24
-23
-22
-23
-24
-24
-20
-18
-17
-21
-23
-24
-25
-29
-30
-27
-23
-20
-21
-23
-21
-21
-23
-24
-24
-27
-28
-27
-22
-20
-17
-19
-25
-27
-24
-23
-25
-24
-27
-25
-20
-20
-26
-26
-23
-23
-19
-13
-16
-15
-11
-10
-4
-3
-1
-4
-6
-2
4
-1
-6
-5
-3
-2
-1
-3
-6
-7
-7
-7
-14
-19
-22
-24
-21
-32
-37
-34
-30
-28
-25
-29
-32
-26
-28
-28
-33
-38
-36
-31
-22
-11
1
26
58
109
163
201
239
314
403
422
358
316
278
205
101
-9
-64
-55
-43
-41
-42
-45
-47
-47
-52
-50
-47
-47
-50
-50
-52
-53
-51
-48
-46
-45
-49
-52
-49
-48
-47
-43
-44
-47
-49
-50
-50
-49
-45
-42
-50
-53
-49
-50
-51
-50
-50
-54
-62
-63
-59
-64
-71
-74
-78
-82
-82
-84
-86
-92
-99
-102
-101
-100
-107
-109
-106
-104
-102
-100
-95
-87
-86
-75
-71
-60
-55
-48
-37
-32
-36
-34
-27
-25
-23
-23
-20
-19
-21
-20
-23
-24
-21
-23
-26
-24
-18
-22
-24
-23
-22
-21
-24
-24
-22
-21
-19
-25
-25
-24
-22
-19
-22
-25
-27
-25
-22
-20
-19
-18
-21
-23
-22
-23
-24
-26
-25
-23
-17
-15
-20
-23
-20
-15
-15
-15
-17
-19
-22
-21
-24
-20
-12
-9
-14
-20
-21
-22
-17
-17
-21
-18
-17
-18
-17
-22
-22
-19
-19
-22
-24
-23
-18
-16
-18
-23
-26
-23
-21
-22
-24
-27
-22
-21
-23
-26
-24
-21
-21
-22
-25
-24
-21
-20
-19
-17
-21
-23
-21
-26
-27
-20
-11
-14
-16
-10
-5
-3
-1
0
-1
-8
-5
0
0
-5
-7
-8
-7
-2
0
-1
0
-2
-7
-13
-15
-17
-23
-27
-26
-23
-23
-28
-29
-29
-31
-27
-28
-28
-29
-27
-28
-30
-28
-19
-7
5
26
55
105
163
204
247
329
432
436
383
337
326
217
110
-4
-60
-59
-46
-43
-46
-41
-39
-50
-52
-49
-48
-50
-49
-50
-51
-47
-44
-43
-49
-50
-46
-45
-45
-44
-46
-48
-46
-43
-43
-51
-49
-42
-42
-50
-49
-47
-48
-45
-45
-49
-57
-59
-54
-56
-62
-66
-65
-69
-74
-77
-83
-86
-86
-95
-99
-100
-102
-105
-109
-104
-102
-107
-104
-100
-93
-84
-80
-72
-64
-57
-52
-49
-38
-36
-34
-27
-21
-28
-29
-22
-19
-19
-27
-30
-21
-18
-21
-24
-24
-23
-22
-21
-17
-17
-18
-22
-23
-17
-19
-25
-23
-21
-20
-20
-22
-24
-21
-25
-25
-22
-20
-20
-21
-22
-18
-18
-23
-21
-17
-21
-22
-20
-13
-17
-21
-21
-19
-16
-15
-19
-20
-17
-16
-13
-15
-17
-21
-22
-18
-19
-20
-20
-20
-17
-17
-23
-24
-19
-21
-22
-21
-19
-19
-21
-19
-18
-21
-18
-18
-25
-24
-21
-24
-24
-22
-25
-26
-20
-17
-15
-17
-17
-22
-24
-25
-19
-15
-16
-21
-23
-22
-20
-22
-23
-18
-18
-23
-21
-18
-18
-23
-25
-20
-16
-18
-14
-11
-6
-5
-4
0
4
-2
-10
-10
-4
0
0
-1
0
-1
-1
0
0
-5
-8
-6
-8
-11
-13
-19
-20
-23
-26
-27
-28
-27
-28
-33
-31
-25
-25
-29
-32
-31
-28
-24
-23
-23
-11
3
27
61
110
162
197
207
313
410
410
359
314
282
213
107
0
-52
-52
-42
-37
-38
-40
-42
-43
-43
-47
-49
-50
-50
-48
-43
-42
-44
-43
-45
-46
-45
-43
-46
-47
-46
-42
-41
-41
-42
-42
-45
-46
-42
-42
-45
-45
-45
-41
-43
-52
-54
-54
-56
-54
-58
-63
-64
-67
-68
-68
-81
-84
-84
-88
-91
-92
-96
-97
-99
-101
-102
-100
-96
-92
-87
-86
-78
-71
-63
-53
-50
-41
-31
-30
-29
-27
-23
-18
-23
-24
-20
-19
-20
-18
-17
-19
-24
-20
-13
-20
-21
-15
-21
-22
-19
-22
-19
-18
-21
-21
-18
-19
-23
-18
-19
-21
-20
-21
-24
-23
-16
-13
-19
-24
-22
-20
-16
-16
-20
-17
-20
-22
-17
-12
-11
-11
-13
-11
-13
-21
-19
-13
-10
-10
-11
-15
-15
-13
-16
-17
-17
-16
-14
-17
-15
-10
-16
-23
-19
-17
-15
-16
-16
-13
-15
-20
-22
-18
-15
-13
-14
-20
-20
-18
-19
-20
-16
-17
-18
-19
-18
-17
-14
-13
-14
-19
-22
-20
-20
-19
-18
-13
-19
-23
-21
-21
-15
-13
-15
-15
-14
-10
-7
-3
0
1
0
-1
-4
-1
4
2
-2
-5
-3
1
3
-3
-4
0
-2
-6
-11
-16
-17
-17
-22
-26
-27
-27
-30
-24
-19
-24
-29
-27
-26
-24
-21
-22
-28
-29
-23
-11
0
19
48
87
141
187
200
288
391
433
392
343
305
248
146
29
-47
-65
-47
-38
-41
-43
-38
-40
-50
-50
-44
-45
-50
-50
-47
-47
-42
-44
-45
-45
-43
-44
-43
-47
-44
-39
-42
-45
-44
-42
-41
-43
-45
-46
-47
-49
-47
-43
-48
-50
-50
-52
-55
-57
-58
-63
-66
-69
-68
-69
-76
-84
-91
-94
-96
-95
-96
-100
-103
-107
-109
-106
-104
-100
-98
-98
-84
-76
-69
-61
-55
-47
-41
-37
-32
-28
-26
-27
-22
-21
-18
-15
-17
-24
-23
-20
-17
-15
-17
-18
-19
-25
-23
-22
-21
-19
-23
-23
-19
-18
-19
-21
-23
-24
-22
-25
-24
-23
-22
-22
-17
-17
-20
-20
-21
-22
-19
-17
-20
-23
-21
-18
-16
-17
-16
-15
-16
-17
-17
-17
-16
-16
-17
-13
-15
-21
-22
-18
-19
-19
-17
-20
-23
-22
-19
-20
-20
-24
-27
-26
-20
-17
-20
-20
-22
-25
-20
-18
-18
-19
-20
-22
-21
-20
-19
-18
-24
-23
-26
-18
-17
-21
-20
-25
-29
-22
-18
-18
-16
-17
-23
-22
-19
-17
-20
-23
-23
-20
-20
-21
-22
-22
-23
-25
-19
-19
-17
-14
-18
-16
-11
-9
-1
0
0
0
0
0
2
1
-2
-3
-2
0
0
0
0
0
-2
-8
-12
-12
-16
-24
-26
-27
-27
-29
-32
-29
-26
-29
-28
-27
-29
-30
-29
-28
-30
-34
-36
-24
-11
-1
20
54
102
153
182
219
295
380
379
330
292
264
205
108
5
-53
-55
-42
-38
-43
-47
-48
-46
-45
-49
-51
-49
-50
-46
-49
-51
-49
-48
-46
-43
-43
-49
-46
-47
-46
-43
-46
-46
-45
-49
-49
-47
-41
-47
-47
-48
-49
-48
-49
-53
-55
-51
-57
-58
-59
-63
-64
-70
-72
-71
-77
-81
-84
-87
-95
-98
-99
-98
-99
-102
-102
-100
-101
-96
-90
-87
-80
-72
-66
-63
-56
-47
-45
-44
-34
-31
-30
-29
-24
-17
-15
-15
-21
-24
-21
-23
-21
-21
-26
-24
-20
-19
-21
-17
-18
-19
-24
-24
-24
-26
-24
-26
-27
-23
-23
-22
-20
-25
-27
-24
-25
-24
-21
-21
-21
-22
-25
-27
-26
-20
-20
-24
-23
-20
-19
-17
-18
-21
-21
-20
-22
-23
-13
-16
-21
-22
-19
-22
-23
-16
-18
-19
-21
-25
-22
-16
-18
-22
-22
-22
-23
-22
-19
-20
-20
-21
-22
-24
-22
-19
-18
-17
-21
-26
-20
-19
-22
-23
-26
-23
-20
-22
-20
-21
-24
-23
-22
-20
-20
-20
-20
-20
-20
-17
-19
-20
-22
-21
-22
-21
-21
-17
-16
-15
-11
-7
-6
0
0
-2
-5
-1
2
6
1
0
0
0
0
-3
-1
-1
-6
-9
-10
-11
-18
-28
-25
-22
-24
-28
-29
-29
-27
-27
-26
-29
-30
-27
-29
-29
-29
-31
-24
-21
-13
-3
18
51
100
149
183
227
305
393
387
333
289
264
200
103
-8
-65
-64
-45
-41
-39
-45
-48
-44
-45
-45
-43
-47
-49
-49
-48
-46
-47
-50
-49
-44
-44
-47
-48
-48
-48
-43
-41
-45
-44
-38
-40
-40
-48
-51
-49
-51
-48
-45
-50
-52
-50
-52
-54
-56
-58
-62
-67
-68
-74
-81
-80
-82
-87
-89
-97
-100
-98
-105
-111
-110
-109
-112
-110
-104
-96
-93
-92
-82
-72
-61
-58
-55
-46
-39
-38
-32
-29
-27
-25
-24
-16
-13
-14
-13
-18
-30
-25
-14
-17
-20
-20
-21
-21
-20
-19
-21
-23
-22
-24
-20
-16
-20
-22
-21
-23
-25
-24
-23
-18
-17
-22
-21
-18
-13
-16
-21
-18
-17
-18
-17
-17
-16
-13
-20
-20
-14
-14
-15
-17
-17
-14
-12
-13
-13
-13
-15
-22
-18
-13
-13
-14
-14
-17
-16
-15
-16
-16
-18
-20
-20
-18
-15
-17
-20
-20
-20
-20
-16
-17
-18
-20
-19
-17
-18
-18
-20
-21
-17
-18
-20
-16
-22
-24
-21
-18
-18
-17
-19
-20
-15
-17
-18
-15
-20
-20
-20
-19
-18
-19
-18
-18
-23
-21
-15
-10
-9
-3
0
0
0
0
0
0
-1
3
6
4
-1
-3
-5
-3
2
3
1
-2
-2
-1
-3
-8
-18
-22
-24
-27
-29
-29
-24
-25
-28
-27
-21
-29
-31
-26
-22
-20
-19
-18
-19
-6
11
37
76
129
187
225
273
375
457
436
381
329
278
193
162
-25
-71
-59
-41
-38
-44
-43
-43
-41
-41
-46
-48
-45
-46
-46
-48
-44
-43
-49
-48
-48
-48
-46
-48
-49
-47
-44
-42
-39
-43
-44
-41
-43
-44
-41
-48
-50
-46
-46
-49
-53
-53
-51
-56
-57
-59
-65
-68
-68
-67
-75
-84
-87
-90
-91
-96
-103
-106
-112
-113
-110
-110
-107
-104
-101
-99
-93
-90
-82
-72
-62
-54
-44
-42
-43
-32
-29
-29
-27
-21
-16
-15
-20
-19
-19
-16
-15
-15
-17
-17
-17
-17
-19
-20
-16
-16
-20
-22
-21
-20
-18
-21
-23
-21
-22
-24
-19
-16
-17
-15
-18
-22
-21
-18
-20
-20
-16
-20
-23
-18
-13
-16
-17
-14
-15
-19
-17
-13
-11
-13
-14
-14
-14
-14
-15
-16
-13
-9
-10
-16
-20
-19
-15
-16
-16
-13
-15
-17
-19
-20
-18
-17
-15
-13
-15
-19
-22
-22
-16
-14
-16
-19
-18
-16
-21
-15
-16
-18
-20
-18
-15
-20
-19
-15
-15
-18
-20
-22
-22
-19
-17
-16
-20
-22
-20
-16
-17
-20
-20
-18
-12
-8
-8
-8
-2
4
1
-2
0
0
1
2
0
-2
-3
-2
-1
-1
0
1
-3
-6
-11
-15
-15
-20
-20
-20
-24
-25
-22
-25
-27
-28
-29
-29
-25
-29
-32
-25
-24
-29
-28
-19
-1
17
45
92
151
193
227
292
393
428
387
338
303
241
142
108
-44
-55
-42
-38
-43
-45
-43
-42
-44
-46
-45
-47
-49
-43
-47
-49
-47
-45
-48
-50
-45
-44
-47
-45
-43
-42
-42
-42
-39
-41
-45
-48
-48
-48
-49
-47
-46
-49
-46
-49
-50
-51
-55
-55
-58
-61
-65
-67
-68
-69
-78
-81
-84
-89
-93
-95
-94
-98
-103
-105
-112
-110
-104
-99
-95
-87
-83
-78
-72
-64
-55
-49
-43
-38
-36
-29
-30
-31
-27
-18
-23
-27
-26
-25
-21
-19
-20
-20
-21
-25
-27
-24
-21
-21
-22
-22
-24
-22
-21
-21
-20
-25
-27
-25
-23
-24
-29
-28
-25
-21
-23
-22
-20
-21
-22
-21
-22
-24
-21
-25
-28
-24
-21
-19
-18
-15
-19
-27
-25
-22
-21
-21
-18
-17
-24
-21
-17
-15
-18
-24
-24
-20
-18
-18
-22
-22
-19
-22
-23
-22
-18
-24
-27
-27
-25
-22
-20
-24
-25
-25
-23
-21
-20
-21
-25
-26
-23
-21
-21
-23
-27
-23
-17
-18
-20
-27
-29
-24
-18
-18
-25
-27
-22
-21
-20
-21
-23
-24
-24
-21
-20
-15
-14
-13
-9
-8
-4
-1
0
-1
-6
-1
0
-3
-9
-9
-6
-4
-1
0
-2
-4
-4
-7
-13
-20
-21
-28
-31
-30
-27
-33
-34
-34
-34
-32
-27
-29
-35
-36
-33
-30
-30
-30
-26
-11
4
26
56
109
162
189
227
315
397
385
335
297
260
245
87
-21
-66
-56
-41
-43
-46
-47
-47
-49
-50
-52
-50
-48
-48
-50
-50
-50
-50
-50
-48
-48
-48
-43
-42
-45
-49
-50
-48
-49
-49
-45
-46
-49
-47
-43
-46
-51
-48
-45
-46
-49
-53
-58
-58
-54
-59
-58
-66
-70
-73
-75
-79
-81
-88
-95
-97
-97
-95
-106
-111
-109
-104
-105
-100
-94
-93
-93
-86
-76
-67
-59
-50
-50
-49
-38
-35
-34
-29
-24
-26
-24
-19
-17
-19
-23
-24
-23
-21
-22
-22
-23
-22
-21
-16
-16
-24
-29
-26
-24
-20
-18
-23
-28
-29
-26
-20
-18
-17
-21
-26
-25
-23
-21
-22
-25
-23
-21
-20
-19
-18
-19
-22
-23
-22
-17
-17
-17
-20
-20
-18
-15
-15
-19
-20
-18
-18
-18
-15
-18
-19
-11
-14
-27
-25
-20
-20
-17
-16
-17
-15
-20
-24
-23
-17
-16
-18
-19
-18
-21
-20
-17
-18
-19
-20
-27
-21
-17
-20
-20
-23
-23
-22
-21
-20
-18
-17
-20
-26
-24
-19
-17
-20
-20
-21
-19
-24
-18
-12
-10
-13
-13
-9
-5
-1
0
0
0
0
0
3
4
0
-6
-4
0
1
-1
-2
0
-1
-5
-9
-10
-18
-28
-29
-24
-23
-26
-25
-23
-27
-27
-28
-30
-29
-23
-20
-22
-29
-30
-18
-2
14
39
78
136
183
218
278
385
452
418
360
314
268
173
53
16
-74
-60
-46
-37
-40
-46
-44
-47
-49
-45
-43
-43
-46
-45
-48
-47
-47
-45
-40
-41
-38
-39
-47
-48
-46
-43
-44
-40
-44
-46
-46
-47
-42
-40
-41
-41
-42
-49
-53
-51
-54
-56
-55
-57
-62
-61
-63
-65
-73
-76
-84
-92
-98
-99
-100
-101
-106
-115
-117
-112
-113
-111
-110
-102
-98
-96
-82
-74
-69
-61
-54
-49
-44
-34
-31
-26
-23
-20
-21
-22
-22
-20
-17
-17
-14
-13
-14
-12
-16
-24
-20
-16
-15
-16
-20
-24
-24
-19
-18
-18
-21
-21
-18
-24
-23
-18
-17
-19
-20
-20
-18
-16
-16
-22
-20
-18
-18
-24
-24
-16
-11
-7
-10
-16
-17
-17
-16
-12
-12
-12
-11
-15
-15
-15
-16
-20
-20
-15
-13
-11
-12
-16
-17
-20
-20
-20
-14
-10
-18
-21
-18
-20
-21
-19
-17
-13
-13
-14
-14
-17
-20
-16
-19
-19
-13
-16
-18
-19
-20
-20
-17
-14
-12
-16
-18
-22
-20
-17
-15
-15
-18
-21
-21
-18
-13
-15
-20
-20
-22
-20
-20
-15
-14
-24
-23
-17
-16
-17
-14
-13
-8
-6
-3
0
4
3
0
1
2
5
3
0
0
-2
1
3
1
-2
0
0
-2
-7
-12
-16
-17
-18
-23
-25
-21
-23
-23
-24
-27
-27
-25
-26
-27
-25
-22
-22
-25
-23
-9
6
23
54
106
168
215
227
335
442
465
414
360
315
247
141
21
-51
-59
-43
-37
-41
-42
-39
-41
-43
-42
-46
-48
-45
-44
-46
-48
-48
-47
-45
-44
-44
-47
-43
-42
-43
-43
-43
-43
-42
-41
-41
-43
-45
-43
-41
-41
-45
-46
-48
-50
-50
-48
-51
-56
-58
-59
-65
-69
-69
-67
-76
-80
-86
-89
-94
-101
-100
-100
-103
-109
-111
-109
-107
-100
-96
-96
-88
-77
-74
-66
-61
-54
-45
-40
-33
-26
-23
-22
-21
-21
-21
-19
-17
-19
-16
-14
-13
-16
-17
-14
-13
-17
-16
-17
-17
-19
-15
-15
-19
-18
-17
-16
-18
-21
-17
-16
-21
-19
-16
-15
-19
-21
-18
-17
-15
-13
-18
-18
-17
-17
-13
-10
-13
-17
-16
-12
-13
-11
-13
-13
-9
-8
-11
-9
-8
-12
-11
-12
-17
-15
-12
-4
-7
-12
-13
-14
-13
-11
-13
-18
-18
-15
-12
-14
-20
-21
-16
-14
-15
-17
-17
-14
-15
-13
-17
-20
-17
-15
-18
-21
-18
-17
-15
-12
-12
-21
-22
-17
-17
-22
-19
-14
-17
-21
-21
-20
-16
-13
-18
-20
-19
-19
-18
-18
-16
-21
-18
-15
-18
-15
-18
-20
-17
-18
-16
-16
-16
-17
-17
-17
-15
-15
-19
-18
-14
-12
-11
-9
-7
-5
-1
0
-1
2
3
-3
-1
8
10
4
1
0
-1
5
2
0
0
-1
-1
-4
-5
-13
-15
-19
-26
-24
-20
-17
-22
-26
-26
-22
-20
-20
-22
-25
-23
-24
-24
-22
-16
-5
10
35
76
92
177
210
256
345
418
398
351
322
290
210
100
0
-41
-45
-36
-34
-39
-41
-37
-39
-45
-43
-41
-43
-43
-43
-46
-45
-43
-43
-43
-43
-41
-41
-39
-42
-41
-38
-41
-40
-39
-38
-39
-38
-41
-45
-44
-45
-46
-45
-40
-43
-41
-49
-54
-52
-53
-56
-60
-61
-67
-70
-72
-75
-78
-84
-87
-90
-93
-93
-96
-98
-96
-98
-99
-97
-92
-85
-79
-73
-65
-58
-53
-49
-39
-35
-32
-28
-25
-20
-15
-13
-11
-10
-12
-14
-15
-18
-16
-15
-15
-15
-15
-13
-15
-15
-14
-15
-14
-13
-13
-15
-14
-13
-17
-18
-17
-17
-16
-15
-15
-16
-19
-18
-18
-19
-16
-16
-16
-15
-16
-14
-14
-13
-10
-8
-8
-11
-15
-14
-13
-13
-11
-8
-8
-10
-11
-12
-13
-13
-14
-13
-11
-10
-10
-13
-16
-16
-16
-17
-17
-17
-13
-13
-15
-17
-19
-16
-13
-14
-17
-17
-17
-16
-15
-21
-21
-17
-15
-13
-16
-20
-21
-19
-18
-16
-14
-11
-10
-15
-21
-21
-20
-21
-17
-16
-16
-15
-14
-15
-17
-17
-15
-15
-17
-18
-16
-17
-18
-17
-16
-17
-20
-20
-15
-12
-11
-7
-2
0
0
2
3
0
0
4
4
1
0
0
0
0
0
0
0
-2
-6
-6
-6
-11
-17
-21
-22
-23
-26
-25
-23
-21
-23
-25
-29
-25
-20
-17
-19
-24
-27
-21
-9
4
22
51
97
155
202
246
325
432
448
395
344
303
237
134
98
-58
-66
-48
-42
-48
-42
-33
-39
-45
-48
-49
-47
-44
-44
-45
-47
-48
-43
-41
-43
-41
-42
-45
-42
-41
-41
-42
-46
-44
-43
-45
-45
-46
-47
-45
-46
-49
-47
-49
-50
-48
-48
-51
-57
-60
-63
-63
-66
-71
-73
-80
-83
-90
-96
-100
-102
-104
-108
-112
-114
-117
-119
-119
-118
-111
-105
-98
-89
-81
-77
-72
-59
-48
-46
-45
-32
-30
-31
-28
-25
-21
-15
-15
-15
-15
-18
-18
-16
-18
-21
-24
-25
-24
-20
-17
-15
-14
-18
-22
-22
-20
-21
-17
-19
-20
-24
-23
-21
-21
-19
-16
-16
-19
-18
-15
-12
-14
-18
-14
-12
-18
-19
-11
-10
-9
-10
-13
-13
-11
-10
-13
-9
-5
-8
-13
-14
-11
-11
-13
-9
-8
-11
-16
-20
-14
-8
-6
-11
-13
-13
-18
-13
-11
-13
-10
-15
-22
-17
-12
-17
-20
-17
-14
-12
-3
0
-2
-2
0
0
-8
-9
0
6
8
10
0
-11
-12
1
8
4
0
-1
-6
-16
-14
-11
-14
-17
-20
-26
-28
-22
-21
-24
-26
-22
-17
-17
-25
-27
-21
-18
-14
-10
-4
19
53
96
171
244
292
365
487
549
508
454
405
326
197
59
-49
-78
-77
-42
-40
-40
-40
-43
-45
-47
-49
-46
-43
-43
-41
-41
-48
-48
-43
-43
-42
-39
-42
-48
-51
-43
-33
-31
-50
-49
-41
-39
-45
-47
-46
-49
-50
-45
-43
-48
-44
-47
-57
-60
-56
-61
-68
-69
-69
-75
-79
-88
-91
-100
-100
-104
-110
-115
-116
-116
-118
-121
-119
-112
-110
-102
-91
-84
-77
-66
-57
-47
-38
-31
-30
-34
-30
-27
-18
-15
-13
-16
-14
-11
-18
-14
-14
-18
-16
-17
-18
-19
-23
-16
-8
-6
-13
-19
-20
-20
-22
-18
-16
-18
-19
-19
-14
-10
-19
-19
-13
-11
-11
-13
-11
-16
-18
-14
-14
-13
-10
-9
-10
-11
-7
-2
-5
-6
-3
-5
-7
-6
-6
-8
-10
-7
-4
-7
-9
-6
-6
-8
-6
-8
-6
-3
-6
-8
-8
-9
-11
-10
-11
-3
0
1
2
1
2
2
-1
-1
7
10
6
5
2
1
5
8
7
3
2
1
1
-3
-5
-6
-7
-9
-11
-14
-15
-18
-19
-15
-14
-15
-15
-15
-17
-20
-20
-16
-9
3
23
53
101
166
230
278
293
448
550
545
496
448
387
281
137
5
-47
-48
-34
-30
-36
-37
-33
-34
-42
-43
-41
-42
-41
-41
-43
-43
-42
-43
-41
-40
-39
-41
-38
-38
-38
-39
-40
-44
-43
-38
-41
-43
-43
-41
-42
-41
-42
-45
-48
-50
-50
-51
-54
-54
-59
-62
-64
-67
-72
-78
-85
-90
-93
-95
-100
-103
-107
-108
-107
-109
-109
-105
-101
-96
-90
-87
-73
-65
-55
-47
-43
-38
-32
-29
-25
-23
-24
-19
-15
-15
-16
-15
-15
-18
-20
-21
-20
-18
-15
-13
-12
-16
-19
-17
-19
-20
-17
-14
-14
-15
-16
-17
-19
-18
-17
-16
-17
-18
-19
-17
-17
-18
-19
-23
-24
-24
-19
-15
-15
-14
-14
-16
-16
-14
-14
-15
-14
-11
-8
-6
-7
-11
-13
-13
-12
-12
-12
-10
-10
-12
-13
-13
-13
-15
-12
-7
-4
0
0
4
6
2
0
-2
1
5
1
0
-2
-3
-1
0
0
-1
0
0
-7
-9
-12
-18
-25
-27
-24
-24
-26
-25
-24
-27
-29
-29
-26
-23
-22
-23
-26
-28
-25
-12
7
33
43
114
173
216
256
327
444
493
451
403
356
280
163
37
-41
-55
-48
-37
-37
-46
-46
-43
-45
-48
-49
-50
-49
-49
-48
-46
-48
-49
-51
-51
-50
-50
-49
-45
-45
-46
-47
-48
-48
-48
-48
-46
-47
-48
-50
-50
-50
-51
-52
-51
-54
-56
-59
-61
-64
-67
-70
-70
-75
-79
-85
-89
-93
-97
-99
-102
-105
-107
-107
-109
-111
-111
-105
-101
-96
-90
-83
-75
-68
-60
-54
-47
-44
-38
-33
-32
-32
-29
-27
-27
-27
-25
-23
-23
-26
-26
-25
-24
-22
-24
-26
-27
-25
-22
-23
-24
-24
-26
-28
-29
-31
-29
-25
-24
-23
-27
-29
-30
-29
-29
-28
-27
-27
-27
-27
-27
-27
-26
-27
-27
-27
-24
-22
-21
-23
-24
-23
-21
-21
-21
-22
-23
-22
-21
-21
-23
-24
-25
-23
-22
-24
-26
-27
-25
-22
-23
-25
-27
-26
-22
-18
-15
-13
-12
-9
-5
-2
-3
-8
-9
-3
-1
-1
-5
-7
-6
-3
-2
-6
-7
-8
-8
-14
-20
-23
-26
-27
-31
-35
-36
-32
-32
-33
-34
-35
-37
-38
-36
-34
-34
-35
-34
-31
-24
-7
14
44
79
128
169
200
256
359
416
391
343
305
251
164
56
-26
-45
-48
-37
-41
-46
-48
-50
-50
-51
-51
-52
-54
-50
-52
-53
-54
-53
-51
-51
-50
-48
-49
-49
-51
-51
-50
-51
-46
-47
-49
-49
-50
-49
-50
-51
-49
-50
-53
-53
-54
-57
-59
-59
-61
-63
-67
-70
-74
-78
-79
-80
-85
-89
-93
-97
-98
-101
-104
-104
-104
-100
-98
-98
-93
-86
-78
-71
-69
-63
-55
-51
-45
-41
-39
-34
-31
-25
-26
-28
-25
-23
-23
-22
-21
-21
-23
-22
-21
-22
-24
-24
-24
-24
-24
-26
-27
-26
-23
-21
-23
-25
-27
-25
-23
-23
-25
-25
-23
-24
-26
-28
-28
-24
-22
-21
-23
-24
-24
-22
-20
-20
-23
-23
-22
-21
-20
-17
-16
-16
-18
-20
-20
-20
-20
-21
-22
-22
-22
-22
-24
-25
-25
-26
-22
-19
-20
-23
-20
-16
-12
-11
-7
-2
0
0
0
-3
-1
0
0
-2
-5
-6
-2
0
0
0
0
0
-3
-11
-17
-22
-25
-25
-26
-30
-30
-29
-29
-28
-29
-31
-32
-32
-33
-32
-31
-31
-33
-25
-11
4
25
59
104
152
185
220
296
327
382
335
297
263
200
106
-3
-56
-58
-43
-35
-39
-45
-45
-44
-48
-48
-47
-48
-48
-50
-48
-50
-49
-48
-48
-49
-49
-48
-44
-43
-45
-45
-46
-46
-45
-47
-46
-43
-45
-46
-45
-48
-48
-50
-51
-50
-52
-54
-53
-56
-59
-63
-67
-71
-73
-77
-81
-85
-90
-92
-94
-98
-100
-101
-104
-104
-104
-102
-100
-96
-89
-84
-77
-75
-63
-55
-49
-42
-36
-36
-31
-26
-24
-24
-24
-24
-23
-21
-21
-22
-24
-24
-22
-22
-23
-24
-23
-23
-23
-26
-27
-26
-25
-22
-21
-23
-24
-25
-24
-24
-24
-26
-23
-22
-20
-21
-20
-20
-20
-20
-19
-18
-20
-20
-21
-19
-17
-16
-14
-14
-17
-18
-19
-19
-16
-14
-9
-5
-3
-2
-1
0
1
3
1
-1
0
2
3
0
0
0
0
1
1
0
-1
-2
-5
-11
-18
-25
-31
-30
-27
-27
-30
-31
-31
-32
-33
-33
-31
-31
-34
-33
-32
-35
-35
-22
-5
9
32
66
111
152
181
221
305
372
342
296
262
226
160
68
-27
-62
-64
-43
-39
-43
-46
-43
-45
-48
-47
-49
-47
-45
-47
-46
-43
-44
-45
-45
-46
-43
-44
-46
-44
-43
-43
-42
-42
-42
-40
-44
-45
-42
-41
-44
-44
-45
-45
-46
-49
-50
-50
-55
-55
-57
-59
-62
-65
-70
-73
-75
-76
-84
-88
-92
-95
-96
-99
-101
-101
-101
-97
-93
-89
-85
-78
-70
-64
-57
-51
-44
-36
-34
-30
-27
-25
-24
-25
-24
-23
-23
-24
-22
-22
-21
-21
-20
-21
-24
-25
-21
-20
-22
-23
-22
-24
-25
-23
-23
-24
-26
-27
-24
-22
-21
-22
-23
-20
-17
-15
-16
-17
-17
-17
-17
-16
-14
-13
-14
-14
-13
-14
-15
-13
-8
-7
-6
-4
-2
0
2
5
4
0
0
4
7
3
0
-1
0
0
0
0
0
-1
-3
-6
-11
-15
-22
-25
-30
-30
-27
-26
-30
-30
-28
-29
-32
-34
-34
-32
-35
-35
-29
-22
-15
-1
21
47
83
133
169
201
213
345
361
311
265
235
189
116
15
-66
-70
-51
-43
-43
-45
-44
-45
-46
-45
-43
-43
-46
-44
-43
-45
-46
-49
-45
-41
-41
-41
-38
-42
-44
-44
-43
-42
-43
-43
-41
-37
-39
-42
-45
-43
-43
-44
-46
-46
-45
-46
-54
-57
-59
-62
-65
-67
-65
-69
-74
-81
-88
-93
-94
-97
-100
-100
-100
-100
-100
-100
-99
-95
-88
-80
-77
-66
-58
-51
-46
-39
-37
-37
-31
-24
-20
-21
-24
-25
-23
-21
-20
-22
-24
-23
-21
-19
-19
-22
-22
-21
-23
-21
-20
-22
-24
-25
-21
-20
-19
-19
-19
-21
-21
-20
-21
-20
-21
-21
-20
-18
-17
-16
-15
-15
-16
-17
-17
-15
-13
-11
-11
-13
-14
-15
-15
-14
-12
-8
-3
-1
1
1
1
2
0
0
0
3
1
0
-2
-2
-1
-2
-3
-3
-1
-3
-8
-13
-17
-25
-32
-34
-30
-29
-31
-32
-31
-33
-37
-35
-30
-30
-32
-34
-34
-34
-32
-21
-6
10
37
73
128
173
206
261
358
405
366
313
269
223
146
41
-53
-83
-62
-55
-47
-45
-46
-46
-48
-50
-50
-51
-51
-50
-51
-48
-50
-49
-47
-50
-51
-50
-48
-46
-48
-48
-46
-48
-48
-50
-49
-46
-47
-48
-46
-49
-50
-50
-51
-52
-56
-57
-57
-57
-62
-66
-68
-70
-76
-80
-83
-87
-94
-96
-99
-100
-102
-106
-109
-108
-105
-102
-102
-98
-91
-84
-75
-68
-60
-55
-52
-47
-40
-38
-37
-32
-27
-27
-28
-31
-28
-24
-21
-23
-25
-26
-24
-23
-24
-26
-27
-25
-23
-25
-29
-28
-27
-24
-24
-25
-26
-24
-25
-26
-28
-25
-23
-24
-24
-25
-25
-23
-21
-19
-19
-20
-21
-20
-18
-17
-18
-19
-20
-19
-20
-18
-17
-17
-18
-22
-22
-22
-23
-25
-26
-25
-23
-22
-18
-16
-16
-14
-10
-6
-2
-1
-2
-6
-4
-1
0
-3
-6
-7
-6
-4
-3
-5
-7
-8
-10
-15
-21
-27
-29
-31
-34
-36
-35
-32
-32
-34
-36
-34
-34
-35
-35
-35
-36
-38
-37
-36
-29
-13
7
35
73
121
161
190
237
328
380
345
298
263
223
151
54
-39
-69
-56
-47
-45
-49
-47
-48
-46
-48
-50
-50
-50
-51
-51
-51
-48
-49
-50
-46
-48
-49
-49
-48
-47
-48
-46
-44
-45
-45
-43
-45
-45
-47
-48
-45
-48
-48
-48
-49
-50
-50
-51
-54
-55
-58
-63
-65
-69
-71
-75
-81
-82
-86
-87
-92
-94
-97
-99
-99
-97
-94
-90
-88
-83
-78
-71
-66
-58
-52
-47
-41
-39
-37
-29
-24
-24
-25
-23
-22
-20
-20
-20
-21
-21
-20
-19
-17
-19
-21
-21
-22
-22
-21
-23
-24
-23
-21
-19
-18
-20
-21
-22
-22
-22
-24
-24
-22
-21
-19
-18
-16
-17
-19
-19
-17
-19
-19
-19
-18
-17
-18
-19
-16
-16
-17
-17
-17
-18
-19
-20
-18
-17
-17
-19
-20
-20
-22
-23
-23
-23
-24
-23
-22
-23
-24
-25
-24
-23
-22
-21
-17
-13
-11
-9
-5
-1
0
0
-4
-5
0
0
-4
-6
-5
-3
-3
-3
-2
-2
-4
-5
-9
-14
-22
-29
-32
-30
-29
-29
-31
-32
-33
-36
-35
-34
-33
-34
-34
-32
-35
-38
-35
-27
-18
-6
18
47
83
131
165
194
256
283
354
309
272
247
197
116
15
-54
-64
-49
-42
-42
-47
-47
-45
-47
-49
-49
-46
-48
-50
-48
-45
-47
-48
-44
-45
-45
-45
-45
-42
-42
-45
-44
-43
-44
-43
-42
-43
-43
-45
-46
-46
-48
-47
-45
-48
-49
-49
-50
-52
-55
-59
-63
-65
-69
-71
-74
-79
-82
-85
-89
-92
-93
-97
-98
-99
-99
-94
-91
-86
-82
-76
-70
-68
-57
-50
-46
-40
-34
-31
-29
-26
-27
-25
-23
-23
-22
-20
-18
-20
-22
-23
-21
-21
-23
-24
-21
-22
-22
-22
-22
-23
-27
-26
-23
-22
-22
-24
-26
-24
-20
-19
-19
-22
-22
-22
-22
-21
-20
-21
-22
-22
-19
-18
-18
-16
-15
-16
-16
-15
-17
-19
-20
-20
-20
-20
-20
-21
-22
-24
-25
-23
-19
-18
-22
-25
-24
-22
-22
-21
-20
-22
-23
-25
-24
-22
-23
-24
-25
-25
-24
-25
-25
-24
-27
-26
-24
-24
-24
-22
-22
-22
-21
-21
-21
-16
-10
-4
-2
0
0
-2
-2
1
1
-1
-4
-3
0
0
0
-1
-4
-6
-11
-16
-18
-24
-27
-32
-30
-30
-31
-32
-34
-36
-35
-35
-34
-34
-34
-31
-31
-32
-34
-33
-25
-10
3
25
60
110
153
164
231
319
370
334
287
256
229
157
54
-38
-71
-58
-45
-41
-43
-45
-44
-43
-46
-49
-51
-48
-50
-50
-48
-48
-48
-47
-47
-45
-45
-45
-45
-47
-46
-44
-45
-46
-45
-47
-45
-45
-45
-44
-45
-49
-48
-50
-51
-50
-52
-55
-57
-60
-64
-65
-69
-73
-81
-84
-85
-88
-91
-95
-98
-103
-106
-107
-108
-110
-110
-104
-100
-96
-93
-85
-76
-67
-64
-55
-49
-46
-37
-33
-30
-28
-27
-27
-26
-23
-23
-22
-22
-20
-20
-24
-24
-22
-22
-21
-22
-22
-24
-24
-24
-22
-23
-23
-23
-22
-21
-25
-27
-24
-21
-20
-20
-19
-20
-20
-20
-19
-15
-13
-13
-15
-15
-14
-14
-15
-15
-13
-12
-13
-15
-15
-15
-16
-16
-15
-15
-17
-18
-18
-17
-17
-17
-17
-17
-17
-20
-21
-19
-20
-22
-20
-23
-25
-25
-20
-17
-16
-16
-17
-18
-21
-22
-22
-20
-20
-23
-22
-19
-20
-20
-22
-22
-23
-23
-23
-25
-25
-23
-21
-19
-19
-18
-23
-24
-19
-12
-12
-9
-5
-2
0
0
1
-1
-3
0
2
1
-2
-5
-3
0
1
0
-1
0
-1
-4
-11
-20
-25
-27
-26
-23
-26
-30
-30
-29
-32
-33
-31
-29
-28
-33
-31
-28
-30
-34
-28
-12
3
25
57
106
154
189
226
298
383
381
330
292
265
202
176
0
-59
-58
-43
-38
-41
-43
-42
-47
-48
-46
-47
-48
-48
-49
-49
-50
-49
-43
-45
-47
-45
-47
-47
-46
-48
-44
-44
-45
-42
-42
-45
-46
-48
-46
-44
-45
-48
-48
-48
-48
-50
-53
-56
-58
-57
-60
-65
-67
-68
-77
-80
-82
-84
-91
-95
-98
-100
-102
-104
-103
-104
-103
-100
-97
-91
-88
-81
-70
-64
-59
-52
-43
-40
-38
-33
-29
-28
-27
-24
-24
-20
-18
-21
-22
-22
-21
-20
-18
-17
-17
-18
-20
-21
-22
-24
-24
-24
-24
-23
-23
-23
-23
-24
-25
-22
-20
-18
-19
-21
-21
-20
-18
-17
-17
-17
-19
-19
-19
-16
-15
-15
-13
-15
-16
-19
-16
-14
-13
-15
-15
-16
-18
-20
-18
-16
-20
-22
-21
-20
-20
-22
-21
-20
-20
-24
-24
-20
-18
-18
-20
-22
-22
-22
-22
-22
-21
-22
-24
-22
-20
-22
-24
-24
-23
-22
-24
-24
-23
-24
-23
-22
-21
-22
-22
-24
-22
-20
-21
-22
-24
-23
-21
-20
-20
-20
-20
-21
-24
-22
-22
-24
-18
-15
-13
-10
-8
-3
0
0
0
0
1
5
3
0
-1
-2
-1
0
1
0
-3
-3
-5
-11
-17
-23
-27
-28
-27
-26
-27
-28
-27
-31
-32
-33
-32
-28
-27
-28
-29
-30
-33
-28
-20
-7
7
34
69
121
164
195
242
329
379
346
300
287
237
166
66
-30
-65
-51
-38
-40
-47
-50
-48
-45
-47
-47
-45
-46
-47
-49
-49
-44
-45
-46
-42
-42
-43
-45
-43
-42
-42
-43
-45
-43
-42
-43
-43
-42
-43
-44
-47
-44
-43
-46
-48
-46
-48
-51
-54
-54
-56
-58
-61
-66
-70
-74
-78
-83
-84
-87
-91
-95
-97
-100
-100
-102
-102
-102
-101
-97
-90
-85
-80
-72
-64
-57
-55
-49
-40
-37
-35
-28
-22
-20
-22
-23
-21
-18
-18
-18
-17
-16
-19
-20
-20
-18
-18
-22
-24
-22
-22
-22
-22
-21
-21
-22
-22
-20
-22
-25
-26
-22
-19
-17
-19
-20
-21
-20
-18
-17
-15
-15
-15
-17
-17
-16
-15
-17
-16
-17
-20
-20
-18
-15
-15
-15
-15
-15
-17
-19
-18
-17
-15
-16
-17
-17
-18
-21
-21
-17
-17
-18
-23
-23
-20
-20
-17
-17
-17
-18
-20
-21
-19
-17
-18
-20
-20
-20
-21
-22
-20
-21
-22
-23
-21
-21
-20
-23
-22
-20
-20
-22
-21
-22
-24
-25
-23
-19
-18
-21
-23
-24
-23
-22
-21
-17
-20
-23
-22
-20
-20
-19
-20
-21
-17
-14
-11
-8
-3
0
0
3
1
-1
0
4
4
0
0
-1
0
0
0
0
0
0
0
-6
-10
-18
-25
-29
-26
-22
-23
-26
-28
-27
-28
-29
-31
-30
-27
-27
-27
-29
-29
-27
-20
-3
13
20
75
130
168
196
253
343
376
329
285
263
225
142
37
-46
-59
-44
-39
-40
-43
-45
-43
-44
-46
-46
-45
-46
-46
-45
-44
-43
-45
-46
-43
-43
-45
-45
-43
-45
-42
-41
-43
-40
-42
-43
-41
-42
-43
-42
-43
-43
-45
-45
-48
-45
-48
-49
-50
-54
-57
-60
-61
-66
-69
-71
-75
-80
-85
-92
-94
-94
-98
-100
-100
-102
-101
-102
-99
-97
-91
-86
-80
-71
-63
-59
-50
-44
-41
-36
-29
-28
-25
-23
-22
-20
-19
-20
-19
-16
-15
-15
-20
-18
-20
-20
-20
-19
-20
-21
-23
-23
-21
-19
-18
-18
-18
-20
-21
-21
-17
-16
-16
-15
-17
-17
-17
-18
-16
-15
-16
-18
-18
-15
-16
-15
-12
-10
-10
-12
-13
-13
-13
-16
-16
-13
-14
-13
-13
-15
-17
-18
-17
-16
-16
-17
-16
-15
-15
-14
-15
-17
-17
-20
-23
-24
-21
-19
-19
-19
-18
-19
-21
-22
-19
-16
-15
-15
-17
-17
-16
-20
-19
-17
-19
-20
-20
-20
-20
-21
-23
-24
-24
-24
-20
-16
-18
-22
-20
-18
-19
-17
-10
-5
-4
-1
0
2
6
3
0
0
4
3
0
0
0
3
2
1
0
0
0
-4
-8
-15
-17
-23
-25
-26
-25
-24
-23
-24
-26
-27
-27
-27
-29
-30
-30
-26
-24
-27
-24
-11
4
20
45
90
139
153
219
293
372
366
316
274
249
191
99
-4
-66
-63
-43
-41
-42
-41
-43
-43
-40
-41
-45
-44
-43
-45
-45
-48
-44
-42
-42
-41
-41
-42
-43
-44
-40
-38
-38
-43
-46
-41
-39
-42
-44
-42
-39
-41
-44
-43
-43
-43
-51
-50
-50
-55
-58
-62
-66
-66
-67
-71
-76
-80
-86
-90
-91
-96
-98
-101
-106
-110
-111
-110
-106
-103
-101
-95
-89
-81
-74
-64
-54
-46
-40
-37
-32
-29
-27
-26
-22
-20
-18
-20
-20
-21
-20
-24
-25
-21
-19
-20
-24
-24
-21
-20
-20
-19
-20
-23
-26
-26
-22
-22
-25
-23
-21
-20
-19
-18
-20
-20
-20
-20
-17
-17
-16
-16
-16
-17
-16
-14
-14
-14
-12
-11
-14
-13
-12
-13
-13
-13
-12
-13
-15
-13
-13
-14
-18
-21
-20
-18
-13
-14
-14
-16
-16
-17
-20
-20
-20
-19
-20
-19
-20
-20
-17
-18
-20
-20
-21
-22
-23
-25
-24
-21
-20
-21
-19
-18
-21
-24
-23
-18
-16
-16
-17
-17
-17
-17
-13
-9
-8
-5
-1
0
1
0
0
5
4
3
0
0
0
-3
-6
-4
-1
0
0
-5
-10
-15
-23
-27
-27
-26
-25
-22
-21
-28
-31
-30
-27
-25
-26
-24
-22
-24
-27
-24
-7
9
29
57
111
169
215
267
359
447
435
375
327
279
195
80
-28
-75
-63
-55
-46
-46
-45
-45
-45
-43
-43
-44
-46
-46
-44
-45
-46
-43
-46
-48
-45
-43
-40
-41
-45
-44
-43
-41
-40
-40
-41
-45
-48
-45
-45
-46
-46
-45
-47
-47
-47
-48
-50
-52
-57
-60
-63
-65
-72
-80
-84
-82
-86
-89
-100
-100
-102
-107
-110
-114
-118
-118
-117
-115
-111
-103
-94
-86
-76
-65
-58
-52
-45
-38
-35
-36
-34
-26
-23
-17
-16
-20
-20
-21
-17
-13
-13
-13
-14
-19
-24
-23
-20
-15
-10
-15
-17
-20
-20
-20
-19
-15
-15
-15
-18
-20
-20
-17
-17
-16
-11
-12
-14
-13
-11
-13
-16
-15
-9
-8
-10
-12
-15
-15
-10
-9
-8
-10
-11
-10
-9
-7
-9
-11
-13
-15
-15
-15
-12
-10
-11
-14
-15
-16
-17
-19
-16
-13
-15
-13
-16
-16
-17
-17
-17
-18
-16
-16
-17
-17
-16
-16
-17
-17
-17
-17
-16
-16
-14
-12
-13
-14
-15
-16
-17
-14
-10
-7
-6
-3
-1
0
2
5
2
-3
-3
0
6
6
1
-1
-2
2
6
3
1
0
0
-1
-6
-8
-11
-13
-21
-23
-22
-24
-22
-23
-26
-26
-25
-23
-22
-24
-24
-27
-27
-27
-17
0
24
53
92
152
203
242
255
411
478
440
380
329
268
172
52
-45
-65
-49
-36
-38
-41
-41
-42
-45
-44
-45
-48
-44
-42
-41
-41
-41
-45
-44
-44
-43
-41
-40
-39
-39
-39
-39
-39
-38
-40
-41
-36
-41
-47
-46
-43
-44
-45
-47
-47
-46
-47
-51
-50
-54
-60
-65
-66
-69
-70
-74
-80
-85
-90
-96
-99
-100
-101
-104
-106
-106
-104
-104
-101
-96
-89
-87
-78
-67
-61
-52
-45
-39
-32
-30
-28
-25
-22
-21
-20
-20
-18
-15
-15
-17
-15
-16
-20
-21
-20
-17
-18
-19
-17
-19
-23
-22
-19
-17
-16
-16
-17
-18
-19
-19
-20
-19
-17
-20
-20
-18
-19
-20
-18
-15
-16
-17
-19
-18
-16
-15
-15
-14
-13
-15
-16
-15
-13
-15
-16
-15
-15
-14
-15
-14
-13
-15
-14
-13
-13
-13
-14
-17
-16
-15
-15
-17
-16
-17
-17
-18
-19
-17
-19
-20
-21
-21
-20
-21
-19
-17
-20
-23
-24
-23
-20
-19
-20
-21
-22
-22
-20
-17
-15
-18
-20
-21
-20
-18
-18
-17
-16
-17
-20
-20
-19
-18
-20
-21
-17
-16
-15
-10
-6
-3
-1
0
3
1
-1
-1
4
6
1
-2
-3
-1
0
0
0
0
-1
-3
-7
-10
-13
-14
-21
-23
-26
-28
-27
-27
-27
-28
-30
-31
-29
-29
-26
-25
-25
-29
-27
-16
0
17
39
80
136
176
187
261
358
407
374
329
297
251
165
55
-26
-49
-42
-35
-36
-40
-43
-43
-42
-45
-44
-44
-45
-43
-44
-45
-46
-48
-45
-43
-45
-45
-42
-43
-45
-43
-44
-43
-44
-46
-44
-40
-42
-44
-45
-47
-47
-49
-49
-46
-45
-51
-50
-50
-56
-61
-62
-63
-66
-70
-73
-76
-80
-85
-89
-90
-93
-98
-100
-100
-100
-101
-100
-98
-94
-93
-85
-78
-72
-64
-56
-48
-43
-40
-36
-32
-28
-24
-23
-22
-21
-19
-18
-18
-19
-20
-23
-21
-17
-17
-17
-22
-21
-21
-22
-21
-19
-17
-18
-21
-24
-21
-20
-22
-23
-23
-23
-24
-21
-17
-16
-17
-19
-20
-20
-20
-18
-17
-19
-21
-22
-19
-16
-15
-15
-15
-16
-17
-18
-18
-16
-16
-17
-19
-20
-18
-16
-17
-15
-15
-17
-22
-22
-20
-19
-17
-15
-18
-20
-21
-22
-20
-20
-21
-21
-20
-20
-20
-20
-20
-20
-22
-22
-21
-21
-22
-24
-21
-21
-24
-25
-25
-24
-22
-22
-22
-22
-22
-23
-23
-22
-24
-25
-22
-17
-15
-14
-12
-8
-5
-3
0
0
0
-1
4
5
0
-2
-5
-4
0
1
-1
-2
-1
-3
-12
-18
-22
-25
-27
-27
-28
-30
-31
-30
-29
-31
-32
-29
-27
-29
-31
-32
-30
-28
-28
-20
-5
11
34
67
119
162
191
236
323
375
337
322
266
233
157
54
-33
-57
-45
-36
-40
-43
-41
-42
-45
-45
-45
-47
-47
-47
-44
-44
-48
-44
-45
-46
-45
-43
-43
-42
-42
-44
-42
-42
-44
-45
-45
-44
-41
-42
-43
-40
-39
-44
-46
-47
-48
-50
-51
-49
-53
-56
-58
-61
-63
-68
-71
-74
-79
-83
-86
-89
-93
-96
-98
-102
-102
-102
-102
-100
-97
-92
-89
-81
-72
-66
-64
-52
-43
-38
-36
-34
-31
-27
-27
-25
-19
-17
-15
-17
-15
-17
-20
-20
-21
-21
-22
-23
-23
-19
-16
-16
-22
-22
-20
-21
-21
-21
-21
-22
-23
-20
-19
-19
-21
-22
-21
-16
-15
-15
-11
-15
-18
-19
-15
-15
-16
-16
-16
-17
-18
-18
-16
-13
-14
-16
-15
-17
-19
-18
-16
-15
-18
-22
-23
-23
-22
-20
-23
-24
-23
-22
-19
-17
-17
-19
-21
-22
-20
-21
-23
-24
-23
-24
-24
-22
-20
-21
-23
-25
-20
-16
-13
-11
-8
-2
0
2
5
1
-2
0
3
0
-2
-4
-2
0
1
0
0
-1
-5
-12
-16
-18
-23
-28
-29
-28
-29
-29
-29
-29
-28
-31
-32
-30
-30
-32
-34
-31
-33
-33
-25
-10
4
24
53
100
149
182
225
307
379
354
337
263
236
171
76
-25
-70
-57
-44
-43
-41
-40
-42
-43
-45
-44
-45
-47
-47
-45
-46
-45
-45
-43
-38
-37
-44
-39
-40
-43
-43
-42
-41
-42
-43
-43
-42
-42
-44
-43
-43
-45
-45
-44
-46
-44
-47
-50
-49
-52
-54
-57
-59
-64
-70
-72
-75
-81
-87
-90
-93
-95
-98
-103
-106
-106
-106
-104
-103
-99
-94
-90
-83
-75
-68
-65
-56
-50
-41
-38
-36
-28
-23
-23
-24
-22
-20
-20
-21
-22
-20
-20
-21
-21
-18
-19
-20
-20
-21
-21
-21
-21
-21
-21
-21
-21
-22
-20
-19
-20
-20
-20
-17
-16
-17
-15
-18
-19
-18
-15
-13
-15
-15
-15
-15
-15
-15
-15
-12
-11
-13
-14
-15
-14
-14
-15
-15
-16
-17
-15
-14
-15
-18
-20
-18
-17
-17
-17
-17
-20
-21
-24
-22
-19
-19
-20
-20
-22
-21
-22
-19
-17
-17
-20
-20
-18
-20
-20
-20
-20
-20
-21
-21
-19
-16
-15
-14
-11
-8
-7
-2
0
1
0
-1
4
7
0
-5
-6
-1
0
0
0
0
0
-3
-12
-15
-16
-18
-26
-27
-27
-29
-29
-27
-27
-30
-32
-30
-27
-24
-28
-31
-28
-27
-29
-22
-8
6
29
63
112
159
171
232
315
377
350
300
270
242
172
74
-20
-59
-50
-40
-36
-41
-43
-42
-40
-43
-45
-46
-47
-44
-45
-46
-43
-42
-45
-44
-43
-42
-41
-43
-45
-40
-40
-43
-42
-41
-41
-41
-42
-41
-40
-38
-41
-44
-42
-44
-45
-48
-49
-50
-54
-58
-55
-58
-63
-66
-70
-74
-80
-84
-87
-88
-92
-97
-99
-98
-99
-102
-101
-96
-92
-91
-85
-78
-71
-63
-55
-48
-43
-36
-34
-31
-26
-23
-22
-21
-19
-19
-20
-18
-16
-19
-22
-22
-21
-20
-19
-19
-19
-20
-21
-22
-20
-17
-20
-22
-24
-22
-19
-19
-20
-20
-21
-22
-21
-17
-19
-22
-20
-17
-16
-15
-15
-15
-14
-15
-18
-17
-17
-15
-16
-16
-15
-15
-17
-17
-17
-18
-17
-15
-12
-16
-19
-17
-17
-19
-20
-24
-25
-24
-23
-20
-17
-16
-18
-21
-23
-22
-23
-22
-24
-23
-21
-22
-21
-20
-21
-23
-19
-13
-9
-8
-6
-1
0
0
0
-1
1
3
2
0
0
0
0
0
0
0
0
0
-1
-7
-15
-23
-27
-27
-26
-27
-28
-29
-30
-33
-34
-32
-31
-29
-27
-28
-29
-33
-34
-27
-14
-1
18
49
90
137
171
207
279
308
355
305
263
235
184
103
-2
-64
-69
-47
-41
-43
-45
-45
-48
-44
-43
-45
-43
-44
-48
-49
-50
-45
-44
-45
-43
-39
-44
-45
-40
-42
-46
-45
-46
-44
-41
-41
-40
-41
-42
-43
-43
-45
-45
-47
-50
-50
-50
-51
-53
-53
-56
-62
-66
-69
-72
-77
-85
-87
-88
-92
-97
-102
-103
-104
-107
-109
-106
-103
-100
-97
-93
-85
-82
-68
-60
-53
-50
-46
-38
-35
-33
-29
-25
-23
-22
-22
-20
-18
-19
-22
-22
-20
-19
-20
-22
-21
-21
-21
-25
-23
-20
-22
-23
-21
-22
-23
-23
-21
-20
-21
-21
-19
-16
-17
-18
-17
-16
-17
-18
-17
-18
-19
-18
-18
-18
-15
-14
-15
-12
-10
-14
-17
-14
-12
-13
-13
-13
-13
-15
-18
-20
-17
-17
-18
-15
-12
-12
-13
-19
-17
-16
-17
-18
-18
-19
-21
-22
-21
-20
-19
-19
-17
-14
-13
-14
-11
-7
-5
-3
0
2
0
0
3
7
5
1
-1
-1
3
3
1
0
0
-2
-7
-8
-8
-15
-23
-25
-24
-26
-28
-25
-24
-24
-24
-28
-28
-25
-28
-29
-28
-27
-26
-19
-4
11
32
65
119
175
214
264
354
429
404
346
300
256
175
146
-35
-80
-66
-46
-40
-42
-38
-37
-41
-43
-43
-44
-42
-44
-47
-45
-45
-44
-41
-42
-43
-42
-39
-41
-41
-42
-44
-41
-40
-43
-42
-41
-42
-43
-42
-41
-41
-44
-47
-46
-48
-50
-53
-54
-54
-57
-63
-67
-66
-67
-80
-82
-83
-91
-98
-98
-102
-106
-110
-112
-110
-109
-109
-108
-102
-96
-89
-85
-77
-68
-59
-54
-47
-41
-39
-32
-24
-22
-22
-22
-19
-16
-19
-23
-25
-23
-22
-23
-17
-13
-13
-15
-17
-17
-16
-21
-24
-22
-19
-19
-24
-21
-19
-21
-24
-22
-21
-21
-18
-15
-15
-17
-18
-18
-16
-15
-16
-17
-15
-15
-15
-18
-16
-15
-15
-15
-13
-13
-14
-13
-13
-13
-14
-16
-17
-15
-17
-20
-20
-19
-17
-18
-17
-15
-15
-17
-16
-17
-21
-22
-21
-20
-21
-21
-22
-21
-17
-20
-22
-24
-22
-19
-16
-13
-9
-6
-8
-9
-2
0
0
-2
-5
-2
0
1
1
0
-2
-1
0
0
-3
-6
-6
-5
-11
-17
-20
-19
-22
-24
-25
-25
-25
-27
-29
-26
-27
-29
-30
-29
-29
-29
-28
-27
-21
-8
3
27
61
113
171
211
253
334
427
434
381
330
280
203
104
-5
-34
-63
-43
-38
-42
-43
-44
-45
-47
-50
-46
-44
-46
-46
-48
-46
-46
-50
-48
-43
-43
-45
-43
-44
-44
-43
-45
-43
-43
-46
-47
-47
-44
-43
-44
-46
-44
-46
-49
-51
-51
-51
-54
-57
-59
-62
-65
-69
-72
-76
-78
-85
-90
-93
-96
-101
-102
-104
-106
-107
-107
-106
-104
-100
-93
-86
-79
-73
-64
-57
-51
-47
-41
-33
-30
-30
-28
-24
-22
-20
-20
-21
-20
-20
-21
-21
-22
-22
-23
-22
-18
-19
-22
-23
-19
-19
-23
-23
-22
-23
-23
-23
-22
-22
-24
-24
-23
-20
-18
-18
-19
-17
-17
-21
-20
-18
-19
-21
-21
-18
-17
-18
-19
-21
-21
-22
-19
-15
-13
-13
-13
-14
-16
-18
-20
-18
-16
-15
-19
-20
-19
-20
-20
-18
-17
-19
-21
-23
-22
-21
-21
-22
-22
-22
-22
-21
-20
-20
-23
-24
-22
-20
-20
-22
-24
-22
-20
-23
-22
-21
-22
-22
-22
-17
-13
-12
-11
-7
-6
-3
0
0
-1
-7
-4
0
0
-2
-6
-7
-4
-1
-1
-1
-3
-3
-6
-11
-14
-18
-20
-28
-28
-27
-30
-32
-33
-31
-29
-30
-34
-33
-31
-29
-29
-29
-31
-29
-19
-4
15
41
79
136
177
187
263
361
398
356
312
283
236
149
41
-39
-60
-48
-39
-43
-45
-45
-48
-48
-47
-48
-48
-50
-50
-48
-49
-49
-46
-46
-48
-48
-46
-43
-46
-47
-45
-43
-46
-48
-45
-44
-45
-46
-44
-43
-46
-48
-50
-50
-50
-50
-51
-51
-54
-57
-60
-62
-67
-72
-75
-77
-79
-84
-89
-92
-95
-98
-100
-103
-104
-103
-103
-101
-99
-95
-93
-85
-75
-68
-64
-56
-47
-42
-38
-34
-31
-30
-28
-25
-22
-23
-25
-26
-24
-21
-19
-21
-23
-23
-22
-21
-21
-21
-22
-23
-24
-21
-19
-19
-22
-25
-23
-24
-28
-29
-25
-23
-23
-23
-22
-23
-24
-21
-19
-19
-20
-23
-23
-19
-18
-19
-17
-17
-20
-18
-17
-16
-15
-17
-19
-18
-20
-22
-21
-19
-20
-22
-21
-19
-19
-20
-22
-23
-22
-22
-21
-19
-21
-23
-24
-24
-21
-19
-20
-21
-21
-22
-22
-21
-18
-20
-23
-24
-21
-22
-23
-26
-22
-21
-22
-25
-26
-25
-22
-16
-9
-7
-6
-3
-1
0
0
-5
-5
2
6
0
0
-1
0
0
1
1
0
-2
-2
-8
-15
-22
-27
-27
-26
-27
-30
-31
-29
-25
-26
-28
-29
-29
-29
-33
-33
-32
-31
-32
-28
-17
-3
15
38
75
129
167
197
252
338
369
326
284
259
215
139
42
-43
-66
-48
-38
-41
-42
-44
-44
-41
-42
-47
-45
-44
-46
-48
-50
-44
-43
-45
-44
-42
-42
-44
-45
-44
-42
-41
-45
-44
-41
-41
-43
-43
-41
-41
-42
-44
-43
-45
-49
-47
-45
-50
-52
-56
-58
-63
-65
-67
-69
-72
-78
-82
-84
-88
-90
-94
-97
-98
-101
-103
-101
-100
-99
-97
-92
-82
-75
-70
-63
-56
-50
-46
-37
-31
-29
-29
-27
-24
-20
-19
-21
-21
-21
-21
-20
-20
-20
-21
-22
-21
-19
-17
-17
-18
-19
-22
-24
-23
-19
-17
-17
-17
-20
-21
-22
-22
-21
-19
-17
-20
-18
-14
-17
-18
-15
-13
-14
-15
-14
-13
-14
-16
-17
-14
-13
-15
-16
-17
-15
-14
-17
-16
-15
-19
-19
-14
-14
-16
-18
-17
-17
-20
-18
-18
-20
-17
-18
-20
-18
-19
-21
-21
-18
-16
-15
-17
-19
-22
-21
-19
-17
-14
-14
-15
-15
-15
-17
-18
-14
-7
-4
-5
-4
1
5
3
1
0
4
7
5
3
0
-2
0
4
4
1
0
-1
-2
-8
-13
-18
-20
-21
-22
-24
-21
-20
-24
-24
-24
-25
-25
-28
-22
-20
-23
-26
-28
-23
-11
2
22
50
94
148
193
232
299
390
406
355
304
266
212
126
17
-16
-67
-45
-38
-40
-40
-37
-36
-40
-42
-40
-41
-43
-41
-43
-40
-39
-42
-42
-36
-37
-40
-39
-36
-34
-34
-38
-37
-36
-38
-39
-41
-38
-35
-36
-38
-37
-38
-41
-43
-44
-49
-50
-50
-51
-53
-58
-63
-66
-70
-72
-76
-80
-86
-92
-97
-99
-102
-103
-106
-106
-107
-105
-103
-99
-91
-85
-80
-71
-62
-52
-47
-40
-31
-24
-23
-22
-18
-15
-14
-14
-13
-13
-12
-13
-12
-12
-13
-13
-12
-12
-12
-13
-14
-13
-13
-15
-15
-13
-13
-14
-15
-16
-16
-15
-15
-12
-9
-9
-9
-7
-8
-8
-8
-10
-10
-10
-11
-10
-6
-7
-8
-7
-4
-3
-4
-8
-6
-3
-5
-7
-5
-3
-7
-8
-9
-11
-13
-14
-12
-11
-8
-9
-8
-8
-9
-9
-8
-10
-12
-13
-13
-11
-10
-11
-11
-10
-8
-7
-8
-9
-8
-9
-11
-11
-10
-12
-12
-10
-8
-9
-13
-15
-13
-13
-14
-14
-10
-6
-4
-3
-1
0
0
5
10
6
0
0
6
9
8
3
0
3
4
0
0
0
-1
-3
-3
0
-10
-18
-23
-21
-19
-22
-21
-18
-18
-24
-27
-27
-24
-26
-26
-24
-25
-24
-19
-9
2
21
29
95
149
190
226
287
390
428
375
324
292
237
145
31
-47
-58
-43
-38
-39
-38
-36
-36
-37
-39
-42
-43
-46
-42
-44
-47
-43
-38
-38
-39
-38
-37
-40
-40
-37
-42
-37
-34
-36
-38
-38
-38
-39
-40
-41
-39
-40
-39
-41
-43
-44
-43
-47
-48
-52
-55
-57
-56
-62
-67
-70
-74
-81
-87
-89
-91
-93
-98
-98
-100
-100
-101
-99
-94
-91
-85
-76
-71
-68
-63
-55
-48
-41
-36
-36
-30
-23
-23
-24
-21
-19
-19
-20
-18
-15
-15
-16
-20
-17
-16
-17
-17
-18
-18
-23
-25
-23
-20
-19
-22
-24
-21
-20
-20
-21
-18
-22
-25
-23
-20
-18
-17
-20
-21
-21
-22
-22
-21
-19
-20
-21
-21
-19
-20
-20
-19
-18
-17
-15
-15
-13
-14
-20
-24
-22
-22
-22
-20
-21
-20
-18
-17
-17
-17
-17
-18
-20
-23
-24
-21
-18
-19
-21
-21
-22
-23
-21
-20
-21
-21
-20
-21
-20
-17
-15
-14
-13
-13
-10
-6
-5
-1
0
-4
-7
0
1
0
-4
-6
-2
0
-1
-1
-1
-1
-1
-9
-10
-15
-25
-29
-28
-24
-28
-31
-30
-28
-29
-29
-29
-28
-29
-31
-31
-28
-29
-31
-22
-5
10
17
78
138
189
230
289
392
448
400
340
296
246
154
37
-55
-77
-57
-45
-45
-44
-42
-45
-46
-43
-44
-46
-47
-44
-43
-45
-44
-43
-45
-47
-44
-43
-44
-43
-42
-43
-42
-43
-46
-44
-43
-43
-41
-40
-43
-43
-42
-45
-44
-45
-49
-51
-54
-55
-57
-60
-61
-65
-70
-75
-81
-83
-89
-95
-98
-99
-103
-108
-110
-112
-112
-112
-113
-108
-104
-100
-92
-82
-72
-63
-57
-48
-42
-36
-31
-25
-20
-19
-20
-18
-15
-14
-16
-17
-17
-17
-16
-17
-17
-17
-19
-20
-17
-16
-17
-18
-17
-17
-17
-18
-17
-16
-15
-15
-16
-16
-16
-19
-18
-15
-14
-13
-13
-13
-14
-15
-15
-15
-13
-10
-10
-9
-6
-6
-9
-11
-10
-11
-13
-13
-13
-12
-13
-13
-11
-12
-14
-17
-15
-14
-16
-17
-15
-12
-13
-14
-17
-17
-17
-17
-16
-15
-14
-15
-15
-14
-17
-20
-18
-15
-14
-15
-16
-14
-14
-16
-18
-17
-15
-14
-15
-15
-13
-14
-10
-4
-3
-1
0
1
5
7
2
3
9
10
9
1
0
3
6
3
2
0
0
0
-4
-7
-12
-16
-17
-17
-18
-21
-22
-21
-20
-24
-24
-24
-22
-21
-23
-24
-25
-25
-22
-13
0
18
44
91
151
195
230
286
387
442
400
350
321
276
184
69
-27
-49
-48
-32
-33
-35
-36
-39
-40
-41
-44
-44
-43
-45
-43
-41
-42
-42
-39
-40
-41
-40
-40
-42
-39
-38
-40
-41
-38
-40
-41
-38
-37
-38
-38
-39
-40
-43
-41
-43
-46
-47
-49
-48
-50
-54
-56
-60
-65
-67
-71
-76
-78
-84
-86
-88
-94
-97
-98
-98
-100
-100
-100
-96
-92
-88
-81
-72
-65
-59
-51
-42
-37
-35
-31
-26
-23
-22
-19
-16
-13
-14
-15
-14
-14
-14
-16
-16
-15
-15
-17
-15
-15
-14
-16
-16
-15
-15
-15
-15
-14
-15
-16
-18
-16
-15
-16
-17
-16
-15
-15
-16
-16
-13
-13
-16
-13
-13
-13
-15
-16
-13
-12
-15
-14
-13
-14
-15
-15
-13
-10
-14
-14
-13
-15
-16
-17
-17
-15
-14
-15
-15
-13
-16
-19
-17
-15
-17
-19
-17
-15
-16
-16
-20
-19
-17
-16
-17
-17
-17
-18
-19
-18
-16
-17
-19
-21
-19
-15
-12
-9
-5
-2
0
3
4
2
0
1
3
0
-2
-3
-3
0
0
0
0
0
-1
-7
-13
-17
-20
-25
-27
-27
-28
-29
-27
-24
-25
-27
-28
-22
-21
-26
-29
-30
-27
-27
-23
-11
0
19
51
104
154
194
240
317
395
387
333
288
258
197
171
-11
-73
-67
-45
-41
-43
-41
-40
-42
-44
-43
-46
-49
-43
-41
-43
-45
-44
-44
-47
-47
-43
-41
-42
-44
-40
-38
-43
-44
-43
-44
-44
-45
-46
-43
-46
-48
-47
-45
-43
-45
-50
-52
-53
-57
-62
-63
-65
-67
-68
-75
-77
-82
-89
-93
-98
-103
-107
-111
-113
-111
-111
-112
-111
-107
-102
-99
-88
-78
-73
-67
-59
-51
-49
-48
-34
-30
-28
-27
-25
-25
-23
-21
-18
-15
-14
-19
-22
-25
-25
-22
-19
-17
-19
-21
-25
-23
-18
-19
-22
-26
-22
-20
-22
-24
-22
-21
-22
-23
-21
-19
-19
-23
-22
-17
-15
-16
-17
-20
-18
-17
-17
-17
-18
-19
-20
-16
-12
-14
-16
-17
-15
-16
-18
-17
-15
-15
-17
-18
-20
-22
-24
-21
-19
-20
-18
-23
-23
-22
-21
-19
-19
-19
-21
-24
-22
-17
-18
-20
-22
-19
-16
-14
-10
-3
0
0
0
-3
-1
1
0
-1
-3
-4
-5
-4
-1
0
-1
-4
-8
-12
-17
-22
-24
-27
-32
-36
-31
-28
-31
-33
-28
-23
-24
-28
-30
-31
-31
-33
-29
-25
-17
0
18
46
91
150
198
244
322
428
455
405
349
297
227
122
6
-70
-78
-53
-45
-47
-48
-43
-48
-51
-48
-48
-48
-47
-48
-49
-49
-49
-49
-51
-46
-45
-49
-45
-44
-46
-47
-49
-46
-45
-45
-48
-48
-47
-46
-46
-46
-43
-48
-51
-50
-54
-56
-56
-58
-58
-63
-72
-76
-78
-81
-87
-92
-94
-98
-100
-107
-109
-111
-115
-117
-117
-117
-116
-114
-106
-99
-94
-86
-76
-69
-61
-55
-48
-39
-36
-35
-30
-24
-21
-20
-23
-24
-20
-18
-19
-20
-21
-22
-21
-18
-16
-19
-17
-17
-23
-25
-24
-19
-17
-20
-23
-23
-21
-16
-14
-13
-17
-17
-16
-17
-17
-13
-13
-14
-16
-15
-17
-19
-19
-12
-8
-8
-9
-10
-12
-10
-9
-12
-12
-13
-15
-11
-10
-13
-15
-16
-15
-15
-21
-18
-11
-10
-11
-13
-18
-17
-19
-20
-15
-13
-15
-14
-11
-19
-21
-17
-15
-15
-17
-17
-17
-15
-15
-15
-15
-14
-14
-15
-13
-12
-10
-13
-13
-11
-13
-9
-5
-4
-1
0
3
9
8
1
0
5
10
7
4
1
0
2
2
3
2
3
1
0
-1
-9
-17
-17
-21
-21
-20
-20
-23
-25
-27
-24
-21
-17
-18
-20
-22
-24
-22
-21
-14
-4
7
36
68
119
178
219
260
341
448
473
412
365
322
239
124
7
-55
-53
-39
-32
-35
-36
-41
-45
-42
-45
-43
-37
-40
-44
-41
-39
-42
-39
-37
-43
-41
-37
-37
-42
-41
-37
-38
-39
-40
-42
-39
-38
-42
-38
-38
-44
-44
-41
-44
-48
-44
-43
-46
-48
-54
-55
-60
-66
-70
-73
-79
-80
-81
-85
-89
-95
-98
-100
-100
-104
-106
-105
-99
-96
-94
-87
-79
-72
-70
-57
-51
-44
-42
-38
-31
-25
-25
-23
-18
-15
-15
-15
-14
-12
-14
-17
-17
-15
-13
-15
-15
-15
-13
-14
-13
-12
-12
-15
-17
-18
-17
-17
-17
-15
-16
-17
-16
-16
-16
-15
-17
-18
-15
-13
-17
-17
-15
-15
-14
-16
-15
-15
-15
-16
-14
-11
-12
-13
-12
-12
-15
-14
-14
-14
-12
-12
-12
-11
-13
-15
-15
-15
-17
-17
-16
-14
-15
-19
-17
-15
-16
-15
-15
-19
-17
-17
-20
-19
-16
-14
-16
-17
-19
-21
-21
-21
-18
-18
-19
-21
-19
-18
-15
-8
-4
-2
0
0
4
7
4
1
0
3
3
1
0
0
-2
-2
0
3
1
0
-2
-4
-12
-20
-23
-21
-19
-22
-25
-25
-24
-24
-25
-28
-29
-27
-27
-26
-26
-28
-29
-25
-17
-5
-1
37
72
123
172
207
248
329
418
414
365
325
284
204
93
-12
-62
-58
-39
-32
-40
-42
-42
-45
-46
-47
-48
-44
-48
-49
-45
-45
-43
-42
-43
-45
-44
-43
-43
-46
-46
-44
-43
-41
-40
-38
-43
-44
-44
-45
-46
-45
-45
-47
-50
-50
-50
-51
-51
-54
-58
-59
-62
-67
-70
-71
-75
-81
-85
-89
-90
-96
-98
-100
-101
-103
-106
-103
-100
-95
-91
-87
-82
-74
-69
-61
-55
-50
-43
-37
-35
-32
-30
-25
-22
-25
-28
-23
-17
-17
-18
-21
-21
-21
-20
-18
-19
-19
-24
-27
-21
-16
-16
-21
-21
-20
-22
-22
-20
-20
-23
-25
-23
-21
-18
-17
-18
-18
-21
-21
-19
-20
-17
-19
-20
-19
-18
-20
-20
-18
-17
-17
-17
-16
-16
-17
-20
-21
-20
-18
-18
-19
-19
-19
-17
-20
-21
-19
-20
-22
-25
-23
-21
-19
-17
-18
-22
-24
-24
-22
-20
-22
-24
-22
-22
-22
-20
-18
-20
-23
-24
-21
-20
-21
-23
-24
-23
-21
-21
-20
-20
-22
-24
-23
-20
-21
-24
-23
-21
-21
-20
-21
-15
-10
-9
-10
-3
-1
0
0
-2
-4
0
1
-1
-1
-3
-5
-2
-1
-1
-1
-3
-3
-8
-10
-16
-19
-23
-28
-32
-34
-33
-33
-32
-29
-29
-34
-34
-31
-30
-34
-34
-32
-30
-28
-19
-4
13
40
50
136
179
213
272
368
405
365
315
279
229
139
24
-56
-68
-51
-41
-42
-44
-45
-46
-49
-50
-50
-49
-48
-50
-48
-46
-49
-50
-49
-46
-45
-45
-46
-43
-47
-48
-49
-48
-46
-48
-49
-46
-47
-49
-49
-47
-46
-46
-52
-51
-51
-53
-54
-57
-59
-60
-64
-68
-68
-73
-80
-84
-85
-92
-97
-99
-102
-105
-108
-109
-108
-109
-110
-111
-105
-100
-96
-88
-81
-75
-68
-62
-54
-46
-41
-37
-33
-28
-27
-28
-26
-22
-23
-25
-24
-24
-21
-21
-24
-24
-23
-22
-21
-21
-20
-23
-24
-24
-22
-24
-26
-25
-22
-21
-23
-24
-21
-21
-22
-23
-24
-23
-23
-24
-18
-14
-15
-17
-19
-19
-20
-20
-17
-15
-17
-20
-21
-19
-19
-20
-18
-14
-17
-21
-21
-17
-18
-20
-20
-21
-21
-21
-22
-23
-26
-27
-27
-22
-20
-19
-21
-24
-24
-24
-23
-24
-22
-20
-23
-25
-24
-28
-29
-28
-23
-20
-24
-25
-24
-24
-26
-28
-28
-26
-25
-24
-27
-28
-27
-24
-21
-19
-21
-24
-22
-17
-17
-17
-18
-9
-5
-1
0
-2
-2
0
0
-2
-3
-2
-3
-6
-6
-8
-11
-11
-9
-14
-18
-23
-27
-31
-31
-30
-30
-32
-33
-31
-34
-36
-35
-34
-33
-32
-34
-35
-36
-33
-27
-14
2
24
53
103
151
190
234
252
384
362
305
259
225
158
60
-43
-91
-71
-51
-49
-51
-50
-47
-46
-49
-50
-47
-48
-50
-51
-50
-50
-51
-52
-51
-51
-52
-50
-48
-49
-49
-48
-50
-46
-43
-48
-51
-52
-50
-50
-52
-52
-51
-50
-51
-54
-55
-56
-58
-62
-65
-69
-70
-71
-77
-82
-86
-90
-91
-97
-101
-105
-110
-112
-114
-117
-120
-120
-119
-115
-109
-105
-104
-94
-84
-74
-67
-62
-54
-47
-44
-40
-36
-32
-29
-28
-26
-24
-27
-27
-25
-22
-23
-26
-27
-24
-24
-24
-27
-27
-26
-25
-27
-28
-30
-30
-28
-25
-24
-24
-25
-23
-20
-20
-24
-26
-23
-22
-22
-21
-20
-18
-19
-21
-21
-20
-23
-24
-20
-16
-16
-17
-17
-17
-19
-20
-17
-17
-20
-22
-24
-24
-21
-21
-19
-19
-21
-22
-24
-20
-17
-21
-23
-22
-22
-21
-21
-22
-22
-23
-24
-24
-24
-24
-25
-27
-25
-26
-27
-28
-24
-21
-20
-17
-14
-11
-8
-4
-2
0
-1
-4
-2
0
-1
-5
-7
-6
-5
-5
-4
-3
-3
-6
-9
-13
-16
-18
-29
-30
-28
-30
-34
-33
-31
-35
-37
-35
-32
-33
-36
-34
-29
-31
-34
-33
-21
-7
5
32
71
128
147
206
259
356
406
370
315
274
226
147
39
-53
-77
-60
-48
-46
-49
-48
-48
-49
-49
-50
-50
-47
-47
-49
-50
-50
-47
-49
-50
-47
-46
-47
-47
-46
-44
-46
-49
-46
-45
-48
-47
-48
-47
-46
-49
-49
-48
-48
-48
-50
-51
-54
-57
-58
-61
-63
-67
-68
-73
-78
-81
-87
-90
-91
-96
-100
-102
-104
-105
-110
-110
-109
-108
-106
-99
-91
-84
-78
-71
-62
-54
-49
-47
-39
-33
-32
-31
-27
-22
-18
-20
-21
-20
-20
-23
-24
-21
-21
-21
-22
-24
-22
-25
-26
-25
-21
-22
-25
-25
-23
-22
-24
-26
-26
-24
-23
-21
-21
-21
-24
-23
-18
-16
-15
-15
-16
-15
-16
-18
-16
-15
-16
-18
-18
-17
-15
-17
-16
-15
-15
-18
-19
-16
-17
-20
-21
-21
-20
-21
-22
-20
-17
-18
-21
-21
-20
-21
-22
-20
-19
-24
-26
-24
-20
-18
-20
-20
-21
-22
-20
-19
-20
-20
-21
-21
-20
-19
-20
-22
-24
-21
-20
-20
-21
-21
-24
-24
-22
-20
-20
-22
-18
-13
-10
-8
-3
0
1
2
0
-2
1
5
2
0
0
-2
-3
-3
-1
-1
-3
-5
-7
-11
-17
-23
-25
-27
-30
-30
-28
-27
-27
-31
-30
-27
-28
-31
-30
-27
-26
-27
-28
-25
-16
-3
15
44
87
140
177
213
272
360
385
340
292
279
210
128
23
-53
-65
-48
-37
-39
-45
-45
-42
-47
-49
-45
-45
-45
-48
-48
-43
-41
-44
-42
-41
-42
-43
-43
-42
-41
-42
-43
-42
-41
-43
-43
-41
-41
-43
-43
-44
-43
-45
-45
-44
-44
-50
-52
-51
-51
-54
-56
-63
-64
-69
-74
-77
-79
-79
-84
-89
-94
-97
-99
-99
-100
-100
-100
-98
-94
-89
-83
-77
-73
-65
-56
-54
-44
-39
-34
-30
-27
-25
-22
-22
-22
-20
-20
-20
-21
-19
-18
-16
-15
-15
-16
-19
-20
-21
-16
-14
-15
-18
-18
-20
-22
-19
-17
-18
-18
-19
-18
-18
-17
-17
-15
-11
-13
-20
-21
-16
-14
-12
-11
-11
-14
-15
-16
-15
-14
-12
-13
-11
-9
-11
-14
-15
-15
-15
-12
-12
-14
-17
-17
-17
-15
-16
-17
-16
-15
-16
-17
-20
-20
-17
-19
-21
-19
-18
-17
-17
-17
-16
-18
-21
-22
-21
-21
-22
-17
-11
-9
-9
-7
-4
0
0
1
2
3
3
6
3
0
0
-1
1
3
0
-1
0
0
-1
-7
-16
-21
-28
-30
-27
-27
-25
-25
-27
-27
-26
-28
-27
-24
-27
-29
-29
-29
-25
-21
-11
1
18
40
80
137
182
219
287
380
398
343
324
246
197
111
3
-73
-80
-54
-44
-45
-43
-42
-42
-42
-42
-43
-47
-48
-44
-41
-43
-43
-41
-41
-38
-37
-43
-43
-44
-47
-43
-41
-41
-41
-40
-39
-41
-41
-41
-41
-43
-45
-45
-43
-45
-47
-50
-53
-52
-51
-51
-62
-67
-70
-73
-75
-79
-86
-95
-99
-100
-102
-105
-111
-113
-116
-117
-118
-112
-108
-100
-93
-87
-79
-69
-66
-54
-49
-38
-33
-32
-29
-24
-23
-23
-21
-19
-18
-19
-20
-21
-20
-20
-20
-17
-19
-21
-21
-21
-18
-17
-19
-18
-17
-23
-25
-23
-17
-15
-15
-14
-15
-17
-18
-15
-14
-13
-13
-13
-12
-13
-13
-13
-10
-9
-9
-9
-9
-11
-13
-14
-14
-15
-15
-15
-12
-12
-14
-14
-13
-15
-15
-17
-19
-16
-14
-16
-17
-16
-18
-19
-21
-18
-15
-15
-16
-15
-17
-18
-20
-19
-16
-15
-15
-13
-14
-14
-11
-7
-3
-1
0
2
2
-2
-4
0
2
3
0
0
0
0
0
0
0
-1
-7
-10
-10
-12
-17
-21
-23
-23
-24
-27
-26
-22
-22
-23
-27
-26
-23
-26
-29
-26
-26
-27
-24
-8
8
32
63
113
171
208
250
334
420
411
354
306
265
191
162
-23
-71
-62
-43
-37
-39
-43
-44
-45
-45
-45
-46
-46
-45
-43
-43
-44
-43
-40
-42
-45
-43
-43
-42
-41
-44
-43
-42
-44
-43
-38
-37
-44
-44
-41
-41
-42
-44
-44
-43
-48
-51
-51
-50
-51
-52
-56
-59
-62
-64
-74
-74
-78
-85
-89
-92
-93
-98
-103
-105
-105
-106
-107
-104
-99
-96
-94
-86
-78
-71
-64
-56
-48
-42
-41
-32
-28
-26
-26
-23
-21
-17
-16
-16
-17
-18
-20
-20
-20
-20
-22
-22
-20
-17
-19
-23
-24
-24
-22
-21
-19
-17
-17
-20
-21
-20
-17
-18
-19
-20
-19
-20
-19
-15
-12
-10
-12
-13
-15
-15
-17
-15
-12
-10
-11
-13
-12
-12
-15
-14
-14
-14
-16
-17
-17
-16
-17
-18
-17
-17
-17
-17
-19
-20
-20
-22
-20
-17
-19
-20
-23
-21
-17
-17
-19
-18
-20
-21
-22
-19
-17
-17
-17
-17
-18
-19
-20
-21
-17
-14
-12
-9
-5
-2
-1
0
0
-2
-4
0
3
0
-3
-4
0
2
0
0
0
0
-4
-12
-16
-17
-21
-27
-28
-29
-29
-28
-27
-25
-24
-28
-30
-31
-31
-32
-31
-27
-28
-31
-24
-11
6
24
53
102
157
192
225
297
389
388
374
291
259
196
102
-6
-60
-60
-43
-35
-38
-40
-42
-43
-44
-44
-46
-46
-44
-45
-45
-45
-47
-45
-46
-47
-43
-42
-43
-43
-42
-42
-41
-42
-43
-43
-43
-45
-44
-43
-43
-42
-43
-45
-48
-50
-51
-50
-52
-52
-53
-59
-58
-64
-71
-72
-74
-79
-83
-88
-91
-95
-99
-102
-104
-104
-106
-106
-103
-99
-96
-93
-85
-76
-70
-67
-56
-49
-43
-38
-34
-32
-29
-26
-25
-22
-21
-21
-22
-20
-20
-23
-26
-25
-22
-20
-19
-20
-21
-20
-20
-20
-19
-20
-23
-25
-23
-19
-18
-19
-20
-21
-20
-23
-23
-21
-21
-22
-22
-20
-18
-20
-20
-17
-17
-17
-19
-18
-17
-20
-23
-21
-20
-19
-19
-18
-18
-20
-20
-17
-14
-13
-16
-16
-18
-21
-22
-22
-21
-21
-21
-23
-23
-20
-23
-27
-26
-21
-20
-20
-22
-21
-23
-25
-26
-24
-25
-26
-25
-19
-15
-14
-11
-7
-3
-1
1
1
-4
-4
0
0
0
-3
-6
-8
-7
-4
-1
-5
-8
-10
-14
-17
-18
-23
-27
-31
-32
-31
-32
-36
-35
-31
-34
-36
-34
-33
-37
-37
-33
-31
-34
-30
-13
2
20
55
105
157
189
230
310
388
367
349
268
239
174
78
-23
-74
-67
-53
-50
-47
-48
-50
-48
-50
-50
-51
-52
-51
-52
-51
-49
-50
-50
-49
-48
-51
-50
-45
-47
-50
-48
-50
-50
-49
-50
-49
-48
-49
-47
-46
-50
-52
-53
-50
-52
-54
-56
-58
-62
-64
-69
-68
-71
-77
-83
-86
-89
-93
-99
-101
-105
-109
-114
-116
-116
-117
-117
-117
-113
-107
-96
-89
-82
-75
-72
-63
-53
-45
-43
-41
-33
-29
-33
-34
-27
-23
-22
-22
-23
-23
-24
-28
-30
-28
-26
-25
-22
-22
-25
-26
-27
-29
-27
-29
-29
-26
-25
-27
-28
-27
-25
-24
-24
-24
-20
-17
-20
-23
-23
-21
-24
-22
-20
-20
-19
-20
-20
-20
-20
-18
-17
-15
-18
-19
-21
-19
-21
-23
-20
-16
-17
-22
-24
-24
-25
-24
-21
-19
-19
-20
-27
-21
-17
-17
-21
-20
-15
-16
-15
-13
-8
-6
-1
0
-1
-3
-1
1
1
-2
-7
-8
-6
-5
-5
-9
-7
-6
-11
-16
-16
-15
-24
-31
-32
-30
-29
-30
-31
-29
-27
-28
-29
-31
-31
-33
-30
-27
-27
-27
-19
-2
19
50
99
159
207
251
325
433
457
404
345
293
222
120
0
-81
-85
-59
-47
-47
-45
-44
-45
-48
-49
-48
-46
-48
-49
-48
-48
-48
-47
-44
-45
-48
-47
-44
-43
-46
-42
-41
-44
-43
-44
-43
-43
-44
-48
-46
-45
-46
-48
-49
-48
-52
-54
-54
-57
-59
-64
-69
-70
-74
-79
-84
-87
-90
-96
-99
-105
-110
-111
-118
-118
-118
-118
-118
-111
-105
-99
-93
-83
-72
-64
-58
-53
-44
-38
-37
-29
-22
-22
-24
-22
-20
-20
-20
-20
-20
-20
-20
-20
-20
-20
-19
-20
-19
-17
-17
-17
-17
-17
-18
-20
-22
-22
-21
-22
-22
-21
-19
-18
-18
-18
-18
-17
-16
-15
-15
-15
-16
-16
-15
-15
-16
-13
-13
-13
-14
-14
-13
-14
-15
-15
-14
-13
-14
-16
-15
-15
-16
-17
-16
-16
-17
-18
-18
-19
-21
-20
-19
-17
-17
-18
-18
-19
-18
-19
-19
-17
-18
-19
-22
-18
-14
-11
-8
-5
-1
0
0
2
1
-1
0
5
5
0
-1
-2
0
0
0
0
-3
-2
-2
-9
-11
-15
-22
-25
-26
-24
-24
-24
-24
-28
-29
-30
-28
-28
-27
-28
-25
-21
-23
-24
-13
2
24
32
94
153
197
229
288
395
444
401
352
312
253
160
45
-39
-55
-45
-36
-33
-40
-43
-42
-41
-44
-42
-41
-43
-44
-41
-44
-45
-43
-43
-43
-42
-42
-41
-38
-38
-39
-37
-37
-41
-42
-41
-41
-39
-39
-41
-42
-41
-45
-46
-43
-46
-50
-48
-51
-53
-56
-58
-60
-61
-68
-72
-74
-81
-86
-89
-89
-92
-96
-99
-100
-100
-100
-100
-96
-91
-86
-82
-73
-65
-56
-51
-43
-33
-30
-29
-24
-17
-13
-13
-13
-13
-13
-17
-16
-13
-10
-10
-11
-10
-11
-14
-15
-13
-10
-10
-9
-9
-9
-12
-13
-13
-13
-12
-13
-14
-10
-10
-14
-14
-13
-12
-12
-14
-13
-11
-13
-15
-14
-11
-10
-11
-11
-10
-10
-10
-8
-6
-6
-6
-7
-8
-8
-11
-13
-13
-11
-10
-9
-8
-10
-12
-15
-15
-15
-14
-15
-13
-13
-13
-13
-14
-13
-12
-14
-14
-11
-12
-13
-13
-14
-13
-13
-15
-14
-12
-13
-14
-11
-6
-3
-3
0
0
4
8
10
7
2
4
11
11
4
0
2
5
5
6
7
6
3
1
-1
-5
-10
-15
-20
-24
-23
-21
-22
-21
-21
-23
-26
-25
-20
-19
-22
-23
