10
10
10
10
10
10
7
10
13
9
9
10
14
14
11
15
18
17
18
18
23
25
24
27
30
32
35
35
43
46
48
51
55
60
62
64
69
70
71
70
72
78
79
75
74
76
75
71
69
67
66
55
51
48
42
36
31
27
26
22
17
15
16
13
8
9
13
10
7
6
8
9
6
3
5
7
9
6
9
12
9
9
11
14
14
10
12
13
14
12
13
18
14
12
11
13
16
15
12
12
13
10
9
10
11
8
5
4
7
5
4
2
5
1
-2
-2
1
0
-3
-4
-2
-2
-6
-6
-4
-3
-7
-9
-7
-6
-6
-9
-5
-3
-4
-7
-4
-1
-3
-6
-5
-2
-4
-6
-8
-8
-12
-16
-20
-15
-11
-7
-8
-5
-6
-10
-14
-12
-10
-12
-15
-16
-13
-15
-16
-15
-12
-12
-13
-13
-11
-10
-14
-14
-11
-11
-21
-16
-5
14
54
116
186
253
286
260
176
54
-51
-95
-88
-60
-30
-9
-4
-3
-7
-8
-10
-9
-8
-12
-14
-11
-10
-12
-12
-10
-10
-12
-12
-10
-6
-9
-10
-9
-5
-5
-8
-8
-6
-4
-4
-4
0
1
0
-1
2
7
7
5
11
14
12
15
21
28
29
31
34
40
41
43
46
52
55
53
55
58
60
60
60
61
61
57
54
52
51
45
40
35
33
25
20
15
14
8
3
-1
1
-1
-5
-7
-5
-3
-9
-12
-10
-8
-9
-12
-11
-9
-10
-10
-9
-5
-8
-9
-10
-3
-1
-7
-5
-5
-5
-4
-4
-2
-2
-4
-5
-4
-3
-5
-8
-4
-6
-7
-10
-9
-7
-9
-13
-13
-11
-12
-14
-15
-15
-16
-19
-21
-19
-17
-20
-22
-23
-21
-23
-23
-23
-21
-23
-26
-26
-23
-24
-27
-28
-24
-24
-26
-28
-26
-25
-25
-26
-24
-22
-26
-25
-23
-22
-26
-27
-24
-22
-24
-27
-30
-30
-34
-37
-32
-23
-22
-23
-23
-23
-24
-28
-29
-30
-29
-32
-33
-31
-31
-31
-31
-29
-28
-29
-32
-32
-28
-29
-30
-30
-34
-37
-33
-24
-1
47
112
185
251
267
202
71
-52
-109
-108
-77
-40
-21
-21
-26
-26
-24
-26
-30
-32
-28
-30
-30
-31
-29
-28
-28
-29
-26
-24
-27
-30
-26
-23
-21
-24
-23
-20
-21
-22
-20
-15
-17
-17
-14
-8
-9
-7
-5
3
3
5
7
13
15
23
23
28
31
34
35
40
43
43
46
46
48
46
42
39
40
35
29
24
22
17
10
5
1
0
-8
-11
-12
-13
-18
-22
-23
-23
-22
-25
-24
-21
-23
-28
-27
-24
-22
-23
-25
-22
-22
-25
-25
-19
-16
-20
-20
-19
-18
-22
-23
-22
-18
-19
-21
-19
-15
-20
-23
-22
-22
-21
-24
-27
-26
-29
-29
-32
-29
-28
-34
-36
-32
-32
-35
-38
-37
-37
-38
-41
-39
-37
-40
-41
-42
-38
-40
-42
-42
-39
-41
-42
-44
-41
-40
-40
-43
-42
-41
-41
-42
-39
-38
-37
-38
-38
-36
-39
-42
-40
-38
-39
-41
-42
-42
-47
-51
-50
-47
-44
-42
-41
-39
-38
-42
-44
-42
-42
-44
-48
-45
-43
-44
-46
-45
-44
-45
-44
-45
-45
-46
-44
-47
-44
-45
-48
-39
-26
4
54
118
183
228
226
145
24
-68
-110
-105
-73
-39
-31
-36
-41
-36
-36
-40
-42
-40
-39
-41
-43
-40
-42
-40
-42
-38
-38
-40
-43
-38
-33
-36
-39
-40
-37
-36
-36
-34
-31
-32
-35
-33
-28
-26
-25
-26
-22
-20
-17
-13
-10
-3
-3
-2
4
9
11
15
17
22
23
25
28
33
34
32
30
31
32
33
26
23
22
13
9
6
4
-2
-9
-12
-15
-21
-26
-27
-25
-29
-32
-31
-33
-33
-35
-34
-34
-33
-36
-36
-36
-36
-36
-35
-32
-32
-34
-34
-31
-29
-30
-30
-28
-29
-28
-28
-27
-25
-27
-28
-25
-24
-26
-28
-26
-24
-27
-28
-31
-28
-29
-32
-32
-31
-33
-34
-37
-33
-35
-39
-39
-39
-39
-44
-44
-43
-42
-41
-44
-44
-40
-43
-45
-46
-43
-44
-44
-48
-44
-45
-47
-46
-45
-47
-47
-49
-46
-44
-46
-48
-43
-43
-43
-45
-45
-43
-46
-48
-48
-48
-54
-57
-57
-52
-47
-46
-45
-45
-47
-50
-49
-48
-49
-53
-53
-51
-50
-50
-52
-51
-49
-50
-51
-51
-47
-50
-50
-49
-50
-55
-50
-36
-12
31
96
166
220
231
167
40
-76
-118
-122
-82
-48
-35
-37
-45
-44
-40
-45
-47
-50
-47
-46
-48
-47
-43
-43
-44
-45
-43
-43
-44
-43
-40
-38
-40
-43
-41
-37
-39
-38
-38
-33
-34
-34
-32
-30
-27
-27
-25
-18
-14
-16
-13
-7
-4
-3
1
5
11
11
16
20
23
25
21
25
31
30
25
25
25
25
20
16
14
9
5
-1
-2
-8
-14
-20
-22
-25
-25
-34
-36
-33
-37
-42
-41
-40
-41
-44
-43
-42
-41
-45
-45
-42
-41
-43
-43
-41
-40
-39
-40
-36
-35
-34
-37
-36
-32
-33
-36
-35
-31
-33
-36
-37
-35
-34
-39
-39
-36
-35
-38
-39
-38
-39
-41
-43
-44
-41
-43
-46
-46
-46
-49
-51
-49
-45
-49
-51
-52
-50
-50
-54
-54
-50
-50
-51
-52
-51
-49
-52
-52
-52
-49
-51
-56
-51
-49
-50
-51
-51
-45
-47
-48
-48
-47
-50
-49
-50
-47
-51
-52
-55
-57
-56
-59
-53
-45
-44
-46
-48
-50
-51
-51
-55
-55
-52
-56
-57
-55
-53
-51
-55
-55
-53
-52
-52
-52
-51
-53
-60
-60
-50
-34
-29
51
126
200
249
240
150
18
-90
-132
-113
-79
-52
-41
-42
-44
-44
-48
-49
-50
-47
-51
-52
-50
-47
-48
-49
-47
-44
-48
-51
-47
-42
-45
-46
-45
-43
-43
-42
-43
-39
-39
-40
-38
-35
-32
-33
-32
-29
-24
-22
-22
-16
-12
-9
-7
-6
0
5
6
12
16
19
18
21
24
27
28
26
30
31
27
27
29
24
23
15
13
7
0
-6
-10
-14
-19
-25
-28
-30
-32
-36
-39
-38
-41
-43
-46
-44
-42
-42
-46
-45
-42
-40
-46
-44
-43
-42
-44
-42
-38
-39
-38
-40
-37
-35
-37
-36
-34
-34
-36
-38
-36
-37
-37
-40
-39
-38
-39
-42
-40
-39
-39
-44
-45
-41
-42
-44
-45
-41
-43
-44
-48
-46
-44
-49
-48
-48
-47
-51
-52
-48
-52
-51
-57
-55
-53
-56
-55
-54
-52
-51
-54
-54
-53
-53
-56
-55
-51
-50
-53
-54
-49
-50
-52
-50
-50
-48
-49
-51
-49
-46
-49
-54
-57
-58
-60
-59
-53
-46
-44
-48
-47
-47
-50
-53
-53
-51
-52
-54
-56
-55
-52
-53
-54
-52
-52
-52
-55
-56
-51
-51
-52
-53
-52
-57
-61
-53
-39
-25
12
69
136
205
253
249
184
64
23
-122
-133
-112
-85
-59
-46
-38
-44
-46
-45
-43
-48
-49
-50
-47
-46
-49
-50
-46
-46
-47
-50
-48
-47
-47
-50
-47
-43
-43
-43
-44
-41
-42
-40
-40
-37
-36
-37
-38
-34
-35
-37
-34
-31
-27
-29
-25
-20
-15
-14
-13
-7
-3
0
-1
4
10
12
12
13
20
20
22
25
31
31
31
29
30
34
32
30
29
27
25
18
15
12
6
-2
-4
-6
-11
-16
-19
-21
-24
-28
-32
-31
-32
-35
-38
-38
-38
-41
-42
-40
-36
-36
-38
-36
-34
-33
-38
-38
-36
-35
-36
-36
-29
-31
-32
-32
-31
-28
-32
-31
-28
-26
-29
-31
-29
-25
-25
-29
-29
-28
-31
-35
-32
-29
-30
-32
-31
-32
-34
-39
-35
-32
-33
-37
-40
-39
-39
-38
-40
-41
-37
-38
-44
-42
-41
-45
-45
-47
-43
-45
-47
-48
-44
-44
-45
-46
-43
-46
-49
-49
-47
-45
-46
-47
-45
-44
-46
-46
-44
-40
-43
-45
-44
-40
-42
-44
-41
-38
-40
-46
-52
-52
-52
-51
-47
-40
-37
-41
-43
-40
-40
-42
-48
-47
-44
-47
-48
-48
-44
-46
-48
-46
-43
-45
-46
-44
-41
-38
-42
-47
-46
-44
-35
-25
8
66
86
190
239
235
174
70
-34
-97
-109
-94
-59
-33
-29
-38
-37
-33
-32
-37
-40
-38
-38
-39
-39
-37
-34
-33
-36
-37
-37
-37
-40
-37
-33
-34
-35
-34
-32
-32
-35
-34
-31
-31
-33
-31
-28
-27
-28
-27
-23
-21
-20
-17
-14
-7
-4
-5
-1
7
8
10
12
20
21
24
27
31
34
34
35
37
40
39
37
37
39
38
33
32
29
22
17
12
10
4
-2
-8
-9
-11
-16
-17
-18
-19
-23
-26
-25
-23
-28
-28
-29
-27
-28
-30
-28
-27
-28
-30
-29
-25
-28
-29
-28
-24
-24
-26
-25
-21
-21
-23
-25
-21
-22
-21
-23
-22
-18
-17
-21
-23
-21
-24
-27
-23
-20
-23
-26
-28
-24
-24
-27
-27
-28
-28
-31
-32
-34
-33
-34
-36
-35
-35
-36
-38
-38
-34
-37
-39
-39
-36
-36
-40
-39
-37
-36
-41
-42
-39
-38
-39
-40
-40
-38
-41
-42
-38
-36
-37
-39
-35
-38
-37
-37
-37
-32
-37
-38
-41
-42
-45
-47
-43
-36
-32
-35
-37
-35
-36
-42
-41
-41
-40
-41
-44
-40
-39
-40
-44
-41
-38
-38
-39
-41
-36
-38
-42
-46
-41
-30
-16
16
88
158
226
259
226
114
72
-97
-114
-85
-53
-31
-27
-30
-34
-35
-35
-35
-36
-38
-37
-35
-34
-37
-39
-35
-34
-36
-36
-34
-32
-31
-35
-33
-29
-30
-32
-29
-29
-29
-28
-25
-23
-20
-21
-20
-15
-12
-12
-11
-8
-2
0
3
9
13
12
16
20
27
29
29
31
38
39
38
41
44
42
39
40
39
37
31
28
27
21
16
7
5
1
-2
-11
-11
-14
-20
-21
-23
-24
-25
-28
-31
-28
-29
-31
-32
-30
-30
-33
-32
-30
-29
-28
-30
-30
-25
-26
-28
-26
-25
-24
-25
-27
-21
-21
-23
-22
-19
-21
-23
-22
-21
-21
-24
-24
-24
-22
-25
-27
-25
-23
-24
-31
-29
-28
-31
-34
-35
-31
-32
-37
-38
-34
-36
-38
-42
-39
-38
-43
-41
-40
-38
-39
-40
-39
-36
-37
-42
-40
-40
-36
-39
-39
-34
-34
-35
-37
-35
-34
-37
-36
-35
-36
-41
-43
-44
-45
-45
-39
-32
-32
-33
-36
-37
-34
-38
-42
-42
-38
-39
-42
-42
-38
-38
-41
-40
-38
-37
-39
-37
-36
-36
-39
-44
-44
-37
-33
-11
34
101
174
246
276
237
110
-27
-102
-119
-97
-72
-44
-28
-26
-32
-35
-31
-31
-36
-37
-34
-32
-32
-37
-35
-33
-34
-35
-33
-31
-31
-33
-32
-30
-29
-30
-29
-27
-24
-25
-25
-20
-18
-18
-20
-17
-13
-14
-12
-7
-3
-2
-2
2
10
13
14
16
22
25
26
29
34
40
38
38
43
47
48
47
50
51
50
44
44
44
38
33
31
27
21
15
10
9
3
-4
-7
-8
-10
-14
-15
-16
-15
-20
-21
-19
-19
-20
-25
-22
-20
-22
-24
-20
-18
-19
-21
-17
-15
-15
-18
-15
-13
-11
-12
-11
-9
-8
-10
-10
-7
-8
-7
-10
-7
-8
-12
-17
-14
-12
-11
-18
-15
-14
-15
-19
-18
-17
-17
-21
-24
-21
-21
-19
-22
-24
-21
-22
-23
-22
-22
-24
-27
-25
-23
-24
-26
-27
-23
-24
-26
-22
-18
-19
-20
-21
-22
-21
-19
-21
-19
-19
-18
-26
-29
-28
-29
-26
-18
-16
-14
-19
-18
-18
-19
-23
-24
-23
-22
-23
-25
-21
-19
-23
-23
-19
-20
-20
-20
-18
-15
-19
-25
-24
-14
-3
12
62
132
199
259
280
231
115
-14
-90
-99
-78
-49
-23
-9
-10
-11
-16
-11
-11
-13
-16
-14
-11
-12
-13
-14
-11
-10
-13
-13
-10
-8
-10
-10
-7
-3
-6
-8
-6
-4
-2
-6
-1
0
-1
-3
1
6
6
7
9
15
17
15
20
24
30
32
32
39
45
44
45
50
54
55
57
59
63
63
63
66
71
68
66
64
62
59
53
49
46
41
33
29
27
23
18
12
10
9
8
3
3
3
2
-1
0
-1
-4
-4
-2
2
2
-1
0
4
3
2
3
6
6
6
4
8
8
8
6
8
11
10
8
7
9
9
5
6
7
6
5
4
6
4
0
-2
1
1
-2
-4
-2
-2
-2
-7
-5
-4
-8
-9
-9
-10
-10
-12
-9
-6
-6
-11
-10
-11
-7
-12
-13
-10
-8
-11
-11
-10
-6
-7
-9
-9
-6
-7
-9
-8
-3
-4
-8
-11
-10
-13
-20
-20
-12
-6
-5
-5
-5
-3
-7
-11
-9
-9
-10
-12
-10
-9
-10
-13
-10
-7
-10
-13
-13
-9
-9
-11
-12
-12
-16
-12
1
18
59
115
179
243
274
278
182
67
-30
-83
-85
-57
-22
-2
1
-2
-4
0
-3
-4
-3
-2
-5
-3
-4
-3
-5
-4
-3
-2
-3
-4
-3
-1
-2
-2
-1
3
2
2
2
4
5
2
5
7
8
8
7
12
14
13
15
20
23
23
24
27
32
32
36
40
44
47
46
52
60
62
58
61
65
67
66
66
67
66
63
61
58
57
54
47
42
37
31
26
23
22
17
13
13
11
9
5
4
4
4
2
1
3
5
0
0
2
5
6
2
7
8
5
4
7
9
12
8
10
11
9
9
12
13
13
10
8
11
13
8
6
9
8
6
4
5
6
3
0
0
3
-1
-2
-2
-3
-5
-6
-6
-5
-5
-7
-7
-7
-7
-10
-11
-7
-7
-8
-13
-12
-8
-9
-10
-10
-7
-8
-8
-6
-6
-8
-11
-11
-7
-7
-8
-10
-10
-13
-18
-19
-13
-5
-3
-6
-6
-5
-7
-10
-9
-9
-12
-15
-12
-11
-9
-12
-12
-11
-8
-10
-12
-9
-8
-11
-13
-12
-18
-17
-9
8
39
93
156
230
288
292
237
117
-9
-80
-87
-61
-26
-3
2
-1
-2
-4
-5
-8
-5
-5
-6
-9
-8
-5
-7
-9
-7
-5
-5
-6
-5
-2
-1
-5
-4
-3
-1
-2
-2
0
2
-1
2
5
6
4
7
11
14
14
14
18
22
23
25
29
33
36
40
42
48
53
52
54
61
64
66
64
70
71
71
69
70
73
69
63
64
62
56
48
46
41
36
28
26
23
18
13
11
9
10
5
4
3
4
3
1
3
3
1
-2
0
3
4
1
2
4
4
3
9
11
11
8
6
9
10
9
8
11
14
13
7
10
12
9
6
7
8
9
7
5
7
4
1
1
4
2
-1
-3
-1
-1
-3
-6
-6
-4
-3
-7
-5
-5
-8
-7
-7
-6
-7
-9
-7
-5
-5
-9
-8
-6
-6
-9
-10
-8
-7
-7
-7
-4
-2
-2
-6
-4
-3
-7
-10
-11
-11
-15
-19
-15
-6
-2
-4
-7
-3
-6
-7
-10
-8
-8
-11
-14
-13
-10
-8
-11
-8
-7
-7
-10
-8
-5
-7
-9
-6
-5
-9
-13
-4
8
28
71
134
193
249
279
263
196
84
47
-75
-81
-59
-31
-6
7
6
2
-2
0
2
2
-2
-4
1
-1
-3
-3
-1
1
1
-3
1
1
0
0
1
4
1
-1
2
6
4
2
3
7
9
7
7
12
11
14
15
18
21
21
22
27
31
33
35
39
40
42
44
49
53
56
55
58
63
66
63
68
70
70
71
70
69
68
64
61
60
57
55
44
42
40
33
26
23
22
20
13
13
12
12
8
6
9
10
5
5
7
5
5
4
7
7
7
5
8
9
8
6
9
13
11
9
13
15
13
10
12
16
16
15
13
16
15
13
11
15
17
16
12
12
14
11
9
10
12
10
7
5
8
5
4
1
4
2
0
-1
0
2
-3
-4
-2
-1
0
-6
-4
-3
-3
-6
-4
-3
-4
-7
-8
-6
-5
-8
-5
-6
-5
-7
-6
-3
-3
-5
-7
-1
-1
0
-8
-6
0
-3
-6
-5
-7
-11
-15
-14
-12
-6
-5
-4
-1
1
-4
-5
-7
-7
-9
-12
-9
-7
-8
-12
-10
-10
-8
-11
-9
-7
-7
-10
-8
-9
-7
-11
-14
-14
-11
-5
6
26
68
128
199
273
308
312
193
69
-31
-82
-87
-61
-28
-6
3
1
3
0
-3
-2
-4
-4
-6
-5
-1
-4
-5
-7
-4
-3
-2
-5
-3
-1
-1
-3
-1
0
1
-1
0
2
3
0
3
4
5
5
4
8
10
8
10
14
18
18
15
21
24
26
29
35
39
41
41
45
51
56
54
55
60
63
63
65
69
70
68
66
69
67
65
59
58
56
50
45
43
40
35
27
25
23
19
13
11
11
10
6
3
2
3
1
1
4
4
3
-1
3
4
3
2
4
7
5
3
5
7
10
8
7
9
11
10
9
11
12
10
8
13
11
12
9
9
10
7
3
5
7
6
2
1
3
0
-3
-2
-3
-2
-5
-7
-4
-5
-8
-9
-7
-6
-5
-11
-9
-7
-8
-10
-11
-10
-10
-12
-11
-9
-10
-13
-12
-11
-9
-12
-11
-11
-11
-12
-11
-8
-7
-6
-10
-8
-8
-7
-10
-8
-7
-9
-13
-17
-19
-19
-19
-13
-6
-5
-10
-12
-9
-10
-12
-14
-12
-15
-17
-17
-17
-12
-13
-17
-14
-11
-13
-16
-16
-13
-14
-15
-14
-13
-15
-20
-23
-14
-2
12
50
117
189
211
298
290
201
63
-47
-94
-92
-69
-40
-14
1
-1
-7
-6
-3
-7
-10
-11
-7
-9
-11
-11
-8
-6
-7
-11
-8
-3
-6
-8
-7
-4
-5
-7
-5
-1
-2
-4
-3
2
2
0
2
7
8
5
8
15
16
18
19
25
27
32
30
35
40
43
43
48
51
54
53
57
61
62
63
63
66
66
64
60
60
57
56
45
46
42
37
30
27
25
18
13
11
11
6
5
6
6
4
1
1
1
3
0
-2
4
2
3
0
3
5
5
5
5
10
7
6
9
10
10
8
10
12
10
7
8
9
10
9
6
8
6
5
3
4
4
1
-2
-1
0
-2
-6
-4
-2
-5
-8
-7
-7
-6
-9
-11
-9
-9
-12
-13
-9
-9
-10
-13
-11
-9
-9
-13
-9
-7
-11
-13
-13
-9
-11
-11
-10
-10
-9
-11
-11
-9
-8
-8
-10
-8
-5
-4
-7
-6
-5
-8
-11
-8
-6
-9
-13
-17
-15
-18
-18
-12
-5
-4
-7
-8
-5
-5
-11
-11
-9
-9
-10
-11
-11
-10
-9
-12
-7
-4
-5
-9
-8
-4
-4
-7
-7
-4
-2
-5
-3
1
-1
-6
-8
3
15
19
79
153
233
301
304
224
81
-37
-83
-67
-36
-6
8
12
10
10
7
7
9
8
5
3
7
10
9
6
8
12
10
8
11
14
14
11
13
15
16
14
16
21
20
19
21
25
27
26
28
32
36
37
40
44
49
51
52
59
66
68
66
67
73
76
75
77
83
82
82
82
84
85
81
77
78
77
75
67
65
60
54
48
46
43
41
36
35
35
32
29
32
30
30
28
27
29
31
29
30
31
35
34
32
33
36
35
33
37
38
38
37
40
42
41
41
39
43
43
41
41
41
43
42
39
40
40
40
36
37
36
34
32
32
35
33
30
31
32
31
28
31
29
32
28
25
27
25
26
26
27
25
24
22
25
28
25
21
24
26
26
24
24
26
26
23
23
28
28
28
26
27
29
28
29
32
30
29
26
30
31
26
19
21
24
25
27
33
35
35
31
29
30
29
27
25
26
27
24
26
28
29
30
25
29
27
28
28
29
29
29
28
29
32
33
30
32
31
27
28
41
55
88
151
227
303
341
343
179
35
-45
-53
-22
15
41
44
36
39
43
41
38
37
38
36
37
36
41
41
40
37
42
41
42
38
40
42
42
39
43
44
46
44
44
48
48
48
47
49
52
51
54
59
64
64
66
70
75
77
78
84
86
88
87
92
96
97
96
99
103
104
100
100
102
99
98
95
93
92
85
81
77
73
68
61
59
57
53
49
47
48
44
40
41
43
40
36
36
38
39
38
36
39
39
39
39
41
42
41
39
44
45
42
43
44
45
43
41
43
46
47
43
43
45
47
44
43
45
45
40
38
40
40
41
36
37
37
34
31
32
33
30
28
28
31
29
25
24
26
25
20
21
23
21
19
20
18
21
21
14
14
17
15
14
14
18
17
14
15
17
18
15
16
18
15
16
14
18
18
18
17
18
17
16
15
17
14
8
3
5
7
8
13
15
17
15
12
11
12
12
8
6
7
5
5
4
7
8
9
5
6
9
7
5
4
6
5
4
6
8
6
6
6
7
4
1
11
22
40
79
138
203
260
277
257
167
45
-44
-79
-68
-42
-15
6
12
9
8
8
7
7
5
5
3
4
7
6
4
7
5
4
3
5
8
4
3
6
7
8
7
5
9
9
6
7
12
14
13
11
16
18
15
19
23
25
24
25
30
36
38
40
44
47
49
49
52
57
60
57
59
61
66
64
66
67
67
64
61
63
60
58
51
49
47
40
34
30
29
24
17
14
14
11
6
5
6
6
1
-1
2
1
0
-3
1
0
-2
-4
-2
2
1
-2
0
0
1
-2
3
5
3
0
3
5
3
3
2
3
4
0
-3
0
2
1
-2
-2
0
-7
-7
-7
-5
-6
-11
-11
-11
-13
-14
-15
-15
-18
-20
-22
-20
-19
-22
-25
-24
-24
-26
-27
-26
-24
-27
-31
-30
-28
-28
-32
-30
-29
-29
-31
-31
-28
-28
-29
-32
-25
-26
-30
-32
-32
-32
-34
-38
-39
-39
-45
-46
-42
-34
-33
-32
-32
-31
-34
-37
-38
-38
-38
-40
-42
-39
-40
-42
-43
-41
-38
-39
-44
-40
-39
-39
-43
-39
-38
-44
-46
-35
-22
-1
46
115
189
251
262
210
93
-35
-113
-125
-99
-69
-59
-34
-33
-35
-38
-40
-39
-41
-39
-43
-43
-39
-40
-42
-44
-40
-38
-41
-41
-39
-39
-40
-42
-37
-35
-35
-40
-37
-35
-35
-36
-33
-30
-31
-34
-29
-27
-25
-27
-24
-20
-18
-17
-14
-8
-5
-5
-3
3
7
6
8
12
14
15
14
19
23
24
25
27
29
28
26
27
25
23
16
13
10
8
1
-4
-7
-11
-13
-23
-25
-28
-30
-33
-36
-37
-38
-41
-41
-38
-38
-42
-43
-41
-40
-44
-43
-40
-41
-44
-42
-39
-38
-38
-40
-40
-35
-37
-40
-36
-35
-35
-37
-35
-35
-34
-37
-38
-35
-37
-40
-41
-40
-39
-40
-41
-42
-41
-42
-46
-45
-44
-49
-50
-48
-47
-50
-52
-52
-50
-51
-54
-53
-53
-51
-54
-54
-53
-54
-57
-59
-52
-54
-53
-59
-57
-55
-58
-60
-57
-57
-57
-59
-60
-56
-56
-59
-59
-56
-54
-53
-54
-52
-52
-54
-57
-52
-53
-55
-59
-59
-60
-63
-67
-65
-58
-53
-55
-55
-53
-54
-59
-60
-58
-57
-60
-61
-58
-57
-58
-58
-57
-56
-57
-61
-57
-56
-56
-60
-56
-52
-60
-64
-57
-45
-30
6
70
145
217
247
220
122
-6
-102
-134
-124
-99
-91
-54
-46
-46
-52
-54
-51
-47
-52
-53
-54
-52
-50
-53
-52
-50
-50
-52
-53
-48
-49
-49
-52
-47
-47
-48
-49
-49
-46
-44
-46
-43
-41
-40
-41
-38
-35
-34
-36
-31
-29
-29
-26
-21
-17
-15
-14
-12
-6
-1
1
3
10
11
13
14
19
23
23
21
24
28
28
25
28
27
27
21
18
18
14
8
3
5
-3
-5
-16
-19
-21
-26
-28
-29
-29
-32
-38
-38
-37
-37
-40
-41
-39
-36
-40
-39
-36
-37
-38
-39
-36
-36
-37
-39
-33
-32
-33
-34
-34
-32
-33
-33
-32
-30
-32
-32
-29
-27
-29
-28
-31
-29
-27
-31
-31
-28
-28
-28
-33
-31
-31
-35
-39
-36
-32
-34
-38
-38
-36
-37
-40
-41
-39
-41
-43
-45
-40
-41
-42
-43
-41
-42
-43
-44
-43
-43
-44
-47
-45
-42
-43
-44
-41
-41
-43
-43
-44
-42
-43
-44
-42
-43
-41
-42
-42
-38
-36
-35
-41
-38
-37
-40
-44
-44
-41
-44
-47
-49
-48
-47
-45
-38
-33
-35
-37
-40
-37
-38
-40
-40
-39
-41
-43
-44
-38
-40
-40
-41
-39
-37
-37
-40
-38
-36
-35
-37
-38
-37
-41
-44
-39
-26
-15
4
52
110
168
187
241
223
139
21
-68
-101
-101
-82
-54
-34
-24
-27
-32
-31
-27
-29
-31
-31
-30
-29
-32
-33
-29
-28
-29
-32
-29
-27
-28
-30
-28
-24
-25
-28
-27
-25
-24
-26
-23
-21
-20
-21
-20
-17
-15
-13
-14
-9
-10
-11
-6
-1
1
3
6
10
15
16
19
20
27
31
30
33
39
40
40
44
47
47
46
45
48
49
50
42
42
40
35
31
29
26
20
14
10
8
4
-1
-4
-3
-8
-10
-11
-10
-12
-15
-14
-12
-12
-13
-16
-14
-13
-16
-16
-16
-12
-11
-12
-10
-7
-8
-10
-7
-7
-5
-7
-6
-3
-3
-4
-4
-1
-1
-2
-3
-1
-1
-4
-6
-3
-1
-4
-6
-7
-5
-6
-12
-13
-12
-13
-17
-18
-15
-15
-16
-16
-16
-15
-15
-17
-18
-17
-19
-20
-19
-19
-18
-23
-20
-18
-19
-22
-21
-18
-17
-19
-21
-18
-17
-20
-17
-15
-14
-13
-17
-14
-13
-15
-17
-17
-16
-19
-21
-22
-22
-20
-18
-12
-11
-10
-14
-15
-14
-16
-18
-21
-17
-18
-19
-21
-19
-19
-20
-17
-17
-15
-15
-18
-17
-15
-16
-20
-24
-19
-13
-3
23
73
140
210
273
295
236
209
-7
-81
-94
-75
-45
-18
-3
-5
-11
-12
-9
-10
-14
-12
-12
-9
-11
-12
-9
-10
-11
-11
-9
-5
-6
-8
-9
-8
-6
-6
-6
-2
-4
-5
-1
-1
-2
-3
1
4
4
5
7
12
14
15
16
20
25
27
28
35
37
41
39
47
52
54
53
56
62
63
62
65
70
69
66
64
67
63
59
55
54
49
47
34
31
25
18
12
10
10
5
3
2
4
1
-3
-3
-1
-3
-5
-3
-1
-1
-3
-3
0
0
-1
-1
2
4
6
5
8
8
9
7
9
13
11
8
7
10
9
6
7
11
13
8
6
6
7
7
4
4
3
0
-1
1
2
-1
-3
-3
-1
-3
-6
-6
-5
-5
-9
-7
-5
-7
-8
-8
-7
-9
-8
-12
-8
-7
-10
-7
-7
-4
-9
-10
-9
-6
-6
-7
-5
-2
-5
-4
-6
-2
-3
-7
-11
-10
-13
-14
-14
-4
1
-2
-6
-4
-4
-5
-6
-8
-7
-7
-10
-9
-6
-7
-10
-8
-6
-7
-9
-7
-3
-4
-5
-11
-12
-5
1
15
58
121
190
254
282
251
142
8
-71
-82
-67
-36
-6
6
3
-2
-1
4
2
1
-3
-2
-1
-2
-3
-2
-2
-2
-4
-3
-1
-1
0
1
4
3
2
0
3
2
4
3
7
8
10
10
13
15
17
17
19
23
24
25
31
37
39
39
42
47
53
55
56
62
66
63
66
69
71
71
70
73
73
67
62
63
60
54
44
41
39
32
26
23
22
17
14
13
13
13
8
7
9
9
10
4
7
9
6
6
9
11
11
6
9
10
12
10
13
15
13
13
15
16
14
13
14
18
16
17
11
13
14
14
10
12
11
9
7
7
8
8
4
5
7
7
3
1
3
3
0
-2
0
-1
0
-4
-2
-1
-3
-6
-2
-2
-4
-7
-6
-4
-4
-5
-5
-2
-2
-5
-7
-2
-3
-4
-6
-1
0
-1
-5
-2
-3
-5
-7
-6
-9
-10
-15
-14
-12
-10
-6
-4
-3
-1
-1
-2
-3
-2
-8
-8
-6
-6
-4
-7
-3
-4
-4
-6
-5
-3
-3
-5
-4
-3
-8
-12
0
14
37
88
153
217
264
265
203
85
-17
-43
-62
-34
-4
7
5
1
3
3
1
0
-1
0
-1
-2
-1
-3
-4
-5
0
-1
-2
-1
3
2
2
0
2
4
2
3
7
9
9
9
12
16
16
17
20
25
27
28
31
38
41
43
47
54
56
57
59
62
67
67
68
71
71
71
69
69
68
65
59
58
52
49
42
38
34
28
25
22
21
17
16
10
12
11
8
5
5
6
6
6
8
9
9
5
8
9
8
8
9
12
12
12
11
13
16
15
12
11
12
11
10
11
13
13
10
11
13
12
9
7
10
9
5
4
6
3
1
0
3
2
1
-2
-2
0
-4
-6
-5
-3
-5
-8
-7
-5
-7
-9
-9
-6
-7
-10
-11
-9
-9
-12
-12
-10
-9
-10
-10
-8
-5
-6
-8
-6
-5
-7
-8
-7
-4
-5
-9
-11
-11
-14
-15
-10
-5
-3
-3
-5
-3
-3
-5
-9
-9
-9
-12
-13
-10
-8
-11
-13
-10
-8
-9
-12
-10
-10
-12
-11
-12
-12
-18
-17
-6
12
48
66
178
251
292
277
185
54
-50
-91
-85
-48
-15
1
0
-5
-3
-2
-5
-7
-8
-7
-10
-7
-8
-6
-8
-10
-6
-5
-5
-8
-6
-3
-3
-5
-1
1
1
-2
1
2
3
2
4
7
10
9
10
15
18
18
22
26
31
32
33
42
45
45
49
55
57
60
58
62
65
65
66
67
69
68
65
62
65
61
60
50
49
42
37
30
26
22
18
15
11
11
8
4
2
3
3
0
-2
2
1
0
-1
1
0
-1
-1
1
0
1
-1
2
3
3
3
4
6
5
7
4
9
7
6
6
10
8
6
6
8
8
6
4
6
8
2
0
2
4
0
-3
0
2
-1
-5
-2
-2
-5
-7
-7
-5
-6
-8
-11
-9
-7
-8
-13
-11
-9
-12
-14
-11
-9
-12
-15
-13
-11
-12
-15
-14
-13
-12
-14
-14
-11
-12
-12
-12
-10
-10
-9
-11
-9
-6
-10
-12
-8
-9
-10
-14
-16
-18
-18
-17
-11
-5
-9
-9
-10
-8
-11
-14
-14
-12
-13
-15
-16
-12
-13
-16
-17
-14
-10
-14
-14
-14
-12
-13
-15
-16
-18
-14
-7
11
55
116
182
251
292
278
265
71
-40
-88
-90
-67
-33
-8
-2
-6
-5
-6
-6
-11
-10
-9
-8
-8
-9
-8
-8
-8
-9
-4
-5
-4
-8
-4
-3
-4
-5
-1
-1
0
-2
-1
3
2
4
4
8
7
7
11
15
16
16
21
26
28
29
33
40
43
41
44
51
54
56
57
59
63
65
64
65
69
69
66
64
65
62
59
54
51
47
45
36
32
27
22
20
16
13
11
4
3
5
4
0
1
1
-2
-3
-3
0
0
-4
-3
1
0
2
0
2
4
2
0
5
6
7
5
4
5
5
4
5
7
6
2
5
10
8
4
6
10
8
7
5
5
4
1
0
1
2
0
-1
-2
-2
-1
-4
-7
-4
-3
-8
-7
-4
-6
-11
-9
-7
-7
-8
-11
-9
-8
-12
-13
-12
-14
-11
-14
-13
-10
-11
-12
-12
-9
-10
-11
-10
-7
-7
-8
-9
-8
-8
-8
-12
-9
-6
-9
-10
-11
-16
-19
-21
-19
-12
-7
-8
-6
-6
-8
-10
-11
-9
-9
-13
-15
-14
-11
-10
-13
-12
-15
-16
-15
-14
-10
-11
-12
-11
-11
-16
-18
-7
6
30
83
150
215
264
261
198
83
-28
-56
-80
-54
-20
-5
-2
-2
-2
-5
-6
-6
-6
-6
-12
-9
-5
-7
-7
-6
-6
-7
-8
-6
-2
-3
-4
-6
-3
-1
-2
-7
-2
0
2
0
2
3
4
5
7
11
12
13
13
19
21
20
26
31
36
37
39
45
47
49
51
54
59
60
60
63
65
66
64
66
69
65
60
61
63
59
50
46
45
41
38
30
28
26
19
17
14
13
11
5
7
7
6
3
1
2
5
1
7
7
7
0
2
6
6
5
4
7
8
8
7
10
11
12
11
12
13
11
10
9
13
14
11
10
11
9
7
5
9
7
7
4
7
9
5
2
3
1
0
-1
-2
-1
-3
-5
-3
-2
-2
-5
-5
-4
-6
-7
-7
-4
-5
-4
-8
-5
-5
-9
-9
-8
-6
-7
-9
-10
-6
-6
-8
-5
-2
-5
-5
-4
-2
-5
-7
-8
-5
-3
-4
-8
-6
-10
-15
-18
-14
-11
-6
-5
-2
0
-2
-4
-6
-4
-5
-8
-10
-7
-7
-9
-9
-6
-7
-8
-9
-6
-5
-7
-7
-5
-3
-5
-11
-9
-2
5
18
48
100
151
202
253
260
218
123
17
-50
-68
-69
-32
-5
4
7
0
1
3
1
-1
-1
0
-3
-3
-3
-1
0
-3
-3
0
0
-2
-2
1
1
2
0
3
3
2
2
5
4
7
5
8
10
13
10
13
16
17
16
19
25
27
26
29
33
36
37
40
49
49
49
51
57
58
60
60
64
64
63
63
66
67
66
63
62
62
59
55
52
52
47
45
34
32
30
24
18
19
14
13
9
9
10
7
4
6
4
5
1
4
4
4
-1
-1
1
3
3
0
3
8
6
4
6
10
6
4
8
10
13
10
11
12
11
11
12
12
14
11
9
10
11
11
6
8
8
6
5
5
7
4
2
0
2
0
-3
-2
-3
-2
-2
-4
-1
-2
-7
-4
-4
-6
-7
-9
-7
-8
-9
-11
-8
-8
-10
-11
-10
-8
-9
-12
-11
-8
-8
-10
-8
-4
-5
-9
-9
-6
-5
-4
-6
-4
-5
-13
-16
-16
-17
-14
-11
-4
-1
-4
-7
-7
-7
-8
-10
-12
-11
-11
-13
-11
-9
-11
-10
-12
-9
-10
-12
-12
-9
-8
-14
-17
-13
-4
12
48
108
186
261
297
268
159
20
-75
-93
-68
-35
-25
1
0
-3
-5
-6
-5
-7
-7
-9
-8
-6
-7
-9
-7
-4
-8
-8
-6
-4
-3
-6
-3
-3
1
1
-1
3
3
2
2
6
10
10
9
13
17
16
18
21
26
28
30
34
39
42
43
48
54
55
55
59
63
68
66
64
66
68
66
64
66
66
60
55
51
50
44
35
32
29
24
20
16
14
11
9
6
7
6
3
0
2
3
0
-2
0
3
3
0
1
5
4
0
4
6
7
4
5
10
10
9
7
10
10
7
8
8
13
8
7
9
9
8
6
8
9
4
3
3
6
4
0
0
1
0
-2
-4
-2
-3
-5
-8
-5
-5
-8
-9
-9
-8
-10
-14
-13
-8
-9
-12
-12
-10
-11
-14
-14
-8
-11
-10
-12
-9
-8
-10
-12
-9
-8
-9
-10
-8
-6
-9
-10
-10
-10
-14
-19
-18
-15
-9
-9
-9
-7
-7
-9
-13
-11
-13
-15
-16
-13
-14
-15
-16
-13
-11
-11
-14
-11
-11
-10
-16
-19
-16
-6
12
60
133
213
239
283
203
60
-62
-103
-82
-49
-16
-4
-4
-7
-6
-8
-9
-8
-11
-11
-12
-9
-11
-11
-9
-6
-5
-4
-9
-7
-5
-8
-10
-3
-5
-3
-4
-1
0
2
0
0
3
4
4
6
12
12
13
17
23
26
27
31
38
42
40
44
49
54
54
55
61
65
65
64
65
66
65
63
61
59
54
48
46
44
38
36
24
23
22
16
10
10
6
4
2
2
1
-1
-2
0
1
0
-3
-1
0
-1
-5
-1
2
1
1
0
3
3
4
3
5
7
7
5
6
7
4
4
5
7
6
5
4
7
3
-1
-3
0
-1
-1
-2
1
-2
-5
-8
-5
-8
-8
-9
-8
-7
-9
-12
-11
-11
-10
-14
-14
-12
-12
-16
-16
-13
-14
-13
-14
-14
-14
-17
-22
-17
-16
-17
-20
-17
-13
-12
-14
-13
-10
-13
-14
-12
-11
-9
-12
-14
-12
-19
-19
-22
-16
-13
-10
-13
-10
-9
-11
-14
-13
-15
-18
-19
-16
-13
-13
-16
-15
-15
-13
-15
-16
-11
-11
-12
-18
-18
-16
-6
5
39
88
149
210
251
253
192
77
-27
-76
-81
-61
-29
-7
-4
-8
-8
-5
-4
-6
-15
-13
-9
-10
-12
-9
-10
-9
-10
-11
-8
-8
-10
-10
-6
-7
-8
-5
-1
-2
-6
-5
-2
-1
0
-1
3
3
3
2
9
13
15
16
22
24
28
31
37
39
42
38
42
49
51
52
55
60
60
59
61
63
65
64
60
59
54
50
47
47
44
36
31
26
22
18
13
11
10
9
5
4
5
1
-1
-3
0
-1
-3
-1
-1
0
-2
-4
-3
-2
-2
-4
-2
1
0
-1
2
4
5
4
5
7
8
9
5
7
7
6
4
5
6
3
0
4
3
0
-3
-4
0
-2
-6
-6
-3
-6
-7
-10
-7
-7
-8
-13
-11
-11
-13
-15
-12
-13
-14
-15
-14
-13
-13
-15
-15
-14
-13
-16
-15
-11
-12
-13
-13
-12
-11
-11
-14
-10
-11
-14
-20
-19
-18
-22
-23
-17
-13
-11
-12
-11
-11
-11
-13
-15
-15
-16
-18
-17
-15
-15
-14
-16
-14
-14
-16
-15
-12
-12
-14
-18
-20
-17
-12
-2
17
59
118
179
238
262
228
129
12
-66
-89
-91
-46
-16
-5
-5
-10
-6
-5
-8
-13
-11
-7
-12
-13
-11
-9
-10
-12
-12
-8
-9
-11
-11
-5
-6
-5
-7
-4
-4
-6
-6
-4
-2
0
-2
2
4
4
3
6
10
15
13
17
22
24
25
28
35
38
39
44
48
50
53
52
57
59
58
58
63
65
63
61
62
62
58
53
50
48
42
35
31
29
25
24
15
12
8
3
5
5
2
1
-4
-1
-1
-1
-3
-4
-2
-6
-5
-4
-1
1
-2
-2
1
2
0
0
4
3
2
1
4
3
5
4
5
5
3
2
3
8
3
2
2
4
1
0
0
1
-2
-1
-5
-5
-3
-5
-7
-5
-5
-8
-10
-10
-8
-9
-12
-9
-10
-11
-14
-11
-10
-10
-14
-16
-11
-13
-13
-17
-12
-14
-16
-15
-14
-14
-13
-14
-11
-9
-8
-11
-10
-8
-10
-12
-13
-10
-10
-15
-17
-14
-18
-18
-22
-16
-12
-9
-11
-9
-8
-12
-15
-14
-15
-15
-17
-14
-15
-14
-16
-15
-14
-14
-18
-17
-14
-12
-13
-12
-10
-12
-18
-20
-8
0
14
50
108
170
232
269
264
188
64
-41
-87
-83
-61
-37
-12
-1
-2
-4
-10
-5
-6
-10
-12
-10
-9
-11
-12
-10
-7
-9
-10
-8
-7
-5
-9
-7
-5
-4
-8
-6
-3
-2
-1
-6
-2
-1
-1
0
1
6
2
3
8
11
12
11
15
17
19
20
27
29
30
32
35
39
42
43
47
50
55
55
54
60
62
61
62
66
65
65
62
61
60
57
51
48
46
41
35
32
29
22
20
13
13
9
5
4
3
3
-1
0
-1
0
-1
-4
-2
-2
0
-3
-1
2
-1
-1
0
4
4
5
2
4
4
5
3
6
7
5
3
4
6
4
0
1
5
1
-4
-1
0
0
-4
-5
-2
-4
-3
-7
-5
-4
-9
-10
-7
-6
-7
-9
-8
-7
-9
-13
-11
-10
-10
-12
-13
-11
-14
-14
-14
-9
-11
-12
-15
-13
-13
-15
-14
-12
-10
-13
-12
-10
-7
-10
-12
-12
-10
-9
-12
-11
-12
-15
-20
-22
-19
-14
-11
-8
-7
-8
-10
-13
-11
-12
-13
-14
-14
-14
-16
-16
-14
-12
-13
-16
-15
-12
-12
-13
-13
-11
-12
-13
-21
-12
-6
2
32
88
155
217
271
272
212
90
-30
-92
-86
-59
-31
-6
1
-1
-6
-7
-6
-6
-7
-12
-11
-11
-10
-11
-7
-7
-7
-8
-8
-7
-6
-8
-5
-4
-3
-6
-5
-2
-2
-3
-3
0
0
1
1
3
4
1
4
8
11
10
9
16
20
21
23
27
32
35
33
39
48
51
51
53
59
60
62
61
69
68
68
68
68
68
65
59
61
57
52
44
40
38
31
27
23
18
14
9
7
11
8
7
3
3
5
0
0
4
5
1
-1
1
3
2
0
2
4
3
3
4
8
10
5
7
10
10
9
7
8
9
8
6
8
10
9
8
8
5
4
1
5
5
3
1
0
2
2
-1
-4
-1
-3
-4
-6
-4
-4
-9
-10
-5
-7
-11
-13
-10
-8
-10
-13
-12
-9
-14
-14
-13
-13
-12
-13
-13
-10
-11
-11
-12
-8
-7
-7
-4
-7
-12
-13
-14
-10
-10
-14
-19
-22
-18
-17
-17
-14
-8
-9
-12
-12
-12
-14
-15
-16
-15
-12
-13
-14
-13
-11
-13
-14
-13
-12
-11
-12
-10
-8
-8
-14
-17
-8
0
10
41
92
143
159
243
255
209
114
10
-56
-78
-63
-31
-5
2
0
-7
-2
-1
-3
-5
-6
-5
-4
-7
-9
-6
-5
-5
-4
-3
-4
-4
-3
-3
-3
-6
-5
-1
1
-1
1
1
3
3
4
3
9
10
10
11
14
14
14
20
29
30
31
31
38
40
44
44
52
56
56
56
61
65
67
66
69
73
68
66
68
71
66
65
58
56
49
44
36
38
35
26
22
20
19
17
14
12
14
9
7
7
8
9
6
5
6
6
4
3
8
7
4
5
7
9
7
8
9
11
10
8
12
14
11
11
12
15
13
8
8
12
12
11
12
15
12
8
10
11
11
7
4
6
8
6
2
4
4
1
1
-1
2
1
-2
-3
0
-2
-1
-6
-3
-5
-6
-8
-5
-6
-7
-8
-8
-6
-8
-11
-11
-7
-6
-6
-6
0
-2
-7
-4
-1
-3
-2
-5
-5
-7
-11
-15
-16
-18
-17
-16
-7
-5
-8
-10
-7
-7
-9
-13
-14
-11
-14
-16
-13
-8
-10
-9
-11
-9
-8
-8
-11
-7
-5
-8
-13
-12
-11
-3
7
29
76
130
183
235
256
236
159
47
-44
-83
-90
-57
-18
-1
1
-6
-4
-2
-2
-3
-2
-4
-7
-8
-7
-4
-5
-4
-4
-3
-3
-8
-7
-1
-3
-5
-4
-2
-1
-1
-2
2
4
1
1
5
7
7
5
8
13
15
15
19
24
25
27
31
36
39
39
44
48
52
53
57
59
64
64
63
67
69
71
67
71
69
65
61
60
57
51
45
42
38
32
30
19
19
15
11
5
7
5
3
1
3
4
0
-1
0
1
2
-1
0
3
2
1
3
6
3
3
4
6
6
4
5
7
9
6
4
7
9
7
7
8
9
6
5
5
7
5
2
2
2
2
2
-1
0
-1
-2
-5
-4
-2
-5
-8
-5
-4
-5
-8
-7
-6
-9
-12
-9
-7
-7
-11
-11
-10
-9
-10
-11
-8
-9
-11
-9
-8
-7
-10
-11
-10
-8
-11
-13
-15
-16
-19
-18
-10
-7
-5
-7
-8
-7
-10
-12
-16
-12
-14
-15
-14
-13
-13
-12
-14
-11
-10
-11
-14
-10
-9
-14
-21
-17
-11
2
30
89
156
225
245
256
170
35
-67
-97
-79
-50
-23
-8
0
-2
-6
-7
-6
-6
-10
-12
-10
-7
-8
-9
-7
-8
-8
-6
-7
-4
-4
-4
-4
-1
0
0
-2
1
3
1
3
5
8
9
8
11
15
17
15
21
25
26
28
33
41
42
44
46
52
57
59
60
62
66
67
67
71
73
73
70
70
71
67
63
59
56
50
48
38
33
27
22
19
18
12
10
8
6
6
3
1
1
3
3
2
2
4
6
2
2
8
6
6
5
8
7
7
6
9
10
10
9
11
13
10
8
10
12
10
7
6
8
7
2
1
2
3
2
0
1
0
-1
-5
-4
-6
-7
-8
-6
-6
-10
-12
-7
-5
-6
-8
-7
-5
-5
-10
-8
-5
-5
-7
-7
-4
-5
-7
-8
-5
-4
-8
-10
-11
-13
-16
-17
-9
-3
-3
-5
-6
-2
-5
-10
-9
-6
-9
-11
-14
-10
-9
-10
-11
-6
-5
-7
-8
-7
-7
-10
-15
-17
-9
-2
13
58
126
200
264
288
244
119
75
-81
-90
-61
-27
-5
3
1
-3
-3
-1
-2
-5
-6
-4
-1
-2
-3
-4
-3
-1
-4
-3
2
0
-2
-3
2
3
3
3
7
7
6
4
8
9
10
11
15
22
23
24
27
32
35
35
40
48
50
49
56
59
62
63
63
67
68
71
70
74
77
72
70
69
66
62
54
51
50
42
35
31
30
26
24
16
17
16
11
8
7
9
8
6
11
13
8
7
8
9
9
7
9
13
10
8
11
14
13
14
14
16
16
13
14
16
15
13
11
9
9
10
7
9
11
8
7
6
6
4
2
5
5
2
0
-5
-3
-2
-2
-5
-2
-2
-4
-5
-4
-5
-8
-6
-5
-1
-4
-8
-6
-4
-6
-8
-5
-3
-5
-5
-5
-3
-3
-5
-5
0
-4
-5
-7
-5
-5
-7
-11
-13
-13
-12
-13
-5
-1
-1
-6
-8
-5
-7
-8
-9
-8
-8
-11
-13
-9
-10
-9
-9
-7
-4
-7
-9
-6
-5
-10
-14
-13
-5
6
26
78
145
204
223
249
193
81
-27
-77
-73
-47
-16
-1
3
-1
-3
-4
-2
-1
-8
-6
-5
-4
-4
-4
-6
-3
-4
-5
-3
0
-2
-1
-2
1
1
1
-1
1
3
4
4
5
6
9
10
12
16
17
17
22
30
29
30
33
43
43
44
47
54
57
55
54
60
64
62
64
67
69
65
66
67
64
60
54
50
49
44
41
34
31
27
20
18
19
16
12
11
12
10
9
4
7
9
8
9
7
9
9
7
7
10
9
10
9
12
14
11
11
15
14
13
12
15
15
14
12
13
14
11
10
13
13
11
9
10
10
8
6
5
7
7
5
2
3
5
2
0
1
2
-2
-4
-3
-1
-6
-7
-9
-5
-5
-5
-6
-4
-5
-5
-8
-4
-4
-6
-6
-5
-6
-7
-6
-5
-4
-3
-5
-2
-4
-6
-9
-8
-8
-10
-16
-17
-12
-9
-7
-6
-3
-4
-9
-8
-9
-8
-9
-12
-13
-11
-11
-14
-12
-8
-11
-12
-10
-7
-8
-9
-10
-9
-14
-16
-8
7
30
75
139
203
251
256
199
80
-33
-88
-87
-53
-20
-1
0
-3
-3
-2
-5
-8
-4
-8
-9
-9
-6
-5
-9
-10
-6
-5
-6
-7
-4
-3
-5
-5
-2
-2
-2
-5
-2
0
0
-1
3
6
8
7
7
12
12
13
13
17
21
21
22
30
35
36
39
44
48
50
49
52
57
60
56
60
64
64
65
63
66
64
60
59
58
55
49
45
42
38
33
26
26
23
15
13
10
11
6
4
4
4
3
2
-1
1
2
-1
-2
-1
-1
-2
-3
-1
1
1
0
2
3
2
3
4
8
7
5
6
7
6
5
5
7
8
3
4
6
7
4
3
6
7
4
1
4
3
3
-2
0
2
-1
-3
-3
-3
-4
-3
-7
-6
-5
-7
-11
-6
-9
-10
-12
-11
-10
-10
-13
-10
-9
-11
-14
-13
-7
-9
-10
-11
-7
-9
-10
-10
-7
-8
-11
-14
-15
-18
-21
-21
-14
-8
-6
-9
-8
-8
-11
-12
-12
-11
-14
-18
-17
-14
-17
-16
-15
-13
-14
-15
-17
-12
-12
-13
-16
-21
-20
-13
-4
24
81
150
223
277
272
196
71
-43
-98
-98
-93
-44
-14
-2
-3
-9
-10
-7
-11
-12
-12
-13
-12
-14
-13
-9
-11
-11
-10
-8
-9
-8
-8
-6
-5
-6
-8
-4
-4
-3
-4
-2
0
0
0
4
6
7
6
10
14
13
13
20
21
26
26
30
37
38
39
44
51
51
52
53
58
59
63
61
63
64
63
61
61
61
55
52
50
48
42
37
30
31
23
20
14
14
12
6
5
5
4
0
-2
-1
1
-1
-3
-1
1
-3
-1
-1
2
1
-2
2
7
7
8
6
8
5
4
5
9
10
7
9
11
11
12
9
11
13
10
7
7
10
7
4
4
6
7
6
0
2
4
1
0
1
4
-3
-4
-1
-2
-2
-5
-5
-4
-5
-8
-7
-4
-6
-6
-6
-1
-7
-8
-9
-4
-5
-4
-5
-1
-2
-3
-5
0
-2
-5
-8
-5
-5
-9
-15
-14
-12
-9
-4
0
4
0
-1
-6
-5
-6
-8
-11
-8
-6
-8
-8
-6
-6
-8
-8
-6
-5
-7
-7
-7
-6
-12
-11
-2
10
42
57
162
232
268
261
187
65
-45
-89
-83
-47
-14
1
2
3
2
0
-1
-3
1
-1
-5
-6
-1
-2
-4
-3
0
0
-3
-4
1
1
-1
0
4
8
4
3
4
5
5
4
9
10
12
13
13
18
17
18
21
26
30
31
34
39
44
44
46
52
55
57
57
61
65
68
69
72
73
74
74
72
74
69
67
62
60
59
53
46
44
40
32
28
27
22
19
13
13
17
10
12
11
14
13
8
10
14
13
12
10
12
10
10
10
16
17
14
12
16
18
16
16
16
19
18
16
17
20
18
16
15
19
15
16
14
17
14
13
11
13
12
10
9
10
11
8
5
6
8
5
1
2
4
3
0
2
3
2
1
-1
1
1
-1
-3
1
0
-1
-3
2
4
2
2
1
4
1
0
1
5
3
-2
-5
-5
-9
-10
-8
-3
1
4
2
5
2
1
-2
-2
-2
-3
-5
-5
-1
-2
-4
-4
-1
1
-1
-3
2
-2
-4
-4
-2
-7
-3
6
27
62
114
170
232
267
252
182
74
-15
-64
-61
-32
1
13
12
7
7
7
7
0
3
4
3
1
4
4
1
1
3
5
2
1
3
5
3
1
2
6
6
6
7
11
9
8
9
12
14
14
15
18
19
20
22
28
30
30
34
40
44
44
46
49
55
57
58
59
64
65
64
67
70
73
71
71
72
71
67
63
62
61
55
49
47
42
36
29
28
28
22
15
14
17
13
12
10
11
9
6
4
8
10
7
5
8
11
9
6
11
11
12
11
11
16
14
13
14
17
15
14
15
15
15
15
14
17
15
16
13
14
13
12
9
10
11
8
7
7
8
5
3
2
5
3
2
-1
0
2
-2
-5
-3
-3
-6
-7
-4
-4
-6
-8
-8
-6
-8
-9
-6
-3
-6
-7
-4
-1
-4
-6
-7
-5
-3
-5
-9
-10
-13
-17
-17
-12
-5
-3
-7
-7
-5
-9
-11
-12
-9
-12
-16
-14
-10
-12
-13
-13
-12
-11
-13
-12
-12
-10
-12
-16
-18
-18
-11
-2
27
83
150
218
272
270
198
66
-53
-101
-87
-78
-18
-2
-3
-11
-13
-8
-8
-13
-15
-11
-10
-13
-13
-12
-10
-10
-13
-13
-9
-11
-11
-10
-6
-8
-9
-7
-4
-3
-3
-4
-1
0
0
1
5
8
9
7
11
17
19
19
25
30
31
35
40
46
46
45
50
56
56
54
56
59
60
57
53
55
54
49
43
39
36
27
23
21
15
8
3
1
1
-2
-3
-7
-6
-7
-11
-11
-9
-10
-10
-13
-8
-8
-7
-9
-7
-5
-6
-7
-3
-2
-4
-4
-5
0
-3
-4
0
1
-1
-2
-5
-1
0
-2
-3
-2
-1
-6
-9
-6
-6
-8
-10
-8
-9
-9
-13
-12
-10
-12
-12
-16
-15
-15
-16
-17
-17
-18
-19
-20
-18
-16
-19
-21
-19
-19
-20
-22
-19
-18
-18
-21
-17
-13
-15
-17
-21
-18
-16
-19
-21
-18
-22
-27
-30
-23
-19
-17
-16
-18
-17
-19
-24
-24
-22
-26
-27
-25
-24
-26
-27
-24
-23
-25
-25
-26
-21
-19
-26
-30
-33
-25
-20
-1
44
108
178
244
277
227
103
-38
-109
-106
-69
-58
-17
-13
-18
-21
-18
-17
-20
-24
-25
-22
-21
-21
-24
-21
-19
-20
-23
-20
-18
-19
-20
-17
-14
-15
-16
-16
-13
-9
-12
-12
-7
-4
-3
-4
1
5
5
8
12
16
17
21
27
31
34
37
41
45
48
49
49
54
54
51
50
54
55
49
43
46
41
33
28
25
21
11
5
3
2
-2
-4
-5
-5
-8
-10
-14
-11
-9
-12
-13
-10
-10
-11
-13
-9
-7
-9
-9
-7
-7
-5
-5
-4
-1
-4
-6
-4
0
-3
-6
-5
-2
-2
-7
-3
-1
-2
-6
-7
-5
-5
-7
-7
-7
-8
-10
-15
-14
-13
-14
-16
-17
-15
-17
-19
-17
-18
-18
-23
-21
-20
-17
-20
-21
-21
-20
-20
-23
-22
-21
-21
-21
-20
-17
-17
-17
-19
-18
-20
-21
-22
-20
-21
-26
-32
-29
-28
-26
-18
-16
-16
-20
-23
-22
-21
-25
-28
-27
-23
-24
-27
-26
-22
-23
-24
-25
-23
-22
-23
-23
-27
-32
-28
-17
4
44
104
170
231
253
216
100
-24
-88
-98
-72
-33
-12
-9
-12
-19
-16
-17
-22
-20
-18
-18
-22
-22
-18
-16
-20
-19
-17
-17
-19
-20
-16
-11
-14
-17
-14
-12
-10
-11
-12
-11
-10
-9
-7
-3
1
0
0
6
10
10
13
19
22
24
26
32
36
36
38
42
47
47
47
49
52
54
52
53
52
51
47
44
44
41
33
29
26
21
13
8
8
5
3
-1
-4
-1
-4
-4
-6
-8
-8
-10
-8
-7
-9
-9
-10
-8
-6
-5
-8
-5
-4
-5
-6
-4
0
0
-4
-2
-1
-2
-2
-1
1
2
0
0
-1
0
-2
-3
0
1
-3
-5
-2
-3
-1
-7
-6
-8
-9
-13
-9
-6
-9
-11
-14
-12
-14
-18
-19
-19
-18
-19
-20
-18
-19
-20
-20
-16
-16
-20
-21
-19
-19
-18
-20
-17
-14
-15
-16
-17
-14
-14
-16
-17
-17
-22
-26
-29
-23
-20
-13
-14
-15
-12
-15
-19
-17
-16
-19
-20
-19
-19
-17
-18
-19
-17
-15
-17
-17
-15
-13
-18
-23
-21
-10
3
36
93
153
209
241
231
155
41
-49
-85
-78
-51
-41
-4
-3
-7
-13
-10
-8
-9
-13
-13
-11
-11
-10
-12
-10
-10
-12
-14
-12
-8
-8
-10
-8
-7
-7
-8
-6
-4
-1
-3
-4
-1
1
-1
2
6
8
9
9
12
17
18
21
23
30
30
30
36
40
43
43
48
50
50
50
55
62
63
60
59
64
63
60
58
61
55
52
44
44
42
35
28
26
22
17
15
9
11
8
4
2
1
2
-2
-3
-1
-1
-2
-5
-2
-1
-3
-3
-2
-1
-3
-3
-1
1
1
0
2
5
6
4
5
7
8
5
4
7
8
5
5
8
8
5
5
6
7
5
2
3
4
3
1
1
0
0
-4
-4
-1
-2
-7
-7
-5
-6
-7
-10
-9
-8
-9
-11
-11
-9
-11
-14
-12
-10
-12
-14
-14
-13
-13
-17
-16
-12
-10
-12
-14
-13
-11
-13
-15
-11
-10
-12
-15
-16
-19
-21
-21
-13
-6
-8
-10
-10
-10
-11
-16
-13
-14
-16
-18
-18
-15
-14
-17
-19
-14
-15
-17
-17
-16
-13
-14
-21
-23
-23
-19
-15
7
44
105
168
238
281
273
192
60
-43
-93
-94
-71
-38
-13
-3
-8
-10
-9
-11
-13
-12
-13
-14
-16
-16
-14
-14
-15
-15
-13
-12
-15
-14
-10
-10
-11
-13
-10
-7
-9
-10
-6
-5
-7
-8
-4
-1
-3
-3
-1
2
5
5
7
11
11
13
16
21
23
25
28
33
37
39
39
45
46
49
47
53
56
57
56
57
59
59
57
59
59
57
52
49
48
45
37
32
29
26
20
14
11
9
5
0
-1
1
-3
-5
-9
-8
-8
-10
-11
-9
-10
-11
-12
-10
-8
-8
-10
-9
-6
-7
-10
-7
-3
-5
-8
-6
-5
-4
-7
-4
-2
-2
-3
-3
-2
-3
-4
-4
-3
-2
-4
-7
-3
-3
-6
-9
-7
-6
-11
-12
-10
-11
-12
-13
-15
-14
-13
-18
-17
-15
-17
-19
-19
-20
-17
-20
-21
-18
-18
-22
-22
-20
-20
-19
-22
-20
-18
-19
-19
-18
-15
-17
-20
-20
-17
-16
-19
-19
-20
-21
-27
-30
-29
-21
-17
-19
-17
-15
-19
-21
-23
-20
-22
-24
-25
-23
-23
-26
-25
-24
-23
-24
-25
-24
-21
-22
-25
-25
-28
-30
-24
-11
17
66
135
215
273
268
256
57
-55
-105
-100
-67
-34
-15
-13
-16
-17
-15
-17
-23
-20
-21
-24
-24
-21
-20
-20
-22
-20
-16
-19
-20
-18
-15
-14
-18
-17
-15
-14
-15
-15
-12
-11
-12
-12
-10
-7
-6
-7
-4
0
-1
-2
4
7
10
11
14
19
25
23
27
32
34
34
34
40
42
45
43
48
51
52
50
52
51
49
44
42
41
36
33
27
23
20
14
12
9
6
0
-5
-3
-4
-9
-12
-12
-11
-14
-14
-13
-11
-13
-15
-11
-11
-9
-9
-12
-10
-8
-11
-10
-5
-4
-8
-8
-4
-3
-7
-7
-6
-4
-6
-7
-5
-3
-5
-9
-6
-6
-7
-10
-11
-7
-8
-14
-15
-12
-12
-16
-17
-16
-16
-16
-19
-19
-18
-19
-21
-20
-17
-21
-24
-23
-20
-23
-23
-24
-22
-24
-25
-24
-23
-22
-24
-25
-20
-18
-21
-27
-24
-23
-24
-27
-23
-21
-25
-29
-35
-35
-34
-33
-24
-20
-22
-25
-23
-22
-23
-27
-29
-27
-30
-29
-30
-28
-27
-29
-30
-27
-22
-23
-27
-28
-28
-32
-34
-25
-13
12
62
127
194
247
240
173
53
-56
-104
-100
-74
-41
-20
-15
-19
-23
-22
-22
-24
-25
-23
-24
-25
-23
-23
-26
-24
-22
-23
-25
-26
-25
-23
-24
-25
-22
-17
-17
-20
-18
-16
-18
-20
-16
-15
-13
-15
-13
-9
-5
-7
-5
0
6
4
6
10
14
17
19
24
29
31
33
39
40
41
40
43
44
45
46
45
46
45
38
36
35
28
23
20
14
10
5
-1
-1
-4
-7
-12
-10
-12
-17
-20
-21
-18
-17
-18
-16
-15
-15
-19
-17
-14
-14
-14
-14
-12
-11
-13
-14
-11
-10
-10
-12
-9
-6
-7
-10
-12
-8
-10
-12
-12
-10
-10
-12
-10
-11
-12
-14
-16
-14
-15
-17
-21
-17
-19
-20
-22
-21
-21
-20
-26
-24
-23
-23
-24
-26
-23
-23
-26
-25
-25
-27
-29
-30
-29
-28
-28
-30
-29
-28
-28
-28
-23
-23
-25
-28
-28
-26
-26
-27
-29
-27
-31
-39
-40
-38
-35
-33
-26
-23
-22
-24
-26
-25
-26
-29
-31
-31
-28
-30
-32
-30
-29
-29
-30
-30
-28
-25
-28
-30
-26
-29
-35
-30
-18
-3
34
93
155
211
241
223
155
39
-65
-105
-92
-60
-32
-27
-21
-22
-25
-26
-23
-24
-25
-29
-29
-28
-26
-27
-27
-26
-24
-26
-27
-23
-22
-23
-25
-23
-21
-23
-22
-21
-17
-17
-21
-19
-17
-14
-14
-14
-9
-9
-9
-7
-5
1
1
3
8
14
16
18
22
27
28
29
33
36
38
37
39
43
43
39
40
41
43
38
34
33
30
26
20
17
15
7
2
-3
-5
-7
-9
-14
-15
-16
-21
-20
-20
-21
-26
-25
-23
-21
-24
-25
-22
-19
-23
-23
-22
-19
-20
-19
-18
-13
-14
-16
-15
-12
-12
-17
-15
-13
-11
-13
-15
-11
-10
-13
-15
-14
-12
-14
-17
-17
-16
-17
-22
-22
-17
-19
-20
-25
-22
-23
-26
-28
-25
-26
-30
-30
-27
-27
-29
-32
-28
-27
-31
-31
-30
-30
-31
-33
-30
-30
-29
-29
-29
-27
-28
-31
-31
-27
-27
-31
-34
-34
-38
-41
-40
-31
-27
-28
-30
-28
-29
-33
-35
-34
-35
-36
-38
-35
-33
-34
-35
-35
-32
-31
-32
-33
-30
-32
-39
-42
-32
-20
2
58
132
206
255
243
152
14
-88
-110
-97
-59
-29
-23
-25
-27
-28
-29
-31
-30
-31
-31
-33
-30
-29
-30
-32
-31
-28
-30
-32
-28
-27
-26
-26
-25
-24
-22
-23
-23
-21
-19
-21
-20
-16
-15
-14
-13
-10
-5
-4
-3
3
6
7
12
18
22
24
25
28
35
35
34
38
42
43
41
40
44
44
41
38
37
33
28
26
21
19
12
5
1
2
-4
-5
-11
-10
-13
-19
-18
-17
-18
-23
-23
-19
-19
-21
-23
-20
-18
-20
-22
-20
-18
-19
-19
-15
-13
-14
-15
-16
-11
-11
-14
-13
-13
-14
-16
-18
-15
-14
-17
-18
-17
-17
-17
-19
-18
-18
-19
-23
-21
-20
-23
-23
-26
-24
-22
-27
-27
-27
-28
-30
-32
-27
-29
-29
-32
-29
-30
-32
-34
-32
-30
-32
-34
-35
-30
-31
-32
-34
-31
-28
-32
-31
-27
-28
-31
-32
-29
-28
-33
-36
-38
-41
-42
-37
-31
-26
-30
-31
-30
-31
-34
-36
-37
-35
-34
-37
-36
-33
-33
-34
-34
-32
-30
-32
-34
-35
-40
-40
-30
-11
33
101
174
245
268
216
189
-41
-115
-112
-86
-49
-25
-20
-27
-28
-23
-26
-31
-32
-31
-30
-33
-33
-31
-29
-29
-30
-27
-28
-27
-26
-26
-24
-23
-27
-25
-22
-22
-24
-24
-20
-18
-19
-18
-15
-13
-10
-13
-7
-4
-2
-3
3
7
10
9
16
19
24
24
26
29
32
30
32
38
40
40
40
44
43
40
40
38
37
33
29
26
24
16
13
9
6
2
-6
-7
-9
-13
-16
-16
-16
-16
-19
-22
-19
-18
-22
-23
-20
-18
-19
-22
-18
-16
-16
-17
-14
-12
-13
-15
-13
-11
-10
-13
-14
-10
-9
-12
-15
-11
-10
-11
-14
-10
-10
-14
-14
-16
-15
-16
-17
-19
-16
-19
-25
-24
-20
-24
-24
-25
-23
-23
-27
-28
-26
-26
-28
-28
-27
-26
-28
-30
-29
-26
-26
-26
-29
-27
-27
-30
-30
-27
-27
-30
-29
-26
-25
-26
-25
-25
-22
-27
-27
-26
-26
-28
-32
-34
-35
-35
-36
-29
-22
-21
-26
-24
-23
-26
-27
-28
-27
-27
-29
-29
-27
-26
-29
-31
-30
-27
-29
-29
-26
-25
-25
-26
-29
-31
-30
-23
-8
19
67
124
191
238
245
192
87
-19
-78
-96
-81
-48
-23
-14
-17
-19
-18
-15
-17
-21
-21
-22
-24
-23
-20
-19
-22
-23
-21
-19
-21
-22
-19
-16
-18
-21
-16
-16
-16
-19
-14
-13
-11
-13
-12
-12
-9
-10
-8
-5
-3
-5
-3
2
6
5
7
11
15
18
19
26
29
29
30
37
41
40
39
44
46
48
46
48
50
50
46
44
44
45
39
36
35
31
24
18
15
12
8
3
2
0
-2
-3
-5
-5
-6
-7
-8
-5
-9
-9
-10
-5
-5
-8
-8
-5
-4
-5
-6
-3
0
-2
-3
0
1
2
0
0
3
1
0
0
0
1
-2
-3
1
1
-4
-5
-4
-2
-5
-10
-7
-7
-9
-15
-12
-12
-10
-12
-14
-14
-13
-18
-17
-13
-13
-17
-17
-15
-17
-17
-17
-15
-13
-16
-17
-16
-15
-17
-17
-16
-12
-15
-16
-18
-15
-16
-19
-18
-16
-15
-19
-19
-19
-21
-24
-27
-21
-15
-12
-14
-15
-13
-14
-20
-17
-16
-19
-20
-20
-18
-21
-22
-22
-18
-19
-20
-21
-18
-16
-18
-19
-15
-15
-18
-23
-23
-14
-8
2
37
90
145
162
252
262
213
107
-8
-75
-96
-80
-49
-20
-5
-5
-9
-11
-9
-12
-15
-14
-11
-13
-15
-12
-10
-10
-11
-12
-10
-10
-13
-11
-8
-7
-8
-8
-5
-6
-8
-6
-5
-3
-4
-3
-1
1
2
0
5
9
8
7
11
14
16
17
22
26
28
30
31
37
41
45
44
51
54
55
55
57
59
60
58
61
63
62
60
60
60
56
49
46
42
40
32
26
23
19
11
7
8
9
4
0
1
0
-1
-2
-2
0
-2
-3
-3
0
2
-2
-3
1
3
0
0
3
3
3
2
7
6
4
3
4
8
5
5
5
7
6
4
5
7
4
2
3
5
6
-1
1
3
1
-3
-4
-2
-2
-6
-8
-6
-6
-6
-10
-7
-6
-8
-9
-11
-9
-11
-13
-14
-10
-11
-14
-15
-12
-12
-13
-14
-12
-12
-13
-16
-15
-14
-13
-14
-14
-12
-14
-17
-12
-12
-11
-12
-12
-9
-10
-12
-12
-12
-10
-13
-13
-11
-14
-20
-22
-21
-19
-15
-13
-10
-8
-12
-12
-13
-13
-13
-17
-18
-16
-17
-19
-19
-17
-15
-17
-19
-16
-15
-15
-18
-15
-13
-14
-15
-14
-16
-20
-24
-13
-1
28
73
137
202
261
280
256
165
42
-56
-97
-92
-67
-39
-15
-6
-6
-9
-13
-9
-8
-11
-11
-13
-11
-10
-14
-12
-9
-11
-12
-11
-10
-9
-11
-10
-7
-5
-8
-8
-6
-4
-4
-6
-2
-2
0
-1
-1
2
2
0
5
10
13
11
13
17
21
21
25
32
35
34
38
43
45
47
45
51
55
55
56
55
59
60
57
56
56
57
53
51
50
44
38
32
32
28
22
16
14
12
6
2
1
2
-1
-3
-2
-3
-2
-3
-2
0
-3
-3
-3
2
1
-3
-3
1
3
1
0
2
3
1
0
4
6
5
4
4
7
6
3
1
4
4
3
2
4
2
-2
-5
-1
-2
-3
-4
-3
-4
-6
-9
-6
-7
-10
-9
-10
-8
-9
-13
-14
-13
-12
-16
-16
-14
-12
-15
-16
-14
-15
-16
-19
-14
-14
-17
-19
-18
-15
-17
-18
-15
-12
-16
-15
-15
-12
-12
-15
-16
-13
-13
-17
-22
-22
-26
-26
-26
-18
-12
-12
-15
-12
-9
-15
-17
-19
-17
-18
-22
-23
-19
-19
-21
-22
-17
-16
-19
-21
-19
-16
-19
-21
-19
-20
-24
-21
-8
15
60
76
183
244
265
232
137
15
-74
-98
-83
-50
-21
-10
-10
-10
-11
-13
-16
-15
-13
-15
-18
-16
-16
-16
-17
-14
-12
-10
-14
-13
-9
-10
-12
-13
-8
-10
-10
-9
-8
-5
-7
-8
-5
-1
-2
-4
1
7
6
7
10
13
15
17
20
25
27
25
28
35
39
40
43
49
50
50
51
55
59
59
56
57
58
53
52
48
47
42
36
28
27
20
14
10
10
7
3
0
5
3
1
-2
-2
-1
-4
-5
-3
-2
-2
-3
-4
-1
-1
0
-1
3
3
0
1
4
4
1
2
3
6
2
3
3
4
3
2
3
3
0
-3
0
1
-1
-4
-6
-4
-5
-6
-9
-10
-8
-12
-12
-8
-9
-12
-14
-14
-14
-16
-18
-18
-14
-15
-17
-17
-15
-14
-17
-16
-16
-15
-19
-18
-15
-15
-16
-18
-14
-12
-12
-15
-14
-14
-13
-14
-13
-16
-18
-20
-24
-21
-17
-15
-13
-10
-11
-14
-15
-12
-14
-18
-19
-17
-15
-18
-18
-17
-15
-16
-19
-17
-15
-14
-16
-15
-15
-18
-25
-21
-8
4
38
94
159
224
262
249
172
43
-67
-104
-91
-58
-29
-12
-8
-12
-11
-12
-10
-11
-13
-18
-17
-15
-13
-15
-14
-12
-13
-15
-15
-12
-11
-12
-12
-10
-6
-7
-9
-6
-7
-4
-3
-3
-1
1
2
2
7
12
10
12
19
21
23
25
30
33
37
39
42
48
47
45
51
58
56
54
59
63
63
60
61
60
60
53
51
48
45
37
34
32
28
21
16
15
13
8
4
4
6
2
1
1
1
1
-3
-1
0
-1
-3
0
1
2
0
-1
3
6
5
4
6
8
6
6
7
10
7
6
8
9
9
6
6
10
8
6
5
6
8
2
2
3
4
1
-1
1
-1
-2
-4
-2
-1
-2
-1
-5
-4
-6
-7
-10
-7
-7
-11
-10
-7
-9
-10
-12
-9
-9
-10
-12
-8
-7
-10
-10
-12
-9
-9
-10
-8
-6
-5
-9
-8
-7
-8
-9
-7
-7
-8
-14
-18
-18
-15
-12
-9
-6
-7
-8
-9
-10
-10
-12
-13
-17
-13
-13
-16
-17
-15
-11
-15
-14
-14
-12
-14
-14
-11
-9
-14
-17
-20
-15
-7
1
36
94
163
185
279
274
193
59
-57
-96
-86
-55
-23
-6
-2
-6
-7
-5
-4
-7
-10
-8
-8
-9
-10
-8
-8
-4
-6
-7
-4
-5
-6
-6
-2
-2
-5
-4
-1
0
-1
0
3
4
2
2
7
9
11
10
16
19
21
22
25
31
34
37
40
45
47
48
51
55
56
56
57
61
63
60
60
60
60
56
51
50
45
40
38
29
27
22
16
13
13
8
4
3
4
3
0
-3
0
0
-3
-5
-1
2
-1
-2
1
4
4
3
4
5
3
-1
2
4
7
5
5
7
9
5
3
7
9
5
4
6
7
5
1
5
7
5
3
3
4
1
-5
-3
-2
-3
-6
-6
-4
-3
-8
-10
-9
-5
-10
-13
-9
-8
-10
-12
-9
-8
-9
-12
-11
-9
-10
-10
-9
-9
-8
-11
-11
-8
-7
-10
-10
-7
-6
-9
-10
-8
-6
-9
-13
-15
-18
-18
-18
-12
-3
-3
-6
-6
-7
-9
-12
-11
-11
-11
-14
-14
-10
-12
-14
-13
-10
-11
-12
-16
-10
-7
-7
-9
-15
-14
-8
3
28
78
141
202
258
268
205
74
-47
-95
-78
-52
-21
0
1
-6
-5
-3
-2
-6
-7
-8
-6
-6
-6
-6
-1
-2
-6
-7
-3
-2
-2
-4
0
1
-2
-1
2
4
1
1
6
7
7
7
8
12
15
17
20
26
28
28
32
37
40
42
44
50
53
55
56
61
65
61
60
63
66
63
62
60
61
59
54
48
46
38
32
28
24
21
16
11
14
12
7
5
7
7
3
3
7
8
5
4
1
4
7
4
8
8
11
9
9
13
14
12
10
11
12
10
9
14
13
13
10
10
10
8
7
8
9
7
3
6
5
4
2
1
2
3
-2
-2
0
-2
-5
-6
-5
-1
-4
-8
-6
-5
-7
-8
-7
-6
-7
-12
-10
-9
-8
-11
-11
-11
-9
-10
-9
-9
-6
-6
-8
-6
-5
-8
-10
-8
-6
-9
-10
-12
-13
-14
-19
-16
-8
-5
-7
-9
-6
-6
-7
-11
-9
-7
-12
-10
-7
-5
-8
-9
-7
-5
-8
-7
-8
-4
-3
-7
-12
-11
-4
4
25
76
139
206
256
259
189
66
-39
-77
-62
-31
-6
8
9
2
1
4
2
-2
-3
-4
0
2
1
0
2
4
2
1
4
6
1
0
4
9
7
6
7
12
10
9
10
15
15
13
17
18
22
21
22
26
30
32
32
38
42
43
44
51
53
53
55
58
63
63
63
64
67
69
67
68
70
69
66
64
63
63
54
51
49
47
39
35
32
31
24
21
21
22
17
15
15
15
14
9
11
13
12
10
10
13
13
12
10
13
14
11
10
15
17
16
12
18
21
20
18
18
21
21
19
19
20
19
19
18
22
21
16
17
18
17
14
11
14
15
11
12
11
11
10
9
6
7
6
6
5
7
7
2
2
4
5
3
2
4
4
0
0
3
5
3
-1
1
3
2
1
1
3
5
0
2
4
5
2
2
5
5
4
1
2
0
-4
-8
-6
0
2
3
7
7
4
3
1
2
1
-1
-3
0
-1
-2
-3
1
1
-4
-4
-1
2
1
0
-1
-3
-9
-4
9
27
68
85
200
267
297
265
166
32
-64
-87
-65
-28
1
8
6
6
5
4
1
2
2
2
-4
0
1
3
2
2
5
4
1
2
6
5
4
6
7
7
7
5
9
9
8
7
11
12
13
13
17
22
21
22
25
29
29
31
36
41
44
45
48
53
56
55
58
62
64
63
64
67
70
70
66
70
71
69
68
64
62
58
52
48
47
41
36
32
29
26
18
18
18
16
11
7
10
8
8
5
7
7
6
5
5
7
9
4
5
8
7
6
7
11
11
10
11
15
16
13
12
14
16
15
13
15
17
15
13
14
13
11
8
9
11
11
11
10
12
10
8
6
7
6
3
1
4
5
2
-1
1
2
0
-1
-3
0
0
-4
-3
-1
-1
-5
-6
-4
-3
-5
-7
-4
-3
-8
-7
-6
-5
-7
-8
-6
-3
-2
-3
-3
0
1
-4
-5
-1
-1
-4
-6
-6
-9
-15
-13
-11
-5
-1
-1
-2
-1
-6
-7
-8
-6
-9
-8
-8
-7
-7
-9
-9
-6
-6
-9
-6
-6
-4
-8
-8
-8
-10
-14
-11
2
15
50
106
176
244
281
284
166
36
-64
-97
-81
-52
-22
-6
-2
0
-4
-6
-6
-6
-7
-7
-9
-6
-5
-7
-10
-8
-7
-7
-7
-6
-4
-3
-6
-6
-2
0
-2
-3
0
1
-2
-3
1
2
2
1
5
6
8
8
12
15
15
14
19
23
24
27
29
33
37
38
41
47
49
48
50
54
58
56
56
59
62
60
60
60
61
57
55
52
51
47
40
38
34
29
23
20
19
14
11
8
7
6
4
-1
1
0
-1
-2
-2
0
-1
-4
0
1
-1
-4
-2
-1
2
0
0
3
5
3
2
6
4
4
2
4
4
3
1
4
7
5
3
2
5
3
0
-1
2
1
-2
-4
-4
-2
-6
-6
-3
-6
-9
-11
-9
-11
-14
-15
-13
-10
-16
-18
-17
-16
-17
-18
-18
-16
-17
-20
-19
-19
-17
-21
-21
-20
-17
-23
-23
-17
-16
-16
-19
-18
-13
-16
-17
-17
-15
-15
-18
-15
-11
-13
-16
-19
-22
-23
-28
-28
-21
-16
-13
-14
-13
-12
-17
-19
-20
-18
-21
-23
-21
-18
-17
-20
-19
-17
-18
-19
-19
-16
-17
-19
-22
-23
-19
-14
-3
24
78
138
200
250
249
183
155
-37
-89
-89
-68
-32
-10
-5
-14
-16
-11
-11
-14
-17
-15
-16
-18
-19
-15
-14
-16
-18
-16
-13
-15
-14
-14
-13
-13
-15
-14
-12
-12
-14
-12
-7
-6
-10
-9
-5
-1
-3
-3
-1
3
3
2
8
12
13
12
18
22
25
27
32
36
40
39
43
46
48
47
47
53
52
49
47
48
48
46
42
41
38
32
30
23
21
16
8
8
7
4
-1
-2
-1
-3
-5
-8
-7
-6
-8
-11
-7
-6
-8
-8
-7
-5
-7
-7
-6
-5
-3
-6
-3
-1
0
-3
-3
0
0
-2
-3
1
0
-2
-3
-1
1
-3
-4
-4
-1
-4
-5
-5
-4
-6
-10
-10
-10
-8
-13
-15
-12
-13
-14
-17
-14
-16
-21
-19
-20
-19
-20
-21
-19
-20
-20
-21
-19
-17
-22
-22
-22
-21
-19
-22
-22
-18
-18
-21
-19
-19
-19
-22
-24
-22
-20
-25
-31
-31
-30
-25
-24
-19
-17
-17
-23
-22
-21
-24
-26
-27
-26
-26
-27
-27
-26
-23
-26
-27
-23
-24
-25
-27
-23
-21
-28
-30
-23
-8
18
68
138
208
254
232
138
10
-83
-110
-90
-51
-25
-16
-18
-20
-18
-19
-25
-22
-23
-23
-24
-21
-19
-19
-22
-20
-18
-19
-19
-19
-17
-14
-16
-17
-13
-10
-13
-15
-11
-8
-11
-11
-6
-5
-3
-4
-1
4
7
7
9
15
17
18
23
30
33
33
35
38
42
41
43
47
48
48
47
47
48
45
44
40
38
33
25
22
18
15
7
5
2
0
-5
-9
-8
-8
-12
-13
-12
-12
-14
-18
-14
-12
-14
-16
-15
-12
-10
-14
-13
-10
-9
-10
-9
-6
-6
-10
-8
-4
-5
-5
-8
-7
-5
-8
-10
-8
-4
-7
-10
-11
-8
-10
-13
-14
-13
-11
-17
-17
-15
-17
-17
-21
-18
-19
-21
-22
-23
-22
-25
-26
-24
-21
-26
-27
-25
-24
-24
-26
-27
-26
-25
-27
-28
-25
-23
-25
-26
-23
-22
-24
-25
-23
-22
-23
-26
-24
-24
-26
-28
-32
-33
-34
-33
-27
-23
-25
-26
-26
-25
-26
-28
-30
-28
-30
-32
-33
-29
-25
-27
-29
-27
-24
-24
-26
-25
-24
-25
-33
-33
-28
-18
-6
32
99
171
234
261
230
128
-1
-87
-111
-92
-62
-33
-16
-12
-18
-19
-20
-17
-21
-25
-23
-21
-22
-23
-24
-20
-19
-23
-20
-18
-18
-21
-21
-17
-13
-15
-18
-14
-13
-14
-16
-11
-9
-8
-10
-9
-5
-2
-3
-3
0
3
6
7
10
14
18
19
25
27
29
31
36
38
40
41
39
45
47
46
47
48
50
45
42
45
45
38
33
32
29
23
17
15
12
6
2
-1
-1
-5
-7
-9
-7
-9
-13
-13
-9
-12
-15
-16
-12
-12
-13
-13
-9
-11
-12
-11
-9
-7
-9
-9
-6
-5
-5
-6
-5
-3
-4
-7
-8
-5
-5
-8
-9
-6
-8
-9
-11
-8
-8
-11
-13
-11
-10
-16
-20
-18
-17
-20
-22
-22
-21
-22
-24
-23
-19
-19
-23
-25
-23
-22
-24
-25
-26
-24
-26
-26
-26
-24
-25
-26
-26
-24
-27
-27
-26
-24
-22
-25
-24
-21
-21
-24
-24
-23
-23
-25
-27
-22
-25
-29
-36
-33
-31
-25
-25
-24
-25
-25
-27
-28
-23
-25
-31
-29
-29
-25
-28
-28
-22
-24
-27
-28
-26
-24
-26
-28
-30
-28
-22
-14
15
70
137
158
248
237
137
1
-91
-104
-86
-56
-28
-17
-14
-23
-21
-17
-19
-25
-25
-23
-20
-22
-22
-20
-20
-19
-20
-23
-20
-18
-21
-21
-16
-16
-19
-18
-16
-15
-14
-15
-13
-11
-12
-10
-7
-5
-5
-8
-1
2
5
4
7
13
13
14
17
24
26
29
30
34
35
37
39
44
46
45
46
47
47
46
44
45
44
40
37
31
31
28
19
16
15
9
5
2
4
-2
-7
-9
-9
-9
-12
-13
-15
-14
-14
-14
-12
-10
-11
-12
-13
-9
-10
-12
-11
-8
-8
-9
-9
-5
-5
-7
-6
-5
-7
-10
-11
-8
-5
-8
-7
-7
-6
-6
-7
-9
-9
-9
-14
-14
-11
-11
-14
-15
-12
-17
-19
-21
-21
-18
-21
-25
-23
-19
-20
-23
-24
-22
-24
-27
-26
-25
-25
-28
-25
-23
-23
-25
-26
-24
-24
-27
-26
-23
-19
-22
-23
-23
-25
-25
-25
-23
-25
-32
-34
-34
-29
-25
-23
-21
-18
-21
-23
-24
-21
-23
-28
-29
-25
-25
-26
-25
-25
-23
-25
-26
-25
-25
-22
-24
-27
-27
-21
-13
11
63
127
189
240
242
182
67
-38
-87
-85
-60
-29
-9
-8
-16
-21
-15
-12
-19
-20
-20
-18
-19
-21
-19
-19
-19
-21
-21
-18
-19
-20
-20
-18
-16
-18
-19
-16
-15
-14
-18
-12
-11
-10
-11
-11
-8
-6
-5
-3
0
1
2
5
9
12
13
16
21
25
26
27
31
37
38
38
41
42
44
43
46
48
49
45
43
46
45
41
38
34
32
27
22
18
16
9
5
3
2
-2
-5
-6
-6
-7
-8
-11
-9
-9
-12
-12
-10
-9
-9
-11
-7
-7
-9
-9
-5
-4
-7
-9
-6
-6
-6
-8
-6
-4
-5
-6
-7
-5
-5
-10
-9
-7
-7
-11
-11
-8
-8
-13
-13
-12
-12
-14
-14
-15
-14
-15
-22
-18
-16
-19
-20
-19
-21
-21
-22
-24
-21
-23
-24
-25
-25
-24
-25
-28
-25
-24
-25
-28
-24
-25
-26
-27
-23
-22
-21
-21
-22
-22
-21
-23
-24
-23
-24
-30
-32
-30
-30
-28
-20
-18
-19
-22
-24
-24
-24
-27
-29
-29
-28
-31
-32
-30
-30
-28
-30
-32
-28
-27
-31
-31
-28
-27
-32
-36
-35
-29
-23
-7
30
86
148
212
259
261
192
162
-39
-104
-110
-91
-59
-30
-18
-19
-23
-22
-22
-25
-25
-23
-23
-25
-26
-25
-22
-24
-25
-21
-20
-22
-24
-22
-20
-19
-22
-20
-19
-15
-19
-19
-15
-15
-15
-15
-14
-12
-10
-12
-8
-5
-4
-5
-2
1
4
3
8
14
15
15
19
26
29
29
30
35
36
36
39
44
44
44
43
45
48
45
44
44
42
38
36
34
31
24
17
15
10
7
1
-2
-3
-5
-10
-13
-10
-12
-15
-15
-13
-14
-14
-16
-15
-13
-13
-16
-14
-11
-11
-14
-12
-8
-8
-11
-9
-7
-7
-9
-9
-6
-7
-8
-10
-10
-6
-9
-11
-8
-8
-10
-11
-12
-10
-10
-15
-14
-14
-13
-17
-17
-16
-18
-21
-21
-18
-18
-22
-24
-20
-17
-19
-23
-22
-22
-22
-23
-22
-21
-23
-27
-24
-23
-22
-25
-26
-22
-24
-26
-25
-20
-20
-22
-23
-21
-19
-20
-23
-23
-19
-20
-21
-24
-25
-31
-34
-32
-28
-21
-22
-19
-19
-20
-23
-24
-21
-22
-25
-28
-27
-24
-26
-28
-24
-23
-24
-25
-25
-22
-21
-23
-25
-21
-22
-29
-32
-26
-20
-11
14
67
129
196
255
273
230
122
-6
-90
-115
-95
-86
-35
-17
-13
-18
-18
-16
-18
-22
-22
-21
-19
-21
-22
-20
-20
-22
-23
-20
-18
-22
-22
-20
-16
-17
-18
-18
-15
-16
-16
-16
-11
-11
-12
-11
-10
-7
-6
-10
-6
-5
-3
-2
4
5
7
8
14
17
18
19
25
30
31
31
35
39
43
42
44
48
48
48
49
51
50
50
43
46
45
39
34
32
31
25
24
14
13
7
2
1
-1
-1
-6
-8
-8
-12
-11
-13
-9
-9
-11
-13
-11
-9
-10
-13
-9
-5
-9
-10
-9
-6
-4
-7
-5
-4
-3
-5
-5
-4
-4
-6
-6
-5
-1
-6
-5
-5
-3
-7
-7
-6
-5
-9
-10
-10
-10
-10
-15
-17
-13
-15
-18
-19
-16
-16
-18
-21
-19
-20
-23
-24
-20
-20
-19
-22
-23
-19
-22
-23
-23
-21
-22
-25
-25
-22
-23
-26
-27
-23
-21
-23
-24
-21
-20
-21
-23
-22
-21
-20
-23
-21
-21
-26
-27
-33
-31
-29
-28
-21
-17
-17
-24
-24
-22
-22
-23
-25
-23
-23
-26
-29
-26
-25
-27
-30
-26
-23
-23
-24
-23
-21
-23
-25
-26
-28
-27
-19
-10
17
66
123
186
238
243
198
91
-19
-86
-100
-82
-51
-21
-11
-10
-16
-17
-17
-18
-19
-18
-17
-19
-19
-19
-17
-21
-21
-18
-17
-17
-20
-17
-15
-15
-16
-15
-11
-11
-12
-12
-11
-8
-11
-10
-6
-4
-2
-3
2
2
3
3
10
15
16
16
20
25
26
29
34
39
42
43
42
45
47
46
46
51
53
51
50
52
48
43
37
36
33
27
21
19
14
9
3
2
3
-1
-2
-4
-7
-6
-8
-9
-7
-5
-6
-6
-7
-6
-8
-8
-7
-3
-2
-5
-5
1
-1
0
0
1
1
0
-1
2
3
-1
-1
3
3
-1
0
1
0
0
-3
-3
-4
-6
-8
-5
-4
-7
-10
-9
-8
-9
-10
-13
-11
-12
-15
-14
-15
-12
-16
-16
-15
-14
-18
-17
-16
-14
-18
-18
-16
-15
-16
-18
-14
-10
-12
-12
-13
-11
-12
-15
-15
-14
-13
-17
-19
-21
-24
-26
-25
-17
-10
-11
-14
-11
-11
-15
-15
-14
-15
-17
-18
-16
-14
-16
-18
-16
-13
-14
-15
-13
-13
-11
-13
-16
-18
-12
-5
7
41
97
156
209
249
245
179
151
-30
-81
-85
-65
-31
-8
0
-4
-5
-4
-4
-8
-11
-9
-7
-10
-9
-7
-6
-6
-7
-6
-6
-5
-6
-6
-4
-3
-6
-5
0
0
-2
1
3
4
5
3
7
10
8
10
16
19
21
20
28
32
34
35
39
44
48
46
50
54
55
58
58
60
61
62
60
62
61
56
52
49
48
42
36
32
27
20
18
14
14
8
5
5
7
5
1
-1
3
2
1
2
3
3
6
2
5
8
5
3
6
11
8
7
8
11
11
8
10
12
12
10
11
13
11
9
8
10
9
8
4
6
6
4
1
3
4
2
1
1
1
-1
-4
-3
-1
-4
-5
-7
-3
-5
-6
-7
-4
-4
-6
-8
-7
-5
-6
-9
-6
-4
-4
-6
-5
-2
-1
-7
-6
-4
-2
-6
-7
-6
-9
-13
-16
-11
-6
-3
-4
-3
-1
-5
-8
-8
-7
-8
-9
-9
-6
-8
-9
-10
-7
-6
-9
-9
-5
-3
-8
-13
-15
-10
-1
14
59
124
195
258
276
220
91
47
-86
-84
-56
-26
-3
4
1
-3
-3
0
-2
-6
-7
-4
-3
-8
-6
-3
-2
-3
-5
-3
-2
-2
-2
-1
1
1
-1
0
5
4
3
4
9
10
6
7
10
13
15
14
22
24
23
24
32
34
35
34
42
47
49
51
53
56
59
59
60
64
67
63
64
67
67
63
58
57
56
50
46
45
42
34
31
25
24
20
14
11
13
12
7
5
9
8
7
5
6
10
6
4
6
8
6
6
9
11
11
10
11
14
15
13
11
14
14
14
13
15
14
13
11
12
12
10
9
11
10
10
8
9
8
8
5
5
7
5
2
2
3
0
0
0
1
2
-2
-2
-1
-1
-3
-3
-2
0
-2
-5
-4
-3
-6
-7
-7
-5
-5
-9
-6
-3
0
-3
-4
0
2
-1
-4
-1
-1
-3
-7
-4
-3
-8
-12
-11
-9
-5
-4
0
1
1
-2
-4
-2
-4
-6
-7
-6
-6
-8
-9
-5
-3
-6
-8
-5
-5
-4
-7
-5
-5
-9
-10
-8
1
13
44
104
172
235
263
245
159
36
-60
-86
-69
-40
-11
0
3
1
0
-1
-2
-1
-3
-5
-3
-1
-1
-4
-3
-2
1
-4
-4
-2
-3
-1
-1
0
2
-1
-1
2
4
6
5
8
10
10
11
14
18
18
17
23
27
28
29
31
40
43
45
46
52
55
53
54
59
62
64
64
67
70
70
69
64
64
59
55
53
50
45
36
33
32
28
21
19
19
16
11
8
9
13
9
7
9
12
11
9
10
11
9
7
9
13
11
12
12
13
17
14
13
15
14
14
16
15
16
15
10
12
13
14
13
12
13
14
11
9
10
10
6
6
7
6
4
2
4
3
2
0
-2
2
1
-2
-3
-3
-3
-5
-4
-4
-3
-6
-7
-6
-5
-7
-6
-4
-5
-8
-8
-4
-4
-3
-6
-2
-1
-1
-6
-4
0
-3
-4
-8
-9
-12
-13
-13
-8
-1
-1
-1
2
2
-2
-4
-6
-7
-7
-9
-7
-4
-4
-6
-7
-5
-6
-7
-5
-4
-3
-4
-4
-5
-10
-10
-2
13
36
81
138
199
249
265
229
146
36
-47
-70
-52
-20
5
10
7
5
6
1
2
1
1
-2
-3
-1
-1
-1
-3
0
1
-3
-3
-1
0
1
-3
-1
2
1
0
4
4
5
4
8
10
10
9
9
14
18
16
18
24
27
29
32
36
40
42
42
49
53
55
54
59
61
65
63
64
67
66
65
64
63
62
59
53
50
46
40
33
31
30
24
18
16
14
13
11
10
12
9
6
6
8
9
5
5
7
8
7
7
10
12
11
8
10
11
11
8
11
13
13
12
12
13
15
14
12
13
13
10
11
14
11
9
8
9
10
7
5
4
4
2
0
2
4
0
-2
-1
0
-1
-3
-3
-3
-3
-5
-6
-5
-4
-8
-8
-4
-5
-9
-11
-10
-7
-9
-9
-7
-7
-6
-7
-6
-5
-4
-7
-9
-5
-6
-7
-8
-7
-10
-18
-18
-15
-9
-6
-5
-3
-4
-6
-10
-11
-9
-10
-12
-12
-10
-11
-13
-14
-11
-11
-12
-14
-10
-9
-10
-10
-9
-13
-19
-16
-5
6
32
87
159
231
277
285
190
64
-48
-96
-91
-61
-26
-8
-2
-3
-6
-8
-9
-8
-10
-11
-13
-11
-9
-11
-13
-11
-11
-12
-14
-13
-9
-12
-11
-13
-9
-9
-9
-9
-4
-5
-7
-7
-3
1
3
1
5
7
9
8
13
17
19
20
25
28
31
32
36
42
44
44
45
49
51
51
53
59
57
57
55
59
62
57
51
51
52
47
45
37
35
27
20
16
14
11
4
2
3
0
-3
-5
-2
-2
-6
-7
-7
-6
-6
-9
-6
-4
-5
-6
-5
-4
-2
-5
-3
-1
-1
-1
-1
1
3
1
0
4
2
0
0
2
1
0
-2
0
2
-3
-5
-3
-1
-2
-6
-5
-5
-4
-8
-9
-7
-9
-10
-13
-10
-11
-14
-13
-14
-12
-15
-16
-16
-15
-15
-15
-16
-15
-16
-18
-18
-16
-18
-20
-19
-18
-18
-18
-19
-17
-16
-16
-18
-14
-12
-15
-17
-15
-13
-15
-17
-18
-17
-21
-26
-24
-26
-20
-18
-15
-11
-12
-16
-19
-15
-17
-21
-21
-20
-21
-21
-24
-20
-17
-19
-21
-20
-19
-17
-19
-18
-17
-19
-27
-26
-16
-7
18
75
150
227
277
258
171
32
-79
-112
-88
-55
-27
-19
-9
-12
-14
-14
-15
-16
-16
-18
-18
-15
-14
-18
-18
-15
-13
-15
-15
-12
-11
-13
-14
-13
-11
-12
-15
-11
-8
-6
-11
-8
-5
-3
-5
-2
4
6
5
9
14
17
20
19
22
30
32
33
39
45
44
44
48
51
51
51
54
57
58
54
52
52
52
46
44
43
41
34
28
26
23
15
9
11
9
6
4
-1
0
0
-4
-2
-1
-4
-6
-6
-3
-5
-6
-6
-3
-1
-4
-2
-2
0
-2
-1
1
2
1
0
1
2
1
0
1
4
4
1
0
4
3
2
0
3
4
2
-3
1
0
-2
-6
-3
-3
-4
-5
-4
-4
-7
-9
-9
-8
-10
-11
-12
-12
-11
-13
-16
-13
-12
-14
-17
-15
-12
-14
-16
-17
-14
-15
-16
-17
-16
-17
-19
-19
-16
-17
-17
-15
-13
-14
-17
-18
-14
-14
-16
-18
-13
-14
-18
-19
-21
-24
-27
-28
-19
-13
-11
-17
-16
-15
-16
-18
-19
-17
-18
-22
-22
-17
-17
-20
-20
-17
-16
-18
-19
-16
-16
-17
-17
-21
-24
-18
-14
0
29
79
139
206
250
246
174
53
-49
-92
-94
-67
-33
-13
-7
-8
-11
-13
-11
-12
-14
-14
-15
-16
-14
-13
-11
-16
-14
-11
-11
-15
-14
-11
-10
-12
-13
-11
-8
-8
-12
-9
-6
-8
-8
-4
-2
-2
-4
-1
4
7
6
8
11
14
14
17
21
24
24
26
33
37
38
39
42
43
47
48
49
52
54
53
54
57
58
50
51
50
49
45
41
39
36
30
26
26
20
18
9
7
6
1
-1
0
0
-1
-4
-4
-4
-3
-6
-7
-4
-3
-6
-6
-2
-2
-5
-5
-2
1
1
-1
4
3
3
1
3
5
7
4
1
4
5
0
-1
4
4
1
0
0
0
0
-2
-1
-1
-4
-3
-4
-3
-6
-8
-8
-7
-9
-11
-11
-9
-9
-13
-14
-13
-15
-17
-18
-15
-15
-18
-19
-20
-17
-20
-18
-17
-16
-16
-17
-18
-15
-16
-15
-14
-13
-12
-15
-15
-11
-13
-16
-14
-15
-13
-19
-24
-24
-23
-18
-16
-11
-10
-13
-14
-16
-14
-17
-19
-18
-17
-16
-19
-20
-17
-15
-16
-19
-17
-15
-16
-16
-15
-17
-22
-19
-7
9
48
63
170
234
251
205
94
-25
-90
-89
-58
-24
-4
-5
-10
-8
-5
-12
-16
-13
-12
-14
-16
-14
-12
-11
-13
-13
-12
-13
-13
-14
-10
-11
-12
-12
-7
-6
-6
-8
-4
-2
-1
-2
0
3
2
4
7
10
12
12
16
22
25
24
27
32
35
36
38
43
46
46
47
48
52
52
50
52
54
54
50
51
50
47
45
40
37
31
23
19
16
12
7
4
2
2
-1
-4
-4
-3
-6
-6
-4
-3
-5
-6
-6
-3
-5
-6
-4
-1
-1
-2
2
2
2
0
-2
2
3
2
-1
3
4
3
3
3
5
3
-1
2
2
1
0
-2
1
0
-4
-3
-4
-4
-6
-7
-8
-7
-10
-11
-9
-9
-14
-14
-12
-11
-13
-15
-14
-11
-15
-17
-13
-13
-15
-18
-17
-14
-12
-15
-15
-13
-11
-15
-15
-13
-12
-14
-15
-12
-13
-18
-24
-24
-21
-19
-17
-13
-10
-11
-16
-17
-15
-15
-19
-21
-18
-18
-17
-19
-19
-17
-17
-21
-19
-14
-18
-19
-20
-22
-24
-25
-3
30
92
164
243
277
242
120
-18
-93
-97
-68
-32
-9
-6
-13
-16
-13
-12
-12
-15
-14
-13
-15
-15
-11
-10
-9
-15
-13
-11
-9
-13
-13
-8
-6
-7
-7
-4
-2
-6
-5
-1
0
1
0
4
9
10
9
14
20
22
22
26
31
34
36
38
46
47
47
50
55
57
57
56
59
61
59
56
55
54
50
47
41
38
33
27
21
18
14
7
6
7
5
0
-3
-2
-1
-3
-6
-3
-2
-2
-7
-5
1
-2
-3
0
2
2
-1
1
4
6
2
4
6
6
4
3
5
6
3
1
3
7
3
2
2
0
0
-1
-1
1
-1
-2
-3
-1
-5
-9
-9
-9
-7
-8
-10
-8
-9
-10
-12
-11
-10
-11
-16
-12
-12
-13
-14
-13
-11
-12
-15
-16
-14
-15
-18
-17
-14
-13
-14
-15
-11
-10
-10
-11
-12
-12
-15
-14
-13
-13
-15
-16
-21
-22
-21
-18
-13
-9
-10
-13
-14
-14
-13
-16
-17
-13
-16
-17
-21
-18
-15
-16
-19
-17
-13
-15
-15
-15
-12
-12
-16
-22
-19
-12
-6
13
63
125
192
253
272
220
104
-19
-89
-91
-68
-41
-12
-2
-5
-8
-10
-8
-10
-14
-14
-11
-8
-11
-11
-11
-9
-12
-13
-11
-7
-10
-10
-9
-6
-8
-9
-6
-6
-6
-7
-5
-1
-2
-3
2
5
4
4
3
6
10
11
13
20
22
23
26
31
38
38
37
42
46
47
47
51
55
57
60
60
61
61
60
60
60
60
52
49
48
42
35
29
27
25
22
17
17
14
11
8
3
4
5
2
0
2
2
0
-1
1
2
1
-2
1
1
2
2
3
4
2
3
6
8
7
5
6
8
8
5
7
7
8
5
6
8
9
5
4
5
5
-1
0
2
4
0
-2
0
1
-2
-3
-3
-2
-4
-8
-8
-4
-6
-10
-12
-9
-7
-10
-11
-11
-12
-12
-14
-9
-9
-13
-17
-14
-12
-11
-12
-11
-9
-10
-12
-11
-6
-7
-11
-13
-10
-10
-13
-17
-15
-16
-21
-20
-15
-8
-7
-10
-10
-8
-11
-12
-14
-11
-12
-16
-14
-13
-13
-16
-14
-14
-12
-15
-13
-11
-11
-13
-17
-17
-14
-6
8
43
103
166
186
259
241
151
34
-55
-79
-63
-35
-7
1
1
-6
-6
-5
-8
-11
-13
-11
-11
-10
-14
-11
-9
-11
-12
-11
-9
-9
-10
-11
-8
-6
-8
-7
-3
-3
-4
-3
-1
3
1
2
4
8
9
7
13
15
18
19
22
25
29
28
32
37
42
40
44
50
51
53
52
57
59
58
57
59
62
59
56
57
56
51
47
44
41
36
28
27
26
20
14
12
10
10
4
2
5
2
-2
-3
0
0
-2
-3
-3
-1
-1
0
-2
2
2
-2
2
4
5
3
5
7
8
7
7
10
12
9
8
11
11
9
7
9
10
10
9
8
9
7
3
1
4
2
-1
-2
2
0
-2
-2
-2
-1
-5
-7
-5
-5
-7
-9
-7
-5
-6
-7
-8
-7
-6
-10
-8
-8
-8
-11
-11
-8
-7
-7
-6
-6
-6
-7
-9
-6
-6
-5
-11
-9
-12
-15
-17
-12
-5
-3
-7
-7
-5
-7
-10
-11
-11
-9
-13
-14
-12
-12
-14
-13
-10
-8
-10
-11
-11
-10
-11
-12
-19
-12
-5
9
52
118
191
255
283
239
125
-4
-83
-98
-70
-38
-11
2
1
-6
-10
-8
-6
-8
-10
-12
-9
-9
-11
-9
-9
-9
-11
-11
-6
-6
-6
-7
-6
-2
-7
-4
-1
1
1
-2
0
4
4
5
7
9
11
10
11
17
20
21
22
28
31
31
34
38
44
42
46
49
53
53
53
57
60
59
58
60
63
63
59
59
60
58
53
51
46
44
36
31
30
26
19
15
13
12
10
4
4
4
1
-1
0
2
-1
-4
-2
0
-1
-3
-4
-1
0
-3
-1
1
5
3
0
3
5
4
3
6
9
6
6
5
6
7
3
4
7
5
3
2
6
5
2
-1
2
3
1
-1
-2
-1
-5
-6
-5
-5
-7
-8
-9
-7
-7
-11
-10
-8
-8
-11
-13
-9
-10
-12
-11
-12
-10
-13
-15
-11
-11
-14
-14
-11
-7
-8
-9
-10
-8
-10
-13
-11
-10
-7
-14
-18
-19
-18
-20
-13
-7
-8
-10
-14
-11
-11
-13
-17
-16
-16
-15
-14
-16
-13
-14
-16
-17
-14
-16
-16
-17
-13
-11
-16
-16
-19
-20
-15
-8
8
51
112
174
240
273
246
231
49
-51
-98
-96
-68
-34
-11
-6
-8
-10
-12
-10
-13
-14
-13
-14
-16
-15
-13
-15
-17
-13
-12
-14
-15
-14
-12
-10
-12
-10
-8
-8
-8
-8
-7
-5
-8
-8
-5
-2
0
-2
0
4
6
6
9
14
14
13
17
19
24
26
29
37
42
41
43
46
48
49
50
54
56
56
58
62
64
63
58
58
58
53
51
46
45
40
32
27
26
23
16
13
12
8
4
1
4
5
-1
-1
-1
2
-1
-2
-4
-1
-1
-2
-3
-1
0
-3
1
2
3
2
1
1
4
1
3
6
7
3
2
4
8
5
1
1
4
3
1
0
-1
-1
-1
0
2
-1
-8
-8
-6
-5
-9
-9
-9
-7
-10
-14
-12
-11
-11
-16
-12
-11
-11
-13
-14
-13
-15
-17
-17
-16
-14
-16
-14
-13
-12
-15
-15
-12
-11
-14
-16
-15
-13
-13
-16
-14
-14
-19
-22
-25
-21
-20
-17
-12
-11
-8
-14
-16
-15
-15
-15
-18
-18
-17
-19
-21
-19
-18
-21
-21
-18
-14
-15
-15
-17
-14
-17
-23
-23
-14
-4
15
65
128
191
239
246
201
99
-10
-74
-85
-65
-38
-14
-5
-5
-10
-12
-13
-10
-14
-17
-19
-16
-17
-21
-20
-18
-15
-18
-20
-18
-16
-15
-17
-14
-12
-17
-19
-16
-12
-11
-11
-13
-9
-9
-9
-9
-5
-3
-4
-3
1
3
4
5
9
13
17
18
24
27
28
28
35
40
42
41
43
46
49
47
49
53
53
51
53
56
55
52
48
46
44
38
32
29
25
20
13
12
8
7
6
1
0
0
-3
-6
-3
-6
-8
-7
-5
-7
-11
-10
-5
-6
-8
-7
-3
-3
-2
-6
-2
1
1
0
0
2
1
0
0
1
5
0
-1
2
0
-1
-1
0
-2
-3
-5
-4
-4
-7
-9
-9
-7
-9
-11
-12
-9
-12
-15
-14
-13
-13
-16
-18
-16
-15
-19
-20
-18
-17
-22
-21
-18
-20
-20
-22
-18
-18
-18
-18
-19
-16
-17
-20
-18
-18
-17
-21
-22
-20
-21
-27
-29
-29
-27
-23
-21
-16
-16
-19
-20
-20
-20
-22
-23
-24
-24
-23
-26
-25
-23
-21
-25
-26
-22
-22
-23
-25
-22
-22
-27
-33
-29
-22
-12
13
65
131
197
217
254
205
87
-31
-95
-100
-76
-45
-20
-12
-13
-20
-19
-17
-16
-19
-22
-20
-19
-20
-22
-20
-18
-19
-20
-21
-18
-16
-19
-17
-17
-15
-19
-18
-14
-13
-15
-14
-12
-10
-8
-11
-8
-6
-6
-6
-2
5
3
2
7
12
13
16
19
24
26
26
31
34
38
38
39
43
47
46
45
48
49
48
45
44
45
42
40
33
31
26
17
14
10
8
3
-2
-2
-4
-10
-11
-9
-10
-12
-16
-15
-12
-15
-18
-14
-10
-12
-13
-14
-12
-13
-15
-11
-11
-8
-11
-12
-7
-7
-7
-9
-7
-5
-6
-10
-8
-6
-8
-10
-10
-7
-9
-10
-12
-12
-12
-16
-16
-15
-14
-18
-19
-18
-16
-20
-21
-20
-20
-23
-23
-23
-19
-21
-25
-24
-21
-24
-25
-24
-23
-23
-26
-24
-24
-23
-23
-24
-19
-21
-21
-22
-22
-18
-23
-25
-25
-27
-33
-35
-30
-22
-19
-20
-22
-20
-23
-27
-27
-25
-25
-29
-29
-27
-27
-26
-29
-28
-26
-27
-28
-28
-24
-25
-28
-31
-33
-27
-26
0
45
109
179
245
260
207
82
-41
-104
-108
-87
-56
-30
-21
-23
-26
-23
-22
-25
-27
-27
-26
-27
-27
-29
-25
-24
-26
-27
-24
-22
-26
-25
-21
-20
-23
-22
-20
-18
-17
-21
-15
-12
-13
-14
-12
-9
-7
-9
-5
-1
2
2
5
9
14
15
17
23
27
29
31
35
38
39
40
44
46
46
46
49
49
48
45
41
40
38
30
25
24
18
11
7
4
1
-3
-7
-8
-8
-11
-15
-11
-11
-14
-17
-14
-13
-14
-13
-14
-11
-12
-12
-9
-8
-8
-10
-10
-7
-6
-7
-9
-5
-3
-7
-8
-5
-5
-8
-8
-7
-7
-7
-9
-11
-11
-13
-16
-14
-13
-13
-18
-19
-15
-16
-19
-19
-18
-19
-21
-24
-22
-23
-23
-25
-24
-22
-24
-26
-27
-25
-25
-29
-28
-25
-23
-25
-26
-23
-21
-21
-23
-22
-20
-23
-25
-21
-20
-25
-32
-31
-32
-29
-28
-20
-18
-21
-23
-24
-22
-24
-28
-29
-26
-25
-30
-29
-27
-27
-28
-29
-26
-24
-26
-28
-26
-27
-34
-34
-22
-3
41
103
179
240
252
193
71
-48
-105
-105
-74
-41
-21
-17
-23
-23
-22
-23
-28
-28
-27
-25
-27
-25
-22
-25
-27
-28
-24
-21
-24
-22
-22
-20
-22
-24
-18
-18
-17
-22
-18
-15
-16
-17
-12
-11
-10
-11
-8
-1
-2
-3
2
8
14
12
15
21
25
26
26
31
34
35
33
40
42
41
41
45
49
47
45
43
41
38
33
27
27
21
12
8
5
3
-2
-6
-5
-5
-10
-13
-12
-10
-12
-14
-14
-12
-12
-14
-13
-11
-10
-14
-11
-9
-8
-10
-9
-6
-5
-7
-9
-5
-5
-7
-8
-6
-4
-5
-9
-7
-7
-7
-9
-9
-7
-7
-12
-12
-11
-12
-13
-14
-12
-11
-15
-18
-17
-17
-19
-22
-19
-16
-18
-24
-22
-20
-23
-25
-25
-22
-22
-27
-29
-25
-27
-27
-26
-24
-22
-24
-24
-22
-22
-22
-25
-20
-21
-23
-23
-22
-20
-24
-27
-33
-33
-32
-32
-27
-20
-20
-25
-28
-25
-22
-25
-27
-26
-25
-29
-30
-26
-24
-25
-28
-26
-25
-27
-29
-26
-24
-24
-27
-31
-31
-24
-17
-4
35
88
141
195
240
230
165
55
-42
-85
-88
-67
-34
-12
-14
-17
-22
-19
-17
-22
-23
-19
-24
-25
-25
-22
-22
-27
-25
-24
-21
-22
-24
-24
-22
-22
-23
-23
-20
-20
-22
-19
-14
-14
-17
-16
-17
-14
-15
-13
-9
-6
-4
-3
3
5
6
7
12
19
18
18
24
30
32
31
35
40
41
40
42
45
48
44
46
48
48
41
40
40
37
29
27
25
21
15
8
5
3
-1
-4
-7
-7
-8
-10
-14
-10
-11
-14
-16
-11
-11
-13
-13
-12
-11
-13
-14
-10
-8
-9
-13
-9
-7
-8
-9
-6
-6
-4
-7
-5
-3
-3
-8
-8
-3
-4
-7
-9
-7
-5
-9
-10
-9
-7
-12
-14
-11
-11
-13
-14
-16
-14
-18
-21
-20
-19
-19
-22
-22
-17
-18
-21
-24
-22
-19
-22
-25
-21
-21
-21
-21
-21
-19
-20
-21
-18
-15
-16
-20
-18
-17
-17
-21
-22
-21
-22
-29
-31
-27
-21
-18
-19
-18
-17
-19
-22
-23
-20
-22
-24
-27
-24
-23
-24
-24
-23
-20
-23
-23
-18
-19
-19
-22
-20
-23
-27
-22
-11
9
48
103
167
230
257
260
156
44
-50
-101
-99
-71
-38
-16
-7
-5
-10
-13
-13
-12
-13
-15
-18
-14
-13
-15
-17
-14
-11
-14
-16
-11
-9
-9
-12
-11
-7
-6
-7
-8
-4
-2
-5
-4
-2
1
1
0
3
7
5
5
11
13
16
16
21
25
28
29
32
38
41
42
43
50
53
54
56
60
64
65
61
65
66
65
62
64
63
61
58
53
50
41
37
33
33
30
21
17
18
17
12
10
11
10
8
6
8
10
9
5
7
7
11
10
9
10
12
9
12
16
14
13
14
18
18
17
17
17
22
18
18
21
22
20
17
20
21
17
15
17
19
17
14
15
17
16
13
13
15
14
12
12
13
12
10
9
9
13
10
7
8
10
8
7
6
8
7
5
7
9
7
7
6
10
10
9
6
10
12
9
7
7
6
3
-2
2
6
10
12
13
16
16
11
10
10
9
7
4
7
7
4
4
8
9
9
6
9
11
11
6
5
4
1
0
13
29
63
113
177
242
292
288
229
110
-7
-72
-80
-52
-20
9
16
20
17
15
15
14
15
13
11
12
14
14
12
11
13
15
13
15
16
19
18
15
19
20
19
16
21
22
24
20
22
25
27
25
28
30
33
33
33
38
40
40
43
50
52
54
56
59
64
67
68
71
76
77
77
79
82
82
83
84
85
84
78
77
75
74
67
63
61
57
50
44
41
39
34
29
29
27
26
23
23
23
21
19
18
23
22
18
18
22
20
18
19
23
23
22
21
22
26
26
23
25
27
27
26
27
28
25
26
23
25
26
22
20
24
25
21
20
22
22
19
18
18
19
18
15
15
16
15
12
12
13
12
11
10
11
10
7
7
9
10
6
5
7
6
5
4
6
7
4
3
6
8
6
4
8
10
10
9
5
7
5
4
5
8
6
2
-3
-6
-5
-4
-2
4
8
6
6
6
7
4
-1
1
1
-1
-2
-3
1
2
-2
-1
-1
-1
-1
-3
1
3
-1
0
-2
-6
-9
-4
5
24
66
126
191
248
267
265
141
28
-59
-90
-76
-41
-10
5
8
4
4
0
2
1
1
-1
-3
-2
0
0
-4
-1
1
1
0
0
0
2
1
3
4
3
3
2
6
6
6
4
7
11
10
9
12
16
16
17
23
26
28
28
32
36
41
40
46
50
53
53
53
59
61
60
60
62
65
61
60
60
59
54
50
49
47
42
40
32
30
22
15
12
12
10
4
1
4
5
-1
-3
-1
1
0
-2
-1
-2
-1
-5
-2
0
1
0
-1
0
1
0
2
4
4
0
-2
3
5
3
3
2
4
0
-2
1
1
1
-2
-2
1
0
-2
-5
-4
-3
-9
-8
-5
-6
-9
-11
-9
-11
-16
-15
-14
-11
-16
-19
-17
-14
-16
-20
-17
-15
-17
-17
-19
-17
-17
-21
-24
-20
-20
-20
-20
-16
-18
-18
-19
-17
-17
-21
-21
-20
-19
-23
-26
-31
-30
-29
-30
-25
-18
-15
-21
-21
-18
-21
-24
-24
-23
-23
-27
-28
-26
-26
-26
-26
-23
-24
-26
-26
-25
-25
-25
-24
-27
-31
-29
-26
-16
8
50
105
168
221
236
190
89
-16
-79
-102
-88
-55
-27
-16
-18
-21
-20
-22
-22
-24
-21
-22
-25
-26
-24
-24
-27
-28
-23
-24
-26
-28
-25
-21
-23
-25
-22
-20
-20
-22
-22
-19
-18
-19
-18
-14
-11
-13
-12
-7
-4
-4
-1
1
5
5
7
13
17
20
21
24
27
29
28
32
34
33
33
34
38
38
36
32
31
30
23
20
19
16
8
2
3
0
-5
-8
-8
-10
-14
-18
-19
-16
-16
-17
-21
-18
-18
-18
-17
-15
-17
-19
-20
-17
-16
-17
-17
-14
-14
-15
-17
-14
-11
-13
-16
-13
-13
-11
-12
-14
-12
-11
-18
-17
-14
-15
-17
-18
-18
-16
-19
-22
-20
-19
-23
-23
-24
-22
-26
-27
-26
-25
-25
-26
-29
-27
-27
-30
-31
-29
-28
-32
-32
-30
-29
-30
-32
-29
-30
-30
-30
-29
-26
-29
-31
-30
-27
-27
-28
-33
-33
-37
-41
-43
-38
-34
-29
-30
-29
-29
-30
-33
-31
-32
-36
-37
-35
-32
-34
-36
-33
-31
-35
-35
-33
-29
-30
-35
-36
-38
-34
-27
-16
23
82
147
204
232
194
93
-36
-108
-107
-79
-46
-23
-16
-21
-25
-24
-25
-26
-30
-29
-31
-28
-31
-30
-28
-27
-29
-28
-26
-24
-27
-27
-24
-21
-22
-23
-20
-18
-19
-20
-16
-16
-14
-11
-8
-4
-1
-2
-1
4
8
10
12
17
21
23
26
33
37
39
37
42
48
47
48
47
50
50
46
46
46
41
36
31
29
22
17
10
9
7
0
-4
-5
-4
-7
-12
-10
-11
-10
-11
-11
-9
-11
-12
-12
-11
-9
-10
-9
-7
-6
-5
-8
-6
-3
-2
-5
-3
0
-2
-3
-2
1
0
-1
-4
-2
-3
-5
-5
-3
-3
-5
-6
-6
-6
-8
-11
-8
-6
-10
-10
-11
-9
-13
-17
-14
-13
-14
-13
-15
-12
-13
-17
-16
-16
-15
-17
-18
-15
-13
-16
-17
-16
-13
-16
-15
-13
-12
-14
-19
-20
-23
-23
-25
-19
-11
-11
-15
-15
-14
-15
-20
-21
-18
-17
-17
-21
-16
-16
-16
-19
-17
-15
-15
-16
-14
-14
-18
-22
-22
-14
-4
25
83
157
228
266
246
147
11
-83
-105
-78
-41
-13
-4
-3
-5
-6
-8
-9
-8
-8
-8
-11
-8
-7
-11
-9
-6
-6
-9
-9
-5
-1
-4
-4
-2
0
0
-1
2
3
3
2
7
10
11
11
15
19
22
21
25
30
36
36
39
45
51
50
51
58
60
60
61
64
66
64
62
63
64
61
60
52
53
46
38
34
32
26
20
17
15
14
9
4
5
8
3
2
2
5
3
-2
1
4
4
3
3
5
7
5
7
10
10
6
5
9
11
10
8
10
11
10
9
9
11
11
5
8
10
9
8
6
8
7
3
4
5
6
0
-1
0
-1
-2
-5
-6
-4
-7
-6
-4
-5
-6
-10
-8
-4
-6
-8
-7
-4
-4
-6
-6
-1
-3
-7
-6
-3
-3
-1
-4
-3
-5
-8
-13
-12
-13
-12
-6
-1
1
-3
-3
-5
-4
-6
-8
-10
-7
-8
-9
-9
-8
-7
-12
-13
-7
-7
-8
-10
-10
-11
-17
-12
-3
14
53
70
190
258
273
224
109
-15
-93
-98
-67
-31
-6
2
-1
-4
-1
-4
-7
-5
-6
-8
-10
-7
-5
-6
-6
-8
-3
-4
-5
-6
-3
-4
-4
-5
-1
-1
-3
-2
2
2
1
2
5
7
7
6
11
12
13
14
18
22
26
25
32
36
39
38
38
46
50
50
52
55
58
57
56
61
63
61
59
61
60
56
53
46
44
38
33
29
27
22
18
15
12
12
8
2
3
2
-3
-4
-3
0
-1
-7
-3
0
-1
-3
-4
-4
-1
-4
-4
0
1
0
-1
0
3
2
0
4
4
-1
-1
1
2
3
-3
0
2
2
1
0
-2
-1
-4
-5
-4
-4
-7
-8
-8
-5
-8
-10
-10
-10
-11
-12
-13
-16
-14
-18
-17
-16
-14
-16
-17
-17
-18
-20
-20
-16
-15
-19
-20
-19
-17
-18
-20
-15
-14
-17
-19
-17
-18
-17
-19
-16
-14
-18
-20
-27
-28
-29
-29
-24
-18
-14
-16
-17
-17
-17
-22
-22
-23
-22
-25
-27
-23
-22
-22
-25
-21
-18
-20
-21
-22
-21
-21
-24
-24
-25
-27
-24
-15
4
41
94
154
214
242
225
146
36
-49
-93
-91
-61
-28
-15
-14
-18
-18
-17
-21
-22
-20
-19
-23
-22
-22
-20
-19
-21
-21
-18
-21
-21
-15
-15
-20
-20
-19
-17
-16
-15
-13
-13
-12
-16
-11
-6
-7
-8
-8
-4
-2
0
2
8
10
10
11
17
24
26
28
28
34
35
37
38
40
44
44
45
48
50
47
44
44
42
35
32
34
34
28
20
15
12
5
0
-1
0
-4
-5
-10
-8
-9
-13
-13
-11
-11
-15
-14
-10
-10
-14
-13
-10
-9
-11
-11
-10
-6
-8
-11
-7
-7
-7
-7
-8
-6
-4
-8
-7
-6
-7
-8
-11
-8
-8
-14
-13
-10
-10
-13
-14
-13
-14
-15
-18
-16
-14
-17
-18
-20
-18
-17
-22
-22
-21
-20
-23
-24
-20
-21
-22
-25
-21
-21
-24
-26
-25
-21
-23
-27
-24
-21
-22
-22
-21
-21
-19
-23
-21
-21
-20
-22
-23
-19
-21
-27
-30
-30
-28
-29
-26
-20
-18
-20
-23
-24
-23
-23
-25
-28
-27
-26
-28
-29
-24
-23
-24
-26
-22
-22
-23
-24
-21
-19
-22
-25
-26
-28
-22
-14
5
46
104
123
219
251
222
129
8
-75
-106
-90
-60
-28
-14
-12
-16
-18
-14
-20
-19
-19
-19
-20
-23
-20
-18
-19
-20
-18
-18
-16
-19
-19
-17
-13
-17
-16
-14
-16
-14
-15
-13
-10
-11
-12
-9
-6
-6
-6
-4
-1
0
1
6
10
13
13
18
21
26
26
27
35
37
36
40
44
46
46
45
49
51
47
47
46
45
43
41
35
32
26
18
14
12
7
2
-1
-3
-4
-9
-11
-10
-10
-14
-15
-15
-13
-13
-16
-14
-14
-14
-16
-14
-12
-11
-13
-13
-11
-8
-10
-11
-7
-8
-6
-8
-8
-5
-7
-9
-7
-7
-8
-9
-9
-9
-10
-10
-11
-11
-11
-14
-14
-13
-14
-17
-17
-16
-15
-18
-21
-20
-18
-22
-23
-22
-19
-21
-24
-23
-21
-22
-24
-23
-23
-23
-26
-27
-23
-23
-26
-25
-23
-20
-22
-24
-22
-19
-19
-22
-21
-21
-21
-22
-20
-19
-23
-25
-30
-28
-29
-24
-20
-15
-17
-19
-21
-20
-20
-24
-24
-24
-24
-24
-23
-24
-22
-23
-24
-22
-20
-21
-23
-21
-19
-18
-23
-29
-24
-16
-10
18
71
134
199
256
265
203
79
-37
-99
-97
-72
-46
-21
-8
-13
-16
-19
-16
-18
-22
-21
-18
-18
-22
-19
-16
-14
-16
-16
-12
-13
-14
-14
-12
-12
-11
-13
-10
-8
-8
-9
-9
-7
-4
-5
-4
1
2
1
4
9
9
10
9
13
18
19
21
27
30
33
31
37
43
44
43
49
50
53
51
55
57
55
54
52
53
51
45
39
39
34
28
22
18
16
11
8
4
5
2
0
-3
1
-1
-5
-6
-5
-6
-4
-6
-4
-3
-4
-7
-3
-2
-4
-5
-1
1
2
1
2
3
4
3
3
6
3
3
4
7
6
1
2
6
4
3
2
5
4
1
-1
1
0
-1
-5
-4
-2
-4
-5
-5
-2
-5
-7
-7
-7
-6
-10
-9
-9
-7
-9
-11
-12
-10
-10
-13
-11
-9
-11
-13
-10
-10
-10
-11
-11
-9
-10
-11
-11
-8
-5
-8
-9
-8
-7
-9
-9
-6
-6
-9
-9
-10
-12
-18
-21
-16
-9
-3
-3
-5
-5
-3
-9
-12
-7
-10
-11
-12
-10
-8
-11
-10
-8
-6
-9
-10
-9
-8
-6
-10
-8
-6
-12
-11
-2
16
61
123
195
257
274
216
97
-19
-78
-80
-53
-16
2
3
-1
-2
2
-1
-6
-6
-3
-2
-4
-4
-3
-2
-6
-5
0
-1
-4
-4
2
3
2
-1
3
5
5
4
6
10
8
6
10
17
17
16
20
24
26
29
30
37
41
41
44
50
51
52
53
59
65
64
63
68
72
70
67
67
68
69
68
60
60
56
48
44
41
37
30
26
25
22
16
13
14
14
12
11
10
9
7
6
9
11
9
8
6
9
9
9
8
10
12
8
10
13
16
13
14
15
12
12
11
14
16
18
12
13
15
16
15
15
18
15
12
11
14
13
9
9
10
11
8
7
10
10
8
5
5
9
5
2
4
6
2
0
1
3
3
-3
-1
0
1
-2
-2
0
3
1
-2
-1
1
-2
-2
0
2
0
-1
2
5
2
2
1
2
3
0
-2
-2
-4
-9
-11
-5
2
2
1
2
7
3
-3
-1
0
-1
-6
-2
1
0
-1
-3
-1
1
0
-1
2
2
0
-1
1
-5
-5
2
16
42
89
153
223
267
266
194
76
-21
-62
-66
-27
1
13
10
4
7
9
6
1
4
5
3
2
3
7
3
2
6
6
6
3
6
6
7
5
6
8
10
7
9
14
13
13
13
17
20
20
20
25
29
27
29
33
39
40
41
46
52
54
54
60
65
66
65
69
71
75
73
73
75
76
73
71
70
68
63
60
57
53
47
41
37
35
31
27
23
24
21
16
15
15
14
11
10
10
11
10
8
10
11
10
8
11
14
13
10
11
14
14
13
14
17
16
16
17
18
20
17
14
20
21
17
18
19
19
15
15
16
16
13
11
11
13
11
9
7
10
8
4
6
6
5
1
1
4
4
2
0
2
3
0
-2
-1
1
-2
-3
-4
0
-3
-4
-4
-1
0
-1
-2
2
2
-1
1
3
3
0
0
3
3
0
-3
-5
-5
-7
-9
-3
6
6
4
2
3
0
-3
-5
-2
-2
-6
-6
-4
-2
-5
-6
-2
0
-3
-3
-2
-1
-4
-12
-6
5
22
29
135
213
278
285
207
72
-40
-81
-70
-34
-4
6
3
1
1
1
-1
-1
0
0
-1
-2
0
-1
-1
-1
2
1
-2
0
4
5
3
4
5
7
5
7
8
10
10
9
11
17
17
14
20
25
26
25
29
34
39
38
43
49
52
53
53
60
63
63
63
67
71
72
69
71
70
68
62
64
61
57
54
47
44
38
29
26
25
21
16
11
9
10
6
3
5
6
2
0
3
5
3
-2
0
3
4
3
2
4
6
4
4
8
7
5
5
9
12
9
6
9
9
9
6
7
9
6
4
5
9
6
5
2
5
4
0
0
1
0
-2
-4
-3
-3
-6
-6
-5
-3
-5
-9
-9
-5
-7
-9
-9
-8
-9
-11
-10
-7
-8
-11
-12
-10
-10
-12
-14
-8
-7
-8
-9
-8
-4
-7
-9
-10
-8
-9
-12
-12
-12
-17
-19
-18
-11
-5
-6
-9
-7
-10
-13
-15
-15
-14
-16
-17
-15
-13
-15
-17
-12
-9
-11
-13
-12
-10
-10
-11
-14
-18
-15
-8
5
44
110
181
251
278
232
113
-14
-82
-81
-57
-27
-4
2
-5
-9
-6
-6
-7
-8
-9
-6
-8
-11
-10
-7
-10
-11
-11
-9
-7
-7
-7
-6
-2
-5
-6
-3
-2
-3
-5
-1
1
2
1
3
7
9
8
10
15
18
18
20
27
31
31
34
40
43
45
48
51
53
54
54
57
62
60
59
59
62
60
54
51
49
44
39
34
32
29
24
16
17
13
6
3
3
2
0
-3
-4
-3
-2
-5
-6
-6
-6
-10
-6
-4
-3
-5
-7
-4
-2
-2
-4
-2
0
-1
-5
-1
2
0
-1
-1
3
0
-2
-2
0
0
-2
-3
-1
-1
-5
-6
-4
-4
-5
-8
-5
-4
-7
-10
-9
-9
-11
-13
-15
-14
-15
-16
-15
-13
-14
-18
-17
-17
-18
-19
-18
-16
-17
-20
-21
-19
-17
-19
-20
-20
-18
-20
-22
-19
-18
-18
-19
-18
-14
-12
-17
-16
-14
-16
-16
-17
-18
-18
-24
-26
-24
-22
-22
-19
-15
-13
-15
-17
-16
-14
-16
-16
-19
-20
-21
-19
-20
-16
-18
-20
-21
-18
-19
-21
-21
-18
-15
-14
-17
-17
-19
-19
-15
-1
25
75
92
188
239
251
208
115
9
-64
-88
-80
-50
-24
-12
-10
-11
-11
-11
-14
-13
-12
-18
-21
-20
-13
-14
-14
-15
-12
-14
-14
-13
-12
-13
-14
-15
-11
-10
-12
-12
-9
-7
-7
-9
-7
-5
-6
-6
1
5
2
1
4
9
7
8
12
17
21
21
25
30
33
34
37
42
43
43
43
47
50
51
52
53
57
55
54
54
54
53
48
46
43
38
31
26
26
21
17
12
11
9
5
-1
1
-1
-1
-8
-4
-4
-5
-6
-8
-6
-5
-8
-8
-7
-7
-7
-9
-6
-4
-6
-8
-5
-4
-5
-4
-4
1
-1
-4
-1
2
1
-1
-1
2
2
0
0
3
-1
-2
-3
0
-1
-1
-4
-4
-2
-7
-7
-7
-5
-9
-10
-10
-8
-10
-12
-13
-10
-13
-15
-15
-14
-15
-16
-16
-16
-15
-20
-18
-18
-16
-18
-19
-19
-19
-17
-21
-18
-15
-20
-19
-21
-16
-15
-19
-19
-13
-13
-18
-19
-17
-17
-20
-23
-25
-25
-27
-29
-20
-13
-15
-19
-16
-14
-19
-20
-22
-20
-23
-24
-25
-20
-21
-25
-23
-21
-19
-22
-21
-20
-21
-19
-19
-20
-21
-23
-18
-8
15
56
71
179
243
271
246
157
34
-62
-95
-83
-53
-22
-9
-6
-10
-10
-14
-11
-12
-12
-13
-19
-15
-13
-14
-13
-12
-13
-9
-13
-14
-13
-10
-13
-12
-9
-8
-9
-11
-8
-6
-6
-8
-4
-2
-3
-4
0
3
3
2
7
9
13
13
15
22
23
25
26
32
39
38
40
44
50
49
48
52
56
57
53
56
60
59
58
57
54
53
48
43
42
38
31
27
26
21
14
11
9
8
3
2
0
1
-2
-3
-6
-4
-7
-6
-7
-5
-5
-8
-8
-5
-5
-4
-6
-3
-2
-4
-5
-1
1
-1
-3
0
4
3
1
1
6
4
4
3
4
4
-1
1
2
2
0
-3
0
1
-2
-5
0
-1
-5
-5
-7
-2
-6
-11
-8
-8
-9
-8
-11
-8
-11
-13
-14
-11
-10
-13
-15
-11
-12
-12
-14
-11
-11
-13
-16
-13
-11
-13
-15
-13
-8
-14
-15
-12
-9
-8
-11
-11
-10
-12
-12
-12
-11
-11
-17
-20
-17
-17
-12
-8
-8
-6
-7
-10
-12
-11
-16
-17
-18
-15
-17
-18
-17
-15
-15
-16
-16
-13
-12
-14
-16
-12
-11
-17
-22
-17
-6
5
38
98
171
242
264
260
164
30
-66
-97
-78
-51
-26
-9
-2
-2
-8
-9
-5
-7
-9
-11
-9
-7
-10
-11
-9
-7
-7
-9
-8
-6
-6
-7
-9
-5
-4
-5
-6
-3
-2
-3
-2
1
1
4
2
4
7
8
7
8
12
16
15
20
24
27
28
32
36
40
42
41
49
51
52
54
59
61
58
61
63
67
65
62
66
66
63
62
59
57
54
46
41
39
32
28
24
20
17
12
7
6
7
3
2
0
4
2
1
0
4
2
0
0
2
2
-2
0
3
3
1
3
6
7
7
4
8
8
9
6
8
11
9
6
8
10
11
9
8
8
7
7
6
9
6
1
0
2
5
1
-2
1
2
-2
-4
-1
0
-4
-7
-6
-4
-4
-5
-5
-4
-6
-8
-11
-9
-5
-9
-8
-7
-7
-8
-10
-8
-7
-9
-12
-11
-7
-10
-10
-6
-2
-4
-5
-5
-4
-4
-7
-7
-7
-11
-14
-17
-13
-13
-11
-7
-1
-3
-7
-6
-3
-3
-8
-13
-10
-9
-9
-10
-10
-7
-7
-9
-9
-6
-6
-7
-8
-6
-4
-5
-7
-9
-11
-11
-2
11
38
86
146
212
265
274
269
118
1
-68
-83
-62
-33
-7
3
2
1
1
2
0
-2
-1
-1
-5
-3
-2
-2
-5
0
1
1
0
-1
5
5
3
2
3
4
1
2
6
7
7
7
10
11
12
14
17
19
19
19
23
27
30
32
34
38
43
44
48
51
54
56
58
61
64
65
66
70
69
69
66
67
68
66
61
58
54
50
48
39
36
29
24
23
21
20
16
14
15
16
9
6
9
11
9
7
9
12
11
10
9
10
10
10
13
15
17
15
11
14
17
15
14
19
19
19
16
17
17
16
14
16
17
14
9
12
16
14
12
10
9
10
7
7
9
7
4
3
0
3
1
-1
1
2
-1
-2
1
3
1
-3
-2
1
-2
-4
-3
-1
0
-2
-2
-1
3
-1
-1
1
3
0
0
4
3
2
0
-1
1
-1
-4
-5
-4
-8
-9
-7
-2
4
3
4
4
4
0
-1
2
0
-3
-3
-1
1
-2
-5
-2
1
-1
-3
-1
2
0
-1
0
1
-2
-7
2
16
29
66
124
184
242
270
258
194
82
-26
-70
-68
-42
-13
5
11
8
5
3
3
3
1
-2
-4
0
1
0
-2
1
3
0
-2
2
4
2
2
3
5
6
3
5
7
7
8
9
14
13
14
15
19
22
22
22
28
30
32
33
37
44
47
47
53
57
57
58
63
65
67
66
68
72
73
68
69
69
67
62
57
54
49
42
36
34
32
24
20
20
17
16
11
10
12
10
9
5
7
9
6
5
9
9
4
5
8
10
6
6
9
13
9
11
10
14
14
11
14
17
15
14
15
16
15
13
14
15
14
9
11
14
13
8
6
8
9
6
1
3
5
3
1
-1
1
0
-1
-3
0
0
-5
-6
-4
-5
-5
-6
-5
-4
-7
-9
-7
-6
-7
-8
-8
-5
-7
-10
-9
-3
-6
-7
-6
-3
-2
-5
-6
-3
-3
-6
-6
-4
-4
-9
-12
-14
-12
-12
-9
-3
-2
-5
-6
-6
-5
-8
-10
-11
-8
-10
-14
-12
-10
-8
-12
-9
-9
-8
-9
-10
-6
-8
-10
-12
-17
-12
-6
4
31
85
151
171
282
298
236
110
-13
-79
-86
-63
-32
-8
2
-1
-7
-6
-3
-5
-10
-7
-7
-9
-13
-10
-8
-9
-10
-9
-8
-8
-10
-10
-7
-3
-7
-5
-4
0
-2
-3
0
1
0
0
4
9
7
7
13
16
16
17
22
26
29
30
35
41
47
46
48
52
55
57
55
61
62
61
62
63
63
61
54
52
50
45
43
36
30
24
17
14
13
10
7
2
0
1
-2
-4
1
0
-2
-5
-4
-1
-3
-4
-3
-2
-2
-3
1
2
3
2
3
5
3
4
3
3
5
5
3
4
6
4
2
4
4
3
-1
0
1
0
-1
-4
-2
-1
-5
-4
-4
-6
-8
-10
-8
-8
-11
-13
-10
-7
-11
-13
-13
-12
-14
-19
-15
-12
-13
-14
-15
-13
-11
-15
-17
-14
-13
-15
-17
-16
-15
-15
-13
-11
-9
-11
-14
-12
-12
-10
-15
-16
-16
-20
-22
-23
-19
-19
-14
-10
-11
-11
-15
-15
-14
-12
-14
-16
-17
-15
-18
-18
-16
-14
-15
-19
-16
-16
-16
-16
-16
-14
-13
-19
-21
-12
-4
15
58
122
185
240
260
222
114
-12
-76
-87
-59
-30
-10
-4
-8
-12
-14
-13
-12
-14
-19
-18
-16
-15
-18
-19
-16
-14
-12
-14
-11
-10
-12
-12
-10
-10
-10
-13
-8
-7
-7
-8
-6
-4
-3
-2
1
5
10
8
11
18
20
21
24
31
35
39
39
42
46
49
48
52
56
56
56
56
59
55
51
51
47
43
37
34
31
28
18
14
12
9
4
2
2
5
2
-4
-3
-4
-7
-8
-9
-6
-5
-10
-9
-5
-4
-4
-6
0
3
1
-1
1
2
0
1
0
5
3
1
4
3
4
2
2
3
3
0
-1
3
1
0
-2
-2
-3
-4
-6
-9
-5
-9
-11
-8
-8
-11
-14
-12
-11
-15
-17
-13
-11
-12
-16
-16
-13
-12
-15
-16
-15
-13
-16
-18
-17
-15
-15
-18
-17
-14
-16
-20
-17
-15
-15
-17
-18
-16
-17
-19
-18
-17
-19
-24
-27
-27
-25
-24
-18
-13
-12
-17
-16
-15
-12
-17
-21
-18
-16
-18
-19
-20
-18
-18
-21
-20
-19
-17
-18
-19
-14
-15
-18
-21
-21
-18
-10
-2
24
74
131
186
235
247
195
170
-12
-74
-87
-72
-41
-14
-2
-10
-14
-12
-11
-14
-19
-17
-16
-20
-22
-18
-17
-16
-18
-17
-15
-14
-17
-16
-14
-13
-15
-15
-9
-10
-12
-11
-8
-6
-9
-8
-4
-2
-2
-4
1
5
6
5
11
13
15
13
23
26
31
30
36
39
44
41
43
44
45
46
47
50
52
52
48
50
50
46
43
42
39
36
35
27
24
18
12
9
7
3
0
-2
-2
-3
-9
-9
-8
-7
-10
-13
-11
-10
-12
-16
-14
-11
-12
-10
-13
-11
-11
-15
-15
-11
-11
-11
-11
-9
-9
-8
-8
-5
-3
-6
-8
-5
-4
-5
-7
-6
-1
-5
-7
-7
-5
-4
-9
-10
-8
-8
-10
-11
-9
-10
-13
-13
-13
-10
-13
-15
-16
-14
-16
-17
-18
-18
-19
-19
-21
-17
-18
-24
-21
-19
-20
-24
-24
-20
-20
-22
-25
-21
-19
-21
-24
-21
-18
-21
-23
-20
-17
-19
-20
-20
-17
-18
-22
-19
-17
-18
-23
-24
-24
-26
-30
-30
-22
-17
-17
-20
-19
-19
-19
-25
-23
-20
-23
-25
-27
-24
-23
-27
-27
-23
-25
-25
-26
-23
-21
-23
-25
-22
-21
-28
-33
-26
-16
-4
26
86
151
218
237
270
215
104
-10
-86
-100
-81
-54
-25
-13
-12
-19
-22
-19
-18
-22
-24
-24
-21
-23
-24
-23
-18
-21
-22
-22
-20
-19
-21
-20
-18
-17
-20
-21
-16
-15
-16
-17
-15
-12
-14
-14
-11
-5
-7
-8
-4
-1
1
0
4
10
10
10
14
20
23
23
24
32
36
38
39
41
46
45
43
47
51
49
45
46
47
43
42
36
33
27
23
18
14
10
4
0
-3
-2
-7
-12
-12
-12
-16
-18
-16
-14
-15
-18
-17
-16
-18
-17
-19
-15
-13
-16
-17
-13
-12
-14
-13
-10
-9
-10
-13
-7
-7
-12
-14
-12
-11
-11
-14
-11
-9
-11
-12
-13
-11
-13
-15
-15
-13
-10
-15
-16
-13
-13
-16
-18
-18
-19
-20
-22
-21
-18
-17
-23
-19
-19
-22
-23
-24
-21
-22
-25
-26
-24
-22
-25
-24
-23
-22
-24
-26
-22
-23
-24
-26
-24
-21
-22
-22
-22
-18
-21
-22
-21
-18
-17
-21
-20
-20
-21
-23
-25
-25
-26
-31
-28
-23
-18
-20
-21
-18
-14
-17
-22
-23
-22
-24
-24
-25
-22
-24
-26
-25
-23
-22
-23
-24
-22
-20
-23
-23
-22
-25
-25
-16
-4
31
86
152
220
267
252
238
36
-62
-97
-90
-63
-31
-14
-12
-15
-16
-15
-17
-18
-18
-16
-19
-21
-19
-15
-17
-19
-18
-16
-16
-18
-16
-14
-13
-16
-16
-13
-12
-12
-12
-10
-10
-8
-9
-7
-4
-3
-3
0
2
3
3
9
14
16
17
21
26
28
30
33
39
42
44
45
48
51
51
53
55
57
54
52
51
50
46
42
38
36
30
27
17
15
11
5
2
1
2
-5
-6
-4
-4
-8
-7
-2
-4
-6
-10
-8
-6
-5
-6
-6
-3
-4
-4
-3
1
1
-1
-3
1
0
0
-1
1
1
2
0
2
3
-1
-2
0
2
0
-1
0
3
0
-1
-8
-4
-5
-7
-6
-6
-5
-8
-9
-8
-8
-12
-13
-12
-11
-14
-14
-11
-10
-13
-16
-13
-11
-13
-14
-16
-13
-14
-15
-16
-15
-12
-16
-17
-13
-14
-16
-17
-12
-12
-11
-13
-11
-10
-12
-15
-13
-13
-15
-17
-23
-23
-23
-21
-17
-9
-7
-10
-12
-14
-12
-16
-17
-15
-14
-17
-19
-17
-16
-16
-18
-17
-16
-13
-12
-15
-12
-13
-18
-20
-14
-1
12
51
115
179
234
257
234
144
27
-53
-80
-64
-37
-10
-1
0
-7
-10
-7
-8
-11
-12
-12
-9
-9
-13
-14
-10
-8
-9
-10
-9
-9
-8
-10
-7
-4
-4
-8
-5
0
-4
-4
-3
-1
2
3
5
7
10
9
10
14
16
19
21
26
31
33
34
40
44
45
44
50
53
54
53
54
58
62
58
59
61
58
54
52
48
47
41
35
33
29
22
18
15
12
9
4
5
6
3
2
0
1
1
-5
-4
-1
-1
-3
-2
-2
0
-3
-4
-1
0
-1
-3
1
2
3
1
4
5
4
4
4
8
9
4
4
6
9
4
4
4
6
4
2
4
5
1
0
1
1
-2
-3
-4
-3
-4
-5
-6
-6
-6
-10
-12
-9
-9
-11
-12
-10
-10
-14
-13
-11
-11
-15
-16
-16
-15
-15
-20
-16
-15
-12
-13
-13
-8
-9
-13
-13
-10
-9
-12
-13
-14
-18
-21
-22
-18
-10
-9
-10
-11
-13
-17
-20
-18
-21
-20
-20
-20
-19
-20
-22
-20
-18
-17
-18
-16
-15
-16
-20
-25
-21
-10
1
29
86
155
228
274
266
188
52
9
-95
-78
-43
-17
-3
-5
-11
-14
-13
-12
-13
-15
-19
-17
-13
-15
-16
-16
-13
-12
-16
-12
-10
-10
-9
-11
-8
-7
-9
-9
-5
-3
-4
-4
0
2
-2
0
7
8
7
9
13
18
20
22
27
32
36
37
41
45
49
47
51
55
56
56
56
58
60
56
55
55
52
46
43
41
38
31
24
19
17
12
11
4
3
2
-4
-3
-3
-4
-7
-9
-7
-6
-8
-9
-7
-7
-7
-10
-8
-6
-5
-8
-6
-4
-3
-2
-5
-1
-1
-2
-3
-1
3
-1
-1
0
1
-1
-2
-1
-1
-2
-4
-3
-2
-6
-8
-6
-6
-6
-7
-7
-8
-7
-12
-10
-9
-12
-13
-14
-12
-13
-17
-17
-15
-16
-19
-20
-17
-16
-17
-22
-18
-15
-18
-20
-20
-17
-16
-19
-18
-17
-15
-18
-17
-15
-13
-15
-15
-13
-12
-13
-17
-19
-21
-24
-24
-20
-13
-14
-15
-16
-14
-19
-21
-20
-20
-19
-22
-25
-22
-21
-21
-24
-22
-21
-22
-24
-22
-16
-16
-20
-23
-24
-17
-14
5
45
105
172
243
277
247
139
7
-75
-94
-77
-48
-20
-9
-7
-13
-10
-9
-12
-16
-15
-13
-13
-15
-15
-14
-13
-16
-16
-13
-12
-13
-12
-10
-9
-13
-12
-7
-7
-8
-8
-6
-3
-3
-6
-2
0
0
-1
2
7
9
10
12
18
22
22
23
30
33
36
40
45
46
48
47
51
54
54
53
56
59
58
56
57
57
54
48
46
43
40
30
27
26
22
16
12
11
8
1
-1
0
-1
-5
-9
-6
-5
-8
-8
-7
-4
-6
-7
-5
-6
-4
-4
-5
-3
0
-4
-4
-4
2
1
0
1
1
0
-2
0
4
3
1
0
4
4
-1
0
1
1
-1
-2
-2
-4
-6
-7
-5
-4
-7
-10
-10
-11
-14
-15
-15
-10
-11
-13
-18
-17
-17
-19
-20
-17
-17
-20
-21
-18
-18
-19
-19
-17
-14
-16
-19
-17
-14
-14
-16
-14
-11
-14
-16
-14
-12
-12
-19
-21
-23
-26
-28
-22
-15
-12
-13
-15
-11
-10
-15
-20
-20
-19
-20
-21
-18
-17
-16
-17
-18
-16
-17
-19
-17
-14
-14
-17
-18
-20
-20
-13
-2
28
84
150
213
263
258
179
47
-56
-92
-78
-71
-21
-4
-7
-12
-11
-7
-9
-13
-15
-11
-12
-12
-15
-12
-11
-11
-12
-12
-9
-12
-14
-12
-7
-8
-9
-7
-5
-6
-10
-8
-6
-3
-5
-1
2
4
3
5
8
11
15
14
18
21
23
23
28
37
38
39
44
47
50
46
49
53
56
55
55
58
58
54
52
53
54
46
42
40
39
35
29
24
23
16
13
10
10
6
3
1
3
1
0
1
-1
-1
-3
-6
-4
-5
-6
-7
-3
-1
1
-3
-1
2
-1
-2
1
3
0
-1
0
5
6
3
3
5
5
3
3
5
5
3
2
2
1
2
-3
-1
1
-3
-5
-6
-7
-9
-10
-9
-7
-8
-11
-13
-9
-8
-12
-13
-12
-10
-15
-16
-13
-12
-15
-16
-14
-12
-14
-15
-15
-13
-14
-17
-16
-12
-12
-13
-14
-9
-11
-13
-13
-10
-11
-14
-17
-15
-18
-23
-27
-21
-14
-12
-13
-13
-10
-11
-17
-17
-16
-16
-21
-22
-18
-19
-23
-20
-19
-17
-18
-21
-17
-14
-17
-20
-17
-18
-21
-23
-9
5
34
81
149
216
262
255
189
70
-36
-87
-84
-56
-25
-5
-4
-5
-7
-7
-7
-8
-8
-9
-9
-11
-9
-7
-10
-9
-7
-5
-8
-7
-4
-3
-5
-6
0
-2
-4
-3
0
1
0
-2
3
6
5
5
8
10
11
10
14
18
26
22
25
31
34
34
35
42
45
45
45
52
54
57
55
59
60
63
63
61
64
63
58
56
57
52
47
43
39
37
29
24
22
19
13
10
9
7
4
0
2
3
0
-1
-2
1
-2
-4
-2
-1
0
-2
-1
0
0
1
0
2
4
2
1
3
6
6
3
7
7
8
6
6
8
8
4
3
7
7
4
4
4
6
1
1
3
4
-1
-3
-3
0
-5
-7
-5
-5
-4
-6
-8
-5
-7
-11
-12
-9
-8
-11
-12
-9
-11
-12
-14
-11
-9
-14
-14
-13
-12
-15
-20
-16
-13
-12
-14
-12
-10
-9
-12
-10
-8
-6
-12
-11
-10
-10
-13
-13
-10
-15
-20
-23
-20
-13
-9
-10
-9
-10
-9
-10
-11
-12
-12
-16
-16
-13
-14
-16
-16
-13
-13
-14
-16
-14
-12
-13
-13
-10
-9
-12
-17
-20
-17
-9
-6
24
71
133
197
262
293
274
192
74
-26
-84
-97
-77
-48
-19
-8
-5
-7
-9
-9
-11
-11
-9
-12
-13
-13
-13
-12
-14
-13
-12
-10
-13
-13
-10
-10
-12
-12
-8
-7
-8
-9
-7
-4
-5
-7
-4
-3
-4
-5
1
3
4
2
4
6
10
9
11
16
18
21
22
27
32
32
33
41
45
46
44
50
54
54
55
57
61
62
58
61
62
61
57
56
55
50
47
41
39
35
27
22
20
18
9
5
4
1
0
-1
-3
-3
-6
-7
-7
-6
-6
-9
-9
-6
-4
-7
-8
-2
-3
-3
-5
-4
0
-1
-4
0
1
2
0
2
3
3
0
0
3
4
0
0
3
2
1
0
1
-1
-4
-4
-2
0
-3
-7
-6
-6
-7
-9
-12
-10
-12
-15
-13
-11
-11
-14
-15
-15
-16
-18
-18
-18
-17
-18
-18
-17
-15
-19
-19
-18
-18
-18
-19
-22
-19
-17
-19
-17
-15
-15
-17
-16
-13
-13
-17
-19
-14
-15
-18
-19
-21
-23
-27
-29
-22
-14
-13
-14
-16
-15
-17
-18
-18
-16
-18
-20
-21
-17
-18
-20
-23
-17
-17
-21
-22
-18
-18
-18
-19
-18
-17
-22
-26
-17
-8
7
38
91
151
211
254
260
200
82
-30
-87
-91
-69
-42
-21
-9
-10
-11
-13
-10
-13
-16
-17
-17
-15
-13
-17
-16
-14
-12
-15
-15
-15
-13
-15
-14
-12
-13
-17
-16
-13
-11
-11
-13
-11
-8
-8
-7
-6
-4
-3
-3
-3
2
6
4
6
11
16
16
19
25
27
30
31
37
42
41
42
47
53
53
52
55
59
59
56
57
58
57
53
51
51
46
39
35
31
30
22
15
12
13
7
2
0
2
-1
-1
-4
-1
-1
-5
-7
-3
-2
-7
-7
-4
-5
-8
-8
-2
-1
-4
-4
0
2
-2
-3
-1
3
1
0
2
3
2
0
1
-1
1
-2
-3
-1
-2
-7
-8
-3
-6
-7
-10
-6
-7
-12
-16
-15
-10
-13
-15
-14
-13
-16
-20
-18
-18
-17
-21
-21
-17
-15
-20
-23
-19
-18
-22
-23
-19
-19
-22
-23
-19
-17
-18
-19
-20
-16
-16
-21
-21
-20
-20
-21
-22
-21
-26
-33
-34
-28
-23
-19
-18
-16
-14
-16
-21
-20
-21
-22
-24
-24
-23
-22
-24
-20
-19
-20
-23
-20
-19
-18
-19
-22
-20
-20
-26
-25
-13
-1
23
69
136
198
244
254
199
93
-14
-74
-83
-59
-28
-12
-8
-9
-13
-15
-12
-11
-14
-18
-19
-16
-15
-18
-16
-16
-17
-16
-17
-15
-12
-13
-15
-14
-13
-11
-13
-13
-9
-7
-12
-9
-4
-4
-6
-6
-1
0
2
2
7
12
16
15
19
25
28
29
34
37
41
41
44
47
52
50
48
53
55
52
52
52
53
50
42
44
39
35
33
26
24
17
11
5
6
5
0
-1
1
-2
-5
-5
-3
-4
-8
-9
-5
-3
-5
-6
-5
-1
-3
-4
-2
0
1
-3
0
3
2
1
1
2
3
1
0
3
4
2
1
4
2
0
-1
-1
1
-2
-4
-5
-5
-7
-13
-10
-10
-10
-13
-13
-14
-14
-15
-19
-18
-14
-19
-18
-16
-16
-18
-21
-20
-15
-18
-20
-20
-18
-19
-20
-21
-18
-17
-19
-18
-15
-13
-14
-17
-14
-14
-16
-15
-14
-14
-19
-22
-24
-23
-24
-23
-14
-11
-11
-15
-18
-15
-16
-19
-20
-18
-20
-21
-22
-18
-18
-19
-21
-20
-19
-19
-21
-19
-18
-18
-19
-25
-24
-15
-7
18
69
136
206
273
284
226
103
-21
-88
-91
-70
-37
-11
-1
-7
-12
-9
-7
-9
-11
-13
-11
-11
-15
-10
-10
-11
-11
-12
-9
-9
-10
-11
-7
-5
-9
-9
-6
-4
-4
-6
-1
0
2
1
3
6
7
7
13
16
21
21
24
29
31
34
39
42
48
48
49
54
58
58
58
59
62
62
61
61
60
58
51
47
44
38
31
28
25
18
14
10
9
6
1
1
1
1
-2
-3
-1
0
-3
-5
-2
-1
-3
-2
-2
2
1
1
0
4
5
4
2
6
6
5
3
5
7
5
5
6
9
6
6
3
5
5
1
1
3
2
-2
-3
-1
-1
-3
-4
-5
-3
-5
-8
-3
-3
-6
-9
-8
-9
-8
-10
-8
-9
-9
-12
-12
-9
-9
-12
-13
-11
-10
-12
-13
-11
-8
-12
-10
-9
-7
-7
-9
-7
-6
-8
-9
-8
-6
-8
-14
-17
-15
-16
-14
-8
-3
-2
-8
-6
-6
-7
-9
-10
-11
-11
-12
-12
-13
-9
-11
-13
-11
-10
-9
-12
-9
-8
-8
-10
-13
-15
-12
-5
11
44
103
169
240
297
280
192
54
-55
-93
-78
-70
-19
-1
5
-2
-4
-1
-1
-5
-8
-7
-5
-4
-6
-1
-4
-6
-7
-2
1
-3
-5
-3
0
-1
-2
1
4
4
3
7
8
10
9
8
12
14
15
14
20
23
24
26
30
36
37
39
46
51
54
55
57
60
63
62
63
67
68
66
67
71
70
66
62
61
57
51
46
43
38
32
25
24
22
14
12
10
10
8
3
5
6
7
1
1
4
4
3
2
3
6
5
5
4
10
8
7
9
12
13
13
11
12
14
9
13
13
15
12
11
13
14
10
12
14
14
8
7
7
8
4
2
4
4
5
4
2
2
0
-3
-2
-1
-2
-4
-4
-1
-2
-7
-6
-4
-3
-7
-8
-7
-5
-6
-9
-6
-5
-6
-8
-5
-6
-5
-7
-5
-1
-1
-5
-4
-3
-2
-8
-7
-1
-1
-5
-7
-7
-8
-15
-16
-13
-8
-3
-3
-1
1
-2
-6
-8
-7
-6
-9
-9
-6
-5
-8
-6
-6
-4
-7
-8
-7
-3
-4
-3
-1
-2
-8
-11
-1
12
38
91
164
232
274
253
165
46
-46
-76
-59
-24
1
9
6
4
4
1
0
1
2
0
-1
-1
1
2
0
0
2
0
0
2
3
5
4
2
7
8
7
6
9
12
11
10
12
17
18
18
21
24
28
30
33
38
43
43
45
52
54
55
56
61
62
64
64
69
70
68
70
71
71
66
65
59
59
56
47
43
39
36
28
24
25
22
15
15
16
14
10
9
11
11
8
6
8
7
10
9
8
13
13
10
11
13
15
12
15
17
19
18
15
16
19
18
17
18
20
18
14
16
17
16
14
14
16
15
12
12
14
12
8
7
11
9
7
4
8
7
3
0
2
2
2
-1
-1
2
-1
-3
-2
-1
-2
-3
-4
-1
0
-5
-4
-1
-1
-6
-6
-1
0
-4
-5
-1
1
1
-2
-2
0
-1
-1
-1
0
-3
-7
-9
-10
-11
-13
-11
-2
0
-4
-6
-3
-3
-6
-9
-5
-5
-7
-10
-7
-4
-5
-7
-4
-6
-5
-8
-5
-3
-2
-5
-5
-5
-9
-11
-3
9
35
80
146
214
267
275
224
108
-16
-81
-93
-55
-20
0
4
0
0
1
-1
-3
-2
-2
-5
-4
-2
-1
-3
-5
0
1
0
-1
1
1
2
2
4
6
7
5
6
9
10
8
9
13
15
13
14
16
19
18
21
27
30
32
34
39
43
46
45
49
52
54
55
57
61
64
62
65
69
70
68
67
69
66
62
59
57
53
47
43
40
35
29
26
22
20
16
11
10
10
7
5
4
6
7
6
4
8
8
5
4
6
8
2
4
8
8
6
5
8
11
9
6
10
11
12
8
8
13
11
9
8
10
9
7
6
9
10
8
4
5
7
4
1
2
3
1
-1
0
1
-3
-3
-5
-2
-5
-6
-7
-5
-7
-13
-12
-9
-8
-10
-14
-11
-9
-13
-13
-13
-11
-12
-14
-14
-12
-12
-13
-12
-11
-10
-10
-11
-8
-8
-10
-13
-8
-7
-10
-13
-14
-16
-19
-20
-17
-12
-6
-9
-9
-8
-9
-14
-13
-12
-12
-13
-15
-11
-11
-14
-13
-9
-11
-13
-14
-11
-9
-10
-11
-10
-8
-10
-16
-18
-11
-2
10
47
108
176
240
287
286
225
115
-9
-85
-96
-77
-49
-19
-3
-2
-3
-6
-3
-4
-9
-9
-9
-8
-11
-10
-7
-8
-11
-11
-6
-4
-9
-9
-6
-5
-5
-8
-5
-3
-4
-4
-3
-1
2
-1
2
2
4
4
4
8
11
9
10
14
19
19
18
24
28
29
30
36
41
42
41
44
50
52
52
54
57
59
58
59
60
63
61
59
61
58
53
50
48
45
39
33
30
26
22
19
14
14
10
6
2
2
2
-2
-3
0
-1
-5
-5
-5
-2
-3
-3
-3
-1
0
-4
-2
3
0
0
0
4
5
2
4
6
6
3
3
6
6
3
4
5
7
4
3
5
3
1
-3
0
2
2
1
-1
1
0
-5
-4
-4
-5
-8
-6
-6
-6
-7
-9
-8
-8
-9
-11
-11
-11
-14
-13
-12
-11
-14
-13
-14
-12
-12
-14
-15
-13
-13
-16
-15
-14
-15
-15
-15
-10
-9
-9
-13
-8
-10
-13
-14
-12
-10
-14
-17
-18
-17
-20
-23
-18
-11
-9
-10
-12
-8
-12
-16
-18
-18
-15
-16
-17
-14
-13
-17
-16
-14
-13
-13
-14
-16
-15
-16
-18
-17
-15
-20
-23
-16
-3
21
67
132
204
264
272
208
86
-33
-94
-89
-57
-25
-8
-4
-8
-7
-10
-10
-13
-10
-11
-12
-9
-7
-9
-14
-12
-9
-6
-8
-10
-6
-4
-5
-8
-5
-1
-2
-4
-1
2
2
1
3
7
8
7
9
13
15
18
21
25
28
30
33
39
42
45
45
52
53
56
56
63
66
66
66
67
72
73
72
70
68
69
65
65
65
57
48
43
42
39
32
28
25
26
21
19
17
18
18
13
12
13
13
13
12
14
16
15
13
16
16
14
16
18
19
17
16
21
26
25
23
23
24
25
23
26
29
29
25
24
28
28
25
25
25
25
22
19
22
24
24
23
22
22
21
19
19
22
21
16
15
16
18
15
17
18
16
15
12
14
16
16
14
17
15
16
14
16
16
17
16
17
19
18
16
19
22
24
22
21
23
23
22
22
24
25
19
15
13
15
14
16
23
25
24
22
22
23
23
22
19
23
21
20
21
24
20
17
20
24
24
24
25
26
27
28
24
24
21
27
29
59
109
178
250
306
308
239
101
-21
-51
-31
3
32
48
44
39
42
44
41
39
33
39
42
40
39
40
41
40
39
42
45
43
44
43
44
49
48
47
50
51
49
50
56
57
55
56
60
64
66
65
71
73
77
78
84
89
94
93
95
102
106
106
106
110
110
110
111
114
117
114
110
110
112
108
106
99
96
89
82
78
77
74
67
64
65
63
58
57
58
59
55
54
54
56
55
53
55
58
55
54
55
58
58
60
60
60
59
58
61
66
66
65
63
65
67
64
65
68
66
63
64
64
67
65
62
61
62
61
59
60
61
60
56
55
56
55
51
51
55
53
49
46
48
50
48
48
47
47
45
44
46
49
47
44
43
46
46
44
46
47
47
45
45
49
49
49
47
46
46
47
47
46
41
39
38
38
47
52
46
44
47
46
43
43
43
41
37
38
41
42
38
38
38
39
37
36
40
41
39
37
35
32
37
43
63
109
175
248
318
329
256
111
-16
-57
-35
-2
31
50
50
44
41
45
46
43
43
40
43
41
40
43
45
43
41
41
46
44
42
43
45
45
42
45
49
51
49
49
50
52
54
53
56
58
59
58
62
66
68
68
70
77
80
81
81
88
90
90
92
97
101
101
99
103
104
105
103
106
109
109
105
102
99
93
88
86
82
76
69
65
62
59
55
53
53
49
47
44
45
48
46
46
44
44
44
41
41
45
44
41
41
43
45
43
45
47
47
45
45
50
51
46
42
45
46
45
44
47
49
48
42
41
42
43
40
38
40
39
36
34
42
37
33
29
30
30
30
26
28
26
24
25
27
30
29
23
22
23
21
19
19
21
23
20
18
22
25
19
19
23
23
22
17
19
21
20
18
17
18
13
6
5
8
16
18
19
18
16
13
15
16
17
10
10
11
12
9
8
12
10
9
8
10
12
15
10
10
5
1
9
19
43
88
146
213
271
277
214
87
-24
-66
-61
-29
3
21
19
16
12
15
14
10
7
9
9
8
8
10
11
7
7
10
10
7
5
9
9
7
6
10
10
11
11
12
14
14
11
12
18
20
19
18
22
23
24
27
32
34
35
36
41
45
47
49
54
56
57
58
59
63
65
63
65
67
67
65
65
68
64
61
56
58
53
45
43
41
35
29
22
21
20
17
16
12
11
8
3
6
8
6
5
3
4
3
4
3
7
6
5
2
3
5
5
4
6
7
7
7
9
11
10
7
7
10
12
8
8
8
7
4
5
8
5
0
-2
1
1
0
-3
-1
-2
-5
-6
-7
-7
-7
-9
-12
-11
-12
-14
-13
-10
-13
-16
-18
-15
-15
-16
-18
-16
-17
-20
-24
-19
-17
-19
-21
-19
-16
-14
-17
-17
-16
-16
-18
-19
-17
-21
-24
-29
-27
-23
-19
-19
-16
-15
-17
-23
-25
-25
-27
-27
-29
-27
-29
-33
-29
-27
-28
-29
-30
-28
-27
-31
-30
-27
-26
-30
-34
-36
-31
-24
-11
27
87
152
171
261
251
166
35
-74
-113
-109
-81
-46
-21
-14
-19
-23
-21
-20
-22
-25
-23
-25
-26
-28
-24
-24
-26
-25
-22
-24
-22
-27
-27
-24
-21
-22
-21
-21
-19
-20
-20
-16
-15
-17
-16
-14
-12
-11
-12
-7
-4
-6
-5
0
7
7
8
11
14
19
17
23
28
29
31
30
33
35
36
36
41
41
38
37
38
39
36
35
32
28
23
16
15
12
6
0
-5
-6
-10
-15
-16
-16
-17
-24
-23
-23
-25
-27
-27
-24
-25
-26
-25
-27
-24
-22
-23
-22
-19
-20
-19
-20
-12
-13
-17
-18
-13
-15
-14
-14
-16
-16
-15
-19
-17
-15
-17
-18
-18
-16
-19
-22
-21
-18
-21
-25
-28
-26
-25
-28
-27
-27
-30
-31
-33
-32
-30
-31
-35
-34
-34
-34
-35
-35
-33
-37
-39
-37
-35
-35
-37
-36
-36
-37
-37
-36
-33
-34
-38
-38
-34
-34
-36
-38
-39
-43
-48
-50
-45
-37
-34
-33
-34
-37
-38
-41
-41
-39
-41
-45
-44
-41
-37
-41
-41
-39
-40
-41
-45
-39
-38
-37
-38
-40
-42
-46
-49
-38
-25
-3
43
109
178
235
243
184
60
-61
-127
-122
-89
-58
-37
-30
-32
-33
-32
-33
-34
-34
-34
-38
-39
-38
-38
-40
-38
-35
-34
-36
-34
-33
-31
-32
-31
-33
-31
-31
-31
-28
-27
-26
-26
-27
-26
-23
-24
-21
-17
-17
-16
-12
-6
-5
-5
-2
0
2
5
9
15
20
19
18
25
29
28
29
33
36
35
34
37
41
40
35
34
35
33
25
20
19
15
10
5
4
0
-7
-13
-13
-14
-16
-17
-19
-21
-19
-22
-21
-21
-23
-25
-23
-21
-20
-23
-20
-19
-19
-20
-21
-19
-18
-17
-20
-16
-15
-16
-17
-15
-14
-12
-15
-15
-15
-15
-15
-14
-14
-15
-19
-18
-16
-17
-20
-21
-20
-21
-23
-24
-22
-21
-25
-28
-28
-26
-26
-29
-28
-28
-30
-32
-32
-30
-28
-29
-32
-32
-32
-34
-35
-33
-30
-34
-35
-33
-31
-29
-30
-30
-30
-31
-31
-28
-28
-29
-31
-33
-31
-35
-37
-36
-36
-37
-36
-33
-26
-26
-29
-30
-30
-31
-33
-34
-34
-31
-29
-32
-32
-30
-30
-34
-29
-28
-30
-29
-31
-28
-29
-36
-39
-30
-21
-7
32
92
154
212
227
230
162
46
-50
-94
-93
-65
-36
-20
-14
-19
-24
-23
-20
-25
-27
-28
-23
-22
-26
-28
-25
-23
-25
-24
-24
-21
-22
-25
-27
-23
-25
-24
-23
-19
-20
-23
-22
-19
-17
-16
-15
-13
-10
-8
-7
-3
0
2
1
3
8
12
12
16
23
24
25
28
33
35
37
37
40
43
43
43
47
49
50
45
50
49
46
44
42
42
35
28
26
20
14
10
7
6
2
-3
-6
-4
-5
-8
-8
-8
-8
-12
-16
-12
-10
-11
-12
-12
-10
-8
-11
-11
-8
-7
-11
-11
-7
-5
-7
-4
-1
-1
-2
-3
0
1
1
-1
1
2
-2
-2
-1
1
0
-3
-5
-4
-4
-7
-7
-3
-6
-9
-11
-10
-9
-11
-14
-12
-12
-15
-19
-16
-13
-14
-16
-17
-17
-17
-21
-17
-18
-18
-21
-22
-19
-20
-20
-20
-16
-17
-19
-19
-18
-14
-17
-21
-19
-15
-18
-19
-17
-16
-18
-21
-28
-25
-27
-27
-23
-15
-13
-16
-19
-16
-17
-23
-23
-18
-20
-22
-26
-24
-25
-25
-26
-24
-21
-23
-23
-22
-20
-19
-18
-19
-18
-24
-32
-26
-15
-2
28
86
154
225
273
271
213
103
-16
-48
-108
-91
-58
-28
-10
-5
-10
-15
-14
-13
-14
-19
-18
-15
-17
-19
-19
-18
-13
-15
-17
-14
-14
-15
-17
-15
-10
-9
-12
-13
-11
-8
-10
-9
-5
-5
-6
-6
-2
-2
-3
0
4
5
5
8
10
16
18
21
23
27
26
28
33
39
42
42
44
48
50
51
51
56
57
55
53
57
55
54
51
52
51
43
41
35
32
26
22
19
17
10
6
3
2
0
-1
-3
-3
-3
-9
-10
-7
-4
-7
-8
-7
-4
-5
-7
-3
-3
-4
-5
-1
2
3
2
1
4
4
2
2
3
4
2
0
0
3
1
-2
2
3
1
0
0
2
1
-3
0
0
-3
-7
-2
-3
-6
-8
-11
-8
-10
-13
-12
-10
-11
-12
-15
-13
-12
-11
-12
-13
-11
-12
-16
-12
-13
-12
-13
-14
-11
-10
-10
-12
-9
-9
-12
-13
-9
-8
-14
-17
-18
-21
-20
-21
-10
-7
-9
-11
-11
-12
-14
-15
-17
-16
-18
-21
-18
-16
-16
-16
-19
-17
-15
-15
-17
-14
-13
-17
-19
-25
-23
-14
-3
27
83
155
226
283
274
194
55
-61
-111
-94
-63
-31
-6
-4
-9
-13
-9
-7
-10
-12
-12
-11
-12
-15
-13
-11
-10
-13
-15
-10
-10
-12
-9
-6
-6
-9
-9
-6
-5
-3
-5
-3
-2
0
-1
2
4
6
6
6
10
13
14
17
21
23
26
31
36
39
39
43
46
50
50
50
54
57
57
57
60
61
62
61
59
59
54
48
45
43
36
29
23
22
17
12
10
12
8
3
1
-1
-1
-1
-3
0
0
0
-4
-1
1
1
-2
-2
4
4
3
3
7
5
5
4
6
9
4
1
4
4
4
4
7
6
3
0
3
3
4
-1
-1
-2
-1
-4
-3
-2
-3
-8
-11
-10
-9
-10
-14
-11
-13
-15
-16
-14
-12
-12
-17
-17
-16
-14
-16
-15
-12
-13
-14
-16
-15
-12
-12
-15
-15
-12
-14
-15
-13
-12
-14
-15
-17
-19
-22
-27
-22
-14
-11
-12
-13
-12
-14
-19
-20
-17
-17
-18
-19
-15
-16
-16
-18
-16
-13
-14
-13
-13
-14
-17
-21
-21
-14
-3
9
56
126
195
250
261
216
107
-13
-75
-83
-59
-28
-9
0
-2
-7
-8
-7
-6
-7
-10
-10
-6
-8
-10
-9
-8
-7
-10
-8
-6
-6
-9
-8
-5
-5
-4
-7
-4
-2
-3
-2
0
3
1
-1
1
5
10
9
10
15
16
15
20
28
29
30
31
39
44
44
46
51
55
53
52
57
59
61
58
59
61
62
58
57
54
49
43
36
35
29
22
18
19
16
10
7
8
10
8
6
6
7
6
3
4
4
2
1
1
5
7
8
7
10
12
10
11
12
11
11
10
14
15
13
11
10
12
10
8
10
10
10
6
5
10
8
4
2
5
1
-1
-2
1
1
-2
-5
-4
-3
-4
-5
-7
-6
-7
-10
-9
-5
-5
-9
-9
-8
-6
-9
-7
-6
-4
-9
-8
-5
-3
-6
-7
-7
-4
-7
-8
-9
-9
-12
-18
-14
-7
-1
-3
-3
-2
-4
-10
-10
-6
-7
-12
-13
-9
-9
-10
-11
-9
-8
-10
-12
-7
-6
-3
-9
-12
-12
-10
-3
13
50
108
171
235
271
241
151
24
-67
-94
-81
-49
-13
6
6
3
-2
0
-2
-7
-6
-5
-6
-7
-6
-3
-3
-7
-5
-1
-3
-3
-5
-2
-1
0
-2
1
2
3
2
4
7
7
7
8
13
13
15
15
20
22
22
27
33
35
35
39
43
47
51
52
57
60
61
60
64
65
67
65
67
65
64
59
57
55
46
41
35
35
30
22
16
17
14
12
7
8
6
5
2
3
6
5
2
3
4
6
3
5
10
10
6
7
10
13
9
10
12
12
11
12
13
13
11
11
10
12
12
9
9
12
9
5
6
9
7
2
2
4
4
2
2
2
0
-1
-6
-1
-2
-3
-4
-5
-5
-5
-7
-4
-6
-6
-9
-9
-5
-5
-6
-6
-6
-4
-4
-4
-1
-2
-5
-6
-4
-3
-4
-5
-9
-12
-15
-16
-10
-1
1
-3
-5
-3
-5
-8
-8
-6
-9
-14
-13
-10
-8
-9
-10
-6
-9
-8
-8
-6
-4
-4
-9
-7
-12
-15
-9
0
18
58
117
187
263
299
277
179
47
-56
-103
-90
-57
-21
-2
2
1
-1
1
-3
-5
-2
-3
-5
-5
-3
-2
-3
-4
1
-1
0
-3
-1
2
0
-1
2
5
5
4
7
10
11
7
10
14
15
16
16
22
24
23
29
32
36
39
39
46
50
52
53
60
61
62
63
67
69
72
70
72
74
73
70
72
71
66
62
57
56
53
47
40
37
32
25
22
21
21
17
14
13
14
15
12
13
12
10
9
10
14
14
10
13
14
15
15
14
17
19
18
16
19
19
18
18
21
23
22
19
19
20
23
19
18
19
21
14
15
18
16
13
12
10
12
8
6
11
11
10
8
5
6
8
2
3
6
4
1
4
5
4
2
0
3
0
-2
-3
1
5
1
-1
1
2
2
1
5
7
4
2
3
4
4
3
2
4
3
-4
-5
-5
-6
-3
0
5
7
3
2
3
3
1
-2
0
1
-2
-2
-2
0
-1
-2
-3
2
0
-1
-1
3
4
0
0
-1
-3
-2
2
16
47
103
123
241
289
280
202
76
-33
-88
-85
-57
-23
2
12
8
7
7
7
7
6
5
2
2
0
3
3
4
3
4
4
3
5
8
7
5
5
6
6
7
8
13
12
9
9
12
15
16
15
20
24
25
24
31
33
35
36
43
45
48
54
55
61
61
60
62
70
73
71
70
72
76
75
77
78
77
72
70
65
65
59
51
47
43
39
33
31
34
29
22
19
20
19
13
16
18
16
14
11
13
13
15
15
13
15
17
15
17
19
20
18
18
23
22
20
20
23
25
22
17
20
20
22
21
22
21
18
19
18
18
16
13
11
13
13
9
9
11
6
4
5
6
6
3
1
3
4
1
-5
-1
3
1
0
2
3
2
-3
0
2
3
-3
-4
3
1
-3
-1
2
2
-1
1
1
2
0
1
0
1
-1
-3
-3
-3
-6
-11
-11
-11
-8
-4
-1
4
4
2
0
3
0
-5
-6
-6
-5
-8
-8
-4
-2
-3
-2
-2
-3
-4
-5
-4
-2
-1
-8
-10
-6
3
12
40
90
151
208
260
276
233
134
24
-48
-71
-60
-53
-3
10
11
3
2
5
5
1
-1
1
3
0
-2
-3
0
0
-1
2
2
2
0
3
4
5
4
5
5
5
2
6
10
13
9
8
13
15
14
16
22
24
23
26
32
37
38
38
44
50
50
52
58
61
62
61
63
66
68
68
68
73
71
68
66
68
65
59
56
52
49
44
38
34
32
25
23
19
18
16
13
14
13
10
9
7
9
9
8
7
8
8
8
6
11
13
9
7
9
9
9
9
12
14
14
12
15
18
17
18
15
15
16
14
13
17
16
13
10
11
11
11
8
8
9
8
6
5
4
5
4
3
2
0
-3
-3
-1
0
-4
-5
-2
-3
-6
-7
-5
-5
-7
-8
-6
-5
-5
-6
-6
-4
-1
-4
-2
-1
-3
-7
-5
-3
-5
-8
-11
-11
-14
-16
-14
-4
-2
0
-4
-3
-6
-8
-10
-9
-7
-9
-14
-12
-10
-10
-10
-11
-8
-9
-11
-10
-7
-6
-7
-11
-14
-14
-10
-2
23
70
131
151
255
286
260
173
48
-52
-97
-88
-55
-22
0
3
-2
-4
-3
-5
-9
-7
-6
-8
-9
-8
-6
-8
-8
-6
-4
-5
-9
-7
-4
-5
-5
-4
0
-1
-4
-2
0
3
1
2
3
4
4
1
8
11
13
13
16
19
21
21
27
31
33
33
37
41
43
44
48
55
54
53
56
59
60
60
61
64
64
61
59
57
60
55
50
48
45
39
32
30
29
24
16
13
13
12
8
6
7
4
0
-3
1
3
1
0
0
0
1
-3
0
2
1
0
-2
3
4
1
4
8
6
5
3
6
9
9
6
8
9
6
5
7
8
9
7
5
6
5
1
2
2
4
1
0
0
-2
-7
-7
-5
-7
-8
-10
-9
-9
-8
-9
-10
-10
-12
-15
-14
-11
-10
-12
-13
-11
-12
-15
-16
-10
-10
-12
-14
-11
-11
-13
-14
-9
-7
-10
-12
-9
-9
-9
-12
-9
-8
-13
-18
-19
-20
-20
-17
-11
-8
-10
-12
-13
-12
-12
-13
-17
-15
-18
-18
-21
-16
-15
-16
-18
-17
-15
-15
-15
-15
-14
-13
-17
-17
-19
-21
-19
-11
4
39
95
160
230
278
260
246
55
-52
-101
-101
-70
-36
-11
-5
-6
-8
-7
-10
-10
-10
-12
-12
-15
-12
-12
-11
-14
-10
-11
-12
-13
-11
-10
-9
-11
-11
-7
-8
-10
-7
-4
-3
-7
-7
-1
-2
-2
3
4
7
9
8
14
17
19
19
23
27
29
31
37
40
43
45
47
51
52
52
56
58
58
55
56
59
56
52
47
47
43
38
36
30
24
20
15
12
11
8
2
0
2
-1
-2
-3
0
-3
-6
-6
-3
-3
-2
-3
-2
0
-1
-1
0
3
3
1
2
3
7
4
5
8
6
4
3
5
5
4
2
2
3
2
0
1
2
-1
-2
-4
-2
-5
-8
-8
-7
-9
-11
-11
-11
-8
-11
-14
-11
-11
-13
-13
-11
-10
-14
-15
-14
-13
-12
-13
-13
-14
-15
-18
-18
-17
-13
-14
-15
-12
-10
-14
-11
-10
-11
-16
-14
-10
-12
-13
-14
-17
-22
-24
-23
-18
-10
-7
-13
-13
-12
-15
-18
-17
-13
-16
-20
-19
-18
-18
-18
-17
-14
-16
-18
-19
-16
-14
-15
-16
-18
-21
-24
-18
-6
18
65
130
203
261
264
181
37
-79
-105
-86
-52
-17
-5
-6
-12
-10
-7
-11
-13
-10
-12
-12
-15
-13
-11
-10
-13
-14
-12
-11
-12
-10
-6
-8
-7
-7
-4
-2
-3
-5
-1
1
2
2
6
8
12
11
14
18
23
24
26
32
36
39
43
50
48
49
51
57
60
57
56
61
63
59
57
58
57
51
45
41
40
35
25
21
19
14
11
8
9
8
1
3
6
8
6
2
6
6
4
2
6
8
6
6
8
10
11
9
9
12
10
10
11
15
13
9
10
13
13
13
11
12
14
9
7
10
10
5
4
4
5
5
3
3
1
-2
-3
-3
0
0
-3
-4
-2
-2
-4
-4
-2
-1
-3
-5
-6
-3
-5
-6
-5
-6
-6
-7
-8
-1
-2
-5
-6
0
0
-2
0
0
-4
-6
-6
-6
-6
-10
-12
-12
-6
0
2
1
1
-3
-3
-4
-2
-1
-6
-4
-2
-1
-4
-6
-3
-2
-3
-4
-1
0
-1
-2
-6
-7
-1
8
36
91
156
217
267
257
176
46
-47
-77
-61
-27
0
14
10
7
5
5
1
-1
-3
2
3
1
-1
1
4
5
0
-1
3
3
1
5
7
7
3
4
8
10
11
9
13
13
14
13
19
23
22
23
27
31
36
37
41
45
46
49
54
60
62
62
61
67
68
70
71
73
75
71
69
69
67
64
58
56
52
48
40
38
35
31
26
23
23
21
17
16
15
16
14
14
14
18
16
15
14
16
16
15
19
20
18
16
17
21
22
21
21
23
23
24
22
26
25
24
21
21
21
20
19
21
23
21
18
21
20
20
18
18
18
15
13
11
15
16
13
9
13
9
8
9
12
10
9
7
7
8
5
6
5
7
6
3
2
6
6
3
4
4
6
6
5
9
10
7
2
5
8
6
6
0
-3
-7
-3
3
10
10
4
4
5
3
1
0
0
-1
-2
-2
0
2
0
-2
0
3
2
2
0
0
-5
-6
5
21
55
119
192
265
294
251
130
-5
-79
-90
-57
-16
8
13
5
4
6
6
5
4
6
3
0
0
4
3
4
3
5
6
5
4
8
8
4
6
8
11
12
10
12
14
14
14
17
20
20
20
22
26
27
30
32
37
40
40
42
45
51
52
56
58
61
62
61
67
68
69
67
69
71
70
68
68
69
64
59
55
52
50
42
37
35
30
25
21
21
19
15
13
13
14
11
7
10
12
10
7
8
10
11
10
11
14
14
11
12
15
17
15
16
16
17
15
16
17
19
17
16
16
18
18
15
18
18
15
13
14
14
14
13
11
10
10
8
7
8
10
7
4
8
6
4
5
5
6
3
-1
-1
1
3
0
1
0
0
-3
-1
1
1
-1
-3
0
2
0
1
3
5
2
1
1
3
5
-1
0
-3
-5
-12
-9
-3
1
3
0
3
3
-1
-2
-2
-3
-8
-10
-4
-1
-3
-5
-8
-6
-7
-9
-3
-1
0
-3
-2
-3
-9
-10
-1
9
28
71
140
213
277
295
244
133
0
-80
-95
-68
-33
-8
3
6
3
5
2
3
0
0
-1
-3
0
1
3
2
1
1
1
0
4
4
3
2
5
4
6
5
7
9
9
6
7
12
14
15
14
16
20
17
18
25
27
29
29
32
37
40
41
47
50
54
52
55
60
62
61
63
65
66
64
67
70
70
66
67
65
62
59
54
54
51
45
41
34
32
27
22
24
22
17
13
11
11
11
10
7
11
10
5
6
7
8
8
8
12
10
9
9
12
16
16
14
14
16
13
13
16
20
19
15
14
17
17
14
14
14
13
12
11
12
14
12
10
10
9
6
5
5
6
3
2
1
2
3
3
2
6
4
1
-1
1
3
0
-2
2
2
-2
-2
-3
0
-2
-6
-3
1
0
-2
-2
0
-1
-3
-2
1
1
-2
-5
0
-2
-3
-3
-4
-7
-10
-10
-7
0
4
1
1
0
-4
-6
-6
-4
-3
-6
-6
-5
-4
-3
-5
-4
-2
-3
-5
-3
0
-1
-3
-8
-7
-1
5
27
69
128
187
246
273
250
163
39
-53
-84
-80
-52
-16
4
9
5
2
6
0
-1
-1
0
0
-3
-2
-1
0
-2
0
2
0
-1
-2
1
2
1
0
1
2
1
0
2
2
5
6
8
10
11
8
12
17
19
17
18
22
24
27
32
36
38
40
42
48
52
54
54
58
60
62
63
62
66
67
65
66
68
63
62
61
62
59
52
49
47
43
37
33
32
27
23
17
16
15
14
12
11
11
8
6
10
13
15
9
7
10
9
8
9
12
12
10
9
12
12
13
13
19
19
15
13
14
18
17
16
14
18
15
11
12
15
16
16
14
12
10
8
8
13
11
6
4
5
3
1
-1
3
2
2
1
-1
3
6
-1
0
2
1
-4
-5
-1
-2
-4
-7
-3
-2
-4
-5
-3
-3
-5
-6
-2
1
0
-4
-3
-2
-1
-2
-1
-1
-6
-15
-16
-14
-9
-4
-2
1
-1
-3
-6
-7
-4
-7
-9
-8
-7
-8
-10
-5
-3
-6
-6
-4
-1
-3
-4
-2
-2
-8
-15
-13
-1
11
40
95
158
217
255
261
178
68
-32
-73
-63
-32
-5
7
8
3
3
0
-1
0
2
-4
-3
-1
1
-2
-1
1
1
0
-1
0
4
1
0
3
5
4
2
3
8
9
6
7
10
9
10
11
16
18
18
18
23
26
29
31
35
38
40
40
44
50
52
51
52
58
59
58
62
65
65
64
62
64
66
62
58
60
57
51
49
44
40
34
28
24
23
18
15
15
17
15
9
8
8
8
6
6
8
10
6
6
8
10
11
11
9
12
11
10
12
15
13
12
12
17
16
15
14
19
18
14
13
15
15
15
12
15
12
12
10
9
11
9
6
5
6
4
1
2
2
2
-2
-5
-1
-1
-2
-4
-4
-4
-5
-8
-6
-5
-7
-8
-9
-7
-9
-12
-9
-7
-8
-11
-10
-8
-7
-9
-7
-4
-7
-10
-12
-7
-7
-8
-12
-13
-16
-19
-22
-14
-7
-6
-7
-8
-7
-9
-15
-10
-9
-11
-17
-17
-15
-15
-16
-17
-13
-13
-16
-16
-15
-11
-12
-13
-13
-14
-20
-20
-10
3
30
78
142
211
269
275
222
113
-11
-91
-102
-75
-43
-15
-6
-3
-4
-9
-10
-9
-11
-11
-13
-13
-10
-11
-14
-12
-9
-10
-11
-12
-10
-9
-11
-9
-5
-7
-8
-8
-6
-6
-4
-5
-2
0
1
0
2
6
7
7
6
12
13
16
19
25
26
26
29
33
38
40
42
47
47
47
45
51
54
58
55
54
57
56
53
52
55
51
45
41
40
34
27
25
22
19
14
8
7
5
2
-1
-1
-1
-4
-6
-6
-2
-3
-6
-7
-3
-3
-4
-2
0
0
-1
-1
1
1
3
0
3
3
4
4
6
8
7
3
4
4
5
2
3
6
4
1
1
2
1
-1
-1
-2
-2
-4
-7
-6
-4
-5
-7
-8
-10
-10
-12
-9
-9
-10
-14
-14
-14
-13
-15
-17
-12
-15
-15
-16
-14
-14
-15
-17
-15
-13
-13
-14
-11
-9
-12
-15
-14
-11
-10
-14
-16
-19
-22
-26
-21
-11
-9
-14
-13
-12
-14
-15
-18
-16
-18
-20
-21
-19
-17
-16
-19
-18
-15
-16
-18
-17
-13
-16
-24
-28
-17
-6
10
60
130
210
269
261
170
25
-82
-104
-85
-51
-21
-8
-5
-6
-8
-11
-12
-9
-12
-15
-13
-10
-11
-12
-11
-7
-9
-9
-11
-8
-4
-6
-7
-5
-6
-6
-6
-5
-4
-1
-5
-2
2
4
4
6
9
8
10
12
20
23
24
24
30
35
37
36
42
45
47
47
52
55
58
57
57
59
61
59
59
60
57
53
51
49
45
41
35
33
28
22
20
18
16
14
8
8
8
5
2
3
4
6
3
2
7
6
7
5
6
4
5
4
9
10
9
7
8
11
11
9
12
13
12
9
11
14
15
11
10
10
12
10
8
11
10
8
5
6
8
4
4
1
3
3
-2
-5
-1
-1
-5
-7
-4
-6
-8
-8
-4
-4
-8
-7
-3
-3
-6
-10
-6
-6
-3
-4
-2
0
-1
-4
-9
-4
-2
-5
-4
-6
-11
-15
-15
-7
0
-1
-5
-4
-4
-4
-7
-9
-11
-11
-10
-5
-3
-9
-10
-6
-3
-2
-6
-5
-3
-7
-15
-6
8
31
78
151
225
265
242
135
-1
-82
-83
-76
-12
6
7
0
-1
3
1
-4
-5
1
-1
-5
-2
3
2
-1
0
2
1
-1
1
2
4
1
0
6
8
10
7
10
11
10
9
11
16
18
18
20
26
30
29
32
37
40
41
43
48
52
51
52
58
63
63
63
65
66
68
64
63
65
64
61
58
59
53
48
45
43
39
32
26
27
24
22
19
17
17
12
11
14
16
16
12
13
13
11
11
11
17
16
14
15
19
19
17
16
17
18
19
18
21
24
20
17
18
20
22
21
21
21
19
15
15
20
19
15
12
14
14
12
10
11
8
7
6
7
6
5
2
3
7
4
1
1
5
2
-1
1
3
4
2
2
3
6
7
5
6
7
3
1
3
7
5
-1
-5
-4
-6
-6
2
9
10
5
3
5
5
4
0
-2
-2
0
-2
1
2
2
1
0
3
3
4
5
3
-2
-3
9
25
59
112
170
229
263
256
181
74
-20
-66
-65
-34
-2
15
17
15
13
14
10
9
11
10
8
6
10
6
7
9
13
11
7
8
10
11
12
11
12
11
14
13
15
16
18
15
15
20
19
20
21
25
26
25
30
34
37
38
40
47
49
50
51
59
62
61
61
62
65
67
69
71
74
72
70
72
72
70
67
63
62
58
52
48
46
41
36
32
29
29
25
24
22
20
20
17
15
17
20
17
16
20
17
17
18
22
21
18
18
23
25
21
21
24
27
25
24
25
27
28
24
25
26
26
24
24
25
24
20
18
21
21
18
13
16
18
13
11
14
14
11
9
10
12
10
7
8
9
6
4
5
7
6
2
4
5
7
5
8
7
7
7
4
8
10
7
4
4
3
0
-4
-4
0
7
8
8
9
10
3
1
4
2
-1
-1
0
1
-2
-3
0
3
2
0
2
4
1
-1
-3
-4
-1
6
21
65
130
202
266
291
254
159
31
-63
-92
-81
-51
-18
3
10
10
6
7
7
3
1
2
2
-1
0
3
4
0
1
4
5
3
4
6
7
5
4
8
9
9
7
9
10
12
10
10
14
17
15
15
19
20
20
23
28
29
29
31
37
36
39
43
48
50
52
51
54
58
60
61
64
68
69
66
67
71
73
69
69
66
64
60
59
56
48
43
39
36
32
28
26
22
20
16
12
13
14
11
9
9
13
10
9
9
11
11
7
7
12
13
12
11
15
13
14
14
15
17
17
14
17
17
17
15
17
18
17
13
14
14
15
13
11
15
11
7
7
7
8
8
5
5
5
3
1
2
5
2
-2
-2
0
-1
-1
-2
1
-1
-3
-7
-4
-2
-4
-5
-4
-4
-4
-4
-3
0
-2
-3
-2
-1
-4
-4
-4
-2
-3
-10
-12
-14
-12
-11
-4
1
0
-4
-6
-4
-5
-7
-7
-8
-8
-10
-11
-12
-9
-7
-11
-9
-8
-6
-7
-5
-3
-3
-8
-11
-12
-10
-6
5
30
74
133
151
256
281
249
155
33
-59
-101
-93
-65
-28
-6
4
2
0
-3
-4
-4
-4
-2
-5
-9
-7
-5
-5
-6
-4
-2
-5
-5
-6
-3
-2
-3
-2
2
1
0
-1
2
4
3
4
6
6
5
7
12
13
14
14
14
17
19
19
23
28
30
29
33
37
41
42
45
47
50
51
51
53
55
56
59
62
60
61
59
58
60
56
50
49
46
42
37
35
31
26
17
14
15
14
10
8
7
6
3
0
4
6
2
1
-2
-1
2
0
1
2
3
2
2
6
5
5
7
12
12
9
9
11
11
13
7
9
9
9
9
9
11
8
5
5
6
6
3
2
4
4
-1
-1
2
0
-3
-4
-2
-3
-6
-9
-5
-3
-7
-9
-7
-7
-5
-8
-9
-7
-8
-11
-11
-7
-5
-6
-7
-6
-7
-8
-9
-5
-5
-10
-12
-13
-15
-19
-20
-14
-7
-3
-8
-9
-6
-7
-10
-11
-9
-13
-16
-14
-10
-14
-16
-17
-14
-12
-12
-14
-11
-10
-10
-10
-15
-18
-15
-7
10
51
112
173
236
259
228
132
9
-75
-103
-94
-63
-28
-9
-2
-5
-6
-4
-6
-5
-10
-10
-10
-12
-9
-6
-5
-8
-8
-6
-7
-11
-11
-7
-5
-8
-8
-4
-3
-2
-4
1
1
0
-1
1
5
6
6
6
11
12
10
15
19
21
20
22
28
30
34
35
43
44
46
44
49
53
55
54
56
60
62
58
58
61
59
54
52
52
49
43
40
35
29
23
22
20
18
15
11
10
9
6
5
8
9
7
3
3
6
6
6
7
9
9
5
4
7
12
11
9
12
12
8
7
13
18
15
15
12
12
11
11
12
14
12
9
8
9
11
8
9
11
9
8
3
6
5
1
-1
1
1
2
1
0
2
-1
-2
-4
-1
1
-2
-5
-4
-4
-5
-4
3
2
-1
-2
-1
0
-3
-1
-1
1
-1
-5
-5
-4
-8
-12
-10
-4
1
2
2
4
1
-2
-2
0
-3
-6
-5
-2
-1
-4
-4
0
2
2
0
0
1
-1
-5
-7
1
10
21
53
112
175
232
262
242
155
34
-46
-70
-55
-24
1
15
19
13
11
13
15
10
6
6
10
10
9
10
13
13
8
9
12
14
12
12
15
14
12
12
16
19
18
19
18
21
22
22
24
27
26
27
28
33
36
38
39
44
46
48
51
58
60
62
62
67
69
73
71
77
80
79
78
79
82
84
81
80
79
77
73
71
72
68
60
57
54
51
45
42
43
38
36
33
33
33
33
30
31
34
33
30
29
33
33
33
33
35
35
33
35
38
39
41
38
39
42
40
39
44
45
45
43
44
44
45
44
43
44
43
40
41
42
43
40
35
37
35
32
30
33
34
31
29
28
29
30
27
27
27
28
23
24
27
27
26
24
28
25
25
23
26
27
27
24
28
27
26
24
27
28
27
22
19
20
15
15
16
25
29
26
24
28
27
24
22
23
21
19
18
21
22
19
18
20
21
22
20
23
23
22
16
14
11
15
20
27
62
123
190
261
308
281
182
51
-45
-78
-62
-54
10
31
35
29
26
31
30
27
24
23
24
23
21
25
27
26
25
28
27
26
25
29
29
28
26
29
32
32
31
33
34
35
33
34
38
41
40
39
43
45
45
45
52
56
55
55
60
64
68
67
72
74
77
76
79
84
86
85
87
89
90
90
88
91
92
87
85
83
80
75
72
68
66
59
56
51
49
49
41
40
40
37
34
36
36
37
33
33
34
37
35
35
38
40
36
35
37
42
41
39
43
43
44
41
41
45
45
42
40
43
43
40
39
40
42
39
36
38
39
35
33
35
34
31
31
29
31
29
26
26
28
25
25
23
24
24
22
21
23
24
19
19
21
23
24
21
24
24
21
19
21
25
22
17
17
14
12
11
15
22
23
19
17
22
19
15
12
16
14
13
12
14
14
13
11
13
16
16
15
13
11
6
6
13
25
53
104
175
251
292
271
165
25
-67
-89
-61
-18
11
20
21
15
16
17
14
11
12
13
8
8
14
13
13
11
16
14
12
13
16
18
18
15
17
22
21
21
21
23
24
21
24
29
28
27
28
31
35
34
37
45
44
45
46
51
54
56
57
60
64
65
63
69
71
75
73
73
75
75
72
73
76
73
67
62
61
59
52
47
44
40
33
29
28
29
24
22
20
20
21
19
20
20
18
16
16
19
20
19
19
21
22
22
21
24
26
24
21
23
26
25
26
23
24
24
22
24
25
21
19
18
20
19
16
15
15
15
13
12
13
13
10
6
6
6
5
6
5
6
5
1
1
3
2
-2
-4
0
0
1
-2
1
0
0
-1
1
1
0
-2
-3
-2
-7
-8
-13
-11
-6
-3
0
5
3
-4
-8
-7
-7
-9
-10
-7
-8
-8
-8
-7
-4
-6
-7
-7
-6
-7
-8
-16
-13
-5
4
42
103
170
231
257
221
119
-5
-86
-103
-78
-49
-18
2
2
-5
-8
-4
-3
-8
-10
-8
-7
-5
-8
-9
-6
-7
-8
-8
-3
-4
-6
-9
-1
-1
-3
-2
-1
-2
-4
-4
-1
3
5
3
4
7
7
6
11
16
17
16
18
23
26
28
30
33
37
34
35
42
46
48
48
51
54
53
52
55
54
52
48
48
46
40
36
32
28
24
18
14
14
10
4
4
4
3
0
-3
-1
-1
-4
-6
-3
-1
-2
-5
0
1
-1
0
0
1
2
-1
0
0
3
1
0
2
2
1
0
2
0
0
-1
-3
-1
1
-2
-6
-4
-6
-10
-11
-8
-10
-14
-15
-9
-12
-13
-16
-14
-17
-19
-23
-19
-18
-21
-24
-21
-18
-22
-22
-20
-19
-19
-21
-21
-17
-17
-20
-22
-21
-22
-24
-24
-23
-27
-34
-38
-33
-29
-25
-23
-20
-18
-22
-26
-27
-22
-22
-26
-30
-30
-27
-30
-28
-25
-25
-23
-28
-24
-25
-23
-23
-24
-32
-34
-33
-16
5
51
108
174
226
237
187
86
-22
-90
-109
-91
-57
-27
-14
-17
-20
-21
-22
-24
-26
-25
-23
-24
-27
-25
-28
-31
-30
-26
-24
-28
-29
-25
-22
-22
-23
-20
-20
-23
-23
-21
-18
-17
-19
-16
-14
-13
-14
-9
-5
-7
-6
-4
0
4
4
7
13
15
14
19
23
27
26
25
29
30
29
30
35
39
37
37
35
37
35
32
28
26
21
14
11
9
3
-2
-5
-6
-9
-12
-15
-13
-13
-17
-20
-16
-12
-15
-17
-17
-17
-14
-16
-13
-11
-13
-15
-14
-9
-8
-10
-12
-10
-8
-10
-8
-8
-7
-9
-13
-11
-10
-9
-11
-14
-13
-15
-17
-16
-15
-17
-22
-22
-19
-20
-22
-21
-21
-23
-25
-27
-25
-23
-25
-30
-28
-26
-28
-29
-29
-26
-27
-30
-31
-26
-26
-27
-29
-24
-26
-29
-28
-26
-25
-28
-31
-31
-34
-38
-41
-35
-26
-25
-25
-27
-26
-26
-30
-30
-29
-32
-37
-36
-32
-32
-34
-35
-31
-32
-33
-35
-32
-28
-30
-33
-32
-36
-38
-39
-21
-1
42
99
164
228
252
203
95
-28
-108
-124
-97
-57
-28
-21
-21
-24
-26
-26
-27
-26
-26
-28
-29
-30
-27
-26
-27
-26
-25
-23
-28
-27
-23
-22
-22
-25
-21
-21
-24
-21
-20
-14
-16
-20
-16
-15
-13
-13
-10
-8
-7
-6
-4
1
3
4
6
9
12
13
16
20
25
24
26
28
33
33
33
35
40
40
37
39
42
39
37
35
37
34
27
26
27
23
16
12
10
5
-1
-4
-5
-5
-7
-14
-14
-13
-15
-15
-17
-14
-17
-18
-16
-15
-13
-16
-15
-12
-12
-13
-10
-7
-6
-4
-7
-6
-3
-5
-7
-3
0
-2
-4
-6
-4
-3
-6
-3
-3
-3
-7
-7
-5
-5
-9
-8
-11
-10
-15
-15
-12
-12
-14
-15
-15
-14
-15
-16
-15
-15
-16
-20
-20
-19
-18
-21
-19
-18
-19
-24
-23
-20
-19
-19
-21
-19
-19
-20
-22
-17
-18
-18
-19
-18
-17
-17
-20
-22
-23
-26
-33
-31
-24
-17
-16
-16
-15
-14
-18
-22
-21
-20
-22
-23
-23
-23
-23
-25
-24
-20
-20
-21
-22
-19
-20
-22
-21
-19
-21
-29
-26
-18
-11
12
61
126
193
253
269
230
135
12
-24
-113
-104
-78
-50
-24
-10
-9
-13
-14
-12
-15
-20
-21
-14
-15
-16
-19
-16
-17
-20
-20
-17
-14
-16
-17
-17
-13
-15
-15
-12
-10
-10
-11
-12
-6
-5
-6
-5
-2
-2
-3
-2
0
3
5
5
9
10
15
15
21
25
28
27
29
34
36
38
41
45
48
44
46
50
52
51
52
55
56
52
48
49
50
46
44
37
32
27
20
20
18
12
6
5
3
2
1
-1
1
-1
-6
-5
-3
0
-2
-2
-3
-1
-1
-2
1
2
2
-1
2
4
3
3
5
10
8
4
5
7
9
5
5
6
7
6
3
6
6
3
2
0
2
0
-1
-1
0
-4
-6
-5
-5
-4
-7
-9
-6
-8
-8
-10
-9
-8
-13
-15
-12
-9
-14
-15
-12
-13
-12
-14
-14
-11
-8
-13
-11
-11
-9
-13
-13
-7
-9
-13
-14
-12
-13
-15
-18
-21
-22
-19
-18
-12
-10
-9
-13
-13
-13
-15
-22
-21
-19
-19
-18
-19
-15
-15
-16
-17
-16
-16
-16
-18
-16
-16
-20
-24
-20
-14
-1
32
94
166
234
267
245
158
26
-80
-112
-93
-63
-34
-17
-9
-8
-11
-12
-9
-11
-13
-16
-14
-13
-11
-13
-11
-9
-11
-14
-12
-9
-10
-9
-12
-11
-8
-7
-8
-7
-5
-6
-9
-4
-2
0
-1
1
3
2
3
6
11
15
13
14
17
19
21
26
31
34
36
37
43
44
45
46
50
54
53
52
54
57
58
57
54
55
52
48
45
42
39
31
26
24
21
16
11
7
6
3
-1
2
5
4
3
0
1
1
-2
1
1
0
-3
-3
4
5
5
3
6
6
4
5
6
8
5
3
7
7
7
6
6
7
5
1
1
4
2
0
1
2
1
-2
-4
-2
-3
-8
-10
-6
-7
-6
-11
-11
-11
-10
-11
-10
-8
-9
-14
-13
-11
-10
-13
-14
-15
-17
-17
-17
-10
-11
-12
-13
-9
-8
-10
-14
-11
-10
-12
-13
-13
-15
-17
-22
-23
-16
-11
-10
-10
-7
-10
-13
-14
-11
-13
-15
-17
-14
-14
-15
-18
-13
-13
-12
-13
-13
-11
-12
-13
-14
-16
-15
-9
2
40
98
160
222
253
216
119
5
-70
-87
-71
-42
-15
-1
-3
-6
-7
-5
-8
-12
-11
-9
-9
-10
-11
-9
-9
-9
-11
-10
-10
-10
-10
-9
-8
-8
-7
-5
-4
-6
-6
-3
0
0
-2
-1
3
4
2
6
10
12
12
12
18
23
25
26
34
35
37
37
43
44
48
46
48
51
53
53
54
56
54
52
50
52
50
44
41
38
31
26
23
23
21
14
8
7
9
5
3
1
4
2
-1
-1
1
-1
-2
-2
2
0
0
-1
1
4
2
2
5
7
4
4
7
11
8
7
7
7
11
8
9
8
5
5
5
7
7
3
2
1
1
-2
-3
-1
-1
-6
-9
-7
-7
-8
-10
-10
-8
-11
-14
-14
-10
-10
-12
-14
-11
-14
-16
-15
-12
-12
-16
-16
-15
-13
-13
-17
-14
-13
-12
-12
-14
-10
-11
-16
-15
-13
-12
-18
-19
-20
-21
-26
-25
-18
-14
-11
-14
-12
-15
-17
-20
-19
-18
-19
-18
-22
-20
-19
-21
-19
-17
-19
-22
-23
-18
-18
-19
-21
-24
-24
-15
-9
18
69
127
189
236
243
189
163
-24
-91
-100
-78
-43
-15
-5
-9
-11
-10
-9
-13
-17
-13
-14
-14
-15
-13
-13
-14
-17
-13
-11
-12
-13
-13
-10
-9
-11
-10
-6
-6
-10
-9
-6
-8
-7
-6
-3
-1
-1
-3
4
9
8
9
14
16
17
18
24
27
29
28
30
34
39
38
39
44
45
45
46
51
55
50
48
52
50
44
41
36
36
27
24
17
17
12
4
4
1
-2
-6
-7
-3
-4
-8
-11
-9
-9
-9
-9
-7
-6
-7
-8
-4
1
-1
-2
-2
0
2
2
0
3
2
0
0
3
4
2
0
1
3
-2
-5
-3
-3
-3
-9
-8
-5
-6
-8
-8
-9
-12
-14
-15
-11
-12
-14
-15
-13
-13
-15
-16
-15
-15
-19
-21
-17
-17
-16
-20
-18
-18
-19
-19
-17
-19
-17
-19
-19
-16
-16
-18
-19
-17
-17
-20
-21
-20
-21
-27
-32
-26
-20
-17
-18
-15
-16
-17
-19
-22
-20
-23
-26
-26
-22
-23
-25
-24
-19
-19
-24
-24
-19
-20
-21
-25
-27
-26
-22
-10
22
79
147
167
249
234
145
22
-74
-105
-91
-62
-30
-12
-10
-16
-19
-15
-18
-21
-23
-20
-18
-19
-24
-20
-20
-19
-21
-18
-16
-17
-19
-19
-15
-14
-16
-16
-13
-12
-14
-14
-11
-8
-8
-10
-8
-5
-4
-5
0
3
5
6
10
14
18
19
21
24
27
26
29
35
38
38
38
43
45
44
45
47
46
46
39
43
41
36
32
26
23
18
10
8
6
3
-4
-6
-6
-6
-9
-12
-10
-8
-10
-9
-10
-9
-9
-12
-9
-6
-6
-7
-7
-5
-3
-6
-5
-2
-3
-4
-5
-1
1
-1
-4
-1
-1
-3
-8
-4
-3
-7
-10
-8
-7
-7
-10
-11
-11
-13
-14
-16
-14
-15
-18
-19
-18
-16
-19
-22
-19
-20
-20
-23
-19
-21
-21
-23
-21
-21
-20
-22
-24
-20
-19
-23
-22
-17
-18
-22
-23
-20
-18
-19
-22
-21
-26
-28
-31
-27
-20
-19
-20
-19
-19
-20
-21
-25
-23
-26
-30
-28
-23
-22
-26
-27
-23
-25
-25
-23
-21
-20
-24
-26
-30
-29
-23
-16
0
44
111
132
250
271
220
107
-19
-97
-115
-93
-54
-28
-14
-15
-20
-17
-17
-21
-23
-22
-20
-23
-25
-19
-16
-20
-21
-21
-18
-16
-17
-18
-15
-15
-19
-18
-12
-11
-13
-14
-10
-9
-9
-9
-3
-3
-4
-3
2
7
11
10
14
17
21
21
28
32
33
32
34
41
44
44
43
46
49
47
45
48
50
44
41
40
38
33
30
24
17
14
8
5
5
2
-3
-5
-4
-6
-8
-7
-4
-5
-10
-10
-9
-6
-6
-9
-7
-6
-6
-5
-5
-4
-3
-6
-3
-3
-1
-2
-1
-1
-2
-2
-3
-3
-2
-5
-6
-2
-2
-5
-7
-5
-5
-6
-8
-10
-9
-8
-12
-11
-11
-12
-17
-17
-13
-14
-17
-19
-16
-18
-20
-19
-18
-18
-23
-23
-22
-20
-22
-22
-23
-24
-22
-26
-25
-21
-21
-24
-25
-22
-22
-22
-19
-15
-16
-20
-21
-22
-20
-21
-23
-25
-26
-31
-30
-27
-17
-17
-18
-18
-18
-20
-23
-22
-20
-20
-24
-26
-23
-22
-23
-23
-20
-20
-21
-25
-21
-22
-23
-24
-22
-20
-24
-28
-23
-15
-6
24
76
137
200
243
241
176
57
-53
-101
-97
-68
-35
-12
-5
-10
-15
-16
-16
-17
-18
-18
-18
-18
-17
-19
-18
-15
-17
-19
-17
-16
-15
-17
-17
-13
-14
-14
-13
-9
-7
-6
-7
-8
-6
-6
-6
-2
0
3
3
5
10
12
12
15
23
27
26
30
33
39
38
38
43
48
48
49
49
51
51
48
49
48
43
38
35
32
31
25
17
17
13
6
4
3
0
-3
-7
-3
-5
-6
-7
-9
-8
-7
-11
-9
-9
-8
-10
-11
-6
-3
-6
-5
-2
-1
-2
-3
-1
2
-2
-3
-1
4
1
0
-1
-1
-2
-5
-6
-2
-5
-6
-8
-6
-6
-7
-9
-7
-9
-10
-13
-11
-9
-11
-14
-13
-16
-16
-18
-18
-15
-17
-19
-22
-18
-19
-22
-22
-18
-19
-22
-23
-20
-21
-22
-21
-18
-19
-21
-23
-22
-18
-18
-18
-17
-14
-16
-20
-19
-18
-17
-18
-18
-18
-20
-24
-28
-28
-27
-26
-23
-16
-14
-17
-21
-17
-18
-20
-22
-24
-23
-23
-26
-23
-21
-21
-23
-24
-22
-21
-19
-22
-20
-19
-20
-24
-25
-26
-22
-14
2
36
95
114
217
254
233
155
34
-63
-108
-98
-63
-30
-13
-12
-16
-16
-13
-15
-17
-16
-16
-20
-21
-16
-13
-18
-19
-16
-14
-15
-18
-15
-13
-13
-15
-16
-13
-11
-11
-11
-11
-9
-13
-13
-11
-5
-6
-8
-2
2
2
2
6
11
10
12
15
20
25
27
27
32
34
33
36
42
43
42
45
43
47
45
43
46
49
46
44
40
41
37
31
31
28
22
12
10
8
4
-1
-2
-2
-2
-8
-10
-12
-9
-8
-11
-11
-11
-13
-14
-15
-12
-10
-15
-14
-11
-8
-14
-11
-7
-7
-8
-9
-7
-5
-7
-6
-6
-4
-6
-8
-5
0
-1
-2
-4
-3
-6
-8
-7
-6
-6
-9
-10
-7
-8
-13
-12
-10
-10
-15
-15
-14
-14
-17
-20
-15
-15
-18
-20
-20
-19
-19
-21
-20
-20
-20
-26
-25
-23
-22
-25
-26
-25
-24
-26
-27
-24
-21
-22
-26
-24
-21
-22
-22
-18
-17
-17
-20
-21
-18
-18
-20
-20
-17
-24
-29
-30
-30
-26
-20
-18
-16
-15
-17
-23
-22
-19
-21
-23
-25
-23
-24
-26
-25
-21
-23
-24
-25
-21
-22
-22
-22
-20
-23
-29
-33
-27
-15
-1
35
96
160
225
243
257
190
63
-53
-110
-105
-76
-45
-19
-9
-14
-20
-19
-17
-16
-19
-22
-20
-19
-21
-23
-18
-15
-17
-19
-18
-19
-17
-16
-15
-15
-12
-16
-16
-12
-10
-11
-10
-8
-7
-7
-4
0
2
1
0
6
11
11
12
16
21
23
21
26
31
35
36
37
40
42
39
44
47
48
45
48
47
49
48
43
42
41
36
35
28
25
19
12
11
6
3
-2
-4
-2
-4
-8
-11
-10
-9
-11
-10
-11
-8
-11
-13
-10
-9
-11
-12
-9
-8
-8
-9
-8
-4
-4
-4
-5
-5
-3
-3
-4
0
-1
-3
-6
-4
-4
-4
-8
-6
-5
-7
-7
-8
-5
-6
-12
-12
-12
-14
-16
-18
-17
-18
-20
-20
-16
-18
-20
-21
-22
-21
-21
-25
-19
-18
-20
-21
-23
-21
-22
-26
-24
-20
-23
-24
-24
-24
-24
-26
-24
-22
-21
-22
-23
-21
-18
-19
-22
-19
-18
-20
-22
-24
-26
-31
-34
-33
-25
-19
-20
-21
-21
-23
-25
-27
-26
-25
-27
-28
-25
-25
-27
-28
-25
-23
-25
-26
-25
-23
-23
-25
-27
-31
-27
-20
-4
41
109
178
239
261
207
88
-36
-107
-108
-85
-56
-26
-12
-15
-16
-17
-16
-21
-25
-21
-18
-22
-22
-22
-20
-21
-21
-20
-18
-17
-21
-19
-15
-13
-15
-17
-13
-12
-12
-11
-10
-8
-8
-10
-10
-7
-3
-1
1
3
7
7
12
16
20
19
21
24
30
32
34
40
42
42
41
46
48
50
46
47
47
47
41
39
39
35
29
24
22
18
11
8
7
3
-2
-5
-5
-1
-6
-8
-11
-9
-8
-10
-9
-9
-5
-10
-11
-7
-7
-7
-7
-4
-4
-6
-5
0
0
-4
-4
-1
1
-1
0
0
2
-1
-4
-4
0
-1
-4
-6
-4
-4
-4
-4
-3
-5
-12
-15
-13
-12
-10
-13
-12
-13
-13
-14
-16
-15
-16
-17
-19
-15
-14
-17
-19
-16
-17
-20
-20
-18
-17
-19
-19
-18
-16
-17
-21
-17
-13
-13
-15
-16
-16
-15
-17
-16
-14
-14
-19
-20
-22
-24
-27
-26
-21
-15
-14
-16
-14
-14
-18
-20
-20
-19
-20
-20
-21
-18
-21
-23
-20
-17
-15
-18
-18
-17
-18
-23
-24
-21
-12
-5
21
74
135
198
241
250
202
93
54
-82
-88
-62
-32
-11
-4
-9
-15
-11
-10
-10
-14
-14
-13
-13
-14
-14
-11
-12
-12
-14
-12
-9
-10
-11
-12
-8
-9
-9
-7
-4
-5
-7
-8
-4
-2
-3
-2
0
3
0
2
6
11
13
13
17
20
21
21
30
35
37
37
40
44
48
48
49
54
55
54
55
60
60
56
52
52
52
46
41
40
37
31
29
20
19
15
11
10
9
7
2
2
5
4
1
0
3
2
0
0
3
3
3
2
4
7
6
6
8
9
8
7
8
12
12
10
9
12
14
11
9
14
12
9
7
7
10
9
8
7
5
4
3
5
6
5
0
1
1
1
-2
0
1
-1
-4
-5
-4
-4
-8
-8
-6
-6
-10
-11
-7
-6
-7
-7
-10
-9
-9
-11
-10
-7
-7
-8
-9
-6
-6
-8
-6
-6
-7
-8
-9
-8
-7
-12
-16
-18
-18
-14
-11
-4
-2
-5
-8
-10
-9
-8
-13
-13
-12
-12
-15
-15
-11
-11
-11
-14
-13
-10
-12
-13
-10
-14
-19
-20
-4
16
61
125
197
264
277
203
67
-48
-100
-94
-59
-19
-2
-1
-5
-7
-5
-9
-12
-10
-8
-10
-11
-11
-10
-8
-9
-8
-7
-9
-8
-8
-4
-4
-6
-5
-3
-2
-1
-1
3
5
3
3
7
8
12
11
14
18
19
21
25
32
34
36
38
42
47
47
49
53
53
53
54
58
62
60
55
59
57
55
54
48
45
39
33
28
26
24
17
13
13
11
4
3
6
4
-1
-2
-2
2
-1
0
1
2
-1
-2
0
3
3
0
2
3
5
3
4
9
9
7
7
7
8
7
5
8
8
6
5
4
9
4
4
4
4
4
0
0
3
4
-5
-6
-2
-2
-5
-5
-4
-6
-10
-10
-9
-8
-9
-11
-10
-12
-12
-12
-12
-9
-12
-15
-16
-13
-14
-17
-16
-14
-16
-18
-19
-13
-13
-15
-17
-13
-15
-15
-16
-13
-14
-14
-17
-21
-22
-24
-27
-23
-16
-13
-15
-16
-12
-17
-19
-21
-21
-19
-22
-23
-19
-19
-19
-22
-17
-16
-17
-18
-18
-18
-21
-29
-24
-13
-1
41
115
192
260
271
205
75
-55
-117
-99
-58
-28
-13
-10
-12
-10
-12
-13
-16
-15
-15
-18
-16
-14
-15
-17
-17
-13
-13
-14
-14
-12
-12
-11
-10
-9
-8
-8
-10
-6
-2
-2
-2
-2
1
5
2
8
13
15
13
15
23
26
29
31
36
36
38
41
46
47
48
47
50
53
52
50
46
45
44
37
36
34
29
21
18
14
10
3
3
2
-3
-4
-6
-5
-6
-8
-9
-10
-8
-8
-10
-5
-2
-4
-6
-6
-2
-3
-5
-4
-1
0
-3
-3
1
3
2
2
3
5
3
-1
3
4
4
2
1
1
-1
-4
-4
-2
-3
-8
-10
-8
-6
-7
-10
-10
-13
-15
-16
-14
-12
-15
-19
-16
-16
-16
-17
-18
-17
-19
-22
-20
-21
-21
-22
-24
-21
-20
-23
-23
-18
-20
-21
-23
-21
-17
-18
-21
-20
-19
-22
-23
-20
-18
-24
-32
-35
-31
-25
-22
-19
-18
-19
-22
-26
-22
-22
-26
-26
-23
-22
-23
-24
-21
-22
-22
-24
-22
-20
-19
-23
-27
-29
-27
-20
-2
41
107
171
229
248
191
72
-49
-105
-99
-70
-41
-16
-10
-14
-17
-18
-16
-20
-21
-21
-17
-19
-23
-24
-21
-19
-21
-20
-19
-18
-20
-21
-18
-14
-19
-19
-19
-16
-14
-16
-10
-9
-9
-10
-12
-6
-4
-3
-3
2
2
2
4
9
12
14
16
21
25
27
27
34
35
37
39
40
43
45
42
46
48
48
44
45
47
46
41
38
38
33
25
22
23
18
12
4
3
2
-3
-2
-5
-5
-4
-11
-10
-10
-7
-10
-11
-9
-9
-11
-14
-9
-8
-11
-11
-9
-8
-8
-10
-5
-3
-4
-5
-6
-4
-4
-6
-5
-2
-3
-6
-6
-5
-4
-6
-6
-7
-7
-10
-12
-10
-9
-11
-15
-14
-12
-14
-16
-14
-14
