12
12
11
11
12
13
13
13
13
13
13
13
13
13
14
13
13
12
13
13
14
15
15
16
17
18
18
18
19
20
20
21
21
22
22
22
21
22
23
23
23
23
22
21
22
21
22
20
20
21
22
22
22
22
22
22
22
23
25
25
25
23
22
21
19
17
16
15
12
11
9
9
9
11
14
16
17
18
19
19
19
18
17
16
15
14
15
16
15
15
14
13
9
4
-2
-12
-25
-41
-58
-74
-86
-97
-100
-93
-77
-59
-43
-32
-22
-14
-7
-3
0
3
7
10
12
14
15
16
17
18
19
19
19
19
20
19
19
19
20
20
20
20
20
21
21
23
23
23
22
23
22
22
21
21
21
20
20
19
17
17
18
18
17
17
16
16
16
15
15
14
14
15
14
13
12
12
11
12
11
10
9
8
8
7
7
7
7
6
6
7
7
8
9
11
11
12
11
11
11
12
13
13
14
14
15
15
15
15
16
17
18
19
19
19
19
20
21
22
24
25
26
26
27
27
27
27
26
26
26
26
26
25
24
24
24
24
26
26
27
26
26
26
25
25
26
27
27
27
27
27
28
28
28
28
27
26
24
22
21
19
16
15
13
12
13
15
18
20
22
22
23
22
21
20
19
18
18
19
18
17
16
15
14
11
8
2
-5
-16
-31
-46
-65
-80
-95
-103
-100
-89
-69
-51
-35
-23
-14
-7
-2
1
4
8
10
11
11
11
11
11
12
13
15
16
16
16
16
17
17
17
18
19
19
20
20
20
20
20
21
22
22
22
21
21
21
20
19
19
17
16
17
18
17
17
17
16
16
15
14
14
14
13
13
12
12
11
10
10
9
8
7
6
6
6
5
4
4
4
4
5
6
7
6
6
6
6
8
9
10
11
12
12
12
11
11
11
12
11
11
11
11
11
12
13
13
14
14
14
15
15
16
17
18
19
19
18
18
19
20
20
19
18
17
16
16
16
18
16
15
14
14
13
13
14
15
15
14
14
15
16
17
17
19
18
18
16
15
14
12
11
8
5
3
1
2
4
6
8
9
9
9
10
9
8
7
7
7
6
5
4
4
3
2
0
-1
-4
-8
-14
-22
-34
-50
-68
-87
-102
-112
-112
-98
-77
-57
-44
-33
-25
-19
-16
-13
-10
-8
-6
-5
-3
-2
-1
-1
-1
-1
0
0
1
2
2
2
2
3
3
3
3
5
6
7
7
6
6
5
6
6
6
6
5
5
5
5
5
4
3
2
1
1
0
0
1
0
0
0
-1
-2
-2
-3
-4
-4
-4
-4
-5
-6
-7
-7
-8
-8
-8
-8
-8
-8
-7
-7
-7
-6
-5
-4
-4
-5
-4
-4
-4
-4
-4
-4
-3
-3
-3
-2
-2
-3
-3
-4
-5
-5
-4
-4
-4
-2
-1
0
-1
-1
0
0
0
1
1
2
2
2
1
1
2
2
3
3
4
3
3
3
3
2
2
2
2
2
2
3
3
3
5
8
9
9
8
8
8
7
6
4
2
0
-1
-4
-6
-7
-7
-5
-3
-1
0
1
0
0
0
0
-1
-1
-2
-3
-2
-3
-4
-4
-5
-5
-7
-11
-16
-22
-32
-45
-58
-73
-85
-98
-105
-105
-99
-82
-67
-54
-46
-37
-30
-24
-20
-17
-14
-11
-8
-6
-5
-3
-2
-1
-1
0
0
1
1
2
3
4
3
4
4
5
5
4
4
5
6
6
6
7
6
6
7
8
8
7
7
8
7
6
6
5
5
5
6
6
6
5
4
4
5
5
4
2
1
0
-1
-2
-2
-2
-2
-2
-2
-2
-1
-1
0
-1
0
1
3
3
3
4
4
3
4
5
5
4
3
3
3
4
4
5
5
5
6
7
8
8
9
9
10
10
11
12
13
14
14
14
15
16
16
16
16
15
15
14
15
15
16
16
16
16
15
15
15
15
15
15
16
16
15
15
15
17
19
19
20
21
22
22
21
21
20
19
18
17
15
13
12
12
11
9
8
9
9
11
12
14
15
15
15
14
14
14
14
14
14
14
11
9
8
7
4
0
-5
-13
-23
-36
-49
-61
-73
-84
-95
-95
-89
-74
-60
-46
-34
-24
-15
-9
-5
-3
0
3
6
7
7
8
10
11
12
13
14
15
17
18
18
19
18
18
18
19
19
18
19
20
21
21
22
22
21
21
21
21
21
20
20
19
19
19
19
19
19
19
19
19
19
18
18
17
17
16
15
15
16
16
16
16
15
12
12
12
12
14
13
13
13
15
15
15
15
16
18
18
19
19
19
18
18
18
18
19
18
17
15
15
18
20
21
20
19
19
20
21
21
22
23
23
21
22
22
23
24
25
25
26
25
25
25
25
25
25
25
24
24
24
24
24
24
25
25
24
23
23
23
23
23
25
26
27
26
25
24
25
25
25
24
23
22
21
20
18
16
13
11
11
10
13
15
17
19
21
22
21
20
19
18
17
17
17
17
16
16
15
14
14
13
11
7
0
-8
-21
-37
-53
-68
-81
-90
-89
-79
-61
-43
-30
-20
-12
-5
0
3
6
10
12
15
15
15
15
16
17
18
18
18
19
19
21
21
21
21
21
22
23
23
23
23
22
22
22
22
23
22
22
22
22
22
21
22
22
22
20
20
19
19
18
18
18
18
18
17
17
16
15
15
15
15
13
13
12
12
11
11
11
10
10
10
10
11
11
11
12
13
15
17
17
18
18
18
18
19
20
20
20
20
19
18
19
21
22
24
24
24
24
24
25
26
26
26
27
28
29
31
31
31
31
31
30
30
30
30
30
28
28
28
28
27
28
28
27
27
27
28
28
29
30
31
30
28
27
28
28
29
30
31
32
32
33
32
30
29
28
27
26
24
24
23
21
19
18
18
19
21
23
25
26
28
28
28
27
26
25
25
25
23
22
21
20
19
19
18
13
8
0
-10
-23
-39
-54
-70
-82
-88
-85
-70
-53
-36
-24
-14
-4
3
9
13
15
18
21
23
26
27
28
27
27
28
28
29
31
32
32
31
32
33
34
34
34
34
35
34
35
33
33
34
35
36
37
37
36
36
35
35
34
35
34
34
33
32
32
31
29
28
27
28
27
28
26
25
24
23
22
20
20
18
18
17
16
16
16
17
17
17
16
17
17
18
18
17
16
16
18
19
20
20
21
22
22
22
22
23
22
22
22
24
24
24
25
26
27
27
28
28
29
28
28
28
27
26
26
28
29
29
30
28
28
27
26
26
26
26
26
26
24
23
23
25
26
26
25
24
25
25
25
25
26
27
27
28
28
28
27
25
24
23
22
20
19
17
15
13
13
13
14
16
18
19
19
20
20
20
19
19
20
20
20
19
19
18
17
16
14
12
10
6
0
-9
-22
-36
-52
-67
-78
-82
-76
-61
-43
-29
-18
-9
-2
2
5
9
12
14
15
15
17
19
20
21
21
19
19
20
19
19
18
18
18
19
19
19
20
20
21
21
21
21
20
20
20
20
20
21
20
20
19
17
16
18
19
19
19
18
16
15
13
13
12
12
11
10
9
8
7
7
7
6
5
4
4
5
6
6
6
6
7
8
8
9
10
10
11
10
11
11
10
9
9
9
9
8
8
9
9
9
9
9
9
9
11
13
13
12
11
11
11
12
12
11
11
11
12
12
13
12
13
12
11
10
11
12
13
13
13
13
12
12
12
12
12
12
12
12
12
12
13
14
14
14
15
15
16
16
14
13
13
11
8
6
5
4
3
1
0
0
1
2
4
6
8
8
8
8
8
7
7
7
6
6
5
4
2
3
2
0
-6
-14
-24
-40
-56
-73
-87
-97
-105
-100
-89
-72
-58
-47
-37
-29
-20
-14
-10
-8
-6
-3
-1
0
1
2
4
5
5
6
6
6
5
5
6
6
7
7
7
7
8
7
7
6
5
5
5
5
6
7
7
6
7
7
6
6
6
5
5
4
4
4
4
3
2
1
0
0
0
1
2
0
0
-2
-3
-4
-4
-4
-4
-4
-4
-5
-5
-5
-5
-4
-3
-3
-3
-2
-1
0
1
0
1
1
2
2
2
3
3
2
2
3
3
5
6
7
7
7
7
7
8
9
9
10
10
10
10
11
12
12
14
14
14
14
14
13
13
12
12
11
11
12
12
13
13
13
13
14
14
14
14
14
14
15
15
16
17
18
18
19
20
21
20
18
16
14
12
11
11
9
6
4
3
3
5
7
10
11
12
12
12
12
11
11
10
10
9
8
8
8
7
7
4
2
-2
-7
-14
-25
-39
-56
-76
-92
-104
-109
-103
-88
-67
-50
-36
-27
-18
-12
-8
-6
-2
1
3
5
5
5
6
7
8
9
9
9
9
10
10
10
9
10
10
9
9
10
10
10
11
11
11
11
11
11
11
11
12
12
12
11
11
11
11
11
11
11
10
10
10
10
9
8
8
8
8
7
6
6
5
3
2
1
1
1
0
0
0
-1
-1
-2
-1
-1
0
0
0
0
0
0
0
0
0
0
-1
-2
-2
-3
-3
-3
-2
0
1
2
2
2
1
2
3
4
5
6
8
8
7
8
9
10
10
10
10
9
9
9
10
12
12
12
12
11
9
9
10
11
12
13
13
13
12
11
11
11
11
12
13
14
15
16
17
17
15
14
13
10
7
6
7
6
4
2
1
2
3
5
7
8
9
9
9
8
8
8
7
6
5
5
4
3
1
1
0
-1
-4
-9
-17
-29
-44
-60
-77
-89
-96
-96
-84
-68
-51
-40
-31
-24
-18
-13
-10
-8
-5
-3
-1
0
0
1
2
3
3
4
4
4
6
8
9
8
8
8
8
9
9
10
10
9
9
9
8
9
9
9
9
8
8
7
7
7
6
7
7
7
7
7
6
5
5
5
5
4
4
4
3
2
0
0
-1
-2
-2
-3
-4
-5
-5
-5
-6
-7
-7
-7
-5
-5
-5
-5
-5
-4
-4
-5
-5
-5
-3
-2
-1
-1
-1
0
0
0
1
2
2
3
3
3
2
3
4
5
5
6
7
6
7
8
8
9
9
8
8
8
8
8
8
7
7
7
9
9
9
9
10
9
8
8
8
8
7
7
8
9
9
9
10
10
11
10
9
8
7
5
4
3
2
0
0
-1
-2
-2
0
1
3
4
5
4
3
3
2
1
1
1
2
2
1
0
-2
-3
-5
-9
-13
-21
-32
-43
-58
-71
-86
-97
-103
-101
-88
-72
-56
-45
-36
-29
-23
-18
-14
-11
-10
-8
-6
-5
-4
-3
-2
-2
-1
-1
-1
-2
-2
-1
0
0
0
1
1
2
3
4
4
4
4
4
3
2
2
1
2
3
3
3
2
1
0
0
1
1
0
0
0
0
0
0
1
0
0
0
0
0
-1
0
0
1
1
0
0
0
0
0
0
1
2
3
3
3
3
4
6
7
7
7
7
7
7
8
9
9
9
8
8
8
8
8
10
10
11
11
10
11
12
13
14
15
16
16
16
16
17
17
17
17
17
17
17
18
17
16
16
15
15
15
15
15
15
15
16
17
17
18
17
18
18
19
20
21
22
22
22
21
20
18
16
15
14
13
10
9
8
8
9
12
15
16
16
16
17
17
16
16
15
14
13
13
13
12
12
12
11
9
4
-1
-9
-19
-33
-50
-67
-80
-91
-93
-84
-68
-50
-37
-25
-16
-9
-5
-2
0
3
6
8
9
10
11
11
12
13
14
15
15
16
17
18
18
19
19
19
19
19
20
21
21
22
22
22
21
21
21
21
20
21
19
19
19
20
21
21
20
19
19
18
19
18
18
18
16
16
15
15
15
15
15
13
12
11
10
10
9
10
11
12
12
11
11
13
13
14
14
14
13
13
14
15
15
15
15
16
16
16
17
18
17
17
17
17
17
17
18
18
17
17
19
19
20
21
20
21
21
22
22
22
22
22
22
21
21
20
20
19
20
20
21
21
21
20
20
20
21
20
20
19
20
21
22
22
23
24
26
27
28
27
25
24
22
20
18
16
14
12
12
11
11
12
15
17
19
20
20
20
19
18
17
17
17
18
18
17
16
16
14
12
10
8
4
-2
-11
-24
-40
-58
-72
-85
-94
-90
-79
-59
-41
-28
-19
-11
-4
1
5
8
10
14
15
16
17
19
20
21
21
22
22
23
23
24
23
23
23
23
23
24
24
24
24
24
25
26
26
26
26
26
27
27
26
26
26
26
26
26
26
24
24
24
23
23
23
24
23
23
22
21
19
18
19
19
19
18
17
16
16
16
16
17
16
16
17
18
19
18
19
19
20
21
22
22
24
24
24
24
25
26
26
27
28
28
28
28
28
28
28
29
30
31
32
32
33
34
34
35
34
35
34
34
34
35
35
36
36
35
35
35
35
36
35
35
34
34
34
34
34
35
35
34
34
35
36
36
37
37
37
36
35
35
33
32
31
31
31
29
27
26
26
26
26
27
29
31
30
30
30
30
29
29
28
28
28
28
27
26
27
26
26
23
21
17
11
3
-6
-19
-34
-48
-60
-69
-71
-62
-45
-27
-14
-4
4
10
14
18
21
24
26
27
28
28
30
31
31
31
32
32
33
34
34
35
35
36
35
35
35
35
36
36
37
37
37
36
37
37
38
39
38
38
37
38
38
39
39
38
38
37
37
37
36
35
34
34
33
33
32
32
32
33
32
31
30
29
29
29
29
29
28
27
27
27
27
28
29
29
29
29
30
30
31
30
30
31
32
33
34
34
34
34
33
34
34
34
35
34
34
34
34
36
36
37
37
39
39
39
37
38
38
38
38
38
38
36
37
37
38
38
37
38
39
39
36
36
36
36
36
36
36
37
38
38
38
38
39
39
38
38
37
37
35
33
29
28
28
28
28
26
26
26
28
28
29
30
31
31
31
31
30
29
28
27
27
26
27
27
26
25
22
20
14
5
-5
-19
-35
-52
-66
-78
-83
-76
-62
-43
-29
-17
-8
0
5
8
11
15
17
19
20
21
22
23
24
24
25
25
25
26
27
27
27
28
29
29
28
27
28
28
28
28
28
28
28
28
28
28
28
28
28
27
27
26
27
27
28
28
28
28
27
26
25
25
25
25
24
24
23
21
19
19
19
18
17
16
16
14
13
13
13
13
13
14
14
14
14
14
14
13
12
13
14
14
14
14
13
13
13
13
13
14
13
12
12
12
12
12
14
15
16
16
16
18
19
20
21
21
21
21
21
21
20
20
20
21
20
20
21
21
22
22
23
24
24
23
23
23
24
23
22
22
21
21
22
23
24
25
24
24
22
22
21
20
19
18
17
14
12
10
10
11
12
14
16
17
17
17
17
18
19
19
17
16
16
14
14
13
12
11
10
7
3
-3
-12
-22
-36
-51
-67
-81
-91
-94
-90
-75
-58
-43
-32
-22
-13
-6
-2
0
2
4
7
10
12
12
13
13
14
15
15
16
15
16
17
17
17
18
18
18
18
18
18
18
18
17
17
16
15
15
15
15
14
14
14
13
13
12
12
12
13
13
13
13
12
11
10
9
8
7
6
6
4
4
4
5
6
7
6
5
5
4
3
3
3
2
3
4
5
5
5
6
6
6
6
7
8
8
8
8
9
8
7
8
8
7
6
4
6
8
9
9
10
11
11
12
13
13
13
13
13
13
14
15
16
16
16
16
15
16
15
15
15
16
16
16
16
16
16
15
15
16
19
20
20
20
21
22
22
22
23
23
22
22
21
21
18
17
15
14
11
9
7
7
9
11
14
16
16
16
16
16
16
16
15
15
15
14
15
15
14
13
12
10
7
4
-1
-7
-17
-31
-47
-63
-81
-92
-100
-93
-78
-59
-42
-31
-20
-11
-4
0
3
4
5
-1
-30
-48
7
85
109
97
85
79
74
73
71
70
67
66
64
62
61
58
56
53
53
51
49
48
46
46
44
43
42
41
39
38
37
35
35
33
32
29
28
28
28
27
25
24
24
22
21
20
19
18
17
15
14
14
12
10
7
6
7
8
9
9
9
8
8
7
7
7
8
8
9
9
9
8
7
7
8
9
9
9
9
9
9
9
9
10
11
11
11
10
11
12
15
16
16
15
15
15
15
15
16
17
17
16
15
14
14
15
14
14
14
14
13
13
13
12
12
12
12
11
11
11
13
14
14
15
15
16
16
16
16
14
13
11
9
8
6
5
3
2
2
3
5
7
9
10
10
10
10
9
9
8
8
6
6
7
8
7
5
4
3
1
-2
-6
-11
-20
-32
-47
-64
-78
-91
-98
-97
-84
-65
-48
-36
-29
-24
-18
-13
-10
-8
-10
-27
-59
-45
30
80
81
66
57
53
51
49
47
46
44
44
42
41
39
38
36
35
34
32
30
29
28
27
26
25
23
21
20
18
17
16
15
14
14
14
13
12
11
10
9
8
7
6
5
4
3
1
0
-1
-1
-1
-2
-3
-4
-4
-5
-6
-6
-7
-7
-7
-6
-6
-6
-7
-7
-7
-7
-8
-9
-9
-8
-8
-9
-10
-10
-10
-10
-10
-9
-9
-9
-9
-8
-8
-7
-6
-5
-4
-4
-4
-3
-2
-1
-1
-1
-1
-1
-1
0
-1
0
0
1
2
3
3
2
1
1
0
0
-1
-1
-2
-2
-2
-3
-3
-3
-2
-2
-2
-2
0
0
0
-1
-2
-3
-5
-7
-8
-10
-12
-13
-15
-15
-15
-15
-12
-10
-8
-7
-7
-8
-9
-9
-10
-10
-10
-10
-10
-10
-10
-11
-12
-12
-14
-19
-25
-34
-46
-60
-78
-91
-105
-113
-113
-106
-89
-73
-59
-49
-40
-33
-27
-22
-20
-18
-20
-35
-67
-48
29
74
69
56
47
42
40
39
37
36
35
34
33
32
31
29
28
27
26
25
23
22
22
20
19
18
17
16
16
15
14
13
11
11
9
8
6
5
5
5
4
3
3
1
0
-1
-2
-3
-4
-4
-6
-6
-7
-8
-9
-12
-13
-12
-9
-6
-6
-7
-8
-7
-7
-8
-9
-9
-9
-9
-8
-7
-6
-6
-7
-7
-7
-7
-6
-4
-4
-4
-5
-4
-3
-3
-2
-2
-1
-1
-1
0
0
1
2
3
4
5
4
3
3
3
3
5
7
6
6
5
6
5
6
5
4
4
3
3
3
3
3
4
6
6
6
7
7
7
7
6
6
5
3
2
0
-1
-2
-4
-6
-7
-8
-8
-6
-3
0
0
0
0
0
-1
0
0
0
-1
-1
0
0
-2
-2
-3
-5
-9
-13
-20
-29
-41
-56
-73
-89
-104
-114
-117
-108
-91
-70
-55
-43
-34
-27
-22
-20
-20
-36
-68
-55
28
85
89
73
63
56
53
51
50
48
46
46
43
41
39
38
37
36
35
32
31
28
28
28
26
24
23
22
22
22
21
21
20
19
19
18
17
15
14
13
12
10
8
7
5
5
4
3
2
0
-1
-2
-3
-5
-6
-6
-5
-6
-7
-7
-7
-6
-5
-4
-3
-3
-3
-3
-1
-1
-1
-1
-2
-2
-2
-2
-3
-3
-3
-2
-1
-1
0
-1
-2
-3
-2
0
1
2
2
3
4
5
6
6
7
7
6
5
6
7
9
8
8
8
9
9
8
8
8
8
7
7
8
8
7
8
8
7
8
8
8
9
9
10
10
9
7
8
8
7
5
3
3
0
-1
-4
-5
-6
-6
-4
-2
1
2
2
3
3
3
3
4
4
4
3
2
2
1
1
0
0
-1
-4
-9
-15
-23
-35
-51
-70
-88
-101
-112
-110
-99
-78
-58
-45
-35
-27
-21
-19
-23
-46
-71
-28
57
95
87
73
65
59
56
53
50
48
46
45
44
42
40
39
39
39
39
37
36
35
33
32
31
31
30
28
27
27
26
24
24
23
22
20
19
18
16
15
15
15
15
14
13
12
11
10
9
7
6
5
4
3
2
1
0
-2
-2
-2
-2
-2
-2
-2
-1
0
0
0
0
-1
-1
-1
0
0
0
1
1
1
1
0
1
0
0
1
1
2
1
2
2
3
4
6
8
9
9
10
11
10
10
11
12
12
12
11
12
13
13
13
13
13
13
12
11
11
11
11
11
11
11
11
10
10
10
10
9
10
11
12
13
14
15
15
15
14
14
12
11
9
8
7
5
2
0
0
0
0
2
3
5
7
8
9
9
9
8
8
7
7
7
7
6
6
6
5
3
1
-2
-7
-16
-28
-44
-60
-78
-94
-104
-110
-104
-90
-70
-52
-40
-31
-23
-24
-44
-65
-18
60
91
82
69
63
57
54
51
50
49
50
49
48
48
46
46
45
45
44
43
42
41
40
38
37
36
37
36
35
33
33
33
32
31
29
28
28
28
27
26
25
23
22
21
20
19
18
18
17
15
14
13
12
11
10
9
8
7
7
7
6
5
5
6
6
6
7
7
6
6
7
8
8
8
9
9
10
10
10
10
11
11
12
12
12
12
13
14
15
16
17
17
19
20
21
20
20
21
21
22
22
22
22
23
23
23
22
22
22
22
22
21
21
20
20
19
18
18
17
17
16
16
17
16
17
17
19
19
19
19
19
20
20
20
20
18
17
15
14
12
11
10
8
6
4
5
5
7
10
12
12
12
12
11
12
12
13
12
12
12
12
11
9
8
6
4
1
-2
-8
-17
-29
-45
-64
-80
-94
-103
-107
-97
-80
-61
-46
-37
-34
-51
-76
-35
51
89
82
70
63
58
55
53
51
49
49
49
47
47
45
44
43
42
42
41
41
40
39
38
36
35
34
34
32
31
30
29
28
29
30
28
27
26
26
25
24
24
23
22
20
19
18
18
16
15
14
13
12
11
10
10
9
8
6
5
3
2
2
2
3
3
4
5
5
5
6
7
7
6
5
3
3
3
3
3
4
4
5
6
6
5
6
6
7
8
8
9
10
10
12
13
13
13
12
13
14
13
14
14
15
14
14
12
12
12
11
10
10
9
9
9
10
9
9
8
8
8
8
8
8
7
8
8
9
9
9
10
11
12
11
9
8
7
5
3
1
0
-2
-4
-4
-2
0
1
3
4
5
5
5
5
5
5
3
3
2
1
1
1
1
1
0
-2
-8
-14
-23
-34
-51
-66
-82
-94
-103
-103
-91
-74
-58
-53
-67
-81
-27
52
77
67
58
51
48
45
43
43
42
42
40
40
38
39
39
39
38
37
36
35
35
34
34
33
33
31
29
28
27
26
25
25
24
22
21
21
20
19
19
19
19
18
17
17
16
15
14
14
12
11
10
8
7
6
6
6
5
2
1
0
0
-1
-2
-3
-3
-2
-1
-2
-1
-1
-2
-1
-1
0
-1
-1
-2
-2
-2
-1
-1
0
0
0
0
0
0
0
1
2
2
2
3
4
5
6
8
8
9
9
10
11
12
12
12
13
13
13
13
13
12
11
10
10
11
11
10
9
9
8
8
9
8
8
8
8
7
6
6
8
9
10
11
12
12
11
10
9
7
6
5
5
3
1
0
0
1
1
3
4
6
6
6
6
6
6
5
6
5
5
4
3
2
3
3
3
1
-1
-5
-10
-18
-28
-42
-57
-71
-84
-92
-96
-90
-80
-73
-86
-75
-2
60
70
60
52
48
45
44
43
42
41
40
40
38
37
36
35
36
35
34
32
31
30
29
29
28
27
26
25
24
23
22
20
20
19
19
17
16
14
14
14
13
12
11
11
10
10
9
8
7
6
5
4
4
4
4
3
2
1
0
0
0
-1
-2
-3
-3
-2
-3
-2
-1
0
0
0
0
1
1
1
0
1
1
1
1
1
1
1
1
2
2
3
3
3
3
4
4
6
6
7
8
8
10
9
9
9
10
11
11
10
9
10
10
10
10
9
8
8
8
8
7
6
6
7
7
7
7
6
7
7
7
7
7
7
6
5
6
7
8
9
10
10
10
9
8
6
5
4
3
1
0
-2
-2
-1
0
1
3
5
5
5
5
4
3
3
2
2
2
3
3
3
2
0
0
-1
-5
-10
-18
-27
-39
-53
-66
-79
-87
-95
-91
-86
-87
-97
-59
17
52
49
43
39
38
38
38
38
37
37
36
36
35
35
34
33
34
32
31
31
30
29
28
27
26
24
23
24
25
24
23
21
21
21
20
19
18
17
16
16
15
14
13
13
13
12
11
10
9
8
6
5
4
3
3
3
2
0
0
-1
-2
-3
-3
-5
-4
-4
-4
-4
-4
-4
-4
-4
-4
-5
-6
-6
-5
-4
-4
-4
-4
-4
-4
-4
-5
-5
-4
-4
-5
-4
-3
-2
-1
-1
0
0
1
2
2
2
2
3
3
4
5
5
4
4
3
3
4
4
3
2
3
3
3
3
2
2
2
3
3
3
3
2
1
2
3
3
4
4
5
5
6
8
8
7
5
4
2
1
0
0
0
-2
-3
-3
-3
-2
-1
0
1
1
1
2
2
1
0
0
0
0
0
1
0
0
0
-1
-3
-6
-10
-15
-23
-34
-47
-62
-76
-88
-95
-97
-95
-101
-94
-33
27
43
39
35
33
33
32
33
33
32
31
30
30
29
29
28
27
26
26
26
25
24
23
23
23
23
23
23
23
21
21
20
20
20
21
20
19
19
19
18
18
18
19
19
18
18
18
17
16
15
15
14
12
11
11
10
8
8
8
8
7
6
5
4
4
3
4
3
3
3
3
3
3
3
4
4
4
4
4
5
6
5
6
6
6
7
7
8
8
8
9
10
10
9
11
12
14
14
14
14
15
16
18
18
18
18
18
18
19
18
17
16
16
16
16
15
16
15
15
15
15
15
15
16
16
16
16
16
16
17
17
18
19
20
21
21
22
22
22
22
21
20
19
18
17
15
13
11
11
12
12
12
14
16
16
16
16
17
17
17
17
16
17
16
15
14
14
13
13
12
10
6
1
-5
-15
-28
-42
-58
-71
-84
-96
-110
-96
-22
35
46
43
43
44
46
46
47
48
49
48
48
48
48
48
46
45
44
43
42
42
41
41
40
39
38
37
36
36
35
34
33
33
31
31
31
31
31
30
31
30
31
31
31
30
29
29
27
27
26
25
24
24
23
22
21
19
17
16
15
15
13
12
11
11
10
9
8
7
7
7
7
8
8
8
8
9
8
8
8
8
8
8
7
7
8
8
9
10
11
11
11
11
12
12
12
11
11
12
13
15
15
15
15
16
18
19
19
18
18
17
17
16
16
16
15
15
15
14
15
13
13
13
13
13
13
13
14
14
15
15
15
14
13
13
14
15
16
16
17
16
15
14
12
11
9
8
6
2
0
-1
-1
-1
0
3
6
8
9
10
10
10
10
10
11
10
10
9
9
9
8
7
6
2
-3
-10
-20
-34
-51
-70
-88
-105
-123
-148
-128
-50
10
26
28
30
35
39
44
45
47
48
49
50
48
47
45
45
43
43
42
40
39
37
36
35
34
33
31
29
29
29
28
28
28
27
25
24
23
22
22
22
22
22
21
20
20
19
17
16
16
15
14
14
14
12
11
10
9
8
7
6
5
4
2
1
0
0
-1
-1
-1
-2
-3
-4
-3
-2
-2
-1
-1
0
-1
0
0
2
3
3
3
3
4
4
4
4
5
4
5
6
6
6
6
7
7
8
8
8
9
9
10
11
12
12
12
11
11
10
9
10
10
11
11
11
10
8
7
7
8
8
9
9
9
8
8
8
8
7
7
7
9
10
11
11
12
12
11
11
10
10
8
7
6
5
2
-1
-2
-2
-2
0
2
5
6
8
10
11
10
10
9
9
9
8
8
7
7
7
6
4
3
0
-5
-10
-18
-31
-48
-69
-91
-121
-147
-122
-53
-10
3
12
21
27
32
35
36
37
38
39
39
39
37
37
36
35
34
34
34
33
33
32
31
31
30
30
29
28
27
27
27
26
27
25
25
25
24
24
23
22
22
22
21
21
20
21
21
21
19
17
15
13
12
11
11
11
9
7
6
5
5
4
3
1
1
0
0
1
0
0
0
0
0
0
-1
-1
0
0
0
0
0
1
1
2
2
2
3
3
3
2
2
2
2
4
5
6
6
5
5
6
8
8
9
9
10
11
11
11
9
10
10
10
10
10
9
7
7
7
7
8
8
8
9
10
10
10
9
9
9
10
10
10
10
11
12
12
13
15
16
17
15
13
11
10
8
6
6
5
3
1
0
0
1
2
3
4
5
5
5
5
4
3
2
2
2
2
2
1
0
0
-1
-3
-6
-11
-16
-24
-35
-49
-64
-84
-111
-144
-126
-66
-33
-23
-14
-4
3
10
16
20
24
26
28
29
29
30
29
28
28
28
27
25
25
25
24
23
23
22
21
20
20
19
18
18
18
19
19
18
18
18
17
16
16
16
15
15
14
14
14
13
14
14
14
12
11
10
10
9
8
8
6
5
4
3
2
1
0
0
0
-1
-2
-2
-3
-3
-4
-5
-5
-5
-5
-5
-4
-4
-3
-2
-2
-2
-2
-1
-1
0
-1
-1
-1
-1
-1
-1
-1
0
0
0
1
1
1
2
3
4
6
6
7
7
7
7
6
6
4
4
5
6
6
6
5
5
4
4
4
6
6
6
5
5
5
5
6
7
6
5
5
5
5
5
5
6
7
7
6
5
3
2
1
1
1
-1
-3
-5
-5
-6
-6
-4
-2
-1
0
0
0
0
0
0
0
-1
-1
-2
-2
-3
-4
-6
-7
-10
-13
-19
-26
-37
-51
-76
-113
-138
-105
-62
-55
-53
-41
-25
-13
-3
4
10
14
17
19
21
22
24
24
24
24
23
23
22
22
21
21
21
20
19
18
17
16
15
15
14
13
14
15
15
14
14
13
13
12
12
12
12
11
11
10
9
8
8
8
7
8
8
8
7
6
6
5
4
3
2
1
0
0
-1
-2
-3
-4
-4
-5
-5
-6
-6
-5
-5
-5
-4
-2
-1
-1
-2
-1
-2
-1
0
0
1
1
1
1
1
0
1
2
2
2
2
3
3
3
3
4
5
6
7
8
7
6
5
5
4
4
4
3
2
2
2
2
2
2
1
1
1
1
1
1
2
3
2
3
2
2
2
3
3
4
5
7
8
9
8
6
5
4
1
0
-1
-2
-4
-6
-8
-9
-9
-7
-5
-2
-1
-1
-1
-2
-3
-4
-3
-2
-4
-4
-3
-2
-2
-4
-5
-6
-7
-10
-15
-22
-34
-57
-102
-118
-74
-43
-55
-69
-63
-47
-27
-12
-2
6
13
17
19
20
23
25
27
27
26
26
26
26
25
26
26
25
24
24
23
22
22
22
21
21
21
21
20
20
18
19
19
18
17
16
16
16
16
14
14
13
13
13
12
11
10
10
9
8
8
8
7
6
5
3
3
3
2
1
0
0
0
-1
-2
-3
-3
-4
-4
-4
-3
-3
-2
-1
0
0
0
1
1
1
0
0
1
2
2
2
2
2
2
3
4
3
3
4
5
6
5
7
8
9
8
9
11
10
10
9
9
8
8
7
7
6
5
4
5
6
5
4
4
4
4
4
4
3
3
3
3
3
3
4
4
5
6
7
7
8
8
8
8
7
6
4
2
1
1
0
-3
-6
-8
-8
-7
-6
-3
0
2
3
3
4
4
4
3
4
4
4
4
4
3
3
2
1
0
-2
-8
-18
-42
-87
-104
-55
-18
-32
-57
-70
-64
-47
-25
-8
3
12
19
24
27
29
31
33
33
34
33
34
33
33
33
32
32
31
30
29
29
29
29
29
29
28
28
28
27
28
28
28
27
26
25
24
24
24
25
24
24
24
24
24
23
23
23
22
21
20
20
17
17
17
17
18
17
16
15
14
13
14
13
11
9
8
9
9
8
8
8
9
9
10
10
10
10
10
10
10
10
10
10
10
11
12
13
13
12
12
12
13
13
13
14
16
17
17
17
17
17
17
17
17
17
16
16
15
15
14
14
14
14
14
13
13
13
13
13
13
13
12
11
11
12
13
12
13
13
13
12
12
12
12
13
14
15
15
15
14
13
13
12
12
11
10
8
6
4
3
3
3
4
7
9
10
11
12
12
12
12
12
12
13
13
13
13
12
12
11
10
7
3
-2
-12
-27
-55
-98
-103
-54
-23
-30
-37
-30
-16
-2
8
18
25
30
33
33
33
35
35
36
36
35
35
35
35
34
34
34
34
34
34
34
34
34
33
32
32
31
31
31
32
30
30
29
29
27
27
27
26
26
25
26
26
27
26
25
25
24
24
23
23
21
21
20
20
19
18
18
17
16
15
14
14
14
13
13
13
12
12
12
11
11
11
12
13
13
13
13
14
15
15
15
15
14
14
14
15
15
15
16
16
17
17
17
17
18
20
21
22
23
23
22
21
21
21
21
20
20
20
20
19
19
18
18
17
17
17
17
18
17
17
17
17
17
17
18
18
18
17
17
18
18
19
20
21
22
24
24
23
22
21
20
18
18
18
17
15
13
13
13
13
14
15
17
17
18
18
18
17
17
16
16
16
16
16
15
14
14
13
11
9
6
0
-7
-18
-32
-44
-58
-67
-75
-76
-68
-56
-41
-31
-21
-12
-5
0
3
6
8
11
13
15
16
16
16
17
17
18
18
18
19
19
19
20
20
21
22
22
23
22
22
22
22
23
22
22
23
23
23
23
23
23
23
23
23
23
23
23
22
22
21
22
23
23
23
22
22
21
20
19
18
17
16
16
16
17
17
17
16
16
16
16
17
17
18
18
19
19
19
19
19
19
19
20
20
21
20
19
19
18
17
17
17
16
16
16
18
18
18
19
19
19
18
19
20
21
21
21
21
20
20
19
18
18
18
18
17
16
16
16
16
16
18
18
18
16
16
16
15
15
15
16
15
16
16
17
17
17
18
18
17
17
16
15
14
14
13
13
11
9
8
7
6
7
9
11
12
13
13
13
14
13
13
13
12
12
11
11
10
9
8
7
5
2
-2
-9
-18
-30
-44
-59
-73
-84
-90
-89
-78
-62
-46
-35
-26
-19
-12
-7
-3
0
1
3
5
8
9
10
9
9
9
10
12
12
13
11
11
11
11
11
11
12
12
12
13
13
13
14
12
11
11
12
13
13
14
13
13
13
13
12
12
11
10
10
9
9
8
6
5
4
3
2
0
0
0
0
0
0
0
-1
-2
-2
-2
-3
-2
-1
-1
-1
0
0
1
2
3
4
5
6
6
7
8
8
9
10
10
10
10
10
10
11
10
11
11
11
10
10
11
12
13
14
16
17
17
17
18
18
18
18
17
17
16
17
17
17
16
15
15
14
15
15
16
17
18
17
17
17
16
16
16
16
17
18
19
20
21
21
20
19
18
18
16
15
14
11
9
8
9
9
9
10
12
13
14
14
15
14
14
15
15
15
14
14
15
16
16
15
15
13
11
8
4
-3
-13
-26
-42
-60
-76
-91
-96
-94
-78
-58
-41
-27
-17
-8
-2
0
2
5
8
10
12
12
13
14
14
14
15
15
16
16
15
15
16
16
16
17
17
17
17
18
19
19
18
19
20
19
19
18
18
18
18
18
18
19
19
20
20
19
19
19
19
19
18
17
16
16
16
16
15
14
12
11
10
10
8
7
5
4
4
4
4
3
3
3
4
5
6
7
7
8
8
9
10
11
12
12
13
13
13
14
16
17
17
16
13
0
-31
-35
37
103
115
103
93
85
80
76
72
69
66
66
63
61
58
56
53
52
50
48
48
46
47
45
44
42
42
42
43
44
44
43
42
42
43
43
42
40
39
38
39
39
38
37
35
32
29
25
20
15
6
-7
-24
-43
-60
-72
-80
-75
-60
-40
-24
-13
-3
4
10
13
15
19
23
26
28
28
28
28
29
29
29
30
30
32
31
30
29
30
30
30
31
31
32
31
30
30
30
30
28
28
27
27
25
25
26
27
27
27
27
26
25
24
24
24
23
23
22
22
22
22
21
20
18
18
18
18
17
17
17
16
15
15
15
16
16
16
17
18
18
19
19
19
20
21
24
26
27
26
25
26
26
26
26
27
27
27
27
27
27
25
24
24
23
22
22
22
21
21
21
21
21
21
21
19
19
19
19
19
19
19
19
19
18
18
18
18
18
19
19
20
21
20
21
21
21
21
22
24
26
26
24
24
24
24
23
23
24
23
23
22
22
22
21
21
20
21
22
24
25
26
27
27
27
27
26
23
22
20
19
18
17
16
13
10
9
10
13
16
18
20
21
21
20
19
17
16
15
15
14
13
13
13
12
10
8
3
-2
-10
-20
-34
-50
-65
-81
-92
-99
-96
-83
-67
-50
-39
-32
-39
-68
-62
15
77
82
71
63
56
52
51
49
49
47
46
44
43
43
42
41
39
39
39
40
39
38
37
36
35
33
33
32
31
30
28
28
26
25
24
22
20
19
18
18
18
17
17
16
16
15
14
14
13
12
10
9
8
7
7
6
6
5
4
4
4
3
3
3
3
3
3
4
4
4
5
5
7
8
9
10
11
11
10
11
11
12
12
14
14
14
13
13
13
12
11
11
11
11
10
10
10
10
10
10
12
13
12
11
11
11
11
9
9
9
9
8
8
10
10
11
11
12
12
12
13
13
13
12
12
12
13
13
13
14
14
15
16
17
18
18
17
16
14
12
12
10
8
6
4
3
4
7
10
12
13
13
13
13
13
12
12
12
12
12
12
11
11
10
9
8
7
5
1
-4
-13
-25
-42
-61
-81
-96
-107
-108
-97
-78
-59
-45
-34
-24
-16
-10
-5
-2
1
3
5
7
7
8
8
9
9
9
10
12
12
12
11
12
13
15
15
15
15
15
15
15
16
17
18
17
16
16
16
16
15
14
13
13
13
13
14
14
14
13
13
14
13
13
12
12
11
11
10
10
10
9
8
8
7
7
6
6
7
7
6
6
6
6
7
8
9
10
10
10
11
11
12
13
13
14
14
15
14
15
15
15
15
16
16
16
18
19
20
20
21
21
22
22
23
25
26
25
26
26
25
24
24
23
23
21
21
20
19
18
17
16
16
14
13
14
15
16
16
15
15
14
15
15
16
18
18
18
19
20
20
20
19
17
16
14
13
12
9
6
4
4
5
7
10
12
14
15
16
16
16
15
14
14
14
14
13
13
12
12
11
10
8
4
0
-5
-13
-25
-41
-59
-77
-91
-102
-103
-92
-75
-55
-42
-31
-23
-14
-8
-3
0
2
4
6
7
8
9
10
11
11
13
14
15
16
17
18
18
18
19
20
20
20
20
20
21
21
22
22
22
21
22
23
23
24
25
26
26
25
24
24
25
24
23
22
22
22
22
22
21
20
18
18
17
18
17
17
16
16
16
15
15
15
15
15
16
16
16
16
16
17
17
17
19
20
19
19
19
19
19
19
20
20
19
19
18
18
18
18
19
19
20
20
22
24
24
23
23
23
22
23
21
21
19
19
20
23
24
24
24
23
23
21
21
22
23
22
21
22
22
21
21
21
22
22
22
23
24
23
23
23
24
24
24
23
21
19
17
15
14
13
12
11
9
6
5
5
6
8
10
11
12
12
11
10
9
9
9
9
9
10
10
10
10
9
8
5
1
-4
-12
-23
-38
-55
-73
-89
-103
-109
-107
-91
-71
-51
-37
-26
-17
-10
-5
-1
0
3
5
6
7
8
10
11
12
13
15
15
15
16
17
18
18
19
21
21
21
22
22
22
22
21
21
21
22
23
23
23
23
23
23
23
22
22
22
23
22
21
21
20
20
19
18
17
16
14
14
13
13
13
13
12
13
12
12
10
8
8
7
8
8
9
10
11
12
12
14
15
17
17
17
17
18
18
17
17
17
16
15
16
18
20
21
20
20
21
21
20
21
22
22
22
23
22
22
22
23
24
24
24
24
24
24
24
24
24
24
24
23
23
23
23
22
22
21
20
20
20
23
23
24
24
23
24
24
25
25
25
24
23
22
20
18
15
14
13
13
13
12
10
9
9
10
13
14
15
15
16
16
15
15
15
15
14
15
15
14
14
14
13
11
8
4
-2
-10
-21
-35
-52
-71
-89
-104
-110
-108
-90
-70
-51
-38
-28
-19
-13
-8
-5
-3
0
3
6
8
9
11
12
12
13
13
14
13
14
14
14
15
16
18
18
19
19
20
20
20
21
21
21
21
22
22
23
23
23
24
23
23
22
22
21
20
20
19
18
18
18
17
17
16
16
15
13
12
11
11
10
10
8
7
5
5
5
6
7
8
8
8
8
8
8
9
8
8
8
9
10
11
11
10
9
9
11
13
14
13
11
10
10
11
11
12
13
14
15
15
15
15
16
16
18
19
19
19
19
19
19
18
17
18
19
19
19
18
19
18
18
18
18
19
19
19
19
19
19
19
20
20
22
23
24
23
23
22
21
20
19
18
17
15
12
9
9
9
9
10
13
15
16
17
17
16
16
15
14
14
13
12
12
11
11
10
10
8
5
0
-5
-13
-26
-41
-58
-75
-88
-97
-96
-86
-70
-54
-42
-31
-22
-14
-9
-5
-3
-1
0
3
4
6
6
7
8
9
9
10
9
9
10
11
11
11
11
12
12
12
12
12
12
12
13
13
14
14
15
16
17
17
16
16
16
16
16
15
13
11
11
13
14
13
11
11
10
9
8
7
5
5
4
4
4
3
2
2
2
2
2
2
2
3
3
4
4
5
5
4
5
6
8
6
6
5
5
6
6
6
6
6
6
6
6
6
6
6
6
6
6
8
8
7
8
8
9
10
11
11
11
12
12
12
12
13
13
12
12
12
12
11
11
10
10
11
13
13
12
11
11
9
9
9
10
10
12
13
14
13
12
12
11
11
10
9
7
6
5
5
4
2
0
0
0
1
2
5
6
6
6
6
6
6
5
3
3
2
1
1
0
0
-1
-3
-5
-9
-15
-23
-33
-45
-59
-73
-85
-94
-97
-90
-77
-61
-49
-39
-30
-23
-18
-16
-13
-9
-6
-5
-3
-3
-2
-2
0
1
1
1
1
2
3
4
4
4
4
4
5
6
6
6
6
7
8
8
8
7
7
8
8
7
7
7
7
7
8
8
8
8
8
7
7
7
6
7
7
6
5
5
4
2
1
1
1
1
1
0
0
-2
-1
0
0
0
0
1
1
2
2
2
3
3
2
1
2
1
1
1
1
1
0
0
0
0
0
0
1
2
3
3
3
5
6
7
8
8
8
8
8
9
9
10
9
9
9
9
10
9
9
8
8
9
9
9
8
9
9
9
9
9
10
10
10
11
12
13
13
13
14
14
14
15
16
17
16
16
14
13
11
9
8
7
6
5
5
6
7
9
10
11
12
12
11
11
11
10
10
8
9
8
7
6
6
8
7
6
3
-1
-8
-18
-29
-44
-59
-72
-85
-92
-96
-88
-74
-57
-43
-35
-26
-17
-10
-5
-2
1
5
8
10
11
12
12
12
13
13
14
15
15
15
14
15
16
17
17
17
17
18
17
18
19
21
21
20
20
19
17
17
17
17
16
16
16
17
16
16
16
16
16
15
15
15
15
14
14
13
13
13
13
13
12
12
11
10
11
10
9
8
8
7
7
8
8
8
8
9
11
12
12
12
12
13
13
14
14
14
14
14
14
14
14
14
15
16
17
17
17
18
20
20
21
20
20
19
19
19
19
18
18
19
20
20
20
21
20
19
19
19
20
20
20
20
19
19
18
19
20
20
20
20
20
19
20
20
22
23
23
23
23
24
23
24
24
24
23
21
20
19
19
16
13
11
11
10
11
13
14
15
17
19
20
20
19
19
18
17
16
16
15
14
12
11
10
7
3
-2
-9
-21
-35
-50
-67
-83
-97
-103
-99
-85
-67
-49
-36
-27
-19
-12
-7
-3
0
3
5
6
7
8
9
8
8
9
10
11
11
12
12
12
11
10
11
11
11
11
11
10
10
9
10
10
10
10
10
9
9
9
9
9
8
8
7
6
5
6
6
6
6
5
5
5
6
6
6
5
5
4
3
3
4
3
2
1
1
1
2
4
4
5
5
6
7
7
8
8
9
8
8
9
8
9
9
9
9
9
8
9
10
11
12
13
15
14
14
13
13
13
13
14
15
17
17
17
17
17
17
16
16
16
16
16
16
17
18
19
18
19
18
19
19
20
19
19
19
18
17
18
20
21
22
22
24
24
24
25
25
24
23
22
21
20
18
16
15
13
11
10
10
11
12
15
17
18
18
18
18
17
18
17
16
15
16
17
16
16
15
14
12
10
6
1
-5
-16
-30
-47
-63
-75
-83
-79
-68
-51
-36
-26
-18
-11
-5
-1
1
3
5
7
9
9
11
11
13
13
14
15
15
15
15
16
16
16
16
17
18
17
18
17
17
17
17
16
15
17
18
20
21
20
19
19
19
18
18
18
17
17
17
17
17
17
16
16
15
14
14
14
14
13
13
12
12
11
11
12
11
10
10
11
11
11
11
11
11
12
13
14
16
16
16
16
16
16
16
17
17
18
18
18
19
19
18
17
18
18
19
20
21
23
24
24
24
25
25
25
25
25
24
24
24
24
24
24
23
24
23
23
22
22
22
23
23
23
23
24
24
24
25
25
25
25
27
27
28
29
29
30
29
31
31
30
29
27
27
26
26
24
23
20
19
18
19
19
20
22
23
24
25
26
25
25
25
24
24
23
23
22
22
21
20
19
18
15
11
5
-1
-11
-24
-37
-52
-64
-72
-75
-67
-52
-36
-24
-15
-7
0
4
8
9
12
13
15
16
18
18
19
20
19
19
19
20
22
23
24
23
24
23
24
23
24
24
24
24
24
23
23
23
24
24
23
24
25
25
25
24
25
24
23
22
22
23
23
24
23
21
20
20
19
18
18
18
18
18
17
17
16
15
14
15
15
15
14
15
16
17
18
17
18
18
17
17
18
20
20
21
20
20
20
20
20
20
20
20
21
20
20
19
20
21
23
25
25
25
25
25
25
24
25
24
25
24
24
23
23
22
22
22
23
23
24
24
23
23
23
23
23
23
25
25
25
25
25
25
24
24
24
25
25
26
26
26
27
26
26
26
24
22
21
21
20
17
14
14
14
14
16
19
20
21
22
22
21
20
19
21
20
20
19
19
18
17
16
17
16
13
9
4
-1
-11
-23
-36
-52
-66
-78
-85
-81
-68
-48
-34
-24
-15
-7
0
5
8
9
10
11
12
13
14
14
15
15
16
16
17
18
18
18
17
17
17
19
20
20
21
20
21
21
21
20
20
20
20
21
21
21
20
20
20
20
20
20
21
21
20
19
19
19
17
16
14
14
15
15
15
15
14
13
13
13
12
12
12
12
11
11
11
11
11
12
14
15
15
16
17
16
16
16
17
16
16
15
15
14
14
13
14
14
15
16
16
16
16
16
17
17
17
17
18
18
16
16
15
16
17
17
18
17
17
17
17
18
17
17
17
17
17
18
17
17
17
16
15
15
16
18
19
19
20
21
20
19
19
20
19
19
18
18
17
16
15
14
13
10
7
6
6
7
9
11
13
14
15
16
16
15
14
13
13
13
12
12
12
11
10
9
8
5
2
-2
-10
-21
-36
-52
-70
-83
-96
-98
-92
-75
-57
-42
-31
-23
-16
-11
-7
-3
-2
0
3
3
4
5
7
7
8
9
9
10
10
10
11
12
12
11
10
10
10
12
14
15
15
15
15
15
15
14
14
15
15
14
13
14
15
15
15
15
16
16
15
15
15
16
16
16
15
15
14
14
14
14
13
12
11
11
10
9
9
10
9
9
10
10
10
11
12
12
13
13
13
12
12
12
13
14
13
13
14
15
15
15
16
15
16
16
17
17
18
18
19
20
20
21
21
22
22
21
21
22
22
21
20
19
20
20
20
19
20
20
20
20
21
20
20
20
19
20
20
21
21
21
21
22
23
24
23
23
23
24
23
22
21
21
21
19
19
18
16
13
11
10
9
9
10
13
15
16
17
17
17
17
16
16
16
15
15
15
14
14
13
13
11
8
4
-1
-9
-21
-35
-51
-69
-83
-96
-98
-92
-76
-57
-42
-31
-22
-14
-8
-3
0
2
5
6
7
7
8
9
10
12
13
14
16
16
15
14
15
15
16
17
18
18
17
16
16
17
18
18
18
17
17
17
17
18
16
17
17
18
18
19
19
19
18
17
17
16
14
14
14
14
13
12
11
11
11
11
11
11
10
10
10
10
10
10
9
9
8
8
9
10
10
10
11
11
10
10
10
10
10
10
10
9
8
8
8
9
8
9
9
9
9
10
11
10
10
10
11
11
12
13
12
13
14
13
12
12
12
12
12
13
13
12
12
12
12
13
13
13
13
13
13
13
13
12
12
11
11
13
14
14
15
16
16
15
14
14
12
10
8
7
6
5
4
3
3
4
6
9
11
12
11
11
11
10
10
10
10
9
8
8
8
8
7
6
5
4
1
-2
-7
-15
-25
-39
-56
-73
-87
-96
-96
-82
-64
-47
-34
-24
-17
-10
-5
-2
0
3
5
8
9
10
11
12
13
14
15
16
15
16
16
18
18
18
18
19
19
19
19
19
19
18
18
18
19
19
19
19
20
20
20
20
19
18
18
17
17
16
15
15
15
14
13
13
12
11
10
11
11
10
10
9
9
8
8
7
6
6
6
8
9
10
10
10
10
10
10
9
9
9
11
12
12
11
11
11
11
12
11
11
11
11
11
11
12
12
13
13
13
13
13
13
14
15
15
14
14
14
14
14
15
14
14
14
15
14
13
13
15
16
16
16
15
16
15
16
15
15
16
15
16
16
17
18
18
18
18
18
18
20
18
15
12
11
10
7
4
2
2
3
5
8
11
13
14
14
15
16
15
15
15
15
14
13
12
10
9
8
7
6
3
-1
-8
-17
-31
-47
-64
-80
-92
-100
-100
-87
-69
-49
-37
-26
-18
-10
-4
0
2
4
7
9
11
13
15
16
17
18
19
19
19
20
20
21
21
21
20
20
20
20
21
21
23
22
21
21
22
23
23
23
22
22
21
20
20
19
19
18
18
19
19
19
19
19
19
19
18
17
16
16
14
14
13
12
12
12
12
11
10
10
9
9
9
10
11
10
10
10
11
11
12
12
13
13
13
14
15
15
15
16
16
17
17
18
18
19
20
20
20
20
20
20
21
22
22
23
22
23
22
23
23
24
24
24
24
24
24
23
23
24
24
24
24
25
24
25
25
25
24
23
23
24
25
25
26
27
27
27
28
29
30
29
27
26
24
22
20
19
19
17
15
13
13
14
15
17
18
20
21
23
23
23
23
23
23
22
22
20
20
20
20
19
17
15
12
6
0
-10
-22
-38
-55
-72
-86
-96
-102
-93
-77
-57
-41
-29
-16
-7
0
3
6
8
11
14
15
17
18
19
20
20
20
20
21
22
21
20
20
22
23
24
24
24
24
24
24
23
23
24
25
26
24
25
24
24
23
23
24
23
22
22
23
23
22
21
20
21
21
21
20
19
17
16
16
16
17
16
15
15
15
15
15
15
15
14
13
14
15
16
16
16
16
17
17
17
17
16
17
17
17
16
16
16
16
17
19
20
19
18
18
19
20
20
22
22
23
24
24
23
23
23
22
22
22
23
24
24
24
23
23
23
23
24
23
23
24
25
26
25
25
25
25
24
25
25
26
27
28
28
29
31
31
32
31
31
29
27
25
23
22
19
18
16
15
16
18
19
20
22
23
23
22
22
22
22
23
22
21
20
21
20
20
18
17
15
12
7
-1
-14
-31
-49
-68
-84
-97
-98
-89
-71
-53
-40
-29
-19
-9
-1
3
6
9
12
15
17
18
19
19
19
19
21
21
22
22
22
22
23
24
25
26
25
25
25
24
24
24
26
27
27
26
26
25
25
25
26
26
26
25
25
24
24
23
23
23
21
20
20
19
18
16
16
16
15
13
12
11
10
9
8
8
8
7
6
6
6
6
7
9
9
9
9
10
9
9
9
10
10
10
10
11
11
11
12
12
13
16
16
15
14
14
14
15
16
16
17
18
19
19
21
21
21
22
22
22
22
22
22
23
22
22
21
21
21
22
21
21
21
22
22
21
22
23
22
22
21
20
20
21
22
23
24
24
24
24
22
21
20
18
15
14
14
12
10
9
10
11
12
14
16
17
17
17
18
18
18
18
18
18
17
17
17
16
15
13
11
8
5
0
-7
-17
-32
-49
-65
-80
-90
-98
-93
-80
-62
-47
-35
-24
-14
-6
-2
0
3
5
8
10
11
11
11
11
11
11
11
12
13
14
14
15
15
15
15
16
16
16
15
15
15
15
15
14
15
15
15
14
14
14
14
14
13
13
13
13
13
12
12
10
9
8
8
8
8
7
6
5
3
2
2
2
2
2
1
0
0
0
0
0
-1
0
0
1
1
2
3
4
4
4
5
5
4
4
5
4
4
5
6
6
5
6
7
7
8
9
10
10
10
11
12
12
13
13
15
15
15
16
16
17
16
16
15
15
15
14
16
16
16
15
16
16
15
15
14
14
13
12
11
11
12
12
13
14
15
15
16
16
17
17
16
15
14
14
11
9
7
5
3
2
1
2
4
6
7
9
9
9
9
10
9
9
8
7
6
6
7
7
8
6
5
2
0
-5
-12
-21
-32
-49
-63
-79
-92
-99
-98
-84
-66
-49
-37
-27
-20
-13
-10
-6
-3
0
1
3
5
5
5
5
5
5
5
5
6
7
7
7
7
7
7
7
7
7
7
8
8
9
10
10
9
9
9
7
8
8
9
9
8
8
7
7
7
7
7
6
5
6
6
6
5
5
4
3
3
3
3
2
1
0
0
-1
-2
-1
0
-1
-2
-1
0
0
1
2
3
4
5
5
5
4
4
3
3
3
3
2
1
1
2
3
5
5
5
5
5
4
4
5
5
7
7
7
7
7
7
7
8
9
11
11
10
9
9
8
8
8
8
8
7
7
8
8
8
8
8
9
8
8
9
8
8
8
8
9
10
11
11
13
12
11
11
11
10
8
6
5
4
1
-1
-3
-3
-3
-2
0
1
3
4
5
6
5
4
4
5
5
4
4
3
3
1
0
-1
-4
-8
-14
-22
-35
-50
-66
-82
-94
-103
-102
-93
-76
-60
-48
-38
-31
-24
-18
-12
-8
-4
-2
0
2
3
3
4
5
6
7
7
9
9
8
8
8
9
11
12
12
12
11
11
11
11
11
11
11
10
11
13
15
14
12
11
11
11
10
10
11
11
10
9
9
9
8
8
8
7
7
7
8
8
8
7
7
7
7
7
7
6
6
6
7
8
8
9
9
9
10
11
11
12
12
12
12
12
13
12
12
12
12
12
13
14
15
16
16
17
18
18
18
18
20
21
21
21
22
21
21
21
21
21
21
22
22
23
23
23
23
23
23
23
23
24
25
25
25
24
24
23
23
25
25
26
25
25
25
25
26
27
28
28
28
27
24
22
21
20
19
17
15
13
12
10
10
11
13
15
16
17
17
17
15
15
14
15
16
16
16
15
15
14
13
11
8
5
0
-8
-20
-34
-48
-65
-78
-92
-97
-94
-79
-57
-40
-26
-17
-8
-2
1
4
8
12
13
14
15
15
15
16
17
18
18
19
19
20
20
20
20
21
22
22
22
22
24
25
25
26
26
26
25
25
25
24
25
25
26
26
27
27
26
26
25
26
25
25
25
24
23
23
22
22
23
21
20
19
20
19
19
18
17
17
16
15
15
16
16
17
16
17
17
16
17
17
17
17
18
18
18
18
19
19
19
18
19
20
20
20
19
19
20
20
21
21
23
24
24
24
24
23
23
23
24
24
24
23
24
24
26
26
25
25
25
26
25
24
23
24
24
23
23
22
23
24
25
25
25
25
25
26
26
27
27
28
28
26
24
21
19
18
17
15
13
11
10
10
11
13
15
17
17
17
17
17
17
17
17
16
16
15
15
13
13
13
13
10
8
4
0
-7
-17
-30
-48
-66
-84
-98
-107
-105
-89
-68
-49
-37
-26
-17
-10
-6
-3
-1
2
4
7
8
10
11
11
12
12
13
13
13
13
13
13
14
15
15
16
16
16
17
17
18
17
17
16
17
17
17
17
17
17
16
16
16
17
17
17
16
15
15
15
15
15
15
15
15
15
15
14
13
13
13
12
11
9
9
8
8
8
8
8
7
7
7
7
7
8
9
10
12
14
16
17
18
17
16
15
13
11
9
9
9
10
11
12
12
13
14
14
14
15
16
18
20
21
22
23
25
26
26
24
21
19
19
19
19
19
21
24
28
30
31
29
24
19
14
14
16
19
23
29
38
47
52
46
32
16
7
5
7
12
18
23
23
17
10
5
2
0
-1
0
3
11
17
18
12
7
3
5
10
16
17
15
10
3
0
0
2
7
11
13
13
7
-2
-15
-31
-48
-65
-83
-98
-109
-116
-115
-104
-83
-65
-49
-37
-27
-17
-9
-3
0
2
1
0
-2
-1
1
4
7
9
10
10
10
12
14
15
17
17
16
15
15
16
16
16
14
14
14
15
16
17
20
22
24
23
21
19
18
18
16
16
16
16
17
19
21
22
21
17
15
14
14
12
10
9
9
9
8
8
8
11
14
16
15
14
12
10
10
12
14
14
12
10
7
6
7
9
12
14
17
19
21
19
16
13
12
13
15
16
16
15
16
19
24
27
24
18
13
11
13
14
14
11
12
16
19
19
16
15
14
16
19
19
18
17
18
18
17
13
12
14
16
19
21
22
21
19
16
15
16
17
19
20
21
20
20
19
17
15
15
15
16
17
18
18
13
9
7
8
11
12
13
13
13
14
15
17
19
21
21
20
17
14
11
9
7
3
-2
-11
-25
-40
-57
-72
-87
-101
-104
-101
-83
-62
-43
-30
-21
-12
-3
2
6
8
9
8
7
8
9
10
12
15
19
19
17
15
15
15
16
17
16
16
17
17
19
20
22
21
19
16
14
14
14
15
15
15
16
16
16
16
15
16
16
15
14
15
15
15
14
14
14
13
12
13
14
15
15
16
17
18
17
12
5
0
-2
-1
0
2
3
5
7
9
8
8
8
8
7
9
10
12
11
10
10
12
15
16
13
9
6
5
5
5
6
8
9
11
13
15
15
15
15
16
18
21
22
20
16
13
13
14
14
16
17
17
17
15
13
12
12
14
17
19
20
21
19
17
16
16
16
16
17
17
20
20
19
18
19
19
18
17
14
13
13
12
9
7
7
8
10
13
15
15
15
13
13
14
15
16
15
14
13
13
13
14
15
17
18
13
6
-1
-9
-17
-29
-47
-68
-87
-100
-109
-107
-97
-79
-62
-48
-36
-27
-20
-16
-13
-10
-6
-2
0
1
2
4
5
7
9
12
12
12
12
14
17
19
18
12
9
6
7
8
10
12
14
16
17
19
20
20
22
23
24
22
19
15
13
13
15
16
16
17
20
22
22
20
17
14
12
11
13
14
15
14
14
12
11
8
6
6
8
9
6
4
2
1
2
4
6
8
10
10
9
8
8
11
14
15
13
13
14
16
16
14
11
8
7
8
9
10
12
16
19
22
25
27
28
27
24
21
19
18
18
19
21
22
24
25
26
26
23
21
22
25
26
26
27
29
30
29
26
22
19
19
21
23
26
27
29
32
33
33
32
31
31
30
28
26
23
19
16
14
13
12
11
13
17
20
21
21
23
24
25
25
26
26
25
24
24
24
22
20
18
15
11
6
0
-9
-22
-38
-58
-75
-92
-101
-104
-95
-75
-53
-34
-22
-14
-7
-1
2
5
8
13
16
18
19
19
19
19
21
23
26
28
31
31
29
27
24
24
26
30
33
33
30
28
28
29
30
29
29
28
28
28
29
29
28
28
29
30
32
32
31
28
27
25
24
24
24
25
26
26
23
21
20
19
18
18
18
18
19
20
20
19
19
19
21
22
24
25
24
22
19
17
16
16
16
17
19
19
21
23
26
27
26
24
22
22
24
27
27
27
27
28
29
30
31
30
29
28
30
33
34
33
32
33
36
36
34
30
28
27
30
33
35
36
35
33
29
28
28
30
30
30
30
31
33
33
37
40
40
37
34
33
32
30
27
25
24
23
20
16
15
15
17
19
22
24
23
24
25
26
26
28
28
28
24
19
17
16
15
12
11
9
6
1
-5
-14
-27
-42
-58
-72
-83
-93
-94
-86
-70
-53
-40
-26
-15
-7
-4
-1
4
10
15
16
14
11
10
11
14
15
16
17
19
19
20
21
23
25
25
26
26
25
24
22
21
19
18
19
21
22
22
21
19
18
17
17
17
17
16
16
17
17
17
16
16
16
17
17
15
13
13
12
12
12
12
11
11
12
13
11
9
6
4
4
3
4
5
6
8
10
11
12
13
13
12
10
8
6
6
8
8
9
11
12
13
15
18
20
18
14
11
8
8
9
10
11
13
14
16
17
16
16
16
18
18
19
20
21
21
22
22
19
15
13
13
14
14
15
15
17
18
18
17
17
18
19
20
21
23
23
22
21
19
18
17
17
16
15
14
12
9
5
3
3
4
5
7
9
11
13
13
14
14
14
13
12
11
10
9
7
6
5
5
4
3
1
-2
-9
-18
-30
-43
-59
-71
-84
-93
-95
-89
-74
-58
-42
-31
-21
-14
-9
-6
-4
-1
1
3
5
5
6
7
9
12
14
16
16
14
11
10
10
11
12
12
13
15
15
15
16
16
16
15
14
15
16
17
17
17
18
18
16
14
12
11
10
10
10
11
11
11
11
10
8
7
7
8
8
8
8
9
8
7
7
5
2
1
2
3
3
4
7
8
8
8
8
7
6
6
9
10
8
4
2
3
4
4
3
4
6
8
8
8
7
7
7
8
9
9
10
10
10
10
11
13
15
15
16
16
17
18
21
26
24
19
14
13
13
14
16
17
18
17
17
18
18
18
18
20
22
23
23
24
23
23
24
24
26
25
25
24
24
24
23
22
20
18
15
14
13
13
12
14
17
19
21
22
23
22
21
20
19
20
20
20
19
19
19
19
18
17
16
12
6
-1
-11
-26
-42
-59
-72
-83
-84
-75
-58
-42
-28
-18
-9
-3
1
5
9
12
13
15
15
17
17
17
18
17
17
17
19
20
21
22
23
23
25
27
29
30
27
24
21
18
18
17
19
20
21
22
22
21
21
21
23
24
24
24
23
23
24
26
27
26
22
19
16
15
16
16
17
17
17
16
15
16
17
17
17
16
16
15
14
14
13
13
13
13
13
13
13
14
14
13
14
15
16
15
14
13
13
14
14
16
16
18
18
18
17
18
20
23
26
27
27
25
22
19
17
18
19
21
21
21
21
23
24
25
26
26
26
26
27
27
28
28
29
30
30
30
31
33
31
30
30
31
33
34
33
31
28
27
26
25
23
21
20
19
17
15
13
12
12
13
16
19
20
20
19
20
20
21
22
22
21
17
14
13
13
12
11
10
9
7
3
-2
-11
-22
-38
-56
-73
-87
-94
-93
-79
-60
-42
-28
-17
-7
-1
1
2
4
8
11
13
13
11
12
14
14
10
7
7
9
10
11
12
13
14
14
14
15
15
15
16
17
19
19
19
17
15
15
15
15
14
13
13
15
16
16
15
12
10
10
12
12
11
11
11
11
13
15
16
16
11
5
1
1
2
1
2
2
3
3
3
2
1
2
3
5
7
8
9
8
6
5
5
6
8
11
14
16
18
18
15
10
6
5
6
8
9
12
14
16
18
21
24
21
14
8
6
8
11
14
13
13
14
17
21
21
18
14
12
11
13
13
11
6
3
4
7
9
7
4
3
4
7
9
12
16
23
27
24
13
0
-7
-9
-5
0
2
-1
-7
-9
-5
0
3
6
6
6
4
3
5
7
8
7
5
4
3
4
5
3
-2
-6
-8
-11
-18
-28
-39
-49
-61
-72
-86
-99
-106
-99
-80
-59
-45
-38
-31
-23
-13
-8
-8
-12
-13
-9
-2
6
14
16
13
8
5
1
-1
0
2
2
3
7
14
15
10
1
-1
0
4
9
11
10
6
4
4
6
9
13
18
20
18
10
4
1
3
5
6
4
0
-4
-3
2
8
9
5
0
-1
-1
0
0
2
6
10
13
9
3
-2
-5
-5
-5
-4
-2
0
3
6
9
9
6
1
0
2
8
10
11
11
8
3
0
0
3
6
8
12
13
13
10
8
5
2
2
4
6
8
9
10
11
14
18
20
21
19
15
12
11
12
12
12
13
15
16
15
13
11
9
8
7
9
10
12
13
13
13
13
15
15
17
19
19
17
12
9
8
8
9
8
4
-1
-3
-2
-1
0
3
6
9
12
14
15
12
8
7
8
10
13
14
11
9
6
1
-4
-10
-14
-21
-32
-49
-68
-86
-101
-106
-107
-93
-74
-55
-39
-30
-23
-19
-13
-9
-6
-3
0
3
5
5
4
6
10
14
15
13
9
6
5
4
5
6
8
8
8
7
8
9
9
9
10
11
11
11
10
9
8
9
11
12
12
13
15
17
17
16
15
14
11
11
12
14
14
13
10
7
4
2
3
4
5
5
6
8
8
8
7
7
5
3
0
-1
0
0
1
2
4
8
10
9
6
3
3
4
5
6
8
11
13
14
11
7
5
6
6
8
9
9
10
12
13
13
13
14
15
14
12
12
15
16
15
11
9
8
7
7
7
8
9
9
9
8
8
8
10
14
18
18
15
11
6
5
8
10
12
13
14
12
10
8
6
4
4
5
7
7
7
4
1
0
0
1
0
-1
0
2
3
4
4
2
2
1
0
0
0
0
-2
-6
-11
-15
-20
-29
-44
-60
-78
-93
-108
-117
-117
-105
-83
-62
-47
-40
-32
-26
-19
-15
-10
-6
-3
-4
-3
0
3
3
1
2
6
10
9
6
2
0
1
3
5
7
8
9
10
11
11
9
9
9
11
12
13
11
8
7
7
8
9
8
8
8
7
6
4
5
3
2
0
1
2
2
1
1
1
1
0
0
0
0
0
-2
-4
-5
-3
-1
-1
-2
-3
-4
-3
-2
0
0
0
0
1
5
5
3
0
-1
0
1
2
2
3
6
9
8
6
5
7
11
12
11
10
7
5
3
3
4
6
8
10
11
12
13
14
13
10
9
9
9
8
8
10
12
12
10
9
9
12
16
18
18
17
18
18
17
17
19
20
21
22
24
22
15
8
6
7
8
5
0
-3
-3
-1
3
6
9
12
13
14
12
12
13
15
15
13
12
12
13
11
8
0
-9
-15
-25
-41
-62
-79
-92
-104
-108
-109
-96
-77
-56
-40
-30
-23
-19
-15
-11
-6
0
5
10
12
14
15
15
18
23
26
24
19
16
15
14
13
14
15
17
19
21
24
27
31
34
33
29
22
20
23
26
24
20
18
18
20
21
22
21
20
22
27
29
26
22
20
21
22
24
26
27
26
25
23
20
17
16
17
17
16
15
14
14
15
16
18
20
23
25
24
19
17
16
19
21
24
26
27
27
28
30
32
33
30
24
21
21
23
25
26
27
27
25
24
26
28
30
29
29
31
32
33
33
35
36
37
35
33
33
32
32
31
32
34
38
40
37
30
24
23
26
29
29
31
33
35
36
35
34
31
30
29
29
29
28
26
25
25
24
23
21
20
21
24
27
28
27
23
20
19
21
23
24
23
22
22
23
22
21
20
19
18
15
11
5
-5
-22
-42
-61
-78
-89
-98
-99
-91
-73
-53
-37
-25
-16
-7
-1
3
8
12
15
17
20
24
27
32
33
31
25
17
14
14
15
17
20
22
22
22
23
25
25
26
25
24
22
22
23
23
22
22
22
22
24
25
28
31
31
29
27
24
19
15
14
15
15
15
15
15
14
14
14
16
16
17
17
18
18
16
13
10
9
8
7
6
8
9
11
13
14
14
13
14
15
15
15
13
13
12
12
13
14
13
11
10
11
13
13
13
13
14
16
17
19
20
21
20
19
17
17
17
19
21
22
23
24
24
24
24
22
22
20
17
14
12
13
15
16
17
18
19
19
19
20
21
24
27
29
27
26
24
20
15
13
12
10
9
8
7
7
5
6
7
9
11
14
16
18
19
19
18
15
13
11
11
10
9
9
9
10
8
6
2
-2
-7
-16
-27
-43
-60
-78
-94
-103
-109
-99
-81
-59
-40
-26
-16
-9
-6
-6
-7
-7
-5
-2
0
1
2
4
4
6
8
9
8
8
9
12
14
14
13
11
11
11
11
12
12
12
13
16
16
18
18
17
14
11
10
11
12
12
12
12
12
13
12
11
8
7
6
7
7
8
8
6
5
5
6
5
3
2
2
2
3
2
2
3
5
3
0
-2
0
1
2
2
4
6
7
8
10
12
14
13
9
5
3
3
5
6
8
10
13
14
13
11
10
9
9
10
10
12
13
14
16
17
19
18
18
16
16
16
18
20
19
19
18
20
21
22
21
19
18
17
18
19
20
19
20
19
21
22
24
23
21
20
20
19
19
19
19
18
16
13
11
10
10
11
12
13
14
16
18
19
20
19
18
18
19
17
16
15
16
16
14
12
9
6
2
-3
-9
-18
-29
-43
-57
-69
-82
-89
-90
-80
-63
-47
-35
-27
-19
-12
-6
0
4
8
11
12
12
11
11
12
15
16
17
18
20
21
22
20
18
15
14
15
15
16
17
18
20
20
22
24
28
31
29
24
18
16
16
17
19
20
22
22
22
23
24
25
25
24
21
18
16
15
15
15
16
18
20
22
24
22
17
11
8
7
8
9
10
11
12
12
13
14
15
15
14
14
13
13
12
14
16
19
19
17
15
16
17
17
17
16
16
17
18
20
21
23
25
26
26
26
25
25
24
23
23
25
26
26
28
31
32
31
28
24
23
23
23
24
24
24
24
24
24
24
25
27
31
34
33
31
25
22
22
23
24
24
24
23
22
20
20
21
22
19
15
11
9
11
13
15
16
17
18
19
21
24
25
24
21
15
10
8
8
10
11
12
11
9
5
0
-7
-16
-28
-41
-56
-67
-77
-79
-73
-59
-43
-30
-21
-12
-3
3
7
10
15
19
21
20
17
14
12
12
14
17
18
20
21
22
23
23
23
21
20
18
18
19
21
22
20
19
19
20
21
24
25
24
21
17
14
12
12
12
14
17
18
18
17
16
15
15
15
14
12
10
9
9
9
9
10
10
11
11
10
9
8
5
3
3
3
3
4
6
9
11
12
12
10
8
7
7
7
8
9
11
10
9
10
11
13
13
13
13
14
14
15
18
19
20
17
16
15
16
17
17
18
18
19
20
21
20
19
18
16
15
16
17
19
21
22
23
23
21
19
15
14
13
13
14
16
17
18
19
19
21
23
25
26
26
22
17
13
12
11
10
8
7
7
8
10
13
16
18
20
22
24
23
22
19
16
13
12
12
13
12
11
10
9
6
3
0
-7
-17
-29
-42
-59
-73
-87
-93
-89
-76
-54
-37
-24
-18
-13
-10
-8
-8
-5
-1
1
3
4
6
8
9
10
12
15
17
19
19
18
16
13
10
10
10
12
14
15
15
15
15
16
18
18
18
17
15
13
13
15
17
18
19
19
19
18
19
19
19
17
14
11
9
8
8
9
10
10
10
11
10
8
5
3
2
2
3
3
5
6
7
8
7
6
5
4
4
4
7
8
9
7
6
5
5
6
7
8
8
7
7
9
10
12
12
12
12
11
11
12
15
16
16
15
14
15
16
17
17
17
16
14
14
14
15
15
17
19
20
20
21
21
19
18
18
19
20
22
24
26
26
25
25
26
26
26
26
26
24
23
21
21
20
19
17
16
14
13
12
13
16
18
19
19
19
20
20
21
20
21
20
19
18
18
19
18
17
17
14
9
1
-8
-22
-41
-60
-77
-90
-97
-93
-77
-56
-38
-27
-19
-12
-5
-1
2
4
7
10
13
16
17
18
17
16
16
18
19
20
21
24
27
26
25
23
20
18
18
19
20
21
21
22
22
22
21
21
22
22
22
22
21
21
22
21
21
21
20
18
15
14
14
16
17
17
16
15
15
15
14
14
13
13
13
12
12
12
11
11
12
12
12
11
12
13
14
14
12
9
8
10
11
12
14
16
16
16
15
16
18
20
20
18
14
13
14
17
18
19
19
20
20
20
21
21
21
21
22
23
24
25
25
25
24
23
23
24
25
26
26
26
26
27
27
26
25
24
24
23
23
23
23
24
26
27
28
30
31
29
26
25
24
23
20
18
17
17
16
16
13
11
10
13
16
19
21
21
22
21
19
17
16
17
17
16
14
14
13
10
7
5
1
-4
-13
-24
-36
-48
-63
-75
-88
-95
-92
-81
-61
-44
-31
-21
-13
-6
-1
1
4
7
8
8
10
11
11
12
12
12
10
11
11
12
12
12
13
14
15
17
19
20
18
17
17
18
18
19
21
21
19
17
18
18
17
17
18
19
20
21
21
21
18
17
17
17
19
19
18
15
12
10
10
11
13
14
15
15
13
11
8
8
8
7
6
6
8
9
10
11
12
14
14
13
12
10
10
11
12
12
12
12
13
15
16
16
17
15
15
15
15
14
14
15
18
21
23
23
22
20
17
15
15
16
18
20
21
22
22
21
19
18
17
16
17
17
17
16
16
16
16
17
17
19
20
21
22
24
25
25
24
22
21
18
16
15
15
15
14
12
9
6
4
4
7
9
12
14
16
18
20
20
19
17
16
16
15
13
11
9
8
9
9
9
5
-1
-11
-23
-40
-57
-75
-91
-103
-106
-97
-80
-59
-44
-33
-24
-17
-13
-9
-6
-2
1
5
8
9
10
12
14
15
16
17
18
21
23
23
22
19
16
16
17
17
17
18
19
20
21
20
19
18
19
19
18
19
20
21
21
22
23
24
24
24
24
22
19
17
17
16
16
17
19
21
19
15
12
11
11
10
12
13
13
13
14
14
14
14
14
14
13
13
14
16
17
18
19
19
20
21
22
23
24
24
24
25
24
23
21
21
23
26
28
27
25
23
22
22
24
24
25
27
28
28
27
27
26
27
27
27
28
28
30
31
33
33
29
23
19
19
20
21
23
24
25
26
27
26
26
26
26
28
29
30
30
30
29
28
27
25
22
20
17
15
13
12
12
15
18
21
20
20
21
22
23
26
26
25
23
22
23
22
20
17
15
14
11
7
2
-5
-16
-30
-46
-64
-77
-87
-91
-83
-69
-50
-37
-26
-17
-9
-1
4
7
9
12
15
16
16
18
20
22
22
21
20
20
20
21
23
24
24
24
25
26
27
27
26
26
25
25
25
25
25
26
27
28
29
29
29
29
27
27
27
29
29
29
27
24
22
21
22
22
21
20
21
20
20
21
21
20
17
16
16
18
17
16
14
14
13
13
14
15
16
18
20
19
16
15
15
16
17
18
19
19
17
17
17
17
18
19
20
22
24
24
21
19
18
18
17
18
20
22
23
23
24
24
24
23
22
23
22
22
22
21
21
21
20
19
19
19
20
19
20
20
19
19
19
20
20
21
21
22
23
24
26
26
26
25
25
24
23
22
21
18
14
11
8
6
7
11
15
17
18
18
18
18
18
18
19
20
19
19
18
18
16
15
12
11
10
7
3
-3
-13
-27
-43
-62
-79
-94
-98
-92
-74
-54
-38
-26
-17
-10
-4
0
4
8
12
14
13
13
12
12
12
13
15
17
18
18
19
19
19
19
19
19
20
22
22
22
21
21
21
21
21
21
20
19
18
18
19
19
19
19
19
19
20
20
20
19
17
15
14
13
14
13
12
13
13
13
13
13
11
9
9
9
9
7
7
7
8
8
9
9
11
13
13
13
13
14
15
15
15
16
18
18
18
18
17
15
13
14
15
15
15
14
14
16
17
18
19
21
21
20
21
21
22
22
20
19
18
18
19
21
22
24
25
24
20
17
16
17
19
20
20
19
18
17
16
15
15
15
15
15
15
16
16
18
20
20
20
20
20
20
17
15
14
12
10
8
7
6
6
6
8
11
13
15
15
15
13
12
13
14
13
13
12
11
11
11
11
11
10
7
2
-3
-12
-24
-40
-58
-75
-90
-102
-108
-103
-88
-68
-49
-36
-25
-17
-9
-4
-1
2
6
9
10
12
14
16
16
18
19
20
21
22
22
24
26
25
24
22
20
21
23
25
25
26
26
27
27
28
28
28
28
27
26
26
27
26
25
26
26
26
25
25
24
25
24
23
22
22
22
22
22
21
21
20
18
15
13
13
13
14
14
14
14
15
15
15
16
17
18
17
16
16
17
17
18
19
19
19
19
18
17
16
16
16
18
18
18
17
17
18
18
20
20
19
20
21
21
21
21
20
21
20
21
21
22
23
21
21
21
21
20
19
19
19
19
20
21
20
19
19
21
21
22
22
22
23
24
25
26
27
27
27
26
24
21
18
16
14
12
10
8
7
6
6
8
10
13
15
15
15
15
15
16
15
14
15
15
16
15
14
12
10
7
3
0
-5
-14
-25
-40
-56
-73
-88
-101
-109
-103
-91
-71
-54
-40
-30
-21
-15
-10
-6
-3
0
3
5
6
8
11
13
14
14
13
12
12
13
14
14
15
15
17
18
18
19
20
19
16
16
16
16
16
15
16
15
14
14
14
14
13
12
13
15
16
15
13
12
12
12
11
9
9
8
9
9
9
8
7
6
6
6
5
5
5
5
5
3
3
2
3
3
3
3
4
5
6
6
4
4
4
4
4
4
5
7
7
6
5
5
5
5
6
7
8
9
9
9
9
8
8
9
10
10
9
8
9
8
9
10
11
12
12
11
11
10
11
10
11
11
11
11
10
8
8
8
9
10
11
12
13
14
15
16
17
16
16
15
14
12
10
10
9
8
7
4
0
-1
-2
-1
2
5
7
9
10
10
9
10
10
10
7
6
6
7
8
8
8
7
4
0
-5
-13
-24
-39
-57
-76
-95
-110
-120
-121
-110
-92
-70
-53
-40
-29
-21
-15
-11
-9
-7
-3
0
1
2
3
3
2
2
3
5
6
7
7
7
6
6
7
8
8
7
7
8
8
9
10
11
10
12
14
14
11
8
8
8
8
7
8
9
9
8
8
8
8
7
6
5
4
4
4
6
6
4
2
1
1
1
1
0
0
-2
-3
-4
-3
-2
-1
-1
0
0
0
1
2
2
2
1
1
2
3
5
6
8
7
3
1
1
3
3
3
3
4
5
7
8
9
11
12
14
13
11
9
8
8
9
11
12
13
11
10
10
11
12
13
14
14
12
11
11
12
13
14
13
12
11
12
13
13
13
14
15
17
17
17
16
14
12
12
12
12
12
13
13
11
8
6
6
8
10
12
14
16
15
14
14
13
12
12
12
12
13
14
15
13
12
9
6
2
-2
-9
-19
-31
-45
-62
-77
-92
-98
-96
-82
-64
-49
-37
-27
-17
-9
-3
0
4
6
8
9
11
13
14
14
13
13
13
15
18
21
20
18
16
16
17
18
19
20
21
21
21
21
22
22
22
23
25
26
24
22
21
20
20
20
21
20
17
16
15
16
15
15
16
15
14
14
15
14
13
13
13
13
12
12
12
11
10
9
10
10
10
11
12
13
15
16
16
16
15
15
14
15
15
15
15
15
17
17
18
17
16
14
15
16
18
18
17
17
18
17
16
17
17
18
19
21
22
22
22
22
23
23
23
23
22
23
22
22
22
21
21
22
22
22
21
20
19
18
18
18
19
21
22
24
24
25
25
25
25
23
22
21
21
20
20
21
21
19
15
12
12
13
15
16
16
17
18
18
19
19
19
19
19
18
17
15
14
14
13
12
10
8
5
0
-10
-22
-37
-54
-70
-83
-92
-96
-90
-75
-58
-44
-32
-21
-13
-7
-2
0
4
7
8
10
11
14
15
16
16
16
16
14
12
12
12
11
12
14
16
18
19
20
18
16
14
14
13
12
12
12
13
12
13
14
14
12
12
12
13
14
14
14
15
15
13
10
8
7
7
7
6
4
4
4
5
4
3
2
1
1
1
2
2
2
2
3
4
5
6
7
7
6
5
6
6
7
6
4
2
2
2
2
3
5
5
5
4
4
4
4
4
5
6
6
7
9
10
10
10
9
8
8
8
10
10
9
9
9
8
8
9
10
11
11
9
9
8
8
7
8
9
10
11
12
14
14
14
12
12
12
12
13
16
18
18
18
18
18
17
15
13
11
9
6
3
1
1
2
5
9
13
15
14
13
12
11
10
10
9
10
11
11
10
9
9
8
6
2
-1
-5
-12
-21
-35
-50
-66
-83
-96
-109
-114
-113
-100
-79
-61
-44
-30
-18
-10
-7
-6
-6
-5
-2
0
2
4
7
8
8
9
11
14
15
15
13
12
11
11
12
13
13
14
14
14
15
16
18
20
20
20
19
13
7
4
5
6
7
7
9
10
11
13
12
12
10
6
5
5
5
4
4
5
6
5
6
6
6
5
3
2
0
0
0
1
4
6
9
10
9
5
3
2
3
4
5
6
7
8
9
11
15
17
17
14
11
8
8
8
9
10
11
12
14
16
17
18
18
20
21
22
25
26
25
22
18
16
15
15
16
18
19
22
24
27
26
24
21
18
17
17
17
17
17
18
18
19
19
21
21
22
24
26
29
32
34
31
27
21
18
16
14
13
12
10
7
6
7
8
10
13
17
20
20
19
19
18
17
15
15
16
17
15
11
9
8
9
9
7
3
-2
-10
-19
-33
-52
-73
-94
-109
-120
-116
-102
-78
-58
-44
-34
-25
-17
-10
-5
-2
1
6
10
11
9
5
3
3
5
7
8
9
10
11
12
13
14
14
14
15
17
20
24
25
21
13
8
8
9
10
11
12
13
14
14
15
16
16
15
15
16
19
20
18
14
9
5
4
4
5
6
6
6
6
7
7
8
8
6
3
0
0
0
0
1
2
4
5
6
7
10
12
14
12
9
6
3
1
0
0
2
4
5
6
8
9
11
12
14
15
15
13
12
10
9
10
11
12
12
12
12
13
14
14
13
11
10
10
12
13
12
11
9
9
10
11
12
12
14
14
14
12
12
10
9
8
9
11
12
13
14
14
14
14
13
12
10
9
9
10
10
9
6
2
-1
-3
-3
0
1
2
4
5
6
5
5
5
5
5
7
11
14
12
4
-3
-9
-13
-17
-23
-33
-48
-65
-81
-97
-107
-114
-107
-93
-72
-54
-43
-36
-32
-28
-25
-21
-16
-11
-7
-5
-3
-1
1
3
4
4
4
3
2
2
2
3
4
5
5
6
7
8
10
12
13
11
9
6
4
3
2
3
3
4
5
6
8
10
12
13
12
7
3
0
-1
-1
-1
0
1
3
4
5
4
3
3
2
1
0
0
0
-1
-1
0
0
2
3
4
6
8
8
6
3
2
2
2
3
3
3
4
4
5
6
8
9
8
7
5
3
4
4
5
6
9
9
9
10
11
12
13
14
17
21
21
19
15
11
8
7
9
10
11
11
12
12
13
14
15
17
18
19
17
15
13
11
12
12
14
14
15
17
19
21
22
21
19
16
14
14
14
13
12
10
8
5
4
4
6
8
10
11
10
8
7
8
8
9
9
9
8
8
9
9
10
11
10
6
1
-2
-7
-13
-21
-33
-48
-65
-80
-90
-99
-97
-87
-69
-54
-42
-33
-24
-16
-10
-6
-2
0
3
6
8
10
12
14
14
16
16
16
15
11
9
8
9
11
13
14
15
16
16
17
17
20
22
24
24
23
19
15
15
16
17
17
17
18
20
21
21
21
21
21
20
20
20
19
17
14
14
14
14
14
14
15
13
12
13
14
15
16
16
14
10
8
6
7
8
10
11
12
13
13
13
14
14
15
16
18
20
20
20
18
16
14
13
13
13
13
13
16
18
20
21
22
24
26
27
27
25
21
16
15
15
16
18
19
20
19
19
18
20
22
23
23
21
19
17
17
17
16
17
19
20
21
21
21
23
24
27
29
31
29
27
22
19
18
16
15
15
15
14
12
11
11
11
12
13
13
11
9
9
10
11
12
12
13
13
13
11
11
11
9
6
5
4
2
-2
-9
-19
-31
-46
-62
-78
-93
-103
-108
-100
-84
-64
-46
-35
-26
-21
-15
-11
-7
-4
0
2
5
7
7
9
10
11
13
15
17
18
16
13
10
9
10
10
12
13
14
16
17
18
17
19
21
24
25
26
24
20
17
16
15
14
14
16
18
19
20
20
20
21
21
22
22
20
16
12
10
9
11
12
11
10
10
10
10
10
11
11
11
12
13
15
15
14
14
13
11
10
9
9
9
11
11
12
14
16
18
18
16
14
14
14
12
11
10
11
14
17
18
19
19
18
18
18
18
17
16
15
15
15
16
15
13
13
13
13
14
16
18
19
17
14
13
12
12
13
14
14
15
14
14
15
16
18
20
22
24
26
26
26
22
16
12
10
11
10
9
6
4
5
5
6
8
11
14
16
18
17
18
18
17
13
8
6
5
6
6
6
6
5
3
0
-5
-12
-22
-35
-51
-65
-81
-94
-99
-96
-81
-66
-50
-37
-26
-18
-12
-7
-4
-1
2
7
9
10
12
14
14
13
11
9
9
9
9
11
13
15
17
19
19
18
18
18
18
19
19
19
17
16
16
17
18
18
19
19
21
21
21
20
17
14
11
12
13
13
13
13
14
13
13
13
14
15
15
17
18
17
13
8
3
1
1
3
5
7
8
9
10
11
12
13
14
15
15
17
18
18
16
13
10
8
7
7
8
10
12
14
15
15
15
15
16
17
17
18
19
20
19
17
16
17
18
20
23
26
26
22
17
14
12
12
12
13
14
15
15
15
16
16
16
16
16
16
16
18
18
18
19
22
25
26
24
19
16
14
14
13
14
14
13
12
12
11
10
10
10
11
13
14
14
14
15
16
17
18
18
18
19
19
19
18
16
12
8
4
1
-2
-7
-16
-30
-47
-66
-83
-97
-105
-101
-86
-64
-47
-37
-28
-20
-13
-7
-2
0
3
6
10
12
14
15
16
17
18
19
21
21
21
22
22
24
24
24
25
25
27
28
31
31
31
28
25
24
24
25
27
28
28
30
30
28
27
28
29
28
27
27
27
27
26
26
25
25
24
23
23
21
20
19
20
19
19
19
19
18
18
18
17
18
18
19
20
21
21
21
21
21
22
22
23
23
22
23
22
23
24
26
27
27
25
23
22
22
22
22
23
24
26
27
27
28
29
32
33
34
33
31
30
30
30
31
31
29
27
27
28
30
33
34
33
33
33
33
31
29
28
28
29
29
30
31
32
33
35
36
36
34
32
32
31
30
31
30
27
25
25
23
21
21
20
21
23
26
29
29
27
26
27
28
28
28
30
31
31
29
27
26
25
26
27
27
23
16
7
-4
-17
-36
-57
-75
-92
-100
-101
-86
-62
-41
-23
-12
-3
2
6
7
9
13
17
20
22
24
26
28
31
31
31
30
30
30
30
30
31
31
32
32
34
35
36
37
38
37
32
28
27
27
28
28
29
30
31
30
30
30
31
32
32
33
32
30
27
25
23
22
21
21
22
22
23
24
24
22
21
20
19
19
18
19
19
20
20
23
25
27
28
26
24
24
25
27
28
29
29
29
28
28
27
26
27
28
28
29
29
29
29
28
28
28
29
29
30
31
32
33
33
33
35
35
36
34
33
31
30
29
29
30
30
31
32
33
33
34
34
32
32
32
34
34
33
32
32
33
34
33
32
31
31
33
35
36
36
35
34
32
31
31
31
30
27
25
24
24
25
27
29
31
30
28
28
28
29
30
32
33
32
31
30
30
28
27
26
24
22
20
15
6
-6
-21
-37
-54
-68
-81
-88
-88
-77
-60
-42
-27
-14
-4
4
9
12
14
17
21
24
26
25
25
25
26
26
27
29
29
29
28
29
30
31
30
30
28
28
28
28
30
31
32
32
33
31
30
28
26
27
27
27
26
25
25
24
25
25
25
25
25
25
24
23
22
22
23
23
23
21
17
14
14
14
15
15
16
16
18
19
19
19
17
17
18
20
23
25
27
27
27
25
23
22
22
21
20
20
21
22
22
22
22
22
23
23
24
25
27
29
29
27
25
24
25
26
27
28
27
28
28
29
30
32
32
30
29
28
28
29
30
31
31
32
32
32
30
29
30
30
32
32
34
34
33
33
34
35
34
35
35
34
32
29
27
26
28
27
25
21
18
17
18
19
21
22
24
25
25
26
25
24
24
22
21
20
21
20
20
19
19
17
12
5
-2
-12
-23
-36
-49
-63
-77
-89
-97
-94
-82
-65
-49
-37
-26
-17
-7
-1
3
5
7
8
9
8
8
9
11
12
13
15
17
18
18
16
14
13
12
13
13
14
15
16
17
17
18
22
24
26
24
18
12
8
8
9
11
12
12
12
13
13
13
13
13
13
13
14
14
14
13
10
7
4
3
2
2
2
3
3
4
5
7
8
9
9
8
5
3
2
3
5
7
8
9
11
12
13
14
14
14
14
13
12
11
11
10
8
9
10
11
12
12
13
14
16
16
17
17
16
15
15
16
16
16
14
13
13
13
14
14
13
13
15
15
16
16
15
14
11
11
13
15
16
15
13
12
11
12
13
14
13
14
15
16
15
15
15
15
14
11
9
7
8
7
4
1
0
-1
-1
0
1
2
3
5
6
6
6
5
3
1
1
1
2
1
0
-1
-2
-2
-4
-8
-15
-26
-38
-53
-67
-81
-95
-104
-107
-95
-79
-60
-46
-35
-27
-21
-15
-11
-7
-2
0
0
-2
-5
-5
-3
-2
-1
-1
0
0
0
0
0
0
0
1
4
7
8
5
2
0
0
0
0
0
1
3
4
5
6
7
8
7
3
0
-2
-2
-1
0
1
0
0
-2
-1
-2
-1
-1
-1
-2
-3
-3
-3
-3
-4
-6
-7
-6
-5
-6
-6
-6
-4
-2
1
4
6
5
2
-2
-5
-6
-5
-4
-2
-1
0
0
1
1
1
2
3
4
4
6
7
8
10
15
17
15
8
1
-2
-3
-1
1
3
3
4
5
6
6
5
6
7
9
11
15
18
16
9
3
0
1
2
3
3
5
6
8
10
12
13
13
11
7
4
4
5
5
4
5
6
5
3
0
0
-1
-3
-3
-1
1
1
-1
-4
-4
-4
-3
-2
-1
0
0
1
1
1
0
0
-1
0
1
3
3
-1
-12
-28
-46
-64
-82
-96
-110
-117
-119
-107
-90
-71
-56
-45
-35
-28
-21
-17
-14
-11
-8
-4
0
6
9
8
4
0
-5
-9
-9
-7
-4
-1
0
2
4
4
4
4
4
4
3
4
5
5
6
7
6
5
4
4
4
3
2
3
4
4
4
5
6
6
7
7
8
8
5
4
4
4
4
2
1
0
1
2
2
1
1
1
1
1
0
0
2
4
5
7
10
11
10
8
9
10
10
11
10
10
9
8
7
8
9
9
11
13
15
14
13
12
12
12
12
12
12
12
13
13
14
15
16
17
17
15
14
13
11
10
9
10
12
12
10
10
11
12
12
12
13
14
13
11
10
9
9
10
12
13
13
12
12
12
12
12
13
13
12
11
11
9
7
4
2
0
0
0
1
3
5
6
7
7
7
6
5
6
6
6
5
4
3
2
1
1
0
-2
-4
-7
-11
-17
-26
-38
-55
-71
-89
-102
-108
-107
-93
-78
-61
-49
-40
-31
-22
-15
-11
-9
-8
-5
-4
-2
-1
0
1
2
2
3
3
3
3
3
4
4
5
6
8
9
8
8
8
7
8
9
10
9
8
9
11
12
13
10
6
3
3
5
6
7
8
10
11
9
8
7
6
5
5
5
5
5
4
4
4
4
4
3
1
0
-1
-1
0
0
1
3
4
5
5
6
6
7
9
11
12
12
9
6
4
4
5
6
4
2
1
1
2
4
5
5
5
5
6
6
7
8
10
10
10
10
10
9
9
10
10
10
8
6
4
4
5
6
8
9
10
9
8
8
8
10
10
9
8
8
8
9
9
10
11
13
13
14
15
15
13
12
12
12
11
8
6
5
5
2
0
-2
-2
-1
0
2
3
4
4
5
6
8
7
7
6
5
5
5
5
3
3
2
2
1
-2
-6
-9
-14
-23
-37
-52
-69
-84
-97
-106
-106
-97
-80
-63
-48
-37
-26
-18
-11
-6
-1
0
1
2
3
4
4
5
7
8
10
12
12
10
10
10
10
11
11
12
13
15
15
15
15
15
14
15
16
16
16
14
13
11
10
10
11
12
13
14
14
14
13
14
14
12
11
10
10
10
10
9
7
6
7
7
6
6
5
5
5
4
2
1
2
3
5
6
8
10
9
9
9
10
10
10
9
9
10
11
11
10
9
8
9
10
9
8
8
10
13
14
15
17
19
19
18
19
19
17
16
16
17
16
16
16
16
16
16
17
17
17
17
16
16
16
18
19
19
20
19
17
15
14
15
17
17
17
16
17
18
18
18
18
19
19
18
17
17
17
15
14
13
12
10
8
6
6
7
8
9
10
11
12
13
14
15
15
15
15
15
16
17
17
16
13
10
6
0
-4
-11
-19
-32
-50
-70
-88
-102
-112
-108
-94
-72
-53
-40
-28
-18
-10
-5
0
5
8
11
14
16
15
14
15
17
19
22
22
22
22
23
24
23
22
23
24
25
25
25
26
28
28
27
25
25
26
27
28
28
29
28
28
29
30
30
30
30
30
30
30
30
28
26
25
26
27
27
25
23
21
21
22
22
20
19
18
18
18
19
19
20
22
23
21
21
21
24
25
25
25
24
23
22
23
23
23
23
24
24
25
25
25
24
24
25
26
26
27
28
28
30
31
30
29
30
30
29
28
27
27
27
28
29
30
31
31
32
32
33
33
32
30
28
26
25
26
26
27
27
29
28
28
28
28
29
30
31
31
33
34
34
35
34
35
34
31
27
24
22
20
17
16
16
18
20
22
23
24
25
25
25
25
24
25
26
26
27
26
25
23
20
16
13
10
5
-1
-13
-30
-48
-68
-82
-94
-98
-90
-74
-53
-38
-25
-15
-5
2
7
9
10
13
16
18
18
19
20
22
24
26
25
24
22
23
25
25
24
23
24
24
25
26
27
26
25
26
26
27
26
26
25
24
23
21
19
19
20
21
22
23
22
22
21
20
21
21
22
22
21
20
21
21
21
17
14
13
12
13
12
12
10
9
9
10
12
12
14
13
14
15
17
19
20
20
19
18
17
18
18
17
17
16
16
17
19
20
19
17
16
16
17
18
20
21
22
23
23
23
23
22
22
21
21
21
21
21
22
23
23
22
19
17
17
18
19
20
23
23
22
20
17
17
17
18
19
20
20
20
21
22
23
24
25
26
27
27
26
25
22
22
22
22
22
20
15
11
8
7
8
9
12
13
14
16
17
19
20
20
19
20
20
20
18
16
14
11
9
6
2
-2
-9
-21
-36
-54
-71
-86
-97
-104
-102
-92
-77
-61
-47
-34
-24
-17
-13
-9
-5
-1
2
5
6
9
12
14
15
14
14
15
17
18
18
18
17
16
15
15
15
16
16
17
17
17
17
17
18
18
19
19
18
16
16
15
16
17
17
17
18
19
19
18
17
16
16
15
14
13
13
13
14
14
12
11
11
12
12
11
9
7
7
8
8
10
10
9
9
10
11
13
14
14
15
16
16
15
14
11
11
12
13
14
13
13
13
14
16
17
18
19
19
19
20
20
20
20
20
21
21
21
21
23
23
24
24
24
23
21
20
21
22
22
23
22
21
21
22
24
25
26
26
26
25
24
23
24
24
23
22
21
23
25
27
29
30
29
28
27
26
24
22
22
20
17
16
15
14
16
20
24
25
25
23
24
25
26
27
25
23
21
21
21
22
21
21
19
17
15
11
5
-2
-14
-30
-49
-66
-81
-92
-93
-84
-65
-47
-32
-20
-11
-3
2
5
6
9
11
14
16
17
18
19
20
20
21
22
23
23
22
21
22
24
24
24
23
22
21
22
23
23
23
22
23
23
24
24
26
27
25
23
22
23
23
24
24
24
25
27
29
28
26
21
19
17
16
16
16
17
17
17
17
17
16
16
16
17
20
22
21
17
15
14
13
12
12
13
15
17
19
19
20
20
22
23
25
25
25
22
20
18
18
18
18
19
21
23
26
27
27
24
22
21
23
24
25
26
27
27
25
23
22
22
22
22
21
21
22
22
22
22
23
22
22
23
23
23
24
26
26
26
27
28
30
30
30
27
26
27
29
31
31
30
29
30
30
29
27
25
22
17
15
15
16
18
20
21
23
23
23
23
23
22
20
19
18
18
18
16
15
15
15
16
16
14
9
0
-13
-31
-46
-61
-73
-84
-90
-89
-78
-61
-47
-35
-25
-16
-8
-2
2
5
8
13
15
16
15
14
15
15
16
15
16
18
18
17
17
18
18
20
20
21
21
19
18
17
18
18
18
19
20
19
17
16
16
16
16
15
16
16
16
15
15
15
14
14
16
17
16
14
11
9
8
8
7
6
6
7
8
7
6
5
5
5
5
6
6
8
9
11
13
14
14
14
16
17
19
20
20
18
16
16
17
18
19
20
19
20
20
18
18
18
18
19
20
21
21
21
22
23
22
21
19
18
19
20
20
20
20
21
21
21
19
18
17
17
17
18
19
21
21
19
16
15
14
14
16
17
19
22
24
25
25
24
22
20
19
19
20
19
20
20
20
19
16
13
9
8
8
9
10
13
15
17
19
21
21
20
18
16
14
13
12
11
11
12
13
12
12
10
7
2
-4
-13
-26
-40
-56
-71
-85
-94
-97
-88
-72
-55
-39
-27
-20
-15
-11
-8
-5
-1
2
5
8
9
10
10
12
13
12
12
11
11
12
14
15
15
15
14
15
15
15
15
16
17
16
16
15
14
13
14
15
15
14
14
16
17
19
18
16
15
15
15
15
16
15
14
13
13
13
13
12
9
8
7
7
7
7
7
5
4
3
4
5
7
9
11
10
9
8
9
9
9
12
14
16
17
16
16
15
15
15
17
18
16
15
15
17
19
19
20
19
21
23
24
23
22
21
20
18
16
15
16
18
19
20
21
21
19
15
12
13
14
16
16
17
18
18
16
16
15
16
16
17
17
17
18
18
18
17
19
21
24
25
24
24
22
21
20
20
21
21
19
17
17
17
15
11
8
8
10
12
13
16
17
17
18
19
20
19
18
18
18
20
21
20
16
13
11
10
9
5
0
-11
-22
-36
-50
-63
-77
-87
-96
-96
-88
-74
-56
-41
-27
-16
-7
-2
-2
-3
-1
2
6
8
10
11
12
14
15
15
16
17
18
17
16
14
14
15
17
17
17
17
18
18
18
20
22
25
26
23
19
16
16
17
19
19
19
19
20
21
22
21
20
18
17
17
18
18
20
21
21
19
16
14
13
13
12
13
13
13
11
10
10
12
13
14
14
14
14
14
16
18
19
18
18
21
23
23
22
23
22
22
22
22
22
22
23
24
24
24
22
22
23
25
26
26
24
22
21
22
22
21
20
19
20
21
22
21
19
17
17
18
20
21
21
20
20
20
19
18
19
21
22
22
19
18
17
18
18
18
17
15
16
18
21
23
24
24
23
22
21
23
23
22
18
14
10
9
10
11
11
12
14
17
19
19
19
19
17
17
16
16
17
19
19
17
15
14
12
10
8
5
0
-6
-15
-26
-39
-54
-67
-78
-83
-78
-64
-46
-33
-23
-16
-9
-4
0
3
7
9
12
14
17
17
17
16
16
17
17
17
17
18
19
19
20
20
21
22
23
22
22
21
20
20
21
22
23
25
24
23
21
20
19
18
18
19
19
20
21
21
20
19
19
20
21
21
21
19
17
15
14
14
15
15
16
16
15
14
13
13
14
16
19
20
21
21
20
19
19
20
20
20
21
22
21
22
22
25
25
25
24
25
28
28
26
22
21
22
24
25
25
25
23
23
22
23
23
24
24
23
24
25
28
30
29
26
20
17
16
17
19
19
20
21
21
22
23
23
23
23
22
21
20
20
20
21
20
21
21
22
23
24
25
26
30
33
34
31
26
23
21
22
23
23
21
18
17
15
15
16
17
18
20
20
21
21
21
21
21
22
23
23
22
21
21
20
19
17
15
13
11
6
0
-9
-20
-33
-47
-59
-68
-77
-77
-67
-50
-35
-26
-17
-9
-1
3
5
6
7
9
11
13
15
16
16
16
15
15
15
16
19
20
20
19
20
20
20
21
20
20
19
20
21
24
25
25
23
22
20
18
19
19
19
19
19
20
21
22
22
24
24
24
22
21
21
20
19
19
20
22
23
20
18
16
16
15
15
16
15
15
16
17
18
19
20
21
20
19
19
20
22
23
24
25
24
24
24
25
26
26
26
25
25
25
26
27
28
28
26
25
24
25
26
28
28
28
27
25
23
23
25
27
28
28
26
24
21
21
21
22
23
23
25
26
27
25
25
25
25
24
24
24
26
26
24
22
22
23
25
26
26
26
28
29
30
29
28
26
24
22
20
20
19
19
19
18
18
18
16
12
11
13
15
17
19
20
20
19
17
16
15
15
15
13
14
14
13
11
4
-3
-14
-26
-39
-54
-67
-83
-93
-99
-92
-76
-60
-46
-36
-27
-19
-11
-7
-3
0
6
12
16
15
12
8
6
6
8
9
10
12
12
14
14
14
14
14
15
15
14
13
12
13
15
16
16
17
17
14
11
9
10
12
13
12
11
11
11
11
12
12
11
9
8
7
8
7
8
7
7
6
5
4
3
2
2
3
3
0
-1
-2
-2
-1
0
1
2
2
2
4
6
8
9
9
7
5
5
6
8
10
12
14
16
14
12
9
7
7
7
8
9
10
11
11
12
13
14
13
10
8
8
9
10
10
8
6
4
4
4
4
4
5
6
7
7
7
8
7
7
7
8
9
10
9
8
7
7
6
5
4
4
3
5
7
8
8
8
8
6
6
6
7
8
7
3
-1
-3
-5
-5
-4
-3
-2
0
1
2
3
3
3
3
4
5
6
6
4
2
1
0
0
0
1
1
0
-3
-9
-16
-25
-37
-51
-66
-81
-95
-102
-99
-86
-68
-50
-38
-29
-24
-20
-15
-12
-10
-9
-8
-8
-7
-6
-3
-2
0
0
0
0
-1
-1
0
3
5
4
1
-2
-3
-2
0
0
1
1
0
0
0
0
0
1
2
3
4
5
5
2
0
0
0
1
2
3
3
0
-2
-2
-2
-4
-7
-8
-8
-8
-8
-8
-8
-8
-8
-8
-8
-7
-6
-6
-8
-10
-12
-12
-10
-6
-4
-3
-4
-3
-2
-3
-4
-3
-3
-3
-1
0
2
3
4
4
4
4
5
4
5
5
5
6
6
7
7
8
8
6
4
1
0
0
0
2
4
4
3
3
3
3
4
4
5
6
6
7
7
7
7
7
7
6
5
5
5
6
7
8
9
10
9
9
9
10
11
12
14
15
16
14
12
9
7
7
7
7
6
6
4
4
5
5
4
5
7
9
11
10
10
9
9
10
11
13
14
11
6
3
1
0
0
0
-1
-4
-9
-15
-24
-37
-53
-69
-83
-95
-99
-93
-76
-61
-47
-36
-27
-21
-15
-11
-7
-3
1
5
6
4
2
1
2
2
2
3
5
5
7
8
9
9
8
7
7
8
8
8
9
9
9
9
9
10
12
12
14
13
11
9
8
7
5
6
7
8
6
5
5
5
5
4
4
5
6
5
4
4
3
1
0
-1
-2
-3
-3
-1
0
2
0
-1
-3
-4
-3
-1
0
2
2
3
3
3
4
6
9
10
12
13
14
15
14
13
13
13
14
16
15
15
13
12
10
10
12
11
10
10
9
9
9
11
10
9
9
8
9
9
10
10
11
11
11
10
9
9
9
8
6
4
4
4
6
9
11
10
9
8
8
7
7
6
4
5
7
8
9
12
13
13
10
6
4
4
3
2
1
0
-3
-4
-5
-5
-3
0
2
4
4
3
3
4
5
4
4
3
2
0
0
0
-2
-5
-6
-7
-8
-14
-20
-29
-39
-53
-70
-85
-102
-110
-116
-108
-93
-76
-61
-49
-38
-29
-22
-17
-13
-10
-8
-7
-6
-6
-5
-3
-1
0
0
0
0
0
0
2
4
5
5
5
5
4
4
4
4
5
5
6
6
6
6
6
7
7
7
7
8
6
5
5
6
7
7
8
9
10
8
5
1
0
0
0
-1
-2
-3
-2
-2
0
0
-1
-2
-4
-4
-4
-3
-2
-2
-3
-3
-1
0
0
0
1
2
2
2
2
4
5
6
8
9
10
10
10
10
9
9
9
10
11
10
9
7
7
7
6
5
6
8
10
10
8
7
5
4
5
6
7
9
12
11
8
6
4
4
6
9
10
9
8
8
9
11
10
7
5
2
0
1
4
7
9
10
10
9
9
10
12
12
9
7
8
9
6
3
1
-1
-5
-7
-7
-5
-3
0
3
4
4
5
7
9
9
6
2
-1
-2
-1
1
1
-1
-6
-10
-12
-14
-18
-25
-37
-53
-70
-90
-105
-118
-118
-106
-87
-67
-53
-42
-34
-26
-22
-19
-17
-14
-11
-7
-4
-4
-4
-3
0
0
3
4
5
3
1
0
0
0
1
3
4
3
1
0
2
4
5
5
5
6
7
9
10
10
8
6
6
7
9
11
11
9
6
3
1
0
1
3
5
5
4
2
1
2
3
4
4
4
5
8
11
11
6
-1
-8
-9
-7
-3
0
4
4
3
2
2
3
4
6
9
11
12
12
12
13
15
16
19
22
22
18
12
9
9
12
14
15
13
10
10
13
14
13
10
6
4
5
9
13
15
15
13
12
13
16
16
15
11
8
5
4
5
7
10
12
11
8
7
7
9
11
11
9
8
9
11
14
18
19
19
16
12
8
7
6
7
8
8
7
7
8
6
1
-3
-5
-1
5
8
6
3
3
4
6
7
8
9
11
12
10
5
3
1
2
4
5
5
2
-5
-17
-32
-48
-64
-80
-93
-106
-117
-123
-115
-94
-70
-50
-38
-27
-20
-15
-11
-7
-3
-1
2
6
9
8
5
3
4
5
8
9
9
8
8
11
12
13
12
10
10
11
14
17
19
19
18
15
14
10
7
7
9
10
11
14
14
14
14
12
13
12
10
8
8
10
11
10
9
10
9
6
4
4
7
9
9
5
0
-2
-2
0
1
2
4
6
5
2
-1
0
4
8
11
11
11
9
10
12
15
17
16
16
17
20
22
23
23
24
26
29
31
28
25
21
19
17
17
20
21
20
14
10
10
13
16
17
17
17
19
21
23
21
18
16
16
17
17
17
18
20
20
17
14
13
13
16
19
21
22
23
23
21
17
14
14
16
19
21
22
23
24
24
21
19
19
19
18
17
17
18
15
11
9
8
8
10
15
18
19
19
20
21
22
21
20
19
18
19
18
18
15
12
11
10
7
1
-7
-17
-32
-46
-64
-80
-92
-103
-107
-104
-87
-68
-52
-39
-27
-15
-5
0
0
0
2
7
11
12
11
12
13
13
14
15
15
16
17
19
23
25
22
17
13
12
13
15
16
18
19
20
21
22
23
22
21
21
22
24
26
29
29
27
24
22
19
17
17
18
19
19
18
17
16
15
15
15
14
15
16
17
17
17
17
15
15
18
21
22
20
18
16
15
14
15
18
20
19
19
20
21
22
23
25
27
29
30
32
33
34
34
35
38
39
39
38
36
36
35
34
32
30
28
27
27
28
29
28
28
28
29
29
30
32
33
34
31
30
30
30
30
32
33
33
34
33
34
33
33
33
32
32
32
34
34
34
31
30
30
31
32
33
33
31
31
31
34
36
38
39
38
36
33
32
31
29
27
25
22
21
22
25
27
28
27
28
29
32
33
34
33
31
28
28
31
31
30
28
26
26
25
23
19
14
5
-6
-21
-39
-57
-74
-89
-95
-93
-77
-58
-41
-28
-18
-9
0
7
14
17
21
22
21
20
21
23
24
25
26
27
27
28
28
30
32
35
37
36
34
33
32
31
28
27
28
29
28
28
29
31
32
33
33
31
30
29
29
29
30
32
32
31
30
29
28
25
22
19
18
18
19
19
20
21
22
21
17
14
13
13
14
14
15
14
13
13
14
14
16
19
22
25
24
22
20
21
24
26
30
33
36
38
41
42
43
39
34
31
29
31
33
34
33
34
36
38
38
38
37
35
32
29
27
27
28
28
29
31
31
31
31
31
30
29
31
33
36
35
33
31
28
26
23
21
22
24
25
26
27
27
28
28
30
31
31
31
29
28
27
29
32
36
37
39
38
34
31
28
27
28
29
27
21
15
12
12
14
18
20
23
24
26
27
28
28
28
29
28
27
25
24
23
23
24
22
19
14
8
0
-9
-22
-39
-58
-75
-90
-101
-104
-99
-85
-67
-51
-38
-27
-16
-7
-1
1
2
4
6
8
11
16
20
18
14
10
8
9
9
10
11
12
11
12
14
16
17
17
18
19
20
19
18
16
16
17
17
18
20
21
21
18
15
14
14
16
18
19
19
17
16
14
13
13
12
12
12
13
12
11
10
9
7
5
4
4
4
4
4
4
5
5
6
9
12
14
13
10
8
9
11
12
13
15
16
18
20
21
21
22
24
26
26
27
27
27
28
28
28
28
28
27
27
26
24
21
20
21
20
18
17
16
15
14
14
14
16
16
17
18
19
18
15
14
12
11
11
11
12
13
12
12
11
11
12
14
16
16
15
14
13
13
11
9
9
10
13
16
18
19
20
20
19
17
15
14
13
12
10
8
7
7
8
9
12
16
17
17
16
16
14
12
11
12
12
13
13
12
11
9
9
9
7
2
-3
-10
-20
-33
-49
-66
-82
-99
-107
-108
-97
-80
-62
-47
-36
-26
-19
-13
-9
-6
-2
1
1
1
1
2
3
4
5
6
6
6
6
7
10
11
13
16
15
12
10
10
11
11
11
10
9
9
9
10
11
12
13
15
15
15
14
15
14
14
13
12
12
11
11
11
10
9
8
8
7
8
8
8
9
10
11
10
7
4
2
1
3
5
7
8
9
10
11
12
13
16
22
25
25
22
18
15
15
17
20
22
25
27
29
30
30
30
31
31
30
30
31
31
33
34
35
34
32
31
27
24
22
21
23
25
26
27
27
25
24
23
24
24
23
24
24
25
24
25
24
25
25
25
26
27
27
28
28
26
22
18
16
16
18
19
19
20
21
21
22
23
25
27
29
30
28
25
22
21
20
19
18
17
15
13
12
12
14
17
21
24
24
23
20
18
17
18
17
18
18
19
19
20
22
23
22
18
12
4
-3
-11
-22
-37
-54
-72
-84
-97
-101
-100
-87
-68
-49
-32
-21
-11
-5
-1
0
3
8
12
14
16
19
22
24
24
24
24
24
24
23
21
22
23
24
23
22
23
24
25
25
27
30
31
32
30
28
26
24
22
21
22
24
26
26
26
26
26
27
28
28
27
27
24
23
22
22
21
19
19
19
20
20
20
20
19
18
17
15
14
13
13
14
15
17
20
21
22
22
23
22
20
19
20
22
24
25
26
28
29
30
32
34
36
35
35
33
31
30
29
29
28
29
28
28
27
27
29
30
32
34
35
33
29
24
21
20
20
21
21
21
22
23
23
25
27
28
30
28
25
23
22
23
22
22
19
19
20
22
23
22
22
22
24
24
24
23
24
25
24
24
24
25
24
22
20
18
15
12
10
8
8
8
9
9
11
13
15
17
16
15
14
14
14
15
15
15
14
13
12
12
11
8
5
3
0
-6
-13
-22
-35
-49
-64
-78
-91
-100
-102
-92
-73
-53
-39
-28
-19
-13
-8
-5
-2
0
2
4
6
6
8
9
9
8
7
6
7
9
10
12
13
13
15
16
16
13
12
12
13
12
12
12
13
14
16
18
18
17
14
12
11
11
11
10
10
11
12
12
11
10
9
9
10
11
9
8
8
7
7
7
7
7
7
8
7
7
4
3
4
4
4
5
7
8
10
10
12
13
14
17
19
22
23
23
22
22
21
22
23
23
23
24
25
24
25
25
23
21
19
18
18
17
16
15
13
13
13
13
13
13
13
13
11
9
7
7
7
8
9
11
12
13
13
12
11
10
11
12
12
14
14
11
10
11
14
17
20
19
17
14
12
12
15
16
19
22
24
25
24
22
20
20
19
20
22
22
20
17
15
13
12
11
15
19
22
23
20
17
16
17
20
19
16
15
17
17
17
14
12
9
7
3
-3
-12
-25
-40
-56
-73
-85
-96
-100
-94
-76
-54
-40
-33
-26
-17
-9
-5
-3
-1
3
8
11
11
9
8
9
10
12
15
17
17
16
17
18
19
18
19
20
19
17
13
12
13
16
18
20
20
19
18
19
21
21
18
15
15
16
16
15
14
12
12
12
14
16
15
14
14
13
12
9
6
4
3
3
4
3
3
3
4
4
4
5
7
9
10
11
13
13
13
13
16
19
18
17
17
18
18
19
22
25
28
29
30
32
36
38
36
32
27
24
22
22
23
24
25
25
26
27
29
29
29
29
28
28
26
25
24
23
21
21
22
24
27
27
25
22
22
22
22
22
22
22
22
24
28
33
35
32
26
20
18
19
21
22
24
26
27
28
29
31
33
34
32
30
28
27
27
24
21
16
10
5
3
5
7
10
13
16
18
20
22
21
20
17
15
14
14
13
12
12
11
11
10
7
3
-1
-5
-14
-24
-36
-52
-69
-88
-101
-110
-108
-96
-80
-61
-48
-35
-24
-15
-9
-4
0
4
6
7
9
11
13
13
10
8
8
10
12
11
12
13
15
14
11
10
11
13
14
15
15
16
19
19
19
18
17
16
16
15
12
10
9
11
13
13
15
15
15
12
8
5
3
3
4
5
6
6
5
4
3
2
1
1
1
-1
-5
-7
-7
-5
-4
-3
-2
-1
0
0
0
2
4
5
7
9
10
10
11
12
13
14
16
19
20
19
19
19
21
23
23
21
19
18
18
18
19
17
15
12
12
14
15
16
17
17
18
20
22
22
21
19
18
17
19
21
18
16
14
15
16
17
17
17
18
20
20
19
20
21
21
20
19
19
19
19
18
18
20
21
22
24
27
29
30
29
27
24
23
23
21
20
19
17
15
13
14
15
16
17
18
19
20
22
24
24
23
19
14
11
10
9
8
8
9
9
9
7
3
-2
-12
-25
-41
-61
-80
-100
-111
-119
-114
-98
-76
-57
-42
-30
-20
-11
-5
0
2
3
2
1
3
6
8
10
11
12
13
15
17
18
16
13
11
11
13
15
17
20
21
21
21
20
19
18
18
19
21
21
21
21
21
19
17
17
17
18
18
18
19
19
18
15
14
14
15
15
14
13
12
11
9
8
8
7
7
8
9
9
10
10
10
10
11
14
16
19
21
23
22
22
21
21
22
23
25
27
32
33
33
32
31
31
31
32
33
34
34
34
33
33
32
31
32
32
32
32
33
33
32
32
31
31
31
31
31
31
30
31
33
34
31
25
22
22
23
24
24
23
22
22
22
22
22
22
22
22
22
22
22
22
23
24
25
27
29
31
30
28
26
22
21
21
22
21
20
20
18
18
17
17
15
16
18
21
24
24
24
23
24
23
24
23
23
23
22
22
22
23
23
21
17
13
7
-2
-20
-40
-58
-72
-83
-90
-85
-72
-54
-38
-25
-16
-7
-1
4
8
11
12
13
12
12
13
14
15
16
17
19
19
20
20
22
23
24
24
24
24
24
22
20
19
19
22
22
21
18
18
19
19
19
19
20
20
19
19
18
18
17
17
17
17
17
19
20
20
17
15
14
13
12
9
6
4
3
4
5
6
5
6
6
7
8
8
9
10
10
9
10
11
12
13
14
15
16
16
15
15
14
15
17
18
20
20
21
21
21
21
19
18
17
19
19
19
19
20
19
17
17
16
17
17
18
19
19
18
18
18
18
18
18
17
15
13
12
12
11
11
12
12
12
12
13
12
12
13
14
14
13
12
11
11
11
12
13
14
15
16
18
19
19
18
17
13
9
7
6
5
5
5
5
6
6
6
8
9
9
9
10
10
9
8
8
7
7
6
6
5
4
4
1
-2
-9
-17
-26
-38
-50
-64
-76
-87
-93
-89
-79
-61
-47
-35
-27
-19
-13
-9
-6
-4
0
2
4
6
8
8
8
7
7
8
10
11
12
12
13
14
13
11
11
11
12
13
13
12
13
13
13
13
14
14
13
12
11
9
8
8
9
11
12
11
10
9
8
7
7
8
8
6
5
5
5
4
4
3
2
1
1
0
0
0
-1
0
1
3
4
3
2
2
2
4
6
7
8
9
10
11
12
15
17
17
16
16
16
16
17
18
19
18
18
19
21
20
19
17
17
19
20
20
18
17
16
16
16
16
16
17
18
18
17
15
14
13
12
13
15
16
15
13
12
13
14
13
12
11
11
11
12
14
14
15
15
15
15
15
15
17
19
21
21
19
17
14
12
11
11
10
9
7
5
3
3
3
6
9
12
13
13
13
14
14
13
10
8
6
6
7
6
4
3
3
3
1
-2
-6
-13
-23
-37
-53
-69
-86
-99
-109
-105
-91
-71
-55
-43
-33
-24
-16
-10
-6
-3
0
4
7
7
7
7
6
6
7
9
11
11
11
10
11
12
12
12
12
13
15
17
19
19
19
19
19
20
19
19
17
17
17
17
16
16
16
17
18
18
18
18
18
18
18
18
16
15
14
14
13
12
11
11
12
11
10
7
5
5
4
5
6
7
8
8
10
12
14
13
12
11
12
13
15
16
17
17
16
16
17
17
16
16
15
16
16
17
17
17
17
18
19
18
18
18
17
16
15
15
15
15
14
13
13
12
12
12
13
13
14
15
15
14
13
14
15
15
14
13
14
14
14
13
14
13
13
13
13
14
14
15
16
16
15
16
18
19
19
18
17
17
18
18
15
14
13
12
9
9
9
10
11
14
16
16
17
17
17
17
16
17
17
16
14
12
10
9
8
7
5
4
0
-4
-12
-22
-36
-51
-66
-80
-91
-97
-93
-78
-58
-41
-29
-18
-9
-3
0
1
2
4
7
10
10
10
10
10
10
10
12
12
12
11
11
11
11
10
10
10
9
9
11
13
14
14
15
14
15
14
13
11
9
7
6
6
7
9
10
10
9
7
7
8
8
8
8
8
7
6
4
2
2
3
3
2
1
0
0
-1
0
0
0
0
0
0
1
2
4
6
8
10
10
9
8
8
8
9
8
8
8
9
9
11
12
13
12
12
12
13
14
13
11
11
13
13
13
12
12
12
12
12
13
14
13
12
11
11
11
9
9
9
11
11
11
9
9
10
11
12
11
11
11
10
9
9
9
9
9
10
12
14
14
13
13
13
16
17
17
16
14
11
8
8
7
6
4
2
1
1
3
6
9
11
12
12
11
9
7
4
3
3
5
7
6
4
2
0
-2
-5
-9
-15
-23
-35
-49
-67
-83
-98
-110
-114
-112
-97
-79
-60
-47
-37
-29
-23
-17
-15
-12
-9
-5
-4
-2
0
1
1
1
0
0
1
2
2
2
1
1
2
4
6
7
9
10
9
7
7
9
10
10
11
10
9
8
8
10
12
13
12
10
8
7
6
6
8
9
9
9
10
11
12
13
12
9
5
3
3
2
0
0
0
0
0
0
0
0
1
2
4
7
10
13
13
11
6
3
3
4
7
8
9
10
10
11
13
15
17
18
17
14
10
8
8
9
10
10
11
12
14
15
16
17
19
21
20
19
19
19
18
18
18
17
17
17
17
17
17
18
20
22
22
21
18
15
13
13
12
12
14
15
17
18
21
23
26
28
26
21
16
13
12
12
13
13
12
12
11
10
7
6
7
7
9
13
18
23
25
24
20
16
12
10
10
11
12
14
14
14
15
15
14
12
9
3
-5
-17
-31
-48
-66
-83
-95
-100
-94
-74
-54
-40
-33
-26
-18
-11
-7
-3
0
5
8
11
13
14
15
15
16
17
20
23
24
25
24
22
18
14
12
10
11
13
15
16
17
19
20
20
21
21
21
20
20
19
19
19
19
20
19
19
19
20
24
25
24
19
15
12
10
10
10
11
11
11
10
9
9
9
9
9
10
12
12
13
14
17
18
18
16
13
12
11
10
11
13
15
18
19
20
22
22
23
23
23
22
22
22
21
21
21
21
22
24
25
26
26
25
23
21
21
19
19
19
20
20
20
21
22
23
21
20
18
19
19
20
20
20
20
19
19
20
20
20
19
19
19
20
19
19
18
18
19
18
19
20
21
23
22
22
21
22
23
23
21
17
12
4
1
1
3
5
8
11
15
16
16
17
16
16
16
16
17
17
18
19
18
15
12
8
5
2
-2
-9
-18
-28
-42
-59
-75
-88
-97
-100
-93
-75
-58
-43
-33
-24
-17
-11
-7
-3
0
1
3
5
7
9
11
13
14
15
15
11
6
2
1
3
5
6
8
8
9
9
10
11
13
12
12
13
13
15
16
18
20
18
12
7
4
4
5
7
9
10
12
13
14
14
14
14
12
10
9
8
8
7
6
5
4
3
3
2
1
1
2
3
3
3
3
4
5
5
7
10
13
14
14
12
12
13
14
13
13
13
14
14
14
13
14
15
17
18
17
16
16
16
16
16
16
17
16
17
16
16
17
19
21
22
22
20
17
14
14
15
14
15
16
16
16
17
18
19
20
21
20
19
18
15
14
14
14
15
17
17
17
17
18
22
25
25
23
21
18
14
11
11
12
12
11
8
7
7
11
15
18
18
18
18
16
13
11
10
11
12
11
12
11
11
11
11
10
10
9
5
-1
-12
-28
-47
-68
-86
-103
-112
-113
-101
-78
-57
-39
-26
-17
-13
-10
-8
-5
-1
2
4
6
7
9
10
10
12
15
16
14
12
10
10
11
12
14
15
15
15
17
17
17
18
19
21
22
24
26
25
20
16
14
11
10
10
11
13
15
15
15
15
16
16
16
15
14
12
11
11
11
11
10
10
9
9
10
11
13
14
14
12
9
6
6
7
8
9
11
13
14
15
15
17
19
22
24
24
24
22
19
15
14
14
15
17
19
22
23
24
25
27
29
30
29
28
26
24
24
23
23
23
24
24
24
24
24
26
27
28
27
28
27
25
23
21
21
20
20
19
20
20
19
19
20
21
20
22
24
27
28
28
26
23
19
17
17
17
17
17
16
15
14
14
12
10
8
8
8
10
13
17
21
23
21
15
10
9
8
8
8
7
7
8
9
9
8
6
3
-1
-8
-19
-33
-51
-71
-91
-104
-112
-109
-94
-73
-54
-40
-29
-19
-11
-5
-1
2
8
11
14
14
14
11
8
7
7
9
10
12
12
12
12
12
13
13
13
14
16
17
18
20
21
22
22
22
20
15
11
9
9
10
11
11
12
12
13
13
12
12
13
14
13
13
13
12
12
11
8
6
4
5
6
7
6
5
4
3
3
4
5
5
5
7
9
10
10
11
11
12
12
14
15
16
16
16
15
14
15
14
13
13
13
14
15
15
16
17
18
19
19
18
18
19
19
19
18
17
16
14
14
15
15
16
16
15
15
15
16
18
18
17
15
13
11
10
11
11
11
11
11
11
12
14
14
15
16
18
20
19
17
13
11
10
10
10
11
11
10
9
8
5
3
3
5
9
13
14
14
11
7
2
0
0
2
4
5
5
5
4
4
5
5
3
0
-5
-12
-20
-30
-46
-64
-82
-95
-103
-105
-98
-80
-63
-47
-39
-30
-21
-15
-10
-7
-4
-1
1
3
6
9
10
7
5
4
5
6
8
10
11
12
12
13
13
14
15
16
16
15
14
14
14
14
14
16
16
16
14
13
13
14
15
16
16
16
16
15
15
14
11
9
8
7
7
7
7
7
7
8
7
6
4
2
2
2
1
2
3
3
4
5
7
9
9
8
8
9
10
12
13
13
14
13
13
12
12
12
12
13
14
15
14
14
13
12
13
14
15
15
16
18
16
16
16
16
16
15
14
14
14
12
12
13
13
13
13
14
15
16
15
15
14
12
12
12
13
14
15
15
15
13
13
15
17
18
17
16
15
15
16
18
19
20
19
19
19
20
20
19
16
10
4
2
1
2
3
6
9
11
12
12
13
13
14
14
15
15
15
13
11
9
8
7
7
6
5
1
-2
-9
-20
-34
-51
-66
-80
-90
-94
-88
-70
-52
-35
-23
-14
-7
-3
0
2
5
7
11
13
15
17
18
19
20
20
19
17
18
19
20
21
22
23
23
23
23
21
20
20
21
19
19
18
18
19
19
20
20
20
19
18
19
19
20
18
17
15
14
14
15
14
14
14
14
14
13
12
10
9
9
9
9
9
10
9
8
7
5
6
5
7
9
11
11
10
9
10
12
14
15
15
16
16
16
17
17
18
19
19
20
20
20
20
20
20
19
18
19
19
18
18
17
17
17
18
18
16
15
15
16
18
20
18
18
17
16
15
15
14
13
13
13
12
11
11
12
14
14
13
13
14
14
13
14
14
13
11
10
10
10
12
14
16
18
20
21
21
20
19
19
18
16
14
11
7
4
3
3
5
7
9
12
13
14
12
11
11
12
14
14
15
13
11
8
5
1
0
0
-1
-3
-8
-16
-27
-42
-59
-74
-90
-102
-114
-113
-103
-86
-68
-53
-40
-29
-21
-16
-13
-10
-5
-1
1
2
3
2
1
2
5
8
8
8
8
6
6
7
8
9
9
8
8
8
8
8
8
8
7
6
8
8
6
5
6
7
7
6
5
4
4
3
2
1
1
1
0
-1
-2
-2
-1
0
0
-2
-5
-8
-10
-11
-12
-12
-12
-12
-11
-10
-11
-12
-13
-11
-9
-8
-7
-7
-8
-10
-10
-8
-6
-5
-6
-6
-5
-3
0
0
0
0
2
3
2
1
0
0
1
0
0
0
0
-1
-2
-1
0
1
1
3
3
1
-1
-2
-2
-1
0
1
0
-1
-2
-2
-1
0
1
1
0
0
1
1
1
1
0
-1
0
1
0
0
0
2
3
2
2
3
4
5
6
7
8
6
4
3
2
1
1
1
1
1
1
0
-3
-5
-4
-1
1
1
1
0
0
1
1
1
1
1
1
0
-1
-5
-9
-11
-12
-13
-19
-27
-38
-54
-70
-87
-101
-113
-116
-109
-92
-74
-59
-46
-37
-31
-27
-23
-18
-13
-10
-7
-6
-4
-3
-2
-1
-2
-1
0
0
0
1
2
3
2
2
2
3
3
3
2
3
4
5
4
4
4
4
4
5
7
9
10
8
5
3
3
4
5
7
8
9
8
9
8
7
4
1
0
0
1
2
3
4
4
4
2
0
-1
-2
-1
0
0
0
2
2
3
4
5
7
7
8
9
11
13
15
17
19
17
16
16
18
20
21
21
20
19
18
18
18
19
22
23
23
22
22
23
24
24
23
24
23
21
18
19
21
22
20
17
18
19
22
23
25
25
25
26
28
26
21
20
21
23
23
21
22
23
25
27
28
28
29
29
30
32
33
32
29
27
25
24
25
25
24
23
22
20
18
15
14
14
15
19
22
23
21
19
19
19
20
19
18
18
19
20
20
21
22
22
20
18
14
8
3
-3
-11
-23
-39
-56
-70
-79
-85
-80
-64
-45
-28
-15
-3
3
6
7
8
12
16
18
20
22
24
25
26
27
25
25
25
25
25
25
25
25
26
25
27
27
26
26
26
29
29
28
26
24
23
22
23
25
28
27
27
26
26
26
26
25
24
25
25
25
24
22
20
17
17
18
19
18
18
19
20
22
22
20
17
15
13
12
12
13
15
17
18
18
19
20
23
25
26
26
26
27
28
28
28
29
31
32
32
31
31
31
31
30
29
30
32
33
31
30
28
28
27
27
27
27
28
27
25
23
22
24
25
25
23
21
19
20
21
21
19
18
18
19
20
19
18
19
21
23
22
20
18
17
16
17
18
18
17
17
17
17
19
21
22
21
20
19
18
17
17
15
12
7
6
7
9
11
13
14
15
16
16
17
18
19
19
19
17
16
14
13
12
12
11
11
9
5
0
-8
-20
-35
-51
-68
-81
-93
-100
-98
-89
-71
-55
-41
-30
-20
-13
-8
-6
-4
-2
0
3
5
8
8
8
8
9
8
8
8
9
9
9
10
12
12
11
11
11
12
13
14
15
14
14
14
12
11
10
9
9
10
10
11
11
12
12
13
15
14
12
10
10
10
10
11
11
10
7
5
6
8
9
7
6
3
2
1
0
0
1
2
3
4
4
4
4
5
7
9
12
14
17
19
19
14
8
5
4
6
9
11
13
15
16
17
18
19
19
19
18
17
17
17
18
19
20
22
24
23
16
9
4
4
6
9
12
14
16
17
18
18
19
18
16
14
14
15
17
17
18
19
20
19
19
17
13
10
11
13
13
13
12
13
15
16
17
19
21
20
20
19
18
17
14
12
7
2
0
1
3
6
10
12
14
15
15
15
16
16
18
20
23
24
21
16
9
4
0
-1
-2
-3
-7
-13
-24
-38
-55
-73
-88
-101
-108
-106
-90
-68
-49
-37
-29
-24
-20
-16
-12
-6
-1
3
6
10
12
13
14
13
12
10
9
9
11
12
14
16
19
19
22
24
24
22
20
19
17
17
18
21
22
21
21
20
21
21
21
22
24
25
26
25
22
19
15
13
14
14
16
17
18
18
17
17
17
18
18
19
19
19
17
15
15
15
12
8
5
5
7
9
11
13
16
18
20
22
23
25
27
29
31
33
37
40
40
35
28
23
21
22
24
26
27
28
28
29
30
31
33
33
34
32
31
31
29
26
24
23
23
24
24
25
25
26
27
27
29
29
30
30
31
28
24
20
19
20
20
20
21
21
23
25
26
25
24
25
27
30
32
35
35
33
26
22
20
20
21
21
22
20
19
17
16
16
19
24
28
32
31
27
22
19
19
19
20
20
20
20
21
22
22
21
19
17
15
12
7
0
-9
-23
-39
-55
-69
-79
-86
-83
-72
-54
-38
-25
-13
-3
3
7
9
7
6
7
9
12
14
17
19
21
22
23
24
24
24
23
22
24
25
25
25
24
25
25
25
25
26
27
27
27
27
28
28
29
28
26
24
22
21
22
24
25
24
23
21
21
21
23
23
23
22
20
18
17
17
20
22
20
17
15
14
13
12
12
12
12
13
16
17
17
17
18
19
20
22
25
24
21
19
18
19
20
23
25
26
25
24
24
26
25
25
25
26
26
26
26
25
23
20
19
19
20
22
22
22
21
20
19
19
19
19
20
20
22
21
21
19
17
15
14
15
17
18
18
20
22
23
24
23
23
22
22
21
20
21
21
22
21
22
23
24
24
23
23
22
21
20
20
20
18
13
10
9
9
10
11
12
14
15
17
16
16
15
15
15
14
14
14
14
14
16
15
12
7
2
-1
-5
-12
-23
-37
-53
-71
-83
-93
-96
-89
-76
-59
-47
-35
-24
-13
-6
-3
-1
2
6
8
9
10
10
11
13
16
17
19
20
21
20
19
19
19
18
20
22
24
24
25
25
26
24
23
23
22
22
20
19
19
20
21
22
22
21
21
21
22
24
25
27
27
23
17
14
14
14
15
15
15
15
16
16
15
15
15
17
20
22
21
16
11
7
5
6
9
13
16
17
19
21
22
23
23
25
25
27
28
31
33
32
29
25
22
18
17
18
20
21
21
22
24
25
26
26
26
26
27
27
25
23
21
21
23
25
27
27
26
24
23
22
21
22
23
23
24
24
26
27
27
26
25
24
24
24
24
23
23
24
25
24
25
26
28
29
30
31
30
29
26
24
22
21
21
21
20
19
19
21
23
21
18
17
19
21
23
25
26
27
25
22
20
18
16
17
19
19
18
15
11
6
0
-9
-21
-37
-55
-75
-90
-98
-97
-84
-65
-46
-34
-25
-16
-7
-2
2
4
7
10
13
14
16
17
17
17
16
15
15
16
16
16
16
16
18
19
21
21
21
22
22
22
22
22
20
22
25
26
24
19
16
14
15
16
18
18
17
18
19
19
18
17
16
15
14
15
16
15
13
10
9
9
8
7
7
6
6
5
5
4
4
3
3
4
6
6
7
8
9
10
9
10
12
14
14
13
12
11
12
13
16
16
18
18
17
15
15
16
17
19
19
20
22
23
21
17
16
16
16
15
14
15
15
16
17
17
17
17
16
16
17
18
18
18
17
15
13
13
15
16
15
16
16
16
15
15
16
17
18
19
21
22
22
22
23
24
25
23
22
20
19
18
16
16
17
17
15
10
8
7
9
12
13
15
14
15
15
16
15
13
11
11
12
12
13
13
13
13
10
5
1
-1
-5
-13
-24
-39
-54
-72
-86
-97
-105
-101
-91
-71
-56
-43
-33
-23
-15
-9
-5
-3
-2
0
2
5
6
6
6
7
8
8
9
9
9
8
8
8
8
8
8
8
9
10
9
8
6
5
5
7
8
7
7
7
6
4
2
0
0
0
2
3
2
0
-1
-1
-2
-2
-2
-3
-4
-4
-3
-2
-1
-2
-4
-6
-9
-10
-10
-10
-9
-9
-8
-6
-5
-6
-6
-5
-4
-2
-1
0
2
4
3
2
1
2
3
3
4
7
8
10
10
9
8
7
7
7
9
10
11
10
8
9
10
10
9
7
6
4
5
6
7
6
4
4
5
5
5
6
5
5
4
5
6
7
7
5
5
6
8
8
7
6
5
6
8
10
11
10
10
11
13
12
11
11
12
13
15
14
12
10
10
10
10
7
2
0
-1
-2
-3
-1
1
2
4
7
9
10
10
9
8
7
6
5
5
4
4
2
1
-1
-4
-8
-14
-22
-35
-49
-64
-79
-89
-96
-92
-81
-65
-49
-38
-30
-24
-16
-12
-9
-8
-5
-3
-1
-1
0
0
2
3
4
5
6
5
4
4
5
6
7
8
9
9
9
9
9
8
7
7
7
7
7
8
7
7
7
7
8
8
10
13
14
11
9
6
5
4
5
6
7
6
6
7
8
8
8
6
5
4
2
0
0
0
1
2
2
4
5
7
7
6
6
6
7
9
10
11
13
15
15
16
16
17
16
16
16
17
18
19
21
22
24
23
23
21
21
20
20
21
21
21
22
22
20
18
17
16
17
17
17
18
20
21
22
22
22
21
20
19
18
16
15
17
20
22
22
20
18
16
16
17
18
19
19
19
21
20
20
18
19
20
22
23
24
24
24
24
23
23
20
19
18
18
17
14
15
15
15
14
13
14
15
16
16
17
17
16
16
16
16
16
17
17
15
12
10
9
6
2
-3
-11
-23
-37
-50
-62
-71
-76
-73
-63
-50
-38
-27
-17
-9
-4
-2
0
2
5
7
8
9
9
10
11
12
11
11
12
13
13
13
12
11
11
11
11
10
10
11
12
12
12
13
14
14
12
11
12
13
13
14
15
15
14
12
11
12
11
11
10
10
10
10
11
11
10
9
7
6
6
6
6
6
6
7
8
9
8
6
5
5
6
7
8
10
11
11
11
13
15
15
14
14
15
15
16
17
19
21
23
23
25
26
27
28
27
26
23
23
22
21
18
18
19
19
20
19
19
19
18
17
16
17
16
15
14
14
13
12
11
11
12
13
12
10
11
11
11
11
12
12
12
12
10
7
7
7
8
9
9
10
11
12
13
14
15
13
13
13
13
13
12
10
8
8
9
7
6
5
4
4
5
7
8
8
8
8
7
7
7
6
6
4
4
5
4
3
2
2
1
-1
-4
-9
-15
-24
-34
-49
-63
-76
-87
-91
-91
-79
-64
-47
-35
-26
-18
-13
-8
-5
-2
0
1
3
5
8
9
6
4
2
2
3
4
7
9
10
10
10
9
9
8
8
8
8
9
11
11
10
8
8
8
8
9
9
8
7
7
6
6
6
8
8
10
10
8
5
0
-1
-1
0
0
1
2
2
2
1
0
-2
-4
-4
-3
-1
-2
-3
-3
-2
-1
-2
-3
-3
-2
0
0
1
2
4
5
6
7
8
10
13
15
15
12
11
10
11
13
15
17
17
16
14
14
13
13
12
12
11
10
8
6
6
7
7
9
11
10
10
9
9
9
10
10
10
10
8
7
7
8
7
8
9
9
8
7
9
10
10
9
8
9
10
12
13
13
11
9
9
9
10
11
12
13
15
16
16
15
15
15
16
15
13
9
4
3
4
6
7
10
15
18
17
14
12
11
13
15
15
14
11
9
8
8
9
9
7
5
2
-1
-7
-15
-30
-46
-64
-80
-94
-104
-104
-96
-80
-63
-48
-36
-27
-19
-13
-8
-4
0
5
8
8
9
9
11
12
13
13
14
16
17
18
18
18
18
19
21
21
22
21
22
21
20
21
23
23
21
17
17
18
20
20
21
23
23
22
22
21
21
21
20
21
20
20
20
19
17
16
15
15
16
15
16
17
17
15
13
11
11
11
11
11
11
12
13
14
14
14
14
16
19
21
22
21
21
21
22
23
24
25
26
28
30
31
31
30
31
30
31
30
31
31
30
29
29
29
28
26
25
25
24
22
20
21
22
23
24
24
24
24
23
22
21
20
20
19
18
17
19
18
18
17
18
18
19
19
19
20
20
21
20
19
19
20
21
23
25
23
21
20
21
23
23
24
22
20
19
19
19
17
16
15
13
12
11
10
11
12
15
17
19
21
22
25
26
25
21
17
16
16
16
16
16
16
15
13
11
6
0
-7
-18
-31
-46
-62
-76
-86
-90
-82
-66
-47
-33
-24
-16
-7
0
3
6
9
12
13
14
14
15
15
18
21
22
20
17
16
16
17
18
18
19
19
20
19
20
19
20
21
23
23
22
19
18
17
16
16
16
17
17
17
16
17
18
19
20
19
17
14
13
13
12
11
12
12
11
10
10
9
8
8
6
5
4
5
5
6
6
5
5
6
7
8
9
11
12
12
13
14
15
16
17
19
19
21
22
23
23
23
23
24
25
25
25
25
26
25
24
24
24
24
23
22
22
22
22
21
21
20
20
19
19
19
19
18
19
19
19
18
18
18
17
18
18
17
16
16
16
17
17
18
17
17
17
17
17
17
17
17
18
19
19
20
22
22
22
22
23
24
25
26
26
27
26
24
23
22
21
19
17
14
13
12
13
15
16
18
19
19
19
19
18
18
17
15
16
15
15
14
12
11
10
8
5
2
-2
-10
-20
-34
-49
-66
-80
-91
-97
-92
-78
-58
-43
-32
-23
-15
-8
-4
-2
-1
1
4
6
8
9
8
8
8
10
11
12
12
12
13
14
14
14
14
14
14
15
16
15
15
15
15
15
15
15
16
15
15
15
15
15
14
14
14
14
13
12
12
11
11
10
11
10
10
9
10
11
11
9
8
8
7
7
6
6
5
4
4
4
5
6
7
8
9
10
11
11
12
13
14
15
16
16
17
19
21
22
23
24
25
24
24
25
26
26
26
26
25
25
25
25
26
25
25
24
24
24
22
22
21
21
21
21
20
20
21
22
22
22
22
21
22
21
21
21
20
20
19
21
22
24
24
23
22
22
23
23
25
24
24
23
24
26
27
27
27
28
28
28
28
29
30
31
31
32
32
31
30
29
27
26
24
22
20
19
19
21
23
24
25
26
27
27
26
26
26
25
25
25
24
23
22
22
22
19
17
14
9
2
-8
-21
-38
-55
-71
-85
-92
-94
-82
-64
-44
-29
-19
-10
-2
3
6
9
11
14
15
16
18
20
20
21
21
23
24
25
26
26
25
25
25
25
26
26
25
25
25
24
25
26
26
27
26
27
27
26
25
25
26
27
26
26
26
27
26
25
25
24
24
23
23
22
23
22
21
21
19
18
17
17
17
16
15
14
14
14
15
15
16
16
16
16
17
18
20
21
22
23
23
24
25
27
29
31
31
30
31
31
30
30
30
31
31
31
31
30
29
28
29
29
29
28
28
27
27
26
26
26
26
26
25
25
25
25
27
28
29
28
28
27
27
28
27
27
26
26
26
27
27
26
26
26
27
26
26
26
27
27
26
25
24
25
25
26
27
28
27
27
28
28
29
28
28
27
26
25
23
21
20
19
16
13
11
11
13
15
18
18
18
18
18
17
17
17
16
15
14
14
15
14
14
12
10
7
3
-1
-8
-18
-33
-50
-67
-84
-96
-104
-100
-84
-63
-45
-33
-23
-16
-9
-4
0
1
3
6
8
8
10
11
12
13
13
13
13
12
11
12
12
12
12
12
13
13
13
14
14
13
12
12
12
12
12
12
12
13
12
13
13
13
12
11
12
12
12
11
11
10
8
7
7
7
7
6
5
3
4
3
2
1
1
1
0
0
-1
-2
-2
-1
0
1
1
2
3
4
6
7
8
9
9
11
12
13
14
16
17
18
19
20
20
20
21
20
21
21
20
20
20
20
20
20
19
18
17
17
17
16
15
15
15
15
15
14
14
15
14
15
14
13
12
12
13
13
13
12
12
13
14
15
15
15
14
13
13
13
13
13
14
14
14
14
14
15
17
18
18
19
18
20
21
21
20
20
19
17
17
15
13
10
8
6
5
4
5
7
9
11
12
12
11
11
11
10
10
9
9
9
8
7
6
5
3
1
-1
-5
-11
-19
-30
-42
-58
-73
-88
-99
-105
-101
-87
-67
-51
-39
-30
-21
-12
-6
-3
-1
2
4
5
7
8
10
11
13
14
15
15
15
15
15
15
16
17
16
16
17
19
19
19
19
19
20
20
20
20
21
22
22
21
22
22
21
21
20
21
22
22
22
21
20
20
21
21
21
20
19
19
18
18
17
17
17
16
15
16
16
16
16
15
15
15
16
17
18
19
19
19
20
21
23
24
26
26
27
28
29
29
31
32
31
31
31
33
32
32
32
33
33
32
31
29
30
29
29
28
27
27
28
28
28
28
27
27
27
26
25
24
24
24
24
25
26
25
25
25
25
26
25
25
25
25
24
24
24
23
23
23
23
23
23
23
23
24
24
24
24
25
26
26
27
26
25
24
24
23
23
23
21
19
16
15
15
15
17
19
21
22
22
21
22
23
24
23
22
21
20
19
19
19
18
17
16
13
8
1
-7
-19
-35
-53
-69
-83
-92
-93
-82
-65
-45
-31
-22
-13
-5
0
2
5
8
11
12
13
15
16
17
19
21
21
21
22
23
22
21
20
19
19
20
22
22
23
23
23
24
23
22
22
22
21
21
20
21
20
19
19
17
18
18
18
17
16
16
15
14
13
13
13
12
12
12
12
10
9
8
7
7
7
7
5
4
4
3
2
3
4
5
6
6
7
7
8
8
9
9
10
10
11
13
14
16
16
18
19
19
19
20
20
20
20
21
20
20
20
21
20
20
19
18
17
17
17
18
18
17
16
16
16
16
15
16
16
16
15
15
14
14
14
14
15
14
14
14
15
15
15
15
15
15
15
15
14
15
15
15
16
17
17
17
18
18
20
20
20
20
18
17
16
15
14
12
10
8
6
6
6
7
9
11
13
15
15
14
12
12
12
11
11
10
10
9
9
7
6
5
2
-1
-7
-15
-26
-40
-55
-72
-86
-99
-104
-102
-92
-73
-57
-43
-34
-26
-19
-13
-9
-7
-5
-3
-1
0
1
2
2
3
3
4
4
4
4
5
6
6
7
7
7
8
8
9
9
8
8
8
8
7
8
8
8
8
8
7
7
7
7
7
7
6
6
5
4
4
3
2
1
1
0
0
0
-1
-1
-2
-2
-4
-5
-4
-4
-5
-6
-6
-6
-6
-6
-6
-5
-5
-4
-3
-1
0
2
4
4
4
3
3
3
4
6
8
9
10
10
11
12
13
13
13
12
12
13
13
13
12
11
10
9
9
8
7
6
5
5
5
4
3
4
4
3
3
3
3
2
2
3
4
4
4
3
3
3
3
3
2
2
2
2
2
1
2
2
3
3
3
4
4
5
5
5
5
5
5
6
7
8
10
11
12
11
10
10
9
8
7
6
5
4
3
3
4
6
7
8
9
10
10
9
8
8
7
6
6
7
6
5
3
2
1
0
-2
-7
-14
-23
-36
-48
-63
-76
-89
-100
-102
-99
-84
-69
-54
-43
-33
-24
-18
-14
-12
-9
-7
-5
-5
-5
-4
-3
-2
-2
-1
-1
0
0
1
1
1
1
1
0
0
0
0
0
0
0
1
2
3
3
3
2
2
2
2
2
1
1
2
2
0
0
-1
-1
0
-1
-2
-3
-3
-3
-3
-3
-3
-4
-5
-5
-7
-8
-8
-8
-7
-8
-8
-9
-9
-10
-9
-7
-7
-7
-7
-5
-3
-1
-1
0
0
1
3
4
6
6
6
7
8
10
10
10
10
10
9
9
8
8
8
8
8
8
6
5
5
5
5
3
3
2
1
1
1
2
2
1
0
0
0
0
0
0
0
0
-1
0
0
-2
-2
-2
-1
0
0
0
0
-1
-1
-1
-1
-1
-1
-1
-2
-1
0
0
0
0
1
1
1
1
0
0
-1
-2
-3
-4
-6
-8
-9
-10
-9
-9
-8
-6
-4
-2
-2
-2
-3
-3
-4
-5
-5
-6
-5
-6
-6
-7
-8
-9
-10
-13
-18
-25
-34
-46
-61
-76
-89
-100
-105
-101
-87
-70
-55
-45
-37
-30
-25
-22
-19
-16
-14
-12
-11
-10
-10
-10
-9
-7
-6
-7
-7
-6
-5
-5
-6
-6
-5
-5
-4
-3
-3
-3
-4
-4
-4
-4
-5
-5
-5
-5
-5
-5
-4
-4
-5
-5
-5
-5
-5
-6
-6
-7
-8
-8
-8
-9
-9
-10
-11
-12
-13
-13
-13
-14
-15
-15
-15
-16
-16
-17
-17
-17
-16
-15
-14
-14
-14
-13
-11
-10
-9
-7
-6
-5
-4
-4
-4
-4
-3
-3
-1
1
3
3
2
3
3
3
1
0
0
-1
-1
-2
-2
-3
-3
-3
-4
-5
-5
-5
-5
-6
-7
-6
-6
-6
-6
-6
-5
-5
-5
-5
-5
-5
-4
-4
-4
-4
-5
-5
-4
-3
-3
-2
-2
-1
-1
-1
-1
-1
-1
-2
-1
0
0
0
2
4
4
4
4
4
3
3
3
1
1
0
-3
-5
-6
-5
-4
-2
-2
-1
0
0
0
0
1
0
0
0
0
0
-1
-2
-3
-3
-4
-5
-7
-10
-14
-21
-32
-45
-59
-72
-84
-93
-100
-96
-84
-65
-50
-40
-33
-25
-19
-15
-13
-10
-7
-5
-2
-1
0
0
0
1
1
3
4
3
3
3
4
5
5
5
6
6
6
6
6
6
6
6
6
6
7
8
9
8
9
8
8
7
8
10
10
9
10
11
11
10
10
9
9
9
9
9
8
9
9
8
7
6
6
5
5
5
5
5
5
5
6
7
9
10
11
13
14
15
16
16
17
18
18
20
20
22
23
24
25
25
25
26
27
28
27
26
26
26
25
25
25
25
24
23
22
22
22
22
22
21
20
20
22
24
24
23
22
22
21
21
22
23
22
21
23
24
25
24
24
23
23
22
23
24
24
25
24
24
25
25
25
25
26
25
25
26
28
29
29
30
29
29
27
27
27
25
24
23
22
19
17
16
17
18
19
22
23
25
24
24
24
25
25
24
23
21
21
20
20
19
19
18
16
15
12
7
0
-11
-23
-39
-54
-67
-78
-84
-84
-70
-51
-34
-22
-13
-4
1
6
9
13
16
18
19
20
21
22
23
23
24
23
23
23
24
25
25
25
26
27
26
26
26
27
27
26
26
26
25
26
28
28
28
27
26
25
23
24
23
23
22
23
22
22
23
22
21
20
19
18
17
16
15
15
13
12
11
10
9
8
8
8
8
8
7
7
8
9
10
11
11
12
13
15
16
17
19
20
21
23
24
26
28
29
30
30
29
30
30
31
30
30
30
29
28
28
28
28
29
28
28
27
27
27
27
28
27
26
26
26
26
26
26
26
25
24
25
25
25
25
24
25
25
25
24
25
24
24
23
23
24
24
24
24
25
25
26
26
26
26
27
28
28
29
28
27
26
25
24
22
21
20
18
16
15
15
17
18
20
21
21
21
21
20
20
18
19
19
20
20
18
18
17
17
16
14
10
5
0
-9
-21
-36
-53
-67
-81
-88
-89
-79
-61
-44
-30
-21
-13
-7
-2
1
4
6
9
11
14
14
14
14
15
15
16
17
17
17
18
18
19
19
18
19
20
21
21
21
21
20
20
21
21
22
21
21
22
23
23
23
23
23
22
22
21
21
21
20
19
19
19
19
18
18
18
16
16
15
15
14
13
14
12
11
9
9
8
8
9
11
12
12
12
13
14
14
16
16
17
18
19
20
21
22
22
22
23
24
24
24
24
25
26
25
25
24
25
26
26
25
24
24
24
24
23
23
24
24
23
23
23
23
22
23
23
24
23
24
24
25
25
25
25
25
25
25
25
25
24
25
25
26
25
24
24
25
25
24
24
24
25
25
27
28
30
30
29
28
26
26
26
26
24
23
20
17
16
16
16
17
18
20
21
22
23
24
22
22
21
21
21
21
22
22
21
20
19
18
15
11
6
-1
-11
-25
-41
-58
-74
-86
-95
-94
-84
-65
-47
-32
-21
-12
-4
2
7
10
14
17
18
18
19
21
23
24
25
25
25
26
25
26
25
26
26
28
29
29
29
30
30
30
30
30
30
29
28
28
27
27
26
27
27
27
27
27
26
25
26
25
25
24
23
23
23
22
22
22
21
20
20
19
19
18
18
17
16
15
14
14
14
15
16
17
17
17
18
20
22
23
25
25
25
25
26
27
28
30
30
31
30
31
31
31
32
32
33
32
32
32
32
32
31
31
31
30
30
30
30
29
28
27
27
26
27
26
27
27
28
28
27
26
26
27
26
25
24
24
23
24
24
24
24
25
25
26
26
26
26
26
26
27
28
28
29
29
30
29
30
29
28
28
26
25
23
21
17
16
15
15
17
19
22
24
24
24
24
23
23
23
22
21
20
20
18
18
18
17
15
11
6
0
-8
-20
-35
-51
-67
-82
-93
-100
-95
-83
-64
-49
-37
-26
-18
-9
-4
0
0
3
6
8
10
11
11
11
11
12
13
13
13
12
13
13
13
15
15
15
15
15
14
14
15
15
15
14
15
15
16
16
15
15
15
15
14
14
13
13
13
12
12
12
11
10
10
9
9
8
7
6
6
5
5
5
4
4
4
4
4
3
3
2
3
3
4
6
7
7
8
8
9
10
11
12
13
14
15
16
17
17
17
18
19
20
20
21
21
22
22
22
22
21
20
20
21
21
20
19
19
20
19
19
19
19
18
18
17
17
17
17
18
17
16
15
15
15
15
14
14
14
14
14
13
14
13
13
13
14
14
13
14
14
15
15
16
17
18
19
19
19
18
17
16
15
14
13
12
10
8
7
7
8
10
13
14
14
14
13
13
12
12
11
11
10
10
10
9
8
6
6
4
2
0
-6
-13
-24
-38
-54
-71
-84
-97
-99
-93
-75
-55
-40
-28
-21
-14
-8
-5
-4
-1
1
2
3
4
5
6
7
8
8
9
9
9
10
10
10
10
11
11
11
12
13
13
12
12
12
13
14
13
14
14
14
14
14
14
14
14
13
13
14
13
13
13
13
11
11
11
11
11
10
10
9
8
8
7
6
6
7
7
7
7
6
6
7
7
7
8
8
9
9
10
11
13
15
17
18
18
18
19
20
21
22
22
23
23
24
24
25
25
25
26
26
27
26
26
26
25
24
23
23
22
22
21
21
22
22
22
21
21
20
19
19
19
19
19
19
18
18
18
17
18
18
17
17
17
17
17
17
17
16
16
16
16
15
16
17
19
19
20
20
21
22
22
22
20
19
20
20
19
17
16
13
10
8
8
9
10
12
14
15
16
16
17
17
16
15
15
14
13
13
13
12
11
10
9
7
4
-1
-10
-21
-34
-51
-66
-80
-93
-99
-97
-81
-63
-46
-33
-23
-15
-8
-4
-1
1
4
6
8
10
10
10
12
14
14
14
15
15
15
15
16
16
17
17
18
18
17
16
16
16
16
16
16
15
15
14
13
13
13
13
13
13
13
12
11
11
11
11
10
9
8
8
8
8
7
7
6
5
5
5
4
4
4
4
3
2
2
2
3
2
3
4
5
6
6
6
5
6
8
11
11
13
14
14
15
15
17
18
20
20
22
23
22
22
22
22
21
20
19
19
19
18
17
16
15
15
15
15
14
14
15
16
15
15
14
14
14
13
12
13
14
14
14
14
13
13
13
14
15
16
16
16
16
16
16
16
16
16
16
15
15
16
16
17
16
18
18
19
19
18
18
16
15
13
11
9
6
4
3
3
2
3
4
5
7
7
9
8
8
7
7
7
8
9
8
7
5
4
4
2
0
-4
-9
-16
-26
-39
-54
-68
-82
-91
-97
-93
-82
-66
-50
-38
-28
-21
-14
-9
-5
-3
-1
1
2
4
6
7
7
8
8
10
10
10
10
10
10
11
12
11
11
10
11
10
10
10
9
10
10
10
11
11
11
11
11
11
12
14
15
14
14
14
13
12
13
13
13
13
11
10
9
10
11
11
9
8
7
7
6
5
5
5
4
4
4
4
4
5
6
7
8
8
9
9
10
12
13
14
15
15
15
17
18
19
19
20
21
21
21
21
21
21
20
21
20
20
20
18
17
17
17
16
17
16
16
15
16
15
13
12
12
12
11
11
11
11
10
10
9
8
7
8
8
9
8
7
8
9
9
11
12
12
12
12
13
14
13
13
14
16
17
17
18
19
19
20
19
19
18
17
16
15
15
13
12
12
13
14
15
17
17
18
18
19
20
21
20
21
21
20
20
20
20
19
18
17
14
11
5
-2
-12
-26
-39
-54
-66
-76
-81
-73
-59
-41
-28
-15
-6
0
4
8
11
15
17
19
19
19
21
23
24
24
24
24
24
25
25
26
26
27
27
27
27
28
27
27
28
28
28
27
27
28
27
27
27
28
27
27
27
27
27
26
26
26
25
24
23
22
22
20
19
19
19
18
17
17
17
16
16
16
16
15
14
14
13
13
13
14
15
16
17
19
20
21
20
21
22
23
24
24
26
27
27
28
28
30
31
32
33
33
33
33
33
33
32
32
32
30
29
29
30
31
31
31
30
28
27
26
26
25
25
25
26
26
25
26
25
25
25
26
26
26
26
26
26
25
26
25
26
26
27
28
27
28
28
27
27
27
29
29
29
30
31
32
32
32
33
33
32
31
29
28
26
25
23
22
20
19
18
19
21
22
24
26
26
26
25
26
25
25
25
25
25
24
23
21
20
19
18
15
10
1
-8
-20
-35
-51
-64
-78
-87
-88
-78
-60
-42
-28
-17
-9
-2
2
4
7
9
11
13
14
16
17
16
16
17
18
19
18
18
18
18
18
18
19
18
18
18
18
18
18
18
18
18
18
18
18
18
16
16
15
15
16
16
15
14
15
15
15
14
12
12
12
11
10
10
9
9
9
9
8
7
6
5
4
4
4
3
2
2
3
3
4
5
6
7
9
10
12
13
13
13
14
15
15
16
16
16
17
18
19
19
20
20
20
20
20
19
19
19
18
18
17
16
16
16
16
18
18
18
18
17
16
16
16
16
17
17
17
17
17
17
17
17
16
16
15
15
14
15
15
17
16
16
16
16
16
15
16
16
16
15
16
17
18
18
19
21
21
21
21
21
20
19
17
16
14
12
9
8
8
9
10
12
14
15
15
15
14
15
14
14
13
13
12
12
12
12
11
9
7
5
2
-2
-11
-22
-35
-50
-66
-81
-92
-98
-97
-84
-68
-52
-41
-32
-24
-16
-10
-6
-2
1
5
6
8
9
9
10
12
12
11
12
13
14
14
15
15
15
15
16
16
16
17
17
18
17
17
18
17
16
15
16
16
16
17
16
16
16
16
16
17
16
15
15
16
17
17
16
14
13
11
11
10
10
9
9
10
10
10
9
8
8
9
10
9
9
9
10
11
10
11
12
13
13
14
15
16
17
17
17
17
17
18
20
21
21
22
21
22
22
23
22
22
23
22
23
22
22
22
23
22
22
22
23
23
22
22
24
25
26
26
25
24
24
25
27
27
27
26
27
27
27
28
28
28
28
29
29
28
28
28
29
29
29
30
31
33
33
35
35
36
35
34
34
32
30
28
27
25
23
21
21
22
23
24
25
26
27
29
28
27
26
24
23
23
24
23
21
20
19
19
17
15
11
6
-1
-12
-26
-45
-63
-78
-92
-94
-89
-71
-53
-38
-27
-18
-9
-2
0
3
5
7
9
10
12
13
14
15
16
16
16
15
16
16
16
17
17
18
18
19
20
19
19
19
20
20
20
20
21
21
21
21
22
22
22
22
22
22
22
22
22
22
21
20
19
19
18
18
18
17
17
15
15
13
12
11
11
13
13
12
12
11
9
9
9
10
11
12
13
13
14
16
18
18
18
17
17
17
18
18
18
19
19
19
19
19
20
20
21
22
23
24
24
24
24
25
24
24
24
23
23
22
22
22
22
21
21
21
20
21
21
22
21
20
20
20
19
19
20
20
20
20
20
19
19
19
19
19
19
19
20
21
22
23
23
23
22
20
20
20
19
17
16
15
12
9
8
8
9
11
13
14
14
14
14
14
13
12
12
12
12
12
11
10
10
9
8
7
4
0
-5
-13
-25
-40
-58
-75
-88
-99
-100
-90
-70
-49
-35
-25
-16
-9
-4
-1
0
3
5
7
8
9
10
11
12
12
13
13
14
14
15
15
15
15
16
16
16
16
16
17
17
18
17
16
15
16
16
16
16
16
16
15
14
14
13
13
14
15
14
13
12
12
13
13
13
13
11
10
10
11
11
11
10
10
9
8
7
7
8
8
8
8
8
9
9
10
12
14
15
16
16
17
17
18
19
18
18
17
18
17
18
17
17
18
19
20
19
20
21
22
22
21
21
21
21
22
22
23
22
22
22
21
21
21
21
22
21
21
20
20
19
19
19
19
19
19
19
18
17
17
17
17
17
17
17
18
19
19
21
22
23
24
25
25
24
23
23
23
21
20
19
16
15
13
14
13
14
16
19
20
21
21
21
22
21
22
22
22
22
20
20
19
19
18
17
17
16
13
7
0
-11
-25
-41
-58
-72
-85
-93
-89
-76
-55
-38
-25
-15
-7
-1
3
6
8
10
12
15
16
17
18
20
21
22
22
23
24
24
25
25
26
25
25
26
26
27
27
29
30
31
30
30
29
29
29
28
29
29
29
29
30
30
29
28
29
30
28
28
28
28
27
26
26
26
26
25
24
23
22
21
20
20
20
20
19
17
16
16
16
17
18
18
19
20
22
23
24
24
25
26
27
27
27
28
27
28
28
27
27
28
28
29
28
29
29
29
29
30
30
30
30
30
31
29
28
28
28
27
27
27
27
27
26
25
24
25
25
24
23
23
23
23
23
23
22
21
21
22
23
24
23
23
23
22
22
22
23
23
24
25
26
26
27
28
28
28
27
25
24
22
22
21
19
18
17
17
18
19
21
23
23
24
23
23
23
22
21
21
22
22
22
20
19
18
17
16
14
12
8
1
-6
-16
-27
-41
-54
-65
-75
-78
-76
-62
-46
-32
-21
-13
-4
0
3
5
8
11
12
13
14
15
16
16
17
17
18
18
19
19
19
19
19
20
19
19
20
20
21
21
21
20
20
20
21
22
21
20
20
20
20
20
20
21
22
22
21
20
18
17
17
17
16
16
15
14
13
12
12
11
11
10
10
9
8
7
6
6
6
7
7
7
7
7
8
9
11
11
11
11
12
13
13
13
13
13
13
12
13
13
13
13
14
14
14
14
14
14
13
12
12
12
12
11
12
12
12
12
12
11
10
9
10
11
10
9
10
10
9
10
10
11
11
11
10
10
10
10
10
10
10
10
11
12
11
11
11
11
11
12
13
13
14
14
15
15
14
13
12
11
9
8
6
5
3
2
3
3
4
5
6
7
8
9
9
8
8
7
7
6
6
6
6
5
4
3
1
-2
-5
-9
-16
-26
-38
-51
-64
-76
-85
-90
-86
-75
-59
-44
-33
-26
-19
-13
-10
-8
-5
-2
0
0
0
0
1
1
2
2
3
3
3
3
3
3
3
5
5
5
4
4
4
4
4
4
5
5
5
5
5
7
7
7
6
6
6
5
5
5
6
5
5
5
5
5
5
6
5
4
4
3
3
3
2
2
0
0
-1
-1
-1
-2
-2
-2
-2
-1
0
0
0
1
2
3
4
4
5
5
6
6
6
6
5
5
5
5
5
4
4
5
6
6
6
5
6
6
6
6
6
5
6
6
4
4
4
4
4
3
3
3
3
2
1
2
3
4
3
3
3
3
3
3
3
3
3
4
5
5
5
5
5
4
4
4
5
6
6
6
7
8
10
10
9
8
7
5
4
3
0
-1
-1
-1
0
3
4
5
6
6
6
6
5
5
5
5
4
3
3
3
3
3
1
0
-2
-6
-12
-19
-30
-46
-62
-78
-91
-100
-102
-91
-76
-56
-43
-32
-22
-16
-11
-8
-6
-5
-3
-1
0
0
0
1
3
3
3
2
1
1
1
1
1
2
3
4
5
5
4
4
5
5
5
5
5
5
4
5
5
5
6
6
7
6
6
5
6
6
4
4
3
3
3
3
3
2
2
1
0
-1
-2
-3
-4
-5
-6
-5
-5
-5
-6
-6
-6
-5
-3
-3
-3
-2
-1
-1
0
1
2
4
4
5
6
6
5
5
5
5
6
6
6
6
6
7
8
8
8
8
8
8
7
7
7
7
7
6
6
6
5
5
5
6
5
5
5
5
5
5
5
6
5
4
4
4
4
4
5
6
5
5
5
6
5
5
6
7
8
8
8
9
9
10
10
10
10
10
9
7
5
3
2
1
-1
-3
-4
-5
-4
-2
0
3
3
3
4
4
4
4
4
4
2
1
0
0
-1
-2
-4
-8
-13
-20
-29
-41
-57
-73
-90
-106
-117
-126
-121
-108
-87
-68
-54
-43
-33
-24
-18
-14
-11
-7
-5
-3
-2
-1
0
0
0
0
0
1
1
2
2
2
2
3
3
3
3
4
4
4
4
4
5
6
5
5
5
4
4
4
4
4
4
3
3
3
4
5
5
4
3
3
2
1
1
0
0
0
-1
-2
-3
-3
-4
-4
-5
-5
-5
-6
-5
-5
-5
-5
-4
-4
-2
0
1
2
3
3
4
4
5
6
6
7
7
7
7
7
8
7
7
7
8
9
9
10
10
10
11
11
11
11
12
11
11
11
10
10
10
10
9
9
9
9
10
11
11
10
10
10
10
10
10
11
12
12
12
12
12
12
12
12
13
12
12
13
14
15
15
16
17
18
17
16
15
15
13
10
10
8
7
4
3
2
3
4
7
9
11
11
12
12
11
10
10
11
11
10
10
9
9
8
6
4
1
-3
-9
-19
-33
-51
-69
-85
-99
-110
-113
-103
-86
-65
-50
-38
-28
-19
-13
-8
-4
-1
1
3
4
6
7
8
9
9
9
9
10
11
11
11
12
14
15
14
15
15
16
17
18
17
17
17
17
18
18
20
21
20
18
18
19
19
18
17
18
18
19
18
18
18
18
17
16
16
15
15
15
15
15
14
13
12
11
12
12
12
12
12
12
12
13
14
15
16
17
19
19
19
21
21
22
22
22
22
22
21
21
22
22
22
21
22
23
24
26
26
27
27
28
29
28
28
27
28
28
29
29
29
29
28
29
28
28
28
28
28
28
28
28
28
29
30
30
30
30
30
29
29
30
30
30
29
29
29
30
31
31
32
32
33
33
34
34
35
35
34
34
33
31
30
28
28
25
22
21
20
20
21
23
24
26
26
27
27
26
26
25
25
24
24
23
23
22
21
20
18
16
12
9
2
-7
-20
-37
-53
-70
-84
-91
-94
-83
-65
-45
-30
-19
-9
-2
3
6
8
10
12
14
16
16
17
18
18
19
20
20
21
22
23
24
24
24
25
26
27
26
27
27
27
27
27
27
27
28
28
29
29
29
28
27
27
26
26
26
26
26
26
26
24
24
24
24
23
23
22
22
22
21
20
20
20
19
19
19
18
17
16
16
15
15
14
14
14
16
17
18
19
18
19
19
20
20
20
20
20
21
21
21
21
21
21
22
24
25
24
22
23
24
24
24
25
25
24
24
23
23
23
22
23
22
22
22
22
22
22
23
22
23
23
22
22
22
23
22
22
22
23
23
23
22
22
22
22
23
24
24
25
26
27
27
28
26
25
22
21
21
21
20
17
14
12
12
12
13
15
16
17
18
19
18
18
17
17
17
17
16
16
16
15
13
13
13
11
8
4
-1
-10
-21
-36
-53
-69
-84
-94
-99
-90
-73
-53
-38
-27
-18
-10
-4
-1
1
4
7
9
11
11
12
12
13
14
15
15
16
16
16
16
15
15
15
16
16
17
17
17
17
17
18
18
17
16
16
16
16
16
16
15
15
15
15
16
16
16
17
17
17
16
15
15
14
14
13
12
12
11
11
11
11
10
9
7
7
6
6
7
7
7
7
7
8
8
9
10
11
10
11
11
12
12
11
12
11
11
11
12
12
12
12
12
12
13
14
15
16
16
16
17
17
17
17
17
18
18
18
18
19
19
18
18
18
18
18
17
18
18
17
18
18
18
17
17
18
18
18
18
20
20
19
19
19
19
19
20
21
22
22
21
21
21
20
18
18
17
16
15
14
12
11
11
10
10
12
14
16
17
18
17
16
16
16
16
16
16
15
14
13
13
12
11
9
6
2
-3
-10
-22
-37
-53
-71
-86
-99
-103
-96
-79
-55
-38
-25
-16
-8
-3
0
3
7
10
11
12
14
16
16
16
17
18
19
20
20
20
20
19
20
20
20
20
20
21
21
22
21
21
21
21
21
23
23
22
22
22
22
22
21
21
22
23
22
21
20
21
20
19
19
19
18
18
17
17
17
16
15
15
13
13
12
13
13
13
12
13
13
14
15
16
17
17
18
19
19
19
19
21
22
22
21
21
21
21
21
21
22
21
20
20
20
20
21
22
22
22
22
24
25
25
25
24
24
23
23
24
24
24
24
25
25
25
25
25
25
25
25
26
26
25
26
26
26
26
26
26
26
26
26
27
28
29
29
28
29
30
30
30
29
28
27
25
22
21
19
18
15
14
13
12
13
15
18
18
18
18
18
18
19
19
18
18
16
16
15
15
15
14
14
12
8
4
-2
-12
-26
-42
-60
-77
-89
-101
-103
-95
-76
-55
-39
-26
-18
-10
-4
1
3
6
8
11
13
14
14
15
15
16
17
18
18
18
19
20
20
20
21
21
21
21
21
22
22
22
22
22
21
21
21
21
22
22
21
21
20
20
20
19
19
19
18
17
18
16
15
14
13
12
12
11
10
10
9
8
8
8
7
6
6
4
5
5
5
5
5
7
8
8
8
9
10
11
12
11
11
11
11
10
11
12
12
12
11
11
12
12
13
14
14
14
15
16
16
16
16
16
17
16
16
16
16
16
16
15
15
15
15
16
17
17
17
17
16
16
15
15
15
15
14
14
14
14
15
15
15
15
15
15
16
17
18
18
18
18
18
18
17
18
17
15
14
12
12
10
7
5
6
7
8
9
11
13
12
13
13
13
13
12
11
11
10
11
11
9
8
7
6
3
0
-5
-12
-22
-36
-52
-68
-83
-96
-103
-100
-85
-65
-47
-34
-25
-18
-12
-8
-5
-2
0
3
4
6
6
7
9
10
11
11
12
12
13
13
13
12
13
13
13
13
13
14
14
14
13
14
14
15
14
14
15
15
15
15
15
15
14
14
13
13
13
12
12
11
11
12
12
12
12
11
10
9
9
8
8
8
7
6
5
5
4
4
4
5
5
5
6
7
7
8
8
9
8
8
8
7
7
8
9
9
9
9
9
10
10
12
11
11
12
13
14
14
15
16
16
16
17
17
18
18
18
17
18
18
19
19
19
19
19
20
19
19
20
19
20
20
20
19
18
17
18
19
19
20
20
21
21
22
23
23
25
25
27
28
28
27
26
25
23
22
22
21
21
19
18
17
18
18
19
21
23
23
23
24
24
24
23
24
23
23
23
22
21
20
19
18
16
13
6
-2
-16
-32
-48
-63
-73
-83
-84
-77
-62
-45
-33
-22
-12
-4
1
5
9
12
14
16
19
20
21
22
23
23
24
23
24
24
24
25
26
26
26
27
27
27
27
27
27
27
28
27
28
28
28
28
28
29
27
27
26
27
27
26
26
26
26
25
25
24
24
23
23
23
22
21
20
20
19
18
18
17
17
16
16
16
16
16
15
15
15
16
17
17
18
20
22
23
23
24
24
24
26
26
26
26
27
27
26
26
26
25
25
25
25
26
27
28
30
30
30
30
30
31
30
30
29
29
28
28
28
29
30
28
28
28
28
27
27
27
27
28
28
28
27
27
26
28
28
29
28
29
30
30
30
30
31
32
32
34
34
35
34
34
33
33
31
29
27
27
26
24
22
21
21
22
23
24
25
25
24
23
23
22
22
21
21
20
20
18
18
17
16
15
13
9
4
-3
-12
-25
-40
-56
-71
-81
-90
-87
-73
-55
-39
-27
-17
-10
-4
0
3
5
8
10
12
13
15
15
16
16
17
17
17
17
17
18
17
18
18
18
18
19
20
20
20
20
20
20
20
20
20
20
20
20
20
20
20
20
20
19
19
18
18
17
17
17
17
17
15
14
13
13
13
12
12
11
10
10
9
9
8
8
8
9
8
8
8
8
9
9
10
11
13
13
14
15
15
16
16
17
17
17
17
17
17
16
16
15
16
17
17
16
17
18
19
19
19
19
19
19
18
18
18
18
17
17
16
16
15
15
15
15
15
15
15
14
15
16
15
15
15
15
15
15
16
16
15
15
15
16
16
16
15
16
17
17
18
17
18
17
18
18
18
17
15
13
12
11
9
7
6
5
4
5
7
8
10
11
12
13
14
14
13
12
11
11
11
10
9
9
8
7
6
3
0
-5
-14
-25
-38
-54
-69
-84
-94
-100
-96
-83
-65
-49
-38
-28
-20
-13
-9
-6
-3
0
3
4
5
5
6
7
9
10
10
9
9
9
9
10
10
11
11
11
11
11
11
11
11
11
12
11
10
10
10
11
10
10
10
10
9
9
9
9
8
8
8
7
7
7
7
6
4
4
5
4
3
2
2
2
1
1
0
0
0
0
-1
-1
-1
-1
0
1
2
3
3
5
5
6
6
6
6
6
6
7
7
7
7
9
9
9
9
9
10
10
11
11
12
13
14
15
15
15
14
14
14
14
14
14
14
15
15
14
14
14
15
14
15
15
15
14
14
14
14
14
14
14
13
12
12
13
13
12
12
12
13
13
14
15
16
17
17
17
16
16
15
13
11
9
8
7
5
3
3
4
5
8
9
10
11
11
11
10
11
10
11
11
10
9
8
9
8
7
5
3
0
-5
-12
-23
-35
-50
-67
-81
-96
-103
-105
-93
-74
-54
-39
-29
-20
-14
-10
-7
-4
-1
1
2
3
3
4
4
5
6
6
6
6
6
7
6
6
7
8
9
9
9
9
8
8
8
8
9
9
9
9
9
9
9
10
10
11
11
11
10
9
10
10
10
9
9
9
8
8
8
8
7
7
5
5
4
4
5
4
4
3
3
3
2
2
3
4
5
5
5
7
8
9
8
8
8
8
8
8
9
9
8
7
7
7
7
7
6
5
7
9
9
10
10
11
11
11
10
10
10
10
10
10
10
8
9
10
10
11
10
9
9
8
8
7
7
6
5
4
4
3
4
4
4
5
5
4
5
5
5
5
5
7
8
8
10
11
10
9
7
6
4
3
1
0
-2
-4
-5
-4
-4
-3
-1
0
1
1
1
2
1
1
0
-1
-1
-2
-2
-2
-3
-4
-5
-7
-10
-15
-21
-30
-40
-54
-69
-84
-100
-108
-113
-103
-87
-68
-53
-42
-32
-25
-20
-16
-13
-10
-6
-5
-4
-3
-2
0
0
0
0
1
1
2
3
4
4
5
4
3
4
5
5
5
5
5
6
7
7
8
9
9
9
9
9
8
8
8
9
9
8
8
8
7
7
6
6
6
5
5
5
4
3
3
4
4
4
3
3
2
2
2
3
4
3
4
6
6
7
7
8
8
9
9
10
11
12
14
13
12
11
12
11
11
11
11
12
12
12
12
12
13
13
13
14
14
15
15
14
14
14
14
15
15
14
13
14
14
14
13
13
13
13
13
13
12
12
12
12
12
12
12
12
12
11
11
12
12
12
13
12
13
13
14
15
16
16
15
15
14
13
12
10
10
8
6
3
1
1
0
2
4
6
6
6
7
8
7
7
7
6
5
4
3
3
2
2
2
1
0
-4
-10
-16
-27
-42
-58
-75
-89
-101
-108
-103
-89
-68
-52
-38
-27
-17
-10
-4
-1
1
5
8
10
11
12
13
14
15
15
15
16
16
18
20
20
21
20
20
20
21
21
21
22
21
21
21
21
21
20
21
20
20
19
20
19
19
19
19
18
18
18
17
17
17
16
15
13
12
12
11
10
10
10
9
8
8
8
7
6
5
5
4
4
5
7
8
8
9
10
11
12
12
13
13
13
13
14
14
14
15
15
15
15
15
16
17
18
19
20
20
20
21
22
22
23
24
24
24
24
24
24
24
24
24
24
24
23
22
22
21
22
22
21
21
20
20
21
22
23
21
20
20
21
21
22
22
22
21
21
22
23
24
25
25
25
25
24
23
22
21
21
19
18
15
12
10
9
10
10
11
14
16
18
19
20
20
20
19
18
18
17
17
17
17
14
13
12
11
7
1
-5
-15
-30
-46
-64
-78
-93
-101
-103
-94
-75
-57
-41
-29
-19
-11
-5
0
2
4
7
9
12
13
14
15
17
17
17
18
19
20
20
21
21
21
21
21
22
22
22
22
22
24
25
24
23
23
23
22
22
23
23
22
22
22
21
20
20
19
18
18
18
18
18
18
17
16
16
15
14
14
13
11
10
11
9
8
8
7
6
6
6
5
5
5
6
7
8
9
10
11
10
10
10
10
10
9
8
8
8
6
6
5
6
7
8
9
10
10
10
11
11
11
11
11
12
13
13
13
13
13
13
13
13
13
13
13
14
14
13
14
13
13
14
13
14
14
13
13
12
13
13
13
13
12
12
12
12
13
15
15
15
15
16
17
18
18
17
16
14
13
11
9
8
5
3
2
2
3
5
7
9
10
11
10
9
8
9
10
10
10
9
9
9
8
6
4
2
0
-4
-11
-20
-33
-48
-67
-83
-99
-109
-111
-101
-82
-62
-47
-35
-25
-16
-10
-6
-2
0
2
4
6
7
7
9
9
9
8
9
9
10
10
10
11
11
11
11
11
11
12
12
12
12
12
12
12
13
13
13
13
13
12
12
12
12
12
12
13
13
13
12
11
12
11
10
10
10
10
9
8
8
8
7
8
7
6
5
4
3
2
2
2
3
4
4
5
5
6
6
7
7
7
8
8
7
7
6
6
6
6
5
6
6
6
6
6
7
9
11
11
12
12
13
12
13
14
13
13
13
13
13
12
12
13
13
12
12
11
11
11
10
11
11
11
10
10
10
11
11
12
12
13
13
13
13
13
13
14
15
17
18
20
20
20
19
18
18
17
16
15
14
13
10
9
8
7
7
8
10
12
13
14
14
14
14
13
13
12
11
11
12
12
10
9
8
7
3
-2
-9
-18
-30
-47
-64
-80
-96
-105
-107
-93
-73
-51
-36
-26
-17
-9
-4
-1
1
4
6
8
10
11
12
13
14
15
16
17
18
18
18
19
20
19
19
20
20
20
21
21
21
21
21
22
22
22
21
21
22
21
20
20
21
20
20
19
19
18
17
17
17
17
16
16
17
17
17
15
15
13
12
12
13
13
12
12
12
12
11
10
11
13
14
14
14
15
15
16
17
18
18
18
18
18
18
18
18
18
18
17
18
18
18
18
19
19
20
20
20
21
22
22
22
23
24
24
23
23
24
23
23
22
22
21
21
21
20
20
19
19
19
18
18
19
21
20
20
20
21
20
20
20
20
22
22
23
23
25
26
26
26
26
25
24
23
21
20
18
16
13
12
11
12
13
15
16
17
18
18
18
19
18
17
16
15
16
15
14
14
14
13
11
8
6
1
-6
-16
-30
-48
-66
-84
-97
-102
-96
-78
-57
-40
-28
-19
-12
-7
-4
-2
0
3
4
5
7
8
8
7
8
8
8
8
9
11
11
11
11
12
11
12
12
12
13
13
14
13
13
13
13
14
14
14
14
14
14
14
14
14
14
13
12
12
13
13
12
12
12
11
10
10
9
8
6
5
5
4
3
3
3
3
2
2
3
3
3
4
4
5
6
6
7
8
8
8
10
10
9
8
9
10
10
10
10
10
10
10
10
11
12
13
13
13
14
14
15
16
16
16
17
17
17
16
16
17
16
16
15
15
15
14
14
14
15
13
12
12
12
13
12
11
11
11
11
11
12
12
12
11
11
12
13
14
15
16
16
16
16
16
15
14
13
11
10
8
7
5
5
5
5
6
9
11
11
12
13
13
13
12
11
10
10
9
10
9
8
7
5
2
-1
-7
-14
-26
-39
-54
-70
-84
-97
-103
-103
-91
-75
-58
-43
-33
-24
-17
-11
-8
-5
-2
1
3
4
5
6
6
7
8
8
9
9
10
10
10
11
11
12
12
12
13
14
15
15
15
15
16
17
17
15
15
15
15
15
15
16
15
14
15
16
17
15
15
14
14
13
13
12
11
10
10
10
9
8
8
9
9
9
9
9
9
9
10
10
10
11
12
13
14
14
14
14
15
15
14
15
15
14
15
15
15
15
15
16
17
17
17
18
20
21
21
22
24
24
24
24
24
24
24
23
23
23
22
22
22
23
23
22
22
21
20
20
21
21
22
22
22
22
22
22
22
23
23
23
23
23
24
25
25
25
26
27
28
29
29
28
27
26
24
23
22
21
20
18
16
15
16
17
17
18
20
21
22
22
23
22
21
20
20
19
19
18
16
15
14
13
9
4
-3
-13
-25
-40
-55
-71
-84
-95
-99
-89
-73
-53
-38
-26
-16
-8
-3
0
2
4
6
8
10
10
11
12
13
14
14
14
15
15
15
15
16
16
17
17
18
19
18
18
19
19
19
19
19
20
20
20
19
20
20
20
20
20
20
20
20
19
18
17
17
17
16
16
15
15
15
15
14
13
13
13
13
12
11
11
11
10
10
11
10
10
10
12
11
11
12
13
14
13
13
14
16
15
15
15
15
15
15
16
17
18
18
19
19
20
21
22
22
20
21
22
23
24
24
24
23
24
23
22
22
21
21
20
21
21
21
21
21
21
21
22
21
22
22
21
21
21
22
22
22
22
22
22
22
23
23
24
23
23
23
24
24
24
23
21
20
18
17
16
15
13
11
10
10
11
12
14
14
15
16
17
16
16
16
16
15
15
15
14
13
12
10
8
5
0
-6
-15
-28
-42
-58
-71
-83
-92
-96
-89
-74
-55
-40
-28
-19
-10
-4
-1
0
3
7
9
10
11
11
12
12
14
15
16
15
16
16
17
17
17
18
19
19
19
19
19
20
20
19
19
19
18
18
18
18
18
19
19
19
18
17
18
19
19
18
18
18
19
18
18
17
16
16
15
15
15
15
15
14
13
11
11
11
10
10
11
12
12
12
12
12
13
13
13
14
14
14
14
14
14
14
14
15
15
15
15
17
16
17
17
18
19
19
20
19
20
20
20
20
21
20
20
21
21
21
20
20
21
22
22
21
20
20
20
20
20
19
19
19
20
20
20
20
20
20
20
21
22
22
22
23
24
25
25
25
25
26
26
27
26
26
25
23
21
19
18
15
13
13
13
13
14
16
18
19
19
19
19
19
18
20
22
20
19
18
18
17
16
15
12
9
4
-2
-12
-27
-43
-62
-77
-89
-92
-79
-61
-41
-28
-18
-10
-4
1
4
7
10
12
14
15
16
17
18
19
20
21
21
21
21
22
22
21
21
22
21
21
21
22
22
22
22
23
23
23
23
24
24
23
24
24
24
24
24
24
24
24
23
23
23
23
23
24
25
24
23
22
22
20
20
20
19
19
17
16
16
15
14
14
14
14
13
14
15
15
16
17
17
17
17
18
19
19
19
20
20
20
20
20
20
20
21
20
21
21
22
22
22
23
23
23
23
24
23
23
24
23
23
22
22
22
22
23
22
22
22
23
23
22
22
22
21
21
21
21
21
22
22
23
22
22
21
21
21
21
22
23
24
25
25
25
26
27
28
27
24
23
21
20
18
17
15
13
12
11
13
15
17
18
18
18
19
19
18
18
18
18
17
16
15
14
14
13
12
9
6
1
-6
-17
-30
-47
-63
-80
-93
-103
-106
-97
-79
-60
-44
-31
-22
-14
-7
-2
0
2
5
7
9
10
11
12
14
14
15
15
17
17
18
18
17
18
19
20
20
21
21
21
21
20
21
21
22
22
22
22
23
22
21
22
23
24
24
24
24
24
23
23
23
22
21
20
20
19
18
18
17
17
16
16
15
15
14
13
13
12
11
11
11
10
10
11
12
13
14
14
14
14
15
14
14
14
15
14
14
15
15
14
14
15
15
15
15
16
17
17
17
17
18
18
18
19
19
19
18
18
19
19
18
17
17
16
15
15
15
15
15
15
16
16
16
16
16
17
16
16
16
16
15
15
15
16
16
17
17
19
20
20
20
20
19
19
18
17
15
14
14
12
10
8
8
9
11
14
16
17
16
16
16
15
15
13
13
12
12
12
10
10
10
9
7
4
0
-4
-10
-20
-31
-46
-61
-77
-90
-98
-100
-88
-71
-51
-35
-23
-14
-8
-3
-1
2
6
8
9
11
13
14
14
15
16
16
17
17
18
18
19
20
21
21
21
22
22
23
24
23
24
24
25
25
26
26
26
25
25
25
25
25
25
25
24
24
23
23
23
22
22
22
22
21
20
19
19
19
18
17
17
16
15
15
15
15
15
15
15
15
16
17
17
18
18
19
19
19
19
19
19
20
19
19
20
20
20
20
20
20
19
19
20
22
22
22
22
23
23
24
24
24
24
25
27
26
25
25
25
26
25
24
24
25
25
26
26
27
27
27
27
27
28
28
28
29
28
28
28
29
30
31
32
33
33
33
33
34
35
34
33
32
31
30
29
29
27
25
23
22
22
23
25
27
29
30
30
30
30
30
29
30
30
31
31
30
30
29
29
28
26
23
18
11
2
-10
-27
-44
-58
-71
-78
-78
-67
-49
-31
-18
-8
0
6
11
14
17
19
21
23
25
26
27
28
28
30
30
31
31
33
33
33
34
34
34
35
37
37
37
37
38
38
38
38
39
40
39
39
38
37
37
38
38
38
37
36
36
36
35
35
34
34
32
31
31
30
30
29
29
28
28
28
27
27
26
26
24
24
23
23
23
24
24
24
24
24
25
26
27
28
28
27
27
27
27
27
27
28
28
28
28
28
28
28
30
31
31
31
30
31
31
32
32
32
32
32
31
31
31
30
30
29
29
29
28
28
28
30
30
30
31
31
30
30
30
30
30
30
30
30
29
30
30
31
31
32
32
33
33
31
31
30
30
28
27
25
24
23
20
20
19
19
20
22
24
25
26
26
27
26
25
24
24
24
23
23
22
21
20
20
18
15
12
8
1
-7
-20
-37
-55
-71
-86
-95
-92
-78
-57
-40
-27
-17
-7
0
4
7
10
13
15
16
17
18
18
20
19
20
20
21
21
22
24
24
24
24
24
24
24
24
24
25
23
23
22
23
22
22
23
22
22
21
21
20
21
21
20
19
18
18
17
16
16
16
15
15
13
12
12
11
11
10
10
9
8
7
7
6
5
3
4
5
6
7
8
8
9
9
9
9
9
9
10
10
10
9
9
9
9
9
10
11
11
12
12
12
12
13
13
14
15
15
15
16
17
17
18
17
17
16
16
15
15
15
14
15
14
15
14
14
14
14
14
13
14
14
15
16
15
16
16
17
17
17
18
18
19
20
21
21
21
20
19
18
16
14
14
13
11
9
7
6
6
7
9
11
12
13
14
14
14
14
14
14
13
12
11
10
10
9
8
7
6
2
-2
-9
-21
-35
-55
-74
-92
-107
-111
-108
-89
-67
-48
-35
-25
-16
-9
-6
-4
-1
1
4
5
6
6
7
8
9
10
10
10
10
11
12
12
12
12
11
11
11
12
11
11
11
12
12
12
12
12
12
13
12
11
11
12
12
12
13
12
11
10
10
9
8
6
7
8
7
5
4
3
1
1
2
0
0
0
-1
-1
-3
-3
-2
-1
0
0
0
1
1
1
1
2
2
2
3
3
4
4
4
3
4
4
3
4
5
5
5
6
6
7
7
7
8
9
10
12
13
13
13
14
14
14
14
14
14
15
15
15
15
14
14
14
15
15
15
14
14
14
14
13
14
15
15
14
14
13
14
15
15
16
16
16
15
15
14
13
12
10
9
9
7
5
2
1
0
0
2
4
6
7
8
8
8
9
9
9
8
8
7
6
5
5
4
3
1
0
-3
-8
-15
-25
-38
-53
-71
-86
-102
-111
-117
-110
-92
-70
-52
-40
-29
-20
-13
-9
-6
-4
-2
0
1
3
4
5
5
6
6
6
6
7
8
9
9
8
9
8
9
9
10
10
10
11
10
10
9
9
8
8
8
8
9
8
7
6
6
5
5
4
5
5
4
3
3
3
2
1
0
0
0
-1
-2
-2
-2
-3
-2
-2
-2
-3
-3
-3
-2
-2
-1
0
1
1
2
3
4
5
6
6
7
7
7
8
8
8
7
7
7
7
7
8
9
10
10
10
11
12
13
13
13
14
13
14
15
15
15
13
12
12
13
12
11
11
11
11
9
8
6
7
8
9
10
9
9
10
10
10
9
9
8
8
9
9
11
11
11
12
13
13
13
12
12
11
10
9
8
6
4
3
2
3
4
6
8
10
11
11
12
12
11
11
12
13
11
11
11
10
9
8
7
3
-1
-7
-16
-28
-44
-59
-75
-87
-96
-97
-83
-66
-48
-36
-26
-18
-12
-7
-5
-3
-1
1
3
4
5
5
6
7
7
8
8
9
8
8
8
9
10
10
11
11
11
11
11
12
12
11
11
11
12
12
13
13
13
13
13
13
13
14
14
14
14
15
14
14
13
13
13
12
11
10
10
9
9
9
8
7
6
6
5
5
6
6
6
6
6
6
6
6
7
8
8
8
9
9
9
9
9
10
10
10
11
11
12
11
11
12
12
12
13
14
15
15
16
16
18
18
19
19
19
19
19
19
19
19
19
19
19
19
19
19
19
19
19
19
19
18
17
17
17
17
18
18
17
18
17
17
17
17
17
17
18
18
19
18
18
17
16
15
13
12
11
11
9
8
8
8
8
9
11
13
15
15
15
15
14
14
15
15
15
15
15
14
14
13
12
9
5
0
-9
-19
-31
-44
-56
-67
-77
-83
-80
-67
-50
-35
-25
-16
-9
-4
0
1
4
7
9
10
11
13
14
15
15
16
16
16
17
17
18
18
20
21
21
21
22
23
23
23
23
24
24
24
24
25
25
25
26
26
26
25
25
25
25
25
24
24
24
24
24
24
24
23
23
22
22
21
21
21
20
20
19
18
17
17
16
16
17
17
18
18
18
19
20
21
22
23
23
23
24
24
24
23
24
23
23
22
22
22
22
22
23
24
24
25
25
26
26
26
26
27
28
28
28
29
29
29
28
28
28
28
27
26
26
25
25
25
25
25
24
24
24
24
24
24
24
25
24
25
24
24
24
24
26
26
27
27
28
28
28
28
28
26
24
23
21
20
19
17
16
15
15
16
18
19
20
21
21
21
21
20
19
19
19
18
18
19
18
17
17
15
13
10
5
0
-8
-21
-38
-56
-72
-87
-93
-88
-72
-53
-38
-25
-16
-8
-4
-1
0
3
6
8
9
10
10
11
12
12
12
12
12
13
13
14
14
15
14
14
13
13
13
13
13
13
13
13
13
13
13
13
13
12
12
12
13
13
12
11
12
10
10
9
9
9
8
7
7
6
5
4
4
3
2
1
1
0
-1
-1
0
0
0
0
-1
-1
0
1
2
4
5
5
5
6
6
7
8
8
8
7
8
9
9
9
9
9
9
9
10
9
10
9
9
9
10
11
11
11
12
13
13
13
13
12
12
11
11
11
11
10
9
8
7
7
7
7
7
7
7
7
7
7
6
5
5
5
4
4
3
3
2
3
4
5
6
7
7
8
8
8
7
6
4
3
2
1
0
-2
-4
-5
-5
-5
-4
-2
0
1
2
2
2
1
2
2
1
1
0
0
0
0
-1
-2
-4
-7
-11
-16
-23
-34
-49
-63
-81
-95
-110
-118
-118
-108
-87
-69
-54
-44
-35
-26
-20
-18
-15
-12
-9
-7
-6
-4
-4
-3
-2
-2
0
0
0
0
0
0
0
0
1
2
1
0
0
1
1
1
2
3
3
3
3
3
2
2
2
2
2
2
1
1
2
3
2
2
2
1
1
0
0
-1
-2
-2
-4
-4
-5
-5
-6
-7
-8
-8
-8
-8
-9
-8
-8
-7
-7
-5
-3
-2
-1
0
0
0
1
1
1
2
2
2
2
2
2
3
3
4
4
4
4
5
5
6
6
7
7
7
7
8
8
7
7
7
7
7
7
6
5
5
5
5
5
4
5
5
5
6
6
7
7
6
6
6
6
7
7
7
7
7
7
8
8
9
10
10
12
12
12
12
11
10
9
7
4
3
1
0
-2
-2
-2
-2
0
2
3
5
6
6
5
5
6
5
4
4
3
3
2
1
1
0
0
-3
-7
-12
-19
-30
-45
-61
-77
-92
-102
-107
-100
-83
-62
-46
-35
-26
-18
-11
-7
-4
-1
2
4
6
7
9
10
10
11
12
13
13
14
15
16
16
16
16
15
15
15
15
16
16
17
16
16
15
15
16
16
16
16
15
15
16
16
16
17
17
17
17
16
16
15
14
14
14
13
13
12
12
11
11
11
10
10
10
9
9
9
9
9
9
9
10
11
13
13
14
15
16
16
17
17
18
18
18
18
18
18
18
18
18
18
18
18
19
20
21
20
21
22
23
24
24
25
24
24
24
24
24
24
25
25
26
25
25
24
25
25
25
25
26
26
25
25
25
25
24
24
24
24
24
24
24
24
24
25
25
25
26
27
27
28
29
28
28
27
26
25
23
22
20
19
16
15
14
13
13
14
17
18
19
19
18
17
17
18
18
18
18
18
16
16
15
15
15
13
10
6
0
-8
-18
-32
-47
-61
-74
-85
-87
-83
-66
-49
-35
-24
-16
-9
-3
0
2
4
7
9
11
12
13
14
14
15
15
16
17
18
19
19
19
19
20
20
20
21
21
21
21
21
20
20
21
20
21
21
21
20
20
20
20
20
19
19
18
17
16
17
17
16
15
14
14
13
12
12
12
11
11
10
9
8
8
8
7
6
6
7
7
7
8
9
10
10
10
11
13
13
13
13
13
14
13
13
13
12
11
11
11
12
12
12
13
15
15
16
16
17
18
18
19
19
19
18
18
18
18
18
18
18
17
18
17
18
18
17
18
18
19
18
18
17
18
18
18
18
17
17
17
17
18
19
19
19
20
21
22
22
22
23
23
23
22
22
21
20
18
17
16
14
12
11
11
11
12
15
16
17
17
17
17
17
17
17
16
15
15
15
15
14
13
13
11
9
6
1
-6
-17
-30
-46
-61
-75
-84
-86
-80
-63
-46
-33
-24
-16
-9
-3
0
3
5
8
10
11
12
12
13
14
15
15
16
17
18
18
19
19
19
20
20
21
20
20
20
20
20
20
20
20
20
20
21
21
21
21
21
20
20
19
19
19
20
20
19
19
18
17
17
17
16
16
16
15
15
14
15
14
14
12
12
12
11
10
10
12
13
12
12
13
14
15
16
16
17
17
18
18
18
18
18
18
19
18
17
17
18
18
19
20
20
21
21
21
22
22
23
23
23
24
24
24
24
25
24
24
23
24
24
25
25
24
25
25
24
24
25
26
25
25
26
26
25
25
25
25
26
26
26
26
27
27
29
31
31
32
33
34
33
33
33
32
31
29
28
27
26
24
22
21
21
21
21
24
25
27
27
28
27
27
28
27
27
26
26
26
25
24
23
23
21
19
15
9
1
-10
-25
-42
-62
-78
-91
-98
-93
-78
-57
-40
-28
-18
-10
-4
0
3
5
8
11
12
14
14
15
16
16
16
17
18
18
18
18
18
19
19
19
19
19
19
19
20
21
21
21
21
21
21
20
20
20
19
20
20
21
20
20
19
19
19
19
19
20
20
19
19
18
17
17
17
17
16
16
15
14
13
13
13
13
12
12
12
12
12
12
12
13
14
16
17
18
18
18
19
19
20
19
20
20
20
20
19
19
19
20
19
19
20
20
21
22
23
23
23
24
24
24
24
24
24
25
24
25
25
25
25
24
25
25
25
24
24
24
24
24
24
25
25
24
24
23
22
21
22
23
24
24
24
24
24
24
24
27
27
26
25
25
23
22
21
20
18
16
13
11
10
10
12
14
16
17
17
18
18
18
18
17
18
17
17
17
17
17
16
16
14
13
9
4
-3
-13
-27
-45
-64
-79
-94
-99
-98
-83
-64
-46
-33
-24
-16
-10
-4
-1
1
4
6
8
9
10
10
11
12
12
12
13
14
14
14
14
15
15
15
15
16
16
15
15
15
16
16
17
17
17
17
17
17
17
17
16
17
16
16
15
16
16
15
16
16
16
15
14
13
14
14
13
12
11
10
10
10
10
10
9
8
8
8
8
7
7
8
8
8
9
10
11
11
12
13
13
13
12
13
13
13
13
13
13
13
13
14
14
15
15
16
16
17
18
19
19
20
21
22
22
21
21
22
22
22
22
22
22
22
23
23
24
23
23
23
24
24
24
25
24
24
23
23
23
24
24
24
24
24
25
25
26
27
27
27
28
29
28
28
27
27
25
23
22
20
19
17
17
17
18
19
21
22
23
24
25
24
23
22
22
22
22
21
21
20
20
19
19
17
14
10
4
-4
-15
-29
-45
-61
-76
-85
-87
-74
-53
-33
-19
-9
-2
3
7
10
12
15
17
18
20
20
20
22
23
23
23
24
25
25
25
25
26
28
27
27
27
27
27
27
28
28
28
27
27
27
28
28
28
29
28
28
27
27
27
27
27
27
26
25
24
24
23
23
22
22
22
20
19
19
19
18
18
17
16
16
15
15
15
15
15
15
15
16
16
17
19
19
20
19
20
20
21
22
21
22
21
21
21
22
22
23
23
24
24
25
26
27
28
28
29
29
29
29
29
29
29
28
28
28
27
27
28
28
28
28
28
28
28
28
28
28
27
28
28
28
27
27
27
27
26
26
26
27
27
28
28
30
30
30
31
31
30
28
27
25
24
23
21
19
17
17
17
18
20
23
24
24
25
24
24
23
23
21
21
20
19
19
19
19
17
15
13
10
5
0
-10
-22
-38
-56
-73
-86
-98
-100
-90
-71
-50
-34
-22
-13
-5
0
2
4
7
9
11
12
13
15
16
16
17
19
19
19
19
19
19
19
20
20
20
20
20
20
21
22
22
22
22
22
22
22
21
21
22
22
22
21
22
22
23
23
22
22
21
21
19
19
18
17
16
16
16
16
16
16
15
14
14
14
14
14
13
14
13
13
12
13
15
15
17
18
18
18
17
17
17
17
17
18
18
18
17
17
17
18
19
18
18
18
18
18
19
20
20
21
22
23
23
23
23
21
22
21
22
22
21
20
19
20
20
20
19
19
18
18
18
18
18
17
17
16
16
16
16
17
17
17
17
18
18
19
20
20
21
22
22
21
21
20
18
17
16
15
12
11
10
9
9
9
11
13
14
15
15
15
15
14
13
13
13
12
12
13
13
13
12
11
9
5
1
-5
-13
-25
-39
-53
-66
-79
-87
-91
-81
-67
-50
-37
-27
-19
-12
-6
-1
1
3
6
9
10
12
12
13
15
16
16
17
17
18
19
19
19
20
20
20
20
20
19
19
20
20
20
20
19
19
19
19
18
18
18
17
17
18
19
18
18
17
17
16
16
17
16
16
15
15
14
13
13
12
13
12
12
11
11
10
10
10
10
10
10
10
10
9
10
10
11
12
12
13
13
13
14
14
14
15
14
14
14
15
16
17
18
18
18
18
19
20
20
20
20
21
21
22
23
24
24
24
24
24
24
23
23
23
23
23
23
23
22
22
22
22
22
22
23
23
24
24
25
25
24
23
23
24
24
25
25
27
27
28
28
28
29
27
27
25
24
22
21
20
18
16
15
14
14
16
18
20
20
21
20
19
19
19
19
18
18
17
17
17
16
16
15
14
11
7
0
-8
-21
-35
-51
-66
-80
-90
-91
-83
-66
-48
-33
-22
-12
-5
0
3
6
9
11
12
14
15
17
18
17
18
19
19
19
19
20
21
22
22
22
22
22
22
23
24
24
24
23
24
23
22
22
22
22
21
22
22
22
22
22
22
22
22
22
21
21
21
20
19
19
18
18
18
18
18
17
16
16
15
15
15
15
15
14
13
13
13
13
13
14
15
15
16
16
16
16
17
17
17
17
16
16
16
17
17
18
18
18
18
19
20
20
21
21
21
20
20
20
21
22
22
22
21
21
20
20
20
19
19
19
19
18
18
17
17
16
16
16
15
15
15
14
14
14
15
15
16
16
17
16
16
17
18
19
20
21
21
19
18
16
15
13
12
11
10
8
6
5
5
5
6
8
9
10
10
10
11
10
10
9
9
8
8
7
6
6
5
4
1
-1
-6
-13
-23
-37
-54
-70
-84
-92
-96
-88
-74
-56
-43
-33
-24
-17
-11
-8
-4
-2
0
2
3
4
3
3
4
4
5
6
6
6
5
6
7
7
6
6
6
7
7
7
7
7
7
7
7
7
6
5
6
6
6
6
5
4
4
5
5
5
6
5
4
4
3
3
2
1
1
0
0
-1
-1
-2
-3
-3
-4
-4
-4
-4
-4
-4
-4
-3
-3
-3
-2
-2
-1
-1
-1
-1
-1
-1
-1
-1
-2
-2
-2
-2
-2
-2
-2
-1
-1
-1
-1
-1
0
1
1
2
3
3
3
4
4
5
5
4
4
4
5
5
5
5
4
4
5
6
6
6
6
6
6
6
6
6
6
6
6
7
8
8
8
9
8
8
9
10
11
13
14
13
12
10
9
8
7
6
4
2
0
0
-1
-1
1
2
3
3
3
4
4
4
4
3
2
1
1
0
0
0
-1
-3
-6
-9
-14
-20
-31
-43
-58
-72
-86
-96
-102
-99
-86
-69
-53
-41
-32
-24
-17
-13
-10
-8
-5
-3
-2
0
0
1
1
1
2
4
4
3
4
4
5
5
5
5
5
4
5
5
4
4
5
6
6
6
6
7
7
6
6
6
6
6
6
6
5
5
5
5
5
5
5
4
3
3
2
2
1
1
0
0
0
-1
-1
-1
-1
-1
-2
-2
-2
-1
-1
-1
0
1
1
3
3
3
3
4
3
4
3
4
4
4
4
4
4
4
3
4
4
5
5
5
6
7
8
9
9
10
9
9
9
10
10
10
10
10
10
10
10
10
11
10
10
11
11
11
10
10
11
10
11
11
12
12
11
11
12
13
13
13
14
14
15
16
17
17
17
16
16
15
13
11
10
9
7
5
5
5
7
8
11
11
12
12
12
12
12
13
12
12
11
11
10
10
10
8
7
4
1
-4
-12
-22
-35
-50
-66
-80
-92
-100
-95
-84
-64
-49
-37
-27
-18
-12
-7
-5
-2
0
3
4
6
6
7
8
9
9
10
9
10
10
12
12
13
14
14
15
16
17
16
16
16
17
17
18
18
18
18
17
18
17
17
16
17
18
17
16
15
14
13
12
12
12
11
10
9
8
8
8
6
6
5
4
3
2
2
2
2
2
2
1
0
0
1
1
2
2
3
3
4
4
5
4
4
4
4
5
5
5
6
7
7
7
7
8
9
10
10
12
12
12
12
13
15
15
15
16
16
15
15
16
16
16
15
15
15
14
14
14
14
14
15
15
16
15
15
15
15
15
14
14
14
15
15
16
17
16
18
20
21
20
18
17
15
14
11
10
10
8
6
3
3
2
2
3
5
7
8
8
9
9
8
7
7
5
4
4
4
3
2
1
0
-2
-5
-11
-17
-26
-39
-55
-71
-88
-99
-109
-110
-101
-84
-66
-53
-41
-30
-21
-16
-12
-10
-7
-4
-2
-1
0
0
1
3
3
3
3
3
3
3
4
4
5
4
5
5
6
6
5
4
4
5
5
6
6
6
5
5
5
5
5
5
5
4
4
5
5
5
5
5
4
3
3
3
3
2
1
1
1
0
0
0
0
0
-1
-1
-2
-2
-2
-2
-2
-1
0
0
0
0
1
1
2
3
3
3
4
4
4
4
4
