-2
1
7
16
29
32
28
29
42
47
43
38
38
42
49
53
58
58
50
42
34
29
24
19
18
17
7
0
-7
-8
-11
-19
-28
-27
-26
-25
-31
-33
-24
-29
-43
-42
-36
-42
-42
-35
-29
-28
-26
-23
-22
-7
-12
-15
-10
-12
-15
-17
-16
-16
-19
-23
-27
-28
-28
-34
-37
-42
-53
-53
-49
-49
-54
-52
-51
-53
-52
-51
-53
-54
-53
-52
-52
-53
-54
-48
-52
-58
-54
-38
-14
14
51
100
158
229
273
252
197
100
63
-210
-205
-184
-170
-143
-115
-89
-73
-63
-51
-47
-47
-43
-43
-41
-36
-36
-34
-30
-28
-27
-23
-26
-25
-23
-16
-9
0
-1
-8
-3
4
18
23
21
27
34
37
39
48
55
60
59
61
69
68
70
73
55
47
38
42
34
35
30
20
7
-6
-11
-7
-7
-15
-21
-22
-25
-24
-24
-27
-35
-38
-34
-36
-37
-26
-23
-22
-25
-19
-8
-4
-1
7
3
-7
-8
-12
-18
-16
-11
-23
-32
-22
-13
-15
-25
-28
-35
-45
-46
-45
-43
-45
-40
-38
-39
-42
-45
-45
-46
-53
-58
-45
-39
-48
-51
-52
-46
-29
1
32
66
126
187
241
257
231
171
66
-101
-214
-199
-183
-165
-133
-100
-84
-78
-66
-56
-44
-37
-36
-37
-36
-42
-40
-37
-38
-28
-24
-29
-33
-32
-23
-17
-19
-19
-11
-3
1
6
15
17
18
23
31
38
39
36
39
44
47
49
57
59
51
46
40
38
33
28
22
14
10
9
2
-4
-10
-17
-25
-27
-27
-33
-42
-40
-34
-33
-38
-38
-37
-38
-35
-32
-42
-41
-29
-23
-24
-20
-16
-14
-13
-17
-22
-24
-26
-28
-29
-24
-28
-34
-40
-43
-40
-40
-42
-44
-50
-52
-52
-51
-49
-53
-54
-60
-61
-58
-55
-55
-55
-54
-51
-52
-52
-40
-13
29
78
131
149
248
263
216
156
62
-96
-201
-191
-194
-182
-150
-116
-97
-77
-64
-57
-53
-52
-48
-45
-41
-35
-38
-40
-39
-31
-29
-28
-25
-10
-6
-16
-6
-2
1
9
5
-1
9
23
26
24
22
26
41
47
47
50
54
53
57
61
63
59
49
45
40
37
36
37
28
25
13
-4
-12
-14
-20
-27
-32
-33
-31
-28
-37
-42
-42
-31
-30
-34
-29
-22
-18
-14
-6
0
0
-2
-11
-15
-17
-17
-12
-4
0
-7
-17
-25
-38
-37
-37
-40
-40
-38
-39
-40
-38
-39
-45
-51
-53
-52
-42
-40
-50
-50
-49
-47
-45
-46
-42
-37
-19
11
53
93
106
206
261
249
206
136
9
-174
-217
-188
-176
-153
-122
-98
-80
-61
-42
-41
-44
-47
-48
-42
-36
-32
-28
-29
-35
-28
-22
-19
-18
-18
-18
-18
-15
-10
-3
1
6
11
15
19
25
28
31
36
39
45
50
51
50
54
57
63
68
68
46
29
25
17
11
9
4
8
2
-13
-26
-25
-23
-28
-33
-32
-35
-40
-43
-43
-43
-41
-38
-35
-31
-27
-28
-25
-14
-12
-13
-13
-12
-13
-19
-24
-23
-20
-18
-22
-29
-28
-26
-28
-31
-34
-41
-44
-47
-49
-51
-48
-51
-54
-52
-53
-53
-53
-53
-53
-50
-50
-52
-52
-52
-49
-42
-33
-9
1
81
127
193
260
261
232
172
28
-174
-225
-199
-183
-148
-112
-104
-90
-68
-59
-46
-42
-49
-41
-32
-37
-38
-31
-23
-24
-25
-23
-30
-28
-12
-8
-5
-3
-6
5
18
7
-3
6
24
31
35
36
38
42
41
42
59
59
54
52
55
54
47
41
41
41
33
27
18
13
12
11
2
-8
-12
-12
-6
-9
-27
-37
-39
-39
-34
-34
-38
-39
-37
-34
-33
-28
-23
-23
-16
-6
-4
-5
-6
-7
-8
-8
-10
-11
-15
-17
-20
-21
-26
-31
-36
-34
-26
-33
-48
-49
-48
-48
-53
-58
-56
-55
-53
-54
-55
-55
-54
-56
-55
-51
-48
-45
-44
-47
-31
6
53
102
159
231
268
249
198
111
-56
-214
-210
-181
-165
-133
-105
-89
-71
-56
-50
-49
-47
-45
-49
-44
-42
-40
-38
-39
-36
-31
-32
-31
-24
-19
-18
-21
-14
-8
-6
1
8
10
16
15
13
19
21
25
30
33
36
38
39
38
39
40
38
35
31
28
18
15
14
8
2
0
-5
-11
-15
-17
-24
-27
-29
-31
-33
-36
-36
-35
-40
-43
-44
-38
-34
-33
-33
-28
-25
-23
-21
-18
-13
-8
-4
-2
-3
-5
-7
-12
-16
-18
-20
-27
-27
-29
-31
-30
-35
-38
-44
-51
-48
-47
-54
-54
-53
-50
-50
-52
-51
-49
-47
-45
-48
-49
-54
-54
-48
-45
-43
-36
-14
25
69
109
160
228
256
228
157
52
-122
-220
-199
-179
-159
-126
-114
-72
-55
-53
-54
-48
-42
-43
-41
-35
-37
-39
-32
-31
-34
-28
-24
-23
-23
-24
-18
-10
-4
-1
-1
0
7
11
14
18
25
35
38
35
43
49
45
45
52
52
49
52
50
43
39
41
47
36
23
18
14
3
7
5
-5
-4
-1
-15
-30
-32
-31
-32
-36
-37
-36
-38
-36
-33
-31
-33
-33
-26
-21
-26
-18
-14
-13
-7
-3
-1
1
0
-11
-16
-18
-18
-13
-12
-16
-24
-34
-34
-40
-43
-43
-43
-47
-49
-49
-50
-50
-52
-53
-51
-45
-45
-51
-57
-56
-54
-53
-53
-54
-54
-52
-47
-37
-7
37
87
138
205
268
271
231
213
10
-177
-210
-182
-169
-150
-126
-103
-82
-66
-58
-52
-49
-47
-45
-48
-43
-40
-40
-35
-33
-32
-27
-21
-19
-19
-18
-21
-15
-10
-5
-2
0
6
14
18
22
25
28
34
39
45
48
52
52
53
54
53
53
52
49
43
37
31
23
16
11
6
1
-5
-10
-14
-18
-19
-24
-32
-36
-33
-35
-37
-39
-39
-40
-38
-39
-34
-28
-27
-27
-18
-12
-9
-10
-5
-3
-10
-13
-14
-14
-20
-23
-23
-24
-22
-25
-30
-37
-40
-41
-43
-52
-49
-48
-48
-44
-50
-54
-53
-52
-55
-56
-54
-54
-54
-55
-49
-49
-50
-37
-12
19
63
109
168
188
278
251
194
92
-72
-218
-218
-194
-183
-157
-124
-101
-83
-67
-56
-58
-53
-44
-43
-46
-44
-37
-36
-32
-31
-29
-22
-21
-23
-22
-20
-21
-9
-5
-3
-1
-3
-4
4
15
21
26
31
36
36
37
42
45
44
43
53
57
55
50
35
24
22
21
15
10
7
-1
-6
-6
-8
-29
-45
-38
-34
-41
-44
-42
-47
-47
-45
-42
-41
-40
-34
-28
-28
-27
-29
-28
-23
-29
-30
-27
-31
-33
-34
-32
-35
-33
-32
-41
-49
-48
-52
-55
-62
-61
-58
-57
-59
-64
-65
-58
-61
-69
-75
-74
-69
-67
-69
-68
-67
-63
-58
-42
-10
36
85
139
157
230
215
165
80
-35
-182
-220
-199
-194
-180
-151
-125
-104
-86
-79
-74
-66
-61
-60
-58
-60
-66
-64
-59
-57
-50
-40
-42
-44
-49
-42
-34
-37
-32
-27
-24
-18
-15
-6
1
4
9
10
13
20
21
18
26
30
29
22
25
22
19
18
15
9
2
-8
-12
-17
-19
-23
-27
-34
-42
-43
-47
-48
-52
-53
-50
-48
-51
-54
-48
-41
-43
-33
-33
-37
-29
-33
-43
-50
-49
-44
-41
-34
-40
-43
-42
-40
-38
-41
-48
-48
-53
-53
-52
-45
-44
-40
-21
-42
-82
-89
-76
-74
-75
-74
-69
-65
-67
-67
-55
-48
-30
8
47
95
156
203
220
219
138
72
-34
-167
-193
-164
-159
-173
-162
-133
-116
-100
-78
-72
-68
-64
-61
-58
-58
-55
-52
-51
-50
-44
-43
-43
-39
-46
-34
-30
-30
-19
-8
3
-3
-8
-1
4
-5
-6
7
17
25
25
15
17
27
31
26
24
19
21
21
13
2
-2
-4
-7
-7
-13
-29
-32
-34
-45
-43
-47
-51
-48
-45
-49
-54
-50
-42
-40
-39
-32
-34
-31
-32
-38
-35
-36
-35
-34
-31
-33
-32
-35
-40
-42
-44
-44
-44
-50
-53
-58
-60
-54
-47
-47
-59
-60
-56
-53
-57
-57
-59
-60
-62
-65
-64
-59
-57
-47
-22
14
69
128
187
232
248
205
135
44
12
-197
-189
-183
-180
-155
-127
-103
-85
-76
-67
-59
-55
-54
-54
-53
-48
-44
-43
-44
-39
-38
-38
-32
-30
-32
-27
-22
-24
-20
-12
-7
-3
0
2
10
18
25
33
31
29
36
38
38
40
43
38
35
38
35
32
25
19
11
4
2
0
-3
-8
-13
-18
-19
-18
-26
-29
-27
-26
-33
-32
-20
-22
-32
-25
-7
-6
-9
-21
-19
-21
-21
-19
-18
-16
-16
-18
-19
-17
-13
-15
-18
-21
-28
-33
-34
-32
-31
-34
-37
-34
-37
-38
-32
-33
-37
-38
-40
-39
-37
-37
-37
-33
-29
-13
27
73
122
183
239
268
245
196
115
-9
-170
-196
-187
-159
-138
-107
-81
-63
-46
-37
-39
-32
-23
-22
-22
-19
-19
-27
-26
-20
-18
-13
-9
-11
-12
-12
-3
0
4
6
6
11
19
26
29
38
47
49
48
53
61
67
68
67
64
64
64
61
54
50
44
35
32
27
22
12
11
8
-1
-9
-11
-10
-11
-16
-19
-24
-28
-24
-22
-22
-22
-22
-23
-19
-17
-9
-6
-7
-1
0
-2
-2
-1
-4
-8
-10
-7
-9
-12
-13
-16
-23
-26
-26
-29
-36
-36
-34
-38
-44
-45
-43
-42
-39
-39
-44
-41
-40
-41
-39
-42
-45
-44
-38
-25
-8
27
76
127
193
255
277
261
210
105
-63
-192
-208
-170
-151
-121
-95
-73
-60
-49
-39
-32
-32
-34
-29
-27
-26
-25
-22
-21
-19
-18
-17
-12
-10
-7
-3
-1
3
8
11
17
21
27
36
41
47
49
53
59
65
69
71
75
79
71
68
72
72
66
58
52
50
38
37
29
23
21
14
6
2
1
-5
-10
-11
-13
-19
-19
-16
-14
-12
-15
-25
-24
-22
-16
-7
-6
-14
-8
-4
-3
0
6
7
10
12
7
4
2
2
3
-1
-4
-3
-11
-17
-21
-24
-26
-31
-32
-31
-27
-29
-29
-35
-39
-43
-43
-43
-40
-39
-41
-39
-33
-31
-29
-26
-23
-22
-2
37
89
139
196
254
269
237
183
70
-113
-211
-181
-165
-150
-117
-92
-72
-52
-40
-38
-35
-28
-26
-26
-24
-23
-21
-18
-18
-15
-13
-10
-4
1
1
0
1
7
10
15
21
25
30
37
43
43
48
60
66
61
58
64
67
65
68
70
71
68
66
60
53
47
40
38
29
16
7
3
3
3
-1
-7
-12
-16
-16
-17
-21
-25
-27
-25
-23
-27
-28
-26
-27
-22
-20
-27
-27
-24
-26
-28
-21
-15
-9
-5
-1
0
0
1
1
-2
-3
-9
-13
-13
-17
-22
-23
-27
-29
-26
-24
-30
-33
-37
-42
-43
-41
-42
-43
-43
-41
-44
-45
-44
-44
-44
-44
-44
-45
-45
-41
-38
-39
-36
-30
-16
22
75
119
179
251
267
240
188
84
-110
-233
-203
-179
-156
-123
-93
-71
-64
-47
-45
-38
-33
-33
-33
-31
-28
-25
-22
-19
-17
-17
-14
-11
-12
-9
-3
1
3
4
11
14
19
22
29
36
39
43
54
57
57
61
66
63
59
62
66
67
68
69
59
51
51
42
38
30
17
10
9
4
8
4
1
-1
-7
-16
-25
-27
-23
-21
-17
-24
-27
-29
-23
-14
-22
-28
-20
-13
-20
-17
-8
-7
-11
-8
-3
-2
0
2
3
2
5
0
-9
-16
-18
-17
-17
-16
-23
-27
-29
-36
-40
-39
-34
-39
-42
-43
-47
-48
-48
-45
-40
-39
-47
-48
-40
-43
-47
-49
-43
-41
-38
-23
2
48
92
135
204
267
267
260
153
3
-185
-214
-183
-166
-143
-111
-85
-66
-55
-53
-54
-44
-32
-31
-38
-40
-37
-35
-28
-24
-26
-22
-21
-17
-17
-11
-7
-3
-2
-2
3
11
17
18
19
22
26
33
45
50
48
47
47
52
55
57
59
58
58
54
53
48
26
16
13
12
10
8
3
-2
-8
-11
-15
-21
-24
-26
-28
-35
-34
-30
-32
-34
-34
-32
-31
-32
-29
-31
-25
-19
-17
-14
-12
-13
-12
-6
-2
-2
-3
-4
-7
-10
-16
-22
-28
-31
-28
-27
-31
-31
-33
-37
-38
-40
-43
-51
-50
-45
-44
-44
-49
-49
-48
-49
-52
-53
-53
-49
-47
-45
-39
-41
-43
-14
22
65
119
174
239
277
252
198
100
-61
-185
-184
-185
-175
-145
-114
-91
-70
-57
-48
-39
-37
-44
-45
-36
-34
-34
-30
-27
-27
-27
-18
-9
-8
-9
-6
-2
9
21
24
19
17
22
22
34
45
43
40
42
37
44
48
49
55
57
55
58
56
58
53
47
44
40
35
29
25
19
12
11
12
2
-12
-17
-19
-18
-18
-13
-16
-28
-37
-32
-33
-36
-29
-24
-19
-17
-17
-9
-3
-1
0
3
7
3
-2
-6
-10
-12
-7
-7
-17
-22
-24
-30
-32
-36
-38
-38
-43
-47
-48
-44
-44
-40
-39
-43
-44
-44
-52
-51
-48
-55
-58
-55
-53
-50
-41
-20
14
55
101
158
226
267
246
193
106
-46
-201
-197
-174
-169
-150
-120
-94
-73
-67
-67
-59
-49
-43
-46
-49
-46
-43
-39
-38
-34
-29
-26
-28
-23
-24
-27
-21
-17
-13
-10
-6
-1
2
8
11
16
20
26
31
34
38
44
47
51
52
50
46
41
40
38
28
22
15
11
11
7
1
-6
-10
-12
-18
-22
-28
-30
-36
-38
-36
-38
-42
-39
-37
-36
-30
-28
-24
-12
-9
-13
-15
-2
-1
-13
-16
-11
-9
-19
-23
-17
-13
-3
0
-19
-35
-35
-39
-43
-43
-50
-56
-45
-42
-50
-54
-46
-43
-49
-48
-45
-49
-50
-45
-45
-37
-45
-46
-21
21
76
128
183
245
265
234
183
81
-78
-202
-195
-175
-158
-132
-111
-89
-62
-54
-45
-48
-39
-38
-39
-39
-39
-35
-33
-35
-28
-23
-19
-17
-15
-8
-7
-7
0
2
7
21
32
32
32
22
22
37
46
48
56
57
54
53
51
57
58
55
52
53
47
42
39
32
21
11
9
8
3
0
-11
-15
-20
-26
-28
-31
-28
-27
-33
-39
-37
-34
-29
-22
-15
-7
-4
-4
0
-1
-8
-14
-14
-13
-13
-18
-18
-17
-16
-17
-20
-24
-31
-41
-41
-39
-42
-40
-37
-42
-47
-46
-51
-53
-49
-47
-49
-45
-44
-45
-55
-53
-52
-49
-44
-22
18
65
114
177
251
271
250
197
83
-114
-219
-203
-183
-165
-127
-98
-83
-70
-65
-48
-48
-49
-45
-42
-38
-36
-39
-39
-33
-30
-23
-22
-21
-21
-17
-11
-7
-3
-1
5
10
8
12
16
30
37
40
46
55
54
55
57
56
53
59
60
49
49
48
44
44
38
24
17
13
9
1
-9
-12
-13
-12
-13
-16
-30
-37
-27
-26
-31
-32
-30
-25
-16
-11
-15
-12
-10
-3
0
-2
-1
-2
-12
-13
-12
-9
-16
-18
-17
-17
-16
-21
-27
-30
-32
-34
-38
-45
-45
-45
-45
-43
-40
-41
-38
-39
-46
-54
-54
-52
-45
-47
-42
-39
-28
-18
15
67
95
141
217
259
242
201
118
-37
-203
-214
-182
-163
-137
-110
-84
-66
-62
-48
-45
-44
-41
-36
-32
-33
-37
-38
-31
-25
-16
-13
-24
-32
-22
-15
-10
-5
-3
0
1
8
16
19
26
28
33
39
43
43
49
53
53
49
47
47
49
53
47
38
31
27
23
19
12
5
2
-1
-3
-12
-17
-23
-26
-24
-28
-33
-37
-35
-32
-40
-43
-32
-22
-20
-22
-21
-14
-3
-1
-8
-9
-4
-3
-2
-12
-18
-23
-22
-19
-26
-31
-29
-30
-38
-46
-44
-43
-43
-45
-52
-54
-53
-55
-50
-48
-53
-55
-56
-57
-58
-59
-56
-50
-47
-48
-48
-33
-2
50
94
142
212
260
248
205
112
-58
-214
-214
-183
-166
-137
-108
-100
-70
-56
-51
-48
-45
-46
-43
-39
-42
-44
-40
-33
-29
-29
-25
-18
-20
-23
-16
-14
-12
-2
9
3
-1
5
15
22
28
29
32
39
41
38
46
54
37
33
49
50
50
39
27
31
33
16
11
10
-2
-6
-2
1
-10
-18
-16
-15
-31
-33
-25
-31
-35
-27
-23
-31
-33
-28
-21
-20
-19
-3
2
-7
-6
4
8
15
-1
-19
-14
-12
-16
-9
-12
-22
-28
-31
-35
-42
-43
-39
-40
-44
-49
-48
-41
-45
-49
-48
-46
-44
-43
-44
-50
-48
-45
-40
-40
-43
-37
-32
-12
29
73
115
168
231
251
225
157
39
-144
-222
-201
-181
-175
-122
-97
-74
-57
-54
-56
-45
-41
-47
-41
-38
-36
-32
-29
-34
-32
-27
-25
-27
-24
-15
-10
-11
-11
-9
-4
0
1
7
17
20
19
25
35
42
41
38
37
43
43
40
45
46
37
33
34
25
17
17
18
6
5
3
-3
-7
-12
-18
-16
-13
-23
-35
-39
-38
-31
-29
-36
-37
-38
-38
-30
-24
-28
-28
-20
-17
-8
-8
-11
-11
-14
-17
-14
-16
-22
-26
-28
-31
-29
-32
-34
-34
-36
-37
-40
-48
-53
-51
-57
-55
-53
-53
-54
-55
-54
-52
-52
-54
-54
-53
-54
-53
-49
-39
-18
17
61
114
173
250
287
248
189
96
-100
-170
-201
-179
-162
-133
-112
-96
-75
-64
-55
-49
-43
-40
-45
-45
-40
-29
-29
-28
-25
-34
-33
-20
-4
-3
-4
-6
-11
-11
-3
3
9
12
9
25
40
38
40
45
44
50
50
43
48
55
58
51
46
44
41
39
39
25
12
10
3
-1
0
-2
-8
-14
-15
-12
-17
-22
-27
-28
-29
-32
-31
-24
-23
-22
-18
-6
-1
-5
-7
2
3
1
-2
-11
-12
-8
-5
-6
-18
-21
-14
-20
-29
-37
-39
-32
-36
-40
-42
-47
-47
-45
-44
-47
-45
-41
-40
-46
-48
-44
-44
-44
-43
-44
-37
-18
13
56
106
156
216
267
246
191
109
-31
-86
-209
-184
-167
-145
-125
-102
-79
-64
-55
-48
-41
-46
-49
-47
-41
-40
-36
-33
-34
-36
-36
-33
-28
-25
-23
-10
-7
-7
-8
-7
2
7
16
23
23
25
31
35
39
40
43
43
38
39
44
43
37
32
28
27
18
15
12
12
5
-4
-6
-14
-26
-28
-28
-32
-33
-32
-26
-34
-41
-43
-39
-34
-28
-28
-22
-16
-14
-6
-8
-8
-8
-11
-15
-19
-21
-17
-13
-9
-10
-21
-38
-46
-42
-39
-46
-50
-48
-41
-38
-45
-38
-34
-49
-57
-54
-58
-63
-60
-54
-52
-53
-45
-44
-37
-7
37
81
131
193
251
250
213
153
57
-117
-220
-227
-185
-165
-132
-107
-89
-71
-58
-43
-35
-40
-44
-42
-38
-40
-43
-34
-32
-34
-26
-19
-17
-11
-8
-7
-6
0
11
17
9
3
11
22
29
31
34
43
54
50
48
54
49
47
48
52
50
47
41
39
36
34
33
30
15
2
-7
-7
-3
-9
-20
-19
-18
-24
-25
-28
-33
-28
-23
-24
-21
-15
-7
-1
-3
-7
-6
-2
0
-4
-11
-12
-17
-23
-19
-17
-20
-22
-22
-27
-37
-43
-38
-32
-36
-38
-47
-57
-54
-49
-48
-48
-57
-50
-49
-49
-52
-51
-49
-46
-41
-26
7
54
105
164
231
269
243
199
112
-52
-207
-206
-183
-174
-167
-107
-88
-72
-58
-52
-55
-55
-46
-39
-41
-43
-39
-39
-39
-33
-27
-31
-32
-30
-19
-13
-13
-4
0
-1
3
11
13
13
21
22
22
32
38
42
35
33
42
48
49
50
45
32
27
28
26
18
11
6
4
0
-3
-13
-17
-18
-21
-27
-26
-27
-28
-34
-39
-36
-27
-28
-36
-32
-28
-22
-15
-13
-10
-9
-10
-8
-7
-20
-23
-19
-18
-20
-26
-30
-29
-27
-31
-37
-40
-32
-33
-49
-43
-35
-43
-41
-40
-64
-71
-50
-43
-55
-58
-55
-49
-48
-51
-44
-31
1
52
99
151
217
259
260
224
112
-38
-198
-220
-191
-161
-139
-115
-105
-71
-56
-47
-51
-44
-38
-38
-26
-23
-38
-41
-34
-36
-35
-26
-21
-14
-9
-12
-12
-5
2
3
3
4
21
19
25
35
42
39
37
47
51
53
54
58
51
44
44
38
32
33
27
28
27
19
12
5
3
-3
-12
-9
-13
-21
-24
-26
-32
-39
-30
-28
-35
-38
-32
-20
-22
-23
-17
-9
-7
-7
-4
-4
-6
-6
-22
-23
-18
-17
-13
-14
-23
-29
-28
-36
-39
-45
-44
-42
-42
-47
-58
-56
-53
-53
-55
-56
-50
-49
-48
-48
-51
-54
-51
-50
-58
-52
-31
2
45
88
145
222
264
240
200
115
-52
-210
-209
-173
-152
-133
-118
-114
-76
-62
-50
-46
-53
-51
-40
-42
-47
-47
-41
-39
-31
-22
-34
-40
-26
-20
-18
-18
-17
-17
-12
-5
-3
3
13
16
18
23
26
34
41
44
38
36
39
40
37
35
32
28
24
21
17
14
6
0
2
4
0
-17
-26
-24
-23
-26
-34
-37
-34
-28
-28
-32
-27
-31
-36
-29
-29
-29
-23
-18
-14
-12
-3
4
7
-4
-8
-19
-20
-14
-15
-22
-24
-26
-29
-30
-32
-38
-40
-35
-38
-48
-54
-51
-47
-52
-44
-40
-50
-52
-52
-46
-53
-62
-55
-52
-52
-50
-41
-28
2
43
86
132
182
238
246
212
132
8
-171
-218
-193
-188
-183
-123
-96
-79
-65
-53
-50
-47
-41
-39
-38
-32
-28
-36
-45
-40
-27
-22
-20
-15
-3
-10
-17
-14
-9
-6
11
4
10
24
28
25
28
35
36
38
44
57
61
44
37
38
44
51
51
46
35
23
21
15
12
8
1
-2
-1
-5
-12
-13
-16
-21
-25
-34
-38
-38
-39
-39
-34
-35
-35
-26
-22
-23
-23
-12
-7
-8
-3
-10
-6
-3
-9
-10
-13
-21
-23
-19
-24
-31
-32
-31
-33
-38
-44
-46
-49
-51
-53
-50
-48
-47
-45
-50
-56
-55
-55
-52
-51
-53
-49
-48
-52
-54
-53
-40
-3
38
86
147
213
268
267
222
136
-11
-183
-217
-181
-174
-156
-127
-100
-79
-64
-59
-55
-47
-45
-43
-41
-39
-36
-34
-37
-32
-28
-28
-28
-22
-13
-12
-13
-12
-7
-3
0
7
12
18
30
34
30
37
44
44
43
49
54
54
53
52
48
44
40
38
36
33
20
22
11
3
0
-4
-9
-12
-15
-17
-20
-22
-25
-32
-34
-28
-26
-24
-21
-19
-7
-21
-35
-16
-9
-7
-3
-1
-3
0
-5
-8
-5
-12
-17
-17
-21
-22
-23
-27
-28
-28
-28
-37
-48
-49
-44
-40
-38
-37
-34
-42
-45
-51
-50
-43
-36
-43
-51
-43
-45
-58
-48
-30
2
50
103
156
220
270
254
206
124
-27
-85
-206
-187
-178
-150
-110
-76
-55
-57
-61
-55
-46
-44
-43
-39
-33
-32
-32
-24
-23
-20
-14
-19
-22
-16
-12
-9
-3
-2
0
9
16
21
28
33
38
42
48
49
54
56
53
59
63
59
47
43
48
41
31
29
38
23
5
0
-7
-9
-8
-16
-20
-17
-17
-25
-30
-32
-30
-28
-29
-35
-35
-33
-39
-35
-28
-23
-22
-20
-13
-7
-4
-7
-10
-17
-23
-24
-19
-25
-29
-27
-26
-32
-43
-45
-46
-47
-48
-52
-49
-52
-59
-60
-58
-50
-42
-47
-59
-63
-62
-62
-63
-62
-55
-53
-40
-6
41
94
151
210
255
244
198
114
-16
-179
-216
-188
-179
-160
-127
-103
-85
-68
-60
-55
-50
-48
-47
-43
-40
-40
-39
-40
-39
-33
-28
-26
-24
-19
-17
-16
-8
-10
-5
3
11
11
19
26
26
30
36
43
43
45
42
43
49
49
44
42
39
34
33
38
39
15
4
1
5
-1
-7
-9
-16
-22
-22
-19
-28
-40
-39
-32
-33
-33
-32
-29
-27
-27
-15
-4
-1
1
-5
-8
-5
-14
-22
-20
-18
-14
-14
-16
-22
-26
-23
-29
-39
-36
-36
-47
-47
-36
-29
-36
-47
-48
-48
-50
-46
-48
-42
-40
-45
-47
-40
-28
-16
-1
32
86
141
200
264
263
225
152
37
-135
-206
-181
-170
-166
-129
-105
-85
-60
-43
-40
-40
-44
-44
-42
-38
-30
-25
-27
-27
-24
-21
-19
-16
-14
-12
-5
-4
0
1
8
12
14
17
23
38
45
43
49
55
55
53
49
49
49
50
55
53
41
37
32
21
16
14
11
-3
-7
-11
-12
-16
-20
-22
-21
-22
-31
-34
-30
-27
-28
-28
-32
-30
-27
-25
-19
-13
-13
-14
-14
-13
-14
-20
-21
-21
-27
-28
-21
-17
-26
-39
-47
-48
-42
-40
-46
-44
-41
-46
-49
-52
-59
-64
-57
-54
-54
-49
-48
-50
-45
-45
-50
-45
-26
5
50
98
153
218
260
245
201
108
-44
-199
-212
-191
-178
-147
-111
-101
-71
-60
-47
-43
-41
-34
-31
-38
-38
-38
-40
-29
-30
-40
-25
-7
-6
-10
-11
-13
-11
-4
0
6
9
24
26
30
37
45
49
47
53
59
58
58
55
57
62
59
50
43
40
34
27
22
27
23
4
0
-4
-7
-13
-20
-23
-25
-27
-29
-31
-32
-29
-24
-26
-22
-20
-16
-13
-11
-4
2
6
5
0
-8
-11
-8
-16
-22
-12
-10
-23
-29
-32
-33
-35
-43
-43
-39
-43
-48
-49
-43
-39
-45
-50
-48
-51
-52
-51
-49
-47
-44
-45
-51
-47
-36
-15
22
65
103
156
228
254
229
171
70
-109
-233
-214
-185
-161
-125
-94
-83
-79
-59
-50
-49
-50
-45
-48
-43
-37
-35
-32
-36
-33
-25
-17
-13
-19
-24
-22
-15
-5
-3
-3
0
7
11
23
27
30
38
48
45
40
45
52
60
50
38
38
33
31
29
22
19
15
6
1
0
-6
-10
-12
-12
-16
-27
-33
-36
-34
-34
-31
-28
-40
-45
-43
-35
-28
-31
-26
-19
-18
-16
-13
-11
-7
-11
-17
-18
-17
-21
-22
-25
-26
-26
-26
-32
-41
-44
-48
-52
-50
-50
-52
-52
-50
-49
-53
-54
-50
-49
-53
-53
-53
-56
-49
-48
-47
-48
-43
-21
22
62
97
163
241
253
227
168
55
-146
-242
-212
-187
-156
-117
-89
-81
-78
-54
-57
-51
-44
-40
-36
-33
-29
-32
-34
-28
-31
-37
-31
-20
-9
-14
-18
-14
-12
-7
-1
1
8
12
26
31
31
31
36
40
40
46
53
50
44
47
42
39
39
28
19
18
17
12
7
4
0
-7
-8
-11
-20
-26
-25
-26
-29
-34
-38
-34
-29
-33
-29
-20
-22
-28
-22
-10
-2
-4
-7
-4
-4
-1
-2
-4
-11
-13
-17
-20
-21
-22
-27
-26
-28
-35
-42
-45
-44
-45
-46
-52
-53
-52
-54
-54
-47
-40
-44
-51
-54
-58
-55
-54
-54
-54
-50
-42
-24
5
53
96
154
231
268
241
185
95
-81
-217
-205
-183
-167
-138
-109
-100
-69
-63
-62
-56
-45
-42
-44
-40
-38
-38
-39
-34
-33
-28
-27
-31
-28
-18
-9
-8
-8
-7
-2
2
4
19
19
19
26
32
33
36
39
44
47
45
45
49
50
47
39
34
32
30
20
14
10
2
-2
-2
-8
-15
-17
-18
-27
-32
-32
-36
-41
-36
-32
-37
-38
-31
-27
-23
-22
-21
-21
-19
-15
-6
1
-1
-2
-8
-12
-16
-20
-23
-23
-23
-23
-26
-33
-36
-38
-42
-47
-44
-47
-52
-56
-54
-46
-46
-52
-55
-50
-47
-50
-52
-58
-57
-53
-47
-42
-44
-37
-1
43
90
144
212
265
252
205
129
-19
-190
-213
-189
-174
-149
-141
-98
-77
-67
-60
-53
-46
-42
-40
-38
-34
-28
-28
-37
-36
-28
-21
-19
-19
-16
-16
-11
-2
4
8
8
6
19
23
31
40
41
47
48
39
43
54
58
58
52
48
52
52
49
44
39
36
32
23
16
14
9
4
-6
-16
-12
-8
-12
-15
-18
-23
-28
-32
-25
-21
-23
-14
-20
-23
-16
-8
-4
-4
0
0
-1
0
-2
-8
-12
-13
-13
-13
-20
-22
-24
-32
-32
-34
-37
-37
-45
-54
-48
-48
-51
-49
-49
-49
-47
-47
-52
-56
-53
-49
-50
-52
-40
-22
7
52
99
149
210
255
238
193
102
-36
-189
-201
-178
-171
-154
-125
-115
-81
-64
-57
-53
-50
-50
-48
-42
-41
-42
-34
-26
-29
-39
-39
-32
-28
-23
-18
-13
-12
-5
2
4
4
9
12
18
22
26
31
39
42
40
43
44
49
51
44
38
39
35
24
18
13
9
9
4
1
0
-8
-12
-19
-26
-29
-31
-37
-38
-34
-32
-38
-40
-36
-31
-28
-24
-17
-13
-14
-14
-13
-12
-13
-17
-18
-20
-22
-22
-25
-23
-24
-31
-31
-33
-38
-41
-39
-38
-41
-53
-55
-47
-47
-49
-56
-65
-54
-42
-49
-54
-56
-52
-51
-41
-23
13
64
110
161
222
255
232
184
96
-58
-206
-205
-192
-180
-150
-120
-91
-66
-56
-54
-51
-57
-53
-45
-38
-34
-34
-32
-24
-24
-27
-23
-18
-17
-9
-1
-3
-1
2
3
0
6
18
25
27
30
37
49
58
64
62
57
50
48
52
49
48
49
44
38
34
25
18
8
-2
-6
-5
-4
-1
-1
-25
-24
-26
-35
-35
-28
-27
-28
-27
-27
-27
-24
-12
-8
-8
-8
-2
1
-3
-17
-23
-27
-21
-17
-18
-15
-16
-22
-30
-38
-43
-45
-46
-48
-43
-41
-47
-57
-60
-52
-49
-55
-54
-54
-59
-63
-58
-53
-45
-43
-34
-10
29
81
131
186
246
258
230
168
55
-123
-213
-195
-181
-163
-132
-107
-88
-76
-67
-60
-54
-47
-45
-43
-34
-32
-36
-39
-40
-40
-40
-40
-32
-24
-21
-20
-16
-12
-6
-1
3
10
19
24
30
31
36
38
44
46
48
51
52
53
50
44
43
40
31
23
15
12
5
1
0
-1
-10
-16
-17
-23
-33
-39
-38
-34
-35
-32
-37
-32
-24
-22
-30
-34
-24
-14
-11
-9
-2
0
-3
-18
-27
-20
-18
-19
-21
-26
-31
-33
-30
-27
-40
-48
-50
-46
-44
-45
-41
-43
-55
-62
-51
-43
-48
-53
-57
-53
-50
-49
-52
-51
-39
-18
-9
59
97
144
219
264
245
206
115
-72
-230
-222
-192
-179
-147
-105
-79
-71
-61
-54
-53
-50
-37
-36
-46
-49
-40
-42
-40
-35
-25
-20
-19
-16
-13
-13
-10
-5
0
5
12
8
15
30
35
41
46
36
34
45
49
52
54
53
52
47
41
42
37
24
14
13
8
4
0
-3
-8
-14
-18
-21
-23
-30
-36
-34
-34
-34
-34
-37
-43
-41
-31
-26
-27
-30
-28
-21
-14
-11
-11
-12
-13
-16
-14
-15
-22
-31
-31
-29
-23
-24
-27
-30
-39
-47
-47
-48
-53
-59
-63
-59
-52
-55
-60
-58
-59
-61
-60
-56
-54
-54
-54
-52
-52
-46
-25
-16
61
105
171
244
258
236
180
51
-161
-238
-206
-187
-158
-124
-104
-89
-69
-60
-58
-56
-53
-53
-52
-47
-45
-34
-33
-31
-33
-34
-31
-23
-16
-13
-17
-18
-12
-6
-2
1
8
15
21
28
36
43
44
43
39
40
44
44
49
42
39
40
32
25
23
16
10
8
4
1
-7
-13
-12
-20
-27
-28
-31
-30
-27
-37
-40
-36
-32
-41
-45
-37
-27
-18
-15
-17
-20
-22
-14
-6
-9
-9
-1
-2
-11
-12
-13
-18
-26
-31
-27
-24
-25
-35
-36
-33
-42
-47
-54
-56
-50
-47
-53
-57
-57
-55
-51
-48
-52
-54
-47
-43
-46
-53
-49
-41
-38
5
50
93
144
213
258
246
204
124
-59
-222
-212
-186
-176
-145
-113
-90
-69
-56
-53
-44
-39
-44
-39
-38
-45
-41
-33
-29
-31
-26
-22
-24
-26
-15
-7
-7
-13
-8
5
9
14
20
22
26
29
35
40
42
44
49
51
55
56
55
52
47
45
43
33
24
22
22
12
5
2
1
-5
-15
-22
-23
-25
-29
-35
-37
-38
-39
-36
-39
-44
-42
-39
-33
-28
-23
-21
-19
-19
-14
-7
-3
0
-7
-14
-20
-23
-22
-27
-28
-27
-23
-26
-33
-43
-48
-48
-48
-49
-48
-42
-54
-70
-71
-62
-54
-54
-61
-67
-66
-61
-60
-58
-53
-44
-42
-54
-38
2
51
103
160
232
266
248
188
86
-83
-209
-201
-185
-172
-145
-118
-95
-79
-66
-58
-53
-52
-52
-49
-46
-41
-38
-39
-38
-32
-29
-29
-24
-24
-15
-12
-12
-13
-6
0
3
10
16
21
21
21
28
33
46
44
43
46
50
51
48
54
48
41
43
36
26
22
14
8
8
3
-5
-10
-13
-27
-36
-23
-18
-26
-39
-47
-46
-43
-36
-28
-33
-35
-31
-21
-14
-10
-11
-9
0
2
-7
-5
-3
-9
-2
4
-13
-22
-13
-28
-44
-34
-37
-44
-44
-51
-46
-45
-46
-43
-47
-52
-47
-45
-47
-48
-47
-48
-46
-41
-47
-41
-37
-7
43
91
140
201
253
251
209
146
51
-113
-214
-198
-185
-164
-131
-107
-85
-68
-59
-57
-50
-40
-37
-36
-34
-33
-36
-39
-32
-27
-23
-19
-15
-24
-24
-15
-6
-3
2
9
11
9
13
22
29
36
40
46
48
46
46
54
49
40
46
45
40
32
25
13
6
4
1
-3
-4
-8
-13
-17
-20
-23
-27
-32
-37
-39
-40
-38
-34
-29
-22
-25
-38
-40
-30
-19
-15
-23
-22
-16
-23
-29
-23
-19
-21
-22
-21
-24
-29
-31
-31
-39
-44
-47
-51
-52
-53
-57
-51
-49
-48
-53
-57
-57
-55
-51
-49
-53
-55
-50
-39
-41
-45
-30
7
21
103
156
227
259
235
183
91
-76
-223
-216
-190
-173
-144
-112
-89
-74
-63
-55
-47
-45
-47
-43
-37
-37
-36
-23
-34
-39
-31
-18
-12
-12
-18
-10
1
1
0
3
8
16
26
31
28
41
51
50
57
60
61
62
60
63
64
60
49
44
45
41
32
21
13
9
4
0
-2
-4
-11
-15
-17
-22
-28
-29
-27
-28
-29
-33
-34
-33
-29
-22
-19
-17
-10
-5
-6
-8
-7
-7
-12
-13
-17
-19
-17
-17
-18
-18
-21
-24
-36
-40
-41
-35
-33
-40
-46
-55
-60
-55
-51
-52
-60
-60
-48
-45
-51
-52
-49
-46
-44
-38
-17
25
73
119
134
238
253
227
177
60
-135
-241
-204
-183
-166
-134
-98
-72
-65
-60
-49
-45
-43
-44
-42
-45
-45
-42
-40
-37
-20
-21
-23
-20
-19
-20
-8
-3
-2
-2
3
11
17
23
27
32
35
46
53
56
55
51
53
55
54
41
38
43
46
37
28
22
16
10
7
2
-5
-14
-18
-24
-31
-29
-27
-31
-35
-38
-37
-44
-49
-48
-39
-32
-28
-28
-24
-20
-16
-8
-6
-6
-5
-9
-14
-19
-22
-23
-21
-27
-29
-25
-28
-36
-42
-43
-43
-40
-44
-52
-55
-53
-51
-54
-56
-54
-54
-56
-55
-53
-53
-54
-53
-49
-46
-44
-32
4
50
91
142
161
260
249
198
106
-61
-222
-219
-180
-169
-144
-105
-76
-68
-54
-49
-55
-55
-48
-39
-43
-44
-41
-39
-37
-34
-29
-30
-26
-19
-16
-11
-6
-2
2
10
21
25
20
21
32
42
39
42
49
48
52
49
47
54
57
48
45
47
40
32
21
11
16
14
3
-3
-9
-9
-13
-17
-21
-28
-30
-28
-34
-38
-41
-45
-40
-36
-21
-27
-26
-19
-13
-4
-3
-9
-9
-1
7
2
-11
-14
-15
-19
-22
-22
-25
-27
-31
-33
-37
-37
-38
-38
-44
-47
-51
-55
-55
-47
-47
-53
-54
-53
-55
-53
-48
-52
-59
-58
-56
-47
-44
-37
-13
30
75
88
182
253
258
225
151
5
-189
-219
-189
-173
-149
-120
-94
-74
-59
-52
-49
-48
-48
-46
-43
-47
-47
-38
-36
-32
-35
-39
-31
-16
-10
-4
-7
-10
-6
-2
0
5
9
14
29
36
30
33
38
39
41
48
49
48
50
49
47
45
37
31
29
26
22
16
8
1
-3
-4
-11
-17
-16
-18
-28
-36
-37
-35
-38
-38
-37
-33
-35
-36
-30
-24
-25
-28
-24
-18
-14
-10
-2
-1
-3
-3
-6
-10
-15
-14
-16
-17
-21
-26
-30
-32
-32
-44
-47
-47
-48
-51
-55
-55
-55
-53
-50
-43
-39
-49
-56
-55
-38
-35
-54
-59
-54
-53
-44
-26
-17
55
105
166
232
260
236
189
92
-68
-207
-212
-198
-181
-147
-111
-90
-76
-63
-56
-50
-38
-33
-38
-41
-39
-33
-35
-31
-23
-16
-14
-18
-15
-13
-13
-13
-9
-1
3
11
18
27
33
36
42
52
51
53
62
65
66
74
77
63
55
56
55
52
50
42
30
22
16
8
5
9
5
-1
-14
-19
-12
-20
-33
-31
-29
-32
-30
-31
-29
-26
-27
-19
-11
-7
-7
-7
-1
0
-1
-6
-9
-9
-11
-15
-18
-18
-21
-23
-27
-28
-40
-43
-43
-40
-44
-48
-48
-48
-46
-51
-54
-55
-56
-59
-54
-48
-50
-52
-52
-50
-52
-54
-40
-5
7
90
147
208
248
232
189
113
-28
-197
-214
-189
-180
-156
-125
-106
-88
-75
-64
-57
-53
-50
-51
-47
-40
-39
-35
-28
-35
-40
-32
-27
-34
-30
-18
-17
-17
-14
-12
-3
2
8
14
23
30
36
39
38
40
46
47
49
50
49
50
49
41
32
26
22
16
10
4
-1
-3
-9
-14
-18
-23
-29
-30
-37
-39
-34
-25
-23
-36
-24
-25
-39
-40
-24
-14
-20
-19
-14
-17
-18
-19
-17
-15
-21
-13
-8
-18
-23
-30
-36
-38
-37
-37
-38
-39
-49
-50
-52
-55
-53
-46
-49
-54
-50
-47
-44
-43
-50
-49
-50
-51
-43
-33
-4
45
101
161
180
258
241
193
114
-14
-176
-210
-179
-168
-144
-117
-98
-81
-67
-51
-33
-32
-37
-34
-38
-44
-41
-36
-25
-22
-22
-26
-19
-9
-9
-4
0
1
6
16
26
29
35
37
37
43
49
53
53
56
60
64
70
70
68
67
56
53
51
40
30
23
18
15
8
5
4
1
-2
-11
-22
-26
-36
-36
-28
-26
-21
-17
-24
-28
-30
-22
-17
-12
-4
0
3
0
-6
-13
-13
-12
-19
-19
-13
-9
-11
-15
-25
-35
-39
-42
-44
-47
-48
-48
-47
-48
-49
-49
-47
-49
-53
-51
-49
-49
-41
-38
-44
-44
-37
-21
9
63
122
181
244
266
243
234
75
-105
-218
-207
-194
-173
-137
-101
-79
-69
-59
-56
-49
-44
-43
-44
-44
-39
-34
-37
-35
-29
-26
-20
-17
-14
-12
-9
-4
-1
1
9
15
21
30
33
37
47
52
53
55
56
63
65
64
65
60
55
54
54
45
35
27
22
18
10
2
-1
-5
-8
-10
-11
-20
-31
-32
-31
-27
-25
-33
-37
-28
-26
-31
-23
-19
-7
-3
-3
-2
3
-2
-11
-13
-12
-10
-16
-23
-25
-16
-15
-32
-38
-38
-37
-38
-40
-40
-40
-42
-43
-50
-48
-45
-51
-52
-51
-45
-46
-49
-49
-49
-47
-42
-35
-15
29
79
126
186
255
260
229
172
37
-18
-238
-203
-185
-158
-124
-101
-80
-64
-56
-54
-47
-43
-43
-42
-37
-36
-36
-34
-28
-22
-14
-5
-11
-13
-11
-3
-13
-10
4
7
8
22
36
40
35
36
45
49
49
52
55
67
64
50
44
49
51
44
34
31
21
14
11
5
0
-8
-14
-14
-15
-17
-22
-35
-37
-32
-34
-39
-40
-38
-38
-34
-33
-32
-23
-15
-13
-16
-8
-3
-2
-2
-3
-11
-19
-22
-18
-16
-20
-27
-29
-34
-40
-44
-41
-37
-41
-44
-52
-54
-52
-50
-48
-51
-52
-58
-62
-56
-53
-56
-58
-55
-53
-50
-46
-41
-12
37
80
118
187
255
255
221
145
-17
-81
-228
-195
-177
-148
-116
-93
-74
-64
-60
-52
-48
-43
-40
-44
-44
-42
-37
-32
-32
-34
-30
-24
-22
-21
-19
-11
-2
3
1
0
7
13
21
25
29
37
45
48
44
39
40
45
48
48
46
44
39
31
22
21
17
13
7
3
0
-3
-11
-17
-15
-19
-26
-28
-28
-32
-36
-34
-36
-36
-37
-35
-29
-28
-23
-21
-22
-21
-14
-7
-4
-1
6
6
2
-1
-9
-10
-13
-24
-31
-27
-31
-34
-30
-26
-35
-48
-53
-54
-53
-53
-55
-53
-50
-51
-50
-48
-48
-49
-52
-46
-44
-39
-43
-48
-50
-47
-26
8
63
116
169
234
260
227
212
47
-149
-233
-207
-190
-166
-128
-97
-78
-65
-55
-53
-50
-39
-37
-40
-40
-38
-29
-23
-29
-35
-34
-23
-19
-22
-15
-5
-1
-2
1
3
7
16
23
34
38
37
43
50
50
58
63
66
60
54
56
60
53
49
42
38
30
24
19
15
11
3
-2
-11
-16
-12
-17
-24
-28
-32
-39
-41
-37
-36
-36
-32
-32
-36
-36
-21
-18
-17
-15
-9
-6
-4
-1
0
1
1
-3
-11
-18
-23
-23
-24
-30
-37
-39
-38
-38
-45
-52
-55
-49
-47
-47
-52
-53
-52
-57
-58
-57
-56
-54
-55
-58
-58
-56
-52
-52
-54
-44
-20
16
59
108
164
183
261
237
176
77
-85
-212
-208
-192
-176
-148
-118
-96
-77
-63
-56
-50
-43
-42
-44
-36
-33
-35
-34
-34
-33
-30
-28
-28
-23
-17
-16
-7
-2
-1
3
12
19
20
17
28
44
55
56
45
43
54
53
49
50
53
56
48
50
45
36
29
24
20
15
11
3
-3
-2
-4
-20
-28
-31
-42
-42
-35
-34
-34
-33
-33
-32
-28
-20
-17
-14
-12
-3
3
3
-1
-6
-3
-9
-16
-12
-8
-8
-14
-18
-20
-25
-28
-31
-37
-42
-43
-38
-43
-43
-38
-42
-44
-47
-47
-45
-39
-46
-54
-55
-46
-39
-36
-40
-43
-26
7
52
106
165
222
239
237
190
106
-39
-196
-209
-185
-170
-145
-118
-98
-83
-70
-61
-51
-43
-43
-45
-37
-39
-39
-35
-33
-26
-22
-23
-22
-21
-16
-13
-6
-1
5
11
11
13
18
20
19
28
38
38
34
38
42
44
48
48
44
45
47
40
36
32
26
16
8
-1
-5
-7
-11
-12
-16
-23
-32
-39
-40
-43
-47
-44
-40
-36
-31
-29
-29
-21
-18
-21
-15
-21
-23
-16
-16
-18
-17
-18
-23
-24
-26
-30
-32
-34
-33
-36
-45
-48
-49
-50
-55
-57
-53
-53
-53
-53
-49
-45
-47
-52
-58
-58
-54
-54
-57
-53
-43
-29
7
54
108
171
220
248
233
185
165
-52
-200
-205
-188
-181
-159
-123
-94
-65
-55
-57
-54
-56
-53
-44
-40
-40
-40
-38
-35
-29
-29
-27
-18
-14
-6
-11
-13
-1
13
11
11
20
28
34
45
54
48
52
76
64
45
49
57
57
55
58
54
47
45
37
27
18
13
14
11
6
3
-8
-13
-9
-9
-6
-9
-29
-47
-45
-43
-33
-23
-21
-17
-17
-16
-13
-7
-4
-8
-9
-6
-10
-14
-8
-4
-18
-18
-3
-15
-31
-37
-37
-37
-36
-38
-39
-48
-46
-44
-51
-54
-50
-50
-45
-43
-40
-40
-47
-55
-59
-48
-29
-19
-4
32
88
141
196
246
244
206
125
-10
-190
-219
-207
-178
-167
-133
-104
-80
-59
-49
-46
-40
-44
-54
-53
-41
-31
-34
-40
-40
-38
-41
-30
-16
-14
-16
-13
-12
-8
1
7
16
17
23
38
47
48
43
39
41
47
44
42
48
49
40
36
39
38
30
19
10
8
2
-2
-8
-15
-18
-18
-24
-32
-34
-41
-44
-45
-44
-42
-34
-32
-32
-22
-17
-22
-23
-17
-16
-11
-9
-14
-23
-32
-29
-22
-24
-31
-30
-28
-35
-39
-42
-48
-52
-49
-53
-55
-56
-51
-48
-55
-59
-58
-52
-49
-55
-56
-55
-63
-64
-57
-45
-37
-27
10
52
94
148
226
255
238
177
58
-136
-246
-222
-198
-172
-130
-116
-71
-65
-64
-52
-45
-48
-37
-36
-35
-29
-39
-35
-32
-40
-42
-29
-16
-21
-22
-18
-10
-4
-6
-1
0
16
18
18
27
34
35
38
51
61
45
43
47
44
43
38
31
37
43
42
30
23
7
-14
-7
-2
-12
-16
-20
-32
-37
-37
-33
-36
-42
-38
-36
-36
-33
-27
-16
-11
-11
-2
1
1
3
0
-6
-14
-16
-3
-14
-22
-27
-33
-28
-22
-19
-27
-32
-35
-41
-56
-57
-50
-53
-60
-53
-44
-50
-58
-59
-57
-56
-58
-57
-55
-57
-50
-37
-26
-2
41
88
135
199
247
229
195
118
-38
-207
-230
-202
-175
-140
-110
-88
-71
-68
-68
-68
-58
-53
-52
-44
-36
-37
-38
-42
-40
-33
-31
-32
-22
-17
-14
-8
-1
0
1
3
12
19
21
25
28
29
36
45
50
45
43
46
50
53
49
46
45
42
32
26
23
16
6
-2
-7
-9
-10
-12
-22
-18
-20
-27
-39
-44
-42
-41
-37
-36
-38
-32
-24
-23
-25
-24
-16
-10
-4
-5
-9
-12
-11
-15
-17
-19
-22
-23
-23
-16
-15
-32
-52
-50
-45
-47
-45
-50
-54
-54
-58
-61
-59
-48
-52
-60
-56
-50
-53
-54
-53
-55
-51
-46
-33
5
52
100
154
219
259
238
188
95
-60
-208
-204
-181
-178
-155
-119
-90
-68
-59
-57
-65
-58
-49
-47
-44
-38
-39
-41
-33
-28
-23
-19
-14
-12
-14
-8
-3
-1
11
16
17
14
17
26
29
43
52
55
56
53
50
48
54
59
53
50
48
45
44
39
29
22
15
11
8
1
-2
-2
0
1
-8
-16
-23
-30
-34
-30
-26
-31
-24
-18
-22
-20
-10
-2
2
2
0
0
-3
-7
-12
-7
-5
-19
-23
-21
-19
-24
-27
-32
-38
-40
-38
-42
-47
-43
-43
-45
-44
-52
-55
-51
-43
-45
-53
-58
-59
-54
-52
-52
-33
-12
21
70
125
183
239
252
234
146
14
-157
-218
-197
-185
-167
-137
-115
-97
-76
-64
-56
-49
-49
-50
-42
-38
-40
-40
-40
-40
-37
-32
-30
-26
-24
-26
-21
-14
-12
-8
-1
8
17
25
35
40
30
22
23
38
37
39
42
43
48
45
37
33
27
23
17
13
8
0
-8
-14
-18
-19
-18
-21
-26
-27
-30
-33
-45
-38
-31
-34
-34
-30
-26
-20
-14
-12
-14
-11
-8
-9
-10
-12
-16
-21
-17
-12
-18
-25
-32
-38
-39
-34
-38
-51
-54
-49
-50
-54
-52
-45
-41
-50
-48
-35
-29
-44
-64
-61
-58
-56
-47
-35
-6
48
90
101
192
249
257
219
144
21
-165
-224
-188
-173
-153
-131
-109
-84
-67
-57
-49
-39
-36
-37
-40
-39
-36
-27
-23
-20
-23
-11
-6
-13
-11
0
-1
-3
-2
6
14
19
24
27
28
39
52
54
53
54
54
55
61
64
61
56
59
59
46
38
45
33
20
24
21
8
8
0
-10
-23
-34
-23
-12
-15
-27
-27
-19
-20
-21
-19
-19
-15
-9
-4
-2
0
-2
-3
-3
-5
-8
-11
-17
-17
-12
-10
-16
-24
-30
-35
-39
-38
-36
-36
-41
-43
-39
-38
-50
-53
-52
-50
-48
-45
-48
-52
-55
-53
-47
-40
-16
20
68
127
190
255
268
236
222
53
-145
-226
-194
-178
-156
-124
-98
-79
-60
-54
-52
-49
-49
-40
-33
-37
-42
-44
-35
-27
-22
-22
-28
-27
-17
-17
-11
-5
-2
2
8
12
13
22
33
34
35
46
52
52
55
55
52
54
53
54
48
44
43
34
21
18
14
11
10
3
-3
-11
-20
-23
-25
-30
-31
-29
-29
-32
-33
-28
-26
-26
-24
-16
-6
-3
-5
-8
-3
0
-3
-11
-16
-16
-21
-24
-26
-26
-21
-19
-33
-44
-42
-40
-43
-41
-42
-40
-32
-34
-38
-43
-44
-60
-57
-49
-54
-49
-41
-34
-50
-61
-48
-19
28
80
119
157
222
248
215
151
43
-144
-235
-234
-186
-162
-124
-91
-67
-56
-52
-54
-41
-37
-32
-28
-37
-38
-26
-19
-32
-43
-41
-28
-21
-17
-15
-4
-1
-1
7
11
16
19
21
24
33
41
39
44
50
49
52
54
55
54
52
51
40
28
27
28
21
19
15
12
5
-6
-12
-9
-11
-18
-27
-39
-39
-36
-38
-43
-38
-34
-30
-28
-25
-14
-6
-6
-7
6
11
0
-5
-7
-10
-13
-21
-24
-20
-21
-19
-26
-34
-40
-45
-42
-43
-47
-49
-49
-49
-52
-51
-47
-47
-47
-54
-57
-54
-54
-54
-53
-49
-49
-46
-34
-21
8
55
102
162
239
262
239
183
72
-123
-217
-200
-184
-180
-129
-101
-87
-76
-63
-51
-42
-38
-37
-37
-42
-51
-52
-44
-37
-34
-35
-29
-25
-22
-15
-9
-6
-2
0
4
8
13
22
29
33
38
40
42
47
49
56
60
60
53
43
43
45
41
37
34
27
19
15
13
-5
-8
-11
-13
-11
-15
-22
-23
-30
-41
-38
-27
-28
-29
-29
-33
-30
-27
-23
-22
-16
-5
-3
-3
-2
1
-10
-17
-9
-4
-11
-14
-16
-22
-22
-25
-28
-20
-35
-45
-27
-37
-47
-45
-49
-52
-57
-54
-45
-43
-51
-54
-52
-50
-41
-41
-52
-46
-35
-29
-4
46
97
154
220
279
260
211
127
-5
-176
-209
-182
-171
-167
-122
-97
-74
-64
-64
-56
-39
-34
-36
-39
-35
-31
-26
-23
-19
-14
-14
-15
-8
-7
-4
-1
2
10
13
19
22
29
37
42
50
55
53
59
63
70
70
59
60
62
60
65
54
49
46
30
19
17
15
14
8
0
-10
-13
-14
-19
-21
-25
-32
-33
-32
-27
-23
-16
-6
-12
-26
-28
-19
-4
-1
-3
-3
-5
-6
-10
-16
-19
-18
-18
-22
-26
-20
-18
-32
-43
-44
-44
-47
-44
-44
-50
-50
-51
-56
-58
-55
-47
-49
-52
-60
-60
-54
-52
-54
-53
-49
-23
21
72
121
183
243
249
211
147
32
-148
-217
-196
-188
-170
-144
-118
-110
-81
-70
-63
-58
-53
-49
-45
-43
-43
-40
-40
-34
-32
-32
-32
-26
-23
-23
-19
-8
-4
-4
-1
4
7
17
25
31
39
45
46
38
43
52
54
54
44
41
44
43
45
34
18
11
1
-6
-6
-3
-1
-2
-27
-39
-38
-37
-37
-35
-39
-41
-43
-41
-33
-33
-31
-24
-22
-17
-12
-12
-7
-3
-7
-6
-17
-24
-26
-25
-16
-8
-16
-32
-39
-44
-48
-48
-47
-48
-44
-44
-52
-52
-49
-56
-56
-46
-48
-54
-51
-43
-46
-50
-48
-26
2
39
89
150
195
232
248
217
157
51
-127
-221
-196
-186
-167
-136
-101
-80
-75
-68
-53
-35
-31
-36
-41
-34
-27
-28
-31
-23
-21
-19
-17
-15
-10
-2
2
-2
-4
4
11
13
20
29
35
43
47
48
51
53
54
57
55
56
53
49
52
44
35
32
21
12
12
9
0
-6
-10
-19
-22
-18
-21
-27
-29
-37
-33
-32
-34
-30
-35
-28
-20
-19
-14
-18
-19
-14
-14
-18
-18
-21
-25
-23
-14
-13
-19
-22
-27
-31
-38
-46
-42
-37
-46
-56
-58
-58
-61
-57
-47
-50
-57
-56
-49
-54
-59
-64
-60
-51
-47
-28
6
53
68
146
216
259
240
191
97
-68
-212
-215
-193
-178
-144
-111
-92
-79
-67
-56
-53
-48
-44
-44
-47
-48
-41
-37
-33
-33
-26
-18
-13
-12
-11
-15
-15
-5
5
13
13
16
22
28
40
44
45
51
53
52
53
57
60
62
59
51
41
37
34
37
39
22
1
-3
0
-5
-22
-28
-24
-22
-30
-31
-27
-37
-36
-28
-23
-21
-34
-32
-21
-13
-6
-2
-8
-10
-5
-9
-12
-9
-8
-21
-27
-17
-18
-22
-16
-29
-32
-28
-36
-56
-60
-41
-37
-50
-53
-57
-59
-57
-53
-48
-44
-43
-39
-40
-39
-46
-52
-24
19
67
114
147
218
272
246
233
89
-85
-229
-206
-175
-167
-140
-110
-87
-76
-65
-57
-51
-47
-41
-37
-30
-22
-26
-32
-31
-30
-19
-17
-18
-23
-3
7
5
-6
-13
-1
8
15
21
30
38
44
47
47
49
50
53
57
59
53
45
39
36
34
24
24
21
18
11
4
-4
-12
-15
-20
-28
-37
-39
-37
-31
-27
-30
-39
-44
-41
-37
-30
-23
-16
-13
-8
-11
-13
-12
-17
-20
-14
-13
-17
-22
-25
-27
-28
-32
-36
-38
-40
-44
-49
-51
-58
-60
-57
-56
-58
-57
-54
-57
-61
-59
-61
-65
-62
-59
-55
-50
-48
-43
-18
29
74
114
182
251
257
221
143
-11
-195
-234
-196
-175
-146
-110
-89
-76
-62
-55
-56
-55
-48
-45
-46
-44
-42
-39
-39
-34
-31
-29
-23
-21
-22
-18
-16
-7
-2
2
8
11
14
23
28
27
37
39
40
38
39
40
40
40
40
40
38
33
25
17
17
21
14
4
1
-3
-6
-13
-27
-29
-20
-23
-31
-31
-23
-22
-38
-45
-43
-43
-35
-28
-21
-17
-16
-13
-11
-1
3
1
-5
-6
0
-3
-22
-24
-14
-19
-30
-31
-28
-37
-34
-35
-48
-46
-42
-57
-68
-62
-51
-48
-53
-57
-56
-50
-49
-45
-44
-52
-54
-51
-37
-9
19
51
91
144
221
268
244
195
105
-66
-208
-200
-191
-171
-139
-110
-90
-70
-50
-38
-37
-39
-40
-43
-39
-34
-37
-36
-34
-28
-15
-14
-15
-13
-17
-13
-7
-6
3
5
2
9
22
27
33
40
46
48
48
51
61
64
56
52
50
44
41
43
40
31
19
14
13
5
2
-1
-3
-4
-16
-27
-31
-33
-36
-37
-37
-34
-37
-37
-36
-31
-24
-17
-14
-15
-21
-21
-15
-13
-11
-9
-11
-13
-17
-21
-23
-25
-27
-27
-31
-35
-42
-49
-48
-49
-52
-53
-52
-52
-53
-54
-55
-55
-54
-54
-49
-53
-58
-57
-57
-58
-52
-46
-39
-17
22
73
127
193
257
254
216
140
4
-172
-215
-193
-181
-176
-131
-103
-85
-74
-63
-56
-53
-48
-47
-49
-43
-37
-37
-39
-40
-37
-37
-33
-27
-24
-17
-13
-8
-2
-1
-1
2
10
19
23
28
34
38
43
56
67
55
40
40
43
40
38
29
22
21
30
37
12
-10
-16
-15
-22
-29
-29
-29
-33
-38
-38
-38
-40
-34
-29
-27
-26
-30
-37
-34
-19
-16
-18
-16
-20
-19
-15
-13
-20
-26
-27
-30
-29
-27
-29
-40
-44
-44
-46
-47
-47
-54
-56
-55
-54
-56
-59
-55
-50
-53
-57
-58
-58
-54
-50
-37
-45
-59
-39
0
43
94
155
212
249
230
172
86
-46
-186
-201
-185
-175
-149
-120
-105
-94
-90
-67
-59
-57
-59
-58
-52
-47
-51
-53
-53
-49
-43
-35
-29
-34
-33
-27
-24
-23
-13
-1
1
-3
0
1
7
10
14
21
24
25
24
29
35
31
27
21
17
16
14
16
8
-7
-17
-21
-27
-31
-33
-37
-38
-41
-48
-53
-53
-49
-45
-42
-40
-40
-38
-37
-33
-32
-29
-29
-26
-26
-30
-31
-30
-27
-29
-34
-29
-26
-34
-43
-43
-47
-50
-53
-54
-55
-55
-52
-52
-54
-56
-62
-61
-57
-54
-56
-55
-56
-57
-57
-53
-41
-37
16
68
126
186
242
253
223
153
42
-130
-209
-190
-178
-164
-136
-109
-91
-74
-62
-58
-53
-49
-49
-48
-47
-42
-42
-40
-34
-33
-34
-28
-23
-22
-21
-13
-8
-5
-2
4
8
10
20
30
36
39
42
43
46
48
43
44
42
43
42
37
36
30
20
14
10
7
2
-2
-9
-14
-18
-20
-22
-28
-32
-35
-36
-30
-28
-28
-29
-26
-20
-12
-7
-4
-3
-2
-8
-11
-13
-16
-17
-16
-18
-18
-18
-19
-21
-25
-34
-37
-35
-33
-37
-39
-39
-39
-45
-47
-42
-36
-33
-41
-53
-55
-51
-42
-42
-45
-37
-21
19
68
118
174
235
261
260
185
88
-82
-197
-188
-171
-154
-124
-96
-80
-64
-48
-44
-43
-38
-42
-47
-40
-38
-42
-39
-30
-24
-24
-23
-16
-16
-13
-3
2
5
3
7
12
22
32
34
36
42
47
52
52
51
47
53
56
49
45
43
42
33
29
23
14
7
2
-1
-6
-8
-11
-19
-26
-27
-31
-33
-33
-30
-27
-24
-23
-24
-21
-13
-8
-7
-7
-5
-3
-7
-11
-12
-17
-18
-18
-19
-18
-17
-20
-28
-35
-34
-36
-39
-42
-40
-48
-53
-49
-47
-45
-47
-48
-48
-48
-48
-49
-45
-44
-46
-46
-39
-24
11
59
108
170
247
277
262
213
100
-102
-218
-192
-182
-151
-117
-89
-73
-61
-47
-36
-40
-43
-36
-28
-21
-9
-11
-31
-43
-33
-27
-21
-18
-14
-10
-4
0
1
9
13
19
27
32
38
44
47
48
55
61
59
52
52
52
54
49
48
51
40
28
25
16
6
3
0
-3
-6
-10
-13
-21
-27
-28
-27
-26
-30
-31
-29
-27
-23
-22
-16
-13
-4
6
13
5
-1
-1
-1
-12
-16
-19
-19
-18
-19
-16
-17
-22
-26
-31
-36
-39
-36
-37
-45
-48
-49
-51
-53
-54
-52
-52
-51
-50
-47
-48
-50
-50
-48
-47
-36
-8
32
71
115
182
249
260
226
157
1
-189
-211
-179
-163
-138
-108
-83
-75
-54
-50
-49
-52
-48
-44
-43
-39
-35
-33
-30
-27
-26
-27
-25
-21
-19
-15
-12
-5
-1
0
2
5
7
15
22
29
32
34
36
36
35
34
32
35
35
29
26
21
17
17
10
2
0
-2
-10
-17
-18
-19
-26
-27
-28
-30
-31
-33
-34
-37
-38
-34
-29
-24
-25
-25
-14
-4
-1
1
2
0
-3
-9
-14
-18
-18
-22
-24
-26
-31
-31
-29
-34
-38
-39
-44
-47
-48
-48
-48
-51
-52
-49
-48
-49
-51
-53
-52
-53
-49
-48
-49
-51
-52
-48
-34
-7
38
80
128
210
273
265
212
116
-60
-201
-187
-173
-163
-137
-108
-83
-60
-55
-55
-45
-30
-32
-49
-53
-47
-37
-23
-22
-34
-38
-31
-24
-19
-14
0
7
1
-6
-2
7
12
19
30
33
44
51
52
46
40
48
55
47
43
47
51
50
42
31
25
27
29
19
3
-2
-3
-11
-18
-22
-22
-21
-19
-18
-23
-23
-23
-26
-27
-24
-17
-8
-6
-11
-13
-5
-1
-2
-2
-4
-7
-14
-15
-17
-17
-16
-18
-21
-22
-26
-34
-36
-38
-38
-38
-45
-45
-44
-47
-40
-50
-58
-53
-51
-56
-60
-52
-48
-48
-49
-50
-56
-41
-6
35
80
137
199
256
260
220
142
-1
-173
-206
-180
-171
-154
-124
-102
-83
-69
-60
-55
-54
-53
-47
-46
-40
-38
-39
-39
-32
-29
-29
-29
-31
-24
-15
-9
-9
-4
-3
-1
7
13
16
23
32
35
33
31
35
34
38
42
40
39
38
37
30
21
16
13
8
3
-1
-3
-7
-17
-29
-33
-32
-37
-38
-36
-31
-33
-32
-36
-39
-32
-23
-19
-19
-13
-10
-8
-6
-9
-13
-17
-19
-21
-20
-22
-23
-26
-29
-32
-33
-40
-44
-47
-47
-49
-53
-55
-53
-52
-54
-54
-53
-54
-57
-55
-53
-48
-47
-47
-31
-13
-3
14
45
57
137
206
245
227
174
80
-63
-194
-198
-183
-169
-147
-120
-100
-84
-64
-51
-53
-56
-49
-43
-35
-34
-39
-40
-37
-39
-33
-23
-14
-11
-14
-16
-17
-12
-3
5
13
13
10
11
22
35
38
39
36
38
43
41
39
41
39
39
40
36
29
19
7
3
2
-1
-6
-6
-8
-11
-21
-29
-29
-26
-31
-35
-25
-21
-28
-32
-20
-10
-6
-1
-3
-13
-18
-16
-14
-13
-14
-9
-8
-11
-15
-22
-25
-20
-20
-32
-41
-45
-40
-45
-47
-45
-45
-44
-47
-49
-49
-53
-53
-51
-50
-50
-48
-48
-47
-29
1
44
95
148
209
258
255
211
122
89
-173
-199
-179
-167
-147
-118
-92
-74
-65
-54
-48
-48
-48
-44
-43
-38
-36
-34
-34
-33
-28
-24
-21
-20
-21
-16
-10
-8
-3
4
9
13
21
26
31
32
37
45
49
49
48
48
46
42
42
40
35
34
30
28
17
12
5
-1
-10
-15
-18
-18
-21
-23
-25
-28
-30
-32
-30
-26
-26
-20
-13
-10
-8
-6
-6
-5
-3
-6
-8
-12
-13
-11
-13
-18
-18
-18
-21
-25
-29
-36
-39
-37
-40
-43
-41
-40
-39
-31
-29
-34
-38
-39
-32
-41
-45
-51
-58
-57
-50
-35
-4
36
83
131
191
251
252
218
146
24
-150
-205
-186
-170
-139
-104
-94
-67
-58
-53
-42
-39
-41
-33
-30
-33
-33
-19
-15
-23
-29
-26
-19
-19
-20
-12
-4
0
1
12
24
27
21
27
39
53
52
37
40
51
56
56
46
39
43
47
39
31
28
23
22
19
9
4
-1
-8
-9
-5
-13
-21
-20
-20
-26
-24
-27
-27
-21
-19
-23
-24
-15
-3
1
3
3
3
-1
-11
-14
-9
-17
-21
-15
-22
-26
-31
-29
-28
-32
-38
-43
-51
-54
-48
-44
-52
-53
-55
-54
-53
-50
-48
-54
-53
-49
-49
-49
-44
-41
-27
5
54
94
148
229
264
239
193
94
-98
-221
-196
-173
-151
-118
-91
-72
-64
-63
-64
-54
-50
-47
-41
-39
-43
-43
-42
-37
-32
-32
-31
-25
-23
-18
-9
-2
0
-5
-8
0
6
13
19
26
32
33
35
38
39
40
38
36
37
35
33
30
23
15
9
2
1
0
-5
-13
-13
-15
-22
-29
-33
-32
-32
-31
-33
-37
-33
-31
-29
-23
-19
-18
-18
-13
-4
-2
-1
-2
-7
-9
-8
-4
-12
-22
-22
-27
-29
-29
-21
-23
-37
-50
-54
-51
-40
-45
-48
-50
-56
-55
-54
-52
-51
-47
-47
-51
-50
-52
-54
-46
-30
-11
-3
47
81
127
203
264
251
185
80
-88
-211
-205
-178
-159
-127
-102
-91
-75
-59
-51
-45
-37
-36
-39
-39
-39
-23
-19
-27
-31
-26
-20
-22
-23
-18
-3
14
14
-3
-7
4
13
19
25
32
38
43
48
48
51
54
67
68
52
43
42
39
37
42
41
27
10
9
9
6
3
-4
-16
-21
-24
-28
-29
-31
-34
-30
-28
-24
-26
-25
-18
-13
-13
-9
-2
0
-1
-2
1
2
-6
-10
-13
-17
-23
-26
-24
-28
-27
-27
-36
-40
-42
-42
-47
-48
-48
-44
-50
-57
-54
-48
-47
-49
-49
-57
-55
-53
-51
-48
-51
-41
-17
29
77
125
142
249
264
228
156
28
-151
-206
-184
-177
-158
-129
-103
-85
-71
-62
-57
-51
-48
-48
-46
-44
-39
-37
-33
-31
-32
-32
-29
-30
-29
-25
-18
-12
-10
-3
5
9
8
18
29
34
36
36
38
43
43
42
45
44
43
42
38
34
29
21
13
8
2
-1
-3
-6
-13
-20
-23
-28
-31
-31
-35
-34
-33
-31
-31
-32
-28
-27
-27
-20
-11
-8
-8
-4
-3
-5
-12
-20
-22
-19
-22
-23
-15
-14
-25
-35
-39
-28
-26
-27
-30
-56
-64
-63
-58
-52
-49
-54
-58
-54
-48
-47
-52
-54
-52
-47
-44
-37
-10
40
90
151
206
249
254
198
117
91
-155
-207
-185
-176
-162
-133
-105
-80
-60
-59
-51
-43
-43
-45
-44
-45
-44
-35
-34
-34
-28
-27
-24
-14
-11
-11
-7
-3
5
11
5
4
19
30
31
29
33
43
44
41
44
47
53
50
38
37
36
36
33
32
18
14
13
9
1
-4
-12
-21
-25
-23
-25
-28
-33
-40
-37
-29
-29
-29
-16
-9
-11
-12
-11
-7
-6
-7
-11
-14
-17
-12
-10
-14
-17
-16
-23
-27
-26
-43
-48
-44
-43
-45
-51
-44
-42
-47
-44
-47
-56
-58
-51
-51
-54
-54
-50
-53
-53
-43
-24
17
71
121
183
247
262
231
161
47
-125
-204
-182
-177
-164
-130
-120
-92
-72
-61
-57
-58
-52
-50
-49
-44
-39
-38
-36
-39
-34
-31
-29
-29
-19
-12
-12
-10
-4
0
5
7
16
26
30
37
38
42
47
48
49
49
49
47
42
39
36
31
24
19
15
7
2
-2
-4
-9
-12
-19
-22
-24
-27
-33
-34
-27
-28
-30
-31
-28
-20
-9
-1
-1
-6
-6
-11
-13
-12
-11
-17
-22
-19
-18
-11
-17
-24
-30
-28
-31
-38
-41
-43
-39
-39
-36
-32
-43
-53
-52
-50
-56
-54
-47
-39
-39
-43
-43
-43
-34
-12
24
73
127
182
239
260
235
175
72
-108
-211
-193
-174
-156
-127
-103
-79
-58
-53
-50
-37
-42
-45
-37
-33
-29
-35
-33
-26
-19
-16
-14
-14
-10
-2
-3
-7
2
12
14
21
30
35
34
38
44
50
52
53
53
57
54
52
52
48
44
38
36
37
24
13
9
5
-3
-6
-5
-9
-16
-27
-31
-31
-30
-29
-24
-25
-26
-22
-22
-25
-27
-14
-5
-1
0
-8
-12
-13
-12
-13
-21
-22
-17
-18
-21
-24
-29
-30
-31
-43
-48
-44
-43
-45
-45
-45
-49
-50
-52
-50
-49
-50
-50
-48
-53
-52
-49
-51
-44
-34
-8
40
87
101
223
272
258
212
116
-77
-223
-199
-169
-149
-122
-102
-85
-69
-60
-58
-53
-49
-48
-44
-40
-42
-38
-34
-33
-32
-27
-20
-15
-17
-15
-9
-4
-1
6
12
16
18
23
30
37
38
37
40
43
45
45
45
44
44
40
37
34
29
21
15
11
6
2
-1
-6
-9
-14
-19
-21
-22
-27
-32
-32
-33
-29
-28
-21
-12
-9
-4
-11
-21
-10
2
-2
-4
0
-3
-13
-17
-19
-20
-19
-19
-18
-19
-25
-28
-31
-34
-38
-39
-41
-43
-43
-43
-39
-41
-51
-57
-53
-53
-56
-54
-48
-46
-53
-49
-43
-38
-19
15
62
100
148
232
277
248
232
73
-108
-218
-207
-188
-164
-133
-102
-85
-76
-60
-47
-47
-50
-41
-33
-35
-37
-35
-28
-18
-16
-23
-27
-29
-22
-12
-7
0
12
18
7
2
11
20
26
31
33
39
46
48
53
54
51
53
45
47
46
35
31
30
23
17
10
1
-1
-2
-2
-8
-19
-22
-24
-32
-34
-28
-21
-26
-38
-37
-29
-27
-28
-22
-15
-13
-9
-7
-8
-9
-6
-6
-4
-6
-11
-12
-13
-21
-24
-22
-22
-27
-33
-42
-48
-49
-48
-44
-45
-52
-55
-56
-54
-53
-50
-52
-53
-50
-49
-48
-47
-51
-53
-49
-29
10
60
108
158
230
271
253
197
98
-85
-151
-196
-178
-167
-140
-111
-90
-70
-56
-49
-47
-44
-40
-39
-34
-33
-40
-41
-32
-29
-30
-26
-20
-17
-11
-9
-2
0
3
8
14
24
29
34
39
47
49
52
54
55
56
55
57
56
52
49
42
37
32
25
22
11
5
2
-3
-8
-8
-13
-21
-23
-27
-28
-27
-26
-26
-23
-21
-21
-20
-15
-4
1
-1
-6
-5
-4
8
10
1
-10
-18
-12
-3
-6
-21
-28
-35
-38
-35
-37
-41
-45
-48
-48
-44
-46
-47
-43
-44
-50
-52
-48
-48
-48
-47
-49
-43
-31
-22
-18
13
63
112
178
254
277
238
169
70
-93
-205
-192
-179
-170
-141
-130
-85
-69
-53
-48
-48
-41
-38
-34
-32
-32
-32
-33
-33
-32
-22
-17
-15
-12
-12
-10
-4
0
3
14
17
19
25
30
38
48
46
39
43
54
54
44
41
51
53
44
37
31
20
15
13
8
2
-4
-9
-8
-20
-23
-23
-25
-34
-39
-36
-36
-35
-30
-25
-23
-23
-21
-15
-11
-12
-10
-3
-6
-13
-16
-17
-19
-19
-21
-20
-20
-29
-34
-39
-43
-36
-35
-43
-45
-50
-56
-59
-54
-53
-55
-54
-53
-54
-60
-56
-52
-53
-53
-48
-44
-24
14
62
116
179
238
258
223
156
48
-123
-216
-194
-178
-166
-142
-113
-92
-76
-65
-55
-51
-49
-47
-41
-40
-41
-37
-35
-37
-33
-29
-25
-22
-18
-16
-9
-2
1
3
5
13
20
24
30
38
42
43
45
49
50
51
49
48
49
45
40
34
27
21
17
11
4
0
-3
-12
-18
-19
-19
-22
-23
-29
-31
-28
-27
-32
-30
-26
-18
-3
2
1
-4
-5
-1
-1
-8
-16
-18
-19
-21
-17
-13
-17
-24
-28
-33
-34
-34
-32
-41
-45
-42
-43
-44
-44
-41
-38
-35
-39
-52
-59
-52
-44
-45
-47
-42
-31
0
46
100
154
170
257
260
216
131
-8
-175
-210
-183
-173
-148
-115
-92
-77
-64
-48
-43
-38
-34
-34
-34
-31
-32
-33
-26
-23
-25
-19
-17
-13
-6
-1
3
6
7
9
15
18
28
40
46
47
45
46
48
52
58
57
54
56
57
50
49
38
29
20
13
12
8
1
0
-6
-14
-20
-23
-24
-24
-26
-28
-27
-26
-31
-30
-21
-10
-7
-8
-10
-4
-3
-8
-16
-19
-16
-14
-12
-12
-16
-21
-26
-26
-27
-36
-42
-43
-44
-42
-41
-50
-54
-53
-45
-45
-48
-52
-57
-54
-52
-55
-55
-53
-51
-50
-41
-17
24
69
114
182
253
264
235
166
31
-164
-214
-191
-176
-148
-116
-92
-74
-58
-52
-49
-44
-43
-41
-38
-36
-39
-39
-34
-30
-28
-23
-18
-16
-13
-8
-6
-2
5
11
17
23
29
34
39
42
45
51
55
58
55
53
58
59
49
45
45
39
35
33
25
21
10
1
-5
-11
-22
-27
-28
-29
-25
-24
-31
-32
-32
-32
-25
-22
-24
-23
-18
-10
-4
-3
-1
-2
-3
-11
-13
-19
-22
-22
-22
-18
-21
-28
-34
-36
-38
-37
-39
-41
-42
-32
-31
-43
-44
-50
-67
-61
-50
-48
-51
-57
-63
-60
-57
-51
-39
-15
25
73
120
182
247
254
213
136
-12
-189
-211
-182
-169
-149
-118
-91
-83
-63
-52
-43
-40
-40
-47
-50
-43
-40
-36
-33
-38
-33
-26
-22
-22
-20
-14
-8
-3
-1
5
14
18
19
27
31
28
30
38
45
43
38
39
41
33
33
38
31
17
12
10
5
2
3
-2
-12
-16
-15
-17
-21
-26
-31
-36
-37
-38
-38
-38
-39
-35
-27
-21
-17
-17
-14
-7
-4
-5
-3
-5
-9
-6
-4
-16
-21
-35
-29
-31
-33
-31
-32
-42
-50
-56
-56
-53
-54
-56
-54
-54
-55
-55
-53
-54
-53
-52
-53
-54
-51
-50
-53
-40
-12
29
69
112
180
252
261
223
150
8
-178
-224
-193
-175
-153
-120
-91
-72
-59
-54
-50
-52
-50
-46
-46
-38
-35
-37
-33
-29
-28
-24
-17
-14
-16
-12
-7
-3
1
6
13
22
28
32
35
48
57
58
53
54
53
54
53
60
60
51
43
37
36
31
21
11
8
4
1
-7
-11
-13
-17
-18
-24
-30
-32
-27
-27
-28
-17
-1
-7
-22
-26
-22
-15
-8
-4
-5
-8
-7
-8
-14
-15
-16
-20
-22
-20
-18
-22
-23
-35
-37
-37
-43
-45
-48
-49
-48
-47
-52
-52
-49
-47
-49
-48
-49
-53
-53
-50
-48
-43
-31
-3
43
60
144
203
254
252
199
118
-8
-171
-208
-184
-173
-157
-131
-100
-78
-67
-61
-51
-51
-53
-48
-42
-36
-32
-33
-37
-33
-33
-33
-25
-18
-13
-13
-9
-5
-1
3
9
14
18
26
34
37
44
51
49
43
40
45
47
38
38
45
37
22
18
18
8
3
2
1
-3
-8
-17
-24
-24
-26
-28
-28
-30
-32
-32
-38
-39
-38
-32
-23
-16
-10
-3
-5
-14
-18
-18
-22
-19
-14
-13
-22
-30
-28
-27
-35
-40
-44
-52
-54
-50
-51
-52
-54
-53
-54
-54
-55
-59
-57
-54
-57
-59
-57
-57
-56
-51
-35
-10
30
80
134
197
246
241
199
121
91
-161
-209
-190
-183
-164
-135
-108
-89
-73
-62
-59
-53
-49
-47
-45
-45
-41
-38
-37
-34
-29
-30
-27
-20
-18
-17
-10
-8
-7
0
6
17
21
26
32
34
34
42
45
44
47
48
48
48
44
38
37
32
21
17
7
4
2
-3
-12
-17
-18
-20
-28
-32
-30
-29
-31
-36
-35
-29
-28
-23
-7
-7
-13
-9
-3
-16
-21
-20
-15
-13
-19
-27
-26
-21
-21
-21
-27
-30
-32
-33
-40
-47
-52
-49
-45
-44
-45
-42
-44
-43
-37
-38
-48
-54
-57
-56
-53
-46
-32
-1
53
107
151
208
254
245
198
112
-34
-195
-212
-188
-173
-151
-122
-100
-94
-71
-61
-50
-40
-37
-41
-47
-44
-40
-35
-30
-27
-24
-21
-19
-17
-13
-10
-3
1
4
10
13
22
26
32
35
42
41
42
46
49
50
57
57
55
50
40
32
26
23
15
4
-1
-3
-4
-10
-14
-18
-19
-26
-30
-32
-33
-30
-24
-29
-32
-30
-26
-20
-13
-5
-7
-9
-12
-16
-18
-22
-22
-18
-20
-27
-24
-21
-21
-30
-44
-45
-42
-44
-49
-55
-55
-47
-48
-54
-54
-52
-51
-55
-55
-54
-53
-53
-49
-50
-44
-33
-28
37
90
146
215
267
255
210
121
-32
-196
-216
-189
-166
-137
-110
-94
-79
-61
-51
-46
-47
-48
-43
-38
-39
-36
-34
-32
-28
-26
-23
-18
-16
-15
-10
-2
0
7
14
17
22
29
37
42
46
51
58
62
62
63
62
63
59
46
47
48
43
30
22
17
5
-3
-11
-12
-9
-12
-13
-16
-29
-39
-38
-37
-36
-27
-23
-25
-28
-16
-5
0
0
0
-2
-11
-9
0
-4
-17
-22
-23
-21
-18
-25
-31
-32
-34
-42
-45
-44
-43
-46
-48
-43
-47
-54
-53
-52
-54
-53
-53
-53
-45
-46
-49
-45
-36
-9
36
73
110
172
245
263
225
209
31
-156
-225
-202
-187
-160
-125
-98
-82
-62
-53
-51
-45
-42
-45
-40
-37
-37
-38
-31
-27
-30
-31
-21
-17
-10
-12
-11
-8
1
9
16
20
21
25
32
37
37
43
51
52
45
46
49
48
44
39
32
24
21
20
12
12
4
-4
-10
-9
-11
-21
-23
-21
-28
-33
-36
-36
-36
-34
-36
-39
-31
-26
-25
-18
-9
-7
-4
-2
-2
-10
-11
-12
-18
-24
-22
-10
-16
-31
-33
-38
-47
-50
-52
-54
-58
-55
-54
-54
-54
-54
-53
-52
-54
-52
-51
-54
-54
-52
-49
-48
-42
-25
13
60
100
157
234
251
223
160
39
-153
-231
-204
-180
-173
-118
-92
-74
-61
-57
-53
-48
-44
-45
-44
-41
-42
-38
-33
-30
-22
-19
-19
-19
-14
-12
-11
0
4
2
3
21
34
29
24
35
44
42
47
52
52
53
54
54
59
53
45
44
38
24
14
14
13
9
8
0
-3
-16
-25
-26
-22
-24
-35
-39
-35
-28
-28
-31
-23
-16
-13
-15
-17
-7
-1
-1
-2
-3
-2
-1
-10
-12
-11
-12
-19
-23
-26
-27
-27
-27
-35
-43
-48
-53
-52
-50
-49
-48
-48
-48
-44
-47
-52
-47
-45
-44
-56
-56
-47
-42
-31
1
49
96
144
211
263
250
198
112
-32
-189
-205
-184
-172
-146
-119
-95
-73
-67
-47
-43
-43
-43
-43
-39
-31
-29
-33
-37
-37
-28
-23
-23
-16
-9
-11
-7
3
8
9
14
21
26
28
35
37
41
45
50
59
65
61
50
46
51
48
40
36
34
27
13
7
3
3
-1
-9
-17
-22
-23
-27
-31
-34
-30
-31
-34
-33
-35
-33
-25
-19
-12
-2
-2
-10
-12
-8
-6
-15
-21
-18
-15
-17
-27
-31
-28
-24
-31
-41
-44
-51
-55
-53
-51
-49
-49
-55
-62
-58
-54
-53
-51
-52
-56
-58
-58
-54
-50
-46
-44
1
43
93
154
215
252
234
178
91
-58
-203
-208
-190
-174
-147
-121
-107
-85
-71
-62
-55
-50
-48
-50
-49
-46
-40
-38
-35
-32
-32
-32
-27
-24
-20
-14
-6
-3
-1
2
7
17
26
30
33
37
43
48
45
44
49
56
57
50
44
41
44
30
20
16
10
7
7
-2
-21
-29
-24
-31
-33
-27
-27
-39
-45
-37
-34
-25
-23
-28
-25
-19
-15
-11
-7
-7
-8
-7
-13
-20
-24
-20
-21
-19
-20
-25
-30
-34
-39
-45
-45
-44
-45
-47
-52
-52
-48
-44
-49
-52
-53
-54
-49
-45
-44
-48
-41
-34
-26
4
59
113
172
229
262
232
217
87
-49
-192
-205
-190
-175
-153
-126
-99
-82
-72
-61
-52
-52
-43
-34
-34
-34
-33
-36
-36
-32
-29
-27
-27
-18
-7
-9
-13
-6
2
11
13
13
15
21
30
35
42
44
48
50
43
38
39
40
39
43
37
34
12
8
9
4
0
-1
-7
-12
-26
-33
-31
-37
-40
-37
-34
-36
-39
-38
-32
-24
-17
-17
-16
-8
-4
-12
-20
-22
-18
-21
-20
-21
-26
-27
-27
-27
-29
-29
-33
-42
-48
-54
-56
-53
-53
-54
-56
-55
-56
-54
-54
-54
-54
-57
-54
-53
-45
-32
-5
35
87
139
195
252
258
217
129
-1
-175
-224
-200
-184
-161
-126
-115
-83
-67
-53
-52
-52
-46
-40
-38
-39
-41
-33
-33
-35
-28
-23
-24
-20
-14
-10
-4
-2
4
9
14
17
29
31
39
50
55
57
64
64
72
70
56
46
40
45
47
33
23
20
11
3
1
0
-2
-10
-13
-19
-26
-21
-20
-24
-33
-34
-28
-25
-20
-12
0
2
-17
-16
-4
-10
-13
-11
-15
-18
-19
-18
-17
-16
-19
-25
-28
-30
-30
-39
-44
-44
-43
-42
-41
-46
-49
-48
-46
-44
-42
-38
-43
-53
-53
-48
-48
-38
-32
28
71
115
172
237
258
234
175
72
-114
-228
-206
-193
-175
-141
-104
-80
-63
-55
-54
-49
-46
-43
-39
-38
-33
-30
-29
-33
-28
-18
-16
-17
-14
-10
-5
-4
1
8
12
22
30
32
34
36
46
53
50
53
55
52
53
52
48
48
45
36
28
25
21
10
2
-1
-7
-12
-17
-18
-26
-27
-30
-37
-35
-29
-28
-28
-28
-24
-26
-25
-27
-20
-8
-4
-1
-6
-17
-18
-18
-22
-22
-19
-23
-28
-30
-28
-32
-38
-37
-38
-39
-50
-53
-57
-58
-57
-53
-52
-54
-54
-54
-54
-52
-49
-49
-47
-49
-49
-26
16
65
109
171
240
253
249
167
45
-154
-232
-203
-181
-156
-122
-91
-74
-65
-58
-54
-51
-42
-40
-45
-40
-37
-38
-35
-26
-27
-27
-26
-21
-13
-11
-12
-3
2
6
6
10
21
34
39
41
52
54
57
57
51
49
46
44
47
43
35
34
32
13
2
1
-4
-5
-7
-16
-20
-20
-23
-30
-35
-37
-30
-32
-36
-37
-39
-33
-25
-15
-13
-21
-23
-6
-2
0
-2
-7
-10
-14
-14
-17
-26
-25
-23
-25
-28
-32
-34
-36
-39
-43
-47
-53
-51
-53
-53
-54
-54
-53
-52
-50
-53
-51
-49
-52
-54
-54
-49
-37
-10
27
70
114
171
236
245
210
143
10
-185
-234
-226
-181
-159
-134
-108
-79
-60
-49
-49
-51
-52
-46
-43
-46
-43
-34
-31
-34
-35
-27
-20
-22
-18
-8
-1
0
0
0
4
12
20
27
31
34
42
47
48
53
53
58
55
52
55
53
44
41
40
34
22
10
6
-1
-7
-11
-16
-22
-26
-26
-27
-30
-38
-40
-39
-41
-35
-28
-28
-30
-30
-24
-20
-17
-11
-8
-8
-8
-5
-13
-19
-18
-18
-24
-29
-31
-33
-38
-38
-45
-51
-55
-56
-55
-55
-51
-48
-52
-54
-56
-52
-51
-53
-55
-59
-59
-55
-53
-53
-45
-25
9
59
112
167
231
261
227
159
46
-133
-222
-202
-191
-175
-144
-116
-108
-79
-65
-57
-55
-53
-50
-48
-44
-43
-39
-35
-36
-35
-28
-23
-23
-21
-18
-13
-5
-2
0
3
10
13
22
26
31
39
42
42
49
57
55
50
46
44
45
39
33
29
22
17
10
3
-4
-10
-14
-17
-18
-28
-31
-31
-33
-36
-35
-34
-36
-34
-28
-24
-20
-14
-14
-14
-6
-5
-10
-13
-14
-14
-18
-18
-17
-17
-25
-27
-28
-32
-38
-45
-50
-48
-47
-52
-54
-49
-47
-49
-51
-52
-51
-58
-56
-51
-54
-54
-52
-41
-37
6
52
97
151
208
248
237
181
101
-33
-192
-218
-196
-185
-163
-131
-107
-86
-70
-61
-53
-47
-42
-39
-40
-39
-39
-45
-45
-40
-31
-23
-22
-25
-27
-23
-16
-10
-2
4
9
15
21
26
26
31
35
36
33
34
48
43
37
36
37
30
24
21
18
9
4
0
-3
-13
-22
-26
-29
-32
-32
-36
-42
-46
-44
-38
-36
-35
-41
-35
-24
-24
-28
-22
-20
-22
-23
-24
-22
-19
-26
-33
-33
-31
-28
-30
-41
-45
-47
-47
-44
-45
-51
-56
-58
-59
-59
-55
-58
-58
-57
-55
-57
-58
-58
-57
-51
-39
-12
29
83
141
196
244
248
205
187
7
-166
-222
-198
-186
-168
-136
-109
-94
-78
-62
-59
-56
-52
-48
-47
-45
-44
-42
-38
-34
-30
-29
-26
-24
-23
-17
-8
-4
-1
2
11
12
17
27
29
34
39
44
48
52
54
51
50
50
43
39
39
31
28
20
14
6
1
0
-2
-4
-16
-28
-36
-34
-29
-31
-32
-32
-27
-26
-26
-23
-17
-8
-1
2
2
0
-16
-17
-14
-12
-9
-11
-13
-19
-23
-26
-27
-28
-34
-36
-30
-31
-37
-42
-43
-50
-52
-46
-44
-44
-44
-47
-49
-43
-40
-39
-39
-23
2
47
98
150
211
258
244
193
112
-20
-183
-212
-189
-173
-152
-120
-89
-80
-56
-54
-52
-49
-45
-39
-32
-30
-35
-32
-25
-27
-29
-24
-15
-9
-4
-3
-7
-2
7
11
17
24
27
34
42
49
54
54
53
57
56
55
57
58
53
49
43
30
18
11
7
8
7
2
-6
-14
-19
-21
-22
-23
-29
-33
-31
-28
-24
-25
-31
-27
-18
-14
-13
-13
-12
-8
-6
-6
-12
-16
-14
-13
-19
-26
-28
-28
-26
-33
-43
-47
-42
-43
-46
-49
-50
-49
-49
-48
-48
-51
-49
-52
-50
-48
-48
-48
-49
-44
-29
-22
44
94
144
213
258
245
202
109
-57
-217
-218
-188
-170
-138
-106
-85
-68
-51
-48
-48
-53
-43
-38
-41
-43
-37
-35
-30
-23
-18
-24
-23
-18
-12
-7
-1
8
15
19
20
23
28
37
46
48
50
59
60
66
69
71
65
59
51
42
42
43
19
7
8
3
1
2
-1
-13
-19
-19
-26
-31
-31
-33
-30
-28
-30
-31
-25
-19
-16
-14
-11
-4
-1
-1
0
1
-1
-11
-18
-18
-14
-13
-15
-18
-25
-31
-34
-38
-42
-43
-43
-50
-46
-44
-41
-45
-53
-49
-44
-46
-48
-45
-43
-47
-49
-42
-38
-36
-13
32
75
115
175
241
241
231
117
-7
-183
-228
-202
-182
-152
-118
-89
-70
-59
-54
-47
-40
-44
-42
-34
-31
-34
-35
-36
-39
-36
-28
-26
-21
-10
-6
-10
-6
0
4
11
17
23
28
33
41
45
51
55
52
52
54
54
57
53
48
37
34
31
24
19
15
8
0
-1
-4
-12
-17
-18
-23
-30
-34
-33
-32
-31
-30
-26
-22
-28
-25
-14
-9
-6
0
-1
2
-4
-13
-17
-18
-22
-23
-21
-21
-24
-27
-28
-33
-43
-48
-45
-47
-48
-50
-51
-50
-52
-53
-50
-49
-49
-52
-50
-49
-52
-53
-50
-45
-43
-27
10
57
105
160
226
263
243
191
90
-91
-223
-204
-193
-174
-145
-113
-89
-75
-63
-57
-50
-48
-47
-44
-40
-39
-33
-29
-31
-25
-15
-16
-25
-22
-15
-8
-2
-1
9
16
24
22
26
39
48
49
49
59
61
60
60
63
57
48
48
48
47
46
31
15
6
7
9
1
-7
-11
-15
-18
-25
-29
-30
-28
-26
-24
-22
-17
-18
-20
-18
-16
-10
-1
1
0
0
3
1
-1
-12
-12
-8
-15
-18
-13
-12
-22
-31
-34
-35
-38
-41
-48
-54
-50
-47
-45
-44
-44
-49
-47
-44
-51
-53
-44
-46
-47
-46
-34
-8
26
65
111
171
235
257
221
155
47
-124
-219
-205
-188
-166
-136
-108
-93
-76
-70
-52
-43
-39
-41
-42
-36
-31
-36
-38
-31
-28
-29
-21
-16
-15
-14
-5
-1
6
16
19
25
29
28
28
43
48
49
53
58
59
62
62
62
63
61
55
42
31
32
22
13
1
-9
-10
-9
-17
-19
-16
-16
-24
-33
-38
-34
-29
-24
-27
-27
-24
-19
-11
-8
-9
-7
-3
-4
-8
-9
-9
-9
-15
-29
-31
-24
-23
-31
-36
-40
-47
-45
-41
-39
-45
-54
-59
-56
-57
-48
-41
-51
-55
-54
-51
-52
-50
-49
-46
-34
-7
3
83
131
197
254
251
210
136
-3
-198
-237
-203
-182
-156
-121
-94
-80
-68
-54
-49
-49
-45
-44
-42
-37
-36
-31
-22
-21
-25
-27
-20
-9
-3
-1
3
6
9
14
17
28
43
49
44
43
55
59
61
63
65
65
65
67
65
71
54
33
23
21
22
21
14
2
-6
-6
-2
-9
-24
-22
-22
-34
-34
-37
-37
-31
-28
-26
-27
-19
-13
-8
-4
0
0
-1
-5
-8
-12
-17
-14
-13
-17
-17
-18
-19
-22
-32
-41
-43
-37
-36
-41
-43
-50
-57
-55
-49
-49
-54
-53
-52
-50
-54
-58
-55
-48
-42
-36
-8
35
77
112
169
241
242
229
128
15
-164
-227
-201
-187
-164
-130
-100
-81
-69
-51
-45
-55
-51
-44
-39
-38
-47
-44
-45
-41
-29
-25
-23
-17
-19
-11
-8
-6
2
8
16
20
23
28
34
36
37
43
48
47
48
48
45
48
47
42
34
31
20
10
4
1
-3
-4
-6
-12
-17
-23
-30
-36
-33
-27
-30
-38
-39
-33
-31
-31
-29
-25
-19
-13
-12
-4
5
8
3
-7
-14
-19
-27
-25
-23
-27
-28
-28
-29
-34
-38
-46
-51
-49
-48
-48
-53
-54
-53
-53
-53
-51
-53
-54
-50
-51
-52
-55
-57
-54
-45
-25
11
57
98
151
225
265
241
185
78
-117
-236
-207
-195
-168
-134
-102
-87
-70
-52
-45
-46
-52
-51
-45
-42
-39
-39
-36
-29
-29
-27
-18
-18
-20
-10
-4
-3
-1
14
22
28
36
43
39
40
46
53
52
52
58
60
63
60
52
48
51
48
40
36
29
23
15
12
3
-2
-14
-19
-18
-18
-23
-31
-30
-27
-28
-28
-28
-27
-22
-19
-17
-10
-3
-1
0
1
0
-1
-2
-9
-11
-14
-9
-3
-9
-18
-31
-39
-42
-42
-49
-51
-47
-44
-40
-43
-46
-54
-58
-57
-56
-55
-47
-45
-57
-59
-55
-53
-46
-25
14
63
113
172
232
261
232
174
76
-87
-211
-200
-177
-165
-147
-124
-102
-78
-72
-62
-56
-55
-51
-50
-45
-40
-39
-40
-36
-34
-33
-30
-24
-19
-14
-13
-9
-1
2
6
11
14
24
27
36
36
41
44
44
47
48
46
45
44
39
31
25
21
20
13
7
2
-4
-6
-12
-20
-27
-31
-33
-30
-38
-40
-35
-33
-32
-32
-37
-38
-29
-21
-14
-10
-6
-5
-11
-18
-22
-21
-19
-20
-26
-24
-25
-27
-34
-36
-40
-47
-47
-45
-48
-55
-58
-55
-57
-62
-60
-55
-56
-58
-58
-58
-55
-55
-52
-48
-35
-2
11
98
156
214
254
237
183
94
-55
-209
-210
-192
-183
-161
-130
-106
-86
-75
-63
-57
-57
-55
-51
-45
-38
-36
-42
-37
-34
-34
-31
-27
-24
-19
-13
-13
-4
4
9
8
14
26
38
40
36
34
41
47
43
45
47
42
41
39
32
31
30
22
10
8
7
-6
-13
-13
-8
-17
-27
-29
-35
-36
-34
-27
-22
-23
-29
-32
-25
-15
-12
-13
-8
-6
-8
-11
-16
-16
-9
-9
-12
-9
-10
-17
-24
-28
-31
-31
-27
-30
-44
-49
-48
-40
-47
-49
-48
-47
-44
-42
-43
-44
-49
-48
-46
-36
-13
20
63
109
164
224
257
235
181
90
-67
-126
-196
-169
-158
-145
-124
-96
-73
-59
-49
-44
-46
-42
-39
-44
-41
-34
-33
-32
-34
-30
-26
-24
-14
-4
-2
-4
1
4
10
22
33
40
45
41
40
37
38
45
49
53
55
55
50
42
35
31
28
26
10
4
0
-5
-13
-20
-22
-18
-18
-28
-32
-26
-20
-21
-35
-39
-31
-28
-26
-18
-8
-4
-7
-15
-22
-20
-18
-20
-14
-9
-13
-22
-26
-28
-34
-36
-35
-41
-47
-49
-47
-47
-47
-48
-50
-49
-50
-48
-47
-48
-48
-49
-51
-49
-48
-43
-34
-1
45
94
144
208
256
249
208
119
-48
-219
-222
-195
-175
-147
-115
-89
-69
-61
-60
-54
-44
-40
-39
-40
-40
-36
-32
-32
-24
-25
-22
-17
-8
-3
-7
-2
2
10
20
27
30
35
45
48
45
52
57
62
65
61
60
65
65
59
58
43
35
30
20
11
9
2
-5
-10
-13
-20
-21
-18
-19
-30
-33
-34
-31
-23
-19
-18
-17
-12
-3
-2
-6
-3
-4
-7
-8
-9
-9
-11
-9
-16
-25
-23
-26
-27
-32
-31
-41
-51
-49
-44
-40
-42
-43
-43
-46
-53
-56
-49
-51
-57
-55
-50
-46
-40
-35
-18
16
65
80
159
229
250
216
159
54
-132
-228
-209
-193
-165
-127
-104
-86
-68
-62
-55
-44
-44
-47
-47
-48
-45
-39
-37
-31
-30
-27
-23
-19
-18
-9
-2
1
5
7
8
16
26
34
39
39
37
39
43
42
39
45
47
45
39
44
38
26
22
16
11
9
4
-3
-8
-12
-16
-20
-26
-27
-32
-41
-39
-33
-28
-26
-29
-26
-23
-21
-14
-6
-3
-6
-6
-3
-7
-10
-14
-17
-19
-25
-27
-23
-22
-29
-36
-40
-46
-47
-44
-47
-48
-48
-50
-48
-52
-54
-54
-53
-50
-50
-49
-54
-54
-50
-48
-41
-22
13
58
105
164
239
262
235
174
46
-7
-232
-202
-183
-155
-116
-91
-81
-71
-60
-55
-48
-42
-43
-45
-41
-36
-37
-38
-30
-23
-22
-18
-16
-11
-9
-2
0
4
12
31
53
44
25
36
45
49
54
54
54
62
63
62
61
61
49
44
48
37
28
27
20
14
7
1
-3
-9
-14
-19
-27
-32
-27
-23
-29
-32
-29
-23
-21
-19
-18
-17
-6
2
0
-1
-2
-6
-7
-9
-12
-13
-15
-17
-15
-17
-19
-26
-39
-41
-39
-42
-47
-52
-53
-44
-40
-43
-40
-47
-56
-57
-57
-48
-46
-52
-55
-52
-43
-30
0
44
92
141
201
262
261
210
124
-1
-167
-208
-191
-184
-160
-128
-119
-90
-76
-63
-55
-44
-35
-40
-50
-48
-42
-39
-34
-30
-28
-21
-19
-26
-27
-15
-5
-1
4
9
13
14
24
33
38
35
37
45
48
47
52
52
46
43
43
43
38
28
23
22
13
5
-2
-9
-14
-19
-19
-21
-30
-35
-38
-40
-42
-34
-29
-31
-34
-29
-20
-17
-14
-14
-13
-12
-12
-11
-12
-18
-23
-23
-24
-26
-26
-25
-33
-39
-43
-46
-44
-48
-54
-57
-53
-51
-58
-59
-55
-53
-58
-59
-57
-56
-54
-54
-57
-49
-45
-14
25
75
129
186
236
242
200
127
11
-159
-224
-201
-190
-173
-141
-115
-96
-77
-66
-63
-56
-50
-48
-47
-43
-46
-45
-41
-37
-36
-34
-30
-27
-20
-15
-9
-4
-3
-1
3
12
21
27
33
41
53
59
41
34
35
35
32
33
34
32
29
22
15
13
5
-3
-7
-12
-15
-18
-23
-27
-33
-36
-38
-35
-31
-31
-31
-28
-27
-17
-9
-9
-18
-23
-15
-12
-24
-24
-19
-18
-16
-18
-19
-18
-26
-32
-33
-36
-36
-39
-45
-45
-39
-37
-44
-55
-60
-54
-49
-52
-53
-51
-48
-48
-48
-48
-40
-22
13
61
113
173
226
255
238
176
151
-70
-205
-199
-177
-166
-141
-116
-99
-78
-69
-64
-58
-59
-57
-52
-48
-41
-38
-36
-25
-22
-23
-26
-24
-23
-12
-8
-11
-8
1
10
14
19
26
38
40
37
38
44
45
47
47
47
42
37
34
34
27
19
17
6
2
-1
-10
-17
-22
-27
-29
-31
-32
-31
-32
-29
-31
-33
-32
-26
-15
-13
-21
-18
-13
-18
-22
-21
-20
-23
-22
-21
-22
-22
-23
-25
-31
-35
-39
-44
-44
-45
-44
-45
-47
-48
-50
-49
-54
-58
-53
-50
-49
-49
-49
-48
-45
-38
-21
12
66
122
182
243
265
239
177
66
-112
-219
-206
-186
-169
-141
-110
-88
-73
-67
-52
-48
-45
-44
-40
-39
-36
-30
-27
-22
-20
-16
-20
-17
-15
-16
-7
1
7
11
18
27
36
39
40
54
56
58
63
65
65
65
62
56
57
55
47
41
32
29
33
20
3
0
-5
-14
-20
-19
-18
-19
-28
-24
-23
-24
-22
-21
-21
-19
-12
-6
-3
-5
-10
-12
-12
-11
-5
-1
-12
-15
-15
-21
-19
-18
-19
-34
-37
-36
-43
-45
-43
-45
-45
-44
-44
-47
-47
-48
-48
-44
-40
-45
-46
-38
-33
-19
18
68
112
125
235
259
231
172
69
-109
-229
-208
-186
-165
-126
-97
-76
-59
-50
-45
-44
-44
-47
-45
-48
-39
-32
-34
-34
-23
-15
-15
-18
-18
-9
0
1
3
11
20
24
34
43
50
53
50
54
62
60
51
44
48
49
48
40
35
28
21
13
8
6
2
-3
-9
-12
-16
-21
-26
-27
-29
-34
-30
-33
-38
-36
-28
-21
-12
-8
-10
-13
-12
-11
-13
-20
-26
-26
-23
-21
-25
-26
-21
-19
-27
-43
-49
-45
-47
-48
-48
-48
-48
-51
-53
-55
-54
-50
-50
-49
-52
-55
-53
-51
-49
-41
-16
18
62
107
161
232
256
230
172
43
-161
-239
-200
-190
-155
-119
-95
-76
-53
-47
-54
-50
-47
-47
-44
-40
-37
-33
-32
-31
-26
-22
-17
-14
-6
0
-2
-2
-1
11
23
26
27
38
39
36
45
45
43
49
49
47
48
42
37
38
35
30
28
22
16
14
6
1
-8
-8
-8
-5
3
-1
-23
-36
-41
-42
-33
-31
-30
-20
-11
-7
-2
0
-1
1
1
-2
-8
-13
-14
-14
-17
-21
-19
-18
-21
-27
-27
-27
-32
-32
-39
-43
-38
-41
-54
-59
-55
-51
-49
-52
-46
-47
-49
-50
-56
-58
-44
-13
34
82
127
185
255
271
233
156
29
-163
-217
-186
-171
-155
-134
-105
-81
-64
-59
-58
-57
-46
-44
-47
-45
-43
-39
-32
-33
-32
-22
-15
-17
-19
-17
-9
-3
2
11
14
14
22
30
36
41
44
50
56
54
50
53
54
53
52
43
36
34
30
18
13
13
3
-6
-17
-22
-18
-14
-26
-31
-28
-29
-42
-41
-35
-30
-27
-27
-19
-13
-15
-13
-8
-6
-8
-16
-20
-21
-22
-22
-24
-26
-22
-25
-31
-34
-36
-44
-51
-52
-54
-55
-54
-53
-56
-57
-58
-55
-57
-56
-53
-54
-53
-54
-54
-47
-32
3
48
99
153
170
254
239
186
92
-67
-208
-202
-180
-177
-156
-122
-99
-86
-71
-60
-54
-52
-41
-38
-42
-42
-42
-38
-36
-37
-28
-19
-18
-23
-20
-13
-9
0
8
16
26
34
30
28
40
47
49
53
43
46
53
58
50
45
47
39
24
18
15
8
2
-3
-5
-12
-20
-22
-20
-31
-33
-33
-28
-23
-21
-28
-30
-17
-8
-9
-10
-8
-7
-8
-4
-8
-9
-5
-15
-26
-17
-14
-18
-17
-16
-29
-39
-42
-43
-39
-41
-39
-40
-47
-50
-51
-52
-51
-58
-58
-53
-45
-45
-48
-41
-32
-14
15
65
119
175
228
259
224
165
69
-88
-203
-195
-186
-175
-168
-119
-98
-79
-61
-54
-49
-47
-52
-51
-49
-45
-43
-39
-34
-31
-28
-29
-28
-21
-10
-2
0
-2
-3
-3
6
17
23
32
36
40
44
44
41
40
42
45
43
38
33
33
32
18
7
1
-4
-6
-8
-19
-24
-26
-32
-34
-33
-29
-25
-29
-36
-33
-29
-31
-26
-22
-18
-15
-13
-14
-21
-28
-28
-24
-22
-22
-24
-26
-27
-32
-38
-39
-43
-43
-40
-47
-50
-48
-48
-47
-52
-54
-55
-55
-48
-46
-51
-54
-54
-50
-50
-32
-23
52
104
159
218
257
239
192
100
-50
-201
-215
-191
-175
-147
-113
-91
-80
-69
-60
-50
-48
-39
-31
-39
-43
-31
-20
-23
-27
-18
-14
-23
-23
-17
-10
-3
6
17
23
31
28
27
37
52
58
52
60
65
59
59
67
65
63
52
37
37
31
25
18
6
2
-1
-6
-12
-12
-12
-18
-22
-17
-20
-28
-28
-26
-20
-18
-11
-9
-7
-4
-3
-3
-1
-6
-12
-14
-8
-14
-18
-13
-15
-21
-22
-25
-31
-40
-45
-44
-37
-35
-36
-48
-48
-44
-44
-44
-49
-45
-45
-52
-54
-48
-42
-27
7
47
84
130
198
259
256
208
130
0
-179
-222
-196
-179
-158
-131
-96
-73
-62
-56
-54
-52
-46
-44
-44
-38
-33
-31
-30
-24
-17
-16
-18
-15
-14
-12
-9
3
7
13
22
28
31
37
43
49
52
53
53
53
53
53
52
50
46
41
33
30
17
11
12
11
1
-5
-11
-11
-19
-26
-29
-31
-31
-33
-35
-31
-28
-32
-27
-14
-11
-9
-4
-7
-11
-9
-13
-18
-19
-17
-18
-23
-22
-23
-29
-37
-37
-36
-38
-43
-50
-56
-54
-54
-54
-54
-51
-48
-51
-53
-54
-52
-49
-49
-47
-46
-37
-16
25
77
118
180
250
253
223
153
12
-188
-231
-195
-172
-149
-118
-93
-75
-58
-53
-51
-49
-42
-39
-41
-44
-39
-36
-33
-23
-18
-21
-23
-17
-13
-8
-2
0
10
28
28
26
34
39
39
41
42
48
51
52
54
58
58
55
50
44
38
33
31
25
18
12
8
4
-3
-16
-21
-22
-25
-27
-26
-26
-31
-23
-21
-23
-23
-16
-9
-8
-8
-3
2
3
-2
-7
-12
-16
-13
-13
-16
-17
-17
-17
-27
-34
-33
-37
-47
-49
-47
-49
-50
-48
-48
-48
-49
-50
-49
-52
-53
-54
-50
-44
-40
-40
-27
7
52
99
152
171
262
242
189
95
-70
-209
-207
-186
-168
-136
-107
-91
-80
-67
-57
-49
-48
-46
-42
-42
-44
-36
-31
-31
-31
-25
-19
-19
-19
-16
-10
0
6
8
12
16
25
35
39
42
47
50
52
55
57
54
50
49
50
50
46
38
26
14
9
6
2
0
-1
-9
-13
-20
-23
-18
-24
-37
-38
-34
-32
-35
-38
-37
-29
-17
-12
0
-1
-1
-6
-11
-15
-19
-20
-19
-18
-21
-22
-25
-28
-37
-44
-44
-41
-45
-49
-52
-53
-54
-54
-53
-49
-52
-54
-54
-52
-53
-54
-56
-55
-52
-45
-28
5
53
105
164
224
254
228
173
76
-83
-217
-208
-199
-179
-152
-121
-99
-81
-67
-58
-48
-43
-42
-39
-37
-39
-34
-31
-34
-37
-34
-31
-27
-20
-10
-3
0
0
1
10
15
22
27
33
39
43
44
46
53
55
54
53
54
53
45
41
35
24
17
11
3
-1
-3
-15
-18
-24
-28
-33
-34
-32
-30
-36
-37
-35
-33
-29
-23
-14
-9
-11
-9
-5
-3
-10
-16
-19
-17
-16
-18
-19
-18
-23
-26
-27
-31
-40
-48
-50
-52
-51
-48
-49
-53
-53
-49
-48
-44
-40
-41
-54
-62
-52
-49
-46
-33
-7
36
92
148
199
235
240
203
138
24
-142
-209
-194
-186
-166
-136
-107
-87
-73
-66
-62
-49
-44
-40
-42
-44
-52
-48
-40
-34
-28
-25
-26
-26
-22
-14
-8
-3
2
7
15
23
28
34
37
38
48
52
55
39
36
38
37
38
39
33
29
23
19
11
2
-1
-4
-12
-24
-30
-31
-29
-32
-38
-39
-38
-39
-34
-28
-23
-26
-28
-25
-22
-22
-19
-17
-18
-21
-18
-18
-19
-21
-22
-22
-23
-23
-33
-37
-38
-43
-44
-44
-45
-44
-48
-54
-54
-55
-53
-51
-48
-48
-49
-51
-52
-49
-48
-40
-15
26
78
134
193
250
260
253
153
43
-126
-211
-194
-184
-167
-134
-99
-81
-66
-51
-44
-42
-43
-48
-46
-43
-39
-30
-22
-18
-22
-22
-19
-11
-9
-1
2
2
8
19
32
37
40
43
48
52
62
68
73
75
70
66
63
62
62
58
44
40
36
23
10
7
2
-4
-8
-14
-20
-21
-19
-22
-26
-21
-18
-23
-26
-23
-9
-2
-11
-17
-11
-7
-6
-3
-1
-6
-12
-14
-13
-14
-15
-12
-2
-5
-31
-42
-42
-39
-39
-44
-43
-36
-32
-36
-49
-52
-42
-39
-39
-34
-44
-56
-55
-53
-48
-31
2
54
107
159
221
263
244
199
106
-48
-201
-217
-194
-173
-147
-115
-106
-66
-51
-45
-44
-43
-38
-44
-42
-34
-25
-26
-29
-25
-21
-30
-29
-13
-2
0
1
7
14
21
28
31
45
53
57
56
56
62
65
65
64
64
63
58
56
56
42
29
21
14
8
2
-4
-6
-8
-10
-12
-27
-33
-36
-37
-39
-38
-36
-33
-30
-26
-24
-21
-16
-7
-2
-1
-1
-2
-8
-12
-13
-20
-23
-23
-24
-24
-28
-33
-36
-38
-41
-48
-53
-53
-52
-52
-52
-52
-54
-56
-55
-56
-54
-52
-50
-52
-54
-48
-44
-43
-9
33
79
131
201
258
257
216
140
-16
-205
-232
-198
-178
-149
-118
-96
-79
-66
-51
-36
-35
-48
-51
-49
-49
-40
-37
-33
-33
-33
-28
-20
-13
1
6
2
18
22
15
27
32
38
53
75
89
76
80
62
52
83
82
52
44
37
30
33
34
22
16
10
6
4
-1
-5
-11
-14
-18
-23
-28
-34
-37
-36
-36
-36
-28
-25
-17
-9
-4
0
3
-3
-6
-2
-3
-3
-5
-6
-4
-12
-6
5
-3
-34
-41
-30
-28
-34
-38
-60
-61
-57
-54
-54
-47
-39
-42
-54
-62
-58
-55
-54
-50
-52
-50
-48
-38
-20
8
47
81
131
206
232
237
181
78
-101
-232
-213
-192
-176
-138
-109
-93
-72
-63
-55
-50
-49
-45
-46
-49
-50
-44
-35
-32
-34
-33
-30
-25
-18
-13
-8
-1
7
15
21
20
20
25
32
37
42
49
52
53
55
53
55
55
52
46
43
40
37
22
6
1
0
-4
-6
-6
-10
-16
-20
-29
-38
-36
-36
-41
-41
-28
-25
-32
-28
-21
-18
-19
-15
-8
-1
0
-2
-5
-6
-11
-16
-19
-22
-29
-34
-32
-36
-43
-46
-49
-49
-53
-55
-58
-54
-51
-52
-57
-59
-55
-56
-58
-54
-53
-56
-58
-56
-54
-54
-47
-19
24
73
125
187
249
268
231
161
29
-163
-216
-201
-188
-170
-138
-111
-82
-64
-44
-36
-56
-61
-52
-48
-37
-29
-31
-40
-47
-43
-33
-27
-17
-8
-3
-4
-10
-1
2
9
26
41
39
34
48
57
62
65
63
63
53
44
39
44
47
43
36
28
21
12
9
1
-2
-8
-15
-22
-25
-26
-23
-21
-30
-36
-33
-25
-22
-20
-12
-3
-1
-2
-7
-4
-1
0
0
0
-4
-6
-7
-6
-9
-12
-14
-24
-27
-25
-35
-45
-52
-54
-49
-49
-51
-43
-41
-52
-60
-56
-50
-46
-45
-54
-53
-50
-48
-39
-26
3
48
87
139
195
245
238
187
107
-16
-176
-210
-191
-187
-162
-119
-89
-88
-89
-69
-58
-52
-39
-33
-44
-44
-39
-39
-37
-32
-21
-13
-19
-27
-23
-20
-14
-4
1
5
12
21
27
28
36
38
40
44
48
49
49
48
48
45
40
36
30
26
19
6
-3
-7
-9
-15
-21
-22
-27
-34
-37
-38
-39
-40
-38
-37
-37
-32
-33
-27
-19
-14
-10
-5
-8
-13
-16
-19
-21
-18
-14
-18
-24
-28
-28
-28
-40
-40
-39
-46
-50
-51
-53
-50
-52
-52
-53
-58
-60
-57
-53
-54
-56
-58
-57
-57
-53
-43
-16
24
38
126
186
239
245
208
135
21
-150
-220
-195
-182
-162
-137
-112
-85
-72
-65
-58
-54
-47
-45
-47
-47
-42
-39
-29
-30
-31
-30
-23
-18
-13
-8
-4
-1
3
12
18
24
31
37
37
44
57
59
57
58
54
47
45
49
49
45
39
30
22
13
8
5
4
-1
-14
-24
-24
-19
-18
-20
-27
-25
-25
-26
-22
-27
-25
-22
-12
-10
-3
0
0
-5
-12
-17
-18
-13
-17
-21
-19
-22
-23
-27
-28
-31
-40
-44
-45
-48
-45
-47
-49
-47
-48
-48
-45
-43
-46
-52
-54
-56
-55
-48
-39
-11
32
78
120
178
246
243
203
134
11
-168
-222
-217
-175
-154
-127
-104
-84
-69
-54
-48
-45
-43
-46
-43
-37
-40
-41
-32
-28
-28
-25
-18
-16
-11
-6
-3
-1
4
11
24
31
38
45
49
55
57
59
56
52
51
59
63
62
50
40
36
29
17
10
8
0
-3
-10
-15
-17
-21
-27
-32
-32
-29
-30
-35
-35
-32
-29
-18
-11
-6
-3
-2
-5
-11
-16
-21
-21
-19
-18
-21
-26
-27
-31
-36
-38
-44
-48
-48
-49
-52
-49
-50
-54
-53
-54
-54
-53
-53
-54
-54
-52
-54
-55
-54
-52
-34
-6
34
84
135
207
258
249
204
121
-47
-223
-230
-194
-177
-142
-98
-77
-73
-68
-57
-50
-46
-44
-40
-50
-53
-40
-34
-35
-26
-28
-33
-32
-24
-17
-10
-2
2
7
9
17
28
35
37
39
44
49
50
53
53
55
54
50
48
45
42
35
22
17
20
12
2
1
-4
-15
-21
-25
-27
-31
-35
-36
-35
-33
-28
-28
-24
-20
-11
-4
-1
-1
-2
-3
-6
-9
-15
-19
-15
-18
-27
-29
-26
-26
-33
-42
-47
-49
-50
-53
-53
-49
-49
-52
-56
-57
-55
-53
-48
-52
-53
-53
-50
-51
-57
-42
-7
37
77
122
189
254
247
237
124
-31
-202
-219
-195
-178
-149
-113
-87
-76
-64
-59
-58
-54
-51
-48
-50
-44
-38
-43
-40
-35
-32
-25
-22
-10
-3
-2
-6
-9
-3
2
12
26
32
37
41
46
50
57
59
60
62
60
55
49
46
47
40
36
29
22
11
3
-2
-5
-11
-17
-22
-26
-27
-28
-31
-29
-29
-26
-28
-30
-26
-20
-16
-5
-1
-4
-6
-10
-15
-18
-20
-22
-21
-23
-26
-26
-26
-32
-44
-47
-50
-49
-50
-54
-51
-50
-52
-53
-57
-59
-57
-55
-55
-55
-53
-54
-57
-58
-55
-42
-10
38
90
149
214
263
252
202
110
-42
-194
-202
-186
-178
-152
-126
-119
-86
-71
-61
-56
-55
-47
-31
-25
-37
-47
-50
-43
-42
-33
-22
-28
-31
-18
-9
-4
1
14
23
16
12
16
28
36
37
45
58
57
42
35
39
40
40
35
36
35
21
14
12
10
13
10
-4
-17
-23
-24
-26
-25
-34
-39
-34
-39
-33
-19
-18
-22
-19
-18
-16
-11
-8
-8
-12
-18
-21
-18
-16
-13
-19
-21
-23
-26
-32
-40
-36
-38
-49
-48
-44
-35
-30
-40
-51
-65
-69
-66
-60
-60
-63
-62
-56
-51
-41
-20
22
39
128
188
238
251
211
137
29
-134
-208
-187
-182
-172
-142
-115
-99
-86
-71
-59
-57
-54
-44
-45
-53
-52
-49
-36
-38
-39
-33
-26
-17
-17
-18
-15
-10
-8
-5
1
10
20
22
25
30
33
38
42
39
40
41
39
37
35
25
19
19
19
12
0
-8
-11
-15
-22
-28
-28
-31
-39
-38
-32
-37
-40
-39
-34
-28
-20
-18
-20
-13
-18
-22
-21
-22
-26
-29
-29
-27
-27
-31
-28
-30
-38
-39
-44
-48
-49
-52
-54
-53
-52
-54
-55
-59
-55
-53
-53
-55
-57
-55
-54
-53
-48
-32
2
52
103
160
219
252
236
180
89
-57
-198
-208
-194
-192
-153
-122
-100
-79
-66
-60
-55
-53
-48
-42
-43
-42
-37
-37
-31
-26
-19
-22
-18
-7
-7
-5
-2
4
6
9
16
21
29
39
43
45
55
56
57
54
52
53
54
57
49
38
34
29
23
13
7
4
-2
-4
-12
-18
-21
-20
-22
-25
-27
-25
-24
-21
-17
-17
-12
-9
-5
1
0
-2
-5
-13
-16
-10
-11
-9
-6
-10
-12
-13
-19
-34
-39
-33
-32
-36
-40
-38
-44
-55
-62
-60
-55
-56
-53
-48
-47
-45
-47
-45
-32
-26
45
94
140
200
250
241
205
134
7
-172
-227
-197
-175
-148
-120
-101
-82
-63
-59
-57
-55
-49
-43
-40
-39
-38
-34
-31
-32
-27
-23
-22
-17
-15
-10
-2
3
11
18
25
32
40
43
48
45
45
49
49
55
57
54
53
48
44
40
34
28
20
14
11
3
-5
-8
-12
-19
-26
-30
-32
-31
-32
-33
-28
-29
-29
-29
-19
-12
-11
-7
-4
-7
-14
-20
-21
-23
-23
-26
-28
-26
-21
-24
-34
-38
-42
-44
-47
-46
-45
-47
-47
-48
-53
-55
-54
-57
-55
-55
-55
-54
-54
-49
-46
-34
-11
29
79
121
183
247
255
225
149
9
-191
-239
-200
-182
-153
-119
-92
-73
-60
-54
-53
-46
-41
-48
-42
-33
-36
-39
-38
-39
-32
-23
-22
-15
-9
-5
-3
-2
2
10
23
28
30
37
42
48
54
54
61
64
63
58
52
45
37
33
29
21
11
9
7
4
0
-1
-7
-17
-23
-25
-31
-35
-33
-27
-26
-28
-31
-24
-10
-11
-6
-3
-2
0
0
1
-9
-18
-19
-19
-21
-24
-27
-26
-28
-34
-38
-38
-40
-43
-43
-37
-45
-57
-64
-57
-49
-47
-44
-53
-59
-53
-54
-57
-47
-51
-45
-22
19
71
108
153
219
243
217
151
43
-143
-232
-204
-185
-167
-131
-101
-86
-72
-60
-54
-53
-45
-49
-52
-53
-53
-41
-28
-25
-25
-19
-23
-22
-16
-13
-12
-12
-3
10
20
23
29
35
40
46
48
53
59
62
63
62
55
49
50
51
41
34
34
26
17
9
4
1
-8
-17
-19
-20
-27
-32
-33
-34
-36
-34
-31
-31
-29
-25
-18
-15
-12
-8
-9
-6
-10
-11
-20
-26
-26
-24
-24
-28
-29
-25
-23
-30
-33
-50
-53
-54
-53
-49
-55
-57
-58
-54
-53
-57
-59
-58
-58
-56
-53
-55
-54
-52
-41
-11
38
87
141
160
256
251
197
111
-24
-186
-211
-185
-182
-165
-134
-112
-92
-73
-60
-54
-52
-52
-51
-45
-44
-42
-38
-38
-37
-31
-28
-24
-19
-2
6
0
-8
0
20
24
17
21
29
36
48
57
54
46
43
43
44
44
47
48
36
30
23
16
11
8
2
-2
-5
-8
-13
-18
-25
-32
-37
-33
-26
-19
-22
-30
-32
-22
-13
-6
-4
-8
-8
-4
-5
-8
-12
-12
-13
-13
-14
-15
-14
-17
-29
-37
-29
-39
-53
-48
-41
-42
-43
-44
-54
-58
-52
-41
-44
-47
-55
-60
-55
-46
-39
-20
17
65
115
171
223
253
214
145
51
-91
-201
-188
-175
-171
-167
-119
-102
-86
-63
-47
-43
-48
-51
-43
-43
-48
-38
-30
-30
-41
-44
-34
-25
-19
-14
-9
-7
-6
-2
0
10
18
26
38
43
46
50
50
45
40
43
43
38
32
28
29
25
15
9
3
0
-5
-11
-17
-18
-17
-21
-29
-37
-36
-35
-38
-45
-45
-34
-27
-23
-23
-18
-6
-1
-11
-25
-27
-26
-28
-25
-19
-24
-26
-26
-35
-40
-39
-37
-38
-47
-55
-58
-54
-53
-50
-55
-57
-57
-54
-52
-53
-53
-57
-58
-53
-42
-16
-6
75
129
187
244
254
213
142
27
-149
-218
-197
-184
-169
-139
-108
-88
-78
-68
-58
-51
-49
-49
-45
-42
-40
-39
-38
-33
-27
-23
-24
-24
-16
-7
-3
-2
5
17
26
29
27
38
48
56
62
59
51
55
59
58
52
49
49
49
39
26
14
11
7
2
0
-4
-16
-23
-24
-26
-27
-28
-30
-27
-22
-22
-19
-13
-9
-5
-1
-3
-11
-12
-2
12
-6
-22
-19
-16
-24
-24
-18
-23
-29
-33
-35
-35
-39
-44
-45
-45
-44
-45
-39
-37
-42
-49
-53
-53
-54
-46
-41
-43
-36
-26
-6
33
81
136
198
255
248
195
108
-28
-190
-214
-206
-174
-152
-125
-100
-78
-67
-59
-52
-49
-43
-40
-39
-42
-43
-41
-36
-19
-12
-20
-28
-25
-12
-2
0
0
2
7
24
37
40
41
44
48
52
55
56
60
60
54
54
57
53
43
33
28
21
13
8
4
1
-8
-10
-20
-31
-32
-26
-24
-31
-33
-25
-26
-31
-30
-25
-16
-11
-8
-4
-4
-10
-19
-20
-17
-9
-6
-22
-28
-27
-27
-34
-41
-43
-46
-47
-45
-51
-55
-58
-58
-56
-53
-50
-52
-48
-48
-50
-53
-57
-55
-55
-44
-17
28
76
118
184
253
250
216
146
11
-182
-230
-199
-181
-151
-113
-96
-80
-57
-49
-47
-49
-49
-49
-40
-42
-40
-37
-36
-31
-26
-21
-19
-14
-3
-1
-5
1
9
14
25
30
31
33
48
50
49
59
62
58
50
49
51
49
45
33
27
26
29
18
6
5
-1
-7
-8
-10
-16
-25
-28
-29
-30
-29
-25
-23
-19
-13
-16
-14
-4
-4
-8
-7
-5
-5
-8
-13
-14
-11
-2
-1
-18
-33
-34
-33
-36
-32
-37
-43
-44
-44
-40
-41
-48
-51
-46
-47
-48
-45
-43
-48
-54
-53
-45
-45
-43
-9
36
79
124
186
252
249
196
177
-16
-199
-228
-198
-177
-148
-117
-91
-69
-59
-55
-53
-54
-48
-44
-38
-34
-37
-34
-29
-27
-27
-29
-25
-22
-6
-11
-13
-2
5
15
23
27
31
34
36
41
50
54
56
58
58
63
61
55
55
51
40
32
31
19
8
3
0
-3
-5
-9
-21
-28
-31
-31
-34
-29
-27
-27
-23
-23
-25
-24
-11
-1
-6
-12
-8
-6
-14
-17
-21
-23
-19
-21
-27
-28
-23
-26
-36
-43
-46
-48
-48
-52
-55
-50
-52
-54
-54
-54
-53
-54
-55
-60
-58
-55
-51
-52
-47
-31
7
55
108
166
227
260
234
172
77
-94
-219
-203
-189
-176
-145
-117
-98
-91
-66
-61
-51
-45
-47
-45
-47
-43
-37
-33
-33
-35
-30
-26
-21
-14
-6
1
8
4
2
13
24
33
34
37
48
53
55
50
51
54
56
50
48
48
45
45
43
31
16
10
4
0
-2
-11
-20
-21
-22
-23
-27
-29
-23
-26
-29
-28
-26
-19
-15
-13
-8
-3
-1
-4
-5
-9
-11
-12
-14
-14
-12
-15
-17
-21
-23
-27
-30
-37
-40
-48
-55
-50
-46
-45
-47
-51
-52
-50
-45
-47
-54
-57
-55
-49
-45
-29
4
53
108
124
213
255
236
180
93
-44
-191
-198
-178
-181
-166
-131
-106
-85
-71
-57
-52
-50
-46
-43
-42
-41
-34
-30
-32
-25
-22
-27
-32
-24
-10
-6
-7
-8
0
11
23
28
32
40
45
42
39
40
43
47
51
49
41
38
37
29
25
19
14
10
3
-5
-8
-10
-20
-28
-28
-27
-29
-32
-30
-27
-29
-35
-33
-24
-23
-23
-22
-11
-10
-17
-21
-22
-24
-26
-23
-23
-22
-20
-19
-29
-38
-39
-37
-41
-44
-49
-59
-57
-54
-54
-53
-53
-58
-55
-55
-58
-51
-45
-49
-54
-53
-31
6
55
108
165
222
259
233
171
68
-92
-210
-207
-195
-175
-166
-119
-98
-80
-65
-59
-54
-52
-50
-43
-39
-39
-39
-35
-28
-27
-27
-20
-17
-16
-10
-2
0
2
11
14
22
33
40
43
44
55
69
73
63
55
53
58
61
49
41
37
30
28
29
15
0
-4
0
-6
-11
-26
-27
-24
-24
-23
-27
-34
-31
-22
-11
-8
-17
-11
0
-2
-7
-4
-2
-5
-10
-6
-6
-17
-16
-14
-10
-20
-33
-33
-29
-35
-47
-48
-43
-45
-46
-48
-52
-50
-49
-49
-48
-44
-43
-47
-45
-38
-30
-5
6
89
141
201
253
245
197
119
-12
-185
-215
-186
-171
-156
-124
-97
-74
-60
-57
-59
-55
-49
-43
-38
-37
-39
-32
-25
-26
-27
-25
-14
-3
-2
-5
-4
4
13
19
24
31
33
40
52
59
63
55
61
69
64
62
52
54
51
45
39
29
18
14
10
4
0
-5
-14
-19
-22
-18
-20
-30
-33
-30
-23
-26
-34
-24
-19
-11
-5
-2
-2
-7
-8
-9
-13
-15
-17
-18
-21
-22
-18
-23
-37
-40
-43
-44
-46
-49
-45
-42
-51
-55
-56
-54
-59
-54
-49
-55
-55
-53
-51
-49
-50
-42
-19
19
67
106
161
237
257
231
179
66
-137
-235
-237
-178
-161
-134
-105
-77
-61
-54
-48
-47
-46
-44
-40
-39
-38
-36
-37
-34
-27
-23
-20
-17
-13
-7
0
1
10
18
24
30
38
50
64
60
54
52
58
59
59
59
57
63
63
49
34
28
30
19
13
13
12
-8
-7
-8
-15
-25
-29
-24
-25
-24
-22
-18
-10
-27
-34
-23
-11
-10
-13
-5
-2
-3
-2
-3
-8
-7
-15
-21
-21
-25
-27
-27
-34
-39
-40
-44
-46
-44
-45
-47
-48
-48
-47
-48
-49
-49
-47
-47
-44
-41
-43
-57
-49
-33
-5
37
79
133
200
255
237
184
98
-52
-216
-224
-187
-170
-148
-124
-99
-78
-62
-54
-54
-53
-46
-38
-40
-46
-40
-39
-40
-31
-20
-15
-22
-21
-9
-1
4
11
17
18
18
25
26
31
43
49
50
61
74
66
56
52
52
50
45
46
37
28
27
21
10
3
0
-4
-6
-9
-16
-17
-12
-22
-35
-37
-32
-37
-32
-24
-23
-23
-19
-8
-2
-2
-1
0
-3
-6
-9
-16
-21
-18
-14
-20
-22
-22
-29
-40
-44
-49
-48
-50
-48
-47
-51
-52
-54
-58
-60
-56
-59
-61
-58
-54
-48
-47
-51
-51
-35
-1
45
91
140
157
252
245
197
108
-37
-199
-221
-196
-181
-154
-125
-101
-80
-65
-61
-54
-47
-44
-47
-45
-42
-37
-33
-31
-29
-13
-16
-18
-17
-17
-13
-8
2
13
20
26
31
35
42
45
48
54
66
68
70
63
59
62
60
57
42
37
38
30
16
8
9
7
-3
-7
-14
-23
-24
-21
-23
-28
-32
-29
-28
-24
-18
-14
-18
-18
-14
0
0
-1
-3
-3
-2
-8
-15
-15
-13
-17
-15
-12
-14
-16
-28
-39
-46
-49
-46
-42
-46
-49
-38
-34
-41
-55
-57
-51
-50
-45
-40
-42
-37
-32
-14
28
76
126
185
242
256
220
144
25
-141
-210
-195
-186
-182
-136
-112
-98
-83
-69
-56
-47
-46
-40
-38
-38
-36
-36
-39
-35
-27
-26
-27
-20
-14
-9
-5
0
6
9
20
25
33
41
41
35
38
48
49
50
52
49
48
45
41
37
36
27
17
9
-1
-2
0
-10
-14
-24
-27
-28
-34
-40
-39
-31
-30
-31
-29
-28
-25
-18
-17
-11
-6
-8
-15
-22
-25
-26
-20
-16
-19
-21
-25
-28
-32
-37
-38
-44
-49
-48
-51
-50
-49
-54
-57
-58
-58
-58
-51
-48
-54
-58
-58
-54
-54
-51
-48
13
64
113
171
226
247
221
159
62
-99
-219
-207
-193
-180
-151
-121
-98
-79
-66
-58
-53
-50
-52
-47
-45
-40
-39
-34
-30
-26
-24
-27
-22
-15
-5
-2
-3
1
3
10
22
26
31
39
44
48
55
63
62
60
57
51
53
57
54
43
28
25
27
15
0
-8
-13
-16
-13
-13
-20
-27
-29
-23
-25
-29
-21
-21
-23
-21
-12
-4
-1
1
0
-8
-9
-3
-4
-7
-2
-6
-18
-19
-17
-23
-27
-31
-31
-36
-42
-43
-42
-42
-47
-44
-39
-34
-38
-50
-48
-50
-50
-37
-32
-37
-31
-8
27
74
126
183
248
258
208
137
31
-140
-195
-196
-178
-164
-135
-102
-78
-65
-59
-54
-45
-40
-40
-43
-39
-33
-32
-36
-28
-21
-14
-6
-5
-4
1
2
4
8
12
17
25
34
39
50
56
55
58
62
62
53
53
57
60
58
52
37
27
27
21
9
6
-7
-9
-14
-18
-19
-17
-21
-27
-31
-29
-28
-28
-24
-19
-15
-12
-11
-12
-6
-4
-6
-5
-12
-16
-17
-15
-22
-24
-23
-23
-28
-29
-30
-31
-40
-52
-53
-50
-52
-52
-57
-59
-56
-54
-57
-59
-58
-54
-52
-52
-48
-48
-41
-13
34
82
128
189
252
254
218
147
8
-183
-228
-199
-179
-157
-124
-97
-79
-61
-49
-46
-44
-45
-49
-48
-41
-36
-32
-33
-28
-24
-23
-19
-10
-2
2
-1
0
9
16
27
30
37
46
53
54
54
65
72
70
63
60
61
55
49
48
47
39
25
14
9
6
0
-3
-11
-16
-10
-14
-32
-36
-26
-23
-23
-27
-29
-24
-18
-13
-2
2
0
-3
-3
-4
-10
-13
-12
-18
-22
-23
-21
-21
-24
-30
-32
-32
-34
-47
-40
-48
-56
-49
-46
-53
-61
-58
-48
-45
-45
-49
-52
-55
-53
-47
-41
-24
2
46
88
145
220
243
235
176
71
-106
-240
-227
-200
-173
-137
-107
-86
-73
-68
-57
-47
-44
-40
-38
-36
-37
-44
-43
-36
-33
-34
-28
-22
-21
-18
-10
-5
-2
2
13
28
29
24
26
36
41
42
47
53
53
49
46
38
36
39
40
22
15
17
6
-6
-6
-6
-11
-13
-15
-22
-30
-33
-31
-35
-39
-37
-27
-22
-27
-25
-17
-14
-7
-3
-3
-4
-8
-12
-13
-16
-19
-18
-17
-21
-27
-32
-26
-29
-41
-45
-51
-54
-50
-51
-54
-58
-55
-57
-58
-55
-54
-51
-56
-55
-54
-52
-53
-54
-48
-21
20
68
111
169
241
260
230
160
40
-155
-230
-198
-182
-178
-123
-107
-94
-72
-59
-54
-48
-48
-46
-44
-40
-39
-42
-38
-27
-26
-29
-20
-13
-6
0
0
4
11
14
25
27
38
43
48
53
53
55
59
64
75
79
68
53
49
43
36
34
26
18
13
12
7
-3
-6
-11
-18
-23
-22
-18
-27
-36
-30
-22
-18
-12
-14
-22
-25
-12
0
2
2
3
-2
-9
-13
-14
-17
-18
-12
-18
-21
-20
-28
-36
-42
-47
-51
-51
-45
-40
-42
-49
-55
-50
-44
-49
-55
-50
-43
-49
-50
-44
-43
-52
-39
1
49
103
161
218
256
240
185
95
-47
-197
-209
-193
-187
-161
-127
-105
-82
-62
-52
-45
-43
-42
-45
-44
-39
-30
-25
-36
-38
-26
-22
-18
-17
-17
-20
-17
-1
16
19
17
19
28
34
37
44
54
57
47
48
53
49
43
44
43
37
33
22
17
8
2
-3
-6
-9
-21
-25
-20
-29
-34
-44
-44
-37
-34
-29
-28
-24
-23
-21
-20
-18
-15
-13
-11
-11
-19
-22
-21
-18
-19
-29
-32
-29
-35
-45
-46
-43
-47
-50
-55
-51
-54
-57
-62
-64
-60
-63
-64
-63
-63
-59
-63
-62
-60
-55
-44
-14
34
86
141
197
242
230
219
96
-27
-186
-218
-195
-185
-172
-143
-117
-96
-76
-65
-63
-59
-54
-50
-47
-44
-44
-45
-41
-32
-31
-37
-36
-23
-23
-19
-4
7
7
-2
4
18
36
43
39
37
45
53
55
51
40
41
50
54
42
28
27
27
15
10
3
-4
-8
-10
-13
-14
-14
-33
-47
-43
-31
-24
-23
-31
-35
-22
-10
-11
-17
-12
-11
-8
-4
-8
-5
-11
-14
-8
-14
-18
-15
-27
-31
-29
-40
-47
-45
-47
-45
-48
-50
-48
-46
-45
-43
-43
-44
-45
-47
-46
-49
-49
-46
-26
6
50
101
160
220
257
243
188
93
-44
-188
-203
-195
-184
-154
-121
-97
-84
-80
-58
-45
-39
-38
-39
-39
-36
-29
-27
-33
-32
-25
-11
-7
-18
-18
-6
-1
4
15
27
32
28
30
32
52
54
58
60
62
62
55
50
46
44
41
40
38
26
18
13
4
-1
-7
-12
-16
-18
-22
-23
-22
-21
-27
-29
-29
-27
-26
-24
-16
-13
-12
-7
-3
-3
-8
-8
-9
-12
-15
-18
-21
-19
-25
-33
-36
-38
-42
-40
-39
-40
-34
-40
-57
-63
-58
-54
-53
-54
-57
-57
-51
-54
-55
-53
-51
-35
-5
44
96
142
157
253
249
202
113
-43
-205
-221
-199
-177
-145
-110
-88
-75
-63
-55
-54
-53
-49
-48
-43
-39
-34
-24
-24
-26
-22
-19
-15
-9
-11
-2
9
11
17
26
27
33
44
53
51
62
72
59
48
72
83
62
45
54
58
47
21
29
37
26
19
6
-12
-26
-28
-20
-6
-7
-17
-17
-19
-44
-44
-25
-30
-33
-22
-13
-4
-1
0
0
-7
-11
-13
-18
-19
-10
-12
-21
-22
-21
-19
-21
-29
-40
-59
-65
-51
-43
-37
-42
-58
-64
-63
-54
-53
-56
-50
-52
-46
-39
-48
-53
-40
-6
49
90
119
192
259
246
202
116
-54
-221
-216
-187
-178
-175
-119
-92
-77
-62
-57
-59
-53
-39
-36
-37
-36
-40
-38
-36
-37
-32
-23
-19
-14
-9
-10
-16
-8
2
4
20
26
29
35
37
38
49
53
52
53
42
31
37
38
36
34
25
20
17
5
-3
-5
-4
-9
-11
-14
-24
-35
-39
-38
-37
-32
-24
-19
-19
-20
-24
-27
-17
-8
-1
2
1
-6
-13
-20
-24
-26
-28
-29
-24
-19
-16
-31
-38
-38
-39
-43
-47
-51
-57
-62
-62
-55
-57
-60
-60
-58
-58
-55
-54
-54
-55
-54
-55
-46
-19
21
61
99
158
235
257
232
161
21
-181
-241
-204
-181
-159
-126
-92
-70
-63
-63
-65
-54
-49
-48
-48
-41
-34
-28
-23
-29
-36
-25
-7
0
-7
-5
-1
-2
1
11
25
38
40
42
48
50
48
69
79
77
62
59
61
53
47
43
44
39
29
22
24
19
5
-6
-7
-4
-8
-11
-19
-30
-35
-31
-31
-31
-26
-23
-22
-17
-16
-11
-4
-1
0
0
-2
-6
-10
-12
-15
-16
-14
-14
-17
-22
-27
-24
-23
-36
-40
-40
-46
-54
-49
-39
-50
-60
-59
-58
-55
-50
-50
-55
-58
-57
-52
-47
-29
11
57
103
158
218
258
262
178
82
-80
-210
-201
-188
-182
-152
-122
-92
-59
-48
-60
-62
-58
-57
-54
-50
-41
-34
-32
-29
-31
-32
-31
-18
-14
-12
-5
-6
-6
0
2
13
24
32
36
36
37
44
50
50
52
52
50
48
43
39
36
33
16
9
6
2
-1
-9
-19
-22
-23
-23
-20
-24
-32
-40
-38
-32
-31
-29
-31
-29
-22
-17
-11
-13
-16
-17
-13
-14
-17
-17
-18
-19
-26
-29
-23
-25
-38
-46
-47
-49
-49
-52
-56
-55
-54
-53
-56
-57
-56
-54
-50
-52
-61
-64
-59
-55
-58
-54
-32
12
59
113
167
220
246
217
154
55
-107
-216
-205
-193
-180
-152
-141
-104
-85
-68
-59
-57
-54
-49
-48
-47
-41
-31
-24
-23
-24
-31
-36
-31
-15
0
-3
-8
-2
14
22
23
18
27
34
39
41
54
64
55
53
51
61
57
40
28
28
27
26
23
4
-5
-1
-1
-9
-19
-22
-17
-34
-35
-29
-31
-31
-27
-27
-30
-25
-17
-11
-5
-2
-6
-11
-13
-13
-17
-14
-2
-4
-14
-13
-12
-22
-22
-22
-14
-15
-41
-60
-49
-44
-55
-56
-51
-40
-38
-49
-53
-49
-54
-53
-48
-49
-43
-31
-5
7
98
142
196
252
250
201
121
-7
-178
-211
-189
-182
-158
-130
-109
-89
-66
-53
-50
-45
-39
-42
-44
-45
-47
-35
-28
-26
-26
-21
-17
-13
-10
-7
-3
5
12
20
27
30
36
40
48
53
54
57
60
60
54
53
52
53
51
45
42
32
18
10
8
10
1
-7
-7
-18
-21
-21
-33
-41
-41
-29
-27
-27
-23
-22
-21
-13
-10
-6
-6
-3
-8
-14
-13
-13
-15
-18
-22
-22
-21
-27
-33
-40
-43
-42
-40
-45
-48
-49
-52
-53
-47
-46
-50
-50
-48
-54
-60
-54
-48
-46
-48
-40
-21
5
50
102
155
219
252
233
183
85
-88
-219
-234
-192
-173
-140
-112
-89
-70
-57
-49
-44
-39
-35
-39
-40
-36
-35
-29
-28
-27
-22
-20
-11
-4
-6
-2
1
32
25
16
26
42
57
55
52
62
75
79
70
64
65
64
55
55
55
51
37
27
31
32
25
22
0
-2
-8
-19
-27
-23
-27
-29
-27
-24
-20
-18
-21
-21
-14
-4
0
1
1
2
1
-2
-8
-8
-6
-11
-25
-20
-20
-26
-25
-28
-38
-42
-39
-41
-43
-45
-47
-41
-47
-52
-53
-47
-44
-44
-50
-53
-52
-50
-45
-43
-25
6
48
85
137
209
256
234
174
79
-90
-229
-215
-188
-167
-134
-108
-86
-71
-65
-64
-70
-68
-44
-44
-47
-41
-39
-35
-29
-28
-23
-18
-14
-8
-10
-9
-6
3
14
21
32
34
32
40
48
49
49
52
48
45
48
52
56
52
39
34
29
19
9
4
1
1
-4
-11
-12
-13
-17
-21
-23
-24
-34
-38
-44
-38
-31
-24
-15
-10
-6
-3
-2
-3
-3
-8
-11
-14
-21
-24
-23
-26
-30
-32
-31
-36
-38
-38
-39
-52
-48
-48
-53
-52
-49
-54
-55
-54
-53
-51
-49
-54
-57
-52
-48
-48
-39
-30
-7
32
74
124
203
232
251
199
99
-89
-234
-222
-194
-171
-141
-112
-89
-71
-58
-54
-50
-44
-44
-41
-39
-31
-22
-25
-26
-23
-26
-32
-23
-19
-9
5
13
14
15
20
29
41
53
60
65
69
64
62
60
65
73
69
63
63
57
55
56
41
34
25
11
3
0
0
-3
-11
-13
-14
-13
-17
-26
-29
-22
-19
-11
-2
-4
-11
-12
-8
-9
-2
1
-1
-1
1
-7
-19
-21
-18
-16
-17
-20
-23
-22
-25
-38
-45
-49
-53
-49
-38
-30
-35
-50
-55
-47
-43
-46
-55
-59
-51
-45
-40
-38
-34
-10
36
88
149
217
270
247
186
95
-49
-190
-195
-183
-180
-176
-132
-104
-80
-67
-61
-51
-42
-33
-33
-49
-47
-40
-39
-37
-29
-27
-25
-22
-16
-14
-14
-8
0
5
8
21
34
36
40
45
43
48
57
55
52
48
47
49
49
40
33
32
22
8
0
-2
-5
-7
-9
-11
-21
-23
-31
-32
-34
-34
-32
-26
-25
-28
-27
-26
-20
-16
-17
-14
-10
-5
1
-7
-22
-23
-21
-24
-26
-28
-28
-31
-40
-45
-50
-54
-53
-52
-50
-52
-52
-49
-55
-63
-63
-57
-57
-60
-61
-55
-56
-57
-49
-45
6
45
98
153
206
247
235
175
87
-60
-204
-210
-195
-184
-158
-125
-99
-79
-72
-70
-61
-51
-48
-46
-47
-51
-46
-42
-38
-31
-24
-19
-15
-10
-11
-18
-10
0
2
8
18
31
39
39
43
50
53
49
52
53
49
56
62
50
39
38
28
14
11
9
-4
-12
-17
-22
-18
-19
-24
-27
-32
-32
-32
-33
-28
-27
-26
-15
-8
-9
-9
0
-3
-12
-15
-16
-13
-11
-13
-11
-19
-19
-22
-29
-33
-37
-43
-49
-52
-49
-46
-45
-44
-44
-45
-44
-50
-51
-42
-41
-48
-56
-62
-61
-43
-9
27
70
126
186
239
251
209
140
34
-139
-192
-195
-186
-182
-153
-117
-90
-75
-64
-55
-48
-45
-52
-51
-42
-38
-36
-33
-30
-29
-28
-28
-28
-23
-11
-7
-1
2
10
23
29
27
34
41
49
57
56
55
59
57
50
40
37
39
37
25
17
14
13
3
-1
-9
-13
-21
-25
-28
-30
-27
-27
-31
-37
-35
-29
-27
-23
-16
-14
-14
-9
-7
-12
-14
-20
-19
-14
-14
-23
-23
-26
-29
-28
-32
-37
-39
-44
-48
-49
-47
-49
-48
-46
-49
-55
-56
-53
-53
-52
-52
-49
-47
-48
-46
-27
12
61
118
180
242
262
237
170
54
-126
-218
-200
-188
-172
-137
-105
-85
-70
-62
-55
-49
-46
-45
-38
-36
-34
-35
-38
-31
-18
-12
-11
-11
-5
-3
-4
2
12
24
34
44
47
48
55
55
52
59
63
69
69
73
74
65
54
49
35
20
19
19
14
8
2
2
-1
-16
-23
-23
-19
-19
-22
-24
-21
-18
-19
-20
-6
-1
-2
1
1
0
-2
-2
-1
-12
-17
-19
-20
-18
-20
-22
-25
-35
-37
-37
-37
-37
-38
-44
-47
-48
-51
-48
-50
-49
-45
-38
-36
-50
-54
-46
-32
-17
9
61
107
149
218
262
241
185
85
47
-221
-208
-186
-170
-136
-105
-81
-69
-66
-58
-54
-52
-50
-47
-44
-39
-38
-35
-25
-19
-19
-15
-12
-13
-14
-5
7
14
15
23
36
43
39
41
48
54
60
60
63
61
60
60
58
48
39
36
31
24
22
21
5
-2
-7
-11
-16
-18
-22
-24
-30
-32
-24
-21
-21
-22
-25
-28
-18
-10
-8
-10
-12
-12
-16
-18
-17
-21
-25
-24
-23
-24
-23
-27
-29
-33
-37
-42
-45
-52
-55
-54
-52
-50
-49
-50
-48
-52
-53
-55
-54
-53
-55
-54
-50
-35
0
49
91
133
203
253
240
194
109
-60
-220
-221
-190
-172
-142
-108
-79
-66
-61
-41
-34
-42
-48
-42
-46
-49
-44
-42
-32
-27
-21
-15
-11
-12
-14
-9
-1
0
2
16
26
29
35
42
48
49
59
67
67
63
52
48
58
55
43
37
28
16
12
12
7
8
-1
-12
-16
-15
-22
-30
-28
-28
-27
-18
-13
-21
-28
-19
-15
-2
15
10
-9
-12
-3
2
0
-15
-26
-15
-13
-26
-24
-22
-26
-31
-29
-28
-40
-39
-44
-48
-44
-44
-48
-48
-45
-41
-47
-49
-51
-58
-55
-53
-49
-46
-35
-8
34
81
129
191
214
251
206
125
-11
-187
-221
-197
-183
-158
-122
-101
-85
-64
-45
-28
-36
-52
-53
-54
-55
-46
-41
-38
-30
-26
-14
-13
-16
-10
-2
1
6
10
20
25
31
39
46
49
55
60
62
64
65
64
55
56
59
52
49
46
43
30
7
-3
-3
0
-2
-10
-20
-25
-28
-33
-33
-25
-22
-32
-33
-27
-27
-27
-21
-13
-5
-2
0
0
1
1
-8
-13
-19
-24
-26
-25
-32
-36
-28
-32
-41
-42
-40
-49
-52
-49
-54
-54
-53
-56
-58
-56
-53
-57
-59
-57
-54
-53
-51
-45
-23
16
68
123
179
235
253
215
147
41
-131
-223
-198
-185
-178
-173
-117
-97
-83
-66
-56
-50
-50
-53
-46
-39
-32
-29
-31
-34
-31
-23
-19
-18
-13
-12
-7
4
9
15
18
30
41
43
40
41
50
55
57
55
55
59
57
51
45
42
40
33
20
14
13
12
4
-2
-15
-18
-21
-30
-33
-29
-28
-25
-12
-17
-28
-26
-22
-16
-5
-1
-2
-8
-6
-5
-8
-10
-12
-12
-13
-13
-13
-12
-17
-24
-30
-34
-36
-43
-42
-40
-43
-48
-48
-40
-22
-22
-54
-60
-49
-50
-60
-56
-44
-35
-10
0
87
141
192
233
239
198
131
26
-141
-206
-182
-175
-164
-141
-115
-93
-71
-51
-48
-47
-55
-57
-47
-44
-45
-44
-37
-28
-27
-27
-25
-21
-19
-7
4
8
4
7
17
21
29
36
36
41
46
50
51
45
49
50
47
45
37
28
26
17
3
-1
-1
0
-3
-9
-12
-20
-32
-32
-31
-33
-34
-32
-32
-34
-32
-30
-28
-18
-17
-16
-10
-14
-18
-19
-21
-21
-19
-20
-24
-27
-23
-26
-34
-43
-43
-41
-46
-48
-48
-50
-54
-55
-50
-52
-54
-54
-50
-51
-57
-58
-59
-52
-44
-29
5
50
105
163
222
258
236
177
78
-83
-212
-203
-195
-176
-148
-120
-98
-78
-65
-59
19
235
399
376
380
393
397
409
417
452
339
110
22
72
-9
5
21
22
29
29
33
41
46
54
63
76
87
80
64
60
65
65
59
55
54
54
35
27
29
30
16
2
0
0
1
-6
-12
-8
-11
-22
-18
-14
-22
-14
0
-1
-6
-11
-4
1
3
-1
-7
-9
-9
-6
-6
-8
-7
-6
-9
-19
-27
-28
-29
-31
-35
-35
-33
-25
-21
-40
-56
-52
-43
-40
-36
-35
-39
-47
-49
-37
-32
-1
43
96
147
205
263
258
207
133
2
-178
-214
-181
-178
-157
-110
-85
-80
-66
-48
-36
-35
-33
-34
-37
-40
-46
-41
-38
-34
-14
1
-4
-13
-11
-9
-6
-2
3
19
37
46
51
57
59
63
57
57
64
65
67
67
62
53
38
35
36
29
17
8
3
-3
-6
-9
-16
-21
-23
-28
-29
-23
-19
-27
-31
-36
-39
-28
-23
-14
-7
-4
-2
0
-3
-15
-24
-26
-24
-20
-17
-26
-34
-33
-32
-40
-44
-47
-49
-47
-50
-52
-56
-59
-57
-55
-52
-49
-54
-60
-58
-57
-57
-60
-58
-51
-30
8
58
101
161
238
263
235
173
49
-2
-229
-199
-186
-165
-127
-102
-83
-68
-59
-54
-56
-58
-50
-47
-45
-36
-31
-33
-33
-33
-37
-30
-21
-18
-17
-4
5
21
31
28
19
13
26
46
60
51
47
51
55
61
65
55
40
37
34
32
28
17
13
13
7
3
-2
-17
-31
-34
-34
-36
-27
-22
-30
-34
-36
-27
-7
-1
-9
7
14
-2
9
6
-16
-19
-17
-27
-41
-40
-30
-25
-14
-9
-24
-38
-39
-42
-48
-41
-32
-47
-55
-56
-53
-43
-51
-68
-69
-59
-39
-28
31
-30
-82
-104
-89
-48
-9
32
58
87
153
231
241
197
127
-5
-192
-228
-193
-181
-165
-132
-103
-79
-72
-64
-64
-67
-64
-54
-50
-49
-41
-35
-39
-37
-29
-32
-28
-17
-3
-1
-3
1
0
1
13
36
55
58
38
38
40
46
47
50
58
63
58
51
46
40
37
32
24
11
2
0
-3
-11
-17
-18
-26
-30
-31
-40
-43
-44
-44
-45
-42
-36
-33
-32
-32
-25
-16
-16
-12
-12
-9
-9
-12
-14
-20
-24
-30
-28
-31
-33
-32
-33
-36
-38
-40
-48
-58
-62
-60
-60
-54
-51
-56
-62
-64
-60
-58
-58
-58
-58
-58
-59
-55
-44
-38
29
80
130
182
236
238
197
115
-10
-174
-214
-199
-193
-171
-135
-109
-87
-74
-66
-63
-54
-48
-47
-43
-42
-41
-35
-34
-33
-28
-25
-23
-18
-13
-7
-2
0
6
14
17
21
35
43
45
46
50
54
57
56
55
61
55
47
41
37
33
33
30
20
12
13
7
-16
-26
-19
-13
-5
0
-24
-42
-41
-34
-36
-30
-27
-18
-20
-22
-14
-9
-9
-8
-10
-10
-1
7
12
-3
-28
-33
-28
-24
-22
-22
-30
-36
-41
-43
-37
-37
-51
-57
-49
-39
-49
-58
-48
-51
-58
-55
-54
-43
-38
-45
-46
-13
35
82
140
196
241
243
195
115
89
-146
-188
-184
-191
-172
-142
-118
-91
-61
-48
-47
-56
-56
-45
-49
-53
-41
-35
-36
-32
-29
-27
-21
-10
-7
-5
-1
2
3
12
22
26
28
31
38
47
48
49
54
60
57
53
53
46
38
29
30
32
20
16
7
2
-1
-9
-17
-21
-28
-30
-33
-37
-33
-29
-28
-22
-31
-36
-32
-22
-15
-12
-7
-1
0
-5
-7
-17
-12
-9
-13
-16
-13
-19
-25
-32
-42
-47
-45
-46
-40
-39
-43
-47
-47
-54
-59
-51
-44
-45
-52
-55
-55
-57
-47
-39
-24
9
58
112
166
219
247
222
160
59
-100
-218
-204
-193
-179
-147
-121
-100
-80
-67
-62
-47
-40
-47
-50
-39
-32
-34
-31
-23
-21
-19
-23
-23
-12
-11
-8
2
15
22
26
32
40
47
45
44
55
59
66
80
85
73
58
56
53
48
53
50
27
12
6
7
6
-3
-13
-17
-23
-23
-19
-22
-23
-23
-20
-21
-26
-26
-19
-14
-10
-1
6
4
7
13
6
-2
-13
-21
-19
-11
-9
-6
-8
-23
-30
-28
-35
-44
-52
-47
-42
-43
-43
-44
-45
-45
-48
-51
-45
-40
-34
-39
-54
-56
-44
-20
19
68
101
141
157
243
225
162
64
-97
-207
-197
-188
-171
-143
-122
-98
-73
-58
-55
-53
-46
-44
-42
-34
-23
-19
-24
-28
-29
-24
-22
-18
-10
-1
-1
3
8
12
25
37
45
46
48
49
55
63
64
70
73
66
61
62
54
50
36
29
27
24
18
16
7
-4
-10
-13
-15
-19
-27
-34
-36
-37
-36
-34
-33
-25
-24
-27
-19
-10
-6
4
-2
-9
-4
-4
-5
-9
-12
-17
-20
-27
-29
-31
-31
-34
-36
-37
-43
-48
-49
-53
-56
-54
-57
-58
-48
-41
-46
-50
-50
-53
-53
-53
-54
-48
-39
-18
14
57
101
152
221
243
205
135
23
-159
-245
-212
-201
-165
-134
-104
-79
-64
-55
-50
-51
-46
-39
-37
-43
-44
-34
-29
-31
-26
-23
-19
-10
-3
-8
-13
-5
-2
9
18
31
49
50
38
38
47
51
59
63
62
59
54
45
43
48
39
29
32
26
14
7
3
0
-8
-7
-13
-21
-31
-34
-31
-33
-29
-25
-31
-32
-29
-24
-16
-13
-6
-1
0
3
7
8
8
2
0
-10
-16
-16
-15
-17
-24
-33
-39
-37
-21
-26
-48
-52
-48
-55
-63
-60
-53
-51
-53
-50
-52
-57
-51
-47
-54
-58
-57
-49
-39
-21
13
60
99
139
196
229
201
144
49
-122
-217
-211
-203
-178
-143
-111
-87
-72
-68
-48
-45
-52
-55
-51
-42
-40
-39
-33
-28
-24
-22
-22
-23
-17
-12
-6
6
12
12
22
30
36
37
38
51
56
62
63
65
65
62
63
66
61
50
42
37
39
29
17
13
5
-7
-16
-17
-17
-19
-29
-31
-27
-26
-29
-31
-32
-36
-29
-26
-27
-20
-14
-12
-8
-2
-2
-3
1
2
-8
-21
-22
-19
-18
-20
-21
-31
-38
-38
-37
-41
-47
-44
-44
-52
-55
-58
-57
-54
-55
-57
-55
-50
-49
-53
-54
-53
-50
-48
-42
-40
12
56
106
165
220
248
218
145
47
-113
-211
-201
-197
-179
-148
-122
-102
-80
-61
-51
-48
-52
-47
-36
-33
-42
-34
-27
-30
-36
-18
2
1
1
-1
0
1
-1
18
36
39
34
37
32
35
49
53
56
66
68
58
58
74
85
66
45
49
52
57
29
-14
-20
-10
-13
-13
-7
-16
-26
-28
-31
-32
-27
-18
-16
-14
-7
-17
-13
-6
-1
-2
2
7
11
7
-2
-11
-9
-12
-23
-31
-26
-17
-15
-26
-40
-47
-44
-48
-49
-45
-39
-36
-38
-48
-53
-58
-59
-55
-45
-41
-44
-54
-63
-54
-18
40
90
128
179
225
232
197
132
108
-137
-207
-187
-190
-182
-149
-117
-97
-75
-57
-57
-63
-60
-51
-41
-38
-43
-37
-31
-29
-23
-25
-28
-29
-27
-12
-3
1
3
15
18
14
22
33
39
37
41
48
48
48
50
48
48
46
39
39
32
19
12
11
8
1
-10
-21
-28
-28
-28
-34
-38
-35
-33
-38
-38
-33
-28
-23
-21
-18
-16
-13
-8
-2
-1
-3
-3
-14
-16
-21
-26
-24
-27
-31
-30
-30
-29
-33
-40
-47
-52
-54
-53
-49
-54
-57
-55
-55
-54
-54
-57
-57
-54
-54
-55
-47
-31
-4
38
83
132
194
244
235
184
107
-15
-182
-216
-200
-194
-174
-139
-103
-79
-70
-68
-54
-29
-4
-29
-61
-60
-47
-34
-30
-24
-19
-20
-11
-13
-19
-14
-5
5
19
25
26
30
37
43
47
56
59
63
66
64
67
69
63
64
71
55
36
30
23
16
8
2
-2
-13
-17
-17
-17
-22
-31
-34
-30
-20
-17
-14
-8
-12
-13
-4
-1
-1
-3
0
0
-3
-4
-2
-6
-11
-17
-19
-23
-27
-19
-12
-13
-42
-49
-54
-51
-50
-53
-50
-54
-55
-50
-49
-52
-53
-45
-40
-37
-40
-47
-39
-6
36
84
141
199
218
226
183
104
-34
-200
-224
-196
-186
-163
-124
-97
-80
-67
-57
-51
-53
-49
-45
-42
-38
-32
-31
-31
-27
-27
-23
-19
-13
-5
-1
4
11
19
22
22
31
44
49
52
61
70
70
64
63
65
63
58
53
47
45
39
23
11
5
-1
-3
-6
-8
-12
-17
-19
-19
-29
-32
-30
-24
-18
-26
-31
-25
-20
-4
6
-2
-6
-14
-12
-12
-11
-17
-27
-27
-22
-20
-21
-26
-35
-38
-40
-42
-50
-54
-51
-49
-48
-55
-62
-59
-55
-54
-58
-60
-57
-53
-50
-55
-53
-43
-20
14
58
100
146
218
245
216
148
34
-154
-235
-211
-190
-165
-139
-129
-83
-58
-50
-53
-53
-55
-55
-39
-30
-29
-33
-32
-20
-17
-28
-24
-11
-12
-19
-4
4
10
12
20
23
37
41
43
36
35
48
58
65
55
47
53
56
60
50
31
19
22
15
10
12
-3
-13
-9
-10
-13
-28
-35
-39
-35
-28
-21
-18
-22
-22
-19
-18
-8
-1
1
7
8
0
-6
-4
-1
-2
-14
-25
-36
-40
-34
-29
-39
-41
-38
-41
-49
-57
-59
-58
-53
-47
-44
-47
-51
-62
-63
-55
-53
-53
-50
-56
-55
-48
-44
10
60
104
155
227
236
192
123
4
-173
-224
-200
-185
-158
-124
-103
-90
-73
-67
-67
-61
-53
-50
-48
-47
-36
-35
-37
-37
-30
-21
-13
-12
-7
0
0
-4
-1
6
15
23
27
31
44
49
54
59
60
62
62
59
61
53
45
43
40
36
27
12
3
1
-2
-9
-12
-13
-19
-28
-31
-33
-38
-38
-32
-32
-34
-33
-16
-12
-18
-20
-13
-7
-1
5
4
-5
-17
-24
-27
-21
-20
-26
-27
-27
-34
-43
-45
-44
-47
-48
-49
-56
-51
-53
-54
-57
-60
-63
-61
-61
-60
-58
-57
-59
-58
-52
-44
-20
15
56
107
171
233
251
205
186
29
-140
-221
-207
-205
-186
-150
-121
-99
-71
-54
-52
-56
-55
-48
-39
-37
-27
-36
-46
-22
0
-22
-45
-43
-17
-14
1
12
21
23
14
11
17
30
41
47
52
57
60
64
65
65
63
59
53
49
50
43
39
28
30
36
26
-3
-16
-2
-7
-12
-15
-27
-38
-34
-34
-37
-28
-25
-27
-15
-2
9
18
11
-9
-16
0
2
0
1
-12
-17
-21
-23
-26
-31
-27
-29
-47
-54
-51
-53
-43
-39
-45
-48
-50
-51
-55
-55
-52
-42
-51
-65
-69
-59
-36
-5
33
73
124
176
218
225
193
130
30
-139
-215
-193
-187
-171
-143
-117
-99
-94
-67
-59
-54
-47
-48
-51
-45
-38
-36
-38
-38
-35
-30
-27
-25
-14
-10
-7
-2
1
8
15
21
28
31
39
47
48
51
49
47
50
51
48
47
46
42
29
17
12
6
-6
-12
-8
-5
-15
-22
-26
-33
-37
-38
-37
-38
-33
-28
-27
-21
-18
-14
-13
-16
-14
-8
-7
-11
-19
-26
-25
-17
-18
-21
-22
-28
-33
-34
-43
-45
-42
-44
-50
-54
-53
-51
-52
-54
-54
-53
-50
-50
-49
-54
-58
-46
-37
-26
-11
11
48
109
131
233
261
241
146
11
-146
-233
-210
-196
-183
-155
-120
-94
-74
-64
-64
-54
-33
-24
-26
-37
-43
-40
-29
-22
-21
-19
-3
-21
-31
-15
0
2
5
15
22
30
41
44
45
58
64
68
78
74
63
75
71
61
59
49
41
36
24
12
6
6
2
1
2
-10
-22
-24
-26
-23
-17
-16
-14
-12
-15
-10
-2
-3
-8
-9
2
6
2
2
-2
-9
-14
-16
-12
-13
-12
-8
-13
-20
-31
-37
-36
-38
-46
-44
-38
-44
-54
-56
-54
-50
-48
-44
-46
-43
-42
-55
-63
-51
-34
-12
28
78
125
188
253
244
185
106
-9
-177
-225
-200
-186
-182
-130
-101
-81
-70
-58
-53
-57
-49
-45
-43
-39
-39
-38
-33
-28
-19
-14
-13
-10
-13
-12
-2
9
17
18
20
25
32
48
57
56
54
56
57
59
64
67
60
49
40
37
42
35
22
11
3
2
0
-12
-16
-22
-25
-25
-20
-26
-37
-43
-40
-30
-21
-19
-19
-22
-18
-11
-9
-4
-2
-1
-2
-11
-23
-26
-26
-26
-26
-30
-31
-35
-40
-45
-47
-49
-54
-53
-53
-54
-51
-45
-43
-44
-43
-46
-54
-56
-56
-31
-2
-38
-55
-75
-43
-3
39
84
144
228
248
213
137
31
-134
-219
-204
-203
-182
-138
-116
-93
-72
-71
-58
-50
-34
-26
-31
-48
-67
-56
-35
-15
-12
-23
-15
-18
-16
-13
-18
-13
-5
7
18
33
38
33
33
39
47
49
49
50
53
53
53
63
62
44
30
14
9
13
12
7
2
-14
-21
-19
-19
-19
-18
-13
-24
-32
-33
-34
-40
-44
-31
-16
-14
-16
-8
-6
-7
-1
3
3
-1
-8
-12
-13
-14
-15
-21
-26
-31
-33
-35
-48
-52
-49
-54
-57
-63
-62
-59
-57
-54
-56
-62
-65
-58
-56
-60
-59
-54
-49
-47
-50
-36
6
53
94
141
159
239
216
159
59
-119
-227
-213
-198
-176
-142
-118
-100
-82
-69
-61
-52
-52
-50
-50
-46
-40
-39
-43
-38
-36
-24
-20
-19
-18
-10
-6
-4
2
10
21
34
40
39
45
52
59
63
63
64
61
64
62
57
57
57
52
41
34
26
13
4
-3
-5
-10
-19
-23
-27
-27
-27
-35
-40
-38
-38
-36
-32
-26
-22
-21
-23
-24
-11
-4
-1
0
0
0
-3
-5
-15
-21
-21
-25
-34
-32
-30
-33
-40
-47
-52
-52
-57
-58
-55
-58
-60
-60
-55
-48
-40
-33
-50
-63
-50
-44
-38
-36
-45
-51
-23
19
55
110
182
238
235
191
110
3
-151
-196
-208
-196
-171
-140
-117
-94
-68
-45
-39
-48
-58
-44
-36
-44
-33
-28
-34
-33
-22
-13
-4
0
-3
3
7
1
10
33
36
30
43
48
46
44
58
71
72
72
78
79
69
58
48
39
37
41
43
28
17
16
8
-7
-22
-12
-8
-4
18
12
-32
-45
-29
-17
-20
-26
-24
-13
-8
-15
-11
-2
2
3
-1
-9
-9
2
-10
-21
-17
-18
-20
-26
-23
-22
-31
-38
-36
-40
-45
-41
-49
-56
-63
-58
-54
-60
-59
-54
-53
-54
-52
-50
-49
-44
-21
17
65
117
166
212
235
206
139
45
-109
-218
-204
-192
-179
-158
-129
-100
-77
-58
-53
-63
-59
-50
-41
-40
-46
-49
-37
-30
-25
-20
-23
-28
-21
-16
-13
-7
2
12
18
26
28
31
36
39
52
54
58
56
58
59
49
44
43
39
38
32
17
6
4
-1
-14
-15
-11
-20
-31
-32
-29
-38
-40
-40
-30
-26
-20
-13
-15
-21
-16
-10
-11
-12
-12
-14
-11
-12
-12
-9
-16
-18
-17
-20
-29
-39
-43
-42
-33
-27
-39
-48
-44
-40
-54
-46
-24
-43
-65
-51
-50
-60
-62
-63
-52
-38
-24
-9
19
64
121
190
209
230
189
132
46
-108
-195
-176
-188
-197
-167
-126
-90
-63
-48
-43
-48
-55
-54
-43
-29
-16
-15
-23
-31
-34
-12
0
-11
-20
-1
9
0
9
26
30
42
54
42
41
54
68
74
82
88
70
63
75
79
75
72
50
22
37
34
5
2
7
3
0
-12
-33
-38
-35
-33
-26
-19
-21
-22
-13
-24
-28
-16
-8
0
3
11
7
1
-10
-16
-12
-9
-14
-17
-18
-23
-23
-25
-38
-49
-48
-49
-53
-54
-47
-40
-45
-49
-54
-55
-54
-61
-57
-49
-49
-55
-57
-58
-50
-28
4
54
105
159
221
243
215
164
64
-112
-238
-222
-200
-175
-165
-116
-98
-83
-67
-58
-51
-45
-48
-48
-41
-38
-39
-38
-34
-26
-17
-17
-19
-19
-13
-2
5
11
11
12
24
33
42
46
51
57
59
63
66
69
68
60
51
49
44
39
35
28
20
13
4
1
-2
-9
-12
-24
-26
-31
-36
-33
-36
-36
-33
-29
-27
-28
-20
-12
-9
-6
-2
-1
-2
-4
-12
-22
-24
-18
-13
-13
-27
-30
-39
-42
-40
-38
-36
-46
-48
-40
-53
-65
-69
-62
-42
-36
-54
-67
-78
-75
-61
-57
-62
-53
-48
-21
11
58
95
151
220
215
177
134
21
-178
-245
-216
-205
-176
-140
-116
-97
-80
-69
-66
-56
-45
-32
-26
-45
-54
-40
-41
-35
-28
-31
-32
-20
-7
-12
-15
-4
0
11
27
36
33
39
50
63
61
42
40
43
55
45
45
51
47
40
37
28
15
14
14
6
-4
-8
-8
-8
-9
-16
-30
-39
-40
-37
-36
-33
-32
-24
-17
-8
1
-5
-14
-3
0
-1
0
-7
-12
-12
-13
-15
-17
-27
-33
-31
-28
-29
-43
-50
-48
-49
-57
-56
-54
-61
-64
-63
-57
-51
-51
-55
-59
-57
-54
-50
-55
-54
-46
-28
5
46
90
142
211
248
252
171
74
-110
-224
-211
-197
-178
-142
-115
-99
-81
-66
-60
-54
-51
-48
-48
-48
-42
-35
-34
-34
-33
-25
-22
-20
-23
-15
-6
-2
6
14
26
37
38
39
54
64
65
64
62
66
68
69
68
65
61
55
43
38
29
23
18
13
4
-2
-7
-12
-21
-21
-25
-28
-33
-31
-28
-28
-31
-31
-27
-19
-13
-16
-10
-2
-1
1
0
-3
-1
1
-6
-16
-21
-22
-27
-30
-32
-32
-34
-38
-43
-44
-44
-54
-61
-60
-55
-54
-56
-57
-57
-55
-55
-54
-54
-53
-49
-47
-51
-42
0
52
83
116
170
229
227
181
105
-8
-164
-211
-196
-195
-193
-151
-117
-92
-77
-63
-59
-52
-45
-44
-40
-39
-37
-37
-37
-22
-3
-11
-20
-24
-19
-10
3
13
12
11
25
32
36
37
39
50
63
64
56
57
59
60
54
49
54
55
52
44
37
37
19
2
0
1
-2
-25
-8
-6
-28
-44
-46
-43
-36
-27
-22
-22
-26
-19
-8
-1
-2
-3
-1
3
0
-9
-13
-17
-15
-13
-21
-23
-25
-28
-33
-39
-40
-40
-49
-55
-50
-47
-47
-53
-61
-62
-64
-63
-57
-57
-59
-55
-54
-51
-49
-34
-4
40
92
146
200
245
234
179
90
-33
-185
-212
-190
-180
-157
-135
-120
-96
-81
-71
-64
-60
-51
-49
-45
-43
-37
-34
-32
-29
-26
-26
-26
-21
-12
-7
-1
8
12
18
23
28
30
38
45
51
57
57
55
52
56
60
63
58
46
32
25
15
13
13
7
3
-2
-15
-21
-21
-25
-28
-31
-28
-22
-24
-30
-31
-21
-18
-14
-9
-11
-13
-7
-5
-10
-12
-12
-13
-9
-9
-15
-13
-11
-16
-20
-29
-40
-41
-40
-43
-44
-50
-53
-53
-53
-52
-48
-52
-49
-35
-24
-45
-58
-41
-22
-28
-33
19
87
140
189
248
253
197
121
94
-164
-220
-188
-173
-154
-136
-121
-91
-73
-66
-63
-50
-32
-26
-28
-24
-28
-29
-32
-30
-29
-24
-13
-15
-16
1
11
19
13
13
28
42
46
48
48
61
78
67
55
58
64
67
69
69
65
63
59
55
42
36
13
4
-6
0
-3
-15
-14
-22
-31
-31
-32
-33
-29
-19
-21
-26
-10
-1
-1
-2
0
3
1
-2
-4
-21
-20
-18
-24
-25
-17
-14
-21
-36
-40
-44
-44
-36
-33
-48
-64
-70
-64
-56
-56
-57
-55
-55
-51
-49
-53
-54
-52
-41
-22
8
50
98
147
214
255
235
180
77
-106
-236
-220
-204
-183
-146
-117
-98
-76
-63
-60
-57
-50
-48
-49
-47
-41
-37
-38
-35
-30
-25
-22
-22
-18
-9
-2
4
10
18
25
28
37
47
52
52
60
64
64
64
65
64
63
59
59
56
41
29
15
11
10
4
-2
-8
-14
-21
-21
-25
-31
-31
-31
-26
-28
-27
-22
-17
-10
-7
-9
-9
-8
-9
-8
-12
-14
-16
-16
-16
-21
-24
-26
-33
-37
-37
-46
-49
-50
-52
-53
-54
-58
-57
-52
-52
-56
-52
-51
-54
-54
-53
-57
-49
-48
-53
-24
13
45
84
141
208
227
193
133
19
-166
-242
-218
-194
-149
-115
-109
-83
-62
-62
-42
-36
-62
-66
-59
-46
-43
-50
-51
-45
-36
-33
-29
-24
-18
-11
-4
5
17
17
15
16
21
32
38
42
46
53
60
63
50
39
37
37
34
32
31
22
21
16
6
0
-6
-12
-19
-23
-26
-28
-32
-27
-22
-25
-36
-35
-25
-24
-27
-20
-12
-8
-8
-8
-4
-3
-12
-18
-18
-18
-21
-21
-23
-30
-32
-36
-41
-42
-46
-53
-55
-58
-60
-58
-59
-59
-58
-50
-47
-55
-66
-69
-66
-62
-59
-58
-58
-39
0
46
88
135
207
259
244
188
96
-90
-225
-209
-187
-171
-146
-137
-97
-83
-69
-63
-59
-55
-50
-51
-51
-48
-46
-43
-38
-33
-30
-28
-26
-22
-17
-13
-5
4
13
19
21
30
38
44
47
49
53
49
55
59
57
54
49
48
43
36
32
28
17
4
-1
-4
-8
-12
-16
-17
-20
-26
-28
-29
-29
-32
-37
-31
-27
-24
-22
-20
-10
-4
-2
2
0
-5
-8
-7
-8
-16
-21
-24
-26
-29
-30
-32
-37
-44
-42
-44
-48
-49
-40
-37
-52
-62
-63
-60
-52
-48
-50
-43
-37
-36
-33
-51
-72
-74
-19
37
101
168
204
219
221
188
118
-12
-187
-226
-197
-183
-163
-140
-116
-85
-66
-64
-61
-53
-57
-55
-52
-36
-29
-40
-42
-27
-18
-22
-19
-13
-15
-1
24
39
53
20
-12
11
34
36
38
49
53
55
60
62
80
70
65
61
52
37
37
44
39
26
16
10
-1
-7
-4
-6
-18
-25
-24
-23
-23
-21
-14
-17
-21
-27
-19
3
6
-13
-14
-6
-10
-12
-12
-13
-9
-8
-11
-19
-19
-20
-27
-31
-32
-35
-50
-57
-48
-44
-39
-47
-57
-47
-47
-60
-63
-60
-58
-55
-57
-54
-52
-46
-32
1
47
97
155
211
244
218
161
70
39
-200
-208
-193
-179
-160
-137
-113
-91
-71
-55
-51
-54
-52
-54
-49
-47
-47
-45
-37
-28
-24
-36
-37
-23
-18
-13
-7
1
8
9
16
26
32
38
47
52
50
52
59
63
60
54
48
42
38
38
32
16
-2
-6
-8
-10
-16
-21
-24
-26
-27
-30
-36
-40
-35
-30
-28
-33
-22
-12
-14
-15
-13
-13
-13
-12
-13
-19
-21
-18
-18
-23
-24
-24
-25
-34
-43
-44
-42
-40
-37
-29
-11
-28
-72
-77
-63
-47
-50
-59
-33
-29
-54
-62
-57
-53
-31
0
38
81
140
200
238
223
179
100
-31
-189
-214
-195
-173
-152
-134
-105
-83
-57
-27
-43
-52
-52
-29
-23
-35
-42
-38
-40
-39
-32
-23
-23
-19
-15
-10
1
8
16
25
30
36
50
53
52
60
62
63
72
77
77
74
69
79
76
46
12
15
27
20
12
2
-1
-6
-15
-14
-24
-33
-30
-24
-20
-19
-17
-9
-7
-4
-2
-4
-3
-1
-3
-2
-1
-1
7
3
-15
-28
-25
-19
-19
-25
-28
-33
-36
-41
-44
-55
-50
-48
-48
-44
-45
-54
-58
-57
-57
-57
-57
-54
-48
-46
-33
6
63
118
170
224
257
238
178
154
-91
-224
-219
-195
-173
-143
-113
-95
-81
-66
-56
-54
-52
-47
-47
-44
-40
-38
-35
-30
-29
-22
-17
-21
-21
-6
3
10
13
14
18
26
40
51
55
58
58
58
67
73
69
65
65
62
55
48
41
33
26
23
11
2
-1
-6
-13
-18
-19
-24
-24
-21
-21
-29
-29
-27
-23
-18
-11
-8
-7
-2
-1
-6
-11
-15
-17
-19
-19
-18
-18
-18
-20
-27
-33
-38
-46
-51
-54
-54
-54
-53
-53
-52
-53
-46
-41
-42
-40
-44
-53
-54
-37
-52
-68
-46
18
88
111
162
225
232
214
174
76
-129
-250
-211
-177
-157
-155
-139
-95
-72
-53
-36
-32
-43
-65
-68
-54
-36
-40
-48
-33
-27
-23
-10
-2
3
0
-4
8
19
3
0
16
35
51
49
43
43
49
53
61
67
63
53
47
51
49
38
28
30
30
0
-17
-14
-9
-5
-12
-22
-17
-12
-18
-30
-34
-26
-8
-21
-32
-17
-13
-11
-5
-4
-7
-13
-17
-8
-6
-15
-26
-37
-37
-31
-31
-28
-31
-45
-56
-59
-62
-55
-46
-46
-54
-57
-57
-57
-59
-64
-61
-62
-64
-64
-62
-65
-56
-36
7
51
93
143
216
249
247
155
47
-140
-223
-199
-190
-177
-146
-116
-94
-77
-72
-70
-67
-56
-53
-55
-53
-47
-46
-49
-48
-43
-37
-34
-24
-27
-23
-14
-6
-2
2
15
21
28
35
36
37
38
45
52
52
57
60
55
47
36
28
27
27
21
12
5
-4
-12
-13
-17
-21
-30
-32
-27
-31
-44
-47
-36
-29
-29
-27
-19
-14
-16
-15
-9
-3
-2
-10
-18
-23
-22
-24
-28
-32
-35
-38
-35
-32
-39
-43
-48
-54
-54
-56
-62
-62
-58
-57
-60
-60
-57
-55
-61
-66
-67
-65
-63
-56
-48
-29
7
52
89
151
230
261
229
176
90
-59
-188
-221
-229
-198
-141
-113
-108
-101
-95
-74
-61
-55
-56
-39
-35
-53
-49
-35
-33
-36
-32
-24
-11
18
32
13
-18
-14
18
43
40
36
39
44
49
48
53
60
64
63
63
60
60
50
36
28
27
23
21
19
16
15
14
4
-12
-21
-24
-15
-12
-18
-35
-32
-28
-28
-25
-14
2
0
-6
-3
-6
-4
-6
-10
-13
-15
-21
-24
-24
-21
-18
-17
-27
-35
-40
-47
-50
-52
-58
-54
-39
-38
-50
-59
-64
-63
-48
-42
-61
-71
-59
-57
-64
-52
-23
24
40
125
178
228
233
190
117
6
-163
-225
-198
-192
-173
-142
-119
-101
-81
-65
-54
-53
-52
-50
-45
-48
-50
-48
-43
-44
-37
-28
-21
-24
-31
-20
-8
-1
0
1
14
23
26
33
41
47
49
49
52
54
52
49
49
46
39
37
39
30
15
1
-3
-7
-15
-21
-28
-35
-39
-37
-32
-32
-34
-40
-44
-36
-30
-22
-18
-18
-16
-7
-4
-14
-24
-25
-18
-16
-17
-23
-26
-26
-27
-37
-44
-44
-46
-53
-60
-60
-58
-60
-59
-59
-60
-58
-56
-54
-54
-58
-62
-59
-51
-43
-39
-17
33
92
146
194
249
252
190
113
11
-149
-210
-220
-226
-221
-146
-116
-91
-82
-66
-43
-47
-51
-58
-53
-29
-31
-46
-36
-26
-14
1
-1
-13
-19
-14
-6
4
14
17
29
21
18
32
51
68
74
61
55
64
68
55
48
50
47
54
58
40
19
9
6
7
3
2
0
-5
-26
-38
-26
-20
-33
-43
-36
-28
-17
-10
-7
-1
1
-2
-12
-16
-13
-5
3
0
-16
-23
-17
-17
-30
-35
-39
-39
-33
-26
-33
-55
-60
-52
-52
-49
-46
-45
-50
-55
-52
-52
-61
-64
-59
-48
-19
26
43
128
176
232
246
213
137
20
-148
-227
-210
-195
-173
-139
-107
-84
-70
-64
-63
-52
-45
-44
-47
-49
-50
-52
-39
-28
-28
-28
-27
-20
-7
1
7
11
10
6
22
32
40
48
55
63
64
66
60
50
52
56
57
52
48
43
33
18
10
9
5
-2
-7
-10
-18
-25
-26
-25
-28
-33
-36
-36
-36
-30
-19
-17
-17
-16
-15
-10
-9
-15
-12
-7
-9
-19
-25
-28
-28
-32
-35
-38
-39
-45
-48
-49
-55
-57
-59
-58
-59
-61
-62
-60
-58
-59
-62
-57
-53
-53
-55
-57
-47
-20
25
80
120
181
249
251
216
133
-21
-209
-231
-193
-171
-167
-137
-107
-78
-63
-48
-52
-70
-68
-53
-61
-60
-43
-35
-37
-25
-12
-23
-22
-13
-9
-8
-1
18
29
31
39
5
7
37
55
58
50
55
64
63
55
53
60
53
39
39
35
18
13
9
4
10
1
-9
-11
-26
-33
-30
-40
-44
-39
-31
-32
-27
-18
-8
2
3
8
-2
-13
-11
-15
-23
-23
-22
-25
-19
-21
-24
-32
-37
-44
-53
-56
-47
-48
-56
-61
-62
-58
-59
-56
-49
-55
-59
-50
-44
-49
-57
-64
-64
-48
-31
-28
21
80
123
177
224
210
161
75
-83
-222
-222
-200
-183
-157
-130
-105
-83
-65
-62
-63
-64
-60
-59
-55
-52
-39
-38
-37
-38
-34
-29
-27
-28
-28
-20
-11
-1
6
12
19
28
31
35
40
44
48
53
58
54
50
48
48
47
45
37
28
24
19
12
3
-3
-11
-16
-18
-21
-28
-31
-29
-32
-32
-34
-37
-33
-30
-28
-18
-14
-8
-7
-9
-6
-6
-8
-13
-19
-19
-17
-23
-37
-38
-37
-40
-41
-46
-53
-54
-59
-60
-59
-58
-57
-55
-54
-55
-53
-56
-60
-61
-61
-60
-58
-57
-48
-30
1
50
110
168
232
267
249
165
34
-138
-193
-210
-190
-174
-148
-98
-76
-90
-84
-71
-65
-52
-39
-21
-19
-54
-73
-54
-29
-29
-41
-31
-10
-3
0
2
19
32
28
14
21
50
55
43
52
53
59
63
59
69
72
64
58
56
47
44
41
30
16
13
12
-4
-7
-2
-6
-11
-18
-26
-19
-13
-11
-13
-18
-3
7
1
-9
-1
12
-1
-9
0
-4
-9
-7
-8
-17
-18
-14
-12
-16
-23
-34
-41
-40
-38
-45
-52
-54
-53
-46
-53
-58
-58
-51
-45
-54
-60
-48
-41
-40
-42
-39
-18
29
87
153
216
247
230
178
98
-37
-197
-218
-195
-188
-158
-124
-112
-99
-85
-74
-63
-51
-47
-45
-48
-49
-39
-27
-25
-34
-35
-29
-18
-5
-5
-13
-7
3
9
5
18
33
39
43
46
48
49
48
50
53
54
54
51
42
38
34
28
19
12
5
-5
-12
-12
-17
-21
-23
-24
-30
-36
-34
-26
-21
-19
-14
-18
-21
-16
-8
-11
-13
-6
-7
-15
-21
-18
-12
-15
-25
-31
-29
-37
-43
-44
-40
-46
-44
-48
-52
-58
-61
-60
-58
-54
-53
-54
-57
-55
-51
-48
-44
-45
-36
-18
14
72
137
208
258
254
209
126
-5
-53
-228
-207
-186
-152
-124
-119
-99
-56
-41
-62
-58
-44
-61
-72
-47
-29
-40
-38
-17
9
12
-33
-49
-33
-29
5
20
11
5
11
29
39
54
77
78
66
53
57
59
58
58
65
71
74
58
40
36
15
9
11
50
35
-6
-13
-36
-53
-49
-34
-28
-25
-14
-20
-24
-11
-7
-11
-7
2
-1
0
43
48
1
-28
-34
-28
-5
29
1
-59
-53
-31
-17
1
-6
-38
-66
-63
-48
-53
-62
-66
-54
-44
-46
-48
-53
-60
-58
-55
-19
-9
20
76
122
183
263
266
201
117
-5
-163
-198
-166
-169
-171
-151
-116
-90
-82
-83
-72
-57
-49
-47
-45
-46
-40
-35
-28
-33
-47
-40
-28
-19
-9
-3
7
23
12
1
15
31
40
33
30
49
59
57
55
68
64
55
49
42
38
40
34
20
16
8
-4
-7
-11
-13
-16
-24
-30
-34
-30
-28
-3
34
20
4
-58
-45
-26
-7
9
14
0
-10
-28
-38
-31
-19
-20
-29
-33
-33
-35
-44
-47
-52
-54
-46
-43
-49
-52
-58
-54
-54
-55
-51
-35
-19
-36
-71
-88
-85
-73
-61
-38
4
48
92
139
207
241
216
163
65
-111
-175
-222
-200
-184
-152
-119
-96
-79
-66
-63
-58
-58
-54
-53
-54
-47
-36
-30
-44
-57
-46
-30
-24
-19
-15
-12
-2
5
6
11
23
28
37
50
62
79
49
39
59
52
43
49
40
34
28
18
17
21
13
5
6
-5
-27
-26
-31
-30
-21
-26
-38
-43
-39
-20
-19
-26
-21
-6
-11
-7
-1
-13
-18
-25
-32
-9
9
6
-30
-25
-44
-43
-36
-42
-45
-40
-24
-33
-56
-65
-64
-63
-68
-59
-40
-39
-50
-52
-71
-90
-83
-69
-65
-54
-34
-2
36
83
127
178
230
219
155
77
-64
-202
-195
-190
-199
-161
-126
-104
-70
-39
-51
-80
-77
-70
-61
-59
-46
-43
-45
-41
-33
-32
-33
-24
-20
-21
-14
-6
1
9
21
36
44
40
33
37
47
51
53
76
76
66
48
36
41
45
43
29
15
12
7
4
1
-11
-19
-17
-18
-20
-26
-32
-32
-31
-30
-29
-23
-20
-13
-5
0
4
-9
-21
-18
-13
-9
-8
-9
-3
-16
-29
-31
-32
-34
-34
-38
-44
-45
-46
-47
-52
-53
-58
-55
-54
-54
-60
-59
-53
-49
-47
-52
-56
-60
-55
-47
-29
10
63
120
181
237
262
222
204
39
-135
-223
-200
-192
-179
-149
-118
-97
-79
-68
-63
-51
-43
-44
-44
-45
-46
-42
-37
-30
-24
-23
-21
-19
-12
-10
-12
-4
3
14
21
19
26
34
41
49
61
78
83
77
58
57
83
78
37
29
37
27
23
14
3
-1
-9
-11
-7
-13
-23
-28
-29
-24
-14
-5
-18
-26
-29
-23
-7
5
16
10
8
27
17
9
1
-11
-16
-3
1
-9
-27
-32
-35
-43
-45
-44
-44
-45
-42
-42
-40
-34
-42
-51
-48
-47
-45
-43
-43
-35
-32
-39
-41
-16
46
97
137
195
267
268
202
132
15
-144
-211
-178
-176
-173
-154
-132
-99
-71
-57
-54
-54
-45
-36
-45
-53
-50
-43
-33
-30
-28
-24
-14
-4
-6
-12
-9
-2
7
22
32
33
32
38
40
42
45
51
66
72
64
39
26
37
44
43
30
12
5
3
2
-1
-5
-8
-14
-22
-27
-33
-34
-29
-27
-28
-29
-27
-24
-19
-18
-23
-18
-8
-9
-17
-21
-23
-26
-19
-17
-15
-7
-10
-32
-45
-41
-39
-46
-48
-57
-59
-60
-55
-50
-55
-55
-35
-30
-66
-79
-67
-63
-64
-57
-52
-28
15
67
119
170
218
237
210
199
45
-125
-226
-208
-196
-183
-153
-120
-96
-82
-71
-61
-56
-52
-48
-48
-45
-43
-42
-40
-34
-29
-27
-27
-26
-21
-12
-4
0
12
18
16
21
26
42
62
58
48
52
55
54
63
68
48
43
52
41
22
26
31
29
13
9
11
23
6
-43
-60
-46
-34
-14
-1
-20
-37
-21
-7
0
11
8
-9
-15
-6
-8
-14
-13
6
0
-2
-20
-27
-16
-17
-26
-19
-29
-43
-37
-37
-44
-43
-40
-30
-27
-34
-33
-34
-43
-47
-46
-48
-58
-49
-41
-18
32
95
142
185
251
269
237
161
43
-122
-202
-198
-174
-147
-139
-114
-93
-74
-55
-40
-33
-29
-34
-29
-45
-46
-36
-33
-33
-24
-2
5
-4
-8
-2
1
7
25
51
52
32
32
49
57
53
52
62
64
68
71
74
65
55
55
57
61
46
26
10
-7
-14
-7
2
2
-22
-33
-29
-35
-36
-26
-22
-14
-16
-11
-8
-8
-2
0
0
-1
-4
-5
-4
-14
-23
-25
-23
-16
-13
-21
-36
-47
-45
-43
-43
-42
-46
-48
-50
-50
-49
-53
-49
-54
-55
-50
-53
-53
-57
-60
-56
-42
-1
54
102
156
236
270
240
177
154
-118
-232
-211
-188
-164
-137
-113
-87
-64
-55
-57
-62
-58
-60
-63
-55
-46
-40
-40
-35
-32
-29
-23
-21
-21
-12
-5
0
6
9
12
23
32
34
36
45
48
53
55
48
50
49
44
42
37
33
25
19
14
12
2
-3
-10
-16
-22
-26
-24
-22
-15
-15
-14
2
-5
-46
-50
-14
-2
11
2
-18
-17
-11
-13
-10
-9
-25
-31
-28
-31
-34
-33
-32
-32
-32
-32
-36
-53
-56
-49
-53
-50
-41
-37
-40
-42
-47
-49
-42
-34
-33
-47
-71
-72
-43
-4
56
117
134
174
237
232
178
96
-62
-208
-208
-189
-178
-148
-114
-96
-73
-52
-51
-53
-44
-39
-34
-42
-42
-30
-28
-28
-20
-14
-18
-12
-5
2
6
6
15
20
29
27
19
28
40
45
47
61
67
63
61
64
64
67
64
56
46
43
34
24
23
26
17
3
-10
-23
-28
-27
-21
-22
-33
-37
-35
-21
-14
-12
-7
-13
-19
-8
-4
1
3
-6
-20
-23
-16
-12
-9
-13
-19
-29
-38
-42
-44
-46
-47
-50
-53
-45
-41
-43
-50
-55
-55
-51
-48
-48
-55
-62
-68
-66
-58
-51
-36
-12
15
64
135
200
245
255
205
126
-10
-180
-218
-200
-191
-163
-128
-111
-101
-89
-76
-64
-59
-54
-48
-47
-48
-41
-36
-37
-37
-33
-32
-32
-23
-15
-8
-9
-4
3
8
20
29
36
42
44
47
53
52
53
56
55
54
43
35
37
38
37
26
14
-4
-13
-12
-6
-4
-13
-28
-36
-32
-27
-30
-38
-34
-28
-26
-23
-22
-13
-2
-3
-1
-1
-2
-5
1
-9
-14
-13
-33
-43
-34
-29
-27
-27
-37
-40
-40
-38
-54
-59
-45
-41
-48
-48
-48
-52
-55
-57
-50
-54
-50
-45
-41
-28
3
58
111
162
219
267
250
173
74
-67
-212
-216
-191
-178
-154
-126
-109
-94
-89
-62
-53
-49
-48
-44
-36
-26
-34
-47
-38
-30
-32
-23
-8
-9
-12
-4
-1
-3
3
16
36
50
47
45
54
50
43
47
54
58
58
58
64
58
45
30
16
14
10
2
2
3
4
-4
-24
-35
-37
-33
-29
-23
-26
-24
-26
-23
-19
-11
-10
-9
-12
-9
-4
-9
-14
-19
-21
-17
-14
-19
-21
-19
-22
-27
-33
-36
-43
-46
-48
-48
-53
-52
-42
-35
-35
-47
-56
-54
-43
-45
-59
-62
-55
-46
-13
35
90
149
208
257
267
194
103
-34
-193
-217
-189
-169
-151
-135
-111
-84
-74
-69
-60
-52
-49
-45
-45
-42
-39
-38
-36
-28
-25
-26
-18
-10
-6
-3
1
13
22
24
25
37
47
53
62
64
70
72
65
62
68
72
69
65
53
40
36
30
20
8
4
3
6
1
-5
-22
-33
-27
-23
-26
-24
-20
-18
-14
-9
-2
0
0
7
10
-4
-9
-7
6
0
-18
-22
-12
-2
-15
-31
-23
-22
-40
-47
-40
-37
-52
-50
-35
-37
-52
-53
-53
-57
-51
-47
-48
-52
-48
-43
-26
20
70
99
139
204
255
240
186
92
-63
-226
-224
-189
-175
-152
-105
-82
-77
-61
-54
-43
-51
-52
-46
-40
-43
-42
-37
-32
-27
-25
-17
-12
-3
1
2
4
25
31
30
38
42
40
44
49
69
73
81
81
78
79
73
57
48
45
40
40
30
17
10
12
13
5
-1
-7
-17
-21
-23
-31
-34
-25
-23
-26
-24
-17
-5
1
7
7
2
-1
-3
-9
-24
-31
-27
-20
-18
-17
-22
-28
-35
-43
-36
-34
-45
-44
-50
-50
-48
-56
-64
-64
-59
-52
-51
-53
-49
-45
-47
-54
-52
-38
-4
33
81
139
204
256
264
203
129
-33
-210
-224
-202
-190
-157
-123
-100
-81
-70
-64
-57
-53
-53
-50
-41
-40
-46
-44
-35
-32
-33
-34
-26
-23
-20
-10
-2
1
12
23
22
23
30
37
43
48
53
57
57
61
61
57
58
47
33
25
23
22
23
21
11
-1
-11
-16
-14
-15
-23
-28
-26
-30
-38
-31
-23
-26
-18
-4
0
-6
-3
-6
-3
-2
-4
-1
-9
-26
-20
-14
-26
-37
-38
-38
-38
-32
-34
-36
-42
-64
-59
-40
-37
-44
-44
-44
-53
-69
-70
-59
-64
-54
-46
-50
-46
-31
5
62
108
151
211
249
232
172
85
-80
-227
-216
-197
-180
-158
-132
-103
-93
-61
-49
-43
-50
-58
-50
-43
-35
-27
-26
-36
-38
-22
-11
-12
-11
-9
-3
3
4
8
20
37
48
52
47
55
68
71
68
71
74
73
71
71
73
60
38
28
27
27
19
7
0
1
-9
-18
-19
-24
-26
-26
-23
-27
-18
-18
-24
-26
-20
-10
-2
1
4
4
0
-6
-12
-15
-18
-19
-18
-18
-18
-13
-14
-13
-40
-57
-53
-49
-48
-44
-52
-57
-58
-61
-67
-62
-56
-55
-56
-59
-57
-53
-54
-51
-32
4
54
111
129
221
257
225
159
66
-91
-223
-209
-197
-183
-162
-133
-120
-101
-79
-63
-58
-58
-48
-44
-50
-53
-44
-43
-42
-42
-38
-29
-31
-26
-16
-17
-7
3
14
15
13
17
28
37
45
53
61
62
60
55
56
55
54
54
29
19
14
12
12
9
0
-12
-18
-20
-25
-28
-34
-40
-39
-32
-31
-28
-22
-19
-16
-13
-18
-18
-14
-4
-6
-6
-15
-22
-13
-7
-23
-28
-18
-34
-43
-34
-32
-32
-40
-53
-58
-60
-59
-54
-53
-54
-51
-49
-54
-61
-58
-50
-50
-48
-49
-50
-29
15
72
133
185
229
245
207
128
19
-144
-219
-198
-191
-180
-144
-130
-101
-86
-65
-54
-53
-55
-45
-42
-43
-46
-48
-42
-37
-33
-24
-18
-19
-19
-8
0
3
10
17
23
26
34
38
56
65
54
56
64
67
68
76
75
63
55
49
42
36
21
8
0
-3
-4
-4
-5
-20
-26
-27
-30
-26
-23
-26
-28
-24
-12
-1
3
-6
-13
-3
4
9
9
0
-10
-25
-32
-29
-26
-27
-23
-22
-32
-38
-47
-41
-39
-45
-48
-48
-48
-50
-53
-54
-58
-52
-52
-50
-52
-45
-35
-36
-34
-6
48
107
125
216
245
220
168
69
-103
-234
-215
-189
-170
-144
-120
-95
-77
-65
-60
-57
-50
-47
-48
-40
-39
-43
-40
-36
-28
-29
-26
-19
-9
-6
-6
0
6
14
21
31
42
53
51
48
60
64
71
77
63
54
63
68
67
33
14
13
16
16
10
0
-8
-9
-14
-23
-23
-20
-21
-30
-34
-31
-22
-14
-20
-21
-15
-9
-6
-4
-7
-7
-11
-16
-18
-18
-17
-18
-21
-23
-20
-20
-31
-38
-37
-42
-49
-56
-56
-54
-52
-46
-48
-50
-52
-54
-56
-60
-58
-54
-49
-47
-49
-35
8
61
114
172
247
261
212
159
52
-160
-254
-213
-189
-158
-119
-110
-103
-76
-70
-69
-56
-46
-45
-47
-45
-48
-46
-39
-32
-32
-33
-23
-10
-8
-11
-5
1
12
26
35
37
44
45
40
52
62
70
88
75
54
55
53
52
48
33
27
26
19
4
1
3
1
-9
-16
-19
-21
-17
-24
-34
-26
-27
-32
-27
-28
-27
-22
-11
5
9
2
2
-1
-7
-18
-26
-20
-13
-9
-14
-33
-38
-37
-38
-36
-29
-34
-53
-58
-55
-48
-53
-64
-61
-55
-57
-51
-54
-59
-58
-63
-63
-52
-34
-9
32
47
124
182
237
233
199
128
-12
-196
-235
-215
-203
-170
-131
-108
-93
-79
-67
-63
-62
-58
-47
-40
-47
-45
-42
-38
-37
-23
-14
-23
-26
-22
-13
-2
8
10
12
23
30
40
47
43
48
53
60
67
65
58
49
50
60
54
49
38
28
23
13
6
3
-1
-7
-14
-21
-28
-34
-37
-31
-27
-29
-29
-22
-25
-26
-16
-13
-4
-11
-11
-8
-7
-6
-8
-15
-20
-21
-22
-27
-28
-31
-37
-39
-41
-47
-50
-54
-60
-59
-54
-54
-54
-54
-53
-53
-54
-53
-47
-54
-53
-40
-51
-56
-17
31
78
141
204
251
242
190
107
-36
-203
-227
-202
-197
-177
-141
-112
-93
-70
-61
-67
-54
-49
-47
-47
-48
-45
-35
-30
-40
-39
-24
-14
