-12
-12
-12
-12
-13
-13
-14
-14
-14
-14
-14
-14
-13
-13
-14
-15
-15
-14
-15
-16
-16
-17
-17
-16
-16
-16
-16
-16
-17
-17
-18
-19
-19
-19
-19
-19
-19
-19
-20
-20
-20
-20
-20
-19
-19
-19
-20
-20
-21
-22
-21
-22
-22
-22
-23
-23
-24
-23
-24
-24
-23
-23
-23
-23
-23
-23
-23
-23
-22
-21
-20
-20
-19
-19
-20
-20
-19
-20
-20
-20
-19
-20
-19
-18
-17
-16
-16
-16
-16
-15
-16
-16
-16
-16
-14
-12
-10
-9
-9
-9
-7
-3
1
3
5
5
4
3
2
2
2
2
2
1
0
-1
-1
-1
0
0
0
0
0
0
0
1
2
2
0
-5
-10
-11
-3
19
60
116
179
231
273
278
256
211
150
94
50
25
14
10
9
7
7
6
4
2
0
-1
-3
-5
-7
-8
-9
-9
-10
-10
-11
-12
-12
-13
-13
-13
-12
-11
-11
-11
-10
-10
-10
-9
-8
-7
-7
-7
-7
-6
-5
-5
-4
-3
-2
-1
0
0
0
1
2
4
6
8
10
13
16
18
21
24
27
30
33
36
38
41
42
44
44
47
47
45
43
40
38
34
32
28
27
24
21
19
16
15
13
13
12
10
10
8
7
6
6
6
6
6
6
5
4
4
4
5
4
4
4
4
3
2
3
2
3
3
2
1
1
2
0
0
0
-1
-1
-1
-1
-2
-2
-4
-4
-4
-5
-5
-6
-6
-7
-8
-9
-9
-9
-8
-7
-8
-8
-9
-9
-10
-10
-9
-9
-9
-9
-9
-10
-11
-11
-11
-11
-11
-11
-12
-12
-12
-12
-12
-12
-11
-11
-11
-12
-13
-14
-14
-13
-13
-12
-12
-12
-13
-13
-14
-14
-14
-15
-15
-15
-16
-16
-15
-14
-14
-14
-14
-14
-15
-16
-15
-14
-14
-14
-12
-12
-12
-11
-11
-10
-9
-9
-9
-10
-11
-11
-11
-9
-7
-5
-4
-4
-5
-4
-2
0
2
3
1
0
-1
-3
-4
-5
-6
-6
-6
-8
-9
-11
-12
-12
-12
-12
-12
-12
-11
-11
-11
-10
-11
-13
-17
-22
-28
-28
-16
7
50
105
162
213
244
248
225
181
125
69
26
3
-8
-12
-13
-14
-16
-16
-18
-21
-23
-24
-27
-28
-29
-29
-29
-30
-30
-31
-31
-31
-32
-32
-34
-35
-36
-37
-38
-38
-38
-39
-39
-39
-38
-39
-39
-39
-39
-37
-37
-35
-36
-35
-35
-33
-31
-31
-29
-27
-25
-23
-21
-19
-16
-13
-10
-8
-5
-3
0
2
4
8
10
13
14
16
17
18
18
16
14
12
9
6
3
0
-3
-5
-8
-10
-12
-13
-15
-17
-18
-20
-21
-22
-22
-23
-24
-24
-26
-26
-27
-27
-27
-27
-27
-28
-28
-29
-30
-31
-31
-30
-31
-30
-31
-31
-32
-33
-34
-34
-34
-34
-34
-35
-36
-37
-37
-37
-37
-37
-37
-38
-38
-38
-38
-38
-37
-37
-37
-36
-37
-36
-37
-37
-38
-38
-38
-37
-38
-37
-40
-41
-40
-40
-40
-40
-41
-41
-41
-41
-42
-41
-40
-40
-41
-40
-41
-42
-41
-42
-41
-42
-41
-41
-41
-40
-40
-38
-38
-36
-35
-34
-34
-34
-34
-34
-33
-33
-31
-30
-29
-27
-26
-24
-23
-22
-20
-16
-14
-13
-13
-14
-16
-17
-17
-18
-19
-20
-21
-22
-23
-24
-24
-24
-24
-24
-24
-23
-22
-22
-21
-21
-22
-24
-28
-32
-30
-16
16
62
121
180
227
257
248
213
159
98
48
16
-1
-10
-14
-17
-18
-18
-18
-17
-20
-22
-23
-24
-24
-23
-21
-21
-22
-23
-24
-24
-24
-25
-26
-26
-26
-25
-24
-24
-24
-24
-23
-23
-22
-21
-20
-20
-18
-18
-18
-18
-17
-14
-13
-11
-9
-8
-7
-5
-3
-1
0
1
4
7
9
11
13
16
19
23
25
29
31
34
36
39
43
44
45
44
43
40
38
35
33
30
27
24
21
19
15
12
10
8
6
5
3
2
1
0
-1
-1
-1
-2
-2
-2
-3
-3
-4
-5
-5
-5
-6
-6
-6
-6
-6
-7
-7
-8
-8
-8
-8
-9
-9
-9
-9
-8
-7
-8
-8
-9
-9
-9
-9
-9
-9
-9
-10
-10
-9
-10
-10
-10
-9
-10
-9
-9
-9
-9
-9
-8
-9
-9
-10
-10
-10
-9
-9
-9
-9
-9
-9
-9
-9
-10
-10
-10
-10
-10
-9
-9
-9
-9
-9
-10
-9
-8
-8
-8
-8
-8
-8
-9
-10
-10
-9
-8
-8
-6
-6
-5
-3
-1
1
4
7
8
9
9
10
12
15
19
20
20
19
17
16
15
14
13
13
12
11
10
8
7
6
7
6
7
7
7
7
7
8
8
8
6
2
-2
-3
3
24
61
115
176
232
283
297
287
247
187
128
74
43
27
21
19
17
16
14
13
11
9
8
6
3
2
1
0
0
0
-1
-1
-1
-1
-1
-2
-2
-1
-1
-1
-1
0
0
0
1
2
2
3
3
3
3
4
4
5
6
9
11
12
13
15
17
16
18
18
21
21
23
25
27
29
32
36
39
43
46
48
50
50
51
50
49
47
45
43
39
35
31
28
25
22
19
17
15
12
11
9
8
7
5
5
4
3
3
2
0
0
0
0
-2
-3
-3
-4
-4
-5
-5
-5
-6
-6
-6
-6
-7
-7
-8
-8
-8
-9
-9
-11
-12
-12
-12
-13
-13
-13
-14
-14
-15
-16
-16
-16
-16
-16
-16
-17
-18
-18
-19
-19
-20
-19
-20
-21
-21
-22
-22
-22
-21
-21
-21
-22
-22
-22
-22
-23
-24
-23
-23
-23
-24
-24
-25
-25
-25
-26
-26
-26
-26
-26
-26
-26
-27
-26
-26
-25
-24
-23
-22
-22
-21
-21
-21
-22
-22
-22
-22
-23
-23
-23
-22
-21
-20
-19
-19
-17
-16
-14
-13
-12
-11
-11
-10
-7
-4
-2
-2
-4
-5
-6
-7
-8
-9
-10
-11
-12
-13
-16
-17
-16
-16
-16
-16
-16
-17
-17
-16
-15
-15
-15
-18
-23
-28
-29
-20
3
43
100
161
217
259
268
252
208
150
92
41
13
0
-5
-7
-7
-7
-9
-12
-14
-17
-20
-22
-23
-24
-24
-25
-26
-27
-28
-29
-29
-29
-29
-30
-30
-32
-32
-32
-32
-32
-33
-33
-33
-32
-32
-31
-32
-32
-31
-30
-29
-28
-27
-28
-28
-29
-28
-27
-26
-24
-22
-20
-18
-16
-13
-12
-9
-6
-3
0
2
5
7
9
12
14
16
17
17
17
16
13
10
8
4
1
-1
-4
-7
-9
-10
-13
-15
-17
-18
-20
-22
-22
-24
-25
-25
-26
-26
-27
-28
-28
-29
-29
-29
-29
-29
-29
-29
-29
-30
-31
-32
-32
-32
-32
-32
-33
-33
-34
-34
-34
-35
-35
-35
-36
-37
-37
-38
-39
-38
-38
-36
-37
-37
-38
-39
-40
-40
-39
-41
-41
-41
-41
-41
-42
-41
-42
-41
-41
-41
-42
-43
-43
-43
-43
-43
-42
-41
-41
-40
-39
-38
-37
-37
-36
-35
-35
-34
-36
-36
-36
-35
-35
-35
-34
-34
-35
-35
-36
-36
-36
-34
-33
-31
-30
-28
-27
-27
-26
-25
-21
-19
-17
-16
-17
-18
-20
-20
-22
-23
-24
-26
-27
-29
-31
-33
-33
-33
-32
-32
-31
-30
-30
-29
-29
-28
-28
-30
-34
-39
-43
-41
-23
10
66
129
192
240
266
258
226
171
113
55
17
-3
-13
-17
-19
-20
-21
-22
-23
-26
-28
-29
-31
-32
-34
-34
-36
-37
-37
-39
-38
-40
-40
-40
-41
-41
-42
-41
-42
-41
-41
-40
-40
-39
-38
-38
-38
-38
-36
-37
-35
-34
-33
-31
-30
-29
-28
-26
-25
-22
-20
-18
-16
-14
-11
-9
-7
-4
-2
0
1
3
5
7
8
11
12
13
14
13
12
10
8
6
3
1
0
-4
-7
-9
-13
-15
-17
-18
-19
-21
-22
-24
-25
-26
-25
-27
-27
-27
-29
-29
-30
-30
-30
-30
-30
-30
-30
-29
-29
-30
-30
-30
-30
-29
-29
-29
-30
-30
-31
-31
-32
-32
-32
-32
-33
-35
-35
-35
-35
-35
-35
-35
-34
-34
-35
-35
-35
-35
-35
-34
-34
-34
-34
-35
-35
-35
-35
-36
-36
-35
-35
-35
-35
-36
-36
-36
-36
-36
-35
-35
-35
-35
-34
-33
-32
-31
-30
-29
-29
-27
-28
-28
-29
-29
-28
-27
-24
-23
-21
-20
-19
-18
-16
-12
-9
-7
-7
-7
-9
-10
-11
-11
-12
-14
-15
-17
-18
-20
-20
-19
-20
-20
-20
-20
-20
-20
-19
-18
-17
-17
-20
-25
-32
-32
-20
8
57
121
183
236
261
253
215
162
102
52
17
0
-7
-10
-11
-11
-11
-11
-12
-13
-16
-17
-18
-19
-20
-20
-20
-21
-20
-21
-20
-20
-21
-21
-22
-20
-20
-19
-19
-18
-19
-18
-18
-17
-17
-16
-15
-15
-15
-14
-12
-10
-9
-8
-6
-6
-4
-3
0
1
3
6
8
9
12
14
16
19
22
24
27
29
31
34
35
37
37
37
36
35
34
31
28
25
23
20
18
17
14
12
9
7
5
3
3
2
2
1
0
-1
-2
-3
-3
-2
-3
-2
-2
-2
-2
-3
-4
-5
-5
-5
-5
-6
-6
-7
-8
-8
-8
-7
-8
-9
-10
-10
-10
-11
-10
-11
-11
-11
-11
-11
-11
-11
-11
-11
-11
-11
-12
-12
-12
-12
-12
-13
-13
-13
-13
-14
-15
-17
-17
-17
-17
-16
-16
-17
-17
-18
-18
-18
-17
-19
-19
-19
-19
-20
-19
-19
-18
-16
-15
-15
-15
-15
-14
-13
-12
-12
-11
-11
-11
-13
-14
-14
-15
-15
-14
-14
-15
-15
-14
-13
-13
-12
-10
-10
-10
-10
-9
-7
-4
-2
-1
-3
-5
-6
-8
-11
-13
-14
-15
-15
-16
-18
-19
-20
-21
-21
-21
-20
-20
-20
-20
-20
-21
-21
-22
-25
-31
-36
-35
-22
9
56
114
174
219
247
239
206
156
98
48
12
-6
-15
-18
-19
-19
-19
-19
-21
-23
-25
-26
-27
-28
-30
-30
-32
-33
-33
-34
-34
-34
-34
-36
-37
-37
-37
-37
-37
-36
-37
-37
-38
-38
-37
-37
-35
-35
-34
-34
-33
-32
-32
-31
-29
-28
-26
-25
-24
-22
-21
-20
-19
-18
-16
-15
-13
-11
-8
-6
-4
-1
2
4
6
7
8
8
6
4
3
0
-2
-6
-8
-12
-16
-18
-21
-23
-25
-26
-29
-31
-33
-34
-34
-35
-36
-38
-38
-40
-41
-41
-43
-43
-44
-43
-44
-44
-44
-46
-46
-47
-46
-47
-48
-49
-49
-48
-49
-50
-51
-50
-50
-50
-51
-53
-54
-55
-56
-57
-57
-58
-59
-59
-59
-60
-61
-61
-61
-61
-62
-62
-63
-64
-63
-64
-64
-64
-64
-64
-65
-65
-66
-65
-66
-66
-67
-66
-67
-68
-67
-68
-67
-67
-65
-65
-65
-65
-64
-63
-63
-62
-63
-62
-62
-61
-60
-60
-60
-61
-60
-59
-58
-56
-54
-53
-52
-51
-51
-48
-45
-42
-40
-41
-43
-45
-46
-47
-47
-47
-48
-49
-49
-51
-52
-52
-52
-53
-53
-52
-53
-53
-52
-53
-52
-52
-52
-56
-61
-63
-57
-40
-5
43
104
163
202
222
205
165
109
49
4
-23
-37
-43
-46
-46
-47
-45
-45
-46
-46
-48
-49
-50
-51
-52
-52
-52
-51
-50
-51
-50
-50
-49
-50
-48
-47
-47
-47
-48
-47
-47
-45
-44
-43
-42
-41
-41
-41
-39
-39
-37
-35
-33
-32
-31
-30
-29
-27
-26
-23
-20
-17
-15
-12
-10
-8
-5
-3
0
2
5
7
10
11
13
14
16
17
17
16
15
12
9
6
3
0
-3
-5
-7
-10
-13
-14
-16
-17
-18
-19
-20
-21
-21
-23
-24
-25
-25
-25
-26
-27
-27
-26
-26
-25
-25
-25
-26
-26
-26
-26
-26
-26
-27
-26
-25
-25
-26
-26
-26
-25
-25
-24
-24
-25
-24
-25
-24
-24
-24
-24
-24
-24
-24
-23
-24
-23
-23
-22
-23
-23
-22
-22
-21
-21
-19
-20
-20
-20
-20
-20
-21
-21
-22
-21
-21
-21
-20
-20
-20
-20
-20
-20
-19
-19
-20
-20
-20
-19
-19
-19
-20
-20
-19
-19
-18
-18
-17
-17
-16
-15
-15
-15
-14
-12
-10
-7
-5
-4
-3
-2
-1
1
4
8
9
9
9
7
6
5
5
4
3
3
2
1
1
1
1
2
3
3
4
3
4
5
6
6
7
6
1
-4
-5
2
25
69
124
190
249
292
307
286
244
181
120
73
41
27
21
18
16
16
15
15
13
10
7
5
3
1
1
0
0
0
-1
-1
-1
0
-1
0
0
1
2
2
4
4
4
5
6
6
7
8
8
9
9
11
13
14
16
17
19
20
21
23
25
27
29
32
33
36
37
40
40
43
45
47
50
51
54
56
58
60
62
62
60
60
56
55
51
50
48
45
42
38
36
33
33
30
28
27
25
24
22
21
20
19
19
19
19
19
19
18
18
17
18
18
19
19
18
19
18
17
17
17
17
17
18
17
17
16
15
14
13
14
13
13
12
11
10
9
9
9
8
7
7
7
7
6
5
6
4
4
3
3
2
2
3
2
2
2
2
1
1
1
0
0
0
0
0
0
0
0
0
0
-1
-1
-2
-1
-1
-2
-2
-2
-2
-2
-2
-1
-1
-1
-2
-2
-2
-2
-2
-1
-1
-1
-2
-2
-3
-4
-4
-4
-5
-4
-4
-4
-3
-2
0
0
1
1
2
4
6
9
12
13
13
12
11
11
10
10
10
9
10
9
9
7
7
6
6
6
7
8
8
9
10
10
10
9
6
0
-4
-2
11
43
91
151
215
272
306
309
278
229
164
108
63
37
25
19
17
14
13
10
8
6
3
1
0
-2
-3
-4
-5
-6
-7
-8
-7
-7
-7
-7
-8
-7
-9
-9
-8
-7
-7
-6
-5
-5
-5
-4
-4
-3
-2
-1
0
1
1
1
1
1
1
2
4
5
7
8
11
14
17
20
24
27
30
32
35
39
42
45
47
51
52
53
53
53
54
52
51
48
45
41
37
35
31
30
28
26
24
23
22
20
19
17
17
16
16
16
16
16
14
14
13
13
12
13
13
12
11
11
11
10
11
12
10
10
9
8
7
7
6
6
5
5
5
4
4
3
4
3
3
3
2
2
2
3
3
4
3
3
3
2
3
2
2
3
4
4
4
3
3
2
2
2
2
2
1
0
1
0
1
2
3
3
3
3
2
2
2
1
1
1
1
1
1
1
2
2
2
1
0
0
0
0
0
0
0
0
1
1
0
0
0
0
0
0
0
0
0
1
0
0
0
-1
0
0
0
0
-1
-1
-1
-2
-3
-3
-3
-2
-1
1
2
4
3
4
5
9
13
16
18
17
16
14
12
11
10
11
11
11
10
9
7
6
7
7
7
7
6
6
6
7
7
8
8
5
0
-7
-11
-5
14
54
110
168
231
270
287
270
224
170
109
63
34
20
14
11
9
8
7
5
4
1
-1
-4
-7
-8
-9
-10
-11
-12
-12
-13
-14
-15
-16
-17
-17
-17
-18
-19
-20
-21
-21
-20
-20
-19
-19
-19
-19
-18
-16
-14
-13
-11
-9
-8
-6
-6
-5
-2
-1
1
3
6
8
10
13
15
18
20
23
25
28
30
32
34
36
38
39
41
39
39
37
34
31
27
25
21
19
16
13
10
6
4
2
1
0
-1
-3
-5
-7
-9
-9
-10
-10
-11
-12
-13
-13
-13
-14
-14
-15
-16
-17
-18
-19
-19
-19
-20
-21
-22
-22
-23
-24
-24
-25
-26
-26
-26
-26
-26
-27
-28
-29
-29
-30
-30
-31
-32
-33
-33
-34
-35
-35
-36
-36
-37
-37
-38
-39
-39
-39
-39
-39
-39
-40
-41
-41
-42
-42
-43
-43
-43
-43
-44
-44
-45
-46
-46
-47
-47
-48
-48
-48
-49
-49
-49
-49
-49
-48
-49
-49
-49
-50
-50
-50
-50
-50
-50
-50
-50
-51
-51
-52
-54
-54
-55
-55
-56
-55
-57
-58
-58
-58
-56
-55
-55
-55
-55
-54
-54
-54
-54
-55
-55
-54
-53
-52
-49
-48
-47
-48
-46
-44
-41
-38
-38
-37
-39
-39
-41
-42
-43
-44
-45
-47
-48
-49
-49
-50
-50
-50
-51
-50
-50
-49
-49
-48
-48
-50
-53
-58
-63
-65
-56
-34
7
61
121
172
206
212
191
145
90
32
-7
-33
-47
-53
-55
-55
-56
-56
-55
-57
-60
-61
-63
-63
-64
-63
-64
-65
-66
-68
-67
-68
-66
-67
-66
-66
-67
-66
-68
-68
-68
-67
-68
-69
-69
-69
-69
-69
-68
-68
-67
-66
-66
-64
-62
-61
-60
-57
-57
-54
-51
-49
-47
-45
-42
-40
-37
-34
-31
-28
-25
-23
-21
-17
-14
-11
-9
-7
-6
-6
-7
-10
-12
-15
-18
-21
-24
-27
-30
-32
-34
-36
-38
-39
-41
-43
-43
-45
-46
-46
-45
-47
-47
-47
-49
-48
-49
-49
-50
-51
-51
-51
-51
-52
-52
-53
-53
-53
-53
-52
-53
-53
-54
-55
-56
-56
-56
-55
-55
-55
-55
-56
-55
-55
-55
-55
-56
-57
-57
-56
-57
-56
-55
-56
-56
-56
-57
-58
-59
-59
-59
-59
-58
-58
-59
-58
-58
-58
-57
-57
-57
-57
-57
-57
-56
-56
-55
-55
-55
-54
-55
-54
-54
-53
-52
-51
-52
-53
-52
-52
-51
-51
-51
-52
-52
-51
-50
-48
-49
-48
-49
-48
-48
-46
-45
-46
-47
-48
-48
-49
-48
-47
-44
-42
-40
-39
-39
-37
-34
-31
-29
-30
-31
-33
-34
-35
-36
-37
-37
-38
-38
-38
-38
-38
-38
-37
-36
-33
-32
-31
-30
-30
-30
-30
-32
-37
-41
-39
-25
4
54
112
172
223
246
242
204
152
94
42
8
-11
-19
-21
-23
-24
-25
-26
-29
-31
-33
-35
-35
-37
-38
-40
-39
-41
-41
-41
-42
-41
-40
-39
-40
-40
-40
-40
-39
-38
-38
-38
-38
-38
-37
-36
-34
-33
-31
-30
-29
-29
-28
-28
-27
-25
-24
-23
-21
-20
-18
-17
-14
-13
-10
-7
-4
-1
1
4
7
11
13
16
19
23
24
25
25
24
24
23
22
19
17
14
10
7
4
2
0
0
-2
-4
-6
-7
-9
-10
-11
-12
-12
-13
-14
-14
-12
-12
-12
-11
-10
-10
-11
-11
-12
-12
-12
-13
-13
-13
-13
-13
-13
-12
-13
-13
-14
-14
-14
-14
-14
-15
-15
-15
-15
-14
-14
-14
-14
-14
-15
-15
-15
-15
-14
-15
-14
-16
-16
-16
-17
-16
-16
-16
-16
-16
-17
-18
-18
-19
-19
-20
-19
-20
-20
-20
-20
-21
-21
-20
-21
-22
-21
-21
-22
-22
-21
-21
-20
-20
-21
-21
-22
-21
-21
-19
-19
-20
-21
-22
-23
-23
-24
-25
-25
-24
-24
-23
-23
-24
-24
-24
-25
-25
-24
-24
-25
-25
-26
-26
-26
-27
-27
-27
-26
-26
-25
-25
-24
-23
-23
-22
-22
-22
-21
-22
-22
-22
-22
-22
-21
-22
-22
-21
-20
-19
-17
-15
-15
-14
-14
-12
-9
-6
-5
-6
-7
-8
-10
-11
-12
-12
-12
-13
-14
-14
-14
-14
-13
-12
-11
-11
-10
-9
-8
-7
-6
-7
-10
-16
-21
-20
-8
23
69
134
195
252
282
279
246
191
129
74
36
16
8
5
4
4
2
1
-1
-3
-5
-8
-9
-11
-13
-14
-16
-17
-18
-19
-20
-21
-21
-22
-22
-23
-23
-23
-22
-22
-21
-21
-20
-19
-19
-19
-19
-17
-16
-14
-13
-11
-10
-9
-8
-6
-4
-3
0
1
4
6
9
11
14
17
20
24
27
30
34
37
39
43
48
50
53
54
55
54
53
52
49
49
46
44
40
37
34
31
28
24
23
21
20
19
18
17
15
15
15
15
14
13
12
11
11
11
10
10
9
10
10
10
9
9
8
8
8
8
8
8
7
7
8
8
9
9
8
7
7
6
6
6
6
7
7
6
6
6
6
6
6
6
5
6
6
6
5
6
6
7
7
7
6
6
6
4
4
5
5
5
6
6
5
5
4
5
5
6
6
6
6
6
6
6
7
7
8
8
7
8
8
8
8
8
8
7
7
7
7
6
6
5
5
4
4
4
4
4
5
7
8
8
9
9
8
8
8
7
8
7
8
8
7
8
8
9
9
9
9
10
10
9
9
9
9
9
9
8
8
9
9
11
12
14
13
14
16
19
23
24
24
22
22
21
20
20
20
20
20
20
18
18
18
18
19
19
19
19
21
22
22
22
22
19
13
7
2
6
25
61
116
175
237
284
302
288
250
191
135
84
52
38
30
27
25
24
23
21
20
16
14
11
8
6
5
4
1
0
-2
-3
-4
-4
-4
-5
-5
-6
-6
-6
-6
-5
-5
-4
-3
-2
-1
-1
0
0
1
0
2
3
5
5
7
8
10
11
13
15
17
19
20
23
24
26
28
30
33
35
38
39
42
44
47
49
51
52
52
52
50
48
45
41
37
34
31
28
25
22
19
16
14
13
10
8
6
4
3
1
1
0
0
-1
-2
-3
-4
-5
-4
-4
-4
-5
-6
-6
-7
-8
-8
-9
-9
-9
-10
-10
-11
-11
-11
-11
-12
-12
-13
-13
-13
-13
-13
-13
-14
-15
-16
-16
-17
-17
-19
-19
-20
-20
-18
-17
-18
-19
-20
-21
-22
-23
-22
-22
-23
-23
-25
-25
-25
-25
-25
-26
-27
-28
-28
-30
-30
-30
-29
-29
-28
-28
-30
-30
-31
-31
-32
-32
-32
-33
-34
-34
-35
-36
-36
-36
-36
-36
-37
-38
-39
-39
-40
-39
-39
-40
-40
-39
-38
-39
-39
-40
-40
-40
-41
-41
-42
-41
-42
-42
-41
-42
-42
-42
-42
-43
-43
-44
-45
-45
-44
-44
-44
-44
-43
-42
-41
-39
-40
-40
-38
-35
-32
-31
-32
-33
-34
-35
-36
-36
-37
-38
-39
-40
-40
-40
-39
-39
-39
-39
-38
-39
-40
-39
-39
-38
-40
-44
-51
-54
-48
-29
10
65
126
185
222
236
216
172
119
58
14
-15
-31
-38
-41
-42
-43
-44
-44
-46
-48
-51
-52
-53
-53
-54
-56
-55
-57
-56
-57
-57
-57
-58
-59
-61
-61
-62
-62
-62
-62
-62
-62
-61
-61
-60
-59
-58
-59
-59
-57
-55
-52
-51
-49
-47
-45
-43
-41
-40
-38
-36
-33
-30
-29
-26
-22
-19
-16
-13
-9
-6
-2
0
2
5
8
10
11
12
11
9
7
4
0
-2
-6
-9
-13
-17
-21
-24
-27
-30
-33
-35
-37
-39
-40
-41
-42
-43
-44
-45
-46
-47
-48
-49
-50
-50
-52
-52
-51
-51
-50
-50
-51
-53
-53
-53
-53
-53
-53
-55
-55
-55
-55
-54
-55
-54
-54
-54
-53
-53
-53
-55
-54
-54
-53
-53
-53
-52
-51
-50
-51
-49
-49
-49
-48
-48
-47
-47
-47
-47
-47
-46
-45
-44
-44
-43
-43
-43
-42
-40
-40
-40
-40
-40
-40
-39
-38
-38
-37
-36
-35
-35
-35
-36
-36
-35
-34
-34
-34
-34
-33
-34
-34
-34
-34
-34
-34
-34
-34
-34
-35
-35
-34
-31
-31
-30
-31
-31
-31
-31
-30
-31
-31
-31
-31
-31
-31
-31
-32
-31
-31
-31
-31
-32
-31
-31
-31
-32
-32
-30
-30
-29
-28
-27
-27
-26
-26
-24
-21
-18
-18
-19
-20
-22
-23
-24
-24
-23
-23
-23
-24
-25
-25
-24
-22
-20
-20
-18
-18
-17
-17
-16
-16
-19
-25
-31
-31
-19
12
60
126
196
254
292
289
256
200
135
79
36
12
2
-2
-5
-6
-6
-8
-9
-12
-14
-17
-20
-21
-22
-22
-23
-24
-25
-26
-27
-28
-28
-30
-30
-30
-30
-30
-30
-31
-32
-32
-31
-30
-29
-28
-28
-28
-27
-26
-25
-23
-22
-20
-18
-16
-14
-12
-10
-8
-6
-2
-1
2
4
7
9
12
16
19
23
26
30
33
36
39
42
45
46
47
47
47
45
42
39
35
31
27
25
23
20
17
13
10
7
6
4
4
3
2
1
0
0
-1
-2
-2
-3
-2
-3
-3
-3
-3
-4
-4
-4
-4
-4
-4
-3
-3
-4
-4
-5
-4
-3
-3
-3
-4
-4
-5
-6
-6
-6
-6
-6
-6
-7
-7
-6
-6
-6
-6
-6
-5
-7
-6
-6
-7
-8
-8
-7
-8
-8
-8
-7
-7
-8
-8
-8
-8
-8
-8
-8
-7
-8
-8
-8
-10
-11
-11
-11
-10
-10
-10
-10
-11
-11
-11
-10
-10
-10
-9
-9
-9
-10
-11
-10
-9
-7
-8
-8
-8
-7
-7
-8
-7
-7
-7
-7
-7
-7
-7
-7
-7
-7
-7
-6
-7
-6
-7
-7
-7
-7
-7
-7
-7
-7
-6
-5
-6
-6
-6
-6
-6
-5
-3
-5
-5
-6
-6
-5
-4
-2
-1
0
0
1
3
6
7
8
8
7
7
6
6
6
7
7
7
7
7
7
7
7
8
10
11
13
14
15
16
15
14
9
4
0
3
21
55
109
168
231
282
307
300
268
212
152
98
59
38
28
25
23
21
20
18
17
14
11
8
7
7
5
4
3
1
0
-1
-1
-3
-4
-5
-6
-7
-7
-7
-7
-6
-5
-3
-2
-2
-1
0
0
1
3
4
6
7
8
10
12
15
17
18
20
22
24
26
28
30
33
36
40
43
48
50
54
57
60
64
67
71
71
73
72
72
70
68
67
62
60
55
52
47
43
40
36
34
31
29
27
25
24
23
22
20
20
19
18
16
15
15
14
14
14
14
13
12
12
11
11
11
11
11
11
11
11
10
10
9
9
9
8
8
7
7
7
7
7
7
8
7
6
6
4
3
3
3
2
2
2
2
1
1
0
0
0
0
0
0
-1
-2
-2
-2
-4
-3
-3
-4
-5
-5
-5
-6
-7
-7
-7
-7
-8
-9
-9
-9
-9
-9
-9
-10
-11
-10
-10
-11
-11
-11
-11
-12
-12
-11
-13
-13
-14
-14
-14
-14
-14
-14
-15
-16
-17
-19
-19
-19
-19
-19
-19
-19
-19
-19
-19
-19
-19
-20
-21
-22
-22
-23
-24
-26
-26
-26
-27
-28
-29
-29
-29
-28
-26
-25
-25
-25
-24
-21
-17
-15
-14
-14
-14
-16
-17
-17
-19
-20
-20
-21
-22
-23
-23
-24
-25
-24
-24
-23
-23
-22
-21
-20
-21
-22
-26
-32
-37
-36
-23
5
52
115
175
224
253
244
212
158
99
47
7
-13
-23
-27
-29
-30
-31
-32
-34
-36
-39
-41
-44
-45
-46
-48
-49
-49
-51
-53
-53
-54
-55
-55
-56
-57
-59
-59
-60
-59
-58
-58
-57
-57
-56
-56
-54
-54
-53
-52
-50
-49
-49
-47
-46
-45
-43
-41
-40
-38
-35
-33
-30
-28
-25
-22
-20
-18
-17
-14
-11
-8
-4
0
1
3
3
3
3
2
0
-2
-4
-7
-10
-14
-17
-20
-24
-26
-29
-30
-32
-35
-37
-39
-41
-43
-44
-45
-46
-47
-48
-49
-50
-50
-51
-52
-52
-52
-53
-54
-55
-56
-56
-57
-57
-57
-59
-59
-60
-59
-59
-59
-59
-59
-60
-61
-61
-62
-61
-63
-62
-63
-63
-64
-64
-64
-64
-63
-65
-65
-65
-65
-65
-66
-65
-66
-66
-67
-67
-67
-68
-67
-68
-67
-67
-65
-64
-63
-63
-63
-63
-65
-65
-65
-64
-63
-63
-62
-63
-63
-64
-63
-63
-62
-62
-62
-62
-62
-61
-61
-61
-61
-60
-61
-61
-60
-61
-61
-61
-59
-60
-60
-59
-60
-59
-60
-60
-60
-60
-61
-61
-59
-59
-59
-59
-58
-58
-58
-57
-57
-56
-57
-56
-58
-58
-59
-57
-55
-53
-51
-52
-52
-53
-50
-47
-44
-42
-42
-42
-44
-43
-44
-44
-44
-43
-43
-44
-44
-45
-45
-45
-44
-43
-42
-41
-41
-40
-39
-39
-39
-41
-45
-51
-51
-41
-15
30
94
154
215
249
256
228
177
117
58
15
-8
-20
-24
-27
-28
-29
-29
-29
-30
-31
-33
-35
-36
-37
-38
-38
-38
-38
-38
-38
-38
-38
-38
-38
-38
-38
-38
-37
-37
-37
-38
-38
-38
-38
-37
-36
-35
-35
-33
-32
-31
-29
-27
-25
-23
-21
-18
-16
-14
-12
-10
-7
-4
-2
0
4
8
12
15
18
22
25
30
33
37
40
42
44
45
45
44
42
41
38
35
31
27
24
21
19
16
13
10
8
7
5
3
2
1
0
-1
-1
-1
-1
-1
-1
-1
-1
-2
-3
-2
-2
-1
-1
-1
-1
-1
-1
-2
-2
-1
0
0
-1
-1
-2
-3
-3
-3
-3
-3
-3
-3
-3
-2
-3
-4
-3
-3
-3
-2
-2
-3
-3
-4
-4
-3
-2
-2
-2
-3
-4
-4
-4
-4
-4
-4
-3
-3
-3
-3
-4
-5
-4
-3
-3
-2
-3
-3
-4
-4
-4
-3
-2
-2
-2
-3
-3
-3
-2
-2
-1
-1
-1
-1
0
0
1
1
0
1
0
1
1
1
1
2
2
3
4
4
4
5
4
3
3
3
4
4
5
4
5
5
5
5
6
7
5
5
4
4
5
8
10
11
12
13
15
18
20
20
20
19
18
18
17
17
16
17
18
18
18
18
19
19
19
20
20
21
21
22
23
23
21
19
13
7
7
21
53
109
176
248
311
339
337
299
234
168
106
69
47
39
36
34
33
32
30
26
23
20
18
16
15
15
14
13
11
10
9
9
11
10
10
8
6
5
4
3
3
3
3
3
4
4
4
5
6
7
9
10
12
13
15
17
18
20
22
24
26
29
32
35
39
42
46
49
52
54
58
60
63
66
69
73
77
81
82
84
82
81
79
77
75
71
69
64
61
57
53
50
46
44
42
41
38
36
34
32
31
28
28
27
26
24
23
23
21
21
20
20
20
19
19
18
17
17
17
17
17
16
15
15
15
15
14
15
14
14
14
13
12
11
11
11
11
11
11
10
11
11
10
11
11
12
12
11
11
10
10
10
10
10
9
9
9
9
9
10
10
9
9
8
7
6
6
5
6
5
6
6
6
6
6
6
5
6
6
6
5
5
6
4
5
5
5
4
4
4
2
1
1
2
3
3
3
2
2
1
2
1
0
0
0
0
0
0
0
0
0
0
1
0
0
0
-1
-1
0
0
0
0
-1
-1
-1
0
1
3
3
3
4
7
10
12
13
11
11
9
8
7
6
7
6
6
5
5
5
5
6
6
7
6
6
7
8
8
9
9
5
0
-6
-10
-5
17
57
114
179
238
289
303
290
247
184
124
70
37
20
13
10
9
8
6
4
1
-2
-6
-9
-11
-13
-15
-16
-17
-18
-19
-20
-22
-24
-26
-27
-28
-28
-30
-31
-32
-33
-32
-31
-31
-31
-31
-31
-30
-29
-27
-25
-22
-20
-19
-18
-17
-16
-13
-11
-8
-7
-5
-2
0
2
5
9
13
17
21
23
24
28
31
34
37
38
40
39
39
37
36
35
31
29
24
20
16
13
9
6
4
2
0
-2
-3
-6
-8
-9
-11
-12
-12
-13
-14
-15
-16
-18
-19
-19
-19
-20
-20
-22
-23
-24
-25
-25
-25
-24
-24
-24
-25
-26
-27
-28
-29
-29
-29
-29
-29
-29
-31
-32
-32
-32
-32
-32
-32
-33
-33
-34
-35
-36
-37
-38
-38
-38
-40
-41
-41
-42
-42
-42
-42
-42
-42
-42
-42
-44
-45
-45
-46
-46
-46
-45
-46
-46
-46
-46
-47
-47
-47
-48
-48
-48
-48
-49
-50
-50
-50
-49
-50
-49
-49
-50
-51
-51
-51
-50
-50
-50
-50
-50
-50
-51
-51
-51
-52
-52
-53
-53
-53
-53
-52
-52
-52
-52
-53
-53
-53
-53
-53
-53
-53
-54
-55
-55
-57
-58
-58
-59
-58
-58
-57
-57
-56
-55
-53
-51
-50
-49
-46
-42
-39
-38
-37
-39
-39
-41
-42
-44
-45
-46
-46
-47
-48
-48
-49
-48
-49
-48
-48
-48
-47
-46
-45
-45
-45
-48
-53
-58
-59
-50
-27
16
73
140
197
242
255
236
190
132
67
18
-14
-31
-40
-43
-45
-46
-46
-47
-48
-50
-53
-56
-57
-58
-58
-59
-58
-60
-61
-61
-61
-61
-62
-61
-63
-64
-64
-65
-64
-64
-63
-63
-62
-62
-61
-58
-57
-56
-55
-53
-53
-51
-49
-49
-48
-48
-45
-42
-39
-36
-34
-31
-28
-25
-23
-20
-17
-14
-11
-6
-2
0
3
6
10
13
16
19
20
17
15
13
10
6
3
0
-4
-7
-12
-16
-19
-21
-23
-24
-26
-28
-31
-33
-34
-35
-35
-34
-35
-36
-36
-36
-37
-38
-37
-37
-37
-38
-39
-39
-41
-40
-39
-39
-39
-40
-40
-41
-41
-41
-40
-41
-40
-39
-39
-39
-40
-41
-42
-41
-40
-39
-38
-38
-38
-38
-38
-37
-36
-36
-35
-35
-35
-35
-35
-35
-34
-34
-33
-32
-32
-33
-33
-33
-33
-33
-32
-33
-32
-32
-32
-33
-32
-32
-32
-32
-32
-32
-31
-32
-32
-31
-30
-29
-29
-28
-29
-29
-28
-27
-27
-26
-26
-26
-26
-26
-26
-27
-27
-27
-27
-27
-27
-27
-26
-26
-26
-26
-26
-25
-25
-24
-24
-24
-24
-25
-25
-24
-23
-21
-20
-18
-16
-14
-13
-12
-9
-5
-2
0
0
0
-2
-2
-3
-4
-4
-4
-5
-6
-7
-6
-7
-6
-5
-5
-5
-5
-5
-4
-3
-3
-2
-4
-9
-15
-17
-10
11
53
112
184
243
291
299
272
222
155
98
53
27
16
11
9
7
6
5
3
0
0
-1
-3
-5
-6
-7
-7
-8
-9
-9
-9
-10
-11
-10
-10
-10
-9
-8
-7
-7
-7
-7
-7
-6
-6
-6
-6
-6
-5
-5
-4
-2
-1
0
2
3
5
7
7
9
11
14
17
20
24
26
28
30
34
38
42
45
48
51
53
56
58
61
62
64
64
63
61
58
56
52
49
47
44
41
38
35
31
28
25
24
22
21
19
18
17
16
16
16
16
15
14
13
13
12
11
11
11
11
10
9
9
8
7
6
6
5
6
6
5
5
3
3
2
3
3
3
4
3
2
1
0
0
-1
0
-1
-1
0
0
0
0
0
0
0
-1
-2
-3
-4
-5
-4
-5
-6
-6
-7
-7
-7
-7
-6
-6
-6
-6
-6
-5
-5
-4
-3
-3
-3
-3
-4
-4
-4
-4
-4
-3
-2
-2
-3
-3
-2
-3
-3
-3
-3
-3
-3
-2
-4
-4
-5
-5
-5
-4
-3
-2
0
0
2
3
4
4
5
6
5
6
7
8
9
11
14
15
16
15
18
20
23
24
22
21
19
17
15
14
13
12
11
10
10
9
8
8
8
9
9
10
10
10
10
11
11
8
1
-5
-7
0
22
64
123
189
253
297
311
293
249
189
124
75
40
24
18
15
15
13
12
11
8
4
2
2
0
0
-1
-2
-4
-5
-6
-6
-5
-6
-6
-6
-7
-8
-8
-8
-8
-7
-6
-6
-6
-7
-6
-8
-8
-8
-8
-7
-7
-6
-7
-6
-6
-4
-3
-1
1
4
6
7
9
11
14
17
21
24
27
30
34
37
40
44
45
47
47
46
44
42
40
37
35
32
29
25
20
16
12
10
7
5
3
0
-2
-4
-5
-6
-7
-7
-8
-8
-9
-9
-10
-10
-11
-11
-11
-12
-13
-13
-13
-15
-15
-16
-16
-17
-18
-18
-20
-22
-22
-23
-23
-24
-23
-25
-26
-27
-27
-27
-28
-29
-29
-29
-30
-30
-31
-31
-31
-30
-30
-30
-31
-31
-31
-31
-31
-32
-32
-33
-33
-34
-34
-33
-34
-34
-35
-36
-36
-37
-37
-38
-38
-38
-38
-38
-37
-37
-37
-38
-38
-38
-38
-37
-37
-36
-35
-36
-35
-34
-33
-32
-31
-30
-30
-31
-31
-32
-32
-33
-33
-34
-34
-33
-32
-30
-28
-27
-26
-25
-26
-23
-22
-20
-19
-20
-21
-23
-25
-27
-28
-30
-32
-33
-36
-37
-38
-37
-36
-37
-37
-37
-37
-38
-37
-37
-37
-37
-39
-43
-50
-54
-50
-32
4
60
122
185
228
250
238
201
147
89
35
-1
-23
-32
-36
-38
-39
-38
-40
-41
-42
-46
-48
-49
-49
-51
-52
-52
-53
-53
-55
-55
-56
-55
-56
-57
-57
-58
-57
-57
-57
-58
-57
-56
-55
-55
-55
-53
-54
-53
-53
-52
-51
-50
-49
-50
-49
-48
-46
-44
-42
-40
-39
-38
-36
-33
-30
-27
-25
-22
-20
-17
-15
-10
-7
-5
-2
-1
-1
-2
-4
-6
-8
-10
-12
-16
-20
-25
-28
-32
-34
-36
-37
-40
-43
-44
-45
-46
-47
-47
-49
-50
-51
-53
-53
-54
-53
-54
-54
-54
-55
-55
-56
-55
-56
-55
-56
-55
-55
-57
-57
-58
-58
-59
-58
-58
-58
-58
-59
-60
-60
-60
-61
-60
-60
-60
-61
-62
-62
-64
-63
-63
-62
-61
-61
-62
-63
-62
-62
-62
-61
-60
-62
-63
-64
-64
-64
-65
-65
-65
-66
-66
-66
-65
-66
-66
-66
-65
-65
-64
-64
-65
-64
-64
-63
-63
-62
-60
-59
-57
-57
-56
-57
-57
-58
-58
-56
-54
-52
-51
-50
-50
-49
-48
-46
-43
-40
-38
-39
-40
-41
-43
-43
-43
-44
-45
-46
-47
-47
-47
-48
-47
-47
-46
-46
-46
-46
-45
-44
-43
-43
-46
-50
-56
-58
-50
-25
17
80
142
203
241
249
223
172
110
49
5
-18
-32
-37
-39
-40
-41
-40
-40
-42
-42
-45
-46
-48
-48
-48
-49
-49
-49
-48
-50
-50
-50
-50
-50
-50
-49
-49
-47
-48
-47
-45
-45
-44
-43
-42
-42
-41
-41
-40
-39
-37
-36
-34
-32
-31
-29
-26
-24
-22
-20
-17
-14
-11
-8
-5
-2
0
2
6
9
12
15
18
21
22
24
25
26
25
24
23
21
18
15
11
7
3
0
-3
-5
-8
-10
-12
-13
-15
-16
-17
-19
-19
-18
-18
-18
-20
-20
-22
-22
-23
-23
-23
-23
-23
-23
-23
-23
-22
-22
-22
-23
-24
-24
-24
-24
-24
-26
-25
-25
-24
-25
-25
-24
-24
-24
-24
-25
-25
-25
-25
-25
-25
-25
-25
-25
-26
-27
-27
-27
-27
-26
-26
-28
-28
-29
-29
-29
-29
-28
-28
-28
-28
-28
-28
-28
-27
-28
-28
-28
-29
-29
-30
-29
-29
-28
-28
-28
-28
-28
-27
-27
-27
-27
-26
-25
-25
-24
-24
-24
-25
-24
-23
-20
-18
-15
-13
-11
-10
-10
-8
-4
0
3
4
2
0
-2
-3
-3
-3
-2
-3
-3
-4
-6
-8
-8
-8
-8
-7
-7
-7
-6
-5
-6
-5
-4
-4
-5
-9
-16
-21
-18
-2
30
83
145
215
270
310
310
281
229
162
103
56
28
14
8
4
2
1
0
-1
-3
-4
-6
-9
-11
-12
-13
-14
-13
-12
-13
-13
-13
-13
-13
-13
-14
-13
-12
-12
-11
-11
-11
-10
-10
-9
-8
-6
-5
-4
-3
-2
-2
0
0
2
3
5
7
8
10
12
15
17
21
23
25
28
30
34
36
40
42
45
49
51
55
55
58
56
56
55
53
51
48
45
40
37
33
30
27
25
22
19
17
15
15
14
14
12
11
11
11
11
11
10
9
8
8
7
8
8
8
7
7
7
7
7
7
8
7
6
5
5
4
4
5
3
4
3
3
2
2
2
1
1
0
0
0
0
0
0
-1
-1
-2
-2
-1
-1
-1
-1
-2
-2
-2
-2
-2
-2
-1
-2
-2
-3
-4
-4
-4
-4
-4
-4
-5
-5
-5
-5
-4
-3
-4
-4
-4
-4
-5
-5
-5
-5
-6
-6
-5
-5
-5
-6
-7
-7
-7
-6
-6
-6
-5
-6
-6
-6
-7
-6
-5
-5
-5
-4
-5
-5
-5
-6
-5
-4
-1
0
1
2
2
2
3
6
9
11
11
10
7
6
4
2
2
1
1
0
-1
-3
-4
-3
-2
-1
-1
-1
-1
0
0
1
2
4
4
3
-1
-7
-9
-1
22
68
128
194
258
300
309
290
237
176
113
64
36
22
18
15
13
11
9
7
4
3
0
-2
-4
-6
-7
-8
-9
-10
-11
-12
-12
-13
-13
-12
-13
-13
-13
-13
-14
-14
-13
-13
-12
-12
-12
-12
-12
-12
-12
-11
-11
-11
-11
-10
-10
-8
-6
-5
-3
0
2
5
8
11
14
18
22
26
29
32
35
39
42
45
47
49
51
51
52
50
48
45
43
39
37
36
32
30
27
25
21
19
18
16
16
15
14
12
10
9
8
8
8
8
7
7
7
6
6
5
5
5
6
6
5
5
3
3
3
3
2
2
1
2
3
3
2
0
0
0
0
-1
-2
-3
-3
-2
-3
-3
-3
-3
-4
-4
-4
-4
-3
-2
-2
-3
-3
-3
-4
-4
-4
-4
-3
-3
-3
-3
-3
-3
-3
-4
-4
-4
-4
-4
-4
-4
-5
-5
-5
-4
-4
-3
-2
-3
-2
-3
-2
-3
-3
-3
-3
-3
-3
-3
-3
-3
-2
-2
-1
-1
-1
-1
-2
-2
-2
0
-1
-2
-3
-4
-4
-4
-3
-3
-3
-3
-3
-3
-4
-4
-3
-2
-3
-3
-2
-2
-3
-2
-2
-1
-1
-2
-2
-2
-2
-3
-3
-2
0
1
3
4
4
4
4
6
10
12
13
13
12
10
9
8
8
8
8
7
5
4
4
5
6
7
8
9
11
11
12
12
13
13
12
9
3
-1
-2
8
37
86
145
212
267
301
303
271
222
156
100
59
36
27
23
22
20
19
16
13
10
8
6
4
2
0
-2
-5
-7
-9
-11
-11
-12
-13
-13
-13
-12
-11
-11
-11
-11
-10
-10
-8
-7
-5
-5
-3
-3
-2
-1
0
0
2
5
6
8
10
12
12
15
17
19
21
24
27
29
33
35
39
43
46
49
52
55
57
60
61
62
62
61
60
57
55
52
49
45
41
38
34
30
27
24
21
18
15
14
12
11
10
9
8
7
6
6
6
5
4
4
4
3
3
2
3
2
1
0
0
0
0
0
0
0
0
0
-1
-1
-2
-3
-3
-5
-5
-5
-5
-5
-6
-6
-8
-7
-8
-8
-8
-8
-8
-9
-11
-12
-12
-12
-13
-13
-12
-13
-14
-15
-15
-15
-15
-14
-15
-15
-16
-18
-18
-19
-19
-19
-19
-19
-20
-20
-21
-21
-22
-23
-23
-23
-23
-23
-23
-23
-23
-23
-24
-24
-25
-26
-26
-26
-27
-27
-27
-27
-27
-27
-26
-27
-27
-27
-28
-28
-29
-30
-30
-29
-30
-31
-30
-30
-29
-30
-30
-32
-32
-32
-32
-31
-32
-31
-31
-30
-31
-31
-31
-31
-30
-29
-26
-24
-23
-23
-23
-23
-20
-17
-14
-14
-14
-16
-18
-20
-22
-24
-25
-25
-26
-26
-28
-30
-31
-31
-31
-31
-32
-32
-32
-31
-31
-30
-30
-33
-38
-45
-45
-36
-9
34
97
157
214
247
250
225
175
116
57
13
-12
-26
-32
-35
-35
-36
-37
-38
-39
-41
-44
-45
-46
-48
-49
-51
-50
-52
-53
-54
-55
-56
-58
-59
-60
-60
-61
-59
-58
-58
-57
-57
-56
-56
-55
-54
-53
-53
-52
-51
-50
-48
-46
-45
-43
-40
-39
-37
-34
-32
-29
-26
-23
-20
-16
-13
-11
-7
-3
0
3
7
10
14
15
18
19
19
19
18
16
14
11
8
5
1
-2
-5
-9
-12
-16
-17
-18
-19
-21
-25
-27
-30
-31
-33
-34
-34
-35
-36
-37
-38
-38
-38
-39
-41
-41
-41
-42
-42
-43
-43
-43
-44
-45
-44
-44
-45
-46
-46
-47
-48
-48
-48
-48
-48
-47
-49
-49
-49
-50
-50
-51
-51
-52
-52
-52
-52
-52
-52
-52
-52
-51
-51
-51
-51
-52
-52
-52
-51
-52
-53
-52
-52
-52
-53
-52
-53
-52
-51
-51
-51
-52
-52
-52
-52
-53
-53
-52
-51
-52
-52
-51
-52
-51
-51
-50
-49
-49
-49
-49
-50
-50
-50
-49
-49
-48
-48
-47
-47
-48
-48
-49
-50
-51
-52
-51
-48
-46
-45
-43
-41
-41
-40
-37
-34
-30
-28
-27
-29
-29
-31
-33
-34
-36
-37
-39
-41
-43
-45
-44
-43
-41
-40
-40
-40
-40
-40
-39
-38
-38
-38
-41
-47
-52
-51
-36
-4
49
114
177
233
261
256
221
160
99
40
3
-15
-23
-26
-27
-28
-28
-29
-31
-32
-35
-37
-38
-39
-40
-40
-41
-41
-40
-40
-40
-40
-40
-40
-39
-39
-39
-39
-38
-38
-37
-36
-36
-35
-35
-33
-33
-32
-31
-30
-28
-27
-25
-25
-25
-24
-24
-23
-22
-20
-18
-14
-12
-10
-7
-5
-1
2
7
10
14
18
21
24
28
32
35
37
38
38
38
37
34
32
28
25
21
17
13
10
7
3
1
0
-2
-4
-6
-6
-9
-10
-10
-11
-13
-13
-12
-12
-12
-13
-14
-14
-14
-15
-15
-15
-16
-16
-17
-16
-16
-16
-16
-17
-18
-19
-20
-20
-20
-20
-20
-20
-20
-20
-21
-21
-22
-22
-22
-23
-23
-23
-23
-24
-24
-24
-24
-24
-24
-24
-23
-23
-23
-24
-24
-24
-24
-24
-24
-25
-26
-26
-26
-26
-26
-26
-26
-26
-27
-27
-26
-25
-25
-25
-25
-26
-26
-27
-27
-26
-25
-24
-25
-24
-25
-26
-25
-24
-24
-24
-24
-23
-23
-23
-23
-23
-23
-22
-23
-24
-23
-23
-22
-23
-22
-22
-23
-23
-23
-23
-24
-24
-25
-24
-23
-21
-18
-15
-13
-11
-11
-10
-8
-6
-3
-1
-1
-3
-5
-7
-8
-8
-9
-8
-8
-9
-10
-11
-11
-11
-12
-12
-12
-11
-10
-10
-9
-9
-8
-10
-15
-22
-25
-18
4
49
110
176
244
285
300
275
223
158
93
45
19
7
3
1
0
-1
-3
-6
-8
-11
-13
-15
-17
-18
-20
-20
-21
-22
-22
-23
-23
-24
-23
-24
-23
-23
-23
-23
-23
-23
-24
-24
-23
-23
-23
-22
-21
-21
-21
-21
-20
-19
-17
-15
-14
-12
-10
-9
-6
-3
0
3
6
10
14
17
20
23
28
31
35
38
41
43
45
48
48
49
48
47
44
42
39
36
33
28
25
21
18
15
12
9
6
4
2
1
0
-1
-1
-3
-3
-3
-4
-5
-6
-8
-10
-10
-11
-11
-12
-12
-12
-12
-12
-12
-12
-13
-14
-14
-14
-15
-15
-14
-14
-15
-16
-16
-17
-18
-18
-18
-19
-19
-20
-22
-24
-24
-24
-23
-23
-23
-22
-22
-23
-24
-25
-25
-26
-26
-26
-26
-27
-27
-28
-28
-27
-26
-27
-27
-28
-29
-29
-29
-29
-28
-27
-28
-28
-29
-29
-29
-30
-30
-30
-30
-30
-30
-30
-30
-29
-30
-29
-30
-30
-30
-29
-29
-28
-27
-27
-26
-24
-24
-23
-22
-21
-20
-20
-19
-19
-20
-19
-20
-19
-19
-19
-19
-19
-18
-19
-18
-17
-17
-17
-16
-14
-11
-8
-7
-8
-10
-12
-14
-13
-14
-15
-16
-15
-16
-17
-18
-18
-19
-19
-18
-17
-17
-16
-16
-16
-16
-18
-23
-30
-34
-29
-10
30
89
155
219
266
282
268
221
166
101
49
16
0
-5
-9
-10
-12
-13
-15
-18
-20
-21
-23
-24
-26
-27
-27
-28
-28
-29
-30
-32
-32
-33
-33
-33
-32
-33
-33
-33
-33
-33
-34
-33
-34
-34
-34
-35
-34
-34
-33
-34
-33
-32
-32
-30
-29
-27
-25
-22
-21
-18
-16
-14
-12
-9
-6
-4
0
2
5
8
12
15
19
22
24
26
28
29
29
27
25
22
20
18
14
10
7
3
0
-3
-5
-7
-8
-8
-10
-13
-15
-16
-16
-17
-17
-16
-15
-16
-19
-20
-21
-21
-21
-20
-22
-23
-23
-23
-22
-23
-22
-24
-24
-24
-24
-24
-25
-25
-26
-26
-26
-26
-27
-28
-27
-27
-26
-27
-28
-28
-29
-29
-29
-29
-29
-29
-29
-30
-30
-30
-30
-30
-30
-31
-31
-31
-31
-31
-32
-32
-31
-30
-30
-30
-30
-29
-29
-29
-28
-27
-26
-25
-23
-24
-23
-23
-23
-23
-23
-22
-23
-23
-22
-22
-22
-22
-21
-21
-21
-22
-23
-23
-22
-21
-20
-18
-17
-16
-15
-14
-12
-10
-7
-6
-7
-9
-10
-12
-13
-15
-16
-16
-18
-19
-19
-20
-19
-19
-19
-19
-18
-17
-17
-17
-15
-15
-16
-19
-24
-31
-34
-28
-7
34
92
157
217
257
267
246
199
139
81
36
12
1
-2
-3
-5
-6
-7
-9
-12
-15
-16
-18
-19
-19
-20
-21
-22
-23
-23
-23
-23
-23
-23
-23
-23
-24
-23
-23
-23
-22
-22
-21
-21
-19
-20
-20
-19
-18
-17
-16
-14
-12
-11
-9
-8
-5
-4
-1
0
2
4
5
7
9
11
13
14
17
19
22
24
26
29
32
35
38
41
41
40
39
37
37
34
31
28
25
21
18
16
13
11
8
6
3
2
1
-1
-2
-3
-3
-4
-5
-5
-5
-5
-5
-5
-4
-4
-3
-3
-3
-4
-4
-2
-2
-2
-2
-2
-2
-2
-2
-2
-2
-2
-4
-5
-5
-5
-5
-6
-5
-5
-5
-5
-6
-6
-6
-6
-7
-6
-6
-6
-6
-7
-8
-7
-7
-8
-9
-9
-8
-7
-7
-7
-8
-8
-9
-9
-9
-9
-9
-10
-9
-9
-9
-9
-9
-9
-9
-7
-8
-8
-7
-5
-5
-4
-2
-2
0
1
4
6
8
8
9
12
14
17
18
18
16
15
13
12
12
11
11
10
10
8
7
6
6
5
4
3
3
3
3
4
6
5
3
0
-6
-12
-11
1
30
79
138
203
256
288
286
257
205
149
93
53
29
18
14
12
11
9
8
5
2
1
0
-1
-2
-3
-3
-4
-4
-5
-6
-6
-7
-6
-7
-7
-7
-7
-6
-4
-4
-3
-2
-2
-1
-1
-1
0
0
2
3
3
4
5
5
7
8
10
12
13
15
17
19
20
22
24
27
29
31
34
37
41
43
46
48
50
52
54
56
54
53
51
49
45
41
39
34
32
28
25
23
20
17
15
14
13
12
11
10
9
10
11
11
11
10
9
9
9
9
8
8
7
7
6
6
6
5
5
4
4
3
3
2
2
3
2
1
1
0
0
0
0
-1
-1
-2
-3
-3
-3
-4
-6
-7
-7
-8
-9
-9
-10
-10
-10
-10
-10
-11
-12
-13
-12
-13
-13
-13
-13
-12
-13
-13
-15
-15
-15
-15
-15
-16
-16
-17
-17
-16
-15
-15
-15
-15
-15
-15
-16
-16
-16
-17
-16
-16
-15
-16
-15
-14
-14
-13
-12
-11
-11
-11
-10
-10
-9
-8
-8
-9
-10
-11
-11
-11
-10
-8
-5
-4
-4
-5
-4
-2
0
3
2
0
-2
-3
-6
-7
-6
-7
-7
-9
-11
-13
-14
-16
-17
-16
-17
-16
-15
-15
-15
-15
-15
-16
-18
-23
-31
-36
-34
-19
11
60
118
181
224
249
238
201
149
87
38
6
-10
-16
-18
-19
-21
-21
-22
-24
-26
-28
-30
-32
-33
-35
-36
-36
-37
-37
-38
-39
-40
-40
-41
-41
-41
-41
-40
-40
-39
-39
-39
-39
-38
-38
-38
-38
-38
-37
-37
-36
-36
-35
-35
-35
-35
-34
-34
-33
-31
-29
-27
-25
-22
-20
-18
-14
-11
-7
-4
-1
1
6
10
12
14
15
16
16
16
15
13
10
7
3
0
-2
-5
-9
-12
-16
-19
-21
-23
-25
-27
-28
-30
-31
-33
-35
-36
-37
-37
-38
-38
-39
-39
-40
-41
-43
-44
-45
-46
-46
-47
-47
-47
-47
-47
-48
-48
-49
-49
-50
-50
-52
-53
-52
-53
-53
-54
-55
-56
-57
-58
-58
-58
-59
-59
-59
-59
-59
-60
-61
-62
-61
-61
-61
-62
-62
-61
-63
-62
-64
-63
-65
-64
-63
-64
-64
-65
-64
-65
-65
-66
-66
-65
-65
-64
-65
-65
-65
-65
-64
-64
-64
-64
-64
-66
-65
-65
-66
-66
-66
-66
-67
-66
-66
-64
-62
-59
-57
-56
-54
-55
-53
-52
-48
-45
-41
-41
-41
-42
-43
-44
-44
-44
-46
-47
-48
-50
-50
-51
-50
-50
-50
-50
-50
-49
-49
-49
-49
-48
-48
-49
-52
-58
-59
-54
-34
3
54
115
171
210
230
213
178
124
64
18
-14
-30
-38
-42
-44
-45
-45
-44
-45
-46
-48
-50
-52
-52
-53
-53
-53
-52
-53
-53
-53
-54
-54
-53
-52
-52
-52
-51
-51
-50
-50
-50
-49
-47
-47
-46
-45
-44
-44
-43
-42
-41
-40
-38
-37
-35
-34
-32
-30
-28
-26
-23
-21
-19
-16
-14
-12
-10
-7
-5
-2
0
3
6
9
11
12
13
13
13
12
9
6
2
0
-4
-6
-8
-11
-14
-16
-18
-20
-21
-22
-22
-24
-24
-25
-26
-27
-27
-28
-29
-29
-29
-29
-29
-29
-28
-28
-29
-29
-29
-28
-28
-28
-28
-28
-29
-29
-28
-28
-28
-28
-28
-29
-28
-28
-28
-28
-28
-27
-29
-30
-29
-30
-30
-30
-30
-31
-30
-30
-31
-31
-31
-31
-31
-32
-33
-34
-33
-33
-32
-32
-32
-32
-32
-32
-32
-32
-31
-32
-32
-31
-32
-32
-32
-33
-34
-33
-32
-32
-31
-31
-31
-31
-30
-30
-30
-30
-30
-30
-29
-29
-30
-29
-28
-28
-28
-28
-27
-27
-28
-28
-28
-27
-27
-26
-26
-25
-24
-24
-23
-23
-23
-23
-21
-21
-20
-19
-17
-14
-13
-13
-12
-10
-7
-4
-3
-2
-3
-3
-3
-4
-4
-5
-5
-5
-5
-6
-6
-7
-7
-7
-7
-7
-7
-7
-6
-5
-4
-5
-6
-11
-17
-20
-14
5
42
98
158
218
261
277
257
215
155
99
52
23
10
5
3
1
0
-1
-3
-6
-9
-11
-12
-13
-14
-14
-15
-17
-18
-18
-18
-18
-18
-18
-19
-19
-19
-18
-18
-18
-16
-17
-16
-16
-16
-15
-15
-15
-15
-15
-16
-15
-13
-12
-10
-8
-7
-5
-3
-1
0
1
3
6
9
12
15
17
20
24
27
31
34
37
39
41
44
45
46
45
45
43
41
38
36
33
29
26
23
21
19
16
15
12
11
8
7
6
6
5
5
4
3
3
3
2
1
1
1
0
0
-1
-2
-2
-2
-1
-1
-1
-2
-2
-2
-2
-3
-3
-4
-5
-4
-4
-4
-4
-4
-5
-5
-5
-5
-5
-5
-5
-5
-6
-6
-5
-6
-6
-5
-6
-6
-6
-6
-6
-6
-6
-6
-7
-9
-9
-9
-9
-10
-9
-9
-9
-9
-9
-9
-9
-9
-8
-9
-8
-8
-9
-9
-10
-10
-10
-10
-10
-10
-10
-10
-10
-10
-10
-10
-10
-11
-12
-12
-12
-11
-12
-11
-10
-10
-11
-11
-11
-11
-12
-11
-11
-11
-11
-11
-11
-11
-11
-11
-11
-11
-11
-11
-11
-11
-11
-12
-13
-13
-12
-12
-10
-9
-8
-7
-6
-4
-4
-2
0
2
3
2
0
0
-1
-3
-4
-4
-5
-6
-7
-7
-9
-9
-9
-8
-7
-5
-4
-3
-2
-1
0
0
0
-4
-10
-14
-12
1
35
87
149
215
261
284
273
230
177
113
65
34
20
14
11
10
9
8
5
2
0
-3
-5
-6
-6
-7
-8
-10
-10
-10
-10
-11
-11
-11
-12
-13
-13
-14
-15
-16
-15
-16
-15
-15
-15
-15
-15
-14
-13
-13
-12
-10
-8
-7
-6
-5
-4
-3
-1
0
3
5
8
11
12
14
17
21
24
27
30
34
37
39
43
45
48
48
50
49
47
45
42
40
36
35
32
29
26
23
20
17
15
13
11
9
9
8
7
7
6
5
5
4
4
4
3
2
3
2
2
1
0
0
0
1
0
0
0
0
0
0
1
0
0
0
0
0
0
-1
-1
-1
-2
-3
-3
-3
-3
-3
-2
-3
-2
-2
-2
-2
-2
-1
-2
-2
-3
-4
-4
-3
-3
-4
-4
-4
-4
-5
-5
-6
-6
-6
-6
-6
-7
-8
-7
-7
-7
-8
-9
-9
-9
-9
-9
-9
-8
-8
-8
-8
-8
-8
-8
-8
-9
-9
-10
-10
-11
-10
-9
-10
-10
-11
-11
-12
-12
-11
-12
-13
-13
-13
-12
-12
-12
-12
-11
-12
-12
-12
-12
-12
-11
-11
-11
-12
-11
-12
-12
-12
-11
-12
-12
-12
-13
-13
-13
-13
-14
-15
-16
-16
-17
-17
-17
-16
-15
-14
-14
-13
-13
-10
-6
-3
-3
-4
-5
-5
-6
-6
-7
-7
-8
-9
-10
-11
-11
-11
-11
-12
-12
-12
-12
-12
-12
-11
-11
-12
-15
-21
-28
-29
-19
3
47
103
169
220
254
254
224
178
117
61
22
0
-8
-11
-12
-14
-14
-16
-18
-21
-24
-26
-30
-32
-34
-35
-37
-38
-39
-41
-42
-42
-42
-42
-43
-43
-43
-42
-42
-41
-41
-40
-39
-38
-38
-37
-37
-36
-35
-34
-32
-32
-31
-30
-29
-29
-28
-26
-25
-23
-22
-20
-18
-16
-14
-13
-10
-9
-7
-5
-2
0
1
3
5
8
11
13
13
13
13
10
8
5
2
-1
-4
-8
-11
-14
-18
-21
-23
-25
-26
-28
-29
-32
-33
-35
-36
-36
-37
-37
-38
-37
-39
-39
-40
-40
-39
-40
-40
-41
-41
-42
-43
-43
-44
-43
-45
-45
-45
-45
-44
-44
-45
-45
-44
-44
-44
-44
-44
-45
-46
-46
-46
-46
-46
-47
-47
-48
-48
-49
-48
-49
-48
-49
-49
-49
-50
-50
-52
-51
-52
-51
-53
-53
-53
-53
-53
-56
-56
-56
-56
-57
-57
-56
-57
-56
-57
-56
-57
-57
-56
-57
-56
-57
-56
-56
-56
-56
-56
-56
-56
-57
-58
-57
-58
-58
-57
-57
-57
-58
-58
-59
-59
-59
-59
-59
-58
-58
-59
-59
-58
-58
-59
-59
-59
-60
-60
-61
-60
-60
-60
-60
-59
-58
-57
-55
-54
-53
-51
-49
-45
-42
-39
-38
-38
-39
-39
-41
-42
-42
-42
-42
-43
-43
-45
-45
-45
-45
-45
-45
-44
-44
-43
-42
-41
-40
-41
-42
-45
-50
-51
-42
-22
16
72
134
190
230
239
221
178
124
68
19
-9
-25
-32
-35
-36
-37
-37
-37
-38
-40
-41
-43
-45
-45
-44
-45
-46
-46
-47
-46
-47
-47
-48
-48
-48
-48
-48
-47
-47
-46
-45
-44
-44
-44
-44
-43
-42
-41
-40
-38
-37
-36
-34
-33
-30
-29
-28
-25
-23
-20
-18
-15
-12
-9
-7
-4
-1
2
5
9
12
15
18
21
25
28
30
30
30
29
27
23
20
18
14
11
7
4
1
-1
-2
-4
-5
-7
-8
-9
-10
-11
-12
-12
-13
-15
-15
-16
-16
-16
-15
-16
-16
-16
-16
-17
-17
-16
-17
-17
-18
-17
-17
-18
-18
-18
-17
-18
-18
-18
-19
-19
-19
-18
-19
-19
-20
-20
-20
-19
-19
-20
-19
-20
-20
-20
-20
-19
-19
-19
-19
-18
-18
-19
-19
-19
-18
-18
-18
-18
-17
-18
-18
-19
-18
-18
-18
-18
-18
-18
-19
-19
-19
-18
-18
-17
-17
-17
-17
-17
-17
-15
-15
-15
-14
-13
-14
-14
-14
-14
-14
-14
-13
-14
-13
-13
-12
-12
-12
-12
-13
-13
-14
-14
-14
-15
-14
-14
-13
-14
-14
-15
-15
-16
-16
-15
-14
-13
-11
-9
-8
-7
-8
-7
-4
-1
2
3
2
1
0
-2
-3
-2
-2
-3
-2
-2
-4
-4
-4
-3
-2
-1
-1
-2
-1
-1
0
1
1
0
-4
-8
-10
-3
17
61
118
184
248
291
307
283
235
170
108
62
32
20
15
12
10
10
9
7
6
4
1
0
-2
-3
-4
-6
-6
-6
-7
-7
-8
-8
-9
-10
-9
-10
-10
-11
-10
-10
-11
-11
-11
-11
-11
-11
-11
-11
-11
-10
-8
-6
-5
-4
-2
-1
1
2
4
7
11
16
18
22
24
27
29
33
37
41
45
47
51
52
56
57
59
60
59
58
55
54
50
47
45
41
39
34
31
27
25
22
20
18
17
16
15
14
12
11
10
10
10
10
9
8
8
7
6
4
4
4
3
4
3
3
3
4
4
4
3
2
2
2
1
0
0
0
0
0
0
-1
-1
-1
-2
-2
-1
-1
-1
-2
-3
-2
-2
-1
-2
-2
-2
-2
-2
-3
-3
-4
-3
-3
-3
-5
-6
-7
-6
-5
-6
-6
-5
-5
-6
-6
-5
-6
-7
-7
-8
-8
-7
-7
-6
-6
-6
-7
-7
-7
-6
-5
-4
-4
-4
-5
-6
-6
-5
-5
-4
-3
-3
-3
-3
-1
-2
-2
-3
-2
-1
-1
0
0
0
-1
-1
-1
-1
-1
-1
-1
-2
-1
-1
-1
-1
0
0
-1
-1
-1
-1
-1
0
0
1
2
3
5
6
7
8
11
13
15
15
13
12
10
8
8
7
7
7
7
6
6
6
6
7
7
8
9
10
11
12
13
14
13
10
3
-1
1
15
48
100
161
228
282
313
308
276
218
156
98
60
39
29
25
23
22
21
19
16
13
11
8
5
3
1
0
-1
-1
-3
-4
-6
-8
-9
-10
-10
-12
-12
-13
-14
-14
-14
-13
-12
-11
-11
-10
-10
-10
-9
-7
-5
-4
-2
0
0
2
4
7
8
10
13
16
18
22
24
28
32
36
40
43
46
49
53
55
59
60
62
62
62
63
61
60
57
54
50
47
44
40
36
32
30
28
26
23
21
18
16
16
15
15
14
12
12
10
10
9
8
7
7
7
6
6
6
6
6
5
6
6
6
5
5
4
4
4
4
4
3
3
2
2
2
1
0
0
0
0
0
0
0
-1
-1
0
0
0
0
0
0
0
0
0
-1
-2
-3
-3
-3
-4
-4
-3
-4
-5
-5
-4
-5
-5
-5
-6
-6
-6
-6
-6
-6
-6
-6
-6
-7
-7
-8
-7
-7
-7
-7
-7
-8
-8
-8
-9
-8
-8
-8
-8
-9
-9
-10
-10
-9
-8
-8
-8
-8
-8
-9
-10
-10
-11
-11
-11
-12
-13
-14
-14
-14
-14
-14
-13
-13
-13
-13
-14
-15
-16
-16
-16
-17
-17
-17
-18
-18
-20
-21
-21
-21
-20
-20
-21
-22
-23
-22
-22
-21
-20
-19
-19
-18
-15
-12
-8
-7
-8
-9
-10
-11
-11
-12
-13
-14
-14
-15
-16
-16
-15
-16
-15
-16
-15
-14
-14
-13
-14
-17
-21
-26
-30
-28
-13
18
69
131
190
240
264
254
219
161
103
48
14
-2
-9
-11
-13
-14
-16
-18
-20
-24
-27
-30
-33
-33
-36
-38
-41
-42
-43
-44
-44
-45
-45
-44
-44
-44
-44
-44
-44
-44
-43
-42
-42
-40
-41
-41
-40
-39
-38
-37
-35
-35
-34
-33
-32
-30
-28
-26
-24
-22
-20
-18
-16
-15
-12
-9
-5
-2
0
3
6
10
13
16
18
20
22
23
23
22
21
20
17
14
11
7
3
0
-2
-6
-8
-11
-14
-16
-19
-21
-23
-25
-26
-28
-28
-29
-29
-30
-31
-31
-32
-32
-33
-33
-33
-33
-34
-34
-34
-35
-35
-35
-35
-37
-39
-39
-38
-37
-37
-36
-36
-36
-37
-38
-39
-40
-40
-41
-41
-41
-41
-41
-42
-42
-42
-40
-40
-40
-40
-40
-41
-42
-41
-41
-40
-40
-41
-41
-42
-41
-42
-42
-42
-42
-42
-42
-42
-42
-42
-43
-43
-43
-43
-43
-43
-43
-44
-43
-43
-42
-42
-41
-42
-42
-41
-42
-42
-43
-43
-43
-44
-44
-44
-43
-43
-42
-42
-41
-41
-41
-40
-41
-40
-41
-39
-40
-41
-40
-41
-40
-41
-40
-40
-40
-40
-40
-40
-40
-40
-40
-39
-40
-40
-40
-40
-40
-39
-37
-36
-35
-35
-33
-30
-27
-25
-25
-25
-27
-27
-28
-28
-27
-27
-27
-27
-28
-28
-28
-27
-26
-26
-26
-25
-24
-23
-22
-20
-22
-24
-29
-33
-34
-24
0
42
101
162
221
256
268
242
196
140
80
37
8
-5
-11
-14
-14
-15
-15
-16
-17
-20
-21
-23
-25
-26
-27
-27
-27
-28
-28
-29
-30
-31
-31
-31
-32
-32
-33
-33
-33
-33
-32
-32
-32
-31
-31
-30
-29
-28
-27
-26
-24
-22
-20
-18
-16
-13
-11
-10
-8
-5
-2
0
3
7
9
13
18
21
26
29
33
36
40
44
46
49
49
51
49
48
46
44
41
36
33
30
28
25
22
19
16
14
11
9
8
7
7
6
5
4
3
2
1
0
0
0
0
-1
-3
-3
-2
-1
-2
-2
-3
-4
-5
-5
-5
-5
-5
-5
-4
-5
-5
-5
-5
-5
-5
-6
-6
-6
-6
-5
-5
-5
-5
-4
-4
-4
-4
-3
-3
-3
-3
-2
-2
-2
-2
-2
-2
-3
-2
-2
-1
-2
-2
-3
-4
-4
-5
-4
-4
-3
-3
-3
-4
-4
-4
-5
-4
-3
-3
-3
-3
-3
-3
-3
-4
-4
-4
-3
-2
-2
-2
-3
-2
-2
-1
-2
-2
-2
-2
-2
-3
-3
-3
-2
-2
-1
0
0
0
0
1
0
1
2
2
2
1
1
1
1
1
1
2
1
0
0
0
0
0
0
0
0
0
2
3
5
6
7
9
12
16
17
17
16
15
13
13
13
13
13
11
11
9
9
9
10
10
11
11
11
11
12
12
12
10
6
0
-3
2
23
63
119
184
244
290
302
286
242
183
120
73
42
27
22
19
18
16
15
14
10
7
4
1
0
-2
-3
-4
-5
-7
-7
-8
-10
-12
-13
-13
-14
-15
-15
-15
-15
-14
-13
-13
-13
-13
-12
-11
-10
-9
-8
-7
-7
-5
-4
-3
-2
0
1
2
3
5
6
8
11
12
15
18
21
25
28
32
34
37
40
43
45
48
51
52
53
52
52
49
46
43
40
37
32
29
25
22
19
16
15
12
10
8
6
3
0
-1
-4
-4
-4
-4
-5
-6
-6
-8
-8
-9
-9
-9
-9
-9
-10
-11
-12
-13
-13
-13
-14
-14
-13
-14
-15
-16
-17
-17
-18
-18
-18
-19
-20
-21
-21
-21
-21
-21
-21
-22
-23
-24
-24
-24
-24
-25
-24
-24
-25
-25
-26
-26
-26
-27
-28
-28
-29
-30
-30
-30
-31
-32
-32
-32
-33
-33
-33
-33
-34
-34
-34
-35
-35
-35
-35
-36
-36
-35
-36
-35
-36
-36
-37
-38
-39
-39
-39
-39
-39
-40
-39
-40
-40
-40
-40
-38
-37
-37
-38
-37
-37
-36
-36
-35
-35
-34
-33
-33
-33
-33
-32
-31
-31
-31
-32
-31
-31
-30
-29
-27
-26
-26
-24
-21
-19
-19
-19
-22
-24
-25
-27
-28
-29
-30
-32
-33
-34
-34
-34
-35
-35
-35
-35
-35
-35
-34
-33
-34
-37
-40
-47
-51
-46
-28
10
65
127
188
228
243
226
181
129
67
20
-8
-24
-30
-33
-35
-35
-36
-37
-39
-41
-43
-45
-46
-47
-49
-50
-51
-52
-52
-52
-53
-53
-53
-52
-53
-54
-54
-55
-55
-56
-57
-57
-57
-57
-57
-57
-57
-57
-57
-56
-55
-54
-53
-52
-51
-50
-48
-48
-46
-44
-42
-41
-38
-36
-35
-32
-29
-26
-23
-20
-17
-13
-10
-7
-5
-2
0
1
2
2
2
1
0
-3
-5
-8
-11
-14
-17
-20
-23
-25
-27
-30
-32
-33
-35
-37
-39
-40
-40
-41
-41
-42
-42
-42
-43
-44
-44
-44
-44
-44
-45
-46
-47
-48
-49
-48
-48
-49
-49
-49
-49
-50
-50
-52
-51
-51
-51
-52
-53
-53
-53
-53
-54
-53
-54
-53
-54
-54
-54
-54
-54
-54
-53
-54
-54
-53
-54
-53
-53
-53
-54
-53
-54
-54
-54
-54
-55
-55
-54
-53
-52
-52
-52
-52
-53
-53
-54
-54
-55
-55
-55
-55
-53
-52
-51
-49
-48
-47
-46
-46
-46
-45
-46
-46
-46
-46
-46
-46
-46
-46
-46
-46
-47
-47
-45
-44
-43
-41
-39
-38
-39
-38
-38
-36
-33
-30
-29
-30
-31
-34
-35
-36
-37
-37
-38
-38
-40
-41
-42
-42
-41
-42
-41
-41
-40
-40
-39
-38
-37
-37
-38
-42
-45
-44
-33
-6
38
96
155
206
238
241
208
160
98
45
9
-12
-24
-29
-31
-32
-32
-31
-31
-32
-34
-36
-37
-39
-40
-40
-41
-41
-42
-41
-42
-42
-42
-42
-42
-42
-42
-42
-42
-41
-39
-41
-40
-39
-39
-39
-39
-38
-37
-36
-35
-34
-32
-31
-29
-28
-26
-25
-23
-22
-21
-18
-16
-12
-9
-7
-4
-1
2
6
10
14
17
21
24
25
27
28
29
28
28
25
23
19
15
12
8
5
0
-2
-5
-6
-8
-10
-12
-14
-15
-16
-17
-18
-20
-21
-21
-22
-22
-22
-22
-22
-22
-22
-24
-27
-29
-28
-28
-27
-28
-29
-29
-29
-28
-28
-27
-28
-28
-29
-30
-30
-31
-30
-31
-31
-32
-33
-34
-35
-34
-34
-33
-34
-34
-34
-34
-34
-34
-35
-35
-35
-35
-35
-35
-36
-36
-37
-37
-38
-38
-38
-39
-39
-39
-39
-40
-40
-41
-42
-43
-43
-44
-44
-44
-43
-42
-42
-39
-39
-39
-39
-38
-38
-38
-39
-39
-39
-38
-37
-35
-32
-30
-29
-29
-29
-27
-24
-21
-19
-18
-18
-19
-20
-21
-22
-23
-23
-23
-24
-25
-26
-27
-27
-28
-27
-27
-26
-26
-25
-24
-23
-22
-22
-24
-28
-33
-35
-28
-9
32
87
151
207
249
264
248
204
150
89
39
9
-6
-13
-16
-18
-18
-18
-18
-19
-20
-21
-23
-22
-24
-25
-25
-25
-26
-26
-26
-26
-25
-26
-26
-25
-24
-24
-24
-24
-23
-23
-22
-21
-20
-19
-19
-19
-17
-16
-15
-14
-12
-11
-11
-9
-7
-6
-5
-2
0
1
3
5
7
10
13
16
20
23
26
29
31
34
36
39
39
41
41
41
40
38
37
34
31
28
24
20
17
14
12
9
7
4
3
1
0
-1
-1
-3
-4
-5
-6
-7
-7
-7
-9
-9
-9
-9
-9
-9
-8
-9
-8
-9
-9
-8
-9
-9
-9
-9
-10
-10
-10
-11
-11
-11
-11
-11
-12
-12
-13
-13
-12
-12
-11
-12
-13
-13
-13
-13
-14
-14
-15
-15
-16
-15
-15
-15
-14
-15
-15
-15
-15
-15
-16
-16
-17
-17
-17
-16
-17
-16
-16
-17
-17
-17
-17
-17
-17
-17
-17
-16
-17
-17
-17
-17
-17
-16
-16
-17
-16
-16
-16
-16
-15
-14
-14
-14
-14
-15
-15
-16
-16
-15
-14
-12
-10
-8
-5
-3
-1
0
0
3
7
9
10
11
10
9
7
6
5
5
5
4
3
1
0
0
0
0
0
0
0
0
0
1
2
2
3
-1
-6
-9
-6
7
38
85
145
208
256
286
278
247
194
133
81
44
26
18
16
14
13
12
10
8
5
3
1
0
0
-1
-3
-4
-4
-4
-4
-4
-4
-4
-3
-3
-3
-3
-3
-2
-1
-1
0
0
1
2
3
3
4
5
6
8
9
11
12
13
14
16
17
19
20
21
23
24
27
29
32
35
38
42
44
48
49
52
54
57
60
60
61
60
60
58
56
54
51
48
44
41
37
34
30
27
26
24
22
20
19
16
15
14
13
13
13
12
11
12
12
12
11
11
11
11
12
12
13
12
12
12
12
12
12
13
12
12
11
11
10
10
11
10
10
9
9
8
8
8
7
7
7
7
6
5
3
3
4
3
4
3
3
2
2
2
0
0
0
0
0
0
0
0
0
0
0
-1
-1
-1
-1
-2
-3
-3
-3
-3
-3
-2
-2
-3
-3
-3
-3
-3
-3
-3
-3
-3
-3
-2
-2
-2
-2
-2
-2
-2
-3
-3
-3
-3
-3
-3
-4
-4
-4
-4
-4
-2
-3
-3
-3
-1
1
3
5
6
9
10
13
16
19
20
20
19
16
15
14
13
13
14
14
12
11
9
9
8
9
9
9
9
9
10
10
10
11
11
10
6
0
-5
-3
11
43
94
156
217
270
295
290
261
203
146
87
49
27
17
15
13
12
11
9
7
4
1
0
-1
-3
-3
-4
-5
-6
-6
-6
-8
-7
-8
-8
-9
-9
-8
-9
-9
-9
-9
-9
-8
-8
-8
-8
-9
-9
-9
-9
-9
-9
-9
-10
-10
-9
-9
-9
-7
-5
-3
-2
-1
0
2
4
6
9
12
14
17
20
24
26
30
33
36
39
42
44
44
45
43
42
40
37
34
31
29
25
21
17
14
11
10
8
6
4
1
-1
-3
-4
-5
-6
-7
-8
-9
-10
-11
-11
-12
-12
-14
-16
-16
-17
-17
-18
-18
-18
-19
-20
-21
-22
-23
-23
-23
-23
-25
-26
-26
-28
-28
-29
-28
-29
-30
-30
-31
-32
-34
-34
-35
-35
-36
-36
-36
-37
-37
-38
-37
-38
-37
-37
-38
-38
-38
-39
-40
-39
-39
-40
-41
-42
-43
-44
-44
-44
-43
-44
-43
-44
-45
-44
-45
-45
-45
-45
-45
-45
-45
-46
-46
-46
-46
-46
-45
-45
-46
-45
-46
-46
-46
-45
-47
-47
-47
-47
-47
-47
-46
-47
-46
-45
-45
-45
-46
-45
-45
-44
-43
-41
-39
-38
-37
-37
-36
-36
-33
-30
-28
-27
-28
-30
-32
-34
-36
-37
-38
-38
-38
-40
-41
-43
-43
-44
-45
-45
-44
-45
-45
-44
-44
-43
-43
-44
-49
-55
-58
-53
-34
5
61
125
188
228
244
221
175
115
54
8
-20
-35
-41
-44
-45
-45
-44
-46
-47
-48
-49
-51
-53
-53
-55
-56
-57
-57
-57
-58
-57
-58
-57
-58
-57
-57
-57
-56
-57
-56
-57
-56
-57
-56
-57
-57
-57
-58
-57
-58
-57
-56
-55
-53
-51
-50
-48
-46
-44
-42
-39
-36
-33
-30
-26
-23
-19
-16
-11
-8
-4
0
3
5
7
10
11
12
11
11
8
6
3
0
-3
-8
-11
-14
-17
-20
-23
-25
-28
-30
-33
-35
-36
-38
-38
-40
-40
-42
-43
-43
-43
-43
-44
-44
-45
-45
-45
-46
-46
-46
-46
-47
-46
-48
-48
-48
-48
-49
-50
-50
-51
-52
-52
-52
-53
-53
-54
-54
-54
-54
-53
-54
-54
-54
-54
-53
-53
-54
-54
-53
-54
-54
-53
-53
-52
-53
-52
-53
-53
-53
-53
-52
-54
-53
-53
-52
-52
-53
-52
-52
-51
-52
-52
-53
-53
-53
-53
-53
-53
-52
-53
-53
-52
-51
-51
-51
-50
-51
-50
-51
-50
-49
-50
-50
-50
-49
-50
-49
-49
-49
-48
-49
-49
-48
-46
-44
-42
-39
-37
-37
-36
-33
-29
-26
-24
-23
-24
-25
-27
-28
-28
-28
-28
-29
-30
-33
-35
-36
-37
-36
-35
-34
-34
-33
-32
-32
-31
-30
-29
-31
-35
-41
-43
-35
-15
21
76
134
192
235
253
244
201
151
89
38
7
-9
-16
-20
-21
-22
-23
-23
-23
-24
-25
-26
-27
-28
-29
-30
-30
-30
-30
-30
-30
-29
-30
-30
-29
-29
-28
-27
-27
-26
-26
-26
-25
-25
-23
-23
-22
-21
-19
-19
-18
-18
-17
-15
-15
-14
-13
-13
-11
-10
-8
-7
-4
-1
1
4
7
10
13
15
19
23
27
30
33
37
38
40
42
41
40
38
37
34
31
27
23
21
19
17
13
11
8
6
4
3
2
1
1
1
0
0
-1
-1
-1
-1
-2
-1
-2
-1
-1
-1
-1
-1
-1
-1
-1
-1
-2
-2
-3
-3
-3
-3
-4
-4
-5
-5
-5
-6
-6
-7
-8
-8
-8
-8
-10
-10
-10
-11
-11
-11
-11
-12
-13
-12
-12
-12
-11
-11
-11
-11
-12
-11
-11
-11
-10
-10
-10
-10
-10
-10
-10
-10
-9
-10
-9
-9
-9
-9
-9
-8
-8
-7
-7
-7
-6
-5
-5
-6
-5
-5
-5
-5
-5
-5
-4
-4
-5
-6
-6
-6
-6
-6
-5
-7
-7
-6
-6
-7
-7
-7
-8
-7
-8
-8
-9
-9
-9
-9
-8
-7
-6
-5
-4
-3
-3
-2
-1
2
4
5
5
5
4
2
1
2
2
2
1
1
1
0
1
1
2
3
2
3
3
3
4
4
5
4
2
-3
-6
-1
17
56
109
175
233
279
293
276
230
171
108
61
33
19
15
13
12
9
7
6
2
0
-2
-4
-5
-5
-4
-6
-6
-7
-8
-8
-8
-8
-9
-9
-9
-9
-10
-10
-10
-9
-9
-9
-9
-8
-8
-8
-8
-8
-7
-7
-6
-4
-2
-1
-1
0
2
4
6
9
11
14
16
17
20
23
27
29
32
35
38
41
44
47
49
51
54
54
55
54
54
52
50
48
46
43
39
37
33
31
28
26
25
22
21
19
18
16
15
16
14
14
12
12
11
10
9
8
7
7
7
6
5
5
4
4
3
2
2
2
2
2
2
1
1
1
1
1
1
0
-1
-1
-2
-2
-2
-2
-3
-3
-4
-4
-5
-5
-6
-5
-6
-6
-6
-6
-7
-7
-7
-6
-7
-7
-8
-7
-8
-8
-7
-7
-7
-7
-7
-7
-7
-8
-8
-8
-9
-11
-12
-12
-11
-10
-9
-10
-9
-8
-8
-8
-9
-9
-10
-10
-10
-10
-10
-9
-10
-11
-11
-12
-12
-12
-12
-12
-12
-12
-13
-13
-13
-12
-13
-12
-12
-13
-13
-13
-13
-14
-13
-14
-14
-14
-14
-13
-13
-14
-14
-15
-15
-15
-14
-13
-11
-9
-6
-5
-3
-2
1
5
8
10
8
7
6
5
3
2
1
1
0
-1
-2
-2
-2
-2
-1
0
0
0
0
0
0
1
1
0
-4
-10
-15
-11
4
40
91
152
214
261
283
273
231
178
111
62
30
15
10
7
6
4
3
0
-2
-5
-7
-9
-11
-12
-13
-13
-13
-14
-15
-16
-17
-18
-18
-18
-19
-20
-21
-21
-21
-22
-21
-21
-21
-19
-18
-18
-18
-18
-17
-15
-14
-12
-11
-10
-9
-8
-6
-4
-2
0
1
3
6
9
12
15
18
21
24
26
29
31
34
38
40
42
42
42
41
38
37
33
30
27
24
20
17
14
11
9
7
5
3
2
1
0
-1
-3
-4
-5
-6
-7
-7
-7
-7
-8
-8
-9
-9
-9
-10
-11
-11
-12
-12
-12
-12
-12
-13
-13
-14
-14
-15
-15
-16
-16
-15
-17
-18
-18
-19
-19
-19
-19
-20
-20
-21
-21
-21
-22
-22
-23
-22
-23
-24
-25
-25
-25
-25
-26
-27
-27
-27
-27
-27
-27
-27
-27
-28
-30
-29
-29
-29
-28
-28
-29
-29
-28
-29
-29
-29
-29
-30
-30
-30
-30
-31
-31
-31
-32
-32
-33
-33
-33
-33
-32
-32
-32
-32
-33
-33
-35
-35
-36
-36
-36
-36
-36
-35
-35
-33
-31
-30
-30
-29
-29
-28
-28
-27
-27
-27
-27
-27
-26
-26
-25
-24
-23
-22
-22
-20
-18
-15
-15
-16
-18
-20
-22
-23
-24
-24
-25
-26
-27
-29
-29
-29
-28
-28
-28
-27
-27
-26
-26
-25
-24
-25
-28
-33
-39
-41
-34
-10
32
87
151
203
246
254
229
181
122
64
20
-6
-18
-24
-27
-28
-28
-28
-27
-28
-29
-31
-33
-34
-37
-38
-39
-41
-41
-41
-40
-40
-40
-40
-40
-40
-41
-41
-42
-41
-41
-42
-42
-42
-42
-42
-43
-43
-43
-43
-43
-42
-41
-40
-38
-36
-34
-33
-32
-29
-27
-25
-22
-19
-16
-13
-9
-5
0
3
7
11
15
18
21
24
24
25
25
25
24
22
19
15
11
7
3
0
-3
-6
-10
-13
-18
-20
-22
-24
-26
-27
-28
-30
-31
-31
-32
-32
-34
-34
-36
-37
-38
-39
-38
-39
-39
-40
-41
-42
-43
-44
-44
-43
-44
-45
-46
-46
-47
-48
-49
-49
-49
-50
-50
-50
-51
-51
-50
-50
-50
-50
-51
-51
-50
-50
-50
-51
-51
-51
-50
-49
-49
-49
-49
-49
-50
-49
-50
-49
-50
-50
-52
-53
-52
-52
-51
-52
-50
-50
-50
-50
-50
-48
-48
-47
-49
-48
-49
-49
-48
-48
-48
-48
-47
-49
-48
-48
-47
-46
-46
-44
-43
-42
-42
-41
-41
-41
-41
-40
-38
-37
-34
-32
-31
-30
-30
-29
-26
-22
-20
-19
-20
-20
-22
-24
-26
-27
-27
-27
-28
-29
-30
-30
-31
-30
-31
-31
-30
-29
-28
-28
-27
-28
-29
-32
-37
-40
-35
-15
21
75
141
198
248
268
253
214
154
94
42
9
-6
-15
-18
-19
-20
-20
-20
-21
-23
-24
-25
-27
-28
-29
-29
-29
-28
-28
-28
-28
-28
-28
-29
-28
-29
-29
-30
-30
-29
-29
-29
-29
-28
-27
-27
-26
-25
-26
-26
-27
-26
-25
-24
-21
-20
-18
-16
-14
-12
-10
-9
-6
-4
-2
0
1
4
7
11
15
18
22
26
30
32
35
36
37
37
36
35
33
32
28
25
21
18
15
12
9
6
4
2
0
-1
-2
-3
-4
-4
-4
-4
-5
-6
-6
-7
-6
-7
-7
-8
-8
-9
-9
-9
-9
-9
-10
-10
-9
-9
-10
-10
-10
-10
-10
-10
-10
-11
-12
-11
-12
-12
-12
-13
-14
-15
-15
-15
-15
-15
-15
-15
-15
-15
-16
-15
-15
-14
-13
-13
-13
-13
-13
-14
-14
-14
-15
-16
-16
-16
-17
-17
-18
-18
-17
-17
-17
-17
-17
-17
-17
-16
-15
-14
-14
-14
-12
-11
-11
-11
-11
-8
-8
-7
-7
-6
-5
-5
-5
-5
-4
-4
-4
-4
-4
-5
-5
-4
-4
-2
-1
0
2
2
3
3
5
8
12
13
12
11
8
7
6
5
4
4
3
3
1
0
-1
-1
-1
-1
-1
-1
0
0
0
0
0
-1
-5
-10
-12
-7
11
51
107
170
229
271
288
269
224
166
104
60
30
17
13
11
10
8
8
6
4
2
0
0
-2
-3
-5
-5
-6
-6
-6
-6
-6
-7
-7
-7
-7
-7
-6
-6
-5
-5
-6
-5
-5
-4
-3
-2
0
0
0
0
0
1
3
4
4
5
5
7
7
8
8
11
13
15
18
19
22
25
30
33
36
38
41
44
46
49
49
50
48
47
44
40
38
35
34
31
29
26
24
21
18
15
13
11
9
8
7
6
6
5
4
2
1
0
0
-1
-2
-2
-2
-2
-2
-3
-3
-4
-3
-4
-4
-5
-5
-5
-6
-6
-8
-8
-9
-10
-10
-11
-10
-11
-12
-13
-14
-14
-15
-15
-16
-16
-17
-18
-18
-18
-19
-19
-19
-20
-19
-19
-19
-19
-18
-18
-18
-17
-16
-15
-14
-14
-15
-15
-16
-16
-15
-15
-14
-13
-12
-12
-12
-12
-11
-11
-11
-10
-11
-11
-12
-12
-12
-12
-11
-12
-13
-13
-13
-15
-15
-12
-10
-8
-8
-7
-5
-2
0
2
2
0
-1
-2
-4
-5
-7
-8
-10
-11
-13
-15
-16
-17
-17
-18
-17
-17
-16
-16
-16
-15
-15
-15
-18
-23
-29
-29
-21
4
46
103
166
221
259
265
239
190
133
73
32
6
-3
-6
-8
-8
-9
-9
-11
-14
-17
-19
-19
-21
-22
-23
-24
-25
-25
-24
-25
-26
-26
-26
-27
-27
-26
-27
-27
-27
-27
-27
-26
-26
-25
-25
-26
-25
-24
-24
-22
-21
-19
-19
-18
-17
-16
-15
-14
-12
-10
-9
-7
-4
-2
0
2
5
6
8
10
13
15
17
20
22
23
23
23
23
22
21
17
15
11
8
5
2
0
-3
-4
-6
-8
-10
-11
-12
-15
-16
-16
-17
-17
-18
-19
-19
-19
-20
-20
-20
-21
-22
-22
-21
-21
-21
-21
-22
-22
-23
-24
-25
-26
-27
-27
-27
-27
-26
-26
-25
-27
-27
-27
-28
-29
-29
-29
-30
-30
-30
-30
-30
-29
-29
-28
-28
-27
-26
-26
-25
-26
-26
-25
-26
-25
-25
-25
-26
-26
-27
-27
-27
-27
-27
-27
-26
-27
-28
-29
-29
-28
-28
-27
-27
-27
-26
-26
-25
-24
-22
-21
-19
-19
-18
-18
-17
-14
-11
-8
-10
-11
-14
-15
-16
-17
-17
-18
-18
-20
-21
-22
-23
-22
-22
-21
-22
-21
-21
-21
-20
-18
-18
-21
-25
-30
-31
-23
0
40
94
155
207
239
243
216
171
117
62
26
4
-4
-8
-9
-10
-11
-11
-12
-15
-17
-19
-20
-22
-23
-23
-24
-24
-25
-25
-26
-25
-26
-26
-25
-26
-26
-25
-25
-25
-26
-25
-26
-25
-25
-25
-25
-24
-23
-23
-23
-23
-20
-19
-18
-18
-17
-16
-14
-12
-10
-9
-7
-5
-3
-1
1
3
6
8
11
13
15
17
20
21
23
23
23
24
24
23
20
17
13
9
6
3
1
-1
-2
-4
-6
-8
-10
-12
-13
-13
-14
-14
-14
-15
-16
-16
-15
-17
-18
-19
-18
-19
-20
-21
-21
-20
-20
-21
-20
-20
-20
-20
-20
-21
-21
-22
-21
-20
-19
-19
-19
-19
-18
-18
-17
-17
-17
-17
-17
-18
-17
-17
-18
-18
-18
-18
-19
-19
-20
-20
-21
-20
-21
-21
-22
-22
-22
-22
-21
-22
-23
-24
-25
-26
-27
-28
-29
-30
-30
-30
-29
-27
-25
-24
-23
-23
-22
-22
-20
-18
-16
-14
-15
-16
-19
-21
-22
-23
-23
-25
-25
-26
-28
-28
-29
-29
-29
-29
-29
-28
-27
-28
-27
-27
-25
-26
-29
-33
-39
-40
-33
-10
28
83
143
194
230
237
214
173
116
64
21
-1
-12
-16
-17
-18
-19
-20
-22
-25
-26
-27
-29
-32
-33
-35
-36
-36
-36
-37
-37
-37
-38
-37
-37
-37
-36
-37
-39
-41
-39
-38
-37
-37
-35
-36
-35
-34
-34
-34
-34
-33
-34
-33
-32
-30
-28
-28
-26
-24
-22
-21
-19
-16
-14
-11
-9
-7
-4
-2
0
1
4
7
9
10
10
10
9
7
6
3
1
-2
-6
-9
-13
-16
-19
-22
-25
-27
-30
-31
-34
-35
-35
-36
-37
-36
-37
-37
-38
-38
-40
-41
-41
-41
-42
-42
-42
-42
-42
-42
-43
-42
-43
-42
-42
-41
-41
-42
-41
-40
-39
-39
-37
-37
-36
-36
-35
-35
-34
-33
-34
-33
-34
-34
-34
-34
-33
-34
-33
-34
-34
-34
-34
-35
-36
-36
-36
-37
-36
-36
-36
-36
-37
-38
-38
-39
-39
-40
-40
-41
-41
-40
-39
-37
-36
-35
-34
-34
-33
-30
-26
-24
-24
-24
-24
-27
-29
-30
-31
-31
-32
-33
-34
-35
-35
-36
-35
-35
-35
-34
-34
-34
-34
-34
-35
-36
-37
-40
-44
-44
-34
-13
25
75
130
182
213
220
198
153
103
49
14
-7
-19
-24
-27
-28
-28
-28
-28
-28
-29
-30
-31
-32
-33
-35
-36
-36
-37
-37
-36
-36
-36
-37
-37
-36
-36
-35
-35
-35
-35
-35
-35
-35
-35
-34
-33
-31
-31
-30
-29
-29
-28
-27
-24
-24
-22
-21
-18
-16
-15
-13
-10
-8
-5
-2
0
4
6
9
12
15
18
20
22
24
26
26
25
23
21
19
16
13
10
7
1
-2
-6
-9
-12
-16
-19
-22
-25
-27
-30
-31
-31
-31
-32
-33
-33
-34
-34
-34
-34
-35
-36
-36
-36
-37
-37
-37
-37
-37
-37
-37
-37
-38
-38
-38
-37
-38
-37
-36
-36
-36
-36
-34
-35
-34
-33
-32
-32
-32
-31
-31
-29
-29
-28
-28
-28
-27
-27
-26
-25
-25
-25
-26
-26
-26
-26
-26
-26
-26
-25
-25
-26
-27
-27
-28
-29
-28
-27
-25
-24
-22
-22
-22
-21
-20
-17
-14
-12
-12
-12
-13
-15
-16
-17
-16
-18
-19
-21
-23
-25
-26
-25
-26
-26
-26
-26
-25
-24
-23
-22
-21
-20
-19
-19
-22
-26
-30
-26
-11
18
67
127
181
233
257
255
223
170
113
59
25
6
-3
-6
-8
-9
-10
-9
-10
-11
-12
-14
-15
-16
-17
-17
-17
-18
-19
-21
-22
-23
-23
-23
-23
-23
-22
-21
-20
-19
-19
-18
-17
-17
-16
-15
-15
-14
-13
-11
-12
-10
-9
-7
-6
-5
-2
-1
1
3
6
9
12
14
17
20
23
27
30
33
36
39
42
44
45
45
46
45
45
42
39
35
31
27
23
20
15
12
9
6
3
0
-1
-3
-5
-7
-8
-9
-9
-11
-12
-12
-13
-13
-13
-13
-13
-13
-13
-14
-14
-14
-14
-15
-15
-14
-14
-15
-15
-14
-14
-14
-15
-14
-14
-15
-15
-14
-14
-14
-15
-16
-17
-16
-16
-16
-15
-15
-15
-15
-15
-15
-15
-14
-15
-14
-14
-14
-15
-15
-15
-16
-17
-17
-16
-17
-17
-17
-18
-18
-18
-18
-19
-19
-19
-19
-19
-20
-20
-20
-18
-16
-14
-13
-11
-10
-10
-9
-6
-3
-1
-1
-2
-2
-3
-4
-5
-6
-6
-7
-7
-8
-9
-10
-10
-10
-9
-8
-7
-6
-6
-5
-4
-3
-2
-2
-2
-8
-13
-13
-3
20
66
123
186
240
271
276
243
194
133
78
42
22
13
10
9
8
8
7
6
4
2
1
0
0
-2
-3
-4
-4
-4
-4
-4
-4
-4
-4
-4
-4
-3
-3
-3
-2
-3
-3
-2
-1
0
0
1
1
2
3
4
6
7
9
9
11
11
12
13
15
17
20
23
25
29
31
34
36
39
43
45
48
50
53
53
56
57
57
56
54
53
49
47
43
39
35
31
28
25
22
19
18
16
14
12
12
11
10
10
10
10
9
8
7
7
7
7
8
7
7
7
6
6
5
5
4
4
4
4
4
4
5
5
4
4
4
3
3
4
3
2
1
0
0
0
0
-1
0
0
0
0
0
-1
-2
-2
-3
-3
-2
-2
-3
-3
-2
-3
-2
-2
-1
-2
-1
-1
-2
-2
-3
-3
-2
-2
-2
-2
-2
-2
-1
1
2
2
1
0
0
1
0
0
0
0
0
0
0
0
0
-1
0
0
-1
-2
-2
-1
-1
-1
-2
-1
-2
-1
-1
0
1
4
6
6
7
6
7
9
12
15
14
14
12
11
10
10
9
10
10
9
9
7
8
7
8
9
9
9
10
11
11
12
13
14
14
12
8
2
0
6
24
60
112
171
229
274
291
281
238
184
121
74
45
30
26
23
23
22
22
20
18
15
12
10
7
5
4
3
2
1
1
0
0
0
0
0
0
1
0
0
-1
0
0
0
0
0
0
1
2
3
4
5
6
7
7
8
8
9
9
10
12
14
16
19
21
23
27
30
32
35
37
41
44
47
49
53
55
57
58
58
58
56
55
52
50
45
41
37
33
31
28
26
24
23
20
19
18
15
14
13
12
11
10
9
9
10
9
8
7
6
6
6
6
5
5
4
4
3
3
4
3
3
3
3
2
2
2
1
0
0
0
-1
-2
-3
-2
-2
-3
-4
-5
-5
-6
-7
-8
-9
-9
-9
-10
-10
-9
-10
-11
-11
-11
-12
-12
-12
-12
-13
-13
-14
-14
-15
-15
-15
-13
-13
-14
-14
-14
-14
-14
-14
-15
-15
-14
-15
-15
-15
-15
-15
-16
-16
-17
-18
-19
-19
-19
-19
-18
-18
-18
-17
-17
-18
-17
-18
-18
-17
-17
-17
-17
-17
-18
-18
-18
-19
-19
-20
-20
-20
-20
-21
-20
-20
-20
-20
-21
-21
-23
-23
-23
-23
-23
-21
-20
-19
-19
-19
-18
-16
-13
-11
-9
-10
-11
-12
-13
-13
-13
-12
-12
-13
-14
-16
-17
-18
-17
-17
-17
-17
-16
-16
-15
-14
-15
-15
-16
-19
-24
-29
-26
-10
20
70
129
182
229
243
233
198
144
89
39
8
-5
-10
-11
-13
-14
-14
-15
-17
-19
-21
-24
-26
-28
-28
-29
-30
-31
-31
-32
-33
-33
-34
-34
-35
-36
-37
-37
-38
-39
-39
-39
-37
-37
-37
-37
-37
-36
-36
-35
-34
-33
-31
-29
-27
-26
-24
-23
-21
-20
-18
-16
-14
-12
-11
-8
-7
-5
-2
0
2
4
7
8
10
11
14
15
16
15
15
13
11
8
6
3
0
-1
-4
-8
-10
-13
-16
-17
-19
-20
-23
-24
-24
-25
-26
-28
-28
-29
-29
-30
-30
-30
-30
-30
-30
-31
-31
-32
-32
-33
-33
-34
-35
-35
-35
-35
-35
-36
-37
-38
-38
-39
-39
-39
-39
-38
-39
-40
-40
-40
-40
-41
-41
-41
-41
-42
-43
-42
-43
-44
-45
-44
-45
-46
-47
-47
-46
-47
-46
-47
-47
-47
-47
-47
-47
-47
-48
-47
-48
-48
-48
-49
-48
-48
-47
-46
-45
-44
-45
-46
-47
-47
-47
-47
-47
-46
-47
-48
-48
-48
-48
-49
-49
-49
-50
-49
-50
-49
-50
-50
-50
-50
-50
-50
-51
-52
-51
-51
-50
-50
-50
-50
-50
-51
-52
-52
-52
-52
-52
-53
-53
-54
-54
-55
-54
-53
-50
-50
-48
-47
-46
-45
-44
-41
-38
-35
-34
-34
-34
-36
-37
-39
-39
-40
-40
-40
-42
-44
-45
-45
-45
-44
-44
-45
-45
-44
-44
-44
-43
-44
-47
-52
-57
-57
-44
-17
28
87
145
194
218
211
176
123
63
13
-20
-37
-44
-48
-49
-50
-51
-51
-52
-52
-55
-58
-58
-60
-60
-61
-62
-63
-63
-64
-64
-64
-65
-65
-66
-65
-66
-66
-65
-65
-65
-66
-64
-64
-63
-61
-60
-58
-58
-57
-56
-55
-54
-52
-51
-49
-47
-45
-43
-41
-38
-36
-34
-31
-27
-25
-23
-20
-17
-13
-10
-6
-3
0
0
2
2
3
2
1
0
-2
-5
-8
-11
-15
-18
-20
-24
-26
-29
-32
-33
-34
-35
-37
-39
-40
-41
-41
-41
-42
-43
-43
-44
-45
-45
-46
-46
-47
-46
-46
-46
-46
-47
-47
-47
-47
-48
-47
-47
-47
-47
-47
-47
-48
-47
-47
-47
-47
-47
-47
-47
-47
-48
-48
-48
-48
-48
-48
-48
-48
-48
-48
-47
-47
-46
-47
-48
-48
-50
-50
-50
-50
-50
-51
-50
-51
-50
-50
-50
-50
-51
-52
-53
-51
-51
-50
-49
-48
-49
-49
-48
-48
-47
-48
-47
-48
-48
-48
-47
-46
-47
-46
-46
-46
-46
-46
-45
-46
-45
-45
-44
-44
-44
-44
-45
-44
-44
-43
-44
-43
-43
-43
-42
-42
-42
-42
-42
-42
-41
-41
-42
-40
-38
-36
-36
-35
-34
-34
-33
-30
-27
-25
-23
-23
-24
-26
-27
-28
-29
-29
-28
-27
-27
-28
-27
-27
-26
-25
-24
-23
-22
-21
-20
-20
-19
-19
-22
-26
-31
-29
-17
9
58
117
179
237
265
266
232
177
118
60
24
3
-5
-9
-11
-12
-12
-12
-13
-14
-16
-17
-18
-20
-21
-22
-22
-23
-24
-24
-24
-24
-23
-23
-22
-23
-23
-23
-23
-23
-23
-23
-21
-22
-22
-22
-21
-20
-19
-18
-18
-17
-16
-14
-12
-11
-9
-7
-4
-2
0
1
4
6
10
13
16
20
22
26
29
32
36
39
42
44
47
47
49
48
48
46
44
42
39
36
32
30
27
24
22
20
17
15
14
12
11
10
9
9
9
9
7
7
6
6
5
5
4
3
2
1
1
0
0
0
1
2
2
2
2
2
2
1
2
1
1
1
1
1
0
1
0
0
0
0
0
0
0
0
1
0
0
0
-1
0
0
0
0
0
0
0
0
0
0
-1
-1
-1
-1
-1
-1
0
0
-1
-2
-2
-1
-2
-1
-1
-1
-1
-1
-1
-1
-1
0
-1
0
-1
-1
-1
-1
0
-1
-1
-1
-1
0
0
0
0
0
0
0
0
0
0
0
0
0
0
0
0
-1
0
0
-1
-1
-1
-1
-1
-1
-1
-2
-2
-2
-2
-3
-3
-3
-3
-3
-4
-4
-3
-2
-1
0
1
1
1
1
4
7
10
11
11
9
7
5
4
3
3
3
1
0
0
-1
-1
0
0
1
2
3
4
4
5
7
7
6
1
-4
-7
0
19
58
117
177
242
284
300
283
240
182
121
71
41
26
19
17
15
13
11
9
8
6
4
3
1
0
-1
-3
-4
-5
-6
-7
-8
-10
-11
-13
-15
-15
-15
-15
-16
-15
-16
-15
-15
-15
-15
-14
-14
-13
-12
-10
-10
-9
-8
-7
-6
-4
-3
-1
0
1
2
5
8
11
14
16
20
22
25
26
30
32
34
38
39
42
43
45
46
47
46
46
45
41
39
35
32
28
26
23
19
16
14
11
9
8
7
5
4
3
2
1
1
0
0
0
0
0
0
-1
-1
-1
-1
-1
-1
-1
-1
-2
-1
-2
-2
-2
-2
-2
-2
-2
-2
-3
-3
-3
-3
-3
-2
-2
-3
-4
-4
-4
-4
-5
-5
-5
-6
-6
-8
-9
-10
-12
-12
-13
-13
-13
-13
-13
-12
-12
-12
-12
-13
-12
-13
-13
-14
-15
-14
-15
-15
-15
-15
-15
-15
-15
-15
-16
-15
-15
-15
-16
-16
-16
-16
-16
-16
-16
-17
-17
-17
-17
-17
-16
-16
-17
-17
-16
-16
-16
-16
-16
-16
-16
-15
-16
-16
-16
-17
-16
-16
-15
-16
-15
-15
-16
-16
-16
-16
-15
-16
-16
-16
-16
-17
-17
-17
-16
-17
-18
-18
-18
-19
-20
-20
-21
-21
-22
-22
-22
-21
-20
-19
-18
-18
-15
-12
-10
-9
-9
-11
-12
-12
-11
-11
-11
-11
-11
-11
-12
-12
-11
-10
-10
-9
-7
-6
-6
-5
-5
-5
-8
-13
-19
-20
-10
13
58
115
180
235
272
275
248
195
137
79
37
13
2
-1
-3
-4
-5
-6
-8
-12
-15
-17
-20
-22
-25
-26
-28
-30
-31
-32
-33
-34
-33
-34
-34
-34
-34
-33
-33
-33
-33
-33
-33
-33
-32
-31
-29
-28
-26
-25
-24
-23
-22
-20
-19
-17
-15
-14
-12
-10
-8
-5
-3
-1
0
2
4
7
9
12
15
18
21
24
26
28
30
32
33
34
33
31
28
25
23
18
15
12
9
6
2
-1
-4
-6
-8
-10
-12
-14
-15
-17
-17
-19
-20
-20
-21
-21
-21
-21
-22
-22
-23
-24
-23
-24
-23
-24
-24
-25
-25
-25
-25
-25
-25
-25
-26
-24
-23
-24
-25
-26
-26
-27
-27
-26
-26
-26
-27
-27
-28
-28
-29
-29
-29
-30
-30
-30
-30
-31
-30
-30
-31
-31
-32
-33
-33
-33
-34
-35
-36
-36
-38
-38
-38
-38
-38
-39
-39
-39
-40
-40
-40
-39
-40
-40
-40
-41
-41
-42
-41
-42
-42
-42
-41
-42
-42
-42
-43
-43
-43
-42
-42
-42
-42
-43
-43
-43
-43
-43
-42
-43
-43
-43
-43
-43
-44
-44
-44
-44
-44
-44
-44
-44
-44
-45
-44
-44
-44
-45
-45
-46
-46
-47
-47
-45
-44
-42
-40
-38
-37
-36
-34
-31
-28
-27
-27
-28
-30
-31
-32
-33
-33
-33
-35
-36
-36
-37
-37
-38
-37
-36
-36
-35
-35
-34
-35
-35
-38
-41
-46
-46
-38
-18
20
72
131
187
222
232
211
163
110
51
9
-14
-26
-31
-33
-34
-35
-35
-36
-39
-41
-44
-47
-48
-48
-48
-49
-49
-49
-49
-50
-50
-52
-53
-54
-55
-55
-55
-56
-56
-56
-55
-56
-56
-55
-54
-53
-52
-51
-51
-50
-48
-46
-46
-44
-43
-41
-39
-38
-36
-35
-32
-30
-28
-25
-22
-19
-16
-13
-11
-7
-5
-2
0
3
5
6
8
7
7
6
4
1
-1
-4
-8
-11
-14
-17
-19
-21
-23
-25
-27
-29
-31
-33
-35
-35
-36
-36
-36
-37
-38
-38
-38
-38
-40
-40
-39
-40
-40
-41
-41
-42
-42
-43
-46
-46
-46
-44
-44
-43
-43
-43
-43
-43
-43
-44
-44
-44
-44
-43
-44
-44
-45
-44
-45
-45
-45
-46
-45
-46
-46
-46
-46
-47
-47
-46
-45
-44
-45
-44
-45
-45
-45
-45
-44
-45
-44
-44
-43
-44
-44
-44
-44
-43
-43
-43
-44
-43
-43
-43
-43
-42
-42
-42
-41
-41
-41
-40
-39
-39
-39
-38
-38
-38
-38
-38
-39
-39
-39
-39
-38
-37
-36
-36
-36
-36
-36
-35
-36
-36
-36
-35
-36
-36
-36
-36
-35
-35
-33
-32
-30
-30
-29
-28
-27
-23
-20
-16
-16
-16
-17
-17
-18
-18
-18
-19
-19
-20
-21
-22
-22
-22
-21
-21
-21
-21
-21
-20
-19
-18
-17
-18
-20
-23
-29
-30
-22
-2
36
88
146
203
244
264
249
212
160
105
56
26
9
1
-2
-4
-6
-7
-9
-10
-12
-15
-16
-17
-17
-18
-18
-18
-19
-20
-21
-22
-22
-22
-23
-21
-21
-20
-20
-19
-18
-17
-16
-17
-16
-16
-16
-16
-15
-16
-16
-15
-14
-12
-11
-9
-7
-5
-4
-1
0
2
5
6
10
11
14
17
20
23
26
31
33
37
40
42
45
47
48
49
50
48
47
44
41
38
35
33
30
27
25
22
19
16
15
12
11
9
8
7
6
5
4
5
4
4
3
2
2
2
2
1
0
0
0
0
0
1
0
0
0
0
0
0
0
0
0
0
0
1
1
1
1
0
0
0
1
1
1
1
0
0
0
0
1
1
2
1
1
1
1
0
1
1
1
1
1
1
1
1
1
1
2
1
2
2
3
2
2
3
2
3
3
3
3
3
3
3
4
4
5
4
4
3
3
3
3
4
4
4
4
4
4
4
4
4
4
4
5
5
5
5
5
5
5
6
6
6
6
6
5
5
5
5
6
5
5
6
6
8
9
12
12
12
12
14
17
20
21
20
20
18
16
14
14
13
13
14
13
14
13
14
14
16
18
19
20
21
22
22
23
22
17
12
7
11
26
58
105
164
220
271
291
283
253
197
144
92
60
42
34
32
31
31
29
28
25
23
20
17
15
13
11
10
9
9
8
8
8
9
9
9
9
8
8
7
7
6
6
5
5
4
4
5
4
5
6
7
8
8
9
10
12
13
15
17
19
20
23
25
27
29
31
33
36
39
42
44
47
49
51
54
58
60
62
63
64
63
62
62
60
60
56
53
50
48
46
43
41
38
36
34
32
31
29
28
26
25
24
24
23
23
22
21
21
19
19
18
18
16
14
13
12
13
13
13
14
13
14
12
13
13
12
11
10
11
10
10
9
9
9
8
8
8
8
7
8
7
7
6
6
6
6
6
5
5
5
5
4
4
3
3
3
3
4
3
3
3
2
1
0
0
0
0
0
0
-1
-1
-2
-2
-1
-2
-2
-2
-3
-3
-3
-2
-2
-1
-2
-2
-2
-2
-2
-1
-1
-1
-1
-2
-2
-2
-1
0
-1
-1
-1
-1
-1
0
0
0
0
-1
-1
-1
-1
-2
-2
-1
-1
-1
-1
-1
-1
-2
-2
-2
-2
-2
-3
-2
-1
-2
-2
-4
-4
-4
-4
-3
-1
0
0
0
0
3
6
6
7
5
4
2
1
0
0
1
1
1
0
0
0
0
1
0
1
2
3
4
4
5
6
5
1
-4
-7
-3
12
49
100
159
220
259
278
258
217
163
104
60
32
20
15
14
13
12
11
9
7
5
2
0
0
-2
-4
-6
-8
-9
-10
-12
-13
-14
-16
-17
-17
-17
-16
-16
-16
-15
-15
-14
-14
-13
-12
-11
-10
-9
-8
-7
-6
-4
-2
-1
0
1
3
5
7
11
13
16
18
21
23
26
28
31
34
37
40
43
46
48
50
52
52
52
51
51
48
45
42
38
35
31
28
25
23
21
17
15
12
10
8
8
6
5
4
2
1
0
-1
-2
-2
-2
-3
-3
-4
-5
-5
-5
-6
-7
-7
-7
-7
-7
-8
-8
-8
-9
-9
-9
-8
-8
-8
-9
-9
-9
-10
-11
-11
-11
-11
-14
-14
-14
-14
-15
-15
-14
-15
-15
-16
-16
-17
-17
-18
-18
-18
-18
-18
-18
-18
-18
-18
-18
-19
-19
-20
-20
-20
-20
-20
-21
-21
-20
-21
-21
-22
-21
-21
-21
-22
-21
-22
-22
-23
-24
-24
-24
-24
-24
-25
-25
-25
-25
-24
-24
-24
-24
-25
-24
-25
-25
-24
-24
-24
-24
-25
-25
-26
-26
-27
-26
-26
-26
-27
-26
-27
-27
-27
-27
-27
-27
-26
-27
-27
-27
-28
-28
-28
-29
-30
-29
-28
-26
-24
-22
-22
-21
-18
-14
-11
-10
-11
-12
-13
-15
-16
-18
-19
-20
-21
-22
-23
-24
-24
-25
-24
-23
-23
-23
-22
-23
-22
-22
-25
-29
-34
-37
-34
-16
18
70
133
187
231
242
224
182
127
68
24
-4
-18
-24
-26
-28
-29
-29
-30
-31
-33
-35
-37
-39
-41
-42
-44
-45
-47
-48
-47
-48
-48
-49
-48
-50
-51
-51
-52
-51
-52
-51
-51
-50
-51
-49
-48
-47
-46
-46
-45
-44
-43
-42
-40
-38
-36
-35
-34
-32
-30
-28
-26
-23
-21
-18
-14
-10
-7
-5
-2
0
4
6
8
10
12
13
13
13
11
9
7
3
-2
-6
-8
-12
-14
-17
-20
-22
-25
-27
-28
-30
-32
-33
-34
-36
-37
-38
-38
-39
-40
-40
-42
-43
-44
-43
-44
-44
-44
-45
-45
-45
-45
-46
-47
-47
-47
-47
-48
-48
-49
-49
-50
-50
-49
-50
-50
-50
-51
-52
-52
-52
-52
-51
-51
-52
-52
-52
-53
-53
-53
-53
-54
-54
-55
-55
-55
-56
-56
-56
-56
-56
-56
-55
-55
-55
-56
-56
-58
-58
-58
-58
-58
-58
-57
-58
-57
-57
-57
-57
-58
-58
-60
-59
-59
-59
-59
-59
-58
-59
-58
-60
-59
-58
-58
-57
-57
-56
-57
-56
-56
-55
-54
-55
-55
-55
-54
-55
-54
-54
-54
-53
-53
-53
-53
-53
-53
-53
-52
-50
-50
-48
-47
-47
-46
-45
-42
-39
-37
-36
-37
-37
-38
-39
-39
-39
-39
-40
-39
-40
-40
-39
-37
-37
-36
-36
-35
-34
-33
-32
-32
-33
-35
-40
-44
-45
-35
-8
33
93
151
201
240
242
221
175
116
59
15
-7
-18
-23
-25
-26
-27
-28
-29
-30
-31
-32
-35
-36
-38
-39
-39
-40
-41
-41
-41
-41
-40
-40
-40
-40
-39
-39
-38
-38
-38
-38
-37
-36
-36
-37
-37
-37
-38
-38
-38
-38
-38
-38
-36
-33
-31
-29
-26
-23
-22
-19
-16
-13
-10
-7
-3
-1
1
4
6
9
13
17
19
22
24
26
27
29
28
28
26
25
23
21
17
13
10
6
3
0
-1
-3
-4
-6
-7
-8
-10
-11
-11
-12
-12
-13
-13
-14
-14
-14
-14
-14
-14
-14
-14
-14
-14
-15
-15
-15
-14
-15
-16
-16
-16
-16
-16
-16
-17
-17
-17
-17
-17
-17
-17
-17
-17
-17
-17
-17
-18
-18
-18
-17
-18
-18
-19
-19
-19
-19
-19
-19
-19
-19
-18
-18
-19
-20
-20
-19
-19
-19
-19
-19
-19
-19
-19
-20
-19
-19
-19
-19
-18
-18
-19
-19
-19
-18
-18
-18
-18
-18
-17
-18
-19
-19
-18
-18
-17
-18
-18
-17
-17
-17
-17
-16
-17
-17
-16
-16
-16
-16
-15
-15
-14
-14
-14
-13
-14
-14
-15
-14
-14
-13
-13
-13
-13
-13
-13
-14
-13
-13
-13
-13
-13
-13
-13
-12
-10
-9
-7
-7
-6
-4
-2
0
2
1
0
0
-1
-2
-3
-3
-4
-4
-5
-4
-4
-3
-3
-2
-1
-1
0
0
2
2
2
0
-4
-9
-10
0
25
73
130
193
248
279
280
247
194
134
80
44
25
18
15
14
14
13
11
8
5
2
0
-1
-2
-2
-3
-4
-5
-6
-7
-7
-8
-8
-9
-10
-11
-13
-15
-16
-16
-16
-15
-15
-15
-14
-13
-13
-12
-12
-12
-11
-10
-10
-8
-6
-5
-3
-1
0
2
5
7
9
11
14
16
19
22
25
28
31
35
37
40
43
48
50
52
52
53
53
50
49
46
44
41
37
35
30
27
24
22
19
17
16
13
12
10
9
7
6
5
4
3
3
2
2
1
0
0
0
0
0
-1
0
-1
0
-1
-1
-1
0
-1
-1
-1
-1
-1
-1
-2
-2
-2
-2
-1
-1
-2
-1
-1
-1
-1
-1
0
-1
-1
-2
-2
-2
-2
-1
-1
-1
-2
-2
-1
-1
-1
-1
0
-1
-1
-1
-1
-1
-1
-1
-2
-2
-3
-3
-4
-3
-2
-3
-3
-3
-3
-3
-4
-4
-4
-4
-4
-4
-4
-4
-4
-4
-4
-5
-4
-5
-5
-5
-5
-5
-5
-5
-5
-5
-4
-4
-5
-5
-5
-5
-4
-5
-4
-5
-4
-5
-5
-6
-6
-6
-6
-5
-6
-5
-6
-6
-6
-6
-5
-6
-6
-5
-6
-6
-6
-5
-5
-5
-5
-4
-3
-2
-1
-1
1
2
6
7
7
5
4
2
0
-1
-1
-1
-2
-1
-1
-2
-1
-1
0
1
2
3
5
6
7
9
8
6
2
-2
-6
-2
15
48
101
160
220
268
292
282
247
189
132
81
46
29
22
19
17
15
14
13
10
6
4
2
0
-1
-2
-3
-5
-6
-8
-9
-10
-12
-13
-14
-15
-15
-15
-15
-15
-15
-15
-15
-16
-15
-14
-13
-13
-12
-11
-10
-8
-6
-4
-3
0
1
1
3
5
7
9
12
15
17
19
22
24
28
31
33
36
38
42
45
47
50
52
55
56
56
55
54
52
49
47
42
40
36
34
31
29
26
23
21
18
17
15
14
12
11
11
9
9
8
9
8
8
8
6
6
6
6
6
6
6
6
6
5
4
4
5
4
4
4
3
2
2
2
2
3
2
2
1
1
1
0
1
0
0
1
1
1
0
0
0
0
0
0
-1
-2
-2
-2
-2
-2
-2
-2
-3
-3
-4
-4
-4
-4
-5
-5
-5
-5
-4
-5
-5
-5
-4
-5
-5
-6
-6
-6
-7
-8
-8
-8
-8
-7
-7
-8
-8
-8
-8
-8
-9
-9
-9
-9
-9
-9
-10
-10
-9
-9
-9
-10
-11
-11
-12
-12
-12
-11
-12
-13
-14
-14
-14
-14
-14
-14
-14
-14
-14
-14
-15
-16
-17
-17
-18
-17
-17
-18
-17
-17
-17
-18
-18
-18
-18
-16
-15
-15
-14
-12
-9
-6
-5
-3
-4
-6
-7
-7
-7
-7
-6
-6
-7
-8
-8
-9
-9
-8
-8
-7
-7
-6
-5
-5
-4
-4
-6
-12
-19
-22
-17
4
42
98
160
214
255
263
240
197
137
84
39
14
3
-1
-3
-4
-4
-6
-9
-11
-13
-16
-18
-20
-22
-24
-27
-28
-29
-30
-32
-33
-35
-35
-36
-37
-37
-37
-37
-36
-36
-35
-35
-35
-35
-34
-33
-34
-34
-32
-31
-29
-27
-25
-24
-23
-22
-20
-19
-17
-15
-13
-11
-9
-6
-3
-1
1
4
7
10
13
16
18
20
22
23
24
24
23
21
18
16
13
10
6
3
0
-1
-4
-6
-9
-11
-13
-15
-16
-18
-19
-20
-22
-23
-24
-25
-25
-25
-26
-27
-28
-28
-28
-29
-30
-31
-31
-31
-32
-33
-33
-33
-34
-34
-33
-34
-34
-34
-35
-35
-36
-35
-35
-35
-35
-35
-35
-36
-36
-37
-37
-38
-39
-38
-39
-39
-40
-40
-42
-42
-42
-42
-42
-42
-43
-45
-45
-46
-47
-47
-48
-49
-50
-50
-50
-51
-50
-50
-49
-49
-49
-50
-50
-50
-51
-50
-50
-51
-51
-50
-50
-50
-50
-48
-49
-49
-48
-49
-48
-48
-47
-48
-48
-48
-49
-48
-48
-48
-48
-47
-48
-48
-47
-48
-48
-49
-48
-49
-49
-49
-49
-49
-49
-49
-50
-50
-50
-50
-49
-50
-50
-51
-51
-52
-52
-51
-50
-48
-47
-46
-46
-43
-40
-37
-34
-34
-34
-35
-35
-37
-37
-38
-38
-39
-41
-41
-42
-42
-41
-41
-41
-40
-39
-39
-39
-38
-39
-41
-44
-50
-53
-48
-30
2
53
113
170
219
236
226
187
133
75
24
-8
-26
-33
-36
-38
-38
-38
-37
-39
-40
-41
-43
-44
-46
-46
-47
-47
-48
-48
-46
-46
-46
-47
-47
-49
-50
-50
-51
-51
-52
-51
-51
-50
-50
-50
-49
-48
-46
-45
-44
-43
-41
-40
-39
-38
-37
-35
-34
-31
-28
-26
-23
-20
-17
-12
-8
-5
-2
1
5
8
12
15
19
22
24
27
27
28
27
26
23
20
16
13
10
5
1
-1
-4
-7
-9
-10
-13
-15
-17
-19
-20
-20
-20
-22
-22
-22
-23
-24
-24
-24
-25
-25
-25
-26
-26
-26
-26
-27
-27
-28
-28
-28
-28
-28
-28
-28
-28
-28
-28
-29
-29
-29
-29
-30
-30
-30
-30
-31
-30
-30
-30
-31
-31
-30
-30
-29
-29
-28
-28
-29
-28
-29
-29
-29
-28
-28
-28
-29
-29
-29
-29
-28
-28
-27
-27
-27
-27
-27
-27
-27
-26
-26
-26
-26
-26
-26
-26
-26
-26
-26
-27
-27
-26
-26
-26
-27
-26
-27
-26
-26
-26
-25
-25
-25
-25
-24
-24
-24
-23
-23
-23
-24
-25
-25
-25
-24
-24
-24
-25
-24
-24
-24
-24
-23
-24
-23
-24
-24
-24
-24
-24
-23
-22
-20
-19
-18
-18
-16
-13
-9
-7
-6
-7
-8
-8
-9
-9
-10
-10
-10
-10
-9
-9
-8
-8
-7
-6
-5
-6
-5
-4
-3
-2
-3
-4
-9
-14
-15
-5
21
65
124
186
243
282
288
262
215
151
95
49
25
13
9
8
6
5
3
2
0
-2
-3
-6
-7
-8
-11
-12
-14
-14
-16
-16
-17
-17
-17
-17
-17
-18
-18
-18
-18
-18
-19
-19
-20
-19
-19
-18
-17
-16
-14
-13
-11
-10
-9
-8
-7
-5
-3
-1
0
1
2
4
8
12
15
20
23
26
28
31
34
37
41
44
47
49
51
52
53
54
52
52
49
47
43
40
36
32
30
27
24
20
18
15
14
12
10
9
8
7
6
5
5
3
2
1
0
0
-1
-1
-1
-1
-2
-2
-3
-3
-4
-4
-4
-4
-4
-4
-5
-5
-5
-5
-6
-6
-6
-6
-6
-6
-6
-6
-6
-6
-6
-6
-6
-6
-7
-7
-8
-8
-8
-8
-9
-8
-8
-8
-8
-8
-9
-10
-10
-11
-11
-11
-11
-12
-13
-13
-14
-14
-15
-15
-15
-15
-16
-16
-16
-17
-17
-17
-18
-18
-18
-18
-19
-20
-20
-19
-19
-19
-18
-19
-18
-19
-19
-19
-18
-18
-18
-18
-18
-19
-19
-19
-19
-19
-18
-19
-19
-18
-19
-18
-18
-17
-18
-19
-19
-19
-20
-20
-19
-19
-18
-18
-17
-17
-16
-14
-12
-10
-9
-7
-6
-4
-1
2
4
4
3
1
0
0
0
-1
-2
-3
-4
-5
-5
-5
-5
-4
-4
-4
-4
-4
-4
-2
-2
-3
-6
-10
-15
-17
-9
13
55
112
171
227
259
270
245
199
142
83
42
19
9
5
4
3
2
2
0
-2
-5
-8
-9
-11
-12
-13
-13
-14
-15
-16
-17
-17
-18
-18
-18
-19
-20
-20
-21
-22
-23
-23
-22
-21
-21
-21
-20
-19
-19
-19
-18
-17
-17
-16
-16
-14
-13
-10
-8
-6
-3
-1
1
3
5
8
11
15
17
21
24
28
30
34
38
39
41
42
43
41
40
37
33
31
28
26
22
19
16
14
11
9
8
6
4
2
1
0
0
-1
-2
-2
-3
-3
-3
-5
-6
-6
-7
-7
-8
-8
-9
-9
-10
-10
-10
-11
-11
-11
-12
-13
-13
-14
-15
-16
-16
-17
-17
-17
-18
-18
-18
-18
-19
-18
-19
-19
-19
-19
-19
-19
-19
-21
-21
-21
-22
-22
-22
-21
-22
-23
-23
-23
-23
-24
-23
-25
-25
-26
-26
-26
-27
-26
-27
-26
-26
-26
-26
-26
-26
-26
-26
-26
-26
-27
-27
-28
-28
-27
-28
-26
-26
-26
-26
-26
-26
-26
-25
-24
-24
-23
-23
-22
-22
-21
-21
-20
-20
-19
-19
-19
-21
-21
-20
-20
-20
-20
-20
-21
-22
-21
-20
-18
-17
-16
-15
-13
-10
-7
-6
-6
-7
-9
-10
-12
-13
-14
-16
-16
-17
-17
-18
-17
-17
-18
-17
-18
-16
-16
-16
-16
-17
-19
-24
-30
-33
-27
-8
30
85
148
204
245
256
238
192
137
77
33
7
-5
-9
-11
-12
-12
-13
-15
-17
-20
-23
-25
-25
-25
-26
-26
-27
-28
-28
-28
-29
-29
-29
-28
-29
-30
-30
-30
-30
-30
-30
-30
-30
-30
-31
-31
-31
-30
-31
-31
-31
-31
-30
-31
-30
-29
-27
-26
-25
-24
-23
-21
-18
-15
-13
-10
-6
-3
0
3
6
10
12
15
17
19
21
21
22
20
19
17
14
11
8
6
2
0
-3
-5
-8
-9
-11
-14
-15
-17
-18
-18
-18
-19
-20
-20
-21
-23
-24
-24
-25
-25
-24
-24
-24
-24
-24
-24
-25
-25
-26
-26
-26
-27
-28
-28
-29
-30
-30
-31
-31
-32
-33
-33
-34
-34
-35
-35
-35
-36
-36
-37
-36
-37
-36
-37
-37
-37
-38
-38
-39
-39
-39
-39
-38
-39
-39
-40
-41
-42
-43
-43
-43
-43
-43
-43
-43
-42
-42
-42
-42
-42
-42
-42
-41
-41
-40
-40
-39
-38
-38
-37
-37
-36
-36
-35
-35
-35
-34
-34
-33
-33
-33
-35
-34
-34
-33
-31
-30
-28
-26
-25
-26
-25
-21
-18
-17
-18
-19
-21
-22
-24
-24
-25
-25
-26
-27
-27
-29
-29
-29
-28
-28
-28
-27
-27
-27
-28
-28
-28
-30
-34
-39
-39
-29
-3
41
103
164
220
249
248
215
164
104
52
17
-1
-8
-11
-13
-13
-14
-14
-17
-19
-21
-23
-24
-25
-26
-28
-28
-28
-28
-28
-29
-28
-28
-28
-29
-29
-29
-29
-28
-28
-26
-27
-28
-27
-27
-26
-24
-23
-22
-21
-20
-19
-18
-17
-15
-14
-12
-10
-8
-6
-4
-2
0
1
3
5
7
9
11
15
18
21
23
26
28
30
31
32
33
32
30
27
25
22
19
17
13
10
7
4
1
-1
-2
-5
-6
-7
-8
-9
-10
-10
-11
-12
-13
-13
-13
-13
-14
-14
-14
-15
-15
-14
-14
-15
-15
-14
-15
-14
-15
-15
-15
-14
-14
-14
-14
-14
-14
-14
-15
-15
-15
-15
-15
-15
-15
-15
-16
-16
-17
-18
-18
-18
-18
-18
-17
-18
-19
-19
-19
-19
-19
-20
-20
-20
-20
-20
-20
-20
-21
-21
-21
-22
-22
-22
-22
-22
-21
-20
-20
-19
-19
-17
-16
-14
-13
-13
-13
-13
-14
-14
-13
-13
-12
-10
-9
-7
-6
-5
-4
-2
0
3
6
7
5
4
3
1
1
0
0
-1
-2
-3
-4
-4
-4
-4
-4
-5
-5
-5
-5
-6
-6
-5
-6
-8
-12
-16
-19
-11
9
51
105
165
223
258
269
246
202
147
91
47
22
10
6
5
4
4
3
2
1
0
0
-1
-2
-3
-3
-3
-6
-6
-7
-6
-6
-5
-5
-5
-5
-5
-4
-4
-4
-4
-2
-1
-1
-1
-1
-1
0
0
0
2
2
3
3
4
5
6
7
9
11
13
14
16
18
21
23
25
27
29
31
36
40
42
44
45
46
46
46
48
47
47
44
41
37
34
32
30
28
25
21
17
14
12
12
11
9
8
5
1
0
-2
-2
-2
-2
-2
-3
-4
-5
-6
-6
-6
-6
-6
-6
-6
-7
-7
-7
-8
-9
-11
-12
-12
-12
-11
-11
-10
-10
-10
-10
-9
-9
-9
-9
-10
-10
-10
-11
-11
-11
-12
-12
-13
-13
-14
-14
-14
-16
-16
-17
-18
-19
-19
-18
-20
-20
-21
-22
-22
-22
-22
-23
-22
-23
-23
-22
-22
-22
-22
-22
-22
-21
-20
-20
-19
-18
-17
-17
-17
-17
-17
-18
-18
-17
-18
-18
-19
-19
-19
-19
-20
-20
-20
-19
-18
-17
-15
-14
-13
-13
-13
-11
-8
-6
-6
-5
-7
-9
-11
-13
-14
-16
-16
-18
-19
-20
-21
-21
-21
-22
-22
-22
-22
-21
-21
-21
-20
-20
-21
-26
-33
-38
-37
-24
5
51
109
167
211
239
231
203
154
97
49
13
-5
-13
-16
-17
-18
-17
-18
-19
-22
-24
-26
-28
-29
-30
-30
-31
-32
-32
-33
-33
-33
-33
-34
-33
-33
-34
-35
-35
-34
-34
-33
-32
-31
-30
-30
-30
-30
-29
-28
-27
-25
-23
-23
-22
-21
-20
-18
-17
-16
-15
-13
-12
-11
-9
-7
-5
-2
0
2
5
7
11
13
15
18
18
19
18
17
14
13
10
6
4
0
-2
-6
-10
-12
-15
-17
-19
-21
-23
-25
-26
-27
-27
-28
-29
-30
-31
-32
-32
-33
-34
-34
-35
-35
-36
-36
-36
-37
-37
-38
-38
-39
-39
-39
-40
-40
-40
-40
-40
-39
-39
-38
-39
-40
-40
-41
-42
-43
-43
-44
-45
-44
-45
-44
-44
-43
-43
-43
-43
-44
-44
-46
-47
-48
-48
-50
-50
-50
-51
-51
-53
-52
-53
-53
-53
-53
-52
-52
-52
-52
-51
-50
-49
-48
-47
-46
-46
-45
-46
-45
-45
-45
-44
-44
-44
-45
-44
-42
-40
-38
-36
-37
-37
-37
-35
-32
-29
-27
-27
-28
-29
-31
-32
-34
-35
-36
-36
-38
-39
-40
-40
-40
-40
-39
-39
-39
-38
-38
-38
-38
-37
-39
-41
-45
-49
-45
-32
-3
45
103
163
207
227
220
181
131
71
21
-9
-25
-33
-36
-37
-37
-38
-38
-38
-38
-39
-41
-42
-43
-43
-45
-45
-45
-45
-45
-45
-44
-45
-44
-44
-43
-43
-42
-43
-42
-42
-42
-42
-42
-41
-40
-40
-39
-39
-38
-37
-36
-35
-34
-33
-31
-30
-28
-26
-23
-20
-19
-16
-13
-9
-6
-4
0
1
4
6
8
11
15
17
18
20
20
20
20
20
18
16
13
10
7
3
0
-3
-6
-9
-11
-13
-16
-18
-19
-21
-22
-23
-23
-24
-24
-24
-24
-24
-24
-24
-25
-25
-25
-26
-26
-25
-26
-26
-25
-25
-25
-26
-27
-28
-29
-29
-30
-30
-30
-30
-30
-31
-31
-32
-31
-31
-31
-31
-31
-32
-32
-32
-32
-31
-32
-31
-32
-33
-33
-34
-34
-34
-34
-34
-34
-35
-35
-34
-34
-34
-34
-34
-35
-34
-34
-35
-35
-36
-37
-38
-37
-37
-38
-38
-38
-38
-37
-36
-35
-34
-35
-35
-35
-36
-36
-35
-35
-35
-35
-35
-34
-34
-34
-32
-30
-27
-24
-22
-21
-20
-18
-15
-11
-8
-6
-5
-6
-8
-8
-9
-8
-9
-10
-10
-11
-13
-13
-14
-14
-14
-13
-13
-13
-12
-11
-11
-10
-10
-10
-13
-19
-24
-23
-11
21
73
139
208
263
294
291
254
200
131
74
34
14
6
3
3
1
0
-1
-3
-5
-7
-9
-10
-11
-12
-12
-13
-14
-14
-13
-13
-13
-13
-14
-14
-14
-14
-12
-12
-12
-11
-11
-10
-9
-7
-6
-5
-5
-4
-4
-2
-1
1
3
4
7
9
11
13
15
17
20
23
25
28
30
33
35
37
40
42
44
46
50
51
54
56
57
56
55
54
52
50
47
44
39
35
32
29
27
24
22
19
17
15
14
13
12
11
9
9
8
8
8
8
9
8
9
8
8
7
7
8
7
7
6
7
7
7
8
7
7
7
7
6
6
6
6
5
5
4
4
4
3
4
4
3
2
2
2
2
2
2
1
1
0
0
-1
-1
-1
-2
-2
-3
-3
-4
-4
-5
-5
-5
-5
-5
-5
-6
-6
-5
-6
-7
-7
-7
-8
-8
-7
-8
-7
-7
-8
-8
-8
-8
-8
-7
-7
-7
-7
-7
-7
-7
-7
-7
-7
-7
-6
-6
-6
-5
-6
-6
-6
-6
-6
-7
-7
-8
-8
-8
-7
-6
-6
-6
-6
-6
-5
-4
-3
-2
-1
-1
-1
-1
0
3
4
5
4
2
0
-1
-2
-3
-4
-4
-5
-6
-7
-8
-8
-8
-7
-7
-5
-5
-4
-3
-2
-1
-1
-1
-3
-8
-13
-15
-7
16
59
114
178
231
275
283
262
215
156
98
51
24
13
10
9
8
8
6
4
1
-1
-3
-5
-5
-7
-8
-8
-9
-11
-12
-13
-14
-14
-15
-16
-16
-18
-18
-18
-18
-18
-18
-18
-17
-17
-17
-18
-18
-18
-17
-17
-16
-16
-16
-14
-13
-11
-9
-8
-6
-4
-2
-1
1
4
7
9
12
17
19
22
25
28
31
35
38
40
41
41
40
39
39
37
34
32
28
24
21
18
16
14
12
10
8
6
5
3
3
2
1
0
0
0
-2
-3
-3
-3
-3
-3
-3
-3
-3
-4
-5
-4
-4
-4
-5
-5
-5
-4
-5
-5
-6
-6
-6
-6
-6
-7
-7
-7
-7
-6
-6
-6
-6
-4
-4
-4
-5
-6
-6
-6
-6
-6
-6
-7
-7
-7
-7
-6
-8
-8
-7
-8
-8
-8
-7
-8
-7
-8
-8
-9
-9
-10
-10
-10
-10
-9
-10
-10
-10
-10
-10
-11
-10
-10
-9
-9
-9
-9
-10
-10
-9
-9
-10
-10
-10
-11
-11
-11
-10
-10
-10
-9
-9
-9
-9
-9
-9
-9
-9
-8
-9
-9
-8
-8
-8
-8
-7
-7
-7
-7
-7
-8
-8
-7
-7
-6
-7
-7
-7
-7
-7
-8
-7
-8
-8
-8
-8
-8
-6
-4
-3
-2
-1
0
1
4
7
9
9
7
5
3
2
1
0
0
0
0
-1
-1
-1
0
0
1
1
2
3
4
6
6
6
5
3
-1
-7
-12
-10
6
40
95
160
223
276
299
291
253
194
130
78
41
24
19
16
15
13
12
11
8
6
3
0
-2
-3
-5
-6
-8
-10
-11
-13
-15
-15
-16
-16
-16
-16
-17
-16
-15
-16
-14
-14
-13
-13
-13
-12
-11
-11
-10
-8
-7
-5
-4
-3
-2
-1
0
2
4
6
7
10
12
14
17
19
23
26
29
31
35
38
42
46
49
52
54
56
56
56
56
54
52
49
47
43
40
38
33
30
26
23
21
18
16
14
11
9
8
7
6
5
5
5
3
3
1
1
0
0
1
0
1
2
2
2
2
1
0
0
-1
-1
-1
-1
-1
-1
-1
-2
-2
-3
-4
-5
-6
-7
-8
-8
-8
-8
-8
-8
-9
-9
-9
-9
-9
-11
-11
-12
-12
-12
-13
-13
-14
-15
-16
-17
-17
-18
-17
-17
-17
-17
-16
-18
-19
-19
-20
-20
-21
-20
-22
-23
-23
-23
-23
-23
-24
-26
-26
-27
-27
-28
-28
-27
-27
-27
-26
-25
-25
-26
-26
-26
-26
-28
-28
-28
-28
-28
-29
-29
-30
-31
-32
-32
-32
-32
-32
-32
-32
-34
-34
-34
-35
-35
-35
-36
-37
-37
-38
-38
-38
-36
-36
-36
-35
-35
-35
-36
-36
-35
-34
-32
-31
-30
-30
-30
-28
-25
-22
-20
-21
-23
-25
-27
-29
-31
-32
-32
-34
-35
-37
-37
-37
-38
-38
-38
-38
-37
-36
-36
-36
-37
-39
-42
-48
-52
-50
-33
0
51
116
177
227
251
237
201
141
80
27
-8
-25
-34
-38
-39
-40
-40
-41
-42
-43
-45
-47
-49
-49
-50
-52
-54
-55
-56
-57
-58
-59
-60
-60
-61
-62
-64
-64
-64
-63
-64
-63
-63
-62
-63
-63
-62
-62
-60
-59
-58
-58
-58
-56
-55
-53
-52
-50
-50
-48
-46
-43
-40
-38
-36
-34
-31
-28
-24
-21
-18
-14
-10
-6
-4
-2
0
2
3
4
3
2
0
-3
-6
-10
-13
-18
-21
-24
-28
-30
-33
-36
-38
-40
-42
-43
-44
-44
-44
-44
-45
-48
-51
-51
-52
-53
-55
-55
-57
-58
-57
-57
-57
-57
-56
-56
-56
-57
-58
-58
-59
-58
-58
-58
-58
-58
-58
-60
-59
-60
-59
-60
-59
-58
-59
-59
-59
-59
-60
-60
-60
-59
-59
-60
-60
-61
-60
-61
-61
-60
-61
-61
-62
-63
-64
-64
-64
-64
-64
-63
-63
-64
-63
-63
-62
-62
-62
-62
-62
-61
-61
-61
-61
-61
-62
-62
-62
-63
-62
-62
-61
-60
-59
-60
-61
-60
-60
-60
-59
-58
-59
-59
-58
-58
-58
-58
-57
-57
-56
-55
-54
-52
-50
-47
-45
-42
-41
-40
-39
-37
-33
-31
-28
-29
-30
-32
-33
-34
-34
-35
-36
-37
-39
-39
-39
-40
-40
-39
-39
-39
-38
-36
-35
-36
-35
-36
-39
-44
-47
-43
-28
5
53
118
176
227
252
246
210
157
95
41
4
-14
-23
-28
-30
-30
-30
-30
-30
-32
-32
-34
-35
-37
-37
-38
-39
-38
-39
-39
-40
-40
-40
-40
-39
-39
-38
-38
-38
-38
-37
-36
-36
-35
-34
-33
-33
-32
-31
-30
-30
-29
-28
-27
-26
-26
-25
-23
-22
-19
-17
-15
-13
-10
-8
-5
-1
3
7
11
14
18
21
25
29
31
34
35
36
35
34
32
30
28
24
21
17
14
10
7
6
4
2
0
-1
-1
-2
-2
-4
-5
-5
-5
-5
-5
-5
-5
-6
-5
-5
-5
-5
-5
-6
-6
-7
-7
-7
-7
-7
-7
-8
-9
-9
-10
-10
-11
-10
-10
-10
-11
-11
-12
-12
-12
-12
-13
-13
-14
-13
-12
-12
-13
-12
-14
-13
-13
-13
-13
-13
-11
-12
-11
-11
-11
-11
-10
-10
-11
-11
-11
-11
-11
-11
-11
-10
-11
-12
-12
-11
-10
-10
-11
-10
-11
-10
-10
-11
-11
-10
-9
-9
-9
-10
-10
-11
-10
-10
-10
-10
-10
-9
-9
-10
-10
-9
-9
-9
-10
-9
-8
-9
-9
-10
-9
-9
-8
-8
-7
-5
-4
-1
1
3
3
5
7
10
13
14
13
12
10
9
9
10
8
7
6
5
4
4
4
3
3
3
4
4
5
6
7
6
2
-2
-7
-7
5
36
85
150
212
266
297
289
261
203
141
86
47
28
20
18
16
15
14
13
11
9
6
3
2
0
0
0
0
0
-1
-2
-2
-2
-3
-3
-3
-3
-2
-3
-3
-2
-1
-1
-1
-1
-1
-2
-3
-3
-2
-2
-2
-1
0
0
1
2
3
4
5
8
9
11
13
16
17
21
23
26
28
31
34
36
40
41
45
48
49
51
51
52
51
51
49
47
44
41
39
35
33
29
27
24
22
21
19
18
17
16
14
13
13
13
12
12
12
11
10
10
10
9
8
8
7
7
7
8
9
7
6
4
4
3
3
2
1
0
-1
-1
-2
-2
-1
-1
-1
0
0
0
0
0
0
-1
-2
-1
-2
-2
-2
-2
-3
-3
-4
-3
-4
-5
-5
-5
-4
-4
-4
-5
-6
-6
-5
-5
-5
-5
-6
-6
-7
-7
-7
-8
-8
-9
-9
-9
-9
-8
-8
-7
-6
-6
-6
-7
-8
-8
-8
-7
-6
-6
-6
-6
-7
-7
-7
-7
-8
-7
-8
-8
-8
-9
-9
-9
-9
-10
-10
-10
-10
-11
-11
-10
-8
-5
-2
0
0
2
4
6
9
11
11
10
9
6
4
2
1
1
0
0
-1
-2
-3
-4
-4
-4
-4
-4
-3
-3
-2
-3
-3
-3
-5
-10
-16
-18
-9
14
59
116
180
234
273
276
250
199
139
82
43
21
12
9
6
5
3
2
1
-2
-4
-6
-7
-9
-9
-10
-12
-13
-13
-13
-13
-13
-14
-14
-14
-15
-15
-15
-15
-14
-13
-12
-12
-12
-11
-11
-11
-11
-11
-11
-11
-11
-11
-11
-9
-8
-6
-4
-3
-2
0
0
2
5
6
9
13
17
20
23
27
29
32
34
37
39
41
43
43
43
41
40
38
36
33
30
27
23
20
17
14
12
9
8
6
5
4
3
2
2
2
0
0
-2
-2
-2
-2
-3
-4
-5
-7
-8
-10
-10
-11
-10
-9
-9
-9
-9
-10
-10
-10
-11
-12
-13
-14
-15
-16
-16
-16
-16
-17
-18
-19
-19
-19
-19
-19
-19
-20
-21
-21
-21
-21
-21
-21
-21
-21
-22
-22
-22
-21
-23
-24
-24
-25
-25
-26
-27
-28
-28
-28
-27
-27
-28
-28
-28
-27
-28
-29
-28
-29
-29
-29
-29
-30
-30
-31
-31
-31
-31
-30
-31
-30
-31
-30
-30
-29
-29
-28
-27
-27
-26
-26
-26
-26
-25
-25
-25
-24
-24
-24
-24
-25
-26
-27
-27
-28
-28
-27
-24
-23
-22
-23
-23
-22
-20
-17
-14
-13
-15
-16
-18
-19
-21
-22
-22
-24
-25
-27
-29
-29
-28
-27
-28
-27
-28
-28
-28
-28
-28
-28
-28
-33
-38
-42
-41
-25
5
54
118
176
225
251
239
207
152
94
41
4
-15
-24
-27
-28
-29
-30
-30
-30
-31
-32
-34
-36
-38
-39
-39
-39
-38
-38
-37
-38
-39
-39
-40
-39
-39
-39
-40
-40
-40
-40
-39
-39
-38
-37
-38
-38
-38
-38
-38
-38
-38
-37
-37
-36
-34
-33
-31
-28
-25
-24
-22
-21
-18
-16
-13
-11
-7
-4
-2
0
2
4
6
9
12
15
18
21
21
20
19
16
13
10
7
4
0
-2
-6
-9
-12
-16
-18
-20
-22
-23
-25
-27
-29
-31
-32
-33
-34
-35
-36
-37
-37
-38
-38
-39
-39
-41
-42
-42
-43
-44
-45
-46
-46
-46
-46
-48
-49
-51
-52
-52
-52
-52
-52
-51
-52
-53
-53
-52
-54
-54
-53
-54
-53
-54
-54
-55
-55
-56
-55
-54
-55
-55
-57
-56
-57
-57
-57
-57
-57
-58
-58
-59
-59
-58
-59
-59
-59
-58
-60
-59
-59
-59
-59
-59
-60
-61
-61
-61
-60
-60
-59
-57
-55
-54
-53
-52
-52
-52
-52
-51
-52
-52
-52
-51
-49
-47
-45
-44
-43
-43
-43
-41
-39
-36
-33
-31
-33
-34
-35
-36
-38
-38
-38
-40
-41
-41
-42
-42
-42
-40
-41
-40
-40
-40
-39
-39
-38
-38
-39
-43
-47
-48
-42
-23
11
65
126
183
227
246
236
199
140
81
27
-3
-20
-28
-31
-32
-33
-33
-33
-34
-34
-35
-36
-37
-39
-39
-39
-40
-41
-41
-40
-41
-41
-40
-40
-40
-40
-39
-40
-40
-40
-40
-39
-38
-36
-36
-35
-35
-35
-33
-33
-32
-30
-29
-27
-25
-23
-21
-19
-17
-14
-12
-10
-7
-5
-2
0
2
5
8
11
14
17
20
23
26
28
30
31
31
30
28
27
24
21
17
13
10
7
4
0
-2
-5
-8
-9
-11
-13
-14
-15
-17
-17
-17
-17
-17
-17
-17
-18
-18
-18
-19
-19
-19
-18
-19
-19
-20
-20
-21
-23
-24
-25
-25
-24
-23
-22
-22
-22
-22
-21
-21
-21
-21
-21
-21
-21
-21
-21
-21
-21
-21
-22
-22
-22
-23
-23
-23
-22
-22
-22
-23
-23
-24
-24
-24
-24
-24
-24
-24
-25
-25
-24
-24
-24
-24
-23
-24
-24
-23
-23
-23
-23
-23
-23
-22
-22
-21
-21
-21
-21
-21
-21
-21
-22
-23
-23
-22
-22
-20
-20
-20
-20
-19
-18
-16
-13
-11
-9
-7
-6
-5
-4
-1
1
5
6
6
4
2
0
-1
-1
-1
-2
-2
-3
-3
-4
-5
-6
-6
-6
-5
-4
-3
-3
-2
-2
-3
-6
-11
-15
-15
-4
21
68
127
188
243
275
278
248
196
135
79
40
20
13
9
7
6
5
3
1
0
-2
-3
-6
-6
-8
-9
-10
-10
-10
-11
-11
-11
-11
-11
-11
-11
-11
-11
-11
-10
-10
-9
-8
-8
-7
-7
-7
-6
-4
-3
-2
0
0
1
2
3
5
7
9
11
12
14
15
17
20
22
25
28
31
34
37
40
43
47
48
51
51
52
52
52
53
49
47
43
40
37
33
31
27
24
20
18
16
14
12
10
8
7
6
5
5
4
3
3
2
1
0
0
1
1
1
0
0
-1
-2
-3
-3
-3
-3
-3
-2
-2
-1
-2
-2
-2
-3
-3
-3
-3
-4
-4
-5
-5
-6
-6
-5
-6
-6
-6
-8
-8
-9
-9
-11
-11
-12
-12
-13
-13
-13
-12
-12
-13
-13
-12
-12
-13
-15
-17
-18
-17
-15
-16
-16
-16
-16
-15
-15
-15
-16
-16
-17
-16
-16
-16
-16
-15
-15
-16
-16
-16
-16
-16
-16
-15
-16
-15
-15
-16
-16
-16
-15
-16
-16
-17
-18
-18
-18
-18
-19
-19
-19
-19
-20
-19
-18
-17
-16
-14
-13
-12
-12
-11
-7
-3
0
1
1
0
0
0
-1
-2
-2
-2
-2
-3
-5
-5
-5
-6
-5
-5
-4
-4
-3
-2
-2
-1
-1
-2
-5
-11
-14
-15
-4
24
70
129
192
242
279
279
249
199
134
80
38
18
10
8
7
6
5
3
1
-1
-4
-7
-8
-9
-11
-11
-12
-13
-14
-15
-15
-15
-16
-16
-16
-16
-16
-16
-16
-15
-14
-13
-13
-13
-13
-13
-13
-11
-10
-9
-9
-8
-8
-7
-6
-5
-3
-2
0
3
5
8
9
13
17
20
23
25
29
31
34
38
41
44
46
48
48
50
49
49
47
45
43
40
37
33
30
27
24
21
19
17
14
12
10
8
6
5
4
5
6
5
5
5
4
4
4
4
3
3
2
2
2
1
1
1
1
0
0
-1
-1
-2
-3
-2
-4
-5
-5
-6
-6
-6
-5
-7
-8
-8
-8
-8
-9
-10
-10
-10
-10
-10
-10
-11
-12
-13
-13
-14
-14
-14
-14
-13
-13
-13
-14
-14
-15
-14
-14
-14
-14
-14
-13
-14
-14
-15
-15
-15
-14
-14
-14
-14
-14
-15
-15
-14
-15
-15
-15
-15
-15
-16
-15
-15
-15
-15
-16
-16
-15
-15
-15
-14
-14
-14
-14
-14
-14
-14
-13
-14
-13
-13
-12
-13
-13
-12
-12
-12
-12
-12
-12
-12
-12
-12
-13
-14
-14
-12
-11
-10
-8
-7
-7
-7
-7
-4
-1
1
1
0
0
-1
-2
-3
-1
-1
-1
-1
-1
-2
-2
-2
-2
-1
-1
-1
-2
-1
-1
-1
-1
-2
-4
-9
-16
-20
-15
4
39
95
155
216
262
279
267
228
171
111
60
28
14
7
5
5
3
2
0
-2
-5
-7
-7
-9
-10
-12
-13
-13
-14
-15
-16
-17
-18
-18
-19
-19
-19
-20
-21
-22
-23
-23
-23
-23
-24
-23
-23
-22
-21
-21
-20
-19
-17
-15
-14
-12
-10
-9
-7
-6
-4
-2
0
3
6
8
10
14
16
20
23
26
29
32
36
36
38
39
40
38
36
35
32
30
26
23
20
17
13
11
8
5
4
1
-1
-2
-4
-5
-7
-8
-9
-10
-11
-11
-11
-12
-13
-14
-14
-14
-14
-15
-16
-16
-17
-17
-18
-18
-19
-20
-19
-20
-20
-21
-21
-21
-22
-22
-23
-23
-22
-23
-23
-23
-24
-25
-25
-26
-26
-27
-27
-28
-28
-28
-30
-30
-31
-32
-32
-31
-31
-32
-32
-33
-33
-34
-33
-34
-36
-35
-35
-35
-36
-37
-38
-39
-39
-39
-39
-39
-39
-41
-41
-42
-42
-42
-42
-41
-41
-41
-42
-43
-43
-44
-43
-44
-43
-44
-44
-45
-45
-45
-46
-45
-46
-45
-46
-46
-46
-46
-46
-46
-46
-47
-47
-48
-48
-47
-46
-46
-47
-47
-47
-46
-45
-44
-43
-44
-43
-43
-42
-41
-41
-39
-36
-35
-34
-33
-33
-33
-31
-27
-26
-25
-27
-29
-30
-32
-32
-34
-35
-36
-37
-38
-40
-39
-39
-38
-37
-37
-37
-37
-37
-37
-37
-39
-41
-46
-51
-50
-40
-12
31
90
154
204
236
237
202
155
91
36
-1
-24
-34
-39
-40
-40
-41
-40
-40
-42
-43
-45
-47
-49
-49
-49
-49
-50
-50
-51
-52
-53
-53
-53
-53
-54
-55
-55
-55
-56
-54
-54
-53
-54
-53
-53
-52
-50
-50
-48
-47
-45
-45
-44
-42
-42
-39
-38
-35
-34
-32
-30
-27
-24
-22
-18
-14
-11
-6
-2
1
5
9
12
15
18
19
21
21
21
20
18
15
12
9
6
2
0
-4
-7
-11
-13
-16
-18
-21
-23
-25
-27
-29
-30
-31
-32
-33
-33
-35
-36
-37
-38
-38
-37
-38
-38
-39
-40
-41
-41
-42
-41
-41
-42
-43
-44
-44
-45
-45
-45
-44
-45
-45
-44
-43
-42
-43
-42
-43
-43
-42
-42
-42
-43
-43
-42
-41
-41
-41
-41
-42
-41
-42
-42
-44
-43
-43
-43
-42
-41
-41
-41
-41
-41
-41
-41
-41
-41
-42
-42
-43
-42
-42
-42
-41
-41
-41
-42
-42
-43
-42
-42
-41
-42
-41
-41
-41
-41
-41
-39
-40
-40
-39
-40
-39
-39
-39
-38
-37
-37
-36
-35
-35
-33
-31
-27
-25
-22
-21
-20
-19
-17
-13
-10
-7
-7
-9
-10
-11
-11
-13
-14
-15
-15
-16
-17
-18
-18
-19
-19
-19
-17
-17
-17
-15
-15
-14
-13
-15
-19
-24
-27
-23
-5
28
81
144
203
256
282
278
242
187
123
67
27
8
0
-3
-5
-6
-7
-7
-8
-8
-11
-13
-14
-15
-16
-16
-17
-17
-17
-18
-17
-17
-17
-17
-17
-16
-17
-16
-16
-16
-16
-15
-14
-14
-13
-12
-11
-11
-9
-8
-7
-7
-6
-5
-3
-3
-3
-2
-1
0
0
2
4
7
11
13
17
21
25
29
33
38
40
44
47
49
51
51
51
50
49
46
43
40
37
34
30
27
23
20
16
14
11
9
8
5
4
4
3
2
1
1
0
0
0
0
-1
-2
-2
-2
-2
-2
-3
-3
-2
-2
-2
-3
-4
-4
-4
-4
-4
-4
-4
-5
-5
-6
-7
-7
-7
-7
-8
-8
-9
-10
-10
-10
-10
-10
-10
-11
-11
-12
-12
-13
-13
-14
-14
-14
-14
-15
-15
-14
-14
-14
-15
-14
-14
-14
-13
-12
-12
-13
-14
-15
-15
-15
-15
-15
-16
-16
-16
-17
-17
-17
-15
-16
-14
-14
-13
-14
-14
-13
-13
-13
-13
-13
-13
-13
-12
-12
-12
-12
-12
-13
-13
-12
-12
-12
-12
-12
-12
-13
-12
-11
-9
-7
-5
-4
-3
-2
0
2
6
9
9
8
7
5
3
3
1
1
0
0
-1
-2
-1
-2
-1
-1
-1
-1
-1
-1
0
0
0
-1
-6
-12
-15
-8
11
53
113
174
241
281
299
282
233
172
106
57
27
14
10
8
7
6
5
2
0
-2
-5
-6
-8
-10
-11
-12
-13
-13
-13
-14
-14
-14
-14
-14
-14
-15
-15
-15
-15
-14
-13
-12
-12
-12
-11
-11
-10
-10
-9
-8
-7
-7
-7
-7
-6
-6
-4
-1
0
1
3
5
7
10
14
16
20
22
25
28
31
33
36
40
42
45
46
47
46
47
46
44
42
38
35
30
27
25
22
20
17
15
12
11
8
6
5
4
3
2
0
-1
-2
-3
-4
-4
-4
-4
-4
-4
-5
-5
-5
-6
-6
-6
-6
-7
-8
-9
-10
-10
-10
-10
-11
-12
-12
-12
-13
-14
-15
-15
-15
-16
-16
-16
-17
-17
-17
-16
-17
-18
-18
-18
-18
-18
-18
-18
-19
-19
-19
-19
-18
-19
-19
-18
-19
-19
-19
-19
-18
-18
-17
-18
-18
-18
-18
-17
-17
-17
-17
-17
-18
-18
-18
-18
-18
-18
-18
-19
-19
-19
-20
-20
-21
-21
-21
-21
-21
-21
-21
-21
-22
-23
-22
-23
-23
-24
-23
-24
-23
-23
-22
-23
-23
-23
-22
-21
-21
-21
-21
-22
-22
-21
-19
-18
-17
-15
-14
-13
-12
-8
-5
-3
-2
-2
-3
-4
-5
-6
-6
-7
-7
-8
-8
-10
-10
-10
-10
-10
-10
-10
-10
-8
-8
-8
-7
-8
-11
-17
-23
-23
-11
19
67
129
190
243
272
268
230
179
114
60
23
6
0
-3
-4
-5
-7
-9
-11
-14
-17
-18
-19
-20
-21
-22
-23
-23
-24
-24
-25
-24
-25
-25
-25
-25
-25
-25
-25
-25
-25
-25
-24
-25
-25
-25
-25
-24
-22
-21
-20
-20
-18
-17
-15
-13
-12
-10
-7
-6
-4
-2
0
3
6
8
11
14
16
19
22
25
28
31
33
35
36
36
35
33
32
29
27
24
21
18
15
13
10
7
5
3
2
0
0
-2
-4
-5
-6
-7
-8
-8
-9
-9
-9
-10
-11
-11
-12
-11
-11
-12
-13
-14
-16
-17
-18
-17
-18
-18
-18
-18
-18
-17
-17
-18
-18
-19
-19
-19
-20
-20
-22
-21
-22
-22
-22
-23
-24
-24
-24
-25
-25
-26
-26
-27
-26
-27
-27
-27
-28
-28
-28
-28
-28
-30
-31
-31
-31
-31
-32
-32
-32
-32
-34
-34
-34
-34
-34
-34
-35
-37
-38
-38
-38
-38
-37
-37
-38
-38
-38
-38
-39
-39
-39
-40
-40
-40
-40
-41
-41
-42
-41
-42
-42
-41
-42
-41
-42
-40
-41
-40
-40
-40
-40
-41
-41
-42
-41
-42
-41
-40
-40
-39
-39
-38
-37
-35
-32
-30
-28
-28
-27
-26
-22
-20
-20
-19
-20
-22
-24
-25
-26
-27
-28
-29
-30
-31
-31
-32
-31
-31
-31
-30
-29
-29
-29
-29
-30
-33
-38
-43
-46
-40
-19
21
74
140
193
237
253
232
192
131
70
23
-6
-20
-27
-29
-29
-29
-29
-30
-31
-34
-36
-37
-38
-39
-39
-39
-40
-40
-42
-42
-42
-42
-42
-42
-42
-43
-42
-42
-42
-42
-43
-43
-44
-44
-45
-45
-44
-43
-42
-42
-41
-41
-40
-38
-37
-36
-34
-33
-31
-30
-29
-27
-24
-21
-19
-16
-12
-9
-7
-4
0
2
5
9
12
15
18
20
20
19
18
17
15
13
9
6
2
-1
-5
-9
-12
-14
-17
-18
-21
-24
-25
-27
-29
-29
-30
-31
-31
-31
-31
-31
-31
-32
-32
-32
-33
-33
-33
-34
-34
-35
-36
-36
-36
-37
-37
-38
-38
-40
-40
-41
-41
-42
-42
-42
-42
-43
-44
-44
-44
-44
-44
-44
-44
-44
-44
-43
-44
-43
-43
-43
-43
-43
-43
-44
-43
-44
-42
-43
-44
-44
-44
-43
-45
-45
-45
-44
-44
-45
-45
-45
-44
-45
-44
-44
-44
-44
-45
-45
-46
-46
-47
-46
-46
-46
-45
-45
-45
-45
-45
-46
-45
-45
-45
-44
-44
-44
-45
-44
-44
-44
-44
-44
-44
-44
-43
-43
-42
-41
-40
-40
-38
-35
-33
-30
-28
-26
-25
-23
-20
-16
-14
-14
-15
-16
-16
-17
-18
-19
-20
-21
-22
-22
-24
-24
-24
-23
-23
-22
-21
-21
-19
-19
-18
-18
-21
-26
-31
-29
-16
13
64
126
190
243
270
267
228
172
108
51
18
-1
-9
-11
-12
-13
-13
-13
-14
-16
-18
-21
-22
-23
-24
-24
-24
-24
-24
-24
-24
-24
-24
-22
-23
-23
-23
-22
-22
-21
-20
-19
-18
-18
-17
-17
-16
-15
-14
-13
-12
-12
-11
-10
-9
-8
-6
-4
-2
0
2
5
8
11
12
16
20
24
28
33
37
41
44
48
50
52
55
56
59
58
58
56
53
50
46
43
37
33
29
26
23
21
19
17
15
14
12
10
9
8
7
7
6
5
5
4
3
3
4
3
3
2
2
2
2
3
1
0
0
0
0
0
-1
-1
-1
-2
-3
-3
-3
-3
-3
-4
-5
-5
-5
-5
-5
-4
-4
-5
-5
-6
-7
-7
-6
-6
-6
-7
-7
-7
-7
-7
-7
-7
-7
-7
-7
-7
-7
-7
-6
-7
-7
-6
-6
-6
-6
-5
-6
-4
-3
-3
-3
-3
-4
-4
-3
-3
-2
-2
-1
-1
0
0
0
0
0
0
0
0
1
0
0
0
0
0
0
0
-1
-2
-2
-2
-3
-3
-3
-3
-2
-2
-1
0
2
3
4
5
6
9
13
16
16
16
14
13
12
11
11
11
10
9
9
7
7
6
6
6
6
7
6
7
8
9
9
9
7
2
-2
-5
2
23
63
121
181
243
281
293
272
225
165
106
61
35
25
22
20
19
18
18
15
13
10
8
5
4
4
1
1
0
0
0
0
0
0
0
0
0
-1
-1
-2
-2
-1
-1
0
0
1
1
2
2
3
2
3
3
4
5
6
6
8
9
11
13
15
17
20
21
24
27
30
33
36
41
43
48
50
53
55
57
61
62
65
65
66
64
62
60
57
55
51
47
42
39
34
31
29
26
24
21
19
17
16
15
14
13
12
12
11
12
11
11
11
10
11
10
10
10
10
9
8
8
7
5
5
4
3
2
2
1
1
0
0
0
-1
-1
-2
-2
-3
-4
-5
-4
-5
-6
-6
-7
-8
-8
-8
-9
-10
-10
-11
-12
-13
-13
-14
-13
-13
-14
-14
-13
-13
-14
-14
-15
-15
-15
-15
-16
-16
-16
-16
-16
-16
-16
-15
-14
-14
-14
-14
-13
-13
-12
-12
-12
-12
-12
-13
-13
-13
-14
-13
-14
-14
-14
-15
-15
-15
-15
-14
-15
-16
-17
-17
-17
-17
-16
-17
-17
-17
-17
-17
-18
-19
-20
-19
-18
-17
-16
-15
-15
-14
-10
-6
-4
-3
-4
-5
-6
-6
-6
-6
-6
-6
-6
-7
-7
-9
-9
-9
-9
-9
-7
-7
-7
-7
-7
-7
-10
-15
-21
-25
-20
-1
36
94
158
216
263
272
254
208
146
87
39
14
4
0
-1
-2
-3
-4
-7
-10
-12
-15
-17
-19
-20
-21
-22
-23
-24
-24
-24
-25
-25
-26
-26
-27
-27
-27
-27
-26
-26
-25
-25
-25
-24
-24
-25
-25
-24
-24
-24
-24
-24
-23
-22
-20
-18
-16
-15
-14
-12
-10
-9
-7
-5
-3
0
2
6
9
12
14
18
21
24
27
28
30
31
32
31
30
29
26
23
19
15
12
9
6
4
1
0
-1
-3
-4
-6
-7
-8
-8
-9
-10
-11
-12
-12
-12
-13
-13
-14
-13
-14
-14
-14
-14
-15
-15
-15
-16
-16
-17
-18
-18
-18
-18
-18
-19
-20
-20
-21
-22
-22
-22
-22
-23
-24
-23
-24
-24
-24
-24
-25
-25
-25
-26
-27
-27
-26
-26
-26
-27
-27
-26
-27
-28
-29
-28
-29
-28
-28
-29
-30
-31
-31
-32
-32
-32
-32
-32
-33
-33
-33
-33
-33
-33
-33
-33
-32
-32
-32
-33
-34
-34
-35
-35
-34
-34
-34
-35
-35
-35
-35
-34
-35
-35
-35
-36
-35
-36
-36
-36
-36
-36
-36
-35
-36
-37
-37
-37
-37
-37
-36
-37
-36
-36
-36
-38
-38
-37
-38
-38
-38
-38
-39
-38
-37
-34
-33
-32
-30
-27
-24
-22
-21
-21
-23
-24
-25
-25
-27
-27
-27
-27
-28
-29
-30
-30
-30
-30
-29
-28
-27
-26
-25
-24
-25
-28
-33
-38
-37
-25
0
47
101
162
211
239
241
212
167
109
53
14
-7
-17
-21
-22
-23
-24
-24
-25
-27
-29
-30
-32
-34
-35
-37
-37
-38
-38
-39
-39
-39
-39
-39
-40
-40
-41
-42
-43
-44
-44
-45
-45
-46
-46
-47
-45
-44
-44
-42
-41
-40
-39
-37
-36
-35
-33
-31
-30
-29
-28
-26
-24
-22
-19
-16
-13
-10
-7
-4
-1
1
4
8
10
13
15
16
17
17
18
15
12
9
6
3
0
-2
-6
-9
-12
-13
-16
-18
-20
-22
-24
-25
-26
-26
-28
-28
-29
-29
-31
-31
-32
-32
-32
-33
-33
-35
-35
-35
-35
-35
-35
-34
-35
-35
-36
-36
-36
-37
-38
-38
-38
-39
-38
-39
-40
-40
-40
-41
-42
-42
-42
-43
-42
-42
-42
-43
-42
-43
-43
-43
-43
-43
-44
-44
-45
-45
-45
-45
-45
-45
-46
-48
-47
-47
-47
-47
-46
-47
-48
-48
-48
-48
-49
-48
-49
-49
-49
-49
-48
-49
-48
-49
-48
-48
-48
-48
-49
-49
-49
-48
-49
-48
-48
-48
-48
-48
-48
-48
-47
-47
-47
-47
-47
-48
-48
-48
-48
-47
-47
-47
-48
-48
-49
-49
-49
-49
-49
-49
-48
-47
-46
-44
-44
-43
-42
-38
-36
-35
-35
-36
-36
-36
-36
-36
-36
-37
-37
-38
-39
-39
-38
-36
-37
-37
-36
-36
-34
-33
-31
-31
-31
-33
-37
-42
-43
-33
-9
32
91
152
208
248
255
237
189
133
72
23
-2
-17
-22
-25
-26
-27
-27
-28
-29
-31
-33
-36
-37
-39
-39
-38
-38
-39
-39
-40
-41
-41
-41
-41
-41
-40
-40
-40
-40
-40
-40
-40
-38
-38
-39
-38
-38
-36
-36
-35
-34
-33
-32
-30
-28
-27
-25
-23
-21
-19
-18
-14
-12
-10
-8
-4
-2
0
4
7
11
15
18
22
24
27
29
31
33
32
31
29
27
23
20
16
13
10
6
2
0
-3
-6
-8
-8
-10
-11
-12
-13
-14
-15
-15
-15
-16
-17
-17
-17
-17
-18
-18
-18
-19
-19
-20
-20
-20
-21
-20
-21
-21
-21
-21
-21
-22
-21
-21
-21
-21
-21
-21
-22
-23
-23
-23
-23
-22
-21
-22
-22
-22
-22
-23
-23
-23
-23
-23
-24
-23
-23
-22
-23
-23
-22
-23
-23
-23
-23
-23
-24
-24
-24
-25
-24
-24
-24
-25
-24
-24
-24
-24
-24
-24
-23
-24
-23
-23
-23
-23
-23
-23
-23
-23
-23
-23
-21
-21
-22
-21
-21
-21
-21
-21
-20
-20
-21
-21
-21
-20
-21
-19
-20
-20
-20
-19
-19
-19
-19
-19
-19
-19
-19
-19
-18
-18
-18
-18
-19
-18
-18
-17
-16
-14
-12
-12
-11
-11
-9
-6
-3
-3
-4
-5
-6
-8
-8
-9
-9
-9
-9
-9
-9
-8
-7
-7
-6
-6
-5
-4
-3
-1
-1
0
-1
-5
-10
-14
-11
5
38
90
156
215
272
295
290
253
195
133
77
40
22
14
11
10
10
8
6
3
0
-2
-4
-6
-8
-9
-11
-12
-13
-14
-14
-15
-14
-15
-15
-15
-16
-17
-17
-18
-18
-17
-18
-18
-17
-17
-16
-16
-15
-14
-13
-12
-10
-8
-6
-4
-2
-1
0
2
5
8
10
12
14
16
19
23
27
29
33
35
38
40
44
46
48
50
50
51
49
49
47
45
43
40
37
33
31
27
25
23
19
17
15
13
11
10
9
7
6
5
5
5
4
4
3
2
1
0
0
0
0
0
0
0
0
0
0
0
-1
-2
-2
-3
-3
-4
-4
-4
-4
-4
-5
-5
-6
-6
-7
-6
-6
-7
-7
-8
-9
-8
-8
-6
-7
-7
-8
-8
-8
-9
-8
-9
-10
-10
-9
-9
-9
-9
-9
-8
-9
-9
-9
-9
-9
-9
-9
-9
-9
-9
-9
-9
-10
-10
-10
-10
-10
-10
-10
-10
-10
-11
-11
-11
-11
-11
-11
-11
-11
-11
-12
-12
-13
-13
-13
-12
-12
-12
-12
-13
-13
-13
-11
-12
-11
-11
-12
-12
-12
-12
-11
-10
-10
-10
-11
-10
-10
-10
-10
-11
-11
-11
-10
-10
-10
-10
-11
-12
-12
-11
-10
-9
-7
-7
-6
-6
-4
-1
0
1
1
0
-1
-2
-2
-3
-3
-2
-2
-3
-3
-3
-2
-1
0
0
0
2
2
3
3
4
3
0
-6
-10
-9
3
35
85
150
214
269
295
288
249
191
127
72
39
21
16
14
13
12
11
9
6
3
0
-1
-3
-4
-6
-8
-9
-11
-11
-12
-13
-13
-15
-16
-17
-18
-18
-18
-17
-17
-16
-16
-15
-14
-13
-13
-12
-10
-9
-8
-6
-5
-3
-1
0
1
3
4
6
7
10
11
13
16
18
21
25
28
31
34
37
40
43
46
48
49
51
51
51
50
49
47
44
42
37
33
29
26
21
18
16
13
11
8
6
5
3
2
1
0
0
0
-1
-1
-2
-2
-2
-3
-3
-4
-4
-5
-5
-4
-3
-3
-3
-3
-3
-3
-3
-4
-3
-3
-3
-3
-3
-3
-4
-4
-4
-4
-4
-4
-4
-4
-4
-4
-4
-5
-4
-5
-5
-6
-6
-6
-7
-8
-9
-9
-9
-9
-9
-8
-8
-8
-9
-9
-9
-10
-10
-10
-11
-11
-11
-10
-11
-12
-12
-13
-13
-14
-13
-14
-14
-14
-15
-15
-15
-14
-14
-14
-14
-15
-15
-16
-16
-16
-15
-15
-15
-15
-15
-15
-15
-15
-15
-15
-16
-16
-15
-16
-16
-16
-15
-15
-15
-15
-15
-15
-15
-15
-16
-16
-16
-16
-15
-15
-16
-16
-17
-18
-18
-19
-18
-18
-18
-17
-16
-14
-13
-12
-10
-7
-5
-3
-2
-2
-4
-5
-5
-6
-6
-7
-7
-8
-10
-10
-11
-11
-11
-10
-9
-9
-8
-8
-7
-7
-8
-10
-15
-21
-22
-13
11
54
114
174
225
257
253
225
173
113
61
23
6
-1
-4
-6
-8
-9
-10
-13
-14
-17
-19
-20
-21
-23
-25
-26
-26
-27
-29
-30
-31
-32
-33
-33
-35
-36
-35
-35
-35
-35
-34
-33
-32
-32
-32
-31
-30
-30
-29
-28
-27
-26
-25
-24
-22
-22
-19
-18
-17
-15
-13
-11
-9
-6
-4
-2
0
3
5
9
12
15
17
19
21
23
24
24
25
23
22
20
17
14
10
7
4
1
-2
-4
-7
-9
-11
-14
-15
-17
-19
-21
-22
-23
-23
-23
-24
-23
-23
-24
-24
-25
-25
-26
-26
-26
-27
-27
-27
-26
-27
-27
-27
-28
-28
-28
-29
-29
-29
-30
-30
-30
-30
-30
-30
-30
-30
-31
-32
-32
-33
-33
-33
-34
-34
-35
-35
-35
-36
-36
-36
-36
-36
-36
-36
-36
-37
-37
-37
-38
-38
-38
-38
-38
-38
-39
-39
-39
-39
-40
-40
-40
-41
-41
-41
-41
-41
-41
-41
-41
-41
-41
-42
-42
-42
-42
-42
-41
-42
-43
-43
-43
-43
-44
-43
-44
-44
-45
-46
-46
-46
-46
-47
-46
-46
-47
-47
-47
-46
-46
-45
-45
-46
-46
-46
-45
-45
-43
-44
-42
-41
-39
-37
-35
-33
-31
-27
-25
-25
-26
-27
-28
-30
-31
-33
-33
-33
-34
-36
-36
-37
-37
-37
-36
-36
-36
-35
-35
-35
-35
-35
-36
-39
-43
-46
-42
-27
5
51
111
165
210
236
227
194
141
80
29
-4
-20
-29
-32
-33
-34
-34
-34
-34
-36
-38
-39
-40
-40
-41
-41
-42
-42
-41
-42
-41
-42
-42
-42
-41
-41
-41
-40
-40
-40
-40
-41
-41
-40
-41
-40
-40
-40
-39
-39
-38
-37
-36
-34
-32
-30
-29
-27
-25
-23
-20
-17
-14
-10
-9
-7
-4
-1
1
4
8
12
16
18
22
23
25
25
25
25
22
21
17
14
10
6
3
-1
-3
-6
-8
-10
-12
-13
-15
-17
-19
-20
-20
-22
-22
-22
-22
-22
-23
-23
-24
-24
-25
-24
-25
-25
-25
-25
-25
-25
-26
-26
-27
-27
-28
-28
-27
-27
-28
-28
-29
-30
-30
-29
-29
-30
-31
-32
-32
-32
-33
-33
-32
-33
-33
-33
-33
-33
-33
-32
-33
-33
-33
-32
-32
-32
-31
-31
-31
-31
-32
-31
-32
-32
-32
-32
-32
-32
-32
-32
-32
-32
-31
-32
-32
-32
-31
-31
-30
-30
-30
-29
-29
-29
-29
-28
-28
-28
-28
-28
-29
-29
-29
-28
-28
-27
-27
-27
-27
-27
-27
-26
-27
-26
-26
-26
-25
-25
-25
-25
-24
-24
-22
-20
-18
-16
-15
-13
-11
-7
-4
-3
-3
-4
-5
-8
-9
-10
-11
-11
-12
-13
-13
-14
-14
-13
-13
-12
-12
-10
-10
-9
-9
-9
-9
-13
-18
-22
-23
-11
17
63
125
186
237
268
260
227
172
109
60
25
10
3
2
1
0
0
-2
-3
-6
-8
-9
-10
-11
-12
-12
-14
-14
-14
-14
-13
-13
-13
-13
-13
-13
-12
-11
-11
-10
-10
-9
-9
-8
-7
-7
-6
-6
-4
-5
-5
-4
-4
-3
-2
0
0
1
2
4
5
7
9
12
14
17
20
24
27
31
35
38
41
44
46
48
49
51
51
52
50
49
47
45
43
39
37
32
29
26
23
20
18
16
13
12
11
10
10
9
9
8
7
5
5
5
5
5
4
4
3
3
2
2
1
1
2
1
1
0
1
0
0
0
0
0
-1
-2
-2
-2
-2
-3
-3
-2
-2
-3
-3
-3
-3
-3
-3
-3
-3
-3
-3
-3
-4
-5
-5
-4
-3
-4
-4
-4
-5
-5
-6
-6
-6
-5
-5
-5
-6
-7
-7
-7
-7
-8
-8
-9
-9
-9
-9
-9
-9
-8
-8
-8
-8
-8
-7
-6
-5
-6
-5
-5
-5
-5
-6
-6
-5
-5
-5
-5
-5
-4
-5
-4
-4
-4
-3
-3
-3
-3
-3
-1
-1
0
1
3
5
6
7
7
10
14
16
18
18
16
15
13
12
11
9
9
8
8
6
6
6
6
6
7
8
9
9
9
9
9
8
3
-2
-7
-5
8
39
88
149
207
261
284
278
241
185
125
73
40
23
18
15
15
14
13
12
8
6
4
3
2
1
0
0
-1
-1
-1
-1
-1
-1
-1
-1
-1
-1
-2
-2
-1
-1
0
0
0
0
1
1
2
2
3
2
2
2
2
2
2
4
6
8
10
11
13
14
17
20
23
26
29
31
34
38
39
43
45
48
49
50
50
50
50
48
47
44
43
39
36
34
30
27
24
21
18
16
14
11
10
8
8
7
7
6
6
6
5
5
4
4
4
5
4
3
3
3
3
2
3
3
3
3
2
1
0
0
0
0
-1
-1
-2
-3
-4
-5
-5
-5
-5
-6
-6
-7
-7
-7
-8
-9
-10
-10
-11
-11
-10
-11
-12
-13
-14
-14
-14
-14
-15
-16
-16
-17
-17
-18
-18
-19
-19
-20
-21
-21
-22
-22
-23
-22
-23
-23
-24
-24
-24
-24
-23
-24
-24
-24
-24
-24
-25
-24
-25
-24
-24
-24
-24
-24
-24
-24
-25
-26
-26
-26
-26
-26
-26
-26
-26
-26
-25
-24
-24
-23
-22
-21
-21
-20
-19
-18
-16
-15
-13
-12
-12
-10
-7
-3
-2
-1
-3
-5
-6
-7
-8
-8
-7
-8
-9
-11
-11
-12
-12
-12
-11
-11
-11
-10
-10
-9
-9
-10
-14
-21
-25
-24
-10
22
74
135
198
245
268
257
214
161
94
44
12
-2
-6
-8
-8
-10
-10
-12
-15
-17
-18
-20
-21
-22
-23
-24
-24
-25
-25
-25
-24
-25
-25
-25
-26
-26
-26
-26
-26
-26
-26
-26
-25
-25
-25
-25
-24
-24
-24
-25
-25
-25
-24
-23
-24
-23
-22
-22
-21
-20
-19
-18
-16
-15
-12
-10
-8
-5
-1
1
5
8
11
14
16
20
21
22
23
22
21
18
16
13
10
6
3
0
-3
-6
-9
-12
-14
-16
-18
-20
-22
-22
-23
-25
-26
-28
-29
-29
-30
-29
-31
-32
-33
-33
-33
-33
-33
-33
-33
-33
-34
-34
-35
-35
-36
-36
-36
-37
-37
-38
-38
-38
-38
-39
-40
-40
-41
-41
-42
-42
-43
-43
-44
-45
-45
-45
-45
-45
-46
-47
-46
-46
-47
-46
-47
-46
-47
-47
-47
-47
-47
-48
-48
-49
-49
-50
-50
-50
-50
-50
-50
-51
-51
-51
-50
-50
-50
-50
-49
-50
-50
-50
-51
-51
-50
-51
-52
-51
-52
-52
-53
-52
-52
-53
-52
-52
-52
-51
-50
-50
-48
-47
-47
-46
-47
-46
-46
-44
-43
-40
-39
-38
-37
-37
-35
-33
-30
-28
-28
-28
-30
-31
-33
-34
-35
-35
-36
-37
-38
-39
-39
-40
-39
-39
-38
-37
-36
-36
-36
-35
-36
-37
-40
-45
-48
-44
-28
2
51
109
168
211
232
218
181
126
67
18
-10
-24
-31
-32
-33
-33
-33
-33
-34
-37
-39
-40
-41
-40
-41
-41
-42
-41
-41
-41
-40
-41
-41
-42
-41
-42
-42
-41
-41
-39
-39
-38
-38
-38
-37
-37
-36
-35
-33
-34
-33
-32
-31
-31
-31
-31
-30
-28
-27
-25
-22
-20
-17
-13
-10
-8
-5
-2
0
3
7
9
13
16
19
21
22
23
23
24
22
20
16
13
9
5
2
-1
-5
-8
-10
-12
-14
-15
-18
-19
-20
-21
-22
-22
-21
-23
-23
-24
-25
-25
-24
-23
-23
-22
-23
-23
-23
-24
-24
-24
-23
-24
-24
-25
-25
-25
-25
-24
-24
-24
-25
-24
-25
-25
-25
-26
-26
-26
-26
-26
-26
-26
-26
-26
-26
-26
-25
-26
-26
-26
-27
-26
-27
-27
-27
-27
-25
-24
-24
-25
-26
-26
-27
-28
-29
-30
-30
-31
-31
-32
-31
-31
-31
-32
-32
-32
-32
-32
-32
-31
-32
-32
-33
-33
-33
-33
-32
-32
-31
-31
-30
-30
-29
-29
-29
-29
-29
-28
-29
-29
-29
-29
-28
-28
-26
-24
-22
-22
-20
-20
-18
-15
-12
-8
-7
-8
-8
-9
-9
-9
-9
-9
-9
-9
-9
-11
-11
-11
-11
-11
-10
-10
-10
-9
-8
-7
-7
-6
-6
-9
-14
-20
-22
-13
11
52
113
173
233
278
287
272
224
165
105
54
26
11
6
4
4
2
1
0
-1
-3
-5
-7
-9
-10
-11
-13
-13
-13
-14
-14
-14
-14
-15
-15
-15
-16
-16
-16
-18
-18
-18
-17
-16
-14
-13
-11
-10
-10
-10
-10
-9
-9
-8
-7
-7
-7
-6
-6
-5
-3
-1
0
3
5
7
9
13
16
19
22
25
29
31
35
36
39
41
42
43
42
42
39
38
36
32
29
25
22
19
17
15
13
11
9
8
7
6
5
5
4
3
2
2
2
2
2
1
0
0
0
0
0
0
0
0
-1
-1
-1
0
0
-1
-1
-2
-3
-4
-5
-5
-6
-5
-6
-7
-8
-8
-9
-9
-9
-10
-10
-10
-11
-10
-11
-10
-11
-11
-11
-11
-11
-11
-11
-12
-12
-13
-12
-13
-13
-12
-13
-13
-13
-13
-13
-13
-13
-13
-12
-13
-14
-14
-14
-14
-14
-14
-14
-14
-15
-15
-15
-16
-16
-16
-16
-15
-15
-14
-14
-14
-14
-14
-13
-14
-14
-14
-14
-13
-14
-13
-14
-14
-14
-15
-15
-16
-15
-16
-16
-16
-16
-16
-16
-16
-17
-17
-17
-17
-17
-16
-15
-15
-13
-12
-11
-10
-9
-7
-5
-1
1
3
2
1
0
0
-1
-1
-1
-1
-1
-3
-3
-3
-3
-2
-2
-2
-2
-2
-1
-1
-1
0
0
-2
-6
-12
-15
-12
5
41
92
156
214
264
282
270
228
171
108
59
29
13
9
7
7
6
5
5
2
0
-2
-4
-6
-7
-9
-9
-10
-11
-12
-13
-13
-13
-12
-12
-12
-12
-12
-13
-14
-14
-14
-14
-14
-13
-12
-11
-11
-10
-9
-8
-8
-7
-6
-5
-4
-2
-1
0
3
5
8
10
13
15
17
20
22
25
28
31
34
37
39
42
43
45
47
48
49
47
47
45
43
40
38
35
31
28
24
20
17
15
14
11
9
8
7
5
4
3
2
1
0
0
-1
-1
-1
-2
-2
-4
-4
-5
-6
-6
-6
-7
-8
-8
-8
-7
-7
-6
-7
-8
-9
-9
-9
-9
-9
-10
-10
-10
-11
-11
-11
-11
-11
-10
-11
-11
-11
-12
-12
-11
-11
-12
-11
-11
-11
-11
-12
-12
-12
-13
-13
-14
-13
-12
-12
-13
-14
-14
-14
-15
-15
-16
-16
-16
-17
-17
-17
-17
-17
-17
-16
-17
-18
-18
-18
-18
-18
-18
-18
-18
-19
-19
-19
-19
-20
-20
-19
-20
-21
-21
-21
-21
-21
-20
-20
-20
-19
-19
-18
-16
-16
-15
-15
-15
-16
-16
-16
-17
-16
-16
-14
-13
-12
-11
-11
-10
-9
-6
-4
-3
-5
-7
-8
-10
-12
-13
-13
-13
-13
-15
-15
-16
-17
-17
-17
-17
-17
-16
-15
-15
-15
-16
-17
-19
-24
-29
-32
-26
-3
36
92
156
207
248
252
224
177
114
60
19
-1
-8
-12
-13
-15
-15
-17
-18
-19
-21
-23
-24
-26
-27
-28
-29
-29
-29
-30
-30
-31
-31
-31
-31
-31
-31
-32
-32
-32
-32
-32
-32
-32
-32
-33
-33
-33
-32
-32
-33
-32
-31
-29
-28
-27
-26
-24
-23
-22
-21
-19
-17
-15
-11
-10
-7
-5
-1
0
4
7
8
10
13
14
15
16
17
17
16
14
12
8
5
2
-1
-4
-8
-11
-14
-16
-19
-21
-22
-24
-25
-27
-28
-28
-29
-30
-31
-32
-32
-33
-34
-34
-36
-37
-37
-38
-37
-37
-38
-38
-38
-39
-40
-40
-41
-41
-41
-42
-43
-43
-43
-44
-45
-46
-44
-45
-45
-45
-46
-46
-47
-48
-48
-48
-48
-49
-48
-49
-48
-48
-47
-49
-49
-49
-49
-48
-49
-48
-49
-48
-49
-49
-49
-50
-49
-50
-49
-49
-47
-47
-48
-48
-49
-49
-49
-49
-49
-49
-49
-50
-50
-50
-49
-49
-49
-47
-46
-45
-45
-44
-45
-44
-43
-42
-42
-42
-42
-43
-43
-43
-42
-39
-37
-36
-35
-34
-34
-34
-32
-28
-27
-26
-27
-29
-30
-32
-32
-32
-33
-34
-35
-36
-38
-38
-38
-38
-38
-38
-37
-38
-38
-38
-37
-37
-37
-39
-44
-47
-47
-35
-12
32
89
149
201
235
238
214
163
106
47
6
-16
-27
-31
-33
-34
-34
-34
-35
-35
-36
-37
-38
-39
-40
-41
-41
-41
-42
-41
-41
-41
-41
-41
-41
-41
-40
-40
-40
-39
-39
-39
-38
-37
-37
-36
-34
-33
-32
-31
-29
-29
-28
-27
-26
-24
-24
-22
-21
-19
-18
-17
-15
-13
-11
-8
-5
-1
1
4
7
11
15
18
21
24
25
26
26
26
24
22
18
15
12
8
4
1
-1
-5
-8
-11
-14
-16
-18
-18
-20
-20
-21
-22
-22
-23
-23
-25
-26
-26
-26
-26
-27
-28
-29
-29
-29
-30
-30
-30
-29
-30
-29
-30
-30
-29
-30
-30
-31
-30
-32
-32
-32
-33
-33
-34
-33
-34
-34
-35
-35
-34
-34
-33
-34
-34
-35
-34
-34
-34
-33
-33
-32
-32
-32
-31
-32
-32
-32
-33
-33
-32
-33
-33
-33
-33
-33
-33
-33
-33
-33
-33
-34
-34
-33
-35
-34
-31
-31
-32
-32
-32
-33
-34
-34
-33
-32
-32
-30
-29
-29
-28
-28
-27
-27
-26
-26
-24
-23
-21
-19
-18
-16
-15
-13
-13
-11
-8
-4
-3
-3
-4
-7
-7
-9
-9
-10
-11
-11
-13
-14
-16
-16
-16
-16
-15
-14
-14
-13
-12
-11
-11
-11
-11
-16
-21
-26
-22
-5
30
86
149
214
262
282
264
218
155
94
46
17
5
0
0
-1
-1
-1
-3
-6
-8
-10
-12
-13
-13
-14
-14
-14
-15
-15
-15
-15
-15
-14
-14
-15
-14
-14
-13
-12
-11
-10
-10
-9
-8
-7
-6
-6
-6
-4
-3
-2
-2
0
0
2
3
5
7
10
12
14
16
18
19
20
22
24
27
30
31
34
36
39
41
43
45
44
43
42
41
39
36
33
31
28
25
23
19
17
13
11
10
7
6
4
3
1
0
0
-2
-3
-3
-3
-5
-5
-5
-5
-4
-4
-4
-4
-5
-5
-5
-5
-5
-6
-6
-6
-7
-7
-7
-8
-9
-9
-10
-10
-10
-11
-11
-11
-12
-13
-13
-14
-14
-15
-15
-15
-15
-16
-16
-16
-16
-16
-17
-16
-16
-17
-17
-17
-17
-18
-19
-19
-20
-20
-20
-21
-21
-21
-22
-23
-23
-23
-23
-23
-24
-24
-24
-24
-23
-23
-21
-22
-22
-21
-20
-20
-19
-17
-18
-16
-16
-15
-14
-14
-12
-12
-12
-12
-12
-12
-12
-11
-10
-9
-7
-6
-4
-4
-3
-2
-1
2
5
7
6
4
2
0
-1
-2
-3
-4
-4
-5
-6
-6
-7
-6
-7
-7
-7
-6
-5
-5
-4
-4
-3
-4
-8
-13
-19
-19
-9
16
57
115
173
230
273
281
265
219
162
103
55
28
15
11
9
8
7
6
6
4
2
0
-2
-4
-5
-6
-7
-8
-9
-10
-10
-11
-11
-11
-11
-11
-11
-11
-11
-11
-11
-11
-11
-11
-11
-10
-10
-9
-9
-8
-8
-8
-6
-6
-5
-4
-2
-2
-2
-2
-2
-1
0
3
4
6
8
10
12
15
18
20
24
27
30
33
36
38
39
41
40
39
37
35
32
30
27
23
20
17
14
10
7
5
3
0
-1
-2
-4
-4
-5
-6
-7
-8
-8
-9
-9
-10
-11
-11
-12
-12
-12
-12
-13
-13
-14
-15
-16
-16
-17
-17
-16
-17
-16
-17
-17
-17
-17
-17
-18
-17
-18
-19
-20
-21
-21
-21
-21
-21
-22
-23
-24
-24
-24
-24
-25
-25
-25
-26
-26
-26
-25
-26
-24
-24
-23
-23
-23
-23
-22
-21
-20
-20
-19
-19
-19
-19
-18
-19
-19
-19
-19
-19
-19
-19
-19
-20
-19
-19
-20
-20
-20
-21
-21
-22
-22
-21
-20
-19
-17
-16
-15
-15
-14
-13
-10
-6
-5
-5
-6
-8
-10
-11
-10
-10
-10
-11
-12
-15
-16
-17
-17
-17
-18
-17
-17
-16
-16
-15
-14
-14
-15
-18
-23
-26
-24
-9
23
74
135
198
244
270
257
216
161
97
48
17
3
0
-2
-3
-5
-5
-7
-9
-11
-12
-14
-15
-16
-17
-18
-19
-19
-19
-19
-20
-20
-21
-21
-22
-21
-21
-21
-21
-21
-21
-21
-20
-19
-19
-18
-16
-15
-15
-14
-12
-11
-10
-9
-7
-6
-5
-4
-3
-1
0
2
4
6
7
9
12
13
15
16
17
18
20
23
23
25
24
25
23
23
21
18
16
12
9
6
2
0
-2
-4
-7
-9
-11
-14
-16
-17
-18
-20
-20
-21
-23
-23
-24
-24
-25
-25
-25
-25
-25
-26
-26
-26
-27
-27
-27
-27
-27
-27
-27
-27
-28
-28
-28
-27
-28
-28
-29
-29
-30
-30
-31
-31
-31
-33
-34
-34
-35
-35
-35
-36
-36
-36
-36
-37
-37
-38
-38
-38
-37
-36
-34
-33
-32
-32
-31
-29
-29
-27
-27
-26
-25
-25
-24
-24
-24
-23
-23
-22
-23
-23
-23
-23
-23
-23
-22
-21
-19
-17
-16
-15
-14
-13
-11
-8
-5
-3
-4
-5
-7
-9
-10
-11
-12
-12
-13
-14
-15
-16
-17
-17
-16
-17
-17
-17
-16
-15
-14
-12
-12
-12
-14
-19
-24
-28
-24
-7
27
79
143
197
247
263
253
215
157
99
51
21
8
2
2
1
1
0
0
-2
-3
-5
-6
-7
-7
-8
-8
-9
-9
-10
-10
-10
-11
-11
-12
-12
-12
-12
-12
-12
-11
-10
-9
-7
-7
-6
-6
-5
-5
-4
-4
-3
-2
-1
0
0
2
4
5
7
8
10
11
14
16
18
22
23
26
28
31
34
37
39
41
43
44
45
44
43
40
38
35
30
27
23
20
17
14
12
9
7
5
4
3
2
0
-1
-2
-3
-3
-4
-4
-4
-4
-5
-5
-5
-5
-5
-5
-5
-5
-5
-5
-5
-5
-5
-3
-4
-3
-4
-4
-4
-4
-5
-5
-6
-6
-6
-6
-6
-7
-7
-6
-6
-6
-6
-6
-7
-7
-6
-7
-6
-7
-7
-8
-8
-8
-10
-10
-10
-10
-11
-11
-11
-12
-13
-13
-13
-14
-14
-14
-14
-15
-15
-15
-15
-15
-15
-16
-15
-16
-17
-18
-18
-19
-18
-19
-20
-20
-21
-20
-19
-17
-15
-13
-12
-12
-12
-11
-8
-4
-1
-1
-1
-2
-2
-3
-3
-3
-4
-5
-5
-7
-9
-9
-9
-9
-8
-8
-8
-7
-6
-6
-4
-3
-4
-5
-9
-15
-20
-17
-2
31
82
143
206
251
277
264
226
173
111
61
29
14
9
8
6
5
4
2
0
-3
-4
-6
-8
-9
-10
-11
-12
-13
-14
-14
-14
-14
-14
-15
-15
-16
-16
-16
-16
-14
-13
-13
-14
-14
-14
-13
-12
-12
-11
-10
-9
-8
-7
-6
-5
-4
-3
-1
0
1
3
5
7
10
11
13
15
16
19
22
25
27
29
31
32
33
32
32
30
28
27
24
22
18
16
12
10
7
5
3
1
0
-2
-3
-4
-5
-6
-7
-7
-8
-8
-8
-8
-8
-8
-8
-8
-8
-8
-8
-8
-8
-8
-9
-9
-10
-10
-10
-10
-11
-10
-10
-10
-11
-11
-11
-12
-12
-12
-13
-14
-14
-14
-15
-15
-17
-17
-18
-19
-20
-20
-21
-21
-21
-22
-23
-24
-25
-25
-25
-25
-25
-26
-26
-26
-26
-27
-27
-27
-28
-28
-28
-28
-29
-29
-29
-29
-30
-30
-30
-31
-31
-32
-32
-32
-32
-32
-32
-32
-33
-33
-33
-33
-33
-33
-34
-35
-36
-36
-36
-36
-35
-34
-34
-33
-34
-34
-35
-35
-35
-35
-35
-35
-34
-35
-34
-35
-34
-34
-34
-34
-35
-35
-36
-35
-35
-34
-32
-31
-29
-28
-27
-26
-23
-19
-15
-13
-13
-14
-16
-17
-19
-20
-21
-21
-21
-22
-23
-25
-26
-26
-26
-26
-26
-26
-26
-25
-26
-26
-25
-26
-27
-30
-36
-42
-41
-31
-3
40
99
157
210
242
245
217
172
112
55
13
-11
-21
-25
-27
-29
-29
-30
-31
-32
-34
-36
-38
-39
-39
-40
-41
-41
-42
-42
-43
-42
-43
-43
-43
-44
-43
-43
-42
-43
-43
-43
-43
-43
-43
-42
-42
-41
-41
-40
-38
-37
-35
-34
-32
-30
-28
-26
-25
-23
-21
-18
-16
-13
-11
-8
-5
-2
0
4
7
10
13
15
16
17
18
17
16
14
12
10
8
6
2
0
-2
-4
-7
-10
-13
-15
-17
-19
-20
-21
-22
-23
-24
-24
-25
-26
-26
-26
-27
-28
-27
-28
-28
-28
-28
-27
-28
-27
-28
-28
-29
-29
-29
-29
-29
-30
-31
-32
-33
-32
-32
-32
-32
-31
-32
-32
-32
-32
-32
-32
-33
-33
-32
-32
-32
-33
-33
-33
-33
-32
-32
-33
-33
-34
-33
-33
-33
-33
-33
-34
-34
-35
-34
-35
-35
-35
-34
-33
-32
-32
-32
-32
-32
-32
-32
-32
-32
-31
-31
-31
-31
-31
-31
-31
-31
-30
-31
-32
-32
-32
-32
-31
-30
-31
-30
-30
-29
-30
-30
-30
-31
-31
-31
-32
-32
-32
-32
-32
-32
-32
-32
-32
-33
-33
-32
-31
-30
-28
-27
-26
-25
-23
-20
-16
-14
-14
-14
-14
-14
-14
-15
-15
-16
-16
-16
-17
-18
-17
-17
-17
-17
-16
-16
-15
-13
-13
-13
-13
-14
-17
-24
-28
-24
-9
24
75
134
196
239
263
251
209
157
94
46
15
0
-6
-10
-11
-11
-11
-12
-12
-13
-15
-17
-18
-19
-19
-20
-20
-20
-21
-22
-22
-21
-21
-21
-20
-20
-18
-17
-17
-18
-18
-17
-17
-17
-17
-18
-17
-17
-16
-16
-15
-14
-13
-12
-11
-9
-7
-5
-3
-1
1
3
6
8
12
14
17
19
23
25
28
32
36
40
43
46
47
49
47
47
46
42
40
36
34
29
26
23
19
17
14
12
9
8
6
4
3
2
1
0
0
0
0
0
0
0
-1
-1
0
0
-1
-2
-2
-2
-3
-3
-2
-3
-3
-3
-4
-5
-6
-7
-8
-8
-9
-9
-9
-8
-8
-7
-7
-7
-6
-6
-5
-6
-6
-5
-6
-6
-6
-6
-6
-6
-5
-6
-7
-7
-7
-7
-7
-7
-7
-7
-7
-7
-7
-7
-7
-7
-7
-8
-7
-8
-8
-9
-9
-9
-9
-9
-9
-10
-10
-10
-10
-10
-10
-10
-10
-10
-10
-9
-9
-10
-10
-10
-10
-10
-10
-9
-10
-11
-11
-11
-11
-11
-10
-12
-12
-11
-11
-11
-12
-12
-12
-11
-12
-11
-11
-11
-11
-10
-10
-11
-12
-11
-10
-8
-6
-4
-5
-6
-5
-3
0
2
3
2
1
0
-1
-1
-1
-1
0
-1
-2
-3
-3
-4
-4
-3
-2
-2
-1
-1
0
0
1
0
-3
-9
-13
-9
5
39
91
156
220
272
294
284
242
184
120
65
33
17
13
11
10
10
7
5
2
0
-2
-4
-5
-7
-9
-10
-11
-11
-12
-12
-13
-14
-15
-15
-15
-16
-16
-17
-17
-18
-18
-18
-19
-19
-20
-19
-18
-17
-16
-15
-14
-13
-11
-10
-8
-6
-4
-2
0
2
4
7
9
12
15
19
21
25
27
30
33
36
39
42
45
46
49
48
49
47
44
41
39
38
35
32
29
26
22
20
19
15
13
11
9
7
6
5
3
2
1
1
0
0
-1
-1
-1
-3
-3
-4
-4
-4
-4
-4
-5
-5
-6
-7
-7
-8
-8
-9
-9
-10
-10
-11
-11
-12
-12
-12
-13
-13
-14
-14
-14
-14
-15
-16
-17
-17
-18
-18
-17
-18
-18
-18
-20
-20
-20
-19
-19
-20
-20
-20
-20
-20
-20
-20
-19
-20
-19
-20
-20
-21
-21
-20
-21
-21
-21
-21
-20
-20
-19
-20
-20
-21
-20
-20
-20
-20
-21
-20
-20
-21
-21
-21
-22
-22
-21
-22
-22
-21
-22
-21
-22
-21
-22
-22
-22
-22
-22
-22
-22
-22
-23
-23
-22
-22
-22
-22
-22
-22
-22
-22
-21
-21
-21
-21
-20
-20
-21
-21
-21
-21
-20
-22
-21
-20
-18
-17
-17
-16
-16
-15
-12
-8
-6
-6
-7
-9
-9
-10
-11
-11
-11
-11
-12
-12
-13
-12
-11
-11
-10
-9
-8
-8
-7
-7
-6
-7
-9
-13
-19
-21
-13
11
57
116
180
237
269
276
245
192
131
71
34
12
4
1
0
-1
-2
-1
-2
-5
-9
-12
-15
-17
-18
-19
-21
-23
-24
-26
-27
-28
-29
-29
-30
-30
-30
-31
-30
-30
-29
-30
-29
-28
-27
-26
-25
-24
-23
-23
-22
-21
-19
-18
-17
-15
-13
-12
-10
-8
-6
-3
0
2
5
8
10
13
15
18
21
25
28
31
33
35
36
36
37
36
35
33
30
27
23
21
18
15
11
8
5
2
1
-1
-3
-4
-6
-7
-8
-9
-10
-10
-11
-12
-12
-13
-13
-14
-14
-16
-16
-16
-17
-17
-17
-16
-16
-17
-17
-17
-18
-18
-18
-18
-18
-19
-20
-21
-22
-22
-22
-22
-23
-23
-23
-23
-22
-22
-22
-23
-23
-23
-24
-24
-24
-25
-26
-25
-26
-26
-27
-27
-27
-27
-27
-27
-27
-27
-27
-28
-28
-29
-29
-29
-29
-29
-29
-29
-30
-31
-31
-32
-32
-32
-32
-32
-33
-33
-34
-33
-33
-32
-32
-31
-32
-33
-32
-33
-32
-33
-32
-32
-32
-32
-32
-33
-33
-31
-32
-32
-32
-33
-33
-34
-34
-34
-34
-34
-34
-33
-33
-34
-35
-34
-34
-33
-33
-32
-31
-31
-30
-31
-30
-30
-29
-27
-25
-24
-25
-24
-23
-19
-16
-14
-14
-15
-17
-19
-20
-20
-21
-21
-21
-22
-24
-25
-26
-26
-26
-25
-25
-25
-25
-26
-26
-27
-29
-33
-38
-42
-40
-27
2
45
105
164
211
241
235
207
155
94
43
6
-12
-20
-24
-25
-26
-26
-27
-28
-30
-31
-32
-33
-34
-36
-36
-37
-38
-38
-39
-39
-40
-40
-41
-41
-42
-43
-43
-43
-44
-44
-44
-44
-44
-43
-43
-41
-40
-39
-39
-37
-36
-36
-34
-32
-30
-29
-27
-25
-23
-22
-19
-18
-14
-12
-9
-6
-3
0
2
5
7
10
12
15
17
19
20
20
20
20
19
18
16
14
9
6
2
-1
-5
-7
-10
-14
-16
-19
-21
-24
-26
-27
-28
-29
-30
-30
-31
-32
-33
-33
-34
-35
-35
-35
-35
-36
-36
-37
-37
-37
-37
-37
-37
-36
-36
-37
-37
-37
-38
-38
-39
-39
-39
-40
-40
-40
-40
-40
-40
-40
-40
-41
-41
-41
-41
-41
-40
-41
-42
-43
-43
-43
-42
-42
-42
-43
-43
-43
-43
-44
-43
-44
-43
-45
-44
-45
-45
-45
-45
-44
-45
-45
-45
-44
-44
-44
-44
-45
-46
-46
-46
-46
-47
-48
-47
-46
-46
-46
-45
-45
-44
-43
-43
-43
-42
-42
-41
-40
-39
-39
-39
-38
-38
-38
-38
-37
-37
-36
-34
-33
-32
-30
-30
-29
-28
-26
-23
-21
-20
-20
-21
-21
-24
-25
-25
-27
-27
-29
-30
-32
-33
-33
-33
-32
-32
-30
-30
-29
-28
-28
-29
-31
-34
-35
-28
-10
26
79
137
190
228
236
218
170
114
57
16
-6
-19
-25
-28
-30
-29
-28
-28
-30
-32
-34
-37
-38
-39
-39
-39
-39
-39
-40
-39
-39
-39
-39
-38
-38
-38
-38
-38
-37
-37
-37
-36
-35
-34
-34
-33
-34
-33
-33
-31
-31
-30
-29
-29
-29
-28
-27
-27
-26
-24
-21
-18
-16
-13
-10
-8
-5
-1
2
5
9
13
16
19
23
26
28
30
31
30
30
27
25
22
18
15
11
8
4
2
-1
-3
-6
-8
-9
-11
-11
-13
-14
-15
-17
-17
-19
-19
-20
-20
-21
-21
-20
-21
-22
-23
-23
-23
-22
-22
-23
-23
-23
-23
-24
-24
-24
-25
-25
-26
-27
-27
-28
-28
-29
-29
-30
-30
-30
-31
-31
-31
-31
-31
-31
-32
-32
-31
-31
-31
-31
-30
-30
-31
-31
-32
-31
-30
-30
-29
-29
-29
-29
-29
-28
-29
-29
-28
-29
-29
-29
-30
-29
-30
-30
-30
-31
-31
-31
-31
-31
-32
-33
-33
-32
-32
-32
-30
-31
-31
-30
-30
-29
-28
-26
-26
-26
-25
-24
-23
-21
-18
-15
-13
-12
-11
-9
-7
-3
0
1
0
0
-2
-3
-4
-4
-4
-5
-5
-7
-8
-8
-9
-9
-9
-9
-9
-9
-8
-8
-8
-7
-7
-7
-10
-15
-19
-19
-7
14
59
116
179
236
275
286
267
221
161
99
52
24
11
7
6
4
4
3
2
0
-1
-2
-4
-5
-5
-6
-7
-7
-6
-7
-7
-8
-7
-7
-6
-6
-6
-7
-6
-5
-5
-5
-4
-3
-2
-2
-1
0
0
1
2
3
5
6
7
8
9
11
12
13
13
14
15
16
18
20
22
24
27
30
34
37
41
46
48
52
53
55
54
54
54
51
49
46
43
38
36
33
31
29
26
24
22
21
19
17
16
14
14
13
13
14
14
14
14
15
15
16
15
15
15
16
15
15
15
14
15
16
17
16
15
13
13
13
13
13
12
11
10
9
9
9
9
8
7
6
5
4
3
3
4
5
4
4
4
3
1
0
0
0
1
1
1
0
0
0
-1
0
0
0
0
0
0
0
0
-2
-3
-3
-3
-3
-2
-1
-2
-2
-3
-4
-4
-3
-2
-3
-3
-3
-3
-3
-2
-1
-1
-2
-2
-2
-2
0
1
3
4
4
4
4
3
3
4
5
6
9
11
13
13
14
14
17
19
23
23
22
20
18
18
17
15
12
10
9
9
9
7
7
6
5
5
6
7
6
6
5
6
6
5
1
-5
-6
3
28
73
136
197
261
299
307
285
229
168
103
57
32
21
18
18
18
18
16
13
11
8
7
7
6
5
4
4
4
4
3
3
1
0
-1
-2
-2
-2
-2
-1
0
1
1
3
4
4
4
3
4
3
4
6
9
10
10
10
10
12
12
14
15
17
18
22
24
25
28
30
35
39
44
49
52
54
55
57
57
58
58
59
58
56
53
48
45
40
37
33
30
25
21
17
13
10
7
5
3
1
0
0
-1
-3
-4
-5
-6
-7
-8
-8
-8
-9
-10
-11
-11
-12
-12
-13
-13
-14
-14
-14
-14
-15
-16
-15
-16
-17
-18
-20
-21
-22
-22
-23
-24
-25
-25
-25
-26
-27
-27
-28
-29
-30
-30
-31
-33
-34
-34
-36
-36
-37
-38
-38
-38
-38
-39
-40
-40
-40
-41
-41
-40
-40
-40
-41
-41
-41
-42
-43
-43
-44
-46
-46
-46
-46
-45
-44
-45
-46
-46
-46
-46
-45
-45
-45
-45
-44
-43
-41
-41
-40
-39
-39
-40
-41
-41
-41
-40
-38
-36
-35
-32
-31
-31
-31
-29
-25
-22
-19
-20
-21
-23
-25
-27
-28
-28
-29
-30
-31
-35
-36
-37
-37
-38
-37
-37
-37
-37
-37
-35
-35
-35
-35
-38
-43
-48
-47
-38
-9
36
98
162
217
253
257
225
176
109
49
4
-20
-31
-35
-35
-35
-34
-33
-33
-34
-37
-38
-39
-41
-41
-42
-43
-42
-41
-40
-40
-40
-41
-41
-41
-41
-41
-40
-39
-39
-39
-39
-37
-37
-35
-33
-33
-31
-31
-30
-28
-26
-24
-21
-19
-17
-16
-14
-13
-10
-6
-2
0
4
7
10
13
16
20
24
27
31
32
34
34
35
35
35
34
32
30
26
21
16
11
6
1
-2
-7
-10
-12
-15
-18
-20
-22
-24
-24
-26
-28
-29
-30
-30
-31
-30
-31
-32
-33
-33
-33
-33
-33
-33
-33
-34
-35
-36
-36
-35
-36
-37
-37
-37
-36
-36
-35
-36
-36
-38
-38
-38
-38
-37
-37
-37
-40
-40
-41
-42
-42
-42
-42
-42
-41
-42
-42
-42
-42
-43
-43
-43
-42
-42
-41
-41
-42
-41
-41
-41
-41
-41
-41
-40
-39
-39
-39
-39
-38
-39
-40
-39
-40
-40
-39
-39
-39
-38
-36
-38
-38
-39
-38
-37
-37
-36
-36
-36
-36
-37
-36
-36
-36
-36
-35
-35
-34
-31
-29
-26
-24
-23
-23
-21
-17
-14
-12
-12
-12
-13
-14
-15
-16
-16
-17
-17
-18
-20
-21
-22
-22
-23
-23
-22
-22
-21
-20
-19
-19
-19
-20
-23
-28
-29
-22
-1
39
99
163
231
276
298
284
241
178
112
55
19
2
-5
-8
-9
-9
-9
-11
-13
-15
-17
-18
-19
-19
-20
-21
-22
-23
-23
-24
-23
-23
-23
-23
-22
-21
-21
-20
-20
-19
-18
-16
-14
-12
-11
-10
-8
-8
-8
-7
-5
-4
-3
-1
1
4
6
9
11
14
16
19
21
24
25
27
29
33
38
41
47
51
55
58
62
65
68
69
67
66
62
59
55
51
47
41
36
31
27
21
17
14
10
7
4
3
1
0
-1
-4
-5
-5
-6
-7
-7
-8
-8
-9
-9
-9
-9
-10
-11
-11
-10
-10
-11
-11
-11
-12
-11
-12
-13
-14
-16
-16
-16
-17
-18
-19
-20
-21
-21
-21
-22
-22
-22
-23
-23
-23
-24
-24
-24
-25
-26
-27
-26
-26
-27
-27
-26
-27
-27
-27
-28
-28
-28
-29
-28
-28
-28
-28
-28
-28
-27
-28
-28
-29
-28
-29
-29
-29
-28
-27
-28
-28
-27
-26
-26
-26
-26
-27
-27
-28
-27
-26
-27
-27
-27
-27
-27
-26
-27
-28
-28
-28
-29
-29
-30
-30
-30
-31
-30
-30
-29
-28
-29
-29
-30
-30
-30
-28
-28
-27
-26
-25
-25
-24
-22
-20
-18
-15
-14
-14
-15
-15
-16
-17
-17
-16
-16
-16
-17
-17
-17
-17
-18
-17
-16
-15
-14
-14
-15
-14
-13
-13
-16
-20
-22
-18
0
39
94
158
223
270
295
279
236
174
102
50
17
5
2
2
2
1
0
-2
-4
-7
-10
-12
-13
-14
-15
-15
-16
-17
-18
-19
-19
-19
-19
-19
-19
-19
-19
-18
-18
-17
-17
-16
-16
-16
-15
-15
-16
-15
-14
-14
-13
-12
-10
-8
-6
-2
0
2
5
8
12
17
21
26
30
34
37
40
44
46
51
54
58
61
62
63
62
63
62
61
59
55
50
44
40
34
30
26
23
20
16
13
11
8
6
4
3
2
0
0
-1
-2
-2
-2
-2
-3
-4
-4
-4
-4
-5
-5
-6
-6
-7
-7
-7
-8
-8
-9
-9
-9
-10
-10
-11
-12
-13
-14
-15
-15
-13
-15
-15
-16
-16
-16
-17
-17
-17
-17
-17
-17
-17
-18
-18
-18
-18
-19
-19
-19
-20
-20
-20
-20
-20
-20
-21
-21
-22
-22
-23
-24
-24
-24
-23
-22
-22
-22
-22
-22
-23
-22
-21
-22
-22
-22
-22
-23
-23
-23
-23
-22
-21
-22
-22
-22
-23
-23
-23
-23
-23
-22
-22
-22
-22
-23
-24
-24
-23
-24
-24
-23
-23
-23
-23
-22
-23
-23
-23
-24
-25
-25
-24
-23
-23
-22
-22
-22
-22
-21
-19
-17
-16
-14
-13
-13
-12
-8
-4
-2
-1
-1
