4
5
5
4
2
-1
-3
-1
6
19
39
63
92
122
148
156
150
130
106
83
57
34
14
2
-3
-4
-4
-1
3
7
9
10
9
8
8
8
7
7
7
7
7
6
5
5
6
6
6
5
5
5
4
5
4
5
5
5
5
6
6
5
6
6
7
7
7
7
7
8
8
9
9
9
10
11
11
11
12
12
12
13
13
14
14
13
13
14
14
15
15
16
16
16
16
16
17
17
17
17
17
17
17
17
18
18
17
16
16
16
16
16
17
17
17
17
17
17
17
17
18
19
20
20
21
23
24
24
26
27
29
30
32
34
35
37
38
39
39
40
40
42
43
44
44
45
47
46
47
46
48
48
48
48
49
49
49
49
49
49
48
47
48
47
48
46
46
44
43
42
40
39
38
37
35
34
32
30
29
28
28
26
25
24
23
21
20
20
20
19
18
17
17
17
16
15
15
14
13
12
11
11
10
10
10
10
9
9
8
8
7
6
6
6
5
4
4
4
4
3
3
3
2
2
1
1
0
0
0
0
0
-1
-2
-2
-2
-2
-3
-3
-3
-3
-3
-4
-4
-5
-6
-5
-4
-4
-4
-5
-5
-5
-5
-6
-5
-5
-6
-6
-6
-6
-6
-7
-7
-7
-7
-7
-8
-7
-8
-8
-9
-8
-8
-9
-9
-9
-9
-10
-11
-10
-10
-10
-11
-11
-11
-11
-12
-13
-12
-13
-12
-13
-12
-12
-13
-13
-14
-13
-13
-13
-13
-13
-13
-13
-13
-13
-13
-14
-14
-14
-16
-17
-17
-17
-18
-18
-19
-19
-19
-19
-19
-19
-18
-18
-18
-18
-18
-17
-17
-17
-16
-16
-16
-16
-15
-15
-15
-15
-15
-15
-15
-15
-15
-15
-14
-15
-14
-13
-13
-12
-12
-12
-12
-12
-12
-12
-13
-13
-12
-12
-12
-13
-13
-12
-13
-13
-13
-12
-12
-13
-13
-13
-13
-13
-12
-12
-12
-12
-13
-12
-12
-11
-12
-12
-12
-12
-12
-13
-13
-13
-13
-13
-13
-13
-13
-13
-13
-12
-12
-12
-13
-14
-14
-14
-13
-13
-13
-13
-13
-13
-14
-14
-14
-14
-14
-15
-15
-15
-15
-14
-15
-16
-15
-15
-15
-15
-14
-14
-13
-13
-13
-12
-12
-11
-11
-11
-10
-6
-2
0
2
4
4
3
1
0
0
0
0
-3
-7
-11
-14
-17
-19
-20
-20
-21
-21
-21
-20
-20
-21
-22
-25
-29
-32
-30
-22
-6
14
40
68
97
121
129
119
98
73
49
25
2
-14
-23
-26
-27
-27
-25
-20
-16
-14
-14
-15
-16
-16
-16
-15
-14
-14
-14
-14
-13
-13
-13
-13
-12
-11
-12
-11
-11
-10
-10
-9
-8
-8
-8
-7
-7
-7
-6
-6
-6
-5
-4
-4
-4
-4
-3
-3
-3
-2
-1
-1
-1
-1
0
0
0
0
2
3
3
3
3
3
4
4
4
4
4
5
5
6
6
5
4
5
4
4
4
5
5
4
4
5
5
4
3
2
3
3
3
3
3
3
3
4
4
5
5
5
6
8
10
11
12
13
14
15
18
19
20
21
22
23
24
24
24
25
26
27
27
27
28
28
29
30
31
32
34
34
34
34
35
36
35
36
36
36
36
35
35
35
34
33
33
33
32
31
30
30
29
28
26
25
25
22
21
19
18
16
15
14
14
14
12
11
9
8
8
8
7
6
5
3
3
3
3
3
2
2
1
1
0
1
2
2
1
0
1
0
0
1
1
1
0
0
0
0
0
0
0
0
0
0
0
0
0
-1
-1
0
0
0
0
0
0
0
-1
-1
-1
-1
-1
0
0
-1
-1
-1
-1
-1
-2
-2
-2
-2
-2
-2
-2
-1
0
-1
-1
-1
-2
-2
-2
-1
-1
-1
-2
-2
-2
-2
-2
-2
-1
-1
-1
-1
0
-1
-1
-1
-1
-1
-1
0
0
0
-1
-1
0
0
0
0
0
0
0
0
1
2
2
2
2
3
2
1
2
1
1
0
1
0
0
-1
-1
0
0
0
1
1
1
1
1
1
1
1
1
1
1
2
2
2
3
3
3
3
3
3
3
3
3
3
4
4
3
3
3
3
3
4
5
6
6
6
6
6
6
6
7
8
8
9
9
9
9
9
10
10
10
10
11
11
11
11
12
12
11
11
12
11
11
11
11
11
11
12
12
13
13
13
12
12
13
15
17
17
19
19
20
20
21
23
24
25
28
32
34
34
34
34
34
33
33
32
31
28
26
23
19
17
15
14
13
13
13
13
13
13
13
12
10
6
5
9
18
34
57
84
113
142
158
160
146
125
101
76
52
28
12
4
1
0
1
5
11
15
16
16
15
14
14
14
14
13
13
13
13
14
14
14
13
14
14
15
15
15
16
16
16
16
16
15
16
17
17
17
17
19
19
19
19
20
21
21
22
23
23
23
24
25
26
27
28
28
29
29
30
30
31
31
32
32
33
33
33
33
34
36
36
36
36
36
36
36
36
37
38
38
38
38
38
38
37
37
37
38
37
37
36
36
36
36
37
38
39
39
40
41
41
42
44
46
46
48
48
50
51
52
53
54
55
56
57
56
58
57
59
60
61
61
61
62
62
62
62
63
63
63
63
63
64
62
62
61
61
61
60
60
59
58
57
55
54
53
52
50
49
48
46
44
42
41
40
38
36
35
33
31
30
29
29
26
25
23
22
21
20
20
18
17
16
15
15
14
13
12
12
11
11
10
10
9
9
9
8
8
7
6
6
6
6
5
5
4
4
3
2
2
1
1
0
0
0
-1
-1
-1
0
0
-2
-3
-3
-2
-2
-2
-2
-1
-1
-1
0
0
0
0
1
0
0
0
0
0
0
0
0
0
0
-1
-1
0
0
-1
-1
0
0
-1
-1
-1
-1
-1
-2
-2
-2
-1
-2
-1
-1
-2
-3
-3
-3
-3
-4
-4
-4
-3
-4
-4
-4
-3
-4
-4
-5
-4
-4
-4
-5
-5
-6
-6
-6
-6
-6
-6
-7
-7
-8
-9
-9
-10
-10
-11
-12
-12
-11
-12
-13
-12
-11
-11
-12
-12
-12
-12
-12
-12
-12
-11
-12
-12
-12
-12
-12
-12
-12
-12
-12
-12
-12
-12
-13
-12
-12
-12
-13
-13
-13
-13
-12
-14
-13
-13
-14
-13
-13
-12
-13
-13
-13
-13
-12
-12
-12
-12
-12
-12
-12
-12
-11
-11
-10
-10
-10
-10
-10
-9
-9
-9
-9
-9
-9
-8
-8
-7
-7
-7
-6
-6
-6
-5
-5
-6
-5
-5
-5
-5
-5
-5
-5
-5
-5
-5
-5
-5
-5
-5
-5
-6
-6
-5
-5
-5
-4
-4
-3
-3
-3
-4
-4
-3
-3
-4
-4
-3
-3
-4
-4
-4
-4
-4
-3
-3
-3
-4
-4
-4
-4
-5
-6
-6
-6
-7
-7
-7
-7
-7
-8
-7
-7
-8
-9
-9
-8
-7
-7
-7
-8
-8
-8
-7
-6
-6
-7
-7
-6
-7
-7
-8
-7
-6
-6
-6
-5
-5
-5
-6
-6
-6
-4
-4
-3
-2
-2
-1
0
0
1
1
1
4
8
11
13
15
16
17
16
16
16
16
16
15
14
10
6
2
0
-2
-2
-3
-3
-3
-2
-2
-2
-3
-4
-5
-7
-10
-11
-7
3
22
47
75
103
130
146
148
131
108
82
58
34
14
1
-6
-10
-11
-9
-5
-1
2
3
2
1
0
0
0
1
0
1
1
1
1
1
3
2
1
2
3
4
4
4
4
5
4
4
5
5
7
8
8
7
8
7
8
9
10
10
10
11
11
11
12
12
13
14
14
15
15
15
15
16
18
18
18
19
20
20
20
21
21
22
22
22
22
22
22
22
22
22
22
21
20
20
20
20
20
21
20
20
20
20
20
19
20
20
21
21
21
22
22
23
22
24
25
26
27
28
29
30
31
32
34
35
36
38
39
39
39
40
41
43
43
44
44
45
44
44
44
44
45
44
44
44
43
43
42
42
42
41
40
39
39
38
38
37
36
34
33
33
32
31
29
28
26
25
23
22
21
19
17
16
15
15
14
14
14
14
12
11
11
12
12
11
11
10
9
8
7
7
6
5
4
3
3
2
0
0
0
0
0
-1
-1
-2
-2
-2
-3
-3
-4
-4
-4
-4
-4
-2
-2
-3
-4
-4
-4
-3
-4
-4
-3
-3
-3
-3
-3
-4
-5
-5
-6
-6
-6
-6
-7
-6
-5
-6
-6
-5
-5
-5
-6
-5
-5
-6
-6
-6
-6
-6
-7
-7
-7
-7
-7
-7
-7
-7
-7
-7
-6
-6
-7
-8
-8
-7
-6
-7
-6
-7
-7
-7
-7
-6
-6
-6
-5
-5
-4
-5
-5
-5
-5
-5
-4
-4
-4
-3
-3
-3
-3
-4
-4
-3
-3
-3
-4
-5
-5
-5
-6
-6
-6
-6
-7
-7
-6
-6
-6
-5
-4
-4
-4
-4
-4
-3
-3
-2
-1
-1
-1
-2
-2
-1
-1
-1
-1
-1
0
-1
0
0
0
0
0
0
0
0
1
1
2
2
1
2
2
1
1
1
1
1
1
1
2
2
1
0
0
1
0
0
0
0
0
0
0
0
0
0
0
0
0
0
0
0
0
0
1
1
1
1
0
0
1
0
0
1
1
1
0
1
2
2
2
3
2
2
2
3
3
3
4
3
4
3
3
3
4
4
4
4
4
4
4
4
5
5
5
4
5
7
8
8
8
9
9
9
11
14
17
19
21
23
23
23
23
23
23
22
21
19
17
13
9
5
4
3
2
1
1
1
1
1
1
0
-1
-5
-8
-8
-3
7
26
52
79
112
139
157
158
144
124
98
73
46
24
10
3
0
-1
0
2
6
10
11
12
11
10
10
10
10
10
11
12
12
11
11
11
11
12
12
12
12
13
12
12
13
14
14
14
14
14
15
15
15
15
15
15
15
16
17
18
18
19
20
20
20
21
22
22
22
22
23
23
22
22
23
23
23
23
23
23
23
24
23
24
25
25
26
25
25
24
25
25
25
25
25
26
24
25
25
25
25
24
24
24
24
24
25
26
26
26
27
28
29
30
30
31
32
34
34
36
37
38
39
40
41
41
42
43
44
45
45
46
46
47
47
47
49
49
49
49
49
50
50
50
49
50
48
48
48
48
48
47
46
45
45
43
42
41
41
40
38
38
36
35
32
31
31
29
28
25
24
23
22
20
18
18
16
15
13
12
11
9
9
8
7
7
6
5
5
3
3
2
2
1
1
0
1
0
0
0
-1
-1
-2
-2
-2
-3
-4
-5
-5
-5
-6
-6
-7
-6
-6
-6
-6
-6
-4
-4
-4
-4
-4
-3
-3
-2
-3
-3
-4
-4
-4
-5
-4
-5
-4
-5
-5
-6
-6
-7
-8
-8
-8
-7
-8
-8
-8
-8
-8
-9
-8
-8
-9
-9
-9
-9
-10
-11
-10
-9
-9
-11
-11
-11
-11
-12
-12
-11
-11
-11
-12
-13
-13
-12
-12
-12
-12
-11
-12
-13
-13
-13
-13
-13
-13
-13
-12
-12
-13
-13
-13
-14
-13
-13
-14
-14
-14
-14
-14
-16
-16
-16
-17
-17
-19
-19
-19
-18
-20
-19
-18
-18
-17
-17
-16
-16
-16
-17
-16
-15
-15
-15
-15
-15
-15
-15
-15
-14
-14
-14
-14
-14
-14
-14
-14
-13
-12
-12
-12
-12
-12
-11
-11
-12
-11
-11
-10
-10
-9
-9
-9
-9
-8
-8
-9
-8
-8
-7
-7
-7
-7
-7
-8
-8
-8
-7
-7
-7
-8
-8
-8
-8
-8
-8
-7
-7
-8
-8
-7
-7
-8
-8
-7
-7
-7
-7
-7
-7
-7
-7
-7
-8
-9
-9
-8
-7
-7
-7
-8
-8
-9
-9
-9
-9
-9
-9
-10
-10
-9
-10
-10
-10
-10
-11
-11
-11
-10
-9
-10
-11
-11
-11
-12
-12
-12
-12
-13
-12
-12
-13
-13
-13
-13
-13
-14
-15
-15
-14
-14
-15
-15
-14
-14
-15
-16
-16
-15
-15
-15
-15
-14
-14
-15
-15
-15
-14
-14
-13
-12
-11
-10
-9
-8
-7
-6
-6
-5
-3
0
3
6
9
10
10
10
11
11
10
9
8
6
3
-1
-5
-8
-9
-11
-12
-13
-12
-12
-11
-10
-10
-11
-13
-16
-19
-19
-13
0
19
46
75
107
131
143
139
121
97
68
41
17
1
-8
-14
-16
-16
-13
-9
-4
-1
-1
-2
-2
-2
-2
-2
-2
-2
-2
-2
-1
0
0
0
-1
0
0
1
1
1
1
1
1
1
1
2
3
2
2
2
2
3
4
5
6
5
5
5
6
7
7
7
7
7
9
9
10
10
10
10
10
11
12
12
12
13
13
14
14
15
15
15
16
15
15
15
15
16
15
16
14
14
14
15
15
15
15
15
15
15
15
15
16
15
16
16
17
18
19
19
19
22
23
24
24
26
27
28
30
31
34
36
37
38
39
40
40
41
42
44
44
43
43
43
43
43
44
44
44
43
43
44
43
43
41
41
41
40
40
39
39
37
36
36
35
34
33
32
31
30
29
28
27
27
26
24
24
22
21
20
20
19
17
16
15
15
13
12
11
11
10
8
7
7
6
5
5
5
4
4
3
3
2
1
2
2
2
1
1
0
0
0
0
0
0
0
0
-1
-1
-2
-2
-3
-3
-3
-4
-3
-3
-3
-4
-4
-4
-4
-4
-4
-4
-4
-5
-6
-5
-4
-3
-3
-4
-5
-5
-4
-4
-4
-4
-4
-5
-5
-4
-5
-4
-5
-4
-5
-5
-5
-5
-5
-5
-4
-4
-4
-5
-4
-4
-5
-5
-5
-4
-3
-4
-5
-5
-5
-5
-4
-4
-4
-5
-5
-4
-3
-3
-4
-4
-4
-3
-3
-3
-2
-2
-1
-1
0
0
0
0
1
1
1
1
1
1
1
1
0
0
0
-1
-1
0
0
0
0
0
1
2
2
2
2
4
4
5
6
7
6
7
8
9
9
10
11
10
10
10
11
12
12
12
12
13
14
14
14
14
14
14
15
15
15
15
16
16
17
17
17
17
16
16
16
17
17
18
18
17
17
17
17
18
18
18
18
18
18
19
18
19
19
19
19
18
18
17
18
18
19
19
19
19
19
19
18
19
19
20
19
19
19
19
19
18
19
19
19
19
19
19
19
18
18
19
20
20
22
23
24
24
24
25
26
27
29
32
35
37
38
38
38
38
37
37
37
35
33
30
26
22
18
17
16
15
14
13
13
13
14
13
13
11
8
5
3
6
14
29
50
76
101
131
152
164
159
140
119
92
68
44
26
16
11
9
8
10
14
19
21
22
21
20
20
20
20
20
20
21
21
21
22
22
22
23
22
23
23
24
25
25
25
26
26
26
26
27
28
28
29
29
29
30
30
30
30
30
31
31
32
32
32
33
33
34
33
35
35
36
36
37
38
39
40
40
40
40
40
40
41
42
41
42
41
42
41
41
41
41
42
41
41
41
41
40
40
40
39
39
39
40
39
39
38
39
39
39
39
40
41
41
42
42
44
45
46
47
48
50
51
51
52
53
54
55
56
56
56
56
57
58
58
59
59
59
58
58
58
58
58
56
56
55
55
53
53
52
52
52
49
48
47
47
45
43
43
42
41
39
38
36
34
33
31
30
28
27
25
24
22
21
20
19
18
17
17
16
16
15
15
14
13
12
11
12
11
11
10
9
9
8
7
6
6
6
5
4
4
4
4
4
3
3
3
2
2
2
2
1
1
0
0
0
0
0
0
0
-1
-1
-2
-2
-2
-3
-2
-3
-2
-2
-3
-4
-4
-4
-5
-6
-6
-6
-6
-6
-6
-6
-5
-6
-6
-6
-7
-7
-7
-7
-7
-8
-8
-8
-8
-8
-8
-9
-10
-10
-11
-11
-11
-12
-12
-12
-13
-13
-12
-12
-13
-14
-14
-14
-14
-14
-14
-14
-14
-14
-15
-14
-15
-15
-15
-15
-16
-17
-17
-16
-16
-16
-16
-16
-16
-16
-16
-16
-17
-17
-18
-19
-19
-19
-20
-20
-20
-20
-20
-20
-19
-19
-19
-18
-18
-17
-18
-18
-18
-18
-17
-16
-16
-17
-18
-17
-17
-16
-16
-16
-16
-15
-15
-15
-14
-14
-14
-14
-14
-15
-14
-13
-14
-13
-13
-13
-13
-13
-13
-13
-13
-12
-12
-13
-13
-13
-12
-12
-12
-12
-12
-11
-11
-11
-12
-12
-12
-11
-11
-11
-11
-12
-11
-10
-9
-10
-11
-10
-10
-10
-10
-10
-10
-9
-10
-9
-8
-8
-8
-8
-8
-8
-8
-8
-8
-7
-7
-7
-8
-8
-8
-8
-8
-8
-7
-8
-8
-8
-8
-8
-8
-8
-8
-7
-7
-6
-5
-5
-4
-4
-3
-3
-2
-2
-1
1
5
7
9
10
11
11
10
10
9
9
8
7
4
0
-3
-7
-10
-12
-12
-12
-12
-12
-13
-13
-13
-13
-15
-18
-21
-23
-19
-11
3
25
50
79
109
128
136
124
104
80
54
28
5
-10
-18
-21
-22
-21
-18
-13
-8
-7
-8
-8
-8
-8
-8
-7
-7
-7
-7
-7
-6
-6
-5
-4
-4
-4
-4
-3
-3
-3
-3
-3
-3
-2
-2
-2
-2
-2
-1
-1
0
-1
-1
0
0
0
0
1
1
1
2
2
3
3
3
3
4
4
5
5
6
7
7
8
8
7
7
7
7
6
6
6
7
7
8
9
9
8
8
8
8
8
7
8
8
8
8
8
8
8
8
8
8
9
9
9
10
11
12
13
13
15
16
16
17
20
23
24
25
26
27
28
29
31
31
32
32
34
35
36
36
37
37
36
36
34
35
33
33
33
32
33
32
32
32
33
33
33
33
32
31
29
29
27
26
24
22
21
20
19
17
16
16
15
13
11
9
8
7
6
5
4
2
0
0
-1
-2
-3
-4
-5
-5
-6
-7
-9
-10
-11
-12
-11
-11
-12
-12
-13
-13
-14
-13
-13
-13
-13
-14
-14
-14
-15
-16
-15
-15
-15
-16
-17
-17
-17
-17
-17
-17
-17
-17
-17
-17
-17
-17
-17
-17
-17
-18
-18
-18
-18
-18
-18
-17
-17
-17
-17
-16
-17
-18
-18
-17
-16
-17
-16
-16
-16
-15
-16
-15
-15
-15
-15
-15
-14
-14
-15
-15
-15
-15
-15
-15
-14
-14
-15
-15
-15
-14
-14
-15
-15
-15
-14
-14
-14
-14
-13
-13
-13
-13
-14
-13
-13
-12
-12
-11
-11
-11
-11
-11
-11
-10
-10
-10
-9
-9
-8
-8
-8
-9
-9
-9
-10
-11
-12
-12
-12
-12
-12
-12
-12
-12
-11
-11
-10
-10
-10
-9
-9
-8
-8
-8
-8
-8
-8
-7
-6
-5
-6
-6
-6
-6
-7
-6
-5
-5
-5
-4
-3
-3
-4
-4
-4
-4
-4
-6
-5
-5
-4
-4
-4
-2
-2
-2
-3
-2
-2
-3
-3
-2
-1
-1
-1
-1
-1
-1
-1
0
-1
0
0
0
0
-1
-2
-1
-1
-1
0
0
1
1
1
1
1
2
2
3
3
5
7
8
8
9
10
10
11
13
16
20
23
25
26
26
27
28
27
27
26
24
23
20
16
12
11
8
7
7
7
8
7
7
8
8
6
2
0
-1
2
11
27
47
73
99
130
151
159
150
129
107
79
55
31
15
6
1
0
0
2
6
11
13
13
12
12
11
11
12
12
11
12
12
12
12
12
12
13
13
13
14
14
14
15
15
14
14
15
16
16
16
17
17
18
18
18
18
19
20
19
20
21
21
21
21
23
24
24
25
25
25
26
26
27
27
27
27
27
28
29
30
31
31
31
31
32
32
32
32
32
32
32
32
32
33
32
32
32
32
33
33
32
32
33
32
32
32
33
33
33
34
34
35
35
36
38
39
41
42
44
45
46
47
48
50
51
53
53
56
57
58
58
59
61
60
61
60
62
62
62
62
62
63
62
63
62
62
61
60
60
58
58
56
56
53
53
51
51
50
48
47
46
45
43
41
40
39
39
37
37
36
35
33
31
30
29
28
26
26
25
23
22
22
21
20
20
19
18
16
15
15
14
15
14
13
12
12
13
13
14
14
14
14
14
14
14
13
13
13
13
12
12
12
11
11
12
12
11
11
11
11
10
10
9
9
9
9
8
9
8
8
7
7
7
7
6
6
7
6
6
5
6
6
5
5
5
4
3
3
3
3
2
2
2
2
2
1
1
1
0
0
0
0
-1
-1
-1
-1
-1
-2
-2
-2
-2
-2
-3
-2
-2
-3
-3
-3
-3
-3
-4
-4
-4
-3
-3
-4
-4
-4
-4
-4
-4
-4
-3
-4
-4
-4
-4
-6
-6
-6
-7
-8
-10
-10
-10
-11
-11
-11
-10
-11
-11
-11
-10
-11
-10
-10
-10
-10
-9
-8
-9
-9
-9
-8
-8
-8
-8
-7
-6
-6
-6
-5
-5
-5
-5
-4
-4
-4
-4
-3
-3
-3
-3
-2
-2
-2
-2
-1
0
-1
0
0
0
0
1
1
0
1
1
1
2
2
2
1
1
1
2
2
2
2
2
2
1
2
2
3
3
3
3
3
2
2
2
2
2
3
3
3
2
2
3
2
2
3
3
3
2
2
3
3
3
3
2
3
2
1
1
2
2
2
2
2
2
1
1
1
1
1
0
1
1
1
1
1
0
0
0
0
0
0
0
0
0
0
0
0
0
0
0
0
2
3
4
4
5
6
6
8
10
12
15
16
18
20
21
20
20
20
21
20
19
18
15
11
8
6
4
4
4
3
3
3
3
3
3
3
2
-1
-4
-3
2
14
35
60
91
120
149
161
158
144
122
98
71
45
26
15
9
6
6
6
10
14
18
19
19
18
17
17
17
17
17
18
19
19
19
19
20
19
19
19
20
21
21
22
22
22
22
22
22
22
22
23
23
24
24
24
25
25
25
24
25
26
26
26
26
27
27
27
27
27
29
28
29
29
29
29
30
31
31
31
31
32
32
32
33
32
33
32
32
31
32
31
31
31
31
31
31
31
30
30
30
29
30
30
30
29
30
30
31
31
30
31
31
32
32
33
34
35
36
37
39
40
43
44
45
46
47
48
49
50
51
51
52
53
54
55
56
56
56
56
56
56
55
55
54
55
54
53
52
51
51
50
51
49
48
46
45
43
43
43
41
41
40
40
39
38
36
35
34
32
31
29
28
25
24
23
21
19
18
18
17
16
14
13
12
12
11
11
10
10
9
9
8
7
7
7
6
6
5
4
4
3
2
2
2
2
1
0
0
0
0
-1
-1
-1
0
-1
-2
-2
-3
-4
-6
-5
-4
-5
-5
-5
-5
-6
-6
-7
-6
-7
-8
-8
-6
-7
-8
-8
-9
-8
-9
-9
-10
-10
-11
-12
-12
-12
-11
-12
-12
-13
-13
-15
-16
-15
-14
-14
-15
-16
-16
-17
-17
-18
-18
-18
-18
-18
-18
-18
-19
-20
-20
-20
-21
-21
-21
-21
-21
-22
-22
-22
-21
-22
-22
-22
-22
-23
-23
-22
-22
-22
-22
-21
-22
-22
-22
-23
-22
-23
-23
-24
-24
-25
-26
-26
-26
-25
-25
-24
-25
-25
-24
-25
-24
-23
-23
-23
-23
-23
-22
-22
-22
-21
-20
-20
-20
-20
-18
-19
-19
-19
-18
-19
-18
-18
-18
-18
-19
-18
-17
-16
-16
-16
-16
-15
-15
-16
-15
-15
-15
-15
-15
-15
-15
-15
-15
-14
-14
-15
-16
-15
-15
-14
-14
-14
-14
-14
-14
-14
-15
-14
-14
-14
-14
-14
-14
-14
-14
-13
-13
-14
-14
-14
-14
-14
-14
-14
-15
-15
-15
-14
-14
-14
-14
-14
-13
-13
-13
-14
-13
-13
-12
-11
-10
-8
-8
-7
-6
-5
-5
-5
-2
0
3
5
6
7
7
7
7
7
6
5
4
2
0
-4
-7
-10
-12
-13
-13
-14
-14
-14
-14
-14
-13
-13
-15
-17
-19
-20
-18
-12
1
22
46
74
99
117
123
111
94
71
47
23
1
-12
-20
-24
-24
-23
-19
-14
-10
-8
-9
-10
-10
-9
-9
-8
-9
-9
-8
-8
-7
-6
-5
-5
-5
-4
-3
-2
-2
-2
0
0
0
1
1
2
2
3
3
4
4
5
5
6
7
7
9
9
10
10
10
12
13
14
14
15
16
16
16
17
19
19
19
19
20
21
22
23
23
24
24
25
25
26
26
26
26
26
26
26
27
27
27
27
29
29
29
28
28
29
29
29
29
30
31
31
32
33
34
35
36
37
39
39
40
42
43
46
47
48
50
52
54
55
56
57
57
59
59
62
61
62
61
62
60
60
60
60
60
59
60
58
58
57
57
57
56
56
54
53
52
51
51
49
48
46
45
43
42
41
39
38
37
36
34
33
32
31
29
28
28
27
26
24
24
23
21
20
18
18
18
17
16
15
14
14
13
13
12
12
11
10
11
10
10
11
11
11
11
11
12
12
11
11
12
12
11
10
10
10
10
10
10
11
11
10
10
10
10
9
10
9
9
8
8
8
7
7
6
6
6
5
5
5
5
5
4
4
4
4
4
4
4
4
3
3
3
3
2
2
2
2
2
2
1
2
2
1
1
1
1
0
1
1
1
0
0
0
0
-1
-1
-1
-1
-2
-2
-2
-2
-3
-3
-2
-2
-2
-2
-2
-2
-2
-1
-2
-2
-2
-2
-3
-4
-4
-5
-5
-5
-6
-7
-9
-9
-9
-10
-10
-10
-10
-10
-10
-11
-9
-10
-10
-10
-10
-10
-10
-10
-11
-11
-11
-10
-10
-10
-10
-10
-10
-10
-10
-11
-10
-9
-9
-9
-8
-8
-8
-9
-8
-7
-7
-7
-7
-7
-6
-7
-6
-6
-6
-6
-6
-6
-6
-6
-6
-5
-5
-5
-5
-5
-5
-5
-4
-5
-5
-4
-4
-4
-4
-3
-3
-3
-3
-3
-2
-2
-2
-2
-2
-2
-2
-1
-1
-1
-2
-2
-2
-2
-3
-3
-2
-1
-1
-2
-2
-1
-1
-1
-1
-1
-1
0
0
0
-1
-1
0
0
0
0
0
0
0
0
0
0
0
0
0
0
0
0
-1
-1
-1
-1
0
-1
-1
-1
0
0
0
0
0
0
0
-1
-1
-1
0
0
0
2
3
3
4
4
5
6
7
10
14
17
18
18
18
18
18
18
17
16
14
12
9
6
4
1
0
0
-1
-1
0
0
0
0
0
0
-3
-7
-9
-7
1
16
37
63
92
122
143
151
141
122
99
76
52
31
15
5
1
0
0
1
5
9
10
9
8
8
7
7
7
8
8
8
8
8
9
9
9
10
9
9
9
10
11
12
12
12
12
12
12
13
15
15
14
14
15
15
14
15
15
16
16
16
16
17
17
18
19
20
21
21
21
22
22
22
23
24
24
24
24
25
25
26
27
27
27
26
25
26
25
26
26
27
27
27
27
26
27
26
27
27
27
27
27
27
27
27
27
28
29
31
31
32
34
35
36
35
38
39
42
42
44
45
46
48
49
50
51
52
53
55
56
57
58
59
60
59
58
57
57
57
56
56
56
55
53
52
52
51
51
51
52
51
51
49
48
48
47
46
44
43
42
40
38
36
35
32
31
30
28
26
25
24
22
21
18
17
15
13
12
11
11
10
8
7
6
5
4
4
3
3
1
0
0
0
0
0
-1
-1
-2
-2
-4
-4
-4
-4
-5
-6
-5
-5
-6
-6
-6
-6
-6
-6
-7
-7
-8
-9
-8
-7
-8
-9
-9
-9
-9
-10
-10
-10
-10
-10
-11
-11
-11
-12
-12
-12
-12
-12
-13
-13
-13
-13
-13
-14
-14
-14
-14
-15
-15
-15
-16
-15
-15
-14
-14
-15
-15
-14
-15
-16
-15
-15
-14
-14
-15
-15
-16
-17
-17
-16
-16
-17
-17
-17
-17
-17
-17
-17
-16
-17
-17
-17
-17
-17
-17
-16
-16
-15
-15
-15
-14
-14
-15
-15
-14
-13
-14
-14
-14
-15
-17
-19
-19
-18
-18
-19
-19
-20
-20
-20
-19
-18
-18
-19
-19
-19
-18
-18
-18
-18
-18
-18
-18
-17
-16
-16
-17
-18
-17
-17
-17
-18
-18
-16
-17
-17
-17
-17
-17
-17
-17
-17
-17
-17
-17
-18
-18
-18
-18
-18
-18
-18
-18
-17
-17
-17
-17
-17
-17
-18
-18
-18
-17
-16
-17
-16
-17
-17
-18
-18
-17
-17
-17
-17
-17
-17
-17
-17
-17
-17
-17
-18
-18
-18
-18
-18
-18
-18
-18
-18
-19
-19
-18
-17
-15
-14
-12
-12
-12
-12
-11
-9
-6
-2
0
1
1
1
1
1
0
0
0
-2
-4
-8
-12
-14
-17
-18
-19
-20
-20
-20
-20
-20
-20
-21
-22
-24
-27
-28
-24
-16
-1
20
45
73
99
118
121
110
89
66
42
18
-2
-18
-28
-33
-35
-34
-31
-26
-21
-17
-17
-18
-19
-19
-19
-19
-18
-17
-16
-16
-16
-15
-15
-16
-15
-14
-14
-13
-13
-13
-12
-11
-11
-11
-10
-9
-10
-9
-9
-8
-8
-8
-6
-6
-6
-6
-5
-5
-5
-4
-4
-3
-2
-1
0
0
1
1
2
3
3
3
4
4
4
4
4
6
7
7
6
7
7
8
7
8
8
9
9
9
9
8
8
8
9
9
9
9
9
9
10
10
10
10
10
11
11
12
12
13
14
16
17
18
20
21
23
24
26
28
29
30
31
33
35
36
37
38
40
41
42
42
44
44
44
44
45
45
45
46
45
44
43
42
41
41
40
39
39
38
37
36
35
35
34
34
32
31
30
28
26
26
26
24
23
22
21
19
17
16
14
13
12
11
10
9
9
8
8
8
8
8
8
9
8
7
7
7
8
7
6
6
5
5
5
5
5
4
5
5
4
3
3
4
4
4
3
3
3
2
2
2
2
1
1
2
2
2
0
0
0
0
0
0
0
0
0
0
0
1
0
0
-1
-1
-1
-1
-2
-1
-1
-1
-2
-2
-2
-3
-3
-3
-3
-3
-3
-2
-2
-2
-3
-2
-2
-2
-3
-3
-2
-2
-3
-3
-3
-3
-3
-3
-3
-4
-4
-5
-4
-4
-3
-3
-4
-4
-5
-5
-5
-4
-4
-4
-4
-4
-4
-4
-5
-4
-4
-4
-4
-4
-4
-4
-5
-5
-5
-6
-6
-7
-7
-8
-9
-9
-9
-8
-7
-7
-6
-5
-5
-5
-4
-3
-3
-3
-3
-3
-3
-3
-3
-1
-1
-2
-2
-2
-1
-1
-1
0
0
0
0
1
1
1
1
1
1
2
2
2
1
1
1
2
2
2
2
2
2
2
2
2
2
3
2
2
2
2
2
1
2
3
3
2
2
2
2
2
1
0
0
0
2
1
1
1
1
1
1
1
1
1
1
1
0
0
0
0
1
1
1
0
0
0
0
0
0
0
1
0
0
0
0
0
0
0
0
0
-1
-1
0
0
0
-1
-1
-1
-1
-2
-3
-2
-2
-1
0
0
1
1
0
1
2
4
6
9
12
14
14
14
14
14
14
13
12
11
8
5
1
-2
-4
-5
-6
-6
-7
-7
-6
-6
-5
-7
-8
-11
-15
-17
-14
-6
8
29
57
89
121
143
146
142
123
104
80
55
31
13
3
-2
-4
-5
-3
0
4
6
6
5
4
5
5
5
5
5
5
5
6
6
7
6
6
7
7
7
8
8
9
9
9
10
10
10
11
12
12
12
13
13
14
15
14
15
16
17
18
18
18
19
20
20
20
21
21
21
22
23
23
23
23
24
24
24
25
25
24
24
24
24
25
25
25
25
26
26
26
26
26
27
27
27
27
26
26
25
26
26
25
25
25
26
26
26
27
27
28
29
30
30
31
32
35
36
38
39
41
42
43
45
46
49
49
51
51
52
53
52
54
54
55
55
55
56
55
56
55
55
54
53
52
51
52
51
50
48
48
47
47
46
45
45
43
43
41
41
41
41
38
36
34
33
32
31
31
29
28
26
25
23
21
21
19
18
18
17
16
15
14
13
13
13
12
12
12
11
10
10
10
9
8
7
7
7
7
6
6
7
6
6
7
7
6
5
6
6
5
5
4
4
4
3
3
3
4
4
4
4
3
3
3
3
3
3
3
3
2
2
1
1
2
2
2
1
1
0
0
0
0
0
0
1
0
0
0
-1
-1
-1
0
0
0
0
-1
-2
-2
-2
-2
-2
-2
-2
-1
-2
-3
-3
-4
-4
-4
-4
-3
-3
-4
-4
-3
-4
-5
-4
-3
-4
-4
-4
-3
-3
-3
-2
-3
-3
-4
-4
-4
-4
-3
-3
-3
-4
-5
-5
-6
-7
-8
-8
-10
-10
-10
-11
-10
-9
-8
-9
-9
-9
-9
-9
-9
-8
-8
-8
-8
-8
-7
-7
-7
-7
-7
-8
-7
-7
-7
-7
-8
-7
-7
-6
-6
-6
-6
-5
-6
-6
-5
-6
-6
-6
-6
-6
-5
-5
-5
-5
-6
-6
-6
-5
-5
-5
-4
-3
-3
-4
-4
-5
-4
-4
-3
-3
-4
-4
-4
-4
-5
-5
-5
-5
-5
-5
-4
-4
-4
-4
-4
-4
-4
-4
-5
-5
-5
-5
-5
-4
-4
-4
-4
-3
-3
-3
-4
-3
-2
0
0
0
1
2
2
2
4
7
10
13
14
14
15
15
15
15
15
14
13
12
10
6
2
-1
-2
-4
-4
-5
-6
-6
-6
-6
-6
-7
-9
-11
-14
-14
-10
0
17
41
67
96
119
128
125
107
89
66
42
17
-3
-15
-22
-25
-25
-23
-18
-13
-9
-8
-9
-10
-11
-11
-11
-11
-11
-10
-9
-9
-9
-9
-8
-7
-7
-7
-7
-6
-7
-7
-7
-6
-5
-5
-4
-4
-4
-4
-4
-4
-3
-3
-2
-2
-2
-2
-2
-1
-1
0
0
0
0
0
1
2
3
3
4
5
7
7
7
7
8
10
11
11
12
12
11
11
11
11
11
11
11
12
12
12
12
13
13
14
14
14
14
14
14
14
14
14
15
16
17
17
18
19
20
22
23
24
25
27
28
30
32
33
35
36
38
38
40
41
43
44
46
47
47
49
48
48
48
49
50
49
49
48
48
46
46
45
45
46
44
45
44
45
43
43
42
41
41
40
40
39
39
37
37
35
33
32
31
30
28
27
26
24
22
21
20
20
19
18
18
17
16
14
14
13
11
10
10
9
9
9
9
8
8
7
6
6
6
5
5
5
5
4
4
4
4
3
3
3
2
2
2
2
2
2
1
1
1
1
1
1
1
1
1
0
0
1
2
1
0
0
0
0
0
0
0
0
1
0
0
0
0
1
1
0
0
0
0
-1
-1
-1
-1
-1
-1
-1
0
0
0
0
1
1
1
1
1
1
1
2
1
2
2
2
2
2
3
3
3
3
3
3
3
4
4
5
5
6
5
5
5
5
7
7
7
7
7
7
7
8
8
8
8
8
7
7
7
7
6
6
5
5
6
6
6
6
6
7
7
8
8
8
8
8
8
8
9
9
9
9
10
10
9
9
11
11
11
11
11
11
10
10
11
12
12
12
13
13
13
12
12
13
13
13
12
12
13
12
12
12
13
12
12
12
13
12
12
12
12
11
11
12
12
11
11
10
10
11
11
10
10
10
10
11
11
10
10
10
10
10
10
10
10
11
12
12
13
14
15
16
16
16
17
17
18
20
24
27
29
30
31
32
32
32
31
31
29
27
25
23
18
14
11
10
9
9
9
8
7
7
7
7
6
4
0
-2
-1
4
15
33
56
85
117
142
156
150
138
116
93
68
41
22
10
4
0
-1
0
2
6
8
9
9
8
7
7
7
7
7
7
8
7
7
6
7
7
8
7
8
9
9
8
8
7
6
8
9
9
9
10
10
11
11
10
10
11
12
12
12
12
13
13
14
14
14
14
15
14
15
16
15
15
15
16
16
17
16
16
16
16
16
16
17
17
17
17
17
16
16
16
16
16
16
16
16
15
15
15
16
16
16
16
16
15
15
14
15
15
15
16
16
17
18
19
21
22
23
24
26
27
28
30
31
33
35
36
37
38
39
40
42
42
43
43
44
45
45
45
44
45
45
45
44
44
44
43
43
41
42
41
41
40
40
39
38
36
35
35
34
33
32
31
29
27
27
25
24
23
22
20
18
16
15
15
14
12
11
10
8
7
5
4
4
4
3
1
1
0
-1
-1
-1
-1
-2
-2
-2
-2
-2
-3
-4
-4
-4
-4
-5
-5
-6
-7
-8
-7
-7
-7
-8
-7
-7
-8
-9
-9
-9
-9
-10
-10
-11
-12
-12
-12
-12
-12
-12
-13
-13
-13
-13
-14
-14
-14
-15
-15
-16
-15
-16
-15
-15
-15
-15
-16
-17
-17
-17
-16
-16
-16
-17
-18
-18
-18
-18
-19
-19
-19
-19
-20
-20
-20
-21
-21
-22
-22
-22
-21
-21
-22
-23
-23
-23
-24
-23
-23
-22
-23
-22
-22
-23
-23
-23
-22
-22
-22
-22
-22
-22
-23
-22
-22
-22
-22
-22
-23
-22
-22
-25
-25
-26
-26
-27
-27
-27
-27
-27
-26
-25
-25
-25
-25
-25
-24
-25
-25
-24
-23
-24
-23
-23
-23
-23
-23
-22
-22
-22
-23
-23
-23
-22
-21
-21
-21
-21
-21
-21
-20
-19
-19
-20
-20
-19
-19
-18
-18
-18
-18
-18
-17
-16
-16
-17
-16
-16
-16
-16
-15
-14
-14
-14
-14
-14
-14
-15
-14
-14
-13
-14
-13
-14
-14
-14
-14
-13
-13
-13
-13
-13
-13
-14
-14
-13
-11
-10
-9
-9
-8
-8
-8
-8
-8
-6
-2
1
4
6
7
7
7
7
7
6
5
4
3
0
-4
-8
-10
-12
-13
-14
-15
-15
-15
-15
-14
-15
-17
-19
-21
-23
-22
-14
0
19
44
71
96
116
119
112
94
74
50
23
0
-15
-26
-31
-34
-32
-28
-23
-17
-15
-15
-16
-16
-17
-16
-17
-17
-16
-16
-16
-16
-15
-15
-15
-15
-14
-14
-14
-15
-15
-15
-15
-14
-13
-13
-13
-12
-12
-12
-11
-10
-10
-9
-8
-8
-8
-7
-7
-6
-6
-5
-5
-5
-5
-4
-3
-3
-3
-2
-2
-1
-1
-1
0
0
0
1
1
2
2
1
2
3
3
2
3
3
2
1
1
3
3
3
3
3
3
2
2
3
3
2
2
3
3
3
3
4
5
6
7
8
9
11
12
13
14
16
17
20
22
23
24
24
26
29
30
31
32
34
34
34
34
34
34
34
35
35
35
33
32
31
31
29
28
28
27
26
26
25
25
24
23
21
19
17
16
15
15
14
12
12
10
8
7
7
7
6
5
4
3
3
2
0
0
-1
-2
-3
-4
-5
-5
-5
-6
-7
-7
-8
-8
-9
-9
-10
-10
-10
-11
-12
-12
-12
-13
-13
-13
-14
-14
-15
-15
-15
-15
-16
-17
-17
-16
-16
-16
-16
-16
-16
-17
-17
-17
-16
-16
-17
-17
-18
-18
-18
-18
-17
-19
-18
-17
-17
-17
-18
-17
-18
-18
-19
-18
-18
-17
-17
-18
-17
-18
-17
-17
-17
-17
-17
-17
-17
-17
-17
-17
-17
-17
-17
-17
-16
-16
-16
-16
-16
-16
-16
-16
-17
-17
-16
-16
-15
-15
-15
-15
-15
-16
-15
-15
-15
-15
-15
-14
-15
-15
-14
-14
-14
-14
-14
-14
-13
-13
-13
-11
-11
-12
-12
-12
-12
-12
-13
-13
-14
-14
-14
-14
-13
-14
-13
-12
-11
-12
-12
-11
-11
-10
-10
-9
-9
-8
-8
-8
-8
-8
-8
-8
-7
-7
-6
-6
-6
-6
-6
-6
-5
-4
-3
-3
-3
-2
-2
-3
-3
-3
-2
-3
-3
-3
-3
-2
-3
-2
-2
-2
-3
-2
-2
-2
-1
-2
-2
-1
-1
-1
-1
-1
-2
-2
-2
-1
-1
-2
-1
-1
0
0
0
1
1
0
0
0
1
1
1
1
2
2
2
2
3
3
3
3
4
5
5
5
6
7
6
6
6
7
7
6
6
8
9
10
11
13
14
14
15
15
16
18
21
24
27
28
29
30
30
30
29
28
28
26
25
22
19
15
13
11
10
10
10
10
11
11
11
10
9
6
3
2
5
15
32
55
83
114
144
166
167
159
138
117
92
65
42
25
15
9
8
8
10
14
19
21
21
20
19
19
18
18
18
19
20
20
21
21
20
20
21
21
21
21
21
22
21
21
21
22
23
22
22
23
24
24
24
26
26
27
26
27
27
28
29
29
30
30
31
31
31
31
32
33
33
34
33
34
34
35
36
36
36
36
37
36
37
37
37
36
36
37
37
38
36
37
37
38
38
38
38
38
38
38
38
37
36
36
36
37
36
37
37
38
38
39
40
41
42
43
44
45
46
47
49
51
51
52
53
54
56
56
58
58
59
60
61
61
61
62
61
62
61
62
60
61
60
60
59
58
59
58
59
57
58
58
57
57
55
56
54
53
52
52
51
49
47
46
45
43
42
40
38
37
35
34
33
33
32
31
29
28
26
24
24
24
23
22
21
20
20
19
18
19
19
18
18
18
17
16
16
16
16
15
14
14
13
14
13
13
12
11
11
10
11
10
10
8
8
8
7
7
7
6
5
5
5
4
3
3
2
2
2
1
1
1
0
0
0
-1
0
-1
-1
-1
-1
-2
-3
-3
-3
-4
-4
-5
-5
-4
-4
-4
-5
-5
-6
-6
-6
-7
-8
-8
-8
-8
-8
-9
-8
-8
-8
-9
-9
-9
-9
-10
-10
-10
-10
-10
-10
-10
-10
-10
-10
-9
-10
-10
-10
-10
-11
-11
-11
-11
-10
-11
-10
-11
-11
-12
-13
-13
-14
-14
-15
-15
-16
-16
-16
-17
-17
-16
-15
-15
-15
-14
-14
-14
-14
-14
-14
-14
-14
-13
-13
-13
-13
-12
-11
-11
-11
-10
-9
-9
-10
-9
-9
-8
-8
-8
-8
-7
-8
-8
-7
-7
-7
-7
-7
-7
-7
-7
-6
-6
-6
-6
-6
-5
-6
-6
-5
-5
-5
-5
-5
-6
-6
-6
-6
-5
-5
-5
-6
-7
-6
-7
-6
-6
-6
-6
-6
-6
-5
-5
-6
-6
-5
-4
-5
-5
-5
-5
-5
-5
-5
-5
-5
-5
-5
-4
-4
-4
-4
-4
-5
-5
-5
-5
-5
-5
-5
-5
-5
-5
-4
-4
-3
-4
-5
-5
-4
-5
-6
-5
-6
-6
-6
-7
-6
-7
-7
-7
-6
-6
-6
-5
-4
-2
-2
-1
0
0
0
1
4
9
12
14
16
16
15
15
15
15
14
13
11
9
5
1
-2
-3
-3
-4
-4
-4
-3
-4
-4
-3
-3
-5
-8
-12
-13
-10
-1
16
41
71
103
133
153
156
146
124
99
72
46
24
10
1
-2
-3
-2
0
4
8
10
9
9
8
8
9
9
10
10
12
12
12
11
12
12
12
13
13
13
14
13
13
14
14
15
15
15
16
16
16
17
18
18
18
19
19
19
19
20
21
21
21
22
22
23
24
24
24
24
24
25
25
26
27
27
27
27
27
27
28
28
28
27
28
28
28
28
28
28
28
28
28
28
28
28
28
28
28
28
28
28
28
28
28
29
28
28
28
28
29
30
31
31
32
32
34
34
36
38
39
40
41
43
43
44
44
46
47
48
50
52
53
53
54
54
54
54
54
55
54
54
52
52
52
51
51
50
50
48
47
46
45
44
43
43
42
42
41
40
39
38
37
37
36
35
34
31
29
28
26
25
22
22
20
19
17
16
16
15
14
12
12
11
10
9
9
9
8
7
7
6
6
5
5
4
4
4
3
3
3
2
2
2
2
1
1
0
0
0
0
0
-2
-3
-3
-3
-3
-4
-4
-4
-5
-5
-5
-5
-5
-5
-5
-5
-5
-5
-5
-6
-6
-6
-6
-6
-6
-6
-7
-8
-8
-9
-9
-10
-10
-9
-9
-9
-10
-10
-11
-11
-11
-10
-10
-11
-10
-11
-11
-12
-12
-13
-13
-13
-13
-13
-14
-14
-13
-13
-14
-15
-15
-15
-14
-15
-15
-15
-15
-15
-15
-15
-15
-15
-16
-16
-15
-15
-15
-14
-14
-14
-14
-14
-14
-14
-14
-15
-16
-16
-17
-17
-17
-17
-17
-17
-17
-17
-17
-18
-17
-17
-16
-17
-17
-16
-17
-16
-17
-16
-15
-16
-16
-16
-15
-15
-15
-16
-15
-14
-14
-14
-14
-13
-14
-13
-13
-13
-13
-13
-13
-13
-14
-14
-15
-15
-15
-15
-14
-13
-14
-14
-14
-13
-12
-13
-13
-13
-13
-13
-13
-13
-12
-12
-12
-12
-12
-12
-12
-12
-12
-12
-12
-12
-12
-12
-12
-12
-12
-11
-11
-12
-12
-11
-11
-11
-12
-11
-12
-12
-12
-11
-10
-11
-10
-11
-11
-10
-10
-10
-10
-9
-8
-6
-5
-5
-4
-4
-4
-4
-2
1
4
7
9
11
12
12
12
12
12
11
9
8
5
1
-3
-6
-9
-10
-10
-11
-10
-11
-11
-11
-11
-12
-14
-17
-20
-19
-13
0
20
45
75
104
132
141
135
115
91
67
41
16
-2
-14
-20
-24
-25
-22
-17
-11
-5
-3
-3
-4
-5
-5
-4
-2
-2
-2
-2
-1
-1
-1
0
0
0
0
0
1
2
2
3
4
4
5
6
7
7
7
8
9
9
9
9
10
10
11
12
12
13
14
15
16
17
18
19
19
21
22
23
23
24
24
25
25
26
27
27
28
28
28
28
28
29
29
30
29
29
29
29
29
30
31
31
30
30
30
30
30
31
31
32
31
32
32
33
33
34
35
36
37
38
39
40
42
43
45
46
48
50
52
55
56
57
58
60
61
63
64
65
66
66
66
66
66
66
65
66
65
64
63
62
62
61
61
59
59
58
57
56
55
55
52
51
49
48
47
45
44
42
41
38
38
36
35
33
31
31
29
29
27
27
26
25
25
24
24
22
21
20
20
18
16
15
15
15
15
14
13
12
12
11
11
11
10
9
9
9
8
8
8
7
7
8
7
7
7
7
6
6
6
5
5
4
4
4
4
4
4
4
3
3
3
3
2
2
3
3
3
2
2
2
1
1
1
1
2
1
1
1
1
0
0
1
0
0
0
0
0
0
0
0
1
1
0
0
0
0
0
0
0
0
0
0
0
-1
-2
-1
-1
-1
0
0
0
-2
-2
-1
-1
-1
-1
-1
-1
-1
-2
-2
-3
-2
-2
-2
-3
-3
-2
-3
-3
-3
-3
-4
-5
-6
-6
-6
-7
-8
-8
-8
-7
-8
-8
-8
-8
-7
-6
-6
-6
-6
-5
-4
-5
-6
-6
-5
-5
-5
-4
-3
-4
-4
-4
-3
-2
-2
-2
-2
-2
-2
-1
-1
-1
-1
-1
-1
-1
-1
-1
-1
-1
-1
-1
-2
-2
-2
-2
-2
-2
-2
-2
-2
-2
-2
-2
-3
-3
-2
-2
-2
-2
-2
-2
-3
-3
-2
-1
-2
-2
-2
-3
-3
-3
-3
-3
-3
-2
-2
-1
-1
-1
-1
0
0
-1
-1
0
-1
-2
-2
-2
-1
-1
-1
-1
-1
0
-1
-1
0
0
0
0
0
0
0
0
1
3
4
4
4
4
4
5
8
11
15
17
18
18
18
17
17
17
16
15
13
10
7
4
1
-1
-3
-4
-5
-6
-6
-5
-6
-6
-6
-7
-9
-13
-16
-14
-7
7
27
53
86
117
145
154
147
132
108
85
56
31
13
2
-3
-6
-8
-5
-1
3
4
4
4
4
3
3
3
3
3
2
3
4
4
4
4
4
4
4
5
5
6
6
6
7
7
7
7
8
9
9
10
10
11
11
11
11
11
11
12
13
13
13
13
14
16
16
17
16
17
18
19
19
20
22
21
20
19
21
22
22
23
24
25
25
25
24
26
26
26
26
25
25
25
25
26
27
26
26
26
26
26
26
27
27
27
27
28
28
28
29
30
31
33
34
35
36
38
39
40
41
42
44
46
48
48
49
49
50
50
51
52
53
55
55
55
55
56
56
56
57
56
57
55
55
54
54
54
53
53
52
51
49
48
47
46
45
44
43
41
40
38
38
38
37
36
35
34
33
32
31
30
28
27
26
24
24
22
21
19
18
17
15
14
14
12
11
11
10
10
9
8
8
7
6
4
4
4
4
4
3
3
2
1
0
0
0
-1
-1
-1
-2
-3
-3
-3
-3
-3
-4
-4
-4
-4
-5
-6
-5
-5
-6
-6
-6
-6
-6
-6
-6
-7
-8
-8
-7
-7
-8
-8
-8
-9
-9
-9
-9
-8
-8
-9
-9
-9
-8
-9
-8
-8
-8
-9
-10
-10
-9
-10
-10
-10
-10
-11
-12
-12
-12
-12
-12
-12
-12
-12
-13
-13
-12
-13
-13
-14
-14
-13
-14
-15
-15
-14
-14
-15
-15
-14
-14
-14
-14
-13
-12
-13
-13
-13
-13
-13
-15
-14
-15
-15
-16
-17
-17
-18
-18
-18
-18
-18
-18
-17
-17
-16
-16
-16
-15
-14
-14
-14
-14
-13
-13
-13
-12
-12
-11
-12
-13
-13
-12
-12
-11
-11
-10
-10
-11
-11
-11
-11
-11
-10
-11
-10
-11
-11
-11
-10
-11
-10
-10
-10
-11
-11
-11
-12
-13
-13
-12
-11
-12
-12
-12
-12
-13
-13
-13
-13
-13
-13
-13
-13
-13
-14
-14
-13
-13
-13
-14
-13
-13
-13
-14
-13
-13
-14
-15
-15
-14
-15
-16
-16
-15
-15
-15
-15
-15
-15
-16
-16
-15
-15
-15
-15
-15
-16
-16
-17
-17
-16
-15
-15
-14
-14
-13
-12
-11
-10
-9
-9
-8
-6
-3
0
3
4
6
5
4
4
5
4
4
3
0
-2
-7
-12
-14
-16
-16
-17
-17
-17
-17
-17
-18
-17
-18
-20
-24
-25
-23
-17
-1
21
51
82
110
131
135
121
101
75
51
25
2
-12
-22
-29
-30
-28
-24
-19
-14
-11
-11
-12
-12
-12
-11
-11
-11
-10
-10
-9
-10
-10
-9
-8
-8
-7
-6
-6
-6
-5
-5
-4
-4
-4
-3
-2
-2
-2
-2
-1
-1
0
1
2
2
2
2
2
2
4
4
6
7
7
7
8
9
9
9
11
13
13
13
13
14
14
14
14
15
16
15
16
16
17
16
16
16
17
17
18
18
17
18
18
19
19
18
18
19
19
19
20
21
21
22
21
22
23
23
24
26
28
28
29
30
33
34
37
39
41
44
45
47
47
49
50
51
52
52
53
52
54
53
54
54
54
54
53
52
51
50
49
48
46
46
45
43
42
41
41
39
38
37
36
35
33
32
30
29
27
27
27
26
25
22
20
19
17
17
17
16
15
14
13
11
10
8
8
7
7
7
6
6
6
6
6
7
7
7
7
7
7
6
6
6
6
5
5
5
5
4
4
4
4
4
3
3
3
3
3
3
3
2
2
2
2
2
0
0
1
0
0
-1
0
0
-1
-1
-1
-1
-1
-2
-2
-2
-3
-3
-3
-3
-3
-4
-3
-4
-3
-4
-4
-4
-4
-5
-5
-5
-5
-6
-7
-6
-6
-7
-7
-7
-7
-7
-7
-7
-6
-7
-7
-7
-7
-8
-9
-8
-9
-9
-10
-10
-10
-9
-9
-9
-9
-9
-9
-9
-9
-9
-9
-9
-9
-8
-7
-7
-7
-7
-7
-8
-9
-8
-9
-9
-10
-10
-11
-11
-13
-12
-12
-13
-13
-12
-11
-11
-11
-11
-10
-9
-9
-9
-8
-8
-8
-8
-7
-6
-6
-6
-6
-6
-5
-6
-5
-4
-4
-4
-3
-3
-3
-2
-2
0
0
-1
-1
-1
0
0
0
0
1
1
1
1
2
2
2
3
3
4
4
4
4
4
4
3
3
4
4
4
4
4
3
2
3
4
4
4
4
4
4
3
3
2
3
5
4
4
3
3
2
2
3
3
3
3
3
3
2
2
2
2
1
1
1
1
0
0
0
0
1
1
1
1
1
0
0
0
0
0
-1
-1
-1
-1
-1
-1
-1
0
0
0
0
1
2
2
3
4
3
4
6
10
13
15
17
18
19
19
19
19
18
17
16
14
11
7
2
0
-2
-2
-3
-3
-3
-2
-2
-2
-2
-2
-5
-9
-13
-12
-6
6
25
51
82
117
143
160
158
145
123
97
70
42
22
10
3
0
-1
0
4
8
10
10
10
9
9
8
10
9
9
9
11
11
12
13
13
13
13
13
14
15
15
15
16
16
16
16
17
17
18
17
18
19
19
19
19
20
21
21
22
22
23
23
24
24
25
26
26
26
27
28
28
29
29
29
30
30
31
32
32
32
33
33
33
32
32
33
32
32
32
33
32
32
32
32
32
31
32
31
33
32
33
33
33
34
33
34
34
35
35
35
35
36
37
38
40
41
42
43
44
46
47
49
51
53
53
55
55
57
58
58
60
61
62
62
62
62
62
62
60
61
60
60
58
57
57
56
55
54
54
53
51
50
49
49
46
45
44
43
41
39
39
37
36
34
35
33
31
29
27
26
24
23
22
22
21
21
21
20
20
19
17
17
16
15
14
13
13
12
11
11
12
12
10
9
9
9
9
9
8
8
8
7
7
6
5
5
5
5
5
4
4
4
5
4
4
4
4
5
4
4
4
4
3
3
3
2
2
2
2
1
0
1
1
1
0
0
0
0
0
0
0
0
0
0
0
0
0
-1
-1
0
-1
0
0
0
-1
-2
-2
-2
-2
-2
-2
-2
-3
-3
-3
-3
-3
-4
-5
-5
-5
-4
-4
-5
-5
-4
-5
-5
-6
-6
-7
-7
-6
-5
-6
-7
-6
-5
-5
-6
-6
-5
-4
-5
-6
-6
-6
-7
-8
-9
-9
-9
-10
-11
-11
-12
-12
-12
-11
-11
-11
-12
-11
-10
-10
-10
-10
-9
-10
-10
-10
-10
-9
-9
-8
-8
-8
-9
-9
-8
-8
-9
-9
-9
-8
-8
-8
-7
-7
-7
-7
-7
-7
-7
-6
-5
-5
-6
-6
-5
-4
-5
-5
-5
-6
-6
-6
-6
-5
-5
-6
-6
-5
-6
-6
-6
-5
-5
-5
-5
-5
-6
-6
-6
-5
-5
-6
-6
-6
-6
-6
-7
-7
-7
-7
-7
-8
-7
-7
-7
-7
-7
-6
-7
-7
-7
-7
-6
-7
-5
-4
-4
-5
-4
-4
-5
-5
-5
-4
-4
-5
-5
-4
-4
-3
-3
-4
-2
-1
0
0
-1
0
0
4
7
10
12
12
11
11
11
11
12
11
9
7
4
0
-5
-8
-9
-9
-10
-11
-11
-11
-11
-12
-12
-12
-14
-18
-20
-18
-10
2
22
48
78
106
126
134
122
104
78
53
28
6
-8
-16
-22
-24
-24
-20
-16
-11
-9
-8
-8
-8
-8
-8
-7
-7
-7
-7
-6
-6
-6
-7
-7
-6
-5
-5
-4
-4
-4
-4
-3
-2
-2
-2
-1
-1
-1
0
0
1
1
1
1
1
1
1
2
3
4
5
6
6
7
8
8
9
11
12
12
12
13
13
13
14
15
15
16
16
16
16
16
16
17
17
16
17
17
17
17
16
17
17
17
17
17
17
17
17
17
18
18
19
19
20
20
20
21
23
24
25
26
28
29
29
31
33
35
37
38
40
41
43
43
45
46
48
49
49
51
51
51
50
50
50
50
51
49
49
47
46
46
45
46
44
44
42
41
39
39
38
37
36
34
33
32
32
30
29
28
26
25
23
22
20
19
17
17
16
14
14
13
13
11
10
10
9
9
9
8
8
7
6
5
5
5
4
4
4
3
2
2
2
2
1
1
0
0
0
0
0
0
0
-1
-1
-1
-1
-2
-2
-2
-2
0
-1
-2
-3
-3
-3
-3
-2
-2
-2
-2
-2
-3
-3
-3
-2
-3
-3
-3
-2
-3
-3
-3
-2
-2
-2
-2
-2
-2
-2
-2
-1
-1
-2
-2
-1
-1
-1
-2
-2
-2
-2
-2
-1
-1
-1
-1
-1
-1
-1
-1
-2
-1
-1
-1
-2
-2
-1
0
-1
-1
-1
-1
-1
-2
-2
-1
-1
-2
-2
-2
-2
-2
-1
-1
-1
-1
-1
0
0
-1
0
0
0
-1
-1
-1
-2
-3
-3
-4
-3
-3
-4
-4
-3
-3
-3
-2
-1
-1
-1
0
0
0
0
0
1
1
0
1
1
1
1
1
2
2
2
3
3
3
3
3
3
4
5
5
4
4
4
3
3
4
4
5
5
5
5
5
4
4
5
5
4
4
4
4
4
5
6
6
5
5
5
5
5
5
7
7
6
6
6
7
7
7
7
7
8
8
8
8
8
8
8
8
8
8
8
8
8
8
8
8
8
8
8
8
8
7
7
7
7
7
7
7
7
7
7
7
7
8
9
10
11
12
12
13
14
14
14
16
19
22
24
25
26
27
26
26
25
25
24
22
21
17
13
9
6
5
4
4
3
3
3
3
3
4
2
0
-3
-5
-2
4
18
39
65
95
127
153
163
156
137
117
91
67
42
22
10
4
0
0
1
5
9
10
10
10
9
8
8
8
8
8
8
9
10
9
10
10
10
10
11
13
12
12
12
12
13
13
12
13
14
14
14
14
14
14
14
14
15
15
14
14
15
16
16
16
17
18
19
19
20
21
21
21
21
22
22
22
22
22
22
22
22
23
23
23
23
22
23
22
22
22
23
24
23
23
23
22
21
21
22
22
23
23
24
24
24
24
25
26
25
26
27
28
29
29
31
32
34
34
36
38
39
40
42
44
45
46
45
47
47
49
50
51
52
52
53
53
54
54
54
54
55
54
53
54
53
53
52
52
52
50
49
47
47
46
44
42
41
40
39
38
37
36
33
32
31
31
30
29
28
28
27
25
24
23
22
21
19
18
17
16
14
14
14
13
11
10
9
9
8
8
7
7
6
5
4
3
3
2
2
2
1
0
0
0
0
0
0
0
-1
-2
-2
-2
-3
-3
-4
-3
-4
-5
-5
-4
-5
-5
-6
-5
-5
-5
-5
-5
-5
-6
-7
-7
-7
-6
-7
-8
-8
-8
-8
-8
-8
-8
-8
-8
-9
-9
-9
-10
-9
-10
-10
-10
-10
-10
-10
-11
-11
-11
-11
-12
-12
-12
-11
-11
-11
-12
-12
-12
-13
-13
-13
-13
-14
-14
-13
-13
-13
-13
-13
-13
-13
-13
-13
-12
-12
-13
-13
-12
-11
-11
-10
-10
-10
-9
-9
-9
-9
-10
-10
-10
-11
-11
-12
-13
-13
-13
-13
-13
-12
-11
-12
-12
-11
-10
-10
-10
-9
-8
-8
-8
-7
-7
-7
-7
-6
-5
-5
-5
-4
-4
-3
-3
-3
-2
-2
-2
-2
-1
-1
-1
-1
0
0
-1
-1
0
0
0
-1
0
0
0
-1
-1
-1
-1
-1
-1
-1
0
0
-1
-1
-1
-2
-2
-2
-1
-1
-1
-1
-2
-2
-3
-2
-2
-3
-4
-3
-2
-2
-3
-3
-3
-3
-3
-3
-3
-2
-2
-3
-4
-3
-4
-4
-4
-4
-4
-4
-4
-3
-3
-4
-4
-4
-4
-5
-6
-5
-4
-3
-2
-2
-1
0
-1
-1
0
3
7
11
14
14
13
12
12
12
11
11
9
7
3
-1
-4
-7
-8
-10
-11
-12
-12
-12
-13
-13
-13
-15
-18
-21
-24
-23
-17
-3
19
47
78
108
132
142
137
119
96
68
40
13
-5
-17
-23
-27
-27
-26
-21
-17
-14
-12
-13
-14
-14
-14
-14
-14
-14
-14
-15
-15
-14
-14
-14
-14
-13
-14
-13
-14
-14
-13
-12
-11
-12
-12
-12
-12
-12
-12
-11
-10
-10
-11
-10
-9
-10
-10
-9
-8
-7
-7
-6
-5
-4
-4
-3
-1
-1
-2
-2
-2
-2
-2
-2
-1
-1
0
0
0
0
0
0
0
0
0
0
0
0
0
0
0
0
0
0
0
1
1
2
2
2
2
3
3
3
3
4
4
4
5
6
7
7
9
10
12
13
14
15
17
19
20
21
22
23
24
26
28
29
29
30
31
31
32
32
33
33
33
32
32
32
32
32
31
31
30
29
28
27
26
24
23
22
21
19
18
18
16
14
12
11
11
9
8
6
4
2
0
0
-1
-2
-3
-4
-4
-6
-8
-9
-9
-11
-12
-13
-14
-14
-16
-16
-17
-16
-18
-18
-18
-18
-19
-20
-19
-20
-20
-21
-21
-21
-22
-22
-23
-22
-22
-22
-23
-24
-24
-24
-25
-25
-24
-24
-25
-26
-26
-26
-26
-25
-25
-24
-24
-24
-25
-25
-25
-25
-24
-24
-24
-24
-24
-24
-25
-24
-24
-24
-24
-23
-22
-22
-22
-23
-23
-23
-21
-21
-22
-21
-22
-21
-22
-21
-20
-20
-20
-21
-20
-21
-21
-21
-20
-21
-21
-21
-21
-20
-21
-20
-20
-20
-20
-20
-20
-21
-21
-21
-21
-20
-19
-19
-19
-19
-19
-19
-20
-19
-18
-19
-20
-20
-19
-20
-20
-21
-20
-20
-21
-22
-22
-22
-24
-25
-25
-25
-25
-25
-25
-25
-24
-24
-24
-23
-23
-23
-24
-23
-22
-21
-22
-22
-22
-22
-21
-21
-20
-20
-20
-19
-19
-19
-19
-18
-18
-17
-18
-17
-16
-15
-14
-14
-12
-11
-10
-11
-11
-9
-6
-2
1
5
6
7
8
9
9
8
8
8
7
4
0
-3
-6
-9
-11
-12
-13
-13
-13
-13
-12
-12
-12
-12
-13
-16
-19
-18
-12
-1
16
39
69
98
126
140
135
121
97
74
47
22
1
-11
-18
-22
-22
-19
-14
-8
-3
-1
-2
-1
-1
0
0
0
0
0
0
0
0
1
0
0
1
1
0
0
1
2
2
2
2
2
2
2
2
2
2
2
1
2
2
1
2
2
3
3
3
3
3
3
3
4
5
5
5
5
6
6
7
8
8
8
8
8
9
9
8
9
10
10
9
9
9
9
9
9
9
10
10
10
10
10
10
10
10
11
11
11
12
13
14
14
15
16
17
18
18
20
21
22
23
25
27
29
30
31
33
34
35
37
39
41
43
44
46
48
48
50
53
54
55
55
56
55
55
55
56
57
56
56
54
54
53
52
52
51
51
49
49
47
46
44
43
43
43
42
39
38
36
35
35
33
32
29
28
26
26
25
23
22
21
20
19
18
18
16
15
14
14
14
13
12
12
12
12
10
9
10
10
9
9
8
8
8
8
8
8
7
7
6
6
6
6
6
5
5
4
5
5
5
4
4
5
5
4
4
4
4
3
4
4
4
4
3
3
3
3
2
3
3
3
3
3
2
1
1
1
2
2
1
1
1
2
1
1
2
3
2
2
2
2
2
2
3
3
3
3
3
3
3
3
4
4
4
4
3
3
3
2
3
5
5
4
5
5
4
3
4
5
6
6
6
6
7
7
8
9
9
9
8
8
8
7
6
7
6
6
6
5
5
4
4
4
5
5
5
5
5
6
6
6
7
7
7
7
6
7
8
8
8
8
8
8
8
8
9
9
9
9
9
9
10
11
11
10
10
11
12
12
11
11
11
11
11
11
12
13
13
12
12
11
11
12
13
13
13
13
13
13
13
13
14
15
14
14
14
15
15
16
19
20
21
21
21
22
22
24
27
31
33
35
36
37
37
37
36
35
35
34
33
29
26
22
19
16
15
14
13
13
14
14
13
13
13
12
9
4
4
10
21
38
63
94
127
158
177
179
166
145
120
95
68
42
24
13
9
7
6
9
13
16
16
14
13
12
11
11
12
13
13
11
11
11
11
11
12
12
12
12
12
13
13
12
13
13
14
14
14
14
15
15
14
15
16
16
16
16
17
17
17
18
19
19
20
20
20
21
22
22
24
25
24
24
25
26
26
26
26
27
28
28
28
28
28
28
29
30
31
31
31
30
30
30
31
30
31
31
31
31
32
32
31
30
31
32
31
31
31
33
34
33
33
34
36
36
39
40
42
44
45
48
51
54
55
58
59
60
62
63
65
66
67
68
68
68
67
67
68
70
69
68
67
66
66
65
65
64
64
62
62
61
60
60
58
59
58
56
55
54
53
51
51
49
49
47
45
43
41
39
36
35
34
33
32
30
30
27
25
24
23
23
22
21
20
18
17
15
15
15
14
14
13
13
14
12
11
11
11
11
10
10
10
10
8
8
8
7
7
7
6
6
5
5
5
5
4
3
3
3
2
1
1
1
2
1
1
1
1
0
-1
0
0
0
-1
-1
-1
-1
-1
-1
-1
-1
-1
-1
-1
-2
-2
-2
-1
-1
-2
-1
-1
-1
-1
-1
-1
0
0
0
0
0
0
0
1
2
3
2
1
1
1
1
1
1
1
1
1
1
1
2
2
1
1
3
3
2
2
2
2
2
3
4
4
4
3
3
1
0
0
0
-1
-2
-3
-3
-4
-5
-6
-5
-5
-4
-4
-5
-6
-6
-6
-5
-5
-4
-4
-3
-4
-4
-5
-4
-4
-5
-5
-5
-5
-4
-5
-5
-5
-4
-5
-5
-5
-5
-6
-6
-6
-6
-5
-6
-5
-5
-5
-6
-6
-5
-4
-5
-5
-5
-5
-5
-7
-7
-6
-6
-5
-5
-5
-4
-4
-2
-1
-1
-1
0
2
6
8
11
14
15
16
15
15
15
14
13
12
10
6
2
-1
-5
-7
-9
-9
-10
-10
-10
-10
-10
-10
-10
-12
-14
-17
-17
-14
-4
15
42
71
102
129
150
152
139
116
88
62
33
9
-8
-19
-26
-28
-27
-22
-16
-10
-7
-6
-7
-8
-8
-8
-8
-9
-8
-7
-8
-8
-7
-7
-8
-8
-8
-6
-6
-6
-5
-5
-6
-6
-5
-5
-5
-6
-6
-7
-7
-7
-6
-5
-5
-4
-4
-5
-4
-4
-4
-3
-1
-1
-1
-2
-1
-1
-1
-1
0
1
1
1
2
2
2
1
1
1
2
1
1
2
2
2
2
3
3
3
3
3
3
2
1
1
1
1
0
1
1
1
1
2
3
2
3
4
5
5
6
8
10
12
14
15
18
21
23
25
28
32
34
37
38
40
40
42
43
45
47
46
46
44
45
45
45
47
48
48
46
46
45
44
44
45
45
44
43
41
41
39
38
37
37
36
35
34
32
31
29
28
26
25
23
21
20
18
16
15
14
12
11
10
10
9
8
7
6
5
4
3
3
2
1
1
0
0
0
0
0
-1
-1
-1
-2
-1
-1
-2
-2
-3
-4
-4
-4
-4
-4
-3
-5
-5
-5
-5
-5
-6
-5
-5
-5
-6
-6
-6
-7
-7
-8
-7
-6
-7
-7
-7
-7
-7
-8
-7
-6
-7
-7
-7
-6
-7
-7
-7
-6
-6
-6
-7
-7
-7
-8
-8
-7
-7
-7
-7
-7
-6
-7
-7
-6
-5
-5
-5
-4
-4
-4
-5
-5
-4
-4
-4
-4
-3
-3
-3
-3
-2
-2
-2
-3
-2
-2
-3
-3
-1
0
0
0
0
0
0
-1
0
0
0
0
0
0
0
0
0
0
-1
-2
-3
-4
-4
-5
-6
-5
-4
-4
-5
-4
-3
-4
-4
-4
-3
-3
-3
-3
-3
-3
-4
-4
-3
-2
-2
-2
-3
-3
-3
-3
-3
-3
-3
-3
-3
-4
-4
-3
-3
-3
-2
-2
-2
-2
-2
-2
-3
-2
-2
-2
-3
-2
-2
-1
-1
-1
0
0
0
1
2
3
4
5
5
6
6
7
8
12
16
18
20
22
21
21
21
21
20
19
18
17
13
8
4
3
2
1
0
0
0
0
0
-1
-1
-1
-3
-7
-9
-7
0
15
36
65
96
129
157
169
167
148
123
94
67
41
20
7
-1
-6
-8
-6
-3
0
3
3
3
1
0
0
0
0
0
0
1
1
0
0
0
0
0
0
0
0
0
0
0
0
0
0
0
0
0
0
0
1
1
1
2
3
3
3
3
4
4
4
4
5
6
7
7
7
9
9
9
9
10
10
10
10
10
10
11
12
12
14
13
14
14
14
14
13
14
13
13
13
13
14
13
13
12
13
13
12
12
13
13
12
12
13
14
15
15
15
17
18
19
20
22
24
25
27
28
30
31
33
35
36
38
39
40
41
41
42
43
46
46
47
46
46
47
47
48
48
49
48
48
48
48
47
47
49
48
48
47
47
45
44
44
43
43
41
41
39
38
36
34
32
30
30
27
26
25
24
23
21
21
20
19
18
17
17
17
16
15
15
14
14
13
12
11
10
10
10
10
9
8
8
7
7
7
7
7
6
5
5
4
4
4
4
4
3
2
2
1
2
1
1
1
1
1
0
0
0
0
0
0
0
0
0
0
0
0
0
0
0
0
0
1
1
0
-1
-1
-1
-1
-1
-1
-1
-1
-1
-2
-1
-1
-2
-2
-2
-1
-1
-1
-1
-1
-1
-1
-1
-2
-2
-1
-1
-1
-1
-2
-2
-1
-1
-1
-2
-1
0
0
0
0
0
0
0
0
1
1
1
0
0
0
0
1
0
1
1
1
1
1
0
0
0
0
-1
-1
-3
-3
-4
-4
-4
-4
-4
-4
-3
-3
-2
-2
-2
-1
0
0
0
0
0
0
0
0
0
1
1
1
1
2
2
1
1
2
2
3
3
4
4
4
4
4
5
5
5
5
4
3
3
4
5
4
4
5
5
5
5
5
5
5
5
5
6
6
6
5
5
5
4
4
4
4
3
3
3
4
3
3
3
3
3
2
3
3
3
3
2
3
2
1
1
1
2
2
2
2
2
1
1
1
1
2
2
2
2
1
1
0
1
1
1
0
0
1
1
1
1
1
1
3
3
4
5
4
5
6
7
9
13
17
19
19
20
20
20
20
19
19
18
17
13
9
5
1
-1
-2
-2
-3
-4
-5
-5
-5
-6
-7
-7
-9
-13
-15
-11
-2
14
38
65
97
129
150
159
147
128
102
75
47
21
2
-8
-12
-13
-13
-11
-6
-2
0
0
-1
0
-1
-1
-2
-2
-1
-1
0
0
0
0
0
0
1
0
0
0
1
1
1
2
3
3
2
3
4
4
4
3
4
5
5
5
6
7
7
7
8
8
8
8
9
9
9
9
10
11
10
10
10
11
11
11
11
10
10
8
8
9
10
9
8
8
8
8
7
8
8
8
7
7
7
7
6
5
6
6
6
6
7
7
7
7
9
11
11
12
12
13
14
15
16
18
19
20
21
23
24
26
26
29
31
33
34
37
40
40
41
42
44
44
45
45
45
46
45
46
46
46
46
45
45
44
44
42
41
41
41
41
41
40
38
37
35
36
35
33
32
30
29
27
26
24
23
21
19
17
15
13
11
10
9
7
6
5
4
3
1
0
0
-1
-1
-2
-2
-2
-3
-5
-6
-5
-6
-6
-7
-7
-7
-7
-8
-8
-7
-7
-8
-8
-8
-8
-9
-9
-9
-9
-9
-9
-10
-11
-11
-11
-11
-10
-12
-12
-12
-12
-13
-13
-12
-12
-12
-13
-12
-12
-12
-13
-14
-13
-14
-14
-14
-14
-14
-14
-15
-15
-14
-14
-14
-13
-12
-12
-13
-13
-13
-13
-12
-12
-11
-11
-11
-11
-11
-11
-10
-10
-10
-10
-10
-10
-10
-10
-10
-9
-10
-10
-9
-9
-9
-8
-7
-8
-6
-5
-4
-5
-5
-4
-2
-2
-2
-2
-1
-1
-2
-1
0
0
-1
-1
-1
-2
-3
-4
-4
-4
-4
-5
-4
-4
-3
-3
-2
-2
-2
-1
-1
0
0
0
0
0
2
2
2
2
3
3
2
3
4
4
4
5
5
6
5
5
6
7
7
6
6
7
7
6
6
6
7
6
7
8
8
8
8
9
9
9
9
10
10
11
11
12
12
12
11
11
11
11
11
12
14
15
16
17
18
19
19
19
21
23
27
30
33
34
35
34
35
35
35
35
34
33
30
27
22
19
17
15
14
13
13
13
12
12
13
13
12
11
7
4
4
9
21
40
67
95
126
152
168
170
157
137
110
85
60
37
21
11
7
5
6
9
14
17
19
19
18
17
17
17
17
17
17
18
18
17
18
18
19
18
19
19
19
19
20
20
20
19
20
21
21
20
21
21
22
21
22
22
23
22
22
22
24
25
26
26
26
27
28
27
28
28
29
29
30
31
31
31
31
33
33
33
33
33
33
33
33
33
34
34
34
34
35
35
34
34
35
36
35
35
34
34
35
34
36
35
35
35
36
36
36
36
37
38
38
39
41
42
42
43
45
47
50
50
51
53
55
56
57
58
60
61
61
63
63
63
63
63
65
65
65
65
64
64
64
65
64
65
64
64
63
62
62
60
61
60
59
58
57
55
54
53
51
50
48
47
45
43
42
39
38
36
36
34
32
31
29
28
27
26
25
25
23
23
23
22
21
20
20
19
19
18
17
16
16
15
15
15
15
13
13
12
11
10
10
11
11
10
9
9
9
8
7
7
8
7
6
6
6
5
5
4
4
4
2
2
2
3
1
1
1
1
0
-1
0
-1
-1
-2
-2
-1
-1
-2
-3
-2
-2
-2
-2
-2
-1
-2
-2
-2
-2
-3
-3
-3
-2
-2
-2
-2
-3
-3
-4
-5
-5
-5
-6
-6
-6
-6
-6
-7
-7
-6
-6
-6
-6
-7
-7
-7
-7
-7
-7
-7
-7
-7
-8
-9
-8
-8
-8
-7
-7
-7
-7
-8
-8
-8
-8
-9
-9
-10
-10
-11
-13
-13
-14
-14
-15
-14
-15
-15
-15
-15
-14
-13
-13
-13
-13
-13
-13
-13
-13
-12
-12
-13
-13
-13
-13
-13
-13
-13
-12
-12
-12
-12
-12
-12
-12
-11
-11
-11
-11
-11
-10
-11
-11
-11
-10
-10
-10
-10
-10
-10
-10
-10
-10
-9
-10
-10
-10
-9
-10
-11
-10
-10
-9
-9
-9
-9
-10
-10
-10
-10
-9
-10
-10
-9
-10
-11
-11
-11
-10
-11
-11
-11
-11
-11
-12
-11
-10
-11
-11
-11
-10
-11
-11
-11
-10
-9
-9
-9
-9
-9
-9
-10
-10
-8
-8
-8
-9
-9
-9
-9
-9
-9
-8
-9
-9
-9
-9
-10
-10
-8
-7
-5
-4
-3
-3
-3
-4
-3
-1
1
5
8
11
12
11
11
12
12
11
11
10
8
4
0
-3
-7
-9
-11
-12
-13
-13
-12
-12
-12
-13
-13
-16
-20
-24
-25
-17
-2
19
47
79
112
141
150
145
123
99
71
42
17
-2
-14
-20
-22
-20
-18
-12
-7
-6
-7
-8
-9
-8
-7
-7
-8
-8
-9
-9
-9
-8
-7
-8
-9
-9
-8
-8
-7
-7
-6
-6
-7
-6
-6
-6
-7
-6
-5
-5
-5
-4
-3
-3
-2
-2
0
0
-1
0
0
1
1
2
3
5
4
4
5
5
6
6
7
8
8
8
8
8
8
7
7
8
9
9
9
9
9
8
7
7
7
7
7
6
5
5
5
5
5
5
5
5
6
6
5
7
8
10
10
11
12
14
15
16
18
20
21
23
24
26
27
29
29
31
32
33
34
34
35
36
38
39
41
42
43
44
44
45
44
46
46
47
47
46
46
45
45
44
45
44
43
42
40
39
37
37
35
35
32
30
28
26
24
22
23
22
20
18
16
15
14
12
11
11
9
7
5
5
4
2
1
1
1
0
-1
-2
-3
-5
-6
-7
-6
-6
-7
-8
-8
-10
-11
-11
-11
-11
-13
-13
-13
-14
-14
-15
-15
-16
-15
-17
-17
-17
-18
-18
-19
-19
-19
-19
-19
-20
-20
-20
-20
-20
-19
-20
-20
-20
-21
-21
-22
-22
-22
-22
-22
-22
-22
-22
-22
-22
-22
-23
-23
-22
-22
-22
-22
-23
-23
-22
-22
-22
-23
-22
-22
-22
-22
-22
-21
-20
-20
-20
-19
-19
-19
-19
-19
-18
-18
-17
-17
-18
-17
-17
-16
-16
-15
-15
-15
-14
-15
-15
-15
-13
-13
-13
-13
-12
-12
-13
-12
-12
-11
-11
-11
-12
-12
-12
-13
-13
-14
-14
-14
-15
-14
-13
-13
-12
-11
-11
-12
-12
-11
-11
-11
-11
-11
-10
-10
-9
-9
-9
-9
-9
-9
-8
-7
-6
-6
-6
-6
-6
-6
-5
-4
-3
-3
-3
-3
-3
-4
-4
-3
-3
-3
-3
-3
-3
-3
-3
-2
-1
-1
-2
-2
-1
-1
-1
0
0
1
1
1
1
1
1
1
1
1
1
1
1
1
1
1
2
3
4
6
7
9
9
8
9
10
11
13
17
21
24
26
27
27
28
28
28
27
26
24
22
18
15
12
10
7
6
5
4
3
4
6
5
4
4
3
0
-3
-3
2
15
34
63
96
133
161
178
179
163
141
111
82
52
28
12
3
0
0
0
3
9
13
13
12
12
12
12
11
11
11
11
11
11
12
14
14
15
15
15
15
15
16
17
18
19
19
19
20
19
20
22
22
22
22
24
24
24
24
25
27
27
27
28
28
28
29
31
31
32
32
33
34
34
34
35
37
38
38
38
39
40
40
40
41
41
41
41
40
42
42
41
42
42
44
43
44
43
43
41
41
41
42
42
42
42
42
42
41
41
43
43
44
44
45
46
48
49
50
52
54
56
57
58
60
61
63
64
67
67
69
70
71
71
72
74
74
74
73
73
73
73
74
73
75
74
74
72
72
72
71
72
70
70
68
68
66
65
65
63
62
59
58
56
54
53
52
50
48
48
45
45
43
41
39
36
34
33
33
31
30
28
28
27
27
26
27
27
27
27
27
27
26
25
26
26
26
25
25
24
24
23
22
23
23
22
22
21
21
20
20
20
20
20
19
18
19
19
18
18
18
18
17
16
17
16
16
15
15
15
14
14
14
14
13
12
12
12
12
12
12
12
12
11
11
11
11
10
10
9
9
9
9
10
10
9
9
9
8
7
7
7
8
8
7
7
7
7
6
6
7
6
5
5
5
5
5
4
4
4
5
4
3
3
3
2
1
2
2
1
0
0
0
-1
-1
-1
-1
-2
-2
-2
-3
-4
-6
-6
-7
-7
-8
-9
-9
-9
-9
-9
-8
-7
-8
-8
-8
-7
-8
-7
-7
-6
-5
-6
-6
-6
-6
-6
-5
-4
-4
-3
-3
-3
-3
-2
-2
-2
-1
-1
-1
-1
-1
-1
-1
0
0
0
0
0
0
0
0
0
0
0
0
0
0
0
0
0
1
2
2
2
2
2
2
1
2
3
3
3
3
3
3
2
3
3
4
3
3
3
3
3
2
3
4
3
2
1
2
2
2
2
3
3
3
3
3
2
2
2
2
3
3
3
3
3
3
2
2
3
3
3
2
2
2
1
1
2
2
1
1
0
1
0
0
2
4
5
5
6
6
6
6
6
9
13
17
19
22
22
21
21
21
21
20
19
17
14
8
3
0
-1
-2
-3
-4
-4
-5
-5
-5
-4
-4
-6
-10
-14
-16
-14
-4
12
38
68
103
140
168
179
171
148
122
92
62
35
15
4
-2
-5
-5
-2
2
6
8
7
6
4
5
5
5
4
4
5
6
6
6
6
6
6
6
7
7
7
7
8
8
9
8
8
8
9
8
9
10
10
11
12
12
12
12
13
14
15
15
15
16
17
18
19
19
20
20
20
21
22
22
23
23
24
24
24
24
24
24
25
25
26
25
24
24
24
24
24
24
24
24
24
23
23
24
25
25
26
27
26
26
26
27
26
25
25
26
27
28
30
31
32
33
34
35
37
40
41
43
43
45
45
48
49
51
53
54
56
56
57
57
59
59
59
59
60
60
59
59
59
60
60
59
59
58
58
56
55
54
53
52
50
49
47
45
42
41
39
37
35
33
31
28
26
24
23
21
19
17
15
13
11
9
7
6
5
3
2
2
0
0
-1
-1
-2
-4
-5
-6
-7
-8
-8
-8
-9
-10
-11
-10
-10
-12
-13
-12
-13
-13
-13
-14
-14
-15
-15
-15
-15
-15
-15
-15
-16
-16
-17
-17
-17
-18
-19
-19
-19
-19
-20
-21
-21
-20
-20
-21
-22
-22
-22
-22
-22
-21
-21
-22
-22
-22
-23
-25
-25
-25
-25
-26
-25
-24
-26
-26
-27
-26
-26
-26
-27
-27
-26
-27
-27
-28
-27
-26
-26
-26
-26
-26
-28
-28
-27
-27
-27
-26
-25
-25
-25
-25
-24
-24
-24
-24
-24
-25
-26
-27
-27
-27
-26
-25
-25
-25
-26
-27
-27
-28
-28
-29
-30
-30
-30
-32
-34
-33
-33
-34
-35
-36
-36
-37
-37
-37
-36
-36
-36
-36
-35
-35
-37
-36
-36
-35
-36
-37
-37
-37
-37
-38
-37
-36
-35
-36
-37
-36
-37
-37
-38
-37
-37
-38
-38
-39
-37
-38
-38
-38
-38
-39
-39
-39
-41
-41
-42
-41
-41
-41
-42
-43
-42
-42
-42
-42
-42
-42
-42
-43
-43
-42
-43
-42
-42
-40
-39
-38
-36
-35
-35
-35
-33
-32
-32
-31
-29
-25
-21
-17
-15
-14
-13
-13
-14
-14
-15
-16
-18
-20
-24
-28
-33
-35
-36
-37
-39
-38
-38
-37
-38
-38
-38
-39
-42
-45
-45
-42
-35
-20
3
34
68
98
121
123
110
87
60
35
7
-19
-38
-51
-57
-60
-59
-54
-47
-39
-36
-35
-35
-35
-36
-36
-35
-35
-35
-35
-34
-34
-34
-35
-35
-34
-35
-34
-34
-34
-33
-33
-32
-32
-32
-33
-32
-31
-31
-31
-32
-30
-30
-29
-28
-27
-26
-26
-26
-25
-24
-24
-24
-22
-21
-20
-19
-19
-19
-18
-18
-16
-15
-15
-15
-15
-15
-15
-14
-13
-12
-12
-12
-12
-12
-11
-12
-12
-12
-12
-12
-13
-13
-12
-13
-14
-14
-12
-12
-11
-12
-11
-11
-11
-10
-9
-8
-8
-8
-8
-6
-5
-4
-3
-1
0
0
2
4
7
8
10
13
16
19
22
22
23
24
26
28
29
30
30
32
31
31
30
30
31
30
30
29
29
28
28
28
27
27
25
23
22
21
20
19
18
17
16
16
16
15
14
12
10
9
8
7
5
4
3
1
0
0
-1
-1
-2
-3
-4
-5
-6
-8
-8
-9
-10
-10
-11
-12
-13
-13
-13
-12
-14
-14
-15
-15
-15
-16
-16
-16
-16
-17
-17
-17
-16
-17
-16
-16
-16
-16
-17
-17
-18
-18
-19
-19
-18
-18
-18
-19
-19
-19
-19
-19
-19
-19
-19
-19
-19
-18
-19
-19
-18
-19
-19
-19
-18
-19
-19
-19
-19
-18
-19
-19
-19
-18
-18
-19
-20
-20
-20
-21
-21
-21
-21
-21
-21
-21
-20
-20
-20
-20
-20
-20
-21
-21
-22
-22
-23
-23
-23
-23
-23
-24
-23
-23
-23
-22
-22
-22
-22
-21
-21
-21
-20
-21
-21
-21
-20
-21
-21
-20
-20
-20
-21
-20
-21
-21
-21
-21
-21
-22
-22
-22
-21
-22
-22
-20
-19
-19
-19
-18
-17
-17
-18
-18
-16
-16
-17
-18
-17
-17
-17
-18
-17
-16
-17
-17
-17
-17
-17
-17
-17
-16
-16
-17
-18
-18
-18
-18
-18
-18
-17
-17
-17
-16
-15
-15
-15
-15
-15
-15
-14
-14
-12
-12
-11
-11
-10
-10
-11
-11
-11
-10
-10
-11
-10
-10
-10
-11
-11
-10
-9
-10
-9
-8
-8
-10
-11
-10
-9
-10
-10
-10
-9
-9
-9
-10
-10
-10
-11
-10
-9
-9
-10
-10
-10
-11
-10
-8
-6
-5
-5
-4
-4
-4
-5
-3
0
3
7
10
11
12
12
13
12
12
11
9
8
6
2
-3
-8
-10
-12
-13
-15
-15
-15
-16
-17
-18
-18
-19
-23
-28
-30
-29
-23
-8
14
44
78
113
145
159
155
136
109
80
47
21
0
-11
-18
-21
-20
-17
-13
-9
-8
-8
-9
-10
-10
-9
-9
-10
-10
-10
-10
-10
-10
-9
-9
-10
-10
-10
-10
-10
-10
-9
-8
-8
-8
-7
-6
-6
-5
-5
-3
-2
-2
-2
-1
0
0
0
2
3
4
4
5
6
7
7
8
9
10
11
11
11
12
12
11
12
12
13
13
13
13
12
13
13
14
13
12
11
12
12
12
12
12
13
12
11
11
11
11
11
12
13
13
13
12
12
13
14
15
16
17
18
18
19
21
23
24
25
28
30
31
32
34
36
36
38
40
42
42
44
46
47
48
47
49
49
50
50
52
52
51
50
49
50
49
49
47
47
46
45
44
43
42
41
39
37
36
35
33
32
30
30
28
27
26
25
24
22
21
20
18
16
15
14
12
11
10
10
9
7
6
5
5
3
3
3
2
1
0
1
0
-1
-3
-3
-2
-2
-2
-2
-2
-3
-4
-4
-4
-3
-5
-5
-6
-6
-6
-6
-7
-7
-7
-8
-9
-9
-10
-11
-11
-10
-10
-11
-12
-11
-11
-12
-13
-12
-11
-12
-12
-13
-12
-12
-12
-12
-12
-12
-13
-13
-13
-13
-13
-13
-13
-12
-12
-12
-12
-11
-12
-12
-11
-10
-9
-10
-11
-10
-10
-10
-11
-11
-10
-10
-9
-10
-10
-10
-10
-11
-11
-11
-12
-11
-11
-12
-11
-11
-10
-11
-10
-11
-11
-12
-12
-12
-11
-9
-9
-9
-10
-10
-10
-11
-11
-12
-13
-14
-15
-15
-17
-17
-18
-18
-18
-18
-19
-20
-20
-20
-20
-20
-19
-18
-18
-18
-18
-17
-17
-17
-17
-15
-15
-15
-14
-14
-14
-14
-13
-13
-14
-15
-14
-14
-14
-14
-13
-12
-12
-12
-13
-12
-11
-11
-11
-10
-10
-10
-11
-11
-11
-10
-11
-11
-12
-12
-13
-12
-12
-12
-12
-13
-12
-12
-12
-12
-12
-12
-13
-12
-12
-12
-12
-12
-11
-11
-11
-11
-10
-9
-10
-10
-10
-9
-10
-11
-12
-12
-11
-11
-12
-11
-10
-11
-11
-11
-11
-11
-12
-12
-11
-11
-11
-11
-11
-11
-10
-8
-7
-6
-6
-6
-5
-5
-4
-1
1
5
8
10
12
13
12
11
11
10
8
5
3
0
-3
-8
-12
-13
-14
-15
-15
-14
-14
-15
-16
-18
-18
-19
-23
-26
-22
-14
2
25
53
81
108
128
136
125
103
78
52
28
2
-15
-26
-31
-34
-33
-29
-22
-17
-13
-12
-12
-12
-12
-12
-12
-12
-12
-11
-11
-11
-11
-11
-11
-10
-10
-10
-10
-9
-8
-9
-8
-8
-8
-8
-8
-7
-6
-6
-6
-6
-5
-5
-4
-4
-2
-2
-3
-3
-3
-2
-2
-1
0
0
0
0
1
1
1
1
1
2
2
2
3
3
3
4
5
6
5
5
6
7
7
7
7
7
7
7
8
8
9
9
9
10
10
10
9
9
9
10
11
12
13
13
14
14
15
15
17
19
21
23
24
25
27
29
30
32
35
37
39
40
43
45
47
48
50
50
49
49
49
49
48
49
48
49
47
46
45
45
45
43
43
42
41
39
37
37
35
33
32
32
32
30
29
28
27
25
24
24
22
21
19
18
16
14
13
12
11
10
9
8
9
8
7
5
5
5
3
3
3
3
2
1
1
1
1
0
0
0
-1
-2
-3
-3
-4
-4
-5
-6
-6
-7
-6
-7
-7
-8
-8
-8
-8
-10
-11
-10
-11
-11
-12
-12
-12
-12
-13
-14
-13
-13
-14
-14
-13
-13
-14
-14
-14
-13
-13
-13
-13
-14
-14
-14
-14
-13
-14
-15
-16
-16
-16
-15
-15
-15
-15
-15
-15
-15
-14
-15
-15
-13
-12
-13
-13
-14
-14
-15
-15
-14
-14
-13
-14
-14
-13
-13
-13
-13
-12
-12
-12
-12
-12
-12
-12
-12
-11
-11
-12
-12
-11
-11
-10
-10
-9
-9
-8
-8
-8
-7
-7
-8
-8
-8
-8
-9
-10
-10
-10
-10
-10
-9
-9
-8
-8
-7
-7
-6
-6
-6
-5
-4
-4
-5
-5
-4
-4
-3
-3
-2
-1
-2
-2
-2
-2
-1
-1
0
0
0
0
0
0
0
0
0
0
0
0
0
1
1
1
0
0
0
1
0
0
1
2
1
1
2
2
3
3
3
3
3
2
2
2
2
2
3
3
2
2
3
3
3
3
3
3
3
3
3
4
5
5
5
5
5
5
5
6
5
5
5
4
4
4
4
4
7
8
9
9
9
10
10
11
13
16
19
23
25
27
28
27
28
28
27
26
26
25
22
17
13
10
9
7
6
6
6
5
5
5
5
4
3
0
-4
-6
-3
5
21
46
76
109
139
158
163
153
133
109
84
58
36
19
9
4
2
3
5
9
13
15
14
13
13
12
13
12
13
13
13
14
13
14
15
15
15
16
17
17
17
17
18
18
19
19
19
19
19
19
20
20
20
20
21
22
21
20
21
22
24
24
26
26
26
26
27
28
29
30
30
30
31
32
32
32
33
34
34
33
33
33
33
33
33
34
34
34
34
34
33
32
34
34
33
32
31
31
31
32
31
31
30
30
29
30
30
30
30
31
32
33
33
34
35
37
38
40
40
42
43
45
46
48
49
50
52
53
55
56
57
57
57
58
58
60
60
61
60
61
61
60
59
59
60
59
59
58
58
57
56
56
56
56
54
52
51
49
49
47
46
45
44
41
39
38
36
35
33
32
31
29
28
26
25
24
24
24
24
24
23
23
23
23
22
22
22
22
21
20
20
19
19
18
17
17
17
17
16
16
15
14
14
14
14
13
12
13
13
13
12
12
12
11
11
11
12
11
11
11
12
11
10
9
9
9
9
8
9
9
9
9
9
10
9
8
8
8
8
7
7
7
7
6
6
7
7
6
6
7
6
6
6
6
7
6
5
5
6
5
4
4
4
4
3
2
1
1
0
0
0
0
0
0
0
0
0
0
0
0
0
0
1
1
0
0
0
0
1
0
1
0
0
0
0
0
0
-1
-2
-3
-4
-5
-7
-8
-7
-7
-8
-8
-8
-8
-7
-7
-7
-7
-7
-6
-6
-6
-6
-6
-5
-4
-3
-2
-2
-1
-1
-1
-1
-1
0
1
0
1
1
1
1
2
4
4
4
4
5
6
6
5
6
6
6
5
5
5
5
6
7
8
8
8
8
8
8
7
7
8
9
9
10
10
11
11
11
11
12
12
12
12
12
12
12
12
11
10
10
10
11
11
11
10
11
11
12
12
12
12
12
12
12
13
13
13
12
12
12
13
12
12
12
12
12
12
12
11
11
12
13
12
12
12
12
12
12
12
14
15
15
16
16
16
16
16
18
21
25
27
29
31
31
30
30
30
30
28
27
24
20
14
10
8
7
6
5
5
5
4
5
5
6
5
3
0
-3
-2
4
18
42
71
100
133
154
164
153
133
109
83
57
32
14
4
0
-1
0
3
7
12
15
15
14
13
13
13
13
12
12
13
13
13
13
13
14
14
13
13
13
13
13
13
13
14
14
14
13
13
14
14
14
15
15
15
15
16
17
18
19
19
19
20
22
22
22
22
22
24
25
25
25
26
25
25
25
27
28
27
27
28
29
28
28
29
30
30
28
29
29
30
29
29
29
29
29
29
29
28
26
26
28
28
28
28
28
29
29
28
28
30
32
33
35
37
40
41
43
46
48
48
49
51
51
52
53
54
56
57
60
60
61
61
61
62
62
63
62
62
62
61
60
59
59
59
59
57
57
56
55
54
54
54
52
51
48
47
44
43
42
40
39
37
36
33
32
30
29
27
27
25
24
23
20
18
17
16
15
14
13
12
12
11
10
9
9
10
9
8
7
7
7
6
6
6
6
6
5
5
5
4
4
5
5
4
4
4
4
4
4
4
5
4
4
4
4
4
3
4
4
4
3
3
3
2
1
1
2
2
3
3
2
2
1
1
2
2
1
2
3
3
3
2
3
4
5
5
5
6
7
7
7
8
9
9
9
9
10
9
9
9
10
10
10
11
11
10
10
10
11
11
10
10
11
11
10
9
10
11
11
10
11
11
10
10
11
12
12
12
12
13
13
13
13
13
14
12
12
11
11
10
10
9
9
9
8
7
7
7
7
7
9
9
9
9
10
10
9
9
10
10
10
9
9
9
9
8
9
10
10
9
9
9
9
9
10
10
11
11
11
11
11
11
12
13
14
14
13
13
13
12
13
14
16
15
15
17
18
19
20
21
22
22
23
26
30
33
36
39
40
41
40
41
41
41
39
38
37
32
28
23
20
18
18
18
18
18
18
17
17
19
18
16
13
11
12
19
33
55
82
110
141
168
183
179
160
139
112
85
56
35
23
16
14
13
15
19
24
27
28
29
27
26
26
26
26
26
28
28
29
28
28
28
28
27
28
29
29
29
29
30
30
30
30
30
31
30
31
31
32
32
31
32
33
35
34
35
35
35
36
36
38
38
38
37
39
40
40
40
40
41
41
41
41
42
42
41
41
41
42
41
42
43
44
43
43
43
43
43
42
42
42
41
41
42
44
43
43
43
43
44
43
44
44
45
45
46
46
48
49
50
52
54
56
56
58
60
61
63
65
67
68
70
70
73
73
74
76
77
78
77
78
78
79
79
78
77
76
77
76
76
76
75
74
73
73
73
73
71
71
70
70
68
67
67
66
65
63
63
61
60
58
57
57
54
53
51
49
48
46
45
43
42
41
40
39
37
38
36
36
35
34
32
32
32
30
30
29
29
28
27
26
26
26
24
25
25
25
24
23
24
23
23
22
21
20
21
21
20
20
18
18
17
18
18
18
17
18
17
16
16
16
16
16
15
15
15
14
14
15
15
14
14
14
15
15
14
13
14
14
13
13
13
12
12
12
12
11
11
10
10
10
10
9
10
9
9
9
9
9
8
8
8
8
8
7
6
7
7
7
7
7
8
8
8
8
8
8
7
7
8
8
8
8
9
9
9
9
10
10
10
10
10
9
8
7
7
7
7
6
6
6
6
5
5
5
6
6
6
7
7
8
7
8
9
9
9
10
10
10
10
10
11
11
11
11
11
11
11
11
12
13
12
13
14
14
14
14
14
15
15
16
16
16
16
16
16
16
16
16
16
16
16
17
17
17
18
18
18
18
17
17
16
17
17
18
17
17
17
17
16
16
16
16
15
16
16
16
15
15
15
15
16
15
16
16
16
16
16
17
17
16
17
17
17
17
17
18
18
20
20
21
22
21
22
22
24
25
29
33
36
37
38
39
38
39
38
37
36
34
31
27
23
19
16
14
13
13
12
11
10
11
11
10
9
6
1
-1
1
9
23
45
72
103
136
162
173
168
149
125
96
69
42
24
12
6
4
5
7
10
14
16
15
14
14
14
14
14
15
15
15
15
16
17
18
17
17
17
17
18
18
20
20
20
21
21
22
22
23
23
25
25
25
25
25
26
26
27
27
27
28
28
29
30
30
30
32
33
34
34
34
34
34
35
35
36
37
37
38
38
39
38
39
39
40
39
39
39
39
39
38
39
39
38
38
38
39
38
38
37
38
38
37
38
37
39
38
39
39
39
40
40
42
42
43
43
46
47
49
51
52
53
53
54
55
58
59
61
62
62
63
63
65
65
66
66
65
65
65
65
63
63
62
61
60
59
58
57
57
56
58
57
56
55
54
54
51
50
49
48
46
44
43
42
40
38
36
36
34
31
29
29
27
26
24
22
21
19
18
16
15
14
12
12
11
11
10
9
8
7
7
7
6
6
5
4
4
4
3
3
3
3
2
1
0
0
0
-1
-1
-1
-1
-2
-2
-2
-3
-4
-5
-5
-6
-6
-6
-7
-7
-8
-9
-9
-8
-8
-8
-8
-8
-8
-10
-10
-9
-9
-10
-10
-11
-12
-12
-13
-12
-12
-12
-12
-12
-12
-13
-13
-13
-12
-12
-13
-14
-14
-14
-15
-15
-16
-16
-17
-17
-17
-17
-16
-17
-17
-18
-18
-19
-18
-17
-18
-19
-19
-19
-20
-20
-19
-18
-18
-19
-19
-19
-18
-18
-18
-18
-18
-18
-19
-19
-19
-19
-19
-20
-20
-21
-22
-23
-23
-23
-24
-25
-25
-26
-27
-27
-27
-26
-26
-26
-26
-26
-26
-26
-26
-25
-25
-26
-27
-26
-26
-26
-26
-26
-26
-26
-27
-28
-27
-27
-27
-27
-27
-27
-27
-27
-28
-28
-28
-28
-28
-28
-29
-29
-28
-28
-29
-30
-29
-29
-29
-29
-29
-28
-29
-29
-30
-29
-28
-29
-29
-29
-30
-31
-30
-29
-29
-28
-28
-28
-29
-29
-30
-29
-28
-28
-28
-28
-28
-28
-27
-27
-27
-27
-27
-27
-27
-26
-25
-23
-23
-21
-21
-21
-21
-21
-19
-16
-14
-11
-8
-7
-7
-7
-7
-7
-8
-8
-9
-11
-14
-18
-21
-25
-27
-29
-29
-30
-30
-31
-31
-31
-32
-33
-34
-36
-39
-40
-36
-26
-9
14
41
68
92
105
103
86
63
36
12
-11
-28
-39
-47
-51
-50
-47
-42
-37
-32
-30
-30
-30
-31
-30
-31
-31
-30
-29
-29
-30
-29
-29
-29
-30
-28
-27
-27
-26
-26
-25
-25
-25
-25
-24
-23
-23
-22
-22
-21
-21
-21
-20
-19
-19
-18
-18
-17
-16
-16
-15
-14
-13
-12
-12
-12
-12
-11
-11
-10
-8
-8
-7
-7
-7
-7
-7
-6
-6
-5
-4
-4
-3
-4
-4
-5
-5
-4
-4
-4
-3
-4
-4
-5
-4
-4
-3
-4
-4
-3
-3
-3
-2
-1
-1
-1
0
1
2
2
4
5
7
8
9
10
12
14
16
19
22
24
25
27
29
31
33
33
35
35
36
37
38
37
37
36
36
36
36
37
36
36
36
35
34
35
36
35
35
35
34
33
32
32
31
31
30
29
27
26
25
24
24
22
19
18
18
16
14
12
12
11
9
8
7
6
5
4
5
4
3
2
1
1
0
0
0
0
-1
-2
-3
-3
-3
-3
-4
-4
-4
-5
-5
-4
-5
-5
-6
-6
-7
-8
-8
-8
-7
-8
-9
-8
-8
-8
-9
-9
-9
-9
-9
-10
-9
-8
-9
-10
-9
-9
-9
-10
-10
-9
-9
-10
-9
-9
-9
-10
-11
-10
-10
-10
-10
-10
-10
-10
-10
-10
-10
-10
-11
-11
-11
-11
-12
-11
-11
-12
-12
-11
-11
-12
-13
-12
-11
-11
-12
-12
-13
-13
-14
-14
-13
-13
-13
-13
-12
-13
-14
-13
-12
-12
-12
-11
-11
-11
-11
-11
-10
-10
-10
-10
-9
-10
-10
-9
-9
-8
-9
-10
-11
-11
-11
-11
-11
-11
-10
-11
-10
-10
-9
-9
-9
-8
-7
-7
-8
-7
-7
-6
-6
-5
-5
-6
-6
-6
-5
-5
-5
-5
-4
-3
-3
-3
-3
-3
-3
-3
-2
-2
-2
-3
-3
-3
-3
-2
-2
-1
-1
-2
-2
-1
-1
-1
-1
-1
-1
-1
-1
-1
-2
-2
-1
-1
-1
0
-1
-1
-1
-1
-2
-2
-1
-1
-1
-2
-3
-2
-2
-3
-2
-2
-2
-3
-4
-4
-3
-4
-4
-3
-3
-3
-2
-1
0
0
1
1
1
1
2
4
8
12
13
15
16
15
15
15
15
14
12
11
9
6
2
-1
-3
-4
-5
-6
-6
-6
-6
-7
-7
-8
-10
-13
-17
-18
-14
-5
10
32
57
87
116
137
142
134
115
95
71
48
23
5
-4
-10
-14
-14
-11
-7
-4
-3
-3
-4
-6
-7
-6
-5
-5
-4
-4
-4
-4
-4
-4
-4
-4
-4
-3
-2
-1
-1
-1
0
0
0
0
0
1
1
1
2
2
2
2
3
4
4
4
4
4
4
4
5
5
6
7
7
8
8
8
8
9
10
11
11
11
11
11
11
11
12
12
12
12
13
13
12
12
12
12
12
12
11
11
10
10
10
10
9
8
8
9
9
8
8
9
10
10
10
11
12
13
14
15
16
17
18
20
21
22
23
24
26
26
28
29
30
32
32
33
34
36
36
37
37
37
37
36
37
37
37
35
35
35
35
34
34
34
33
31
30
29
28
27
26
25
25
23
22
21
20
20
19
19
17
16
14
13
12
11
10
8
7
6
4
2
1
1
0
-1
-2
-2
-2
-3
-4
-6
-6
-6
-7
-8
-8
-9
-9
-10
-10
-10
-10
-11
-11
-11
-11
-11
-11
-11
-12
-13
-12
-12
-12
-13
-13
-13
-13
-13
-13
-14
-13
-14
-14
-14
-14
-14
-15
-14
-14
-14
-14
-14
-13
-13
-14
-15
-15
-15
-15
-16
-15
-15
-16
-16
-17
-16
-15
-15
-15
-15
-15
-16
-16
-15
-14
-15
-15
-16
-17
-17
-17
-17
-17
-17
-18
-19
-18
-19
-19
-20
-20
-20
-20
-21
-21
-21
-21
-20
-20
-19
-20
-20
-21
-21
-21
-21
-21
-21
-20
-20
-20
-20
-20
-20
-21
-21
-21
-20
-21
-21
-21
-23
-23
-24
-24
-24
-25
-25
-26
-26
-26
-26
-24
-24
-24
-24
-24
-25
-24
-25
-24
-23
-23
-23
-22
-21
-21
-22
-22
-21
-20
-19
-20
-20
-19
-21
-21
-22
-20
-20
-20
-21
-22
-21
-22
-21
-21
-20
-20
-20
-20
-20
-19
-19
-19
-18
-18
-17
-18
-19
-19
-18
-18
-18
-17
-17
-18
-18
-18
-18
-18
-17
-16
-16
-17
-17
-17
-17
-17
-17
-16
-15
-15
-16
-17
-17
-17
-17
-16
-15
-15
-16
-17
-16
-17
-17
-16
-16
-16
-16
-16
-17
-15
-15
-15
-14
-14
-14
-12
-11
-10
-10
-10
-9
-10
-9
-8
-5
-2
0
3
4
5
4
3
3
2
2
1
-1
-4
-7
-11
-15
-17
-18
-19
-20
-21
-21
-21
-21
-22
-22
-24
-27
-30
-30
-24
-13
2
27
56
85
111
124
123
108
87
63
37
11
-11
-26
-33
-35
-36
-35
-29
-24
-20
-18
-18
-19
-19
-20
-21
-21
-20
-20
-19
-19
-19
-19
-18
-17
-17
-18
-17
-17
-15
-15
-15
-15
-14
-13
-13
-13
-13
-12
-13
-13
-12
-12
-11
-11
-10
-8
-8
-8
-7
-6
-5
-4
-4
-3
-2
-2
-2
-1
-1
0
0
0
1
1
1
1
2
2
2
3
3
4
3
4
4
3
3
3
4
4
4
4
3
3
3
3
2
3
4
4
4
4
4
5
5
6
7
7
7
8
10
11
12
13
15
17
18
20
22
24
25
27
29
30
32
33
35
36
37
37
38
39
40
41
42
43
43
42
41
42
43
42
41
41
40
39
39
39
39
39
38
37
36
35
34
33
32
30
29
28
26
25
23
21
19
18
16
15
14
13
12
10
9
8
6
5
4
4
3
2
1
1
0
0
0
0
-1
-2
-3
-4
-4
-5
-5
-5
-5
-5
-6
-6
-6
-6
-6
-6
-6
-7
-8
-8
-6
-7
-8
-8
-8
-7
-8
-8
-8
-8
-8
-9
-9
-8
-7
-8
-8
-7
-7
-8
-8
-8
-8
-8
-8
-8
-7
-8
-9
-9
-8
-8
-8
-8
-7
-7
-8
-8
-8
-7
-8
-8
-7
-6
-7
-7
-6
-6
-6
-6
-6
-5
-5
-5
-5
-5
-5
-5
-4
-3
-3
-3
-4
-4
-4
-3
-3
-2
-1
-1
-1
-1
-1
-1
0
1
2
2
2
2
3
3
2
3
4
5
4
4
4
3
3
2
1
1
2
1
1
1
2
1
2
2
3
2
2
2
3
3
3
4
4
4
4
5
6
5
5
6
6
6
6
6
6
6
6
6
7
8
8
7
7
7
6
7
8
8
8
8
8
8
8
8
8
9
9
9
9
8
8
8
9
9
10
9
8
8
9
9
8
8
9
9
9
9
9
9
9
9
9
9
9
9
9
10
8
9
9
10
9
8
10
10
10
10
11
14
15
15
16
17
17
16
17
20
24
27
29
30
30
30
30
30
30
29
29
27
24
20
15
12
10
9
7
6
6
6
6
6
6
6
4
0
-3
-3
0
8
24
48
77
108
139
159
163
151
132
106
80
53
30
14
6
3
2
2
5
8
10
10
10
8
8
9
9
8
8
9
9
9
9
9
9
9
10
11
11
11
10
10
12
13
13
13
14
14
14
14
15
15
16
16
16
16
16
16
17
17
18
17
18
18
19
19
20
21
21
21
22
23
23
23
24
25
26
25
25
25
25
26
25
25
25
25
25
24
24
24
24
23
23
23
23
22
22
22
20
20
20
20
19
19
19
19
19
19
19
21
22
22
23
25
26
27
28
30
31
33
34
36
38
40
41
41
44
44
46
47
48
48
48
49
49
50
50
50
49
49
48
46
47
47
47
46
45
45
45
44
43
44
43
43
43
42
42
40
40
39
38
36
35
34
32
30
28
26
25
24
23
22
22
20
19
17
16
16
14
13
12
12
11
10
9
8
8
7
6
6
6
5
5
5
5
4
4
4
4
3
3
3
3
2
2
2
2
2
1
1
1
1
0
0
0
0
-1
-1
-1
-1
-1
-2
-2
-3
-3
-4
-5
-4
-5
-5
-5
-5
-4
-5
-6
-6
-5
-5
-5
-6
-6
-6
-6
-6
-6
-6
-7
-7
-7
-7
-8
-8
-8
-8
-7
-7
-8
-8
-10
-10
-9
-8
-8
-8
-8
-8
-8
-9
-10
-10
-9
-9
-10
-10
-10
-10
-10
-9
-9
-9
-9
-8
-8
-8
-8
-8
-7
-7
-7
-7
-7
-7
-7
-6
-4
-5
-7
-8
-9
-9
-10
-11
-11
-10
-11
-11
-10
-10
-9
-9
-9
-8
-7
-7
-8
-8
-7
-7
-7
-6
-5
-5
-5
-4
-4
-4
-4
-5
-4
-4
-5
-5
-3
-2
-3
-4
-3
-2
-2
-2
-2
-2
-3
-3
-3
-2
-2
-3
-3
-3
-2
-2
-2
-1
-1
0
-1
0
0
-1
-1
0
0
0
0
0
0
0
0
0
0
0
0
0
0
0
0
0
0
0
0
0
0
0
0
0
0
0
1
1
0
0
0
1
2
3
4
5
4
4
5
6
8
12
16
19
20
20
20
19
18
18
18
17
15
13
9
5
1
-2
-3
-4
-5
-5
-5
-5
-5
-6
-6
-7
-10
-14
-17
-15
-7
7
30
57
86
114
136
141
129
106
81
57
33
11
-5
-17
-22
-24
-23
-20
-13
-7
-4
-4
-5
-6
-7
-7
-6
-6
-6
-6
-5
-4
-3
-3
-2
-2
-1
-2
-2
-1
-1
-1
-1
0
1
1
1
1
2
3
3
3
5
6
5
5
5
6
6
7
8
9
9
9
10
10
10
10
11
12
12
12
12
13
13
13
13
14
15
15
15
15
15
15
15
16
18
16
15
15
16
16
15
16
15
15
14
15
16
17
16
16
17
17
17
17
18
17
18
18
19
21
23
24
24
26
27
28
29
32
34
35
36
37
39
39
41
42
42
43
43
45
45
45
45
46
48
48
49
49
50
50
49
48
48
50
49
48
46
45
44
43
41
40
39
37
36
34
32
29
28
27
25
23
20
19
18
16
15
12
11
9
7
6
5
4
1
1
0
0
-1
-2
-2
-3
-4
-6
-6
-6
-6
-7
-7
-7
-8
-8
-9
-9
-10
-10
-10
-11
-11
-12
-12
-11
-11
-12
-12
-13
-13
-14
-14
-14
-13
-13
-13
-13
-13
-13
-14
-14
-13
-13
-14
-14
-14
-14
-15
-16
-16
-15
-15
-15
-15
-15
-15
-16
-16
-16
-16
-16
-16
-16
-16
-16
-17
-16
-15
-16
-16
-17
-15
-16
-16
-15
-15
-15
-16
-16
-16
-16
-17
-16
-15
-15
-15
-16
-16
-16
-16
-16
-16
-15
-16
-16
-16
-15
-15
-14
-14
-13
-13
-14
-13
-13
-13
-13
-13
-12
-11
-11
-11
-11
-11
-11
-11
-11
-11
-13
-13
-14
-14
-14
-15
-15
-14
-14
-14
-14
-13
-13
-13
-13
-12
-12
-12
-12
-11
-11
-12
-12
-11
-10
-11
-11
-11
-9
-10
-11
-11
-10
-9
-9
-9
-9
-8
-9
-9
-9
-8
-8
-9
-8
-8
-8
-8
-8
-8
-8
-8
-8
-8
-7
-8
-8
-7
-7
-7
-7
-7
-7
-7
-7
-6
-4
-4
-6
-6
-6
-6
-6
-6
-5
-4
-4
-4
-3
-2
-2
-3
-3
-1
0
1
2
3
3
3
3
3
5
9
13
16
18
19
19
19
20
20
20
20
19
17
14
11
8
5
3
2
2
1
1
1
1
2
2
2
1
-1
-5
-6
-1
9
26
49
77
109
139
156
158
146
127
101
73
45
23
10
2
-1
-2
-2
0
5
8
9
9
8
7
6
5
5
6
6
5
5
5
6
6
6
7
7
8
8
8
8
9
9
9
10
10
10
10
11
12
13
13
13
13
13
13
13
14
15
16
16
16
16
16
17
17
18
18
19
19
20
20
20
21
22
23
23
23
23
23
23
22
23
24
23
23
23
23
23
22
22
23
23
23
23
23
23
22
22
22
22
22
21
22
22
22
21
22
23
24
25
25
27
28
29
30
33
35
36
37
38
40
40
42
43
46
47
48
49
49
50
49
51
51
53
53
52
52
52
52
52
52
52
52
51
51
50
50
49
47
47
46
44
43
42
42
41
40
40
40
39
39
39
37
36
34
33
32
31
29
27
27
26
24
23
23
22
21
19
18
17
16
15
14
14
14
12
12
11
11
9
9
9
10
10
8
8
8
7
7
7
7
7
6
5
4
3
3
3
2
3
3
2
1
1
1
0
0
0
0
0
0
0
-1
-2
-3
-2
-2
-3
-3
-3
-3
-4
-5
-5
-5
-5
-5
-5
-6
-6
-7
-8
-8
-7
-8
-8
-8
-9
-9
-9
-8
-8
-8
-8
-8
-9
-9
-9
-8
-8
-9
-10
-10
-10
-10
-11
-10
-10
-10
-10
-11
-11
-11
-11
-11
-11
-11
-11
-10
-10
-10
-11
-10
-9
-8
-9
-9
-9
-8
-8
-9
-8
-8
-8
-8
-8
-8
-8
-9
-9
-9
-9
-11
-11
-10
-9
-10
-10
-9
-8
-8
-8
-7
-7
-7
-7
-6
-5
-4
-5
-5
-4
-4
-5
-4
-3
-3
-4
-4
-3
-2
-2
-2
-2
-2
-2
-2
-2
-3
-3
-3
-2
-1
-2
-1
-1
-1
-2
-2
-2
-1
-1
-2
-1
-1
-1
-1
-2
-1
0
0
0
-1
0
0
0
0
0
0
0
0
0
0
0
0
0
1
1
1
1
1
1
1
1
2
2
2
2
2
2
2
2
2
3
2
1
1
2
2
2
4
6
6
6
7
7
7
7
8
11
14
17
19
21
22
22
22
21
20
19
18
17
15
11
7
4
1
0
-1
-2
-3
-3
-3
-4
-3
-3
-5
-8
-11
-12
-10
0
17
42
67
92
116
137
141
130
109
84
59
33
12
0
-7
-10
-10
-8
-5
-1
1
2
1
1
1
2
3
2
2
2
3
3
4
4
4
4
4
5
5
6
6
7
7
7
8
9
9
9
9
10
10
10
10
9
10
11
11
11
12
13
13
13
14
14
15
16
16
17
18
18
19
19
18
18
19
20
21
21
22
21
22
21
21
21
21
22
20
20
20
19
19
19
20
20
20
19
20
20
20
19
20
20
19
19
19
20
21
22
23
25
26
27
28
29
32
33
34
35
37
39
39
41
43
45
46
48
49
50
51
51
53
54
54
55
57
58
57
58
58
59
59
59
58
58
56
55
55
54
53
51
50
50
49
48
46
46
44
42
40
38
37
35
34
32
32
30
27
26
24
23
21
20
19
18
16
15
14
13
12
11
11
10
9
9
8
8
7
7
7
6
6
5
5
5
5
4
4
3
3
2
2
2
2
1
1
1
1
0
0
0
0
0
0
0
0
0
0
-1
-1
-1
-2
-2
-1
-1
-1
-1
-1
-1
-1
-1
0
0
0
0
0
1
0
0
0
0
1
0
1
2
3
2
2
2
2
2
1
2
3
2
1
1
3
3
3
2
3
3
3
3
4
4
4
3
3
4
4
4
4
4
4
4
4
5
5
4
4
5
6
6
6
7
7
7
6
6
7
6
5
5
6
6
5
5
4
3
2
1
1
1
0
0
0
0
0
0
0
0
0
0
0
0
0
0
0
0
0
0
0
1
1
1
1
1
1
1
1
1
1
2
2
2
3
3
3
3
3
3
2
2
2
3
3
3
4
6
7
8
9
10
10
10
9
11
14
17
21
24
26
26
26
27
27
26
25
26
25
23
19
15
11
8
7
6
7
6
6
6
6
6
6
5
2
-1
-2
1
11
29
53
81
111
137
156
156
149
127
105
81
56
35
18
7
1
-1
-1
1
6
11
15
16
16
15
14
14
14
13
13
15
15
15
14
14
14
14
14
14
15
15
15
14
13
13
13
14
14
14
14
15
15
15
16
15
16
16
16
16
16
17
16
17
18
18
18
19
19
20
20
19
20
21
21
21
22
22
22
22
22
23
24
25
25
25
24
24
23
23
24
24
24
24
23
23
23
22
22
22
21
21
21
21
21
21
22
22
23
23
23
24
25
26
27
29
31
34
35
36
38
38
41
43
45
46
48
49
51
53
53
55
56
58
58
59
60
60
61
61
63
63
65
65
66
66
65
66
65
66
64
64
62
62
61
59
58
57
57
55
54
53
51
49
47
47
45
44
41
41
40
38
35
33
33
33
31
29
28
27
26
26
25
24
24
22
21
21
21
20
19
19
19
18
17
17
16
15
14
14
14
13
12
11
12
11
11
10
10
10
9
8
7
8
7
6
6
6
7
6
5
5
5
4
4
5
5
4
4
4
4
3
3
4
4
4
3
3
2
2
1
1
2
1
1
0
0
0
0
0
0
0
0
0
1
0
0
0
0
1
1
0
0
0
0
0
0
0
0
0
0
0
0
0
0
0
0
0
0
0
0
0
0
0
0
1
1
1
1
2
2
1
2
3
2
2
2
1
0
0
0
0
-1
-3
-3
-3
-3
-4
-4
-3
-3
-3
-3
-2
-2
-1
-2
-2
-1
-1
-2
-2
-2
-2
-2
-2
-2
-2
-2
-1
-1
0
-1
-2
-1
-1
-1
-2
-1
-1
-2
-2
-2
-1
-1
-1
-2
-2
-2
-2
-2
-2
-1
-1
-2
-2
-2
-1
-1
-1
-1
-1
-1
-1
-1
-1
-2
-2
-1
-2
-3
-2
-2
-2
-2
-2
-2
-2
-2
-2
-2
-2
-2
-2
0
0
1
1
1
2
1
2
4
9
13
15
17
19
19
18
17
17
16
15
13
10
6
1
-2
-5
-6
-8
-9
-9
-9
-10
-10
-10
-10
-12
-15
-20
-23
-21
-15
-1
21
48
81
116
142
152
141
125
100
75
48
19
-1
-13
-20
-24
-25
-23
-19
-15
-14
-15
-16
-17
-18
-19
-18
-18
-19
-18
-18
-19
-20
-20
-19
-19
-20
-20
-19
-18
-18
-19
-18
-17
-17
-17
-18
-18
-18
-17
-17
-16
-15
-15
-15
-15
-14
-14
-13
-12
-12
-12
-13
-12
-12
-11
-11
-10
-10
-9
-9
-8
-8
-7
-7
-6
-5
-5
-6
-6
-6
-5
-6
-5
-5
-5
-5
-5
-5
-5
-5
-5
-5
-4
-5
-6
-6
-5
-5
-7
-7
-6
-6
-5
-5
-5
-4
-5
-4
-2
-1
0
0
1
3
4
5
8
9
11
13
15
17
19
21
22
24
26
28
28
29
29
29
28
29
30
29
29
30
30
29
29
30
31
31
30
30
29
29
27
26
26
25
24
22
22
20
18
16
15
14
11
9
7
6
4
1
0
0
-2
-4
-6
-7
-8
-10
-13
-13
-14
-15
-16
-16
-17
-19
-20
-19
-20
-21
-22
-23
-23
-24
-25
-26
-26
-26
-26
-26
-25
-27
-28
-28
-28
-28
-28
-28
-28
-28
-30
-30
-30
-29
-30
-30
-29
-30
-30
-31
-29
-29
-30
-31
-31
-30
-31
-31
-31
-30
-30
-31
-31
-31
-31
-32
-30
-31
-30
-31
-31
-30
-30
-29
-29
-29
-29
-29
-29
-29
-29
-29
-28
-28
-27
-27
-27
-26
-26
-26
-27
-26
-25
-25
-25
-25
-25
-25
-26
-26
-24
-24
-23
-24
-24
-24
-25
-24
-23
-22
-23
-22
-22
-21
-20
-20
-20
-20
-19
-19
-19
-19
-19
-19
-20
-19
-20
-20
-21
-22
-22
-23
-25
-26
-26
-26
-28
-28
-28
-27
-28
-28
-28
-27
-27
-28
-28
-27
-27
-27
-26
-26
-26
-26
-26
-26
-26
-25
-26
-26
-26
-26
-26
-26
-26
-26
-26
-26
-26
-25
-26
-26
-26
-25
-25
-25
-25
-25
-25
-26
-26
-26
-25
-25
-25
-25
-25
-25
-25
-24
-25
-25
-25
-24
-25
-25
-24
-23
-21
-21
-19
-19
-19
-19
-19
-18
-16
-12
-9
-5
-3
-3
-3
-4
-3
-4
-5
-6
-6
-8
-11
-16
-19
-22
-25
-25
-25
-25
-24
-25
-25
-25
-25
-26
-28
-31
-34
-33
-28
-16
1
26
53
83
108
121
115
99
77
55
31
8
-12
-26
-35
-40
-42
-40
-36
-30
-24
-22
-22
-24
-23
-24
-24
-25
-25
-25
-25
-24
-24
-23
-24
-23
-24
-23
-23
-23
-23
-24
-24
-24
-22
-22
-22
-21
-22
-22
-21
-21
-21
-21
-20
-19
-19
-19
-18
-18
-18
-17
-16
-14
-14
-13
-13
-12
-12
-12
-12
-11
-10
-10
-11
-10
-9
-9
-9
-9
-8
-8
-9
-10
-10
-10
-10
-9
-8
-8
-9
-10
-10
-10
-10
-10
-9
-9
-9
-10
-10
-10
-10
-10
-10
-9
-8
-8
-7
-6
-5
-5
-4
-2
-1
0
2
4
6
7
9
12
14
15
16
17
19
21
21
23
24
25
27
27
27
27
28
28
29
30
28
28
28
27
27
26
26
26
25
24
23
21
20
18
18
19
18
17
16
15
14
13
11
10
10
9
7
6
4
3
2
1
0
0
-2
-3
-4
-5
-6
-7
-8
-8
-10
-11
-12
-12
-13
-13
-13
-13
-14
-15
-15
-15
-16
-17
-18
-17
-17
-16
-17
-17
-18
-18
-19
-18
-18
-18
-19
-19
-19
-20
-20
-20
-20
-20
-21
-21
-21
-21
-22
-22
-22
-22
-22
-22
-21
-21
-22
-23
-22
-22
-22
-22
-22
-22
-22
-22
-23
-22
-21
-22
-22
-22
-22
-22
-23
-23
-23
-23
-23
-23
-24
-24
-24
-24
-23
-23
-23
-24
-24
-25
-25
-25
-25
-24
-25
-25
-25
-24
-25
-25
-25
-24
-23
-24
-24
-24
-24
-24
-24
-23
-22
-22
-23
-22
-21
-22
-21
-21
-20
-20
-20
-19
-18
-17
-18
-19
-20
-20
-20
-20
-21
-21
-21
-21
-20
-20
-20
-19
-18
-17
-16
-16
-16
-15
-15
-15
-15
-13
-13
-13
-12
-11
-10
-11
-11
-11
-10
-10
-9
-8
-8
-7
-7
-7
-7
-6
-6
-5
-4
-4
-5
-5
-4
-4
-4
-4
-3
-3
-3
-3
-3
-2
-3
-2
-2
-2
-2
-2
-2
-2
-2
-2
-2
-1
-1
-1
-2
-2
-1
-1
-1
-1
0
0
0
0
0
0
0
0
0
1
1
1
1
1
1
0
1
1
1
1
1
1
1
1
2
4
6
7
6
6
6
6
7
10
14
16
18
21
22
22
22
22
22
21
20
19
18
14
9
5
2
1
0
-1
-2
-2
-2
-3
-2
-3
-4
-7
-11
-13
-11
-4
10
34
63
95
127
151
163
154
137
112
86
59
33
16
5
0
-4
-4
-2
1
5
6
6
4
3
3
4
5
5
6
5
6
6
6
7
8
8
8
8
9
9
10
11
12
12
12
11
12
12
12
13
14
14
15
15
15
15
16
16
17
18
19
19
19
20
21
21
22
23
23
23
24
25
25
25
25
26
27
27
27
28
29
28
28
28
29
29
28
28
28
29
28
28
28
29
29
28
27
27
27
26
28
28
28
28
28
28
27
28
30
32
33
34
35
36
38
39
40
42
44
45
47
48
49
50
51
53
53
55
55
56
56
57
58
57
58
59
59
59
58
59
57
57
57
58
58
58
59
58
60
59
58
57
56
55
53
54
52
50
47
46
44
42
40
38
36
33
32
30
29
28
26
25
23
22
19
18
17
17
15
13
12
11
10
9
8
9
8
7
6
6
5
4
3
3
3
2
2
2
1
1
0
0
0
0
-1
0
0
-1
-1
-1
0
0
0
0
-1
-1
-2
-3
-2
-2
-2
-2
-2
-2
-3
-4
-3
-2
-2
-3
-3
-3
-4
-4
-4
-4
-3
-3
-4
-4
-4
-5
-5
-5
-4
-5
-6
-6
-6
-6
-7
-7
-7
-6
-6
-6
-6
-7
-7
-7
-6
-6
-6
-7
-8
-8
-7
-7
-8
-7
-6
-6
-7
-6
-6
-7
-7
-7
-6
-6
-6
-6
-5
-4
-5
-5
-4
-3
-4
-4
-3
-3
-4
-4
-3
-3
-4
-5
-6
-6
-7
-8
-8
-8
-8
-9
-10
-10
-9
-9
-9
-8
-7
-7
-7
-7
-7
-7
-7
-7
-7
-7
-7
-7
-6
-6
-7
-7
-7
-6
-7
-7
-6
-6
-6
-7
-7
-7
-7
-7
-7
-7
-7
-8
-8
-6
-6
-6
-6
-6
-6
-6
-6
-5
-5
-5
-5
-6
-5
-5
-3
-4
-5
-5
-5
-5
-5
-5
-5
-4
-4
-3
-2
-3
-3
-2
-2
-2
-2
-2
-2
-1
-1
-1
0
0
0
2
3
4
5
6
7
7
7
9
12
15
18
21
23
24
24
25
25
25
23
23
21
19
14
9
5
4
3
2
1
1
0
0
0
0
0
-1
-3
-6
-8
-5
3
20
45
72
103
130
146
144
126
104
81
56
29
7
-5
-13
-16
-17
-15
-10
-4
0
1
1
0
0
0
1
0
0
0
1
1
1
1
2
2
2
2
2
2
2
2
3
4
4
4
4
5
5
5
6
7
7
7
8
9
10
10
11
12
13
13
13
13
14
13
13
14
15
16
16
17
17
18
18
19
20
20
21
20
20
20
19
20
20
20
19
19
19
19
19
18
19
19
19
18
19
19
18
18
19
19
19
19
19
20
21
20
21
23
25
25
27
29
31
31
33
35
38
40
41
44
46
47
49
51
53
53
55
56
57
57
57
57
58
59
59
60
59
58
58
58
58
58
57
56
56
55
54
52
51
51
50
49
49
48
48
47
47
45
44
42
41
40
39
37
35
35
33
31
29
28
28
27
26
24
24
22
21
21
20
20
18
17
17
17
16
16
15
15
14
13
13
13
12
12
11
11
10
9
9
10
10
9
9
8
7
6
6
6
6
6
5
5
5
4
5
5
5
5
4
4
3
3
2
3
3
2
2
2
2
1
1
2
2
1
1
1
1
1
1
0
1
1
0
0
0
0
0
0
0
0
0
0
0
0
0
-1
0
0
-1
-1
0
0
0
-1
-1
0
0
-1
-1
-1
-1
-1
-1
0
0
0
0
0
0
0
0
0
1
2
1
1
2
2
2
2
3
3
3
3
2
2
1
1
1
1
1
0
0
1
1
1
1
2
4
4
4
4
5
5
5
6
7
8
7
8
9
9
9
9
10
10
10
10
10
11
10
10
10
11
11
12
12
12
11
11
11
12
13
12
12
12
12
12
13
13
14
14
14
14
13
13
14
15
15
15
14
14
15
14
14
15
15
16
16
15
16
16
16
16
16
17
17
17
17
17
17
17
17
18
17
17
17
18
19
18
18
19
20
20
21
22
24
24
24
25
26
26
26
28
32
36
39
41
43
42
42
42
42
41
39
38
36
33
27
23
20
18
16
15
15
15
15
15
15
15
14
12
8
6
7
14
26
48
76
107
143
172
190
186
168
143
115
87
59
39
25
18
13
12
13
17
20
22
24
23
21
21
21
22
22
22
22
24
24
24
25
25
25
24
25
26
27
27
28
29
29
29
28
30
30
32
33
33
33
33
33
34
36
36
37
38
38
39
39
40
40
42
42
42
43
43
43
43
45
46
47
47
47
47
47
47
47
48
48
49
48
48
49
47
48
48
49
48
47
48
47
48
46
47
46
46
45
45
46
45
46
45
46
46
47
47
48
49
49
50
51
54
56
58
60
61
62
63
66
68
70
72
73
74
74
75
75
78
79
80
80
80
80
79
80
80
82
81
80
80
80
81
79
80
79
79
79
78
78
77
76
74
73
72
71
69
67
66
62
61
58
58
56
55
54
51
49
47
46
44
44
41
40
39
37
37
35
34
33
33
31
29
28
28
27
26
25
25
25
24
23
22
20
19
19
20
20
19
18
18
17
15
15
15
16
15
15
15
15
14
13
12
12
13
12
12
11
10
9
10
10
10
10
9
9
9
8
7
7
7
7
6
6
6
6
6
6
7
6
6
5
5
5
4
3
4
5
4
3
3
3
3
3
2
2
2
1
1
1
1
1
0
0
0
0
0
0
0
-1
-2
-3
-2
-1
0
-1
-1
0
0
0
-1
-1
-1
0
0
0
0
0
0
0
0
0
1
0
0
-1
-3
-3
-4
-4
-5
-6
-7
-8
-8
-8
-7
-6
-6
-6
-7
-6
-7
-7
-6
-6
-6
-6
-6
-6
-6
-6
-5
-5
-4
-5
-5
-5
-6
-6
-6
-5
-4
-4
-4
-4
-4
-5
-5
-5
-4
-3
-3
-4
-4
-4
-5
-5
-5
-4
-3
-3
-4
-4
-4
-4
-4
-4
-3
-3
-3
-3
-3
-3
-3
-3
-3
-3
-4
-4
-3
-3
-4
-4
-4
-4
-5
-5
-5
-5
-5
-5
-5
-3
-3
-3
-1
-1
0
0
0
1
1
2
4
8
12
14
17
18
18
17
17
18
17
16
14
12
8
3
0
-2
-3
-5
-7
-8
-8
-8
-8
-9
-9
-10
-13
-17
-20
-17
-10
2
24
51
79
107
131
145
140
121
94
68
40
14
-5
-17
-24
-27
-28
-25
-19
-13
-9
-7
-7
-9
-11
-10
-9
-10
-10
-11
-9
-8
-9
-9
-9
-8
-9
-8
-7
-6
-6
-7
-6
-6
-5
-5
-5
-4
-4
-3
-3
-2
-2
-2
-2
-1
-1
-1
0
0
0
0
0
1
3
4
3
3
3
4
4
4
6
8
7
6
6
7
7
7
8
9
9
8
8
9
9
9
10
11
10
10
10
10
10
10
11
11
12
11
12
12
13
13
13
14
15
16
16
17
18
19
21
22
23
25
26
27
30
32
34
36
38
41
43
45
47
50
51
52
54
56
58
58
59
59
60
60
59
59
60
61
60
60
60
58
57
57
57
56
54
54
53
51
49
48
47
46
43
42
41
39
37
35
35
33
30
28
27
25
23
22
21
20
18
16
15
14
13
11
10
10
9
8
7
6
5
4
3
2
3
3
3
2
2
1
0
0
0
0
0
0
0
0
-1
-2
-1
0
-1
-1
-1
-1
-1
-2
-2
-1
-1
-2
-2
-3
-3
-4
-3
-2
-1
-2
-2
-2
-1
-2
-2
-2
-2
-2
-3
-3
-3
-2
-2
-3
-3
-3
-3
-3
-2
-3
-3
-2
-2
-2
-2
-2
-2
-1
-2
-1
-1
0
-1
-1
0
0
0
0
0
0
1
1
1
1
0
1
1
1
1
2
2
3
3
3
2
4
5
6
5
5
6
6
6
6
7
8
7
6
6
6
5
4
4
4
3
3
2
2
1
1
2
3
3
3
4
4
5
4
5
6
7
6
6
6
7
6
6
7
7
6
6
7
8
8
8
8
9
9
9
9
9
9
9
9
9
10
9
9
9
9
9
8
9
9
9
9
9
9
9
8
9
10
10
9
9
9
9
8
9
10
10
10
11
12
13
13
14
16
16
16
16
17
18
21
25
28
31
32
32
32
32
32
31
31
30
29
25
21
17
13
11
10
9
8
7
7
8
8
7
5
3
0
-2
0
8
22
43
70
101
135
164
172
169
149
125
97
68
43
23
12
6
3
2
4
7
12
14
13
12
12
11
11
10
10
11
11
10
10
11
11
11
11
12
11
12
12
12
12
12
13
13
14
14
14
14
15
15
16
17
17
17
17
17
18
18
18
19
20
21
21
21
21
22
22
23
24
25
25
26
26
26
26
26
27
27
28
27
28
28
27
27
27
28
28
28
27
28
29
28
28
28
29
28
28
28
28
28
28
29
29
30
29
29
30
31
32
32
34
35
36
37
39
39
40
43
44
46
47
48
49
51
53
53
56
57
59
59
61
62
62
61
60
62
62
63
61
61
60
59
58
57
57
56
56
54
54
53
52
50
49
49
47
46
45
43
41
39
39
39
38
36
36
37
36
33
31
31
30
28
26
26
25
23
23
22
21
20
19
18
17
18
16
16
16
15
14
14
13
13
13
12
12
12
12
12
12
11
10
10
10
11
10
10
9
9
9
9
8
9
9
9
9
9
9
9
8
8
8
9
8
8
8
7
6
6
6
7
6
6
7
6
6
5
5
5
5
5
5
5
5
4
4
5
5
5
6
5
4
4
3
4
5
5
5
5
6
5
4
3
3
4
4
4
3
3
2
2
2
2
2
2
2
2
2
1
1
1
2
1
1
1
1
1
0
1
2
1
1
1
1
1
0
0
0
0
-1
-1
-2
-2
-3
-3
-2
-3
-3
-3
-3
-3
-3
-3
-2
-1
0
0
0
0
0
0
0
1
2
1
1
2
3
3
3
3
4
4
3
4
3
3
3
4
5
5
5
4
5
5
5
4
5
6
5
5
5
5
4
4
4
5
4
4
4
5
4
3
3
4
4
3
3
3
4
4
4
4
4
4
4
4
4
4
4
4
4
4
3
4
4
5
4
5
5
5
5
5
5
5
5
4
4
4
4
4
4
5
5
5
4
5
7
8
8
9
9
10
10
10
13
16
19
21
22
23
23
24
24
24
22
20
19
16
12
6
2
0
-2
-2
-3
-3
-4
-4
-4
-4
-4
-5
-9
-12
-14
-12
-3
15
39
69
101
133
153
158
148
130
104
76
46
21
3
-6
-12
-14
-14
-11
-7
-4
-2
-2
-3
-4
-4
-4
-4
-4
-4
-4
-4
-4
-3
-3
-3
-4
-4
-4
-4
-4
-4
-3
-3
-3
-4
-3
-2
-2
-2
-2
-1
-1
-1
-1
0
0
0
0
1
2
3
3
3
2
2
2
2
4
4
4
4
6
6
5
5
6
7
7
7
7
7
7
8
9
10
9
8
9
9
9
8
8
9
8
8
8
8
8
8
8
8
8
7
8
9
10
10
12
13
14
15
15
16
17
19
19
21
23
25
27
27
29
29
30
32
33
35
36
38
40
41
42
43
44
46
46
46
47
47
48
47
47
47
46
45
45
45
44
42
41
41
41
39
38
36
35
33
32
31
30
28
25
24
22
20
18
16
15
14
13
10
9
8
6
4
3
3
1
0
0
-1
-3
-4
-4
-4
-5
-7
-8
-8
-9
-10
-11
-11
-12
-12
-13
-14
-14
-15
-16
-15
-15
-14
-14
-15
-15
-16
-17
-18
-18
-18
-18
-19
-19
-19
-19
-20
-20
-21
-21
-20
-20
-19
-20
-22
-21
-20
-20
-20
-20
-20
-20
-20
-21
-21
-21
-21
-22
-23
-23
-22
-22
-22
-21
-22
-22
-22
-21
-21
-20
-21
-20
-21
-20
-19
-19
-19
-18
-18
-19
-18
-17
-18
-17
-17
-17
-17
-17
-16
-16
-16
-17
-17
-17
-17
-17
-15
-14
-14
-14
-13
-12
-13
-13
-12
-12
-11
-11
-11
-11
-11
-11
-11
-11
-11
-12
-13
-14
-15
-15
-16
-17
-17
-17
-18
-19
-18
-17
-17
-17
-16
-16
-17
-16
-16
-15
-16
-15
-14
-14
-15
-15
-15
-14
-14
-14
-14
-14
-14
-14
-14
-14
-14
-15
-16
-14
-14
-14
-14
-14
-14
-15
-15
-15
-15
-14
-14
-14
-14
-14
-14
-13
-13
-13
-13
-13
-13
-13
-13
-13
-13
-13
-13
-13
-13
-12
-13
-12
-12
-12
-12
-12
-12
-12
-12
-11
-10
-8
-7
-7
-6
-6
-5
-5
-3
0
3
6
8
9
8
8
8
8
8
7
6
4
1
-3
-8
-11
-12
-12
-13
-14
-14
-13
-13
-14
-14
-13
-15
-18
-22
-21
-16
-6
11
37
68
100
127
140
135
120
98
76
51
23
0
-15
-24
-28
-28
-26
-22
-17
-13
-12
-11
-12
-13
-13
-12
-12
-13
-12
-12
-12
-11
-11
-11
-10
-11
-10
-10
-10
-10
-10
-9
-9
-8
-8
-8
-7
-6
-6
-6
-6
-5
-5
-3
-2
-2
-4
-3
-1
0
0
0
0
2
3
3
3
4
4
4
5
6
6
6
7
7
8
9
9
9
9
8
8
7
7
8
8
8
8
7
7
7
7
7
6
6
6
6
5
5
5
5
6
6
6
7
7
8
9
11
11
12
13
15
16
18
19
20
23
25
26
27
30
32
32
34
35
37
37
39
41
42
42
41
41
41
41
42
42
41
40
40
39
39
39
39
38
38
36
35
33
32
32
31
29
28
27
25
23
23
21
19
17
15
14
12
10
8
7
6
4
4
3
3
3
3
1
1
0
0
0
0
0
-1
-2
-3
-3
-4
-4
-4
-4
-5
-5
-6
-6
-6
-6
-6
-6
-7
-7
-6
-6
-6
-7
-6
-7
-8
-8
-8
-8
-8
-9
-9
-9
-9
-9
-9
-9
-9
-9
-9
-9
-10
-10
-11
-10
-10
-10
-11
-11
-11
-11
-11
-10
-10
-11
-11
-10
-10
-10
-11
-10
-10
-10
-11
-10
-10
-10
-11
-11
-11
-10
-10
-11
-11
-11
-11
-12
-12
-12
-12
-12
-13
-12
-12
-12
-13
-13
-12
-13
-12
-12
-12
-13
-14
-13
-13
-13
-13
-12
-13
-13
-13
-12
-12
-13
-13
-13
-12
-12
-12
-12
-12
-12
-14
-14
-14
-15
-17
-17
-17
-18
-18
-18
-17
-17
-16
-15
-13
-13
-14
-14
-14
-14
-13
-12
-11
-10
-10
-9
-8
-8
-8
-8
-7
-6
-6
-5
-5
-4
-4
-3
-4
-2
-2
-2
-2
-2
-1
-1
0
0
0
0
0
0
0
1
0
0
1
1
1
1
2
2
2
2
2
3
3
3
3
4
4
3
4
5
5
5
6
6
6
6
6
7
8
7
7
7
7
7
7
8
8
8
8
8
9
8
9
9
9
9
9
9
9
9
8
8
9
9
9
8
8
9
9
8
7
8
8
8
8
8
9
9
10
12
13
13
12
12
13
14
17
21
24
24
26
27
27
25
25
24
23
22
19
16
12
7
4
3
2
2
1
0
0
0
0
1
0
-1
-4
-8
-8
-2
9
29
55
85
121
150
168
166
149
127
99
73
46
25
12
5
2
0
1
5
10
13
13
11
11
10
10
10
10
11
11
11
12
12
11
11
12
12
12
13
14
14
14
14
14
15
15
15
15
16
15
16
16
16
17
17
16
16
16
17
18
18
18
19
19
20
21
21
22
22
23
23
23
23
24
24
25
25
25
25
25
25
25
25
25
25
25
24
25
24
24
24
23
23
23
24
23
24
23
24
23
22
22
23
23
22
24
26
27
27
28
30
31
32
33
34
36
37
39
41
43
44
45
46
48
49
50
51
52
54
54
55
56
58
59
59
61
61
62
62
62
61
61
61
59
59
58
58
56
56
54
53
52
50
50
47
46
44
43
42
39
38
36
34
31
30
29
26
24
22
20
18
17
15
13
11
9
8
7
6
4
3
3
1
0
0
0
0
-1
-1
-2
-2
-3
-4
-4
-4
-4
-5
-5
-6
-6
-6
-7
-7
-7
-8
-8
-8
-9
-9
-10
-10
-10
-10
-10
-10
-10
-10
-10
-11
-11
-10
-11
-12
-13
-13
-13
-14
-13
-13
-13
-14
-14
-14
-13
-14
-13
-13
-13
-14
-14
-14
-14
-15
-14
-14
-14
-15
-14
-15
-15
-15
-15
-15
-15
-16
-16
-15
-14
-13
-13
-14
-13
-13
-13
-13
-12
-12
-13
-13
-12
-12
-11
-11
-11
-10
-10
-10
-10
-9
-8
-8
-8
-8
-7
-7
-7
-7
-7
-7
-7
-7
-7
-6
-7
-7
-6
-7
-8
-8
-8
-10
-11
-12
-12
-12
-13
-12
-12
-12
-13
-13
-13
-12
-11
-12
-11
-11
-11
-12
-12
-11
-11
-11
-12
-12
-12
-12
-12
-12
-12
-12
-12
-11
-11
-11
-11
-11
-10
-9
-9
-10
-10
-11
-10
-10
-10
-10
-10
-10
-9
-9
-9
-10
-10
-10
-9
-8
-8
-9
-9
-10
-10
-10
-9
-10
-9
-9
-9
-9
-9
-9
-8
-7
-7
-7
-7
-6
-5
-3
-2
-1
-1
-1
0
0
2
6
10
14
16
18
18
19
19
19
18
17
17
16
12
8
4
0
-1
-2
-2
-3
-3
-3
-2
-3
-3
-3
-4
-7
-10
-10
-4
8
29
56
86
115
140
151
143
125
101
77
51
24
3
-10
-17
-21
-22
-20
-15
-9
-4
-1
-1
-1
-2
-3
-3
-3
-2
-2
-1
-1
-1
0
-1
-1
0
0
0
0
1
0
0
0
1
2
2
2
3
3
3
3
4
5
5
5
5
6
6
7
7
7
7
8
9
10
10
11
11
12
13
14
14
14
15
16
16
16
17
17
17
17
18
17
18
18
18
19
19
19
19
19
19
19
19
19
20
20
20
19
20
19
19
19
20
21
21
21
21
22
23
25
26
27
28
29
31
33
35
36
40
42
44
45
46
48
48
50
51
54
55
56
57
57
59
58
57
57
57
56
56
56
56
56
55
55
55
54
54
53
53
51
50
48
47
46
44
43
41
39
36
35
33
32
31
28
28
26
25
23
21
20
19
18
16
15
14
13
12
11
10
9
8
8
7
7
6
5
4
3
1
1
2
1
0
1
1
0
0
0
-1
-2
-2
-3
-2
-2
-3
-4
-4
-4
-5
-5
-4
-4
-4
-5
-5
-6
-6
-7
-8
-8
-9
-9
-9
-9
-9
-10
-10
-10
-9
-9
-10
-11
-11
-11
-12
-12
-11
-10
-11
-11
-10
-10
-11
-11
-11
-11
-10
-11
-11
-11
-11
-12
-13
-12
-12
-12
-12
-12
-12
-13
-13
-14
-12
-12
-13
-13
-14
-13
-13
-13
-12
-12
-11
-11
-11
-11
-11
-10
-9
-9
-9
-9
-9
-9
-8
-8
-7
-7
-6
-6
-6
-5
-5
-6
-7
-6
-6
-7
-8
-8
-9
-9
-9
-8
-8
-7
-7
-7
-7
-7
-6
-5
-5
-5
-5
-4
-4
-4
-4
-3
-3
-2
-2
-2
-2
-2
-2
-2
-2
-2
-1
-1
-1
-1
-1
-1
-1
-1
-1
-1
0
0
0
-1
-1
0
0
0
0
0
0
0
0
0
0
0
0
0
1
1
1
1
2
2
2
1
1
2
2
2
2
3
2
2
2
2
2
2
2
3
3
3
4
4
4
5
5
7
8
9
9
10
10
10
11
14
18
22
24
25
27
27
27
27
27
27
26
25
24
21
15
11
8
6
5
4
3
3
3
3
3
3
2
-1
-5
-8
-6
2
19
45
77
110
146
169
179
170
149
123
94
65
37
18
7
0
-2
-2
1
5
8
9
8
8
7
7
6
7
6
7
7
7
7
8
8
9
9
9
10
11
11
11
12
13
13
13
14
15
15
14
15
16
16
17
18
19
20
20
20
21
22
22
22
23
23
24
24
25
26
27
28
28
29
29
29
30
30
30
31
32
31
31
30
30
31
31
31
31
31
31
31
30
30
32
31
31
30
30
29
29
30
31
31
30
30
30
31
31
32
33
34
35
36
38
39
41
42
44
47
48
50
51
54
55
57
58
59
60
62
63
63
64
63
64
64
63
63
62
63
62
62
62
62
62
62
63
63
63
61
60
59
57
57
55
54
52
50
48
46
45
43
43
41
39
36
34
33
32
31
28
27
25
25
23
22
20
19
17
16
15
14
14
12
11
11
10
9
8
7
7
6
6
6
5
4
3
2
2
2
1
0
0
-1
-2
-2
-2
-2
-3
-3
-4
-5
-6
-7
-7
-6
-7
-7
-7
-7
-7
-7
-8
-9
-10
-10
-10
-11
-11
-11
-12
-13
-14
-14
-13
-13
-13
-13
-14
-14
-14
-15
-16
-16
-15
-16
-17
-16
-17
-17
-18
-18
-19
-19
-18
-19
-19
-19
-19
-20
-20
-19
-19
-19
-20
-21
-22
-21
-21
-20
-21
-21
-21
-22
-22
-22
-22
-21
-21
-21
-20
-20
-20
-20
-21
-21
-19
-19
-19
-20
-20
-21
-21
-21
-21
-21
-22
-22
-22
-22
-23
-25
-26
-26
-27
-28
-28
-28
-29
-30
-30
-29
-29
-28
-29
-29
-29
-29
-29
-29
-28
-28
-28
-29
-28
-29
-28
-27
-27
-26
-27
-27
-27
-27
-28
-28
-27
-27
-27
-27
-27
-27
-28
-29
-29
-29
-28
-28
-28
-28
-28
-28
-28
-29
-29
-29
-28
-29
-28
-27
-27
-26
-26
-26
-27
-27
-26
-26
-26
-26
-26
-26
-26
-27
-27
-26
-26
-27
-26
-26
-26
-26
-26
-25
-24
-23
-23
-21
-21
-20
-19
-19
-17
-18
-18
-17
-14
-9
-6
-2
-1
0
-1
-1
-1
-1
-2
-4
-5
-8
-12
-17
-20
-21
-22
-22
-24
-24
-24
-25
-24
-24
-23
-26
-29
-33
-34
-30
-20
0
26
56
86
111
123
120
105
83
57
29
4
-14
-27
-35
-42
-43
-41
-35
-30
-25
-22
-22
-22
-23
-22
-22
-22
-22
-22
-21
-21
-22
-22
-21
-21
-20
-20
-19
-19
-19
-19
-18
-17
-18
-17
-17
-16
-16
-15
-14
-15
-14
-13
-12
-12
-12
-11
-11
-10
-9
-9
-8
-7
-6
-6
-5
-4
-4
-4
-3
-3
-3
-2
-2
-2
-1
0
0
0
0
0
-1
0
0
1
2
1
2
1
3
3
2
2
1
2
2
2
2
1
2
2
3
3
4
5
6
5
6
7
9
11
12
15
16
19
20
22
24
27
29
31
33
35
37
38
40
41
43
44
45
46
46
47
47
49
49
49
49
49
49
48
48
47
47
47
46
46
45
44
44
45
45
45
44
44
44
43
41
39
39
37
35
33
31
31
29
27
25
24
23
21
20
18
17
16
16
15
14
13
12
12
11
10
8
8
8
8
6
5
5
5
4
3
4
4
3
3
2
2
1
1
1
1
1
0
0
0
0
-1
-1
-1
-1
-2
-2
-3
-3
-3
-3
-3
-3
-3
-3
-4
-4
-4
-4
-4
-4
-3
-3
-4
-4
-4
-5
-5
-5
-4
-4
-4
-3
-3
-3
-4
-4
-3
-3
-2
-3
-3
-3
-4
-4
-3
-3
-4
-4
-3
-3
-4
-4
-4
-3
-3
-3
-3
-3
-3
-4
-3
-3
-3
-2
-2
-2
-2
-2
-2
-2
-1
-1
-1
0
0
0
0
0
0
1
1
1
1
1
1
1
0
0
0
-1
0
-1
-2
-2
-2
-2
-2
-2
-1
-1
0
0
0
1
1
2
2
1
2
1
2
3
3
4
3
4
4
4
4
4
5
4
4
4
4
4
4
4
5
5
5
6
6
6
6
7
8
7
7
7
6
5
5
6
6
6
6
6
7
7
7
7
7
7
7
6
6
7
7
7
6
6
7
7
7
7
7
7
6
6
6
7
7
6
6
6
5
5
5
5
6
6
6
7
7
8
9
10
11
11
11
11
12
14
18
23
25
27
28
28
28
28
27
27
27
25
22
18
14
9
6
5
4
4
3
3
3
3
3
2
1
-1
-5
-6
-3
5
23
48
78
111
144
168
175
166
144
119
89
61
34
16
6
1
0
0
2
6
10
11
10
8
8
8
7
8
8
9
9
10
10
10
10
11
12
13
13
14
15
15
14
14
15
15
16
16
18
18
18
19
19
20
21
21
21
21
22
24
23
24
25
25
26
27
28
28
29
29
30
30
31
32
32
33
32
33
33
34
35
35
35
35
35
34
35
36
36
36
35
35
35
35
35
35
36
34
35
35
35
34
34
35
34
35
35
36
37
38
39
40
41
42
44
45
47
47
50
51
53
55
55
58
58
60
61
62
63
64
65
64
66
66
67
66
67
67
66
66
66
67
66
67
66
65
65
64
64
64
63
61
60
59
58
57
55
54
52
50
48
46
45
43
41
40
39
38
37
36
35
35
33
32
32
32
31
29
29
27
27
26
25
24
23
23
22
22
20
20
19
19
19
18
18
17
17
17
17
15
15
15
15
14
14
14
14
15
14
14
14
13
13
13
12
12
12
12
12
11
10
9
9
9
9
9
9
9
9
9
9
8
8
8
8
8
8
8
8
8
8
8
7
7
7
7
7
7
6
6
5
5
5
5
4
4
4
4
3
3
3
2
1
1
1
1
0
0
0
0
-1
-2
-2
-2
-3
-3
-2
-2
-3
-3
-2
-2
-2
-3
-3
-3
-3
-3
-3
-3
-2
-3
-3
-3
-3
-4
-5
-5
-6
-6
-7
-7
-8
-8
-9
-9
-9
-11
-11
-11
-10
-9
-8
-8
-8
-8
-7
-6
-5
-5
-6
-6
-5
-4
-4
-4
-4
-4
-3
-4
-4
-3
-3
-3
-4
-3
-2
-2
-2
-2
-2
-2
-2
-1
-1
-2
-2
-1
-1
-1
-1
0
0
0
0
0
0
-1
-1
-2
-2
-2
-3
-2
-2
-2
-2
-3
-2
-3
-2
-3
-3
-3
-3
-4
-4
-4
-4
-4
-3
-4
-5
-5
-5
-5
-5
-5
-6
-6
-6
-6
-5
-5
-5
-5
-5
-5
-4
-4
-5
-5
-5
-4
-4
-5
-5
-5
-5
-4
-4
-4
-4
-5
-6
-4
-4
-2
-1
0
0
-1
0
1
3
6
10
14
14
15
14
14
13
12
11
9
8
5
1
-2
-5
-8
-9
-11
-12
-12
-12
-12
-12
-13
-14
-15
-17
-21
-23
-20
-12
2
24
54
87
118
141
144
134
110
84
55
28
5
-10
-20
-24
-25
-23
-20
-15
-10
-7
-8
-9
-9
-9
-10
-9
-7
-7
-7
-7
-7
-7
-7
-6
-7
-7
-6
-6
-6
-5
-5
-4
-4
-4
-3
-3
-2
-2
-2
-2
-2
-1
0
0
0
0
1
2
2
3
3
4
5
5
6
6
7
7
8
8
9
9
9
10
10
10
11
12
12
11
12
12
12
12
12
13
13
12
12
12
12
12
12
12
12
11
10
10
11
11
11
11
12
12
11
12
13
14
15
16
17
19
20
21
23
24
25
27
29
31
32
33
35
38
40
41
42
42
43
43
45
46
47
46
46
46
46
46
45
45
44
44
43
43
43
42
42
41
41
40
38
37
36
35
32
31
29
28
26
24
24
22
21
18
17
16
14
12
11
11
10
9
8
8
7
6
5
4
3
2
2
1
0
0
-1
-1
-2
-3
-3
-4
-4
-5
-5
-5
-5
-5
-6
-6
-7
-7
-7
-7
-8
-8
-8
-8
-8
-8
-7
-8
-9
-9
-9
-10
-11
-10
-10
-9
-9
-10
-11
-11
-11
-11
-10
-11
-11
-11
-10
-10
-11
-10
-10
-9
-9
-9
-8
-8
-8
-9
-9
-9
-8
-8
-8
-8
-7
-7
-6
-6
-7
-6
-5
-5
-6
-6
-6
-5
-5
-6
-6
-6
-6
-6
-6
-6
-6
-6
-6
-6
-6
-6
-5
-5
-5
-5
-5
-5
-5
-5
-6
-5
-5
-4
-4
-3
-3
-2
-3
-3
-2
-2
-2
-3
-3
-4
-5
-5
-5
-5
-5
-6
-6
-6
-6
-6
-6
-6
-5
-5
-4
-4
-4
-4
-4
-3
-2
-2
-2
-2
-2
-2
-1
-1
-1
-1
-1
-1
-1
0
0
0
0
0
0
1
1
1
1
2
2
2
1
1
1
2
2
1
1
1
1
2
2
2
3
3
2
3
3
2
2
3
3
2
2
2
2
3
3
4
3
3
3
4
4
4
4
4
4
3
2
3
4
4
3
4
4
4
4
4
4
4
5
5
6
5
5
5
6
6
6
5
5
5
5
5
5
5
5
5
5
6
7
8
9
9
10
11
11
13
15
19
22
24
25
25
25
24
25
25
25
23
21
19
15
10
7
5
3
2
2
2
2
2
3
3
2
1
-1
-5
-7
-5
1
17
40
70
101
137
161
171
164
144
121
90
61
34
16
7
2
1
1
3
7
12
13
12
11
10
10
10
10
10
10
10
11
10
10
11
12
12
11
12
13
13
12
13
14
14
14
14
15
15
15
16
16
16
16
16
17
17
17
18
19
19
19
19
20
21
20
21
21
22
22
22
22
23
24
24
25
25
25
24
24
25
25
25
25
25
25
24
23
24
24
24
25
24
25
25
25
24
24
24
23
23
23
25
25
24
25
25
25
25
25
26
27
27
28
30
32
33
34
36
37
39
40
42
44
45
47
48
50
50
51
51
51
52
52
53
53
54
53
52
52
52
52
51
53
52
51
50
50
50
49
50
48
49
47
47
45
44
43
41
39
37
37
35
34
32
31
28
26
24
22
22
20
19
17
16
15
13
13
12
12
11
10
10
10
10
8
7
6
6
5
5
4
4
4
3
2
2
1
1
1
1
0
0
-1
-1
-2
-3
-2
-2
-3
-3
-4
-5
-4
-5
-5
-5
-5
-6
-7
-7
-7
-7
-7
-8
-8
-8
-9
-9
-10
-10
-11
-11
-10
-10
-9
-10
-10
-11
-12
-13
-13
-13
-14
-13
-14
-13
-14
-15
-15
-15
-15
-15
-14
-15
-15
-16
-17
-17
-16
-15
-15
-17
-17
-17
-17
-18
-17
-17
-17
-18
-18
-18
-18
-18
-18
-18
-18
-19
-19
-18
-18
-18
-18
-18
-18
-19
-18
-18
-17
-18
-18
-18
-18
-18
-19
-18
-19
-20
-21
-21
-22
-23
-22
-22
-21
-21
-22
-21
-21
-19
-19
-18
-19
-19
-19
-18
-18
-18
-17
-16
-16
-15
-15
-15
-14
-13
-13
-13
-13
-13
-13
-13
-13
-12
-12
-11
-11
-11
-11
-11
-11
-11
-10
-9
-10
-10
-10
-10
-11
-11
-11
-11
-11
-11
-10
-10
-9
-9
-9
-9
-10
-10
-9
-9
-9
-10
-10
-10
-10
-10
-9
-10
-9
-10
-10
-10
-10
-10
-11
-11
-11
-11
-11
-11
-11
-11
-11
-11
-11
-12
-12
-12
-11
-11
-11
-11
-11
-11
-11
-12
-12
-12
-12
-13
-12
-11
-11
-12
-12
-11
-12
-13
-13
-13
-13
-13
-13
-13
-12
-11
-10
-9
-9
-9
-8
-8
-8
-8
-7
-3
0
3
5
7
6
6
6
5
6
4
3
0
-2
-6
-11
-14
-16
-17
-18
-19
-20
-20
-19
-19
-19
-20
-21
-24
-28
-28
-23
-12
5
30
62
95
123
137
132
117
93
67
40
13
-7
-20
-26
-29
-31
-28
-23
-17
-12
-10
-9
-10
-10
-11
-10
-10
-9
-9
-8
-8
-7
-7
-7
-7
-8
-8
-7
-6
-4
-4
-4
-3
-2
-2
-2
-3
-2
-2
-3
-2
0
0
0
0
1
2
3
2
2
3
4
5
5
6
7
7
7
8
8
8
9
9
9
9
9
9
10
9
9
10
10
10
9
9
9
9
9
9
10
9
9
9
10
9
9
8
7
8
8
8
9
10
10
10
11
12
13
14
15
16
17
17
19
20
22
24
26
28
29
31
32
35
37
38
40
41
42
42
43
44
45
45
45
45
45
45
43
43
43
43
42
42
41
40
39
38
39
37
36
34
33
31
30
29
27
27
24
23
21
20
18
15
15
14
12
10
8
8
7
6
6
5
4
4
4
3
3
2
2
2
1
1
0
0
0
-1
-1
-1
-2
-3
-3
-3
-4
-5
-5
-5
-5
-5
-6
-6
-7
-7
-8
-8
-8
-9
-8
-9
-9
-9
-10
-10
-11
-10
-11
-11
-11
-11
-11
-12
-11
-12
-12
-13
-13
-13
-13
-13
-14
-13
-13
-13
-13
-13
-13
-14
-14
-14
-13
-13
-13
-13
-13
-13
-13
-13
-13
-13
-13
-14
-14
-15
-15
-15
-15
-15
-15
-14
-14
-15
-15
-15
-16
-15
-15
-15
-16
-16
-17
-18
-18
-19
-19
-19
-19
-19
-19
-18
-19
-18
-18
-17
-19
-18
-18
-18
-18
-17
-17
-17
-17
-18
-18
-18
-19
-18
-19
-18
-19
-20
-19
-19
-20
-21
-20
-20
-19
-18
-17
-17
-16
-16
-15
-14
-14
-14
-14
-13
-13
-14
-13
-12
-12
-11
-10
-10
-10
-9
-9
-8
-8
-8
-7
-6
-6
-6
-5
-5
-4
-3
-2
-2
-2
-2
-3
-2
-2
-2
-2
-2
-1
-1
-1
-1
-1
0
0
0
0
1
1
1
1
1
1
1
1
1
2
2
2
1
2
1
1
1
1
1
1
0
1
2
2
2
1
1
0
1
2
2
3
3
3
3
2
2
2
2
2
3
3
3
3
3
3
3
3
3
3
3
3
3
3
4
5
7
8
8
9
9
9
9
11
14
17
19
22
22
22
22
22
22
21
20
18
17
14
10
6
2
0
-1
-2
-2
-2
-2
-2
-2
-2
-2
-4
-8
-11
-12
-7
5
25
48
77
108
141
159
162
149
127
101
74
50
28
13
5
0
-2
-2
1
4
8
8
7
6
5
5
6
6
6
6
7
7
7
7
9
8
8
9
9
10
10
10
10
11
11
11
12
13
13
13
13
13
14
15
15
15
15
15
15
16
17
17
17
18
18
19
19
20
21
22
23
23
23
23
24
24
25
26
27
27
27
27
27
27
28
29
29
28
28
28
28
28
28
29
28
28
27
25
24
26
26
26
26
25
26
26
26
26
26
28
28
29
30
31
32
33
33
34
36
37
39
40
42
43
44
44
45
46
46
47
47
48
48
49
49
49
49
49
49
49
49
48
48
48
48
48
47
46
45
43
41
39
39
37
36
34
33
31
30
29
28
27
26
25
24
22
21
20
20
19
18
17
16
15
14
12
11
10
9
8
7
6
4
3
2
1
1
1
0
0
-1
-1
-2
-3
-3
-4
-4
-4
-4
-5
-5
-6
-6
-7
-7
-8
-8
-8
-9
-10
-11
-11
-11
-12
-12
-12
-13
-13
-14
-13
-13
-13
-14
-14
-14
-15
-16
-16
-16
-16
-17
-17
-17
-17
-17
-18
-18
-18
-18
-18
-18
-18
-18
-19
-20
-19
-19
-20
-21
-21
-20
-21
-21
-21
-21
-20
-21
-20
-21
-21
-22
-22
-22
-22
-23
-24
-24
-24
-24
-24
-25
-25
-25
-25
-25
-24
-25
-25
-25
-24
-24
-24
-23
-23
-24
-24
-24
-23
-23
-23
-23
-23
-24
-25
-25
-24
-24
-25
-26
-27
-27
-27
-28
-29
-29
-28
-28
-28
-28
-27
-27
-27
-27
-27
-26
-27
-25
-25
-25
-25
-25
-25
-24
-23
-23
-22
-23
-24
-23
-23
-22
-22
-21
-22
-21
-22
-22
-21
-20
-20
-20
-20
-20
-20
-21
-21
-19
-19
-18
-18
-16
-16
-17
-18
-17
-17
-16
-16
-16
-16
-17
-16
-16
-15
-15
-15
-15
-15
-16
-16
-15
-14
-14
-14
-14
-15
-14
-14
-14
-13
-12
-12
-12
-12
-12
-12
-13
-13
-13
-12
-12
-12
-12
-11
-11
-11
-10
-10
-10
-10
-10
-10
-10
-10
-10
-8
-9
-8
-9
-7
-5
-4
-2
0
0
0
0
1
3
7
10
12
14
15
15
15
15
14
13
12
9
7
4
0
-3
-6
-7
-9
-10
-11
-11
-10
-10
-10
-10
-11
-14
-18
-19
-17
-9
7
31
57
89
118
145
152
141
119
91
66
39
15
-2
-14
-21
-23
-21
-17
-12
-6
-2
-2
-2
-3
-4
-4
-4
-4
-3
-2
-1
-1
0
0
0
0
0
0
0
0
0
0
1
2
2
2
3
3
3
4
5
5
6
7
8
9
9
9
10
10
10
10
11
12
13
13
14
14
14
14
15
16
17
17
17
18
18
19
19
20
20
20
21
21
21
20
20
20
20
20
20
20
21
20
19
20
20
21
21
20
21
20
20
20
22
23
23
24
25
26
26
28
30
31
33
34
35
37
39
41
44
45
47
48
50
51
53
55
55
57
58
58
58
59
60
59
59
59
59
59
58
57
56
56
54
54
53
52
51
50
49
47
47
45
43
41
40
39
36
35
33
31
29
28
27
25
23
20
19
17
16
15
14
12
11
11
10
10
9
9
9
9
8
7
6
6
5
4
4
4
3
2
2
2
1
0
0
0
-1
-1
-2
-2
-3
-4
-5
-5
-5
-5
-6
-6
-6
-7
-8
-8
-7
-8
-7
-8
-8
-9
-9
-9
-8
-8
-8
-9
-8
-9
-10
-10
-9
-9
-8
-9
-9
-9
-10
-10
-11
-10
-10
-10
-10
-11
-10
-11
-11
-11
-11
-11
-10
-10
-10
-10
-11
-11
-11
-11
-11
-11
-10
-10
-11
-11
-10
-10
-11
-12
-11
-11
-11
-11
-11
-11
-11
-11
-11
-11
-11
-11
-11
-10
-10
-10
-9
-9
-9
-9
-8
-8
-8
-7
-8
-7
-7
-7
-8
-8
-8
-8
-9
-10
-10
-10
-11
-11
-10
-9
-9
-9
-9
-8
-7
-7
-6
-6
-5
-5
-5
-4
-3
-3
-3
-2
-2
-2
-1
0
0
-1
-1
0
1
2
2
3
3
3
2
2
3
3
4
4
4
4
4
4
5
4
4
4
3
4
4
5
4
5
5
5
5
5
5
5
5
6
6
5
5
5
6
6
6
7
6
6
5
6
5
5
5
5
5
5
4
5
5
5
5
6
6
7
6
5
6
6
6
7
6
7
7
7
8
8
9
7
6
7
7
7
8
8
8
8
9
9
10
10
11
12
14
14
14
15
16
17
17
19
22
26
29
31
32
31
32
31
32
30
29
28
26
23
18
14
11
10
8
7
8
8
9
9
9
9
8
5
0
-1
2
10
26
50
80
117
152
181
190
182
165
137
110
79
54
35
23
16
13
14
16
20
24
26
26
24
24
24
24
24
23
23
24
25
25
25
25
26
26
26
26
27
28
28
29
28
29
28
29
30
30
31
31
31
31
31
31
33
33
33
34
34
36
35
35
36
37
38
38
39
38
39
39
40
41
41
42
42
43
43
43
44
44
45
45
46
46
46
45
45
45
45
45
45
45
45
45
45
45
45
45
45
44
45
45
45
45
45
45
46
47
47
48
48
49
50
52
54
55
57
58
59
60
63
65
66
67
67
69
69
71
70
71
73
73
74
73
75
74
74
73
73
73
71
71
70
70
68
68
67
66
65
64
64
63
63
61
60
58
56
55
53
53
50
48
46
45
44
42
41
39
37
35
33
31
30
29
28
27
25
23
22
22
22
21
21
21
20
20
20
20
20
20
19
18
18
17
16
14
14
15
15
14
13
12
12
12
10
10
9
8
8
9
8
7
7
6
6
6
6
6
5
4
4
4
4
3
3
3
2
1
1
1
0
0
0
0
0
-1
-1
-2
-3
-3
-3
-3
-4
-4
-4
-5
-5
-5
-4
-5
-5
-5
-6
-6
-6
-6
-6
-7
-7
-7
-8
-8
-9
-9
-9
-9
-9
-9
-10
-11
-11
-10
-10
-11
-11
-11
-11
-12
-12
-11
-11
-11
-12
-12
-11
-11
-12
-12
-11
-11
-11
-12
-11
-12
-13
-14
-14
-15
-15
-16
-18
-18
-19
-20
-20
-20
-19
-19
-18
-18
-18
-18
-17
-16
-16
-15
-15
-14
-14
-14
-13
-13
-13
-12
-12
-13
-13
-13
-13
-13
-11
-11
-11
-11
-11
-10
-10
-10
-10
-9
-10
-10
-9
-9
-8
-9
-9
-9
-9
-9
-8
-8
-8
-8
-7
-7
-7
-7
-7
-8
-7
-7
-7
-7
-7
-6
-7
-7
-8
-8
-9
-8
-7
-7
-7
-8
-8
-9
-9
-9
-8
-7
-7
-7
-8
-8
-8
-8
-8
-8
-7
-8
-9
-8
-8
-8
-9
-9
-8
-8
-8
-8
-8
-9
-10
-9
-9
-8
-9
-9
-9
-9
-9
-10
-10
-10
-9
-9
-10
-11
-11
-10
-10
-10
-11
-11
-10
-9
-8
-7
-6
-6
-6
-6
-5
-1
1
4
7
8
9
8
8
8
7
5
3
1
-1
-5
-10
-12
-14
-15
-16
-16
-15
-16
-16
-16
-15
-17
-19
-23
-25
-23
-18
-5
19
51
88
122
144
152
141
122
94
65
36
11
-5
-15
-20
-22
-20
-16
-11
-5
-3
-2
-2
-4
-4
-5
-4
-4
-4
-3
-2
-1
0
0
0
0
1
2
3
3
3
4
5
5
5
6
6
7
7
7
8
9
9
10
11
11
12
12
12
12
12
13
13
14
16
15
16
17
17
17
18
19
18
18
18
18
19
19
19
19
20
20
20
20
21
20
19
19
18
19
19
19
19
19
18
18
19
19
19
19
19
19
19
19
19
20
20
21
22
24
25
26
26
27
28
30
32
34
36
37
39
40
42
45
46
48
49
50
51
51
51
51
52
51
53
53
53
53
53
55
55
55
54
54
53
52
52
50
50
48
47
46
45
44
42
41
39
38
36
35
33
32
31
29
27
25
24
22
21
19
18
16
16
15
14
12
11
11
10
9
8
8
7
6
5
4
3
2
2
2
2
1
0
0
0
0
-1
-1
-1
-2
-3
-2
-2
-2
-3
-3
-4
-4
-5
-5
-5
-4
-4
-5
-5
-5
-6
-6
-6
-6
-6
-6
-7
-7
-6
-6
-7
-7
-6
-6
-7
-7
-8
-8
-7
-7
-8
-8
-9
-9
-9
-9
-8
-9
-9
-9
-9
-9
-10
-9
-10
-9
-9
-9
-9
-9
-10
-9
-9
-9
-10
-10
-10
-10
-10
-10
-9
-9
-9
-9
-9
-10
-10
-10
-10
-10
-10
-10
-10
-9
-8
-8
-8
-8
-8
-7
-7
-6
-7
-7
-6
-5
-6
-6
-6
-5
-5
-7
-7
-8
-8
-9
-10
-10
-11
-11
-11
-10
-10
-10
-9
-9
-8
-9
-9
-9
-8
-8
-8
-8
-7
-7
-7
-8
-7
-7
-7
-7
-7
-7
-7
-7
-7
-7
-8
-8
-8
-7
-6
-7
-7
-6
-6
-6
-6
-5
-5
-5
-5
-5
-5
-4
-5
-4
-4
-3
-4
-4
-4
-4
-4
-4
-3
-4
-4
-3
-3
-2
-2
-2
-2
-2
-2
-2
-2
-2
-2
-2
-2
-2
-2
-1
0
1
2
3
3
4
5
5
7
11
15
18
20
20
20
20
20
21
20
19
17
15
12
8
4
2
0
0
-1
-1
-2
-2
-2
-1
-1
-2
-4
-7
-10
-9
-3
7
24
48
75
107
135
151
153
137
117
90
64
37
14
0
-6
-9
-9
-8
-4
0
2
2
1
1
0
0
0
0
0
0
0
1
0
0
1
2
2
2
2
3
3
3
3
4
4
5
4
5
4
4
4
5
5
6
6
6
7
7
8
8
9
11
13
13
13
13
13
14
15
16
16
16
17
18
19
18
19
19
19
19
19
19
19
20
20
20
20
20
21
21
21
21
22
22
22
22
22
22
22
22
21
22
22
23
23
24
24
25
26
26
28
28
29
30
32
34
35
37
39
41
42
43
46
48
50
50
52
52
53
54
54
55
55
56
56
56
56
56
56
56
56
55
55
55
55
55
54
55
53
53
51
51
50
48
46
45
44
41
40
38
37
36
36
35
33
32
30
30
29
27
26
26
25
24
23
21
21
20
19
18
18
17
16
15
15
15
15
14
13
13
12
11
10
10
10
9
9
8
8
7
6
6
5
5
5
5
4
3
3
3
3
3
3
3
2
2
1
1
1
1
1
0
1
0
0
0
0
0
0
0
-1
-1
-1
-1
-1
-1
-1
-1
-1
-1
-2
-2
-2
-2
-2
-2
-3
-2
-3
-3
-3
-3
-3
-3
-4
-4
-3
-3
-3
-3
-3
-3
-3
-3
-3
-3
-3
-3
-3
-3
-4
-4
-4
-3
-3
-3
-2
-2
-2
-2
-2
-1
-1
-1
-1
0
1
0
1
1
1
1
2
2
1
1
0
0
0
-1
-2
-2
-3
-3
-3
-3
-3
-3
-3
-3
-3
-3
-3
-2
-3
-3
-2
-2
-2
-1
-2
-3
-2
-2
-3
-3
-3
-2
-2
-2
-2
-2
-2
-2
-2
-2
-2
-2
-1
-1
-2
-3
-2
-2
-2
-2
-1
-1
-1
-1
-2
-2
-2
-2
-2
-2
-2
-2
-2
-2
-3
-3
-3
-3
-4
-3
-4
-4
-3
-4
-4
-4
-3
-4
-4
-4
-4
-4
-4
-4
-4
-4
-4
-5
-4
-4
-3
-2
-2
-2
-1
-1
0
0
1
4
7
11
13
13
13
14
13
13
12
12
11
10
7
3
0
-2
-5
-5
-5
-6
-6
-6
-6
-7
-7
-7
-8
-12
-15
-16
-11
-1
15
38
65
95
122
142
141
130
110
86
61
34
13
0
-7
-10
-11
-11
-8
-4
-2
-2
-2
-3
-2
-2
-2
-3
-3
-3
-3
-2
-2
-2
-2
-2
-1
-1
-1
-2
-1
-1
-1
-2
-2
-1
-1
0
1
1
1
0
1
2
2
2
2
2
3
4
4
5
5
5
5
5
6
6
7
7
7
7
8
8
8
9
9
9
10
10
9
8
9
10
10
11
11
11
10
10
10
11
11
11
10
9
10
9
9
8
9
10
10
10
9
8
8
9
10
10
11
12
14
15
16
17
19
21
23
25
27
28
29
31
32
34
34
35
37
38
39
40
41
42
42
42
43
43
43
43
43
42
41
40
40
39
39
38
38
36
35
34
33
33
32
31
29
28
27
25
24
22
21
19
18
16
15
14
13
11
9
7
6
5
4
3
1
0
0
-1
-1
-2
-2
-3
-3
-4
-5
-5
-5
-6
-7
-7
-7
-7
-7
-7
-8
-8
-8
-8
-9
-10
-10
-11
-11
-11
-11
-12
-12
-12
-12
-12
-12
-13
-13
-13
-13
-13
-13
-13
-14
-15
-14
-15
-15
-16
-15
-14
-14
-14
-15
-15
-16
-15
-15
-14
-16
-17
-16
-15
-15
-15
-14
-14
-14
-14
-13
-12
-13
-13
-13
-12
-13
-13
-12
-12
-12
-12
-12
-12
-11
-11
-11
-11
-11
-11
-12
-12
-12
-11
-10
-10
-10
-10
-10
-11
-11
-10
-9
-9
-10
-10
-9
-9
-9
-8
-8
-8
-9
-9
-8
-8
-8
-9
-8
-8
-9
-10
-10
-11
-12
-12
-12
-12
-12
-12
-11
-12
-12
-13
-12
-11
-11
-11
-11
-11
-10
-10
-10
-10
-10
-10
-10
-10
-9
-10
-9
-9
-8
-8
-8
-8
-8
-8
-8
-8
-7
-7
-7
-7
-7
-7
-7
-7
-7
-7
-8
-8
-7
-6
-6
-7
-6
-5
-5
-6
-6
-5
-4
-4
-3
-2
-1
-1
-1
0
0
1
2
5
7
11
14
15
14
14
15
15
16
14
14
11
9
5
1
-1
-3
-4
-5
-6
-6
-7
-7
-7
-7
-7
-8
-11
-15
-16
-12
-2
13
36
66
96
123
138
133
118
94
71
47
22
3
-9
-17
-22
-23
-21
-16
-11
-7
-6
-6
-7
-8
-9
-9
-8
-8
-8
-8
-8
-8
-8
-8
-7
-7
-7
-6
-6
-6
-7
-6
-7
-6
-6
-7
-7
-7
-6
-7
-6
-6
-5
-5
-5
-5
-4
-4
-3
-3
-2
-2
-1
-1
-1
-1
-1
-1
0
1
1
2
2
2
2
2
3
4
5
5
6
7
7
6
7
7
7
7
7
7
6
6
6
7
6
7
7
7
7
7
8
7
7
7
8
8
9
10
10
11
12
13
15
16
17
19
21
22
24
25
28
29
31
32
33
34
35
37
37
39
39
41
41
42
43
43
44
43
44
43
42
41
40
40
39
39
38
37
36
35
33
32
31
30
29
27
26
24
22
20
19
18
16
14
12
11
9
7
6
6
5
5
4
4
4
4
3
3
2
2
1
1
1
0
0
-1
-1
-1
-2
-2
-2
-2
-4
-4
-4
-5
-5
-5
-5
-6
-6
-7
-7
-6
-6
-6
-6
-6
-6
-6
-6
-6
-5
-6
-6
-6
-6
-7
-7
-7
-7
-7
-7
-7
-7
-8
-8
-8
-9
-9
-9
-9
-9
-9
-9
-8
-9
-8
-9
-9
-8
-7
-6
-7
-7
-7
-7
-7
-7
-7
-6
-7
-7
-7
-7
-7
-6
-6
-6
-7
-7
-7
-6
-6
-6
-5
-5
-6
-7
-6
-5
-5
-6
-5
-5
-5
-6
-6
-5
-4
-4
-4
-3
-3
-4
-4
-3
-2
-2
-1
-1
0
0
0
0
0
0
0
0
-1
-1
-1
0
-1
-1
0
0
0
0
1
2
3
3
3
4
5
5
6
6
6
7
8
8
9
9
10
9
9
9
10
10
11
11
11
11
11
11
12
12
12
13
14
14
14
14
15
15
15
15
14
15
15
15
14
14
15
15
15
15
15
15
15
15
15
14
14
14
15
15
14
14
14
15
15
16
15
15
15
14
15
15
15
14
14
15
15
15
15
15
15
14
14
15
15
14
14
14
15
14
15
15
15
15
14
14
14
15
16
15
15
15
15
14
15
15
15
17
18
19
19
18
18
20
22
25
28
31
33
34
35
35
35
34
33
33
31
28
24
20
17
15
13
12
12
11
11
11
12
11
11
10
7
4
0
2
9
24
46
72
106
138
167
176
169
150
126
100
73
49
31
21
15
13
12
13
16
19
21
21
20
20
20
20
20
20
21
22
22
22
23
23
23
22
23
22
22
22
24
25
25
24
24
24
24
24
24
25
25
25
25
24
25
25
25
26
26
26
26
27
27
27
27
28
28
28
28
28
29
29
30
30
30
30
29
30
30
30
30
30
30
30
31
30
30
29
29
28
28
28
28
28
27
27
26
26
26
26
27
26
26
26
27
27
27
29
29
30
31
33
34
36
37
39
41
43
44
45
47
48
51
52
55
56
56
57
58
60
60
62
62
62
62
61
61
60
60
59
59
59
59
60
60
60
59
59
58
58
58
57
57
55
54
52
50
49
48
47
45
43
41
40
37
36
35
33
32
29
28
26
24
22
21
20
18
17
16
15
14
13
12
11
10
9
9
8
8
7
7
6
6
5
5
5
4
3
2
2
2
2
1
0
0
0
0
-1
-1
-2
-2
-2
-2
-3
-3
-4
-3
-3
-3
-4
-4
-4
-5
-5
-6
-6
-6
-6
-7
-6
-6
-7
-8
-8
-7
-7
-7
-7
-7
-7
-8
-7
-8
-8
-9
-9
-9
-9
-9
-10
-10
-10
-10
-10
-11
-10
-11
-11
-12
-11
-12
-12
-12
-12
-12
-12
-12
-12
-12
-11
-11
-11
-12
-12
-12
-11
-11
-11
-10
-10
-10
-11
-11
-10
-10
-9
-9
-9
-8
-8
-8
-7
-7
-7
-8
-8
-9
-9
-9
-10
-11
-11
-12
-12
-12
-12
-12
-13
-13
-13
-12
-13
-13
-12
-10
-11
-10
-10
-9
-9
-9
-9
-9
-8
-8
-8
-8
-8
-7
-8
-8
-8
-8
-8
-7
-7
-6
-6
-6
-6
-6
-6
-5
-4
-4
-5
-5
-5
-5
-5
-5
-4
-4
-3
-3
-4
-3
-3
-2
-2
-2
-3
-3
-4
-3
-2
-2
-2
-2
-3
-4
-4
-3
-3
-3
-2
-2
-2
-1
-2
-2
-2
-2
-3
-3
-2
-2
-2
-1
0
1
1
2
3
3
4
6
10
14
16
18
19
19
19
20
20
19
17
14
12
8
5
1
-1
-3
-5
-6
-5
-5
-5
-6
-6
-7
-7
-9
-13
-16
-14
-7
6
27
54
85
115
139
145
136
115
92
65
37
11
-5
-16
-22
-25
-24
-21
-14
-9
-5
-5
-5
-6
-7
-7
-7
-7
-6
-5
-4
-4
-4
-4
-3
-3
-3
-3
-2
-2
-1
-1
-1
0
0
0
0
0
1
2
2
2
2
2
3
4
4
4
5
5
5
5
5
6
7
8
8
8
8
9
9
9
10
11
11
11
11
11
12
12
12
13
14
13
13
13
13
12
13
13
14
13
13
13
13
13
12
13
13
13
13
13
14
13
13
14
15
15
16
17
19
20
19
21
23
27
28
30
31
33
34
36
38
39
42
43
45
46
48
48
48
49
48
49
49
49
49
49
48
47
48
46
45
45
44
43
41
41
40
40
38
37
36
36
35
34
33
32
31
30
29
27
25
24
22
21
19
17
16
15
14
11
10
9
8
7
6
5
3
2
1
0
0
0
-1
-2
-2
-3
-3
-4
-4
-4
-4
-4
-5
-6
-7
-8
-8
-8
-8
-9
-8
-9
-9
-10
-11
-10
-11
-11
-12
-12
-11
-11
-12
-12
-11
-12
-12
-12
-12
-12
-12
-12
-11
-11
-11
-10
-10
-10
-11
-11
-11
-11
-11
-11
-11
-11
-12
-12
-12
-12
-12
-12
-12
-12
-12
-13
-12
-12
-12
-13
-12
-13
-13
-14
-14
-13
-14
-14
-14
-14
-14
-14
-15
-14
-13
-13
-14
-14
-14
-14
-15
-14
-14
-13
-14
-13
-12
-12
-12
-11
-11
-10
-10
-10
-9
-9
-9
-10
-9
-8
-8
-9
-9
-9
-9
-9
-9
-10
-11
-11
-11
-11
-10
-10
-10
-10
-10
-9
-9
-8
-7
-7
-7
-7
-6
-6
-6
-6
-5
-5
-5
-6
-6
-5
-5
-4
-4
-4
-4
-5
-5
-4
-3
-3
-3
-2
-2
-2
-2
-2
-1
-1
-1
-1
-1
-1
-1
-1
0
0
-1
0
0
0
0
0
0
0
0
0
0
0
0
1
1
1
1
1
2
2
3
3
2
2
2
2
3
4
4
4
3
4
5
5
5
5
6
5
5
5
5
7
8
10
11
12
13
13
13
15
17
21
24
27
29
29
31
31
30
30
28
28
27
25
22
18
15
12
11
10
9
8
7
7
7
7
6
6
4
1
-2
-3
1
11
29
52
81
112
144
164
170
162
143
118
92
65
40
23
12
7
5
5
7
10
14
14
14
13
12
13
12
12
12
12
12
12
14
14
15
14
15
15
15
15
16
17
17
18
17
17
17
17
18
18
19
19
19
19
19
19
20
21
22
22
22
23
24
24
25
25
26
26
27
27
28
28
28
28
28
29
29
30
30
31
31
31
31
31
32
32
32
31
31
30
30
30
30
30
30
30
29
28
28
28
29
28
28
29
30
30
30
31
31
33
33
34
34
36
36
38
40
41
43
44
45
46
49
50
52
53
54
57
57
59
59
60
60
61
62
62
62
62
62
61
61
61
61
61
60
59
58
58
56
55
55
54
54
53
52
51
50
49
49
49
47
45
43
42
40
39
37
36
34
32
31
30
28
27
25
25
23
22
20
20
19
17
16
14
15
14
14
12
12
11
10
10
9
8
8
7
7
7
6
5
5
4
4
4
3
2
1
0
1
1
1
0
0
0
-1
-2
-2
-1
-2
-2
-3
-3
-3
-3
-3
-4
-4
-4
-4
-5
-5
-6
-6
-6
-5
-6
-7
-7
-7
-8
-9
-9
-9
-10
-10
-10
-9
-9
-10
-10
-10
-9
-10
-10
-11
-12
-12
-12
-12
-12
-12
-13
-13
-13
-12
-13
-13
-14
-14
-14
-15
-15
-15
-14
-15
-14
-14
-14
-14
-15
-14
-14
-14
-13
-13
-12
-12
-12
-12
-11
-11
-11
-10
-10
-10
-10
-10
-10
-10
-11
-12
-12
-13
-14
-14
-14
-13
-13
-13
-12
-13
-13
-12
-11
-11
-11
-10
-11
-10
-11
-11
-10
-10
-9
-10
-10
-9
-9
-9
-9
-8
-8
-9
-9
-8
-8
-8
-8
-8
-7
-7
-7
-7
-7
-6
-7
-7
-6
-6
-7
-6
-6
-6
-6
-6
-5
-5
-5
-5
-5
-5
-6
-6
-7
-7
-8
-7
-7
-7
-7
-7
-7
-6
-6
-6
-6
-6
-7
-7
-7
-6
-7
-7
-7
-6
-6
-6
-5
-6
-5
-5
-5
-5
-6
-6
-6
-5
-4
-3
-2
-2
-2
-2
-1
0
2
5
8
10
13
14
14
12
12
12
11
10
9
7
3
0
-4
-6
-8
-9
-9
-10
-10
-11
-11
-11
-12
-13
-15
-19
-21
-19
-11
3
26
53
85
115
137
139
126
101
76
48
22
1
-11
-19
-22
-24
-22
-18
-12
-8
-7
-8
-9
-9
-9
-9
-9
-8
-8
-8
-7
-7
-6
-7
-7
-7
-7
-6
-5
-4
-3
-3
-4
-4
-4
-3
-2
-2
-1
0
0
-1
0
0
1
2
2
3
3
3
4
4
5
5
5
6
7
7
7
9
9
9
10
11
11
11
11
10
12
13
13
13
13
14
13
12
12
12
13
12
12
11
11
11
11
11
11
11
11
10
11
11
12
12
13
12
13
13
15
16
16
18
19
21
22
25
27
28
30
32
34
35
36
38
40
41
43
43
44
45
46
46
46
47
47
47
47
48
48
48
49
48
48
47
46
47
45
45
44
44
42
40
40
39
39
36
34
33
32
30
29
28
25
23
21
20
19
18
16
15
14
12
10
9
9
8
7
7
6
5
5
4
3
3
3
1
1
1
1
0
0
0
-1
-1
-2
-1
-2
-3
-3
-3
-3
-3
-4
-4
-5
-5
-5
-5
-5
-6
-6
-6
-6
-6
-6
-7
-7
-6
-6
-7
-6
-7
-7
-8
-8
-8
-9
-9
-8
-8
-8
-8
-9
-9
-9
-10
-10
-11
-11
-11
-11
-11
-11
-11
-11
-10
-10
-11
-11
-12
-11
-10
-10
-10
-10
-10
-11
-10
-10
-9
-9
-10
-9
-10
-9
-9
-9
-10
-9
-10
-9
-9
-9
-9
-9
-8
-8
-8
-8
-7
-7
-7
-7
-6
-5
-6
-7
-6
-5
-5
-6
-6
-5
-5
-6
-6
-6
-7
-7
-8
-8
-9
-11
-10
-11
-10
-11
-10
-10
-10
-10
-10
-10
-10
-10
-10
-10
-9
-10
-10
-10
-9
-8
-7
-7
-6
-7
-7
-8
-8
-7
-7
-7
-7
-7
-7
-7
-7
-7
-7
-7
-6
-6
-5
-6
-6
-6
-5
-5
-5
-5
-5
-5
-5
-6
-6
-5
-5
-5
-4
-4
-5
-5
-3
-2
-3
-3
-3
-3
-4
-4
-4
-4
-2
-3
-3
-3
-1
-2
-1
0
1
3
3
3
4
4
4
6
8
11
15
17
20
20
20
18
19
19
18
17
16
13
9
5
2
0
-1
-2
-3
-3
-3
-2
-3
-2
-2
-3
-5
-9
-11
-10
-3
9
30
55
83
112
137
149
147
131
110
83
57
32
12
0
-6
-9
-10
-9
-6
-2
0
0
0
-2
-2
-2
-2
-1
-2
-1
-1
-2
-2
-1
-1
-1
-1
0
0
0
0
0
0
1
0
0
1
1
1
0
1
2
3
2
3
3
4
4
5
6
7
8
8
8
9
9
10
11
11
12
12
13
14
14
14
15
15
15
15
16
17
17
17
17
17
18
17
17
18
17
18
17
18
19
19
19
19
20
20
19
19
19
20
20
21
21
21
21
22
22
23
24
25
26
27
29
30
32
33
35
37
38
41
42
43
44
47
49
50
50
51
52
52
54
54
55
55
55
55
55
56
54
54
53
53
53
52
52
50
50
48
48
46
45
43
42
41
39
38
36
35
33
32
30
29
28
26
24
22
20
20
19
18
17
16
15
15
15
15
14
13
13
13
11
10
10
10
9
8
7
7
7
6
5
5
4
4
3
3
3
2
2
1
1
1
0
0
0
0
0
-1
-1
-1
-2
-2
-2
-2
-3
-3
-4
-4
-4
-4
-3
-3
-4
-4
-3
-3
-4
-4
-4
-3
-4
-4
-5
-5
-5
-5
-5
-5
-5
-5
-5
-6
-6
-6
-6
-7
-7
-7
-8
-7
-7
-7
-8
-8
-8
-8
-8
-9
-8
-9
-9
-9
-9
-9
-10
-11
-11
-10
-11
-11
-11
-11
-10
-11
-10
-11
-11
-11
-11
-11
-11
-11
-11
-11
-11
-11
-11
-10
-10
-11
-12
-12
-12
-12
-13
-14
-14
-15
-15
-15
-15
-15
-15
-15
-14
-14
-13
-13
-13
-12
-11
-11
-11
-11
-11
-11
-10
-8
-8
-8
-7
-7
-7
-6
-6
-6
-6
-6
-7
-7
-5
-5
-5
-4
-4
-4
-5
-5
-4
-4
-3
-4
-4
-3
-3
-3
-4
-3
-3
-3
-3
-2
-2
-3
-3
-3
-2
-2
-2
-2
-2
-2
-2
-1
-1
-2
-2
-2
-2
-1
-2
-2
-1
-1
-2
-2
-1
-1
-2
-2
-2
-2
-2
-2
-3
-2
-2
-2
-2
-2
-2
-2
-2
-2
-2
-2
-2
-2
-1
-2
-2
-2
-2
-2
-3
-3
-2
-2
-1
-2
-1
-2
-3
-3
-3
-2
-1
0
0
0
1
1
1
2
3
6
10
12
14
15
16
16
16
15
15
14
13
11
8
4
0
-2
-5
-5
-6
-7
-8
-7
-7
-7
-8
-8
-11
-14
-17
-17
-10
2
23
50
82
113
142
154
150
135
111
86
58
33
13
0
-5
-9
-9
-8
-4
0
1
1
1
0
-1
-1
-1
0
1
1
1
1
2
1
1
1
1
1
2
2
3
4
3
3
3
3
3
3
4
4
4
5
5
6
6
6
6
6
7
7
8
9
10
10
10
10
11
10
11
12
12
12
13
13
13
13
13
14
14
15
15
15
16
16
15
15
16
16
16
15
16
16
15
15
15
16
16
16
17
17
17
17
17
17
18
18
19
19
19
20
21
23
24
25
26
27
29
31
32
34
37
39
42
45
49
49
50
51
52
55
56
57
58
58
58
57
59
59
59
58
58
59
58
57
56
57
56
56
54
54
53
51
51
50
49
47
45
43
42
42
39
38
35
33
32
31
31
28
27
25
24
23
21
20
20
19
18
17
16
15
14
13
12
12
12
12
11
11
10
10
10
9
8
7
6
6
6
5
5
6
6
5
4
4
4
4
3
2
2
2
2
2
2
2
1
1
1
1
1
1
1
1
0
0
0
0
0
0
0
0
0
0
0
0
0
0
0
0
0
0
-1
0
-1
-2
-2
-1
0
0
0
0
0
0
-1
0
1
1
1
1
1
2
2
2
2
2
1
1
2
2
3
3
3
3
3
2
3
3
3
2
2
3
3
3
4
4
4
4
4
5
4
5
5
6
6
6
5
5
4
4
3
2
1
0
-1
-1
-1
-1
-2
-2
-2
-1
-1
-1
-1
0
0
0
0
-1
0
0
-1
-1
0
0
0
0
0
0
0
0
1
1
0
0
0
0
0
0
1
1
1
1
2
2
2
2
3
3
3
3
2
3
4
3
3
3
3
4
4
3
3
3
3
4
5
6
7
8
9
9
9
9
10
12
15
19
20
22
23
24
25
24
24
23
23
22
19
14
11
7
4
2
1
0
0
0
0
0
0
-1
-1
-3
-6
-9
-8
0
14
36
62
91
119
141
146
137
115
92
67
42
18
0
-11
-17
-19
-18
-15
-10
-5
-2
-2
-3
-3
-4
-4
-4
-5
-5
-5
-5
-5
-5
-5
-5
-5
-4
-4
-4
-5
-5
-4
-4
-4
-5
-5
-5
-5
-5
-5
-3
-4
-3
-2
-1
-1
-1
-1
0
0
0
0
1
1
1
3
4
3
4
4
5
5
5
5
6
7
7
8
7
7
8
8
9
9
10
10
10
10
11
10
11
11
11
11
11
12
12
11
11
11
13
13
13
13
14
14
14
15
16
18
18
20
21
23
24
26
28
31
33
34
35
37
38
39
42
44
45
46
48
49
49
50
49
51
51
51
51
51
51
51
52
52
53
52
52
51
50
51
49
48
47
47
45
43
42
40
38
36
34
33
31
30
28
27
25
23
22
20
19
18
17
14
12
10
9
9
8
7
6
5
4
2
2
2
3
2
1
0
0
0
-1
-1
-1
-1
-2
-2
-1
-2
-3
-3
-3
-4
-4
-4
-4
-4
-5
-4
-4
-5
-5
-6
-5
-5
-6
-6
-6
-6
-6
-6
-6
-5
-5
-5
-6
-6
-6
-6
-6
-5
-6
-7
-6
-6
-5
-5
-5
-5
-5
-5
-6
-5
-5
-4
-5
-5
-5
-5
-5
-6
-6
-5
-4
-5
-6
-5
-6
-5
-5
-4
-4
-5
-5
-5
-5
-5
-5
-5
-4
-4
-4
-4
-4
-3
-4
-3
-3
-2
-2
-2
-2
-1
-1
-1
-1
-1
0
1
1
2
2
1
1
2
2
1
1
2
1
1
0
0
0
0
0
0
0
0
0
0
1
2
2
2
1
1
1
1
1
1
1
2
2
2
1
1
2
3
3
3
3
3
3
3
4
3
4
3
3
3
3
3
3
3
3
3
3
3
3
4
4
4
4
4
4
3
4
3
3
3
4
4
3
4
4
4
3
2
2
3
3
3
3
3
3
3
3
4
5
5
4
5
4
6
7
9
10
10
10
10
10
12
16
20
24
26
26
27
27
27
27
26
26
24
22
18
13
9
5
4
3
2
1
1
1
1
1
0
-1
-4
-8
-11
-9
-2
11
34
63
96
130
157
167
165
144
121
91
63
37
18
7
0
-3
-4
-5
-1
3
5
5
4
3
2
2
1
2
2
2
2
2
2
2
2
3
4
3
3
4
4
4
4
4
5
6
5
5
5
4
3
4
6
7
8
8
8
9
9
9
9
10
11
11
12
12
12
12
13
14
15
14
14
15
15
16
16
16
16
16
16
17
17
17
16
16
16
16
16
16
16
16
16
15
15
15
15
15
15
15
14
13
13
14
14
14
14
15
15
15
15
16
17
18
19
22
23
25
27
28
31
34
37
39
41
42
44
46
47
48
48
50
50
50
50
50
50
50
50
50
51
51
51
51
49
49
48
48
47
47
46
44
42
40
39
37
37
35
34
32
30
28
27
26
25
23
21
19
18
17
16
14
12
10
9
7
6
5
4
3
2
2
0
-1
-2
-3
-4
-4
-5
-4
-4
-5
-6
-6
-7
-7
-8
-9
-9
-9
-9
-10
-10
-11
-11
-11
-11
-11
-12
-12
-13
-13
-13
-13
-13
-12
-13
-13
-13
-14
-14
-15
-15
-15
-15
-15
-15
-15
-14
-15
-14
-14
-14
-15
-15
-15
-14
-14
-14
-14
-15
-15
-15
-14
-13
-13
-14
-14
-14
-14
-13
-12
-12
-13
-14
-14
-13
-13
-13
-13
-13
-13
-14
-13
-12
-12
-12
-12
-11
-12
-12
-12
-12
-11
-12
-11
-11
-11
-11
-11
-10
-11
-11
-11
-11
-11
-11
-11
-11
-11
-11
-11
-12
-12
-13
-14
-14
-14
-15
-16
-18
-19
-19
-18
-19
-20
-20
-19
-20
-20
-20
-21
-21
-21
-19
-19
-18
-18
-18
-17
-17
-17
-17
-16
-16
-16
-16
-15
-17
-17
-17
-15
-15
-15
-15
-15
-15
-16
-16
-14
-14
-13
-13
-14
-15
-14
-14
-14
-14
-14
-14
-14
-14
-14
-14
-14
-14
-13
-13
-13
-12
-12
-11
-11
-9
-8
-6
-6
-6
-6
-5
-4
-3
0
3
6
8
9
8
8
7
7
6
4
2
0
-3
-7
-11
-14
-16
-16
-17
-17
-17
-17
-17
-17
-16
-17
-19
-22
-24
-21
-14
0
22
46
74
101
121
127
113
93
68
46
21
0
-16
-27
-32
-34
-35
-31
-26
-20
-18
-18
-18
-19
-20
-21
-20
-20
-20
-21
-21
-21
-21
-21
-21
-22
-22
-22
-21
-21
-20
-20
-20
-20
-20
-20
-21
-20
-20
-20
-19
-19
-19
-19
-18
-17
-18
-18
-18
-17
-16
-16
-16
-15
-15
-15
-16
-14
-14
-14
-13
-13
-13
-13
-13
-12
-12
-12
-12
-12
-12
-12
-12
-12
-12
-12
-12
-12
-12
-12
-12
-12
-11
-11
-11
-12
-12
-12
-12
-12
-12
-11
-12
-12
-11
-10
-9
-8
-8
-7
-7
-6
-4
-2
-1
1
3
6
8
9
11
14
16
18
19
21
23
24
26
28
30
29
30
30
31
31
30
30
30
30
29
28
28
28
27
26
25
23
22
20
19
19
18
17
15
13
11
9
7
6
4
2
1
0
-1
-3
-4
-5
-6
-8
-10
-10
-11
-13
-14
-15
-15
-17
-18
-19
-19
-20
-21
-21
-22
-23
-23
-24
-24
-24
-25
-26
-26
-27
-27
-26
-27
-27
-28
-29
-29
-28
-28
-28
-28
-27
-28
-29
-29
-29
-29
-30
-30
-30
-31
-32
-32
-31
-31
-32
-32
-32
-32
-34
-33
-34
-32
-33
-32
-33
-32
-32
-33
-33
-33
-32
-33
-32
-32
-32
-32
-32
-32
-32
-31
-32
-31
-31
-31
-30
-30
-29
-30
-30
-29
-29
-29
-29
-29
-29
-28
-28
-28
-27
-27
-27
-28
-28
-28
-27
-27
-27
-26
-27
-26
-26
-24
-24
-24
-24
-23
-23
-24
-23
-22
-22
-22
-21
-21
-21
-21
-22
-21
-22
-22
-22
-21
-21
-23
-23
-24
-24
-24
-24
-25
-24
-24
-24
-23
-23
-22
-22
-21
-21
-21
-21
-21
-20
-20
-20
-20
-19
-18
-18
-18
-18
-17
-17
-17
-17
-16
-16
-16
-16
-15
-15
-15
-15
-15
-15
-16
-16
-15
-15
-15
-16
-15
-15
-15
-14
-14
-13
-13
-13
-12
-12
-12
-12
-11
-11
-11
-11
-10
-10
-9
-9
-8
-6
-4
-3
-4
-3
-2
-1
1
4
8
10
12
12
12
12
12
12
12
11
9
7
3
0
-4
-6
-7
-7
-8
-7
-8
-8
-8
-8
-7
-8
-9
-12
-15
-13
-3
13
37
67
99
130
151
155
144
122
98
73
48
24
7
-2
-7
-10
-10
-8
-3
0
0
-1
-1
-2
-2
-3
-3
-2
-2
-2
-1
0
0
-1
-1
-1
0
0
0
0
0
0
0
0
0
0
1
2
3
3
2
3
4
5
6
6
7
7
8
8
9
10
11
11
12
13
14
15
16
16
16
17
18
19
19
18
19
20
21
21
22
23
22
23
22
23
23
23
24
23
23
22
22
22
23
23
23
23
23
23
22
22
22
23
24
23
24
24
24
25
26
27
28
30
31
32
33
36
37
39
40
41
42
43
45
45
47
48
49
50
50
51
52
52
52
53
53
53
53
53
54
54
53
52
53
52
52
52
51
51
50
50
49
49
48
46
46
44
43
42
41
39
38
39
38
38
37
36
35
33
33
32
31
29
28
27
26
24
24
23
22
21
20
20
19
18
17
17
18
17
16
16
16
14
14
14
13
12
12
13
13
12
12
12
12
12
12
11
12
11
10
10
10
10
9
10
10
10
9
9
9
10
10
10
9
10
10
9
9
9
9
9
8
8
8
8
7
7
8
8
8
7
7
7
7
7
6
5
6
7
7
7
6
6
6
7
6
5
5
5
5
5
4
4
3
3
3
3
3
2
2
2
2
2
2
1
1
1
1
1
0
0
1
1
1
1
1
0
0
0
0
0
0
1
0
-1
-2
-2
-2
-3
-4
-5
-5
-6
-7
-8
-7
-8
-8
-8
-8
-8
-8
-8
-7
-8
-8
-9
-8
-9
-8
-8
-8
-7
-7
-7
-7
-6
-7
-6
-6
-5
-5
-5
-4
-4
-4
-5
-5
-5
-4
-4
-4
-3
-4
-4
-4
-4
-4
-4
-3
-4
-4
-4
-5
-3
-3
-3
-4
-4
-4
-4
-5
-5
-4
-3
-3
-4
-4
-4
-4
-4
-4
-4
-5
-5
-5
-4
-5
-5
-5
-4
-4
-5
-4
-4
-4
-5
-5
-5
-4
-4
-4
-4
-4
-3
-3
-2
-2
-3
-3
-3
-2
-3
-2
-1
0
0
1
1
2
2
2
3
5
8
12
15
17
18
18
17
17
18
18
17
15
12
8
4
0
-1
-1
-3
-4
-4
-4
-4
-4
-4
-4
-5
-9
-13
-16
-15
-9
3
23
52
83
115
136
144
139
120
98
71
45
21
3
-7
-15
-19
-18
-15
-10
-5
-2
-1
-1
-2
-3
-2
-2
-2
-2
-1
-1
-1
0
0
0
0
0
0
1
2
2
3
3
4
4
3
4
5
5
5
6
8
10
9
9
9
10
10
11
12
12
12
13
15
15
16
15
16
17
18
19
19
20
20
20
20
21
21
22
23
23
24
23
24
24
25
26
26
26
25
25
25
26
26
26
26
27
27
26
26
27
28
27
27
27
28
29
29
30
30
32
33
35
36
38
39
40
42
44
47
48
50
51
52
54
56
58
58
58
59
60
61
61
62
62
63
63
63
63
63
63
62
63
62
63
61
61
61
62
62
60
61
59
59
58
58
58
56
55
53
53
51
50
49
48
47
44
43
42
41
39
39
37
36
35
33
32
31
31
30
29
28
27
26
25
26
25
24
24
24
23
22
21
21
21
20
20
20
19
19
18
19
19
19
18
17
17
17
18
17
17
18
18
18
17
18
17
17
17
17
17
17
18
18
18
18
18
18
17
17
17
18
17
18
17
17
16
16
16
16
16
16
16
15
16
16
15
15
15
15
15
15
15
16
17
16
16
16
16
16
16
16
16
15
15
15
15
15
16
16
16
15
15
15
16
16
16
16
17
17
17
17
17
18
17
18
18
18
18
18
19
19
19
19
19
19
18
18
17
17
16
16
16
15
13
13
15
15
15
15
16
16
16
16
16
17
16
15
15
16
17
16
16
15
16
15
16
16
16
16
16
15
15
15
15
15
15
15
15
16
16
16
16
16
16
15
15
14
15
15
14
14
13
14
15
15
14
14
14
13
13
13
13
13
13
14
13
13
13
13
13
13
14
13
13
13
13
13
13
14
13
13
13
14
13
14
14
14
14
15
15
15
16
17
19
19
19
19
20
21
22
26
29
33
34
36
36
36
35
35
35
35
34
32
28
24
20
18
16
15
14
13
13
14
14
13
13
12
10
6
4
5
12
26
45
71
97
128
153
163
159
139
119
94
70
46
27
16
10
8
7
9
13
17
19
18
18
17
17
16
16
16
16
17
17
17
17
17
18
19
20
19
19
19
19
19
19
19
20
20
21
21
22
21
21
22
22
22
23
23
23
24
25
25
26
26
26
27
28
28
28
28
29
30
31
31
32
32
32
32
32
32
33
33
33
34
34
35
34
34
34
35
35
34
35
34
35
34
35
36
35
35
34
35
34
34
34
35
35
35
34
34
35
35
37
37
38
38
39
41
42
44
44
46
47
48
50
52
54
53
54
54
56
56
57
57
58
60
60
60
59
59
59
59
60
60
60
59
59
58
58
59
57
58
57
57
56
55
54
54
54
52
52
50
49
46
45
45
43
42
41
40
39
38
38
37
36
35
35
34
33
32
32
31
31
30
29
29
28
27
26
26
25
24
24
23
24
23
22
22
22
21
20
20
20
20
19
18
17
18
17
16
16
16
15
15
15
15
15
15
14
14
14
13
13
13
13
12
12
12
12
11
11
11
11
11
10
11
11
11
10
10
9
9
9
9
9
9
9
9
8
7
7
7
6
6
7
7
6
7
7
6
6
5
6
5
4
4
4
3
3
3
3
2
2
1
1
1
0
0
0
0
0
0
0
0
0
0
0
0
0
0
0
1
1
0
0
0
0
-1
-1
-1
-2
-3
-4
-5
-5
-5
-5
-5
-5
-5
-5
-5
-5
-5
-5
-4
-3
-3
-2
-2
-2
-3
-3
-3
-3
-2
-3
-3
-2
-2
-2
-2
-1
0
0
0
0
0
0
0
0
0
0
0
0
1
0
0
-1
-1
0
0
0
0
0
0
0
0
0
0
0
0
0
0
0
0
0
0
-1
-1
-2
-1
-1
-2
-1
-2
-2
-3
-2
-2
-2
-3
-4
-3
-2
-2
-2
-3
-3
-4
-4
-5
-5
-4
-5
-4
-3
-4
-5
-5
-4
-5
-6
-6
-6
-7
-7
-7
-6
-5
-5
-5
-5
-4
-4
-3
-2
-2
-1
-2
-2
-1
0
3
6
9
12
12
12
11
10
10
10
9
8
5
2
-2
-5
-7
-8
-11
-13
-13
-13
-13
-13
-13
-13
-14
-16
-19
-22
-22
-16
-2
18
44
71
98
124
136
134
115
91
67
41
17
-3
-17
-24
-27
-26
-24
-20
-14
-10
-9
-10
-10
-10
-10
-10
-10
-10
-10
-10
-10
-9
-9
-9
-9
-9
-8
-8
-7
-6
-6
-6
-5
-5
-5
-5
-4
-3
-2
-2
-3
-3
-2
-2
-1
-1
-1
0
0
0
1
3
4
3
3
4
5
5
5
6
6
6
7
7
8
8
8
9
9
9
10
11
10
10
9
9
10
9
9
9
9
9
9
10
9
10
10
9
9
9
9
9
9
10
10
10
11
12
12
13
14
14
16
17
18
19
20
22
23
25
27
28
29
30
31
32
34
34
36
36
37
37
38
39
37
37
36
37
36
36
36
37
38
37
37
37
37
37
37
37
36
36
34
34
33
32
31
30
29
28
27
25
24
23
22
20
19
17
15
14
12
11
11
11
9
6
4
3
2
2
1
0
-1
-1
-2
-2
-3
-3
-3
-3
-4
-4
-4
-5
-5
-5
-6
-6
-6
-6
-6
-6
-7
-7
-7
-7
-8
-8
-8
-8
-8
-8
-9
-9
-9
-9
-9
-9
-9
-9
-9
-9
-9
-10
-10
-10
-10
-9
-9
-9
-9
-8
-9
-9
-8
-8
-9
-9
-8
-9
-9
-9
-9
-8
-8
-8
-8
-8
-9
-9
-8
-8
-8
-8
-8
-8
-9
-9
-9
-9
-9
-9
-10
-9
-9
-9
-9
-8
-9
-8
-8
-7
-7
-7
-8
-7
-7
-8
-7
-6
-5
-5
-5
-5
-5
-5
-4
-4
-4
-4
-3
-3
-3
-3
-3
-4
-5
-5
-5
-5
-6
-7
-7
-7
-8
-7
-7
-7
-7
-7
-7
-7
-7
-7
-6
-6
-6
-6
-6
-5
-5
-5
-4
-4
-4
-5
-5
-5
-5
-5
-5
-5
-5
-5
-5
-5
-6
-6
-6
-5
-5
-5
-5
-7
-7
-7
-7
-6
-6
-5
-6
-6
-6
-6
-6
-7
-7
-6
-6
-6
-6
-5
-6
-6
-6
-5
-5
-5
-5
-5
-5
-5
-4
-4
-4
-5
-5
-4
-4
-5
-6
-6
-5
-5
-4
-3
-2
-1
-1
0
0
1
1
1
4
8
11
14
15
15
14
14
15
15
14
13
11
9
5
1
-2
-4
-5
-6
-7
-8
-7
-7
-7
-8
-8
-9
-11
-16
-17
-16
-10
4
26
53
84
113
138
151
144
129
102
77
49
25
6
-6
-13
-16
-17
-14
-10
-6
-5
-5
-5
-6
-7
-7
-7
-7
-8
-8
-8
-7
-7
-7
-8
-8
-9
-9
-8
-8
-7
-7
-7
-6
-6
-7
-7
-6
-6
-6
-6
-4
-4
-3
-3
-3
-2
-2
-2
-2
-1
-1
-2
0
0
0
1
1
2
2
2
3
4
4
4
4
5
6
6
6
7
8
8
8
8
9
9
9
8
9
9
9
9
10
10
9
9
8
9
8
9
8
8
7
7
8
10
10
10
11
13
14
14
14
15
17
19
20
22
23
25
26
27
30
32
33
33
35
36
37
38
38
40
40
41
42
42
42
42
43
43
43
43
43
42
42
42
40
40
38
38
37
36
36
35
35
34
33
32
32
30
30
29
28
27
26
24
23
22
20
18
16
15
14
13
12
11
10
8
7
6
6
5
4
3
3
2
1
1
0
0
0
0
0
-1
-2
-2
-2
-2
-3
-4
-5
-5
-4
-5
-4
-5
-5
-5
-5
-5
-6
-6
-7
-6
-6
-7
-7
-7
-7
-8
-8
-8
-8
-8
-8
-8
-8
-8
-9
-9
-10
-10
-9
-10
-9
-9
-9
-9
-9
-9
-9
-9
-9
-8
-9
-10
-10
-10
-9
-9
-9
-9
-10
-10
-10
-10
-10
-11
-11
-11
-12
-12
-12
-12
-12
-12
-12
-12
-12
-12
-12
-11
-11
-11
-12
-11
-11
-11
-12
-11
-11
-10
-9
-9
-8
-8
-8
-7
-6
-7
-6
-6
-7
-7
-7
-7
-7
-7
-8
-9
-9
-8
-8
-9
-9
-9
-8
-8
-8
-6
-7
-6
-6
-5
-4
-4
-4
-3
-3
-3
-3
-2
-2
-2
-2
-2
-2
-2
-2
-3
-2
-2
-2
-2
-1
-1
-1
0
0
1
0
0
0
0
0
0
0
0
0
0
0
0
0
1
1
1
1
1
0
1
1
1
1
1
2
1
1
1
1
1
0
0
0
0
0
0
0
0
0
0
0
0
-1
-1
-1
-1
-2
-2
-1
-1
-1
-1
-2
-1
-1
-2
-2
-2
0
1
2
3
3
3
3
4
5
8
11
14
17
18
19
20
20
20
19
18
18
16
15
11
7
3
0
-2
-3
-5
-6
-6
-6
-6
-6
-6
-7
-10
-14
-17
-17
-11
0
20
48
77
110
138
152
151
131
108
79
51
26
5
-7
-13
-16
-16
-14
-10
-6
-3
-3
-3
-3
-3
-4
-4
-4
-4
-3
-3
-3
-2
-2
-2
-2
-2
-1
-1
0
0
0
0
0
0
0
0
1
1
2
2
2
3
4
4
5
5
5
5
5
5
6
5
6
7
8
8
9
9
9
10
10
11
11
12
12
13
14
13
13
12
13
14
14
14
14
13
12
12
12
13
13
13
12
12
12
11
11
11
12
12
12
11
11
11
11
11
12
12
13
14
14
15
15
17
19
20
20
21
22
23
25
27
27
28
28
30
31
32
33
34
36
36
38
39
40
40
40
41
40
41
40
40
40
39
40
39
38
37
37
36
36
34
32
31
30
29
27
26
24
23
21
20
19
18
17
15
14
12
11
9
8
6
5
4
2
1
0
0
0
-1
-2
-2
-3
-4
-6
-7
-7
-7
-7
-8
-8
-9
-10
-11
-12
-11
-12
-12
-13
-13
-14
-14
-14
-14
-15
-15
-14
-14
-14
-14
-14
-15
-16
-16
-16
-15
-15
-16
-16
-16
-17
-17
-17
-17
-17
-17
-16
-18
-19
-19
-19
-19
-19
-18
-18
-18
-18
-19
-19
-19
-18
-18
-18
-18
-18
-18
-19
-18
-18
-17
-17
-17
-17
-17
-17
-17
-17
-17
-17
-17
-16
-16
-16
-17
-17
-16
-16
-16
-16
-15
-16
-16
-16
-16
-16
-16
-16
-15
-14
-15
-15
-15
-14
-14
-13
-13
-13
-13
-13
-13
-13
-13
-13
-14
-13
-14
-14
-15
-16
-16
-17
-17
-18
-18
-18
-18
-18
-18
-17
-17
-17
-17
-16
-15
-15
-16
-16
-16
-15
-15
-15
-15
-15
-14
-13
-13
-13
-13
-13
-12
-12
-12
-12
-11
-11
-10
-10
-10
-10
-10
-10
-10
-9
-9
-9
-8
-8
-8
-8
-8
-7
-7
-7
-7
-7
-7
-7
-7
-7
-6
-6
-6
-6
-7
-7
-7
-7
-6
-6
-5
-5
-4
-3
-2
0
0
1
1
1
2
4
6
9
13
16
18
19
19
18
19
18
18
17
15
14
10
6
3
0
0
-1
-2
-2
-3
-2
-2
-2
-2
-2
-3
-6
-10
-9
-5
7
25
50
78
108
137
153
156
140
118
92
66
40
17
2
-6
-10
-11
-10
-6
-1
2
2
1
1
0
0
0
0
0
0
0
0
0
0
0
0
1
1
1
1
1
1
2
2
3
3
3
3
3
4
4
5
5
6
7
7
7
8
9
9
10
11
12
12
12
13
14
14
14
15
16
17
18
18
18
18
19
20
20
21
21
21
21
21
21
21
22
22
22
22
23
23
22
22
22
23
22
22
21
21
21
21
21
22
22
22
23
23
24
24
25
26
27
29
29
31
32
34
34
36
38
40
42
43
45
46
47
48
50
51
51
53
54
55
54
54
54
54
55
55
55
54
53
51
51
51
51
51
50
50
49
47
47
47
48
46
46
43
42
40
39
38
36
35
32
30
28
27
25
23
21
19
18
16
16
15
14
13
12
13
13
12
11
10
10
9
8
7
7
6
5
4
4
3
3
3
3
2
1
1
0
0
0
0
0
0
-1
-2
-1
-1
-2
-2
-2
-2
-3
-3
-2
-2
-2
-3
-4
-4
-4
-4
-4
-4
-5
-7
-7
-7
-7
-7
-7
-8
-8
-9
-9
-9
-9
-9
-9
-9
-9
-10
-10
-10
-10
-9
-9
-10
-10
-11
-10
-11
-11
-11
-11
-11
-11
-10
-11
-12
-13
-13
-14
-14
-14
-14
-14
-15
-14
-13
-13
-14
-14
-13
-13
-13
-13
-13
-12
-12
-13
-13
-12
-12
-13
-13
-13
-13
-13
-13
-13
-12
-13
-14
-14
-14
-15
-16
-16
-16
-17
-17
-17
-17
-18
-18
-19
-18
-17
-17
-17
-17
-16
-16
-15
-15
-14
-14
-15
-14
-14
-13
-13
-13
-14
-13
-13
-13
-12
-12
-12
-12
-11
-11
-11
-11
-11
-11
-10
-10
-10
-10
-10
-10
-10
-10
-10
-9
-9
-10
-9
-9
-9
-9
-9
-9
-9
-8
-9
-9
-9
-9
-9
-9
-10
-10
-9
-9
-8
-9
-9
-9
-9
-9
-9
-9
-9
-9
-9
-8
-8
-9
-9
-8
-8
-10
-9
-8
-8
-8
-7
-7
-8
-9
-8
-8
-7
-8
-7
-7
-7
-8
-6
-6
-7
-8
-8
-7
-6
-6
-7
-7
-6
-5
-6
-6
-4
-3
-2
0
0
0
0
0
0
2
5
9
12
15
15
16
16
15
14
13
13
12
9
6
1
-1
-4
-5
-7
-7
-6
-7
-6
-6
-6
-6
-6
-8
-11
-14
-16
-11
0
17
41
71
105
139
157
164
152
133
107
77
48
23
8
0
-2
-2
-2
1
6
9
9
8
7
6
6
6
6
7
7
7
8
8
8
8
8
9
9
10
10
10
10
10
10
10
11
11
11
11
12
11
11
12
12
13
14
14
15
15
16
16
17
18
18
18
19
20
20
21
21
21
21
21
22
22
22
21
21
21
21
20
21
21
21
21
22
22
22
22
22
23
23
23
23
24
24
23
23
23
23
22
22
22
23
24
24
24
25
25
25
25
27
28
30
32
33
34
35
37
39
40
41
41
43
44
46
47
49
49
52
52
54
55
56
56
54
55
54
56
55
56
56
54
54
53
54
53
53
51
50
49
48
48
47
47
45
44
43
41
39
38
37
35
33
31
29
27
26
23
21
20
19
18
17
16
15
14
12
11
11
10
9
8
7
6
6
5
3
2
2
2
1
0
0
0
-1
-2
-2
-2
-2
-2
-2
-2
-3
-4
-4
-5
-5
-5
-6
-7
-7
-7
-6
-7
-7
-7
-7
-8
-9
-9
-9
-9
-10
-10
-10
-11
-11
-10
-10
-10
-11
-11
-11
-12
-12
-13
-13
-13
-13
-14
-14
-13
-13
-13
-13
-13
-13
-13
-13
-13
-12
-12
-12
-11
-11
-12
-12
-12
-11
-11
-12
-12
-11
-11
-11
-11
-11
-11
-11
-12
-11
-10
-10
-10
-9
-9
-9
-9
-9
-9
-9
-8
-8
-7
-7
-7
-7
-6
-6
-7
-6
-7
-7
-7
-8
-7
-8
-9
-10
-10
-10
-11
-13
-13
-12
-12
-12
-11
-10
-9
-10
-9
-9
-8
-9
-9
-10
-10
-10
-9
-10
-10
-9
-9
-8
-8
-8
-8
-9
-8
-9
-9
-9
-9
-8
-8
-9
-8
-8
-8
-8
-8
-7
-7
-7
-7
-6
-7
-7
-6
-7
-6
-6
-7
-6
-6
-5
-6
-6
-7
-7
-6
-6
-5
-6
-6
-6
-5
-5
-5
-4
-2
0
0
1
1
2
2
3
6
10
13
15
16
18
18
17
17
17
16
16
15
12
8
5
1
-1
-3
-4
-5
-5
-4
-4
-5
-4
-5
-6
-8
-11
-12
-10
-3
13
37
66
95
121
138
136
122
98
72
47
23
4
-7
-15
-20
-22
-19
-14
-8
-4
-2
-2
-3
-3
-4
-4
-4
-4
-5
-5
-5
-6
-5
-5
-3
-1
-1
-2
-2
-2
-2
-2
-2
-1
-1
0
0
0
0
1
3
4
4
4
5
6
7
7
8
9
10
10
10
12
12
