-6
-10
-12
-16
-18
-20
-21
-24
-27
-27
-29
-30
-31
-32
-33
-34
-35
-35
-36
-36
-35
-33
-33
-33
-33
-30
-26
-18
-11
-6
-3
-2
-3
-3
-4
-4
-6
-7
-5
-6
-6
-8
-9
-11
-14
-14
-17
-19
-21
-23
-24
-26
-28
-30
-31
-32
-34
-34
-35
-36
-37
-38
-38
-37
-36
-37
-38
-36
-29
-21
-11
-3
1
3
2
2
0
-1
-4
-6
-9
-11
-12
-14
-15
-16
-19
-21
-24
-26
-28
-29
-30
-32
-34
-36
-38
-40
-42
-46
-49
-53
-57
-61
-62
-60
-59
-56
-53
-44
-34
-22
-12
-2
3
7
10
13
18
17
14
10
6
3
6
14
23
30
31
27
21
16
11
6
-1
-10
-17
-22
-24
-25
-27
-29
-31
-31
-32
-32
-32
-32
-29
-28
-27
-26
-22
-15
-6
3
11
17
20
21
22
23
22
21
19
16
12
10
9
7
4
2
1
0
-1
-3
-4
-6
-7
-7
-7
-9
-10
-11
-12
-13
-13
-13
-12
-11
-9
-8
-7
-5
-1
7
14
23
29
32
33
34
36
34
34
31
29
25
22
17
12
7
0
-5
-10
-15
-22
-28
-32
-37
-40
-44
-48
-52
-55
-55
-57
-57
-57
-56
-55
-54
-52
-52
-51
-48
-40
-28
-18
-7
0
2
4
6
7
7
7
7
5
2
0
-4
-9
-14
-17
-21
-23
-27
-31
-35
-38
-41
-45
-48
-50
-53
-56
-59
-61
-62
-63
-62
-61
-58
-56
-53
-49
-42
-35
-28
-23
-20
-18
-17
-16
-16
-14
-13
-12
-14
-15
-18
-20
-21
-23
-26
-28
-30
-33
-36
-38
-42
-45
-47
-49
-49
-50
-51
-53
-53
-55
-55
-55
-55
-52
-51
-47
-44
-39
-34
-24
-15
-6
0
3
5
5
2
1
0
0
-1
-2
-4
-5
-6
-8
-10
-12
-15
-19
-22
-25
-27
-29
-32
-35
-37
-38
-40
-42
-43
-42
-42
-42
-41
-41
-40
-37
-33
-31
-27
-20
-11
-2
3
7
9
10
10
10
9
8
7
6
3
1
0
-3
-6
-9
-11
-13
-15
-17
-19
-21
-23
-25
-29
-33
-37
-40
-41
-42
-42
-42
-41
-39
-37
-33
-30
-26
-21
-12
-4
2
6
8
7
5
3
2
2
2
2
0
-1
-3
-5
-7
-10
-14
-17
-20
-23
-25
-27
-30
-32
-34
-36
-38
-40
-40
-42
-43
-43
-43
-43
-41
-39
-38
-35
-32
-25
-18
-12
-7
-5
-5
-5
-7
-8
-10
-11
-10
-12
-14
-16
-17
-19
-21
-23
-26
-28
-30
-33
-34
-36
-39
-41
-43
-45
-48
-50
-51
-52
-52
-51
-49
-47
-43
-40
-37
-34
-28
-23
-15
-9
-6
-4
-3
-3
-3
-2
-2
-2
-4
-5
-6
-7
-8
-11
-12
-14
-15
-17
-18
-20
-23
-26
-28
-28
-21
-9
8
34
67
107
146
179
206
220
226
223
221
211
198
186
175
171
165
159
145
127
106
88
72
55
41
27
17
11
8
5
2
0
-4
-8
-11
-14
-16
-18
-21
-23
-27
-29
-32
-33
-35
-35
-38
-39
-38
-39
-38
-39
-38
-37
-35
-35
-34
-30
-25
-17
-10
-3
1
4
4
5
5
5
3
1
-1
-4
-7
-10
-14
-17
-21
-23
-25
-28
-30
-33
-35
-39
-42
-46
-47
-48
-49
-49
-49
-48
-48
-46
-45
-45
-45
-44
-41
-35
-26
-17
-11
-8
-6
-6
-6
-6
-6
-6
-5
-6
-7
-9
-12
-15
-19
-22
-25
-28
-30
-33
-35
-37
-40
-43
-46
-47
-50
-50
-49
-48
-47
-47
-45
-45
-42
-39
-34
-29
-25
-23
-23
-23
-23
-23
-23
-23
-24
-24
-25
-25
-26
-26
-27
-29
-30
-33
-36
-38
-41
-42
-43
-44
-46
-47
-48
-49
-49
-49
-50
-50
-51
-51
-51
-49
-47
-44
-42
-39
-39
-36
-31
-21
-9
3
12
17
20
20
19
17
18
18
17
16
14
14
12
11
8
6
6
3
2
0
-1
-3
-5
-6
-8
-9
-10
-12
-13
-14
-14
-13
-12
-11
-9
-7
-5
-3
-1
0
0
3
6
8
9
12
15
18
18
17
13
8
4
0
-2
-6
-9
-12
-14
-16
-17
-19
-21
-23
-23
-24
-26
-27
-27
-27
-27
-27
-28
-25
-17
-2
15
41
72
112
152
200
243
279
301
307
310
300
289
266
242
217
192
173
151
133
110
89
69
50
33
16
2
-8
-14
-18
-21
-23
-26
-28
-31
-33
-34
-35
-36
-38
-40
-41
-42
-42
-42
-41
-38
-32
-28
-26
-26
-25
-24
-23
-22
-22
-21
-20
-21
-21
-22
-22
-23
-23
-24
-24
-25
-27
-30
-32
-32
-34
-34
-36
-36
-39
-41
-43
-45
-46
-47
-46
-47
-47
-47
-47
-47
-47
-46
-45
-43
-40
-36
-31
-28
-25
-24
-25
-28
-29
-30
-30
-31
-31
-31
-31
-29
-28
-26
-25
-24
-22
-22
-22
-22
-23
-24
-25
-26
-27
-29
-31
-33
-35
-36
-37
-36
-36
-35
-33
-31
-29
-27
-23
-18
-8
3
13
19
22
23
23
24
24
25
25
26
25
24
23
20
16
12
9
5
2
1
0
-2
-5
-8
-11
-13
-15
-17
-17
-17
-16
-15
-14
-13
-10
-7
-5
-2
2
8
16
24
28
30
31
33
34
34
33
31
30
27
26
25
25
23
20
17
12
8
8
13
23
38
61
88
124
158
191
214
228
235
234
232
222
209
191
178
163
151
141
130
122
112
105
93
80
67
54
47
42
41
38
36
34
30
28
24
20
16
13
10
8
6
4
1
-1
-5
-8
-10
-13
-17
-20
-23
-25
-27
-30
-32
-34
-35
-36
-35
-32
-27
-21
-15
-11
-9
-7
-5
-3
-1
-1
-2
-3
-5
-7
-9
-11
-13
-14
-16
-19
-21
-24
-27
-28
-30
-32
-31
-32
-33
-33
-33
-33
-33
-33
-34
-34
-34
-34
-35
-35
-36
-37
-37
-39
-39
-39
-37
-36
-35
-35
-34
-29
-22
-14
-8
-5
-3
-4
-7
-11
-13
-14
-15
-15
-16
-17
-19
-21
-23
-24
-27
-29
-31
-34
-37
-39
-41
-41
-42
-44
-45
-47
-48
-49
-49
-47
-45
-42
-40
-38
-37
-37
-35
-32
-27
-23
-19
-16
-14
-13
-13
-12
-12
-11
-11
-8
-7
-7
-11
-14
-16
-18
-20
-23
-25
-30
-33
-35
-38
-39
-41
-43
-46
-48
-49
-52
-54
-58
-56
-52
-39
-17
11
50
95
145
193
228
253
260
259
257
249
239
220
203
182
165
149
133
117
97
80
61
43
24
8
-4
-14
-19
-23
-28
-35
-40
-43
-45
-47
-48
-48
-46
-45
-42
-38
-33
-30
-27
-23
-19
-14
-10
-6
-5
-5
-5
-4
-4
-4
-6
-7
-8
-9
-10
-12
-13
-15
-18
-21
-24
-28
-32
-36
-39
-42
-45
-50
-54
-56
-57
-58
-59
-59
-59
-56
-54
-51
-46
-42
-37
-32
-28
-26
-25
-26
-28
-29
-29
-28
-28
-28
-28
-28
-25
-22
-23
-26
-28
-31
-34
-36
-38
-41
-44
-47
-50
-51
-54
-55
-55
-54
-54
-52
-49
-47
-46
-45
-42
-38
-35
-33
-35
-36
-38
-40
-43
-45
-46
-48
-50
-53
-53
-56
-57
-59
-61
-60
-60
-58
-58
-58
-59
-57
-57
-57
-58
-59
-58
-56
-52
-48
-42
-36
-29
-23
-18
-14
-12
-11
-10
-9
-8
-8
-8
-9
-10
-12
-13
-14
-15
-17
-19
-21
-25
-30
-35
-38
-43
-48
-50
-51
-50
-49
-48
-48
-48
-48
-47
-46
-44
-42
-40
-36
-32
-27
-24
-22
-20
-18
-15
-14
-14
-14
-14
-15
-17
-19
-21
-22
-23
-24
-25
-27
-27
-29
-31
-34
-35
-38
-41
-45
-50
-55
-59
-60
-60
-57
-53
-47
-44
-41
-37
-33
-27
-21
-17
-14
-13
-13
-12
-11
-11
-12
-14
-15
-18
-20
-21
-23
-25
-27
-26
-27
-28
-30
-31
-33
-35
-37
-39
-41
-42
-45
-45
-46
-47
-50
-52
-54
-54
-52
-48
-41
-32
-22
-14
-7
-5
-6
-8
-8
-7
-6
-7
-8
-9
-10
-12
-15
-17
-16
-11
0
17
43
76
119
165
210
245
268
275
273
267
253
236
210
188
164
145
127
109
92
75
65
54
44
34
25
19
15
14
14
12
10
6
2
-3
-8
-12
-15
-18
-20
-22
-25
-28
-32
-35
-37
-39
-39
-41
-41
-43
-45
-48
-52
-54
-56
-54
-52
-48
-42
-37
-33
-28
-22
-17
-12
-10
-9
-9
-11
-12
-13
-14
-16
-17
-18
-19
-20
-21
-23
-25
-28
-31
-34
-37
-42
-46
-50
-53
-55
-56
-57
-57
-57
-57
-58
-60
-62
-64
-64
-60
-51
-42
-32
-22
-15
-9
-5
0
1
3
4
5
5
6
8
9
11
12
12
12
12
10
8
5
0
-4
-8
-13
-17
-20
-24
-28
-33
-37
-41
-43
-46
-48
-52
-52
-51
-48
-44
-40
-35
-30
-25
-22
-20
-17
-16
-18
-18
-19
-19
-20
-20
-20
-20
-20
-18
-13
-9
-6
-5
-6
-6
-8
-9
-11
-12
-13
-15
-15
-17
-19
-21
-22
-22
-22
-22
-23
-22
-18
-12
-8
-4
-2
0
2
3
5
4
3
2
3
3
2
2
2
1
-1
-3
-4
-4
-3
-2
-2
-5
-7
-11
-14
-16
-19
-21
-22
-23
-25
-28
-32
-34
-35
-37
-38
-38
-36
-34
-31
-25
-20
-16
-14
-13
-11
-8
-4
1
6
9
11
12
13
12
11
11
10
8
8
8
7
6
4
2
0
-3
-6
-8
-9
-11
-12
-13
-15
-16
-20
-23
-27
-27
-20
-10
6
30
59
99
143
189
229
258
278
285
291
285
276
257
235
218
197
184
164
144
120
101
83
63
44
23
8
-1
-8
-13
-17
-19
-23
-27
-31
-36
-39
-42
-44
-47
-50
-53
-56
-58
-60
-63
-66
-70
-74
-78
-81
-85
-87
-89
-85
-82
-79
-75
-72
-69
-67
-62
-56
-48
-41
-37
-33
-32
-31
-31
-31
-32
-33
-33
-35
-34
-34
-33
-34
-34
-35
-36
-36
-38
-39
-42
-43
-45
-46
-48
-50
-51
-54
-54
-55
-54
-52
-52
-53
-52
-50
-47
-44
-40
-35
-29
-21
-14
-5
1
5
6
5
4
3
2
1
1
0
0
-3
-4
-5
-7
-9
-11
-14
-17
-20
-22
-26
-30
-34
-37
-38
-38
-38
-39
-39
-40
-41
-39
-36
-32
-29
-27
-24
-20
-12
-4
4
12
17
19
18
17
15
12
10
8
5
2
-1
-3
-5
-5
-6
-7
-7
-9
-10
-11
-12
-13
-15
-17
-19
-21
-22
-24
-26
-28
-31
-34
-35
-35
-36
-35
-34
-32
-28
-21
-11
-2
6
16
25
31
30
28
26
24
22
21
20
17
16
13
12
11
9
7
3
1
-1
-3
-5
-6
-7
-9
-11
-13
-16
-19
-23
-26
-29
-32
-35
-37
-39
-40
-36
-30
-22
-12
1
13
21
24
25
23
21
18
16
13
11
10
9
8
7
5
4
1
-1
-4
-6
-10
-12
-14
-16
-19
-22
-23
-27
-29
-32
-35
-37
-40
-42
-43
-42
-40
-36
-28
-16
-5
7
18
24
27
26
24
22
20
17
15
12
9
7
5
3
2
0
-2
-5
-7
-10
-12
-16
-19
-22
-26
-30
-33
-36
-39
-42
-45
-48
-51
-54
-57
-60
-61
-60
-57
-49
-40
-26
-11
0
8
11
12
12
11
10
9
7
6
3
1
-1
-3
-5
-6
-7
-10
-13
-15
-16
-17
-18
-17
-18
-19
-20
-22
-26
-29
-29
-25
-16
-1
19
47
81
116
156
186
212
230
240
252
252
248
230
213
195
177
161
141
123
100
84
67
52
36
22
12
4
0
-3
-6
-7
-9
-10
-10
-11
-13
-14
-15
-17
-19
-20
-21
-23
-27
-30
-32
-29
-25
-19
-13
-4
2
7
9
10
8
7
5
3
3
2
2
2
3
3
2
1
0
-1
-2
-4
-6
-7
-8
-9
-10
-10
-11
-12
-13
-14
-17
-19
-22
-26
-29
-33
-35
-38
-36
-32
-26
-17
-7
2
9
14
16
16
16
16
16
15
14
13
11
11
10
10
10
8
7
5
4
1
-1
-2
-5
-8
-10
-12
-14
-16
-18
-21
-24
-28
-33
-36
-39
-38
-35
-28
-20
-11
-2
7
13
17
20
19
19
17
15
13
12
11
9
8
7
6
4
3
1
0
0
-3
-4
-5
-6
-7
-8
-10
-13
-14
-17
-19
-23
-26
-29
-30
-27
-24
-21
-16
-11
-4
4
12
20
25
25
25
24
23
21
20
19
17
15
14
13
11
9
7
5
2
0
-2
-6
-8
-11
-12
-15
-17
-20
-22
-24
-28
-32
-34
-35
-33
-31
-28
-26
-22
-16
-10
-2
5
10
12
13
12
11
10
9
7
7
6
5
4
2
1
0
-1
-2
-3
-5
-8
-9
-11
-12
-15
-17
-21
-24
-27
-31
-34
-39
-41
-40
-37
-33
-29
-24
-15
-6
2
9
13
14
13
11
10
8
6
5
4
3
1
1
0
-1
-4
-6
-8
-10
-11
-13
-14
-16
-18
-21
-23
-25
-28
-31
-36
-39
-42
-46
-49
-51
-48
-44
-38
-31
-25
-18
-12
-8
-7
-7
-9
-11
-13
-14
-16
-18
-19
-20
-22
-26
-26
-23
-15
-2
15
42
75
117
157
192
214
226
225
219
204
187
165
143
121
96
75
55
38
20
9
2
-2
-5
-7
-9
-12
-16
-18
-22
-26
-29
-32
-34
-37
-39
-42
-43
-44
-46
-46
-49
-51
-53
-53
-53
-52
-52
-53
-54
-56
-55
-56
-57
-58
-60
-62
-66
-69
-74
-76
-74
-70
-63
-54
-40
-28
-19
-15
-12
-10
-9
-10
-11
-14
-14
-15
-16
-18
-20
-22
-24
-27
-29
-31
-33
-34
-35
-37
-40
-42
-46
-47
-49
-51
-53
-56
-58
-61
-63
-67
-70
-73
-76
-78
-75
-66
-54
-39
-25
-14
-8
-5
-5
-5
-5
-6
-8
-9
-10
-11
-12
-14
-16
-19
-21
-23
-26
-28
-30
-32
-34
-36
-38
-39
-40
-42
-44
-47
-49
-52
-56
-59
-63
-64
-61
-56
-50
-43
-34
-25
-17
-11
-8
-7
-6
-6
-8
-10
-11
-12
-14
-13
-13
-14
-16
-17
-18
-20
-22
-24
-26
-29
-33
-36
-39
-42
-46
-50
-53
-56
-57
-60
-61
-63
-62
-61
-59
-56
-53
-46
-38
-27
-15
-6
0
0
0
-3
-5
-8
-9
-11
-13
-13
-13
-14
-14
-15
-16
-18
-21
-23
-25
-26
-28
-30
-31
-33
-35
-38
-40
-43
-47
-51
-55
-57
-59
-61
-60
-56
-50
-44
-33
-22
-12
-5
0
0
-1
-4
-7
-9
-11
-13
-15
-17
-19
-20
-21
-22
-24
-26
-28
-31
-33
-35
-38
-39
-40
-40
-40
-40
-41
-43
-45
-48
-51
-56
-59
-62
-61
-53
-45
-36
-26
-16
-7
-1
-1
-2
-6
-8
-12
-15
-15
-16
-16
-17
-18
-18
-18
-18
-19
-20
-21
-23
-26
-29
-32
-34
-36
-39
-42
-44
-46
-48
-50
-51
-51
-50
-50
-49
-46
-40
-31
-20
-8
3
13
16
18
17
14
11
9
7
3
-1
-7
-11
-14
-11
-2
14
34
62
96
134
173
201
227
239
241
236
226
214
193
176
155
138
118
97
76
53
36
20
9
0
-7
-9
-5
4
13
19
20
20
18
15
14
13
12
8
5
3
1
0
-1
-3
-5
-8
-11
-15
-17
-18
-20
-22
-24
-26
-28
-29
-31
-32
-32
-33
-34
-35
-35
-35
-33
-30
-26
-21
-16
-9
-4
-1
1
1
1
0
-1
-2
-4
-6
-7
-8
-8
-9
-8
-9
-9
-10
-11
-12
-14
-15
-17
-19
-21
-23
-26
-28
-29
-32
-34
-35
-37
-36
-31
-24
-16
-9
-3
2
7
14
17
19
19
18
16
15
12
9
7
5
3
2
1
0
0
-1
-3
-4
-5
-8
-10
-11
-12
-13
-14
-15
-16
-17
-19
-19
-22
-24
-28
-31
-32
-30
-24
-18
-12
-5
0
4
7
8
8
7
4
3
1
0
0
0
0
-1
-1
-2
-3
-4
-5
-7
-8
-10
-11
-12
-13
-14
-14
-14
-14
-15
-16
-16
-17
-17
-16
-16
-17
-16
-13
-8
-3
4
9
15
17
16
14
11
8
7
6
4
2
0
0
-1
-2
-1
-2
-3
-4
-5
-6
-7
-8
-9
-10
-11
-12
-13
-14
-13
-14
-15
-18
-21
-24
-24
-21
-13
3
28
62
104
150
197
240
270
288
288
282
269
250
230
204
187
167
151
132
114
95
77
62
46
31
16
5
-2
-7
-9
-12
-14
-15
-17
-19
-20
-23
-27
-30
-33
-37
-40
-42
-40
-39
-35
-29
-20
-12
-5
-2
-1
-2
-4
-7
-9
-11
-13
-16
-17
-20
-22
-25
-30
-33
-37
-39
-43
-45
-49
-51
-53
-54
-56
-58
-60
-62
-64
-66
-69
-71
-74
-77
-81
-83
-82
-80
-75
-67
-57
-46
-36
-30
-23
-19
-16
-15
-15
-14
-13
-11
-10
-9
-9
-9
-10
-10
-11
-12
-13
-14
-14
-16
-18
-20
-22
-23
-25
-26
-29
-32
-34
-37
-39
-42
-44
-47
-48
-46
-41
-32
-22
-11
-1
4
6
6
3
1
-1
-2
-3
-5
-5
-5
-6
-7
-7
-9
-10
-12
-14
-15
-16
-17
-18
-19
-20
-21
-23
-25
-27
-30
-32
-34
-37
-40
-44
-47
-47
-43
-37
-29
-18
-6
6
15
21
21
20
17
14
11
10
9
8
9
7
7
6
6
4
3
2
0
-1
-2
-4
-6
-8
-10
-12
-14
-16
-18
-20
-23
-26
-29
-31
-35
-38
-40
-40
-37
-31
-23
-14
-4
3
8
9
9
7
5
3
1
0
0
0
0
-1
-2
-3
-4
-5
-6
-8
-9
-11
-13
-15
-16
-18
-19
-20
-23
-25
-27
-30
-32
-35
-37
-41
-44
-43
-41
-36
-29
-19
-7
5
14
19
19
16
11
8
6
3
0
-2
-3
-4
-5
-5
-7
-8
-10
-11
-14
-16
-18
-21
-22
-23
-23
-25
-27
-28
-28
-28
-29
-29
-30
-32
-33
-34
-34
-32
-26
-18
-9
-1
7
12
13
12
9
5
1
-2
-5
-7
-9
-10
-11
-12
-14
-15
-15
-17
-18
-20
-22
-24
-24
-23
-24
-25
-26
-27
-30
-32
-34
-35
-36
-37
-39
-40
-43
-42
-38
-31
-23
-13
-2
9
18
24
25
24
22
19
17
14
14
13
13
12
11
11
11
11
9
6
2
0
2
10
22
40
63
94
131
170
204
230
246
248
239
231
217
203
184
171
160
150
142
130
118
103
89
72
55
40
26
14
7
4
2
0
0
-1
-3
-4
-6
-7
-10
-11
-12
-13
-16
-18
-21
-23
-25
-28
-30
-35
-38
-41
-43
-42
-39
-35
-30
-24
-16
-9
-2
4
8
10
11
12
10
8
6
3
1
-1
-2
-4
-6
-8
-11
-13
-15
-17
-19
-21
-23
-25
-28
-31
-33
-35
-37
-40
-42
-45
-48
-53
-58
-61
-61
-58
-52
-44
-35
-26
-17
-13
-11
-11
-11
-10
-11
-11
-12
-12
-12
-13
-14
-16
-17
-19
-21
-23
-26
-27
-29
-30
-32
-34
-35
-38
-39
-42
-43
-45
-47
-50
-53
-55
-58
-58
-57
-53
-46
-36
-23
-11
-2
5
9
11
11
10
10
10
11
11
12
12
11
11
10
9
6
6
5
4
2
0
0
-3
-5
-8
-10
-14
-17
-20
-22
-25
-29
-32
-34
-35
-32
-27
-22
-17
-8
1
10
16
20
20
18
17
15
14
13
11
9
6
7
12
22
37
59
86
120
155
192
220
237
247
245
245
236
225
203
181
161
139
121
100
80
56
38
26
17
10
4
3
5
11
17
18
16
12
9
6
3
1
-1
-2
-5
-5
-8
-10
-11
-13
-15
-17
-18
-19
-21
-22
-24
-25
-26
-27
-29
-30
-32
-35
-37
-41
-44
-47
-45
-43
-39
-34
-29
-22
-16
-10
-10
-10
-11
-13
-15
-17
-20
-23
-26
-29
-32
-35
-37
-39
-40
-41
-43
-45
-47
-48
-49
-50
-51
-52
-52
-53
-54
-56
-58
-61
-63
-63
-64
-62
-60
-58
-53
-48
-42
-37
-33
-31
-29
-28
-28
-31
-33
-35
-38
-40
-41
-41
-43
-45
-46
-47
-49
-52
-55
-58
-61
-62
-64
-63
-64
-63
-64
-64
-65
-67
-66
-65
-62
-60
-56
-54
-49
-44
-39
-33
-29
-24
-22
-19
-18
-18
-19
-21
-23
-24
-25
-26
-26
-27
-29
-30
-32
-34
-35
-36
-37
-38
-39
-40
-42
-44
-45
-46
-47
-48
-50
-52
-54
-55
-56
-57
-58
-59
-56
-50
-42
-33
-25
-16
-6
3
13
17
19
18
18
16
15
13
11
11
10
10
9
8
5
2
2
7
16
31
51
79
115
151
190
219
238
247
244
241
227
213
192
170
150
131
118
106
97
84
75
64
55
42
29
19
9
3
0
-3
-6
-10
-13
-17
-19
-21
-23
-25
-27
-28
-29
-30
-31
-32
-32
-33
-35
-37
-38
-40
-42
-43
-46
-47
-48
-47
-47
-47
-44
-41
-35
-30
-23
-18
-15
-14
-15
-17
-19
-20
-22
-23
-25
-26
-28
-30
-31
-34
-36
-39
-42
-45
-49
-52
-54
-55
-57
-59
-61
-64
-67
-70
-73
-75
-77
-79
-78
-74
-66
-58
-52
-47
-42
-37
-33
-30
-28
-27
-28
-29
-30
-32
-33
-35
-35
-37
-39
-41
-42
-43
-44
-45
-46
-48
-50
-52
-53
-55
-57
-60
-63
-66
-70
-74
-78
-79
-79
-75
-71
-67
-62
-56
-47
-39
-29
-22
-16
-13
-12
-12
-14
-15
-16
-16
-17
-17
-17
-17
-18
-19
-21
-24
-27
-30
-33
-36
-37
-37
-39
-40
-42
-44
-47
-49
-51
-53
-54
-56
-58
-62
-65
-66
-63
-57
-47
-35
-24
-15
-9
-5
-5
-6
-7
-9
-10
-11
-12
-12
-13
-14
-15
-17
-19
-21
-23
-24
-27
-29
-31
-33
-34
-36
-37
-40
-44
-44
-39
-30
-18
0
25
57
96
135
168
192
204
214
217
220
214
205
196
182
170
153
142
125
109
93
77
63
44
29
14
5
-1
-4
-6
-9
-12
-15
-17
-20
-23
-26
-29
-30
-32
-34
-35
-36
-38
-39
-40
-42
-45
-47
-49
-51
-53
-53
-53
-51
-48
-46
-43
-42
-42
-44
-46
-47
-46
-43
-40
-37
-36
-34
-31
-28
-24
-23
-23
-24
-25
-28
-29
-30
-32
-35
-37
-38
-39
-40
-43
-46
-48
-51
-54
-57
-58
-61
-62
-63
-64
-64
-66
-67
-68
-66
-64
-60
-57
-53
-51
-50
-48
-45
-41
-38
-34
-29
-26
-22
-16
-12
-11
-12
-13
-12
-13
-13
-13
-13
-13
-14
-15
-18
-20
-24
-28
-31
-34
-35
-39
-41
-43
-45
-45
-47
-48
-51
-51
-52
-53
-54
-57
-60
-64
-65
-68
-68
-68
-63
-55
-44
-33
-24
-17
-13
-12
-10
-7
-6
-6
-6
-6
-5
-4
-4
-3
-3
-4
-6
-8
-10
-12
-13
-13
-15
-16
-17
-18
-18
-18
-18
-19
-20
-21
-21
-22
-23
-24
-24
-23
-23
-20
-16
-11
-9
-10
-11
-14
-16
-18
-19
-17
-14
-9
-7
-6
-7
-8
-9
-11
-12
-12
-14
-16
-17
-17
-18
-18
-19
-19
-20
-21
-21
-21
-22
-22
-22
-22
-21
-21
-21
-21
-21
-20
-17
-11
-6
-2
0
3
4
3
0
-3
-7
-10
-13
-14
-12
-11
-12
-14
-14
-16
-18
-18
-20
-21
-21
-22
-22
-22
-22
-22
-22
-24
-25
-25
-25
-24
-24
-22
-22
-21
-20
-19
-17
-15
-11
-7
-3
1
8
20
36
56
83
113
149
183
215
242
258
264
254
242
224
203
181
157
138
114
94
71
50
30
13
0
-15
-27
-39
-46
-49
-50
-50
-50
-50
-49
-49
-47
-42
-36
-29
-21
-16
-13
-12
-14
-17
-20
-20
-21
-19
-19
-21
-24
-26
-28
-30
-32
-35
-39
-42
-46
-48
-50
-51
-52
-53
-53
-55
-56
-57
-57
-58
-58
-58
-59
-58
-58
-57
-58
-57
-56
-52
-46
-41
-35
-32
-30
-32
-34
-37
-39
-40
-39
-34
-28
-24
-24
-26
-27
-29
-31
-33
-35
-36
-36
-35
-35
-35
-35
-35
-35
-34
-33
-33
-33
-33
-32
-30
-29
-28
-27
-27
-26
-25
-21
-17
-12
-8
-6
-5
-8
-11
-13
-15
-14
-11
-8
-4
-2
-2
-3
-5
-7
-11
-14
-19
-24
-28
-31
-33
-34
-35
-35
-36
-37
-37
-37
-37
-37
-37
-36
-35
-34
-32
-31
-29
-25
-18
-11
-6
-1
2
3
4
3
0
-2
-4
-3
0
5
9
9
9
7
5
2
-1
-5
-10
-12
-15
-16
-17
-18
-18
-19
-20
-22
-23
-24
-26
-27
-27
-26
-27
-26
-26
-26
-22
-17
-9
-2
3
8
11
12
12
11
9
7
5
5
8
10
11
10
7
5
1
-1
-6
-10
-13
-16
-18
-19
-19
-19
-20
-20
-21
-22
-23
-23
-21
-21
-20
-20
-20
-21
-21
-18
-11
-3
4
13
17
19
18
16
13
11
10
11
12
10
6
3
0
-3
-7
-10
-14
-17
-20
-22
-24
-26
-27
-30
-31
-31
-32
-32
-32
-31
-31
-30
-30
-30
-29
-29
-28
-24
-18
-11
-4
4
10
13
14
12
10
7
6
4
1
-2
-8
-13
-17
-21
-25
-29
-33
-36
-39
-41
-43
-44
-44
-44
-45
-45
-45
-47
-47
-46
-46
-46
-45
-45
-45
-45
-45
-43
-41
-36
-29
-20
-12
-4
1
5
5
6
6
5
4
4
5
4
0
-4
-10
-14
-18
-22
-24
-26
-28
-31
-33
-34
-35
-34
-35
-35
-37
-38
-39
-38
-37
-37
-37
-36
-35
-34
-31
-30
-29
-24
-10
9
32
62
97
136
176
220
254
283
295
296
286
271
249
224
200
177
158
136
115
89
65
44
26
10
-3
-17
-26
-33
-35
-38
-40
-40
-42
-42
-43
-42
-41
-37
-30
-24
-18
-12
-7
-3
0
3
8
13
17
16
14
10
5
1
-1
-3
-5
-7
-10
-13
-15
-17
-19
-20
-21
-23
-25
-27
-28
-28
-27
-29
-30
-30
-31
-31
-31
-31
-30
-28
-25
-23
-19
-15
-11
-8
-6
-5
-5
-2
0
2
4
5
4
4
4
3
2
0
-2
-4
-5
-7
-10
-12
-14
-15
-16
-17
-17
-19
-21
-22
-23
-24
-26
-27
-29
-31
-32
-32
-32
-33
-35
-37
-38
-39
-37
-34
-31
-26
-19
-10
-2
4
7
9
8
7
6
5
4
5
5
5
4
4
4
3
2
1
0
-1
-3
-3
-4
-6
-8
-11
-14
-15
-16
-19
-20
-23
-24
-25
-28
-31
-34
-37
-39
-40
-37
-34
-29
-23
-13
0
13
20
23
21
19
16
13
11
9
9
7
7
7
6
5
4
4
1
0
-2
-3
-4
-6
-7
-8
-11
-14
-16
-19
-22
-24
-27
-29
-30
-32
-35
-37
-37
-37
-34
-30
-24
-19
-14
-11
-6
0
7
10
11
10
7
5
2
1
0
0
-1
-3
-4
-5
-6
-6
-8
-9
-11
-12
-15
-19
-23
-25
-26
-27
-28
-29
-30
-30
-31
-31
-31
-29
-29
-27
-25
-23
-21
-20
-16
-13
-6
2
13
21
25
26
27
26
24
22
21
21
19
19
17
16
15
14
13
11
10
6
3
0
-1
-5
-7
-9
-11
-14
-17
-20
-22
-23
-25
-26
-27
-28
-28
-26
-22
-17
-10
-2
5
10
10
9
8
12
21
33
52
77
110
145
187
219
250
266
267
261
248
238
217
200
181
163
143
122
103
81
65
50
38
24
11
1
-6
-8
-8
-6
-3
0
3
5
7
7
7
5
3
0
-1
-1
-3
-3
-4
-4
-5
-6
-8
-10
-10
-12
-13
-14
-16
-17
-18
-19
-20
-21
-22
-24
-25
-26
-26
-26
-26
-27
-27
-27
-25
-20
-13
-6
-1
1
3
3
3
3
4
3
0
-4
-5
-6
-6
-8
-9
-10
-12
-14
-15
-17
-19
-20
-21
-22
-22
-23
-24
-25
-25
-26
-26
-26
-26
-27
-27
-27
-27
-26
-25
-24
-20
-15
-7
0
6
11
13
14
15
15
15
15
12
11
10
7
2
0
-3
-7
-10
-13
-15
-18
-20
-22
-23
-25
-26
-27
-27
-29
-30
-31
-30
-32
-33
-33
-34
-34
-34
-32
-31
-28
-22
-14
-5
1
6
9
10
8
5
2
1
1
1
1
0
0
-2
-2
-4
-6
-10
-13
-15
-17
-19
-22
-23
-25
-27
-29
-31
-31
-33
-33
-34
-33
-33
-33
-32
-31
-30
-29
-29
-29
-27
-25
-21
-15
-9
-3
1
7
10
13
13
15
14
12
9
8
11
19
33
52
81
115
155
196
232
262
273
279
272
264
247
225
203
177
158
136
120
100
79
57
37
21
5
-6
-15
-19
-20
-18
-17
-16
-15
-14
-13
-10
-7
-7
-8
-10
-12
-14
-16
-17
-18
-19
-20
-22
-24
-27
-30
-33
-36
-39
-42
-44
-47
-49
-50
-53
-53
-54
-53
-53
-51
-49
-48
-46
-45
-44
-45
-46
-46
-47
-48
-50
-52
-54
-55
-58
-58
-58
-60
-60
-62
-63
-66
-67
-68
-70
-70
-72
-72
-74
-74
-74
-75
-74
-73
-72
-71
-66
-61
-54
-50
-45
-41
-36
-31
-27
-24
-22
-23
-26
-29
-32
-33
-35
-36
-37
-40
-40
-41
-41
-41
-43
-45
-49
-53
-55
-58
-59
-61
-61
-62
-62
-64
-63
-63
-63
-60
-57
-49
-42
-34
-29
-24
-19
-15
-12
-10
-9
-9
-10
-12
-12
-12
-12
-13
-14
-13
-14
-14
-15
-16
-18
-18
-18
-17
-14
-11
-10
-12
-13
-13
-12
-7
0
5
4
-6
-22
-46
-68
-81
-80
-73
-57
-40
-23
-9
8
21
27
22
9
-1
-7
-8
-10
-11
-12
-12
-13
-15
-16
-18
-19
-21
-22
-23
-24
-24
-24
-24
-24
-26
-26
-25
-22
-22
-20
-18
-16
-13
-8
-1
5
11
15
17
17
17
18
22
24
25
25
24
25
24
25
25
25
24
24
24
23
23
22
21
21
21
22
22
24
25
27
27
27
25
24
23
23
22
21
22
24
27
29
33
39
44
49
49
49
45
40
32
23
16
9
4
0
-3
-6
-10
-14
-18
-21
-23
-27
-29
-31
-33
-36
-37
-38
-40
-42
-46
-48
-50
-52
-55
-57
-59
-61
-62
-64
-64
-65
-66
-69
-72
-73
-73
-69
-63
-52
-44
-36
-28
-21
-17
-15
-13
-13
-13
-14
-16
-18
-20
-23
-25
-26
-28
-30
-31
-32
-33
-33
-32
-33
-32
-33
-34
-36
-37
-37
-38
-38
-40
-41
-43
-43
-43
-43
-43
-43
-43
-43
-43
-42
-40
-37
-35
-32
-31
-28
-27
-24
-22
-21
-20
-19
-20
-22
-24
-21
-13
0
18
44
76
115
158
194
221
235
237
235
225
215
194
175
154
136
118
98
80
59
41
23
8
-7
-22
-35
-42
-46
-47
-47
-47
-46
-45
-41
-36
-30
-25
-21
-19
-16
-14
-12
-12
-12
-12
-12
-11
-14
-16
-17
-18
-17
-15
-14
-16
-20
-25
-30
-34
-37
-38
-39
-40
-43
-45
-46
-49
-51
-52
-52
-53
-52
-53
-54
-55
-56
-57
-58
-59
-60
-59
-57
-56
-54
-52
-48
-44
-39
-34
-30
-26
-25
-26
-28
-29
-29
-27
-22
-15
-11
-7
-6
-8
-11
-16
-19
-21
-24
-26
-28
-30
-31
-32
-32
-32
-33
-33
-33
-35
-35
-36
-35
-37
-37
-36
-35
-33
-33
-31
-29
-23
-16
-11
-8
-6
-6
-7
-8
-11
-12
-14
-13
-12
-12
-14
-17
-20
-22
-24
-27
-30
-34
-37
-39
-40
-42
-43
-44
-45
-46
-46
-46
-46
-45
-45
-45
-45
-45
-44
-42
-39
-34
-28
-20
-15
-10
-8
-6
-5
-5
-4
-6
-7
-9
-8
-8
-10
-14
-16
-18
-20
-22
-23
-26
-29
-33
-35
-39
-41
-42
-43
-42
-43
-42
-42
-42
-41
-41
-39
-38
-36
-36
-34
-29
-22
-14
-8
-2
2
5
5
4
3
1
0
0
0
0
0
-2
-6
-9
-11
-14
-17
-20
-23
-27
-29
-32
-33
-35
-37
-39
-40
-40
-40
-38
-36
-36
-34
-33
-31
-29
-27
-24
-22
-18
-11
-3
4
10
15
18
20
20
21
22
23
23
24
25
25
25
23
21
17
15
11
7
3
0
-3
-5
-8
-10
-12
-14
-15
-16
-16
-16
-16
-17
-19
-20
-16
-8
4
21
48
83
126
171
210
243
263
272
268
263
249
231
205
185
167
154
141
122
102
80
62
47
32
18
4
-5
-12
-16
-19
-21
-22
-25
-27
-28
-29
-29
-30
-29
-30
-30
-30
-30
-29
-27
-23
-17
-10
-6
-2
-1
0
2
6
9
12
14
15
15
14
11
8
5
2
0
-2
-4
-6
-8
-10
-12
-14
-15
-17
-18
-20
-22
-24
-25
-26
-27
-27
-26
-24
-24
-22
-20
-16
-12
-6
0
3
8
9
11
11
13
14
15
17
16
16
15
13
10
8
8
6
4
2
0
-3
-5
-7
-10
-12
-13
-15
-17
-18
-19
-21
-22
-23
-22
-22
-22
-24
-23
-20
-16
-9
-2
2
8
12
14
16
17
19
22
24
25
24
22
18
15
11
9
7
4
1
-1
-3
-5
-8
-10
-13
-14
-18
-20
-22
-23
-24
-24
-23
-23
-23
-22
-20
-18
-16
-13
-9
-4
0
4
8
13
17
20
22
22
23
22
22
19
16
12
8
5
2
0
-3
-5
-8
-10
-12
-15
-17
-20
-21
-22
-23
-23
-24
-23
-23
-23
-21
-20
-18
-15
-11
-5
0
5
12
17
23
27
31
32
33
32
29
26
21
14
6
0
-2
2
11
23
44
70
106
141
176
202
215
222
219
217
206
193
176
158
144
127
113
97
82
64
51
42
33
26
19
14
12
11
11
11
13
17
22
24
24
20
16
12
10
7
4
1
-3
-7
-11
-14
-17
-20
-23
-26
-30
-32
-34
-35
-37
-38
-40
-41
-42
-43
-44
-44
-45
-46
-46
-46
-43
-39
-34
-30
-29
-31
-33
-36
-38
-38
-35
-29
-24
-21
-20
-21
-23
-26
-31
-35
-41
-44
-48
-50
-52
-54
-55
-56
-57
-58
-58
-58
-58
-57
-57
-54
-53
-51
-52
-49
-46
-42
-36
-30
-24
-21
-20
-20
-21
-22
-22
-21
-17
-12
-9
-9
-10
-13
-16
-19
-22
-25
-28
-31
-34
-36
-37
-40
-44
-46
-48
-49
-51
-51
-51
-52
-51
-52
-51
-51
-51
-52
-54
-54
-54
-52
-49
-42
-31
-20
-11
-5
-1
0
0
1
1
-4
-8
-13
-14
-16
-19
-21
-24
-26
-29
-32
-35
-38
-40
-42
-43
-46
-47
-48
-51
-53
-56
-57
-59
-59
-60
-60
-59
-57
-56
-55
-53
-52
-51
-49
-47
-43
-38
-31
-23
-16
-11
-7
-5
-4
-4
-4
-5
-7
-9
-12
-13
-16
-18
-20
-22
-24
-27
-29
-31
-32
-34
-37
-38
-40
-41
-41
-40
-40
-39
-39
-39
-39
-39
-37
-36
-33
-29
-23
-16
-10
-4
-2
0
0
-1
-2
-3
-5
-6
-6
-6
-5
-5
-6
-8
-10
-12
-14
-16
-19
-22
-25
-28
-31
-33
-35
-36
-38
-40
-40
-42
-42
-42
-43
-43
-44
-45
-46
-48
-51
-51
-46
-36
-21
1
32
68
114
156
200
229
252
259
258
255
245
235
216
199
179
160
140
116
93
71
54
35
19
5
-8
-18
-23
-26
-28
-31
-33
-37
-38
-40
-43
-44
-46
-47
-49
-50
-53
-54
-55
-57
-59
-62
-64
-68
-70
-72
-72
-71
-63
-53
-44
-38
-31
-25
-21
-19
-20
-20
-20
-21
-22
-22
-22
-22
-24
-25
-28
-31
-33
-35
-36
-38
-42
-45
-46
-49
-51
-53
-53
-54
-54
-54
-55
-56
-59
-59
-60
-60
-58
-55
-52
-49
-45
-42
-37
-33
-29
-26
-25
-26
-28
-29
-30
-29
-29
-29
-30
-30
-30
-32
-35
-37
-39
-41
-43
-45
-46
-47
-48
-48
-47
-47
-47
-46
-46
-45
-45
-44
-44
-43
-40
-38
-32
-24
-14
-5
4
12
16
18
19
20
18
14
10
6
3
0
-1
-2
-3
-4
-5
-7
-9
-10
-12
-12
-14
-17
-19
-21
-23
-24
-25
-25
-26
-25
-25
-25
-25
-25
-26
-25
-23
-20
-14
-6
4
14
22
29
34
34
35
36
36
32
26
21
15
12
9
6
1
-3
-8
-13
-18
-24
-27
-27
-20
-10
4
28
55
93
130
168
193
209
216
216
216
208
197
178
160
142
129
119
110
102
93
89
83
77
67
55
46
40
37
32
28
23
19
15
10
5
1
-2
-7
-13
-18
-22
-25
-27
-29
-31
-33
-36
-39
-40
-41
-42
-42
-42
-43
-44
-44
-44
-45
-46
-47
-48
-48
-48
-48
-47
-47
-46
-45
-43
-41
-40
-38
-36
-31
-24
-16
-12
-9
-7
-6
-8
-10
-12
-19
-26
-32
-39
-43
-47
-48
-50
-52
-54
-57
-58
-60
-61
-63
-63
-64
-64
-63
-63
-62
-62
-61
-62
-62
-63
-63
-62
-62
-61
-61
-59
-58
-57
-56
-54
-53
-52
-51
-50
-48
-47
-46
-46
-47
-47
-47
-46
-46
-46
-46
-46
-46
-45
-45
-45
-45
-46
-47
-50
-54
-57
-62
-67
-73
-80
-85
-86
-84
-80
-72
-62
-51
-41
-30
-21
-12
-3
3
8
12
14
12
12
11
12
12
13
14
14
15
15
16
16
16
16
16
15
13
12
11
10
8
7
5
3
0
-2
-6
-11
-13
-13
-8
1
16
39
68
106
145
179
201
216
222
228
230
227
223
213
204
190
177
160
144
126
106
89
71
55
39
25
15
9
6
2
0
-4
-6
-9
-13
-15
-19
-22
-26
-30
-35
-39
-42
-46
-49
-51
-49
-43
-37
-31
-27
-23
-20
-17
-15
-13
-12
-12
-12
-13
-14
-16
-18
-20
-23
-24
-27
-29
-30
-32
-33
-34
-37
-39
-40
-42
-44
-46
-48
-51
-53
-56
-59
-61
-62
-64
-64
-65
-64
-62
-59
-57
-55
-53
-49
-45
-40
-37
-35
-32
-30
-28
-27
-26
-26
-28
-29
-30
-31
-33
-33
-35
-36
-37
-38
-38
-40
-40
-43
-44
-46
-48
-50
-52
-52
-55
-56
-59
-60
-60
-60
-59
-59
-55
-52
-47
-41
-36
-30
-26
-23
-22
-20
-18
-15
-14
-14
-15
-16
-17
-18
-19
-20
-21
-23
-24
-25
-25
-26
-25
-25
-24
-25
-25
-25
-23
-22
-22
-21
-18
-16
-12
-10
-7
-7
-7
-8
-12
-13
-14
-14
-13
-14
-15
-17
-18
-18
-18
-16
-14
-12
-11
-12
-15
-18
-19
-15
-5
9
31
62
98
142
182
216
239
246
248
242
237
222
203
184
165
152
134
121
105
93
81
72
65
56
51
44
40
38
36
34
29
24
16
10
3
-1
-6
-10
-15
-18
-21
-23
-26
-29
-31
-33
-36
-38
-40
-42
-43
-45
-46
-48
-50
-51
-51
-51
-53
-52
-53
-51
-50
-50
-49
-48
-43
-38
-33
-26
-19
-11
-4
0
3
2
-1
-5
-8
-11
-14
-16
-19
-22
-26
-31
-35
-39
-44
-49
-54
-57
-60
-61
-62
-61
-61
-62
-63
-65
-65
-66
-66
-66
-66
-67
-70
-70
-69
-67
-66
-64
-64
-62
-60
-57
-51
-43
-33
-20
-6
3
10
12
10
7
4
1
-4
-10
-18
-26
-31
-36
-41
-47
-50
-54
-57
-60
-62
-63
-65
-65
-66
-66
-67
-69
-68
-68
-68
-70
-71
-72
-72
-72
-71
-68
-67
-64
-61
-56
-49
-38
-27
-16
-7
-1
6
13
15
13
10
6
4
3
0
-4
-10
-18
-26
-31
-34
-37
-39
-42
-43
-45
-47
-49
-53
-54
-53
-46
-34
-16
8
43
81
130
171
209
233
245
253
257
262
258
252
238
224
211
197
184
161
140
116
98
79
59
41
24
14
6
0
-6
-12
-16
-19
-23
-27
-31
-35
-39
-41
-44
-46
-46
-47
-48
-49
-47
-47
-46
-45
-41
-36
-30
-23
-16
-10
-6
0
6
13
13
9
3
-1
-5
-8
-10
-13
-15
-18
-21
-25
-30
-34
-38
-43
-45
-47
-49
-51
-53
-55
-56
-57
-57
-57
-58
-58
-58
-57
-58
-57
-55
-53
-50
-47
-40
-33
-24
-16
-10
-5
0
2
3
2
0
-2
-7
-11
-15
-18
-21
-25
-30
-34
-40
-44
-48
-50
-53
-54
-56
-58
-60
-61
-63
-64
-65
-67
-67
-68
-69
-70
-69
-67
-66
-64
-62
-60
-56
-48
-40
-31
-23
-15
-7
0
6
5
2
-2
-5
-7
-10
-14
-19
-25
-32
-36
-41
-45
-48
-50
-52
-53
-54
-55
-56
-57
-57
-55
-56
-56
-57
-57
-57
-58
-59
-61
-60
-60
-57
-54
-50
-46
-42
-37
-32
-24
-14
-1
11
23
27
25
18
14
8
3
-1
-7
-10
-12
-15
-17
-19
-22
-26
-28
-29
-30
-30
-30
-30
-31
-30
-30
-30
-29
-31
-31
-31
-31
-31
-31
-30
-30
-28
-27
-23
-20
-16
-10
-2
8
19
28
37
44
50
50
46
41
36
33
28
24
20
15
10
5
0
-5
-10
-13
-16
-18
-21
-25
-29
-29
-23
-11
5
28
60
95
140
177
209
228
237
237
234
227
212
196
175
160
143
130
116
100
86
74
66
58
53
50
49
50
45
40
32
25
18
10
3
-4
-9
-13
-18
-24
-30
-33
-38
-42
-45
-47
-48
-51
-52
-53
-53
-53
-54
-54
-54
-55
-56
-57
-59
-59
-60
-61
-62
-64
-64
-65
-65
-66
-65
-64
-62
-62
-62
-61
-62
-60
-60
-59
-57
-56
-55
-57
-56
-55
-52
-49
-45
-42
-39
-35
-31
-25
-21
-16
-16
-16
-18
-20
-21
-22
-24
-25
-25
-26
-26
-27
-27
-26
-28
-29
-31
-32
-34
-36
-37
-39
-39
-41
-42
-43
-44
-45
-47
-48
-51
-52
-55
-55
-56
-57
-58
-59
-59
-60
-61
-62
-64
-65
-67
-70
-73
-76
-77
-75
-70
-64
-58
-53
-46
-40
-32
-25
-16
-9
-5
-4
-4
-4
-4
-4
-4
-4
-5
-5
-6
-7
-7
-8
-8
-11
-13
-15
-17
-20
-22
-24
-26
-29
-31
-33
-37
-41
-44
-47
-50
-55
-58
-59
-59
-55
-50
-45
-42
-37
-28
-16
-4
1
2
1
0
-2
-2
0
0
0
0
0
0
-1
-2
-3
-5
-5
-6
-8
-9
-10
-13
-17
-20
-23
-21
-12
0
19
45
80
118
162
196
221
233
237
237
238
237
224
208
188
172
159
149
140
128
118
104
89
69
51
38
28
23
20
19
16
13
11
9
7
4
1
0
-2
-4
-7
-10
-14
-17
-22
-25
-29
-32
-35
-39
-42
-46
-52
-56
-59
-60
-58
-53
-51
-49
-47
-45
-43
-41
-36
-31
-23
-18
-16
-17
-18
-20
-20
-21
-22
-24
-26
-27
-30
-32
-33
-34
-35
-37
-39
-40
-42
-44
-45
-46
-49
-50
-52
-54
-56
-59
-60
-64
-67
-69
-65
-62
-58
-54
-50
-46
-43
-40
-39
-37
-35
-31
-23
-16
-11
-9
-9
-8
-6
-6
-6
-6
-6
-8
-10
-12
-12
-12
-13
-14
-16
-17
-19
-22
-25
-27
-28
-31
-36
-40
-45
-49
-50
-49
-46
-43
-41
-39
-37
-34
-30
-26
-22
-21
-19
-16
-11
-5
0
2
2
1
0
-2
-3
-4
-5
-6
-8
-10
-12
-14
-17
-19
-22
-23
-26
-29
-30
-32
-34
-38
-41
-45
-46
-45
-42
-39
-37
-34
-30
-25
-20
-15
-9
-4
0
4
8
14
19
21
22
21
20
18
15
13
12
11
9
9
8
8
7
6
5
4
2
0
-1
-3
-6
-9
-13
-15
-16
-13
-13
-11
-10
-8
-7
-4
1
5
9
12
15
19
25
31
37
42
43
44
42
42
39
36
33
29
26
22
18
13
11
14
20
31
49
73
106
145
181
213
231
241
239
233
227
213
200
182
170
154
139
124
109
96
81
73
66
60
53
48
45
42
42
41
39
36
33
29
26
23
20
16
12
7
2
-2
-6
-11
-15
-18
-22
-26
-30
-33
-39
-42
-42
-42
-41
-40
-37
-36
-34
-31
-29
-27
-28
-27
-26
-23
-18
-12
-6
-1
1
3
4
4
3
2
0
-2
-3
-6
-9
-11
-14
-17
-20
-23
-24
-26
-29
-31
-33
-36
-40
-42
-45
-46
-46
-43
-40
-37
-34
-29
-25
-20
-15
-10
-5
-1
2
5
10
14
18
21
24
25
26
26
24
23
22
20
18
16
15
11
8
6
3
0
-5
-9
-14
-17
-21
-25
-28
-33
-37
-39
-37
-36
-34
-32
-31
-29
-27
-23
-20
-17
-13
-8
-1
6
14
20
25
28
29
30
30
29
27
24
21
19
17
14
12
10
8
5
1
-2
-6
-8
-11
-14
-18
-23
-27
-30
-30
-26
-24
-22
-18
-15
-12
-8
-4
-1
2
5
9
11
14
17
22
27
28
30
30
29
27
25
24
20
18
15
12
10
8
6
3
0
-2
-4
-6
-8
-11
-15
-19
-24
-26
-26
-24
-24
-24
-21
-15
-2
15
40
72
113
158
201
237
264
279
285
283
273
258
235
215
192
174
154
135
116
94
77
59
42
24
9
-1
-9
-14
-16
-19
-22
-27
-31
-37
-42
-47
-53
-58
-63
-67
-69
-68
-63
-59
-53
-49
-45
-45
-42
-40
-38
-35
-32
-29
-27
-23
-18
-14
-11
-10
-11
-12
-14
-17
-21
-26
-29
-32
-35
-37
-40
-43
-46
-47
-50
-52
-55
-57
-60
-63
-66
-69
-72
-76
-77
-76
-74
-72
-72
-68
-64
-61
-58
-55
-52
-49
-46
-42
-39
-34
-27
-22
-16
-11
-9
-8
-7
-7
-9
-11
-13
-15
-15
-17
-19
-22
-25
-29
-33
-37
-41
-45
-50
-53
-58
-62
-64
-64
-62
-62
-61
-60
-58
-54
-51
-48
-45
-42
-40
-36
-31
-25
-17
-11
-6
-3
-2
-2
-2
-3
-5
-7
-8
-10
-11
-13
-16
-18
-19
-20
-22
-24
-26
-29
-31
-35
-38
-41
-46
-51
-57
-61
-63
-61
-57
-53
-50
-48
-44
-40
-34
-30
-25
-20
-11
-3
3
7
8
8
6
4
2
0
-2
-3
-4
-6
-7
-10
-12
-15
-18
-20
-23
-25
-30
-32
-36
-40
-43
-45
-48
-52
-55
-59
-62
-65
-67
-63
-60
-55
-51
-47
-44
-40
-36
-33
-29
-25
-20
-17
-13
-8
-2
0
1
1
0
-1
-3
-4
-7
-9
-11
-12
-13
-15
-18
-19
-21
-24
-27
-30
-34
-37
-41
-44
-48
-52
-56
-61
-62
-63
-58
-54
-51
-48
-46
-43
-39
-34
-32
-30
-27
-24
-21
-17
-12
-7
-4
-5
-6
-9
-12
-16
-19
-21
-23
-26
-28
-29
-31
-33
-34
-36
-37
-40
-42
-45
-47
-50
-53
-56
-60
-64
-68
-70
-70
-66
-63
-60
-56
-55
-52
-48
-43
-39
-36
-31
-25
-20
-15
-9
-2
3
5
5
3
2
0
-2
-4
-5
-6
-8
-10
-12
-13
-13
-16
-17
-17
-18
-21
-23
-26
-30
-32
-35
-38
-41
-44
-45
-45
-43
-41
-38
-32
-21
-4
19
52
90
134
178
217
250
275
286
293
292
287
269
247
223
201
182
159
141
117
96
74
56
39
22
8
-3
-9
-13
-14
-15
-18
-21
-25
-28
-30
-31
-33
-34
-33
-32
-29
-28
-28
-26
-25
-23
-22
-20
-18
-17
-15
-14
-11
-9
-7
-7
-7
-7
-6
-6
-7
-9
-11
-13
-16
-17
-19
-21
-22
-24
-25
-27
-29
-30
-32
-35
-37
-40
-43
-45
-47
-48
-46
-44
-42
-40
-40
-42
-44
-45
-46
-45
-43
-40
-37
-35
-31
-25
-20
-15
-11
-8
-6
-2
1
2
3
3
3
3
2
2
0
-1
-2
-5
-8
-10
-11
-13
-15
-17
-19
-20
-22
-24
-27
-28
-30
-33
-34
-37
-40
-43
-43
-46
-48
-51
-55
-57
-61
-64
-68
-71
-77
-82
-86
-89
-85
-77
-65
-57
-50
-46
-41
-35
-30
-27
-25
-20
-16
-12
-8
-2
0
3
6
7
6
6
6
7
7
7
6
3
2
2
2
3
1
0
-2
-3
-5
-7
-8
-11
-11
-13
-15
-17
-19
-21
-23
-24
-25
-28
-31
-35
-39
-44
-47
-51
-56
-63
-71
-75
-76
-70
-63
-54
-44
-36
-27
-17
-4
11
30
54
85
121
162
199
231
249
259
257
253
246
232
213
189
171
149
129
108
88
70
52
37
20
5
-8
-19
-25
-29
-32
-35
-38
-41
-43
-46
-47
-48
-50
-51
-49
-43
-36
-29
-23
-19
-14
-9
-6
-3
-2
-1
-2
-2
-4
-5
-7
-8
-8
-9
-9
-9
-9
-10
-12
-13
-14
-15
-17
-19
-21
-25
-28
-29
-32
-37
-42
-48
-52
-55
-57
-59
-61
-61
-60
-58
-55
-54
-53
-50
-44
-39
-34
-32
-32
-31
-29
-28
-28
-28
-29
-29
-29
-28
-28
-27
-26
-26
-25
-25
-25
-26
-26
-29
-32
-34
-37
-38
-41
-43
-46
-48
-48
-50
-49
-48
-44
-41
-38
-34
-31
-26
-21
-15
-9
-5
-4
-4
-4
-4
-4
-4
-4
-6
-6
-7
-8
-8
-8
-9
-9
-9
-10
-11
-13
-15
-18
-20
-23
-27
-30
-33
-36
-38
-41
-42
-45
-47
-48
-47
-44
-38
-33
-27
-21
-15
-8
-1
4
6
7
7
6
4
2
1
0
-1
-2
-3
-4
-6
-7
-9
-10
-11
-12
-13
-15
-16
-17
-18
-20
-22
-25
-28
-30
-34
-36
-39
-41
-42
-43
-44
-44
-42
-38
-31
-24
-16
-9
0
8
15
18
18
15
12
10
9
8
6
4
2
0
-2
-3
-4
-5
-6
-7
-7
-7
-7
-7
-7
-7
-9
-11
-14
-15
-17
-19
-21
-24
-28
-30
-32
-32
-32
-28
-23
-15
-9
-4
0
6
12
19
24
26
26
25
23
21
20
19
18
16
15
15
14
14
13
13
12
12
12
11
11
9
7
6
3
0
-2
-6
-9
-11
-15
-19
-22
-26
-28
-30
-32
-33
-29
-21
-9
7
27
57
91
134
174
215
248
271
283
284
281
267
250
227
207
187
170
154
134
114
92
73
56
41
28
13
2
-5
-9
-12
-15
-19
-23
-26
-29
-31
-33
-35
-36
-37
-38
-39
-37
-32
-26
-21
-16
-12
-8
-2
0
2
1
1
1
1
0
0
-1
-2
-4
-6
-7
-9
-10
-11
-11
-13
-14
-14
-16
-17
-19
-19
-21
-23
-24
-26
-27
-28
-30
-30
-31
-31
-32
-29
-25
-20
-15
-11
-7
-4
-2
-1
1
1
0
-1
-4
-5
-8
-9
-11
-13
-14
-15
-14
-16
-17
-17
-18
-19
-21
-22
-23
-24
-26
-26
-27
-29
-30
-32
-33
-35
-35
-35
-35
-34
-35
-35
-35
-37
-39
-38
-36
-29
-21
-12
-7
-6
-7
-8
-9
-10
-11
-13
-15
-17
-18
-19
-21
-22
-23
-24
-24
-25
-25
-26
-26
-29
-30
-30
-31
-32
-33
-33
-34
-34
-34
-34
-33
-33
-30
-26
-21
-18
-16
-14
-12
-9
-8
-7
-8
-8
-9
-8
-7
-5
-4
-4
-6
-10
-14
-20
-23
-26
-30
-31
-33
-35
-37
-39
-40
-41
-41
-41
-40
-40
-41
-43
-45
-45
-39
-27
-10
15
48
90
136
184
221
251
268
277
278
275
266
247
228
205
187
169
152
135
117
101
83
63
41
22
7
-2
-8
-11
-15
-18
-21
-22
-24
-25
-27
-30
-32
-35
-37
-39
-38
-38
-38
-36
-33
-30
-27
-23
-19
-17
-15
-14
-12
-11
-10
-8
-7
-8
-11
-14
-16
-16
-16
-18
-21
-27
-32
-39
-44
-45
-47
-50
-51
-52
-53
-54
-55
-57
-59
-61
-63
-64
-64
-66
-68
-69
-68
-69
-67
-64
-60
-56
-53
-52
-49
-46
-43
-40
-37
-33
-33
-33
-32
-31
-27
-22
-19
-19
-20
-24
-28
-30
-33
-35
-38
-40
-43
-45
-46
-48
-49
-51
-52
-54
-55
-56
-56
-55
-55
-55
-55
-53
-50
-45
-43
-41
-39
-36
-33
-31
-28
-25
-23
-22
-20
-19
-18
-15
-11
-10
-12
-15
-19
-24
-27
-30
-31
-32
-33
-34
-36
-37
-40
-42
-43
-44
-45
-45
-46
-47
-46
-48
-48
-47
-45
-43
-41
-38
-37
-35
-35
-31
-28
-25
-24
-23
-20
-17
-13
-11
-11
-10
-8
-4
-1
-1
-2
-3
-4
-4
-3
-5
-5
-6
-8
-11
-14
-18
-20
-22
-23
-24
-26
-27
-28
-29
-29
-30
-31
-30
-29
-28
-27
-26
-26
-25
-22
-20
-17
-15
-14
-12
-10
-9
-8
-4
-2
0
0
0
-1
-2
-4
-6
-8
-9
-11
-14
-16
-16
-20
-23
-27
-30
-32
-34
-34
-36
-37
-38
-39
-39
-39
-37
-36
-34
-33
-33
-32
-31
-30
-31
-30
-26
-16
0
24
55
92
133
175
212
242
259
264
262
255
247
228
210
186
167
147
127
106
80
57
36
17
-1
-18
-31
-40
-44
-48
-52
-54
-55
-55
-55
-55
-55
-55
-54
-52
-50
-48
-47
-46
-43
-37
-32
-28
-25
-23
-23
-24
-24
-26
-27
-27
-27
-28
-28
-29
-30
-32
-34
-36
-38
-40
-43
-45
-46
-49
-51
-53
-55
-58
-59
-61
-62
-62
-63
-63
-63
-62
-61
-59
-57
-57
-58
-56
-51
-46
-41
-37
-33
-30
-26
-23
-21
-20
-19
-19
-18
-17
-17
-16
-16
-15
-15
-16
-15
-17
-18
-19
-20
-21
-22
-23
-25
-26
-28
-30
-33
-36
-38
-39
-40
-41
-41
-40
-40
-39
-39
-38
-36
-32
-27
-23
-18
-15
-13
-12
-11
-12
-11
-11
-11
-11
-11
-12
-13
-13
-14
-16
-18
-19
-19
-20
-20
-20
-20
-20
-19
-20
-22
-25
-28
-30
-32
-34
-37
-40
-41
-39
-35
-32
-29
-28
-28
-27
-24
-20
-14
-9
-6
-4
-3
-3
-2
-1
-1
-1
-1
-2
-4
-5
-7
-8
-9
-10
-12
-12
-13
-13
-13
-13
-14
-16
-18
-19
-20
-21
-22
-22
-23
-21
-17
-11
-5
-4
-4
-4
-5
-7
-11
-16
-20
-22
-23
-24
-25
-27
-30
-30
-31
-32
-33
-32
-32
-33
-33
-35
-36
-37
-37
-39
-41
-41
-42
-41
-40
-38
-38
-39
-39
-39
-38
-36
-35
-32
-27
-20
-11
-3
2
4
2
0
-3
-3
-3
-4
-8
-12
-15
-18
-20
-23
-26
-28
-31
-33
-36
-36
-38
-40
-41
-44
-44
-44
-44
-44
-44
-43
-43
-43
-43
-43
-44
-43
-42
-40
-39
-35
-30
-24
-17
-7
2
9
12
13
13
10
7
4
1
-1
-3
-5
-8
-10
-12
-14
-19
-23
-24
-20
-11
2
24
51
89
127
168
199
217
229
225
221
207
193
173
151
132
111
93
72
54
40
33
27
18
9
0
-3
-4
0
5
8
9
9
8
5
1
-3
-8
-11
-14
-18
-22
-24
-27
-29
-30
-31
-32
-34
-35
-37
-39
-40
-43
-44
-46
-48
-49
-49
-47
-42
-35
-27
-18
-12
-9
-8
-7
-6
-5
-4
-5
-5
-7
-7
-8
-9
-8
-8
-8
-8
-8
-10
-13
-17
-20
-23
-27
-28
-31
-32
-34
-35
-35
-36
-38
-40
-42
-44
-46
-48
-50
-51
-51
-46
-38
-29
-22
-18
-14
-11
-8
-6
-3
-1
-1
-1
-1
-3
-3
-3
-3
-4
-5
-5
-7
-8
-8
-10
-13
-15
-19
-22
-24
-27
-29
-31
-33
-35
-38
-42
-46
-50
-52
-55
-55
-53
-47
-41
-34
-27
-22
-19
-17
-14
-10
-6
-4
-1
0
3
6
10
13
14
15
16
17
18
17
15
14
13
12
10
7
4
1
-1
-4
-6
-9
-12
-14
-16
-17
-19
-21
-22
-25
-29
-31
-33
-34
-34
-32
-30
-28
-27
-26
-25
-22
-18
-13
-8
-2
3
5
8
9
11
11
13
14
15
16
14
12
9
8
7
6
6
4
2
-1
-3
-5
-7
-7
-10
-12
-15
-16
-18
-19
-22
-26
-29
-33
-35
-31
-21
-3
17
43
74
112
157
200
238
266
278
283
280
276
263
244
225
205
191
174
158
134
111
90
71
53
34
20
7
0
-5
-9
-13
-18
-22
-25
-27
-30
-33
-36
-40
-44
-48
-53
-54
-53
-50
-47
-44
-43
-44
-45
-46
-44
-42
-40
-39
-38
-35
-32
-30
-30
-29
-29
-30
-32
-33
-34
-35
-36
-38
-39
-41
-42
-45
-48
-50
-53
-55
-59
-60
-61
-65
-67
-71
-72
-76
-78
-80
-83
-86
-88
-87
-85
-77
-70
-64
-61
-60
-60
-59
-55
-51
-46
-42
-37
-32
-26
-21
-18
-15
-13
-10
-9
-8
-9
-9
-8
-8
-6
-6
-7
-10
-13
-18
-22
-24
-27
-30
-33
-35
-38
-41
-43
-47
-50
-52
-52
-53
-51
-49
-47
-44
-42
-40
-39
-37
-34
-29
-25
-21
-16
-12
-7
-4
-1
1
4
6
9
11
11
10
10
10
9
8
4
2
0
-3
-5
-7
-9
-12
-14
-18
-24
-29
-34
-38
-41
-44
-44
-43
-42
-41
-39
-37
-34
-32
-29
-26
-23
-20
-18
-15
-12
-7
-1
5
8
11
13
14
14
12
11
8
7
4
3
2
0
-1
-4
-9
-14
-18
-20
-23
-26
-30
-33
-37
-42
-46
-51
-54
-57
-58
-58
-57
-56
-56
-55
-55
-52
-49
-47
-45
-43
-41
-39
-36
-32
-29
-24
-20
-18
-15
-13
-10
-7
-6
-6
-6
-7
-8
-9
-9
-10
-12
-14
-15
-19
-21
-23
-24
-25
-27
-28
-31
-33
-36
-39
-41
-45
-47
-50
-51
-52
-52
-50
-49
-45
-43
-39
-35
-32
-28
-25
-21
-17
-13
-10
-6
-1
3
6
10
11
11
10
9
6
4
2
0
-1
-4
-6
-8
-12
-15
-18
-22
-25
-28
-30
-33
-35
-38
-39
-42
-44
-46
-48
-49
-49
-48
-48
-48
-48
-47
-44
-39
-35
-31
-26
-22
-18
-14
-9
-4
0
5
7
9
10
11
11
11
10
8
7
6
5
3
2
1
0
-3
-6
-8
-11
-13
-16
-18
-20
-22
-25
-28
-33
-37
-35
-28
-15
3
28
63
103
148
189
223
246
260
262
263
258
247
234
218
207
192
178
161
143
124
104
88
70
54
39
28
21
16
12
8
4
0
-3
-7
-10
-14
-18
-22
-26
-31
-36
-41
-43
-46
-47
-46
-46
-45
-44
-41
-38
-33
-29
-26
-22
-19
-17
-13
-9
-4
0
2
3
5
7
7
7
5
3
0
-1
-2
-4
-6
-8
-11
-13
-16
-17
-21
-23
-26
-29
-32
-35
-39
-41
-41
-40
-38
-34
-34
-34
-36
-36
-35
-34
-31
-29
-27
-26
-23
-20
-16
-11
-7
-5
-3
-2
0
2
3
3
2
0
-1
-3
-4
-7
-10
-14
-17
-21
-24
-26
-29
-32
-35
-39
-43
-47
-51
-55
-55
-55
-53
-51
-51
-50
-51
-50
-49
-46
-43
-41
-39
-38
-34
-30
-25
-21
-17
-14
-10
-8
-6
-4
-3
-2
-1
0
0
1
1
1
2
1
0
-1
-1
-3
-5
-8
-12
-16
-18
-13
-6
7
30
65
103
150
187
218
238
246
253
252
251
237
221
204
187
172
158
147
132
119
103
88
73
58
46
35
30
27
25
23
20
16
12
9
5
3
0
-3
-6
-9
-12
-16
-19
-24
-29
-34
-40
-46
-50
-51
-50
-48
-46
-46
-47
-47
-45
-43
-42
-40
-36
-34
-33
-30
-26
-20
-18
-16
-14
-13
-13
-13
-13
-14
-15
-17
-16
-17
-17
-17
-19
-21
-23
-26
-29
-31
-32
-35
-37
-40
-43
-46
-50
-53
-56
-57
-57
-54
-50
-48
-45
-45
-43
-42
-40
-39
-35
-31
-27
-25
-22
-18
-15
-11
-8
-5
-2
0
1
1
-1
-4
-6
-8
-10
-12
-13
-14
-17
-21
-25
-28
-32
-36
-40
-45
-48
-51
-54
-58
-62
-66
-71
-76
-80
-82
-82
-80
-76
-73
-70
-68
-64
-60
-52
-44
-36
-28
-20
-12
-6
-3
-3
-3
-2
-1
-3
-4
-5
-7
-9
-11
-12
-14
-16
-19
-23
-27
-32
-37
-40
-43
-47
-49
-53
-58
-61
-65
-68
-69
-68
-66
-66
-65
-64
-63
-61
-55
-48
-41
-33
-22
-12
-6
-3
-3
-3
-4
-6
-8
-9
-12
-15
-16
-18
-18
-19
-21
-23
-27
-30
-33
-36
-38
-39
-41
-44
-46
-48
-49
-53
-55
-57
-57
-54
-51
-46
-44
-42
-41
-37
-33
-29
-22
-14
-3
6
14
20
21
21
21
20
17
13
10
12
19
34
52
81
113
152
193
232
263
278
281
273
264
247
226
201
179
157
135
114
89
64
41
21
3
-15
-33
-44
-50
-48
-40
-28
-18
-8
0
7
10
11
10
9
7
4
2
0
-1
-3
-5
-7
-9
-11
-13
-17
-20
-23
-26
-28
-31
-34
-36
-38
-40
-42
-44
-46
-50
-52
-55
-59
-63
-67
-70
-74
-77
-79
-83
-85
-88
-90
-92
-90
-89
-87
-83
-79
-77
-72
-66
-62
-56
-50
-43
-37
-32
-29
-27
-26
-26
-26
-26
-25
-25
-25
-24
-23
-22
-21
-20
-20
-21
-21
-22
-22
-23
-24
-26
-28
-32
-34
-37
-39
-42
-46
-50
-54
-58
-62
-66
-64
-61
-57
-54
-52
-50
-47
-42
-38
-33
-27
-19
-10
-2
2
2
0
0
-1
-1
-2
-2
-2
-2
-3
-4
-5
-7
-9
-11
-12
-13
-15
-17
-18
-20
-23
-25
-27
-31
-35
-38
-41
-44
-47
-50
-54
-59
-64
-69
-72
-74
-71
-67
-60
-55
-51
-47
-42
-35
-28
-18
-9
-1
6
11
12
13
12
11
11
11
10
9
8
7
7
6
5
3
2
1
-1
-2
-4
-6
-9
-12
-16
-19
-22
-26
-30
-34
-39
-42
-46
-50
-53
-54
-53
-51
-46
-42
-38
-33
-28
-24
-20
-14
-6
0
6
11
11
11
9
6
2
1
4
14
27
47
75
109
152
191
231
256
267
268
258
248
226
204
179
156
135
113
94
72
52
32
18
6
-4
-13
-21
-26
-27
-25
-20
-16
-11
-7
-1
5
12
16
19
18
18
17
17
16
14
14
12
9
7
5
2
-1
-5
-10
-15
-20
-25
-31
-35
-40
-45
-49
-52
-56
-58
-59
-58
-58
-59
-57
-57
-54
-53
-50
-48
-45
-41
-35
-28
-20
-14
-9
-6
-6
-6
-7
-7
-8
-9
-10
-11
-11
-13
-13
-15
-17
-19
-21
-23
-26
-27
-30
-32
-34
-36
-38
-41
-43
-43
-43
-42
-43
-42
-41
-39
-35
-30
-22
-13
-6
1
6
9
10
10
10
9
9
7
5
3
2
0
-1
-2
-5
-7
-9
-11
-13
-15
-16
-19
-22
-25
-29
-32
-36
-38
-41
-41
-39
-37
-36
-36
-35
-34
-31
-28
-23
-17
-11
-1
11
21
27
29
29
28
25
25
23
22
19
16
14
11
10
9
7
4
0
-2
-5
-9
-12
-15
-18
-20
-23
-27
-33
-39
-43
-45
-44
-43
-42
-40
-36
-30
-28
-24
-20
-15
-10
-5
0
4
10
16
23
26
27
28
27
26
22
19
16
14
11
9
7
3
1
0
-1
-2
-4
-5
-7
-10
-12
-15
-17
-20
-23
-26
-29
-33
-36
-38
-40
-42
-44
-42
-38
-32
-27
-22
-16
-9
-5
0
1
2
2
3
5
6
8
8
6
3
1
0
0
0
0
-3
-6
-9
-12
-13
-13
-14
-14
-15
-16
-17
-18
-18
-21
-23
-25
-27
-30
-34
-38
-42
-43
-42
-39
-34
-30
-26
-22
-18
-15
-12
-11
-10
-8
0
14
34
60
93
131
173
217
253
282
293
296
286
274
259
238
218
195
177
155
135
111
89
71
52
35
16
1
-12
-21
-26
-30
-33
-36
-37
-37
-37
-37
-35
-32
-29
-25
-22
-19
-17
-14
-10
-8
-5
-2
-1
0
0
2
3
3
1
0
-1
-1
-2
-4
-6
-8
-10
-13
-15
-17
-18
-19
-21
-25
-27
-29
-33
-37
-39
-43
-46
-47
-46
-43
-42
-40
-40
-40
-42
-41
-41
-39
-37
-35
-31
-29
-26
-23
-18
-13
-9
-6
-4
-3
-1
1
1
3
3
4
4
5
5
4
2
-1
-3
-5
-7
-8
-10
-11
-13
-15
-18
-20
-23
-26
-27
-29
-29
-28
-28
-28
-29
-30
-31
-30
-28
-27
-26
-24
-22
-20
-16
-11
-7
-2
1
4
6
8
11
12
11
10
10
11
10
9
8
6
3
0
-2
-3
-5
-7
-8
-10
-12
-14
-18
-22
-24
-27
-29
-31
-31
-33
-33
-33
-32
-33
-32
-30
-28
-25
-23
-19
-17
-15
-12
-8
-4
0
2
5
6
7
8
9
9
9
9
9
7
6
4
1
-1
-3
-5
-8
-10
-11
-12
-14
-16
-18
-20
-23
-26
-29
-31
-33
-34
-34
-32
-32
-32
-33
-34
-33
-31
-29
-26
-21
-18
-16
-13
-9
-6
-3
-2
0
0
2
3
4
2
0
-3
-3
1
11
26
48
72
107
141
182
214
239
252
254
253
242
228
207
186
166
148
133
116
99
77
58
42
27
15
3
-4
-8
-9
-9
-7
-4
-1
0
1
2
3
4
6
6
6
4
2
2
1
-1
-3
-7
-12
-16
-20
-25
-28
-31
-34
-37
-38
-40
-42
-43
-42
-40
-36
-31
-30
-30
-34
-36
-38
-40
-40
-40
-39
-37
-35
-31
-28
-27
-28
-28
-27
-25
-24
-23
-25
-25
-24
-24
-23
-24
-25
-28
-31
-34
-36
-38
-41
-41
-43
-44
-45
-44
-42
-38
-32
-27
-23
-21
-19
-18
-16
-15
-16
-17
-20
-21
-21
-19
-16
-15
-14
-13
-12
-10
-8
-8
-8
-9
-9
-10
-10
-11
-13
-14
-16
-17
-20
-22
-24
-25
-26
-26
-26
-26
-24
-22
-19
-16
-14
-12
-9
-8
-9
-9
-8
-7
-6
-4
-2
-3
-3
-4
-6
-7
-8
-8
-10
-9
-8
-7
-7
-8
-10
-12
-15
-18
-21
-24
-27
-29
-32
-33
-34
-35
-35
-35
-34
-34
-32
-32
-31
-32
-32
-32
-31
-31
-30
-30
-29
-29
-28
-27
-26
-26
-26
-26
-25
-25
-24
-23
-21
-19
-16
-12
-10
-9
-6
-3
-2
0
2
6
9
9
7
5
3
2
1
1
0
0
-1
-2
-4
-5
-6
-6
-7
-8
-7
-9
-9
-10
-11
-12
-13
-14
-16
-17
-20
-20
-21
-22
-24
-25
-26
-28
-30
-33
-35
-38
-40
-42
-45
-47
-50
-52
-54
-57
-59
-61
-58
-55
-49
-43
-36
-28
-20
-12
-5
2
12
24
36
52
71
101
133
173
212
243
268
275
278
270
260
242
220
196
173
151
128
106
80
54
32
14
-3
-21
-36
-49
-60
-66
-70
-71
-72
-71
-68
-66
-62
-59
-55
-52
-47
-42
-35
-28
-22
-19
-16
-14
-12
-12
-12
-12
-11
-11
-11
-11
-11
-12
-13
-13
-14
-16
-17
-20
-22
-26
-30
-34
-37
-40
-41
-44
-45
-48
-53
-57
-57
-54
-51
-49
-48
-46
-42
-37
-35
-33
-31
-29
-25
-19
-12
-8
-4
-2
0
1
2
3
3
2
0
0
0
0
-1
-2
-3
-6
-7
-9
-11
-14
-19
-24
-29
-31
-31
-30
-30
-32
-35
-39
-40
-41
-40
-38
-37
-35
-34
-31
-27
-22
-19
-20
-21
-21
-21
-20
-16
-13
-11
-10
-9
-10
-12
-14
-15
-15
-16
-16
-16
-16
-17
-18
-18
-19
-21
-22
-23
-25
-26
-28
-29
-31
-33
-35
-37
-40
-42
-47
-50
-55
-58
-64
-68
-71
-76
-78
-78
-71
-62
-48
-33
-16
-1
9
13
15
14
13
12
12
12
13
14
13
14
14
14
12
12
11
10
9
7
6
4
1
0
-2
-2
-4
-6
-8
-10
-14
-17
-20
-23
-27
-30
-33
-36
-40
-44
-50
-56
-60
-64
-63
-61
-61
-60
-59
-56
-52
-44
-38
-30
-18
-6
0
3
4
5
5
4
3
-1
-3
-5
-6
-8
-10
-11
-12
-13
-15
-16
-17
-18
-21
-24
-27
-31
-33
-36
-39
-42
-45
-49
-54
-59
-64
-68
-69
-67
-62
-59
-56
-55
-53
-50
-46
-41
-33
-22
-11
0
6
8
7
5
2
0
-1
-2
-4
-6
-7
-11
-12
-14
-16
-18
-20
-22
-25
-29
-32
-36
-40
-46
-49
-52
-53
-57
-61
-64
-68
-68
-67
-62
-58
-54
-53
-51
-47
-41
-30
-15
7
40
80
128
177
226
273
301
319
320
315
306
287
266
237
215
190
168
143
118
93
68
49
28
8
-10
-27
-39
-47
-53
-56
-61
-63
-61
-58
-56
-54
-52
-49
-44
-39
-35
-31
-24
-17
-7
0
6
7
6
3
0
-4
-8
-11
-13
-16
-19
-22
-24
-28
-31
-34
-37
-40
-45
-48
-52
-55
-59
-64
-66
-69
-69
-71
-70
-69
-67
-65
-64
-62
-61
-58
-56
-51
-45
-37
-27
-17
-10
-5
-4
-4
-5
-6
-7
-10
-13
-15
-18
-21
-23
-25
-28
-30
-32
-34
-36
-40
-43
-47
-51
-52
-54
-56
-57
-57
-57
-57
-58
-59
-57
-54
-51
-47
-41
-35
-28
-20
-12
-6
-1
0
0
0
-2
-4
-6
-7
-10
-12
-14
-17
-19
-22
-24
-27
-31
-34
-39
-42
-46
-49
-51
-54
-58
-62
-64
-65
-63
-62
-60
-59
-59
-58
-57
-54
-50
-47
-41
-32
-21
-10
-3
0
2
0
0
-2
-3
-4
-6
-8
-10
-11
-12
-13
-15
-18
-21
-25
-27
-31
-34
-38
-40
-42
-45
-47
-50
-50
-54
-56
-53
-49
-43
-41
-38
-36
-32
-26
-20
-11
-3
5
13
19
24
26
26
27
25
25
23
22
19
17
15
13
12
11
9
7
5
3
0
-4
-7
-10
-14
-17
-20
-24
-31
-38
-42
-41
-35
-20
5
44
88
138
179
220
249
270
279
282
280
272
261
246
234
217
200
180
158
136
114
97
78
61
45
34
27
21
18
14
11
7
3
0
-5
-9
-14
-19
-25
-31
-37
-44
-51
-58
-64
-68
-71
-68
-64
-59
-56
-54
-52
-51
-47
-44
-41
-38
-35
-33
-28
-25
-23
-21
-18
-16
-13
-11
-10
-10
-10
-10
-10
-11
-12
-14
-18
-20
-23
-25
-25
-26
-27
-27
-28
-29
-31
-33
-35
-38
-41
-47
-52
-58
-64
-68
-72
-75
-78
-77
-74
-71
-67
-62
-55
-52
-48
-46
-41
-37
-32
-27
-24
-22
-21
-18
-14
-11
-8
-6
-3
0
3
5
6
7
7
7
6
5
4
2
0
-3
-6
-9
-11
-13
-15
-19
-22
-26
-28
-32
-37
-43
-49
-55
-60
-61
-59
-58
-58
-55
-51
-45
-39
-34
-29
-26
-20
-17
-11
-6
-1
3
7
10
11
11
9
8
7
5
3
1
0
-3
-6
-8
-10
-12
-14
-16
-19
-20
-21
-23
-26
-28
-31
-32
-30
-25
-20
-15
-13
-12
-9
-7
-4
-1
0
4
8
14
20
27
32
35
35
33
32
29
25
20
16
16
21
32
46
69
96
131
167
205
237
256
269
268
266
254
238
215
191
168
144
127
111
98
82
67
54
42
31
20
12
5
5
7
12
17
22
25
24
23
20
19
17
14
11
8
5
3
0
-1
-4
-7
-10
-12
-15
-17
-19
-22
-25
-27
-29
-32
-36
-40
-44
-49
-54
-59
-61
-59
-55
-48
-43
-38
-34
-29
-24
-19
-14
-11
-7
-5
-5
-7
-8
-9
-11
-13
-16
-20
-23
-25
-27
-29
-31
-34
-37
-38
-40
-41
-42
-41
-43
-46
-47
-50
-51
-54
-57
-61
-64
-69
-73
-76
-79
-77
-76
-73
-72
-69
-66
-63
-59
-57
-53
-50
-45
-40
-33
-24
-16
-11
-9
-9
-9
-10
-11
-13
-15
-16
-18
-20
-22
-22
-24
-26
-28
-30
-34
-37
-41
-46
-49
-53
-58
-63
-64
-63
-59
-56
-52
-51
-50
-47
-43
-39
-36
-33
-30
-25
-19
-13
-7
-2
0
0
-1
-3
-6
-8
-10
-11
-12
-12
-14
-15
-17
-17
-19
-20
-23
-26
-28
-31
-33
-36
-38
-41
-45
-48
-50
-47
-44
-41
-38
-36
-34
-32
-27
-23
-19
-14
-8
-2
6
15
21
25
27
26
24
23
20
19
16
14
11
9
7
4
2
0
-2
-4
-7
-9
-12
-14
-18
-21
-25
-29
-30
-29
-25
-23
-22
-21
-19
-17
-17
-14
-8
3
21
45
77
120
166
218
263
298
317
319
318
305
294
270
246
220
196
177
154
135
108
85
63
44
24
5
-10
-24
-33
-41
-48
-55
-58
-58
-56
-53
-49
-46
-43
-39
-34
-30
-26
-22
-18
-15
-10
-6
0
4
5
5
4
3
1
-1
-2
-7
-10
-13
-15
-18
-22
-25
-29
-33
-36
-40
-43
-47
-50
-54
-57
-63
-68
-71
-73
-72
-72
-70
-70
-70
-70
-69
-65
-63
-60
-58
-54
-50
-45
-40
-35
-28
-24
-19
-17
-16
-16
-18
-19
-19
-21
-22
-23
-24
-24
-26
-28
-30
-32
-34
-38
-42
-46
-48
-52
-56
-59
-61
-61
-59
-58
-57
-57
-56
-54
-51
-50
-48
-46
-43
-39
-33
-24
-14
-6
-1
2
3
4
3
3
3
2
2
2
2
1
0
-1
-2
-5
-8
-9
-9
-11
-13
-16
-19
-23
-25
-29
-33
-36
-40
-43
-43
-40
-35
-29
-26
-25
-22
-17
-14
-11
-7
-3
0
4
7
12
16
19
21
22
22
20
18
17
14
12
10
8
6
4
1
0
-2
-5
-7
-9
-12
-15
-18
-20
-24
-30
-34
-37
-34
-25
-8
18
54
98
148
192
234
257
275
281
284
282
268
255
237
226
211
197
178
157
138
116
100
79
61
43
29
19
14
11
8
5
0
-2
-6
-10
-14
-18
-22
-26
-30
-34
-36
-37
-36
-35
-35
-34
-33
-33
-32
-29
-26
-25
-24
-20
-16
-12
-7
-3
0
2
2
1
0
-2
-5
-8
-10
-14
-18
-22
-24
-27
-30
-32
-36
-41
-43
-46
-48
-53
-55
-59
-63
-67
-69
-67
-66
-65
-65
-62
-62
-59
-55
-53
-50
-48
-44
-41
-36
-30
-23
-17
-12
-11
-11
-12
-13
-15
-17
-19
-21
-22
-23
-25
-26
-28
-31
-33
-37
-40
-44
-47
-51
-56
-60
-63
-65
-65
-64
-63
-60
-58
-55
-53
-50
-48
-46
-42
-38
-33
-26
-19
-14
-9
-6
-5
-5
-6
-8
-11
-14
-17
-20
-24
-27
-29
-32
-35
-38
-40
-43
-45
-47
-50
-52
-56
-58
-59
-58
-54
-52
-48
-44
-39
-33
-27
-21
-16
-13
-11
-8
-5
-1
3
8
10
12
13
14
14
13
12
10
8
5
3
1
-1
-4
-9
-14
-17
-15
-8
5
24
53
87
124
162
189
213
225
235
237
237
230
215
202
184
173
160
151
139
125
113
99
89
73
60
48
38
32
27
23
19
15
9
4
0
-3
-8
-12
-15
-18
-21
-25
-29
-33
-38
-42
-45
-49
-52
-56
-59
-60
-61
-59
-53
-49
-45
-41
-38
-35
-31
-27
-24
-18
-12
-5
0
3
4
4
4
1
0
-3
-6
-8
-9
-9
-11
-13
-15
-16
-17
-18
-20
-23
-26
-30
-34
-40
-47
-52
-59
-65
-72
-77
-79
-79
-75
-72
-67
-63
-56
-50
-44
-37
-31
-24
-20
-16
-14
-15
-16
-16
-16
-16
-17
-17
-18
-21
-23
-24
-25
-27
-29
-30
-31
-31
-33
-34
-36
-37
-39
-40
-42
-45
-46
-49
-51
-54
-57
-59
-61
-61
-58
-56
-56
-56
-55
-53
-51
-49
-46
-42
-40
-38
-36
-32
-28
-23
-20
-17
-14
-10
-5
-1
1
1
1
0
0
0
-1
-1
-2
-5
-8
-11
-14
-17
-20
-22
-24
-26
-30
-33
-38
-42
-44
-47
-48
-48
-48
-48
-47
-45
-42
-41
-39
-37
-35
-33
-31
-27
-22
-19
-16
-13
-10
-6
-2
1
1
1
0
0
-1
-2
-2
-2
-3
-4
-5
-7
-9
-10
-13
-15
-17
-19
-21
-23
-24
-24
-22
-20
-18
-16
-16
-17
-17
-16
-16
-16
-15
-12
-10
-7
-3
1
6
8
11
11
11
12
16
25
39
56
79
109
141
179
215
247
265
275
272
265
253
233
211
185
166
145
128
109
90
71
53
40
26
12
-1
-11
-17
-21
-21
-21
-22
-23
-23
-20
-18
-18
-19
-20
-21
-22
-21
-21
-21
-24
-25
-26
-26
-27
-29
-31
-34
-38
-40
-43
-45
-47
-48
-51
-52
-54
-56
-57
-60
-60
-63
-64
-66
-64
-61
-58
-54
-54
-54
-56
-55
-55
-55
-56
-54
-53
-52
-50
-46
-40
-35
-28
-22
-16
-12
-9
-7
-6
-7
-8
-9
-10
-12
-13
-13
-14
-17
-19
-22
-24
-26
-29
-31
-35
-39
-44
-47
-50
-52
-52
-52
-50
-49
-48
-49
-49
-49
-49
-47
-46
-45
-44
-43
-39
-35
-30
-26
-23
-19
-14
-9
-7
-7
-7
-9
-10
-11
-12
-14
-14
-16
-19
-22
-25
-28
-30
-33
-37
-40
-43
-45
-47
-48
-49
-49
-48
-47
-47
-48
-49
-48
-47
-45
-42
-41
-39
-36
-34
-32
-28
-22
-14
-7
-3
0
1
0
-1
-3
-4
-6
-8
-10
-12
-15
-17
-19
-23
-26
-28
-29
-32
-34
-35
-38
-41
-45
-47
-47
-48
-47
-46
-44
-43
-41
-41
-40
-36
-32
-28
-23
-16
-10
-4
1
7
12
16
17
18
17
16
15
14
15
13
12
10
6
1
0
2
8
22
41
70
103
142
180
209
230
236
235
225
215
197
179
161
141
123
104
90
76
64
58
54
53
51
46
37
31
26
21
18
15
14
12
10
7
6
5
4
2
0
-4
-7
-11
-14
-17
-20
-22
-24
-26
-28
-33
-36
-40
-44
-47
-51
-55
-59
-62
-63
-63
-60
-59
-58
-56
-54
-53
-53
-53
-51
-49
-46
-40
-36
-30
-25
-23
-22
-22
-21
-23
-23
-24
-26
-27
-27
-28
-29
-30
-32
-35
-36
-38
-40
-42
-43
-46
-50
-52
-56
-59
-63
-63
-62
-58
-53
-49
-46
-43
-38
-34
-29
-26
-24
-20
-15
-10
-6
-1
1
5
7
8
8
8
5
4
2
1
0
-2
-4
-7
-9
-12
-14
-16
-20
-23
-26
-29
-32
-35
-38
-42
-47
-48
-47
-43
-39
-35
-32
-29
-26
-19
-14
-9
-4
0
2
5
7
7
6
4
3
1
-1
-2
-4
-5
-6
-7
-8
-9
-11
-13
-14
-17
-20
-24
-27
-29
-31
-33
-36
-39
-43
-45
-48
-51
-53
-57
-59
-61
-58
-53
-44
-32
-22
-12
-5
2
8
11
12
12
10
8
6
6
6
5
6
5
6
6
6
6
5
4
4
4
3
3
1
0
0
-2
-2
-3
-2
-3
-4
-5
-6
-6
-8
-9
-8
-1
9
27
50
83
120
163
202
234
258
264
267
259
251
237
217
199
178
163
143
126
106
86
68
52
40
26
14
3
-3
-6
-7
-8
-8
-8
-7
-6
-4
-1
0
3
5
5
4
3
1
-1
-3
-3
-3
-3
-4
-4
-5
-6
-9
-13
-17
-20
-24
-27
-30
-34
-37
-39
-42
-44
-45
-48
-49
-50
-49
-50
-50
-49
-47
-43
-39
-33
-29
-26
-23
-23
-24
-25
-26
-26
-25
-24
-25
-28
-31
-33
-35
-36
-37
-37
-37
-37
-38
-38
-40
-41
-42
-42
-42
-42
-42
-42
-43
-43
-42
-41
-38
-35
-31
-27
-23
-20
-17
-14
-12
-9
-5
-4
-3
-5
-8
-11
-13
-14
-17
-19
-22
-24
-26
-28
-29
-30
-32
-32
-33
-35
-37
-37
-37
-36
-34
-32
-30
-28
-24
-20
-16
-13
-9
-7
-7
-8
-11
-15
-19
-21
-22
-21
-22
-24
-25
-25
-25
-27
-28
-29
-31
-32
-33
-35
-38
-40
-42
-45
-48
-50
-52
-54
-54
-55
-55
-54
-52
-50
-48
-45
-43
-39
-35
-29
-23
-17
-12
-7
-3
-1
0
2
3
3
2
0
-3
-6
-8
-10
-14
-17
-20
-23
-25
-27
-29
-31
-33
-36
-39
-41
-44
-46
-49
-50
-53
-54
-56
-59
-60
-62
-62
-64
-64
-65
-66
-66
-65
-62
-60
-55
-49
-36
-23
-12
0
15
31
51
78
111
151
190
231
257
273
275
273
264
250
230
208
187
165
145
124
104
81
60
41
23
7
-8
-21
-31
-37
-39
-41
-42
-42
-42
-39
-36
-29
-22
-14
-5
1
6
9
10
10
8
4
0
-4
-9
-14
-19
-24
-28
-32
-35
-39
-42
-47
-50
-53
-54
-56
-58
-59
-61
-63
-64
-66
-68
-69
-69
-68
-67
-64
-59
-54
-46
-40
-34
-29
-25
-23
-21
-22
-24
-26
-28
-29
-32
-35
-37
-40
-43
-47
-50
-53
-55
-57
-58
-59
-61
-60
-60
-59
-59
-58
-58
-58
-56
-55
-53
-54
-53
-47
-39
-29
-23
-16
-11
-7
-4
-1
-2
-5
-8
-11
-14
-17
-21
-24
-26
-28
-30
-33
-34
-36
-38
-41
-43
-45
-46
-47
-50
-54
-56
-58
-58
-57
-56
-55
-57
-57
-56
-54
-51
-48
-43
-33
-20
-8
0
2
3
0
-2
-5
-8
-11
-12
-13
-15
-16
-17
-17
-19
-20
-21
-23
-26
-29
-31
-32
-35
-36
-39
-39
-41
-42
-44
-45
-45
-45
-43
-42
-40
-38
-36
-33
-31
-26
-20
-9
1
9
13
11
8
4
0
-2
-4
-5
-6
-8
-10
-13
-16
-18
-19
-22
-25
-28
-31
-33
-34
-36
-36
-37
-39
-40
-41
-41
-42
-43
-43
-43
-42
-39
-34
-27
-17
-5
5
14
21
23
24
20
16
12
10
8
6
5
4
3
2
1
-1
-3
-5
-7
-9
-10
-11
-13
-14
-14
-15
-16
-17
-19
-21
-21
-16
-7
7
28
59
98
144
194
246
290
320
331
331
319
300
278
251
228
200
178
154
130
105
82
63
44
26
7
-7
-18
-26
-30
-34
-38
-40
-43
-45
-46
-47
-49
-50
-51
-51
-50
-50
-48
-48
-46
-40
-30
-17
-6
0
4
4
2
-1
-5
-10
-14
-17
-19
-23
-25
-27
-29
-32
-35
-38
-40
-43
-44
-45
-46
-46
-47
-48
-48
-48
-48
-48
-48
-49
-50
-50
-51
-50
-50
-50
-52
-54
-53
-50
-43
-34
-24
-15
-7
-3
1
4
4
2
0
-1
-2
-3
-5
-6
-9
-13
-16
-18
-19
-20
-21
-22
-24
-26
-28
-28
-30
-30
-30
-31
-33
-34
-34
-35
-35
-36
-36
-35
-34
-31
-28
-24
-21
-17
-12
-7
-3
-1
-2
-3
-5
-6
-7
-8
-9
-11
-14
-18
-21
-24
-27
-31
-34
-36
-37
-39
-41
-42
-44
-44
-44
-44
-44
-44
-43
-41
-40
-38
-36
-32
-26
-19
-11
-4
3
6
8
9
12
14
16
16
16
15
13
11
9
8
6
4
2
0
-2
-4
-6
-8
-9
-10
-12
-14
-17
-18
-19
-19
-19
-19
-18
-18
-18
-17
-15
-11
-5
2
8
13
17
20
21
23
23
24
24
25
24
23
22
18
16
12
9
6
3
1
0
0
0
0
-3
-6
-10
-11
-8
-2
8
23
47
77
116
157
190
217
232
245
249
254
248
236
218
197
181
164
153
138
124
108
92
78
61
47
33
22
14
8
4
0
-1
-3
-5
-9
-11
-14
-16
-18
-19
-21
-22
-23
-24
-24
-22
-21
-21
-22
-22
-21
-18
-14
-10
-8
-9
-13
-18
-21
-21
-19
-17
-15
-15
-17
-18
-20
-22
-23
-24
-27
-29
-31
-33
-35
-36
-39
-40
-41
-41
-44
-46
-46
-47
-47
-48
-46
-46
-45
-45
-43
-39
-35
-29
-23
-18
-15
-14
-14
-13
-9
-4
0
5
8
8
7
4
3
1
0
-3
-5
-7
-8
-10
-11
-12
-13
-14
-15
-16
-16
-17
-18
-19
-19
-18
-18
-19
-20
-19
-18
-13
-9
-5
-2
-1
-1
-2
-1
0
3
5
8
9
8
6
3
1
-1
-3
-7
-9
-11
-14
-16
-18
-20
-21
-22
-21
-22
-23
-23
-24
-24
-24
-24
-23
-22
-23
-23
-21
-17
-11
-6
-1
3
7
10
14
19
25
28
29
28
26
23
21
19
17
15
13
11
8
6
3
2
1
-1
-3
-5
-8
-10
-12
-12
-13
-13
-13
-14
-13
-13
-12
-15
-16
-12
-1
12
32
55
88
126
165
209
241
269
277
281
277
266
252
228
207
184
164
144
123
100
75
55
36
20
5
-8
-18
-27
-31
-34
-37
-39
-41
-41
-41
-40
-40
-40
-40
-39
-36
-32
-27
-24
-21
-18
-16
-14
-9
-4
0
3
4
3
1
0
0
-1
-3
-5
-8
-11
-14
-17
-20
-22
-25
-27
-30
-31
-34
-36
-37
-38
-38
-39
-38
-39
-40
-41
-43
-42
-41
-39
-37
-36
-36
-35
-34
-32
-28
-25
-21
-20
-19
-19
-19
-19
-20
-21
-22
-24
-26
-27
-28
-28
-29
-29
-29
-30
-30
-31
-32
-33
-34
-36
-37
-39
-40
-41
-41
-42
-43
-42
-38
-34
-29
-24
-18
-15
-9
-5
-1
1
1
0
0
-1
-4
-5
-6
-9
-12
-15
-17
-20
-22
-23
-24
-24
-25
-24
-24
-25
-26
-27
-26
-23
-21
-20
-20
-22
-23
-23
-20
-16
-14
-14
-13
-9
-5
0
2
5
7
7
7
7
5
4
3
1
0
-2
-4
-6
-7
-9
-11
-12
-14
-15
-18
-19
-19
-20
-20
-21
-21
-21
-21
-20
-19
-18
-21
-20
-17
-11
-4
1
6
8
9
8
8
8
7
5
3
1
-1
-2
-4
-5
-6
-8
-10
-13
-15
-17
-20
-21
-23
-24
-26
-26
-27
-28
-28
-29
-29
-30
-30
-32
-33
-34
-35
-36
-39
-40
-40
-36
-30
-24
-18
-12
-5
0
5
6
5
2
0
-3
-5
-7
-9
-10
-11
-12
-13
-15
-17
-18
-20
-22
-23
-24
-24
-25
-26
-26
-26
-27
-28
-27
-28
-27
-27
-28
-27
-25
-21
-16
-11
-8
-6
-6
-8
-10
-15
-20
-27
-32
-36
-39
-41
-44
-45
-48
-49
-51
-53
-55
-56
-57
-58
-57
-56
-55
-53
-51
-50
-50
-50
-53
-52
-47
-37
-21
1
29
69
116
165
209
243
267
273
274
263
249
227
207
187
170
152
131
110
88
68
50
34
18
2
-10
-18
-22
-25
-27
-27
-29
-30
-31
-32
-32
-33
-35
-37
-37
-38
-39
-41
-43
-43
-39
-31
-20
-10
0
5
9
9
7
6
5
3
1
-1
-1
-3
-5
-7
-9
-12
-16
-20
-23
-26
-28
-30
-31
-32
-35
-37
-40
-42
-45
-46
-49
-52
-56
-58
-62
-66
-69
-72
-68
-60
-48
-37
-28
-22
-18
-16
-15
-15
-14
-14
-15
-16
-16
-15
-15
-14
-13
-15
-16
-18
-20
-22
-24
-25
-26
-26
-27
-28
-28
-30
-32
-36
-37
-41
-43
-45
-47
-49
-49
-46
-41
-31
-21
-14
-9
-9
-12
-16
-18
-19
-20
-21
-22
-22
-23
-24
-25
-26
-27
-30
-31
-33
-35
-36
-36
-36
-36
-37
-38
-40
-42
-43
-45
-47
-49
-49
-51
-52
-52
-51
-45
-38
-28
-16
-3
5
11
11
8
3
-2
-5
-8
-10
-11
-13
-14
-17
-18
-21
-23
-25
-26
-27
-29
-30
-32
-32
-33
-33
-33
-34
-34
-36
-37
-40
-42
-44
-46
-47
-49
-48
-45
-37
-27
-15
-5
0
2
2
0
-3
-7
-10
-13
-16
-19
-21
-24
-26
-29
-32
-35
-38
-43
-47
-48
-49
-49
-50
-49
-50
-51
-52
-53
-53
-54
-54
-55
-56
-57
-58
-58
-58
-55
-46
-34
-21
-12
-5
-3
-4
-6
-8
-9
-10
-10
-11
-13
-15
-14
-10
0
12
32
58
91
130
171
205
231
244
249
247
239
226
204
184
161
141
120
100
79
55
35
18
5
-5
-10
-11
-7
0
1
0
-2
-6
-9
-12
-14
-17
-19
-21
-22
-24
-25
-26
-29
-32
-35
-38
-41
-44
-47
-50
-51
-52
-52
-52
-54
-56
-58
-60
-63
-63
-63
-66
-70
-73
-70
-64
-55
-44
-37
-33
-31
-32
-34
-36
-38
-39
-39
-40
-40
-41
-41
-41
-41
-42
-44
-46
-47
-48
-49
-49
-48
-47
-47
-46
-47
-48
-49
-51
-53
-55
-56
-59
-61
-59
-56
-52
-45
-35
-23
-12
-4
0
0
0
-3
-5
-6
-8
-9
-10
-10
-12
-13
-14
-18
-20
-24
-27
-30
-32
-34
-36
-36
-37
-38
-39
-42
-44
-46
-48
-50
-51
-52
-54
-53
-52
-46
-39
-30
-20
-11
-6
-2
-1
0
-1
-2
-3
-4
-6
-7
-9
-9
-10
-11
-13
-14
-15
-16
-17
-18
-18
-18
-19
-20
-19
-21
-23
-23
-25
-26
-29
-30
-32
-34
-35
-35
-32
-28
-22
-14
-6
0
5
7
7
6
3
1
-1
-2
-3
-3
-3
-3
-4
-6
-7
-9
-10
-12
-14
-17
-19
-20
-22
-22
-23
-24
-25
-26
-28
-30
-32
-33
-35
-37
-37
-37
-33
-26
-19
-10
0
8
13
13
10
6
2
0
-3
-5
-7
-9
-10
-11
-11
-12
-13
-13
-16
-17
-18
-20
-22
-24
-25
-26
-28
-29
-30
-31
-32
-33
-34
-34
-35
-35
-32
-30
-28
-24
-12
6
29
55
83
115
151
188
224
248
265
266
259
250
232
215
190
171
151
131
113
93
74
52
36
20
4
-8
-20
-28
-35
-38
-41
-45
-48
-49
-46
-42
-36
-30
-22
-13
-3
1
4
4
2
1
0
-1
-5
-9
-11
-13
-14
-14
-15
-16
-17
-17
-20
-22
-25
-27
-29
-31
-33
-34
-33
-34
-34
-34
-35
-36
-39
-41
-44
-47
-49
-49
-45
-39
-30
-20
-11
-3
0
1
2
2
1
0
-1
-1
-2
-3
-3
-2
-3
-3
-5
-6
-8
-9
-11
-14
-15
-16
-17
-18
-18
-18
-21
-23
-24
-26
-27
-30
-32
-34
-35
-34
-31
-24
-14
-3
6
13
16
19
18
17
15
14
12
10
9
6
5
5
5
3
1
0
-1
-3
-4
-5
-6
-8
-9
-10
-11
-12
-14
-16
-19
-21
-24
-26
-25
-22
-17
-10
-2
6
15
21
24
25
24
21
19
15
12
10
9
9
7
6
5
3
2
0
-2
-4
-5
-7
-8
-10
-12
-12
-14
-14
-17
-19
-23
-28
-30
-34
-37
-41
-44
-45
-42
-36
-27
-15
-3
5
10
11
9
7
5
3
1
-1
-2
-3
-3
-4
-5
-6
-7
-9
-11
-12
-13
-14
-15
-16
-18
-20
-21
-22
-22
-23
-24
-27
-29
-32
-34
-36
-37
-36
-32
-25
-17
-8
1
10
17
19
19
14
8
3
0
-3
-6
-8
-12
-14
-15
-16
-17
-19
-19
-21
-22
-23
-24
-24
-25
-26
-27
-27
-27
-26
-26
-27
-28
-28
-29
-29
-28
-27
-25
-19
-12
0
13
25
32
34
33
31
26
22
18
14
8
5
8
16
30
51
79
115
153
192
224
248
256
255
244
232
214
194
174
155
137
117
97
74
52
34
19
6
-4
-11
-13
-8
1
12
19
20
18
13
9
6
3
1
-2
-3
-4
-6
-6
-7
-9
-11
-14
-16
-18
-20
-22
-25
-28
-30
-32
-34
-36
-38
-40
-43
-45
-49
-52
-55
-56
-53
-49
-42
-34
-24
-14
-7
-4
-1
-1
-3
-6
-7
-7
-8
-9
-9
-9
-10
-10
-11
-11
-12
-12
-12
-14
-16
-17
-19
-21
-24
-27
-29
-31
-34
-37
-40
-45
-49
-52
-51
-46
-39
-28
-16
-5
3
8
10
10
10
9
7
5
4
2
1
-1
-2
-5
-7
-10
-13
-15
-17
-19
-20
-21
-22
-24
-28
-30
-33
-35
-39
-43
-46
-50
-54
-56
-55
-48
-40
-29
-19
-10
-2
1
3
3
2
0
-1
-3
-5
-7
-8
-9
-10
-10
-12
-14
-16
-18
-19
-20
-21
-23
-25
-26
-27
-28
-31
-34
-37
-42
-46
-50
-54
-57
-58
-56
-49
-39
-28
-15
-3
10
21
26
27
25
21
18
13
10
6
2
0
-3
-5
-8
-10
-11
-13
-15
-17
-18
-21
-24
-25
-26
-29
-31
-34
-36
-38
-41
-44
-48
-52
-55
-58
-58
-55
-48
-37
-25
-13
-2
6
11
12
10
8
6
4
1
-3
-6
-4
4
17
37
65
103
141
185
218
244
256
256
254
241
228
203
183
161
140
121
98
77
52
31
12
-4
-18
-29
-34
-33
-26
-16
-8
-2
-1
-4
-8
-11
-14
-18
-22
-25
-28
-29
-31
-32
-34
-36
-38
-39
-41
-43
-45
-48
-50
-53
-55
-58
-61
-64
-66
-69
-71
-73
-76
-77
-80
-82
-85
-86
-83
-77
-67
-56
-44
-34
-28
-26
-25
-25
-26
-27
-29
-29
-31
-33
-34
-35
-36
-39
-41
-43
-44
-46
-47
-47
-48
-48
-50
-50
-54
-56
-60
-63
-66
-68
-68
-67
-65
-65
-63
-58
-49
-39
-31
-22
-18
-14
-11
-11
-12
-14
-16
-18
-20
-22
-23
-25
-25
-27
-29
-31
-33
-35
-37
-38
-41
-44
-45
-48
-49
-51
-52
-55
-58
-60
-64
-66
-69
-71
-73
-69
-61
-49
-33
-19
-10
-3
0
0
0
-1
-4
-7
-9
-11
-13
-14
-15
-17
-18
-20
-21
-23
-25
-26
-26
-26
-27
-28
-29
-30
-32
-32
-34
-36
-38
-40
-43
-46
-48
-50
-47
-43
-37
-29
-17
-5
5
11
12
9
5
1
-1
-5
-9
-13
-15
-17
-18
-21
-24
-27
-30
-32
-34
-35
-37
-38
-39
-40
-41
-43
-44
-45
-47
-50
-53
-55
-58
-58
-57
-52
-47
-40
-30
-20
-7
3
9
12
12
10
6
3
1
-2
-4
-8
-11
-13
-16
-19
-22
-25
-28
-31
-33
-34
-37
-39
-41
-43
-46
-48
-50
-53
-55
-57
-59
-60
-58
-54
-47
-39
-31
-21
-10
-3
2
4
4
3
1
0
-4
-6
-9
-12
-13
-15
-16
-19
-22
-25
-28
-32
-37
-41
-45
-48
-52
-56
-59
-62
-65
-68
-71
-74
-74
-72
-69
-63
-57
-49
-41
-30
-20
-14
-13
-14
-17
-20
-22
-24
-24
-25
-25
-24
-25
-27
-30
-31
-28
-20
-6
14
39
75
113
155
191
219
241
245
243
233
222
204
187
169
154
142
128
118
105
95
84
72
58
40
24
14
7
2
-1
-3
-6
-8
-9
-11
-12
-15
-18
-23
-26
-28
-30
-32
-34
-37
-39
-41
-43
-44
-46
-48
-48
-48
-45
-44
-41
-37
-32
-24
-16
-10
-8
-7
-7
-6
-5
-5
-6
-8
-10
-12
-14
-16
-18
-20
-21
-23
-26
-29
-31
-34
-37
-38
-41
-42
-43
-44
-45
-46
-48
-52
-55
-56
-57
-55
-53
-47
-42
-35
-26
-17
-9
-3
0
1
3
3
4
3
3
2
1
0
0
-2
-3
-5
-6
-8
-10
-12
-13
-14
-16
-18
-19
-21
-23
-25
-28
-30
-32
-33
-34
-34
-36
-39
-39
-40
-40
-40
-39
-37
-32
-24
-15
-6
2
7
9
9
8
7
3
1
0
0
-1
-2
-3
-5
-8
-10
-11
-12
-15
-16
-18
-19
-19
-20
-21
-21
-21
-21
-21
-20
-20
-20
-20
-19
-20
-20
-22
-23
-24
-24
-19
-16
-11
-5
0
5
10
12
14
13
13
11
9
7
4
2
0
-3
-5
-7
-10
-12
-14
-15
-16
-16
-16
-17
-18
-19
-21
-21
-21
-21
-21
-22
-22
-23
-22
-19
-15
-9
-5
-2
-1
0
0
0
2
4
4
3
3
0
-3
-6
-9
-11
-14
-15
-18
-20
-22
-23
-24
-24
-24
-24
-24
-24
-24
-22
-20
-18
-16
-14
-13
-9
-3
3
11
18
22
23
24
27
34
43
59
81
112
148
187
225
256
275
282
281
271
259
238
217
194
173
155
135
118
96
77
59
43
26
10
-4
-15
-22
-26
-29
-31
-32
-31
-28
-24
-19
-14
-10
-6
-3
-5
-8
-10
-10
-7
-3
-1
-2
-5
-8
-11
-14
-16
-18
-21
-23
-25
-28
-29
-30
-32
-32
-32
-33
-33
-34
-35
-35
-35
-36
-39
-40
-42
-42
-40
-36
-32
-27
-21
-16
-12
-11
-13
-16
-17
-17
-16
-12
-9
-7
-7
-8
-11
-13
-16
-18
-19
-21
-22
-24
-23
-22
-20
-19
-19
-19
-20
-21
-21
-20
-19
-19
-18
-15
-11
-7
-2
1
5
8
11
12
9
5
1
0
0
2
3
1
-1
-5
-8
-11
-14
-17
-20
-22
-23
-25
-28
-31
-32
-33
-33
-34
-34
-35
-35
-34
-32
-31
-31
-29
-26
-21
-15
-10
-5
0
4
7
10
11
10
9
9
11
14
15
14
13
11
11
8
5
2
-2
-7
-13
-17
-22
-24
-26
-29
-30
-31
-30
-30
-29
-29
-29
-27
-27
-23
-20
-15
-10
-7
-3
0
2
4
5
4
3
3
6
10
14
14
13
11
9
6
3
1
-1
-3
-6
-8
-11
-12
-14
-16
-17
-19
-22
-23
-24
-24
-24
-25
-27
-30
-33
-35
-35
-37
-40
-43
-44
-41
-35
-28
-21
-16
-13
-11
-8
-4
-2
-2
-2
-3
-2
-4
-4
-6
-7
-9
-13
-17
-20
-19
-13
-3
12
35
64
103
141
178
203
217
224
219
215
204
192
177
160
144
125
110
92
75
55
39
27
16
7
0
-6
-9
-12
-13
-12
-10
-10
-9
-11
-14
-18
-21
-23
-25
-26
-28
-30
-32
-35
-37
-39
-40
-41
-42
-43
-45
-45
-46
-47
-47
-47
-47
-47
-47
-48
-49
-50
-49
-51
-50
-49
-50
-50
-51
-50
-49
-48
-45
-41
-35
-29
-25
-22
-21
-22
-24
-25
-26
-26
-25
-24
-25
-25
-25
-26
-27
-28
-30
-31
-32
-33
-32
-32
-31
-30
-30
-30
-30
-30
-30
-31
-31
-31
-32
-32
-33
-34
-36
-36
-37
-38
-36
-33
-29
-23
-14
-2
3
5
3
0
-2
-5
-8
-10
-13
-16
-17
-18
-19
-20
-22
-24
-28
-30
-31
-32
-32
-33
-32
-33
-34
-34
-34
-34
-34
-34
-35
-36
-37
-37
-37
-37
-35
-32
-26
-21
-16
-9
-2
2
7
9
11
11
10
6
3
2
0
0
-2
-3
-5
-7
-9
-12
-14
-16
-19
-21
-22
-23
-24
-25
-27
-28
-28
-29
-28
-27
-24
-26
-26
-26
-25
-23
-21
-17
-13
-9
-8
-7
-7
-6
-5
-3
0
0
0
-1
-5
-8
-11
-12
-16
-19
-23
-25
-27
-29
-30
-33
-34
-36
-36
-36
-37
-37
-37
-37
-37
-36
-33
-31
-27
-23
-18
-14
-10
-6
-2
0
0
-1
-3
-5
-9
-11
-11
-11
-12
-13
-16
-18
-20
-22
-23
-24
-26
-29
-31
-32
-33
-34
-34
-34
-36
-37
-38
-39
-38
-38
-37
-38
-38
-37
-36
-35
-33
-30
-26
-21
-16
-11
-9
-9
-10
-12
-7
3
19
42
72
106
145
179
209
227
235
233
225
218
201
186
166
151
132
112
95
73
55
38
26
11
-1
-13
-22
-27
-30
-32
-32
-32
-30
-26
-22
-17
-10
-6
-5
-7
-9
-11
-13
-14
-17
-20
-21
-22
-24
-25
-25
-28
-30
-33
-36
-38
-40
-42
-44
-45
-46
-47
-48
-49
-49
-50
-51
-53
-54
-53
-54
-53
-55
-54
-51
-46
-42
-39
-35
-32
-29
-28
-27
-25
-22
-20
-19
-20
-22
-24
-26
-26
-27
-29
-30
-32
-34
-36
-38
-39
-41
-43
-44
-45
-46
-46
-46
-46
-47
-45
-45
-43
-41
-40
-37
-35
-32
-27
-21
-16
-13
-12
-13
-15
-16
-16
-15
-11
-8
-6
-7
-10
-11
-13
-15
-16
-19
-21
-25
-27
-31
-34
-37
-39
-41
-44
-46
-47
-48
-49
-49
-50
-50
-50
-50
-49
-48
-47
-46
-46
-45
-44
-42
-41
-39
-38
-36
-32
-28
-25
-21
-18
-14
-10
-6
-4
-2
-2
-2
-3
-4
-6
-8
-10
-12
-15
-18
-20
-22
-24
-26
-28
-30
-32
-33
-35
-37
-39
-40
-42
-43
-44
-46
-46
-48
-49
-50
-49
-50
-51
-50
-50
-50
-52
-51
-51
-48
-44
-40
-32
-24
-15
-7
0
4
6
5
3
2
1
0
-2
-4
-6
-6
-7
-8
-9
-12
-13
-14
-15
-16
-18
-19
-20
-21
-21
-22
-23
-24
-25
-26
-27
-28
-29
-30
-31
-31
-29
-28
-26
-22
-19
-17
-11
-2
6
15
21
25
25
22
20
16
13
7
4
7
16
28
49
75
108
145
179
211
227
240
238
234
224
209
193
171
155
134
117
98
75
52
31
17
5
-4
-13
-20
-21
-16
-10
-4
0
0
0
-2
-4
-6
-10
-12
-15
-17
-19
-20
-22
-22
-23
-24
-26
-28
-29
-30
-32
-35
-36
-37
-39
-41
-42
-44
-46
-48
-47
-48
-49
-50
-51
-53
-56
-57
-60
-61
-58
-52
-44
-37
-30
-25
-21
-17
-13
-11
-9
-9
-10
-10
-10
-10
-10
-11
-12
-12
-12
-14
-15
-17
-18
-21
-23
-25
-26
-27
-29
-29
-30
-32
-33
-33
-34
-35
-35
-37
-39
-41
-43
-45
-47
-49
-51
-52
-50
-43
-34
-23
-13
-8
-6
-8
-9
-11
-12
-13
-14
-15
-16
-17
-17
-17
-18
-20
-22
-24
-25
-27
-27
-29
-30
-30
-32
-32
-34
-34
-36
-36
-37
-37
-37
-36
-34
-32
-28
-26
-23
-19
-17
-14
-12
-9
-8
-6
-4
-3
-3
-3
-3
-2
-3
-4
-6
-7
-9
-10
-12
-13
-14
-15
-15
-15
-15
-15
-16
-16
-16
-17
-18
-18
-16
-15
-14
-13
-12
-11
-8
-2
4
10
13
15
16
15
14
16
19
20
23
24
26
26
23
21
20
24
32
46
66
96
128
168
206
238
258
261
263
256
249
232
211
190
170
154
135
122
105
90
76
65
55
45
36
26
18
11
5
0
-6
-9
-10
-9
-7
-6
-7
-8
-9
-11
-12
-15
-17
-19
-21
-24
-26
-27
-29
-30
-30
-31
-31
-32
-33
-34
-35
-36
-37
-37
-38
-38
-37
-37
-37
-37
-36
-33
-29
-24
-19
-17
-16
-17
-17
-16
-14
-13
-14
-15
-17
-17
-19
-22
-25
-28
-31
-34
-36
-38
-41
-42
-44
-43
-44
-44
-44
-44
-43
-43
-43
-44
-44
-44
-44
-43
-42
-42
-42
-40
-38
-33
-27
-19
-13
-11
-11
-11
-11
-11
-11
-10
-10
-12
-15
-17
-20
-22
-24
-26
-29
-32
-35
-37
-39
-40
-41
-41
-41
-41
-42
-41
-42
-41
-41
-40
-38
-36
-34
-34
-32
-28
-22
-17
-12
-7
-5
-3
-3
-4
-4
-3
-1
1
3
3
1
-1
-2
-4
-6
-8
-11
-13
-16
-20
-23
-25
-26
-28
-30
-30
-31
-32
-32
-32
-31
-30
-29
-28
-27
-27
-26
-24
-19
-12
-5
2
6
10
11
10
6
2
0
-2
-1
0
1
1
-1
-4
-8
-9
-11
-12
-14
-16
-18
-21
-23
-26
-30
-31
-31
-23
-10
5
29
60
101
144
181
212
228
238
237
235
228
215
204
188
179
165
153
136
116
95
75
62
46
32
19
10
4
0
-3
-7
-12
-16
-20
-25
-28
-31
-33
-34
-36
-37
-39
-41
-42
-42
-41
-41
-42
-42
-42
-41
-42
-42
-43
-43
-40
-35
-28
-23
-18
-17
-18
-21
-26
-30
-36
-39
-42
-42
-40
-39
-41
-45
-48
-50
-53
-58
-63
-67
-71
-74
-78
-80
-84
-85
-85
-85
-84
-84
-83
-83
-82
-81
-78
-75
-73
-70
-68
-64
-59
-51
-43
-34
-26
-20
-17
-16
-13
-11
-10
-9
-7
-5
-2
-2
-2
-3
-4
-8
-12
-18
-23
-27
-30
-32
-34
-35
-37
-39
-41
-42
-43
-42
-43
-42
-43
-44
-43
-41
-39
-38
-36
-33
-26
-17
-8
-1
3
4
4
3
1
1
0
0
1
4
5
3
0
-3
-7
-10
-14
-18
-22
-25
-27
-29
-32
-35
-37
-40
-42
-43
-44
-43
-42
-41
-39
-38
-37
-35
-33
-30
-25
-16
-9
0
7
14
17
17
17
17
19
21
23
23
21
18
16
14
11
9
6
3
0
-3
-5
-8
-11
-13
-15
-16
-18
-19
-22
-23
-25
-26
-27
-29
-29
-29
-29
-31
-33
-35
-35
-31
-26
-18
-11
-5
0
3
8
13
17
20
19
16
12
7
4
1
0
-3
-5
-9
-12
-17
-21
-24
-25
-26
-26
-27
-27
-29
-29
-31
-31
-31
-31
-30
-30
-28
-28
-27
-25
-22
-17
-10
-2
4
12
17
21
22
22
20
18
15
9
5
1
-2
-5
-6
-8
-11
-13
-17
-20
-25
-29
-33
-37
-39
-42
-44
-47
-49
-51
-53
-54
-56
-57
-58
-59
-60
-59
-56
-53
-48
-45
-39
-30
-17
-5
5
11
13
10
7
3
-1
-5
-11
-16
-20
-22
-26
-29
-33
-37
-41
-44
-47
-49
-51
-51
-53
-54
-54
-55
-56
-56
-55
-55
-55
-55
-56
-54
-53
-50
-43
-36
-28
-20
-8
4
15
24
28
27
23
18
11
4
1
3
11
26
49
81
120
160
196
226
243
252
248
241
232
215
199
175
157
136
116
96
76
57
39
27
14
2
-8
-15
-16
-13
-8
-4
-2
1
6
9
12
12
9
6
2
-1
-4
-7
-10
-14
-16
-18
-20
-22
-25
-26
-29
-31
-35
-38
-41
-45
-47
-50
-53
-56
-58
-59
-61
-62
-63
-62
-62
-61
-55
-50
-43
-38
-35
-34
-32
-27
-21
-13
-8
-6
-6
-7
-8
-8
-9
-11
-13
-15
-17
-18
-19
-19
-20
-21
-21
-21
-22
-24
-26
-27
-29
-29
-30
-30
-30
-31
-33
-35
-39
-42
-43
-43
-42
-40
-36
-29
-20
-9
-2
4
6
5
3
1
0
-2
-3
-6
-8
-11
-14
-16
-18
-21
-23
-26
-28
-31
-34
-37
-38
-41
-41
-40
-40
-38
-38
-38
-38
-38
-39
-39
-39
-39
-39
-39
-38
-38
-38
-37
-31
-20
-7
4
14
22
25
22
19
18
16
14
10
8
6
4
3
1
0
-2
-5
-7
-10
-11
-14
-15
-17
-19
-20
-22
-23
-24
-24
-26
-27
-28
-29
-29
-29
-29
-30
-30
-29
-28
-28
-27
-24
-21
-16
-12
-8
-6
-5
-6
-4
0
7
11
13
12
11
10
8
7
6
6
5
3
1
0
0
-1
-1
-2
-2
-3
-4
-3
-2
-2
-3
-4
-6
-8
-9
-9
-8
-7
-6
-6
-4
0
2
6
10
14
16
17
20
18
17
14
13
12
11
10
10
9
7
6
3
0
-3
-3
2
12
28
51
83
119
162
199
233
255
264
266
258
252
236
222
203
188
174
158
146
126
108
87
72
56
41
27
14
5
-1
-6
-10
-15
-19
-23
-25
-28
-32
-35
-37
-38
-39
-39
-39
-40
-41
-41
-41
-41
-40
-40
-39
-40
-40
-38
-38
-37
-36
-34
-32
-28
-23
-17
-12
-10
-9
-11
-12
-14
-17
-18
-17
-11
-6
-6
-10
-15
-19
-21
-24
-26
-29
-32
-34
-35
-37
-37
-37
-37
-39
-40
-41
-41
-40
-41
-41
-43
-43
-42
-41
-40
-39
-36
-31
-24
-18
-11
-6
-4
-3
-3
-6
-8
-10
-11
-9
-6
-6
-9
-13
-17
-21
-26
-31
-37
-41
-45
-48
-51
-51
-53
-54
-54
-54
-55
-57
-58
-61
-63
-64
-62
-60
-58
-55
-47
-38
-29
-20
-9
0
8
12
17
24
28
32
36
40
44
51
59
69
78
77
71
64
56
47
35
23
9
1
-5
-9
-11
-12
-13
-13
-12
-13
-15
-16
-16
-15
-15
-15
-16
-16
-16
-16
-16
-15
-12
-9
-4
3
11
17
23
27
29
31
31
32
33
36
39
42
44
41
39
34
31
28
25
20
13
10
8
8
7
7
6
6
6
8
11
11
11
10
9
10
10
11
11
12
15
22
30
39
45
49
49
48
47
44
43
41
42
43
42
39
33
29
24
18
12
7
2
-2
-6
-11
-17
-23
-30
-35
-39
-41
-43
-45
-45
-45
-43
-42
-41
-42
-42
-42
-39
-34
-27
-20
-13
-8
-6
-4
-3
-2
-1
-1
1
3
4
2
-1
-3
-6
-7
-11
-14
-19
-24
-30
-35
-39
-44
-47
-52
-55
-58
-61
-64
-67
-68
-70
-70
-71
-73
-73
-73
-73
-74
-73
-72
-68
-63
-56
-49
-44
-41
-41
-41
-40
-38
-36
-32
-27
-22
-19
-19
-18
-18
-17
-19
-20
-21
-23
-24
-26
-26
-28
-31
-33
-36
-37
-39
-40
-42
-43
-44
-45
-45
-45
-45
-45
-45
-48
-51
-53
-53
-51
-49
-44
-39
-33
-29
-28
-29
-28
-24
-19
-12
-6
-2
-1
-1
-3
-4
-6
-7
-8
-9
-11
-12
-13
-14
-15
-17
-18
-20
-22
-24
-27
-29
-30
-31
-31
-30
-29
-28
-27
-27
-27
-26
-28
-29
-29
-30
-35
-39
-38
-28
-10
13
44
80
123
165
213
249
279
292
296
295
283
270
247
226
201
180
160
138
116
89
68
48
31
14
-3
-16
-27
-33
-36
-39
-41
-44
-46
-48
-50
-52
-54
-56
-59
-60
-63
-64
-61
-55
-49
-44
-37
-31
-26
-23
-20
-18
-16
-17
-16
-16
-17
-20
-22
-24
-26
-28
-31
-33
-35
-36
-39
-40
-42
-44
-45
-46
-47
-48
-50
-51
-54
-56
-56
-58
-59
-63
-66
-69
-70
-69
-69
-66
-63
-60
-59
-57
-54
-47
-38
-33
-31
-31
-31
-31
-32
-33
-34
-34
-35
-37
-40
-41
-44
-45
-46
-48
-47
-48
-50
-53
-57
-59
-63
-67
-70
-65
-60
-57
-58
-60
-59
-55
-47
-38
-32
-30
-31
-33
-35
-36
-33
-29
-27
-29
-34
-39
-40
-41
-44
-47
-48
-51
-53
-56
-57
-55
-51
-48
-49
-50
-53
-54
-57
-60
-61
-60
-56
-55
-54
-56
-56
-59
-60
-58
-56
-55
-54
-52
-53
-57
-60
-63
-60
-51
-41
-38
-30
-11
3
7
6
2
0
-2
-3
-7
-12
-15
-12
-5
6
27
57
90
130
171
211
238
256
260
261
257
246
228
204
184
163
150
136
117
94
72
53
34
18
4
-7
-11
-4
5
11
13
12
11
9
12
12
8
5
-3
-6
0
5
6
0
-8
-15
-21
-26
-29
-26
-19
-16
-21
-28
-32
-36
-41
-38
-24
-20
-23
-23
-33
-48
-46
-31
-24
-23
-20
-20
-18
-8
4
10
7
2
-1
-2
-5
-15
-25
-29
-29
-36
-42
-32
-12
-7
-26
-41
-40
-36
-32
-26
-25
-34
-37
-34
-31
-30
-40
-56
-56
-37
-28
-36
-47
-56
-56
-53
-53
-40
-23
-14
-2
13
20
19
11
1
-2
6
12
7
1
3
3
-3
-6
-5
-5
-10
-17
-16
-9
-7
-10
-14
-16
-19
-24
-17
-3
2
0
-7
-19
-33
-40
-24
-4
-4
-11
-16
-20
-9
15
31
30
26
22
20
19
19
11
2
3
0
0
34
69
63
32
16
14
17
21
21
17
13
9
2
-4
-1
3
-4
-18
-12
8
16
3
0
7
6
-5
-16
-13
-5
0
12
28
31
23
19
22
22
15
11
10
11
11
15
20
19
15
13
5
-4
7
33
37
21
14
19
20
19
18
18
17
14
18
22
17
8
9
15
20
32
38
32
21
18
20
24
31
35
39
40
40
31
25
36
52
52
40
34
34
35
33
30
24
15
10
13
17
15
10
9
14
17
19
19
16
16
14
12
12
17
15
8
2
0
5
13
26
49
83
133
186
246
292
323
331
325
313
297
274
248
223
195
169
144
124
102
78
56
38
25
13
-1
-14
-18
-19
-23
-27
-27
-26
-27
-28
-29
-33
-38
-51
-60
-47
-34
-47
-58
-29
-1
-11
-36
-47
-34
-19
-22
-38
-44
-27
-7
-5
-17
-25
-27
-32
-43
-39
-20
-24
-43
-34
-23
-35
-43
-30
-16
-20
-36
-45
-44
-49
-68
-77
-46
-12
-18
-38
-43
-38
-38
-49
-66
-75
-65
-52
-47
-50
-58
-41
-15
-20
-40
-52
-49
-34
-31
-44
-42
-20
-9
-26
-42
-46
-54
-61
-63
-47
-37
-53
-53
-33
-26
-31
-30
-40
-57
-71
-83
-80
-70
-80
-91
-52
0
15
-2
-23
-31
-30
-33
-43
-49
-49
-40
-25
-36
-44
-27
-27
-40
-24
3
-16
-70
-60
19
44
-3
-46
-75
-64
7
48
34
5
-13
-27
-34
-26
-23
-46
-63
-56
-20
9
3
-22
-41
-46
-36
-19
-21
-12
24
39
16
-9
-13
-3
1
-4
-15
-33
-50
-43
-22
-4
0
-14
-22
-15
-15
-21
-26
-30
-33
-36
-25
-9
-7
-15
-23
-29
-30
-22
-22
-30
-38
-47
-51
-36
-6
12
13
12
22
48
83
104
121
145
180
212
231
244
244
242
230
215
195
172
150
129
111
87
60
39
32
29
17
0
-13
-22
-24
-27
-29
-34
-39
-40
-36
-29
-25
-25
-26
-26
-23
-18
-13
-11
-12
-15
-18
-22
-24
-26
-29
-37
-42
-31
-15
-12
-20
-28
-32
-33
-35
-37
-39
-42
-43
-43
-42
-43
-46
-48
-50
-47
-45
-45
-44
-45
-46
-45
-43
-41
-39
-36
-31
-30
-29
-31
-31
-32
-36
-41
-45
-49
-52
-54
-54
-55
-54
-53
-53
-55
-55
-55
-55
-54
-54
-52
-52
-51
-49
-50
-52
-54
-54
-54
-51
-47
-47
-48
-49
-47
-46
-42
-36
-28
-19
-12
-3
1
0
-3
-8
-11
-14
-17
-20
-24
-27
-29
-32
-35
-37
-40
-43
-48
-52
-55
-58
-62
-64
-62
-58
-55
-57
-59
-57
-51
-46
-45
-48
-51
-52
-55
-56
-54
-49
-44
-37
-30
-23
-15
-9
-6
-6
-7
-9
-13
-20
-27
-31
-33
-32
-32
-31
-34
-39
-43
-43
-38
-35
-36
-39
-43
-47
-50
-49
-49
-47
-48
-48
-50
-51
-52
-53
-54
-56
-55
-53
-48
-42
-35
-27
-17
-4
11
30
49
71
95
126
154
182
202
219
226
224
218
204
189
169
148
126
105
86
64
46
32
20
7
-4
-12
-20
-26
-30
-33
-35
-38
-39
-41
-42
-43
-43
-41
-39
-34
-31
-27
-24
-23
-23
-24
-21
-15
-9
-8
-13
-18
-23
-25
-27
-29
-32
-35
-38
-40
-42
-46
-48
-50
-51
-53
-54
-54
-55
-54
-54
-55
-56
-56
-57
-59
-61
-62
-64
-67
-69
-70
-69
-68
-66
-64
-62
-62
-63
-64
-65
-65
-64
-62
-63
-65
-67
-69
-68
-69
-70
-73
-74
-73
-74
-71
-70
-67
-68
-67
-66
-65
-64
-65
-65
-68
-71
-75
-75
-75
-76
-77
-79
-80
-83
-82
-80
-78
-75
-71
-67
-67
-67
-67
-62
-58
-55
-52
-50
-50
-53
-56
-56
-56
-57
-59
-60
-61
-62
-62
-62
-61
-60
-61
-61
-61
-63
-64
-65
-65
-66
-67
-68
-69
-67
-68
-69
-70
-70
-69
-68
-62
-56
-50
-46
-42
-40
-40
-43
-48
-47
-44
-40
-40
-42
-44
-46
-48
-50
-50
-50
-48
-49
-51
-53
-54
-55
-56
-56
-56
-54
-52
-52
-53
-54
-56
-56
-54
-55
-56
-57
-57
-56
-53
-48
-42
-34
-28
-23
-20
-17
-16
-13
-10
-7
-5
-7
-10
-16
-20
-24
-28
-32
-34
-34
-37
-39
-40
-40
-40
-42
-42
-42
-42
-42
-43
-44
-45
-45
-46
-45
-46
-45
-45
-46
-44
-42
-37
-32
-23
-15
-10
-7
-6
-6
-6
-7
-7
-5
-6
-9
-12
-12
-8
1
18
42
74
109
149
182
208
225
234
234
225
210
190
170
148
129
107
88
65
44
27
16
6
-1
-7
-13
-17
-17
-16
-16
-18
-21
-21
-22
-21
-23
-24
-26
-29
-32
-36
-39
-41
-43
-46
-48
-50
-52
-52
-52
-52
-53
-53
-55
-58
-59
-61
-62
-64
-63
-63
-64
-63
-60
-55
-50
-45
-42
-39
-37
-38
-38
-37
-36
-34
-32
-32
-34
-35
-35
-36
-38
-39
-42
-44
-47
-50
-52
-53
-54
-55
-56
-58
-57
-57
-57
-55
-55
-55
-56
-57
-60
-61
-63
-65
-62
-59
-53
-45
-37
-31
-26
-19
-12
-7
-3
-3
-4
-6
-8
-10
-12
-13
-12
-12
-12
-13
-14
-18
-20
-22
-23
-23
-24
-24
-25
-26
-26
-27
-28
-29
-30
-30
-30
-30
-29
-29
-29
-28
-27
-25
-22
-17
-11
-7
-5
-4
-2
1
7
12
14
11
10
9
10
9
9
8
4
2
1
1
1
1
1
1
1
-1
-3
-4
-4
-4
-5
-6
-6
-3
4
19
45
79
114
151
185
222
251
270
279
273
265
249
233
215
199
185
166
150
130
114
93
76
59
43
30
18
10
5
3
2
0
-2
-4
-5
-6
-8
-9
-8
-6
-4
0
3
7
10
12
12
11
9
7
8
9
11
12
12
11
7
4
1
-2
-5
-10
-16
-23
-27
-28
-28
-29
-30
-31
-33
-36
-39
-41
-43
-43
-41
-41
-40
-40
-38
-33
-29
-24
-20
-15
-12
-9
-8
-7
-6
-2
3
8
9
9
7
7
7
7
7
6
7
6
5
3
0
-1
-6
-7
-9
-13
-18
-22
-27
-31
-34
-36
-37
-37
-38
-38
-37
-35
-31
-27
-22
-17
-14
-13
-14
-16
-16
-16
-14
-12
-10
-10
-11
-11
-12
-13
-14
-16
-17
-18
-20
-22
-22
-23
-25
-25
-25
-25
-25
-24
-24
-27
-28
-30
-31
-31
-30
-29
-26
-23
-18
-16
-15
-14
-12
-10
-10
-11
-12
-8
-5
-3
-4
-6
-9
-11
-11
-13
-12
-11
-10
-11
-11
-9
-10
-10
-10
-10
-9
-8
-6
-6
-6
-7
-7
-6
-5
-3
0
6
12
19
23
26
25
27
31
40
54
78
107
140
178
209
238
254
264
263
256
245
224
204
179
160
140
121
101
79
61
43
28
13
0
-10
-18
-20
-21
-21
-20
-18
-14
-10
-6
-1
6
11
15
17
18
19
20
22
21
19
16
14
12
10
8
3
0
-4
-9
-13
-17
-19
-23
-26
-30
-32
-32
-32
-32
-33
-35
-37
-38
-39
-41
-41
-41
-37
-34
-29
-25
-22
-17
-12
-11
-15
-21
-26
-28
-27
-24
-21
-19
-18
-20
-22
-24
-24
-23
-24
-26
-29
-31
-32
-35
-37
-40
-43
-46
-48
-51
-52
-54
-54
-54
-54
-52
-50
-47
-45
-43
-41
-38
-35
-31
-29
-30
-32
-33
-30
-25
-20
-18
-18
-20
-22
-22
-23
-25
-27
-28
-28
-29
-30
-32
-32
-31
-30
-30
-30
-30
-31
-32
-32
-33
-33
-35
-35
-32
-25
-22
-18
-13
-9
-4
0
0
-1
-4
-3
0
4
7
7
7
5
4
3
3
0
-4
-7
-10
-12
-14
-15
-17
-17
-17
-17
-17
-18
-19
-19
-19
-19
-20
-22
-23
-22
-21
-18
-14
-8
-2
0
1
4
7
7
7
8
9
11
13
14
14
13
12
11
10
7
5
2
1
0
-1
-5
-8
-8
-7
-8
-10
-11
-13
-16
-19
-21
-22
-22
-22
-20
-15
-7
-1
4
9
13
15
15
14
12
8
7
8
13
22
31
47
69
102
139
178
213
235
252
251
248
240
231
214
193
173
151
130
108
87
64
45
33
21
11
2
-6
-10
-10
-8
-7
-5
-4
-4
-6
-8
-8
-7
-5
-5
-9
-13
-16
-19
-21
-23
-26
-29
-33
-37
-40
-44
-47
-50
-53
-55
-56
-57
-59
-60
-60
-60
-60
-59
-57
-54
-52
-49
-46
-44
-39
-36
-33
-33
-33
-32
-31
-29
-26
-23
-24
-25
-28
-31
-32
-32
-33
-34
-34
-36
-38
-38
-38
-38
-38
-39
-40
-39
-38
-39
-39
-39
-38
-38
-36
-34
-33
-29
-25
-19
-14
-10
-7
-2
2
7
10
14
19
24
26
26
23
21
19
17
17
15
13
9
6
2
-1
-4
-9
-12
-17
-20
-22
-23
-24
-26
-27
-28
-27
-27
-26
-25
-23
-20
-16
-11
-5
0
3
5
6
6
7
10
13
14
15
15
14
14
13
13
10
7
5
4
5
7
15
27
43
64
94
127
161
188
209
222
227
232
229
224
208
191
176
161
152
140
132
116
101
85
75
65
55
45
33
25
19
16
15
12
9
5
3
0
-1
-2
-2
-4
-7
-10
-13
-15
-15
-18
-19
-22
-25
-26
-24
-20
-19
-18
-15
-12
-11
-11
-11
-11
-12
-12
-12
-11
-10
-8
-7
-8
-9
-10
-12
-13
-14
-15
-17
-18
-21
-25
-28
-30
-30
-31
-33
-35
-37
-38
-39
-40
-41
-42
-43
-43
-42
-40
-37
-35
-31
-26
-19
-15
-12
-8
-5
-2
0
3
5
7
6
5
4
3
3
2
2
-1
-2
-5
-8
-11
-14
-17
-22
-26
-28
-30
-33
-37
-39
-41
-42
-43
-44
-44
-46
-46
-44
-41
-37
-32
-26
-22
-18
-16
-15
-15
-14
-11
-7
-2
2
5
5
6
6
6
5
5
3
2
0
-2
-5
-7
-9
-11
-11
-12
-14
-15
-16
-16
-15
-15
-15
-15
-14
-13
-12
-8
-2
3
8
11
15
19
27
38
54
76
101
134
166
203
227
245
255
256
256
247
236
214
193
173
155
139
121
105
87
72
57
43
30
16
6
0
-5
-7
-8
-8
-9
-7
-3
1
5
10
13
15
15
15
15
15
16
19
24
25
22
17
12
7
3
1
-1
-4
-9
-13
-19
-24
-27
-29
-31
-31
-33
-34
-36
-36
-37
-37
-38
-40
-40
-40
-38
-36
-32
-29
-25
-20
-16
-13
-11
-8
-6
-3
0
4
9
12
12
9
7
7
7
7
7
5
1
-1
-4
-6
-9
-11
-14
-18
-21
-24
-26
-28
-30
-33
-35
-36
-35
-35
-34
-32
-30
-26
-23
-21
-20
-23
-24
-25
-23
-20
-15
-14
-16
-20
-22
-23
-23
-23
-25
-27
-27
-29
-31
-33
-35
-38
-42
-45
-49
-51
-54
-56
-58
-59
-58
-57
-55
-52
-47
-44
-40
-36
-30
-23
-18
-15
-13
-12
-10
-9
-8
-9
-9
-10
-12
-14
-16
-18
-19
-20
-20
-20
-22
-23
-25
-27
-29
-32
-35
-37
-37
-38
-40
-41
-42
-42
-41
-38
-35
-31
-29
-26
-21
-17
-15
-16
-17
-17
-16
-16
-16
-14
-13
-14
-16
-17
-19
-20
-23
-24
-27
-29
-29
-30
-30
-32
-34
-36
-37
-39
-42
-44
-48
-50
-54
-54
-51
-42
-25
-4
27
67
111
156
192
223
243
250
253
245
236
219
200
179
156
137
117
98
74
54
37
23
10
-3
-13
-20
-25
-28
-30
-31
-32
-33
-37
-38
-39
-42
-45
-48
-48
-48
-48
-46
-43
-39
-35
-31
-29
-31
-34
-33
-31
-31
-28
-24
-20
-20
-21
-24
-27
-32
-38
-42
-47
-51
-57
-62
-63
-65
-68
-73
-75
-77
-80
-83
-86
-87
-90
-93
-96
-97
-95
-93
-90
-90
-84
-81
-80
-78
-74
-71
-69
-66
-63
-59
-55
-46
-40
-37
-38
-39
-40
-42
-42
-41
-42
-44
-47
-49
-51
-53
-55
-58
-60
-62
-65
-67
-69
-72
-72
-70
-68
-70
-71
-68
-64
-60
-56
-54
-54
-56
-57
-56
-52
-49
-44
-40
-37
-37
-36
-37
-41
-41
-42
-44
-49
-52
-55
-57
-56
-56
-57
-59
-59
-60
-62
-64
-65
-68
-69
-70
-74
-77
-77
-74
-71
-70
-65
-60
-56
-54
-51
-47
-45
-43
-40
-35
-31
-28
-27
-27
-29
-35
-40
-39
-38
-43
-48
-49
-50
-53
-54
-53
-54
-53
-53
-55
-57
-59
-63
-65
-63
-61
-61
-63
-62
-58
-54
-49
-44
-42
-42
-41
-41
-41
-39
-41
-41
-37
-32
-30
-30
-30
-29
-28
-29
-31
-32
-30
-30
-32
-34
-36
-36
-37
-37
-39
-40
-41
-43
-43
-43
-44
-46
-46
-46
-43
-40
-37
-33
-27
-21
-19
-18
-17
-15
-13
-11
-10
-8
-7
-8
-11
-13
-12
-13
-14
-16
-20
-23
-25
-24
-26
-27
-27
-27
-28
-30
-33
-35
-36
-32
-24
-11
7
31
66
103
142
174
198
219
228
235
228
219
204
184
165
143
128
111
98
78
60
44
28
13
-2
-15
-26
-33
-38
-43
-46
-48
-50
-53
-56
-58
-62
-63
-64
-64
-66
-68
-68
-68
-67
-66
-63
-59
-55
-52
-49
-47
-48
-47
-46
-43
-41
-38
-32
-26
-24
-25
-26
-29
-32
-34
-37
-38
-41
-43
-47
-49
-51
-54
-54
-56
-58
-61
-62
-63
-64
-63
-65
-65
-66
-65
-63
-61
-59
-58
-55
-53
-51
-52
-50
-49
-46
-41
-35
-27
-20
-14
-13
-12
-12
-13
-14
-16
-19
-22
-25
-29
-31
-33
-34
-36
-37
-39
-40
-41
-41
-42
-44
-46
-47
-48
-47
-48
-48
-48
-48
-47
-44
-41
-37
-34
-32
-30
-29
-26
-23
-18
-13
-9
-7
-8
-8
-8
-9
-9
-9
-10
-12
-14
-15
-15
-16
-16
-16
-17
-17
-18
-17
-15
-14
-14
-15
-15
-17
-18
-18
-18
-18
-17
-16
-14
-9
-7
-4
0
3
8
11
14
17
22
25
26
25
24
22
20
17
13
8
3
0
-5
-7
-8
-8
-9
-11
-12
-14
-14
-15
-17
-18
-19
-17
-8
3
19
43
74
111
144
177
200
221
235
244
250
240
227
208
194
180
166
150
130
114
96
83
69
56
41
26
16
8
3
-1
-5
-10
-15
-18
-19
-18
-18
-19
-20
-23
-26
-28
-29
-30
-30
-30
-31
-30
-29
-26
-22
-16
-12
-7
-3
-1
2
5
9
9
9
9
8
6
4
2
0
-4
-9
-13
-17
-20
-22
-23
-23
-24
-25
-26
-28
-28
-29
-29
-33
-36
-38
-41
-42
-44
-44
-46
-46
-44
-42
-37
-32
-26
-24
-20
-15
-10
-6
-4
-2
0
0
0
0
0
0
-2
-3
-6
-8
-10
-11
-12
-14
-14
-15
-16
-16
-18
-19
-21
-24
-25
-26
-28
-29
-29
-30
-31
-31
-28
-23
-16
-10
-6
-3
2
8
10
11
9
5
2
0
-2
-4
-6
-9
-11
-13
-15
-16
-18
-19
-21
-21
-22
-24
-25
-25
-23
-24
-23
-24
-25
-26
-27
-27
-28
-27
-27
-27
-25
-22
-15
-7
0
4
10
16
21
24
26
26
25
23
22
19
16
12
7
1
-3
-6
-9
-10
-11
-12
-12
-13
-14
-13
-13
-12
-11
-10
-11
-12
-12
-12
-11
-10
-8
-8
-6
-3
0
7
17
31
48
67
94
127
161
200
230
259
274
280
280
272
264
243
224
202
184
166
146
127
103
84
65
52
37
25
14
4
-2
-7
-10
-11
-11
-10
-11
-11
-9
-5
0
7
12
16
20
24
26
27
28
26
25
23
22
21
17
13
8
5
2
0
-1
-2
-3
-5
-7
-8
-10
-10
-12
-12
-15
-17
-19
-20
-23
-26
-28
-30
-33
-34
-33
-28
-21
-17
-13
-9
-5
-3
0
0
0
0
0
0
-1
-2
-4
-5
-6
-9
-11
-13
-15
-17
-19
-19
-20
-22
-25
-26
-25
-24
-24
-24
-23
-23
-22
-22
-22
-23
-23
-19
-15
-9
-5
0
4
9
14
13
14
12
9
7
5
2
-1
-4
-8
-10
-13
-16
-19
-21
-22
-25
-27
-29
-31
-31
-32
-31
-33
-33
-33
-33
-32
-31
-28
-27
-26
-23
-17
-8
0
6
13
19
24
26
26
25
22
21
19
16
13
10
6
2
0
-4
-8
-12
-16
-18
-20
-22
-23
-24
-24
-25
-26
-28
-29
-30
-31
-33
-35
-36
-36
-37
-38
-36
-33
-26
-17
-9
-1
6
12
14
15
14
13
11
9
6
4
3
1
0
-3
-5
-7
-9
-11
-15
-17
-19
-22
-24
-26
-28
-31
-32
-35
-37
-39
-41
-41
-43
-45
-46
-45
-44
-42
-36
-28
-20
-12
-2
5
9
10
9
7
5
3
0
-2
-5
-7
-9
-10
-12
-11
-6
1
16
37
68
101
141
173
200
219
227
229
221
212
195
179
161
143
125
107
92
76
64
55
46
37
29
23
18
16
14
12
8
3
-1
-6
-11
-16
-20
-23
-26
-28
-33
-35
-38
-42
-44
-46
-47
-49
-50
-53
-55
-56
-57
-58
-59
-59
-59
-58
-55
-50
-43
-38
-34
-30
-24
-19
-16
-15
-15
-17
-19
-23
-27
-30
-31
-33
-35
-39
-41
-44
-46
-47
-47
-49
-51
-53
-54
-53
-55
-56
-57
-57
-59
-61
-61
-62
-60
-59
-55
-51
-46
-40
-34
-25
-18
-13
-9
-7
-7
-6
-6
-6
-9
-12
-16
-21
-26
-32
-36
-39
-41
-43
-46
-48
-51
-53
-55
-56
-58
-60
-62
-65
-64
-64
-67
-70
-72
-70
-66
-59
-52
-44
-34
-23
-15
-8
-4
-2
-2
-2
-2
-3
-4
-6
-9
-12
-15
-16
-19
-23
-26
-28
-29
-32
-34
-37
-39
-42
-44
-46
-49
-51
-55
-57
-60
-62
-64
-67
-70
-73
-70
-67
-59
-48
-37
-26
-18
-10
-6
-5
-7
-9
-12
-15
-17
-17
-18
-18
-18
-19
-20
-21
-22
-22
-22
-23
-24
-25
-25
-27
-26
-26
-27
-29
-31
-33
-34
-36
-37
-39
-40
-39
-37
-34
-28
-20
-11
-1
5
10
13
17
18
15
13
9
7
4
3
1
0
-1
-3
-5
-6
-8
-10
-12
-14
-18
-20
-21
-23
-26
-28
-30
-33
-34
-34
-35
-36
-37
-35
-34
-29
-22
-13
-2
6
15
22
25
25
22
19
20
25
38
55
82
113
149
185
215
238
252
259
257
252
238
220
197
176
155
131
108
82
55
30
12
0
-15
-32
-45
-55
-57
-55
-49
-41
-32
-23
-14
-8
-4
-3
-3
-3
-6
-8
-11
-14
-16
-18
-20
-24
-28
-31
-34
-36
-39
-40
-43
-46
-50
-54
-57
-61
-63
-66
-68
-72
-75
-78
-81
-82
-83
-82
-81
-77
-71
-62
-53
-44
-37
-31
-27
-25
-24
-24
-24
-26
-28
-30
-32
-32
-33
-34
-35
-36
-37
-38
-38
-39
-40
-41
-42
-44
-45
-46
-48
-49
-52
-54
-57
-61
-64
-68
-67
-65
-62
-58
-52
-45
-37
-27
-18
-13
-12
-11
-13
-14
-17
-20
-23
-27
-30
-34
-34
-33
-32
-32
-32
-32
-32
-31
-32
-32
-34
-35
-36
-36
-38
-41
-42
-42
-42
-42
-40
-38
-36
-32
-25
-17
-8
1
8
15
18
18
16
12
8
5
1
-2
-6
-9
-11
-14
-16
-16
-18
-20
-22
-23
-25
-26
-25
-28
-28
-28
-29
-31
-33
-33
-35
-36
-34
-32
-30
-29
-24
-17
-7
0
5
11
17
27
41
56
77
104
139
177
217
253
273
285
284
281
269
250
225
198
177
154
134
110
86
63
44
30
16
1
-15
-28
-38
-44
-46
-48
-48
-45
-38
-30
-23
-17
-12
-6
-2
0
0
0
-1
-4
-7
-10
-12
-16
-20
-24
-25
-26
-30
-33
-35
-38
-40
-44
-46
-50
-53
-54
-55
-56
-60
-62
-66
-70
-74
-76
-77
-80
-78
-74
-66
-57
-47
-36
-26
-18
-12
-11
-12
-15
-18
-21
-24
-26
-27
-28
-31
-34
-37
-40
-41
-42
-45
-48
-51
-53
-55
-58
-60
-61
-64
-67
-68
-71
-74
-76
-77
-80
-81
-79
-76
-68
-60
-53
-46
-40
-36
-34
-33
-35
-35
-37
-38
-41
-43
-43
-45
-47
-50
-50
-52
-54
-57
-59
-59
-59
-60
-61
-63
-65
-66
-66
-67
-67
-69
-70
-71
-71
-71
-68
-62
-55
-45
-35
-27
-21
-17
-13
-12
-12
-13
-13
-16
-18
-20
-21
-22
-24
-26
-28
-29
-31
-33
-33
-33
-33
-34
-34
-34
-34
-35
-35
-37
-38
-38
-40
-41
-43
-43
-42
-40
-35
-28
-20
-9
2
14
21
24
25
23
20
16
12
11
14
21
33
50
74
104
137
174
201
223
236
238
239
231
223
202
182
160
138
119
97
78
54
37
22
10
-2
-13
-19
-23
-21
-14
-7
0
4
8
9
10
9
7
6
4
3
1
0
-3
-6
-9
-11
-13
-16
-17
-20
-23
-25
-28
-32
-36
-36
-37
-39
-40
-42
-44
-46
-47
-47
-48
-50
-49
-44
-40
-33
-26
-19
-14
-10
-8
-7
-8
-8
-9
-11
-13
-17
-20
-22
-25
-28
-32
-35
-38
-41
-44
-46
-48
-51
-52
-54
-54
-56
-58
-59
-60
-61
-63
-63
-63
-63
-61
-57
-51
-43
-33
-25
-18
-13
-9
-6
-5
-6
-8
-9
-10
-10
-12
-13
-15
-17
-19
-22
-24
-26
-27
-29
-29
-30
-30
-30
-31
-32
-33
-33
-33
-32
-32
-33
-34
-34
-33
-30
-25
-16
-5
5
14
20
24
25
25
24
22
21
19
17
15
12
10
8
7
5
3
1
0
0
-1
-3
-4
-4
-6
-7
-9
-10
-10
-9
-9
-10
-11
-11
-12
-14
-15
-14
-10
-3
6
18
28
35
39
40
41
38
36
31
28
26
23
21
15
12
11
10
7
4
2
0
-1
-2
-4
-6
-7
-9
-10
-11
-13
-14
-14
-14
-14
-14
-12
-11
-10
-8
-2
9
28
54
84
118
153
191
230
264
287
301
301
298
282
264
241
218
199
176
158
135
113
90
69
53
38
25
12
0
-8
-13
-15
-19
-22
-24
-26
-26
-25
-23
-19
-12
-4
5
14
20
24
27
29
28
27
24
23
20
17
14
9
6
3
1
-2
-6
-9
-12
-15
-18
-21
-24
-27
-32
-36
-40
-44
-47
-51
-54
-58
-61
-62
-63
-59
-53
-46
-38
-30
-22
-16
-11
-8
-5
-5
-5
-6
-8
-9
-11
-13
-13
-14
-15
-17
-20
-22
-24
-26
-27
-29
-30
-32
-33
-34
-34
-35
-35
-35
-36
-37
-39
-41
-41
-39
-35
-29
-22
-16
-8
-2
2
4
3
3
2
2
2
0
-2
-5
-8
-11
-14
-17
-19
-20
-20
-22
-24
-25
-27
-29
-30
-32
-33
-33
-33
-34
-34
-36
-38
-39
-37
-34
-29
-23
-15
-7
0
3
6
7
6
2
-1
-3
-1
3
13
25
47
73
107
140
170
193
203
211
211
210
199
185
166
145
126
105
87
68
51
34
17
2
-13
-26
-36
-41
-40
-35
-26
-14
-2
8
14
17
19
19
17
14
11
8
5
3
0
-2
-6
-9
-12
-15
-17
-18
-20
-23
-25
-27
-29
-31
-33
-34
-37
-40
-42
-44
-47
-50
-54
-56
-56
-54
-51
-45
-38
-30
-23
-16
-11
-9
-10
-11
-12
-15
-16
-18
-19
-21
-24
-25
-26
-27
-29
-31
-32
-34
-36
-39
-39
-40
-41
-41
-41
-40
-41
-43
-46
-47
-48
-49
-48
-46
-41
-34
-25
-17
-9
-2
2
5
7
7
4
1
-2
-6
-9
-13
-14
-17
-20
-24
-28
-32
-35
-38
-41
-43
-45
-47
-48
-49
-50
-50
-52
-53
-53
-54
-55
-54
-52
-48
-43
-36
-29
-20
-14
-9
-6
-5
-7
-9
-11
-12
-13
-15
-17
-20
-22
-25
-27
-28
-30
-32
-35
-36
-38
-40
-42
-44
-44
-46
-46
-47
-48
-49
-52
-53
-55
-55
-57
-56
-53
-49
-41
-30
-18
-9
-2
2
2
0
-2
-6
-9
-11
-13
-15
-18
-21
-23
-26
-28
-31
-33
-36
-39
-40
-41
-43
-46
-48
-51
-53
-55
-56
-59
-60
-61
-63
-63
-63
-59
-58
-57
-54
-48
-39
-30
-24
-20
-15
-12
-10
-10
-11
-12
-14
-16
-20
-21
-23
-26
-27
-30
-33
-37
-40
-41
-43
-45
-46
-47
-50
-51
-53
-51
-50
-48
-47
-46
-44
-44
-43
-42
-38
-32
-23
-13
-5
0
3
7
10
13
14
14
13
11
7
3
-1
-4
-8
-15
-21
-22
-17
-8
6
29
58
96
132
172
195
215
222
221
217
204
190
171
155
138
125
113
95
77
56
42
28
14
2
-9
-17
-22
-25
-27
-28
-28
-30
-32
-35
-39
-43
-49
-53
-58
-62
-65
-68
-70
-73
-73
-75
-77
-81
-82
-82
-80
-77
-75
-71
-67
-61
-55
-50
-47
-45
-44
-43
-39
-36
-33
-32
-31
-32
-33
-33
-35
-35
-37
-38
-40
-41
-43
-46
-48
-52
-54
-56
-57
-60
-62
-63
-65
-67
-71
-74
-78
-77
-74
-69
-62
-57
-50
-44
-38
-35
-32
-30
-30
-28
-27
-25
-26
-26
-25
-25
-26
-28
-30
-32
-35
-38
-40
-42
-44
-46
-47
-48
-51
-54
-57
-60
-63
-64
-65
-67
-66
-65
-62
-59
-54
-50
-46
-42
-39
-35
-31
-28
-28
-27
-27
-28
-29
-31
-32
-33
-33
-34
-36
-38
-40
-42
-45
-45
-47
-47
-48
-50
-51
-52
-53
-55
-57
-59
-58
-55
-53
-49
-47
-42
-36
-29
-23
-18
-14
-12
-12
-12
-13
-14
-16
-18
-18
-18
-20
-23
-27
-32
-36
-42
-47
-52
-56
-61
-64
-66
-66
-67
-67
-68
-71
-71
-72
-71
-71
-66
-62
-56
-47
-36
-25
-15
-7
-2
0
3
5
7
9
10
10
9
6
5
7
15
28
48
75
110
149
189
228
254
274
275
271
256
235
210
182
160
134
114
94
74
56
42
35
28
22
14
7
3
1
1
2
4
3
0
-2
-3
-5
-6
-7
-9
-10
-12
-15
-18
-20
-23
-25
-25
-27
-30
-33
-36
-39
-41
-42
-44
-44
-44
-43
-43
-41
-37
-34
-32
-31
-29
-27
-25
-23
-24
-25
-28
-31
-32
-35
-36
-39
-41
-45
-48
-50
-53
-55
-58
-58
-60
-61
-62
-63
-64
-64
-63
-63
-62
-61
-59
-56
-54
-50
-46
-39
-34
-27
-22
-18
-13
-7
-3
0
4
5
4
2
2
0
-1
-4
-7
-10
-12
-14
-16
-19
-22
-25
-28
-30
-31
-33
-36
-39
-42
-43
-43
-41
-39
-35
-31
-27
-22
-18
-14
-11
-7
-5
-2
0
2
4
5
5
3
2
1
0
-2
-4
-6
-8
-9
-11
-14
-16
-18
-21
-23
-26
-29
-31
-33
-33
-34
-34
-32
-30
-28
-25
-20
-13
-6
0
3
4
5
6
8
11
13
15
15
15
13
10
6
3
0
-2
-5
-8
-12
-15
-18
-20
-22
-25
-28
-31
-33
-35
-36
-37
-35
-34
-32
-29
-27
-24
-20
-16
-12
-9
-7
-5
-3
-2
0
1
4
6
6
5
4
3
2
0
-2
-4
-5
-5
-5
-5
-6
-7
-9
-10
-12
-14
-16
-19
-23
-25
-25
-23
-21
-19
-15
-10
-6
-2
-1
2
7
15
28
43
70
102
141
177
211
239
256
268
265
261
246
229
208
190
173
154
137
117
96
75
58
44
30
19
8
-1
-6
-8
-6
-5
-3
-1
1
4
7
6
5
2
-1
-4
-7
-9
-11
-13
-14
-16
-18
-19
-19
-20
-21
-22
-23
-23
-23
-24
-25
-25
-26
-26
-27
-29
-31
-32
-33
-35
-37
-38
-39
-38
-36
-31
-23
-15
-11
-8
-8
-7
-5
-4
-1
-1
0
1
1
1
1
1
0
-3
-7
-12
-15
-17
-19
-20
-19
-19
-18
-18
-18
-18
-19
-20
-21
-23
-24
-26
-26
-26
-23
-21
-17
-11
-5
-1
0
0
0
0
2
5
7
7
8
8
7
6
4
3
2
0
-1
-5
-8
-10
-12
-14
-16
-18
-22
-26
-30
-34
-36
-37
-38
-37
-34
-33
-30
-26
-19
-12
-6
-1
0
3
4
5
6
7
7
6
6
6
6
5
5
4
2
2
0
-1
-3
-6
-8
-10
-12
-15
-16
-18
-20
-21
-22
-22
-24
-23
-22
-20
-18
-17
-15
-10
-4
0
1
2
3
5
9
12
14
14
13
12
11
12
10
10
8
7
5
4
3
0
0
-2
-3
-4
-5
-6
-6
-7
-8
-10
-11
-12
-12
-10
-6
-2
2
8
17
24
29
31
31
31
31
33
34
36
34
33
30
27
22
16
11
8
7
5
2
-1
-5
-8
-7
-2
6
21
44
74
109
146
179
202
218
223
227
223
219
210
199
190
177
166
149
131
110
93
80
67
56
44
33
24
19
17
13
11
9
6
3
0
-5
-9
-14
-19
-25
-30
-34
-37
-40
-42
-44
-46
-46
-46
-44
-41
-36
-33
-29
-27
-25
-22
-18
-14
-11
-7
-4
-3
-3
-5
-7
-7
-9
-12
-14
-16
-18
-20
-21
-23
-25
-27
-28
-29
-30
-32
-34
-37
-39
-40
-42
-43
-44
-46
-47
-45
-41
-36
-31
-27
-23
-16
-10
-4
0
3
3
1
1
0
0
0
-1
-2
-5
-7
-10
-12
-15
-18
-20
-23
-25
-28
-30
-31
-32
-32
-33
-33
-33
-32
-33
-34
-34
-33
-31
-29
-26
-23
-21
-20
-18
-16
-15
-13
-14
-15
-17
-18
-21
-23
-24
-24
-24
-26
-29
-31
-34
-36
-39
-40
-41
-41
-41
-41
-39
-37
-36
-32
-28
-23
-19
-15
-13
-13
-11
-9
-6
-4
-1
2
6
11
13
15
15
16
15
14
14
13
13
11
8
2
-2
-7
-12
-17
-20
-24
-26
-27
-27
-27
-25
-23
-20
-16
-13
-10
-7
0
12
30
54
85
122
164
205
242
265
279
281
278
271
258
242
218
199
177
158
138
119
98
77
61
44
30
14
2
-6
-12
-14
-14
-13
-13
-13
-13
-12
-11
-11
-11
-10
-9
-9
-7
-4
-1
1
2
3
2
4
5
3
0
-2
-4
-7
-9
-12
-16
-17
-18
-18
-19
-21
-22
-24
-25
-26
-26
-27
-29
-30
-30
-29
-29
-28
-27
-29
-32
-34
-38
-39
-40
-41
-39
-38
-37
-37
-38
-38
-40
-41
-42
-43
-44
-45
-45
-46
-46
-47
-48
-48
-47
-47
-45
-40
-36
-33
-32
-32
-34
-35
-35
-33
-31
-31
-31
-29
-26
-26
-26
-26
-27
-27
-27
-27
-28
-31
-33
-37
-39
-42
-42
-43
-42
-42
-41
-38
-37
-35
-35
-33
-33
-31
-31
-32
-31
-29
-26
-25
-24
-22
-19
-15
-12
-11
-11
-12
-14
-15
-16
-17
-20
-22
-23
-25
-27
-29
-32
-34
-37
-39
-40
-41
-43
-44
-43
-42
-41
-41
-39
-39
-39
-40
-39
-39
-39
-38
-37
-33
-30
-27
-24
-22
-20
-18
-14
-11
-7
-6
-7
-11
-13
-16
-20
-23
-26
-27
-29
-31
-33
-34
-36
-38
-39
-40
-40
-40
-39
-38
-36
-34
-32
-31
-30
-28
-26
-25
-24
-23
-23
-21
-21
-22
-25
-26
-26
-24
-16
-4
11
32
61
96
132
171
196
218
225
227
222
214
202
182
164
145
128
111
93
76
57
44
33
25
15
7
1
-4
-5
-5
-3
0
2
3
3
3
3
2
1
0
-1
-3
-6
-8
-10
-13
-16
-17
-19
-21
-23
-26
-28
-30
-32
-36
-40
-44
-46
-49
-51
-53
-54
-55
-56
-58
-60
-61
-62
-62
-62
-61
-61
-61
-60
-60
-59
-59
-58
-58
-57
-54
-48
-40
-35
-31
-28
-24
-21
-19
-17
-17
-20
-23
-26
-29
-30
-31
-33
-33
-34
-32
-33
-32
-30
-29
-29
-30
-31
-32
-32
-33
-33
-35
-37
-38
-40
-40
-41
-41
-41
-42
-43
-42
-42
-43
-44
-46
-48
-50
-52
-54
-56
-55
-52
-46
-41
-36
-33
-29
-24
-17
-9
-4
-2
-1
0
0
0
1
2
1
1
2
1
0
-1
-2
-4
-5
-6
-8
-9
-10
-12
-14
-17
-19
-21
-22
-24
-25
-27
-31
-32
-32
-29
-26
-20
-14
-11
-8
-6
-5
-3
-2
-1
-2
-4
-7
-8
-9
-10
-12
-14
-15
-18
-20
-23
-25
-28
-29
-30
-32
-33
-34
-36
-38
-39
-41
-41
-42
-43
-44
-45
-45
-46
-47
-47
-45
-40
-33
-25
-16
-7
0
5
10
13
13
12
9
6
3
0
0
0
-1
-4
-6
-9
-11
-14
-16
-17
-20
-21
-23
-24
-25
-26
-26
-29
-30
-32
-33
-35
-37
-38
-39
-38
-36
-30
-23
-15
-8
-2
1
6
10
14
15
14
14
13
13
11
9
8
7
6
1
-2
-7
-8
-5
1
15
34
64
96
134
167
193
211
219
219
210
198
180
162
143
127
112
98
87
76
66
57
51
44
36
27
18
14
11
8
5
2
-1
-3
-5
-7
-9
-11
-12
-13
-15
-17
-20
-23
-26
-29
-31
-33
-33
-34
-36
-37
-39
-40
-42
-44
-47
-47
-47
-46
-43
-37
-30
-23
-17
-13
-11
-7
-4
-5
-6
-8
-9
-11
-12
-12
-15
-17
-18
-20
-21
-21
-21
-21
-22
-22
-24
-26
-29
-31
-33
-34
-37
-39
-41
-42
-43
-45
-45
-48
-48
-44
-38
-27
-16
-7
-1
2
7
12
14
15
14
13
12
11
9
8
7
4
2
0
-2
-5
-7
-9
-12
-15
-19
-23
-24
-26
-27
-29
-31
-34
-36
-40
-43
-47
-50
-51
-47
-41
-33
-23
-13
-7
-4
-2
0
0
1
0
0
-2
-4
-4
-5
-4
-5
-6
-8
-10
-12
-15
-17
-19
-20
-20
-22
-24
-26
-26
-29
-30
-32
-33
-34
-35
-34
-36
-38
-39
-38
-33
-26
-17
-7
1
7
10
12
13
13
15
15
15
14
15
15
15
15
14
13
12
12
11
10
9
6
6
6
5
4
2
0
0
-2
-4
-6
-7
-8
-10
-12
-13
-13
-11
-8
-2
2
10
19
25
29
29
29
27
28
27
26
26
25
24
21
17
13
9
6
4
8
17
30
49
75
107
143
175
204
223
232
233
225
219
204
187
166
145
126
105
90
75
69
67
68
64
58
51
42
38
36
35
33
30
29
25
22
20
20
17
13
9
5
1
-2
-6
-8
-11
-14
-17
-20
-24
-28
-30
-34
-37
-41
-43
-48
-52
-53
-53
-51
-49
-45
-41
-35
-30
-26
-22
-19
-17
-16
-15
-16
-16
-17
-17
-18
-19
-18
-20
-21
-23
-25
-25
-25
-26
-28
-30
-33
-36
-40
-43
-45
-48
-50
-53
-54
-56
-58
-59
-59
-57
-56
-50
-42
-32
-21
-11
-6
-1
0
2
3
4
5
4
5
4
4
3
3
1
0
-2
-4
-6
-9
-11
-13
-14
-14
-16
-17
-18
-20
-22
-25
-28
-35
-43
-49
-55
-58
-64
-65
-65
-58
-46
-34
-25
-20
-18
-17
-15
-15
-15
-15
-15
-16
-16
-16
-17
-17
-18
-20
-21
-23
-25
-28
-30
-31
-32
-32
-32
-33
-35
-36
-36
-36
-37
-38
-39
-39
-39
-40
-38
-37
-34
-30
-21
-12
0
8
14
15
15
14
13
12
12
13
15
16
15
14
14
11
9
7
4
1
0
2
9
20
36
59
89
124
157
188
206
216
218
214
211
202
195
181
172
163
154
146
131
116
95
79
62
46
31
17
8
1
-2
-4
-5
-7
-9
-11
-14
-17
-19
-22
-23
-25
-27
-29
-30
-32
-34
-37
-40
-45
-49
-52
-54
-54
-49
-44
-36
-27
-18
-9
-3
-1
-2
-4
-5
-5
-6
-6
-7
-8
-9
-10
-12
-14
-16
-19
-23
-28
-31
-34
-36
-38
-42
-44
-48
-51
-53
-56
-60
-64
-68
-73
-77
-81
-83
-81
-78
-70
-64
-54
-45
-35
-27
-22
-20
-18
-17
-17
-17
-18
-18
-19
-19
-19
-20
-21
-23
-25
-27
-28
-30
-33
-36
-38
-41
-45
-48
-52
-55
-56
-60
-63
-67
-70
-76
-80
-84
-86
-82
-76
-67
-55
-42
-31
-23
-18
-15
-13
-12
-11
-12
-11
-11
-12
-11
-11
-10
-12
-12
-13
-15
-16
-18
-19
-20
-22
-24
-27
-30
-32
-34
-36
-39
-42
-45
-48
-52
-56
-58
-59
-58
-54
-49
-42
-32
-20
-13
-10
-10
-11
-12
-13
-13
-14
-13
-14
-14
-14
-14
-14
-15
-16
-18
-21
-23
-25
-27
-28
-29
-31
-33
-34
-37
-40
-44
-46
-51
-54
-55
-55
-53
-52
-48
-42
-33
-23
-13
-5
-1
0
0
0
-2
-4
-5
-5
-7
-7
-8
-8
-9
-9
-11
-11
-12
-15
-17
-16
-11
-2
11
30
56
92
129
168
198
219
228
227
218
203
189
173
162
152
146
140
133
124
108
91
74
60
45
32
20
10
6
4
3
3
2
2
0
-1
-4
-6
-8
-9
-10
-12
-14
-16
-18
-19
-21
-24
-27
-30
-34
-38
-44
-49
-55
-61
-63
-63
-56
-47
-36
-27
-21
-18
-18
-20
-21
-21
-21
-20
-21
-23
-24
-26
-26
-27
-28
-29
-30
-31
-31
-32
-32
-32
-32
-31
-32
-33
-34
-35
-35
-36
-37
-40
-43
-46
-51
-54
-58
-59
-58
-52
-41
-28
-17
-10
-6
-2
0
0
-1
-1
-2
-2
-4
-6
-8
-10
-13
-16
-18
-20
-21
-23
-23
-24
-24
-25
-27
-28
-30
-31
-33
-34
-36
-39
-42
-45
-49
-51
-49
-46
-41
-32
-19
-7
0
5
7
8
8
8
7
7
5
5
5
5
4
4
4
2
1
0
-1
-2
-5
-7
-10
-11
-13
-15
-17
-19
-20
-23
-25
-28
-32
-34
-37
-37
-34
-31
-26
-20
-12
-3
4
8
9
8
8
9
8
7
6
5
5
4
4
3
2
2
2
2
1
1
1
0
0
1
0
0
0
-1
-2
-6
-10
-13
-18
-22
-23
-22
-16
-9
1
11
20
28
34
38
38
37
35
34
31
31
29
29
28
27
27
25
24
22
20
18
17
17
14
13
11
9
7
6
4
3
1
-2
-5
-9
-13
-17
-18
-15
-12
-8
-2
5
11
16
17
15
12
12
15
23
36
55
82
115
152
187
216
237
247
253
247
240
224
207
187
170
154
134
116
94
73
52
36
20
4
-10
-23
-34
-41
-45
-45
-42
-37
-29
-21
-14
-8
-6
-5
-5
-7
-8
-10
-12
-12
-12
-12
-16
-19
-20
-22
-24
-27
-29
-31
-33
-35
-37
-38
-40
-41
-42
-43
-44
-45
-47
-50
-52
-56
-59
-65
-70
-72
-71
-67
-62
-52
-42
-33
-28
-26
-25
-25
-25
-25
-27
-28
-30
-32
-34
-35
-35
-36
-38
-39
-41
-41
-41
-40
-41
-42
-43
-44
-44
-45
-45
-47
-49
-51
-55
-57
-61
-64
-69
-71
-70
-67
-60
-52
-41
-28
-18
-13
-10
-8
-8
-8
-9
-9
-10
-10
-9
-9
-9
-10
-12
-14
-16
-18
-19
-21
-22
-24
-27
-29
-32
-32
-32
-33
-35
-37
-40
-43
-47
-52
-55
-56
-53
-48
-41
-29
-18
-9
-4
-2
-2
-3
-6
-7
-8
-7
-7
-7
-6
-6
-5
-6
-7
-8
-10
-11
-14
-16
-17
-18
-20
-23
-25
-27
-29
-32
-35
-36
-38
-39
-43
-48
-54
-58
-55
-47
-28
0
39
90
141
192
232
256
272
274
276
267
255
235
212
195
176
160
140
122
100
79
61
44
29
13
1
-8
-14
-17
-21
-24
-28
-32
-35
-40
-45
-50
-56
-62
-68
-73
-76
-73
-69
-60
-51
-41
-34
-29
-26
-26
-25
-25
-23
-24
-25
-25
-25
-25
-26
-27
-29
-30
-32
-34
-36
-38
-39
-41
-42
-44
-47
-48
-51
-52
-56
-57
-62
-66
-70
-76
-78
-82
-82
-83
-79
-73
-63
-54
-45
-37
-33
-32
-31
-31
-31
-32
-33
-34
-35
-37
-38
-39
-40
-42
-42
-44
-46
-48
-50
-51
-51
-52
-54
-55
-57
-59
-61
-64
-66
-69
-73
-77
-82
-84
-84
-81
-75
-65
-53
-42
-34
-30
-27
-27
-26
-28
-29
-30
-31
-30
-30
-31
-32
-33
-34
-35
-37
-39
-40
-42
-41
-42
-42
-43
-44
-43
-43
-43
-45
-45
-46
-48
-50
-53
-56
-58
-53
-47
-38
-28
-18
-6
3
8
9
8
8
7
7
6
4
3
1
0
-1
-2
-3
-5
-6
-7
-8
-9
-10
-11
-13
-14
-15
-17
-19
-22
-24
-20
-12
0
19
45
82
122
167
203
233
255
268
281
279
273
252
231
210
190
172
151
133
111
94
76
60
45
31
19
7
0
-3
-6
-9
-10
-12
-14
-16
-18
-19
-21
-23
-25
-27
-31
-35
-39
-40
-39
-34
-28
-20
-13
-6
-3
1
4
5
5
3
2
0
-1
-2
-2
-3
-4
-5
-8
-10
-13
-15
-17
-20
-23
-25
-26
-29
-31
-33
-36
-38
-41
-41
-43
-44
-44
-46
-47
-47
-44
-39
-32
-25
-19
-14
-10
-8
-7
-8
-10
-12
-14
-15
-16
-17
-19
-20
-21
-22
-23
-25
-26
-28
-30
-32
-34
-36
-37
-38
-39
-40
-41
-43
-44
-46
-46
-47
-49
-50
-52
-53
-54
-55
-54
-49
-42
-32
-23
-17
-11
-6
0
2
5
6
7
5
4
2
0
-1
-3
-4
-6
-6
-8
-9
-9
-11
-12
-12
-14
-14
-15
-16
-18
-19
-21
-22
-23
-24
-25
-28
-29
-31
-31
-30
-29
-27
-21
-14
-7
-2
1
2
3
5
9
11
10
6
3
1
0
0
-1
-2
-4
-7
-9
-11
-13
-14
-14
-14
-14
-14
-15
-15
-15
-16
-17
-16
-15
-14
-12
-9
-9
-8
-7
-3
2
10
16
19
21
21
21
21
24
25
24
23
20
17
14
13
15
23
34
49
71
101
135
169
201
222
238
241
241
234
223
210
192
179
162
149
133
118
103
89
81
72
64
52
43
34
28
27
24
24
23
20
18
15
12
6
1
-4
-9
-13
-17
-20
-22
-23
-26
-27
-28
-29
-29
-29
-28
-27
-27
-27
-28
-29
-28
-26
-23
-19
-16
-14
-12
-13
-14
-15
-14
-12
-10
-10
-11
-12
-13
-14
-16
-17
-19
-22
-24
-27
-29
-31
-32
-33
-35
-37
-40
-42
-44
-45
-48
-51
-54
-54
-54
-53
-50
-45
-38
-31
-25
-22
-19
-18
-16
-13
-10
-7
-5
-4
-5
-5
-5
-5
-5
-6
-8
-10
-13
-16
-19
-22
-24
-26
-28
-30
-31
-32
-33
-36
-37
-39
-40
-44
-47
-50
-51
-48
-44
-37
-31
-25
-20
-16
-15
-13
-12
-8
-3
0
0
0
-1
-1
-1
-2
-2
-2
-3
-5
-8
-10
-12
-14
-16
-17
-17
-18
-18
-19
-20
-21
-23
-26
-28
-29
-30
-29
-30
-28
-25
-20
-14
-9
-3
-2
-2
-3
-3
-2
-3
-2
-1
0
0
-1
-4
-6
-8
-11
-13
-17
-19
-22
-25
-26
-28
-29
-32
-33
-33
-34
-34
-35
-35
-37
-38
-40
-41
-42
-43
-42
-41
-38
-35
-31
-25
-19
-13
-10
-9
-9
-8
-6
-4
-1
3
6
8
7
6
4
0
-6
-13
-16
-14
-6
8
30
61
98
141
174
200
212
215
211
203
191
172
154
136
121
104
89
73
57
44
34
27
19
9
0
-6
-9
-10
-10
-9
-7
-5
-4
-4
-6
-7
-9
-12
-16
-21
-26
-33
-38
-43
-48
-52
-56
-59
-63
-65
-68
-68
-68
-70
-72
-75
-74
-74
-69
-63
-56
-49
-44
-41
-41
-43
-44
-44
-43
-42
-40
-36
-33
-31
-30
-29
-28
-27
-28
-31
-34
-36
-38
-40
-42
-43
-45
-48
-49
-51
-54
-57
-59
-61
-62
-62
-61
-58
-54
-47
-43
-39
-36
-32
-28
-25
-21
-16
-14
-14
-15
-16
-18
-20
-23
-25
-29
-31
-32
-34
-36
-37
-37
-39
-41
-43
-45
-47
-49
-51
-54
-58
-62
-63
-64
-65
-67
-70
-71
-73
-74
-76
-76
-74
-69
-63
-51
-36
-22
-11
-3
2
5
7
8
9
9
8
7
7
9
8
6
5
3
1
0
1
0
-1
-2
-3
-5
-7
-10
-14
-16
-19
-22
-27
-31
-35
-39
-42
-45
-45
-46
-47
-46
-44
-43
-45
-45
-44
-40
-33
-26
-17
-12
-9
-10
-11
-13
-14
-15
-16
-18
-20
-21
-22
-22
-22
-22
-24
-26
-26
-27
-29
-31
-32
-35
-36
-36
-38
-39
-40
-38
-36
-32
-28
-25
-23
-21
-18
-15
-12
-11
-10
-10
-9
-9
-9
-9
-11
-12
-13
-16
-18
-22
-23
-26
-27
-29
-31
-32
-34
-34
-36
-36
-37
-37
-38
-40
-40
-42
-42
-44
-43
-41
-39
-35
-33
-29
-26
-23
-20
-18
-17
-16
-13
-9
-6
-5
-5
-5
-6
-7
-8
-10
-14
-19
-23
-26
-29
-32
-35
-38
-41
-44
-46
-49
-50
-51
-53
-53
-54
-54
-54
-51
-48
-44
-41
-40
-39
-39
-35
-28
-16
0
22
52
90
128
172
207
239
259
263
262
250
238
217
200
181
161
141
117
97
72
52
34
19
5
-7
-17
-24
-28
-30
-33
-34
-34
-34
-33
-31
-30
-27
-23
-22
-21
-19
-15
-12
-10
-10
-11
-11
-12
-12
-12
-11
-12
-13
-14
-17
-20
-22
-23
-25
-26
-27
-28
-30
-31
-30
-31
-32
-33
-35
-37
-41
-44
-48
-52
-57
-60
-59
-60
-57
-53
-47
-42
-37
-32
-28
-24
-20
-15
-12
-9
-5
-1
1
4
5
7
8
8
7
6
6
4
3
2
1
0
-1
-3
-4
-6
-9
-10
-12
-13
-15
-16
-17
-20
-21
-23
-24
-26
-27
-26
-24
-20
-19
-17
-15
-12
-9
-8
-6
-6
-4
-3
-2
-2
-3
-4
-8
-11
-14
-18
-20
-23
-25
-29
-33
-37
-41
-42
-44
-44
-46
-45
-46
-46
-46
-47
-48
-50
-53
-59
-62
-63
-63
-63
-61
-56
-52
-47
-42
-37
-32
-28
-22
-15
-7
-3
-1
-1
-1
-2
-3
-5
-5
-6
-7
-8
-9
-9
-11
-13
-15
-18
-20
-21
-23
-25
-28
-29
-33
-35
-38
-38
-38
-38
-38
-39
-38
-38
-38
-37
-35
-34
-32
-29
-26
-21
-16
-12
-9
-7
-7
-7
-8
-9
-10
-11
-12
-13
-13
-13
-14
-14
-14
-14
-14
-16
-17
-19
-20
-20
-21
-23
-23
-24
-23
-22
-20
-15
-11
-5
0
6
10
13
15
16
14
13
12
14
20
30
49
71
105
139
177
207
227
240
241
240
231
219
200
182
163
147
132
113
94
72
53
36
22
10
-1
-10
-14
-15
-13
-11
-10
-10
-10
-9
-10
-11
-13
-16
-19
-21
-24
-25
-28
-30
-32
-34
-36
-38
-40
-40
-43
-46
-48
-49
-50
-50
-50
-50
-50
-50
-50
-51
-51
-51
-50
-49
-48
-48
-48
-48
-48
-46
-44
-40
-35
-28
-24
-19
-14
-8
-4
-5
-6
-10
-13
-15
-18
-20
-22
-23
-24
-25
-26
-28
-29
-31
-31
-32
-33
-33
-32
-33
-34
-32
-30
-27
-29
-29
-28
-29
-28
-28
-28
-30
-31
-32
-30
-27
-24
-19
-16
-14
-14
-14
-15
-15
-13
-11
-10
-10
-12
-13
-13
-14
-15
-17
-20
-22
-24
-26
-28
-29
-31
-33
-35
-37
-36
-36
-38
-40
-42
-46
-50
-55
-67
-82
-103
-123
-142
-162
-175
-188
-192
-195
-192
-189
-187
-181
-178
-172
-170
-165
-164
-162
-157
-150
-139
-131
-121
-110
-94
-79
-63
-41
-20
1
16
22
24
24
25
26
26
29
30
32
33
36
39
41
43
43
46
50
57
64
70
77
83
87
88
92
95
98
102
106
113
118
124
126
128
129
131
131
133
136
134
135
134
136
137
138
140
138
140
138
139
136
135
133
132
131
129
129
126
128
124
121
118
114
113
110
110
107
107
105
102
99
95
92
84
79
74
75
78
81
82
80
76
70
65
59
54
49
45
40
34
31
25
22
17
13
10
8
7
4
2
1
0
0
-1
-1
-4
-7
-8
-10
-12
-14
-17
-19
-19
-19
-18
-18
-17
-15
-13
-12
-11
-9
-7
-5
-4
-3
-2
-3
-3
-4
-4
-6
-8
-9
-12
-14
-17
-20
-22
-25
-27
-29
-29
-29
-30
-32
-32
-32
-33
-33
-33
-32
-31
-31
-32
-31
-28
-22
-16
-10
-4
2
8
13
18
20
22
23
23
23
23
24
24
23
22
21
19
16
13
9
6
4
2
0
-2
-4
-8
-9
-11
-13
-15
-17
-19
-20
-22
-24
-25
-26
-27
-25
-21
-17
-15
-13
-8
-4
0
4
7
9
9
9
8
8
8
7
8
8
7
4
1
-1
-4
-6
-9
-11
-12
-11
-12
-14
-16
-18
-21
-22
-23
-22
-23
-23
-24
-24
-24
-26
-27
-28
-25
-18
-5
10
34
63
98
140
181
222
248
267
270
270
262
250
235
214
197
177
161
142
123
102
82
67
52
39
26
16
9
5
2
0
0
0
-2
-4
-5
-5
-5
-3
0
2
4
5
5
6
6
7
8
8
9
8
6
4
2
0
-2
-4
-6
-9
-13
-16
-19
-22
-25
-27
-29
-32
-34
-38
-40
-41
-44
-46
-49
-52
-54
-56
-56
-57
-57
-58
-60
-60
-59
-55
-51
-46
-41
-37
-34
-30
-27
-26
-26
-26
-27
-29
-29
-29
-28
-29
-30
-32
-35
-36
-39
-41
-41
-43
-45
-48
-50
-53
-55
-55
-57
-58
-61
-63
-65
-65
-66
-66
-68
-69
-68
-66
-62
-60
-57
-58
-62
-67
-69
-66
-62
-55
-51
-49
-49
-49
-50
-51
-52
-53
-55
-57
-59
-62
-64
-65
-68
-69
-70
-72
-72
-72
-71
-72
-71
-71
-69
-67
-63
-60
-58
-55
-53
-48
-43
-36
-30
-24
-21
-19
-18
-18
-18
-19
-22
-26
-25
-19
-9
1
14
33
59
90
128
161
186
204
212
217
214
209
198
181
164
143
127
107
91
75
59
41
26
13
-1
-13
-22
-25
-23
-19
-14
-11
-9
-9
-11
-12
-14
-14
-16
-15
-15
-15
-17
-21
-24
-29
-32
-36
-42
-47
-53
-56
-60
-62
-63
-64
-64
-66
-66
-68
-68
-69
-68
-67
-67
-68
-69
-67
-68
-67
-67
-66
-62
-59
-53
-48
-42
-40
-39
-39
-40
-39
-38
-36
-35
-34
-31
-29
-27
-27
-28
-30
-32
-33
-36
-38
-41
-44
-46
-47
-49
-50
-51
-51
-51
-49
-48
-48
-48
-48
-48
-48
-48
-49
-48
-46
-42
-37
-33
-28
-27
-28
-29
-31
-33
-36
-39
-41
-42
-40
-38
-38
-39
-40
-41
-42
-44
-46
-48
-51
-51
-53
-53
-56
-58
-62
-64
-65
-64
-62
-61
-58
-56
-54
-51
-46
-41
-36
-29
-24
-19
-15
-12
-9
-7
-8
-9
-10
-8
-7
-8
-10
-14
-18
-20
-23
-25
-27
-29
-32
-34
-36
-37
-39
-42
-43
-45
-46
-48
-50
-51
-53
-53
-53
-52
-54
-53
-52
-51
-50
-49
-47
-45
-41
-35
-28
-21
-17
-13
-10
-11
-12
-12
-11
-10
-9
-7
-6
-6
-6
-6
-7
-9
-12
-14
-16
-18
-19
-20
-21
-23
-24
-25
-27
-28
-29
-30
-32
-33
-35
-36
-38
-39
-39
-41
-41
-41
-41
-41
-41
-42
-41
-41
-42
-43
-43
-43
-43
-40
-33
-23
-10
8
32
64
99
143
180
217
242
253
256
247
238
218
201
183
166
151
132
114
90
72
55
42
28
15
4
-3
-8
-11
-13
-15
-19
-23
-28
-33
-36
-39
-42
-45
-47
-49
-50
-50
-50
-49
-49
-46
-44
-40
-37
-34
-31
-27
-23
-22
-20
-18
-17
-16
-16
-18
-20
-21
-23
-24
-26
-27
-30
-31
-33
-35
-36
-38
-40
-43
-46
-48
-50
-51
-53
-54
-56
-56
-57
-57
-57
-58
-56
-55
-49
-45
-41
-38
-35
-30
-26
-21
-17
-14
-11
-7
-3
0
4
6
7
8
7
6
5
4
4
3
3
2
0
-1
-3
-5
-9
-13
-16
-20
-23
-27
-30
-33
-36
-38
-41
-41
-40
-38
-34
-30
-28
-25
-21
-15
-8
-3
1
1
2
2
3
4
5
5
5
5
4
2
1
0
0
-1
-2
-4
-6
-9
-11
-14
-17
-19
-23
-25
-27
-30
-33
-37
-39
-42
-43
-44
-44
-41
-37
-30
-24
-17
-11
-5
2
10
18
23
25
25
23
21
21
22
22
21
20
18
16
13
11
9
7
5
2
0
-1
-3
-5
-7
-9
-13
-17
-22
-27
-31
-35
-38
-43
-46
-48
-53
-56
-58
-55
-50
-41
-31
-22
-15
-9
-2
4
11
15
17
17
17
16
15
15
14
13
11
9
7
5
2
0
-2
-3
-5
-6
-7
-9
-11
-14
-19
-22
-26
-29
-32
-36
-40
-43
-46
-49
-54
-57
-58
-59
-57
-50
-43
-33
-24
-16
-11
-6
-2
3
8
11
11
11
11
10
9
7
5
3
1
0
-2
-3
-5
-6
-8
-11
-12
-17
-23
-29
-35
-39
-39
-34
-25
-11
11
41
80
119
149
174
184
188
183
174
167
157
154
148
145
134
123
108
91
78
63
51
38
26
15
7
3
0
0
-3
-5
-8
-10
-13
-14
-16
-18
-19
-21
-23
-24
-25
-25
-27
-28
-30
-33
-35
-36
-37
-38
-40
-40
-41
-41
-41
-39
-36
-31
-26
-21
-19
-18
-18
-18
-16
-17
-16
-16
-16
-16
-15
-16
-18
-19
-21
-23
-24
-25
-26
-27
-27
-28
-29
-29
-30
-31
-33
-35
-35
-36
-36
-36
-36
-36
-35
-35
-34
-33
-30
-25
-17
-9
-2
0
1
0
-1
-4
-5
-7
-10
-12
-13
-15
-18
-20
-22
-25
-27
-28
-30
-32
-33
-33
-34
-35
-36
-37
-38
-39
-40
-41
-42
-43
-44
-44
-46
-46
-47
-46
-46
-45
-42
-41
-39
-35
-28
-20
-10
-2
2
3
4
6
7
8
7
6
6
5
2
1
0
-1
-2
-3
-5
-6
-6
-7
-8
-9
-11
-12
-14
-15
-16
-18
-19
-20
-21
-22
-23
-24
-25
-27
-30
-32
-35
-36
-35
-31
-29
-25
-21
-19
-17
-14
-10
-8
-7
-7
-7
-8
-10
-12
-14
-15
-16
-17
-18
-20
-21
-21
-21
-22
-22
-22
-22
-23
-25
-27
-29
-30
-31
-31
-32
-34
-35
-37
-39
-40
-39
-36
-32
-27
-21
-17
-15
-14
-13
-9
-4
0
2
4
6
6
5
5
6
5
5
4
5
6
5
4
4
4
4
3
3
2
0
0
1
0
-2
-4
-7
-9
-11
-12
-16
-19
-21
-23
-24
-25
-23
-21
-19
-16
-10
-6
-1
4
16
33
54
80
112
148
183
218
243
262
267
264
257
242
227
204
186
164
146
125
103
80
58
41
25
11
-4
-15
-25
-30
-33
-35
-36
-37
-37
-38
-39
-38
-38
-36
-32
-27
-24
-20
-16
-12
-9
-8
-7
-7
-8
-10
-12
-13
-15
-15
-16
-17
-18
-19
-19
-21
-22
-22
-23
-25
-28
-30
-34
-36
-38
-41
-44
-47
-48
-50
-51
-51
-50
-47
-44
-40
-38
-34
-30
-26
-23
-20
-18
-17
-17
-16
-15
-15
-16
-17
-17
-18
-19
-20
-19
-19
-18
-19
-19
-19
-20
-21
-23
-25
-27
-29
-31
-33
-34
-36
-39
-42
-44
-44
-46
-48
-47
-44
-40
-38
-35
-34
-31
-28
-24
-18
-14
-11
-9
-8
-7
-6
-6
-6
-8
-9
-9
-10
-11
-13
-13
-12
-12
-12
-14
-15
-17
-18
-20
-22
-25
-27
-30
-33
-36
-38
-41
-42
-42
-40
-38
-35
-33
-31
-27
-21
-15
-9
-3
3
7
8
6
3
3
2
1
1
0
0
-3
-5
-7
-8
-9
-11
-13
-16
-18
-21
-23
-25
-27
-29
-31
-32
-35
-37
-39
-41
-42
-43
-42
-39
-35
-30
-25
-19
-14
-8
-1
5
9
10
8
6
4
3
1
0
0
0
-1
-4
-7
-6
-1
7
22
45
75
111
150
187
213
231
237
237
230
217
201
180
161
140
123
106
92
76
61
50
40
32
26
21
15
10
8
6
3
-2
-7
-12
-14
-15
-19
-21
-24
-27
-29
-32
-34
-38
-42
-45
-48
-51
-54
-56
-59
-61
-64
-66
-67
-70
-70
-72
-73
-74
-75
-76
-76
-74
-73
-68
-64
-56
-48
-40
-35
-32
-32
-34
-35
-37
-38
-40
-41
-43
-46
-50
-53
-55
-56
-59
-61
-63
-66
-69
-70
-72
-72
-73
-73
-75
-76
-77
-79
-81
-81
-80
-78
-76
-74
-73
-71
-69
-67
-64
-60
-56
-50
-43
-35
-29
-25
-23
-25
-27
-29
-31
-32
-33
-34
-36
-38
-42
-44
-46
-48
-50
-53
-54
-56
-56
-56
-58
-59
-61
-62
-63
-63
-61
-59
-56
-52
-48
-44
-40
-37
-33
-31
-28
-24
-20
-14
-8
-3
0
3
4
5
3
1
0
-1
-2
-3
-3
-5
-7
-10
-15
-19
-23
-26
-29
-31
-32
-33
-35
-37
-39
-41
-42
-41
-39
-36
-36
-35
-32
-29
-28
-26
-23
-19
-12
-5
1
5
8
10
11
9
9
7
5
3
2
0
0
-2
-4
-5
-8
-11
-14
-18
-21
-25
-29
-32
-34
-36
-39
-44
-48
-49
-50
-49
-46
-44
-40
-37
-34
-30
-25
-19
-11
-2
7
14
19
23
23
24
24
24
22
19
18
16
14
12
11
8
5
2
-1
-6
-10
-14
-18
-21
-25
-29
-33
-38
-42
-45
-48
-47
-46
-43
-42
-39
-37
-33
-29
-24
-17
-9
-1
5
10
15
17
17
16
13
11
11
9
7
4
2
-1
-3
-7
-11
-15
-19
-22
-26
-30
-33
-37
-39
-42
-45
-47
-48
-49
-49
-47
-46
-45
-45
-43
-40
-38
-35
-32
-26
-19
-11
-5
-1
0
1
0
0
0
-2
-4
-7
-8
-9
-10
-12
-13
-14
-16
-18
-22
-25
-26
-28
-29
-32
-33
-35
-38
-40
-41
-40
-39
-36
-33
-31
-26
-22
-16
-10
-4
1
8
15
21
25
28
27
26
23
20
17
14
12
8
6
3
0
-1
-2
-2
-4
-7
-11
-15
-18
-20
-22
-24
-26
-30
-34
-36
-36
-35
-34
-32
-30
-27
-23
-19
-13
-8
-2
5
17
33
53
77
110
144
186
224
260
283
293
294
284
275
254
234
210
187
167
144
126
101
79
56
37
20
3
-11
-25
-33
-36
-35
-33
-34
-34
-31
-27
-24
-21
-17
-12
-6
0
4
8
10
10
8
6
5
5
3
2
0
-1
-3
-4
-6
-8
-11
-14
-18
-20
-22
-26
-30
-33
-36
-39
-41
-42
-39
-37
-34
-33
-30
-27
-24
-21
-18
-14
-9
-2
4
8
11
13
14
15
14
13
12
10
7
5
3
1
0
-1
-2
-5
-7
-9
-11
-13
-15
-17
-20
-22
-25
-28
-31
-34
-35
-32
-28
-25
-22
-18
-15
-12
-10
-6
-1
5
13
17
21
21
22
20
20
19
16
14
11
9
6
5
3
1
0
-3
-6
-9
-12
-15
-17
-20
-23
-24
-27
-29
-32
-35
-38
-41
-41
-41
-39
-37
-36
-34
-32
-28
-23
-18
-13
-6
1
10
16
21
24
25
25
25
25
24
24
22
21
19
16
15
12
10
7
5
3
1
-1
-5
-8
-11
-14
-16
-19
-23
-25
-26
-24
-21
-19
-18
-17
-14
-9
-8
-5
-2
0
1
3
5
7
10
13
15
17
19
19
18
17
14
12
9
8
6
4
1
-1
-5
-9
-13
-17
-20
-21
-23
-25
-29
-32
-36
-39
-40
-38
-35
-32
-29
-26
-23
-18
-13
-10
-6
-3
0
3
5
8
10
16
20
24
24
26
26
26
25
23
20
18
16
14
12
11
8
7
5
2
0
-4
-7
-11
-13
-16
-19
-22
-26
-26
-26
-23
-20
-15
-10
-5
0
5
10
15
21
26
31
33
34
32
30
27
23
21
19
18
15
13
10
8
6
3
1
-1
-1
-2
-4
-6
-8
-10
-11
-13
-16
-20
-25
-30
-33
-31
-22
-9
13
42
82
123
164
198
224
246
251
251
242
233
217
201
186
168
154
135
118
98
83
69
54
41
29
20
14
11
8
4
0
-3
-5
-8
-10
-13
-17
-21
-25
-28
-33
-39
-44
-47
-47
-45
-40
-36
-31
-27
-22
-18
-17
-15
-12
-8
-4
0
0
0
-1
-2
-3
-3
-4
-5
-6
-7
-7
-7
-8
-8
-9
-9
-10
-11
-14
-17
-19
-21
-22
-26
-29
-32
-36
-39
-44
-47
-49
-49
-50
-52
-54
-56
-55
-54
-50
-48
-46
-44
-41
-36
-31
-23
-16
-9
-3
-1
0
0
0
0
0
-1
-1
-2
-3
-5
-6
-7
-8
-10
-12
-14
-17
-19
-23
-25
-27
-28
-29
-31
-31
-33
-35
-36
-36
-36
-35
-34
-34
-35
-36
-38
-35
-30
-25
-23
-22
-21
-19
-18
-18
-18
-18
-18
-20
-21
-22
-24
-25
-26
-26
-27
-28
-30
-32
-33
-35
-37
-39
-40
-42
-44
-46
-49
-51
-55
-55
-54
-52
-47
-43
-38
-33
-25
-17
-12
-9
-6
-6
-5
-4
-6
-10
-13
-12
-7
3
16
39
68
105
146
184
215
234
247
249
247
234
217
195
174
153
134
116
97
77
55
35
16
0
-14
-27
-40
-50
-59
-62
-61
-56
-50
-43
-36
-31
-28
-28
-28
-30
-31
-33
-35
-37
-41
-44
-48
-51
-53
-53
-53
-53
-52
-53
-53
-54
-54
-53
-52
-50
-48
-47
-48
-47
-48
-49
-49
-50
-49
-50
-51
-53
-53
-54
-56
-55
-52
-47
-45
-44
-43
-42
-42
-42
-43
-45
-45
-46
-44
-44
-44
-47
-49
-50
-51
-52
-53
-53
-53
-55
-56
-57
-56
-57
-56
-56
-55
-54
-53
-50
-50
-48
-49
-48
-49
-50
-52
-55
-57
-59
-56
-51
-45
-42
-40
-40
-39
-38
-37
-36
-37
-36
-34
-34
-34
-36
-37
-39
-40
-41
-41
-42
-42
-43
-43
-44
-45
-43
-41
-39
-37
-35
-31
-28
-26
-26
-27
-29
-29
-30
-31
-33
-34
-32
-28
-26
-28
-29
-30
-31
-31
-31
-30
-30
-28
-26
-25
-24
-24
-25
-25
-25
-24
-24
-24
-25
-26
-28
-28
-29
-27
-25
-22
-18
-15
-11
-9
-6
-6
-7
-9
-9
-9
-9
-11
-14
-16
-17
-19
-21
-24
-25
-26
-25
-25
-26
-26
-27
-26
-25
-24
-23
-21
-19
-18
-19
-18
-17
-16
-16
-14
-12
-8
-4
-2
0
1
2
2
2
4
5
5
3
-1
-5
-9
-12
-16
-18
-20
-22
-22
-23
-24
-24
-25
-26
-26
-26
-26
-26
-26
-25
-24
-23
-21
-20
-18
-15
-11
-8
-5
-2
0
1
4
6
7
7
6
6
6
4
0
-3
-8
-13
-16
-19
-23
-26
-28
-31
-33
-36
-38
-41
-43
-45
-46
-47
-47
-48
-47
-44
-41
-40
-38
-36
-34
-32
-29
-27
-24
-21
-18
-15
-13
-12
-10
-9
-6
-2
3
4
3
0
-3
-5
-8
-9
-13
-15
-18
-22
-25
-25
-20
-11
1
21
48
81
120
156
186
208
224
232
231
230
219
209
193
181
168
155
141
124
109
93
82
68
56
45
35
28
22
18
11
4
-3
-7
-10
-13
-15
-17
-20
-21
-23
-24
-26
-27
-28
-29
-30
-32
-32
-32
-33
-34
-34
-33
-31
-28
-24
-21
-19
-18
-16
-13
-10
-7
-4
-1
1
3
4
3
3
1
2
4
6
6
2
-3
-9
-14
-17
-20
-21
-22
-23
-24
-25
-27
-28
-30
-32
-33
-33
-34
-34
-33
-30
-29
-28
-27
-27
-27
-25
-24
-20
-16
-13
-11
-10
-8
-7
-5
-2
-2
-3
-6
-7
-9
-8
-5
-2
-1
-1
-4
-7
-9
-10
-12
-13
-16
-19
-22
-22
-24
-26
-29
-31
-32
-33
-33
-35
-35
-36
-36
-35
-34
-31
-29
-26
-23
-19
-15
-14
-12
-12
-10
-9
-8
-8
-8
-8
-7
-5
-1
2
3
1
-1
-3
-5
-6
-7
-9
-10
-11
-12
-15
-17
-19
-20
-20
-20
-21
-23
-23
-25
-25
-26
-27
-27
-26
-23
-22
-19
-17
-14
-13
-11
-9
-8
-9
-11
-12
-11
-11
-11
-8
-6
-8
-11
-15
-18
-20
-21
-23
-26
-28
-31
-34
-35
-36
-37
-39
-38
-39
-38
-37
-36
-34
-34
-32
-30
-28
-27
-26
-24
-22
-19
-15
-11
-7
-4
-1
2
3
6
7
8
6
0
-4
-9
-12
-14
-17
-20
-23
-24
-20
-11
0
20
43
77
111
148
177
195
208
209
209
199
188
175
161
149
133
120
104
91
74
60
46
32
18
4
-4
-7
-6
-7
-12
-16
-20
-25
-30
-34
-39
-44
-47
-50
-52
-53
-56
-58
-61
-62
-64
-65
-65
-66
-66
-66
-64
-62
-60
-59
-56
-53
-49
-45
-41
-38
-36
-34
-32
-31
-32
-30
-25
-18
-15
-16
-20
-24
-27
-30
-32
-33
-35
-38
-40
-42
-44
-46
-47
-48
-48
-49
-47
-48
-47
-47
-47
-44
-41
-39
-39
-36
-34
-30
-25
-20
-15
-12
-11
-13
-13
-14
-15
-13
-8
-4
-2
-2
-4
-7
-10
-12
-15
-17
-20
-24
-28
-32
-34
-37
-40
-41
-43
-44
-45
-47
-47
-48
-47
-45
-42
-41
-38
-36
-32
-31
-28
-25
-22
-19
-15
-10
-6
-3
-1
0
3
7
14
20
20
15
9
4
0
-1
-3
-5
-7
-9
-11
-13
-15
-17
-19
-22
-23
-26
-28
-29
-30
-30
-30
-30
-30
-30
-28
-26
-22
-19
-17
-16
-14
-13
-12
-11
-8
-5
-2
1
5
8
9
10
10
12
15
19
21
21
17
12
5
0
-4
-8
-12
-16
-20
-23
-28
-32
-35
-37
-39
-40
-40
-42
-42
-42
-42
-41
-40
-37
-35
-32
-29
-28
-26
-24
-21
-17
-12
-8
-4
-1
0
1
1
2
3
5
8
9
7
3
-1
-4
-6
-8
-9
-11
-11
-12
-13
-14
-16
-18
-20
-21
-22
-21
-21
-20
-20
-18
-15
-12
-9
-8
-7
-5
-2
2
6
9
12
15
17
18
18
20
22
25
27
24
22
18
17
14
10
8
3
0
-4
-8
-10
-13
-15
-18
-20
-23
-26
-27
-29
-31
-33
-34
-36
-35
-33
-30
-25
-19
-13
-7
-2
0
3
3
3
4
6
11
14
16
15
15
12
9
7
7
11
18
29
46
71
102
139
175
205
228
243
249
243
236
220
204
183
165
147
131
114
93
74
58
48
38
27
18
12
10
11
12
10
6
4
0
-2
-5
-7
-9
-10
-11
-13
-15
-18
-20
-22
-25
-27
-29
-29
-30
-30
-31
-31
-32
-31
-31
-31
-31
-31
-31
-31
-31
-30
-29
-27
-26
-25
-24
-23
-22
-17
-8
-1
2
1
-2
-5
-7
-10
-13
-15
-18
-20
-21
-23
-25
-27
-27
-28
-29
-30
-31
-32
-31
-31
-31
-30
-31
-31
-31
-30
-30
-31
-31
-31
-30
-29
-26
-25
-23
-21
-21
-21
-20
-18
-19
-18
-18
-18
-18
-19
-19
-18
-15
-14
-15
-16
-19
-21
-23
-25
-26
-27
-27
-28
-28
-28
-28
-28
-27
-27
-27
-27
-27
-28
-28
-28
-27
-24
-20
-16
-13
-10
-8
-6
-3
0
3
9
15
17
18
16
14
10
7
5
3
2
0
-2
-6
-11
-15
-17
-18
-20
-21
-21
-21
-20
-20
-20
-21
-21
-22
-22
-22
-22
-22
-24
-23
-22
-20
-17
-13
-9
-6
-4
-3
-1
3
15
29
48
72
103
139
177
217
251
273
280
284
278
269
250
228
206
181
160
135
113
88
67
46
29
14
0
-12
-20
-27
-31
-34
-35
-36
-38
-38
-39
-39
-38
-35
-34
-31
-30
-29
-28
-24
-17
-9
-1
5
10
11
13
12
11
10
8
5
2
0
-3
-6
-10
-15
-18
-22
-27
-32
-37
-42
-49
-55
-60
-63
-64
-66
-69
-73
-75
-76
-76
-76
-78
-78
-78
-74
-70
-62
-54
-45
-35
-26
-20
-18
-17
-17
-18
-20
-21
-23
-25
-26
-28
-30
-32
-34
-36
-38
-41
-44
-46
-48
-49
-51
-53
-56
-60
-63
-67
-70
-73
-74
-75
-72
-67
-63
-58
-55
-51
-46
-40
-33
-28
-24
-20
-17
-16
-15
-15
-14
-14
-16
-17
-19
-19
-22
-23
-25
-26
-28
-28
-29
-30
-30
-30
-30
-31
-32
-33
-34
-33
-31
-28
-25
-23
-20
-16
-13
-9
-6
-2
0
1
2
2
3
3
3
3
3
2
0
-2
-5
-8
-10
-11
-14
-17
-18
-21
-24
-26
-28
-29
-31
-31
-34
-34
-35
-36
-36
-38
-40
-43
-46
-49
-53
-54
-53
-44
-33
-21
-12
-6
-2
1
4
6
5
6
10
17
28
42
63
91
126
163
200
232
256
269
273
274
265
255
233
210
187
166
148
127
109
87
67
49
34
19
4
-9
-18
-24
-27
-31
-33
-35
-35
-34
-31
-28
-24
-20
-18
-16
-14
-13
-13
-12
-12
-11
-11
-14
-16
-18
-21
-24
-26
-27
-30
-31
-33
-36
-39
-42
-45
-49
-51
-52
-52
-53
-56
-57
-60
-61
-65
-68
-72
-76
-80
-85
-90
-97
-102
-106
-107
-105
-101
-95
-89
-81
-76
-71
-68
-65
-62
-57
-54
-52
-49
-44
-41
-39
-37
-36
-37
-37
-38
-38
-39
-39
-41
-41
-42
-42
-43
-44
-45
-48
-49
-50
-52
-54
-58
-61
-66
-70
-75
-78
-80
-82
-81
-81
-79
-78
-74
-70
-66
-60
-55
-49
-46
-40
-33
-25
-17
-13
-10
-9
-10
-11
-12
-13
-15
-16
-16
-17
-18
-18
-18
-20
-20
-20
-22
-24
-26
-28
-29
-30
-32
-35
-38
-42
-46
-47
-49
-48
-45
-40
-36
-32
-29
-27
-24
-21
-17
-18
-18
-16
-9
3
21
43
74
109
149
191
225
255
269
280
282
279
268
246
224
197
179
158
140
120
98
77
55
36
15
-2
-19
-33
-41
-44
-45
-42
-39
-34
-29
-23
-21
-19
-17
-15
-14
-13
-14
-15
-17
-18
-18
-20
-22
-24
-26
-28
-30
-31
-33
-35
-37
-39
-40
-43
-45
-48
-52
-55
-60
-63
-68
-72
-78
-82
-83
-83
-81
-79
-72
-66
-61
-58
-54
-48
-44
-39
-36
-32
-31
-30
-30
-29
-27
-26
-25
-26
-27
-29
-30
-32
-34
-36
-38
-41
-44
-46
-49
-51
-52
-55
-60
-65
-69
-75
-80
-85
-86
-85
-83
-79
-76
-72
-69
-66
-64
-61
-58
-54
-49
-44
-40
-37
-34
-31
-28
-27
-27
-27
-29
-29
-28
-27
-28
-29
-29
-31
-33
-36
-38
-40
-42
-43
-47
-49
-53
-56
-61
-65
-68
-72
-70
-66
-54
-44
-35
-26
-19
-12
-7
-1
3
7
11
13
14
15
15
18
19
19
17
15
12
10
8
6
4
2
0
-1
-2
-4
-7
-9
-11
-13
-16
-20
-26
-31
-37
-43
-49
-54
-59
-62
-62
-60
-56
-50
-43
-37
-32
-26
-19
-13
-6
0
7
13
19
22
24
24
21
18
15
16
20
31
46
68
99
140
185
229
269
290
302
301
295
283
262
241
211
189
166
145
122
97
73
48
27
6
-13
-30
-45
-55
-60
-60
-57
-51
-40
-27
-15
-6
0
3
5
6
7
7
6
3
2
1
0
-2
-3
-3
-3
-4
-5
-8
-10
-12
-14
-16
-18
-19
-23
-26
-30
-34
-37
-40
-43
-47
-51
-56
-61
-65
-70
-72
-72
-69
-65
-60
-53
-50
-47
-46
-43
-43
-43
-43
-43
-43
-43
-42
-44
-44
-45
-46
-47
-48
-48
-48
-47
-47
-47
-47
-49
-49
-50
-50
-52
-52
-54
-56
-57
-57
-58
-60
-62
-66
-67
-67
-61
-52
-43
-34
-28
-24
-22
-20
-18
-16
-17
-18
-19
-19
-19
-19
-19
-20
-21
-22
-23
-25
-26
-26
-28
-29
-30
-31
-32
-34
-36
-38
-40
-42
-44
-46
-49
-51
-53
-53
-54
-54
-52
-48
-38
-26
-15
-7
-2
0
1
2
4
4
3
1
0
-4
-7
-13
-16
-13
-5
7
26
53
89
126
168
199
222
231
237
237
233
221
201
180
157
137
117
100
83
66
50
33
21
10
4
0
-1
-1
-5
-7
-10
-10
-10
-12
-12
-15
-17
-21
-24
-27
-30
-33
-35
-38
-40
-42
-44
-46
-47
-50
-51
-54
-56
-57
-58
-59
-61
-63
-65
-62
-58
-55
-52
-51
-52
-55
-56
-54
-50
-47
-45
-44
-46
-49
-52
-54
-55
-57
-58
-61
-64
-66
-67
-68
-68
-69
-70
-72
-72
-71
-71
-70
-70
-68
-67
-66
-65
-63
-60
-58
-54
-50
-44
-40
-35
-31
-30
-30
-29
-24
-18
-13
-11
-10
-12
-14
-15
-18
-20
-24
-27
-30
-32
-35
-38
-41
-44
-48
-51
-54
-55
-56
-57
-59
-60
-61
-61
-61
-59
-56
-54
-50
-45
-41
-37
-36
-36
-36
-35
-35
-32
-31
-30
-30
-31
-32
-33
-34
-34
-36
-37
-37
-39
-39
-40
-41
-41
-40
-39
-40
-40
-41
-42
-41
