134
145
154
161
167
169
170
166
159
151
138
121
94
62
32
9
-2
-10
-13
-14
-13
-13
-14
-15
-16
-15
-15
-15
-15
-15
-15
-16
-16
-16
-15
-16
-17
-17
-17
-18
-19
-18
-18
-18
-19
-19
-19
-19
-20
-21
-22
-23
-24
-25
-25
-24
-23
-23
-22
-20
-17
-15
-12
-10
-9
-9
-8
-7
-7
-8
-8
-8
-7
-7
-8
-9
-9
-10
-11
-12
-13
-14
-16
-17
-18
-20
-22
-23
-25
-27
-29
-31
-32
-32
-32
-32
-32
-32
-32
-33
-32
-30
-28
-27
-26
-23
-22
-22
-22
-20
-18
-16
-14
-13
-11
-9
-7
-6
-4
-1
0
2
5
7
9
10
11
11
12
12
13
15
16
16
16
17
18
19
20
20
23
25
26
26
26
25
24
24
25
26
27
26
24
23
24
23
21
21
22
22
20
20
19
19
18
18
17
17
15
14
15
16
15
13
11
12
12
11
11
12
13
14
13
14
14
14
13
13
13
14
15
16
17
17
17
16
16
17
17
17
16
17
16
15
15
15
15
14
13
13
12
11
9
9
9
10
10
10
12
13
14
13
12
12
11
11
11
12
12
12
12
12
12
12
12
13
15
15
15
15
15
15
15
16
16
18
17
18
18
18
18
16
15
15
15
15
15
15
16
14
12
11
11
10
9
9
10
11
11
11
11
11
12
13
14
14
14
13
12
12
12
13
12
12
12
12
11
10
10
9
9
9
8
7
6
6
5
4
1
-1
-4
-5
-5
-6
-7
-8
-9
-10
-11
-10
-9
-9
-9
-9
-8
-6
-6
-5
-4
-4
-5
-5
-4
-2
-2
-2
-1
-1
-1
-1
0
3
6
10
15
24
38
54
69
81
91
96
99
99
103
111
123
138
150
161
167
171
173
174
173
169
163
152
135
110
80
49
27
13
5
0
-3
-5
-8
-10
-11
-12
-13
-14
-14
-14
-15
-15
-15
-16
-16
-17
-16
-16
-16
-16
-16
-16
-18
-18
-17
-15
-14
-14
-15
-14
-13
-12
-11
-10
-10
-11
-11
-10
-9
-7
-7
-7
-7
-7
-7
-8
-9
-10
-11
-11
-11
-11
-10
-12
-13
-14
-14
-15
-16
-16
-17
-17
-18
-17
-17
-17
-16
-15
-15
-17
-20
-21
-22
-22
-23
-23
-22
-22
-22
-23
-25
-26
-27
-28
-27
-26
-25
-27
-28
-26
-24
-22
-21
-17
-16
-16
-15
-14
-11
-8
-5
-2
1
5
8
10
12
15
18
21
25
27
28
27
27
29
30
31
29
28
27
27
26
25
25
24
23
21
20
19
18
18
18
17
15
15
16
16
16
14
15
16
16
15
16
17
17
17
17
19
19
19
20
21
24
24
24
23
24
25
25
24
23
23
21
19
17
17
16
14
14
14
13
12
11
10
11
10
10
10
11
12
13
15
16
16
16
17
18
19
20
20
21
22
22
22
23
23
23
23
23
22
21
20
20
21
20
19
18
18
18
18
17
17
16
15
14
14
14
13
14
14
16
16
16
15
16
16
16
17
17
19
18
19
19
20
21
22
22
22
23
22
22
23
23
23
22
23
22
22
21
21
21
21
20
19
19
19
19
19
19
19
18
18
18
18
17
16
16
17
16
16
16
16
15
12
11
9
8
7
7
7
7
7
6
5
6
6
6
6
6
6
6
6
7
9
8
9
9
9
8
7
8
8
10
10
11
12
12
12
14
16
19
25
35
53
71
88
99
108
115
118
122
126
140
152
167
176
184
190
192
195
192
190
181
172
155
131
100
68
46
31
22
16
12
10
8
5
3
2
0
-1
-2
-2
-2
-2
-2
-1
1
3
3
4
3
2
1
2
4
7
8
9
9
8
7
7
8
8
9
9
7
7
7
7
7
7
8
9
10
10
11
10
10
9
10
10
9
9
9
9
8
8
9
10
9
7
5
4
4
3
2
1
0
0
0
-2
-4
-6
-7
-7
-8
-9
-10
-11
-12
-13
-13
-12
-11
-11
-11
-9
-7
-6
-6
-5
-3
-2
-1
0
1
3
6
7
10
12
13
15
16
18
19
21
22
23
25
26
28
30
32
32
34
35
35
36
36
38
39
40
39
39
39
39
38
36
36
35
35
34
35
35
35
34
34
33
31
29
27
27
27
27
27
27
27
25
24
22
21
19
18
19
20
21
20
20
21
22
23
22
21
21
21
21
21
21
20
20
20
22
22
22
21
21
20
19
20
20
21
20
19
18
16
16
15
15
14
13
12
11
11
9
7
7
8
9
10
11
12
13
13
13
13
15
16
17
18
19
18
18
20
22
23
21
20
20
19
19
19
19
19
18
17
17
17
16
16
15
15
15
14
13
13
12
10
8
7
5
4
2
4
6
8
9
9
10
11
12
12
13
12
9
7
5
4
4
2
0
-1
-3
-4
-4
-3
-3
-5
-6
-7
-8
-9
-11
-12
-13
-15
-17
-18
-19
-21
-24
-25
-24
-24
-24
-25
-26
-27
-28
-27
-27
-26
-25
-24
-23
-21
-20
-20
-19
-19
-18
-18
-17
-15
-13
-13
-14
-14
-13
-11
-9
-3
6
21
36
47
56
63
68
68
70
73
82
93
109
122
133
141
144
149
149
152
148
144
132
112
84
49
20
0
-13
-19
-23
-24
-26
-28
-29
-31
-32
-34
-35
-37
-40
-41
-42
-42
-43
-43
-42
-41
-40
-42
-42
-41
-39
-40
-40
-40
-39
-38
-38
-37
-36
-35
-35
-36
-35
-35
-35
-36
-34
-33
-31
-30
-30
-29
-28
-28
-28
-27
-27
-27
-27
-26
-26
-28
-28
-29
-28
-28
-28
-28
-29
-30
-31
-31
-31
-30
-32
-35
-38
-39
-39
-41
-41
-43
-43
-45
-45
-44
-45
-45
-46
-45
-46
-47
-48
-47
-46
-44
-43
-42
-40
-38
-35
-34
-33
-30
-29
-28
-27
-26
-24
-22
-18
-15
-13
-12
-11
-10
-7
-6
-4
-2
0
1
1
1
1
2
3
2
2
2
3
3
3
4
4
3
3
2
1
0
0
0
1
1
1
0
0
-1
-1
-1
0
0
0
0
0
-1
-3
-3
-2
0
0
-1
0
0
-1
-2
-2
-2
-3
-4
-5
-5
-5
-6
-6
-6
-5
-6
-6
-6
-6
-7
-7
-7
-6
-5
-6
-8
-9
-8
-9
-10
-10
-9
-10
-11
-12
-12
-13
-12
-11
-9
-7
-7
-7
-6
-7
-7
-7
-7
-7
-8
-8
-6
-5
-4
-3
-3
-2
-3
-3
-2
-1
0
0
0
-1
-2
-3
-4
-4
-4
-5
-5
-6
-5
-6
-6
-5
-4
-4
-4
-4
-4
-3
-4
-5
-5
-5
-6
-8
-7
-6
-5
-5
-5
-5
-5
-5
-5
-4
-4
-4
-5
-5
-6
-6
-7
-7
-6
-5
-5
-6
-6
-5
-6
-7
-6
-6
-7
-8
-9
-9
-10
-10
-10
-11
-12
-14
-17
-19
-19
-20
-19
-18
-18
-18
-20
-20
-20
-20
-20
-19
-18
-18
-19
-21
-21
-20
-20
-19
-19
-16
-15
-15
-14
-13
-12
-10
-6
-2
1
7
17
35
56
73
86
94
99
100
101
105
115
130
143
156
162
169
170
169
168
165
161
151
142
123
98
65
32
10
-5
-13
-18
-19
-19
-21
-22
-24
-25
-26
-29
-30
-30
-29
-29
-30
-31
-31
-31
-33
-33
-33
-31
-29
-28
-28
-27
-28
-29
-28
-26
-25
-26
-27
-27
-26
-26
-26
-25
-24
-23
-22
-22
-21
-20
-20
-20
-19
-17
-16
-15
-15
-13
-13
-13
-14
-15
-15
-16
-16
-16
-16
-17
-18
-20
-22
-23
-26
-29
-31
-33
-35
-37
-38
-39
-40
-43
-43
-44
-44
-46
-47
-47
-47
-46
-45
-43
-42
-41
-41
-39
-36
-34
-31
-30
-27
-25
-23
-22
-21
-18
-16
-16
-15
-13
-12
-10
-8
-6
-4
-2
-2
0
1
3
3
5
6
8
9
9
11
11
11
11
11
10
9
7
6
6
7
7
9
10
11
10
10
9
9
8
8
8
8
7
7
7
7
7
7
5
5
5
5
4
4
5
5
4
3
2
3
4
5
6
7
7
8
11
13
13
13
14
15
16
16
17
18
21
21
23
24
24
23
22
22
22
23
23
22
21
22
22
23
24
24
23
23
23
23
23
23
23
23
23
22
19
18
19
18
19
19
20
20
20
20
21
21
20
20
20
21
20
19
19
18
18
16
16
15
15
15
16
18
19
19
20
21
22
22
21
21
21
21
20
19
20
20
19
18
17
16
15
14
13
12
11
9
8
8
8
6
6
6
6
6
5
5
5
5
3
2
2
3
4
4
5
5
5
6
7
8
7
5
4
3
2
1
0
-1
-1
-2
-3
-4
-5
-6
-7
-7
-8
-7
-8
-8
-6
-5
-5
-5
-4
-4
-4
-4
-3
-2
-1
-1
-2
-1
0
2
8
17
33
52
70
85
97
105
109
110
115
122
135
149
162
173
179
184
185
187
185
182
178
170
155
131
100
68
43
28
17
11
7
6
4
2
2
0
-1
-2
-3
-5
-7
-8
-9
-9
-10
-11
-10
-8
-6
-4
-3
-3
-2
-2
-2
0
0
0
0
0
1
1
0
0
0
0
0
-1
-1
-1
-1
-2
-2
-2
-2
-3
-5
-5
-6
-7
-8
-9
-10
-11
-13
-14
-15
-17
-19
-19
-21
-23
-26
-28
-30
-31
-32
-32
-32
-34
-35
-35
-34
-33
-33
-34
-33
-32
-31
-30
-29
-28
-27
-27
-26
-24
-23
-23
-22
-19
-14
-10
-3
5
15
26
41
59
80
96
108
119
127
137
144
156
168
184
194
197
201
198
198
187
172
144
109
72
40
21
9
2
0
-1
-3
-5
-6
-7
-7
-7
-7
-7
-7
-8
-8
-9
-9
-9
-10
-11
-11
-11
-11
-11
-12
-12
-13
-14
-14
-12
-13
-13
-13
-13
-14
-16
-19
-20
-21
-22
-24
-23
-23
-23
-24
-24
-25
-25
-25
-25
-24
-25
-25
-26
-26
-26
-25
-24
-22
-21
-22
-22
-21
-20
-18
-17
-13
-9
-6
-4
-2
0
0
1
3
5
7
8
9
10
12
13
14
15
17
19
19
21
22
23
24
24
26
27
28
27
27
27
26
25
25
25
25
24
24
24
24
23
22
22
22
21
19
19
18
17
14
14
15
17
18
19
21
21
22
21
20
20
18
17
16
15
13
11
11
11
11
11
11
11
12
12
13
13
12
11
11
10
8
6
3
1
0
0
-2
-3
-3
-5
-6
-7
-7
-7
-8
-9
-10
-12
-13
-14
-14
-13
-14
-14
-13
-12
-12
-11
-10
-8
-7
-6
-5
-2
0
1
2
3
4
3
2
1
0
-1
-2
-2
-1
-1
-3
-6
-8
-9
-10
-10
-10
-10
-10
-8
-7
-5
-5
-6
-5
-3
-2
-3
-2
-2
-1
0
0
2
2
2
1
2
4
5
5
6
7
7
9
11
12
14
15
16
16
16
15
13
13
13
12
12
13
14
14
13
12
11
10
10
11
11
11
9
9
9
10
10
10
11
11
12
12
13
13
14
13
12
13
13
13
12
11
11
11
11
11
11
11
11
11
11
11
9
8
6
5
4
3
2
1
1
1
3
5
6
6
7
11
20
35
52
67
77
84
86
88
88
92
101
113
130
140
149
153
158
160
159
157
151
146
132
114
87
58
33
16
7
2
0
-2
-4
-6
-9
-11
-14
-15
-15
-16
-17
-18
-18
-21
-23
-23
-24
-23
-24
-25
-26
-26
-27
-27
-27
-27
-27
-28
-27
-27
-25
-24
-22
-20
-20
-20
-19
-17
-15
-13
-10
-9
-7
-7
-8
-9
-8
-8
-9
-10
-9
-8
-9
-10
-10
-11
-13
-15
-16
-18
-18
-21
-22
-23
-24
-27
-29
-29
-30
-31
-32
-33
-34
-36
-38
-40
-39
-40
-40
-41
-40
-40
-41
-40
-40
-38
-38
-37
-36
-35
-34
-34
-33
-31
-28
-26
-25
-24
-23
-23
-23
-21
-18
-15
-14
-12
-9
-7
-6
-4
-2
0
1
3
5
7
9
10
12
14
15
15
15
15
16
16
16
17
18
19
19
19
20
19
17
16
15
14
13
12
10
9
8
7
7
6
4
2
1
0
0
0
0
0
0
0
-1
-2
-2
-3
-3
-2
-1
-1
-2
-1
0
0
0
2
2
2
1
0
0
0
0
0
0
1
0
0
-1
-2
-2
-2
-2
-1
0
0
0
-1
-2
-2
-2
-2
-1
-1
-1
-2
-2
-2
-2
-2
-1
0
0
0
-1
-1
-1
-1
-1
0
0
-2
-2
-2
-2
-2
-2
-1
-1
-1
-1
-1
-1
-2
-3
-3
-3
-2
-4
-6
-8
-8
-9
-8
-7
-6
-4
-3
-1
0
1
1
1
1
3
3
2
3
2
1
0
1
1
0
-2
-2
-1
0
0
-2
-3
-4
-6
-9
-11
-12
-12
-12
-12
-10
-10
-11
-12
-12
-13
-14
-15
-15
-15
-15
-16
-16
-17
-18
-19
-19
-19
-19
-17
-18
-17
-18
-17
-18
-17
-16
-15
-16
-17
-17
-17
-17
-17
-16
-13
-11
-10
-8
-6
-3
2
14
30
46
59
68
76
81
84
87
93
104
117
133
145
156
162
166
167
167
167
162
155
140
118
87
55
27
8
-2
-10
-16
-20
-22
-24
-26
-28
-29
-30
-30
-30
-29
-30
-32
-32
-33
-32
-33
-34
-34
-34
-35
-37
-36
-36
-35
-36
-37
-39
-39
-38
-39
-37
-37
-35
-34
-33
-31
-30
-28
-27
-25
-23
-21
-21
-21
-20
-19
-18
-17
-16
-15
-14
-14
-13
-12
-13
-15
-16
-16
-17
-19
-21
-23
-24
-27
-29
-31
-31
-31
-34
-35
-37
-38
-41
-42
-42
-42
-41
-42
-42
-44
-43
-43
-43
-43
-43
-43
-43
-41
-41
-40
-39
-37
-34
-32
-30
-27
-23
-20
-18
-17
-14
-11
-8
-5
-3
-1
1
3
4
6
8
9
10
13
15
17
18
19
21
21
21
19
20
22
24
25
25
26
24
23
23
24
26
26
25
25
25
24
23
23
24
24
22
22
21
20
18
17
15
13
11
11
11
10
9
8
8
8
8
8
8
9
8
7
7
8
9
9
9
9
10
10
10
12
15
17
18
20
20
21
20
20
22
23
24
24
25
26
26
24
23
22
22
20
19
20
20
20
18
17
17
16
14
13
13
13
13
13
14
14
13
12
12
12
13
13
15
16
18
18
18
18
19
19
20
21
22
24
24
24
24
24
24
24
24
23
22
21
22
21
20
20
20
20
18
17
16
16
15
14
15
15
15
15
17
18
19
18
17
17
18
18
19
20
22
22
22
22
23
23
21
19
18
17
17
16
15
14
12
10
8
6
6
5
5
4
4
2
0
0
-1
-1
-2
-1
0
1
2
3
3
3
3
4
5
7
7
7
8
9
9
9
9
10
11
12
13
15
19
22
28
39
58
76
91
100
109
113
115
118
124
138
150
165
174
183
186
187
189
187
186
178
169
153
133
105
73
49
33
24
17
13
10
8
6
4
2
0
-1
-2
-2
-4
-4
-5
-6
-6
-6
-6
-6
-6
-5
-5
-4
-3
-3
-4
-4
-3
-3
-3
-2
-1
1
2
2
4
6
7
8
9
11
12
13
15
16
17
16
15
14
14
12
10
10
10
10
9
7
5
3
0
-1
-3
-4
-7
-9
-11
-13
-13
-13
-13
-13
-14
-14
-15
-16
-15
-15
-15
-14
-13
-12
-13
-12
-13
-13
-15
-15
-13
-12
-12
-13
-13
-12
-12
-10
-8
-6
-4
-3
-2
-1
0
1
1
3
5
7
9
11
14
15
15
17
20
22
25
26
30
31
31
31
32
33
33
32
32
32
33
32
31
30
29
27
26
26
26
26
25
24
23
21
21
21
20
18
18
18
18
17
17
16
17
18
19
21
22
22
22
21
21
21
20
19
20
21
21
20
19
19
19
19
19
20
21
21
20
18
17
15
14
14
14
14
13
13
13
14
13
14
14
16
16
17
17
17
15
14
15
15
15
15
14
15
16
16
16
16
16
16
15
15
15
16
17
16
16
16
15
15
15
16
14
13
13
13
13
13
14
16
18
18
19
20
20
21
20
20
21
22
22
21
21
21
20
20
21
21
21
20
20
19
17
16
16
16
16
15
14
14
13
11
10
10
11
11
11
9
9
10
9
9
8
7
6
6
6
4
4
4
4
4
3
4
4
2
0
-1
-1
-1
0
0
0
0
0
0
1
1
1
0
2
4
4
4
6
8
9
8
8
10
12
13
15
19
30
43
59
72
83
90
94
98
100
108
117
134
149
165
176
180
184
181
181
173
168
158
142
117
84
55
32
19
12
7
4
2
0
-1
-2
-4
-5
-6
-7
-8
-9
-9
-9
-9
-10
-11
-10
-10
-9
-9
-8
-7
-7
-6
-4
-2
-2
-2
-3
-3
-2
-2
-1
0
0
1
3
5
7
8
8
10
12
14
13
14
15
15
13
12
12
12
13
12
11
10
9
8
7
7
7
6
5
4
3
1
1
0
-2
-4
-7
-9
-11
-12
-13
-11
-9
-9
-10
-11
-11
-12
-13
-13
-11
-10
-9
-8
-7
-6
-6
-6
-5
-3
-1
0
2
5
8
10
13
16
19
21
25
28
32
34
36
37
38
40
41
43
44
44
44
44
45
46
47
47
47
48
48
49
47
48
46
46
44
43
41
41
40
39
39
37
36
35
35
34
34
34
33
34
35
36
36
37
35
34
34
33
33
32
31
31
30
29
28
30
31
32
32
33
34
34
34
35
37
37
36
33
33
32
31
31
30
31
30
28
27
27
27
27
28
28
29
28
27
26
25
24
23
22
22
22
20
19
19
19
19
19
19
19
19
19
19
21
21
21
21
21
22
23
24
25
26
26
27
29
32
33
34
34
35
35
35
35
34
33
32
31
31
31
29
27
27
27
26
24
22
21
21
20
19
18
18
18
16
15
15
14
13
12
14
15
14
13
14
15
15
16
17
16
15
15
16
16
16
15
17
18
20
22
22
23
21
21
19
19
18
16
13
11
9
7
5
3
2
0
0
-2
-3
-5
-5
-6
-5
-5
-6
-6
-6
-6
-6
-6
-6
-5
-6
-6
-4
0
4
10
19
35
54
70
83
93
102
107
112
115
123
135
149
163
171
180
182
184
184
183
180
171
161
141
116
82
48
23
5
-3
-8
-10
-12
-14
-15
-17
-17
-19
-19
-18
-18
-18
-17
-16
-16
-15
-14
-14
-13
-11
-10
-9
-8
-8
-9
-11
-12
-12
-13
-14
-14
-13
-14
-15
-15
-15
-15
-16
-15
-14
-13
-13
-13
-13
-13
-12
-11
-8
-5
-4
-3
-3
-2
-2
-2
-3
-3
-4
-4
-5
-7
-7
-8
-10
-13
-14
-18
-21
-24
-27
-29
-32
-34
-36
-37
-38
-39
-40
-41
-41
-42
-42
-42
-41
-39
-38
-36
-34
-31
-30
-28
-25
-22
-20
-17
-14
-11
-9
-7
-6
-4
-3
-2
-1
1
2
3
4
5
7
8
8
8
9
9
9
9
9
9
9
10
12
15
16
16
16
17
17
16
17
18
18
18
20
20
20
19
19
18
17
17
15
15
13
11
10
8
8
7
7
5
4
4
3
2
1
1
1
1
2
2
3
3
3
4
5
5
5
5
6
7
7
7
8
7
5
5
5
5
5
4
4
4
4
2
1
1
1
1
1
1
1
1
0
0
1
1
0
0
1
1
1
1
1
2
1
0
1
3
5
5
5
4
4
4
4
3
4
4
2
1
0
0
0
-1
-1
-1
-2
-3
-2
-1
-2
-4
-5
-3
-2
-1
-1
-1
-2
-3
-3
-1
0
2
1
0
1
2
2
3
3
2
1
1
1
4
4
4
2
2
2
3
3
2
2
1
1
0
0
-2
-3
-4
-4
-3
-4
-6
-6
-7
-8
-10
-13
-15
-16
-17
-18
-19
-20
-20
-20
-20
-19
-18
-18
-17
-16
-16
-16
-16
-15
-14
-15
-15
-14
-12
-13
-14
-13
-11
-10
-9
-8
-6
-5
-2
2
12
28
44
58
68
77
82
85
86
91
100
112
126
139
150
158
163
167
168
169
165
160
152
140
118
88
54
26
8
-2
-8
-10
-13
-14
-17
-18
-20
-21
-22
-22
-21
-22
-23
-23
-25
-25
-26
-26
-26
-26
-27
-28
-27
-28
-28
-29
-28
-28
-29
-30
-31
-28
-27
-25
-25
-25
-25
-25
-24
-23
-21
-19
-17
-16
-14
-13
-14
-13
-12
-10
-10
-9
-9
-9
-11
-11
-11
-12
-13
-13
-14
-14
-16
-17
-20
-23
-26
-28
-30
-32
-34
-35
-37
-39
-39
-39
-39
-40
-42
-42
-43
-43
-43
-41
-41
-40
-40
-40
-38
-39
-37
-35
-33
-32
-30
-28
-26
-23
-23
-21
-19
-16
-14
-12
-9
-6
-4
-4
-2
-1
0
1
2
3
6
8
10
11
13
15
16
16
15
16
15
15
15
16
16
16
16
15
14
13
13
13
14
15
14
15
15
15
14
12
11
11
11
11
11
10
10
9
8
7
5
3
3
4
4
3
3
3
4
3
3
3
4
5
5
7
8
8
7
8
8
8
8
9
10
11
11
11
10
10
9
8
8
7
6
7
7
9
9
9
8
7
6
6
5
4
4
3
3
2
3
3
3
3
4
4
4
4
5
5
5
5
5
5
6
8
9
10
11
11
11
10
10
9
9
10
11
11
11
11
11
11
10
10
9
9
7
6
5
4
4
3
3
4
4
4
3
3
1
1
3
4
6
6
5
4
3
3
2
3
3
4
5
5
6
6
5
4
4
4
2
1
0
0
0
-1
-2
-2
-4
-6
-6
-6
-7
-9
-9
-10
-10
-10
-9
-8
-8
-8
-9
-7
-6
-5
-5
-4
-2
0
0
1
2
2
1
1
2
2
2
4
6
9
15
24
41
59
76
89
97
103
104
107
112
125
139
152
164
171
177
177
179
176
172
166
155
141
119
92
61
37
20
10
2
-2
-4
-5
-7
-9
-10
-12
-13
-15
-15
-16
-16
-16
-17
-17
-17
-18
-18
-19
-19
-19
-19
-18
-18
-17
-16
-14
-11
-10
-9
-9
-7
-6
-4
-2
0
0
0
-1
-1
-1
-1
-1
0
0
1
0
-1
-2
-3
-4
-4
-4
-5
-6
-8
-10
-11
-13
-14
-15
-17
-20
-21
-22
-22
-22
-23
-24
-26
-27
-28
-29
-29
-30
-31
-32
-31
-31
-30
-30
-30
-30
-31
-30
-30
-29
-28
-27
-25
-24
-23
-23
-22
-20
-17
-15
-12
-10
-8
-8
-7
-5
-2
0
2
6
9
13
14
15
17
19
20
21
22
23
24
24
25
25
24
23
23
22
22
23
24
24
23
23
21
20
20
19
18
16
15
14
13
12
12
12
13
13
14
14
14
13
12
10
8
9
10
12
13
14
13
14
13
12
12
13
13
12
11
11
11
9
9
9
10
8
6
5
4
5
6
8
9
9
8
7
7
7
7
5
3
3
2
4
5
5
5
4
4
5
6
7
7
7
6
6
7
8
10
11
11
10
9
8
9
10
10
9
8
7
7
7
6
5
5
6
5
4
4
3
2
1
1
2
2
1
0
0
-1
-1
0
1
1
1
2
2
2
2
1
1
2
1
0
0
0
0
0
0
1
2
2
3
3
3
2
0
-1
-1
-2
-3
-5
-6
-7
-9
-11
-12
-12
-14
-15
-16
-16
-17
-19
-20
-21
-21
-22
-23
-23
-24
-24
-24
-23
-22
-22
-23
-23
-22
-21
-19
-17
-16
-15
-15
-15
-14
-14
-14
-13
-11
-8
-5
-1
8
23
40
55
64
72
76
80
80
86
94
108
122
133
144
149
155
153
157
154
150
142
128
109
79
50
23
5
-5
-12
-16
-18
-20
-23
-26
-28
-29
-30
-31
-32
-32
-33
-33
-35
-35
-35
-36
-36
-36
-35
-35
-34
-34
-33
-33
-33
-32
-32
-31
-31
-31
-30
-29
-30
-31
-31
-31
-31
-31
-30
-29
-27
-26
-24
-22
-20
-18
-18
-17
-17
-16
-15
-15
-13
-12
-13
-15
-15
-14
-14
-15
-16
-17
-18
-19
-20
-21
-23
-25
-27
-29
-30
-33
-36
-38
-41
-42
-44
-45
-46
-47
-48
-48
-47
-45
-44
-44
-42
-43
-42
-41
-40
-37
-36
-33
-30
-25
-21
-18
-14
-11
-8
-6
-4
-3
-1
0
2
5
7
9
11
12
14
15
16
17
18
19
19
20
21
23
23
22
23
23
23
22
22
23
23
22
20
19
19
18
18
18
18
17
16
16
16
14
14
13
14
14
13
12
11
11
9
9
8
8
6
5
6
5
6
7
8
9
8
8
8
9
9
9
8
9
10
11
12
12
12
13
12
11
12
14
15
16
17
19
19
18
18
19
20
20
19
19
19
18
17
16
14
13
12
12
11
10
8
7
6
5
4
2
2
2
3
3
3
4
5
5
5
5
4
2
1
2
3
4
4
4
4
5
6
6
7
10
11
13
14
15
15
14
13
12
12
11
10
10
10
9
8
8
7
7
7
6
6
6
6
5
4
3
2
1
0
0
0
-1
-3
-2
0
0
0
0
0
0
0
0
0
-1
-2
-4
-6
-7
-9
-10
-11
-12
-12
-13
-13
-13
-12
-12
-13
-13
-12
-12
-12
-11
-11
-11
-12
-12
-11
-10
-9
-8
-7
-6
-5
-6
-6
-5
-2
0
3
9
17
31
48
68
82
94
101
105
108
110
118
126
141
152
163
169
171
175
174
176
171
168
158
146
128
102
74
43
19
3
-6
-11
-14
-17
-19
-20
-22
-24
-26
-26
-25
-25
-25
-24
-24
-24
-25
-24
-24
-24
-23
-23
-22
-23
-23
-23
-23
-23
-24
-24
-24
-23
-24
-22
-20
-17
-16
-15
-15
-15
-15
-16
-16
-15
-13
-13
-13
-12
-12
-12
-12
-12
-12
-12
-13
-14
-14
-14
-14
-14
-14
-15
-17
-20
-24
-26
-28
-29
-32
-34
-36
-39
-41
-42
-43
-44
-46
-47
-47
-48
-48
-48
-48
-49
-50
-50
-47
-45
-41
-40
-38
-38
-37
-35
-33
-29
-27
-25
-22
-20
-18
-18
-19
-17
-15
-14
-12
-11
-8
-6
-5
-4
-2
-1
0
0
1
4
4
3
2
2
3
5
5
6
6
6
7
8
9
10
11
11
14
15
14
12
12
13
12
12
11
10
9
8
8
8
7
5
4
3
2
2
2
3
3
2
0
-1
0
0
0
-2
-3
-3
-3
-2
0
1
1
0
0
2
4
4
3
3
3
3
3
3
3
2
2
2
1
1
0
0
0
1
1
0
0
0
-1
-2
-3
-3
-2
-1
-1
-1
-1
-1
-2
-2
-1
-1
-1
-1
0
1
1
2
3
4
5
5
5
5
6
7
7
7
6
5
5
5
4
2
1
1
0
-1
-2
-3
-3
-4
-5
-4
-4
-4
-5
-6
-7
-8
-8
-8
-7
-7
-6
-5
-5
-3
-3
-2
-2
0
1
2
2
3
4
5
6
7
7
7
5
4
3
2
1
0
0
-1
-3
-5
-6
-6
-7
-7
-9
-11
-13
-14
-15
-15
-15
-16
-16
-16
-16
-16
-16
-14
-13
-12
-11
-9
-8
-7
-6
-5
-4
-4
-4
-4
-3
-2
-1
0
3
10
23
39
56
70
79
87
89
92
94
101
112
127
142
151
162
166
172
172
171
168
161
153
131
104
71
42
22
10
4
-1
-5
-7
-8
-9
-11
-11
-13
-14
-16
-17
-17
-18
-19
-20
-20
-20
-19
-19
-20
-19
-17
-16
-17
-17
-16
-15
-14
-13
-11
-10
-9
-8
-7
-6
-5
-5
-4
-3
-3
-3
-2
0
0
0
0
0
0
-2
-2
-2
-2
-2
-2
-2
-3
-3
-4
-4
-5
-5
-6
-6
-7
-9
-10
-11
-11
-12
-14
-14
-16
-17
-19
-19
-19
-19
-19
-20
-20
-20
-20
-20
-20
-19
-19
-19
-18
-17
-17
-16
-16
-14
-13
-12
-11
-10
-8
-7
-5
-2
0
2
5
9
14
17
19
20
23
26
27
29
31
32
33
33
35
36
36
35
36
35
34
34
34
35
34
34
33
33
33
32
32
30
30
29
29
28
28
27
26
26
27
28
27
26
27
27
26
24
24
22
22
20
21
20
20
19
17
17
17
17
17
18
17
16
16
16
16
17
16
16
16
16
15
16
17
18
18
18
18
18
17
17
18
18
18
17
18
18
19
19
18
19
19
18
18
18
19
19
19
18
18
17
16
16
16
15
14
14
15
16
17
18
19
18
18
19
20
20
21
21
21
21
20
19
18
18
17
17
17
17
17
16
15
16
16
15
14
13
13
13
11
12
12
13
12
12
11
11
10
10
10
11
10
10
9
9
9
7
7
7
8
8
8
10
11
11
11
11
11
12
12
12
10
9
8
7
6
6
7
8
10
11
11
10
10
9
8
7
6
6
6
6
5
5
4
2
0
-1
-2
-2
-3
-3
-2
0
1
3
6
9
14
25
42
61
78
89
99
104
107
107
112
121
133
146
156
165
171
176
178
179
178
174
167
155
137
111
82
55
35
21
13
8
5
4
3
1
0
0
-1
-3
-5
-7
-9
-10
-12
-11
-12
-12
-13
-13
-14
-16
-17
-17
-15
-14
-14
-14
-14
-14
-15
-15
-13
-11
-9
-8
-7
-5
-5
-4
-3
-1
0
1
3
5
5
5
5
5
5
4
4
4
4
5
5
4
3
1
0
-1
-2
-3
-4
-6
-8
-9
-11
-14
-16
-17
-17
-19
-18
-18
-18
-20
-22
-22
-22
-22
-23
-24
-25
-25
-23
-22
-21
-20
-18
-16
-13
-12
-10
-9
-8
-7
-7
-5
-2
0
2
4
5
7
9
11
14
17
20
21
23
25
27
28
29
29
31
32
32
31
31
31
32
32
34
35
35
33
32
31
30
29
29
29
28
27
26
26
26
24
24
23
24
24
24
24
25
26
25
25
24
24
23
23
23
23
23
24
24
24
24
23
24
25
25
24
23
23
23
24
23
23
22
20
18
17
17
16
16
15
14
12
11
10
11
12
14
14
12
12
12
13
13
13
12
12
12
13
14
15
16
17
18
18
18
18
18
18
19
19
20
19
19
19
19
19
18
18
18
20
20
19
18
17
18
16
15
14
15
13
12
12
12
12
11
11
11
10
10
9
10
12
13
14
16
16
15
13
13
13
14
13
13
13
14
12
11
12
12
12
12
11
11
11
10
10
9
8
6
4
4
4
3
2
1
0
0
-1
-2
-2
-4
-5
-5
-4
-4
-5
-5
-6
-6
-8
-8
-8
-8
-9
-8
-8
-8
-8
-9
-9
-9
-8
-7
-7
-7
-7
-7
-7
-7
-5
-4
-1
4
15
30
46
61
74
82
89
90
93
97
106
118
132
145
154
162
165
168
168
166
162
154
145
127
102
72
45
24
11
3
-1
-4
-7
-11
-13
-15
-16
-18
-20
-21
-22
-22
-23
-23
-24
-25
-24
-24
-23
-24
-25
-24
-23
-22
-22
-22
-22
-22
-23
-21
-21
-20
-20
-20
-19
-17
-16
-16
-15
-15
-14
-14
-14
-12
-11
-10
-9
-8
-7
-7
-6
-6
-5
-5
-6
-8
-10
-10
-11
-12
-14
-14
-16
-17
-19
-20
-22
-25
-27
-28
-28
-29
-31
-33
-34
-34
-35
-35
-35
-36
-38
-40
-40
-41
-41
-41
-39
-38
-35
-34
-33
-31
-30
-28
-27
-24
-21
-19
-17
-15
-13
-12
-10
-8
-6
-4
-1
0
4
7
8
8
8
10
11
12
13
15
16
16
15
16
17
16
15
14
14
14
13
13
14
15
15
16
15
16
16
16
16
15
14
13
13
12
13
12
13
13
13
13
12
13
13
13
13
13
13
11
9
8
8
8
7
8
7
7
6
5
6
8
9
9
9
10
10
9
9
9
10
9
8
8
9
9
8
9
10
11
9
8
8
8
8
8
9
10
10
9
8
7
6
5
4
4
5
5
5
4
4
4
3
4
5
5
4
3
3
2
2
3
5
6
6
6
6
6
6
5
5
6
7
8
8
9
9
8
8
7
9
7
5
2
2
2
2
1
1
1
1
0
1
2
3
4
4
4
5
6
6
5
5
6
6
6
7
7
6
4
4
3
2
1
1
1
1
1
0
-1
-2
-4
-6
-8
-9
-10
-12
-14
-15
-16
-17
-17
-16
-14
-13
-13
-13
-12
-12
-11
-11
-9
-8
-8
-7
-5
-3
-2
-1
0
0
1
1
2
3
4
4
7
11
16
23
36
53
69
79
86
91
93
96
97
103
114
129
141
148
155
158
163
163
166
164
161
155
143
127
102
74
44
23
9
1
-3
-6
-7
-9
-10
-11
-11
-13
-14
-14
-14
-14
-14
-14
-13
-12
-13
-14
-16
-16
-16
-17
-18
-17
-18
-19
-19
-20
-19
-19
-18
-16
-12
-10
-10
-9
-8
-6
-6
-4
-3
-1
0
0
0
0
0
0
0
0
0
0
0
0
0
-1
-2
-2
-3
-3
-5
-7
-9
-10
-11
-13
-15
-17
-20
-22
-24
-25
-26
-29
-31
-33
-34
-37
-36
-35
-33
-32
-31
-29
-28
-26
-26
-24
-23
-21
-19
-18
-16
-14
-13
-11
-8
-6
-3
-2
-1
0
1
2
3
4
6
8
8
9
11
12
13
16
19
20
19
18
18
18
18
18
19
20
19
19
19
19
19
19
19
19
19
18
18
18
18
17
16
16
16
15
14
13
12
11
11
11
12
12
10
9
9
9
9
9
9
11
11
11
11
11
11
12
13
14
14
13
12
11
11
11
9
9
9
9
8
8
9
9
8
7
7
8
7
7
7
6
5
4
3
3
2
1
1
2
3
3
4
4
4
3
4
4
5
5
4
4
5
5
4
5
5
6
5
5
5
5
6
6
6
7
6
6
6
7
8
8
6
4
2
1
1
1
1
1
1
1
1
-1
-2
-1
-1
-1
0
1
1
1
0
0
1
2
2
2
3
3
2
1
2
4
4
3
2
2
2
1
2
2
2
0
-2
-3
-4
-5
-6
-7
-6
-7
-8
-9
-9
-9
-10
-11
-10
-10
-11
-11
-12
-12
-12
-13
-12
-12
-11
-11
-11
-10
-10
-9
-8
-7
-7
-6
-5
-4
-2
-1
-1
1
5
11
22
38
56
69
79
83
89
92
97
103
113
126
136
148
154
163
165
168
168
166
163
153
142
119
92
59
30
12
1
-5
-9
-12
-13
-15
-17
-18
-19
-19
-20
-20
-21
-21
-23
-23
-23
-23
-22
-21
-19
-19
-19
-19
-18
-16
-15
-13
-11
-9
-8
-6
-4
-1
1
2
3
4
5
5
4
4
3
2
1
0
0
0
-1
-1
-2
-2
-3
-4
-5
-5
-6
-7
-6
-6
-7
-8
-9
-9
-9
-9
-10
-10
-11
-11
-11
-11
-10
-9
-9
-9
-10
-11
-12
-12
-14
-14
-16
-16
-16
-17
-19
-20
-20
-20
-19
-18
-17
-16
-15
-14
-12
-9
-8
-6
-4
-1
1
4
6
8
12
14
17
21
25
27
29
31
34
36
37
39
39
40
39
39
40
41
41
39
39
39
38
37
37
37
35
34
33
34
33
32
31
32
32
32
31
30
30
29
30
31
32
34
34
33
32
31
30
29
29
31
31
30
29
29
29
28
27
28
27
26
25
26
26
25
25
25
25
23
22
20
20
19
18
17
18
19
19
18
18
20
20
21
22
23
23
22
22
22
23
23
23
23
22
21
21
20
21
21
21
20
20
20
21
20
20
19
18
17
17
17
16
15
16
18
19
18
19
20
21
20
20
20
20
19
19
20
20
20
19
19
19
19
18
17
17
18
18
17
16
16
14
14
14
15
15
15
15
14
13
12
12
13
14
14
14
14
14
15
15
15
15
16
16
16
17
18
18
16
15
14
13
12
11
11
10
9
7
4
3
2
1
1
0
-1
-3
-3
-2
-2
-2
-3
-3
-3
-3
-4
-3
-2
-1
-1
0
0
1
2
5
7
12
17
26
40
58
75
88
98
105
109
109
110
117
127
142
151
161
167
171
173
172
171
165
160
147
132
107
78
49
25
11
1
-5
-8
-9
-10
-12
-14
-15
-15
-15
-16
-16
-15
-15
-16
-17
-16
-16
-16
-16
-15
-15
-15
-15
-13
-12
-12
-11
-11
-11
-11
-12
-13
-14
-14
-15
-14
-13
-12
-12
-12
-10
-9
-7
-7
-6
-5
-4
-3
-2
-1
0
0
-1
0
0
1
0
0
-1
-2
-3
-4
-5
-7
-9
-11
-13
-14
-17
-18
-21
-22
-24
-26
-27
-29
-30
-33
-33
-33
-33
-34
-34
-33
-33
-32
-32
-31
-30
-30
-28
-26
-24
-23
-22
-21
-18
-16
-14
-13
-12
-10
-8
-6
-4
0
3
5
7
10
12
13
14
15
16
17
17
17
18
18
18
18
19
20
20
20
21
23
23
23
23
24
25
24
23
23
23
22
21
21
21
20
19
17
17
17
18
16
15
14
13
13
14
14
14
14
12
11
9
8
6
6
5
3
2
1
1
0
0
0
2
3
3
3
4
4
3
2
1
2
2
2
2
2
2
2
1
2
3
3
3
3
3
3
2
2
3
5
6
5
4
4
3
2
1
2
2
0
0
0
2
3
3
3
3
3
2
1
1
1
2
3
3
2
1
0
0
-1
-1
-2
-1
0
0
0
0
1
2
2
1
1
1
2
4
4
4
3
3
2
2
2
1
0
1
2
2
1
0
0
0
0
0
0
1
0
0
-2
-3
-3
-4
-5
-6
-7
-6
-6
-6
-6
-7
-9
-10
-11
-11
-12
-12
-12
-12
-13
-13
-14
-14
-16
-17
-16
-14
-13
-11
-9
-8
-7
-7
-7
-6
-7
-8
-8
-7
-6
-6
-7
-7
-7
-6
-5
-2
0
5
13
26
41
57
67
75
80
84
89
94
105
117
133
143
152
158
162
165
163
162
156
150
137
117
88
56
29
11
0
-6
-11
-14
-15
-15
-15
-17
-19
-20
-20
-20
-20
-20
-21
-20
-20
-20
-19
-19
-20
-22
-22
-23
-23
-24
-24
-24
-24
-25
-24
-22
-20
-18
-17
-14
-12
-12
-12
-11
-9
-8
-7
-7
-6
-5
-5
-4
-3
-1
-1
-2
-3
-3
-2
-2
-2
-1
-1
-2
-4
-6
-7
-9
-11
-13
-14
-16
-18
-20
-21
-22
-23
-24
-24
-25
-25
-26
-27
-28
-30
-31
-32
-32
-33
-33
-33
-33
-33
-32
-30
-30
-29
-29
-28
-28
-26
-25
-24
-23
-22
-19
-17
-14
-10
-6
-4
-2
0
5
8
9
11
14
17
19
21
23
25
26
26
27
28
30
30
29
30
30
28
25
23
22
22
21
21
20
19
17
16
15
14
13
12
10
8
7
7
7
7
8
7
7
7
9
8
9
9
10
10
10
9
9
10
10
10
11
11
10
9
10
10
8
7
6
5
4
2
0
0
0
0
-2
-3
-3
-4
-5
-4
-4
-3
-3
-3
-3
-3
-3
-1
0
2
3
3
3
4
5
4
4
3
3
2
2
2
2
1
0
-1
-2
-2
-2
-2
-2
-3
-5
-5
-5
-6
-7
-8
-8
-9
-10
-10
-9
-8
-8
-8
-6
-5
-5
-4
-2
-2
-2
-1
-1
0
0
0
-1
-1
-2
-2
-2
-3
-3
-4
-5
-6
-7
-6
-6
-7
-8
-9
-10
-11
-10
-10
-9
-9
-9
-9
-10
-9
-9
-8
-7
-7
-7
-6
-6
-7
-8
-8
-8
-10
-11
-12
-13
-14
-16
-18
-19
-20
-22
-23
-23
-23
-24
-24
-23
-24
-24
-25
-26
-27
-27
-28
-29
-27
-26
-24
-23
-21
-20
-19
-17
-13
-8
-3
5
19
38
56
70
78
86
87
89
93
103
116
127
138
143
152
154
157
155
153
148
138
127
106
79
46
17
-2
-14
-22
-26
-28
-29
-30
-29
-28
-27
-27
-28
-28
-29
-28
-28
-28
-29
-29
-28
-28
-27
-26
-25
-26
-27
-28
-29
-30
-30
-28
-28
-28
-28
-28
-27
-27
-25
-24
-22
-22
-21
-20
-19
-18
-17
-15
-14
-14
-13
-12
-11
-11
-11
-12
-11
-11
-11
-13
-12
-12
-12
-12
-12
-13
-15
-17
-19
-21
-22
-24
-26
-28
-29
-30
-32
-33
-34
-34
-37
-39
-41
-41
-41
-41
-40
-39
-38
-38
-35
-33
-32
-30
-27
-24
-22
-20
-18
-15
-13
-12
-10
-8
-6
-4
-3
0
2
3
6
8
10
12
13
14
16
18
17
17
17
19
19
19
18
20
22
22
22
21
22
22
22
24
26
27
27
27
27
26
25
26
28
29
30
29
28
27
26
26
26
26
26
25
25
24
22
20
19
18
18
17
17
17
17
16
16
16
16
15
14
16
17
18
17
18
19
20
21
21
21
21
20
20
20
22
22
21
20
19
19
17
17
17
18
16
15
15
16
16
15
15
15
15
14
14
12
12
11
11
12
11
12
12
14
15
15
14
15
15
16
16
17
18
19
18
18
18
19
19
19
18
17
16
15
15
16
17
17
16
15
14
11
10
11
11
9
9
8
9
9
9
9
9
8
9
9
9
11
12
13
12
12
11
11
13
15
15
14
14
14
13
12
12
13
11
9
8
7
6
4
3
3
1
0
-3
-6
-8
-10
-11
-10
-10
-11
-12
-13
-11
-8
-6
-6
-4
-3
-3
-3
-3
-1
1
3
3
2
2
3
5
9
13
20
31
47
63
75
85
89
93
94
99
106
119
137
150
162
167
175
177
178
177
174
172
161
147
120
88
56
31
15
5
-1
-5
-8
-10
-11
-11
-12
-13
-13
-14
-14
-14
-13
-13
-14
-16
-16
-18
-20
-21
-22
-23
-24
-25
-24
-25
-26
-28
-28
-29
-27
-27
-26
-24
-23
-22
-23
-22
-20
-17
-16
-14
-12
-11
-12
-12
-9
-7
-6
-6
-5
-4
-5
-5
-6
-6
-6
-6
-5
-5
-6
-8
-11
-12
-13
-15
-16
-17
-19
-20
-23
-24
-26
-27
-29
-30
-30
-31
-31
-34
-34
-34
-34
-34
-35
-34
-35
-35
-36
-34
-32
-31
-30
-28
-26
-25
-23
-22
-20
-19
-18
-17
-14
-11
-8
-6
-3
0
2
4
5
7
8
9
11
14
18
20
21
22
22
23
23
24
24
25
24
23
23
23
21
20
20
19
19
17
17
16
15
14
12
12
10
8
6
6
7
7
8
8
9
8
9
9
10
11
11
13
14
15
15
15
14
14
14
14
14
13
12
11
11
10
9
8
7
7
6
5
4
4
3
1
0
0
0
-1
-2
-2
-1
0
-1
0
1
2
3
4
5
6
6
6
7
8
9
9
9
9
8
8
6
5
5
5
5
6
6
4
4
4
4
4
3
3
2
2
0
0
0
1
1
2
3
3
4
5
7
8
9
10
11
11
12
12
13
14
15
14
13
13
11
10
9
9
9
9
7
7
6
5
5
4
5
4
3
2
2
2
1
0
0
-1
-2
-3
-3
-2
-2
-2
-3
-3
-4
-5
-5
-5
-6
-6
-6
-6
-6
-6
-6
-6
-7
-9
-10
-11
-11
-12
-11
-13
-12
-11
-10
-10
-10
-10
-10
-10
-10
-9
-8
-8
-7
-5
-2
0
3
9
22
41
60
77
91
99
102
102
104
112
124
138
150
161
167
171
173
173
175
172
168
159
148
130
104
72
42
20
5
-4
-9
-12
-13
-16
-17
-19
-21
-23
-25
-25
-24
-23
-22
-22
-23
-24
-24
-24
-23
-23
-23
-22
-22
-21
-21
-19
-20
-20
-20
-20
-18
-16
-14
-13
-10
-8
-7
-6
-6
-5
-5
-6
-6
-5
-3
-2
-1
-1
0
0
0
1
3
4
3
3
1
0
0
-1
-2
-2
-3
-4
-5
-6
-8
-10
-12
-14
-16
-19
-22
-23
-25
-27
-29
-30
-32
-34
-35
-36
-36
-36
-35
-35
-35
-34
-33
-32
-30
-27
-25
-22
-19
-16
-14
-13
-10
-8
-4
-2
-1
1
3
4
5
6
7
8
9
10
12
13
14
15
15
15
15
15
15
15
16
15
15
15
17
18
18
19
20
21
22
22
22
22
23
24
26
26
25
24
23
24
23
23
22
22
21
19
18
17
16
13
12
11
11
11
10
10
8
8
6
4
4
4
3
3
2
1
0
0
0
0
0
0
0
1
3
3
3
4
6
7
7
7
8
8
7
7
8
8
7
7
7
8
7
6
6
7
8
6
4
3
2
0
0
0
0
1
1
1
1
1
1
1
3
5
6
6
7
7
6
5
6
7
8
8
7
6
6
5
3
2
3
2
3
3
2
1
0
0
0
0
-1
-2
-2
-1
0
-1
0
1
3
3
2
2
3
4
4
5
6
7
7
7
7
8
7
6
4
2
0
0
0
-1
-2
-4
-5
-6
-7
-9
-12
-12
-13
-15
-16
-17
-19
-20
-21
-20
-19
-18
-17
-16
-15
-14
-13
-12
-11
-11
-10
-8
-6
-6
-5
-5
-4
-2
0
1
2
4
7
12
19
34
51
66
76
82
88
90
93
94
104
117
132
144
153
162
165
169
167
167
161
152
139
116
87
54
30
14
4
-2
-6
-8
-9
-11
-13
-14
-14
-15
-17
-18
-18
-19
-20
-20
-21
-21
-21
-22
-22
-22
-22
-23
-23
-23
-22
-21
-21
-20
-20
-19
-18
-15
-11
-8
-6
-4
-3
-3
-3
-2
0
1
2
2
4
5
7
8
9
9
8
8
8
9
8
8
7
7
6
4
2
0
0
-2
-4
-6
-7
-8
-8
-10
-12
-14
-15
-17
-17
-18
-20
-21
-23
-24
-26
-27
-26
-25
-24
-25
-25
-24
-21
-20
-18
-16
-14
-13
-12
-8
-5
-4
-2
0
1
3
3
5
7
11
14
17
19
19
21
22
26
30
32
34
35
37
37
39
39
40
41
40
41
42
43
42
43
43
44
44
43
42
42
42
40
41
40
40
37
34
32
31
30
28
27
26
25
23
23
23
22
22
21
22
23
23
24
23
23
23
24
25
25
25
25
25
25
25
24
24
25
25
25
24
25
24
24
23
22
22
21
20
19
19
18
19
19
20
20
20
20
20
22
22
24
25
27
27
27
27
27
27
27
27
27
27
27
26
26
26
26
25
25
25
24
22
22
22
21
20
19
18
18
17
17
17
17
16
14
13
13
15
16
17
18
19
19
18
18
19
19
20
20
20
18
16
16
17
15
14
13
15
14
14
14
14
15
15
15
15
15
14
13
12
12
12
11
11
10
9
9
8
7
7
8
8
8
7
5
4
3
3
2
1
-1
-2
-3
-4
-4
-4
-3
-4
-4
-3
-4
-5
-5
-5
-4
-4
-5
-6
-6
-5
-4
-2
1
4
10
19
35
55
72
85
94
103
105
108
110
120
130
143
156
164
172
172
176
175
174
169
161
151
130
104
69
38
14
-2
-11
-16
-19
-21
-22
-24
-25
-26
-27
-27
-26
-25
-25
-25
-24
-24
-23
-24
-23
-22
-21
-20
-20
-19
-19
-19
-19
-19
-19
-19
-19
-19
-18
-18
-18
-18
-17
-17
-17
-16
-16
-16
-15
-15
-14
-14
-14
-13
-12
-12
-13
-13
-13
-13
-14
-14
-14
-14
-14
-15
-17
-19
-20
-22
-23
-25
-27
-31
-34
-34
-36
-37
-38
-38
-39
-39
-40
-41
-41
-43
-43
-44
-44
-45
-44
-42
-42
-40
-41
-40
-40
-40
-39
-37
-34
-31
-28
-26
-24
-22
-20
-19
-16
-12
-10
-7
-5
-2
-1
-1
0
1
2
3
3
5
7
9
10
10
10
9
8
8
8
8
6
5
4
4
4
4
4
4
5
3
3
4
4
4
3
3
3
3
2
1
0
0
-1
-2
-2
-3
-5
-5
-5
-6
-7
-8
-8
-9
-10
-10
-9
-8
-8
-8
-7
-7
-7
-7
-7
-6
-6
-5
-4
-2
-2
-2
-4
-4
-3
-3
-2
-2
-1
-2
-4
-4
-3
-3
-3
-4
-5
-5
-6
-6
-6
-5
-6
-7
-8
-9
-9
-10
-10
-9
-8
-9
-11
-11
-11
-12
-12
-11
-9
-8
-8
-10
-10
-8
-8
-7
-7
-7
-8
-9
-8
-8
-8
-10
-11
-11
-10
-9
-9
-7
-7
-8
-8
-7
-8
-8
-9
-8
-7
-7
-6
-4
-3
-3
-3
-2
-2
-3
-4
-4
-2
0
0
-1
-1
-1
-1
-2
-2
-1
0
-1
-1
-2
-3
-4
-6
-8
-10
-12
-13
-13
-14
-15
-17
-18
-17
-19
-21
-23
-24
-25
-27
-28
-29
-28
-29
-29
-28
-28
-26
-26
-25
-26
-25
-24
-24
-21
-19
-17
-15
-12
-8
-4
1
13
31
48
61
72
80
84
86
89
99
110
126
138
148
156
159
162
161
160
155
148
137
120
95
62
31
11
0
-7
-14
-17
-20
-21
-24
-25
-25
-25
-25
-26
-26
-27
-27
-27
-27
-27
-28
-29
-31
-31
-32
-34
-34
-35
-35
-37
-36
-35
-34
-33
-34
-33
-32
-30
-30
-28
-26
-25
-24
-24
-22
-21
-19
-17
-14
-11
-9
-8
-8
-6
-6
-7
-8
-8
-7
-8
-8
-9
-10
-11
-12
-13
-14
-16
-19
-23
-24
-25
-26
-28
-30
-32
-34
-36
-37
-37
-35
-35
-33
-32
-32
-32
-34
-34
-35
-35
-34
-34
-33
-32
-30
-30
-27
-26
-25
-24
-24
-22
-21
-19
-17
-14
-12
-11
-9
-7
-4
-2
0
1
4
7
9
10
13
14
16
17
20
22
23
24
23
23
23
22
23
24
25
23
22
20
19
17
16
16
16
15
12
10
9
9
9
9
9
8
7
6
7
8
8
9
8
9
8
7
8
10
11
12
12
12
12
11
10
9
9
9
8
7
6
6
5
5
4
4
3
2
2
3
5
5
5
6
7
6
5
6
6
6
5
4
4
4
3
3
3
4
4
5
5
6
7
9
10
10
10
10
10
10
10
10
10
10
10
9
7
6
6
5
3
0
0
0
0
-1
-2
-3
-3
-4
-3
-3
-4
-6
-7
-7
-6
-5
-3
-1
0
1
1
2
4
6
6
7
9
11
13
13
13
14
14
14
14
15
15
14
12
11
9
7
6
5
4
2
0
-2
-3
-4
-5
-7
-9
-10
-12
-15
-17
-17
-16
-15
-16
-15
-15
-15
-15
-16
-15
-14
-13
-13
-12
-12
-11
-10
-9
-8
-8
-9
-9
-8
-8
-7
-6
-5
-4
-5
-5
-7
-6
-6
-5
-4
-2
0
2
7
16
31
48
65
78
91
98
103
104
107
115
128
143
155
164
167
169
170
169
168
162
155
144
128
102
73
45
23
7
-2
-9
-12
-14
-16
-18
-18
-19
-21
-22
-23
-23
-24
-25
-26
-24
-23
-23
-21
-21
-21
-22
-21
-19
-19
-19
-18
-16
-16
-16
-16
-14
-12
-12
-11
-10
-9
-9
-8
-7
-6
-6
-7
-8
-8
-7
-7
-6
-5
-4
-4
-4
-3
-2
-2
-2
-2
-1
-1
-2
-3
-3
-3
-3
-3
-3
-4
-6
-8
-10
-12
-13
-15
-17
-20
-21
-23
-24
-25
-26
-28
-30
-30
-31
-30
-31
-31
-30
-28
-27
-26
-24
-23
-22
-21
-18
-14
-11
-9
-7
-5
-4
-2
0
2
4
6
7
9
11
14
15
16
18
20
21
22
24
25
26
26
26
26
25
25
26
27
26
24
24
24
25
24
25
25
26
27
27
27
27
26
24
24
23
22
22
21
22
21
21
20
19
19
19
19
18
18
16
15
15
14
14
14
15
16
16
15
15
15
14
13
12
12
12
12
11
12
13
14
14
15
15
14
13
13
14
14
14
14
15
14
14
13
13
13
14
15
15
15
15
15
15
15
14
13
12
12
11
12
12
12
12
11
10
12
15
16
15
14
14
14
14
15
15
16
16
16
15
15
16
17
19
20
20
20
19
19
18
17
16
16
14
13
11
11
10
7
6
5
6
7
8
9
9
7
5
6
9
11
11
11
12
13
13
13
14
13
12
10
9
10
10
8
7
6
4
3
1
0
0
-1
-2
-3
-4
-6
-6
-6
-6
-7
-7
-7
-6
-5
-4
-3
-1
0
1
1
2
2
2
2
2
3
2
2
3
6
9
15
25
41
58
71
83
88
93
93
97
103
113
127
140
153
160
170
172
175
174
171
167
155
144
121
92
57
31
17
8
1
-1
-3
-4
-6
-8
-8
-10
-11
-12
-12
-12
-13
-14
-15
-17
-18
-20
-19
-18
-18
-18
-18
-18
-18
-19
-19
-19
-18
-16
-15
-14
-12
-11
-10
-8
-6
-5
-4
-2
-1
0
1
2
4
5
6
6
7
8
8
7
7
7
7
6
5
4
2
0
-1
-1
-1
-4
-7
-8
-10
-12
-14
-16
-18
-19
-22
-23
-23
-24
-24
-25
-24
-25
-25
-25
-24
-24
-23
-22
-21
-20
-18
-17
-16
-14
-15
-14
-12
-10
-8
-5
-2
0
1
1
2
3
5
5
6
9
11
13
14
16
18
21
23
24
27
29
31
31
32
32
31
31
31
32
31
31
31
31
31
30
29
28
27
27
27
28
28
27
24
22
20
18
16
15
15
16
17
17
17
16
14
12
12
11
11
11
13
14
14
13
12
11
10
10
11
11
12
12
11
11
10
10
9
9
10
10
9
10
12
12
12
12
14
13
12
10
10
10
9
8
7
7
7
7
9
11
12
12
12
12
12
12
12
12
13
13
13
13
12
12
11
11
12
12
12
12
13
12
12
11
11
12
12
12
11
11
11
9
8
8
8
7
8
10
13
15
18
19
20
20
18
18
19
19
20
19
19
18
17
16
14
13
11
9
8
8
8
6
5
5
3
1
0
0
0
0
0
-1
-2
-2
-3
-3
-3
-2
-2
-2
0
0
0
0
-1
-1
-1
0
0
0
0
-1
-2
-3
-3
-4
-4
-4
-4
-4
-5
-5
-5
-6
-8
-9
-9
-9
-9
-9
-7
-6
-4
-2
3
14
31
48
66
78
88
93
97
100
105
116
129
146
156
166
169
173
175
175
174
167
162
146
129
100
69
43
23
10
1
-4
-8
-12
-14
-17
-18
-19
-20
-20
-20
-20
-21
-21
-21
-20
-19
-19
-16
-15
-16
-17
-17
-17
-17
-17
-17
-16
-17
-18
-18
-18
-18
-18
-19
-19
-18
-17
-15
-13
-12
-12
-12
-12
-11
-10
-11
-11
-9
-7
-7
-7
-6
-6
-5
-5
-4
-4
-5
-7
-9
-9
-10
-10
-13
-14
-15
-16
-19
-22
-24
-26
-27
-28
-27
-28
-30
-32
-33
-33
-35
-35
-36
-37
-37
-37
-35
-34
-32
-31
-29
-27
-27
-27
-25
-21
-19
-16
-15
-13
-12
-11
-10
-10
-9
-7
-5
-3
0
1
2
2
3
6
8
10
10
9
8
9
11
12
12
12
12
12
12
11
12
13
16
18
18
17
17
18
19
20
21
20
19
18
18
16
15
15
14
14
12
11
11
10
9
9
10
11
11
10
8
7
6
6
5
5
5
4
4
4
5
5
5
4
3
4
4
4
6
8
9
9
8
8
8
8
8
7
6
5
5
7
8
8
7
6
5
5
4
4
4
3
2
3
2
1
0
-1
-1
-1
0
0
1
2
3
3
2
3
4
6
7
7
8
8
8
9
9
8
6
5
7
8
8
7
8
8
7
7
7
7
6
5
5
5
5
5
4
4
3
2
2
3
3
3
2
2
3
4
6
7
9
10
11
11
12
13
12
11
9
9
8
7
5
3
3
0
-2
-2
-2
-3
-4
-5
-6
-9
-12
-14
-15
-17
-18
-19
-19
-19
-20
-20
-19
-18
-17
-16
-15
-12
-11
-10
-9
-8
-6
-6
-6
-5
-3
-3
-2
0
2
4
8
17
31
49
64
76
83
89
90
90
94
101
113
124
137
147
156
160
161
163
162
159
151
143
129
106
77
46
23
8
0
-4
-6
-7
-9
-9
-10
-11
-12
-14
-14
-15
-15
-16
-17
-17
-18
-19
-21
-21
-21
-22
-23
-24
-24
-24
-24
-23
-22
-21
-21
-19
-17
-15
-14
-13
-12
-10
-9
-7
-5
-4
-3
-3
-1
0
1
0
1
2
3
3
3
3
3
3
2
2
0
0
-1
-2
-2
-1
-1
-2
-3
-5
-7
-8
-8
-8
-8
-9
-11
-12
-13
-14
-15
-16
-17
-17
-17
-16
-17
-18
-20
-19
-19
-19
-20
-20
-19
-18
-16
-16
-16
-16
-15
-14
-12
-8
-5
-2
0
2
5
6
7
7
9
11
13
15
18
21
23
23
25
26
26
26
27
28
28
28
28
30
30
29
28
28
29
28
28
27
26
24
23
21
20
19
17
16
16
17
18
18
18
18
18
17
17
17
18
18
17
17
16
16
16
16
16
16
16
16
15
15
14
14
14
14
13
12
12
13
13
13
12
11
9
8
8
8
9
8
7
7
7
6
6
6
6
6
6
6
8
8
7
7
7
8
10
10
10
10
9
9
8
7
7
6
6
6
7
5
4
3
3
2
1
1
1
1
1
0
1
0
0
2
4
5
7
8
9
9
9
10
10
11
10
8
7
7
8
9
9
8
8
5
4
3
4
4
2
1
0
0
0
-2
-2
-2
-2
-3
-5
-5
-6
-7
-8
-8
-9
-10
-10
-8
-6
-5
-5
-5
-5
-5
-7
-9
-10
-11
-12
-13
-14
-16
-18
-19
-19
-19
-19
-20
-20
-20
-20
-21
-22
-22
-23
-23
-22
-20
-20
-19
-19
-18
-18
-17
-16
-13
-10
-6
-3
2
11
25
43
59
73
83
89
93
94
98
105
118
129
140
147
152
156
157
158
155
152
144
131
111
85
55
26
5
-8
-17
-22
-24
-26
-27
-28
-29
-29
-29
-29
-29
-28
-28
-28
-27
-27
-29
-29
-28
-28
-28
-29
-28
-29
-28
-29
-28
-28
-29
-29
-28
-27
-28
-27
-27
-25
-25
-25
-23
-22
-20
-20
-19
-18
-17
-17
-16
-14
-12
-11
-11
-9
-7
-8
-9
-10
-10
-11
-11
-12
-13
-15
-18
-19
-21
-21
-24
-25
-27
-28
-30
-33
-34
-36
-37
-39
-42
-43
-44
-44
-45
-45
-45
-45
-45
-43
-40
-37
-36
-35
-32
-30
-29
-29
-28
-27
-26
-23
-21
-20
-20
-18
-17
-15
-13
-12
-10
-8
-6
-4
-3
-2
-1
-2
-2
-2
-1
-1
-1
0
2
2
2
3
4
4
4
6
9
12
13
13
13
12
12
12
12
12
11
9
9
8
7
7
8
9
10
9
8
7
7
6
4
3
2
1
0
-1
-1
-1
-1
-1
0
0
0
0
0
0
2
3
4
4
4
5
7
9
10
10
10
9
9
7
6
6
7
6
5
5
5
5
3
3
3
3
1
0
-1
0
0
0
0
0
0
0
1
3
4
5
7
9
10
10
11
13
15
16
16
15
15
15
15
14
13
13
13
13
13
13
13
13
13
11
9
8
7
7
5
4
4
4
4
4
5
5
5
4
5
7
9
10
13
14
14
15
15
16
15
15
15
14
13
11
10
10
11
10
9
9
9
8
8
7
6
5
4
3
2
0
0
-1
-2
-3
-5
-6
-6
-6
-5
-4
-3
-2
-2
-1
0
1
2
1
0
0
0
1
1
2
3
3
3
4
5
7
10
17
29
45
61
73
83
88
92
93
97
105
117
133
146
160
166
174
176
179
177
171
166
153
139
112
82
52
30
17
8
4
3
1
-1
-2
-4
-6
-7
-9
-10
-11
-13
-16
-16
-17
-17
-18
-17
-17
-17
-16
-15
-15
-14
-14
-13
-11
-10
-9
-8
-6
-6
-6
-6
-4
-2
-1
0
1
2
2
2
4
7
8
9
9
9
9
8
7
7
8
8
7
6
5
4
4
3
3
3
2
1
0
0
0
-2
-3
-4
-6
-8
-11
-12
-14
-16
-18
-19
-20
-20
-21
-21
-21
-21
-22
-21
-21
-21
-21
-20
-17
-16
-16
-16
-14
-10
-8
-6
-3
-1
0
1
3
6
8
12
15
18
21
23
25
27
28
28
29
30
31
31
32
33
35
36
35
35
34
33
31
31
30
29
29
27
27
26
27
27
27
27
27
25
24
23
23
23
23
24
24
24
25
26
27
27
26
25
26
25
24
25
25
25
23
22
23
24
25
24
24
23
21
19
17
17
16
16
14
13
12
11
11
12
12
10
9
11
15
17
19
20
21
21
19
18
18
20
20
21
22
23
23
21
20
20
21
21
20
19
17
15
14
14
14
13
11
10
9
9
8
9
9
9
8
6
6
7
8
9
9
11
14
16
19
21
22
22
22
23
23
22
21
20
20
20
19
18
18
17
16
15
16
15
14
12
11
10
10
11
12
12
11
10
11
12
12
11
13
14
14
12
11
11
12
11
9
8
8
9
8
7
7
6
5
2
1
0
-2
-4
-6
-8
-9
-10
-11
-11
-12
-14
-13
-13
-13
-12
-12
-11
-10
-9
-8
-6
-3
-1
1
3
5
7
10
14
21
32
49
64
79
89
96
100
102
105
109
120
130
145
153
162
166
169
173
172
171
164
157
141
120
92
58
32
13
2
-3
-5
-6
-8
-9
-10
-12
-13
-14
-13
-14
-14
-14
-13
-13
-14
-16
-17
-17
-18
-19
-19
-19
-18
-18
-18
-19
-19
-19
-19
-19
-19
-19
-19
-19
-18
-16
-16
-16
-14
-12
-11
-10
-6
-4
-3
-1
1
2
2
2
2
4
4
5
3
3
1
0
-2
-2
-2
-3
-5
-7
-9
-10
-12
-13
-14
-14
-16
-18
-20
-21
-22
-24
-25
-27
-28
-28
-28
-28
-28
-27
-27
-25
-23
-21
-22
-22
-21
-20
-19
-18
-15
-13
-13
-13
-11
-9
-8
-6
-5
-3
-2
-1
0
2
3
4
4
5
6
6
6
6
8
10
11
13
15
17
18
20
22
23
24
24
26
26
26
24
24
24
25
25
25
25
23
22
22
21
20
18
16
14
14
14
13
12
12
11
9
8
7
6
5
5
5
5
5
5
5
6
7
8
9
10
12
13
12
12
13
14
13
14
15
15
14
12
10
9
9
8
7
7
7
6
5
5
5
3
2
1
2
2
3
3
4
4
3
3
5
7
6
6
7
8
9
11
13
13
13
11
9
8
10
10
10
8
8
7
6
6
6
6
4
2
1
0
-2
-5
-6
-7
-6
-4
-2
-1
0
0
0
0
0
1
2
4
7
8
9
10
11
13
13
12
12
12
11
10
8
7
6
5
4
3
3
2
1
0
0
0
-2
-5
-7
-11
-13
-15
-16
-16
-17
-19
-21
-21
-23
-21
-20
-18
-18
-18
-18
-18
-18
-18
-16
-15
-13
-13
-12
-11
-11
-11
-11
-11
-11
-10
-9
-10
-9
-9
-8
-7
-4
-2
2
8
20
37
53
66
76
83
86
86
88
96
108
122
135
147
158
164
169
169
170
167
160
151
138
120
90
59
31
13
2
-5
-10
-13
-16
-19
-20
-20
-20
-22
-25
-25
-25
-26
-26
-26
-25
-26
-26
-27
-26
-25
-25
-24
-23
-21
-22
-22
-21
-20
-19
-18
-16
-13
-11
-10
-9
-7
-6
-5
-5
-3
-2
-2
-2
-2
-3
-3
-4
-5
-6
-7
-8
-8
-7
-5
-5
-6
-6
-7
-8
-9
-9
-8
-7
-7
-7
-6
-7
-9
-11
-12
-13
-14
-17
-18
-19
-19
-21
-22
-22
-24
-26
-28
-28
-29
-29
-30
-30
-29
-29
-28
-26
-24
-24
-22
-20
-18
-16
-15
-11
-8
-5
-3
-1
2
5
8
10
12
15
17
20
24
26
28
27
28
28
29
30
29
30
29
28
28
28
27
25
23
23
24
25
24
24
24
24
24
25
25
24
23
24
26
27
27
27
28
28
27
26
25
26
25
25
24
23
21
20
19
19
20
19
18
17
17
16
16
16
15
15
16
18
18
17
16
15
16
16
17
16
17
17
17
17
18
19
20
20
20
20
20
20
20
21
21
19
18
17
15
14
13
13
13
14
13
13
13
13
12
12
12
13
13
13
12
11
11
12
13
14
14
14
16
18
18
18
19
19
20
19
20
20
20
19
18
19
18
18
16
15
15
15
15
13
12
10
8
8
8
8
6
6
7
8
7
6
7
6
5
6
6
7
6
4
4
4
5
5
6
6
7
6
5
5
6
7
6
4
4
2
0
-2
-4
-5
-8
-9
-11
-12
-13
-16
-16
-15
-14
-13
-14
-14
-14
-13
-12
-10
-8
-6
-5
-4
-3
-3
-2
0
3
7
12
21
35
52
69
81
93
99
101
102
103
113
123
138
147
156
160
161
163
162
162
155
148
133
112
81
47
21
4
-6
-14
-19
-19
-19
-21
-22
-22
-22
-23
-23
-23
-22
-23
-24
-24
-23
-23
-25
-27
-26
-25
-26
-26
-26
-26
-27
-28
-28
-28
-28
-27
-27
-25
-25
-24
-22
-20
-18
-17
-15
-13
-11
-10
-8
-7
-6
-6
-5
-4
-3
-3
-4
-5
-6
-7
-9
-11
-11
-12
-14
-17
-18
-19
-22
-23
-25
-27
-30
-33
-34
-35
-36
-37
-38
-39
-39
-40
-40
-39
-39
-38
-39
-38
-38
-38
-38
-39
-38
-39
-38
-37
-35
-33
-33
-32
-31
-29
-28
-26
-25
-24
-23
-20
-18
-17
-16
-15
-13
-11
-8
-6
-3
0
1
2
3
5
8
9
9
10
12
12
10
10
10
10
9
8
7
6
5
5
4
5
5
5
6
6
5
4
1
0
0
1
1
2
3
3
3
4
5
4
3
2
2
4
5
5
6
6
6
6
5
5
5
5
5
5
4
4
2
0
-1
-3
-6
-7
-7
-7
-6
-6
-5
-5
-5
-6
-6
-7
-8
-9
-9
-9
-8
-8
-8
-8
-7
-6
-4
-1
1
3
3
4
5
6
6
5
5
5
4
3
3
5
5
5
5
6
7
6
6
5
3
1
0
-1
-3
-4
-6
-7
-6
-6
-6
-5
-4
-4
-3
-3
-4
-4
-4
-3
-2
-2
0
0
1
3
5
4
4
5
7
9
8
8
8
8
6
5
5
5
6
5
5
3
1
1
1
2
-1
-3
-5
-5
-7
-10
-12
-12
-12
-13
-14
-15
-14
-14
-16
-16
-15
-14
-13
-12
-12
-12
-13
-14
-15
-14
-14
-14
-14
-14
-15
-15
-14
-13
-11
-11
-12
-11
-9
-8
-7
-4
0
5
15
30
47
59
69
76
83
89
92
100
110
127
143
157
168
174
180
179
182
179
178
169
155
133
97
62
32
15
5
-2
-7
-9
-9
-12
-15
-17
-18
-19
-20
-21
-21
-21
-20
-20
-19
-19
-19
-20
-20
-19
-18
-18
-18
-17
-16
-17
-17
-18
-17
-17
-16
-16
-15
-14
-14
-13
-12
-11
-10
-8
-6
-5
-4
-3
-2
0
0
-1
-1
-1
0
-2
-2
-2
-1
-1
-1
0
1
1
1
0
0
0
-1
-3
-4
-6
-8
-9
-10
-10
-11
-14
-17
-19
-20
-22
-24
-26
-26
-27
-26
-27
-26
-26
-26
-26
-26
-25
-25
-23
-22
-21
-19
-18
-17
-16
-15
-13
-10
-6
-3
0
4
8
11
14
16
19
21
23
24
26
28
28
28
29
31
31
31
31
32
33
34
35
34
35
33
33
33
34
34
34
33
31
30
28
28
28
29
28
26
24
24
24
24
25
25
24
22
21
20
19
20
19
18
17
16
16
18
20
21
21
22
24
25
24
24
23
24
24
23
23
22
22
21
21
20
19
18
18
20
19
18
16
15
14
15
16
18
19
20
19
17
17
17
17
16
17
18
18
18
18
19
19
19
19
19
19
19
17
16
16
15
16
17
17
17
14
13
13
13
13
11
10
11
10
10
10
9
10
9
9
10
12
13
13
14
15
15
16
17
17
17
17
16
17
17
16
16
16
16
16
17
17
17
16
13
12
12
12
10
8
6
6
5
5
5
4
1
-1
-2
-3
-3
-3
-4
-5
-5
-6
-7
-9
-9
-11
-12
-12
-13
-13
-13
-12
-10
-10
-12
-11
-9
-8
-7
-6
-6
-6
-6
-6
-6
-5
-3
-3
-4
-5
-4
-5
-4
-3
0
2
7
18
34
51
67
79
89
94
97
98
102
111
123
137
146
156
161
165
166
167
167
162
157
146
134
115
88
58
34
19
9
1
-1
-2
-4
-6
-9
-10
-11
-13
-14
-14
-14
-14
-16
-17
-17
-18
-19
-20
-20
-21
-22
-23
-23
-23
-24
-25
-26
-26
-26
-25
-23
-23
-22
-21
-20
-20
-18
-15
-13
-10
-7
-5
-4
-3
-2
-2
-1
0
2
3
2
0
0
-1
-2
-2
-2
-3
-4
-6
-7
-8
-9
-11
-13
-15
-16
-18
-21
-23
-24
-26
-29
-32
-34
-33
-35
-35
-36
-35
-35
-36
-35
-34
-32
-31
-30
-29
-28
-28
-29
-28
-27
-25
-24
-22
-20
-19
-18
-18
-16
-16
-14
-12
-9
-8
-8
-6
-3
0
0
2
3
5
7
7
8
9
11
13
13
12
12
12
13
13
15
18
20
21
21
22
21
21
20
20
20
20
20
21
22
21
20
20
20
20
18
16
14
14
12
10
9
8
8
6
6
7
7
6
5
5
3
1
0
0
1
2
3
4
5
7
8
10
11
11
12
12
11
10
9
9
10
11
12
13
13
14
13
12
11
9
9
10
10
10
10
9
8
9
11
11
10
8
8
9
10
10
10
11
10
10
9
8
8
7
7
8
9
8
8
7
8
8
8
8
9
9
9
9
9
8
7
5
5
6
6
7
9
8
7
6
6
7
8
9
9
10
11
11
10
9
7
6
5
4
4
4
5
5
6
7
7
8
9
10
9
8
8
7
6
5
4
4
3
1
-1
-1
-1
-2
-4
-3
-3
-4
-4
-4
-4
-4
-5
-7
-8
-8
-9
-10
-12
-11
-11
-10
-10
-10
-10
-11
-9
-7
-5
-4
-3
-2
-1
0
2
5
9
15
27
43
58
71
79
86
89
91
95
104
119
135
150
158
167
173
176
177
176
173
164
150
125
93
58
30
14
3
-4
-8
-10
-11
-11
-12
-14
-15
-15
-15
-16
-16
-15
-15
-15
-15
-16
-16
-17
-17
-16
-16
-16
-16
-15
-14
-14
-14
-13
-13
-12
-11
-9
-9
-9
-8
-8
-7
-6
-6
-6
-6
-4
-3
-2
-2
-1
0
0
0
0
2
1
0
0
0
0
-1
-3
-3
-2
-2
-2
-1
-1
-1
-2
-4
-5
-6
-8
-11
-12
-13
-15
-17
-19
-20
-22
-24
-24
-25
-27
-27
-26
-25
-25
-25
-24
-24
-23
-23
-22
-20
-19
-18
-17
-15
-14
-12
-11
-8
-5
-3
-2
0
2
6
7
9
12
15
19
21
24
26
28
29
31
34
35
34
33
33
32
31
30
30
30
28
27
26
25
24
23
22
22
21
20
19
19
18
17
17
18
19
18
16
15
16
16
17
17
17
16
16
15
16
16
15
15
16
18
18
19
20
21
21
21
20
19
19
18
17
17
16
15
14
15
15
14
13
12
12
12
12
13
14
13
12
12
13
14
13
13
14
14
13
14
15
17
17
16
17
18
17
16
16
16
16
14
13
13
13
13
12
12
11
11
10
9
9
9
7
5
5
5
6
7
7
8
8
8
10
12
13
14
15
15
14
12
13
13
12
12
12
14
13
12
11
11
11
10
10
10
10
9
9
7
7
7
6
5
6
6
5
4
4
3
2
2
3
4
4
2
0
0
-1
-2
-2
-2
-1
-2
-4
-6
-8
-9
-10
-10
-10
-10
-10
-10
-9
-9
-10
-11
-11
-11
-11
-11
-10
-9
-9
-7
-5
-4
-5
-5
-3
0
4
11
23
41
57
71
79
88
93
95
98
103
114
125
139
148
157
163
164
166
163
162
154
147
132
112
83
51
28
11
0
-7
-11
-11
-11
-13
-15
-16
-16
-17
-18
-19
-20
-20
-20
-21
-22
-22
-23
-22
-21
-21
-21
-20
-19
-18
-17
-18
-18
-18
-17
-18
-18
-17
-17
-16
-15
-13
-11
-12
-11
-10
-8
-7
-6
-5
-4
-4
-5
-5
-5
-6
-6
-6
-6
-5
-6
-6
-6
-6
-7
-9
-10
-11
-13
-15
-16
-16
-17
-18
-20
-22
-24
-27
-29
-31
-32
-34
-35
-36
-37
-38
-40
-40
-41
-41
-41
-41
-40
-39
-38
-37
-35
-34
-33
-31
-29
-27
-26
-24
-21
-18
-16
-13
-11
-8
-5
-3
0
2
4
4
6
7
8
10
10
10
11
12
11
11
10
10
10
10
11
12
12
11
12
13
12
10
10
10
10
9
10
12
13
14
13
13
13
12
11
11
11
12
11
11
13
13
12
10
9
9
8
7
5
4
2
1
1
0
0
-1
-2
-2
-2
-3
-3
-2
-1
-1
-1
-1
0
0
0
0
1
2
1
1
2
3
3
3
4
4
4
3
2
0
0
-1
-1
0
-1
-2
-3
-4
-4
-4
-4
-4
-3
-2
-1
-1
-1
-1
-2
-3
-4
-4
-4
-3
-3
-2
-2
-1
-1
0
0
0
0
0
0
0
0
0
0
0
0
0
-1
-1
-1
-2
-2
-3
-4
-4
-5
-6
-8
-8
-7
-5
-3
-3
-4
-3
-4
-4
-4
-3
-3
-3
-3
-3
-3
-4
-4
-3
-2
-2
-5
-6
-5
-6
-7
-9
-10
-10
-11
-13
-13
-13
-15
-17
-19
-19
-21
-23
-25
-25
-24
-24
-23
-23
-22
-22
-21
-20
-19
-17
-17
-16
-14
-13
-13
-13
-12
-10
-8
-7
-4
0
6
18
36
52
64
71
76
79
81
85
91
103
116
129
137
144
149
151
152
149
149
143
133
114
88
59
33
15
2
-5
-10
-13
-14
-16
-17
-18
-20
-20
-21
-20
-21
-20
-19
-19
-19
-20
-20
-20
-20
-20
-19
-19
-20
-22
-24
-24
-25
-26
-26
-24
-23
-23
-22
-22
-20
-19
-17
-15
-13
-12
-11
-9
-8
-8
-9
-9
-9
-8
-8
-8
-9
-9
-9
-10
-10
-9
-9
-8
-10
-11
-11
-11
-14
-16
-17
-18
-19
-21
-22
-24
-26
-27
-27
-25
-25
-25
-27
-27
-27
-29
-30
-30
-29
-28
-27
-28
-27
-26
-25
-24
-24
-23
-24
-24
-23
-22
-19
-18
-17
-17
-16
-14
-13
-10
-6
-3
-1
-1
0
2
4
5
7
8
8
9
11
12
14
15
16
17
19
19
21
22
23
24
25
27
27
28
27
27
27
28
28
27
26
26
26
24
24
24
23
23
22
21
20
19
18
17
18
17
16
15
17
18
18
17
17
18
18
18
18
18
18
18
19
21
22
22
22
21
21
21
21
22
22
22
20
20
19
18
17
17
18
18
18
17
17
16
16
16
15
16
15
15
14
14
14
13
12
12
14
14
13
13
14
16
16
18
18
18
18
19
19
20
21
20
19
19
20
20
20
20
20
19
18
18
17
17
15
16
17
17
15
15
14
13
12
11
11
12
13
14
15
15
15
15
15
15
15
15
15
16
16
17
17
17
17
17
17
17
16
16
15
14
14
13
12
10
9
8
7
7
6
6
6
4
4
4
4
2
0
-1
-1
-2
-3
-2
-1
-1
-2
-2
-1
0
-1
-1
0
1
2
3
3
3
2
2
2
2
1
2
2
2
3
4
4
5
7
10
16
26
42
59
74
85
95
99
102
103
108
118
131
145
153
162
165
167
169
169
167
161
156
145
129
103
73
49
31
18
11
7
5
3
1
-1
-2
-3
-6
-8
-10
-9
-9
-9
-9
-8
-9
-9
-10
-10
-9
-10
-10
-10
-11
-11
-10
-8
-6
-6
-6
-6
-5
-5
-4
-3
-1
1
2
4
6
8
10
10
11
11
11
12
13
13
11
10
9
9
8
7
6
6
5
3
2
0
-1
-3
-4
-5
-7
-9
-11
-13
-15
-17
-19
-21
-22
-23
-24
-25
-25
-24
-25
-25
-25
-25
-24
-24
-23
-22
-21
-20
-19
-18
-18
-17
-16
-14
-13
-12
-9
-7
-5
-4
-3
-2
-1
-1
0
2
4
6
7
9
10
11
11
12
14
16
18
21
22
24
24
24
25
25
26
26
27
28
27
27
27
26
25
24
24
24
24
24
24
24
23
22
21
21
21
20
18
17
17
17
17
16
15
13
11
10
12
13
13
13
14
14
14
13
14
15
14
15
16
17
17
17
18
17
17
17
16
16
15
14
15
16
16
14
12
11
10
10
10
11
12
13
13
13
13
12
11
11
12
13
14
15
16
17
18
17
16
16
15
16
18
19
19
18
17
17
18
18
18
17
18
17
17
15
14
12
10
10
10
12
11
11
11
11
11
11
11
10
9
7
7
8
9
9
10
11
11
11
11
11
12
13
13
13
14
15
14
14
14
14
14
14
14
13
10
9
9
8
5
3
2
3
3
2
2
2
1
-1
-2
-2
-2
-3
-4
-4
-4
-4
-4
-4
-3
-2
-2
-2
-1
0
0
0
1
2
3
4
5
6
8
8
9
13
18
27
39
54
67
76
82
87
88
93
99
112
126
141
152
161
171
174
178
177
177
171
161
146
122
94
64
43
27
16
8
4
3
2
1
0
-1
-1
-2
-3
-4
-5
-6
-7
-8
-8
-9
-10
-10
-10
-10
-10
-10
-9
-10
-9
-9
-8
-5
-3
-2
0
0
1
2
3
4
5
6
6
7
7
7
6
7
8
9
9
11
13
13
12
12
11
10
9
9
9
9
7
5
4
4
3
2
1
1
0
-1
-4
-4
-5
-5
-6
-6
-7
-8
-10
-12
-13
-13
-15
-16
-17
-17
-18
-18
-17
-17
-16
-16
-16
-15
-14
-13
-13
-10
-8
-7
-5
-3
-1
0
1
4
7
10
13
15
18
21
25
27
31
33
35
36
37
39
39
38
38
38
38
38
39
38
38
37
37
37
37
36
36
35
36
35
33
32
31
30
28
27
27
27
27
25
24
24
24
23
22
21
21
21
21
23
24
25
25
25
25
26
26
25
25
24
23
24
24
24
24
24
23
23
24
23
22
21
21
21
20
20
19
18
17
17
16
16
16
16
17
17
16
14
15
15
15
15
16
18
18
17
17
17
17
17
17
17
16
15
15
16
16
15
15
15
15
15
15
14
14
12
10
9
7
7
7
6
6
6
7
8
8
9
7
7
7
9
11
12
12
11
12
12
12
12
13
12
11
11
11
11
10
9
9
9
8
6
5
5
3
2
1
2
1
0
-1
0
0
-2
-4
-5
-4
-4
-4
-4
-3
-4
-5
-6
-6
-5
-6
-6
-7
-7
-7
-8
-8
-8
-9
-10
-11
-10
-10
-11
-12
-11
-11
-11
-12
-12
-12
-12
-11
-10
-10
-11
-11
-10
-9
-8
-5
-2
4
15
32
50
62
74
81
88
90
95
102
111
126
137
149
152
157
158
160
159
153
150
139
127
103
77
49
27
10
-2
-10
-14
-17
-18
-19
-19
-21
-23
-24
-24
-24
-25
-24
-24
-23
-22
-22
-21
-20
-19
-19
-19
-17
-16
-16
-16
-15
-15
-16
-16
-16
-15
-16
-18
-18
-17
-17
-16
-15
-14
-14
-14
-13
-12
-12
-12
-12
-12
-11
-10
-10
-10
-9
-8
-9
-10
-9
-8
-8
-8
-6
-5
-5
-7
-8
-9
-11
-14
-16
-17
-19
-21
-24
-26
-27
-30
-31
-34
-34
-36
-37
-38
-40
-40
-40
-40
-40
-40
-40
-40
-39
-38
-38
-38
-36
-34
-31
-29
-26
-24
-22
-20
-18
-15
-12
-9
-6
-3
-1
0
2
3
5
7
9
10
11
14
15
15
14
16
16
16
15
16
16
16
17
16
16
15
15
15
17
16
15
15
14
13
12
11
10
11
10
9
9
11
12
11
11
10
10
9
8
7
8
8
9
10
11
12
12
12
11
12
11
10
10
10
9
8
9
10
9
8
8
7
8
7
7
6
5
4
2
2
3
4
4
4
5
5
3
2
2
3
3
2
2
4
5
6
6
6
4
2
0
1
2
3
3
3
4
3
1
0
1
3
3
3
2
2
2
1
1
1
0
-1
-2
-2
-2
-2
-2
-1
-1
-1
-2
-2
-2
-1
0
1
2
1
0
1
2
4
3
2
1
2
3
3
2
2
0
-1
-1
-1
-1
-1
-2
-1
0
0
0
-2
-3
-3
-4
-4
-3
-3
-4
-6
-7
-8
-9
-11
-12
-11
-11
-13
-15
-14
-15
-16
-17
-19
-19
-20
-19
-18
-16
-15
-14
-14
-14
-15
-15
-15
-15
-15
-15
-14
-12
-10
-8
-6
-4
-1
2
6
14
26
40
51
60
67
74
77
79
83
88
99
110
123
133
142
147
148
151
149
149
141
132
114
87
56
28
11
0
-8
-14
-17
-17
-18
-18
-18
-18
-18
-19
-19
-20
-20
-21
-23
-24
-24
-24
-25
-25
-26
-26
-26
-26
-25
-26
-26
-27
-26
-25
-26
-26
-26
-26
-26
-25
-25
-24
-22
-20
-18
-17
-17
-15
-13
-11
-9
-8
-8
-7
-5
-5
-6
-5
-4
-3
-4
-6
-8
-9
-10
-12
-13
-15
-16
-17
-18
-18
-19
-20
-21
-23
-24
-27
-28
-29
-29
-31
-33
-34
-34
-33
-33
-34
-35
-34
-35
-35
-35
-36
-34
-33
-30
-28
-26
-24
-23
-21
-20
-18
-17
-14
-12
-9
-8
-8
-7
-5
-3
-1
1
4
6
7
9
10
10
10
11
11
11
12
12
14
14
14
14
16
16
16
17
17
17
16
15
16
16
17
17
18
19
21
20
19
18
18
17
16
16
15
15
15
15
15
14
13
12
12
11
10
9
8
8
7
6
5
5
5
4
3
3
3
2
3
4
5
6
7
8
9
10
11
11
11
11
10
10
10
10
11
11
11
11
10
9
10
11
9
8
7
7
7
6
6
6
6
6
6
7
7
7
6
7
7
6
4
5
7
9
9
9
10
11
11
10
10
11
12
12
11
11
10
9
9
9
8
7
7
8
7
4
2
2
2
2
2
3
3
4
4
3
3
3
3
3
3
4
4
5
6
7
8
8
9
10
10
8
9
9
10
9
10
9
9
7
5
4
3
2
0
-2
-4
-7
-9
-11
-11
-12
-13
-14
-14
-13
-13
-13
-12
-11
-12
-12
-11
-11
-10
-10
-9
-8
-6
-5
-3
-1
-1
0
2
4
7
10
14
20
30
45
60
73
82
89
92
93
96
100
110
121
132
141
146
151
153
158
157
156
151
143
130
108
81
50
25
8
-3
-9
-11
-11
-12
-11
-11
-12
-12
-13
-12
-12
-12
-12
-13
-13
-13
-14
-16
-16
-17
-18
-18
-18
-19
-20
-21
-21
-20
-20
-20
-19
-18
-17
-17
-16
-15
-14
-12
-10
-7
-5
-4
-4
-3
-2
-3
-3
-3
-3
-4
-6
-6
-5
-5
-6
-7
-6
-6
-7
-8
-8
-8
-10
-11
-12
-13
-16
-18
-19
-20
-20
-22
-25
-25
-27
-28
-31
-32
-33
-35
-36
-38
-37
-39
-39
-40
-39
-37
-37
-37
-37
-35
-35
-33
-31
-29
-27
-25
-22
-20
-18
-17
-15
-13
-11
-9
-7
-3
-1
1
3
4
6
6
7
7
9
10
10
10
11
12
13
14
15
15
15
14
16
17
17
17
16
16
14
12
12
12
12
10
8
7
6
6
5
5
5
5
4
4
3
2
1
0
0
0
-1
-2
-2
-2
-2
-3
-3
-3
-3
-3
-2
-1
-1
-2
-1
-1
0
1
2
2
2
1
1
0
0
0
0
0
1
1
0
-1
-2
-2
-4
-6
-7
-7
-8
-8
-8
-7
-7
-9
-8
-8
-8
-8
-6
-4
-3
-4
-5
-6
-5
-3
-2
-1
-1
0
0
1
1
1
0
-1
-3
-4
-5
-5
-5
-4
-6
-7
-8
-9
-8
-9
-9
-10
-10
-10
-11
-11
-12
-10
-9
-8
-6
-6
-7
-7
-6
-6
-6
-6
-4
-3
-3
-3
-2
-2
-3
-3
-3
-3
-3
-4
-5
-6
-6
-6
-6
-8
-9
-10
-11
-12
-12
-13
-15
-15
-16
-16
-17
-17
-16
-16
-17
-17
-17
-17
-18
-18
-17
-14
-13
-13
-15
-16
-17
-18
-17
-16
-15
-16
-16
-15
-14
-13
-12
-10
-7
-3
2
11
24
38
50
59
66
73
77
79
84
92
104
118
133
142
150
154
156
158
158
156
149
140
121
94
61
33
15
4
-4
-11
-13
-13
-14
-15
-15
-14
-13
-14
-15
-16
-17
-19
-19
-18
-19
-20
-21
-21
-22
-22
-23
-23
-22
-22
-23
-23
-23
-23
-23
-23
-22
-20
-19
-18
-18
-17
-16
-15
-13
-12
-10
-9
-7
-5
-4
-3
-3
-3
-2
-2
-1
0
1
1
1
0
0
-1
-3
-4
-5
-5
-7
-9
-10
-11
-13
-15
-16
-16
-16
-17
-17
-19
-20
-21
-22
-22
-22
-23
-24
-24
-25
-25
-25
-26
-26
-25
-25
-25
-24
-23
-22
-22
-20
-17
-15
-13
-10
-7
-5
-2
0
3
7
9
11
15
18
21
23
25
28
30
33
34
36
37
38
38
39
39
38
38
38
37
36
35
35
35
35
34
33
33
32
31
30
30
29
29
28
26
25
25
24
23
24
24
25
26
28
30
31
32
32
33
34
33
33
33
34
33
33
33
34
34
35
35
34
32
30
30
29
30
28
28
27
27
27
26
26
26
27
26
26
28
28
27
26
27
25
23
21
21
21
21
22
23
24
24
23
23
24
25
25
26
27
28
28
28
28
28
28
27
26
26
26
27
27
29
28
29
28
29
29
28
27
26
25
24
24
24
23
22
22
23
22
22
21
20
19
21
22
21
22
22
22
22
22
23
23
23
23
23
24
25
23
22
23
23
24
23
23
23
22
21
21
21
21
19
16
14
12
11
9
9
9
8
7
7
8
8
8
7
7
7
6
5
3
1
1
1
2
3
4
3
3
4
5
6
6
7
7
8
8
8
8
9
9
10
11
12
14
17
23
30
44
59
73
85
91
97
97
100
103
111
122
136
151
159
168
170
174
175
175
170
163
158
144
128
100
71
44
24
12
5
1
0
-2
-3
-5
-6
-6
-7
-7
-7
-7
-8
-7
-4
-4
-5
-7
-8
-8
-8
-8
-9
-10
-11
-12
-11
-10
-10
-11
-11
-10
-9
-8
-7
-6
-5
-4
-3
-3
-3
-3
-4
-4
-3
-1
0
0
0
0
0
1
2
2
3
1
0
1
1
0
-1
-1
-1
-2
-4
-6
-7
-9
-12
-14
-16
-19
-21
-22
-24
-25
-26
-26
-27
-25
-24
-23
-23
-22
-22
-23
-24
-24
-24
-24
-25
-25
-24
-23
-24
-24
-23
-21
-19
-18
-17
-15
-14
-13
-12
-10
-7
-6
-4
-1
1
2
2
4
6
7
9
12
15
16
17
19
21
23
24
24
26
26
28
28
28
28
27
27
26
27
26
25
22
20
19
18
17
16
15
15
14
14
15
16
16
15
14
14
14
14
13
12
13
13
12
12
11
11
12
13
14
15
14
14
15
16
15
14
14
13
12
12
12
12
11
11
10
11
10
10
10
10
10
9
8
8
8
8
7
6
5
6
5
4
5
6
6
6
7
9
10
10
10
10
9
7
5
5
4
4
4
4
4
4
4
4
5
5
5
5
5
4
2
1
2
2
2
2
2
1
1
0
0
0
0
0
0
0
1
1
1
2
2
1
1
2
3
4
4
4
5
3
3
3
3
3
3
3
3
3
2
0
0
0
-1
-2
-2
-2
-1
-3
-4
-6
-8
-9
-12
-14
-15
-17
-18
-18
-17
-16
-16
-16
-15
-15
-16
-17
-17
-16
-15
-15
-13
-12
-11
-11
-10
-8
-7
-7
-7
-6
-5
-5
-4
-1
1
4
9
19
31
48
60
71
79
83
84
85
91
101
117
129
141
147
153
157
157
160
156
153
143
131
111
80
49
23
8
-1
-8
-11
-12
-13
-15
-16
-17
-18
-20
-22
-22
-24
-24
-25
-26
-25
-25
-23
-22
-21
-22
-23
-23
-23
-23
-22
-21
-21
-21
-21
-20
-19
-18
-17
-15
-13
-12
-11
-11
-10
-9
-7
-6
-6
-5
-4
-3
-4
-5
-5
-4
-3
-2
-2
-3
-4
-5
-5
-6
-7
-8
-9
-9
-11
-12
-13
-16
-18
-20
-21
-21
-23
-25
-26
-25
-27
-29
-32
-32
-32
-33
-32
-33
-32
-33
-33
-34
-33
-32
-32
-30
-29
-27
-27
-25
-23
-21
-19
-17
-14
-12
-11
-9
-7
-4
-2
-1
0
2
4
6
8
11
14
16
16
17
17
17
18
18
19
18
17
15
14
14
13
14
15
16
16
16
16
16
15
13
12
10
9
9
9
10
9
8
6
6
6
5
4
4
5
5
4
3
3
3
3
3
3
3
2
1
0
1
2
3
4
4
4
4
3
4
4
3
3
3
2
1
1
1
1
1
2
2
2
0
0
0
1
1
2
3
4
4
4
3
3
3
1
-1
-2
-2
-1
-1
0
1
2
1
0
0
0
-1
-1
-1
-1
-2
-2
-2
-1
-2
-2
-2
-2
-2
-2
-3
-3
-4
-4
-4
-3
-1
-1
-1
-2
-2
-2
-3
-4
-4
-3
-4
-5
-5
-6
-7
-8
-8
-8
-7
-5
-3
-1
-1
-1
-1
-1
-1
-2
-1
0
0
-1
-1
0
1
1
0
0
1
2
1
0
0
0
0
-2
-3
-5
-8
-10
-12
-12
-13
-15
-19
-22
-24
-25
-25
-25
-24
-24
-23
-23
-22
-21
-20
-18
-17
-16
-16
-15
-14
-14
-14
-12
-9
-7
-4
0
6
19
36
54
68
77
83
87
88
90
96
106
116
127
137
145
151
152
154
152
149
142
132
118
95
67
38
15
1
-7
-11
-11
-12
-14
-15
-16
-17
-18
-20
-21
-21
-20
-20
-20
-19
-20
-21
-23
-23
-22
-21
-21
-21
-20
-19
-19
-20
-20
-20
-20
-19
-18
-16
-17
-17
-16
-15
-15
-15
-14
-15
-14
-14
-13
-12
-11
-11
-11
-10
-10
-8
-7
-6
-5
-3
-2
-2
-1
-1
-2
-2
-2
-2
-3
-4
-5
-5
-7
-10
-11
-12
-13
-15
-17
-19
-20
-22
-23
-25
-26
-27
-29
-29
-30
-30
-31
-32
-32
-31
-30
-29
-27
-26
-24
-24
-24
-22
-21
-19
-16
-13
-11
-9
-6
-3
0
2
4
7
9
10
12
14
16
17
18
20
22
23
24
24
24
24
23
24
24
24
24
25
27
29
29
28
28
28
28
27
27
28
28
27
25
26
28
29
29
28
27
25
24
23
22
21
21
20
18
18
18
18
18
19
19
17
16
15
15
14
14
14
13
12
10
10
10
10
11
11
11
12
12
12
13
14
15
15
15
16
16
16
15
16
16
16
15
15
14
14
14
14
14
13
12
12
12
12
10
9
8
8
8
8
8
10
12
12
11
11
11
11
10
10
10
9
8
9
9
9
9
7
7
7
8
7
7
8
8
8
8
8
8
7
7
7
7
6
6
6
7
8
9
10
11
11
10
11
10
10
9
8
9
9
9
8
8
7
5
5
5
5
5
3
3
3
3
2
1
0
0
-1
-2
-4
-4
-4
-6
-7
-7
-8
-10
-11
-12
-12
-13
-14
-14
-14
-14
-15
-15
-14
-13
-12
-11
-10
-11
-10
-8
-7
-5
-3
0
1
5
10
19
34
51
63
72
78
84
87
89
96
105
119
129
138
144
148
150
149
150
146
142
130
114
87
54
24
2
-8
-15
-18
-19
-18
-18
-19
-20
-21
-21
-20
-20
-20
-19
-18
-19
-20
-21
-22
-22
-23
-23
-24
-24
-25
-28
-29
-29
-29
-31
-33
-34
-34
-33
-33
-31
-30
-30
-30
-28
-26
-26
-25
-23
-21
-20
-19
-17
-15
-13
-13
-12
-13
-12
-11
-10
-10
-10
-10
-11
-11
-11
-13
-16
-18
-19
-19
-20
-22
-25
-27
-28
-28
-29
-30
-32
-34
-36
-37
-38
-38
-39
-38
-38
-39
-39
-38
-37
-37
-37
-37
-37
-35
-34
-33
-32
-30
-29
-29
-27
-26
-24
-22
-20
-19
-17
-15
-13
-10
-8
-5
-3
-1
0
2
4
6
8
10
12
12
14
15
14
13
13
13
12
11
11
12
11
11
10
10
10
10
9
8
7
6
4
3
3
4
3
1
1
1
0
0
0
3
4
5
6
6
5
4
4
5
6
6
6
5
5
4
3
3
3
3
2
2
3
4
3
3
3
4
3
3
2
2
2
0
0
0
0
0
0
-1
-1
0
0
0
1
1
0
0
0
0
0
0
1
1
1
1
0
0
0
0
0
0
0
0
0
2
2
1
1
0
1
2
2
3
3
3
3
2
2
3
2
1
2
2
2
1
1
2
2
1
1
3
3
3
3
3
3
3
2
3
4
5
6
6
6
6
6
5
6
8
7
7
6
6
5
5
5
7
7
6
5
4
4
3
1
0
0
0
0
0
0
-1
-3
-6
-8
-7
-8
-8
-8
-8
-9
-9
-8
-7
-7
-7
-6
-5
-3
-3
-4
-5
-6
-6
-6
-6
-5
-4
-3
-3
-2
-1
-1
1
4
8
13
23
38
57
72
80
89
93
96
95
100
109
121
135
142
151
156
162
164
166
166
161
156
144
131
107
80
50
26
11
1
-3
-4
-5
-6
-9
-10
-11
-11
-10
-10
-11
-12
-14
-15
-15
-15
-17
-18
-19
-18
-18
-18
-19
-19
-19
-19
-17
-16
-15
-15
-16
-15
-15
-14
-13
-11
-10
-8
-6
-5
-4
-2
0
1
2
4
5
6
6
5
3
1
0
1
1
1
0
-1
-3
-5
-7
-7
-7
-9
-12
-14
-15
-16
-18
-19
-20
-20
-22
-24
-24
-25
-26
-26
-26
-26
-26
-26
-27
-26
-25
-24
-25
-24
-24
-24
-23
-23
-23
-23
-23
-21
-18
-16
-15
-13
-12
-10
-9
-7
-6
-4
-3
-1
0
2
5
8
11
13
16
17
19
22
25
26
25
24
24
23
23
23
23
23
23
24
24
24
22
21
21
20
20
19
19
19
19
19
20
22
23
22
22
21
20
19
19
19
19
18
17
18
19
19
17
15
15
15
15
14
13
12
11
10
11
12
10
8
8
9
9
9
9
10
9
8
9
12
13
13
13
13
14
15
16
17
17
16
15
15
15
15
14
13
13
12
12
12
11
10
8
7
8
9
9
9
9
9
8
7
8
9
9
9
10
11
12
12
12
12
12
13
13
14
14
13
11
9
7
6
6
7
8
9
10
9
8
8
7
7
7
7
7
7
8
8
9
10
10
10
11
12
13
14
14
15
14
15
15
16
16
16
16
14
12
9
7
6
5
4
3
2
1
0
0
-1
-1
-2
-3
-4
-5
-5
-4
-4
-3
-3
-4
-4
-4
-3
-3
-4
-3
-1
-1
-1
-1
-1
-1
-1
-1
0
1
2
4
8
14
24
40
56
71
81
89
93
97
100
108
121
136
150
157
165
168
172
174
175
174
168
159
140
117
86
55
31
17
9
3
0
0
0
0
0
0
0
0
0
-1
-2
-3
-2
-3
-4
-5
-7
-8
-10
-9
-8
-7
-7
-7
-7
-7
-7
-5
-4
-5
-6
-5
-2
0
0
1
2
4
5
6
7
9
9
9
9
9
10
10
12
14
15
16
17
19
20
20
20
20
19
17
14
12
10
9
9
7
6
3
1
-1
-2
-2
-3
-4
-3
-2
-3
-5
-7
-7
-8
-10
-10
-9
-8
-7
-7
-5
-3
-2
0
1
4
7
9
12
15
17
18
19
21
22
23
23
24
25
27
29
32
34
35
37
39
41
41
41
42
42
44
44
45
47
48
50
50
52
52
52
51
52
52
52
52
52
53
52
50
49
48
48
47
47
46
46
43
43
42
42
42
41
41
40
40
39
38
38
37
38
37
39
39
40
39
39
38
38
39
39
40
40
40
38
37
37
35
34
34
35
34
34
34
34
35
35
36
36
37
37
37
38
38
38
37
38
37
36
35
34
35
35
36
36
38
39
39
39
39
39
37
36
35
36
35
35
36
35
34
32
33
33
33
33
32
32
31
32
31
31
31
33
33
33
34
33
34
34
36
38
39
39
40
41
40
40
40
40
39
39
39
39
39
38
38
37
36
34
33
32
31
31
31
31
30
29
28
28
30
30
30
29
29
29
27
26
24
24
24
25
26
26
25
23
22
21
19
18
18
18
18
18
16
15
15
14
14
14
14
13
12
12
13
14
14
15
16
17
19
21
24
29
36
50
67
84
94
102
108
111
114
116
124
134
148
160
170
178
183
188
188
187
182
176
165
149
125
93
62
38
23
14
10
8
6
6
5
4
3
3
3
2
1
0
0
0
0
0
0
0
-1
0
0
1
1
0
0
-1
-1
-1
-1
-1
-1
-1
0
1
1
1
2
4
7
8
8
8
9
9
11
12
12
12
12
12
13
13
12
12
12
11
10
9
8
7
7
7
7
5
3
0
-2
-5
-8
-11
-12
-14
-16
-17
-18
-19
-20
-20
-21
-20
-20
-21
-21
-20
-20
-20
-19
-18
-16
-15
-14
-14
-13
-11
-11
-9
-6
-3
-1
2
4
6
7
9
11
15
19
20
20
21
23
23
25
27
28
29
29
30
29
29
30
31
32
32
31
30
31
31
31
31
32
32
31
30
30
30
29
28
28
28
28
27
28
28
28
27
28
29
30
31
30
31
29
27
24
22
22
21
21
19
19
18
17
15
15
15
15
15
14
16
16
16
15
14
15
14
14
14
15
14
15
15
15
16
16
17
18
18
17
16
16
16
16
16
17
18
19
19
19
18
17
16
15
16
16
15
14
14
13
13
12
11
10
11
11
10
10
11
10
9
9
9
10
10
11
13
15
16
16
16
16
15
14
15
15
16
15
14
14
14
14
12
12
13
13
13
12
12
12
13
13
15
15
15
16
16
16
15
13
12
12
13
13
13
13
13
13
12
12
12
11
10
10
10
10
9
6
4
2
1
0
0
-1
-2
-4
-6
-6
-7
-8
-8
-8
-7
-6
-5
-4
-2
-2
-4
-3
-2
-1
0
0
0
0
0
0
0
2
3
5
9
17
29
45
60
71
80
84
88
87
89
95
106
119
131
142
146
152
154
159
158
155
150
141
130
107
80
49
26
11
3
-1
-4
-5
-8
-10
-11
-11
-12
-14
-14
-16
-18
-19
-21
-21
-21
-22
-21
-19
-18
-17
-16
-15
-14
-14
-15
-16
-16
-15
-15
-14
-13
-12
-11
-10
-9
-8
-7
-6
-5
-5
-4
-3
-1
0
2
2
3
3
3
3
2
1
0
0
-1
-2
-3
-3
-3
-3
-3
-3
-4
-4
-6
-8
-9
-10
-11
-11
-13
-15
-16
-16
-16
-17
-19
-21
-22
-22
-23
-23
-23
-23
-24
-23
-22
-21
-21
-21
-20
-18
-17
-16
-15
-13
-12
-11
-10
-8
-6
-4
-2
-1
0
2
4
6
8
11
14
17
19
19
18
18
19
21
21
22
22
24
25
25
25
25
26
26
26
26
26
26
25
25
25
25
24
25
25
24
23
22
22
22
21
21
20
20
19
17
17
16
15
13
12
13
14
13
13
13
14
15
14
13
12
12
10
9
7
7
7
7
6
5
4
3
1
0
0
0
0
1
1
1
1
1
2
1
1
1
2
1
0
0
0
2
2
2
3
3
3
3
4
4
4
3
3
3
3
2
2
4
4
5
5
6
5
6
5
4
4
4
3
3
3
2
1
0
0
0
0
0
0
0
0
0
0
0
0
0
1
2
3
4
4
3
3
3
2
2
2
3
3
3
2
1
0
0
-1
0
0
0
-1
-2
-4
-4
-4
-5
-6
-6
-6
-7
-8
-9
-9
-8
-9
-9
-9
-9
-9
-10
-10
-10
-10
-10
-10
-10
-10
-12
-13
-14
-14
-14
-14
-14
-14
-15
-16
-16
-16
-16
-16
-16
-16
-15
-15
-14
-13
-11
-10
-8
-3
5
20
39
54
66
74
79
82
84
90
98
112
123
136
142
149
149
150
151
145
140
129
117
95
67
37
11
-4
-14
-19
-20
-22
-23
-25
-25
-26
-26
-25
-24
-22
-22
-22
-21
-20
-21
-22
-21
-20
-19
-19
-19
-19
-20
-21
-22
-22
-23
-23
-22
-21
-20
-20
-21
-21
-19
-18
-18
-18
-17
-16
-16
-14
-13
-12
-11
-10
-9
-8
-7
-7
-6
-6
-6
-7
-8
-9
-10
-10
-10
-10
-11
-13
-16
-18
-20
-23
-25
-27
-28
-30
-32
-34
-36
-37
-38
-38
-39
-39
-40
-39
-38
-39
-39
-38
-37
-38
-37
-37
-35
-33
-32
-30
-30
-28
-27
-25
-23
-21
-20
-18
-16
-14
-10
-8
-6
-4
-2
-1
0
2
4
5
7
10
10
11
11
11
11
10
10
11
12
12
11
11
12
13
13
13
13
14
14
14
13
12
12
11
11
11
11
11
10
9
8
8
7
8
9
10
10
10
9
6
4
3
3
2
2
3
3
2
0
-2
-4
-5
-5
-5
-5
-5
-4
-4
-4
-3
-2
-2
-2
-3
-4
-5
-5
-4
-3
-1
-1
0
0
-1
-2
-3
-4
-4
-4
-4
-4
-5
-6
-6
-5
-5
-5
-5
-4
-4
-3
-4
-4
-4
-5
-6
-7
-6
-6
-6
-7
-7
-5
-4
-3
-4
-4
-5
-5
-5
-4
-3
-4
-5
-6
-8
-9
-9
-8
-7
-7
-8
-7
-6
-5
-5
-4
-4
-4
-4
-5
-5
-6
-7
-8
-8
-7
-7
-6
-5
-4
-4
-5
-5
-5
-5
-6
-7
-6
-6
-7
-8
-8
-8
-10
-13
-14
-16
-18
-18
-17
-17
-19
-21
-23
-24
-25
-26
-26
-27
-27
-28
-28
-28
-28
-28
-30
-30
-30
-28
-29
-28
-27
-26
-24
-23
-22
-22
-20
-19
-17
-15
-12
-7
3
18
34
46
55
62
65
66
66
71
81
94
105
115
124
129
135
137
140
139
135
129
116
99
71
38
11
-7
-17
-23
-28
-31
-34
-36
-38
-37
-38
-38
-39
-39
-39
-41
-42
-43
-42
-42
-43
-44
-46
-46
-48
-48
-48
-48
-50
-51
-51
-52
-51
-50
-46
-44
-41
-40
-40
-38
-37
-36
-37
-35
-33
-31
-30
-28
-26
-24
-23
-23
-21
-20
-20
-21
-21
-21
-21
-20
-20
-19
-20
-23
-25
-27
-28
-31
-32
-33
-34
-36
-39
-40
-41
-41
-43
-44
-45
-46
-46
-48
-47
-49
-50
-52
-52
-51
-51
-50
-49
-46
-46
-46
-47
-45
-44
-42
-40
-39
-37
-36
-35
-33
-31
-29
-27
-25
-22
-20
-20
-18
-16
-13
-11
-10
-9
-7
-5
-4
-2
-1
0
1
1
2
3
4
4
4
4
6
7
7
7
6
5
4
4
2
1
0
0
-1
-1
-2
-2
-1
0
-1
-2
-2
-1
-2
-3
-5
-5
-6
-6
-5
-4
-3
-5
-7
-7
-7
-6
-7
-8
-9
-10
-11
-11
-10
-8
-8
-9
-9
-9
-9
-10
-10
-8
-8
-7
-6
-5
-5
-5
-4
-4
-4
-5
-6
-6
-5
-6
-6
-6
-6
-7
-7
-7
-7
-7
-8
-7
-7
-7
-8
-9
-8
-9
-9
-11
-11
-11
-11
-11
-9
-6
-5
-5
-4
-4
-5
-6
-6
-8
-8
-8
-7
-6
-6
-6
-8
-8
-9
-9
-9
-10
-9
-8
-7
-8
-7
-6
-6
-6
-5
-4
-4
-6
-7
-6
-4
-4
-3
-1
0
0
0
0
-1
-2
-2
0
1
2
2
2
1
0
-2
-4
-5
-6
-7
-8
-9
-10
-12
-14
-16
-17
-18
-20
-21
-21
-22
-22
-23
-24
-24
-24
-24
-24
-24
-23
-24
-24
-24
-22
-22
-21
-20
-18
-17
-17
-15
-14
-12
-11
-10
-8
-5
0
7
21
37
50
59
67
73
77
80
88
99
113
127
138
147
152
158
159
161
160
158
153
143
129
105
75
42
18
2
-6
-11
-13
-15
-17
-19
-21
-22
-22
-23
-23
-22
-23
-23
-25
-27
-27
-27
-28
-30
-30
-32
-33
-36
-36
-36
-35
-32
-31
-29
-27
-26
-27
-27
-25
-22
-21
-21
-20
-19
-18
-17
-16
-15
-14
-14
-12
-10
-10
-9
-9
-9
-8
-8
-8
-8
-8
-10
-11
-13
-14
-15
-16
-16
-17
-18
-19
-21
-21
-23
-25
-28
-29
-31
-32
-33
-33
-33
-34
-36
-38
-39
-39
-39
-39
-39
-38
-38
-37
-35
-33
-33
-33
-32
-30
-28
-28
-26
-24
-21
-19
-18
-15
-12
-10
-10
-9
-9
-8
-8
-7
-6
-3
-1
0
0
1
3
4
5
7
8
9
10
11
13
14
15
15
15
15
15
16
16
17
17
16
15
15
15
14
13
12
11
10
9
9
9
10
10
11
12
9
9
8
9
8
7
7
6
7
7
5
4
2
1
0
0
1
1
0
0
0
1
1
0
0
0
0
-1
-1
-1
-1
-2
-2
-1
-1
-1
-1
-1
-1
-1
-1
0
1
2
2
1
1
1
0
1
2
3
3
2
1
1
1
1
0
0
0
-2
-3
-3
-4
-4
-5
-6
-6
-7
-7
-7
-7
-6
-6
-5
-2
-1
0
0
1
2
1
1
2
3
3
3
3
2
2
1
0
-1
-1
-1
-2
-3
-4
-5
-6
-7
-6
-5
-5
-6
-5
-5
-6
-6
-5
-4
-4
-6
-7
-6
-5
-3
-3
-3
-4
-5
-5
-5
-4
-3
-4
-4
-6
-7
-9
-11
-13
-15
-18
-21
-23
-24
-24
-25
-26
-26
-28
-27
-27
-25
-25
-24
-24
-24
-22
-22
-20
-19
-17
-16
-15
-14
-11
-8
-5
0
6
16
31
47
62
75
82
89
90
92
94
101
113
126
137
143
150
152
155
153
150
146
137
124
102
75
43
16
-3
-15
-21
-24
-25
-25
-25
-25
-25
-24
-23
-23
-24
-25
-25
-26
-27
-28
-28
-28
-29
-31
-32
-32
-32
-32
-33
-33
-32
-32
-32
-32
-32
-32
-33
-32
-31
-29
-28
-27
-26
-24
-24
-24
-23
-22
-20
-20
-19
-18
-16
-15
-14
-12
-12
-11
-11
-10
-9
-10
-11
-13
-14
-16
-18
-20
-21
-24
-26
-28
-28
-29
-32
-34
-35
-36
-38
-40
-42
-44
-45
-46
-46
-47
-48
-49
-51
-51
-50
-49
-47
-46
-45
-44
-43
-41
-37
-34
-31
-29
-26
-25
-24
-21
-18
-15
-13
-11
-10
-8
-6
-4
-2
0
0
0
-1
-1
0
0
0
0
0
1
1
2
2
2
2
2
2
2
2
2
3
3
2
3
5
6
6
6
6
5
4
4
4
5
6
8
9
10
9
7
5
5
5
5
4
3
2
1
-1
-3
-4
-6
-7
-8
-9
-10
-13
-13
-13
-12
-12
-12
-12
-11
-10
-10
-8
-7
-6
-7
-8
-9
-10
-10
-11
-10
-11
-11
-10
-8
-7
-8
-8
-8
-6
-6
-6
-6
-6
-6
-6
-7
-7
-6
-5
-4
-3
-3
-4
-6
-6
-6
-6
-5
-5
-6
-7
-8
-8
-7
-6
-7
-8
-9
-9
-10
-11
-11
-10
-8
-6
-5
-5
-5
-6
-7
-7
-6
-6
-7
-7
-6
-6
-6
-7
-7
-7
-7
-6
-6
-6
-8
-9
-8
-7
-7
-9
-10
-10
-10
-9
-9
-9
-10
-11
-12
-13
-13
-14
-14
-15
-16
-17
-18
-18
-18
-18
-20
-21
-21
-22
-22
-23
-23
-23
-24
-26
-27
-27
-27
-28
-28
-28
-29
-30
-30
-30
-30
-30
-30
-29
-26
-25
-22
-18
-14
-10
-4
7
22
35
47
57
65
71
73
77
82
95
107
122
134
141
146
146
147
143
141
133
120
99
67
36
9
-6
-16
-23
-26
-28
-29
-30
-32
-32
-33
-34
-36
-37
-36
-35
-34
-34
-33
-33
-33
-33
-33
-33
-33
-34
-35
-35
-36
-36
-35
-34
-34
-33
-32
-31
-29
-28
-28
-27
-25
-24
-23
-21
-20
-19
-19
-19
-18
-17
-16
-15
-13
-12
-11
-12
-12
-11
-11
-12
-13
-14
-14
-15
-15
-16
-16
-17
-18
-19
-20
-22
-23
-24
-25
-27
-29
-30
-31
-31
-33
-34
-35
-36
-37
-39
-38
-38
-38
-38
-37
-35
-35
-35
-35
-33
-32
-32
-30
-28
-26
-25
-23
-21
-18
-15
-12
-10
-7
-4
-2
0
2
4
5
7
9
11
12
14
16
19
20
21
22
23
23
23
24
25
25
24
24
24
24
24
23
22
22
21
20
20
20
20
20
18
18
17
16
15
14
14
14
14
13
13
12
11
11
12
13
12
12
12
11
10
10
10
10
10
10
11
13
13
12
12
12
13
12
10
10
11
10
9
9
10
10
9
9
9
9
8
8
9
9
8
10
11
11
12
12
12
12
13
14
14
15
15
15
15
16
17
16
16
15
15
15
15
15
15
14
13
13
14
13
12
11
11
12
12
12
13
13
14
13
13
13
13
12
13
13
12
12
13
15
16
16
16
16
16
16
16
16
15
14
13
13
12
11
10
10
10
10
11
10
10
10
9
9
9
10
8
7
6
6
7
8
7
6
6
5
4
3
1
1
0
0
-1
-1
-2
-4
-6
-7
-8
-8
-8
-8
-7
-7
-6
-5
-5
-6
-6
-5
-5
-6
-5
-4
-2
-1
-1
0
3
8
17
30
48
65
77
86
93
98
99
103
110
123
135
144
152
156
161
161
163
159
155
144
128
107
77
48
23
6
-4
-10
-13
-15
-17
-20
-21
-19
-17
-16
-16
-16
-16
-16
-16
-16
-16
-16
-17
-18
-19
-18
-19
-19
-21
-21
-23
-23
-23
-23
-22
-23
-24
-23
-23
-23
-22
-20
-18
-18
-18
-17
-16
-15
-15
-15
-13
-12
-11
-9
-7
-6
-5
-4
-2
-1
-1
-3
-4
-5
-7
-9
-11
-13
-16
-19
-21
-22
-23
-25
-26
-27
-28
-29
-31
-31
-32
-33
-35
-37
-38
-39
-38
-38
-35
-34
-34
-34
-32
-29
-27
-26
-25
-23
-23
-23
-23
-23
-21
-21
-21
-20
-18
-17
-16
-14
-13
-12
-11
-10
-9
-6
-3
-2
0
2
4
6
8
11
13
14
14
13
15
16
16
15
15
16
16
17
17
17
17
16
16
16
15
14
13
13
12
12
10
10
9
9
8
8
8
8
7
6
5
4
4
3
3
3
2
3
2
2
1
0
0
0
0
-2
-2
-1
-1
-1
-4
-6
-6
-6
-7
-6
-3
-1
0
0
0
0
1
1
2
2
1
0
0
2
3
4
4
4
4
5
5
4
5
5
6
5
5
5
5
3
1
1
0
-1
-2
-2
-2
-3
-3
-3
-3
-4
-7
-8
-8
-7
-5
-3
-2
0
0
0
2
3
4
3
3
3
3
4
5
6
7
7
7
6
6
5
4
5
5
5
4
3
1
1
0
0
-2
-2
-2
-1
0
0
0
-2
-3
-4
-5
-7
-7
-5
-3
-2
-2
-1
0
0
-1
-2
-2
-2
-3
-4
-5
-5
-6
-7
-7
-7
-7
-7
-8
-8
-8
-9
-10
-9
-8
-7
-7
-7
-5
-4
-3
-3
-4
-5
-6
-5
-5
-2
-1
2
8
20
36
51
63
74
81
86
91
95
104
114
128
141
153
163
168
173
173
176
173
168
161
147
123
91
62
38
21
9
2
0
-2
-3
-5
-7
-8
-10
-11
-11
-11
-12
-13
-13
-13
-12
-12
-11
-12
-13
-14
-15
-13
-12
-10
-9
-8
-7
-8
-9
-8
-6
-5
-4
-3
-1
0
0
1
1
3
4
4
5
8
10
11
11
11
11
12
12
14
15
15
14
15
14
13
12
11
12
11
10
8
8
7
6
4
3
0
-2
-3
-3
-3
-4
-5
-8
-10
-12
-14
-14
-14
-13
-14
-14
-13
-11
-9
-8
-7
-6
-4
-4
-2
0
2
3
5
7
9
11
13
15
16
19
19
21
23
25
26
27
29
31
33
33
34
35
37
39
40
42
41
40
39
39
40
40
40
40
41
41
41
40
40
41
41
41
39
39
38
38
37
37
36
33
31
31
30
30
31
33
33
33
32
33
33
33
33
33
35
34
34
35
36
37
37
38
38
38
38
37
36
36
35
34
35
35
35
35
34
33
31
29
28
27
26
24
24
25
26
28
29
31
33
32
32
30
30
30
30
30
30
30
29
30
30
30
30
29
29
29
29
29
30
30
30
30
30
30
29
29
28
29
29
27
27
26
26
25
25
27
28
29
28
29
29
29
27
28
27
27
28
28
28
27
27
26
26
27
27
26
25
26
26
26
26
26
25
25
24
25
25
25
25
24
22
20
18
17
17
16
15
13
12
10
9
9
8
7
7
7
7
5
3
1
1
0
-2
-4
-3
-3
-3
-2
0
2
3
2
4
5
6
5
4
5
5
6
6
8
11
14
18
26
39
54
71
83
94
100
102
105
106
116
125
141
152
160
165
166
170
170
171
163
156
145
127
104
72
46
26
13
4
0
-2
-3
-4
-5
-6
-8
-10
-11
-11
-12
-13
-13
-13
-15
-18
-19
-19
-19
-17
-16
-15
-14
-13
-12
-12
-10
-10
-9
-8
-6
-4
-4
-4
-3
-4
-5
-4
-3
-3
-5
-6
-5
-6
-6
-7
-8
-8
-9
-10
-11
-10
-10
-11
-11
-11
-12
-14
-16
-18
-19
-20
-21
-21
-21
-21
-21
-22
-22
-24
-27
-29
-31
-33
-34
-35
-35
-36
-39
-40
-41
-42
-44
-44
-43
-42
-42
-42
-41
-40
-38
-38
-37
-36
-35
-35
-34
-32
-29
-26
-24
-21
-19
-17
-15
-12
-10
-9
-8
-7
-4
-3
-1
1
4
6
7
8
8
9
9
9
9
10
11
12
13
14
14
13
12
11
11
11
10
11
11
10
9
8
8
7
6
6
5
5
4
4
3
2
1
0
-1
-2
-3
-2
-1
0
1
2
4
6
7
7
7
6
5
4
4
5
7
7
8
8
7
6
4
3
3
2
1
2
2
3
2
2
1
0
-1
-2
-2
-2
-2
-2
-2
-1
0
0
1
2
3
3
4
4
5
5
5
6
7
8
8
8
8
7
7
6
5
4
3
2
2
2
0
-1
-2
-3
-4
-4
-2
0
-1
-2
-2
-2
0
0
0
1
3
4
4
6
7
7
7
7
8
8
7
6
5
6
6
6
6
6
5
4
4
2
1
1
0
0
2
3
2
1
0
-1
-1
-1
0
0
0
-1
-1
0
0
-1
-3
-3
-5
-6
-6
-6
-6
-7
-8
-10
-11
-13
-13
-12
-12
-12
-13
-13
-12
-11
-10
-10
-9
-8
-8
-6
-3
1
6
13
24
35
51
71
95
116
132
147
156
157
144
124
101
78
56
32
11
-2
-8
-10
-13
-13
-13
-12
-12
-13
-12
-12
-12
-12
-12
-12
-12
-12
-11
-10
-8
-7
-5
-4
-3
-3
-3
-3
-3
-3
-3
-4
-3
-3
-3
-3
-3
-2
-3
-4
-3
-2
-1
0
0
1
1
1
1
3
4
5
6
8
11
13
15
17
19
21
21
22
23
23
22
22
23
23
23
24
24
24
23
22
21
21
20
19
17
17
16
15
15
14
14
14
14
13
13
13
14
15
17
18
19
20
23
26
26
27
28
29
30
30
31
31
32
32
32
33
34
36
37
39
40
40
40
42
43
43
44
45
47
47
47
47
47
48
47
45
43
42
42
42
43
43
43
42
40
39
39
40
38
38
37
36
35
35
35
34
34
32
33
31
30
29
29
30
29
29
29
30
29
29
30
29
29
28
28
28
28
26
26
24
22
20
18
18
18
18
18
17
18
18
18
20
21
21
21
20
19
19
19
19
19
20
19
19
19
20
21
21
20
20
19
19
19
19
20
20
19
19
18
18
17
16
16
15
16
17
18
18
19
20
21
22
22
22
21
22
22
21
21
20
19
17
18
18
19
19
18
18
18
17
16
15
16
16
16
15
15
14
13
12
13
15
17
16
15
15
15
15
14
15
17
18
19
20
22
24
24
24
24
24
24
24
23
24
23
23
21
19
16
13
12
11
9
7
5
4
3
2
0
0
1
1
0
1
2
3
3
2
3
4
5
6
8
10
10
10
10
11
12
12
12
11
14
16
17
18
18
18
18
18
18
20
21
24
30
41
57
74
87
97
104
107
109
111
118
127
140
151
160
168
171
175
177
178
176
172
168
157
139
112
81
53
33
21
13
8
5
3
1
-1
-2
-2
-3
-4
-5
-6
-7
-7
-6
-7
-8
-9
-9
-9
-10
-12
-11
-11
-12
-13
-12
-9
-8
-9
-10
-10
-9
-9
-8
-7
-6
-4
-2
-1
1
3
2
2
2
3
3
2
3
5
5
4
3
3
1
0
-1
-2
-3
-3
-4
-5
-6
-7
-8
-9
-9
-10
-12
-14
-14
-14
-15
-15
-16
-17
-19
-20
-20
-20
-21
-24
-24
-24
-25
-26
-26
-26
-26
-26
-26
-25
-24
-23
-22
-21
-21
-19
-19
-18
-17
-16
-15
-14
-11
-9
-6
-3
0
3
5
7
10
13
16
18
20
22
25
27
28
28
29
29
28
28
28
29
29
29
29
28
28
27
26
25
24
23
24
24
25
25
26
27
27
26
25
26
26
26
25
26
26
26
25
26
26
25
24
22
22
21
20
19
19
20
18
18
17
17
17
17
16
16
15
14
15
17
18
18
18
18
18
18
18
19
19
20
19
19
20
20
20
19
20
19
20
20
20
20
20
20
20
20
18
18
17
17
17
17
18
19
20
20
20
20
20
21
20
19
19
19
19
19
21
20
20
19
19
19
18
17
17
17
16
15
15
16
16
15
15
15
15
13
13
14
16
17
16
15
15
16
15
15
16
17
18
17
18
18
18
17
17
17
16
15
14
14
13
11
9
8
9
8
7
7
6
5
3
3
3
3
3
2
1
0
-1
-2
-2
-2
-4
-3
-2
0
0
0
0
0
1
2
3
6
8
9
8
8
8
8
9
10
13
17
24
36
53
68
77
85
88
93
95
103
115
132
146
156
166
171
178
178
179
175
170
160
142
120
87
57
34
21
13
7
4
1
0
-1
-5
-8
-9
-9
-8
-8
-8
-8
-9
-10
-10
-9
-8
-8
-8
-7
-7
-7
-7
-6
-6
-7
-7
-7
-5
-3
-1
1
3
3
3
2
3
4
4
4
5
5
4
4
4
5
5
5
6
7
8
8
8
8
9
8
7
7
7
8
10
11
12
12
11
9
7
5
3
0
-2
-5
-7
-10
-12
-15
-17
-18
-19
-20
-22
-24
-24
-22
-21
-20
-20
-19
-18
-17
-17
-14
-13
-12
-11
-8
-5
-1
2
6
10
12
13
15
16
19
22
25
28
31
32
34
35
37
38
36
36
36
37
36
37
36
36
35
33
33
34
35
34
35
35
35
34
33
33
32
32
32
31
31
30
28
27
26
25
24
24
25
24
24
25
26
26
26
26
27
27
27
26
26
26
26
25
26
26
27
28
27
27
26
24
23
22
23
23
22
21
20
20
19
19
19
19
17
15
15
16
15
14
13
13
14
14
15
17
18
18
18
20
22
24
25
27
26
27
26
26
27
27
27
27
28
29
28
27
27
25
24
23
22
22
22
22
22
23
23
22
21
21
21
20
20
20
20
20
18
19
19
20
20
20
22
22
23
21
21
22
20
20
19
19
19
19
19
20
20
19
20
21
22
22
22
22
23
23
23
22
23
24
24
24
24
23
22
21
19
17
16
15
15
15
14
12
10
9
6
3
0
0
0
-2
-3
-4
-4
-4
-3
-2
-2
-4
-5
-5
-5
-4
-2
0
2
4
6
10
14
19
26
39
57
75
87
98
103
108
108
110
115
126
140
149
159
162
169
170
173
171
168
163
149
135
109
79
48
26
13
4
-1
-5
-7
-7
-7
-7
-8
-7
-8
-9
-10
-10
-11
-12
-11
-11
-12
-14
-15
-15
-15
-16
-16
-15
-14
-14
-13
-13
-12
-13
-13
-13
-12
-11
-11
-10
-9
-8
-8
-8
-6
-3
-2
-2
-1
-1
0
-1
-2
-2
-2
-1
-2
-2
-1
-2
-3
-3
-3
-2
-1
-2
-2
-4
-5
-9
-12
-13
-14
-14
-15
-15
-17
-19
-22
-24
-25
-28
-28
-29
-30
-32
-34
-34
-34
-34
-35
-34
-35
-35
-34
-33
-31
-29
-27
-27
-25
-23
-22
-20
-18
-14
-11
-9
-8
-6
-4
-3
-2
0
2
4
4
6
8
10
12
12
13
13
13
14
15
16
16
17
16
18
18
19
20
21
21
20
20
20
21
22
22
23
22
21
19
18
16
16
15
15
15
15
13
12
11
11
10
10
9
8
7
5
4
3
3
3
3
3
2
2
2
4
5
5
5
4
5
6
5
5
6
6
6
6
8
8
8
7
7
7
7
6
6
8
7
6
6
6
7
8
9
9
10
10
10
10
10
10
10
10
10
9
7
5
4
3
2
0
-1
-2
-3
-3
-2
-1
-2
-2
-2
-2
-1
-1
0
1
2
2
2
2
2
3
4
4
3
2
2
3
4
5
5
5
6
6
6
6
6
6
5
3
3
3
3
1
0
0
0
0
-1
-1
-1
-2
-2
-2
-2
-4
-5
-5
-6
-5
-5
-5
-5
-7
-8
-8
-8
-8
-10
-12
-14
-14
-16
-18
-19
-18
-18
-18
-18
-18
-18
-18
-17
-17
-15
-14
-14
-12
-11
-10
-8
-6
-5
-4
-1
5
18
35
52
65
74
79
82
85
90
97
107
117
129
140
147
152
154
157
156
156
152
144
130
107
79
48
23
6
-3
-8
-9
-9
-10
-12
-12
-13
-14
-14
-15
-16
-18
-19
-19
-19
-18
-18
-18
-19
-19
-20
-19
-20
-21
-22
-23
-23
-23
-23
-23
-22
-23
-22
-22
-20
-17
-15
-14
-13
-10
-8
-7
-6
-4
-2
-1
-2
-2
-2
-2
-2
-2
-1
0
0
0
-1
-2
-3
-4
-5
-4
-4
-4
-4
-5
-4
-4
-4
-4
-5
-6
-8
-9
-10
-11
-12
-14
-14
-13
-13
-13
-13
-13
-13
-14
-14
-13
-14
-13
-14
-13
-14
-14
-14
-13
-12
-11
-10
-9
-8
-7
-7
-5
-2
1
3
4
5
6
8
8
11
13
15
18
21
23
24
24
25
26
27
29
30
31
31
31
31
32
31
32
31
30
29
29
29
28
27
27
28
28
28
28
26
26
24
23
22
22
21
21
21
21
21
20
21
20
19
19
18
19
18
18
18
18
18
17
17
17
17
16
15
15
16
15
14
14
15
15
15
15
14
15
14
15
15
15
15
15
15
16
17
18
17
17
17
15
13
12
12
13
12
12
13
13
12
11
10
11
11
11
10
10
11
12
12
13
15
15
15
14
15
15
14
14
15
17
16
16
15
16
15
14
14
13
12
11
9
9
8
8
7
8
8
8
7
7
7
7
5
5
6
7
8
8
8
8
7
7
8
9
10
10
11
11
12
12
11
10
10
9
7
6
5
4
1
0
0
0
-2
-4
-5
-7
-9
-11
-13
-13
-14
-15
-17
-17
-18
-19
-20
-19
-17
-16
-15
-14
-13
-13
-12
-11
-10
-8
-7
-6
-5
-4
-5
-5
-5
-3
-2
0
4
13
26
43
60
74
86
92
95
97
101
109
119
133
144
154
159
164
164
163
160
155
150
139
123
98
70
41
19
2
-8
-14
-16
-19
-21
-22
-22
-23
-25
-25
-26
-27
-27
-26
-24
-23
-22
-21
-20
-20
-20
-19
-19
-19
-20
-20
-21
-19
-18
-17
-17
-15
-14
-15
-15
-16
-15
-16
-16
-16
-15
-14
-14
-14
-13
-13
-13
-13
-13
-12
-12
-11
-10
-9
-8
-8
-8
-7
-8
-9
-11
-12
-12
-12
-13
-14
-16
-17
-18
-19
-20
-22
-25
-28
-29
-30
-32
-33
-34
-34
-34
-35
-35
-36
-36
-38
-39
-40
-38
-38
-37
-36
-35
-33
-32
-32
-31
-29
-29
-28
-27
-26
-25
-22
-17
-14
-12
-10
-8
-6
-6
-5
-4
-1
0
2
3
5
7
9
11
13
14
15
15
15
16
17
17
17
18
19
18
16
14
14
14
14
14
14
13
11
10
10
10
11
12
12
12
13
12
11
11
9
8
8
9
8
8
8
8
9
9
9
8
8
8
7
7
8
7
6
6
6
6
6
6
5
4
3
4
5
6
4
3
3
3
2
2
2
2
3
4
5
6
7
7
7
8
8
8
7
8
8
8
8
9
11
12
11
10
10
10
9
9
9
8
7
5
5
5
4
4
4
4
2
1
1
3
4
4
4
5
6
5
4
4
4
4
2
1
2
2
2
4
5
5
5
4
4
3
2
1
0
1
3
3
3
2
1
2
3
5
6
7
7
6
5
3
2
2
1
0
-1
-2
-3
-5
-7
-9
-9
-11
-12
-12
-13
-14
-15
-16
-16
-16
-17
-17
-17
-16
-15
-14
-12
-11
-11
-12
-11
-10
-9
-8
-6
-5
-5
-6
-6
-4
-2
0
6
20
37
53
66
73
80
82
84
87
95
107
120
132
141
151
155
160
162
164
162
156
147
130
109
77
46
20
4
-5
-11
-12
-13
-15
-17
-19
-19
-19
-20
-20
-21
-23
-26
-27
-28
-29
-30
-31
-30
-30
-29
-29
-27
-26
-25
-25
-25
-23
-22
-21
-22
-22
-22
-22
-21
-21
-20
-20
-18
-17
-15
-13
-13
-12
-11
-10
-9
-8
-7
-5
-5
-4
-2
-1
-1
-1
-1
-1
-2
-2
-2
-3
-5
-9
-12
-13
-14
-15
-18
-21
-23
-25
-26
-27
-30
-33
-35
-36
-36
-37
-38
-38
-38
-38
-38
-38
-36
-35
-33
-32
-30
-27
-26
-24
-22
-21
-20
-20
-19
-17
-14
-12
-10
-9
-6
-5
-2
-1
1
2
3
6
9
10
9
9
9
10
9
11
13
15
16
17
18
19
19
19
21
23
23
23
22
22
22
22
22
20
18
16
16
16
16
15
14
13
12
11
10
8
7
6
4
4
5
7
8
7
7
6
6
7
8
9
8
8
7
7
8
9
11
12
12
11
12
12
13
12
11
11
12
13
13
12
10
9
9
10
11
9
7
6
5
6
6
7
9
11
11
12
13
13
12
11
11
10
11
11
11
10
9
8
7
6
6
7
6
6
6
6
6
6
6
7
6
6
6
6
7
7
8
9
10
11
11
12
13
14
14
15
16
16
16
15
15
14
13
12
12
12
10
10
9
8
6
4
3
2
3
3
3
4
4
4
3
4
6
6
5
4
4
4
4
5
5
5
4
3
3
2
1
0
0
0
-1
-2
-4
-5
-6
-8
-9
-9
-9
-9
-9
-8
-8
-8
-8
-8
-6
-4
-3
-2
-1
0
1
3
7
10
17
25
39
56
72
84
91
98
100
103
106
117
130
144
157
165
173
173
175
172
171
165
156
144
123
97
64
39
23
13
8
5
3
3
1
0
0
0
0
-2
-4
-5
-6
-7
-8
-9
-10
-10
-11
-11
-11
-11
-12
-13
-13
-13
-14
-14
-13
-14
-14
-14
-12
-10
-8
-6
-4
-2
-1
0
3
6
8
10
11
12
13
13
12
12
13
13
12
12
11
10
9
8
7
7
6
4
3
2
0
-1
-4
-7
-9
-10
-11
-13
-15
-16
-17
-15
-14
-15
-16
-17
-17
-19
-20
-20
-21
-20
-20
-20
-20
-20
-21
-20
-19
-18
-16
-15
-13
-12
-11
-9
-5
-1
0
1
3
6
8
9
10
13
16
20
23
25
27
28
30
31
34
35
36
36
38
39
40
39
38
37
36
35
34
34
34
32
31
31
31
30
29
28
28
26
25
24
24
25
25
25
25
24
24
23
22
21
20
19
19
18
18
17
18
19
20
20
20
20
20
19
18
18
18
17
17
17
18
18
17
16
15
15
15
15
16
17
18
17
17
17
17
16
14
13
12
11
9
8
7
8
7
6
6
6
5
4
3
3
3
2
0
0
1
1
1
0
1
3
4
6
7
8
8
7
7
7
6
6
6
6
5
5
5
4
4
3
2
3
2
0
0
0
0
-1
-2
-2
-2
-2
-2
-3
-3
-3
-3
-4
-3
-1
0
0
0
0
0
0
0
0
0
-1
-2
-2
-1
-3
-5
-6
-6
-8
-9
-11
-12
-13
-14
-16
-17
-18
-18
-19
-20
-22
-22
-23
-23
-23
-23
-23
-25
-27
-28
-29
-29
-30
-28
-28
-28
-29
-29
-29
-30
-31
-32
-32
-31
-29
-26
-22
-19
-17
-15
-11
-4
5
20
37
52
61
69
74
79
81
85
92
104
119
127
135
139
145
147
148
147
141
137
124
108
81
50
22
0
-12
-18
-23
-26
-28
-28
-29
-31
-34
-36
-39
-42
-43
-43
-41
-39
-38
-36
-35
-33
-33
-32
-31
-31
-32
-32
-31
-31
-30
-31
-30
-29
-28
-26
-26
-24
-24
-23
-23
-21
-19
-18
-18
-17
-16
-16
-16
-16
-15
-14
-14
-14
-13
-12
-13
-14
-16
-18
-21
-24
-24
-22
-20
-20
-20
-20
-20
-21
-22
-23
-26
-28
-32
-33
-34
-35
-36
-37
-37
-38
-38
-40
-40
-40
-41
-41
-42
-42
-42
-42
-42
-42
-42
-42
-41
-39
-37
-37
-37
-36
-35
-35
-35
-34
-30
-26
-24
-21
-18
-15
-14
-12
-8
-5
-4
-2
0
1
3
4
6
6
6
7
9
11
11
12
12
12
10
9
9
8
9
8
8
7
7
8
7
5
4
3
0
-1
-1
0
3
4
4
4
4
4
4
5
6
7
8
8
8
8
8
8
8
8
8
9
9
9
8
8
8
9
9
7
5
4
3
3
2
2
3
3
4
5
6
5
3
2
2
3
4
5
7
8
8
9
10
11
10
9
10
11
11
9
8
9
9
8
8
8
7
6
6
7
7
6
7
7
7
7
5
5
5
6
7
7
8
9
10
11
10
9
8
8
8
8
8
7
8
10
12
12
12
11
10
10
10
10
11
10
9
9
10
10
9
8
8
8
7
8
8
9
10
10
11
11
12
11
11
11
10
9
8
7
6
4
3
2
1
0
0
-1
-2
-3
-5
-7
-7
-8
-9
-9
-10
-11
-11
-12
-11
-10
-9
-7
-5
-4
-4
-3
-2
-1
0
0
2
2
3
5
9
15
25
40
57
71
81
87
91
93
96
101
109
122
133
144
149
155
157
159
159
157
156
150
142
124
99
71
45
27
13
5
1
-1
-4
-6
-7
-9
-10
-11
-13
-13
-14
-13
-13
-13
-13
-14
-13
-14
-14
-14
-13
-12
-11
-10
-10
-10
-11
-12
-11
-8
-7
-7
-6
-5
-5
-5
-5
-4
-2
-1
0
2
3
3
3
3
4
4
4
5
4
3
2
2
3
4
4
3
3
3
2
2
1
1
1
0
-2
-4
-6
-8
-11
-14
-14
-17
-19
-19
-20
-20
-22
-23
-26
-28
-28
-27
-26
-27
-26
-25
-23
-21
-21
-20
-20
-19
-18
-16
-13
-11
-9
-7
-5
-2
-1
-1
0
2
4
5
6
8
10
12
13
13
15
16
16
17
18
20
21
21
23
25
27
28
28
28
27
26
26
28
28
28
27
28
28
27
26
24
24
23
24
24
24
23
21
19
17
15
14
13
13
13
12
10
9
9
9
8
8
8
9
10
10
11
12
13
14
16
17
17
16
16
16
16
16
16
15
14
13
12
11
11
11
12
11
11
9
9
9
10
10
10
11
13
13
12
11
10
10
11
12
12
13
12
12
11
12
12
12
11
9
8
8
7
6
6
6
6
6
5
4
2
1
2
3
2
1
2
2
2
2
2
2
2
2
4
6
8
9
9
8
8
9
8
7
5
4
4
3
3
3
2
2
1
0
0
1
2
2
2
1
0
0
-1
-1
0
0
-1
-2
-2
-1
-1
-1
-1
-1
-1
-3
-4
-4
-3
-7
-11
-12
-13
-14
-15
-16
-17
-18
-18
-18
-17
-17
-17
-17
-16
-17
-16
-14
-13
-13
-12
-11
-8
-5
-1
1
6
14
27
43
59
71
81
85
88
89
94
102
114
125
135
142
147
153
155
158
155
151
145
136
121
97
70
43
23
8
0
-5
-8
-11
-14
-15
-15
-15
-16
-18
-19
-20
-19
-17
-15
-14
-16
-16
-18
-19
-20
-21
-22
-21
-20
-20
-21
-20
-21
-19
-18
-16
-16
-14
-13
-11
-9
-8
-6
-4
-2
-1
-1
0
0
-1
-2
-2
-3
-4
-5
-5
-3
-3
-3
-4
-4
-4
-6
-8
-9
-9
-9
-10
-10
-10
-10
-11
-12
-14
-15
-17
-18
-18
-18
-18
-20
-22
-23
-24
-25
-27
-28
-29
-31
-32
-32
-32
-31
-32
-31
-30
-30
-30
-31
-30
-29
-27
-26
-23
-21
-21
-19
-18
-16
-14
-11
-8
-4
-2
0
2
5
8
11
14
16
17
16
16
15
16
16
17
19
21
21
19
17
17
18
18
18
17
17
17
16
16
17
18
18
18
18
18
17
16
16
15
13
11
11
12
12
11
12
13
13
11
11
12
13
12
11
10
9
8
8
9
9
10
10
11
11
10
9
8
8
9
9
10
11
13
14
14
13
13
12
12
10
10
9
8
9
10
10
9
9
9
9
9
7
7
8
8
7
7
8
9
7
5
4
3
4
4
5
5
5
6
7
8
7
7
7
7
7
5
4
2
2
2
2
1
0
0
0
0
1
3
4
5
6
8
10
10
10
10
9
8
8
8
6
5
4
5
4
5
5
6
7
6
5
4
5
5
5
4
4
2
0
-1
-1
-1
-2
-4
-5
-6
-8
-9
-10
-11
-11
-12
-12
-13
-13
-13
-12
-11
-11
-11
-11
-11
-12
-12
-13
-13
-13
-12
-12
-11
-11
-11
-11
-11
-9
-7
-7
-7
-6
-4
-3
0
5
16
33
50
63
75
82
88
89
92
96
106
117
128
140
147
155
156
161
162
162
158
150
142
125
103
72
43
23
9
1
-3
-5
-6
-8
-10
-12
-12
-12
-13
-14
-14
-14
-14
-13
-12
-13
-14
-14
-15
-17
-19
-20
-20
-21
-21
-22
-23
-22
-21
-18
-18
-17
-17
-16
-17
-17
-17
-16
-16
-15
-12
-10
-9
-6
-3
-1
0
2
2
3
4
5
6
7
7
7
6
6
6
6
5
4
3
1
-2
-3
-4
-4
-5
-8
-10
-11
-12
-13
-15
-16
-17
-18
-19
-19
-21
-22
-24
-25
-25
-25
-25
-27
-27
-25
-25
-24
-23
-22
-22
-22
-20
-18
-16
-14
-12
-11
-9
-8
-5
-3
-1
0
3
6
9
11
13
14
16
19
21
23
25
28
30
31
33
34
35
35
37
38
39
37
36
35
35
36
35
35
35
36
36
36
36
34
34
32
32
32
33
33
34
35
34
32
29
27
26
26
26
27
29
30
30
29
28
27
27
26
26
27
27
28
28
28
28
28
30
31
32
31
30
29
29
27
27
27
27
28
28
30
30
30
30
29
29
30
31
30
31
33
35
35
35
36
36
36
35
32
31
30
29
29
28
27
26
26
27
27
26
26
26
26
25
23
23
23
21
20
20
21
22
22
21
21
22
23
23
23
22
21
20
21
23
24
24
24
24
24
24
25
25
25
25
25
25
25
25
25
25
26
27
26
26
25
24
24
24
24
22
21
18
17
17
17
17
15
15
14
13
12
11
11
10
9
6
5
4
3
3
4
5
4
3
1
1
1
1
1
2
3
3
3
4
4
5
4
3
2
2
1
1
2
3
3
4
5
6
6
9
19
34
53
69
81
90
96
101
102
107
115
127
140
153
164
168
173
172
174
171
168
161
150
136
110
83
56
36
22
10
3
-1
-4
-7
-9
-10
-11
-13
-16
-18
-18
-18
-18
-18
-16
-16
-15
-15
-14
-12
-11
-9
-8
-6
-7
-8
-8
-7
-5
-4
-3
-3
-2
-3
-3
-1
-1
-2
-3
-3
-2
-2
-2
-1
-1
-1
-2
-2
-2
0
0
0
1
1
1
1
2
3
2
1
0
-2
-3
-5
-7
-8
-9
-11
-13
-16
-19
-21
-23
-24
-26
-27
-29
-30
-31
-33
-35
-36
-37
-37
-37
-36
-36
-35
-34
-32
-31
-29
-28
-27
-26
-26
-25
-24
-21
-19
-16
-16
-15
-13
-10
-8
-8
-6
-5
-3
-2
-1
0
0
1
3
5
7
8
8
8
9
9
9
10
11
10
8
7
8
9
10
10
10
9
7
7
7
8
9
8
8
9
9
7
5
5
4
4
4
4
6
7
8
8
9
10
10
8
8
9
10
10
9
7
5
4
2
1
0
-1
-1
0
0
0
0
0
0
-1
-2
-2
-2
-2
-2
-1
0
1
2
1
2
2
3
3
5
5
4
4
4
4
4
3
3
3
3
2
2
3
3
1
0
0
0
0
-1
-1
-1
-1
-2
-3
-3
-3
-1
0
3
4
4
2
0
0
0
0
0
1
1
1
1
0
0
0
0
-1
-2
-2
-1
0
0
-1
-2
-1
-1
-1
-2
-3
-3
-3
-3
-3
-3
-3
-3
-3
-3
-2
-1
-1
-1
0
0
0
0
3
6
7
7
7
7
4
3
2
0
0
-2
-4
-5
-7
-9
-8
-6
-5
-5
-6
-6
-7
-7
-8
-8
-8
-9
-8
-7
-5
-5
-4
-2
-1
-1
-1
0
4
9
18
32
50
66
77
86
90
92
94
99
109
121
135
145
153
160
164
167
166
166
160
151
134
110
79
49
26
12
4
0
-2
-2
-2
-4
-7
-7
-6
-5
-5
-7
-7
-9
-9
-8
-8
-8
-8
-8
-8
-7
-6
-5
-4
-3
-3
-4
-5
-7
-8
-9
-9
-7
-5
-3
-2
0
0
0
0
1
2
2
2
2
3
4
4
4
5
5
5
5
5
5
6
6
6
7
8
9
9
9
11
10
9
8
7
4
2
0
-1
-4
-6
-9
-11
-13
-15
-17
-18
-21
-23
-23
-23
-22
-23
-23
-24
-24
-22
-22
-20
-18
-16
-16
-15
-12
-8
-4
-1
2
5
7
9
11
14
17
19
22
25
27
29
30
31
31
32
33
36
37
38
37
36
37
36
38
38
40
41
41
40
40
40
40
39
39
40
42
42
41
41
42
41
40
38
37
37
36
36
35
35
33
31
31
30
31
29
28
27
27
26
25
28
28
29
29
29
28
27
27
26
28
28
29
30
32
33
31
31
33
34
35
35
33
31
29
28
27
27
28
28
27
25
24
22
20
20
22
22
22
22
22
22
21
20
20
20
20
20
21
22
23
23
24
26
28
28
28
29
31
32
33
31
31
31
30
29
28
27
25
24
24
24
24
24
25
25
25
24
23
23
22
20
19
18
17
17
17
18
18
19
19
18
17
17
17
18
20
19
18
17
17
18
18
19
19
21
22
22
22
21
20
18
16
14
14
11
8
5
3
2
2
4
5
4
3
1
1
0
-2
-3
-4
-5
-5
-6
-5
-2
-2
-3
-2
-1
0
2
2
3
3
3
4
7
10
14
17
22
28
42
58
77
90
101
107
110
112
113
119
127
141
151
161
165
168
172
172
174
169
167
157
145
125
98
70
41
22
10
4
0
-3
-4
-5
-6
-7
-7
-5
-3
-2
-2
-2
-3
-3
-4
-5
-6
-6
-7
-8
-8
-9
-10
-12
-13
-13
-12
-13
-14
-16
-17
-17
-16
-14
-12
-12
-12
-11
-10
-8
-7
-5
-3
-1
0
1
3
5
6
7
7
7
7
6
6
5
4
3
3
1
0
-3
-5
-5
-4
-6
-8
-10
-12
-13
-15
-18
-19
-20
-21
-23
-24
-24
-24
-25
-24
-24
-23
-23
-23
-22
-21
-21
-22
-23
-24
-24
-24
-23
-22
-21
-19
-17
-16
-14
-12
-9
-7
-5
-2
-1
0
2
3
5
4
6
8
10
13
16
19
22
24
26
29
30
31
31
31
32
30
30
30
31
29
28
28
28
28
27
26
25
26
25
25
24
25
25
25
25
25
26
25
24
24
26
27
27
29
29
30
29
28
28
29
30
31
32
31
30
28
27
27
26
25
24
21
19
17
18
19
20
18
17
17
16
16
16
16
16
17
17
18
20
22
22
21
21
23
24
22
21
20
20
20
20
21
22
24
25
26
25
24
22
21
21
21
20
19
18
18
18
18
17
16
16
15
14
14
14
14
13
13
14
13
12
11
10
10
9
10
10
11
12
11
12
13
16
17
19
19
20
19
19
20
21
22
21
21
20
19
18
19
20
20
20
18
17
17
16
16
15
15
13
11
10
11
11
8
6
3
0
-1
-2
-1
0
0
0
1
2
1
0
0
-2
-3
-4
-5
-4
-3
-2
-2
-2
-1
-2
-2
0
1
3
3
4
5
5
5
5
7
9
12
16
21
28
40
56
74
87
99
104
108
110
114
122
132
145
153
163
166
172
174
176
175
168
163
151
139
115
88
62
41
27
17
11
8
6
4
3
1
0
-1
-2
-2
-2
-4
-5
-5
-5
-5
-6
-5
-5
-4
-4
-3
-2
-2
-2
-2
-2
-3
-2
-1
0
0
1
1
1
3
3
3
4
5
6
6
6
8
10
12
12
12
13
12
13
15
17
17
17
18
17
15
13
12
11
11
11
10
10
8
5
2
0
-1
-4
-6
-7
-8
-10
-12
-13
-14
-14
-16
-17
-19
-18
-19
-19
-18
-18
-17
-16
-14
-12
-11
-9
-8
-6
-4
-3
-1
0
2
4
4
5
8
11
14
18
22
25
28
29
30
31
33
35
37
39
38
38
38
39
40
40
41
39
38
37
37
38
38
38
36
36
36
36
35
35
35
35
35
33
32
30
30
30
31
32
32
32
32
34
33
33
33
33
33
33
34
34
36
36
37
36
36
35
32
31
31
31
32
33
33
32
30
29
27
26
25
24
24
25
26
26
26
26
27
26
25
26
28
28
28
29
30
29
28
29
31
32
31
32
31
30
28
27
27
26
26
24
25
25
25
24
23
23
21
20
18
18
17
17
16
16
15
14
15
16
18
19
19
20
21
21
20
20
20
21
21
20
20
20
20
21
21
21
22
24
25
27
27
28
28
29
28
27
25
23
22
20
20
19
18
17
17
18
18
17
16
16
15
13
11
10
9
7
5
2
1
1
0
0
-1
-1
-1
-2
-2
-3
-2
-3
-3
-3
-2
0
2
4
6
5
4
3
4
4
3
4
7
9
9
9
9
11
15
20
28
40
56
71
83
94
100
103
103
106
113
123
136
148
159
164
170
173
174
173
170
164
152
135
110
83
57
38
24
14
9
6
3
2
0
0
-2
-4
-6
-6
-7
-10
-12
-14
-15
-17
-18
-18
-18
-18
-18
-19
-20
-22
-22
-20
-17
-15
-12
-10
-7
-5
-4
-2
-1
0
0
1
1
2
3
3
3
3
2
2
2
3
4
3
2
1
0
-2
-3
-3
-2
-1
0
0
-1
-1
-3
-5
-7
-8
-9
-10
-10
-9
-10
-13
-15
-16
-17
-20
-21
-23
-25
-27
-29
-31
-32
-32
-32
-32
-33
-33
-34
-34
-33
-32
-30
-30
-28
-27
-25
-25
-23
-21
-19
-17
-13
-7
-4
0
1
2
4
6
9
12
15
16
18
19
21
21
21
21
21
21
21
20
20
21
21
21
20
20
19
17
16
16
16
15
14
14
15
14
12
12
11
11
10
11
11
12
12
12
12
11
11
12
13
14
12
11
10
10
9
9
11
11
12
12
10
9
8
7
8
8
8
8
7
6
6
5
5
5
4
3
1
0
0
0
-1
-1
0
0
0
-1
-1
-1
0
1
3
4
3
4
4
5
5
6
7
8
8
8
6
7
7
7
6
6
7
7
6
3
1
0
0
0
0
0
-1
-3
-3
-4
-5
-7
-7
-6
-6
-5
-4
-2
-2
-2
-2
-1
-1
-2
-2
-1
0
3
3
3
4
4
4
2
0
0
0
0
0
0
0
-1
-1
-2
-3
-5
-7
-9
-10
-10
-10
-10
-9
-9
-9
-8
-7
-8
-9
-10
-10
-8
-9
-9
-9
-8
-9
-11
-13
-14
-14
-14
-15
-17
-18
-19
-19
-19
-20
-20
-21
-21
-21
-19
-19
-18
-19
-18
-15
-11
-6
-2
3
14
30
46
59
68
77
81
86
88
94
104
117
129
137
147
152
160
160
161
159
153
146
131
113
83
50
21
2
-7
-13
-16
-18
-20
-22
-23
-23
-22
-21
-21
-22
-22
-22
-21
-21
-20
-20
-22
-23
-24
-24
-24
-25
-25
-26
-26
-28
-27
-27
-24
-22
-21
-22
-23
-23
-22
-21
-19
-18
-19
-19
-19
-19
-18
-18
-16
-15
-14
-12
-11
-11
-11
-11
-11
-11
-13
-15
-16
-16
-16
-18
-19
-20
-22
-24
-26
-27
-30
-33
-35
-35
-36
-36
-38
-41
-44
-47
-48
-49
-49
-50
-51
-52
-52
-53
-54
-53
-51
-48
-46
-45
-43
-41
-39
-38
-37
-36
-34
-32
-31
-28
-27
-25
-24
-21
-18
-14
-12
-8
-5
-3
-2
0
1
3
5
7
8
9
9
10
11
13
14
13
13
12
11
10
10
11
11
10
9
9
9
9
10
12
12
12
10
9
8
10
11
14
17
19
20
19
19
19
18
16
15
15
15
15
15
15
15
14
13
12
11
9
8
6
6
6
7
9
10
10
9
9
8
8
8
8
8
7
7
7
7
7
7
7
7
7
6
5
5
5
4
4
6
7
10
11
10
9
8
7
6
7
8
9
8
7
6
5
3
2
2
2
2
1
1
2
3
4
5
7
7
6
5
4
4
4
4
5
5
4
3
1
0
0
-1
-2
-2
-2
-2
-3
-3
-2
-1
-1
-1
-2
-3
-5
-5
-3
-1
0
0
0
0
-1
-2
-5
-6
-6
-5
-3
-2
-2
-3
-3
-2
-2
-3
-5
-6
-7
-9
-10
-11
-13
-15
-17
-20
-22
-23
-23
-25
-25
-25
-24
-24
-23
-22
-22
-22
-22
-21
-19
-19
-19
-20
-19
-20
-19
-19
-19
-19
-18
-17
-16
-15
-16
-20
-18
-6
15
44
71
96
115
129
133
121
103
81
63
44
23
4
-12
-21
-25
-27
-28
-28
-26
-26
-26
-26
-26
-25
-26
-26
-28
-29
-30
-29
-28
-26
-25
-26
-27
-27
-26
-26
-25
-24
-23
-21
-21
-21
-21
-21
-21
-20
-19
-19
-19
-20
-19
-18
-15
-14
-13
-13
-12
-12
-13
-13
-13
-14
-14
-14
-14
-15
-15
-15
-12
-10
-7
-5
-4
-2
-1
0
0
2
2
1
0
0
0
0
0
0
0
-2
-3
-5
-6
-8
-9
-10
-12
-14
-17
-19
-18
-18
-17
-19
-19
-19
-19
-18
-16
-13
-10
-7
-5
-3
-1
0
0
1
1
3
4
6
7
8
9
9
9
9
9
10
11
13
13
13
13
13
12
10
8
7
7
7
8
9
8
8
6
6
5
4
3
1
2
3
4
3
3
4
4
3
0
-2
-4
-6
-8
-8
-7
-7
-8
-10
-10
-12
-14
-15
-16
-15
-17
-19
-21
-21
-19
-18
-17
-17
-17
-20
-23
-23
-22
-20
-20
-18
-17
-15
-15
-15
-14
-15
-16
-18
-19
-21
-21
-21
-20
-20
-20
-21
-23
-23
-24
-25
-24
-23
-23
-25
-27
-29
-28
-27
-26
-26
-26
-25
-25
-23
-21
-20
-21
-21
-21
-22
-22
-22
-21
-21
-22
-23
-24
-24
-24
-25
-28
-29
-29
-28
-28
-30
-32
-34
-34
-34
-33
-33
-33
-31
-29
-27
-28
-29
-28
-26
-26
-26
-25
-25
-24
-25
-25
-25
-26
-26
-28
-28
-29
-30
-31
-32
-33
-33
-32
-31
-30
-31
-32
-33
-32
-31
-30
-31
-32
-32
-32
-30
-29
-29
-30
-31
-32
-33
-33
-34
-35
-36
-35
-35
-36
-36
-37
-38
-39
-38
-36
-36
-37
-39
-38
-39
-39
-41
-41
-40
-39
-39
-40
-39
-39
-37
-36
-34
-31
-30
-29
-29
-26
-25
-23
-22
-21
-18
-15
-11
-5
4
17
31
45
56
63
68
70
73
79
89
102
115
129
137
144
146
148
147
143
139
129
114
87
53
19
-5
-20
-30
-36
-39
-42
-42
-44
-44
-46
-48
-50
-51
-50
-52
-51
-51
-51
-52
-53
-54
-56
-57
-60
-60
-60
-58
-57
-56
-54
-55
-55
-56
-53
-51
-51
-52
-53
-51
-50
-48
-48
-46
-46
-45
-44
-44
-43
-44
-44
-44
-44
-44
-44
-43
-42
-42
-42
-41
-41
-42
-43
-45
-45
-46
-48
-51
-54
-56
-58
-59
-61
-61
-65
-67
-70
-70
-72
-74
-73
-75
-74
-77
-78
-80
-80
-80
-81
-79
-79
-77
-77
-76
-75
-74
-72
-69
-63
-60
-56
-56
-54
-52
-52
-51
-49
-46
-45
-43
-41
-38
-35
-33
-32
-30
-26
-23
-20
-19
-17
-17
-16
-16
-16
-16
-17
-16
-15
-14
-15
-16
-15
-14
-13
-13
-12
-11
-11
-11
-11
-10
-10
-10
-8
-5
-3
-2
-3
-5
-7
-10
-10
-9
-9
-9
-11
-11
-12
-13
-15
-15
-16
-16
-16
-16
-16
-17
-18
-18
-19
-18
-19
-20
-21
-22
-24
-26
-26
-25
-23
-23
-23
-23
-23
-25
-26
-27
-28
-29
-30
-29
-28
-27
-27
-28
-27
-29
-29
-29
-27
-23
-19
-17
-14
-14
-14
-14
-14
-13
-13
-13
-13
-15
-18
-21
-22
-23
-24
-27
-30
-31
-32
-31
-32
-33
-32
-32
-31
-33
-34
-37
-38
-38
-37
-36
-35
-35
-35
-34
-36
-36
-36
-33
-32
-32
-31
-30
-27
-25
-23
-22
-21
-22
-23
-22
-23
-24
-27
-28
-29
-31
-32
-32
-29
-28
-28
-29
-30
-32
-34
-35
-37
-37
-38
-38
-37
-38
-38
-39
-40
-40
-39
-40
-39
-39
-39
-40
-43
-44
-45
-44
-43
-41
-40
-40
-40
-42
-42
-44
-43
-42
-40
-39
-40
-39
-39
-38
-37
-36
-35
-34
-34
-34
-30
-24
-12
4
23
39
49
54
59
62
69
79
94
108
119
127
132
137
139
140
136
131
123
111
93
68
40
10
-13
-30
-39
-44
-45
-46
-46
-48
-50
-52
-54
-55
-56
-58
-59
-59
-58
-57
-56
-54
-53
-54
-53
-55
-55
-56
-54
-52
-50
-49
-48
-47
-48
-49
-49
-48
-46
-46
-44
-45
-43
-42
-41
-41
-40
-38
-39
-38
-40
-40
-41
-40
-38
-36
-35
-37
-37
-37
-36
-37
-37
-37
-37
-37
-38
-39
-39
-40
-42
-44
-45
-47
-49
-52
-53
-54
-55
-56
-58
-60
-63
-63
-64
-63
-63
-64
-64
-65
-66
-67
-66
-65
-63
-62
-62
-60
-58
-56
-55
-53
-52
-51
-50
-47
-43
-40
-36
-33
-30
-29
-28
-27
-26
-23
-21
-18
-16
-14
-13
-13
-13
-11
-10
-9
-9
-9
-9
-9
-9
-9
-8
-7
-8
-9
-8
-8
-7
-6
-6
-6
-7
-8
-7
-7
-7
-7
-6
-5
-5
-6
-7
-7
-8
-10
-11
-13
-13
-15
-16
-16
-15
-16
-17
-18
-18
-18
-19
-19
-19
-18
-17
-16
-16
-16
-16
-17
-16
-17
-17
-16
-15
-14
-12
-11
-10
-10
-11
-11
-12
-12
-11
-12
-13
-14
-14
-15
-16
-17
-17
-16
-17
-18
-17
-17
-17
-18
-19
-19
-17
-17
-17
-17
-17
-16
-14
-12
-11
-12
-13
-14
-14
-13
-12
-11
-11
-12
-14
-14
-14
-15
-17
-18
-18
-17
-18
-19
-19
-18
-17
-18
-19
-19
-19
-20
-19
-17
-16
-15
-15
-14
-14
-15
-16
-15
-14
-14
-12
-10
-8
-7
-7
-9
-10
-12
-13
-14
-13
-12
-13
-14
-15
-16
-17
-19
-20
-21
-22
-24
-26
-26
-26
-27
-28
-29
-31
-33
-33
-33
-32
-34
-35
-36
-34
-31
-28
-27
-26
-25
-25
-25
-24
-24
-24
-23
-24
-25
-26
-28
-28
-28
-26
-24
-19
-10
2
18
31
43
52
59
63
66
70
81
94
110
124
134
143
146
151
150
152
147
143
134
119
98
66
37
10
-7
-18
-26
-30
-33
-35
-37
-38
-39
-42
-43
-44
-45
-45
-46
-45
-47
-48
-49
-49
-48
-48
-48
-48
-48
-49
-51
-53
-53
-52
-52
-51
-50
-48
-47
-46
-46
-46
-44
-43
-42
-41
-40
-39
-39
-40
-41
-39
-36
-31
-27
-23
-22
-22
-21
-21
-21
-22
-23
-23
-23
-24
-24
-24
-26
-28
-31
-33
-36
-38
-39
-40
-40
-42
-43
-44
-44
-45
-46
-48
-50
-51
-52
-52
-54
-53
-52
-52
-52
-52
-51
-50
-49
-48
-47
-45
-44
-42
-41
-39
-38
-38
-37
-36
-35
-34
-32
-29
-24
-22
-19
-17
-16
-14
-13
-11
-8
-6
-4
-2
-2
-1
-1
0
2
5
8
8
9
10
10
10
10
10
9
9
9
11
11
10
8
8
8
8
7
6
5
4
1
0
0
0
0
-1
-1
-1
0
0
0
1
1
1
0
0
-1
-2
-3
-3
-4
-6
-7
-7
-7
-7
-7
-9
-9
-9
-10
-9
-8
-6
-4
-4
-5
-6
-8
-9
-9
-7
-6
-7
-8
-7
-6
-7
-7
-7
-6
-6
-6
-5
-6
-5
-5
-5
-4
-4
-4
-5
-7
-7
-6
-6
-7
-7
-6
-6
-7
-6
-6
-8
-8
-7
-5
-5
-4
-3
-3
-4
-4
-4
-3
-2
-2
-2
-1
-1
-2
-2
-3
-4
-5
-7
-9
-9
-7
-7
-7
-6
-7
-7
-9
-10
-11
-11
-12
-13
-12
-13
-13
-15
-14
-13
-13
-13
-15
-15
-14
-12
-11
-9
-7
-8
-8
-8
-7
-7
-8
-8
-7
-7
-9
-10
-12
-14
-16
-18
-19
-20
-20
-23
-24
-25
-25
-26
-27
-27
-27
-28
-28
-27
-26
-27
-28
-28
-27
-26
-26
-26
-25
-23
-22
-21
-18
-14
-11
-7
-3
4
18
37
55
69
77
84
87
90
94
100
112
122
135
142
149
152
153
156
154
154
147
141
127
107
80
49
23
5
-5
-12
-17
-21
-25
-27
-28
-28
-26
-24
-23
-23
-22
-22
-21
-21
-23
-23
-23
-23
-25
-26
-25
-25
-25
-26
-25
-25
-24
-25
-25
-26
-25
-25
-26
-25
-24
-21
-19
-18
-17
-17
-18
-19
-18
-18
-20
-20
-20
-20
-20
-19
-18
-16
-15
-13
-11
-10
-10
-10
-10
-9
-8
-9
-10
-10
-12
-13
-16
-17
-19
-21
-23
-25
-27
-30
-32
-35
-37
-41
-44
-45
-46
-47
-49
-49
-51
-51
-52
-52
-49
-47
-44
-44
-42
-40
-39
-39
-38
-35
-33
-30
-27
-23
-20
-18
-17
-15
-13
-11
-9
-5
0
2
2
2
2
2
2
3
4
4
4
5
6
6
5
5
6
7
7
7
8
8
9
9
11
12
11
11
11
11
12
12
12
13
14
13
11
9
8
7
6
5
5
5
4
2
1
1
1
0
0
0
-1
-2
-3
-3
-3
-4
-4
-3
-2
-1
0
0
0
1
3
4
4
3
3
3
3
3
2
2
2
0
-1
-2
-2
-2
-3
-4
-3
-2
-2
-2
-2
-2
-4
-6
-6
-5
-3
-1
0
0
0
-1
0
0
1
0
0
1
3
3
1
0
1
2
2
1
1
2
1
0
0
0
0
0
-1
-2
-3
-3
-3
-2
-2
-2
-2
0
2
3
2
1
1
1
2
4
6
6
6
5
5
6
5
6
8
8
8
7
7
7
7
6
5
4
4
4
2
0
0
-1
-2
-2
-2
-3
-5
-5
-4
-5
-8
-9
-9
-10
-11
-11
-10
-11
-12
-13
-12
-12
-11
-12
-13
-13
-11
-9
-9
-8
-7
-6
-4
-1
3
8
13
21
35
50
65
76
87
93
96
97
102
112
125
139
150
160
164
168
170
170
168
163
156
138
113
80
49
27
13
4
-1
-4
-6
-8
-9
-10
-9
-11
-11
-10
-9
-8
-7
-5
-4
-5
-6
-5
-5
-6
-7
-8
-7
-7
-8
-8
-9
-9
-11
-12
-12
-11
-10
-10
-10
-9
-8
-7
-5
-2
1
3
4
6
8
10
11
13
13
13
14
15
16
17
17
16
16
15
14
12
10
9
7
6
6
5
3
0
-1
-2
-2
-2
-3
-3
-4
-6
-7
-6
-6
-7
-8
-9
-9
-10
-9
-8
-6
-6
-4
-5
-5
-5
-6
-6
-6
-4
-2
-1
1
4
7
9
13
18
23
26
28
30
32
34
38
41
45
47
48
49
51
51
52
53
54
55
56
56
57
57
59
58
58
57
55
54
52
52
50
49
48
48
46
45
45
45
47
47
49
51
53
53
52
52
50
50
48
50
50
51
50
49
49
48
47
45
45
47
48
48
47
46
44
44
43
44
45
45
46
45
45
44
44
44
45
44
44
44
43
44
43
44
45
46
46
45
45
44
42
41
41
42
43
44
44
44
43
42
42
43
44
45
47
48
50
48
46
45
46
46
44
43
42
42
42
42
43
42
42
41
42
43
44
42
41
42
43
43
43
44
44
46
45
45
45
45
45
44
43
42
42
44
47
48
47
45
43
42
40
40
40
40
40
39
39
39
40
39
38
39
40
41
40
40
40
38
34
33
33
33
33
32
32
32
31
31
32
33
32
32
31
31
31
30
30
28
26
24
22
21
21
22
23
24
25
27
26
26
26
27
27
27
29
31
33
36
44
57
75
92
107
119
126
132
133
138
144
156
169
180
191
197
202
201
202
199
193
185
172
152
124
95
68
50
38
30
27
23
21
19
18
17
15
12
10
11
11
11
12
12
12
13
13
13
15
15
15
15
16
17
15
16
16
17
16
15
15
14
14
14
15
16
16
16
16
17
17
19
20
22
23
24
24
25
25
26
27
29
31
31
32
31
30
29
28
28
27
28
27
26
26
24
21
19
19
19
17
14
12
10
7
4
4
5
5
4
3
3
3
2
2
3
3
3
2
3
3
4
6
8
9
10
10
10
13
15
17
16
15
15
16
17
18
21
24
27
28
30
32
34
36
39
42
43
45
47
49
49
50
52
54
55
55
55
53
52
51
50
51
52
51
48
46
46
47
47
47
46
43
41
40
39
39
37
35
34
35
35
36
38
39
40
39
39
37
39
39
40
41
43
44
41
41
41
42
41
41
41
41
40
39
38
36
35
34
35
36
36
34
32
32
32
33
32
32
32
31
29
28
29
29
30
30
29
28
27
27
27
29
30
31
31
33
34
35
36
36
36
35
34
34
35
35
34
33
33
34
33
34
35
36
36
34
33
32
32
32
33
34
33
32
31
30
28
28
29
30
31
30
30
29
30
29
29
28
27
27
27
27
28
30
31
30
30
31
32
31
32
31
32
31
31
33
33
34
33
34
33
33
32
31
30
29
28
26
24
23
21
19
19
20
20
19
17
17
16
16
15
14
14
13
14
15
17
18
16
15
15
16
18
20
21
22
24
25
28
31
36
41
51
67
85
98
105
113
115
120
122
129
139
150
161
169
179
183
188
187
188
184
179
171
154
133
102
76
53
41
33
28
25
23
22
21
19
18
18
18
18
18
17
16
15
13
12
11
10
8
8
7
6
5
5
6
7
7
8
9
10
11
12
13
15
15
16
17
19
21
21
22
23
24
24
24
25
27
28
28
27
25
25
23
24
24
24
24
26
28
31
31
30
30
29
28
27
26
24
22
20
18
17
16
15
12
10
9
7
5
2
1
0
-1
-1
-1
0
0
-1
-2
-2
-2
-2
-2
-2
-1
0
1
3
6
9
11
13
15
17
19
21
25
27
30
32
35
37
41
42
45
47
49
51
50
51
50
51
51
52
53
52
51
49
49
48
47
45
45
45
44
43
41
40
39
41
44
46
46
45
46
46
45
43
41
40
39
37
35
35
35
36
37
39
41
42
43
43
43
42
41
39
37
37
36
34
32
31
30
29
29
28
29
28
27
26
27
28
27
27
27
27
25
25
24
23
25
26
28
29
29
29
31
32
32
32
32
33
33
34
32
32
31
30
29
28
29
30
31
30
30
30
29
29
28
28
26
25
24
24
24
25
26
27
27
27
26
26
26
26
26
27
27
27
27
29
31
31
31
29
28
27
27
28
29
29
28
28
28
29
27
26
24
21
20
20
21
21
22
22
22
21
21
19
17
16
17
18
18
18
16
15
14
15
16
15
14
14
14
13
12
13
13
13
11
8
6
4
3
3
2
2
1
1
1
1
2
2
1
2
4
6
7
8
9
10
11
13
17
24
36
54
70
86
96
106
111
116
118
122
132
142
155
161
171
173
177
178
177
175
168
163
148
132
103
70
41
20
8
1
-2
-1
-2
-4
-6
-7
-7
-9
-10
-10
-9
-10
-11
-12
-13
-14
-14
-14
-13
-13
-13
-13
-12
-10
-9
-9
-9
-8
-7
-7
-8
-7
-5
-3
-2
-2
0
0
0
0
1
3
4
5
6
7
9
9
9
9
9
8
8
8
8
6
5
6
5
4
3
3
2
0
0
-1
-3
-7
-9
-11
-11
-12
-14
-15
-15
-16
-16
-17
-17
-18
-19
-19
-18
-16
-13
-11
-10
-9
-9
-9
-9
-9
-9
-9
-9
-8
-6
-6
-5
-4
-3
-1
0
2
4
7
8
10
12
14
14
16
19
21
24
26
29
31
32
31
31
33
35
37
39
42
44
46
46
46
47
46
45
42
41
38
37
37
38
38
37
37
36
35
35
35
35
35
33
32
32
31
31
31
30
29
28
27
27
27
26
25
24
23
22
20
19
19
19
20
21
24
26
28
28
31
34
35
35
34
32
30
31
33
35
36
36
35
34
35
34
34
33
33
32
31
29
27
28
29
30
29
27
25
24
24
25
25
24
23
23
24
24
26
28
30
32
32
32
30
30
30
30
30
29
30
30
30
29
29
30
30
31
31
31
31
29
27
26
26
27
28
28
28
28
28
29
31
33
33
33
34
36
36
36
37
38
40
39
40
39
38
37
36
37
36
34
32
31
30
28
27
24
22
19
17
16
16
16
15
14
13
11
9
8
9
10
10
10
11
12
12
11
11
12
14
15
18
21
23
24
26
28
28
29
29
33
42
54
71
86
98
107
113
117
118
121
126
135
146
157
166
172
180
183
188
187
184
177
167
154
129
100
69
47
33
25
21
17
15
12
11
9
8
8
8
7
5
4
4
5
5
3
2
1
1
2
3
3
4
5
4
3
3
3
3
5
7
7
8
10
11
12
12
13
13
14
15
14
13
13
14
15
17
20
20
21
22
24
25
25
25
25
25
23
22
22
22
22
22
23
25
27
26
23
21
18
17
15
14
11
9
7
3
1
-1
-2
-3
-5
-7
-10
-11
-12
-12
-10
-8
-6
-5
-5
-5
-3
-1
1
3
5
7
9
10
13
15
17
19
21
23
26
29
32
36
40
41
43
44
46
47
47
49
51
53
52
53
53
54
54
53
54
54
54
54
54
54
52
51
48
48
46
45
43
42
40
39
40
40
41
40
39
38
37
37
37
37
38
39
37
36
36
36
37
37
38
38
38
35
33
32
31
30
30
32
33
33
31
31
31
31
30
28
28
27
27
26
26
26
26
26
26
26
27
28
30
32
33
32
31
31
31
29
28
29
30
30
28
27
26
26
25
24
24
24
25
24
23
22
21
19
17
18
19
20
22
24
24
24
23
22
24
24
25
26
28
29
30
31
31
32
33
33
33
33
31
30
31
33
34
32
30
26
23
20
18
20
22
23
22
20
20
19
18
18
18
17
17
15
15
14
14
13
13
15
15
15
14
14
13
12
14
15
18
18
16
14
13
12
9
10
11
10
8
7
8
9
8
7
7
6
5
4
4
5
5
4
4
5
5
5
5
6
9
11
14
18
24
34
49
64
79
90
98
104
106
109
110
118
129
142
154
163
171
174
177
176
173
169
164
156
140
116
84
54
31
17
8
1
-3
-5
-6
-7
-9
-11
-11
-11
-11
-13
-14
-15
-15
-16
-17
-18
-19
-21
-23
-21
-19
-15
-14
-15
-16
-17
-17
-18
-18
-18
-17
-16
-16
-16
-17
-17
-17
-14
-13
-12
-12
-12
-11
-10
-10
-9
-8
-6
-5
-5
-5
-6
-8
-10
-9
-6
-2
0
0
-2
-4
-6
-7
-8
-9
-12
-15
-17
-19
-23
-27
-30
-33
-35
-38
-41
-43
-45
-46
-49
-52
-54
-56
-56
-54
-49
-45
-41
-39
-39
-40
-41
-41
-39
-36
-33
-31
-30
-28
-24
-22
-20
-17
-14
-13
-12
-11
-10
-8
-6
-3
-2
-1
-1
0
2
3
3
5
7
7
7
7
6
6
6
5
6
6
5
3
2
2
3
3
3
3
2
1
0
0
-1
-2
-3
-4
-5
-6
-7
-7
-6
-6
-5
-5
-5
-5
-6
-6
-4
-4
-5
-8
-10
-9
-8
-7
-8
-8
-7
-7
-8
-8
-7
-7
-6
-6
-7
-7
-7
-6
-6
-5
-4
-4
-5
-6
-5
-6
-5
-5
-6
-6
-8
-8
-9
-9
-9
-8
-8
-9
-11
-11
-11
-12
-12
-13
-13
-13
-14
-14
-14
-12
-11
-11
-12
-13
-12
-12
-12
-13
-12
-12
-13
-15
-14
-13
-12
-11
-10
-10
-12
-12
-12
-10
-9
-10
-9
-8
-8
-9
-10
-10
-11
-11
-10
-8
-6
-5
-4
-4
-3
-2
-2
-1
0
0
-1
-2
-3
-3
-5
-7
-9
-9
-10
-11
-11
-12
-14
-17
-18
-17
-17
-17
-18
-17
-16
-15
-15
-14
-14
-15
-16
-17
-19
-21
-23
-24
-24
-24
-25
-25
-26
-25
-26
-26
-26
-25
-23
-21
-18
-16
-15
-16
-17
-17
-16
-17
-17
-15
-13
-11
-8
-3
3
17
35
53
66
76
80
83
88
94
104
115
128
137
148
152
159
163
164
163
156
153
142
130
104
72
41
17
4
-6
-14
-18
-20
-20
-20
-21
-21
-21
-21
-21
-20
-21
-22
-23
-24
-24
-25
-24
-24
-26
-26
-26
-26
-26
-25
-22
-20
-18
-17
-15
-12
-10
-9
-9
-9
-8
-8
-9
-8
-6
-4
-3
-2
0
0
0
0
0
0
0
1
2
3
3
4
4
3
2
0
0
-1
-3
-5
-6
-6
-4
-4
-4
-6
-8
-10
-13
-16
-18
-21
-24
-25
-27
-28
-29
-28
-26
-26
-27
-27
-27
-27
-28
-28
-27
-27
-27
-26
-23
-20
-16
-14
-12
-12
-10
-8
-6
-5
-3
-2
0
3
7
9
11
13
17
21
23
25
27
28
28
29
31
30
31
31
33
32
32
32
33
35
35
36
35
35
33
32
30
28
26
23
22
20
20
20
20
20
20
19
19
21
21
20
18
18
17
15
12
10
8
6
5
6
8
10
11
13
14
15
14
13
14
14
15
13
12
10
9
8
8
9
10
9
8
7
6
5
7
11
14
13
12
11
11
11
11
12
11
11
10
11
11
12
12
10
9
7
7
8
10
10
9
8
8
10
10
8
5
4
5
4
4
4
3
3
2
1
1
1
2
1
0
-1
-2
-2
-1
0
0
1
2
3
3
3
4
6
6
5
5
7
8
8
7
7
8
9
10
11
10
9
5
3
4
6
8
7
5
4
2
0
0
0
2
3
3
2
1
-1
-3
-4
-6
-8
-10
-12
-14
-16
-18
-19
-20
-20
-20
-18
-16
-15
-15
-15
-16
-15
-15
-14
-14
-14
-15
-17
-19
-19
-19
-18
-18
-17
-17
-14
-10
-1
13
31
48
64
73
81
84
86
89
97
110
122
135
143
152
156
160
164
163
163
155
145
127
104
76
48
26
6
-6
-15
-20
-23
-25
-27
-29
-30
-30
-31
-31
-32
-32
-34
-35
-36
-37
-37
-38
-38
-41
-42
-43
-42
-40
-40
-37
-34
-30
-27
-24
-21
-21
-22
-24
-25
-24
-22
-20
-19
-18
-18
-18
-19
-18
-17
-16
-15
-15
-16
-17
-18
-19
-19
-19
-20
-20
-19
-19
-18
-16
-14
-13
-13
-16
-19
-23
-26
-28
-29
-30
-32
-36
-38
-38
-38
-37
-36
-35
-36
-39
-41
-42
-42
-43
-42
-44
-45
-46
-44
-41
-38
-35
-35
-33
-34
-33
-31
-31
-29
-29
-28
-27
-23
-19
-18
-17
-16
-14
-12
-12
-12
-10
-7
-4
-3
-1
0
0
1
2
3
4
6
7
8
9
10
10
11
11
10
10
10
10
10
9
9
11
14
15
15
14
12
10
9
9
7
6
4
3
2
1
0
0
1
2
2
1
0
0
-1
0
0
2
5
5
3
3
4
4
4
3
3
3
3
3
3
4
3
1
1
0
-1
-1
0
1
2
0
0
0
0
1
1
3
4
4
4
4
4
4
4
4
2
0
0
0
3
5
7
8
8
8
7
6
6
6
6
4
4
5
6
4
2
1
0
-1
-3
-1
0
0
0
-1
-1
-1
-1
0
1
2
2
3
3
4
3
3
2
3
4
6
8
10
11
11
9
7
5
4
4
5
7
8
8
8
8
7
4
0
-2
-2
-3
-3
-3
-3
-3
-3
-2
-1
0
0
1
2
0
-3
-6
-8
-7
-7
-7
-8
-9
-10
-11
-12
-13
-14
-16
-16
-17
-18
-18
-17
-15
-13
-12
-14
-14
-13
-12
-11
-10
-8
-6
-1
7
22
39
54
65
75
81
84
84
87
94
104
118
130
141
148
153
156
156
155
151
145
134
119
94
61
28
6
-5
-12
-15
-17
-18
-20
-22
-23
-25
-28
-29
-29
-28
-27
-27
-28
-28
-27
-26
-25
-26
-27
-29
-29
-27
-27
-28
-31
-30
-29
-28
-28
-28
-28
-29
-29
-28
-26
-24
-22
-20
-19
-17
-17
-17
-17
-16
-15
-15
-14
-14
-14
-14
-15
-15
-14
-13
-14
-13
-12
-12
-15
-17
-18
-19
-19
-18
-17
-18
-21
-23
-25
-27
-30
-32
-33
-32
-33
-35
-37
-39
-41
-44
-45
-46
-46
-47
-47
-47
-44
-42
-42
-41
-42
-41
-42
-41
-40
-40
-37
-34
-28
-25
-22
-22
-20
-17
-14
-10
-8
-6
-4
-4
-3
-1
2
3
3
4
4
3
3
3
5
8
10
10
10
9
8
7
6
5
4
2
0
0
0
0
1
2
3
3
3
4
5
5
4
4
4
5
5
4
5
4
3
1
1
1
1
0
-2
-5
-7
-9
-10
-9
-9
-12
-14
-15
-15
-16
-17
-19
-19
-20
-21
-21
-21
-19
-17
-14
-10
-9
-8
-8
-6
-5
-5
-5
-6
-5
-5
-5
-7
-8
-8
-8
-8
-9
-9
-10
-11
-13
-13
-13
-12
-12
-12
-11
-12
-13
-14
-14
-14
-15
-15
-15
-16
-18
-19
-18
-17
-16
-14
-12
-11
-11
-12
-12
-12
-13
-13
-13
-13
-14
-15
-16
-17
-17
-18
-18
-16
-14
-13
-13
-16
-17
-18
-19
-19
-20
-20
-22
-23
-23
-21
-18
-17
-18
-20
-20
-21
-19
-17
-16
-17
-19
-19
-18
-18
-19
-21
-21
-20
-20
-22
-24
-27
-30
-32
-33
-35
-36
-37
-39
-39
-40
-40
-39
-37
-37
-38
-40
-41
-42
-43
-44
-44
-42
-38
-34
-32
-31
-30
-30
-31
-30
-28
-26
-25
-23
-20
-15
-8
4
22
37
46
54
59
62
62
63
69
79
93
102
111
117
123
128
130
134
133
132
122
108
88
60
30
4
-14
-25
-34
-39
-41
-40
-40
-41
-43
-45
-46
-47
-48
-47
-47
-47
-48
-47
-47
-47
-48
-47
-44
-44
-46
-48
-49
-50
-51
-51
-50
-48
-48
-47
-47
-47
-47
-45
-43
-42
-40
-41
-40
-39
-36
-35
-35
-35
-33
-29
-27
-26
-25
-25
-25
-25
-24
-23
-22
-25
-26
-27
-28
-30
-32
-33
-35
-38
-40
-40
-41
-44
-47
-48
-49
-51
-54
-56
-56
-57
-59
-58
-57
-54
-55
-55
-56
-56
-56
-56
-54
-55
-54
-53
-50
-47
-46
-46
-47
-45
-44
-42
-40
-39
-38
-38
-38
-38
-36
-34
-32
-30
-28
-26
-25
-24
-25
-24
-23
-22
-22
-21
-19
-18
-15
-13
-11
-10
-10
-9
-9
-8
-8
-6
-4
-4
-5
-7
-7
-6
-5
-7
-8
-11
-14
-16
-16
-13
-10
-11
-14
-15
-16
-17
-18
-19
-19
-20
-20
-20
-19
-19
-21
-23
-24
-23
-22
-21
-20
-19
-17
-17
-18
-19
-20
-21
-19
-17
-17
-19
-20
-19
-18
-18
-18
-17
-17
-17
-18
-20
-20
-22
-22
-24
-25
-27
-28
-27
-27
-26
-26
-26
-28
-28
-30
-31
-29
-27
-23
-22
-20
-20
-20
-19
-19
-18
-19
-20
-20
-19
-16
-15
-15
-15
-15
-16
-19
-22
-24
-25
-24
-23
-22
-21
-19
-18
-19
-20
-22
-25
-26
-25
-23
-22
-22
-22
-21
-21
-22
-22
-22
-20
-19
-18
-17
-18
-20
-22
-21
-19
-18
-17
-17
-16
-14
-13
-14
-15
-17
-18
-19
-20
-21
-21
-21
-22
-23
-26
-28
-32
-33
-33
-35
-37
-39
-38
-38
-39
-40
-42
-43
-45
-44
-43
-42
-39
-36
-36
-37
-37
-38
-36
-36
-37
-38
-38
-36
-35
-33
-31
-28
-27
-27
-25
-19
-9
4
20
35
47
56
62
64
68
73
83
95
109
122
129
136
138
145
145
148
144
138
124
98
67
35
10
-7
-20
-27
-31
-31
-30
-32
-33
-35
-36
-39
-40
-41
-43
-43
-44
-46
-49
-51
-52
-49
-47
-46
-45
-46
-46
-48
-46
-43
-38
-36
-36
-35
-35
-33
-32
-32
-30
-29
-29
-29
-28
-28
-28
-29
-30
-29
-28
-27
-25
-23
-23
-24
-25
-26
-27
-28
-25
-23
-22
-24
-25
-27
-28
-30
-32
-31
-32
-32
-33
-34
-36
-38
-37
-37
-34
-34
-35
-38
-40
-41
-44
-46
-48
-50
-54
-55
-54
-51
-49
-50
-51
-52
-51
-51
-51
-49
-47
-45
-43
-38
-35
-34
-34
-33
-31
-28
-25
-24
-21
-17
-15
-12
-9
-5
-2
2
8
14
16
16
16
17
15
15
16
17
18
17
17
16
16
14
13
11
8
5
3
4
5
6
4
2
1
-1
-4
-6
-5
-2
1
3
4
4
3
4
5
6
6
5
4
4
6
8
10
11
11
9
7
6
5
5
6
6
6
5
3
2
3
5
5
4
4
4
4
4
4
4
3
2
0
1
2
2
1
1
2
1
0
1
3
5
6
5
6
6
8
9
11
11
10
9
9
7
5
2
1
2
5
8
8
9
8
7
8
8
8
6
4
4
5
5
7
9
9
9
8
7
6
6
7
8
9
10
9
9
9
9
10
10
10
10
9
8
8
8
8
8
8
8
8
7
6
6
7
6
5
5
8
10
11
11
12
12
12
10
9
8
7
6
5
4
2
0
0
0
-1
-2
-3
-4
-5
-6
-6
-6
-7
-8
-8
-7
-7
-9
-10
-8
-7
-5
-5
-5
-6
-5
-3
0
2
3
4
5
9
15
27
45
63
76
86
94
98
101
104
111
121
133
144
153
160
164
168
167
165
160
154
143
124
98
66
40
20
6
-3
-9
-13
-15
-15
-14
-15
-16
-18
-17
-17
-16
-14
-15
-16
-18
-20
-21
-22
-22
-23
-22
-20
-17
-16
-16
-16
-15
-15
-16
-15
-14
-11
-10
-7
-6
-7
-8
-8
-7
-7
-6
-5
-2
-1
-2
-2
-1
0
0
0
2
3
3
1
0
-1
-3
-4
-3
0
6
8
7
5
3
0
-2
-4
-5
-4
-6
-9
-12
-14
-16
-19
-21
-24
-28
-31
-33
-31
-31
-31
-32
-32
-33
-35
-35
-35
-32
-29
-28
-27
-25
-24
-25
-23
-21
-18
-16
-14
-12
-11
-10
-8
-6
-4
-3
-1
1
5
8
9
11
12
13
13
14
14
16
17
16
16
16
16
16
15
16
17
17
17
17
19
19
19
18
18
18
16
14
12
10
8
7
9
11
12
12
11
11
12
10
8
8
8
8
8
10
9
9
9
8
8
8
9
9
8
6
4
2
2
1
0
0
0
1
3
2
1
0
0
-1
0
0
-1
-1
-1
-1
0
0
-1
-2
-2
-2
-3
-3
-3
-3
-1
0
1
3
6
7
8
7
6
4
3
3
2
1
1
1
1
0
1
1
1
1
1
2
1
0
-1
-2
-3
-3
-3
-2
-1
-2
-3
-4
-4
-3
-2
-1
-1
0
1
1
2
2
2
1
0
0
0
1
3
5
6
6
5
4
4
3
2
1
0
0
0
0
1
1
-1
-3
-4
-3
-1
-1
-2
-3
-5
-7
-10
-12
-13
-14
-15
-14
-13
-11
-9
-10
-12
-13
-13
-12
-12
-10
-9
-10
-11
-11
-10
-9
-8
-9
-8
-8
-7
-5
-4
-4
-4
-3
-2
0
3
9
19
34
49
63
74
80
84
85
89
96
109
123
136
147
153
157
157
160
159
161
157
151
139
118
89
55
30
15
6
0
-4
-6
-6
-6
-7
-9
-11
-11
-11
-12
-13
-14
-14
-13
-12
-11
-12
-13
-15
-16
-17
-17
-17
-17
-17
-18
-17
-15
-14
-12
-9
-7
-7
-6
-6
-5
-3
-1
0
2
3
4
5
5
6
8
9
9
9
9
9
9
10
12
13
14
14
14
13
10
8
7
6
5
3
1
0
-1
-2
-2
-2
-4
-6
-7
-8
-9
-11
-13
-17
-18
-19
-19
-17
-15
-13
-13
-13
-14
-14
-14
-14
-13
-12
-12
-12
-12
-10
-7
-5
-5
-5
-4
-3
-2
1
6
12
14
15
17
19
20
21
22
23
24
25
26
27
28
29
30
31
33
36
37
39
40
41
40
40
40
41
44
46
47
47
48
47
46
44
40
37
35
37
38
37
35
32
30
29
29
28
30
31
29
28
28
29
27
26
25
24
24
24
24
24
25
23
24
23
24
24
25
26
26
27
27
30
32
33
32
31
31
31
31
29
29
28
27
26
27
29
30
29
29
30
29
28
27
27
27
27
28
26
26
26
25
25
24
25
24
25
26
27
26
25
25
24
25
26
27
29
30
31
30
30
30
30
30
31
32
32
32
31
31
30
29
27
27
27
26
28
30
33
32
31
27
25
25
26
29
30
30
28
27
26
25
25
25
27
27
26
24
22
22
23
24
25
25
25
25
25
25
23
20
17
15
15
14
13
10
8
7
7
6
4
3
0
0
1
2
1
0
0
2
4
7
8
8
7
5
5
7
9
9
8
9
12
16
20
21
23
25
31
45
63
81
93
103
107
112
113
117
124
135
149
158
168
171
177
178
181
181
177
173
160
147
120
89
57
35
24
19
17
15
14
13
12
13
13
13
12
10
8
7
6
4
4
4
4
3
3
4
4
4
4
5
5
6
7
8
8
6
6
6
9
10
12
14
16
16
15
16
17
17
15
15
16
19
23
24
25
25
25
24
26
26
27
26
25
24
22
22
21
22
21
18
16
14
12
10
8
5
3
3
2
1
-1
-2
-4
-5
-6
-6
-6
-7
-6
-7
-8
-9
-8
-7
-6
-3
0
2
2
2
3
6
9
10
11
12
13
14
15
15
16
18
20
24
26
28
27
27
29
32
36
38
41
41
41
41
42
44
45
48
51
55
58
60
60
59
56
53
50
48
49
47
46
45
45
44
43
42
42
41
40
39
38
39
39
40
42
43
43
42
41
42
42
43
42
42
41
40
39
39
40
41
44
46
47
46
46
46
46
46
44
44
43
42
39
38
41
42
44
43
43
40
38
36
37
39
41
43
41
40
39
40
41
43
45
45
45
44
46
48
51
52
52
51
50
51
50
50
48
47
47
48
50
50
52
52
52
52
53
54
55
55
55
56
55
53
52
53
55
55
55
53
51
49
47
46
45
44
43
44
44
45
45
45
45
42
41
39
38
36
34
34
35
40
44
47
48
50
51
53
55
55
57
57
58
56
56
54
52
53
55
58
57
58
56
56
54
51
49
47
45
43
41
39
37
34
32
29
26
24
23
24
26
27
28
28
27
24
23
24
26
30
36
47
61
80
96
112
122
129
134
135
142
147
159
167
179
188
195
203
205
211
207
205
196
185
167
139
111
84
65
51
42
37
33
29
24
22
22
23
20
20
19
18
17
16
17
18
18
19
21
24
26
26
25
27
28
30
31
32
34
35
37
36
36
36
37
38
40
42
44
48
49
50
48
48
48
48
49
47
48
48
51
54
57
60
56
54
51
51
49
47
45
44
44
41
40
38
37
35
33
31
28
27
26
26
26
27
26
25
25
24
24
22
22
22
22
20
19
17
16
16
18
22
26
28
29
28
27
27
29
31
33
34
36
40
45
49
50
51
53
54
55
55
57
59
62
65
68
69
69
67
68
70
70
71
73
77
78
77
76
73
73
70
69
67
67
67
65
65
64
63
59
57
56
59
61
61
61
59
58
56
57
57
58
58
58
57
56
57
57
58
57
56
54
52
52
51
54
56
57
56
55
57
59
62
62
62
61
60
59
58
57
56
54
52
50
49
48
48
46
46
45
43
41
42
43
43
42
41
43
45
46
47
47
48
48
49
50
52
52
52
51
51
51
51
53
52
51
49
49
50
51
52
50
49
47
47
46
46
47
46
45
44
44
43
43
42
42
41
41
42
42
42
41
41
41
41
41
40
41
42
43
41
39
38
40
43
45
47
46
44
42
40
41
41
43
45
47
45
41
38
37
36
34
33
32
33
33
32
32
29
28
25
23
20
19
19
20
21
23
24
22
22
21
20
21
21
21
21
22
23
26
26
26
26
26
28
30
30
31
33
35
38
47
62
82
98
109
117
123
126
128
133
141
152
161
171
178
185
189
190
193
191
189
182
174
162
144
118
86
61
42
31
23
19
21
21
20
17
14
12
10
10
11
11
9
8
8
7
6
5
6
6
7
7
7
6
5
4
4
6
7
7
8
10
12
13
15
16
17
17
18
19
20
19
19
19
21
24
27
31
31
30
27
25
23
23
23
24
24
23
22
20
18
17
16
15
13
12
10
8
5
3
2
1
-1
-3
-4
-6
-7
-8
-9
-9
-10
-11
-12
-13
-12
-11
-11
-11
-11
-9
-8
-7
-6
-7
-9
-9
-7
-6
-3
-1
3
6
6
6
6
8
11
14
17
18
18
18
19
22
25
27
28
30
32
33
33
34
35
35
34
35
37
41
44
46
45
46
45
44
44
44
43
41
40
40
41
41
38
36
35
36
34
33
30
28
25
24
26
29
31
30
31
31
32
31
31
32
31
30
29
30
29
29
29
29
30
30
30
29
27
25
24
25
27
28
28
28
28
28
28
28
29
29
29
28
27
25
24
23
24
26
30
32
31
28
26
26
28
30
32
31
29
27
26
26
26
27
27
27
25
24
22
22
22
22
22
21
21
21
22
23
24
24
23
24
25
27
28
28
27
26
25
25
26
27
28
28
28
28
27
26
24
24
25
25
25
26
26
26
24
22
21
18
17
18
22
24
24
23
22
21
19
16
14
13
11
10
10
10
9
8
6
6
6
7
5
5
5
5
4
1
0
-2
-3
-4
-2
-1
-2
-3
-2
0
2
3
3
3
3
3
2
0
-1
-2
-1
-1
0
0
2
5
10
18
28
42
58
72
81
88
92
95
98
102
113
126
141
151
159
164
167
169
167
167
163
156
142
122
95
64
39
23
14
9
6
5
5
4
0
-2
-5
-6
-6
-7
-7
-8
-10
-11
-11
-9
-5
-1
-1
-2
-3
-4
-4
-5
-4
-5
-5
-4
-1
2
4
4
3
3
3
4
4
5
6
7
8
10
12
12
11
11
12
11
9
8
9
10
11
12
14
16
16
16
15
14
12
12
12
13
14
14
12
10
7
7
5
4
3
0
-6
-11
-14
-14
-15
-14
-15
-16
-18
-20
-20
-19
-18
-18
-18
-18
-19
-19
-16
-13
-9
-5
-3
-2
-2
0
2
3
5
7
9
12
16
19
20
21
23
26
28
29
31
31
30
29
29
33
36
37
37
39
41
41
39
39
41
42
42
40
41
43
43
41
38
38
36
34
32
31
29
28
28
27
26
25
26
26
25
24
22
20
17
15
16
18
20
21
21
20
22
25
27
27
28
29
29
31
32
34
34
34
33
32
31
30
29
28
26
24
23
22
22
22
22
23
23
22
21
21
22
21
18
15
13
13
12
13
15
17
18
19
19
20
20
20
21
23
24
24
23
21
22
24
26
27
27
26
23
21
22
24
27
27
26
24
21
19
17
15
13
12
12
15
16
16
15
15
16
16
17
17
16
14
13
12
12
13
12
12
12
12
12
12
13
13
14
15
15
14
13
13
16
18
20
19
19
20
18
15
12
10
8
6
5
5
4
2
0
-2
-3
-4
-5
-6
-7
-8
-9
-11
-11
-10
-9
-7
-5
-4
-2
-3
-5
-7
-7
-5
-1
2
4
3
2
1
2
2
3
5
10
18
33
52
70
83
90
94
94
98
100
109
121
135
145
150
157
159
164
164
164
159
150
135
113
87
55
29
11
0
-5
-9
-13
-15
-16
-17
-17
-18
-19
-20
-22
-23
-24
-22
-20
-20
-19
-19
-20
-21
-22
-20
-19
-19
-20
-19
-18
-17
-16
-15
-17
-18
-18
-16
-14
-13
-13
-13
-13
-12
-12
-10
-10
-10
-11
-11
-9
-9
-8
-8
-7
-7
-7
-6
-4
-2
0
-1
-4
-5
-5
-6
-6
-7
-7
-8
-11
-14
-16
-19
-22
-24
-27
-30
-33
-34
-35
-36
-38
-40
-40
-41
-40
-40
-39
-38
-39
-40
-41
-39
-35
-32
-28
-27
-28
-29
-28
-27
-26
-26
-26
-24
-23
-21
-20
-19
-17
-16
-14
-12
-9
-6
-4
-1
2
5
8
9
11
12
12
12
12
12
10
10
12
14
13
12
10
10
10
7
5
3
3
2
0
0
-2
-3
-5
-4
-1
0
1
0
0
1
1
1
1
2
2
3
4
3
2
1
0
0
0
0
0
1
2
2
3
3
2
2
1
2
2
2
2
2
2
1
1
2
4
5
3
0
0
0
0
0
0
0
-1
-3
-4
-5
-5
-5
-2
-2
-2
-4
-6
-6
-6
-7
-8
-7
-7
-6
-6
-4
-2
0
-1
-2
-2
-1
-1
-1
-1
0
0
-2
-2
-1
-1
-2
-2
-1
-2
-3
-3
-4
-5
-7
-7
-5
-3
-2
-3
-5
-6
-6
-6
-6
-4
-4
-4
-5
-4
-3
-2
-1
0
1
1
1
1
2
3
2
3
4
5
4
1
0
-2
-3
-4
-5
-7
-9
-13
-16
-17
-17
-17
-17
-17
-18
-19
-21
-21
-22
-23
-24
-25
-25
-26
-27
-29
-28
-27
-24
-21
-21
-21
-23
-24
-23
-20
-16
-13
-10
-7
-6
-6
-4
1
12
28
45
59
69
77
80
84
86
91
98
110
123
132
141
145
151
151
152
148
143
136
123
104
77
49
24
5
-6
-13
-15
-18
-21
-23
-24
-26
-28
-29
-27
-26
-26
-27
-27
-27
-29
-32
-33
-34
-33
-31
-28
-26
-27
-27
-26
-25
-24
-24
-23
-23
-23
-24
-24
-24
-23
-21
-18
-15
-13
-12
-13
-14
-13
-12
-12
-13
-12
-12
-12
-12
-13
-14
-16
-18
-20
-18
-15
-13
-13
-12
-13
-15
-16
-15
-12
-11
-13
-17
-21
-21
-23
-22
-23
-23
-28
-32
-34
-35
-37
-39
-40
-41
-42
-42
-43
-43
-44
-44
-46
-46
-46
-44
-44
-43
-39
-37
-35
-35
-32
-30
-27
-23
-20
-15
-11
-9
-8
-6
-4
-1
0
2
4
4
4
3
1
0
0
0
2
5
7
8
11
15
16
16
15
14
13
11
10
10
12
11
10
8
9
9
9
9
7
5
2
0
0
1
3
3
3
4
4
2
0
-1
-3
-4
-6
-6
-7
-8
-7
-7
-6
-5
-4
-4
-3
-2
-3
-4
-5
-4
-2
1
2
1
-1
-3
-4
-5
-6
-7
-8
-8
-6
-5
-6
-7
-8
-9
-11
-13
-14
-15
-15
-14
-13
-13
-13
-12
-8
-3
-2
-2
-2
-2
-2
-3
-5
-5
-5
-6
-6
-7
-7
-8
-9
-10
-11
-10
-10
-10
-12
-14
-15
-16
-15
-15
-15
-18
-21
-24
-25
-23
-20
-14
-10
-8
-11
-13
-15
-17
-19
-20
-20
-18
-16
-14
-12
-9
-8
-6
-4
-3
-4
-5
-7
-9
-11
-13
-11
-8
-6
-8
-12
-17
-19
-21
-21
-21
-21
-20
-21
-22
-25
-28
-29
-31
-33
-33
-33
-35
-38
-40
-42
-44
-48
-49
-48
-46
-45
-46
-46
-47
-44
-43
-40
-39
-37
-34
-31
-27
-23
-21
-20
-21
-23
-25
-26
-25
-22
-19
-14
-6
8
26
42
54
63
69
71
70
73
80
90
103
112
119
122
125
129
133
135
134
131
123
110
88
59
30
8
-6
-14
-18
-20
-22
-24
-28
-31
-32
-32
-31
-32
-32
-33
-35
-37
-37
-37
-38
-38
-39
-38
-40
-42
-44
-46
-45
-46
-44
-44
-43
-44
-44
-44
-43
-42
-40
-36
-35
-34
-35
-35
-34
-32
-30
-28
-27
-26
-25
-23
-22
-22
-24
-25
-27
-26
-23
-21
-19
-18
-16
-17
-19
-21
-23
-24
-26
-28
-30
-30
-33
-36
-39
-41
-42
-45
-46
-48
-49
-51
-53
-53
-53
-53
-53
-52
-52
-51
-52
-52
-51
-49
-46
-45
-44
-46
-48
-50
-50
-49
-48
-44
-41
-36
-33
-30
-29
-27
-25
-24
-24
-22
-19
-17
-16
-15
-13
-9
-6
-5
-5
-4
-4
-2
0
1
2
2
2
3
3
2
1
2
6
9
12
12
12
13
14
18
20
22
21
18
14
10
7
5
6
6
5
2
0
0
0
0
-1
0
0
-2
-3
-3
-2
-3
-4
-4
-2
0
2
4
3
1
0
0
1
3
4
3
3
3
5
6
7
9
11
11
11
10
10
10
11
11
10
9
9
8
6
4
1
0
0
0
0
1
2
2
0
-1
-2
1
5
7
5
4
4
5
5
5
5
5
5
6
5
6
7
10
13
15
15
15
18
20
21
20
20
19
17
16
14
14
13
13
12
12
11
9
8
7
5
2
1
1
1
1
0
0
0
0
0
1
2
1
0
0
0
2
2
2
2
3
3
1
0
0
0
1
2
4
6
6
3
0
0
-1
0
0
0
-2
-5
-7
-7
-5
-5
-7
-8
-9
-10
-11
-12
-12
-12
-12
-11
-9
-7
-7
-6
-6
-5
-5
-4
-1
3
11
25
41
59
70
80
85
91
95
101
112
124
140
150
161
167
172
173
171
170
166
161
147
127
98
65
37
18
7
0
-6
-10
-11
-12
-11
-10
-10
-11
-13
-14
-14
-14
-15
-15
-13
-11
-10
-10
-10
-9
-8
-8
-9
-7
-5
-3
-2
-1
0
0
0
0
0
0
-2
-3
-4
-4
-3
-4
-5
-7
-7
-7
-6
-7
-7
-7
-7
-6
-6
-7
-8
-9
-10
-12
-12
-12
-9
-8
-6
-4
-3
-5
-7
-10
-12
-14
-17
-17
-18
-20
-21
-23
-26
-30
-34
-36
-37
-39
-42
-44
-47
-47
-47
-47
-44
-43
-43
-45
-46
-46
-45
-44
-43
-41
-41
-39
-36
-31
-27
-24
-22
-19
-18
-15
-12
-8
-4
-2
0
2
5
7
8
8
8
9
8
8
8
8
8
8
11
13
13
12
11
9
9
8
9
9
9
7
5
3
2
2
3
6
9
10
9
8
7
8
9
10
10
10
8
7
7
9
11
11
9
7
6
6
6
4
2
1
1
2
2
3
2
1
0
-1
-1
-3
-3
-4
-4
-4
-4
-4
-4
-2
0
2
3
3
4
4
5
4
3
0
-2
-3
-3
-1
-1
-2
-2
-2
-1
-2
-4
-5
-5
-5
-4
-2
0
0
-2
-3
-3
-2
0
2
3
4
4
5
5
6
5
3
0
0
2
3
2
0
-2
-3
-4
-5
-5
-6
-7
-7
-6
-8
-10
-11
-11
-11
-13
-12
-11
-8
-6
-6
-8
-10
-12
-13
-13
-13
-12
-12
-12
-13
-13
-12
-12
-10
-10
-10
-11
-9
-8
-8
-9
-9
-8
-8
-8
-8
-9
-11
-14
-18
-21
-22
-23
-23
-22
-23
-25
-27
-29
-31
-30
-30
-31
-31
-31
-32
-34
-33
-30
-25
-22
-20
-18
-17
-17
-16
-15
-14
-9
4
29
56
85
107
126
138
141
133
113
93
70
45
21
1
-12
-19
-21
-23
-24
-25
-27
-27
-26
-25
-25
-24
-23
-24
-26
-28
-27
-28
-28
-27
-26
-24
-23
-22
-23
-24
-26
-28
-28
-29
-29
-30
-29
-27
-25
-24
-24
-22
-20
-18
-19
-20
-21
-22
-21
-19
-16
-14
-13
-13
-13
-13
-11
-11
-11
-11
-10
-9
-9
-11
-13
-14
-15
-14
-12
-12
-12
-12
-12
-14
-18
-18
-18
-18
-20
-21
-22
-23
-25
-28
-28
-30
-30
-31
-30
-29
-28
-27
-29
-28
-27
-27
-28
-28
-25
-22
-19
-18
-18
-19
-19
-18
-17
-15
-14
-13
-14
-14
-15
-14
-14
-13
-13
-13
-13
-12
-10
-9
-8
-8
-8
-10
-12
-13
-11
-10
-9
-8
-8
-8
-7
-7
-6
-6
-8
-9
-9
-9
-10
-10
-9
-9
-11
-13
-15
-15
-16
-19
-21
-22
-21
-18
-14
-12
-11
-11
-13
-14
-14
-13
-13
-14
-15
-17
-19
-20
-19
-18
-18
-21
-23
-21
-18
-13
-12
-11
-11
-11
-12
-13
-14
-16
-17
-17
-17
-18
-19
-19
-17
-16
-15
-13
-13
-13
-13
-14
-14
-13
-12
-13
-15
-15
-14
-13
-13
-12
-13
-14
-16
-18
-19
-19
-19
-20
-19
-19
-16
-13
-9
-8
-10
-11
-12
-11
-10
-9
-10
-10
-11
-11
-12
-11
-9
-9
-10
-12
-13
-13
-14
-14
-15
-18
-18
-14
-9
-5
-5
-8
-10
-11
-11
-11
-11
-12
-13
-14
-15
-14
-14
-14
-14
-13
-13
-13
-14
-14
-13
-11
-8
-5
-1
0
-1
-3
-4
-5
-6
-6
-7
-7
-9
-12
-13
-14
-15
-17
-20
-22
-24
-24
-25
-25
-24
-24
-24
-24
-22
-20
-20
-20
-17
-16
-15
-16
-17
-16
-16
-15
-15
-15
-16
-17
-17
-17
-16
-16
-14
-13
-13
-15
-20
-27
-33
-34
-24
0
30
59
88
114
126
119
97
77
59
43
26
6
-8
-14
-12
-8
-6
-6
-7
-6
-6
-6
-6
-7
-8
-7
-7
-8
-10
-11
-12
-14
-16
-17
-17
-15
-10
-5
-3
-4
-6
-8
-9
-8
-8
-7
-7
-6
-7
-7
-6
-3
0
2
3
3
4
4
4
3
3
3
3
3
3
3
1
0
0
1
3
4
5
5
4
2
1
1
2
4
7
11
13
12
10
11
10
8
5
4
3
3
2
0
0
-1
-2
-3
-2
1
4
5
3
1
0
-2
-2
0
4
8
11
13
14
12
10
9
9
9
9
10
12
14
15
16
16
15
14
13
15
19
23
24
24
25
26
27
27
29
29
29
28
27
26
24
23
24
27
29
30
29
29
28
26
26
25
23
21
18
17
16
16
16
18
19
20
20
20
21
22
21
20
19
21
23
24
25
25
24
24
24
26
26
25
24
24
25
25
24
24
24
24
23
22
23
24
23
23
23
23
22
21
20
18
16
14
13
12
12
12
14
16
17
17
16
15
15
15
15
17
21
26
29
31
33
35
35
35
36
36
34
32
30
30
28
26
25
25
26
27
28
28
26
25
21
20
20
21
22
22
22
23
24
22
21
21
22
21
20
21
22
23
24
25
26
27
29
30
32
31
30
28
29
31
32
32
33
32
30
29
28
27
26
28
30
32
32
30
29
28
27
25
24
23
21
18
15
16
19
20
21
21
21
20
19
18
17
15
14
14
15
18
19
22
23
25
24
24
25
27
28
26
25
26
27
28
27
28
28
27
24
18
10
2
2
14
38
66
94
116
132
129
112
93
76
64
47
27
8
-6
-13
-18
-21
-20
-14
-4
3
7
7
5
3
4
8
10
11
11
12
14
16
17
18
18
17
16
16
18
21
22
22
23
21
19
16
14
14
12
11
12
13
13
11
8
7
7
8
10
11
12
10
8
8
8
10
10
10
12
13
13
12
13
14
16
16
18
19
22
23
24
25
24
21
19
19
20
19
18
17
16
14
13
12
12
11
10
9
7
6
7
8
10
11
11
11
12
12
12
14
19
23
24
24
24
24
23
24
25
26
26
25
26
27
30
31
32
32
33
34
33
32
30
31
30
31
32
33
33
31
32
32
32
31
30
29
27
25
22
22
21
22
21
19
18
18
19
20
21
20
19
19
19
18
18
17
15
13
10
10
13
17
20
21
22
21
22
22
22
21
20
19
19
18
17
16
15
15
13
12
10
8
6
4
2
3
6
8
7
6
7
6
4
2
0
0
0
3
8
13
15
15
16
17
15
14
15
17
20
22
22
20
18
15
13
12
12
12
11
10
9
8
5
5
5
6
6
6
5
4
2
0
0
2
3
3
5
9
13
14
12
9
7
6
6
7
8
10
11
11
10
8
7
7
6
4
2
1
3
7
11
11
11
8
5
2
2
3
3
2
1
2
3
4
4
4
4
3
4
5
7
6
4
2
-1
-3
-6
-5
-2
0
0
0
0
0
-1
-2
-1
0
0
0
1
1
1
1
2
3
4
2
1
1
2
4
6
8
10
9
7
5
4
4
5
6
7
7
6
6
5
4
4
3
4
4
4
3
2
2
1
2
3
5
6
9
12
20
36
58
86
111
133
138
127
98
72
59
53
47
37
30
22
17
14
11
9
7
8
10
11
11
10
7
4
2
2
4
6
7
6
5
4
1
0
-1
-1
-4
-5
-5
-1
1
2
1
1
0
-1
-2
-2
-1
-1
0
2
3
4
5
7
9
9
9
8
8
7
8
10
12
15
16
18
18
18
16
16
15
13
10
7
7
11
15
18
20
20
19
17
14
12
10
8
7
6
5
4
4
4
6
5
2
0
-2
-3
-3
0
4
8
8
5
3
6
14
22
29
32
30
26
23
22
22
21
21
21
20
19
18
17
18
17
19
20
22
22
23
25
26
27
26
25
25
27
29
30
31
31
30
28
27
26
25
22
19
15
11
10
12
18
25
31
32
28
23
18
14
12
10
8
6
4
2
0
0
-1
-2
-4
-5
-5
-5
-5
-6
-5
-1
6
9
10
9
7
5
5
7
7
6
5
5
5
4
3
3
4
4
3
2
1
-1
-3
-5
-5
-3
0
3
4
3
0
-3
-4
-3
-3
-3
-3
-3
-3
-3
-5
-6
-5
-3
-2
-3
-3
-5
-7
-9
-6
-3
-1
-3
-6
-7
-9
-8
-8
-8
-7
-8
-8
-8
-8
-7
-7
-9
-11
-13
-14
-13
-10
-10
-11
-13
-15
-15
-13
-11
-10
-11
-11
-12
-11
-11
-12
-13
-14
-14
-14
-14
-14
-13
-14
-16
-17
-18
-15
-16
-17
-19
-18
-18
-17
-14
-14
-14
-16
-17
-19
-21
-23
-24
-24
-23
-23
-23
-22
-23
-25
-28
-29
-27
-26
-25
-26
-26
-26
-27
-29
-32
-35
-38
-39
-36
-30
-24
-19
-17
-18
-20
-22
-23
-23
-23
-24
-25
-26
-26
-26
-25
-25
-24
-24
-25
-24
-19
-9
7
29
48
61
70
73
76
76
79
87
103
123
136
148
150
154
155
158
160
156
145
113
72
28
0
-14
-24
-30
-35
-38
-40
-43
-44
-46
-48
-52
-55
-57
-60
-60
-60
-59
-59
-59
-57
-56
-55
-58
-60
-62
-60
-57
-55
-54
-54
-53
-53
-51
-52
-52
-51
-51
-51
-52
-52
-53
-52
-53
-54
-54
-53
-51
-51
-50
-50
-50
-53
-56
