51
52
54
54
56
56
57
57
57
59
60
60
60
60
61
61
61
61
62
61
60
59
58
56
55
54
51
50
47
44
41
39
37
34
33
31
30
27
26
26
26
26
26
27
28
28
29
29
31
31
32
32
33
32
32
32
32
32
31
32
31
31
29
29
29
29
28
27
27
27
27
25
25
25
24
23
23
24
23
21
19
19
18
17
17
17
16
14
13
12
11
10
11
12
12
11
10
8
8
8
8
7
6
4
3
2
0
-1
-4
-5
-3
-2
-1
0
0
-1
-3
-6
-6
-6
-7
-7
-7
-6
-7
-7
-6
-5
-5
-5
-5
-5
-5
-5
-5
-4
-3
-3
-3
-2
-2
-2
-3
-2
0
2
6
10
12
9
3
-4
-10
-15
-21
-28
-33
-41
-59
-91
-124
-150
-165
-175
-176
-172
-166
-158
-150
-135
-121
-103
-87
-71
-56
-42
-30
-19
-10
-3
0
4
9
11
12
13
15
17
19
20
21
23
23
25
26
29
30
30
31
32
34
34
35
36
37
38
38
39
41
42
42
42
43
44
44
45
45
45
46
47
48
48
48
47
46
47
46
45
44
43
41
39
36
33
31
28
26
24
22
20
17
16
15
15
14
13
14
13
13
12
13
14
15
15
16
18
19
20
19
19
20
21
21
21
22
21
21
19
18
17
17
17
17
17
15
14
14
15
15
14
14
14
13
12
13
13
13
12
11
11
11
10
10
9
9
8
8
9
9
8
6
5
5
4
3
1
0
-2
-4
-5
-7
-9
-11
-13
-13
-12
-11
-10
-10
-10
-11
-13
-15
-15
-16
-16
-16
-17
-15
-16
-17
-17
-15
-14
-15
-15
-15
-15
-15
-14
-15
-14
-13
-13
-13
-13
-12
-12
-13
-12
-11
-8
-6
-2
1
4
2
-2
-9
-13
-16
-21
-28
-34
-38
-49
-74
-109
-141
-159
-174
-176
-173
-169
-164
-157
-146
-136
-122
-107
-90
-73
-58
-45
-34
-22
-13
-6
-1
4
7
10
11
12
14
16
17
19
21
23
25
25
27
29
30
30
31
33
34
35
35
37
38
40
42
42
43
44
45
45
46
47
48
49
49
51
51
53
53
54
55
56
55
55
55
54
54
52
52
51
49
46
43
42
39
36
34
32
30
28
25
24
24
23
22
22
24
24
25
25
26
27
27
27
27
28
29
28
27
26
26
26
25
25
25
26
25
24
24
24
23
22
22
22
22
21
21
20
19
19
18
18
18
18
16
16
15
14
14
13
13
13
13
12
10
8
7
6
5
5
6
6
5
4
3
3
2
2
2
2
0
-1
-3
-3
-4
-6
-8
-9
-9
-10
-9
-8
-6
-5
-6
-7
-9
-10
-11
-12
-11
-10
-10
-10
-9
-9
-8
-9
-8
-8
-8
-8
-9
-8
-7
-6
-7
-6
-6
-6
-7
-7
-6
-5
-4
-3
0
4
8
9
5
-1
-9
-14
-19
-24
-30
-35
-42
-58
-85
-119
-145
-161
-175
-180
-181
-174
-168
-158
-147
-134
-117
-101
-84
-70
-52
-37
-25
-16
-10
-4
0
5
7
9
11
12
13
15
17
18
19
21
22
24
25
26
27
28
30
31
32
34
35
36
36
38
38
40
40
41
43
43
44
44
46
46
46
48
49
50
48
49
48
49
49
48
48
46
44
41
39
37
34
31
30
28
26
24
22
21
21
20
19
19
19
19
19
20
21
20
20
19
20
22
21
21
20
20
20
18
19
19
18
16
15
15
14
13
12
12
12
10
8
6
5
4
3
1
1
0
-2
-3
-4
-4
-6
-6
-6
-5
-6
-8
-9
-10
-11
-12
-12
-11
-10
-11
-12
-11
-12
-12
-11
-12
-12
-14
-15
-16
-16
-18
-21
-22
-23
-22
-22
-20
-19
-18
-19
-20
-21
-23
-24
-24
-23
-22
-22
-22
-21
-19
-19
-20
-20
-20
-20
-19
-19
-17
-17
-17
-17
-16
-15
-15
-15
-14
-14
-13
-12
-9
-4
0
0
-6
-13
-21
-26
-33
-38
-45
-54
-73
-106
-139
-168
-180
-187
-183
-176
-169
-157
-148
-133
-119
-101
-86
-71
-55
-42
-29
-21
-16
-11
-7
-3
0
2
3
4
5
6
7
7
9
11
14
15
15
16
17
19
20
21
23
24
25
26
27
27
27
28
27
29
29
31
33
34
35
35
37
37
37
36
36
35
34
34
33
33
30
29
27
26
23
19
17
15
12
10
8
8
5
4
3
3
2
1
1
1
0
0
1
3
4
4
6
7
7
7
8
10
11
11
12
12
12
12
12
12
13
12
12
12
12
11
10
10
9
9
9
9
8
7
6
6
6
5
3
2
0
0
-1
0
0
0
-1
-3
-4
-5
-5
-4
-4
-7
-9
-10
-11
-12
-15
-17
-19
-18
-17
-16
-14
-15
-15
-18
-20
-21
-22
-21
-21
-20
-20
-21
-21
-21
-21
-21
-20
-20
-20
-19
-18
-18
-19
-19
-18
-17
-17
-17
-17
-17
-17
-14
-10
-6
-3
-5
-9
-15
-20
-24
-29
-35
-41
-46
-58
-83
-118
-151
-168
-181
-182
-180
-173
-165
-157
-145
-132
-113
-98
-81
-65
-49
-36
-25
-17
-11
-5
0
2
4
6
8
9
11
13
14
16
17
18
20
22
23
24
26
28
29
30
31
32
33
34
35
36
37
38
39
40
40
40
42
43
45
45
46
47
48
48
46
47
47
47
46
46
45
42
40
38
36
33
30
27
25
24
20
17
15
13
12
10
10
9
8
7
7
7
8
8
7
7
7
8
7
9
10
10
11
12
14
15
15
16
17
18
17
17
17
18
17
17
18
18
17
16
17
18
17
16
15
15
15
15
15
15
16
16
15
15
16
16
15
14
14
14
14
14
14
14
13
12
10
10
10
10
8
5
4
2
0
-1
-2
-4
-7
-8
-7
-6
-5
-4
-3
-5
-7
-10
-10
-11
-12
-12
-13
-12
-11
-11
-12
-12
-12
-13
-13
-14
-13
-12
-11
-13
-13
-12
-12
-13
-13
-11
-11
-11
-11
-10
-8
-6
-2
1
5
4
-1
-8
-14
-19
-23
-29
-35
-39
-44
-58
-84
-119
-145
-163
-173
-181
-181
-176
-172
-163
-155
-141
-128
-112
-96
-79
-63
-50
-37
-26
-17
-11
-6
-2
2
5
6
8
9
11
13
15
16
18
20
21
20
22
24
25
26
27
28
30
31
31
32
33
34
34
34
35
36
38
39
39
40
41
42
42
43
44
44
44
44
44
45
44
43
44
43
43
41
39
38
36
34
32
31
29
27
24
23
22
20
19
18
18
18
18
19
18
19
18
18
18
20
20
20
19
18
19
19
18
18
18
19
17
16
15
16
16
15
13
14
14
13
12
11
10
9
9
9
10
9
8
7
6
7
7
6
6
7
7
5
4
4
5
4
3
2
1
0
-1
-1
0
0
0
-1
-2
-4
-4
-4
-4
-3
-4
-6
-8
-9
-8
-8
-10
-13
-15
-15
-14
-13
-12
-10
-9
-10
-12
-13
-14
-14
-15
-15
-13
-12
-12
-13
-12
-11
-11
-12
-12
-11
-10
-9
-9
-9
-8
-8
-7
-8
-8
-7
-6
-6
-6
-5
-3
-2
0
3
8
10
9
3
-3
-9
-14
-19
-25
-31
-38
-49
-72
-103
-134
-152
-164
-170
-168
-164
-158
-152
-140
-130
-115
-99
-83
-68
-54
-40
-27
-16
-9
-3
2
8
12
14
15
17
18
20
22
25
26
27
28
29
31
32
33
34
36
39
39
40
40
42
43
44
46
47
49
48
49
51
52
53
54
55
56
57
57
57
57
57
58
59
59
59
58
57
56
55
53
52
51
50
48
47
45
44
44
43
44
42
42
41
40
40
40
41
41
42
41
41
40
40
40
41
41
40
40
39
39
38
38
38
38
38
37
37
36
36
34
35
34
33
32
32
32
31
30
28
28
27
25
24
23
23
22
21
20
20
19
18
17
17
16
14
14
16
17
17
16
15
15
15
15
15
14
13
12
10
9
9
7
5
4
6
6
8
9
11
11
8
7
6
6
5
6
7
7
7
6
6
7
7
7
7
8
9
9
9
9
9
9
9
11
12
12
11
11
12
13
15
19
24
25
22
15
7
2
-3
-8
-13
-19
-29
-50
-83
-114
-137
-148
-155
-153
-149
-141
-132
-121
-106
-89
-71
-55
-41
-26
-13
-2
5
12
18
22
24
25
28
30
31
33
34
37
37
38
40
41
43
43
45
46
47
47
49
51
52
53
53
55
55
56
57
58
58
57
58
60
62
62
62
63
63
63
62
63
62
61
59
59
57
55
54
52
51
48
45
43
40
38
36
35
33
31
29
27
27
27
27
27
28
28
28
29
29
31
31
32
33
34
35
35
35
35
37
36
36
36
36
35
35
35
33
33
32
33
32
32
31
30
29
28
27
26
27
25
24
23
22
21
20
19
19
18
15
14
13
13
12
13
13
12
11
10
9
9
10
9
7
6
5
3
2
1
-1
-2
-1
0
2
3
3
2
1
-1
-2
-2
-2
-2
-3
-2
-2
-2
-2
0
0
0
0
0
0
1
1
1
2
2
2
2
3
3
2
3
6
9
13
18
19
15
6
-1
-7
-12
-19
-26
-32
-43
-64
-95
-125
-143
-159
-164
-165
-157
-149
-141
-127
-114
-96
-82
-64
-47
-32
-18
-7
0
5
9
13
18
20
22
24
26
28
29
29
31
33
34
36
36
38
40
41
41
42
44
45
46
46
48
48
49
50
51
53
52
53
54
55
55
56
58
58
58
58
59
59
60
60
60
60
58
57
54
54
52
51
48
47
45
42
39
36
36
33
31
29
28
27
26
26
26
26
25
24
25
25
26
26
27
28
30
31
31
32
33
34
34
36
38
37
36
36
36
35
35
35
36
36
35
35
34
34
33
33
33
33
33
31
32
32
33
32
31
30
30
30
29
28
27
26
26
27
27
26
25
23
23
23
23
22
20
19
18
17
16
15
12
10
10
11
13
13
14
14
13
11
10
10
10
9
9
10
11
11
11
11
12
13
13
13
13
14
14
14
14
14
15
16
16
17
17
16
17
18
20
22
25
29
33
33
27
21
16
13
7
0
-5
-9
-17
-39
-70
-102
-125
-136
-144
-140
-137
-131
-124
-115
-102
-91
-75
-60
-43
-28
-15
-2
8
17
24
28
34
38
41
42
43
45
48
50
51
53
54
55
56
57
60
61
62
62
63
64
65
66
67
70
70
71
72
72
74
74
76
77
79
78
79
79
80
82
81
82
81
83
81
81
81
80
80
77
77
75
74
71
69
68
65
64
61
60
58
57
55
54
52
51
50
49
50
50
51
51
51
52
53
54
55
56
56
56
55
55
55
55
55
56
56
56
55
54
54
54
53
52
52
52
51
50
51
51
51
50
49
50
49
49
48
48
47
46
45
45
45
44
43
42
41
39
39
37
38
39
39
38
36
36
34
34
34
33
32
31
30
30
30
27
26
24
24
24
24
25
26
28
27
26
25
24
24
22
22
23
24
24
23
22
23
24
24
24
24
25
24
25
25
26
27
26
26
25
25
25
26
28
28
28
29
32
36
40
42
38
32
25
18
14
8
2
-3
-9
-22
-49
-80
-107
-122
-133
-138
-135
-130
-120
-113
-102
-90
-73
-57
-43
-28
-14
0
11
18
23
28
33
36
38
42
43
46
46
48
50
51
52
53
56
57
58
59
60
61
62
63
64
66
66
67
67
68
70
70
72
72
74
74
74
75
76
78
77
79
79
79
79
79
81
79
79
77
77
75
73
71
68
68
64
63
61
60
57
56
55
54
53
51
51
51
52
52
52
53
55
55
55
56
57
58
57
57
57
57
57
57
58
57
56
55
55
56
54
54
53
53
53
52
51
51
51
50
50
49
49
48
46
46
45
45
43
43
43
41
40
39
39
37
36
34
33
34
34
35
34
34
32
31
30
31
32
30
28
26
26
25
24
22
21
20
19
21
22
23
24
24
23
21
18
18
18
18
19
19
18
19
19
19
20
21
21
21
21
22
21
21
21
22
23
23
23
23
23
23
24
27
30
34
38
39
36
28
20
13
8
2
-4
-10
-19
-40
-73
-106
-124
-137
-140
-138
-130
-123
-115
-102
-88
-71
-55
-39
-23
-9
2
11
19
25
30
35
38
40
42
43
45
47
49
49
51
53
55
56
56
58
59
60
61
62
64
66
66
66
68
68
68
68
69
70
71
71
72
75
75
76
76
77
77
77
78
78
78
77
77
78
76
76
73
72
69
67
64
62
62
59
57
54
52
51
49
47
46
47
46
46
45
46
46
47
48
49
51
50
50
50
53
54
54
54
55
55
54
54
54
55
53
53
53
52
51
50
50
50
50
49
50
50
49
49
49
49
47
48
48
48
48
47
47
47
46
44
43
43
44
45
43
42
41
39
38
38
39
37
35
33
32
30
28
27
24
23
22
22
23
24
25
24
24
22
21
19
19
19
19
19
19
20
20
20
19
20
20
20
20
20
21
21
21
21
21
21
21
22
22
23
23
23
24
28
31
34
34
30
23
16
11
7
1
-4
-8
-16
-36
-69
-101
-122
-135
-143
-144
-139
-134
-126
-120
-109
-94
-78
-63
-48
-33
-17
-4
5
13
19
25
30
35
37
40
41
42
44
45
47
47
49
50
52
52
54
56
58
59
59
61
62
64
63
64
65
65
67
67
69
69
71
71
71
71
72
73
73
74
75
76
76
75
76
76
76
74
73
72
71
69
67
65
63
60
57
54
52
50
48
45
43
41
39
37
36
36
36
35
34
35
35
35
35
36
39
38
38
37
39
38
38
38
38
39
38
38
37
37
36
35
34
35
35
33
33
32
32
31
31
30
30
30
28
28
27
27
26
25
25
25
25
24
24
23
23
22
21
21
20
19
17
16
16
16
17
16
16
14
12
12
12
12
11
9
7
6
6
3
2
0
0
0
1
2
3
4
3
2
1
0
-1
-2
-1
-1
-1
-1
0
0
0
-1
0
0
0
1
0
0
0
0
0
0
0
0
1
0
0
1
1
1
3
7
11
14
16
14
7
-1
-8
-13
-18
-24
-29
-33
-43
-65
-97
-126
-146
-157
-164
-167
-163
-158
-150
-143
-132
-119
-103
-87
-73
-60
-47
-34
-23
-14
-8
-1
3
7
9
10
12
14
15
17
19
21
22
23
25
25
26
27
29
31
31
32
32
33
33
34
35
36
36
36
37
38
40
40
40
42
43
44
43
44
45
46
46
47
46
46
46
44
44
43
42
40
39
37
36
35
33
31
30
28
27
26
25
24
24
22
23
23
23
23
21
22
22
22
21
21
21
20
20
20
20
19
18
18
18
16
13
13
14
14
13
12
12
11
10
9
10
10
9
8
6
4
3
2
2
2
2
1
0
-2
-3
-4
-4
-4
-5
-7
-9
-10
-9
-8
-8
-8
-8
-9
-10
-11
-11
-10
-11
-13
-13
-14
-15
-17
-18
-20
-22
-24
-23
-22
-20
-20
-19
-19
-20
-22
-23
-23
-23
-24
-24
-23
-23
-23
-23
-24
-22
-22
-21
-22
-21
-21
-22
-22
-21
-20
-20
-20
-20
-20
-20
-20
-19
-18
-17
-14
-10
-7
-6
-10
-17
-22
-25
-29
-36
-42
-47
-60
-87
-122
-151
-170
-179
-180
-176
-170
-165
-156
-146
-132
-117
-102
-86
-73
-60
-50
-38
-30
-23
-18
-14
-11
-10
-9
-8
-6
-4
-3
-2
0
0
1
1
3
4
6
7
7
9
9
11
12
13
15
15
16
17
18
18
19
21
22
23
23
24
25
25
25
25
25
25
24
23
22
20
18
17
16
13
10
7
5
2
-1
-2
-4
-6
-8
-9
-10
-11
-11
-11
-11
-11
-13
-13
-12
-10
-10
-9
-8
-7
-7
-7
-6
-6
-6
-6
-6
-6
-6
-6
-7
-8
-9
-10
-9
-10
-10
-11
-12
-12
-14
-15
-15
-15
-16
-17
-18
-19
-20
-22
-22
-22
-22
-24
-25
-27
-29
-31
-32
-31
-30
-30
-31
-32
-33
-35
-34
-34
-34
-37
-39
-40
-41
-42
-45
-47
-48
-48
-48
-46
-46
-46
-47
-49
-50
-52
-52
-52
-52
-52
-53
-52
-53
-52
-54
-54
-53
-53
-53
-54
-52
-52
-53
-53
-52
-53
-54
-53
-52
-51
-52
-50
-48
-44
-40
-38
-40
-48
-56
-62
-66
-72
-78
-82
-90
-108
-142
-172
-198
-210
-218
-219
-212
-207
-196
-189
-174
-160
-142
-124
-109
-92
-79
-68
-61
-53
-48
-44
-41
-38
-36
-35
-33
-31
-29
-27
-26
-24
-23
-21
-21
-19
-18
-17
-16
-15
-14
-13
-11
-11
-10
-9
-8
-8
-6
-5
-5
-5
-5
-3
-4
-3
-2
-1
-1
-2
-2
-2
-2
-3
-4
-3
-5
-6
-9
-10
-12
-15
-17
-20
-21
-25
-27
-29
-30
-33
-35
-36
-37
-37
-40
-40
-41
-41
-42
-42
-40
-39
-39
-39
-39
-37
-37
-36
-36
-35
-34
-33
-33
-32
-31
-31
-31
-32
-32
-33
-33
-34
-33
-34
-35
-35
-35
-35
-36
-37
-37
-37
-37
-38
-38
-37
-37
-38
-37
-37
-38
-39
-41
-40
-41
-41
-42
-41
-42
-44
-45
-46
-46
-47
-48
-50
-52
-53
-56
-56
-58
-59
-62
-65
-66
-66
-64
-64
-63
-63
-63
-65
-68
-69
-70
-70
-72
-71
-70
-69
-70
-71
-70
-70
-70
-70
-68
-67
-68
-68
-68
-67
-68
-68
-68
-67
-67
-67
-67
-67
-65
-65
-61
-56
-52
-51
-56
-63
-71
-75
-81
-86
-92
-96
-103
-120
-146
-180
-201
-220
-227
-231
-228
-221
-216
-204
-196
-181
-170
-153
-137
-122
-107
-95
-82
-73
-64
-60
-56
-51
-48
-45
-44
-42
-41
-39
-37
-35
-32
-31
-31
-31
-29
-26
-25
-24
-24
-22
-20
-19
-18
-17
-15
-15
-14
-13
-12
-11
-11
-11
-11
-9
-7
-7
-6
-5
-5
-5
-6
-4
-3
-3
-3
-4
-3
-3
-4
-7
-8
-9
-10
-12
-14
-15
-18
-19
-22
-23
-24
-26
-29
-32
-32
-32
-32
-33
-32
-31
-31
-31
-31
-30
-30
-30
-29
-29
-27
-27
-28
-28
-28
-27
-29
-30
-30
-30
-32
-32
-32
-32
-32
-32
-33
-34
-34
-35
-36
-36
-36
-36
-37
-38
-38
-37
-37
-37
-38
-37
-37
-38
-38
-38
-37
-38
-38
-40
-40
-40
-40
-38
-38
-39
-41
-43
-44
-44
-43
-44
-44
-46
-47
-49
-50
-52
-53
-54
-57
-57
-57
-55
-55
-54
-53
-53
-54
-57
-58
-59
-58
-58
-58
-57
-57
-56
-57
-56
-56
-56
-56
-56
-55
-55
-54
-54
-54
-53
-53
-53
-53
-52
-52
-51
-51
-50
-49
-48
-45
-43
-38
-36
-36
-42
-49
-54
-59
-63
-69
-72
-76
-81
-101
-131
-161
-185
-196
-209
-208
-208
-203
-198
-193
-182
-173
-157
-145
-127
-112
-96
-82
-72
-61
-53
-45
-40
-35
-30
-27
-25
-24
-22
-20
-18
-17
-15
-13
-12
-10
-9
-7
-6
-5
-4
-3
-2
0
0
0
3
4
5
6
8
9
10
10
10
11
12
12
13
14
15
16
16
17
17
17
17
16
16
16
16
15
13
12
11
9
7
6
5
3
2
0
0
0
-1
-2
-2
-1
-2
-2
-3
-3
-3
-3
-3
-2
-2
-2
-3
-3
-3
-4
-4
-4
-4
-4
-5
-5
-5
-5
-6
-6
-7
-7
-7
-6
-6
-7
-7
-8
-9
-8
-8
-9
-10
-10
-11
-13
-13
-12
-12
-14
-15
-16
-16
-16
-17
-17
-18
-18
-20
-21
-21
-21
-21
-20
-19
-19
-19
-21
-22
-21
-21
-20
-20
-20
-21
-22
-24
-25
-25
-28
-29
-29
-27
-25
-24
-23
-22
-22
-24
-25
-25
-25
-24
-24
-23
-22
-22
-22
-21
-20
-20
-20
-20
-20
-20
-19
-20
-19
-18
-18
-17
-17
-16
-16
-15
-15
-14
-12
-9
-5
-1
0
-2
-9
-17
-22
-27
-33
-38
-43
-48
-64
-91
-125
-150
-164
-175
-175
-175
-167
-162
-152
-140
-127
-109
-94
-77
-64
-50
-38
-26
-18
-12
-7
-2
1
3
5
7
8
10
11
13
16
17
18
19
21
22
23
26
28
28
28
28
30
32
33
34
36
37
38
38
39
41
41
43
43
45
45
45
45
46
48
47
47
46
46
44
43
43
41
39
37
35
32
30
29
28
27
25
24
23
23
23
24
25
25
26
26
28
28
29
30
31
32
32
32
33
33
32
32
32
33
32
32
32
32
31
30
30
30
30
29
29
29
28
27
26
25
25
23
24
23
23
22
20
20
20
19
17
18
16
15
14
14
14
14
15
15
15
14
13
14
15
15
12
11
10
10
8
6
5
4
4
4
6
7
7
6
5
4
3
2
2
3
4
4
3
4
5
6
5
5
6
6
6
7
7
7
8
8
8
8
8
9
10
9
9
12
16
20
23
25
22
14
7
1
-2
-8
-14
-20
-28
-49
-81
-114
-139
-149
-156
-152
-146
-137
-128
-118
-102
-86
-69
-54
-38
-22
-9
1
8
14
18
23
26
29
30
31
33
35
36
38
39
40
42
43
44
46
48
48
51
52
53
53
54
55
56
58
58
59
60
61
61
62
64
65
65
66
67
68
68
69
69
70
69
68
68
68
67
65
65
62
60
57
56
54
51
49
46
46
44
42
40
39
39
37
37
36
37
36
36
35
36
38
38
39
40
42
42
43
44
45
46
46
47
48
49
48
49
49
49
48
48
48
48
48
48
48
47
47
46
47
47
47
46
45
46
47
46
46
46
46
44
43
42
42
42
42
42
42
41
38
37
37
37
38
36
35
33
32
30
28
28
25
23
22
24
25
26
26
25
25
23
22
20
20
20
21
21
21
21
20
21
21
21
21
21
22
22
23
22
23
24
24
24
25
25
25
25
25
25
28
31
34
38
39
36
30
22
18
14
9
3
0
-5
-19
-48
-81
-106
-123
-132
-135
-130
-125
-118
-111
-99
-85
-70
-54
-39
-24
-9
3
15
24
30
35
39
44
47
49
49
51
53
55
57
58
61
62
63
63
65
67
67
69
70
73
73
76
76
78
78
78
79
80
83
83
84
83
84
86
86
88
88
89
89
89
88
89
89
88
88
88
89
89
87
86
85
84
82
80
78
76
73
70
69
66
65
62
61
60
59
59
57
58
57
58
57
59
60
62
62
62
64
63
65
65
66
67
67
66
65
66
65
66
65
64
64
63
63
61
62
62
62
60
61
60
59
59
58
59
59
59
57
57
57
57
57
56
56
56
55
55
54
53
51
49
49
50
50
49
49
48
47
46
46
46
45
43
41
42
40
39
36
34
33
32
33
33
35
36
37
36
35
34
33
33
32
34
34
35
34
35
36
36
36
36
37
37
37
38
38
38
38
39
39
40
39
39
39
40
40
40
40
43
47
52
55
55
52
44
36
32
28
23
17
12
6
-7
-34
-65
-89
-103
-113
-118
-116
-110
-103
-96
-86
-75
-60
-45
-30
-17
-3
8
20
28
36
42
47
52
53
56
57
59
59
62
63
64
66
66
69
68
71
71
73
74
74
75
76
78
78
79
79
81
81
81
82
82
84
84
85
86
87
87
87
88
88
89
89
89
89
89
89
88
88
87
86
84
82
80
79
78
76
75
72
70
69
68
67
66
66
65
66
65
65
65
65
67
65
65
64
65
65
65
66
65
65
63
63
62
63
62
60
60
59
59
57
58
57
57
56
54
54
53
53
52
52
51
50
49
49
49
48
47
46
45
44
43
42
42
41
39
37
36
36
35
35
36
36
35
33
33
32
32
33
32
31
30
29
27
26
24
23
22
20
22
22
23
23
24
23
21
20
19
20
20
20
20
21
21
20
20
21
21
22
23
24
23
23
22
23
23
23
23
24
25
25
25
25
26
26
27
29
33
37
39
36
30
24
20
15
9
4
-1
-7
-25
-54
-87
-108
-122
-128
-127
-123
-117
-110
-100
-90
-74
-58
-43
-30
-17
-5
5
14
20
25
30
35
36
38
39
40
41
42
44
45
47
47
49
50
51
52
53
55
55
57
56
58
58
60
61
62
64
63
64
63
66
66
67
67
68
70
69
71
71
72
72
73
72
72
72
70
71
70
69
66
64
62
60
58
56
55
52
50
49
47
47
45
45
45
46
46
47
48
49
49
49
50
50
51
51
52
53
53
54
53
54
54
53
54
53
53
52
52
52
53
52
51
51
50
50
49
49
49
49
48
48
48
47
48
46
48
47
47
45
44
44
43
43
42
43
43
42
41
39
39
37
37
36
37
35
33
32
31
30
28
26
24
24
25
25
26
27
27
26
24
23
22
21
21
22
22
22
22
23
23
23
24
24
24
24
24
24
26
27
25
26
26
27
27
27
28
28
29
29
32
35
40
41
40
34
28
23
18
14
9
4
0
-11
-34
-67
-95
-112
-124
-128
-130
-124
-117
-109
-99
-87
-72
-57
-42
-27
-12
0
10
19
27
33
39
43
46
48
49
51
52
54
55
57
58
60
62
63
64
64
66
67
68
69
70
73
72
74
73
75
75
76
78
78
81
80
82
81
83
83
83
84
84
86
84
85
84
85
84
84
84
82
82
79
79
76
75
72
69
68
66
65
62
60
58
57
55
53
54
53
53
53
54
54
54
54
55
57
57
58
58
58
59
59
59
59
60
60
60
59
59
60
59
58
57
58
58
57
57
56
56
55
55
54
55
54
53
53
52
53
51
51
51
51
51
51
51
50
50
47
47
46
47
46
46
46
46
46
43
41
41
42
42
40
39
37
37
35
33
32
30
28
27
27
28
29
29
30
31
30
28
26
26
26
26
25
26
26
26
27
26
27
27
27
27
27
28
27
27
27
28
28
28
28
28
30
30
30
30
31
32
35
40
43
45
40
34
27
22
18
12
7
2
-4
-18
-45
-75
-101
-116
-127
-132
-130
-126
-117
-111
-99
-88
-73
-57
-42
-26
-13
0
10
19
26
31
35
40
43
45
46
48
49
50
51
52
54
56
57
58
59
61
62
63
64
66
66
67
68
69
71
70
71
71
73
73
73
74
74
76
75
76
76
78
78
79
80
79
80
78
79
78
79
78
77
76
74
73
70
69
66
65
63
61
59
58
57
55
54
54
55
54
54
54
54
54
54
54
55
55
55
54
54
53
52
51
51
52
52
52
50
50
49
49
47
46
46
46
45
44
44
43
42
40
39
40
39
39
38
38
36
34
34
33
33
32
31
30
30
28
27
27
25
23
22
22
22
23
23
22
21
21
21
21
21
21
20
19
18
16
14
12
10
10
10
11
12
14
14
14
12
11
11
11
11
12
14
14
13
13
13
14
14
14
16
16
16
15
16
17
17
17
18
19
18
18
18
19
19
19
21
24
29
31
33
31
26
21
15
11
6
0
-6
-13
-28
-59
-90
-114
-128
-132
-134
-127
-124
-117
-110
-101
-86
-71
-53
-40
-26
-14
-3
5
12
18
23
28
30
32
34
35
36
38
40
42
42
44
45
47
48
48
50
51
52
53
54
55
56
57
57
60
60
61
62
63
65
65
66
67
69
69
69
69
70
71
70
72
71
72
70
70
70
69
67
64
64
61
59
58
56
54
50
49
46
46
44
44
43
43
42
42
43
44
45
45
46
47
47
47
48
50
50
50
48
48
48
48
48
48
48
47
47
46
46
45
44
44
44
44
42
42
42
40
40
39
39
37
37
36
35
35
34
34
33
32
30
28
29
29
30
30
30
29
28
27
28
28
27
25
24
24
23
21
20
18
17
17
19
20
21
21
21
19
16
15
15
15
15
15
15
15
15
15
16
16
17
17
18
18
17
17
17
18
18
18
18
18
19
19
20
21
23
26
30
34
34
28
21
15
11
5
0
-6
-12
-27
-55
-85
-111
-124
-137
-138
-135
-129
-122
-113
-99
-85
-68
-53
-37
-23
-10
1
11
18
24
28
33
35
37
38
40
42
43
44
45
47
47
48
49
51
52
53
54
55
56
56
57
59
60
62
61
63
63
64
65
66
68
67
68
68
69
69
70
71
70
71
70
69
68
67
65
65
65
62
59
56
54
51
49
48
45
44
40
40
38
37
36
35
35
34
34
33
34
34
34
34
34
36
36
38
38
40
40
40
41
42
42
42
43
43
44
43
42
42
42
43
42
41
41
40
39
40
40
40
39
39
39
38
38
37
38
39
39
38
37
36
35
33
34
34
35
34
33
32
30
29
28
29
28
26
24
22
20
20
19
16
14
13
13
13
14
15
15
14
12
10
9
8
7
7
7
6
6
6
7
6
5
5
5
6
6
6
6
7
7
6
7
7
7
6
6
7
7
7
9
11
15
19
22
22
17
10
4
-1
-6
-12
-19
-24
-34
-54
-85
-118
-139
-154
-161
-164
-156
-147
-137
-128
-117
-104
-90
-74
-61
-45
-30
-17
-9
-2
4
10
14
17
19
20
22
23
24
25
27
27
29
31
33
34
35
37
39
41
41
41
41
41
42
42
44
45
47
46
47
46
45
44
45
47
49
50
50
50
51
52
53
52
53
51
50
49
51
53
51
49
46
44
42
41
40
37
34
29
26
25
25
24
22
21
19
19
19
20
22
23
24
23
23
24
25
25
25
25
27
27
26
27
28
29
29
29
27
25
24
23
22
20
20
21
21
21
20
19
18
19
20
21
20
20
19
19
19
18
18
16
16
17
17
17
17
17
17
16
16
17
17
16
14
13
11
11
12
12
11
9
6
6
7
6
2
-2
-6
-8
-7
-6
-2
1
2
-1
-4
-4
-5
-6
-7
-8
-9
-9
-9
-10
-9
-7
-7
-6
-6
-5
-5
-4
-5
-6
-5
-6
-6
-6
-5
-4
-3
-3
-3
-2
-3
-4
-4
-2
1
7
11
12
8
3
-1
-3
-4
-7
-12
-18
-29
-47
-77
-107
-130
-146
-156
-159
-154
-151
-143
-136
-126
-116
-105
-92
-80
-67
-55
-41
-29
-19
-12
-4
2
8
13
15
15
17
19
21
24
25
26
26
27
29
31
32
31
32
32
33
34
36
38
41
40
39
39
41
43
44
46
47
47
47
47
49
50
51
50
51
52
54
54
52
51
50
50
49
47
46
47
47
45
44
42
40
38
36
36
35
33
29
27
26
27
28
28
28
27
27
28
29
29
27
26
25
26
25
26
25
25
25
23
21
20
20
20
19
19
18
15
13
12
12
12
11
11
12
12
11
9
9
10
11
10
9
7
6
5
4
4
5
3
1
0
-1
-2
-2
-1
-1
-2
-4
-7
-9
-8
-6
-5
-5
-6
-7
-8
-9
-10
-9
-10
-11
-11
-11
-11
-13
-15
-18
-22
-23
-22
-22
-20
-15
-10
-9
-12
-15
-18
-19
-17
-17
-18
-20
-20
-19
-19
-17
-15
-14
-15
-14
-13
-14
-16
-16
-14
-13
-12
-13
-14
-15
-16
-19
-23
-22
-14
-3
5
7
5
-2
-10
-16
-17
-20
-27
-36
-47
-61
-85
-114
-138
-155
-167
-174
-172
-167
-159
-156
-146
-130
-110
-91
-73
-57
-43
-34
-28
-22
-20
-20
-17
-11
0
7
11
10
8
8
8
8
10
13
16
16
14
10
6
7
14
21
26
27
25
22
23
26
28
25
22
21
23
27
29
28
26
24
23
20
16
17
25
31
33
30
28
27
25
23
20
17
15
16
14
12
9
5
-1
-7
-8
-4
0
-1
-4
-6
-5
0
4
6
4
3
0
-1
-2
0
3
3
0
-3
-6
-6
-4
0
3
1
-4
-6
-6
-6
-8
-8
-7
-8
-10
-12
-15
-16
-18
-19
-16
-13
-15
-19
-21
-23
-25
-25
-23
-22
-25
-28
-26
-24
-25
-27
-27
-22
-18
-19
-21
-24
-24
-23
-22
-23
-26
-29
-32
-35
-36
-35
-32
-29
-28
-30
-35
-40
-42
-40
-32
-24
-21
-24
-28
-31
-32
-31
-29
-27
-28
-32
-35
-35
-33
-32
-29
-26
-24
-24
-24
-24
-24
-22
-22
-20
-19
-19
-21
-23
-21
-17
-11
-11
-16
-21
-24
-29
-36
-43
-48
-56
-79
-112
-142
-160
-169
-172
-167
-165
-160
-154
-145
-135
-121
-104
-89
-74
-63
-51
-41
-34
-26
-17
-10
-8
-8
-9
-8
-5
-1
1
2
2
0
0
0
1
3
6
9
14
17
18
19
20
22
24
24
23
24
27
32
34
34
34
34
36
37
41
44
45
44
41
41
43
44
39
33
32
38
45
44
37
27
23
21
20
19
18
17
17
17
16
14
13
14
15
16
16
15
11
7
9
19
25
24
21
22
22
21
21
24
26
27
27
28
30
30
30
30
29
30
29
28
30
34
34
32
29
28
28
32
36
33
27
24
26
28
28
28
29
30
29
30
30
30
28
25
24
25
27
27
26
23
22
19
17
18
19
19
16
12
7
5
9
19
27
26
20
16
16
16
14
14
14
16
17
17
18
20
21
21
21
17
14
13
15
17
19
21
21
21
21
21
22
25
29
32
37
39
41
39
34
26
18
17
16
14
10
3
-9
-37
-71
-99
-112
-120
-125
-119
-116
-111
-108
-99
-85
-68
-49
-35
-21
-10
0
8
22
37
48
52
54
54
57
61
63
64
62
63
65
67
69
69
71
73
76
76
78
79
81
81
81
82
83
85
83
84
86
91
92
91
91
90
92
90
87
82
85
94
101
106
102
100
96
94
90
89
89
89
89
86
84
80
79
76
74
70
68
68
66
66
63
62
60
59
57
56
58
58
59
59
60
59
59
61
63
65
65
66
67
68
68
67
69
69
70
70
71
71
71
71
68
68
68
69
68
68
68
67
67
66
66
65
66
65
63
63
63
64
62
62
62
63
62
60
60
59
58
56
56
56
56
56
54
54
52
51
49
49
49
49
47
46
44
42
41
39
37
35
34
32
33
35
34
33
33
34
35
33
31
30
29
27
26
25
27
28
28
27
27
28
28
27
26
26
27
27
27
27
27
27
26
28
27
28
27
27
27
29
31
35
40
43
44
37
29
20
15
9
1
-4
-9
-18
-39
-71
-98
-120
-133
-141
-143
-136
-131
-122
-115
-104
-91
-76
-60
-45
-30
-16
-2
9
17
22
27
33
37
39
41
42
44
46
47
49
49
51
52
53
55
56
57
57
58
59
61
62
63
64
64
65
64
67
68
69
69
68
69
69
70
69
70
70
71
71
71
73
73
73
71
70
68
67
66
64
64
62
61
59
59
56
55
53
51
50
48
48
46
47
48
47
46
43
43
43
44
44
44
45
44
44
44
44
44
43
41
40
40
39
38
36
36
36
36
37
37
37
35
33
31
30
29
28
28
28
28
28
28
26
24
22
22
23
21
20
20
21
22
20
18
15
14
13
13
14
15
14
13
12
9
8
8
9
8
7
6
3
2
2
2
0
-2
-3
-4
-3
-1
0
2
2
0
-2
-2
-3
-4
-6
-4
-2
-2
-3
-2
-1
-1
-1
0
0
0
0
0
0
0
0
0
0
0
1
1
2
2
3
4
8
12
15
14
10
4
-1
-4
-8
-13
-18
-23
-30
-50
-80
-113
-134
-146
-156
-154
-153
-146
-140
-131
-118
-106
-88
-75
-60
-47
-32
-19
-10
-3
2
8
13
15
17
20
23
24
24
26
28
31
31
32
33
34
35
36
38
40
41
42
43
45
47
48
48
50
51
51
51
52
53
52
53
54
57
58
58
58
57
57
56
57
57
56
54
53
52
49
47
44
43
40
38
35
32
29
26
25
23
23
22
21
20
21
21
20
21
22
24
25
25
25
26
26
26
27
28
27
27
27
27
26
25
25
26
26
25
23
23
23
21
21
21
20
19
19
19
19
18
17
17
17
16
15
14
15
14
13
13
13
13
12
11
9
8
6
6
7
8
8
6
4
2
0
0
0
0
0
-1
-3
-5
-6
-8
-11
-12
-11
-11
-10
-10
-9
-9
-10
-11
-12
-13
-14
-15
-14
-13
-13
-14
-13
-13
-13
-13
-13
-13
-13
-13
-12
-11
-12
-12
-11
-10
-10
-11
-12
-11
-10
-10
-8
-5
0
3
3
0
-8
-17
-23
-26
-29
-35
-40
-46
-58
-86
-119
-144
-161
-170
-180
-175
-171
-162
-156
-149
-134
-119
-100
-86
-69
-54
-40
-28
-20
-13
-8
-3
0
2
4
6
6
7
9
11
12
14
16
17
19
19
20
22
23
23
24
26
27
27
28
29
30
31
31
32
33
34
34
34
36
36
36
36
36
37
36
37
37
37
35
34
32
32
32
30
28
25
24
21
18
16
14
11
8
7
6
4
3
1
2
3
2
2
2
3
2
3
4
6
7
7
8
9
9
9
8
8
9
10
11
10
9
8
7
7
8
7
7
6
6
6
5
3
3
4
5
3
2
2
2
1
0
1
1
0
-1
-1
0
-1
-3
-5
-6
-6
-6
-5
-4
-6
-8
-10
-10
-9
-9
-11
-12
-13
-14
-15
-18
-20
-21
-21
-23
-23
-21
-20
-20
-20
-18
-18
-18
-21
-22
-24
-24
-23
-23
-21
-21
-21
-21
-22
-22
-22
-21
-20
-20
-19
-20
-20
-20
-19
-17
-17
-17
-15
-15
-16
-16
-16
-15
-11
-6
-2
1
0
-6
-15
-21
-26
-32
-37
-43
-48
-57
-78
-110
-143
-161
-176
-182
-182
-177
-171
-167
-157
-148
-134
-121
-105
-90
-74
-59
-47
-34
-24
-15
-9
-4
0
3
4
5
8
11
13
14
16
18
20
22
23
24
26
26
26
28
30
31
32
34
35
35
35
36
38
40
42
42
44
45
46
46
47
49
50
50
49
51
50
50
49
49
50
48
46
44
44
42
39
36
34
35
33
31
29
29
28
25
24
22
23
23
24
26
28
28
28
29
30
33
32
32
31
31
31
31
32
32
33
32
33
34
34
33
32
32
32
32
32
31
31
30
29
29
29
28
28
27
26
25
24
23
22
22
22
21
20
19
18
17
16
16
17
18
18
17
16
15
13
12
13
14
14
13
11
9
8
7
5
3
2
2
0
2
4
5
6
6
6
4
3
1
0
0
1
0
1
3
4
3
3
4
5
5
5
6
6
6
6
5
6
7
6
6
7
8
9
9
8
9
11
14
18
21
21
15
7
0
-3
-7
-12
-17
-21
-30
-55
-90
-116
-133
-143
-147
-146
-142
-139
-131
-123
-110
-96
-81
-65
-49
-32
-18
-7
0
6
11
17
22
25
26
28
30
33
34
35
38
39
41
41
43
44
46
47
48
49
50
52
52
53
54
55
55
56
57
59
60
61
62
62
61
62
63
65
64
65
64
64
63
61
61
60
59
56
54
53
52
49
47
45
43
40
37
35
34
32
31
29
30
29
28
27
28
29
30
31
31
32
32
33
35
37
38
37
38
37
37
35
36
36
36
36
35
36
35
34
33
33
32
32
31
31
30
28
27
26
26
24
22
21
20
20
18
17
16
15
14
14
15
13
10
9
9
11
11
11
11
10
8
8
9
9
7
5
4
3
3
1
-1
-3
-4
-5
-4
-1
0
0
-1
-2
-2
-4
-4
-3
-3
-3
-4
-4
-3
-2
-2
-1
-1
-2
-2
-1
0
-1
-2
-1
-1
0
0
1
0
0
0
2
4
8
12
15
15
9
0
-8
-13
-17
-24
-29
-35
-46
-70
-103
-128
-146
-158
-166
-163
-156
-149
-140
-130
-116
-101
-83
-67
-49
-34
-21
-11
-3
1
6
12
16
18
19
22
24
26
26
28
30
32
33
34
35
37
38
39
41
42
42
42
43
45
45
46
46
48
49
49
49
49
51
51
52
52
52
51
51
52
51
51
50
50
48
46
44
42
41
39
37
35
33
30
27
25
23
22
20
17
16
16
15
14
15
15
15
14
15
16
17
17
18
20
21
21
21
22
23
23
25
26
26
24
24
24
24
24
22
22
21
20
19
20
21
20
18
18
19
19
19
19
20
19
18
18
17
17
16
16
16
16
16
15
14
14
13
11
10
10
9
7
6
5
4
3
0
-2
-6
-7
-6
-4
-3
-3
-4
-4
-5
-7
-9
-10
-10
-9
-9
-8
-8
-9
-10
-10
-8
-6
-5
-5
-5
-6
-7
-7
-5
-3
-2
-3
-4
-5
-4
-4
-3
-1
0
2
5
10
13
12
6
0
-4
-7
-9
-14
-20
-24
-31
-47
-76
-107
-132
-147
-158
-159
-156
-153
-146
-137
-125
-115
-101
-87
-72
-57
-43
-29
-16
-6
0
5
11
16
19
21
22
25
27
28
30
32
35
35
36
36
39
41
43
45
46
48
48
49
49
50
51
53
56
57
57
56
57
57
59
59
60
62
62
62
61
63
64
65
63
62
62
61
60
59
59
56
54
51
50
49
48
45
41
39
37
35
33
31
31
30
29
27
27
28
28
29
29
30
30
30
32
33
35
35
36
37
38
37
37
37
37
38
36
37
36
36
35
35
36
34
33
32
32
31
31
31
30
30
29
29
27
28
29
29
27
27
28
29
28
28
28
27
26
26
27
29
28
27
26
24
23
22
21
20
19
18
17
16
15
13
10
6
4
4
4
5
5
6
7
7
6
4
2
1
0
0
1
2
1
0
0
1
2
2
2
1
2
1
1
1
2
3
3
2
1
1
2
1
1
2
3
3
3
4
8
13
16
16
12
4
-3
-8
-12
-16
-21
-26
-30
-38
-57
-88
-118
-136
-149
-158
-166
-163
-159
-153
-146
-139
-128
-115
-99
-85
-71
-56
-42
-29
-20
-11
-4
2
7
11
14
17
18
20
21
22
25
26
28
28
30
31
32
33
35
37
38
39
39
41
40
41
41
44
45
45
46
46
48
47
48
48
50
51
51
51
52
54
53
53
51
51
51
50
49
48
48
47
45
43
41
40
38
36
35
34
33
32
30
29
28
28
27
26
26
27
27
27
27
28
27
26
26
27
27
27
26
25
25
25
25
25
25
25
23
23
22
22
20
20
21
20
20
18
18
16
16
15
15
14
14
13
11
9
8
7
6
4
4
5
5
4
4
3
3
0
-1
-2
-2
-1
0
1
1
0
-2
-3
-3
-1
-1
-3
-5
-6
-6
-7
-8
-9
-10
-11
-11
-11
-9
-8
-7
-6
-6
-6
-9
-10
-10
-10
-10
-11
-10
-10
-11
-12
-11
-8
-7
-7
-7
-6
-5
-5
-5
-4
-4
-5
-6
-5
-5
-5
-4
-4
-4
-2
-1
1
6
11
12
6
-4
-13
-20
-25
-31
-35
-38
-46
-66
-96
-127
-149
-165
-172
-174
-166
-159
-149
-140
-129
-115
-101
-83
-67
-51
-37
-25
-15
-7
-1
5
10
13
15
17
20
21
22
22
24
26
27
28
29
31
32
34
35
37
38
39
41
41
43
43
44
45
46
47
47
48
49
51
51
53
53
55
54
53
53
52
52
51
51
51
51
49
47
46
43
41
39
38
37
35
34
33
33
31
30
29
29
29
29
28
28
30
31
31
32
33
33
33
34
33
32
31
32
33
33
32
31
31
30
29
29
29
29
27
26
25
25
23
22
22
22
21
18
17
16
14
12
12
13
12
11
10
10
8
7
6
7
8
8
7
6
5
3
3
5
5
4
1
0
0
-1
-2
-3
-4
-5
-6
-5
-4
-3
-4
-4
-5
-6
-8
-7
-6
-7
-7
-7
-6
-6
-6
-5
-4
-3
-3
-3
-2
-1
-1
-1
0
0
0
0
0
0
0
0
0
2
5
9
14
16
12
5
-2
-6
-9
-15
-20
-24
-31
-51
-82
-114
-136
-148
-157
-154
-152
-147
-139
-130
-116
-105
-88
-73
-57
-42
-28
-15
-5
2
8
13
17
20
21
24
26
28
28
30
32
34
35
36
38
39
41
42
43
45
46
48
49
50
50
51
52
53
53
53
55
56
58
57
59
60
61
61
61
62
61
60
59
59
59
58
57
55
54
50
48
45
43
40
36
33
30
29
27
26
25
23
21
20
19
18
18
17
18
18
17
18
19
19
19
20
21
22
22
23
24
25
25
25
25
26
26
26
26
26
25
25
25
24
24
23
23
23
22
21
21
21
21
20
20
20
19
19
19
19
18
16
14
13
15
15
15
14
14
13
11
10
10
9
7
6
5
4
2
0
0
-3
-5
-6
-5
-3
-2
-2
-2
-3
-4
-7
-8
-9
-8
-8
-8
-8
-9
-9
-10
-9
-9
-9
-9
-8
-7
-8
-9
-8
-7
-7
-7
-7
-6
-6
-6
-6
-5
-3
-1
3
7
9
5
-3
-12
-19
-23
-28
-33
-38
-43
-52
-77
-107
-135
-153
-166
-176
-173
-171
-162
-157
-146
-134
-120
-102
-87
-70
-57
-41
-28
-16
-8
-3
2
7
11
13
15
17
19
20
21
23
26
28
29
30
31
32
33
34
35
36
36
37
39
40
41
41
42
42
43
43
44
45
46
46
46
48
48
49
48
48
50
49
49
48
48
47
46
44
42
42
40
38
35
34
31
29
27
25
24
22
19
18
17
16
14
14
15
15
14
14
14
14
15
16
18
20
21
21
21
21
22
21
21
22
22
21
21
21
21
20
19
18
19
19
18
16
15
14
14
14
15
15
14
13
12
12
12
12
11
11
12
11
11
10
10
9
8
8
9
10
10
9
8
5
4
4
5
4
2
0
-2
-3
-4
-5
-8
-10
-11
-11
-10
-10
-9
-8
-8
-9
-10
-10
-12
-13
-14
-14
-13
-12
-13
-13
-13
-12
-11
-11
-12
-11
-11
-12
-12
-11
-10
-10
-11
-10
-9
-9
-9
-9
-9
-9
-8
-7
-5
0
3
6
5
1
-5
-13
-19
-24
-30
-36
-40
-44
-57
-84
-119
-142
-160
-168
-173
-170
-164
-159
-150
-144
-132
-122
-106
-92
-76
-60
-46
-33
-25
-17
-9
-3
2
6
10
12
13
15
17
19
21
22
23
25
27
27
28
28
30
32
32
33
35
37
38
39
40
41
41
41
43
44
46
46
45
46
48
49
47
47
49
51
52
51
51
50
50
48
48
47
47
45
44
44
41
39
36
35
34
33
31
30
29
28
28
28
28
28
28
28
28
29
30
31
31
32
33
33
32
32
31
30
31
30
31
31
30
28
28
29
28
27
25
25
24
24
24
23
23
23
22
22
21
21
21
20
20
20
20
19
18
18
18
17
16
15
14
12
11
12
12
13
12
11
9
7
6
5
6
6
7
5
4
3
3
2
0
-1
-2
-3
-2
-2
-1
0
0
0
-1
-2
-3
-4
-5
-4
-3
-3
-3
-2
-2
-2
-2
-3
-2
-2
-2
-2
-1
-1
-2
-2
-1
-1
-1
-1
0
0
0
0
1
3
6
9
13
13
9
1
-7
-11
-14
-18
-24
-29
-32
-45
-71
-104
-129
-143
-155
-157
-157
-149
-146
-139
-131
-120
-103
-88
-70
-56
-41
-28
-16
-6
0
5
10
15
19
21
21
23
25
27
28
30
32
34
35
36
36
37
39
40
42
44
46
46
46
47
48
49
48
50
51
52
52
52
54
54
54
54
55
55
55
56
56
56
55
54
53
53
51
49
48
47
46
44
41
39
37
36
33
32
30
29
28
27
28
27
27
27
28
29
30
30
31
32
33
33
33
33
33
33
33
33
33
31
30
31
31
30
29
28
28
28
27
27
27
26
25
23
23
23
23
21
21
22
22
21
20
21
20
20
19
18
17
16
15
13
12
10
9
9
9
9
9
9
9
8
6
6
6
5
3
1
1
0
-1
-3
-4
-5
-6
-5
-4
-2
-2
-3
-3
-4
-5
-7
-6
-5
-5
-5
-5
-5
-5
-5
-4
-3
-2
-2
-3
-3
-2
-3
-3
-2
-2
-1
-1
0
0
0
-1
0
1
4
8
12
14
10
1
-7
-13
-18
-24
-30
-33
-38
-53
-82
-113
-136
-149
-161
-163
-160
-152
-144
-135
-124
-112
-95
-78
-61
-45
-31
-18
-7
0
5
10
15
19
21
22
23
26
27
29
31
34
35
35
35
37
38
38
40
41
42
42
44
45
47
47
47
48
49
51
51
52
53
55
56
54
54
54
54
54
54
55
55
55
53
52
52
50
49
48
47
45
43
41
39
36
33
30
28
28
27
26
25
24
23
22
22
22
22
23
23
24
26
26
26
27
28
28
28
30
31
30
29
27
28
29
29
28
27
26
25
24
23
25
25
24
22
22
21
19
19
19
20
19
18
18
18
18
17
17
16
15
14
13
12
12
12
12
12
11
10
8
7
7
7
6
4
3
2
1
0
-2
-4
-6
-7
-7
-7
-6
-6
-4
-3
-4
-7
-10
-10
-10
-9
-9
-9
-10
-11
-10
-9
-7
-7
-7
-8
-7
-7
-7
-8
-8
-8
-7
-6
-6
-6
-6
-7
-5
-4
-4
-3
-2
0
5
9
8
3
-4
-11
-16
-20
-24
-30
-33
-39
-54
-82
-116
-139
-154
-161
-164
-158
-153
-146
-138
-132
-122
-110
-95
-81
-67
-53
-39
-28
-19
-11
-4
2
7
9
10
12
14
15
16
18
19
21
23
24
25
26
27
27
29
30
31
32
33
35
36
38
38
40
40
40
40
41
44
45
46
46
46
47
47
48
48
50
49
49
48
48
47
47
45
44
43
41
39
37
35
33
30
29
27
25
24
22
21
20
19
18
18
19
19
18
18
19
20
21
21
23
24
24
24
24
24
24
24
23
23
23
22
22
21
21
21
20
19
19
19
19
18
18
19
17
16
16
17
16
16
15
15
15
14
14
13
12
11
9
8
7
7
6
5
6
7
7
6
4
3
3
3
3
3
2
0
-1
-1
-2
-4
-5
-7
-8
-8
-8
-7
-5
-4
-3
-4
-7
-8
-9
-9
-9
-9
-8
-7
-7
-7
-6
-7
-7
-7
-7
-5
-5
-6
-6
-5
-5
-5
-5
-4
-3
-5
-5
-5
-4
-3
-2
-1
1
5
8
10
7
0
-9
-15
-18
-22
-28
-32
-36
-43
-63
-94
-124
-142
-154
-161
-162
-157
-151
-146
-138
-130
-116
-101
-85
-69
-53
-39
-27
-17
-9
-3
1
7
9
11
12
13
15
18
20
20
20
22
24
25
26
27
29
31
31
33
34
36
36
37
38
39
40
40
41
42
43
43
44
46
46
46
45
47
47
47
46
46
46
45
44
42
42
41
40
38
36
34
31
30
28
26
24
22
21
20
19
18
19
19
19
18
19
21
23
24
24
25
25
26
26
26
27
25
26
26
26
25
24
25
24
23
22
23
23
22
22
21
21
20
19
17
17
17
16
15
14
13
12
11
10
10
9
8
8
8
7
5
3
3
3
2
2
4
4
3
1
0
1
1
2
2
2
0
0
-2
-3
-4
-6
-7
-6
-5
-4
-4
-3
-2
-3
-5
-6
-7
-8
-8
-8
-7
-7
-7
-7
-6
-5
-5
-5
-4
-4
-4
-4
-4
-3
-2
-3
-3
-2
-2
-3
-4
-3
-2
-1
2
6
11
12
8
0
-8
-15
-20
-26
-30
-35
-42
-60
-91
-123
-146
-158
-167
-164
-156
-146
-136
-127
-114
-100
-83
-68
-52
-37
-23
-13
-7
-1
3
7
9
12
14
17
17
18
19
20
22
23
26
28
29
29
30
31
32
33
34
35
36
37
37
38
40
40
41
41
42
42
43
43
45
46
47
48
47
47
46
46
45
45
44
42
41
40
39
37
36
33
31
28
26
25
23
23
22
19
17
17
17
17
17
16
16
17
18
18
19
20
21
21
21
22
24
24
25
25
24
24
26
27
27
26
25
25
25
25
24
23
23
23
22
21
22
20
20
20
21
20
20
20
20
20
19
18
18
18
18
16
16
15
15
13
13
13
12
10
8
7
6
4
2
1
0
-4
-5
-4
-3
-3
-2
-2
-4
-6
-8
-9
-9
-9
-10
-10
-9
-9
-10
-10
-9
-9
-9
-9
-9
-8
-8
-8
-7
-6
-7
-7
-5
-5
-5
-5
-5
-5
-3
-2
1
6
8
7
0
-6
-11
-16
-20
-26
-30
-35
-44
-66
-98
-124
-145
-154
-162
-160
-156
-151
-142
-135
-121
-109
-92
-77
-63
-49
-34
-21
-11
-4
1
7
11
14
16
18
20
22
24
26
28
29
29
31
34
35
36
37
38
40
40
42
43
45
46
47
48
48
50
50
51
51
53
52
52
53
55
57
56
57
57
57
56
56
57
56
56
54
54
53
52
49
47
45
43
42
38
36
34
32
30
28
28
26
24
23
22
22
22
21
21
21
22
22
22
23
24
25
25
26
27
28
29
29
30
30
30
30
31
32
31
31
30
30
30
30
30
29
29
28
27
27
27
28
27
27
27
27
27
26
26
25
25
24
25
25
25
25
24
25
23
22
22
24
25
26
25
23
22
20
19
19
19
19
17
15
12
11
10
8
5
4
3
3
4
5
6
6
5
5
4
3
1
0
1
1
2
1
1
1
1
1
1
2
2
3
2
2
3
3
4
4
4
4
4
4
4
5
6
6
6
7
10
14
19
21
18
12
3
-3
-6
-10
-15
-21
-24
-29
-41
-67
-101
-123
-142
-154
-162
-162
-153
-148
-139
-133
-121
-110
-95
-81
-66
-50
-36
-22
-12
-3
3
9
15
19
23
25
27
29
30
32
34
35
36
37
40
41
43
43
45
46
46
48
49
52
52
52
53
54
56
55
56
55
57
58
58
59
58
59
59
59
60
62
62
61
62
60
61
60
59
58
59
59
56
56
54
54
52
51
50
49
48
46
45
44
44
43
42
42
42
42
41
40
39
39
37
36
36
36
37
36
35
34
34
33
33
33
33
32
31
30
29
30
29
28
28
27
26
24
24
23
23
23
22
22
21
21
20
19
20
20
20
18
18
17
17
16
15
15
15
14
12
11
10
9
7
8
9
10
10
8
7
7
7
7
7
6
4
3
2
3
3
1
-1
-3
-3
-3
-3
-2
0
1
1
0
0
-2
-3
-4
-3
-2
0
-1
-2
-3
-2
-2
-2
-1
0
0
0
0
0
0
1
1
1
1
1
1
2
2
4
4
4
6
9
14
16
17
14
7
-1
-7
-11
-17
-24
-30
-36
-51
-81
-112
-138
-154
-163
-165
-156
-152
-142
-136
-124
-110
-95
-78
-65
-50
-37
-24
-14
-7
0
6
11
14
16
18
19
20
21
23
25
27
28
28
30
31
32
33
34
36
36
38
39
40
41
41
44
45
46
47
48
49
49
50
50
52
52
54
53
54
53
53
53
53
53
52
51
50
50
50
48
48
46
44
42
41
41
38
37
36
36
35
35
34
35
35
34
34
34
35
34
34
34
35
33
32
33
33
33
32
31
31
31
30
30
30
29
28
27
26
26
25
25
24
24
23
21
20
20
18
17
15
14
13
12
10
10
10
10
9
8
8
6
4
4
4
5
7
7
7
6
5
4
4
5
5
4
2
2
1
0
-2
-4
-5
-6
-4
-2
0
0
0
0
-1
-2
-3
-3
-2
-2
-2
-1
-1
-1
-1
0
1
1
1
1
1
1
1
2
2
2
2
2
3
3
3
3
3
5
7
12
15
16
11
3
-4
-9
-14
-21
-26
-29
-37
-58
-92
-121
-145
-155
-161
-157
-152
-146
-135
-126
-110
-94
-76
-59
-42
-27
-15
-5
2
7
12
17
19
20
21
24
26
28
30
31
33
34
35
37
39
40
41
42
44
44
45
47
48
49
49
51
52
53
53
55
57
57
58
58
59
59
59
59
60
61
59
60
59
58
56
55
56
53
52
49
47
44
40
39
37
36
32
30
29
28
27
27
27
26
25
25
26
26
27
27
29
30
30
31
32
34
35
35
36
37
38
37
38
38
38
37
36
36
36
36
35
35
34
33
33
33
33
32
32
32
31
31
31
31
31
31
30
28
27
25
23
23
25
25
24
23
23
21
19
18
19
19
16
14
13
12
10
8
6
4
4
4
6
7
7
7
5
3
1
0
0
1
1
1
0
0
0
0
0
1
2
2
1
2
1
1
1
3
2
1
1
2
2
2
3
4
7
11
15
16
12
3
-6
-13
-18
-24
-30
-34
-41
-59
-92
-123
-147
-159
-165
-163
-154
-147
-137
-128
-114
-99
-84
-68
-51
-35
-22
-11
-2
4
9
13
18
22
23
24
25
27
28
30
33
34
36
36
37
37
40
41
41
43
45
46
46
47
47
49
49
50
50
52
53
53
54
54
56
56
56
56
57
58
57
57
57
57
57
57
57
56
54
52
51
50
48
45
43
41
37
35
33
32
30
28
27
26
24
23
22
22
22
22
21
22
23
24
23
23
24
25
26
26
27
27
28
27
28
29
29
28
27
27
26
26
24
23
23
23
23
22
21
19
19
20
21
21
20
19
19
19
18
18
17
17
17
17
17
17
17
17
16
16
16
15
13
12
10
10
9
8
7
6
4
2
0
-1
-4
-7
-9
-9
-10
-10
-9
-8
-7
-8
-9
-9
-10
-12
-14
-14
-14
-13
-14
-14
-14
-13
-11
-12
-12
-12
-11
-11
-12
-11
-10
-10
-11
-11
-11
-10
-10
-10
-10
-9
-9
-10
-7
-3
1
4
3
-1
-9
-17
-23
-27
-32
-38
-41
-46
-61
-92
-124
-147
-161
-167
-168
-164
-161
-154
-147
-137
-126
-113
-98
-86
-73
-60
-45
-31
-21
-13
-7
-2
3
6
9
11
13
15
16
18
20
21
22
24
26
27
28
29
30
31
33
34
35
36
37
38
38
40
42
44
44
45
45
45
46
46
47
48
48
48
48
49
50
50
50
50
50
50
49
48
47
46
45
44
43
42
40
38
35
34
32
31
29
28
28
28
28
27
28
27
27
26
26
27
27
27
27
28
27
26
26
26
27
26
26
24
23
23
23
22
22
23
23
22
21
21
20
19
19
19
18
17
17
17
18
16
15
15
16
16
15
16
16
15
14
13
13
13
12
11
9
9
8
8
8
8
8
8
6
5
4
4
4
3
3
2
2
1
1
0
-2
-3
-4
-3
-2
-1
0
0
1
0
-1
-2
-2
-2
-2
-2
-1
-1
-2
-2
-1
-1
0
0
0
0
0
0
0
1
2
2
1
2
3
3
2
3
4
5
6
8
12
16
19
16
10
2
-5
-10
-15
-20
-26
-31
-42
-64
-94
-121
-139
-150
-155
-152
-148
-140
-133
-122
-111
-97
-81
-66
-51
-36
-22
-10
-2
3
9
14
19
22
24
26
28
29
30
31
33
35
35
37
38
41
42
43
44
45
46
46
48
49
49
50
50
52
52
53
54
56
56
56
56
56
58
57
58
58
60
59
58
58
58
59
57
56
54
53
51
49
48
46
45
42
40
39
38
37
36
37
36
35
34
33
34
35
36
36
36
36
35
35
35
35
34
34
33
33
32
31
32
31
31
30
30
29
29
27
27
28
28
27
24
24
23
22
21
20
20
20
20
20
20
19
18
17
17
16
14
14
13
11
9
8
7
7
7
7
8
8
7
5
5
4
5
5
5
4
3
2
0
-1
-2
-4
-6
-5
-4
-3
-3
-2
-2
-3
-5
-5
-5
-5
-5
-5
-3
-3
-4
-3
-3
-3
-3
-3
-3
-2
-2
-3
-2
-3
-3
-5
-3
-1
0
0
-1
0
0
1
4
9
12
10
3
-5
-13
-20
-27
-34
-40
-45
-59
-87
-122
-148
-165
-172
-170
-164
-155
-146
-134
-122
-106
-91
-76
-60
-44
-30
-18
-9
-3
1
6
11
13
14
16
18
20
22
23
24
26
28
29
31
32
32
32
34
35
36
36
38
38
40
41
42
43
44
44
45
47
47
47
49
51
52
51
52
51
52
51
52
51
50
49
47
47
45
43
40
38
36
35
33
31
30
27
25
23
22
21
20
20
20
20
20
20
20
21
22
23
24
25
26
27
27
28
27
27
27
28
29
28
27
26
26
25
25
25
24
24
24
23
22
23
22
22
22
23
22
21
21
21
21
21
21
21
20
18
17
18
18
19
18
19
18
16
14
13
12
12
12
11
10
8
6
4
3
1
0
-3
-3
-3
-2
-1
0
0
-1
-3
-5
-6
-7
-8
-8
-7
-6
-6
-6
-5
-5
-6
-7
-7
-7
-7
-7
-5
-3
-3
-4
-4
-4
-3
-4
-4
-4
-4
-4
-2
2
6
7
4
-3
-11
-19
-25
-30
-36
-40
-46
-61
-92
-123
-145
-158
-165
-168
-161
-157
-149
-142
-133
-120
-105
-88
-75
-61
-49
-34
-21
-11
-3
2
8
12
15
17
19
21
24
25
26
27
28
30
32
34
35
37
39
40
41
42
43
45
47
47
48
48
51
51
52
53
53
54
54
55
55
57
57
57
58
59
61
59
59
58
59
58
58
57
55
55
52
51
50
48
46
42
39
37
35
33
31
29
28
27
27
26
26
25
25
26
27
28
29
30
31
31
31
31
31
32
31
32
32
33
33
32
32
32
33
31
30
29
28
28
27
28
28
28
27
26
25
26
25
25
25
24
24
24
24
23
23
22
21
22
22
21
20
21
21
20
17
15
14
14
14
14
15
13
11
9
9
10
10
10
8
8
7
6
4
3
3
1
0
0
0
1
2
3
4
5
3
1
0
0
0
0
1
1
1
0
1
3
3
3
2
2
3
3
3
4
4
4
4
4
5
5
6
6
7
8
9
11
16
20
20
16
8
0
-6
-11
-17
-22
-26
-30
-43
-68
-100
-125
-138
-150
-154
-156
-149
-143
-133
-124
-114
-101
-85
-68
-54
-39
-25
-12
-2
4
9
14
19
22
24
24
26
28
30
32
34
36
36
37
39
42
42
44
44
45
46
47
49
49
51
51
52
52
54
55
54
56
56
58
57
59
59
60
60
59
59
58
58
57
59
59
58
57
56
55
52
50
49
48
46
44
43
42
41
40
39
38
39
38
36
35
35
36
36
35
35
35
34
34
34
33
33
32
32
33
32
31
30
30
29
28
28
28
28
27
27
25
23
22
23
23
23
22
21
20
19
17
17
17
17
15
14
13
14
12
11
11
10
8
7
6
5
5
4
5
6
7
5
4
4
5
5
3
1
0
0
-1
-3
-6
-6
-7
-6
-5
-3
-1
-2
-2
-2
-4
-6
-6
-6
-5
-4
-4
-4
-3
-3
-2
-1
-1
-1
-2
-1
0
0
0
0
0
0
0
0
0
1
1
1
2
3
5
8
12
14
10
3
-3
-8
-13
-19
-26
-31
-38
-55
-86
-115
-136
-150
-153
-152
-144
-140
-131
-124
-112
-98
-85
-69
-56
-41
-29
-17
-8
-1
4
10
15
18
19
20
22
24
25
26
28
30
31
32
33
35
36
37
37
38
39
40
42
44
46
45
46
47
49
49
49
51
51
52
51
53
54
55
55
56
57
56
56
55
55
53
53
52
51
49
46
45
42
40
37
34
32
30
29
27
26
25
24
23
23
24
23
25
26
27
27
28
29
30
31
30
31
32
33
33
33
34
33
33
33
33
32
32
32
32
31
31
31
30
30
29
29
29
29
29
28
29
28
28
27
27
28
27
27
27
27
25
23
23
22
24
23
23
22
20
18
17
18
17
15
12
11
10
8
6
4
3
3
3
4
5
6
5
4
4
3
1
0
0
1
2
1
0
1
1
1
1
2
2
3
3
3
3
3
3
3
4
3
3
3
5
5
5
7
9
13
16
17
12
4
-4
-10
-14
-21
-27
-31
-35
-52
-82
-112
-137
-150
-162
-162
-157
-150
-140
-132
-118
-105
-87
-70
-54
-38
-25
-13
-4
3
10
15
19
21
23
25
26
29
31
33
34
36
37
39
40
41
43
44
45
46
48
49
49
51
52
53
53
53
54
56
58
58
58
59
59
59
59
60
61
62
62
62
62
62
61
60
60
57
56
54
53
50
48
47
44
43
40
37
35
34
33
30
29
27
27
26
25
25
26
26
26
27
27
29
29
30
30
31
32
32
32
33
34
34
34
34
34
34
33
34
33
33
31
31
31
31
30
29
29
28
27
27
27
27
26
26
25
26
26
25
25
26
27
25
25
24
24
23
22
22
22
22
22
23
22
21
19
18
17
16
16
13
11
9
9
8
7
5
2
0
-1
-1
0
1
1
1
0
0
-2
-4
-4
-4
-4
-4
-4
-3
-3
-4
-4
-4
-4
-4
-4
-4
-3
-3
-4
-4
-4
-4
-4
-4
-4
-4
-3
-4
-4
-3
0
2
6
9
10
4
-5
-14
-20
-25
-31
-38
-40
-43
-54
-80
-113
-139
-157
-165
-175
-171
-166
-157
-151
-143
-131
-117
-99
-85
-68
-53
-38
-25
-16
-7
-1
3
7
11
14
16
17
19
21
24
25
26
26
29
30
30
32
34
36
35
36
38
39
40
40
41
43
45
45
45
45
46
49
48
48
48
49
49
50
51
51
52
51
52
52
53
52
51
51
50
51
50
49
48
47
47
44
43
40
39
37
35
34
34
34
32
32
33
33
31
30
30
31
31
29
29
29
29
28
27
28
29
28
27
26
26
26
24
24
23
22
21
20
19
19
19
19
18
19
19
19
18
16
16
16
15
14
15
15
14
13
13
12
12
12
10
11
11
11
10
9
7
5
4
4
5
6
5
4
2
1
0
1
2
2
1
0
0
-2
-3
-4
-6
-7
-6
-4
-4
-3
-3
-3
-3
-4
-4
-5
-5
-5
-4
-3
-3
-4
-4
-3
-2
-3
-2
-2
-1
-1
-1
-1
0
0
0
0
1
2
2
2
3
4
4
5
8
13
16
16
13
6
0
-4
-8
-13
-20
-25
-30
-37
-57
-87
-116
-136
-147
-155
-151
-148
-141
-135
-126
-115
-103
-87
-73
-59
-46
-31
-17
-6
1
7
13
18
22
24
26
28
30
31
33
34
35
35
37
39
41
42
43
44
45
46
47
49
50
51
52
53
54
55
55
54
55
57
58
59
59
61
61
60
61
62
63
62
62
62
61
59
59
59
57
57
54
54
53
51
49
46
46
45
44
41
40
39
39
38
38
38
37
38
37
39
38
37
37
37
38
36
36
36
35
34
34
34
34
33
33
33
31
30
29
29
29
28
28
29
29
27
26
25
25
24
23
21
20
19
18
17
17
16
15
14
14
14
13
11
10
10
10
10
10
11
10
9
9
9
9
9
9
8
7
7
5
5
4
2
0
0
1
3
4
5
6
5
4
3
2
3
2
2
3
4
4
4
4
4
4
5
6
7
8
7
7
7
7
7
7
9
10
10
9
10
10
10
13
18
22
21
16
8
0
-5
-11
-17
-22
-27
-34
-54
-85
-115
-135
-146
-154
-150
-145
-135
-126
-115
-102
-86
-68
-53
-39
-25
-12
-2
4
9
14
18
21
22
24
26
27
28
30
32
33
34
35
37
38
38
39
40
42
42
44
45
46
46
47
47
48
49
49
50
50
51
52
53
53
53
54
55
55
55
54
54
54
53
51
50
48
46
44
43
41
38
36
34
32
29
27
26
25
24
22
22
22
22
22
22
23
23
24
24
26
27
28
30
30
31
31
32
32
32
31
31
32
32
31
30
31
30
30
30
30
30
28
27
27
27
25
25
25
25
24
23
23
22
21
20
20
19
17
16
15
15
14
13
13
12
11
9
10
11
10
9
7
7
6
5
2
0
-1
-1
0
1
3
2
1
0
-1
-2
-3
-4
-3
-3
-2
-2
-2
-2
-2
-1
-1
-1
-1
0
0
0
-1
0
0
0
0
0
1
2
2
3
5
7
11
14
14
10
1
-6
-12
-17
-24
-31
-35
-45
-67
-100
-127
-144
-153
-154
-149
-141
-135
-124
-112
-97
-82
-68
-55
-41
-28
-16
-6
0
5
10
15
18
20
20
21
22
23
25
26
28
28
29
30
32
34
34
35
35
36
37
39
40
42
42
41
43
44
46
46
47
48
48
49
49
49
50
52
52
53
53
52
52
51
52
51
50
49
48
46
44
41
39
37
35
34
33
31
29
26
25
24
24
22
21
20
20
20
20
20
21
22
22
22
23
24
25
25
25
27
28
28
28
30
30
31
31
32
32
32
32
31
32
31
30
29
30
31
30
30
29
30
28
28
28
30
29
29
28
28
29
29
28
27
27
27
27
28
28
28
25
23
22
22
22
20
18
16
15
14
12
10
8
5
4
4
5
6
6
6
6
5
3
1
1
1
0
0
0
0
0
0
-1
0
0
0
1
1
1
0
0
0
0
1
0
1
1
1
1
1
2
4
6
9
13
15
12
5
-2
-8
-12
-17
-23
-28
-31
-38
-54
-81
-108
-128
-140
-149
-150
-145
-141
-135
-129
-118
-108
-94
-79
-65
-51
-38
-25
-14
-6
0
5
10
15
19
20
21
22
25
27
29
30
31
32
33
34
36
38
38
39
39
41
41
43
44
46
47
47
48
48
50
50
52
52
52
53
53
55
54
55
56
57
57
57
58
57
56
55
56
56
56
54
52
51
49
47
44
43
40
38
36
34
33
32
31
30
30
29
28
28
28
30
30
29
29
29
30
30
30
31
31
31
31
31
30
30
28
28
28
28
27
26
25
24
24
23
23
23
23
21
20
20
19
19
17
17
17
17
16
15
15
14
14
13
13
14
13
12
10
9
7
6
5
4
5
5
4
3
1
0
0
0
0
0
-1
-2
-3
-4
-6
-7
-9
-11
-12
-11
-10
-8
-6
-7
-8
-9
-10
-11
-12
-12
-11
-11
-10
-11
-11
-11
-10
-10
-9
-9
-10
-10
-9
-8
-8
-8
-8
-8
-8
-8
-7
-6
-5
-5
-5
-5
-2
0
4
7
7
2
-6
-15
-20
-26
-31
-38
-41
-46
-58
-83
-113
-133
-149
-158
-162
-158
-150
-144
-134
-126
-112
-101
-86
-72
-58
-42
-30
-19
-12
-5
0
4
8
12
14
15
16
17
20
21
22
23
25
26
27
27
29
31
32
32
33
35
36
37
38
39
41
41
43
43
45
45
45
46
46
48
49
50
50
51
50
50
50
51
51
50
50
49
49
47
46
45
43
41
39
39
37
36
33
32
32
31
31
30
31
31
32
31
31
31
31
30
30
29
29
29
29
29
29
28
28
28
28
27
27
27
25
25
24
24
24
23
23
23
23
21
20
19
19
19
18
18
16
16
15
14
13
13
13
12
11
10
9
8
7
7
7
5
5
6
8
6
4
4
5
6
5
4
4
4
2
0
-2
-4
-5
-6
-5
-3
-1
0
0
0
-1
-2
-2
-2
-2
-2
-2
-2
-2
-2
-2
-1
0
0
0
0
0
1
2
2
2
3
3
3
4
5
4
3
3
4
6
10
15
19
20
14
7
1
-4
-10
-16
-20
-24
-32
-54
-86
-113
-133
-141
-144
-138
-132
-126
-115
-107
-94
-81
-66
-54
-41
-27
-15
-3
4
9
13
17
21
24
25
27
29
29
30
31
33
34
36
37
38
39
39
41
43
44
45
47
48
49
49
50
52
54
55
55
56
57
58
58
59
61
61
62
62
63
62
62
61
62
61
59
59
56
56
52
51
49
46
44
41
40
37
36
34
33
33
31
31
30
30
29
30
31
31
32
32
33
33
34
34
35
36
37
37
37
37
35
35
35
35
34
33
33
33
32
31
31
32
31
31
31
31
31
30
29
28
28
27
27
26
26
25
24
24
22
23
21
21
21
21
19
18
18
17
16
15
15
15
13
11
9
9
8
7
4
2
2
2
3
4
6
5
4
2
0
0
-2
-1
0
0
0
0
0
0
0
-1
-1
0
0
0
0
0
0
0
0
0
1
1
2
2
1
2
3
6
10
14
15
11
3
-5
-12
-16
-22
-29
-33
-38
-48
-74
-105
-131
-147
-156
-162
-157
-153
-144
-138
-127
-115
-100
-82
-68
-51
-36
-22
-13
-5
0
6
11
14
15
17
19
19
21
23
25
26
28
29
31
31
31
32
34
36
36
37
38
39
39
40
41
42
43
43
44
45
45
45
46
48
49
50
49
49
49
49
50
50
51
50
50
48
47
46
43
42
39
38
34
32
30
28
27
24
22
20
18
16
15
15
14
13
13
13
14
14
14
14
15
16
16
17
18
19
19
19
20
20
20
20
19
20
20
20
19
18
18
18
17
17
17
16
15
14
15
15
15
14
14
14
13
12
11
11
11
10
9
9
9
8
6
5
4
4
3
3
4
4
3
0
0
0
0
-1
-3
-4
-5
-5
-7
-9
-10
-12
-13
-13
-11
-10
-10
-9
-9
-9
-10
-12
-14
-13
-13
-13
-12
-11
-11
-12
-12
-11
-11
-11
-11
-10
-9
-10
-11
-10
-10
-9
-9
-9
-8
-8
-8
-8
-7
-6
-3
0
4
7
4
-3
-13
-21
-26
-33
-40
-45
-48
-57
-77
-106
-135
-152
-166
-170
-170
-164
-156
-147
-137
-127
-110
-97
-81
-67
-52
-38
-27
-16
-7
-2
1
6
10
12
13
14
16
19
20
21
22
24
24
25
26
28
31
31
32
33
34
35
36
37
39
40
39
40
42
43
44
44
45
45
46
47
48
48
48
49
50
51
51
51
50
49
49
48
47
46
46
44
42
40
38
36
33
32
30
28
27
25
26
25
25
25
25
25
26
27
27
29
30
30
29
30
29
29
28
28
29
29
29
29
29
28
27
26
26
28
27
26
23
23
23
23
22
21
21
19
18
17
17
16
16
15
15
15
14
12
11
10
8
6
6
5
5
6
6
6
5
5
5
5
5
4
4
3
2
0
0
-2
-3
-6
-7
-7
-6
-4
-4
-3
-2
-4
-5
-6
-5
-5
-5
-5
-4
-5
-5
-5
-5
-3
-3
-3
-2
-2
-2
-2
-1
-1
-1
-1
0
0
0
0
0
1
2
3
5
11
15
15
10
3
-1
-5
-9
-13
-18
-23
-33
-54
-84
-112
-129
-143
-146
-144
-139
-135
-127
-118
-107
-94
-82
-68
-56
-42
-29
-16
-7
-1
3
8
13
16
17
18
20
21
23
24
26
27
28
28
30
32
33
34
36
39
41
43
44
45
46
47
48
49
51
51
52
53
53
52
52
53
52
54
55
57
57
57
57
56
56
55
54
53
52
50
48
45
43
41
39
36
34
32
31
28
27
27
26
25
25
25
24
24
24
25
26
27
28
29
30
30
31
31
31
31
31
31
31
31
30
30
29
29
28
27
28
26
26
26
26
25
24
24
24
23
22
22
21
21
20
19
18
17
16
14
14
13
12
11
11
11
11
11
9
8
7
6
7
7
6
4
4
3
2
0
-2
-3
-4
-4
-3
-2
0
0
-1
-3
-3
-5
-6
-6
-5
-5
-5
-4
-4
-4
-5
-5
-3
-2
-2
-2
-1
-1
-1
-1
-1
0
0
0
0
0
0
0
2
5
10
13
13
8
0
-9
-15
-19
-24
-28
-32
-38
-54
-82
-111
-133
-146
-155
-155
-149
-142
-134
-126
-113
-98
-82
-67
-54
-39
-24
-13
-5
0
6
12
15
18
19
22
23
24
26
28
29
30
32
34
36
36
38
39
41
42
42
44
44
45
45
47
48
49
49
50
52
53
54
54
55
55
56
56
56
57
56
57
57
57
56
55
54
54
53
50
48
46
44
40
38
35
34
33
31
30
27
25
24
24
23
22
22
22
22
22
22
23
24
25
25
26
27
28
29
29
31
31
31
30
30
31
32
31
30
30
29
28
27
28
28
26
26
26
27
26
26
25
25
24
24
24
24
23
22
22
22
22
21
19
19
20
21
20
19
18
16
15
16
16
16
13
10
9
8
7
5
4
2
1
0
0
2
3
4
3
2
1
0
-1
-2
-2
-2
-2
-1
-1
-1
-1
-1
0
0
0
0
0
1
1
1
2
2
2
2
1
1
2
3
3
2
3
7
11
14
14
11
4
-2
-9
-13
-19
-25
-29
-34
-42
-64
-94
-121
-140
-150
-158
-154
-150
-142
-133
-125
-114
-103
-87
-74
-59
-46
-32
-20
-10
-2
2
7
10
14
16
18
19
20
22
24
25
26
27
29
32
33
33
32
34
35
36
38
38
40
41
42
41
42
44
45
47
47
49
49
50
49
50
51
51
52
52
53
53
54
54
55
54
52
51
50
51
50
48
47
46
44
40
37
34
34
32
31
29
27
25
24
23
23
24
25
25
25
26
27
27
28
28
28
28
28
29
28
29
28
28
27
27
27
27
27
26
26
25
24
24
25
25
24
23
22
22
22
22
21
21
21
20
20
20
20
19
18
18
19
19
17
16
15
15
14
13
12
13
14
14
13
11
9
8
8
8
7
6
5
4
4
2
0
-1
-3
-4
-3
-2
-1
0
1
0
0
-2
-2
-3
-4
-4
-3
-2
-2
-3
-3
-2
-2
-2
-2
-1
0
0
0
-1
0
0
0
0
0
0
1
1
1
3
4
4
5
8
12
15
13
8
0
-7
-11
-15
-20
-25
-29
-36
-56
-86
-115
-132
-143
-150
-150
-149
-142
-138
-130
-122
-108
-92
-77
-62
-49
-35
-24
-13
-5
0
5
10
13
15
17
20
22
23
25
26
27
28
29
31
33
35
34
36
37
38
38
39
41
43
45
45
45
46
48
48
49
51
51
52
52
53
54
56
56
56
57
57
58
56
57
57
57
56
55
54
53
52
48
47
46
45
42
40
39
38
37
36
35
34
34
33
34
35
35
35
34
35
35
35
35
35
35
34
33
34
33
32
32
32
32
31
30
29
29
28
28
28
29
29
28
27
26
25
23
22
21
21
20
19
17
17
17
15
13
12
11
10
10
9
9
8
6
6
6
6
6
6
7
7
5
3
3
4
5
3
3
2
1
0
-1
-2
-4
-5
-5
-3
-1
-1
0
0
-1
-2
-3
-3
-2
-2
-2
-1
0
-1
-2
-1
0
0
0
0
0
0
0
0
1
2
3
3
4
5
5
5
5
6
9
13
17
18
13
5
-3
-9
-14
-20
-25
-29
-37
-59
-89
-116
-133
-143
-149
-144
-140
-131
-125
-115
-102
-89
-74
-60
-44
-31
-19
-8
0
6
9
14
19
22
23
23
25
26
28
29
30
31
33
34
35
37
39
39
41
41
42
43
43
45
46
47
48
50
52
52
52
53
55
55
56
55
57
57
58
58
57
57
56
56
56
55
54
52
51
49
47
44
43
41
39
36
35
33
30
29
28
28
27
27
26
26
25
25
27
29
30
30
31
32
33
33
33
35
35
34
34
34
34
33
33
33
33
32
31
30
29
29
28
29
27
26
24
24
23
21
21
20
19
18
16
16
15
14
14
12
11
11
12
13
13
11
10
10
9
9
8
8
6
5
3
2
0
-1
-2
-1
0
0
0
0
0
0
-2
-4
-5
-5
-6
-5
-4
-4
-4
-4
-3
-3
-3
-2
-2
-1
-2
-2
-1
-1
-1
-1
0
0
0
0
1
1
1
2
5
9
12
14
12
5
-3
-10
-16
-21
-26
-31
-36
-50
-78
-112
-137
-149
-158
-155
-152
-142
-135
-125
-112
-97
-80
-66
-49
-34
-21
-12
-3
4
9
12
17
20
22
23
24
27
29
30
31
33
34
34
35
36
39
39
41
42
44
44
45
45
47
49
49
51
51
52
52
52
54
55
55
55
55
56
56
56
57
58
56
57
55
55
53
51
50
48
47
43
41
39
37
34
31
31
29
28
26
25
23
23
22
22
22
21
20
21
21
21
20
21
22
22
22
23
25
26
26
27
28
28
28
28
29
28
28
27
28
27
27
27
27
28
27
26
25
26
27
27
26
26
26
25
24
24
23
23
23
24
24
24
22
20
19
20
20
18
16
14
14
13
11
9
8
6
3
3
5
6
7
7
7
5
3
2
1
1
0
0
0
1
0
0
0
0
1
1
0
0
1
2
2
1
2
2
1
1
1
2
2
2
3
3
4
6
9
14
18
17
11
3
-5
-12
-19
-26
-31
-35
-41
-57
-88
-119
-143
-154
-164
-164
-159
-151
-143
-136
-125
-114
-98
-82
-67
-52
-38
-25
-13
-4
0
5
10
16
19
21
22
25
26
28
28
30
31
32
33
34
37
38
40
41
43
44
45
46
46
48
49
50
49
51
52
52
53
53
54
54
55
57
59
60
59
59
59
58
57
57
57
57
57
55
55
54
52
50
47
45
43
42
39
37
35
33
31
29
28
27
26
24
23
23
24
25
24
26
26
27
27
29
30
30
30
30
31
31
32
31
32
32
32
31
29
29
30
30
29
28
27
27
26
26
27
28
27
26
24
24
24
24
23
23
23
23
22
22
23
21
19
17
17
17
17
18
18
18
17
15
13
12
12
13
13
11
10
9
8
6
4
4
2
0
0
1
2
1
1
2
3
2
0
-1
-1
0
0
0
0
0
0
0
0
0
0
0
0
1
2
2
3
2
2
3
2
2
1
2
3
4
5
5
5
5
8
13
18
19
14
6
0
-6
-11
-17
-21
-25
-31
-50
-80
-109
-131
-144
-154
-152
-149
-142
-136
-127
-116
-106
-92
-79
-64
-51
-38
-25
-13
-5
0
5
10
15
17
19
20
22
24
26
27
28
30
31
31
32
34
36
37
37
39
40
42
42
42
43
43
45
45
46
47
49
49
49
51
51
52
53
54
55
55
56
56
57
56
56
56
56
56
55
54
53
52
51
48
47
46
46
43
42
40
39
37
35
35
35
35
35
35
35
35
35
34
34
34
35
33
33
33
33
33
33
33
32
32
30
30
30
31
30
29
29
28
26
25
26
26
25
23
23
23
22
21
19
19
19
18
17
16
16
15
13
13
12
11
9
8
7
6
6
6
7
7
6
4
2
2
3
3
3
2
0
0
-2
-3
-3
-6
-7
-8
-7
-6
-6
-4
-4
-4
-6
-8
-9
-8
-9
-9
-8
-7
-7
-7
-7
-7
-7
-7
-6
-5
-5
-5
-5
-5
-5
-5
-5
-5
-4
-4
-4
-3
-2
-1
0
4
8
9
6
0
-7
-13
-18
-24
-29
-32
-36
-49
-76
-106
-130
-144
-156
-157
-155
-148
-142
-135
-125
-112
-95
-79
-64
-50
-36
-22
-12
-6
0
4
9
12
13
16
17
19
20
22
24
25
26
29
31
32
33
33
35
36
38
38
39
40
41
43
44
46
46
48
48
49
50
50
51
52
54
54
55
55
55
56
55
56
55
55
53
51
50
49
47
45
43
41
39
37
35
33
30
29
27
27
26
25
25
25
26
25
26
27
28
28
29
31
31
31
31
32
32
33
34
34
34
33
33
32
33
32
31
30
30
30
30
29
28
27
26
26
26
26
26
25
25
25
24
22
22
22
20
20
19
19
17
16
15
14
14
15
15
14
12
10
10
11
11
9
7
6
5
3
2
0
0
-2
-2
-1
0
0
0
0
0
-3
-5
-6
-5
-4
-4
-3
-3
-3
-4
-3
-2
-1
-2
-1
-1
-1
0
0
0
0
0
0
0
0
1
1
2
3
6
9
13
15
13
7
-1
-9
-15
-20
-26
-31
-35
-44
-65
-95
-124
-141
-154
-161
-160
-154
-146
-136
-124
-113
-98
-83
-66
-50
-34
-21
-10
-1
4
9
13
19
21
22
23
25
26
28
30
31
33
34
35
36
39
40
41
42
43
44
45
46
46
48
48
49
51
51
53
52
53
54
54
55
56
58
57
58
57
58
59
59
57
56
56
55
55
53
53
50
48
45
44
42
39
36
34
33
30
28
27
24
23
22
22
22
23
22
22
24
24
24
24
25
26
27
28
29
30
30
29
29
30
30
29
28
28
28
28
27
28
28
27
26
26
25
25
23
23
24
23
22
21
21
22
22
20
20
21
21
19
17
16
16
16
15
15
16
15
14
11
11
10
9
8
6
5
3
2
1
0
-2
-5
-6
-5
-3
-3
-4
-4
-4
-5
-6
-7
-7
-8
-9
-9
-8
-8
-8
-9
-8
-7
-7
-7
-7
-7
-7
-7
-7
-7
-6
-6
-5
-5
-5
-6
-6
-7
-6
-5
-6
-4
-1
4
8
8
3
-2
-10
-15
-19
-25
-30
-34
-40
-57
-88
-119
-143
-154
-161
-162
-158
-152
-142
-135
-126
-116
-100
-86
-72
-59
-46
-33
-23
-14
-8
-1
3
7
9
11
13
14
15
16
19
20
22
22
23
25
26
26
28
31
31
32
32
34
34
36
37
38
39
39
40
40
43
43
43
44
45
46
45
46
46
47
48
47
47
47
48
47
46
45
44
41
39
37
36
35
31
29
27
24
22
21
20
19
17
15
15
16
16
16
16
18
18
19
20
20
21
21
21
21
22
22
21
21
21
21
19
18
18
18
17
17
17
16
16
16
15
14
14
13
13
13
12
12
12
11
10
9
9
8
9
8
7
6
6
5
4
1
0
0
0
0
0
0
0
-2
-3
-4
-3
-3
-5
-6
-7
-8
-9
-10
-12
-13
-15
-16
-14
-12
-11
-11
-10
-10
-11
-13
-14
-14
-14
-15
-14
-13
-12
-13
-13
-13
-12
-11
-11
-11
-10
-10
-10
-9
-9
-8
-9
-9
-8
-8
-8
-8
-7
-6
-4
-1
2
7
9
6
0
-8
-15
-21
-26
-32
-36
-42
-55
-82
-113
-139
-155
-164
-169
-164
-160
-149
-140
-128
-114
-97
-78
-62
-47
-34
-21
-11
-5
0
6
11
15
17
18
19
20
22
23
25
27
28
29
30
31
33
34
35
38
38
39
39
41
43
43
44
46
48
49
49
50
50
50
49
51
53
54
55
55
56
56
55
54
55
54
54
54
53
52
50
49
46
46
43
41
39
37
35
33
32
31
31
31
31
31
33
33
33
34
35
36
37
37
38
39
39
39
40
40
41
40
40
41
40
40
39
40
40
39
38
38
38
36
36
36
36
35
35
36
35
34
32
32
32
32
31
30
30
28
27
26
25
24
22
21
22
23
23
22
21
20
19
18
18
18
17
15
15
14
14
12
10
9
9
9
9
10
11
12
11
10
9
8
7
7
7
8
7
8
8
8
8
8
10
10
11
11
11
10
10
11
12
12
11
11
11
11
11
12
14
18
22
26
26
20
11
3
-1
-6
-14
-21
-27
-36
-58
-90
-118
-140
-150
-158
-153
-145
-138
-127
-118
-102
-89
-73
-58
-41
-25
-13
-2
5
13
19
24
27
29
30
32
33
36
38
40
40
41
43
43
45
45
47
48
49
50
51
52
52
53
54
55
57
58
59
58
59
59
61
63
63
63
62
63
64
65
65
66
66
66
65
64
64
61
60
58
58
56
54
53
50
47
44
42
41
40
38
36
35
33
33
31
31
32
32
32
32
33
33
34
35
37
38
39
39
39
39
39
39
38
38
38
37
37
36
36
35
35
35
34
34
33
33
33
33
32
32
32
32
32
31
32
31
31
30
30
31
30
30
29
29
28
28
29
29
27
25
23
22
23
22
22
20
18
16
13
11
8
6
4
4
5
4
4
5
5
2
0
-2
-2
-2
-2
-2
-2
-2
-3
-4
-3
-2
-3
-2
-3
-2
-2
-2
-3
-2
-2
-1
-2
-2
-2
-2
-3
-2
-2
-1
0
2
6
10
10
5
-1
-8
-13
-18
-24
-31
-34
-40
-51
-75
-107
-131
-152
-161
-169
-166
-163
-158
-149
-143
-129
-118
-98
-82
-67
-54
-41
-28
-16
-6
0
4
9
13
16
18
20
23
24
25
27
29
30
31
33
34
36
37
38
39
41
42
42
43
44
45
46
47
48
49
51
51
52
52
53
53
53
55
55
56
55
56
56
57
57
56
57
56
56
54
54
53
52
50
47
46
42
40
36
35
34
32
29
27
27
26
25
24
25
25
25
25
25
27
27
28
28
29
30
30
30
30
31
30
30
29
29
28
28
28
28
27
26
25
25
25
24
23
23
22
22
22
21
21
20
21
20
19
19
19
19
18
18
18
18
18
18
18
18
18
16
16
16
15
13
14
15
16
15
12
11
11
12
11
10
8
6
5
4
3
1
0
-1
-2
-1
0
0
1
2
4
3
1
0
0
0
-1
-1
0
0
0
0
0
0
1
1
1
1
3
3
3
4
5
5
5
4
4
5
5
5
6
6
7
8
10
15
20
23
22
14
6
0
-5
-10
-17
-22
-27
-35
-51
-78
-106
-132
-145
-157
-159
-156
-151
-142
-134
-121
-111
-96
-80
-63
-45
-31
-16
-5
3
8
14
20
25
28
30
31
32
34
35
36
38
40
41
43
44
46
47
48
48
49
51
52
53
53
54
55
55
56
57
59
59
60
60
61
61
61
63
63
65
63
65
65
66
66
65
66
65
66
63
63
61
60
59
57
56
54
53
51
50
49
48
47
46
46
44
44
43
43
43
42
41
41
43
42
42
42
42
41
40
40
39
38
37
37
37
37
36
35
34
34
33
32
31
31
31
31
30
30
30
28
26
24
24
23
22
21
21
20
18
16
15
14
13
12
12
12
11
10
9
9
9
8
9
9
10
10
7
7
7
8
7
5
5
3
3
1
0
0
-1
-2
-1
0
1
1
2
2
1
0
-1
0
0
0
-1
-1
-1
-1
-1
0
0
0
0
0
0
0
1
0
1
1
1
1
2
3
3
2
0
1
3
7
10
14
14
9
2
-4
-9
-15
-23
-29
-34
-44
-67
-97
-127
-146
-158
-164
-157
-154
-144
-136
-123
-112
-100
-84
-70
-53
-39
-27
-17
-9
-3
0
5
9
11
13
14
17
19
21
22
22
23
23
26
27
28
28
29
31
33
34
35
36
37
37
38
39
41
41
41
43
44
46
45
46
47
49
49
49
50
50
50
50
50
49
49
48
47
47
44
42
39
37
34
33
31
30
28
26
24
22
22
22
22
23
23
24
24
25
26
27
27
27
28
29
29
29
30
30
29
28
29
29
29
28
26
26
24
24
24
24
24
23
23
22
21
20
19
18
17
17
16
15
14
13
12
12
11
9
9
8
7
6
7
7
7
6
4
4
3
4
4
4
3
0
0
-1
-3
-5
-7
-7
-7
-6
-5
-4
-3
-4
-6
-7
-8
-8
-8
-8
-7
-7
-8
-8
-7
-6
-6
-6
-5
-5
-5
-5
-4
-4
-4
-4
-4
-3
-3
-2
-2
-1
0
4
8
10
7
1
-6
-12
-17
-23
-30
-35
-41
-54
-82
-114
-140
-155
-162
-165
-159
-154
-144
-134
-121
-105
-89
-71
-56
-40
-26
-14
-4
3
8
12
16
19
21
23
25
26
28
30
31
32
34
36
38
38
41
42
42
42
43
45
46
48
49
50
51
52
54
55
56
56
57
58
59
61
61
62
63
63
63
62
62
61
61
61
61
59
57
55
53
52
49
46
43
41
39
36
35
33
31
29
30
29
29
28
27
28
26
26
26
28
28
29
29
30
31
31
32
33
35
35
35
36
37
37
37
39
40
40
39
39
39
39
39
38
39
39
38
37
38
38
38
38
38
38
36
36
36
36
37
36
35
34
33
32
32
34
33
33
31
30
28
28
27
26
25
22
20
19
18
16
13
11
10
10
10
11
12
13
12
10
8
6
5
3
4
5
5
4
3
5
5
5
5
5
6
6
6
7
7
7
7
7
8
8
8
8
9
9
9
10
13
18
22
23
19
12
3
-4
-10
-15
-20
-26
-30
-40
-60
-92
-119
-139
-151
-158
-160
-155
-149
-137
-130
-118
-105
-88
-72
-59
-44
-29
-15
-5
2
7
13
18
23
25
26
28
29
31
32
34
35
37
37
39
40
43
43
43
44
46
47
48
50
51
51
51
52
53
54
55
56
57
57
57
57
58
61
62
62
61
61
61
60
59
60
62
62
60
59
59
58
56
54
50
49
47
45
42
40
39
36
34
31
30
28
27
27
26
26
25
26
26
27
27
28
29
30
30
30
29
29
30
30
30
29
30
29
27
26
25
25
24
24
22
21
21
20
20
19
18
17
16
17
17
18
17
15
14
13
13
13
14
15
15
13
11
11
11
10
9
9
8
8
8
8
7
6
4
4
4
4
2
0
-2
-3
-5
-6
-7
-9
-11
-12
-13
-13
-12
-11
-10
-9
-9
-9
-11
-13
-15
-15
-14
-15
-15
-15
-13
-13
-12
-13
-14
-14
-14
-13
-12
-12
-12
-13
-14
-14
-14
-14
-14
-14
-13
-12
-12
-12
-11
-9
-7
-3
0
0
-3
-10
-17
-23
-27
-32
-38
-43
-47
-58
-86
-118
-147
-162
-172
-176
-173
-170
-162
-158
-147
-136
-122
-108
-96
-82
-69
-54
-42
-32
-23
-16
-10
-6
-2
0
2
4
6
7
8
11
12
13
14
16
18
19
20
21
23
24
24
26
27
29
30
31
32
33
34
35
36
38
38
39
40
42
42
43
43
44
45
44
45
45
47
46
45
45
44
44
42
41
39
38
36
34
33
32
31
29
27
26
26
25
24
24
23
23
22
23
23
22
21
21
22
21
21
21
21
20
20
18
18
18
17
17
17
17
18
17
16
15
15
14
13
13
13
13
12
11
10
10
10
9
9
9
8
7
6
5
6
5
4
3
3
3
2
1
0
0
0
0
1
1
0
-1
-2
-3
-2
0
-1
-2
-3
-2
-3
-4
-5
-6
-8
-9
-8
-7
-6
-5
-4
-3
-4
-6
-7
-7
-7
-7
-7
-6
-5
-5
-5
-4
-3
-3
-3
-3
-3
-2
-1
-1
-1
0
0
0
0
0
0
0
1
2
4
7
11
15
16
11
3
-5
-10
-16
-22
-28
-32
-38
-51
-77
-109
-133
-152
-161
-166
-161
-154
-147
-138
-127
-113
-100
-82
-67
-50
-36
-23
-13
-5
0
5
10
14
16
17
19
21
23
24
26
27
28
30
32
34
36
38
38
40
42
43
43
45
46
47
48
48
50
50
51
52
54
55
55
56
57
58
57
57
58
59
59
58
58
58
56
54
53
53
50
48
46
44
41
38
37
35
34
31
30
28
28
28
28
28
29
29
29
30
30
31
32
32
34
34
34
33
34
35
34
35
35
35
33
32
31
31
31
30
30
30
29
28
28
28
27
25
25
25
24
23
22
22
21
19
19
19
20
18
17
15
13
12
12
13
14
14
12
10
8
8
9
9
9
8
6
5
4
2
0
-1
-1
0
0
1
2
3
2
0
-1
-2
-2
-2
-2
-2
-2
-2
-2
-2
-1
-1
-1
-1
-1
-1
0
0
0
0
0
0
0
0
1
2
3
3
6
11
16
17
11
2
-7
-14
-20
-26
-32
-37
-45
-64
-94
-125
-144
-157
-162
-160
-153
-144
-135
-124
-113
-96
-80
-63
-48
-33
-20
-10
-3
2
7
12
15
17
20
21
23
24
26
27
28
29
30
32
33
34
36
37
38
38
40
41
42
43
44
45
47
48
48
48
49
50
51
53
53
53
53
53
55
56
56
55
56
55
56
54
52
51
50
48
46
45
43
40
38
36
34
31
28
27
26
24
24
23
22
21
20
20
19
19
19
19
20
21
23
24
25
26
26
28
28
30
29
29
29
29
29
28
28
29
29
28
27
27
27
26
25
26
25
25
24
24
24
25
25
24
24
24
24
22
21
20
19
19
20
21
20
18
16
15
14
14
14
12
11
8
7
6
4
2
0
-2
-2
-2
-2
-2
-1
-1
-3
-6
-7
-6
-7
-8
-7
-6
-6
-7
-8
-8
-7
-7
-7
-7
-6
-6
-7
-7
-6
-5
-5
-5
-5
-5
-5
-5
-4
-3
-3
-2
1
6
9
9
5
-1
-8
-12
-16
-21
-26
-32
-37
-50
-75
-107
-131
-146
-155
-155
-153
-147
-144
-135
-127
-116
-102
-88
-75
-62
-48
-36
-24
-14
-6
0
6
10
13
15
18
20
21
23
24
26
27
28
30
32
34
34
36
37
39
40
42
43
45
46
46
47
47
49
49
52
54
54
55
55
58
58
59
59
60
61
61
61
60
61
60
60
58
58
58
55
54
51
50
48
45
42
40
39
36
34
32
30
29
27
26
26
26
25
25
26
27
27
27
28
29
30
30
30
32
31
31
31
32
32
31
31
31
31
29
29
28
29
28
27
27
26
26
25
26
25
26
24
24
24
24
24
22
22
22
22
21
20
21
20
19
16
15
14
14
14
15
16
14
11
10
10
10
9
9
8
7
4
2
2
2
0
-2
-4
-4
-3
-2
-1
0
0
0
-2
-4
-4
-4
-5
-6
-6
-6
-6
-6
-5
-4
-4
-4
-4
-4
-3
-3
-3
-2
-2
-3
-3
-2
-1
-1
0
-1
0
0
0
1
5
10
14
12
5
-3
-11
-17
-22
-29
-33
-38
-45
-61
-89
-116
-138
-150
-161
-161
-157
-150
-141
-133
-121
-110
-92
-76
-61
-47
-34
-21
-12
-6
0
5
10
13
15
16
17
18
21
23
25
27
28
28
30
31
32
33
35
36
37
39
38
40
41
42
42
43
45
45
46
46
48
48
48
49
50
51
50
52
51
52
51
52
52
52
51
49
49
47
46
43
41
40
37
35
33
32
30
28
27
26
25
24
24
25
25
25
26
26
27
27
27
27
27
27
27
26
26
26
25
25
25
25
24
23
22
23
22
21
19
19
18
18
17
17
16
15
14
14
14
12
11
12
12
11
10
9
8
8
6
5
5
4
3
1
0
0
0
0
0
0
0
-2
-3
-3
-3
-3
-4
-5
-6
-7
-8
-9
-11
-13
-14
-14
-12
-11
-11
-9
-8
-9
-11
-14
-14
-14
-14
-14
-13
-12
-12
-13
-12
-11
-11
-12
-11
-10
-9
-10
-9
-9
-8
-7
-8
-8
-8
-8
-8
-7
-5
-4
-3
1
6
8
5
-2
-10
-16
-22
-29
-35
-40
-45
-56
-80
-114
-140
-161
-166
-168
-162
-153
-146
-134
-125
-109
-94
-77
-63
-49
-36
-24
-13
-6
-1
4
9
12
12
14
16
18
19
21
23
24
24
27
29
30
30
31
31
33
35
35
37
38
39
39
40
41
43
45
45
47
47
48
48
50
53
52
52
51
52
51
51
51
51
52
50
49
47
46
45
44
42
38
36
33
32
30
30
28
25
23
21
21
21
21
22
23
24
25
25
24
24
26
29
28
28
29
30
30
30
30
31
31
30
29
29
28
28
28
29
28
28
27
26
27
26
26
25
25
26
25
26
26
27
26
26
26
26
26
26
26
25
24
23
24
24
24
23
21
19
18
18
18
17
15
13
12
10
9
7
4
3
2
3
3
4
6
6
5
3
2
1
0
0
0
1
1
1
1
1
2
2
2
2
2
3
2
2
3
2
2
3
3
2
2
3
3
4
5
8
13
17
16
11
3
-3
-9
-15
-21
-28
-34
-39
-55
-82
-112
-134
-146
-156
-154
-152
-144
-140
-131
-123
-111
-94
-80
-64
-50
-34
-20
-9
-1
4
10
16
20
23
24
26
28
29
31
32
35
36
38
39
41
42
43
44
46
47
48
49
51
52
52
52
54
55
56
56
57
59
60
61
61
63
63
64
63
64
65
66
67
65
65
65
64
63
62
63
61
60
57
56
53
49
47
44
43
39
37
34
33
32
30
28
27
28
27
28
28
29
30
30
31
32
33
33
33
34
35
35
34
34
34
34
33
33
34
34
33
31
31
32
32
30
29
29
29
28
27
28
28
27
27
26
26
26
26
25
25
25
25
25
25
26
24
23
21
20
19
19
20
19
20
18
16
14
14
14
14
13
11
9
7
5
4
3
1
-2
-4
-2
-1
0
0
0
0
-1
-3
-4
-4
-5
-5
-5
-5
-3
-3
-4
-5
-4
-3
-4
-4
-4
-3
-3
-3
-3
-2
-2
-2
-3
-3
-2
-2
-2
-2
-1
0
0
3
8
12
13
7
-1
-10
-17
-22
-29
-35
-39
-43
-51
-73
-102
-130
-148
-160
-170
-166
-164
-156
-151
-141
-132
-121
-107
-94
-77
-64
-48
-34
-22
-12
-5
0
5
10
15
16
17
20
22
23
23
26
28
30
30
31
33
34
35
36
38
40
41
41
42
43
44
46
46
47
48
49
49
50
52
52
53
53
54
55
56
56
56
58
58
57
56
56
57
56
55
53
53
50
48
47
46
46
43
42
40
39
37
36
36
36
36
35
35
34
34
33
33
34
34
33
31
31
30
31
30
29
29
29
29
28
29
28
28
27
27
27
26
24
23
23
23
22
20
20
20
19
17
16
16
14
13
12
12
12
11
9
8
8
7
6
4
3
3
2
3
4
4
3
2
2
2
1
1
1
0
0
-1
-2
-2
-2
-4
-6
-7
-6
-6
-5
-3
-3
-3
-3
-4
-5
-5
-6
-6
-4
-2
-2
-3
-2
-2
-1
0
0
0
1
1
0
0
1
1
2
2
3
4
4
3
4
5
6
8
12
17
20
19
12
4
-2
-8
-14
-21
-26
-30
-38
-59
-92
-121
-144
-152
-157
-153
-148
-141
-131
-122
-108
-94
-76
-60
-46
-33
-20
-9
0
6
12
17
22
24
25
27
29
31
31
33
34
35
36
38
40
41
42
43
46
46
47
47
48
50
51
52
53
56
56
57
57
58
59
59
60
61
61
62
62
62
62
63
63
64
63
62
60
59
59
56
54
52
51
48
45
43
41
39
37
36
35
35
34
33
34
34
34
35
37
38
38
39
40
41
40
40
40
42
42
41
41
41
42
42
42
42
42
41
40
39
38
38
37
37
36
35
33
32
31
30
30
28
28
27
26
25
24
23
22
21
21
20
19
20
21
20
19
17
17
17
17
17
16
16
14
12
11
10
8
6
5
5
6
7
9
10
9
8
6
6
5
4
5
6
5
4
5
6
6
6
7
8
9
9
8
8
9
9
10
12
12
12
11
12
12
13
17
22
25
24
17
8
0
-5
-11
-17
-22
-28
-39
-63
-95
-121
-139
-147
-151
-146
-141
-133
-123
-111
-97
-81
-63
-48
-31
-16
-3
5
12
19
25
28
30
32
34
36
37
40
41
43
43
44
47
47
49
50
52
52
54
55
57
58
58
60
60
62
61
63
64
65
65
66
68
68
69
68
70
70
69
69
69
70
68
68
66
65
63
60
58
56
53
50
48
45
42
40
38
37
35
33
32
31
29
28
29
29
29
28
28
28
28
28
28
30
30
30
30
31
32
33
34
34
36
36
35
35
36
37
35
35
35
36
34
34
34
35
33
32
32
32
32
31
32
31
31
31
31
32
31
30
28
28
27
26
26
27
28
26
24
22
20
20
20
19
17
15
13
11
10
7
5
3
3
3
4
4
6
5
3
1
-1
-1
-1
-2
-2
-1
-2
-3
-4
-3
-2
-2
-3
-2
-2
-2
-4
-3
-2
-3
-4
-4
-3
-3
-3
-2
-1
-1
0
2
6
10
10
4
-4
-14
-21
-29
-35
-41
-45
-50
-67
-97
-130
-152
-168
-173
-173
-168
-159
-152
-141
-131
-115
-98
-81
-66
-52
-37
-23
-13
-6
-2
3
8
11
12
14
17
20
20
21
23
24
25
27
28
30
31
32
34
34
36
36
38
39
41
42
41
43
45
46
46
47
48
50
51
50
51
50
52
51
52
54
55
55
54
54
53
53
51
51
51
50
48
45
43
41
39
36
35
33
31
28
25
25
24
22
21
20
20
21
21
20
21
22
23
24
24
26
26
26
27
28
29
28
27
27
29
29
28
27
26
26
25
25
25
26
25
24
23
23
23
22
21
20
21
20
20
18
18
19
18
18
17
18
17
17
16
17
18
17
16
15
15
15
15
15
14
13
11
10
9
9
9
7
5
4
2
0
0
-2
-4
-7
-9
-9
-7
-5
-5
-5
-4
-4
-6
-8
-8
-8
-8
-8
-7
-7
-7
-8
-9
-9
-8
-8
-8
-8
-7
-7
-6
-7
-7
-7
-7
-7
-8
-8
-6
-5
-5
-6
-7
-6
-4
0
5
7
6
0
-9
-16
-20
-25
-32
-37
-38
-45
-62
-94
-124
-148
-161
-170
-168
-162
-158
-152
-146
-135
-125
-113
-99
-85
-70
-57
-44
-33
-23
-15
-9
-4
2
7
11
12
13
14
16
18
19
20
22
25
26
26
27
28
31
32
33
34
36
36
37
38
39
40
40
42
43
45
46
45
46
48
49
49
50
51
53
53
53
54
54
54
53
55
55
55
52
50
49
48
47
45
44
43
42
40
38
38
36
34
34
33
33
33
32
31
31
31
30
29
28
28
28
27
26
25
25
25
24
24
25
23
22
21
21
21
20
19
19
19
18
17
15
14
14
13
13
13
14
13
12
11
11
10
8
7
7
7
6
4
4
3
2
1
0
0
-1
-3
-5
-5
-4
-4
-5
-6
-7
-8
-10
-10
-9
-9
-11
-12
-13
-13
-14
-15
-17
-18
-18
-18
-17
-16
-14
-13
-14
-15
-16
-17
-18
-19
-18
-17
-17
-17
-17
-16
-16
-16
-15
-15
-15
-15
-14
-14
-13
-13
-14
-13
-12
-12
-12
-13
-12
-10
-10
-10
-8
-4
0
2
2
-2
-11
-19
-26
-29
-36
-41
-44
-49
-62
-90
-121
-146
-158
-168
-170
-166
-161
-153
-147
-134
-122
-106
-91
-76
-61
-47
-34
-24
-16
-10
-5
-1
3
6
8
9
10
12
14
16
16
17
19
20
21
23
25
27
28
28
30
30
32
32
33
35
35
36
35
37
38
39
40
41
43
43
44
43
45
44
45
46
46
45
43
43
42
42
39
37
36
33
31
28
27
25
23
21
20
19
18
18
17
18
18
18
18
19
19
19
19
20
20
19
20
21
22
22
21
20
19
18
17
17
19
17
15
14
14
15
14
13
13
13
11
9
9
9
8
7
9
7
5
3
3
2
1
1
0
0
-1
-2
-3
-3
-4
-5
-5
-4
-3
-4
-6
-7
-7
-6
-6
-7
-8
-10
-10
-10
-10
-13
-16
-17
-17
-16
-15
-13
-12
-12
-13
-14
-15
-16
-16
-16
-15
-15
-15
-14
-13
-12
-12
-12
-11
-10
-10
-9
-9
-7
-8
-8
-8
-8
-7
-6
-6
-5
-4
-4
-2
3
7
8
5
0
-9
-18
-25
-32
-36
-41
-45
-59
-88
-123
-150
-162
-173
-170
-166
-157
-147
-138
-124
-110
-90
-75
-59
-45
-31
-19
-10
-4
1
6
9
11
13
15
16
18
19
20
21
23
25
27
28
29
30
30
31
31
33
35
37
39
39
40
40
40
41
43
44
43
45
45
46
46
48
50
50
50
49
49
48
48
48
47
46
44
42
40
39
36
34
32
29
27
24
23
22
21
19
16
15
15
14
14
14
15
15
16
17
18
19
20
20
21
22
23
23
23
24
25
25
24
25
25
24
24
24
24
22
22
22
22
22
21
21
21
21
19
19
19
19
18
17
18
18
18
17
17
17
15
14
14
15
15
15
15
14
13
10
9
9
9
7
5
4
3
2
0
-2
-4
-5
-5
-4
-2
-2
-2
-2
-3
-4
-6
-7
-8
-7
-6
-7
-7
-7
-7
-7
-6
-5
-5
-5
-5
-5
-3
-3
-4
-3
-3
-3
-3
-2
-2
-2
-2
-2
-1
1
4
8
11
9
2
-5
-13
-17
-22
-29
-33
-36
-45
-71
-103
-133
-151
-162
-167
-159
-156
-147
-141
-131
-120
-107
-91
-78
-61
-46
-32
-22
-12
-4
1
6
11
15
18
18
19
21
24
25
26
28
31
32
32
33
35
36
36
38
40
41
42
42
44
45
45
46
47
50
50
51
51
51
54
54
55
55
57
57
57
57
56
58
57
58
56
57
56
54
53
51
50
47
45
43
41
39
36
34
31
29
27
25
25
24
24
23
23
23
24
23
23
24
25
26
27
28
29
29
29
30
31
31
30
30
30
31
30
29
29
29
29
28
27
27
26
26
26
26
26
25
25
25
24
24
23
23
24
24
23
22
22
22
22
22
23
22
22
19
18
17
16
16
16
17
17
15
12
11
11
12
11
9
8
7
5
3
3
2
0
-1
0
0
2
2
3
3
1
0
-1
-1
-1
-1
-2
-1
-1
-1
-1
-1
0
0
0
0
1
1
1
1
2
3
3
2
2
2
3
3
2
3
4
6
8
11
16
17
12
4
-3
-8
-13
-20
-25
-28
-31
-41
-64
-98
-124
-144
-154
-158
-156
-148
-143
-132
-125
-112
-101
-87
-71
-56
-41
-29
-17
-6
1
7
11
16
20
23
24
26
28
30
31
33
34
36
36
38
40
42
43
44
45
46
48
49
50
51
52
53
53
55
56
58
58
59
60
61
62
62
63
63
64
64
65
66
65
66
64
65
64
63
61
61
61
58
57
54
53
51
49
49
48
47
45
44
44
44
44
43
44
44
44
43
44
44
45
44
43
44
45
45
43
43
42
41
40
40
41
40
39
38
39
38
37
36
35
36
36
35
34
34
34
33
33
32
32
30
30
29
28
27
26
26
25
25
23
22
21
20
19
18
18
18
19
18
18
17
15
15
16
16
15
14
12
12
11
9
7
5
5
5
6
7
7
8
7
7
6
5
4
4
4
4
4
5
5
5
5
5
5
6
6
6
6
8
9
8
7
7
7
7
7
8
9
9
8
8
9
11
14
19
21
21
15
7
0
-4
-9
-16
-20
-22
-30
-51
-87
-117
-137
-149
-149
-147
-138
-133
-124
-115
-105
-91
-78
-61
-47
-33
-22
-12
-3
4
9
14
18
22
24
25
26
28
30
30
31
32
34
35
36
37
39
40
40
43
44
44
44
44
46
48
49
50
52
53
53
54
55
56
55
56
57
58
58
58
58
59
59
58
58
57
56
54
52
52
49
48
45
44
41
38
36
34
33
30
29
28
28
27
27
28
28
29
28
28
29
30
30
30
31
31
31
30
31
31
30
30
30
30
29
29
29
29
27
26
25
25
25
24
25
25
25
23
22
21
21
21
20
20
20
20
19
19
19
19
17
16
16
15
14
15
15
16
15
13
11
10
10
9
9
7
5
3
1
1
0
-1
-4
-5
-4
-3
-3
-2
-1
-2
-3
-6
-6
-7
-8
-8
-7
-5
-6
-7
-7
-6
-6
-6
-5
-5
-5
-5
-5
-4
-4
-3
-3
-3
-3
-4
-4
-4
-2
-1
0
2
7
11
9
3
-4
-10
-16
-20
-26
-31
-34
-41
-57
-87
-115
-136
-149
-157
-158
-154
-150
-140
-133
-122
-111
-96
-80
-66
-50
-36
-23
-13
-6
0
6
10
13
14
16
17
19
21
23
25
27
28
29
30
31
33
34
36
38
39
39
40
41
41
42
44
45
46
46
47
48
49
49
50
52
53
53
52
54
54
54
53
54
54
54
53
51
51
49
47
45
44
43
39
36
33
32
30
28
26
24
24
22
20
19
18
18
18
18
20
22
22
22
22
24
24
24
25
26
27
26
27
27
27
28
27
27
26
27
26
25
25
25
24
23
23
23
23
23
22
22
22
22
21
22
22
23
22
21
21
22
22
22
22
22
22
20
19
19
18
18
17
18
19
17
15
14
14
13
12
11
10
8
6
6
5
4
1
-1
-2
-2
-1
-1
-1
0
0
0
-1
-2
-3
-3
-5
-5
-4
-3
-2
-3
-3
-3
-3
-4
-4
-3
-2
-2
-2
-2
-1
-2
-2
-2
-1
0
-1
-1
0
0
0
1
3
7
11
12
10
3
-5
-12
-18
-24
-30
-34
-37
-44
-64
-95
-127
-143
-156
-161
-161
-156
-148
-141
-132
-125
-112
-98
-81
-67
-53
-39
-27
-17
-10
-4
0
5
7
10
12
15
17
19
20
21
23
24
25
26
28
29
31
32
33
34
35
36
38
40
40
40
40
42
42
42
44
45
46
46
46
46
47
48
48
49
49
50
49
48
49
49
50
48
46
45
44
42
40
40
38
37
35
33
32
32
30
28
27
26
27
26
26
25
26
25
24
25
25
25
24
24
25
25
25
24
24
23
23
23
22
22
22
21
20
20
19
18
18
19
19
17
16
16
16
15
15
14
14
14
14
13
12
10
8
8
8
9
9
8
7
6
5
3
2
1
2
3
2
1
0
0
-2
-3
-2
-1
0
-2
-3
-4
-5
-6
-8
-9
-9
-10
-10
-9
-7
-6
-6
-6
-6
-7
-9
-10
-10
-9
-8
-7
-7
-7
-8
-8
-8
-7
-7
-8
-7
-6
-6
-7
-7
-7
-6
-7
-7
-6
-5
-5
-5
-4
-3
-1
1
5
9
8
3
-3
-9
-14
-18
-25
-30
-33
-40
-61
-91
-118
-136
-148
-154
-150
-147
-141
-137
-128
-117
-105
-92
-81
-66
-52
-39
-27
-16
-9
-4
0
5
9
11
12
13
14
17
19
20
21
24
25
26
27
28
30
31
31
33
35
36
36
37
39
39
40
41
43
44
46
46
48
49
49
50
51
52
52
52
52
53
53
51
51
51
50
48
47
46
44
42
40
38
37
35
32
30
29
28
27
26
27
26
26
26
26
27
27
28
28
29
29
29
30
29
30
29
29
30
29
29
28
28
27
27
27
28
27
26
26
26
25
24
24
23
23
22
21
20
19
18
17
17
16
15
13
13
12
10
9
10
9
8
7
7
7
8
8
9
8
6
4
5
6
6
4
3
3
3
1
0
-2
-3
-5
-4
-3
0
0
0
0
-2
-3
-4
-4
-3
-3
-2
-2
-1
-2
-2
-2
-1
0
0
0
0
0
0
0
2
3
3
3
3
4
4
4
6
8
11
15
18
16
10
1
-5
-10
-16
-22
-26
-30
-44
-70
-104
-126
-140
-149
-149
-145
-138
-131
-122
-110
-95
-78
-62
-46
-31
-18
-7
1
7
12
17
23
24
25
26
28
30
31
32
34
35
36
38
38
40
41
42
43
44
46
47
49
49
50
50
51
52
52
53
54
56
57
57
57
57
57
57
57
58
59
59
58
58
57
56
55
54
51
48
45
43
40
38
36
34
32
29
28
28
27
27
26
25
24
24
24
24
25
25
25
25
27
28
29
30
31
31
31
32
32
33
32
32
32
32
32
31
31
31
30
29
29
29
28
28
28
28
28
28
28
28
27
26
26
27
27
25
24
22
20
20
21
22
22
21
19
18
17
17
16
16
15
13
11
10
9
6
4
2
1
2
2
3
5
5
4
2
0
0
-2
-2
-1
-1
-1
-1
-1
0
0
0
0
1
1
0
1
2
2
2
2
3
3
3
2
2
3
3
3
5
10
14
16
14
9
0
-7
-12
-17
-23
-28
-32
-40
-60
-92
-122
-140
-149
-152
-148
-143
-135
-129
-119
-108
-93
-77
-63
-50
-35
-20
-9
-1
4
11
16
20
21
23
25
26
27
29
31
31
33
35
37
37
39
40
41
43
43
44
44
46
46
48
50
50
51
49
51
52
53
54
55
56
55
56
56
58
58
59
59
59
59
58
58
56
57
56
54
51
50
48
46
44
42
40
38
34
31
30
29
27
26
25
24
23
22
22
22
23
22
22
23
25
26
25
27
28
29
29
29
30
31
32
30
30
30
31
30
30
30
30
30
28
28
28
28
26
26
26
26
27
26
26
26
26
26
25
24
25
25
25
25
26
25
24
23
23
24
25
25
26
25
25
23
21
21
21
21
19
18
17
16
14
12
11
8
6
4
4
5
6
7
7
8
7
5
3
1
1
2
2
2
2
3
3
2
2
3
3
3
2
3
4
4
4
3
3
3
3
3
3
4
4
4
3
4
5
8
11
17
19
15
6
-1
-7
-12
-18
-24
-28
-30
-39
-62
-93
-119
-135
-147
-151
-151
-145
-138
-133
-125
-117
-104
-90
-74
-60
-46
-33
-22
-11
-3
3
8
12
17
21
22
23
24
26
28
29
30
32
35
35
36
37
39
41
42
43
44
46
46
47
47
48
49
49
51
51
53
54
54
54
55
56
56
57
57
60
60
61
60
61
62
61
61
61
61
60
59
57
57
57
56
55
53
52
50
48
45
44
44
42
42
41
41
40
40
40
40
41
40
40
39
39
38
38
37
36
37
37
36
36
36
36
35
34
34
35
35
34
33
33
33
31
31
31
31
30
29
29
29
28
27
27
26
26
26
24
24
23
23
22
21
20
20
19
19
18
18
17
14
13
12
12
12
12
13
13
11
9
9
10
10
9
7
7
7
6
4
2
1
0
0
1
2
4
4
4
4
3
2
1
1
1
2
1
2
2
3
3
3
3
4
4
3
3
3
4
4
4
5
6
6
6
6
7
7
7
8
10
13
16
18
19
16
8
0
-7
-12
-19
-26
-31
-34
-41
-62
-93
-122
-140
-152
-156
-155
-150
-142
-135
-125
-114
-100
-85
-70
-54
-39
-27
-17
-8
0
5
10
14
17
20
21
22
24
26
27
28
29
30
32
33
35
35
37
38
38
39
40
42
42
43
44
46
46
46
47
47
49
49
51
51
52
52
52
54
55
56
55
56
56
56
56
56
56
53
52
51
50
48
46
46
44
43
41
40
39
39
38
37
37
37
37
36
36
35
36
38
37
37
36
36
35
35
36
35
35
34
33
32
31
31
32
32
31
31
29
28
27
27
28
26
25
24
24
23
22
21
20
19
16
15
15
16
14
14
13
13
12
10
9
6
5
5
6
7
7
6
5
4
3
3
3
3
2
0
0
0
-2
-4
-7
-7
-6
-6
-4
-3
-2
-3
-5
-6
-6
-6
-6
-5
-5
-5
-6
-6
-5
-4
-4
-3
-2
-2
-2
-2
-2
-1
-1
-2
-2
-1
-1
0
0
0
1
2
5
10
13
13
9
2
-4
-10
-16
-22
-29
-33
-41
-61
-95
-125
-143
-154
-153
-150
-141
-133
-122
-112
-101
-87
-72
-57
-44
-30
-17
-8
-2
3
8
13
15
16
18
20
22
23
25
26
27
28
30
32
33
34
35
37
37
38
39
40
42
42
44
44
46
46
48
50
51
53
52
53
53
55
55
56
57
57
57
56
57
55
55
55
54
53
50
49
46
45
41
39
36
34
31
28
27
25
24
23
23
23
22
21
22
22
21
22
22
24
24
25
26
27
28
28
29
29
29
29
29
30
29
28
28
29
29
28
28
28
28
27
27
27
26
26
24
25
24
23
23
23
24
23
23
22
22
20
19
17
16
16
15
15
16
17
14
12
11
11
11
9
9
8
7
5
4
4
2
0
-2
-2
-1
0
0
1
1
0
-2
-4
-5
-5
-5
-4
-4
-4
-5
-5
-4
-3
-3
-3
-3
-2
-1
-2
-2
-1
-1
-1
-1
0
0
1
0
0
2
4
7
12
16
14
7
-2
-10
-15
-21
-26
-31
-34
-42
-63
-91
-121
-138
-150
-156
-154
-151
-143
-139
-127
-118
-104
-88
-72
-55
-41
-28
-17
-7
0
6
11
16
19
21
22
24
26
27
28
30
31
33
34
35
36
37
38
39
41
44
43
44
45
47
47
47
49
50
50
50
51
53
53
53
53
55
56
58
57
58
58
58
58
57
57
56
55
54
53
52
49
47
45
43
39
37
35
33
30
28
26
25
25
23
22
22
22
21
21
22
24
26
25
25
26
26
27
27
29
30
30
30
30
30
29
29
28
29
29
28
27
26
26
26
26
25
25
25
24
23
23
24
23
22
22
23
23
21
21
20
21
20
19
19
19
18
16
15
13
13
13
13
13
13
12
10
8
8
8
8
7
6
5
4
2
1
-1
-3
-5
-5
-3
-2
-1
-1
0
0
-1
-2
-3
-3
-3
-4
-4
-4
-3
-3
-3
-2
-2
-2
-3
-3
-2
-2
-3
-2
-2
-2
-1
-2
-1
-1
0
0
0
0
3
5
9
13
15
11
2
-6
-14
-19
-26
-34
-38
-43
-51
-75
-106
-132
-151
-158
-163
-158
-153
-146
-137
-128
-113
-101
-84
-71
-55
-42
-30
-18
-9
-3
0
4
8
12
15
16
17
19
20
22
22
24
25
26
27
28
31
32
32
33
34
35
35
36
37
39
40
40
40
40
42
43
44
45
46
45
45
46
48
50
49
50
51
51
50
49
49
48
48
46
46
45
44
42
39
38
36
35
33
32
31
30
29
27
26
26
26
25
27
28
29
28
28
28
28
28
28
28
28
28
26
25
25
26
25
25
24
24
24
23
23
23
22
21
21
21
20
19
19
20
19
18
17
17
17
16
14
13
13
12
11
11
12
11
11
9
8
6
4
3
3
5
6
5
3
2
1
1
2
2
2
0
-1
-2
-3
-4
-7
-8
-8
-8
-8
-8
-7
-6
-6
-7
-7
-7
-8
-7
-7
-7
-8
-10
-9
-8
-7
-7
-6
-6
-7
-7
-6
-6
-5
-5
-5
-5
-4
-4
-3
-3
-2
-1
-2
-1
0
4
8
10
9
2
-5
-13
-18
-24
-30
-35
-39
-49
-73
-108
-132
-149
-155
-155
-152
-144
-139
-129
-122
-109
-96
-82
-68
-55
-42
-30
-20
-11
-4
1
6
10
13
14
16
17
19
20
22
24
25
26
27
29
30
31
32
34
35
36
38
40
41
40
41
43
44
45
45
47
49
49
50
50
52
53
54
55
56
56
56
56
56
57
55
55
54
54
52
50
50
48
46
43
42
40
38
36
34
33
31
30
29
29
29
30
30
31
32
32
33
33
35
34
34
34
34
34
33
34
33
33
32
31
31
31
30
29
30
30
29
28
28
27
26
26
27
27
25
24
24
24
25
24
24
24
24
22
22
21
21
20
19
17
16
15
15
15
16
15
14
12
11
10
10
10
8
7
5
3
3
2
0
-2
-3
-3
-2
-1
0
0
0
-1
-3
-4
-5
-5
-4
-3
-2
-3
-4
-3
-3
-3
-4
-3
-2
-2
-2
-2
-2
-3
-4
-4
-3
-3
-3
-3
-3
-2
-2
-2
0
6
10
10
5
-3
-12
-19
-25
-31
-36
-40
-45
-59
-88
-118
-142
-153
-159
-161
-156
-151
-141
-135
-124
-111
-93
-77
-63
-49
-36
-23
-14
-7
-1
4
8
11
12
14
15
16
18
20
22
24
25
26
27
28
29
31
32
34
35
36
36
38
38
38
38
40
41
41
42
43
45
44
45
46
47
47
47
48
49
50
49
49
49
49
49
47
47
45
42
40
38
37
34
31
29
26
24
21
19
18
17
16
16
16
15
14
14
16
16
16
16
17
17
18
19
19
20
20
21
20
21
20
19
18
18
18
18
16
15
15
15
14
13
13
13
12
11
11
11
10
9
9
10
10
9
9
8
8
7
7
7
7
7
6
4
3
3
2
2
3
4
3
1
0
-1
-1
-1
-1
-3
-4
-6
-8
-10
-11
-13
-16
-17
-18
-17
-16
-16
-14
-13
-13
-16
-17
-19
-19
-19
-20
-20
-18
-17
-18
-19
-18
-18
-19
-19
-19
-18
-18
-18
-18
-17
-16
-17
-17
-17
-16
-16
-17
-16
-16
-15
-13
-11
-6
-3
-2
-7
-15
-24
-33
-39
-46
-52
-57
-60
-71
-94
-124
-149
-164
-175
-178
-176
-168
-161
-152
-142
-132
-118
-104
-88
-74
-60
-46
-33
-24
-17
-11
-6
-1
1
2
4
6
8
8
9
11
13
15
17
17
20
20
21
21
24
25
26
26
27
29
30
32
32
34
34
34
34
36
37
37
38
39
40
40
40
41
42
43
43
43
42
42
41
39
38
37
37
36
34
32
31
28
26
24
23
22
20
19
18
18
19
18
18
18
18
18
18
20
19
19
19
21
21
22
22
20
19
19
19
18
17
17
18
18
17
17
16
16
15
16
16
16
15
14
14
13
13
12
12
12
11
11
11
11
11
11
10
10
10
9
7
6
6
5
5
4
3
3
3
3
3
2
2
1
0
1
2
1
1
0
-1
-2
-3
-4
-5
-6
-8
-8
-7
-5
-4
-3
-2
-2
-3
-4
-6
-6
-6
-5
-5
-3
-2
-2
-3
-3
-2
-2
-1
-1
0
0
0
0
0
0
0
0
0
1
2
3
3
3
5
7
10
14
16
13
7
-1
-6
-11
-18
-25
-29
-34
-47
-75
-106
-128
-142
-149
-149
-143
-140
-134
-128
-119
-106
-92
-77
-62
-47
-34
-22
-12
-2
4
9
13
18
21
23
24
26
29
30
31
32
35
36
37
38
40
42
42
44
45
47
47
47
48
50
52
51
53
54
56
57
57
58
58
60
59
61
62
63
63
63
64
64
64
63
64
63
62
60
58
58
56
54
52
50
49
46
44
43
42
40
39
38
39
38
38
38
38
39
38
38
39
39
40
39
39
38
39
38
38
38
37
37
35
36
35
36
35
36
36
34
34
33
33
31
31
31
30
30
28
28
28
28
26
25
24
23
21
20
20
19
18
18
17
16
15
13
12
13
15
15
16
15
13
11
11
12
12
11
10
9
8
6
5
3
1
0
1
3
5
5
6
5
3
1
0
2
2
2
2
2
2
1
2
4
4
3
4
4
4
5
5
5
5
6
6
6
7
7
7
7
9
11
14
17
18
12
3
-5
-11
-18
-25
-30
-32
-40
-62
-95
-122
-140
-148
-150
-146
-138
-131
-121
-111
-97
-84
-69
-53
-38
-24
-14
-5
2
8
13
17
19
21
22
24
26
27
28
29
32
33
35
36
38
39
39
41
41
43
43
44
45
47
48
48
49
50
52
51
53
54
56
55
56
57
57
59
59
61
60
59
59
58
58
56
56
55
54
49
47
45
42
40
37
36
34
31
29
28
27
26
26
25
25
24
24
25
26
27
27
28
29
30
29
30
32
32
33
33
33
33
33
32
32
32
31
31
31
31
30
30
30
29
29
28
28
28
27
27
26
26
25
25
25
26
24
24
23
22
21
19
19
19
19
19
19
18
15
13
12
13
12
10
7
6
5
3
2
1
0
-1
-1
0
0
0
0
0
-1
-3
-4
-4
-5
-6
-5
-5
-4
-5
-5
-5
-5
-4
-5
-5
-4
-3
-2
-3
-3
-3
-3
-3
-3
-2
-2
-2
-2
0
1
4
9
12
10
3
-4
-11
-17
-24
-32
-36
-43
-58
-87
-117
-142
-157
-161
-160
-151
-147
-137
-128
-115
-101
-86
-69
-55
-39
-27
-15
-5
1
6
11
15
19
20
22
23
25
27
28
30
32
33
33
34
36
38
40
41
42
44
44
44
45
48
49
51
51
53
54
54
55
55
58
57
59
58
60
60
62
63
62
62
60
61
60
61
60
59
59
57
56
52
51
49
47
44
41
38
36
35
32
32
30
29
27
26
26
26
27
27
28
29
29
29
30
31
32
32
33
35
35
34
34
33
35
34
34
35
35
34
33
33
33
34
33
33
32
32
33
31
30
29
30
30
30
31
30
30
28
29
28
29
29
29
29
28
28
27
28
29
30
29
28
27
25
25
24
25
24
23
21
19
18
16
14
11
8
7
7
7
7
7
8
9
7
6
5
4
3
2
3
4
4
3
3
3
3
3
3
3
4
3
3
3
3
3
3
3
4
4
4
3
3
4
5
5
6
10
15
17
17
12
5
-3
-9
-14
-20
-25
-30
-33
-42
-63
-93
-122
-137
-151
-156
-157
-153
-146
-142
-132
-124
-109
-95
-79
-63
-50
-34
-21
-10
-2
4
10
15
20
22
24
26
28
29
31
33
34
35
37
38
40
40
42
43
45
47
47
48
49
50
50
51
52
53
54
54
55
56
57
57
58
60
61
62
62
63
63
63
64
63
64
63
64
62
61
61
59
57
54
54
53
52
49
47
45
44
42
40
39
38
39
37
37
36
36
35
35
36
35
35
35
34
34
34
33
33
33
33
33
32
32
31
31
31
30
30
30
30
30
29
29
28
28
27
26
26
25
25
23
23
23
23
22
21
21
22
22
21
21
21
20
19
18
18
18
18
17
17
16
15
13
11
11
11
11
11
12
11
10
8
8
9
10
9
7
7
7
5
4
3
2
1
0
0
0
2
3
4
5
6
4
2
0
0
0
0
1
1
2
1
1
1
1
2
1
2
2
3
3
3
4
4
5
4
4
4
5
5
5
6
7
9
12
17
19
16
8
-1
-8
-14
-21
-27
-32
-35
-45
-66
-98
-124
-138
-150
-153
-154
-145
-140
-131
-121
-110
-95
-81
-64
-50
-35
-24
-12
-3
2
7
12
16
20
22
24
25
27
28
29
31
32
33
34
35
36
37
39
39
41
43
44
44
44
46
46
47
47
48
49
49
51
51
55
55
55
54
56
58
57
58
57
58
57
58
57
58
57
56
55
54
54
52
51
51
50
48
45
45
43
43
42
42
41
40
39
37
38
37
36
36
36
36
35
34
34
34
33
33
32
32
31
30
30
29
29
28
28
28
28
27
25
25
24
24
23
22
22
21
21
20
20
20
19
17
17
16
14
13
13
13
11
10
10
9
8
7
5
4
4
5
5
6
4
3
3
3
4
3
3
2
1
0
-2
-3
-4
-5
-5
-3
-1
-1
-1
-2
-3
-4
-4
-3
-3
-3
-4
-4
-4
-3
-3
-2
-2
-1
-1
0
0
-1
-1
-2
0
0
0
0
0
1
1
2
3
4
7
13
15
12
3
-4
-10
-17
-24
-30
-34
-40
-61
-91
-122
-140
-151
-155
-148
-144
-136
-130
-117
-106
-93
-77
-64
-49
-37
-23
-12
-3
3
7
12
15
18
19
21
23
25
25
26
28
30
31
32
33
35
36
37
38
39
41
41
43
44
45
46
47
49
49
50
51
53
54
54
55
56
57
56
57
58
59
58
57
57
56
55
53
53
52
49
47
45
43
39
37
34
33
31
28
27
25
24
23
23
24
23
23
23
25
25
25
26
27
28
29
29
30
30
30
29
30
31
31
30
30
30
29
28
28
27
26
25
26
26
25
25
25
25
24
23
22
22
21
20
20
20
19
19
19
19
18
16
15
15
14
14
14
13
12
9
8
8
7
7
5
4
3
1
0
0
-1
-3
-6
-6
-6
-5
-4
-4
-3
-4
-7
-8
-9
-10
-10
-9
-8
-8
-9
-9
-9
-9
-9
-10
-9
-9
-8
-8
-8
-7
-7
-7
-7
-7
-6
-6
-7
-6
-5
-3
0
4
6
3
-2
-10
-17
-23
-29
-36
-40
-44
-53
-76
-110
-137
-157
-166
-172
-168
-162
-155
-145
-136
-120
-107
-89
-73
-56
-42
-30
-19
-11
-4
1
5
9
11
12
14
15
17
18
19
21
23
24
24
25
27
28
29
31
33
34
34
34
36
37
38
39
40
41
41
41
42
43
44
45
46
47
47
47
48
48
48
48
47
47
46
45
44
43
40
39
36
35
32
29
27
23
22
19
17
16
15
14
11
11
12
12
12
12
13
13
13
14
15
16
17
17
18
19
19
19
20
20
20
20
20
20
19
18
17
17
17
16
16
15
15
15
15
15
15
14
13
13
14
14
13
12
12
13
13
13
12
11
10
9
7
8
8
8
7
6
6
4
2
1
1
0
-1
-2
-2
-3
-4
-6
-8
-10
-12
-12
-11
-10
-8
-8
-8
-9
-10
-11
-13
-13
-13
-12
-12
-12
-11
-12
-12
-12
-11
-10
-10
-10
-10
-9
-9
-9
-9
-8
-7
-8
-8
-7
-6
-6
-6
-6
-4
-2
1
5
9
8
2
-6
-14
-20
-27
-35
-41
-43
-49
-69
-102
-129
-147
-156
-163
-162
-156
-149
-139
-132
-118
-106
-91
-76
-62
-48
-36
-24
-14
-5
0
4
8
12
13
14
15
18
20
23
25
26
28
29
29
30
31
33
35
35
35
37
38
39
40
42
44
44
45
45
46
47
48
48
50
50
50
50
51
53
54
54
55
55
54
54
54
54
54
53
51
50
48
47
44
42
40
38
36
35
34
32
32
29
28
28
29
29
29
31
31
31
30
30
30
31
32
33
34
33
32
30
30
30
30
29
29
28
27
26
26
27
27
25
24
24
24
24
24
23
23
22
21
21
21
20
19
19
18
18
17
16
16
16
15
13
12
12
12
11
12
14
13
10
8
7
7
7
7
6
4
2
1
0
0
-1
-4
-5
-6
-5
-4
-3
-1
-1
0
-2
-3
-3
-3
-4
-4
-3
-3
-3
-4
-3
-2
-2
-2
-1
0
-1
-2
-1
-1
0
0
-1
0
-1
0
0
0
1
2
3
6
10
13
11
5
-1
-6
-12
-18
-24
-29
-33
-39
-59
-88
-120
-138
-148
-152
-149
-146
-139
-133
-122
-112
-98
-84
-70
-56
-43
-29
-18
-9
-2
2
8
12
14
16
18
20
21
22
24
25
27
27
29
30
31
32
33
35
36
36
37
40
41
43
42
43
44
45
46
47
49
49
50
49
51
52
52
53
53
55
55
55
54
54
55
54
53
51
50
49
46
45
43
41
38
36
35
33
30
28
28
27
26
26
26
27
26
26
26
28
28
29
29
29
30
30
30
30
30
29
30
30
30
29
27
28
27
28
26
27
28
27
25
24
25
24
24
23
24
24
23
23
23
22
21
21
20
20
19
19
19
19
19
17
16
16
14
12
11
12
13
13
12
11
10
9
8
7
7
6
4
4
4
2
0
-2
-4
-4
-3
-2
-1
0
1
-1
-2
-2
-4
-4
-3
-2
-2
-3
-2
-2
-2
-1
-1
0
0
0
0
0
1
0
0
1
1
0
1
1
1
1
2
3
7
11
12
10
4
-4
-11
-17
-23
-29
-34
-39
-50
-75
-107
-133
-147
-156
-159
-154
-149
-140
-133
-121
-106
-89
-73
-58
-43
-29
-18
-9
-2
4
8
12
15
17
19
21
23
25
26
27
27
29
31
33
34
36
38
39
40
40
42
42
44
44
46
47
48
49
50
52
52
54
54
56
56
56
57
58
60
59
60
60
60
60
59
59
58
57
55
54
52
50
47
44
43
40
38
36
34
33
31
30
29
29
28
28
30
32
33
32
33
34
35
35
35
36
36
36
36
36
36
35
34
34
35
35
35
33
33
31
31
32
32
31
30
29
30
30
28
27
27
28
28
27
27
27
27
26
26
27
27
26
26
25
24
23
22
22
22
22
22
20
19
17
17
17
18
17
13
11
10
9
7
5
3
2
2
2
3
4
5
5
4
3
1
0
0
0
1
1
1
0
1
2
2
2
2
2
2
3
3
3
2
2
2
3
5
4
3
3
5
6
4
4
6
11
15
18
18
13
6
0
-7
-12
-18
-23
-27
-32
-48
-77
-110
-131
-143
-151
-150
-146
-138
-133
-124
-114
-101
-86
-73
-59
-45
-30
-17
-8
-1
4
8
13
17
20
23
25
26
28
30
30
31
32
34
35
37
39
40
41
40
41
42
44
45
47
48
48
49
49
51
51
53
54
54
55
56
56
56
58
60
62
62
61
61
61
61
61
61
59
58
56
55
54
53
51
49
47
45
43
39
37
37
35
34
32
32
32
32
32
31
32
32
32
32
33
34
33
33
32
33
32
31
30
31
31
30
30
29
28
27
26
26
26
26
25
24
23
23
23
22
22
22
21
20
19
18
19
17
17
17
17
16
15
15
14
13
12
10
9
9
9
9
8
7
5
4
2
1
2
2
2
0
0
-1
-3
-4
-5
-6
-8
-10
-10
-9
-8
-6
-6
-6
-6
-7
-9
-11
-10
-10
-10
-9
-8
-7
-7
-7
-6
-5
-6
-6
-5
-5
-4
-4
-4
-4
-4
-4
-4
-3
-3
-2
-2
-2
-1
0
2
6
10
9
4
-2
-9
-13
-18
-23
-29
-32
-36
-49
-77
-110
-134
-150
-158
-161
-156
-151
-146
-139
-129
-116
-102
-85
-69
-52
-38
-26
-15
-6
0
5
10
14
15
16
18
19
21
22
24
25
27
29
29
31
32
34
34
36
38
40
40
41
43
43
44
44
47
48
50
50
50
52
52
53
54
56
57
57
57
58
59
59
59
58
58
56
54
53
51
50
48
46
44
41
39
36
34
32
31
29
28
28
27
28
27
27
27
28
28
29
29
29
29
28
29
29
29
29
29
30
29
28
27
27
25
25
26
25
25
24
22
21
21
20
19
20
19
19
18
18
17
16
15
15
14
13
12
11
11
9
8
7
7
7
6
5
4
3
2
2
3
4
4
3
3
2
1
1
1
1
0
-1
-1
-1
-2
-4
-6
-6
-5
-5
-4
-3
-2
-2
-3
-3
-4
-5
-5
-5
-4
-4
-4
-3
-2
-2
-3
-2
-2
-1
-1
0
0
0
0
0
0
1
1
1
1
2
2
3
7
11
14
12
6
-2
-11
-18
-24
-31
-36
-42
-57
-85
-117
-139
-152
-158
-161
-156
-149
-139
-129
-118
-103
-88
-72
-57
-41
-26
-15
-7
-1
3
8
12
15
17
19
21
21
23
24
25
26
28
30
30
31
32
35
37
38
39
39
40
40
42
42
44
44
45
46
47
47
47
49
50
51
52
54
54
53
53
52
53
52
52
51
50
48
47
45
43
42
39
37
34
31
29
27
26
25
24
22
21
21
20
20
20
21
22
24
25
25
25
25
27
27
28
28
29
29
28
28
27
28
26
26
25
25
25
23
23
23
23
22
22
23
23
22
21
22
22
21
19
20
20
21
21
20
18
16
15
15
15
14
13
14
14
13
11
11
11
11
10
9
9
7
5
2
1
0
-2
-2
-1
-2
-3
-1
0
-1
-3
-4
-4
-6
-6
-5
-4
-3
-4
-3
-3
-3
-3
-3
-2
-2
-2
-2
-2
-3
-4
-4
-3
-1
-1
-1
-1
0
0
0
4
9
12
11
6
-1
-7
-13
-18
-24
-29
-33
-45
-71
-104
-132
-147
-158
-156
-154
-148
-141
-133
-122
-112
-97
-84
-68
-55
-41
-28
-16
-7
-1
4
10
15
18
19
21
23
24
26
28
29
31
31
33
34
35
36
37
39
40
42
42
44
45
47
47
49
50
50
51
51
53
53
55
55
57
59
59
59
60
61
60
61
61
62
61
60
59
58
58
55
54
51
50
47
44
41
39
38
35
32
31
29
28
26
25
24
24
24
24
24
25
26
25
26
27
28
29
30
32
32
32
31
32
33
33
33
33
34
33
32
31
32
31
30
31
30
31
29
29
28
28
28
27
28
28
28
27
26
25
26
26
26
26
26
26
24
24
24
24
24
24
25
26
26
24
22
21
21
20
19
19
17
15
13
11
10
8
6
4
3
3
4
5
5
6
5
4
1
1
1
0
0
0
1
1
0
0
0
0
0
0
0
1
1
1
0
0
1
1
1
1
1
1
1
1
2
3
3
5
7
11
14
15
10
3
-4
-10
-16
-22
-28
-31
-35
-44
-67
-96
-123
-141
-153
-161
-160
-159
-152
-145
-136
-124
-110
-92
-77
-61
-47
-33
-21
-10
-1
4
10
16
21
23
24
25
28
30
31
32
34
36
37
39
39
41
43
44
45
47
48
49
50
50
52
53
54
54
56
57
57
58
58
60
61
62
62
64
65
64
65
65
67
67
67
66
66
66
64
64
62
62
60
58
57
54
53
50
49
48
48
45
44
43
44
44
42
42
42
42
41
41
41
41
41
40
39
39
39
39
38
39
39
38
37
36
36
36
36
34
34
34
34
33
32
32
32
31
29
29
28
27
26
26
27
27
26
25
24
24
24
23
23
24
24
23
21
21
20
19
18
16
16
16
16
16
16
16
14
12
11
11
12
12
11
10
9
8
7
6
5
4
2
1
3
5
6
7
7
8
7
4
2
2
3
4
4
3
3
4
4
4
4
5
4
4
5
6
6
5
5
5
6
5
5
6
8
8
8
9
9
10
12
16
20
22
20
12
4
-3
-9
-15
-21
-26
-30
-42
-65
-95
-120
-137
-149
-156
-151
-146
-137
-128
-118
-106
-93
-79
-65
-49
-35
-22
-11
-2
5
10
15
20
24
25
27
27
29
30
31
32
34
36
36
37
38
41
41
42
43
45
47
46
47
47
48
48
49
51
52
54
53
53
52
54
53
54
56
57
58
57
58
58
59
57
57
57
57
56
54
53
51
50
49
48
46
44
42
41
40
37
36
35
35
35
34
34
34
34
33
32
31
32
33
32
30
29
28
27
26
27
27
27
26
26
25
25
23
23
23
22
20
19
19
19
18
17
17
17
16
14
13
13
13
11
10
9
8
7
7
6
5
4
1
1
2
3
4
4
4
2
0
0
0
1
0
0
0
-1
-1
-2
-3
-6
-9
-10
-10
-10
-9
-7
-4
-4
-5
-8
-9
-10
-10
-9
-9
-8
-8
-8
-8
-7
-7
-7
-5
-4
-3
-2
-3
-2
-2
-2
-2
-1
-1
-1
-1
-1
0
3
7
12
13
7
0
-5
-11
-15
-20
-24
-28
-37
-60
-94
-122
-143
-152
-152
-150
-143
-139
-128
-119
-105
-93
-78
-64
-51
-38
-27
-16
-8
-2
3
8
12
14
14
15
17
19
20
21
23
24
25
27
28
29
30
32
34
36
36
37
39
39
41
42
45
45
46
45
47
49
49
50
51
53
51
52
52
54
53
53
53
53
52
50
49
48
47
44
41
39
36
33
30
28
25
23
21
20
19
17
16
16
16
15
15
15
15
16
15
16
17
18
19
20
23
23
23
23
24
24
24
25
25
26
25
24
24
24
23
23
24
23
22
21
21
21
22
21
21
22
20
18
17
17
17
17
18
16
15
13
12
11
11
12
13
13
13
11
10
9
9
9
8
7
6
4
3
1
0
-2
-3
-2
-1
-1
0
0
0
-2
-4
-5
-5
-5
-6
-5
-4
-4
-4
-4
-3
-3
-3
-3
-3
-2
-2
-2
-2
-1
-1
-2
-2
-2
-2
-1
-1
1
3
6
10
12
10
2
-6
-12
-17
-23
-29
-33
-38
-50
-76
-106
-129
-147
-155
-161
-155
-152
-144
-137
-128
-115
-103
-87
-73
-56
-42
-29
-16
-8
-1
2
7
11
14
15
17
19
22
23
23
24
27
28
29
31
33
34
34
35
36
37
38
39
40
41
42
42
44
45
46
46
47
49
49
49
50
51
52
51
53
52
53
52
52
51
51
50
48
48
46
45
42
40
38
36
33
30
29
26
25
22
21
20
18
17
17
17
17
16
16
16
16
16
18
19
21
21
21
22
23
24
24
25
26
26
25
25
25
25
24
24
24
24
23
22
22
22
21
21
21
22
21
20
20
21
20
19
20
20
21
20
19
19
18
17
16
16
16
16
15
14
13
11
10
9
9
8
5
3
1
1
0
-2
-4
-6
-7
-8
-7
-6
-5
-5
-6
-7
-7
-8
-10
-10
-11
-11
-11
-11
-10
-10
-10
-10
-10
-9
-9
-9
-10
-9
-9
-8
-9
-8
-7
-6
-7
-8
-8
-7
-7
-6
-6
-3
0
4
6
3
-3
-13
-20
-26
-32
-40
-44
-48
-58
-82
-115
-139
-156
-164
-171
-168
-162
-154
-146
-140
-127
-114
-97
-83
-68
-54
-40
-28
-18
-10
-4
1
5
9
12
14
16
17
18
20
22
23
24
25
27
28
30
31
33
33
34
34
35
37
38
39
40
41
42
43
43
44
46
47
47
48
49
51
50
51
51
52
52
53
53
54
54
53
53
52
51
49
47
45
43
42
39
38
35
34
31
30
29
27
26
26
27
28
28
27
26
27
28
29
30
31
31
31
30
31
31
30
30
30
31
30
30
30
29
28
26
25
24
24
24
24
23
22
22
21
20
20
20
20
20
19
19
18
18
18
18
19
19
17
17
16
15
14
13
12
12
13
11
11
11
10
7
6
7
7
6
4
3
2
1
0
0
-1
-3
-6
-7
-6
-4
-3
-2
-2
-1
-4
-6
-7
-7
-6
-6
-5
-4
-4
-3
-4
-4
-4
-4
-4
-4
-3
-2
-2
-3
-2
-2
-2
-1
-1
0
0
0
0
0
2
4
8
12
15
13
7
0
-5
-9
-14
-21
-25
-28
-35
-52
-83
-112
-131
-145
-150
-150
-142
-140
-133
-124
-112
-99
-87
-72
-56
-40
-26
-15
-4
2
8
13
18
22
24
25
26
28
30
32
33
35
37
38
39
40
42
44
44
46
47
49
50
51
52
53
54
54
57
58
58
58
59
61
61
62
62
64
64
64
64
65
66
66
66
65
65
64
62
61
59
58
56
54
51
49
47
44
43
41
40
38
38
37
36
37
37
39
38
38
38
38
39
39
39
39
40
39
39
38
39
39
37
37
36
36
35
36
36
36
34
33
32
31
31
31
31
31
30
29
29
29
28
28
27
28
27
27
26
26
26
25
24
23
23
23
21
21
20
18
16
14
15
16
17
15
14
12
11
11
11
12
11
9
8
7
6
4
2
0
0
0
0
1
2
2
2
2
1
0
-1
-1
-1
0
0
0
0
0
0
0
1
1
0
0
1
1
1
0
0
1
0
0
1
1
2
3
3
5
9
12
13
10
2
-8
-15
-21
-27
-33
-37
-44
-61
-92
-125
-144
-158
-163
-163
-156
-148
-141
-131
-121
-106
-91
-75
-58
-42
-27
-16
-8
-1
3
8
11
14
17
18
20
21
23
24
25
27
30
31
32
33
34
36
37
38
39
41
42
41
43
43
45
45
45
46
48
48
48
49
51
52
52
53
54
54
53
53
53
53
53
51
51
50
48
47
45
44
41
39
37
35
33
30
28
26
25
23
22
22
21
22
21
22
21
22
24
25
26
26
25
25
26
26
26
27
28
27
26
25
25
24
24
23
23
22
22
21
21
20
20
18
18
19
19
19
18
18
18
17
16
16
17
17
17
15
14
13
14
14
14
14
13
12
11
10
10
10
10
9
7
5
5
6
5
4
3
2
0
-2
-4
-6
-6
-7
-9
-9
-7
-5
-4
-4
-6
-7
-9
-11
-10
-9
-9
-9
-10
-10
-9
-10
-9
-8
-8
-8
-8
-8
-8
-9
-10
-9
-7
-6
-6
-8
-8
-10
-10
-9
-6
-1
3
6
8
5
-1
-9
-15
-20
-26
-33
-39
-41
-48
-68
-101
-131
-151
-160
-166
-166
-164
-159
-149
-139
-127
-117
-104
-90
-74
-59
-45
-33
-24
-15
-6
0
2
6
10
12
11
10
10
12
14
15
17
20
21
21
22
24
26
26
24
25
27
31
32
34
33
34
35
36
38
39
40
39
41
42
44
45
45
48
50
52
52
54
53
51
48
47
48
49
48
46
45
43
42
40
38
37
34
31
28
27
26
24
26
27
28
26
26
27
29
30
30
30
28
27
27
28
30
30
30
29
29
29
28
27
25
26
27
27
26
27
26
25
24
24
25
24
22
21
22
22
23
22
22
23
21
20
19
19
19
18
17
17
18
17
16
14
12
12
13
15
17
17
15
14
13
11
10
9
10
12
11
8
6
6
6
5
2
0
0
0
0
1
2
3
4
3
2
1
0
-1
-1
1
2
2
2
2
2
1
1
1
1
1
1
2
3
4
4
3
3
4
6
6
6
6
5
5
7
12
16
19
20
17
12
5
-1
-5
-9
-15
-20
-23
-29
-45
-73
-103
-125
-138
-147
-148
-147
-141
-136
-130
-121
-108
-91
-76
-60
-44
-30
-16
-4
3
9
14
17
19
21
26
29
30
31
32
33
35
36
37
39
41
44
45
47
47
48
49
50
51
51
53
53
53
53
55
59
63
65
63
63
63
65
65
66
67
67
67
66
67
67
67
65
64
64
62
61
58
56
53
49
46
45
46
44
43
41
40
38
36
36
36
37
36
36
36
36
36
36
38
38
37
35
33
31
32
36
39
41
40
38
34
33
33
33
33
32
32
30
31
29
29
28
26
25
25
25
23
21
21
20
18
15
14
15
17
18
17
15
13
12
10
9
8
7
6
7
9
9
7
5
4
4
5
7
7
4
1
0
0
0
-1
-2
-4
-4
-3
-1
0
1
1
0
-1
-3
-3
-3
-2
0
0
0
0
0
0
-1
0
0
1
0
-1
-4
-7
-5
0
8
11
10
7
6
5
4
5
10
16
20
21
16
7
-1
-9
-14
-20
-25
-28
-36
-55
-87
-119
-140
-153
-159
-162
-157
-151
-142
-131
-117
-99
-83
-66
-51
-34
-18
-6
2
9
14
19
22
24
25
26
27
28
31
31
32
32
33
34
36
39
42
46
47
47
46
48
49
49
50
51
54
53
52
53
53
54
54
56
56
58
59
60
61
60
58
57
58
58
58
56
53
50
47
47
47
49
46
42
39
36
33
31
30
27
25
24
24
23
22
22
23
23
23
23
25
27
27
27
29
30
31
31
31
32
31
31
31
32
32
32
30
29
28
26
25
25
26
25
25
24
24
23
23
26
27
25
22
20
21
21
19
18
18
16
15
14
14
14
14
15
15
14
12
10
10
9
8
7
6
5
4
2
0
-2
-5
-5
-4
-2
-1
-1
-2
-3
-4
-6
-6
-5
-5
-6
-7
-6
-6
-6
-6
-6
-7
-8
-6
-2
3
5
5
4
3
3
3
2
2
3
2
4
6
10
14
17
17
12
5
-1
-5
-10
-17
-21
-25
-36
-63
-96
-121
-140
-147
-151
-146
-143
-137
-128
-119
-104
-92
-75
-61
-45
-31
-19
-8
0
7
13
19
23
23
24
25
27
30
32
33
35
36
36
37
39
41
44
45
45
45
45
47
49
51
52
52
51
51
54
57
59
58
61
61
61
61
62
64
63
63
61
63
64
65
64
63
63
60
59
57
56
53
49
45
41
39
37
40
40
37
32
28
26
26
25
24
24
24
24
23
22
23
24
24
25
26
27
27
26
27
29
29
30
31
33
32
31
30
29
27
24
25
29
32
33
31
29
28
27
26
27
27
27
26
24
25
25
24
24
25
25
24
25
24
24
23
22
20
20
21
22
22
21
21
19
18
16
15
14
12
11
10
10
8
5
3
1
0
0
0
2
3
2
0
-2
-4
-5
-4
-4
-2
-2
-3
-4
-3
-2
-2
-3
-3
-3
-3
-4
-4
-3
-1
0
-1
-2
-3
-2
-4
-6
-4
-2
0
0
1
4
7
12
12
7
-2
-12
-18
-24
-30
-36
-41
-46
-60
-87
-122
-144
-160
-167
-171
-170
-162
-159
-151
-144
-130
-116
-100
-84
-70
-54
-40
-27
-19
-11
-5
0
4
6
8
11
14
14
15
15
19
21
22
21
23
25
27
27
28
29
31
33
34
36
38
38
35
34
36
38
41
42
44
45
44
44
44
46
46
45
44
44
47
48
51
50
49
47
47
47
45
44
41
39
38
37
34
30
28
28
32
33
33
29
25
23
20
19
20
21
21
20
19
20
20
21
21
21
22
21
20
18
17
18
17
17
16
18
19
20
20
19
18
17
15
15
15
14
14
13
12
10
10
10
9
10
10
9
6
5
4
4
5
8
9
9
6
4
2
2
2
1
1
1
1
0
-1
-1
-1
-1
-2
-1
-1
-4
-9
-11
-11
-13
-17
-24
-24
-18
-13
-11
-11
-8
-7
-8
-12
-14
-15
-14
-15
-15
-15
-15
-16
-16
-14
-13
-13
-14
-14
-13
-12
-13
-15
-15
-14
-14
-13
-14
-17
-21
-26
-29
-27
-15
-2
3
3
3
5
7
8
6
0
-9
-16
-21
-25
-32
-38
-43
-52
-76
-113
-141
-159
-165
-167
-166
-159
-157
-149
-143
-129
-114
-97
-82
-70
-56
-43
-29
-19
-11
-5
0
4
8
10
13
17
19
19
20
21
22
24
24
26
26
28
29
31
32
31
32
35
40
43
43
43
43
45
44
44
46
49
52
51
52
52
55
55
56
58
59
59
59
59
58
58
56
56
56
54
51
49
51
51
49
44
42
42
40
38
36
36
35
34
32
31
33
34
34
31
30
32
36
38
37
35
34
33
32
32
29
27
26
26
27
29
30
29
28
27
27
26
26
26
25
24
22
20
20
20
20
18
16
15
13
11
11
12
12
10
6
3
1
1
3
6
11
12
11
9
9
9
8
6
6
8
9
7
5
3
3
1
0
-1
-1
-2
-2
-2
-1
0
1
1
2
2
1
0
-1
-2
-2
-2
0
2
4
3
3
3
3
3
3
3
4
4
3
3
3
4
5
6
6
6
6
7
7
8
13
19
21
16
6
-1
-8
-16
-24
-28
-33
-49
-81
-111
-135
-148
-156
-158
-155
-151
-143
-137
-123
-108
-91
-74
-58
-39
-24
-13
-4
5
13
19
23
25
26
27
28
30
31
33
35
37
38
37
39
40
41
41
44
48
51
53
52
54
55
56
56
57
59
59
60
58
60
61
62
63
63
64
64
65
65
65
62
61
62
62
61
57
53
49
49
52
54
53
48
44
39
37
34
32
31
30
31
30
29
27
26
27
28
29
29
29
30
32
33
34
35
35
35
32
32
31
31
29
29
31
36
38
37
34
31
31
30
29
29
28
27
26
26
24
23
22
22
21
20
19
17
15
14
14
14
14
13
13
14
14
12
11
10
10
10
10
9
8
6
4
3
3
2
0
0
1
1
0
1
3
2
0
-1
-3
-5
-6
-3
0
0
-2
-2
-1
-2
-3
-3
-1
-1
-3
-4
-3
-2
-1
-1
-1
0
-1
-2
-2
-1
1
4
8
13
16
15
9
1
-5
-12
-19
-24
-29
-38
-59
-93
-128
-152
-163
-162
-155
-146
-137
-126
-117
-104
-91
-75
-60
-45
-31
-19
-9
0
5
10
16
20
22
24
26
27
27
27
27
27
26
28
33
38
39
40
41
43
46
46
48
47
48
48
50
52
53
55
55
56
54
54
53
55
57
59
61
62
63
61
61
61
62
60
56
53
53
55
53
48
44
45
48
50
50
45
40
35
32
30
28
26
24
24
22
21
20
20
21
22
23
23
23
22
23
24
26
27
26
28
29
31
31
31
32
31
30
29
32
33
34
33
32
33
32
30
27
24
24
27
32
35
36
34
32
30
31
30
28
24
23
25
28
30
30
30
28
27
25
24
23
21
20
20
17
12
8
9
15
18
16
11
8
6
5
5
8
12
14
12
8
5
3
2
1
2
1
-1
-2
0
5
5
1
-4
-8
-8
-3
5
15
20
21
18
12
6
3
5
8
9
8
9
11
14
18
21
22
18
10
0
-9
-16
-23
-27
-25
-27
-43
-74
-109
-134
-150
-155
-156
-151
-146
-141
-135
-128
-117
-104
-87
-71
-54
-38
-24
-15
-11
-9
-3
9
23
30
32
31
30
29
29
30
31
34
37
38
40
40
41
41
42
44
46
49
50
51
51
51
51
51
53
54
55
54
53
52
56
57
55
48
43
48
62
76
79
74
67
65
64
63
62
60
61
59
58
56
55
54
51
49
46
44
40
37
36
35
34
33
34
32
25
19
22
35
47
49
43
38
37
39
39
38
37
34
32
32
33
34
34
34
32
32
31
31
29
29
30
27
21
13
12
18
29
35
34
31
27
25
24
24
24
24
23
22
23
23
21
19
18
17
14
10
8
5
4
8
15
20
17
11
5
6
8
7
2
0
1
5
5
1
-2
-3
-3
-2
-2
-2
-2
-2
-2
-4
-6
-6
-5
-5
-8
-11
-12
-10
-7
-6
-7
-7
-5
-4
-4
-4
-6
-7
-9
-11
-9
-6
-4
-5
-7
-9
-7
-6
-6
-8
-7
-3
2
7
11
12
11
6
-2
-9
-15
-23
-29
-34
-37
-50
-75
-107
-132
-147
-157
-157
-157
-150
-145
-138
-128
-118
-104
-91
-74
-58
-44
-33
-23
-13
-6
-2
0
1
3
5
6
7
8
10
10
9
8
10
14
18
22
22
23
24
25
25
27
28
28
28
27
28
32
36
37
35
35
36
37
35
36
37
37
38
39
42
41
41
40
40
40
39
36
32
31
34
40
41
36
29
26
27
28
27
23
19
16
18
20
20
19
17
16
18
19
17
14
11
10
13
17
18
15
11
8
9
13
16
18
16
14
11
9
9
8
8
8
6
5
5
6
4
4
4
3
0
-4
-4
-1
1
0
-2
-3
-4
-6
-9
-9
-7
-7
-9
-11
-12
-13
-14
-14
-14
-14
-16
-16
-15
-12
-11
-12
-17
-22
-25
-24
-22
-22
-24
-27
-28
-27
-25
-24
-23
-22
-22
-22
-25
-28
-29
-30
-29
-26
-23
-21
-21
-23
-25
-29
-30
-29
-28
-27
-25
-23
-21
-20
-22
-27
-29
-28
-22
-18
-16
-15
-14
-13
-10
-7
-7
-12
-17
-21
-24
-28
-33
-40
-47
-61
-83
-113
-137
-155
-167
-166
-164
-157
-155
-149
-138
-124
-106
-90
-74
-62
-48
-37
-28
-23
-19
-15
-9
-3
0
1
1
2
2
5
8
11
14
15
14
13
16
19
22
24
25
25
25
26
28
29
28
30
33
36
36
35
38
41
44
45
46
47
49
50
50
51
50
51
51
52
50
46
41
38
36
34
32
30
30
31
33
35
32
25
20
20
20
19
20
22
23
23
22
22
23
22
21
20
23
24
24
26
28
29
29
29
29
27
25
21
20
25
35
41
40
36
32
31
31
35
37
33
25
21
22
25
25
26
28
28
26
24
23
22
20
22
24
25
24
20
17
16
19
21
22
19
17
17
20
21
20
18
15
12
8
5
5
7
8
8
8
7
6
2
-1
-1
1
5
6
3
-1
-3
1
7
10
10
6
2
-1
-3
-1
4
9
13
13
12
12
14
16
16
17
17
20
21
22
21
21
27
36
43
41
34
28
29
31
29
24
17
14
10
-7
-39
-73
-91
-101
-104
-103
-104
-101
-96
-80
-63
-44
-28
-15
-4
6
18
29
39
48
56
64
71
74
79
84
87
83
81
86
92
92
87
84
83
84
90
94
92
85
84
89
98
106
112
115
111
104
101
104
104
105
106
108
112
109
110
108
107
103
107
113
111
112
113
118
121
122
114
108
109
112
114
107
104
101
103
101
95
89
80
75
74
81
86
89
86
81
78
84
93
94
91
87
87
82
78
83
88
90
88
87
86
85
83
81
80
78
79
78
79
80
79
79
81
88
89
86
79
72
69
67
64
61
66
72
75
75
75
74
71
73
76
80
77
71
67
62
62
64
71
75
77
70
61
54
50
50
50
54
56
55
48
42
39
43
52
57
59
55
49
42
39
40
43
45
44
44
41
35
30
31
32
30
33
39
42
39
36
34
33
35
41
46
45
38
32
30
32
35
38
41
41
38
33
31
36
47
52
47
36
32
34
32
24
14
9
9
7
-10
-45
-80
-109
-133
-137
-128
-115
-112
-109
-107
-103
-92
-77
-57
-41
-27
-20
-19
-15
0
24
41
49
53
49
44
42
46
52
55
57
56
55
55
56
57
57
59
60
61
61
62
64
67
70
71
67
62
63
68
72
71
68
68
68
71
73
76
81
82
82
79
80
79
79
79
79
78
75
72
67
66
66
66
63
60
56
51
48
46
46
44
43
41
37
34
33
34
35
37
37
37
39
42
40
34
29
28
31
35
38
37
33
29
27
25
25
25
25
26
26
27
28
28
27
24
20
17
16
16
14
15
16
15
14
15
15
13
9
7
6
6
7
6
4
2
-1
-4
-4
-3
-2
-3
-6
-10
-12
-11
-5
-1
-1
-4
-9
-10
-8
-6
-6
-9
-13
-16
-18
-20
-19
-19
-20
-15
-8
-6
-11
-17
-22
-26
-27
-23
-16
-12
-13
-16
-20
-24
-26
-25
-24
-23
-24
-23
-23
-24
-23
-22
-21
-17
-14
-15
-18
-17
-14
-10
-7
-6
-8
-11
-15
-18
-18
-17
-18
-22
-27
-33
-39
-53
-78
-111
-141
-156
-169
-167
-163
-157
-151
-144
-134
-126
-111
-98
-83
-74
-63
-48
-32
-20
-15
-12
-9
-5
-2
0
1
2
3
5
10
15
16
14
13
16
21
23
22
21
21
23
23
23
24
29
35
38
36
35
38
42
46
45
44
44
44
43
40
38
36
37
40
44
49
52
51
48
45
43
40
35
30
28
28
29
25
23
22
21
18
13
11
12
14
11
8
6
10
20
27
25
19
15
15
18
22
25
25
24
23
22
21
19
19
20
20
18
21
24
23
18
14
16
21
24
20
13
10
11
14
16
18
18
16
13
8
5
8
13
16
15
12
11
9
5
2
2
4
7
9
8
4
0
-6
-6
0
3
2
0
-1
-3
-7
-9
-10
-7
-7
-10
-14
-12
-7
-4
-5
-7
-12
-19
-17
-11
-9
-11
-13
-13
-9
-4
-3
-6
-8
-11
-14
-14
-11
-8
-6
-5
-5
-7
-7
-6
-3
0
2
3
6
9
6
0
-8
-14
-17
-18
-20
-21
-25
-36
-60
-91
-119
-135
-144
-152
-150
-147
-137
-131
-123
-115
-104
-90
-80
-68
-51
-31
-16
-5
0
3
8
15
19
21
21
24
26
27
30
31
32
32
34
35
37
38
39
39
40
42
42
42
43
45
47
48
47
44
46
48
49
49
50
50
50
51
52
52
50
51
53
54
55
54
54
53
49
45
42
43
43
42
37
32
28
27
27
25
22
16
11
9
13
18
21
20
15
10
9
12
18
23
22
16
14
16
19
20
21
21
19
17
20
26
28
24
18
15
15
17
17
16
16
14
14
13
11
10
11
12
12
11
11
10
8
7
10
12
11
8
9
11
11
8
5
4
4
6
6
5
3
1
0
-1
-2
-3
-1
0
-1
-4
-9
-11
-12
-12
-14
-18
-21
-22
-20
-18
-15
-14
-15
-17
-17
-16
-19
-23
-30
-33
-32
-33
-33
-33
-27
-23
-23
-27
-30
-26
-22
-21
-22
-20
-18
-17
-18
-22
-26
-28
-28
-26
-23
-23
-24
-24
-22
-19
-15
-12
-14
-20
-30
-38
-40
-41
-45
-52
-55
-59
-78
-111
-143
-158
-169
-174
-176
-171
-165
-160
-151
-144
-130
-116
-99
-88
-78
-65
-50
-37
-29
-24
-19
-13
-10
-7
-5
0
2
1
0
1
5
9
12
13
13
14
17
21
21
18
15
18
21
22
21
21
22
23
24
27
29
30
32
34
36
35
29
25
25
29
33
34
33
34
34
32
33
36
39
37
32
27
22
19
18
17
17
20
22
22
18
13
11
10
9
6
5
6
8
8
9
12
12
8
5
7
11
14
14
9
2
-2
-1
2
6
8
7
4
2
2
1
1
2
2
3
4
2
0
-2
-2
-3
-3
-2
-3
-5
-6
-7
-5
-3
-4
-7
-9
-7
-5
-4
-4
-3
-5
-10
-15
-12
-6
-5
-10
-14
-13
-11
-9
-9
-10
-9
-11
-12
-11
-9
-8
-11
-14
-15
-15
-17
-22
-24
-24
-22
-22
-20
-17
-16
-17
-21
-23
-22
-22
-23
-24
-22
-19
-17
-19
-22
-23
-21
-19
-20
-22
-23
-22
-21
-16
-13
-14
-16
-16
-15
-15
-16
-16
-15
-14
-12
-10
-7
-5
-3
-2
-2
-6
-12
-18
-22
-26
-28
-32
-36
-40
-50
-71
-105
-128
-141
-146
-154
-160
-159
-156
-147
-143
-136
-129
-114
-97
-83
-70
-59
-45
-33
-22
-14
-8
-5
-2
2
8
13
16
15
11
9
9
12
14
15
18
23
25
26
27
29
31
32
35
37
38
37
39
41
44
44
42
40
40
42
44
45
45
44
46
48
49
50
51
51
50
49
47
46
46
47
49
48
47
46
46
44
40
37
36
37
36
37
36
35
32
29
28
28
29
27
27
27
29
28
26
25
25
25
24
24
25
26
26
28
31
31
28
24
22
22
21
21
20
20
20
20
20
20
19
16
14
15
15
14
12
12
14
12
7
1
-2
0
6
9
9
6
4
3
3
3
1
-1
-3
-2
-1
0
1
1
0
-1
-1
1
3
1
-1
-4
-6
-7
-5
-4
-5
-8
-10
-9
-8
-6
-4
-3
-3
-4
-4
-5
-5
-6
-6
-7
-5
-4
-5
-5
-5
-4
-4
-5
-3
0
3
2
0
-3
-3
-2
-1
-1
-1
0
0
2
2
2
3
5
10
13
11
6
0
-6
-12
-17
-23
-30
-37
-49
-71
-103
-127
-145
-153
-157
-153
-143
-134
-124
-116
-103
-90
-73
-56
-41
-28
-17
-9
-5
0
8
17
23
23
22
22
24
26
28
31
33
33
33
33
36
39
43
44
43
42
45
49
51
52
51
51
52
54
54
53
52
53
57
61
62
59
56
55
57
60
60
61
61
61
59
58
59
58
53
45
43
44
46
46
44
42
39
39
36
31
29
30
33
35
36
38
41
42
42
43
42
39
36
37
40
45
45
40
37
38
40
40
41
41
42
42
41
38
36
38
38
38
35
31
28
31
34
34
33
33
34
34
33
33
29
25
22
22
22
21
19
17
18
22
28
30
27
23
21
21
20
20
18
17
15
13
10
8
8
9
12
15
21
21
15
6
0
0
2
4
8
10
8
4
3
6
10
12
10
7
6
8
11
14
15
14
11
9
10
12
15
15
12
9
12
19
26
28
28
21
13
5
0
-1
-3
-7
-12
-26
-56
-88
-110
-121
-130
-129
-123
-115
-109
-103
-95
-83
-67
-53
-40
-25
-12
-2
8
17
26
31
30
26
29
36
41
45
46
48
48
49
50
52
56
59
61
59
60
59
61
64
67
69
68
67
66
68
70
72
71
72
74
74
75
76
80
82
81
79
76
79
81
82
79
76
71
71
71
70
68
65
63
62
60
57
55
56
56
54
48
42
40
42
44
45
48
50
49
43
36
33
36
40
42
44
42
40
39
41
45
46
47
47
48
47
49
50
49
47
45
47
46
46
45
45
45
45
46
46
46
45
47
49
50
48
46
46
46
46
45
45
44
42
40
41
44
45
45
43
43
42
40
38
39
42
42
40
33
28
28
29
31
29
25
21
21
24
27
26
21
18
17
18
19
20
21
22
21
19
16
13
14
16
18
20
22
23
20
18
20
24
26
23
19
18
21
21
20
19
17
15
16
17
19
24
31
39
40
30
17
10
10
10
6
0
-6
-15
-32
-60
-90
-112
-128
-138
-135
-131
-124
-116
-107
-96
-86
-73
-62
-49
-35
-19
-2
12
19
24
27
29
30
30
34
40
48
52
54
52
50
51
54
57
57
58
58
57
57
59
64
65
66
64
66
67
68
69
70
72
72
73
73
76
76
77
74
73
74
75
76
75
77
76
76
73
73
74
73
71
67
66
68
69
67
64
63
62
60
58
56
54
51
48
48
48
48
47
47
47
48
49
50
51
50
46
44
46
51
53
48
45
42
41
41
43
48
52
52
48
47
48
52
52
47
40
36
39
43
44
41
39
37
37
39
39
38
37
39
41
40
36
34
34
35
35
33
32
31
31
29
27
26
27
29
29
28
25
23
22
22
23
22
21
19
18
20
20
19
15
14
14
16
15
14
15
16
17
17
15
11
6
6
10
15
14
11
11
13
15
16
16
14
14
15
15
13
13
12
13
14
13
13
12
12
13
13
13
12
15
19
22
25
29
30
28
21
13
7
4
0
-7
-14
-19
-27
-48
-80
-112
-129
-140
-144
-145
-138
-130
-123
-114
-105
-93
-80
-66
-52
-37
-24
-13
-6
1
8
14
20
25
30
29
27
24
26
30
35
36
37
39
41
43
41
42
44
47
49
47
46
45
47
47
50
54
57
55
48
44
45
51
54
60
62
62
61
60
59
56
55
57
60
62
62
61
60
60
60
59
57
58
59
57
53
47
44
44
44
44
42
39
38
38
39
41
40
38
38
38
37
37
40
41
40
35
31
31
32
32
31
32
32
31
30
29
29
27
26
25
25
25
27
29
29
27
24
23
22
23
24
24
25
23
21
17
16
18
19
17
16
15
15
13
12
11
12
12
12
12
12
12
10
10
11
11
9
7
7
7
4
0
-2
-1
0
1
0
0
1
3
3
3
1
-2
-4
-4
-2
0
1
1
0
0
0
-1
0
1
1
0
0
1
1
1
-1
0
1
3
3
4
3
3
3
5
7
7
7
9
13
15
12
5
-1
-7
-11
-18
-23
-28
-36
-52
-81
-110
-132
-144
-151
-149
-143
-138
-129
-120
-108
-97
-83
-68
-51
-34
-20
-10
-1
5
11
16
20
21
22
24
27
29
30
30
31
32
33
33
36
37
40
41
42
44
44
45
44
47
49
51
51
51
52
52
55
56
59
59
59
60
59
60
60
62
63
65
64
63
61
59
58
58
60
58
55
51
50
49
47
43
37
35
33
34
34
33
31
28
29
30
31
31
31
32
33
33
32
33
35
35
36
37
39
38
37
36
37
37
35
34
33
32
31
31
32
34
34
34
34
32
31
31
33
32
30
29
27
28
28
29
28
28
27
27
26
25
24
22
21
21
21
20
17
16
15
13
10
11
12
14
13
12
11
12
11
9
7
4
0
-2
-1
0
3
4
3
1
-1
-3
-4
-3
-1
0
0
0
0
-1
-2
-2
-2
-2
-2
-2
-1
-1
-1
-2
-3
-3
-3
-1
0
1
1
1
1
2
4
7
12
16
13
3
-6
-13
-19
-25
-32
-36
-40
-52
-77
-111
-138
-158
-165
-168
-160
-153
-145
-135
-126
-110
-95
-76
-60
-44
-31
-21
-10
-2
3
7
12
16
19
21
23
25
27
28
29
31
34
35
34
35
36
38
39
40
42
43
46
46
47
46
44
43
43
47
49
51
51
52
52
53
53
52
52
52
54
54
57
57
57
56
54
53
51
50
49
49
47
44
43
42
40
37
35
32
29
26
24
24
23
21
19
19
19
19
18
18
19
21
22
23
24
25
25
24
24
25
25
25
24
23
23
22
22
21
21
21
20
20
21
21
20
17
14
13
13
13
14
16
16
14
13
12
12
11
10
10
12
12
10
9
9
8
6
4
5
5
4
2
1
2
3
3
0
-1
-4
-6
-8
-9
-10
-13
-14
-14
-14
-12
-11
-10
-9
-10
-13
-16
-16
-14
-14
-15
-16
-17
-18
-18
-16
-13
-12
-14
-17
-17
-16
-14
-14
-14
-14
-15
-16
-18
-17
-16
-15
-14
-13
-13
-12
-12
-10
-6
-1
2
0
-6
-13
-18
-22
-27
-33
-41
-48
-61
-86
-118
-149
-163
-174
-172
-168
-162
-152
-145
-133
-124
-110
-96
-82
-68
-56
-43
-33
-23
-17
-10
-5
-1
0
0
2
5
5
6
7
9
11
12
12
12
14
16
16
17
17
19
20
22
23
22
22
24
27
28
27
25
24
27
30
32
33
34
34
34
33
35
39
40
40
38
37
36
35
34
35
36
34
32
28
27
26
24
22
20
18
16
13
11
9
10
11
11
10
9
9
8
8
9
8
7
6
7
9
10
9
9
9
8
8
7
7
5
3
3
3
3
3
2
1
1
1
0
0
0
-1
-2
-2
-1
-1
-2
-4
-4
-4
-5
-7
-8
-8
-7
-9
-9
-10
-10
-12
-14
-16
-17
-15
-15
-14
-15
-16
-17
-18
-17
-18
-20
-22
-21
-22
-24
-27
-28
-28
-28
-26
-24
-22
-22
-25
-27
-29
-29
-29
-29
-28
-27
-28
-29
-30
-29
-27
-26
-25
-25
-27
-29
-30
-28
-27
-27
-27
-25
-24
-25
-25
-25
-24
-24
-22
-20
-16
-13
-8
-8
-13
-20
-28
-34
-40
-46
-52
-58
-65
-87
-117
-149
-166
-179
-184
-178
-172
-160
-155
-145
-136
-121
-105
-91
-74
-60
-47
-39
-32
-27
-21
-16
-12
-10
-8
-7
-5
-4
-3
-2
-1
0
2
4
4
3
3
5
6
7
9
11
12
11
12
14
15
16
16
19
21
20
20
21
23
24
26
26
26
26
27
28
28
28
27
27
26
26
26
24
22
20
17
13
11
10
8
4
2
3
3
0
-2
-2
-1
-1
-2
-2
-2
-2
-2
-1
0
0
0
0
0
0
0
0
1
1
0
0
-1
-1
-1
0
0
0
-3
-4
-4
-3
-2
-3
-3
-5
-6
-5
-4
-4
-5
-7
-9
-9
-9
-9
-9
-10
-13
-16
-17
-18
-17
-16
-14
-13
-13
-15
-17
-17
-18
-19
-20
-21
-22
-23
-23
-27
-29
-32
-32
-31
-28
-25
-24
-24
-26
-27
-30
-31
-31
-30
-29
-30
-29
-30
-31
-31
-30
-28
-29
-30
-30
-30
-31
-30
-28
-27
-27
-28
-28
-27
-26
-26
-25
-24
-23
-22
-19
-14
-11
-12
-18
-25
-31
-38
-44
-51
-56
-63
-77
-103
-135
-161
-180
-183
-182
-175
-169
-159
-146
-133
-117
-104
-88
-75
-61
-49
-38
-29
-23
-18
-13
-10
-9
-8
-7
-4
-2
-2
-2
-2
0
1
3
4
5
5
6
6
8
11
12
14
15
14
14
15
17
18
17
17
18
20
22
23
23
24
25
25
26
26
27
27
25
24
23
23
22
22
22
19
16
14
13
11
10
8
6
4
3
1
-1
-4
-5
-4
-3
-5
-6
-6
-5
-5
-5
-5
-4
-4
-3
-2
-1
0
0
0
0
2
2
1
0
0
0
0
1
1
2
2
2
2
2
1
0
1
2
2
1
0
0
1
1
0
0
0
0
0
0
-1
-1
-2
-2
-2
-2
-2
-2
-4
-6
-7
-7
-8
-8
-11
-14
-16
-18
-20
-21
-23
-24
-23
-23
-22
-22
-21
-23
-26
-27
-28
-28
-30
-31
-31
-30
-30
-32
-31
-30
-29
-29
-30
-31
-32
-31
-31
-30
-29
-27
-27
-27
-27
-28
-28
-28
-26
-27
-27
-26
-20
-14
-10
-10
-14
-19
-25
-29
-34
-40
-47
-54
-61
-76
-100
-131
-155
-168
-174
-173
-170
-164
-157
-149
-139
-129
-114
-100
-86
-74
-61
-48
-37
-29
-22
-17
-13
-8
-6
-3
-1
1
2
2
2
3
5
7
10
11
12
12
13
15
16
16
17
18
20
21
21
23
23
23
23
26
27
29
29
29
29
31
33
33
33
35
36
37
36
37
37
37
35
35
35
35
36
34
33
31
29
26
24
23
20
18
16
14
13
11
10
9
9
9
8
7
8
9
10
11
12
13
12
12
11
13
14
13
12
11
11
9
10
11
11
12
11
10
9
9
9
9
9
8
7
5
5
4
5
7
8
8
6
4
3
3
5
6
6
6
7
7
7
6
4
2
0
0
-1
-1
0
0
0
-2
-4
-5
-5
-4
-4
-6
-8
-9
-10
-9
-10
-12
-16
-17
-16
-15
-14
-13
-12
-12
-13
-15
-16
-17
-17
-17
-17
-16
-15
-14
-13
-13
-14
-14
-13
-13
-14
-14
-14
-13
-12
-11
-11
-11
-11
-11
-12
-11
-10
-10
-10
-9
-8
-6
-3
2
6
6
0
-7
-13
-17
-22
-29
-35
-40
-47
-65
-95
-126
-149
-161
-167
-163
-159
-153
-146
-137
-124
-110
-95
-81
-65
-50
-36
-26
-17
-11
-5
0
6
12
14
15
15
16
18
20
22
26
28
29
29
28
29
31
33
33
34
36
38
39
38
39
39
41
42
44
45
46
47
47
47
47
49
50
52
53
53
52
51
52
53
54
53
54
55
55
54
52
51
51
50
49
48
47
45
43
41
40
39
38
37
36
35
34
33
32
31
30
30
31
31
31
29
27
25
26
26
25
25
25
25
25
25
25
24
24
22
22
20
20
18
18
19
18
18
16
16
15
14
13
12
12
11
9
7
6
6
5
5
5
6
5
3
2
2
1
0
0
0
1
0
0
0
0
1
1
1
0
-1
-2
-3
-3
-3
-5
-6
-5
-3
-2
-2
-1
-2
-3
-4
-4
-3
-5
-7
-7
-5
-3
-1
0
1
1
1
0
0
1
2
2
3
4
5
4
3
4
5
6
6
7
8
9
11
15
20
20
18
12
6
-1
-8
-15
-19
-22
-30
-50
-81
-114
-137
-153
-158
-158
-151
-143
-133
-121
-110
-93
-77
-60
-45
-32
-20
-9
-1
5
11
16
19
20
20
22
24
26
28
29
31
32
33
34
35
37
38
39
39
41
42
41
42
42
44
45
47
48
50
51
50
51
52
54
54
55
56
57
59
60
61
60
59
59
61
61
60
58
56
56
55
53
51
49
47
45
42
39
37
35
34
33
31
30
31
32
32
31
32
34
34
32
33
34
36
36
34
34
34
35
34
35
34
34
34
36
37
36
36
35
35
33
33
32
33
32
29
27
25
25
24
24
24
24
24
24
24
22
19
17
18
20
20
20
20
20
19
20
20
21
21
20
19
17
16
14
14
13
11
8
8
7
7
9
11
13
11
9
9
8
6
7
10
11
10
8
8
10
12
12
12
12
12
11
11
12
12
12
11
13
14
15
15
15
15
17
20
26
30
30
25
17
11
5
-1
-7
-13
-17
-29
-54
-89
-119
-136
-146
-142
-139
-131
-125
-116
-102
-88
-69
-51
-34
-20
-7
4
14
20
26
31
35
36
37
39
41
43
44
46
48
49
49
50
53
54
56
56
58
59
60
62
64
67
67
66
65
67
69
70
73
72
72
71
76
79
81
81
82
84
83
83
81
83
82
83
82
80
79
76
76
73
71
67
64
62
59
57
55
55
54
53
51
50
48
46
45
46
48
48
48
47
46
45
46
48
50
50
49
51
53
55
56
56
57
57
57
58
58
59
58
59
59
60
59
58
59
58
57
55
57
57
59
57
57
58
58
60
59
59
56
53
53
54
55
54
53
51
51
49
49
49
49
47
43
42
40
39
38
36
35
33
34
35
38
40
40
36
33
31
29
29
29
30
31
33
32
32
32
31
31
30
30
31
30
30
30
31
32
31
31
31
31
31
32
33
34
35
38
41
44
45
43
39
32
25
16
8
3
0
-6
-23
-53
-86
-114
-126
-135
-134
-129
-123
-114
-107
-95
-83
-66
-48
-32
-16
-4
9
20
28
35
40
46
50
52
54
55
58
58
60
61
64
65
64
65
65
68
70
72
73
74
75
74
77
78
80
80
81
82
83
86
86
87
88
88
87
86
90
91
92
91
92
93
94
95
95
96
94
94
92
92
91
91
90
87
87
82
80
76
76
73
69
66
63
64
61
60
58
58
58
57
58
58
60
60
60
60
63
64
65
65
65
66
65
66
66
67
66
65
65
65
67
65
63
62
61
60
59
60
61
62
61
60
60
60
61
58
57
56
56
58
58
59
57
56
53
52
52
52
53
50
49
47
48
48
49
48
47
45
42
41
40
39
38
37
36
35
34
30
27
25
25
25
26
29
32
32
26
23
23
24
25
25
26
26
26
25
24
25
27
27
27
27
28
27
26
25
26
27
28
28
29
31
32
32
31
30
29
30
32
36
41
46
47
43
36
30
25
20
16
10
4
-2
-19
-50
-87
-118
-132
-142
-140
-137
-129
-121
-112
-99
-86
-67
-51
-35
-23
-10
3
14
22
29
35
42
45
47
48
50
52
53
55
55
57
59
61
62
63
65
64
65
67
70
71
71
71
72
72
72
73
75
78
79
78
79
80
82
82
83
85
86
88
87
88
89
91
92
91
90
90
92
91
90
88
87
86
86
87
84
82
77
75
73
72
72
70
70
69
69
67
67
67
68
67
65
65
65
66
65
66
65
65
64
63
63
63
63
61
60
60
60
60
59
60
58
57
55
54
55
54
53
53
53
52
52
51
51
51
49
49
48
48
47
44
44
44
44
42
40
37
36
35
35
36
37
37
36
36
35
34
34
35
36
35
33
31
29
27
26
25
25
26
26
26
26
28
28
28
26
25
26
25
25
24
24
24
24
24
26
26
25
25
26
27
27
27
27
28
28
27
26
25
27
28
30
31
32
32
32
36
41
44
43
39
32
24
17
9
3
-2
-7
-18
-41
-78
-109
-131
-142
-145
-141
-134
-129
-118
-108
-93
-78
-61
-42
-25
-10
3
15
24
29
35
41
44
46
48
51
52
53
54
57
59
59
59
59
62
63
63
63
65
67
68
69
68
69
70
71
72
74
75
74
77
80
83
83
83
83
84
86
86
87
87
88
88
88
89
88
88
86
86
84
82
80
78
76
71
69
66
65
61
58
55
52
51
49
48
49
51
51
49
50
50
51
51
54
55
55
54
53
53
51
52
51
53
52
51
49
49
49
48
49
48
47
45
44
44
44
43
42
42
41
40
39
39
39
37
35
32
32
32
32
32
32
31
28
26
24
23
24
25
25
24
24
23
22
20
18
16
16
17
16
14
11
10
9
9
10
10
10
10
9
8
6
5
5
6
5
3
2
3
4
5
3
3
4
4
4
4
5
5
4
3
4
5
6
7
7
7
7
7
10
14
18
21
20
14
4
-3
-9
-16
-24
-31
-36
-48
-72
-109
-143
-163
-174
-176
-175
-167
-160
-152
-141
-127
-108
-89
-71
-55
-39
-26
-16
-7
0
5
10
14
17
19
20
21
22
24
26
26
26
27
29
30
31
32
33
33
34
34
35
35
36
37
38
40
40
42
42
43
43
43
44
46
48
49
50
50
52
52
51
51
49
49
48
49
48
46
45
43
41
37
33
30
27
24
20
17
16
15
13
10
7
5
5
6
8
7
6
4
4
6
8
9
10
11
11
12
13
15
15
14
13
14
14
12
11
10
10
10
9
9
9
9
8
7
7
7
7
6
6
6
4
3
1
0
0
0
1
2
1
-2
-4
-5
-4
-3
-3
-5
-6
-8
-9
-9
-9
-11
-13
-16
-16
-17
-18
-21
-23
-24
-26
-26
-26
-23
-21
-22
-24
-25
-26
-27
-27
-28
-28
-28
-29
-30
-30
-27
-28
-29
-31
-30
-28
-28
-28
-27
-26
-26
-26
-26
-25
-27
-29
-30
-30
-29
-28
-25
-23
-19
-14
-11
-12
-17
-24
-29
-31
-35
-42
-51
-60
-70
-92
-125
-161
-183
-196
-201
-198
-194
-186
-180
-169
-157
-141
-123
-107
-93
-80
-66
-54
-44
-37
-30
-23
-19
-16
-16
-13
-11
-8
-7
-6
-5
-5
-3
-1
0
0
0
0
1
4
6
7
7
8
9
10
11
12
13
15
16
17
17
17
19
22
25
25
25
25
27
28
28
29
29
30
29
28
28
28
26
24
23
21
18
14
10
7
4
2
1
0
-1
-4
-6
-8
-8
-8
-7
-8
-8
-8
-8
-8
-8
-8
-9
-7
-4
-2
-1
-2
-2
-2
-3
-6
-8
-9
-9
-8
-7
-7
-8
-10
-11
-11
-9
-8
-9
-12
-15
-17
-17
-17
-18
-19
-19
-19
-20
-21
-23
-25
-27
-29
-29
-29
-29
-28
-28
-28
-28
-30
-32
-33
-34
-33
-34
-35
-36
-38
-40
-42
-43
-43
-44
-45
-47
-47
-48
-48
-48
-47
-46
-45
-45
-48
-50
-53
-54
-52
-50
-50
-50
-50
-51
-52
-51
-47
-44
-44
-47
-51
-50
-51
-50
-51
-50
-50
-50
-50
-50
-48
-49
-47
-44
-38
-34
-32
-32
-37
-45
-54
-60
-67
-73
-79
-89
-101
-124
-155
-186
-205
-217
-221
-216
-211
-200
-192
-178
-164
-147
-131
-115
-99
-85
-72
-64
-56
-51
-45
-41
-38
-35
-32
-31
-31
-29
-26
-23
-20
-19
-18
-18
-18
-18
-17
-14
-12
-10
-10
-10
-9
-8
-6
-4
-3
-2
-1
-1
-1
-1
-1
0
0
2
3
5
7
8
6
4
5
7
9
9
7
4
2
2
2
0
-6
-13
-17
-18
-19
-21
-22
-23
-25
-28
-30
-31
-30
-30
-31
-35
-37
-38
-36
-33
-33
-32
-31
-30
-28
-28
-30
-32
-30
-29
-30
-30
-30
-31
-34
-35
-36
-35
-35
-35
-35
-37
-37
-41
-43
-44
-44
-44
-44
-43
-43
-43
-47
-50
-54
-54
-54
-53
-53
-56
-58
-59
-58
-57
-57
-58
-58
-57
-58
-57
-58
-56
-57
-60
-64
-66
-64
-63
-64
-68
-72
-73
-73
-70
-68
-65
-65
-67
-69
-70
-71
-72
-72
-75
-76
-76
-73
-71
-70
-69
-69
-68
-67
-67
-68
-69
-68
-68
-67
-69
-69
-69
-66
-64
-63
-64
-66
-63
-60
-54
-52
-53
-60
-70
-77
-84
-91
-101
-108
-120
-139
-170
-198
-215
-229
-229
-230
-222
-217
-209
-197
-184
-163
-147
-129
-116
-100
-86
-78
-72
-65
-57
-52
-48
-48
-46
-44
-41
-38
-36
-35
-37
-37
-35
-34
-33
-32
-29
-26
-25
-26
-26
-25
-25
-24
-21
-18
-18
-20
-22
-22
-20
-16
-13
-9
-7
-7
-8
-9
-8
-8
-8
-5
-4
-5
-8
-10
-11
-12
-15
-18
-18
-17
-16
-19
-23
-26
-30
-34
-38
-40
-42
-42
-41
-40
-42
-46
-48
-47
-46
-47
-46
-46
-45
-44
-41
-37
-36
-37
-39
-38
-36
-36
-35
-34
-32
-34
-36
-37
-38
-38
-39
-38
-38
-38
-38
-38
-37
-37
-39
-42
-41
-39
-38
-38
-38
-40
-43
-44
-44
-42
-42
-44
-44
-43
-45
-50
-53
-52
-48
-48
-48
-49
-50
-51
-54
-56
-58
-56
-56
-57
-61
-64
-64
-64
-62
-60
-58
-59
-61
-62
-64
-63
-63
-61
-61
-61
-62
-64
-65
-66
-66
-65
-61
-59
-58
-59
-58
-56
-55
-53
-54
-56
-59
-57
-55
-55
-56
-57
-52
-45
-39
-38
-41
-47
-51
-52
-57
-64
-73
-80
-89
-109
-137
-171
-189
-206
-210
-208
-199
-190
-184
-175
-170
-155
-142
-123
-107
-93
-80
-70
-59
-52
-45
-41
-37
-35
-33
-29
-26
-23
-24
-24
-22
-18
-15
-15
-15
-14
-13
-14
-14
-12
-8
-6
-4
-3
-2
-1
1
5
7
4
0
0
2
6
8
11
14
15
17
17
16
16
16
19
21
22
19
16
16
18
18
14
12
11
13
13
11
8
5
4
0
-4
-10
-12
-12
-12
-12
-12
-12
-12
-12
-13
-14
-13
-12
-11
-11
-9
-8
-9
-9
-8
-7
-9
-11
-11
-7
-1
3
4
1
-2
-5
-6
-4
-2
0
-2
-6
-10
-11
-8
-5
-3
-3
-5
-6
-5
-4
-3
-2
0
-2
-7
-11
-10
-8
-9
-11
-13
-14
-12
-11
-9
-8
-7
-9
-11
-11
-9
-8
-11
-18
-24
-26
-25
-22
-22
-23
-24
-25
-26
-26
-23
-21
-22
-24
-26
-26
-27
-28
-29
-28
-26
-23
-21
-22
-24
-28
-29
-27
-25
-23
-23
-24
-26
-24
-21
-18
-17
-19
-23
-27
-24
-16
-11
-14
-19
-19
-14
-8
-5
-6
-10
-17
-23
-28
-35
-42
-47
-51
-58
-76
-102
-131
-152
-168
-181
-177
-172
-161
-155
-147
-136
-123
-106
-91
-73
-58
-42
-30
-22
-18
-16
-12
-6
-1
3
5
7
9
11
12
11
12
15
17
19
19
19
18
20
25
30
31
31
32
34
36
35
35
37
38
37
37
38
38
38
39
42
45
47
47
46
48
50
52
50
50
51
54
57
55
53
49
48
45
43
41
39
38
37
36
33
31
28
28
29
28
27
27
28
28
28
27
25
25
26
28
28
28
27
27
27
29
29
27
24
23
25
26
25
24
25
25
25
25
25
26
24
19
17
20
23
22
16
11
10
11
12
13
15
19
21
19
17
14
11
9
9
10
11
11
11
11
9
6
3
3
4
5
6
7
8
6
3
0
-2
0
4
4
3
1
-2
-3
-1
1
3
4
4
3
3
3
2
2
3
4
4
3
4
3
3
3
4
5
6
5
4
5
7
8
8
7
8
8
9
11
11
11
9
8
11
15
18
21
22
17
12
7
0
-6
-15
-20
-26
-34
-54
-85
-112
-134
-146
-154
-152
-145
-137
-124
-115
-101
-85
-66
-48
-34
-24
-15
-4
6
15
22
27
29
30
32
34
35
38
39
39
38
40
44
46
48
48
49
51
53
54
55
55
54
57
62
66
64
60
57
58
65
71
75
74
72
70
69
72
75
78
78
78
79
79
80
76
75
73
74
73
72
70
68
66
60
57
54
54
52
51
51
51
51
51
51
49
49
48
47
47
47
49
51
53
53
54
53
52
50
48
49
49
49
49
51
52
52
52
50
48
46
45
42
36
32
36
43
44
40
36
35
35
35
35
33
31
29
29
30
31
31
28
27
26
26
26
28
29
29
29
28
28
28
27
25
25
24
23
21
18
18
18
20
21
22
22
22
21
19
18
16
17
21
24
22
19
19
21
23
23
22
20
19
18
19
23
26
27
27
26
24
24
25
26
28
34
39
41
39
34
29
27
25
21
13
1
-9
-21
-41
-68
-96
-111
-119
-116
-114
-110
-102
-93
-81
-69
-53
-36
-21
-7
5
17
26
31
35
39
44
47
49
52
51
51
50
53
54
57
61
64
65
61
62
64
68
69
71
74
76
77
75
75
75
78
80
81
81
79
80
81
84
84
86
87
89
90
90
89
87
84
82
82
85
86
86
81
78
73
70
68
67
67
63
60
59
58
56
55
54
51
46
43
45
47
49
48
47
48
48
49
49
51
53
54
52
50
51
53
56
57
58
57
57
56
55
55
55
58
58
58
56
55
56
58
58
57
55
53
53
55
56
55
54
53
51
49
48
48
48
49
51
52
51
48
44
41
41
41
41
40
39
38
35
32
30
29
31
33
35
35
35
34
33
32
30
31
29
26
22
22
24
25
25
24
24
26
27
27
26
25
25
26
28
29
27
26
26
27
27
28
30
34
39
41
42
39
34
26
19
13
8
2
-2
-7
-18
-41
-73
-100
-118
-128
-132
-128
-120
-112
-103
-92
-78
-63
-47
-31
-14
2
14
21
28
33
40
44
48
51
52
53
53
57
59
60
60
60
63
66
68
66
66
67
71
72
73
74
75
75
73
75
75
78
80
82
84
84
85
86
90
90
91
89
89
90
91
92
92
93
92
92
91
89
88
86
86
84
82
77
72
69
66
65
62
62
61
60
59
56
55
53
52
51
51
52
51
50
48
51
55
60
59
56
53
53
56
56
58
58
58
57
57
58
57
57
56
58
56
57
58
60
61
59
58
56
56
54
54
54
56
56
55
55
54
55
55
54
54
55
56
55
55
52
51
50
51
54
54
53
50
48
46
46
45
45
45
44
43
40
38
35
32
31
33
38
38
36
35
36
36
34
33
30
30
30
30
29
30
29
29
30
31
32
32
32
32
33
34
33
33
33
33
32
31
31
29
28
27
29
33
37
39
41
45
49
49
45
39
33
29
23
16
9
3
-4
-17
-40
-69
-96
-113
-124
-129
-127
-123
-117
-111
-101
-89
-74
-58
-45
-32
-18
-6
5
16
25
31
34
38
42
46
48
49
49
51
53
54
56
56
57
57
59
62
63
64
63
62
61
65
67
70
72
74
77
76
77
75
77
77
79
80
82
84
84
85
85
87
86
86
86
86
88
87
88
89
90
89
87
85
84
83
81
79
75
74
73
71
70
68
67
66
66
64
61
59
59
64
65
65
64
64
66
65
64
62
62
61
62
61
61
60
58
59
59
61
60
60
59
58
57
56
56
54
55
53
53
51
51
51
49
48
45
45
45
48
48
48
47
43
40
37
37
39
41
41
39
38
37
38
38
38
36
34
32
32
33
33
33
32
30
27
27
28
28
26
22
21
21
23
25
26
27
26
24
22
20
19
20
22
21
22
21
20
19
19
21
20
20
19
21
22
23
25
26
27
26
26
24
24
24
23
23
25
28
29
31
35
40
39
33
26
23
20
16
11
4
-3
-18
-43
-75
-102
-121
-132
-135
-130
-125
-119
-111
-101
-89
-77
-62
-48
-33
-21
-9
1
13
21
28
33
37
40
41
43
44
47
48
49
50
51
52
52
54
55
58
58
59
60
62
64
64
64
64
68
69
73
73
73
74
74
78
78
79
79
81
82
82
82
81
84
83
85
84
85
83
81
78
76
76
73
71
69
68
66
65
63
59
56
52
52
53
54
53
51
50
50
51
51
51
51
50
50
50
51
50
50
50
50
50
48
49
48
47
45
43
43
44
46
47
47
45
44
43
43
43
42
41
39
39
39
39
38
36
35
34
33
32
33
32
32
31
29
28
27
26
25
24
24
25
25
24
22
20
21
21
21
21
19
18
16
15
14
12
9
7
7
9
12
13
14
13
11
8
6
7
9
11
11
11
11
10
9
10
12
12
11
10
10
10
10
11
13
15
14
14
15
16
16
15
15
17
19
23
28
27
21
13
6
1
-4
-10
-15
-23
-43
-75
-105
-126
-141
-148
-150
-142
-135
-125
-114
-100
-83
-66
-49
-33
-16
-3
8
16
23
28
33
36
38
40
42
43
45
48
49
51
52
53
53
55
57
59
61
62
63
63
64
66
67
68
69
72
71
72
73
75
78
79
80
79
80
80
81
81
80
80
80
81
81
82
79
77
74
73
71
67
66
63
63
59
56
53
51
49
47
46
43
42
39
39
39
39
40
41
42
42
42
43
45
47
47
47
47
47
47
46
45
46
46
46
46
46
45
43
42
43
43
42
40
40
40
40
39
38
38
37
37
36
37
37
38
38
37
37
36
36
36
35
34
33
33
33
32
29
29
30
31
31
29
28
27
26
24
24
22
20
18
16
15
13
12
12
12
12
11
11
12
13
13
12
12
11
9
8
9
9
10
10
11
12
12
11
9
10
11
11
10
10
10
10
10
11
12
11
10
11
13
14
13
15
20
25
25
22
15
7
0
-5
-11
-18
-25
-32
-45
-67
-101
-129
-145
-157
-158
-160
-151
-145
-134
-122
-108
-90
-75
-59
-45
-27
-12
0
8
13
18
23
28
30
30
32
35
36
36
37
40
42
44
45
45
