33
27
23
18
16
14
11
8
6
4
3
3
3
1
0
-1
-1
-1
-3
-4
-4
-2
-1
0
2
4
7
8
6
2
-2
-4
-5
-6
-6
-5
-4
-3
-1
4
11
16
10
-8
-32
-54
-67
-82
-98
-115
-131
-138
-140
-129
-115
-96
-76
-55
-34
-20
-14
-12
-9
-5
1
7
12
15
18
20
22
23
21
20
20
22
24
26
28
31
33
32
31
29
28
27
28
29
30
31
32
33
33
34
34
34
33
32
33
32
32
31
31
30
30
29
27
25
22
20
16
14
12
11
11
11
11
9
8
7
7
7
5
5
3
1
-1
-1
-1
-2
-2
-1
0
0
0
1
2
2
3
6
10
14
16
19
23
28
33
36
38
38
37
35
35
36
38
38
37
37
37
39
38
35
30
26
24
22
19
14
9
4
1
0
0
0
-3
-6
-8
-9
-8
-7
-7
-7
-6
-4
-4
-5
-6
-8
-9
-8
-6
-5
-6
-7
-7
-8
-8
-9
-8
-5
-3
-2
0
2
5
2
-9
-28
-49
-68
-86
-107
-125
-138
-143
-144
-142
-132
-115
-91
-70
-51
-38
-28
-20
-13
-6
-1
2
4
6
8
9
9
10
12
13
14
15
17
17
18
19
21
22
24
25
25
25
24
26
28
30
28
26
26
26
28
30
31
29
26
23
22
21
21
21
20
21
22
23
22
20
17
14
13
12
13
12
10
8
5
1
-1
-2
-2
-3
-4
-5
-5
-4
-5
-6
-6
-5
-3
-1
0
-1
-1
0
1
3
3
3
4
7
9
12
18
24
28
31
32
31
31
33
35
36
34
33
31
30
30
28
27
26
26
25
23
18
12
7
3
0
-1
0
1
0
-2
-5
-6
-6
-6
-5
-4
-4
-6
-8
-8
-7
-5
-3
-2
-2
-2
-2
-2
-1
1
2
1
0
0
-1
-2
-2
0
5
7
1
-13
-31
-49
-64
-83
-98
-111
-118
-123
-121
-111
-97
-81
-65
-48
-32
-19
-12
-7
-4
0
3
5
8
11
14
16
18
19
22
23
25
24
23
23
23
24
25
26
27
31
36
37
34
30
28
27
28
30
33
35
36
35
33
32
31
31
30
29
28
28
28
28
28
26
25
21
18
16
14
13
13
12
12
12
13
12
8
4
2
1
1
2
3
4
3
3
4
5
7
11
14
16
14
10
8
10
14
17
21
25
28
31
34
39
43
48
50
51
51
50
50
49
50
50
52
51
49
46
43
41
40
38
35
32
29
25
21
16
12
8
6
5
6
8
9
10
12
15
18
19
17
13
8
6
7
8
10
10
10
11
11
10
10
10
11
12
13
13
14
14
17
16
6
-11
-30
-42
-54
-68
-84
-102
-112
-119
-114
-104
-88
-71
-52
-33
-17
-6
1
9
18
24
26
25
23
24
24
25
28
30
32
34
35
37
40
43
45
45
44
43
41
40
39
41
42
44
47
48
48
46
44
43
43
44
43
43
42
41
39
39
40
40
38
37
37
35
33
29
28
27
27
28
30
32
29
22
15
10
10
12
14
14
14
13
13
15
17
19
19
19
16
14
13
14
16
19
23
27
31
34
38
43
49
52
51
49
45
44
43
46
47
50
52
54
55
54
51
45
41
39
38
36
33
29
24
21
17
15
14
14
16
16
12
6
2
1
2
4
6
8
10
11
13
13
11
9
7
6
7
8
9
8
7
7
8
9
9
10
10
11
15
16
10
-6
-23
-38
-53
-68
-86
-98
-107
-109
-107
-104
-93
-81
-62
-45
-29
-17
-8
0
5
9
12
16
19
22
26
28
29
29
29
30
30
30
31
33
36
37
37
36
36
38
40
40
39
39
38
38
38
37
37
38
39
39
38
37
36
36
36
35
32
32
30
29
28
28
29
30
27
22
19
16
14
13
12
12
10
9
8
8
8
9
9
10
11
10
8
6
6
5
3
1
1
3
6
9
12
15
18
21
23
25
28
33
37
38
37
36
36
37
39
41
43
46
47
47
46
44
43
41
38
36
34
31
28
24
21
18
14
12
11
7
3
0
0
0
0
1
3
5
7
8
9
8
5
2
0
0
0
1
2
3
5
7
8
7
6
4
3
2
3
4
8
13
14
6
-11
-34
-57
-77
-95
-108
-120
-125
-129
-123
-111
-95
-74
-52
-29
-17
-13
-10
-6
-1
5
9
14
17
19
20
23
26
29
33
34
34
31
27
26
27
31
34
37
39
40
41
42
42
40
41
42
43
42
42
42
41
42
41
40
37
35
34
33
32
31
30
29
29
28
28
28
27
25
22
19
16
14
13
11
10
8
9
10
10
9
7
5
4
3
3
3
4
4
5
7
7
5
4
7
12
15
17
20
23
27
30
33
34
36
37
38
39
40
41
41
41
38
38
39
41
41
41
41
37
34
29
25
20
17
15
12
9
5
3
1
0
1
1
1
1
2
4
4
3
3
3
4
4
6
6
5
3
1
1
1
1
1
0
0
0
0
2
3
6
11
15
14
5
-10
-27
-41
-54
-73
-94
-114
-124
-129
-125
-114
-99
-82
-65
-48
-33
-20
-10
-2
3
8
12
15
17
20
22
23
24
25
25
25
27
29
31
32
33
34
34
34
34
34
35
37
39
40
42
43
43
42
42
40
40
39
40
39
37
35
32
32
31
32
32
32
33
32
29
25
23
22
21
21
20
18
16
15
14
16
16
17
16
13
7
2
0
1
2
3
5
7
8
10
12
14
14
14
14
16
17
17
18
19
23
28
33
38
42
45
46
45
42
40
40
40
41
40
40
40
41
40
39
39
38
37
33
27
19
13
9
6
5
4
3
3
2
2
3
4
5
4
3
1
0
0
1
2
3
5
7
7
8
8
6
3
0
-1
-1
0
1
1
2
6
13
20
17
1
-22
-44
-60
-73
-89
-103
-115
-124
-123
-118
-104
-89
-69
-47
-26
-13
-7
-5
-5
-2
3
8
11
12
14
16
17
20
22
24
27
29
32
32
31
28
27
25
25
25
27
29
31
34
37
40
39
37
35
31
29
27
26
25
26
28
29
30
31
33
33
31
25
20
17
14
12
12
12
12
10
9
9
10
12
13
12
8
3
-1
-2
-2
-2
-3
-4
-3
-4
-4
-4
-3
-1
0
2
3
4
6
9
12
15
19
23
28
33
36
38
38
35
34
32
32
31
30
30
32
35
37
35
33
32
30
26
20
14
9
6
4
1
0
-3
-5
-8
-8
-8
-7
-6
-5
-4
-4
-4
-3
-4
-5
-6
-6
-4
-3
-1
-1
-3
-5
-7
-7
-7
-8
-7
-6
-4
-3
0
6
10
6
-5
-26
-47
-66
-86
-101
-116
-124
-130
-128
-117
-103
-85
-70
-51
-36
-24
-17
-13
-11
-7
-2
1
4
6
9
11
13
16
19
21
22
21
20
18
17
17
18
20
21
22
22
22
25
28
31
31
29
26
24
23
23
23
23
24
25
27
25
22
19
15
13
12
12
12
12
12
11
11
11
9
7
4
2
0
-2
-4
-5
-5
-4
-2
-1
-1
-4
-7
-9
-10
-9
-8
-6
-5
-4
-2
0
4
7
8
7
6
7
10
14
19
24
29
32
34
34
35
34
32
30
30
30
31
31
31
30
27
26
26
25
21
16
11
6
3
0
-1
-2
-3
-3
-3
-3
-2
-5
-8
-9
-9
-7
-6
-6
-6
-4
-2
0
2
4
5
4
1
-4
-7
-7
-6
-4
-2
-1
0
1
6
10
9
-1
-19
-40
-57
-75
-93
-110
-123
-128
-128
-118
-106
-89
-71
-51
-30
-14
-5
-2
-1
1
5
11
16
19
22
24
25
25
25
26
26
27
27
28
31
33
35
37
38
37
37
37
38
39
39
40
39
39
38
39
41
43
44
43
41
38
37
35
36
35
35
35
34
34
33
32
29
27
26
24
22
21
19
18
19
21
22
23
23
21
17
12
8
7
8
9
11
13
15
16
17
16
16
16
18
20
22
25
29
34
39
44
48
48
48
46
46
45
47
49
52
54
56
58
57
56
51
45
41
40
41
39
36
31
26
21
19
17
15
13
12
10
10
11
13
14
15
14
14
15
15
14
13
12
12
14
15
15
14
14
13
13
14
15
16
17
18
18
18
21
24
25
17
0
-18
-37
-53
-73
-92
-108
-117
-119
-115
-103
-87
-68
-49
-29
-12
-1
4
9
13
18
24
31
35
35
34
32
32
34
37
40
42
44
43
44
44
46
46
46
46
46
47
47
48
47
49
50
52
54
55
53
50
48
45
45
43
43
43
43
43
43
43
42
42
41
39
37
34
31
29
28
27
26
24
23
22
21
21
21
22
22
21
18
15
14
14
15
16
18
19
19
20
18
17
17
19
22
24
27
30
36
40
46
48
50
49
48
49
49
53
54
56
53
52
49
48
47
46
45
43
42
38
35
30
24
18
14
13
12
10
8
9
9
9
8
8
8
6
5
6
7
9
10
9
8
8
9
11
13
16
17
16
13
8
6
5
6
8
11
16
21
24
15
-3
-23
-40
-53
-69
-90
-106
-118
-119
-114
-103
-88
-71
-52
-34
-18
-6
2
7
12
16
20
23
25
25
25
26
27
31
33
36
37
37
37
37
38
40
42
44
45
43
43
42
44
44
45
46
48
50
48
46
42
40
40
41
43
43
43
41
41
41
40
39
36
36
33
31
29
28
26
26
26
25
23
21
19
18
17
17
16
15
13
11
9
8
9
9
10
12
12
11
10
11
12
13
15
17
19
21
23
25
27
31
37
42
46
47
48
47
45
44
45
45
44
44
43
44
44
43
41
38
37
37
36
31
25
18
12
7
5
6
6
6
4
2
0
0
3
3
2
1
0
0
0
0
1
2
3
3
4
5
5
5
5
4
3
2
1
0
0
0
1
7
10
3
-12
-32
-45
-59
-74
-91
-109
-119
-127
-123
-115
-101
-84
-65
-44
-27
-14
-5
0
5
10
13
14
13
13
14
14
16
19
21
22
24
26
29
32
35
34
32
30
31
34
35
36
36
36
35
34
34
33
34
34
36
36
34
32
31
31
31
31
29
28
27
27
28
27
24
21
19
18
19
18
16
14
12
11
9
8
7
5
6
6
5
3
1
1
1
1
1
1
1
2
5
8
12
14
15
14
14
16
20
25
30
34
37
38
38
37
35
36
37
39
40
40
38
37
37
37
37
36
34
33
29
24
19
17
16
13
7
0
-6
-10
-11
-9
-6
-4
-4
-3
-2
-2
-1
0
0
0
0
0
0
0
0
-1
-3
-3
-2
-1
-2
-4
-6
-7
-6
-5
-1
4
9
5
-7
-27
-49
-65
-81
-95
-110
-122
-130
-132
-126
-114
-99
-83
-62
-42
-24
-12
-3
1
2
2
3
6
10
12
13
14
16
18
20
21
22
23
25
25
25
25
26
28
29
30
31
32
33
35
36
38
38
35
32
30
32
32
32
32
33
32
31
29
26
26
24
23
22
20
20
21
19
17
15
13
11
10
9
8
6
6
5
4
1
-1
-3
-3
-2
-1
-1
-3
-3
-2
-1
0
-1
-1
0
2
4
5
7
11
15
18
21
23
27
29
31
32
32
33
33
35
35
37
35
33
31
30
29
26
23
21
20
20
17
15
10
5
0
-5
-9
-11
-12
-12
-12
-9
-7
-4
-5
-7
-10
-11
-10
-10
-10
-10
-11
-12
-12
-10
-9
-7
-5
-4
-4
-7
-12
-16
-16
-15
-14
-10
-6
-3
-8
-21
-37
-50
-62
-77
-102
-123
-138
-142
-139
-131
-115
-98
-79
-62
-46
-33
-22
-14
-7
-2
1
2
4
8
9
9
7
7
8
9
11
13
15
16
17
19
22
23
24
24
23
22
20
22
24
27
29
29
28
27
26
27
27
26
25
24
24
24
25
26
25
22
19
16
13
12
12
11
10
11
12
12
9
5
2
0
0
-1
-3
-4
-5
-4
-3
-2
0
0
0
0
-2
-6
-8
-7
-4
0
2
5
5
7
10
13
17
21
26
30
33
33
33
33
33
33
33
33
34
36
35
34
30
24
21
20
20
18
16
11
6
2
0
-3
-6
-8
-8
-10
-11
-12
-11
-10
-9
-7
-6
-3
-1
1
0
-6
-14
-17
-16
-15
-13
-12
-10
-9
-8
-6
-4
-1
0
-1
-2
-3
-1
1
-1
-14
-33
-53
-68
-83
-100
-113
-125
-131
-135
-128
-115
-100
-83
-67
-49
-33
-20
-12
-7
-2
1
6
9
11
13
13
13
13
14
16
17
20
24
29
31
29
24
20
20
21
23
23
25
27
29
30
32
35
36
36
34
32
30
28
28
28
28
27
25
24
24
24
24
24
22
21
21
21
20
18
16
12
9
7
6
6
7
7
6
4
3
2
1
1
2
2
2
1
0
0
0
0
3
4
6
8
11
13
16
19
22
25
26
29
33
36
38
39
39
37
37
37
38
39
39
38
37
36
34
33
32
30
29
25
20
15
10
6
4
3
0
-1
-1
-2
-1
0
0
0
1
3
4
3
0
0
1
2
2
2
2
2
1
0
0
0
0
0
0
2
3
4
5
8
9
1
-16
-36
-51
-64
-76
-91
-103
-111
-116
-114
-110
-99
-88
-72
-54
-38
-25
-16
-8
-1
4
9
13
15
16
16
16
17
19
20
22
24
25
27
28
31
33
34
35
33
30
26
26
27
29
31
32
34
34
35
35
35
35
35
35
34
33
30
28
25
24
24
25
25
25
24
22
21
21
22
21
16
11
6
4
3
3
2
2
3
3
2
1
1
1
2
2
1
-1
-2
-2
-1
0
2
4
7
10
14
18
20
22
25
28
31
34
35
36
34
33
33
34
36
38
38
37
36
35
35
34
31
26
23
22
19
16
11
7
3
1
0
-2
-4
-6
-8
-10
-12
-12
-11
-9
-8
-5
-4
-2
0
2
2
-2
-7
-9
-9
-8
-9
-8
-7
-5
-4
-2
-1
0
3
7
10
6
-6
-26
-46
-60
-73
-88
-105
-119
-127
-128
-121
-110
-93
-76
-57
-41
-28
-19
-12
-7
-3
1
4
6
9
12
15
18
20
24
28
29
27
21
18
16
18
20
23
24
26
28
29
31
33
36
37
39
38
35
31
29
28
27
28
28
29
29
29
29
29
30
31
32
29
26
21
17
15
14
15
14
14
13
12
10
9
9
10
10
9
6
3
1
0
0
1
3
4
7
9
10
11
10
8
9
10
13
16
20
25
30
35
38
43
45
45
42
40
40
40
42
41
43
42
44
46
46
46
43
40
35
30
26
21
18
15
11
7
4
2
2
3
4
6
8
7
5
2
1
0
0
2
4
7
7
7
6
6
5
4
4
5
6
7
7
7
7
8
10
12
17
19
15
1
-19
-37
-51
-63
-79
-96
-107
-115
-114
-109
-95
-76
-59
-41
-26
-13
-4
3
9
14
19
23
26
30
31
31
31
30
31
31
34
36
38
40
42
44
45
46
46
48
49
51
51
50
49
50
52
53
52
51
51
50
50
50
52
55
55
54
50
47
44
43
44
44
45
43
40
37
36
35
35
35
33
32
31
29
27
25
25
23
23
22
22
20
20
21
22
24
26
27
27
27
26
26
28
29
32
34
39
43
50
56
60
58
55
52
51
53
54
56
57
58
59
61
64
64
63
57
52
48
46
44
42
39
36
33
29
25
20
17
15
14
13
14
13
12
12
14
17
20
21
20
17
16
15
15
16
16
18
19
20
19
17
16
16
19
20
22
21
21
24
28
28
18
2
-17
-34
-47
-64
-80
-95
-105
-109
-110
-100
-86
-67
-48
-30
-14
-3
5
12
19
24
26
28
30
31
33
34
35
36
37
38
39
40
42
46
47
50
52
52
51
48
47
48
51
54
56
57
56
54
51
53
56
57
54
51
49
48
48
47
47
47
48
46
46
44
42
43
42
42
39
35
33
30
27
24
23
22
22
22
22
22
21
20
17
15
14
14
14
14
14
15
16
17
18
20
23
25
25
26
28
32
35
39
42
45
48
49
48
46
46
46
47
48
48
49
49
50
48
47
44
42
39
35
31
25
23
19
16
12
9
7
6
5
3
2
2
3
6
8
9
7
5
4
4
6
7
8
7
6
6
6
6
6
6
5
5
6
8
10
10
10
12
15
16
7
-8
-26
-42
-57
-73
-93
-109
-120
-124
-119
-110
-96
-81
-61
-40
-21
-8
-1
2
5
8
11
15
19
22
24
25
23
24
24
27
29
31
35
36
37
35
35
35
37
39
39
41
41
41
40
39
40
40
42
42
43
42
43
43
42
40
38
36
34
33
32
33
31
30
29
30
30
26
22
18
16
16
17
17
16
13
10
8
6
5
4
4
5
6
8
8
8
8
8
7
7
9
9
11
11
11
12
14
18
20
25
27
31
33
34
35
38
41
42
44
45
45
44
43
45
46
45
43
40
37
35
33
30
26
22
20
16
12
6
2
0
0
1
3
3
1
0
-1
-1
0
0
0
0
1
1
1
1
2
2
1
0
-3
-5
-5
-6
-5
-4
-2
-1
2
5
11
15
10
-7
-28
-48
-61
-76
-91
-109
-121
-126
-125
-119
-111
-98
-84
-64
-46
-31
-20
-11
-5
0
4
7
9
12
14
16
17
18
18
18
18
18
20
23
26
27
27
27
26
27
28
28
29
29
30
32
33
31
30
30
31
33
33
32
31
31
31
31
30
28
26
23
22
21
20
18
16
15
14
13
12
12
12
11
9
7
4
0
-1
0
1
2
1
0
-1
-1
0
2
4
4
1
-1
0
3
7
9
11
13
16
22
26
31
34
37
37
39
39
39
37
34
33
32
35
36
37
35
32
28
25
23
19
14
10
6
3
0
-2
-4
-4
-3
-3
-3
-5
-8
-9
-8
-8
-8
-8
-7
-6
-7
-8
-9
-10
-11
-11
-10
-10
-11
-12
-11
-10
-9
-7
-6
-6
-8
-9
-5
0
-3
-18
-37
-56
-68
-83
-100
-116
-130
-133
-133
-123
-111
-98
-84
-69
-51
-36
-23
-14
-7
-3
0
2
3
3
3
4
5
7
8
9
11
15
16
17
18
18
17
17
16
17
18
19
22
23
24
24
22
21
18
16
18
20
21
21
22
19
16
14
13
13
14
15
14
12
9
9
9
10
9
6
4
0
-1
-2
-3
-4
-6
-6
-7
-8
-8
-8
-7
-7
-7
-9
-10
-10
-10
-9
-9
-7
-5
-3
-1
0
0
1
4
8
13
18
23
26
27
27
25
24
24
25
27
28
28
29
30
33
33
29
23
18
14
11
7
3
0
-3
-7
-8
-8
-8
-10
-14
-17
-18
-18
-18
-18
-18
-17
-17
-18
-17
-15
-11
-7
-6
-7
-10
-14
-18
-19
-19
-16
-16
-16
-16
-15
-13
-12
-8
-2
2
-1
-17
-39
-61
-77
-94
-110
-126
-135
-138
-136
-126
-114
-99
-87
-70
-51
-36
-25
-19
-14
-10
-4
0
3
5
8
8
8
8
9
11
11
12
13
15
16
19
21
22
21
19
17
16
18
20
23
23
24
27
29
31
29
26
22
21
21
23
23
21
19
18
18
17
16
16
15
16
17
20
21
21
16
8
0
-3
-3
-1
0
0
0
0
0
2
3
2
0
-1
-1
0
0
0
0
0
3
6
9
11
12
13
14
18
22
28
32
35
37
37
38
39
41
40
40
39
40
40
39
40
37
36
34
33
33
33
35
34
29
17
5
-3
-5
-4
-3
-2
-1
0
1
3
4
4
2
0
-1
-2
-2
-3
-3
-1
1
4
8
10
9
6
1
-3
-5
-5
-4
-1
1
3
6
10
10
0
-16
-37
-53
-68
-85
-103
-117
-124
-126
-118
-105
-90
-76
-59
-42
-27
-14
-4
1
5
7
11
14
17
21
24
26
27
27
27
28
29
30
32
33
35
35
36
35
35
35
37
39
42
45
45
46
43
42
41
42
43
43
43
41
41
41
41
41
39
37
34
33
33
33
33
34
34
33
31
28
25
22
21
19
17
16
16
15
15
13
13
14
15
16
18
18
17
16
17
19
21
24
24
25
23
22
22
26
30
36
43
46
49
49
50
50
49
50
49
50
50
52
51
52
51
50
48
44
39
35
32
29
25
20
15
12
8
8
8
9
10
11
10
8
7
6
7
7
8
10
11
11
10
10
10
8
7
6
7
7
7
8
9
10
10
11
13
14
18
23
22
10
-9
-30
-45
-58
-74
-91
-107
-113
-117
-111
-103
-91
-78
-63
-43
-25
-12
-4
1
7
13
19
23
25
26
24
24
24
25
28
30
32
33
34
35
37
39
41
42
41
40
39
40
40
40
40
41
43
45
47
48
46
42
38
35
36
39
41
43
42
41
40
39
38
35
31
28
27
27
26
24
22
22
21
21
21
21
20
17
14
11
11
12
13
13
14
14
14
15
15
15
15
16
17
19
20
20
22
23
25
27
31
35
39
43
44
45
46
47
48
49
49
48
48
49
50
51
50
46
43
39
38
37
36
35
30
24
16
12
9
7
5
5
6
6
6
6
7
9
10
8
7
7
7
7
8
7
7
8
8
7
5
6
6
5
2
2
3
5
7
7
9
12
13
5
-10
-28
-44
-57
-74
-90
-103
-113
-115
-116
-107
-97
-80
-62
-43
-26
-14
-4
3
8
10
12
14
17
21
24
27
28
28
27
26
27
30
34
35
35
34
34
36
36
37
38
38
39
40
40
41
41
42
41
41
39
38
37
37
39
39
40
38
36
35
35
33
30
28
27
28
27
26
25
26
27
25
22
19
17
16
15
15
13
12
11
12
12
12
11
11
10
10
11
11
13
14
17
19
22
25
27
30
34
40
44
47
48
49
48
48
49
51
52
51
51
49
49
49
50
51
51
52
52
48
41
32
25
21
20
18
17
15
16
17
16
15
13
12
11
11
12
11
10
10
12
14
16
16
14
12
12
15
18
19
19
18
18
15
13
12
12
14
18
23
24
15
-2
-22
-38
-52
-67
-83
-97
-107
-108
-104
-96
-83
-68
-46
-25
-7
2
7
9
12
16
20
23
25
27
28
29
31
34
36
37
37
37
38
41
44
44
43
41
40
42
46
49
50
51
50
50
50
53
55
54
53
49
46
43
42
41
40
39
38
37
36
36
35
35
34
33
33
33
33
33
33
30
27
23
20
18
16
15
14
16
16
17
20
22
23
23
23
22
21
20
20
19
18
17
17
18
21
24
29
34
41
46
50
50
49
47
47
48
50
52
52
54
53
54
53
51
49
46
44
43
43
41
36
27
18
13
10
9
9
8
8
7
8
8
8
8
9
9
9
8
7
7
8
8
7
7
8
10
13
15
17
18
15
9
3
-1
0
2
5
9
15
15
7
-6
-22
-33
-43
-56
-73
-89
-101
-105
-103
-94
-81
-65
-49
-31
-16
-7
-1
2
6
8
12
15
17
18
18
18
20
22
22
23
24
25
26
28
30
33
35
36
36
36
38
40
41
41
38
35
31
29
28
30
32
32
32
31
31
30
31
31
31
30
29
27
25
24
22
20
17
15
15
14
12
11
9
7
4
2
1
1
2
2
1
-2
-4
-5
-3
-2
-1
-1
0
0
-1
-2
-3
-5
-6
-3
0
1
4
7
11
15
18
20
22
24
25
25
26
28
30
30
27
24
20
19
18
17
16
15
14
11
6
1
-3
-8
-12
-16
-18
-20
-22
-24
-25
-24
-22
-21
-21
-21
-20
-20
-22
-24
-25
-24
-24
-24
-24
-25
-25
-26
-26
-26
-27
-25
-23
-21
-23
-26
-28
-25
-16
-9
-11
-24
-42
-62
-78
-94
-111
-127
-144
-152
-154
-144
-130
-114
-99
-84
-67
-51
-35
-25
-22
-22
-23
-24
-22
-17
-13
-8
-6
-6
-8
-10
-10
-8
-4
-2
-2
-2
-2
-1
0
1
4
6
6
3
1
0
0
2
5
9
12
12
8
2
-2
-4
-4
-2
0
0
-1
-3
-4
-7
-10
-13
-13
-12
-11
-12
-14
-16
-18
-19
-21
-22
-22
-24
-26
-28
-29
-30
-31
-30
-27
-25
-24
-26
-29
-30
-30
-27
-25
-22
-21
-21
-23
-23
-21
-17
-13
-8
-3
0
2
4
5
6
7
8
9
10
10
10
10
9
8
7
4
3
4
4
1
-3
-7
-11
-14
-17
-21
-25
-28
-29
-29
-27
-25
-25
-24
-23
-23
-22
-22
-23
-24
-23
-22
-21
-20
-21
-24
-28
-29
-27
-24
-23
-24
-24
-24
-22
-21
-19
-15
-9
-5
-11
-27
-48
-65
-83
-99
-116
-128
-135
-138
-132
-124
-109
-96
-79
-63
-48
-35
-26
-21
-19
-15
-12
-9
-7
-6
-4
-2
0
2
4
5
6
7
8
8
8
9
11
12
15
17
16
14
12
12
14
17
19
20
21
19
18
16
15
14
12
10
9
9
9
10
11
12
12
11
8
3
0
0
1
3
4
1
-3
-5
-5
-6
-7
-8
-8
-7
-4
-3
-3
-5
-7
-6
-5
-4
-4
-4
-3
-2
0
3
5
7
9
12
16
21
26
30
34
35
34
33
34
36
38
39
39
40
39
38
36
34
33
30
28
25
21
17
13
10
6
2
0
-1
-1
-2
-2
-2
-1
0
0
0
-2
-2
-1
0
0
0
1
2
2
2
3
2
0
0
1
4
6
7
6
5
4
6
11
17
15
3
-17
-39
-57
-73
-88
-98
-106
-111
-113
-104
-91
-76
-59
-41
-23
-8
2
10
15
15
13
15
17
19
20
22
24
27
31
36
40
42
40
38
35
32
32
34
38
41
45
49
51
50
45
41
39
41
44
48
50
51
51
48
46
41
39
39
41
43
42
40
37
37
39
42
42
40
35
30
27
24
24
23
24
24
23
22
21
20
19
19
18
18
19
21
24
24
23
20
20
22
26
29
33
33
32
33
36
40
44
46
50
53
57
57
58
58
60
61
61
61
58
56
55
56
56
55
51
45
41
35
31
28
24
21
17
15
12
12
13
16
16
13
11
11
12
12
12
11
13
14
14
12
11
11
13
16
19
21
21
18
15
13
12
12
13
14
18
21
21
11
-6
-26
-43
-57
-72
-90
-106
-113
-111
-101
-88
-72
-56
-35
-16
-1
8
13
15
16
17
19
23
25
27
29
33
34
33
30
29
31
32
35
35
36
37
40
43
46
47
45
44
43
45
46
48
49
48
47
44
43
42
43
44
45
47
47
45
42
41
39
39
39
39
38
35
31
27
25
24
24
24
24
22
20
22
24
23
19
15
13
13
14
15
15
15
15
15
17
18
19
22
24
27
31
35
38
39
39
39
43
47
52
54
56
56
53
53
53
57
57
59
60
60
57
51
48
45
46
45
43
39
34
30
26
24
22
20
19
19
21
21
21
17
12
8
7
10
13
16
18
18
15
12
10
10
13
17
19
19
16
14
13
13
14
15
16
18
20
26
28
22
6
-12
-30
-44
-61
-77
-93
-102
-106
-102
-91
-77
-60
-44
-26
-11
0
9
16
19
20
22
24
26
30
33
35
37
36
37
36
38
38
39
38
35
35
36
38
40
43
45
47
49
51
53
51
50
48
50
52
53
53
50
47
42
37
33
33
34
36
38
38
36
33
30
29
29
27
25
23
21
18
15
14
16
16
15
13
12
12
13
13
13
14
14
16
18
18
13
8
5
5
7
10
12
14
17
21
25
28
28
31
34
40
40
40
40
40
41
44
47
49
50
48
47
45
44
42
41
42
43
41
35
28
23
19
17
14
12
8
4
1
0
2
6
10
11
8
6
5
7
9
10
10
10
8
5
4
2
1
1
1
2
5
8
10
9
7
5
4
7
14
18
13
0
-17
-34
-50
-66
-84
-95
-105
-108
-110
-103
-90
-78
-64
-49
-32
-19
-10
-3
0
4
6
9
13
16
18
20
22
26
27
26
25
25
24
24
24
26
27
28
30
32
36
39
40
38
35
34
34
35
36
36
36
34
32
30
27
27
27
27
25
23
23
25
27
27
26
24
20
16
13
11
11
11
13
13
11
7
2
-1
-2
-1
-1
0
1
1
-1
-7
-10
-9
-5
-1
0
-1
-4
-5
-5
-2
4
8
10
10
9
7
6
8
12
19
26
29
30
28
27
26
26
25
24
25
27
30
30
27
23
17
13
10
9
9
8
5
-1
-6
-8
-9
-8
-7
-6
-6
-8
-8
-8
-6
-4
-3
-2
-1
-4
-8
-9
-7
-5
-3
-2
-3
-5
-8
-11
-10
-9
-8
-8
-8
-8
-6
0
4
2
-8
-26
-45
-61
-76
-93
-106
-116
-119
-120
-112
-98
-82
-67
-54
-40
-28
-18
-12
-7
-4
-1
0
1
3
7
11
14
15
15
15
16
18
21
24
25
25
24
21
22
24
26
27
28
29
30
31
32
34
33
28
24
23
25
27
29
29
29
29
30
31
30
27
22
17
14
13
14
15
15
15
16
16
16
13
9
7
6
7
6
5
4
4
4
6
8
9
9
10
11
10
8
5
5
5
7
9
13
17
22
26
31
36
40
42
41
39
39
41
43
43
42
43
44
47
47
46
42
38
36
34
34
32
28
23
18
15
12
9
7
5
5
5
6
7
6
5
4
2
0
0
0
2
4
7
8
9
8
6
3
1
1
2
4
4
2
1
3
5
8
13
16
13
1
-15
-33
-49
-63
-79
-92
-102
-108
-109
-103
-90
-76
-63
-50
-36
-22
-11
-4
0
5
9
11
12
13
13
14
15
16
18
20
22
23
25
25
24
23
23
24
26
29
31
33
32
32
29
27
27
29
32
33
31
28
27
27
28
28
28
27
25
25
24
24
22
21
20
20
21
21
21
18
17
16
16
16
16
14
10
8
7
8
10
12
12
10
7
6
7
11
14
15
15
14
16
19
22
24
26
27
28
30
35
40
45
46
46
47
48
51
51
51
49
47
46
47
50
51
53
51
49
43
38
32
26
24
23
21
17
13
9
6
6
7
8
11
14
17
17
15
11
11
12
14
14
14
14
14
14
14
13
13
16
19
20
20
18
15
13
12
12
17
22
22
11
-7
-28
-44
-60
-73
-87
-96
-99
-98
-91
-80
-65
-50
-32
-15
-3
3
7
10
14
20
25
27
27
27
28
31
33
35
34
34
33
36
38
38
37
36
37
39
41
42
42
42
41
41
39
40
39
39
39
40
41
43
44
42
41
38
37
35
35
35
36
35
32
29
28
27
24
20
17
14
14
15
16
14
12
11
9
8
7
7
8
10
12
15
16
14
11
9
8
9
11
13
13
15
16
18
19
22
27
30
32
34
39
43
48
50
50
49
47
45
40
39
39
43
43
41
37
34
33
30
26
21
16
10
4
1
1
3
3
2
1
0
-1
-3
-6
-8
-9
-7
-3
0
1
0
-2
-3
-3
-1
-1
-1
-2
-3
-4
-4
-3
-2
0
0
0
0
2
6
5
-3
-17
-32
-44
-58
-76
-95
-112
-117
-117
-109
-99
-87
-72
-57
-39
-26
-17
-12
-7
-2
2
7
9
11
13
15
18
20
20
20
19
19
20
22
24
26
27
28
28
28
27
26
28
30
32
32
32
32
32
33
32
29
25
24
25
26
29
28
27
25
24
23
23
24
24
26
24
21
16
13
11
10
7
3
2
2
3
3
1
-1
-1
0
0
0
-1
-2
-1
0
3
4
2
-1
-2
1
6
10
12
12
12
14
18
23
25
27
28
30
33
35
37
37
38
37
35
32
31
32
32
32
30
27
23
17
11
4
0
-5
-9
-11
-10
-10
-11
-13
-12
-13
-14
-15
-16
-15
-14
-13
-12
-12
-12
-13
-12
-11
-11
-12
-12
-11
-10
-7
-5
-4
-5
-8
-10
-10
-8
-5
0
1
-3
-14
-30
-46
-57
-71
-89
-109
-121
-126
-128
-122
-113
-95
-79
-61
-45
-34
-25
-18
-11
-7
-4
-2
1
5
7
8
10
11
12
10
8
8
10
13
16
18
20
22
24
26
26
24
22
21
21
23
26
29
32
32
28
24
23
24
25
25
26
26
26
24
21
19
18
17
16
16
15
16
15
13
8
4
3
4
6
6
5
4
4
4
2
0
0
0
-1
-1
-1
0
1
3
4
5
6
6
7
7
8
11
14
17
20
23
26
30
32
35
37
38
38
38
39
41
40
39
38
40
40
41
38
36
33
31
29
27
25
21
16
11
9
8
7
5
1
0
0
1
1
1
3
5
7
8
9
8
6
5
4
5
6
7
8
9
10
10
10
8
7
8
12
18
23
25
24
17
4
-12
-28
-42
-57
-74
-91
-104
-111
-112
-105
-93
-78
-61
-47
-32
-19
-8
-1
5
10
14
17
19
22
24
27
27
27
28
31
33
32
29
26
26
28
33
36
38
38
38
37
36
37
39
42
42
40
38
36
36
38
41
41
42
42
40
36
32
31
31
32
31
30
27
24
21
20
21
23
26
26
22
15
10
9
10
14
16
14
9
6
4
3
6
10
13
16
18
18
16
14
13
14
18
23
27
30
32
34
39
42
46
48
50
51
53
55
56
58
57
57
56
57
57
57
57
55
56
56
58
55
49
40
31
25
24
28
31
30
25
17
12
9
10
14
19
21
22
20
18
18
20
24
27
28
27
22
16
10
5
5
8
13
17
20
18
16
16
21
27
27
17
0
-17
-31
-44
-61
-83
-99
-110
-112
-109
-100
-86
-71
-51
-30
-14
-3
2
5
10
14
18
20
23
26
30
33
33
31
28
25
25
27
30
33
36
36
36
36
37
38
40
40
41
42
44
44
43
41
40
40
40
40
40
38
36
34
34
34
33
30
27
26
26
27
28
28
28
25
19
14
12
10
10
9
9
8
8
8
7
5
4
4
3
2
1
1
1
1
2
2
3
6
9
11
10
10
12
17
22
28
35
41
44
44
43
41
40
39
42
47
48
44
39
37
37
38
35
33
32
30
28
25
22
17
12
7
2
0
-3
-4
-4
-5
-5
-4
-2
0
0
0
0
1
2
3
1
0
0
0
0
0
0
0
2
3
4
3
2
1
1
2
5
10
16
17
7
-10
-29
-47
-60
-75
-91
-106
-119
-122
-121
-108
-94
-76
-59
-43
-31
-21
-11
-4
1
6
11
15
17
19
21
22
22
21
20
20
21
21
22
25
27
29
30
33
35
36
36
33
32
32
32
33
34
35
35
34
32
32
32
32
33
33
32
31
30
29
26
23
22
22
21
20
19
19
18
15
14
12
12
12
13
10
7
5
5
5
4
4
3
2
2
2
3
6
8
7
5
3
5
7
9
13
16
21
26
31
35
38
39
40
40
40
41
41
42
42
42
42
43
44
45
44
40
38
35
32
27
22
18
15
12
10
7
3
1
0
-1
-2
-2
-3
-4
-3
-1
1
2
1
1
1
1
1
2
4
6
8
6
3
2
0
-1
-2
-1
-1
-2
0
3
10
15
10
-4
-23
-40
-55
-70
-88
-104
-117
-120
-119
-111
-97
-82
-63
-45
-26
-13
-7
-4
-2
1
6
8
11
15
19
21
22
23
24
24
26
28
29
30
32
32
33
34
36
40
42
40
36
34
34
34
34
36
39
41
42
39
36
33
32
30
30
31
30
31
31
32
31
28
26
24
24
24
23
20
18
16
16
17
17
17
14
10
6
5
5
5
5
5
6
8
10
9
6
5
6
6
7
10
13
17
19
20
21
22
25
29
35
39
41
41
40
38
38
40
41
43
43
43
43
42
41
39
38
37
37
35
31
24
16
9
5
3
3
3
2
1
-1
-3
-3
0
3
4
4
3
2
4
6
6
5
2
0
0
0
1
0
0
1
2
3
3
3
4
5
10
18
22
16
1
-19
-37
-53
-69
-86
-100
-110
-114
-115
-109
-97
-83
-68
-52
-35
-20
-9
-3
1
4
9
12
14
16
17
17
15
15
17
21
24
25
26
26
24
22
21
22
24
27
30
29
28
26
26
28
30
31
30
29
28
28
28
30
33
31
28
24
20
19
18
18
17
16
16
16
16
14
12
10
8
7
8
8
6
1
-3
-6
-6
-6
-6
-4
-5
-7
-9
-9
-8
-6
-4
-2
-2
-3
-3
-1
2
7
11
13
13
12
12
14
18
22
26
28
29
30
31
32
32
33
33
33
32
32
31
31
30
27
25
21
18
12
7
3
0
-3
-4
-6
-7
-7
-6
-8
-11
-12
-11
-10
-9
-9
-9
-9
-10
-11
-9
-8
-6
-5
-5
-6
-7
-8
-8
-7
-7
-7
-7
-7
-6
-5
-2
2
3
-5
-22
-42
-55
-66
-80
-97
-115
-124
-131
-127
-115
-97
-77
-59
-44
-34
-25
-19
-11
-4
0
1
1
3
5
8
10
11
13
15
15
16
18
20
23
25
24
22
20
21
23
23
23
22
23
24
25
25
25
25
25
27
27
26
22
20
18
19
19
19
21
23
22
19
16
15
14
13
11
10
9
8
9
7
6
6
8
8
5
1
-2
-2
-2
-1
0
3
5
5
4
1
0
0
1
4
9
14
19
23
24
24
25
30
34
36
36
36
39
40
41
39
37
36
36
37
35
34
32
33
32
29
24
19
15
10
8
6
6
7
8
6
2
-2
-4
-3
0
2
2
0
-1
-1
-3
-4
-4
-1
2
5
4
1
-1
-1
-1
-1
0
2
4
3
3
5
8
14
16
9
-6
-23
-38
-53
-66
-83
-96
-107
-113
-117
-115
-101
-84
-63
-42
-24
-13
-7
-3
0
6
11
17
22
24
24
23
22
22
23
24
26
28
30
32
32
33
36
38
38
37
37
38
38
38
36
35
36
38
41
42
41
39
37
35
34
33
34
35
35
34
31
30
30
30
32
32
30
25
22
19
18
16
16
16
16
15
13
13
13
11
8
8
9
11
10
8
7
8
10
12
14
16
17
18
19
22
25
28
32
37
42
44
45
44
43
43
46
49
51
52
51
49
48
49
51
54
56
57
56
50
43
35
30
28
25
21
17
12
7
6
8
9
11
13
17
18
17
13
12
12
13
15
15
16
16
16
16
17
19
20
22
23
24
24
24
23
24
25
30
38
43
42
30
15
0
-13
-23
-37
-53
-65
-72
-71
-68
-58
-46
-30
-13
2
16
24
29
32
37
42
48
52
56
58
57
55
54
55
57
60
61
62
61
60
59
60
63
65
68
69
70
69
68
66
65
67
67
69
67
65
61
59
58
57
56
54
52
48
47
45
44
43
41
41
38
37
34
33
32
31
30
28
26
23
22
22
23
23
21
18
14
12
10
11
12
13
14
14
14
14
15
16
17
17
17
17
15
14
14
17
22
27
33
34
32
28
27
28
29
31
33
36
39
44
46
46
45
43
41
36
31
25
21
17
14
12
13
14
14
15
14
13
12
12
11
7
3
-1
-3
-2
0
4
5
3
0
-3
-4
-4
-3
-2
0
0
0
-2
-5
-7
-7
-4
0
7
13
12
0
-19
-38
-50
-58
-71
-89
-108
-125
-132
-129
-114
-97
-80
-64
-47
-31
-18
-8
1
9
13
13
11
11
14
19
22
25
25
23
19
17
18
21
27
32
37
39
41
40
34
28
26
32
40
44
42
39
38
37
36
33
32
32
32
32
32
31
29
28
29
29
26
21
19
20
24
27
32
35
37
32
24
21
23
28
27
21
11
4
1
1
3
4
6
8
11
12
11
7
4
5
7
9
9
8
9
10
11
12
12
13
15
19
24
28
28
27
23
21
20
20
18
17
19
23
24
23
24
23
21
17
15
14
15
16
16
12
3
-9
-20
-27
-28
-25
-21
-20
-21
-20
-19
-20
-23
-26
-28
-27
-24
-21
-17
-16
-20
-24
-27
-29
-30
-31
-30
-29
-26
-23
-23
-25
-25
-24
-19
-11
-5
-8
-21
-41
-65
-85
-104
-120
-132
-141
-145
-150
-147
-142
-128
-112
-95
-78
-64
-49
-40
-33
-30
-29
-30
-30
-29
-29
-26
-21
-14
-9
-6
-6
-8
-10
-9
-7
-4
-1
1
2
0
-1
-2
-4
-4
-3
-1
-1
-3
-5
-4
-2
-2
-2
-2
-1
0
0
0
-3
-6
-8
-9
-11
-14
-16
-17
-19
-21
-22
-25
-27
-29
-29
-29
-29
-32
-35
-33
-29
-26
-26
-28
-30
-33
-32
-29
-27
-29
-30
-29
-27
-26
-28
-26
-22
-17
-12
-7
-4
-3
-4
-3
0
6
11
14
16
18
20
20
21
20
21
21
23
23
20
14
10
8
7
7
6
6
3
-2
-9
-14
-17
-18
-15
-12
-12
-15
-18
-17
-15
-13
-11
-10
-13
-16
-18
-19
-20
-21
-19
-16
-14
-15
-17
-19
-19
-19
-19
-18
-17
-19
-20
-17
-11
-7
-15
-36
-64
-84
-95
-107
-118
-131
-134
-138
-140
-138
-132
-116
-100
-78
-61
-45
-34
-27
-22
-18
-15
-12
-8
-3
0
4
4
2
1
0
0
2
4
7
8
6
3
1
2
4
7
11
12
10
9
10
12
14
17
18
19
21
19
17
14
11
8
8
9
9
8
6
4
3
1
0
0
0
-1
-4
-7
-8
-9
-10
-9
-7
-2
1
3
-1
-10
-16
-18
-15
-10
-7
-8
-10
-10
-10
-8
-6
-3
0
4
7
10
12
17
23
29
33
37
39
39
40
40
41
42
43
43
44
47
48
45
37
29
26
25
24
21
16
12
10
8
7
6
4
3
1
0
-1
0
3
5
6
6
5
4
4
5
6
7
8
9
10
11
11
7
3
1
3
3
3
2
2
2
3
6
9
6
-8
-29
-46
-59
-71
-86
-99
-108
-112
-110
-104
-89
-71
-51
-32
-17
-3
7
16
20
22
23
25
30
34
36
38
38
37
39
41
44
46
49
50
52
52
55
58
60
61
60
61
60
60
60
60
62
63
66
65
65
62
60
59
57
59
59
61
60
60
59
59
59
59
59
57
56
54
53
51
50
47
44
41
38
35
32
30
30
31
31
30
29
27
27
26
26
27
28
30
30
30
29
31
33
37
41
45
49
52
56
58
60
60
60
61
61
63
65
66
66
67
67
67
68
65
63
59
55
49
43
40
35
32
28
24
22
20
19
17
16
15
14
13
12
12
12
13
16
19
21
24
25
26
27
27
28
28
29
29
28
26
25
23
22
22
24
29
35
42
41
32
15
-1
-16
-31
-48
-65
-78
-85
-87
-86
-80
-70
-56
-41
-25
-11
-1
5
10
14
18
23
27
29
28
29
30
33
35
39
42
43
42
40
40
41
45
48
51
51
52
52
51
51
49
49
49
50
52
52
52
51
51
51
51
50
50
48
47
46
45
44
43
44
43
42
41
39
37
36
37
36
35
33
31
29
30
30
28
24
20
18
18
19
19
20
21
21
22
23
24
24
25
25
25
28
31
35
37
37
39
41
46
49
52
54
56
56
55
54
53
54
53
56
57
59
58
53
49
45
42
37
34
31
28
23
19
17
15
15
15
15
14
15
15
16
15
14
13
14
15
15
15
15
16
15
15
14
12
12
12
13
14
14
14
15
16
17
16
18
22
26
24
14
1
-11
-20
-32
-46
-60
-72
-77
-81
-81
-78
-72
-60
-44
-26
-12
-3
2
6
9
12
15
17
19
21
22
25
26
27
27
28
30
31
34
36
37
38
37
37
37
40
41
43
43
43
43
44
43
42
41
39
39
38
36
34
33
33
33
33
33
32
31
31
30
28
27
26
25
24
22
22
20
18
17
17
17
17
19
19
19
16
15
16
16
15
13
12
9
8
8
11
13
16
18
19
21
22
24
28
33
38
43
46
48
48
48
50
52
54
52
50
47
46
47
48
48
45
45
43
41
36
30
24
20
17
16
17
20
20
16
10
4
2
3
4
4
3
2
2
3
3
5
6
7
7
7
6
5
5
6
6
6
8
8
8
6
5
4
6
11
17
18
8
-9
-25
-37
-45
-57
-68
-79
-86
-89
-90
-83
-73
-57
-36
-15
1
6
6
5
6
10
16
19
20
19
18
16
18
20
22
24
25
27
28
28
28
29
30
32
33
34
34
34
33
33
34
36
36
35
34
34
33
32
31
31
30
29
30
28
28
27
26
25
24
24
23
22
20
20
18
18
17
16
15
14
12
10
8
6
5
4
3
3
3
4
4
4
3
3
5
7
9
10
11
12
14
18
21
26
31
35
37
39
39
39
39
40
42
42
41
38
38
37
36
34
31
29
26
23
18
14
9
5
2
0
-1
-4
-7
-9
-10
-10
-9
-9
-10
-11
-11
-12
-13
-14
-13
-12
-11
-11
-11
-10
-10
-10
-11
-11
-11
-11
-10
-9
-8
-8
-8
-9
-7
-2
-2
-12
-28
-43
-54
-64
-79
-101
-120
-133
-134
-132
-122
-109
-91
-68
-47
-31
-23
-18
-15
-11
-8
-5
-2
0
1
3
5
6
8
10
12
13
14
13
12
12
12
13
13
14
14
14
14
14
13
14
16
16
16
15
14
13
13
14
14
14
13
13
12
11
10
7
5
4
4
4
5
4
2
0
0
-1
-2
-3
-3
-5
-6
-7
-7
-6
-6
-8
-12
-14
-16
-14
-11
-9
-9
-10
-10
-11
-11
-10
-6
-3
-1
0
-1
-2
-1
3
10
16
21
24
24
23
20
17
14
13
13
13
14
15
14
12
8
5
2
0
-5
-11
-16
-23
-27
-29
-27
-24
-23
-24
-29
-35
-40
-39
-38
-35
-32
-31
-31
-34
-36
-40
-39
-36
-31
-25
-25
-28
-35
-39
-41
-38
-34
-32
-30
-31
-33
-34
-30
-28
-33
-45
-60
-76
-98
-124
-149
-165
-171
-172
-166
-156
-144
-137
-126
-111
-91
-73
-58
-47
-42
-40
-42
-41
-38
-33
-28
-27
-28
-30
-30
-28
-24
-20
-17
-16
-18
-21
-23
-21
-20
-16
-13
-12
-15
-19
-21
-21
-17
-13
-7
-3
-3
-6
-8
-8
-6
-5
-4
-3
-2
-2
-2
-1
-1
-3
-5
-7
-9
-10
-11
-11
-13
-16
-20
-25
-27
-28
-28
-28
-27
-28
-33
-39
-41
-39
-37
-35
-36
-40
-44
-47
-46
-45
-42
-40
-37
-34
-33
-32
-30
-27
-21
-13
-6
0
1
1
0
0
0
2
5
10
13
13
12
12
14
15
12
7
1
-3
-10
-16
-21
-26
-28
-29
-30
-32
-33
-35
-35
-34
-33
-31
-30
-28
-29
-29
-30
-32
-33
-32
-30
-29
-27
-27
-28
-29
-30
-30
-29
-28
-27
-28
-29
-30
-29
-26
-22
-23
-35
-56
-78
-96
-113
-128
-146
-154
-160
-159
-154
-143
-123
-103
-79
-59
-45
-38
-33
-28
-24
-18
-13
-8
-5
-2
-1
0
1
3
4
5
7
10
11
12
12
12
13
13
15
16
17
18
19
19
19
20
20
21
23
25
27
28
27
25
25
24
24
25
25
24
21
20
19
20
20
20
19
18
17
15
13
12
11
11
11
11
9
8
6
5
5
5
6
7
8
7
7
7
9
11
13
17
19
22
23
26
30
36
42
48
52
53
53
51
51
50
53
56
60
61
60
59
57
57
55
53
50
48
46
42
38
33
29
26
24
23
23
22
22
21
20
21
22
24
27
28
29
27
24
20
19
19
20
23
23
24
24
24
24
24
24
23
24
24
25
25
26
27
31
35
32
21
3
-13
-24
-34
-47
-62
-76
-82
-88
-84
-76
-60
-40
-20
-2
9
17
22
27
33
37
40
41
43
46
47
49
49
50
51
53
55
56
58
58
58
58
59
61
61
63
63
63
63
63
63
63
64
65
67
68
68
66
64
63
62
63
63
65
65
65
65
65
66
64
64
62
62
60
59
59
59
61
60
60
56
54
51
50
50
49
50
50
50
49
50
49
49
48
48
50
50
52
53
55
56
59
62
66
71
76
81
84
86
87
87
88
86
87
86
88
88
88
87
84
81
77
75
74
72
70
66
63
59
55
52
49
46
43
41
40
40
40
41
41
42
42
43
44
44
45
45
47
47
45
43
40
40
40
41
41
40
39
39
39
40
41
42
45
49
54
50
35
16
0
-13
-27
-42
-57
-70
-75
-76
-72
-61
-47
-27
-8
7
18
24
29
34
39
44
47
49
49
49
49
51
53
54
55
56
56
56
56
58
59
60
60
61
61
60
61
61
63
62
63
62
62
62
60
60
58
58
59
60
60
60
58
56
55
54
55
55
57
58
59
57
51
47
42
40
38
38
37
36
35
35
35
33
34
33
32
32
31
31
31
31
31
32
34
34
32
31
29
30
32
34
36
39
43
47
51
54
57
59
60
60
60
60
61
60
60
59
58
57
56
53
51
49
47
44
39
35
30
25
21
18
17
16
17
18
19
18
16
15
14
15
16
18
19
21
20
18
17
16
16
17
19
20
20
20
19
19
19
20
20
20
21
25
30
31
22
5
-12
-26
-37
-51
-65
-77
-85
-90
-88
-82
-71
-56
-40
-23
-9
0
5
10
14
19
22
26
27
29
30
32
33
33
35
35
36
36
38
39
41
42
44
46
46
47
44
42
40
40
41
41
42
42
44
43
44
45
45
44
43
42
41
41
41
41
42
41
40
38
37
36
37
37
38
39
37
33
29
27
26
25
24
23
22
21
20
20
20
21
22
22
22
22
22
22
24
26
28
30
32
33
36
37
41
44
48
52
55
56
55
56
57
61
63
64
64
62
61
57
54
50
48
46
45
43
38
34
30
28
25
24
23
22
20
19
18
17
17
18
19
21
22
23
23
23
23
24
24
25
27
28
29
28
28
27
25
23
22
22
23
25
26
27
30
30
22
7
-9
-21
-32
-44
-60
-71
-79
-83
-81
-74
-63
-49
-32
-14
0
11
18
22
27
30
34
36
40
43
45
45
45
46
45
45
45
47
48
48
50
50
52
52
53
53
53
54
54
54
54
55
55
56
57
58
60
61
61
58
56
54
56
56
57
57
56
56
55
54
54
54
54
54
54
53
52
51
50
48
46
45
43
43
42
41
40
38
38
38
38
38
38
37
36
36
38
42
45
48
50
52
54
58
63
66
68
68
70
69
71
72
76
77
76
72
68
67
64
63
60
58
56
54
51
47
43
38
34
32
32
31
31
30
28
26
25
26
26
26
26
26
26
24
23
23
23
22
22
23
23
23
22
20
19
20
22
23
23
23
24
24
27
32
36
33
16
-5
-24
-38
-52
-69
-85
-96
-102
-99
-92
-77
-60
-40
-22
-8
0
6
11
15
18
20
22
25
28
30
31
32
33
34
34
35
35
36
37
39
39
39
38
39
40
42
44
45
45
45
44
43
44
45
46
48
49
49
48
45
43
41
39
38
38
37
36
35
33
33
33
34
34
34
32
30
28
24
22
19
18
17
16
15
13
12
10
9
9
9
9
8
8
8
7
7
7
7
8
8
9
10
12
15
17
21
25
30
34
37
38
37
37
36
37
37
38
36
35
32
30
29
28
27
26
24
21
18
14
9
5
2
-1
-4
-5
-6
-6
-6
-6
-6
-6
-7
-9
-10
-10
-11
-10
-9
-8
-6
-6
-6
-8
-8
-8
-8
-7
-5
-3
-3
-4
-6
-6
-5
-3
0
5
5
-4
-21
-38
-54
-68
-87
-105
-120
-128
-131
-130
-120
-108
-91
-76
-59
-46
-36
-28
-22
-16
-13
-10
-6
-3
0
1
2
3
4
4
5
6
7
8
9
9
9
9
10
11
12
14
13
12
11
10
10
11
11
11
12
12
12
12
12
13
13
13
12
11
9
7
7
8
8
8
8
5
2
1
1
1
0
0
-1
-2
-4
-6
-7
-8
-8
-8
-8
-10
-12
-12
-11
-12
-13
-12
-8
-4
-2
-1
-1
0
0
1
3
7
12
16
21
25
29
31
32
33
34
35
35
36
35
34
34
35
36
35
32
28
25
22
18
15
13
12
9
5
0
-6
-13
-18
-18
-16
-14
-12
-10
-8
-6
-4
-3
-2
-1
-2
-2
-2
-1
0
0
0
-1
-2
-3
-4
-6
-5
-3
0
3
3
2
2
-3
-18
-37
-53
-64
-73
-87
-102
-115
-120
-121
-115
-103
-90
-75
-60
-43
-31
-22
-16
-11
-6
-2
1
2
3
4
7
9
11
9
7
7
8
11
14
16
17
18
18
18
17
16
15
15
16
16
18
19
20
20
20
20
19
19
17
16
16
16
15
15
15
15
15
14
13
11
10
9
8
8
7
8
10
11
9
6
2
0
0
0
1
2
2
2
2
4
6
9
11
13
13
13
13
14
16
20
27
34
43
49
53
55
57
59
58
60
62
66
66
64
62
59
57
53
49
44
39
34
29
22
17
13
11
10
8
5
2
1
1
0
-1
-1
0
1
0
-1
-2
-2
-1
0
0
0
0
1
2
3
6
8
10
10
11
10
10
12
13
13
13
18
23
24
12
-7
-29
-44
-59
-76
-98
-116
-125
-125
-119
-111
-97
-78
-53
-30
-15
-9
-6
-4
-4
-2
1
7
16
29
38
41
35
29
25
28
33
37
39
40
42
44
47
48
52
56
60
62
60
57
52
50
47
46
47
45
42
37
32
27
26
31
37
37
33
30
27
26
28
33
38
38
34
29
23
17
14
18
24
24
18
13
9
6
7
9
9
9
8
8
8
9
13
18
26
31
32
30
26
23
22
23
24
27
30
34
38
41
45
44
43
39
36
32
28
25
21
19
17
16
14
9
5
3
2
2
0
-4
-8
-13
-17
-20
-20
-19
-17
-17
-16
-17
-18
-18
-19
-20
-21
-20
-19
-19
-18
-17
-16
-15
-12
-11
-12
-13
-13
-13
-13
-12
-9
-6
-4
-2
-1
2
7
7
-1
-19
-38
-55
-69
-86
-107
-124
-137
-137
-134
-124
-113
-98
-78
-59
-42
-33
-26
-20
-14
-7
-2
0
2
4
6
7
8
8
7
7
7
7
8
9
12
14
16
17
15
13
11
11
12
15
16
17
18
19
19
17
17
19
19
19
18
17
19
19
19
18
17
16
15
14
12
11
9
8
6
3
0
-2
-3
-4
-3
-3
-4
-5
-4
-2
-2
-3
-3
-3
-2
-1
-1
-3
-6
-7
-5
-1
1
4
5
6
7
9
13
18
25
31
34
33
31
28
29
30
32
33
35
34
31
27
23
22
22
23
24
24
21
16
12
9
7
5
3
1
-1
-4
-7
-8
-7
-6
-3
-1
0
-1
-2
-3
-2
0
0
0
1
2
4
5
5
5
5
8
11
11
10
7
5
6
10
7
-5
-23
-40
-54
-67
-83
-95
-105
-110
-113
-108
-94
-79
-62
-48
-36
-29
-21
-11
-2
4
9
12
15
16
17
17
16
16
16
18
19
20
20
20
18
17
17
17
19
24
28
28
26
25
25
26
29
32
34
37
39
39
38
38
40
42
44
43
40
38
34
29
23
17
12
8
11
18
24
27
27
24
20
19
17
15
15
16
16
16
15
14
12
9
8
10
14
17
19
21
23
24
25
27
28
30
31
33
35
40
46
52
57
59
60
60
61
60
58
55
52
51
50
53
55
58
61
61
61
57
48
37
30
30
33
35
35
34
29
25
23
22
22
23
26
26
26
25
24
23
21
21
22
25
28
30
28
25
23
23
25
27
30
32
34
33
32
32
35
40
39
31
15
-2
-18
-31
-41
-52
-63
-72
-80
-80
-75
-65
-50
-29
-7
9
19
24
26
29
32
35
38
39
41
43
44
44
43
43
45
49
51
53
50
48
47
48
52
55
57
56
56
55
56
56
57
59
60
62
62
63
61
60
58
55
53
52
54
55
56
56
54
51
47
46
46
46
45
43
41
42
45
47
47
44
42
40
40
39
38
37
37
35
33
32
30
29
28
28
30
34
38
38
38
38
40
43
48
55
60
65
67
67
65
63
62
61
65
68
73
77
83
87
84
75
61
49
42
37
32
28
25
22
22
21
20
18
16
15
15
15
15
15
15
17
19
20
20
20
21
21
21
21
21
21
21
20
20
20
20
20
21
20
18
16
14
14
17
22
22
12
-5
-23
-37
-49
-60
-71
-80
-87
-93
-94
-88
-75
-59
-41
-25
-13
-4
2
7
14
18
21
22
23
24
24
27
29
31
32
33
34
36
38
37
34
31
30
27
25
24
27
31
33
35
36
37
35
34
33
34
34
35
36
35
35
36
37
37
37
35
33
31
29
28
26
24
22
19
18
16
16
14
13
11
9
7
4
1
0
3
8
13
14
13
11
10
9
9
9
8
8
7
6
5
5
7
9
10
12
15
19
22
24
23
26
30
36
39
38
36
33
32
32
33
31
26
21
16
14
10
8
4
0
-3
-8
-11
-13
-15
-16
-16
-15
-14
-13
-13
-14
-14
-15
-15
-15
-14
-12
-9
-8
-9
-11
-10
-9
-9
-9
-9
-9
-7
-6
-6
-5
-4
-2
1
5
4
-5
-24
-42
-60
-72
-85
-95
-104
-113
-117
-119
-111
-100
-87
-73
-59
-44
-32
-25
-22
-18
-13
-6
-1
1
1
1
2
4
6
8
8
8
8
8
7
5
4
4
5
6
7
7
6
4
3
4
8
12
14
14
14
13
12
9
7
7
9
10
9
8
7
8
9
8
7
6
5
2
0
-2
-3
-3
-2
-1
-2
-4
-7
-9
-11
-11
-10
-9
-10
-12
-14
-15
-14
-13
-14
-14
-13
-11
-8
-7
-6
-4
-1
0
2
5
7
9
12
15
19
22
24
25
24
23
23
23
22
20
20
20
19
18
18
19
20
19
15
8
2
-2
-6
-10
-11
-10
-9
-10
-10
-10
-8
-7
-8
-7
-7
-8
-8
-7
-6
-5
-4
-3
-3
-3
-3
-4
-5
-6
-7
-6
-4
-1
-1
0
0
2
3
-3
-15
-32
-46
-56
-65
-73
-85
-92
-97
-96
-89
-76
-59
-44
-29
-18
-11
-9
-10
-9
-7
-2
0
3
6
9
12
13
14
14
15
15
14
13
14
14
15
17
19
21
22
22
21
21
21
20
20
21
23
23
22
23
25
26
27
25
23
20
19
19
19
20
19
19
18
17
14
11
9
8
8
8
8
8
5
3
0
-4
-6
-5
-4
-3
-2
-2
-3
-4
-3
-1
0
0
0
0
0
0
1
5
9
14
17
20
24
26
28
31
34
34
34
32
31
30
30
32
36
38
36
30
23
18
15
13
12
10
8
6
2
-2
-7
-8
-10
-11
-11
-10
-11
-13
-15
-14
-12
-11
-9
-8
-7
-7
-8
-8
-9
-8
-6
-5
-5
-5
-5
-7
-9
-10
-10
-8
-7
-5
-4
-3
-8
-19
-34
-49
-58
-66
-77
-91
-100
-104
-103
-97
-90
-79
-67
-54
-43
-34
-28
-25
-22
-15
-6
0
3
4
6
7
8
9
9
10
11
12
12
13
14
15
16
17
18
18
17
17
19
20
20
20
21
20
18
17
17
20
22
23
22
21
20
18
17
16
17
17
17
16
14
13
11
11
12
12
13
12
12
10
7
5
4
2
2
2
1
0
-3
-5
-5
-4
-3
-3
-1
0
1
2
2
1
2
4
8
10
14
19
24
27
29
30
29
29
31
31
32
31
30
28
26
24
21
19
16
16
14
12
9
6
2
-1
-4
-5
-5
-7
-10
-14
-18
-21
-23
-24
-23
-22
-19
-18
-18
-19
-20
-22
-24
-22
-21
-16
-11
-6
-5
-8
-12
-13
-11
-7
-4
-5
-11
-15
-18
-20
-28
-40
-54
-63
-71
-82
-94
-104
-109
-113
-111
-106
-93
-76
-56
-40
-32
-29
-29
-25
-20
-14
-9
-5
-2
0
0
0
1
0
0
0
3
5
7
9
12
14
15
14
12
11
11
11
12
14
16
16
15
14
14
12
11
13
18
21
21
19
17
15
15
16
17
16
15
13
11
8
7
5
4
4
5
6
4
0
-2
-3
-1
2
7
9
10
9
5
-1
-11
-18
-20
-16
-12
-9
-9
-10
-13
-13
-12
-9
-7
-3
0
3
6
11
17
24
28
30
29
26
22
19
17
16
16
18
21
21
21
22
22
21
17
12
9
7
3
-1
-5
-7
-5
-3
-2
-6
-12
-15
-15
-8
-1
2
0
-5
-7
-4
0
2
1
0
0
3
5
7
9
11
12
10
5
0
-3
-3
-2
-4
-12
-23
-35
-43
-52
-62
-74
-84
-89
-90
-87
-81
-71
-58
-42
-27
-14
-5
0
2
5
7
7
7
9
14
17
19
19
19
19
19
23
28
31
33
36
40
46
44
38
27
19
13
11
14
19
25
28
31
33
33
31
27
25
26
29
30
31
30
27
24
19
19
25
30
28
22
15
11
10
12
13
13
11
10
10
9
9
9
8
6
5
4
4
4
5
5
4
5
10
18
24
25
21
17
15
14
13
14
18
23
28
31
34
35
34
36
38
42
42
40
36
34
32
32
32
33
32
29
23
16
12
11
9
6
4
2
0
0
-1
-2
-2
-2
0
1
0
-2
-3
-2
2
7
9
7
4
2
0
0
1
5
7
6
3
1
-1
-4
-5
-5
-1
1
-4
-17
-32
-45
-53
-61
-69
-79
-84
-85
-87
-83
-75
-61
-47
-32
-20
-10
-2
4
8
9
10
10
13
17
22
27
31
33
32
28
22
17
17
20
25
28
30
29
25
23
26
30
33
33
33
33
32
31
30
31
33
35
33
32
31
31
29
24
22
25
31
33
32
32
32
35
34
33
28
22
15
13
14
14
12
10
11
13
16
18
21
25
27
25
17
8
4
3
1
0
-1
0
3
6
7
9
11
15
19
24
28
32
33
34
33
32
32
33
35
34
33
31
31
30
29
26
25
26
25
21
16
10
5
1
-2
-5
-6
-5
-4
-6
-8
-10
-9
-7
-6
-6
-6
-7
-8
-7
-5
-4
-4
-3
-3
-2
-2
-4
-7
-9
-6
-3
1
5
7
7
7
9
10
7
-4
-20
-36
-46
-54
-63
-70
-78
-83
-91
-92
-88
-77
-59
-38
-19
-9
-9
-12
-13
-11
-7
-3
1
5
7
9
10
11
13
13
15
16
17
16
17
18
21
22
22
22
22
24
27
29
30
29
27
27
25
26
28
30
31
27
22
18
16
16
17
17
18
19
20
22
20
18
17
18
18
17
15
11
7
3
1
4
8
12
12
11
8
6
4
3
3
4
5
4
4
4
5
5
4
2
1
1
2
6
12
18
19
16
16
21
28
33
35
36
36
36
37
36
35
32
30
29
28
27
25
22
20
17
16
15
14
12
8
5
2
0
-1
2
8
14
16
14
10
3
-4
-7
-7
-5
-4
-3
-2
0
3
2
1
1
4
4
4
4
5
6
7
7
6
7
9
6
-4
-17
-30
-38
-44
-53
-65
-75
-82
-82
-79
-72
-66
-54
-37
-17
-2
2
0
-4
-4
-1
2
7
12
14
15
15
16
19
22
27
35
43
43
34
24
19
22
34
52
64
65
48
25
8
7
15
23
28
30
31
31
33
33
34
35
35
35
34
35
34
35
34
34
34
33
32
30
28
26
25
24
23
22
21
20
18
17
16
15
14
12
11
12
12
12
12
12
13
13
14
15
15
16
18
19
22
25
30
35
41
45
47
47
45
42
42
46
53
61
66
69
68
66
62
55
48
44
49
56
62
56
37
14
-6
-17
-19
-17
-12
-9
-6
-3
0
3
6
7
6
4
2
4
7
11
12
9
7
7
9
11
14
16
17
15
11
6
1
-2
-6
-9
-7
-2
0
-6
-20
-34
-44
-51
-62
-73
-84
-90
-93
-91
-82
-69
-53
-35
-18
-5
2
6
7
4
5
9
17
24
28
28
27
26
22
20
19
22
26
28
28
26
26
26
27
29
32
33
34
33
33
33
35
37
37
37
35
34
33
33
33
33
33
30
28
26
26
28
28
28
26
25
24
22
21
20
21
22
20
17
13
10
9
11
14
16
17
17
16
14
12
10
11
13
18
23
28
31
28
20
12
10
16
28
38
45
44
37
34
37
45
50
54
50
43
35
30
27
25
24
24
27
29
29
25
19
16
12
6
-2
-9
-14
-17
-19
-21
-22
-20
-15
-10
-9
-10
-13
-15
-17
-18
-17
-12
-7
-4
-5
-6
-6
-6
-6
-7
-9
-11
-10
-9
-8
-9
-10
-9
-7
-8
-16
-30
-44
-54
-64
-73
-86
-96
-105
-108
-107
-100
-85
-69
-51
-37
-29
-24
-18
-11
-3
0
1
4
7
9
9
7
5
2
3
6
10
10
10
9
9
9
9
10
12
13
13
14
15
17
19
20
18
17
16
15
16
18
20
21
19
14
8
6
8
13
15
15
14
12
8
4
2
0
0
0
0
0
-1
-3
-6
-8
-9
-11
-12
-12
-12
-11
-11
-12
-13
-14
-16
-15
-14
-10
-6
-2
-1
-3
-7
-10
-10
-3
9
25
34
31
21
9
0
-3
-4
-2
0
2
4
5
5
4
3
5
8
10
9
7
6
3
-1
-8
-16
-22
-25
-26
-23
-19
-16
-15
-19
-27
-35
-40
-41
-40
-36
-33
-31
-28
-27
-25
-23
-23
-22
-21
-20
-21
-22
-22
-20
-19
-19
-18
-16
-13
-15
-22
-35
-50
-58
-66
-74
-87
-98
-105
-111
-109
-105
-93
-83
-69
-55
-43
-34
-30
-27
-23
-17
-12
-9
-7
-6
-6
-7
-6
-3
1
4
5
5
5
5
3
2
3
6
10
12
12
12
12
12
13
13
14
15
18
19
22
28
35
37
31
19
4
-6
-9
-8
-7
-8
-10
-10
-7
-3
2
4
2
-1
-5
-6
-6
-3
0
3
3
2
3
3
1
-3
-10
-16
-18
-13
-5
1
1
-5
-11
-14
-13
-10
-7
-5
-2
1
8
14
20
24
27
28
28
27
27
26
25
25
25
28
29
26
20
16
14
12
9
5
0
-5
-9
-9
-9
-10
-13
-14
-14
-14
-16
-20
-21
-17
-13
-11
-12
-12
-14
-16
-18
-18
-15
-11
-6
-4
-5
-9
-12
-14
-13
-9
-5
-4
-9
-11
-9
-8
-13
-23
-35
-47
-56
-68
-82
-97
-111
-116
-113
-100
-88
-76
-64
-51
-38
-28
-21
-15
-10
-5
-1
1
2
3
2
3
4
8
11
12
13
13
13
11
11
12
15
16
17
16
16
17
17
18
19
20
18
19
18
18
18
20
24
24
23
21
20
20
21
23
26
26
25
23
20
19
18
18
18
17
16
14
12
10
9
7
6
4
2
1
1
2
3
1
2
6
9
10
8
9
11
13
14
15
15
17
20
24
27
30
32
33
34
33
33
33
33
32
32
32
33
33
30
26
21
19
20
19
17
13
9
5
2
0
-2
-2
-3
-3
-3
-3
-4
-4
-5
-6
-7
-8
-8
-7
-6
-5
-5
-6
-7
-7
-6
-5
-3
-3
-4
-7
-9
-12
-11
-7
-2
2
5
4
-3
-18
-35
-50
-59
-66
-74
-85
-94
-101
-101
-95
-85
-72
-59
-43
-29
-18
-12
-9
-6
-2
0
2
3
5
8
11
13
14
16
17
18
17
16
15
14
15
16
19
20
21
21
21
20
20
22
25
29
31
33
33
32
29
25
23
22
23
24
26
27
27
25
21
17
14
12
11
11
11
10
10
10
8
4
0
0
1
3
5
3
0
-1
-3
-4
-4
-2
1
3
4
2
0
0
2
5
6
7
9
12
15
17
20
25
30
33
35
35
35
33
33
35
37
37
34
33
32
32
33
33
33
29
24
21
22
20
16
9
2
-4
-10
-12
-11
-8
-3
0
-1
-9
-17
-21
-18
-12
-7
-6
-7
-9
-10
-10
-7
-4
0
2
2
1
0
0
1
4
10
14
12
9
6
4
1
-6
-20
-39
-59
-81
-100
-112
-118
-114
-106
-92
-79
-64
-45
-28
-18
-14
-12
-9
-3
2
5
6
9
13
16
20
24
26
25
24
25
28
30
32
33
35
34
32
30
29
29
29
30
31
32
33
33
33
33
33
33
35
36
37
36
35
34
34
35
34
33
32
31
30
28
28
29
32
32
31
28
26
25
23
23
22
22
21
20
18
16
17
19
23
24
22
18
18
20
22
25
26
29
30
31
32
31
31
34
40
46
51
51
51
51
51
53
55
55
53
53
52
51
49
47
45
44
43
41
37
32
28
23
19
17
17
19
19
18
17
16
14
13
14
15
16
16
16
15
15
16
16
17
17
18
20
22
23
21
20
19
19
19
22
23
23
25
26
22
11
-3
-15
-24
-33
-47
-63
-75
-83
-82
-75
-62
-47
-33
-18
-4
6
12
16
21
25
28
31
33
34
35
38
39
41
42
44
46
47
47
46
46
46
48
49
50
50
49
47
46
46
46
46
47
48
53
57
61
61
60
58
57
57
55
54
52
52
52
51
51
49
49
49
49
46
44
42
40
39
36
34
32
32
33
34
35
31
28
26
29
31
34
35
35
34
33
33
32
33
34
36
39
42
44
48
53
57
61
60
59
56
56
56
56
58
60
60
58
56
53
52
51
50
50
49
45
40
35
30
25
22
19
18
18
17
17
17
17
15
14
14
14
15
16
18
17
17
17
17
17
18
20
20
20
17
15
14
13
15
17
19
18
17
19
19
12
-1
-16
-29
-38
-47
-60
-70
-76
-77
-76
-69
-60
-47
-31
-16
-3
5
11
15
16
19
22
25
28
30
32
33
35
36
37
37
37
37
38
39
40
40
41
40
40
40
41
42
42
42
43
43
42
42
41
42
43
46
48
47
46
44
43
41
39
39
39
39
37
37
35
35
34
33
33
31
30
29
28
27
25
23
21
19
18
18
17
17
18
17
16
15
15
16
18
19
20
22
22
23
24
26
28
30
33
37
41
44
45
45
46
47
49
52
54
56
56
56
52
49
45
42
40
39
38
32
24
17
13
11
10
9
8
8
8
9
10
9
6
4
2
2
3
5
7
8
8
7
6
5
4
4
4
6
8
8
6
4
5
7
8
8
10
13
14
9
-2
-18
-33
-45
-55
-68
-80
-89
-95
-96
-92
-82
-70
-55
-42
-30
-20
-12
-5
0
3
7
10
12
14
15
17
20
21
20
20
21
24
28
29
31
31
31
33
38
43
43
39
32
27
24
24
24
25
28
30
33
35
34
26
20
18
19
22
25
28
27
27
24
22
20
18
18
18
17
16
14
11
10
9
7
7
6
6
5
4
3
3
3
3
4
5
5
5
5
4
3
4
6
9
11
15
18
20
22
22
25
28
33
31
27
24
28
36
43
48
46
45
43
42
40
40
39
36
32
27
24
18
10
2
-3
-4
-1
3
5
4
2
0
-2
-4
-4
-2
-1
-1
0
2
4
6
7
7
6
4
3
2
3
4
4
5
6
4
0
-1
-2
0
5
8
2
-10
-23
-35
-45
-56
-69
-80
-89
-91
-89
-83
-74
-63
-50
-36
-23
-12
-3
2
5
6
7
9
15
21
26
27
27
27
27
29
31
33
34
34
31
28
24
22
22
23
27
30
32
30
28
32
41
51
56
60
61
64
65
62
52
39
28
21
18
18
18
19
19
20
22
24
24
24
24
23
21
17
13
10
8
10
13
14
12
10
9
10
11
12
14
16
17
18
19
19
19
20
25
31
36
33
25
18
17
24
35
46
53
54
52
45
38
32
31
33
36
37
36
36
35
34
34
34
31
26
19
14
10
5
2
1
1
2
2
1
1
3
6
7
7
6
4
3
3
3
3
3
5
7
7
7
7
7
7
6
6
5
4
4
5
5
6
5
-2
-16
-35
-47
-53
-56
-61
-72
-79
-86
-85
-81
-73
-61
-49
-33
-19
-8
-5
-3
-3
0
3
7
10
14
16
17
17
17
20
22
24
26
28
29
28
27
25
24
22
22
24
27
29
29
28
28
31
35
38
37
33
27
24
25
29
36
41
42
38
31
26
24
27
29
31
31
31
30
28
27
24
21
19
19
18
17
17
15
14
13
13
12
13
13
15
15
15
13
12
12
11
12
15
19
23
24
26
29
35
39
42
43
44
44
44
46
49
52
54
54
52
49
45
41
40
38
36
33
27
21
19
25
36
48
51
41
26
14
7
2
-3
-9
-13
-15
-16
-16
-16
-14
-12
-10
-7
-4
-4
-7
-11
-10
0
13
23
24
19
16
25
49
68
70
47
13
-18
-41
-53
-62
-70
-79
-95
-104
-108
-104
-101
-99
-96
-92
-80
-61
-33
-12
0
5
8
9
9
9
11
16
20
22
23
24
25
27
26
24
20
18
20
24
29
32
32
30
28
27
26
28
30
32
31
30
29
29
30
30
32
33
35
35
34
33
33
35
34
34
33
33
31
29
29
28
27
25
23
20
19
19
18
17
16
15
13
12
11
10
11
13
14
12
9
7
8
10
13
15
17
17
17
18
20
22
24
29
39
53
65
69
63
50
43
44
52
60
56
42
24
17
19
24
28
30
30
26
20
14
10
9
12
14
12
9
6
5
6
7
6
5
4
6
15
27
40
48
50
40
22
9
1
-1
-3
-3
-2
-4
-5
-4
-3
-1
0
1
0
1
6
9
5
-5
-17
-26
-36
-51
-65
-74
-78
-79
-81
-78
-72
-59
-40
-17
3
12
7
0
-1
5
14
19
22
22
21
18
20
25
31
34
33
30
26
25
27
32
36
41
44
43
41
39
37
36
37
38
38
40
41
42
42
42
42
43
42
41
41
40
40
36
36
34
33
33
35
37
36
34
31
31
30
29
28
27
27
27
25
23
23
23
24
24
24
23
21
20
19
20
21
22
23
24
25
26
27
28
31
36
42
50
59
68
72
70
61
52
49
51
57
61
64
61
53
47
41
39
36
34
31
29
26
23
20
18
15
13
13
15
19
22
22
18
15
19
26
31
29
22
11
4
6
13
17
15
8
0
-5
-3
2
10
14
14
10
5
2
4
8
12
11
2
-11
-22
-30
-38
-50
-65
-75
-80
-79
-76
-70
-60
-48
-32
-16
-5
1
7
11
13
16
20
23
27
29
30
30
30
31
31
33
35
37
37
37
38
38
38
38
39
39
39
39
40
41
41
43
44
44
42
41
40
41
43
45
46
46
44
39
35
32
32
33
33
34
34
33
31
30
32
39
49
57
57
48
33
18
7
3
3
7
10
11
12
11
10
9
11
12
15
16
16
15
13
14
24
43
61
71
65
53
42
38
36
31
29
31
36
38
37
34
32
34
39
44
45
45
42
39
35
29
23
18
16
14
14
11
8
5
4
5
8
12
15
17
12
5
0
-2
-1
0
0
0
-2
-4
-5
-3
-1
1
3
2
1
0
1
4
8
9
9
11
12
7
-4
-19
-32
-42
-51
-63
-75
-86
-90
-89
-85
-74
-64
-49
-32
-16
-3
5
9
10
11
17
26
37
44
44
35
20
9
6
10
18
25
25
19
14
12
13
13
15
20
26
31
36
42
49
57
59
54
40
25
12
6
4
5
7
11
15
20
22
24
24
24
24
23
21
19
17
16
16
15
14
13
11
10
8
6
4
5
7
10
11
10
6
0
-4
-7
-7
-6
-5
-2
0
1
4
7
8
9
9
12
17
23
28
29
31
31
33
34
36
37
34
28
25
27
34
40
41
38
33
28
25
24
24
26
27
23
16
9
6
9
11
8
-1
-13
-22
-23
-18
-13
-11
-11
-11
-10
-8
-6
-5
-1
2
2
2
4
11
21
28
24
12
-2
-15
-19
-18
-15
-11
-10
-16
-29
-42
-51
-55
-63
-72
-81
-90
-94
-99
-97
-93
-80
-65
-48
-33
-25
-21
-18
-12
-6
0
3
6
6
7
8
10
12
14
14
15
17
18
19
19
20
20
21
19
17
14
14
16
20
25
27
25
24
20
18
15
12
12
12
13
16
21
22
21
19
18
18
18
18
17
15
11
7
6
11
18
22
19
8
-2
-3
8
20
24
15
-1
-13
-15
-11
-8
-11
-12
-12
-10
-9
-10
-10
-8
-5
-3
-1
2
5
8
11
15
20
24
28
29
29
29
30
33
34
35
35
33
31
28
28
27
26
24
22
19
14
11
6
2
0
-2
-3
-3
0
3
5
4
-1
-5
-8
-8
-8
-8
-9
-11
-12
-9
-4
0
0
1
2
3
3
0
-1
-1
1
8
14
12
2
-7
-13
-22
-33
-45
-52
-58
-67
-76
-84
-82
-73
-62
-57
-58
-57
-48
-27
-8
0
-3
-12
-16
-11
-2
2
5
5
5
6
11
16
20
21
21
21
21
22
23
25
26
26
25
23
23
24
25
26
28
29
30
30
29
27
26
27
29
32
31
30
29
28
27
28
31
33
34
32
30
27
25
24
26
27
26
21
10
0
-3
-1
4
7
8
6
3
1
3
9
13
19
27
35
35
26
14
9
13
19
25
29
28
22
16
13
15
21
30
40
43
41
38
37
40
45
49
47
41
31
25
24
27
28
24
17
9
1
-5
-7
-5
-1
1
1
0
-1
-2
-2
-2
-1
-1
0
1
0
0
0
1
2
2
2
2
3
3
3
2
2
3
3
3
3
5
7
7
2
-9
-25
-40
-51
-60
-71
-85
-94
-95
-91
-84
-76
-63
-49
-33
-17
-3
7
11
8
7
10
15
19
22
24
23
23
22
23
24
26
28
31
30
27
28
35
49
62
69
60
39
21
12
13
16
20
23
25
28
30
32
33
35
34
34
31
30
30
30
32
34
35
34
33
31
30
29
30
30
28
26
24
22
20
19
19
19
19
18
16
15
15
15
16
18
19
18
17
16
16
16
18
21
25
28
30
31
34
37
38
39
39
44
49
53
55
61
69
73
71
60
47
37
32
31
28
28
25
22
18
12
7
4
5
7
8
9
8
7
6
7
12
17
21
23
23
23
19
13
6
2
2
5
7
6
6
6
6
6
5
4
2
2
5
8
14
19
19
8
-8
-22
-27
-27
-32
-46
-65
-82
-91
-93
-83
-68
-47
-26
-9
0
6
10
15
20
24
26
27
28
28
30
31
33
34
35
36
35
35
35
38
40
42
41
37
35
36
40
43
45
44
44
43
43
42
42
42
41
41
40
42
42
42
41
39
38
36
36
35
35
35
36
37
35
33
31
31
33
35
33
26
19
16
16
15
15
16
15
14
11
9
11
15
18
16
15
14
17
20
23
24
25
27
28
30
33
39
46
55
60
63
60
52
43
38
39
42
45
42
34
24
21
28
36
39
33
23
14
12
18
21
19
15
12
11
11
11
9
8
7
8
11
19
29
37
37
26
11
-4
-15
-19
-18
-13
-6
-1
0
0
0
1
2
2
1
3
6
9
9
1
-13
-25
-34
-40
-51
-66
-78
-90
-94
-95
-85
-68
-47
-27
-15
-10
-8
-5
-1
4
7
9
11
13
15
19
23
25
24
23
24
25
26
28
30
30
30
29
26
24
23
25
27
30
30
30
29
29
31
33
33
32
32
33
33
32
33
36
37
37
35
31
29
28
29
29
28
24
18
13
13
18
23
25
20
14
15
23
33
35
30
16
2
-9
-12
-8
-2
0
3
3
3
1
3
8
14
17
16
14
14
15
21
27
33
38
42
42
40
39
38
36
34
35
36
35
34
33
32
30
26
23
21
18
14
8
3
0
0
2
4
7
7
4
0
-4
-6
-7
-7
-6
-6
-8
-9
-8
-6
-5
-5
-5
-5
-5
-6
-7
-7
-6
-5
-3
-5
-8
-10
-7
0
4
0
-15
-30
-42
-48
-54
-68
-84
-100
-107
-109
-104
-93
-81
-66
-52
-34
-19
-7
-1
1
2
2
2
2
4
7
11
13
16
18
24
32
39
40
35
28
19
14
17
29
43
48
42
28
10
-4
-9
-6
-1
2
5
10
13
15
15
16
15
13
14
13
13
11
9
8
9
11
12
12
12
12
11
9
6
4
4
5
4
3
2
1
0
-2
-3
-4
-4
-6
-7
-7
-7
-7
-7
-6
-6
-5
-2
3
11
19
23
21
16
12
11
14
18
21
21
21
21
22
24
25
25
24
23
21
18
15
14
14
12
8
2
-5
-13
-18
-19
-17
-14
-11
-10
-11
-14
-15
-15
-10
-3
2
1
-5
-14
-24
-30
-31
-28
-25
-24
-22
-21
-22
-23
-24
-24
-23
-24
-26
-26
-25
-19
-16
-21
-34
-51
-66
-79
-91
-104
-115
-118
-117
-107
-96
-87
-86
-82
-70
-53
-38
-29
-23
-19
-18
-19
-19
-17
-14
-10
-5
0
2
1
1
2
3
4
6
8
8
7
5
4
5
5
7
10
13
15
17
17
15
14
12
8
5
6
9
12
13
9
3
-2
-4
-2
0
1
0
0
0
-1
-3
-5
-6
-7
-6
-4
-3
-4
-6
-7
-9
-10
-12
-13
-14
-15
-14
-13
-13
-16
-19
-18
-12
-6
-6
-12
-18
-19
-14
-2
12
28
34
31
20
7
-2
-6
-1
5
10
11
10
7
3
1
-1
0
1
4
6
7
5
1
-5
-13
-19
-22
-24
-24
-24
-22
-21
-21
-24
-26
-27
-28
-29
-29
-24
-20
-19
-20
-21
-21
-21
-21
-21
-22
-23
-24
-24
-26
-28
-27
-22
-16
-14
-13
-11
-10
-16
-27
-41
-52
-61
-71
-82
-97
-107
-116
-119
-117
-110
-100
-88
-72
-56
-41
-31
-24
-19
-15
-14
-14
-11
-6
-1
1
3
3
5
6
6
9
18
30
41
44
36
25
21
26
32
30
18
3
-7
-13
-14
-12
-8
-2
4
8
10
10
8
7
7
9
10
9
6
2
2
7
13
20
31
43
50
43
24
2
-13
-17
-12
-3
2
1
-6
-16
-24
-26
-24
-20
-18
-15
-13
-12
-11
-11
-11
-13
-16
-18
-15
-5
4
10
13
16
20
24
29
36
39
39
36
37
38
40
41
40
39
36
35
32
29
27
27
27
25
22
17
11
6
4
4
3
0
-3
-5
-4
-3
-1
0
2
1
0
0
-1
-3
-3
-2
0
3
5
6
5
3
2
3
4
5
6
6
6
6
5
7
8
4
-7
-23
-36
-47
-54
-65
-76
-86
-92
-93
-91
-82
-70
-54
-37
-19
-5
2
7
10
14
20
25
29
28
24
18
14
17
23
29
30
29
29
32
35
36
37
38
40
44
50
58
66
72
75
73
64
54
45
37
30
23
17
12
11
14
20
26
30
34
34
33
34
38
42
44
48
52
56
56
53
45
33
23
15
13
14
16
17
17
16
15
14
12
12
15
22
25
26
24
23
23
25
28
29
32
34
36
39
44
50
54
58
59
61
62
63
64
64
65
65
66
64
63
59
55
52
52
54
51
46
38
31
28
27
27
27
26
23
21
21
21
22
22
24
26
28
29
29
27
24
22
21
22
21
20
19
20
24
26
28
28
28
27
25
25
26
29
30
25
11
-4
-18
-28
-36
-47
-57
-64
-69
-70
-70
-61
-48
-27
-4
11
21
26
28
28
29
32
36
39
40
41
42
42
43
46
48
49
49
50
49
50
50
50
52
54
57
57
59
61
65
67
66
62
56
55
54
55
55
54
53
53
54
54
56
54
54
51
48
46
45
48
51
55
54
52
51
50
48
45
44
42
42
40
39
39
38
38
37
37
38
39
38
37
35
35
34
35
36
38
40
41
43
44
47
51
55
60
62
65
66
66
67
68
71
71
71
70
69
68
68
67
64
62
59
54
48
41
36
31
28
26
25
23
21
20
20
20
20
21
21
21
20
18
17
18
20
22
23
24
25
26
26
26
26
26
26
27
27
27
25
24
26
29
30
25
12
-5
-18
-26
-35
-48
-59
-67
-69
-68
-63
-53
-41
-26
-10
3
12
18
22
26
29
31
33
35
36
38
38
38
39
39
41
41
42
42
43
44
43
43
41
42
43
45
46
47
47
47
47
47
47
46
46
46
46
46
44
43
42
43
44
45
44
43
42
41
42
41
41
39
38
36
35
33
32
31
29
28
27
26
25
23
21
21
21
20
18
18
18
18
17
17
17
19
20
22
22
23
24
26
29
32
35
39
43
45
47
49
49
50
50
52
53
53
53
51
50
48
47
44
43
41
37
33
28
25
22
19
16
12
9
7
6
5
6
7
7
8
8
7
7
5
5
5
6
7
8
7
6
4
4
5
6
6
7
7
6
5
4
6
10
13
11
1
-12
-24
-32
-39
-51
-63
-74
-82
-85
-85
-80
-73
-60
-44
-26
-11
-3
1
4
7
10
13
17
19
21
21
21
22
23
24
25
26
27
28
28
28
28
28
30
31
33
35
35
34
33
32
31
31
31
32
33
32
30
28
26
25
26
29
31
32
31
29
27
26
25
26
28
30
30
27
23
18
14
11
11
11
11
9
7
6
6
6
6
5
6
6
6
6
7
9
10
11
12
13
15
17
18
21
25
29
32
34
39
42
45
44
46
47
48
49
48
47
43
43
41
41
39
38
36
33
29
23
20
18
17
14
10
4
-1
-6
-7
-5
-1
2
4
4
2
0
0
1
4
7
7
7
5
5
3
2
2
2
2
2
2
2
1
2
5
10
11
5
-7
-23
-35
-45
-55
-69
-83
-95
-102
-101
-97
-83
-66
-44
-24
-9
-1
0
2
6
15
27
37
43
45
43
37
27
20
17
17
19
21
22
22
23
26
30
33
35
34
32
32
33
34
36
39
40
40
40
40
40
38
36
35
36
38
39
40
39
38
35
34
34
35
35
34
32
28
26
25
27
30
32
31
26
22
17
15
19
26
30
26
21
12
4
0
0
6
11
15
16
17
16
16
17
20
23
27
33
38
42
44
46
48
51
53
55
54
51
47
41
38
36
38
39
38
35
32
29
27
26
24
21
17
14
12
10
7
3
1
3
7
11
12
10
6
5
11
24
33
31
20
6
-6
-16
-21
-19
-12
-4
-2
-1
-2
-4
-5
-6
-5
-4
0
2
1
-8
-25
-40
-53
-60
-69
-79
-87
-96
-99
-101
-93
-81
-64
-45
-29
-16
-9
-7
-4
-1
1
4
7
8
8
9
10
11
13
16
18
19
21
21
21
20
20
20
21
24
29
35
38
35
28
21
16
15
20
27
34
36
32
24
14
13
23
39
45
36
18
3
0
5
16
20
17
8
1
-2
-4
-4
-2
-1
0
0
0
-4
-5
-3
0
4
8
5
-5
-15
-16
-7
3
7
5
-2
-9
-11
-8
-4
0
4
8
13
17
21
25
28
29
29
29
30
32
32
31
28
27
26
27
26
23
21
18
15
11
7
1
-3
-7
-10
-10
-10
-9
-12
-14
-15
-17
-18
-19
-20
-20
-20
-19
-17
-14
-12
-8
-1
3
0
-9
-19
-26
-26
-25
-25
-29
-30
-29
-25
-22
-21
-19
-18
-21
-32
-46
-60
-69
-72
-78
-88
-101
-108
-110
-109
-106
-102
-91
-80
-68
-58
-49
-43
-40
-34
-27
-21
-18
-18
-18
-18
-17
-15
-13
-11
-10
-8
-6
-6
-5
-4
-3
-2
-2
-2
-2
-2
-4
-4
-3
-3
-2
-1
0
-1
-2
-2
-2
-2
-2
-3
-3
-4
-4
-4
-6
-7
-8
-9
-9
-9
-9
-9
-10
-11
-10
-5
-1
0
-8
-21
-33
-38
-38
-36
-32
-29
-27
-27
-29
-30
-30
-29
-30
-30
-31
-31
-30
-29
-26
-23
-21
-19
-16
-12
-8
-4
1
8
20
36
55
64
58
44
30
23
17
6
-10
-26
-35
-37
-38
-38
-37
-34
-34
-32
-32
-33
-35
-38
-37
-38
-37
-38
-37
-38
-38
-37
-37
-35
-34
-33
-33
-34
-35
-35
-35
-35
-34
-34
-34
-35
-35
-36
-37
-37
-37
-35
-34
-31
-29
-29
-35
-49
-63
-76
-86
-96
-109
-119
-129
-132
-133
-126
-112
-93
-76
-67
-63
-62
-56
-50
-43
-38
-34
-32
-32
-31
-29
-26
-25
-24
-22
-21
-19
-17
-11
0
14
31
42
39
26
9
0
-3
-4
-10
-21
-29
-33
-34
-31
-27
-21
-17
-15
-15
-16
-18
-18
-15
-12
-11
-11
-11
-12
-13
-16
-18
-19
-18
-15
-15
-16
-20
-26
-32
-33
-29
-24
-21
-22
-23
-23
-24
-26
-31
-32
-30
-28
-29
-30
-30
-29
-27
-25
-22
-20
-18
-18
-18
-17
-14
-9
-3
1
5
6
5
5
4
5
6
7
8
7
5
1
-2
-6
-8
-10
-15
-18
-16
-9
-2
0
-1
-9
-21
-32
-39
-44
-49
-52
-55
-53
-51
-48
-45
-44
-44
-45
-44
-44
-41
-39
-37
-36
-36
-36
-38
-39
-40
-39
-37
-35
-36
-37
-36
-37
-41
-52
-63
-70
-77
-84
-96
-104
-113
-114
-112
-107
-103
-100
-89
-76
-60
-51
-44
-41
-37
-32
-28
-25
-23
-20
-19
-17
-17
-16
-15
-14
-13
-13
-12
-10
-8
-7
-7
-7
-7
-7
-7
-7
-7
-5
-5
-5
-6
-6
-7
-7
-6
-4
-4
-4
-6
-7
-9
-11
-12
-12
-12
-10
-11
-11
-13
-14
-16
-17
-17
-17
-17
-18
-21
-22
-23
-24
-24
-26
-27
-28
-29
-30
-30
-30
-29
-28
-27
-27
-28
-28
-26
-24
-22
-20
-18
-15
-12
-8
-5
-2
0
1
1
2
3
5
8
9
7
6
6
6
6
4
1
-2
-5
-6
-7
-11
-17
-24
-30
-32
-33
-35
-36
-38
-38
-39
-39
-41
-40
-39
-39
-38
-38
-39
-40
-39
-39
-39
-39
-38
-39
-38
-36
-35
-34
-35
-35
-34
-33
-33
-33
-30
-30
-35
-49
-63
-76
-83
-89
-101
-111
-122
-126
-130
-127
-118
-109
-92
-76
-59
-48
-42
-38
-35
-30
-27
-24
-23
-21
-20
-18
-17
-16
-15
-15
-15
-14
-13
-12
-11
-10
-10
-10
-10
-10
-10
-9
-8
-7
-6
-6
-7
-8
-9
-9
-7
-6
-5
-5
-7
-7
-8
-8
-8
-7
-7
-8
-8
-9
-10
-12
-12
-12
-12
-13
-14
-16
-17
-18
-20
-20
-21
-21
-21
-22
-23
-24
-22
-22
-22
-21
-21
-21
-22
-22
-22
-21
-20
-18
-15
-13
-10
-8
-5
-1
3
7
10
11
11
10
10
12
13
13
14
14
14
12
9
6
3
1
0
-2
-6
-9
-14
-18
-21
-23
-25
-26
-26
-27
-28
-29
-30
-29
-29
-29
-29
-27
-28
-28
-28
-27
-26
-25
-22
-19
-17
-17
-19
-24
-27
-29
-31
-30
-30
-30
-29
-27
-26
-30
-42
-58
-70
-80
-86
-99
-110
-122
-129
-131
-130
-121
-111
-95
-79
-61
-46
-38
-32
-29
-25
-22
-19
-17
-15
-13
-11
-10
-8
-6
-6
-6
-5
-3
-2
-1
-1
-2
-2
-3
-2
-1
0
0
1
3
3
2
1
1
1
2
3
2
1
0
0
0
0
0
1
3
3
2
0
-1
-2
-3
-4
-6
-7
-8
-9
-9
-9
-9
-9
-10
-10
-9
-10
-12
-16
-21
-24
-27
-28
-28
-28
-28
-28
-26
-25
-23
-22
-20
-19
-18
-17
-16
-13
-10
-5
0
5
8
10
10
11
11
13
14
15
15
15
14
13
12
9
7
6
5
3
-1
-5
-9
-13
-14
-16
-17
-18
-19
-21
-22
-23
-25
-24
-24
-23
-23
-23
-22
-21
-19
-18
-18
-17
-16
-17
-17
-18
-17
-16
-16
-15
-15
-14
-15
-15
-14
-11
-8
-13
-25
-38
-49
-55
-62
-73
-86
-95
-101
-101
-98
-92
-85
-74
-58
-41
-28
-21
-17
-14
-10
-7
-4
-1
0
2
4
6
7
8
9
10
10
11
12
13
12
11
11
12
12
11
11
11
10
11
12
14
14
15
16
16
16
15
14
13
13
14
16
17
17
14
11
10
9
8
7
5
4
2
1
0
0
-1
-2
-3
-3
-4
-6
-7
-8
-8
-7
-7
-6
-5
-4
-3
-2
-2
-2
-1
0
1
3
5
5
5
6
8
12
17
24
29
31
31
31
31
33
35
37
38
36
35
32
32
32
32
32
31
30
26
22
18
15
13
11
7
4
1
-1
-5
-6
-5
-2
0
1
2
1
0
0
0
1
3
4
5
6
6
5
6
7
7
7
5
4
2
2
2
3
5
8
8
0
-13
-25
-35
-41
-49
-58
-67
-74
-77
-80
-74
-63
-48
-31
-15
-5
-1
-1
-2
0
2
7
12
18
22
24
24
24
24
24
26
28
30
29
28
26
26
27
29
30
31
32
32
32
32
33
34
36
38
41
41
40
39
37
37
36
36
37
37
37
37
37
36
37
37
37
37
35
34
34
34
34
34
33
31
28
25
23
23
23
23
23
23
22
22
22
22
21
23
25
26
27
27
29
29
31
34
37
42
46
51
54
58
57
59
60
63
65
65
65
63
62
60
59
57
55
55
53
50
46
41
36
32
30
30
31
30
27
22
18
16
17
20
23
25
24
22
19
18
19
21
23
24
25
25
24
22
22
23
24
25
26
26
25
24
22
20
23
25
24
14
-1
-13
-21
-27
-39
-55
-67
-76
-76
-73
-64
-51
-33
-12
4
13
17
18
19
23
27
33
38
42
42
43
42
42
42
43
45
48
51
51
51
48
48
48
50
54
57
58
54
50
47
48
52
54
55
55
55
54
53
52
52
52
52
52
51
50
48
47
48
48
49
48
48
46
46
46
44
43
40
39
39
39
37
34
31
28
28
27
28
28
28
29
28
29
29
29
29
32
35
37
37
38
40
42
46
49
55
59
61
61
59
59
59
62
64
66
65
63
61
59
57
53
50
47
46
43
39
36
32
30
29
27
24
18
13
11
12
14
15
16
17
18
17
16
14
14
15
17
19
20
18
16
16
15
15
14
15
16
17
17
17
17
17
19
20
18
8
-8
-21
-31
-39
-50
-66
-78
-88
-90
-86
-79
-63
-45
-23
-6
3
8
11
14
19
24
29
32
33
31
28
27
27
30
32
34
35
35
35
34
36
37
39
39
39
39
39
39
39
41
41
41
42
43
44
45
47
46
43
39
36
35
35
36
36
39
40
42
38
33
29
28
28
27
26
23
23
23
23
23
21
20
17
16
16
16
17
17
16
15
14
13
14
15
16
16
16
16
17
19
19
20
21
24
27
31
34
37
39
41
44
46
47
48
48
48
47
47
48
50
49
43
37
33
32
31
29
26
23
19
14
11
8
6
6
6
5
3
4
4
4
4
6
8
11
13
13
11
9
7
7
7
9
10
10
8
7
7
8
10
11
10
9
10
12
12
5
-5
-17
-29
-39
-50
-63
-75
-83
-87
-86
-80
-71
-58
-42
-26
-13
-5
1
5
10
14
17
18
20
20
21
22
24
26
27
29
29
30
31
35
37
39
39
37
34
31
30
30
33
36
38
39
38
36
33
33
33
33
33
32
33
34
35
34
33
32
32
32
32
30
26
25
24
25
25
26
25
23
19
17
17
17
17
16
13
11
9
10
10
12
14
15
15
13
10
8
9
11
12
14
17
19
21
22
22
25
29
33
37
39
43
45
47
46
46
45
45
45
46
48
47
46
43
41
39
37
35
31
28
24
20
17
16
15
13
12
11
11
11
13
13
13
13
13
13
15
16
16
17
16
16
14
13
13
14
15
16
16
16
15
14
14
16
19
23
24
17
3
-13
-26
-35
-47
-57
-68
-74
-77
-75
-69
-61
-48
-34
-18
-4
4
9
13
16
21
23
26
28
28
30
31
34
36
37
35
35
36
38
40
43
46
46
46
46
49
50
50
48
45
46
48
51
54
55
55
52
49
46
46
49
52
51
51
48
46
45
46
47
48
47
45
42
39
38
40
42
43
42
40
36
32
31
32
36
38
37
34
31
30
29
29
30
33
36
38
38
35
33
32
36
39
43
46
51
56
58
59
56
57
59
64
66
68
70
69
68
67
67
66
68
68
66
64
58
55
49
47
44
41
38
33
28
23
23
24
28
32
32
29
24
22
21
22
24
27
29
30
30
29
26
21
19
20
25
30
34
35
31
26
21
19
20
24
30
30
24
9
-8
-20
-29
-39
-55
-72
-82
-86
-82
-78
-66
-50
-32
-17
-7
1
10
17
21
22
23
24
25
27
30
34
37
39
39
39
39
37
38
40
46
49
50
48
46
44
44
46
47
50
52
53
52
49
48
48
51
52
53
56
57
54
48
43
42
45
46
47
51
56
62
61
54
42
33
28
26
24
21
17
13
11
12
15
18
20
21
19
18
19
22
25
28
32
34
31
24
19
17
21
27
33
36
33
30
29
33
39
48
54
59
60
57
54
49
48
48
49
50
51
50
46
41
36
35
33
31
28
24
21
18
15
12
8
6
5
6
8
10
12
12
9
4
1
1
6
11
14
10
2
-2
-2
0
3
8
11
12
10
7
6
4
6
10
16
20
21
17
8
-3
-17
-30
-40
-53
-66
-79
-88
-95
-97
-94
-87
-73
-58
-38
-21
-10
-3
0
5
10
15
18
18
17
15
15
17
20
25
28
30
29
29
29
30
33
34
36
38
40
41
40
37
35
36
38
39
39
38
37
36
36
36
37
37
37
35
33
31
28
26
25
25
25
26
26
24
22
18
16
13
12
11
9
8
6
5
4
3
2
2
5
7
6
2
-4
-7
-7
-5
-3
-1
0
1
3
6
7
6
5
6
8
12
16
22
26
27
26
26
28
31
35
39
39
37
34
33
33
32
29
25
22
21
21
19
16
13
9
5
1
-2
-4
-6
-6
-5
-4
-4
-4
-5
-6
-7
-10
-10
-10
-7
-5
-5
-7
-10
-12
-13
-11
-7
-4
-3
-6
-10
-15
-17
-18
-17
-13
-7
-1
-1
-11
-28
-44
-56
-68
-81
-97
-111
-121
-123
-120
-111
-101
-89
-73
-53
-35
-23
-16
-10
-6
-3
-3
-3
-2
0
1
3
5
8
9
9
9
10
12
14
17
19
23
23
23
23
23
25
27
27
26
24
23
22
23
25
27
26
25
24
24
22
21
20
20
20
20
21
21
21
19
18
17
15
13
12
11
12
12
11
8
5
4
3
3
2
0
-2
-3
-3
-1
0
1
2
2
3
4
7
10
13
15
17
17
16
16
18
22
30
38
42
44
42
40
39
40
42
43
43
40
37
34
33
34
34
34
34
33
32
30
28
26
23
19
16
14
13
12
11
11
12
15
14
12
9
7
5
5
7
10
12
13
13
11
9
5
3
3
5
8
11
14
14
13
10
11
17
24
22
10
-8
-26
-41
-56
-72
-87
-98
-107
-108
-104
-93
-79
-64
-46
-28
-14
-3
6
15
24
32
36
31
26
21
21
23
25
28
31
34
36
40
42
45
47
50
52
51
50
48
49
48
49
48
47
48
47
46
44
45
46
48
48
49
48
46
46
46
48
48
47
45
43
42
41
40
38
37
37
34
29
24
23
22
23
25
28
30
30
29
25
22
23
24
25
24
21
19
20
20
21
23
26
27
28
29
30
33
37
43
47
51
55
58
62
63
63
61
60
59
59
60
61
64
64
63
59
56
54
53
50
47
46
43
39
34
30
28
26
25
24
25
23
22
22
23
22
21
21
22
22
23
25
27
29
30
30
29
26
27
27
27
27
26
26
26
27
28
30
33
37
36
28
11
-5
-21
-33
-48
-63
-77
-88
-92
-92
-80
-65
-47
-29
-12
2
12
19
23
25
28
31
36
40
43
44
43
43
43
44
45
47
48
49
50
51
52
53
54
54
53
53
54
55
57
60
64
67
64
58
53
51
55
57
58
57
57
55
52
49
47
48
49
51
52
54
56
54
50
44
38
33
31
32
33
33
32
31
30
30
30
30
31
28
27
26
26
27
30
31
31
31
31
32
32
34
36
38
42
45
50
54
59
61
62
61
60
58
57
59
60
61
61
63
64
64
63
60
57
55
56
55
53
49
44
40
36
32
26
20
14
12
12
12
12
13
16
19
21
22
22
24
24
25
26
28
28
27
27
26
27
25
24
22
21
20
18
18
19
24
30
35
30
14
-7
-28
-43
-56
-71
-84
-97
-103
-105
-98
-84
-67
-47
-28
-11
1
10
17
21
25
26
28
30
33
37
41
45
47
47
46
44
43
43
43
45
46
46
46
47
47
48
48
49
51
52
56
59
63
64
63
61
57
52
47
46
47
48
49
48
49
47
46
42
41
40
41
42
42
42
40
40
38
38
36
37
37
33
28
22
20
22
24
24
23
22
22
24
24
25
25
28
30
32
34
37
40
40
40
40
44
49
53
56
58
58
57
58
57
56
56
58
60
60
61
61
60
58
55
55
54
54
51
45
39
33
28
24
22
19
17
17
17
17
19
21
22
24
23
23
23
23
24
24
25
25
25
23
21
20
20
22
24
26
27
27
25
23
25
30
30
22
6
-9
-20
-33
-53
-77
-97
-109
-110
-106
-94
-80
-61
-43
-26
-11
1
12
20
25
28
32
36
39
41
40
38
37
39
42
46
48
49
49
50
50
53
54
55
55
54
55
54
56
56
58
59
60
62
60
58
53
50
49
49
51
52
54
54
54
50
47
45
44
43
42
41
39
37
34
32
31
30
29
28
27
26
26
26
27
29
31
29
27
25
25
26
25
24
23
21
21
23
24
25
27
29
31
35
40
46
50
54
56
59
63
64
64
60
58
56
56
56
58
60
62
62
57
53
48
46
44
44
43
39
34
27
23
18
15
14
14
17
19
20
19
18
17
18
20
20
20
19
19
18
19
20
21
21
20
21
20
21
21
21
22
23
23
25
31
34
29
15
-2
-19
-33
-48
-67
-86
-97
-104
-106
-102
-90
-74
-57
-40
-24
-10
0
7
12
17
21
26
30
34
36
37
39
39
41
41
44
44
45
44
43
44
46
49
49
49
48
49
49
48
48
48
50
51
52
52
53
52
50
49
47
46
45
45
44
43
42
41
40
40
41
38
36
35
33
32
31
31
28
25
21
19
18
17
17
17
17
17
16
14
13
12
15
19
20
21
18
15
13
12
13
16
20
24
28
31
34
38
40
43
44
47
48
49
48
48
48
48
49
47
46
44
43
40
37
34
32
29
25
22
19
15
11
7
4
3
3
4
6
7
7
6
4
4
4
5
6
7
7
7
6
5
6
6
6
6
6
7
8
7
5
4
5
7
10
14
14
7
-6
-22
-37
-51
-67
-83
-97
-108
-111
-112
-103
-94
-82
-68
-52
-33
-17
-3
5
9
12
15
17
19
21
22
23
27
30
31
31
31
31
31
31
31
32
33
35
36
37
39
39
41
42
44
44
45
44
44
44
43
42
39
39
39
39
38
36
34
32
32
32
31
31
30
29
27
26
26
28
30
29
25
19
14
9
7
6
7
7
8
8
9
9
10
11
12
13
14
13
13
13
13
13
14
17
19
21
21
23
25
29
34
38
42
44
46
46
47
46
46
45
44
43
43
43
42
41
40
41
40
36
29
22
17
14
12
11
10
9
8
6
3
2
1
1
3
4
5
6
9
9
9
6
4
4
5
8
10
11
9
6
4
4
7
8
10
9
9
11
14
10
-1
-18
-37
-52
-64
-80
-93
-107
-113
-117
-115
-104
-93
-78
-63
-44
-28
-13
-1
7
12
15
15
15
17
19
22
26
29
31
33
34
34
33
33
33
34
35
35
36
37
39
40
40
41
42
42
41
40
40
39
39
40
43
42
43
41
41
40
40
41
40
40
37
35
33
33
34
35
34
30
25
21
19
18
17
16
14
13
13
13
13
13
12
11
11
11
11
10
10
10
10
13
15
18
20
21
21
20
21
25
30
36
43
48
51
48
43
40
40
41
43
46
46
45
44
43
43
42
40
36
32
27
24
23
20
16
11
7
2
1
1
2
3
3
3
3
4
6
7
6
5
5
4
5
6
7
8
9
9
9
9
8
5
2
1
2
2
1
2
7
13
12
1
-18
-39
-56
-70
-85
-102
-115
-124
-124
-121
-109
-97
-82
-65
-47
-30
-17
-7
-1
4
8
12
15
18
20
19
18
18
19
22
25
26
28
29
29
28
28
28
29
31
32
35
36
37
36
35
35
34
35
35
37
37
37
39
39
37
33
31
28
28
27
27
27
28
30
30
30
26
23
18
15
13
12
11
11
11
11
11
9
7
6
5
5
3
2
2
2
2
3
4
6
7
8
10
11
12
14
18
25
33
38
39
37
34
32
33
34
37
40
42
42
40
39
38
38
37
37
36
37
35
30
24
18
14
10
6
2
0
-1
-2
-2
-3
-3
-2
-2
0
0
2
4
5
3
1
0
-2
-2
-3
-3
-2
-2
-3
-4
-3
-2
0
2
1
0
0
4
8
4
-8
-27
-45
-62
-79
-98
-114
-125
-129
-129
-123
-111
-95
-76
-58
-41
-29
-18
-10
-3
0
4
7
10
14
16
18
17
17
16
17
18
21
24
27
29
30
30
28
29
30
32
32
32
32
33
34
35
36
36
36
35
34
34
34
34
34
34
35
35
34
32
30
28
27
24
23
22
20
18
17
15
14
12
11
10
9
9
8
8
8
8
9
10
10
6
1
-1
-1
0
3
7
11
13
13
10
11
14
19
23
28
32
35
39
40
42
42
43
43
42
43
41
39
37
39
40
42
39
36
33
31
29
26
23
20
17
14
8
3
0
-2
-1
0
-1
-2
-3
-2
-1
0
1
2
2
3
3
2
1
2
3
6
8
7
4
0
0
2
3
3
3
4
7
12
14
8
-6
-25
-42
-56
-71
-90
-109
-120
-127
-123
-114
-97
-80
-63
-48
-35
-23
-14
-3
5
12
15
17
19
21
22
24
26
28
29
30
30
30
31
33
36
38
40
40
39
40
40
42
43
43
42
40
39
40
41
42
45
46
47
46
45
43
41
41
41
42
41
39
38
36
34
30
29
28
29
30
30
27
22
16
13
12
14
16
18
16
12
8
8
8
10
12
13
14
14
14
13
12
13
16
20
23
25
27
30
32
35
39
44
46
46
44
44
45
44
45
45
46
46
47
46
43
42
40
39
37
34
31
26
18
11
7
6
6
5
4
3
1
1
0
1
2
3
4
4
5
6
9
10
10
8
6
5
3
2
2
1
2
3
6
6
5
3
4
7
12
10
-1
-21
-40
-55
-71
-92
-110
-125
-129
-128
-119
-102
-87
-70
-54
-36
-23
-12
-4
3
8
12
14
16
19
20
21
21
22
24
28
30
29
27
27
27
27
28
29
30
30
31
33
36
37
37
36
34
35
37
40
42
41
40
38
37
34
30
27
26
27
27
27
25
25
24
25
26
22
19
15
12
10
10
9
9
10
10
9
6
3
0
-2
-3
-4
-4
-2
-1
-1
0
0
1
3
6
8
9
8
8
9
11
14
19
25
31
35
36
34
33
32
33
35
36
35
34
34
35
37
38
38
37
32
25
18
13
8
5
2
0
0
-1
-3
-3
-3
-2
0
0
-2
-4
-5
-6
-5
-5
-3
-4
-3
0
2
3
2
0
-2
-5
-6
-7
-5
-4
-2
0
0
1
3
7
6
-5
-24
-44
-59
-72
-87
-103
-115
-125
-127
-126
-115
-101
-85
-68
-51
-36
-25
-16
-10
-6
-1
3
8
11
13
13
13
13
14
16
18
20
24
26
24
22
19
19
20
22
25
28
30
32
32
31
32
31
31
31
31
31
32
33
32
32
33
33
29
24
21
20
21
22
22
23
23
21
19
17
15
13
12
12
12
11
9
7
6
5
5
5
5
4
3
1
0
1
2
5
7
8
9
10
11
12
13
16
21
27
32
34
35
36
37
39
41
43
45
45
43
40
38
37
39
39
39
37
37
37
37
34
28
20
12
6
2
0
0
1
1
1
1
1
3
2
-1
-3
-3
-1
0
2
3
3
3
2
4
6
7
7
5
2
0
-2
-2
0
1
2
5
11
17
11
-10
-35
-54
-65
-77
-89
-103
-113
-119
-119
-110
-96
-78
-63
-48
-35
-23
-14
-6
-1
4
9
13
15
17
20
22
23
24
26
28
30
31
30
30
30
32
33
36
36
36
38
39
41
41
41
39
39
39
38
37
37
38
38
38
38
38
39
39
40
39
36
31
28
26
26
25
24
21
18
16
14
14
14
13
11
10
10
8
7
6
7
7
6
5
5
5
5
5
6
6
7
9
12
12
14
16
18
21
24
30
34
38
41
43
40
37
36
36
37
38
40
40
42
44
45
42
37
35
34
34
31
28
23
17
11
6
4
2
0
0
0
1
1
0
-1
-1
0
0
1
3
5
7
8
7
6
4
3
1
-2
-4
-5
-4
-3
-2
0
0
0
1
4
7
10
4
-11
-34
-55
-73
-86
-100
-109
-119
-122
-124
-117
-105
-92
-77
-63
-46
-31
-18
-8
0
8
12
11
8
7
10
13
15
17
19
19
19
21
25
29
30
29
27
25
25
26
29
31
33
32
32
32
33
35
36
38
38
37
35
35
34
32
31
31
31
30
28
26
24
24
23
21
21
20
18
17
16
14
12
9
7
5
5
5
4
3
3
3
2
1
0
1
1
1
1
0
-1
-1
0
4
8
10
11
13
15
20
25
31
34
37
39
39
40
38
36
34
33
33
35
37
38
38
36
36
34
30
25
19
14
9
5
2
0
0
-1
-3
-7
-10
-12
-12
-10
-9
-8
-8
-8
-8
-8
-8
-7
-7
-7
-8
-9
-9
-8
-8
-8
-8
-9
-10
-11
-9
-9
-10
-9
-5
-1
-3
-17
-39
-60
-81
-96
-113
-126
-136
-142
-140
-136
-120
-105
-83
-64
-47
-33
-24
-16
-11
-7
-3
0
3
6
9
11
12
12
11
12
13
17
20
21
21
20
21
22
24
25
25
25
24
25
26
26
26
26
27
27
26
25
25
25
24
23
22
21
20
20
20
20
21
22
23
21
17
14
11
8
3
1
0
1
0
-2
-5
-8
-10
-11
-10
-9
-8
-9
-9
-10
-11
-11
-12
-11
-10
-7
-4
-2
-1
-2
-2
-1
2
6
11
15
19
21
22
21
19
19
20
23
25
27
27
27
27
26
24
23
24
25
23
15
5
0
-4
-6
-7
-9
-13
-18
-22
-23
-23
-22
-22
-20
-18
-17
-16
-15
-15
-14
-13
-14
-15
-18
-18
-19
-17
-16
-15
-14
-14
-14
-15
-15
-15
-15
-15
-13
-7
-4
-11
-28
-47
-62
-73
-86
-103
-120
-137
-144
-145
-138
-125
-113
-96
-80
-61
-46
-35
-28
-23
-20
-19
-17
-13
-8
-5
-6
-6
-6
-6
-5
-4
-3
-1
0
0
0
0
0
1
2
2
4
5
8
10
12
11
8
6
6
7
8
9
10
10
9
6
4
1
0
0
0
-1
-2
-4
-4
-4
-5
-8
-10
-13
-16
-19
-21
-22
-22
-21
-21
-22
-24
-27
-30
-31
-32
-31
-30
-29
-28
-29
-30
-29
-28
-26
-23
-21
-20
-20
-19
-16
-13
-10
-5
-1
3
7
7
6
4
3
4
4
4
5
6
8
10
11
7
4
1
0
-2
-7
-12
-15
-18
-22
-25
-27
-30
-33
-36
-38
-41
-40
-39
-38
-34
-31
-28
-28
-30
-33
-36
-38
-38
-36
-35
-33
-33
-33
-32
-33
-33
-35
-36
-37
-38
-39
-39
-34
-27
-25
-32
-47
-67
-89
-107
-124
-139
-153
-159
-163
-158
-149
-136
-124
-113
-98
-82
-66
-54
-45
-39
-34
-30
-29
-28
-29
-28
-27
-24
-23
-23
-23
-23
-20
-18
-14
-11
-9
-9
-11
-12
-12
-10
-8
-6
-7
-10
-13
-14
-13
-12
-9
-9
-8
-8
-9
-9
-10
-11
-12
-12
-11
-10
-10
-11
-13
-15
-16
-18
-22
-26
-31
-34
-36
-36
-35
-34
-35
-37
-38
-38
-38
-39
-40
-41
-42
-41
-41
-42
-44
-45
-45
-41
-39
-38
-37
-36
-34
-31
-26
-23
-19
-16
-11
-8
-5
-6
-9
-10
-10
-8
-5
-4
-5
-7
-7
-6
-5
-6
-7
-9
-13
-18
-23
-26
-30
-34
-38
-40
-41
-43
-44
-44
-43
-44
-42
-42
-43
-44
-45
-45
-43
-41
-41
-39
-38
-38
-39
-42
-43
-43
-41
-39
-38
-37
-37
-38
-40
-41
-41
-39
-34
-30
-36
-52
-73
-94
-109
-126
-140
-152
-161
-163
-163
-149
-135
-115
-97
-80
-67
-58
-50
-45
-40
-37
-33
-30
-27
-23
-21
-19
-19
-17
-17
-16
-16
-14
-13
-12
-12
-11
-8
-7
-7
-8
-7
-6
-5
-3
-3
-2
-2
-1
-1
0
-1
-2
-2
-2
-2
-2
-3
-4
-5
-6
-7
-8
-8
-9
-9
-9
-11
-14
-16
-17
-17
-19
-21
-24
-26
-26
-26
-26
-27
-29
-31
-31
-30
-29
-27
-27
-27
-27
-28
-28
-25
-22
-19
-16
-15
-11
-7
-3
0
0
3
6
9
11
12
11
11
11
12
13
14
15
16
17
18
16
12
8
6
4
2
0
-3
-4
-5
-8
-14
-21
-27
-29
-27
-24
-20
-19
-20
-23
-25
-25
-24
-22
-20
-20
-20
-20
-21
-20
-19
-18
-17
-17
-17
-19
-20
-22
-22
-20
-18
-13
-9
-5
-5
-12
-28
-47
-68
-84
-97
-115
-130
-144
-146
-143
-133
-116
-100
-81
-66
-48
-36
-26
-17
-9
-4
-2
-1
0
0
1
4
6
8
10
11
11
10
11
12
15
18
22
23
23
21
20
19
20
24
26
29
30
31
32
33
34
32
31
29
27
25
24
24
26
28
30
31
30
26
22
18
16
15
15
14
13
11
10
10
11
10
5
1
-2
-3
-3
-2
-2
-2
-1
0
0
1
3
4
4
4
6
8
11
13
12
11
12
15
22
29
32
34
35
34
34
34
36
38
40
41
40
41
40
38
34
32
32
31
30
24
18
12
6
2
0
-2
-4
-7
-8
-9
-9
-9
-8
-7
-6
-4
-2
0
0
1
0
-3
-5
-6
-4
-3
-2
-2
0
3
6
7
5
0
-2
-4
-4
-2
3
8
10
2
-13
-32
-50
-68
-90
-111
-127
-134
-135
-125
-112
-94
-75
-56
-35
-17
-4
1
3
3
3
4
8
13
18
21
22
24
28
33
34
33
29
25
24
25
27
28
30
31
34
36
39
41
43
45
45
45
43
42
41
42
42
42
41
38
36
35
35
33
31
28
27
27
26
26
24
24
22
21
19
17
15
12
9
7
6
6
6
5
4
3
2
0
0
-1
-1
0
0
1
1
2
3
5
6
7
9
11
14
18
22
25
27
29
32
33
33
32
32
33
34
35
34
34
34
35
34
33
32
30
28
23
19
14
12
8
3
0
-5
-9
-11
-12
-10
-10
-8
-7
-7
-7
-8
-9
-10
-10
-10
-7
-5
-2
-1
-2
-6
-10
-13
-15
-14
-12
-10
-9
-8
-8
-8
-7
-5
-2
0
-5
-20
-41
-60
-74
-87
-102
-117
-128
-139
-141
-138
-125
-111
-95
-76
-55
-36
-24
-16
-11
-7
-3
0
1
3
4
5
4
5
6
9
11
13
16
19
21
20
17
17
18
20
21
22
22
23
24
26
27
28
26
25
23
21
20
21
22
22
21
19
19
20
21
22
20
16
11
9
9
8
6
5
4
3
0
-3
-7
-9
-10
-11
-11
-12
-12
-12
-12
-12
-12
-10
-9
-10
-12
-13
-12
-12
-11
-10
-7
-5
-4
-4
-3
0
4
9
13
16
18
19
19
20
20
20
20
21
22
24
27
28
29
26
22
16
13
12
11
8
5
1
-1
-5
-7
-9
-11
-13
-15
-17
-18
-18
-17
-16
-14
-13
-13
-12
-13
-14
-16
-16
-16
-15
-15
-15
-16
-15
-15
-14
-14
-14
-14
-13
-10
-10
-9
-7
-3
-3
-11
-28
-48
-64
-80
-96
-115
-128
-134
-138
-131
-123
-106
-92
-75
-61
-48
-38
-30
-23
-18
-12
-7
-2
1
3
4
4
5
6
8
8
7
6
7
8
11
13
15
17
19
20
21
21
21
20
20
20
22
23
24
23
24
23
23
21
21
21
21
21
21
22
21
19
17
15
13
10
11
10
8
6
4
3
2
1
1
2
2
0
-4
-8
-8
-7
-5
-4
-2
-1
0
0
-3
-3
-2
0
3
5
7
8
12
17
24
29
33
35
35
34
34
34
36
40
43
45
43
40
36
34
34
34
35
35
35
32
29
27
24
18
12
6
4
2
2
3
2
2
2
3
3
3
3
2
2
2
1
3
4
5
6
7
8
6
4
3
4
4
4
6
7
6
3
0
0
3
5
0
-15
-36
-51
-62
-76
-91
-104
-112
-119
-118
-112
-99
-82
-66
-46
-28
-13
-4
0
4
7
10
13
14
16
16
17
18
20
23
25
29
31
32
32
32
36
39
40
39
37
36
36
36
38
43
45
45
40
37
34
35
35
36
37
38
41
40
40
37
35
34
33
33
31
30
28
28
26
23
22
23
24
24
21
14
8
5
5
6
7
8
9
10
11
12
11
11
12
13
14
15
16
17
17
19
21
24
28
31
35
38
40
41
43
42
44
45
45
46
45
45
44
46
47
48
48
46
44
42
41
39
36
30
24
20
17
15
12
9
6
5
5
5
6
6
6
7
8
9
11
13
14
14
13
12
10
10
12
14
13
12
11
10
9
9
9
8
9
10
15
18
16
5
-12
-31
-46
-61
-77
-91
-103
-111
-115
-106
-91
-73
-58
-44
-29
-16
-4
4
11
17
21
23
25
25
28
29
31
32
34
37
39
42
41
40
39
39
38
39
40
41
44
46
48
47
47
46
46
46
45
46
47
50
51
52
51
51
50
48
45
42
41
39
38
36
35
35
35
35
32
29
25
22
19
15
14
14
15
16
16
16
16
16
16
16
15
15
14
13
11
10
11
13
16
18
20
21
22
25
26
30
34
40
44
49
53
54
54
53
52
49
47
47
50
52
50
46
40
39
38
38
36
32
28
23
17
12
9
9
10
10
9
7
5
5
5
4
4
4
5
5
6
8
11
13
12
10
8
8
8
9
8
7
5
6
8
10
9
6
4
7
12
16
9
-7
-29
-50
-65
-83
-99
-115
-122
-123
-117
-101
-84
-64
-47
-30
-17
-8
-3
1
7
13
16
18
21
24
27
28
30
31
32
33
36
38
40
40
38
38
40
44
45
45
43
42
44
46
47
46
46
45
46
48
49
50
49
50
51
54
56
56
53
46
41
37
37
37
36
36
34
32
28
26
25
25
24
23
23
19
16
14
14
15
16
17
17
17
17
17
16
15
13
13
14
16
18
20
22
23
23
25
29
33
38
43
46
50
51
54
54
53
53
53
53
53
53
53
53
52
51
50
48
47
43
39
33
29
26
25
25
21
17
12
10
10
12
15
16
18
18
19
19
18
16
16
17
18
20
20
20
19
18
19
18
19
19
20
20
21
21
20
22
25
29
29
21
3
-18
-35
-51
-66
-82
-99
-110
-117
-109
-95
-76
-57
-39
-19
-3
8
15
21
26
29
30
31
31
35
38
41
44
48
49
48
46
45
48
51
54
56
56
57
55
56
57
59
61
62
62
61
62
60
60
59
62
64
65
65
59
56
52
52
52
53
54
52
50
46
45
45
46
46
45
43
39
36
33
31
29
28
27
25
24
22
21
21
24
26
26
26
26
26
27
29
31
35
39
43
45
45
44
43
44
47
52
57
61
64
64
64
62
61
62
65
68
69
71
71
70
67
64
61
59
57
53
49
44
41
38
36
33
30
28
26
25
25
28
31
35
39
40
39
32
26
23
24
27
29
31
30
30
29
29
30
32
33
36
38
38
37
32
30
31
35
31
19
0
-19
-34
-47
-63
-78
-87
-88
-84
-75
-62
-50
-37
-22
-4
9
18
25
32
37
42
44
45
47
49
51
51
53
54
55
56
58
61
60
61
60
61
63
65
67
68
70
69
69
66
67
67
69
70
68
68
65
65
64
66
67
68
70
68
66
61
60
58
59
59
56
52
47
45
42
43
43
43
41
38
35
34
33
32
31
31
32
32
33
35
35
35
34
34
35
36
38
37
38
41
47
54
59
62
62
64
63
63
63
63
64
66
69
69
72
73
75
74
74
72
69
66
62
60
56
54
50
48
45
43
42
42
44
40
35
30
27
27
27
28
29
31
33
33
34
35
36
37
39
39
40
41
41
40
38
34
30
29
30
32
33
34
36
39
45
47
40
22
2
-15
-28
-43
-60
-75
-84
-89
-87
-77
-61
-44
-25
-7
8
17
23
27
30
35
38
42
44
47
49
53
57
61
63
61
60
58
58
58
60
63
63
65
65
67
67
71
74
75
73
69
69
67
69
70
73
75
76
77
74
72
68
67
66
65
64
64
64
62
61
58
57
55
54
53
52
50
47
46
45
44
43
41
40
38
37
36
35
36
38
40
41
42
40
39
38
39
40
43
47
48
52
54
57
59
64
68
72
76
77
79
77
77
76
76
74
73
74
75
77
75
74
71
71
70
67
64
60
56
49
44
41
39
37
35
35
33
32
32
35
39
43
45
45
43
38
35
33
33
35
37
39
40
40
39
39
39
41
43
43
43
41
39
38
40
46
47
40
24
6
-8
-19
-32
-50
-69
-84
-91
-88
-79
-63
-44
-22
-1
16
27
36
42
49
55
59
61
60
59
58
60
60
62
63
67
69
69
70
70
71
70
71
71
73
76
78
80
80
82
81
82
83
83
83
82
83
83
83
82
80
80
80
83
85
86
82
74
68
65
66
66
67
66
65
63
62
63
60
57
52
48
45
44
43
43
44
44
47
48
50
49
49
49
48
47
45
47
48
50
52
55
58
62
66
71
78
83
87
86
84
81
79
81
82
84
83
84
86
89
90
87
82
75
73
68
64
60
56
54
51
49
47
45
44
42
41
40
41
41
42
43
43
43
41
40
39
40
41
43
43
42
40
38
38
38
39
39
39
39
40
44
46
47
44
43
43
41
28
8
-10
-23
-33
-45
-62
-75
-85
-87
-82
-71
-54
-37
-19
-3
10
21
29
35
41
45
48
50
53
57
61
63
64
63
60
58
58
59
59
61
64
65
67
69
71
72
72
73
73
76
77
78
78
77
76
73
73
71
71
68
68
66
66
67
64
63
60
61
61
63
63
60
57
53
53
52
53
50
46
42
38
34
32
32
32
33
34
36
39
39
36
30
27
25
26
28
29
31
32
35
38
42
48
53
55
53
51
51
54
57
60
62
62
63
64
66
67
69
70
71
70
68
67
63
61
59
57
54
51
48
46
46
43
39
29
22
20
20
21
21
21
21
23
24
25
27
27
28
31
35
37
37
30
25
22
22
22
21
22
22
23
23
23
23
23
24
28
33
35
27
9
-9
-27
-41
-57
-73
-90
-104
-115
-114
-103
-86
-70
-54
-36
-18
-1
11
20
27
33
37
43
44
43
40
37
38
39
42
43
44
45
48
52
55
58
56
54
52
53
54
56
58
57
58
56
57
57
61
64
65
63
60
58
57
57
56
55
54
53
53
53
54
54
52
48
43
39
37
35
34
32
30
29
29
29
28
25
21
18
18
20
22
23
23
24
25
26
26
25
25
25
25
25
27
29
32
33
36
40
45
50
53
57
58
61
63
64
65
62
61
57
57
56
57
57
57
57
55
55
52
51
49
47
41
32
25
20
18
17
18
20
21
24
30
35
37
32
22
15
14
16
19
21
22
24
26
28
28
26
22
19
18
19
19
20
21
22
24
25
30
33
28
12
-8
-27
-41
-54
-68
-84
-95
-104
-105
-101
-89
-74
-59
-40
-23
-7
5
15
24
32
38
41
39
36
34
35
38
41
43
45
47
47
48
49
51
54
58
60
61
61
59
58
56
55
56
56
56
56
58
60
62
64
64
63
61
58
55
52
49
49
49
49
49
49
49
48
47
45
42
38
35
33
30
28
26
25
24
25
28
30
32
29
24
18
15
15
19
23
23
23
22
23
24
27
31
34
39
42
46
49
53
56
59
60
58
57
56
58
58
61
63
65
65
62
59
55
54
53
53
50
47
44
40
37
31
24
18
15
16
18
19
18
18
17
17
17
19
22
25
27
27
25
22
23
23
24
26
25
25
24
24
26
29
32
33
35
32
28
24
27
30
27
17
-1
-21
-37
-52
-66
-82
-94
-101
-102
-92
-81
-64
-49
-31
-13
2
13
22
29
36
42
45
46
45
46
46
49
51
52
51
52
53
54
57
60
65
67
66
61
60
61
63
66
67
67
67
68
71
72
73
72
72
70
69
68
66
66
65
67
67
67
65
63
60
57
54
52
52
51
49
47
46
45
45
46
47
47
44
40
33
28
26
25
26
27
29
29
30
31
32
34
37
40
42
44
43
43
44
46
49
54
61
66
71
70
68
65
63
64
66
69
70
70
68
67
66
65
64
61
58
54
51
47
45
42
38
35
30
25
22
20
21
23
26
27
28
28
28
28
27
25
22
21
21
23
23
23
24
27
30
30
28
24
22
21
20
21
23
24
24
28
31
27
13
-7
-24
-37
-50
-67
-89
-106
-117
-116
-106
-91
-71
-51
-27
-8
3
8
12
16
21
27
30
33
37
39
42
43
43
43
43
44
43
44
45
47
48
48
50
51
52
51
52
53
54
55
55
57
56
57
57
59
61
59
58
54
52
51
50
47
43
43
42
41
38
36
35
35
37
36
32
26
23
22
23
22
19
14
10
10
11
11
11
10
10
9
8
6
4
3
5
9
12
15
17
17
16
16
18
22
26
28
31
36
42
46
45
42
40
40
39
39
38
39
40
43
45
46
46
41
34
25
18
16
18
19
15
9
4
2
0
-1
-2
-2
-1
-1
-1
0
0
0
-1
-2
-3
-2
-1
-1
-3
-4
-2
1
4
3
1
-1
-3
-5
-6
-6
-5
-3
0
1
4
7
0
-15
-34
-49
-63
-82
-107
-129
-143
-146
-145
-136
-124
-107
-88
-71
-55
-44
-35
-27
-19
-14
-12
-12
-12
-9
-5
-2
0
1
0
0
-1
-2
-2
-1
0
3
5
3
3
4
7
11
13
13
10
7
5
5
9
14
16
13
9
7
6
4
0
-3
-5
-5
-5
-7
-9
-11
-12
-13
-13
-14
-16
-17
-19
-22
-25
-28
-28
-27
-30
-35
-40
-43
-43
-42
-39
-37
-36
-34
-34
-37
-45
-51
-51
-45
-37
-29
-26
-28
-33
-36
-33
-26
-19
-14
-14
-17
-18
-16
-13
-8
0
8
13
10
1
-6
-10
-9
-6
-3
-3
-3
-1
-2
-6
-12
-18
-23
-29
-32
-31
-29
-30
-34
-40
-45
-46
-42
-37
-34
-35
-39
-47
-51
-51
-46
-41
-38
-38
-39
-40
-43
-48
-49
-47
-44
-41
-39
-37
-36
-37
-42
-49
-51
-47
-36
-26
-26
-35
-53
-75
-95
-113
-126
-143
-158
-175
-181
-176
-163
-145
-134
-119
-105
-88
-74
-62
-52
-45
-39
-38
-36
-34
-31
-27
-22
-17
-15
-16
-19
-21
-22
-20
-18
-16
-12
-8
-6
-4
-2
-2
-3
-2
1
7
10
11
11
8
3
0
0
4
12
16
13
3
-7
-12
-12
-8
-2
2
1
-3
-10
-15
-17
-18
-20
-22
-22
-23
-22
-22
-22
-25
-29
-29
-30
-30
-31
-30
-31
-34
-35
-35
-32
-30
-29
-29
-29
-27
-25
-21
-20
-18
-17
-15
-12
-7
-2
3
8
10
9
7
4
4
7
11
15
16
15
14
13
12
8
5
4
3
2
0
-4
-9
-16
-22
-25
-25
-24
-25
-27
-30
-30
-30
-28
-27
-25
-24
-24
-23
-22
-23
-26
-28
-27
-25
-22
-21
-23
-26
-27
-27
-25
-25
-23
-23
-24
-24
-24
-21
-17
-14
-19
-32
-50
-65
-77
-88
-100
-114
-121
-127
-124
-118
-106
-90
-75
-58
-45
-32
-24
-18
-13
-7
-1
2
3
6
10
13
14
16
18
20
20
20
21
23
24
26
27
30
32
35
37
37
36
35
36
37
39
40
42
44
46
45
42
40
35
28
23
20
21
25
29
31
31
30
30
30
28
24
21
18
16
16
14
12
10
7
4
4
5
7
10
12
16
20
21
19
16
13
13
14
17
21
25
25
20
14
13
19
26
30
32
32
34
34
34
36
38
40
38
35
33
34
35
36
32
26
20
16
14
13
13
12
12
9
5
0
-5
-7
-8
-9
-8
-4
2
8
10
5
-7
-22
-32
-35
-29
-22
-15
-10
-7
-10
-15
-16
-10
-5
-3
-4
-5
-5
-2
2
5
5
2
0
2
9
12
4
-14
-39
-62
-82
-103
-123
-138
-148
-146
-140
-126
-113
-95
-76
-58
-46
-38
-29
-20
-11
-7
-9
-12
-11
-5
3
7
4
0
-1
-1
-2
1
10
22
28
27
22
19
21
24
28
32
36
35
23
12
10
16
23
29
32
30
23
15
13
17
24
29
28
14
-4
-13
-12
-5
1
9
14
12
0
-13
-20
-20
-18
-16
-16
-16
-16
-14
-14
-18
-23
-23
-20
-17
-13
-12
-16
-20
-22
-18
-16
-16
-15
-10
-4
-2
-4
-7
-6
-2
4
10
16
20
24
26
30
33
31
25
21
22
24
27
28
29
29
28
24
17
10
3
1
0
1
2
0
-5
-15
-22
-25
-26
-23
-20
-18
-17
-16
-15
-16
-19
-22
-23
-22
-18
-15
-13
-12
-11
-11
-14
-18
-22
-22
-20
-18
-17
-16
-16
-17
-18
-16
-12
-14
-29
-51
-73
-92
-110
-127
-142
-155
-163
-164
-152
-134
-112
-92
-73
-56
-41
-30
-20
-12
-5
0
3
6
6
8
10
13
14
13
12
13
16
17
18
19
20
21
23
25
25
25
25
25
26
28
31
32
31
29
30
31
32
33
35
37
40
42
41
40
38
38
38
37
34
31
28
26
25
24
23
22
20
18
17
17
19
22
24
25
26
26
25
25
25
25
26
27
30
33
34
33
31
32
33
37
41
44
47
50
55
60
69
75
80
83
85
88
87
90
88
88
85
84
82
80
80
77
77
75
73
64
52
39
28
22
15
11
6
4
2
1
0
0
1
4
6
7
8
8
8
8
9
10
10
9
9
9
12
18
24
25
23
19
14
11
9
7
5
5
6
10
14
15
8
-7
-28
-47
-63
-77
-94
-107
-116
-121
-119
-113
-99
-84
-63
-43
-24
-11
-2
3
8
12
13
11
10
12
14
17
20
25
28
30
31
32
34
37
40
41
41
41
44
47
52
57
60
63
63
63
60
59
58
61
64
65
63
59
59
58
58
58
58
61
62
61
56
49
43
40
39
39
39
36
34
32
32
33
33
32
29
27
26
27
30
34
37
37
35
33
32
31
30
31
35
39
39
39
39
42
43
46
50
55
60
64
68
70
72
71
71
73
75
76
76
77
73
70
66
64
63
62
63
61
58
52
47
42
37
32
30
30
29
27
25
24
23
23
24
25
26
28
28
29
30
32
30
29
28
29
32
33
31
29
28
27
27
27
29
30
30
28
26
27
31
31
21
3
-14
-30
-44
-61
-81
-94
-105
-105
-101
-88
-69
-49
-26
-7
6
12
15
17
22
27
32
34
37
39
39
37
36
37
39
43
45
48
46
43
40
40
43
45
48
49
50
51
53
55
54
49
43
41
41
43
44
43
43
42
41
38
34
32
30
30
29
30
28
24
19
13
9
9
9
8
9
12
14
11
3
-5
-13
-16
-16
-14
-12
-9
-8
-10
-15
-20
-22
-22
-22
-20
-17
-14
-15
-17
-19
-18
-14
-9
-4
-3
-2
-1
1
4
5
5
5
5
6
7
9
11
12
15
19
21
17
10
2
-3
-7
-10
-12
-13
-16
-19
-21
-23
-23
-24
-23
-22
-21
-20
-18
-19
-18
-14
-9
-10
-17
-24
-29
-30
-28
-24
-21
-19
-16
-13
-12
-16
-21
-22
-19
-13
-12
-12
-12
-9
-7
-9
-17
-31
-46
-62
-76
-94
-112
-130
-144
-151
-151
-138
-120
-96
-72
-52
-39
-33
-30
-25
-16
-6
0
1
3
5
6
9
14
20
24
25
23
23
24
24
24
24
26
28
29
28
28
30
32
33
31
31
30
32
33
36
40
44
42
35
29
25
24
21
19
17
15
12
8
3
1
1
3
1
-1
-2
-2
-4
-7
-5
0
3
-1
-13
-24
-31
-31
-28
-24
-21
-18
-19
-21
-22
-22
-21
-21
-19
-17
-12
-8
-6
-5
-2
3
10
14
11
5
0
0
1
5
11
18
23
23
15
5
-3
-4
0
4
3
0
-5
-9
-14
-20
-24
-28
-28
-27
-26
-27
-29
-34
-40
-46
-51
-50
-50
-46
-40
-33
-31
-37
-45
-52
-52
-50
-43
-36
-31
-31
-38
-46
-51
-49
-45
-40
-35
-30
-27
-30
-37
-43
-44
-45
-54
-68
-82
-92
-108
-130
-154
-173
-183
-187
-179
-166
-148
-131
-112
-93
-73
-56
-45
-41
-41
-38
-32
-24
-21
-23
-26
-30
-31
-32
-30
-28
-23
-20
-17
-15
-13
-12
-11
-10
-8
-5
0
5
10
11
8
5
3
0
-2
-4
-2
1
5
8
10
11
9
7
5
5
6
7
7
4
3
3
3
3
2
-1
-5
-9
-13
-14
-11
-10
-11
-15
-17
-17
-15
-13
-12
-12
-11
-10
-9
-8
-8
-9
-10
-9
-5
0
6
12
16
14
11
11
15
19
25
31
35
39
39
40
40
43
44
48
51
51
48
41
35
28
22
16
12
11
9
6
2
-1
-3
-5
-7
-7
-7
-7
-8
-7
-4
0
2
1
-3
-8
-10
-7
-4
-2
0
3
3
0
-7
-13
-17
-18
-17
-15
-12
-8
-4
-1
0
0
0
1
0
-9
-25
-40
-57
-76
-104
-127
-141
-146
-143
-135
-117
-101
-84
-70
-54
-40
-29
-22
-15
-7
0
5
9
9
8
7
7
7
10
13
18
22
26
27
27
25
24
23
25
27
26
25
25
27
27
29
29
30
30
31
32
32
34
33
31
30
30
31
33
32
28
24
18
14
12
12
14
14
15
16
16
17
19
22
21
16
5
-5
-10
-8
-4
-2
-1
-1
0
0
0
1
4
8
10
9
5
0
-1
1
8
16
23
25
24
22
24
29
35
40
43
44
44
43
40
37
38
43
47
48
45
39
35
32
31
30
28
25
22
17
11
7
5
5
4
1
-1
-1
1
3
7
10
11
10
7
3
0
0
1
3
7
10
12
9
6
4
6
7
8
7
7
7
7
7
10
17
18
8
-11
-35
-54
-71
-92
-113
-134
-142
-145
-133
-114
-93
-74
-58
-41
-24
-9
-2
0
1
5
12
19
24
27
28
28
27
28
30
32
36
40
42
40
36
33
33
36
39
44
45
44
41
38
37
37
40
43
43
42
40
40
39
39
38
39
38
39
40
41
42
38
31
25
22
21
21
20
20
20
19
16
13
10
8
8
8
9
11
10
10
11
11
9
5
2
1
0
-2
-2
-1
1
3
5
6
7
10
15
20
27
32
35
36
36
36
35
35
35
36
38
40
43
47
47
43
35
26
21
18
16
14
13
11
9
8
6
2
-4
-10
-13
-14
-14
-14
-12
-11
-10
-9
-9
-8
-7
-5
-3
-2
-2
-3
-4
-7
-11
-15
-13
-9
-5
-6
-14
-19
-19
-15
-13
-10
-5
-1
-5
-22
-45
-66
-84
-105
-124
-141
-154
-159
-159
-148
-134
-111
-84
-58
-38
-28
-22
-19
-14
-8
0
5
8
8
7
6
5
5
7
10
15
19
20
22
26
31
32
28
23
19
20
23
27
29
31
33
31
29
27
27
27
28
31
34
38
41
42
35
25
14
10
13
18
22
22
21
19
18
15
13
11
11
12
12
9
6
4
2
2
2
3
3
4
5
6
5
4
3
5
6
6
7
7
8
10
13
18
24
29
34
36
38
39
41
42
43
44
44
45
45
44
45
47
51
50
45
37
33
29
25
22
19
16
13
10
8
6
5
2
0
-3
-5
-5
-3
0
3
6
6
6
6
6
4
4
4
6
8
8
6
2
0
0
0
1
4
9
14
16
15
13
14
13
6
-6
-21
-32
-47
-70
-99
-123
-134
-132
-123
-110
-93
-74
-53
-36
-23
-13
-4
5
13
17
19
20
21
21
20
22
26
32
35
36
34
35
37
39
42
44
45
44
42
39
38
39
41
44
47
51
50
47
42
39
39
41
44
47
51
53
52
48
45
42
39
38
36
35
36
37
38
35
30
25
23
23
24
25
25
23
21
18
14
14
15
16
16
16
17
19
21
21
20
18
18
20
21
23
26
31
36
41
43
44
45
46
48
50
54
53
51
52
53
57
57
57
55
55
55
54
53
51
52
49
45
37
30
23
19
18
18
19
19
20
18
14
12
14
17
17
15
11
9
7
6
8
11
16
19
18
16
12
11
11
13
15
16
17
18
18
17
17
20
27
34
36
28
13
-5
-28
-52
-76
-98
-110
-118
-114
-106
-94
-81
-66
-46
-29
-15
-5
3
12
17
19
20
21
24
24
26
27
29
30
31
32
34
38
42
45
45
43
40
38
38
40
45
46
47
45
44
43
43
46
49
53
53
48
44
42
41
39
37
35
34
35
35
35
33
34
33
30
25
21
19
19
20
19
17
14
12
12
14
17
16
14
11
10
9
5
3
1
2
4
7
9
10
11
13
16
19
21
21
22
24
30
36
43
46
46
46
46
47
47
47
46
43
42
44
46
47
46
43
40
35
30
26
23
21
19
15
11
7
4
1
1
2
0
-3
-7
-8
-7
-5
-4
-3
0
3
7
9
7
3
-2
-8
-11
-10
-8
-5
-3
-2
0
4
8
7
0
-8
-10
-5
-1
-6
-21
-39
-57
-71
-91
-111
-129
-139
-140
-141
-131
-120
-103
-84
-64
-46
-34
-25
-17
-7
-1
2
3
5
7
8
6
5
6
9
12
17
19
19
17
14
14
17
21
23
22
20
19
20
22
26
30
32
32
28
24
22
21
21
23
25
27
28
25
21
18
17
18
18
15
10
6
5
5
5
5
5
7
7
5
2
-1
-3
-5
-7
-7
-5
-3
-3
-5
-8
-12
-15
-16
-14
-12
-10
-7
-4
-1
0
2
5
8
13
16
19
21
23
25
27
28
31
32
35
37
39
39
37
33
28
25
21
20
20
21
22
22
19
12
3
-5
-12
-15
-15
-15
-14
-14
-13
-13
-11
-10
-6
-1
3
2
-2
-7
-12
-13
-14
-14
-16
-17
-17
-16
-15
-14
-11
-10
-8
-6
-2
1
3
0
-2
-1
0
-6
-22
-42
-62
-80
-97
-117
-135
-150
-156
-152
-138
-120
-104
-86
-69
-52
-36
-21
-10
-1
3
3
1
1
3
5
7
8
11
14
18
22
24
24
21
21
21
23
24
25
26
27
30
32
34
32
30
28
27
28
30
32
33
35
35
36
34
31
28
28
29
29
30
29
28
30
32
32
27
20
14
10
8
6
6
6
7
8
9
9
11
13
15
14
9
3
0
-1
0
1
2
3
6
8
13
18
24
29
35
41
42
42
39
39
38
39
40
42
45
47
50
50
50
50
50
50
47
46
44
43
39
33
26
18
13
9
6
5
5
4
4
2
0
0
2
4
5
7
8
8
7
6
6
6
6
6
6
6
5
4
5
7
6
2
-1
-4
-4
-3
-1
0
5
11
15
8
-7
-27
-44
-63
-88
-118
-139
-153
-157
-151
-137
-116
-94
-72
-52
-33
-19
-10
-5
0
3
9
14
19
22
23
23
22
23
25
28
31
34
34
33
33
33
34
34
37
40
44
45
46
44
42
41
39
38
37
38
38
39
40
40
40
39
39
40
42
44
45
43
38
32
27
25
23
21
19
17
16
17
19
19
17
14
11
9
8
10
10
8
7
5
6
5
4
4
6
10
13
15
14
14
14
17
22
27
31
35
38
40
40
38
37
37
40
42
43
43
43
43
43
43
41
38
37
37
37
35
31
24
15
8
3
0
-1
-3
-5
-5
-4
-4
-2
0
1
0
0
-2
-3
-4
-4
-3
-1
1
1
0
-1
0
4
5
2
-1
-5
-7
-6
-4
-1
0
3
8
12
9
0
-16
-33
-51
-70
-94
-115
-129
-139
-135
-128
-110
-94
-77
-61
-47
-33
-24
-16
-9
-4
-2
-1
0
3
7
9
9
8
8
8
10
13
16
19
23
27
29
27
23
22
23
28
34
39
38
32
25
22
21
22
24
26
27
28
29
30
27
22
18
16
17
21
24
26
26
22
19
15
11
8
6
6
5
7
9
11
11
9
8
6
6
4
1
-1
-4
-4
-3
-1
0
0
0
1
4
8
10
12
13
14
16
18
22
26
31
37
42
44
41
38
34
34
37
42
48
50
50
43
35
27
23
22
22
22
20
17
13
9
7
6
5
5
7
7
7
5
4
4
6
9
9
9
8
6
4
2
0
-2
-5
-7
-6
-4
-2
0
3
5
5
3
1
-1
-2
0
8
15
17
9
-8
-29
-48
-66
-85
-101
-116
-124
-124
-117
-105
-96
-85
-72
-53
-34
-19
-9
-3
0
4
8
11
13
15
18
21
24
27
27
24
22
22
25
29
30
30
29
28
29
31
35
36
35
34
33
32
34
36
38
39
38
36
34
33
32
34
40
44
41
33
25
20
18
18
20
23
25
28
26
22
14
7
4
6
10
12
11
8
6
6
7
7
7
7
7
8
8
5
4
7
12
16
17
15
14
15
20
28
35
40
41
43
46
50
51
51
50
48
45
42
39
37
39
41
41
40
39
40
39
37
31
24
19
16
17
17
15
12
10
10
8
4
0
-1
0
4
6
7
8
8
9
8
6
1
0
1
5
9
11
10
8
6
4
4
6
8
9
10
13
20
22
14
-3
-21
-35
-48
-65
-87
-107
-120
-127
-128
-124
-112
-94
-72
-52
-34
-21
-13
-8
-3
2
8
13
19
23
25
26
27
28
27
26
25
25
26
28
32
33
34
33
34
34
36
37
39
39
39
38
36
37
37
41
44
46
46
42
37
34
34
33
32
31
31
31
31
31
28
26
24
23
21
18
15
13
12
12
13
14
14
13
12
10
8
5
3
2
1
2
5
8
11
15
20
21
14
6
2
6
12
19
24
29
33
37
40
42
44
44
45
44
45
45
45
46
46
48
48
48
46
43
38
32
27
22
19
17
17
15
11
4
-1
-3
-3
-2
-1
0
1
1
1
1
1
0
0
-2
-4
-4
-3
0
2
2
2
0
-2
-5
-6
-5
-2
-2
-3
-5
-6
-4
2
10
11
0
-20
-44
-64
-86
-107
-126
-144
-151
-153
-138
-118
-95
-77
-63
-51
-41
-31
-23
-15
-10
-4
0
4
8
12
16
20
22
22
22
21
18
16
16
18
21
23
25
26
26
24
22
22
23
24
25
26
27
30
34
35
36
36
36
35
30
24
19
16
15
15
17
17
16
14
14
13
11
11
11
11
8
3
0
-3
-2
-2
-2
-2
-3
-3
-1
2
7
7
1
-6
-12
-14
-13
-12
-8
-5
-2
1
6
12
18
21
21
19
21
23
27
28
29
31
32
33
32
31
30
31
33
33
32
29
27
25
23
21
17
14
13
13
11
5
-4
-13
-19
-21
-21
-19
-17
-15
-14
-12
-10
-8
-7
-7
-7
-7
-7
-8
-10
-12
-11
-9
-7
-7
-7
-9
-10
-10
-9
-9
-8
-8
-7
-3
3
5
-1
-17
-36
-53
-69
-85
-108
-129
-149
-162
-163
-154
-133
-116
-99
-82
-63
-45
-34
-26
-22
-17
-12
-6
-3
-2
-2
-1
1
4
5
3
1
0
3
7
12
17
20
21
21
21
22
22
20
20
21
22
23
25
26
25
24
22
22
24
27
29
28
26
24
23
22
23
22
22
22
19
16
14
14
14
12
10
7
4
4
5
7
8
5
0
-4
-4
-2
-1
-2
-2
1
5
9
11
9
5
2
2
4
7
10
11
14
18
24
30
36
41
44
42
37
33
32
32
33
34
36
38
40
42
45
45
44
38
29
20
14
9
4
0
-1
-2
-3
-3
-2
0
3
6
7
5
3
1
0
-1
-2
-2
-3
-4
-3
-1
1
0
0
0
0
1
2
3
1
0
0
2
4
6
11
16
18
12
-4
-24
-43
-61
-81
-102
-120
-129
-133
-134
-129
-117
-100
-80
-58
-39
-23
-12
-4
1
4
6
8
11
15
18
21
23
25
27
29
30
31
30
29
27
27
27
28
30
35
42
49
51
45
37
29
28
30
32
34
35
37
37
38
39
43
45
45
40
32
27
24
22
20
21
21
22
21
21
20
20
19
17
16
16
16
15
15
12
8
4
3
3
2
1
2
3
5
5
6
8
10
13
16
21
24
24
22
21
23
27
35
41
49
52
54
53
55
57
62
71
78
89
92
83
60
29
0
-31
-65
-96
-124
-139
-152
-158
-155
-144
-122
-101
-77
-55
-30
-3
18
33
44
53
61
65
66
64
66
69
69
66
60
54
47
40
32
27
25
26
27
27
27
29
32
37
41
41
37
33
29
28
28
31
34
34
36
37
39
42
46
49
44
37
27
23
21
23
24
25
25
25
26
26
25
22
17
12
7
5
4
3
4
5
7
9
11
15
17
15
14
12
9
6
4
4
7
9
10
12
14
15
15
12
9
7
6
7
7
7
6
6
7
11
13
15
14
9
4
1
0
0
-1
0
2
5
7
7
5
3
2
2
3
5
5
5
5
4
4
6
9
13
16
17
14
8
5
6
11
16
19
22
24
27
29
32
37
41
44
42
39
39
39
41
41
43
44
46
46
46
44
42
39
35
30
23
16
10
5
1
0
1
3
5
7
8
7
5
4
3
4
7
9
9
7
5
3
3
4
5
6
8
10
11
11
10
8
5
3
2
4
7
10
14
12
2
-12
-28
-41
-58
-77
-99
-119
-128
-134
-127
-117
-100
-82
-63
-43
-28
-15
-6
0
3
8
12
14
14
14
16
20
23
25
25
26
25
23
22
22
25
27
29
29
30
31
32
35
36
39
41
40
38
33
31
30
30
31
32
35
36
37
36
34
30
27
25
23
23
23
23
22
23
23
26
28
27
22
14
7
3
3
4
5
7
7
6
5
5
5
6
6
7
8
10
12
13
15
17
18
21
25
29
32
36
41
47
51
54
54
53
54
53
54
54
56
57
57
54
51
52
53
54
52
49
45
41
38
34
30
26
21
16
11
8
5
3
2
1
2
3
6
5
4
1
-1
-2
-2
-1
0
1
1
0
0
0
3
7
11
9
3
-1
-4
-4
-3
-1
0
5
11
10
0
-19
-42
-63
-82
-102
-119
-132
-139
-138
-130
-112
-93
-73
-56
-41
-28
-19
-11
-4
4
10
15
19
21
22
24
25
27
28
30
32
34
37
39
41
40
39
39
42
46
45
45
44
44
43
42
44
46
48
47
45
43
43
44
45
45
42
41
40
41
42
43
42
39
37
34
32
29
28
26
25
24
23
24
25
24
21
18
16
14
12
11
12
13
14
15
14
11
10
12
15
16
14
13
13
14
17
21
25
28
30
31
33
35
38
40
42
44
45
49
52
51
47
43
41
41
44
44
42
39
36
34
31
30
26
23
18
13
10
5
2
0
1
3
4
5
5
5
5
6
9
12
15
15
12
8
7
8
9
8
7
6
6
5
4
4
4
5
6
8
10
14
19
19
10
-6
-24
-39
-54
-72
-91
-108
-118
-120
-113
-100
-86
-74
-61
-44
-27
-14
-5
0
5
10
14
16
17
18
19
20
22
25
27
29
30
30
32
34
38
39
38
36
36
38
38
40
40
42
42
42
42
41
41
40
40
39
40
40
39
37
36
35
35
36
36
35
31
26
22
21
20
20
21
21
22
20
17
15
13
10
6
3
3
4
5
6
7
8
9
8
6
3
2
2
3
5
9
13
15
19
23
26
29
29
30
33
37
39
39
38
37
40
43
46
46
46
45
43
42
39
38
35
35
34
32
27
22
17
14
11
8
6
6
4
3
1
-1
-1
0
0
0
0
-1
-1
0
1
3
4
5
7
11
14
15
11
4
-1
-4
-3
-3
-2
-2
-1
0
0
4
10
11
0
-18
-38
-55
-70
-88
-104
-123
-135
-139
-136
-121
-105
-85
-65
-44
-26
-12
-2
4
7
7
8
10
13
15
17
19
21
23
27
32
37
39
37
33
30
30
29
30
30
31
32
34
36
38
40
41
43
45
46
47
46
46
45
46
44
39
31
26
24
26
29
32
35
34
30
24
19
18
18
19
18
18
16
14
12
10
11
11
12
13
13
12
10
9
11
15
16
15
13
12
12
12
14
17
23
28
31
33
34
37
41
45
47
49
49
49
48
48
49
49
50
50
52
52
52
50
48
45
42
40
36
33
29
25
20
17
17
17
18
19
18
17
15
12
8
7
7
10
12
14
15
16
17
17
16
16
16
15
15
15
15
18
21
24
23
23
22
19
17
19
24
23
13
-4
-25
-41
-61
-80
-98
-112
-117
-118
-107
-91
-72
-53
-37
-21
-9
0
5
11
17
22
27
31
33
36
39
40
38
36
35
35
35
36
39
41
44
47
49
51
50
51
50
48
47
46
47
48
51
53
56
55
55
55
54
53
50
45
42
42
44
45
46
43
41
39
37
35
34
34
33
33
32
31
29
28
27
26
26
25
25
25
27
27
26
22
17
14
13
13
15
17
19
22
26
29
31
31
32
34
37
41
47
51
56
59
61
62
64
68
70
70
68
64
61
57
55
51
49
48
48
48
45
42
40
37
35
32
29
24
21
17
15
15
16
17
17
18
19
21
24
25
22
18
15
13
13
13
13
14
15
15
16
19
22
23
19
14
9
7
8
13
21
28
28
17
-1
-24
-47
-70
-94
-117
-131
-137
-133
-121
-99
-76
-54
-37
-23
-12
-3
4
10
15
20
26
31
36
40
43
42
36
30
26
29
33
38
39
40
41
43
46
48
53
53
53
50
48
48
48
49
50
53
55
57
57
59
58
55
50
45
41
37
34
34
35
37
38
39
40
41
41
40
36
31
26
22
21
19
18
15
14
15
17
20
22
22
19
16
14
12
12
13
16
18
19
18
18
21
25
30
32
35
39
43
46
48
49
49
50
47
47
47
48
48
50
53
55
54
48
45
41
41
41
40
38
34
31
28
28
26
21
15
10
8
8
8
8
7
8
9
10
11
11
10
11
11
10
8
9
12
14
16
17
18
16
13
11
9
9
9
11
12
13
16
21
22
16
2
-14
-32
-51
-75
-99
-118
-127
-127
-121
-107
-89
-68
-48
-30
-17
-7
-1
3
9
15
20
24
26
27
30
31
32
32
34
35
36
38
39
43
44
44
42
42
44
46
48
48
49
49
49
48
48
47
47
45
45
47
50
53
53
51
46
43
42
40
38
37
37
36
34
32
30
30
30
30
29
27
23
20
20
19
18
17
17
17
17
17
17
17
19
20
19
15
12
11
14
18
23
25
26
27
29
31
34
39
45
51
52
54
53
52
52
53
57
60
63
62
60
57
56
56
54
53
51
50
48
46
44
41
36
29
22
17
14
11
11
12
15
18
21
24
23
21
19
19
20
18
16
15
15
16
17
18
18
19
20
22
25
28
29
26
21
16
16
17
22
27
25
14
-5
-24
-39
-56
-73
-93
-105
-113
-114
-107
-97
-80
-62
-41
-22
-9
-1
4
9
14
19
25
29
31
33
35
37
38
41
41
43
43
43
43
43
44
46
48
49
50
52
53
55
57
58
57
55
52
50
51
51
52
53
58
60
58
51
44
39
38
39
40
42
43
44
43
41
41
39
40
40
38
33
27
23
20
19
18
19
21
24
25
25
24
22
20
18
15
15
17
19
22
25
30
32
32
31
32
35
41
46
50
51
54
55
57
57
58
59
59
59
57
54
51
51
51
49
47
46
46
44
40
34
29
24
20
18
16
16
16
17
18
17
16
14
13
12
13
13
15
16
19
22
21
18
13
11
11
12
13
13
14
13
14
15
17
20
23
26
29
30
26
18
3
-15
-33
-52
-70
-86
-102
-113
-120
-116
-104
-86
-67
-50
-31
-14
0
9
16
20
22
22
25
28
33
35
34
32
32
34
37
40
40
40
41
42
45
45
43
40
41
43
46
48
49
49
48
48
46
46
48
51
52
51
49
45
45
43
43
41
40
39
39
41
41
40
37
35
31
28
25
23
22
21
20
19
20
23
27
28
24
20
16
14
14
14
14
15
15
17
20
24
28
30
30
28
27
27
29
34
39
44
49
52
54
56
58
59
61
61
60
58
57
56
54
53
51
51
51
50
48
44
41
35
29
23
19
16
14
13
12
11
11
12
14
16
17
19
21
20
19
16
14
13
14
16
17
18
17
16
17
18
19
20
19
17
16
17
18
20
24
29
27
13
-7
-28
-44
-61
-80
-99
-114
-120
-119
-108
-92
-72
-54
-34
-17
-4
4
11
14
18
22
25
28
31
34
36
38
38
39
40
41
44
45
46
45
46
46
47
48
48
50
52
54
53
53
53
55
55
54
52
50
51
51
53
54
55
56
56
54
50
48
46
46
46
45
44
43
42
40
38
35
33
33
32
31
30
30
29
28
26
25
25
25
27
27
28
30
32
35
35
33
29
26
26
29
34
39
43
45
48
51
57
60
60
59
58
61
63
67
68
69
67
67
67
65
63
60
59
57
54
48
43
40
37
35
32
31
31
31
29
24
20
19
20
20
21
21
24
27
30
31
29
27
25
25
26
26
26
25
25
26
28
30
31
31
30
28
27
27
28
33
39
38
29
13
-3
-19
-39
-60
-83
-97
-102
-99
-88
-72
-52
-35
-18
-6
4
12
20
26
31
33
37
40
44
47
49
50
51
54
55
55
53
53
55
58
60
61
64
67
69
68
65
61
59
59
61
63
63
65
65
65
63
61
61
60
59
57
57
58
59
59
56
53
49
45
43
43
41
40
41
41
43
43
43
40
34
30
27
27
26
26
26
27
28
30
32
32
30
26
23
23
24
26
27
31
35
38
36
33
32
35
40
46
52
56
60
61
62
63
66
67
64
61
57
57
58
59
58
59
60
61
59
51
42
34
28
23
19
20
22
23
21
19
17
18
19
20
20
20
18
18
18
20
22
24
22
18
14
14
14
16
18
19
18
16
15
16
18
19
20
22
25
30
29
20
3
-15
-30
-45
-63
-82
-102
-115
-123
-116
-100
-81
-60
-40
-22
-9
0
4
8
12
17
24
30
31
31
31
31
32
34
35
37
38
38
38
41
43
44
43
43
42
42
42
41
43
45
47
47
48
47
46
45
43
42
42
41
38
37
36
36
35
32
30
28
27
27
28
27
26
24
22
21
20
18
16
15
14
11
9
7
7
8
10
10
9
7
5
3
2
2
4
6
8
8
10
11
13
16
19
21
23
25
30
35
39
43
44
45
45
44
43
44
44
44
44
44
43
41
38
35
34
34
31
28
24
22
17
13
8
6
4
2
1
1
1
0
-1
-2
-3
-1
0
0
1
3
4
3
1
0
1
2
4
4
3
0
0
0
1
2
1
0
-2
-2
0
5
8
3
-10
-28
-46
-62
-81
-102
-121
-136
-140
-138
-126
-109
-92
-74
-56
-38
-23
-10
-2
0
2
4
5
5
5
7
10
14
17
18
19
18
19
22
24
24
24
26
28
30
30
29
29
29
30
28
28
28
30
31
32
31
31
33
35
35
31
24
17
13
13
13
13
12
12
13
16
19
20
15
6
0
0
0
-1
-1
-2
-3
-4
-5
-5
-6
-6
-7
-7
-7
-6
-6
-6
-7
-7
-5
-1
2
4
5
6
7
10
13
16
18
20
24
27
28
27
26
27
29
30
31
31
30
30
30
29
29
30
29
23
14
5
0
-3
-5
-7
-8
-10
-12
-12
-13
-13
-12
-11
-11
-14
-18
-20
-20
-19
-17
-15
-14
-12
-11
-10
-10
-11
-13
-15
-16
-18
-18
-17
-16
-15
-14
-14
-12
-9
-1
3
0
-15
-38
-61
-79
-94
-110
-127
-143
-153
-156
-147
-130
-109
-91
-73
-57
-42
-31
-24
-18
-15
-11
-7
-4
-1
1
4
6
8
8
8
7
7
8
11
13
16
17
18
19
21
23
21
20
18
17
16
18
21
24
25
24
23
22
20
17
14
13
13
12
11
10
11
12
13
12
7
2
-1
-4
-5
-6
-6
-6
-7
-7
-8
-9
-9
-11
-16
-19
-21
-22
-20
-18
-18
-17
-18
-17
-18
-20
-22
-23
-22
-19
-16
-12
-8
-4
-1
0
2
5
9
13
15
17
17
15
14
13
14
16
17
18
21
22
21
17
10
3
-3
-6
-8
-10
-13
-16
-18
-19
-20
-21
-24
-28
-33
-35
-35
-33
-32
-31
-29
-27
-25
-24
-23
-25
-28
-31
-33
-33
-32
-30
-29
-29
-30
-31
-30
-30
-30
-31
-29
-28
-25
-19
-13
-18
-33
-54
-77
-96
-119
-140
-159
-172
-173
-171
-154
-139
-119
-104
-88
-73
-60
-49
-40
-32
-26
-21
-18
-15
-14
-15
-15
-16
-15
-15
-15
-15
-14
-12
-10
-8
-7
-6
-6
-6
-5
-4
-2
-1
0
0
0
-1
-2
-1
0
0
2
2
0
-5
-9
-12
-12
-11
-11
-13
-13
-14
-16
-19
-21
-21
-21
-21
-24
-26
-30
-32
-34
-36
-36
-39
-39
-39
-38
-37
-37
-39
-43
-45
-48
-47
-47
-47
-47
-46
-43
-40
-35
-33
-32
-33
-32
-28
-23
-17
-12
-9
-9
-8
-9
-8
-6
-5
-5
-5
-6
-7
-7
-8
-8
-8
-7
-7
-8
-13
-19
-25
-32
-38
-44
-48
-49
-50
-51
-52
-52
-53
-54
-54
-55
-55
-55
-54
-53
-51
-48
-47
-45
-48
-51
-54
-56
-56
-55
-53
-53
-52
-51
-50
-49
-50
-49
-50
-49
-47
-41
-37
-39
-52
-70
-88
-106
-122
-143
-159
-177
-184
-183
-177
-161
-147
-127
-108
-85
-68
-59
-55
-55
-53
-50
-45
-41
-36
-33
-31
-30
-29
-28
-25
-22
-18
-17
-19
-23
-26
-27
-26
-25
-22
-19
-16
-16
-15
-14
-14
-14
-14
-15
-16
-16
-17
-19
-20
-23
-24
-23
-22
-21
-20
-20
-22
-24
-27
-29
-33
-35
-35
-36
-37
-39
-39
-41
-42
-45
-46
-46
-48
-48
-50
-50
-51
-51
-51
-51
-49
-47
-44
-43
-44
-46
-50
-52
-53
-50
-47
-42
-37
-32
-27
-24
-24
-25
-24
-20
-16
-14
-13
-13
-12
-9
-4
0
0
-2
-6
-7
-10
-15
-20
-24
-24
-25
-27
-32
-39
-44
-48
-48
-49
-48
-47
-46
-47
-49
-49
-50
-48
-46
-42
-39
-37
-36
-40
-45
-50
-50
-49
-45
-43
-42
-41
-41
-41
-42
-44
-47
-48
-48
-47
-44
-39
-31
-28
-32
-46
-66
-86
-104
-121
-139
-153
-165
-170
-168
-159
-143
-128
-111
-96
-79
-65
-54
-45
-39
-33
-29
-24
-22
-23
-24
-24
-22
-19
-17
-15
-14
-14
-14
-14
-11
-9
-7
-5
-2
0
1
0
-1
-3
-4
-4
-3
-2
0
0
0
-1
-1
0
4
7
7
0
-7
-13
-16
-17
-16
-16
-15
-14
-13
-13
-13
-14
-14
-16
-20
-25
-29
-30
-31
-32
-32
-31
-26
-24
-26
-31
-34
-35
-35
-35
-35
-32
-28
-24
-20
-17
-14
-12
-10
-8
-6
-2
1
4
7
8
8
9
12
18
23
23
16
10
6
5
5
4
3
2
0
-2
-3
-5
-8
-13
-20
-26
-30
-33
-34
-35
-33
-31
-27
-26
-26
-27
-29
-30
-31
-30
-29
-30
-31
-32
-32
-32
-31
-29
-26
-24
-24
-25
-26
-27
-28
-29
-31
-32
-31
-27
-23
-29
-44
-64
-80
-94
-111
-132
-157
-172
-181
-175
-162
-143
-124
-106
-83
-63
-49
-43
-38
-34
-27
-22
-17
-13
-11
-10
-10
-9
-7
-6
-5
-4
-4
-4
-3
-2
0
1
3
5
6
6
6
7
10
13
13
13
12
11
9
8
9
9
8
8
7
7
5
3
1
1
1
1
0
-1
-4
-6
-8
-10
-11
-10
-9
-9
-10
-13
-16
-18
-18
-18
-18
-19
-20
-20
-19
-19
-19
-21
-24
-24
-24
-22
-21
-20
-17
-14
-11
-8
-6
-3
1
7
13
16
16
16
15
15
15
15
17
18
18
18
21
24
24
21
15
9
3
0
-2
-4
-7
-11
-16
-18
-18
-16
-16
-18
-21
-26
-29
-31
-29
-27
-25
-23
-21
-20
-17
-13
-10
-12
-18
-22
-25
-27
-27
-26
-26
-25
-22
-22
-20
-18
-15
-13
-12
-12
-9
-7
-13
-29
-50
-72
-89
-108
-126
-144
-159
-164
-167
-156
-142
-120
-100
-80
-60
-45
-33
-26
-22
-19
-15
-11
-7
-3
1
4
7
9
11
11
10
8
9
12
14
14
13
12
14
16
18
18
16
14
13
14
16
18
19
19
20
21
22
23
24
22
20
18
18
16
14
12
13
15
13
12
10
7
3
-1
-3
-6
-6
-6
-5
-5
-6
-6
-7
-6
-6
-6
-7
-9
-10
-11
-11
-10
-8
-6
-3
-1
-2
-5
-7
-6
-2
2
7
11
15
20
24
26
27
29
29
28
28
28
30
30
29
29
28
27
25
24
22
21
18
13
7
1
-3
-6
-8
-8
-7
-7
-7
-10
-13
-14
-13
-12
-12
-12
-12
-11
-9
-6
-3
-3
-5
-5
-4
-4
-8
-13
-14
-13
-11
-12
-13
-14
-15
-12
-10
-7
-4
2
6
2
-12
-31
-51
-68
-84
-104
-121
-136
-144
-142
-135
-119
-103
-83
-64
-47
-34
-26
-19
-12
-5
-1
3
6
7
8
10
12
15
18
21
21
20
19
18
20
22
23
24
23
22
24
26
27
28
30
31
32
33
34
34
34
30
28
27
27
28
28
27
24
24
24
26
24
21
18
15
12
9
9
9
11
12
12
11
8
5
3
2
0
-5
-6
-5
-3
-1
-1
-3
-4
-2
0
-1
-4
-6
-5
-2
0
3
6
8
9
10
12
13
15
18
22
26
28
30
30
31
30
30
28
27
26
24
24
23
23
23
25
27
27
25
16
6
-3
-9
-10
-10
-9
-9
-8
-7
-6
-3
0
2
-1
-7
-11
-12
-10
-9
-8
-7
-5
-5
-5
-4
-4
-3
-2
0
1
2
1
-1
-4
-7
-8
-8
-4
1
4
-2
-17
-36
-52
-66
-84
-104
-120
-131
-132
-129
-118
-105
-87
-67
-46
-29
-18
-13
-10
-9
-8
-6
-4
0
3
6
8
10
13
17
19
19
18
13
9
9
10
12
14
18
22
26
28
27
24
23
22
21
19
17
17
17
18
21
24
26
25
21
15
11
8
7
6
5
5
6
8
8
7
4
0
-3
-4
-5
-5
-6
-6
-6
-7
-7
-8
-7
-5
-2
-2
-7
-14
-18
-20
-19
-17
-14
-12
-9
-6
-2
1
4
5
3
4
6
11
14
17
19
20
21
22
24
26
29
30
31
32
30
27
22
18
17
17
15
13
9
5
2
0
-4
-8
-12
-15
-18
-19
-19
-18
-17
-16
-16
-16
-15
-14
-13
-12
-11
-12
-14
-15
-15
-15
-12
-9
-11
-15
-17
-16
-14
-14
-14
-14
-14
-14
-13
-8
-6
-11
-28
-49
-65
-78
-90
-110
-128
-146
-153
-148
-136
-113
-94
-76
-62
-48
-39
-31
-24
-16
-9
-4
0
4
7
8
10
11
12
12
11
11
12
15
18
22
24
23
21
19
18
18
19
20
22
23
24
24
24
24
23
24
24
25
24
23
22
21
20
19
19
19
21
23
23
20
14
9
5
4
3
2
2
0
0
0
0
1
0
-2
-5
-5
-5
-4
-3
-3
-2
-1
0
2
5
7
8
6
6
6
9
12
16
19
23
27
31
34
35
35
36
37
38
38
36
34
36
37
39
38
35
32
29
26
24
22
19
15
9
5
2
0
-2
-4
-6
-8
-8
-6
-3
-1
0
1
1
0
0
-1
-2
-3
-3
-2
-1
0
2
6
9
9
6
2
-2
-5
-6
-4
0
7
13
12
2
-14
-31
-46
-66
-89
-114
-133
-137
-137
-122
-106
-85
-66
-48
-31
-18
-7
0
8
15
20
23
23
22
21
19
19
21
23
25
27
30
32
34
35
36
39
41
43
43
42
40
37
36
37
39
42
47
50
52
51
48
44
39
37
35
36
37
38
36
36
35
33
32
30
31
31
31
28
25
23
21
20
19
19
19
18
17
16
14
11
10
9
10
10
9
8
9
10
12
14
15
16
18
20
23
26
29
33
38
43
47
50
50
51
52
56
59
63
63
58
52
49
50
50
50
48
46
44
40
35
30
26
21
18
15
14
13
11
9
6
6
6
7
8
9
9
10
12
12
11
9
7
7
7
9
9
10
11
11
11
11
11
12
14
14
12
11
11
14
19
22
15
-2
-23
-42
-59
-79
-101
-118
-126
-125
-118
-106
-91
-72
-54
-35
-20
-8
0
7
16
24
30
30
28
27
30
33
38
37
36
35
36
38
39
41
41
43
43
45
48
51
52
49
47
46
48
49
50
50
49
50
52
56
57
56
51
48
44
41
41
40
40
40
40
41
42
41
38
33
30
31
31
28
24
22
21
22
24
25
26
25
25
25
24
21
16
15
15
17
18
17
18
19
22
24
25
25
27
29
34
40
45
49
50
51
51
51
51
49
51
52
56
56
56
55
52
48
42
41
40
41
39
36
31
26
23
20
17
14
13
13
13
13
12
12
12
14
14
15
13
11
9
7
7
10
13
15
17
19
18
15
12
11
12
12
12
10
10
12
15
18
25
29
27
14
-6
-29
-46
-63
-78
-95
-106
-113
-110
-98
-84
-71
-59
-44
-28
-13
-1
6
9
14
19
25
28
32
35
36
36
36
37
37
38
38
40
42
45
47
48
49
50
51
49
48
47
47
48
48
49
49
52
54
55
55
54
53
50
48
45
44
43
42
41
41
41
39
38
38
38
37
34
30
28
28
28
27
25
24
24
22
22
22
24
27
29
27
21
14
11
11
13
17
20
23
26
28
29
29
28
28
31
35
40
46
51
56
58
59
60
61
62
62
61
59
58
57
60
62
66
65
63
60
52
44
36
31
29
27
25
23
21
20
19
16
15
15
16
18
18
18
19
21
23
24
24
21
20
17
16
16
19
21
25
27
27
24
19
14
11
11
13
15
18
22
27
28
20
3
-13
-27
-42
-62
-85
-104
-110
-113
-108
-100
-86
-69
-51
-30
-12
3
13
18
21
24
28
31
31
30
30
33
37
40
42
42
44
47
51
53
53
51
49
48
48
50
51
52
54
56
59
63
66
63
57
50
46
46
48
50
49
49
46
46
46
47
50
50
52
49
44
38
36
37
39
39
35
33
31
31
31
32
32
33
31
25
20
17
18
20
22
23
25
26
27
29
31
32
31
31
32
35
38
42
46
51
56
60
63
64
64
62
60
59
60
63
65
66
67
66
66
64
60
55
50
47
44
41
36
32
29
28
27
26
27
27
28
25
22
19
17
16
15
16
18
21
22
24
24
23
22
21
21
20
20
20
21
22
22
24
24
26
28
31
35
38
38
31
16
-4
-24
-42
-58
-75
-91
-101
-106
-107
-102
-94
-79
-62
-40
-20
-5
4
11
16
21
27
32
37
40
43
43
43
41
40
40
42
44
46
48
49
54
57
58
55
51
49
48
49
49
51
52
54
57
57
57
56
56
55
54
53
54
55
54
55
54
53
49
46
44
44
44
42
42
40
39
38
37
34
30
28
26
27
25
25
25
27
29
29
28
25
25
23
22
21
22
25
28
32
36
36
34
31
32
35
43
49
54
57
59
61
62
64
66
71
74
75
67
60
56
55
56
55
54
53
54
54
53
48
38
28
19
14
12
11
12
11
12
13
15
18
21
22
20
18
15
14
15
16
16
15
15
15
17
20
24
28
29
24
17
10
7
7
10
13
16
21
27
28
20
4
-18
-40
-63
-84
-108
-125
-134
-134
-125
-108
-85
-62
-38
-18
-6
0
4
8
13
17
20
22
25
29
32
36
38
40
39
40
40
42
44
46
48
50
54
56
58
57
56
55
53
53
52
55
56
59
59
58
56
54
53
52
51
50
49
48
48
48
50
52
50
47
43
39
37
36
35
33
32
30
29
27
27
31
35
36
33
26
18
14
13
14
17
19
21
23
26
28
31
33
32
31
29
31
34
38
41
46
51
55
59
61
63
61
58
56
56
58
59
62
62
62
60
58
57
56
55
50
45
39
35
32
27
22
19
18
18
19
20
20
19
17
16
16
16
15
14
15
15
16
16
18
20
22
24
23
21
18
17
16
16
16
16
16
16
16
17
24
31
34
24
6
-11
-28
-44
-64
-87
-100
-110
-109
-106
-97
-85
-69
-49
-32
-15
-3
4
9
12
17
22
28
33
36
39
41
41
40
40
41
42
46
50
54
55
54
53
52
51
50
50
50
50
50
52
53
54
56
58
59
60
59
56
53
51
50
49
48
47
47
46
48
50
53
51
46
39
33
31
29
29
28
28
27
28
28
28
30
31
33
30
26
20
18
19
19
19
19
19
21
23
26
31
36
41
43
42
41
40
40
40
43
46
50
54
58
60
62
66
68
68
66
63
61
61
63
65
64
61
56
51
48
47
46
44
38
32
27
23
22
21
20
19
18
19
21
23
24
26
28
29
28
29
31
31
28
25
24
24
24
23
22
22
21
22
23
25
28
32
36
39
41
40
31
15
-3
-21
-39
-57
-75
-90
-100
-107
-106
-98
-82
-67
-51
-34
-19
-5
5
15
23
29
33
36
38
40
40
42
44
46
48
48
48
49
51
53
54
53
52
52
50
50
48
49
48
50
52
54
55
54
54
55
56
55
55
56
54
54
51
52
50
50
48
48
47
45
43
40
39
36
33
30
29
30
31
29
27
26
26
24
21
19
18
18
19
20
21
22
24
24
23
20
19
21
25
30
34
36
36
34
34
36
42
48
53
57
57
57
55
56
56
59
61
61
61
60
61
59
58
54
51
50
49
49
45
40
32
25
20
18
18
17
16
14
13
12
13
14
14
15
16
19
20
20
18
17
16
15
16
18
19
19
18
16
16
16
17
18
17
14
10
9
13
19
22
16
0
-20
-38
-53
-71
-91
-108
-120
-122
-119
-105
-87
-67
-49
-33
-18
-6
3
8
13
18
24
30
35
36
36
32
28
27
28
31
32
33
35
37
39
42
44
46
47
47
48
48
48
47
48
49
48
47
46
47
48
49
49
50
50
48
45
40
38
35
34
34
35
35
36
38
40
39
34
28
24
21
20
20
20
18
16
17
17
16
15
15
16
18
17
14
12
10
11
13
16
20
23
25
26
28
32
36
37
40
43
48
50
53
55
55
56
58
62
60
57
52
51
50
49
47
45
44
42
41
38
33
27
20
14
10
7
7
7
7
6
6
7
9
12
13
14
13
11
8
6
6
7
8
9
11
13
13
13
15
14
12
8
5
4
5
8
11
16
21
20
8
-11
-31
-47
-63
-82
-108
-125
-135
-130
-119
-104
-86
-68
-45
-24
-9
-2
1
4
8
14
19
23
27
29
33
36
39
41
41
39
36
36
35
37
39
41
44
47
49
51
53
54
55
54
52
51
47
45
43
43
45
48
50
51
50
48
46
44
43
43
44
44
41
40
38
36
35
36
37
35
34
32
32
32
31
29
26
24
23
23
22
19
19
20
23
24
25
24
21
19
20
22
24
26
28
31
35
41
47
53
56
58
59
58
59
59
61
62
65
67
68
67
64
61
57
55
53
50
47
45
43
38
34
30
27
22
19
16
15
14
14
11
8
6
8
11
12
12
13
15
16
17
17
17
16
16
16
15
14
12
11
10
11
11
11
12
14
15
15
16
18
17
6
-10
-28
-47
-67
-90
-111
-122
-129
-128
-125
-109
-92
-72
-53
-35
-19
-6
2
7
11
15
18
23
27
31
32
32
32
32
32
33
36
39
41
43
43
42
41
41
43
44
46
47
45
43
42
44
46
49
49
50
49
47
43
41
40
39
40
39
38
37
36
37
38
37
34
33
30
29
27
25
22
16
13
12
13
14
15
15
15
15
17
16
13
10
7
6
6
5
5
7
10
13
16
18
18
17
17
19
24
29
34
38
38
38
40
42
44
44
45
45
45
45
44
44
42
42
41
39
35
30
25
20
17
14
12
11
10
9
8
6
3
0
-2
-4
-3
0
2
4
5
7
9
9
6
2
-1
-2
-3
-3
-4
-4
-2
-1
0
1
3
6
7
6
3
1
4
8
7
-4
-24
-45
-63
-81
-98
-117
-132
-141
-142
-131
-118
-101
-86
-69
-50
-32
-18
-8
-4
-2
2
6
10
12
15
16
19
23
27
30
29
27
23
22
21
23
25
28
31
33
34
33
34
35
37
35
34
33
33
33
33
34
34
35
36
37
37
33
30
26
24
22
21
20
20
19
18
17
16
15
14
13
14
13
10
6
4
4
5
4
1
0
0
0
-1
-2
-2
-2
-2
-2
-2
-1
0
1
2
5
8
13
16
17
15
15
17
21
26
31
35
36
36
34
35
38
42
44
45
43
37
32
29
28
28
28
25
19
14
9
5
2
0
-1
-2
-1
-1
-2
-4
-5
-4
-2
-2
-3
-4
-4
-4
-3
-2
-2
-1
-1
-2
-5
-6
-6
-6
-6
-5
-2
0
2
1
-1
-4
-3
0
5
4
-6
-25
-46
-61
-76
-92
-110
-124
-133
-138
-134
-125
-108
-89
-69
-50
-34
-23
-14
-9
-6
-4
-1
2
7
12
13
14
14
14
15
18
20
21
21
22
24
25
27
29
32
32
31
30
28
28
27
27
28
29
29
29
31
33
35
35
35
32
30
29
27
27
27
28
27
25
24
25
26
25
21
17
14
12
12
13
14
13
9
5
2
3
4
5
6
7
9
9
8
6
5
5
7
10
11
13
15
19
24
29
33
35
36
37
40
42
45
45
43
43
44
47
50
52
52
51
49
46
43
39
38
36
34
29
24
19
15
11
9
7
6
6
4
3
3
4
5
6
7
6
6
6
6
7
9
13
15
14
9
4
1
1
3
5
6
8
10
11
8
4
1
2
7
11
7
-6
-27
-46
-63
-77
-98
-115
-130
-135
-132
-122
-103
-84
-63
-44
-27
-16
-8
-3
1
6
11
15
19
22
24
24
24
26
28
30
31
32
33
34
36
38
38
37
37
38
40
40
40
41
41
42
42
42
41
41
41
41
41
38
37
36
37
37
36
36
34
34
33
32
32
31
30
28
27
26
26
25
25
25
23
19
14
10
8
8
9
10
12
12
12
13
15
14
13
13
13
14
16
17
19
21
23
28
31
34
37
40
44
48
51
51
50
50
51
52
50
48
46
45
44
44
45
44
43
38
33
27
23
20
18
15
12
10
9
10
11
10
7
5
4
3
3
4
5
5
6
8
10
12
12
10
7
4
5
7
8
9
7
4
2
2
3
7
9
12
17
23
23
15
-4
-29
-52
-71
-90
-107
-123
-130
-132
-120
-104
-85
-66
-49
-29
-15
-5
0
6
10
13
13
14
16
18
22
25
27
28
29
29
30
31
31
31
31
33
33
34
34
34
35
37
38
39
40
38
36
36
37
38
39
40
38
38
36
36
34
33
32
30
28
25
23
22
24
26
28
28
23
17
10
7
6
7
7
8
7
6
5
5
5
7
7
5
3
1
0
0
1
3
5
8
10
12
14
17
21
24
29
33
34
34
33
33
34
36
38
41
42
42
43
42
40
36
32
30
29
28
26
24
21
17
12
4
-1
-4
-5
-5
-7
-10
-11
-11
-9
-9
-10
-9
-7
-6
-6
-8
-9
-11
-11
-9
-7
-6
-6
-4
-2
-1
-4
-7
-10
-11
-11
-10
-8
-7
-2
4
8
3
-11
-33
-56
-76
-96
-116
-133
-145
-150
-147
-132
-115
-96
-78
-60
-44
-31
-22
-16
-11
-8
-4
-1
2
3
3
2
1
3
6
9
11
12
13
14
15
15
14
12
12
14
17
18
20
21
21
21
19
19
19
20
20
19
17
14
14
15
16
15
12
9
7
5
6
6
6
5
4
2
0
-2
-3
-1
0
0
-4
-11
-15
-17
-16
-14
-12
-11
-10
-10
-10
-11
-12
-13
-16
-18
-18
-15
-12
-8
-6
-6
-5
-4
-1
3
9
15
18
19
18
17
18
20
23
25
25
23
22
22
22
21
19
17
17
16
12
5
-1
-6
-9
-11
-13
-14
-17
-18
-20
-21
-21
-21
-21
-22
-22
-22
-21
-21
-20
-20
-21
-21
-22
-20
-19
-17
-17
-19
-21
-24
-24
-23
-22
-20
-18
-17
-16
-15
-13
-10
-14
-26
-43
-63
-79
-99
-120
-139
-152
-157
-156
-147
-136
-119
-103
-86
-68
-52
-40
-31
-25
-21
-18
-17
-15
-12
-8
-5
-4
-3
-3
-1
0
0
-1
-2
0
3
6
8
8
6
5
5
7
11
14
14
12
8
6
5
6
6
7
7
7
5
4
2
1
1
0
0
0
-1
-2
-5
-6
-7
-8
-10
-11
-12
-13
-14
-15
-16
-19
-21
-24
-25
-25
-24
-24
-23
-21
-18
-16
-17
-22
-26
-28
-27
-25
-22
-20
-18
-14
-10
-7
-5
-4
-3
0
4
8
12
14
15
16
19
23
24
23
18
13
9
7
6
5
5
5
5
3
1
-1
-3
-6
-11
-17
-24
-28
-30
-30
-31
-30
-28
-27
-26
-25
-24
-24
-21
-18
-15
-16
-17
-20
-24
-28
-30
-32
-33
-31
-29
-26
-24
-24
-26
-30
-32
-31
-27
-21
-17
-22
-35
-54
-72
-87
-108
-130
-153
-165
-169
-168
-155
-140
-118
-99
-77
-59
-43
-31
-26
-24
-25
-23
-22
-18
-14
-11
-8
-6
-2
1
5
7
6
4
2
2
4
5
6
7
9
12
15
17
16
13
10
8
9
10
11
11
12
13
15
17
16
13
9
6
3
1
0
0
1
2
2
1
1
1
1
-2
-6
-9
-10
-11
-15
-19
-20
-19
-17
-16
-13
-11
-9
-9
-13
-16
-16
-13
-12
-13
-14
-14
-13
-10
-6
-1
3
8
14
18
22
23
24
25
26
27
29
29
28
27
27
28
29
31
30
29
26
23
20
15
9
3
0
-3
-5
-7
-8
-10
-12
-13
-14
-13
-13
-14
-15
-15
-14
-13
-11
-7
-5
-5
-8
-12
-14
-14
-13
-11
-10
-8
-7
-5
-5
-6
-8
-8
-10
-11
-10
-7
-2
0
-9
-28
-48
-65
-78
-91
-108
-123
-140
-146
-146
-134
-115
-96
-74
-56
-39
-27
-18
-11
-7
-3
0
3
7
9
10
11
12
14
16
17
18
19
20
22
23
23
24
24
25
26
28
31
32
34
32
31
29
28
28
29
31
31
32
31
32
31
31
31
31
29
27
25
23
22
19
18
17
15
15
14
13
11
10
10
10
11
10
9
7
5
4
3
5
7
8
8
9
8
8
6
3
3
5
9
13
18
21
24
26
28
33
38
44
46
47
47
46
46
48
52
55
56
52
50
48
46
44
43
43
40
38
33
28
22
16
13
12
14
15
15
13
10
7
5
4
4
4
4
3
3
4
5
7
8
9
10
10
11
11
9
7
6
5
6
6
7
9
9
8
7
10
17
20
13
-3
-25
-46
-65
-84
-103
-119
-127
-130
-124
-111
-93
-73
-53
-33
-17
-6
0
3
6
10
15
19
22
25
26
26
26
26
29
31
34
37
40
43
46
47
45
44
41
41
40
40
40
39
40
42
48
50
49
44
40
38
38
39
40
41
40
40
38
38
39
40
40
36
33
28
26
23
22
21
21
22
22
22
21
18
14
9
5
4
5
7
9
9
8
7
6
7
7
8
10
13
16
18
18
16
15
17
21
24
28
32
35
37
38
41
43
48
52
53
52
46
44
42
42
40
38
35
33
30
26
24
20
18
15
11
7
2
0
0
0
1
0
0
0
-1
-1
0
0
2
4
5
4
1
-2
-3
-2
0
1
0
-2
-5
-5
-3
-1
0
-1
-2
-2
0
4
8
9
1
-16
-36
-55
-72
-90
-107
-119
-129
-131
-131
-121
-106
-90
-74
-58
-42
-29
-20
-12
-6
0
7
13
17
15
14
12
11
9
8
9
11
13
16
18
20
23
25
28
28
26
25
25
27
27
26
24
23
23
24
26
27
27
25
23
19
17
16
14
14
13
13
13
13
13
13
13
12
10
7
4
0
-2
-4
-6
-5
-4
-2
-1
-2
-4
-5
-5
-7
-12
-16
-17
-14
-12
-11
-9
-9
-7
-5
-1
1
3
1
0
2
6
11
18
23
27
29
30
31
29
28
27
26
25
24
25
25
26
25
24
24
24
23
21
19
12
3
-5
-10
-13
-14
-15
-15
-15
-15
-14
-12
-9
-8
-8
-9
-11
-12
-12
-12
-12
-12
-13
-13
-12
-12
-13
-12
-12
-11
-11
-12
-13
-13
-12
-12
-11
-7
0
3
-1
-17
-39
-59
-79
-98
-119
-136
-145
-150
-141
-131
-111
-94
-77
-60
-45
-32
-22
-14
-9
-4
-1
2
7
9
10
10
9
11
15
17
16
14
13
14
16
18
21
24
27
28
28
26
24
22
22
23
25
27
28
28
29
30
34
36
34
28
21
18
16
16
16
16
16
16
17
16
16
15
15
15
15
14
11
7
3
0
0
0
0
0
1
1
0
-1
-4
-4
-2
0
1
2
3
3
4
6
7
9
12
16
22
27
32
36
39
40
41
41
42
42
40
39
38
38
38
39
39
37
36
34
32
29
25
22
19
15
11
7
5
4
3
2
3
4
4
2
1
1
0
0
0
2
4
4
4
3
2
1
2
2
2
3
3
4
4
5
4
4
3
4
4
6
10
12
5
-12
-33
-49
-63
-78
-98
-116
-130
-134
-130
-118
-97
-79
-59
-43
-28
-16
-9
-3
3
10
14
15
16
19
22
26
27
27
25
25
25
26
28
29
30
30
31
32
32
34
34
36
38
39
39
39
38
38
39
39
41
42
42
39
36
34
33
33
33
33
32
32
30
29
28
26
24
20
18
16
15
15
15
15
14
12
11
10
9
7
7
7
7
8
8
10
11
11
12
12
12
12
13
15
17
19
22
26
29
34
39
42
46
47
48
47
46
47
49
50
48
48
47
47
44
40
39
37
36
34
31
25
19
15
11
10
8
6
5
4
3
3
3
4
4
4
4
4
3
3
2
2
2
3
3
5
6
5
3
1
1
3
4
4
3
1
0
1
4
8
10
5
-9
-32
-53
-70
-85
-101
-117
-128
-136
-135
-128
-114
-96
-77
-58
-39
-23
-14
-9
-4
0
4
9
12
14
16
16
17
17
19
22
24
25
27
28
29
31
31
32
31
31
31
32
33
34
35
34
34
32
33
33
34
33
31
31
30
31
29
28
26
25
25
25
25
23
22
20
19
18
16
15
12
7
1
-2
-4
-4
-4
-3
-3
-3
-2
-3
-4
-5
-7
-10
-11
-10
-8
-5
-4
-3
-2
-1
0
2
6
10
15
22
27
30
30
31
31
32
32
34
34
35
35
33
34
33
34
34
34
33
29
25
18
12
6
2
0
-3
-6
-9
-13
-16
-18
-17
-16
-15
-14
-14
-14
-14
-13
-14
-14
-15
-16
-16
-16
-16
-17
-16
-16
-17
-18
-19
-18
-18
-17
-16
-14
-13
-12
-11
-7
-5
-10
-24
-43
-60
-76
-94
-116
-140
-156
-166
-163
-155
-135
-111
-88
-69
-55
-43
-36
-29
-23
-17
-12
-9
-10
-11
-13
-14
-12
-9
-5
-4
-3
-3
-3
-1
2
5
7
9
11
14
16
17
17
18
20
22
24
24
21
18
16
15
17
18
19
18
16
16
15
13
9
6
4
4
4
4
5
3
-1
-6
-10
-13
-15
-15
-13
-12
-11
-12
-13
-15
-15
-16
-17
-17
-16
-14
-11
-8
-7
-8
-9
-10
-8
-4
0
2
1
-2
-4
-4
-2
0
4
10
16
21
22
22
22
23
25
27
28
29
30
29
29
28
26
24
23
22
21
17
11
5
0
-5
-9
-11
-13
-14
-15
-15
-14
-13
-11
-11
-10
-10
-9
-9
-9
-9
-9
-8
-7
-8
-9
-10
-10
-9
-7
-6
-7
-9
-10
-11
-11
-11
-12
-11
-7
-1
2
-5
-22
-41
-60
-76
-99
-121
-137
-148
-148
-147
-134
-121
-103
-85
-66
-47
-34
-23
-17
-11
-7
-3
0
2
4
6
8
9
9
11
13
14
15
16
17
17
19
19
20
21
22
22
22
23
25
28
31
33
37
39
44
45
42
37
31
27
26
27
26
27
28
29
27
22
18
13
11
10
13
12
9
6
2
1
2
2
1
0
-1
-2
-3
-2
-2
-2
-2
-3
-3
-3
-3
-1
2
6
9
12
14
16
19
20
20
19
19
20
23
28
35
39
39
39
37
37
37
38
39
40
39
39
39
39
39
38
37
36
36
35
31
29
24
16
9
5
3
3
3
3
3
3
3
3
4
6
8
11
12
13
13
13
15
15
15
15
17
16
15
12
9
9
10
13
15
15
11
10
12
18
18
9
-6
-26
-44
-57
-71
-86
-101
-113
-122
-127
-122
-111
-93
-75
-55
-36
-18
-6
0
3
4
9
17
27
36
42
40
34
27
26
28
31
35
34
33
32
33
35
38
40
41
44
47
53
57
62
61
54
48
43
44
45
49
51
52
51
46
43
41
43
44
45
45
46
49
46
40
32
28
28
28
27
24
19
17
17
18
20
23
24
23
23
22
21
19
16
16
17
21
22
20
19
18
18
19
19
21
24
28
32
39
45
53
59
63
64
63
61
58
59
59
61
60
59
58
54
53
52
54
54
55
55
51
46
39
36
34
34
32
31
29
25
19
13
11
13
19
24
23
18
14
12
13
16
19
20
20
19
19
18
17
18
19
20
22
24
25
24
22
20
18
18
21
28
30
20
0
-21
-38
-54
-74
-94
-109
-117
-120
-119
-107
-90
-70
-49
-29
-11
0
6
9
13
18
22
25
27
28
30
31
33
36
42
47
49
49
46
45
43
43
42
42
41
41
42
43
44
44
45
46
49
52
53
52
49
49
49
51
52
52
51
45
39
33
30
29
29
30
31
31
29
25
20
16
14
15
18
20
21
17
12
8
8
9
10
13
15
17
16
13
8
5
5
6
6
5
5
8
11
16
21
26
28
29
28
30
34
40
44
46
49
51
52
48
45
45
47
49
52
53
51
46
40
38
37
36
31
26
20
15
13
10
8
6
6
8
10
10
10
12
15
17
17
15
14
13
12
9
4
1
2
6
10
13
14
13
12
12
13
15
18
19
21
22
25
27
23
12
-4
-22
-37
-54
-73
-96
-112
-125
-128
-120
-106
-83
-63
-42
-26
-14
-8
-5
-2
3
9
16
20
26
31
36
38
34
29
26
26
30
35
40
42
41
39
38
41
47
52
54
51
44
40
38
40
40
40
40
41
44
46
48
47
44
40
36
34
35
38
38
35
30
25
22
22
23
23
23
23
23
24
25
22
16
12
10
10
10
10
11
12
12
13
15
18
20
20
22
24
25
25
24
22
19
17
17
19
23
29
35
40
44
47
49
48
50
53
57
59
58
54
49
48
50
53
55
53
49
43
39
35
31
28
26
24
22
19
15
10
6
6
8
10
11
12
13
14
16
18
18
19
19
22
24
25
24
23
23
24
25
24
24
25
28
30
30
28
26
27
32
38
32
18
1
-14
-29
-50
-74
-92
-102
-102
-94
-74
-51
-36
-23
-13
0
13
24
35
45
52
55
53
50
47
46
48
53
60
68
72
70
63
53
48
49
55
64
69
72
69
63
58
57
58
59
61
64
70
74
75
70
61
55
51
52
53
54
55
56
54
48
42
38
38
38
40
43
49
52
49
37
23
15
13
15
17
20
22
23
21
15
11
7
6
9
13
16
19
20
20
18
17
19
22
25
29
33
37
41
45
48
51
53
54
56
56
57
56
56
54
53
53
53
57
60
64
64
62
60
53
47
39
35
31
30
29
28
28
28
29
28
27
23
19
18
19
24
27
28
25
22
20
18
17
17
18
21
24
25
25
22
19
20
24
28
30
31
33
37
43
50
53
47
34
16
0
-16
-30
-48
-66
-82
-89
-87
-76
-59
-38
-17
1
14
23
26
30
35
42
49
51
53
53
54
54
57
60
62
62
61
62
61
64
67
70
69
66
60
52
50
52
57
61
65
67
67
64
61
61
63
69
74
79
81
81
80
79
82
85
90
95
98
96
90
82
74
72
71
68
59
51
50
49
46
40
35
32
30
28
25
22
16
12
11
13
17
21
24
25
27
31
37
42
48
52
54
55
56
60
65
70
71
70
72
70
69
66
67
66
68
68
69
72
75
79
78
76
71
67
64
63
63
59
56
51
48
43
40
39
38
36
33
30
24
15
6
-3
-7
-7
-7
-9
-16
-22
-27
-32
-40
-53
-66
-79
-91
-107
-123
-136
-143
-142
-141
-140
-147
-153
-160
-162
-165
-174
-188
-205
-213
-224
-227
-235
-241
-248
-255
-250
-243
-222
-207
-187
-169
-149
-129
-114
-100
-91
-81
-72
-59
-45
-30
-15
-5
2
6
5
4
6
10
17
22
26
28
29
30
32
35
37
39
42
46
48
49
50
52
52
48
41
34
33
35
39
41
41
39
38
40
42
45
47
48
46
42
40
40
44
48
49
49
47
44
36
28
25
30
38
44
46
43
41
40
40
39
37
35
34
35
34
32
25
19
16
19
23
26
29
32
36
39
39
37
33
30
31
33
37
41
45
49
50
48
38
27
20
21
26
27
23
16
10
5
2
0
0
4
9
13
12
3
-5
-10
-9
-7
-5
-4
-7
-14
-22
-27
-27
-27
-24
-22
-17
-11
-8
-10
-13
-15
-17
-18
-19
-18
-16
-13
-10
-8
-8
-8
-7
-5
-6
-13
-25
-40
-55
-69
-87
-108
-132
-146
-154
-157
-148
-138
-122
-109
-91
-73
-57
-46
-39
-33
-27
-21
-15
-9
-5
-4
-5
-9
-13
-18
-20
-20
-17
-11
-4
1
7
10
11
8
4
1
0
-1
0
2
6
10
12
13
15
16
16
12
5
2
3
7
11
10
6
0
-4
-6
-6
-6
-4
-3
-2
-4
-6
-8
-9
-9
-7
-4
-2
-2
-3
-3
-3
-1
2
8
10
6
-2
-10
-14
-12
-8
-3
-2
-3
-3
-3
-3
-2
0
4
10
16
23
30
33
32
31
31
33
36
36
38
40
45
50
54
58
57
59
59
60
56
50
44
40
38
34
30
27
25
24
24
26
27
30
32
35
36
37
41
48
53
51
46
36
29
27
29
32
34
33
31
31
31
34
38
42
45
47
48
51
56
58
58
54
46
33
18
3
-11
-27
-45
-63
-79
-91
-97
-90
-74
-54
-35
-17
-2
11
20
28
34
41
44
45
45
48
52
51
51
51
56
60
60
58
53
52
52
53
52
53
56
61
65
67
69
70
71
69
66
62
61
62
62
62
58
57
54
51
49
46
45
44
43
42
42
43
44
45
44
39
32
25
18
15
13
12
11
11
13
15
18
19
19
17
16
18
21
24
25
24
22
22
22
24
25
25
26
28
31
34
38
43
46
49
48
47
44
42
43
44
47
50
53
54
55
54
52
48
43
41
41
42
40
38
36
33
30
26
22
19
17
16
17
19
18
18
20
24
25
25
24
27
30
33
32
30
28
27
26
26
27
30
33
35
35
34
34
36
38
38
36
35
37
35
24
7
-8
-20
-33
-53
-75
-96
-106
-110
-103
-86
-66
-47
-31
-15
0
10
16
20
24
29
35
40
43
47
50
53
55
55
57
60
65
66
69
68
65
63
62
65
67
69
69
66
61
60
63
69
74
74
69
60
56
56
58
60
61
62
62
61
58
54
51
51
52
53
54
53
51
49
48
46
39
33
31
31
32
31
29
26
25
26
29
32
33
33
33
34
34
34
32
31
31
33
34
35
36
36
38
40
46
52
59
63
67
70
70
72
71
72
69
65
60
58
60
64
68
68
65
60
56
53
49
45
40
35
32
30
31
30
27
22
18
16
15
15
16
18
19
19
19
20
22
24
24
24
23
22
24
26
29
30
26
21
17
19
21
23
22
21
22
25
29
24
10
-9
-28
-43
-58
-74
-92
-108
-119
-126
-115
-102
-83
-62
-37
-17
-8
-5
-2
4
12
20
28
34
37
37
36
37
38
39
39
42
45
47
48
48
48
50
55
58
55
50
46
47
50
53
54
53
54
53
55
54
56
57
57
57
56
57
55
54
50
45
39
33
31
31
33
34
36
36
36
34
31
29
29
31
31
30
27
22
19
18
20
24
24
19
12
7
5
7
11
14
18
23
26
28
29
33
38
43
49
51
52
49
46
42
40
42
46
51
54
57
58
57
55
53
53
51
52
50
45
37
29
23
17
13
10
9
6
4
3
6
11
12
11
10
10
12
13
14
10
6
2
1
3
7
9
8
7
6
5
6
6
6
9
11
10
9
9
13
20
26
26
16
0
-19
-38
-55
-76
-99
-120
-133
-139
-136
-124
-108
-88
-68
-45
-26
-12
-4
0
3
7
13
19
23
22
20
18
19
21
23
26
29
30
32
34
32
31
31
33
35
38
41
42
41
39
40
41
43
42
39
39
39
41
40
39
36
36
37
37
39
38
37
33
30
28
28
27
25
23
21
21
20
18
16
15
14
12
11
10
10
9
8
8
8
7
6
5
2
0
0
3
7
10
11
12
15
20
28
34
34
31
28
30
34
40
44
43
40
37
40
41
41
39
38
39
41
45
48
49
42
33
24
20
16
10
2
-2
-4
-2
0
0
-1
0
0
4
7
8
6
0
-3
-5
-2
0
3
6
9
11
11
10
7
4
0
0
1
3
5
7
9
12
18
25
28
16
-5
-29
-46
-60
-76
-95
-112
-126
-126
-117
-102
-87
-72
-55
-37
-21
-11
-3
4
10
16
20
22
24
26
29
30
29
28
27
29
33
39
45
49
47
42
36
32
33
33
35
37
40
43
49
57
64
66
57
45
34
29
30
32
36
38
42
43
44
43
40
34
29
27
25
25
25
24
23
24
26
30
35
34
25
13
4
1
2
5
7
11
15
20
21
18
13
10
9
9
12
15
19
23
29
38
44
47
43
37
35
37
40
43
46
48
52
55
58
58
54
49
44
44
45
47
47
49
52
54
49
37
26
19
16
14
12
8
4
3
5
8
9
9
8
10
12
14
18
22
25
23
16
9
5
4
4
6
10
14
18
20
19
18
17
14
11
10
14
20
22
16
2
-12
-27
-44
-63
-86
-106
-120
-125
-117
-104
-84
-65
-44
-23
-6
3
8
9
12
14
17
20
24
30
36
43
45
46
42
41
39
