43
44
46
46
47
49
50
52
52
54
54
55
55
56
57
57
57
57
58
57
56
55
54
53
50
49
46
44
40
38
36
33
30
27
25
23
21
20
18
18
18
18
17
18
18
18
19
19
20
19
20
20
20
20
20
20
19
19
18
19
19
17
16
15
16
15
15
14
15
14
13
12
12
11
10
9
9
9
8
6
5
5
6
5
4
4
4
2
0
1
0
0
0
1
2
0
0
-1
0
0
-1
-2
-3
-5
-7
-8
-10
-13
-14
-14
-12
-10
-9
-8
-8
-9
-11
-13
-14
-14
-15
-15
-14
-14
-14
-14
-13
-13
-13
-14
-13
-13
-13
-13
-12
-11
-11
-11
-11
-10
-9
-9
-9
-8
-5
-2
2
7
8
3
-4
-13
-19
-25
-33
-40
-46
-58
-82
-120
-153
-176
-192
-201
-201
-195
-190
-180
-168
-152
-134
-115
-97
-80
-63
-47
-34
-22
-13
-7
-1
2
7
9
11
12
15
18
19
20
22
24
24
26
28
30
32
32
33
34
36
36
38
38
40
40
41
43
45
46
45
46
47
48
48
48
51
51
52
52
54
54
52
52
51
52
51
50
49
47
45
43
41
38
35
32
30
27
25
24
21
20
19
19
17
17
18
17
16
15
16
17
17
17
18
20
20
20
20
20
21
21
21
21
21
19
18
18
18
18
17
17
17
16
14
14
15
15
14
15
14
13
13
13
14
14
13
12
12
12
11
11
9
9
8
8
8
9
10
8
6
6
7
6
4
2
0
-1
-3
-4
-6
-8
-10
-12
-11
-10
-9
-9
-8
-8
-9
-10
-12
-12
-12
-13
-13
-12
-11
-12
-13
-13
-12
-12
-12
-12
-12
-12
-12
-12
-12
-11
-11
-11
-11
-11
-10
-10
-10
-9
-7
-5
-2
1
5
7
4
-2
-8
-12
-16
-23
-31
-37
-43
-59
-90
-128
-158
-176
-186
-188
-184
-180
-175
-169
-157
-144
-128
-112
-93
-77
-62
-48
-36
-24
-14
-7
-2
4
7
9
10
13
15
17
20
21
23
25
26
26
29
31
33
33
33
35
36
39
39
40
41
43
44
44
47
47
48
48
49
51
51
52
52
54
54
56
56
57
58
58
58
57
58
57
57
54
53
52
50
48
44
43
39
36
33
32
31
28
26
24
23
22
21
22
21
22
21
22
22
23
23
23
24
24
24
23
23
23
23
23
21
21
21
22
21
21
21
20
19
18
18
17
18
16
15
15
15
15
13
13
13
13
12
11
11
10
9
8
9
7
6
5
4
4
3
2
1
2
3
3
2
1
1
0
0
0
1
0
-1
-3
-4
-4
-5
-7
-9
-10
-11
-10
-8
-8
-5
-5
-5
-7
-8
-8
-11
-11
-10
-9
-9
-9
-9
-8
-8
-9
-8
-8
-8
-8
-7
-6
-6
-6
-7
-6
-5
-6
-6
-6
-5
-4
-3
-1
2
7
11
9
5
-2
-9
-15
-21
-26
-32
-39
-48
-66
-98
-132
-158
-175
-188
-192
-192
-186
-179
-169
-157
-142
-123
-107
-88
-72
-54
-39
-26
-18
-10
-3
2
6
9
12
13
15
16
18
20
23
25
26
28
29
30
31
34
35
37
38
39
41
40
42
43
45
46
47
48
49
50
50
51
52
54
54
55
56
57
58
57
58
57
58
57
56
56
53
52
49
49
47
45
41
39
37
34
33
31
29
28
27
27
25
26
25
25
26
27
27
25
26
27
27
26
26
27
27
27
25
26
25
24
22
22
23
21
20
18
18
17
17
15
13
12
11
10
9
8
7
5
5
3
3
2
2
3
4
3
1
1
0
0
-1
0
1
1
0
0
0
0
0
1
1
0
-2
-2
-2
-2
-4
-6
-8
-8
-7
-7
-6
-4
-3
-4
-5
-6
-8
-9
-8
-7
-7
-7
-7
-6
-5
-5
-6
-6
-5
-5
-5
-4
-3
-3
-4
-3
-3
-2
-2
-1
-1
-1
0
1
5
11
14
12
6
-2
-10
-15
-23
-31
-39
-50
-74
-111
-147
-174
-186
-189
-188
-180
-173
-162
-152
-134
-116
-97
-80
-64
-48
-33
-19
-11
-5
0
5
8
11
14
16
16
17
19
20
22
22
26
27
29
29
31
34
35
37
38
40
41
42
43
44
45
44
45
45
46
47
50
52
52
53
54
56
55
56
56
56
55
53
53
52
52
49
48
46
44
42
38
36
33
31
28
26
24
22
21
20
21
19
18
17
17
16
16
18
18
19
19
21
21
21
21
22
23
23
23
23
23
22
22
23
22
22
20
21
20
20
20
18
18
16
16
15
15
15
13
12
10
9
8
8
7
6
6
5
6
7
5
4
4
3
2
2
3
3
0
-2
-2
-3
-5
-8
-9
-10
-10
-9
-7
-5
-5
-7
-8
-10
-12
-12
-12
-12
-12
-12
-11
-11
-11
-13
-12
-12
-11
-11
-11
-10
-10
-10
-11
-10
-10
-10
-10
-9
-8
-8
-5
-1
3
4
1
-3
-10
-16
-21
-28
-34
-41
-47
-67
-99
-135
-165
-180
-194
-194
-194
-188
-180
-170
-154
-139
-118
-101
-83
-65
-49
-34
-25
-16
-9
-2
1
4
8
10
12
13
15
18
19
20
21
23
25
27
28
30
32
33
34
35
37
39
39
40
40
42
43
44
46
46
47
47
49
50
51
52
52
54
54
54
53
55
54
54
53
51
50
47
46
43
41
39
34
32
29
26
23
21
19
16
15
13
13
12
10
9
9
10
9
9
9
10
10
10
11
11
12
12
12
13
15
15
15
15
16
17
16
16
16
16
15
15
16
16
15
14
15
14
14
12
12
13
13
13
12
13
13
13
13
13
14
13
11
10
10
10
9
9
10
10
7
6
5
5
5
4
3
0
-1
-3
-4
-5
-7
-9
-12
-12
-11
-10
-9
-9
-8
-9
-12
-14
-15
-15
-16
-16
-15
-14
-15
-16
-16
-15
-15
-15
-15
-14
-14
-14
-15
-15
-14
-14
-14
-14
-14
-13
-13
-13
-13
-12
-10
-7
-3
1
4
2
-3
-11
-18
-23
-28
-35
-42
-46
-55
-73
-102
-140
-163
-183
-195
-203
-205
-199
-193
-182
-173
-158
-142
-125
-106
-90
-71
-57
-44
-32
-22
-16
-10
-5
0
3
5
7
9
11
13
14
16
17
19
20
21
22
24
26
27
27
29
30
32
32
34
35
36
37
37
39
40
41
41
42
44
45
46
46
47
47
48
47
48
49
48
48
47
48
47
45
45
42
42
39
37
35
33
32
29
26
24
23
20
19
17
18
18
17
16
15
16
16
16
16
17
17
16
15
14
15
15
15
15
15
14
13
12
12
13
12
11
10
10
10
8
8
6
6
5
5
5
6
5
3
2
2
2
1
0
1
0
0
-1
-2
-2
-2
-2
-3
-5
-7
-9
-10
-9
-8
-7
-7
-9
-10
-11
-12
-12
-11
-10
-11
-13
-15
-16
-15
-15
-17
-21
-22
-23
-21
-20
-19
-17
-17
-17
-19
-20
-21
-22
-22
-22
-21
-20
-20
-21
-21
-20
-19
-20
-21
-20
-20
-19
-19
-19
-18
-17
-18
-19
-18
-17
-17
-17
-17
-16
-15
-13
-12
-7
-3
0
-3
-10
-17
-24
-29
-36
-43
-50
-59
-73
-100
-132
-165
-186
-201
-210
-208
-206
-197
-190
-177
-165
-148
-130
-114
-96
-81
-64
-50
-37
-29
-23
-17
-10
-6
-4
-2
0
1
2
4
6
8
10
11
12
14
16
16
17
20
22
22
23
24
26
28
28
30
32
33
33
34
36
37
38
38
41
40
42
41
42
42
43
44
43
44
43
43
41
41
41
39
37
35
33
30
27
24
24
23
21
20
18
18
15
14
15
15
14
13
13
13
12
12
11
12
12
11
10
10
10
10
9
9
9
9
8
8
8
6
5
4
4
4
3
2
1
0
-1
-2
-3
-4
-4
-6
-7
-7
-8
-9
-10
-11
-10
-10
-12
-13
-14
-15
-16
-15
-13
-12
-12
-13
-13
-14
-14
-13
-14
-14
-16
-18
-18
-18
-19
-21
-23
-23
-22
-21
-20
-18
-17
-17
-20
-22
-22
-22
-22
-22
-20
-21
-22
-22
-22
-20
-20
-20
-20
-19
-20
-20
-19
-18
-18
-19
-18
-17
-16
-17
-17
-16
-15
-14
-11
-6
-2
-1
-5
-13
-22
-28
-34
-41
-48
-56
-70
-96
-135
-166
-189
-201
-207
-205
-199
-192
-181
-169
-151
-132
-113
-95
-76
-60
-45
-33
-25
-17
-10
-5
-4
-1
0
3
4
6
8
11
12
13
15
17
18
19
21
23
23
24
26
27
28
29
30
32
32
33
34
36
37
37
38
39
42
41
42
43
43
43
43
43
42
41
40
39
39
36
34
31
29
26
23
21
18
16
13
12
10
8
5
4
4
3
3
3
3
3
3
3
3
4
4
5
6
7
8
7
8
8
9
9
9
8
8
7
6
6
5
5
4
4
4
2
2
1
1
0
0
-1
-2
-3
-4
-5
-6
-6
-7
-7
-7
-9
-11
-13
-13
-13
-12
-12
-12
-13
-14
-15
-14
-13
-14
-15
-17
-18
-20
-21
-21
-24
-26
-26
-25
-23
-22
-22
-21
-23
-25
-27
-28
-28
-28
-28
-27
-27
-28
-28
-28
-27
-27
-27
-27
-26
-26
-26
-26
-25
-24
-25
-25
-25
-24
-24
-24
-22
-20
-16
-12
-8
-8
-13
-22
-30
-36
-44
-52
-60
-68
-81
-108
-144
-175
-195
-211
-215
-211
-205
-197
-189
-174
-158
-138
-121
-103
-85
-67
-52
-41
-31
-26
-21
-16
-10
-8
-7
-5
-3
-1
0
1
2
5
6
7
8
11
13
14
14
15
17
18
19
19
21
23
22
24
24
26
26
28
29
30
30
31
31
31
33
32
34
34
34
34
33
34
33
31
29
27
24
22
20
18
17
13
10
7
6
4
1
0
0
-1
-2
-3
-3
-3
-4
-5
-4
-4
-5
-5
-4
-3
-2
-1
-2
0
0
0
-2
-1
0
0
0
-1
-1
-1
-2
-2
-2
-2
-3
-4
-4
-4
-5
-5
-4
-5
-7
-8
-8
-7
-7
-7
-8
-9
-10
-11
-12
-13
-13
-14
-14
-14
-14
-15
-16
-18
-18
-17
-18
-19
-20
-21
-22
-23
-24
-26
-28
-29
-30
-28
-27
-27
-27
-26
-28
-30
-31
-32
-32
-32
-33
-32
-31
-31
-32
-32
-31
-31
-32
-32
-31
-30
-31
-30
-31
-30
-29
-30
-30
-29
-29
-29
-28
-27
-26
-24
-21
-17
-13
-14
-21
-28
-33
-38
-44
-53
-59
-66
-77
-101
-135
-167
-191
-203
-212
-208
-204
-198
-189
-181
-167
-156
-138
-123
-104
-89
-75
-61
-49
-39
-33
-27
-20
-15
-12
-10
-9
-7
-5
-4
-2
0
2
3
4
6
8
10
11
11
13
15
16
17
17
19
20
21
23
24
25
26
27
28
30
31
30
31
32
34
33
34
34
35
35
35
34
34
33
31
31
30
28
25
22
21
18
16
13
11
9
6
4
2
1
0
0
-1
-1
-1
-1
-1
-1
0
0
0
0
1
1
0
0
0
0
-1
-1
-1
0
0
-1
-1
-2
-2
-4
-4
-4
-4
-5
-7
-7
-6
-7
-8
-8
-8
-9
-10
-11
-11
-11
-12
-13
-14
-14
-15
-17
-17
-18
-19
-20
-21
-20
-19
-19
-20
-20
-22
-22
-22
-21
-21
-23
-25
-26
-26
-27
-28
-30
-32
-32
-32
-32
-31
-29
-27
-27
-28
-29
-30
-31
-32
-33
-32
-31
-31
-32
-32
-32
-31
-31
-31
-31
-31
-30
-31
-30
-30
-31
-30
-30
-29
-29
-30
-29
-29
-28
-28
-27
-23
-18
-15
-14
-18
-25
-33
-41
-46
-53
-60
-66
-74
-90
-120
-153
-185
-200
-212
-217
-213
-211
-200
-194
-181
-168
-149
-130
-115
-97
-81
-65
-53
-44
-37
-32
-26
-21
-19
-16
-14
-12
-10
-8
-6
-5
-3
-2
0
1
2
3
5
8
7
8
9
11
12
13
15
15
17
17
19
19
20
22
22
24
24
25
26
27
27
28
28
28
29
28
27
25
25
23
20
18
16
13
10
9
7
4
1
-1
-2
-3
-4
-6
-7
-7
-8
-8
-8
-6
-5
-5
-5
-5
-5
-5
-6
-6
-5
-5
-6
-7
-7
-7
-9
-9
-10
-10
-11
-12
-12
-13
-13
-15
-15
-16
-17
-18
-19
-19
-20
-21
-23
-24
-24
-25
-26
-27
-26
-28
-29
-31
-31
-32
-34
-34
-35
-35
-34
-34
-34
-35
-35
-36
-36
-36
-36
-37
-40
-40
-40
-40
-43
-44
-46
-48
-47
-45
-43
-43
-42
-42
-43
-45
-47
-48
-48
-47
-48
-48
-48
-47
-47
-47
-46
-46
-45
-46
-46
-45
-45
-47
-47
-46
-46
-45
-45
-44
-45
-46
-46
-43
-38
-33
-29
-28
-33
-42
-52
-58
-65
-72
-80
-86
-100
-126
-160
-197
-215
-231
-234
-233
-226
-216
-209
-192
-178
-159
-143
-126
-109
-92
-78
-67
-57
-50
-43
-39
-35
-33
-32
-29
-27
-24
-22
-21
-20
-18
-17
-16
-15
-13
-12
-11
-10
-8
-6
-5
-4
-4
-2
-2
-2
-1
0
0
0
1
2
4
5
5
7
7
7
7
7
7
7
7
7
7
5
3
1
0
-2
-5
-7
-9
-10
-12
-16
-19
-21
-22
-25
-27
-28
-29
-30
-31
-30
-30
-29
-30
-29
-27
-27
-28
-27
-26
-25
-25
-25
-25
-24
-25
-25
-25
-25
-26
-27
-28
-28
-29
-30
-30
-30
-31
-31
-31
-31
-31
-32
-33
-33
-33
-33
-33
-32
-33
-34
-35
-35
-35
-36
-37
-39
-39
-38
-38
-39
-40
-41
-42
-43
-43
-43
-45
-48
-49
-50
-51
-53
-55
-56
-58
-58
-58
-56
-56
-55
-55
-56
-56
-58
-59
-61
-60
-60
-60
-60
-60
-59
-60
-59
-60
-60
-60
-60
-59
-59
-58
-59
-59
-58
-58
-57
-58
-57
-57
-57
-57
-55
-51
-47
-44
-44
-49
-57
-64
-69
-74
-81
-88
-93
-104
-125
-162
-195
-218
-235
-243
-247
-239
-235
-227
-220
-207
-193
-176
-157
-142
-124
-108
-93
-81
-72
-64
-58
-51
-46
-42
-39
-37
-37
-35
-32
-30
-29
-27
-24
-22
-22
-21
-19
-17
-15
-14
-13
-11
-10
-9
-9
-8
-6
-4
-3
-2
-1
0
0
0
2
2
3
4
5
6
7
8
7
7
7
6
4
4
4
4
3
0
-1
-3
-6
-9
-12
-13
-16
-19
-22
-24
-26
-29
-29
-31
-31
-32
-33
-33
-33
-32
-33
-33
-32
-31
-30
-31
-30
-29
-28
-29
-29
-29
-29
-29
-30
-29
-30
-31
-32
-33
-32
-32
-32
-34
-34
-35
-35
-36
-37
-36
-37
-38
-39
-39
-38
-39
-40
-41
-41
-42
-42
-43
-43
-43
-44
-45
-47
-47
-49
-50
-51
-49
-49
-49
-50
-51
-52
-53
-53
-53
-52
-53
-56
-57
-58
-59
-61
-62
-64
-65
-64
-65
-63
-62
-59
-60
-61
-62
-64
-64
-66
-65
-65
-65
-65
-65
-64
-64
-63
-64
-63
-63
-63
-63
-63
-62
-62
-61
-62
-61
-60
-60
-60
-59
-59
-59
-58
-58
-54
-49
-45
-43
-45
-52
-62
-70
-75
-81
-87
-94
-99
-111
-131
-166
-198
-220
-234
-244
-251
-246
-242
-231
-224
-213
-199
-182
-164
-149
-133
-117
-101
-89
-78
-69
-62
-55
-51
-47
-45
-42
-42
-40
-38
-35
-33
-32
-30
-28
-27
-26
-25
-22
-20
-19
-18
-17
-16
-15
-14
-12
-11
-11
-11
-10
-8
-6
-5
-5
-3
-3
-2
-3
-3
-1
0
0
0
1
1
0
0
-1
-1
-3
-4
-6
-6
-8
-10
-12
-14
-14
-17
-19
-21
-23
-24
-26
-26
-27
-26
-26
-28
-28
-28
-29
-30
-30
-30
-29
-30
-30
-30
-30
-31
-32
-32
-32
-34
-36
-37
-35
-35
-36
-38
-38
-38
-40
-40
-40
-39
-41
-42
-44
-46
-46
-47
-48
-48
-48
-49
-50
-51
-52
-52
-53
-52
-52
-55
-57
-56
-55
-54
-53
-53
-52
-53
-54
-55
-55
-53
-54
-55
-55
-55
-56
-58
-59
-61
-62
-65
-64
-62
-59
-58
-58
-57
-58
-59
-61
-61
-61
-61
-61
-60
-59
-59
-59
-60
-58
-58
-57
-57
-56
-56
-57
-56
-56
-54
-54
-55
-54
-54
-54
-54
-53
-53
-50
-47
-43
-38
-36
-40
-47
-53
-57
-61
-68
-75
-82
-95
-120
-158
-191
-213
-226
-230
-228
-219
-214
-204
-193
-178
-163
-146
-128
-112
-96
-83
-70
-60
-51
-45
-39
-35
-32
-31
-29
-26
-24
-23
-21
-19
-17
-16
-14
-13
-10
-9
-8
-6
-4
-3
-1
0
2
3
4
6
7
9
10
10
12
14
15
16
18
18
19
19
20
20
19
19
18
19
17
16
14
13
9
7
5
2
0
-3
-5
-7
-10
-11
-13
-14
-15
-16
-17
-17
-17
-17
-17
-16
-15
-15
-14
-13
-12
-12
-12
-12
-11
-11
-12
-11
-10
-11
-12
-12
-12
-12
-13
-12
-13
-15
-15
-15
-15
-14
-14
-15
-16
-18
-19
-20
-20
-21
-22
-22
-22
-22
-23
-24
-24
-25
-27
-27
-26
-25
-26
-26
-26
-27
-28
-27
-27
-27
-29
-30
-31
-31
-34
-36
-37
-38
-38
-37
-34
-33
-33
-34
-35
-37
-38
-38
-38
-38
-37
-37
-37
-37
-37
-37
-37
-36
-36
-35
-35
-34
-34
-34
-35
-35
-34
-34
-33
-32
-31
-32
-30
-27
-23
-19
-16
-19
-28
-36
-44
-49
-54
-60
-66
-76
-96
-130
-164
-190
-207
-216
-221
-215
-210
-198
-187
-170
-153
-133
-115
-97
-79
-64
-51
-41
-32
-26
-21
-17
-14
-11
-10
-7
-4
-1
-1
0
3
5
6
7
9
10
12
12
14
15
17
17
19
20
21
22
23
25
26
27
28
28
29
29
30
30
32
34
34
33
33
33
32
32
32
30
28
26
25
23
21
17
16
13
10
7
5
4
2
1
0
-1
-2
-3
-5
-5
-4
-5
-5
-5
-4
-3
-3
-2
-2
-1
-1
0
0
1
1
1
3
3
3
3
3
2
1
2
1
1
0
0
0
0
1
0
0
0
0
0
0
-1
0
0
-1
0
0
-1
-2
-3
-3
-4
-4
-4
-4
-4
-5
-6
-7
-7
-8
-9
-10
-12
-14
-15
-16
-16
-18
-20
-23
-24
-23
-22
-22
-20
-19
-19
-21
-24
-26
-26
-27
-28
-29
-27
-26
-28
-28
-27
-27
-26
-27
-26
-25
-25
-25
-25
-24
-24
-24
-24
-23
-24
-25
-24
-24
-22
-21
-17
-12
-8
-7
-12
-20
-28
-33
-40
-46
-53
-58
-66
-83
-112
-148
-175
-196
-207
-211
-211
-203
-198
-185
-175
-160
-146
-129
-111
-95
-80
-66
-51
-39
-29
-23
-18
-13
-9
-7
-5
-2
0
1
2
5
7
8
8
9
11
14
16
16
18
19
21
22
23
25
26
28
28
30
30
32
31
32
34
35
36
36
38
38
40
40
40
41
41
43
42
42
43
43
41
39
38
37
37
33
32
31
29
27
24
23
21
19
16
14
13
13
13
12
13
12
14
13
13
13
13
14
13
14
14
14
14
13
14
15
14
12
12
11
11
9
9
11
11
10
9
9
9
8
8
6
7
7
6
5
5
5
5
5
4
5
5
5
5
4
5
4
2
1
1
1
2
3
3
3
1
-1
-3
-2
-1
-1
-2
-3
-4
-5
-7
-8
-9
-11
-13
-14
-13
-12
-11
-10
-9
-9
-10
-12
-13
-14
-13
-14
-14
-13
-13
-13
-13
-13
-13
-12
-12
-12
-11
-10
-10
-10
-9
-9
-9
-9
-9
-9
-8
-6
-8
-7
-7
-5
-3
0
4
7
7
1
-5
-12
-16
-22
-28
-33
-38
-42
-59
-89
-124
-152
-169
-184
-187
-185
-183
-178
-173
-162
-151
-135
-120
-102
-85
-69
-53
-41
-29
-18
-10
-3
2
7
12
13
15
17
19
21
23
26
27
29
30
31
33
35
37
37
39
40
42
42
44
45
47
50
49
51
52
54
54
55
57
57
58
58
60
60
62
62
62
63
64
64
62
63
61
62
60
58
58
56
55
52
51
48
46
44
42
42
40
39
37
37
36
36
35
34
34
34
34
33
34
34
33
32
32
32
31
31
31
31
30
29
29
29
29
28
28
27
26
27
26
27
25
25
24
24
24
23
23
21
21
20
19
18
18
18
16
15
14
14
13
13
13
13
12
10
8
8
9
8
9
10
11
11
9
8
8
9
10
9
9
8
6
5
5
3
1
0
0
1
3
4
5
6
5
3
2
1
1
1
2
2
3
3
3
3
4
5
4
3
4
5
5
5
6
6
6
6
7
8
8
8
8
10
10
13
16
21
24
22
16
7
0
-5
-12
-18
-24
-30
-46
-73
-110
-139
-156
-170
-174
-175
-169
-162
-152
-139
-125
-106
-89
-70
-55
-39
-24
-12
-2
4
10
16
20
23
24
27
29
30
32
33
35
37
38
40
41
42
42
44
47
48
48
49
52
53
54
55
57
58
59
60
61
63
62
64
64
66
66
65
67
66
67
66
67
66
66
64
63
62
59
58
55
53
51
48
46
43
42
39
38
37
36
35
35
35
35
35
35
36
36
36
36
37
38
37
38
37
38
38
37
37
37
37
35
36
35
35
34
34
35
33
33
31
32
30
29
27
27
26
25
25
24
24
22
21
22
20
19
18
18
17
16
16
15
16
16
16
16
17
15
14
15
16
16
13
12
12
12
10
7
6
6
6
6
8
9
10
9
8
7
6
5
5
6
6
6
6
7
7
7
8
7
8
7
8
8
8
9
9
10
10
10
10
11
13
11
11
13
18
22
26
27
24
16
8
2
-2
-9
-15
-22
-31
-54
-90
-124
-150
-162
-170
-167
-161
-153
-142
-132
-114
-97
-79
-63
-46
-28
-14
-2
7
13
19
23
27
30
31
33
35
38
40
42
43
45
46
47
50
51
53
53
55
57
58
59
59
61
62
64
64
65
66
66
68
68
70
70
71
71
73
75
74
75
75
76
74
74
75
74
73
70
69
66
64
61
59
58
54
52
49
48
46
44
43
42
41
39
39
38
39
39
39
39
39
39
39
40
41
42
41
42
43
44
45
44
46
47
47
47
47
47
47
47
45
46
47
47
46
45
46
45
45
44
46
45
45
44
45
47
45
44
44
44
42
41
41
40
40
39
41
40
39
38
35
36
36
36
34
33
32
30
29
26
24
22
21
21
22
24
24
25
25
24
22
21
20
20
20
20
20
20
20
20
20
20
21
21
20
20
21
22
21
22
22
23
23
23
24
23
23
23
24
26
29
34
36
39
35
27
19
13
9
3
-3
-8
-15
-30
-62
-97
-124
-145
-156
-162
-156
-152
-145
-137
-125
-109
-94
-76
-60
-43
-26
-11
2
13
20
26
31
37
41
43
44
46
49
50
52
53
57
58
60
61
62
64
65
67
68
71
71
72
73
74
75
75
77
77
79
79
80
80
81
84
83
84
84
86
86
86
87
86
88
87
86
86
86
87
85
84
82
81
78
76
73
71
70
65
63
60
59
56
55
54
52
52
50
50
49
50
50
50
51
52
52
51
53
53
54
54
54
54
53
53
52
53
53
52
52
52
52
51
51
50
50
49
49
48
47
48
46
46
46
47
46
45
44
43
44
43
42
41
41
40
39
38
37
37
34
33
33
34
36
34
33
32
30
28
29
29
28
27
25
25
24
23
20
18
18
17
17
17
19
20
22
22
20
18
16
15
14
16
17
17
16
17
17
17
17
16
17
17
17
17
18
18
18
19
19
20
19
19
19
19
21
20
21
22
26
31
35
36
31
24
15
9
4
-1
-7
-13
-20
-35
-66
-99
-127
-144
-157
-164
-164
-160
-151
-144
-133
-120
-103
-87
-71
-55
-39
-23
-9
0
9
17
22
27
30
34
35
38
39
41
43
45
46
47
49
51
52
53
55
56
56
57
58
60
60
61
62
63
64
65
67
67
69
70
70
71
72
75
74
74
74
75
74
74
75
75
75
73
74
73
72
70
69
68
65
63
60
58
56
53
52
50
49
47
47
46
46
46
45
45
45
46
44
44
44
45
45
45
46
45
44
43
43
43
43
43
41
41
40
40
39
39
39
38
37
36
36
35
35
34
34
33
32
31
30
31
29
28
28
27
26
24
25
23
23
21
19
18
18
19
18
19
19
17
16
16
16
17
17
16
15
13
12
11
11
10
8
6
5
7
7
9
10
11
10
9
7
7
6
6
6
7
7
7
7
8
8
8
8
9
10
10
10
9
10
11
11
10
11
12
12
12
13
14
14
14
16
20
26
27
25
18
12
6
0
-6
-12
-18
-26
-46
-79
-113
-140
-155
-163
-162
-159
-151
-144
-132
-120
-102
-86
-69
-53
-38
-25
-11
-2
5
11
17
23
25
27
28
30
32
32
34
36
38
39
41
43
44
45
47
48
48
49
50
52
53
53
54
56
58
57
59
59
60
60
61
62
63
65
65
66
65
67
66
66
68
67
67
65
65
63
61
59
56
55
52
50
47
46
43
41
40
37
36
35
34
33
33
35
34
35
35
36
35
36
36
37
36
36
38
38
38
38
39
39
37
37
37
38
37
37
37
37
36
35
35
34
34
33
33
33
33
32
31
31
31
31
30
30
30
29
28
26
26
25
24
23
24
24
23
23
21
20
19
19
19
19
18
15
14
13
12
10
8
6
6
7
7
9
9
10
9
7
7
4
4
3
4
4
4
5
5
6
5
5
5
6
5
5
6
6
7
6
6
7
7
7
7
8
8
8
9
12
16
20
22
19
13
6
0
-5
-11
-17
-24
-30
-41
-68
-103
-135
-155
-170
-176
-177
-171
-163
-155
-144
-132
-113
-97
-81
-65
-47
-32
-18
-8
0
6
12
17
20
24
25
27
28
30
32
34
36
37
40
40
41
41
44
46
46
47
48
51
51
52
52
54
54
54
56
56
58
58
59
60
61
62
62
63
63
65
64
65
64
65
63
62
63
61
61
58
56
54
52
49
46
45
42
40
36
34
32
31
30
28
28
27
27
26
27
28
27
27
28
29
29
29
29
30
31
30
30
30
31
31
31
31
30
31
30
29
28
29
30
28
27
27
27
26
26
26
26
26
25
24
24
24
23
23
23
23
22
21
21
21
20
18
16
16
15
15
15
16
16
15
13
12
12
12
12
11
10
9
8
6
5
3
2
0
0
0
2
3
3
4
5
2
1
0
0
-1
-1
0
0
0
0
-1
-1
0
0
0
0
0
1
1
1
1
2
2
1
1
2
3
2
2
3
4
6
9
13
17
19
14
7
0
-6
-11
-17
-24
-30
-38
-54
-83
-117
-144
-162
-174
-182
-180
-176
-167
-159
-147
-134
-118
-101
-86
-69
-54
-39
-26
-15
-8
-2
3
9
13
15
17
19
22
22
23
25
27
28
30
32
33
35
36
38
39
41
42
42
43
44
46
46
47
48
50
51
51
53
54
55
55
56
57
58
58
58
58
59
60
60
60
59
59
58
57
57
55
54
51
49
47
45
43
40
39
36
35
33
32
31
31
32
31
31
30
30
29
30
31
31
30
29
30
29
28
26
26
28
27
27
26
26
26
25
24
23
23
22
21
20
21
21
18
16
16
16
15
14
14
13
11
9
9
9
9
7
6
6
6
5
4
3
2
1
0
0
1
2
1
1
1
0
1
1
3
3
2
0
0
-1
-4
-6
-7
-8
-8
-7
-4
-4
-2
-3
-4
-5
-6
-6
-6
-5
-3
-3
-4
-5
-4
-3
-3
-3
-2
-2
-3
-3
-2
0
-1
-1
0
0
0
0
0
0
0
0
1
5
10
14
15
12
7
0
-5
-9
-15
-23
-30
-39
-57
-88
-123
-149
-166
-172
-174
-168
-163
-156
-147
-136
-120
-105
-86
-71
-55
-41
-29
-19
-11
-3
3
8
10
13
15
18
18
20
22
24
25
27
30
30
32
32
34
35
37
38
39
42
42
44
44
45
46
47
49
50
52
51
53
54
56
57
57
57
58
59
58
59
59
59
59
57
56
54
53
50
50
47
45
42
40
38
35
33
31
29
27
26
25
25
25
24
25
25
25
25
25
26
26
27
26
27
27
27
26
27
27
25
26
26
26
25
25
25
23
23
22
22
21
20
20
19
19
17
16
15
15
13
12
12
11
10
10
10
9
7
6
5
6
6
7
7
7
5
3
3
4
4
2
1
0
0
-1
-2
-4
-5
-6
-6
-4
-3
-2
-2
-3
-5
-6
-7
-7
-7
-7
-7
-8
-8
-7
-7
-7
-6
-6
-6
-5
-5
-6
-6
-6
-5
-5
-5
-6
-4
-3
-4
-3
-2
0
3
7
12
10
4
-4
-10
-15
-22
-29
-36
-45
-65
-96
-128
-156
-171
-185
-186
-182
-176
-166
-158
-141
-127
-108
-92
-74
-56
-41
-26
-16
-8
-2
2
7
9
11
13
16
18
19
20
22
23
24
26
29
30
31
31
33
35
36
37
37
40
40
41
41
43
44
45
46
47
49
48
49
49
51
52
51
52
52
52
51
51
51
49
49
47
46
43
40
38
35
33
29
27
24
23
20
19
18
16
14
14
14
13
12
12
13
13
12
12
12
14
14
15
15
16
15
15
16
17
18
17
17
18
18
17
17
18
17
17
16
16
16
15
16
15
16
15
15
14
14
14
13
14
14
15
14
13
12
11
10
9
9
10
10
9
9
9
6
6
5
6
5
4
3
1
1
0
-2
-5
-6
-7
-7
-6
-5
-4
-4
-5
-6
-8
-8
-10
-10
-10
-10
-10
-10
-9
-9
-10
-10
-11
-10
-9
-9
-9
-9
-8
-8
-8
-7
-7
-7
-8
-9
-8
-7
-7
-5
-1
2
7
9
9
3
-3
-10
-16
-22
-29
-36
-43
-55
-77
-113
-146
-166
-183
-190
-194
-186
-177
-168
-158
-146
-129
-113
-96
-81
-64
-48
-35
-24
-16
-9
-2
2
5
7
9
10
11
13
16
18
18
20
22
23
25
26
28
30
32
33
33
33
34
35
35
38
39
39
39
38
38
37
37
37
40
41
42
42
43
45
44
45
45
45
44
43
45
45
47
44
42
39
38
37
35
34
30
26
20
17
16
17
16
13
11
10
10
10
11
12
13
14
13
12
12
14
14
14
14
15
15
14
14
15
16
17
16
14
12
11
10
8
6
6
7
8
7
6
7
6
7
7
7
7
6
6
5
5
3
2
2
2
2
2
2
2
1
0
0
0
1
2
0
-1
-2
-3
-3
-2
0
-2
-5
-7
-7
-6
-7
-10
-15
-19
-20
-19
-18
-14
-10
-9
-12
-15
-16
-16
-17
-18
-19
-19
-20
-20
-21
-20
-18
-17
-17
-17
-16
-15
-15
-16
-16
-16
-17
-17
-18
-17
-15
-14
-15
-16
-16
-16
-16
-16
-14
-9
-2
1
1
-2
-9
-14
-15
-16
-20
-26
-33
-45
-65
-97
-130
-155
-173
-183
-188
-183
-180
-172
-165
-155
-143
-129
-113
-100
-86
-73
-58
-46
-36
-28
-20
-12
-5
-1
1
3
4
6
8
11
13
15
15
16
18
20
21
21
21
22
23
25
27
30
31
31
30
30
32
34
35
36
37
38
39
39
41
42
42
42
44
47
47
48
45
44
43
43
43
41
40
40
39
38
38
36
34
31
28
27
26
23
20
17
16
16
17
17
16
15
15
15
16
16
14
12
11
13
13
12
12
12
11
9
7
7
8
7
7
6
5
2
0
0
0
0
-1
-2
0
0
0
-2
-2
-1
0
-2
-3
-5
-6
-7
-8
-8
-8
-10
-12
-13
-14
-15
-14
-13
-13
-14
-17
-19
-21
-20
-17
-16
-15
-16
-16
-18
-19
-18
-18
-19
-20
-21
-20
-20
-23
-25
-28
-31
-32
-32
-30
-29
-23
-19
-18
-21
-25
-26
-28
-27
-27
-28
-30
-30
-29
-28
-27
-25
-25
-24
-24
-23
-23
-24
-24
-23
-21
-21
-22
-23
-24
-24
-28
-32
-30
-21
-10
-3
0
-3
-11
-20
-26
-28
-32
-40
-51
-64
-80
-108
-137
-163
-182
-196
-205
-201
-196
-188
-184
-172
-156
-135
-113
-94
-76
-60
-48
-40
-36
-35
-34
-30
-22
-10
-1
2
1
0
0
0
1
4
7
10
10
7
2
0
2
9
18
23
23
19
17
19
22
23
20
18
18
21
24
25
24
21
20
19
15
11
14
23
30
30
27
25
24
23
21
18
15
13
13
11
9
5
0
-6
-14
-14
-9
-6
-8
-11
-12
-11
-5
-2
-2
-4
-6
-8
-10
-11
-8
-5
-6
-9
-13
-16
-16
-14
-9
-6
-9
-14
-16
-16
-17
-18
-18
-18
-19
-22
-25
-27
-28
-30
-30
-26
-25
-28
-31
-33
-35
-37
-36
-34
-34
-37
-39
-37
-35
-37
-38
-36
-30
-28
-29
-32
-34
-33
-31
-30
-31
-34
-38
-42
-43
-44
-42
-39
-36
-38
-41
-45
-50
-51
-46
-36
-31
-31
-34
-39
-41
-42
-39
-38
-38
-40
-44
-45
-45
-43
-41
-38
-36
-35
-34
-36
-35
-35
-33
-33
-32
-31
-32
-34
-35
-32
-26
-23
-26
-31
-36
-39
-47
-56
-62
-69
-84
-113
-149
-175
-193
-199
-201
-195
-193
-186
-178
-169
-156
-140
-120
-104
-90
-77
-64
-55
-47
-38
-28
-22
-22
-22
-22
-20
-16
-12
-10
-10
-11
-10
-9
-10
-9
-6
-3
1
6
8
9
11
12
15
16
15
15
18
22
25
27
27
27
28
30
32
35
37
37
35
33
36
37
35
28
23
25
32
37
32
23
16
13
11
9
7
6
6
5
4
3
1
2
3
4
4
4
1
-4
-5
2
11
10
7
6
6
4
4
5
8
9
8
8
9
10
9
9
9
8
8
7
8
11
13
12
9
7
6
8
13
13
7
2
3
4
5
5
6
7
7
7
8
7
6
3
1
2
4
5
3
2
0
-1
-3
-4
-3
-3
-5
-9
-13
-17
-15
-5
3
4
-1
-4
-5
-5
-6
-8
-7
-6
-4
-4
-3
0
-1
0
0
-3
-7
-7
-6
-5
-3
-2
-1
-1
-1
-1
0
3
6
9
13
17
19
19
14
7
0
-4
-4
-7
-12
-18
-29
-55
-91
-120
-139
-151
-157
-159
-152
-150
-143
-135
-122
-105
-88
-71
-58
-43
-32
-20
-7
9
21
28
30
32
35
39
43
43
43
42
44
45
48
49
51
54
55
57
57
60
62
63
64
63
65
65
66
64
67
71
74
73
71
73
72
73
70
67
67
75
83
87
87
83
82
78
76
73
72
73
72
72
68
66
63
61
58
55
54
52
52
49
47
45
44
43
40
40
40
41
40
41
42
42
42
42
45
46
46
46
47
49
48
48
47
49
49
50
50
50
51
50
49
47
48
48
48
49
48
49
47
47
45
46
47
46
45
44
45
44
44
43
44
44
44
42
40
41
39
38
37
37
37
37
37
36
36
35
34
33
33
33
33
32
31
31
29
27
25
23
21
20
21
22
23
22
21
22
23
22
19
19
18
17
15
14
16
17
17
15
16
17
18
17
16
16
16
17
16
16
16
16
16
16
17
17
17
16
17
19
20
23
26
31
32
29
21
11
5
-1
-10
-18
-24
-32
-50
-79
-113
-136
-153
-166
-170
-170
-163
-158
-147
-137
-124
-107
-90
-73
-59
-43
-28
-13
-3
4
10
16
21
24
26
28
31
33
36
36
38
39
39
40
42
45
45
47
47
49
50
51
53
53
55
55
56
56
59
60
60
59
59
61
60
61
61
63
64
63
63
64
66
65
66
64
63
61
59
57
56
55
53
52
49
48
45
43
42
39
39
36
34
33
33
33
31
29
28
28
29
29
29
30
30
28
28
28
29
28
26
25
25
25
23
23
22
23
23
23
24
22
21
19
18
17
16
16
15
15
15
15
14
14
13
10
10
9
8
6
6
6
7
7
4
2
0
-1
-1
-1
0
0
0
-1
-2
-3
-4
-4
-4
-5
-6
-8
-10
-10
-10
-12
-14
-16
-16
-15
-14
-12
-10
-9
-11
-14
-15
-15
-16
-17
-18
-16
-15
-15
-15
-14
-14
-15
-14
-14
-13
-14
-14
-13
-13
-13
-14
-14
-13
-13
-13
-12
-11
-11
-10
-7
-3
0
0
-2
-9
-15
-20
-24
-29
-36
-41
-49
-64
-95
-128
-153
-170
-179
-185
-182
-180
-172
-162
-154
-139
-125
-107
-94
-78
-63
-48
-36
-27
-20
-13
-6
-3
-1
1
4
6
7
8
11
13
14
15
17
20
19
21
22
25
26
27
29
30
33
33
35
35
37
38
38
40
40
41
41
43
44
46
47
46
47
46
46
46
47
47
45
43
41
40
37
35
33
32
29
25
22
20
18
15
14
13
11
10
8
9
9
9
8
9
11
11
12
12
14
13
13
13
14
14
14
13
13
13
12
12
13
13
12
11
11
10
9
8
8
8
7
7
6
6
5
4
4
4
4
2
1
1
1
0
0
0
0
0
-1
-2
-4
-6
-7
-6
-4
-4
-5
-7
-8
-9
-10
-10
-9
-10
-12
-13
-14
-15
-17
-19
-20
-20
-20
-20
-19
-17
-17
-18
-19
-20
-22
-23
-24
-22
-22
-22
-22
-22
-21
-21
-21
-22
-22
-22
-21
-20
-20
-20
-20
-19
-19
-19
-19
-19
-19
-18
-16
-16
-13
-8
-3
-2
-4
-9
-18
-27
-32
-36
-42
-49
-55
-66
-89
-126
-155
-172
-187
-194
-199
-193
-186
-178
-168
-157
-137
-121
-103
-89
-71
-55
-42
-32
-24
-18
-12
-7
-4
-1
1
2
3
5
7
9
11
12
14
16
18
18
21
22
23
23
25
28
28
28
28
30
31
31
31
33
35
34
35
35
37
37
37
38
38
39
38
39
39
38
38
36
36
35
34
31
29
28
26
23
19
17
14
12
9
8
7
5
3
3
4
3
3
3
3
4
3
4
5
6
6
7
8
9
8
7
7
8
9
9
9
8
7
6
7
7
6
5
5
5
4
4
3
1
2
2
1
0
0
0
-1
-2
-3
-3
-4
-5
-6
-5
-4
-7
-9
-11
-11
-11
-11
-9
-10
-12
-14
-15
-14
-14
-14
-17
-18
-18
-19
-21
-24
-25
-26
-27
-28
-27
-25
-25
-25
-24
-23
-24
-25
-27
-28
-29
-29
-29
-28
-27
-27
-27
-28
-28
-28
-28
-26
-26
-25
-26
-27
-27
-27
-26
-25
-24
-24
-23
-24
-24
-25
-25
-22
-17
-12
-8
-6
-13
-22
-30
-36
-41
-48
-54
-61
-69
-86
-117
-148
-178
-193
-209
-211
-208
-204
-195
-189
-176
-164
-148
-134
-118
-101
-86
-71
-59
-47
-36
-28
-22
-17
-12
-10
-9
-7
-4
-2
0
0
2
3
6
6
8
10
11
11
12
15
16
17
17
19
19
19
19
22
24
25
26
26
28
29
29
30
31
33
32
33
33
34
35
34
34
33
33
31
29
28
27
24
19
17
16
16
13
10
10
8
6
3
2
1
1
1
2
3
4
3
3
5
6
6
6
5
4
5
4
3
4
4
4
4
5
6
5
5
3
3
4
3
2
1
2
1
0
-1
-1
-1
-2
-3
-5
-6
-7
-8
-9
-9
-9
-10
-10
-11
-12
-12
-13
-12
-11
-10
-11
-12
-13
-13
-14
-15
-13
-13
-12
-14
-16
-16
-17
-19
-22
-23
-24
-25
-25
-24
-21
-20
-19
-20
-20
-21
-23
-24
-24
-24
-24
-23
-22
-21
-21
-21
-21
-21
-20
-21
-20
-19
-19
-19
-19
-19
-19
-19
-19
-19
-18
-16
-17
-17
-16
-14
-11
-8
-2
-2
-6
-15
-23
-27
-32
-37
-44
-48
-55
-75
-108
-144
-164
-180
-190
-191
-190
-184
-181
-170
-159
-143
-129
-113
-93
-75
-57
-45
-34
-25
-18
-11
-5
-1
1
2
4
6
8
10
12
15
16
17
18
19
22
23
24
25
28
29
30
31
32
34
34
34
36
38
38
39
40
41
41
41
43
44
45
44
45
45
45
46
44
44
41
39
37
36
35
33
31
27
26
24
21
18
16
15
13
11
11
11
10
9
9
10
11
12
12
12
12
12
13
15
17
17
16
17
17
16
15
16
16
15
15
15
15
14
13
12
12
11
10
10
9
8
6
6
5
4
2
0
0
0
-1
-2
-2
-2
-3
-3
-4
-5
-6
-9
-8
-7
-5
-6
-5
-5
-7
-8
-7
-5
-6
-9
-10
-11
-11
-13
-14
-17
-18
-19
-18
-16
-14
-13
-15
-16
-17
-18
-18
-18
-17
-18
-18
-18
-18
-17
-17
-16
-15
-15
-16
-15
-15
-15
-16
-16
-15
-14
-14
-14
-13
-13
-14
-13
-11
-8
-4
0
1
-2
-11
-20
-28
-34
-41
-48
-53
-63
-84
-116
-149
-168
-186
-194
-197
-191
-185
-178
-167
-156
-138
-122
-102
-84
-66
-52
-40
-29
-22
-16
-9
-4
-1
0
1
4
5
7
8
10
12
14
15
15
17
19
20
21
22
23
23
25
26
29
29
29
30
32
32
33
34
34
35
34
35
35
36
35
36
37
35
35
34
34
33
30
29
27
25
22
20
18
16
13
10
9
8
5
2
1
1
0
0
0
0
0
-1
0
0
2
1
2
3
4
4
5
5
6
6
7
8
8
7
6
6
6
6
5
4
4
2
2
2
2
2
0
0
0
0
0
0
0
0
-2
-3
-2
-3
-4
-5
-5
-5
-5
-5
-6
-6
-7
-9
-11
-10
-10
-12
-13
-15
-16
-18
-19
-21
-24
-26
-27
-25
-24
-23
-23
-23
-24
-26
-28
-29
-29
-29
-29
-29
-28
-28
-31
-32
-30
-28
-27
-27
-26
-27
-28
-29
-28
-25
-24
-25
-27
-28
-28
-27
-26
-25
-24
-23
-20
-16
-11
-11
-15
-22
-28
-31
-35
-39
-46
-52
-58
-72
-98
-133
-161
-183
-194
-200
-199
-195
-191
-181
-171
-157
-144
-129
-115
-100
-85
-70
-56
-43
-34
-27
-19
-14
-10
-8
-6
-4
-1
0
1
3
5
7
7
9
11
13
14
15
18
19
21
21
23
24
25
26
28
30
30
31
31
33
33
34
34
35
37
37
38
37
38
39
39
38
38
38
37
36
35
33
31
28
26
25
25
22
19
16
14
12
9
8
6
5
3
2
2
2
2
2
4
4
4
3
5
7
7
7
8
9
9
10
10
9
10
9
8
8
9
9
8
7
7
7
6
5
5
5
6
5
4
4
4
3
3
3
3
3
2
1
2
3
2
2
0
0
0
0
0
1
2
0
0
-2
-2
-3
-4
-4
-6
-6
-7
-8
-9
-9
-11
-15
-17
-18
-17
-17
-16
-15
-14
-13
-14
-16
-17
-19
-19
-19
-18
-17
-16
-17
-18
-18
-17
-16
-17
-17
-16
-16
-16
-17
-15
-15
-14
-15
-15
-15
-15
-15
-15
-14
-13
-13
-13
-13
-10
-5
0
1
-1
-7
-15
-23
-26
-30
-34
-40
-45
-51
-64
-92
-125
-152
-167
-181
-189
-192
-188
-183
-177
-169
-162
-147
-131
-114
-100
-84
-69
-54
-42
-32
-24
-16
-9
-4
0
2
4
6
7
9
12
14
15
17
18
20
21
23
25
26
28
28
29
30
32
32
33
34
36
37
37
39
39
41
41
42
43
44
44
44
45
46
48
47
46
46
45
45
43
43
42
42
39
37
36
35
34
31
29
28
27
25
23
22
20
20
18
17
17
17
17
16
17
17
17
15
15
17
17
17
15
15
14
14
13
14
14
14
13
12
12
11
11
11
10
10
9
9
7
7
6
5
5
4
3
2
1
0
-1
-1
-3
-4
-4
-3
-4
-4
-5
-6
-7
-8
-10
-12
-12
-11
-10
-8
-7
-8
-10
-11
-12
-10
-9
-10
-12
-13
-14
-14
-15
-17
-18
-19
-19
-19
-18
-16
-15
-15
-14
-15
-16
-17
-17
-17
-18
-18
-19
-19
-19
-19
-20
-18
-16
-15
-15
-14
-13
-13
-13
-13
-13
-13
-14
-15
-15
-13
-13
-14
-14
-12
-11
-9
-6
0
1
-2
-11
-21
-29
-36
-42
-50
-56
-62
-76
-104
-137
-166
-185
-200
-202
-199
-190
-182
-173
-162
-149
-131
-115
-96
-79
-63
-50
-38
-30
-22
-16
-10
-5
-2
-1
0
3
4
5
6
9
11
12
13
14
16
16
18
20
22
23
24
26
26
28
28
29
30
31
32
32
34
35
36
37
39
40
40
39
38
39
38
38
37
37
36
35
34
32
31
28
27
25
23
21
19
18
16
15
13
11
11
10
11
9
9
10
10
10
11
13
12
12
12
13
12
12
11
12
12
11
10
10
10
8
8
8
8
7
5
4
4
3
2
1
1
0
-1
-2
-2
-4
-7
-8
-8
-7
-7
-8
-8
-8
-9
-12
-12
-10
-9
-9
-9
-11
-12
-13
-11
-9
-10
-12
-14
-15
-15
-17
-18
-18
-19
-20
-21
-19
-17
-17
-18
-18
-20
-21
-21
-20
-19
-20
-20
-19
-18
-20
-20
-18
-17
-17
-16
-15
-14
-14
-15
-14
-13
-13
-14
-13
-12
-12
-13
-12
-11
-8
-4
0
3
1
-6
-13
-19
-22
-28
-35
-40
-47
-64
-95
-130
-156
-175
-184
-189
-184
-181
-175
-165
-154
-139
-124
-105
-88
-71
-55
-40
-27
-18
-11
-4
2
5
8
10
13
15
16
18
20
22
24
25
26
29
29
31
32
34
37
37
39
39
40
40
42
44
46
46
46
49
49
50
50
53
54
54
54
54
55
53
53
53
54
53
51
50
48
47
43
41
39
36
32
29
28
26
24
22
21
19
17
16
15
15
14
14
14
14
14
14
16
16
16
16
17
18
18
19
19
20
19
19
19
20
20
20
21
20
21
19
19
19
19
19
18
18
17
17
15
16
17
16
15
14
14
14
14
14
14
12
9
8
9
10
10
10
10
8
6
5
5
5
5
2
1
0
0
-1
-2
-4
-6
-8
-7
-6
-4
-4
-4
-5
-5
-7
-9
-10
-9
-9
-9
-8
-9
-10
-10
-10
-9
-10
-9
-9
-9
-9
-10
-9
-8
-8
-8
-8
-8
-8
-8
-8
-7
-6
-3
0
3
6
4
-3
-13
-20
-27
-32
-38
-44
-48
-56
-75
-109
-139
-162
-177
-186
-192
-187
-184
-175
-168
-156
-140
-125
-106
-91
-74
-59
-43
-29
-20
-13
-7
-1
4
6
8
11
13
15
16
19
20
23
23
25
26
28
29
30
32
32
33
34
36
39
38
39
39
41
41
42
44
44
46
46
47
48
49
50
49
50
50
50
48
48
47
47
47
44
42
41
40
37
35
33
31
29
26
24
22
21
18
16
15
14
12
11
11
11
10
9
10
10
10
12
13
15
14
14
14
14
14
14
14
14
15
14
13
13
13
12
11
11
10
11
10
8
6
6
6
4
5
5
5
4
3
4
3
3
1
1
2
1
0
0
0
-1
-3
-4
-4
-3
-3
-3
-5
-6
-8
-8
-8
-7
-8
-11
-14
-15
-16
-17
-18
-21
-23
-22
-22
-21
-20
-19
-18
-18
-20
-22
-23
-24
-26
-26
-25
-24
-24
-25
-25
-23
-22
-22
-23
-23
-23
-23
-24
-23
-22
-22
-23
-22
-21
-20
-20
-21
-20
-19
-20
-21
-19
-15
-10
-7
-5
-8
-14
-22
-30
-36
-42
-48
-56
-60
-69
-90
-124
-159
-178
-195
-202
-203
-198
-190
-185
-176
-169
-155
-142
-125
-108
-92
-75
-61
-49
-40
-31
-23
-16
-11
-7
-4
-2
-1
0
2
5
7
9
10
12
13
14
14
16
17
19
19
22
24
25
26
27
29
30
30
30
31
33
35
35
35
37
38
38
37
38
40
42
43
41
41
40
40
37
37
38
36
35
33
32
29
27
24
23
21
19
17
16
15
14
14
13
12
12
12
11
12
14
14
14
13
14
14
13
13
12
12
12
11
11
12
12
11
10
10
10
9
7
7
7
7
5
5
5
5
4
4
5
3
2
1
0
1
1
0
0
0
-1
-1
-2
-2
-3
-4
-5
-6
-6
-5
-4
-5
-6
-7
-8
-9
-10
-8
-8
-8
-10
-11
-11
-12
-14
-16
-17
-18
-18
-17
-17
-15
-14
-15
-14
-15
-17
-18
-19
-19
-18
-18
-18
-18
-17
-18
-18
-18
-17
-16
-16
-15
-14
-14
-14
-15
-15
-14
-14
-14
-15
-14
-13
-13
-13
-10
-8
-5
-2
0
-2
-10
-19
-27
-30
-34
-41
-47
-52
-61
-86
-121
-154
-175
-186
-198
-196
-194
-187
-181
-174
-160
-145
-125
-108
-89
-73
-57
-43
-32
-22
-14
-8
-2
2
5
6
7
9
12
15
16
18
20
21
22
23
26
26
28
30
32
33
33
34
35
36
36
37
38
40
41
41
43
44
45
45
46
47
47
49
48
50
48
48
46
46
47
45
43
40
40
38
37
34
31
29
27
24
21
20
18
17
16
15
14
14
13
14
16
17
16
16
17
17
16
17
17
18
17
17
18
18
16
15
15
16
15
14
13
13
12
12
10
10
10
9
8
7
8
6
5
4
5
5
5
4
4
3
2
1
1
0
-1
-1
-1
-3
-5
-6
-6
-5
-5
-5
-5
-5
-6
-8
-8
-8
-7
-10
-12
-13
-13
-15
-18
-19
-20
-20
-20
-19
-17
-17
-17
-18
-18
-20
-22
-23
-22
-22
-22
-22
-22
-23
-23
-23
-23
-23
-23
-23
-22
-22
-21
-21
-21
-20
-20
-20
-20
-19
-20
-20
-19
-17
-15
-12
-8
-5
-7
-16
-25
-34
-40
-47
-54
-58
-63
-75
-103
-139
-165
-185
-196
-206
-203
-198
-190
-180
-170
-153
-138
-118
-101
-83
-68
-53
-39
-29
-21
-16
-10
-5
-2
-1
0
3
5
7
9
11
13
13
14
15
17
19
19
20
21
22
23
25
28
29
29
28
30
31
33
34
35
38
38
37
36
37
38
38
39
39
40
39
38
36
36
37
34
33
31
30
27
26
24
21
18
15
13
12
11
9
8
8
6
6
5
5
6
6
7
7
8
8
8
7
9
10
9
10
11
12
11
9
9
10
10
9
8
7
7
6
6
6
6
5
4
2
2
2
0
1
1
1
0
0
0
0
0
-1
-1
-2
-2
-4
-5
-5
-5
-5
-5
-5
-6
-7
-6
-8
-8
-9
-11
-12
-13
-13
-16
-17
-19
-21
-22
-22
-21
-21
-20
-19
-17
-17
-20
-23
-24
-23
-24
-24
-24
-24
-25
-25
-23
-22
-21
-22
-22
-22
-21
-21
-22
-22
-23
-22
-21
-20
-19
-20
-20
-20
-18
-17
-17
-17
-13
-8
-3
-2
-6
-14
-22
-28
-34
-39
-45
-50
-55
-66
-92
-127
-159
-178
-192
-195
-196
-190
-184
-176
-166
-157
-142
-126
-109
-95
-79
-65
-51
-39
-30
-22
-13
-6
-1
0
1
3
5
7
8
11
13
14
16
17
19
20
22
23
25
27
28
28
30
32
34
36
36
37
38
38
40
42
45
45
46
46
47
47
48
50
51
53
51
51
50
51
51
48
48
47
46
42
40
38
36
35
33
31
28
26
24
23
22
20
19
18
18
18
18
18
17
18
18
19
18
20
21
21
20
20
20
20
20
19
20
20
19
18
17
18
17
17
16
16
16
15
14
15
15
14
13
12
12
11
10
10
10
10
9
8
8
7
5
4
4
3
2
1
1
3
3
3
0
0
0
-1
-1
0
0
-2
-3
-5
-5
-5
-7
-9
-11
-11
-11
-11
-9
-7
-6
-6
-7
-10
-11
-11
-12
-12
-12
-10
-11
-11
-10
-10
-11
-12
-11
-10
-10
-10
-10
-10
-9
-10
-10
-10
-9
-9
-10
-10
-9
-8
-7
-7
-4
0
3
6
5
0
-9
-18
-23
-27
-32
-38
-42
-48
-61
-90
-123
-150
-167
-180
-186
-183
-180
-172
-166
-156
-143
-126
-109
-93
-76
-60
-44
-32
-22
-14
-7
-1
3
5
8
8
10
13
15
17
17
19
21
23
24
25
26
28
30
30
32
34
35
35
36
38
39
40
41
43
44
44
42
43
45
46
47
47
48
48
47
47
47
48
45
44
43
42
41
39
37
36
34
31
29
27
24
22
20
19
16
15
14
14
14
13
14
14
16
16
16
17
17
18
17
18
17
17
16
16
16
16
15
14
14
14
13
12
13
13
11
10
10
9
8
6
6
6
4
3
2
0
0
-1
-1
-2
-3
-4
-5
-4
-4
-5
-7
-8
-8
-8
-9
-8
-6
-6
-7
-9
-9
-9
-9
-8
-8
-8
-10
-11
-12
-13
-15
-17
-16
-15
-14
-14
-13
-12
-12
-14
-16
-16
-17
-18
-17
-17
-15
-17
-17
-16
-16
-15
-15
-15
-14
-14
-14
-14
-13
-12
-12
-12
-11
-12
-13
-13
-13
-12
-11
-8
-4
0
2
0
-6
-15
-24
-31
-37
-44
-50
-56
-70
-98
-134
-163
-183
-193
-197
-193
-184
-175
-164
-155
-138
-119
-99
-82
-63
-48
-34
-26
-19
-12
-7
-2
0
3
5
6
7
9
10
12
14
16
19
21
22
22
24
26
26
26
28
30
30
31
32
33
35
35
37
37
38
37
39
40
41
41
41
42
42
42
40
40
39
38
37
36
35
33
32
30
29
25
23
21
18
17
15
13
11
9
8
8
8
7
6
5
6
6
7
9
9
10
10
10
10
11
12
13
14
13
12
12
14
14
13
13
12
13
12
12
11
11
11
10
10
9
9
8
9
10
9
8
7
7
7
6
5
4
4
4
2
2
2
2
1
0
0
0
-1
-2
-4
-4
-7
-8
-9
-11
-14
-17
-16
-16
-15
-14
-13
-13
-15
-17
-18
-18
-18
-19
-19
-18
-18
-19
-18
-19
-18
-18
-19
-18
-18
-17
-18
-17
-16
-16
-17
-16
-15
-15
-16
-16
-15
-14
-12
-10
-4
0
-1
-6
-13
-20
-25
-30
-35
-42
-47
-55
-72
-104
-139
-162
-180
-189
-193
-189
-183
-177
-167
-158
-141
-126
-108
-92
-77
-60
-45
-32
-23
-15
-8
-2
2
4
6
8
11
13
14
17
18
19
21
23
26
26
28
29
31
33
33
35
36
38
38
39
42
42
44
43
45
45
47
47
47
49
50
51
50
51
51
52
52
51
51
50
50
48
48
47
45
42
39
38
35
33
30
27
25
23
21
19
18
16
14
13
12
12
11
11
11
12
11
11
12
13
13
13
15
15
15
15
16
16
17
17
16
16
17
17
16
15
15
16
16
15
15
14
14
13
12
13
12
13
12
12
12
12
12
11
11
10
9
9
10
10
10
10
10
9
8
7
7
9
11
10
9
7
6
5
4
3
3
1
0
-1
-3
-4
-7
-9
-11
-13
-13
-12
-11
-10
-9
-10
-11
-13
-14
-16
-17
-17
-17
-16
-16
-17
-17
-17
-16
-17
-17
-17
-16
-17
-17
-17
-16
-16
-16
-15
-15
-15
-16
-15
-14
-14
-14
-14
-13
-10
-7
-1
0
0
-4
-13
-22
-28
-31
-37
-44
-50
-54
-62
-84
-117
-150
-169
-187
-198
-201
-199
-191
-186
-176
-169
-155
-139
-123
-106
-91
-73
-59
-46
-36
-26
-19
-12
-7
-2
1
4
5
6
8
11
13
14
15
17
19
21
22
24
24
26
26
29
31
33
33
33
34
35
36
35
37
37
39
41
41
41
42
43
43
44
46
46
47
46
46
46
46
46
45
44
43
42
39
39
38
38
35
34
33
31
29
26
25
24
24
23
22
22
21
21
19
18
18
17
16
15
16
15
15
14
13
13
13
13
13
14
13
12
11
10
11
10
10
9
9
8
7
5
5
6
5
4
4
3
2
1
1
1
2
1
0
-1
-1
-2
-2
-3
-5
-4
-5
-6
-8
-9
-10
-12
-12
-11
-10
-8
-9
-9
-11
-11
-11
-11
-11
-12
-14
-15
-14
-13
-14
-17
-20
-20
-20
-20
-19
-18
-16
-14
-15
-15
-18
-19
-20
-21
-20
-17
-17
-18
-19
-19
-18
-18
-17
-15
-13
-13
-15
-15
-14
-14
-14
-14
-12
-12
-12
-13
-12
-11
-10
-9
-9
-7
-2
1
3
3
-3
-12
-19
-25
-31
-38
-46
-53
-64
-88
-124
-155
-177
-193
-198
-198
-189
-185
-174
-165
-150
-132
-117
-99
-84
-67
-52
-38
-28
-20
-12
-5
-1
2
4
6
7
9
12
13
15
16
18
19
21
23
23
25
27
29
30
32
33
34
35
35
38
39
40
40
42
44
43
44
45
48
48
50
51
50
49
48
49
49
49
47
47
47
46
45
43
43
40
38
36
35
33
31
29
27
28
26
26
25
25
24
23
23
23
24
23
23
23
23
21
21
22
22
21
20
19
19
18
19
18
18
17
16
14
14
15
13
12
11
10
8
7
7
6
5
3
2
1
0
-1
-1
0
-1
-2
-2
-3
-4
-5
-6
-7
-6
-5
-5
-4
-4
-5
-7
-8
-7
-5
-6
-7
-8
-8
-9
-12
-13
-14
-16
-15
-13
-10
-10
-9
-9
-10
-11
-12
-13
-13
-13
-13
-13
-13
-12
-12
-12
-11
-10
-10
-10
-10
-9
-8
-9
-8
-8
-8
-8
-8
-6
-7
-7
-6
-5
-3
0
5
7
4
-4
-14
-20
-27
-34
-41
-46
-53
-70
-101
-140
-166
-187
-195
-196
-191
-182
-176
-161
-149
-130
-112
-92
-73
-56
-40
-28
-18
-10
-4
1
5
7
8
11
14
16
17
19
21
22
23
26
27
29
30
32
33
34
36
37
38
39
40
41
42
43
44
47
48
49
49
49
50
50
51
51
52
52
52
51
50
50
47
46
44
43
40
38
36
33
30
26
25
22
20
17
15
15
13
12
12
12
11
10
10
11
11
10
11
12
13
12
13
14
15
15
15
17
17
17
16
16
16
15
15
14
15
13
13
13
13
12
11
11
11
10
9
8
8
8
8
8
9
7
6
5
4
1
0
0
0
1
1
0
-1
-2
-3
-5
-4
-4
-5
-7
-8
-8
-10
-12
-15
-16
-17
-17
-16
-14
-12
-12
-14
-16
-17
-18
-19
-18
-18
-18
-19
-19
-19
-19
-19
-18
-17
-17
-17
-17
-17
-17
-17
-17
-16
-16
-17
-16
-15
-15
-15
-14
-12
-8
-3
-1
-2
-11
-22
-31
-37
-43
-50
-56
-63
-79
-109
-148
-173
-193
-203
-205
-201
-191
-184
-172
-160
-143
-127
-109
-91
-73
-57
-44
-32
-23
-16
-11
-5
-1
1
2
4
6
8
10
12
14
16
17
18
20
22
23
25
27
29
30
31
30
31
33
34
34
35
37
38
38
38
40
41
42
42
42
45
44
45
45
45
45
44
45
44
44
41
41
40
38
36
33
31
28
26
23
21
19
17
16
14
13
12
11
9
9
9
9
8
8
9
9
9
9
9
10
11
12
12
13
13
12
13
13
14
13
12
12
12
12
10
10
9
10
9
10
8
7
6
6
7
8
9
7
7
7
7
7
5
5
6
6
5
5
5
5
3
4
5
4
3
1
0
-1
-1
-1
-2
-2
-4
-7
-9
-10
-11
-15
-17
-17
-17
-18
-18
-16
-14
-14
-15
-15
-16
-17
-19
-20
-20
-20
-20
-21
-21
-20
-18
-17
-18
-18
-17
-18
-19
-19
-18
-17
-18
-18
-17
-16
-16
-16
-16
-16
-16
-16
-15
-11
-5
-1
0
-4
-11
-19
-27
-33
-38
-45
-52
-56
-67
-90
-126
-159
-178
-194
-198
-200
-194
-189
-180
-172
-161
-147
-133
-117
-103
-87
-71
-54
-40
-29
-21
-14
-7
-1
1
4
7
9
11
12
14
15
17
19
21
24
25
26
27
29
31
32
33
34
35
36
37
38
41
42
44
44
44
46
47
48
48
49
49
49
50
51
54
54
54
54
54
54
53
53
51
51
49
47
45
45
43
40
37
34
33
30
28
27
27
27
24
24
23
23
22
22
22
21
22
21
20
20
21
20
18
19
19
19
17
17
16
16
15
14
13
12
13
12
13
12
12
10
9
9
9
8
7
7
7
6
5
4
5
5
5
4
4
4
3
2
1
1
0
-1
-3
-4
-4
-5
-4
-5
-4
-4
-6
-7
-8
-7
-8
-8
-9
-10
-11
-11
-11
-12
-14
-16
-18
-18
-16
-15
-14
-13
-13
-13
-15
-17
-17
-18
-17
-17
-17
-16
-17
-18
-18
-17
-17
-16
-16
-15
-14
-15
-16
-15
-14
-14
-14
-14
-13
-12
-12
-13
-13
-11
-10
-9
-6
-2
2
2
-2
-11
-21
-28
-34
-41
-48
-53
-63
-80
-112
-146
-171
-191
-200
-204
-198
-193
-182
-173
-160
-146
-130
-111
-94
-76
-59
-43
-30
-22
-15
-9
-3
1
5
8
10
12
13
14
17
18
20
21
23
25
28
29
30
32
33
34
34
36
37
38
39
39
41
41
43
44
46
47
46
48
48
49
49
50
50
50
51
49
51
51
51
49
49
48
45
43
40
40
38
35
32
30
29
26
25
24
24
23
22
22
20
21
21
22
22
21
21
20
20
20
20
19
19
18
18
16
15
15
15
14
14
14
13
12
11
11
11
10
9
8
7
5
4
3
2
2
2
2
1
0
-1
-1
-2
-3
-3
-5
-6
-6
-8
-10
-11
-10
-11
-10
-10
-10
-10
-11
-12
-12
-11
-9
-10
-11
-12
-13
-15
-16
-18
-20
-22
-22
-21
-19
-17
-17
-17
-18
-20
-21
-21
-20
-21
-20
-19
-19
-19
-19
-18
-17
-17
-19
-18
-17
-17
-17
-17
-17
-18
-19
-18
-16
-14
-14
-15
-15
-14
-13
-10
-6
-2
-2
-7
-17
-27
-35
-42
-51
-59
-65
-75
-101
-137
-171
-194
-207
-212
-206
-199
-188
-178
-163
-148
-130
-114
-96
-78
-61
-46
-33
-24
-18
-12
-6
-3
-1
0
3
6
8
9
10
13
15
17
19
21
21
21
23
24
25
27
29
31
32
33
34
36
37
37
38
39
40
41
42
44
45
46
45
47
46
46
46
46
46
43
42
40
40
38
35
32
29
28
26
24
22
20
17
14
13
11
11
9
9
10
10
10
8
9
10
11
11
13
14
14
14
14
14
14
14
14
15
15
13
12
11
12
11
11
11
10
10
8
8
8
9
8
8
8
8
8
7
7
7
6
6
6
6
4
3
2
3
3
3
3
3
2
0
0
-1
-1
-2
-2
-3
-4
-6
-8
-9
-11
-14
-16
-17
-16
-15
-14
-13
-12
-13
-15
-17
-18
-18
-20
-20
-19
-19
-19
-19
-18
-19
-19
-19
-20
-20
-20
-20
-19
-17
-17
-17
-17
-17
-16
-16
-16
-16
-16
-15
-15
-11
-7
-4
-7
-13
-22
-31
-39
-46
-53
-59
-64
-76
-101
-136
-167
-186
-199
-203
-204
-197
-190
-182
-172
-161
-145
-128
-110
-96
-80
-66
-50
-37
-27
-20
-14
-8
-5
-2
0
3
5
7
8
10
10
12
15
16
19
21
23
24
26
27
28
29
30
31
31
33
34
36
37
37
39
38
40
40
42
43
44
43
44
45
46
47
47
47
47
47
46
45
45
43
42
39
38
36
33
30
26
24
22
19
16
14
13
11
11
10
10
9
8
8
9
11
11
12
12
13
12
12
13
13
13
12
12
12
13
13
12
12
12
12
11
10
9
10
10
9
9
9
8
6
6
7
6
5
3
4
3
3
2
3
3
2
1
1
1
0
0
-1
-1
-2
-3
-6
-7
-7
-8
-8
-7
-6
-8
-10
-10
-10
-9
-9
-11
-11
-12
-13
-14
-15
-17
-19
-21
-22
-21
-19
-17
-18
-16
-15
-16
-18
-20
-19
-21
-21
-20
-20
-20
-21
-21
-19
-18
-18
-19
-19
-18
-18
-18
-17
-17
-17
-16
-17
-17
-16
-15
-16
-15
-14
-13
-12
-9
-4
-1
-4
-11
-19
-28
-34
-41
-49
-54
-60
-67
-85
-118
-150
-172
-186
-197
-199
-198
-191
-182
-173
-164
-152
-134
-117
-98
-82
-67
-52
-38
-29
-22
-16
-9
-4
0
1
2
4
7
9
11
14
16
16
18
19
22
22
24
25
27
28
28
30
31
33
33
34
36
37
37
37
39
40
41
42
43
43
43
44
43
44
43
43
43
43
43
42
41
40
39
36
34
33
31
29
26
25
23
22
20
19
19
19
19
16
15
15
16
16
16
15
14
14
13
14
13
13
12
13
12
11
10
10
10
9
9
10
9
9
7
6
4
3
4
5
5
4
2
0
0
0
-1
-1
-2
-2
-4
-5
-5
-5
-6
-7
-7
-8
-10
-11
-12
-12
-12
-12
-12
-10
-10
-11
-12
-11
-10
-11
-13
-15
-14
-16
-19
-20
-21
-22
-22
-21
-18
-15
-16
-16
-16
-17
-19
-20
-19
-20
-20
-20
-20
-19
-18
-18
-17
-16
-17
-18
-17
-16
-16
-16
-16
-16
-15
-15
-15
-15
-14
-12
-13
-12
-12
-10
-7
-4
-1
-2
-8
-17
-23
-29
-36
-45
-51
-57
-71
-99
-135
-162
-180
-193
-191
-189
-180
-173
-164
-152
-139
-123
-108
-90
-75
-58
-44
-32
-22
-16
-10
-3
1
4
5
6
9
10
12
14
16
18
19
22
22
25
25
26
26
28
30
31
34
35
37
37
39
40
41
42
43
44
44
45
45
48
48
48
49
49
51
49
50
49
48
46
45
44
42
39
35
34
32
30
26
24
22
20
18
17
16
15
14
14
14
14
13
15
16
16
15
16
18
18
18
17
18
18
18
18
19
19
18
17
17
17
17
17
18
16
15
14
15
14
14
14
13
13
11
11
11
11
10
9
9
9
8
7
6
6
6
4
2
2
3
4
3
2
1
0
0
0
0
-1
-4
-6
-7
-8
-11
-12
-13
-13
-14
-13
-12
-11
-11
-12
-12
-13
-14
-17
-17
-15
-15
-16
-16
-15
-15
-16
-16
-15
-15
-14
-14
-14
-14
-15
-15
-14
-13
-14
-14
-13
-13
-12
-12
-11
-9
-5
-1
0
-2
-10
-19
-26
-32
-38
-46
-52
-57
-69
-96
-130
-155
-176
-187
-193
-189
-181
-175
-164
-155
-138
-123
-104
-87
-70
-54
-41
-30
-21
-13
-7
-3
0
4
5
7
9
11
13
15
16
18
20
20
22
23
26
27
28
31
31
33
33
35
36
37
38
38
41
41
42
41
43
44
44
45
44
46
45
46
46
47
48
47
46
45
45
42
40
39
37
35
32
30
28
25
22
20
18
16
14
12
11
10
10
8
7
7
8
8
8
10
10
10
10
11
12
13
14
13
14
15
15
14
14
14
14
14
13
14
13
12
11
11
12
10
9
9
10
9
8
9
8
8
7
7
7
8
7
7
7
7
8
7
6
6
6
5
4
4
4
5
5
5
5
3
0
0
0
0
-2
-4
-5
-6
-6
-8
-10
-12
-14
-16
-16
-15
-13
-13
-14
-14
-14
-15
-17
-18
-17
-17
-17
-17
-17
-17
-17
-18
-18
-17
-17
-17
-17
-16
-16
-16
-17
-17
-17
-16
-17
-17
-16
-15
-15
-16
-14
-12
-9
-6
-3
-2
-5
-13
-24
-32
-38
-45
-52
-58
-61
-69
-89
-125
-156
-173
-189
-196
-201
-194
-189
-181
-171
-162
-145
-131
-112
-98
-80
-64
-50
-38
-28
-19
-14
-10
-5
-1
0
2
4
7
10
11
12
13
16
18
20
20
22
23
25
25
26
28
29
30
30
32
33
34
34
34
36
37
38
38
38
39
40
42
41
42
42
43
42
43
45
45
44
42
42
42
43
41
40
39
38
36
33
31
29
28
25
24
23
22
21
19
20
20
19
17
16
17
17
16
15
15
16
16
15
15
15
15
15
13
13
13
12
11
10
11
10
9
7
7
7
8
8
7
8
8
7
6
5
5
4
3
2
2
1
0
0
0
0
-1
-2
-2
-2
-2
-3
-3
-5
-7
-9
-9
-9
-8
-8
-9
-10
-12
-12
-11
-11
-11
-12
-13
-15
-16
-18
-19
-20
-21
-20
-20
-19
-18
-18
-17
-17
-18
-19
-20
-21
-21
-20
-19
-19
-20
-21
-21
-20
-20
-20
-19
-18
-18
-18
-18
-17
-17
-17
-16
-16
-16
-16
-15
-15
-14
-13
-13
-12
-7
-2
0
-3
-9
-16
-23
-29
-35
-41
-48
-53
-61
-76
-108
-142
-166
-185
-191
-195
-188
-186
-179
-171
-162
-147
-133
-115
-101
-85
-69
-53
-39
-29
-20
-13
-6
-1
1
3
6
8
11
12
14
15
16
17
19
22
22
24
25
26
27
28
30
32
34
33
35
37
38
38
38
40
41
43
43
44
46
47
47
48
50
50
50
48
49
48
48
47
46
46
44
42
40
39
37
34
32
29
29
26
25
23
22
21
19
18
18
17
17
18
18
18
16
16
16
16
16
15
15
14
13
13
13
14
12
11
10
11
9
8
8
7
6
5
6
6
5
3
1
1
0
-1
-2
-3
-3
-4
-5
-6
-6
-7
-8
-8
-8
-8
-10
-11
-11
-11
-11
-10
-9
-9
-10
-11
-11
-11
-11
-11
-12
-12
-14
-15
-16
-17
-18
-20
-21
-20
-18
-17
-16
-15
-14
-16
-18
-19
-19
-19
-20
-19
-18
-18
-19
-19
-18
-18
-17
-17
-15
-15
-16
-16
-15
-15
-15
-14
-14
-13
-13
-14
-14
-13
-12
-10
-5
0
1
-3
-12
-22
-30
-37
-44
-52
-57
-66
-82
-114
-147
-173
-190
-196
-200
-193
-186
-174
-164
-150
-132
-114
-94
-78
-61
-45
-32
-23
-17
-11
-5
-1
1
2
4
6
7
10
12
14
15
16
18
20
21
22
25
26
27
27
30
31
31
32
32
34
34
35
36
37
37
38
41
41
42
42
44
44
44
44
43
43
41
39
38
37
35
33
32
29
26
22
21
18
15
14
12
12
9
7
7
7
7
6
6
7
8
7
8
9
10
11
12
12
11
11
12
14
13
12
11
12
12
11
12
12
11
10
10
10
9
8
6
6
5
4
3
3
3
2
1
0
0
0
-1
-2
-3
-3
-6
-7
-7
-7
-7
-7
-6
-8
-10
-11
-9
-9
-10
-12
-12
-13
-15
-17
-18
-21
-22
-21
-18
-17
-17
-17
-19
-20
-21
-22
-23
-22
-22
-21
-20
-20
-20
-21
-21
-21
-21
-21
-20
-19
-19
-20
-21
-21
-20
-21
-20
-18
-17
-17
-16
-15
-12
-9
-4
-3
-7
-17
-27
-33
-38
-47
-55
-62
-69
-91
-125
-156
-179
-192
-199
-194
-188
-178
-168
-154
-140
-123
-107
-92
-75
-59
-45
-33
-23
-17
-11
-6
-1
1
2
3
4
7
8
10
11
13
13
15
17
18
20
20
22
23
25
26
26
27
28
29
30
33
35
36
36
36
37
38
38
38
40
41
41
41
42
43
42
42
41
41
39
38
37
36
35
31
29
26
24
21
19
17
15
13
10
9
9
8
6
5
6
6
5
4
5
6
6
6
6
7
8
8
8
10
11
10
11
11
11
11
12
12
14
14
13
13
13
13
11
11
11
12
11
11
11
10
11
10
9
10
10
10
10
10
10
10
8
7
7
7
7
7
8
7
5
2
1
1
2
2
0
-1
-3
-4
-6
-7
-9
-12
-14
-14
-13
-12
-11
-10
-10
-10
-13
-14
-15
-15
-15
-16
-16
-15
-15
-16
-17
-16
-15
-14
-14
-15
-15
-15
-15
-15
-15
-15
-15
-15
-14
-13
-13
-14
-13
-11
-10
-6
-1
1
0
-5
-15
-23
-28
-34
-41
-48
-52
-57
-72
-99
-131
-156
-172
-185
-190
-190
-183
-179
-170
-160
-148
-134
-118
-101
-85
-70
-55
-41
-29
-19
-14
-7
-1
3
5
6
8
11
14
14
17
18
20
21
22
24
26
28
28
29
30
32
35
35
36
38
39
38
40
41
42
43
43
44
45
46
47
48
49
50
50
51
51
51
52
51
50
50
50
50
49
49
47
46
43
41
38
36
33
30
29
27
25
23
21
21
22
22
19
19
20
20
20
20
21
20
21
20
21
21
22
21
21
21
20
19
18
18
18
18
17
15
15
15
15
14
15
16
14
13
12
12
11
11
11
12
11
10
9
8
9
7
7
6
6
6
5
3
2
2
0
-1
-2
-2
-1
-2
-2
-3
-3
-5
-5
-4
-4
-5
-7
-7
-8
-9
-11
-12
-14
-15
-15
-14
-12
-10
-9
-10
-11
-11
-14
-15
-16
-15
-14
-14
-13
-14
-14
-14
-14
-14
-13
-13
-13
-13
-12
-12
-12
-12
-13
-12
-12
-12
-11
-10
-9
-9
-10
-7
-4
0
3
4
0
-8
-19
-28
-34
-42
-49
-55
-60
-70
-93
-126
-156
-175
-189
-196
-195
-189
-180
-173
-161
-150
-134
-118
-102
-86
-68
-51
-39
-28
-20
-13
-8
-2
1
4
7
8
10
12
14
15
16
18
20
20
21
23
24
26
26
28
29
31
32
33
34
35
36
37
39
40
42
43
43
44
45
47
47
49
49
49
48
48
49
49
50
49
49
47
45
43
42
41
38
36
34
33
30
28
25
25
25
23
23
22
22
22
22
22
21
22
21
20
18
18
19
18
20
19
19
18
17
17
17
16
15
15
14
12
12
12
13
11
11
11
11
9
8
8
8
7
6
5
3
1
0
0
0
0
-1
-3
-4
-4
-5
-6
-7
-7
-9
-9
-8
-6
-7
-8
-9
-9
-7
-8
-9
-9
-10
-11
-14
-16
-18
-19
-20
-19
-18
-17
-15
-14
-13
-15
-16
-17
-17
-17
-16
-17
-17
-16
-17
-17
-17
-16
-16
-15
-16
-15
-14
-14
-14
-13
-13
-13
-13
-12
-11
-12
-13
-13
-12
-10
-6
-1
2
4
0
-7
-15
-22
-29
-36
-43
-48
-55
-75
-108
-143
-165
-183
-188
-185
-181
-173
-166
-154
-143
-125
-108
-92
-76
-61
-47
-33
-21
-15
-10
-5
0
2
5
7
9
10
11
12
14
16
17
19
20
21
21
23
27
27
29
30
34
33
35
35
37
39
39
40
40
43
43
44
46
47
48
47
49
49
49
49
49
50
48
47
45
45
42
41
39
37
34
31
29
26
24
22
20
18
17
16
15
16
15
14
13
15
16
16
18
18
19
17
18
19
20
20
20
20
20
19
18
18
18
18
18
16
17
16
16
15
15
16
14
14
14
14
12
11
12
11
11
9
8
8
8
7
6
5
4
3
3
3
3
3
2
0
0
-1
-1
-1
-1
-1
-4
-5
-6
-6
-8
-11
-13
-13
-12
-12
-10
-9
-9
-9
-11
-13
-14
-15
-16
-14
-13
-13
-14
-14
-13
-13
-13
-13
-11
-12
-12
-12
-12
-12
-12
-12
-11
-10
-11
-11
-10
-9
-8
-7
-4
-2
2
4
1
-5
-15
-22
-29
-36
-43
-50
-54
-63
-83
-118
-148
-169
-182
-188
-190
-182
-176
-167
-160
-147
-129
-112
-94
-78
-60
-45
-32
-23
-16
-8
-2
1
3
6
7
9
10
13
15
17
17
19
20
22
22
24
27
28
29
29
31
33
33
35
35
37
39
39
39
40
42
42
43
43
45
46
46
45
46
47
47
48
47
48
47
47
47
46
44
41
40
38
35
32
30
29
26
24
21
19
16
14
12
11
12
11
10
10
11
11
11
10
11
12
13
13
13
14
15
15
15
15
16
15
15
13
14
14
13
13
13
13
12
12
11
12
11
9
9
8
9
8
7
6
6
6
5
4
3
3
2
2
1
1
0
-2
-3
-3
-3
-4
-4
-3
-4
-6
-7
-7
-6
-6
-7
-9
-10
-10
-12
-13
-15
-17
-19
-18
-17
-16
-15
-15
-14
-13
-15
-17
-18
-19
-18
-18
-17
-16
-16
-17
-18
-18
-18
-16
-17
-17
-16
-16
-17
-17
-15
-15
-15
-15
-15
-15
-15
-15
-14
-12
-11
-9
-5
-1
0
-6
-14
-25
-33
-39
-48
-54
-60
-65
-81
-108
-140
-166
-181
-196
-198
-197
-190
-182
-173
-159
-147
-130
-115
-97
-81
-65
-51
-39
-28
-20
-15
-10
-4
-1
0
0
2
5
7
7
9
11
13
13
14
16
18
21
21
23
24
25
27
27
28
29
30
30
31
33
34
35
36
37
37
38
38
39
41
40
41
40
42
41
41
41
40
39
37
36
35
35
33
30
29
26
25
22
20
18
16
14
13
12
12
12
11
11
12
11
11
12
13
13
13
13
13
13
12
12
12
13
12
12
12
12
10
9
9
10
11
10
8
6
5
5
4
4
3
2
0
-1
-1
-1
-1
-3
-3
-3
-4
-4
-6
-7
-9
-10
-12
-12
-12
-11
-11
-10
-9
-11
-12
-11
-11
-11
-11
-11
-12
-14
-15
-17
-17
-19
-21
-21
-20
-20
-19
-18
-16
-17
-19
-20
-20
-19
-19
-19
-18
-18
-18
-20
-20
-18
-17
-17
-16
-16
-16
-16
-16
-15
-14
-15
-15
-14
-13
-13
-13
-12
-11
-10
-8
-4
0
3
0
-6
-13
-17
-22
-28
-33
-39
-46
-64
-93
-127
-155
-170
-181
-179
-177
-172
-167
-158
-147
-134
-117
-102
-87
-73
-57
-43
-30
-21
-15
-8
-2
2
4
6
7
10
11
13
15
18
19
19
20
22
25
25
27
29
32
34
35
36
37
40
40
42
44
45
45
46
48
49
50
51
53
53
54
55
56
57
55
55
54
54
52
51
52
49
47
43
42
40
37
35
32
30
26
24
21
21
21
19
19
18
18
16
16
17
18
19
19
20
20
21
21
22
22
22
22
21
22
21
21
20
21
20
19
19
18
18
17
17
16
15
15
14
14
13
13
11
10
10
9
7
7
7
6
5
4
3
2
1
1
2
3
2
1
0
0
-1
0
0
-1
-3
-4
-4
-5
-7
-9
-12
-13
-13
-13
-11
-8
-7
-9
-10
-11
-12
-14
-15
-13
-13
-13
-14
-13
-13
-14
-14
-13
-11
-12
-12
-11
-11
-11
-11
-11
-10
-9
-9
-9
-8
-8
-8
-7
-4
0
4
5
2
-5
-15
-25
-31
-37
-42
-47
-53
-65
-91
-126
-154
-173
-184
-190
-188
-182
-175
-165
-153
-136
-119
-102
-86
-69
-52
-37
-27
-19
-12
-6
0
2
4
6
8
9
12
14
15
17
18
20
21
23
23
25
27
29
30
31
33
33
34
35
36
37
37
38
40
42
43
44
45
46
47
47
48
48
49
48
48
48
48
46
46
46
44
42
39
37
35
31
29
26
25
22
20
18
16
14
11
11
10
9
8
8
8
7
6
6
7
8
8
8
9
11
11
11
11
12
11
11
11
11
11
10
10
9
10
9
8
8
8
7
5
5
5
6
5
4
4
4
3
2
3
2
0
0
0
0
-1
-2
-3
-4
-3
-3
-5
-6
-7
-7
-7
-7
-7
-9
-12
-15
-16
-16
-19
-20
-22
-23
-24
-24
-22
-22
-20
-19
-20
-21
-23
-24
-26
-27
-27
-26
-26
-26
-26
-26
-26
-27
-26
-25
-25
-25
-25
-24
-25
-24
-24
-23
-23
-24
-24
-24
-22
-22
-23
-22
-20
-15
-11
-9
-11
-16
-25
-33
-40
-46
-53
-60
-64
-71
-89
-119
-155
-180
-198
-206
-209
-203
-197
-189
-181
-172
-157
-143
-124
-108
-91
-76
-60
-48
-38
-30
-24
-18
-13
-8
-6
-5
-4
-2
0
2
4
5
7
9
12
13
13
13
15
18
18
20
21
23
24
25
26
27
29
30
31
32
34
34
35
36
37
37
37
38
39
40
40
40
41
41
41
39
40
39
39
37
35
33
32
30
26
23
21
19
18
15
13
11
10
8
7
8
9
8
8
9
8
9
9
10
10
10
10
9
10
9
9
8
8
9
8
8
8
8
7
7
6
5
6
7
6
4
4
4
4
4
3
2
2
2
2
2
2
1
0
-1
-1
-1
0
-2
-3
-4
-5
-6
-7
-6
-4
-3
-4
-5
-7
-8
-8
-8
-6
-7
-9
-11
-11
-12
-12
-13
-17
-18
-19
-18
-17
-15
-13
-12
-12
-14
-16
-16
-17
-18
-18
-17
-16
-17
-17
-17
-16
-16
-15
-16
-15
-14
-14
-14
-13
-12
-13
-13
-13
-12
-11
-11
-11
-9
-8
-8
-7
-5
0
2
4
1
-7
-15
-23
-28
-34
-41
-46
-53
-67
-94
-130
-159
-177
-189
-196
-194
-192
-182
-174
-165
-152
-136
-117
-100
-83
-68
-52
-38
-26
-19
-12
-6
0
2
5
9
11
13
14
16
18
20
21
22
25
27
28
28
30
32
33
35
35
37
38
40
39
41
43
45
46
47
49
49
50
50
52
53
54
54
53
55
54
55
54
55
54
53
52
51
52
49
47
44
42
41
38
36
34
33
29
28
26
26
25
23
23
23
23
22
22
22
22
22
21
22
21
20
19
19
21
20
19
19
19
18
17
16
16
16
15
15
15
15
14
13
13
11
10
8
7
6
7
5
3
2
1
1
0
-2
-2
-3
-4
-5
-4
-5
-6
-7
-7
-6
-7
-7
-6
-5
-6
-7
-9
-8
-7
-7
-8
-9
-9
-11
-12
-13
-15
-17
-18
-16
-14
-13
-12
-11
-11
-13
-16
-16
-15
-15
-15
-14
-13
-13
-14
-13
-13
-12
-12
-12
-12
-12
-12
-13
-12
-11
-10
-10
-10
-11
-10
-10
-10
-8
-5
-1
3
5
3
-4
-15
-23
-30
-37
-45
-50
-56
-72
-103
-137
-163
-181
-191
-195
-188
-183
-175
-165
-152
-136
-120
-101
-85
-67
-52
-39
-28
-18
-12
-7
-1
2
5
7
9
10
12
14
15
17
18
20
21
24
26
28
28
30
31
32
34
34
36
37
38
39
42
44
44
45
45
47
47
48
49
50
51
50
51
50
50
49
50
49
48
45
44
42
40
38
35
33
30
27
25
23
21
18
17
16
15
14
14
14
13
13
13
15
15
16
16
17
19
18
19
19
19
18
18
19
19
18
17
17
17
17
16
15
14
12
12
11
10
8
7
8
6
5
3
3
3
2
1
0
0
-1
-1
-2
-2
-3
-2
0
0
0
-2
-3
-3
-3
-3
-4
-4
-6
-7
-8
-10
-12
-14
-14
-13
-12
-11
-10
-9
-10
-13
-14
-16
-17
-17
-16
-15
-15
-16
-16
-16
-15
-15
-15
-15
-15
-15
-15
-14
-13
-12
-13
-12
-12
-13
-14
-13
-11
-11
-11
-9
-5
-1
2
2
-3
-12
-23
-30
-35
-43
-49
-55
-65
-91
-127
-159
-181
-191
-198
-193
-189
-180
-170
-156
-137
-121
-102
-86
-67
-51
-37
-26
-18
-10
-5
0
3
7
9
11
12
16
17
18
19
22
24
25
27
28
30
30
31
33
35
35
36
39
40
41
41
43
44
45
46
46
49
48
49
49
51
52
51
51
51
52
50
50
49
48
46
44
44
41
40
36
34
32
29
26
24
23
20
18
17
16
14
12
12
12
12
12
12
12
12
12
11
12
12
13
13
14
15
16
16
16
18
17
17
17
17
16
16
17
16
16
15
15
16
16
15
15
15
15
15
14
14
14
14
14
12
11
11
11
10
11
12
10
8
7
7
7
6
5
3
2
1
0
-1
-2
-4
-7
-8
-7
-5
-3
-2
-2
-2
-4
-7
-9
-9
-9
-10
-9
-9
-9
-10
-10
-10
-8
-8
-8
-8
-8
-7
-7
-7
-7
-7
-7
-8
-7
-7
-7
-7
-6
-4
-4
-3
-1
2
7
9
6
-1
-12
-20
-29
-36
-44
-50
-56
-67
-91
-129
-158
-181
-192
-200
-198
-192
-186
-174
-165
-151
-137
-118
-102
-86
-69
-53
-37
-25
-16
-10
-3
3
8
10
12
13
17
18
19
21
23
26
26
28
30
32
32
33
35
37
39
39
41
43
45
45
46
47
48
49
48
49
50
50
50
52
55
54
56
54
55
55
55
56
55
56
55
54
51
51
50
49
47
43
42
40
37
33
32
31
27
24
22
22
21
20
19
17
17
17
17
16
18
18
17
18
20
21
20
21
21
22
21
21
20
20
21
20
19
17
18
18
17
16
15
16
15
15
15
15
15
13
12
11
11
11
10
10
10
10
9
9
8
8
6
4
2
2
3
2
2
3
3
2
0
-1
-3
-2
-2
-2
-3
-4
-5
-7
-8
-10
-11
-14
-15
-14
-13
-13
-14
-13
-11
-11
-14
-16
-16
-15
-15
-15
-16
-16
-15
-15
-15
-15
-16
-15
-15
-14
-14
-12
-12
-13
-14
-13
-13
-13
-13
-14
-14
-13
-11
-10
-10
-10
-9
-5
0
3
2
-4
-13
-20
-26
-33
-40
-44
-51
-62
-89
-124
-155
-179
-190
-199
-194
-191
-184
-177
-168
-153
-140
-123
-108
-90
-74
-59
-44
-31
-22
-15
-9
-3
2
4
5
7
10
12
15
15
17
18
19
19
22
25
25
26
28
30
32
32
33
34
36
37
39
39
41
42
43
45
44
47
47
48
49
50
52
51
53
53
54
53
53
53
54
54
51
50
49
48
45
44
44
41
40
36
35
33
32
30
27
27
26
26
25
25
25
25
25
24
24
23
23
23
23
23
22
22
22
22
21
20
19
19
19
19
19
18
18
16
15
14
15
15
14
13
12
13
12
11
9
8
7
6
5
4
4
2
1
2
2
2
0
-1
-2
-2
-2
-1
0
0
-2
-3
-3
-3
-3
-3
-3
-4
-6
-8
-9
-9
-11
-14
-14
-14
-13
-13
-12
-10
-10
-11
-13
-15
-15
-15
-16
-15
-15
-15
-14
-15
-14
-14
-14
-13
-12
-11
-11
-13
-12
-12
-11
-11
-12
-11
-11
-11
-10
-9
-7
-7
-3
1
5
3
-2
-10
-17
-24
-30
-38
-43
-48
-58
-81
-117
-148
-173
-186
-197
-196
-192
-184
-176
-168
-153
-136
-116
-98
-80
-63
-46
-32
-22
-14
-7
-1
3
6
7
9
11
13
15
18
19
21
22
24
26
27
28
29
32
33
34
35
36
38
39
40
41
43
44
44
45
46
48
49
50
51
52
52
52
54
54
55
53
53
53
51
50
49
48
46
44
41
39
36
33
31
28
26
23
20
19
18
17
15
15
15
15
14
15
15
15
16
16
18
18
18
18
19
19
18
18
19
19
18
18
18
18
16
15
15
15
15
14
14
13
11
10
10
11
10
9
8
9
7
6
5
4
4
3
2
1
0
-1
-2
-1
-2
-1
-1
-1
-2
-4
-5
-5
-4
-6
-7
-8
-9
-11
-13
-14
-16
-17
-17
-17
-15
-15
-13
-14
-14
-16
-19
-21
-21
-20
-20
-20
-20
-19
-20
-20
-19
-19
-18
-19
-19
-19
-19
-19
-18
-18
-18
-18
-19
-18
-17
-17
-16
-15
-14
-11
-7
-3
-2
-8
-17
-28
-36
-43
-50
-58
-63
-72
-88
-121
-155
-182
-200
-212
-217
-212
-205
-191
-180
-165
-150
-133
-115
-97
-78
-61
-46
-34
-25
-19
-13
-7
-2
-1
0
2
4
7
7
9
11
13
13
15
18
20
21
21
23
24
26
26
28
28
28
29
31
33
34
35
35
37
37
38
39
40
43
42
42
42
43
43
42
42
41
41
39
38
37
36
34
31
29
27
24
21
19
16
14
12
8
7
6
5
3
4
5
4
4
5
5
5
5
6
7
8
7
8
9
10
8
8
9
9
8
7
7
7
7
7
6
6
6
5
5
5
5
3
2
2
2
2
0
0
1
0
0
-1
0
0
0
-2
-5
-5
-5
-6
-6
-6
-4
-6
-7
-9
-9
-10
-11
-12
-13
-14
-15
-16
-17
-19
-21
-24
-24
-23
-21
-21
-21
-20
-20
-21
-24
-25
-25
-26
-26
-26
-25
-25
-25
-25
-25
-25
-25
-24
-24
-24
-24
-24
-23
-22
-22
-21
-21
-21
-21
-22
-22
-22
-21
-21
-21
-18
-13
-7
-5
-6
-14
-22
-29
-34
-40
-46
-53
-58
-70
-97
-135
-166
-186
-197
-202
-203
-198
-192
-181
-172
-159
-145
-127
-111
-96
-80
-64
-49
-37
-28
-20
-12
-7
-3
0
2
3
5
7
8
11
13
15
16
18
20
20
20
23
26
26
28
28
31
32
33
34
36
38
38
39
40
42
43
43
45
46
48
47
49
49
50
50
50
51
50
50
48
48
46
44
42
39
39
36
34
30
28
25
22
21
19
18
16
15
13
13
15
14
13
13
15
15
15
16
16
17
15
16
16
17
15
15
17
15
15
13
14
13
13
13
12
12
11
11
9
9
9
8
7
6
6
5
5
4
3
3
2
1
1
1
0
-1
-1
-2
-2
-5
-7
-8
-6
-6
-6
-6
-6
-8
-10
-10
-10
-10
-10
-12
-13
-14
-15
-16
-17
-19
-21
-22
-21
-20
-18
-17
-16
-16
-16
-18
-20
-22
-21
-22
-22
-21
-20
-21
-22
-22
-21
-20
-20
-20
-20
-20
-20
-21
-20
-19
-19
-20
-20
-19
-19
-19
-20
-18
-16
-15
-12
-7
-2
-2
-8
-17
-26
-34
-40
-47
-54
-60
-71
-93
-126
-160
-183
-199
-207
-210
-203
-196
-185
-173
-159
-143
-125
-104
-87
-69
-54
-40
-30
-22
-16
-9
-4
0
1
3
6
6
7
9
11
13
14
17
18
20
20
22
24
25
26
27
29
30
31
31
32
32
35
36
37
38
38
39
40
42
44
44
44
44
45
45
45
44
44
43
42
41
40
38
36
34
32
30
27
24
22
20
18
15
13
12
11
10
10
11
11
12
11
12
13
13
14
14
15
14
14
14
15
15
15
15
15
15
13
13
12
12
12
11
10
10
8
7
7
7
6
5
5
5
4
2
1
1
1
0
-1
-2
-2
-3
-4
-5
-6
-8
-9
-9
-8
-7
-7
-8
-9
-11
-12
-12
-11
-12
-13
-14
-15
-16
-17
-19
-20
-20
-21
-20
-19
-18
-17
-17
-18
-19
-21
-22
-22
-22
-22
-21
-22
-22
-22
-22
-23
-21
-20
-20
-20
-20
-20
-20
-19
-18
-18
-18
-19
-19
-18
-18
-18
-16
-12
-8
-5
-3
-5
-14
-23
-31
-37
-45
-54
-61
-69
-86
-118
-153
-178
-198
-206
-206
-202
-192
-184
-172
-161
-144
-127
-110
-92
-73
-57
-45
-35
-26
-17
-10
-5
-2
0
1
2
5
8
10
11
12
13
15
16
18
20
22
24
24
26
26
28
28
29
31
32
34
35
36
35
37
38
41
42
42
41
41
43
44
45
46
47
47
46
45
44
44
42
40
38
37
35
33
31
28
26
23
21
20
18
15
13
13
11
10
9
9
9
10
11
10
11
12
14
16
16
17
16
16
16
16
16
16
16
17
18
17
16
16
15
14
14
16
15
15
14
14
14
14
14
14
14
13
13
13
14
13
12
13
13
13
11
11
11
10
10
11
12
11
8
5
5
6
6
5
4
3
0
-1
-3
-5
-8
-10
-10
-9
-8
-8
-7
-6
-6
-9
-10
-12
-12
-12
-13
-13
-12
-13
-13
-13
-11
-12
-12
-12
-12
-11
-11
-12
-12
-11
-11
-11
-11
-11
-10
-11
-10
-10
-9
-8
-7
-3
0
4
1
-4
-12
-19
-24
-31
-38
-45
-49
-58
-75
-107
-141
-164
-184
-193
-199
-194
-188
-183
-172
-164
-149
-135
-115
-97
-81
-65
-51
-35
-24
-15
-9
-3
1
5
7
10
13
15
17
18
20
22
24
24
26
28
31
31
32
35
35
37
37
39
40
42
43
44
46
46
48
48
49
50
51
51
51
53
52
53
53
55
56
55
55
54
55
54
54
52
51
50
49
46
44
43
39
37
34
32
31
28
25
23
23
22
21
19
20
20
19
20
20
21
21
21
21
22
23
22
23
23
23
22
22
22
22
21
20
20
20
19
18
17
19
17
17
15
15
15
16
16
14
14
12
12
11
12
12
12
12
10
10
10
10
9
9
9
8
7
4
4
4
3
3
3
5
5
3
0
0
1
1
0
-1
-2
-4
-5
-6
-7
-9
-11
-13
-12
-12
-11
-10
-9
-8
-8
-8
-10
-12
-12
-12
-13
-14
-13
-13
-13
-13
-13
-12
-12
-13
-13
-12
-11
-11
-10
-11
-10
-9
-10
-10
-10
-9
-9
-9
-10
-9
-8
-7
-3
0
5
7
3
-5
-14
-21
-27
-34
-42
-47
-54
-65
-87
-118
-147
-172
-185
-193
-194
-189
-184
-173
-166
-152
-140
-122
-105
-90
-72
-57
-42
-30
-20
-13
-7
-1
3
5
7
9
11
13
14
17
17
20
20
22
24
26
28
28
30
31
33
33
34
35
37
39
38
40
41
42
42
44
45
45
46
46
48
49
50
49
50
51
51
52
50
51
51
51
49
48
46
44
43
40
40
37
35
33
32
31
30
29
27
26
24
24
24
23
24
22
22
22
22
22
21
21
21
21
20
20
20
19
19
18
19
18
17
15
15
14
13
13
12
12
12
11
10
10
9
7
6
5
5
4
3
3
3
2
0
-1
-1
-1
-1
-2
-2
-3
-4
-5
-5
-5
-4
-5
-4
-3
-3
-4
-5
-6
-4
-4
-5
-7
-7
-7
-8
-9
-10
-10
-12
-12
-11
-10
-9
-7
-7
-7
-9
-10
-11
-9
-10
-10
-10
-9
-9
-9
-9
-8
-8
-7
-8
-8
-7
-6
-6
-6
-4
-5
-5
-5
-3
-2
-3
-5
-5
-4
-2
1
5
9
7
1
-6
-13
-18
-26
-35
-40
-47
-61
-91
-124
-151
-170
-181
-185
-178
-174
-164
-153
-141
-128
-116
-98
-82
-63
-48
-34
-22
-14
-8
-2
3
7
9
11
13
16
19
19
21
22
23
24
27
29
29
30
31
33
35
36
38
39
40
40
41
42
44
44
45
48
48
50
48
50
51
53
54
54
55
55
55
54
56
55
55
53
52
51
48
46
43
42
39
37
35
33
30
27
25
24
23
22
22
22
22
23
23
24
24
25
25
24
25
24
25
24
25
25
24
24
24
24
22
22
21
21
20
19
20
19
19
17
17
15
14
13
12
11
10
9
8
8
7
6
6
5
4
2
2
1
1
1
1
1
1
0
-1
-1
-1
-1
-1
-2
-3
-6
-7
-8
-9
-11
-13
-13
-12
-12
-10
-9
-8
-10
-12
-13
-14
-15
-14
-14
-13
-14
-15
-15
-14
-14
-14
-13
-13
-13
-13
-12
-12
-12
-12
-12
-11
-11
-10
-9
-9
-7
-6
-2
1
1
-2
-10
-17
-24
-31
-38
-45
-50
-60
-79
-114
-145
-168
-184
-188
-191
-184
-179
-168
-157
-142
-123
-106
-88
-72
-55
-41
-31
-21
-14
-8
-3
0
3
5
6
8
10
11
13
15
16
19
20
22
23
24
27
26
26
27
29
30
30
32
33
34
35
36
37
38
39
39
41
42
43
42
44
44
44
45
43
44
42
42
40
40
39
35
33
31
29
25
22
19
17
15
12
11
9
7
5
5
5
4
3
2
2
1
1
2
2
1
1
2
2
3
3
4
5
5
5
5
6
6
7
6
6
7
6
6
6
7
6
6
4
5
5
4
4
4
4
3
2
2
2
1
1
1
2
2
0
0
-1
-2
-1
-1
0
-1
-3
-4
-5
-5
-6
-6
-7
-9
-11
-12
-13
-14
-16
-19
-21
-21
-21
-21
-20
-18
-17
-18
-20
-22
-23
-24
-24
-25
-24
-24
-25
-25
-24
-24
-24
-25
-24
-23
-23
-24
-23
-23
-23
-24
-24
-23
-23
-23
-22
-21
-20
-20
-19
-15
-10
-6
-7
-13
-21
-30
-37
-44
-49
-56
-63
-69
-83
-105
-139
-164
-184
-198
-205
-208
-199
-194
-183
-174
-162
-147
-131
-113
-99
-83
-67
-51
-41
-33
-27
-20
-14
-9
-7
-5
-3
-1
0
3
5
6
8
10
12
13
14
15
16
18
20
21
22
24
25
26
26
28
30
30
31
31
32
33
34
35
36
38
39
39
39
41
42
40
41
41
42
41
41
41
40
39
36
34
31
30
28
26
24
21
20
18
16
14
13
12
10
9
9
9
8
8
9
9
10
10
11
12
12
12
11
11
12
11
11
11
11
11
10
8
8
8
7
7
7
6
6
5
4
3
3
3
2
2
3
3
2
1
1
0
0
0
1
2
2
0
0
0
0
-1
-2
-3
-3
-2
-1
-2
-3
-4
-6
-6
-6
-6
-7
-9
-12
-13
-13
-15
-17
-18
-18
-20
-21
-21
-19
-18
-16
-15
-15
-16
-17
-19
-20
-20
-20
-20
-20
-21
-19
-17
-17
-17
-18
-18
-18
-17
-16
-16
-15
-16
-17
-17
-16
-16
-16
-16
-15
-14
-13
-13
-13
-11
-7
-3
0
0
-5
-13
-21
-27
-32
-39
-46
-51
-57
-71
-103
-136
-165
-181
-192
-197
-192
-190
-181
-175
-163
-151
-136
-120
-106
-90
-76
-61
-48
-37
-28
-19
-12
-6
-3
0
2
3
5
7
9
10
12
13
15
17
19
20
21
23
24
26
26
28
29
30
32
33
35
35
36
37
38
40
41
43
44
47
47
48
48
49
51
50
51
51
52
51
51
50
50
49
47
45
44
43
40
38
37
35
33
30
28
27
26
25
23
23
22
21
20
20
20
20
19
18
19
19
18
17
17
18
17
16
15
15
15
14
13
14
13
13
11
11
11
10
9
9
9
8
7
5
4
5
4
3
2
2
1
0
0
-2
-2
-3
-4
-5
-4
-3
-5
-7
-8
-8
-8
-7
-6
-6
-7
-9
-10
-9
-8
-8
-9
-9
-11
-11
-12
-13
-14
-15
-16
-18
-17
-15
-14
-14
-12
-11
-12
-14
-16
-16
-16
-16
-16
-15
-14
-14
-14
-14
-14
-14
-14
-14
-13
-12
-12
-12
-11
-10
-11
-11
-11
-10
-9
-10
-9
-8
-6
-3
1
5
5
0
-8
-17
-24
-30
-37
-45
-49
-56
-71
-102
-137
-161
-183
-192
-197
-191
-186
-179
-168
-156
-139
-123
-104
-87
-70
-53
-40
-27
-19
-13
-7
0
2
4
6
8
9
11
13
15
17
18
20
22
24
25
27
28
30
31
31
33
35
37
37
39
40
42
42
43
46
46
47
47
48
50
51
52
51
53
52
52
51
51
51
49
49
46
45
43
40
38
36
34
30
28
26
24
21
19
19
18
17
17
17
17
17
16
17
18
18
18
19
20
19
19
19
20
20
20
20
20
20
18
17
16
16
15
15
15
14
13
12
12
11
10
8
7
7
6
5
4
3
1
1
1
2
1
0
-1
-2
-3
-3
-3
-2
-1
-1
-2
-3
-4
-5
-4
-5
-5
-6
-8
-9
-10
-11
-14
-15
-14
-13
-13
-11
-9
-10
-11
-13
-14
-14
-15
-14
-14
-15
-16
-15
-14
-14
-14
-15
-14
-14
-15
-14
-13
-12
-11
-11
-11
-12
-12
-12
-10
-9
-8
-7
-3
2
5
4
-3
-14
-25
-34
-40
-47
-54
-61
-74
-104
-139
-169
-186
-198
-201
-198
-191
-181
-171
-156
-141
-122
-103
-83
-66
-50
-36
-25
-18
-11
-5
0
3
5
8
9
11
12
15
17
18
19
21
23
24
26
29
30
30
30
32
34
36
36
38
39
41
42
42
43
44
45
46
48
48
48
48
49
52
51
52
50
51
51
49
49
47
47
44
42
40
39
37
35
32
29
27
24
21
20
19
18
16
15
14
13
12
12
13
12
12
12
12
13
14
15
16
16
16
16
18
18
17
17
17
17
17
16
16
17
16
15
16
16
15
14
13
14
13
13
13
13
13
13
12
11
12
11
10
7
7
6
6
7
7
7
6
5
4
3
3
3
2
0
0
-2
-3
-4
-6
-9
-12
-12
-12
-12
-11
-10
-8
-10
-12
-13
-13
-14
-14
-14
-13
-12
-13
-15
-15
-15
-14
-15
-15
-14
-14
-14
-14
-13
-12
-12
-13
-13
-12
-12
-13
-12
-11
-11
-11
-9
-4
0
2
0
-7
-14
-22
-26
-31
-38
-45
-51
-61
-83
-118
-149
-171
-185
-194
-191
-189
-181
-175
-165
-154
-140
-124
-109
-93
-79
-63
-49
-36
-27
-18
-11
-5
-1
1
3
7
9
9
12
14
16
17
18
21
22
24
24
27
28
30
31
33
35
36
36
36
39
39
40
42
43
45
45
47
48
50
51
51
51
52
53
53
53
53
54
53
51
50
50
49
47
45
42
40
37
34
32
30
28
24
22
21
19
17
16
16
15
15
15
15
15
15
16
15
16
16
17
16
17
18
17
18
17
18
17
16
16
16
16
14
14
15
15
13
12
13
12
12
11
12
12
11
10
9
10
9
8
7
7
6
6
5
5
4
2
0
0
0
-1
-1
0
0
0
-1
-2
-3
-3
-4
-4
-4
-5
-7
-9
-9
-10
-11
-14
-16
-17
-16
-15
-14
-12
-11
-12
-14
-16
-15
-16
-17
-18
-17
-17
-17
-17
-17
-16
-15
-16
-17
-17
-17
-16
-16
-16
-15
-15
-15
-15
-14
-13
-13
-13
-13
-12
-11
-10
-6
-1
2
2
-3
-13
-21
-29
-36
-42
-49
-55
-62
-77
-103
-136
-161
-180
-190
-195
-193
-187
-179
-168
-159
-145
-128
-109
-92
-75
-61
-46
-33
-24
-17
-10
-4
0
3
5
7
8
10
12
15
18
18
19
21
23
24
26
28
29
31
31
32
33
36
37
38
39
40
41
41
43
44
46
46
46
47
47
48
48
51
51
51
50
50
51
49
49
46
46
44
41
39
36
34
32
30
28
27
24
22
21
20
19
17
18
18
17
17
19
20
20
20
19
19
19
19
19
19
19
18
17
17
17
16
15
15
14
14
12
12
12
11
11
9
10
9
8
6
5
5
4
3
3
3
2
1
0
0
0
-2
-3
-3
-3
-5
-6
-8
-7
-7
-7
-7
-7
-6
-8
-9
-9
-9
-9
-9
-10
-10
-11
-13
-14
-15
-17
-19
-19
-18
-17
-16
-15
-13
-14
-16
-18
-19
-19
-20
-20
-19
-17
-17
-18
-18
-18
-17
-18
-17
-17
-16
-15
-17
-16
-15
-15
-15
-15
-14
-15
-15
-14
-13
-12
-10
-6
-2
1
0
-7
-17
-25
-31
-39
-46
-53
-59
-69
-92
-127
-161
-182
-198
-199
-194
-189
-180
-171
-158
-146
-127
-109
-91
-75
-60
-44
-33
-24
-18
-10
-4
0
1
3
4
7
8
10
12
13
15
16
19
20
21
21
22
25
26
27
28
31
31
31
32
33
36
37
39
39
41
40
40
42
44
46
45
46
46
47
47
46
46
45
45
42
41
39
36
35
34
32
28
26
23
22
21
19
16
13
11
10
10
9
10
11
11
11
11
12
10
12
13
13
12
12
14
13
13
14
14
14
13
12
11
12
11
10
10
11
11
10
11
9
9
8
7
7
8
8
7
8
7
7
6
7
7
7
6
5
5
3
2
2
3
4
2
1
0
0
-1
-1
-1
-3
-5
-7
-8
-9
-12
-15
-16
-16
-15
-15
-14
-12
-12
-12
-14
-16
-17
-17
-18
-18
-16
-17
-17
-17
-16
-15
-16
-16
-16
-16
-16
-16
-15
-14
-15
-15
-14
-14
-15
-14
-14
-13
-13
-11
-8
-3
0
1
-3
-11
-19
-27
-34
-40
-48
-54
-60
-74
-104
-135
-161
-178
-186
-192
-186
-183
-177
-171
-161
-147
-132
-113
-99
-81
-66
-49
-36
-27
-20
-13
-6
-1
1
4
6
8
9
11
14
15
17
18
20
22
23
24
25
28
29
30
32
34
37
36
37
37
39
40
40
41
43
46
45
46
46
48
48
49
50
50
52
52
52
51
52
53
50
50
49
48
46
44
43
41
38
34
31
28
26
23
21
20
18
16
14
13
12
12
12
13
13
14
14
13
15
16
16
16
16
17
17
16
16
18
17
17
16
15
15
15
15
14
14
14
13
12
13
14
12
12
11
12
12
11
10
10
11
10
8
8
9
9
8
8
7
7
6
3
2
2
2
1
1
2
2
0
-1
0
-1
-1
-2
-3
-4
-6
-7
-8
-9
-12
-14
-17
-16
-13
-12
-11
-12
-11
-12
-14
-15
-15
-15
-16
-17
-17
-15
-15
-16
-17
-16
-15
-15
-16
-15
-14
-13
-14
-14
-14
-13
-13
-13
-13
-12
-12
-12
-12
-12
-10
-9
-5
-2
2
3
-1
-9
-19
-27
-33
-41
-49
-55
-59
-67
-84
-116
-145
-168
-185
-194
-201
-195
-194
-185
-177
-166
-152
-139
-120
-106
-89
-74
-58
-44
-33
-23
-17
-11
-4
0
2
3
6
8
10
11
13
15
17
18
20
22
24
25
26
27
28
30
31
31
32
34
35
36
35
37
39
39
41
41
44
44
45
45
46
49
47
48
48
49
48
48
48
48
48
46
45
43
43
40
39
38
35
33
29
28
27
26
24
23
22
21
21
20
20
19
18
18
18
18
17
17
15
16
16
15
15
15
15
14
13
12
12
12
11
11
11
11
8
8
7
7
6
4
4
3
3
1
0
0
0
-2
-3
-3
-3
-4
-6
-7
-7
-6
-7
-9
-10
-11
-11
-11
-9
-7
-8
-10
-11
-11
-10
-10
-11
-12
-13
-14
-15
-16
-17
-19
-20
-20
-20
-18
-18
-17
-16
-16
-16
-18
-18
-19
-20
-21
-19
-18
-18
-19
-19
-18
-17
-17
-17
-16
-16
-16
-16
-16
-16
-15
-14
-14
-13
-13
-14
-15
-15
-13
-13
-11
-8
-4
0
0
-5
-13
-21
-29
-36
-43
-51
-56
-64
-80
-112
-148
-169
-188
-192
-194
-188
-182
-174
-162
-153
-136
-119
-100
-85
-70
-55
-42
-30
-22
-16
-9
-4
-2
0
2
5
7
9
10
11
12
13
15
17
19
20
22
23
25
26
27
28
30
32
33
34
36
38
38
39
40
41
42
42
44
44
45
46
46
48
48
48
47
48
48
46
46
44
43
40
38
36
33
31
27
26
24
22
20
19
18
16
15
15
16
15
15
17
18
18
18
19
19
20
18
19
20
20
20
19
20
19
20
19
19
18
17
16
16
16
14
14
13
13
11
9
9
8
7
6
5
5
4
3
2
2
1
0
0
0
0
0
0
0
1
0
-1
-1
-1
0
-1
0
-1
-3
-6
-6
-7
-9
-12
-13
-13
-12
-11
-9
-8
-7
-10
-12
-12
-13
-13
-13
-11
-12
-12
-13
-12
-11
-11
-11
-10
-9
-10
-10
-10
-9
-8
-8
-8
-7
-8
-8
-7
-7
-5
-3
0
4
4
-1
-10
-19
-27
-33
-39
-45
-49
-60
-84
-117
-148
-166
-180
-185
-185
-179
-172
-162
-149
-136
-117
-98
-79
-62
-45
-31
-20
-11
-3
3
8
11
13
15
16
18
20
24
24
25
27
29
31
32
35
36
37
38
40
42
43
45
45
48
48
48
49
51
52
52
52
53
55
55
56
57
57
57
56
57
56
56
54
53
52
51
49
46
44
41
38
34
32
30
27
26
23
22
20
19
18
18
17
16
16
15
15
14
15
16
15
15
15
16
16
17
18
18
18
18
19
20
21
20
20
21
21
20
19
20
19
19
19
19
20
18
17
16
17
17
17
16
16
16
15
15
15
15
13
12
11
11
10
11
12
12
10
8
7
6
6
6
5
3
1
0
-1
-2
-3
-7
-9
-10
-9
-9
-8
-6
-6
-7
-10
-12
-12
-13
-13
-13
-12
-12
-14
-14
-14
-13
-13
-13
-13
-12
-13
-14
-13
-12
-12
-13
-14
-13
-13
-14
-13
-12
-11
-10
-9
-5
-1
0
-4
-12
-23
-33
-41
-48
-55
-60
-66
-81
-111
-145
-173
-189
-198
-200
-196
-191
-180
-172
-158
-143
-124
-107
-90
-75
-59
-43
-31
-23
-17
-10
-5
-1
1
3
6
9
10
10
13
14
16
17
20
21
22
24
24
26
27
28
29
30
33
33
33
32
34
36
38
39
40
42
42
41
41
41
42
42
42
44
45
45
45
44
45
43
43
41
41
40
38
36
33
32
29
26
24
22
20
16
14
12
12
10
9
7
7
7
6
5
4
6
6
7
8
8
8
7
8
9
10
11
9
8
7
8
8
7
7
6
5
4
4
5
5
3
2
2
1
1
0
0
0
0
0
-1
-2
-2
-2
-2
-3
-3
-3
-4
-5
-4
-4
-5
-6
-7
-7
-7
-7
-7
-8
-8
-9
-11
-12
-12
-12
-14
-16
-16
-19
-21
-23
-24
-25
-28
-30
-30
-28
-26
-26
-25
-25
-25
-27
-29
-31
-31
-30
-30
-30
-30
-28
-30
-31
-31
-31
-30
-30
-29
-30
-29
-29
-29
-29
-29
-29
-29
-29
-30
-29
-27
-26
-27
-28
-27
-25
-21
-16
-13
-12
-17
-26
-35
-40
-46
-52
-59
-63
-68
-83
-112
-147
-174
-192
-206
-208
-206
-200
-196
-186
-177
-165
-153
-139
-125
-109
-93
-79
-66
-55
-43
-36
-30
-23
-16
-11
-9
-8
-6
-4
-2
0
0
3
5
7
9
8
10
13
15
16
18
20
21
22
23
25
25
27
27
29
31
31
32
33
35
36
37
37
38
39
40
40
41
42
42
42
42
42
42
41
40
38
38
36
34
32
30
28
27
26
25
24
21
19
18
18
18
16
15
14
14
13
12
13
12
13
11
10
9
10
10
9
9
9
9
7
7
6
7
6
5
5
5
4
2
2
2
1
0
0
0
0
0
-1
-2
-2
-3
-4
-5
-5
-6
-7
-8
-9
-9
-10
-11
-12
-12
-13
-15
-16
-16
-15
-14
-13
-14
-15
-16
-17
-17
-16
-15
-16
-18
-19
-20
-20
-22
-24
-25
-25
-25
-24
-23
-21
-20
-20
-20
-22
-23
-25
-25
-24
-24
-23
-24
-24
-23
-22
-23
-23
-23
-22
-22
-23
-22
-21
-21
-21
-21
-20
-20
-20
-21
-20
-19
-17
-17
-16
-13
-9
-5
-5
-8
-17
-27
-35
-40
-46
-53
-59
-63
-74
-101
-138
-167
-186
-199
-204
-204
-198
-194
-184
-175
-160
-143
-125
-109
-92
-73
-58
-44
-33
-24
-18
-12
-8
-4
-1
0
1
4
7
8
10
11
13
14
16
18
20
22
23
24
25
27
28
29
30
31
33
33
34
35
38
39
39
40
41
42
42
43
44
45
45
46
46
45
45
43
43
42
40
38
36
34
31
29
27
25
22
20
18
17
16
14
14
14
14
13
13
14
13
13
13
14
15
14
14
14
15
14
14
13
12
12
11
13
13
12
10
9
9
8
8
7
6
5
4
2
2
2
0
-1
-1
-1
-2
-3
-4
-5
-5
-7
-7
-7
-9
-10
-11
-11
-12
-13
-13
-12
-11
-12
-13
-14
-14
-13
-13
-14
-15
-17
-18
-17
-18
-20
-23
-25
-25
-24
-23
-22
-21
-20
-21
-22
-22
-24
-25
-24
-24
-23
-23
-23
-23
-22
-22
-23
-22
-21
-21
-21
-21
-20
-21
-20
-20
-20
-20
-19
-20
-19
-19
-18
-16
-11
-5
-4
-6
-14
-23
-32
-41
-47
-55
-60
-66
-78
-109
-148
-177
-196
-204
-210
-202
-194
-185
-174
-163
-146
-129
-107
-91
-74
-58
-44
-33
-25
-18
-12
-6
-4
-1
0
1
2
5
7
9
10
12
16
16
17
18
20
21
22
24
25
27
28
30
31
33
33
34
36
36
37
38
39
40
42
43
44
45
44
44
43
44
44
43
42
40
39
36
35
33
33
29
26
24
20
18
15
15
13
11
10
8
8
7
6
5
6
7
7
7
8
9
9
9
9
11
11
11
11
12
13
13
13
12
13
12
12
13
12
11
10
10
11
10
10
9
10
9
8
7
7
8
6
6
6
6
6
5
5
5
4
1
0
1
1
2
1
1
0
-1
-3
-3
-2
-3
-5
-6
-7
-8
-10
-12
-14
-16
-16
-15
-13
-11
-11
-12
-12
-12
-14
-16
-16
-16
-15
-15
-14
-14
-14
-15
-15
-14
-13
-12
-13
-13
-13
-12
-13
-12
-12
-11
-11
-11
-10
-9
-9
-10
-9
-6
-3
0
3
4
-2
-12
-19
-26
-32
-40
-47
-50
-59
-82
-121
-153
-177
-192
-197
-197
-189
-186
-176
-168
-154
-138
-123
-105
-88
-70
-55
-41
-29
-19
-11
-5
0
5
8
9
11
12
15
16
18
20
22
24
25
26
28
31
31
33
34
36
37
37
40
40
42
41
43
45
47
46
47
49
50
51
52
53
54
56
57
55
55
55
56
56
56
56
55
54
51
50
48
47
44
41
39
36
33
30
28
25
23
21
20
20
18
16
15
16
16
16
16
16
17
18
18
19
20
19
20
20
21
21
20
20
19
20
19
18
17
18
19
17
16
15
16
15
14
15
14
14
13
13
12
12
12
11
12
11
10
9
9
10
10
9
8
8
7
5
3
2
3
2
3
3
3
2
0
-1
-1
0
-1
-2
-3
-4
-6
-7
-8
-9
-10
-12
-12
-11
-9
-9
-8
-7
-7
-10
-11
-12
-12
-12
-13
-12
-11
-11
-12
-12
-12
-11
-10
-11
-10
-10
-9
-9
-9
-9
-9
-9
-10
-9
-7
-8
-9
-9
-7
-5
-4
0
4
7
4
-4
-13
-20
-26
-34
-41
-46
-50
-58
-80
-114
-152
-175
-193
-201
-199
-198
-188
-182
-169
-159
-144
-128
-111
-92
-76
-60
-47
-34
-23
-15
-9
-4
1
6
7
9
12
14
15
16
19
20
22
22
23
26
28
30
29
31
32
34
35
37
38
39
41
41
43
43
44
45
46
49
48
50
50
52
51
52
53
54
54
53
53
52
52
51
49
49
47
46
42
41
38
36
33
31
30
29
27
24
24
23
23
22
22
22
22
23
22
22
22
22
21
21
23
23
23
21
21
20
20
20
20
20
18
17
17
17
16
15
15
14
14
13
12
12
12
12
11
11
9
8
7
7
6
4
3
2
2
2
0
0
-1
0
-2
-3
-4
-4
-4
-4
-2
-3
-5
-6
-5
-4
-4
-6
-8
-8
-9
-10
-13
-14
-15
-15
-14
-13
-11
-11
-12
-12
-12
-13
-15
-16
-16
-15
-15
-14
-14
-14
-15
-15
-14
-13
-12
-12
-12
-11
-10
-11
-12
-12
-12
-11
-13
-12
-10
-9
-10
-10
-8
-7
-4
0
3
4
0
-7
-16
-22
-28
-37
-43
-47
-53
-72
-106
-146
-172
-187
-197
-193
-190
-181
-174
-163
-150
-136
-118
-103
-83
-67
-52
-40
-29
-19
-12
-6
0
4
7
9
11
14
16
17
18
19
21
23
24
26
28
29
31
32
35
35
37
37
38
41
41
43
44
45
46
47
50
50
51
51
53
53
54
55
54
56
55
56
55
56
55
53
51
49
48
45
43
40
38
35
32
30
28
26
23
22
21
20
19
19
21
21
21
20
20
21
21
21
21
23
22
22
22
22
21
21
20
20
20
19
19
19
18
17
16
17
17
17
17
18
17
15
14
13
14
13
13
12
12
11
11
10
10
10
8
7
6
5
5
4
5
6
5
3
1
1
0
0
0
0
-1
-4
-6
-7
-7
-9
-12
-13
-13
-12
-12
-10
-9
-9
-11
-13
-14
-14
-15
-16
-15
-14
-14
-15
-15
-14
-14
-14
-15
-14
-14
-14
-14
-13
-12
-12
-12
-11
-11
-12
-12
-12
-11
-10
-10
-7
-2
2
2
-2
-11
-19
-26
-32
-38
-44
-49
-56
-71
-98
-136
-161
-181
-194
-198
-197
-189
-183
-172
-163
-148
-132
-115
-97
-81
-63
-48
-34
-25
-18
-10
-4
0
2
3
6
7
9
12
14
16
17
19
20
22
23
25
27
29
31
31
33
34
34
34
36
37
38
39
40
41
42
43
44
45
48
47
48
48
50
49
49
50
49
49
47
46
44
44
43
41
39
37
35
31
28
26
24
22
19
16
14
13
11
10
10
9
9
8
8
8
9
10
10
11
12
12
12
13
13
14
13
13
14
14
14
13
13
12
12
11
11
11
10
10
9
8
8
8
6
7
8
7
7
7
6
6
6
5
5
6
5
5
4
4
4
2
3
1
1
0
0
0
0
0
-2
-2
-3
-4
-5
-5
-6
-7
-9
-11
-11
-12
-14
-17
-19
-19
-19
-18
-18
-17
-15
-15
-17
-19
-19
-20
-21
-22
-21
-20
-20
-20
-21
-20
-20
-21
-21
-21
-19
-19
-19
-19
-18
-19
-19
-19
-19
-17
-17
-18
-17
-15
-15
-15
-14
-10
-5
-2
-2
-8
-17
-26
-34
-41
-48
-54
-59
-64
-80
-111
-145
-174
-187
-199
-202
-201
-195
-185
-178
-165
-155
-137
-120
-103
-87
-72
-56
-44
-33
-26
-19
-14
-9
-5
-2
0
2
4
6
8
10
12
13
14
15
17
18
20
22
24
24
25
27
29
30
31
31
33
34
35
35
36
37
38
37
38
40
41
42
41
43
43
43
44
44
45
45
45
43
42
41
40
38
35
35
33
31
28
28
27
24
22
19
18
17
17
16
16
16
15
14
14
14
14
14
13
13
14
14
13
12
13
12
11
10
10
10
9
9
8
8
7
6
7
7
7
5
5
4
3
3
2
1
2
2
0
0
0
-1
-3
-3
-3
-3
-5
-6
-6
-6
-7
-8
-11
-10
-9
-9
-10
-10
-10
-10
-12
-13
-11
-9
-10
-11
-12
-11
-14
-15
-16
-17
-19
-20
-18
-16
-15
-14
-13
-13
-14
-16
-18
-18
-17
-17
-16
-16
-15
-15
-16
-16
-15
-15
-15
-15
-13
-13
-13
-14
-14
-13
-13
-13
-13
-11
-11
-11
-11
-11
-9
-5
-1
2
4
1
-7
-15
-20
-25
-33
-40
-45
-51
-65
-97
-131
-159
-179
-188
-191
-184
-181
-174
-168
-158
-144
-130
-113
-99
-82
-67
-51
-37
-26
-17
-11
-6
0
4
6
7
8
10
12
15
16
19
21
22
23
25
27
28
30
31
33
34
35
36
37
40
39
40
41
43
44
47
49
49
50
50
51
52
53
53
53
54
54
54
53
53
51
50
50
48
47
44
41
39
37
36
31
29
27
26
23
22
22
21
20
20
20
20
20
20
21
21
21
20
20
21
20
20
20
20
19
18
18
18
17
16
16
17
16
15
14
14
13
12
11
10
10
9
8
6
6
5
4
3
2
0
0
0
-1
-2
-3
-3
-2
-3
-4
-5
-5
-4
-4
-4
-3
-4
-6
-7
-7
-6
-7
-8
-9
-9
-9
-12
-14
-15
-17
-18
-17
-13
-12
-11
-11
-12
-14
-16
-16
-16
-16
-18
-19
-18
-17
-17
-17
-16
-15
-15
-16
-16
-15
-14
-15
-14
-13
-13
-14
-14
-13
-13
-13
-12
-11
-8
-5
-1
0
-5
-14
-23
-30
-37
-45
-52
-57
-67
-93
-126
-159
-179
-194
-201
-199
-195
-185
-177
-163
-147
-128
-110
-92
-73
-56
-42
-30
-21
-14
-8
-3
0
3
4
6
9
11
11
14
15
16
17
19
21
22
23
24
26
28
29
30
33
33
34
34
35
37
37
39
40
42
42
42
43
44
45
44
45
45
45
44
45
45
43
42
40
38
35
32
29
27
25
21
19
16
14
12
12
13
10
8
7
7
6
6
7
7
7
7
8
9
10
11
12
13
12
12
12
14
13
13
12
13
12
11
11
11
11
10
10
9
9
8
8
8
8
7
7
7
6
6
5
5
6
5
4
2
0
-1
-1
-1
0
0
0
-2
-3
-4
-4
-5
-4
-5
-6
-9
-10
-11
-12
-15
-17
-19
-18
-18
-16
-14
-13
-14
-16
-16
-18
-20
-21
-19
-20
-19
-20
-20
-20
-19
-19
-18
-18
-17
-18
-18
-18
-17
-17
-18
-18
-16
-16
-17
-17
-16
-16
-15
-14
-10
-5
-1
0
-6
-14
-23
-31
-37
-44
-52
-58
-65
-80
-113
-149
-175
-191
-198
-198
-191
-185
-174
-166
-153
-137
-119
-102
-85
-69
-53
-39
-28
-20
-12
-4
0
3
4
6
8
9
12
14
16
17
19
21
23
25
26
28
29
29
30
31
33
33
34
36
38
38
38
38
40
41
42
43
44
45
45
46
46
48
48
48
49
49
50
48
48
47
47
45
42
41
39
38
34
32
30
28
24
20
19
18
17
15
13
13
12
13
11
11
11
11
10
10
12
11
12
12
13
14
15
15
16
17
16
16
15
16
16
16
16
15
15
15
14
13
13
13
13
12
11
11
11
11
11
11
12
12
11
10
10
11
11
9
10
11
10
8
8
8
8
9
9
9
9
7
6
3
3
3
3
2
0
-1
-2
-3
-5
-7
-9
-12
-12
-12
-10
-9
-9
-9
-9
-10
-11
-12
-14
-14
-14
-14
-14
-13
-13
-14
-14
-14
-14
-13
-13
-13
-12
-12
-12
-13
-13
-13
-13
-13
-12
-13
-12
-13
-14
-13
-12
-10
-7
-1
2
1
-4
-13
-21
-27
-33
-41
-47
-51
-57
-72
-104
-137
-161
-175
-186
-190
-187
-182
-176
-171
-161
-149
-133
-117
-100
-84
-70
-56
-42
-30
-20
-14
-7
-1
2
6
6
7
9
12
15
16
18
19
22
23
25
26
28
29
30
31
32
35
35
36
37
38
39
39
40
41
42
43
44
45
46
47
47
48
49
50
50
50
51
51
52
51
51
51
51
49
47
46
46
46
43
41
39
37
34
31
30
28
27
25
24
23
22
22
20
20
19
19
19
18
18
18
18
16
16
15
15
14
14
14
14
13
12
12
12
12
12
10
10
9
8
7
7
7
7
7
6
6
5
5
3
3
3
2
1
0
-1
-1
-2
-3
-5
-5
-5
-6
-7
-7
-8
-10
-12
-14
-13
-13
-13
-12
-11
-12
-13
-14
-14
-13
-13
-14
-15
-16
-16
-17
-19
-21
-21
-24
-24
-23
-21
-19
-19
-18
-19
-20
-22
-23
-22
-22
-22
-22
-21
-22
-22
-22
-21
-20
-20
-20
-21
-20
-20
-20
-21
-20
-18
-18
-18
-19
-18
-17
-17
-17
-16
-14
-11
-7
-4
-4
-10
-20
-30
-37
-44
-53
-61
-65
-70
-84
-114
-148
-174
-191
-201
-204
-201
-196
-186
-178
-166
-154
-138
-122
-104
-86
-69
-56
-44
-33
-24
-16
-12
-8
-5
-2
0
0
3
5
7
7
9
11
13
14
16
18
20
20
21
23
24
25
26
27
29
30
30
31
33
34
35
35
36
37
37
38
39
41
42
43
43
43
42
42
43
42
42
40
38
36
35
34
30
30
28
26
23
22
21
19
18
16
16
16
15
15
16
16
15
16
16
16
14
14
15
14
15
14
13
12
12
11
9
9
9
9
8
8
7
6
6
5
4
3
2
1
2
0
-1
-2
-3
-5
-6
-6
-6
-6
-7
-7
-8
-8
-9
-10
-12
-13
-15
-14
-13
-12
-12
-13
-14
-15
-14
-15
-15
-16
-17
-18
-18
-19
-21
-24
-25
-24
-24
-24
-22
-20
-20
-21
-22
-24
-25
-25
-24
-22
-22
-23
-23
-22
-22
-22
-21
-20
-19
-20
-19
-19
-19
-19
-19
-19
-18
-17
-17
-17
-17
-18
-17
-14
-9
-4
-2
-5
-12
-21
-28
-35
-43
-51
-58
-64
-80
-113
-152
-180
-196
-204
-200
-194
-185
-174
-162
-150
-136
-117
-101
-83
-67
-51
-38
-28
-22
-14
-8
-4
-2
0
3
4
6
8
11
12
12
15
16
19
19
21
22
25
25
27
29
30
31
31
34
35
37
39
40
41
41
42
43
45
46
46
46
47
48
47
47
47
47
46
45
44
43
41
39
38
36
32
28
26
24
21
19
16
15
12
11
10
10
9
8
8
8
8
8
9
9
10
10
10
11
12
13
13
14
15
13
13
13
14
13
12
14
13
13
12
12
12
12
11
10
11
10
9
9
9
7
7
7
7
7
6
5
5
4
3
0
0
-1
-2
-4
-3
-2
-2
-5
-6
-7
-6
-7
-7
-8
-10
-11
-12
-13
-14
-17
-19
-21
-20
-18
-17
-16
-15
-15
-18
-20
-21
-21
-21
-22
-21
-21
-22
-23
-23
-21
-21
-21
-21
-20
-20
-20
-20
-20
-19
-20
-19
-19
-18
-19
-19
-18
-17
-15
-13
-8
-4
-3
-8
-18
-28
-36
-42
-50
-57
-60
-67
-82
-113
-147
-175
-191
-203
-208
-204
-201
-191
-184
-170
-156
-139
-121
-103
-84
-69
-53
-41
-29
-21
-13
-7
-1
0
1
3
6
8
9
12
13
15
16
18
20
21
24
24
26
28
29
29
31
32
34
35
36
38
38
39
39
41
43
43
44
44
47
47
47
48
49
50
49
49
48
49
47
46
45
44
41
38
37
34
33
29
26
24
21
19
16
15
14
12
10
10
10
10
10
10
11
12
12
11
12
13
13
14
14
16
16
16
15
16
17
16
15
15
15
14
13
13
12
13
12
11
10
11
10
9
9
9
9
8
8
8
8
8
6
6
6
6
5
5
5
4
2
0
-1
-1
-2
-2
-2
-2
-2
-3
-5
-5
-5
-5
-6
-7
-8
-9
-10
-11
-13
-15
-18
-18
-17
-15
-13
-12
-12
-11
-12
-14
-16
-16
-16
-17
-17
-16
-15
-14
-14
-14
-14
-13
-13
-13
-12
-11
-11
-12
-11
-11
-10
-11
-10
-10
-9
-8
-9
-8
-6
-4
-1
3
8
7
1
-10
-20
-27
-35
-43
-52
-56
-63
-79
-112
-149
-173
-193
-199
-203
-198
-191
-183
-170
-160
-142
-128
-109
-91
-73
-56
-42
-28
-19
-12
-7
-1
3
7
9
11
13
15
17
18
20
22
23
24
26
28
30
31
32
34
35
37
37
39
40
42
43
44
46
46
48
48
49
50
51
52
52
54
55
56
56
57
58
59
58
57
58
57
56
54
53
52
49
47
44
43
41
40
37
36
34
32
30
27
28
27
26
25
26
27
27
26
26
27
26
26
25
25
25
24
24
23
23
23
22
22
22
22
20
20
20
20
19
18
18
18
17
16
16
16
16
14
14
14
13
11
10
10
9
8
8
7
8
7
6
4
3
2
0
-1
0
2
1
0
0
-1
-1
-2
0
0
-1
-3
-4
-5
-6
-8
-10
-11
-11
-10
-10
-10
-8
-8
-8
-9
-9
-10
-10
-10
-9
-10
-11
-11
-11
-9
-9
-9
-9
-9
-9
-9
-8
-9
-8
-8
-7
-7
-6
-6
-7
-6
-5
-5
-5
-4
-1
3
7
6
2
-6
-15
-23
-29
-35
-44
-51
-58
-78
-112
-151
-173
-190
-197
-194
-190
-180
-175
-163
-154
-139
-123
-107
-88
-73
-56
-43
-30
-21
-12
-4
1
5
8
10
12
13
14
16
19
20
20
22
24
26
27
29
31
32
34
35
37
38
38
38
40
44
44
45
45
48
48
49
51
51
53
54
55
56
57
57
57
58
58
58
56
56
54
54
52
49
48
45
42
39
38
35
31
29
27
25
23
22
21
21
20
20
20
21
22
21
22
22
22
21
21
21
21
21
20
20
19
18
18
17
18
17
17
16
17
16
15
15
15
14
13
13
14
13
11
10
11
11
11
10
11
10
10
9
8
8
6
5
3
2
1
0
0
0
1
0
-1
-3
-3
-4
-4
-3
-4
-6
-9
-9
-10
-12
-14
-15
-16
-15
-14
-12
-11
-11
-13
-14
-16
-16
-18
-18
-17
-16
-17
-17
-16
-16
-15
-16
-16
-15
-14
-14
-15
-14
-14
-14
-15
-14
-14
-13
-14
-14
-13
-13
-13
-11
-6
0
1
-1
-10
-20
-29
-37
-44
-51
-56
-62
-73
-97
-136
-164
-185
-195
-201
-201
-192
-185
-174
-165
-149
-133
-115
-97
-81
-64
-49
-35
-25
-17
-10
-4
0
2
4
6
9
10
13
14
16
17
19
21
23
24
25
26
28
29
30
32
33
34
34
35
37
38
39
39
41
42
43
43
44
47
47
49
49
50
50
50
50
50
51
49
48
46
46
44
41
40
38
36
32
29
27
25
23
19
17
15
14
13
13
13
11
11
12
13
12
12
12
13
14
14
14
14
15
15
15
16
16
15
14
14
14
14
12
11
11
11
10
10
9
9
9
8
7
8
7
6
6
7
6
6
5
5
5
5
5
4
4
4
3
1
0
0
0
-1
-1
0
0
-1
-3
-4
-5
-5
-4
-5
-6
-8
-10
-11
-13
-14
-17
-20
-21
-20
-18
-18
-17
-16
-15
-17
-19
-21
-21
-21
-22
-22
-21
-21
-21
-22
-22
-21
-21
-22
-22
-21
-21
-21
-21
-20
-19
-20
-20
-19
-18
-18
-18
-18
-17
-17
-17
-15
-11
-6
-3
-5
-13
-24
-33
-42
-51
-59
-65
-70
-77
-97
-129
-161
-188
-201
-213
-211
-207
-197
-189
-180
-168
-155
-136
-118
-100
-84
-68
-54
-41
-31
-24
-17
-11
-6
-4
-2
0
2
3
4
6
8
10
11
13
14
16
17
18
20
22
23
24
25
25
28
29
30
30
31
32
32
35
36
37
38
39
39
40
40
40
41
42
43
42
42
42
42
41
38
37
37
37
33
31
31
28
25
22
20
18
16
14
12
12
11
11
10
10
9
9
9
9
9
9
8
8
9
9
8
7
7
7
7
6
5
4
5
4
3
3
3
3
3
2
2
2
1
0
0
0
-1
-2
-3
-3
-3
-4
-5
-5
-5
-5
-6
-7
-8
-8
-10
-11
-12
-12
-13
-14
-15
-15
-16
-15
-16
-15
-15
-16
-17
-16
-16
-15
-16
-17
-18
-19
-19
-22
-22
-24
-25
-26
-26
-24
-23
-22
-22
-21
-22
-24
-25
-26
-26
-26
-26
-24
-23
-22
-22
-22
-22
-22
-20
-21
-20
-20
-19
-20
-20
-20
-19
-19
-20
-19
-18
-18
-18
-18
-16
-15
-12
-8
-4
-4
-9
-18
-25
-31
-37
-47
-55
-59
-68
-90
-124
-156
-177
-194
-197
-195
-188
-184
-177
-167
-155
-140
-126
-108
-91
-75
-61
-48
-36
-27
-19
-13
-7
-2
0
1
3
5
7
8
10
12
14
16
16
18
20
22
23
25
27
28
29
30
31
34
35
35
37
38
40
41
41
44
44
46
45
47
48
48
48
49
51
51
51
50
49
49
47
46
44
43
40
39
36
35
33
30
28
25
24
21
20
20
19
19
18
18
18
18
17
17
19
18
17
17
17
17
17
17
16
16
15
15
14
14
14
14
14
14
13
12
11
11
10
9
8
8
7
6
5
5
4
3
1
1
0
-1
-1
-2
-2
-3
-3
-4
-4
-5
-6
-6
-7
-6
-5
-5
-4
-5
-6
-8
-7
-6
-7
-8
-9
-8
-10
-11
-12
-14
-16
-16
-14
-13
-12
-12
-11
-11
-13
-15
-14
-13
-14
-14
-13
-13
-13
-13
-12
-12
-12
-13
-12
-12
-11
-10
-10
-10
-10
-10
-9
-8
-8
-9
-9
-8
-5
-2
2
5
3
-6
-17
-26
-34
-43
-51
-55
-60
-77
-109
-145
-171
-186
-194
-192
-187
-177
-168
-155
-142
-126
-110
-92
-74
-57
-42
-30
-20
-12
-5
0
4
6
8
10
12
15
15
17
19
21
22
24
25
28
29
29
31
32
34
34
36
38
40
40
40
42
43
44
44
46
47
48
48
49
51
52
53
52
52
51
51
51
50
50
47
47
45
42
39
36
35
32
29
26
25
22
19
18
16
15
14
14
13
12
11
12
13
13
14
13
15
15
15
16
16
18
17
17
17
18
18
16
16
16
16
15
15
15
14
15
14
13
12
12
12
12
12
11
11
10
10
9
10
10
8
7
7
6
4
3
1
1
0
0
1
1
0
-3
-5
-4
-4
-5
-8
-10
-11
-11
-13
-15
-16
-18
-18
-18
-16
-17
-16
-17
-17
-18
-20
-21
-21
-21
-22
-22
-21
-21
-22
-21
-21
-21
-21
-22
-22
-20
-20
-20
-20
-20
-20
-20
-21
-21
-20
-21
-20
-20
-18
-15
-11
-7
-6
-11
-21
-30
-36
-44
-53
-62
-67
-79
-105
-141
-172
-194
-207
-208
-206
-197
-189
-177
-164
-150
-133
-118
-99
-84
-67
-53
-40
-29
-21
-15
-10
-5
-2
-1
0
3
4
6
7
10
11
11
13
14
17
19
21
22
24
24
25
26
27
30
30
32
32
34
36
35
36
37
38
39
41
42
43
44
44
45
44
45
43
44
44
43
42
40
40
38
36
33
31
29
26
23
19
18
16
14
11
10
9
6
6
5
5
5
5
5
6
6
6
7
8
9
10
10
11
12
13
11
11
11
12
11
11
12
11
11
10
10
10
10
9
9
9
8
7
6
7
7
8
8
7
8
7
7
7
7
8
7
6
6
6
5
5
5
5
6
7
6
4
3
1
1
1
1
0
0
-2
-4
-5
-7
-10
-13
-15
-15
-15
-14
-14
-13
-12
-13
-15
-16
-17
-18
-19
-20
-19
-18
-18
-19
-19
-18
-19
-19
-19
-18
-17
-17
-17
-17
-16
-17
-17
-17
-17
-16
-18
-18
-17
-16
-15
-15
-13
-9
-5
-3
-5
-11
-19
-28
-34
-40
-47
-53
-58
-63
-76
-103
-137
-166
-181
-193
-197
-195
-192
-184
-178
-167
-157
-140
-124
-108
-92
-77
-60
-47
-34
-24
-16
-9
-3
0
3
6
9
11
13
16
17
19
19
21
23
26
27
28
31
32
34
34
35
36
38
40
39
41
42
44
44
46
47
48
49
50
52
52
54
53
54
55
56
55
54
56
55
56
54
53
53
51
50
47
47
45
44
40
38
36
34
32
29
28
27
26
24
23
23
23
22
21
21
21
21
20
20
21
20
19
18
18
18
18
18
17
17
17
16
14
14
15
14
14
13
13
13
13
12
11
12
11
10
8
8
8
8
8
7
7
7
6
5
5
5
4
2
1
1
1
0
0
0
0
-2
-4
-6
-7
-6
-6
-5
-5
-5
-7
-8
-9
-7
-7
-8
-9
-10
-11
-12
-13
-14
-15
-17
-19
-19
-17
-15
-14
-12
-12
-12
-14
-16
-17
-17
-16
-17
-16
-15
-15
-16
-16
-16
-16
-16
-16
-16
-16
-15
-15
-14
-14
-14
-14
-14
-14
-13
-13
-13
-13
-12
-10
-8
-4
1
3
-2
-11
-22
-31
-38
-48
-55
-60
-65
-79
-106
-141
-169
-186
-201
-203
-202
-192
-183
-174
-163
-151
-133
-118
-98
-83
-66
-51
-37
-27
-19
-13
-7
-2
2
4
5
8
10
12
13
15
17
18
20
21
22
24
25
26
28
30
29
30
30
33
34
35
35
37
38
38
39
39
42
43
44
45
46
47
47
48
47
48
48
48
48
47
47
45
45
44
43
41
39
37
35
33
29
29
27
25
23
23
22
20
19
18
18
17
16
16
16
16
14
14
13
14
12
12
12
13
12
10
10
9
9
8
8
9
7
6
5
5
4
3
3
1
1
0
-1
-1
0
-1
-3
-4
-5
-7
-8
-9
-8
-9
-10
-11
-11
-11
-12
-13
-14
-14
-15
-13
-13
-13
-15
-16
-15
-14
-14
-15
-16
-16
-17
-19
-20
-21
-23
-23
-21
-19
-18
-17
-17
-18
-20
-21
-21
-20
-20
-21
-21
-21
-21
-20
-20
-19
-19
-20
-18
-17
-17
-18
-19
-18
-17
-17
-17
-16
-16
-15
-14
-12
-12
-11
-6
-1
0
-6
-14
-24
-32
-40
-48
-54
-60
-72
-102
-137
-169
-188
-196
-199
-191
-188
-180
-172
-158
-142
-127
-108
-91
-73
-59
-43
-31
-21
-14
-8
-3
0
3
5
7
9
11
12
15
16
18
19
20
22
24
26
26
29
30
31
32
35
38
38
39
40
42
42
43
45
47
48
48
50
50
51
51
52
54
53
53
53
54
52
51
50
49
47
43
41
38
36
32
29
27
25
23
20
19
18
17
15
15
14
14
14
15
16
15
16
16
17
18
18
19
20
22
21
21
21
21
20
20
20
20
19
18
17
17
16
18
17
18
17
17
16
16
16
14
14
13
12
11
11
11
10
10
9
9
7
6
4
4
4
4
5
4
3
0
0
0
-1
-1
-2
-3
-5
-6
-6
-8
-9
-12
-13
-13
-12
-11
-10
-10
-10
-11
-14
-16
-16
-16
-15
-15
-14
-14
-14
-14
-13
-13
-14
-14
-14
-14
-14
-14
-14
-13
-12
-12
-11
-11
-11
-12
-11
-10
-8
-6
-3
0
2
0
-9
-19
-25
-32
-40
-49
-53
-60
-75
-104
-142
-166
-187
-196
-201
-197
-191
-183
-168
-157
-139
-124
-105
-86
-68
-52
-39
-26
-17
-10
-4
0
4
6
8
11
12
14
15
17
19
21
21
22
25
27
28
29
32
33
34
35
35
37
38
39
40
41
42
41
43
43
45
45
46
48
49
51
50
51
50
51
50
50
50
47
47
45
43
41
38
37
34
31
28
25
22
19
17
14
13
11
9
7
8
9
9
9
9
10
10
9
10
12
12
12
12
12
13
13
13
14
14
14
13
13
13
12
10
10
9
9
8
7
7
7
7
6
6
6
5
3
4
5
4
3
2
3
4
3
2
1
0
-2
-3
-4
-4
-3
-4
-4
-5
-6
-9
-11
-11
-10
-11
-14
-16
-16
-16
-18
-20
-21
-24
-26
-26
-25
-23
-22
-21
-22
-23
-24
-25
-26
-26
-26
-25
-26
-26
-26
-26
-26
-26
-25
-24
-24
-25
-24
-23
-23
-23
-23
-22
-22
-23
-23
-23
-22
-22
-22
-22
-21
-17
-13
-9
-6
-8
-17
-27
-35
-43
-52
-61
-67
-71
-82
-107
-145
-172
-194
-204
-212
-211
-203
-196
-185
-176
-162
-147
-129
-112
-95
-77
-62
-49
-38
-27
-20
-15
-10
-7
-5
-4
-2
0
3
5
7
9
11
12
14
14
16
18
19
20
21
23
24
26
27
29
30
31
32
32
34
35
36
37
38
39
38
39
40
42
43
43
44
44
45
43
44
43
44
42
40
40
37
35
31
30
28
26
24
22
20
18
16
14
13
13
13
13
13
14
14
13
13
13
14
14
14
15
15
15
14
12
11
11
11
11
11
10
9
9
8
8
8
7
6
5
6
5
5
4
4
4
3
4
3
2
1
0
0
0
0
-1
-2
-3
-4
-5
-6
-6
-6
-6
-6
-5
-6
-8
-9
-10
-9
-9
-9
-10
-12
-14
-15
-15
-16
-18
-21
-22
-22
-20
-19
-18
-16
-16
-16
-17
-19
-19
-19
-20
-19
-19
-19
-19
-19
-18
-17
-17
-18
-17
-16
-16
-17
-17
-17
-16
-16
-16
-15
-14
-13
-12
-12
-11
-11
-9
-5
0
3
0
-6
-14
-21
-27
-34
-41
-48
-54
-63
-90
-124
-158
-178
-191
-195
-191
-187
-178
-171
-159
-146
-130
-112
-96
-78
-62
-47
-34
-23
-15
-8
-1
3
6
8
11
13
15
17
19
21
22
23
25
26
28
29
30
33
34
36
36
38
40
41
41
42
45
46
47
48
49
50
51
52
53
55
55
55
55
57
56
56
58
57
58
56
55
54
53
53
49
47
44
42
38
37
35
32
29
26
25
24
23
22
22
22
21
21
21
22
21
22
22
21
21
20
20
21
21
20
20
20
19
18
17
18
18
17
16
16
16
16
14
13
14
13
12
12
12
12
11
12
11
10
9
8
8
7
7
5
6
5
4
3
3
2
0
-1
-2
-1
0
0
-1
-2
-2
-4
-5
-4
-5
-7
-8
-7
-8
-10
-13
-15
-16
-16
-16
-14
-12
-12
-12
-13
-14
-16
-17
-17
-16
-16
-16
-16
-16
-16
-15
-15
-14
-13
-14
-14
-13
-13
-13
-13
-13
-12
-13
-14
-13
-12
-12
-12
-11
-9
-5
-1
0
-4
-11
-21
-30
-37
-45
-52
-59
-67
-82
-116
-150
-176
-192
-201
-205
-198
-192
-180
-171
-156
-140
-122
-104
-86
-68
-52
-39
-28
-19
-13
-7
-3
0
3
4
6
9
11
13
13
14
17
18
20
22
23
25
26
27
28
30
31
32
33
35
36
37
39
39
41
41
42
43
44
45
45
48
48
49
48
49
49
49
49
47
47
46
44
42
40
39
35
33
30
28
24
21
19
16
15
12
11
9
9
8
8
10
10
10
9
10
11
12
13
12
12
12
12
12
12
12
10
9
9
9
9
8
8
8
6
6
6
6
5
4
4
4
4
2
1
2
2
2
1
1
1
0
0
0
1
0
0
0
-1
-2
-4
-5
-5
-5
-5
-6
-7
-8
-10
-10
-8
-8
-10
-12
-14
-15
-16
-17
-20
-22
-23
-23
-22
-21
-19
-19
-19
-19
-21
-23
-25
-25
-24
-23
-24
-24
-23
-23
-22
-23
-23
-23
-22
-21
-21
-21
-21
-21
-22
-21
-19
-19
-20
-20
-19
-17
-17
-18
-18
-15
-10
-5
-2
-4
-10
-19
-27
-34
-40
-47
-55
-60
-67
-90
-125
-159
-182
-196
-206
-202
-199
-189
-183
-172
-159
-143
-126
-110
-94
-78
-61
-47
-35
-27
-19
-13
-7
-3
0
3
5
7
9
12
12
13
15
17
19
20
21
23
24
24
25
26
29
30
31
32
33
35
35
37
38
39
40
40
42
43
45
45
47
49
51
51
50
51
51
52
52
52
51
50
49
46
47
45
43
40
39
37
33
30
27
26
24
23
21
21
22
20
19
19
20
20
20
20
21
21
20
19
19
21
20
19
19
18
18
17
17
17
17
16
15
15
15
15
13
12
12
12
11
11
11
11
11
9
9
8
8
8
7
8
7
7
6
5
4
4
2
1
0
0
0
0
0
0
0
-1
-4
-4
-3
-2
-3
-5
-4
-7
-7
-9
-11
-12
-13
-15
-15
-14
-13
-12
-11
-11
-11
-13
-14
-15
-16
-16
-16
-15
-14
-13
-14
-14
-12
-12
-12
-12
-12
-11
-11
-11
-12
-11
-11
-11
-11
-11
-10
-10
-10
-9
-8
-6
-3
0
3
2
-4
-11
-17
-24
-29
-36
-44
-48
-54
-71
-101
-140
-166
-187
-196
-200
-197
-193
-188
-179
-169
-153
-137
-118
-99
-79
-63
-47
-34
-22
-14
-7
0
4
6
7
9
12
15
16
18
20
22
23
23
25
26
29
30
32
34
35
36
36
39
39
41
41
43
44
45
46
47
49
49
51
52
54
55
55
56
56
58
57
57
57
56
57
54
53
50
49
46
44
42
39
36
32
30
28
25
22
22
22
20
20
19
20
20
20
21
20
21
20
20
19
19
19
19
19
19
19
18
17
16
16
15
14
13
12
11
10
10
9
8
8
7
7
6
5
4
3
2
1
0
-1
-1
-3
-4
-4
-5
-6
-7
-8
-8
-8
-9
-10
-11
-12
-13
-13
-11
-11
-11
-11
-12
-12
-13
-12
-12
-12
-14
-16
-16
-16
-17
-19
-21
-22
-21
-20
-19
-17
-17
-17
-18
-19
-19
-21
-21
-20
-19
-20
-21
-20
-19
-19
-19
-19
-18
-18
-18
-18
-18
-18
-18
-17
-17
-17
-17
-17
-17
-16
-15
-13
-9
-4
-1
-4
-11
-21
-31
-39
-47
-56
-63
-71
-92
-125
-163
-185
-202
-209
-211
-205
-196
-185
-174
-161
-142
-124
-105
-87
-67
-51
-37
-28
-20
-14
-7
-2
0
4
5
6
8
10
11
13
15
17
18
19
21
23
26
28
29
30
31
32
32
35
36
37
37
38
40
40
41
41
44
44
45
46
47
47
47
48
47
48
48
47
46
45
44
41
39
37
35
32
29
27
23
20
18
17
16
14
11
11
10
8
8
9
10
10
12
14
13
13
13
14
14
14
16
16
16
14
14
14
14
13
13
13
12
10
9
9
9
9
8
8
8
7
7
7
8
7
5
4
4
4
5
5
4
3
1
0
-1
-2
-3
-3
-1
-1
-3
-4
-4
-4
-5
-4
-5
-6
-8
-11
-13
-14
-14
-17
-17
-15
-15
-15
-14
-14
-15
-16
-18
-18
-19
-20
-19
-17
-16
-17
-16
-16
-16
-17
-17
-16
-15
-15
-15
-16
-16
-17
-17
-16
-14
-14
-14
-14
-12
-12
-11
-6
-1
1
-1
-7
-14
-21
-29
-37
-44
-49
-56
-72
-104
-141
-171
-188
-198
-197
-195
-190
-182
-173
-159
-147
-130
-114
-96
-80
-64
-50
-36
-25
-16
-9
-2
4
6
8
10
13
14
15
18
20
22
22
24
26
27
27
29
32
33
34
35
37
39
41
42
43
45
45
46
47
49
50
51
51
53
54
54
55
56
57
57
58
57
57
57
56
56
55
54
51
49
47
44
42
37
35
33
31
27
25
23
21
20
17
17
17
16
15
14
15
15
15
15
15
15
16
17
18
19
19
18
18
19
20
19
19
19
20
19
19
18
18
17
16
16
16
16
15
14
14
14
13
13
13
13
14
13
12
13
13
14
13
14
13
13
11
11
11
10
10
10
12
12
11
9
7
6
7
7
6
5
3
1
-1
-2
-2
-6
-8
-11
-10
-10
-9
-9
-8
-7
-8
-10
-12
-13
-14
-15
-15
-15
-14
-15
-15
-16
-16
-14
-14
-15
-14
-14
-13
-14
-14
-14
-14
-14
-15
-15
-15
-15
-14
-14
-13
-13
-12
-11
-8
-4
-1
-3
-8
-16
-25
-32
-38
-45
-53
-57
-62
-76
-101
-135
-163
-185
-198
-208
-206
-203
-196
-188
-180
-166
-151
-132
-113
-96
-81
-64
-50
-38
-29
-21
-14
-7
-1
0
3
4
6
8
10
12
15
17
18
19
20
22
23
24
26
27
29
30
31
32
35
37
37
38
39
40
40
41
42
44
45
45
45
46
48
48
49
49
51
50
49
49
49
50
47
47
45
44
41
39
38
36
33
30
28
27
25
22
21
21
20
19
18
17
17
17
17
15
15
15
15
14
13
13
12
12
12
13
13
12
11
10
11
10
9
8
8
8
7
7
6
5
4
3
2
2
3
2
0
0
0
0
0
-2
-2
-3
-4
-5
-5
-5
-5
-6
-8
-9
-9
-10
-12
-14
-14
-14
-14
-14
-13
-13
-14
-16
-17
-17
-16
-16
-17
-17
-18
-19
-19
-21
-23
-24
-26
-26
-24
-22
-21
-21
-20
-19
-21
-24
-25
-26
-25
-25
-25
-25
-25
-24
-24
-24
-23
-23
-23
-23
-23
-22
-21
-22
-23
-22
-21
-21
-21
-20
-19
-19
-19
-19
-18
-15
-13
-10
-5
-3
-7
-15
-25
-33
-41
-49
-58
-64
-70
-84
-111
-147
-175
-196
-207
-213
-210
-204
-197
-188
-177
-161
-145
-127
-110
-91
-75
-61
-47
-35
-25
-18
-12
-5
0
1
2
3
6
7
9
11
13
15
16
17
19
22
24
25
27
28
30
31
32
32
34
35
36
37
39
41
41
43
43
44
44
45
47
48
50
49
51
51
50
49
48
49
49
49
46
46
44
42
40
38
38
34
32
30
28
26
24
24
22
22
22
22
22
21
20
17
18
18
19
18
17
16
16
15
14
14
14
14
13
13
13
11
10
10
10
8
6
5
5
5
3
3
2
3
2
0
-1
-2
-2
-3
-3
-4
-6
-7
-7
-7
-7
-10
-11
-11
-10
-9
-8
-6
-7
-9
-11
-12
-10
-10
-11
-11
-11
-12
-13
-14
-16
-19
-22
-23
-23
-22
-20
-19
-17
-16
-18
-20
-22
-21
-22
-22
-21
-20
-20
-20
-19
-18
-18
-17
-18
-17
-15
-15
-15
-14
-14
-14
-14
-13
-12
-13
-12
-12
-10
-7
-2
1
1
-4
-13
-19
-25
-31
-37
-43
-48
-62
-91
-129
-158
-179
-190
-190
-189
-183
-179
-167
-154
-140
-124
-107
-91
-76
-60
-46
-32
-23
-15
-9
-2
0
2
4
6
8
9
12
12
15
16
17
19
22
24
25
27
29
30
31
32
34
35
37
38
41
41
42
43
45
47
47
48
49
51
50
52
53
54
54
53
53
52
51
49
48
46
44
41
36
33
30
27
24
22
19
16
14
12
11
9
8
7
7
6
6
6
6
6
6
7
8
8
9
10
11
11
11
11
11
11
12
13
12
12
11
11
11
11
11
9
9
8
8
7
8
8
7
7
6
5
4
3
3
3
3
2
2
0
-1
-2
-3
-3
-3
-3
-2
-2
-4
-5
-6
-6
-6
-6
-7
-8
-9
-11
-13
-14
-17
-19
-20
-18
-17
-16
-15
-14
-15
-17
-19
-19
-18
-19
-20
-19
-18
-18
-19
-18
-18
-18
-19
-18
-17
-17
-17
-17
-16
-16
-16
-17
-16
-16
-16
-15
-15
-13
-11
-7
-2
0
-3
-13
-23
-30
-37
-44
-52
-55
-63
-79
-111
-145
-170
-191
-200
-207
-203
-199
-191
-180
-170
-153
-138
-119
-101
-82
-65
-50
-36
-26
-19
-13
-7
-1
2
4
6
9
12
13
14
16
19
20
22
24
26
27
28
29
31
33
35
35
38
37
38
38
40
43
43
44
45
47
47
48
48
50
51
50
52
51
52
50
51
51
50
49
47
47
44
43
40
38
36
33
30
27
26
23
20
18
16
15
13
12
12
12
11
11
11
11
11
11
13
14
15
15
15
16
17
17
17
17
17
17
16
16
17
17
16
15
16
16
15
14
14
15
13
13
13
15
14
13
13
12
12
11
11
11
12
10
10
10
8
7
6
7
7
7
6
5
4
3
2
1
2
1
-2
-4
-6
-6
-7
-9
-11
-14
-15
-15
-14
-12
-11
-11
-11
-12
-14
-15
-15
-17
-17
-16
-17
-17
-17
-16
-16
-16
-15
-15
-15
-15
-14
-14
-13
-14
-15
-14
-13
-12
-12
-13
-13
-13
-12
-12
-10
-6
-2
1
2
0
-10
-21
-29
-36
-43
-52
-58
-65
-78
-107
-143
-170
-191
-201
-209
-207
-201
-192
-181
-173
-158
-144
-125
-109
-91
-72
-57
-42
-31
-21
-14
-7
-1
2
5
9
11
12
13
16
18
20
20
22
25
26
28
29
31
31
31
33
34
37
38
39
40
41
44
44
45
46
48
48
49
50
52
55
54
54
53
55
55
56
57
57
57
55
55
55
54
53
50
48
46
44
41
40
37
34
31
29
28
26
25
23
25
25
24
23
22
23
23
24
25
26
26
25
24
24
26
25
25
24
24
23
23
23
23
23
21
20
19
19
20
19
19
18
17
16
15
14
15
16
14
14
13
13
12
12
13
12
12
11
10
8
7
6
5
5
4
4
4
4
4
3
1
0
0
1
0
-1
-2
-2
-3
-5
-6
-8
-10
-12
-13
-12
-10
-10
-10
-9
-9
-10
-13
-15
-15
-14
-14
-13
-13
-12
-13
-13
-14
-13
-13
-13
-13
-12
-11
-11
-11
-11
-10
-10
-10
-10
-10
-9
-10
-10
-9
-7
-3
0
3
5
2
-4
-13
-18
-23
-31
-39
-46
-49
-59
-81
-119
-152
-174
-191
-194
-196
-190
-188
-181
-171
-157
-140
-125
-107
-90
-70
-54
-39
-26
-17
-9
-3
2
7
9
11
13
16
18
19
22
24
26
27
28
30
32
34
35
37
39
40
41
42
44
44
46
47
50
51
52
53
54
57
57
57
58
59
60
60
62
61
63
62
62
62
61
61
59
58
57
55
51
50
47
44
41
37
35
33
31
29
28
27
24
24
25
26
26
26
26
25
25
24
24
24
25
25
25
25
24
24
22
22
22
22
21
21
21
21
20
18
18
17
17
15
15
15
15
15
14
14
14
13
12
12
12
11
11
10
10
9
8
7
7
6
4
3
2
0
-1
-2
-1
0
0
-1
-1
-2
-4
-4
-3
-3
-5
-7
-7
-8
-9
-11
-13
-15
-15
-15
-15
-13
-11
-11
-12
-12
-13
-15
-16
-16
-15
-15
-15
-16
-16
-16
-16
-15
-14
-14
-15
-14
-14
-14
-14
-14
-14
-13
-14
-14
-13
-12
-12
-12
-10
-6
-3
0
0
-4
-15
-25
-32
-40
-48
-55
-61
-70
-95
-131
-168
-187
-204
-208
-208
-202
-193
-185
-172
-160
-142
-125
-105
-86
-68
-49
-35
-24
-16
-9
-3
1
4
7
9
11
13
16
17
18
20
24
26
26
28
30
31
32
34
36
37
38
39
41
42
43
43
44
46
46
48
47
50
50
52
53
54
56
54
54
53
54
54
53
54
52
52
48
47
44
42
40
37
35
32
30
26
24
22
21
19
16
15
14
14
13
14
15
15
15
15
16
15
15
14
15
16
15
16
16
16
14
14
13
12
11
10
10
10
10
9
8
8
7
5
5
6
6
5
4
4
4
4
4
3
3
3
2
1
0
0
0
0
-1
-1
-2
-4
-6
-6
-5
-6
-6
-8
-10
-11
-11
-8
-9
-11
-13
-14
-15
-18
-20
-21
-21
-24
-26
-25
-23
-22
-21
-20
-22
-24
-27
-28
-27
-27
-26
-27
-28
-27
-27
-27
-27
-26
-26
-26
-26
-25
-25
-26
-27
-26
-24
-24
-25
-26
-27
-27
-27
-26
-21
-15
-11
-7
-7
-9
-18
-27
-35
-41
-48
-57
-63
-68
-80
-106
-146
-176
-196
-208
-214
-216
-213
-209
-194
-182
-169
-157
-141
-125
-107
-88
-72
-59
-48
-36
-26
-20
-16
-11
-6
-4
-6
-7
-6
-5
-4
-2
1
3
4
4
5
8
9
9
9
10
12
16
18
18
18
19
20
22
24
25
25
25
27
28
29
31
31
34
36
37
38
39
39
35
33
31
33
33
32
30
28
27
24
23
21
19
15
11
8
5
3
2
3
5
5
4
2
3
4
5
5
4
3
1
2
2
4
5
4
3
4
4
2
0
0
1
1
1
1
1
1
0
0
0
0
-1
-3
-4
-3
-2
-2
-3
-2
-2
-3
-5
-6
-7
-8
-9
-10
-10
-10
-12
-14
-15
-17
-16
-15
-13
-11
-11
-12
-13
-13
-16
-17
-18
-16
-14
-15
-18
-19
-19
-20
-22
-24
-26
-27
-27
-26
-25
-23
-21
-20
-20
-22
-23
-26
-27
-26
-24
-23
-23
-23
-23
-22
-23
-24
-23
-23
-23
-23
-23
-22
-21
-21
-22
-21
-20
-18
-17
-17
-18
-19
-19
-15
-10
-5
-1
0
-3
-9
-18
-25
-30
-36
-43
-49
-53
-61
-80
-115
-149
-176
-191
-202
-204
-202
-197
-191
-184
-171
-156
-135
-116
-97
-80
-62
-46
-32
-21
-13
-7
-3
0
3
7
11
14
15
17
21
22
23
23
26
27
30
33
35
36
37
38
39
41
42
45
45
46
45
47
52
57
59
57
57
58
60
60
60
63
64
65
64
65
65
64
63
62
62
60
58
55
53
49
46
43
41
40
38
37
34
33
32
29
28
28
28
27
26
27
26
26
26
28
28
27
24
23
22
22
26
29
32
30
28
25
24
24
24
24
23
22
22
21
20
20
19
16
16
15
15
13
12
11
10
8
5
4
6
8
9
8
7
5
5
3
2
1
0
0
0
3
3
1
0
-2
-1
0
2
2
0
-2
-4
-4
-5
-6
-8
-9
-10
-8
-6
-4
-3
-3
-4
-6
-8
-10
-10
-9
-6
-6
-6
-6
-7
-7
-7
-6
-5
-6
-6
-9
-12
-15
-13
-5
3
6
3
1
0
-1
-2
-1
4
10
14
14
8
-2
-12
-20
-28
-36
-43
-48
-58
-83
-119
-155
-178
-195
-201
-202
-197
-189
-178
-165
-148
-127
-109
-89
-72
-53
-36
-22
-12
-5
1
7
10
14
16
16
17
19
21
22
22
24
25
27
28
32
34
38
39
39
40
41
43
42
44
45
48
48
48
48
49
50
50
52
53
54
56
57
58
56
55
54
55
54
54
52
49
45
42
42
43
44
39
35
32
30
27
23
20
17
15
13
13
14
12
12
12
12
10
11
14
14
15
15
16
17
17
16
17
18
17
15
15
16
16
16
16
14
13
11
10
10
11
10
8
8
8
7
7
9
9
7
4
3
3
1
0
0
-1
-2
-5
-5
-5
-5
-4
-3
-3
-4
-7
-7
-8
-9
-10
-11
-12
-13
-15
-16
-18
-22
-24
-24
-23
-21
-20
-20
-20
-21
-21
-23
-24
-23
-24
-24
-25
-24
-25
-25
-26
-26
-28
-29
-27
-21
-15
-14
-15
-15
-16
-16
-17
-16
-16
-17
-16
-15
-12
-8
-3
0
0
-7
-16
-23
-28
-34
-43
-48
-54
-71
-105
-142
-168
-188
-195
-199
-194
-188
-183
-172
-162
-145
-130
-111
-92
-73
-56
-42
-29
-20
-11
-4
1
4
6
7
10
12
15
17
19
21
21
23
24
27
30
32
33
34
35
35
39
40
42
43
42
42
43
47
49
51
51
54
55
55
56
57
59
59
58
57
59
60
60
59
58
58
55
54
52
50
46
41
38
33
30
30
33
33
30
23
19
17
17
17
15
15
14
14
13
12
14
14
15
15
16
17
16
15
15
17
18
19
20
21
20
19
18
16
13
11
13
18
21
21
19
17
16
16
16
16
17
16
15
13
14
13
14
14
14
13
12
12
12
11
11
10
8
7
8
8
8
8
8
7
6
4
2
1
0
0
0
0
-2
-6
-7
-9
-10
-9
-8
-6
-6
-6
-7
-10
-12
-13
-13
-12
-10
-9
-10
-11
-10
-11
-11
-12
-12
-10
-10
-12
-12
-10
-7
-7
-8
-9
-9
-10
-11
-12
-11
-8
-6
-5
-2
0
3
8
9
2
-8
-19
-26
-34
-41
-48
-54
-61
-78
-109
-149
-175
-193
-202
-204
-204
-196
-192
-182
-173
-158
-139
-122
-103
-88
-69
-54
-39
-28
-19
-12
-6
0
3
6
10
12
13
14
15
19
22
23
22
24
27
28
29
29
32
33
36
38
40
43
41
39
37
40
42
45
47
49
50
49
49
49
51
51
51
52
51
54
55
57
56
56
55
55
54
52
50
46
45
44
44
41
36
33
32
35
36
36
32
28
24
22
20
20
21
20
18
17
18
18
19
20
20
20
19
17
14
14
14
14
14
13
14
16
17
16
15
16
13
12
11
11
10
10
10
7
6
6
6
5
5
5
3
1
0
-2
-2
-1
1
4
3
0
-3
-4
-5
-6
-6
-6
-6
-6
-7
-8
-8
-7
-6
-7
-7
-7
-10
-15
-17
-17
-17
-24
-31
-31
-24
-19
-16
-15
-13
-11
-12
-15
-18
-20
-20
-20
-21
-21
-22
-22
-22
-20
-19
-20
-21
-22
-21
-19
-19
-21
-22
-22
-20
-20
-22
-24
-28
-33
-39
-36
-23
-9
-2
0
0
3
5
5
2
-5
-15
-23
-29
-35
-44
-52
-59
-71
-98
-139
-170
-193
-204
-205
-205
-198
-195
-186
-180
-165
-146
-126
-108
-95
-79
-64
-48
-36
-27
-19
-13
-8
-4
-1
2
6
8
8
9
12
13
14
15
16
17
18
20
22
24
23
24
27
33
36
36
37
36
38
38
39
41
44
48
47
48
48
50
50
52
54
54
55
54
54
53
53
52
52
52
49
46
43
45
45
43
38
34
32
30
28
26
26
25
23
20
20
21
22
22
18
17
20
23
25
24
22
21
21
20
19
16
13
12
11
13
14
15
14
13
12
11
10
9
8
7
6
4
2
2
2
2
0
-1
-2
-3
-4
-4
-3
-3
-6
-9
-13
-15
-14
-10
-7
-3
-2
-3
-4
-4
-4
-5
-7
-7
-5
-5
-6
-9
-10
-10
-11
-13
-14
-15
-16
-16
-16
-15
-13
-12
-11
-11
-11
-11
-12
-14
-16
-17
-16
-13
-11
-10
-10
-10
-10
-10
-11
-11
-10
-10
-10
-12
-12
-11
-10
-8
-8
-8
-8
-8
-7
-6
-4
0
6
8
1
-9
-18
-26
-35
-45
-51
-59
-78
-115
-148
-175
-189
-199
-203
-198
-196
-188
-179
-162
-145
-126
-107
-88
-66
-49
-35
-24
-13
-3
3
8
11
12
14
15
17
19
21
24
25
26
26
29
30
30
31
34
39
42
44
45
47
48
48
49
50
52
52
53
52
53
55
56
59
58
58
58
60
60
59
59
57
58
57
55
51
46
42
42
46
46
44
39
34
30
28
25
22
21
20
20
18
18
17
16
16
17
17
16
17
18
20
21
21
22
22
21
18
18
18
17
15
14
18
23
25
23
20
18
16
15
14
15
13
12
11
10
8
6
6
6
5
3
2
1
0
-1
0
0
-1
-1
-1
0
0
-1
0
-2
-3
-2
-2
-3
-5
-6
-8
-10
-11
-12
-13
-13
-12
-12
-12
-12
-11
-12
-14
-16
-18
-20
-20
-17
-14
-14
-15
-15
-14
-14
-15
-15
-14
-13
-15
-16
-15
-13
-13
-12
-12
-11
-13
-14
-14
-12
-9
-7
-3
2
4
1
-5
-14
-21
-29
-37
-44
-51
-64
-89
-130
-167
-193
-206
-205
-199
-188
-179
-166
-155
-141
-124
-106
-89
-71
-55
-41
-29
-19
-11
-6
0
3
6
9
12
12
12
14
13
12
12
14
20
25
27
27
28
31
33
34
36
37
38
38
40
42
43
45
45
46
44
43
44
45
48
49
53
54
56
54
53
54
55
53
47
46
46
47
44
39
36
35
38
40
40
35
29
24
21
18
16
14
13
12
11
10
9
8
8
8
9
9
9
10
8
8
9
11
11
11
12
13
14
13
13
12
11
11
13
15
15
14
13
14
12
9
6
4
5
8
13
16
17
15
12
11
11
10
6
3
1
4
7
9
9
8
7
5
4
2
1
0
-1
-1
-4
-9
-14
-12
-5
-2
-5
-10
-12
-14
-16
-16
-13
-9
-7
-9
-13
-15
-18
-20
-20
-19
-21
-23
-24
-21
-17
-16
-20
-27
-31
-31
-26
-16
-6
0
0
-2
-9
-16
-19
-18
-14
-13
-13
-12
-10
-6
-2
0
1
-3
-11
-22
-32
-42
-50
-53
-53
-56
-73
-107
-147
-175
-193
-200
-200
-196
-191
-187
-178
-170
-155
-140
-123
-105
-87
-70
-55
-44
-38
-35
-28
-13
1
11
12
12
11
10
11
12
14
16
18
21
23
23
24
26
26
27
30
34
35
37
37
37
37
38
39
39
41
39
39
39
42
45
42
35
29
35
50
65
68
64
58
54
54
53
52
50
50
49
46
45
43
42
39
37
33
31
27
24
23
20
19
18
18
16
9
3
5
18
31
34
28
22
22
23
23
21
19
16
14
14
15
16
15
15
13
13
13
13
13
13
14
11
5
-3
-6
1
12
18
18
14
10
8
7
7
7
6
5
4
5
4
3
1
0
-1
-5
-8
-9
-11
-12
-9
-1
4
2
-3
-8
-8
-5
-5
-10
-14
-12
-8
-8
-12
-16
-17
-16
-15
-15
-15
-14
-14
-15
-16
-17
-17
-16
-15
-19
-23
-25
-22
-19
-17
-17
-18
-16
-15
-15
-15
-15
-17
-20
-21
-20
-17
-14
-15
-17
-20
-18
-16
-16
-18
-18
-14
-7
-1
2
4
2
-3
-12
-20
-29
-38
-46
-52
-57
-71
-100
-137
-167
-186
-199
-201
-198
-192
-185
-177
-167
-156
-141
-124
-104
-86
-68
-55
-43
-32
-23
-18
-16
-14
-11
-8
-6
-5
-3
-1
-1
-1
-1
0
4
9
12
13
14
16
17
18
20
21
22
22
20
20
25
29
30
29
29
30
30
29
30
31
31
32
33
35
35
34
34
34
34
32
31
26
25
28
34
34
29
22
18
18
18
17
12
7
4
6
8
7
5
2
1
2
3
2
-2
-6
-8
-4
-1
0
-3
-8
-11
-10
-7
-3
-1
-2
-5
-7
-9
-10
-10
-10
-10
-12
-12
-12
-12
-14
-15
-14
-16
-20
-25
-24
-21
-19
-20
-22
-24
-26
-28
-31
-31
-28
-28
-30
-32
-33
-33
-34
-34
-34
-34
-35
-36
-34
-30
-28
-31
-35
-40
-43
-43
-41
-41
-42
-45
-47
-46
-44
-43
-42
-41
-40
-42
-44
-46
-48
-50
-48
-46
-42
-41
-40
-42
-46
-50
-52
-50
-49
-48
-46
-43
-41
-41
-43
-48
-51
-49
-43
-39
-37
-35
-35
-34
-30
-26
-27
-32
-38
-43
-47
-53
-60
-68
-76
-93
-119
-151
-181
-200
-215
-214
-212
-206
-203
-196
-184
-169
-149
-132
-112
-96
-80
-67
-56
-50
-47
-40
-33
-26
-23
-22
-21
-20
-20
-18
-14
-10
-7
-5
-6
-7
-4
-1
2
4
5
7
6
7
9
10
9
12
16
19
19
19
21
25
28
29
31
33
34
34
35
35
35
36
38
38
35
31
25
20
19
16
13
12
12
13
15
17
14
6
1
1
1
0
0
2
4
3
1
1
2
0
-2
-2
0
1
1
3
5
6
7
7
7
4
0
-3
-3
3
14
21
19
15
10
9
11
16
18
12
4
0
1
3
3
5
8
7
4
2
0
0
-1
0
2
3
1
-1
-4
-5
-2
1
1
-1
-3
-2
0
2
0
-1
-4
-7
-12
-15
-15
-13
-12
-12
-12
-12
-13
-18
-22
-21
-19
-16
-14
-17
-23
-24
-17
-12
-10
-12
-17
-20
-24
-24
-22
-16
-10
-6
-5
-6
-5
-3
0
0
0
0
2
4
5
4
4
12
22
28
24
16
10
11
14
10
2
-4
-8
-15
-38
-76
-112
-131
-141
-147
-146
-148
-144
-136
-116
-95
-76
-58
-43
-29
-16
-2
12
25
34
44
52
59
63
70
75
76
73
72
80
84
82
77
74
73
77
85
87
83
76
77
85
94
103
108
111
103
98
97
101
101
102
105
106
108
106
108
107
105
104
109
113
110
112
114
121
123
122
114
108
111
114
115
108
105
104
105
101
95
88
79
75
76
82
87
88
85
78
79
88
95
93
88
85
83
79
77
84
87
88
86
84
83
81
81
77
76
75
76
76
77
79
76
77
81
88
88
83
77
70
67
63
59
59
66
71
72
73
71
68
66
71
75
76
71
65
60
55
56
60
69
73
71
63
53
48
45
46
47
52
53
48
41
36
37
43
52
56
57
52
44
37
36
40
42
43
42
41
36
28
27
28
28
26
31
38
39
37
33
31
29
34
40
44
39
32
28
27
29
30
35
37
36
32
26
26
35
47
48
39
30
28
30
23
12
1
-2
-2
-11
-40
-84
-122
-152
-175
-171
-160
-152
-151
-147
-141
-134
-118
-100
-79
-62
-47
-41
-39
-26
-2
21
35
42
43
38
34
37
42
47
48
50
48
48
49
51
53
53
53
53
54
55
56
60
62
66
65
59
56
61
66
66
65
62
63
64
67
69
74
79
79
76
72
73
73
75
76
74
73
67
63
59
60
60
58
54
48
44
39
37
35
33
31
30
26
21
19
18
20
21
21
20
22
24
24
19
12
10
11
15
19
18
15
10
8
5
4
3
4
5
6
7
8
8
8
7
3
-1
-2
-4
-7
-6
-4
-5
-6
-6
-6
-8
-11
-15
-17
-16
-15
-15
-17
-20
-23
-26
-28
-27
-25
-25
-28
-31
-34
-35
-29
-22
-20
-23
-28
-30
-29
-25
-24
-26
-30
-34
-37
-38
-37
-37
-38
-36
-26
-23
-25
-31
-37
-42
-44
-42
-36
-30
-29
-32
-36
-40
-43
-43
-42
-41
-41
-40
-40
-41
-41
-41
-39
-34
-31
-31
-34
-34
-32
-28
-24
-21
-22
-25
-29
-33
-35
-34
-35
-38
-43
-49
-59
-71
-97
-134
-167
-194
-205
-213
-207
-201
-194
-184
-177
-164
-152
-133
-118
-105
-92
-77
-57
-41
-33
-29
-24
-20
-15
-12
-10
-9
-7
-5
0
5
8
7
5
9
13
16
15
15
15
16
18
17
18
22
28
32
32
31
32
37
40
41
40
40
41
41
39
35
34
34
38
41
48
52
51
48
44
43
40
35
30
26
26
27
24
20
18
17
14
9
5
7
7
5
1
0
1
10
19
18
13
8
7
9
13
17
17
16
15
15
14
14
12
13
13
11
13
17
17
12
7
9
14
18
16
9
4
6
8
11
14
14
13
9
4
0
2
7
12
11
9
7
5
0
-3
-3
-1
3
6
4
2
-2
-8
-8
-2
2
1
0
0
-2
-6
-9
-9
-6
-5
-8
-12
-10
-5
-2
-2
-3
-8
-14
-14
-9
-6
-7
-10
-11
-7
-2
-1
-2
-5
-8
-12
-12
-10
-6
-3
-2
-2
-4
-5
-4
-1
3
5
7
11
13
10
3
-6
-13
-15
-17
-21
-23
-27
-40
-64
-101
-131
-151
-165
-173
-178
-171
-165
-155
-147
-138
-125
-110
-96
-84
-63
-41
-22
-11
-3
1
7
14
20
22
23
26
28
29
31
34
35
36
36
38
40
42
42
42
45
46
47
46
47
50
52
54
51
50
49
52
54
54
56
57
58
57
58
58
57
56
58
61
61
61
59
59
55
51
48
47
48
45
42
35
32
32
31
29
24
18
12
10
13
19
22
21
16
11
9
11
18
23
22
17
14
15
18
20
20
20
18
16
19
25
28
25
19
14
14
16
17
16
15
14
13
12
11
10
11
12
13
11
11
10
8
7
9
13
12
9
9
11
11
9
5
4
4
5
6
5
3
0
-1
-1
-3
-4
-3
-1
-1
-5
-10
-15
-15
-15
-16
-19
-22
-23
-22
-20
-18
-17
-18
-20
-20
-19
-20
-26
-33
-37
-38
-38
-39
-37
-34
-29
-27
-31
-34
-31
-27
-26
-26
-25
-22
-21
-22
-25
-30
-33
-34
-32
-30
-29
-30
-29
-27
-24
-20
-17
-19
-25
-35
-45
-50
-50
-55
-63
-67
-71
-91
-128
-162
-186
-196
-208
-210
-208
-203
-195
-187
-175
-165
-146
-130
-115
-105
-92
-72
-57
-46
-40
-32
-25
-20
-18
-15
-10
-6
-6
-8
-7
-3
1
5
6
5
7
10
14
15
12
9
11
16
17
17
16
17
18
19
22
24
27
28
30
33
33
28
23
22
25
31
32
31
32
33
32
31
36
39
38
32
27
23
19
17
16
15
16
19
20
17
12
8
7
5
1
0
1
2
1
2
5
6
2
-2
-1
2
7
7
4
-3
-8
-9
-6
-1
1
1
-1
-3
-4
-4
-4
-4
-3
-3
-2
-3
-6
-9
-9
-9
-9
-7
-8
-9
-12
-13
-12
-10
-9
-12
-15
-14
-11
-10
-9
-8
-9
-14
-20
-19
-14
-11
-14
-20
-21
-19
-15
-16
-17
-17
-18
-19
-19
-17
-15
-17
-21
-22
-22
-24
-29
-33
-33
-33
-31
-28
-26
-23
-24
-28
-31
-31
-30
-31
-32
-32
-29
-27
-28
-31
-33
-31
-29
-29
-31
-32
-34
-32
-28
-22
-20
-22
-25
-25
-25
-25
-26
-25
-23
-21
-19
-16
-14
-12
-10
-9
-13
-19
-26
-32
-36
-41
-44
-50
-56
-64
-84
-115
-151
-168
-179
-187
-196
-199
-193
-189
-180
-176
-165
-153
-134
-115
-102
-87
-73
-57
-44
-33
-25
-20
-16
-11
-4
2
7
7
4
1
1
3
7
8
10
15
18
19
20
23
25
27
29
32
33
33
33
35
39
39
38
35
36
37
39
42
41
42
42
45
46
47
49
49
48
45
43
41
41
41
42
43
41
39
38
37
31
28
26
25
25
24
23
21
19
16
13
13
13
12
11
11
11
11
9
7
8
8
6
5
7
8
8
10
13
14
11
7
4
3
3
2
1
1
2
1
1
1
0
-1
-4
-3
-3
-4
-7
-8
-7
-7
-11
-18
-23
-23
-17
-13
-11
-14
-16
-15
-16
-16
-19
-22
-24
-23
-23
-21
-19
-19
-19
-21
-22
-21
-18
-18
-22
-25
-26
-27
-27
-26
-25
-29
-31
-31
-29
-26
-25
-24
-24
-25
-27
-28
-27
-27
-29
-30
-30
-29
-29
-30
-30
-29
-29
-30
-29
-26
-22
-22
-24
-27
-29
-28
-26
-28
-27
-26
-25
-24
-23
-24
-24
-22
-18
-14
-13
-19
-27
-35
-39
-46
-53
-62
-70
-83
-106
-136
-171
-191
-209
-214
-214
-208
-195
-185
-174
-168
-153
-133
-111
-91
-74
-57
-46
-40
-35
-26
-15
-8
-5
-5
-5
-3
-1
1
4
6
7
8
8
9
13
17
18
17
16
19
23
27
27
26
25
26
28
30
30
29
30
33
38
40
38
35
32
35
36
38
38
38
38
37
36
35
35
29
21
16
17
20
18
17
14
12
10
7
2
-2
-2
0
1
2
4
7
8
8
8
7
4
1
1
4
8
9
5
2
2
4
6
7
7
7
7
6
4
3
3
4
4
1
-4
-7
-4
0
0
-2
-2
-1
-1
-1
-1
-3
-9
-12
-12
-13
-14
-15
-16
-16
-11
-5
-2
-4
-9
-11
-12
-12
-13
-14
-15
-17
-19
-22
-24
-25
-23
-20
-17
-12
-9
-13
-25
-32
-32
-30
-28
-24
-21
-23
-27
-29
-25
-20
-18
-20
-24
-25
-24
-21
-17
-16
-17
-20
-22
-22
-19
-17
-16
-18
-21
-19
-12
-5
-1
-1
-6
-15
-24
-32
-35
-39
-43
-50
-64
-93
-132
-159
-176
-184
-187
-182
-175
-167
-161
-155
-141
-124
-107
-91
-73
-57
-44
-32
-21
-10
-2
-2
-4
-2
4
11
15
17
18
19
21
22
23
27
31
33
33
33
33
34
37
41
44
44
41
42
43
46
48
49
50
51
54
54
56
59
62
61
59
57
57
61
61
61
58
53
53
53
52
49
46
43
42
41
38
34
33
35
33
27
20
17
19
21
23
25
28
27
22
16
11
13
16
19
20
19
16
15
17
20
22
22
23
23
24
25
26
25
23
22
22
22
22
21
20
21
21
22
23
22
22
23
25
26
25
24
23
23
23
22
21
20
18
16
17
19
21
20
20
19
18
18
15
16
18
20
17
12
6
4
7
8
7
4
0
-2
1
5
5
1
-3
-4
-3
-2
0
1
2
1
0
-3
-6
-5
-3
-2
-1
1
3
1
-1
-2
2
4
3
-1
-3
-1
0
0
-2
-4
-6
-6
-5
-2
1
8
17
21
13
-1
-11
-13
-13
-17
-24
-32
-41
-59
-86
-121
-148
-170
-181
-185
-181
-175
-168
-157
-146
-132
-118
-104
-91
-74
-58
-38
-21
-9
-2
1
4
6
7
9
15
24
31
33
33
31
30
33
36
38
39
41
41
41
42
46
49
49
49
50
53
54
54
55
56
59
58
60
61
64
63
61
59
58
60
61
62
62
63
62
60
59
59
60
58
55
52
53
55
54
51
48
48
45
43
40
38
36
31
30
29
29
28
27
28
27
28
29
31
29
26
22
23
29
31
29
24
21
19
18
18
23
27
27
26
23
24
28
30
26
19
13
14
19
21
20
17
14
13
15
16
15
15
15
17
17
15
11
9
10
10
9
7
6
5
3
1
-1
0
2
2
1
0
-2
-3
-4
-4
-3
-4
-5
-7
-7
-5
-6
-9
-11
-11
-10
-9
-10
-10
-9
-8
-7
-8
-12
-17
-20
-17
-13
-11
-14
-15
-14
-11
-10
-11
-12
-12
-11
-11
-12
-13
-13
-12
-12
-11
-11
-12
-12
-12
-11
-12
-12
-11
-7
-2
1
4
7
7
1
-7
-15
-20
-25
-33
-42
-49
-57
-72
-105
-143
-172
-186
-195
-197
-193
-184
-177
-169
-157
-144
-128
-113
-96
-78
-61
-48
-38
-29
-20
-12
-5
2
7
10
9
6
6
11
17
20
21
22
25
27
28
28
30
33
35
36
33
33
34
36
37
40
45
45
40
34
35
39
45
49
53
54
53
54
52
50
47
47
50
54
55
54
53
53
54
53
50
50
50
51
46
39
34
34
33
33
32
28
26
24
26
27
27
26
25
25
23
23
24
28
28
24
19
17
17
18
18
18
19
19
17
15
15
15
13
13
13
13
15
17
17
15
13
11
11
11
11
12
12
11
8
5
2
3
5
5
3
3
4
2
1
0
0
0
0
1
1
2
1
2
3
4
1
0
0
-1
-3
-8
-12
-12
-8
-6
-8
-8
-7
-4
-3
-2
-3
-6
-10
-11
-9
-6
-4
-4
-5
-5
-5
-6
-5
-4
-3
-3
-3
-3
-2
-3
-5
-6
-4
-2
-1
-1
-1
-1
0
1
3
4
3
5
9
13
12
5
-2
-10
-16
-23
-31
-37
-44
-60
-89
-125
-153
-172
-183
-185
-179
-172
-166
-154
-143
-128
-114
-96
-77
-56
-39
-24
-13
-3
4
11
17
20
22
24
28
31
32
33
34
36
36
37
38
41
44
46
48
48
49
49
50
52
56
57
57
58
59
61
61
65
66
68
68
68
69
69
71
71
74
75
75
73
71
71
69
69
69
69
64
60
58
58
57
53
48
43
41
41
41
41
37
35
33
34
34
34
34
35
36
35
34
34
36
36
37
38
38
39
36
36
36
36
35
33
32
31
30
29
31
33
33
33
32
31
30
31
31
31
29
27
26
25
26
26
26
25
24
23
22
21
20
19
18
19
19
18
15
14
14
12
10
10
11
13
14
13
12
12
12
11
8
5
0
-2
-1
0
3
5
5
3
1
-1
-3
-2
0
0
0
0
0
0
-1
-1
-1
-1
-1
-1
0
0
0
0
-1
-1
-1
0
2
1
0
1
2
3
5
8
14
19
18
10
-1
-11
-18
-25
-34
-41
-45
-54
-77
-113
-147
-170
-185
-188
-185
-177
-168
-160
-148
-136
-118
-100
-79
-61
-46
-34
-21
-10
-2
3
8
13
17
20
22
25
27
28
29
31
35
35
36
36
38
39
40
41
43
45
47
49
50
51
49
48
48
50
54
55
57
57
60
61
60
59
58
59
59
62
63
65
65
64
63
61
60
58
58
57
56
52
50
49
47
45
41
39
35
31
29
28
28
26
24
23
23
22
21
22
22
24
25
26
27
28
28
27
27
25
26
26
25
24
24
26
25
24
23
22
21
22
23
24
23
20
17
16
16
15
16
17
18
17
15
15
14
13
11
10
11
12
11
10
10
8
6
5
5
6
6
5
4
4
5
5
4
1
0
-3
-5
-6
-8
-10
-12
-13
-12
-10
-9
-7
-5
-5
-7
-10
-11
-10
-8
-9
-10
-11
-12
-13
-11
-8
-6
-7
-10
-11
-11
-9
-7
-8
-7
-8
-9
-10
-10
-8
-8
-6
-5
-4
-3
-2
-2
1
6
10
11
5
-1
-8
-12
-17
-25
-34
-43
-54
-75
-109
-144
-171
-185
-190
-188
-182
-176
-165
-156
-141
-127
-109
-93
-77
-61
-48
-34
-23
-13
-6
0
7
12
13
15
17
18
19
20
24
25
27
27
28
30
33
34
35
36
36
38
39
42
42
43
46
47
50
49
48
47
49
54
57
59
59
61
61
62
63
66
69
69
68
66
67
65
65
65
66
66
63
61
58
58
55
53
51
49
46
43
41
38
38
38
38
37
37
36
35
35
34
34
33
31
31
33
35
34
33
32
33
33
32
32
30
29
27
27
28
28
28
27
28
27
27
25
25
24
23
23
22
22
21
20
18
19
18
15
14
14
15
15
15
15
14
12
10
8
7
9
10
12
11
9
8
7
8
7
6
4
4
4
3
0
-2
-1
-1
0
1
3
4
3
1
-1
-2
-2
-2
-1
0
0
-1
-1
-1
0
1
2
2
1
-1
-3
-1
0
0
0
1
3
3
3
3
3
4
5
7
10
14
18
20
18
11
1
-7
-13
-22
-30
-36
-44
-60
-93
-128
-160
-177
-187
-190
-181
-174
-162
-156
-144
-128
-110
-90
-73
-54
-38
-24
-16
-8
-1
5
10
14
16
19
21
22
24
25
28
28
30
32
35
34
34
35
37
39
39
41
44
45
44
45
48
48
49
51
54
54
54
55
56
59
59
61
60
61
62
62
63
63
63
60
60
59
59
58
56
54
50
47
43
43
40
36
32
31
31
29
27
25
25
25
24
23
22
23
21
21
22
22
22
22
22
22
22
21
22
22
21
19
18
19
17
18
20
20
17
15
14
14
16
16
14
13
12
11
12
13
11
9
7
7
7
7
7
6
5
2
0
0
0
1
2
3
3
2
0
0
0
0
-1
-4
-5
-5
-6
-8
-10
-13
-15
-15
-13
-10
-7
-5
-6
-7
-10
-12
-13
-12
-12
-13
-12
-12
-13
-13
-13
-13
-13
-14
-14
-15
-15
-15
-15
-13
-12
-13
-13
-13
-12
-12
-11
-9
-9
-8
-6
-1
4
5
0
-8
-17
-24
-32
-40
-49
-55
-68
-91
-127
-163
-183
-200
-200
-198
-191
-183
-170
-151
-135
-116
-99
-81
-66
-50
-37
-27
-18
-11
-6
0
1
2
3
6
8
10
11
11
12
14
16
17
18
20
19
20
22
24
26
28
30
29
29
29
32
33
32
32
33
36
36
38
38
40
42
43
44
43
45
44
44
42
41
42
40
40
39
37
34
32
30
28
26
24
22
19
18
15
12
8
6
7
7
6
4
3
5
5
5
4
5
4
5
5
6
7
7
7
7
8
9
9
7
7
7
6
7
7
8
8
8
8
8
8
7
7
8
9
8
6
6
7
8
6
6
5
6
5
4
3
3
4
3
3
2
2
2
1
1
0
0
-1
-1
-3
-7
-9
-11
-12
-15
-17
-17
-17
-16
-15
-14
-13
-14
-16
-18
-19
-20
-20
-23
-23
-22
-21
-22
-22
-21
-20
-20
-21
-21
-21
-21
-22
-22
-21
-20
-18
-18
-19
-19
-19
-19
-19
-18
-18
-18
-14
-7
-1
0
-2
-8
-14
-20
-25
-32
-40
-48
-57
-68
-92
-125
-156
-178
-188
-193
-189
-187
-180
-171
-161
-148
-134
-116
-101
-84
-70
-54
-41
-31
-23
-17
-10
-4
-1
1
3
6
8
9
10
10
12
14
16
18
19
20
21
23
24
26
26
27
28
29
31
31
32
32
32
33
35
38
39
38
38
39
41
42
42
43
46
45
46
45
46
46
45
45
43
43
43
43
41
40
37
34
32
29
27
24
22
19
18
17
15
13
12
11
10
9
10
10
11
11
12
12
13
12
11
11
12
13
12
11
9
9
9
9
9
10
10
8
7
6
6
6
6
5
5
4
2
1
1
3
5
5
4
1
0
0
0
0
2
1
2
2
1
0
0
-2
-3
-5
-5
-7
-7
-7
-6
-6
-7
-9
-10
-10
-9
-10
-12
-13
-15
-15
-16
-18
-21
-24
-26
-25
-22
-20
-20
-19
-20
-21
-22
-24
-25
-25
-24
-24
-23
-21
-21
-21
-23
-23
-23
-22
-23
-23
-23
-23
-22
-22
-22
-21
-21
-21
-22
-22
-21
-20
-20
-19
-18
-16
-14
-10
-5
-2
-5
-13
-20
-26
-32
-39
-48
-55
-61
-73
-99
-136
-167
-189
-197
-201
-197
-193
-186
-179
-170
-155
-140
-122
-106
-89
-72
-58
-46
-37
-29
-23
-17
-9
-4
-3
-3
-2
0
2
4
7
10
12
12
12
12
14
16
18
19
20
22
23
24
23
24
26
27
27
29
31
32
33
33
34
35
36
37
39
40
39
39
39
40
40
40
41
42
44
42
40
39
39
38
37
36
33
32
29
27
24
23
23
22
20
18
16
15
14
13
13
12
10
11
11
10
7
6
6
5
5
4
4
3
3
4
4
3
2
1
0
0
-2
-2
-3
-4
-4
-5
-6
-7
-8
-9
-11
-12
-12
-13
-14
-16
-18
-19
-19
-19
-19
-18
-17
-20
-21
-22
-22
-24
-25
-24
-23
-22
-23
-23
-22
-22
-21
-21
-21
-23
-25
-26
-27
-28
-30
-31
-32
-31
-29
-29
-27
-26
-27
-30
-30
-30
-30
-32
-34
-34
-32
-30
-29
-27
-26
-26
-28
-28
-27
-27
-26
-27
-26
-25
-25
-26
-28
-26
-26
-26
-25
-23
-23
-21
-17
-11
-7
-9
-15
-22
-30
-38
-47
-53
-58
-64
-78
-107
-142
-176
-196
-209
-212
-208
-200
-191
-181
-167
-153
-134
-115
-98
-83
-69
-57
-46
-36
-28
-21
-16
-13
-13
-13
-11
-8
-6
-5
-2
-1
0
0
1
3
5
6
7
9
9
10
10
11
13
14
15
16
18
19
19
20
21
23
25
25
26
27
29
32
33
33
31
30
31
33
33
30
28
27
27
24
22
19
18
16
12
9
6
4
1
0
-1
-4
-4
-4
-3
-4
-4
-3
-3
-4
-5
-5
-3
-2
-3
-4
-4
-4
-5
-5
-4
-5
-4
-3
-3
-3
-5
-6
-7
-8
-9
-10
-10
-11
-14
-16
-17
-18
-19
-20
-20
-20
-21
-20
-20
-21
-24
-27
-27
-26
-25
-24
-23
-24
-24
-25
-24
-23
-23
-23
-25
-26
-28
-29
-30
-32
-33
-35
-37
-37
-37
-36
-34
-32
-33
-35
-37
-38
-39
-40
-39
-36
-35
-38
-39
-38
-36
-36
-36
-36
-36
-37
-37
-37
-36
-36
-36
-36
-34
-33
-33
-34
-35
-33
-31
-25
-20
-18
-23
-30
-38
-44
-51
-60
-67
-74
-82
-104
-140
-177
-205
-219
-226
-220
-214
-206
-195
-184
-167
-150
-128
-110
-92
-77
-62
-49
-40
-33
-27
-22
-19
-17
-15
-14
-12
-11
-9
-6
-4
-4
-2
-1
0
1
3
4
5
7
7
9
11
12
12
11
11
13
15
18
18
17
17
19
23
26
27
28
29
30
28
28
28
28
28
25
24
22
20
18
16
14
10
6
3
1
-1
-4
-6
-7
-9
-11
-13
-14
-15
-18
-18
-16
-15
-16
-16
-16
-18
-20
-18
-16
-16
-17
-16
-14
-12
-12
-12
-12
-12
-13
-13
-11
-11
-12
-12
-11
-10
-11
-12
-13
-12
-13
-15
-15
-13
-12
-14
-15
-15
-14
-13
-13
-14
-16
-19
-21
-21
-19
-19
-21
-22
-23
-25
-25
-25
-25
-26
-29
-32
-33
-34
-36
-37
-38
-39
-39
-39
-36
-33
-32
-34
-38
-40
-42
-44
-45
-44
-42
-41
-40
-41
-42
-43
-43
-44
-44
-43
-43
-44
-45
-44
-43
-43
-43
-43
-42
-43
-43
-43
-41
-40
-38
-35
-30
-29
-31
-34
-40
-48
-58
-66
-76
-81
-86
-97
-122
-159
-190
-216
-227
-233
-231
-223
-218
-205
-197
-183
-168
-147
-127
-111
-95
-82
-68
-58
-50
-44
-38
-32
-28
-25
-24
-22
-20
-19
-17
-14
-12
-12
-13
-13
-10
-8
-6
-5
-3
-3
-2
-1
1
4
5
5
5
7
8
9
9
12
13
12
11
11
15
16
16
16
17
19
20
21
21
22
21
20
20
19
18
16
14
12
9
6
2
1
-1
-4
-9
-11
-13
-14
-16
-19
-20
-20
-21
-21
-19
-17
-17
-18
-19
-18
-16
-15
-16
-16
-16
-17
-17
-16
-15
-15
-16
-17
-17
-16
-16
-17
-18
-19
-20
-22
-22
-20
-19
-19
-19
-21
-21
-22
-23
-24
-25
-26
-25
-24
-24
-25
-26
-28
-29
-30
-30
-31
-32
-34
-35
-34
-34
-33
-33
-33
-35
-38
-39
-39
-39
-41
-42
-43
-43
-44
-46
-49
-52
-52
-53
-52
-50
-46
-44
-47
-52
-55
-54
-53
-52
-51
-50
-50
-53
-54
-54
-52
-51
-51
-51
-51
-51
-52
-52
-52
-52
-51
-50
-49
-48
-47
-47
-47
-48
-48
-49
-48
-44
-41
-35
-32
-31
-38
-44
-51
-58
-62
-69
-74
-82
-93
-118
-155
-190
-218
-229
-238
-236
-232
-225
-214
-206
-190
-176
-155
-139
-124
-110
-95
-79
-68
-58
-51
-43
-38
-34
-32
-30
-28
-25
-24
-24
-22
-20
-18
-17
-15
-14
-13
-13
-13
-10
-8
-6
-6
-5
-5
-5
-5
-3
0
1
2
1
2
4
6
6
7
10
11
11
10
12
14
16
17
15
15
16
16
15
14
13
12
12
11
10
8
5
0
-2
-3
-5
-6
-8
-9
-10
-11
-12
-13
-12
-13
-15
-15
-15
-15
-15
-15
-16
-16
-17
-17
-17
-17
-18
-19
-20
-21
-21
-21
-20
-20
-20
-22
-24
-25
-25
-24
-26
-27
-28
-28
-29
-30
-30
-31
-32
-34
-35
-35
-36
-38
-41
-42
-41
-41
-42
-44
-45
-47
-47
-46
-45
-44
-45
-45
-46
-46
-47
-47
-46
-45
-46
-49
-50
-53
-55
-57
-57
-56
-56
-55
-54
-54
-53
-53
-53
-55
-55
-55
-56
-57
-57
-57
-57
-57
-55
-53
-54
-55
-55
-54
-53
-53
-53
-53
-51
-53
-54
-55
-55
-54
-51
-49
-48
-47
-48
-47
-42
-36
-37
-40
-45
-53
-60
-69
-76
-83
-89
-97
-116
-146
-186
-211
-232
-241
-242
-239
-230
-225
-210
-200
-183
-167
-148
-128
-111
-93
-80
-66
-59
-52
-46
-40
-37
-35
-32
-29
-28
-27
-25
-23
-21
-20
-19
-18
-16
-15
-15
-13
-11
-9
-8
-8
-8
-6
-5
-4
-2
-1
0
0
3
7
8
8
7
9
9
10
10
12
12
13
15
15
15
13
12
10
11
10
7
5
2
-1
-4
-6
-8
-11
-15
-19
-22
-24
-26
-28
-28
-25
-25
-27
-28
-28
-27
-27
-25
-24
-23
-24
-25
-26
-26
-27
-27
-27
-27
-27
-28
-28
-28
-28
-28
-28
-29
-31
-33
-33
-31
-32
-34
-35
-36
-37
-38
-37
-38
-39
-41
-44
-44
-44
-43
-43
-43
-43
-45
-47
-49
-49
-50
-48
-48
-47
-47
-49
-49
-51
-52
-55
-55
-55
-55
-56
-59
-59
-59
-59
-59
-58
-56
-57
-57
-59
-60
-63
-63
-62
-63
-64
-65
-64
-63
-61
-62
-62
-61
-60
-60
-60
-59
-59
-60
-61
-61
-59
-58
-58
-58
-57
-56
-56
-54
-50
-46
-43
-41
-45
-53
-62
-70
-78
-87
-93
-100
-108
-128
-163
-201
-231
-244
-254
-250
-246
-237
-229
-220
-205
-188
-166
-148
-129
-112
-96
-84
-74
-64
-58
-51
-46
-42
-39
-38
-36
-35
-32
-31
-29
-28
-27
-26
-24
-23
-22
-20
-19
-18
-17
-16
-15
-14
-12
-11
-9
-8
-7
-5
-4
-3
-3
-3
-1
0
2
3
5
6
6
7
6
5
3
4
4
5
5
2
0
-1
-4
-8
-11
-12
-15
-18
-22
-25
-26
-28
-30
-33
-36
-37
-37
-35
-35
-36
-39
-39
-38
-36
-34
-34
-34
-35
-34
-33
-32
-31
-31
-32
-32
-32
-33
-34
-36
-36
-35
-36
-37
-36
-35
-36
-37
-37
-37
-37
-38
-39
-39
-40
-42
-43
-44
-45
-46
-45
-43
-44
-46
-48
-49
-49
-48
-47
-48
-49
-50
-51
-51
-50
-51
-53
-55
-57
-57
-57
-58
-62
-65
-65
-66
-64
-63
-60
-59
-60
-62
-63
-63
-64
-64
-65
-65
-66
-67
-66
-65
-63
-65
-65
-67
-66
-64
-65
-64
-63
-62
-63
-62
-62
-62
-64
-66
-65
-65
-64
-63
-60
-56
-51
-47
-45
-48
-55
-61
-66
-68
-74
-83
-93
-104
-118
-148
-185
-215
-234
-243
-247
-242
-239
-230
-222
-210
-196
-178
-160
-145
-128
-113
-99
-87
-77
-70
-62
-55
-50
-48
-45
-42
-40
-38
-36
-35
-34
-34
-31
-29
-28
-27
-27
-25
-23
-21
-19
-17
-16
-15
-14
-14
-12
-10
-9
-9
-7
-5
-4
-3
-1
1
3
3
3
4
6
6
7
8
8
8
7
7
8
7
5
2
1
-1
-5
-10
-13
-14
-17
-20
-21
-22
-24
-27
-29
-30
-29
-30
-30
-31
-31
-32
-32
-30
-32
-34
-33
-31
-29
-27
-26
-26
-26
