19
26
30
23
24
29
35
38
40
44
47
46
45
47
49
50
50
54
52
48
51
53
55
52
51
49
48
44
43
43
41
40
36
31
29
27
28
27
25
23
21
18
15
14
13
10
8
6
5
8
10
8
9
12
14
12
12
11
9
10
14
19
15
12
13
16
16
12
13
16
19
22
28
32
37
37
35
34
28
28
37
49
50
46
45
51
59
58
52
48
49
50
52
50
44
32
22
14
10
8
-3
-14
-14
-10
-9
-13
-16
-16
-14
-14
-15
-12
-7
4
26
56
86
106
121
127
116
106
111
131
157
156
106
42
11
9
-4
-33
-57
-66
-64
-62
-54
-48
-43
-44
-41
-40
-40
-41
-43
-45
-48
-47
-43
-45
-44
-45
-44
-44
-40
-40
-44
-44
-41
-40
-43
-42
-39
-42
-48
-50
-48
-47
-44
-39
-36
-37
-39
-34
-28
-27
-31
-32
-24
-16
-15
-12
-7
-3
1
5
7
7
11
19
20
12
6
10
13
9
3
0
2
2
2
-1
-3
-4
-1
-2
-7
-8
-7
-5
-6
-6
-15
-20
-16
-10
-10
-16
-20
-21
-21
-19
-18
-21
-25
-25
-23
-17
-15
-15
-18
-18
-18
-18
-21
-27
-26
-22
-21
-18
-17
-18
-20
-14
-12
-14
-12
-8
-6
-9
-10
-10
-5
-1
1
-4
-9
-9
-3
1
3
3
-3
-1
4
1
-10
-14
-8
-2
3
0
-5
-6
-5
-3
-6
-8
-4
4
9
10
13
17
19
19
20
16
15
23
34
39
39
37
39
51
62
66
62
60
60
59
58
52
48
39
30
23
18
11
5
5
4
6
11
11
5
0
2
4
10
21
43
70
100
128
147
153
153
154
168
203
231
217
151
83
43
31
16
-14
-37
-41
-36
-26
-21
-18
-22
-21
-18
-12
-6
-9
-16
-20
-20
-17
-10
-7
-10
-11
-8
-7
-13
-22
-23
-19
-15
-15
-15
-17
-18
-21
-19
-17
-17
-16
-14
-14
-15
-12
-9
-4
-5
-5
-4
-1
5
9
12
14
14
16
21
27
30
32
33
37
41
41
38
32
32
35
37
35
33
29
26
24
20
20
23
22
19
18
15
11
14
18
20
12
8
2
-2
0
7
8
-2
-6
-5
-4
-5
-5
-4
-6
-4
-6
-5
-2
0
-2
-1
4
7
4
2
2
6
8
15
20
26
29
34
32
27
23
30
42
52
53
52
55
63
74
77
73
68
67
67
63
62
61
60
52
38
30
27
20
14
13
16
19
23
21
21
24
26
19
14
19
32
57
88
121
144
167
172
172
166
176
203
228
222
156
81
37
33
33
21
12
7
11
16
21
28
38
44
46
44
40
39
41
48
52
51
49
47
45
42
40
40
46
50
47
41
41
46
53
56
53
53
53
55
53
51
53
54
59
63
68
72
75
77
77
83
87
90
92
93
95
97
101
105
112
112
110
110
115
123
119
119
118
120
118
119
118
115
116
111
110
107
110
110
109
104
97
98
100
102
100
99
99
101
103
99
96
95
99
104
104
102
102
103
105
106
99
96
98
100
97
95
96
100
105
106
108
105
99
96
98
102
99
101
103
103
98
98
106
106
108
107
106
106
101
99
101
110
111
113
112
110
108
113
117
116
118
119
122
119
122
127
126
126
123
124
122
128
135
144
150
150
144
137
142
147
161
168
169
166
168
182
193
197
194
193
190
183
176
176
181
176
165
151
141
133
132
134
132
130
129
136
138
137
134
129
131
138
161
186
216
249
277
292
275
248
216
203
206
220
222
192
151
113
98
96
86
73
79
93
99
105
112
121
120
121
126
129
124
116
116
118
121
121
121
112
107
109
110
111
106
108
108
105
97
92
93
95
96
94
91
86
85
85
84
87
84
80
80
81
80
82
87
88
87
86
89
96
100
103
104
107
106
108
108
108
108
112
120
116
115
114
116
113
110
112
107
107
100
99
99
100
97
94
92
86
84
79
76
71
72
74
72
69
67
68
66
65
65
65
62
58
57
60
62
62
63
62
62
60
63
64
62
60
58
60
61
62
62
60
60
59
58
59
60
63
69
79
78
76
70
62
58
63
76
83
82
76
78
86
96
99
94
88
81
80
78
76
75
74
67
51
39
31
23
15
12
14
12
11
10
11
12
8
1
-2
4
21
44
78
113
139
146
134
111
86
74
83
103
103
61
-2
-48
-62
-61
-68
-76
-72
-63
-55
-52
-47
-42
-40
-36
-34
-35
-39
-42
-45
-47
-46
-43
-46
-50
-50
-51
-51
-53
-52
-54
-57
-60
-62
-60
-63
-65
-65
-63
-63
-64
-61
-62
-63
-64
-61
-58
-60
-59
-57
-52
-49
-48
-49
-42
-37
-35
-32
-29
-25
-25
-26
-27
-24
-20
-19
-21
-26
-26
-28
-32
-35
-36
-36
-38
-41
-43
-44
-47
-52
-54
-56
-56
-53
-54
-58
-60
-62
-66
-68
-68
-63
-62
-68
-74
-73
-73
-72
-73
-72
-71
-73
-75
-77
-73
-77
-79
-78
-76
-74
-77
-77
-76
-73
-74
-80
-79
-80
-78
-75
-70
-73
-78
-76
-73
-68
-72
-73
-77
-79
-81
-77
-69
-63
-65
-74
-76
-77
-73
-68
-66
-67
-70
-68
-66
-68
-72
-75
-72
-68
-69
-74
-74
-73
-72
-73
-71
-70
-69
-63
-59
-57
-57
-60
-66
-70
-62
-45
-35
-38
-40
-34
-24
-17
-12
-12
-16
-17
-18
-18
-26
-31
-36
-44
-52
-60
-64
-74
-72
-69
-72
-73
-73
-70
-71
-72
-74
-73
-68
-54
-25
3
25
45
67
78
77
71
76
100
137
148
115
47
-12
-37
-42
-61
-92
-116
-118
-106
-93
-83
-77
-72
-69
-61
-64
-76
-82
-80
-80
-81
-70
-63
-66
-68
-66
-68
-66
-62
-60
-54
-53
-62
-70
-70
-63
-60
-58
-60
-60
-59
-57
-61
-66
-60
-48
-41
-43
-42
-40
-36
-32
-31
-33
-33
-16
0
2
-7
-4
3
4
2
6
16
22
25
27
31
35
30
28
36
44
44
38
38
40
41
47
53
46
37
38
49
56
59
63
64
65
60
53
47
52
57
61
60
56
52
48
50
48
46
40
40
44
44
47
46
44
45
50
52
49
43
45
52
51
46
41
39
43
57
68
66
61
57
67
78
85
81
76
72
66
58
53
54
55
49
34
20
9
1
-1
-1
1
2
1
3
3
0
-5
-9
-8
1
12
30
57
89
121
139
147
144
143
150
179
217
209
146
62
16
6
-4
-28
-47
-52
-57
-58
-47
-34
-28
-30
-30
-32
-33
-36
-42
-45
-41
-32
-27
-23
-19
-18
-17
-18
-20
-29
-31
-25
-16
-11
-14
-21
-24
-20
-14
-13
-20
-23
-15
-4
-4
-11
-10
0
6
1
3
13
20
28
35
36
37
46
54
60
63
63
57
56
58
58
61
63
67
69
73
74
69
59
54
54
52
50
48
47
42
40
42
40
37
36
34
25
12
13
15
18
15
11
7
5
5
7
7
1
0
0
-4
-11
-11
-6
-4
-4
-3
-4
-8
-14
-18
-16
-12
-12
-14
-14
-18
-28
-30
-25
-19
-14
-15
-30
-40
-40
-37
-33
-28
-23
-23
-25
-25
-25
-27
-30
-31
-29
-25
-22
-25
-28
-28
-29
-27
-26
-28
-31
-34
-36
-37
-35
-33
-31
-28
-21
-13
-11
-21
-32
-32
-21
-3
3
8
12
15
22
30
33
29
18
9
13
20
16
8
-3
-15
-31
-42
-46
-47
-40
-37
-38
-39
-37
-38
-40
-38
-40
-40
-25
6
39
68
89
112
132
135
129
143
187
235
239
174
87
30
16
7
-25
-59
-77
-82
-75
-64
-60
-59
-52
-46
-39
-40
-45
-51
-56
-48
-41
-37
-37
-42
-51
-55
-53
-50
-48
-45
-38
-42
-45
-48
-47
-46
-46
-43
-44
-44
-45
-46
-44
-42
-41
-46
-49
-50
-45
-36
-27
-21
-18
-16
-11
-9
-3
2
5
10
15
18
17
17
15
16
20
23
24
23
20
18
18
21
17
12
8
10
7
-1
-4
-5
-5
-8
-10
-11
-14
-14
-16
-17
-20
-16
-16
-20
-23
-25
-27
-29
-27
-20
-17
-24
-33
-31
-30
-25
-20
-18
-22
-23
-17
-14
-17
-23
-17
-9
-8
-12
-9
0
10
16
16
15
16
17
21
29
40
46
47
51
61
71
74
70
71
72
69
64
60
56
49
42
35
33
32
24
11
5
9
10
10
17
26
23
13
11
18
35
51
79
115
154
184
197
205
194
191
200
239
271
259
191
100
46
33
36
29
20
17
18
23
29
35
41
49
56
59
58
57
57
54
50
49
51
51
50
51
50
54
57
60
58
59
59
57
53
51
54
54
55
57
60
60
58
60
64
68
71
72
72
73
75
77
83
86
90
96
103
107
113
121
120
124
120
120
119
124
132
133
136
135
136
133
130
124
118
118
118
120
120
122
118
118
116
115
114
111
108
107
111
111
110
107
105
105
105
108
108
110
111
113
112
112
112
108
105
102
105
112
117
116
111
110
108
108
107
107
111
112
116
112
108
106
107
110
111
114
115
118
116
117
112
111
114
120
124
123
125
122
124
124
125
127
127
130
124
122
121
130
135
134
131
132
137
138
138
136
137
138
143
151
158
160
154
148
144
152
165
178
183
183
188
189
193
194
198
199
199
199
193
187
184
183
175
163
152
143
138
132
133
135
140
145
144
144
137
132
129
136
149
172
201
231
269
289
299
283
264
241
228
235
242
234
190
139
102
95
94
81
76
84
96
100
108
112
115
116
118
124
127
127
124
121
120
119
115
112
113
116
118
116
112
108
109
107
103
102
102
100
97
98
101
101
99
95
96
94
94
94
93
93
93
98
99
99
99
105
112
115
116
114
116
118
123
124
123
127
130
134
129
131
129
130
129
126
126
123
123
118
116
113
111
109
107
107
102
97
91
92
90
89
83
82
79
74
75
76
76
73
73
75
74
76
75
71
68
72
74
71
68
68
72
71
71
74
74
73
71
68
66
69
70
69
70
71
71
70
75
77
83
88
88
83
76
75
81
94
99
98
93
96
108
115
118
108
106
103
106
104
100
97
88
76
64
61
54
44
40
41
44
42
39
39
43
43
39
37
43
59
87
120
152
179
185
175
150
126
119
128
149
147
107
49
15
7
2
-10
-15
-11
-4
1
10
19
26
26
28
32
34
33
32
32
29
30
28
26
23
22
23
22
25
24
21
16
17
16
11
10
8
9
8
7
5
6
8
8
7
7
10
15
17
20
20
26
29
30
32
35
38
42
43
43
42
44
46
46
46
45
43
37
34
32
28
28
25
24
21
18
14
7
3
1
2
1
-2
-5
-8
-9
-9
-10
-12
-13
-14
-19
-20
-19
-16
-18
-17
-16
-18
-19
-18
-19
-21
-21
-20
-19
-21
-21
-16
-16
-20
-24
-24
-28
-31
-29
-24
-25
-25
-19
-15
-15
-20
-21
-16
-16
-17
-16
-12
-9
-10
-11
-13
-16
-18
-18
-19
-20
-17
-13
-10
-10
-15
-15
-10
-9
-10
-10
-11
-15
-17
-14
-11
-8
-7
-5
-6
-5
1
6
7
4
3
1
0
6
12
18
19
23
26
32
40
44
41
38
35
30
29
32
28
15
3
-4
-11
-17
-27
-31
-31
-28
-26
-25
-22
-23
-22
-24
-27
-25
-16
1
22
51
82
105
113
108
91
79
87
113
140
127
70
14
-9
-14
-33
-66
-84
-84
-79
-79
-75
-63
-54
-49
-49
-47
-44
-47
-49
-48
-46
-42
-40
-40
-43
-49
-51
-50
-49
-46
-44
-45
-42
-41
-44
-45
-50
-53
-56
-54
-54
-54
-49
-46
-44
-46
-45
-48
-46
-42
-40
-36
-29
-24
-19
-18
-16
-16
-13
-10
-5
0
4
6
8
9
11
10
8
10
16
19
17
15
16
13
6
3
4
5
9
6
-1
-2
3
5
-1
-3
-1
3
5
4
-5
-13
-14
-10
-9
-7
-4
-9
-15
-18
-21
-13
-8
-8
-14
-18
-20
-16
-12
-10
-9
-9
-11
-15
-7
6
14
16
19
16
7
8
17
26
33
40
44
42
41
51
63
63
51
44
48
51
52
50
48
41
30
24
15
3
-6
-3
1
5
13
17
15
7
-1
-6
-8
-2
14
41
68
97
125
151
165
167
175
191
232
261
252
188
107
57
33
21
6
-13
-29
-36
-33
-30
-23
-15
-11
-11
-10
-7
-6
-8
-10
-9
-12
-16
-13
-8
-7
-13
-12
-7
-4
-2
-3
-8
-16
-16
-13
-17
-17
-15
-11
-10
-11
-11
-12
-13
-15
-12
-10
-9
-8
-4
1
7
12
15
15
14
16
22
32
40
48
45
42
41
44
50
59
59
47
40
44
54
60
64
61
55
46
35
35
44
48
34
25
36
46
45
32
33
49
58
39
18
8
20
55
83
81
64
65
84
98
91
75
72
84
101
101
96
99
100
95
96
105
113
117
116
116
118
121
120
112
109
112
119
121
120
114
113
118
116
118
115
112
112
113
113
111
118
121
125
118
101
93
99
109
96
83
73
74
79
84
84
79
76
73
71
68
67
71
72
76
76
73
65
62
64
73
84
93
94
89
90
94
103
105
106
105
102
94
85
84
86
77
57
42
34
29
28
26
22
16
16
22
29
27
25
25
26
33
56
89
124
154
180
192
198
192
192
208
242
271
242
165
78
30
22
19
7
-8
-12
-13
-11
-11
-4
6
16
22
24
25
28
31
44
51
38
13
11
26
35
33
31
32
31
31
30
30
28
26
24
25
24
24
26
28
26
23
23
23
22
23
26
30
31
34
37
42
48
53
60
64
68
66
63
70
83
83
75
78
82
79
75
76
76
73
70
72
78
73
68
67
70
68
64
62
58
59
56
55
52
53
54
51
50
47
44
42
41
39
39
40
38
39
39
37
35
38
40
39
41
43
43
42
43
43
43
43
45
46
46
46
48
54
57
63
72
79
80
72
64
59
68
82
91
88
84
91
102
112
111
105
102
96
90
87
90
91
84
69
55
46
41
36
30
30
30
32
35
38
42
37
31
28
39
58
86
115
153
192
215
220
202
189
177
186
204
206
170
97
37
8
6
-1
-15
-12
4
18
27
30
32
36
39
40
41
41
38
38
39
36
34
31
29
32
35
34
31
30
29
30
29
28
32
30
27
26
24
20
21
32
37
37
35
35
32
31
37
44
47
45
48
53
57
58
61
67
67
71
75
85
84
85
91
94
93
90
91
91
92
91
92
89
86
84
84
83
78
81
83
83
80
76
76
77
79
79
78
76
70
67
68
72
72
73
74
77
74
74
73
73
74
73
74
73
71
67
67
66
63
64
65
63
59
59
63
57
55
52
54
54
51
51
50
52
50
48
48
51
51
50
49
46
47
43
39
38
41
44
45
43
41
44
43
40
36
36
36
33
32
31
30
28
29
29
29
30
30
27
26
29
33
35
36
35
33
30
28
31
40
47
44
41
47
61
65
63
62
57
51
46
42
38
35
27
16
4
-5
-11
-18
-25
-28
-22
-20
-20
-20
-22
-24
-30
-31
-20
2
30
61
93
124
140
130
114
101
103
119
136
115
46
-17
-47
-50
-57
-81
-93
-91
-80
-74
-68
-58
-53
-52
-50
-48
-47
-48
-51
-52
-49
-46
-47
-52
-52
-49
-49
-49
-52
-56
-60
-62
-63
-61
-61
-64
-63
-62
-61
-64
-64
-65
-65
-65
-67
-66
-67
-62
-65
-66
-63
-55
-52
-53
-50
-45
-41
-38
-34
-33
-31
-29
-28
-26
-26
-22
-21
-22
-28
-29
-28
-29
-28
-28
-31
-35
-37
-39
-44
-44
-47
-46
-47
-50
-54
-57
-56
-57
-58
-62
-66
-68
-69
-69
-72
-73
-74
-72
-74
-74
-76
-77
-79
-78
-78
-80
-79
-81
-84
-85
-83
-83
-83
-83
-87
-82
-72
-66
-67
-68
-65
-67
-74
-80
-75
-57
-43
-44
-50
-54
-50
-39
-33
-31
-36
-37
-39
-42
-43
-46
-46
-56
-68
-76
-79
-85
-95
-98
-99
-93
-92
-91
-89
-90
-90
-97
-99
-99
-87
-67
-40
-7
28
58
72
63
44
33
46
72
81
46
-29
-97
-123
-116
-116
-133
-148
-145
-137
-128
-122
-119
-114
-106
-102
-101
-101
-104
-102
-102
-102
-100
-100
-98
-102
-102
-105
-106
-106
-105
-103
-105
-102
-103
-103
-105
-101
-100
-101
-102
-104
-100
-103
-99
-96
-93
-92
-90
-89
-90
-88
-84
-80
-79
-76
-71
-70
-65
-61
-53
-51
-50
-49
-46
-44
-47
-46
-45
-46
-48
-49
-51
-53
-56
-60
-60
-58
-60
-63
-66
-69
-72
-73
-76
-77
-75
-75
-76
-80
-83
-85
-90
-90
-88
-83
-78
-79
-82
-80
-82
-82
-83
-81
-80
-79
-76
-74
-70
-73
-76
-79
-78
-77
-80
-78
-78
-79
-80
-74
-75
-72
-69
-70
-71
-74
-72
-69
-64
-65
-67
-67
-66
-65
-65
-63
-68
-70
-70
-68
-65
-64
-64
-65
-64
-64
-64
-64
-61
-60
-64
-61
-59
-58
-56
-55
-55
-57
-57
-53
-50
-47
-42
-34
-28
-29
-36
-40
-37
-26
-14
-9
-11
-8
2
13
17
12
8
4
4
3
0
-3
-8
-14
-28
-38
-49
-58
-63
-63
-57
-54
-56
-63
-63
-59
-59
-58
-60
-58
-48
-24
5
35
67
92
100
99
84
67
64
78
102
97
41
-40
-92
-102
-103
-118
-126
-115
-101
-97
-91
-82
-76
-73
-70
-66
-66
-67
-72
-70
-72
-72
-70
-69
-72
-74
-71
-68
-70
-73
-72
-72
-72
-70
-71
-69
-70
-65
-66
-68
-69
-69
-67
-66
-65
-67
-68
-69
-67
-60
-53
-48
-49
-44
-38
-33
-34
-33
-27
-20
-13
-11
-10
-7
-5
-4
-2
-1
0
2
3
3
1
-2
-5
-6
-5
-5
-4
-7
-8
-5
-3
-6
-11
-10
-8
-7
-11
-9
-6
-7
-9
-10
-5
-3
-7
-7
-2
-6
-12
-12
-8
-8
-9
-9
-12
-15
-11
-5
-1
-1
4
2
1
3
6
10
16
25
35
40
35
30
27
28
34
46
54
52
54
64
76
76
73
73
74
71
67
68
70
68
60
48
36
28
20
14
15
19
22
20
19
23
29
30
27
30
31
44
66
95
131
168
200
203
189
167
151
147
158
169
147
99
46
15
8
-2
-22
-28
-9
10
17
19
23
30
37
45
48
48
44
42
41
45
47
46
43
40
39
41
44
43
41
40
39
41
43
44
41
41
42
40
36
35
36
41
42
42
40
43
49
53
55
56
60
67
75
78
77
81
86
91
92
90
97
106
109
104
103
107
107
109
110
111
106
100
101
102
110
112
112
110
108
106
104
102
100
105
106
108
106
109
115
115
115
112
115
114
118
121
123
124
122
123
121
125
125
126
125
126
124
120
122
121
128
129
130
126
122
119
120
123
125
127
125
126
127
129
131
130
130
131
132
132
134
136
137
139
137
139
139
142
141
140
143
140
143
142
141
141
143
148
146
150
147
147
146
146
144
141
143
141
144
145
151
155
158
161
157
156
153
163
171
179
179
183
188
196
200
196
196
191
191
184
181
179
174
164
149
142
135
132
128
127
130
131
133
133
134
134
128
123
128
147
170
203
239
267
275
257
225
187
164
159
173
180
158
117
81
66
64
61
57
64
76
84
90
88
98
105
112
112
115
115
112
112
112
118
116
116
111
109
112
113
115
111
110
108
111
111
108
105
103
104
104
104
101
102
104
107
102
100
104
107
111
113
115
115
116
120
123
129
130
133
135
138
140
141
147
148
149
147
145
148
148
149
145
144
141
136
133
134
134
132
133
128
126
124
123
123
124
124
118
119
115
116
114
112
113
109
107
103
104
102
104
102
100
98
96
97
95
97
94
93
93
92
91
92
95
97
102
107
112
112
107
102
102
111
119
123
121
118
119
129
138
140
136
130
130
131
132
130
127
124
114
103
91
80
72
67
68
65
68
71
70
67
67
67
62
62
67
80
100
129
160
188
203
196
182
153
132
123
134
140
108
58
15
4
9
5
-2
1
12
20
25
32
39
46
51
53
58
59
57
58
60
60
58
60
60
58
58
57
58
60
63
59
57
55
55
58
58
56
54
56
59
60
60
62
66
66
66
65
66
70
75
81
80
84
88
91
95
96
100
99
102
101
104
105
110
113
109
109
107
110
106
103
97
97
96
92
94
93
94
92
93
92
85
82
82
87
85
82
75
75
76
80
82
81
81
79
77
76
74
72
73
75
79
81
78
74
72
72
72
75
74
71
71
70
70
68
68
68
69
69
66
67
68
69
70
72
73
71
71
70
68
66
67
72
70
70
71
71
70
72
75
73
71
68
71
73
75
75
74
75
78
79
77
78
76
76
77
74
76
80
86
86
90
94
101
101
98
94
92
97
108
119
123
123
121
126
135
138
139
136
134
133
132
127
124
128
120
107
92
79
71
68
68
66
71
76
82
84
80
74
72
78
91
116
142
176
205
227
235
220
196
164
144
143
161
167
139
100
67
58
48
24
9
18
37
47
53
62
67
66
66
70
73
75
77
77
75
76
74
73
72
74
70
66
64
62
64
63
63
63
63
66
67
63
56
55
56
59
62
63
64
63
66
66
65
68
68
68
71
77
81
83
83
83
88
94
97
97
103
104
107
108
105
105
102
107
106
104
99
101
103
98
97
97
99
95
94
90
91
91
90
90
85
80
77
80
87
88
86
82
79
76
80
82
80
76
76
74
72
71
67
66
66
69
73
76
76
77
80
80
83
83
86
91
90
88
84
88
98
106
108
105
108
114
122
124
121
118
114
112
109
107
104
102
91
79
70
62
52
45
48
48
46
43
40
44
44
44
40
40
44
59
84
118
154
179
186
164
132
95
77
81
96
89
50
0
-31
-37
-34
-43
-43
-34
-25
-18
-8
2
9
12
16
21
21
18
16
15
15
16
16
15
15
14
13
9
9
12
11
7
3
3
3
3
0
-4
-2
-4
-4
-5
-2
-2
0
2
3
4
7
10
12
17
19
21
20
22
28
32
35
33
34
36
39
39
37
35
33
32
28
26
24
22
19
16
16
13
12
12
7
4
0
-2
-5
-11
-14
-15
-16
-20
-20
-22
-25
-27
-26
-29
-30
-28
-26
-26
-24
-27
-30
-33
-32
-29
-29
-33
-37
-36
-34
-36
-39
-40
-41
-44
-47
-42
-42
-42
-43
-46
-48
-51
-52
-52
-52
-54
-56
-55
-59
-57
-57
-56
-60
-64
-64
-66
-68
-68
-63
-64
-65
-66
-65
-63
-63
-62
-63
-59
-61
-62
-61
-61
-60
-61
-58
-59
-60
-59
-59
-57
-54
-50
-47
-43
-45
-48
-52
-54
-51
-39
-27
-26
-31
-27
-16
-9
-7
-9
-13
-14
-14
-15
-16
-19
-28
-39
-50
-61
-69
-75
-75
-76
-74
-70
-67
-64
-65
-64
-72
-77
-71
-55
-29
-2
29
62
80
79
67
49
33
28
41
51
27
-31
-87
-107
-98
-102
-124
-140
-134
-126
-119
-111
-102
-91
-86
-84
-82
-79
-79
-81
-79
-79
-77
-79
-77
-78
-79
-80
-81
-81
-84
-87
-89
-89
-89
-87
-83
-83
-83
-87
-89
-89
-88
-87
-89
-87
-85
-79
-74
-72
-71
-69
-70
-69
-61
-52
-46
-45
-40
-38
-34
-31
-29
-26
-20
-13
-11
-9
-9
-7
-8
-9
-7
-7
-8
-10
-9
-8
-10
-11
-12
-9
-9
-9
-10
-13
-13
-12
-14
-16
-9
-7
-13
-18
-18
-16
-19
-24
-26
-28
-30
-29
-22
-20
-24
-28
-24
-24
-25
-25
-20
-20
-21
-15
-11
-11
-10
-4
3
11
17
22
20
14
11
15
26
36
40
38
41
49
60
67
67
64
61
61
55
49
52
54
50
38
29
22
15
8
7
11
14
14
16
21
25
26
24
19
21
38
64
95
129
161
186
194
184
164
148
145
157
170
153
102
42
6
-1
-6
-21
-26
-16
-6
2
11
21
29
27
30
37
38
35
31
32
30
32
33
35
33
31
29
29
34
33
31
33
33
30
31
35
36
34
33
34
33
30
30
32
35
33
35
42
46
45
49
57
62
64
70
75
78
82
84
89
91
93
93
95
100
100
101
102
102
100
97
95
92
92
89
88
90
91
87
81
81
77
76
78
82
81
78
80
80
83
83
83
77
74
79
80
82
81
82
82
84
85
83
83
80
78
75
72
70
72
72
69
70
70
70
71
71
69
67
64
62
66
66
66
63
66
68
68
67
65
65
65
66
65
66
67
67
64
65
66
63
63
63
62
61
62
64
62
63
62
62
61
64
64
60
58
58
62
63
66
70
76
84
83
82
75
71
72
83
93
94
91
89
94
101
111
112
105
100
97
103
100
94
82
72
60
52
47
40
36
33
30
30
33
39
40
35
28
24
27
39
60
92
130
161
173
158
126
85
57
48
57
70
52
5
-37
-49
-39
-42
-55
-52
-40
-32
-25
-20
-13
-4
2
5
5
6
7
7
7
6
3
0
0
-3
-5
-7
-7
-7
-10
-14
-20
-18
-14
-18
-20
-20
-17
-19
-18
-19
-19
-20
-22
-21
-20
-21
-22
-20
-16
-14
-8
-7
-6
-6
0
9
12
13
15
19
21
20
17
13
12
11
14
15
11
8
7
1
-3
1
8
8
2
-1
1
6
6
3
-1
0
1
0
-4
-5
-1
-3
-8
-10
-11
-10
-17
-20
-19
-19
-24
-26
-28
-27
-28
-28
-28
-32
-32
-30
-30
-25
-23
-17
-12
-4
1
3
-2
-6
-7
-8
-1
9
13
11
10
15
23
28
24
22
27
31
29
23
17
15
14
3
-11
-17
-23
-33
-39
-39
-37
-36
-37
-39
-40
-39
-42
-45
-41
-32
-15
16
54
81
95
88
62
31
9
10
22
26
0
-48
-81
-91
-83
-90
-104
-103
-94
-82
-75
-65
-57
-54
-50
-42
-35
-39
-45
-47
-42
-41
-42
-43
-41
-39
-39
-36
-35
-39
-42
-42
-40
-41
-44
-46
-39
-36
-36
-41
-43
-43
-46
-46
-43
-35
-27
-24
-23
-23
-22
-19
-13
-6
-1
2
4
7
13
16
20
21
23
29
33
34
29
30
35
35
29
24
27
27
26
25
26
28
25
22
12
13
18
20
17
13
13
14
16
19
20
18
16
17
17
13
11
12
14
12
14
17
20
20
22
25
27
24
21
18
20
25
25
21
17
16
14
14
19
22
22
23
25
24
22
22
26
28
29
26
23
20
20
29
36
37
38
35
33
34
37
33
32
39
47
43
36
38
42
48
44
43
48
51
54
52
53
52
56
60
64
64
62
59
60
70
82
88
85
85
91
102
107
103
101
98
98
90
87
88
86
74
59
52
47
41
34
34
39
39
39
40
40
39
38
37
38
48
68
100
132
166
189
188
164
127
98
75
71
82
82
54
12
-14
-27
-38
-53
-56
-39
-22
-15
-9
2
9
11
14
20
20
18
19
19
16
9
8
14
16
13
7
9
10
8
7
2
-3
-3
1
-1
-2
-2
-7
-9
-6
-3
-1
0
-1
-1
1
4
2
2
6
10
12
15
20
22
23
25
29
34
34
35
40
47
44
46
48
50
49
47
47
42
39
41
42
39
37
36
32
31
30
29
28
24
17
14
14
10
8
11
12
10
9
9
8
6
4
4
4
3
2
0
2
4
6
6
5
4
4
4
5
8
9
6
4
3
7
7
9
11
16
24
31
32
28
19
16
22
35
44
40
37
39
48
52
48
46
45
46
41
38
36
34
27
12
2
-9
-20
-26
-26
-24
-24
-22
-27
-31
-30
-31
-34
-39
-31
-16
5
34
66
94
110
104
87
59
34
25
31
39
24
-17
-64
-86
-81
-78
-87
-86
-72
-61
-59
-54
-48
-37
-27
-22
-23
-25
-23
-23
-23
-22
-20
-21
-24
-25
-23
-21
-23
-25
-21
-17
-17
-18
-17
-20
-23
-24
-25
-28
-24
-20
-19
-20
-19
-17
-15
-11
-9
-5
-3
0
4
8
16
19
21
24
27
29
33
38
38
39
42
44
43
41
38
36
36
36
36
33
32
30
30
28
28
28
30
27
22
23
25
25
24
23
23
22
22
20
21
22
21
22
24
24
24
25
26
25
23
21
21
22
24
26
25
22
18
16
17
22
20
21
17
18
20
22
21
21
25
28
32
35
35
33
36
39
37
40
35
32
31
35
36
31
28
28
29
29
29
35
38
38
35
32
32
31
36
41
42
41
40
43
42
40
42
48
56
62
65
65
64
65
65
75
81
83
82
84
90
101
108
103
96
91
92
92
86
84
83
74
62
52
48
45
45
42
44
43
43
45
47
48
45
44
47
57
74
102
132
169
193
199
191
166
144
130
142
158
148
106
62
37
29
23
6
-7
2
13
22
30
34
41
48
54
58
60
62
60
60
59
55
53
55
60
60
54
55
56
59
58
54
52
54
60
60
59
56
55
53
54
57
59
58
56
55
57
62
67
70
74
71
75
79
86
88
96
100
100
103
107
111
111
116
116
121
122
123
125
120
118
117
123
123
122
118
116
115
113
113
114
115
112
110
112
114
112
108
111
113
112
109
110
107
104
107
108
108
106
108
108
107
106
101
100
100
101
101
98
98
96
101
101
102
98
96
95
96
106
111
116
118
118
115
113
114
115
126
132
137
132
133
139
144
149
147
147
144
145
139
130
125
127
122
107
97
88
83
78
75
77
79
80
76
73
71
69
67
68
78
94
116
146
177
198
199
181
151
120
103
106
118
111
76
32
1
-3
-4
-12
-16
-7
5
12
14
18
23
33
36
39
39
37
33
32
35
33
31
35
39
36
33
32
27
23
19
24
25
17
12
14
19
16
12
15
18
17
13
12
12
14
16
19
21
23
23
22
22
28
36
40
42
42
42
44
48
50
51
50
48
49
49
45
39
35
36
33
31
25
20
20
20
19
16
16
15
12
8
4
0
-1
3
3
0
-1
-2
-5
-10
-7
-3
-1
-3
-5
-4
-3
0
1
2
-1
-1
0
1
-1
0
1
-2
-3
-4
-5
-6
-2
3
-2
-5
-4
-1
-3
-5
-2
-2
-3
-2
-2
-2
-5
-3
0
2
1
1
4
4
3
4
4
1
0
5
9
8
8
5
8
8
8
8
7
9
11
14
18
26
32
32
30
24
23
28
39
45
48
47
50
59
64
64
60
55
52
54
55
54
54
44
31
17
12
7
1
0
2
3
4
5
8
8
6
2
4
9
24
50
82
114
135
144
142
125
103
86
87
105
108
68
7
-28
-31
-28
-43
-57
-52
-44
-38
-34
-27
-20
-18
-14
-10
-11
-14
-15
-14
-16
-14
-13
-15
-16
-17
-18
-19
-18
-22
-22
-21
-22
-24
-26
-25
-26
-29
-29
-32
-30
-31
-31
-32
-30
-26
-24
-23
-20
-19
-21
-19
-14
-8
-4
0
3
7
10
10
12
17
21
24
26
26
24
26
27
26
24
22
18
13
14
17
19
19
20
22
17
8
7
13
14
12
9
11
10
12
10
5
1
4
8
5
5
2
1
0
-1
0
2
2
-3
-1
-1
-1
0
4
8
9
13
17
21
28
33
35
27
19
22
35
48
54
51
53
59
72
82
85
82
77
76
69
62
57
59
61
56
47
40
38
30
23
22
25
28
28
33
38
35
31
29
36
56
86
120
156
183
195
189
167
145
129
129
137
139
106
57
22
4
-3
-17
-30
-16
9
24
23
25
31
40
46
50
50
52
51
47
44
41
42
46
52
52
49
48
49
49
47
46
45
42
37
37
39
40
39
39
40
38
37
44
51
50
49
51
52
55
56
58
62
66
72
77
83
87
89
95
99
101
102
105
107
108
107
105
104
104
104
100
98
94
93
94
96
96
91
92
92
91
88
90
89
85
85
84
86
81
83
80
82
79
80
82
82
82
82
83
83
81
82
83
81
80
82
82
81
78
78
77
78
77
79
81
78
75
72
69
68
71
73
73
75
73
71
71
70
72
70
70
67
70
71
70
71
69
73
71
68
66
66
68
69
72
69
66
62
65
67
70
71
68
67
67
67
67
68
74
78
80
79
77
70
74
79
85
89
94
95
95
100
108
115
113
112
112
108
105
103
106
106
101
91
77
66
61
58
51
49
52
55
56
57
56
55
55
48
51
66
86
107
136
172
185
184
167
153
146
158
191
198
169
116
87
84
84
61
24
7
-5
-10
-2
14
27
37
44
51
54
54
55
56
52
48
52
57
57
52
46
47
50
54
53
51
48
47
49
53
54
53
53
51
53
55
52
48
46
48
46
47
52
55
60
62
63
65
67
63
61
65
71
79
88
97
98
94
84
82
94
99
99
97
100
99
92
87
89
97
94
90
82
75
79
91
94
81
75
77
84
84
84
77
70
73
80
87
86
86
86
82
72
64
71
83
91
88
79
68
71
81
80
67
66
79
94
105
101
94
95
103
111
110
106
111
120
124
123
122
118
129
145
148
136
126
127
124
120
112
111
110
102
88
77
70
56
49
51
55
54
52
54
54
56
52
42
36
46
71
101
131
152
170
174
179
174
174
186
211
225
196
141
82
57
56
44
14
-12
-18
-12
-3
3
7
10
13
17
19
12
8
12
14
10
10
13
12
7
6
6
10
12
11
7
4
5
5
5
5
7
9
7
7
7
9
9
8
14
21
24
20
24
33
38
39
35
31
37
48
53
56
60
61
61
65
69
68
67
66
63
55
59
64
62
54
50
57
64
67
59
46
32
28
36
45
47
41
38
38
37
37
42
45
40
34
35
38
38
36
31
30
35
36
39
42
40
35
38
43
43
39
34
37
42
47
45
42
48
48
48
44
42
43
44
44
42
47
49
53
51
48
45
42
42
40
42
44
44
43
42
42
41
39
36
32
30
35
38
38
34
28
26
22
20
22
24
22
20
28
43
51
46
33
18
20
35
48
54
51
46
47
56
66
67
65
62
58
51
44
42
40
30
20
12
5
-5
-12
-11
-9
-8
-11
-11
-10
-10
-10
-12
-16
-12
4
32
55
84
110
130
134
133
136
156
195
230
222
147
63
16
4
-5
-34
-58
-72
-79
-74
-67
-61
-64
-61
-52
-46
-45
-48
-49
-53
-55
-56
-58
-61
-63
-64
-65
-68
-67
-61
-58
-62
-62
-58
-58
-63
-63
-62
-67
-72
-67
-61
-62
-62
-63
-57
-52
-50
-53
-56
-55
-52
-45
-40
-41
-38
-32
-27
-26
-24
-19
-15
-12
-8
-7
-5
-1
3
-1
-3
-5
-8
-8
-3
0
0
-5
-10
-12
-13
-23
-28
-25
-24
-22
-21
-21
-26
-31
-35
-36
-36
-39
-39
-40
-37
-40
-45
-47
-50
-54
-52
-46
-46
-51
-56
-55
-53
-56
-60
-61
-57
-51
-45
-42
-49
-60
-60
-49
-39
-28
-25
-26
-35
-42
-45
-41
-24
-13
-13
-14
-7
2
8
9
6
1
0
0
-4
-7
-5
-4
-12
-26
-37
-47
-52
-52
-46
-42
-47
-49
-45
-39
-39
-45
-52
-47
-32
-13
15
47
79
108
125
130
128
128
140
171
199
181
110
23
-35
-45
-42
-53
-67
-68
-65
-61
-57
-52
-47
-42
-40
-36
-31
-32
-43
-54
-48
-42
-39
-39
-35
-40
-47
-43
-36
-33
-36
-35
-37
-38
-36
-34
-32
-37
-41
-40
-36
-34
-32
-29
-28
-33
-40
-37
-29
-21
-18
-16
-13
-9
-6
-4
-2
2
7
10
12
15
18
19
21
24
25
23
20
19
19
18
17
16
11
9
7
4
3
0
0
1
-1
-6
-9
-9
-11
-13
-16
-20
-23
-23
-23
-22
-22
-18
-18
-21
-28
-28
-26
-22
-19
-20
-22
-22
-19
-21
-23
-25
-26
-22
-22
-23
-26
-25
-24
-25
-26
-26
-28
-31
-29
-29
-29
-26
-26
-24
-23
-20
-23
-20
-17
-18
-19
-20
-22
-18
-13
-12
-15
-17
-18
-20
-20
-16
-10
-7
-6
-8
-7
-8
-8
-3
3
4
6
15
22
16
12
17
22
29
42
51
51
46
49
63
76
78
71
66
68
59
56
61
65
52
37
32
25
22
17
15
19
24
25
17
14
14
20
22
22
34
67
104
134
156
178
191
187
188
203
243
277
273
212
128
72
47
40
23
-1
-16
-15
-11
-7
0
12
17
14
6
9
17
20
18
17
13
8
8
10
13
9
8
9
11
12
10
4
-2
-4
2
4
7
11
14
16
16
14
12
8
6
8
14
25
24
17
10
12
16
20
28
34
35
31
33
41
47
48
49
53
55
54
56
60
56
50
50
52
49
46
45
40
35
30
30
29
27
28
27
25
24
24
21
18
19
20
19
19
23
24
18
9
5
11
18
20
12
9
11
12
14
19
22
15
10
14
21
24
20
16
19
27
31
32
29
30
31
37
42
45
49
48
47
48
55
61
60
60
57
62
70
78
78
79
78
76
69
63
60
61
60
49
38
32
25
17
16
21
25
22
22
22
21
22
23
20
24
44
75
107
135
158
170
176
167
166
182
212
230
198
123
42
4
0
-7
-23
-26
-16
-10
-6
0
4
7
8
12
11
8
3
5
11
15
10
2
1
1
1
1
3
5
4
3
2
4
-2
-8
-7
-3
-4
-6
-8
-9
-7
-2
0
0
3
9
9
8
10
14
16
20
22
25
29
35
40
46
52
51
54
54
56
56
55
56
55
52
50
50
51
51
51
50
49
46
44
39
34
30
25
24
20
22
22
24
28
25
23
22
22
21
21
20
18
14
13
14
19
25
30
28
25
26
27
24
26
24
24
23
25
27
26
23
23
22
23
23
22
21
24
26
27
28
30
32
33
30
31
33
34
38
41
44
44
47
48
48
48
47
53
54
54
51
54
56
54
56
59
63
61
63
63
68
75
80
81
77
76
78
89
99
105
107
106
114
119
122
120
123
121
118
112
108
109
104
97
83
74
69
66
65
66
68
67
69
73
76
74
72
72
79
94
118
151
185
212
220
211
192
169
157
155
163
162
132
84
44
31
27
14
6
16
31
38
42
46
55
63
66
64
64
64
63
63
60
59
56
56
56
52
52
53
56
53
51
52
54
53
50
48
44
42
42
44
46
46
45
46
44
41
46
50
49
44
47
52
59
62
63
69
72
74
74
74
77
82
86
86
88
88
88
88
86
85
86
88
85
83
83
82
82
81
80
76
74
74
72
70
66
67
65
65
63
63
65
67
70
67
69
69
69
68
67
66
68
71
74
71
66
71
74
77
79
80
83
78
80
81
83
81
80
80
83
88
88
90
94
100
105
105
103
96
93
96
108
118
120
114
116
125
134
138
132
125
122
125
127
124
123
121
113
99
88
82
79
77
74
73
71
74
75
76
75
73
72
68
73
83
109
140
176
203
205
195
162
129
104
97
108
119
107
67
27
11
15
12
4
8
23
31
31
36
45
58
64
65
67
65
66
66
68
69
69
68
68
68
66
67
69
70
66
65
66
67
67
65
62
58
54
52
55
57
54
56
58
64
65
64
69
75
79
78
84
89
92
92
94
97
100
106
103
104
103
105
109
108
109
103
104
98
95
92
91
88
84
89
91
88
82
79
76
75
76
76
76
73
70
66
66
66
66
65
67
67
64
64
61
59
58
60
61
61
61
60
60
59
60
59
57
56
57
60
57
54
52
54
55
56
56
56
57
58
60
60
57
58
56
57
55
53
52
58
63
62
58
54
54
54
56
56
56
58
55
56
53
52
54
56
58
57
56
53
51
48
51
56
57
58
61
63
65
67
66
65
59
57
62
72
79
78
77
78
86
91
92
90
88
88
87
84
78
77
74
62
46
38
32
22
17
17
20
19
19
20
19
14
9
8
7
14
36
64
99
125
136
131
112
87
64
56
60
72
61
25
-12
-30
-23
-25
-44
-59
-57
-49
-43
-32
-23
-16
-12
-10
-10
-7
-4
-8
-8
-8
-6
-3
-4
-6
-9
-11
-10
-11
-13
-16
-13
-9
-9
-10
-12
-13
-16
-18
-20
-19
-17
-20
-22
-21
-20
-20
-21
-20
-18
-15
-9
-7
-5
0
5
6
9
15
18
22
25
27
27
33
36
36
34
32
34
31
30
29
28
25
26
26
26
26
25
25
24
24
24
28
31
30
30
25
20
17
18
21
18
16
13
11
10
10
9
9
8
7
7
9
8
9
9
11
12
12
14
16
22
28
32
31
26
23
27
38
48
51
48
47
52
59
63
62
59
57
54
52
51
51
50
39
26
15
10
6
0
-2
0
3
2
3
4
2
-1
-5
-5
-3
8
33
65
97
126
133
127
107
88
81
88
100
87
45
-9
-46
-46
-37
-44
-59
-58
-45
-39
-36
-28
-18
-12
-9
-6
-6
-8
-10
-10
-8
-8
-10
-11
-12
-11
-8
-5
-4
-3
-3
-5
-8
-12
-13
-13
-13
-13
-13
-10
-7
-8
-8
-9
-7
-8
-7
-4
5
9
11
15
21
27
28
34
40
42
42
45
50
50
54
57
59
58
62
62
60
55
53
52
50
46
48
53
54
51
48
47
46
41
43
46
46
48
48
47
45
48
50
52
50
49
48
46
45
46
49
52
52
48
45
48
52
56
55
54
51
51
50
51
55
53
51
46
46
53
58
60
58
61
56
54
50
54
57
59
60
55
52
49
54
59
62
58
52
55
56
60
61
61
60
61
62
60
57
58
62
63
66
66
63
63
65
71
76
84
87
86
81
78
79
90
103
108
109
105
106
118
129
129
126
125
123
121
116
113
110
101
90
82
76
68
63
64
69
75
72
73
73
74
71
69
74
88
110
138
177
205
220
208
185
158
134
133
141
146
120
77
41
20
17
7
-2
3
15
26
30
32
38
44
48
50
49
48
46
44
44
46
45
44
45
44
44
40
38
38
38
36
35
36
35
35
33
34
34
33
35
33
31
32
33
34
34
36
36
35
36
38
43
46
53
54
57
58
59
59
62
70
72
74
74
77
76
78
76
76
74
69
67
65
66
64
61
59
54
56
56
54
49
48
46
42
41
42
40
36
36
36
35
34
34
36
36
33
28
27
25
24
25
29
29
27
28
29
29
28
27
27
26
28
30
38
43
46
45
41
38
38
43
50
55
53
48
48
56
69
69
66
60
59
60
61
61
54
48
38
23
13
7
1
-2
-4
-6
-7
-4
-1
-3
-8
-10
-12
-12
-6
9
32
64
96
120
127
116
91
61
44
44
56
58
30
-18
-55
-63
-56
-63
-75
-76
-64
-54
-45
-36
-30
-26
-23
-18
-16
-15
-16
-16
-16
-16
-17
-18
-21
-21
-18
-17
-20
-22
-24
-24
-26
-26
-25
-23
-26
-29
-29
-31
-28
-27
-26
-28
-26
-26
-26
-23
-19
-16
-16
-15
-12
-9
-6
-3
3
8
11
11
14
16
18
19
23
26
25
24
19
15
13
14
14
12
8
5
4
3
0
-5
-6
-6
-7
-8
-10
-14
-13
-12
-11
-14
-15
-17
-20
-22
-20
-20
-20
-21
-22
-21
-21
-21
-24
-28
-30
-31
-32
-31
-32
-35
-37
-37
-32
-30
-31
-32
-38
-39
-42
-40
-38
-38
-36
-33
-32
-36
-36
-37
-40
-41
-39
-36
-37
-36
-37
-38
-37
-35
-33
-33
-35
-36
-36
-36
-37
-34
-33
-34
-36
-36
-37
-34
-28
-27
-30
-32
-28
-24
-22
-20
-16
-13
-13
-12
-14
-12
-5
5
9
11
9
14
25
32
32
29
30
27
27
24
20
17
7
-5
-11
-16
-27
-37
-39
-36
-31
-28
-24
-25
-27
-30
-29
-23
-14
-1
26
62
98
126
136
131
108
83
73
79
94
88
52
0
-34
-41
-45
-63
-74
-68
-50
-40
-36
-30
-20
-15
-14
-9
-7
-8
-8
-8
-7
-6
-4
-2
-1
2
1
-2
-4
-6
-7
-6
-4
-2
-4
-5
-5
-2
-3
-4
-2
1
2
0
2
5
9
11
11
9
14
20
24
25
24
28
36
46
47
48
54
60
62
61
62
62
62
64
66
64
62
60
57
62
62
58
56
59
60
61
59
57
53
52
51
51
51
52
50
48
49
54
51
46
44
45
50
56
58
51
46
40
40
41
42
44
46
45
45
47
47
49
50
46
45
45
49
51
54
55
58
63
61
63
65
72
78
81
78
73
72
77
91
94
93
91
99
108
114
113
110
114
111
106
101
100
99
94
85
74
68
60
55
54
54
54
56
58
59
55
52
51
50
53
65
91
122
152
184
201
196
170
137
111
98
104
110
96
60
21
0
-5
-12
-18
-10
9
25
28
30
41
50
53
56
59
56
54
56
53
55
56
57
57
55
54
54
56
56
55
51
51
48
48
48
45
44
48
47
43
43
45
48
50
49
49
50
53
56
57
62
65
65
66
70
73
76
78
82
83
83
85
88
89
87
87
86
85
83
82
82
79
78
75
73
71
70
72
68
66
66
69
70
68
65
62
62
58
60
62
64
62
62
62
58
58
59
60
58
57
57
54
53
52
53
54
54
50
50
48
46
44
46
47
46
45
43
44
44
46
49
54
53
48
45
44
44
44
45
45
42
42
44
44
42
41
42
42
43
43
42
42
40
40
39
39
40
44
47
47
47
47
48
46
50
52
56
60
64
64
62
59
54
61
70
80
83
82
81
83
92
96
98
93
90
88
84
82
80
83
77
65
53
45
36
30
30
32
34
35
34
32
30
26
24
28
36
54
80
112
143
161
159
138
108
77
63
69
78
62
21
-16
-28
-22
-25
-43
-46
-33
-20
-16
-12
-5
3
7
10
15
16
15
15
18
19
18
17
17
17
15
17
17
16
14
16
16
14
14
14
14
12
10
11
12
12
12
15
16
15
17
22
24
23
23
26
29
33
37
39
43
48
51
56
58
63
66
71
71
70
70
73
73
73
74
73
72
71
71
69
68
69
66
68
68
70
71
68
66
63
66
66
66
64
63
62
59
56
54
55
54
55
54
52
51
47
48
49
47
43
44
46
50
49
46
48
50
54
55
60
68
73
73
70
70
68
77
88
94
94
92
94
102
110
108
102
100
101
101
98
95
94
93
82
69
58
51
43
36
36
40
44
44
47
49
47
44
39
41
47
62
86
121
156
180
190
182
165
145
140
147
160
151
99
43
14
13
12
-3
-10
-4
8
14
17
22
28
33
37
39
36
34
32
33
33
34
31
30
30
28
26
26
29
28
28
27
25
21
22
24
23
23
27
28
28
27
30
31
32
32
35
37
42
45
48
51
55
59
62
63
64
68
80
83
84
81
81
81
82
87
86
86
81
79
77
75
73
73
76
75
75
73
74
71
70
72
72
69
62
60
60
62
62
63
65
65
63
62
61
59
58
52
51
54
56
58
57
56
48
47
50
55
51
45
45
46
47
46
46
49
48
45
43
44
45
42
40
39
41
43
44
43
44
49
48
44
41
44
46
46
42
40
38
39
45
49
52
50
50
48
44
44
47
52
48
47
50
57
58
53
52
58
68
67
62
57
62
72
80
86
86
85
91
98
99
98
95
92
88
82
79
76
72
60
51
44
38
32
32
32
31
29
28
30
31
28
32
33
39
51
72
100
128
159
172
166
136
98
64
46
51
64
60
27
-10
-30
-35
-38
-47
-42
-30
-18
-13
-8
-2
4
8
8
9
10
11
10
9
7
7
7
6
5
3
3
3
1
0
-4
-7
-8
-8
-7
-6
-7
-10
-10
-8
-8
-9
-8
-6
-6
-8
-8
-4
0
2
2
3
5
8
11
13
19
24
26
24
23
27
30
34
34
38
38
39
37
39
38
35
32
31
31
29
28
26
25
23
20
22
19
17
13
12
11
7
7
6
4
3
3
2
1
1
-2
0
0
-1
-5
-5
-4
-4
-5
-6
-5
-6
-5
-1
-2
-3
-4
-2
-3
-4
-4
-3
-1
0
5
10
16
20
19
15
11
10
17
27
33
31
28
32
39
44
44
42
41
41
41
38
39
39
34
21
9
3
-7
-15
-15
-15
-15
-12
-10
-11
-12
-15
-17
-21
-20
-9
11
41
72
99
112
110
88
59
31
14
20
33
26
-12
-55
-76
-77
-75
-82
-76
-64
-61
-58
-48
-34
-29
-25
-22
-16
-13
-13
-17
-19
-20
-22
-21
-21
-19
-19
-19
-18
-20
-21
-22
-22
-21
-22
-23
-22
-19
-19
-19
-18
-14
-16
-17
-16
-14
-14
-12
-6
-3
0
2
7
11
14
18
23
27
27
32
36
41
43
43
47
50
50
47
46
44
43
42
39
37
37
34
32
30
30
32
29
24
23
22
20
19
22
23
23
20
20
20
22
25
20
18
17
17
19
18
18
17
19
20
18
17
17
19
23
23
21
18
18
18
21
24
25
23
23
21
22
25
28
31
29
29
29
28
27
30
34
35
34
31
33
34
34
32
32
33
33
33
35
33
33
33
32
29
30
32
34
32
32
32
32
32
40
47
51
48
44
43
43
48
58
65
62
63
72
79
82
79
78
76
73
70
65
66
64
55
40
25
16
11
10
11
11
12
12
12
10
11
8
6
8
18
39
69
103
133
151
142
124
97
85
86
102
99
58
4
-29
-29
-24
-39
-55
-51
-37
-27
-24
-19
-12
-6
-3
-2
0
0
-2
-4
-4
-8
-8
-10
-9
-9
-7
-7
-9
-10
-14
-14
-13
-13
-14
-17
-19
-20
-18
-19
-20
-19
-16
-15
-12
-11
-12
-10
-9
-5
-1
6
8
7
7
7
12
18
25
26
28
27
31
38
42
44
43
45
48
47
45
44
44
44
42
38
37
40
41
40
42
41
37
34
35
37
39
38
32
30
30
33
35
34
31
28
25
24
23
24
24
24
22
23
22
19
17
18
18
16
14
12
13
15
16
18
20
27
30
38
41
41
38
35
37
39
50
59
64
58
54
57
65
71
69
71
70
67
63
62
58
49
37
28
24
17
8
7
9
16
17
16
16
11
4
1
7
17
30
47
69
100
134
157
162
142
117
95
81
86
93
82
48
11
-13
-24
-35
-48
-45
-27
-15
-9
-2
9
12
11
12
14
15
14
14
17
18
14
14
14
12
11
9
10
6
5
5
10
13
12
10
8
10
11
12
9
7
7
8
12
14
15
15
19
21
23
27
29
31
35
41
42
46
48
51
55
60
59
59
56
55
61
64
64
60
58
57
57
56
52
51
51
51
50
46
46
42
44
43
39
38
39
41
39
42
44
44
46
44
41
42
48
48
48
45
46
44
42
40
40
42
44
44
44
40
39
36
38
38
42
42
43
42
39
36
34
36
38
38
37
38
39
38
38
38
38
39
43
43
40
39
41
41
41
39
40
42
44
45
47
48
48
49
47
44
45
45
46
48
49
53
50
53
55
60
64
66
67
58
59
68
81
87
88
88
88
95
99
104
99
97
95
95
91
87
87
80
67
54
49
46
39
34
33
36
36
38
38
41
39
35
32
34
44
65
95
127
156
170
168
149
115
91
80
88
103
100
65
26
-2
-10
-13
-23
-28
-20
-9
-3
3
10
17
24
27
28
29
28
26
19
17
18
17
18
19
21
17
15
15
16
16
12
13
11
11
8
8
9
11
12
13
13
12
12
13
13
12
12
14
16
22
25
28
32
33
35
36
39
41
45
51
55
58
59
57
56
57
60
58
54
54
54
54
53
49
47
45
46
46
47
44
41
39
41
43
40
40
39
35
32
32
33
35
33
27
23
20
20
19
18
19
16
15
14
12
11
12
16
16
16
16
18
17
19
27
36
40
38
35
32
32
37
48
58
60
56
55
60
69
75
73
69
65
64
63
61
62
59
52
38
28
20
15
11
7
7
8
9
8
6
3
5
4
1
1
13
36
67
100
130
140
138
120
96
78
77
89
91
63
9
-35
-46
-40
-45
-59
-60
-48
-37
-29
-27
-18
-12
-6
-7
-4
-6
-6
-6
-6
-6
-9
-11
-13
-11
-12
-13
-15
-14
-12
-14
-17
-18
-19
-20
-20
-20
-23
-23
-21
-19
-19
-22
-22
-21
-18
-17
-14
-9
-6
-5
-2
2
5
8
13
19
22
27
25
27
30
32
35
36
38
33
32
32
28
22
19
21
20
19
14
13
11
9
6
5
4
0
-3
-4
-5
-6
-7
-4
-6
-7
-9
-12
-13
-12
-13
-18
-18
-13
-7
-7
-10
-9
-11
-12
-13
-12
-12
-12
-12
-13
-16
-21
-20
-16
-14
-15
-16
-16
-15
-16
-17
-16
-13
-7
-5
-3
-3
-4
-3
1
3
2
3
3
3
2
2
1
4
9
10
10
9
9
9
9
12
10
10
13
17
19
18
20
28
33
31
26
26
31
40
50
56
58
59
63
69
69
70
70
76
76
67
60
57
54
45
35
26
21
20
19
20
20
20
20
21
24
27
26
28
38
59
91
126
154
168
161
138
109
92
87
97
109
96
57
18
-5
-15
-27
-38
-33
-15
-3
2
5
12
16
18
22
24
25
22
24
23
24
22
21
21
18
17
16
14
14
17
18
19
18
15
14
14
15
16
15
14
12
12
14
15
15
17
18
17
17
20
25
29
31
36
42
43
44
47
51
55
58
64
69
70
69
70
72
74
74
73
74
73
70
69
68
68
63
62
59
62
62
59
57
58
60
57
58
55
54
55
60
63
59
61
61
61
57
57
61
62
62
64
66
63
64
64
66
67
67
66
67
67
67
68
70
71
72
71
74
79
85
88
94
92
90
86
84
89
97
106
109
109
109
114
121
123
125
122
118
113
109
109
107
107
97
87
77
69
65
61
61
59
62
62
63
61
60
57
54
57
67
86
112
148
172
186
182
154
126
105
104
115
132
123
82
42
24
30
24
5
-2
1
9
15
24
34
41
43
47
49
51
48
47
44
44
46
46
43
40
39
37
37
38
38
38
38
39
40
38
38
38
38
35
37
40
42
42
41
43
44
48
48
49
54
60
68
65
68
71
76
79
82
85
86
88
86
89
90
92
90
90
89
88
87
82
83
83
85
82
77
75
75
75
75
74
71
70
70
68
68
67
65
61
62
64
67
64
61
60
64
67
64
61
62
62
59
60
62
63
62
61
61
59
60
61
61
62
60
61
60
60
60
58
61
58
59
60
64
68
67
68
62
63
63
64
62
61
63
64
66
64
64
64
62
60
63
67
66
65
64
65
64
65
65
67
68
68
70
76
84
87
85
80
77
80
90
100
102
102
101
105
114
118
117
118
118
114
108
97
92
93
91
84
71
61
54
52
51
53
59
60
58
50
50
51
52
53
62
81
100
128
153
176
183
180
177
172
185
209
239
222
167
106
72
64
51
27
6
0
2
4
8
14
18
19
20
21
21
17
17
17
20
23
30
34
29
20
16
18
21
25
30
30
27
15
6
8
15
24
31
38
41
39
38
44
50
52
56
62
68
64
58
59
66
78
84
89
91
96
99
99
101
102
107
108
113
112
114
113
112
109
104
105
106
110
102
96
94
94
94
88
83
77
73
71
71
73
70
69
67
66
62
63
63
60
58
56
55
53
53
51
49
48
49
50
49
48
40
39
42
45
41
38
42
43
44
44
44
45
46
48
54
60
64
64
58
50
48
55
70
72
71
69
74
81
88
91
86
83
77
76
72
72
69
67
59
50
42
33
30
25
24
24
23
25
28
28
22
18
18
21
31
48
71
102
138
162
178
180
181
188
213
254
287
271
192
108
55
40
34
24
16
12
-2
-24
-29
-17
-4
3
2
0
-6
-8
-8
-10
-11
-9
1
16
26
19
3
-4
1
10
17
20
18
18
19
19
23
23
26
24
24
24
25
27
27
30
30
31
35
41
44
47
45
43
41
42
50
58
60
56
58
65
65
64
63
68
64
57
54
53
52
52
51
50
47
43
39
37
36
35
34
31
26
23
23
22
20
20
18
15
14
12
12
11
10
10
8
7
3
-3
-2
2
6
8
8
0
-6
-5
-5
-7
-8
-3
-4
-7
-12
-18
-16
-16
-15
-19
-16
-9
-5
-13
-24
-22
-12
-5
-2
0
-1
-9
-16
-13
-6
-5
-6
-5
-4
3
7
1
-6
-6
-5
-4
1
10
15
16
23
38
53
50
32
21
27
39
44
44
51
71
81
78
74
84
94
93
93
97
96
85
81
79
79
73
59
40
31
29
20
17
21
29
31
26
18
7
5
1
-1
12
36
60
78
102
131
157
169
182
188
206
238
273
268
198
107
39
19
13
-6
-31
-39
-37
-33
-27
-25
-26
-26
-27
-28
-21
-10
-13
-25
-31
-37
-37
-31
-28
-32
-34
-28
-17
-10
-13
-22
-25
-27
-26
-15
-4
1
0
2
8
6
-6
-18
-15
-4
9
15
10
8
11
13
12
15
23
31
37
39
39
37
40
46
50
51
48
47
48
57
65
63
48
38
38
34
28
27
27
27
28
25
15
1
-7
-6
-6
-12
-19
-21
-19
-19
-21
-21
-26
-35
-34
-24
-22
-32
-40
-40
-39
-36
-34
-40
-45
-45
-39
-31
-24
-27
-32
-31
-29
-29
-30
-25
-18
-17
-21
-24
-22
-24
-23
-18
-10
-5
-1
-2
-7
-13
-13
-1
14
22
18
13
14
27
38
37
36
33
32
22
12
5
-2
-2
-4
-9
-14
-21
-28
-35
-34
-34
-35
-34
-31
-28
-36
-46
-43
-25
-2
20
52
97
133
141
135
139
160
195
235
245
220
150
63
-7
-37
-39
-35
-38
-48
-55
-49
-40
-30
-27
-20
-4
1
-8
-17
-23
-24
-6
17
32
23
0
-14
-3
16
27
25
25
32
27
12
-1
7
22
32
36
38
38
35
31
22
14
15
31
44
47
44
41
37
44
55
64
66
62
60
65
72
81
84
78
66
63
70
72
72
71
68
63
54
51
47
40
31
25
22
19
11
3
1
4
7
6
-2
-13
-22
-20
-19
-20
-23
-22
-17
-23
-30
-32
-25
-20
-23
-23
-17
-7
-7
-13
-22
-23
-15
-14
-18
-22
-26
-32
-36
-37
-35
-28
-26
-31
-34
-30
-28
-28
-30
-31
-30
-29
-28
-32
-40
-44
-39
-35
-41
-45
-41
-34
-32
-33
-35
-41
-50
-55
-49
-43
-36
-34
-38
-42
-38
-32
-31
-29
-28
-29
-31
-32
-34
-32
-26
-16
-8
-5
-5
-12
-18
-14
-1
15
21
24
18
17
21
27
31
33
34
31
26
16
15
18
15
4
-9
-17
-24
-29
-31
-31
-28
-26
-26
-25
-21
-17
-18
-17
-3
23
47
70
98
124
133
134
132
138
150
172
174
135
61
-3
-35
-44
-54
-67
-67
-54
-40
-31
-27
-25
-22
-22
-21
-16
-11
-12
-12
-9
-5
-5
-8
-12
-16
-11
-6
-2
-1
-1
-4
-8
-8
-10
-10
-10
-8
-6
-6
-4
-3
-1
0
-1
1
4
10
8
3
-3
-2
4
16
28
32
27
33
43
46
46
45
48
55
64
68
70
71
71
71
69
63
52
56
64
66
68
62
56
54
59
64
64
63
62
65
63
61
62
63
62
59
59
55
50
46
54
62
68
76
76
73
72
76
78
76
71
72
76
79
84
82
78
75
84
90
92
91
83
81
86
91
88
82
84
96
102
100
99
101
112
126
136
134
129
123
122
127
133
140
143
144
144
143
143
136
134
131
126
118
110
107
103
92
75
73
82
88
92
92
92
91
90
84
82
88
98
119
146
183
215
240
231
203
186
181
174
157
162
167
147
88
27
13
29
39
41
52
64
74
78
84
91
96
100
91
92
120
154
157
126
98
95
109
120
125
130
139
141
134
127
123
127
129
122
119
139
156
151
134
126
138
147
144
143
151
156
152
162
185
195
176
154
150
160
188
202
199
189
188
195
205
217
213
203
195
206
208
195
190
200
209
191
188
201
209
198
190
192
187
182
175
177
176
186
191
192
184
172
168
159
159
163
172
176
176
166
156
163
169
174
175
173
156
137
142
157
167
162
154
144
137
136
144
152
148
134
128
132
135
134
137
140
141
131
128
133
137
134
121
117
121
127
123
120
122
125
134
143
148
126
111
114
123
129
131
140
138
140
135
129
126
123
122
123
132
144
154
148
142
139
138
132
134
154
173
179
159
147
150
162
168
168
177
185
193
196
200
197
188
186
186
186
175
161
139
117
102
104
117
117
97
82
83
87
87
85
77
73
74
71
67
72
91
108
132
155
177
180
165
145
127
123
130
148
138
100
56
35
39
34
12
-13
-23
-17
-9
-2
1
4
5
7
7
6
3
3
5
7
5
1
-5
-5
-2
-3
-4
-2
-6
-15
-18
-16
-13
-15
-22
-24
-23
-25
-27
-27
-28
-30
-27
-21
-17
-16
-18
-19
-16
-13
-9
-9
-11
-9
-2
2
3
4
5
7
6
9
11
11
10
11
10
7
7
3
2
1
1
0
2
3
1
-2
-5
-6
-6
-9
-12
-11
-7
-7
-9
-15
-17
-18
-20
-19
-22
-27
-30
-31
-32
-36
-38
-40
-39
-38
-39
-44
-49
-47
-42
-37
-32
-25
-17
-15
-16
-19
-21
-18
-14
-13
-13
-12
-8
-4
6
12
9
1
-1
4
4
-3
-9
-11
-15
-26
-35
-44
-52
-55
-54
-54
-59
-57
-57
-62
-70
-63
-56
-59
-68
-65
-45
-14
18
47
68
78
73
56
52
70
100
113
80
15
-41
-61
-60
-79
-101
-114
-115
-112
-113
-106
-97
-88
-89
-92
-92
-92
-89
-90
-92
-94
-90
-85
-88
-93
-101
-104
-99
-86
-80
-88
-98
-102
-98
-91
-85
-84
-83
-86
-89
-87
-86
-86
-87
-86
-84
-75
-73
-77
-78
-72
-61
-57
-55
-55
-52
-54
-52
-48
-41
-32
-24
-27
-37
-42
-35
-26
-23
-31
-37
-39
-41
-44
-39
-27
-21
-27
-40
-51
-54
-54
-53
-57
-56
-51
-53
-61
-60
-51
-45
-49
-62
-64
-57
-52
-53
-53
-54
-55
-50
-51
-54
-62
-65
-60
-51
-40
-41
-51
-60
-57
-52
-48
-45
-40
-36
-39
-55
-70
-65
-57
-57
-55
-47
-46
-53
-55
-52
-50
-55
-56
-50
-41
-36
-43
-50
-55
-50
-48
-47
-47
-48
-46
-47
-46
-48
-48
-50
-50
-46
-45
-46
-53
-59
-61
-55
-45
-44
-46
-47
-52
-58
-53
-41
-38
-45
-49
-43
-34
-32
-35
-36
-30
-23
-22
-28
-31
-31
-29
-31
-34
-35
-43
-59
-72
-76
-84
-90
-89
-85
-85
-83
-83
-86
-87
-92
-96
-92
-81
-61
-39
-13
18
47
66
66
51
49
68
104
126
108
39
-39
-70
-69
-71
-90
-115
-124
-124
-116
-116
-111
-99
-96
-99
-103
-101
-101
-97
-92
-89
-87
-93
-100
-102
-94
-89
-87
-88
-92
-93
-92
-89
-89
-87
-83
-85
-87
-88
-85
-85
-87
-90
-90
-87
-86
-85
-86
-84
-82
-78
-71
-68
-68
-69
-65
-58
-54
-52
-45
-39
-37
-36
-30
-24
-22
-19
-15
-16
-24
-26
-22
-17
-20
-23
-19
-16
-15
-18
-21
-24
-29
-26
-26
-26
-31
-33
-34
-33
-35
-38
-37
-40
-41
-42
-45
-48
-49
-48
-46
-45
-46
-48
-45
-47
-50
-50
-50
-51
-50
-48
-44
-45
-45
-41
-36
-32
-29
-26
-20
-18
-19
-25
-21
-9
1
5
5
-2
0
11
22
23
16
12
12
12
11
11
11
6
-3
-13
-16
-24
-30
-34
-36
-36
-37
-34
-34
-31
-31
-33
-39
-40
-32
-15
9
36
69
97
110
105
91
81
89
114
135
119
62
-8
-51
-55
-49
-56
-66
-65
-62
-60
-57
-50
-44
-41
-36
-29
-30
-32
-32
-33
-36
-37
-32
-29
-29
-32
-33
-31
-30
-26
-22
-17
-17
-20
-18
-20
-20
-23
-22
-27
-30
-25
-17
-11
-10
-10
-10
-8
-6
-4
-1
4
7
13
17
19
21
25
28
30
31
35
40
45
46
49
53
55
53
54
56
56
54
52
51
50
48
48
52
53
52
47
44
40
39
40
41
43
43
45
50
49
48
46
45
43
43
45
44
46
47
49
48
45
43
44
48
46
49
50
53
50
49
52
52
54
52
54
55
53
55
55
56
54
54
53
51
51
54
56
56
58
58
56
55
57
59
62
62
57
55
56
60
62
63
60
60
60
60
61
59
59
61
60
60
62
60
60
65
68
66
65
72
79
80
79
73
75
80
91
97
100
103
102
110
115
121
119
117
118
115
111
104
106
102
95
85
77
71
64
63
63
65
67
72
71
67
66
65
66
69
83
106
136
168
201
214
203
184
156
143
146
166
173
147
97
56
45
41
30
19
20
31
38
46
54
60
62
63
64
62
64
63
65
63
63
63
63
59
54
54
52
56
59
60
56
54
56
53
51
50
49
45
42
44
44
46
43
44
43
46
45
46
49
48
47
46
50
54
57
57
56
59
60
65
70
72
74
74
75
77
77
77
78
78
79
78
76
72
67
65
61
61
60
62
62
62
59
56
58
54
53
52
49
46
44
44
42
42
43
44
44
42
43
42
43
41
44
46
43
42
42
47
49
50
49
49
48
47
48
46
48
50
53
54
60
66
69
68
62
60
62
71
76
76
76
77
83
88
90
87
88
87
86
85
83
80
75
68
57
47
39
29
23
23
27
28
30
28
29
26
24
20
17
24
40
66
97
126
146
150
136
108
86
76
83
96
90
54
3
-29
-29
-20
-24
-37
-34
-24
-16
-12
-6
0
3
4
6
9
8
9
8
7
5
2
1
0
-4
-8
-7
-7
-8
-10
-10
-6
-6
-9
-10
-9
-7
-6
-5
-9
-8
-7
-7
-9
-12
-8
-6
-8
-6
-4
0
2
4
7
11
15
17
20
21
24
28
30
30
30
31
31
28
28
26
26
26
24
24
22
25
22
22
19
17
16
15
15
13
10
9
7
6
4
4
3
3
4
4
1
0
0
3
5
3
2
5
8
10
11
12
11
11
12
15
18
18
17
17
18
17
17
18
19
22
23
24
24
24
23
26
27
28
27
27
29
29
29
28
27
26
28
30
29
29
28
28
29
29
28
29
29
28
28
29
33
30
32
30
33
35
37
40
41
42
42
45
49
55
58
58
58
58
62
66
73
78
81
83
87
96
101
100
97
100
98
93
85
84
84
73
61
51
46
36
30
32
40
42
42
42
39
39
39
38
37
40
56
80
115
147
170
181
177
162
144
139
148
164
153
103
39
-1
-8
-3
-9
-16
-11
-2
5
12
17
26
32
36
35
36
38
36
37
34
31
32
36
35
33
33
32
31
28
29
29
30
28
22
20
20
20
17
16
18
16
17
19
20
21
21
21
24
27
29
31
33
32
34
39
44
49
52
55
58
59
60
59
59
60
63
67
68
67
63
62
62
61
62
61
62
61
61
59
57
56
56
57
56
56
53
51
49
48
48
47
46
44
46
47
46
44
45
42
39
36
32
34
34
35
33
36
41
40
37
34
32
36
44
50
55
59
63
66
62
59
59
64
74
83
84
81
82
90
99
101
99
96
98
99
98
99
97
92
82
69
60
53
48
42
43
43
43
47
50
51
48
48
44
43
50
70
97
127
161
184
201
197
188
173
164
166
179
184
150
97
52
31
25
11
-1
0
12
19
24
30
35
34
33
36
40
40
38
41
43
40
37
36
36
32
32
29
28
28
28
29
27
23
23
23
23
21
21
20
19
20
22
22
22
24
22
23
24
32
38
44
44
46
50
55
61
62
65
68
70
71
73
75
76
79
77
78
76
80
79
75
73
72
72
69
68
68
68
66
63
61
60
60
58
61
59
58
56
57
56
54
56
56
57
51
50
55
61
66
67
66
64
65
65
65
67
67
64
60
60
63
64
62
61
59
58
59
60
61
61
60
60
62
67
67
71
71
70
68
68
70
68
70
68
69
68
65
61
62
69
70
73
71
72
69
69
71
69
67
63
63
64
68
70
71
72
72
72
68
69
70
71
72
78
83
86
85
81
78
75
77
85
97
100
97
100
104
111
114
113
111
110
108
102
96
94
90
81
68
57
49
44
42
42
44
45
43
41
44
44
43
39
40
48
67
96
126
158
172
170
148
119
96
86
94
103
100
64
19
-9
-14
-12
-23
-29
-17
-4
5
11
20
26
30
32
32
32
34
34
34
33
33
32
32
33
33
30
27
26
28
29
27
24
24
23
26
28
28
25
23
24
23
22
23
25
28
31
35
38
40
42
47
48
49
51
57
64
66
68
72
75
76
79
83
84
83
82
86
84
84
85
82
82
78
77
74
75
72
74
76
73
71
70
71
70
71
71
68
66
64
65
67
68
65
62
60
58
60
60
60
59
61
62
60
57
56
56
55
55
55
56
53
52
52
54
59
62
67
73
81
83
80
78
73
80
88
91
88
83
89
99
108
106
104
102
100
97
97
96
90
83
70
60
52
46
40
37
38
38
38
37
36
35
34
32
28
31
42
61
85
117
148
164
162
145
124
104
102
109
117
98
56
12
-9
-5
-4
-16
-21
-16
-8
-1
4
10
16
22
26
28
30
30
32
32
31
33
35
33
32
33
34
28
29
30
29
27
26
28
23
19
17
19
20
20
21
22
23
22
24
27
28
30
34
40
41
45
49
52
52
54
60
62
62
64
69
71
73
73
75
73
71
71
74
73
69
69
68
66
64
63
63
61
62
60
56
52
48
49
48
45
43
44
46
44
43
40
38
35
33
34
37
39
39
40
41
44
39
38
38
37
36
38
42
38
35
34
33
31
31
32
32
31
30
33
32
30
29
31
31
29
29
27
27
27
30
30
30
32
34
34
33
32
32
33
32
30
30
28
28
28
29
27
25
24
23
23
25
29
29
28
28
29
33
35
39
40
42
44
44
40
39
43
53
63
66
64
63
70
77
81
80
76
75
74
70
65
61
60
48
38
30
23
16
11
13
12
15
15
15
15
14
14
14
19
31
55
85
116
143
164
162
150
132
121
127
146
159
130
72
19
-4
-4
-10
-27
-32
-24
-17
-11
-4
3
11
18
22
22
18
14
12
14
15
20
20
18
16
14
16
18
18
13
12
14
15
14
10
8
7
8
8
7
8
8
9
9
10
9
12
12
14
14
18
20
19
22
25
29
32
39
43
44
44
47
52
52
54
58
58
54
53
54
57
57
59
61
60
62
64
64
58
51
48
49
50
50
49
46
46
45
44
45
45
43
40
38
36
37
40
39
38
38
35
33
31
34
35
37
35
33
33
33
33
33
36
35
35
34
34
33
34
39
42
50
55
61
62
58
55
51
51
56
67
72
70
73
79
84
88
89
84
83
80
79
77
78
78
75
63
53
48
40
29
21
22
26
30
37
40
37
34
31
29
30
41
67
103
141
173
188
185
166
139
120
113
124
121
96
55
15
-4
-12
-21
-33
-31
-16
-4
6
14
23
25
26
30
32
33
36
40
38
33
32
33
32
32
31
31
32
33
32
29
27
26
24
24
24
25
27
24
19
21
27
30
32
31
27
26
26
27
29
32
35
42
51
56
56
56
56
60
63
66
68
67
70
70
67
67
71
73
69
68
67
72
74
67
60
58
64
63
64
62
61
59
56
55
52
51
48
47
45
48
52
52
50
44
46
47
48
48
47
45
42
42
42
42
42
41
39
38
35
33
33
31
31
29
29
29
32
33
36
35
31
30
32
34
35
34
34
35
36
34
36
37
37
36
35
37
35
34
34
32
32
31
34
33
32
29
30
33
33
32
35
39
36
33
31
31
31
35
40
37
35
36
40
45
48
48
42
39
36
44
55
64
62
62
69
80
82
80
79
76
74
68
64
63
60
49
35
28
22
15
14
14
15
15
15
14
15
13
10
7
7
19
42
71
99
129
146
137
108
73
48
38
52
66
51
9
-34
-51
-54
-59
-69
-69
-56
-46
-37
-29
-21
-15
-12
-9
-9
-10
-10
-8
-11
-13
-12
-9
-10
-13
-12
-15
-15
-15
-16
-18
-21
-20
-18
-17
-18
-19
-20
-23
-25
-25
-24
-25
-22
-19
-20
-19
-17
-12
-9
-7
-4
-2
2
6
9
13
15
16
19
21
22
24
28
30
31
30
27
27
27
26
22
22
22
20
19
18
21
18
18
18
17
16
15
14
13
12
8
7
4
0
-2
-3
-3
-4
-5
-3
-3
-2
-1
0
-1
-2
-1
1
1
0
1
1
2
0
-1
0
2
6
9
13
18
24
26
25
20
18
22
31
39
42
40
39
45
53
58
55
51
49
49
50
48
46
44
34
21
12
6
-3
-9
-11
-10
-9
-8
-7
-6
-3
-7
-12
-15
-10
6
30
60
92
119
127
121
98
72
51
49
62
61
26
-28
-65
-68
-65
-70
-77
-67
-54
-49
-41
-32
-25
-24
-21
-17
-15
-13
-13
-13
-13
-14
-14
-12
-13
-16
-14
-12
-10
-13
-13
-13
-14
-14
-12
-12
-15
-15
-15
-14
-12
-11
-12
-12
-12
-11
-8
-3
0
3
7
10
13
16
18
21
24
29
30
34
37
39
39
39
42
42
43
40
40
39
38
36
34
33
31
30
30
30
29
25
24
22
19
15
15
17
19
17
15
14
13
12
13
14
13
13
14
16
15
13
13
13
15
17
17
17
18
20
23
24
22
21
22
23
22
22
26
25
26
27
28
28
26
27
29
30
27
27
28
29
29
31
31
28
28
30
34
33
33
35
33
34
34
36
37
37
38
38
37
37
36
34
34
36
37
36
36
36
37
38
43
48
48
50
49
48
43
49
64
72
73
71
73
81
88
89
85
82
79
79
76
70
66
63
56
44
35
25
16
10
9
14
16
18
21
22
22
18
16
15
22
37
60
90
125
143
152
148
128
110
95
100
117
126
97
43
0
-21
-25
-35
-47
-47
-39
-32
-26
-23
-16
-11
-7
-5
-1
-1
-2
-6
-8
-7
-8
-10
-13
-14
-14
-12
-8
-8
-8
-11
-15
-15
-14
-13
-17
-21
-24
-23
-25
-25
-26
-28
-26
-21
-20
-20
-17
-12
-9
-10
-9
-8
-5
0
6
14
19
22
22
25
28
31
31
33
35
33
36
42
46
46
47
48
49
45
41
40
39
39
37
37
36
36
39
41
40
34
31
30
31
32
30
29
30
32
33
30
26
25
24
22
18
21
25
24
19
18
20
21
17
17
17
18
16
11
9
9
14
15
16
16
20
24
33
41
40
33
24
25
34
51
59
57
56
59
69
75
76
71
70
68
67
66
63
60
52
38
24
18
14
9
9
12
11
5
5
7
6
3
3
6
14
29
48
73
108
144
163
158
135
103
78
60
60
68
63
33
-4
-31
-40
-45
-55
-59
-50
-36
-27
-24
-20
-17
-14
-11
-6
-1
1
1
-3
-5
-6
-5
-8
-10
-10
-9
-10
-13
-13
-12
-16
-16
-14
-12
-12
-12
-12
-12
-11
-13
-14
-13
-12
-10
-11
-6
-5
-3
-1
3
6
7
11
15
16
19
24
30
34
35
37
38
39
40
44
47
46
47
46
46
43
40
39
37
37
38
42
43
41
38
37
36
35
37
35
34
33
33
34
33
33
30
32
36
38
37
37
37
38
42
42
39
35
34
33
32
33
33
35
37
39
40
40
41
39
40
37
38
41
44
41
38
39
44
47
47
47
48
50
51
50
47
46
46
46
46
44
45
47
48
48
50
52
50
47
45
48
50
51
53
51
52
50
52
54
57
56
56
60
61
65
68
76
80
77
75
68
70
77
87
91
93
94
99
107
112
112
107
106
99
96
94
93
93
81
67
56
53
49
46
48
51
51
49
49
47
44
42
42
48
60
81
110
146
173
180
163
135
104
84
80
89
94
71
27
-5
-11
-8
-17
-30
-28
-16
-7
-1
9
15
19
21
23
24
24
23
22
21
19
18
18
19
20
19
17
12
11
11
12
12
11
12
9
8
6
6
6
8
11
11
9
7
10
14
16
19
21
21
23
28
33
37
39
43
48
51
55
58
62
61
63
63
62
61
60
59
59
58
56
56
54
51
48
48
44
44
49
48
46
43
43
44
43
44
43
44
40
37
34
31
30
29
30
28
27
27
28
25
22
22
20
21
18
19
20
20
22
20
21
21
22
28
35
42
44
42
40
39
41
48
56
58
54
56
63
73
75
72
70
66
64
64
63
60
53
42
29
22
14
8
5
5
4
4
4
3
3
3
-2
-8
-11
-7
10
37
69
101
124
128
120
92
66
52
57
63
46
0
-53
-78
-74
-70
-76
-80
-69
-57
-49
-43
-36
-29
-23
-17
-14
-15
-19
-19
-18
-21
-21
-23
-21
-23
-24
-27
-28
-28
-29
-29
-30
-34
-38
-37
-34
-36
-35
-36
-35
-34
-31
-32
-33
-34
-32
-31
-28
-24
-21
-23
-22
-17
-12
-6
-2
2
6
10
11
12
13
14
19
23
22
22
20
20
19
19
16
13
13
12
12
8
5
4
2
0
-5
-7
-5
-5
-7
-9
-9
-8
-9
-10
-12
-14
-13
-10
-9
-9
-10
-9
-14
-15
-14
-16
-18
-19
-18
-19
-20
-20
-18
-19
-22
-20
-21
-21
-22
-24
-23
-22
-20
-16
-15
-16
-16
-16
-17
-19
-19
-17
-16
-15
-14
-14
-13
-15
-16
-14
-14
-14
-13
-12
-10
-13
-14
-15
-9
-4
-3
-4
-4
-1
-2
-2
-5
-7
-6
-3
2
5
13
18
21
20
19
19
25
33
37
38
41
46
55
61
63
61
59
56
53
51
52
48
36
23
12
3
-2
-5
-3
-2
1
2
4
5
5
2
2
8
20
36
66
103
136
163
162
146
115
90
79
83
96
91
63
21
-10
-19
-27
-42
-52
-43
-29
-20
-14
-7
-1
-1
0
1
3
4
5
6
8
10
4
0
3
6
9
12
13
12
6
4
6
7
2
0
3
4
2
5
6
5
5
8
7
4
3
6
10
17
24
26
29
32
35
40
43
46
48
50
53
57
62
64
66
66
71
72
73
70
71
74
76
78
77
79
75
71
68
70
70
72
78
77
73
67
69
71
73
72
68
63
61
64
65
68
71
73
73
68
64
64
65
65
69
72
73
74
77
76
72
72
72
76
79
80
80
80
83
83
87
92
99
103
104
102
98
99
106
116
124
122
118
123
134
139
142
140
136
133
132
134
131
130
123
112
102
96
92
83
80
80
85
85
87
89
91
94
92
93
95
107
124
154
188
221
238
229
205
166
137
125
133
143
134
101
59
36
34
35
28
28
37
47
54
61
70
80
88
93
97
96
94
92
89
88
86
87
90
88
87
86
88
88
87
86
85
87
84
85
83
80
79
79
80
79
80
80
83
82
83
84
88
92
91
94
97
101
102
106
110
110
112
115
123
126
128
125
127
127
131
134
134
131
126
126
124
121
121
121
122
119
118
118
118
115
114
112
110
110
109
109
107
107
107
108
108
107
108
107
104
103
105
105
104
105
102
101
98
98
99
101
102
98
103
102
100
98
98
97
96
97
95
93
91
93
95
94
94
93
95
94
95
92
94
94
91
89
88
90
91
95
95
94
92
91
92
93
92
90
92
90
88
88
90
94
94
97
94
94
95
96
100
107
114
113
112
106
103
108
117
125
127
127
129
138
144
141
138
137
140
135
131
127
124
114
100
88
78
70
64
63
63
65
66
64
64
60
58
53
54
58
76
108
147
180
194
193
170
144
120
105
110
121
112
68
20
-1
2
3
-12
-25
-19
-9
-4
1
10
16
18
24
30
29
25
24
25
25
22
19
16
17
17
16
15
13
12
12
12
10
7
6
4
4
4
4
4
6
6
7
7
8
9
9
12
13
14
16
16
17
23
30
31
35
37
40
41
44
48
52
53
51
50
47
46
45
46
48
48
46
42
39
37
35
37
40
40
39
39
40
39
38
38
36
35
32
33
32
30
28
25
24
23
24
24
23
22
19
19
18
16
16
16
20
20
21
23
25
27
30
37
45
56
58
54
48
43
48
60
70
68
66
64
72
79
83
86
82
81
76
73
68
71
69
61
48
37
28
18
15
15
17
18
17
21
22
23
21
18
17
25
46
76
111
145
166
168
156
131
113
113
131
138
110
59
9
-11
-13
-21
-37
-39
-29
-21
-16
-13
-9
-7
-3
4
5
6
5
3
-1
0
2
-1
-1
-1
-2
-2
0
0
-2
-5
-8
-10
-9
-10
-8
-6
-4
-8
-8
-8
-7
-7
-4
-4
-7
-5
0
3
4
7
10
15
19
24
28
30
36
41
43
42
45
50
58
60
60
57
53
51
51
52
52
54
56
56
60
60
56
50
46
44
48
54
56
56
53
50
49
47
51
53
55
56
56
52
50
57
57
58
55
56
59
63
63
64
64
62
61
62
67
68
66
66
63
64
65
67
66
64
62
62
68
72
70
68
68
68
69
66
65
70
77
81
81
83
81
80
77
77
77
78
81
80
78
78
78
80
80
83
83
82
82
83
82
81
81
87
92
96
101
101
96
90
89
99
106
113
114
118
123
130
138
134
134
128
130
124
118
115
111
103
88
83
76
70
64
63
69
71
74
74
75
74
74
72
70
75
92
117
151
186
203
204
181
146
112
95
97
108
110
80
40
10
1
-3
-8
-9
-2
6
12
20
31
39
45
46
49
49
47
47
46
46
44
45
48
46
43
39
38
39
40
38
38
36
32
31
31
34
30
27
24
24
24
26
29
29
29
28
29
31
33
34
37
40
40
43
43
46
48
50
54
56
59
62
67
68
68
68
66
63
62
59
57
54
51
52
52
51
49
46
42
40
40
39
37
35
36
33
30
31
28
27
27
26
25
23
24
21
21
19
14
13
15
17
18
17
15
14
15
13
11
9
8
6
7
9
10
8
8
14
21
27
31
30
25
21
20
23
32
35
34
29
32
39
48
47
43
42
42
40
38
38
38
34
22
5
-4
-9
-17
-24
-25
-21
-21
-24
-23
-24
-26
-29
-33
-35
-30
-13
12
43
72
88
88
71
44
16
3
10
14
-4
-46
-86
-97
-94
-96
-106
-107
-94
-86
-79
-76
-69
-64
-56
-51
-51
-53
-53
-51
-51
-52
-56
-60
-61
-63
-59
-54
-49
-51
-52
-52
-52
-51
-52
-51
-52
-52
-53
-52
-52
-52
-49
-48
-46
-47
-44
-40
-38
-35
-32
-30
-29
-24
-20
-17
-13
-8
-5
-1
2
5
9
12
14
15
14
12
10
6
6
6
4
3
-2
-3
-4
-4
-4
-4
-2
-8
-10
-13
-14
-14
-16
-16
-18
-17
-14
-14
-15
-18
-19
-20
-20
-21
-20
-17
-17
-17
-19
-18
-18
-18
-18
-21
-21
-20
-20
-19
-20
-19
-20
-21
-21
-20
-22
-25
-24
-18
-18
-20
-20
-15
-11
-11
-11
-13
-14
-13
-12
-13
-12
-11
-11
-9
-8
-10
-11
-14
-15
-15
-15
-14
-13
-11
-10
-13
-11
-10
-9
-10
-11
-7
-7
-1
6
12
10
2
0
3
13
17
21
23
24
28
40
51
49
44
42
43
39
35
36
35
29
20
10
-2
-10
-12
-12
-9
-8
-9
-5
0
-1
-5
-7
-6
1
12
36
73
113
139
147
136
116
93
81
87
102
108
82
34
-4
-12
-11
-25
-40
-38
-27
-18
-13
-7
0
5
7
12
14
15
16
20
26
27
21
14
15
18
18
19
17
19
19
19
18
17
20
21
18
15
15
20
25
28
25
23
21
21
20
25
31
35
38
42
47
55
58
60
60
62
69
76
80
80
80
84
88
91
93
96
93
91
94
97
99
94
93
96
95
93
94
98
95
93
93
95
96
94
96
97
98
92
93
94
93
91
94
100
97
98
96
96
93
93
92
88
89
89
96
97
99
99
97
98
99
101
97
97
96
100
104
108
110
111
119
123
121
114
114
119
130
136
139
139
139
146
152
156
153
150
149
147
147
142
139
131
120
109
103
100
92
87
89
91
87
85
89
85
81
77
78
82
92
112
139
176
198
203
184
154
120
93
86
97
110
90
51
15
0
2
2
2
10
22
29
37
45
51
55
60
63
63
64
62
63
62
61
58
54
54
56
61
61
58
55
54
54
55
54
54
55
56
55
50
48
49
52
54
52
52
56
58
56
59
64
60
56
60
67
70
69
74
77
80
80
81
83
87
91
85
82
80
82
76
71
69
72
73
69
66
63
60
59
58
58
52
49
46
46
43
39
38
37
38
38
34
30
29
28
32
35
34
31
28
29
29
28
25
21
16
16
20
26
28
28
26
25
24
20
18
19
19
19
19
19
18
17
17
17
14
10
9
10
10
11
14
16
14
14
15
13
11
12
14
9
9
10
13
14
12
11
7
8
9
11
14
15
16
16
18
15
17
20
28
31
30
26
23
26
30
39
49
52
50
53
59
65
64
60
58
57
55
51
50
50
43
29
18
11
4
-3
-6
-3
1
0
-3
-6
-5
-4
-7
-8
4
27
54
88
114
128
121
98
67
42
32
38
49
38
0
-36
-49
-40
-46
-64
-75
-71
-66
-60
-47
-39
-32
-30
-30
-30
-31
-28
-28
-26
-26
-27
-26
-26
-28
-30
-31
-31
-30
-29
-31
-32
-36
-42
-50
-46
-39
-37
-39
-41
-40
-40
-40
-40
-42
-43
-40
-36
-33
-31
-26
-20
-17
-17
-12
-6
-6
-8
-6
2
9
10
12
14
17
17
15
14
16
21
20
17
13
14
15
10
5
3
7
12
14
11
10
8
7
7
4
6
11
14
10
4
2
3
6
7
3
-4
-6
-3
-7
-12
-15
-8
-1
0
0
-1
-5
-9
-7
-3
0
1
1
4
6
7
10
16
27
29
28
24
20
19
24
38
46
44
44
52
62
64
65
67
67
65
60
58
55
54
52
43
36
28
23
17
13
15
16
16
14
17
19
17
14
18
24
40
60
83
115
143
160
153
139
120
106
108
124
131
94
41
8
2
-2
-20
-30
-20
-8
1
2
4
6
15
23
29
31
29
28
27
26
25
22
24
25
25
25
24
24
22
19
16
20
22
20
20
18
12
6
7
12
11
8
6
4
3
4
11
16
17
16
20
31
38
35
31
39
45
47
47
54
58
59
57
52
52
54
54
53
55
54
51
50
48
45
39
37
38
39
34
28
27
30
31
32
31
30
32
33
28
21
23
24
22
18
16
15
15
17
18
14
11
12
15
14
11
6
5
3
2
2
5
7
5
7
12
7
-2
-4
5
10
10
12
9
10
7
0
-1
6
10
7
6
3
2
5
10
10
8
9
10
4
2
5
7
7
12
13
12
11
10
10
14
19
19
18
21
22
23
28
35
36
30
28
28
34
44
48
48
54
69
76
68
60
56
56
54
58
59
56
51
38
24
15
7
-1
-2
2
2
-2
-2
1
-2
-2
-5
-9
-10
-1
18
46
79
97
101
88
64
33
-1
-10
2
16
1
-33
-64
-72
-62
-66
-81
-81
-73
-61
-56
-46
-42
-35
-29
-24
-21
-25
-25
-24
-23
-22
-21
-24
-32
-35
-33
-29
-26
-23
-23
-27
-31
-32
-31
-33
-38
-37
-34
-34
-37
-36
-34
-32
-33
-32
-28
-28
-29
-28
-20
-15
-14
-16
-11
-8
-8
-9
-5
-1
0
1
4
7
8
13
15
14
10
10
14
13
9
7
7
5
2
-1
-4
-3
0
4
4
0
-1
-2
-2
-4
-1
1
-4
-10
-10
-7
-8
-13
-13
-14
-13
-13
-15
-17
-20
-18
-11
-7
-10
-12
-12
-10
-8
-7
-6
-3
1
10
14
13
6
-1
1
5
21
31
33
28
28
37
40
38
37
49
54
52
46
39
31
28
23
12
1
-4
-8
-13
-16
-14
-12
-7
-9
-11
-9
-11
-15
-19
-5
15
40
62
86
105
112
91
55
30
23
33
37
26
-10
-49
-70
-70
-66
-68
-69
-60
-50
-42
-39
-33
-23
-13
-8
-10
-16
-20
-17
-8
-5
-9
-12
-10
-11
-14
-16
-13
-11
-12
-17
-14
-7
-5
-10
-17
-16
-14
-10
-12
-12
-8
-8
-6
-4
-4
-6
-4
4
8
10
13
19
22
26
29
35
38
43
44
42
40
44
52
55
54
51
49
48
47
48
51
53
50
48
45
46
46
45
40
37
35
34
34
39
43
42
39
33
27
28
34
37
34
33
36
37
34
33
35
35
34
34
35
39
38
40
41
43
43
44
47
42
43
41
42
47
50
48
44
44
42
42
42
45
50
51
51
49
52
52
53
54
54
55
58
59
58
56
58
63
62
63
66
63
60
57
56
63
69
66
63
63
68
71
68
69
75
84
89
86
79
78
85
92
99
103
104
104
110
121
128
129
124
124
117
110
107
109
109
96
86
73
65
60
60
68
68
68
62
63
66
68
67
62
65
74
102
135
171
191
204
198
173
144
114
103
108
120
106
72
39
21
19
9
-8
-9
10
22
20
23
38
45
43
43
43
43
46
52
54
49
43
39
44
51
48
42
39
40
38
39
40
37
33
33
37
33
30
27
25
20
22
28
35
35
33
35
36
31
28
31
36
36
40
44
50
54
59
61
60
64
66
66
63
64
68
75
76
69
68
70
74
69
66
64
65
64
60
60
62
59
51
46
43
44
45
44
39
35
36
35
32
35
35
33
34
32
27
28
31
31
29
32
35
28
23
20
17
16
20
26
21
21
25
25
24
19
20
23
30
28
22
19
19
21
23
27
26
29
36
42
35
29
30
32
39
45
46
42
46
56
60
58
53
52
45
41
43
47
47
36
21
10
7
0
-13
-20
-19
-14
-13
-13
-12
-13
-15
-20
-24
-22
-12
7
31
59
85
101
104
86
57
27
8
10
20
15
-16
-58
-82
-81
-75
-83
-85
-73
-63
-56
-49
-36
-31
-32
-32
-28
-21
-21
-22
-24
-24
-24
-25
-25
-27
-25
-23
-21
-22
-26
-29
-29
-27
-28
-28
-32
-35
-36
-35
-34
-33
-33
-30
-26
-26
-28
-28
-28
-24
-20
-16
-12
-9
-8
-7
-2
0
0
5
13
15
13
13
17
19
17
14
14
13
11
7
2
0
-1
0
1
-1
-2
-1
1
-6
-9
-9
-7
-9
-15
-13
-14
-18
-21
-23
-21
-20
-16
-17
-21
-26
-25
-25
-26
-26
-24
-18
-19
-25
-26
-23
-23
-29
-29
-23
-16
-16
-20
-21
-18
-16
-18
-24
-28
-23
-14
-12
-16
-18
-15
-13
-17
-21
-21
-20
-20
-20
-18
-16
-16
-14
-13
-12
-14
-14
-15
-16
-14
-13
-17
-19
-11
-9
-10
-10
-10
-8
-9
-10
-13
-7
2
12
14
10
7
5
7
12
22
31
32
32
36
47
48
46
45
45
44
44
41
39
35
28
17
7
0
-8
-12
-4
2
-4
-7
-2
-2
-5
-7
-8
-7
0
14
39
74
113
135
136
128
115
99
86
86
99
94
56
7
-17
-22
-31
-48
-53
-42
-27
-19
-13
-6
1
6
9
14
16
15
13
11
8
9
14
17
19
20
22
17
13
9
11
12
12
18
20
22
16
12
6
3
8
17
20
19
21
26
28
26
23
27
32
33
34
36
39
44
48
53
61
65
64
66
72
76
76
74
75
72
70
77
85
80
70
71
75
74
74
70
70
66
64
60
62
67
66
66
64
66
64
60
55
54
60
65
63
59
61
65
67
61
58
60
58
57
52
52
56
61
62
58
57
56
56
51
49
51
56
60
60
61
63
65
68
76
81
82
79
75
72
72
79
86
90
87
87
94
101
102
99
96
96
97
95
93
92
92
83
68
55
45
41
40
37
36
33
34
34
36
37
31
24
20
35
59
86
117
148
166
164
148
116
88
68
69
79
76
46
6
-15
-16
-22
-32
-35
-24
-16
-9
-2
7
14
19
29
35
29
22
19
21
23
23
23
21
18
21
27
29
24
23
25
21
18
15
17
19
21
19
18
21
25
23
17
13
14
17
18
18
21
27
31
34
37
38
41
42
44
45
47
51
47
45
51
63
65
59
56
52
52
48
47
44
43
38
32
31
33
32
30
29
29
31
32
30
28
28
28
26
30
26
19
13
15
18
18
18
20
25
25
22
17
15
15
16
15
17
19
18
14
9
8
12
12
8
9
11
14
14
14
12
14
16
15
15
14
14
15
17
17
16
17
18
16
14
15
12
12
13
14
17
21
23
19
20
19
17
16
16
17
17
17
15
19
25
30
38
47
46
39
33
34
43
55
63
63
66
71
76
76
74
71
68
72
74
70
63
56
48
35
25
20
16
11
8
12
11
10
8
12
13
9
5
6
18
40
74
107
138
150
144
129
104
84
68
72
79
65
21
-24
-43
-40
-44
-54
-55
-39
-27
-20
-16
-11
-5
3
8
9
7
-1
-2
1
8
6
3
5
8
9
5
6
9
11
8
3
-1
-3
-2
2
0
-2
-2
1
-3
-9
-7
1
6
8
6
7
10
10
14
22
29
28
27
31
39
42
43
47
52
55
51
50
49
52
59
61
60
56
56
52
53
56
60
58
59
61
56
52
50
51
49
48
48
45
45
44
40
33
35
38
38
36
35
35
29
30
34
36
32
26
22
23
30
35
34
35
36
36
38
40
39
40
43
46
45
46
51
61
72
73
68
63
61
63
73
86
89
87
84
92
99
102
100
98
102
103
104
98
92
89
86
82
70
64
53
45
45
46
49
52
54
53
51
50
52
55
63
78
98
125
154
180
192
194
177
156
137
141
163
168
136
76
29
16
17
10
-4
-6
6
22
32
36
43
49
52
52
54
53
51
50
52
59
60
59
53
49
46
44
46
49
53
49
48
47
48
47
41
40
43
48
49
46
44
49
47
43
44
48
57
62
62
64
64
67
71
76
79
82
84
90
89
88
88
90
94
95
96
94
98
98
94
87
82
80
82
85
82
79
76
75
74
72
73
73
71
68
66
66
67
70
71
73
71
70
68
67
68
68
69
67
66
65
64
65
63
63
60
61
60
60
56
58
59
58
56
55
55
52
52
52
52
57
55
56
54
55
52
51
54
55
54
52
53
53
54
50
44
44
46
47
46
46
48
51
50
48
46
44
41
42
47
49
52
57
66
73
79
88
95
106
110
106
91
72
56
44
40
42
44
42
34
30
33
41
41
37
37
33
29
23
23
21
24
30
47
75
112
137
141
125
96
70
53
53
63
65
41
-5
-38
-44
-38
-43
-57
-55
-43
-32
-26
-20
-13
-7
-3
-2
-2
-2
-2
-6
-6
-3
-2
-3
-3
-4
-6
-9
-8
-6
-5
-9
-12
-12
-9
-8
-8
-12
-15
-16
-13
-14
-17
-16
-13
-7
-9
-14
-11
-6
-4
-6
-2
0
5
12
12
12
12
19
22
26
26
27
30
32
31
29
30
31
29
28
26
21
18
21
20
17
19
24
19
15
14
12
9
4
3
3
2
0
-5
-3
-2
-5
-7
-7
-7
-13
-16
-17
-15
-15
-16
-10
-11
-16
-17
-13
-12
-13
-11
-7
-7
-9
-11
-7
-1
-5
-10
-12
-6
-5
-5
-2
1
2
-1
-5
-8
-3
3
3
3
8
17
20
20
15
7
5
12
25
33
34
30
31
39
48
48
43
42
39
33
34
37
40
37
26
12
-1
-12
-17
-15
-12
-10
-9
-12
-19
-21
-17
-14
-16
-10
5
25
54
86
114
127
126
111
91
78
80
99
104
76
19
-33
-51
-50
-53
-63
-61
-54
-45
-38
-29
-20
-15
-8
-6
-5
-13
-17
-12
-9
-9
-11
-15
-22
-24
-27
-31
-32
-27
-19
-18
-21
-22
-22
-22
-24
-22
-25
-21
-16
-17
-19
-20
-17
-16
-12
-6
0
4
-1
-2
5
14
18
17
21
27
33
38
40
44
48
50
50
51
52
50
51
49
47
46
47
47
46
46
44
47
52
53
48
41
40
37
38
38
40
41
38
35
32
35
37
38
36
37
36
35
36
37
35
30
30
31
32
32
32
32
32
33
33
34
35
36
38
36
34
33
35
35
36
36
37
37
35
30
28
28
31
33
31
29
28
29
31
29
23
22
24
26
27
30
27
23
19
20
22
20
18
14
15
19
22
20
15
18
23
27
29
33
35
37
35
29
27
27
37
48
49
44
43
53
61
60
56
58
56
51
44
44
42
39
28
14
3
-5
-12
-16
-21
-19
-16
-15
-15
-13
-15
-19
-24
-24
-22
-10
14
49
81
100
104
89
60
27
2
-5
3
11
-3
-37
-72
-88
-89
-95
-103
-100
-92
-81
-73
-65
-58
-52
-48
-46
-41
-36
-36
-40
-42
-41
-37
-36
-38
-40
-44
-44
-41
-37
-38
-45
-43
-42
-42
-46
-44
-43
-46
-46
-48
-44
-43
-42
-43
-39
-32
-28
-30
-29
-24
-22
-25
-25
-20
-15
-12
-8
-3
3
6
11
12
12
12
15
18
17
15
14
16
17
13
6
3
5
6
9
11
11
5
5
1
-2
-4
0
5
4
4
0
-4
-9
-10
-7
-6
-9
-12
-8
-7
-16
-21
-20
-20
-20
-18
-13
-12
-12
-12
-9
-10
-11
-10
-8
-7
-4
3
9
12
12
11
8
6
13
23
31
31
30
35
43
51
52
46
41
40
38
32
33
39
34
22
9
-2
-8
-12
-12
-12
-12
-9
-11
-16
-21
-17
-13
-15
-18
-10
8
34
64
96
116
116
107
86
66
53
62
78
75
36
-20
-55
-58
-58
-66
-72
-61
-50
-47
-43
-34
-24
-21
-22
-22
-19
-17
-20
-21
-24
-24
-25
-28
-30
-31
-30
-29
-28
-29
-29
-29
-25
-18
-14
-15
-18
-18
-21
-25
-26
-28
-27
-23
-19
-18
-17
-17
-15
-11
-5
-5
-1
6
9
10
20
35
43
47
44
39
36
42
47
47
49
50
50
46
46
46
46
46
45
45
46
48
45
44
41
39
37
40
42
38
36
36
37
35
32
33
35
36
36
39
45
47
43
35
30
32
37
42
44
42
35
30
31
33
39
41
35
34
40
40
32
28
37
40
45
48
48
45
41
39
36
38
36
34
42
51
53
48
49
49
49
46
47
49
53
55
51
51
49
48
52
54
53
48
49
53
62
63
61
56
59
63
68
72
75
75
75
74
71
76
87
92
94
97
103
109
116
117
113
112
113
111
103
101
99
91
82
75
68
59
49
45
49
57
61
61
59
56
52
56
62
77
98
128
162
189
206
192
166
132
105
93
101
119
108
75
38
19
14
6
-5
-7
6
20
26
31
38
44
49
60
66
62
55
59
60
56
54
54
49
46
48
51
52
48
44
42
41
42
42
43
39
38
40
41
39
36
38
34
30
31
38
44
44
43
42
45
47
45
44
47
54
59
60
62
65
66
67
70
75
79
76
71
67
68
72
73
71
64
63
57
54
52
51
47
48
51
47
44
45
46
41
35
36
37
39
39
36
33
32
34
35
32
29
29
32
33
34
33
33
33
33
34
34
33
34
38
41
41
40
39
42
50
54
59
64
63
53
43
47
56
69
72
66
66
77
89
91
88
82
81
78
75
72
72
71
58
43
29
19
10
11
16
15
14
15
18
17
13
11
5
3
6
17
35
60
88
116
132
130
107
75
48
41
55
67
52
9
-26
-36
-31
-32
-42
-47
-38
-32
-29
-22
-12
-7
-8
-8
-4
3
4
3
3
3
-4
-10
-7
1
5
-1
-6
-10
-10
-9
-12
-14
-16
-14
-15
-13
-11
-11
-13
-11
-9
-8
-10
-12
-10
-7
-5
-4
-1
5
8
14
20
23
23
29
35
39
37
38
38
39
41
42
44
43
41
42
41
35
30
31
30
26
24
24
24
23
22
19
15
12
12
14
12
10
8
6
4
2
4
5
6
7
6
7
13
15
15
18
20
17
13
14
19
24
25
22
17
14
18
19
19
17
16
14
15
20
23
24
25
26
23
20
24
33
39
41
39
36
38
40
36
36
40
40
38
39
44
48
46
41
43
47
47
48
55
58
55
51
53
55
56
56
56
58
59
64
72
78
83
79
73
68
73
83
89
94
95
99
106
119
123
122
118
116
118
115
113
105
94
82
78
78
71
66
61
57
51
53
58
62
63
62
61
59
61
74
96
118
147
178
203
212
194
171
145
136
145
167
168
138
92
56
46
39
20
4
10
21
29
35
42
49
54
56
59
60
62
64
64
60
59
58
56
56
54
54
56
58
57
54
51
49
54
54
52
47
46
48
50
51
52
57
59
57
54
57
61
60
64
66
70
72
79
79
76
82
89
94
92
91
94
102
109
113
117
113
109
108
115
116
116
114
113
112
113
117
116
117
117
114
112
114
118
116
113
107
104
107
111
113
108
106
103
102
104
110
113
110
110
106
108
112
116
116
113
113
110
114
117
120
117
119
121
124
124
121
123
126
131
135
138
134
124
122
123
131
133
141
146
149
150
150
149
148
156
162
169
168
168
172
182
189
188
190
185
181
174
169
169
165
161
154
148
140
132
126
124
124
122
123
124
119
115
113
115
116
124
136
157
177
207
237
248
240
204
163
126
113
127
143
140
106
77
56
49
42
34
38
49
57
60
68
76
87
90
96
100
96
91
88
94
95
93
88
84
81
81
85
84
83
81
80
77
71
70
71
71
69
74
76
75
71
70
69
68
67
67
71
74
72
72
76
81
78
80
87
92
91
88
94
102
108
107
106
102
104
104
102
100
96
99
97
96
92
92
94
87
84
81
82
78
75
74
71
70
67
67
66
63
60
62
61
57
59
63
65
62
61
60
60
56
55
57
57
57
55
57
58
59
56
52
53
51
53
54
56
53
50
50
53
54
54
56
55
51
50
51
54
51
51
54
56
58
57
57
51
51
49
48
48
46
48
51
52
46
45
46
48
47
47
48
44
46
50
50
44
43
48
48
49
50
56
64
68
63
55
50
50
57
66
71
71
75
76
80
84
86
83
77
73
69
68
65
62
58
51
42
30
19
9
3
6
12
14
11
8
10
11
7
2
7
22
43
66
103
131
139
132
111
84
56
48
60
77
68
26
-16
-36
-29
-29
-49
-65
-65
-56
-52
-45
-38
-28
-18
-14
-13
-13
-14
-17
-18
-17
-16
-14
-15
-12
-13
-15
-16
-11
-12
-17
-18
-17
-13
-11
-9
-9
-13
-11
-11
-11
-13
-15
-17
-16
-9
-2
-1
-4
-3
1
6
10
14
17
21
22
24
25
28
30
32
38
41
42
43
47
50
49
50
48
49
48
43
38
38
42
39
40
42
43
41
40
39
38
40
41
40
37
37
35
36
33
33
36
36
35
32
30
25
21
23
25
29
31
30
27
27
31
31
28
25
25
28
31
36
39
42
48
55
54
51
48
47
49
59
70
73
73
68
73
80
88
90
89
86
83
84
82
78
73
66
57
46
38
27
24
26
30
31
32
34
29
25
22
21
22
31
54
84
118
149
174
177
170
147
129
120
132
150
145
111
59
28
23
18
0
-16
-15
-4
9
19
24
26
28
29
31
29
26
25
30
31
32
29
27
27
29
26
22
23
26
26
22
22
22
24
23
21
22
27
31
29
26
24
27
31
35
33
33
37
43
51
51
53
56
61
68
72
75
79
85
89
91
93
92
92
91
87
79
82
88
94
92
92
95
98
96
89
84
81
82
84
85
83
84
86
84
85
85
87
89
89
86
79
78
79
83
87
86
83
83
84
83
86
86
84
84
87
90
88
92
92
87
82
78
81
86
88
84
82
84
88
90
92
93
89
88
84
86
86
91
96
97
98
95
96
96
99
102
101
100
97
99
96
96
93
93
91
89
88
85
86
88
91
90
90
91
96
99
103
110
112
114
112
105
102
108
118
123
122
122
129
138
140
138
132
131
128
126
119
110
106
100
96
83
69
54
48
50
56
70
71
67
59
56
60
66
77
93
115
137
169
190
197
178
149
116
82
66
70
82
66
28
2
-2
3
-5
-18
-19
-10
0
7
17
27
31
30
30
33
36
39
39
40
42
41
41
43
46
49
46
43
40
36
39
43
44
38
36
35
36
38
40
41
40
37
33
31
30
32
36
40
48
49
51
51
48
49
50
57
62
70
73
74
77
75
72
71
78
79
78
70
64
60
60
65
64
63
61
62
61
58
59
59
60
56
52
46
45
45
46
46
46
46
46
47
45
43
39
39
42
41
39
38
37
37
40
44
46
42
43
47
49
48
46
46
50
53
58
56
51
47
48
56
63
69
70
73
71
70
70
75
86
88
89
82
83
90
99
107
103
99
94
96
95
97
96
91
80
67
58
49
43
38
38
41
40
37
39
43
42
38
34
33
33
43
68
100
134
157
161
140
110
80
59
57
68
69
43
2
-25
-31
-28
-32
-41
-40
-29
-21
-18
-10
1
12
16
18
19
20
20
17
19
17
18
15
14
16
19
18
16
19
15
12
10
12
12
10
13
8
7
4
4
6
6
8
6
6
5
6
10
15
22
27
29
32
35
34
37
43
49
51
55
59
62
59
56
56
56
58
56
52
49
49
51
49
45
40
39
38
36
32
29
33
36
35
32
30
29
28
30
27
24
19
19
20
21
23
22
24
23
23
18
12
11
15
21
20
21
18
15
11
11
13
17
21
22
22
22
24
27
25
25
24
24
23
24
29
32
29
23
24
28
24
21
24
28
34
37
39
38
36
34
35
37
36
35
34
32
34
35
37
35
35
38
41
44
48
52
51
54
62
63
56
45
51
65
84
94
96
97
99
109
108
110
106
108
106
99
92
91
89
81
75
68
64
58
54
52
51
55
60
62
56
52
53
56
63
76
100
133
172
200
213
210
198
174
150
141
156
178
161
113
59
33
28
20
3
-9
1
16
25
30
39
45
46
55
56
50
44
45
48
46
44
43
45
42
40
39
35
31
30
31
33
34
32
29
24
18
19
19
22
25
24
24
19
16
15
20
26
31
30
26
23
24
30
35
41
46
55
60
58
57
58
59
56
61
68
74
74
72
73
69
68
68
69
66
66
68
67
63
60
62
62
61
58
56
53
54
56
56
57
59
57
53
52
52
51
56
55
54
56
60
56
48
45
44
45
46
53
60
60
58
51
50
51
53
56
60
63
62
62
60
59
59
62
68
79
84
79
75
73
79
86
96
96
94
92
96
103
106
110
111
110
105
101
96
92
89
76
63
53
48
42
39
40
42
42
39
38
40
40
37
32
38
48
69
99
132
158
170
160
124
80
46
35
43
56
49
15
-25
-46
-49
-48
-54
-51
-36
-23
-18
-12
-5
0
4
7
10
6
8
9
9
6
2
1
-2
-2
-3
-3
-3
-6
-8
-7
-7
-10
-13
-13
-15
-15
-15
-14
-12
-13
-14
-14
-13
-14
-15
-16
-15
-13
-9
-6
-3
1
2
4
7
12
12
14
16
18
19
18
19
17
16
17
17
10
9
11
9
4
0
-1
-4
-4
-6
-11
-16
-20
-21
-21
-20
-21
-22
-22
-24
-26
-28
-28
-30
-29
-27
-28
-26
-27
-25
-28
-25
-26
-28
-30
-30
-28
-30
-33
-38
-37
-33
-32
-33
-36
-36
-37
-38
-38
-39
-40
-40
-35
-32
-33
-34
-36
-39
-40
-39
-35
-35
-37
-38
-37
-37
-37
-36
-35
-39
-40
-37
-31
-31
-34
-36
-39
-38
-38
-35
-33
-33
-33
-32
-33
-36
-32
-29
-28
-28
-26
-24
-18
-15
-17
-19
-23
-23
-17
-7
-1
-4
-4
1
12
15
15
11
8
3
0
0
0
-4
-13
-26
-36
-43
-46
-50
-50
-52
-52
-52
-52
-50
-51
-54
-59
-61
-57
-47
-24
10
43
71
83
73
47
14
-11
-15
1
14
-6
-49
-82
-83
-76
-89
-112
-122
-115
-109
-102
-93
-81
-77
-74
-67
-64
-62
-62
-58
-60
-61
-63
-63
-61
-64
-65
-63
-61
-60
-59
-56
-60
-63
-64
-63
-65
-65
-64
-64
-66
-67
-63
-63
-61
-57
-52
-50
-51
-47
-44
-40
-40
-36
-32
-30
-26
-22
-17
-12
-8
-4
-2
2
4
4
7
8
5
3
7
11
8
7
9
8
7
9
11
11
10
8
8
9
10
11
11
14
14
15
15
12
12
11
12
9
10
10
9
8
8
9
9
9
10
11
12
11
9
12
13
15
19
24
32
39
46
48
46
42
43
50
60
66
68
68
68
75
83
84
81
81
80
79
77
75
74
71
59
46
35
29
25
22
23
25
29
28
28
29
28
22
20
22
24
38
58
90
122
153
167
162
142
110
90
86
102
110
85
36
-7
-15
-8
-16
-32
-36
-24
-20
-12
-3
5
11
15
23
27
26
22
21
20
18
17
20
23
23
22
22
21
18
19
22
25
22
19
19
22
22
20
20
20
18
20
24
26
27
30
34
36
35
36
42
46
49
49
55
62
67
70
74
79
79
84
84
87
84
85
84
85
83
77
76
72
72
72
70
68
63
64
61
62
61
62
61
58
55
54
53
52
50
51
50
52
53
53
55
53
53
55
53
52
48
48
48
51
52
51
53
55
55
53
54
55
51
48
46
46
48
46
44
44
46
44
45
45
45
45
45
48
48
46
44
44
43
42
44
42
44
45
46
46
46
46
44
45
44
46
46
47
42
42
45
46
49
48
48
50
57
61
59
58
55
53
58
68
73
76
78
82
89
98
102
96
92
89
90
84
79
73
68
61
49
39
29
20
16
19
24
23
22
22
24
26
25
25
25
36
58
92
126
157
176
174
159
133
116
112
126
139
125
85
37
13
5
-10
-35
-49
-40
-29
-21
-13
-8
-3
0
4
7
8
7
5
1
2
5
7
6
4
5
3
0
1
1
-1
-4
-3
-3
-6
-6
-4
-4
-6
-7
-5
1
3
-1
-1
-3
-3
-1
2
6
9
11
14
12
16
21
23
26
32
42
45
48
49
52
53
53
53
57
60
56
54
51
46
47
52
57
52
51
52
54
47
40
40
38
36
37
39
39
40
40
37
35
38
38
31
26
26
32
38
40
36
32
28
27
31
35
35
30
26
28
32
35
34
31
31
34
39
40
36
32
30
31
34
39
47
60
65
63
55
48
47
58
67
68
72
80
91
94
93
87
82
82
80
77
72
72
67
58
50
44
36
20
15
17
20
18
18
24
26
24
22
23
30
44
68
99
134
166
178
164
136
96
67
57
71
78
62
31
-2
-22
-32
-43
-52
-48
-33
-19
-6
4
11
15
20
24
23
23
27
27
27
24
23
24
26
30
32
28
23
19
16
14
13
18
18
19
16
15
19
23
24
20
20
22
23
20
19
22
29
36
37
44
47
51
51
51
54
56
62
65
68
69
71
74
76
78
80
82
79
79
80
80
73
71
68
65
65
65
66
65
66
64
60
55
53
55
58
59
59
57
58
60
63
63
63
61
59
56
54
56
61
63
58
56
58
55
51
51
57
56
52
47
45
47
52
59
56
53
53
57
54
50
52
56
58
55
55
52
51
51
56
58
58
56
55
58
58
55
53
54
56
55
55
52
57
60
62
61
58
55
54
56
56
56
54
55
59
64
69
72
69
62
59
62
72
83
88
89
84
88
95
102
105
103
100
94
92
89
87
79
64
50
46
43
33
27
26
28
30
32
32
24
22
22
23
29
44
69
98
130
154
164
151
125
82
49
42
59
73
58
23
-10
-25
-27
-39
-51
-53
-45
-36
-30
-21
-13
-7
-2
3
5
5
6
5
7
4
4
3
-1
-3
-1
1
1
-1
-2
-3
-5
-8
-13
-13
-11
-9
-10
-9
-7
-10
-13
-14
-16
-13
-9
-7
-6
-4
-3
0
3
6
9
12
15
16
17
18
20
24
27
31
31
36
36
37
34
32
30
31
29
24
21
21
21
20
19
18
15
14
14
12
8
6
6
8
7
4
1
-1
-1
-3
-6
-5
-5
-5
-6
-7
-8
-9
-11
-12
-9
-7
-6
-7
-9
-11
-10
-9
-10
-10
-9
-7
-9
-8
-7
-6
-2
2
9
14
18
15
12
8
7
15
26
34
31
28
31
39
44
46
45
39
36
37
39
39
36
29
19
8
-1
-10
-18
-22
-21
-19
-13
-9
-9
-9
-11
-14
-16
-16
-4
18
49
88
122
133
118
91
59
39
35
44
52
27
-20
-57
-66
-60
-67
-77
-76
-69
-61
-53
-43
-34
-29
-25
-21
-21
-21
-21
-22
-22
-21
-18
-20
-20
-21
-21
-21
-21
-20
-19
-17
-20
-20
-20
-18
-18
-19
-18
-19
-19
-21
-23
-20
-16
-11
-11
-11
-10
-8
-4
0
5
6
10
15
18
22
24
28
31
29
29
30
30
29
29
31
31
30
26
24
24
20
18
16
17
16
14
13
11
8
8
7
6
5
4
6
7
6
6
4
4
3
3
4
7
8
5
6
6
6
4
6
9
6
1
1
4
5
6
7
5
4
3
7
7
7
7
9
9
7
7
7
8
10
10
14
14
15
16
16
13
12
14
15
18
18
15
14
13
13
15
16
15
14
14
14
13
19
19
18
16
19
25
24
26
32
39
37
33
30
32
40
50
57
56
55
60
71
78
74
74
72
72
66
64
64
64
53
39
30
22
14
6
5
3
3
4
5
9
11
12
12
15
22
35
62
97
132
155
164
154
131
107
96
104
126
133
104
54
12
-4
-12
-29
-50
-54
-47
-39
-33
-25
-15
-9
-8
-4
-2
-4
-8
-9
-9
-8
-7
-8
-8
-8
-9
-8
-8
-8
-8
-7
-8
-10
-12
-17
-18
-21
-19
-18
-13
-11
-13
-13
-10
-7
-8
-10
-10
-7
0
7
11
13
13
15
21
27
31
35
39
40
41
42
46
52
58
61
62
61
58
55
52
49
50
51
49
48
47
48
48
48
47
45
43
41
41
43
41
38
37
36
35
35
37
38
37
37
33
35
35
35
35
35
34
32
31
32
36
36
36
38
38
40
40
41
40
42
43
46
47
49
54
59
64
66
68
67
62
62
71
80
84
88
90
98
103
106
101
99
100
99
97
88
83
83
80
66
55
52
45
40
38
39
42
45
44
44
47
46
45
49
60
74
98
131
160
183
183
164
131
96
78
75
89
84
59
26
0
-9
-14
-23
-31
-28
-18
-13
-7
1
16
26
31
28
26
22
20
20
22
24
22
19
20
21
18
13
11
11
11
10
9
7
5
4
8
10
9
5
4
3
4
8
9
8
8
8
13
14
17
19
23
31
33
35
33
38
43
49
52
53
51
54
57
59
60
60
56
52
47
48
50
52
49
45
41
42
46
47
46
41
38
36
38
43
49
53
51
47
41
43
47
52
53
52
51
50
50
47
49
54
57
55
54
53
53
54
58
59
57
52
51
50
51
54
56
57
57
56
57
55
55
60
63
64
62
61
60
59
62
61
64
64
65
66
67
69
67
68
69
69
69
71
75
75
79
79
79
75
74
76
80
83
86
94
98
100
95
94
93
100
112
119
120
117
123
128
135
132
132
135
135
131
126
125
121
112
98
88
83
76
72
72
74
72
71
72
74
75
72
69
73
88
113
145
177
201
211
196
166
127
96
77
80
100
98
76
47
28
22
16
7
0
7
15
22
31
42
47
49
56
58
61
62
62
56
54
54
53
56
58
57
55
54
53
50
51
52
51
49
48
47
47
46
48
46
43
42
46
51
49
48
48
51
52
53
58
63
66
70
74
78
82
88
90
92
94
97
102
104
104
104
106
106
105
104
103
102
100
102
96
97
95
93
92
92
96
95
94
91
92
90
86
84
81
83
81
83
79
79
79
81
82
80
78
76
75
73
76
79
76
74
74
77
78
79
80
81
79
78
77
80
84
88
93
98
102
101
96
91
92
103
111
115
114
113
114
118
126
126
123
120
118
118
115
113
113
108
96
82
74
67
59
56
58
58
59
57
58
59
56
54
48
52
61
83
113
150
181
195
192
167
139
108
98
104
122
115
75
31
7
6
5
-8
-14
-12
-4
2
10
24
33
39
42
42
41
38
37
38
38
37
33
33
34
33
31
29
30
28
26
24
24
23
22
24
23
21
20
20
18
17
23
22
23
24
27
29
31
34
36
43
47
53
57
60
61
66
70
71
72
74
77
78
79
79
78
78
75
74
70
68
64
61
61
60
60
56
52
50
48
51
53
53
53
51
49
48
48
48
47
45
44
46
46
47
45
40
39
40
43
42
42
40
38
37
36
35
34
35
36
34
32
31
31
30
28
30
30
31
29
28
28
25
26
28
30
28
26
24
22
18
17
19
18
19
19
19
16
16
19
16
15
12
13
15
17
16
14
13
13
15
17
20
22
25
29
29
28
27
25
28
35
42
44
41
40
45
55
61
60
56
52
51
48
45
41
37
28
15
5
-2
-10
-18
-19
-17
-16
-12
-10
-10
-13
-15
-12
-11
-1
16
44
78
112
132
132
121
94
75
69
83
101
101
62
8
-21
-28
-43
-66
-79
-74
-65
-54
-43
-39
-36
-35
-30
-29
-30
-35
-35
-30
-26
-26
-27
-30
-31
-32
-31
-34
-38
-37
-36
-36
-36
-37
-38
-38
-40
-43
-42
-40
-41
-41
-41
-40
-39
-38
-34
-32
-30
-28
-26
-22
-20
-17
-10
-2
3
4
4
7
12
18
18
17
22
28
33
29
27
26
30
29
28
26
23
23
22
22
23
23
22
19
19
19
19
19
19
18
19
20
17
14
14
14
15
16
14
9
4
5
11
15
13
8
6
8
12
14
14
10
7
6
7
10
14
14
16
19
26
28
34
39
39
36
33
37
46
56
54
48
48
59
73
80
80
72
66
62
61
56
59
61
50
41
31
21
11
6
10
15
15
14
14
14
14
12
15
21
30
53
88
127
158
180
177
156
118
86
69
73
85
82
55
15
-11
-19
-25
-38
-42
-31
-17
-8
0
8
15
20
25
28
28
28
26
22
20
24
24
29
31
30
25
21
24
24
23
18
12
12
18
24
22
17
16
16
18
19
19
18
19
20
28
33
39
38
37
37
40
44
46
50
56
63
64
65
67
69
73
71
68
67
70
71
72
70
69
68
67
66
62
58
59
62
62
62
58
51
48
50
54
54
50
48
47
44
45
49
53
54
53
49
49
49
52
53
52
52
51
55
54
54
48
48
50
52
49
46
44
43
45
49
49
47
49
51
51
51
50
51
48
46
47
50
52
53
55
54
53
49
49
51
48
48
50
56
55
54
52
51
53
54
52
51
53
56
56
56
58
58
61
69
75
77
72
65
63
63
72
84
91
91
92
94
99
101
102
104
103
105
101
97
92
86
82
65
58
52
48
44
41
41
39
42
39
40
40
40
37
36
44
62
86
112
144
166
175
160
126
87
57
54
72
86
68
31
-4
-18
-18
-28
-42
-44
-38
-31
-21
-11
-2
7
11
10
8
8
11
9
7
5
6
5
2
2
0
-2
-3
-3
-4
-7
-8
-9
-8
-8
-9
-11
-15
-16
-17
-15
-16
-16
-18
-17
-17
-14
-13
-12
-10
-8
-1
1
3
4
6
10
14
18
20
23
24
24
25
24
24
27
28
28
25
22
17
12
7
5
8
9
7
3
0
-2
0
0
-4
-5
-4
-6
-8
-9
-11
-13
-16
-18
-22
-27
-28
-26
-28
-32
-32
-32
-31
-30
-25
-27
-29
-31
-34
-33
-32
-33
-32
-31
-30
-30
-26
-24
-17
-7
-2
-5
-7
-8
-8
-5
6
13
10
9
11
20
26
28
27
25
25
23
23
20
20
16
8
-2
-12
-23
-32
-36
-36
-31
-26
-26
-26
-24
-26
-30
-32
-32
-21
2
33
66
96
114
115
100
78
71
84
111
122
89
31
-13
-22
-20
-37
-65
-84
-86
-83
-77
-65
-57
-50
-48
-46
-49
-49
-49
-52
-52
-52
-55
-58
-55
-54
-55
-55
-57
-55
-55
-57
-63
-65
-65
-67
-67
-70
-65
-64
-66
-70
-67
-64
-62
-58
-58
-57
-57
-54
-49
-45
-40
-39
-34
-27
-21
-18
-17
-13
-8
-7
-4
0
2
0
0
-4
-7
-8
-6
-5
-6
-5
-7
-8
-9
-12
-13
-11
-12
-14
-16
-17
-22
-21
-18
-17
-17
-21
-19
-20
-20
-22
-24
-22
-22
-18
-17
-20
-22
-21
-18
-16
-14
-14
-12
-11
-13
-16
-14
-14
-16
-16
-16
-13
-13
-12
-13
-15
-14
-10
-8
-5
-5
-6
-6
-2
4
5
1
0
0
3
6
8
7
7
11
12
14
15
17
15
15
16
19
18
18
20
25
28
29
31
35
39
42
43
43
37
39
48
60
65
66
71
75
86
91
93
87
86
86
85
83
80
81
73
62
53
48
40
34
32
35
40
41
42
42
42
38
36
41
54
76
104
140
172
190
188
175
160
156
178
206
212
164
98
53
42
40
20
-2
-10
-10
-6
7
19
23
24
27
33
35
30
29
27
29
30
29
27
26
26
23
24
24
27
25
22
21
21
20
19
23
23
19
19
22
25
24
24
22
23
22
24
27
32
37
39
41
45
47
49
53
60
65
70
75
76
79
81
80
82
84
86
87
88
90
87
88
87
85
85
83
80
78
79
78
78
75
72
68
67
72
72
68
64
62
61
59
61
61
62
58
57
55
55
56
56
56
54
55
54
55
55
56
57
60
62
63
62
56
55
56
57
64
68
72
74
81
81
79
75
73
75
86
99
106
107
108
114
119
122
122
122
123
122
119
115
114
111
102
93
86
82
75
70
67
67
68
68
68
66
67
70
70
72
84
106
128
163
195
221
224
212
194
171
163
167
189
182
141
95
63
54
41
19
6
9
17
24
32
41
44
47
49
49
46
42
38
39
34
32
34
38
37
36
33
31
29
29
28
27
27
26
28
31
31
31
30
26
23
24
25
24
26
30
34
34
38
40
45
49
52
56
56
57
63
69
72
73
74
76
82
81
78
74
76
79
83
86
78
73
71
71
68
67
70
64
63
62
63
61
61
59
57
55
54
54
54
51
50
53
57
56
56
57
58
54
52
50
54
55
55
52
49
45
43
48
53
53
52
51
50
48
52
54
57
55
50
49
49
52
51
50
50
50
48
49
55
57
57
60
58
52
50
52
57
63
62
64
62
60
60
63
65
63
65
62
62
64
70
78
81
83
82
80
74
75
82
92
96
96
98
104
112
115
116
113
114
110
103
96
95
95
81
68
61
58
48
41
43
45
45
44
43
44
42
41
40
44
54
78
109
141
168
176
172
146
114
89
85
100
116
108
67
24
2
-3
-16
-38
-46
-39
-30
-24
-19
-12
-5
-2
0
2
0
-2
-3
1
6
3
-2
-6
-6
-8
-8
-8
-10
-9
-12
-13
-14
-14
-13
-13
-13
-15
-13
-16
-16
-16
-14
-10
-9
-8
-8
-5
-2
0
1
4
8
11
13
15
19
29
41
43
39
35
39
44
50
52
47
44
46
56
60
54
51
46
41
37
47
57
59
57
52
51
49
51
46
40
41
44
42
39
43
45
43
38
36
36
38
40
38
35
30
28
25
25
28
32
31
28
26
26
30
29
29
31
32
31
29
25
23
25
30
31
36
40
39
33
29
29
39
54
56
48
48
60
66
67
63
63
61
55
50
46
46
43
36
24
15
8
2
3
-4
-11
-12
-8
-6
-7
-5
-9
-12
-12
0
21
49
77
104
118
115
102
84
80
96
123
123
82
24
-9
-14
-24
-50
-73
-79
-77
-72
-64
-55
-50
-50
-52
-52
-54
-52
-51
-53
-53
-52
-57
-61
-63
-63
-61
-62
-66
-68
-70
-69
-67
-68
-70
-73
-75
-77
-73
-73
-72
-72
-69
-69
-71
-70
-71
-69
-66
-60
-57
-53
-49
-44
-44
-44
-41
-38
-31
-27
-22
-18
-16
-15
-14
-11
-14
-19
-19
-20
-23
-28
-28
-30
-30
-33
-34
-35
-38
-39
-37
-36
-37
-42
-47
-50
-48
-44
-42
-48
-49
-47
-46
-50
-53
-53
-53
-53
-54
-55
-51
-46
-45
-43
-44
-50
-52
-50
-48
-49
-48
-47
-49
-48
-47
-45
-48
-46
-48
-48
-47
-50
-50
-50
-50
-52
-51
-49
-47
-47
-49
-48
-50
-49
-48
-44
-42
-43
-44
-45
-43
-45
-45
-46
-49
-49
-49
-48
-50
-48
-45
-42
-44
-45
-40
-34
-29
-35
-44
-46
-41
-31
-24
-22
-24
-23
-15
-5
-1
-5
-9
-8
-7
-8
-8
-12
-20
-29
-36
-42
-52
-61
-67
-69
-65
-59
-58
-60
-60
-63
-67
-74
-71
-58
-30
4
34
60
79
85
76
61
50
61
88
118
103
44
-15
-51
-60
-74
-97
-110
-109
-101
-96
-88
-81
-77
-74
-72
-65
-61
-59
-64
-66
-66
-64
-57
-57
-57
-59
-57
-57
-57
-55
-53
-50
-53
-54
-51
-49
-49
-49
-49
-48
-47
-46
-42
-42
-42
-43
-39
-35
-32
-28
-21
-14
-9
-8
-7
-3
7
16
22
26
33
34
36
36
40
42
47
52
53
49
46
48
49
50
48
48
48
50
51
47
44
39
39
39
40
40
36
35
38
38
35
34
35
36
40
41
40
36
32
33
33
36
38
39
37
42
47
46
39
37
40
43
48
50
53
56
56
57
58
62
61
64
64
67
72
79
83
82
83
81
81
83
95
104
108
110
110
121
126
127
120
118
118
119
121
121
120
112
105
94
87
78
70
66
63
64
68
76
81
83
80
77
72
74
89
114
143
176
209
231
233
226
209
200
204
227
233
198
144
102
86
80
64
41
33
40
48
58
67
74
77
80
82
78
78
80
87
85
79
75
76
76
74
75
70
68
69
72
71
73
79
77
75
69
70
71
74
77
80
84
78
75
78
88
92
93
95
97
99
100
102
105
115
117
123
123
123
124
128
135
136
137
136
137
134
133
139
139
135
128
124
125
126
128
123
121
119
117
116
117
115
113
115
114
115
112
109
107
109
112
109
111
112
119
120
116
109
103
106
111
116
112
111
107
106
103
102
104
103
104
99
103
104
105
105
104
104
103
105
110
115
115
115
115
110
107
106
108
106
104
103
104
104
104
105
106
107
108
109
109
109
109
107
107
106
104
103
104
112
116
121
119
118
117
115
115
120
134
140
141
139
144
153
157
154
147
148
143
141
136
136
135
123
111
99
92
80
74
76
78
81
78
79
77
78
73
72
72
81
106
138
171
195
210
199
176
143
117
110
124
146
138
100
59
40
36
28
9
2
8
12
14
24
33
38
42
46
46
44
43
41
40
37
39
38
35
31
30
33
33
31
27
25
19
19
20
19
18
17
18
16
16
14
14
14
12
15
16
18
20
19
21
23
24
25
28
31
33
35
42
45
47
47
50
50
51
51
51
53
53
51
50
48
45
40
40
40
39
39
35
30
25
22
22
24
23
19
18
18
16
15
13
10
7
7
5
3
1
4
1
-1
-2
2
3
2
2
-1
0
-1
-2
-3
-2
-2
1
8
11
9
9
12
16
18
22
25
28
25
22
21
24
33
43
47
45
44
51
62
66
60
54
50
50
49
48
48
48
41
28
18
14
6
-4
-6
-7
-8
-10
-9
-5
-4
-7
-12
-17
-16
-1
22
50
81
112
127
117
93
58
26
13
19
42
44
14
-27
-47
-46
-51
-63
-71
-64
-56
-51
-44
-40
-32
-26
-17
-15
-16
-20
-21
-17
-15
-15
-19
-21
-20
-19
-17
-18
-21
-28
-28
-23
-23
-23
-25
-25
-25
-22
-19
-20
-21
-24
-26
-25
-19
-14
-8
-1
1
3
7
12
15
20
24
25
27
32
36
40
42
44
46
47
49
50
48
44
41
44
44
40
37
40
38
35
32
34
35
34
34
30
27
23
23
23
24
27
27
28
25
24
23
24
24
27
30
28
26
25
24
26
27
29
28
27
26
26
27
30
29
28
29
30
26
25
25
29
29
28
28
30
32
32
33
34
33
34
37
38
38
38
42
42
43
40
40
39
41
46
45
43
41
41
42
40
42
44
48
46
48
48
51
53
57
64
69
71
69
69
64
60
66
80
92
91
90
88
98
106
109
108
107
108
105
103
100
101
94
80
70
64
57
50
49
48
49
49
50
50
49
47
45
50
62
79
103
132
165
188
194
181
154
124
104
109
130
141
111
63
25
16
16
3
-12
-16
-11
-5
3
13
21
27
31
37
36
37
37
38
37
37
39
38
39
42
43
40
38
38
35
34
31
30
30
32
34
32
31
29
31
33
34
32
32
36
40
40
42
43
44
47
51
54
54
55
58
63
69
73
74
76
80
84
85
86
83
81
79
79
80
81
83
83
81
76
79
79
77
75
72
72
68
67
67
66
66
66
64
59
59
56
56
56
56
52
50
50
49
51
51
51
49
49
52
49
50
52
54
52
51
52
53
54
56
59
60
66
72
76
75
71
69
73
82
90
92
89
90
94
103
107
105
101
95
97
98
95
92
88
76
59
50
48
42
36
33
34
33
35
34
32
30
30
28
25
28
44
72
107
142
163
172
167
139
114
96
103
115
112
72
17
-15
-19
-17
-31
-47
-47
-43
-36
-31
-20
-10
-4
-2
-2
-1
-4
-7
-10
-12
-10
-10
-10
-13
-13
-16
-20
-19
-19
-21
-24
-24
-26
-30
-30
-32
-35
-40
-40
-36
-31
-28
-28
-30
-29
-31
-28
-28
-30
-27
-23
-16
-12
-6
-5
-7
-4
0
4
6
8
10
12
12
9
7
5
5
0
1
-1
-4
-7
-5
-5
-7
-8
-9
-10
-13
-16
-18
-19
-19
-22
-25
-29
-28
-26
-27
-26
-28
-28
-29
-30
-32
-33
-35
-36
-36
-36
-36
-36
-38
-36
-38
-39
-41
-44
-45
-46
-43
-41
-41
-45
-47
-48
-47
-45
-41
-39
-42
-45
-46
-45
-45
-42
-43
-42
-42
-46
-48
-51
-51
-49
-44
-41
-42
-41
-39
-37
-39
-40
-46
-49
-49
-48
-46
-45
-40
-37
-31
-25
-25
-21
-19
-21
-25
-25
-20
-8
-4
-5
-4
6
18
22
18
16
15
16
11
2
-6
-10
-17
-28
-37
-43
-51
-55
-52
-50
-52
-55
-55
-52
-51
-54
-57
-55
-44
-27
-4
30
65
98
106
92
62
30
14
11
24
34
17
-25
-68
-90
-97
-108
-126
-130
-113
-100
-92
-90
-84
-80
-77
-73
-74
-71
-74
-77
-78
-79
-80
-82
-80
-80
-80
-83
-84
-83
-83
-84
-86
-83
-83
-84
-84
-84
-85
-87
-85
-84
-78
-77
-78
-82
-82
-79
-74
-71
-71
-70
-68
-64
-61
-58
-53
-48
-44
-43
-40
-37
-33
-29
-27
-26
-25
-20
-16
-14
-16
-13
-16
-18
-16
-14
-17
-22
-23
-26
-27
-29
-30
-29
-32
-35
-40
-34
-29
-29
-31
-33
-33
-35
-33
-32
-31
-31
-33
-29
-28
-27
-31
-33
-34
-35
-34
-32
-29
-28
-28
-29
-29
-32
-32
-30
-26
-22
-20
-14
-8
-4
-4
-7
-10
-8
1
9
12
11
15
18
29
37
35
31
27
25
24
25
22
19
15
4
-7
-12
-15
-23
-29
-30
-27
-25
-23
-20
-21
-21
-24
-28
-24
-12
10
38
72
106
129
124
103
67
36
22
27
44
43
15
-24
-48
-52
-59
-73
-82
-79
-71
-65
-58
-49
-39
-34
-31
-29
-26
-23
-23
-26
-31
-31
-31
-34
-33
-31
-29
-27
-24
-23
-25
-24
-20
-21
-21
-20
-20
-18
-19
-20
-20
-17
-16
-15
-11
-10
-9
-8
-3
1
5
7
7
9
14
20
20
23
27
32
36
41
44
44
46
44
44
45
45
44
44
42
42
42
43
44
44
44
44
43
43
43
42
41
41
41
41
39
38
38
40
43
43
40
40
38
35
33
37
42
43
39
40
43
47
48
48
50
48
48
46
46
48
48
50
48
50
50
52
54
55
52
51
52
53
56
56
58
60
63
64
61
62
63
64
65
68
70
69
69
69
70
72
75
75
77
78
79
80
83
83
84
87
88
91
92
92
96
104
113
111
106
102
100
105
118
130
132
130
130
137
146
145
143
142
145
140
139
138
139
135
125
115
102
94
86
85
86
87
88
88
92
90
86
83
85
91
102
126
156
190
215
231
221
202
173
145
137
150
167
150
110
72
57
58
52
37
29
35
44
52
63
74
80
84
89
90
94
94
94
96
98
97
98
99
99
99
98
97
96
96
98
96
94
96
99
97
96
96
95
96
95
97
100
102
102
103
108
107
111
112
119
122
123
129
132
138
138
144
145
151
154
156
160
158
161
159
161
156
156
156
156
156
152
153
150
152
151
151
149
147
146
143
145
142
141
141
140
137
134
133
128
125
124
128
127
123
122
122
124
123
123
120
120
119
117
119
117
119
119
124
130
135
142
140
136
131
135
144
154
158
153
150
151
160
165
169
165
164
165
160
158
154
157
149
138
127
114
106
99
97
94
97
99
101
101
97
98
99
100
100
107
124
154
187
221
248
254
247
220
199
190
202
223
217
172
116
89
85
78
56
43
47
53
56
57
64
71
77
81
86
89
86
84
83
84
85
85
88
83
80
80
82
81
76
72
72
76
75
76
73
74
71
72
72
73
78
77
80
81
88
92
90
92
92
96
97
101
103
108
113
117
119
119
119
119
125
128
131
130
128
127
126
128
125
121
118
118
116
115
115
113
111
108
106
105
105
104
101
99
99
101
99
96
96
95
95
91
90
90
89
91
89
91
87
85
81
83
82
78
77
74
76
75
76
74
72
71
75
80
82
78
71
71
72
72
69
65
66
65
64
62
65
66
66
66
65
64
60
61
63
64
62
61
62
62
63
62
60
57
56
60
63
62
60
57
54
57
64
66
64
68
78
79
72
61
57
60
68
82
90
90
86
89
96
103
107
108
110
102
99
91
84
77
69
63
53
49
41
36
35
37
38
37
35
31
30
30
30
29
32
44
70
108
145
173
175
164
129
93
64
54
62
72
66
39
7
-15
-24
-36
-48
-50
-41
-35
-28
-20
-13
-10
-4
4
7
1
-8
-9
-4
2
1
-2
-7
-8
-8
-13
-16
-16
-13
-11
-13
-18
-24
-26
-25
-24
-26
-29
-29
-26
-23
-22
-22
-23
-20
-19
-16
-15
-14
-10
-8
-6
-4
0
3
6
7
8
11
14
16
20
26
28
27
26
26
26
25
22
21
19
19
21
19
16
15
14
12
12
10
7
3
0
-1
-1
1
2
3
3
0
-2
-1
-2
-3
-4
-1
0
-4
-6
-6
-4
-6
-6
-4
-1
2
2
2
3
4
4
7
10
12
19
29
34
31
25
21
31
43
52
51
50
53
59
69
70
68
63
63
63
59
57
58
56
42
28
20
13
3
-4
-5
-4
-4
1
5
7
1
-3
-2
1
10
32
63
98
132
151
150
131
95
59
40
42
60
66
43
2
-24
-30
-34
-52
-61
-56
-48
-45
-39
-30
-19
-16
-16
-12
-9
-11
-12
-13
-13
-13
-11
-10
-12
-15
-16
-16
-16
-18
-20
-19
-19
-19
-22
-24
-24
-23
-22
-18
-17
-21
-21
-21
-20
-20
-19
-16
-15
-13
-12
-10
-6
-2
4
8
13
15
17
20
22
24
26
28
31
33
32
30
29
29
28
28
24
19
16
17
15
12
9
7
7
7
9
10
6
6
4
4
2
-1
-2
-4
-2
-2
1
2
1
1
3
3
5
10
10
6
1
1
1
3
6
6
6
5
4
8
12
13
11
12
12
10
10
12
15
14
12
13
14
15
14
16
20
24
23
23
25
26
24
24
25
26
26
28
30
30
30
28
29
29
31
35
39
40
41
43
45
48
52
56
62
67
74
71
69
63
71
87
98
101
98
100
103
111
114
115
111
107
107
103
100
97
99
95
85
72
63
57
51
49
49
51
50
46
48
48
49
45
47
53
64
85
115
147
173
185
178
161
130
106
98
110
120
105
64
23
7
9
3
-15
-22
-17
-13
-8
0
11
21
27
30
30
31
29
24
24
27
29
30
34
31
31
28
29
28
26
26
22
22
18
15
14
20
23
16
16
16
19
19
19
18
18
20
21
25
28
29
33
39
42
41
42
47
51
54
57
57
60
63
69
73
75
74
70
70
68
66
64
64
66
65
64
63
61
58
56
56
56
58
55
53
53
52
55
53
51
47
47
46
47
44
43
44
42
39
34
35
32
31
30
27
25
20
24
25
26
23
22
27
27
30
32
35
33
35
38
44
50
54
53
50
45
48
58
68
73
71
69
71
79
88
90
89
81
80
78
76
77
72
65
55
47
38
30
22
18
22
24
25
25
24
24
22
21
21
27
39
62
94
128
163
174
173
150
124
103
101
115
124
107
60
24
9
6
-6
-28
-36
-31
-23
-15
-7
-1
1
3
3
9
13
15
14
14
15
11
6
3
4
5
4
4
3
3
2
-3
-9
-11
-6
0
4
4
0
-4
-3
3
6
5
4
2
2
6
10
15
19
23
24
27
34
42
48
51
54
51
53
54
57
63
67
71
67
65
65
67
65
63
60
57
58
56
58
56
53
48
48
52
51
47
44
48
52
52
48
47
48
47
49
52
52
48
48
50
51
50
49
52
49
47
48
52
52
50
46
47
48
48
51
52
52
50
54
54
49
45
48
52
55
55
53
48
48
52
56
59
58
56
55
55
52
52
49
50
52
55
59
56
57
57
58
56
55
58
57
60
62
68
70
74
77
82
81
75
72
74
84
95
103
104
102
107
117
122
117
116
113
114
110
106
102
97
87
71
61
56
55
57
60
58
53
52
56
57
57
57
60
67
82
105
138
171
190
192
175
143
109
91
92
108
113
90
56
28
16
7
-8
-16
-9
3
11
20
30
39
42
44
46
51
56
49
47
46
45
43
45
48
46
44
41
40
40
41
41
39
39
39
41
41
40
38
39
38
40
41
43
45
46
49
51
55
56
58
61
64
68
70
74
76
79
82
83
86
87
92
93
95
96
96
95
96
97
92
92
93
94
95
94
93
90
88
84
85
86
86
84
82
83
82
84
82
82
82
80
79
72
74
76
79
77
76
76
75
74
72
72
72
74
73
72
74
73
71
69
70
71
73
74
76
77
78
81
88
97
98
97
90
87
88
95
103
109
110
106
108
116
121
122
120
120
114
114
113
112
112
104
92
76
68
62
57
56
54
57
55
57
53
51
48
46
44
47
58
77
105
132
163
176
170
148
111
80
64
76
90
86
52
14
-1
2
-3
-18
-28
-24
-19
-14
-8
1
8
13
17
21
22
21
20
18
16
17
17
16
14
12
12
11
10
10
10
10
9
7
8
9
10
8
5
2
3
4
6
11
13
13
14
16
18
20
24
26
32
33
39
41
44
48
52
56
56
58
59
61
61
60
59
58
56
55
54
51
49
45
44
43
43
42
40
38
37
38
38
35
33
34
33
30
30
30
31
29
27
26
24
24
24
24
22
23
25
24
21
21
21
18
15
13
16
16
12
13
15
17
16
12
10
12
14
14
13
12
12
10
11
12
13
14
11
11
10
7
6
4
7
8
7
4
1
-1
-1
-1
-1
-2
-3
-5
-7
-8
-8
-7
-7
-6
-3
-1
1
4
6
8
5
2
1
8
20
29
27
25
28
36
43
44
41
36
33
31
29
28
28
23
14
4
-4
-11
-19
-24
-24
-22
-16
-15
-14
-16
-19
-24
-25
-23
-14
5
31
65
96
118
122
109
90
64
54
62
83
84
49
8
-19
-28
-38
-60
-75
-75
-65
-65
-61
-56
-48
-42
-39
-35
-32
-34
-39
-41
-42
-41
-38
-38
-37
-36
-34
-35
-36
-36
-37
-39
-43
-48
-50
-49
-47
-47
-46
-46
-45
-46
-45
-43
-40
-39
-38
-38
-38
-34
-30
-26
-21
-14
-12
-12
-9
-7
-3
2
6
10
12
12
14
18
23
23
20
19
18
21
20
17
14
14
14
11
7
5
5
7
11
16
13
9
3
1
-2
-7
-8
-5
-4
-6
-8
-10
-12
-12
-12
-12
-12
-11
-11
-15
-14
-11
-10
-12
-16
-17
-14
-9
-7
-8
-8
-7
-6
-4
-6
-9
-11
-9
-4
7
16
16
12
9
11
13
23
30
31
26
25
36
48
58
60
60
57
50
41
40
44
40
28
12
2
-4
-10
-12
-13
-12
-15
-18
-18
-14
-12
-14
-14
-13
-4
16
43
74
108
134
140
122
90
55
28
25
41
48
27
-6
-33
-44
-53
-68
-79
-73
-59
-49
-40
-30
-24
-20
-18
-18
-20
-19
-16
-13
-14
-18
-20
-18
-18
-18
-22
-24
-28
-32
-28
-28
-31
-35
-31
-31
-32
-33
-35
-34
-34
-31
-28
-23
-26
-29
-29
-25
-21
-18
-14
-9
-8
-7
-5
0
4
7
11
14
16
19
21
23
22
20
22
25
24
20
15
14
12
13
10
6
4
3
2
1
-1
-1
-2
-3
-4
-1
0
-2
-4
-5
-7
-9
-7
-2
-3
-7
-8
-10
-11
-14
-15
-13
-11
-12
-14
-14
-14
-14
-16
-14
-17
-18
-17
-14
-12
-14
-13
-15
-15
-17
-17
-15
-15
-14
-10
-8
-9
-10
-10
-12
-11
-10
-9
-12
-14
-16
-15
-13
-13
-14
-14
-13
-10
-9
-9
-11
-12
-12
-10
-13
-13
-10
-8
-6
-3
1
4
7
6
3
0
-1
5
19
28
25
21
26
36
40
39
36
34
30
29
28
26
23
13
1
-9
-17
-24
-30
-33
-34
-33
-32
-34
-34
-34
-34
-41
-41
-32
-13
16
48
80
100
97
78
48
18
4
14
34
34
5
-33
-55
-59
-63
-82
-98
-102
-98
-93
-84
-73
-64
-56
-49
-46
-48
-49
-49
-50
-52
-53
-54
-56
-55
-54
-54
-56
-58
-59
-58
-56
-60
-64
-64
-64
-67
-70
-69
-69
-68
-71
-69
-70
-70
-67
-66
-64
-63
-60
-57
-56
-56
-50
-45
-42
-38
-34
-29
-28
-24
-21
-19
-19
-15
-12
-11
-12
-11
-8
-6
-7
-10
-12
-13
-16
-18
-18
-18
-18
-17
-14
-13
-13
-14
-15
-17
-18
-17
-15
-17
-21
-20
-21
-23
-25
-29
-30
-30
-29
-29
-28
-27
-27
-29
-27
-24
-23
-21
-19
-17
-17
-18
-17
-16
-11
-4
8
14
13
7
3
6
15
24
28
28
24
28
38
48
49
47
45
45
45
46
48
48
42
30
18
9
1
-5
-8
-8
-6
-4
-2
-2
-2
-2
-4
-5
-4
6
24
50
82
113
135
140
129
110
92
84
93
108
100
55
6
-20
-20
-21
-36
-50
-52
-46
-40
-31
-22
-15
-8
-7
-5
-6
-5
-4
-5
-4
-4
0
-1
1
-1
-2
-4
-4
-2
-2
-2
-4
-6
-8
-10
-10
-8
-6
-7
-5
-3
-3
-1
3
5
7
10
15
18
19
21
26
29
33
37
42
46
48
51
54
56
61
66
69
68
68
69
69
67
65
62
59
58
61
60
57
55
55
54
49
49
47
49
47
47
48
48
48
47
47
47
48
45
45
48
49
51
48
51
51
49
47
48
54
52
51
51
51
52
53
54
52
52
55
58
58
57
53
55
54
56
58
60
62
62
65
66
69
70
69
67
69
71
71
73
76
77
75
73
75
76
78
77
78
78
80
83
80
81
83
87
88
92
97
101
106
102
101
97
96
101
113
124
128
133
135
147
152
158
152
147
147
143
142
136
139
133
125
115
107
102
99
98
96
97
96
98
98
97
98
99
102
103
112
130
158
189
225
246
244
226
193
171
161
175
195
189
153
112
92
83
63
39
31
39
47
56
64
68
72
77
85
89
91
89
88
86
83
84
83
84
80
80
75
74
76
78
80
76
75
71
72
72
72
69
67
68
66
68
69
73
75
78
77
77
79
78
78
79
85
92
96
98
99
103
109
111
109
112
114
118
117
113
110
113
123
124
122
120
120
118
117
116
111
110
108
106
105
107
107
101
102
100
99
99
103
103
100
99
98
98
94
94
96
99
103
100
102
101
102
102
103
103
101
103
101
103
104
109
109
108
108
107
108
106
108
110
112
110
115
125
129
129
124
123
124
127
136
144
143
140
145
153
159
158
158
154
152
148
147
148
144
137
126
117
110
103
93
85
83
85
86
89
89
91
86
85
81
83
92
114
143
178
216
230
227
200
165
130
111
120
135
135
99
61
38
33
27
8
0
3
11
16
21
29
35
40
43
45
46
46
43
42
39
39
37
35
32
32
34
33
31
31
30
30
28
27
28
27
23
21
24
25
21
16
17
19
18
19
21
22
24
29
36
37
37
40
44
48
55
56
60
61
66
73
75
75
72
76
76
76
71
70
68
66
66
63
63
60
59
58
59
57
52
52
54
54
50
48
48
46
44
43
42
38
36
35
37
33
32
30
31
31
28
26
23
21
24
27
27
24
26
24
24
23
23
23
24
26
25
23
20
19
23
23
19
18
20
20
17
16
16
15
13
14
13
15
15
14
13
13
12
9
10
11
9
6
4
5
6
5
2
5
9
11
10
11
14
18
23
25
25
20
17
20
28
40
46
45
43
48
55
58
53
50
51
50
44
40
42
43
36
20
8
3
-5
-11
-15
-13
-11
-11
-11
-9
-8
-11
-17
-18
-6
17
49
84
112
126
121
100
77
64
76
104
120
87
29
-12
-26
-32
-54
-77
-89
-87
-79
-74
-66
-58
-52
-51
-46
-42
-40
-44
-49
-51
-49
-51
-52
-53
-50
-52
-52
-55
-56
-57
-58
-61
-62
-59
-58
-59
-60
-61
-61
-59
-57
-60
-61
-59
-56
-56
-53
-49
-45
-43
-41
-37
-34
-34
-30
-24
-19
-17
-13
-6
0
-2
-1
2
8
8
9
8
6
6
5
7
6
4
3
3
1
-1
-2
0
1
-2
-3
-4
-5
-5
-6
-3
-5
-5
-5
-5
-7
-9
-12
-13
-17
-20
-18
-14
-16
-17
-19
-19
-20
-20
-20
-22
-22
-18
-16
-15
-14
-14
-13
-10
-4
3
7
7
4
-1
1
9
20
29
27
21
22
31
41
45
44
38
38
38
34
30
30
32
23
11
-2
-13
-21
-25
-24
-24
-23
-23
-22
-21
-23
-25
-29
-29
-22
-1
29
62
94
122
133
126
109
92
90
106
125
107
47
-16
-45
-42
-45
-67
-82
-80
-72
-68
-62
-50
-42
-37
-34
-35
-35
-37
-38
-38
-40
-40
-39
-39
-37
-40
-42
-44
-45
-42
-42
-41
-42
-42
-45
-46
-48
-48
-49
-47
-45
-43
-41
-39
-37
-38
-37
-33
-31
-27
-24
-17
-16
-11
-8
-5
2
5
6
8
13
16
20
24
22
19
18
22
20
18
17
14
11
8
6
2
-1
3
4
0
-1
-1
-2
-6
-7
-4
-5
-9
-14
-14
-15
-16
-16
-16
-16
-13
-12
-13
-15
-14
-11
-7
-5
-8
-9
-9
-8
-9
-11
-13
-17
-16
-13
-12
-14
-19
-22
-22
-19
-15
-16
-16
-16
-17
-16
-17
-15
-17
-17
-14
-10
-10
-12
-12
-15
-15
-11
-8
-9
-10
-8
-6
-6
-8
-8
-7
-8
-12
-12
-9
-11
-11
-10
-7
-2
8
16
17
11
3
2
10
20
25
28
28
31
36
45
49
48
46
44
44
39
35
32
24
16
5
1
-4
-13
-17
-16
-15
-17
-15
-11
-9
-7
-10
-12
-9
1
22
56
88
121
143
155
145
117
96
86
96
114
121
89
41
4
-13
-22
-44
-68
-70
-62
-53
-48
-39
-28
-24
-21
-17
-14
-14
-15
-16
-14
-13
-15
-16
-16
-16
-19
-22
-22
-25
-25
-27
-27
-28
-28
-27
-28
-27
-27
-32
-36
-37
-37
-33
-29
-25
-27
-26
-24
-26
-28
-22
-9
-8
-8
-9
-6
-1
4
8
11
14
17
21
24
27
29
32
35
32
33
34
35
31
28
29
32
28
22
20
17
15
16
17
18
18
15
9
8
7
10
12
12
11
8
6
6
8
8
10
12
9
7
5
4
5
7
10
10
10
12
13
16
14
12
16
18
19
16
15
16
16
20
26
30
29
27
33
34
39
42
48
49
48
47
46
49
57
63
64
66
72
82
85
81
79
80
81
79
78
78
76
68
54
43
37
28
22
22
27
29
30
28
28
28
30
31
33
38
49
71
102
139
169
185
178
154
120
94
84
95
114
107
72
35
16
5
-12
-31
-34
-24
-17
-12
-6
2
8
10
18
24
28
25
21
22
22
26
26
24
19
15
16
19
18
14
15
18
20
20
17
15
13
15
18
18
14
10
12
15
19
24
26
24
23
27
32
36
39
40
42
47
49
51
49
54
60
64
66
64
65
65
64
64
64
63
59
57
51
53
57
55
51
48
48
48
52
54
51
45
43
44
44
45
42
43
45
44
42
41
42
39
37
35
35
35
36
36
31
30
30
33
33
33
30
30
32
31
29
28
31
32
36
36
34
31
30
30
31
33
35
34
31
30
28
29
30
29
28
29
30
30
30
30
29
28
26
28
29
30
28
26
30
31
32
29
29
34
37
41
44
50
52
51
49
45
44
52
65
71
70
70
79
86
88
88
83
80
73
71
68
71
68
56
42
31
28
20
14
12
15
16
15
13
12
13
12
11
15
31
54
82
112
140
155
148
126
100
86
98
127
132
93
39
8
-1
-15
-40
-57
-56
-50
-46
-39
-29
-24
-22
-18
-12
-14
-19
-21
-21
-21
-23
-20
-22
-22
-24
-25
-27
-29
-26
-28
-32
-32
-32
-31
-34
-33
-32
-31
-32
-31
-29
-29
-29
-29
-25
-26
-30
-27
-21
-16
-16
-12
-6
-2
-1
3
8
11
12
15
17
18
17
17
20
24
23
23
22
22
17
16
15
13
10
11
15
14
12
11
10
10
11
12
9
6
5
2
2
3
4
4
2
-1
-4
-4
-1
-2
-1
0
-1
-1
-1
1
0
3
4
4
3
1
4
8
13
13
14
21
28
32
33
31
28
25
29
36
45
50
48
49
55
62
64
63
61
62
64
63
60
58
56
48
37
26
16
5
0
-1
4
10
12
11
10
11
8
4
2
9
24
54
86
118
142
154
149
128
108
99
113
132
128
82
24
-6
-7
-8
-28
-44
-43
-38
-32
-30
-22
-13
-7
-3
-1
-1
-4
-4
-3
-3
-4
-6
-5
-4
-3
-7
-11
-12
-14
-15
-15
-13
-13
-12
-11
-12
-11
-10
-9
-10
-13
-16
-14
-11
-9
-7
-4
1
2
4
7
11
14
17
19
25
29
30
31
33
39
40
42
39
38
39
41
43
40
39
38
37
34
32
31
30
30
26
26
25
22
18
17
16
12
13
15
14
12
13
13
12
12
12
15
17
16
16
18
19
17
17
16
15
14
14
16
19
20
17
16
17
19
16
17
19
20
17
15
17
19
18
16
15
15
17
18
18
17
15
15
17
18
18
18
21
24
28
27
26
28
30
33
32
31
31
30
31
32
34
36
36
34
36
43
48
50
53
53
48
46
45
49
61
76
80
76
74
81
92
98
99
94
92
89
85
82
81
75
65
54
46
39
32
28
29
31
34
38
38
33
27
24
24
32
43
63
87
117
148
172
178
166
142
116
103
109
130
136
110
68
32
19
10
-12
-36
-42
-31
-26
-20
-12
-6
-3
-1
2
2
3
3
4
0
-5
-7
-7
-3
-3
-6
-13
-18
-18
-15
-13
-18
-22
-22
-19
-14
-15
-16
-18
-17
-17
-17
-14
-14
-11
-9
-9
-9
-9
-8
-6
-5
-1
2
5
11
14
19
22
25
26
31
35
36
35
34
35
37
39
36
35
33
33
32
33
33
33
33
29
26
25
28
30
29
29
27
27
25
21
19
18
20
20
21
18
14
14
16
18
18
22
24
24
22
24
27
29
33
33
32
33
35
31
28
28
30
31
33
37
38
40
39
44
55
63
65
62
58
51
52
58
66
72
73
76
81
92
94
93
89
87
86
81
80
78
77
72
61
47
38
36
30
25
23
26
27
27
30
29
28
24
22
25
36
57
85
118
152
172
170
155
123
98
86
95
110
104
74
38
11
3
0
-16
-25
-25
-18
-12
-7
0
7
10
11
13
14
14
14
11
11
13
14
11
8
8
7
5
6
3
2
1
3
3
9
12
12
10
8
10
12
12
13
14
15
15
15
20
28
30
33
34
38
41
48
54
59
62
65
68
70
71
72
75
76
75
75
76
77
75
74
72
70
68
68
67
66
64
63
64
64
63
59
57
56
54
57
58
57
53
51
54
55
57
58
56
55
55
58
59
58
55
55
53
53
53
53
54
52
56
56
55
53
51
53
52
53
55
56
54
54
55
55
58
59
63
62
64
62
63
62
63
64
67
67
65
67
69
68
69
70
71
70
72
70
69
69
68
70
74
79
77
77
79
83
86
89
92
96
95
90
88
92
101
113
116
115
116
128
136
138
132
128
128
125
125
121
121
117
107
95
85
79
68
66
65
68
70
74
75
73
73
70
68
70
83
106
132
159
183
202
198
184
153
130
122
137
155
146
110
70
56
55
45
24
13
20
27
31
39
51
60
62
62
63
66
65
65
64
64
65
67
68
68
68
69
70
68
65
63
62
64
64
65
63
58
58
60
64
60
60
60
60
61
66
72
73
75
75
80
82
88
91
97
102
105
111
113
118
118
124
128
129
131
131
134
131
131
130
131
129
127
125
125
125
123
123
122
121
120
119
117
117
119
117
116
114
112
112
112
112
109
110
108
105
105
104
105
103
104
101
100
101
102
105
106
108
105
108
111
112
110
110
112
112
115
116
119
123
132
139
136
132
124
126
134
144
144
140
140
149
162
165
163
158
158
158
157
155
152
151
140
129
117
110
103
98
94
94
95
96
98
98
99
95
92
92
102
124
153
188
219
235
234
222
205
185
182
195
216
206
156
104
77
75
65
44
29
26
30
36
44
48
55
58
60
61
60
61
57
56
56
58
56
52
52
48
48
48
46
46
45
45
45
45
41
40
40
42
43
43
42
40
38
38
39
44
48
50
54
59
62
65
69
72
75
78
80
83
86
90
94
99
101
100
99
96
94
93
92
91
88
90
93
93
92
89
89
83
82
80
83
82
78
74
71
72
71
72
67
67
65
64
64
63
63
62
64
64
64
67
65
63
59
62
62
61
61
60
56
52
52
54
55
53
54
51
50
50
49
48
46
45
45
49
48
47
47
47
50
51
51
47
45
45
47
49
48
47
49
52
52
49
46
46
49
49
48
50
49
47
47
50
50
54
58
62
64
68
69
63
60
57
64
74
84
85
86
88
95
104
102
101
99
98
93
87
86
84
78
65
55
48
40
35
32
30
31
36
40
42
40
35
31
32
50
83
122
158
186
192
175
143
113
98
100
117
116
88
51
23
8
-6
-27
-37
-31
-18
-9
-2
5
11
12
16
16
15
13
8
9
12
14
14
11
7
5
7
6
4
-2
-8
-9
-6
-4
-5
-7
-8
-8
-8
-8
-6
-2
0
-2
-4
-3
1
4
6
6
10
17
22
26
28
30
33
38
40
43
46
50
53
55
54
56
58
56
54
54
52
51
52
56
58
57
55
55
56
51
48
47
47
47
43
45
43
44
41
41
40
39
38
35
40
40
40
40
40
39
39
43
40
38
36
40
43
46
47
45
45
46
48
48
52
52
54
53
51
53
54
58
61
70
78
81
78
71
67
71
82
91
96
96
99
110
118
120
115
111
109
111
109
107
106
104
98
84
73
64
59
54
54
57
59
60
58
60
60
59
60
58
68
87
118
146
184
211
214
201
168
140
120
127
147
152
124
73
43
34
28
6
-8
-8
-4
4
16
27
32
36
38
40
43
46
43
40
39
39
39
38
39
39
38
34
32
33
33
31
31
30
27
26
28
27
25
23
24
26
26
23
23
27
30
30
31
33
36
40
48
49
48
49
52
56
61
69
69
72
70
71
71
71
69
68
68
64
62
60
57
53
52
54
51
48
47
48
44
40
40
39
40
38
38
38
38
36
38
40
38
37
36
39
38
39
40
42
43
42
40
39
38
36
38
38
36
34
33
35
34
35
35
37
36
35
37
38
39
38
38
40
40
40
40
41
39
39
40
40
40
39
39
39
42
42
42
40
41
43
40
43
45
48
45
44
46
49
52
50
50
49
53
54
58
64
68
66
62
58
57
61
72
82
85
84
83
86
99
105
103
97
97
96
94
92
90
88
80
67
55
46
36
31
35
37
38
35
31
30
31
33
28
29
41
63
92
124
157
177
180
162
136
112
107
121
137
125
71
21
1
2
-7
-32
-47
-51
-45
-36
-28
-20
-14
-6
-2
-2
-4
-2
0
0
-3
-3
-1
-2
-5
-7
-7
-7
-10
-10
-13
-15
-17
-18
-17
-19
-21
-23
-26
-26
-26
-26
-26
-26
-24
-21
-23
-20
-19
-16
-11
-9
-9
-8
-5
0
6
9
11
13
19
24
26
26
25
24
23
23
21
20
21
18
15
12
12
11
14
13
10
9
10
9
6
5
4
1
-1
-3
-5
-7
-7
-4
-4
-6
-7
-8
-9
-10
-10
-9
-7
-9
-10
-13
-13
-15
-13
-11
-10
-10
-7
-5
-6
-7
-8
-7
-4
2
11
17
19
19
16
12
16
28
36
34
31
36
46
55
54
53
47
44
42
41
43
43
38
20
7
-2
-9
-12
-14
-14
-13
-8
-7
-8
-10
-11
-10
-11
-5
9
33
62
96
128
151
151
139
119
100
99
117
136
114
63
12
-13
-22
-40
-61
-67
-62
-55
-50
-43
-37
-33
-32
-28
-29
-29
-28
-27
-26
-26
-28
-31
-34
-34
-33
-30
-31
-33
-34
-37
-40
-42
-39
-37
-36
-36
-38
-43
-44
-40
-37
-36
-35
-29
-29
-27
-25
-24
-21
-19
-16
-15
-11
-6
-1
5
9
9
10
14
16
20
22
21
20
21
24
21
18
18
17
14
16
17
16
14
14
14
14
13
9
5
3
6
7
8
6
4
3
3
2
-1
-2
0
4
8
7
7
7
5
6
6
12
14
14
13
13
15
12
12
13
14
12
15
15
13
12
12
16
19
23
23
21
20
19
22
24
29
26
27
28
32
31
27
24
23
28
35
38
39
38
36
37
39
38
38
37
40
41
39
37
34
33
36
40
47
51
52
52
52
55
56
56
52
50
59
70
78
80
84
93
98
101
97
94
90
88
86
81
80
74
61
47
41
35
28
25
27
29
29
30
31
32
34
31
29
33
44
63
92
123
154
178
177
161
130
104
87
92
111
114
88
48
18
10
9
-5
-26
-30
-25
-19
-10
-1
8
14
19
21
23
23
22
22
23
22
21
22
24
21
19
19
20
19
19
17
12
11
14
12
10
9
7
6
3
4
5
8
7
8
10
10
11
11
16
18
19
21
23
27
32
37
42
47
45
46
49
54
60
62
65
66
68
68
68
67
67
65
65
63
60
58
58
59
59
56
55
54
56
56
57
55
53
49
49
49
49
48
48
48
46
44
47
47
46
46
46
44
41
42
44
44
45
46
46
45
41
40
47
48
44
42
46
49
49
47
48
53
52
58
61
67
69
70
66
60
63
69
81
85
84
80
83
92
100
103
96
91
86
87
87
86
86
83
73
57
48
41
34
30
28
28
28
31
33
40
40
35
30
30
36
53
81
114
147
167
167
149
120
94
78
86
104
103
71
29
3
-1
-3
-20
-34
-31
-24
-19
-11
1
9
17
20
22
24
23
21
19
21
21
20
20
20
19
17
16
14
14
13
12
12
12
14
14
14
11
10
11
13
13
10
9
12
14
15
16
19
20
22
26
32
36
38
43
50
52
55
56
60
60
62
65
66
64
60
58
61
61
61
56
53
54
52
51
47
45
44
44
43
41
42
40
41
41
42
38
36
35
34
35
35
37
36
35
32
34
36
36
35
30
32
35
35
32
30
29
28
28
27
29
28
28
29
32
34
32
30
30
29
28
29
30
30
30
31
31
31
32
31
31
29
30
31
32
29
28
28
27
27
28
28
31
32
31
27
26
25
25
25
25
26
25
28
31
34
37
41
42
41
40
34
33
41
53
59
58
58
56
63
68
73
67
64
66
67
65
61
57
46
30
21
15
13
9
10
9
8
7
11
12
12
9
5
8
20
40
69
99
128
148
150
136
112
90
86
105
128
121
83
37
10
-1
-17
-38
-44
-40
-32
-25
-20
-17
-12
-7
-5
-5
-7
-6
-11
-10
-8
-8
-8
-8
-5
-5
-6
-8
-13
-14
-14
-13
-13
-9
-12
-12
-11
-12
-13
-16
-14
-15
-14
-14
-14
-13
-10
-7
-8
-7
-4
4
7
5
4
8
15
22
27
29
33
38
38
37
38
38
36
35
38
40
38
33
30
30
31
32
30
28
31
31
27
22
20
20
23
25
22
19
18
18
20
18
19
17
16
15
15
14
11
15
16
14
10
9
11
12
12
12
14
15
16
16
15
14
16
18
19
23
24
25
29
33
38
39
36
31
29
32
42
49
52
50
51
58
68
70
68
66
62
58
56
56
55
49
40
31
26
24
19
10
6
5
6
5
6
7
8
8
4
4
11
25
49
79
111
134
140
134
106
77
53
48
59
71
64
30
-4
-22
-29
-41
-59
-61
-54
-43
-35
-29
-20
-16
-14
-10
-9
-11
-10
-8
-9
-10
-12
-9
-12
-13
-14
-14
-16
-16
-16
-16
-16
-17
-17
-16
-19
-20
-22
-21
-19
-21
-23
-21
-17
-17
-15
-12
-11
-10
-4
0
3
3
7
12
16
21
24
26
30
33
34
35
37
38
37
37
40
39
37
35
36
34
32
34
32
31
28
31
29
26
25
21
21
19
18
16
17
18
18
15
14
17
20
19
18
17
14
11
11
12
14
18
18
14
9
11
12
11
9
9
9
12
10
10
9
7
7
7
6
7
9
10
8
7
8
10
7
7
10
14
15
12
13
14
16
16
15
16
17
18
17
15
16
17
17
16
12
12
15
17
17
16
18
21
23
24
22
29
33
38
40
42
37
31
29
36
48
58
62
60
63
68
76
79
78
76
75
76
69
67
70
70
61
52
44
34
24
20
21
25
26
26
28
30
28
26
25
26
32
45
72
103
139
159
165
157
136
115
96
99
115
122
99
55
26
23
29
12
-13
-21
-19
-14
-9
-2
8
14
17
19
21
21
22
17
17
19
23
23
22
19
16
15
15
15
14
14
12
13
14
15
16
15
12
11
12
13
14
14
14
13
16
21
24
25
25
28
31
36
40
43
48
51
55
58
60
65
70
73
75
78
78
78
77
79
83
81
79
75
73
74
75
77
73
75
74
78
77
76
76
79
79
76
74
74
74
72
71
71
68
67
65
62
60
62
60
58
54
54
54
53
56
60
60
56
56
58
60
62
63
66
67
72
76
80
83
83
83
82
84
89
99
104
104
104
108
116
121
122
118
116
113
113
117
114
110
101
89
79
69
63
58
60
62
65
66
64
63
60
63
58
56
63
82
105
136
171
198
210
202
189
169
156
160
184
195
161
110
68
58
59
44
20
14
17
20
23
34
43
45
48
51
51
51
49
50
48
50
49
48
48
48
49
46
44
44
42
40
39
38
37
38
39
35
33
33
32
34
36
33
32
35
40
41
42
46
51
53
53
55
58
62
67
68
72
73
79
81
85
90
92
94
92
90
90
91
91
92
91
90
87
81
80
80
83
83
84
84
81
76
77
79
79
76
73
72
69
66
63
63
64
65
70
69
69
68
68
69
67
65
65
69
72
69
68
65
65
65
64
63
64
69
67
68
67
64
62
64
65
67
68
66
64
60
59
60
64
70
70
70
65
66
65
69
68
64
66
69
72
69
67
66
67
70
73
75
72
74
76
79
79
78
78
80
82
85
88
87
83
78
76
79
87
101
106
105
105
112
122
123
119
119
123
118
109
101
100
99
93
82
68
60
55
54
52
49
53
53
56
55
54
53
50
54
70
93
115
142
168
190
188
172
145
110
90
92
110
105
78
45
28
20
4
-21
-32
-26
-15
-10
-2
6
12
11
13
17
19
18
17
16
15
14
16
17
17
14
11
7
4
6
7
5
3
1
-1
-2
-4
-4
-4
-5
-8
-11
-7
-3
1
2
2
-2
-4
-2
4
7
10
19
21
23
22
26
29
31
35
38
42
44
44
44
47
48
47
48
48
48
45
43
39
35
35
36
36
34
31
30
30
29
27
24
22
21
20
19
14
11
11
12
10
8
7
9
10
10
9
11
11
11
12
16
16
15
14
14
14
16
18
18
18
17
17
16
15
17
18
18
19
24
31
36
40
40
41
32
30
32
43
54
56
53
49
55
64
69
65
60
56
54
54
50
50
45
37
25
19
12
4
-3
-4
-3
-1
-1
0
-1
-2
-6
-9
-9
-1
19
51
88
118
132
125
103
70
49
45
63
81
65
18
-24
-40
-40
-52
-70
-77
-72
-67
-57
-49
-41
-34
-31
-27
-26
-27
-30
-32
-32
-34
-34
-34
-30
-29
-30
-32
-31
-29
-29
-31
-35
-34
-34
-34
-35
-35
-34
-36
-31
-32
-32
-35
-32
-29
-25
-22
-18
-15
-13
-11
-7
-5
-1
3
7
8
13
16
17
20
27
29
28
24
22
24
28
25
20
16
15
15
16
16
13
9
7
7
6
3
2
3
5
6
3
2
1
-1
-1
-1
-1
-5
-3
2
3
1
3
6
6
5
6
6
4
4
4
5
6
4
3
4
1
2
6
10
7
6
5
6
4
4
4
3
4
6
6
6
5
4
4
4
4
5
7
4
3
6
8
8
7
6
4
4
6
8
8
7
6
8
10
10
11
11
10
11
15
24
29
27
25
21
21
28
38
44
42
41
43
52
58
57
53
52
50
48
45
41
37
30
21
10
0
-9
-16
-16
-12
-9
-6
-5
-3
-5
-6
-10
-13
-10
2
27
58
89
116
127
123
111
92
78
79
102
118
97
41
-7
-21
-25
-42
-68
-76
-72
-66
-61
-51
-43
-38
-38
-39
-36
-36
-36
-36
-39
-41
-41
-38
-36
-37
-40
-43
-44
-45
-46
-45
-44
-43
-48
-52
-50
-48
-45
-48
-46
-47
-44
-43
-44
-42
-44
-44
-45
-42
-39
-37
-33
-29
-23
-18
-13
-9
-6
-3
0
2
8
12
14
14
17
18
16
15
15
16
16
12
10
13
19
19
17
15
12
14
12
11
11
11
8
5
6
7
8
9
10
8
4
1
-3
-6
-9
-10
-10
-8
-10
-11
-10
-12
-16
-15
-10
-8
-4
-2
-3
-5
-9
-7
-8
-5
-6
-5
0
6
12
15
14
10
4
4
12
28
34
31
28
32
42
48
48
46
44
40
35
34
33
35
31
19
7
-1
-5
-11
-16
-16
-16
-17
-14
-13
-14
-14
-13
-11
-4
5
24
56
93
126
142
144
125
99
79
76
89
101
85
41
1
-19
-23
-41
-67
-75
-62
-47
-39
-31
-23
-19
-16
-14
-8
-7
-6
-7
-8
-9
-9
-6
-6
-8
-13
-14
-13
-11
-9
-10
-9
-9
-11
-10
-8
-8
-8
-8
-8
-10
-11
-12
-9
-5
-2
-1
0
0
1
7
13
15
19
24
28
30
33
39
43
48
51
53
54
56
57
60
67
67
65
62
60
57
56
56
53
53
51
52
50
46
47
51
52
50
46
47
49
48
47
50
48
48
45
47
51
55
57
56
54
53
54
53
52
49
48
51
52
50
51
52
53
53
55
57
52
50
47
47
51
54
55
53
51
51
53
55
54
53
56
57
55
52
53
53
55
54
55
52
51
50
50
55
53
56
57
54
52
53
56
54
54
56
56
53
54
60
68
74
74
72
67
62
63
74
88
94
93
92
100
105
109
108
105
102
98
98
93
92
90
83
68
58
54
48
44
44
49
51
48
49
51
49
47
46
54
67
87
115
152
181
192
182
159
131
114
116
139
152
128
83
50
43
36
14
-3
-5
2
8
18
24
31
38
44
48
44
43
41
41
43
45
45
41
40
40
41
43
42
39
37
35
35
36
36
35
35
36
33
31
30
31
32
32
32
32
29
32
35
37
39
40
44
51
57
62
63
64
68
74
78
79
79
80
81
84
85
86
82
81
79
79
80
78
76
71
73
71
72
71
70
67
65
68
68
70
67
64
62
62
64
60
60
58
60
57
59
60
54
51
51
53
54
56
56
56
56
55
54
54
55
55
58
59
61
63
65
68
72
80
82
84
80
79
82
90
100
102
99
99
102
108
113
112
109
111
109
106
102
100
99
95
86
73
64
57
51
48
47
49
45
44
43
45
46
41
37
40
52
70
100
132
164
175
174
156
124
105
102
119
126
103
54
11
0
4
-3
-20
-27
-20
-15
-9
-4
3
8
12
16
17
17
17
14
12
9
9
6
4
5
8
7
6
3
1
-1
0
3
3
-1
-3
-3
-2
0
0
-1
-2
-3
-2
-3
-3
-3
0
2
4
9
14
19
18
21
25
30
32
33
36
37
37
35
36
37
38
38
38
38
36
35
33
31
29
29
31
29
30
32
28
25
24
22
17
14
12
12
11
9
10
12
14
11
7
7
6
8
9
10
7
3
4
7
8
7
4
3
1
-1
-2
-5
-4
-2
2
1
2
0
-2
-4
-4
0
0
-4
-5
-9
-8
-6
-1
0
1
0
-4
-5
-4
-2
-3
-5
-4
-2
1
-2
-4
-4
-5
-7
-7
-6
-7
-7
-6
-6
-3
0
1
4
8
9
7
5
3
3
14
24
28
27
27
31
38
41
40
38
38
39
35
29
25
23
15
3
-5
-8
-12
-15
-15
-15
-12
-9
-12
-13
-14
-16
-17
-16
-10
4
28
56
90
117
130
123
99
74
51
47
56
70
63
30
-5
-32
-42
-53
-72
-79
-74
-62
-57
-50
-43
-36
-31
-29
-28
-28
-29
-32
-33
-32
-32
-33
-37
-38
-36
-35
-35
-38
-40
-38
-38
-40
-41
-44
-45
-44
-45
-47
-49
-50
-50
-47
-47
-48
-47
-46
-47
-49
-46
-45
-39
-31
-25
-27
-23
-17
-13
-10
-8
-4
-5
-3
1
6
6
4
6
10
13
7
3
0
2
2
1
0
-2
-1
-2
-1
0
0
0
-3
-4
-4
-2
0
-1
-5
-6
-7
-7
-5
-3
-3
-4
-2
0
-1
0
2
2
0
2
2
2
2
2
3
4
5
7
10
13
14
15
15
16
17
16
16
19
22
29
36
39
40
35
30
29
36
45
49
51
50
57
64
68
66
63
60
59
60
57
56
54
52
39
28
21
12
8
4
5
5
4
6
7
8
8
7
3
5
17
38
62
89
117
133
130
112
84
56
46
59
76
64
29
-4
-16
-17
-31
-51
-58
-52
-44
-40
-32
-23
-18
-13
-10
-8
-10
-12
-10
-10
-8
-8
-5
-4
-4
-8
-7
-6
-7
-6
-7
-5
-8
-8
-7
-5
-5
-6
-5
-6
-5
-3
-1
-1
-2
-2
2
4
6
8
11
14
16
21
28
32
39
43
45
44
45
48
51
53
53
53
52
52
51
49
49
49
49
49
47
46
45
45
45
45
45
41
40
42
40
40
40
43
41
42
44
43
43
42
41
42
41
40
40
43
41
42
40
42
44
46
48
46
46
44
43
44
44
46
43
43
43
48
50
48
44
44
47
49
47
45
43
43
47
48
50
50
48
46
46
46
46
47
46
44
43
44
49
54
56
57
55
54
53
53
54
54
54
57
63
69
73
73
71
65
64
72
85
92
90
90
94
101
100
102
102
101
97
93
94
90
87
74
61
51
46
40
35
35
36
37
37
36
37
34
29
24
24
37
60
88
120
146
161
153
132
105
81
76
92
106
82
36
3
-4
-2
-17
-35
-41
-38
-35
-32
-22
-12
-8
-4
-1
1
3
4
4
0
-2
-2
-2
-4
-5
-5
-2
-4
-6
-6
-10
-13
-13
-11
-10
-10
-13
-14
-14
-13
-13
-14
-12
-12
-8
-5
-3
-3
0
6
9
12
15
19
22
28
34
38
42
44
44
43
46
48
49
48
50
52
56
57
55
50
46
45
45
44
42
41
39
39
39
41
42
43
41
40
38
38
39
39
38
34
34
30
28
24
25
25
25
24
22
22
23
26
25
22
19
19
20
22
26
28
27
28
34
42
47
52
49
44
40
42
50
63
69
69
68
72
79
83
84
82
82
85
84
85
84
80
67
53
44
40
32
26
24
28
29
30
30
30
30
29
28
28
36
52
78
109
140
162
173
163
144
120
108
112
127
135
106
63
25
11
5
-14
-32
-29
-16
-8
-3
2
8
11
12
15
14
12
11
14
20
19
15
11
14
13
10
8
8
6
5
5
5
7
10
10
6
4
7
9
9
7
9
9
11
12
14
17
20
22
25
30
30
32
35
41
49
57
63
66
65
62
68
76
77
74
75
81
79
77
76
76
75
74
78
78
79
74
71
69
70
72
71
70
64
68
67
67
65
63
66
70
72
71
72
72
74
75
72
68
64
67
70
72
70
71
70
68
68
71
74
75
78
77
76
72
70
71
72
75
73
73
73
71
67
65
66
64
64
67
68
71
75
77
77
77
75
72
71
71
74
73
74
71
74
72
70
66
67
70
70
75
75
75
71
71
76
77
81
82
86
87
85
83
91
100
105
108
105
108
112
124
129
128
126
125
124
118
115
113
114
106
93
82
76
70
64
65
67
69
70
69
69
68
66
63
68
81
99
123
154
188
200
191
166
132
100
82
88
102
108
90
60
38
27
18
5
-3
2
10
16
24
30
35
44
51
54
53
49
45
42
45
46
49
46
46
43
44
42
43
42
40
38
36
36
37
36
34
32
32
31
34
33
32
34
35
34
36
40
44
47
48
48
50
52
53
57
61
66
69
71
75
77
81
87
91
90
84
83
85
85
82
81
87
85
82
77
77
75
71
72
70
72
68
66
67
68
69
68
68
63
59
56
59
58
57
57
53
53
52
53
51
52
50
50
49
49
47
46
47
46
46
46
47
47
48
50
48
49
49
53
56
61
63
64
64
59
55
56
64
72
75
74
74
76
84
91
92
89
87
85
84
78
77
75
70
57
45
38
28
21
19
22
22
22
27
27
28
23
19
18
24
38
61
90
117
142
147
138
113
86
65
59
71
84
75
34
-3
-18
-20
-30
-45
-47
-41
-36
-30
-20
-12
-7
-4
-3
-1
0
2
5
6
5
2
2
3
5
3
1
3
4
2
3
4
2
-3
-5
-4
-1
-2
-4
-4
-2
-2
-5
-4
-4
-2
1
6
7
7
9
12
16
18
23
25
31
33
40
44
48
48
48
49
51
52
50
49
48
46
46
44
43
39
37
35
33
32
32
32
29
26
26
26
24
23
22
20
16
15
18
21
21
16
16
17
19
16
15
14
12
13
16
15
13
10
11
7
5
4
3
4
2
1
-2
-2
-1
2
3
2
0
2
6
4
1
1
1
1
-3
-3
-4
-2
-2
-1
-1
-2
-2
-2
-1
1
2
3
1
2
3
3
1
0
0
-1
-1
-1
0
1
4
10
15
20
21
19
14
12
15
25
34
36
36
39
44
47
46
44
43
44
45
42
38
36
35
26
14
6
-2
-9
-13
-15
-12
-10
-7
-8
-9
-10
-11
-13
-15
-7
15
39
62
90
113
127
118
97
75
61
72
99
108
68
16
-12
-18
-26
-51
-71
-73
-70
-65
-62
-56
-51
-46
-42
-39
-39
-41
-42
-44
-43
-43
-46
-48
-49
-48
-48
-47
-48
-50
-52
-55
-57
-59
-61
-64
-64
-63
-63
-63
-65
-63
-62
-63
-66
-69
-67
-63
-59
-57
-53
-49
-46
-44
-40
-41
-39
-34
-27
-22
-20
-19
-18
-13
-10
-13
-13
-12
-8
-7
-8
-12
-16
-17
-16
-14
-15
-15
-16
-17
-16
-14
-15
-19
-21
-21
-19
-19
-21
-21
-23
-25
-24
-21
-19
-21
-24
-27
-27
-23
-21
-21
-20
-21
-23
-26
-26
-27
-27
-27
-28
-28
-31
-32
-29
-26
-25
-23
-21
-24
-29
-29
-22
-18
-14
-8
1
4
0
-5
-13
-10
3
14
15
16
23
30
35
32
29
26
24
23
21
22
21
16
0
-12
-15
-19
-24
-28
-31
-33
-34
-31
-30
-27
-27
-28
-27
-21
-8
12
43
82
112
123
111
87
58
33
28
39
48
36
3
-30
-50
-58
-76
-94
-89
-76
-64
-57
-49
-43
-36
-32
-31
-29
-26
-26
-27
-28
-30
-32
-32
-31
-29
-32
-33
-36
-38
-39
-38
-36
-34
-32
-36
-38
-39
-44
-46
-45
-40
-39
-36
-38
-36
-33
-31
-28
-26
-24
-25
-22
-19
-16
-10
-4
0
1
4
7
12
15
17
21
23
21
21
23
24
22
23
24
22
19
17
16
17
19
21
16
15
16
15
15
16
20
18
19
19
17
19
20
23
22
22
20
17
17
20
22
24
27
30
31
28
27
25
26
26
24
25
30
31
32
35
35
32
33
36
39
39
41
43
46
46
46
48
47
48
52
53
52
54
59
63
63
60
63
65
66
64
64
65
65
64
65
68
68
66
68
73
80
84
89
91
97
94
91
88
87
98
108
118
115
115
120
132
140
139
139
135
135
131
130
128
126
120
106
96
88
86
84
86
84
86
89
89
87
86
87
86
87
95
115
142
171
207
227
222
198
169
139
124
132
156
165
137
97
70
64
59
40
28
27
33
39
48
58
63
70
72
73
70
69
69
70
67
68
71
71
73
71
70
71
70
71
66
65
61
64
64
65
67
64
64
63
62
61
61
63
65
67
66
68
68
71
73
78
82
88
89
90
91
93
101
108
114
115
117
120
121
123
120
123
125
129
126
120
118
115
117
117
116
116
116
112
111
110
106
105
108
109
108
105
106
106
109
107
107
105
103
102
101
105
103
102
102
103
101
100
103
101
104
102
105
106
108
110
107
109
108
111
114
119
120
120
128
136
143
135
128
122
130
141
150
149
145
148
153
161
162
161
156
155
156
154
152
148
148
141
131
118
109
102
95
93
93
95
92
92
93
96
97
93
89
92
106
128
159
196
219
230
219
196
167
146
145
158
171
144
95
58
51
55
44
26
19
24
27
35
44
52
57
59
64
67
68
63
63
65
64
62
59
59
57
56
55
55
56
56
54
52
52
52
51
49
48
47
45
42
39
42
42
46
50
51
48
50
55
57
59
60
68
72
72
72
75
80
81
84
87
91
91
89
91
89
89
86
86
84
83
88
87
86
79
76
74
71
70
69
70
68
67
66
64
63
65
65
62
58
57
60
61
60
60
56
54
52
54
52
51
49
51
52
51
47
45
46
44
44
46
46
44
44
43
45
45
43
40
38
39
40
43
46
46
45
46
46
45
44
41
39
42
48
48
46
41
42
43
47
48
51
49
46
44
44
50
47
47
45
44
43
46
55
64
67
60
56
52
51
56
68
76
78
76
80
90
96
97
92
86
83
81
79
77
78
73
62
48
39
31
24
20
22
22
22
24
28
30
25
16
13
19
35
57
84
119
150
165
153
125
91
68
66
86
102
79
39
8
-2
-8
-30
-49
-48
-39
-30
-22
-17
-13
-13
-11
-4
-2
-1
-3
-7
-10
-13
-10
-11
-10
-12
-11
-10
-12
-13
-14
-17
-21
-21
-18
-18
-19
-22
-19
-17
-16
-12
-12
-16
-21
-21
-15
-9
-7
-7
-4
-2
-2
1
7
10
12
16
23
27
32
35
38
39
41
45
47
46
43
43
45
44
44
46
49
48
49
46
40
38
40
41
36
37
36
36
34
33
32
32
31
32
36
37
35
30
29
31
29
29
27
26
28
32
34
34
31
26
25
27
29
30
31
32
32
34
38
39
39
41
44
49
53
58
57
54
54
53
56
66
75
77
73
78
87
98
100
94
85
82
82
82
88
87
83
68
55
50
46
42
35
33
32
31
33
33
35
35
35
33
38
49
73
102
136
166
172
160
127
95
67
58
72
88
81
48
21
6
3
-8
-29
-33
-24
-14
-5
1
9
11
15
22
25
24
21
20
19
19
18
18
16
16
16
16
15
15
15
15
17
20
21
18
18
19
19
17
15
16
17
19
19
21
24
27
29
30
34
35
39
42
44
48
50
59
61
67
68
73
76
77
76
79
81
77
76
73
73
74
73
69
66
65
63
63
62
62
61
60
59
57
57
55
56
56
55
54
53
53
53
51
51
51
50
48
47
48
49
52
51
48
47
46
45
45
46
45
42
42
41
40
41
42
42
40
40
38
35
32
33
39
43
43
36
35
36
35
33
32
37
36
36
35
34
32
33
37
38
39
38
39
38
38
38
40
42
42
43
43
46
46
49
54
62
64
62
58
53
56
66
78
81
79
79
83
91
96
96
93
90
85
82
84
82
78
71
60
50
42
35
31
32
33
35
35
33
31
30
30
24
24
31
48
70
98
126
147
156
143
121
90
71
72
95
109
81
39
6
-1
2
-10
-32
-44
-42
-34
-25
-15
-8
-2
4
7
6
6
7
5
3
5
6
5
3
3
0
1
4
3
-1
-2
-4
-5
-3
-1
-5
-9
-8
-8
-6
-4
-5
-5
-6
-5
-5
-1
-4
-6
-1
6
7
6
8
12
16
18
26
28
32
34
36
38
40
39
38
38
40
43
43
44
41
39
38
31
28
28
30
28
26
27
24
23
24
25
24
24
24
21
20
18
17
14
13
11
9
8
9
7
7
5
8
9
4
-1
-5
-4
-4
-2
-1
-2
-3
-2
-3
-4
0
6
9
16
22
21
18
15
17
25
37
40
36
31
32
43
54
61
55
52
50
50
47
44
44
37
26
16
12
7
0
-4
-4
-2
-1
0
0
0
1
2
1
3
10
24
48
81
118
146
158
150
129
108
98
105
124
131
96
44
8
0
-5
-24
-45
-47
-40
-32
-26
-18
-8
-2
-1
1
6
8
9
9
10
5
4
3
4
7
6
5
4
3
4
5
7
6
7
5
4
1
2
5
6
6
5
7
5
6
8
11
16
20
25
30
37
40
43
45
49
53
60
65
65
67
74
83
83
82
79
79
77
76
78
79
81
79
78
78
76
72
70
70
70
70
68
69
70
70
67
69
72
69
67
68
69
68
69
69
65
68
70
68
67
74
82
82
80
76
74
72
72
73
74
74
72
73
71
71
73
75
76
74
76
75
76
75
76
83
88
91
88
93
96
93
87
87
83
81
82
87
91
91
94
93
93
95
97
98
96
97
98
101
102
104
105
106
107
107
111
118
123
122
118
113
112
126
140
145
142
142
150
156
159
